# OpenSignals Text File Format. Version 1
# {"": {"position": 0, "device": "", "device name": "", "device connection": "", "sampling rate": 1000, "resolution": [4, 1, 1, 1, 1, 10, 10, 10, 10, 6, 6], "firmware version": 1281, "comments": "", "keywords": "", "mode": 0, "sync interval": 2, "date": "", "time": "", "channels": [1, 2, 3, 4, 5, 6], "sensor": ["RAW", "RAW", "RAW", "RAW", "RAW", "RAW"], "label": ["A1", "A2", "A3", "A4", "A5", "A6"], "column": ["nSeq", "I1", "I2", "O1", "O2", "A1", "A2", "A3", "A4", "A5", "A6"], "special": [{}, {}, {}, {}, {}, {}], "digital IO": [0, 0, 1, 1]}}
# EndOfHeader
0	0	0	0	0	1021	1021	0	1021	0	0	
1	0	0	0	0	1021	1021	0	1021	0	0	
2	0	0	0	0	1021	1021	0	1021	0	0	
3	0	0	0	0	1021	1021	0	1021	0	0	
4	0	0	0	0	1021	1021	0	1021	0	0	
5	0	0	0	0	1021	1021	0	1019	0	0	
6	0	0	0	0	1021	1021	0	622	0	0	
7	0	0	0	0	1021	1021	0	15	0	0	
8	0	0	0	0	838	840	0	0	0	0	
9	0	0	0	0	466	499	0	0	0	0	
10	0	0	0	0	29	119	0	0	0	0	
11	0	0	0	0	0	0	0	0	0	0	
12	0	0	0	0	0	0	0	0	0	0	
13	0	0	0	0	0	0	0	0	0	0	
14	0	0	0	0	0	0	0	0	0	0	
15	0	0	0	0	124	68	0	0	0	0	
0	0	0	0	0	613	364	0	391	0	0	
1	0	0	0	0	1020	806	0	1006	0	0	
2	0	0	0	0	1021	1020	0	1020	0	0	
3	0	0	0	0	1021	1021	0	1020	0	0	
4	0	0	0	0	1021	1021	0	1021	0	0	
5	0	0	0	0	1021	1021	0	1021	0	0	
6	0	0	0	0	1021	1021	0	1021	0	0	
7	0	0	0	0	1021	1021	0	1021	0	0	
8	0	0	0	0	1021	1021	0	1021	0	0	
9	0	0	0	0	1021	1021	0	1021	0	0	
10	0	0	0	0	1021	1021	0	699	0	0	
11	0	0	0	0	1021	1021	0	127	0	0	
12	0	0	0	0	1021	1021	0	0	0	0	
13	0	0	0	0	1021	964	0	0	0	0	
14	0	0	0	0	796	764	0	0	0	0	
15	0	0	0	0	483	543	0	0	0	0	
0	0	0	0	0	167	353	0	0	0	0	
1	0	0	0	0	0	244	0	0	0	0	
2	0	0	0	0	0	244	0	0	0	0	
3	0	0	0	0	151	373	0	0	0	0	
4	0	0	0	0	596	633	0	289	0	0	
5	0	0	0	0	1020	1003	0	833	0	0	
6	0	0	0	0	1021	1021	0	1020	0	0	
7	0	0	0	0	1021	1021	0	1020	0	0	
8	0	0	0	0	1021	1021	0	1021	0	0	
9	0	0	0	0	1021	1021	0	1021	0	0	
10	0	0	0	0	1021	1022	0	1020	0	0	
11	0	0	0	0	1021	1021	0	1021	0	0	
12	0	0	0	0	1021	1021	0	1020	0	0	
13	0	0	0	0	1021	1021	0	907	0	0	
14	0	0	0	0	1021	1021	0	437	0	0	
15	0	0	0	0	1021	949	0	1	0	0	
0	0	0	0	0	1021	604	0	0	0	0	
1	0	0	0	0	899	160	0	0	0	0	
2	0	0	0	0	599	0	0	0	0	0	
3	0	0	0	0	259	0	0	0	0	0	
4	0	0	0	0	0	0	0	0	0	0	
5	0	0	0	0	0	0	0	0	0	0	
6	0	0	0	0	0	0	0	0	0	0	
7	0	0	0	0	232	0	0	0	0	0	
8	0	0	0	0	746	155	0	246	0	0	
9	0	0	0	0	1021	521	0	795	0	0	
10	0	0	0	0	1021	1013	0	1020	0	0	
11	0	0	0	0	1021	1021	0	1020	0	0	
12	0	0	0	0	1021	1021	0	1021	0	0	
13	0	0	0	0	1021	1021	0	1021	0	0	
14	0	0	0	0	1021	1021	0	1020	0	0	
15	0	0	0	0	1021	1021	0	1021	0	0	
0	0	0	0	0	1021	1021	0	1021	0	0	
1	0	0	0	0	1021	1021	0	965	0	0	
2	0	0	0	0	1021	1021	0	533	0	0	
3	0	0	0	0	1021	1021	0	1	0	0	
4	0	0	0	0	1021	795	0	0	0	0	
5	0	0	0	0	844	423	0	0	0	0	
6	0	0	0	0	509	11	0	0	0	0	
7	0	0	0	0	135	0	0	0	0	0	
8	0	0	0	0	0	0	0	0	0	0	
9	0	0	0	0	0	0	0	0	0	0	
10	0	0	0	0	0	0	0	0	0	0	
11	0	0	0	0	128	0	0	0	0	0	
12	0	0	0	0	578	229	0	339	0	0	
13	0	0	0	0	1020	619	0	938	0	0	
14	0	0	0	0	1021	1021	0	1020	0	0	
15	0	0	0	0	1021	1021	0	1020	0	0	
0	0	0	0	0	1021	1021	0	1020	0	0	
1	0	0	0	0	1021	1021	0	1021	0	0	
2	0	0	0	0	1021	1021	0	1021	0	0	
3	0	0	0	0	1021	1021	0	1021	0	0	
4	0	0	0	0	1021	1021	0	1021	0	0	
5	0	0	0	0	1021	1021	0	1021	0	0	
6	0	0	0	0	1021	1021	0	670	0	0	
7	0	0	0	0	1021	980	0	81	0	0	
8	0	0	0	0	1021	657	0	0	0	0	
9	0	0	0	0	799	231	0	0	0	0	
10	0	0	0	0	451	0	0	0	0	0	
11	0	0	0	0	71	0	0	0	0	0	
12	0	0	0	0	0	0	0	0	0	0	
13	0	0	0	0	0	0	0	0	0	0	
14	0	0	0	0	0	0	0	0	0	0	
15	0	0	0	0	214	0	0	0	0	0	
0	0	0	0	0	761	159	0	372	0	0	
1	0	0	0	0	1021	522	0	972	0	0	
2	0	0	0	0	1021	1009	0	1020	0	0	
3	0	0	0	0	1021	1021	0	1020	0	0	
4	0	0	0	0	1021	1021	0	1021	0	0	
5	0	0	0	0	1021	1021	0	1021	0	0	
6	0	0	0	0	1021	1021	0	1021	0	0	
7	0	0	0	0	1021	1021	0	1021	0	0	
8	0	0	0	0	1021	1021	0	1021	0	0	
9	0	0	0	0	1021	1021	0	989	0	0	
10	0	0	0	0	1021	1021	0	569	0	0	
11	0	0	0	0	1021	1021	0	1	0	0	
12	0	0	0	0	1021	900	0	0	0	0	
13	0	0	0	0	1021	591	0	0	0	0	
14	0	0	0	0	1021	232	0	0	0	0	
15	0	0	0	0	865	0	0	0	0	0	
0	0	0	0	0	690	0	0	0	0	0	
1	0	0	0	0	584	0	0	0	0	0	
2	0	0	0	0	629	0	0	0	0	0	
3	0	0	0	0	883	23	0	0	0	0	
4	0	0	0	0	1021	262	0	222	0	0	
5	0	0	0	0	1021	637	0	749	0	0	
6	0	0	0	0	1021	1020	0	1020	0	0	
7	0	0	0	0	1021	1021	0	1020	0	0	
8	0	0	0	0	1021	1021	0	1020	0	0	
9	0	0	0	0	1021	1021	0	1021	0	0	
10	0	0	0	0	1021	1021	0	1021	0	0	
11	0	0	0	0	1021	1021	0	1020	0	0	
12	0	0	0	0	1021	1021	0	1021	0	0	
13	0	0	0	0	1021	1021	0	974	0	0	
14	0	0	0	0	1021	1021	0	561	0	0	
15	0	0	0	0	1021	889	0	1	0	0	
0	0	0	0	0	1021	510	0	0	0	0	
1	0	0	0	0	1007	38	0	0	0	0	
2	0	0	0	0	769	0	0	0	0	0	
3	0	0	0	0	473	0	0	0	0	0	
4	0	0	0	0	190	0	0	0	0	0	
5	0	0	0	0	7	0	0	0	0	0	
6	0	0	0	0	8	0	0	0	0	0	
7	0	0	0	0	225	0	0	0	0	0	
8	0	0	0	0	681	33	0	308	0	0	
9	0	0	0	0	1020	315	0	864	0	0	
10	0	0	0	0	1021	733	0	1020	0	0	
11	0	0	0	0	1021	1021	0	1020	0	0	
12	0	0	0	0	1021	1021	0	1021	0	0	
13	0	0	0	0	1021	1021	0	1021	0	0	
14	0	0	0	0	1021	1021	0	1020	0	0	
15	0	0	0	0	1021	1021	0	1021	0	0	
0	0	0	0	0	1021	1021	0	1021	0	0	
1	0	0	0	0	1021	1021	0	955	0	0	
2	0	0	0	0	1021	1021	0	527	0	0	
3	0	0	0	0	1021	884	0	1	0	0	
4	0	0	0	0	976	496	0	0	0	0	
5	0	0	0	0	659	13	0	0	0	0	
6	0	0	0	0	236	0	0	0	0	0	
7	0	0	0	0	0	0	0	0	0	0	
8	0	0	0	0	0	0	0	0	0	0	
9	0	0	0	0	0	0	0	0	0	0	
10	0	0	0	0	0	0	0	0	0	0	
11	0	0	0	0	0	0	0	0	0	0	
12	0	0	0	0	103	48	0	270	0	0	
13	0	0	0	0	505	354	0	822	0	0	
14	0	0	0	0	1020	801	0	1020	0	0	
15	0	0	0	0	1021	1021	0	1020	0	0	
0	0	0	0	0	1021	1021	0	1021	0	0	
1	0	0	0	0	1021	1021	0	1021	0	0	
2	0	0	0	0	1021	1021	0	1020	0	0	
3	0	0	0	0	1021	1021	0	1021	0	0	
4	0	0	0	0	1021	1021	0	1021	0	0	
5	0	0	0	0	1021	1021	0	927	0	0	
6	0	0	0	0	993	1021	0	466	0	0	
7	0	0	0	0	660	1021	0	1	0	0	
8	0	0	0	0	167	888	0	0	0	0	
9	0	0	0	0	0	598	0	0	0	0	
10	0	0	0	0	0	275	0	0	0	0	
11	0	0	0	0	0	0	0	0	0	0	
12	0	0	0	0	0	0	0	0	0	0	
13	0	0	0	0	0	0	0	0	0	0	
14	0	0	0	0	0	1	0	0	0	0	
15	0	0	0	0	0	214	0	0	0	0	
0	0	0	0	0	32	579	0	257	0	0	
1	0	0	0	0	466	1020	0	824	0	0	
2	0	0	0	0	1020	1021	0	1020	0	0	
3	0	0	0	0	1021	1021	0	1020	0	0	
4	0	0	0	0	1021	1021	0	1021	0	0	
5	0	0	0	0	1021	1021	0	1021	0	0	
6	0	0	0	0	1021	1021	0	1021	0	0	
7	0	0	0	0	1021	1021	0	1021	0	0	
8	0	0	0	0	1021	1021	0	1021	0	0	
9	0	0	0	0	1021	1021	0	1021	0	0	
10	0	0	0	0	1021	1021	0	672	0	0	
11	0	0	0	0	1021	1022	0	90	0	0	
12	0	0	0	0	896	1022	0	0	0	0	
13	0	0	0	0	557	845	0	0	0	0	
14	0	0	0	0	145	573	0	0	0	0	
15	0	0	0	0	0	294	0	0	0	0	
0	0	0	0	0	0	71	0	0	0	0	
1	0	0	0	0	0	0	0	0	0	0	
2	0	0	0	0	0	0	0	0	0	0	
3	0	0	0	0	123	159	0	0	0	0	
4	0	0	0	0	600	471	0	287	0	0	
5	0	0	0	0	1021	915	0	847	0	0	
6	0	0	0	0	1021	1021	0	1020	0	0	
7	0	0	0	0	1021	1021	0	1020	0	0	
8	0	0	0	0	1021	1021	0	1021	0	0	
9	0	0	0	0	1021	1021	0	1021	0	0	
10	0	0	0	0	1021	1021	0	1020	0	0	
11	0	0	0	0	1021	1021	0	1020	0	0	
12	0	0	0	0	1021	1021	0	1021	0	0	
13	0	0	0	0	1021	1021	0	1014	0	0	
14	0	0	0	0	1021	1021	0	633	0	0	
15	0	0	0	0	1021	1022	0	51	0	0	
0	0	0	0	0	1021	1021	0	0	0	0	
1	0	0	0	0	986	932	0	0	0	0	
2	0	0	0	0	716	705	0	0	0	0	
3	0	0	0	0	376	460	0	0	0	0	
4	0	0	0	0	39	251	0	0	0	0	
5	0	0	0	0	0	127	0	0	0	0	
6	0	0	0	0	0	120	0	0	0	0	
7	0	0	0	0	78	248	0	0	0	0	
8	0	0	0	0	475	516	0	295	0	0	
9	0	0	0	0	1020	904	0	846	0	0	
10	0	0	0	0	1021	1021	0	1020	0	0	
11	0	0	0	0	1021	1021	0	1020	0	0	
12	0	0	0	0	1021	1021	0	1021	0	0	
13	0	0	0	0	1021	1021	0	1021	0	0	
14	0	0	0	0	1021	1021	0	1021	0	0	
15	0	0	0	0	1021	1021	0	1021	0	0	
0	0	0	0	0	1021	1021	0	1021	0	0	
1	0	0	0	0	1021	1021	0	1010	0	0	
2	0	0	0	0	1021	1021	0	632	0	0	
3	0	0	0	0	1021	1021	0	52	0	0	
4	0	0	0	0	1021	868	0	0	0	0	
5	0	0	0	0	867	542	0	0	0	0	
6	0	0	0	0	530	168	0	0	0	0	
7	0	0	0	0	139	0	0	0	0	0	
8	0	0	0	0	0	0	0	0	0	0	
9	0	0	0	0	0	0	0	0	0	0	
10	0	0	0	0	0	0	0	0	0	0	
11	0	0	0	0	25	19	0	0	0	0	
12	0	0	0	0	382	264	0	259	0	0	
13	0	0	0	0	963	654	0	795	0	0	
14	0	0	0	0	1021	1021	0	1020	0	0	
15	0	0	0	0	1021	1021	0	1020	0	0	
0	0	0	0	0	1021	1021	0	1021	0	0	
1	0	0	0	0	1021	1021	0	1021	0	0	
2	0	0	0	0	1021	1021	0	1021	0	0	
3	0	0	0	0	1021	1021	0	1021	0	0	
4	0	0	0	0	1021	1021	0	1021	0	0	
5	0	0	0	0	1021	1021	0	986	0	0	
6	0	0	0	0	1021	1021	0	588	0	0	
7	0	0	0	0	1021	1022	0	1	0	0	
8	0	0	0	0	791	916	0	0	0	0	
9	0	0	0	0	372	610	0	0	0	0	
10	0	0	0	0	0	252	0	0	0	0	
11	0	0	0	0	0	0	0	0	0	0	
12	0	0	0	0	0	0	0	0	0	0	
13	0	0	0	0	0	0	0	0	0	0	
14	0	0	0	0	0	0	0	0	0	0	
15	0	0	0	0	0	51	0	0	0	0	
0	0	0	0	0	99	324	0	278	0	0	
1	0	0	0	0	539	739	0	826	0	0	
2	0	0	0	0	1020	1020	0	1020	0	0	
3	0	0	0	0	1021	1021	0	1020	0	0	
4	0	0	0	0	1021	1021	0	1021	0	0	
5	0	0	0	0	1021	1021	0	1021	0	0	
6	0	0	0	0	1021	1021	0	1020	0	0	
7	0	0	0	0	1021	1021	0	1021	0	0	
8	0	0	0	0	1021	1021	0	1021	0	0	
9	0	0	0	0	1021	1021	0	915	0	0	
10	0	0	0	0	1021	1021	0	459	0	0	
11	0	0	0	0	1010	1021	0	0	0	0	
12	0	0	0	0	701	967	0	0	0	0	
13	0	0	0	0	262	706	0	0	0	0	
14	0	0	0	0	0	391	0	0	0	0	
15	0	0	0	0	0	90	0	0	0	0	
0	0	0	0	0	0	0	0	0	0	0	
1	0	0	0	0	0	0	0	0	0	0	
2	0	0	0	0	0	0	0	0	0	0	
3	0	0	0	0	0	132	0	0	0	0	
4	0	0	0	0	255	446	0	238	0	0	
5	0	0	0	0	817	891	0	778	0	0	
6	0	0	0	0	1021	1021	0	1020	0	0	
7	0	0	0	0	1021	1021	0	1020	0	0	
8	0	0	0	0	1021	1021	0	1021	0	0	
9	0	0	0	0	1021	1021	0	1021	0	0	
10	0	0	0	0	1021	1021	0	1020	0	0	
11	0	0	0	0	1021	1021	0	1020	0	0	
12	0	0	0	0	1021	1021	0	1021	0	0	
13	0	0	0	0	1021	1021	0	1021	0	0	
14	0	0	0	0	1021	1021	0	670	0	0	
15	0	0	0	0	1021	1021	0	103	0	0	
0	0	0	0	0	1021	869	0	0	0	0	
1	0	0	0	0	768	523	0	0	0	0	
2	0	0	0	0	397	124	0	0	0	0	
3	0	0	0	0	0	0	0	0	0	0	
4	0	0	0	0	0	0	0	0	0	0	
5	0	0	0	0	0	0	0	0	0	0	
6	0	0	0	0	0	0	0	0	0	0	
7	0	0	0	0	0	0	0	0	0	0	
8	0	0	0	0	269	193	0	295	0	0	
9	0	0	0	0	787	560	0	852	0	0	
10	0	0	0	0	1020	1020	0	1020	0	0	
11	0	0	0	0	1021	1021	0	1020	0	0	
12	0	0	0	0	1021	1021	0	1021	0	0	
13	0	0	0	0	1021	1021	0	1021	0	0	
14	0	0	0	0	1021	1021	0	1021	0	0	
15	0	0	0	0	1021	1021	0	1021	0	0	
0	0	0	0	0	1021	1021	0	1021	0	0	
1	0	0	0	0	1021	1021	0	990	0	0	
2	0	0	0	0	1021	1021	0	587	0	0	
3	0	0	0	0	1016	1021	0	1	0	0	
4	0	0	0	0	722	748	0	0	0	0	
5	0	0	0	0	310	357	0	0	0	0	
6	0	0	0	0	0	0	0	0	0	0	
7	0	0	0	0	0	0	0	0	0	0	
8	0	0	0	0	0	0	0	0	0	0	
9	0	0	0	0	0	0	0	0	0	0	
10	0	0	0	0	0	0	0	0	0	0	
11	0	0	0	0	113	0	0	0	0	0	
12	0	0	0	0	603	194	0	205	0	0	
13	0	0	0	0	1020	567	0	721	0	0	
14	0	0	0	0	1021	1020	0	1020	0	0	
15	0	0	0	0	1021	1021	0	1020	0	0	
0	0	0	0	0	1021	1021	0	1021	0	0	
1	0	0	0	0	1021	1021	0	1021	0	0	
2	0	0	0	0	1021	1022	0	1020	0	0	
3	0	0	0	0	1021	1021	0	1021	0	0	
4	0	0	0	0	1021	1021	0	1021	0	0	
5	0	0	0	0	1021	1021	0	1005	0	0	
6	0	0	0	0	1021	1021	0	627	0	0	
7	0	0	0	0	1021	1021	0	51	0	0	
8	0	0	0	0	1021	967	0	0	0	0	
9	0	0	0	0	1021	697	0	0	0	0	
10	0	0	0	0	844	367	0	0	0	0	
11	0	0	0	0	566	42	0	0	0	0	
12	0	0	0	0	291	0	0	0	0	0	
13	0	0	0	0	108	0	0	0	0	0	
14	0	0	0	0	102	0	0	0	0	0	
15	0	0	0	0	332	19	0	0	0	0	
0	0	0	0	0	817	244	0	221	0	0	
1	0	0	0	0	1021	606	0	735	0	0	
2	0	0	0	0	1021	1020	0	1020	0	0	
3	0	0	0	0	1021	1021	0	1020	0	0	
4	0	0	0	0	1021	1021	0	1021	0	0	
5	0	0	0	0	1021	1021	0	1021	0	0	
6	0	0	0	0	1021	1021	0	1021	0	0	
7	0	0	0	0	1021	1021	0	1021	0	0	
8	0	0	0	0	1021	1021	0	1021	0	0	
9	0	0	0	0	1021	1021	0	1021	0	0	
10	0	0	0	0	1021	1021	0	688	0	0	
11	0	0	0	0	1021	1022	0	143	0	0	
12	0	0	0	0	1021	1006	0	0	0	0	
13	0	0	0	0	1021	794	0	0	0	0	
14	0	0	0	0	874	527	0	0	0	0	
15	0	0	0	0	635	263	0	0	0	0	
0	0	0	0	0	409	58	0	0	0	0	
1	0	0	0	0	279	0	0	0	0	0	
2	0	0	0	0	326	3	0	0	0	0	
3	0	0	0	0	604	160	0	0	0	0	
4	0	0	0	0	1020	456	0	310	0	0	
5	0	0	0	0	1021	872	0	855	0	0	
6	0	0	0	0	1021	1021	0	1020	0	0	
7	0	0	0	0	1021	1021	0	1020	0	0	
8	0	0	0	0	1021	1021	0	1021	0	0	
9	0	0	0	0	1021	1021	0	1021	0	0	
10	0	0	0	0	1021	1021	0	1021	0	0	
11	0	0	0	0	1021	1021	0	1021	0	0	
12	0	0	0	0	1021	1021	0	1021	0	0	
13	0	0	0	0	1021	1021	0	1014	0	0	
14	0	0	0	0	1021	1021	0	641	0	0	
15	0	0	0	0	1021	1021	0	67	0	0	
0	0	0	0	0	1021	796	0	0	0	0	
1	0	0	0	0	1006	434	0	0	0	0	
2	0	0	0	0	740	34	0	0	0	0	
3	0	0	0	0	395	0	0	0	0	0	
4	0	0	0	0	47	0	0	0	0	0	
5	0	0	0	0	0	0	0	0	0	0	
6	0	0	0	0	0	0	0	0	0	0	
7	0	0	0	0	66	0	0	0	0	0	
8	0	0	0	0	459	200	0	236	0	0	
9	0	0	0	0	1020	568	0	756	0	0	
10	0	0	0	0	1021	1020	0	1020	0	0	
11	0	0	0	0	1021	1021	0	1020	0	0	
12	0	0	0	0	1021	1021	0	1021	0	0	
13	0	0	0	0	1021	1021	0	1021	0	0	
14	0	0	0	0	1021	1021	0	1021	0	0	
15	0	0	0	0	1021	1021	0	1021	0	0	
0	0	0	0	0	1021	1021	0	1021	0	0	
1	0	0	0	0	1021	1021	0	969	0	0	
2	0	0	0	0	1021	1021	0	560	0	0	
3	0	0	0	0	1021	1021	0	0	0	0	
4	0	0	0	0	1021	950	0	0	0	0	
5	0	0	0	0	793	668	0	0	0	0	
6	0	0	0	0	410	327	0	0	0	0	
7	0	0	0	0	0	1	0	0	0	0	
8	0	0	0	0	0	0	0	0	0	0	
9	0	0	0	0	0	0	0	0	0	0	
10	0	0	0	0	0	0	0	0	0	0	
11	0	0	0	0	0	59	0	0	0	0	
12	0	0	0	0	293	333	0	190	0	0	
13	0	0	0	0	870	751	0	704	0	0	
14	0	0	0	0	1021	1021	0	1020	0	0	
15	0	0	0	0	1021	1021	0	1020	0	0	
0	0	0	0	0	1021	1021	0	1021	0	0	
1	0	0	0	0	1021	1021	0	1021	0	0	
2	0	0	0	0	1021	1022	0	1020	0	0	
3	0	0	0	0	1021	1021	0	1021	0	0	
4	0	0	0	0	1021	1021	0	1021	0	0	
5	0	0	0	0	1021	1021	0	1021	0	0	
6	0	0	0	0	1021	1021	0	706	0	0	
7	0	0	0	0	1021	1021	0	157	0	0	
8	0	0	0	0	1021	944	0	0	0	0	
9	0	0	0	0	880	650	0	0	0	0	
10	0	0	0	0	571	296	0	0	0	0	
11	0	0	0	0	221	0	0	0	0	0	
12	0	0	0	0	0	0	0	0	0	0	
13	0	0	0	0	0	0	0	0	0	0	
14	0	0	0	0	0	0	0	0	0	0	
15	0	0	0	0	167	24	0	0	0	0	
0	0	0	0	0	645	271	0	286	0	0	
1	0	0	0	0	1020	664	0	838	0	0	
2	0	0	0	0	1021	1020	0	1020	0	0	
3	0	0	0	0	1021	1021	0	1020	0	0	
4	0	0	0	0	1021	1021	0	1021	0	0	
5	0	0	0	0	1021	1021	0	1021	0	0	
6	0	0	0	0	1021	1021	0	1020	0	0	
7	0	0	0	0	1021	1021	0	1021	0	0	
8	0	0	0	0	1021	1021	0	1021	0	0	
9	0	0	0	0	1021	1021	0	1021	0	0	
10	0	0	0	0	1021	1021	0	722	0	0	
11	0	0	0	0	1021	1021	0	171	0	0	
12	0	0	0	0	1021	746	0	0	0	0	
13	0	0	0	0	1021	322	0	0	0	0	
14	0	0	0	0	864	0	0	0	0	0	
15	0	0	0	0	581	0	0	0	0	0	
0	0	0	0	0	291	0	0	0	0	0	
1	0	0	0	0	83	0	0	0	0	0	
2	0	0	0	0	42	0	0	0	0	0	
3	0	0	0	0	228	0	0	0	0	0	
4	0	0	0	0	669	20	0	220	0	0	
5	0	0	0	0	1020	291	0	742	0	0	
6	0	0	0	0	1021	703	0	1020	0	0	
7	0	0	0	0	1021	1020	0	1020	0	0	
8	0	0	0	0	1021	1021	0	1021	0	0	
9	0	0	0	0	1021	1021	0	1021	0	0	
10	0	0	0	0	1021	1021	0	1021	0	0	
11	0	0	0	0	1021	1021	0	1020	0	0	
12	0	0	0	0	1021	1021	0	1021	0	0	
13	0	0	0	0	1021	1021	0	1021	0	0	
14	0	0	0	0	1021	1021	0	691	0	0	
15	0	0	0	0	1021	980	0	128	0	0	
0	0	0	0	0	1021	662	0	0	0	0	
1	0	0	0	0	1021	236	0	0	0	0	
2	0	0	0	0	958	0	0	0	0	0	
3	0	0	0	0	738	0	0	0	0	0	
4	0	0	0	0	504	0	0	0	0	0	
5	0	0	0	0	334	0	0	0	0	0	
6	0	0	0	0	312	0	0	0	0	0	
7	0	0	0	0	492	0	0	0	0	0	
8	0	0	0	0	892	39	0	150	0	0	
9	0	0	0	0	1021	308	0	625	0	0	
10	0	0	0	0	1021	706	0	1020	0	0	
11	0	0	0	0	1021	1020	0	1020	0	0	
12	0	0	0	0	1021	1021	0	1021	0	0	
13	0	0	0	0	1021	1021	0	1021	0	0	
14	0	0	0	0	1021	1021	0	1020	0	0	
15	0	0	0	0	1021	1021	0	1021	0	0	
0	0	0	0	0	1021	1021	0	1021	0	0	
1	0	0	0	0	1021	1021	0	956	0	0	
2	0	0	0	0	1021	1021	0	540	0	0	
3	0	0	0	0	1021	751	0	1	0	0	
4	0	0	0	0	905	285	0	0	0	0	
5	0	0	0	0	569	0	0	0	0	0	
6	0	0	0	0	164	0	0	0	0	0	
7	0	0	0	0	0	0	0	0	0	0	
8	0	0	0	0	0	0	0	0	0	0	
9	0	0	0	0	0	0	0	0	0	0	
10	0	0	0	0	0	0	0	0	0	0	
11	0	0	0	0	135	0	0	0	0	0	
12	0	0	0	0	610	0	0	208	0	0	
13	0	0	0	0	1020	116	0	731	0	0	
14	0	0	0	0	1021	459	0	1020	0	0	
15	0	0	0	0	1021	911	0	1020	0	0	
0	0	0	0	0	1021	1021	0	1021	0	0	
1	0	0	0	0	1021	1021	0	1021	0	0	
2	0	0	0	0	1021	1021	0	1021	0	0	
3	0	0	0	0	1021	1021	0	1021	0	0	
4	0	0	0	0	1021	1021	0	1021	0	0	
5	0	0	0	0	1021	1021	0	1020	0	0	
6	0	0	0	0	1021	1021	0	665	0	0	
7	0	0	0	0	1021	978	0	87	0	0	
8	0	0	0	0	1021	673	0	0	0	0	
9	0	0	0	0	1021	267	0	0	0	0	
10	0	0	0	0	928	0	0	0	0	0	
11	0	0	0	0	686	0	0	0	0	0	
12	0	0	0	0	430	0	0	0	0	0	
13	0	0	0	0	240	0	0	0	0	0	
14	0	0	0	0	199	0	0	0	0	0	
15	0	0	0	0	361	0	0	0	0	0	
0	0	0	0	0	751	76	0	110	0	0	
1	0	0	0	0	1021	371	0	563	0	0	
2	0	0	0	0	1021	793	0	1020	0	0	
3	0	0	0	0	1021	1020	0	1020	0	0	
4	0	0	0	0	1021	1021	0	1020	0	0	
5	0	0	0	0	1021	1021	0	1021	0	0	
6	0	0	0	0	1021	1021	0	1020	0	0	
7	0	0	0	0	1021	1021	0	1021	0	0	
8	0	0	0	0	1021	1021	0	1021	0	0	
9	0	0	0	0	1021	1021	0	907	0	0	
10	0	0	0	0	1021	1021	0	457	0	0	
11	0	0	0	0	1021	996	0	1	0	0	
12	0	0	0	0	1014	691	0	0	0	0	
13	0	0	0	0	744	277	0	0	0	0	
14	0	0	0	0	377	0	0	0	0	0	
15	0	0	0	0	0	0	0	0	0	0	
0	0	0	0	0	0	0	0	0	0	0	
1	0	0	0	0	0	0	0	0	0	0	
2	0	0	0	0	0	0	0	0	0	0	
3	0	0	0	0	31	0	0	0	0	0	
4	0	0	0	0	395	62	0	91	0	0	
5	0	0	0	0	983	352	0	553	0	0	
6	0	0	0	0	1021	769	0	1020	0	0	
7	0	0	0	0	1021	1021	0	1020	0	0	
8	0	0	0	0	1021	1021	0	1021	0	0	
9	0	0	0	0	1021	1021	0	1021	0	0	
10	0	0	0	0	1021	1021	0	1020	0	0	
11	0	0	0	0	1021	1021	0	1021	0	0	
12	0	0	0	0	1021	1021	0	1021	0	0	
13	0	0	0	0	1021	1021	0	1021	0	0	
14	0	0	0	0	1021	1021	0	668	0	0	
15	0	0	0	0	1021	795	0	99	0	0	
0	0	0	0	0	1010	335	0	0	0	0	
1	0	0	0	0	727	0	0	0	0	0	
2	0	0	0	0	340	0	0	0	0	0	
3	0	0	0	0	0	0	0	0	0	0	
4	0	0	0	0	0	0	0	0	0	0	
5	0	0	0	0	0	0	0	0	0	0	
6	0	0	0	0	0	0	0	0	0	0	
7	0	0	0	0	0	0	0	0	0	0	
8	0	0	0	0	322	0	0	173	0	0	
9	0	0	0	0	886	19	0	662	0	0	
10	0	0	0	0	1021	295	0	1020	0	0	
11	0	0	0	0	1021	694	0	1020	0	0	
12	0	0	0	0	1021	1020	0	1021	0	0	
13	0	0	0	0	1021	1021	0	1021	0	0	
14	0	0	0	0	1021	1021	0	1021	0	0	
15	0	0	0	0	1021	1021	0	1021	0	0	
0	0	0	0	0	1021	1021	0	1021	0	0	
1	0	0	0	0	1021	1021	0	888	0	0	
2	0	0	0	0	1021	1021	0	418	0	0	
3	0	0	0	0	1021	803	0	1	0	0	
4	0	0	0	0	1021	364	0	0	0	0	
5	0	0	0	0	803	0	0	0	0	0	
6	0	0	0	0	467	0	0	0	0	0	
7	0	0	0	0	102	0	0	0	0	0	
8	0	0	0	0	0	0	0	0	0	0	
9	0	0	0	0	0	0	0	0	0	0	
10	0	0	0	0	0	0	0	0	0	0	
11	0	0	0	0	115	0	0	0	0	0	
12	0	0	0	0	536	0	0	36	0	0	
13	0	0	0	0	1021	131	0	472	0	0	
14	0	0	0	0	1021	484	0	1020	0	0	
15	0	0	0	0	1021	947	0	1020	0	0	
0	0	0	0	0	1021	1021	0	1021	0	0	
1	0	0	0	0	1021	1021	0	1021	0	0	
2	0	0	0	0	1021	1021	0	1020	0	0	
3	0	0	0	0	1021	1022	0	1020	0	0	
4	0	0	0	0	1021	1021	0	1021	0	0	
5	0	0	0	0	1021	1021	0	1014	0	0	
6	0	0	0	0	1021	1021	0	638	0	0	
7	0	0	0	0	1021	919	0	52	0	0	
8	0	0	0	0	982	537	0	0	0	0	
9	0	0	0	0	667	40	0	0	0	0	
10	0	0	0	0	248	0	0	0	0	0	
11	0	0	0	0	0	0	0	0	0	0	
12	0	0	0	0	0	0	0	0	0	0	
13	0	0	0	0	0	0	0	0	0	0	
14	0	0	0	0	0	0	0	0	0	0	
15	0	0	0	0	0	0	0	0	0	0	
0	0	0	0	0	159	0	0	199	0	0	
1	0	0	0	0	623	153	0	726	0	0	
2	0	0	0	0	1020	511	0	1020	0	0	
3	0	0	0	0	1021	972	0	1020	0	0	
4	0	0	0	0	1021	1021	0	1021	0	0	
5	0	0	0	0	1021	1021	0	1020	0	0	
6	0	0	0	0	1021	1021	0	1020	0	0	
7	0	0	0	0	1021	1021	0	1020	0	0	
8	0	0	0	0	1021	1021	0	1021	0	0	
9	0	0	0	0	1021	1021	0	1021	0	0	
10	0	0	0	0	1021	1021	0	736	0	0	
11	0	0	0	0	1021	928	0	188	0	0	
12	0	0	0	0	851	575	0	0	0	0	
13	0	0	0	0	475	118	0	0	0	0	
14	0	0	0	0	13	0	0	0	0	0	
15	0	0	0	0	0	0	0	0	0	0	
0	0	0	0	0	0	0	0	0	0	0	
1	0	0	0	0	0	0	0	0	0	0	
2	0	0	0	0	0	0	0	0	0	0	
3	0	0	0	0	0	0	0	0	0	0	
4	0	0	0	0	132	44	0	329	0	0	
5	0	0	0	0	577	341	0	936	0	0	
6	0	0	0	0	1020	781	0	1020	0	0	
7	0	0	0	0	1021	1021	0	1020	0	0	
8	0	0	0	0	1021	1021	0	1021	0	0	
9	0	0	0	0	1021	1021	0	1020	0	0	
10	0	0	0	0	1021	1021	0	1020	0	0	
11	0	0	0	0	1021	1021	0	1020	0	0	
12	0	0	0	0	1021	1021	0	1021	0	0	
13	0	0	0	0	1021	1021	0	1021	0	0	
14	0	0	0	0	1021	1021	0	978	0	0	
15	0	0	0	0	747	1021	0	556	0	0	
0	0	0	0	0	271	914	0	1	0	0	
1	0	0	0	0	0	601	0	0	0	0	
2	0	0	0	0	0	228	0	0	0	0	
3	0	0	0	0	0	0	0	0	0	0	
4	0	0	0	0	0	0	0	0	0	0	
5	0	0	0	0	0	0	0	0	0	0	
6	0	0	0	0	0	0	0	0	0	0	
7	0	0	0	0	0	0	0	0	0	0	
8	0	0	0	0	0	229	0	367	0	0	
9	0	0	0	0	350	611	0	967	0	0	
10	0	0	0	0	939	1021	0	1020	0	0	
11	0	0	0	0	1021	1021	0	1020	0	0	
12	0	0	0	0	1021	1021	0	1021	0	0	
13	0	0	0	0	1021	1021	0	1021	0	0	
14	0	0	0	0	1021	1021	0	1020	0	0	
15	0	0	0	0	1021	1021	0	1021	0	0	
0	0	0	0	0	1021	1021	0	1021	0	0	
1	0	0	0	0	1021	1021	0	1021	0	0	
2	0	0	0	0	1021	1021	0	903	0	0	
3	0	0	0	0	1021	1021	0	444	0	0	
4	0	0	0	0	756	1021	0	1	0	0	
5	0	0	0	0	329	831	0	0	0	0	
6	0	0	0	0	0	538	0	0	0	0	
7	0	0	0	0	0	233	0	0	0	0	
8	0	0	0	0	0	0	0	0	0	0	
9	0	0	0	0	0	0	0	0	0	0	
10	0	0	0	0	0	0	0	0	0	0	
11	0	0	0	0	0	67	0	0	0	0	
12	0	0	0	0	117	330	0	306	0	0	
13	0	0	0	0	577	733	0	869	0	0	
14	0	0	0	0	1020	1021	0	1020	0	0	
15	0	0	0	0	1021	1021	0	1020	0	0	
0	0	0	0	0	1021	1021	0	1021	0	0	
1	0	0	0	0	1021	1021	0	1021	0	0	
2	0	0	0	0	1021	1022	0	1021	0	0	
3	0	0	0	0	1021	1022	0	1020	0	0	
4	0	0	0	0	1021	1021	0	1021	0	0	
5	0	0	0	0	1021	1021	0	1021	0	0	
6	0	0	0	0	1021	1021	0	856	0	0	
7	0	0	0	0	1021	1021	0	373	0	0	
8	0	0	0	0	764	938	0	0	0	0	
9	0	0	0	0	335	617	0	0	0	0	
10	0	0	0	0	0	220	0	0	0	0	
11	0	0	0	0	0	0	0	0	0	0	
12	0	0	0	0	0	0	0	0	0	0	
13	0	0	0	0	0	0	0	0	0	0	
14	0	0	0	0	0	0	0	0	0	0	
15	0	0	0	0	0	0	0	0	0	0	
0	0	0	0	0	151	73	0	229	0	0	
1	0	0	0	0	632	364	0	750	0	0	
2	0	0	0	0	1020	783	0	1020	0	0	
3	0	0	0	0	1021	1020	0	1020	0	0	
4	0	0	0	0	1021	1021	0	1021	0	0	
5	0	0	0	0	1021	1021	0	1021	0	0	
6	0	0	0	0	1021	1021	0	1021	0	0	
7	0	0	0	0	1021	1021	0	1021	0	0	
8	0	0	0	0	1021	1021	0	1021	0	0	
9	0	0	0	0	1021	1021	0	1021	0	0	
10	0	0	0	0	1021	1021	0	719	0	0	
11	0	0	0	0	1021	1021	0	169	0	0	
12	0	0	0	0	768	831	0	0	0	0	
13	0	0	0	0	350	476	0	0	0	0	
14	0	0	0	0	0	70	0	0	0	0	
15	0	0	0	0	0	0	0	0	0	0	
0	0	0	0	0	0	0	0	0	0	0	
1	0	0	0	0	0	0	0	0	0	0	
2	0	0	0	0	0	0	0	0	0	0	
3	0	0	0	0	0	0	0	0	0	0	
4	0	0	0	0	273	155	0	165	0	0	
5	0	0	0	0	830	504	0	672	0	0	
6	0	0	0	0	1021	979	0	1020	0	0	
7	0	0	0	0	1021	1021	0	1020	0	0	
8	0	0	0	0	1021	1021	0	1021	0	0	
9	0	0	0	0	1021	1021	0	1021	0	0	
10	0	0	0	0	1021	1021	0	1021	0	0	
11	0	0	0	0	1021	1021	0	1021	0	0	
12	0	0	0	0	1021	1021	0	1021	0	0	
13	0	0	0	0	1021	1021	0	1021	0	0	
14	0	0	0	0	1021	1021	0	866	0	0	
15	0	0	0	0	1021	1022	0	391	0	0	
0	0	0	0	0	956	1021	0	0	0	0	
1	0	0	0	0	608	841	0	0	0	0	
2	0	0	0	0	146	552	0	0	0	0	
3	0	0	0	0	0	244	0	0	0	0	
4	0	0	0	0	0	0	0	0	0	0	
5	0	0	0	0	0	0	0	0	0	0	
6	0	0	0	0	0	0	0	0	0	0	
7	0	0	0	0	0	44	0	0	0	0	
8	0	0	0	0	2	285	0	265	0	0	
9	0	0	0	0	349	667	0	805	0	0	
10	0	0	0	0	888	1020	0	1020	0	0	
11	0	0	0	0	1020	1021	0	1020	0	0	
12	0	0	0	0	1021	1021	0	1021	0	0	
13	0	0	0	0	1021	1021	0	1021	0	0	
14	0	0	0	0	1021	1021	0	1021	0	0	
15	0	0	0	0	1021	1021	0	1021	0	0	
0	0	0	0	0	1021	1021	0	1021	0	0	
1	0	0	0	0	1021	1021	0	1021	0	0	
2	0	0	0	0	1021	1021	0	803	0	0	
3	0	0	0	0	928	1021	0	293	0	0	
4	0	0	0	0	567	899	0	0	0	0	
5	0	0	0	0	77	545	0	0	0	0	
6	0	0	0	0	0	116	0	0	0	0	
7	0	0	0	0	0	0	0	0	0	0	
8	0	0	0	0	0	0	0	0	0	0	
9	0	0	0	0	0	0	0	0	0	0	
10	0	0	0	0	0	0	0	0	0	0	
11	0	0	0	0	0	0	0	0	0	0	
12	0	0	0	0	0	36	0	166	0	0	
13	0	0	0	0	313	310	0	656	0	0	
14	0	0	0	0	835	723	0	1020	0	0	
15	0	0	0	0	1021	1020	0	1020	0	0	
0	0	0	0	0	1021	1021	0	1020	0	0	
1	0	0	0	0	1021	1021	0	1021	0	0	
2	0	0	0	0	1021	1021	0	1021	0	0	
3	0	0	0	0	1021	1021	0	1021	0	0	
4	0	0	0	0	1021	1021	0	1021	0	0	
5	0	0	0	0	1021	1021	0	1021	0	0	
6	0	0	0	0	1021	1021	0	672	0	0	
7	0	0	0	0	878	1021	0	115	0	0	
8	0	0	0	0	495	992	0	0	0	0	
9	0	0	0	0	0	738	0	0	0	0	
10	0	0	0	0	0	414	0	0	0	0	
11	0	0	0	0	0	84	0	0	0	0	
12	0	0	0	0	0	0	0	0	0	0	
13	0	0	0	0	0	0	0	0	0	0	
14	0	0	0	0	0	0	0	0	0	0	
15	0	0	0	0	0	4	0	0	0	0	
0	0	0	0	0	0	215	0	183	0	0	
1	0	0	0	0	346	563	0	686	0	0	
2	0	0	0	0	875	1015	0	1020	0	0	
3	0	0	0	0	1020	1021	0	1020	0	0	
4	0	0	0	0	1021	1021	0	1021	0	0	
5	0	0	0	0	1021	1021	0	1021	0	0	
6	0	0	0	0	1021	1021	0	1021	0	0	
7	0	0	0	0	1021	1021	0	1021	0	0	
8	0	0	0	0	1021	1021	0	1021	0	0	
9	0	0	0	0	1021	1021	0	1021	0	0	
10	0	0	0	0	1021	1021	0	846	0	0	
11	0	0	0	0	858	957	0	375	0	0	
12	0	0	0	0	473	596	0	0	0	0	
13	0	0	0	0	0	111	0	0	0	0	
14	0	0	0	0	0	0	0	0	0	0	
15	0	0	0	0	0	0	0	0	0	0	
0	0	0	0	0	0	0	0	0	0	0	
1	0	0	0	0	0	0	0	0	0	0	
2	0	0	0	0	0	0	0	0	0	0	
3	0	0	0	0	0	0	0	0	0	0	
4	0	0	0	0	41	0	0	277	0	0	
5	0	0	0	0	422	81	0	815	0	0	
6	0	0	0	0	983	391	0	1020	0	0	
7	0	0	0	0	1021	812	0	1020	0	0	
8	0	0	0	0	1021	1021	0	1021	0	0	
9	0	0	0	0	1021	1021	0	1021	0	0	
10	0	0	0	0	1021	1021	0	1021	0	0	
11	0	0	0	0	1021	1021	0	1021	0	0	
12	0	0	0	0	1021	1021	0	1021	0	0	
13	0	0	0	0	1021	1021	0	1021	0	0	
14	0	0	0	0	1021	1021	0	806	0	0	
15	0	0	0	0	884	926	0	307	0	0	
0	0	0	0	0	495	563	0	0	0	0	
1	0	0	0	0	0	89	0	0	0	0	
2	0	0	0	0	0	0	0	0	0	0	
3	0	0	0	0	0	0	0	0	0	0	
4	0	0	0	0	0	0	0	0	0	0	
5	0	0	0	0	0	0	0	0	0	0	
6	0	0	0	0	0	0	0	0	0	0	
7	0	0	0	0	0	0	0	0	0	0	
8	0	0	0	0	0	0	0	242	0	0	
9	0	0	0	0	41	206	0	765	0	0	
10	0	0	0	0	385	588	0	1020	0	0	
11	0	0	0	0	854	1020	0	1020	0	0	
12	0	0	0	0	1020	1021	0	1021	0	0	
13	0	0	0	0	1021	1021	0	1021	0	0	
14	0	0	0	0	1021	1021	0	1020	0	0	
15	0	0	0	0	1021	1021	0	1021	0	0	
0	0	0	0	0	1021	1021	0	1021	0	0	
1	0	0	0	0	1021	1021	0	1021	0	0	
2	0	0	0	0	795	1021	0	681	0	0	
3	0	0	0	0	359	929	0	114	0	0	
4	0	0	0	0	0	555	0	0	0	0	
5	0	0	0	0	0	66	0	0	0	0	
6	0	0	0	0	0	0	0	0	0	0	
7	0	0	0	0	0	0	0	0	0	0	
8	0	0	0	0	0	0	0	0	0	0	
9	0	0	0	0	0	0	0	0	0	0	
10	0	0	0	0	0	0	0	0	0	0	
11	0	0	0	0	0	0	0	0	0	0	
12	0	0	0	0	0	3	0	119	0	0	
13	0	0	0	0	137	278	0	584	0	0	
14	0	0	0	0	583	702	0	1020	0	0	
15	0	0	0	0	1020	1020	0	1020	0	0	
0	0	0	0	0	1021	1021	0	1021	0	0	
1	0	0	0	0	1021	1021	0	1021	0	0	
2	0	0	0	0	1021	1021	0	1021	0	0	
3	0	0	0	0	1021	1022	0	1020	0	0	
4	0	0	0	0	1021	1021	0	1021	0	0	
5	0	0	0	0	1021	1021	0	964	0	0	
6	0	0	0	0	1021	1021	0	557	0	0	
7	0	0	0	0	730	1021	0	1	0	0	
8	0	0	0	0	270	961	0	0	0	0	
9	0	0	0	0	0	690	0	0	0	0	
10	0	0	0	0	0	360	0	0	0	0	
11	0	0	0	0	0	43	0	0	0	0	
12	0	0	0	0	0	0	0	0	0	0	
13	0	0	0	0	0	0	0	0	0	0	
14	0	0	0	0	0	0	0	0	0	0	
15	0	0	0	0	0	101	0	0	0	0	
0	0	0	0	0	83	406	0	137	0	0	
1	0	0	0	0	545	853	0	628	0	0	
2	0	0	0	0	1020	1021	0	1020	0	0	
3	0	0	0	0	1021	1021	0	1020	0	0	
4	0	0	0	0	1021	1021	0	1021	0	0	
5	0	0	0	0	1021	1021	0	1021	0	0	
6	0	0	0	0	1021	1021	0	1021	0	0	
7	0	0	0	0	1021	1022	0	1020	0	0	
8	0	0	0	0	1021	1021	0	1021	0	0	
9	0	0	0	0	1021	1021	0	1021	0	0	
10	0	0	0	0	1021	1021	0	822	0	0	
11	0	0	0	0	1021	1022	0	322	0	0	
12	0	0	0	0	1008	1022	0	1	0	0	
13	0	0	0	0	704	1021	0	0	0	0	
14	0	0	0	0	285	963	0	0	0	0	
15	0	0	0	0	0	803	0	0	0	0	
0	0	0	0	0	0	647	0	0	0	0	
1	0	0	0	0	0	542	0	0	0	0	
2	0	0	0	0	0	527	0	0	0	0	
3	0	0	0	0	0	625	0	0	0	0	
4	0	0	0	0	154	844	0	163	0	0	
5	0	0	0	0	619	1021	0	653	0	0	
6	0	0	0	0	1020	1021	0	1020	0	0	
7	0	0	0	0	1021	1021	0	1020	0	0	
8	0	0	0	0	1021	1021	0	1021	0	0	
9	0	0	0	0	1021	1021	0	1021	0	0	
10	0	0	0	0	1021	1021	0	1021	0	0	
11	0	0	0	0	1021	1022	0	1020	0	0	
12	0	0	0	0	1021	1021	0	1021	0	0	
13	0	0	0	0	1021	1021	0	1021	0	0	
14	0	0	0	0	1021	1021	0	797	0	0	
15	0	0	0	0	1021	1021	0	284	0	0	
0	0	0	0	0	813	1021	0	0	0	0	
1	0	0	0	0	409	1021	0	0	0	0	
2	0	0	0	0	0	1021	0	0	0	0	
3	0	0	0	0	0	980	0	0	0	0	
4	0	0	0	0	0	920	0	0	0	0	
5	0	0	0	0	0	904	0	0	0	0	
6	0	0	0	0	0	962	0	0	0	0	
7	0	0	0	0	0	1021	0	0	0	0	
8	0	0	0	0	196	1021	0	189	0	0	
9	0	0	0	0	698	1021	0	700	0	0	
10	0	0	0	0	1020	1021	0	1020	0	0	
11	0	0	0	0	1021	1021	0	1020	0	0	
12	0	0	0	0	1021	1021	0	1021	0	0	
13	0	0	0	0	1021	1021	0	1021	0	0	
14	0	0	0	0	1021	1022	0	1021	0	0	
15	0	0	0	0	1021	1021	0	1021	0	0	
0	0	0	0	0	1021	1021	0	1021	0	0	
1	0	0	0	0	1021	1021	0	1021	0	0	
2	0	0	0	0	1021	1021	0	824	0	0	
3	0	0	0	0	1021	1022	0	319	0	0	
4	0	0	0	0	822	1022	0	1	0	0	
5	0	0	0	0	412	861	0	0	0	0	
6	0	0	0	0	0	563	0	0	0	0	
7	0	0	0	0	0	244	0	0	0	0	
8	0	0	0	0	0	0	0	0	0	0	
9	0	0	0	0	0	0	0	0	0	0	
10	0	0	0	0	0	0	0	0	0	0	
11	0	0	0	0	0	63	0	0	0	0	
12	0	0	0	0	300	337	0	205	0	0	
13	0	0	0	0	872	763	0	729	0	0	
14	0	0	0	0	1020	1021	0	1020	0	0	
15	0	0	0	0	1021	1021	0	1020	0	0	
0	0	0	0	0	1021	1021	0	1020	0	0	
1	0	0	0	0	1021	1021	0	1021	0	0	
2	0	0	0	0	1021	1021	0	1021	0	0	
3	0	0	0	0	1021	1021	0	1020	0	0	
4	0	0	0	0	1021	1021	0	1021	0	0	
5	0	0	0	0	1021	1021	0	1021	0	0	
6	0	0	0	0	1021	1021	0	836	0	0	
7	0	0	0	0	1021	1021	0	326	0	0	
8	0	0	0	0	704	1021	0	0	0	0	
9	0	0	0	0	193	800	0	0	0	0	
10	0	0	0	0	0	453	0	0	0	0	
11	0	0	0	0	0	88	0	0	0	0	
12	0	0	0	0	0	0	0	0	0	0	
13	0	0	0	0	0	0	0	0	0	0	
14	0	0	0	0	0	0	0	0	0	0	
15	0	0	0	0	0	15	0	0	0	0	
0	0	0	0	0	0	275	0	138	0	0	
1	0	0	0	0	96	701	0	636	0	0	
2	0	0	0	0	540	1021	0	1020	0	0	
3	0	0	0	0	1020	1021	0	1020	0	0	
4	0	0	0	0	1021	1021	0	1021	0	0	
5	0	0	0	0	1021	1021	0	1021	0	0	
6	0	0	0	0	1021	1021	0	1021	0	0	
7	0	0	0	0	1021	1022	0	1020	0	0	
8	0	0	0	0	1021	1021	0	1021	0	0	
9	0	0	0	0	1021	1021	0	1021	0	0	
10	0	0	0	0	1021	1021	0	778	0	0	
11	0	0	0	0	840	1021	0	234	0	0	
12	0	0	0	0	390	1021	0	0	0	0	
13	0	0	0	0	0	1021	0	0	0	0	
14	0	0	0	0	0	916	0	0	0	0	
15	0	0	0	0	0	736	0	0	0	0	
0	0	0	0	0	0	576	0	0	0	0	
1	0	0	0	0	0	487	0	0	0	0	
2	0	0	0	0	0	509	0	0	0	0	
3	0	0	0	0	0	662	0	0	0	0	
4	0	0	0	0	0	947	0	70	0	0	
5	0	0	0	0	10	1021	0	523	0	0	
6	0	0	0	0	382	1021	0	1020	0	0	
7	0	0	0	0	922	1021	0	1020	0	0	
8	0	0	0	0	1020	1021	0	1021	0	0	
9	0	0	0	0	1021	1021	0	1020	0	0	
10	0	0	0	0	1021	1021	0	1020	0	0	
11	0	0	0	0	1021	1021	0	1021	0	0	
12	0	0	0	0	1021	1021	0	1021	0	0	
13	0	0	0	0	1021	1021	0	1021	0	0	
14	0	0	0	0	1021	1021	0	743	0	0	
15	0	0	0	0	755	1021	0	187	0	0	
0	0	0	0	0	274	1021	0	0	0	0	
1	0	0	0	0	0	996	0	0	0	0	
2	0	0	0	0	0	792	0	0	0	0	
3	0	0	0	0	0	563	0	0	0	0	
4	0	0	0	0	0	372	0	0	0	0	
5	0	0	0	0	0	271	0	0	0	0	
6	0	0	0	0	0	300	0	0	0	0	
7	0	0	0	0	0	478	0	0	0	0	
8	0	0	0	0	0	802	0	57	0	0	
9	0	0	0	0	107	1021	0	499	0	0	
10	0	0	0	0	552	1021	0	1020	0	0	
11	0	0	0	0	1020	1021	0	1020	0	0	
12	0	0	0	0	1021	1021	0	1021	0	0	
13	0	0	0	0	1021	1021	0	1021	0	0	
14	0	0	0	0	1021	1021	0	1021	0	0	
15	0	0	0	0	1021	1022	0	1020	0	0	
0	0	0	0	0	1021	1021	0	1021	0	0	
1	0	0	0	0	1021	1021	0	1021	0	0	
2	0	0	0	0	1021	1021	0	758	0	0	
3	0	0	0	0	888	1021	0	224	0	0	
4	0	0	0	0	488	1022	0	1	0	0	
5	0	0	0	0	0	1021	0	0	0	0	
6	0	0	0	0	0	1021	0	0	0	0	
7	0	0	0	0	0	1017	0	0	0	0	
8	0	0	0	0	0	951	0	0	0	0	
9	0	0	0	0	0	916	0	0	0	0	
10	0	0	0	0	0	947	0	0	0	0	
11	0	0	0	0	0	1021	0	0	0	0	
12	0	0	0	0	0	1021	0	114	0	0	
13	0	0	0	0	244	1021	0	576	0	0	
14	0	0	0	0	761	1021	0	1020	0	0	
15	0	0	0	0	1020	1021	0	1020	0	0	
0	0	0	0	0	1021	1021	0	1021	0	0	
1	0	0	0	0	1021	1021	0	1021	0	0	
2	0	0	0	0	1021	1021	0	1020	0	0	
3	0	0	0	0	1021	1022	0	1020	0	0	
4	0	0	0	0	1021	1021	0	1021	0	0	
5	0	0	0	0	1021	1021	0	1021	0	0	
6	0	0	0	0	1021	1021	0	679	0	0	
7	0	0	0	0	926	1021	0	111	0	0	
8	0	0	0	0	542	1021	0	0	0	0	
9	0	0	0	0	23	954	0	0	0	0	
10	0	0	0	0	0	720	0	0	0	0	
11	0	0	0	0	0	464	0	0	0	0	
12	0	0	0	0	0	248	0	0	0	0	
13	0	0	0	0	0	129	0	0	0	0	
14	0	0	0	0	0	142	0	0	0	0	
15	0	0	0	0	0	308	0	0	0	0	
0	0	0	0	0	0	631	0	84	0	0	
1	0	0	0	0	284	1020	0	540	0	0	
2	0	0	0	0	824	1021	0	1020	0	0	
3	0	0	0	0	1020	1021	0	1020	0	0	
4	0	0	0	0	1021	1021	0	1021	0	0	
5	0	0	0	0	1021	1021	0	1021	0	0	
6	0	0	0	0	1021	1021	0	1021	0	0	
7	0	0	0	0	1021	1022	0	1021	0	0	
8	0	0	0	0	1021	1021	0	1021	0	0	
9	0	0	0	0	1021	1021	0	1021	0	0	
10	0	0	0	0	1021	1021	0	858	0	0	
11	0	0	0	0	1018	1021	0	383	0	0	
12	0	0	0	0	709	1022	0	1	0	0	
13	0	0	0	0	261	1021	0	0	0	0	
14	0	0	0	0	0	1021	0	0	0	0	
15	0	0	0	0	0	958	0	0	0	0	
0	0	0	0	0	0	867	0	0	0	0	
1	0	0	0	0	0	818	0	0	0	0	
2	0	0	0	0	0	847	0	0	0	0	
3	0	0	0	0	0	975	0	0	0	0	
4	0	0	0	0	24	1021	0	120	0	0	
5	0	0	0	0	395	1021	0	582	0	0	
6	0	0	0	0	954	1021	0	1020	0	0	
7	0	0	0	0	1021	1021	0	1020	0	0	
8	0	0	0	0	1021	1021	0	1021	0	0	
9	0	0	0	0	1021	1021	0	1021	0	0	
10	0	0	0	0	1021	1021	0	1020	0	0	
11	0	0	0	0	1021	1022	0	1020	0	0	
12	0	0	0	0	1021	1021	0	1021	0	0	
13	0	0	0	0	1021	1021	0	1021	0	0	
14	0	0	0	0	1021	1021	0	854	0	0	
15	0	0	0	0	915	1021	0	382	0	0	
0	0	0	0	0	541	1021	0	0	0	0	
1	0	0	0	0	40	1021	0	0	0	0	
2	0	0	0	0	0	859	0	0	0	0	
3	0	0	0	0	0	652	0	0	0	0	
4	0	0	0	0	0	472	0	0	0	0	
5	0	0	0	0	0	367	0	0	0	0	
6	0	0	0	0	0	380	0	0	0	0	
7	0	0	0	0	0	531	0	0	0	0	
8	0	0	0	0	0	824	0	197	0	0	
9	0	0	0	0	360	1021	0	705	0	0	
10	0	0	0	0	936	1021	0	1020	0	0	
11	0	0	0	0	1021	1021	0	1020	0	0	
12	0	0	0	0	1021	1021	0	1021	0	0	
13	0	0	0	0	1021	1021	0	1021	0	0	
14	0	0	0	0	1021	1021	0	1020	0	0	
15	0	0	0	0	1021	1022	0	1020	0	0	
0	0	0	0	0	1021	1021	0	1021	0	0	
1	0	0	0	0	1021	1021	0	1021	0	0	
2	0	0	0	0	1021	1021	0	817	0	0	
3	0	0	0	0	1021	1022	0	305	0	0	
4	0	0	0	0	871	1021	0	0	0	0	
5	0	0	0	0	493	1021	0	0	0	0	
6	0	0	0	0	22	927	0	0	0	0	
7	0	0	0	0	0	745	0	0	0	0	
8	0	0	0	0	0	579	0	0	0	0	
9	0	0	0	0	0	479	0	0	0	0	
10	0	0	0	0	0	486	0	0	0	0	
11	0	0	0	0	0	625	0	0	0	0	
12	0	0	0	0	96	898	0	60	0	0	
13	0	0	0	0	526	1021	0	490	0	0	
14	0	0	0	0	1020	1021	0	1020	0	0	
15	0	0	0	0	1021	1021	0	1020	0	0	
0	0	0	0	0	1021	1021	0	1021	0	0	
1	0	0	0	0	1021	1021	0	1021	0	0	
2	0	0	0	0	1021	1021	0	1021	0	0	
3	0	0	0	0	1021	1022	0	1020	0	0	
4	0	0	0	0	1021	1021	0	1021	0	0	
5	0	0	0	0	1021	1021	0	1021	0	0	
6	0	0	0	0	1021	1021	0	705	0	0	
7	0	0	0	0	1021	1022	0	142	0	0	
8	0	0	0	0	756	1021	0	0	0	0	
9	0	0	0	0	309	1021	0	0	0	0	
10	0	0	0	0	0	1021	0	0	0	0	
11	0	0	0	0	0	1000	0	0	0	0	
12	0	0	0	0	0	939	0	0	0	0	
13	0	0	0	0	0	922	0	0	0	0	
14	0	0	0	0	0	984	0	0	0	0	
15	0	0	0	0	0	1021	0	0	0	0	
0	0	0	0	0	31	1021	0	40	0	0	
1	0	0	0	0	425	1021	0	466	0	0	
2	0	0	0	0	1020	1021	0	1020	0	0	
3	0	0	0	0	1021	1021	0	1020	0	0	
4	0	0	0	0	1021	1021	0	1021	0	0	
5	0	0	0	0	1021	1021	0	1021	0	0	
6	0	0	0	0	1021	1021	0	1021	0	0	
7	0	0	0	0	1021	1021	0	1021	0	0	
8	0	0	0	0	1021	1021	0	1021	0	0	
9	0	0	0	0	1021	1021	0	1021	0	0	
10	0	0	0	0	1021	1021	0	681	0	0	
11	0	0	0	0	1021	1021	0	100	0	0	
12	0	0	0	0	764	1021	0	0	0	0	
13	0	0	0	0	312	1021	0	0	0	0	
14	0	0	0	0	0	923	0	0	0	0	
15	0	0	0	0	0	723	0	0	0	0	
0	0	0	0	0	0	538	0	0	0	0	
1	0	0	0	0	0	424	0	0	0	0	
2	0	0	0	0	0	428	0	0	0	0	
3	0	0	0	0	0	575	0	0	0	0	
4	0	0	0	0	0	871	0	33	0	0	
5	0	0	0	0	312	1021	0	466	0	0	
6	0	0	0	0	870	1021	0	1020	0	0	
7	0	0	0	0	1021	1021	0	1020	0	0	
8	0	0	0	0	1021	1021	0	1021	0	0	
9	0	0	0	0	1021	1021	0	1020	0	0	
10	0	0	0	0	1021	1021	0	1021	0	0	
11	0	0	0	0	1021	1021	0	1021	0	0	
12	0	0	0	0	1021	1021	0	1021	0	0	
13	0	0	0	0	1021	1021	0	1021	0	0	
14	0	0	0	0	1021	1021	0	809	0	0	
15	0	0	0	0	1020	1021	0	285	0	0	
0	0	0	0	0	703	1021	0	0	0	0	
1	0	0	0	0	244	1021	0	0	0	0	
2	0	0	0	0	0	1021	0	0	0	0	
3	0	0	0	0	0	992	0	0	0	0	
4	0	0	0	0	0	919	0	0	0	0	
5	0	0	0	0	0	888	0	0	0	0	
6	0	0	0	0	0	938	0	0	0	0	
7	0	0	0	0	0	1021	0	0	0	0	
8	0	0	0	0	105	1021	0	44	0	0	
9	0	0	0	0	562	1021	0	481	0	0	
10	0	0	0	0	1020	1021	0	1020	0	0	
11	0	0	0	0	1021	1021	0	1020	0	0	
12	0	0	0	0	1021	1021	0	1020	0	0	
13	0	0	0	0	1021	1021	0	1021	0	0	
14	0	0	0	0	1021	1021	0	1021	0	0	
15	0	0	0	0	1021	1021	0	1021	0	0	
0	0	0	0	0	1021	1021	0	1021	0	0	
1	0	0	0	0	1021	1021	0	1021	0	0	
2	0	0	0	0	1021	1021	0	829	0	0	
3	0	0	0	0	1021	1021	0	313	0	0	
4	0	0	0	0	949	1021	0	0	0	0	
5	0	0	0	0	587	1021	0	0	0	0	
6	0	0	0	0	108	876	0	0	0	0	
7	0	0	0	0	0	646	0	0	0	0	
8	0	0	0	0	0	433	0	0	0	0	
9	0	0	0	0	0	294	0	0	0	0	
10	0	0	0	0	0	279	0	0	0	0	
11	0	0	0	0	0	411	0	0	0	0	
12	0	0	0	0	26	699	0	31	0	0	
13	0	0	0	0	402	1020	0	456	0	0	
14	0	0	0	0	977	1021	0	1020	0	0	
15	0	0	0	0	1021	1021	0	1020	0	0	
0	0	0	0	0	1021	1021	0	1021	0	0	
1	0	0	0	0	1021	1021	0	1021	0	0	
2	0	0	0	0	1021	1021	0	1020	0	0	
3	0	0	0	0	1021	1022	0	1020	0	0	
4	0	0	0	0	1021	1021	0	1021	0	0	
5	0	0	0	0	1021	1021	0	1021	0	0	
6	0	0	0	0	1021	1021	0	859	0	0	
7	0	0	0	0	959	1021	0	362	0	0	
8	0	0	0	0	593	1022	0	1	0	0	
9	0	0	0	0	86	1021	0	0	0	0	
10	0	0	0	0	0	1021	0	0	0	0	
11	0	0	0	0	0	900	0	0	0	0	
12	0	0	0	0	0	778	0	0	0	0	
13	0	0	0	0	0	709	0	0	0	0	
14	0	0	0	0	0	733	0	0	0	0	
15	0	0	0	0	0	874	0	0	0	0	
0	0	0	0	0	0	1021	0	81	0	0	
1	0	0	0	0	295	1021	0	547	0	0	
2	0	0	0	0	825	1022	0	1020	0	0	
3	0	0	0	0	1020	1021	0	1020	0	0	
4	0	0	0	0	1021	1021	0	1021	0	0	
5	0	0	0	0	1021	1021	0	1021	0	0	
6	0	0	0	0	1021	1021	0	1020	0	0	
7	0	0	0	0	1021	1021	0	1021	0	0	
8	0	0	0	0	1021	1021	0	1021	0	0	
9	0	0	0	0	1021	1021	0	1021	0	0	
10	0	0	0	0	1021	1021	0	919	0	0	
11	0	0	0	0	816	1021	0	457	0	0	
12	0	0	0	0	359	1021	0	0	0	0	
13	0	0	0	0	0	1021	0	0	0	0	
14	0	0	0	0	0	1021	0	0	0	0	
15	0	0	0	0	0	891	0	0	0	0	
0	0	0	0	0	0	764	0	0	0	0	
1	0	0	0	0	0	689	0	0	0	0	
2	0	0	0	0	0	705	0	0	0	0	
3	0	0	0	0	0	840	0	0	0	0	
4	0	0	0	0	0	1021	0	48	0	0	
5	0	0	0	0	51	1021	0	483	0	0	
6	0	0	0	0	460	1021	0	1020	0	0	
7	0	0	0	0	1020	1021	0	1020	0	0	
8	0	0	0	0	1021	1021	0	1020	0	0	
9	0	0	0	0	1021	1021	0	1021	0	0	
10	0	0	0	0	1021	1021	0	1021	0	0	
11	0	0	0	0	1021	1022	0	1020	0	0	
12	0	0	0	0	1021	1021	0	1021	0	0	
13	0	0	0	0	1021	1021	0	1021	0	0	
14	0	0	0	0	1021	1021	0	838	0	0	
15	0	0	0	0	859	1021	0	327	0	0	
0	0	0	0	0	434	1021	0	0	0	0	
1	0	0	0	0	0	1021	0	0	0	0	
2	0	0	0	0	0	1021	0	0	0	0	
3	0	0	0	0	0	1021	0	0	0	0	
4	0	0	0	0	0	1004	0	0	0	0	
5	0	0	0	0	0	1005	0	0	0	0	
6	0	0	0	0	0	1021	0	0	0	0	
7	0	0	0	0	0	1021	0	0	0	0	
8	0	0	0	0	0	1021	0	0	0	0	
9	0	0	0	0	144	1021	0	371	0	0	
10	0	0	0	0	614	1021	0	943	0	0	
11	0	0	0	0	1020	1021	0	1020	0	0	
12	0	0	0	0	1021	1021	0	1021	0	0	
13	0	0	0	0	1021	1021	0	1021	0	0	
14	0	0	0	0	1021	1021	0	1020	0	0	
15	0	0	0	0	1021	1021	0	1021	0	0	
0	0	0	0	0	1021	1021	0	1021	0	0	
1	0	0	0	0	1021	1021	0	1021	0	0	
2	0	0	0	0	1021	1021	0	720	0	0	
3	0	0	0	0	928	1021	0	160	0	0	
4	0	0	0	0	540	1021	0	0	0	0	
5	0	0	0	0	12	1021	0	0	0	0	
6	0	0	0	0	0	1021	0	0	0	0	
7	0	0	0	0	0	987	0	0	0	0	
8	0	0	0	0	0	917	0	0	0	0	
9	0	0	0	0	0	896	0	0	0	0	
10	0	0	0	0	0	958	0	0	0	0	
11	0	0	0	0	0	1021	0	0	0	0	
12	0	0	0	0	0	1021	0	36	0	0	
13	0	0	0	0	334	1021	0	470	0	0	
14	0	0	0	0	909	1022	0	1019	0	0	
15	0	0	0	0	1021	1021	0	1020	0	0	
0	0	0	0	0	1021	1021	0	1020	0	0	
1	0	0	0	0	1021	1021	0	1021	0	0	
2	0	0	0	0	1021	1021	0	1021	0	0	
3	0	0	0	0	1021	1022	0	1020	0	0	
4	0	0	0	0	1021	1021	0	1021	0	0	
5	0	0	0	0	1021	1021	0	1021	0	0	
6	0	0	0	0	1021	1021	0	789	0	0	
7	0	0	0	0	1021	1021	0	246	0	0	
8	0	0	0	0	695	1021	0	0	0	0	
9	0	0	0	0	200	1021	0	0	0	0	
10	0	0	0	0	0	1021	0	0	0	0	
11	0	0	0	0	0	1021	0	0	0	0	
12	0	0	0	0	0	1016	0	0	0	0	
13	0	0	0	0	0	1018	0	0	0	0	
14	0	0	0	0	0	1021	0	0	0	0	
15	0	0	0	0	0	1021	0	0	0	0	
0	0	0	0	0	0	1021	0	0	0	0	
1	0	0	0	0	268	1021	0	387	0	0	
2	0	0	0	0	811	1022	0	975	0	0	
3	0	0	0	0	1020	1021	0	1020	0	0	
4	0	0	0	0	1021	1021	0	1021	0	0	
5	0	0	0	0	1021	1021	0	1021	0	0	
6	0	0	0	0	1021	1021	0	1020	0	0	
7	0	0	0	0	1021	1022	0	1020	0	0	
8	0	0	0	0	1021	1021	0	1021	0	0	
9	0	0	0	0	1021	1021	0	1021	0	0	
10	0	0	0	0	1021	1021	0	754	0	0	
11	0	0	0	0	978	1022	0	199	0	0	
12	0	0	0	0	613	1022	0	0	0	0	
13	0	0	0	0	97	1021	0	0	0	0	
14	0	0	0	0	0	826	0	0	0	0	
15	0	0	0	0	0	588	0	0	0	0	
0	0	0	0	0	0	382	0	0	0	0	
1	0	0	0	0	0	269	0	0	0	0	
2	0	0	0	0	0	292	0	0	0	0	
3	0	0	0	0	0	476	0	0	0	0	
4	0	0	0	0	0	822	0	8	0	0	
5	0	0	0	0	230	1021	0	434	0	0	
6	0	0	0	0	747	1022	0	1019	0	0	
7	0	0	0	0	1020	1021	0	1020	0	0	
8	0	0	0	0	1021	1021	0	1021	0	0	
9	0	0	0	0	1021	1021	0	1021	0	0	
10	0	0	0	0	1021	1021	0	1021	0	0	
11	0	0	0	0	1021	1022	0	1021	0	0	
12	0	0	0	0	1021	1021	0	1021	0	0	
13	0	0	0	0	1021	1021	0	1021	0	0	
14	0	0	0	0	1021	1021	0	859	0	0	
15	0	0	0	0	905	1021	0	352	0	0	
0	0	0	0	0	497	1021	0	0	0	0	
1	0	0	0	0	0	1021	0	0	0	0	
2	0	0	0	0	0	1021	0	0	0	0	
3	0	0	0	0	0	1021	0	0	0	0	
4	0	0	0	0	0	1021	0	0	0	0	
5	0	0	0	0	0	1022	0	0	0	0	
6	0	0	0	0	0	1021	0	0	0	0	
7	0	0	0	0	0	1021	0	0	0	0	
8	0	0	0	0	0	1021	0	0	0	0	
9	0	0	0	0	331	1021	0	393	0	0	
10	0	0	0	0	911	1021	0	973	0	0	
11	0	0	0	0	1020	1021	0	1020	0	0	
12	0	0	0	0	1021	1021	0	1021	0	0	
13	0	0	0	0	1021	1021	0	1021	0	0	
14	0	0	0	0	1021	1021	0	1020	0	0	
15	0	0	0	0	1021	1021	0	1021	0	0	
0	0	0	0	0	1021	1021	0	1021	0	0	
1	0	0	0	0	1021	1021	0	1021	0	0	
2	0	0	0	0	1021	1021	0	721	0	0	
3	0	0	0	0	1021	1021	0	157	0	0	
4	0	0	0	0	709	1022	0	1	0	0	
5	0	0	0	0	217	1021	0	0	0	0	
6	0	0	0	0	0	1021	0	0	0	0	
7	0	0	0	0	0	1021	0	0	0	0	
8	0	0	0	0	0	985	0	0	0	0	
9	0	0	0	0	0	967	0	0	0	0	
10	0	0	0	0	0	1020	0	0	0	0	
11	0	0	0	0	0	1021	0	0	0	0	
12	0	0	0	0	0	1021	0	10	0	0	
13	0	0	0	0	167	1021	0	424	0	0	
14	0	0	0	0	637	1022	0	1019	0	0	
15	0	0	0	0	1020	1021	0	1020	0	0	
0	0	0	0	0	1021	1021	0	1021	0	0	
1	0	0	0	0	1021	1021	0	1020	0	0	
2	0	0	0	0	1021	1021	0	1020	0	0	
3	0	0	0	0	1021	1021	0	1021	0	0	
4	0	0	0	0	1021	1021	0	1021	0	0	
5	0	0	0	0	1021	1021	0	1021	0	0	
6	0	0	0	0	1021	1021	0	808	0	0	
7	0	0	0	0	791	1021	0	281	0	0	
8	0	0	0	0	324	1022	0	1	0	0	
9	0	0	0	0	0	1021	0	0	0	0	
10	0	0	0	0	0	1021	0	0	0	0	
11	0	0	0	0	0	998	0	0	0	0	
12	0	0	0	0	0	913	0	0	0	0	
13	0	0	0	0	0	865	0	0	0	0	
14	0	0	0	0	0	895	0	0	0	0	
15	0	0	0	0	0	1021	0	0	0	0	
0	0	0	0	0	0	1021	0	30	0	0	
1	0	0	0	0	66	1021	0	460	0	0	
2	0	0	0	0	480	1022	0	1019	0	0	
3	0	0	0	0	1020	1021	0	1020	0	0	
4	0	0	0	0	1020	1021	0	1021	0	0	
5	0	0	0	0	1021	1021	0	1021	0	0	
6	0	0	0	0	1021	1021	0	1020	0	0	
7	0	0	0	0	1021	1022	0	1021	0	0	
8	0	0	0	0	1021	1021	0	1021	0	0	
9	0	0	0	0	1021	1021	0	1021	0	0	
10	0	0	0	0	1021	1021	0	877	0	0	
11	0	0	0	0	822	1021	0	394	0	0	
12	0	0	0	0	374	1021	0	0	0	0	
13	0	0	0	0	0	1010	0	0	0	0	
14	0	0	0	0	0	780	0	0	0	0	
15	0	0	0	0	0	506	0	0	0	0	
0	0	0	0	0	0	256	0	0	0	0	
1	0	0	0	0	0	94	0	0	0	0	
2	0	0	0	0	0	63	0	0	0	0	
3	0	0	0	0	0	189	0	0	0	0	
4	0	0	0	0	0	483	0	89	0	0	
5	0	0	0	0	0	931	0	563	0	0	
6	0	0	0	0	353	1021	0	1020	0	0	
7	0	0	0	0	887	1021	0	1020	0	0	
8	0	0	0	0	1020	1021	0	1021	0	0	
9	0	0	0	0	1021	1021	0	1021	0	0	
10	0	0	0	0	1021	1021	0	1020	0	0	
11	0	0	0	0	1021	1021	0	1021	0	0	
12	0	0	0	0	1021	1021	0	1021	0	0	
13	0	0	0	0	1021	1021	0	1021	0	0	
14	0	0	0	0	1021	1021	0	986	0	0	
15	0	0	0	0	871	1021	0	572	0	0	
0	0	0	0	0	460	1021	0	1	0	0	
1	0	0	0	0	0	1021	0	0	0	0	
2	0	0	0	0	0	1021	0	0	0	0	
3	0	0	0	0	0	878	0	0	0	0	
4	0	0	0	0	0	729	0	0	0	0	
5	0	0	0	0	0	629	0	0	0	0	
6	0	0	0	0	0	622	0	0	0	0	
7	0	0	0	0	0	736	0	0	0	0	
8	0	0	0	0	0	982	0	92	0	0	
9	0	0	0	0	120	1021	0	557	0	0	
10	0	0	0	0	572	1021	0	1020	0	0	
11	0	0	0	0	1020	1021	0	1020	0	0	
12	0	0	0	0	1020	1021	0	1021	0	0	
13	0	0	0	0	1021	1021	0	1020	0	0	
14	0	0	0	0	1021	1021	0	1020	0	0	
15	0	0	0	0	1021	1022	0	1020	0	0	
0	0	0	0	0	1021	1021	0	1021	0	0	
1	0	0	0	0	1021	1021	0	1021	0	0	
2	0	0	0	0	1021	1021	0	940	0	0	
3	0	0	0	0	906	1021	0	490	0	0	
4	0	0	0	0	498	1022	0	1	0	0	
5	0	0	0	0	0	1021	0	0	0	0	
6	0	0	0	0	0	1021	0	0	0	0	
7	0	0	0	0	0	951	0	0	0	0	
8	0	0	0	0	0	850	0	0	0	0	
9	0	0	0	0	0	799	0	0	0	0	
10	0	0	0	0	0	837	0	0	0	0	
11	0	0	0	0	0	991	0	0	0	0	
12	0	0	0	0	0	1021	0	50	0	0	
13	0	0	0	0	81	1021	0	494	0	0	
14	0	0	0	0	513	1022	0	1020	0	0	
15	0	0	0	0	1020	1021	0	1020	0	0	
0	0	0	0	0	1021	1021	0	1021	0	0	
1	0	0	0	0	1021	1021	0	1021	0	0	
2	0	0	0	0	1021	1021	0	1021	0	0	
3	0	0	0	0	1021	1021	0	1021	0	0	
4	0	0	0	0	1021	1021	0	1021	0	0	
5	0	0	0	0	1021	1021	0	1021	0	0	
6	0	0	0	0	1021	1021	0	854	0	0	
7	0	0	0	0	857	1021	0	343	0	0	
8	0	0	0	0	416	1021	0	0	0	0	
9	0	0	0	0	0	1021	0	0	0	0	
10	0	0	0	0	0	1021	0	0	0	0	
11	0	0	0	0	0	988	0	0	0	0	
12	0	0	0	0	0	909	0	0	0	0	
13	0	0	0	0	0	878	0	0	0	0	
14	0	0	0	0	0	930	0	0	0	0	
15	0	0	0	0	0	1021	0	0	0	0	
0	0	0	0	0	0	1021	0	0	0	0	
1	0	0	0	0	46	1021	0	405	0	0	
2	0	0	0	0	455	1021	0	1011	0	0	
3	0	0	0	0	1020	1021	0	1020	0	0	
4	0	0	0	0	1021	1021	0	1021	0	0	
5	0	0	0	0	1021	1021	0	1021	0	0	
6	0	0	0	0	1021	1021	0	1021	0	0	
7	0	0	0	0	1021	1021	0	1021	0	0	
8	0	0	0	0	1021	1021	0	1021	0	0	
9	0	0	0	0	1021	1021	0	1021	0	0	
10	0	0	0	0	1021	1021	0	881	0	0	
11	0	0	0	0	828	1021	0	389	0	0	
12	0	0	0	0	374	1021	0	0	0	0	
13	0	0	0	0	0	999	0	0	0	0	
14	0	0	0	0	0	751	0	0	0	0	
15	0	0	0	0	0	464	0	0	0	0	
0	0	0	0	0	0	213	0	0	0	0	
1	0	0	0	0	0	66	0	0	0	0	
2	0	0	0	0	0	66	0	0	0	0	
3	0	0	0	0	0	240	0	0	0	0	
4	0	0	0	0	0	598	0	13	0	0	
5	0	0	0	0	0	1020	0	440	0	0	
6	0	0	0	0	374	1021	0	1020	0	0	
7	0	0	0	0	939	1021	0	1020	0	0	
8	0	0	0	0	1021	1021	0	1021	0	0	
9	0	0	0	0	1021	1021	0	1020	0	0	
10	0	0	0	0	1021	1021	0	1021	0	0	
11	0	0	0	0	1021	1021	0	1021	0	0	
12	0	0	0	0	1021	1021	0	1021	0	0	
13	0	0	0	0	1021	1021	0	1021	0	0	
14	0	0	0	0	1021	1021	0	929	0	0	
15	0	0	0	0	940	1021	0	465	0	0	
0	0	0	0	0	553	1021	0	0	0	0	
1	0	0	0	0	15	1021	0	0	0	0	
2	0	0	0	0	0	1021	0	0	0	0	
3	0	0	0	0	0	1021	0	0	0	0	
4	0	0	0	0	0	1021	0	0	0	0	
5	0	0	0	0	0	1021	0	0	0	0	
6	0	0	0	0	0	1021	0	0	0	0	
7	0	0	0	0	0	1021	0	0	0	0	
8	0	0	0	0	0	1021	0	0	0	0	
9	0	0	0	0	145	1021	0	361	0	0	
10	0	0	0	0	621	1021	0	940	0	0	
11	0	0	0	0	1020	1021	0	1020	0	0	
12	0	0	0	0	1021	1021	0	1021	0	0	
13	0	0	0	0	1021	1021	0	1021	0	0	
14	0	0	0	0	1021	1021	0	1021	0	0	
15	0	0	0	0	1021	1021	0	1021	0	0	
0	0	0	0	0	1021	1021	0	1021	0	0	
1	0	0	0	0	1021	1021	0	1021	0	0	
2	0	0	0	0	1021	1021	0	795	0	0	
3	0	0	0	0	935	1021	0	260	0	0	
4	0	0	0	0	541	1021	0	0	0	0	
5	0	0	0	0	1	1021	0	0	0	0	
6	0	0	0	0	0	1021	0	0	0	0	
7	0	0	0	0	0	1021	0	0	0	0	
8	0	0	0	0	0	1021	0	0	0	0	
9	0	0	0	0	0	1021	0	0	0	0	
10	0	0	0	0	0	1021	0	0	0	0	
11	0	0	0	0	0	1021	0	0	0	0	
12	0	0	0	0	0	1021	0	3	0	0	
13	0	0	0	0	283	1022	0	419	0	0	
14	0	0	0	0	849	1021	0	1019	0	0	
15	0	0	0	0	1020	1021	0	1020	0	0	
0	0	0	0	0	1021	1021	0	1021	0	0	
1	0	0	0	0	1021	1021	0	1020	0	0	
2	0	0	0	0	1021	1021	0	1020	0	0	
3	0	0	0	0	1021	1021	0	1021	0	0	
4	0	0	0	0	1021	1021	0	1021	0	0	
5	0	0	0	0	1021	1021	0	1021	0	0	
6	0	0	0	0	1021	1021	0	836	0	0	
7	0	0	0	0	1021	1021	0	320	0	0	
8	0	0	0	0	797	1021	0	0	0	0	
9	0	0	0	0	347	1021	0	0	0	0	
10	0	0	0	0	0	1021	0	0	0	0	
11	0	0	0	0	0	1021	0	0	0	0	
12	0	0	0	0	0	1021	0	0	0	0	
13	0	0	0	0	0	1021	0	0	0	0	
14	0	0	0	0	0	1021	0	0	0	0	
15	0	0	0	0	0	1021	0	0	0	0	
0	0	0	0	0	0	1021	0	0	0	0	
1	0	0	0	0	320	1021	0	329	0	0	
2	0	0	0	0	878	1021	0	893	0	0	
3	0	0	0	0	1021	1021	0	1020	0	0	
4	0	0	0	0	1021	1021	0	1020	0	0	
5	0	0	0	0	1021	1021	0	1020	0	0	
6	0	0	0	0	1021	1021	0	1020	0	0	
7	0	0	0	0	1021	1021	0	1021	0	0	
8	0	0	0	0	1021	1021	0	1021	0	0	
9	0	0	0	0	1021	1021	0	1021	0	0	
10	0	0	0	0	1021	1021	0	797	0	0	
11	0	0	0	0	992	1022	0	272	0	0	
12	0	0	0	0	643	1022	0	1	0	0	
13	0	0	0	0	146	1021	0	0	0	0	
14	0	0	0	0	0	1015	0	0	0	0	
15	0	0	0	0	0	860	0	0	0	0	
0	0	0	0	0	0	703	0	0	0	0	
1	0	0	0	0	0	600	0	0	0	0	
2	0	0	0	0	0	596	0	0	0	0	
3	0	0	0	0	0	722	0	0	0	0	
4	0	0	0	0	0	985	0	7	0	0	
5	0	0	0	0	253	1021	0	425	0	0	
6	0	0	0	0	781	1022	0	1019	0	0	
7	0	0	0	0	1020	1021	0	1020	0	0	
8	0	0	0	0	1021	1021	0	1021	0	0	
9	0	0	0	0	1021	1021	0	1020	0	0	
10	0	0	0	0	1021	1021	0	1021	0	0	
11	0	0	0	0	1021	1022	0	1020	0	0	
12	0	0	0	0	1021	1021	0	1021	0	0	
13	0	0	0	0	1021	1021	0	1021	0	0	
14	0	0	0	0	1021	1021	0	941	0	0	
15	0	0	0	0	973	1021	0	488	0	0	
0	0	0	0	0	595	1021	0	0	0	0	
1	0	0	0	0	58	1021	0	0	0	0	
2	0	0	0	0	0	1021	0	0	0	0	
3	0	0	0	0	0	1011	0	0	0	0	
4	0	0	0	0	0	933	0	0	0	0	
5	0	0	0	0	0	892	0	0	0	0	
6	0	0	0	0	0	928	0	0	0	0	
7	0	0	0	0	0	1021	0	0	0	0	
8	0	0	0	0	0	1021	0	20	0	0	
9	0	0	0	0	210	1021	0	446	0	0	
10	0	0	0	0	735	1021	0	1020	0	0	
11	0	0	0	0	1020	1021	0	1020	0	0	
12	0	0	0	0	1021	1021	0	1021	0	0	
13	0	0	0	0	1021	1021	0	1021	0	0	
14	0	0	0	0	1021	1021	0	1021	0	0	
15	0	0	0	0	1021	1021	0	1021	0	0	
0	0	0	0	0	1021	1021	0	1021	0	0	
1	0	0	0	0	1021	1021	0	1021	0	0	
2	0	0	0	0	1021	1021	0	928	0	0	
3	0	0	0	0	1012	1021	0	465	0	0	
4	0	0	0	0	672	1022	0	1	0	0	
5	0	0	0	0	177	1021	0	0	0	0	
6	0	0	0	0	0	896	0	0	0	0	
7	0	0	0	0	0	668	0	0	0	0	
8	0	0	0	0	0	454	0	0	0	0	
9	0	0	0	0	0	315	0	0	0	0	
10	0	0	0	0	0	299	0	0	0	0	
11	0	0	0	0	0	436	0	0	0	0	
12	0	0	0	0	0	733	0	22	0	0	
13	0	0	0	0	335	1021	0	453	0	0	
14	0	0	0	0	923	1021	0	1020	0	0	
15	0	0	0	0	1021	1021	0	1020	0	0	
0	0	0	0	0	1021	1021	0	1021	0	0	
1	0	0	0	0	1021	1021	0	1020	0	0	
2	0	0	0	0	1021	1021	0	1021	0	0	
3	0	0	0	0	1021	1022	0	1020	0	0	
4	0	0	0	0	1021	1021	0	1020	0	0	
5	0	0	0	0	1021	1021	0	1021	0	0	
6	0	0	0	0	1021	1021	0	978	0	0	
7	0	0	0	0	1021	1021	0	551	0	0	
8	0	0	0	0	867	1021	0	1	0	0	
9	0	0	0	0	444	1021	0	0	0	0	
10	0	0	0	0	0	1020	0	0	0	0	
11	0	0	0	0	0	858	0	0	0	0	
12	0	0	0	0	0	689	0	0	0	0	
13	0	0	0	0	0	575	0	0	0	0	
14	0	0	0	0	0	564	0	0	0	0	
15	0	0	0	0	0	689	0	0	0	0	
0	0	0	0	0	0	960	0	11	0	0	
1	0	0	0	0	315	1021	0	433	0	0	
2	0	0	0	0	888	1021	0	1020	0	0	
3	0	0	0	0	1021	1021	0	1020	0	0	
4	0	0	0	0	1021	1021	0	1021	0	0	
5	0	0	0	0	1021	1021	0	1021	0	0	
6	0	0	0	0	1021	1021	0	1021	0	0	
7	0	0	0	0	1021	1022	0	1020	0	0	
8	0	0	0	0	1021	1021	0	1021	0	0	
9	0	0	0	0	1021	1021	0	1021	0	0	
10	0	0	0	0	1021	1021	0	981	0	0	
11	0	0	0	0	1021	1021	0	551	0	0	
12	0	0	0	0	795	1022	0	1	0	0	
13	0	0	0	0	339	1021	0	0	0	0	
14	0	0	0	0	0	1021	0	0	0	0	
15	0	0	0	0	0	1021	0	0	0	0	
0	0	0	0	0	0	1021	0	0	0	0	
1	0	0	0	0	0	1022	0	0	0	0	
2	0	0	0	0	0	1021	0	0	0	0	
3	0	0	0	0	0	1021	0	0	0	0	
4	0	0	0	0	0	1021	0	0	0	0	
5	0	0	0	0	291	1021	0	399	0	0	
6	0	0	0	0	843	1022	0	1012	0	0	
7	0	0	0	0	1020	1021	0	1020	0	0	
8	0	0	0	0	1021	1021	0	1021	0	0	
9	0	0	0	0	1021	1021	0	1020	0	0	
10	0	0	0	0	1021	1021	0	1020	0	0	
11	0	0	0	0	1021	1022	0	1020	0	0	
12	0	0	0	0	1021	1021	0	1021	0	0	
13	0	0	0	0	1021	1021	0	1021	0	0	
14	0	0	0	0	1021	1021	0	988	0	0	
15	0	0	0	0	1021	1021	0	569	0	0	
0	0	0	0	0	697	1021	0	1	0	0	
1	0	0	0	0	193	1021	0	0	0	0	
2	0	0	0	0	0	1021	0	0	0	0	
3	0	0	0	0	0	1021	0	0	0	0	
4	0	0	0	0	0	1021	0	0	0	0	
5	0	0	0	0	0	1021	0	0	0	0	
6	0	0	0	0	0	1021	0	0	0	0	
7	0	0	0	0	0	1021	0	0	0	0	
8	0	0	0	0	0	1021	0	39	0	0	
9	0	0	0	0	281	1021	0	478	0	0	
10	0	0	0	0	851	1022	0	1019	0	0	
11	0	0	0	0	1020	1021	0	1020	0	0	
12	0	0	0	0	1021	1021	0	1021	0	0	
13	0	0	0	0	1021	1021	0	1021	0	0	
14	0	0	0	0	1021	1021	0	1020	0	0	
15	0	0	0	0	1021	1021	0	1021	0	0	
0	0	0	0	0	1021	1021	0	1021	0	0	
1	0	0	0	0	1021	1021	0	1021	0	0	
2	0	0	0	0	1021	1021	0	929	0	0	
3	0	0	0	0	1011	1021	0	462	0	0	
4	0	0	0	0	647	1022	0	1	0	0	
5	0	0	0	0	113	1021	0	0	0	0	
6	0	0	0	0	0	1021	0	0	0	0	
7	0	0	0	0	0	1021	0	0	0	0	
8	0	0	0	0	0	1021	0	0	0	0	
9	0	0	0	0	0	1022	0	0	0	0	
10	0	0	0	0	0	1021	0	0	0	0	
11	0	0	0	0	0	1021	0	0	0	0	
12	0	0	0	0	0	1021	0	0	0	0	
13	0	0	0	0	164	1021	0	381	0	0	
14	0	0	0	0	673	1022	0	983	0	0	
15	0	0	0	0	1020	1021	0	1020	0	0	
0	0	0	0	0	1021	1021	0	1021	0	0	
1	0	0	0	0	1021	1021	0	1020	0	0	
2	0	0	0	0	1021	1021	0	1020	0	0	
3	0	0	0	0	1021	1021	0	1021	0	0	
4	0	0	0	0	1021	1021	0	1021	0	0	
5	0	0	0	0	1021	1021	0	1021	0	0	
6	0	0	0	0	1021	1021	0	909	0	0	
7	0	0	0	0	1007	1021	0	430	0	0	
8	0	0	0	0	645	1022	0	1	0	0	
9	0	0	0	0	113	1021	0	0	0	0	
10	0	0	0	0	0	1021	0	0	0	0	
11	0	0	0	0	0	1021	0	0	0	0	
12	0	0	0	0	0	1021	0	0	0	0	
13	0	0	0	0	0	1022	0	0	0	0	
14	0	0	0	0	0	1021	0	0	0	0	
15	0	0	0	0	0	1021	0	0	0	0	
0	0	0	0	0	0	1021	0	0	0	0	
1	0	0	0	0	189	1021	0	268	0	0	
2	0	0	0	0	709	1022	0	819	0	0	
3	0	0	0	0	1020	1021	0	1020	0	0	
4	0	0	0	0	1021	1021	0	1021	0	0	
5	0	0	0	0	1021	1021	0	1021	0	0	
6	0	0	0	0	1021	1021	0	1020	0	0	
7	0	0	0	0	1021	1022	0	1020	0	0	
8	0	0	0	0	1021	1021	0	1021	0	0	
9	0	0	0	0	1021	1021	0	1021	0	0	
10	0	0	0	0	1021	1021	0	877	0	0	
11	0	0	0	0	1021	1021	0	389	0	0	
12	0	0	0	0	732	1021	0	0	0	0	
13	0	0	0	0	229	1021	0	0	0	0	
14	0	0	0	0	0	1021	0	0	0	0	
15	0	0	0	0	0	1021	0	0	0	0	
0	0	0	0	0	0	1021	0	0	0	0	
1	0	0	0	0	0	1022	0	0	0	0	
2	0	0	0	0	0	1021	0	0	0	0	
3	0	0	0	0	0	1021	0	0	0	0	
4	0	0	0	0	0	1021	0	0	0	0	
5	0	0	0	0	156	1021	0	319	0	0	
6	0	0	0	0	659	1022	0	895	0	0	
7	0	0	0	0	1020	1021	0	1020	0	0	
8	0	0	0	0	1021	1021	0	1020	0	0	
9	0	0	0	0	1021	1021	0	1021	0	0	
10	0	0	0	0	1021	1021	0	1021	0	0	
11	0	0	0	0	1021	1022	0	1020	0	0	
12	0	0	0	0	1021	1021	0	1021	0	0	
13	0	0	0	0	1021	1021	0	1021	0	0	
14	0	0	0	0	1021	1021	0	938	0	0	
15	0	0	0	0	1021	1021	0	489	0	0	
0	0	0	0	0	831	1022	0	1	0	0	
1	0	0	0	0	396	1021	0	0	0	0	
2	0	0	0	0	0	1021	0	0	0	0	
3	0	0	0	0	0	1021	0	0	0	0	
4	0	0	0	0	0	1021	0	0	0	0	
5	0	0	0	0	0	1022	0	0	0	0	
6	0	0	0	0	0	1021	0	0	0	0	
7	0	0	0	0	0	1021	0	0	0	0	
8	0	0	0	0	20	1021	0	0	0	0	
9	0	0	0	0	418	1022	0	352	0	0	
10	0	0	0	0	1020	1022	0	937	0	0	
11	0	0	0	0	1021	1021	0	1020	0	0	
12	0	0	0	0	1021	1021	0	1020	0	0	
13	0	0	0	0	1021	1021	0	1021	0	0	
14	0	0	0	0	1021	1021	0	1020	0	0	
15	0	0	0	0	1021	1021	0	1021	0	0	
0	0	0	0	0	1021	1021	0	1021	0	0	
1	0	0	0	0	1021	1021	0	1021	0	0	
2	0	0	0	0	1021	1021	0	944	0	0	
3	0	0	0	0	1021	1021	0	498	0	0	
4	0	0	0	0	821	1022	0	1	0	0	
5	0	0	0	0	385	1021	0	0	0	0	
6	0	0	0	0	0	1021	0	0	0	0	
7	0	0	0	0	0	1021	0	0	0	0	
8	0	0	0	0	0	1016	0	0	0	0	
9	0	0	0	0	0	998	0	0	0	0	
10	0	0	0	0	0	1021	0	0	0	0	
11	0	0	0	0	0	1021	0	0	0	0	
12	0	0	0	0	92	1021	0	0	0	0	
13	0	0	0	0	548	1021	0	367	0	0	
14	0	0	0	0	1020	1022	0	958	0	0	
15	0	0	0	0	1021	1021	0	1020	0	0	
0	0	0	0	0	1021	1021	0	1021	0	0	
1	0	0	0	0	1021	1021	0	1020	0	0	
2	0	0	0	0	1021	1021	0	1020	0	0	
3	0	0	0	0	1021	1022	0	1020	0	0	
4	0	0	0	0	1021	1021	0	1021	0	0	
5	0	0	0	0	1021	1021	0	1021	0	0	
6	0	0	0	0	1021	1021	0	906	0	0	
7	0	0	0	0	1021	1021	0	432	0	0	
8	0	0	0	0	726	1022	0	1	0	0	
9	0	0	0	0	227	1021	0	0	0	0	
10	0	0	0	0	0	1021	0	0	0	0	
11	0	0	0	0	0	1021	0	0	0	0	
12	0	0	0	0	0	1021	0	0	0	0	
13	0	0	0	0	0	1021	0	0	0	0	
14	0	0	0	0	0	1021	0	0	0	0	
15	0	0	0	0	0	1021	0	0	0	0	
0	0	0	0	0	0	1021	0	0	0	0	
1	0	0	0	0	240	1021	0	334	0	0	
2	0	0	0	0	779	1022	0	922	0	0	
3	0	0	0	0	1020	1021	0	1020	0	0	
4	0	0	0	0	1021	1021	0	1020	0	0	
5	0	0	0	0	1021	1021	0	1021	0	0	
6	0	0	0	0	1021	1021	0	1020	0	0	
7	0	0	0	0	1021	1021	0	1021	0	0	
8	0	0	0	0	1021	1021	0	1021	0	0	
9	0	0	0	0	1021	1021	0	1021	0	0	
10	0	0	0	0	1021	1021	0	985	0	0	
11	0	0	0	0	1005	1021	0	568	0	0	
12	0	0	0	0	644	1022	0	1	0	0	
13	0	0	0	0	118	1021	0	0	0	0	
14	0	0	0	0	0	1021	0	0	0	0	
15	0	0	0	0	0	1021	0	0	0	0	
0	0	0	0	0	0	1021	0	0	0	0	
1	0	0	0	0	0	1022	0	0	0	0	
2	0	0	0	0	0	1021	0	0	0	0	
3	0	0	0	0	0	1021	0	0	0	0	
4	0	0	0	0	0	1021	0	0	0	0	
5	0	0	0	0	185	1021	0	392	0	0	
6	0	0	0	0	690	1022	0	990	0	0	
7	0	0	0	0	1020	1021	0	1020	0	0	
8	0	0	0	0	1021	1021	0	1020	0	0	
9	0	0	0	0	1021	1021	0	1021	0	0	
10	0	0	0	0	1021	1022	0	1020	0	0	
11	0	0	0	0	1021	1022	0	1020	0	0	
12	0	0	0	0	1021	1021	0	1021	0	0	
13	0	0	0	0	1021	1021	0	1021	0	0	
14	0	0	0	0	1021	1021	0	854	0	0	
15	0	0	0	0	821	1021	0	335	0	0	
0	0	0	0	0	324	1021	0	0	0	0	
1	0	0	0	0	0	1021	0	0	0	0	
2	0	0	0	0	0	1021	0	0	0	0	
3	0	0	0	0	0	991	0	0	0	0	
4	0	0	0	0	0	889	0	0	0	0	
5	0	0	0	0	0	831	0	0	0	0	
6	0	0	0	0	0	867	0	0	0	0	
7	0	0	0	0	0	1021	0	0	0	0	
8	0	0	0	0	0	1021	0	0	0	0	
9	0	0	0	0	0	1021	0	258	0	0	
10	0	0	0	0	313	1021	0	831	0	0	
11	0	0	0	0	862	1021	0	1020	0	0	
12	0	0	0	0	1020	1021	0	1020	0	0	
13	0	0	0	0	1021	1021	0	1020	0	0	
14	0	0	0	0	1021	1021	0	1021	0	0	
15	0	0	0	0	1021	1021	0	1021	0	0	
0	0	0	0	0	1021	1021	0	1021	0	0	
1	0	0	0	0	1021	1021	0	1021	0	0	
2	0	0	0	0	1021	1021	0	982	0	0	
3	0	0	0	0	762	1021	0	554	0	0	
4	0	0	0	0	256	1021	0	0	0	0	
5	0	0	0	0	0	1021	0	0	0	0	
6	0	0	0	0	0	1021	0	0	0	0	
7	0	0	0	0	0	1021	0	0	0	0	
8	0	0	0	0	0	1021	0	0	0	0	
9	0	0	0	0	0	1021	0	0	0	0	
10	0	0	0	0	0	1021	0	0	0	0	
11	0	0	0	0	0	1021	0	0	0	0	
12	0	0	0	0	0	1021	0	0	0	0	
13	0	0	0	0	138	1021	0	417	0	0	
14	0	0	0	0	641	1021	0	1020	0	0	
15	0	0	0	0	1020	1021	0	1020	0	0	
0	0	0	0	0	1021	1021	0	1020	0	0	
1	0	0	0	0	1021	1021	0	1021	0	0	
2	0	0	0	0	1021	1021	0	1021	0	0	
3	0	0	0	0	1021	1021	0	1021	0	0	
4	0	0	0	0	1021	1021	0	1021	0	0	
5	0	0	0	0	1021	1021	0	1021	0	0	
6	0	0	0	0	1021	1021	0	1007	0	0	
7	0	0	0	0	957	1021	0	600	0	0	
8	0	0	0	0	555	1022	0	1	0	0	
9	0	0	0	0	0	1021	0	0	0	0	
10	0	0	0	0	0	1021	0	0	0	0	
11	0	0	0	0	0	1021	0	0	0	0	
12	0	0	0	0	0	1021	0	0	0	0	
13	0	0	0	0	0	1021	0	0	0	0	
14	0	0	0	0	0	1021	0	0	0	0	
15	0	0	0	0	0	1021	0	0	0	0	
0	0	0	0	0	0	1021	0	0	0	0	
1	0	0	0	0	126	1021	0	342	0	0	
2	0	0	0	0	612	1021	0	933	0	0	
3	0	0	0	0	1020	1021	0	1020	0	0	
4	0	0	0	0	1021	1021	0	1020	0	0	
5	0	0	0	0	1021	1021	0	1021	0	0	
6	0	0	0	0	1021	1021	0	1021	0	0	
7	0	0	0	0	1021	1021	0	1021	0	0	
8	0	0	0	0	1021	1021	0	1021	0	0	
9	0	0	0	0	1021	1021	0	1021	0	0	
10	0	0	0	0	1021	1021	0	983	0	0	
11	0	0	0	0	1021	1021	0	563	0	0	
12	0	0	0	0	702	1021	0	0	0	0	
13	0	0	0	0	200	1021	0	0	0	0	
14	0	0	0	0	0	1021	0	0	0	0	
15	0	0	0	0	0	1021	0	0	0	0	
0	0	0	0	0	0	1021	0	0	0	0	
1	0	0	0	0	0	1021	0	0	0	0	
2	0	0	0	0	0	1021	0	0	0	0	
3	0	0	0	0	0	1021	0	0	0	0	
4	0	0	0	0	36	1021	0	0	0	0	
5	0	0	0	0	455	1021	0	329	0	0	
6	0	0	0	0	1020	1021	0	904	0	0	
7	0	0	0	0	1021	1021	0	1020	0	0	
8	0	0	0	0	1021	1021	0	1020	0	0	
9	0	0	0	0	1021	1021	0	1021	0	0	
10	0	0	0	0	1021	1021	0	1021	0	0	
11	0	0	0	0	1021	1021	0	1021	0	0	
12	0	0	0	0	1021	1021	0	1021	0	0	
13	0	0	0	0	1021	1021	0	1021	0	0	
14	0	0	0	0	1021	1021	0	931	0	0	
15	0	0	0	0	994	1021	0	482	0	0	
0	0	0	0	0	619	1021	0	0	0	0	
1	0	0	0	0	79	1021	0	0	0	0	
2	0	0	0	0	0	1021	0	0	0	0	
3	0	0	0	0	0	1004	0	0	0	0	
4	0	0	0	0	0	894	0	0	0	0	
5	0	0	0	0	0	813	0	0	0	0	
6	0	0	0	0	0	804	0	0	0	0	
7	0	0	0	0	0	903	0	0	0	0	
8	0	0	0	0	0	1021	0	0	0	0	
9	0	0	0	0	270	1021	0	393	0	0	
10	0	0	0	0	831	1021	0	1003	0	0	
11	0	0	0	0	1020	1021	0	1020	0	0	
12	0	0	0	0	1021	1021	0	1021	0	0	
13	0	0	0	0	1021	1021	0	1021	0	0	
14	0	0	0	0	1021	1021	0	1021	0	0	
15	0	0	0	0	1021	1021	0	1021	0	0	
0	0	0	0	0	1021	1021	0	1021	0	0	
1	0	0	0	0	1021	1021	0	1021	0	0	
2	0	0	0	0	1021	1021	0	1018	0	0	
3	0	0	0	0	997	1021	0	619	0	0	
4	0	0	0	0	623	1021	0	6	0	0	
5	0	0	0	0	82	1021	0	0	0	0	
6	0	0	0	0	0	1021	0	0	0	0	
7	0	0	0	0	0	1011	0	0	0	0	
8	0	0	0	0	0	928	0	0	0	0	
9	0	0	0	0	0	884	0	0	0	0	
10	0	0	0	0	0	923	0	0	0	0	
11	0	0	0	0	0	1021	0	0	0	0	
12	0	0	0	0	0	1021	0	0	0	0	
13	0	0	0	0	149	1021	0	327	0	0	
14	0	0	0	0	633	1021	0	913	0	0	
15	0	0	0	0	1020	1021	0	1020	0	0	
0	0	0	0	0	1021	1021	0	1020	0	0	
1	0	0	0	0	1020	1021	0	1020	0	0	
2	0	0	0	0	1021	1021	0	1020	0	0	
3	0	0	0	0	1021	1021	0	1021	0	0	
4	0	0	0	0	1021	1021	0	1021	0	0	
5	0	0	0	0	1021	1021	0	1021	0	0	
6	0	0	0	0	1021	1021	0	948	0	0	
7	0	0	0	0	747	1021	0	492	0	0	
8	0	0	0	0	213	1021	0	0	0	0	
9	0	0	0	0	0	1021	0	0	0	0	
10	0	0	0	0	0	1021	0	0	0	0	
11	0	0	0	0	0	1021	0	0	0	0	
12	0	0	0	0	0	1021	0	0	0	0	
13	0	0	0	0	0	1021	0	0	0	0	
14	0	0	0	0	0	1021	0	0	0	0	
15	0	0	0	0	0	1021	0	0	0	0	
0	0	0	0	0	0	1021	0	0	0	0	
1	0	0	0	0	14	1021	0	263	0	0	
2	0	0	0	0	431	1021	0	827	0	0	
3	0	0	0	0	1020	1021	0	1020	0	0	
4	0	0	0	0	1021	1021	0	1020	0	0	
5	0	0	0	0	1021	1021	0	1021	0	0	
6	0	0	0	0	1021	1021	0	1020	0	0	
7	0	0	0	0	1021	1022	0	1020	0	0	
8	0	0	0	0	1021	1021	0	1021	0	0	
9	0	0	0	0	1021	1021	0	1021	0	0	
10	0	0	0	0	1021	1021	0	923	0	0	
11	0	0	0	0	821	1021	0	453	0	0	
12	0	0	0	0	328	1022	0	1	0	0	
13	0	0	0	0	0	1021	0	0	0	0	
14	0	0	0	0	0	1021	0	0	0	0	
15	0	0	0	0	0	1021	0	0	0	0	
0	0	0	0	0	0	1021	0	0	0	0	
1	0	0	0	0	0	1021	0	0	0	0	
2	0	0	0	0	0	1021	0	0	0	0	
3	0	0	0	0	0	1021	0	0	0	0	
4	0	0	0	0	0	1021	0	0	0	0	
5	0	0	0	0	141	1021	0	266	0	0	
6	0	0	0	0	644	1022	0	837	0	0	
7	0	0	0	0	1020	1021	0	1020	0	0	
8	0	0	0	0	1021	1021	0	1020	0	0	
9	0	0	0	0	1021	1021	0	1020	0	0	
10	0	0	0	0	1021	1022	0	1020	0	0	
11	0	0	0	0	1021	1022	0	1020	0	0	
12	0	0	0	0	1021	1021	0	1021	0	0	
13	0	0	0	0	1021	1021	0	1021	0	0	
14	0	0	0	0	1021	1021	0	976	0	0	
15	0	0	0	0	794	1021	0	547	0	0	
0	0	0	0	0	279	1021	0	1	0	0	
1	0	0	0	0	0	1021	0	0	0	0	
2	0	0	0	0	0	1021	0	0	0	0	
3	0	0	0	0	0	1021	0	0	0	0	
4	0	0	0	0	0	1021	0	0	0	0	
5	0	0	0	0	0	1022	0	0	0	0	
6	0	0	0	0	0	1021	0	0	0	0	
7	0	0	0	0	0	1021	0	0	0	0	
8	0	0	0	0	0	1021	0	0	0	0	
9	0	0	0	0	0	1021	0	255	0	0	
10	0	0	0	0	196	1021	0	804	0	0	
11	0	0	0	0	683	1021	0	1020	0	0	
12	0	0	0	0	1020	1021	0	1020	0	0	
13	0	0	0	0	1021	1021	0	1021	0	0	
14	0	0	0	0	1021	1022	0	1020	0	0	
15	0	0	0	0	1021	1021	0	1020	0	0	
0	0	0	0	0	1021	1021	0	1021	0	0	
1	0	0	0	0	1021	1021	0	1021	0	0	
2	0	0	0	0	1012	1021	0	881	0	0	
3	0	0	0	0	660	1021	0	391	0	0	
4	0	0	0	0	105	1022	0	1	0	0	
5	0	0	0	0	0	1021	0	0	0	0	
6	0	0	0	0	0	1021	0	0	0	0	
7	0	0	0	0	0	951	0	0	0	0	
8	0	0	0	0	0	804	0	0	0	0	
9	0	0	0	0	0	696	0	0	0	0	
10	0	0	0	0	0	675	0	0	0	0	
11	0	0	0	0	0	776	0	0	0	0	
12	0	0	0	0	0	1015	0	0	0	0	
13	0	0	0	0	0	1021	0	197	0	0	
14	0	0	0	0	301	1021	0	729	0	0	
15	0	0	0	0	852	1021	0	1020	0	0	
0	0	0	0	0	1020	1021	0	1020	0	0	
1	0	0	0	0	1021	1021	0	1020	0	0	
2	0	0	0	0	1021	1021	0	1020	0	0	
3	0	0	0	0	1021	1022	0	1020	0	0	
4	0	0	0	0	1021	1021	0	1021	0	0	
5	0	0	0	0	1021	1021	0	1021	0	0	
6	0	0	0	0	1021	1021	0	914	0	0	
7	0	0	0	0	831	1021	0	441	0	0	
8	0	0	0	0	346	1021	0	0	0	0	
9	0	0	0	0	0	1021	0	0	0	0	
10	0	0	0	0	0	1021	0	0	0	0	
11	0	0	0	0	0	1021	0	0	0	0	
12	0	0	0	0	0	1021	0	0	0	0	
13	0	0	0	0	0	1021	0	0	0	0	
14	0	0	0	0	0	1021	0	0	0	0	
15	0	0	0	0	0	1021	0	0	0	0	
0	0	0	0	0	0	1021	0	0	0	0	
1	0	0	0	0	0	1021	0	207	0	0	
2	0	0	0	0	291	1021	0	742	0	0	
3	0	0	0	0	830	1021	0	1020	0	0	
4	0	0	0	0	1020	1021	0	1020	0	0	
5	0	0	0	0	1021	1021	0	1020	0	0	
6	0	0	0	0	1021	1021	0	1020	0	0	
7	0	0	0	0	1021	1022	0	1020	0	0	
8	0	0	0	0	1021	1021	0	1021	0	0	
9	0	0	0	0	1021	1021	0	1021	0	0	
10	0	0	0	0	1021	1021	0	938	0	0	
11	0	0	0	0	751	1021	0	484	0	0	
12	0	0	0	0	224	1021	0	0	0	0	
13	0	0	0	0	0	1021	0	0	0	0	
14	0	0	0	0	0	1021	0	0	0	0	
15	0	0	0	0	0	1021	0	0	0	0	
0	0	0	0	0	0	1009	0	0	0	0	
1	0	0	0	0	0	1004	0	0	0	0	
2	0	0	0	0	0	1021	0	0	0	0	
3	0	0	0	0	0	1021	0	0	0	0	
4	0	0	0	0	0	1021	0	0	0	0	
5	0	0	0	0	0	1021	0	243	0	0	
6	0	0	0	0	368	1021	0	805	0	0	
7	0	0	0	0	967	1021	0	1020	0	0	
8	0	0	0	0	1020	1021	0	1020	0	0	
9	0	0	0	0	1021	1021	0	1020	0	0	
10	0	0	0	0	1021	1021	0	1020	0	0	
11	0	0	0	0	1021	1021	0	1021	0	0	
12	0	0	0	0	1021	1021	0	1021	0	0	
13	0	0	0	0	1021	1021	0	1021	0	0	
14	0	0	0	0	1021	1021	0	1006	0	0	
15	0	0	0	0	937	1021	0	598	0	0	
0	0	0	0	0	518	1022	0	1	0	0	
1	0	0	0	0	0	1021	0	0	0	0	
2	0	0	0	0	0	1021	0	0	0	0	
3	0	0	0	0	0	1021	0	0	0	0	
4	0	0	0	0	0	1021	0	0	0	0	
5	0	0	0	0	0	1021	0	0	0	0	
6	0	0	0	0	0	1021	0	0	0	0	
7	0	0	0	0	0	1021	0	0	0	0	
8	0	0	0	0	0	1021	0	0	0	0	
9	0	0	0	0	129	1021	0	306	0	0	
10	0	0	0	0	624	1021	0	891	0	0	
11	0	0	0	0	1020	1021	0	1020	0	0	
12	0	0	0	0	1021	1021	0	1020	0	0	
13	0	0	0	0	1021	1021	0	1021	0	0	
14	0	0	0	0	1021	1021	0	1020	0	0	
15	0	0	0	0	1021	1021	0	1021	0	0	
0	0	0	0	0	1021	1021	0	1021	0	0	
1	0	0	0	0	1021	1021	0	1021	0	0	
2	0	0	0	0	1021	1021	0	1020	0	0	
3	0	0	0	0	1021	1021	0	654	0	0	
4	0	0	0	0	740	1022	0	61	0	0	
5	0	0	0	0	237	1021	0	0	0	0	
6	0	0	0	0	0	1021	0	0	0	0	
7	0	0	0	0	0	1021	0	0	0	0	
8	0	0	0	0	0	1021	0	0	0	0	
9	0	0	0	0	0	1021	0	0	0	0	
10	0	0	0	0	0	1021	0	0	0	0	
11	0	0	0	0	0	1021	0	0	0	0	
12	0	0	0	0	0	1021	0	0	0	0	
13	0	0	0	0	0	1021	0	341	0	0	
14	0	0	0	0	352	1021	0	932	0	0	
15	0	0	0	0	899	1021	0	1020	0	0	
0	0	0	0	0	1021	1021	0	1020	0	0	
1	0	0	0	0	1021	1021	0	1021	0	0	
2	0	0	0	0	1021	1021	0	1021	0	0	
3	0	0	0	0	1021	1021	0	1021	0	0	
4	0	0	0	0	1021	1021	0	1021	0	0	
5	0	0	0	0	1021	1021	0	1021	0	0	
6	0	0	0	0	1021	1021	0	991	0	0	
7	0	0	0	0	757	1021	0	574	0	0	
8	0	0	0	0	248	1021	0	1	0	0	
9	0	0	0	0	0	1021	0	0	0	0	
10	0	0	0	0	0	1021	0	0	0	0	
11	0	0	0	0	0	1021	0	0	0	0	
12	0	0	0	0	0	1021	0	0	0	0	
13	0	0	0	0	0	1021	0	0	0	0	
14	0	0	0	0	0	1021	0	0	0	0	
15	0	0	0	0	0	1021	0	0	0	0	
0	0	0	0	0	0	1021	0	0	0	0	
1	0	0	0	0	0	1021	0	249	0	0	
2	0	0	0	0	336	1021	0	803	0	0	
3	0	0	0	0	899	1021	0	1020	0	0	
4	0	0	0	0	1020	1021	0	1020	0	0	
5	0	0	0	0	1021	1021	0	1021	0	0	
6	0	0	0	0	1021	1021	0	1021	0	0	
7	0	0	0	0	1021	1021	0	1021	0	0	
8	0	0	0	0	1021	1021	0	1021	0	0	
9	0	0	0	0	1021	1021	0	1021	0	0	
10	0	0	0	0	1021	1021	0	952	0	0	
11	0	0	0	0	854	1021	0	505	0	0	
12	0	0	0	0	383	1021	0	0	0	0	
13	0	0	0	0	0	1021	0	0	0	0	
14	0	0	0	0	0	1021	0	0	0	0	
15	0	0	0	0	0	1021	0	0	0	0	
0	0	0	0	0	0	977	0	0	0	0	
1	0	0	0	0	0	911	0	0	0	0	
2	0	0	0	0	0	913	0	0	0	0	
3	0	0	0	0	0	1020	0	0	0	0	
4	0	0	0	0	0	1021	0	0	0	0	
5	0	0	0	0	0	1021	0	254	0	0	
6	0	0	0	0	363	1022	0	824	0	0	
7	0	0	0	0	933	1021	0	1020	0	0	
8	0	0	0	0	1020	1021	0	1020	0	0	
9	0	0	0	0	1021	1021	0	1020	0	0	
10	0	0	0	0	1021	1021	0	1020	0	0	
11	0	0	0	0	1021	1021	0	1021	0	0	
12	0	0	0	0	1021	1021	0	1021	0	0	
13	0	0	0	0	1021	1021	0	1021	0	0	
14	0	0	0	0	1021	1021	0	1008	0	0	
15	0	0	0	0	854	1021	0	601	0	0	
0	0	0	0	0	395	1021	0	1	0	0	
1	0	0	0	0	0	1021	0	0	0	0	
2	0	0	0	0	0	1021	0	0	0	0	
3	0	0	0	0	0	1021	0	0	0	0	
4	0	0	0	0	0	989	0	0	0	0	
5	0	0	0	0	0	956	0	0	0	0	
6	0	0	0	0	0	993	0	0	0	0	
7	0	0	0	0	0	1021	0	0	0	0	
8	0	0	0	0	0	1021	0	0	0	0	
9	0	0	0	0	121	1021	0	263	0	0	
10	0	0	0	0	615	1021	0	832	0	0	
11	0	0	0	0	1020	1021	0	1020	0	0	
12	0	0	0	0	1021	1021	0	1020	0	0	
13	0	0	0	0	1021	1021	0	1020	0	0	
14	0	0	0	0	1021	1021	0	1021	0	0	
15	0	0	0	0	1021	1021	0	1021	0	0	
0	0	0	0	0	1021	1021	0	1021	0	0	
1	0	0	0	0	1021	1021	0	1021	0	0	
2	0	0	0	0	1021	1021	0	995	0	0	
3	0	0	0	0	1021	1021	0	577	0	0	
4	0	0	0	0	759	1022	0	1	0	0	
5	0	0	0	0	260	1021	0	0	0	0	
6	0	0	0	0	0	1021	0	0	0	0	
7	0	0	0	0	0	1021	0	0	0	0	
8	0	0	0	0	0	1021	0	0	0	0	
9	0	0	0	0	0	1022	0	0	0	0	
10	0	0	0	0	0	1021	0	0	0	0	
11	0	0	0	0	0	1021	0	0	0	0	
12	0	0	0	0	0	1021	0	0	0	0	
13	0	0	0	0	124	1021	0	241	0	0	
14	0	0	0	0	603	1022	0	804	0	0	
15	0	0	0	0	1020	1021	0	1020	0	0	
0	0	0	0	0	1021	1021	0	1020	0	0	
1	0	0	0	0	1021	1021	0	1020	0	0	
2	0	0	0	0	1021	1021	0	1020	0	0	
3	0	0	0	0	1021	1021	0	1021	0	0	
4	0	0	0	0	1021	1021	0	1021	0	0	
5	0	0	0	0	1021	1021	0	1021	0	0	
6	0	0	0	0	1021	1021	0	1021	0	0	
7	0	0	0	0	942	1021	0	654	0	0	
8	0	0	0	0	527	1022	0	56	0	0	
9	0	0	0	0	0	1021	0	0	0	0	
10	0	0	0	0	0	1021	0	0	0	0	
11	0	0	0	0	0	1021	0	0	0	0	
12	0	0	0	0	0	1021	0	0	0	0	
13	0	0	0	0	0	1022	0	0	0	0	
14	0	0	0	0	0	1021	0	0	0	0	
15	0	0	0	0	0	1021	0	0	0	0	
0	0	0	0	0	0	1021	0	0	0	0	
1	0	0	0	0	0	1022	0	348	0	0	
2	0	0	0	0	379	1022	0	955	0	0	
3	0	0	0	0	960	1021	0	1020	0	0	
4	0	0	0	0	1021	1021	0	1020	0	0	
5	0	0	0	0	1021	1021	0	1020	0	0	
6	0	0	0	0	1021	1021	0	1020	0	0	
7	0	0	0	0	1021	1022	0	1020	0	0	
8	0	0	0	0	1021	1021	0	1021	0	0	
9	0	0	0	0	1021	1021	0	1021	0	0	
10	0	0	0	0	1021	1021	0	1021	0	0	
11	0	0	0	0	949	1021	0	709	0	0	
12	0	0	0	0	551	1021	0	128	0	0	
13	0	0	0	0	1	1021	0	0	0	0	
14	0	0	0	0	0	1021	0	0	0	0	
15	0	0	0	0	0	1021	0	0	0	0	
0	0	0	0	0	0	1021	0	0	0	0	
1	0	0	0	0	0	1021	0	0	0	0	
2	0	0	0	0	0	1021	0	0	0	0	
3	0	0	0	0	0	1021	0	0	0	0	
4	0	0	0	0	0	1021	0	0	0	0	
5	0	0	0	0	85	1021	0	298	0	0	
6	0	0	0	0	543	1022	0	878	0	0	
7	0	0	0	0	1020	1021	0	1020	0	0	
8	0	0	0	0	1021	1021	0	1021	0	0	
9	0	0	0	0	1021	1021	0	1021	0	0	
10	0	0	0	0	1021	1021	0	1020	0	0	
11	0	0	0	0	1021	1021	0	1021	0	0	
12	0	0	0	0	1021	1021	0	1021	0	0	
13	0	0	0	0	1021	1021	0	1021	0	0	
14	0	0	0	0	1021	1021	0	1021	0	0	
15	0	0	0	0	1021	1021	0	687	0	0	
0	0	0	0	0	684	1021	0	103	0	0	
1	0	0	0	0	159	1021	0	0	0	0	
2	0	0	0	0	0	1021	0	0	0	0	
3	0	0	0	0	0	1021	0	0	0	0	
4	0	0	0	0	0	1021	0	0	0	0	
5	0	0	0	0	0	1021	0	0	0	0	
6	0	0	0	0	0	1021	0	0	0	0	
7	0	0	0	0	0	1021	0	0	0	0	
8	0	0	0	0	0	1021	0	0	0	0	
9	0	0	0	0	137	1021	0	290	0	0	
10	0	0	0	0	626	1021	0	864	0	0	
11	0	0	0	0	1020	1021	0	1020	0	0	
12	0	0	0	0	1021	1021	0	1020	0	0	
13	0	0	0	0	1021	1021	0	1021	0	0	
14	0	0	0	0	1021	1021	0	1021	0	0	
15	0	0	0	0	1021	1021	0	1021	0	0	
0	0	0	0	0	1021	1021	0	1021	0	0	
1	0	0	0	0	1021	1021	0	1021	0	0	
2	0	0	0	0	1021	1021	0	1020	0	0	
3	0	0	0	0	935	1021	0	651	0	0	
4	0	0	0	0	507	1021	0	42	0	0	
5	0	0	0	0	0	1021	0	0	0	0	
6	0	0	0	0	0	1021	0	0	0	0	
7	0	0	0	0	0	1021	0	0	0	0	
8	0	0	0	0	0	1021	0	0	0	0	
9	0	0	0	0	0	1021	0	0	0	0	
10	0	0	0	0	0	1021	0	0	0	0	
11	0	0	0	0	0	1021	0	0	0	0	
12	0	0	0	0	0	1021	0	0	0	0	
13	0	0	0	0	0	1021	0	241	0	0	
14	0	0	0	0	135	1021	0	801	0	0	
15	0	0	0	0	594	1021	0	1020	0	0	
0	0	0	0	0	1020	1021	0	1020	0	0	
1	0	0	0	0	1021	1021	0	1020	0	0	
2	0	0	0	0	1021	1021	0	1021	0	0	
3	0	0	0	0	1021	1021	0	1021	0	0	
4	0	0	0	0	1021	1021	0	1021	0	0	
5	0	0	0	0	1021	1021	0	1021	0	0	
6	0	0	0	0	1021	1021	0	1003	0	0	
7	0	0	0	0	814	1021	0	595	0	0	
8	0	0	0	0	338	1021	0	1	0	0	
9	0	0	0	0	0	1021	0	0	0	0	
10	0	0	0	0	0	1021	0	0	0	0	
11	0	0	0	0	0	1021	0	0	0	0	
12	0	0	0	0	0	1021	0	0	0	0	
13	0	0	0	0	0	1021	0	0	0	0	
14	0	0	0	0	0	1021	0	0	0	0	
15	0	0	0	0	0	1021	0	0	0	0	
0	0	0	0	0	0	1021	0	0	0	0	
1	0	0	0	0	0	1021	0	209	0	0	
2	0	0	0	0	239	1021	0	756	0	0	
3	0	0	0	0	762	1021	0	1020	0	0	
4	0	0	0	0	1020	1021	0	1020	0	0	
5	0	0	0	0	1021	1021	0	1021	0	0	
6	0	0	0	0	1021	1021	0	1020	0	0	
7	0	0	0	0	1021	1021	0	1021	0	0	
8	0	0	0	0	1021	1021	0	1021	0	0	
9	0	0	0	0	1021	1021	0	1021	0	0	
10	0	0	0	0	1021	1021	0	1021	0	0	
11	0	0	0	0	930	1021	0	706	0	0	
12	0	0	0	0	516	1021	0	134	0	0	
13	0	0	0	0	0	1021	0	0	0	0	
14	0	0	0	0	0	1021	0	0	0	0	
15	0	0	0	0	0	1021	0	0	0	0	
0	0	0	0	0	0	1021	0	0	0	0	
1	0	0	0	0	0	1021	0	0	0	0	
2	0	0	0	0	0	1021	0	0	0	0	
3	0	0	0	0	0	1021	0	0	0	0	
4	0	0	0	0	0	1021	0	0	0	0	
5	0	0	0	0	0	1021	0	345	0	0	
6	0	0	0	0	359	1021	0	940	0	0	
7	0	0	0	0	929	1021	0	1020	0	0	
8	0	0	0	0	1020	1021	0	1020	0	0	
9	0	0	0	0	1020	1021	0	1021	0	0	
10	0	0	0	0	1021	1021	0	1020	0	0	
11	0	0	0	0	1021	1021	0	1021	0	0	
12	0	0	0	0	1021	1021	0	1021	0	0	
13	0	0	0	0	1021	1021	0	1021	0	0	
14	0	0	0	0	1021	1021	0	1021	0	0	
15	0	0	0	0	928	1021	0	711	0	0	
0	0	0	0	0	516	1021	0	132	0	0	
1	0	0	0	0	0	1021	0	0	0	0	
2	0	0	0	0	0	1021	0	0	0	0	
3	0	0	0	0	0	1021	0	0	0	0	
4	0	0	0	0	0	1009	0	0	0	0	
5	0	0	0	0	0	958	0	0	0	0	
6	0	0	0	0	0	968	0	0	0	0	
7	0	0	0	0	0	1021	0	0	0	0	
8	0	0	0	0	0	1021	0	0	0	0	
9	0	0	0	0	149	1021	0	246	0	0	
10	0	0	0	0	663	1022	0	794	0	0	
11	0	0	0	0	1020	1021	0	1020	0	0	
12	0	0	0	0	1021	1021	0	1020	0	0	
13	0	0	0	0	1021	1021	0	1020	0	0	
14	0	0	0	0	1021	1022	0	1020	0	0	
15	0	0	0	0	1021	1022	0	1020	0	0	
0	0	0	0	0	1021	1021	0	1021	0	0	
1	0	0	0	0	1021	1021	0	1021	0	0	
2	0	0	0	0	1021	1021	0	999	0	0	
3	0	0	0	0	1021	1021	0	603	0	0	
4	0	0	0	0	876	1022	0	2	0	0	
5	0	0	0	0	442	1021	0	0	0	0	
6	0	0	0	0	0	1021	0	0	0	0	
7	0	0	0	0	0	1021	0	0	0	0	
8	0	0	0	0	0	1021	0	0	0	0	
9	0	0	0	0	0	1022	0	0	0	0	
10	0	0	0	0	0	1021	0	0	0	0	
11	0	0	0	0	0	1021	0	0	0	0	
12	0	0	0	0	0	1021	0	0	0	0	
13	0	0	0	0	83	1021	0	219	0	0	
14	0	0	0	0	525	1021	0	749	0	0	
15	0	0	0	0	1020	1021	0	1020	0	0	
0	0	0	0	0	1021	1021	0	1020	0	0	
1	0	0	0	0	1021	1021	0	1021	0	0	
2	0	0	0	0	1021	1021	0	1020	0	0	
3	0	0	0	0	1021	1022	0	1020	0	0	
4	0	0	0	0	1021	1021	0	1021	0	0	
5	0	0	0	0	1021	1021	0	1021	0	0	
6	0	0	0	0	1021	1021	0	1000	0	0	
7	0	0	0	0	1021	1021	0	609	0	0	
8	0	0	0	0	774	1021	0	9	0	0	
9	0	0	0	0	304	1021	0	0	0	0	
10	0	0	0	0	0	1021	0	0	0	0	
11	0	0	0	0	0	1021	0	0	0	0	
12	0	0	0	0	0	1021	0	0	0	0	
13	0	0	0	0	0	1021	0	0	0	0	
14	0	0	0	0	0	1021	0	0	0	0	
15	0	0	0	0	0	1021	0	0	0	0	
0	0	0	0	0	0	1021	0	0	0	0	
1	0	0	0	0	91	1021	0	210	0	0	
2	0	0	0	0	541	1022	0	750	0	0	
3	0	0	0	0	1020	1021	0	1020	0	0	
4	0	0	0	0	1021	1021	0	1020	0	0	
5	0	0	0	0	1021	1021	0	1021	0	0	
6	0	0	0	0	1021	1021	0	1020	0	0	
7	0	0	0	0	1021	1021	0	1021	0	0	
8	0	0	0	0	1021	1021	0	1021	0	0	
9	0	0	0	0	1021	1021	0	1021	0	0	
10	0	0	0	0	1021	1021	0	1021	0	0	
11	0	0	0	0	1021	1021	0	757	0	0	
12	0	0	0	0	691	1021	0	206	0	0	
13	0	0	0	0	163	1021	0	0	0	0	
14	0	0	0	0	0	1021	0	0	0	0	
15	0	0	0	0	0	1021	0	0	0	0	
0	0	0	0	0	0	1021	0	0	0	0	
1	0	0	0	0	0	1022	0	0	0	0	
2	0	0	0	0	0	1021	0	0	0	0	
3	0	0	0	0	0	1021	0	0	0	0	
4	0	0	0	0	0	1021	0	0	0	0	
5	0	0	0	0	0	1021	0	280	0	0	
6	0	0	0	0	264	1022	0	848	0	0	
7	0	0	0	0	788	1021	0	1020	0	0	
8	0	0	0	0	1020	1021	0	1021	0	0	
9	0	0	0	0	1021	1021	0	1021	0	0	
10	0	0	0	0	1021	1021	0	1021	0	0	
11	0	0	0	0	1021	1021	0	1021	0	0	
12	0	0	0	0	1021	1021	0	1021	0	0	
13	0	0	0	0	1021	1021	0	1021	0	0	
14	0	0	0	0	1021	1021	0	1020	0	0	
15	0	0	0	0	945	1021	0	678	0	0	
0	0	0	0	0	543	1021	0	91	0	0	
1	0	0	0	0	0	1021	0	0	0	0	
2	0	0	0	0	0	1021	0	0	0	0	
3	0	0	0	0	0	1021	0	0	0	0	
4	0	0	0	0	0	1021	0	0	0	0	
5	0	0	0	0	0	1021	0	0	0	0	
6	0	0	0	0	0	1021	0	0	0	0	
7	0	0	0	0	0	1021	0	0	0	0	
8	0	0	0	0	0	1021	0	0	0	0	
9	0	0	0	0	0	1021	0	224	0	0	
10	0	0	0	0	243	1021	0	765	0	0	
11	0	0	0	0	771	1021	0	1020	0	0	
12	0	0	0	0	1020	1021	0	1020	0	0	
13	0	0	0	0	1021	1021	0	1021	0	0	
14	0	0	0	0	1021	1021	0	1020	0	0	
15	0	0	0	0	1021	1022	0	1020	0	0	
0	0	0	0	0	1021	1021	0	1021	0	0	
1	0	0	0	0	1021	1021	0	1021	0	0	
2	0	0	0	0	1021	1021	0	994	0	0	
3	0	0	0	0	1004	1022	0	585	0	0	
4	0	0	0	0	645	1021	0	1	0	0	
5	0	0	0	0	98	1021	0	0	0	0	
6	0	0	0	0	0	1021	0	0	0	0	
7	0	0	0	0	0	1021	0	0	0	0	
8	0	0	0	0	0	1021	0	0	0	0	
9	0	0	0	0	0	1022	0	0	0	0	
10	0	0	0	0	0	1021	0	0	0	0	
11	0	0	0	0	0	1021	0	0	0	0	
12	0	0	0	0	0	1021	0	0	0	0	
13	0	0	0	0	0	1021	0	187	0	0	
14	0	0	0	0	185	1021	0	719	0	0	
15	0	0	0	0	683	1021	0	1020	0	0	
0	0	0	0	0	1020	1021	0	1020	0	0	
1	0	0	0	0	1021	1021	0	1021	0	0	
2	0	0	0	0	1021	1021	0	1021	0	0	
3	0	0	0	0	1021	1021	0	1020	0	0	
4	0	0	0	0	1021	1021	0	1021	0	0	
5	0	0	0	0	1021	1021	0	1021	0	0	
6	0	0	0	0	1021	1021	0	1021	0	0	
7	0	0	0	0	993	1021	0	682	0	0	
8	0	0	0	0	634	1021	0	95	0	0	
9	0	0	0	0	100	1021	0	0	0	0	
10	0	0	0	0	0	1021	0	0	0	0	
11	0	0	0	0	0	1021	0	0	0	0	
12	0	0	0	0	0	1021	0	0	0	0	
13	0	0	0	0	0	1022	0	0	0	0	
14	0	0	0	0	0	1021	0	0	0	0	
15	0	0	0	0	0	1021	0	0	0	0	
0	0	0	0	0	0	1021	0	0	0	0	
1	0	0	0	0	0	1021	0	223	0	0	
2	0	0	0	0	367	1022	0	768	0	0	
3	0	0	0	0	953	1021	0	1020	0	0	
4	0	0	0	0	1020	1021	0	1020	0	0	
5	0	0	0	0	1021	1021	0	1020	0	0	
6	0	0	0	0	1021	1021	0	1021	0	0	
7	0	0	0	0	1021	1021	0	1021	0	0	
8	0	0	0	0	1021	1021	0	1021	0	0	
9	0	0	0	0	1021	1021	0	1021	0	0	
10	0	0	0	0	1021	1021	0	1021	0	0	
11	0	0	0	0	1021	1021	0	728	0	0	
12	0	0	0	0	775	1022	0	169	0	0	
13	0	0	0	0	282	1021	0	0	0	0	
14	0	0	0	0	0	1021	0	0	0	0	
15	0	0	0	0	0	1021	0	0	0	0	
0	0	0	0	0	0	1021	0	0	0	0	
1	0	0	0	0	0	1022	0	0	0	0	
2	0	0	0	0	0	1021	0	0	0	0	
3	0	0	0	0	0	1021	0	0	0	0	
4	0	0	0	0	0	1021	0	0	0	0	
5	0	0	0	0	0	1021	0	313	0	0	
6	0	0	0	0	139	1021	0	911	0	0	
7	0	0	0	0	597	1021	0	1020	0	0	
8	0	0	0	0	1020	1021	0	1021	0	0	
9	0	0	0	0	1021	1021	0	1021	0	0	
10	0	0	0	0	1020	1022	0	1020	0	0	
11	0	0	0	0	1021	1022	0	1020	0	0	
12	0	0	0	0	1021	1021	0	1021	0	0	
13	0	0	0	0	1021	1021	0	1021	0	0	
14	0	0	0	0	1021	1021	0	1021	0	0	
15	0	0	0	0	905	1021	0	832	0	0	
0	0	0	0	0	480	1021	0	306	0	0	
1	0	0	0	0	0	1021	0	0	0	0	
2	0	0	0	0	0	1021	0	0	0	0	
3	0	0	0	0	0	1021	0	0	0	0	
4	0	0	0	0	0	1021	0	0	0	0	
5	0	0	0	0	0	1022	0	0	0	0	
6	0	0	0	0	0	1021	0	0	0	0	
7	0	0	0	0	0	1021	0	0	0	0	
8	0	0	0	0	0	1021	0	0	0	0	
9	0	0	0	0	0	1021	0	252	0	0	
10	0	0	0	0	72	1022	0	817	0	0	
11	0	0	0	0	503	1021	0	1020	0	0	
12	0	0	0	0	1020	1021	0	1020	0	0	
13	0	0	0	0	1021	1021	0	1020	0	0	
14	0	0	0	0	1021	1021	0	1020	0	0	
15	0	0	0	0	1021	1021	0	1021	0	0	
0	0	0	0	0	1021	1021	0	1021	0	0	
1	0	0	0	0	1021	1021	0	1021	0	0	
2	0	0	0	0	1021	1021	0	1021	0	0	
3	0	0	0	0	1002	1021	0	738	0	0	
4	0	0	0	0	657	1022	0	168	0	0	
5	0	0	0	0	139	1021	0	0	0	0	
6	0	0	0	0	0	1021	0	0	0	0	
7	0	0	0	0	0	1021	0	0	0	0	
8	0	0	0	0	0	1021	0	0	0	0	
9	0	0	0	0	0	1022	0	0	0	0	
10	0	0	0	0	0	1021	0	0	0	0	
11	0	0	0	0	0	1021	0	0	0	0	
12	0	0	0	0	0	1021	0	0	0	0	
13	0	0	0	0	48	1021	0	226	0	0	
14	0	0	0	0	488	1022	0	766	0	0	
15	0	0	0	0	1020	1021	0	1020	0	0	
0	0	0	0	0	1021	1021	0	1020	0	0	
1	0	0	0	0	1021	1021	0	1021	0	0	
2	0	0	0	0	1021	1021	0	1021	0	0	
3	0	0	0	0	1021	1021	0	1021	0	0	
4	0	0	0	0	1021	1021	0	1021	0	0	
5	0	0	0	0	1021	1021	0	1021	0	0	
6	0	0	0	0	1021	1021	0	972	0	0	
7	0	0	0	0	1021	1021	0	544	0	0	
8	0	0	0	0	908	1022	0	1	0	0	
9	0	0	0	0	483	1021	0	0	0	0	
10	0	0	0	0	0	1021	0	0	0	0	
11	0	0	0	0	0	1021	0	0	0	0	
12	0	0	0	0	0	1021	0	0	0	0	
13	0	0	0	0	0	1022	0	0	0	0	
14	0	0	0	0	0	1021	0	0	0	0	
15	0	0	0	0	0	1021	0	0	0	0	
0	0	0	0	0	0	1021	0	0	0	0	
1	0	0	0	0	0	1021	0	128	0	0	
2	0	0	0	0	352	1022	0	624	0	0	
3	0	0	0	0	932	1021	0	1020	0	0	
4	0	0	0	0	1020	1021	0	1020	0	0	
5	0	0	0	0	1021	1021	0	1020	0	0	
6	0	0	0	0	1021	1021	0	1020	0	0	
7	0	0	0	0	1021	1021	0	1021	0	0	
8	0	0	0	0	1021	1021	0	1021	0	0	
9	0	0	0	0	1021	1021	0	1021	0	0	
10	0	0	0	0	1021	1021	0	1020	0	0	
11	0	0	0	0	1021	1021	0	656	0	0	
12	0	0	0	0	892	1021	0	73	0	0	
13	0	0	0	0	474	1021	0	0	0	0	
14	0	0	0	0	0	1021	0	0	0	0	
15	0	0	0	0	0	1021	0	0	0	0	
0	0	0	0	0	0	1021	0	0	0	0	
1	0	0	0	0	0	1022	0	0	0	0	
2	0	0	0	0	0	1021	0	0	0	0	
3	0	0	0	0	0	1021	0	0	0	0	
4	0	0	0	0	0	1021	0	0	0	0	
5	0	0	0	0	0	1021	0	286	0	0	
6	0	0	0	0	326	1022	0	859	0	0	
7	0	0	0	0	879	1021	0	1020	0	0	
8	0	0	0	0	1020	1021	0	1021	0	0	
9	0	0	0	0	1021	1021	0	1020	0	0	
10	0	0	0	0	1021	1021	0	1020	0	0	
11	0	0	0	0	1021	1022	0	1020	0	0	
12	0	0	0	0	1021	1021	0	1021	0	0	
13	0	0	0	0	1021	1021	0	1021	0	0	
14	0	0	0	0	1021	1021	0	1021	0	0	
15	0	0	0	0	1021	1021	0	729	0	0	
0	0	0	0	0	782	1021	0	160	0	0	
1	0	0	0	0	306	1021	0	0	0	0	
2	0	0	0	0	0	1021	0	0	0	0	
3	0	0	0	0	0	1021	0	0	0	0	
4	0	0	0	0	0	1021	0	0	0	0	
5	0	0	0	0	0	1022	0	0	0	0	
6	0	0	0	0	0	1021	0	0	0	0	
7	0	0	0	0	0	1021	0	0	0	0	
8	0	0	0	0	0	1021	0	0	0	0	
9	0	0	0	0	0	1021	0	228	0	0	
10	0	0	0	0	175	1021	0	780	0	0	
11	0	0	0	0	646	1021	0	1020	0	0	
12	0	0	0	0	1020	1021	0	1020	0	0	
13	0	0	0	0	1021	1021	0	1021	0	0	
14	0	0	0	0	1021	1022	0	1020	0	0	
15	0	0	0	0	1021	1022	0	1020	0	0	
0	0	0	0	0	1021	1021	0	1021	0	0	
1	0	0	0	0	1021	1021	0	1021	0	0	
2	0	0	0	0	1021	1021	0	1021	0	0	
3	0	0	0	0	934	1021	0	775	0	0	
4	0	0	0	0	534	1022	0	228	0	0	
5	0	0	0	0	0	1021	0	0	0	0	
6	0	0	0	0	0	1021	0	0	0	0	
7	0	0	0	0	0	1021	0	0	0	0	
8	0	0	0	0	0	1021	0	0	0	0	
9	0	0	0	0	0	1021	0	0	0	0	
10	0	0	0	0	0	1021	0	0	0	0	
11	0	0	0	0	0	1021	0	0	0	0	
12	0	0	0	0	0	1021	0	0	0	0	
13	0	0	0	0	0	1021	0	184	0	0	
14	0	0	0	0	94	1021	0	705	0	0	
15	0	0	0	0	529	1021	0	1020	0	0	
0	0	0	0	0	1020	1021	0	1020	0	0	
1	0	0	0	0	1020	1021	0	1020	0	0	
2	0	0	0	0	1021	1021	0	1020	0	0	
3	0	0	0	0	1021	1021	0	1021	0	0	
4	0	0	0	0	1021	1021	0	1021	0	0	
5	0	0	0	0	1021	1021	0	1021	0	0	
6	0	0	0	0	1021	1021	0	1021	0	0	
7	0	0	0	0	973	1021	0	718	0	0	
8	0	0	0	0	620	1022	0	156	0	0	
9	0	0	0	0	110	1021	0	0	0	0	
10	0	0	0	0	0	1021	0	0	0	0	
11	0	0	0	0	0	1021	0	0	0	0	
12	0	0	0	0	0	1021	0	0	0	0	
13	0	0	0	0	0	1022	0	0	0	0	
14	0	0	0	0	0	1021	0	0	0	0	
15	0	0	0	0	0	1021	0	0	0	0	
0	0	0	0	0	0	1021	0	0	0	0	
1	0	0	0	0	47	1021	0	223	0	0	
2	0	0	0	0	455	1021	0	768	0	0	
3	0	0	0	0	1020	1021	0	1020	0	0	
4	0	0	0	0	1021	1021	0	1020	0	0	
5	0	0	0	0	1021	1021	0	1021	0	0	
6	0	0	0	0	1021	1021	0	1021	0	0	
7	0	0	0	0	1021	1021	0	1021	0	0	
8	0	0	0	0	1021	1021	0	1021	0	0	
9	0	0	0	0	1021	1021	0	1021	0	0	
10	0	0	0	0	1021	1021	0	1021	0	0	
11	0	0	0	0	1021	1021	0	863	0	0	
12	0	0	0	0	795	1021	0	375	0	0	
13	0	0	0	0	337	1021	0	0	0	0	
14	0	0	0	0	0	1021	0	0	0	0	
15	0	0	0	0	0	1021	0	0	0	0	
0	0	0	0	0	0	1021	0	0	0	0	
1	0	0	0	0	0	1021	0	0	0	0	
2	0	0	0	0	0	1021	0	0	0	0	
3	0	0	0	0	0	1021	0	0	0	0	
4	0	0	0	0	0	1021	0	0	0	0	
5	0	0	0	0	0	1021	0	237	0	0	
6	0	0	0	0	205	1021	0	769	0	0	
7	0	0	0	0	698	1021	0	1020	0	0	
8	0	0	0	0	1020	1021	0	1021	0	0	
9	0	0	0	0	1021	1021	0	1021	0	0	
10	0	0	0	0	1021	1021	0	1021	0	0	
11	0	0	0	0	1021	1021	0	1021	0	0	
12	0	0	0	0	1021	1021	0	1021	0	0	
13	0	0	0	0	1021	1021	0	1021	0	0	
14	0	0	0	0	1021	1021	0	1021	0	0	
15	0	0	0	0	1021	1021	0	693	0	0	
0	0	0	0	0	813	1022	0	131	0	0	
1	0	0	0	0	381	1021	0	0	0	0	
2	0	0	0	0	0	1021	0	0	0	0	
3	0	0	0	0	0	1021	0	0	0	0	
4	0	0	0	0	0	1021	0	0	0	0	
5	0	0	0	0	0	1021	0	0	0	0	
6	0	0	0	0	0	1021	0	0	0	0	
7	0	0	0	0	0	1021	0	0	0	0	
8	0	0	0	0	0	1021	0	0	0	0	
9	0	0	0	0	0	1021	0	215	0	0	
10	0	0	0	0	287	1021	0	738	0	0	
11	0	0	0	0	798	1021	0	1020	0	0	
12	0	0	0	0	1020	1021	0	1020	0	0	
13	0	0	0	0	1021	1021	0	1020	0	0	
14	0	0	0	0	1021	1021	0	1021	0	0	
15	0	0	0	0	1021	1021	0	1020	0	0	
0	0	0	0	0	1021	1021	0	1021	0	0	
1	0	0	0	0	1021	1021	0	1021	0	0	
2	0	0	0	0	1021	1021	0	1021	0	0	
3	0	0	0	0	1021	1021	0	726	0	0	
4	0	0	0	0	743	1022	0	178	0	0	
5	0	0	0	0	285	1021	0	0	0	0	
6	0	0	0	0	0	1021	0	0	0	0	
7	0	0	0	0	0	1021	0	0	0	0	
8	0	0	0	0	0	1022	0	0	0	0	
9	0	0	0	0	0	1022	0	0	0	0	
10	0	0	0	0	0	1021	0	0	0	0	
11	0	0	0	0	0	1021	0	0	0	0	
12	0	0	0	0	0	1021	0	0	0	0	
13	0	0	0	0	78	1022	0	203	0	0	
14	0	0	0	0	501	1022	0	719	0	0	
15	0	0	0	0	1020	1021	0	1020	0	0	
0	0	0	0	0	1021	1021	0	1020	0	0	
1	0	0	0	0	1021	1021	0	1021	0	0	
2	0	0	0	0	1021	1021	0	1020	0	0	
3	0	0	0	0	1021	1021	0	1020	0	0	
4	0	0	0	0	1021	1021	0	1021	0	0	
5	0	0	0	0	1021	1021	0	1021	0	0	
6	0	0	0	0	1021	1021	0	1021	0	0	
7	0	0	0	0	1021	1021	0	683	0	0	
8	0	0	0	0	884	1022	0	113	0	0	
9	0	0	0	0	481	1021	0	0	0	0	
10	0	0	0	0	0	1021	0	0	0	0	
11	0	0	0	0	0	1021	0	0	0	0	
12	0	0	0	0	0	1021	0	0	0	0	
13	0	0	0	0	0	1022	0	0	0	0	
14	0	0	0	0	0	1021	0	0	0	0	
15	0	0	0	0	0	1021	0	0	0	0	
0	0	0	0	0	0	1021	0	0	0	0	
1	0	0	0	0	99	1021	0	132	0	0	
2	0	0	0	0	545	1021	0	620	0	0	
3	0	0	0	0	1020	1021	0	1020	0	0	
4	0	0	0	0	1021	1021	0	1020	0	0	
5	0	0	0	0	1021	1021	0	1020	0	0	
6	0	0	0	0	1021	1022	0	1020	0	0	
7	0	0	0	0	1021	1021	0	1020	0	0	
8	0	0	0	0	1021	1021	0	1021	0	0	
9	0	0	0	0	1021	1021	0	1021	0	0	
10	0	0	0	0	1021	1021	0	1021	0	0	
11	0	0	0	0	1021	1021	0	822	0	0	
12	0	0	0	0	993	1022	0	324	0	0	
13	0	0	0	0	652	1021	0	0	0	0	
14	0	0	0	0	161	1021	0	0	0	0	
15	0	0	0	0	0	1021	0	0	0	0	
0	0	0	0	0	0	1021	0	0	0	0	
1	0	0	0	0	0	1021	0	0	0	0	
2	0	0	0	0	0	1021	0	0	0	0	
3	0	0	0	0	0	1021	0	0	0	0	
4	0	0	0	0	0	1021	0	0	0	0	
5	0	0	0	0	0	1021	0	252	0	0	
6	0	0	0	0	173	1021	0	792	0	0	
7	0	0	0	0	611	1021	0	1020	0	0	
8	0	0	0	0	1020	1021	0	1021	0	0	
9	0	0	0	0	1021	1021	0	1021	0	0	
10	0	0	0	0	1021	1021	0	1021	0	0	
11	0	0	0	0	1021	1021	0	1021	0	0	
12	0	0	0	0	1021	1021	0	1021	0	0	
13	0	0	0	0	1021	1021	0	1021	0	0	
14	0	0	0	0	1021	1021	0	1021	0	0	
15	0	0	0	0	860	1021	0	768	0	0	
0	0	0	0	0	440	1021	0	237	0	0	
1	0	0	0	0	0	1021	0	0	0	0	
2	0	0	0	0	0	1021	0	0	0	0	
3	0	0	0	0	0	1021	0	0	0	0	
4	0	0	0	0	0	1021	0	0	0	0	
5	0	0	0	0	0	1021	0	0	0	0	
6	0	0	0	0	0	1021	0	0	0	0	
7	0	0	0	0	0	1021	0	0	0	0	
8	0	0	0	0	0	1021	0	0	0	0	
9	0	0	0	0	0	1021	0	238	0	0	
10	0	0	0	0	254	1021	0	777	0	0	
11	0	0	0	0	769	1021	0	1020	0	0	
12	0	0	0	0	1020	1021	0	1020	0	0	
13	0	0	0	0	1021	1021	0	1021	0	0	
14	0	0	0	0	1021	1021	0	1021	0	0	
15	0	0	0	0	1021	1021	0	1021	0	0	
0	0	0	0	0	1021	1021	0	1021	0	0	
1	0	0	0	0	1021	1021	0	1021	0	0	
2	0	0	0	0	1021	1021	0	1021	0	0	
3	0	0	0	0	1021	1021	0	764	0	0	
4	0	0	0	0	785	1021	0	222	0	0	
5	0	0	0	0	331	1021	0	0	0	0	
6	0	0	0	0	0	1021	0	0	0	0	
7	0	0	0	0	0	1021	0	0	0	0	
8	0	0	0	0	0	1021	0	0	0	0	
9	0	0	0	0	0	1021	0	0	0	0	
10	0	0	0	0	0	1021	0	0	0	0	
11	0	0	0	0	0	1021	0	0	0	0	
12	0	0	0	0	0	1021	0	0	0	0	
13	0	0	0	0	0	1021	0	179	0	0	
14	0	0	0	0	153	1021	0	694	0	0	
15	0	0	0	0	606	1021	0	1020	0	0	
0	0	0	0	0	1020	1021	0	1020	0	0	
1	0	0	0	0	1021	1021	0	1021	0	0	
2	0	0	0	0	1021	1021	0	1021	0	0	
3	0	0	0	0	1021	1021	0	1021	0	0	
4	0	0	0	0	1021	1021	0	1021	0	0	
5	0	0	0	0	1021	1021	0	1021	0	0	
6	0	0	0	0	1021	1021	0	1021	0	0	
7	0	0	0	0	1021	1021	0	786	0	0	
8	0	0	0	0	726	1021	0	263	0	0	
9	0	0	0	0	252	1021	0	0	0	0	
10	0	0	0	0	0	1021	0	0	0	0	
11	0	0	0	0	0	1021	0	0	0	0	
12	0	0	0	0	0	1021	0	0	0	0	
13	0	0	0	0	0	1021	0	0	0	0	
14	0	0	0	0	0	1021	0	0	0	0	
15	0	0	0	0	0	1021	0	0	0	0	
0	0	0	0	0	0	1021	0	0	0	0	
1	0	0	0	0	0	1021	0	182	0	0	
2	0	0	0	0	193	1021	0	679	0	0	
3	0	0	0	0	670	1021	0	1020	0	0	
4	0	0	0	0	1020	1021	0	1020	0	0	
5	0	0	0	0	1021	1021	0	1021	0	0	
6	0	0	0	0	1021	1021	0	1021	0	0	
7	0	0	0	0	1021	1021	0	1021	0	0	
8	0	0	0	0	1021	1021	0	1021	0	0	
9	0	0	0	0	1021	1021	0	1021	0	0	
10	0	0	0	0	1021	1021	0	1021	0	0	
11	0	0	0	0	1021	1021	0	684	0	0	
12	0	0	0	0	876	1021	0	129	0	0	
13	0	0	0	0	491	1021	0	0	0	0	
14	0	0	0	0	0	1021	0	0	0	0	
15	0	0	0	0	0	1021	0	0	0	0	
0	0	0	0	0	0	1021	0	0	0	0	
1	0	0	0	0	0	1021	0	0	0	0	
2	0	0	0	0	0	1021	0	0	0	0	
3	0	0	0	0	0	1021	0	0	0	0	
4	0	0	0	0	0	1021	0	0	0	0	
5	0	0	0	0	84	1021	0	206	0	0	
6	0	0	0	0	498	1021	0	714	0	0	
7	0	0	0	0	1020	1021	0	1020	0	0	
8	0	0	0	0	1021	1021	0	1020	0	0	
9	0	0	0	0	1021	1021	0	1020	0	0	
10	0	0	0	0	1021	1021	0	1021	0	0	
11	0	0	0	0	1021	1022	0	1020	0	0	
12	0	0	0	0	1021	1021	0	1021	0	0	
13	0	0	0	0	1021	1021	0	1021	0	0	
14	0	0	0	0	1021	1021	0	1010	0	0	
15	0	0	0	0	1021	1021	0	637	0	0	
0	0	0	0	0	928	1021	0	56	0	0	
1	0	0	0	0	551	1021	0	0	0	0	
2	0	0	0	0	44	1021	0	0	0	0	
3	0	0	0	0	0	1021	0	0	0	0	
4	0	0	0	0	0	1021	0	0	0	0	
5	0	0	0	0	0	1022	0	0	0	0	
6	0	0	0	0	0	1021	0	0	0	0	
7	0	0	0	0	0	1021	0	0	0	0	
8	0	0	0	0	0	1021	0	0	0	0	
9	0	0	0	0	0	1021	0	131	0	0	
10	0	0	0	0	335	1021	0	615	0	0	
11	0	0	0	0	865	1021	0	1020	0	0	
12	0	0	0	0	1020	1021	0	1020	0	0	
13	0	0	0	0	1021	1021	0	1020	0	0	
14	0	0	0	0	1021	1021	0	1021	0	0	
15	0	0	0	0	1021	1021	0	1021	0	0	
0	0	0	0	0	1021	1021	0	1021	0	0	
1	0	0	0	0	1021	1021	0	1021	0	0	
2	0	0	0	0	1021	1021	0	1021	0	0	
3	0	0	0	0	1021	1021	0	718	0	0	
4	0	0	0	0	744	1022	0	159	0	0	
5	0	0	0	0	271	1021	0	0	0	0	
6	0	0	0	0	0	1021	0	0	0	0	
7	0	0	0	0	0	1021	0	0	0	0	
8	0	0	0	0	0	1021	0	0	0	0	
9	0	0	0	0	0	1021	0	0	0	0	
10	0	0	0	0	0	1021	0	0	0	0	
11	0	0	0	0	0	1021	0	0	0	0	
12	0	0	0	0	0	1021	0	0	0	0	
13	0	0	0	0	0	1021	0	147	0	0	
14	0	0	0	0	117	1021	0	645	0	0	
15	0	0	0	0	537	1021	0	1020	0	0	
0	0	0	0	0	1020	1021	0	1020	0	0	
1	0	0	0	0	1021	1021	0	1021	0	0	
2	0	0	0	0	1021	1021	0	1021	0	0	
3	0	0	0	0	1021	1022	0	1020	0	0	
4	0	0	0	0	1021	1021	0	1021	0	0	
5	0	0	0	0	1021	1021	0	1021	0	0	
6	0	0	0	0	1021	1021	0	1021	0	0	
7	0	0	0	0	920	1021	0	684	0	0	
8	0	0	0	0	535	1021	0	106	0	0	
9	0	0	0	0	0	1021	0	0	0	0	
10	0	0	0	0	0	1021	0	0	0	0	
11	0	0	0	0	0	1021	0	0	0	0	
12	0	0	0	0	0	1021	0	0	0	0	
13	0	0	0	0	0	1022	0	0	0	0	
14	0	0	0	0	0	1021	0	0	0	0	
15	0	0	0	0	0	1021	0	0	0	0	
0	0	0	0	0	0	1021	0	0	0	0	
1	0	0	0	0	0	1021	0	105	0	0	
2	0	0	0	0	39	1021	0	570	0	0	
3	0	0	0	0	414	1021	0	1020	0	0	
4	0	0	0	0	931	1021	0	1020	0	0	
5	0	0	0	0	1020	1021	0	1021	0	0	
6	0	0	0	0	1021	1022	0	1020	0	0	
7	0	0	0	0	1021	1021	0	1020	0	0	
8	0	0	0	0	1021	1021	0	1021	0	0	
9	0	0	0	0	1021	1021	0	1021	0	0	
10	0	0	0	0	1021	1021	0	1001	0	0	
11	0	0	0	0	988	1021	0	616	0	0	
12	0	0	0	0	664	1022	0	20	0	0	
13	0	0	0	0	181	1021	0	0	0	0	
14	0	0	0	0	0	1021	0	0	0	0	
15	0	0	0	0	0	1021	0	0	0	0	
0	0	0	0	0	0	1021	0	0	0	0	
1	0	0	0	0	0	1021	0	0	0	0	
2	0	0	0	0	0	1021	0	0	0	0	
3	0	0	0	0	0	1021	0	0	0	0	
4	0	0	0	0	0	1021	0	0	0	0	
5	0	0	0	0	0	1021	0	104	0	0	
6	0	0	0	0	174	1021	0	577	0	0	
7	0	0	0	0	628	1021	0	1020	0	0	
8	0	0	0	0	1020	1021	0	1020	0	0	
9	0	0	0	0	1021	1021	0	1020	0	0	
10	0	0	0	0	1021	1021	0	1021	0	0	
11	0	0	0	0	1021	1022	0	1020	0	0	
12	0	0	0	0	1021	1021	0	1021	0	0	
13	0	0	0	0	1021	1021	0	1021	0	0	
14	0	0	0	0	1021	1021	0	1021	0	0	
15	0	0	0	0	1021	1021	0	727	0	0	
0	0	0	0	0	741	1021	0	179	0	0	
1	0	0	0	0	287	1021	0	0	0	0	
2	0	0	0	0	0	1021	0	0	0	0	
3	0	0	0	0	0	1021	0	0	0	0	
4	0	0	0	0	0	1021	0	0	0	0	
5	0	0	0	0	0	1022	0	0	0	0	
6	0	0	0	0	0	1021	0	0	0	0	
7	0	0	0	0	0	1021	0	0	0	0	
8	0	0	0	0	0	1021	0	0	0	0	
9	0	0	0	0	0	1021	0	204	0	0	
10	0	0	0	0	150	1021	0	728	0	0	
11	0	0	0	0	580	1021	0	1020	0	0	
12	0	0	0	0	1020	1021	0	1020	0	0	
13	0	0	0	0	1021	1021	0	1021	0	0	
14	0	0	0	0	1020	1021	0	1021	0	0	
15	0	0	0	0	1021	1021	0	1020	0	0	
0	0	0	0	0	1021	1021	0	1021	0	0	
1	0	0	0	0	1021	1021	0	1021	0	0	
2	0	0	0	0	1021	1021	0	1021	0	0	
3	0	0	0	0	1006	1022	0	790	0	0	
4	0	0	0	0	699	1021	0	267	0	0	
5	0	0	0	0	227	1021	0	0	0	0	
6	0	0	0	0	0	1021	0	0	0	0	
7	0	0	0	0	0	1021	0	0	0	0	
8	0	0	0	0	0	1021	0	0	0	0	
9	0	0	0	0	0	1022	0	0	0	0	
10	0	0	0	0	0	1021	0	0	0	0	
11	0	0	0	0	0	1021	0	0	0	0	
12	0	0	0	0	0	1021	0	0	0	0	
13	0	0	0	0	0	1021	0	183	0	0	
14	0	0	0	0	155	1021	0	692	0	0	
15	0	0	0	0	604	1021	0	1020	0	0	
0	0	0	0	0	1020	1021	0	1020	0	0	
1	0	0	0	0	1021	1021	0	1020	0	0	
2	0	0	0	0	1021	1021	0	1021	0	0	
3	0	0	0	0	1021	1022	0	1020	0	0	
4	0	0	0	0	1021	1021	0	1021	0	0	
5	0	0	0	0	1021	1021	0	1021	0	0	
6	0	0	0	0	1021	1021	0	1021	0	0	
7	0	0	0	0	1021	1021	0	752	0	0	
8	0	0	0	0	804	1021	0	215	0	0	
9	0	0	0	0	382	1021	0	0	0	0	
10	0	0	0	0	0	1021	0	0	0	0	
11	0	0	0	0	0	1021	0	0	0	0	
12	0	0	0	0	0	1021	0	0	0	0	
13	0	0	0	0	0	1021	0	0	0	0	
14	0	0	0	0	0	1021	0	0	0	0	
15	0	0	0	0	0	1021	0	0	0	0	
0	0	0	0	0	0	1021	0	0	0	0	
1	0	0	0	0	0	1021	0	178	0	0	
2	0	0	0	0	336	1021	0	687	0	0	
3	0	0	0	0	857	1021	0	1020	0	0	
4	0	0	0	0	1020	1021	0	1020	0	0	
5	0	0	0	0	1021	1021	0	1020	0	0	
6	0	0	0	0	1021	1021	0	1020	0	0	
7	0	0	0	0	1021	1021	0	1021	0	0	
8	0	0	0	0	1021	1021	0	1021	0	0	
9	0	0	0	0	1021	1021	0	1021	0	0	
10	0	0	0	0	1021	1021	0	1021	0	0	
11	0	0	0	0	1021	1021	0	760	0	0	
12	0	0	0	0	780	1022	0	219	0	0	
13	0	0	0	0	342	1021	0	0	0	0	
14	0	0	0	0	0	1021	0	0	0	0	
15	0	0	0	0	0	1021	0	0	0	0	
0	0	0	0	0	0	1021	0	0	0	0	
1	0	0	0	0	0	1022	0	0	0	0	
2	0	0	0	0	0	1021	0	0	0	0	
3	0	0	0	0	0	1021	0	0	0	0	
4	0	0	0	0	0	1021	0	0	0	0	
5	0	0	0	0	0	1021	0	141	0	0	
6	0	0	0	0	255	1022	0	641	0	0	
7	0	0	0	0	766	1021	0	1020	0	0	
8	0	0	0	0	1020	1021	0	1020	0	0	
9	0	0	0	0	1021	1021	0	1020	0	0	
10	0	0	0	0	1020	1021	0	1020	0	0	
11	0	0	0	0	1021	1021	0	1020	0	0	
12	0	0	0	0	1021	1021	0	1021	0	0	
13	0	0	0	0	1021	1021	0	1021	0	0	
14	0	0	0	0	1021	1021	0	1021	0	0	
15	0	0	0	0	1021	1021	0	841	0	0	
0	0	0	0	0	988	1021	0	339	0	0	
1	0	0	0	0	671	1021	0	0	0	0	
2	0	0	0	0	225	1021	0	0	0	0	
3	0	0	0	0	0	1021	0	0	0	0	
4	0	0	0	0	0	1021	0	0	0	0	
5	0	0	0	0	0	1022	0	0	0	0	
6	0	0	0	0	0	1021	0	0	0	0	
7	0	0	0	0	0	1021	0	0	0	0	
8	0	0	0	0	0	1021	0	0	0	0	
9	0	0	0	0	87	1021	0	169	0	0	
10	0	0	0	0	498	1021	0	675	0	0	
11	0	0	0	0	1020	1021	0	1020	0	0	
12	0	0	0	0	1021	1021	0	1020	0	0	
13	0	0	0	0	1021	1021	0	1021	0	0	
14	0	0	0	0	1021	1022	0	1020	0	0	
15	0	0	0	0	1021	1021	0	1021	0	0	
0	0	0	0	0	1021	1021	0	1021	0	0	
1	0	0	0	0	1021	1021	0	1021	0	0	
2	0	0	0	0	1021	1021	0	1021	0	0	
3	0	0	0	0	1021	1021	0	847	0	0	
4	0	0	0	0	979	1021	0	358	0	0	
5	0	0	0	0	657	1021	0	0	0	0	
6	0	0	0	0	211	1021	0	0	0	0	
7	0	0	0	0	0	1021	0	0	0	0	
8	0	0	0	0	0	1021	0	0	0	0	
9	0	0	0	0	0	1021	0	0	0	0	
10	0	0	0	0	0	1021	0	0	0	0	
11	0	0	0	0	0	1021	0	0	0	0	
12	0	0	0	0	0	1021	0	0	0	0	
13	0	0	0	0	189	1021	0	212	0	0	
14	0	0	0	0	664	1021	0	731	0	0	
15	0	0	0	0	1020	1021	0	1020	0	0	
0	0	0	0	0	1021	1021	0	1020	0	0	
1	0	0	0	0	1021	1021	0	1021	0	0	
2	0	0	0	0	1021	1021	0	1021	0	0	
3	0	0	0	0	1021	1021	0	1021	0	0	
4	0	0	0	0	1021	1021	0	1021	0	0	
5	0	0	0	0	1021	1021	0	1021	0	0	
6	0	0	0	0	1021	1021	0	1021	0	0	
7	0	0	0	0	1021	1021	0	747	0	0	
8	0	0	0	0	977	1021	0	202	0	0	
9	0	0	0	0	640	1021	0	0	0	0	
10	0	0	0	0	172	1021	0	0	0	0	
11	0	0	0	0	0	1021	0	0	0	0	
12	0	0	0	0	0	1021	0	0	0	0	
13	0	0	0	0	0	1021	0	0	0	0	
14	0	0	0	0	0	1021	0	0	0	0	
15	0	0	0	0	0	1021	0	0	0	0	
0	0	0	0	0	0	1021	0	0	0	0	
1	0	0	0	0	20	1021	0	111	0	0	
2	0	0	0	0	380	1021	0	591	0	0	
3	0	0	0	0	926	1021	0	1020	0	0	
4	0	0	0	0	1020	1021	0	1020	0	0	
5	0	0	0	0	1021	1021	0	1021	0	0	
6	0	0	0	0	1021	1021	0	1021	0	0	
7	0	0	0	0	1021	1021	0	1021	0	0	
8	0	0	0	0	1021	1021	0	1021	0	0	
9	0	0	0	0	1021	1021	0	1021	0	0	
10	0	0	0	0	1021	1021	0	1021	0	0	
11	0	0	0	0	1021	1021	0	817	0	0	
12	0	0	0	0	916	1021	0	302	0	0	
13	0	0	0	0	550	1021	0	0	0	0	
14	0	0	0	0	66	1021	0	0	0	0	
15	0	0	0	0	0	1021	0	0	0	0	
0	0	0	0	0	0	1021	0	0	0	0	
1	0	0	0	0	0	1021	0	0	0	0	
2	0	0	0	0	0	1021	0	0	0	0	
3	0	0	0	0	0	1021	0	0	0	0	
4	0	0	0	0	0	1021	0	0	0	0	
5	0	0	0	0	167	1021	0	109	0	0	
6	0	0	0	0	642	1021	0	582	0	0	
7	0	0	0	0	1020	1021	0	1020	0	0	
8	0	0	0	0	1021	1021	0	1020	0	0	
9	0	0	0	0	1021	1021	0	1020	0	0	
10	0	0	0	0	1021	1021	0	1021	0	0	
11	0	0	0	0	1021	1021	0	1021	0	0	
12	0	0	0	0	1021	1021	0	1021	0	0	
13	0	0	0	0	1021	1021	0	1021	0	0	
14	0	0	0	0	1021	1021	0	1021	0	0	
15	0	0	0	0	1021	1021	0	864	0	0	
0	0	0	0	0	1021	1021	0	386	0	0	
1	0	0	0	0	828	1021	0	0	0	0	
2	0	0	0	0	434	1021	0	0	0	0	
3	0	0	0	0	0	1021	0	0	0	0	
4	0	0	0	0	0	1021	0	0	0	0	
5	0	0	0	0	0	1021	0	0	0	0	
6	0	0	0	0	0	1021	0	0	0	0	
7	0	0	0	0	0	1021	0	0	0	0	
8	0	0	0	0	0	1021	0	0	0	0	
9	0	0	0	0	133	1021	0	169	0	0	
10	0	0	0	0	564	1021	0	663	0	0	
11	0	0	0	0	1020	1021	0	1020	0	0	
12	0	0	0	0	1021	1021	0	1020	0	0	
13	0	0	0	0	1021	1021	0	1021	0	0	
14	0	0	0	0	1021	1022	0	1020	0	0	
15	0	0	0	0	1021	1021	0	1021	0	0	
0	0	0	0	0	1021	1021	0	1021	0	0	
1	0	0	0	0	1021	1021	0	1021	0	0	
2	0	0	0	0	1021	1021	0	1021	0	0	
3	0	0	0	0	1021	1021	0	823	0	0	
4	0	0	0	0	935	1022	0	327	0	0	
5	0	0	0	0	583	1021	0	0	0	0	
6	0	0	0	0	109	1021	0	0	0	0	
7	0	0	0	0	0	1021	0	0	0	0	
8	0	0	0	0	0	1021	0	0	0	0	
9	0	0	0	0	0	1021	0	0	0	0	
10	0	0	0	0	0	1021	0	0	0	0	
11	0	0	0	0	0	1021	0	0	0	0	
12	0	0	0	0	0	1021	0	0	0	0	
13	0	0	0	0	35	1021	0	172	0	0	
14	0	0	0	0	403	1021	0	671	0	0	
15	0	0	0	0	948	1021	0	1020	0	0	
0	0	0	0	0	1021	1021	0	1020	0	0	
1	0	0	0	0	1021	1021	0	1020	0	0	
2	0	0	0	0	1021	1021	0	1021	0	0	
3	0	0	0	0	1021	1021	0	1020	0	0	
4	0	0	0	0	1021	1021	0	1021	0	0	
5	0	0	0	0	1021	1021	0	1021	0	0	
6	0	0	0	0	1021	1021	0	1021	0	0	
7	0	0	0	0	1021	1021	0	810	0	0	
8	0	0	0	0	872	1021	0	301	0	0	
9	0	0	0	0	484	1021	0	0	0	0	
10	0	0	0	0	1	1021	0	0	0	0	
11	0	0	0	0	0	1021	0	0	0	0	
12	0	0	0	0	0	1021	0	0	0	0	
13	0	0	0	0	0	1021	0	0	0	0	
14	0	0	0	0	0	1021	0	0	0	0	
15	0	0	0	0	0	1021	0	0	0	0	
0	0	0	0	0	0	1021	0	0	0	0	
1	0	0	0	0	104	1021	0	147	0	0	
2	0	0	0	0	531	1022	0	639	0	0	
3	0	0	0	0	1020	1021	0	1020	0	0	
4	0	0	0	0	1021	1021	0	1020	0	0	
5	0	0	0	0	1021	1022	0	1020	0	0	
6	0	0	0	0	1021	1021	0	1021	0	0	
7	0	0	0	0	1021	1021	0	1021	0	0	
8	0	0	0	0	1021	1021	0	1021	0	0	
9	0	0	0	0	1021	1021	0	1021	0	0	
10	0	0	0	0	1021	1021	0	1021	0	0	
11	0	0	0	0	1021	1021	0	874	0	0	
12	0	0	0	0	970	1021	0	404	0	0	
13	0	0	0	0	636	1021	0	0	0	0	
14	0	0	0	0	175	1021	0	0	0	0	
15	0	0	0	0	0	1021	0	0	0	0	
0	0	0	0	0	0	1021	0	0	0	0	
1	0	0	0	0	0	1021	0	0	0	0	
2	0	0	0	0	0	1021	0	0	0	0	
3	0	0	0	0	0	1021	0	0	0	0	
4	0	0	0	0	0	1021	0	0	0	0	
5	0	0	0	0	110	1021	0	157	0	0	
6	0	0	0	0	533	1021	0	643	0	0	
7	0	0	0	0	1020	1021	0	1020	0	0	
8	0	0	0	0	1020	1021	0	1020	0	0	
9	0	0	0	0	1021	1022	0	1020	0	0	
10	0	0	0	0	1021	1021	0	1020	0	0	
11	0	0	0	0	1021	1021	0	1021	0	0	
12	0	0	0	0	1021	1021	0	1021	0	0	
13	0	0	0	0	1021	1021	0	1021	0	0	
14	0	0	0	0	1021	1021	0	1021	0	0	
15	0	0	0	0	1021	1021	0	793	0	0	
0	0	0	0	0	964	1021	0	281	0	0	
1	0	0	0	0	632	1021	0	0	0	0	
2	0	0	0	0	176	1021	0	0	0	0	
3	0	0	0	0	0	1021	0	0	0	0	
4	0	0	0	0	0	1021	0	0	0	0	
5	0	0	0	0	0	1021	0	0	0	0	
6	0	0	0	0	0	1021	0	0	0	0	
7	0	0	0	0	0	1021	0	0	0	0	
8	0	0	0	0	0	1021	0	0	0	0	
9	0	0	0	0	64	1021	0	115	0	0	
10	0	0	0	0	443	1021	0	575	0	0	
11	0	0	0	0	988	1021	0	1020	0	0	
12	0	0	0	0	1021	1021	0	1020	0	0	
13	0	0	0	0	1021	1021	0	1021	0	0	
14	0	0	0	0	1021	1021	0	1021	0	0	
15	0	0	0	0	1021	1021	0	1021	0	0	
0	0	0	0	0	1021	1021	0	1021	0	0	
1	0	0	0	0	1021	1021	0	1021	0	0	
2	0	0	0	0	1021	1021	0	1021	0	0	
3	0	0	0	0	1021	1021	0	673	0	0	
4	0	0	0	0	812	1021	0	104	0	0	
5	0	0	0	0	398	1021	0	0	0	0	
6	0	0	0	0	0	1021	0	0	0	0	
7	0	0	0	0	0	1021	0	0	0	0	
8	0	0	0	0	0	1021	0	0	0	0	
9	0	0	0	0	0	1021	0	0	0	0	
10	0	0	0	0	0	1021	0	0	0	0	
11	0	0	0	0	0	1021	0	0	0	0	
12	0	0	0	0	0	1021	0	0	0	0	
13	0	0	0	0	28	1021	0	59	0	0	
14	0	0	0	0	376	1021	0	487	0	0	
15	0	0	0	0	890	1021	0	1020	0	0	
0	0	0	0	0	1021	1021	0	1020	0	0	
1	0	0	0	0	1021	1021	0	1020	0	0	
2	0	0	0	0	1021	1021	0	1021	0	0	
3	0	0	0	0	1021	1021	0	1021	0	0	
4	0	0	0	0	1021	1021	0	1021	0	0	
5	0	0	0	0	1021	1021	0	1021	0	0	
6	0	0	0	0	1021	1021	0	1020	0	0	
7	0	0	0	0	967	1021	0	661	0	0	
8	0	0	0	0	628	1021	0	93	0	0	
9	0	0	0	0	141	1021	0	0	0	0	
10	0	0	0	0	0	1021	0	0	0	0	
11	0	0	0	0	0	1021	0	0	0	0	
12	0	0	0	0	0	1021	0	0	0	0	
13	0	0	0	0	0	1021	0	0	0	0	
14	0	0	0	0	0	1021	0	0	0	0	
15	0	0	0	0	0	1021	0	0	0	0	
0	0	0	0	0	0	1021	0	0	0	0	
1	0	0	0	0	0	1021	0	87	0	0	
2	0	0	0	0	244	1021	0	541	0	0	
3	0	0	0	0	721	1021	0	1020	0	0	
4	0	0	0	0	1020	1021	0	1020	0	0	
5	0	0	0	0	1021	1021	0	1020	0	0	
6	0	0	0	0	1021	1021	0	1021	0	0	
7	0	0	0	0	1021	1021	0	1021	0	0	
8	0	0	0	0	1021	1021	0	1021	0	0	
9	0	0	0	0	1021	1021	0	1021	0	0	
10	0	0	0	0	1021	1021	0	1021	0	0	
11	0	0	0	0	1003	1021	0	726	0	0	
12	0	0	0	0	690	1021	0	177	0	0	
13	0	0	0	0	222	1021	0	0	0	0	
14	0	0	0	0	0	1021	0	0	0	0	
15	0	0	0	0	0	1021	0	0	0	0	
0	0	0	0	0	0	1021	0	0	0	0	
1	0	0	0	0	0	1021	0	0	0	0	
2	0	0	0	0	0	1021	0	0	0	0	
3	0	0	0	0	0	1021	0	0	0	0	
4	0	0	0	0	0	1021	0	0	0	0	
5	0	0	0	0	89	1021	0	107	0	0	
6	0	0	0	0	515	1021	0	577	0	0	
7	0	0	0	0	1020	1021	0	1020	0	0	
8	0	0	0	0	1021	1021	0	1020	0	0	
9	0	0	0	0	1021	1021	0	1020	0	0	
10	0	0	0	0	1021	1021	0	1020	0	0	
11	0	0	0	0	1021	1021	0	1021	0	0	
12	0	0	0	0	1021	1021	0	1021	0	0	
13	0	0	0	0	1021	1021	0	1021	0	0	
14	0	0	0	0	1021	1021	0	1021	0	0	
15	0	0	0	0	1021	1021	0	803	0	0	
0	0	0	0	0	929	1021	0	288	0	0	
1	0	0	0	0	560	1021	0	0	0	0	
2	0	0	0	0	62	1021	0	0	0	0	
3	0	0	0	0	0	1021	0	0	0	0	
4	0	0	0	0	0	1021	0	0	0	0	
5	0	0	0	0	0	1021	0	0	0	0	
6	0	0	0	0	0	1021	0	0	0	0	
7	0	0	0	0	0	1021	0	0	0	0	
8	0	0	0	0	0	1021	0	0	0	0	
9	0	0	0	0	0	1021	0	89	0	0	
10	0	0	0	0	326	1021	0	539	0	0	
11	0	0	0	0	838	1021	0	1020	0	0	
12	0	0	0	0	1020	1021	0	1020	0	0	
13	0	0	0	0	1021	1021	0	1021	0	0	
14	0	0	0	0	1021	1021	0	1020	0	0	
15	0	0	0	0	1021	1021	0	1020	0	0	
0	0	0	0	0	1021	1021	0	1021	0	0	
1	0	0	0	0	1021	1021	0	1021	0	0	
2	0	0	0	0	1021	1021	0	1021	0	0	
3	0	0	0	0	1021	1021	0	739	0	0	
4	0	0	0	0	723	1021	0	202	0	0	
5	0	0	0	0	257	1021	0	0	0	0	
6	0	0	0	0	0	1021	0	0	0	0	
7	0	0	0	0	0	1021	0	0	0	0	
8	0	0	0	0	0	1021	0	0	0	0	
9	0	0	0	0	0	1021	0	0	0	0	
10	0	0	0	0	0	1021	0	0	0	0	
11	0	0	0	0	0	1021	0	0	0	0	
12	0	0	0	0	0	1021	0	0	0	0	
13	0	0	0	0	0	1021	0	165	0	0	
14	0	0	0	0	281	1021	0	667	0	0	
15	0	0	0	0	784	1021	0	1020	0	0	
0	0	0	0	0	1020	1021	0	1020	0	0	
1	0	0	0	0	1021	1021	0	1020	0	0	
2	0	0	0	0	1021	1021	0	1021	0	0	
3	0	0	0	0	1021	1021	0	1021	0	0	
4	0	0	0	0	1021	1021	0	1021	0	0	
5	0	0	0	0	1021	1021	0	1021	0	0	
6	0	0	0	0	1021	1021	0	1021	0	0	
7	0	0	0	0	1021	1021	0	883	0	0	
8	0	0	0	0	784	1021	0	413	0	0	
9	0	0	0	0	334	1021	0	1	0	0	
10	0	0	0	0	0	1021	0	0	0	0	
11	0	0	0	0	0	1021	0	0	0	0	
12	0	0	0	0	0	1021	0	0	0	0	
13	0	0	0	0	0	1021	0	0	0	0	
14	0	0	0	0	0	1021	0	0	0	0	
15	0	0	0	0	0	1021	0	0	0	0	
0	0	0	0	0	0	1021	0	0	0	0	
1	0	0	0	0	0	1021	0	152	0	0	
2	0	0	0	0	228	1021	0	641	0	0	
3	0	0	0	0	718	1021	0	1020	0	0	
4	0	0	0	0	1020	1021	0	1020	0	0	
5	0	0	0	0	1021	1021	0	1021	0	0	
6	0	0	0	0	1021	1021	0	1020	0	0	
7	0	0	0	0	1021	1021	0	1021	0	0	
8	0	0	0	0	1021	1021	0	1021	0	0	
9	0	0	0	0	1021	1021	0	1021	0	0	
10	0	0	0	0	1021	1021	0	1021	0	0	
11	0	0	0	0	1021	1021	0	841	0	0	
12	0	0	0	0	852	1021	0	350	0	0	
13	0	0	0	0	444	1021	0	0	0	0	
14	0	0	0	0	0	1021	0	0	0	0	
15	0	0	0	0	0	1021	0	0	0	0	
0	0	0	0	0	0	1021	0	0	0	0	
1	0	0	0	0	0	1021	0	0	0	0	
2	0	0	0	0	0	1021	0	0	0	0	
3	0	0	0	0	0	1021	0	0	0	0	
4	0	0	0	0	0	1021	0	0	0	0	
5	0	0	0	0	0	1021	0	145	0	0	
6	0	0	0	0	346	1021	0	627	0	0	
7	0	0	0	0	881	1021	0	1020	0	0	
8	0	0	0	0	1020	1021	0	1020	0	0	
9	0	0	0	0	1021	1022	0	1020	0	0	
10	0	0	0	0	1021	1021	0	1020	0	0	
11	0	0	0	0	1021	1021	0	1021	0	0	
12	0	0	0	0	1021	1021	0	1021	0	0	
13	0	0	0	0	1021	1021	0	1021	0	0	
14	0	0	0	0	1021	1021	0	1021	0	0	
15	0	0	0	0	1021	1021	0	760	0	0	
0	0	0	0	0	823	1021	0	234	0	0	
1	0	0	0	0	404	1021	0	0	0	0	
2	0	0	0	0	0	1021	0	0	0	0	
3	0	0	0	0	0	1021	0	0	0	0	
4	0	0	0	0	0	1021	0	0	0	0	
5	0	0	0	0	0	1021	0	0	0	0	
6	0	0	0	0	0	1021	0	0	0	0	
7	0	0	0	0	0	1021	0	0	0	0	
8	0	0	0	0	0	1021	0	0	0	0	
9	0	0	0	0	45	1021	0	131	0	0	
10	0	0	0	0	429	1021	0	609	0	0	
11	0	0	0	0	992	1021	0	1020	0	0	
12	0	0	0	0	1021	1021	0	1020	0	0	
13	0	0	0	0	1021	1021	0	1021	0	0	
14	0	0	0	0	1021	1022	0	1020	0	0	
15	0	0	0	0	1021	1021	0	1020	0	0	
0	0	0	0	0	1021	1021	0	1021	0	0	
1	0	0	0	0	1021	1021	0	1021	0	0	
2	0	0	0	0	1021	1021	0	1021	0	0	
3	0	0	0	0	1021	1021	0	848	0	0	
4	0	0	0	0	873	1021	0	360	0	0	
5	0	0	0	0	477	1021	0	0	0	0	
6	0	0	0	0	1	1021	0	0	0	0	
7	0	0	0	0	0	1021	0	0	0	0	
8	0	0	0	0	0	1021	0	0	0	0	
9	0	0	0	0	0	1021	0	0	0	0	
10	0	0	0	0	0	1021	0	0	0	0	
11	0	0	0	0	0	1021	0	0	0	0	
12	0	0	0	0	0	1021	0	0	0	0	
13	0	0	0	0	40	1021	0	75	0	0	
14	0	0	0	0	417	1021	0	505	0	0	
15	0	0	0	0	972	1022	0	1020	0	0	
0	0	0	0	0	1021	1021	0	1020	0	0	
1	0	0	0	0	1021	1021	0	1020	0	0	
2	0	0	0	0	1021	1021	0	1021	0	0	
3	0	0	0	0	1021	1021	0	1021	0	0	
4	0	0	0	0	1021	1021	0	1021	0	0	
5	0	0	0	0	1021	1021	0	1021	0	0	
6	0	0	0	0	1021	1021	0	1021	0	0	
7	0	0	0	0	1021	1021	0	693	0	0	
8	0	0	0	0	880	1021	0	148	0	0	
9	0	0	0	0	494	1021	0	0	0	0	
10	0	0	0	0	1	1021	0	0	0	0	
11	0	0	0	0	0	1021	0	0	0	0	
12	0	0	0	0	0	1021	0	0	0	0	
13	0	0	0	0	0	1021	0	0	0	0	
14	0	0	0	0	0	1021	0	0	0	0	
15	0	0	0	0	0	1021	0	0	0	0	
0	0	0	0	0	0	1021	0	0	0	0	
1	0	0	0	0	105	1021	0	70	0	0	
2	0	0	0	0	526	1021	0	503	0	0	
3	0	0	0	0	1020	1021	0	1020	0	0	
4	0	0	0	0	1021	1021	0	1020	0	0	
5	0	0	0	0	1021	1021	0	1020	0	0	
6	0	0	0	0	1021	1021	0	1021	0	0	
7	0	0	0	0	1021	1021	0	1021	0	0	
8	0	0	0	0	1021	1021	0	1021	0	0	
9	0	0	0	0	1021	1021	0	1021	0	0	
10	0	0	0	0	1021	1021	0	1021	0	0	
11	0	0	0	0	1021	1021	0	842	0	0	
12	0	0	0	0	818	1021	0	361	0	0	
13	0	0	0	0	391	1021	0	0	0	0	
14	0	0	0	0	0	1021	0	0	0	0	
15	0	0	0	0	0	1021	0	0	0	0	
0	0	0	0	0	0	1021	0	0	0	0	
1	0	0	0	0	0	1021	0	0	0	0	
2	0	0	0	0	0	1021	0	0	0	0	
3	0	0	0	0	0	1021	0	0	0	0	
4	0	0	0	0	0	1021	0	0	0	0	
5	0	0	0	0	0	1021	0	144	0	0	
6	0	0	0	0	348	1021	0	628	0	0	
7	0	0	0	0	882	1022	0	1020	0	0	
8	0	0	0	0	1020	1021	0	1020	0	0	
9	0	0	0	0	1021	1021	0	1020	0	0	
10	0	0	0	0	1021	1021	0	1021	0	0	
11	0	0	0	0	1021	1021	0	1021	0	0	
12	0	0	0	0	1021	1021	0	1021	0	0	
13	0	0	0	0	1021	1021	0	1021	0	0	
14	0	0	0	0	1021	1021	0	1021	0	0	
15	0	0	0	0	1021	1021	0	866	0	0	
0	0	0	0	0	811	1021	0	392	0	0	
1	0	0	0	0	384	1021	0	0	0	0	
2	0	0	0	0	0	1021	0	0	0	0	
3	0	0	0	0	0	1021	0	0	0	0	
4	0	0	0	0	0	1021	0	0	0	0	
5	0	0	0	0	0	1021	0	0	0	0	
6	0	0	0	0	0	1021	0	0	0	0	
7	0	0	0	0	0	1021	0	0	0	0	
8	0	0	0	0	0	1021	0	0	0	0	
9	0	0	0	0	195	1021	0	98	0	0	
10	0	0	0	0	694	1021	0	550	0	0	
11	0	0	0	0	1020	1021	0	1020	0	0	
12	0	0	0	0	1021	1021	0	1020	0	0	
13	0	0	0	0	1021	1021	0	1021	0	0	
14	0	0	0	0	1020	1021	0	1021	0	0	
15	0	0	0	0	1021	1021	0	1021	0	0	
0	0	0	0	0	1021	1021	0	1021	0	0	
1	0	0	0	0	1021	1021	0	1021	0	0	
2	0	0	0	0	1021	1021	0	1021	0	0	
3	0	0	0	0	1021	1021	0	776	0	0	
4	0	0	0	0	994	1021	0	254	0	0	
5	0	0	0	0	653	1021	0	0	0	0	
6	0	0	0	0	168	1021	0	0	0	0	
7	0	0	0	0	0	1021	0	0	0	0	
8	0	0	0	0	0	1021	0	0	0	0	
9	0	0	0	0	0	1021	0	0	0	0	
10	0	0	0	0	0	1021	0	0	0	0	
11	0	0	0	0	0	1021	0	0	0	0	
12	0	0	0	0	0	1021	0	0	0	0	
13	0	0	0	0	39	1021	0	41	0	0	
14	0	0	0	0	423	1021	0	459	0	0	
15	0	0	0	0	993	1022	0	1019	0	0	
0	0	0	0	0	1021	1021	0	1020	0	0	
1	0	0	0	0	1021	1021	0	1020	0	0	
2	0	0	0	0	1021	1021	0	1021	0	0	
3	0	0	0	0	1021	1021	0	1021	0	0	
4	0	0	0	0	1021	1021	0	1021	0	0	
5	0	0	0	0	1021	1021	0	1021	0	0	
6	0	0	0	0	1021	1021	0	1021	0	0	
7	0	0	0	0	1021	1021	0	763	0	0	
8	0	0	0	0	843	1021	0	242	0	0	
9	0	0	0	0	425	1021	0	0	0	0	
10	0	0	0	0	0	1021	0	0	0	0	
11	0	0	0	0	0	1021	0	0	0	0	
12	0	0	0	0	0	1021	0	0	0	0	
13	0	0	0	0	0	1021	0	0	0	0	
14	0	0	0	0	0	1021	0	0	0	0	
15	0	0	0	0	0	1021	0	0	0	0	
0	0	0	0	0	0	1021	0	0	0	0	
1	0	0	0	0	134	1021	0	101	0	0	
2	0	0	0	0	587	1021	0	555	0	0	
3	0	0	0	0	1020	1021	0	1020	0	0	
4	0	0	0	0	1021	1021	0	1020	0	0	
5	0	0	0	0	1021	1021	0	1020	0	0	
6	0	0	0	0	1021	1021	0	1021	0	0	
7	0	0	0	0	1021	1021	0	1021	0	0	
8	0	0	0	0	1021	1021	0	1021	0	0	
9	0	0	0	0	1021	1021	0	1021	0	0	
10	0	0	0	0	1021	1021	0	1021	0	0	
11	0	0	0	0	1021	1021	0	848	0	0	
12	0	0	0	0	954	1022	0	374	0	0	
13	0	0	0	0	593	1021	0	0	0	0	
14	0	0	0	0	96	1021	0	0	0	0	
15	0	0	0	0	0	1021	0	0	0	0	
0	0	0	0	0	0	1021	0	0	0	0	
1	0	0	0	0	0	1021	0	0	0	0	
2	0	0	0	0	0	1021	0	0	0	0	
3	0	0	0	0	0	1021	0	0	0	0	
4	0	0	0	0	0	1021	0	0	0	0	
5	0	0	0	0	0	1021	0	173	0	0	
6	0	0	0	0	302	1021	0	668	0	0	
7	0	0	0	0	804	1021	0	1020	0	0	
8	0	0	0	0	1020	1021	0	1020	0	0	
9	0	0	0	0	1020	1021	0	1021	0	0	
10	0	0	0	0	1021	1021	0	1021	0	0	
11	0	0	0	0	1021	1021	0	1021	0	0	
12	0	0	0	0	1021	1021	0	1021	0	0	
13	0	0	0	0	1021	1021	0	1021	0	0	
14	0	0	0	0	1021	1021	0	1021	0	0	
15	0	0	0	0	956	1021	0	871	0	0	
0	0	0	0	0	593	1021	0	399	0	0	
1	0	0	0	0	73	1021	0	0	0	0	
2	0	0	0	0	0	1021	0	0	0	0	
3	0	0	0	0	0	1021	0	0	0	0	
4	0	0	0	0	0	1021	0	0	0	0	
5	0	0	0	0	0	1021	0	0	0	0	
6	0	0	0	0	0	1021	0	0	0	0	
7	0	0	0	0	0	1021	0	0	0	0	
8	0	0	0	0	0	1021	0	0	0	0	
9	0	0	0	0	0	1021	0	123	0	0	
10	0	0	0	0	244	1021	0	593	0	0	
11	0	0	0	0	738	1021	0	1020	0	0	
12	0	0	0	0	1020	1021	0	1020	0	0	
13	0	0	0	0	1020	1022	0	1020	0	0	
14	0	0	0	0	1021	1021	0	1021	0	0	
15	0	0	0	0	1021	1021	0	1021	0	0	
0	0	0	0	0	1021	1021	0	1021	0	0	
1	0	0	0	0	1021	1021	0	1021	0	0	
2	0	0	0	0	1021	1021	0	1021	0	0	
3	0	0	0	0	1021	1021	0	819	0	0	
4	0	0	0	0	712	1021	0	320	0	0	
5	0	0	0	0	235	1021	0	0	0	0	
6	0	0	0	0	0	1021	0	0	0	0	
7	0	0	0	0	0	1021	0	0	0	0	
8	0	0	0	0	0	1021	0	0	0	0	
9	0	0	0	0	0	1021	0	0	0	0	
10	0	0	0	0	0	1021	0	0	0	0	
11	0	0	0	0	0	1021	0	0	0	0	
12	0	0	0	0	0	1021	0	0	0	0	
13	0	0	0	0	0	1021	0	77	0	0	
14	0	0	0	0	299	1021	0	519	0	0	
15	0	0	0	0	819	1021	0	1020	0	0	
0	0	0	0	0	1020	1021	0	1020	0	0	
1	0	0	0	0	1021	1022	0	1020	0	0	
2	0	0	0	0	1021	1021	0	1020	0	0	
3	0	0	0	0	1021	1021	0	1020	0	0	
4	0	0	0	0	1021	1021	0	1021	0	0	
5	0	0	0	0	1021	1021	0	1021	0	0	
6	0	0	0	0	1021	1021	0	1021	0	0	
7	0	0	0	0	1021	1021	0	826	0	0	
8	0	0	0	0	782	1021	0	330	0	0	
9	0	0	0	0	331	1021	0	0	0	0	
10	0	0	0	0	0	1021	0	0	0	0	
11	0	0	0	0	0	1021	0	0	0	0	
12	0	0	0	0	0	1021	0	0	0	0	
13	0	0	0	0	0	1021	0	0	0	0	
14	0	0	0	0	0	1021	0	0	0	0	
15	0	0	0	0	0	1021	0	0	0	0	
0	0	0	0	0	0	1021	0	0	0	0	
1	0	0	0	0	0	1021	0	101	0	0	
2	0	0	0	0	313	1021	0	569	0	0	
3	0	0	0	0	855	1021	0	1020	0	0	
4	0	0	0	0	1020	1021	0	1020	0	0	
5	0	0	0	0	1021	1021	0	1021	0	0	
6	0	0	0	0	1021	1021	0	1020	0	0	
7	0	0	0	0	1021	1021	0	1021	0	0	
8	0	0	0	0	1021	1021	0	1021	0	0	
9	0	0	0	0	1021	1021	0	1021	0	0	
10	0	0	0	0	1021	1021	0	1021	0	0	
11	0	0	0	0	1021	1021	0	882	0	0	
12	0	0	0	0	908	1021	0	411	0	0	
13	0	0	0	0	520	1021	0	0	0	0	
14	0	0	0	0	10	1021	0	0	0	0	
15	0	0	0	0	0	1021	0	0	0	0	
0	0	0	0	0	0	1021	0	0	0	0	
1	0	0	0	0	0	1021	0	0	0	0	
2	0	0	0	0	0	1021	0	0	0	0	
3	0	0	0	0	0	1021	0	0	0	0	
4	0	0	0	0	0	1021	0	0	0	0	
5	0	0	0	0	32	1021	0	103	0	0	
6	0	0	0	0	413	1021	0	559	0	0	
7	0	0	0	0	984	1021	0	1020	0	0	
8	0	0	0	0	1021	1021	0	1020	0	0	
9	0	0	0	0	1021	1021	0	1020	0	0	
10	0	0	0	0	1021	1021	0	1020	0	0	
11	0	0	0	0	1021	1021	0	1020	0	0	
12	0	0	0	0	1021	1021	0	1021	0	0	
13	0	0	0	0	1021	1021	0	1021	0	0	
14	0	0	0	0	1021	1021	0	1021	0	0	
15	0	0	0	0	1021	1021	0	766	0	0	
0	0	0	0	0	920	1021	0	239	0	0	
1	0	0	0	0	537	1021	0	0	0	0	
2	0	0	0	0	24	1021	0	0	0	0	
3	0	0	0	0	0	1021	0	0	0	0	
4	0	0	0	0	0	1021	0	0	0	0	
5	0	0	0	0	0	1021	0	0	0	0	
6	0	0	0	0	0	1021	0	0	0	0	
7	0	0	0	0	0	1021	0	0	0	0	
8	0	0	0	0	0	1021	0	0	0	0	
9	0	0	0	0	0	1021	0	91	0	0	
10	0	0	0	0	265	1021	0	552	0	0	
11	0	0	0	0	761	1021	0	1020	0	0	
12	0	0	0	0	1020	1021	0	1020	0	0	
13	0	0	0	0	1021	1021	0	1020	0	0	
14	0	0	0	0	1021	1021	0	1020	0	0	
15	0	0	0	0	1021	1021	0	1020	0	0	
0	0	0	0	0	1021	1021	0	1021	0	0	
1	0	0	0	0	1021	1021	0	1021	0	0	
2	0	0	0	0	1021	1021	0	1021	0	0	
3	0	0	0	0	1021	1021	0	814	0	0	
4	0	0	0	0	730	1021	0	297	0	0	
5	0	0	0	0	255	1021	0	0	0	0	
6	0	0	0	0	0	1021	0	0	0	0	
7	0	0	0	0	0	1021	0	0	0	0	
8	0	0	0	0	0	1021	0	0	0	0	
9	0	0	0	0	0	1021	0	0	0	0	
10	0	0	0	0	0	1021	0	0	0	0	
11	0	0	0	0	0	1021	0	0	0	0	
12	0	0	0	0	0	1021	0	0	0	0	
13	0	0	0	0	0	1021	0	24	0	0	
14	0	0	0	0	338	1021	0	436	0	0	
15	0	0	0	0	895	1021	0	1019	0	0	
0	0	0	0	0	1020	1021	0	1020	0	0	
1	0	0	0	0	1021	1021	0	1020	0	0	
2	0	0	0	0	1021	1021	0	1021	0	0	
3	0	0	0	0	1021	1021	0	1020	0	0	
4	0	0	0	0	1021	1021	0	1021	0	0	
5	0	0	0	0	1021	1021	0	1021	0	0	
6	0	0	0	0	1021	1021	0	1021	0	0	
7	0	0	0	0	1021	1021	0	730	0	0	
8	0	0	0	0	952	1021	0	179	0	0	
9	0	0	0	0	593	1021	0	0	0	0	
10	0	0	0	0	104	1021	0	0	0	0	
11	0	0	0	0	0	1021	0	0	0	0	
12	0	0	0	0	0	1021	0	0	0	0	
13	0	0	0	0	0	1021	0	0	0	0	
14	0	0	0	0	0	1021	0	0	0	0	
15	0	0	0	0	0	1021	0	0	0	0	
0	0	0	0	0	0	1021	0	0	0	0	
1	0	0	0	0	124	1021	0	0	0	0	
2	0	0	0	0	566	1022	0	375	0	0	
3	0	0	0	0	1020	1021	0	938	0	0	
4	0	0	0	0	1021	1021	0	1020	0	0	
5	0	0	0	0	1021	1021	0	1020	0	0	
6	0	0	0	0	1021	1021	0	1021	0	0	
7	0	0	0	0	1021	1021	0	1021	0	0	
8	0	0	0	0	1021	1021	0	1021	0	0	
9	0	0	0	0	1021	1021	0	1021	0	0	
10	0	0	0	0	1021	1021	0	1020	0	0	
11	0	0	0	0	1021	1021	0	698	0	0	
12	0	0	0	0	869	1021	0	135	0	0	
13	0	0	0	0	459	1021	0	0	0	0	
14	0	0	0	0	0	1021	0	0	0	0	
15	0	0	0	0	0	1021	0	0	0	0	
0	0	0	0	0	0	1021	0	0	0	0	
1	0	0	0	0	0	948	0	0	0	0	
2	0	0	0	0	0	922	0	0	0	0	
3	0	0	0	0	0	982	0	0	0	0	
4	0	0	0	0	0	1021	0	0	0	0	
5	0	0	0	0	240	1021	0	30	0	0	
6	0	0	0	0	770	1022	0	453	0	0	
7	0	0	0	0	1020	1021	0	1020	0	0	
8	0	0	0	0	1021	1021	0	1020	0	0	
9	0	0	0	0	1021	1021	0	1020	0	0	
10	0	0	0	0	1021	1022	0	1020	0	0	
11	0	0	0	0	1021	1021	0	1020	0	0	
12	0	0	0	0	1021	1021	0	1021	0	0	
13	0	0	0	0	1021	1021	0	1021	0	0	
14	0	0	0	0	1021	1021	0	1021	0	0	
15	0	0	0	0	1021	1021	0	753	0	0	
0	0	0	0	0	1021	1021	0	206	0	0	
1	0	0	0	0	890	1021	0	0	0	0	
2	0	0	0	0	536	1021	0	0	0	0	
3	0	0	0	0	113	1021	0	0	0	0	
4	0	0	0	0	0	1021	0	0	0	0	
5	0	0	0	0	0	1021	0	0	0	0	
6	0	0	0	0	0	1021	0	0	0	0	
7	0	0	0	0	0	1021	0	0	0	0	
8	0	0	0	0	129	1021	0	0	0	0	
9	0	0	0	0	565	1021	0	0	0	0	
10	0	0	0	0	1020	1021	0	381	0	0	
11	0	0	0	0	1021	1021	0	972	0	0	
12	0	0	0	0	1021	1021	0	1020	0	0	
13	0	0	0	0	1021	1021	0	1020	0	0	
14	0	0	0	0	1021	1022	0	1020	0	0	
15	0	0	0	0	1021	1021	0	1020	0	0	
0	0	0	0	0	1021	1021	0	1021	0	0	
1	0	0	0	0	1021	1021	0	1021	0	0	
2	0	0	0	0	1021	1021	0	1021	0	0	
3	0	0	0	0	1021	1021	0	851	0	0	
4	0	0	0	0	1021	1021	0	348	0	0	
5	0	0	0	0	866	1021	0	0	0	0	
6	0	0	0	0	470	1021	0	0	0	0	
7	0	0	0	0	0	1021	0	0	0	0	
8	0	0	0	0	0	1021	0	0	0	0	
9	0	0	0	0	0	1021	0	0	0	0	
10	0	0	0	0	0	1021	0	0	0	0	
11	0	0	0	0	0	1021	0	0	0	0	
12	0	0	0	0	0	1021	0	0	0	0	
13	0	0	0	0	303	1021	0	0	0	0	
14	0	0	0	0	841	1021	0	323	0	0	
15	0	0	0	0	1020	1021	0	883	0	0	
0	0	0	0	0	1021	1021	0	1020	0	0	
1	0	0	0	0	1021	1021	0	1020	0	0	
2	0	0	0	0	1021	1021	0	1021	0	0	
3	0	0	0	0	1021	1021	0	1021	0	0	
4	0	0	0	0	1021	1021	0	1021	0	0	
5	0	0	0	0	1021	1021	0	1021	0	0	
6	0	0	0	0	1021	1021	0	1021	0	0	
7	0	0	0	0	1021	1021	0	721	0	0	
8	0	0	0	0	743	1021	0	153	0	0	
9	0	0	0	0	220	1021	0	0	0	0	
10	0	0	0	0	0	1021	0	0	0	0	
11	0	0	0	0	0	1021	0	0	0	0	
12	0	0	0	0	0	1021	0	0	0	0	
13	0	0	0	0	0	1021	0	0	0	0	
14	0	0	0	0	0	1021	0	0	0	0	
15	0	0	0	0	0	1021	0	0	0	0	
0	0	0	0	0	0	1021	0	0	0	0	
1	0	0	0	0	0	1021	0	0	0	0	
2	0	0	0	0	0	1021	0	380	0	0	
3	0	0	0	0	130	1021	0	962	0	0	
4	0	0	0	0	568	1021	0	1020	0	0	
5	0	0	0	0	1020	1021	0	1020	0	0	
6	0	0	0	0	1020	1021	0	1021	0	0	
7	0	0	0	0	1021	1021	0	1020	0	0	
8	0	0	0	0	1021	1021	0	1021	0	0	
9	0	0	0	0	1021	1021	0	1021	0	0	
10	0	0	0	0	1021	1021	0	1020	0	0	
11	0	0	0	0	1021	1021	0	647	0	0	
12	0	0	0	0	1021	1021	0	54	0	0	
13	0	0	0	0	793	1021	0	0	0	0	
14	0	0	0	0	423	1021	0	0	0	0	
15	0	0	0	0	0	1021	0	0	0	0	
0	0	0	0	0	0	1021	0	0	0	0	
1	0	0	0	0	0	1021	0	0	0	0	
2	0	0	0	0	0	1021	0	0	0	0	
3	0	0	0	0	0	1021	0	0	0	0	
4	0	0	0	0	0	1021	0	0	0	0	
5	0	0	0	0	263	1021	0	97	0	0	
6	0	0	0	0	755	1022	0	599	0	0	
7	0	0	0	0	1020	1021	0	1020	0	0	
8	0	0	0	0	1021	1021	0	1020	0	0	
9	0	0	0	0	1021	1021	0	1020	0	0	
10	0	0	0	0	1021	1021	0	1021	0	0	
11	0	0	0	0	1021	1021	0	1021	0	0	
12	0	0	0	0	1021	1021	0	1021	0	0	
13	0	0	0	0	1021	1021	0	1021	0	0	
14	0	0	0	0	1021	1021	0	1021	0	0	
15	0	0	0	0	968	1021	0	1021	0	0	
0	0	0	0	0	549	1021	0	803	0	0	
1	0	0	0	0	0	1021	0	284	0	0	
2	0	0	0	0	0	1021	0	0	0	0	
3	0	0	0	0	0	1021	0	0	0	0	
4	0	0	0	0	0	1021	0	0	0	0	
5	0	0	0	0	0	1022	0	0	0	0	
6	0	0	0	0	0	1021	0	0	0	0	
7	0	0	0	0	0	1021	0	0	0	0	
8	0	0	0	0	0	1021	0	0	0	0	
9	0	0	0	0	0	1021	0	263	0	0	
10	0	0	0	0	0	1021	0	817	0	0	
11	0	0	0	0	0	1021	0	1020	0	0	
12	0	0	0	0	0	1021	0	1020	0	0	
13	0	0	0	0	0	1021	0	1020	0	0	
14	0	0	0	0	0	1021	0	1021	0	0	
15	0	0	0	0	0	1021	0	1021	0	0	
0	0	0	0	0	0	1021	0	1020	0	0	
1	0	0	0	0	0	1021	0	1021	0	0	
2	0	0	0	0	0	1021	0	1021	0	0	
3	0	0	0	0	0	1021	0	717	0	0	
4	0	0	0	0	0	1021	0	120	0	0	
5	0	0	0	0	0	1021	0	0	0	0	
6	0	0	0	0	0	1021	0	0	0	0	
7	0	0	0	0	0	1021	0	0	0	0	
8	0	0	0	0	0	1021	0	0	0	0	
9	0	0	0	0	0	1021	0	0	0	0	
10	0	0	0	0	0	1021	0	0	0	0	
11	0	0	0	0	0	1021	0	0	0	0	
12	0	0	0	0	0	1021	0	0	0	0	
13	0	0	0	0	0	1021	0	148	0	0	
14	0	0	0	0	0	1021	0	696	0	0	
15	0	0	0	0	0	1021	0	1020	0	0	
0	0	0	0	0	320	1021	0	1020	0	0	
1	0	0	0	0	814	1021	0	1020	0	0	
2	0	0	0	0	1020	1021	0	1021	0	0	
3	0	0	0	0	1021	1021	0	1021	0	0	
4	0	0	0	0	1021	1021	0	1021	0	0	
5	0	0	0	0	1021	1021	0	1021	0	0	
6	0	0	0	0	1021	1021	0	1021	0	0	
7	0	0	0	0	891	1021	0	1021	0	0	
8	0	0	0	0	449	1021	0	808	0	0	
9	0	0	0	0	0	1021	0	297	0	0	
10	0	0	0	0	0	1021	0	0	0	0	
11	0	0	0	0	0	1021	0	0	0	0	
12	0	0	0	0	0	1021	0	0	0	0	
13	0	0	0	0	0	1021	0	0	0	0	
14	0	0	0	0	0	1021	0	0	0	0	
15	0	0	0	0	0	1021	0	0	0	0	
0	0	0	0	0	0	1021	0	0	0	0	
1	0	0	0	0	0	1021	0	339	0	0	
2	0	0	0	0	0	1021	0	939	0	0	
3	0	0	0	0	202	1021	0	1020	0	0	
4	0	0	0	0	698	1021	0	1020	0	0	
5	0	0	0	0	1020	1021	0	1021	0	0	
6	0	0	0	0	1020	1021	0	1021	0	0	
7	0	0	0	0	1021	1021	0	1021	0	0	
8	0	0	0	0	1021	1021	0	1021	0	0	
9	0	0	0	0	1021	1021	0	1021	0	0	
10	0	0	0	0	1021	1021	0	1021	0	0	
11	0	0	0	0	950	1021	0	1021	0	0	
12	0	0	0	0	546	1021	0	766	0	0	
13	0	0	0	0	0	1021	0	237	0	0	
14	0	0	0	0	0	1021	0	0	0	0	
15	0	0	0	0	0	1021	0	0	0	0	
0	0	0	0	0	0	1021	0	0	0	0	
1	0	0	0	0	0	1021	0	0	0	0	
2	0	0	0	0	0	1021	0	0	0	0	
3	0	0	0	0	0	1021	0	0	0	0	
4	0	0	0	0	0	1021	0	0	0	0	
5	0	0	0	0	0	1021	0	231	0	0	
6	0	0	0	0	157	1021	0	764	0	0	
7	0	0	0	0	688	1021	0	1020	0	0	
8	0	0	0	0	1020	1021	0	1020	0	0	
9	0	0	0	0	1021	1021	0	1020	0	0	
10	0	0	0	0	1021	1021	0	1021	0	0	
11	0	0	0	0	1021	1021	0	1021	0	0	
12	0	0	0	0	1021	1021	0	1021	0	0	
13	0	0	0	0	1021	1021	0	1021	0	0	
14	0	0	0	0	1021	1021	0	1021	0	0	
15	0	0	0	0	1021	1021	0	930	0	0	
0	0	0	0	0	962	1021	0	472	0	0	
1	0	0	0	0	558	1021	0	0	0	0	
2	0	0	0	0	0	1021	0	0	0	0	
3	0	0	0	0	0	1021	0	0	0	0	
4	0	0	0	0	0	1021	0	0	0	0	
5	0	0	0	0	0	1021	0	0	0	0	
6	0	0	0	0	0	1021	0	0	0	0	
7	0	0	0	0	0	1021	0	0	0	0	
8	0	0	0	0	0	1021	0	0	0	0	
9	0	0	0	0	0	1021	0	0	0	0	
10	0	0	0	0	391	1021	0	392	0	0	
11	0	0	0	0	1020	1021	0	977	0	0	
12	0	0	0	0	1021	1021	0	1020	0	0	
13	0	0	0	0	1021	1021	0	1021	0	0	
14	0	0	0	0	1021	1021	0	1021	0	0	
15	0	0	0	0	1021	1021	0	1021	0	0	
0	0	0	0	0	1021	1021	0	1021	0	0	
1	0	0	0	0	1021	1021	0	1021	0	0	
2	0	0	0	0	1021	1021	0	1021	0	0	
3	0	0	0	0	1021	1021	0	857	0	0	
4	0	0	0	0	1021	1021	0	372	0	0	
5	0	0	0	0	1009	1021	0	0	0	0	
6	0	0	0	0	715	1021	0	0	0	0	
7	0	0	0	0	332	1021	0	0	0	0	
8	0	0	0	0	0	1021	0	0	0	0	
9	0	0	0	0	0	1021	0	0	0	0	
10	0	0	0	0	0	1021	0	0	0	0	
11	0	0	0	0	0	1021	0	0	0	0	
12	0	0	0	0	199	1021	0	0	0	0	
13	0	0	0	0	698	1021	0	35	0	0	
14	0	0	0	0	1020	1021	0	454	0	0	
15	0	0	0	0	1021	1021	0	1020	0	0	
0	0	0	0	0	1021	1021	0	1020	0	0	
1	0	0	0	0	1021	1021	0	1020	0	0	
2	0	0	0	0	1021	1021	0	1020	0	0	
3	0	0	0	0	1021	1021	0	1020	0	0	
4	0	0	0	0	1021	1021	0	1021	0	0	
5	0	0	0	0	1021	1021	0	1021	0	0	
6	0	0	0	0	1021	1021	0	1021	0	0	
7	0	0	0	0	1021	1021	0	933	0	0	
8	0	0	0	0	1021	1021	0	499	0	0	
9	0	0	0	0	1021	1021	0	1	0	0	
10	0	0	0	0	1021	1022	0	0	0	0	
11	0	0	0	0	788	1021	0	0	0	0	
12	0	0	0	0	466	1021	0	0	0	0	
13	0	0	0	0	143	1021	0	0	0	0	
14	0	0	0	0	0	1021	0	0	0	0	
15	0	0	0	0	0	1021	0	0	0	0	
0	0	0	0	0	54	1021	0	0	0	0	
1	0	0	0	0	387	1021	0	55	0	0	
2	0	0	0	0	931	1022	0	480	0	0	
3	0	0	0	0	1020	1021	0	1020	0	0	
4	0	0	0	0	1021	1021	0	1020	0	0	
5	0	0	0	0	1021	1021	0	1021	0	0	
6	0	0	0	0	1021	1021	0	1021	0	0	
7	0	0	0	0	1021	1021	0	1021	0	0	
8	0	0	0	0	1021	1021	0	1020	0	0	
9	0	0	0	0	1021	1021	0	1021	0	0	
10	0	0	0	0	1021	1021	0	1021	0	0	
11	0	0	0	0	1021	1021	0	888	0	0	
12	0	0	0	0	961	1022	0	420	0	0	
13	0	0	0	0	563	1021	0	0	0	0	
14	0	0	0	0	4	1021	0	0	0	0	
15	0	0	0	0	0	1021	0	0	0	0	
0	0	0	0	0	0	1021	0	0	0	0	
1	0	0	0	0	0	1022	0	0	0	0	
2	0	0	0	0	0	1021	0	0	0	0	
3	0	0	0	0	0	1021	0	0	0	0	
4	0	0	0	0	0	1021	0	0	0	0	
5	0	0	0	0	0	1021	0	44	0	0	
6	0	0	0	0	92	1021	0	467	0	0	
7	0	0	0	0	529	1021	0	1020	0	0	
8	0	0	0	0	1020	1021	0	1020	0	0	
9	0	0	0	0	1020	1021	0	1020	0	0	
10	0	0	0	0	1021	1021	0	1020	0	0	
11	0	0	0	0	1021	1021	0	1020	0	0	
12	0	0	0	0	1021	1021	0	1021	0	0	
13	0	0	0	0	1021	1021	0	1021	0	0	
14	0	0	0	0	1021	1021	0	1021	0	0	
15	0	0	0	0	1021	1021	0	792	0	0	
0	0	0	0	0	716	1021	0	270	0	0	
1	0	0	0	0	187	1021	0	0	0	0	
2	0	0	0	0	0	1021	0	0	0	0	
3	0	0	0	0	0	1021	0	0	0	0	
4	0	0	0	0	0	1021	0	0	0	0	
5	0	0	0	0	0	1021	0	0	0	0	
6	0	0	0	0	0	1021	0	0	0	0	
7	0	0	0	0	0	1021	0	0	0	0	
8	0	0	0	0	0	1021	0	0	0	0	
9	0	0	0	0	0	1021	0	84	0	0	
10	0	0	0	0	0	1022	0	549	0	0	
11	0	0	0	0	76	1021	0	1020	0	0	
12	0	0	0	0	436	1021	0	1020	0	0	
13	0	0	0	0	877	1021	0	1021	0	0	
14	0	0	0	0	1020	1021	0	1021	0	0	
15	0	0	0	0	1021	1021	0	1021	0	0	
0	0	0	0	0	1021	1021	0	1021	0	0	
1	0	0	0	0	1021	1021	0	1021	0	0	
2	0	0	0	0	941	1021	0	1021	0	0	
3	0	0	0	0	562	1021	0	915	0	0	
4	0	0	0	0	1	1021	0	459	0	0	
5	0	0	0	0	0	1021	0	0	0	0	
6	0	0	0	0	0	1021	0	0	0	0	
7	0	0	0	0	0	1021	0	0	0	0	
8	0	0	0	0	0	1021	0	0	0	0	
9	0	0	0	0	0	1021	0	0	0	0	
10	0	0	0	0	0	1021	0	0	0	0	
11	0	0	0	0	0	1021	0	0	0	0	
12	0	0	0	0	0	1021	0	0	0	0	
13	0	0	0	0	0	1021	0	27	0	0	
14	0	0	0	0	0	1021	0	435	0	0	
15	0	0	0	0	300	1021	0	1016	0	0	
0	0	0	0	0	845	1021	0	1020	0	0	
1	0	0	0	0	1020	1022	0	1020	0	0	
2	0	0	0	0	1021	1021	0	1020	0	0	
3	0	0	0	0	1021	1021	0	1020	0	0	
4	0	0	0	0	1021	1021	0	1021	0	0	
5	0	0	0	0	1021	1021	0	1021	0	0	
6	0	0	0	0	1021	1021	0	1021	0	0	
7	0	0	0	0	1020	1021	0	774	0	0	
8	0	0	0	0	719	1021	0	249	0	0	
9	0	0	0	0	207	1021	0	0	0	0	
10	0	0	0	0	0	1021	0	0	0	0	
11	0	0	0	0	0	1021	0	0	0	0	
12	0	0	0	0	0	1021	0	0	0	0	
13	0	0	0	0	0	1022	0	0	0	0	
14	0	0	0	0	0	1021	0	0	0	0	
15	0	0	0	0	0	1021	0	0	0	0	
0	0	0	0	0	0	1021	0	0	0	0	
1	0	0	0	0	0	1021	0	35	0	0	
2	0	0	0	0	171	1021	0	455	0	0	
3	0	0	0	0	688	1021	0	1020	0	0	
4	0	0	0	0	1020	1021	0	1020	0	0	
5	0	0	0	0	1021	1021	0	1021	0	0	
6	0	0	0	0	1021	1021	0	1020	0	0	
7	0	0	0	0	1021	1021	0	1020	0	0	
8	0	0	0	0	1021	1021	0	1021	0	0	
9	0	0	0	0	1021	1021	0	1021	0	0	
10	0	0	0	0	1021	1021	0	1021	0	0	
11	0	0	0	0	1021	1021	0	841	0	0	
12	0	0	0	0	1021	1021	0	354	0	0	
13	0	0	0	0	692	1021	0	0	0	0	
14	0	0	0	0	211	1021	0	0	0	0	
15	0	0	0	0	0	1021	0	0	0	0	
0	0	0	0	0	0	1021	0	0	0	0	
1	0	0	0	0	0	1022	0	0	0	0	
2	0	0	0	0	0	1021	0	0	0	0	
3	0	0	0	0	0	1021	0	0	0	0	
4	0	0	0	0	0	1021	0	0	0	0	
5	0	0	0	0	189	1021	0	68	0	0	
6	0	0	0	0	715	1021	0	509	0	0	
7	0	0	0	0	1020	1021	0	1020	0	0	
8	0	0	0	0	1021	1021	0	1020	0	0	
9	0	0	0	0	1021	1021	0	1020	0	0	
10	0	0	0	0	1021	1021	0	1021	0	0	
11	0	0	0	0	1021	1022	0	1021	0	0	
12	0	0	0	0	1021	1021	0	1021	0	0	
13	0	0	0	0	1021	1021	0	1021	0	0	
14	0	0	0	0	1021	1021	0	1021	0	0	
15	0	0	0	0	1021	1021	0	879	0	0	
0	0	0	0	0	1021	1022	0	398	0	0	
1	0	0	0	0	884	1021	0	1	0	0	
2	0	0	0	0	462	1021	0	0	0	0	
3	0	0	0	0	0	1021	0	0	0	0	
4	0	0	0	0	0	1021	0	0	0	0	
5	0	0	0	0	0	1021	0	0	0	0	
6	0	0	0	0	0	1021	0	0	0	0	
7	0	0	0	0	0	1021	0	0	0	0	
8	0	0	0	0	0	1021	0	0	0	0	
9	0	0	0	0	0	1021	0	6	0	0	
10	0	0	0	0	315	1021	0	401	0	0	
11	0	0	0	0	866	1021	0	976	0	0	
12	0	0	0	0	1020	1021	0	1020	0	0	
13	0	0	0	0	1021	1021	0	1020	0	0	
14	0	0	0	0	1021	1021	0	1020	0	0	
15	0	0	0	0	1021	1021	0	1020	0	0	
0	0	0	0	0	1021	1021	0	1021	0	0	
1	0	0	0	0	1021	1021	0	1021	0	0	
2	0	0	0	0	1021	1021	0	1020	0	0	
3	0	0	0	0	1021	1021	0	758	0	0	
4	0	0	0	0	952	1021	0	220	0	0	
5	0	0	0	0	564	1021	0	0	0	0	
6	0	0	0	0	19	1021	0	0	0	0	
7	0	0	0	0	0	1021	0	0	0	0	
8	0	0	0	0	0	1021	0	0	0	0	
9	0	0	0	0	0	1021	0	0	0	0	
10	0	0	0	0	0	1021	0	0	0	0	
11	0	0	0	0	0	1021	0	0	0	0	
12	0	0	0	0	0	1021	0	0	0	0	
13	0	0	0	0	0	1021	0	0	0	0	
14	0	0	0	0	124	1021	0	361	0	0	
15	0	0	0	0	579	1021	0	934	0	0	
0	0	0	0	0	1020	1021	0	1020	0	0	
1	0	0	0	0	1021	1021	0	1020	0	0	
2	0	0	0	0	1021	1021	0	1021	0	0	
3	0	0	0	0	1021	1021	0	1020	0	0	
4	0	0	0	0	1021	1021	0	1021	0	0	
5	0	0	0	0	1021	1021	0	1021	0	0	
6	0	0	0	0	1021	1021	0	1021	0	0	
7	0	0	0	0	1021	1021	0	828	0	0	
8	0	0	0	0	834	1021	0	328	0	0	
9	0	0	0	0	389	1021	0	0	0	0	
10	0	0	0	0	0	1021	0	0	0	0	
11	0	0	0	0	0	1021	0	0	0	0	
12	0	0	0	0	0	1021	0	0	0	0	
13	0	0	0	0	0	1021	0	0	0	0	
14	0	0	0	0	0	1021	0	0	0	0	
15	0	0	0	0	0	1021	0	0	0	0	
0	0	0	0	0	0	1021	0	0	0	0	
1	0	0	0	0	0	1021	0	0	0	0	
2	0	0	0	0	221	1021	0	371	0	0	
3	0	0	0	0	727	1021	0	944	0	0	
4	0	0	0	0	1020	1021	0	1020	0	0	
5	0	0	0	0	1021	1021	0	1020	0	0	
6	0	0	0	0	1021	1021	0	1020	0	0	
7	0	0	0	0	1021	1021	0	1021	0	0	
8	0	0	0	0	1021	1021	0	1021	0	0	
9	0	0	0	0	1021	1021	0	1021	0	0	
10	0	0	0	0	1021	1021	0	1021	0	0	
11	0	0	0	0	1021	1021	0	880	0	0	
12	0	0	0	0	904	1021	0	418	0	0	
13	0	0	0	0	502	1021	0	0	0	0	
14	0	0	0	0	0	1021	0	0	0	0	
15	0	0	0	0	0	1021	0	0	0	0	
0	0	0	0	0	0	1021	0	0	0	0	
1	0	0	0	0	0	1021	0	0	0	0	
2	0	0	0	0	0	1021	0	0	0	0	
3	0	0	0	0	0	1021	0	0	0	0	
4	0	0	0	0	0	1021	0	0	0	0	
5	0	0	0	0	0	1021	0	51	0	0	
6	0	0	0	0	352	1021	0	480	0	0	
7	0	0	0	0	924	1021	0	1020	0	0	
8	0	0	0	0	1020	1021	0	1020	0	0	
9	0	0	0	0	1021	1021	0	1020	0	0	
10	0	0	0	0	1020	1021	0	1020	0	0	
11	0	0	0	0	1021	1021	0	1020	0	0	
12	0	0	0	0	1021	1021	0	1021	0	0	
13	0	0	0	0	1021	1021	0	1021	0	0	
14	0	0	0	0	1021	1021	0	1021	0	0	
15	0	0	0	0	1021	1021	0	902	0	0	
0	0	0	0	0	991	1021	0	439	0	0	
1	0	0	0	0	632	1021	0	0	0	0	
2	0	0	0	0	114	1021	0	0	0	0	
3	0	0	0	0	0	1021	0	0	0	0	
4	0	0	0	0	0	1021	0	0	0	0	
5	0	0	0	0	0	1021	0	0	0	0	
6	0	0	0	0	0	1021	0	0	0	0	
7	0	0	0	0	0	1021	0	0	0	0	
8	0	0	0	0	0	1021	0	0	0	0	
9	0	0	0	0	0	1021	0	22	0	0	
10	0	0	0	0	283	1021	0	435	0	0	
11	0	0	0	0	823	1021	0	1019	0	0	
12	0	0	0	0	1020	1021	0	1020	0	0	
13	0	0	0	0	1021	1021	0	1020	0	0	
14	0	0	0	0	1021	1021	0	1020	0	0	
15	0	0	0	0	1021	1021	0	1021	0	0	
0	0	0	0	0	1021	1021	0	1021	0	0	
1	0	0	0	0	1021	1021	0	1021	0	0	
2	0	0	0	0	1021	1021	0	1021	0	0	
3	0	0	0	0	1021	1021	0	870	0	0	
4	0	0	0	0	900	1021	0	386	0	0	
5	0	0	0	0	489	1021	0	0	0	0	
6	0	0	0	0	0	1021	0	0	0	0	
7	0	0	0	0	0	1021	0	0	0	0	
8	0	0	0	0	0	1021	0	0	0	0	
9	0	0	0	0	0	1021	0	0	0	0	
10	0	0	0	0	0	1021	0	0	0	0	
11	0	0	0	0	0	1021	0	0	0	0	
12	0	0	0	0	0	1021	0	0	0	0	
13	0	0	0	0	0	1021	0	20	0	0	
14	0	0	0	0	332	1021	0	435	0	0	
15	0	0	0	0	896	1021	0	1019	0	0	
0	0	0	0	0	1021	1021	0	1020	0	0	
1	0	0	0	0	1021	1021	0	1020	0	0	
2	0	0	0	0	1021	1021	0	1020	0	0	
3	0	0	0	0	1021	1021	0	1021	0	0	
4	0	0	0	0	1021	1021	0	1021	0	0	
5	0	0	0	0	1021	1021	0	1021	0	0	
6	0	0	0	0	1021	1021	0	1021	0	0	
7	0	0	0	0	1021	1021	0	824	0	0	
8	0	0	0	0	926	1021	0	310	0	0	
