# OpenSignals Text File Format. Version 1
# {"": {"position": 0, "device": "", "device name": "", "device connection": "", "sampling rate": 1000, "resolution": [4, 1, 1, 1, 1, 10, 10, 10, 10, 6, 6], "firmware version": 1281, "comments": "", "keywords": "", "mode": 0, "sync interval": 2, "date": "", "time": "", "channels": [1, 2, 3, 4, 5, 6], "sensor": ["RAW", "RAW", "RAW", "RAW", "RAW", "RAW"], "label": ["A1", "A2", "A3", "A4", "A5", "A6"], "column": ["nSeq", "I1", "I2", "O1", "O2", "A1", "A2", "A3", "A4", "A5", "A6"], "special": [{}, {}, {}, {}, {}, {}], "digital IO": [0, 0, 1, 1]}}
# EndOfHeader
0	0	0	0	0	630	519	0	0	0	0	
1	0	0	0	0	649	549	0	0	0	0	
2	0	0	0	0	669	578	0	0	0	0	
3	0	0	0	0	688	605	0	0	0	0	
4	0	0	0	0	705	626	0	0	0	0	
5	0	0	0	0	718	640	0	0	0	0	
6	0	0	0	0	724	646	0	0	0	0	
7	0	0	0	0	725	643	0	0	0	0	
8	0	0	0	0	720	632	0	0	0	0	
9	0	0	0	0	710	611	0	0	0	0	
10	0	0	0	0	696	587	0	0	0	0	
11	0	0	0	0	678	559	0	0	0	0	
12	0	0	0	0	660	531	0	0	0	0	
13	0	0	0	0	643	506	0	0	0	0	
14	0	0	0	0	630	487	0	0	0	0	
15	0	0	0	0	620	476	0	0	0	0	
0	0	0	0	0	615	473	0	0	0	0	
1	0	0	0	0	615	479	0	0	0	0	
2	0	0	0	0	622	493	0	0	0	0	
3	0	0	0	0	633	514	0	0	0	0	
4	0	0	0	0	647	539	0	0	0	0	
5	0	0	0	0	664	566	0	0	0	0	
6	0	0	0	0	679	592	0	0	0	0	
7	0	0	0	0	694	614	0	0	0	0	
8	0	0	0	0	705	632	0	0	0	0	
9	0	0	0	0	713	642	0	0	0	0	
10	0	0	0	0	715	643	0	0	0	0	
11	0	0	0	0	713	637	0	0	0	0	
12	0	0	0	0	705	623	0	0	0	0	
13	0	0	0	0	694	601	0	0	0	0	
14	0	0	0	0	680	576	0	0	0	0	
15	0	0	0	0	665	548	0	0	0	0	
0	0	0	0	0	649	522	0	0	0	0	
1	0	0	0	0	636	499	0	0	0	0	
2	0	0	0	0	625	483	0	0	0	0	
3	0	0	0	0	621	473	0	0	0	0	
4	0	0	0	0	619	473	0	0	0	0	
5	0	0	0	0	624	481	0	0	0	0	
6	0	0	0	0	633	497	0	0	0	0	
7	0	0	0	0	646	519	0	0	0	0	
8	0	0	0	0	661	546	0	0	0	0	
9	0	0	0	0	677	574	0	0	0	0	
10	0	0	0	0	692	600	0	0	0	0	
11	0	0	0	0	705	623	0	0	0	0	
12	0	0	0	0	713	640	0	0	0	0	
13	0	0	0	0	719	649	0	0	0	0	
14	0	0	0	0	718	649	0	0	0	0	
15	0	0	0	0	711	640	0	0	0	0	
0	0	0	0	0	701	624	0	0	0	0	
1	0	0	0	0	687	600	0	0	0	0	
2	0	0	0	0	671	572	0	0	0	0	
3	0	0	0	0	652	542	0	0	0	0	
4	0	0	0	0	636	513	0	0	0	0	
5	0	0	0	0	622	488	0	0	0	0	
6	0	0	0	0	610	470	0	0	0	0	
7	0	0	0	0	605	459	0	0	0	0	
8	0	0	0	0	604	457	0	0	0	0	
9	0	0	0	0	609	465	0	0	0	0	
10	0	0	0	0	620	481	0	0	0	0	
11	0	0	0	0	632	504	0	0	0	0	
12	0	0	0	0	649	532	0	0	0	0	
13	0	0	0	0	666	561	0	0	0	0	
14	0	0	0	0	683	589	0	0	0	0	
15	0	0	0	0	696	614	0	0	0	0	
0	0	0	0	0	707	633	0	0	0	0	
1	0	0	0	0	714	644	0	0	0	0	
2	0	0	0	0	716	647	0	0	0	0	
3	0	0	0	0	711	641	0	0	0	0	
4	0	0	0	0	702	627	0	0	0	0	
5	0	0	0	0	690	605	0	0	0	0	
6	0	0	0	0	675	579	0	0	0	0	
7	0	0	0	0	658	550	0	0	0	0	
8	0	0	0	0	642	521	0	0	0	0	
9	0	0	0	0	627	496	0	0	0	0	
10	0	0	0	0	616	477	0	0	0	0	
11	0	0	0	0	611	465	0	0	0	0	
12	0	0	0	0	609	463	0	0	0	0	
13	0	0	0	0	614	471	0	0	0	0	
14	0	0	0	0	622	486	0	0	0	0	
15	0	0	0	0	635	508	0	0	0	0	
0	0	0	0	0	650	535	0	0	0	0	
1	0	0	0	0	666	563	0	0	0	0	
2	0	0	0	0	682	591	0	0	0	0	
3	0	0	0	0	696	615	0	0	0	0	
4	0	0	0	0	706	633	0	0	0	0	
5	0	0	0	0	713	644	0	0	0	0	
6	0	0	0	0	715	646	0	0	0	0	
7	0	0	0	0	711	640	0	0	0	0	
8	0	0	0	0	703	624	0	0	0	0	
9	0	0	0	0	690	602	0	0	0	0	
10	0	0	0	0	676	575	0	0	0	0	
11	0	0	0	0	659	545	0	0	0	0	
12	0	0	0	0	642	516	0	0	0	0	
13	0	0	0	0	627	490	0	0	0	0	
14	0	0	0	0	615	470	0	0	0	0	
15	0	0	0	0	608	458	0	0	0	0	
0	0	0	0	0	604	454	0	0	0	0	
1	0	0	0	0	607	460	0	0	0	0	
2	0	0	0	0	614	473	0	0	0	0	
3	0	0	0	0	625	494	0	0	0	0	
4	0	0	0	0	639	520	0	0	0	0	
5	0	0	0	0	654	548	0	0	0	0	
6	0	0	0	0	670	576	0	0	0	0	
7	0	0	0	0	683	601	0	0	0	0	
8	0	0	0	0	694	621	0	0	0	0	
9	0	0	0	0	701	632	0	0	0	0	
10	0	0	0	0	704	637	0	0	0	0	
11	0	0	0	0	702	632	0	0	0	0	
12	0	0	0	0	696	619	0	0	0	0	
13	0	0	0	0	686	599	0	0	0	0	
14	0	0	0	0	674	574	0	0	0	0	
15	0	0	0	0	660	547	0	0	0	0	
0	0	0	0	0	646	520	0	0	0	0	
1	0	0	0	0	633	495	0	0	0	0	
2	0	0	0	0	623	478	0	0	0	0	
3	0	0	0	0	617	467	0	0	0	0	
4	0	0	0	0	614	464	0	0	0	0	
5	0	0	0	0	617	469	0	0	0	0	
6	0	0	0	0	623	483	0	0	0	0	
7	0	0	0	0	633	502	0	0	0	0	
8	0	0	0	0	646	527	0	0	0	0	
9	0	0	0	0	660	553	0	0	0	0	
10	0	0	0	0	673	579	0	0	0	0	
11	0	0	0	0	686	602	0	0	0	0	
12	0	0	0	0	696	620	0	0	0	0	
13	0	0	0	0	703	631	0	0	0	0	
14	0	0	0	0	705	634	0	0	0	0	
15	0	0	0	0	703	628	0	0	0	0	
0	0	0	0	0	696	615	0	0	0	0	
1	0	0	0	0	686	595	0	0	0	0	
2	0	0	0	0	673	571	0	0	0	0	
3	0	0	0	0	659	543	0	0	0	0	
4	0	0	0	0	643	516	0	0	0	0	
5	0	0	0	0	630	492	0	0	0	0	
6	0	0	0	0	619	474	0	0	0	0	
7	0	0	0	0	612	463	0	0	0	0	
8	0	0	0	0	609	460	0	0	0	0	
9	0	0	0	0	611	466	0	0	0	0	
10	0	0	0	0	619	481	0	0	0	0	
11	0	0	0	0	630	502	0	0	0	0	
12	0	0	0	0	644	527	0	0	0	0	
13	0	0	0	0	660	556	0	0	0	0	
14	0	0	0	0	676	584	0	0	0	0	
15	0	0	0	0	691	610	0	0	0	0	
0	0	0	0	0	702	629	0	0	0	0	
1	0	0	0	0	708	642	0	0	0	0	
2	0	0	0	0	710	646	0	0	0	0	
3	0	0	0	0	705	640	0	0	0	0	
4	0	0	0	0	696	627	0	0	0	0	
5	0	0	0	0	682	604	0	0	0	0	
6	0	0	0	0	665	577	0	0	0	0	
7	0	0	0	0	647	547	0	0	0	0	
8	0	0	0	0	630	518	0	0	0	0	
9	0	0	0	0	615	492	0	0	0	0	
10	0	0	0	0	603	472	0	0	0	0	
11	0	0	0	0	598	459	0	0	0	0	
12	0	0	0	0	596	455	0	0	0	0	
13	0	0	0	0	601	461	0	0	0	0	
14	0	0	0	0	610	476	0	0	0	0	
15	0	0	0	0	624	497	0	0	0	0	
0	0	0	0	0	641	525	0	0	0	0	
1	0	0	0	0	659	554	0	0	0	0	
2	0	0	0	0	677	584	0	0	0	0	
3	0	0	0	0	693	610	0	0	0	0	
4	0	0	0	0	705	631	0	0	0	0	
5	0	0	0	0	713	645	0	0	0	0	
6	0	0	0	0	716	650	0	0	0	0	
7	0	0	0	0	713	646	0	0	0	0	
8	0	0	0	0	705	632	0	0	0	0	
9	0	0	0	0	692	612	0	0	0	0	
10	0	0	0	0	677	585	0	0	0	0	
11	0	0	0	0	659	556	0	0	0	0	
12	0	0	0	0	641	526	0	0	0	0	
13	0	0	0	0	625	499	0	0	0	0	
14	0	0	0	0	612	479	0	0	0	0	
15	0	0	0	0	606	465	0	0	0	0	
0	0	0	0	0	603	461	0	0	0	0	
1	0	0	0	0	606	466	0	0	0	0	
2	0	0	0	0	613	480	0	0	0	0	
3	0	0	0	0	627	502	0	0	0	0	
4	0	0	0	0	644	528	0	0	0	0	
5	0	0	0	0	662	558	0	0	0	0	
6	0	0	0	0	679	588	0	0	0	0	
7	0	0	0	0	695	615	0	0	0	0	
8	0	0	0	0	708	636	0	0	0	0	
9	0	0	0	0	717	649	0	0	0	0	
10	0	0	0	0	719	654	0	0	0	0	
11	0	0	0	0	717	651	0	0	0	0	
12	0	0	0	0	710	638	0	0	0	0	
13	0	0	0	0	697	617	0	0	0	0	
14	0	0	0	0	683	591	0	0	0	0	
15	0	0	0	0	664	563	0	0	0	0	
0	0	0	0	0	647	534	0	0	0	0	
1	0	0	0	0	630	508	0	0	0	0	
2	0	0	0	0	617	487	0	0	0	0	
3	0	0	0	0	608	473	0	0	0	0	
4	0	0	0	0	603	468	0	0	0	0	
5	0	0	0	0	604	472	0	0	0	0	
6	0	0	0	0	610	484	0	0	0	0	
7	0	0	0	0	620	503	0	0	0	0	
8	0	0	0	0	633	527	0	0	0	0	
9	0	0	0	0	648	554	0	0	0	0	
10	0	0	0	0	663	580	0	0	0	0	
11	0	0	0	0	677	605	0	0	0	0	
12	0	0	0	0	688	623	0	0	0	0	
13	0	0	0	0	695	636	0	0	0	0	
14	0	0	0	0	697	639	0	0	0	0	
15	0	0	0	0	695	636	0	0	0	0	
0	0	0	0	0	688	623	0	0	0	0	
1	0	0	0	0	676	604	0	0	0	0	
2	0	0	0	0	663	579	0	0	0	0	
3	0	0	0	0	647	552	0	0	0	0	
4	0	0	0	0	631	525	0	0	0	0	
5	0	0	0	0	618	502	0	0	0	0	
6	0	0	0	0	607	483	0	0	0	0	
7	0	0	0	0	601	473	0	0	0	0	
8	0	0	0	0	600	470	0	0	0	0	
9	0	0	0	0	604	477	0	0	0	0	
10	0	0	0	0	611	491	0	0	0	0	
11	0	0	0	0	624	511	0	0	0	0	
12	0	0	0	0	639	536	0	0	0	0	
13	0	0	0	0	656	563	0	0	0	0	
14	0	0	0	0	673	591	0	0	0	0	
15	0	0	0	0	688	615	0	0	0	0	
0	0	0	0	0	700	635	0	0	0	0	
1	0	0	0	0	710	647	0	0	0	0	
2	0	0	0	0	714	651	0	0	0	0	
3	0	0	0	0	712	647	0	0	0	0	
4	0	0	0	0	706	633	0	0	0	0	
5	0	0	0	0	696	612	0	0	0	0	
6	0	0	0	0	681	586	0	0	0	0	
7	0	0	0	0	664	556	0	0	0	0	
8	0	0	0	0	648	527	0	0	0	0	
9	0	0	0	0	633	501	0	0	0	0	
10	0	0	0	0	620	480	0	0	0	0	
11	0	0	0	0	613	467	0	0	0	0	
12	0	0	0	0	611	464	0	0	0	0	
13	0	0	0	0	614	470	0	0	0	0	
14	0	0	0	0	623	485	0	0	0	0	
15	0	0	0	0	636	507	0	0	0	0	
0	0	0	0	0	653	534	0	0	0	0	
1	0	0	0	0	671	563	0	0	0	0	
2	0	0	0	0	688	592	0	0	0	0	
3	0	0	0	0	704	617	0	0	0	0	
4	0	0	0	0	716	637	0	0	0	0	
5	0	0	0	0	723	649	0	0	0	0	
6	0	0	0	0	725	652	0	0	0	0	
7	0	0	0	0	721	646	0	0	0	0	
8	0	0	0	0	711	631	0	0	0	0	
9	0	0	0	0	697	609	0	0	0	0	
10	0	0	0	0	681	580	0	0	0	0	
11	0	0	0	0	662	550	0	0	0	0	
12	0	0	0	0	643	519	0	0	0	0	
13	0	0	0	0	626	492	0	0	0	0	
14	0	0	0	0	611	471	0	0	0	0	
15	0	0	0	0	603	458	0	0	0	0	
0	0	0	0	0	599	454	0	0	0	0	
1	0	0	0	0	602	460	0	0	0	0	
2	0	0	0	0	609	475	0	0	0	0	
3	0	0	0	0	622	497	0	0	0	0	
4	0	0	0	0	639	525	0	0	0	0	
5	0	0	0	0	657	555	0	0	0	0	
6	0	0	0	0	675	585	0	0	0	0	
7	0	0	0	0	692	612	0	0	0	0	
8	0	0	0	0	706	633	0	0	0	0	
9	0	0	0	0	716	647	0	0	0	0	
10	0	0	0	0	720	652	0	0	0	0	
11	0	0	0	0	718	647	0	0	0	0	
12	0	0	0	0	711	633	0	0	0	0	
13	0	0	0	0	699	612	0	0	0	0	
14	0	0	0	0	684	584	0	0	0	0	
15	0	0	0	0	667	553	0	0	0	0	
0	0	0	0	0	649	523	0	0	0	0	
1	0	0	0	0	633	495	0	0	0	0	
2	0	0	0	0	620	472	0	0	0	0	
3	0	0	0	0	611	458	0	0	0	0	
4	0	0	0	0	607	452	0	0	0	0	
5	0	0	0	0	608	455	0	0	0	0	
6	0	0	0	0	615	467	0	0	0	0	
7	0	0	0	0	625	487	0	0	0	0	
8	0	0	0	0	640	512	0	0	0	0	
9	0	0	0	0	655	541	0	0	0	0	
10	0	0	0	0	672	569	0	0	0	0	
11	0	0	0	0	686	596	0	0	0	0	
12	0	0	0	0	699	617	0	0	0	0	
13	0	0	0	0	708	632	0	0	0	0	
14	0	0	0	0	711	638	0	0	0	0	
15	0	0	0	0	710	636	0	0	0	0	
0	0	0	0	0	703	624	0	0	0	0	
1	0	0	0	0	694	605	0	0	0	0	
2	0	0	0	0	680	581	0	0	0	0	
3	0	0	0	0	665	553	0	0	0	0	
4	0	0	0	0	649	526	0	0	0	0	
5	0	0	0	0	634	500	0	0	0	0	
6	0	0	0	0	622	479	0	0	0	0	
7	0	0	0	0	614	465	0	0	0	0	
8	0	0	0	0	609	460	0	0	0	0	
9	0	0	0	0	609	463	0	0	0	0	
10	0	0	0	0	614	475	0	0	0	0	
11	0	0	0	0	624	493	0	0	0	0	
12	0	0	0	0	636	517	0	0	0	0	
13	0	0	0	0	650	544	0	0	0	0	
14	0	0	0	0	664	571	0	0	0	0	
15	0	0	0	0	676	595	0	0	0	0	
0	0	0	0	0	687	614	0	0	0	0	
1	0	0	0	0	695	626	0	0	0	0	
2	0	0	0	0	697	630	0	0	0	0	
3	0	0	0	0	695	625	0	0	0	0	
4	0	0	0	0	687	612	0	0	0	0	
5	0	0	0	0	677	591	0	0	0	0	
6	0	0	0	0	663	567	0	0	0	0	
7	0	0	0	0	647	539	0	0	0	0	
8	0	0	0	0	632	511	0	0	0	0	
9	0	0	0	0	617	486	0	0	0	0	
10	0	0	0	0	606	467	0	0	0	0	
11	0	0	0	0	599	455	0	0	0	0	
12	0	0	0	0	597	453	0	0	0	0	
13	0	0	0	0	600	459	0	0	0	0	
14	0	0	0	0	608	473	0	0	0	0	
15	0	0	0	0	620	495	0	0	0	0	
0	0	0	0	0	635	521	0	0	0	0	
1	0	0	0	0	652	550	0	0	0	0	
2	0	0	0	0	667	577	0	0	0	0	
3	0	0	0	0	681	600	0	0	0	0	
4	0	0	0	0	694	619	0	0	0	0	
5	0	0	0	0	701	630	0	0	0	0	
6	0	0	0	0	703	632	0	0	0	0	
7	0	0	0	0	701	626	0	0	0	0	
8	0	0	0	0	692	611	0	0	0	0	
9	0	0	0	0	681	590	0	0	0	0	
10	0	0	0	0	666	563	0	0	0	0	
11	0	0	0	0	649	534	0	0	0	0	
12	0	0	0	0	632	505	0	0	0	0	
13	0	0	0	0	616	480	0	0	0	0	
14	0	0	0	0	603	459	0	0	0	0	
15	0	0	0	0	593	446	0	0	0	0	
0	0	0	0	0	588	440	0	0	0	0	
1	0	0	0	0	587	442	0	0	0	0	
2	0	0	0	0	592	453	0	0	0	0	
3	0	0	0	0	601	471	0	0	0	0	
4	0	0	0	0	615	494	0	0	0	0	
5	0	0	0	0	630	519	0	0	0	0	
6	0	0	0	0	647	546	0	0	0	0	
7	0	0	0	0	662	570	0	0	0	0	
8	0	0	0	0	675	590	0	0	0	0	
9	0	0	0	0	686	603	0	0	0	0	
10	0	0	0	0	691	607	0	0	0	0	
11	0	0	0	0	691	604	0	0	0	0	
12	0	0	0	0	687	592	0	0	0	0	
13	0	0	0	0	677	573	0	0	0	0	
14	0	0	0	0	665	549	0	0	0	0	
15	0	0	0	0	649	521	0	0	0	0	
0	0	0	0	0	633	494	0	0	0	0	
1	0	0	0	0	619	469	0	0	0	0	
2	0	0	0	0	606	448	0	0	0	0	
3	0	0	0	0	597	435	0	0	0	0	
4	0	0	0	0	592	430	0	0	0	0	
5	0	0	0	0	594	433	0	0	0	0	
6	0	0	0	0	599	445	0	0	0	0	
7	0	0	0	0	609	465	0	0	0	0	
8	0	0	0	0	624	489	0	0	0	0	
9	0	0	0	0	639	517	0	0	0	0	
10	0	0	0	0	656	545	0	0	0	0	
11	0	0	0	0	671	571	0	0	0	0	
12	0	0	0	0	684	591	0	0	0	0	
13	0	0	0	0	694	604	0	0	0	0	
14	0	0	0	0	697	609	0	0	0	0	
15	0	0	0	0	697	606	0	0	0	0	
0	0	0	0	0	691	594	0	0	0	0	
1	0	0	0	0	680	575	0	0	0	0	
2	0	0	0	0	668	551	0	0	0	0	
3	0	0	0	0	652	524	0	0	0	0	
4	0	0	0	0	637	498	0	0	0	0	
5	0	0	0	0	623	475	0	0	0	0	
6	0	0	0	0	611	455	0	0	0	0	
7	0	0	0	0	604	444	0	0	0	0	
8	0	0	0	0	601	441	0	0	0	0	
9	0	0	0	0	603	446	0	0	0	0	
10	0	0	0	0	610	460	0	0	0	0	
11	0	0	0	0	621	480	0	0	0	0	
12	0	0	0	0	636	505	0	0	0	0	
13	0	0	0	0	652	534	0	0	0	0	
14	0	0	0	0	668	561	0	0	0	0	
15	0	0	0	0	682	586	0	0	0	0	
0	0	0	0	0	694	605	0	0	0	0	
1	0	0	0	0	701	618	0	0	0	0	
2	0	0	0	0	704	622	0	0	0	0	
3	0	0	0	0	702	617	0	0	0	0	
4	0	0	0	0	694	604	0	0	0	0	
5	0	0	0	0	682	582	0	0	0	0	
6	0	0	0	0	667	556	0	0	0	0	
7	0	0	0	0	649	526	0	0	0	0	
8	0	0	0	0	633	496	0	0	0	0	
9	0	0	0	0	617	470	0	0	0	0	
10	0	0	0	0	606	448	0	0	0	0	
11	0	0	0	0	598	435	0	0	0	0	
12	0	0	0	0	595	429	0	0	0	0	
13	0	0	0	0	597	433	0	0	0	0	
14	0	0	0	0	605	446	0	0	0	0	
15	0	0	0	0	616	466	0	0	0	0	
0	0	0	0	0	633	492	0	0	0	0	
1	0	0	0	0	649	521	0	0	0	0	
2	0	0	0	0	667	550	0	0	0	0	
3	0	0	0	0	683	577	0	0	0	0	
4	0	0	0	0	695	598	0	0	0	0	
5	0	0	0	0	704	613	0	0	0	0	
6	0	0	0	0	707	620	0	0	0	0	
7	0	0	0	0	705	616	0	0	0	0	
8	0	0	0	0	697	604	0	0	0	0	
9	0	0	0	0	685	585	0	0	0	0	
10	0	0	0	0	671	560	0	0	0	0	
11	0	0	0	0	654	532	0	0	0	0	
12	0	0	0	0	638	504	0	0	0	0	
13	0	0	0	0	622	478	0	0	0	0	
14	0	0	0	0	610	456	0	0	0	0	
15	0	0	0	0	602	443	0	0	0	0	
0	0	0	0	0	599	437	0	0	0	0	
1	0	0	0	0	601	441	0	0	0	0	
2	0	0	0	0	608	452	0	0	0	0	
3	0	0	0	0	619	473	0	0	0	0	
4	0	0	0	0	634	497	0	0	0	0	
5	0	0	0	0	649	525	0	0	0	0	
6	0	0	0	0	665	552	0	0	0	0	
7	0	0	0	0	678	577	0	0	0	0	
8	0	0	0	0	688	596	0	0	0	0	
9	0	0	0	0	695	609	0	0	0	0	
10	0	0	0	0	697	614	0	0	0	0	
11	0	0	0	0	694	609	0	0	0	0	
12	0	0	0	0	687	596	0	0	0	0	
13	0	0	0	0	676	577	0	0	0	0	
14	0	0	0	0	664	551	0	0	0	0	
15	0	0	0	0	649	524	0	0	0	0	
0	0	0	0	0	634	496	0	0	0	0	
1	0	0	0	0	620	471	0	0	0	0	
2	0	0	0	0	608	451	0	0	0	0	
3	0	0	0	0	601	438	0	0	0	0	
4	0	0	0	0	598	433	0	0	0	0	
5	0	0	0	0	599	438	0	0	0	0	
6	0	0	0	0	606	451	0	0	0	0	
7	0	0	0	0	615	471	0	0	0	0	
8	0	0	0	0	629	497	0	0	0	0	
9	0	0	0	0	643	526	0	0	0	0	
10	0	0	0	0	659	556	0	0	0	0	
11	0	0	0	0	673	583	0	0	0	0	
12	0	0	0	0	684	604	0	0	0	0	
13	0	0	0	0	694	619	0	0	0	0	
14	0	0	0	0	697	625	0	0	0	0	
15	0	0	0	0	697	623	0	0	0	0	
0	0	0	0	0	691	612	0	0	0	0	
1	0	0	0	0	682	592	0	0	0	0	
2	0	0	0	0	670	568	0	0	0	0	
3	0	0	0	0	655	540	0	0	0	0	
4	0	0	0	0	640	511	0	0	0	0	
5	0	0	0	0	626	485	0	0	0	0	
6	0	0	0	0	616	464	0	0	0	0	
7	0	0	0	0	609	450	0	0	0	0	
8	0	0	0	0	606	446	0	0	0	0	
9	0	0	0	0	608	449	0	0	0	0	
10	0	0	0	0	614	462	0	0	0	0	
11	0	0	0	0	626	482	0	0	0	0	
12	0	0	0	0	639	508	0	0	0	0	
13	0	0	0	0	655	537	0	0	0	0	
14	0	0	0	0	670	565	0	0	0	0	
15	0	0	0	0	684	591	0	0	0	0	
0	0	0	0	0	696	612	0	0	0	0	
1	0	0	0	0	704	627	0	0	0	0	
2	0	0	0	0	707	632	0	0	0	0	
3	0	0	0	0	705	630	0	0	0	0	
4	0	0	0	0	699	618	0	0	0	0	
5	0	0	0	0	689	600	0	0	0	0	
6	0	0	0	0	676	576	0	0	0	0	
7	0	0	0	0	662	550	0	0	0	0	
8	0	0	0	0	647	523	0	0	0	0	
9	0	0	0	0	634	498	0	0	0	0	
10	0	0	0	0	623	479	0	0	0	0	
11	0	0	0	0	615	465	0	0	0	0	
12	0	0	0	0	612	460	0	0	0	0	
13	0	0	0	0	612	463	0	0	0	0	
14	0	0	0	0	617	473	0	0	0	0	
15	0	0	0	0	626	491	0	0	0	0	
0	0	0	0	0	638	513	0	0	0	0	
1	0	0	0	0	651	538	0	0	0	0	
2	0	0	0	0	664	563	0	0	0	0	
3	0	0	0	0	677	586	0	0	0	0	
4	0	0	0	0	687	605	0	0	0	0	
5	0	0	0	0	695	617	0	0	0	0	
6	0	0	0	0	699	623	0	0	0	0	
7	0	0	0	0	697	620	0	0	0	0	
8	0	0	0	0	691	608	0	0	0	0	
9	0	0	0	0	683	591	0	0	0	0	
10	0	0	0	0	671	568	0	0	0	0	
11	0	0	0	0	657	543	0	0	0	0	
12	0	0	0	0	643	517	0	0	0	0	
13	0	0	0	0	630	494	0	0	0	0	
14	0	0	0	0	620	476	0	0	0	0	
15	0	0	0	0	614	464	0	0	0	0	
0	0	0	0	0	611	462	0	0	0	0	
1	0	0	0	0	615	467	0	0	0	0	
2	0	0	0	0	622	480	0	0	0	0	
3	0	0	0	0	632	500	0	0	0	0	
4	0	0	0	0	647	525	0	0	0	0	
5	0	0	0	0	663	551	0	0	0	0	
6	0	0	0	0	678	578	0	0	0	0	
7	0	0	0	0	691	601	0	0	0	0	
8	0	0	0	0	703	620	0	0	0	0	
9	0	0	0	0	711	631	0	0	0	0	
10	0	0	0	0	713	635	0	0	0	0	
11	0	0	0	0	711	630	0	0	0	0	
12	0	0	0	0	704	617	0	0	0	0	
13	0	0	0	0	692	597	0	0	0	0	
14	0	0	0	0	679	572	0	0	0	0	
15	0	0	0	0	664	544	0	0	0	0	
0	0	0	0	0	648	516	0	0	0	0	
1	0	0	0	0	634	492	0	0	0	0	
2	0	0	0	0	621	472	0	0	0	0	
3	0	0	0	0	614	458	0	0	0	0	
4	0	0	0	0	609	452	0	0	0	0	
5	0	0	0	0	609	455	0	0	0	0	
6	0	0	0	0	614	466	0	0	0	0	
7	0	0	0	0	622	483	0	0	0	0	
8	0	0	0	0	633	506	0	0	0	0	
9	0	0	0	0	646	531	0	0	0	0	
10	0	0	0	0	659	557	0	0	0	0	
11	0	0	0	0	671	580	0	0	0	0	
12	0	0	0	0	681	599	0	0	0	0	
13	0	0	0	0	688	612	0	0	0	0	
14	0	0	0	0	691	617	0	0	0	0	
15	0	0	0	0	688	614	0	0	0	0	
0	0	0	0	0	682	603	0	0	0	0	
1	0	0	0	0	673	584	0	0	0	0	
2	0	0	0	0	660	561	0	0	0	0	
3	0	0	0	0	647	535	0	0	0	0	
4	0	0	0	0	632	508	0	0	0	0	
5	0	0	0	0	619	483	0	0	0	0	
6	0	0	0	0	610	463	0	0	0	0	
7	0	0	0	0	604	451	0	0	0	0	
8	0	0	0	0	602	446	0	0	0	0	
9	0	0	0	0	605	449	0	0	0	0	
10	0	0	0	0	612	461	0	0	0	0	
11	0	0	0	0	623	480	0	0	0	0	
12	0	0	0	0	638	504	0	0	0	0	
13	0	0	0	0	653	532	0	0	0	0	
14	0	0	0	0	668	560	0	0	0	0	
15	0	0	0	0	683	586	0	0	0	0	
0	0	0	0	0	695	607	0	0	0	0	
1	0	0	0	0	704	622	0	0	0	0	
2	0	0	0	0	707	628	0	0	0	0	
3	0	0	0	0	706	626	0	0	0	0	
4	0	0	0	0	700	615	0	0	0	0	
5	0	0	0	0	689	597	0	0	0	0	
6	0	0	0	0	677	573	0	0	0	0	
7	0	0	0	0	661	546	0	0	0	0	
8	0	0	0	0	645	518	0	0	0	0	
9	0	0	0	0	631	493	0	0	0	0	
10	0	0	0	0	617	472	0	0	0	0	
11	0	0	0	0	609	459	0	0	0	0	
12	0	0	0	0	604	454	0	0	0	0	
13	0	0	0	0	605	457	0	0	0	0	
14	0	0	0	0	610	470	0	0	0	0	
15	0	0	0	0	620	489	0	0	0	0	
0	0	0	0	0	635	514	0	0	0	0	
1	0	0	0	0	649	542	0	0	0	0	
2	0	0	0	0	665	570	0	0	0	0	
3	0	0	0	0	680	595	0	0	0	0	
4	0	0	0	0	692	616	0	0	0	0	
5	0	0	0	0	702	630	0	0	0	0	
6	0	0	0	0	706	636	0	0	0	0	
7	0	0	0	0	706	633	0	0	0	0	
8	0	0	0	0	701	622	0	0	0	0	
9	0	0	0	0	693	604	0	0	0	0	
10	0	0	0	0	681	580	0	0	0	0	
11	0	0	0	0	667	554	0	0	0	0	
12	0	0	0	0	652	527	0	0	0	0	
13	0	0	0	0	638	503	0	0	0	0	
14	0	0	0	0	626	484	0	0	0	0	
15	0	0	0	0	617	471	0	0	0	0	
0	0	0	0	0	612	465	0	0	0	0	
1	0	0	0	0	610	469	0	0	0	0	
2	0	0	0	0	614	480	0	0	0	0	
3	0	0	0	0	620	498	0	0	0	0	
4	0	0	0	0	630	521	0	0	0	0	
5	0	0	0	0	642	548	0	0	0	0	
6	0	0	0	0	655	575	0	0	0	0	
7	0	0	0	0	667	599	0	0	0	0	
8	0	0	0	0	678	620	0	0	0	0	
9	0	0	0	0	687	633	0	0	0	0	
10	0	0	0	0	692	639	0	0	0	0	
11	0	0	0	0	693	637	0	0	0	0	
12	0	0	0	0	689	627	0	0	0	0	
13	0	0	0	0	682	608	0	0	0	0	
14	0	0	0	0	673	585	0	0	0	0	
15	0	0	0	0	660	559	0	0	0	0	
0	0	0	0	0	647	531	0	0	0	0	
1	0	0	0	0	635	507	0	0	0	0	
2	0	0	0	0	625	486	0	0	0	0	
3	0	0	0	0	617	472	0	0	0	0	
4	0	0	0	0	613	467	0	0	0	0	
5	0	0	0	0	614	471	0	0	0	0	
6	0	0	0	0	618	483	0	0	0	0	
7	0	0	0	0	626	502	0	0	0	0	
8	0	0	0	0	638	526	0	0	0	0	
9	0	0	0	0	651	553	0	0	0	0	
10	0	0	0	0	665	581	0	0	0	0	
11	0	0	0	0	678	606	0	0	0	0	
12	0	0	0	0	687	627	0	0	0	0	
13	0	0	0	0	695	641	0	0	0	0	
14	0	0	0	0	697	647	0	0	0	0	
15	0	0	0	0	696	644	0	0	0	0	
0	0	0	0	0	688	633	0	0	0	0	
1	0	0	0	0	678	614	0	0	0	0	
2	0	0	0	0	665	590	0	0	0	0	
3	0	0	0	0	650	563	0	0	0	0	
4	0	0	0	0	636	535	0	0	0	0	
5	0	0	0	0	622	511	0	0	0	0	
6	0	0	0	0	611	491	0	0	0	0	
7	0	0	0	0	605	478	0	0	0	0	
8	0	0	0	0	603	473	0	0	0	0	
9	0	0	0	0	605	478	0	0	0	0	
10	0	0	0	0	612	490	0	0	0	0	
11	0	0	0	0	623	508	0	0	0	0	
12	0	0	0	0	635	532	0	0	0	0	
13	0	0	0	0	648	558	0	0	0	0	
14	0	0	0	0	661	583	0	0	0	0	
15	0	0	0	0	671	605	0	0	0	0	
0	0	0	0	0	680	622	0	0	0	0	
1	0	0	0	0	683	632	0	0	0	0	
2	0	0	0	0	681	632	0	0	0	0	
3	0	0	0	0	674	624	0	0	0	0	
4	0	0	0	0	662	606	0	0	0	0	
5	0	0	0	0	646	581	0	0	0	0	
6	0	0	0	0	626	548	0	0	0	0	
7	0	0	0	0	605	513	0	0	0	0	
8	0	0	0	0	582	477	0	0	0	0	
9	0	0	0	0	560	442	0	0	0	0	
10	0	0	0	0	540	412	0	0	0	0	
11	0	0	0	0	523	389	0	0	0	0	
12	0	0	0	0	510	374	0	0	0	0	
13	0	0	0	0	501	366	0	0	0	0	
14	0	0	0	0	496	367	0	0	0	0	
15	0	0	0	0	496	375	0	0	0	0	
0	0	0	0	0	497	388	0	0	0	0	
1	0	0	0	0	500	404	0	0	0	0	
2	0	0	0	0	503	422	0	0	0	0	
3	0	0	0	0	505	436	0	0	0	0	
4	0	0	0	0	504	448	0	0	0	0	
5	0	0	0	0	502	452	0	0	0	0	
6	0	0	0	0	497	451	0	0	0	0	
7	0	0	0	0	488	443	0	0	0	0	
8	0	0	0	0	479	428	0	0	0	0	
9	0	0	0	0	469	409	0	0	0	0	
10	0	0	0	0	459	388	0	0	0	0	
11	0	0	0	0	451	366	0	0	0	0	
12	0	0	0	0	447	347	0	0	0	0	
13	0	0	0	0	446	333	0	0	0	0	
14	0	0	0	0	453	326	0	0	0	0	
15	0	0	0	0	465	328	0	0	0	0	
0	0	0	0	0	484	341	0	0	0	0	
1	0	0	0	0	509	363	0	0	0	0	
2	0	0	0	0	538	394	0	0	0	0	
3	0	0	0	0	572	432	0	0	0	0	
4	0	0	0	0	606	476	0	0	0	0	
5	0	0	0	0	641	523	0	0	0	0	
6	0	0	0	0	673	568	0	0	0	0	
7	0	0	0	0	702	608	0	0	0	0	
8	0	0	0	0	726	641	0	0	0	0	
9	0	0	0	0	742	665	0	0	0	0	
10	0	0	0	0	750	678	0	0	0	0	
11	0	0	0	0	750	680	0	0	0	0	
12	0	0	0	0	742	671	0	0	0	0	
13	0	0	0	0	729	653	0	0	0	0	
14	0	0	0	0	709	627	0	0	0	0	
15	0	0	0	0	687	597	0	0	0	0	
0	0	0	0	0	664	564	0	0	0	0	
1	0	0	0	0	640	534	0	0	0	0	
2	0	0	0	0	623	508	0	0	0	0	
3	0	0	0	0	609	490	0	0	0	0	
4	0	0	0	0	601	481	0	0	0	0	
5	0	0	0	0	600	482	0	0	0	0	
6	0	0	0	0	605	492	0	0	0	0	
7	0	0	0	0	617	511	0	0	0	0	
8	0	0	0	0	633	536	0	0	0	0	
9	0	0	0	0	652	563	0	0	0	0	
10	0	0	0	0	671	592	0	0	0	0	
11	0	0	0	0	690	620	0	0	0	0	
12	0	0	0	0	707	642	0	0	0	0	
13	0	0	0	0	719	658	0	0	0	0	
14	0	0	0	0	726	666	0	0	0	0	
15	0	0	0	0	726	665	0	0	0	0	
0	0	0	0	0	721	655	0	0	0	0	
1	0	0	0	0	712	637	0	0	0	0	
2	0	0	0	0	698	612	0	0	0	0	
3	0	0	0	0	681	584	0	0	0	0	
4	0	0	0	0	664	556	0	0	0	0	
5	0	0	0	0	648	529	0	0	0	0	
6	0	0	0	0	636	507	0	0	0	0	
7	0	0	0	0	627	494	0	0	0	0	
8	0	0	0	0	624	488	0	0	0	0	
9	0	0	0	0	627	492	0	0	0	0	
10	0	0	0	0	635	505	0	0	0	0	
11	0	0	0	0	647	526	0	0	0	0	
12	0	0	0	0	664	551	0	0	0	0	
13	0	0	0	0	681	580	0	0	0	0	
14	0	0	0	0	699	609	0	0	0	0	
15	0	0	0	0	715	636	0	0	0	0	
0	0	0	0	0	728	657	0	0	0	0	
1	0	0	0	0	736	671	0	0	0	0	
2	0	0	0	0	738	677	0	0	0	0	
3	0	0	0	0	735	673	0	0	0	0	
4	0	0	0	0	726	659	0	0	0	0	
5	0	0	0	0	713	638	0	0	0	0	
6	0	0	0	0	696	610	0	0	0	0	
7	0	0	0	0	677	579	0	0	0	0	
8	0	0	0	0	657	547	0	0	0	0	
9	0	0	0	0	641	518	0	0	0	0	
10	0	0	0	0	627	494	0	0	0	0	
11	0	0	0	0	618	478	0	0	0	0	
12	0	0	0	0	614	471	0	0	0	0	
13	0	0	0	0	617	475	0	0	0	0	
14	0	0	0	0	625	488	0	0	0	0	
15	0	0	0	0	639	510	0	0	0	0	
0	0	0	0	0	656	538	0	0	0	0	
1	0	0	0	0	675	569	0	0	0	0	
2	0	0	0	0	694	601	0	0	0	0	
3	0	0	0	0	712	631	0	0	0	0	
4	0	0	0	0	727	655	0	0	0	0	
5	0	0	0	0	737	672	0	0	0	0	
6	0	0	0	0	741	679	0	0	0	0	
7	0	0	0	0	739	678	0	0	0	0	
8	0	0	0	0	733	667	0	0	0	0	
9	0	0	0	0	720	647	0	0	0	0	
10	0	0	0	0	705	620	0	0	0	0	
11	0	0	0	0	686	590	0	0	0	0	
12	0	0	0	0	665	557	0	0	0	0	
13	0	0	0	0	646	526	0	0	0	0	
14	0	0	0	0	630	500	0	0	0	0	
15	0	0	0	0	617	481	0	0	0	0	
0	0	0	0	0	609	471	0	0	0	0	
1	0	0	0	0	607	470	0	0	0	0	
2	0	0	0	0	610	478	0	0	0	0	
3	0	0	0	0	618	495	0	0	0	0	
4	0	0	0	0	632	519	0	0	0	0	
5	0	0	0	0	647	546	0	0	0	0	
6	0	0	0	0	665	575	0	0	0	0	
7	0	0	0	0	681	602	0	0	0	0	
8	0	0	0	0	696	626	0	0	0	0	
9	0	0	0	0	709	643	0	0	0	0	
10	0	0	0	0	716	653	0	0	0	0	
11	0	0	0	0	719	654	0	0	0	0	
12	0	0	0	0	716	647	0	0	0	0	
13	0	0	0	0	708	631	0	0	0	0	
14	0	0	0	0	698	609	0	0	0	0	
15	0	0	0	0	684	583	0	0	0	0	
0	0	0	0	0	669	556	0	0	0	0	
1	0	0	0	0	655	531	0	0	0	0	
2	0	0	0	0	642	510	0	0	0	0	
3	0	0	0	0	634	496	0	0	0	0	
4	0	0	0	0	629	489	0	0	0	0	
5	0	0	0	0	628	491	0	0	0	0	
6	0	0	0	0	632	501	0	0	0	0	
7	0	0	0	0	640	519	0	0	0	0	
8	0	0	0	0	651	542	0	0	0	0	
9	0	0	0	0	664	569	0	0	0	0	
10	0	0	0	0	679	597	0	0	0	0	
11	0	0	0	0	692	623	0	0	0	0	
12	0	0	0	0	704	644	0	0	0	0	
13	0	0	0	0	712	660	0	0	0	0	
14	0	0	0	0	716	668	0	0	0	0	
15	0	0	0	0	716	667	0	0	0	0	
0	0	0	0	0	710	657	0	0	0	0	
1	0	0	0	0	700	639	0	0	0	0	
2	0	0	0	0	688	615	0	0	0	0	
3	0	0	0	0	673	587	0	0	0	0	
4	0	0	0	0	657	558	0	0	0	0	
5	0	0	0	0	642	530	0	0	0	0	
6	0	0	0	0	628	507	0	0	0	0	
7	0	0	0	0	620	491	0	0	0	0	
8	0	0	0	0	615	483	0	0	0	0	
9	0	0	0	0	615	484	0	0	0	0	
10	0	0	0	0	620	494	0	0	0	0	
11	0	0	0	0	631	512	0	0	0	0	
12	0	0	0	0	647	536	0	0	0	0	
13	0	0	0	0	663	564	0	0	0	0	
14	0	0	0	0	680	592	0	0	0	0	
15	0	0	0	0	696	619	0	0	0	0	
0	0	0	0	0	709	640	0	0	0	0	
1	0	0	0	0	719	656	0	0	0	0	
2	0	0	0	0	724	664	0	0	0	0	
3	0	0	0	0	724	662	0	0	0	0	
4	0	0	0	0	719	652	0	0	0	0	
5	0	0	0	0	708	634	0	0	0	0	
6	0	0	0	0	696	610	0	0	0	0	
7	0	0	0	0	681	582	0	0	0	0	
8	0	0	0	0	664	554	0	0	0	0	
9	0	0	0	0	650	527	0	0	0	0	
10	0	0	0	0	637	506	0	0	0	0	
11	0	0	0	0	629	492	0	0	0	0	
12	0	0	0	0	624	486	0	0	0	0	
13	0	0	0	0	624	489	0	0	0	0	
14	0	0	0	0	628	501	0	0	0	0	
15	0	0	0	0	637	521	0	0	0	0	
0	0	0	0	0	651	546	0	0	0	0	
1	0	0	0	0	665	574	0	0	0	0	
2	0	0	0	0	679	602	0	0	0	0	
3	0	0	0	0	694	628	0	0	0	0	
4	0	0	0	0	704	648	0	0	0	0	
5	0	0	0	0	713	662	0	0	0	0	
6	0	0	0	0	716	668	0	0	0	0	
7	0	0	0	0	713	664	0	0	0	0	
8	0	0	0	0	706	652	0	0	0	0	
9	0	0	0	0	695	632	0	0	0	0	
10	0	0	0	0	680	605	0	0	0	0	
11	0	0	0	0	664	575	0	0	0	0	
12	0	0	0	0	647	545	0	0	0	0	
13	0	0	0	0	632	518	0	0	0	0	
14	0	0	0	0	620	495	0	0	0	0	
15	0	0	0	0	611	480	0	0	0	0	
0	0	0	0	0	608	472	0	0	0	0	
1	0	0	0	0	608	475	0	0	0	0	
2	0	0	0	0	615	486	0	0	0	0	
3	0	0	0	0	625	505	0	0	0	0	
4	0	0	0	0	640	530	0	0	0	0	
5	0	0	0	0	656	558	0	0	0	0	
6	0	0	0	0	672	587	0	0	0	0	
7	0	0	0	0	688	614	0	0	0	0	
8	0	0	0	0	701	638	0	0	0	0	
9	0	0	0	0	711	654	0	0	0	0	
10	0	0	0	0	717	663	0	0	0	0	
11	0	0	0	0	717	664	0	0	0	0	
12	0	0	0	0	712	654	0	0	0	0	
13	0	0	0	0	703	637	0	0	0	0	
14	0	0	0	0	689	614	0	0	0	0	
15	0	0	0	0	673	586	0	0	0	0	
0	0	0	0	0	656	557	0	0	0	0	
1	0	0	0	0	639	529	0	0	0	0	
2	0	0	0	0	624	505	0	0	0	0	
3	0	0	0	0	614	487	0	0	0	0	
4	0	0	0	0	607	479	0	0	0	0	
5	0	0	0	0	607	479	0	0	0	0	
6	0	0	0	0	611	487	0	0	0	0	
7	0	0	0	0	620	505	0	0	0	0	
8	0	0	0	0	634	529	0	0	0	0	
9	0	0	0	0	650	556	0	0	0	0	
10	0	0	0	0	668	587	0	0	0	0	
11	0	0	0	0	686	615	0	0	0	0	
12	0	0	0	0	701	641	0	0	0	0	
13	0	0	0	0	714	660	0	0	0	0	
14	0	0	0	0	722	671	0	0	0	0	
15	0	0	0	0	725	675	0	0	0	0	
0	0	0	0	0	722	669	0	0	0	0	
1	0	0	0	0	714	655	0	0	0	0	
2	0	0	0	0	704	635	0	0	0	0	
3	0	0	0	0	688	610	0	0	0	0	
4	0	0	0	0	671	583	0	0	0	0	
5	0	0	0	0	655	558	0	0	0	0	
6	0	0	0	0	639	536	0	0	0	0	
7	0	0	0	0	629	520	0	0	0	0	
8	0	0	0	0	622	512	0	0	0	0	
9	0	0	0	0	620	512	0	0	0	0	
10	0	0	0	0	622	520	0	0	0	0	
11	0	0	0	0	631	536	0	0	0	0	
12	0	0	0	0	644	559	0	0	0	0	
13	0	0	0	0	659	584	0	0	0	0	
14	0	0	0	0	676	611	0	0	0	0	
15	0	0	0	0	692	637	0	0	0	0	
0	0	0	0	0	705	659	0	0	0	0	
1	0	0	0	0	716	675	0	0	0	0	
2	0	0	0	0	721	683	0	0	0	0	
3	0	0	0	0	722	682	0	0	0	0	
4	0	0	0	0	718	674	0	0	0	0	
5	0	0	0	0	708	657	0	0	0	0	
6	0	0	0	0	697	635	0	0	0	0	
7	0	0	0	0	682	608	0	0	0	0	
8	0	0	0	0	667	581	0	0	0	0	
9	0	0	0	0	653	555	0	0	0	0	
10	0	0	0	0	641	531	0	0	0	0	
11	0	0	0	0	633	515	0	0	0	0	
12	0	0	0	0	629	506	0	0	0	0	
13	0	0	0	0	629	506	0	0	0	0	
14	0	0	0	0	634	514	0	0	0	0	
15	0	0	0	0	643	529	0	0	0	0	
0	0	0	0	0	656	551	0	0	0	0	
1	0	0	0	0	670	575	0	0	0	0	
2	0	0	0	0	684	602	0	0	0	0	
3	0	0	0	0	697	627	0	0	0	0	
4	0	0	0	0	708	649	0	0	0	0	
5	0	0	0	0	718	665	0	0	0	0	
6	0	0	0	0	722	674	0	0	0	0	
7	0	0	0	0	722	675	0	0	0	0	
8	0	0	0	0	717	667	0	0	0	0	
9	0	0	0	0	709	652	0	0	0	0	
10	0	0	0	0	697	631	0	0	0	0	
11	0	0	0	0	683	605	0	0	0	0	
12	0	0	0	0	668	577	0	0	0	0	
13	0	0	0	0	654	551	0	0	0	0	
14	0	0	0	0	642	530	0	0	0	0	
15	0	0	0	0	634	514	0	0	0	0	
0	0	0	0	0	630	506	0	0	0	0	
1	0	0	0	0	631	507	0	0	0	0	
2	0	0	0	0	636	516	0	0	0	0	
3	0	0	0	0	645	533	0	0	0	0	
4	0	0	0	0	659	556	0	0	0	0	
5	0	0	0	0	675	583	0	0	0	0	
6	0	0	0	0	691	611	0	0	0	0	
7	0	0	0	0	706	638	0	0	0	0	
8	0	0	0	0	719	661	0	0	0	0	
9	0	0	0	0	729	679	0	0	0	0	
10	0	0	0	0	733	688	0	0	0	0	
11	0	0	0	0	733	688	0	0	0	0	
12	0	0	0	0	727	679	0	0	0	0	
13	0	0	0	0	717	661	0	0	0	0	
14	0	0	0	0	702	637	0	0	0	0	
15	0	0	0	0	685	608	0	0	0	0	
0	0	0	0	0	667	577	0	0	0	0	
1	0	0	0	0	649	547	0	0	0	0	
2	0	0	0	0	634	522	0	0	0	0	
3	0	0	0	0	623	504	0	0	0	0	
4	0	0	0	0	616	493	0	0	0	0	
5	0	0	0	0	615	492	0	0	0	0	
6	0	0	0	0	620	501	0	0	0	0	
7	0	0	0	0	631	518	0	0	0	0	
8	0	0	0	0	645	542	0	0	0	0	
9	0	0	0	0	662	570	0	0	0	0	
10	0	0	0	0	681	599	0	0	0	0	
11	0	0	0	0	700	627	0	0	0	0	
12	0	0	0	0	716	650	0	0	0	0	
13	0	0	0	0	730	668	0	0	0	0	
14	0	0	0	0	739	677	0	0	0	0	
15	0	0	0	0	743	677	0	0	0	0	
0	0	0	0	0	740	668	0	0	0	0	
1	0	0	0	0	733	652	0	0	0	0	
2	0	0	0	0	723	629	0	0	0	0	
3	0	0	0	0	708	601	0	0	0	0	
4	0	0	0	0	692	572	0	0	0	0	
5	0	0	0	0	675	544	0	0	0	0	
6	0	0	0	0	660	520	0	0	0	0	
7	0	0	0	0	649	503	0	0	0	0	
8	0	0	0	0	641	494	0	0	0	0	
9	0	0	0	0	638	495	0	0	0	0	
10	0	0	0	0	639	504	0	0	0	0	
11	0	0	0	0	647	522	0	0	0	0	
12	0	0	0	0	659	545	0	0	0	0	
13	0	0	0	0	673	572	0	0	0	0	
14	0	0	0	0	688	600	0	0	0	0	
15	0	0	0	0	702	626	0	0	0	0	
0	0	0	0	0	715	648	0	0	0	0	
1	0	0	0	0	725	663	0	0	0	0	
2	0	0	0	0	731	670	0	0	0	0	
3	0	0	0	0	731	668	0	0	0	0	
4	0	0	0	0	727	657	0	0	0	0	
5	0	0	0	0	718	639	0	0	0	0	
6	0	0	0	0	706	613	0	0	0	0	
7	0	0	0	0	691	585	0	0	0	0	
8	0	0	0	0	674	555	0	0	0	0	
9	0	0	0	0	659	527	0	0	0	0	
10	0	0	0	0	645	503	0	0	0	0	
11	0	0	0	0	635	487	0	0	0	0	
12	0	0	0	0	628	479	0	0	0	0	
13	0	0	0	0	627	480	0	0	0	0	
14	0	0	0	0	631	491	0	0	0	0	
15	0	0	0	0	640	510	0	0	0	0	
0	0	0	0	0	654	536	0	0	0	0	
1	0	0	0	0	670	565	0	0	0	0	
2	0	0	0	0	687	595	0	0	0	0	
3	0	0	0	0	705	624	0	0	0	0	
4	0	0	0	0	719	649	0	0	0	0	
5	0	0	0	0	732	667	0	0	0	0	
6	0	0	0	0	739	676	0	0	0	0	
7	0	0	0	0	739	676	0	0	0	0	
8	0	0	0	0	735	668	0	0	0	0	
9	0	0	0	0	725	650	0	0	0	0	
10	0	0	0	0	711	624	0	0	0	0	
11	0	0	0	0	694	595	0	0	0	0	
12	0	0	0	0	675	563	0	0	0	0	
13	0	0	0	0	657	533	0	0	0	0	
14	0	0	0	0	640	507	0	0	0	0	
15	0	0	0	0	628	487	0	0	0	0	
0	0	0	0	0	621	476	0	0	0	0	
1	0	0	0	0	619	475	0	0	0	0	
2	0	0	0	0	622	483	0	0	0	0	
3	0	0	0	0	631	501	0	0	0	0	
4	0	0	0	0	646	525	0	0	0	0	
5	0	0	0	0	663	554	0	0	0	0	
6	0	0	0	0	683	585	0	0	0	0	
7	0	0	0	0	701	614	0	0	0	0	
8	0	0	0	0	718	639	0	0	0	0	
9	0	0	0	0	732	659	0	0	0	0	
10	0	0	0	0	740	669	0	0	0	0	
11	0	0	0	0	743	671	0	0	0	0	
12	0	0	0	0	740	663	0	0	0	0	
13	0	0	0	0	732	646	0	0	0	0	
14	0	0	0	0	720	623	0	0	0	0	
15	0	0	0	0	704	594	0	0	0	0	
0	0	0	0	0	688	563	0	0	0	0	
1	0	0	0	0	671	534	0	0	0	0	
2	0	0	0	0	657	509	0	0	0	0	
3	0	0	0	0	647	491	0	0	0	0	
4	0	0	0	0	640	480	0	0	0	0	
5	0	0	0	0	639	479	0	0	0	0	
6	0	0	0	0	642	486	0	0	0	0	
7	0	0	0	0	649	502	0	0	0	0	
8	0	0	0	0	661	524	0	0	0	0	
9	0	0	0	0	675	550	0	0	0	0	
10	0	0	0	0	689	577	0	0	0	0	
11	0	0	0	0	704	603	0	0	0	0	
12	0	0	0	0	715	625	0	0	0	0	
13	0	0	0	0	724	642	0	0	0	0	
14	0	0	0	0	729	651	0	0	0	0	
15	0	0	0	0	728	651	0	0	0	0	
0	0	0	0	0	723	642	0	0	0	0	
1	0	0	0	0	714	626	0	0	0	0	
2	0	0	0	0	703	604	0	0	0	0	
3	0	0	0	0	688	577	0	0	0	0	
4	0	0	0	0	672	548	0	0	0	0	
5	0	0	0	0	657	521	0	0	0	0	
6	0	0	0	0	644	499	0	0	0	0	
7	0	0	0	0	636	483	0	0	0	0	
8	0	0	0	0	633	475	0	0	0	0	
9	0	0	0	0	633	476	0	0	0	0	
10	0	0	0	0	639	487	0	0	0	0	
11	0	0	0	0	651	505	0	0	0	0	
12	0	0	0	0	664	529	0	0	0	0	
13	0	0	0	0	680	557	0	0	0	0	
14	0	0	0	0	696	586	0	0	0	0	
15	0	0	0	0	711	613	0	0	0	0	
0	0	0	0	0	724	636	0	0	0	0	
1	0	0	0	0	734	653	0	0	0	0	
2	0	0	0	0	738	662	0	0	0	0	
3	0	0	0	0	737	662	0	0	0	0	
4	0	0	0	0	732	653	0	0	0	0	
5	0	0	0	0	722	636	0	0	0	0	
6	0	0	0	0	709	612	0	0	0	0	
7	0	0	0	0	693	585	0	0	0	0	
8	0	0	0	0	676	555	0	0	0	0	
9	0	0	0	0	659	527	0	0	0	0	
10	0	0	0	0	647	503	0	0	0	0	
11	0	0	0	0	636	484	0	0	0	0	
12	0	0	0	0	629	474	0	0	0	0	
13	0	0	0	0	628	473	0	0	0	0	
14	0	0	0	0	631	480	0	0	0	0	
15	0	0	0	0	639	496	0	0	0	0	
0	0	0	0	0	651	518	0	0	0	0	
1	0	0	0	0	666	544	0	0	0	0	
2	0	0	0	0	681	572	0	0	0	0	
3	0	0	0	0	696	598	0	0	0	0	
4	0	0	0	0	709	620	0	0	0	0	
5	0	0	0	0	719	637	0	0	0	0	
6	0	0	0	0	723	647	0	0	0	0	
7	0	0	0	0	723	647	0	0	0	0	
8	0	0	0	0	718	639	0	0	0	0	
9	0	0	0	0	709	623	0	0	0	0	
10	0	0	0	0	696	601	0	0	0	0	
11	0	0	0	0	681	575	0	0	0	0	
12	0	0	0	0	664	548	0	0	0	0	
13	0	0	0	0	648	521	0	0	0	0	
14	0	0	0	0	635	499	0	0	0	0	
15	0	0	0	0	625	483	0	0	0	0	
0	0	0	0	0	619	474	0	0	0	0	
1	0	0	0	0	617	473	0	0	0	0	
2	0	0	0	0	620	481	0	0	0	0	
3	0	0	0	0	627	497	0	0	0	0	
4	0	0	0	0	639	519	0	0	0	0	
5	0	0	0	0	652	543	0	0	0	0	
6	0	0	0	0	667	570	0	0	0	0	
7	0	0	0	0	682	594	0	0	0	0	
8	0	0	0	0	695	615	0	0	0	0	
9	0	0	0	0	707	632	0	0	0	0	
10	0	0	0	0	713	640	0	0	0	0	
11	0	0	0	0	716	640	0	0	0	0	
12	0	0	0	0	715	633	0	0	0	0	
13	0	0	0	0	709	617	0	0	0	0	
14	0	0	0	0	700	596	0	0	0	0	
15	0	0	0	0	687	571	0	0	0	0	
0	0	0	0	0	673	545	0	0	0	0	
1	0	0	0	0	661	520	0	0	0	0	
2	0	0	0	0	649	499	0	0	0	0	
3	0	0	0	0	640	485	0	0	0	0	
4	0	0	0	0	634	478	0	0	0	0	
5	0	0	0	0	632	479	0	0	0	0	
6	0	0	0	0	636	489	0	0	0	0	
7	0	0	0	0	643	506	0	0	0	0	
8	0	0	0	0	654	530	0	0	0	0	
9	0	0	0	0	667	556	0	0	0	0	
10	0	0	0	0	681	584	0	0	0	0	
11	0	0	0	0	695	610	0	0	0	0	
12	0	0	0	0	706	632	0	0	0	0	
13	0	0	0	0	714	648	0	0	0	0	
14	0	0	0	0	718	656	0	0	0	0	
15	0	0	0	0	717	655	0	0	0	0	
0	0	0	0	0	711	646	0	0	0	0	
1	0	0	0	0	702	629	0	0	0	0	
2	0	0	0	0	689	606	0	0	0	0	
3	0	0	0	0	674	579	0	0	0	0	
4	0	0	0	0	658	551	0	0	0	0	
5	0	0	0	0	643	524	0	0	0	0	
6	0	0	0	0	632	502	0	0	0	0	
7	0	0	0	0	623	486	0	0	0	0	
8	0	0	0	0	619	478	0	0	0	0	
9	0	0	0	0	620	478	0	0	0	0	
10	0	0	0	0	626	487	0	0	0	0	
11	0	0	0	0	638	504	0	0	0	0	
12	0	0	0	0	652	527	0	0	0	0	
13	0	0	0	0	667	555	0	0	0	0	
14	0	0	0	0	684	583	0	0	0	0	
15	0	0	0	0	699	609	0	0	0	0	
0	0	0	0	0	713	632	0	0	0	0	
1	0	0	0	0	723	648	0	0	0	0	
2	0	0	0	0	728	658	0	0	0	0	
3	0	0	0	0	727	658	0	0	0	0	
4	0	0	0	0	720	649	0	0	0	0	
5	0	0	0	0	710	633	0	0	0	0	
6	0	0	0	0	695	610	0	0	0	0	
7	0	0	0	0	678	583	0	0	0	0	
8	0	0	0	0	660	554	0	0	0	0	
9	0	0	0	0	642	527	0	0	0	0	
10	0	0	0	0	627	504	0	0	0	0	
11	0	0	0	0	618	487	0	0	0	0	
12	0	0	0	0	613	479	0	0	0	0	
13	0	0	0	0	613	480	0	0	0	0	
14	0	0	0	0	619	489	0	0	0	0	
15	0	0	0	0	628	507	0	0	0	0	
0	0	0	0	0	642	530	0	0	0	0	
1	0	0	0	0	659	557	0	0	0	0	
2	0	0	0	0	675	585	0	0	0	0	
3	0	0	0	0	690	611	0	0	0	0	
4	0	0	0	0	704	633	0	0	0	0	
5	0	0	0	0	714	650	0	0	0	0	
6	0	0	0	0	718	658	0	0	0	0	
7	0	0	0	0	718	659	0	0	0	0	
8	0	0	0	0	711	650	0	0	0	0	
9	0	0	0	0	702	633	0	0	0	0	
10	0	0	0	0	688	610	0	0	0	0	
11	0	0	0	0	671	583	0	0	0	0	
12	0	0	0	0	654	554	0	0	0	0	
13	0	0	0	0	637	527	0	0	0	0	
14	0	0	0	0	624	504	0	0	0	0	
15	0	0	0	0	613	487	0	0	0	0	
0	0	0	0	0	608	479	0	0	0	0	
1	0	0	0	0	607	479	0	0	0	0	
2	0	0	0	0	612	488	0	0	0	0	
3	0	0	0	0	623	505	0	0	0	0	
4	0	0	0	0	638	528	0	0	0	0	
5	0	0	0	0	655	555	0	0	0	0	
6	0	0	0	0	673	583	0	0	0	0	
7	0	0	0	0	689	610	0	0	0	0	
8	0	0	0	0	705	633	0	0	0	0	
9	0	0	0	0	717	651	0	0	0	0	
10	0	0	0	0	723	661	0	0	0	0	
11	0	0	0	0	723	662	0	0	0	0	
12	0	0	0	0	719	654	0	0	0	0	
13	0	0	0	0	709	638	0	0	0	0	
14	0	0	0	0	695	616	0	0	0	0	
15	0	0	0	0	678	589	0	0	0	0	
0	0	0	0	0	660	560	0	0	0	0	
1	0	0	0	0	642	533	0	0	0	0	
2	0	0	0	0	627	509	0	0	0	0	
3	0	0	0	0	616	492	0	0	0	0	
4	0	0	0	0	610	483	0	0	0	0	
5	0	0	0	0	610	483	0	0	0	0	
6	0	0	0	0	615	492	0	0	0	0	
7	0	0	0	0	626	510	0	0	0	0	
8	0	0	0	0	641	534	0	0	0	0	
9	0	0	0	0	659	562	0	0	0	0	
10	0	0	0	0	677	591	0	0	0	0	
11	0	0	0	0	695	620	0	0	0	0	
12	0	0	0	0	711	644	0	0	0	0	
13	0	0	0	0	723	663	0	0	0	0	
14	0	0	0	0	728	672	0	0	0	0	
15	0	0	0	0	730	674	0	0	0	0	
0	0	0	0	0	724	666	0	0	0	0	
1	0	0	0	0	713	648	0	0	0	0	
2	0	0	0	0	699	625	0	0	0	0	
3	0	0	0	0	680	595	0	0	0	0	
4	0	0	0	0	661	564	0	0	0	0	
5	0	0	0	0	641	533	0	0	0	0	
6	0	0	0	0	624	506	0	0	0	0	
7	0	0	0	0	611	486	0	0	0	0	
8	0	0	0	0	604	474	0	0	0	0	
9	0	0	0	0	601	471	0	0	0	0	
10	0	0	0	0	605	478	0	0	0	0	
11	0	0	0	0	613	494	0	0	0	0	
12	0	0	0	0	628	518	0	0	0	0	
13	0	0	0	0	645	545	0	0	0	0	
14	0	0	0	0	664	576	0	0	0	0	
15	0	0	0	0	684	606	0	0	0	0	
0	0	0	0	0	701	632	0	0	0	0	
1	0	0	0	0	715	653	0	0	0	0	
2	0	0	0	0	724	666	0	0	0	0	
3	0	0	0	0	728	671	0	0	0	0	
4	0	0	0	0	726	666	0	0	0	0	
5	0	0	0	0	717	652	0	0	0	0	
6	0	0	0	0	706	631	0	0	0	0	
7	0	0	0	0	690	604	0	0	0	0	
8	0	0	0	0	671	575	0	0	0	0	
9	0	0	0	0	653	547	0	0	0	0	
10	0	0	0	0	636	521	0	0	0	0	
11	0	0	0	0	623	501	0	0	0	0	
12	0	0	0	0	613	489	0	0	0	0	
13	0	0	0	0	609	485	0	0	0	0	
14	0	0	0	0	609	491	0	0	0	0	
15	0	0	0	0	616	504	0	0	0	0	
0	0	0	0	0	626	525	0	0	0	0	
1	0	0	0	0	639	550	0	0	0	0	
2	0	0	0	0	655	576	0	0	0	0	
3	0	0	0	0	669	601	0	0	0	0	
4	0	0	0	0	682	623	0	0	0	0	
5	0	0	0	0	692	639	0	0	0	0	
6	0	0	0	0	697	647	0	0	0	0	
7	0	0	0	0	698	647	0	0	0	0	
8	0	0	0	0	694	638	0	0	0	0	
9	0	0	0	0	685	622	0	0	0	0	
10	0	0	0	0	673	600	0	0	0	0	
11	0	0	0	0	657	573	0	0	0	0	
12	0	0	0	0	642	545	0	0	0	0	
13	0	0	0	0	627	518	0	0	0	0	
14	0	0	0	0	614	496	0	0	0	0	
15	0	0	0	0	606	480	0	0	0	0	
0	0	0	0	0	600	472	0	0	0	0	
1	0	0	0	0	601	474	0	0	0	0	
2	0	0	0	0	607	483	0	0	0	0	
3	0	0	0	0	617	501	0	0	0	0	
4	0	0	0	0	632	525	0	0	0	0	
5	0	0	0	0	649	553	0	0	0	0	
6	0	0	0	0	667	583	0	0	0	0	
7	0	0	0	0	684	610	0	0	0	0	
8	0	0	0	0	699	634	0	0	0	0	
9	0	0	0	0	711	652	0	0	0	0	
10	0	0	0	0	717	661	0	0	0	0	
11	0	0	0	0	719	662	0	0	0	0	
12	0	0	0	0	714	653	0	0	0	0	
13	0	0	0	0	704	635	0	0	0	0	
14	0	0	0	0	690	611	0	0	0	0	
15	0	0	0	0	673	582	0	0	0	0	
0	0	0	0	0	655	552	0	0	0	0	
1	0	0	0	0	637	523	0	0	0	0	
2	0	0	0	0	620	498	0	0	0	0	
3	0	0	0	0	609	480	0	0	0	0	
4	0	0	0	0	602	471	0	0	0	0	
5	0	0	0	0	600	471	0	0	0	0	
6	0	0	0	0	605	480	0	0	0	0	
7	0	0	0	0	614	497	0	0	0	0	
8	0	0	0	0	629	522	0	0	0	0	
9	0	0	0	0	647	551	0	0	0	0	
10	0	0	0	0	665	580	0	0	0	0	
11	0	0	0	0	684	609	0	0	0	0	
12	0	0	0	0	700	633	0	0	0	0	
13	0	0	0	0	713	652	0	0	0	0	
14	0	0	0	0	719	662	0	0	0	0	
15	0	0	0	0	721	664	0	0	0	0	
0	0	0	0	0	718	656	0	0	0	0	
1	0	0	0	0	709	640	0	0	0	0	
2	0	0	0	0	696	618	0	0	0	0	
3	0	0	0	0	679	591	0	0	0	0	
4	0	0	0	0	662	562	0	0	0	0	
5	0	0	0	0	645	535	0	0	0	0	
6	0	0	0	0	630	511	0	0	0	0	
7	0	0	0	0	619	493	0	0	0	0	
8	0	0	0	0	612	483	0	0	0	0	
9	0	0	0	0	612	483	0	0	0	0	
10	0	0	0	0	616	492	0	0	0	0	
11	0	0	0	0	625	508	0	0	0	0	
12	0	0	0	0	638	531	0	0	0	0	
13	0	0	0	0	653	557	0	0	0	0	
14	0	0	0	0	670	586	0	0	0	0	
15	0	0	0	0	685	612	0	0	0	0	
0	0	0	0	0	698	636	0	0	0	0	
1	0	0	0	0	709	653	0	0	0	0	
2	0	0	0	0	714	662	0	0	0	0	
3	0	0	0	0	715	663	0	0	0	0	
4	0	0	0	0	711	655	0	0	0	0	
5	0	0	0	0	702	639	0	0	0	0	
6	0	0	0	0	690	616	0	0	0	0	
7	0	0	0	0	675	589	0	0	0	0	
8	0	0	0	0	659	560	0	0	0	0	
9	0	0	0	0	643	531	0	0	0	0	
10	0	0	0	0	631	508	0	0	0	0	
11	0	0	0	0	621	489	0	0	0	0	
12	0	0	0	0	615	479	0	0	0	0	
13	0	0	0	0	613	477	0	0	0	0	
14	0	0	0	0	617	484	0	0	0	0	
15	0	0	0	0	624	499	0	0	0	0	
0	0	0	0	0	635	520	0	0	0	0	
1	0	0	0	0	648	546	0	0	0	0	
2	0	0	0	0	664	575	0	0	0	0	
3	0	0	0	0	678	602	0	0	0	0	
4	0	0	0	0	689	625	0	0	0	0	
5	0	0	0	0	700	643	0	0	0	0	
6	0	0	0	0	706	654	0	0	0	0	
7	0	0	0	0	707	657	0	0	0	0	
8	0	0	0	0	703	650	0	0	0	0	
9	0	0	0	0	694	636	0	0	0	0	
10	0	0	0	0	684	614	0	0	0	0	
11	0	0	0	0	669	588	0	0	0	0	
12	0	0	0	0	653	559	0	0	0	0	
13	0	0	0	0	636	531	0	0	0	0	
14	0	0	0	0	622	507	0	0	0	0	
15	0	0	0	0	612	488	0	0	0	0	
0	0	0	0	0	606	478	0	0	0	0	
1	0	0	0	0	604	475	0	0	0	0	
2	0	0	0	0	606	482	0	0	0	0	
3	0	0	0	0	614	497	0	0	0	0	
4	0	0	0	0	627	518	0	0	0	0	
5	0	0	0	0	641	545	0	0	0	0	
6	0	0	0	0	657	574	0	0	0	0	
7	0	0	0	0	674	601	0	0	0	0	
8	0	0	0	0	689	626	0	0	0	0	
9	0	0	0	0	702	646	0	0	0	0	
10	0	0	0	0	710	657	0	0	0	0	
11	0	0	0	0	713	660	0	0	0	0	
12	0	0	0	0	711	654	0	0	0	0	
13	0	0	0	0	704	639	0	0	0	0	
14	0	0	0	0	692	617	0	0	0	0	
15	0	0	0	0	677	588	0	0	0	0	
0	0	0	0	0	658	557	0	0	0	0	
1	0	0	0	0	639	526	0	0	0	0	
2	0	0	0	0	618	496	0	0	0	0	
3	0	0	0	0	601	472	0	0	0	0	
4	0	0	0	0	586	455	0	0	0	0	
5	0	0	0	0	575	446	0	0	0	0	
6	0	0	0	0	567	444	0	0	0	0	
7	0	0	0	0	564	451	0	0	0	0	
8	0	0	0	0	565	464	0	0	0	0	
9	0	0	0	0	568	481	0	0	0	0	
10	0	0	0	0	574	500	0	0	0	0	
11	0	0	0	0	579	518	0	0	0	0	
12	0	0	0	0	585	533	0	0	0	0	
13	0	0	0	0	587	542	0	0	0	0	
14	0	0	0	0	585	543	0	0	0	0	
15	0	0	0	0	579	536	0	0	0	0	
0	0	0	0	0	568	521	0	0	0	0	
1	0	0	0	0	552	497	0	0	0	0	
2	0	0	0	0	534	467	0	0	0	0	
3	0	0	0	0	511	433	0	0	0	0	
4	0	0	0	0	488	398	0	0	0	0	
5	0	0	0	0	466	363	0	0	0	0	
6	0	0	0	0	446	333	0	0	0	0	
7	0	0	0	0	433	310	0	0	0	0	
8	0	0	0	0	424	295	0	0	0	0	
9	0	0	0	0	423	291	0	0	0	0	
10	0	0	0	0	430	299	0	0	0	0	
11	0	0	0	0	443	317	0	0	0	0	
12	0	0	0	0	463	345	0	0	0	0	
13	0	0	0	0	488	382	0	0	0	0	
14	0	0	0	0	518	423	0	0	0	0	
15	0	0	0	0	548	467	0	0	0	0	
0	0	0	0	0	579	509	0	0	0	0	
1	0	0	0	0	607	546	0	0	0	0	
2	0	0	0	0	632	576	0	0	0	0	
3	0	0	0	0	653	597	0	0	0	0	
4	0	0	0	0	668	608	0	0	0	0	
5	0	0	0	0	677	609	0	0	0	0	
6	0	0	0	0	680	603	0	0	0	0	
7	0	0	0	0	679	589	0	0	0	0	
8	0	0	0	0	673	570	0	0	0	0	
9	0	0	0	0	664	550	0	0	0	0	
10	0	0	0	0	655	531	0	0	0	0	
11	0	0	0	0	645	515	0	0	0	0	
12	0	0	0	0	638	505	0	0	0	0	
13	0	0	0	0	633	502	0	0	0	0	
14	0	0	0	0	633	507	0	0	0	0	
15	0	0	0	0	635	519	0	0	0	0	
0	0	0	0	0	643	537	0	0	0	0	
1	0	0	0	0	654	560	0	0	0	0	
2	0	0	0	0	666	585	0	0	0	0	
3	0	0	0	0	679	610	0	0	0	0	
4	0	0	0	0	691	633	0	0	0	0	
5	0	0	0	0	702	651	0	0	0	0	
6	0	0	0	0	709	662	0	0	0	0	
7	0	0	0	0	711	666	0	0	0	0	
8	0	0	0	0	712	662	0	0	0	0	
9	0	0	0	0	707	649	0	0	0	0	
10	0	0	0	0	699	631	0	0	0	0	
11	0	0	0	0	688	607	0	0	0	0	
12	0	0	0	0	675	580	0	0	0	0	
13	0	0	0	0	662	553	0	0	0	0	
14	0	0	0	0	649	530	0	0	0	0	
15	0	0	0	0	639	511	0	0	0	0	
0	0	0	0	0	633	500	0	0	0	0	
1	0	0	0	0	630	497	0	0	0	0	
2	0	0	0	0	632	503	0	0	0	0	
3	0	0	0	0	639	517	0	0	0	0	
4	0	0	0	0	651	537	0	0	0	0	
5	0	0	0	0	664	563	0	0	0	0	
6	0	0	0	0	679	590	0	0	0	0	
7	0	0	0	0	694	617	0	0	0	0	
8	0	0	0	0	708	641	0	0	0	0	
9	0	0	0	0	719	659	0	0	0	0	
10	0	0	0	0	726	670	0	0	0	0	
11	0	0	0	0	728	673	0	0	0	0	
12	0	0	0	0	724	666	0	0	0	0	
13	0	0	0	0	717	652	0	0	0	0	
14	0	0	0	0	705	631	0	0	0	0	
15	0	0	0	0	690	605	0	0	0	0	
0	0	0	0	0	674	576	0	0	0	0	
1	0	0	0	0	657	548	0	0	0	0	
2	0	0	0	0	643	524	0	0	0	0	
3	0	0	0	0	632	505	0	0	0	0	
4	0	0	0	0	624	494	0	0	0	0	
5	0	0	0	0	622	491	0	0	0	0	
6	0	0	0	0	623	497	0	0	0	0	
7	0	0	0	0	630	511	0	0	0	0	
8	0	0	0	0	640	532	0	0	0	0	
9	0	0	0	0	654	557	0	0	0	0	
10	0	0	0	0	668	584	0	0	0	0	
11	0	0	0	0	682	610	0	0	0	0	
12	0	0	0	0	696	634	0	0	0	0	
13	0	0	0	0	706	652	0	0	0	0	
14	0	0	0	0	711	663	0	0	0	0	
15	0	0	0	0	713	665	0	0	0	0	
0	0	0	0	0	710	659	0	0	0	0	
1	0	0	0	0	703	645	0	0	0	0	
2	0	0	0	0	691	624	0	0	0	0	
3	0	0	0	0	677	599	0	0	0	0	
4	0	0	0	0	663	571	0	0	0	0	
5	0	0	0	0	647	543	0	0	0	0	
6	0	0	0	0	634	520	0	0	0	0	
7	0	0	0	0	624	503	0	0	0	0	
8	0	0	0	0	617	493	0	0	0	0	
9	0	0	0	0	616	492	0	0	0	0	
10	0	0	0	0	619	499	0	0	0	0	
11	0	0	0	0	628	515	0	0	0	0	
12	0	0	0	0	640	537	0	0	0	0	
13	0	0	0	0	655	564	0	0	0	0	
14	0	0	0	0	671	592	0	0	0	0	
15	0	0	0	0	687	619	0	0	0	0	
0	0	0	0	0	702	643	0	0	0	0	
1	0	0	0	0	713	662	0	0	0	0	
2	0	0	0	0	719	671	0	0	0	0	
3	0	0	0	0	721	673	0	0	0	0	
4	0	0	0	0	716	665	0	0	0	0	
5	0	0	0	0	707	648	0	0	0	0	
6	0	0	0	0	695	624	0	0	0	0	
7	0	0	0	0	678	596	0	0	0	0	
8	0	0	0	0	660	565	0	0	0	0	
9	0	0	0	0	643	534	0	0	0	0	
10	0	0	0	0	628	507	0	0	0	0	
11	0	0	0	0	616	486	0	0	0	0	
12	0	0	0	0	609	473	0	0	0	0	
13	0	0	0	0	607	470	0	0	0	0	
14	0	0	0	0	611	475	0	0	0	0	
15	0	0	0	0	619	489	0	0	0	0	
0	0	0	0	0	633	511	0	0	0	0	
1	0	0	0	0	649	537	0	0	0	0	
2	0	0	0	0	666	565	0	0	0	0	
3	0	0	0	0	681	592	0	0	0	0	
4	0	0	0	0	697	616	0	0	0	0	
5	0	0	0	0	708	636	0	0	0	0	
6	0	0	0	0	715	647	0	0	0	0	
7	0	0	0	0	716	649	0	0	0	0	
8	0	0	0	0	713	644	0	0	0	0	
9	0	0	0	0	703	630	0	0	0	0	
10	0	0	0	0	692	609	0	0	0	0	
11	0	0	0	0	677	583	0	0	0	0	
12	0	0	0	0	660	556	0	0	0	0	
13	0	0	0	0	643	528	0	0	0	0	
14	0	0	0	0	630	505	0	0	0	0	
15	0	0	0	0	618	487	0	0	0	0	
0	0	0	0	0	611	476	0	0	0	0	
1	0	0	0	0	609	474	0	0	0	0	
2	0	0	0	0	612	481	0	0	0	0	
3	0	0	0	0	619	496	0	0	0	0	
4	0	0	0	0	632	518	0	0	0	0	
5	0	0	0	0	646	543	0	0	0	0	
6	0	0	0	0	661	571	0	0	0	0	
7	0	0	0	0	675	598	0	0	0	0	
8	0	0	0	0	689	621	0	0	0	0	
9	0	0	0	0	699	639	0	0	0	0	
10	0	0	0	0	704	649	0	0	0	0	
11	0	0	0	0	705	651	0	0	0	0	
12	0	0	0	0	700	644	0	0	0	0	
13	0	0	0	0	691	629	0	0	0	0	
14	0	0	0	0	679	607	0	0	0	0	
15	0	0	0	0	663	579	0	0	0	0	
0	0	0	0	0	647	550	0	0	0	0	
1	0	0	0	0	631	521	0	0	0	0	
2	0	0	0	0	616	496	0	0	0	0	
3	0	0	0	0	606	478	0	0	0	0	
4	0	0	0	0	600	466	0	0	0	0	
5	0	0	0	0	599	464	0	0	0	0	
6	0	0	0	0	603	472	0	0	0	0	
7	0	0	0	0	611	487	0	0	0	0	
8	0	0	0	0	625	510	0	0	0	0	
9	0	0	0	0	641	537	0	0	0	0	
10	0	0	0	0	658	566	0	0	0	0	
11	0	0	0	0	675	594	0	0	0	0	
12	0	0	0	0	689	620	0	0	0	0	
13	0	0	0	0	702	639	0	0	0	0	
14	0	0	0	0	709	652	0	0	0	0	
15	0	0	0	0	711	655	0	0	0	0	
0	0	0	0	0	708	651	0	0	0	0	
1	0	0	0	0	700	637	0	0	0	0	
2	0	0	0	0	689	617	0	0	0	0	
3	0	0	0	0	673	591	0	0	0	0	
4	0	0	0	0	656	562	0	0	0	0	
5	0	0	0	0	639	534	0	0	0	0	
6	0	0	0	0	623	508	0	0	0	0	
7	0	0	0	0	611	488	0	0	0	0	
8	0	0	0	0	603	476	0	0	0	0	
9	0	0	0	0	600	472	0	0	0	0	
10	0	0	0	0	601	476	0	0	0	0	
11	0	0	0	0	608	490	0	0	0	0	
12	0	0	0	0	621	511	0	0	0	0	
13	0	0	0	0	635	536	0	0	0	0	
14	0	0	0	0	650	563	0	0	0	0	
15	0	0	0	0	665	590	0	0	0	0	
0	0	0	0	0	678	613	0	0	0	0	
1	0	0	0	0	689	631	0	0	0	0	
2	0	0	0	0	695	641	0	0	0	0	
3	0	0	0	0	696	644	0	0	0	0	
4	0	0	0	0	692	638	0	0	0	0	
5	0	0	0	0	683	624	0	0	0	0	
6	0	0	0	0	671	604	0	0	0	0	
7	0	0	0	0	657	579	0	0	0	0	
8	0	0	0	0	641	551	0	0	0	0	
9	0	0	0	0	625	524	0	0	0	0	
10	0	0	0	0	612	500	0	0	0	0	
11	0	0	0	0	603	482	0	0	0	0	
12	0	0	0	0	597	472	0	0	0	0	
13	0	0	0	0	596	469	0	0	0	0	
14	0	0	0	0	600	476	0	0	0	0	
15	0	0	0	0	607	490	0	0	0	0	
0	0	0	0	0	620	511	0	0	0	0	
1	0	0	0	0	634	538	0	0	0	0	
2	0	0	0	0	649	566	0	0	0	0	
3	0	0	0	0	665	594	0	0	0	0	
4	0	0	0	0	677	618	0	0	0	0	
5	0	0	0	0	688	638	0	0	0	0	
6	0	0	0	0	694	650	0	0	0	0	
7	0	0	0	0	696	654	0	0	0	0	
8	0	0	0	0	693	648	0	0	0	0	
9	0	0	0	0	685	636	0	0	0	0	
10	0	0	0	0	675	615	0	0	0	0	
11	0	0	0	0	663	590	0	0	0	0	
12	0	0	0	0	648	562	0	0	0	0	
13	0	0	0	0	635	535	0	0	0	0	
14	0	0	0	0	623	510	0	0	0	0	
15	0	0	0	0	614	490	0	0	0	0	
0	0	0	0	0	607	478	0	0	0	0	
1	0	0	0	0	605	474	0	0	0	0	
2	0	0	0	0	607	479	0	0	0	0	
3	0	0	0	0	613	491	0	0	0	0	
4	0	0	0	0	624	511	0	0	0	0	
5	0	0	0	0	636	536	0	0	0	0	
6	0	0	0	0	649	563	0	0	0	0	
7	0	0	0	0	664	590	0	0	0	0	
8	0	0	0	0	677	614	0	0	0	0	
9	0	0	0	0	688	633	0	0	0	0	
10	0	0	0	0	695	644	0	0	0	0	
11	0	0	0	0	697	648	0	0	0	0	
12	0	0	0	0	696	644	1	0	0	0	
13	0	0	0	0	690	631	0	0	0	0	
14	0	0	0	0	682	612	0	0	0	0	
15	0	0	0	0	671	588	0	0	0	0	
0	0	0	0	0	658	561	0	0	0	0	
1	0	0	0	0	644	535	0	0	0	0	
2	0	0	0	0	631	511	0	0	0	0	
3	0	0	0	0	623	494	0	0	0	0	
4	0	0	0	0	615	483	0	0	0	0	
5	0	0	0	0	613	481	0	0	0	0	
6	0	0	0	0	613	487	0	0	0	0	
7	0	0	0	0	619	502	0	0	0	0	
8	0	0	0	0	628	522	0	0	0	0	
9	0	0	0	0	639	546	0	0	0	0	
10	0	0	0	0	652	572	0	0	0	0	
11	0	0	0	0	663	596	0	0	0	0	
12	0	0	0	0	673	619	0	0	0	0	
13	0	0	0	0	683	635	0	0	0	0	
14	0	0	0	0	688	645	0	0	0	0	
15	0	0	0	0	690	646	0	0	0	0	
0	0	0	0	0	687	639	0	0	0	0	
1	0	0	0	0	679	625	0	0	0	0	
2	0	0	0	0	671	604	0	0	0	0	
3	0	0	0	0	659	579	0	0	0	0	
4	0	0	0	0	645	551	0	0	0	0	
5	0	0	0	0	632	525	0	0	0	0	
6	0	0	0	0	621	501	0	0	0	0	
7	0	0	0	0	612	484	0	0	0	0	
8	0	0	0	0	606	474	0	0	0	0	
9	0	0	0	0	605	473	0	0	0	0	
10	0	0	0	0	608	480	0	0	0	0	
11	0	0	0	0	617	495	0	0	0	0	
12	0	0	0	0	630	516	0	0	0	0	
13	0	0	0	0	643	542	0	0	0	0	
14	0	0	0	0	660	570	0	0	0	0	
15	0	0	0	0	676	597	0	0	0	0	
0	0	0	0	0	690	621	0	0	0	0	
1	0	0	0	0	702	640	0	0	0	0	
2	0	0	0	0	708	651	0	0	0	0	
3	0	0	0	0	710	655	0	0	0	0	
4	0	0	0	0	708	649	0	0	0	0	
5	0	0	0	0	699	636	0	0	0	0	
6	0	0	0	0	688	615	0	0	0	0	
7	0	0	0	0	673	590	0	0	0	0	
8	0	0	0	0	655	563	0	0	0	0	
9	0	0	0	0	638	534	0	0	0	0	
10	0	0	0	0	623	509	0	0	0	0	
11	0	0	0	0	611	489	0	0	0	0	
12	0	0	0	0	602	476	0	0	0	0	
13	0	0	0	0	599	473	0	0	0	0	
14	0	0	0	0	601	477	0	0	0	0	
15	0	0	0	0	608	490	0	0	0	0	
0	0	0	0	0	620	509	0	0	0	0	
1	0	0	0	0	635	533	0	0	0	0	
2	0	0	0	0	651	560	0	0	0	0	
3	0	0	0	0	668	587	0	0	0	0	
4	0	0	0	0	681	611	0	0	0	0	
5	0	0	0	0	694	630	0	0	0	0	
6	0	0	0	0	702	642	0	0	0	0	
7	0	0	0	0	704	646	0	0	0	0	
8	0	0	0	0	702	642	0	0	0	0	
9	0	0	0	0	693	630	0	0	0	0	
10	0	0	0	0	682	610	0	0	0	0	
11	0	0	0	0	667	586	0	0	0	0	
12	0	0	0	0	650	559	0	0	0	0	
13	0	0	0	0	633	531	0	0	0	0	
14	0	0	0	0	617	507	0	0	0	0	
15	0	0	0	0	606	488	0	0	0	0	
0	0	0	0	0	599	477	0	0	0	0	
1	0	0	0	0	596	473	0	0	0	0	
2	0	0	0	0	599	479	0	0	0	0	
3	0	0	0	0	608	494	0	0	0	0	
4	0	0	0	0	623	516	0	0	0	0	
5	0	0	0	0	639	542	0	0	0	0	
6	0	0	0	0	656	571	0	0	0	0	
7	0	0	0	0	673	599	0	0	0	0	
8	0	0	0	0	688	624	0	0	0	0	
9	0	0	0	0	700	644	0	0	0	0	
10	0	0	0	0	706	656	0	0	0	0	
11	0	0	0	0	707	659	0	0	0	0	
12	0	0	0	0	701	654	0	0	0	0	
13	0	0	0	0	691	639	0	0	0	0	
14	0	0	0	0	678	617	0	0	0	0	
15	0	0	0	0	660	590	0	0	0	0	
0	0	0	0	0	642	560	0	0	0	0	
1	0	0	0	0	624	530	0	0	0	0	
2	0	0	0	0	609	504	0	0	0	0	
3	0	0	0	0	598	483	0	0	0	0	
4	0	0	0	0	591	470	0	0	0	0	
5	0	0	0	0	590	466	0	0	0	0	
6	0	0	0	0	594	470	0	0	0	0	
7	0	0	0	0	603	483	0	0	0	0	
8	0	0	0	0	615	504	0	0	0	0	
9	0	0	0	0	630	529	0	0	0	0	
10	0	0	0	0	646	557	0	0	0	0	
11	0	0	0	0	660	583	0	0	0	0	
12	0	0	0	0	671	607	0	0	0	0	
13	0	0	0	0	682	626	0	0	0	0	
14	0	0	0	0	687	638	0	0	0	0	
15	0	0	0	0	688	641	0	0	0	0	
0	0	0	0	0	685	637	0	0	0	0	
1	0	0	0	0	677	624	0	0	0	0	
2	0	0	0	0	667	604	0	0	0	0	
3	0	0	0	0	653	579	0	0	0	0	
4	0	0	0	0	639	553	0	0	0	0	
5	0	0	0	0	627	526	0	0	0	0	
6	0	0	0	0	615	504	0	0	0	0	
7	0	0	0	0	607	486	0	0	0	0	
8	0	0	0	0	603	476	0	0	0	0	
9	0	0	0	0	603	475	0	0	0	0	
10	0	0	0	0	608	482	0	0	0	0	
11	0	0	0	0	616	497	0	0	0	0	
12	0	0	0	0	628	518	0	0	0	0	
13	0	0	0	0	640	543	0	0	0	0	
14	0	0	0	0	654	570	0	0	0	0	
15	0	0	0	0	667	595	0	0	0	0	
0	0	0	0	0	675	617	0	0	0	0	
1	0	0	0	0	684	634	0	0	0	0	
2	0	0	0	0	685	643	0	0	0	0	
3	0	0	0	0	683	643	0	0	0	0	
4	0	0	0	0	676	636	0	0	0	0	
5	0	0	0	0	665	621	0	0	0	0	
6	0	0	0	0	652	598	0	0	0	0	
7	0	0	0	0	636	571	0	0	0	0	
8	0	0	0	0	621	542	0	0	0	0	
9	0	0	0	0	604	513	0	0	0	0	
10	0	0	0	0	593	488	0	0	0	0	
11	0	0	0	0	583	469	0	0	0	0	
12	0	0	0	0	578	457	0	0	0	0	
13	0	0	0	0	578	454	0	0	0	0	
14	0	0	0	0	583	459	0	0	0	0	
15	0	0	0	0	591	473	0	0	0	0	
0	0	0	0	0	604	494	0	0	0	0	
1	0	0	0	0	619	520	0	0	0	0	
2	0	0	0	0	635	548	0	0	0	0	
3	0	0	0	0	650	576	0	0	0	0	
4	0	0	0	0	663	601	0	0	0	0	
5	0	0	0	0	675	621	0	0	0	0	
6	0	0	0	0	681	633	0	0	0	0	
7	0	0	0	0	683	637	0	0	0	0	
8	0	0	0	0	681	632	0	0	0	0	
9	0	0	0	0	673	619	0	0	0	0	
10	0	0	0	0	663	599	0	0	0	0	
11	0	0	0	0	649	573	0	0	0	0	
12	0	0	0	0	635	545	0	0	0	0	
13	0	0	0	0	620	517	0	0	0	0	
14	0	0	0	0	606	492	0	0	0	0	
15	0	0	0	0	597	472	0	0	0	0	
0	0	0	0	0	591	460	0	0	0	0	
1	0	0	0	0	588	456	0	0	0	0	
2	0	0	0	0	591	461	0	0	0	0	
3	0	0	0	0	597	473	0	0	0	0	
4	0	0	0	0	608	492	0	0	0	0	
5	0	0	0	0	620	516	0	0	0	0	
6	0	0	0	0	635	542	0	0	0	0	
7	0	0	0	0	649	568	0	0	0	0	
8	0	0	0	0	662	591	0	0	0	0	
9	0	0	0	0	673	609	0	0	0	0	
10	0	0	0	0	679	621	0	0	0	0	
11	0	0	0	0	681	624	0	0	0	0	
12	0	0	0	0	678	620	0	0	0	0	
13	0	0	0	0	669	607	0	0	0	0	
14	0	0	0	0	657	588	0	0	0	0	
15	0	0	0	0	641	563	0	0	0	0	
0	0	0	0	0	624	536	0	0	0	0	
1	0	0	0	0	607	509	0	0	0	0	
2	0	0	0	0	591	485	0	0	0	0	
3	0	0	0	0	579	467	0	0	0	0	
4	0	0	0	0	572	456	0	0	0	0	
5	0	0	0	0	568	454	0	0	0	0	
6	0	0	0	0	569	459	0	0	0	0	
7	0	0	0	0	577	474	0	0	0	0	
8	0	0	0	0	589	496	0	0	0	0	
9	0	0	0	0	603	522	0	0	0	0	
10	0	0	0	0	621	551	0	0	0	0	
11	0	0	0	0	638	579	0	0	0	0	
12	0	0	0	0	654	605	0	0	0	0	
13	0	0	0	0	668	625	0	0	0	0	
14	0	0	0	0	678	639	0	0	0	0	
15	0	0	0	0	683	643	0	0	0	0	
0	0	0	0	0	682	639	0	0	0	0	
1	0	0	0	0	677	627	0	0	0	0	
2	0	0	0	0	667	607	0	0	0	0	
3	0	0	0	0	652	582	0	0	0	0	
4	0	0	0	0	635	553	0	0	0	0	
5	0	0	0	0	617	524	0	0	0	0	
6	0	0	0	0	602	499	0	0	0	0	
7	0	0	0	0	590	479	0	0	0	0	
8	0	0	0	0	582	467	0	0	0	0	
9	0	0	0	0	579	464	0	0	0	0	
10	0	0	0	0	582	470	0	0	0	0	
11	0	0	0	0	591	485	0	0	0	0	
12	0	0	0	0	604	507	0	0	0	0	
13	0	0	0	0	620	533	0	0	0	0	
14	0	0	0	0	636	561	0	0	0	0	
15	0	0	0	0	652	589	0	0	0	0	
0	0	0	0	0	667	614	0	0	0	0	
1	0	0	0	0	678	633	0	0	0	0	
2	0	0	0	0	684	646	0	0	0	0	
3	0	0	0	0	685	649	0	0	0	0	
4	0	0	0	0	680	644	0	0	0	0	
5	0	0	0	0	672	632	0	0	0	0	
6	0	0	0	0	660	612	0	0	0	0	
7	0	0	0	0	644	587	0	0	0	0	
8	0	0	0	0	627	559	0	0	0	0	
9	0	0	0	0	611	531	0	0	0	0	
10	0	0	0	0	596	507	0	0	0	0	
11	0	0	0	0	584	486	0	0	0	0	
12	0	0	0	0	576	473	0	0	0	0	
13	0	0	0	0	573	467	0	0	0	0	
14	0	0	0	0	574	470	0	0	0	0	
15	0	0	0	0	580	481	0	0	0	0	
0	0	0	0	0	591	499	0	0	0	0	
1	0	0	0	0	604	523	0	0	0	0	
2	0	0	0	0	620	550	0	0	0	0	
3	0	0	0	0	636	577	0	0	0	0	
4	0	0	0	0	652	603	0	0	0	0	
5	0	0	0	0	665	624	0	0	0	0	
6	0	0	0	0	675	639	0	0	0	0	
7	0	0	0	0	680	647	0	0	0	0	
8	0	0	0	0	680	646	0	0	0	0	
9	0	0	0	0	676	637	0	0	0	0	
10	0	0	0	0	668	620	0	0	0	0	
11	0	0	0	0	656	598	0	0	0	0	
12	0	0	0	0	641	573	0	0	0	0	
13	0	0	0	0	626	546	0	0	0	0	
14	0	0	0	0	612	521	0	0	0	0	
15	0	0	0	0	600	501	0	0	0	0	
0	0	0	0	0	591	487	0	0	0	0	
1	0	0	0	0	585	481	0	0	0	0	
2	0	0	0	0	585	483	0	0	0	0	
3	0	0	0	0	589	493	0	0	0	0	
4	0	0	0	0	598	510	0	0	0	0	
5	0	0	0	0	609	532	0	0	0	0	
6	0	0	0	0	623	557	0	0	0	0	
7	0	0	0	0	636	583	0	0	0	0	
8	0	0	0	0	650	606	0	0	0	0	
9	0	0	0	0	660	625	0	0	0	0	
10	0	0	0	0	667	638	0	0	0	0	
11	0	0	0	0	670	643	0	0	0	0	
12	0	0	0	0	667	639	0	0	0	0	
13	0	0	0	0	661	628	0	0	0	0	
14	0	0	0	0	651	610	0	0	0	0	
15	0	0	0	0	637	586	0	0	0	0	
0	0	0	0	0	623	560	0	0	0	0	
1	0	0	0	0	607	533	0	0	0	0	
2	0	0	0	0	594	510	0	0	0	0	
3	0	0	0	0	584	491	0	0	0	0	
4	0	0	0	0	577	480	0	0	0	0	
5	0	0	0	0	575	476	0	0	0	0	
6	0	0	0	0	576	480	0	0	0	0	
7	0	0	0	0	583	492	0	0	0	0	
8	0	0	0	0	593	511	0	0	0	0	
9	0	0	0	0	606	535	0	0	0	0	
10	0	0	0	0	619	560	0	0	0	0	
11	0	0	0	0	632	586	0	0	0	0	
12	0	0	0	0	645	610	0	0	0	0	
13	0	0	0	0	656	629	0	0	0	0	
14	0	0	0	0	663	642	0	0	0	0	
15	0	0	0	0	666	647	0	0	0	0	
0	0	0	0	0	664	645	0	0	0	0	
1	0	0	0	0	659	635	0	0	0	0	
2	0	0	0	0	651	618	0	0	0	0	
3	0	0	0	0	641	597	0	0	0	0	
4	0	0	0	0	630	573	0	0	0	0	
5	0	0	0	0	619	548	0	0	0	0	
6	0	0	0	0	608	525	0	0	0	0	
7	0	0	0	0	601	507	0	0	0	0	
8	0	0	0	0	595	494	0	0	0	0	
9	0	0	0	0	593	488	0	0	0	0	
10	0	0	0	0	594	490	0	0	0	0	
11	0	0	0	0	598	499	0	0	0	0	
12	0	0	0	0	606	515	0	0	0	0	
13	0	0	0	0	615	536	0	0	0	0	
14	0	0	0	0	627	559	0	0	0	0	
15	0	0	0	0	636	582	0	0	0	0	
0	0	0	0	0	646	604	0	0	0	0	
1	0	0	0	0	655	621	0	0	0	0	
2	0	0	0	0	659	632	0	0	0	0	
3	0	0	0	0	660	635	0	0	0	0	
4	0	0	0	0	657	630	0	0	0	0	
5	0	0	0	0	651	617	0	0	0	0	
6	0	0	0	0	641	599	0	0	0	0	
7	0	0	0	0	630	575	0	0	0	0	
8	0	0	0	0	617	549	0	0	0	0	
9	0	0	0	0	604	524	0	0	0	0	
10	0	0	0	0	593	501	0	0	0	0	
11	0	0	0	0	585	483	0	0	0	0	
12	0	0	0	0	580	473	0	0	0	0	
13	0	0	0	0	579	471	0	0	0	0	
14	0	0	0	0	583	476	0	0	0	0	
15	0	0	0	0	589	490	0	0	0	0	
0	0	0	0	0	600	510	0	0	0	0	
1	0	0	0	0	612	534	0	0	0	0	
2	0	0	0	0	626	561	0	0	0	0	
3	0	0	0	0	640	587	0	0	0	0	
4	0	0	0	0	652	610	0	0	0	0	
5	0	0	0	0	663	630	0	0	0	0	
6	0	0	0	0	670	642	0	0	0	0	
7	0	0	0	0	672	646	0	0	0	0	
8	0	0	0	0	670	642	0	0	0	0	
9	0	0	0	0	664	630	0	0	0	0	
10	0	0	0	0	656	611	0	0	0	0	
11	0	0	0	0	643	587	0	0	0	0	
12	0	0	0	0	631	560	0	0	0	0	
13	0	0	0	0	618	534	0	0	0	0	
14	0	0	0	0	606	510	0	0	0	0	
15	0	0	0	0	597	491	0	0	0	0	
0	0	0	0	0	591	479	0	0	0	0	
1	0	0	0	0	590	476	0	0	0	0	
2	0	0	0	0	591	480	0	0	0	0	
3	0	0	0	0	597	492	0	0	0	0	
4	0	0	0	0	607	511	0	0	0	0	
5	0	0	0	0	619	534	0	0	0	0	
6	0	0	0	0	632	559	0	0	0	0	
7	0	0	0	0	644	584	0	0	0	0	
8	0	0	0	0	657	607	0	0	0	0	
9	0	0	0	0	667	625	0	0	0	0	
10	0	0	0	0	672	637	0	0	0	0	
11	0	0	0	0	674	640	0	0	0	0	
12	0	0	0	0	672	635	0	0	0	0	
13	0	0	0	0	664	622	0	0	0	0	
14	0	0	0	0	655	603	0	0	0	0	
15	0	0	0	0	641	578	0	0	0	0	
0	0	0	0	0	626	550	0	0	0	0	
1	0	0	0	0	611	523	0	0	0	0	
2	0	0	0	0	597	498	0	0	0	0	
3	0	0	0	0	587	479	0	0	0	0	
4	0	0	0	0	580	467	0	0	0	0	
5	0	0	0	0	578	463	0	0	0	0	
6	0	0	0	0	581	468	0	0	0	0	
7	0	0	0	0	588	481	0	0	0	0	
8	0	0	0	0	600	501	0	0	0	0	
9	0	0	0	0	614	526	0	0	0	0	
10	0	0	0	0	630	553	0	0	0	0	
11	0	0	0	0	647	581	0	0	0	0	
12	0	0	0	0	662	606	0	0	0	0	
13	0	0	0	0	675	627	0	0	0	0	
14	0	0	0	0	684	641	0	0	0	0	
15	0	0	0	0	688	647	0	0	0	0	
0	0	0	0	0	688	645	0	0	0	0	
1	0	0	0	0	682	635	0	0	0	0	
2	0	0	0	0	673	616	0	0	0	0	
3	0	0	0	0	659	593	0	0	0	0	
4	0	0	0	0	644	567	0	0	0	0	
5	0	0	0	0	629	540	0	0	0	0	
6	0	0	0	0	613	515	0	0	0	0	
7	0	0	0	0	602	496	0	0	0	0	
8	0	0	0	0	594	484	0	0	0	0	
9	0	0	0	0	590	479	0	0	0	0	
10	0	0	0	0	590	483	0	0	0	0	
11	0	0	0	0	596	495	0	0	0	0	
12	0	0	0	0	606	514	0	0	0	0	
13	0	0	0	0	619	537	0	0	0	0	
14	0	0	0	0	633	563	0	0	0	0	
15	0	0	0	0	647	589	0	0	0	0	
0	0	0	0	0	661	613	0	0	0	0	
1	0	0	0	0	672	632	0	0	0	0	
2	0	0	0	0	679	644	0	0	0	0	
3	0	0	0	0	681	648	0	0	0	0	
4	0	0	0	0	679	643	0	0	0	0	
5	0	0	0	0	671	630	0	0	0	0	
6	0	0	0	0	661	610	0	0	0	0	
7	0	0	0	0	646	584	0	0	0	0	
8	0	0	0	0	630	556	0	0	0	0	
9	0	0	0	0	614	527	0	0	0	0	
10	0	0	0	0	599	501	0	0	0	0	
11	0	0	0	0	588	480	0	0	0	0	
12	0	0	0	0	580	467	0	0	0	0	
13	0	0	0	0	577	461	0	0	0	0	
14	0	0	0	0	579	465	0	0	0	0	
15	0	0	0	0	587	476	0	0	0	0	
0	0	0	0	0	598	494	0	0	0	0	
1	0	0	0	0	611	517	0	0	0	0	
2	0	0	0	0	626	543	0	0	0	0	
3	0	0	0	0	641	569	0	0	0	0	
4	0	0	0	0	653	593	0	0	0	0	
5	0	0	0	0	665	613	0	0	0	0	
6	0	0	0	0	671	627	0	0	0	0	
7	0	0	0	0	672	632	0	0	0	0	
8	0	0	0	0	669	630	0	0	0	0	
9	0	0	0	0	662	619	0	0	0	0	
10	0	0	0	0	650	601	0	0	0	0	
11	0	0	0	0	636	577	0	0	0	0	
12	0	0	0	0	620	551	0	0	0	0	
13	0	0	0	0	604	524	0	0	0	0	
14	0	0	0	0	590	499	0	0	0	0	
15	0	0	0	0	579	479	0	0	0	0	
0	0	0	0	0	572	466	0	0	0	0	
1	0	0	0	0	571	462	0	0	0	0	
2	0	0	0	0	574	466	0	0	0	0	
3	0	0	0	0	582	478	0	0	0	0	
4	0	0	0	0	593	498	0	0	0	0	
5	0	0	0	0	607	523	0	0	0	0	
6	0	0	0	0	623	550	0	0	0	0	
7	0	0	0	0	639	578	0	0	0	0	
8	0	0	0	0	654	604	0	0	0	0	
9	0	0	0	0	665	625	0	0	0	0	
10	0	0	0	0	673	639	0	0	0	0	
11	0	0	0	0	676	646	0	0	0	0	
12	0	0	0	0	673	643	0	0	0	0	
13	0	0	0	0	666	632	0	0	0	0	
14	0	0	0	0	655	613	0	0	0	0	
15	0	0	0	0	641	589	0	0	0	0	
0	0	0	0	0	625	561	0	0	0	0	
1	0	0	0	0	610	533	0	0	0	0	
2	0	0	0	0	595	506	0	0	0	0	
3	0	0	0	0	584	486	0	0	0	0	
4	0	0	0	0	575	471	0	0	0	0	
5	0	0	0	0	572	465	0	0	0	0	
6	0	0	0	0	573	467	0	0	0	0	
7	0	0	0	0	578	479	0	0	0	0	
8	0	0	0	0	588	497	0	0	0	0	
9	0	0	0	0	600	521	0	0	0	0	
10	0	0	0	0	615	548	0	0	0	0	
11	0	0	0	0	630	576	0	0	0	0	
12	0	0	0	0	643	601	0	0	0	0	
13	0	0	0	0	655	623	0	0	0	0	
14	0	0	0	0	664	637	0	0	0	0	
15	0	0	0	0	667	644	0	0	0	0	
0	0	0	0	0	666	643	0	0	0	0	
1	0	0	0	0	660	633	0	0	0	0	
2	0	0	0	0	652	615	0	0	0	0	
3	0	0	0	0	639	592	0	0	0	0	
4	0	0	0	0	624	566	0	0	0	0	
5	0	0	0	0	608	538	0	0	0	0	
6	0	0	0	0	594	512	0	0	0	0	
7	0	0	0	0	583	491	0	0	0	0	
8	0	0	0	0	574	477	0	0	0	0	
9	0	0	0	0	569	470	0	0	0	0	
10	0	0	0	0	569	472	0	0	0	0	
11	0	0	0	0	573	482	0	0	0	0	
12	0	0	0	0	583	500	0	0	0	0	
13	0	0	0	0	595	523	0	0	0	0	
14	0	0	0	0	609	549	0	0	0	0	
15	0	0	0	0	624	575	0	0	0	0	
0	0	0	0	0	639	600	0	0	0	0	
1	0	0	0	0	653	622	0	0	0	0	
2	0	0	0	0	664	637	0	0	0	0	
3	0	0	0	0	671	645	0	0	0	0	
4	0	0	0	0	672	644	0	0	0	0	
5	0	0	0	0	670	635	0	0	0	0	
6	0	0	0	0	663	619	0	0	0	0	
7	0	0	0	0	653	597	0	0	0	0	
8	0	0	0	0	640	572	0	0	0	0	
9	0	0	0	0	626	546	0	0	0	0	
10	0	0	0	0	612	523	0	0	0	0	
11	0	0	0	0	601	504	0	0	0	0	
12	0	0	0	0	593	491	0	0	0	0	
13	0	0	0	0	589	486	0	0	0	0	
14	0	0	0	0	589	490	0	0	0	0	
15	0	0	0	0	593	502	0	0	0	0	
0	0	0	0	0	603	521	0	0	0	0	
1	0	0	0	0	616	545	0	0	0	0	
2	0	0	0	0	630	573	0	0	0	0	
3	0	0	0	0	647	601	0	0	0	0	
4	0	0	0	0	661	626	0	0	0	0	
5	0	0	0	0	675	648	0	0	0	0	
6	0	0	0	0	684	662	0	0	0	0	
7	0	0	0	0	689	669	0	0	0	0	
8	0	0	0	0	688	666	0	0	0	0	
9	0	0	0	0	682	655	0	0	0	0	
10	0	0	0	0	672	636	0	0	0	0	
11	0	0	0	0	657	610	0	0	0	0	
12	0	0	0	0	638	580	0	0	0	0	
13	0	0	0	0	617	550	0	0	0	0	
14	0	0	0	0	597	519	0	0	0	0	
15	0	0	0	0	577	494	0	0	0	0	
0	0	0	0	0	561	474	0	0	0	0	
1	0	0	0	0	548	461	0	0	0	0	
2	0	0	0	0	540	457	0	0	0	0	
3	0	0	0	0	535	460	0	0	0	0	
4	0	0	0	0	536	470	0	0	0	0	
5	0	0	0	0	539	485	0	0	0	0	
6	0	0	0	0	545	502	0	0	0	0	
7	0	0	0	0	551	519	0	0	0	0	
8	0	0	0	0	556	534	0	0	0	0	
9	0	0	0	0	559	544	0	0	0	0	
10	0	0	0	0	558	546	0	0	0	0	
11	0	0	0	0	552	540	0	0	0	0	
12	0	0	0	0	541	526	0	0	0	0	
13	0	0	0	0	526	504	0	0	0	0	
14	0	0	0	0	506	475	0	0	0	0	
15	0	0	0	0	483	441	0	0	0	0	
0	0	0	0	0	460	405	0	0	0	0	
1	0	0	0	0	436	369	0	0	0	0	
2	0	0	0	0	414	336	0	0	0	0	
3	0	0	0	0	398	311	0	0	0	0	
4	0	0	0	0	388	294	0	0	0	0	
5	0	0	0	0	385	287	0	0	0	0	
6	0	0	0	0	391	292	0	0	0	0	
7	0	0	0	0	404	311	0	0	0	0	
8	0	0	0	0	426	339	0	0	0	0	
9	0	0	0	0	454	377	0	0	0	0	
10	0	0	0	0	487	422	0	0	0	0	
11	0	0	0	0	521	469	0	0	0	0	
12	0	0	0	0	556	516	0	0	0	0	
13	0	0	0	0	589	558	0	0	0	0	
14	0	0	0	0	617	593	0	0	0	0	
15	0	0	0	0	641	619	0	0	0	0	
0	0	0	0	0	657	634	0	0	0	0	
1	0	0	0	0	667	639	0	0	0	0	
2	0	0	0	0	671	635	0	0	0	0	
3	0	0	0	0	668	622	0	0	0	0	
4	0	0	0	0	661	603	0	0	0	0	
5	0	0	0	0	651	582	0	0	0	0	
6	0	0	0	0	639	561	0	0	0	0	
7	0	0	0	0	628	543	0	0	0	0	
8	0	0	0	0	619	529	0	0	0	0	
9	0	0	0	0	611	522	0	0	0	0	
10	0	0	0	0	606	522	0	0	0	0	
11	0	0	0	0	607	530	0	0	0	0	
12	0	0	0	0	611	544	0	0	0	0	
13	0	0	0	0	619	563	0	0	0	0	
14	0	0	0	0	628	585	0	0	0	0	
15	0	0	0	0	639	608	0	0	0	0	
0	0	0	0	0	648	630	0	0	0	0	
1	0	0	0	0	658	647	0	0	0	0	
2	0	0	0	0	664	659	0	0	0	0	
3	0	0	0	0	666	664	0	0	0	0	
4	0	0	0	0	664	661	0	0	0	0	
5	0	0	0	0	657	651	0	0	0	0	
6	0	0	0	0	649	634	0	0	0	0	
7	0	0	0	0	637	611	0	0	0	0	
8	0	0	0	0	624	586	0	0	0	0	
9	0	0	0	0	610	559	0	0	0	0	
10	0	0	0	0	599	536	0	0	0	0	
11	0	0	0	0	591	517	0	0	0	0	
12	0	0	0	0	586	504	0	0	0	0	
13	0	0	0	0	585	500	0	0	0	0	
14	0	0	0	0	589	503	0	0	0	0	
15	0	0	0	0	598	515	0	0	0	0	
0	0	0	0	0	610	534	0	0	0	0	
1	0	0	0	0	624	558	0	0	0	0	
2	0	0	0	0	640	584	0	0	0	0	
3	0	0	0	0	656	611	0	0	0	0	
4	0	0	0	0	669	636	0	0	0	0	
5	0	0	0	0	681	656	0	0	0	0	
6	0	0	0	0	689	669	0	0	0	0	
7	0	0	0	0	691	675	0	0	0	0	
8	0	0	0	0	689	671	0	0	0	0	
9	0	0	0	0	681	660	0	0	0	0	
10	0	0	0	0	669	641	0	0	0	0	
11	0	0	0	0	654	616	0	0	0	0	
12	0	0	0	0	636	588	0	0	0	0	
13	0	0	0	0	619	559	0	0	0	0	
14	0	0	0	0	603	533	0	0	0	0	
15	0	0	0	0	590	512	0	0	0	0	
0	0	0	0	0	580	497	0	0	0	0	
1	0	0	0	0	577	491	0	0	0	0	
2	0	0	0	0	577	493	0	0	0	0	
3	0	0	0	0	583	504	0	0	0	0	
4	0	0	0	0	595	523	0	0	0	0	
5	0	0	0	0	609	548	0	0	0	0	
6	0	0	0	0	626	576	0	0	0	0	
7	0	0	0	0	644	605	0	0	0	0	
8	0	0	0	0	660	632	0	0	0	0	
9	0	0	0	0	674	655	0	0	0	0	
10	0	0	0	0	684	671	0	0	0	0	
11	0	0	0	0	689	679	0	0	0	0	
12	0	0	0	0	689	679	0	0	0	0	
13	0	0	0	0	684	671	0	0	0	0	
14	0	0	0	0	675	655	0	0	0	0	
15	0	0	0	0	662	632	0	0	0	0	
0	0	0	0	0	647	606	0	0	0	0	
1	0	0	0	0	631	578	0	0	0	0	
2	0	0	0	0	615	551	0	0	0	0	
3	0	0	0	0	603	529	0	0	0	0	
4	0	0	0	0	592	513	0	0	0	0	
5	0	0	0	0	587	505	0	0	0	0	
6	0	0	0	0	585	505	0	0	0	0	
7	0	0	0	0	588	514	0	0	0	0	
8	0	0	0	0	596	530	0	0	0	0	
9	0	0	0	0	606	551	0	0	0	0	
10	0	0	0	0	618	577	0	0	0	0	
11	0	0	0	0	630	602	0	0	0	0	
12	0	0	0	0	643	627	0	0	0	0	
13	0	0	0	0	654	648	0	0	0	0	
14	0	0	0	0	661	663	0	0	0	0	
15	0	0	0	0	665	671	0	0	0	0	
0	0	0	0	0	664	671	0	0	0	0	
1	0	0	0	0	661	663	0	0	0	0	
2	0	0	0	0	654	647	0	0	0	0	
3	0	0	0	0	642	625	0	0	0	0	
4	0	0	0	0	630	599	0	0	0	0	
5	0	0	0	0	615	571	0	0	0	0	
6	0	0	0	0	603	544	0	0	0	0	
7	0	0	0	0	591	521	0	0	0	0	
8	0	0	0	0	582	504	0	0	0	0	
9	0	0	0	0	576	494	0	0	0	0	
10	0	0	0	0	575	492	0	0	0	0	
11	0	0	0	0	577	500	0	0	0	0	
12	0	0	0	0	585	515	0	0	0	0	
13	0	0	0	0	595	535	0	0	0	0	
14	0	0	0	0	606	560	0	0	0	0	
15	0	0	0	0	619	585	0	0	0	0	
0	0	0	0	0	632	611	0	0	0	0	
1	0	0	0	0	643	632	0	0	0	0	
2	0	0	0	0	652	648	0	0	0	0	
3	0	0	0	0	657	657	0	0	0	0	
4	0	0	0	0	657	657	0	0	0	0	
5	0	0	0	0	655	650	0	0	0	0	
6	0	0	0	0	649	635	0	0	0	0	
7	0	0	0	0	639	614	0	0	0	0	
8	0	0	0	0	628	588	0	0	0	0	
9	0	0	0	0	615	561	0	0	0	0	
10	0	0	0	0	603	536	0	0	0	0	
11	0	0	0	0	593	514	0	0	0	0	
12	0	0	0	0	585	497	0	0	0	0	
13	0	0	0	0	580	488	0	0	0	0	
14	0	0	0	0	579	487	0	0	0	0	
15	0	0	0	0	584	495	0	0	0	0	
0	0	0	0	0	591	509	0	0	0	0	
1	0	0	0	0	601	529	0	0	0	0	
2	0	0	0	0	613	551	0	0	0	0	
3	0	0	0	0	625	575	0	0	0	0	
4	0	0	0	0	635	598	0	0	0	0	
5	0	0	0	0	644	616	0	0	0	0	
6	0	0	0	0	649	628	0	0	0	0	
7	0	0	0	0	651	634	0	0	0	0	
8	0	0	0	0	646	632	0	0	0	0	
9	0	0	0	0	639	621	0	0	0	0	
10	0	0	0	0	628	604	0	0	0	0	
11	0	0	0	0	615	583	0	0	0	0	
12	0	0	0	0	601	558	0	0	0	0	
13	0	0	0	0	587	533	0	0	0	0	
14	0	0	0	0	575	510	0	0	0	0	
15	0	0	0	0	566	491	0	0	0	0	
0	0	0	0	0	561	480	0	0	0	0	
1	0	0	0	0	560	474	0	0	0	0	
2	0	0	0	0	562	477	0	0	0	0	
3	0	0	0	0	568	487	0	0	0	0	
4	0	0	0	0	579	503	0	0	0	0	
5	0	0	0	0	591	524	0	0	0	0	
6	0	0	0	0	605	548	0	0	0	0	
7	0	0	0	0	618	572	0	0	0	0	
8	0	0	0	0	630	594	0	0	0	0	
9	0	0	0	0	639	612	0	0	0	0	
10	0	0	0	0	644	624	0	0	0	0	
11	0	0	0	0	646	630	0	0	0	0	
12	0	0	0	0	643	627	0	0	0	0	
13	0	0	0	0	636	618	0	0	0	0	
14	0	0	0	0	626	601	0	0	0	0	
15	0	0	0	0	612	580	0	0	0	0	
0	0	0	0	0	598	556	0	0	0	0	
1	0	0	0	0	583	531	0	0	0	0	
2	0	0	0	0	568	508	0	0	0	0	
3	0	0	0	0	558	489	0	0	0	0	
4	0	0	0	0	551	477	0	0	0	0	
5	0	0	0	0	549	473	0	0	0	0	
6	0	0	0	0	551	477	0	0	0	0	
7	0	0	0	0	560	490	0	0	0	0	
8	0	0	0	0	572	509	0	0	0	0	
9	0	0	0	0	587	532	0	0	0	0	
10	0	0	0	0	604	560	0	0	0	0	
11	0	0	0	0	620	587	0	0	0	0	
12	0	0	0	0	635	611	0	0	0	0	
13	0	0	0	0	648	632	0	0	0	0	
14	0	0	0	0	656	645	0	0	0	0	
15	0	0	0	0	659	652	0	0	0	0	
0	0	0	0	0	657	649	0	0	0	0	
1	0	0	0	0	649	638	0	0	0	0	
2	0	0	0	0	638	621	0	0	0	0	
3	0	0	0	0	623	598	0	0	0	0	
4	0	0	0	0	606	572	0	0	0	0	
5	0	0	0	0	589	544	0	0	0	0	
6	0	0	0	0	573	519	0	0	0	0	
7	0	0	0	0	561	500	0	0	0	0	
8	0	0	0	0	553	487	0	0	0	0	
9	0	0	0	0	551	481	0	0	0	0	
10	0	0	0	0	553	485	0	0	0	0	
11	0	0	0	0	560	496	0	0	0	0	
12	0	0	0	0	572	515	0	0	0	0	
13	0	0	0	0	586	538	0	0	0	0	
14	0	0	0	0	603	565	0	0	0	0	
15	0	0	0	0	619	591	0	0	0	0	
0	0	0	0	0	633	616	0	0	0	0	
1	0	0	0	0	645	637	0	0	0	0	
2	0	0	0	0	651	650	0	0	0	0	
3	0	0	0	0	653	655	0	0	0	0	
4	0	0	0	0	648	652	0	0	0	0	
5	0	0	0	0	640	640	0	0	0	0	
6	0	0	0	0	627	621	0	0	0	0	
7	0	0	0	0	611	596	0	0	0	0	
8	0	0	0	0	595	570	0	0	0	0	
9	0	0	0	0	578	542	0	0	0	0	
10	0	0	0	0	564	517	0	0	0	0	
11	0	0	0	0	554	498	0	0	0	0	
12	0	0	0	0	548	485	0	0	0	0	
13	0	0	0	0	548	480	0	0	0	0	
14	0	0	0	0	552	484	0	0	0	0	
15	0	0	0	0	562	496	0	0	0	0	
0	0	0	0	0	577	515	0	0	0	0	
1	0	0	0	0	592	538	0	0	0	0	
2	0	0	0	0	608	563	0	0	0	0	
3	0	0	0	0	625	589	0	0	0	0	
4	0	0	0	0	638	612	0	0	0	0	
5	0	0	0	0	649	632	0	0	0	0	
6	0	0	0	0	655	644	0	0	0	0	
7	0	0	0	0	655	650	0	0	0	0	
8	0	0	0	0	650	647	0	0	0	0	
9	0	0	0	0	640	637	0	0	0	0	
10	0	0	0	0	627	619	0	0	0	0	
11	0	0	0	0	611	597	0	0	0	0	
12	0	0	0	0	593	571	0	0	0	0	
13	0	0	0	0	577	545	0	0	0	0	
14	0	0	0	0	563	522	0	0	0	0	
15	0	0	0	0	552	504	0	0	0	0	
0	0	0	0	0	546	492	0	0	0	0	
1	0	0	0	0	545	487	0	0	0	0	
2	0	0	0	0	549	492	0	0	0	0	
3	0	0	0	0	557	503	0	0	0	0	
4	0	0	0	0	571	522	0	0	0	0	
5	0	0	0	0	587	545	0	0	0	0	
6	0	0	0	0	603	571	0	0	0	0	
7	0	0	0	0	618	596	0	0	0	0	
8	0	0	0	0	631	619	0	0	0	0	
9	0	0	0	0	640	636	0	0	0	0	
10	0	0	0	0	644	647	0	0	0	0	
11	0	0	0	0	643	650	0	0	0	0	
12	0	0	0	0	637	644	0	0	0	0	
13	0	0	0	0	627	630	0	0	0	0	
14	0	0	0	0	613	610	0	0	0	0	
15	0	0	0	0	597	585	0	0	0	0	
0	0	0	0	0	581	558	0	0	0	0	
1	0	0	0	0	567	532	0	0	0	0	
2	0	0	0	0	554	508	0	0	0	0	
3	0	0	0	0	547	491	0	0	0	0	
4	0	0	0	0	543	479	0	0	0	0	
5	0	0	0	0	546	476	0	0	0	0	
6	0	0	0	0	553	482	0	0	0	0	
7	0	0	0	0	564	495	0	0	0	0	
8	0	0	0	0	580	515	0	0	0	0	
9	0	0	0	0	597	540	0	0	0	0	
10	0	0	0	0	615	568	0	0	0	0	
11	0	0	0	0	632	595	0	0	0	0	
12	0	0	0	0	647	623	0	0	0	0	
13	0	0	0	0	661	646	0	0	0	0	
14	0	0	0	0	669	663	0	0	0	0	
15	0	0	0	0	671	671	0	0	0	0	
0	0	0	0	0	671	672	0	0	0	0	
1	0	0	0	0	663	665	0	0	0	0	
2	0	0	0	0	654	650	0	0	0	0	
3	0	0	0	0	639	628	0	0	0	0	
4	0	0	0	0	623	603	0	0	0	0	
5	0	0	0	0	607	577	0	0	0	0	
6	0	0	0	0	591	552	0	0	0	0	
7	0	0	0	0	579	532	0	0	0	0	
8	0	0	0	0	569	518	0	0	0	0	
9	0	0	0	0	565	511	0	0	0	0	
10	0	0	0	0	565	513	0	0	0	0	
11	0	0	0	0	569	523	0	0	0	0	
12	0	0	0	0	578	540	0	0	0	0	
13	0	0	0	0	589	563	0	0	0	0	
14	0	0	0	0	602	588	0	0	0	0	
15	0	0	0	0	616	614	0	0	0	0	
0	0	0	0	0	628	638	0	0	0	0	
1	0	0	0	0	638	657	0	0	0	0	
2	0	0	0	0	646	672	0	0	0	0	
3	0	0	0	0	648	679	0	0	0	0	
4	0	0	0	0	648	679	0	0	0	0	
5	0	0	0	0	643	671	0	0	0	0	
6	0	0	0	0	637	658	0	0	0	0	
7	0	0	0	0	627	639	0	0	0	0	
8	0	0	0	0	617	617	0	0	0	0	
9	0	0	0	0	607	596	0	0	0	0	
10	0	0	0	0	598	576	0	0	0	0	
11	0	0	0	0	592	561	0	0	0	0	
12	0	0	0	0	589	552	0	0	0	0	
13	0	0	0	0	589	551	0	0	0	0	
14	0	0	0	0	593	556	0	0	0	0	
15	0	0	0	0	600	570	0	0	0	0	
0	0	0	0	0	610	590	0	0	0	0	
1	0	0	0	0	623	614	0	0	0	0	
2	0	0	0	0	636	641	0	0	0	0	
3	0	0	0	0	651	669	0	0	0	0	
4	0	0	0	0	662	694	0	0	0	0	
5	0	0	0	0	673	715	0	0	0	0	
6	0	0	0	0	680	730	0	0	0	0	
7	0	0	0	0	683	738	0	0	0	0	
8	0	0	0	0	681	737	0	0	0	0	
9	0	0	0	0	676	729	0	0	0	0	
10	0	0	0	0	668	714	0	0	0	0	
11	0	0	0	0	658	693	0	0	0	0	
12	0	0	0	0	645	669	0	0	0	0	
13	0	0	0	0	632	644	0	0	0	0	
14	0	0	0	0	621	620	0	0	0	0	
15	0	0	0	0	612	601	0	0	0	0	
0	0	0	0	0	606	588	0	0	0	0	
1	0	0	0	0	605	583	0	0	0	0	
2	0	0	0	0	608	586	0	0	0	0	
3	0	0	0	0	615	598	0	0	0	0	
4	0	0	0	0	629	617	0	0	0	0	
5	0	0	0	0	644	642	0	0	0	0	
6	0	0	0	0	661	670	0	0	0	0	
7	0	0	0	0	678	699	0	0	0	0	
8	0	0	0	0	692	725	0	0	0	0	
9	0	0	0	0	705	748	0	0	0	0	
10	0	0	0	0	713	763	0	0	0	0	
11	0	0	0	0	717	771	0	0	0	0	
12	0	0	0	0	715	770	0	0	0	0	
13	0	0	0	0	708	760	0	0	0	0	
14	0	0	0	0	697	743	0	0	0	0	
15	0	0	0	0	682	719	0	0	0	0	
0	0	0	0	0	665	691	0	0	0	0	
1	0	0	0	0	647	660	0	0	0	0	
2	0	0	0	0	630	632	0	0	0	0	
3	0	0	0	0	617	607	0	0	0	0	
4	0	0	0	0	607	588	0	0	0	0	
5	0	0	0	0	602	578	0	0	0	0	
6	0	0	0	0	602	577	0	0	0	0	
7	0	0	0	0	608	585	0	0	0	0	
8	0	0	0	0	619	603	0	0	0	0	
9	0	0	0	0	633	625	0	0	0	0	
10	0	0	0	0	651	654	0	0	0	0	
11	0	0	0	0	668	684	0	0	0	0	
12	0	0	0	0	684	711	0	0	0	0	
13	0	0	0	0	697	735	0	0	0	0	
14	0	0	0	0	704	752	0	0	0	0	
15	0	0	0	0	707	761	0	0	0	0	
0	0	0	0	0	704	761	0	0	0	0	
1	0	0	0	0	697	752	0	0	0	0	
2	0	0	0	0	684	735	0	0	0	0	
3	0	0	0	0	668	711	0	0	0	0	
4	0	0	0	0	649	683	0	0	0	0	
5	0	0	0	0	630	653	0	0	0	0	
6	0	0	0	0	613	624	0	0	0	0	
7	0	0	0	0	599	600	0	0	0	0	
8	0	0	0	0	588	580	0	0	0	0	
9	0	0	0	0	583	569	0	0	0	0	
10	0	0	0	0	582	567	0	0	0	0	
11	0	0	0	0	588	574	0	0	0	0	
12	0	0	0	0	599	589	0	0	0	0	
13	0	0	0	0	612	610	0	0	0	0	
14	0	0	0	0	629	636	0	0	0	0	
15	0	0	0	0	645	662	0	0	0	0	
0	0	0	0	0	661	689	0	0	0	0	
1	0	0	0	0	674	711	0	0	0	0	
2	0	0	0	0	683	728	0	0	0	0	
3	0	0	0	0	688	739	0	0	0	0	
4	0	0	0	0	688	740	0	0	0	0	
5	0	0	0	0	684	735	0	0	0	0	
6	0	0	0	0	676	722	0	0	0	0	
7	0	0	0	0	664	702	0	0	0	0	
8	0	0	0	0	651	678	0	0	0	0	
9	0	0	0	0	637	652	0	0	0	0	
10	0	0	0	0	624	628	0	0	0	0	
11	0	0	0	0	613	607	0	0	0	0	
12	0	0	0	0	606	591	0	0	0	0	
13	0	0	0	0	603	583	0	0	0	0	
14	0	0	0	0	604	583	0	0	0	0	
15	0	0	0	0	610	593	0	0	0	0	
0	0	0	0	0	621	610	0	0	0	0	
1	0	0	0	0	634	633	0	0	0	0	
2	0	0	0	0	650	661	0	0	0	0	
3	0	0	0	0	665	690	0	0	0	0	
4	0	0	0	0	681	719	0	0	0	0	
5	0	0	0	0	693	744	0	0	0	0	
6	0	0	0	0	702	764	0	0	0	0	
7	0	0	0	0	706	776	0	0	0	0	
8	0	0	0	0	705	779	0	0	0	0	
9	0	0	0	0	700	774	0	0	0	0	
10	0	0	0	0	691	760	0	0	0	0	
11	0	0	0	0	678	739	0	0	0	0	
12	0	0	0	0	663	714	0	0	0	0	
13	0	0	0	0	647	686	0	0	0	0	
14	0	0	0	0	633	660	0	0	0	0	
15	0	0	0	0	623	638	0	0	0	0	
0	0	0	0	0	615	620	0	0	0	0	
1	0	0	0	0	611	611	0	0	0	0	
2	0	0	0	0	612	609	0	0	0	0	
3	0	0	0	0	619	618	0	0	0	0	
4	0	0	0	0	628	634	0	0	0	0	
5	0	0	0	0	641	656	0	0	0	0	
6	0	0	0	0	655	683	0	0	0	0	
7	0	0	0	0	670	711	0	0	0	0	
8	0	0	0	0	685	740	0	0	0	0	
9	0	0	0	0	697	765	0	0	0	0	
10	0	0	0	0	707	784	0	0	0	0	
11	0	0	0	0	712	798	0	0	0	0	
12	0	0	0	0	714	803	0	0	0	0	
13	0	0	0	0	711	801	0	0	0	0	
14	0	0	0	0	705	791	0	0	0	0	
15	0	0	0	0	695	774	0	0	0	0	
0	0	0	0	0	683	752	0	0	0	0	
1	0	0	0	0	670	728	0	0	0	0	
2	0	0	0	0	656	704	0	0	0	0	
3	0	0	0	0	646	684	0	0	0	0	
4	0	0	0	0	636	667	0	0	0	0	
5	0	0	0	0	631	659	0	0	0	0	
6	0	0	0	0	630	658	0	0	0	0	
7	0	0	0	0	633	666	0	0	0	0	
8	0	0	0	0	641	682	0	0	0	0	
9	0	0	0	0	652	705	0	0	0	0	
10	0	0	0	0	665	731	0	0	0	0	
11	0	0	0	0	680	761	0	0	0	0	
12	0	0	0	0	695	789	0	0	0	0	
13	0	0	0	0	708	815	0	0	0	0	
14	0	0	0	0	718	834	0	0	0	0	
15	0	0	0	0	724	847	0	0	0	0	
0	0	0	0	0	726	851	0	0	0	0	
1	0	0	0	0	723	846	0	0	0	0	
2	0	0	0	0	716	833	0	0	0	0	
3	0	0	0	0	705	813	0	0	0	0	
4	0	0	0	0	694	788	0	0	0	0	
5	0	0	0	0	680	761	0	0	0	0	
6	0	0	0	0	667	734	0	0	0	0	
7	0	0	0	0	658	711	0	0	0	0	
8	0	0	0	0	651	694	0	0	0	0	
9	0	0	0	0	648	684	0	0	0	0	
10	0	0	0	0	649	684	0	0	0	0	
11	0	0	0	0	653	691	0	0	0	0	
12	0	0	0	0	662	708	0	0	0	0	
13	0	0	0	0	673	730	0	0	0	0	
14	0	0	0	0	686	757	0	0	0	0	
15	0	0	0	0	699	786	0	0	0	0	
0	0	0	0	0	710	813	0	0	0	0	
1	0	0	0	0	721	838	0	0	0	0	
2	0	0	0	0	728	856	0	0	0	0	
3	0	0	0	0	730	866	0	0	0	0	
4	0	0	0	0	728	867	0	0	0	0	
5	0	0	0	0	723	862	0	0	0	0	
6	0	0	0	0	715	848	0	0	0	0	
7	0	0	0	0	703	827	0	0	0	0	
8	0	0	0	0	689	801	0	0	0	0	
9	0	0	0	0	675	774	0	0	0	0	
10	0	0	0	0	661	747	0	0	0	0	
11	0	0	0	0	652	724	0	0	0	0	
12	0	0	0	0	645	707	0	0	0	0	
13	0	0	0	0	643	697	0	0	0	0	
14	0	0	0	0	645	696	0	0	0	0	
15	0	0	0	0	652	703	0	0	0	0	
0	0	0	0	0	663	718	0	0	0	0	
1	0	0	0	0	676	740	0	0	0	0	
2	0	0	0	0	691	767	0	0	0	0	
3	0	0	0	0	707	795	0	0	0	0	
4	0	0	0	0	721	823	0	0	0	0	
5	0	0	0	0	735	848	0	0	0	0	
6	0	0	0	0	744	867	0	0	0	0	
7	0	0	0	0	750	880	0	0	0	0	
8	0	0	0	0	750	884	0	0	0	0	
9	0	0	0	0	747	880	0	0	0	0	
10	0	0	0	0	739	868	0	0	0	0	
11	0	0	0	0	727	848	0	0	0	0	
12	0	0	0	0	713	824	0	0	0	0	
13	0	0	0	0	697	796	0	0	0	0	
14	0	0	0	0	683	769	0	0	0	0	
15	0	0	0	0	670	743	0	0	0	0	
0	0	0	0	0	660	722	0	0	0	0	
1	0	0	0	0	653	708	0	0	0	0	
2	0	0	0	0	650	701	0	0	0	0	
3	0	0	0	0	653	704	0	0	0	0	
4	0	0	0	0	659	715	0	0	0	0	
5	0	0	0	0	668	732	0	0	0	0	
6	0	0	0	0	680	755	0	0	0	0	
7	0	0	0	0	693	781	0	0	0	0	
8	0	0	0	0	707	808	0	0	0	0	
9	0	0	0	0	718	831	0	0	0	0	
10	0	0	0	0	727	851	0	0	0	0	
11	0	0	0	0	733	863	0	0	0	0	
12	0	0	0	0	734	867	0	0	0	0	
13	0	0	0	0	731	864	0	0	0	0	
14	0	0	0	0	725	852	0	0	0	0	
15	0	0	0	0	714	834	0	0	0	0	
0	0	0	0	0	702	811	0	0	0	0	
1	0	0	0	0	687	783	0	0	0	0	
2	0	0	0	0	673	758	0	0	0	0	
3	0	0	0	0	661	735	0	0	0	0	
4	0	0	0	0	652	716	0	0	0	0	
5	0	0	0	0	646	704	0	0	0	0	
6	0	0	0	0	645	700	0	0	0	0	
7	0	0	0	0	648	705	0	0	0	0	
8	0	0	0	0	656	718	0	0	0	0	
9	0	0	0	0	668	738	0	0	0	0	
10	0	0	0	0	682	763	0	0	0	0	
11	0	0	0	0	697	791	0	0	0	0	
12	0	0	0	0	712	818	0	0	0	0	
13	0	0	0	0	725	843	0	0	0	0	
14	0	0	0	0	734	860	0	0	0	0	
15	0	0	0	0	739	872	0	0	0	0	
0	0	0	0	0	738	875	0	0	0	0	
1	0	0	0	0	734	869	0	0	0	0	
2	0	0	0	0	725	855	0	0	0	0	
3	0	0	0	0	713	833	0	0	0	0	
4	0	0	0	0	699	807	0	0	0	0	
5	0	0	0	0	683	778	0	0	0	0	
6	0	0	0	0	670	751	0	0	0	0	
7	0	0	0	0	659	726	0	0	0	0	
8	0	0	0	0	651	707	0	0	0	0	
9	0	0	0	0	648	696	0	0	0	0	
10	0	0	0	0	650	695	0	0	0	0	
11	0	0	0	0	657	703	0	0	0	0	
12	0	0	0	0	669	719	0	0	0	0	
13	0	0	0	0	684	743	0	0	0	0	
14	0	0	0	0	700	769	0	0	0	0	
15	0	0	0	0	716	799	0	0	0	0	
0	0	0	0	0	731	827	0	0	0	0	
1	0	0	0	0	743	851	0	0	0	0	
2	0	0	0	0	750	869	0	0	0	0	
3	0	0	0	0	753	878	0	0	0	0	
4	0	0	0	0	750	878	0	0	0	0	
5	0	0	0	0	742	869	0	0	0	0	
6	0	0	0	0	730	851	0	0	0	0	
7	0	0	0	0	713	825	0	0	0	0	
8	0	0	0	0	696	796	0	0	0	0	
9	0	0	0	0	677	763	0	0	0	0	
10	0	0	0	0	661	732	0	0	0	0	
11	0	0	0	0	648	705	0	0	0	0	
12	0	0	0	0	639	683	0	0	0	0	
13	0	0	0	0	635	671	0	0	0	0	
14	0	0	0	0	636	667	0	0	0	0	
15	0	0	0	0	642	673	0	0	0	0	
0	0	0	0	0	653	688	0	0	0	0	
1	0	0	0	0	667	710	0	0	0	0	
2	0	0	0	0	682	736	0	0	0	0	
3	0	0	0	0	698	765	0	0	0	0	
4	0	0	0	0	712	794	0	0	0	0	
5	0	0	0	0	726	819	0	0	0	0	
6	0	0	0	0	735	839	0	0	0	0	
7	0	0	0	0	739	851	0	0	0	0	
8	0	0	0	0	739	854	1	0	0	0	
9	0	0	0	0	734	847	0	0	0	0	
10	0	0	0	0	726	833	0	0	0	0	
11	0	0	0	0	713	812	0	0	0	0	
12	0	0	0	0	699	785	0	0	0	0	
13	0	0	0	0	684	757	0	0	0	0	
14	0	0	0	0	669	729	0	0	0	0	
15	0	0	0	0	659	705	0	0	0	0	
0	0	0	0	0	651	687	0	0	0	0	
1	0	0	0	0	648	676	0	0	0	0	
2	0	0	0	0	648	673	0	0	0	0	
3	0	0	0	0	654	680	0	0	0	0	
4	0	0	0	0	665	695	0	0	0	0	
5	0	0	0	0	678	716	0	0	0	0	
6	0	0	0	0	693	742	0	0	0	0	
7	0	0	0	0	707	770	0	0	0	0	
8	0	0	0	0	721	797	0	0	0	0	
9	0	0	0	0	734	821	0	0	0	0	
10	0	0	0	0	741	838	0	0	0	0	
11	0	0	0	0	746	849	0	0	0	0	
12	0	0	0	0	745	852	0	0	0	0	
13	0	0	0	0	739	844	0	0	0	0	
14	0	0	0	0	731	831	0	0	0	0	
15	0	0	0	0	719	809	0	0	0	0	
0	0	0	0	0	705	783	0	0	0	0	
1	0	0	0	0	689	755	0	0	0	0	
2	0	0	0	0	676	729	0	0	0	0	
3	0	0	0	0	665	706	0	0	0	0	
4	0	0	0	0	656	687	0	0	0	0	
5	0	0	0	0	652	677	0	0	0	0	
6	0	0	0	0	652	674	0	0	0	0	
7	0	0	0	0	656	679	0	0	0	0	
8	0	0	0	0	665	694	0	0	0	0	
9	0	0	0	0	676	714	0	0	0	0	
10	0	0	0	0	691	739	0	0	0	0	
11	0	0	0	0	706	767	0	0	0	0	
12	0	0	0	0	719	793	0	0	0	0	
13	0	0	0	0	732	817	0	0	0	0	
14	0	0	0	0	741	834	0	0	0	0	
15	0	0	0	0	745	844	0	0	0	0	
0	0	0	0	0	745	846	0	0	0	0	
1	0	0	0	0	739	839	0	0	0	0	
2	0	0	0	0	731	824	0	0	0	0	
3	0	0	0	0	718	801	0	0	0	0	
4	0	0	0	0	702	775	0	0	0	0	
5	0	0	0	0	686	745	0	0	0	0	
6	0	0	0	0	669	717	0	0	0	0	
7	0	0	0	0	657	692	0	0	0	0	
8	0	0	0	0	648	674	0	0	0	0	
9	0	0	0	0	644	663	0	0	0	0	
10	0	0	0	0	644	660	0	0	0	0	
11	0	0	0	0	651	668	0	0	0	0	
12	0	0	0	0	663	684	0	0	0	0	
13	0	0	0	0	677	707	0	0	0	0	
14	0	0	0	0	694	734	0	0	0	0	
15	0	0	0	0	711	763	0	0	0	0	
0	0	0	0	0	728	792	0	0	0	0	
1	0	0	0	0	743	817	0	0	0	0	
2	0	0	0	0	753	836	0	0	0	0	
3	0	0	0	0	758	847	0	0	0	0	
4	0	0	0	0	759	849	0	0	0	0	
5	0	0	0	0	753	841	0	0	0	0	
6	0	0	0	0	744	826	0	0	0	0	
7	0	0	0	0	730	803	0	0	0	0	
8	0	0	0	0	713	774	0	0	0	0	
9	0	0	0	0	695	743	0	0	0	0	
10	0	0	0	0	677	712	0	0	0	0	
11	0	0	0	0	662	685	0	0	0	0	
12	0	0	0	0	650	663	0	0	0	0	
13	0	0	0	0	643	650	0	0	0	0	
14	0	0	0	0	642	646	0	0	0	0	
15	0	0	0	0	646	652	0	0	0	0	
0	0	0	0	0	656	667	0	0	0	0	
1	0	0	0	0	671	689	0	0	0	0	
2	0	0	0	0	688	717	0	0	0	0	
3	0	0	0	0	707	748	0	0	0	0	
4	0	0	0	0	725	777	0	0	0	0	
5	0	0	0	0	743	805	0	0	0	0	
6	0	0	0	0	755	825	0	0	0	0	
7	0	0	0	0	764	839	0	0	0	0	
8	0	0	0	0	767	844	0	0	0	0	
9	0	0	0	0	764	840	0	0	0	0	
10	0	0	0	0	757	828	0	0	0	0	
11	0	0	0	0	743	807	0	0	0	0	
12	0	0	0	0	727	780	0	0	0	0	
13	0	0	0	0	707	750	0	0	0	0	
14	0	0	0	0	686	718	0	0	0	0	
15	0	0	0	0	666	688	0	0	0	0	
0	0	0	0	0	647	661	0	0	0	0	
1	0	0	0	0	630	639	0	0	0	0	
2	0	0	0	0	618	626	0	0	0	0	
3	0	0	0	0	610	620	0	0	0	0	
4	0	0	0	0	606	622	0	0	0	0	
5	0	0	0	0	606	631	0	0	0	0	
6	0	0	0	0	608	644	0	0	0	0	
7	0	0	0	0	612	661	0	0	0	0	
8	0	0	0	0	616	677	0	0	0	0	
9	0	0	0	0	620	691	0	0	0	0	
10	0	0	0	0	621	701	0	0	0	0	
11	0	0	0	0	619	704	0	0	0	0	
12	0	0	0	0	614	699	0	0	0	0	
13	0	0	0	0	603	684	0	0	0	0	
14	0	0	0	0	591	664	0	0	0	0	
15	0	0	0	0	573	635	0	0	0	0	
0	0	0	0	0	553	601	0	0	0	0	
1	0	0	0	0	532	566	0	0	0	0	
2	0	0	0	0	511	531	0	0	0	0	
3	0	0	0	0	494	499	0	0	0	0	
4	0	0	0	0	479	475	0	0	0	0	
5	0	0	0	0	469	459	0	0	0	0	
6	0	0	0	0	466	453	0	0	0	0	
7	0	0	0	0	469	459	0	0	0	0	
8	0	0	0	0	480	475	0	0	0	0	
9	0	0	0	0	496	500	0	0	0	0	
10	0	0	0	0	519	533	0	0	0	0	
11	0	0	0	0	545	571	0	0	0	0	
12	0	0	0	0	574	611	0	0	0	0	
13	0	0	0	0	605	651	0	0	0	0	
14	0	0	0	0	634	686	0	0	0	0	
15	0	0	0	0	661	716	0	0	0	0	
0	0	0	0	0	684	738	0	0	0	0	
1	0	0	0	0	703	751	0	0	0	0	
2	0	0	0	0	716	756	0	0	0	0	
3	0	0	0	0	724	752	0	0	0	0	
4	0	0	0	0	727	741	0	0	0	0	
5	0	0	0	0	726	725	0	0	0	0	
6	0	0	0	0	720	707	0	0	0	0	
7	0	0	0	0	716	690	0	0	0	0	
8	0	0	0	0	709	674	0	0	0	0	
9	0	0	0	0	703	664	0	0	0	0	
10	0	0	0	0	699	660	0	0	0	0	
11	0	0	0	0	695	662	0	0	0	0	
12	0	0	0	0	697	671	0	0	0	0	
13	0	0	0	0	699	686	0	0	0	0	
14	0	0	0	0	704	705	0	0	0	0	
15	0	0	0	0	710	726	0	0	0	0	
0	0	0	0	0	716	746	0	0	0	0	
1	0	0	0	0	722	764	0	0	0	0	
2	0	0	0	0	726	778	0	0	0	0	
3	0	0	0	0	729	786	0	0	0	0	
4	0	0	0	0	729	787	0	0	0	0	
5	0	0	0	0	727	781	0	0	0	0	
6	0	0	0	0	723	769	0	0	0	0	
7	0	0	0	0	717	751	0	0	0	0	
8	0	0	0	0	709	728	0	0	0	0	
9	0	0	0	0	700	704	0	0	0	0	
10	0	0	0	0	693	681	0	0	0	0	
11	0	0	0	0	688	660	0	0	0	0	
12	0	0	0	0	683	644	0	0	0	0	
13	0	0	0	0	681	635	0	0	0	0	
14	0	0	0	0	681	632	0	0	0	0	
15	0	0	0	0	686	639	0	0	0	0	
0	0	0	0	0	694	652	0	0	0	0	
1	0	0	0	0	704	672	0	0	0	0	
2	0	0	0	0	716	697	0	0	0	0	
3	0	0	0	0	727	723	0	0	0	0	
4	0	0	0	0	739	748	0	0	0	0	
5	0	0	0	0	750	771	0	0	0	0	
6	0	0	0	0	756	788	0	0	0	0	
7	0	0	0	0	760	799	0	0	0	0	
8	0	0	0	0	760	801	0	0	0	0	
9	0	0	0	0	754	794	0	0	0	0	
10	0	0	0	0	747	780	0	0	0	0	
11	0	0	0	0	735	759	0	0	0	0	
12	0	0	0	0	720	733	0	0	0	0	
13	0	0	0	0	705	704	0	0	0	0	
14	0	0	0	0	691	675	0	0	0	0	
15	0	0	0	0	678	650	0	0	0	0	
0	0	0	0	0	669	629	0	0	0	0	
1	0	0	0	0	663	615	0	0	0	0	
2	0	0	0	0	663	611	0	0	0	0	
3	0	0	0	0	665	615	0	0	0	0	
4	0	0	0	0	675	627	0	0	0	0	
5	0	0	0	0	687	647	0	0	0	0	
6	0	0	0	0	702	672	0	0	0	0	
7	0	0	0	0	718	700	0	0	0	0	
8	0	0	0	0	734	728	0	0	0	0	
9	0	0	0	0	749	753	0	0	0	0	
10	0	0	0	0	760	773	0	0	0	0	
11	0	0	0	0	768	787	0	0	0	0	
12	0	0	0	0	771	792	0	0	0	0	
13	0	0	0	0	769	790	0	0	0	0	
14	0	0	0	0	762	779	0	0	0	0	
15	0	0	0	0	752	761	0	0	0	0	
0	0	0	0	0	738	738	0	0	0	0	
1	0	0	0	0	722	711	0	0	0	0	
2	0	0	0	0	706	685	0	0	0	0	
3	0	0	0	0	692	661	0	0	0	0	
4	0	0	0	0	681	641	0	0	0	0	
5	0	0	0	0	673	629	0	0	0	0	
6	0	0	0	0	670	623	0	0	0	0	
7	0	0	0	0	671	627	0	0	0	0	
8	0	0	0	0	679	639	0	0	0	0	
9	0	0	0	0	691	657	0	0	0	0	
10	0	0	0	0	705	680	0	0	0	0	
11	0	0	0	0	722	706	0	0	0	0	
12	0	0	0	0	739	735	0	0	0	0	
13	0	0	0	0	757	760	0	0	0	0	
14	0	0	0	0	770	781	0	0	0	0	
15	0	0	0	0	779	795	0	0	0	0	
0	0	0	0	0	784	802	0	0	0	0	
1	0	0	0	0	782	799	0	0	0	0	
2	0	0	0	0	777	789	0	0	0	0	
3	0	0	0	0	765	770	0	0	0	0	
4	0	0	0	0	749	746	0	0	0	0	
5	0	0	0	0	731	719	0	0	0	0	
6	0	0	0	0	712	691	0	0	0	0	
7	0	0	0	0	696	665	0	0	0	0	
8	0	0	0	0	681	643	0	0	0	0	
9	0	0	0	0	671	628	0	0	0	0	
10	0	0	0	0	666	622	0	0	0	0	
11	0	0	0	0	667	624	0	0	0	0	
12	0	0	0	0	673	634	0	0	0	0	
13	0	0	0	0	683	651	0	0	0	0	
14	0	0	0	0	696	672	0	0	0	0	
15	0	0	0	0	710	696	0	0	0	0	
0	0	0	0	0	724	719	0	0	0	0	
1	0	0	0	0	737	740	0	0	0	0	
2	0	0	0	0	745	755	0	0	0	0	
3	0	0	0	0	752	766	0	0	0	0	
4	0	0	0	0	753	768	0	0	0	0	
5	0	0	0	0	749	764	0	0	0	0	
6	0	0	0	0	743	752	0	0	0	0	
7	0	0	0	0	732	733	0	0	0	0	
8	0	0	0	0	720	711	0	0	0	0	
9	0	0	0	0	706	686	0	0	0	0	
10	0	0	0	0	694	663	0	0	0	0	
11	0	0	0	0	684	643	0	0	0	0	
12	0	0	0	0	677	628	0	0	0	0	
13	0	0	0	0	674	620	0	0	0	0	
14	0	0	0	0	675	619	0	0	0	0	
15	0	0	0	0	681	627	0	0	0	0	
0	0	0	0	0	692	643	0	0	0	0	
1	0	0	0	0	705	665	0	0	0	0	
2	0	0	0	0	720	690	0	0	0	0	
3	0	0	0	0	735	717	0	0	0	0	
4	0	0	0	0	749	743	0	0	0	0	
5	0	0	0	0	761	765	0	0	0	0	
6	0	0	0	0	768	781	0	0	0	0	
7	0	0	0	0	771	791	0	0	0	0	
8	0	0	0	0	769	792	0	0	0	0	
9	0	0	0	0	763	784	0	0	0	0	
10	0	0	0	0	754	769	0	0	0	0	
11	0	0	0	0	740	747	0	0	0	0	
12	0	0	0	0	724	719	0	0	0	0	
13	0	0	0	0	707	690	0	0	0	0	
14	0	0	0	0	692	661	0	0	0	0	
15	0	0	0	0	679	635	0	0	0	0	
0	0	0	0	0	668	614	0	0	0	0	
1	0	0	0	0	662	600	0	0	0	0	
2	0	0	0	0	659	593	0	0	0	0	
3	0	0	0	0	661	597	0	0	0	0	
4	0	0	0	0	667	608	0	0	0	0	
5	0	0	0	0	675	625	0	0	0	0	
6	0	0	0	0	686	648	0	0	0	0	
7	0	0	0	0	697	673	0	0	0	0	
8	0	0	0	0	708	698	0	0	0	0	
9	0	0	0	0	719	720	0	0	0	0	
10	0	0	0	0	727	738	0	0	0	0	
11	0	0	0	0	730	749	0	0	0	0	
12	0	0	0	0	732	752	0	0	0	0	
13	0	0	0	0	728	746	0	0	0	0	
14	0	0	0	0	723	734	0	0	0	0	
15	0	0	0	0	714	714	0	0	0	0	
0	0	0	0	0	704	689	0	0	0	0	
1	0	0	0	0	692	663	0	0	0	0	
2	0	0	0	0	681	637	0	0	0	0	
3	0	0	0	0	672	614	0	0	0	0	
4	0	0	0	0	664	596	0	0	0	0	
5	0	0	0	0	661	585	0	0	0	0	
6	0	0	0	0	660	583	0	0	0	0	
7	0	0	0	0	663	588	0	0	0	0	
8	0	0	0	0	669	601	0	0	0	0	
9	0	0	0	0	678	621	0	0	0	0	
10	0	0	0	0	689	644	0	0	0	0	
11	0	0	0	0	700	670	0	0	0	0	
12	0	0	0	0	711	695	0	0	0	0	
13	0	0	0	0	721	717	0	0	0	0	
14	0	0	0	0	727	734	0	0	0	0	
15	0	0	0	0	730	743	0	0	0	0	
0	0	0	0	0	729	744	0	0	0	0	
1	0	0	0	0	723	738	0	0	0	0	
2	0	0	0	0	715	724	0	0	0	0	
3	0	0	0	0	703	703	0	0	0	0	
4	0	0	0	0	690	677	0	0	0	0	
5	0	0	0	0	675	651	0	0	0	0	
6	0	0	0	0	662	624	0	0	0	0	
7	0	0	0	0	650	600	0	0	0	0	
8	0	0	0	0	640	582	0	0	0	0	
9	0	0	0	0	635	571	0	0	0	0	
10	0	0	0	0	633	568	0	0	0	0	
11	0	0	0	0	637	575	0	0	0	0	
12	0	0	0	0	644	589	0	0	0	0	
13	0	0	0	0	655	609	0	0	0	0	
14	0	0	0	0	669	633	0	0	0	0	
15	0	0	0	0	683	659	0	0	0	0	
0	0	0	0	0	697	686	0	0	0	0	
1	0	0	0	0	710	708	0	0	0	0	
2	0	0	0	0	719	724	0	0	0	0	
3	0	0	0	0	725	735	0	0	0	0	
4	0	0	0	0	726	736	0	0	0	0	
5	0	0	0	0	724	731	0	0	0	0	
6	0	0	0	0	718	717	0	0	0	0	
7	0	0	0	0	709	697	0	0	0	0	
8	0	0	0	0	697	672	0	0	0	0	
9	0	0	0	0	683	645	0	0	0	0	
10	0	0	0	0	669	619	0	0	0	0	
11	0	0	0	0	656	596	0	0	0	0	
12	0	0	0	0	645	578	0	0	0	0	
13	0	0	0	0	637	567	0	0	0	0	
14	0	0	0	0	633	563	0	0	0	0	
15	0	0	0	0	634	569	0	0	0	0	
0	0	0	0	0	639	582	0	0	0	0	
1	0	0	0	0	649	601	0	0	0	0	
2	0	0	0	0	660	624	0	0	0	0	
3	0	0	0	0	673	649	0	0	0	0	
4	0	0	0	0	687	675	0	0	0	0	
5	0	0	0	0	699	696	0	0	0	0	
6	0	0	0	0	708	713	0	0	0	0	
7	0	0	0	0	714	723	0	0	0	0	
8	0	0	0	0	716	725	0	0	0	0	
9	0	0	0	0	713	719	0	0	0	0	
10	0	0	0	0	707	706	0	0	0	0	
11	0	0	0	0	696	686	0	0	0	0	
12	0	0	0	0	683	662	0	0	0	0	
13	0	0	0	0	667	634	0	0	0	0	
14	0	0	0	0	652	608	0	0	0	0	
15	0	0	0	0	639	585	0	0	0	0	
0	0	0	0	0	629	567	0	0	0	0	
1	0	0	0	0	623	557	0	0	0	0	
2	0	0	0	0	621	555	0	0	0	0	
3	0	0	0	0	625	562	0	0	0	0	
4	0	0	0	0	635	577	0	0	0	0	
5	0	0	0	0	647	598	0	0	0	0	
6	0	0	0	0	663	624	0	0	0	0	
7	0	0	0	0	680	651	0	0	0	0	
8	0	0	0	0	696	678	0	0	0	0	
9	0	0	0	0	710	702	0	0	0	0	
10	0	0	0	0	720	719	0	0	0	0	
11	0	0	0	0	726	730	0	0	0	0	
12	0	0	0	0	726	733	0	0	0	0	
13	0	0	0	0	721	727	0	0	0	0	
14	0	0	0	0	712	713	0	0	0	0	
15	0	0	0	0	698	692	0	0	0	0	
0	0	0	0	0	683	667	0	0	0	0	
1	0	0	0	0	665	639	0	0	0	0	
2	0	0	0	0	649	611	0	0	0	0	
3	0	0	0	0	636	588	0	0	0	0	
4	0	0	0	0	626	569	0	0	0	0	
5	0	0	0	0	620	557	0	0	0	0	
6	0	0	0	0	618	553	0	0	0	0	
7	0	0	0	0	621	559	0	0	0	0	
8	0	0	0	0	630	572	0	0	0	0	
9	0	0	0	0	642	592	0	0	0	0	
10	0	0	0	0	656	616	0	0	0	0	
11	0	0	0	0	670	643	0	0	0	0	
12	0	0	0	0	685	668	0	0	0	0	
13	0	0	0	0	697	691	0	0	0	0	
14	0	0	0	0	706	709	0	0	0	0	
15	0	0	0	0	711	720	0	0	0	0	
0	0	0	0	0	710	723	0	0	0	0	
1	0	0	0	0	707	719	0	0	0	0	
2	0	0	0	0	700	707	0	0	0	0	
3	0	0	0	0	689	689	0	0	0	0	
4	0	0	0	0	677	667	0	0	0	0	
5	0	0	0	0	664	642	0	0	0	0	
6	0	0	0	0	652	618	0	0	0	0	
7	0	0	0	0	642	597	0	0	0	0	
8	0	0	0	0	634	580	0	0	0	0	
9	0	0	0	0	630	569	0	0	0	0	
10	0	0	0	0	628	566	0	0	0	0	
11	0	0	0	0	631	571	0	0	0	0	
12	0	0	0	0	638	583	0	0	0	0	
13	0	0	0	0	647	601	0	0	0	0	
14	0	0	0	0	657	623	0	0	0	0	
15	0	0	0	0	668	646	0	0	0	0	
0	0	0	0	0	679	669	0	0	0	0	
1	0	0	0	0	689	689	0	0	0	0	
2	0	0	0	0	696	705	0	0	0	0	
3	0	0	0	0	700	715	0	0	0	0	
4	0	0	0	0	701	717	0	0	0	0	
5	0	0	0	0	696	711	0	0	0	0	
6	0	0	0	0	691	699	0	0	0	0	
7	0	0	0	0	680	679	0	0	0	0	
8	0	0	0	0	670	655	0	0	0	0	
9	0	0	0	0	656	630	0	0	0	0	
10	0	0	0	0	645	605	0	0	0	0	
11	0	0	0	0	636	583	0	0	0	0	
12	0	0	0	0	630	568	0	0	0	0	
13	0	0	0	0	627	559	0	0	0	0	
14	0	0	0	0	628	558	0	0	0	0	
15	0	0	0	0	634	566	0	0	0	0	
0	0	0	0	0	644	583	0	0	0	0	
1	0	0	0	0	657	605	0	0	0	0	
2	0	0	0	0	672	632	0	0	0	0	
3	0	0	0	0	688	661	0	0	0	0	
4	0	0	0	0	702	689	0	0	0	0	
5	0	0	0	0	716	715	0	0	0	0	
6	0	0	0	0	726	735	0	0	0	0	
7	0	0	0	0	733	748	0	0	0	0	
8	0	0	0	0	733	752	0	0	0	0	
9	0	0	0	0	730	748	0	0	0	0	
10	0	0	0	0	723	736	0	0	0	0	
11	0	0	0	0	710	715	0	0	0	0	
12	0	0	0	0	695	689	0	0	0	0	
13	0	0	0	0	678	661	0	0	0	0	
14	0	0	0	0	660	632	0	0	0	0	
15	0	0	0	0	646	607	0	0	0	0	
0	0	0	0	0	633	586	0	0	0	0	
1	0	0	0	0	624	572	0	0	0	0	
2	0	0	0	0	620	567	0	0	0	0	
3	0	0	0	0	619	570	0	0	0	0	
4	0	0	0	0	625	583	0	0	0	0	
5	0	0	0	0	633	601	0	0	0	0	
6	0	0	0	0	644	624	0	0	0	0	
7	0	0	0	0	657	651	0	0	0	0	
8	0	0	0	0	670	676	0	0	0	0	
9	0	0	0	0	683	700	0	0	0	0	
10	0	0	0	0	691	718	0	0	0	0	
11	0	0	0	0	696	728	0	0	0	0	
12	0	0	0	0	696	731	0	0	0	0	
13	0	0	0	0	692	725	0	0	0	0	
14	0	0	0	0	684	711	0	0	0	0	
15	0	0	0	0	671	691	0	0	0	0	
0	0	0	0	0	656	665	0	0	0	0	
1	0	0	0	0	641	638	0	0	0	0	
2	0	0	0	0	627	612	0	0	0	0	
3	0	0	0	0	614	590	0	0	0	0	
4	0	0	0	0	605	573	0	0	0	0	
5	0	0	0	0	600	563	0	0	0	0	
6	0	0	0	0	600	563	0	0	0	0	
7	0	0	0	0	605	570	0	0	0	0	
8	0	0	0	0	615	587	0	0	0	0	
9	0	0	0	0	628	609	0	0	0	0	
10	0	0	0	0	644	636	0	0	0	0	
11	0	0	0	0	662	665	0	0	0	0	
12	0	0	0	0	679	694	0	0	0	0	
13	0	0	0	0	696	719	0	0	0	0	
14	0	0	0	0	708	739	0	0	0	0	
15	0	0	0	0	717	752	0	0	0	0	
0	0	0	0	0	719	754	0	0	0	0	
1	0	0	0	0	715	748	0	0	0	0	
2	0	0	0	0	705	732	0	0	0	0	
3	0	0	0	0	690	706	0	0	0	0	
4	0	0	0	0	671	676	0	0	0	0	
5	0	0	0	0	649	642	0	0	0	0	
6	0	0	0	0	627	609	0	0	0	0	
7	0	0	0	0	608	579	0	0	0	0	
8	0	0	0	0	593	555	0	0	0	0	
9	0	0	0	0	583	540	0	0	0	0	
10	0	0	0	0	579	535	0	0	0	0	
11	0	0	0	0	582	541	0	0	0	0	
12	0	0	0	0	592	558	0	0	0	0	
13	0	0	0	0	609	582	0	0	0	0	
14	0	0	0	0	630	614	0	0	0	0	
15	0	0	0	0	655	649	0	0	0	0	
0	0	0	0	0	681	686	0	0	0	0	
1	0	0	0	0	707	720	0	0	0	0	
2	0	0	0	0	729	748	0	0	0	0	
3	0	0	0	0	747	768	0	0	0	0	
4	0	0	0	0	755	778	0	0	0	0	
5	0	0	0	0	757	777	0	0	0	0	
6	0	0	0	0	751	765	0	0	0	0	
7	0	0	0	0	736	742	0	0	0	0	
8	0	0	0	0	715	711	0	0	0	0	
9	0	0	0	0	688	676	0	0	0	0	
10	0	0	0	0	661	640	0	0	0	0	
11	0	0	0	0	635	606	0	0	0	0	
12	0	0	0	0	611	576	0	0	0	0	
13	0	0	0	0	592	554	0	0	0	0	
14	0	0	0	0	580	542	0	0	0	0	
15	0	0	0	0	575	539	0	0	0	0	
0	0	0	0	0	578	547	0	0	0	0	
1	0	0	0	0	588	564	0	0	0	0	
2	0	0	0	0	604	588	0	0	0	0	
3	0	0	0	0	622	615	0	0	0	0	
4	0	0	0	0	643	643	0	0	0	0	
5	0	0	0	0	664	671	0	0	0	0	
6	0	0	0	0	683	693	0	0	0	0	
7	0	0	0	0	697	710	0	0	0	0	
8	0	0	0	0	706	716	0	0	0	0	
9	0	0	0	0	709	716	0	0	0	0	
10	0	0	0	0	705	706	0	0	0	0	
11	0	0	0	0	696	688	0	0	0	0	
12	0	0	0	0	683	664	0	0	0	0	
13	0	0	0	0	667	638	0	0	0	0	
14	0	0	0	0	649	609	0	0	0	0	
15	0	0	0	0	633	583	0	0	0	0	
0	0	0	0	0	619	561	0	0	0	0	
1	0	0	0	0	609	546	0	0	0	0	
2	0	0	0	0	602	539	0	0	0	0	
3	0	0	0	0	603	540	0	0	0	0	
4	0	0	0	0	608	550	0	0	0	0	
5	0	0	0	0	617	566	0	0	0	0	
6	0	0	0	0	630	587	0	0	0	0	
7	0	0	0	0	644	611	0	0	0	0	
8	0	0	0	0	660	636	0	0	0	0	
9	0	0	0	0	675	660	0	0	0	0	
10	0	0	0	0	687	679	0	0	0	0	
11	0	0	0	0	696	692	0	0	0	0	
12	0	0	0	0	700	697	0	0	0	0	
13	0	0	0	0	700	696	0	0	0	0	
14	0	0	0	0	697	687	0	0	0	0	
15	0	0	0	0	689	671	0	0	0	0	
0	0	0	0	0	678	650	0	0	0	0	
1	0	0	0	0	665	626	0	0	0	0	
2	0	0	0	0	653	603	0	0	0	0	
3	0	0	0	0	643	582	0	0	0	0	
4	0	0	0	0	634	565	0	0	0	0	
5	0	0	0	0	628	554	0	0	0	0	
6	0	0	0	0	627	550	0	0	0	0	
7	0	0	0	0	630	554	0	0	0	0	
8	0	0	0	0	635	564	0	0	0	0	
9	0	0	0	0	644	580	0	0	0	0	
10	0	0	0	0	655	600	0	0	0	0	
11	0	0	0	0	665	623	0	0	0	0	
12	0	0	0	0	677	644	0	0	0	0	
13	0	0	0	0	688	665	0	0	0	0	
14	0	0	0	0	696	679	0	0	0	0	
15	0	0	0	0	700	689	0	0	0	0	
0	0	0	0	0	701	690	0	0	0	0	
1	0	0	0	0	697	684	0	0	0	0	
2	0	0	0	0	690	671	0	0	0	0	
3	0	0	0	0	679	651	0	0	0	0	
4	0	0	0	0	666	626	0	0	0	0	
5	0	0	0	0	652	600	0	0	0	0	
6	0	0	0	0	637	573	0	0	0	0	
7	0	0	0	0	625	551	0	0	0	0	
8	0	0	0	0	616	532	0	0	0	0	
9	0	0	0	0	610	522	0	0	0	0	
10	0	0	0	0	609	519	0	0	0	0	
11	0	0	0	0	611	524	0	0	0	0	
12	0	0	0	0	619	537	0	0	0	0	
13	0	0	0	0	628	555	0	0	0	0	
14	0	0	0	0	639	577	0	0	0	0	
15	0	0	0	0	652	600	0	0	0	0	
0	0	0	0	0	662	623	0	0	0	0	
1	0	0	0	0	671	642	0	0	0	0	
2	0	0	0	0	677	655	0	0	0	0	
3	0	0	0	0	679	662	0	0	0	0	
4	0	0	0	0	677	661	0	0	0	0	
5	0	0	0	0	670	652	0	0	0	0	
6	0	0	0	0	662	637	0	0	0	0	
7	0	0	0	0	651	615	0	0	0	0	
8	0	0	0	0	639	591	0	0	0	0	
9	0	0	0	0	627	567	0	0	0	0	
10	0	0	0	0	616	543	0	0	0	0	
11	0	0	0	0	610	524	0	0	0	0	
12	0	0	0	0	606	511	0	0	0	0	
13	0	0	0	0	606	506	0	0	0	0	
14	0	0	0	0	610	507	0	0	0	0	
15	0	0	0	0	619	517	0	0	0	0	
0	0	0	0	0	632	534	0	0	0	0	
1	0	0	0	0	647	556	0	0	0	0	
2	0	0	0	0	662	582	0	0	0	0	
3	0	0	0	0	678	607	0	0	0	0	
4	0	0	0	0	691	632	0	0	0	0	
5	0	0	0	0	702	653	0	0	0	0	
6	0	0	0	0	708	668	0	0	0	0	
7	0	0	0	0	711	677	0	0	0	0	
8	0	0	0	0	707	677	0	0	0	0	
9	0	0	0	0	699	669	0	0	0	0	
10	0	0	0	0	687	653	0	0	0	0	
11	0	0	0	0	671	631	0	0	0	0	
12	0	0	0	0	653	604	0	0	0	0	
13	0	0	0	0	636	575	0	0	0	0	
14	0	0	0	0	619	547	0	0	0	0	
15	0	0	0	0	605	523	0	0	0	0	
0	0	0	0	0	594	504	0	0	0	0	
1	0	0	0	0	590	494	0	0	0	0	
2	0	0	0	0	590	492	0	0	0	0	
3	0	0	0	0	593	498	0	0	0	0	
4	0	0	0	0	604	512	0	0	0	0	
5	0	0	0	0	617	532	0	0	0	0	
6	0	0	0	0	633	557	0	0	0	0	
7	0	0	0	0	648	583	0	0	0	0	
8	0	0	0	0	664	608	0	0	0	0	
9	0	0	0	0	679	631	0	0	0	0	
10	0	0	0	0	688	647	0	0	0	0	
11	0	0	0	0	694	657	0	0	0	0	
12	0	0	0	0	694	658	0	0	0	0	
13	0	0	0	0	689	651	0	0	0	0	
14	0	0	0	0	681	637	0	0	0	0	
15	0	0	0	0	668	616	0	0	0	0	
0	0	0	0	0	652	591	0	0	0	0	
1	0	0	0	0	635	563	0	0	0	0	
2	0	0	0	0	617	535	0	0	0	0	
3	0	0	0	0	602	511	0	0	0	0	
4	0	0	0	0	589	492	0	0	0	0	
5	0	0	0	0	580	480	0	0	0	0	
6	0	0	0	0	575	475	0	0	0	0	
7	0	0	0	0	575	479	0	0	0	0	
8	0	0	0	0	581	491	0	0	0	0	
9	0	0	0	0	590	508	0	0	0	0	
10	0	0	0	0	604	531	0	0	0	0	
11	0	0	0	0	619	557	0	0	0	0	
12	0	0	0	0	635	582	0	0	0	0	
13	0	0	0	0	651	607	0	0	0	0	
14	0	0	0	0	665	627	0	0	0	0	
15	0	0	0	0	676	640	0	0	0	0	
0	0	0	0	0	683	647	0	0	0	0	
1	0	0	0	0	684	646	0	0	0	0	
2	0	0	0	0	681	636	0	0	0	0	
3	0	0	0	0	673	620	0	0	0	0	
4	0	0	0	0	662	599	0	0	0	0	
5	0	0	0	0	647	574	0	0	0	0	
6	0	0	0	0	632	549	0	0	0	0	
7	0	0	0	0	617	526	0	0	0	0	
8	0	0	0	0	604	507	0	0	0	0	
9	0	0	0	0	593	495	0	0	0	0	
10	0	0	0	0	586	489	0	0	0	0	
11	0	0	0	0	583	491	0	0	0	0	
12	0	0	0	0	585	502	0	0	0	0	
13	0	0	0	0	591	518	0	0	0	0	
14	0	0	0	0	601	538	0	0	0	0	
15	0	0	0	0	613	561	0	0	0	0	
0	0	0	0	0	626	585	0	0	0	0	
1	0	0	0	0	639	607	0	0	0	0	
2	0	0	0	0	650	624	0	0	0	0	
3	0	0	0	0	659	635	0	0	0	0	
4	0	0	0	0	664	639	0	0	0	0	
5	0	0	0	0	663	635	0	0	0	0	
6	0	0	0	0	659	624	0	0	0	0	
7	0	0	0	0	651	607	0	0	0	0	
8	0	0	0	0	639	584	0	0	0	0	
9	0	0	0	0	626	559	0	0	0	0	
10	0	0	0	0	612	534	0	0	0	0	
11	0	0	0	0	600	511	0	0	0	0	
12	0	0	0	0	589	493	0	0	0	0	
13	0	0	0	0	581	480	0	0	0	0	
14	0	0	0	0	576	476	0	0	0	0	
15	0	0	0	0	579	480	0	0	0	0	
0	0	0	0	0	584	492	0	0	0	0	
1	0	0	0	0	593	509	0	0	0	0	
2	0	0	0	0	606	531	0	0	0	0	
3	0	0	0	0	620	556	0	0	0	0	
4	0	0	0	0	635	579	0	0	0	0	
5	0	0	0	0	649	603	0	0	0	0	
6	0	0	0	0	661	620	0	0	0	0	
7	0	0	0	0	670	632	0	0	0	0	
8	0	0	0	0	675	638	0	0	0	0	
9	0	0	0	0	676	636	0	0	0	0	
10	0	0	0	0	674	627	0	0	0	0	
11	0	0	0	0	668	612	0	0	0	0	
12	0	0	0	0	658	592	0	0	0	0	
13	0	0	0	0	647	570	0	0	0	0	
14	0	0	0	0	636	548	0	0	0	0	
15	0	0	0	0	625	527	0	0	0	0	
0	0	0	0	0	615	510	0	0	0	0	
1	0	0	0	0	607	499	0	0	0	0	
2	0	0	0	0	602	493	0	0	0	0	
3	0	0	0	0	600	494	0	0	0	0	
4	0	0	0	0	602	502	0	0	0	0	
5	0	0	0	0	607	515	0	0	0	0	
6	0	0	0	0	615	533	0	0	0	0	
7	0	0	0	0	624	553	0	0	0	0	
8	0	0	0	0	634	575	0	0	0	0	
9	0	0	0	0	646	595	0	0	0	0	
10	0	0	0	0	655	611	0	0	0	0	
11	0	0	0	0	662	622	0	0	0	0	
12	0	0	0	0	665	627	0	0	0	0	
13	0	0	0	0	665	626	0	0	0	0	
14	0	0	0	0	662	617	0	0	0	0	
15	0	0	0	0	654	601	0	0	0	0	
0	0	0	0	0	643	581	0	0	0	0	
1	0	0	0	0	630	558	0	0	0	0	
2	0	0	0	0	615	535	0	0	0	0	
3	0	0	0	0	603	514	0	0	0	0	
4	0	0	0	0	592	497	0	0	0	0	
5	0	0	0	0	584	486	0	0	0	0	
6	0	0	0	0	579	482	0	0	0	0	
7	0	0	0	0	580	487	0	0	0	0	
8	0	0	0	0	585	497	0	0	0	0	
9	0	0	0	0	594	515	0	0	0	0	
10	0	0	0	0	606	536	0	0	0	0	
11	0	0	0	0	619	559	0	0	0	0	
12	0	0	0	0	632	582	0	0	0	0	
13	0	0	0	0	645	604	0	0	0	0	
14	0	0	0	0	655	619	0	0	0	0	
15	0	0	0	0	661	628	0	0	0	0	
0	0	0	0	0	663	630	0	0	0	0	
1	0	0	0	0	660	625	0	0	0	0	
2	0	0	0	0	654	612	0	0	0	0	
3	0	0	0	0	643	593	0	0	0	0	
4	0	0	0	0	631	569	0	0	0	0	
5	0	0	0	0	616	543	0	0	0	0	
6	0	0	0	0	602	519	0	0	0	0	
7	0	0	0	0	590	496	0	0	0	0	
8	0	0	0	0	580	478	0	0	0	0	
9	0	0	0	0	574	465	0	0	0	0	
10	0	0	0	0	572	461	0	0	0	0	
11	0	0	0	0	575	466	0	0	0	0	
12	0	0	0	0	583	478	0	0	0	0	
13	0	0	0	0	595	496	0	0	0	0	
14	0	0	0	0	610	520	0	0	0	0	
15	0	0	0	0	627	547	0	0	0	0	
0	0	0	0	0	645	575	0	0	0	0	
1	0	0	0	0	662	601	0	0	0	0	
2	0	0	0	0	675	622	0	0	0	0	
3	0	0	0	0	685	638	0	0	0	0	
4	0	0	0	0	689	644	0	0	0	0	
5	0	0	0	0	689	644	0	0	0	0	
6	0	0	0	0	684	635	0	0	0	0	
7	0	0	0	0	673	618	0	0	0	0	
8	0	0	0	0	658	595	0	0	0	0	
9	0	0	0	0	641	569	0	0	0	0	
10	0	0	0	0	624	542	0	0	0	0	
11	0	0	0	0	608	517	0	0	0	0	
12	0	0	0	0	595	497	0	0	0	0	
13	0	0	0	0	587	483	0	0	0	0	
14	0	0	0	0	583	477	0	0	0	0	
15	0	0	0	0	584	480	0	0	0	0	
0	0	0	0	0	592	491	0	0	0	0	
1	0	0	0	0	604	510	0	0	0	0	
2	0	0	0	0	620	534	0	0	0	0	
3	0	0	0	0	638	561	0	0	0	0	
4	0	0	0	0	657	589	0	0	0	0	
5	0	0	0	0	675	615	0	0	0	0	
6	0	0	0	0	690	638	0	0	0	0	
7	0	0	0	0	702	653	0	0	0	0	
8	0	0	0	0	708	660	0	0	0	0	
9	0	0	0	0	708	659	0	0	0	0	
10	0	0	0	0	703	650	0	0	0	0	
11	0	0	0	0	692	632	0	0	0	0	
12	0	0	0	0	675	606	0	0	0	0	
13	0	0	0	0	655	576	0	0	0	0	
14	0	0	0	0	632	545	0	0	0	0	
15	0	0	0	0	610	514	0	0	0	0	
0	0	0	0	0	588	486	0	0	0	0	
1	0	0	0	0	570	463	0	0	0	0	
2	0	0	0	0	553	448	0	0	0	0	
3	0	0	0	0	544	440	0	0	0	0	
4	0	0	0	0	539	440	0	0	0	0	
5	0	0	0	0	537	447	0	0	0	0	
6	0	0	0	0	540	459	0	0	0	0	
7	0	0	0	0	546	474	0	0	0	0	
8	0	0	0	0	552	490	0	0	0	0	
9	0	0	0	0	559	504	0	0	0	0	
10	0	0	0	0	562	514	0	0	0	0	
11	0	0	0	0	563	518	0	0	0	0	
12	0	0	0	0	559	514	0	0	0	0	
13	0	0	0	0	551	503	0	0	0	0	
14	0	0	0	0	539	484	0	0	0	0	
15	0	0	0	0	522	459	0	0	0	0	
0	0	0	0	0	503	429	0	0	0	0	
1	0	0	0	0	483	397	0	0	0	0	
2	0	0	0	0	463	365	0	0	0	0	
3	0	0	0	0	446	337	0	0	0	0	
4	0	0	0	0	432	313	0	0	0	0	
5	0	0	0	0	423	297	0	0	0	0	
6	0	0	0	0	421	289	0	0	0	0	
7	0	0	0	0	425	292	0	0	0	0	
8	0	0	0	0	436	304	0	0	0	0	
9	0	0	0	0	453	327	0	0	0	0	
10	0	0	0	0	476	359	0	0	0	0	
11	0	0	0	0	503	396	0	0	0	0	
12	0	0	0	0	533	438	0	0	0	0	
13	0	0	0	0	564	480	0	0	0	0	
14	0	0	0	0	594	520	0	0	0	0	
15	0	0	0	0	623	555	0	0	0	0	
0	0	0	0	0	647	582	0	0	0	0	
1	0	0	0	0	666	599	0	0	0	0	
2	0	0	0	0	681	608	0	0	0	0	
3	0	0	0	0	689	608	0	0	0	0	
4	0	0	0	0	693	600	0	0	0	0	
5	0	0	0	0	692	587	0	0	0	0	
6	0	0	0	0	687	569	0	0	0	0	
7	0	0	0	0	682	553	0	0	0	0	
8	0	0	0	0	675	538	0	0	0	0	
9	0	0	0	0	668	527	0	0	0	0	
10	0	0	0	0	662	521	0	0	0	0	
11	0	0	0	0	659	522	0	0	0	0	
12	0	0	0	0	659	530	0	0	0	0	
13	0	0	0	0	660	543	0	0	0	0	
14	0	0	0	0	664	560	0	0	0	0	
15	0	0	0	0	669	580	0	0	0	0	
0	0	0	0	0	674	600	0	0	0	0	
1	0	0	0	0	680	619	0	0	0	0	
2	0	0	0	0	685	633	0	0	0	0	
3	0	0	0	0	688	642	0	0	0	0	
4	0	0	0	0	688	645	0	0	0	0	
5	0	0	0	0	685	640	0	0	0	0	
6	0	0	0	0	681	630	0	0	0	0	
7	0	0	0	0	675	614	0	0	0	0	
8	0	0	0	0	667	594	0	0	0	0	
9	0	0	0	0	659	572	0	0	0	0	
10	0	0	0	0	651	549	0	0	0	0	
11	0	0	0	0	644	529	0	0	0	0	
12	0	0	0	0	639	513	0	0	0	0	
13	0	0	0	0	636	503	0	0	0	0	
14	0	0	0	0	636	500	0	0	0	0	
15	0	0	0	0	639	505	0	0	0	0	
0	0	0	0	0	645	516	0	0	0	0	
1	0	0	0	0	654	534	0	0	0	0	
2	0	0	0	0	665	556	0	0	0	0	
3	0	0	0	0	678	580	0	0	0	0	
4	0	0	0	0	689	604	0	0	0	0	
5	0	0	0	0	701	626	0	0	0	0	
6	0	0	0	0	709	643	0	0	0	0	
7	0	0	0	0	714	654	0	0	0	0	
8	0	0	0	0	714	656	0	0	0	0	
9	0	0	0	0	710	651	0	0	0	0	
10	0	0	0	0	702	637	0	0	0	0	
11	0	0	0	0	688	616	0	0	0	0	
12	0	0	0	0	671	590	0	0	0	0	
13	0	0	0	0	654	561	0	0	0	0	
14	0	0	0	0	635	532	0	0	0	0	
15	0	0	0	0	617	506	0	0	0	0	
0	0	0	0	0	603	484	0	0	0	0	
1	0	0	0	0	592	469	0	0	0	0	
2	0	0	0	0	587	463	0	0	0	0	
3	0	0	0	0	586	464	0	0	0	0	
4	0	0	0	0	592	475	0	0	0	0	
5	0	0	0	0	602	492	0	0	0	0	
6	0	0	0	0	615	515	0	0	0	0	
7	0	0	0	0	631	540	0	0	0	0	
8	0	0	0	0	647	565	0	0	0	0	
9	0	0	0	0	663	588	0	0	0	0	
10	0	0	0	0	675	606	0	0	0	0	
11	0	0	0	0	685	619	0	0	0	0	
12	0	0	0	0	692	625	0	0	0	0	
13	0	0	0	0	695	625	0	0	0	0	
14	0	0	0	0	694	619	0	0	0	0	
15	0	0	0	0	690	607	0	0	0	0	
0	0	0	0	0	684	591	0	0	0	0	
1	0	0	0	0	676	573	0	0	0	0	
2	0	0	0	0	666	553	0	0	0	0	
3	0	0	0	0	659	537	0	0	0	0	
4	0	0	0	0	651	523	0	0	0	0	
5	0	0	0	0	645	515	0	0	0	0	
6	0	0	0	0	643	511	0	0	0	0	
7	0	0	0	0	642	514	0	0	0	0	
8	0	0	0	0	647	524	0	0	0	0	
9	0	0	0	0	654	539	0	0	0	0	
10	0	0	0	0	663	557	0	0	0	0	
11	0	0	0	0	673	577	0	0	0	0	
12	0	0	0	0	684	598	0	0	0	0	
13	0	0	0	0	695	617	0	0	0	0	
14	0	0	0	0	704	631	0	0	0	0	
15	0	0	0	0	709	640	0	0	0	0	
0	0	0	0	0	711	643	0	0	0	0	
1	0	0	0	0	708	637	0	0	0	0	
2	0	0	0	0	703	626	0	0	0	0	
3	0	0	0	0	693	609	0	0	0	0	
4	0	0	0	0	680	588	0	0	0	0	
5	0	0	0	0	666	564	0	0	0	0	
6	0	0	0	0	651	540	0	0	0	0	
7	0	0	0	0	638	520	0	0	0	0	
8	0	0	0	0	626	504	0	0	0	0	
9	0	0	0	0	619	494	0	0	0	0	
10	0	0	0	0	615	492	0	0	0	0	
11	0	0	0	0	616	498	0	0	0	0	
12	0	0	0	0	624	511	0	0	0	0	
13	0	0	0	0	633	530	0	0	0	0	
14	0	0	0	0	647	553	0	0	0	0	
15	0	0	0	0	661	578	0	0	0	0	
0	0	0	0	0	675	601	0	0	0	0	
1	0	0	0	0	686	622	0	0	0	0	
2	0	0	0	0	694	637	0	0	0	0	
3	0	0	0	0	696	646	0	0	0	0	
4	0	0	0	0	695	647	0	0	0	0	
5	0	0	0	0	688	640	0	0	0	0	
6	0	0	0	0	677	627	0	0	0	0	
7	0	0	0	0	663	608	0	0	0	0	
8	0	0	0	0	647	585	0	0	0	0	
9	0	0	0	0	630	560	0	0	0	0	
10	0	0	0	0	614	536	0	0	0	0	
11	0	0	0	0	602	515	0	0	0	0	
12	0	0	0	0	591	498	0	0	0	0	
13	0	0	0	0	586	487	0	0	0	0	
14	0	0	0	0	584	483	0	0	0	0	
15	0	0	0	0	588	487	0	0	0	0	
0	0	0	0	0	595	497	0	0	0	0	
1	0	0	0	0	606	512	0	0	0	0	
2	0	0	0	0	619	532	0	0	0	0	
3	0	0	0	0	634	555	0	0	0	0	
4	0	0	0	0	648	577	0	0	0	0	
5	0	0	0	0	664	600	0	0	0	0	
6	0	0	0	0	676	618	0	0	0	0	
7	0	0	0	0	686	632	0	0	0	0	
8	0	0	0	0	692	641	0	0	0	0	
9	0	0	0	0	695	643	0	0	0	0	
10	0	0	0	0	695	639	0	0	0	0	
11	0	0	0	0	690	629	0	0	0	0	
12	0	0	0	0	684	614	0	0	0	0	
13	0	0	0	0	675	595	0	0	0	0	
14	0	0	0	0	665	575	0	0	0	0	
15	0	0	0	0	656	557	0	0	0	0	
0	0	0	0	0	648	541	0	0	0	0	
1	0	0	0	0	641	530	0	0	0	0	
2	0	0	0	0	638	525	0	0	0	0	
3	0	0	0	0	638	527	0	0	0	0	
4	0	0	0	0	642	535	0	0	0	0	
5	0	0	0	0	647	548	0	0	0	0	
6	0	0	0	0	656	566	0	0	0	0	
7	0	0	0	0	665	586	0	0	0	0	
8	0	0	0	0	675	607	0	0	0	0	
9	0	0	0	0	684	627	0	0	0	0	
10	0	0	0	0	691	642	0	0	0	0	
11	0	0	0	0	695	653	0	0	0	0	
12	0	0	0	0	695	657	0	0	0	0	
13	0	0	0	0	691	654	0	0	0	0	
14	0	0	0	0	685	645	0	0	0	0	
15	0	0	0	0	675	629	0	0	0	0	
0	0	0	0	0	663	609	0	0	0	0	
1	0	0	0	0	649	587	0	0	0	0	
2	0	0	0	0	637	564	0	0	0	0	
3	0	0	0	0	627	544	0	0	0	0	
4	0	0	0	0	619	529	0	0	0	0	
5	0	0	0	0	615	519	0	0	0	0	
6	0	0	0	0	615	517	0	0	0	0	
7	0	0	0	0	621	522	0	0	0	0	
8	0	0	0	0	630	535	0	0	0	0	
9	0	0	0	0	642	553	0	0	0	0	
10	0	0	0	0	656	576	0	0	0	0	
11	0	0	0	0	672	601	0	0	0	0	
12	0	0	0	0	685	625	0	0	0	0	
13	0	0	0	0	699	649	0	0	0	0	
14	0	0	0	0	709	668	0	0	0	0	
15	0	0	0	0	715	680	0	0	0	0	
0	0	0	0	0	717	686	0	0	0	0	
1	0	0	0	0	714	685	0	0	0	0	
2	0	0	0	0	708	677	0	0	0	0	
3	0	0	0	0	699	662	0	0	0	0	
4	0	0	0	0	687	642	0	0	0	0	
5	0	0	0	0	674	619	0	0	0	0	
6	0	0	0	0	660	595	0	0	0	0	
7	0	0	0	0	647	573	0	0	0	0	
8	0	0	0	0	637	554	0	0	0	0	
9	0	0	0	0	630	542	0	0	0	0	
10	0	0	0	0	627	536	0	0	0	0	
11	0	0	0	0	627	537	0	0	0	0	
12	0	0	0	0	633	548	0	0	0	0	
13	0	0	0	0	642	564	0	0	0	0	
14	0	0	0	0	655	586	0	0	0	0	
15	0	0	0	0	668	611	0	0	0	0	
0	0	0	0	0	682	636	0	0	0	0	
1	0	0	0	0	695	659	0	0	0	0	
2	0	0	0	0	704	678	0	0	0	0	
3	0	0	0	0	710	690	0	0	0	0	
4	0	0	0	0	711	696	0	0	0	0	
5	0	0	0	0	707	692	0	0	0	0	
6	0	0	0	0	701	683	0	0	0	0	
7	0	0	0	0	689	666	0	0	0	0	
8	0	0	0	0	676	644	0	0	0	0	
9	0	0	0	0	661	620	0	0	0	0	
10	0	0	0	0	647	595	0	0	0	0	
11	0	0	0	0	636	574	0	0	0	0	
12	0	0	0	0	627	557	0	0	0	0	
13	0	0	0	0	621	547	0	0	0	0	
14	0	0	0	0	621	544	0	0	0	0	
15	0	0	0	0	625	551	0	0	0	0	
0	0	0	0	0	633	564	0	0	0	0	
1	0	0	0	0	646	584	0	0	0	0	
2	0	0	0	0	660	610	0	0	0	0	
3	0	0	0	0	676	638	0	0	0	0	
4	0	0	0	0	691	666	0	0	0	0	
5	0	0	0	0	706	692	0	0	0	0	
6	0	0	0	0	719	713	0	0	0	0	
7	0	0	0	0	727	728	0	0	0	0	
8	0	0	0	0	731	735	0	0	0	0	
9	0	0	0	0	731	735	0	0	0	0	
10	0	0	0	0	727	727	0	0	0	0	
11	0	0	0	0	718	711	0	0	0	0	
12	0	0	0	0	707	689	0	0	0	0	
13	0	0	0	0	692	663	0	0	0	0	
14	0	0	0	0	676	636	0	0	0	0	
15	0	0	0	0	662	611	0	0	0	0	
0	0	0	0	0	649	590	0	0	0	0	
1	0	0	0	0	640	574	0	0	0	0	
2	0	0	0	0	635	566	0	0	0	0	
3	0	0	0	0	635	567	0	0	0	0	
4	0	0	0	0	640	577	0	0	0	0	
5	0	0	0	0	652	595	0	0	0	0	
6	0	0	0	0	666	620	0	0	0	0	
7	0	0	0	0	684	647	0	0	0	0	
8	0	0	0	0	702	677	0	0	0	0	
9	0	0	0	0	722	706	0	0	0	0	
10	0	0	0	0	740	732	0	0	0	0	
11	0	0	0	0	755	752	0	0	0	0	
12	0	0	0	0	765	764	0	0	0	0	
13	0	0	0	0	769	767	0	0	0	0	
14	0	0	0	0	771	763	0	0	0	0	
15	0	0	0	0	765	750	0	0	0	0	
0	0	0	0	0	754	730	0	0	0	0	
1	0	0	0	0	740	706	0	0	0	0	
2	0	0	0	0	723	679	0	0	0	0	
3	0	0	0	0	707	654	0	0	0	0	
4	0	0	0	0	691	631	0	0	0	0	
5	0	0	0	0	678	614	0	0	0	0	
6	0	0	0	0	669	604	0	0	0	0	
7	0	0	0	0	666	603	0	0	0	0	
8	0	0	0	0	669	611	0	0	0	0	
9	0	0	0	0	678	627	0	0	0	0	
10	0	0	0	0	691	649	0	0	0	0	
11	0	0	0	0	707	676	0	0	0	0	
12	0	0	0	0	726	705	0	0	0	0	
13	0	0	0	0	745	734	0	0	0	0	
14	0	0	0	0	762	758	0	0	0	0	
15	0	0	0	0	775	776	0	0	0	0	
0	0	0	0	0	785	787	0	0	0	0	
1	0	0	0	0	788	790	0	0	0	0	
2	0	0	0	0	786	783	0	0	0	0	
3	0	0	0	0	777	767	0	0	0	0	
4	0	0	0	0	764	744	0	0	0	0	
5	0	0	0	0	748	716	0	0	0	0	
6	0	0	0	0	728	687	0	0	0	0	
7	0	0	0	0	710	658	0	0	0	0	
8	0	0	0	0	693	633	0	0	0	0	
9	0	0	0	0	679	614	0	0	0	0	
10	0	0	0	0	669	601	0	0	0	0	
11	0	0	0	0	664	598	0	0	0	0	
12	0	0	0	0	666	605	0	0	0	0	
13	0	0	0	0	672	618	0	0	0	0	
14	0	0	0	0	683	638	0	0	0	0	
15	0	0	0	0	696	661	0	0	0	0	
0	0	0	0	0	711	686	0	0	0	0	
1	0	0	0	0	728	712	0	0	0	0	
2	0	0	0	0	742	733	0	0	0	0	
3	0	0	0	0	753	748	0	0	0	0	
4	0	0	0	0	759	756	0	0	0	0	
5	0	0	0	0	761	758	0	0	0	0	
6	0	0	0	0	760	751	0	0	0	0	
7	0	0	0	0	752	735	0	0	0	0	
8	0	0	0	0	741	715	0	0	0	0	
9	0	0	0	0	728	689	0	0	0	0	
10	0	0	0	0	713	664	0	0	0	0	
11	0	0	0	0	700	640	0	0	0	0	
12	0	0	0	0	689	619	0	0	0	0	
13	0	0	0	0	681	603	0	0	0	0	
14	0	0	0	0	676	594	0	0	0	0	
15	0	0	0	0	677	594	0	0	0	0	
0	0	0	0	0	682	601	0	0	0	0	
1	0	0	0	0	690	614	0	0	0	0	
2	0	0	0	0	700	632	0	0	0	0	
3	0	0	0	0	712	653	0	0	0	0	
4	0	0	0	0	723	676	0	0	0	0	
5	0	0	0	0	735	698	0	0	0	0	
6	0	0	0	0	743	716	0	0	0	0	
7	0	0	0	0	748	728	0	0	0	0	
8	0	0	0	0	750	734	0	0	0	0	
9	0	0	0	0	748	734	0	0	0	0	
10	0	0	0	0	743	727	0	0	0	0	
11	0	0	0	0	734	713	0	0	0	0	
12	0	0	0	0	725	695	0	0	0	0	
13	0	0	0	0	716	675	0	0	0	0	
14	0	0	0	0	708	657	0	0	0	0	
15	0	0	0	0	703	639	0	0	0	0	
0	0	0	0	0	700	625	0	0	0	0	
1	0	0	0	0	700	617	0	0	0	0	
2	0	0	0	0	703	615	0	0	0	0	
3	0	0	0	0	709	622	0	0	0	0	
4	0	0	0	0	719	635	0	0	0	0	
5	0	0	0	0	731	652	0	0	0	0	
6	0	0	0	0	743	675	0	0	0	0	
7	0	0	0	0	755	698	0	0	0	0	
8	0	0	0	0	766	723	0	0	0	0	
9	0	0	0	0	775	745	0	0	0	0	
10	0	0	0	0	780	762	0	0	0	0	
11	0	0	0	0	782	774	0	0	0	0	
12	0	0	0	0	780	779	0	0	0	0	
13	0	0	0	0	774	777	0	0	0	0	
14	0	0	0	0	766	766	0	0	0	0	
15	0	0	0	0	753	748	0	0	0	0	
0	0	0	0	0	739	725	0	0	0	0	
1	0	0	0	0	722	698	0	0	0	0	
2	0	0	0	0	706	671	0	0	0	0	
3	0	0	0	0	692	643	0	0	0	0	
4	0	0	0	0	680	620	0	0	0	0	
5	0	0	0	0	672	602	0	0	0	0	
6	0	0	0	0	667	591	0	0	0	0	
7	0	0	0	0	669	588	0	0	0	0	
8	0	0	0	0	675	595	0	0	0	0	
9	0	0	0	0	685	608	0	0	0	0	
10	0	0	0	0	698	628	0	0	0	0	
11	0	0	0	0	711	651	0	0	0	0	
12	0	0	0	0	727	676	0	0	0	0	
13	0	0	0	0	740	699	0	0	0	0	
14	0	0	0	0	751	719	0	0	0	0	
15	0	0	0	0	759	734	0	0	0	0	
0	0	0	0	0	763	741	0	0	0	0	
1	0	0	0	0	762	742	0	0	0	0	
2	0	0	0	0	759	735	0	0	0	0	
3	0	0	0	0	750	720	0	0	0	0	
4	0	0	0	0	739	700	0	0	0	0	
5	0	0	0	0	727	677	0	0	0	0	
6	0	0	0	0	715	654	0	0	0	0	
7	0	0	0	0	705	632	0	0	0	0	
8	0	0	0	0	696	612	0	0	0	0	
9	0	0	0	0	689	598	0	0	0	0	
10	0	0	0	0	687	591	0	0	0	0	
11	0	0	0	0	689	593	0	0	0	0	
12	0	0	0	0	696	601	0	0	0	0	
13	0	0	0	0	704	615	0	0	0	0	
14	0	0	0	0	715	636	0	0	0	0	
15	0	0	0	0	727	658	0	0	0	0	
0	0	0	0	0	739	681	0	0	0	0	
1	0	0	0	0	750	703	0	0	0	0	
2	0	0	0	0	756	720	0	0	0	0	
3	0	0	0	0	759	731	0	0	0	0	
4	0	0	0	0	758	735	0	0	0	0	
5	0	0	0	0	752	733	0	0	0	0	
6	0	0	0	0	744	723	0	0	0	0	
7	0	0	0	0	733	705	0	0	0	0	
8	0	0	0	0	719	683	0	0	0	0	
9	0	0	0	0	704	657	0	0	0	0	
10	0	0	0	0	691	632	0	0	0	0	
11	0	0	0	0	679	608	0	0	0	0	
12	0	0	0	0	671	588	0	0	0	0	
13	0	0	0	0	666	573	0	0	0	0	
14	0	0	0	0	664	564	0	0	0	0	
15	0	0	0	0	667	564	0	0	0	0	
0	0	0	0	0	674	572	0	0	0	0	
1	0	0	0	0	684	585	0	0	0	0	
2	0	0	0	0	697	605	0	0	0	0	
3	0	0	0	0	710	627	0	0	0	0	
4	0	0	0	0	723	652	0	0	0	0	
5	0	0	0	0	736	675	0	0	0	0	
6	0	0	0	0	746	694	0	0	0	0	
7	0	0	0	0	754	709	0	0	0	0	
8	0	0	0	0	757	717	0	0	0	0	
9	0	0	0	0	757	718	0	0	0	0	
10	0	0	0	0	754	711	0	0	0	0	
11	0	0	0	0	746	697	0	0	0	0	
12	0	0	0	0	735	678	0	0	0	0	
13	0	0	0	0	721	653	0	0	0	0	
14	0	0	0	0	706	628	0	0	0	0	
15	0	0	0	0	693	604	0	0	0	0	
0	0	0	0	0	680	582	0	0	0	0	
1	0	0	0	0	671	566	0	0	0	0	
2	0	0	0	0	664	556	0	0	0	0	
3	0	0	0	0	661	556	0	0	0	0	
4	0	0	0	0	664	562	0	0	0	0	
5	0	0	0	0	671	575	0	0	0	0	
6	0	0	0	0	681	595	0	0	0	0	
7	0	0	0	0	693	618	0	0	0	0	
8	0	0	0	0	707	643	0	0	0	0	
9	0	0	0	0	721	668	0	0	0	0	
10	0	0	0	0	734	689	0	0	0	0	
11	0	0	0	0	744	705	0	0	0	0	
12	0	0	0	0	751	715	0	0	0	0	
13	0	0	0	0	755	720	0	0	0	0	
14	0	0	0	0	756	716	0	0	0	0	
15	0	0	0	0	752	706	0	0	0	0	
0	0	0	0	0	744	689	0	0	0	0	
1	0	0	0	0	735	670	0	0	0	0	
2	0	0	0	0	724	647	0	0	0	0	
3	0	0	0	0	713	625	0	0	0	0	
4	0	0	0	0	701	604	0	0	0	0	
5	0	0	0	0	691	588	0	0	0	0	
6	0	0	0	0	684	576	0	0	0	0	
7	0	0	0	0	679	572	0	0	0	0	
8	0	0	0	0	678	575	0	0	0	0	
9	0	0	0	0	680	583	0	0	0	0	
10	0	0	0	0	686	596	0	0	0	0	
11	0	0	0	0	693	613	0	0	0	0	
12	0	0	0	0	702	633	0	0	0	0	
13	0	0	0	0	713	653	0	0	0	0	
14	0	0	0	0	724	671	0	0	0	0	
15	0	0	0	0	733	684	0	0	0	0	
0	0	0	0	0	739	692	0	0	0	0	
1	0	0	0	0	742	694	0	0	0	0	
2	0	0	0	0	742	688	0	0	0	0	
3	0	0	0	0	737	675	0	0	0	0	
4	0	0	0	0	731	658	0	0	0	0	
5	0	0	0	0	721	638	0	0	0	0	
6	0	0	0	0	711	615	0	0	0	0	
7	0	0	0	0	700	594	0	0	0	0	
8	0	0	0	0	690	576	0	0	0	0	
9	0	0	0	0	682	563	0	0	0	0	
10	0	0	0	0	677	556	0	0	0	0	
11	0	0	0	0	675	558	0	0	0	0	
12	0	0	0	0	679	567	0	0	0	0	
13	0	0	0	0	686	582	0	0	0	0	
14	0	0	0	0	696	602	0	0	0	0	
15	0	0	0	0	709	626	0	0	0	0	
0	0	0	0	0	724	651	0	0	0	0	
1	0	0	0	0	740	675	0	0	0	0	
2	0	0	0	0	753	694	0	0	0	0	
3	0	0	0	0	764	709	0	0	0	0	
4	0	0	0	0	771	716	0	0	0	0	
5	0	0	0	0	774	715	0	0	0	0	
6	0	0	0	0	772	707	0	0	0	0	
7	0	0	0	0	764	690	0	0	0	0	
8	0	0	0	0	751	667	0	0	0	0	
9	0	0	0	0	737	641	0	0	0	0	
10	0	0	0	0	719	612	0	0	0	0	
11	0	0	0	0	701	586	0	0	0	0	
12	0	0	0	0	684	561	0	0	0	0	
13	0	0	0	0	669	543	0	0	0	0	
14	0	0	0	0	657	532	0	0	0	0	
15	0	0	0	0	651	529	0	0	0	0	
0	0	0	0	0	649	535	0	0	0	0	
1	0	0	0	0	652	547	0	0	0	0	
2	0	0	0	0	659	565	0	0	0	0	
3	0	0	0	0	668	587	0	0	0	0	
4	0	0	0	0	679	609	0	0	0	0	
5	0	0	0	0	692	632	0	0	0	0	
6	0	0	0	0	704	650	0	0	0	0	
7	0	0	0	0	712	664	0	0	0	0	
8	0	0	0	0	718	670	0	0	0	0	
9	0	0	0	0	719	669	0	0	0	0	
10	0	0	0	0	715	661	0	0	0	0	
11	0	0	0	0	707	644	0	0	0	0	
12	0	0	0	0	696	623	0	0	0	0	
13	0	0	0	0	681	598	0	0	0	0	
14	0	0	0	0	666	572	0	0	0	0	
15	0	0	0	0	652	547	0	0	0	0	
0	0	0	0	0	639	526	0	0	0	0	
1	0	0	0	0	630	511	0	0	0	0	
2	0	0	0	0	625	503	0	0	0	0	
3	0	0	0	0	624	503	0	0	0	0	
4	0	0	0	0	628	511	0	0	0	0	
5	0	0	0	0	636	525	0	0	0	0	
6	0	0	0	0	647	544	0	0	0	0	
7	0	0	0	0	661	567	0	0	0	0	
8	0	0	0	0	676	591	0	0	0	0	
9	0	0	0	0	692	615	0	0	0	0	
10	0	0	0	0	706	636	0	0	0	0	
11	0	0	0	0	716	651	0	0	0	0	
12	0	0	0	0	724	659	0	0	0	0	
13	0	0	0	0	726	660	0	0	0	0	
14	0	0	0	0	726	655	0	0	0	0	
15	0	0	0	0	719	641	0	0	0	0	
0	0	0	0	0	709	623	0	0	0	0	
1	0	0	0	0	696	600	0	0	0	0	
2	0	0	0	0	681	574	0	0	0	0	
3	0	0	0	0	667	551	0	0	0	0	
4	0	0	0	0	653	530	0	0	0	0	
5	0	0	0	0	641	514	0	0	0	0	
6	0	0	0	0	633	504	0	0	0	0	
7	0	0	0	0	629	503	0	0	0	0	
8	0	0	0	0	632	510	0	0	0	0	
9	0	0	0	0	638	524	0	0	0	0	
10	0	0	0	0	648	545	0	0	0	0	
11	0	0	0	0	662	569	0	0	0	0	
12	0	0	0	0	677	595	0	0	0	0	
13	0	0	0	0	693	621	0	0	0	0	
14	0	0	0	0	708	643	0	0	0	0	
15	0	0	0	0	720	660	0	0	0	0	
0	0	0	0	0	729	671	1	0	0	0	
1	0	0	0	0	733	674	0	0	0	0	
2	0	0	0	0	734	671	0	0	0	0	
3	0	0	0	0	729	658	0	0	0	0	
4	0	0	0	0	720	639	0	0	0	0	
5	0	0	0	0	709	616	0	0	0	0	
6	0	0	0	0	694	591	0	0	0	0	
7	0	0	0	0	681	567	0	0	0	0	
8	0	0	0	0	668	545	0	0	0	0	
9	0	0	0	0	656	527	0	0	0	0	
10	0	0	0	0	647	516	0	0	0	0	
11	0	0	0	0	643	513	0	0	0	0	
12	0	0	0	0	643	519	0	0	0	0	
13	0	0	0	0	646	530	0	0	0	0	
14	0	0	0	0	653	548	0	0	0	0	
15	0	0	0	0	662	568	0	0	0	0	
0	0	0	0	0	672	591	0	0	0	0	
1	0	0	0	0	683	612	0	0	0	0	
2	0	0	0	0	691	630	0	0	0	0	
3	0	0	0	0	697	643	0	0	0	0	
4	0	0	0	0	700	650	0	0	0	0	
5	0	0	0	0	698	649	0	0	0	0	
6	0	0	0	0	696	643	0	0	0	0	
7	0	0	0	0	689	629	0	0	0	0	
8	0	0	0	0	680	611	0	0	0	0	
9	0	0	0	0	671	590	0	0	0	0	
10	0	0	0	0	662	568	0	0	0	0	
11	0	0	0	0	654	548	0	0	0	0	
12	0	0	0	0	647	531	0	0	0	0	
13	0	0	0	0	644	519	0	0	0	0	
14	0	0	0	0	643	514	0	0	0	0	
15	0	0	0	0	646	516	0	0	0	0	
0	0	0	0	0	652	525	0	0	0	0	
1	0	0	0	0	661	540	0	0	0	0	
2	0	0	0	0	671	559	0	0	0	0	
3	0	0	0	0	683	582	0	0	0	0	
4	0	0	0	0	694	605	0	0	0	0	
5	0	0	0	0	705	627	0	0	0	0	
6	0	0	0	0	713	645	0	0	0	0	
7	0	0	0	0	718	658	0	0	0	0	
8	0	0	0	0	720	664	0	0	0	0	
9	0	0	0	0	718	663	0	0	0	0	
10	0	0	0	0	713	655	0	0	0	0	
11	0	0	0	0	704	639	0	0	0	0	
12	0	0	0	0	692	617	0	0	0	0	
13	0	0	0	0	679	593	0	0	0	0	
14	0	0	0	0	665	567	0	0	0	0	
15	0	0	0	0	655	543	0	0	0	0	
0	0	0	0	0	645	523	0	0	0	0	
1	0	0	0	0	640	508	0	0	0	0	
2	0	0	0	0	639	502	0	0	0	0	
3	0	0	0	0	640	502	0	0	0	0	
4	0	0	0	0	647	511	0	0	0	0	
5	0	0	0	0	656	526	0	0	0	0	
6	0	0	0	0	668	546	0	0	0	0	
7	0	0	0	0	680	569	0	0	0	0	
8	0	0	0	0	691	592	0	0	0	0	
9	0	0	0	0	702	614	0	0	0	0	
10	0	0	0	0	709	631	0	0	0	0	
11	0	0	0	0	713	642	0	0	0	0	
12	0	0	0	0	713	647	0	0	0	0	
13	0	0	0	0	710	646	0	0	0	0	
14	0	0	0	0	704	638	0	0	0	0	
15	0	0	0	0	696	623	0	0	0	0	
0	0	0	0	0	687	605	0	0	0	0	
1	0	0	0	0	676	583	0	0	0	0	
2	0	0	0	0	666	560	0	0	0	0	
3	0	0	0	0	659	540	0	0	0	0	
4	0	0	0	0	653	524	0	0	0	0	
5	0	0	0	0	651	513	0	0	0	0	
6	0	0	0	0	651	508	0	0	0	0	
7	0	0	0	0	655	512	0	0	0	0	
8	0	0	0	0	664	521	0	0	0	0	
9	0	0	0	0	673	537	0	0	0	0	
10	0	0	0	0	684	557	0	0	0	0	
11	0	0	0	0	696	579	0	0	0	0	
12	0	0	0	0	707	601	0	0	0	0	
13	0	0	0	0	718	624	0	0	0	0	
14	0	0	0	0	725	641	0	0	0	0	
15	0	0	0	0	729	653	0	0	0	0	
0	0	0	0	0	729	658	0	0	0	0	
1	0	0	0	0	725	654	0	0	0	0	
2	0	0	0	0	718	644	0	0	0	0	
3	0	0	0	0	707	626	0	0	0	0	
4	0	0	0	0	692	602	0	0	0	0	
5	0	0	0	0	676	575	0	0	0	0	
6	0	0	0	0	659	546	0	0	0	0	
7	0	0	0	0	644	520	0	0	0	0	
8	0	0	0	0	632	498	0	0	0	0	
9	0	0	0	0	622	482	0	0	0	0	
10	0	0	0	0	616	473	0	0	0	0	
11	0	0	0	0	615	473	0	0	0	0	
12	0	0	0	0	620	482	0	0	0	0	
13	0	0	0	0	627	497	0	0	0	0	
14	0	0	0	0	638	518	0	0	0	0	
15	0	0	0	0	652	543	0	0	0	0	
0	0	0	0	0	665	568	0	0	0	0	
1	0	0	0	0	679	591	0	0	0	0	
2	0	0	0	0	691	611	0	0	0	0	
3	0	0	0	0	699	624	0	0	0	0	
4	0	0	0	0	703	630	0	0	0	0	
5	0	0	0	0	701	627	0	0	0	0	
6	0	0	0	0	696	616	0	0	0	0	
7	0	0	0	0	686	598	0	0	0	0	
8	0	0	0	0	672	574	0	0	0	0	
9	0	0	0	0	656	546	0	0	0	0	
10	0	0	0	0	640	519	0	0	0	0	
11	0	0	0	0	627	494	0	0	0	0	
12	0	0	0	0	614	472	0	0	0	0	
13	0	0	0	0	606	457	0	0	0	0	
14	0	0	0	0	602	449	0	0	0	0	
15	0	0	0	0	603	450	0	0	0	0	
0	0	0	0	0	609	460	0	0	0	0	
1	0	0	0	0	620	477	0	0	0	0	
2	0	0	0	0	634	499	0	0	0	0	
3	0	0	0	0	651	525	0	0	0	0	
4	0	0	0	0	668	551	0	0	0	0	
5	0	0	0	0	684	577	0	0	0	0	
6	0	0	0	0	697	599	0	0	0	0	
7	0	0	0	0	707	615	0	0	0	0	
8	0	0	0	0	713	624	0	0	0	0	
9	0	0	0	0	715	626	0	0	0	0	
10	0	0	0	0	712	621	0	0	0	0	
11	0	0	0	0	705	609	0	0	0	0	
12	0	0	0	0	694	591	0	0	0	0	
13	0	0	0	0	679	569	0	0	0	0	
14	0	0	0	0	664	545	0	0	0	0	
15	0	0	0	0	648	520	0	0	0	0	
0	0	0	0	0	633	499	0	0	0	0	
1	0	0	0	0	620	482	0	0	0	0	
2	0	0	0	0	612	472	0	0	0	0	
3	0	0	0	0	607	468	0	0	0	0	
4	0	0	0	0	608	473	0	0	0	0	
5	0	0	0	0	612	484	0	0	0	0	
6	0	0	0	0	621	500	0	0	0	0	
7	0	0	0	0	633	520	0	0	0	0	
8	0	0	0	0	646	542	0	0	0	0	
9	0	0	0	0	660	563	0	0	0	0	
10	0	0	0	0	672	582	0	0	0	0	
11	0	0	0	0	683	595	0	0	0	0	
12	0	0	0	0	690	603	0	0	0	0	
13	0	0	0	0	693	603	0	0	0	0	
14	0	0	0	0	692	598	0	0	0	0	
15	0	0	0	0	686	583	0	0	0	0	
0	0	0	0	0	677	564	0	0	0	0	
1	0	0	0	0	664	540	0	0	0	0	
2	0	0	0	0	648	514	0	0	0	0	
3	0	0	0	0	632	489	0	0	0	0	
4	0	0	0	0	616	467	0	0	0	0	
5	0	0	0	0	601	448	0	0	0	0	
6	0	0	0	0	590	435	0	0	0	0	
7	0	0	0	0	583	430	0	0	0	0	
8	0	0	0	0	579	431	0	0	0	0	
9	0	0	0	0	579	439	0	0	0	0	
10	0	0	0	0	582	450	0	0	0	0	
11	0	0	0	0	585	464	0	0	0	0	
12	0	0	0	0	589	479	0	0	0	0	
13	0	0	0	0	592	492	0	0	0	0	
14	0	0	0	0	591	499	0	0	0	0	
15	0	0	0	0	587	501	0	0	0	0	
0	0	0	0	0	578	494	0	0	0	0	
1	0	0	0	0	564	481	0	0	0	0	
2	0	0	0	0	546	459	0	0	0	0	
3	0	0	0	0	524	431	0	0	0	0	
4	0	0	0	0	499	399	0	0	0	0	
5	0	0	0	0	474	364	0	0	0	0	
6	0	0	0	0	449	329	0	0	0	0	
7	0	0	0	0	428	296	0	0	0	0	
8	0	0	0	0	410	268	0	0	0	0	
9	0	0	0	0	398	246	0	0	0	0	
10	0	0	0	0	393	234	0	0	0	0	
11	0	0	0	0	396	232	0	0	0	0	
12	0	0	0	0	407	241	0	0	0	0	
13	0	0	0	0	425	262	0	0	0	0	
14	0	0	0	0	449	291	0	0	0	0	
15	0	0	0	0	478	327	0	0	0	0	
0	0	0	0	0	509	370	0	0	0	0	
1	0	0	0	0	541	412	0	0	0	0	
2	0	0	0	0	571	454	0	0	0	0	
3	0	0	0	0	598	490	0	0	0	0	
4	0	0	0	0	620	518	0	0	0	0	
5	0	0	0	0	636	538	0	0	0	0	
6	0	0	0	0	648	547	0	0	0	0	
7	0	0	0	0	653	548	0	0	0	0	
8	0	0	0	0	654	540	0	0	0	0	
9	0	0	0	0	649	525	0	0	0	0	
10	0	0	0	0	641	507	0	0	0	0	
11	0	0	0	0	631	487	0	0	0	0	
12	0	0	0	0	619	467	0	0	0	0	
13	0	0	0	0	607	449	0	0	0	0	
14	0	0	0	0	595	436	0	0	0	0	
15	0	0	0	0	586	430	0	0	0	0	
0	0	0	0	0	581	430	0	0	0	0	
1	0	0	0	0	579	436	0	0	0	0	
2	0	0	0	0	583	450	0	0	0	0	
3	0	0	0	0	588	469	0	0	0	0	
4	0	0	0	0	596	490	0	0	0	0	
5	0	0	0	0	607	512	0	0	0	0	
6	0	0	0	0	618	533	0	0	0	0	
7	0	0	0	0	628	550	0	0	0	0	
8	0	0	0	0	636	561	0	0	0	0	
9	0	0	0	0	641	566	0	0	0	0	
10	0	0	0	0	645	565	0	0	0	0	
11	0	0	0	0	646	558	0	0	0	0	
12	0	0	0	0	644	545	0	0	0	0	
13	0	0	0	0	640	529	0	0	0	0	
14	0	0	0	0	636	514	0	0	0	0	
15	0	0	0	0	633	500	0	0	0	0	
0	0	0	0	0	632	490	0	0	0	0	
1	0	0	0	0	633	485	0	0	0	0	
2	0	0	0	0	636	486	0	0	0	0	
3	0	0	0	0	643	496	0	0	0	0	
4	0	0	0	0	654	511	0	0	0	0	
5	0	0	0	0	667	532	0	0	0	0	
6	0	0	0	0	682	558	0	0	0	0	
7	0	0	0	0	697	586	0	0	0	0	
8	0	0	0	0	713	614	0	0	0	0	
9	0	0	0	0	727	640	0	0	0	0	
10	0	0	0	0	738	660	0	0	0	0	
11	0	0	0	0	745	675	0	0	0	0	
12	0	0	0	0	746	680	0	0	0	0	
13	0	0	0	0	741	676	0	0	0	0	
14	0	0	0	0	730	664	0	0	0	0	
15	0	0	0	0	713	641	0	0	0	0	
0	0	0	0	0	692	612	0	0	0	0	
1	0	0	0	0	668	579	0	0	0	0	
2	0	0	0	0	643	543	0	0	0	0	
3	0	0	0	0	620	511	0	0	0	0	
4	0	0	0	0	599	483	0	0	0	0	
5	0	0	0	0	583	463	0	0	0	0	
6	0	0	0	0	573	451	0	0	0	0	
7	0	0	0	0	569	448	0	0	0	0	
8	0	0	0	0	572	456	0	0	0	0	
9	0	0	0	0	581	471	0	0	0	0	
10	0	0	0	0	594	492	0	0	0	0	
11	0	0	0	0	610	519	0	0	0	0	
12	0	0	0	0	627	545	0	0	0	0	
13	0	0	0	0	645	573	0	0	0	0	
14	0	0	0	0	659	595	0	0	0	0	
15	0	0	0	0	670	612	0	0	0	0	
0	0	0	0	0	676	622	0	0	0	0	
1	0	0	0	0	676	624	0	0	0	0	
2	0	0	0	0	671	619	0	0	0	0	
3	0	0	0	0	661	605	0	0	0	0	
4	0	0	0	0	647	586	0	0	0	0	
5	0	0	0	0	630	563	0	0	0	0	
6	0	0	0	0	611	537	0	0	0	0	
7	0	0	0	0	595	515	0	0	0	0	
8	0	0	0	0	581	496	0	0	0	0	
9	0	0	0	0	572	483	0	0	0	0	
10	0	0	0	0	568	479	0	0	0	0	
11	0	0	0	0	571	482	0	0	0	0	
12	0	0	0	0	580	495	0	0	0	0	
13	0	0	0	0	595	515	0	0	0	0	
14	0	0	0	0	614	542	0	0	0	0	
15	0	0	0	0	637	573	0	0	0	0	
0	0	0	0	0	660	604	0	0	0	0	
1	0	0	0	0	684	636	0	0	0	0	
2	0	0	0	0	705	664	0	0	0	0	
3	0	0	0	0	722	685	0	0	0	0	
4	0	0	0	0	732	698	0	0	0	0	
5	0	0	0	0	737	703	0	0	0	0	
6	0	0	0	0	735	699	0	0	0	0	
7	0	0	0	0	726	686	0	0	0	0	
8	0	0	0	0	710	665	0	0	0	0	
9	0	0	0	0	692	640	0	0	0	0	
10	0	0	0	0	670	611	0	0	0	0	
11	0	0	0	0	649	583	0	0	0	0	
12	0	0	0	0	630	558	0	0	0	0	
13	0	0	0	0	614	538	0	0	0	0	
14	0	0	0	0	604	526	0	0	0	0	
15	0	0	0	0	599	523	0	0	0	0	
0	0	0	0	0	601	529	0	0	0	0	
1	0	0	0	0	610	543	0	0	0	0	
2	0	0	0	0	622	563	0	0	0	0	
3	0	0	0	0	639	587	0	0	0	0	
4	0	0	0	0	655	611	0	0	0	0	
5	0	0	0	0	671	635	0	0	0	0	
6	0	0	0	0	684	654	0	0	0	0	
7	0	0	0	0	691	665	0	0	0	0	
8	0	0	0	0	692	667	0	0	0	0	
9	0	0	0	0	686	661	0	0	0	0	
10	0	0	0	0	674	646	0	0	0	0	
11	0	0	0	0	657	623	0	0	0	0	
12	0	0	0	0	636	594	0	0	0	0	
13	0	0	0	0	613	561	0	0	0	0	
14	0	0	0	0	592	530	0	0	0	0	
15	0	0	0	0	572	502	0	0	0	0	
0	0	0	0	0	558	479	0	0	0	0	
1	0	0	0	0	549	465	0	0	0	0	
2	0	0	0	0	548	463	0	0	0	0	
3	0	0	0	0	555	471	0	0	0	0	
4	0	0	0	0	571	491	0	0	0	0	
5	0	0	0	0	593	521	0	0	0	0	
6	0	0	0	0	621	559	0	0	0	0	
7	0	0	0	0	652	601	0	0	0	0	
8	0	0	0	0	683	644	0	0	0	0	
9	0	0	0	0	713	686	0	0	0	0	
10	0	0	0	0	739	722	0	0	0	0	
11	0	0	0	0	760	752	0	0	0	0	
12	0	0	0	0	773	771	0	0	0	0	
13	0	0	0	0	779	781	0	0	0	0	
14	0	0	0	0	779	781	0	0	0	0	
15	0	0	0	0	770	769	0	0	0	0	
0	0	0	0	0	755	748	0	0	0	0	
1	0	0	0	0	733	720	0	0	0	0	
2	0	0	0	0	710	688	0	0	0	0	
3	0	0	0	0	686	656	0	0	0	0	
4	0	0	0	0	662	626	0	0	0	0	
5	0	0	0	0	640	599	0	0	0	0	
6	0	0	0	0	620	580	0	0	0	0	
7	0	0	0	0	607	568	0	0	0	0	
8	0	0	0	0	599	567	0	0	0	0	
9	0	0	0	0	596	574	0	0	0	0	
10	0	0	0	0	597	587	0	0	0	0	
11	0	0	0	0	603	607	0	0	0	0	
12	0	0	0	0	610	630	0	0	0	0	
13	0	0	0	0	620	654	0	0	0	0	
14	0	0	0	0	630	675	0	0	0	0	
15	0	0	0	0	638	694	0	0	0	0	
0	0	0	0	0	644	706	0	0	0	0	
1	0	0	0	0	648	712	0	0	0	0	
2	0	0	0	0	650	712	0	0	0	0	
3	0	0	0	0	648	704	0	0	0	0	
4	0	0	0	0	644	690	0	0	0	0	
5	0	0	0	0	637	672	0	0	0	0	
6	0	0	0	0	628	650	0	0	0	0	
7	0	0	0	0	619	629	0	0	0	0	
8	0	0	0	0	609	609	0	0	0	0	
9	0	0	0	0	600	592	0	0	0	0	
10	0	0	0	0	592	581	0	0	0	0	
11	0	0	0	0	585	575	0	0	0	0	
12	0	0	0	0	582	578	0	0	0	0	
13	0	0	0	0	580	587	0	0	0	0	
14	0	0	0	0	583	603	0	0	0	0	
15	0	0	0	0	588	624	0	0	0	0	
0	0	0	0	0	594	648	0	0	0	0	
1	0	0	0	0	604	673	0	0	0	0	
2	0	0	0	0	614	696	0	0	0	0	
3	0	0	0	0	623	716	0	0	0	0	
4	0	0	0	0	631	730	0	0	0	0	
5	0	0	0	0	638	738	0	0	0	0	
6	0	0	0	0	642	739	0	0	0	0	
7	0	0	0	0	644	732	0	0	0	0	
8	0	0	0	0	643	719	0	0	0	0	
9	0	0	0	0	640	702	0	0	0	0	
10	0	0	0	0	636	682	0	0	0	0	
11	0	0	0	0	633	664	0	0	0	0	
12	0	0	0	0	630	647	0	0	0	0	
13	0	0	0	0	630	638	0	0	0	0	
14	0	0	0	0	633	634	0	0	0	0	
15	0	0	0	0	638	637	0	0	0	0	
0	0	0	0	0	647	649	0	0	0	0	
1	0	0	0	0	658	667	0	0	0	0	
2	0	0	0	0	671	691	0	0	0	0	
3	0	0	0	0	684	717	0	0	0	0	
4	0	0	0	0	696	743	0	0	0	0	
5	0	0	0	0	708	771	0	0	0	0	
6	0	0	0	0	715	792	0	0	0	0	
7	0	0	0	0	718	808	0	0	0	0	
8	0	0	0	0	717	817	0	0	0	0	
9	0	0	0	0	711	818	0	0	0	0	
10	0	0	0	0	700	811	0	0	0	0	
11	0	0	0	0	685	793	0	0	0	0	
12	0	0	0	0	668	771	0	0	0	0	
13	0	0	0	0	648	743	0	0	0	0	
14	0	0	0	0	629	713	0	0	0	0	
15	0	0	0	0	612	686	0	0	0	0	
0	0	0	0	0	600	662	0	0	0	0	
1	0	0	0	0	590	643	0	0	0	0	
2	0	0	0	0	587	633	0	0	0	0	
3	0	0	0	0	588	630	0	0	0	0	
4	0	0	0	0	594	638	0	0	0	0	
5	0	0	0	0	605	652	0	0	0	0	
6	0	0	0	0	619	673	0	0	0	0	
7	0	0	0	0	634	698	0	0	0	0	
8	0	0	0	0	651	726	0	0	0	0	
9	0	0	0	0	666	753	0	0	0	0	
10	0	0	0	0	679	777	0	0	0	0	
11	0	0	0	0	687	795	0	0	0	0	
12	0	0	0	0	692	807	0	0	0	0	
13	0	0	0	0	691	813	0	0	0	0	
14	0	0	0	0	688	810	0	0	0	0	
15	0	0	0	0	679	800	0	0	0	0	
0	0	0	0	0	668	784	0	0	0	0	
1	0	0	0	0	657	765	0	0	0	0	
2	0	0	0	0	643	743	0	0	0	0	
3	0	0	0	0	632	721	0	0	0	0	
4	0	0	0	0	620	701	0	0	0	0	
5	0	0	0	0	611	685	0	0	0	0	
6	0	0	0	0	605	674	0	0	0	0	
7	0	0	0	0	601	669	0	0	0	0	
8	0	0	0	0	601	672	0	0	0	0	
9	0	0	0	0	604	681	0	0	0	0	
10	0	0	0	0	608	695	0	0	0	0	
11	0	0	0	0	615	713	0	0	0	0	
12	0	0	0	0	623	734	0	0	0	0	
13	0	0	0	0	631	755	0	0	0	0	
14	0	0	0	0	638	774	0	0	0	0	
