# OpenSignals Text File Format. Version 1
# {"": {"position": 0, "device": "", "device name": "", "device connection": "", "sampling rate": 1000, "resolution": [4, 1, 1, 1, 1, 10, 10, 10, 10, 6, 6], "firmware version": 1281, "comments": "", "keywords": "", "mode": 0, "sync interval": 2, "date": "", "time": "", "channels": [1, 2, 3, 4, 5, 6], "sensor": ["RAW", "RAW", "RAW", "RAW", "RAW", "RAW"], "label": ["A1", "A2", "A3", "A4", "A5", "A6"], "column": ["nSeq", "I1", "I2", "O1", "O2", "A1", "A2", "A3", "A4", "A5", "A6"], "special": [{}, {}, {}, {}, {}, {}], "digital IO": [0, 0, 1, 1], "convertedValues": 0}}
# EndOfHeader
0	0	0	0	0	630	402	0	112	0	0	
1	0	0	0	0	622	403	0	114	0	0	
2	0	0	0	0	614	407	0	117	0	0	
3	0	0	0	0	607	412	0	120	0	0	
4	0	0	0	0	601	418	0	125	0	0	
5	0	0	0	0	595	424	0	128	0	0	
6	0	0	0	0	591	430	0	131	0	0	
7	0	0	0	0	587	435	0	134	0	0	
8	0	0	0	0	586	440	0	134	0	0	
9	0	0	0	0	585	444	0	134	0	0	
10	0	0	0	0	584	446	0	131	0	0	
11	0	0	0	0	582	446	0	126	0	0	
12	0	0	0	0	577	444	0	119	0	0	
13	0	0	0	0	571	440	0	109	0	0	
14	0	0	0	0	563	434	0	99	0	0	
15	0	0	0	0	554	429	0	87	0	0	
0	0	0	0	0	545	422	0	75	0	0	
1	0	0	0	0	538	416	0	63	0	0	
2	0	0	0	0	532	411	0	51	0	0	
3	0	0	0	0	529	406	0	40	0	0	
4	0	0	0	0	527	402	0	31	0	0	
5	0	0	0	0	528	400	0	24	0	0	
6	0	0	0	0	531	399	0	19	0	0	
7	0	0	0	0	538	400	0	16	0	0	
8	0	0	0	0	548	404	0	17	0	0	
9	0	0	0	0	561	411	0	20	0	0	
10	0	0	0	0	577	419	0	27	0	0	
11	0	0	0	0	594	430	0	34	0	0	
12	0	0	0	0	611	441	0	43	0	0	
13	0	0	0	0	629	453	0	52	0	0	
14	0	0	0	0	644	464	0	61	0	0	
15	0	0	0	0	656	474	0	68	0	0	
0	0	0	0	0	664	482	0	74	0	0	
1	0	0	0	0	666	486	0	77	0	0	
2	0	0	0	0	664	487	0	77	0	0	
3	0	0	0	0	656	485	0	74	0	0	
4	0	0	0	0	645	480	0	68	0	0	
5	0	0	0	0	630	472	0	60	0	0	
6	0	0	0	0	613	462	0	49	0	0	
7	0	0	0	0	595	451	0	35	0	0	
8	0	0	0	0	579	439	0	21	0	0	
9	0	0	0	0	563	426	0	6	0	0	
10	0	0	0	0	548	413	0	0	0	0	
11	0	0	0	0	536	401	0	0	0	0	
12	0	0	0	0	528	392	0	0	0	0	
13	0	0	0	0	522	385	0	0	0	0	
14	0	0	0	0	518	381	0	0	0	0	
15	0	0	0	0	517	380	0	0	0	0	
0	0	0	0	0	519	381	0	0	0	0	
1	0	0	0	0	527	386	0	0	0	0	
2	0	0	0	0	537	394	0	0	0	0	
3	0	0	0	0	553	405	0	0	0	0	
4	0	0	0	0	572	417	0	0	0	0	
5	0	0	0	0	592	431	0	0	0	0	
6	0	0	0	0	613	444	0	0	0	0	
7	0	0	0	0	632	455	0	0	0	0	
8	0	0	0	0	646	464	0	0	0	0	
9	0	0	0	0	654	469	0	0	0	0	
10	0	0	0	0	658	471	0	0	0	0	
11	0	0	0	0	655	467	0	0	0	0	
12	0	0	0	0	647	461	0	0	0	0	
13	0	0	0	0	636	451	0	0	0	0	
14	0	0	0	0	622	439	0	0	0	0	
15	0	0	0	0	607	426	0	0	0	0	
0	0	0	0	0	592	413	0	0	0	0	
1	0	0	0	0	578	401	0	0	0	0	
2	0	0	0	0	567	391	0	0	0	0	
3	0	0	0	0	559	384	0	0	0	0	
4	0	0	0	0	554	379	0	0	0	0	
5	0	0	0	0	553	377	0	0	0	0	
6	0	0	0	0	555	377	0	0	0	0	
7	0	0	0	0	558	378	0	0	0	0	
8	0	0	0	0	561	381	0	0	0	0	
9	0	0	0	0	565	383	0	0	0	0	
10	0	0	0	0	567	385	0	0	0	0	
11	0	0	0	0	567	387	0	0	0	0	
12	0	0	0	0	566	388	0	0	0	0	
13	0	0	0	0	563	389	0	0	0	0	
14	0	0	0	0	559	390	0	0	0	0	
15	0	0	0	0	555	390	0	0	0	0	
0	0	0	0	0	551	391	0	0	0	0	
1	0	0	0	0	548	390	0	0	0	0	
2	0	0	0	0	546	390	0	0	0	0	
3	0	0	0	0	547	390	0	0	0	0	
4	0	0	0	0	549	390	0	0	0	0	
5	0	0	0	0	553	390	0	0	0	0	
6	0	0	0	0	560	391	0	0	0	0	
7	0	0	0	0	568	393	0	0	0	0	
8	0	0	0	0	578	397	0	0	0	0	
9	0	0	0	0	588	401	0	0	0	0	
10	0	0	0	0	597	406	0	0	0	0	
11	0	0	0	0	606	411	0	0	0	0	
12	0	0	0	0	613	416	0	0	0	0	
13	0	0	0	0	618	423	0	0	0	0	
14	0	0	0	0	623	430	0	0	0	0	
15	0	0	0	0	626	437	0	0	0	0	
0	0	0	0	0	629	445	0	0	0	0	
1	0	0	0	0	632	451	0	0	0	0	
2	0	0	0	0	634	457	0	0	0	0	
3	0	0	0	0	637	461	0	0	0	0	
4	0	0	0	0	638	462	0	0	0	0	
5	0	0	0	0	638	460	0	0	0	0	
6	0	0	0	0	638	456	0	0	0	0	
7	0	0	0	0	636	448	0	0	0	0	
8	0	0	0	0	632	439	0	0	0	0	
9	0	0	0	0	626	428	0	0	0	0	
10	0	0	0	0	619	416	0	0	0	0	
11	0	0	0	0	611	404	0	0	0	0	
12	0	0	0	0	604	392	0	0	0	0	
13	0	0	0	0	596	381	0	0	0	0	
14	0	0	0	0	590	372	0	0	0	0	
15	0	0	0	0	583	363	0	0	0	0	
0	0	0	0	0	579	356	0	0	0	0	
1	0	0	0	0	576	350	0	0	0	0	
2	0	0	0	0	575	345	0	0	0	0	
3	0	0	0	0	574	343	0	0	0	0	
4	0	0	0	0	572	341	0	0	0	0	
5	0	0	0	0	569	341	0	0	0	0	
6	0	0	0	0	563	344	0	0	0	0	
7	0	0	0	0	558	348	0	0	0	0	
8	0	0	0	0	550	355	0	0	0	0	
9	0	0	0	0	542	363	0	0	0	0	
10	0	0	0	0	534	371	0	0	0	0	
11	0	0	0	0	528	379	0	0	0	0	
12	0	0	0	0	526	387	0	0	0	0	
13	0	0	0	0	526	394	0	0	0	0	
14	0	0	0	0	529	399	0	0	0	0	
15	0	0	0	0	536	402	0	0	0	0	
0	0	0	0	0	543	403	0	0	0	0	
1	0	0	0	0	552	401	0	0	0	0	
2	0	0	0	0	560	396	0	0	0	0	
3	0	0	0	0	568	390	0	0	0	0	
4	0	0	0	0	575	381	0	0	0	0	
5	0	0	0	0	580	371	0	0	0	0	
6	0	0	0	0	587	361	0	0	0	0	
7	0	0	0	0	591	350	0	0	0	0	
8	0	0	0	0	597	341	0	0	0	0	
9	0	0	0	0	602	334	0	0	0	0	
10	0	0	0	0	608	329	0	0	0	0	
11	0	0	0	0	614	327	0	0	0	0	
12	0	0	0	0	619	329	0	0	0	0	
13	0	0	0	0	622	334	0	0	0	0	
14	0	0	0	0	622	339	0	0	0	0	
15	0	0	0	0	620	346	0	0	0	0	
0	0	0	0	0	615	353	0	0	0	0	
1	0	0	0	0	608	360	0	0	0	0	
2	0	0	0	0	598	367	0	0	0	0	
3	0	0	0	0	587	371	0	0	0	0	
4	0	0	0	0	574	372	0	0	0	0	
5	0	0	0	0	561	371	0	0	0	0	
6	0	0	0	0	547	367	0	0	0	0	
7	0	0	0	0	535	359	0	0	0	0	
8	0	0	0	0	524	349	0	0	0	0	
9	0	0	0	0	515	337	0	0	0	0	
10	0	0	0	0	512	326	0	0	0	0	
11	0	0	0	0	514	317	0	0	0	0	
12	0	0	0	0	519	311	0	0	0	0	
13	0	0	0	0	530	307	0	0	0	0	
14	0	0	0	0	543	307	0	0	0	0	
15	0	0	0	0	559	310	0	0	0	0	
0	0	0	0	0	575	315	0	0	0	0	
1	0	0	0	0	590	321	0	0	0	0	
2	0	0	0	0	604	327	0	0	0	0	
3	0	0	0	0	614	333	0	0	0	0	
4	0	0	0	0	621	338	0	0	0	0	
5	0	0	0	0	624	343	0	0	0	0	
6	0	0	0	0	623	345	0	0	0	0	
7	0	0	0	0	618	347	0	0	0	0	
8	0	0	0	0	610	347	0	0	0	0	
9	0	0	0	0	601	345	0	0	0	0	
10	0	0	0	0	590	343	0	0	0	0	
11	0	0	0	0	579	340	0	0	0	0	
12	0	0	0	0	568	337	0	0	0	0	
13	0	0	0	0	559	335	0	0	0	0	
14	0	0	0	0	553	333	0	0	0	0	
15	0	0	0	0	548	332	0	0	0	0	
0	0	0	0	0	547	332	0	0	0	0	
1	0	0	0	0	547	333	0	0	0	0	
2	0	0	0	0	549	334	0	0	0	0	
3	0	0	0	0	553	335	0	0	0	0	
4	0	0	0	0	558	336	0	0	0	0	
5	0	0	0	0	563	337	0	0	0	0	
6	0	0	0	0	567	336	0	0	0	0	
7	0	0	0	0	569	335	0	0	0	0	
8	0	0	0	0	570	332	0	0	0	0	
9	0	0	0	0	569	329	0	0	0	0	
10	0	0	0	0	566	325	0	0	0	0	
11	0	0	0	0	562	322	0	0	0	0	
12	0	0	0	0	559	320	0	0	0	0	
13	0	0	0	0	559	319	0	0	0	0	
14	0	0	0	0	561	321	0	0	0	0	
15	0	0	0	0	568	326	0	0	0	0	
0	0	0	0	0	576	333	0	0	0	0	
1	0	0	0	0	588	342	0	0	0	0	
2	0	0	0	0	601	351	0	0	0	0	
3	0	0	0	0	614	361	0	0	0	0	
4	0	0	0	0	627	371	0	0	0	0	
5	0	0	0	0	637	379	0	0	0	0	
6	0	0	0	0	643	385	0	0	0	0	
7	0	0	0	0	646	388	0	0	0	0	
8	0	0	0	0	643	387	0	0	0	0	
9	0	0	0	0	636	384	0	0	0	0	
10	0	0	0	0	624	377	0	0	0	0	
11	0	0	0	0	611	367	0	0	0	0	
12	0	0	0	0	597	356	0	0	0	0	
13	0	0	0	0	581	343	0	0	0	0	
14	0	0	0	0	566	329	0	0	0	0	
15	0	0	0	0	551	317	0	0	0	0	
0	0	0	0	0	540	305	0	0	0	0	
1	0	0	0	0	531	297	0	0	0	0	
2	0	0	0	0	525	291	0	0	0	0	
3	0	0	0	0	524	288	0	0	0	0	
4	0	0	0	0	526	288	0	0	0	0	
5	0	0	0	0	533	291	0	0	0	0	
6	0	0	0	0	543	295	0	0	0	0	
7	0	0	0	0	554	301	0	0	0	0	
8	0	0	0	0	565	307	0	0	0	0	
9	0	0	0	0	574	313	0	0	0	0	
10	0	0	0	0	581	319	0	0	0	0	
11	0	0	0	0	585	323	0	0	0	0	
12	0	0	0	0	587	328	0	0	0	0	
13	0	0	0	0	587	332	0	0	0	0	
14	0	0	0	0	585	335	0	0	0	0	
15	0	0	0	0	584	338	0	0	0	0	
0	0	0	0	0	583	339	0	0	0	0	
1	0	0	0	0	585	339	0	0	0	0	
2	0	0	0	0	586	336	0	0	0	0	
3	0	0	0	0	588	333	0	0	0	0	
4	0	0	0	0	590	328	0	0	0	0	
5	0	0	0	0	591	323	0	0	0	0	
6	0	0	0	0	590	316	0	0	0	0	
7	0	0	0	0	588	310	0	0	0	0	
8	0	0	0	0	584	303	0	0	0	0	
9	0	0	0	0	580	297	0	0	0	0	
10	0	0	0	0	576	293	0	0	0	0	
11	0	0	0	0	572	291	0	0	0	0	
12	0	0	0	0	569	290	0	0	0	0	
13	0	0	0	0	568	291	0	0	0	0	
14	0	0	0	0	568	294	0	0	0	0	
15	0	0	0	0	572	299	0	0	0	0	
0	0	0	0	0	578	305	0	0	0	0	
1	0	0	0	0	583	311	0	0	0	0	
2	0	0	0	0	590	316	0	0	0	0	
3	0	0	0	0	594	319	0	0	0	0	
4	0	0	0	0	596	319	0	0	0	0	
5	0	0	0	0	596	316	0	0	0	0	
6	0	0	0	0	593	312	0	0	0	0	
7	0	0	0	0	588	305	0	0	0	0	
8	0	0	0	0	580	297	0	0	0	0	
9	0	0	0	0	571	288	0	0	0	0	
10	0	0	0	0	561	279	0	0	0	0	
11	0	0	0	0	551	271	0	0	0	0	
12	0	0	0	0	543	265	0	0	0	0	
13	0	0	0	0	536	259	0	0	0	0	
14	0	0	0	0	531	256	0	0	0	0	
15	0	0	0	0	528	255	0	0	0	0	
0	0	0	0	0	527	255	0	0	0	0	
1	0	0	0	0	527	256	0	0	0	0	
2	0	0	0	0	528	257	0	0	0	0	
3	0	0	0	0	529	259	0	0	0	0	
4	0	0	0	0	531	260	0	0	0	0	
5	0	0	0	0	531	261	0	0	0	0	
6	0	0	0	0	530	260	0	0	0	0	
7	0	0	0	0	529	259	0	0	0	0	
8	0	0	0	0	526	257	0	0	0	0	
9	0	0	0	0	523	255	0	0	0	0	
10	0	0	0	0	519	253	0	0	0	0	
11	0	0	0	0	515	250	0	0	0	0	
12	0	0	0	0	510	248	0	0	0	0	
13	0	0	0	0	507	246	0	0	0	0	
14	0	0	0	0	505	243	0	0	0	0	
15	0	0	0	0	504	241	0	0	0	0	
0	0	0	0	0	506	239	0	0	0	0	
1	0	0	0	0	510	238	0	0	0	0	
2	0	0	0	0	518	238	0	0	0	0	
3	0	0	0	0	526	239	0	0	0	0	
4	0	0	0	0	536	240	0	0	0	0	
5	0	0	0	0	545	241	0	0	0	0	
6	0	0	0	0	553	243	0	0	0	0	
7	0	0	0	0	560	245	0	0	0	0	
8	0	0	0	0	565	246	0	0	0	0	
9	0	0	0	0	568	246	0	0	0	0	
10	0	0	0	0	569	245	0	0	0	0	
11	0	0	0	0	568	244	0	0	0	0	
12	0	0	0	0	566	242	0	0	0	0	
13	0	0	0	0	561	240	0	0	0	0	
14	0	0	0	0	556	236	0	0	0	0	
15	0	0	0	0	550	233	0	0	0	0	
0	0	0	0	0	543	231	0	0	0	0	
1	0	0	0	0	539	229	0	0	0	0	
2	0	0	0	0	535	228	0	0	0	0	
3	0	0	0	0	533	229	0	0	0	0	
4	0	0	0	0	533	231	0	0	0	0	
5	0	0	0	0	535	234	0	0	0	0	
6	0	0	0	0	539	239	0	0	0	0	
7	0	0	0	0	544	243	0	0	0	0	
8	0	0	0	0	550	248	0	0	0	0	
9	0	0	0	0	556	252	0	0	0	0	
10	0	0	0	0	560	255	0	0	0	0	
11	0	0	0	0	564	257	0	0	0	0	
12	0	0	0	0	566	256	0	0	0	0	
13	0	0	0	0	565	254	0	0	0	0	
14	0	0	0	0	563	249	0	0	0	0	
15	0	0	0	0	558	244	0	0	0	0	
0	0	0	0	0	552	237	0	0	0	0	
1	0	0	0	0	546	231	0	0	0	0	
2	0	0	0	0	539	224	0	0	0	0	
3	0	0	0	0	533	217	0	0	0	0	
4	0	0	0	0	527	211	0	0	0	0	
5	0	0	0	0	521	205	0	0	0	0	
6	0	0	0	0	517	200	0	0	0	0	
7	0	0	0	0	513	197	0	0	0	0	
8	0	0	0	0	511	193	0	0	0	0	
9	0	0	0	0	509	192	0	0	0	0	
10	0	0	0	0	508	191	0	0	0	0	
11	0	0	0	0	507	191	0	0	0	0	
12	0	0	0	0	507	193	0	0	0	0	
13	0	0	0	0	508	196	0	0	0	0	
14	0	0	0	0	509	199	0	0	0	0	
15	0	0	0	0	510	201	0	0	0	0	
0	0	0	0	0	512	203	0	0	0	0	
1	0	0	0	0	513	203	0	0	0	0	
2	0	0	0	0	516	202	0	0	0	0	
3	0	0	0	0	518	200	0	0	0	0	
4	0	0	0	0	520	197	0	0	0	0	
5	0	0	0	0	522	192	0	0	0	0	
6	0	0	0	0	524	187	0	0	0	0	
7	0	0	0	0	524	181	0	0	0	0	
8	0	0	0	0	524	176	0	0	0	0	
9	0	0	0	0	525	171	0	0	0	0	
10	0	0	0	0	524	167	0	0	0	0	
11	0	0	0	0	524	163	0	0	0	0	
12	0	0	0	0	521	160	0	0	0	0	
13	0	0	0	0	517	157	0	0	0	0	
14	0	0	0	0	512	155	0	0	0	0	
15	0	0	0	0	504	152	0	0	0	0	
0	0	0	0	0	494	148	0	0	0	0	
1	0	0	0	0	481	143	0	0	0	0	
2	0	0	0	0	466	137	0	0	0	0	
3	0	0	0	0	449	128	0	0	0	0	
4	0	0	0	0	432	117	0	0	0	0	
5	0	0	0	0	414	103	0	0	0	0	
6	0	0	0	0	396	87	0	0	0	0	
7	0	0	0	0	381	68	0	0	0	0	
8	0	0	0	0	367	47	0	0	0	0	
9	0	0	0	0	355	26	0	0	0	0	
10	0	0	0	0	343	4	0	0	0	0	
11	0	0	0	0	332	0	0	0	0	0	
12	0	0	0	0	321	0	0	0	0	0	
13	0	0	0	0	310	0	0	0	0	0	
14	0	0	0	0	299	0	0	0	0	0	
15	0	0	0	0	291	0	0	0	0	0	
0	0	0	0	0	285	0	0	0	0	0	
1	0	0	0	0	284	0	0	0	0	0	
2	0	0	0	0	287	0	0	0	0	0	
3	0	0	0	0	298	0	0	0	0	0	
4	0	0	0	0	315	0	0	0	0	0	
5	0	0	0	0	337	0	0	0	0	0	
6	0	0	0	0	364	0	0	0	0	0	
7	0	0	0	0	395	0	0	0	0	0	
8	0	0	0	0	427	11	0	0	0	0	
9	0	0	0	0	457	26	0	0	0	0	
10	0	0	0	0	485	47	0	0	0	0	
11	0	0	0	0	508	70	0	0	0	0	
12	0	0	0	0	526	94	0	0	0	0	
13	0	0	0	0	539	120	0	0	0	0	
14	0	0	0	0	547	143	0	0	0	0	
15	0	0	0	0	551	165	0	0	0	0	
0	0	0	0	0	552	184	0	0	0	0	
1	0	0	0	0	552	199	0	0	0	0	
2	0	0	0	0	552	211	0	0	0	0	
3	0	0	0	0	552	219	0	0	0	0	
4	0	0	0	0	553	223	0	0	0	0	
5	0	0	0	0	556	224	0	0	0	0	
6	0	0	0	0	560	222	0	0	0	0	
7	0	0	0	0	564	217	0	0	0	0	
8	0	0	0	0	568	211	0	0	0	0	
9	0	0	0	0	571	203	0	0	0	0	
10	0	0	0	0	574	196	0	0	0	0	
11	0	0	0	0	575	188	0	0	0	0	
12	0	0	0	0	574	181	0	0	0	0	
13	0	0	0	0	573	176	0	0	0	0	
14	0	0	0	0	571	171	0	0	0	0	
15	0	0	0	0	568	167	0	0	0	0	
0	0	0	0	0	564	166	0	0	0	0	
1	0	0	0	0	560	166	0	0	0	0	
2	0	0	0	0	556	167	0	0	0	0	
3	0	0	0	0	551	169	0	0	0	0	
4	0	0	0	0	547	172	0	0	0	0	
5	0	0	0	0	544	176	0	0	0	0	
6	0	0	0	0	540	180	0	0	0	0	
7	0	0	0	0	538	184	0	0	0	0	
8	0	0	0	0	537	189	0	0	0	0	
9	0	0	0	0	538	193	0	0	0	0	
10	0	0	0	0	542	198	0	0	0	0	
11	0	0	0	0	547	203	0	0	0	0	
12	0	0	0	0	553	207	0	0	0	0	
13	0	0	0	0	561	211	0	0	0	0	
14	0	0	0	0	567	213	0	0	0	0	
15	0	0	0	0	572	213	0	0	0	0	
0	0	0	0	0	574	210	0	0	0	0	
1	0	0	0	0	574	205	0	0	0	0	
2	0	0	0	0	570	198	0	0	0	0	
3	0	0	0	0	565	190	0	0	0	0	
4	0	0	0	0	559	180	0	0	0	0	
5	0	0	0	0	552	172	0	0	0	0	
6	0	0	0	0	545	164	0	0	0	0	
7	0	0	0	0	540	157	0	0	0	0	
8	0	0	0	0	536	153	0	0	0	0	
9	0	0	0	0	533	151	0	0	0	0	
10	0	0	0	0	532	150	0	0	0	0	
11	0	0	0	0	533	152	0	0	0	0	
12	0	0	0	0	535	154	0	0	0	0	
13	0	0	0	0	537	158	0	0	0	0	
14	0	0	0	0	540	162	0	0	0	0	
15	0	0	0	0	543	166	0	0	0	0	
0	0	0	0	0	545	170	0	0	0	0	
1	0	0	0	0	547	173	0	0	0	0	
2	0	0	0	0	547	174	0	0	0	0	
3	0	0	0	0	547	175	0	0	0	0	
4	0	0	0	0	546	174	0	0	0	0	
5	0	0	0	0	543	172	0	0	0	0	
6	0	0	0	0	539	168	0	0	0	0	
7	0	0	0	0	534	164	0	0	0	0	
8	0	0	0	0	529	159	0	0	0	0	
9	0	0	0	0	524	155	0	0	0	0	
10	0	0	0	0	520	151	0	0	0	0	
11	0	0	0	0	518	148	0	0	0	0	
12	0	0	0	0	517	146	0	0	0	0	
13	0	0	0	0	518	145	0	0	0	0	
14	0	0	0	0	519	145	0	0	0	0	
15	0	0	0	0	521	146	0	0	0	0	
0	0	0	0	0	524	147	0	0	0	0	
1	0	0	0	0	527	149	0	0	0	0	
2	0	0	0	0	532	152	0	0	0	0	
3	0	0	0	0	535	154	0	0	0	0	
4	0	0	0	0	539	157	0	0	0	0	
5	0	0	0	0	541	159	0	0	0	0	
6	0	0	0	0	543	163	0	0	0	0	
7	0	0	0	0	546	166	0	0	0	0	
8	0	0	0	0	547	169	0	0	0	0	
9	0	0	0	0	549	172	0	0	0	0	
10	0	0	0	0	550	174	0	0	0	0	
11	0	0	0	0	549	175	0	0	0	0	
12	0	0	0	0	548	175	0	0	0	0	
13	0	0	0	0	547	174	0	0	0	0	
14	0	0	0	0	545	172	0	0	0	0	
15	0	0	0	0	543	168	0	0	0	0	
0	0	0	0	0	540	164	0	0	0	0	
1	0	0	0	0	538	159	0	0	0	0	
2	0	0	0	0	536	156	0	0	0	0	
3	0	0	0	0	535	153	0	0	0	0	
4	0	0	0	0	535	151	0	0	0	0	
5	0	0	0	0	534	149	0	0	0	0	
6	0	0	0	0	535	148	0	0	0	0	
7	0	0	0	0	536	149	0	0	0	0	
8	0	0	0	0	538	150	0	0	0	0	
9	0	0	0	0	540	153	0	0	0	0	
10	0	0	0	0	542	155	0	0	0	0	
11	0	0	0	0	544	158	0	0	0	0	
12	0	0	0	0	546	161	0	0	0	0	
13	0	0	0	0	548	163	0	0	0	0	
14	0	0	0	0	550	165	0	0	0	0	
15	0	0	0	0	550	166	0	0	0	0	
0	0	0	0	0	550	166	0	0	0	0	
1	0	0	0	0	549	164	0	0	0	0	
2	0	0	0	0	545	161	0	0	0	0	
3	0	0	0	0	540	156	0	0	0	0	
4	0	0	0	0	534	151	0	0	0	0	
5	0	0	0	0	527	144	0	0	0	0	
6	0	0	0	0	519	137	0	0	0	0	
7	0	0	0	0	512	131	0	0	0	0	
8	0	0	0	0	505	125	0	0	0	0	
9	0	0	0	0	501	122	0	0	0	0	
10	0	0	0	0	498	119	0	0	0	0	
11	0	0	0	0	497	119	0	0	0	0	
12	0	0	0	0	499	119	0	0	0	0	
13	0	0	0	0	502	121	0	0	0	0	
14	0	0	0	0	505	124	0	0	0	0	
15	0	0	0	0	509	127	0	0	0	0	
0	0	0	0	0	513	131	0	0	0	0	
1	0	0	0	0	516	133	0	0	0	0	
2	0	0	0	0	519	135	0	0	0	0	
3	0	0	0	0	521	137	0	0	0	0	
4	0	0	0	0	522	138	0	0	0	0	
5	0	0	0	0	523	140	0	0	0	0	
6	0	0	0	0	524	140	0	0	0	0	
7	0	0	0	0	524	140	0	0	0	0	
8	0	0	0	0	523	139	0	0	0	0	
9	0	0	0	0	522	139	0	0	0	0	
10	0	0	0	0	521	138	0	0	0	0	
11	0	0	0	0	519	137	0	0	0	0	
12	0	0	0	0	518	136	0	0	0	0	
13	0	0	0	0	516	136	0	0	0	0	
14	0	0	0	0	515	136	0	0	0	0	
15	0	0	0	0	513	135	0	0	0	0	
0	0	0	0	0	511	135	0	0	0	0	
1	0	0	0	0	510	134	0	0	0	0	
2	0	0	0	0	509	135	0	0	0	0	
3	0	0	0	0	509	135	0	0	0	0	
4	0	0	0	0	508	134	0	0	0	0	
5	0	0	0	0	508	133	0	0	0	0	
6	0	0	0	0	507	132	0	0	0	0	
7	0	0	0	0	506	130	0	0	0	0	
8	0	0	0	0	505	128	0	0	0	0	
9	0	0	0	0	504	126	0	0	0	0	
10	0	0	0	0	503	124	0	0	0	0	
11	0	0	0	0	503	123	0	0	0	0	
12	0	0	0	0	503	122	0	0	0	0	
13	0	0	0	0	504	123	0	0	0	0	
14	0	0	0	0	508	125	0	0	0	0	
15	0	0	0	0	512	129	0	0	0	0	
0	0	0	0	0	517	135	0	0	0	0	
1	0	0	0	0	523	141	0	0	0	0	
2	0	0	0	0	528	147	0	0	0	0	
3	0	0	0	0	533	153	0	0	0	0	
4	0	0	0	0	537	158	0	0	0	0	
5	0	0	0	0	539	161	0	0	0	0	
6	0	0	0	0	539	163	0	0	0	0	
7	0	0	0	0	538	163	0	0	0	0	
8	0	0	0	0	535	163	0	0	0	0	
9	0	0	0	0	531	161	0	0	0	0	
10	0	0	0	0	527	159	0	0	0	0	
11	0	0	0	0	523	156	0	0	0	0	
12	0	0	0	0	519	153	0	0	0	0	
13	0	0	0	0	516	151	0	0	0	0	
14	0	0	0	0	513	149	0	0	0	0	
15	0	0	0	0	512	147	0	0	0	0	
0	0	0	0	0	512	146	0	0	0	0	
1	0	0	0	0	513	145	0	0	0	0	
2	0	0	0	0	515	146	0	0	0	0	
3	0	0	0	0	519	147	0	0	0	0	
4	0	0	0	0	523	148	0	0	0	0	
5	0	0	0	0	527	151	0	0	0	0	
6	0	0	0	0	532	153	0	0	0	0	
7	0	0	0	0	536	156	0	0	0	0	
8	0	0	0	0	541	159	0	0	0	0	
9	0	0	0	0	545	162	0	0	0	0	
10	0	0	0	0	548	165	0	0	0	0	
11	0	0	0	0	551	167	0	0	0	0	
12	0	0	0	0	553	169	0	0	0	0	
13	0	0	0	0	554	171	0	0	0	0	
14	0	0	0	0	553	171	0	0	0	0	
15	0	0	0	0	551	170	0	0	0	0	
0	0	0	0	0	547	167	0	0	0	0	
1	0	0	0	0	540	162	0	0	0	0	
2	0	0	0	0	532	156	0	0	0	0	
3	0	0	0	0	523	147	0	0	0	0	
4	0	0	0	0	511	137	0	0	0	0	
5	0	0	0	0	499	126	0	0	0	0	
6	0	0	0	0	487	115	0	0	0	0	
7	0	0	0	0	475	104	0	0	0	0	
8	0	0	0	0	464	95	0	0	0	0	
9	0	0	0	0	454	86	0	0	0	0	
10	0	0	0	0	447	79	0	0	0	0	
11	0	0	0	0	441	75	0	0	0	0	
12	0	0	0	0	438	72	0	0	0	0	
13	0	0	0	0	437	71	0	0	0	0	
14	0	0	0	0	438	72	0	0	0	0	
15	0	0	0	0	441	75	0	0	0	0	
0	0	0	0	0	446	79	0	0	0	0	
1	0	0	0	0	453	84	0	0	0	0	
2	0	0	0	0	462	90	0	0	0	0	
3	0	0	0	0	473	98	0	0	0	0	
4	0	0	0	0	486	108	0	0	0	0	
5	0	0	0	0	499	118	0	0	0	0	
6	0	0	0	0	512	127	0	0	0	0	
7	0	0	0	0	524	137	0	0	0	0	
8	0	0	0	0	534	145	0	0	0	0	
9	0	0	0	0	542	152	0	0	0	0	
10	0	0	0	0	546	157	0	0	0	0	
11	0	0	0	0	548	160	0	0	0	0	
12	0	0	0	0	547	161	0	0	0	0	
13	0	0	0	0	543	160	0	0	0	0	
14	0	0	0	0	538	158	0	0	0	0	
15	0	0	0	0	530	154	0	0	0	0	
0	0	0	0	0	520	148	0	0	0	0	
1	0	0	0	0	509	141	0	0	0	0	
2	0	0	0	0	497	133	0	0	0	0	
3	0	0	0	0	486	125	0	0	0	0	
4	0	0	0	0	475	117	0	0	0	0	
5	0	0	0	0	464	108	0	0	0	0	
6	0	0	0	0	455	101	0	0	0	0	
7	0	0	0	0	448	94	0	0	0	0	
8	0	0	0	0	443	88	0	0	0	0	
9	0	0	0	0	440	85	0	0	0	0	
10	0	0	0	0	440	84	0	0	0	0	
11	0	0	0	0	443	84	0	0	0	0	
12	0	0	0	0	447	86	0	0	0	0	
13	0	0	0	0	454	91	0	0	0	0	
14	0	0	0	0	461	97	0	0	0	0	
15	0	0	0	0	470	104	0	0	0	0	
0	0	0	0	0	479	113	0	0	0	0	
1	0	0	0	0	489	123	0	0	0	0	
2	0	0	0	0	499	133	0	0	0	0	
3	0	0	0	0	510	143	0	0	0	0	
4	0	0	0	0	520	152	0	0	0	0	
5	0	0	0	0	531	161	0	0	0	0	
6	0	0	0	0	539	167	0	0	0	0	
7	0	0	0	0	545	169	0	0	0	0	
8	0	0	0	0	547	168	0	0	0	0	
9	0	0	0	0	547	164	0	0	0	0	
10	0	0	0	0	541	156	0	0	0	0	
11	0	0	0	0	531	145	0	0	0	0	
12	0	0	0	0	518	131	0	0	0	0	
13	0	0	0	0	502	116	0	0	0	0	
14	0	0	0	0	484	100	0	0	0	0	
15	0	0	0	0	466	84	0	0	0	0	
0	0	0	0	0	451	71	0	0	0	0	
1	0	0	0	0	438	60	0	0	0	0	
2	0	0	0	0	431	54	0	0	0	0	
3	0	0	0	0	428	53	0	0	0	0	
4	0	0	0	0	431	56	0	0	0	0	
5	0	0	0	0	438	63	0	0	0	0	
6	0	0	0	0	449	73	0	0	0	0	
7	0	0	0	0	464	86	0	0	0	0	
8	0	0	0	0	480	100	0	0	0	0	
9	0	0	0	0	496	115	0	0	0	0	
10	0	0	0	0	512	129	0	0	0	0	
11	0	0	0	0	525	141	0	0	0	0	
12	0	0	0	0	536	151	0	0	0	0	
13	0	0	0	0	542	157	0	0	0	0	
14	0	0	0	0	544	160	0	0	0	0	
15	0	0	0	0	543	160	0	0	0	0	
0	0	0	0	0	540	158	0	0	0	0	
1	0	0	0	0	534	153	0	0	0	0	
2	0	0	0	0	528	149	0	0	0	0	
3	0	0	0	0	521	144	0	0	0	0	
4	0	0	0	0	516	139	0	0	0	0	
5	0	0	0	0	512	135	0	0	0	0	
6	0	0	0	0	509	133	0	0	0	0	
7	0	0	0	0	507	131	0	0	0	0	
8	0	0	0	0	506	130	0	0	0	0	
9	0	0	0	0	504	127	0	0	0	0	
10	0	0	0	0	502	125	0	0	0	0	
11	0	0	0	0	499	122	0	0	0	0	
12	0	0	0	0	494	118	0	0	0	0	
13	0	0	0	0	487	112	0	0	0	0	
14	0	0	0	0	478	105	0	0	0	0	
15	0	0	0	0	470	98	0	0	0	0	
0	0	0	0	0	461	90	0	0	0	0	
1	0	0	0	0	452	83	0	0	0	0	
2	0	0	0	0	445	76	0	0	0	0	
3	0	0	0	0	440	71	0	0	0	0	
4	0	0	0	0	437	68	0	0	0	0	
5	0	0	0	0	438	67	0	0	0	0	
6	0	0	0	0	441	70	0	0	0	0	
7	0	0	0	0	448	74	0	0	0	0	
8	0	0	0	0	456	81	0	0	0	0	
9	0	0	0	0	467	90	0	0	0	0	
10	0	0	0	0	478	100	0	0	0	0	
11	0	0	0	0	489	111	0	0	0	0	
12	0	0	0	0	500	120	0	0	0	0	
13	0	0	0	0	510	130	0	0	0	0	
14	0	0	0	0	519	140	0	0	0	0	
15	0	0	0	0	526	149	0	0	0	0	
0	0	0	0	0	531	156	0	0	0	0	
1	0	0	0	0	535	160	0	0	0	0	
2	0	0	0	0	535	163	0	0	0	0	
3	0	0	0	0	533	163	0	0	0	0	
4	0	0	0	0	527	159	0	0	0	0	
5	0	0	0	0	519	153	0	0	0	0	
6	0	0	0	0	510	144	0	0	0	0	
7	0	0	0	0	499	134	0	0	0	0	
8	0	0	0	0	487	124	0	0	0	0	
9	0	0	0	0	476	113	0	0	0	0	
10	0	0	0	0	467	105	0	0	0	0	
11	0	0	0	0	460	98	0	0	0	0	
12	0	0	0	0	455	94	0	0	0	0	
13	0	0	0	0	455	94	0	0	0	0	
14	0	0	0	0	459	98	0	0	0	0	
15	0	0	0	0	465	105	0	0	0	0	
0	0	0	0	0	474	114	0	0	0	0	
1	0	0	0	0	485	124	0	0	0	0	
2	0	0	0	0	496	135	0	0	0	0	
3	0	0	0	0	506	146	0	0	0	0	
4	0	0	0	0	515	155	0	0	0	0	
5	0	0	0	0	522	162	0	0	0	0	
6	0	0	0	0	527	167	0	0	0	0	
7	0	0	0	0	528	169	0	0	0	0	
8	0	0	0	0	527	168	0	0	0	0	
9	0	0	0	0	524	167	0	0	0	0	
10	0	0	0	0	519	163	0	0	0	0	
11	0	0	0	0	514	159	0	0	0	0	
12	0	0	0	0	510	156	0	0	0	0	
13	0	0	0	0	506	154	0	0	0	0	
14	0	0	0	0	505	153	0	0	0	0	
15	0	0	0	0	505	154	0	0	0	0	
0	0	0	0	0	509	158	0	0	0	0	
1	0	0	0	0	514	163	0	0	0	0	
2	0	0	0	0	522	170	0	0	0	0	
3	0	0	0	0	529	178	0	0	0	0	
4	0	0	0	0	537	185	0	0	0	0	
5	0	0	0	0	543	192	0	0	0	0	
6	0	0	0	0	549	198	0	0	0	0	
7	0	0	0	0	552	203	0	0	0	0	
8	0	0	0	0	553	205	0	0	0	0	
9	0	0	0	0	551	207	0	0	0	0	
10	0	0	0	0	547	205	0	0	0	0	
11	0	0	0	0	540	201	0	0	0	0	
12	0	0	0	0	532	196	0	0	0	0	
13	0	0	0	0	523	191	0	0	0	0	
14	0	0	0	0	514	184	0	0	0	0	
15	0	0	0	0	507	178	0	0	0	0	
0	0	0	0	0	500	172	0	0	0	0	
1	0	0	0	0	496	168	0	0	0	0	
2	0	0	0	0	494	166	0	0	0	0	
3	0	0	0	0	494	165	0	0	0	0	
4	0	0	0	0	497	166	0	0	0	0	
5	0	0	0	0	502	169	0	0	0	0	
6	0	0	0	0	508	174	0	0	0	0	
7	0	0	0	0	516	179	0	0	0	0	
8	0	0	0	0	524	185	0	0	0	0	
9	0	0	0	0	531	192	0	0	0	0	
10	0	0	0	0	538	198	0	0	0	0	
11	0	0	0	0	543	204	0	0	0	0	
12	0	0	0	0	546	208	0	0	0	0	
13	0	0	0	0	547	211	0	0	0	0	
14	0	0	0	0	546	212	0	0	0	0	
15	0	0	0	0	543	212	0	0	0	0	
0	0	0	0	0	539	211	0	0	0	0	
1	0	0	0	0	534	209	0	0	0	0	
2	0	0	0	0	529	207	0	0	0	0	
3	0	0	0	0	525	205	0	0	0	0	
4	0	0	0	0	522	203	0	0	0	0	
5	0	0	0	0	520	201	0	0	0	0	
6	0	0	0	0	520	201	0	0	0	0	
7	0	0	0	0	521	200	0	0	0	0	
8	0	0	0	0	524	201	0	0	0	0	
9	0	0	0	0	527	203	0	0	0	0	
10	0	0	0	0	531	206	0	0	0	0	
11	0	0	0	0	536	210	0	0	0	0	
12	0	0	0	0	541	214	0	0	0	0	
13	0	0	0	0	545	218	0	0	0	0	
14	0	0	0	0	548	221	0	0	0	0	
15	0	0	0	0	549	223	0	0	0	0	
0	0	0	0	0	548	223	0	0	0	0	
1	0	0	0	0	544	220	0	0	0	0	
2	0	0	0	0	540	216	0	0	0	0	
3	0	0	0	0	532	210	0	0	0	0	
4	0	0	0	0	523	203	0	0	0	0	
5	0	0	0	0	514	195	0	0	0	0	
6	0	0	0	0	505	187	0	0	0	0	
7	0	0	0	0	497	180	0	0	0	0	
8	0	0	0	0	491	174	0	0	0	0	
9	0	0	0	0	488	170	0	0	0	0	
10	0	0	0	0	487	168	0	0	0	0	
11	0	0	0	0	489	168	0	0	0	0	
12	0	0	0	0	494	170	0	0	0	0	
13	0	0	0	0	500	173	0	0	0	0	
14	0	0	0	0	508	178	0	0	0	0	
15	0	0	0	0	515	182	0	0	0	0	
0	0	0	0	0	521	187	0	0	0	0	
1	0	0	0	0	527	191	0	0	0	0	
2	0	0	0	0	531	193	0	0	0	0	
3	0	0	0	0	533	194	0	0	0	0	
4	0	0	0	0	533	194	0	0	0	0	
5	0	0	0	0	531	192	0	0	0	0	
6	0	0	0	0	526	188	0	0	0	0	
7	0	0	0	0	520	183	0	0	0	0	
8	0	0	0	0	513	175	0	0	0	0	
9	0	0	0	0	504	166	0	0	0	0	
10	0	0	0	0	493	155	0	0	0	0	
11	0	0	0	0	481	143	0	0	0	0	
12	0	0	0	0	469	131	0	0	0	0	
13	0	0	0	0	457	119	0	0	0	0	
14	0	0	0	0	447	108	0	0	0	0	
15	0	0	0	0	439	100	0	0	0	0	
0	0	0	0	0	433	95	0	0	0	0	
1	0	0	0	0	431	92	0	0	0	0	
2	0	0	0	0	432	93	0	0	0	0	
3	0	0	0	0	437	97	0	0	0	0	
4	0	0	0	0	444	103	0	0	0	0	
5	0	0	0	0	454	112	0	0	0	0	
6	0	0	0	0	464	122	0	0	0	0	
7	0	0	0	0	476	133	0	0	0	0	
8	0	0	0	0	486	142	0	0	0	0	
9	0	0	0	0	495	152	0	0	0	0	
10	0	0	0	0	504	159	0	0	0	0	
11	0	0	0	0	510	166	0	0	0	0	
12	0	0	0	0	515	171	0	0	0	0	
13	0	0	0	0	517	173	0	0	0	0	
14	0	0	0	0	518	175	0	0	0	0	
15	0	0	0	0	516	174	0	0	0	0	
0	0	0	0	0	513	172	0	0	0	0	
1	0	0	0	0	509	169	0	0	0	0	
2	0	0	0	0	503	163	0	0	0	0	
3	0	0	0	0	496	158	0	0	0	0	
4	0	0	0	0	490	153	0	0	0	0	
5	0	0	0	0	483	147	0	0	0	0	
6	0	0	0	0	478	143	0	0	0	0	
7	0	0	0	0	474	140	0	0	0	0	
8	0	0	0	0	472	139	0	0	0	0	
9	0	0	0	0	472	140	0	0	0	0	
10	0	0	0	0	472	140	0	0	0	0	
11	0	0	0	0	474	142	0	0	0	0	
12	0	0	0	0	476	143	0	0	0	0	
13	0	0	0	0	478	144	0	0	0	0	
14	0	0	0	0	480	145	0	0	0	0	
15	0	0	0	0	481	146	0	0	0	0	
0	0	0	0	0	482	145	0	0	0	0	
1	0	0	0	0	483	145	0	0	0	0	
2	0	0	0	0	484	144	0	0	0	0	
3	0	0	0	0	484	144	0	0	0	0	
4	0	0	0	0	486	144	0	0	0	0	
5	0	0	0	0	487	145	0	0	0	0	
6	0	0	0	0	488	145	0	0	0	0	
7	0	0	0	0	490	146	0	0	0	0	
8	0	0	0	0	491	147	0	0	0	0	
9	0	0	0	0	493	149	0	0	0	0	
10	0	0	0	0	496	151	0	0	0	0	
11	0	0	0	0	498	153	0	0	0	0	
12	0	0	0	0	500	156	0	0	0	0	
13	0	0	0	0	502	158	0	0	0	0	
14	0	0	0	0	505	160	0	0	0	0	
15	0	0	0	0	507	163	0	0	0	0	
0	0	0	0	0	508	165	0	0	0	0	
1	0	0	0	0	509	166	0	0	0	0	
2	0	0	0	0	509	167	0	0	0	0	
3	0	0	0	0	508	166	0	0	0	0	
4	0	0	0	0	506	164	0	0	0	0	
5	0	0	0	0	503	161	0	0	0	0	
6	0	0	0	0	499	157	0	0	0	0	
7	0	0	0	0	493	151	0	0	0	0	
8	0	0	0	0	487	144	0	0	0	0	
9	0	0	0	0	480	137	0	0	0	0	
10	0	0	0	0	473	130	0	0	0	0	
11	0	0	0	0	468	124	0	0	0	0	
12	0	0	0	0	463	121	0	0	0	0	
13	0	0	0	0	462	119	0	0	0	0	
14	0	0	0	0	463	121	0	0	0	0	
15	0	0	0	0	467	126	0	0	0	0	
0	0	0	0	0	474	133	0	0	0	0	
1	0	0	0	0	483	143	0	0	0	0	
2	0	0	0	0	495	155	0	0	0	0	
3	0	0	0	0	506	167	0	0	0	0	
4	0	0	0	0	518	180	0	0	0	0	
5	0	0	0	0	528	192	0	0	0	0	
6	0	0	0	0	538	202	0	0	0	0	
7	0	0	0	0	544	209	0	0	0	0	
8	0	0	0	0	549	215	0	0	0	0	
9	0	0	0	0	551	218	0	0	0	0	
10	0	0	0	0	551	218	0	0	0	0	
11	0	0	0	0	547	216	0	0	0	0	
12	0	0	0	0	542	211	0	0	0	0	
13	0	0	0	0	535	204	0	0	0	0	
14	0	0	0	0	527	195	0	0	0	0	
15	0	0	0	0	518	186	0	0	0	0	
0	0	0	0	0	509	177	0	0	0	0	
1	0	0	0	0	502	169	0	0	0	0	
2	0	0	0	0	495	162	0	0	0	0	
3	0	0	0	0	491	157	0	0	0	0	
4	0	0	0	0	488	154	0	0	0	0	
5	0	0	0	0	487	153	0	0	0	0	
6	0	0	0	0	489	154	0	0	0	0	
7	0	0	0	0	493	157	0	0	0	0	
8	0	0	0	0	498	162	0	0	0	0	
9	0	0	0	0	503	167	0	0	0	0	
10	0	0	0	0	508	173	0	0	0	0	
11	0	0	0	0	514	179	0	0	0	0	
12	0	0	0	0	519	184	0	0	0	0	
13	0	0	0	0	523	188	0	0	0	0	
14	0	0	0	0	525	190	0	0	0	0	
15	0	0	0	0	526	191	0	0	0	0	
0	0	0	0	0	526	191	0	0	0	0	
1	0	0	0	0	524	189	0	0	0	0	
2	0	0	0	0	520	185	0	0	0	0	
3	0	0	0	0	515	180	0	0	0	0	
4	0	0	0	0	509	175	0	0	0	0	
5	0	0	0	0	504	168	0	0	0	0	
6	0	0	0	0	496	161	0	0	0	0	
7	0	0	0	0	489	154	0	0	0	0	
8	0	0	0	0	482	148	0	0	0	0	
9	0	0	0	0	475	141	0	0	0	0	
10	0	0	0	0	470	136	0	0	0	0	
11	0	0	0	0	465	132	0	0	0	0	
12	0	0	0	0	463	130	0	0	0	0	
13	0	0	0	0	462	129	0	0	0	0	
14	0	0	0	0	463	130	0	0	0	0	
15	0	0	0	0	467	133	0	0	0	0	
0	0	0	0	0	473	138	0	0	0	0	
1	0	0	0	0	480	143	0	0	0	0	
2	0	0	0	0	487	148	0	0	0	0	
3	0	0	0	0	494	153	0	0	0	0	
4	0	0	0	0	499	156	0	0	0	0	
5	0	0	0	0	503	158	0	0	0	0	
6	0	0	0	0	504	158	0	0	0	0	
7	0	0	0	0	504	157	0	0	0	0	
8	0	0	0	0	504	156	0	0	0	0	
9	0	0	0	0	503	155	0	0	0	0	
10	0	0	0	0	502	153	0	0	0	0	
11	0	0	0	0	502	153	0	0	0	0	
12	0	0	0	0	503	154	0	0	0	0	
13	0	0	0	0	505	156	0	0	0	0	
14	0	0	0	0	509	160	0	0	0	0	
15	0	0	0	0	512	165	0	0	0	0	
0	0	0	0	0	516	170	0	0	0	0	
1	0	0	0	0	520	174	0	0	0	0	
2	0	0	0	0	523	177	0	0	0	0	
3	0	0	0	0	524	179	0	0	0	0	
4	0	0	0	0	522	178	0	0	0	0	
5	0	0	0	0	518	175	0	0	0	0	
6	0	0	0	0	511	170	0	0	0	0	
7	0	0	0	0	502	163	0	0	0	0	
8	0	0	0	0	492	153	0	0	0	0	
9	0	0	0	0	482	144	0	0	0	0	
10	0	0	0	0	473	136	0	0	0	0	
11	0	0	0	0	466	128	0	0	0	0	
12	0	0	0	0	460	122	0	0	0	0	
13	0	0	0	0	457	118	0	0	0	0	
14	0	0	0	0	455	116	0	0	0	0	
15	0	0	0	0	456	114	0	0	0	0	
0	0	0	0	0	457	114	0	0	0	0	
1	0	0	0	0	459	115	0	0	0	0	
2	0	0	0	0	461	117	0	0	0	0	
3	0	0	0	0	463	119	0	0	0	0	
4	0	0	0	0	465	121	0	0	0	0	
5	0	0	0	0	467	123	0	0	0	0	
6	0	0	0	0	467	126	0	0	0	0	
7	0	0	0	0	468	128	0	0	0	0	
8	0	0	0	0	469	131	0	0	0	0	
9	0	0	0	0	470	132	0	0	0	0	
10	0	0	0	0	469	133	0	0	0	0	
11	0	0	0	0	470	133	0	0	0	0	
12	0	0	0	0	469	131	0	0	0	0	
13	0	0	0	0	468	129	0	0	0	0	
14	0	0	0	0	467	127	0	0	0	0	
15	0	0	0	0	465	124	0	0	0	0	
0	0	0	0	0	463	120	0	0	0	0	
1	0	0	0	0	462	118	0	0	0	0	
2	0	0	0	0	461	116	0	0	0	0	
3	0	0	0	0	460	115	0	0	0	0	
4	0	0	0	0	459	114	0	0	0	0	
5	0	0	0	0	457	114	0	0	0	0	
6	0	0	0	0	456	114	0	0	0	0	
7	0	0	0	0	455	115	0	0	0	0	
8	0	0	0	0	455	116	0	0	0	0	
9	0	0	0	0	455	116	0	0	0	0	
10	0	0	0	0	455	117	0	0	0	0	
11	0	0	0	0	456	119	0	0	0	0	
12	0	0	0	0	458	120	0	0	0	0	
13	0	0	0	0	460	120	0	0	0	0	
14	0	0	0	0	462	120	0	0	0	0	
15	0	0	0	0	465	120	0	0	0	0	
0	0	0	0	0	467	119	0	0	0	0	
1	0	0	0	0	470	118	0	0	0	0	
2	0	0	0	0	471	117	0	0	0	0	
3	0	0	0	0	472	115	0	0	0	0	
4	0	0	0	0	472	113	0	0	0	0	
5	0	0	0	0	474	113	0	0	0	0	
6	0	0	0	0	476	114	0	0	0	0	
7	0	0	0	0	478	116	0	0	0	0	
8	0	0	0	0	481	120	0	0	0	0	
9	0	0	0	0	486	126	0	0	0	0	
10	0	0	0	0	492	134	0	0	0	0	
11	0	0	0	0	500	144	0	0	0	0	
12	0	0	0	0	509	156	0	0	0	0	
13	0	0	0	0	519	169	0	0	0	0	
14	0	0	0	0	531	183	0	0	0	0	
15	0	0	0	0	542	197	0	0	0	0	
0	0	0	0	0	553	211	0	0	0	0	
1	0	0	0	0	563	223	0	0	0	0	
2	0	0	0	0	572	233	0	0	0	0	
3	0	0	0	0	579	241	0	0	0	0	
4	0	0	0	0	583	246	0	0	0	0	
5	0	0	0	0	583	248	0	0	0	0	
6	0	0	0	0	580	246	0	0	0	0	
7	0	0	0	0	574	239	0	0	0	0	
8	0	0	0	0	563	230	0	0	0	0	
9	0	0	0	0	548	217	0	0	0	0	
10	0	0	0	0	532	202	0	0	0	0	
11	0	0	0	0	514	186	0	0	0	0	
12	0	0	0	0	496	170	0	0	0	0	
13	0	0	0	0	480	156	0	0	0	0	
14	0	0	0	0	467	143	0	0	0	0	
15	0	0	0	0	456	134	0	0	0	0	
0	0	0	0	0	451	129	0	0	0	0	
1	0	0	0	0	448	127	0	0	0	0	
2	0	0	0	0	448	127	0	0	0	0	
3	0	0	0	0	451	129	0	0	0	0	
4	0	0	0	0	455	132	0	0	0	0	
5	0	0	0	0	459	135	0	0	0	0	
6	0	0	0	0	462	138	0	0	0	0	
7	0	0	0	0	464	140	0	0	0	0	
8	0	0	0	0	464	141	0	0	0	0	
9	0	0	0	0	463	140	0	0	0	0	
10	0	0	0	0	458	137	0	0	0	0	
11	0	0	0	0	453	133	0	0	0	0	
12	0	0	0	0	445	128	0	0	0	0	
13	0	0	0	0	438	123	0	0	0	0	
14	0	0	0	0	429	117	0	0	0	0	
15	0	0	0	0	420	110	0	0	0	0	
0	0	0	0	0	411	103	0	0	0	0	
1	0	0	0	0	401	94	0	0	0	0	
2	0	0	0	0	390	85	0	0	0	0	
3	0	0	0	0	379	76	0	0	0	0	
4	0	0	0	0	368	66	0	0	0	0	
5	0	0	0	0	355	55	0	0	0	0	
6	0	0	0	0	343	45	0	0	0	0	
7	0	0	0	0	331	35	0	0	0	0	
8	0	0	0	0	320	25	0	0	0	0	
9	0	0	0	0	309	15	0	0	0	0	
10	0	0	0	0	300	7	0	0	0	0	
11	0	0	0	0	292	2	0	0	0	0	
12	0	0	0	0	288	0	0	0	0	0	
13	0	0	0	0	288	0	0	0	0	0	
14	0	0	0	0	294	5	0	0	0	0	
15	0	0	0	0	304	15	0	0	0	0	
0	0	0	0	0	319	30	0	0	0	0	
1	0	0	0	0	341	49	0	0	0	0	
2	0	0	0	0	368	74	0	0	0	0	
3	0	0	0	0	399	103	0	0	0	0	
4	0	0	0	0	433	134	0	0	0	0	
5	0	0	0	0	469	167	0	0	0	0	
6	0	0	0	0	505	201	0	0	0	0	
7	0	0	0	0	540	234	0	0	0	0	
8	0	0	0	0	572	265	0	0	0	0	
9	0	0	0	0	599	292	0	0	0	0	
10	0	0	0	0	621	315	0	0	0	0	
11	0	0	0	0	638	334	0	0	0	0	
12	0	0	0	0	648	347	0	0	0	0	
13	0	0	0	0	654	355	0	0	0	0	
14	0	0	0	0	653	359	0	0	0	0	
15	0	0	0	0	649	357	0	0	0	0	
0	0	0	0	0	640	351	0	0	0	0	
1	0	0	0	0	626	339	0	0	0	0	
2	0	0	0	0	609	325	0	0	0	0	
3	0	0	0	0	589	307	0	0	0	0	
4	0	0	0	0	568	288	0	0	0	0	
5	0	0	0	0	549	270	0	0	0	0	
6	0	0	0	0	531	253	0	0	0	0	
7	0	0	0	0	516	239	0	0	0	0	
8	0	0	0	0	506	228	0	0	0	0	
9	0	0	0	0	499	221	0	0	0	0	
10	0	0	0	0	497	217	0	0	0	0	
11	0	0	0	0	499	219	0	0	0	0	
12	0	0	0	0	505	223	0	0	0	0	
13	0	0	0	0	513	229	0	0	0	0	
14	0	0	0	0	524	238	0	0	0	0	
15	0	0	0	0	535	247	0	0	0	0	
0	0	0	0	0	546	257	0	0	0	0	
1	0	0	0	0	556	266	0	0	0	0	
2	0	0	0	0	564	273	0	0	0	0	
3	0	0	0	0	569	278	0	0	0	0	
4	0	0	0	0	574	281	0	0	0	0	
5	0	0	0	0	575	282	0	0	0	0	
6	0	0	0	0	574	281	0	0	0	0	
7	0	0	0	0	572	279	0	0	0	0	
8	0	0	0	0	568	275	0	0	0	0	
9	0	0	0	0	563	271	0	0	0	0	
10	0	0	0	0	557	265	0	0	0	0	
11	0	0	0	0	552	261	0	0	0	0	
12	0	0	0	0	547	257	0	0	0	0	
13	0	0	0	0	543	254	0	0	0	0	
14	0	0	0	0	542	253	0	0	0	0	
15	0	0	0	0	541	253	0	0	0	0	
0	0	0	0	0	542	255	0	0	0	0	
1	0	0	0	0	543	257	0	0	0	0	
2	0	0	0	0	546	260	0	0	0	0	
3	0	0	0	0	550	263	0	0	0	0	
4	0	0	0	0	554	265	0	0	0	0	
5	0	0	0	0	557	266	0	0	0	0	
6	0	0	0	0	559	266	0	0	0	0	
7	0	0	0	0	560	264	0	0	0	0	
8	0	0	0	0	561	263	0	0	0	0	
9	0	0	0	0	560	260	0	0	0	0	
10	0	0	0	0	559	256	0	0	0	0	
11	0	0	0	0	556	253	0	0	0	0	
12	0	0	0	0	552	249	0	0	0	0	
13	0	0	0	0	549	245	0	0	0	0	
14	0	0	0	0	545	242	0	0	0	0	
15	0	0	0	0	541	238	0	0	0	0	
0	0	0	0	0	538	234	0	0	0	0	
1	0	0	0	0	535	231	0	0	0	0	
2	0	0	0	0	534	229	0	0	0	0	
3	0	0	0	0	533	227	0	0	0	0	
4	0	0	0	0	533	226	0	0	0	0	
5	0	0	0	0	534	226	0	0	0	0	
6	0	0	0	0	536	227	0	0	0	0	
7	0	0	0	0	540	230	0	0	0	0	
8	0	0	0	0	544	233	0	0	0	0	
9	0	0	0	0	548	237	0	0	0	0	
10	0	0	0	0	552	241	0	0	0	0	
11	0	0	0	0	555	245	0	0	0	0	
12	0	0	0	0	558	247	0	0	0	0	
13	0	0	0	0	559	249	0	0	0	0	
14	0	0	0	0	559	249	0	0	0	0	
15	0	0	0	0	558	250	0	0	0	0	
0	0	0	0	0	557	250	0	0	0	0	
1	0	0	0	0	556	249	0	0	0	0	
2	0	0	0	0	556	249	0	0	0	0	
3	0	0	0	0	555	249	0	0	0	0	
4	0	0	0	0	553	248	0	0	0	0	
5	0	0	0	0	551	247	0	0	0	0	
6	0	0	0	0	549	245	0	0	0	0	
7	0	0	0	0	546	243	0	0	0	0	
8	0	0	0	0	541	239	0	0	0	0	
9	0	0	0	0	536	235	0	0	0	0	
10	0	0	0	0	531	230	0	0	0	0	
11	0	0	0	0	526	225	0	0	0	0	
12	0	0	0	0	522	221	0	0	0	0	
13	0	0	0	0	519	219	0	0	0	0	
14	0	0	0	0	519	218	0	0	0	0	
15	0	0	0	0	522	219	0	0	0	0	
0	0	0	0	0	527	222	0	0	0	0	
1	0	0	0	0	533	226	0	0	0	0	
2	0	0	0	0	539	230	0	0	0	0	
3	0	0	0	0	544	234	0	0	0	0	
4	0	0	0	0	550	238	0	0	0	0	
5	0	0	0	0	554	240	0	0	0	0	
6	0	0	0	0	557	242	0	0	0	0	
7	0	0	0	0	559	244	0	0	0	0	
8	0	0	0	0	559	245	0	0	0	0	
9	0	0	0	0	558	246	0	0	0	0	
10	0	0	0	0	556	245	0	0	0	0	
11	0	0	0	0	553	245	0	0	0	0	
12	0	0	0	0	551	244	0	0	0	0	
13	0	0	0	0	546	243	0	0	0	0	
14	0	0	0	0	543	241	0	0	0	0	
15	0	0	0	0	538	239	0	0	0	0	
0	0	0	0	0	534	236	0	0	0	0	
1	0	0	0	0	528	232	0	0	0	0	
2	0	0	0	0	523	227	0	0	0	0	
3	0	0	0	0	518	222	0	0	0	0	
4	0	0	0	0	513	216	0	0	0	0	
5	0	0	0	0	509	211	0	0	0	0	
6	0	0	0	0	505	205	0	0	0	0	
7	0	0	0	0	503	200	0	0	0	0	
8	0	0	0	0	502	196	0	0	0	0	
9	0	0	0	0	501	193	0	0	0	0	
10	0	0	0	0	502	191	0	0	0	0	
11	0	0	0	0	503	191	0	0	0	0	
12	0	0	0	0	507	193	0	0	0	0	
13	0	0	0	0	510	195	0	0	0	0	
14	0	0	0	0	515	199	0	0	0	0	
15	0	0	0	0	519	204	0	0	0	0	
0	0	0	0	0	524	210	0	0	0	0	
1	0	0	0	0	529	216	0	0	0	0	
2	0	0	0	0	532	221	0	0	0	0	
3	0	0	0	0	535	226	0	0	0	0	
4	0	0	0	0	537	229	0	0	0	0	
5	0	0	0	0	537	231	0	0	0	0	
6	0	0	0	0	537	233	0	0	0	0	
7	0	0	0	0	537	233	0	0	0	0	
8	0	0	0	0	537	234	0	0	0	0	
9	0	0	0	0	536	234	0	0	0	0	
10	0	0	0	0	537	234	0	0	0	0	
11	0	0	0	0	537	234	0	0	0	0	
12	0	0	0	0	537	234	0	0	0	0	
13	0	0	0	0	538	233	0	0	0	0	
14	0	0	0	0	537	232	0	0	0	0	
15	0	0	0	0	536	230	0	0	0	0	
0	0	0	0	0	533	227	0	0	0	0	
1	0	0	0	0	529	223	0	0	0	0	
2	0	0	0	0	525	220	0	0	0	0	
3	0	0	0	0	520	216	0	0	0	0	
4	0	0	0	0	515	213	0	0	0	0	
5	0	0	0	0	510	210	0	0	0	0	
6	0	0	0	0	504	207	0	0	0	0	
7	0	0	0	0	501	205	0	0	0	0	
8	0	0	0	0	498	204	0	0	0	0	
9	0	0	0	0	497	204	0	0	0	0	
10	0	0	0	0	496	204	0	0	0	0	
11	0	0	0	0	497	205	0	0	0	0	
12	0	0	0	0	500	207	0	0	0	0	
13	0	0	0	0	504	210	0	0	0	0	
14	0	0	0	0	509	214	0	0	0	0	
15	0	0	0	0	514	217	0	0	0	0	
0	0	0	0	0	519	220	0	0	0	0	
1	0	0	0	0	523	222	0	0	0	0	
2	0	0	0	0	525	224	0	0	0	0	
3	0	0	0	0	525	223	0	0	0	0	
4	0	0	0	0	522	220	0	0	0	0	
5	0	0	0	0	516	215	0	0	0	0	
6	0	0	0	0	508	209	0	0	0	0	
7	0	0	0	0	500	203	0	0	0	0	
8	0	0	0	0	491	196	0	0	0	0	
9	0	0	0	0	482	189	0	0	0	0	
10	0	0	0	0	475	184	0	0	0	0	
11	0	0	0	0	470	181	0	0	0	0	
12	0	0	0	0	467	179	0	0	0	0	
13	0	0	0	0	466	179	0	0	0	0	
14	0	0	0	0	468	180	0	0	0	0	
15	0	0	0	0	472	183	0	0	0	0	
0	0	0	0	0	478	187	0	0	0	0	
1	0	0	0	0	485	192	0	0	0	0	
2	0	0	0	0	491	197	0	0	0	0	
3	0	0	0	0	497	200	0	0	0	0	
4	0	0	0	0	503	204	0	0	0	0	
5	0	0	0	0	507	206	0	0	0	0	
6	0	0	0	0	510	207	0	0	0	0	
7	0	0	0	0	510	206	0	0	0	0	
8	0	0	0	0	509	204	0	0	0	0	
9	0	0	0	0	505	202	0	0	0	0	
10	0	0	0	0	502	198	0	0	0	0	
11	0	0	0	0	497	195	0	0	0	0	
12	0	0	0	0	492	191	0	0	0	0	
13	0	0	0	0	487	187	0	0	0	0	
14	0	0	0	0	483	184	0	0	0	0	
15	0	0	0	0	479	182	0	0	0	0	
0	0	0	0	0	476	179	0	0	0	0	
1	0	0	0	0	473	176	0	0	0	0	
2	0	0	0	0	471	172	0	0	0	0	
3	0	0	0	0	468	169	0	0	0	0	
4	0	0	0	0	466	167	0	0	0	0	
5	0	0	0	0	465	164	0	0	0	0	
6	0	0	0	0	464	162	0	0	0	0	
7	0	0	0	0	463	160	0	0	0	0	
8	0	0	0	0	463	159	0	0	0	0	
9	0	0	0	0	463	158	0	0	0	0	
10	0	0	0	0	464	159	0	0	0	0	
11	0	0	0	0	465	161	0	0	0	0	
12	0	0	0	0	467	162	0	0	0	0	
13	0	0	0	0	468	164	0	0	0	0	
14	0	0	0	0	469	167	0	0	0	0	
15	0	0	0	0	471	170	0	0	0	0	
0	0	0	0	0	472	173	0	0	0	0	
1	0	0	0	0	475	177	0	0	0	0	
2	0	0	0	0	478	182	0	0	0	0	
3	0	0	0	0	482	186	0	0	0	0	
4	0	0	0	0	486	191	0	0	0	0	
5	0	0	0	0	489	195	0	0	0	0	
6	0	0	0	0	494	199	0	0	0	0	
7	0	0	0	0	497	203	0	0	0	0	
8	0	0	0	0	502	207	0	0	0	0	
9	0	0	0	0	507	211	0	0	0	0	
10	0	0	0	0	511	215	0	0	0	0	
11	0	0	0	0	516	219	0	0	0	0	
12	0	0	0	0	519	222	0	0	0	0	
13	0	0	0	0	523	225	0	0	0	0	
14	0	0	0	0	525	227	0	0	0	0	
15	0	0	0	0	526	229	0	0	0	0	
0	0	0	0	0	526	230	0	0	0	0	
1	0	0	0	0	524	230	0	0	0	0	
2	0	0	0	0	521	229	0	0	0	0	
3	0	0	0	0	518	226	0	0	0	0	
4	0	0	0	0	512	222	0	0	0	0	
5	0	0	0	0	505	217	0	0	0	0	
6	0	0	0	0	498	211	0	0	0	0	
7	0	0	0	0	491	204	0	0	0	0	
8	0	0	0	0	484	199	0	0	0	0	
9	0	0	0	0	480	193	0	0	0	0	
10	0	0	0	0	477	190	0	0	0	0	
11	0	0	0	0	477	188	0	0	0	0	
12	0	0	0	0	480	188	0	0	0	0	
13	0	0	0	0	484	191	0	0	0	0	
14	0	0	0	0	490	195	0	0	0	0	
15	0	0	0	0	497	199	0	0	0	0	
0	0	0	0	0	504	205	0	0	0	0	
1	0	0	0	0	512	211	0	0	0	0	
2	0	0	0	0	520	217	0	0	0	0	
3	0	0	0	0	527	224	0	0	0	0	
4	0	0	0	0	534	231	0	0	0	0	
5	0	0	0	0	539	237	0	0	0	0	
6	0	0	0	0	543	244	0	0	0	0	
7	0	0	0	0	547	250	0	0	0	0	
8	0	0	0	0	549	254	0	0	0	0	
9	0	0	0	0	549	258	0	0	0	0	
10	0	0	0	0	548	260	0	0	0	0	
11	0	0	0	0	545	261	0	0	0	0	
12	0	0	0	0	540	259	0	0	0	0	
13	0	0	0	0	533	255	0	0	0	0	
14	0	0	0	0	524	248	0	0	0	0	
15	0	0	0	0	513	240	0	0	0	0	
0	0	0	0	0	503	231	0	0	0	0	
1	0	0	0	0	492	222	0	0	0	0	
2	0	0	0	0	481	213	0	0	0	0	
3	0	0	0	0	473	204	0	0	0	0	
4	0	0	0	0	466	198	0	0	0	0	
5	0	0	0	0	462	194	0	0	0	0	
6	0	0	0	0	461	193	0	0	0	0	
7	0	0	0	0	462	194	0	0	0	0	
8	0	0	0	0	466	198	0	0	0	0	
9	0	0	0	0	473	203	0	0	0	0	
10	0	0	0	0	481	211	0	0	0	0	
11	0	0	0	0	492	219	0	0	0	0	
12	0	0	0	0	501	227	0	0	0	0	
13	0	0	0	0	511	234	0	0	0	0	
14	0	0	0	0	519	239	0	0	0	0	
15	0	0	0	0	525	243	0	0	0	0	
0	0	0	0	0	528	244	0	0	0	0	
1	0	0	0	0	529	243	0	0	0	0	
2	0	0	0	0	527	239	0	0	0	0	
3	0	0	0	0	522	233	0	0	0	0	
4	0	0	0	0	516	227	0	0	0	0	
5	0	0	0	0	509	220	0	0	0	0	
6	0	0	0	0	501	214	0	0	0	0	
7	0	0	0	0	494	208	0	0	0	0	
8	0	0	0	0	489	204	0	0	0	0	
9	0	0	0	0	485	202	0	0	0	0	
10	0	0	0	0	483	202	0	0	0	0	
11	0	0	0	0	484	204	0	0	0	0	
12	0	0	0	0	486	208	0	0	0	0	
13	0	0	0	0	489	212	0	0	0	0	
14	0	0	0	0	492	217	0	0	0	0	
15	0	0	0	0	495	221	0	0	0	0	
0	0	0	0	0	498	225	0	0	0	0	
1	0	0	0	0	500	228	0	0	0	0	
2	0	0	0	0	502	231	0	0	0	0	
3	0	0	0	0	505	235	0	0	0	0	
4	0	0	0	0	509	239	0	0	0	0	
5	0	0	0	0	514	244	0	0	0	0	
6	0	0	0	0	521	250	0	0	0	0	
7	0	0	0	0	528	257	0	0	0	0	
8	0	0	0	0	536	265	0	0	0	0	
9	0	0	0	0	544	272	0	0	0	0	
10	0	0	0	0	551	279	0	0	0	0	
11	0	0	0	0	557	284	0	0	0	0	
12	0	0	0	0	560	287	0	0	0	0	
13	0	0	0	0	562	289	0	0	0	0	
14	0	0	0	0	562	290	0	0	0	0	
15	0	0	0	0	561	289	0	0	0	0	
0	0	0	0	0	558	287	0	0	0	0	
1	0	0	0	0	553	284	0	0	0	0	
2	0	0	0	0	548	280	0	0	0	0	
3	0	0	0	0	543	276	0	0	0	0	
4	0	0	0	0	536	271	0	0	0	0	
5	0	0	0	0	530	265	0	0	0	0	
6	0	0	0	0	524	259	0	0	0	0	
7	0	0	0	0	517	254	0	0	0	0	
8	0	0	0	0	512	249	0	0	0	0	
9	0	0	0	0	507	245	0	0	0	0	
10	0	0	0	0	503	241	0	0	0	0	
11	0	0	0	0	500	239	0	0	0	0	
12	0	0	0	0	499	238	0	0	0	0	
13	0	0	0	0	499	238	0	0	0	0	
14	0	0	0	0	500	239	0	0	0	0	
15	0	0	0	0	503	241	0	0	0	0	
0	0	0	0	0	507	243	0	0	0	0	
1	0	0	0	0	511	247	0	0	0	0	
2	0	0	0	0	515	251	0	0	0	0	
3	0	0	0	0	520	255	0	0	0	0	
4	0	0	0	0	525	259	0	0	0	0	
5	0	0	0	0	530	264	0	0	0	0	
6	0	0	0	0	535	269	0	0	0	0	
7	0	0	0	0	539	273	0	0	0	0	
8	0	0	0	0	543	278	0	0	0	0	
9	0	0	0	0	546	282	0	0	0	0	
10	0	0	0	0	547	284	0	0	0	0	
11	0	0	0	0	547	285	0	0	0	0	
12	0	0	0	0	545	285	0	0	0	0	
13	0	0	0	0	541	283	0	0	0	0	
14	0	0	0	0	536	280	0	0	0	0	
15	0	0	0	0	531	276	0	0	0	0	
0	0	0	0	0	525	271	0	0	0	0	
1	0	0	0	0	521	267	0	0	0	0	
2	0	0	0	0	516	262	0	0	0	0	
3	0	0	0	0	513	258	0	0	0	0	
4	0	0	0	0	511	255	0	0	0	0	
5	0	0	0	0	512	253	0	0	0	0	
6	0	0	0	0	514	254	0	0	0	0	
7	0	0	0	0	519	256	0	0	0	0	
8	0	0	0	0	526	262	0	0	0	0	
9	0	0	0	0	535	270	0	0	0	0	
10	0	0	0	0	546	279	0	0	0	0	
11	0	0	0	0	559	291	0	0	0	0	
12	0	0	0	0	571	303	0	0	0	0	
13	0	0	0	0	583	315	0	0	0	0	
14	0	0	0	0	592	325	0	0	0	0	
15	0	0	0	0	598	333	0	0	0	0	
0	0	0	0	0	601	339	0	0	0	0	
1	0	0	0	0	601	341	0	0	0	0	
2	0	0	0	0	596	339	0	0	0	0	
3	0	0	0	0	588	334	0	0	0	0	
4	0	0	0	0	578	326	0	0	0	0	
5	0	0	0	0	565	316	0	0	0	0	
6	0	0	0	0	552	305	0	0	0	0	
7	0	0	0	0	539	294	0	0	0	0	
8	0	0	0	0	527	283	0	0	0	0	
9	0	0	0	0	517	273	0	0	0	0	
10	0	0	0	0	510	265	0	0	0	0	
11	0	0	0	0	504	259	0	0	0	0	
12	0	0	0	0	501	254	0	0	0	0	
13	0	0	0	0	500	252	0	0	0	0	
14	0	0	0	0	502	252	0	0	0	0	
15	0	0	0	0	505	254	0	0	0	0	
0	0	0	0	0	511	258	0	0	0	0	
1	0	0	0	0	519	264	0	0	0	0	
2	0	0	0	0	527	271	0	0	0	0	
3	0	0	0	0	536	279	0	0	0	0	
4	0	0	0	0	545	286	0	0	0	0	
5	0	0	0	0	553	293	0	0	0	0	
6	0	0	0	0	560	298	0	0	0	0	
7	0	0	0	0	564	302	0	0	0	0	
8	0	0	0	0	568	304	0	0	0	0	
9	0	0	0	0	569	305	0	0	0	0	
10	0	0	0	0	569	304	0	0	0	0	
11	0	0	0	0	567	302	0	0	0	0	
12	0	0	0	0	564	300	0	0	0	0	
13	0	0	0	0	561	298	0	0	0	0	
14	0	0	0	0	557	296	0	0	0	0	
15	0	0	0	0	554	295	0	0	0	0	
0	0	0	0	0	551	294	0	0	0	0	
1	0	0	0	0	548	294	0	0	0	0	
2	0	0	0	0	547	294	0	0	0	0	
3	0	0	0	0	545	294	0	0	0	0	
4	0	0	0	0	544	295	0	0	0	0	
5	0	0	0	0	543	295	0	0	0	0	
6	0	0	0	0	543	295	0	0	0	0	
7	0	0	0	0	542	295	0	0	0	0	
8	0	0	0	0	540	294	0	0	0	0	
9	0	0	0	0	538	292	0	0	0	0	
10	0	0	0	0	536	289	0	0	0	0	
11	0	0	0	0	532	286	0	0	0	0	
12	0	0	0	0	529	284	0	0	0	0	
13	0	0	0	0	527	282	0	0	0	0	
14	0	0	0	0	526	281	0	0	0	0	
15	0	0	0	0	527	282	0	0	0	0	
0	0	0	0	0	529	285	0	0	0	0	
1	0	0	0	0	534	290	0	0	0	0	
2	0	0	0	0	540	297	0	0	0	0	
3	0	0	0	0	547	304	0	0	0	0	
4	0	0	0	0	554	311	0	0	0	0	
5	0	0	0	0	560	318	0	0	0	0	
6	0	0	0	0	566	324	0	0	0	0	
7	0	0	0	0	569	328	0	0	0	0	
8	0	0	0	0	570	330	0	0	0	0	
9	0	0	0	0	568	329	0	0	0	0	
10	0	0	0	0	564	325	0	0	0	0	
11	0	0	0	0	558	319	0	0	0	0	
12	0	0	0	0	550	310	0	0	0	0	
13	0	0	0	0	539	297	0	0	0	0	
14	0	0	0	0	527	284	0	0	0	0	
15	0	0	0	0	515	271	0	0	0	0	
0	0	0	0	0	503	258	0	0	0	0	
1	0	0	0	0	494	247	0	0	0	0	
2	0	0	0	0	487	239	0	0	0	0	
3	0	0	0	0	484	235	0	0	0	0	
4	0	0	0	0	485	235	0	0	0	0	
5	0	0	0	0	491	239	0	0	0	0	
6	0	0	0	0	500	248	0	0	0	0	
7	0	0	0	0	513	259	0	0	0	0	
8	0	0	0	0	528	273	0	0	0	0	
9	0	0	0	0	544	288	0	0	0	0	
10	0	0	0	0	559	303	0	0	0	0	
11	0	0	0	0	574	317	0	0	0	0	
12	0	0	0	0	586	330	0	0	0	0	
13	0	0	0	0	595	340	0	0	0	0	
14	0	0	0	0	600	347	0	0	0	0	
15	0	0	0	0	601	350	0	0	0	0	
0	0	0	0	0	598	350	0	0	0	0	
1	0	0	0	0	591	345	0	0	0	0	
2	0	0	0	0	580	336	0	0	0	0	
3	0	0	0	0	566	326	0	0	0	0	
4	0	0	0	0	551	313	0	0	0	0	
5	0	0	0	0	536	299	0	0	0	0	
6	0	0	0	0	522	286	0	0	0	0	
7	0	0	0	0	510	274	0	0	0	0	
8	0	0	0	0	502	264	0	0	0	0	
9	0	0	0	0	498	258	0	0	0	0	
10	0	0	0	0	498	255	0	0	0	0	
11	0	0	0	0	503	257	0	0	0	0	
12	0	0	0	0	511	261	0	0	0	0	
13	0	0	0	0	521	268	0	0	0	0	
14	0	0	0	0	534	277	0	0	0	0	
15	0	0	0	0	546	287	0	0	0	0	
0	0	0	0	0	558	297	0	0	0	0	
1	0	0	0	0	568	306	0	0	0	0	
2	0	0	0	0	576	315	0	0	0	0	
3	0	0	0	0	582	320	0	0	0	0	
4	0	0	0	0	584	324	0	0	0	0	
5	0	0	0	0	584	326	0	0	0	0	
6	0	0	0	0	581	325	0	0	0	0	
7	0	0	0	0	576	323	0	0	0	0	
8	0	0	0	0	569	318	0	0	0	0	
9	0	0	0	0	561	313	0	0	0	0	
10	0	0	0	0	554	307	0	0	0	0	
11	0	0	0	0	547	301	0	0	0	0	
12	0	0	0	0	541	296	0	0	0	0	
13	0	0	0	0	537	293	0	0	0	0	
14	0	0	0	0	536	291	0	0	0	0	
15	0	0	0	0	538	291	0	0	0	0	
0	0	0	0	0	542	294	0	0	0	0	
1	0	0	0	0	547	299	0	0	0	0	
2	0	0	0	0	555	304	0	0	0	0	
3	0	0	0	0	563	312	0	0	0	0	
4	0	0	0	0	572	319	0	0	0	0	
5	0	0	0	0	579	327	0	0	0	0	
6	0	0	0	0	587	334	0	0	0	0	
7	0	0	0	0	592	339	0	0	0	0	
8	0	0	0	0	595	343	0	0	0	0	
9	0	0	0	0	595	344	0	0	0	0	
10	0	0	0	0	593	342	0	0	0	0	
11	0	0	0	0	590	340	0	0	0	0	
12	0	0	0	0	585	336	0	0	0	0	
13	0	0	0	0	579	331	0	0	0	0	
14	0	0	0	0	573	325	0	0	0	0	
15	0	0	0	0	566	319	0	0	0	0	
0	0	0	0	0	559	312	0	0	0	0	
1	0	0	0	0	552	304	0	0	0	0	
2	0	0	0	0	545	296	0	0	0	0	
3	0	0	0	0	537	288	0	0	0	0	
4	0	0	0	0	530	281	0	0	0	0	
5	0	0	0	0	523	274	0	0	0	0	
6	0	0	0	0	516	268	0	0	0	0	
7	0	0	0	0	510	262	0	0	0	0	
8	0	0	0	0	504	256	0	0	0	0	
9	0	0	0	0	499	252	0	0	0	0	
10	0	0	0	0	495	248	0	0	0	0	
11	0	0	0	0	492	247	0	0	0	0	
12	0	0	0	0	492	248	0	0	0	0	
13	0	0	0	0	493	249	0	0	0	0	
14	0	0	0	0	496	253	0	0	0	0	
15	0	0	0	0	503	259	0	0	0	0	
0	0	0	0	0	511	268	0	0	0	0	
1	0	0	0	0	523	277	0	0	0	0	
2	0	0	0	0	535	287	0	0	0	0	
3	0	0	0	0	548	297	0	0	0	0	
4	0	0	0	0	560	307	0	0	0	0	
5	0	0	0	0	572	316	0	0	0	0	
6	0	0	0	0	583	324	0	0	0	0	
7	0	0	0	0	591	330	0	0	0	0	
8	0	0	0	0	596	334	0	0	0	0	
9	0	0	0	0	600	337	0	0	0	0	
10	0	0	0	0	601	339	0	0	0	0	
11	0	0	0	0	601	339	0	0	0	0	
12	0	0	0	0	598	337	0	0	0	0	
13	0	0	0	0	593	335	0	0	0	0	
14	0	0	0	0	587	330	0	0	0	0	
15	0	0	0	0	579	325	0	0	0	0	
0	0	0	0	0	569	318	0	0	0	0	
1	0	0	0	0	559	310	0	0	0	0	
2	0	0	0	0	548	301	0	0	0	0	
3	0	0	0	0	536	291	0	0	0	0	
4	0	0	0	0	526	282	0	0	0	0	
5	0	0	0	0	516	273	0	0	0	0	
6	0	0	0	0	510	266	0	0	0	0	
7	0	0	0	0	506	262	0	0	0	0	
8	0	0	0	0	507	260	0	0	0	0	
9	0	0	0	0	511	262	0	0	0	0	
10	0	0	0	0	518	267	0	0	0	0	
11	0	0	0	0	527	274	0	0	0	0	
12	0	0	0	0	540	284	0	0	0	0	
13	0	0	0	0	552	295	0	0	0	0	
14	0	0	0	0	565	305	0	0	0	0	
15	0	0	0	0	575	314	0	0	0	0	
0	0	0	0	0	581	319	0	0	0	0	
1	0	0	0	0	582	321	0	0	0	0	
2	0	0	0	0	578	319	0	0	0	0	
3	0	0	0	0	571	313	0	0	0	0	
4	0	0	0	0	559	304	0	0	0	0	
5	0	0	0	0	543	292	0	0	0	0	
6	0	0	0	0	526	277	0	0	0	0	
7	0	0	0	0	509	262	0	0	0	0	
8	0	0	0	0	492	246	0	0	0	0	
9	0	0	0	0	478	231	0	0	0	0	
10	0	0	0	0	468	219	0	0	0	0	
11	0	0	0	0	461	210	0	0	0	0	
12	0	0	0	0	459	205	0	0	0	0	
13	0	0	0	0	463	206	0	0	0	0	
14	0	0	0	0	472	211	0	0	0	0	
15	0	0	0	0	486	221	0	0	0	0	
0	0	0	0	0	504	236	0	0	0	0	
1	0	0	0	0	523	252	0	0	0	0	
2	0	0	0	0	543	271	0	0	0	0	
3	0	0	0	0	563	290	0	0	0	0	
4	0	0	0	0	580	307	0	0	0	0	
5	0	0	0	0	593	320	0	0	0	0	
6	0	0	0	0	601	331	0	0	0	0	
7	0	0	0	0	606	339	0	0	0	0	
8	0	0	0	0	607	343	0	0	0	0	
9	0	0	0	0	604	343	0	0	0	0	
10	0	0	0	0	598	340	0	0	0	0	
11	0	0	0	0	590	336	0	0	0	0	
12	0	0	0	0	581	329	0	0	0	0	
13	0	0	0	0	571	321	0	0	0	0	
14	0	0	0	0	560	312	0	0	0	0	
15	0	0	0	0	549	301	0	0	0	0	
0	0	0	0	0	538	290	0	0	0	0	
1	0	0	0	0	528	280	0	0	0	0	
2	0	0	0	0	519	271	0	0	0	0	
3	0	0	0	0	512	263	0	0	0	0	
4	0	0	0	0	506	256	0	0	0	0	
5	0	0	0	0	500	250	0	0	0	0	
6	0	0	0	0	496	246	0	0	0	0	
7	0	0	0	0	493	242	0	0	0	0	
8	0	0	0	0	492	240	0	0	0	0	
9	0	0	0	0	492	240	0	0	0	0	
10	0	0	0	0	495	243	0	0	0	0	
11	0	0	0	0	500	248	0	0	0	0	
12	0	0	0	0	508	255	0	0	0	0	
13	0	0	0	0	516	263	0	0	0	0	
14	0	0	0	0	525	271	0	0	0	0	
15	0	0	0	0	534	280	0	0	0	0	
0	0	0	0	0	542	287	0	0	0	0	
1	0	0	0	0	548	293	0	0	0	0	
2	0	0	0	0	551	297	0	0	0	0	
3	0	0	0	0	553	298	0	0	0	0	
4	0	0	0	0	552	296	0	0	0	0	
5	0	0	0	0	550	294	0	0	0	0	
6	0	0	0	0	547	290	0	0	0	0	
7	0	0	0	0	543	286	0	0	0	0	
8	0	0	0	0	539	281	0	0	0	0	
9	0	0	0	0	536	278	0	0	0	0	
10	0	0	0	0	532	274	0	0	0	0	
11	0	0	0	0	530	272	0	0	0	0	
12	0	0	0	0	528	271	0	0	0	0	
13	0	0	0	0	527	270	0	0	0	0	
14	0	0	0	0	527	271	0	0	0	0	
15	0	0	0	0	528	273	0	0	0	0	
0	0	0	0	0	529	276	0	0	0	0	
1	0	0	0	0	531	279	0	0	0	0	
2	0	0	0	0	535	283	0	0	0	0	
3	0	0	0	0	538	287	0	0	0	0	
4	0	0	0	0	542	291	0	0	0	0	
5	0	0	0	0	547	295	0	0	0	0	
6	0	0	0	0	550	299	0	0	0	0	
7	0	0	0	0	554	302	0	0	0	0	
8	0	0	0	0	556	305	0	0	0	0	
9	0	0	0	0	559	307	0	0	0	0	
10	0	0	0	0	561	309	0	0	0	0	
11	0	0	0	0	563	311	0	0	0	0	
12	0	0	0	0	566	314	0	0	0	0	
13	0	0	0	0	569	318	0	0	0	0	
14	0	0	0	0	574	320	0	0	0	0	
15	0	0	0	0	577	323	0	0	0	0	
0	0	0	0	0	580	324	0	0	0	0	
1	0	0	0	0	581	323	0	0	0	0	
2	0	0	0	0	579	319	0	0	0	0	
3	0	0	0	0	574	313	0	0	0	0	
4	0	0	0	0	564	303	0	0	0	0	
5	0	0	0	0	551	290	0	0	0	0	
6	0	0	0	0	534	274	0	0	0	0	
7	0	0	0	0	513	255	0	0	0	0	
8	0	0	0	0	492	237	0	0	0	0	
9	0	0	0	0	470	219	0	0	0	0	
10	0	0	0	0	449	201	0	0	0	0	
11	0	0	0	0	432	185	0	0	0	0	
12	0	0	0	0	416	172	0	0	0	0	
13	0	0	0	0	405	162	0	0	0	0	
14	0	0	0	0	398	154	0	0	0	0	
15	0	0	0	0	393	148	0	0	0	0	
0	0	0	0	0	392	145	0	0	0	0	
1	0	0	0	0	392	143	0	0	0	0	
2	0	0	0	0	394	141	0	0	0	0	
3	0	0	0	0	396	140	0	0	0	0	
4	0	0	0	0	396	137	0	0	0	0	
5	0	0	0	0	396	135	0	0	0	0	
6	0	0	0	0	395	132	0	0	0	0	
7	0	0	0	0	392	129	0	0	0	0	
8	0	0	0	0	390	127	0	0	0	0	
9	0	0	0	0	387	124	0	0	0	0	
10	0	0	0	0	384	121	0	0	0	0	
11	0	0	0	0	381	120	0	0	0	0	
12	0	0	0	0	380	119	0	0	0	0	
13	0	0	0	0	380	119	0	0	0	0	
14	0	0	0	0	380	120	0	0	0	0	
15	0	0	0	0	383	123	0	0	0	0	
0	0	0	0	0	387	127	0	0	0	0	
1	0	0	0	0	394	133	0	0	0	0	
2	0	0	0	0	403	142	0	0	0	0	
3	0	0	0	0	413	152	0	0	0	0	
4	0	0	0	0	426	164	0	0	0	0	
5	0	0	0	0	441	179	0	0	0	0	
6	0	0	0	0	457	195	0	0	0	0	
7	0	0	0	0	475	212	0	0	0	0	
8	0	0	0	0	493	229	0	0	0	0	
9	0	0	0	0	509	245	0	0	0	0	
10	0	0	0	0	523	259	0	0	0	0	
11	0	0	0	0	535	272	0	0	0	0	
12	0	0	0	0	543	282	0	0	0	0	
13	0	0	0	0	550	290	0	0	0	0	
14	0	0	0	0	554	295	0	0	0	0	
15	0	0	0	0	555	297	0	0	0	0	
0	0	0	0	0	554	299	0	0	0	0	
1	0	0	0	0	551	297	0	0	0	0	
2	0	0	0	0	546	294	0	0	0	0	
3	0	0	0	0	540	291	0	0	0	0	
4	0	0	0	0	534	286	0	0	0	0	
5	0	0	0	0	528	282	0	0	0	0	
6	0	0	0	0	523	278	0	0	0	0	
7	0	0	0	0	518	275	0	0	0	0	
8	0	0	0	0	513	272	0	0	0	0	
9	0	0	0	0	511	270	0	0	0	0	
10	0	0	0	0	510	270	0	0	0	0	
11	0	0	0	0	509	270	0	0	0	0	
12	0	0	0	0	510	271	0	0	0	0	
13	0	0	0	0	512	273	0	0	0	0	
14	0	0	0	0	516	275	0	0	0	0	
15	0	0	0	0	521	277	0	0	0	0	
0	0	0	0	0	527	280	0	0	0	0	
1	0	0	0	0	533	282	0	0	0	0	
2	0	0	0	0	539	284	0	0	0	0	
3	0	0	0	0	543	287	0	0	0	0	
4	0	0	0	0	548	288	0	0	0	0	
5	0	0	0	0	553	291	0	0	0	0	
6	0	0	0	0	556	293	0	0	0	0	
7	0	0	0	0	560	296	0	0	0	0	
8	0	0	0	0	563	300	0	0	0	0	
9	0	0	0	0	567	304	0	0	0	0	
10	0	0	0	0	571	309	0	0	0	0	
11	0	0	0	0	573	313	0	0	0	0	
12	0	0	0	0	575	317	0	0	0	0	
13	0	0	0	0	577	321	0	0	0	0	
14	0	0	0	0	579	324	0	0	0	0	
15	0	0	0	0	580	327	0	0	0	0	
0	0	0	0	0	582	330	0	0	0	0	
1	0	0	0	0	583	332	0	0	0	0	
2	0	0	0	0	583	332	0	0	0	0	
3	0	0	0	0	583	332	0	0	0	0	
4	0	0	0	0	583	331	0	0	0	0	
5	0	0	0	0	581	329	0	0	0	0	
6	0	0	0	0	579	325	0	0	0	0	
7	0	0	0	0	575	321	0	0	0	0	
8	0	0	0	0	572	316	0	0	0	0	
9	0	0	0	0	568	311	0	0	0	0	
10	0	0	0	0	564	306	0	0	0	0	
11	0	0	0	0	560	300	0	0	0	0	
12	0	0	0	0	557	296	0	0	0	0	
13	0	0	0	0	554	292	0	0	0	0	
14	0	0	0	0	551	289	0	0	0	0	
15	0	0	0	0	548	286	0	0	0	0	
0	0	0	0	0	547	285	0	0	0	0	
1	0	0	0	0	547	285	0	0	0	0	
2	0	0	0	0	547	286	0	0	0	0	
3	0	0	0	0	548	288	0	0	0	0	
4	0	0	0	0	550	291	0	0	0	0	
5	0	0	0	0	552	294	0	0	0	0	
6	0	0	0	0	555	298	0	0	0	0	
7	0	0	0	0	557	301	0	0	0	0	
8	0	0	0	0	559	304	0	0	0	0	
9	0	0	0	0	559	304	0	0	0	0	
10	0	0	0	0	558	302	0	0	0	0	
11	0	0	0	0	555	300	0	0	0	0	
12	0	0	0	0	552	295	0	0	0	0	
13	0	0	0	0	548	289	0	0	0	0	
14	0	0	0	0	544	283	0	0	0	0	
15	0	0	0	0	540	277	0	0	0	0	
0	0	0	0	0	538	271	0	0	0	0	
1	0	0	0	0	537	268	0	0	0	0	
2	0	0	0	0	538	266	0	0	0	0	
3	0	0	0	0	541	266	0	0	0	0	
4	0	0	0	0	546	270	0	0	0	0	
5	0	0	0	0	553	276	0	0	0	0	
6	0	0	0	0	561	284	0	0	0	0	
7	0	0	0	0	571	295	0	0	0	0	
8	0	0	0	0	581	305	0	0	0	0	
9	0	0	0	0	591	316	0	0	0	0	
10	0	0	0	0	599	326	0	0	0	0	
11	0	0	0	0	605	334	0	0	0	0	
12	0	0	0	0	608	340	0	0	0	0	
13	0	0	0	0	608	342	0	0	0	0	
14	0	0	0	0	604	340	0	0	0	0	
15	0	0	0	0	598	335	0	0	0	0	
0	0	0	0	0	588	327	0	0	0	0	
1	0	0	0	0	575	317	0	0	0	0	
2	0	0	0	0	562	305	0	0	0	0	
3	0	0	0	0	548	292	0	0	0	0	
4	0	0	0	0	535	279	0	0	0	0	
5	0	0	0	0	523	266	0	0	0	0	
6	0	0	0	0	512	255	0	0	0	0	
7	0	0	0	0	504	244	0	0	0	0	
8	0	0	0	0	496	236	0	0	0	0	
9	0	0	0	0	491	230	0	0	0	0	
10	0	0	0	0	487	224	0	0	0	0	
11	0	0	0	0	485	221	0	0	0	0	
12	0	0	0	0	484	219	0	0	0	0	
13	0	0	0	0	485	219	0	0	0	0	
14	0	0	0	0	487	219	0	0	0	0	
15	0	0	0	0	489	222	0	0	0	0	
0	0	0	0	0	494	226	0	0	0	0	
1	0	0	0	0	499	231	0	0	0	0	
2	0	0	0	0	505	237	0	0	0	0	
3	0	0	0	0	512	244	0	0	0	0	
4	0	0	0	0	519	253	0	0	0	0	
5	0	0	0	0	527	261	0	0	0	0	
6	0	0	0	0	536	270	0	0	0	0	
7	0	0	0	0	544	278	0	0	0	0	
8	0	0	0	0	552	286	0	0	0	0	
9	0	0	0	0	559	291	0	0	0	0	
10	0	0	0	0	564	296	0	0	0	0	
11	0	0	0	0	569	299	0	0	0	0	
12	0	0	0	0	571	300	0	0	0	0	
13	0	0	0	0	571	300	0	0	0	0	
14	0	0	0	0	569	299	0	0	0	0	
15	0	0	0	0	566	295	0	0	0	0	
0	0	0	0	0	561	292	0	0	0	0	
1	0	0	0	0	556	288	0	0	0	0	
2	0	0	0	0	550	284	0	0	0	0	
3	0	0	0	0	545	281	0	0	0	0	
4	0	0	0	0	540	279	0	0	0	0	
5	0	0	0	0	537	278	0	0	0	0	
6	0	0	0	0	534	276	0	0	0	0	
7	0	0	0	0	533	276	0	0	0	0	
8	0	0	0	0	534	275	0	0	0	0	
9	0	0	0	0	534	274	0	0	0	0	
10	0	0	0	0	535	273	0	0	0	0	
11	0	0	0	0	535	270	0	0	0	0	
12	0	0	0	0	535	267	0	0	0	0	
13	0	0	0	0	535	263	0	0	0	0	
14	0	0	0	0	534	260	0	0	0	0	
15	0	0	0	0	532	257	0	0	0	0	
0	0	0	0	0	531	255	0	0	0	0	
1	0	0	0	0	530	255	0	0	0	0	
2	0	0	0	0	531	258	0	0	0	0	
3	0	0	0	0	534	262	0	0	0	0	
4	0	0	0	0	537	267	0	0	0	0	
5	0	0	0	0	542	274	0	0	0	0	
6	0	0	0	0	547	281	0	0	0	0	
7	0	0	0	0	552	288	0	0	0	0	
8	0	0	0	0	558	295	0	0	0	0	
9	0	0	0	0	562	300	0	0	0	0	
10	0	0	0	0	566	304	0	0	0	0	
11	0	0	0	0	568	307	0	0	0	0	
12	0	0	0	0	568	308	0	0	0	0	
13	0	0	0	0	568	307	0	0	0	0	
14	0	0	0	0	564	304	0	0	0	0	
15	0	0	0	0	559	300	0	0	0	0	
0	0	0	0	0	553	293	0	0	0	0	
1	0	0	0	0	546	286	0	0	0	0	
2	0	0	0	0	538	279	0	0	0	0	
3	0	0	0	0	531	272	0	0	0	0	
4	0	0	0	0	526	267	0	0	0	0	
5	0	0	0	0	522	263	0	0	0	0	
6	0	0	0	0	521	262	0	0	0	0	
7	0	0	0	0	523	263	0	0	0	0	
8	0	0	0	0	527	267	0	0	0	0	
9	0	0	0	0	533	271	0	0	0	0	
10	0	0	0	0	540	278	0	0	0	0	
11	0	0	0	0	547	284	0	0	0	0	
12	0	0	0	0	553	289	0	0	0	0	
13	0	0	0	0	557	292	0	0	0	0	
14	0	0	0	0	558	292	0	0	0	0	
15	0	0	0	0	556	291	0	0	0	0	
0	0	0	0	0	551	286	0	0	0	0	
1	0	0	0	0	544	280	0	0	0	0	
2	0	0	0	0	535	272	0	0	0	0	
3	0	0	0	0	526	264	0	0	0	0	
4	0	0	0	0	517	258	0	0	0	0	
5	0	0	0	0	511	253	0	0	0	0	
6	0	0	0	0	509	252	0	0	0	0	
7	0	0	0	0	510	254	0	0	0	0	
8	0	0	0	0	515	259	0	0	0	0	
9	0	0	0	0	524	268	0	0	0	0	
10	0	0	0	0	537	278	0	0	0	0	
11	0	0	0	0	550	290	0	0	0	0	
12	0	0	0	0	563	301	0	0	0	0	
13	0	0	0	0	574	310	0	0	0	0	
14	0	0	0	0	582	317	0	0	0	0	
15	0	0	0	0	587	320	0	0	0	0	
0	0	0	0	0	587	320	0	0	0	0	
1	0	0	0	0	583	316	0	0	0	0	
2	0	0	0	0	575	309	0	0	0	0	
3	0	0	0	0	565	299	0	0	0	0	
4	0	0	0	0	553	288	0	0	0	0	
5	0	0	0	0	540	277	0	0	0	0	
6	0	0	0	0	528	266	0	0	0	0	
7	0	0	0	0	518	257	0	0	0	0	
8	0	0	0	0	509	248	0	0	0	0	
9	0	0	0	0	503	243	0	0	0	0	
10	0	0	0	0	499	239	0	0	0	0	
11	0	0	0	0	498	237	0	0	0	0	
12	0	0	0	0	499	238	0	0	0	0	
13	0	0	0	0	503	240	0	0	0	0	
14	0	0	0	0	508	245	0	0	0	0	
15	0	0	0	0	515	251	0	0	0	0	
0	0	0	0	0	521	257	0	0	0	0	
1	0	0	0	0	527	263	0	0	0	0	
2	0	0	0	0	533	269	0	0	0	0	
3	0	0	0	0	537	273	0	0	0	0	
4	0	0	0	0	540	276	0	0	0	0	
5	0	0	0	0	540	277	0	0	0	0	
6	0	0	0	0	539	276	0	0	0	0	
7	0	0	0	0	536	274	0	0	0	0	
8	0	0	0	0	531	271	0	0	0	0	
9	0	0	0	0	527	266	0	0	0	0	
10	0	0	0	0	521	260	0	0	0	0	
11	0	0	0	0	516	255	0	0	0	0	
12	0	0	0	0	511	249	0	0	0	0	
13	0	0	0	0	508	245	0	0	0	0	
14	0	0	0	0	506	242	0	0	0	0	
15	0	0	0	0	506	240	0	0	0	0	
0	0	0	0	0	507	239	0	0	0	0	
1	0	0	0	0	510	241	0	0	0	0	
2	0	0	0	0	514	243	0	0	0	0	
3	0	0	0	0	519	247	0	0	0	0	
4	0	0	0	0	525	253	0	0	0	0	
5	0	0	0	0	531	259	0	0	0	0	
6	0	0	0	0	537	267	0	0	0	0	
7	0	0	0	0	543	273	0	0	0	0	
8	0	0	0	0	549	281	0	0	0	0	
9	0	0	0	0	553	287	0	0	0	0	
10	0	0	0	0	557	292	0	0	0	0	
11	0	0	0	0	558	295	0	0	0	0	
12	0	0	0	0	557	295	0	0	0	0	
13	0	0	0	0	554	294	0	0	0	0	
14	0	0	0	0	548	288	0	0	0	0	
15	0	0	0	0	540	282	0	0	0	0	
0	0	0	0	0	532	273	0	0	0	0	
1	0	0	0	0	522	264	0	0	0	0	
2	0	0	0	0	514	256	0	0	0	0	
3	0	0	0	0	507	248	0	0	0	0	
4	0	0	0	0	502	241	0	0	0	0	
5	0	0	0	0	499	238	0	0	0	0	
6	0	0	0	0	498	235	0	0	0	0	
7	0	0	0	0	499	235	0	0	0	0	
8	0	0	0	0	501	236	0	0	0	0	
9	0	0	0	0	505	238	0	0	0	0	
10	0	0	0	0	508	241	0	0	0	0	
11	0	0	0	0	512	244	0	0	0	0	
12	0	0	0	0	516	247	0	0	0	0	
13	0	0	0	0	518	250	0	0	0	0	
14	0	0	0	0	520	252	0	0	0	0	
15	0	0	0	0	520	253	0	0	0	0	
0	0	0	0	0	519	253	0	0	0	0	
1	0	0	0	0	518	252	0	0	0	0	
2	0	0	0	0	516	252	0	0	0	0	
3	0	0	0	0	515	251	0	0	0	0	
4	0	0	0	0	514	251	0	0	0	0	
5	0	0	0	0	515	252	0	0	0	0	
6	0	0	0	0	516	254	0	0	0	0	
7	0	0	0	0	519	257	0	0	0	0	
8	0	0	0	0	523	262	0	0	0	0	
9	0	0	0	0	528	267	0	0	0	0	
10	0	0	0	0	534	274	0	0	0	0	
11	0	0	0	0	541	281	0	0	0	0	
12	0	0	0	0	548	289	0	0	0	0	
13	0	0	0	0	556	297	0	0	0	0	
14	0	0	0	0	564	305	0	0	0	0	
15	0	0	0	0	572	313	0	0	0	0	
0	0	0	0	0	579	320	0	0	0	0	
1	0	0	0	0	584	327	0	0	0	0	
2	0	0	0	0	589	331	0	0	0	0	
3	0	0	0	0	591	334	0	0	0	0	
4	0	0	0	0	593	336	0	0	0	0	
5	0	0	0	0	592	335	0	0	0	0	
6	0	0	0	0	588	333	0	0	0	0	
7	0	0	0	0	583	328	0	0	0	0	
8	0	0	0	0	575	323	0	0	0	0	
9	0	0	0	0	567	315	0	0	0	0	
10	0	0	0	0	557	306	0	0	0	0	
11	0	0	0	0	545	296	0	0	0	0	
12	0	0	0	0	534	285	0	0	0	0	
13	0	0	0	0	521	274	0	0	0	0	
14	0	0	0	0	510	263	0	0	0	0	
15	0	0	0	0	500	254	0	0	0	0	
0	0	0	0	0	491	245	0	0	0	0	
1	0	0	0	0	484	239	0	0	0	0	
2	0	0	0	0	480	235	0	0	0	0	
3	0	0	0	0	479	233	0	0	0	0	
4	0	0	0	0	481	236	0	0	0	0	
5	0	0	0	0	487	240	0	0	0	0	
6	0	0	0	0	495	248	0	0	0	0	
7	0	0	0	0	505	257	0	0	0	0	
8	0	0	0	0	518	268	0	0	0	0	
9	0	0	0	0	532	280	0	0	0	0	
10	0	0	0	0	547	292	0	0	0	0	
11	0	0	0	0	562	304	0	0	0	0	
12	0	0	0	0	576	315	0	0	0	0	
13	0	0	0	0	588	325	0	0	0	0	
14	0	0	0	0	598	333	0	0	0	0	
15	0	0	0	0	604	338	0	0	0	0	
0	0	0	0	0	606	341	0	0	0	0	
1	0	0	0	0	604	340	0	0	0	0	
2	0	0	0	0	599	337	0	0	0	0	
3	0	0	0	0	589	330	0	0	0	0	
4	0	0	0	0	576	321	0	0	0	0	
5	0	0	0	0	561	310	0	0	0	0	
6	0	0	0	0	543	297	0	0	0	0	
7	0	0	0	0	527	284	0	0	0	0	
8	0	0	0	0	511	273	0	0	0	0	
9	0	0	0	0	497	262	0	0	0	0	
10	0	0	0	0	485	253	0	0	0	0	
11	0	0	0	0	476	246	0	0	0	0	
12	0	0	0	0	471	241	0	0	0	0	
13	0	0	0	0	470	239	0	0	0	0	
14	0	0	0	0	471	239	0	0	0	0	
15	0	0	0	0	475	241	0	0	0	0	
0	0	0	0	0	482	245	0	0	0	0	
1	0	0	0	0	492	251	0	0	0	0	
2	0	0	0	0	502	258	0	0	0	0	
3	0	0	0	0	513	265	0	0	0	0	
4	0	0	0	0	524	273	0	0	0	0	
5	0	0	0	0	533	280	0	0	0	0	
6	0	0	0	0	542	287	0	0	0	0	
7	0	0	0	0	549	294	0	0	0	0	
8	0	0	0	0	554	300	0	0	0	0	
9	0	0	0	0	557	304	0	0	0	0	
10	0	0	0	0	558	307	0	0	0	0	
11	0	0	0	0	556	309	0	0	0	0	
12	0	0	0	0	552	308	0	0	0	0	
13	0	0	0	0	546	305	0	0	0	0	
14	0	0	0	0	537	300	0	0	0	0	
15	0	0	0	0	528	293	0	0	0	0	
0	0	0	0	0	519	285	0	0	0	0	
1	0	0	0	0	510	277	0	0	0	0	
2	0	0	0	0	501	268	0	0	0	0	
3	0	0	0	0	494	259	0	0	0	0	
4	0	0	0	0	487	252	0	0	0	0	
5	0	0	0	0	484	246	0	0	0	0	
6	0	0	0	0	482	243	0	0	0	0	
7	0	0	0	0	483	241	0	0	0	0	
8	0	0	0	0	484	241	0	0	0	0	
9	0	0	0	0	488	245	0	0	0	0	
10	0	0	0	0	495	249	0	0	0	0	
11	0	0	0	0	502	256	0	0	0	0	
12	0	0	0	0	510	264	0	0	0	0	
13	0	0	0	0	518	273	0	0	0	0	
14	0	0	0	0	526	282	0	0	0	0	
15	0	0	0	0	534	290	0	0	0	0	
0	0	0	0	0	540	298	0	0	0	0	
1	0	0	0	0	545	303	0	0	0	0	
2	0	0	0	0	547	307	0	0	0	0	
3	0	0	0	0	547	307	0	0	0	0	
4	0	0	0	0	545	307	0	0	0	0	
5	0	0	0	0	542	304	0	0	0	0	
6	0	0	0	0	538	300	0	0	0	0	
7	0	0	0	0	532	296	0	0	0	0	
8	0	0	0	0	528	293	0	0	0	0	
9	0	0	0	0	525	290	0	0	0	0	
10	0	0	0	0	523	289	0	0	0	0	
11	0	0	0	0	524	290	0	0	0	0	
12	0	0	0	0	528	294	0	0	0	0	
13	0	0	0	0	536	302	0	0	0	0	
14	0	0	0	0	546	311	0	0	0	0	
15	0	0	0	0	558	321	0	0	0	0	
0	0	0	0	0	569	332	0	0	0	0	
1	0	0	0	0	577	339	0	0	0	0	
2	0	0	0	0	582	344	0	0	0	0	
3	0	0	0	0	583	345	0	0	0	0	
4	0	0	0	0	577	340	0	0	0	0	
5	0	0	0	0	567	332	0	0	0	0	
6	0	0	0	0	552	320	0	0	0	0	
7	0	0	0	0	536	306	0	0	0	0	
8	0	0	0	0	519	292	0	0	0	0	
9	0	0	0	0	503	278	0	0	0	0	
10	0	0	0	0	489	267	0	0	0	0	
11	0	0	0	0	479	258	0	0	0	0	
12	0	0	0	0	473	252	0	0	0	0	
13	0	0	0	0	471	250	0	0	0	0	
14	0	0	0	0	472	251	0	0	0	0	
15	0	0	0	0	476	253	0	0	0	0	
0	0	0	0	0	481	257	0	0	0	0	
1	0	0	0	0	487	263	0	0	0	0	
2	0	0	0	0	495	268	0	0	0	0	
3	0	0	0	0	502	273	0	0	0	0	
4	0	0	0	0	508	278	0	0	0	0	
5	0	0	0	0	512	281	0	0	0	0	
6	0	0	0	0	515	283	0	0	0	0	
7	0	0	0	0	516	283	0	0	0	0	
8	0	0	0	0	515	283	0	0	0	0	
9	0	0	0	0	513	280	0	0	0	0	
10	0	0	0	0	511	278	0	0	0	0	
11	0	0	0	0	507	275	0	0	0	0	
12	0	0	0	0	504	272	0	0	0	0	
13	0	0	0	0	501	270	0	0	0	0	
14	0	0	0	0	499	269	0	0	0	0	
15	0	0	0	0	500	270	0	0	0	0	
0	0	0	0	0	502	271	0	0	0	0	
1	0	0	0	0	506	275	0	0	0	0	
2	0	0	0	0	512	280	0	0	0	0	
3	0	0	0	0	519	287	0	0	0	0	
4	0	0	0	0	528	295	0	0	0	0	
5	0	0	0	0	537	303	0	0	0	0	
6	0	0	0	0	548	313	0	0	0	0	
7	0	0	0	0	558	323	0	0	0	0	
8	0	0	0	0	567	332	0	0	0	0	
9	0	0	0	0	575	341	0	0	0	0	
10	0	0	0	0	582	347	0	0	0	0	
11	0	0	0	0	585	351	0	0	0	0	
12	0	0	0	0	585	352	0	0	0	0	
13	0	0	0	0	582	349	0	0	0	0	
14	0	0	0	0	575	343	0	0	0	0	
15	0	0	0	0	565	335	0	0	0	0	
0	0	0	0	0	553	324	0	0	0	0	
1	0	0	0	0	539	311	0	0	0	0	
2	0	0	0	0	523	297	0	0	0	0	
3	0	0	0	0	508	283	0	0	0	0	
4	0	0	0	0	493	270	0	0	0	0	
5	0	0	0	0	480	258	0	0	0	0	
6	0	0	0	0	470	249	0	0	0	0	
7	0	0	0	0	464	243	0	0	0	0	
8	0	0	0	0	463	242	0	0	0	0	
9	0	0	0	0	465	244	0	0	0	0	
10	0	0	0	0	472	249	0	0	0	0	
11	0	0	0	0	483	259	0	0	0	0	
12	0	0	0	0	496	270	0	0	0	0	
13	0	0	0	0	510	283	0	0	0	0	
14	0	0	0	0	525	295	0	0	0	0	
15	0	0	0	0	539	308	0	0	0	0	
0	0	0	0	0	550	318	0	0	0	0	
1	0	0	0	0	558	326	0	0	0	0	
2	0	0	0	0	562	330	0	0	0	0	
3	0	0	0	0	561	330	0	0	0	0	
4	0	0	0	0	558	327	0	0	0	0	
5	0	0	0	0	551	322	0	0	0	0	
6	0	0	0	0	542	314	0	0	0	0	
7	0	0	0	0	531	306	0	0	0	0	
8	0	0	0	0	521	298	0	0	0	0	
9	0	0	0	0	513	290	0	0	0	0	
10	0	0	0	0	506	284	0	0	0	0	
11	0	0	0	0	502	279	0	0	0	0	
12	0	0	0	0	499	276	0	0	0	0	
13	0	0	0	0	499	275	0	0	0	0	
14	0	0	0	0	501	276	0	0	0	0	
15	0	0	0	0	504	279	0	0	0	0	
0	0	0	0	0	509	282	0	0	0	0	
1	0	0	0	0	515	286	0	0	0	0	
2	0	0	0	0	521	290	0	0	0	0	
3	0	0	0	0	527	295	0	0	0	0	
4	0	0	0	0	532	300	0	0	0	0	
5	0	0	0	0	536	304	0	0	0	0	
6	0	0	0	0	539	307	0	0	0	0	
7	0	0	0	0	541	310	0	0	0	0	
8	0	0	0	0	542	311	0	0	0	0	
9	0	0	0	0	542	312	0	0	0	0	
10	0	0	0	0	540	311	0	0	0	0	
11	0	0	0	0	537	309	0	0	0	0	
12	0	0	0	0	533	306	0	0	0	0	
13	0	0	0	0	528	303	0	0	0	0	
14	0	0	0	0	523	299	0	0	0	0	
15	0	0	0	0	519	296	0	0	0	0	
0	0	0	0	0	515	293	0	0	0	0	
1	0	0	0	0	512	291	0	0	0	0	
2	0	0	0	0	511	290	0	0	0	0	
3	0	0	0	0	511	289	0	0	0	0	
4	0	0	0	0	511	289	0	0	0	0	
5	0	0	0	0	512	289	0	0	0	0	
6	0	0	0	0	513	290	0	0	0	0	
7	0	0	0	0	515	291	0	0	0	0	
8	0	0	0	0	516	291	0	0	0	0	
9	0	0	0	0	517	291	0	0	0	0	
10	0	0	0	0	517	290	0	0	0	0	
11	0	0	0	0	516	288	0	0	0	0	
12	0	0	0	0	513	287	0	0	0	0	
13	0	0	0	0	511	285	0	0	0	0	
14	0	0	0	0	509	282	0	0	0	0	
15	0	0	0	0	507	281	0	0	0	0	
0	0	0	0	0	504	279	0	0	0	0	
1	0	0	0	0	503	278	0	0	0	0	
2	0	0	0	0	502	278	0	0	0	0	
3	0	0	0	0	502	279	0	0	0	0	
4	0	0	0	0	502	280	0	0	0	0	
5	0	0	0	0	503	282	0	0	0	0	
6	0	0	0	0	505	285	0	0	0	0	
7	0	0	0	0	509	290	0	0	0	0	
8	0	0	0	0	513	296	0	0	0	0	
9	0	0	0	0	520	304	0	0	0	0	
10	0	0	0	0	528	313	0	0	0	0	
11	0	0	0	0	538	323	0	0	0	0	
12	0	0	0	0	548	334	0	0	0	0	
13	0	0	0	0	559	344	0	0	0	0	
14	0	0	0	0	568	353	0	0	0	0	
15	0	0	0	0	577	360	0	0	0	0	
0	0	0	0	0	583	365	0	0	0	0	
1	0	0	0	0	585	366	0	0	0	0	
2	0	0	0	0	584	363	0	0	0	0	
3	0	0	0	0	579	356	0	0	0	0	
4	0	0	0	0	569	345	0	0	0	0	
5	0	0	0	0	556	333	0	0	0	0	
6	0	0	0	0	542	319	0	0	0	0	
7	0	0	0	0	527	305	0	0	0	0	
8	0	0	0	0	513	292	0	0	0	0	
9	0	0	0	0	502	283	0	0	0	0	
10	0	0	0	0	493	274	0	0	0	0	
11	0	0	0	0	486	269	0	0	0	0	
12	0	0	0	0	483	267	0	0	0	0	
13	0	0	0	0	481	266	0	0	0	0	
14	0	0	0	0	482	268	0	0	0	0	
15	0	0	0	0	485	271	0	0	0	0	
0	0	0	0	0	488	275	0	0	0	0	
1	0	0	0	0	492	278	0	0	0	0	
2	0	0	0	0	494	280	0	0	0	0	
3	0	0	0	0	495	281	0	0	0	0	
4	0	0	0	0	494	280	0	0	0	0	
5	0	0	0	0	492	278	0	0	0	0	
6	0	0	0	0	488	274	0	0	0	0	
7	0	0	0	0	483	269	0	0	0	0	
8	0	0	0	0	476	263	0	0	0	0	
9	0	0	0	0	471	257	0	0	0	0	
10	0	0	0	0	465	252	0	0	0	0	
11	0	0	0	0	462	249	0	0	0	0	
12	0	0	0	0	460	248	0	0	0	0	
13	0	0	0	0	461	248	0	0	0	0	
14	0	0	0	0	464	252	0	0	0	0	
15	0	0	0	0	470	257	0	0	0	0	
0	0	0	0	0	478	263	0	0	0	0	
1	0	0	0	0	487	271	0	0	0	0	
2	0	0	0	0	497	280	0	0	0	0	
3	0	0	0	0	509	290	0	0	0	0	
4	0	0	0	0	520	300	0	0	0	0	
5	0	0	0	0	531	310	0	0	0	0	
6	0	0	0	0	540	318	0	0	0	0	
7	0	0	0	0	548	326	0	0	0	0	
8	0	0	0	0	554	332	0	0	0	0	
9	0	0	0	0	558	337	0	0	0	0	
10	0	0	0	0	560	340	0	0	0	0	
11	0	0	0	0	561	341	0	0	0	0	
12	0	0	0	0	560	342	0	0	0	0	
13	0	0	0	0	558	341	0	0	0	0	
14	0	0	0	0	556	340	0	0	0	0	
15	0	0	0	0	553	339	0	0	0	0	
0	0	0	0	0	551	339	0	0	0	0	
1	0	0	0	0	548	338	0	0	0	0	
2	0	0	0	0	547	338	0	0	0	0	
3	0	0	0	0	546	338	0	0	0	0	
4	0	0	0	0	545	339	0	0	0	0	
5	0	0	0	0	545	340	0	0	0	0	
6	0	0	0	0	544	342	0	0	0	0	
7	0	0	0	0	544	343	0	0	0	0	
8	0	0	0	0	544	344	0	0	0	0	
9	0	0	0	0	543	344	0	0	0	0	
10	0	0	0	0	542	344	0	0	0	0	
11	0	0	0	0	540	344	0	0	0	0	
12	0	0	0	0	538	342	0	0	0	0	
13	0	0	0	0	535	340	0	0	0	0	
14	0	0	0	0	533	337	0	0	0	0	
15	0	0	0	0	530	334	0	0	0	0	
0	0	0	0	0	528	330	0	0	0	0	
1	0	0	0	0	526	327	0	0	0	0	
2	0	0	0	0	525	323	0	0	0	0	
3	0	0	0	0	525	322	0	0	0	0	
4	0	0	0	0	526	321	0	0	0	0	
5	0	0	0	0	528	322	0	0	0	0	
6	0	0	0	0	532	324	0	0	0	0	
7	0	0	0	0	537	328	0	0	0	0	
8	0	0	0	0	543	332	0	0	0	0	
9	0	0	0	0	548	337	0	0	0	0	
10	0	0	0	0	552	341	0	0	0	0	
11	0	0	0	0	555	343	0	0	0	0	
12	0	0	0	0	555	344	0	0	0	0	
13	0	0	0	0	553	343	0	0	0	0	
14	0	0	0	0	548	340	0	0	0	0	
15	0	0	0	0	542	335	0	0	0	0	
0	0	0	0	0	534	328	0	0	0	0	
1	0	0	0	0	526	322	0	0	0	0	
2	0	0	0	0	518	315	0	0	0	0	
3	0	0	0	0	511	310	0	0	0	0	
4	0	0	0	0	505	305	0	0	0	0	
5	0	0	0	0	501	302	0	0	0	0	
6	0	0	0	0	499	302	0	0	0	0	
7	0	0	0	0	500	303	0	0	0	0	
8	0	0	0	0	504	307	0	0	0	0	
9	0	0	0	0	510	312	0	0	0	0	
10	0	0	0	0	517	320	0	0	0	0	
11	0	0	0	0	526	328	0	0	0	0	
12	0	0	0	0	535	337	0	0	0	0	
13	0	0	0	0	543	345	0	0	0	0	
14	0	0	0	0	549	351	0	0	0	0	
15	0	0	0	0	553	356	0	0	0	0	
0	0	0	0	0	555	359	0	0	0	0	
1	0	0	0	0	554	358	0	0	0	0	
2	0	0	0	0	550	355	0	0	0	0	
3	0	0	0	0	543	350	0	0	0	0	
4	0	0	0	0	535	343	0	0	0	0	
5	0	0	0	0	525	334	0	0	0	0	
6	0	0	0	0	514	323	0	0	0	0	
7	0	0	0	0	503	312	0	0	0	0	
8	0	0	0	0	492	302	0	0	0	0	
9	0	0	0	0	481	290	0	0	0	0	
10	0	0	0	0	471	280	0	0	0	0	
11	0	0	0	0	462	269	0	0	0	0	
12	0	0	0	0	452	259	0	0	0	0	
13	0	0	0	0	444	249	0	0	0	0	
14	0	0	0	0	436	241	0	0	0	0	
15	0	0	0	0	430	233	0	0	0	0	
0	0	0	0	0	423	227	0	0	0	0	
1	0	0	0	0	417	220	0	0	0	0	
2	0	0	0	0	411	214	0	0	0	0	
3	0	0	0	0	403	207	0	0	0	0	
4	0	0	0	0	394	199	0	0	0	0	
5	0	0	0	0	383	190	0	0	0	0	
6	0	0	0	0	369	177	0	0	0	0	
7	0	0	0	0	353	163	0	0	0	0	
8	0	0	0	0	335	148	0	0	0	0	
9	0	0	0	0	316	131	0	0	0	0	
10	0	0	0	0	297	113	0	0	0	0	
11	0	0	0	0	279	97	0	0	0	0	
12	0	0	0	0	263	81	0	0	0	0	
13	0	0	0	0	249	67	0	0	0	0	
14	0	0	0	0	239	57	0	0	0	0	
15	0	0	0	0	234	51	0	0	0	0	
0	0	0	0	0	235	49	0	0	0	0	
1	0	0	0	0	241	53	0	0	0	0	
2	0	0	0	0	254	61	0	0	0	0	
3	0	0	0	0	272	76	0	0	0	0	
4	0	0	0	0	294	94	0	0	0	0	
5	0	0	0	0	320	115	0	0	0	0	
6	0	0	0	0	348	140	0	0	0	0	
7	0	0	0	0	377	167	0	0	0	0	
8	0	0	0	0	408	194	0	0	0	0	
9	0	0	0	0	437	222	0	0	0	0	
10	0	0	0	0	466	248	0	0	0	0	
11	0	0	0	0	492	275	0	0	0	0	
12	0	0	0	0	517	300	0	0	0	0	
13	0	0	0	0	539	323	0	0	0	0	
14	0	0	0	0	559	344	0	0	0	0	
15	0	0	0	0	574	362	0	0	0	0	
0	0	0	0	0	586	376	0	0	0	0	
1	0	0	0	0	593	386	0	0	0	0	
2	0	0	0	0	595	391	0	0	0	0	
3	0	0	0	0	595	394	0	0	0	0	
4	0	0	0	0	591	393	0	0	0	0	
5	0	0	0	0	583	390	0	0	0	0	
6	0	0	0	0	575	385	0	0	0	0	
7	0	0	0	0	566	378	0	0	0	0	
8	0	0	0	0	557	372	0	0	0	0	
9	0	0	0	0	549	366	0	0	0	0	
10	0	0	0	0	542	361	0	0	0	0	
11	0	0	0	0	536	357	0	0	0	0	
12	0	0	0	0	532	353	0	0	0	0	
13	0	0	0	0	528	350	0	0	0	0	
14	0	0	0	0	526	347	0	0	0	0	
15	0	0	0	0	523	344	0	0	0	0	
0	0	0	0	0	521	341	0	0	0	0	
1	0	0	0	0	520	337	0	0	0	0	
2	0	0	0	0	518	333	0	0	0	0	
3	0	0	0	0	516	328	0	0	0	0	
4	0	0	0	0	514	324	0	0	0	0	
5	0	0	0	0	512	320	0	0	0	0	
6	0	0	0	0	510	317	0	0	0	0	
7	0	0	0	0	508	314	0	0	0	0	
8	0	0	0	0	506	311	0	0	0	0	
9	0	0	0	0	503	310	0	0	0	0	
10	0	0	0	0	501	308	0	0	0	0	
11	0	0	0	0	498	307	0	0	0	0	
12	0	0	0	0	495	307	0	0	0	0	
13	0	0	0	0	492	306	0	0	0	0	
14	0	0	0	0	488	307	0	0	0	0	
15	0	0	0	0	485	307	0	0	0	0	
0	0	0	0	0	482	307	0	0	0	0	
1	0	0	0	0	479	305	0	0	0	0	
2	0	0	0	0	475	304	0	0	0	0	
3	0	0	0	0	472	302	0	0	0	0	
4	0	0	0	0	468	298	0	0	0	0	
5	0	0	0	0	466	295	0	0	0	0	
6	0	0	0	0	465	292	0	0	0	0	
7	0	0	0	0	465	290	0	0	0	0	
8	0	0	0	0	467	289	0	0	0	0	
9	0	0	0	0	471	289	0	0	0	0	
10	0	0	0	0	476	291	0	0	0	0	
11	0	0	0	0	482	294	0	0	0	0	
12	0	0	0	0	490	299	0	0	0	0	
13	0	0	0	0	499	307	0	0	0	0	
14	0	0	0	0	510	316	0	0	0	0	
15	0	0	0	0	522	327	0	0	0	0	
0	0	0	0	0	533	339	0	0	0	0	
1	0	0	0	0	543	350	0	0	0	0	
2	0	0	0	0	553	360	0	0	0	0	
3	0	0	0	0	560	369	0	0	0	0	
4	0	0	0	0	566	377	0	0	0	0	
5	0	0	0	0	569	382	0	0	0	0	
6	0	0	0	0	570	386	0	0	0	0	
7	0	0	0	0	570	388	0	0	0	0	
8	0	0	0	0	569	389	0	0	0	0	
9	0	0	0	0	568	389	0	0	0	0	
10	0	0	0	0	565	388	0	0	0	0	
11	0	0	0	0	563	386	0	0	0	0	
12	0	0	0	0	561	384	0	0	0	0	
13	0	0	0	0	559	383	0	0	0	0	
14	0	0	0	0	559	382	0	0	0	0	
15	0	0	0	0	559	381	0	0	0	0	
0	0	0	0	0	559	380	0	0	0	0	
1	0	0	0	0	559	380	0	0	0	0	
2	0	0	0	0	560	379	0	0	0	0	
3	0	0	0	0	560	379	0	0	0	0	
4	0	0	0	0	560	379	0	0	0	0	
5	0	0	0	0	561	380	0	0	0	0	
6	0	0	0	0	561	380	0	0	0	0	
7	0	0	0	0	560	381	0	0	0	0	
8	0	0	0	0	560	381	0	0	0	0	
9	0	0	0	0	559	382	0	0	0	0	
10	0	0	0	0	558	383	0	0	0	0	
11	0	0	0	0	556	382	0	0	0	0	
12	0	0	0	0	554	382	0	0	0	0	
13	0	0	0	0	552	382	0	0	0	0	
14	0	0	0	0	551	381	0	0	0	0	
15	0	0	0	0	550	380	0	0	0	0	
0	0	0	0	0	547	379	0	0	0	0	
1	0	0	0	0	545	377	0	0	0	0	
2	0	0	0	0	542	374	0	0	0	0	
3	0	0	0	0	536	368	0	0	0	0	
4	0	0	0	0	529	362	0	0	0	0	
5	0	0	0	0	521	355	0	0	0	0	
6	0	0	0	0	512	347	0	0	0	0	
7	0	0	0	0	503	339	0	0	0	0	
8	0	0	0	0	493	330	0	0	0	0	
9	0	0	0	0	483	322	0	0	0	0	
10	0	0	0	0	474	316	0	0	0	0	
11	0	0	0	0	468	310	0	0	0	0	
12	0	0	0	0	462	305	0	0	0	0	
13	0	0	0	0	459	303	0	0	0	0	
14	0	0	0	0	459	303	0	0	0	0	
15	0	0	0	0	461	304	0	0	0	0	
0	0	0	0	0	466	307	0	0	0	0	
1	0	0	0	0	473	313	0	0	0	0	
2	0	0	0	0	483	319	0	0	0	0	
3	0	0	0	0	494	326	0	0	0	0	
4	0	0	0	0	505	334	0	0	0	0	
5	0	0	0	0	516	342	0	0	0	0	
6	0	0	0	0	527	350	0	0	0	0	
7	0	0	0	0	537	356	0	0	0	0	
8	0	0	0	0	545	363	0	0	0	0	
9	0	0	0	0	550	368	0	0	0	0	
10	0	0	0	0	554	371	0	0	0	0	
11	0	0	0	0	554	371	0	0	0	0	
12	0	0	0	0	551	371	0	0	0	0	
13	0	0	0	0	547	369	0	0	0	0	
14	0	0	0	0	540	366	0	0	0	0	
15	0	0	0	0	532	362	0	0	0	0	
0	0	0	0	0	524	357	0	0	0	0	
1	0	0	0	0	517	353	0	0	0	0	
2	0	0	0	0	510	349	0	0	0	0	
3	0	0	0	0	505	345	0	0	0	0	
4	0	0	0	0	503	343	0	0	0	0	
5	0	0	0	0	501	341	0	0	0	0	
6	0	0	0	0	502	341	0	0	0	0	
7	0	0	0	0	504	341	0	0	0	0	
8	0	0	0	0	507	344	0	0	0	0	
9	0	0	0	0	511	345	0	0	0	0	
10	0	0	0	0	516	349	0	0	0	0	
11	0	0	0	0	521	353	0	0	0	0	
12	0	0	0	0	526	356	0	0	0	0	
13	0	0	0	0	530	361	0	0	0	0	
14	0	0	0	0	535	364	0	0	0	0	
15	0	0	0	0	537	368	0	0	0	0	
0	0	0	0	0	540	371	0	0	0	0	
1	0	0	0	0	540	374	0	0	0	0	
2	0	0	0	0	540	375	0	0	0	0	
3	0	0	0	0	540	375	0	0	0	0	
4	0	0	0	0	538	374	0	0	0	0	
5	0	0	0	0	536	372	0	0	0	0	
6	0	0	0	0	532	368	0	0	0	0	
7	0	0	0	0	529	364	0	0	0	0	
8	0	0	0	0	525	360	0	0	0	0	
9	0	0	0	0	521	355	0	0	0	0	
10	0	0	0	0	519	352	0	0	0	0	
11	0	0	0	0	516	349	0	0	0	0	
12	0	0	0	0	514	347	0	0	0	0	
13	0	0	0	0	514	345	0	0	0	0	
14	0	0	0	0	515	346	0	0	0	0	
15	0	0	0	0	516	347	0	0	0	0	
0	0	0	0	0	519	350	0	0	0	0	
1	0	0	0	0	523	354	0	0	0	0	
2	0	0	0	0	527	359	0	0	0	0	
3	0	0	0	0	531	363	0	0	0	0	
4	0	0	0	0	535	368	0	0	0	0	
5	0	0	0	0	539	372	0	0	0	0	
6	0	0	0	0	542	377	0	0	0	0	
7	0	0	0	0	544	380	0	0	0	0	
8	0	0	0	0	547	383	0	0	0	0	
9	0	0	0	0	547	384	0	0	0	0	
10	0	0	0	0	547	384	0	0	0	0	
11	0	0	0	0	546	383	0	0	0	0	
12	0	0	0	0	544	380	0	0	0	0	
13	0	0	0	0	541	377	0	0	0	0	
14	0	0	0	0	537	374	0	0	0	0	
15	0	0	0	0	533	369	0	0	0	0	
0	0	0	0	0	528	365	0	0	0	0	
1	0	0	0	0	524	362	0	0	0	0	
2	0	0	0	0	520	359	0	0	0	0	
3	0	0	0	0	516	357	0	0	0	0	
4	0	0	0	0	513	355	0	0	0	0	
5	0	0	0	0	509	353	0	0	0	0	
6	0	0	0	0	507	352	0	0	0	0	
7	0	0	0	0	504	352	0	0	0	0	
8	0	0	0	0	501	351	0	0	0	0	
9	0	0	0	0	499	350	0	0	0	0	
10	0	0	0	0	498	349	0	0	0	0	
11	0	0	0	0	498	348	0	0	0	0	
12	0	0	0	0	499	347	0	0	0	0	
13	0	0	0	0	499	345	0	0	0	0	
14	0	0	0	0	500	342	0	0	0	0	
15	0	0	0	0	501	340	0	0	0	0	
0	0	0	0	0	502	338	0	0	0	0	
1	0	0	0	0	504	336	0	0	0	0	
2	0	0	0	0	504	335	0	0	0	0	
3	0	0	0	0	506	335	0	0	0	0	
4	0	0	0	0	508	336	0	0	0	0	
5	0	0	0	0	512	339	0	0	0	0	
6	0	0	0	0	515	343	0	0	0	0	
7	0	0	0	0	519	348	0	0	0	0	
8	0	0	0	0	524	353	0	0	0	0	
9	0	0	0	0	528	359	0	0	0	0	
10	0	0	0	0	533	367	0	0	0	0	
11	0	0	0	0	537	373	0	0	0	0	
12	0	0	0	0	540	378	0	0	0	0	
13	0	0	0	0	542	382	0	0	0	0	
14	0	0	0	0	542	384	0	0	0	0	
15	0	0	0	0	541	384	0	0	0	0	
0	0	0	0	0	539	383	0	0	0	0	
1	0	0	0	0	535	380	0	0	0	0	
2	0	0	0	0	532	377	0	0	0	0	
3	0	0	0	0	529	374	0	0	0	0	
4	0	0	0	0	527	371	0	0	0	0	
5	0	0	0	0	526	369	0	0	0	0	
6	0	0	0	0	525	369	0	0	0	0	
7	0	0	0	0	527	369	0	0	0	0	
8	0	0	0	0	529	371	0	0	0	0	
9	0	0	0	0	534	373	0	0	0	0	
10	0	0	0	0	537	375	0	0	0	0	
11	0	0	0	0	539	377	0	0	0	0	
12	0	0	0	0	540	377	0	0	0	0	
13	0	0	0	0	539	376	0	0	0	0	
14	0	0	0	0	536	373	0	0	0	0	
15	0	0	0	0	532	370	0	0	0	0	
0	0	0	0	0	527	366	0	0	0	0	
1	0	0	0	0	520	361	0	0	0	0	
2	0	0	0	0	513	356	0	0	0	0	
3	0	0	0	0	507	352	0	0	0	0	
4	0	0	0	0	502	348	0	0	0	0	
5	0	0	0	0	497	344	0	0	0	0	
6	0	0	0	0	493	341	0	0	0	0	
7	0	0	0	0	490	339	0	0	0	0	
8	0	0	0	0	488	338	0	0	0	0	
9	0	0	0	0	487	338	0	0	0	0	
10	0	0	0	0	488	338	0	0	0	0	
11	0	0	0	0	489	340	0	0	0	0	
12	0	0	0	0	491	342	0	0	0	0	
13	0	0	0	0	494	344	0	0	0	0	
14	0	0	0	0	498	347	0	0	0	0	
15	0	0	0	0	502	350	0	0	0	0	
0	0	0	0	0	507	353	0	0	0	0	
1	0	0	0	0	512	357	0	0	0	0	
2	0	0	0	0	518	361	0	0	0	0	
3	0	0	0	0	525	366	0	0	0	0	
4	0	0	0	0	531	371	0	0	0	0	
5	0	0	0	0	537	377	0	0	0	0	
6	0	0	0	0	544	383	0	0	0	0	
7	0	0	0	0	551	390	0	0	0	0	
8	0	0	0	0	559	398	0	0	0	0	
9	0	0	0	0	566	405	0	0	0	0	
10	0	0	0	0	572	412	0	0	0	0	
11	0	0	0	0	577	418	0	0	0	0	
12	0	0	0	0	580	422	0	0	0	0	
13	0	0	0	0	581	424	0	0	0	0	
14	0	0	0	0	580	423	0	0	0	0	
15	0	0	0	0	575	419	0	0	0	0	
0	0	0	0	0	568	413	0	0	0	0	
1	0	0	0	0	559	404	0	0	0	0	
2	0	0	0	0	547	393	0	0	0	0	
3	0	0	0	0	533	381	0	0	0	0	
4	0	0	0	0	518	367	0	0	0	0	
5	0	0	0	0	503	354	0	0	0	0	
6	0	0	0	0	489	341	0	0	0	0	
7	0	0	0	0	476	330	0	0	0	0	
8	0	0	0	0	466	321	0	0	0	0	
9	0	0	0	0	459	314	0	0	0	0	
10	0	0	0	0	455	311	0	0	0	0	
11	0	0	0	0	455	310	0	0	0	0	
12	0	0	0	0	458	313	0	0	0	0	
13	0	0	0	0	464	317	0	0	0	0	
14	0	0	0	0	472	323	0	0	0	0	
15	0	0	0	0	483	330	0	0	0	0	
0	0	0	0	0	494	339	0	0	0	0	
1	0	0	0	0	505	347	0	0	0	0	
2	0	0	0	0	517	356	0	0	0	0	
3	0	0	0	0	527	364	0	0	0	0	
4	0	0	0	0	536	371	0	0	0	0	
5	0	0	0	0	544	377	0	0	0	0	
6	0	0	0	0	551	382	0	0	0	0	
7	0	0	0	0	555	387	0	0	0	0	
8	0	0	0	0	558	390	0	0	0	0	
9	0	0	0	0	559	392	0	0	0	0	
10	0	0	0	0	558	393	0	0	0	0	
11	0	0	0	0	556	394	0	0	0	0	
12	0	0	0	0	552	393	0	0	0	0	
13	0	0	0	0	547	391	0	0	0	0	
14	0	0	0	0	539	386	0	0	0	0	
15	0	0	0	0	532	382	0	0	0	0	
0	0	0	0	0	523	375	0	0	0	0	
1	0	0	0	0	514	369	0	0	0	0	
2	0	0	0	0	506	362	0	0	0	0	
3	0	0	0	0	498	355	0	0	0	0	
4	0	0	0	0	492	348	0	0	0	0	
5	0	0	0	0	487	343	0	0	0	0	
6	0	0	0	0	483	339	0	0	0	0	
7	0	0	0	0	482	336	0	0	0	0	
8	0	0	0	0	482	335	0	0	0	0	
9	0	0	0	0	485	336	0	0	0	0	
10	0	0	0	0	489	338	0	0	0	0	
11	0	0	0	0	494	342	0	0	0	0	
12	0	0	0	0	499	346	0	0	0	0	
13	0	0	0	0	504	352	0	0	0	0	
14	0	0	0	0	510	358	0	0	0	0	
15	0	0	0	0	515	364	0	0	0	0	
0	0	0	0	0	519	369	0	0	0	0	
1	0	0	0	0	522	373	0	0	0	0	
2	0	0	0	0	524	377	0	0	0	0	
3	0	0	0	0	526	379	0	0	0	0	
4	0	0	0	0	526	380	0	0	0	0	
5	0	0	0	0	524	379	0	0	0	0	
6	0	0	0	0	523	377	0	0	0	0	
7	0	0	0	0	520	375	0	0	0	0	
8	0	0	0	0	518	372	0	0	0	0	
9	0	0	0	0	516	369	0	0	0	0	
10	0	0	0	0	515	367	0	0	0	0	
11	0	0	0	0	514	365	0	0	0	0	
12	0	0	0	0	513	364	0	0	0	0	
13	0	0	0	0	514	364	0	0	0	0	
14	0	0	0	0	515	365	0	0	0	0	
15	0	0	0	0	516	366	0	0	0	0	
0	0	0	0	0	518	368	0	0	0	0	
1	0	0	0	0	519	370	0	0	0	0	
2	0	0	0	0	520	372	0	0	0	0	
3	0	0	0	0	522	375	0	0	0	0	
4	0	0	0	0	524	377	0	0	0	0	
5	0	0	0	0	526	380	0	0	0	0	
6	0	0	0	0	527	383	0	0	0	0	
7	0	0	0	0	530	385	0	0	0	0	
8	0	0	0	0	532	387	0	0	0	0	
9	0	0	0	0	535	388	0	0	0	0	
10	0	0	0	0	536	388	0	0	0	0	
11	0	0	0	0	535	388	0	0	0	0	
12	0	0	0	0	534	386	0	0	0	0	
13	0	0	0	0	531	383	0	0	0	0	
14	0	0	0	0	526	379	0	0	0	0	
15	0	0	0	0	521	375	0	0	0	0	
0	0	0	0	0	516	371	0	0	0	0	
1	0	0	0	0	511	367	0	0	0	0	
2	0	0	0	0	508	364	0	0	0	0	
3	0	0	0	0	505	361	0	0	0	0	
4	0	0	0	0	504	361	0	0	0	0	
5	0	0	0	0	505	362	0	0	0	0	
6	0	0	0	0	508	364	0	0	0	0	
7	0	0	0	0	511	368	0	0	0	0	
8	0	0	0	0	515	372	0	0	0	0	
9	0	0	0	0	520	376	0	0	0	0	
10	0	0	0	0	525	380	0	0	0	0	
11	0	0	0	0	529	385	0	0	0	0	
12	0	0	0	0	534	389	0	0	0	0	
13	0	0	0	0	537	393	0	0	0	0	
14	0	0	0	0	541	398	0	0	0	0	
15	0	0	0	0	545	402	0	0	0	0	
0	0	0	0	0	550	407	0	0	0	0	
1	0	0	0	0	554	412	0	0	0	0	
2	0	0	0	0	560	418	0	0	0	0	
3	0	0	0	0	565	424	0	0	0	0	
4	0	0	0	0	571	430	0	0	0	0	
5	0	0	0	0	578	438	0	0	0	0	
6	0	0	0	0	585	444	0	0	0	0	
7	0	0	0	0	591	450	0	0	0	0	
8	0	0	0	0	595	454	0	0	0	0	
9	0	0	0	0	596	456	0	0	0	0	
10	0	0	0	0	594	455	0	0	0	0	
11	0	0	0	0	589	451	0	0	0	0	
12	0	0	0	0	580	444	0	0	0	0	
13	0	0	0	0	568	434	0	0	0	0	
14	0	0	0	0	554	423	0	0	0	0	
15	0	0	0	0	538	410	0	0	0	0	
0	0	0	0	0	522	396	0	0	0	0	
1	0	0	0	0	507	384	0	0	0	0	
2	0	0	0	0	493	371	0	0	0	0	
3	0	0	0	0	481	360	0	0	0	0	
4	0	0	0	0	472	351	0	0	0	0	
5	0	0	0	0	467	346	0	0	0	0	
6	0	0	0	0	465	343	0	0	0	0	
7	0	0	0	0	467	343	0	0	0	0	
8	0	0	0	0	472	346	0	0	0	0	
9	0	0	0	0	479	351	0	0	0	0	
10	0	0	0	0	488	358	0	0	0	0	
11	0	0	0	0	497	364	0	0	0	0	
12	0	0	0	0	507	371	0	0	0	0	
13	0	0	0	0	515	377	0	0	0	0	
14	0	0	0	0	521	383	0	0	0	0	
15	0	0	0	0	525	386	0	0	0	0	
0	0	0	0	0	527	388	0	0	0	0	
1	0	0	0	0	527	388	0	0	0	0	
2	0	0	0	0	525	387	0	0	0	0	
3	0	0	0	0	521	385	0	0	0	0	
4	0	0	0	0	516	382	0	0	0	0	
5	0	0	0	0	511	379	0	0	0	0	
6	0	0	0	0	505	375	0	0	0	0	
7	0	0	0	0	500	372	0	0	0	0	
8	0	0	0	0	496	369	0	0	0	0	
9	0	0	0	0	494	368	0	0	0	0	
10	0	0	0	0	493	367	0	0	0	0	
11	0	0	0	0	493	368	0	0	0	0	
12	0	0	0	0	495	370	0	0	0	0	
13	0	0	0	0	499	373	0	0	0	0	
14	0	0	0	0	504	377	0	0	0	0	
15	0	0	0	0	510	383	0	0	0	0	
0	0	0	0	0	517	388	0	0	0	0	
1	0	0	0	0	524	396	0	0	0	0	
2	0	0	0	0	532	402	0	0	0	0	
3	0	0	0	0	540	409	0	0	0	0	
4	0	0	0	0	545	415	0	0	0	0	
5	0	0	0	0	551	419	0	0	0	0	
6	0	0	0	0	554	423	0	0	0	0	
7	0	0	0	0	556	426	0	0	0	0	
8	0	0	0	0	556	428	0	0	0	0	
9	0	0	0	0	555	427	0	0	0	0	
10	0	0	0	0	551	425	0	0	0	0	
11	0	0	0	0	547	422	0	0	0	0	
12	0	0	0	0	542	419	0	0	0	0	
13	0	0	0	0	536	415	0	0	0	0	
14	0	0	0	0	529	410	0	0	0	0	
15	0	0	0	0	523	406	0	0	0	0	
0	0	0	0	0	518	402	0	0	0	0	
1	0	0	0	0	513	398	0	0	0	0	
2	0	0	0	0	510	396	0	0	0	0	
3	0	0	0	0	508	393	0	0	0	0	
4	0	0	0	0	508	393	0	0	0	0	
5	0	0	0	0	508	392	0	0	0	0	
6	0	0	0	0	511	393	0	0	0	0	
7	0	0	0	0	514	394	0	0	0	0	
8	0	0	0	0	517	395	0	0	0	0	
9	0	0	0	0	520	396	0	0	0	0	
10	0	0	0	0	522	397	0	0	0	0	
11	0	0	0	0	523	397	0	0	0	0	
12	0	0	0	0	523	396	0	0	0	0	
13	0	0	0	0	521	395	0	0	0	0	
14	0	0	0	0	519	392	0	0	0	0	
15	0	0	0	0	514	390	0	0	0	0	
0	0	0	0	0	510	387	0	0	0	0	
1	0	0	0	0	506	384	0	0	0	0	
2	0	0	0	0	502	381	0	0	0	0	
3	0	0	0	0	499	379	0	0	0	0	
4	0	0	0	0	498	379	0	0	0	0	
5	0	0	0	0	498	381	0	0	0	0	
6	0	0	0	0	500	384	0	0	0	0	
7	0	0	0	0	504	389	0	0	0	0	
8	0	0	0	0	511	395	0	0	0	0	
9	0	0	0	0	518	402	0	0	0	0	
10	0	0	0	0	525	409	0	0	0	0	
11	0	0	0	0	534	416	0	0	0	0	
12	0	0	0	0	541	423	0	0	0	0	
13	0	0	0	0	547	428	0	0	0	0	
14	0	0	0	0	551	430	0	0	0	0	
15	0	0	0	0	554	432	0	0	0	0	
0	0	0	0	0	554	430	0	0	0	0	
1	0	0	0	0	551	427	0	0	0	0	
2	0	0	0	0	547	422	0	0	0	0	
3	0	0	0	0	540	417	0	0	0	0	
4	0	0	0	0	534	411	0	0	0	0	
5	0	0	0	0	527	404	0	0	0	0	
6	0	0	0	0	520	399	0	0	0	0	
7	0	0	0	0	514	395	0	0	0	0	
8	0	0	0	0	511	393	0	0	0	0	
9	0	0	0	0	509	392	0	0	0	0	
10	0	0	0	0	509	395	0	0	0	0	
11	0	0	0	0	511	398	0	0	0	0	
12	0	0	0	0	516	403	0	0	0	0	
13	0	0	0	0	521	409	0	0	0	0	
14	0	0	0	0	528	416	0	0	0	0	
15	0	0	0	0	535	423	0	0	0	0	
0	0	0	0	0	541	430	0	0	0	0	
1	0	0	0	0	547	437	0	0	0	0	
2	0	0	0	0	552	441	0	0	0	0	
3	0	0	0	0	556	446	0	0	0	0	
4	0	0	0	0	558	449	0	0	0	0	
5	0	0	0	0	559	451	0	0	0	0	
6	0	0	0	0	559	451	0	0	0	0	
7	0	0	0	0	557	451	0	0	0	0	
8	0	0	0	0	556	449	0	0	0	0	
9	0	0	0	0	555	447	0	0	0	0	
10	0	0	0	0	554	446	0	0	0	0	
11	0	0	0	0	554	444	0	0	0	0	
12	0	0	0	0	554	444	0	0	0	0	
13	0	0	0	0	556	444	0	0	0	0	
14	0	0	0	0	558	444	0	0	0	0	
15	0	0	0	0	559	444	0	0	0	0	
0	0	0	0	0	560	443	0	0	0	0	
1	0	0	0	0	561	443	0	0	0	0	
2	0	0	0	0	561	443	0	0	0	0	
3	0	0	0	0	561	442	0	0	0	0	
4	0	0	0	0	559	441	0	0	0	0	
5	0	0	0	0	557	440	0	0	0	0	
6	0	0	0	0	554	438	0	0	0	0	
7	0	0	0	0	551	436	0	0	0	0	
8	0	0	0	0	546	433	0	0	0	0	
9	0	0	0	0	541	430	0	0	0	0	
10	0	0	0	0	536	426	0	0	0	0	
11	0	0	0	0	530	423	0	0	0	0	
12	0	0	0	0	525	419	0	0	0	0	
13	0	0	0	0	520	415	0	0	0	0	
14	0	0	0	0	517	413	0	0	0	0	
15	0	0	0	0	514	411	0	0	0	0	
0	0	0	0	0	513	409	0	0	0	0	
1	0	0	0	0	513	408	0	0	0	0	
2	0	0	0	0	513	408	0	0	0	0	
3	0	0	0	0	515	409	0	0	0	0	
4	0	0	0	0	517	410	0	0	0	0	
5	0	0	0	0	519	412	0	0	0	0	
6	0	0	0	0	523	414	0	0	0	0	
7	0	0	0	0	526	416	0	0	0	0	
8	0	0	0	0	529	419	0	0	0	0	
9	0	0	0	0	533	422	0	0	0	0	
10	0	0	0	0	536	424	0	0	0	0	
11	0	0	0	0	539	426	0	0	0	0	
12	0	0	0	0	540	428	0	0	0	0	
13	0	0	0	0	541	428	0	0	0	0	
14	0	0	0	0	540	428	0	0	0	0	
15	0	0	0	0	538	425	0	0	0	0	
0	0	0	0	0	536	423	0	0	0	0	
1	0	0	0	0	531	419	0	0	0	0	
2	0	0	0	0	526	414	0	0	0	0	
3	0	0	0	0	521	409	0	0	0	0	
4	0	0	0	0	515	404	0	0	0	0	
5	0	0	0	0	510	399	0	0	0	0	
6	0	0	0	0	505	395	0	0	0	0	
7	0	0	0	0	501	392	0	0	0	0	
8	0	0	0	0	498	390	0	0	0	0	
9	0	0	0	0	498	390	0	0	0	0	
10	0	0	0	0	498	391	0	0	0	0	
11	0	0	0	0	500	393	0	0	0	0	
12	0	0	0	0	503	396	0	0	0	0	
13	0	0	0	0	507	399	0	0	0	0	
14	0	0	0	0	511	403	0	0	0	0	
15	0	0	0	0	515	406	0	0	0	0	
0	0	0	0	0	518	409	0	0	0	0	
1	0	0	0	0	520	410	0	0	0	0	
2	0	0	0	0	521	411	0	0	0	0	
3	0	0	0	0	521	410	0	0	0	0	
4	0	0	0	0	521	410	0	0	0	0	
5	0	0	0	0	521	409	0	0	0	0	
6	0	0	0	0	521	409	0	0	0	0	
7	0	0	0	0	523	409	0	0	0	0	
8	0	0	0	0	524	411	0	0	0	0	
9	0	0	0	0	527	413	0	0	0	0	
10	0	0	0	0	531	416	0	0	0	0	
11	0	0	0	0	536	420	0	0	0	0	
12	0	0	0	0	540	426	0	0	0	0	
13	0	0	0	0	544	431	0	0	0	0	
14	0	0	0	0	548	435	0	0	0	0	
15	0	0	0	0	550	439	0	0	0	0	
0	0	0	0	0	551	441	0	0	0	0	
1	0	0	0	0	550	442	0	0	0	0	
2	0	0	0	0	547	441	0	0	0	0	
3	0	0	0	0	542	439	0	0	0	0	
4	0	0	0	0	536	435	0	0	0	0	
5	0	0	0	0	529	430	0	0	0	0	
6	0	0	0	0	521	424	0	0	0	0	
7	0	0	0	0	513	418	0	0	0	0	
8	0	0	0	0	507	412	0	0	0	0	
9	0	0	0	0	502	407	0	0	0	0	
10	0	0	0	0	499	403	0	0	0	0	
11	0	0	0	0	498	401	0	0	0	0	
12	0	0	0	0	500	400	0	0	0	0	
13	0	0	0	0	504	402	0	0	0	0	
14	0	0	0	0	510	405	0	0	0	0	
15	0	0	0	0	517	410	0	0	0	0	
0	0	0	0	0	525	416	0	0	0	0	
1	0	0	0	0	533	423	0	0	0	0	
2	0	0	0	0	542	430	0	0	0	0	
3	0	0	0	0	550	438	0	0	0	0	
4	0	0	0	0	558	445	0	0	0	0	
5	0	0	0	0	564	452	0	0	0	0	
6	0	0	0	0	569	458	0	0	0	0	
7	0	0	0	0	573	461	0	0	0	0	
8	0	0	0	0	574	463	0	0	0	0	
9	0	0	0	0	572	462	0	0	0	0	
10	0	0	0	0	568	459	0	0	0	0	
11	0	0	0	0	562	455	0	0	0	0	
12	0	0	0	0	556	450	0	0	0	0	
13	0	0	0	0	548	444	0	0	0	0	
14	0	0	0	0	542	438	0	0	0	0	
15	0	0	0	0	535	432	0	0	0	0	
0	0	0	0	0	529	427	0	0	0	0	
1	0	0	0	0	524	422	0	0	0	0	
2	0	0	0	0	520	418	0	0	0	0	
3	0	0	0	0	518	415	0	0	0	0	
4	0	0	0	0	516	412	0	0	0	0	
5	0	0	0	0	516	411	0	0	0	0	
6	0	0	0	0	516	411	0	0	0	0	
7	0	0	0	0	518	412	0	0	0	0	
8	0	0	0	0	519	413	0	0	0	0	
9	0	0	0	0	520	414	0	0	0	0	
10	0	0	0	0	522	415	0	0	0	0	
11	0	0	0	0	524	416	0	0	0	0	
12	0	0	0	0	525	417	0	0	0	0	
13	0	0	0	0	525	417	0	0	0	0	
14	0	0	0	0	525	416	0	0	0	0	
15	0	0	0	0	523	415	0	0	0	0	
0	0	0	0	0	521	413	0	0	0	0	
1	0	0	0	0	517	409	0	0	0	0	
2	0	0	0	0	512	405	0	0	0	0	
3	0	0	0	0	506	399	0	0	0	0	
4	0	0	0	0	499	391	0	0	0	0	
5	0	0	0	0	490	384	0	0	0	0	
6	0	0	0	0	481	375	0	0	0	0	
7	0	0	0	0	472	366	0	0	0	0	
8	0	0	0	0	461	357	0	0	0	0	
9	0	0	0	0	449	347	0	0	0	0	
10	0	0	0	0	437	336	0	0	0	0	
11	0	0	0	0	424	325	0	0	0	0	
12	0	0	0	0	411	313	0	0	0	0	
13	0	0	0	0	396	300	0	0	0	0	
14	0	0	0	0	381	287	0	0	0	0	
15	0	0	0	0	366	274	0	0	0	0	
0	0	0	0	0	350	260	0	0	0	0	
1	0	0	0	0	335	246	0	0	0	0	
2	0	0	0	0	320	231	0	0	0	0	
3	0	0	0	0	306	217	0	0	0	0	
4	0	0	0	0	294	205	0	0	0	0	
5	0	0	0	0	283	193	0	0	0	0	
6	0	0	0	0	274	184	0	0	0	0	
7	0	0	0	0	269	177	0	0	0	0	
8	0	0	0	0	267	173	0	0	0	0	
9	0	0	0	0	270	174	0	0	0	0	
10	0	0	0	0	278	180	0	0	0	0	
11	0	0	0	0	290	189	0	0	0	0	
12	0	0	0	0	307	204	0	0	0	0	
13	0	0	0	0	328	222	0	0	0	0	
14	0	0	0	0	352	243	0	0	0	0	
15	0	0	0	0	380	268	0	0	0	0	
0	0	0	0	0	408	293	0	0	0	0	
1	0	0	0	0	438	319	0	0	0	0	
2	0	0	0	0	468	345	0	0	0	0	
3	0	0	0	0	496	371	0	0	0	0	
4	0	0	0	0	523	394	0	0	0	0	
5	0	0	0	0	546	415	0	0	0	0	
6	0	0	0	0	565	433	0	0	0	0	
7	0	0	0	0	580	448	0	0	0	0	
8	0	0	0	0	591	459	0	0	0	0	
9	0	0	0	0	599	466	0	0	0	0	
10	0	0	0	0	601	471	0	0	0	0	
11	0	0	0	0	600	472	0	0	0	0	
12	0	0	0	0	596	471	0	0	0	0	
13	0	0	0	0	590	469	0	0	0	0	
14	0	0	0	0	582	465	0	0	0	0	
15	0	0	0	0	573	461	0	0	0	0	
0	0	0	0	0	564	456	0	0	0	0	
1	0	0	0	0	556	452	0	0	0	0	
2	0	0	0	0	549	448	0	0	0	0	
3	0	0	0	0	543	446	0	0	0	0	
4	0	0	0	0	540	444	0	0	0	0	
5	0	0	0	0	538	444	0	0	0	0	
6	0	0	0	0	537	444	0	0	0	0	
7	0	0	0	0	537	444	0	0	0	0	
8	0	0	0	0	538	445	0	0	0	0	
9	0	0	0	0	539	446	0	0	0	0	
10	0	0	0	0	540	446	0	0	0	0	
11	0	0	0	0	539	444	0	0	0	0	
12	0	0	0	0	538	442	0	0	0	0	
13	0	0	0	0	536	439	0	0	0	0	
14	0	0	0	0	533	435	0	0	0	0	
15	0	0	0	0	530	431	0	0	0	0	
0	0	0	0	0	527	427	0	0	0	0	
1	0	0	0	0	525	423	0	0	0	0	
2	0	0	0	0	524	421	0	0	0	0	
3	0	0	0	0	523	420	0	0	0	0	
4	0	0	0	0	524	420	0	0	0	0	
5	0	0	0	0	525	422	0	0	0	0	
6	0	0	0	0	528	425	0	0	0	0	
7	0	0	0	0	532	429	0	0	0	0	
8	0	0	0	0	537	434	0	0	0	0	
9	0	0	0	0	543	439	0	0	0	0	
10	0	0	0	0	548	443	0	0	0	0	
11	0	0	0	0	553	448	0	0	0	0	
12	0	0	0	0	558	451	0	0	0	0	
13	0	0	0	0	561	454	0	0	0	0	
14	0	0	0	0	563	455	0	0	0	0	
15	0	0	0	0	565	455	0	0	0	0	
0	0	0	0	0	564	455	0	0	0	0	
1	0	0	0	0	563	454	0	0	0	0	
2	0	0	0	0	562	451	0	0	0	0	
3	0	0	0	0	559	450	0	0	0	0	
4	0	0	0	0	556	447	0	0	0	0	
5	0	0	0	0	553	445	0	0	0	0	
6	0	0	0	0	550	443	0	0	0	0	
7	0	0	0	0	547	442	0	0	0	0	
8	0	0	0	0	545	441	0	0	0	0	
9	0	0	0	0	543	442	0	0	0	0	
10	0	0	0	0	544	443	0	0	0	0	
11	0	0	0	0	545	445	0	0	0	0	
12	0	0	0	0	547	447	0	0	0	0	
13	0	0	0	0	547	449	0	0	0	0	
14	0	0	0	0	549	451	0	0	0	0	
15	0	0	0	0	551	451	0	0	0	0	
0	0	0	0	0	551	452	0	0	0	0	
1	0	0	0	0	551	451	0	0	0	0	
2	0	0	0	0	550	449	0	0	0	0	
3	0	0	0	0	548	446	0	0	0	0	
4	0	0	0	0	545	442	0	0	0	0	
5	0	0	0	0	542	438	0	0	0	0	
6	0	0	0	0	539	434	0	0	0	0	
7	0	0	0	0	535	430	0	0	0	0	
8	0	0	0	0	532	427	0	0	0	0	
9	0	0	0	0	530	425	0	0	0	0	
10	0	0	0	0	529	423	0	0	0	0	
11	0	0	0	0	529	424	0	0	0	0	
12	0	0	0	0	530	425	0	0	0	0	
13	0	0	0	0	532	428	0	0	0	0	
14	0	0	0	0	534	431	0	0	0	0	
15	0	0	0	0	536	434	0	0	0	0	
0	0	0	0	0	538	438	0	0	0	0	
1	0	0	0	0	540	441	0	0	0	0	
2	0	0	0	0	541	443	0	0	0	0	
3	0	0	0	0	542	444	0	0	0	0	
4	0	0	0	0	542	445	0	0	0	0	
5	0	0	0	0	541	445	0	0	0	0	
6	0	0	0	0	540	444	0	0	0	0	
7	0	0	0	0	539	442	0	0	0	0	
8	0	0	0	0	538	440	0	0	0	0	
9	0	0	0	0	538	439	0	0	0	0	
10	0	0	0	0	538	439	0	0	0	0	
11	0	0	0	0	539	439	0	0	0	0	
12	0	0	0	0	541	440	0	0	0	0	
13	0	0	0	0	545	443	0	0	0	0	
14	0	0	0	0	549	446	0	0	0	0	
15	0	0	0	0	554	451	0	0	0	0	
0	0	0	0	0	560	456	0	0	0	0	
1	0	0	0	0	567	462	0	0	0	0	
2	0	0	0	0	572	467	0	0	0	0	
3	0	0	0	0	575	472	0	0	0	0	
4	0	0	0	0	576	475	0	0	0	0	
5	0	0	0	0	575	476	0	0	0	0	
6	0	0	0	0	571	476	0	0	0	0	
7	0	0	0	0	565	472	0	0	0	0	
8	0	0	0	0	555	467	0	0	0	0	
9	0	0	0	0	543	459	0	0	0	0	
10	0	0	0	0	530	449	0	0	0	0	
11	0	0	0	0	517	440	0	0	0	0	
12	0	0	0	0	505	429	0	0	0	0	
13	0	0	0	0	495	419	0	0	0	0	
14	0	0	0	0	487	411	0	0	0	0	
15	0	0	0	0	483	404	0	0	0	0	
0	0	0	0	0	481	399	0	0	0	0	
1	0	0	0	0	483	396	0	0	0	0	
2	0	0	0	0	487	396	0	0	0	0	
3	0	0	0	0	493	398	0	0	0	0	
4	0	0	0	0	500	401	0	0	0	0	
5	0	0	0	0	507	406	0	0	0	0	
6	0	0	0	0	515	412	0	0	0	0	
7	0	0	0	0	522	418	0	0	0	0	
8	0	0	0	0	528	424	0	0	0	0	
9	0	0	0	0	533	429	0	0	0	0	
10	0	0	0	0	536	434	0	0	0	0	
11	0	0	0	0	537	439	0	0	0	0	
12	0	0	0	0	537	442	0	0	0	0	
13	0	0	0	0	535	444	0	0	0	0	
14	0	0	0	0	531	444	0	0	0	0	
15	0	0	0	0	527	444	0	0	0	0	
0	0	0	0	0	523	442	0	0	0	0	
1	0	0	0	0	519	440	0	0	0	0	
2	0	0	0	0	517	438	0	0	0	0	
3	0	0	0	0	516	436	0	0	0	0	
4	0	0	0	0	517	434	0	0	0	0	
5	0	0	0	0	519	432	0	0	0	0	
6	0	0	0	0	522	430	0	0	0	0	
7	0	0	0	0	525	429	0	0	0	0	
8	0	0	0	0	528	428	0	0	0	0	
9	0	0	0	0	531	427	0	0	0	0	
10	0	0	0	0	534	427	0	0	0	0	
11	0	0	0	0	536	428	0	0	0	0	
12	0	0	0	0	536	428	0	0	0	0	
13	0	0	0	0	535	430	0	0	0	0	
14	0	0	0	0	532	431	0	0	0	0	
15	0	0	0	0	528	433	0	0	0	0	
0	0	0	0	0	524	435	0	0	0	0	
1	0	0	0	0	519	436	0	0	0	0	
2	0	0	0	0	515	437	0	0	0	0	
3	0	0	0	0	510	436	0	0	0	0	
4	0	0	0	0	506	436	0	0	0	0	
5	0	0	0	0	501	435	0	0	0	0	
6	0	0	0	0	496	433	0	0	0	0	
7	0	0	0	0	492	431	0	0	0	0	
8	0	0	0	0	487	428	0	0	0	0	
9	0	0	0	0	485	425	0	0	0	0	
10	0	0	0	0	485	422	0	0	0	0	
11	0	0	0	0	487	419	0	0	0	0	
12	0	0	0	0	492	418	0	0	0	0	
13	0	0	0	0	499	417	0	0	0	0	
14	0	0	0	0	507	418	0	0	0	0	
15	0	0	0	0	517	420	0	0	0	0	
0	0	0	0	0	527	423	0	0	0	0	
1	0	0	0	0	539	427	0	0	0	0	
2	0	0	0	0	549	432	0	0	0	0	
3	0	0	0	0	559	438	0	0	0	0	
4	0	0	0	0	567	444	0	0	0	0	
5	0	0	0	0	572	449	0	0	0	0	
6	0	0	0	0	576	453	0	0	0	0	
7	0	0	0	0	576	456	0	0	0	0	
8	0	0	0	0	576	458	0	0	0	0	
9	0	0	0	0	573	459	0	0	0	0	
10	0	0	0	0	568	458	0	0	0	0	
11	0	0	0	0	563	455	0	0	0	0	
12	0	0	0	0	556	452	0	0	0	0	
13	0	0	0	0	550	448	0	0	0	0	
14	0	0	0	0	542	443	0	0	0	0	
15	0	0	0	0	535	437	0	0	0	0	
0	0	0	0	0	528	432	0	0	0	0	
1	0	0	0	0	522	427	0	0	0	0	
2	0	0	0	0	516	423	0	0	0	0	
3	0	0	0	0	512	419	0	0	0	0	
4	0	0	0	0	508	416	0	0	0	0	
5	0	0	0	0	506	414	0	0	0	0	
6	0	0	0	0	505	413	0	0	0	0	
7	0	0	0	0	506	414	0	0	0	0	
8	0	0	0	0	508	415	0	0	0	0	
9	0	0	0	0	511	418	0	0	0	0	
10	0	0	0	0	515	421	0	0	0	0	
11	0	0	0	0	519	424	0	0	0	0	
12	0	0	0	0	524	428	0	0	0	0	
13	0	0	0	0	528	431	0	0	0	0	
14	0	0	0	0	532	433	0	0	0	0	
15	0	0	0	0	534	434	0	0	0	0	
0	0	0	0	0	534	434	0	0	0	0	
1	0	0	0	0	532	432	0	0	0	0	
2	0	0	0	0	529	430	0	0	0	0	
3	0	0	0	0	524	425	0	0	0	0	
4	0	0	0	0	518	421	0	0	0	0	
5	0	0	0	0	511	417	0	0	0	0	
6	0	0	0	0	506	413	0	0	0	0	
7	0	0	0	0	501	411	0	0	0	0	
8	0	0	0	0	497	409	0	0	0	0	
9	0	0	0	0	496	409	0	0	0	0	
10	0	0	0	0	495	410	0	0	0	0	
11	0	0	0	0	496	411	0	0	0	0	
12	0	0	0	0	498	413	0	0	0	0	
13	0	0	0	0	501	416	0	0	0	0	
14	0	0	0	0	504	418	0	0	0	0	
15	0	0	0	0	507	420	0	0	0	0	
0	0	0	0	0	510	422	0	0	0	0	
1	0	0	0	0	512	423	0	0	0	0	
2	0	0	0	0	514	425	0	0	0	0	
3	0	0	0	0	516	426	0	0	0	0	
4	0	0	0	0	518	427	0	0	0	0	
5	0	0	0	0	519	428	0	0	0	0	
6	0	0	0	0	521	430	0	0	0	0	
7	0	0	0	0	522	432	0	0	0	0	
8	0	0	0	0	524	434	0	0	0	0	
9	0	0	0	0	525	436	0	0	0	0	
10	0	0	0	0	526	438	0	0	0	0	
11	0	0	0	0	526	440	0	0	0	0	
12	0	0	0	0	527	441	0	0	0	0	
13	0	0	0	0	526	442	0	0	0	0	
14	0	0	0	0	525	442	0	0	0	0	
15	0	0	0	0	524	442	0	0	0	0	
0	0	0	0	0	521	441	0	0	0	0	
1	0	0	0	0	519	440	0	0	0	0	
2	0	0	0	0	517	438	0	0	0	0	
3	0	0	0	0	515	436	0	0	0	0	
4	0	0	0	0	513	434	0	0	0	0	
5	0	0	0	0	512	432	0	0	0	0	
6	0	0	0	0	512	430	0	0	0	0	
7	0	0	0	0	512	428	0	0	0	0	
8	0	0	0	0	514	426	0	0	0	0	
9	0	0	0	0	516	425	0	0	0	0	
10	0	0	0	0	519	424	0	0	0	0	
11	0	0	0	0	522	424	0	0	0	0	
12	0	0	0	0	525	424	0	0	0	0	
13	0	0	0	0	528	425	0	0	0	0	
14	0	0	0	0	531	427	0	0	0	0	
15	0	0	0	0	534	429	0	0	0	0	
0	0	0	0	0	537	432	0	0	0	0	
1	0	0	0	0	540	434	0	0	0	0	
2	0	0	0	0	542	438	0	0	0	0	
3	0	0	0	0	545	441	0	0	0	0	
4	0	0	0	0	547	444	0	0	0	0	
5	0	0	0	0	549	448	0	0	0	0	
6	0	0	0	0	551	451	0	0	0	0	
7	0	0	0	0	552	454	0	0	0	0	
8	0	0	0	0	555	457	0	0	0	0	
9	0	0	0	0	557	460	0	0	0	0	
10	0	0	0	0	559	462	0	0	0	0	
11	0	0	0	0	561	464	0	0	0	0	
12	0	0	0	0	562	466	0	0	0	0	
13	0	0	0	0	563	467	0	0	0	0	
14	0	0	0	0	564	468	0	0	0	0	
15	0	0	0	0	563	468	0	0	0	0	
0	0	0	0	0	562	466	0	0	0	0	
1	0	0	0	0	560	464	0	0	0	0	
2	0	0	0	0	556	461	0	0	0	0	
3	0	0	0	0	551	458	0	0	0	0	
4	0	0	0	0	546	453	0	0	0	0	
5	0	0	0	0	540	448	0	0	0	0	
6	0	0	0	0	534	443	0	0	0	0	
7	0	0	0	0	526	437	0	0	0	0	
8	0	0	0	0	519	431	0	0	0	0	
9	0	0	0	0	511	424	0	0	0	0	
10	0	0	0	0	504	417	0	0	0	0	
11	0	0	0	0	498	411	0	0	0	0	
12	0	0	0	0	493	407	0	0	0	0	
13	0	0	0	0	490	403	0	0	0	0	
14	0	0	0	0	488	401	0	0	0	0	
15	0	0	0	0	489	400	0	0	0	0	
0	0	0	0	0	492	402	0	0	0	0	
1	0	0	0	0	497	405	0	0	0	0	
2	0	0	0	0	503	409	0	0	0	0	
3	0	0	0	0	510	414	0	0	0	0	
4	0	0	0	0	518	420	0	0	0	0	
5	0	0	0	0	525	426	0	0	0	0	
6	0	0	0	0	533	432	0	0	0	0	
7	0	0	0	0	539	438	0	0	0	0	
8	0	0	0	0	544	442	0	0	0	0	
9	0	0	0	0	547	445	0	0	0	0	
10	0	0	0	0	549	448	0	0	0	0	
11	0	0	0	0	549	448	0	0	0	0	
12	0	0	0	0	547	448	0	0	0	0	
13	0	0	0	0	544	447	0	0	0	0	
14	0	0	0	0	541	444	0	0	0	0	
15	0	0	0	0	537	441	0	0	0	0	
0	0	0	0	0	532	438	0	0	0	0	
1	0	0	0	0	528	435	0	0	0	0	
2	0	0	0	0	525	432	0	0	0	0	
3	0	0	0	0	523	429	0	0	0	0	
4	0	0	0	0	521	427	0	0	0	0	
5	0	0	0	0	521	425	0	0	0	0	
6	0	0	0	0	521	426	0	0	0	0	
7	0	0	0	0	523	427	0	0	0	0	
8	0	0	0	0	526	429	0	0	0	0	
9	0	0	0	0	529	432	0	0	0	0	
10	0	0	0	0	532	435	0	0	0	0	
11	0	0	0	0	535	438	0	0	0	0	
12	0	0	0	0	536	441	0	0	0	0	
13	0	0	0	0	537	443	0	0	0	0	
14	0	0	0	0	537	443	0	0	0	0	
15	0	0	0	0	535	444	0	0	0	0	
0	0	0	0	0	532	442	0	0	0	0	
1	0	0	0	0	529	440	0	0	0	0	
2	0	0	0	0	527	439	0	0	0	0	
3	0	0	0	0	525	437	0	0	0	0	
4	0	0	0	0	525	437	0	0	0	0	
5	0	0	0	0	526	438	0	0	0	0	
6	0	0	0	0	529	440	0	0	0	0	
7	0	0	0	0	535	443	0	0	0	0	
8	0	0	0	0	541	449	0	0	0	0	
9	0	0	0	0	551	455	0	0	0	0	
10	0	0	0	0	560	463	0	0	0	0	
11	0	0	0	0	569	470	0	0	0	0	
12	0	0	0	0	578	476	0	0	0	0	
13	0	0	0	0	584	480	0	0	0	0	
14	0	0	0	0	587	483	0	0	0	0	
15	0	0	0	0	588	485	0	0	0	0	
0	0	0	0	0	587	484	0	0	0	0	
1	0	0	0	0	582	482	0	0	0	0	
2	0	0	0	0	576	478	0	0	0	0	
3	0	0	0	0	568	472	0	0	0	0	
4	0	0	0	0	558	465	0	0	0	0	
5	0	0	0	0	546	456	0	0	0	0	
6	0	0	0	0	534	447	0	0	0	0	
7	0	0	0	0	523	436	0	0	0	0	
8	0	0	0	0	512	427	0	0	0	0	
9	0	0	0	0	503	419	0	0	0	0	
10	0	0	0	0	495	412	0	0	0	0	
11	0	0	0	0	490	407	0	0	0	0	
12	0	0	0	0	487	403	0	0	0	0	
13	0	0	0	0	487	403	0	0	0	0	
14	0	0	0	0	488	404	0	0	0	0	
15	0	0	0	0	491	407	0	0	0	0	
0	0	0	0	0	496	411	0	0	0	0	
1	0	0	0	0	500	416	0	0	0	0	
2	0	0	0	0	507	422	0	0	0	0	
3	0	0	0	0	512	427	0	0	0	0	
4	0	0	0	0	518	431	0	0	0	0	
5	0	0	0	0	521	434	0	0	0	0	
6	0	0	0	0	526	436	0	0	0	0	
7	0	0	0	0	528	437	0	0	0	0	
8	0	0	0	0	529	437	0	0	0	0	
9	0	0	0	0	529	435	0	0	0	0	
10	0	0	0	0	527	433	0	0	0	0	
11	0	0	0	0	525	430	0	0	0	0	
12	0	0	0	0	521	426	0	0	0	0	
13	0	0	0	0	518	423	0	0	0	0	
14	0	0	0	0	514	420	0	0	0	0	
15	0	0	0	0	511	419	0	0	0	0	
0	0	0	0	0	508	418	0	0	0	0	
1	0	0	0	0	508	419	0	0	0	0	
2	0	0	0	0	509	421	0	0	0	0	
3	0	0	0	0	512	424	0	0	0	0	
4	0	0	0	0	517	429	0	0	0	0	
5	0	0	0	0	523	434	0	0	0	0	
6	0	0	0	0	530	439	0	0	0	0	
7	0	0	0	0	537	445	0	0	0	0	
8	0	0	0	0	543	449	0	0	0	0	
9	0	0	0	0	548	452	0	0	0	0	
10	0	0	0	0	551	455	0	0	0	0	
11	0	0	0	0	552	455	0	0	0	0	
12	0	0	0	0	552	455	0	0	0	0	
13	0	0	0	0	550	453	0	0	0	0	
14	0	0	0	0	547	449	0	0	0	0	
15	0	0	0	0	543	446	0	0	0	0	
0	0	0	0	0	539	441	0	0	0	0	
1	0	0	0	0	533	437	0	0	0	0	
2	0	0	0	0	528	432	0	0	0	0	
3	0	0	0	0	524	428	0	0	0	0	
4	0	0	0	0	520	426	0	0	0	0	
5	0	0	0	0	518	424	0	0	0	0	
6	0	0	0	0	517	424	0	0	0	0	
7	0	0	0	0	518	425	0	0	0	0	
8	0	0	0	0	520	427	0	0	0	0	
9	0	0	0	0	524	431	0	0	0	0	
10	0	0	0	0	528	435	0	0	0	0	
11	0	0	0	0	534	440	0	0	0	0	
12	0	0	0	0	539	444	0	0	0	0	
13	0	0	0	0	543	448	0	0	0	0	
14	0	0	0	0	546	452	0	0	0	0	
15	0	0	0	0	548	455	0	0	0	0	
0	0	0	0	0	549	457	0	0	0	0	
1	0	0	0	0	548	457	0	0	0	0	
2	0	0	0	0	545	456	0	0	0	0	
3	0	0	0	0	542	455	0	0	0	0	
4	0	0	0	0	537	452	0	0	0	0	
5	0	0	0	0	533	449	0	0	0	0	
6	0	0	0	0	527	446	0	0	0	0	
7	0	0	0	0	522	442	0	0	0	0	
8	0	0	0	0	518	438	0	0	0	0	
9	0	0	0	0	514	434	0	0	0	0	
10	0	0	0	0	512	431	0	0	0	0	
11	0	0	0	0	511	428	0	0	0	0	
12	0	0	0	0	511	427	0	0	0	0	
13	0	0	0	0	514	427	0	0	0	0	
14	0	0	0	0	518	429	0	0	0	0	
15	0	0	0	0	523	432	0	0	0	0	
0	0	0	0	0	528	436	0	0	0	0	
1	0	0	0	0	534	440	0	0	0	0	
2	0	0	0	0	539	446	0	0	0	0	
3	0	0	0	0	543	450	0	0	0	0	
4	0	0	0	0	547	454	0	0	0	0	
5	0	0	0	0	548	457	0	0	0	0	
6	0	0	0	0	550	459	0	0	0	0	
7	0	0	0	0	549	460	0	0	0	0	
8	0	0	0	0	548	460	0	0	0	0	
9	0	0	0	0	546	460	0	0	0	0	
10	0	0	0	0	544	459	0	0	0	0	
11	0	0	0	0	543	458	0	0	0	0	
12	0	0	0	0	542	458	0	0	0	0	
13	0	0	0	0	542	458	0	0	0	0	
14	0	0	0	0	542	459	0	0	0	0	
15	0	0	0	0	544	460	0	0	0	0	
0	0	0	0	0	547	463	0	0	0	0	
1	0	0	0	0	550	467	0	0	0	0	
2	0	0	0	0	556	471	0	0	0	0	
3	0	0	0	0	561	477	0	0	0	0	
4	0	0	0	0	567	481	0	0	0	0	
5	0	0	0	0	572	486	0	0	0	0	
6	0	0	0	0	576	490	0	0	0	0	
7	0	0	0	0	579	492	0	0	0	0	
8	0	0	0	0	579	492	0	0	0	0	
9	0	0	0	0	576	490	0	0	0	0	
10	0	0	0	0	572	486	0	0	0	0	
11	0	0	0	0	564	479	0	0	0	0	
12	0	0	0	0	555	471	0	0	0	0	
13	0	0	0	0	544	460	0	0	0	0	
14	0	0	0	0	531	450	0	0	0	0	
15	0	0	0	0	519	439	0	0	0	0	
0	0	0	0	0	508	429	0	0	0	0	
1	0	0	0	0	499	420	0	0	0	0	
2	0	0	0	0	491	412	0	0	0	0	
3	0	0	0	0	486	407	0	0	0	0	
4	0	0	0	0	483	403	0	0	0	0	
5	0	0	0	0	484	403	0	0	0	0	
6	0	0	0	0	487	405	0	0	0	0	
7	0	0	0	0	492	409	0	0	0	0	
8	0	0	0	0	499	415	0	0	0	0	
9	0	0	0	0	508	423	0	0	0	0	
10	0	0	0	0	517	431	0	0	0	0	
11	0	0	0	0	526	439	0	0	0	0	
12	0	0	0	0	535	447	0	0	0	0	
13	0	0	0	0	541	454	0	0	0	0	
14	0	0	0	0	546	459	0	0	0	0	
15	0	0	0	0	549	463	0	0	0	0	
0	0	0	0	0	550	464	0	0	0	0	
1	0	0	0	0	547	463	0	0	0	0	
2	0	0	0	0	544	461	0	0	0	0	
3	0	0	0	0	540	458	0	0	0	0	
4	0	0	0	0	534	454	0	0	0	0	
5	0	0	0	0	530	451	0	0	0	0	
6	0	0	0	0	526	448	0	0	0	0	
7	0	0	0	0	523	445	0	0	0	0	
8	0	0	0	0	522	444	0	0	0	0	
9	0	0	0	0	522	444	0	0	0	0	
10	0	0	0	0	525	445	0	0	0	0	
11	0	0	0	0	528	446	0	0	0	0	
12	0	0	0	0	532	448	0	0	0	0	
13	0	0	0	0	536	450	0	0	0	0	
14	0	0	0	0	540	451	0	0	0	0	
15	0	0	0	0	542	453	0	0	0	0	
0	0	0	0	0	543	454	0	0	0	0	
1	0	0	0	0	543	454	0	0	0	0	
2	0	0	0	0	542	454	0	0	0	0	
3	0	0	0	0	540	452	0	0	0	0	
4	0	0	0	0	537	451	0	0	0	0	
5	0	0	0	0	535	450	0	0	0	0	
6	0	0	0	0	532	448	0	0	0	0	
7	0	0	0	0	529	447	0	0	0	0	
8	0	0	0	0	529	446	0	0	0	0	
9	0	0	0	0	530	447	0	0	0	0	
10	0	0	0	0	532	448	0	0	0	0	
11	0	0	0	0	535	450	0	0	0	0	
12	0	0	0	0	539	452	0	0	0	0	
13	0	0	0	0	543	455	0	0	0	0	
14	0	0	0	0	549	459	0	0	0	0	
15	0	0	0	0	553	462	0	0	0	0	
0	0	0	0	0	556	464	0	0	0	0	
1	0	0	0	0	559	466	0	0	0	0	
2	0	0	0	0	559	466	0	0	0	0	
3	0	0	0	0	557	466	0	0	0	0	
4	0	0	0	0	554	464	0	0	0	0	
5	0	0	0	0	549	462	0	0	0	0	
6	0	0	0	0	543	458	0	0	0	0	
7	0	0	0	0	536	455	0	0	0	0	
8	0	0	0	0	528	452	0	0	0	0	
9	0	0	0	0	519	450	0	0	0	0	
10	0	0	0	0	512	448	0	0	0	0	
11	0	0	0	0	505	448	0	0	0	0	
12	0	0	0	0	500	448	0	0	0	0	
13	0	0	0	0	497	449	0	0	0	0	
14	0	0	0	0	498	451	0	0	0	0	
15	0	0	0	0	501	454	0	0	0	0	
0	0	0	0	0	508	456	0	0	0	0	
1	0	0	0	0	516	459	0	0	0	0	
2	0	0	0	0	527	460	0	0	0	0	
3	0	0	0	0	537	460	0	0	0	0	
4	0	0	0	0	547	459	0	0	0	0	
5	0	0	0	0	555	457	0	0	0	0	
6	0	0	0	0	561	455	0	0	0	0	
7	0	0	0	0	564	453	0	0	0	0	
8	0	0	0	0	565	450	0	0	0	0	
9	0	0	0	0	563	447	0	0	0	0	
10	0	0	0	0	559	444	0	0	0	0	
11	0	0	0	0	553	441	0	0	0	0	
12	0	0	0	0	547	439	0	0	0	0	
13	0	0	0	0	540	438	0	0	0	0	
14	0	0	0	0	533	437	0	0	0	0	
15	0	0	0	0	527	437	0	0	0	0	
0	0	0	0	0	523	439	0	0	0	0	
1	0	0	0	0	520	440	0	0	0	0	
2	0	0	0	0	520	442	0	0	0	0	
3	0	0	0	0	520	444	0	0	0	0	
4	0	0	0	0	522	446	0	0	0	0	
5	0	0	0	0	524	448	0	0	0	0	
6	0	0	0	0	528	450	0	0	0	0	
7	0	0	0	0	531	452	0	0	0	0	
8	0	0	0	0	534	453	0	0	0	0	
9	0	0	0	0	536	453	0	0	0	0	
10	0	0	0	0	536	453	0	0	0	0	
11	0	0	0	0	537	453	0	0	0	0	
12	0	0	0	0	538	452	0	0	0	0	
13	0	0	0	0	539	452	0	0	0	0	
14	0	0	0	0	539	451	0	0	0	0	
15	0	0	0	0	539	451	0	0	0	0	
0	0	0	0	0	540	451	0	0	0	0	
1	0	0	0	0	541	451	0	0	0	0	
2	0	0	0	0	542	452	0	0	0	0	
3	0	0	0	0	545	455	0	0	0	0	
4	0	0	0	0	548	458	0	0	0	0	
5	0	0	0	0	552	463	0	0	0	0	
6	0	0	0	0	557	467	0	0	0	0	
7	0	0	0	0	562	473	0	0	0	0	
8	0	0	0	0	568	479	0	0	0	0	
9	0	0	0	0	573	484	0	0	0	0	
10	0	0	0	0	578	489	0	0	0	0	
11	0	0	0	0	582	494	0	0	0	0	
12	0	0	0	0	584	497	0	0	0	0	
13	0	0	0	0	585	499	0	0	0	0	
14	0	0	0	0	583	498	0	0	0	0	
15	0	0	0	0	580	496	0	0	0	0	
0	0	0	0	0	575	492	0	0	0	0	
1	0	0	0	0	568	487	0	0	0	0	
2	0	0	0	0	559	480	0	0	0	0	
3	0	0	0	0	550	471	0	0	0	0	
4	0	0	0	0	541	463	0	0	0	0	
5	0	0	0	0	532	455	0	0	0	0	
6	0	0	0	0	525	449	0	0	0	0	
7	0	0	0	0	521	444	0	0	0	0	
8	0	0	0	0	518	442	0	0	0	0	
9	0	0	0	0	519	442	0	0	0	0	
10	0	0	0	0	521	444	0	0	0	0	
11	0	0	0	0	525	446	0	0	0	0	
12	0	0	0	0	530	450	0	0	0	0	
13	0	0	0	0	535	454	0	0	0	0	
14	0	0	0	0	539	457	0	0	0	0	
15	0	0	0	0	542	460	0	0	0	0	
0	0	0	0	0	543	462	0	0	0	0	
1	0	0	0	0	543	463	0	0	0	0	
2	0	0	0	0	542	463	0	0	0	0	
3	0	0	0	0	539	461	0	0	0	0	
4	0	0	0	0	535	459	0	0	0	0	
5	0	0	0	0	531	456	0	0	0	0	
6	0	0	0	0	526	452	0	0	0	0	
7	0	0	0	0	521	450	0	0	0	0	
8	0	0	0	0	519	447	0	0	0	0	
9	0	0	0	0	517	446	0	0	0	0	
10	0	0	0	0	516	445	0	0	0	0	
11	0	0	0	0	517	446	0	0	0	0	
12	0	0	0	0	520	448	0	0	0	0	
13	0	0	0	0	525	453	0	0	0	0	
14	0	0	0	0	531	459	0	0	0	0	
15	0	0	0	0	539	466	0	0	0	0	
0	0	0	0	0	547	474	0	0	0	0	
1	0	0	0	0	556	483	0	0	0	0	
2	0	0	0	0	566	491	0	0	0	0	
3	0	0	0	0	574	499	0	0	0	0	
4	0	0	0	0	580	504	0	0	0	0	
5	0	0	0	0	584	507	0	0	0	0	
6	0	0	0	0	584	508	0	0	0	0	
7	0	0	0	0	582	505	0	0	0	0	
8	0	0	0	0	575	499	0	0	0	0	
9	0	0	0	0	565	491	0	0	0	0	
10	0	0	0	0	551	479	0	0	0	0	
11	0	0	0	0	535	465	0	0	0	0	
12	0	0	0	0	518	450	0	0	0	0	
13	0	0	0	0	499	433	0	0	0	0	
14	0	0	0	0	480	416	0	0	0	0	
15	0	0	0	0	461	398	0	0	0	0	
0	0	0	0	0	444	380	0	0	0	0	
1	0	0	0	0	427	363	0	0	0	0	
2	0	0	0	0	411	346	0	0	0	0	
3	0	0	0	0	396	330	0	0	0	0	
4	0	0	0	0	383	315	0	0	0	0	
5	0	0	0	0	371	300	0	0	0	0	
6	0	0	0	0	359	288	0	0	0	0	
7	0	0	0	0	349	276	0	0	0	0	
8	0	0	0	0	339	265	0	0	0	0	
9	0	0	0	0	330	255	0	0	0	0	
10	0	0	0	0	320	245	0	0	0	0	
11	0	0	0	0	312	236	0	0	0	0	
12	0	0	0	0	304	229	0	0	0	0	
13	0	0	0	0	299	224	0	0	0	0	
14	0	0	0	0	295	220	0	0	0	0	
15	0	0	0	0	295	220	0	0	0	0	
0	0	0	0	0	300	223	0	0	0	0	
1	0	0	0	0	308	231	0	0	0	0	
2	0	0	0	0	321	242	0	0	0	0	
3	0	0	0	0	338	257	0	0	0	0	
4	0	0	0	0	359	275	0	0	0	0	
5	0	0	0	0	382	295	0	0	0	0	
6	0	0	0	0	408	318	0	0	0	0	
7	0	0	0	0	435	342	0	0	0	0	
8	0	0	0	0	462	366	0	0	0	0	
9	0	0	0	0	487	390	0	0	0	0	
10	0	0	0	0	511	413	0	0	0	0	
11	0	0	0	0	531	434	0	0	0	0	
12	0	0	0	0	549	453	0	0	0	0	
13	0	0	0	0	563	469	0	0	0	0	
14	0	0	0	0	574	481	0	0	0	0	
15	0	0	0	0	581	491	0	0	0	0	
0	0	0	0	0	584	497	0	0	0	0	
1	0	0	0	0	585	500	0	0	0	0	
2	0	0	0	0	583	500	0	0	0	0	
3	0	0	0	0	578	498	0	0	0	0	
4	0	0	0	0	571	493	0	0	0	0	
5	0	0	0	0	563	487	0	0	0	0	
6	0	0	0	0	554	480	0	0	0	0	
7	0	0	0	0	544	472	0	0	0	0	
8	0	0	0	0	536	465	0	0	0	0	
9	0	0	0	0	530	460	0	0	0	0	
10	0	0	0	0	525	455	0	0	0	0	
11	0	0	0	0	522	451	0	0	0	0	
12	0	0	0	0	521	450	0	0	0	0	
13	0	0	0	0	523	450	0	0	0	0	
14	0	0	0	0	526	452	0	0	0	0	
15	0	0	0	0	531	456	0	0	0	0	
0	0	0	0	0	537	460	0	0	0	0	
1	0	0	0	0	544	465	0	0	0	0	
2	0	0	0	0	551	470	0	0	0	0	
3	0	0	0	0	557	474	0	0	0	0	
4	0	0	0	0	562	478	0	0	0	0	
5	0	0	0	0	564	480	0	0	0	0	
6	0	0	0	0	565	480	0	0	0	0	
7	0	0	0	0	563	480	0	0	0	0	
8	0	0	0	0	560	479	0	0	0	0	
9	0	0	0	0	556	476	0	0	0	0	
10	0	0	0	0	550	473	0	0	0	0	
11	0	0	0	0	544	470	0	0	0	0	
12	0	0	0	0	539	467	0	0	0	0	
13	0	0	0	0	535	465	0	0	0	0	
14	0	0	0	0	532	463	0	0	0	0	
15	0	0	0	0	531	463	0	0	0	0	
0	0	0	0	0	532	464	0	0	0	0	
1	0	0	0	0	534	467	0	0	0	0	
2	0	0	0	0	538	470	0	0	0	0	
3	0	0	0	0	544	475	0	0	0	0	
4	0	0	0	0	551	480	0	0	0	0	
5	0	0	0	0	560	486	0	0	0	0	
6	0	0	0	0	568	492	0	0	0	0	
7	0	0	0	0	577	499	0	0	0	0	
8	0	0	0	0	587	505	0	0	0	0	
9	0	0	0	0	594	510	0	0	0	0	
10	0	0	0	0	600	515	0	0	0	0	
11	0	0	0	0	604	518	0	0	0	0	
12	0	0	0	0	606	519	0	0	0	0	
13	0	0	0	0	605	518	0	0	0	0	
14	0	0	0	0	601	515	0	0	0	0	
15	0	0	0	0	595	511	0	0	0	0	
0	0	0	0	0	586	504	0	0	0	0	
1	0	0	0	0	578	498	0	0	0	0	
2	0	0	0	0	569	492	0	0	0	0	
3	0	0	0	0	561	486	0	0	0	0	
4	0	0	0	0	554	482	0	0	0	0	
5	0	0	0	0	550	480	0	0	0	0	
6	0	0	0	0	547	479	0	0	0	0	
7	0	0	0	0	547	480	0	0	0	0	
8	0	0	0	0	548	481	0	0	0	0	
9	0	0	0	0	550	483	0	0	0	0	
10	0	0	0	0	552	484	0	0	0	0	
11	0	0	0	0	554	484	0	0	0	0	
12	0	0	0	0	554	483	0	0	0	0	
13	0	0	0	0	552	479	0	0	0	0	
14	0	0	0	0	548	474	0	0	0	0	
15	0	0	0	0	542	466	0	0	0	0	
0	0	0	0	0	535	458	0	0	0	0	
1	0	0	0	0	527	450	0	0	0	0	
2	0	0	0	0	518	441	0	0	0	0	
3	0	0	0	0	510	433	0	0	0	0	
4	0	0	0	0	502	427	0	0	0	0	
5	0	0	0	0	497	422	0	0	0	0	
6	0	0	0	0	494	420	0	0	0	0	
7	0	0	0	0	493	420	0	0	0	0	
8	0	0	0	0	495	422	0	0	0	0	
9	0	0	0	0	498	425	0	0	0	0	
10	0	0	0	0	504	431	0	0	0	0	
11	0	0	0	0	510	438	0	0	0	0	
12	0	0	0	0	518	445	0	0	0	0	
13	0	0	0	0	526	453	0	0	0	0	
14	0	0	0	0	533	460	0	0	0	0	
15	0	0	0	0	540	466	0	0	0	0	
0	0	0	0	0	545	471	0	0	0	0	
1	0	0	0	0	550	474	0	0	0	0	
2	0	0	0	0	552	476	0	0	0	0	
3	0	0	0	0	553	475	0	0	0	0	
4	0	0	0	0	553	474	0	0	0	0	
5	0	0	0	0	551	471	0	0	0	0	
6	0	0	0	0	549	468	0	0	0	0	
7	0	0	0	0	546	463	0	0	0	0	
8	0	0	0	0	542	460	0	0	0	0	
9	0	0	0	0	539	455	0	0	0	0	
10	0	0	0	0	536	452	0	0	0	0	
11	0	0	0	0	533	449	0	0	0	0	
12	0	0	0	0	530	447	0	0	0	0	
13	0	0	0	0	528	446	0	0	0	0	
14	0	0	0	0	527	445	0	0	0	0	
15	0	0	0	0	527	446	0	0	0	0	
0	0	0	0	0	527	446	0	0	0	0	
1	0	0	0	0	528	447	0	0	0	0	
2	0	0	0	0	528	448	0	0	0	0	
3	0	0	0	0	529	450	0	0	0	0	
4	0	0	0	0	531	451	0	0	0	0	
5	0	0	0	0	532	452	0	0	0	0	
6	0	0	0	0	533	454	0	0	0	0	
7	0	0	0	0	535	455	0	0	0	0	
8	0	0	0	0	536	457	0	0	0	0	
9	0	0	0	0	537	458	0	0	0	0	
10	0	0	0	0	538	459	0	0	0	0	
11	0	0	0	0	538	460	0	0	0	0	
12	0	0	0	0	539	461	0	0	0	0	
13	0	0	0	0	539	462	0	0	0	0	
14	0	0	0	0	541	464	0	0	0	0	
15	0	0	0	0	543	465	0	0	0	0	
0	0	0	0	0	545	467	0	0	0	0	
1	0	0	0	0	547	468	0	0	0	0	
2	0	0	0	0	551	471	0	0	0	0	
3	0	0	0	0	553	472	0	0	0	0	
4	0	0	0	0	556	475	0	0	0	0	
5	0	0	0	0	557	475	0	0	0	0	
6	0	0	0	0	558	475	0	0	0	0	
7	0	0	0	0	556	473	0	0	0	0	
8	0	0	0	0	553	470	0	0	0	0	
9	0	0	0	0	548	465	0	0	0	0	
10	0	0	0	0	541	459	0	0	0	0	
11	0	0	0	0	533	451	0	0	0	0	
12	0	0	0	0	525	443	0	0	0	0	
13	0	0	0	0	516	435	0	0	0	0	
14	0	0	0	0	508	427	0	0	0	0	
15	0	0	0	0	502	421	0	0	0	0	
0	0	0	0	0	496	416	0	0	0	0	
1	0	0	0	0	494	414	0	0	0	0	
2	0	0	0	0	493	414	0	0	0	0	
3	0	0	0	0	496	417	0	0	0	0	
4	0	0	0	0	500	423	0	0	0	0	
5	0	0	0	0	508	431	0	0	0	0	
6	0	0	0	0	518	441	0	0	0	0	
7	0	0	0	0	528	452	0	0	0	0	
8	0	0	0	0	539	464	0	0	0	0	
9	0	0	0	0	549	474	0	0	0	0	
10	0	0	0	0	557	483	0	0	0	0	
11	0	0	0	0	563	489	0	0	0	0	
12	0	0	0	0	566	492	0	0	0	0	
13	0	0	0	0	565	492	0	0	0	0	
14	0	0	0	0	560	488	0	0	0	0	
15	0	0	0	0	552	481	0	0	0	0	
0	0	0	0	0	543	471	0	0	0	0	
1	0	0	0	0	531	460	0	0	0	0	
2	0	0	0	0	519	449	0	0	0	0	
3	0	0	0	0	509	438	0	0	0	0	
4	0	0	0	0	499	428	0	0	0	0	
5	0	0	0	0	492	422	0	0	0	0	
6	0	0	0	0	487	417	0	0	0	0	
7	0	0	0	0	486	416	0	0	0	0	
8	0	0	0	0	487	417	0	0	0	0	
9	0	0	0	0	492	422	0	0	0	0	
10	0	0	0	0	499	430	0	0	0	0	
11	0	0	0	0	508	438	0	0	0	0	
12	0	0	0	0	519	448	0	0	0	0	
13	0	0	0	0	530	458	0	0	0	0	
14	0	0	0	0	540	467	0	0	0	0	
15	0	0	0	0	549	475	0	0	0	0	
0	0	0	0	0	556	481	0	0	0	0	
1	0	0	0	0	561	486	0	0	0	0	
2	0	0	0	0	563	487	0	0	0	0	
3	0	0	0	0	563	485	0	0	0	0	
4	0	0	0	0	560	481	0	0	0	0	
5	0	0	0	0	553	475	0	0	0	0	
6	0	0	0	0	543	466	0	0	0	0	
7	0	0	0	0	532	455	0	0	0	0	
8	0	0	0	0	519	444	0	0	0	0	
9	0	0	0	0	505	432	0	0	0	0	
10	0	0	0	0	493	422	0	0	0	0	
11	0	0	0	0	481	412	0	0	0	0	
12	0	0	0	0	472	405	0	0	0	0	
13	0	0	0	0	467	400	0	0	0	0	
14	0	0	0	0	464	398	0	0	0	0	
15	0	0	0	0	465	399	0	0	0	0	
0	0	0	0	0	468	402	0	0	0	0	
1	0	0	0	0	475	407	0	0	0	0	
2	0	0	0	0	483	412	0	0	0	0	
3	0	0	0	0	492	420	0	0	0	0	
4	0	0	0	0	503	428	0	0	0	0	
5	0	0	0	0	512	436	0	0	0	0	
6	0	0	0	0	523	444	0	0	0	0	
7	0	0	0	0	532	451	0	0	0	0	
8	0	0	0	0	540	457	0	0	0	0	
9	0	0	0	0	545	462	0	0	0	0	
10	0	0	0	0	548	464	0	0	0	0	
11	0	0	0	0	549	464	0	0	0	0	
12	0	0	0	0	548	463	0	0	0	0	
13	0	0	0	0	545	462	0	0	0	0	
14	0	0	0	0	540	459	0	0	0	0	
15	0	0	0	0	535	455	0	0	0	0	
0	0	0	0	0	529	452	0	0	0	0	
1	0	0	0	0	524	449	0	0	0	0	
2	0	0	0	0	519	447	0	0	0	0	
3	0	0	0	0	515	445	0	0	0	0	
4	0	0	0	0	512	443	0	0	0	0	
5	0	0	0	0	509	441	0	0	0	0	
6	0	0	0	0	506	440	0	0	0	0	
7	0	0	0	0	505	440	0	0	0	0	
8	0	0	0	0	504	440	0	0	0	0	
9	0	0	0	0	503	439	0	0	0	0	
10	0	0	0	0	503	439	0	0	0	0	
11	0	0	0	0	503	439	0	0	0	0	
12	0	0	0	0	504	439	0	0	0	0	
13	0	0	0	0	505	440	0	0	0	0	
14	0	0	0	0	508	441	0	0	0	0	
15	0	0	0	0	510	442	0	0	0	0	
0	0	0	0	0	513	444	0	0	0	0	
1	0	0	0	0	517	446	0	0	0	0	
2	0	0	0	0	521	448	0	0	0	0	
3	0	0	0	0	524	449	0	0	0	0	
4	0	0	0	0	527	451	0	0	0	0	
5	0	0	0	0	530	452	0	0	0	0	
6	0	0	0	0	531	453	0	0	0	0	
7	0	0	0	0	531	452	0	0	0	0	
8	0	0	0	0	531	452	0	0	0	0	
9	0	0	0	0	529	451	0	0	0	0	
10	0	0	0	0	526	448	0	0	0	0	
11	0	0	0	0	522	446	0	0	0	0	
12	0	0	0	0	518	443	0	0	0	0	
13	0	0	0	0	512	440	0	0	0	0	
14	0	0	0	0	506	436	0	0	0	0	
15	0	0	0	0	502	433	0	0	0	0	
0	0	0	0	0	497	430	0	0	0	0	
1	0	0	0	0	494	427	0	0	0	0	
2	0	0	0	0	492	425	0	0	0	0	
3	0	0	0	0	491	424	0	0	0	0	
4	0	0	0	0	491	424	0	0	0	0	
5	0	0	0	0	492	424	0	0	0	0	
6	0	0	0	0	494	426	0	0	0	0	
7	0	0	0	0	496	427	0	0	0	0	
8	0	0	0	0	500	430	0	0	0	0	
9	0	0	0	0	503	432	0	0	0	0	
10	0	0	0	0	507	435	0	0	0	0	
11	0	0	0	0	511	439	0	0	0	0	
12	0	0	0	0	514	443	0	0	0	0	
13	0	0	0	0	517	447	0	0	0	0	
14	0	0	0	0	520	450	0	0	0	0	
15	0	0	0	0	523	454	0	0	0	0	
0	0	0	0	0	525	457	0	0	0	0	
1	0	0	0	0	527	460	0	0	0	0	
2	0	0	0	0	529	463	0	0	0	0	
3	0	0	0	0	531	465	0	0	0	0	
4	0	0	0	0	532	466	0	0	0	0	
5	0	0	0	0	533	467	0	0	0	0	
6	0	0	0	0	533	465	0	0	0	0	
7	0	0	0	0	532	463	0	0	0	0	
8	0	0	0	0	529	461	0	0	0	0	
9	0	0	0	0	527	457	0	0	0	0	
10	0	0	0	0	524	454	0	0	0	0	
11	0	0	0	0	521	450	0	0	0	0	
12	0	0	0	0	518	446	0	0	0	0	
13	0	0	0	0	515	443	0	0	0	0	
14	0	0	0	0	513	441	0	0	0	0	
15	0	0	0	0	512	440	0	0	0	0	
0	0	0	0	0	511	439	0	0	0	0	
1	0	0	0	0	512	440	0	0	0	0	
2	0	0	0	0	513	440	0	0	0	0	
3	0	0	0	0	515	442	0	0	0	0	
4	0	0	0	0	519	444	0	0	0	0	
5	0	0	0	0	521	446	0	0	0	0	
6	0	0	0	0	524	448	0	0	0	0	
7	0	0	0	0	526	450	0	0	0	0	
8	0	0	0	0	529	451	0	0	0	0	
9	0	0	0	0	531	453	0	0	0	0	
10	0	0	0	0	534	455	0	0	0	0	
11	0	0	0	0	536	455	0	0	0	0	
12	0	0	0	0	537	456	0	0	0	0	
13	0	0	0	0	538	458	0	0	0	0	
14	0	0	0	0	540	459	0	0	0	0	
15	0	0	0	0	541	461	0	0	0	0	
0	0	0	0	0	543	462	0	0	0	0	
1	0	0	0	0	545	463	0	0	0	0	
2	0	0	0	0	546	465	0	0	0	0	
3	0	0	0	0	548	466	0	0	0	0	
4	0	0	0	0	548	467	0	0	0	0	
5	0	0	0	0	548	467	0	0	0	0	
6	0	0	0	0	547	467	0	0	0	0	
7	0	0	0	0	545	466	0	0	0	0	
8	0	0	0	0	543	464	0	0	0	0	
9	0	0	0	0	539	462	0	0	0	0	
10	0	0	0	0	536	459	0	0	0	0	
11	0	0	0	0	531	456	0	0	0	0	
12	0	0	0	0	528	454	0	0	0	0	
13	0	0	0	0	526	452	0	0	0	0	
14	0	0	0	0	524	451	0	0	0	0	
15	0	0	0	0	524	451	0	0	0	0	
0	0	0	0	0	526	451	0	0	0	0	
1	0	0	0	0	529	454	0	0	0	0	
2	0	0	0	0	532	456	0	0	0	0	
3	0	0	0	0	537	460	0	0	0	0	
4	0	0	0	0	542	463	0	0	0	0	
5	0	0	0	0	546	467	0	0	0	0	
6	0	0	0	0	551	470	0	0	0	0	
7	0	0	0	0	553	473	0	0	0	0	
8	0	0	0	0	556	475	0	0	0	0	
9	0	0	0	0	557	476	0	0	0	0	
10	0	0	0	0	557	475	0	0	0	0	
11	0	0	0	0	555	474	0	0	0	0	
12	0	0	0	0	552	472	0	0	0	0	
13	0	0	0	0	547	468	0	0	0	0	
14	0	0	0	0	542	463	0	0	0	0	
15	0	0	0	0	535	459	0	0	0	0	
0	0	0	0	0	528	453	0	0	0	0	
1	0	0	0	0	522	448	0	0	0	0	
2	0	0	0	0	515	444	0	0	0	0	
3	0	0	0	0	510	439	0	0	0	0	
4	0	0	0	0	505	436	0	0	0	0	
5	0	0	0	0	503	434	0	0	0	0	
6	0	0	0	0	502	433	0	0	0	0	
7	0	0	0	0	503	433	0	0	0	0	
8	0	0	0	0	505	435	0	0	0	0	
9	0	0	0	0	508	437	0	0	0	0	
10	0	0	0	0	511	440	0	0	0	0	
11	0	0	0	0	515	444	0	0	0	0	
12	0	0	0	0	519	447	0	0	0	0	
13	0	0	0	0	523	450	0	0	0	0	
14	0	0	0	0	527	454	0	0	0	0	
15	0	0	0	0	530	457	0	0	0	0	
0	0	0	0	0	534	461	0	0	0	0	
1	0	0	0	0	537	464	0	0	0	0	
2	0	0	0	0	540	466	0	0	0	0	
3	0	0	0	0	542	468	0	0	0	0	
4	0	0	0	0	543	469	0	0	0	0	
5	0	0	0	0	544	470	0	0	0	0	
6	0	0	0	0	543	468	0	0	0	0	
7	0	0	0	0	542	467	0	0	0	0	
8	0	0	0	0	540	465	0	0	0	0	
9	0	0	0	0	538	463	0	0	0	0	
10	0	0	0	0	536	460	0	0	0	0	
11	0	0	0	0	533	459	0	0	0	0	
12	0	0	0	0	531	457	0	0	0	0	
13	0	0	0	0	530	456	0	0	0	0	
14	0	0	0	0	531	457	0	0	0	0	
15	0	0	0	0	532	458	0	0	0	0	
0	0	0	0	0	534	460	0	0	0	0	
1	0	0	0	0	535	462	0	0	0	0	
2	0	0	0	0	537	463	0	0	0	0	
3	0	0	0	0	539	465	0	0	0	0	
4	0	0	0	0	540	466	0	0	0	0	
5	0	0	0	0	540	465	0	0	0	0	
6	0	0	0	0	539	463	0	0	0	0	
7	0	0	0	0	537	462	0	0	0	0	
8	0	0	0	0	536	459	0	0	0	0	
9	0	0	0	0	533	455	0	0	0	0	
10	0	0	0	0	529	452	0	0	0	0	
11	0	0	0	0	526	448	0	0	0	0	
12	0	0	0	0	523	445	0	0	0	0	
13	0	0	0	0	520	443	0	0	0	0	
14	0	0	0	0	519	442	0	0	0	0	
15	0	0	0	0	519	442	0	0	0	0	
0	0	0	0	0	520	444	0	0	0	0	
1	0	0	0	0	523	447	0	0	0	0	
2	0	0	0	0	527	451	0	0	0	0	
3	0	0	0	0	531	455	0	0	0	0	
4	0	0	0	0	536	459	0	0	0	0	
5	0	0	0	0	540	462	0	0	0	0	
6	0	0	0	0	542	463	0	0	0	0	
7	0	0	0	0	543	464	0	0	0	0	
8	0	0	0	0	543	463	0	0	0	0	
9	0	0	0	0	541	461	0	0	0	0	
10	0	0	0	0	537	458	0	0	0	0	
11	0	0	0	0	532	453	0	0	0	0	
12	0	0	0	0	527	448	0	0	0	0	
13	0	0	0	0	521	443	0	0	0	0	
14	0	0	0	0	515	438	0	0	0	0	
15	0	0	0	0	510	433	0	0	0	0	
0	0	0	0	0	504	429	0	0	0	0	
1	0	0	0	0	501	427	0	0	0	0	
2	0	0	0	0	499	426	0	0	0	0	
3	0	0	0	0	500	428	0	0	0	0	
4	0	0	0	0	504	431	0	0	0	0	
5	0	0	0	0	509	435	0	0	0	0	
6	0	0	0	0	517	441	0	0	0	0	
7	0	0	0	0	526	448	0	0	0	0	
8	0	0	0	0	536	456	0	0	0	0	
9	0	0	0	0	546	464	0	0	0	0	
10	0	0	0	0	556	471	0	0	0	0	
11	0	0	0	0	564	477	0	0	0	0	
12	0	0	0	0	571	482	0	0	0	0	
13	0	0	0	0	574	486	0	0	0	0	
14	0	0	0	0	576	487	0	0	0	0	
15	0	0	0	0	576	488	0	0	0	0	
0	0	0	0	0	575	487	0	0	0	0	
1	0	0	0	0	572	486	0	0	0	0	
2	0	0	0	0	567	483	0	0	0	0	
3	0	0	0	0	561	479	0	0	0	0	
4	0	0	0	0	555	476	0	0	0	0	
5	0	0	0	0	549	472	0	0	0	0	
6	0	0	0	0	543	468	0	0	0	0	
7	0	0	0	0	540	466	0	0	0	0	
8	0	0	0	0	538	464	0	0	0	0	
9	0	0	0	0	537	463	0	0	0	0	
10	0	0	0	0	539	464	0	0	0	0	
11	0	0	0	0	541	465	0	0	0	0	
12	0	0	0	0	544	466	0	0	0	0	
13	0	0	0	0	548	467	0	0	0	0	
14	0	0	0	0	551	468	0	0	0	0	
15	0	0	0	0	554	468	0	0	0	0	
0	0	0	0	0	555	467	0	0	0	0	
1	0	0	0	0	554	464	0	0	0	0	
2	0	0	0	0	552	461	0	0	0	0	
3	0	0	0	0	548	457	0	0	0	0	
4	0	0	0	0	545	454	0	0	0	0	
5	0	0	0	0	540	451	0	0	0	0	
6	0	0	0	0	537	449	0	0	0	0	
7	0	0	0	0	534	448	0	0	0	0	
8	0	0	0	0	532	448	0	0	0	0	
9	0	0	0	0	532	450	0	0	0	0	
10	0	0	0	0	534	454	0	0	0	0	
11	0	0	0	0	536	459	0	0	0	0	
12	0	0	0	0	540	464	0	0	0	0	
13	0	0	0	0	544	469	0	0	0	0	
14	0	0	0	0	548	475	0	0	0	0	
15	0	0	0	0	553	479	0	0	0	0	
0	0	0	0	0	557	483	0	0	0	0	
1	0	0	0	0	560	486	0	0	0	0	
2	0	0	0	0	563	487	0	0	0	0	
3	0	0	0	0	566	488	0	0	0	0	
4	0	0	0	0	568	489	0	0	0	0	
5	0	0	0	0	569	488	0	0	0	0	
6	0	0	0	0	570	487	0	0	0	0	
7	0	0	0	0	570	486	0	0	0	0	
8	0	0	0	0	570	483	0	0	0	0	
9	0	0	0	0	569	482	0	0	0	0	
10	0	0	0	0	568	480	0	0	0	0	
11	0	0	0	0	566	479	0	0	0	0	
12	0	0	0	0	564	477	0	0	0	0	
13	0	0	0	0	561	476	0	0	0	0	
14	0	0	0	0	558	475	0	0	0	0	
15	0	0	0	0	555	474	0	0	0	0	
0	0	0	0	0	552	473	0	0	0	0	
1	0	0	0	0	550	473	0	0	0	0	
2	0	0	0	0	550	475	0	0	0	0	
3	0	0	0	0	550	476	0	0	0	0	
4	0	0	0	0	551	478	0	0	0	0	
5	0	0	0	0	554	480	0	0	0	0	
6	0	0	0	0	556	482	0	0	0	0	
7	0	0	0	0	560	484	0	0	0	0	
8	0	0	0	0	563	487	0	0	0	0	
9	0	0	0	0	566	488	0	0	0	0	
10	0	0	0	0	569	489	0	0	0	0	
11	0	0	0	0	571	490	0	0	0	0	
12	0	0	0	0	573	491	0	0	0	0	
13	0	0	0	0	574	491	0	0	0	0	
14	0	0	0	0	574	491	0	0	0	0	
15	0	0	0	0	574	490	0	0	0	0	
0	0	0	0	0	572	489	0	0	0	0	
1	0	0	0	0	572	490	0	0	0	0	
2	0	0	0	0	571	490	0	0	0	0	
3	0	0	0	0	570	490	0	0	0	0	
4	0	0	0	0	569	491	0	0	0	0	
5	0	0	0	0	569	492	0	0	0	0	
6	0	0	0	0	569	493	0	0	0	0	
7	0	0	0	0	569	494	0	0	0	0	
8	0	0	0	0	568	495	0	0	0	0	
9	0	0	0	0	568	495	0	0	0	0	
10	0	0	0	0	568	495	0	0	0	0	
11	0	0	0	0	567	494	0	0	0	0	
12	0	0	0	0	567	494	0	0	0	0	
13	0	0	0	0	566	493	0	0	0	0	
14	0	0	0	0	566	492	0	0	0	0	
15	0	0	0	0	565	490	0	0	0	0	
0	0	0	0	0	565	489	0	0	0	0	
1	0	0	0	0	564	487	0	0	0	0	
2	0	0	0	0	563	485	0	0	0	0	
3	0	0	0	0	563	483	0	0	0	0	
4	0	0	0	0	562	481	0	0	0	0	
5	0	0	0	0	561	480	0	0	0	0	
6	0	0	0	0	562	480	0	0	0	0	
7	0	0	0	0	563	480	0	0	0	0	
8	0	0	0	0	564	481	0	0	0	0	
9	0	0	0	0	565	483	0	0	0	0	
10	0	0	0	0	567	485	0	0	0	0	
11	0	0	0	0	569	487	0	0	0	0	
12	0	0	0	0	572	491	0	0	0	0	
13	0	0	0	0	574	494	0	0	0	0	
14	0	0	0	0	576	497	0	0	0	0	
15	0	0	0	0	579	499	0	0	0	0	
0	0	0	0	0	579	501	0	0	0	0	
1	0	0	0	0	580	502	0	0	0	0	
2	0	0	0	0	580	502	0	0	0	0	
3	0	0	0	0	578	501	0	0	0	0	
4	0	0	0	0	576	500	0	0	0	0	
5	0	0	0	0	574	498	0	0	0	0	
6	0	0	0	0	571	496	0	0	0	0	
7	0	0	0	0	568	493	0	0	0	0	
8	0	0	0	0	565	491	0	0	0	0	
9	0	0	0	0	563	488	0	0	0	0	
10	0	0	0	0	560	486	0	0	0	0	
11	0	0	0	0	559	485	0	0	0	0	
12	0	0	0	0	558	483	0	0	0	0	
13	0	0	0	0	558	483	0	0	0	0	
14	0	0	0	0	558	483	0	0	0	0	
15	0	0	0	0	558	483	0	0	0	0	
0	0	0	0	0	559	483	0	0	0	0	
1	0	0	0	0	560	483	0	0	0	0	
2	0	0	0	0	561	484	0	0	0	0	
3	0	0	0	0	562	484	0	0	0	0	
4	0	0	0	0	562	484	0	0	0	0	
5	0	0	0	0	563	484	0	0	0	0	
6	0	0	0	0	563	483	0	0	0	0	
7	0	0	0	0	562	483	0	0	0	0	
8	0	0	0	0	563	482	0	0	0	0	
9	0	0	0	0	562	481	0	0	0	0	
10	0	0	0	0	561	480	0	0	0	0	
11	0	0	0	0	561	479	0	0	0	0	
12	0	0	0	0	560	478	0	0	0	0	
13	0	0	0	0	559	478	0	0	0	0	
14	0	0	0	0	558	478	0	0	0	0	
15	0	0	0	0	558	478	0	0	0	0	
0	0	0	0	0	557	478	0	0	0	0	
1	0	0	0	0	556	478	0	0	0	0	
2	0	0	0	0	556	479	0	0	0	0	
3	0	0	0	0	556	480	0	0	0	0	
4	0	0	0	0	556	481	0	0	0	0	
5	0	0	0	0	556	482	0	0	0	0	
6	0	0	0	0	556	482	0	0	0	0	
7	0	0	0	0	557	483	0	0	0	0	
8	0	0	0	0	557	483	0	0	0	0	
9	0	0	0	0	557	483	0	0	0	0	
10	0	0	0	0	557	482	0	0	0	0	
11	0	0	0	0	557	481	0	0	0	0	
12	0	0	0	0	557	480	0	0	0	0	
13	0	0	0	0	556	479	0	0	0	0	
14	0	0	0	0	556	477	0	0	0	0	
15	0	0	0	0	555	477	0	0	0	0	
0	0	0	0	0	555	476	0	0	0	0	
1	0	0	0	0	556	477	0	0	0	0	
2	0	0	0	0	556	478	0	0	0	0	
3	0	0	0	0	558	480	0	0	0	0	
4	0	0	0	0	561	483	0	0	0	0	
5	0	0	0	0	564	487	0	0	0	0	
6	0	0	0	0	568	492	0	0	0	0	
7	0	0	0	0	572	496	0	0	0	0	
8	0	0	0	0	576	499	0	0	0	0	
9	0	0	0	0	579	503	0	0	0	0	
10	0	0	0	0	582	505	0	0	0	0	
11	0	0	0	0	584	507	0	0	0	0	
12	0	0	0	0	585	508	0	0	0	0	
13	0	0	0	0	585	507	0	0	0	0	
14	0	0	0	0	584	505	0	0	0	0	
15	0	0	0	0	582	503	0	0	0	0	
0	0	0	0	0	580	500	0	0	0	0	
1	0	0	0	0	578	497	0	0	0	0	
2	0	0	0	0	576	495	0	0	0	0	
3	0	0	0	0	575	494	0	0	0	0	
4	0	0	0	0	574	493	0	0	0	0	
5	0	0	0	0	574	493	0	0	0	0	
6	0	0	0	0	574	494	0	0	0	0	
7	0	0	0	0	575	496	0	0	0	0	
8	0	0	0	0	577	498	0	0	0	0	
9	0	0	0	0	578	501	0	0	0	0	
10	0	0	0	0	581	504	0	0	0	0	
11	0	0	0	0	583	508	0	0	0	0	
12	0	0	0	0	585	510	0	0	0	0	
13	0	0	0	0	586	513	0	0	0	0	
14	0	0	0	0	587	514	0	0	0	0	
15	0	0	0	0	587	515	0	0	0	0	
0	0	0	0	0	585	514	0	0	0	0	
1	0	0	0	0	583	512	0	0	0	0	
2	0	0	0	0	582	510	0	0	0	0	
3	0	0	0	0	578	507	0	0	0	0	
4	0	0	0	0	576	504	0	0	0	0	
5	0	0	0	0	574	501	0	0	0	0	
6	0	0	0	0	572	498	0	0	0	0	
7	0	0	0	0	569	494	0	0	0	0	
8	0	0	0	0	566	491	0	0	0	0	
9	0	0	0	0	564	488	0	0	0	0	
10	0	0	0	0	561	486	0	0	0	0	
11	0	0	0	0	559	483	0	0	0	0	
12	0	0	0	0	556	482	0	0	0	0	
13	0	0	0	0	553	480	0	0	0	0	
14	0	0	0	0	551	478	0	0	0	0	
15	0	0	0	0	546	475	0	0	0	0	
0	0	0	0	0	541	472	0	0	0	0	
1	0	0	0	0	535	467	0	0	0	0	
2	0	0	0	0	527	460	0	0	0	0	
3	0	0	0	0	517	450	0	0	0	0	
4	0	0	0	0	504	438	0	0	0	0	
5	0	0	0	0	490	424	0	0	0	0	
6	0	0	0	0	474	408	0	0	0	0	
7	0	0	0	0	456	390	0	0	0	0	
8	0	0	0	0	439	372	0	0	0	0	
9	0	0	0	0	423	355	0	0	0	0	
10	0	0	0	0	407	340	0	0	0	0	
11	0	0	0	0	393	326	0	0	0	0	
12	0	0	0	0	381	313	0	0	0	0	
13	0	0	0	0	372	304	0	0	0	0	
14	0	0	0	0	365	297	0	0	0	0	
15	0	0	0	0	362	294	0	0	0	0	
0	0	0	0	0	361	292	0	0	0	0	
1	0	0	0	0	363	294	0	0	0	0	
2	0	0	0	0	368	298	0	0	0	0	
3	0	0	0	0	376	305	0	0	0	0	
4	0	0	0	0	387	315	0	0	0	0	
5	0	0	0	0	400	327	0	0	0	0	
6	0	0	0	0	415	341	0	0	0	0	
7	0	0	0	0	431	357	0	0	0	0	
8	0	0	0	0	449	374	0	0	0	0	
9	0	0	0	0	467	391	0	0	0	0	
10	0	0	0	0	485	408	0	0	0	0	
11	0	0	0	0	502	425	0	0	0	0	
12	0	0	0	0	519	442	0	0	0	0	
13	0	0	0	0	535	457	0	0	0	0	
14	0	0	0	0	549	471	0	0	0	0	
15	0	0	0	0	561	483	0	0	0	0	
0	0	0	0	0	572	494	0	0	0	0	
1	0	0	0	0	582	503	0	0	0	0	
2	0	0	0	0	590	512	0	0	0	0	
3	0	0	0	0	596	519	0	0	0	0	
4	0	0	0	0	600	525	0	0	0	0	
5	0	0	0	0	603	529	0	0	0	0	
6	0	0	0	0	604	533	0	0	0	0	
7	0	0	0	0	604	534	0	0	0	0	
8	0	0	0	0	601	534	0	0	0	0	
9	0	0	0	0	597	531	0	0	0	0	
10	0	0	0	0	591	528	0	0	0	0	
11	0	0	0	0	585	524	0	0	0	0	
12	0	0	0	0	579	519	0	0	0	0	
13	0	0	0	0	574	514	0	0	0	0	
14	0	0	0	0	570	509	0	0	0	0	
15	0	0	0	0	567	505	0	0	0	0	
0	0	0	0	0	566	503	0	0	0	0	
1	0	0	0	0	565	500	0	0	0	0	
2	0	0	0	0	565	499	0	0	0	0	
3	0	0	0	0	567	498	0	0	0	0	
4	0	0	0	0	568	498	0	0	0	0	
5	0	0	0	0	571	499	0	0	0	0	
6	0	0	0	0	573	500	0	0	0	0	
7	0	0	0	0	576	503	0	0	0	0	
8	0	0	0	0	579	505	0	0	0	0	
9	0	0	0	0	581	508	0	0	0	0	
10	0	0	0	0	583	511	0	0	0	0	
11	0	0	0	0	585	513	0	0	0	0	
12	0	0	0	0	587	516	0	0	0	0	
13	0	0	0	0	588	519	0	0	0	0	
14	0	0	0	0	588	520	0	0	0	0	
15	0	0	0	0	589	521	0	0	0	0	
0	0	0	0	0	588	523	0	0	0	0	
1	0	0	0	0	587	523	0	0	0	0	
2	0	0	0	0	586	523	0	0	0	0	
3	0	0	0	0	584	521	0	0	0	0	
4	0	0	0	0	584	521	0	0	0	0	
5	0	0	0	0	583	519	0	0	0	0	
6	0	0	0	0	583	519	0	0	0	0	
7	0	0	0	0	583	519	0	0	0	0	
8	0	0	0	0	585	520	0	0	0	0	
9	0	0	0	0	588	521	0	0	0	0	
10	0	0	0	0	591	524	0	0	0	0	
11	0	0	0	0	595	527	0	0	0	0	
12	0	0	0	0	599	529	0	0	0	0	
13	0	0	0	0	603	532	0	0	0	0	
14	0	0	0	0	606	535	0	0	0	0	
15	0	0	0	0	608	537	0	0	0	0	
0	0	0	0	0	609	538	0	0	0	0	
1	0	0	0	0	609	538	0	0	0	0	
2	0	0	0	0	608	536	0	0	0	0	
3	0	0	0	0	605	535	0	0	0	0	
4	0	0	0	0	601	531	0	0	0	0	
5	0	0	0	0	595	527	0	0	0	0	
6	0	0	0	0	590	523	0	0	0	0	
7	0	0	0	0	583	518	0	0	0	0	
8	0	0	0	0	579	513	0	0	0	0	
9	0	0	0	0	573	509	0	0	0	0	
10	0	0	0	0	569	506	0	0	0	0	
11	0	0	0	0	566	503	0	0	0	0	
12	0	0	0	0	564	502	0	0	0	0	
13	0	0	0	0	564	502	0	0	0	0	
14	0	0	0	0	565	503	0	0	0	0	
15	0	0	0	0	568	506	0	0	0	0	
0	0	0	0	0	573	510	0	0	0	0	
1	0	0	0	0	578	515	0	0	0	0	
2	0	0	0	0	585	521	0	0	0	0	
3	0	0	0	0	591	526	0	0	0	0	
4	0	0	0	0	597	531	0	0	0	0	
5	0	0	0	0	601	536	0	0	0	0	
6	0	0	0	0	605	539	0	0	0	0	
7	0	0	0	0	607	541	0	0	0	0	
8	0	0	0	0	608	541	0	0	0	0	
9	0	0	0	0	607	541	0	0	0	0	
10	0	0	0	0	605	540	0	0	0	0	
11	0	0	0	0	603	537	0	0	0	0	
12	0	0	0	0	600	535	0	0	0	0	
13	0	0	0	0	596	531	0	0	0	0	
14	0	0	0	0	593	528	0	0	0	0	
15	0	0	0	0	591	526	0	0	0	0	
0	0	0	0	0	589	524	0	0	0	0	
