# OpenSignals Text File Format. Version 1
# {"": {"position": 0, "device": "", "device name": "", "device connection": "", "sampling rate": 1000, "resolution": [4, 1, 1, 1, 1, 10, 10, 10, 10, 6, 6], "firmware version": 1281, "comments": "", "keywords": "", "mode": 0, "sync interval": 2, "date": "", "time": "", "channels": [1, 2, 3, 4, 5, 6], "sensor": ["RAW", "RAW", "RAW", "RAW", "RAW", "RAW"], "label": ["A1", "A2", "A3", "A4", "A5", "A6"], "column": ["nSeq", "I1", "I2", "O1", "O2", "A1", "A2", "A3", "A4", "A5", "A6"], "special": [{}, {}, {}, {}, {}, {}], "digital IO": [0, 0, 1, 1]}}
# EndOfHeader
0	0	0	0	0	549	486	0	0	0	0	
1	0	0	0	0	550	487	0	0	0	0	
2	0	0	0	0	551	487	0	0	0	0	
3	0	0	0	0	551	487	0	0	0	0	
4	0	0	0	0	551	486	0	0	0	0	
5	0	0	0	0	551	486	0	0	0	0	
6	0	0	0	0	551	485	0	0	0	0	
7	0	0	0	0	551	484	0	0	0	0	
8	0	0	0	0	551	484	0	0	0	0	
9	0	0	0	0	551	485	0	0	0	0	
10	0	0	0	0	551	485	0	0	0	0	
11	0	0	0	0	551	485	0	0	0	0	
12	0	0	0	0	551	486	0	0	0	0	
13	0	0	0	0	551	486	0	0	0	0	
14	0	0	0	0	549	485	0	0	0	0	
15	0	0	0	0	547	484	0	0	0	0	
0	0	0	0	0	544	482	0	0	0	0	
1	0	0	0	0	540	479	0	0	0	0	
2	0	0	0	0	535	476	0	0	0	0	
3	0	0	0	0	530	471	0	0	0	0	
4	0	0	0	0	524	466	0	0	0	0	
5	0	0	0	0	519	461	0	0	0	0	
6	0	0	0	0	513	456	0	0	0	0	
7	0	0	0	0	508	451	0	0	0	0	
8	0	0	0	0	503	446	0	0	0	0	
9	0	0	0	0	500	442	0	0	0	0	
10	0	0	0	0	498	440	0	0	0	0	
11	0	0	0	0	498	438	0	0	0	0	
12	0	0	0	0	499	438	0	0	0	0	
13	0	0	0	0	502	440	0	0	0	0	
14	0	0	0	0	507	443	0	0	0	0	
15	0	0	0	0	512	448	0	0	0	0	
0	0	0	0	0	519	453	0	0	0	0	
1	0	0	0	0	525	459	0	0	0	0	
2	0	0	0	0	531	464	0	0	0	0	
3	0	0	0	0	537	470	0	0	0	0	
4	0	0	0	0	542	476	0	0	0	0	
5	0	0	0	0	545	480	0	0	0	0	
6	0	0	0	0	548	484	0	0	0	0	
7	0	0	0	0	550	486	0	0	0	0	
8	0	0	0	0	551	488	0	0	0	0	
9	0	0	0	0	551	489	0	0	0	0	
10	0	0	0	0	550	489	0	0	0	0	
11	0	0	0	0	547	489	0	0	0	0	
12	0	0	0	0	544	487	0	0	0	0	
13	0	0	0	0	541	485	0	0	0	0	
14	0	0	0	0	537	482	0	0	0	0	
15	0	0	0	0	534	479	0	0	0	0	
0	0	0	0	0	530	476	0	0	0	0	
1	0	0	0	0	528	473	0	0	0	0	
2	0	0	0	0	526	472	0	0	0	0	
3	0	0	0	0	526	471	0	0	0	0	
4	0	0	0	0	525	470	0	0	0	0	
5	0	0	0	0	526	470	0	0	0	0	
6	0	0	0	0	528	472	0	0	0	0	
7	0	0	0	0	530	473	0	0	0	0	
8	0	0	0	0	534	476	0	0	0	0	
9	0	0	0	0	537	478	0	0	0	0	
10	0	0	0	0	541	481	0	0	0	0	
11	0	0	0	0	545	483	0	0	0	0	
12	0	0	0	0	548	485	0	0	0	0	
13	0	0	0	0	550	487	0	0	0	0	
14	0	0	0	0	551	487	0	0	0	0	
15	0	0	0	0	552	488	0	0	0	0	
0	0	0	0	0	552	488	0	0	0	0	
1	0	0	0	0	551	488	0	0	0	0	
2	0	0	0	0	551	487	0	0	0	0	
3	0	0	0	0	549	486	0	0	0	0	
4	0	0	0	0	548	485	0	0	0	0	
5	0	0	0	0	546	483	0	0	0	0	
6	0	0	0	0	545	482	0	0	0	0	
7	0	0	0	0	543	480	0	0	0	0	
8	0	0	0	0	543	480	0	0	0	0	
9	0	0	0	0	542	479	0	0	0	0	
10	0	0	0	0	541	478	0	0	0	0	
11	0	0	0	0	540	476	0	0	0	0	
12	0	0	0	0	539	475	0	0	0	0	
13	0	0	0	0	537	474	0	0	0	0	
14	0	0	0	0	534	472	0	0	0	0	
15	0	0	0	0	531	469	0	0	0	0	
0	0	0	0	0	527	466	0	0	0	0	
1	0	0	0	0	523	462	0	0	0	0	
2	0	0	0	0	517	458	0	0	0	0	
3	0	0	0	0	512	454	0	0	0	0	
4	0	0	0	0	506	449	0	0	0	0	
5	0	0	0	0	500	444	0	0	0	0	
6	0	0	0	0	496	440	0	0	0	0	
7	0	0	0	0	492	436	0	0	0	0	
8	0	0	0	0	489	435	0	0	0	0	
9	0	0	0	0	489	434	0	0	0	0	
10	0	0	0	0	490	435	0	0	0	0	
11	0	0	0	0	494	439	0	0	0	0	
12	0	0	0	0	499	443	0	0	0	0	
13	0	0	0	0	506	449	0	0	0	0	
14	0	0	0	0	514	455	0	0	0	0	
15	0	0	0	0	523	462	0	0	0	0	
0	0	0	0	0	531	468	0	0	0	0	
1	0	0	0	0	538	474	0	0	0	0	
2	0	0	0	0	544	479	0	0	0	0	
3	0	0	0	0	549	483	0	0	0	0	
4	0	0	0	0	551	485	0	0	0	0	
5	0	0	0	0	552	486	0	0	0	0	
6	0	0	0	0	551	484	0	0	0	0	
7	0	0	0	0	548	482	0	0	0	0	
8	0	0	0	0	544	479	0	0	0	0	
9	0	0	0	0	539	474	0	0	0	0	
10	0	0	0	0	534	470	0	0	0	0	
11	0	0	0	0	528	466	0	0	0	0	
12	0	0	0	0	524	463	0	0	0	0	
13	0	0	0	0	523	462	0	0	0	0	
14	0	0	0	0	522	463	0	0	0	0	
15	0	0	0	0	524	464	0	0	0	0	
0	0	0	0	0	526	467	0	0	0	0	
1	0	0	0	0	529	470	0	0	0	0	
2	0	0	0	0	534	473	0	0	0	0	
3	0	0	0	0	537	476	0	0	0	0	
4	0	0	0	0	540	478	0	0	0	0	
5	0	0	0	0	543	480	0	0	0	0	
6	0	0	0	0	544	480	0	0	0	0	
7	0	0	0	0	544	480	0	0	0	0	
8	0	0	0	0	543	478	0	0	0	0	
9	0	0	0	0	540	476	0	0	0	0	
10	0	0	0	0	537	472	0	0	0	0	
11	0	0	0	0	532	468	0	0	0	0	
12	0	0	0	0	527	463	0	0	0	0	
13	0	0	0	0	522	459	0	0	0	0	
14	0	0	0	0	517	455	0	0	0	0	
15	0	0	0	0	512	451	0	0	0	0	
0	0	0	0	0	510	449	0	0	0	0	
1	0	0	0	0	508	447	0	0	0	0	
2	0	0	0	0	508	448	0	0	0	0	
3	0	0	0	0	509	449	0	0	0	0	
4	0	0	0	0	512	453	0	0	0	0	
5	0	0	0	0	517	457	0	0	0	0	
6	0	0	0	0	523	462	0	0	0	0	
7	0	0	0	0	529	468	0	0	0	0	
8	0	0	0	0	535	473	0	0	0	0	
9	0	0	0	0	540	477	0	0	0	0	
10	0	0	0	0	544	481	0	0	0	0	
11	0	0	0	0	548	483	0	0	0	0	
12	0	0	0	0	550	484	0	0	0	0	
13	0	0	0	0	551	484	0	0	0	0	
14	0	0	0	0	550	482	0	0	0	0	
15	0	0	0	0	547	480	0	0	0	0	
0	0	0	0	0	545	477	0	0	0	0	
1	0	0	0	0	542	475	0	0	0	0	
2	0	0	0	0	539	472	0	0	0	0	
3	0	0	0	0	537	471	0	0	0	0	
4	0	0	0	0	535	469	0	0	0	0	
5	0	0	0	0	534	469	0	0	0	0	
6	0	0	0	0	534	470	0	0	0	0	
7	0	0	0	0	534	471	0	0	0	0	
8	0	0	0	0	535	473	0	0	0	0	
9	0	0	0	0	535	474	0	0	0	0	
10	0	0	0	0	535	475	0	0	0	0	
11	0	0	0	0	535	475	0	0	0	0	
12	0	0	0	0	532	474	0	0	0	0	
13	0	0	0	0	530	472	0	0	0	0	
14	0	0	0	0	527	470	0	0	0	0	
15	0	0	0	0	523	466	0	0	0	0	
0	0	0	0	0	519	462	0	0	0	0	
1	0	0	0	0	515	457	0	0	0	0	
2	0	0	0	0	512	454	0	0	0	0	
3	0	0	0	0	509	450	0	0	0	0	
4	0	0	0	0	507	447	0	0	0	0	
5	0	0	0	0	506	445	0	0	0	0	
6	0	0	0	0	506	444	0	0	0	0	
7	0	0	0	0	506	443	0	0	0	0	
8	0	0	0	0	507	442	0	0	0	0	
9	0	0	0	0	509	443	0	0	0	0	
10	0	0	0	0	511	444	0	0	0	0	
11	0	0	0	0	514	446	0	0	0	0	
12	0	0	0	0	517	448	0	0	0	0	
13	0	0	0	0	520	451	0	0	0	0	
14	0	0	0	0	523	453	0	0	0	0	
15	0	0	0	0	526	455	0	0	0	0	
0	0	0	0	0	528	459	0	0	0	0	
1	0	0	0	0	530	461	0	0	0	0	
2	0	0	0	0	531	463	0	0	0	0	
3	0	0	0	0	532	465	0	0	0	0	
4	0	0	0	0	532	466	0	0	0	0	
5	0	0	0	0	531	466	0	0	0	0	
6	0	0	0	0	529	465	0	0	0	0	
7	0	0	0	0	526	463	0	0	0	0	
8	0	0	0	0	522	460	0	0	0	0	
9	0	0	0	0	518	457	0	0	0	0	
10	0	0	0	0	514	455	0	0	0	0	
11	0	0	0	0	511	452	0	0	0	0	
12	0	0	0	0	508	450	0	0	0	0	
13	0	0	0	0	508	449	0	0	0	0	
14	0	0	0	0	508	450	0	0	0	0	
15	0	0	0	0	510	452	0	0	0	0	
0	0	0	0	0	514	455	0	0	0	0	
1	0	0	0	0	518	459	0	0	0	0	
2	0	0	0	0	524	463	0	0	0	0	
3	0	0	0	0	529	467	0	0	0	0	
4	0	0	0	0	534	472	0	0	0	0	
5	0	0	0	0	539	476	0	0	0	0	
6	0	0	0	0	543	480	0	0	0	0	
7	0	0	0	0	546	483	0	0	0	0	
8	0	0	0	0	549	485	0	0	0	0	
9	0	0	0	0	551	486	0	0	0	0	
10	0	0	0	0	552	487	0	0	0	0	
11	0	0	0	0	553	488	0	0	0	0	
12	0	0	0	0	553	487	0	0	0	0	
13	0	0	0	0	552	487	0	0	0	0	
14	0	0	0	0	550	485	0	0	0	0	
15	0	0	0	0	548	482	0	0	0	0	
0	0	0	0	0	544	479	0	0	0	0	
1	0	0	0	0	540	476	0	0	0	0	
2	0	0	0	0	537	473	0	0	0	0	
3	0	0	0	0	534	471	0	0	0	0	
4	0	0	0	0	531	468	0	0	0	0	
5	0	0	0	0	528	467	0	0	0	0	
6	0	0	0	0	527	467	0	0	0	0	
7	0	0	0	0	527	467	0	0	0	0	
8	0	0	0	0	527	468	0	0	0	0	
9	0	0	0	0	528	471	0	0	0	0	
10	0	0	0	0	530	473	0	0	0	0	
11	0	0	0	0	533	475	0	0	0	0	
12	0	0	0	0	536	477	0	0	0	0	
13	0	0	0	0	538	479	0	0	0	0	
14	0	0	0	0	541	481	0	0	0	0	
15	0	0	0	0	542	481	0	0	0	0	
0	0	0	0	0	543	480	0	0	0	0	
1	0	0	0	0	542	478	0	0	0	0	
2	0	0	0	0	540	476	0	0	0	0	
3	0	0	0	0	536	472	0	0	0	0	
4	0	0	0	0	532	467	0	0	0	0	
5	0	0	0	0	527	463	0	0	0	0	
6	0	0	0	0	523	459	0	0	0	0	
7	0	0	0	0	518	455	0	0	0	0	
8	0	0	0	0	514	452	0	0	0	0	
9	0	0	0	0	511	451	0	0	0	0	
10	0	0	0	0	509	450	0	0	0	0	
11	0	0	0	0	507	449	0	0	0	0	
12	0	0	0	0	508	451	0	0	0	0	
13	0	0	0	0	509	452	0	0	0	0	
14	0	0	0	0	511	454	0	0	0	0	
15	0	0	0	0	512	456	0	0	0	0	
0	0	0	0	0	514	457	0	0	0	0	
1	0	0	0	0	515	457	0	0	0	0	
2	0	0	0	0	517	457	0	0	0	0	
3	0	0	0	0	517	456	0	0	0	0	
4	0	0	0	0	518	455	0	0	0	0	
5	0	0	0	0	519	455	0	0	0	0	
6	0	0	0	0	520	455	0	0	0	0	
7	0	0	0	0	521	455	0	0	0	0	
8	0	0	0	0	523	456	0	0	0	0	
9	0	0	0	0	526	458	0	0	0	0	
10	0	0	0	0	528	459	0	0	0	0	
11	0	0	0	0	529	461	0	0	0	0	
12	0	0	0	0	531	463	0	0	0	0	
13	0	0	0	0	531	463	0	0	0	0	
14	0	0	0	0	530	463	0	0	0	0	
15	0	0	0	0	528	462	0	0	0	0	
0	0	0	0	0	525	459	0	0	0	0	
1	0	0	0	0	520	455	0	0	0	0	
2	0	0	0	0	515	451	0	0	0	0	
3	0	0	0	0	509	447	0	0	0	0	
4	0	0	0	0	504	441	0	0	0	0	
5	0	0	0	0	499	437	0	0	0	0	
6	0	0	0	0	494	433	0	0	0	0	
7	0	0	0	0	491	429	0	0	0	0	
8	0	0	0	0	487	425	0	0	0	0	
9	0	0	0	0	486	423	0	0	0	0	
10	0	0	0	0	486	421	0	0	0	0	
11	0	0	0	0	486	420	0	0	0	0	
12	0	0	0	0	487	421	0	0	0	0	
13	0	0	0	0	490	422	0	0	0	0	
14	0	0	0	0	494	425	0	0	0	0	
15	0	0	0	0	498	429	0	0	0	0	
0	0	0	0	0	503	433	0	0	0	0	
1	0	0	0	0	508	439	0	0	0	0	
2	0	0	0	0	514	445	0	0	0	0	
3	0	0	0	0	520	451	0	0	0	0	
4	0	0	0	0	525	456	0	0	0	0	
5	0	0	0	0	530	461	0	0	0	0	
6	0	0	0	0	533	465	0	0	0	0	
7	0	0	0	0	536	468	0	0	0	0	
8	0	0	0	0	537	470	0	0	0	0	
9	0	0	0	0	537	471	0	0	0	0	
10	0	0	0	0	536	469	0	0	0	0	
11	0	0	0	0	535	467	0	0	0	0	
12	0	0	0	0	531	464	0	0	0	0	
13	0	0	0	0	528	460	0	0	0	0	
14	0	0	0	0	525	457	0	0	0	0	
15	0	0	0	0	523	455	0	0	0	0	
0	0	0	0	0	521	454	0	0	0	0	
1	0	0	0	0	522	454	0	0	0	0	
2	0	0	0	0	524	455	0	0	0	0	
3	0	0	0	0	528	459	0	0	0	0	
4	0	0	0	0	533	464	0	0	0	0	
5	0	0	0	0	539	470	0	0	0	0	
6	0	0	0	0	544	475	0	0	0	0	
7	0	0	0	0	550	480	0	0	0	0	
8	0	0	0	0	554	485	0	0	0	0	
9	0	0	0	0	557	488	0	0	0	0	
10	0	0	0	0	558	489	0	0	0	0	
11	0	0	0	0	556	489	0	0	0	0	
12	0	0	0	0	553	486	0	0	0	0	
13	0	0	0	0	547	482	0	0	0	0	
14	0	0	0	0	539	476	0	0	0	0	
15	0	0	0	0	530	468	0	0	0	0	
0	0	0	0	0	520	459	0	0	0	0	
1	0	0	0	0	510	450	0	0	0	0	
2	0	0	0	0	501	441	0	0	0	0	
3	0	0	0	0	493	434	0	0	0	0	
4	0	0	0	0	486	428	0	0	0	0	
5	0	0	0	0	483	424	0	0	0	0	
6	0	0	0	0	482	423	0	0	0	0	
7	0	0	0	0	484	424	0	0	0	0	
8	0	0	0	0	489	428	0	0	0	0	
9	0	0	0	0	496	433	0	0	0	0	
10	0	0	0	0	504	440	0	0	0	0	
11	0	0	0	0	515	447	0	0	0	0	
12	0	0	0	0	524	455	0	0	0	0	
13	0	0	0	0	534	463	0	0	0	0	
14	0	0	0	0	541	469	0	0	0	0	
15	0	0	0	0	546	473	0	0	0	0	
0	0	0	0	0	547	474	0	0	0	0	
1	0	0	0	0	544	472	0	0	0	0	
2	0	0	0	0	539	467	0	0	0	0	
3	0	0	0	0	529	459	0	0	0	0	
4	0	0	0	0	516	449	0	0	0	0	
5	0	0	0	0	503	438	0	0	0	0	
6	0	0	0	0	490	427	0	0	0	0	
7	0	0	0	0	478	418	0	0	0	0	
8	0	0	0	0	469	411	0	0	0	0	
9	0	0	0	0	463	407	0	0	0	0	
10	0	0	0	0	461	405	0	0	0	0	
11	0	0	0	0	461	406	0	0	0	0	
12	0	0	0	0	463	407	0	0	0	0	
13	0	0	0	0	467	409	0	0	0	0	
14	0	0	0	0	470	411	0	0	0	0	
15	0	0	0	0	472	411	0	0	0	0	
0	0	0	0	0	471	409	0	0	0	0	
1	0	0	0	0	467	404	0	0	0	0	
2	0	0	0	0	460	396	0	0	0	0	
3	0	0	0	0	448	383	0	0	0	0	
4	0	0	0	0	432	367	0	0	0	0	
5	0	0	0	0	412	348	0	0	0	0	
6	0	0	0	0	388	326	0	0	0	0	
7	0	0	0	0	362	302	0	0	0	0	
8	0	0	0	0	335	277	0	0	0	0	
9	0	0	0	0	307	251	0	0	0	0	
10	0	0	0	0	281	227	0	0	0	0	
11	0	0	0	0	256	204	0	0	0	0	
12	0	0	0	0	235	184	0	0	0	0	
13	0	0	0	0	220	169	0	0	0	0	
14	0	0	0	0	210	159	0	0	0	0	
15	0	0	0	0	207	156	0	0	0	0	
0	0	0	0	0	211	158	0	0	0	0	
1	0	0	0	0	222	166	0	0	0	0	
2	0	0	0	0	240	180	0	0	0	0	
3	0	0	0	0	263	199	0	0	0	0	
4	0	0	0	0	291	223	0	0	0	0	
5	0	0	0	0	321	250	0	0	0	0	
6	0	0	0	0	354	278	0	0	0	0	
7	0	0	0	0	388	307	0	0	0	0	
8	0	0	0	0	420	336	0	0	0	0	
9	0	0	0	0	451	364	0	0	0	0	
10	0	0	0	0	478	389	0	0	0	0	
11	0	0	0	0	501	412	0	0	0	0	
12	0	0	0	0	521	432	0	0	0	0	
13	0	0	0	0	537	449	0	0	0	0	
14	0	0	0	0	548	463	0	0	0	0	
15	0	0	0	0	556	474	0	0	0	0	
0	0	0	0	0	561	482	0	0	0	0	
1	0	0	0	0	563	487	0	0	0	0	
2	0	0	0	0	562	490	0	0	0	0	
3	0	0	0	0	559	491	0	0	0	0	
4	0	0	0	0	556	491	0	0	0	0	
5	0	0	0	0	551	489	0	0	0	0	
6	0	0	0	0	547	487	0	0	0	0	
7	0	0	0	0	543	485	0	0	0	0	
8	0	0	0	0	540	483	0	0	0	0	
9	0	0	0	0	537	482	0	0	0	0	
10	0	0	0	0	538	481	0	0	0	0	
11	0	0	0	0	539	482	0	0	0	0	
12	0	0	0	0	542	483	0	0	0	0	
13	0	0	0	0	545	486	0	0	0	0	
14	0	0	0	0	550	488	0	0	0	0	
15	0	0	0	0	553	489	0	0	0	0	
0	0	0	0	0	556	491	0	0	0	0	
1	0	0	0	0	557	490	0	0	0	0	
2	0	0	0	0	556	488	0	0	0	0	
3	0	0	0	0	553	484	0	0	0	0	
4	0	0	0	0	549	480	0	0	0	0	
5	0	0	0	0	542	475	0	0	0	0	
6	0	0	0	0	535	468	0	0	0	0	
7	0	0	0	0	528	463	0	0	0	0	
8	0	0	0	0	520	458	0	0	0	0	
9	0	0	0	0	514	455	0	0	0	0	
10	0	0	0	0	509	451	0	0	0	0	
11	0	0	0	0	505	449	0	0	0	0	
12	0	0	0	0	503	449	0	0	0	0	
13	0	0	0	0	501	449	0	0	0	0	
14	0	0	0	0	502	449	0	0	0	0	
15	0	0	0	0	503	451	0	0	0	0	
0	0	0	0	0	504	451	0	0	0	0	
1	0	0	0	0	507	452	0	0	0	0	
2	0	0	0	0	509	453	0	0	0	0	
3	0	0	0	0	511	453	0	0	0	0	
4	0	0	0	0	512	453	0	0	0	0	
5	0	0	0	0	514	452	0	0	0	0	
6	0	0	0	0	514	451	0	0	0	0	
7	0	0	0	0	515	451	0	0	0	0	
8	0	0	0	0	515	450	0	0	0	0	
9	0	0	0	0	515	449	0	0	0	0	
10	0	0	0	0	516	450	0	0	0	0	
11	0	0	0	0	517	452	0	0	0	0	
12	0	0	0	0	519	454	0	0	0	0	
13	0	0	0	0	521	457	0	0	0	0	
14	0	0	0	0	524	460	0	0	0	0	
15	0	0	0	0	526	464	0	0	0	0	
0	0	0	0	0	529	467	0	0	0	0	
1	0	0	0	0	532	472	0	0	0	0	
2	0	0	0	0	535	475	0	0	0	0	
3	0	0	0	0	537	477	0	0	0	0	
4	0	0	0	0	540	479	0	0	0	0	
5	0	0	0	0	540	480	0	0	0	0	
6	0	0	0	0	541	479	0	0	0	0	
7	0	0	0	0	540	478	0	0	0	0	
8	0	0	0	0	540	477	0	0	0	0	
9	0	0	0	0	539	475	0	0	0	0	
10	0	0	0	0	539	474	0	0	0	0	
11	0	0	0	0	539	473	0	0	0	0	
12	0	0	0	0	539	473	0	0	0	0	
13	0	0	0	0	539	474	0	0	0	0	
14	0	0	0	0	540	475	0	0	0	0	
15	0	0	0	0	541	476	0	0	0	0	
0	0	0	0	0	542	476	0	0	0	0	
1	0	0	0	0	542	478	0	0	0	0	
2	0	0	0	0	542	478	0	0	0	0	
3	0	0	0	0	542	478	0	0	0	0	
4	0	0	0	0	540	477	0	0	0	0	
5	0	0	0	0	538	476	0	0	0	0	
6	0	0	0	0	536	474	0	0	0	0	
7	0	0	0	0	532	472	0	0	0	0	
8	0	0	0	0	529	470	0	0	0	0	
9	0	0	0	0	526	467	0	0	0	0	
10	0	0	0	0	522	464	0	0	0	0	
11	0	0	0	0	519	461	0	0	0	0	
12	0	0	0	0	515	458	0	0	0	0	
13	0	0	0	0	513	456	0	0	0	0	
14	0	0	0	0	512	455	0	0	0	0	
15	0	0	0	0	512	454	0	0	0	0	
0	0	0	0	0	513	454	0	0	0	0	
1	0	0	0	0	515	454	0	0	0	0	
2	0	0	0	0	517	455	0	0	0	0	
3	0	0	0	0	519	455	0	0	0	0	
4	0	0	0	0	522	456	0	0	0	0	
5	0	0	0	0	524	457	0	0	0	0	
6	0	0	0	0	527	458	0	0	0	0	
7	0	0	0	0	528	460	0	0	0	0	
8	0	0	0	0	530	460	0	0	0	0	
9	0	0	0	0	531	462	0	0	0	0	
10	0	0	0	0	531	462	0	0	0	0	
11	0	0	0	0	531	462	0	0	0	0	
12	0	0	0	0	531	462	0	0	0	0	
13	0	0	0	0	529	462	0	0	0	0	
14	0	0	0	0	527	460	0	0	0	0	
15	0	0	0	0	524	459	0	0	0	0	
0	0	0	0	0	522	456	0	0	0	0	
1	0	0	0	0	519	454	0	0	0	0	
2	0	0	0	0	516	451	0	0	0	0	
3	0	0	0	0	513	449	0	0	0	0	
4	0	0	0	0	511	447	0	0	0	0	
5	0	0	0	0	510	446	0	0	0	0	
6	0	0	0	0	509	445	0	0	0	0	
7	0	0	0	0	509	445	0	0	0	0	
8	0	0	0	0	509	445	0	0	0	0	
9	0	0	0	0	510	445	0	0	0	0	
10	0	0	0	0	512	446	0	0	0	0	
11	0	0	0	0	514	448	0	0	0	0	
12	0	0	0	0	517	450	0	0	0	0	
13	0	0	0	0	520	452	0	0	0	0	
14	0	0	0	0	523	455	0	0	0	0	
15	0	0	0	0	526	457	0	0	0	0	
0	0	0	0	0	529	459	0	0	0	0	
1	0	0	0	0	531	460	0	0	0	0	
2	0	0	0	0	532	461	0	0	0	0	
3	0	0	0	0	533	462	0	0	0	0	
4	0	0	0	0	533	462	0	0	0	0	
5	0	0	0	0	533	462	0	0	0	0	
6	0	0	0	0	532	462	0	0	0	0	
7	0	0	0	0	531	462	0	0	0	0	
8	0	0	0	0	530	462	0	0	0	0	
9	0	0	0	0	529	461	0	0	0	0	
10	0	0	0	0	528	461	0	0	0	0	
11	0	0	0	0	527	461	0	0	0	0	
12	0	0	0	0	526	461	0	0	0	0	
13	0	0	0	0	524	460	0	0	0	0	
14	0	0	0	0	524	460	0	0	0	0	
15	0	0	0	0	524	460	0	0	0	0	
0	0	0	0	0	524	460	0	0	0	0	
1	0	0	0	0	524	460	0	0	0	0	
2	0	0	0	0	525	461	0	0	0	0	
3	0	0	0	0	527	462	0	0	0	0	
4	0	0	0	0	528	463	0	0	0	0	
5	0	0	0	0	529	463	0	0	0	0	
6	0	0	0	0	529	462	0	0	0	0	
7	0	0	0	0	528	460	0	0	0	0	
8	0	0	0	0	526	456	0	0	0	0	
9	0	0	0	0	523	452	0	0	0	0	
10	0	0	0	0	517	447	0	0	0	0	
11	0	0	0	0	511	442	0	0	0	0	
12	0	0	0	0	506	437	0	0	0	0	
13	0	0	0	0	500	433	0	0	0	0	
14	0	0	0	0	495	429	0	0	0	0	
15	0	0	0	0	491	427	0	0	0	0	
0	0	0	0	0	488	425	0	0	0	0	
1	0	0	0	0	487	425	0	0	0	0	
2	0	0	0	0	486	425	0	0	0	0	
3	0	0	0	0	487	426	0	0	0	0	
4	0	0	0	0	488	427	0	0	0	0	
5	0	0	0	0	490	428	0	0	0	0	
6	0	0	0	0	492	429	0	0	0	0	
7	0	0	0	0	494	429	0	0	0	0	
8	0	0	0	0	496	428	0	0	0	0	
9	0	0	0	0	497	429	0	0	0	0	
10	0	0	0	0	499	428	0	0	0	0	
11	0	0	0	0	501	428	0	0	0	0	
12	0	0	0	0	503	429	0	0	0	0	
13	0	0	0	0	506	430	0	0	0	0	
14	0	0	0	0	509	432	0	0	0	0	
15	0	0	0	0	511	435	0	0	0	0	
0	0	0	0	0	514	437	0	0	0	0	
1	0	0	0	0	517	440	0	0	0	0	
2	0	0	0	0	520	444	0	0	0	0	
3	0	0	0	0	523	448	0	0	0	0	
4	0	0	0	0	526	452	0	0	0	0	
5	0	0	0	0	529	456	0	0	0	0	
6	0	0	0	0	531	460	0	0	0	0	
7	0	0	0	0	533	463	0	0	0	0	
8	0	0	0	0	535	464	0	0	0	0	
9	0	0	0	0	535	466	0	0	0	0	
10	0	0	0	0	535	466	0	0	0	0	
11	0	0	0	0	534	465	0	0	0	0	
12	0	0	0	0	533	464	0	0	0	0	
13	0	0	0	0	531	462	0	0	0	0	
14	0	0	0	0	528	460	0	0	0	0	
15	0	0	0	0	525	456	0	0	0	0	
0	0	0	0	0	523	454	0	0	0	0	
1	0	0	0	0	521	451	0	0	0	0	
2	0	0	0	0	519	448	0	0	0	0	
3	0	0	0	0	518	446	0	0	0	0	
4	0	0	0	0	516	444	0	0	0	0	
5	0	0	0	0	516	443	0	0	0	0	
6	0	0	0	0	516	443	0	0	0	0	
7	0	0	0	0	517	444	0	0	0	0	
8	0	0	0	0	519	446	0	0	0	0	
9	0	0	0	0	521	449	0	0	0	0	
10	0	0	0	0	525	452	0	0	0	0	
11	0	0	0	0	529	457	0	0	0	0	
12	0	0	0	0	534	463	0	0	0	0	
13	0	0	0	0	539	468	0	0	0	0	
14	0	0	0	0	543	472	0	0	0	0	
15	0	0	0	0	546	475	0	0	0	0	
0	0	0	0	0	547	476	0	0	0	0	
1	0	0	0	0	545	474	0	0	0	0	
2	0	0	0	0	541	470	0	0	0	0	
3	0	0	0	0	534	463	0	0	0	0	
4	0	0	0	0	524	455	0	0	0	0	
5	0	0	0	0	513	445	0	0	0	0	
6	0	0	0	0	502	435	0	0	0	0	
7	0	0	0	0	491	425	0	0	0	0	
8	0	0	0	0	481	416	0	0	0	0	
9	0	0	0	0	473	409	0	0	0	0	
10	0	0	0	0	468	404	0	0	0	0	
11	0	0	0	0	465	403	0	0	0	0	
12	0	0	0	0	465	403	0	0	0	0	
13	0	0	0	0	469	407	0	0	0	0	
14	0	0	0	0	475	413	0	0	0	0	
15	0	0	0	0	484	422	0	0	0	0	
0	0	0	0	0	495	431	0	0	0	0	
1	0	0	0	0	507	441	0	0	0	0	
2	0	0	0	0	519	453	0	0	0	0	
3	0	0	0	0	530	463	0	0	0	0	
4	0	0	0	0	541	471	0	0	0	0	
5	0	0	0	0	549	478	0	0	0	0	
6	0	0	0	0	556	484	0	0	0	0	
7	0	0	0	0	560	487	0	0	0	0	
8	0	0	0	0	562	489	0	0	0	0	
9	0	0	0	0	561	488	0	0	0	0	
10	0	0	0	0	559	486	0	0	0	0	
11	0	0	0	0	553	482	0	0	0	0	
12	0	0	0	0	547	476	0	0	0	0	
13	0	0	0	0	539	470	0	0	0	0	
14	0	0	0	0	530	463	0	0	0	0	
15	0	0	0	0	523	457	0	0	0	0	
0	0	0	0	0	516	452	0	0	0	0	
1	0	0	0	0	511	449	0	0	0	0	
2	0	0	0	0	508	447	0	0	0	0	
3	0	0	0	0	508	448	0	0	0	0	
4	0	0	0	0	508	449	0	0	0	0	
5	0	0	0	0	510	451	0	0	0	0	
6	0	0	0	0	513	453	0	0	0	0	
7	0	0	0	0	515	455	0	0	0	0	
8	0	0	0	0	518	457	0	0	0	0	
9	0	0	0	0	520	459	0	0	0	0	
10	0	0	0	0	522	459	0	0	0	0	
11	0	0	0	0	522	459	0	0	0	0	
12	0	0	0	0	521	457	0	0	0	0	
13	0	0	0	0	521	455	0	0	0	0	
14	0	0	0	0	520	455	0	0	0	0	
15	0	0	0	0	519	453	0	0	0	0	
0	0	0	0	0	518	452	0	0	0	0	
1	0	0	0	0	519	451	0	0	0	0	
2	0	0	0	0	519	452	0	0	0	0	
3	0	0	0	0	520	453	0	0	0	0	
4	0	0	0	0	521	455	0	0	0	0	
5	0	0	0	0	523	457	0	0	0	0	
6	0	0	0	0	525	459	0	0	0	0	
7	0	0	0	0	527	461	0	0	0	0	
8	0	0	0	0	528	463	0	0	0	0	
9	0	0	0	0	530	465	0	0	0	0	
10	0	0	0	0	530	466	0	0	0	0	
11	0	0	0	0	531	467	0	0	0	0	
12	0	0	0	0	531	468	0	0	0	0	
13	0	0	0	0	531	468	0	0	0	0	
14	0	0	0	0	531	468	0	0	0	0	
15	0	0	0	0	531	469	0	0	0	0	
0	0	0	0	0	531	469	0	0	0	0	
1	0	0	0	0	532	469	0	0	0	0	
2	0	0	0	0	533	470	0	0	0	0	
3	0	0	0	0	534	470	0	0	0	0	
4	0	0	0	0	536	472	0	0	0	0	
5	0	0	0	0	538	473	0	0	0	0	
6	0	0	0	0	541	474	0	0	0	0	
7	0	0	0	0	542	476	0	0	0	0	
8	0	0	0	0	543	476	0	0	0	0	
9	0	0	0	0	543	476	0	0	0	0	
10	0	0	0	0	541	476	0	0	0	0	
11	0	0	0	0	539	474	0	0	0	0	
12	0	0	0	0	536	472	0	0	0	0	
13	0	0	0	0	532	469	0	0	0	0	
14	0	0	0	0	527	466	0	0	0	0	
15	0	0	0	0	523	463	0	0	0	0	
0	0	0	0	0	519	459	0	0	0	0	
1	0	0	0	0	515	455	0	0	0	0	
2	0	0	0	0	512	452	0	0	0	0	
3	0	0	0	0	509	449	0	0	0	0	
4	0	0	0	0	507	447	0	0	0	0	
5	0	0	0	0	507	445	0	0	0	0	
6	0	0	0	0	507	446	0	0	0	0	
7	0	0	0	0	509	447	0	0	0	0	
8	0	0	0	0	511	449	0	0	0	0	
9	0	0	0	0	514	452	0	0	0	0	
10	0	0	0	0	518	456	0	0	0	0	
11	0	0	0	0	521	460	0	0	0	0	
12	0	0	0	0	524	464	0	0	0	0	
13	0	0	0	0	527	467	0	0	0	0	
14	0	0	0	0	528	468	0	0	0	0	
15	0	0	0	0	528	469	0	0	0	0	
0	0	0	0	0	526	468	0	0	0	0	
1	0	0	0	0	523	465	0	0	0	0	
2	0	0	0	0	518	461	0	0	0	0	
3	0	0	0	0	512	455	0	0	0	0	
4	0	0	0	0	506	448	0	0	0	0	
5	0	0	0	0	500	443	0	0	0	0	
6	0	0	0	0	496	438	0	0	0	0	
7	0	0	0	0	493	435	0	0	0	0	
8	0	0	0	0	492	434	0	0	0	0	
9	0	0	0	0	494	435	0	0	0	0	
10	0	0	0	0	498	438	0	0	0	0	
11	0	0	0	0	504	443	0	0	0	0	
12	0	0	0	0	512	449	0	0	0	0	
13	0	0	0	0	520	455	0	0	0	0	
14	0	0	0	0	528	463	0	0	0	0	
15	0	0	0	0	536	470	0	0	0	0	
0	0	0	0	0	543	476	0	0	0	0	
1	0	0	0	0	547	481	0	0	0	0	
2	0	0	0	0	551	485	0	0	0	0	
3	0	0	0	0	552	487	0	0	0	0	
4	0	0	0	0	551	488	0	0	0	0	
5	0	0	0	0	549	488	0	0	0	0	
6	0	0	0	0	545	486	0	0	0	0	
7	0	0	0	0	541	483	0	0	0	0	
8	0	0	0	0	536	480	0	0	0	0	
9	0	0	0	0	531	477	0	0	0	0	
10	0	0	0	0	527	473	0	0	0	0	
11	0	0	0	0	524	471	0	0	0	0	
12	0	0	0	0	521	467	0	0	0	0	
13	0	0	0	0	520	465	0	0	0	0	
14	0	0	0	0	520	464	0	0	0	0	
15	0	0	0	0	521	464	0	0	0	0	
0	0	0	0	0	524	464	0	0	0	0	
1	0	0	0	0	528	467	0	0	0	0	
2	0	0	0	0	533	470	0	0	0	0	
3	0	0	0	0	538	474	0	0	0	0	
4	0	0	0	0	543	478	0	0	0	0	
5	0	0	0	0	547	482	0	0	0	0	
6	0	0	0	0	550	485	0	0	0	0	
7	0	0	0	0	551	487	0	0	0	0	
8	0	0	0	0	550	487	0	0	0	0	
9	0	0	0	0	547	485	0	0	0	0	
10	0	0	0	0	542	483	0	0	0	0	
11	0	0	0	0	536	480	0	0	0	0	
12	0	0	0	0	529	475	0	0	0	0	
13	0	0	0	0	523	470	0	0	0	0	
14	0	0	0	0	515	464	0	0	0	0	
15	0	0	0	0	508	458	0	0	0	0	
0	0	0	0	0	502	453	0	0	0	0	
1	0	0	0	0	498	449	0	0	0	0	
2	0	0	0	0	495	446	0	0	0	0	
3	0	0	0	0	495	444	0	0	0	0	
4	0	0	0	0	496	444	0	0	0	0	
5	0	0	0	0	498	446	0	0	0	0	
6	0	0	0	0	503	448	0	0	0	0	
7	0	0	0	0	508	452	0	0	0	0	
8	0	0	0	0	514	456	0	0	0	0	
9	0	0	0	0	521	461	0	0	0	0	
10	0	0	0	0	527	466	0	0	0	0	
11	0	0	0	0	532	471	0	0	0	0	
12	0	0	0	0	537	475	0	0	0	0	
13	0	0	0	0	539	477	0	0	0	0	
14	0	0	0	0	540	479	0	0	0	0	
15	0	0	0	0	540	479	0	0	0	0	
0	0	0	0	0	537	478	0	0	0	0	
1	0	0	0	0	534	475	0	0	0	0	
2	0	0	0	0	529	472	0	0	0	0	
3	0	0	0	0	524	468	0	0	0	0	
4	0	0	0	0	519	465	0	0	0	0	
5	0	0	0	0	515	461	0	0	0	0	
6	0	0	0	0	511	458	0	0	0	0	
7	0	0	0	0	509	455	0	0	0	0	
8	0	0	0	0	506	453	0	0	0	0	
9	0	0	0	0	505	452	0	0	0	0	
10	0	0	0	0	505	452	0	0	0	0	
11	0	0	0	0	507	453	0	0	0	0	
12	0	0	0	0	509	455	0	0	0	0	
13	0	0	0	0	512	458	0	0	0	0	
14	0	0	0	0	515	461	0	0	0	0	
15	0	0	0	0	519	464	0	0	0	0	
0	0	0	0	0	522	467	0	0	0	0	
1	0	0	0	0	524	470	0	0	0	0	
2	0	0	0	0	525	471	0	0	0	0	
3	0	0	0	0	525	472	0	0	0	0	
4	0	0	0	0	525	471	0	0	0	0	
5	0	0	0	0	523	469	0	0	0	0	
6	0	0	0	0	520	466	0	0	0	0	
7	0	0	0	0	517	463	0	0	0	0	
8	0	0	0	0	513	460	0	0	0	0	
9	0	0	0	0	510	456	0	0	0	0	
10	0	0	0	0	508	454	0	0	0	0	
11	0	0	0	0	506	452	0	0	0	0	
12	0	0	0	0	505	451	0	0	0	0	
13	0	0	0	0	505	450	0	0	0	0	
14	0	0	0	0	507	451	0	0	0	0	
15	0	0	0	0	509	454	0	0	0	0	
0	0	0	0	0	512	457	0	0	0	0	
1	0	0	0	0	518	462	0	0	0	0	
2	0	0	0	0	523	467	0	0	0	0	
3	0	0	0	0	529	472	0	0	0	0	
4	0	0	0	0	535	479	0	0	0	0	
5	0	0	0	0	541	484	0	0	0	0	
6	0	0	0	0	547	491	0	0	0	0	
7	0	0	0	0	551	495	0	0	0	0	
8	0	0	0	0	555	499	0	0	0	0	
9	0	0	0	0	558	501	0	0	0	0	
10	0	0	0	0	558	502	0	0	0	0	
11	0	0	0	0	556	501	0	0	0	0	
12	0	0	0	0	553	499	0	0	0	0	
13	0	0	0	0	549	495	0	0	0	0	
14	0	0	0	0	544	491	0	0	0	0	
15	0	0	0	0	539	486	0	0	0	0	
0	0	0	0	0	533	480	0	0	0	0	
1	0	0	0	0	528	476	0	0	0	0	
2	0	0	0	0	524	472	0	0	0	0	
3	0	0	0	0	520	468	0	0	0	0	
4	0	0	0	0	518	465	0	0	0	0	
5	0	0	0	0	515	463	0	0	0	0	
6	0	0	0	0	514	461	0	0	0	0	
7	0	0	0	0	514	460	0	0	0	0	
8	0	0	0	0	514	460	0	0	0	0	
9	0	0	0	0	515	461	0	0	0	0	
10	0	0	0	0	518	462	0	0	0	0	
11	0	0	0	0	520	464	0	0	0	0	
12	0	0	0	0	524	467	0	0	0	0	
13	0	0	0	0	527	469	0	0	0	0	
14	0	0	0	0	530	471	0	0	0	0	
15	0	0	0	0	532	473	0	0	0	0	
0	0	0	0	0	533	474	0	0	0	0	
1	0	0	0	0	534	474	0	0	0	0	
2	0	0	0	0	534	473	0	0	0	0	
3	0	0	0	0	532	473	0	0	0	0	
4	0	0	0	0	530	472	0	0	0	0	
5	0	0	0	0	527	471	0	0	0	0	
6	0	0	0	0	526	469	0	0	0	0	
7	0	0	0	0	524	469	0	0	0	0	
8	0	0	0	0	523	468	0	0	0	0	
9	0	0	0	0	522	468	0	0	0	0	
10	0	0	0	0	521	469	0	0	0	0	
11	0	0	0	0	521	470	0	0	0	0	
12	0	0	0	0	522	471	0	0	0	0	
13	0	0	0	0	523	471	0	0	0	0	
14	0	0	0	0	523	471	0	0	0	0	
15	0	0	0	0	523	472	0	0	0	0	
0	0	0	0	0	523	471	0	0	0	0	
1	0	0	0	0	523	470	0	0	0	0	
2	0	0	0	0	523	469	0	0	0	0	
3	0	0	0	0	522	468	0	0	0	0	
4	0	0	0	0	522	467	0	0	0	0	
5	0	0	0	0	522	466	0	0	0	0	
6	0	0	0	0	523	466	0	0	0	0	
7	0	0	0	0	524	467	0	0	0	0	
8	0	0	0	0	526	468	0	0	0	0	
9	0	0	0	0	529	470	0	0	0	0	
10	0	0	0	0	532	473	0	0	0	0	
11	0	0	0	0	537	477	0	0	0	0	
12	0	0	0	0	542	482	0	0	0	0	
13	0	0	0	0	547	487	0	0	0	0	
14	0	0	0	0	551	492	0	0	0	0	
15	0	0	0	0	556	497	0	0	0	0	
0	0	0	0	0	560	502	0	0	0	0	
1	0	0	0	0	563	504	0	0	0	0	
2	0	0	0	0	564	507	0	0	0	0	
3	0	0	0	0	564	507	0	0	0	0	
4	0	0	0	0	563	505	0	0	0	0	
5	0	0	0	0	561	503	0	0	0	0	
6	0	0	0	0	557	500	0	0	0	0	
7	0	0	0	0	553	496	0	0	0	0	
8	0	0	0	0	548	491	0	0	0	0	
9	0	0	0	0	543	486	0	0	0	0	
10	0	0	0	0	538	481	0	0	0	0	
11	0	0	0	0	532	476	0	0	0	0	
12	0	0	0	0	527	471	0	0	0	0	
13	0	0	0	0	523	467	0	0	0	0	
14	0	0	0	0	519	464	0	0	0	0	
15	0	0	0	0	516	463	0	0	0	0	
0	0	0	0	0	515	462	0	0	0	0	
1	0	0	0	0	515	463	0	0	0	0	
2	0	0	0	0	517	464	0	0	0	0	
3	0	0	0	0	519	467	0	0	0	0	
4	0	0	0	0	523	470	0	0	0	0	
5	0	0	0	0	526	474	0	0	0	0	
6	0	0	0	0	530	477	0	0	0	0	
7	0	0	0	0	533	479	0	0	0	0	
8	0	0	0	0	534	480	0	0	0	0	
9	0	0	0	0	535	480	0	0	0	0	
10	0	0	0	0	533	478	0	0	0	0	
11	0	0	0	0	530	475	0	0	0	0	
12	0	0	0	0	527	471	0	0	0	0	
13	0	0	0	0	522	466	0	0	0	0	
14	0	0	0	0	517	461	0	0	0	0	
15	0	0	0	0	512	456	0	0	0	0	
0	0	0	0	0	507	452	0	0	0	0	
1	0	0	0	0	504	449	0	0	0	0	
2	0	0	0	0	501	447	0	0	0	0	
3	0	0	0	0	500	446	0	0	0	0	
4	0	0	0	0	500	446	0	0	0	0	
5	0	0	0	0	502	448	0	0	0	0	
6	0	0	0	0	506	451	0	0	0	0	
7	0	0	0	0	510	455	0	0	0	0	
8	0	0	0	0	516	460	0	0	0	0	
9	0	0	0	0	522	465	0	0	0	0	
10	0	0	0	0	527	470	0	0	0	0	
11	0	0	0	0	533	475	0	0	0	0	
12	0	0	0	0	537	479	0	0	0	0	
13	0	0	0	0	541	482	0	0	0	0	
14	0	0	0	0	544	484	0	0	0	0	
15	0	0	0	0	546	487	0	0	0	0	
0	0	0	0	0	547	487	0	0	0	0	
1	0	0	0	0	547	488	0	0	0	0	
2	0	0	0	0	546	487	0	0	0	0	
3	0	0	0	0	544	486	0	0	0	0	
4	0	0	0	0	541	484	0	0	0	0	
5	0	0	0	0	538	482	0	0	0	0	
6	0	0	0	0	535	480	0	0	0	0	
7	0	0	0	0	531	476	0	0	0	0	
8	0	0	0	0	527	474	0	0	0	0	
9	0	0	0	0	524	472	0	0	0	0	
10	0	0	0	0	521	469	0	0	0	0	
11	0	0	0	0	519	468	0	0	0	0	
12	0	0	0	0	518	467	0	0	0	0	
13	0	0	0	0	517	466	0	0	0	0	
14	0	0	0	0	518	466	0	0	0	0	
15	0	0	0	0	519	467	0	0	0	0	
0	0	0	0	0	520	467	0	0	0	0	
1	0	0	0	0	522	469	0	0	0	0	
2	0	0	0	0	524	470	0	0	0	0	
3	0	0	0	0	527	472	0	0	0	0	
4	0	0	0	0	529	473	0	0	0	0	
5	0	0	0	0	531	475	0	0	0	0	
6	0	0	0	0	533	476	0	0	0	0	
7	0	0	0	0	535	477	0	0	0	0	
8	0	0	0	0	535	477	0	0	0	0	
9	0	0	0	0	535	476	0	0	0	0	
10	0	0	0	0	534	475	0	0	0	0	
11	0	0	0	0	532	474	0	0	0	0	
12	0	0	0	0	530	472	0	0	0	0	
13	0	0	0	0	527	470	0	0	0	0	
14	0	0	0	0	524	468	0	0	0	0	
15	0	0	0	0	521	466	0	0	0	0	
0	0	0	0	0	519	465	0	0	0	0	
1	0	0	0	0	517	465	0	0	0	0	
2	0	0	0	0	517	466	0	0	0	0	
3	0	0	0	0	518	467	0	0	0	0	
4	0	0	0	0	519	469	0	0	0	0	
5	0	0	0	0	522	471	0	0	0	0	
6	0	0	0	0	525	473	0	0	0	0	
7	0	0	0	0	528	475	0	0	0	0	
8	0	0	0	0	531	477	0	0	0	0	
9	0	0	0	0	535	478	0	0	0	0	
10	0	0	0	0	536	479	0	0	0	0	
11	0	0	0	0	536	479	0	0	0	0	
12	0	0	0	0	536	477	0	0	0	0	
13	0	0	0	0	533	475	0	0	0	0	
14	0	0	0	0	530	472	0	0	0	0	
15	0	0	0	0	525	469	0	0	0	0	
0	0	0	0	0	520	465	0	0	0	0	
1	0	0	0	0	515	462	0	0	0	0	
2	0	0	0	0	510	459	0	0	0	0	
3	0	0	0	0	506	457	0	0	0	0	
4	0	0	0	0	504	456	0	0	0	0	
5	0	0	0	0	503	456	0	0	0	0	
6	0	0	0	0	503	458	0	0	0	0	
7	0	0	0	0	505	460	0	0	0	0	
8	0	0	0	0	508	463	0	0	0	0	
9	0	0	0	0	513	467	0	0	0	0	
10	0	0	0	0	518	471	0	0	0	0	
11	0	0	0	0	524	475	0	0	0	0	
12	0	0	0	0	530	480	0	0	0	0	
13	0	0	0	0	536	483	0	0	0	0	
14	0	0	0	0	542	487	0	0	0	0	
15	0	0	0	0	547	489	0	0	0	0	
0	0	0	0	0	550	491	0	0	0	0	
1	0	0	0	0	551	491	0	0	0	0	
2	0	0	0	0	551	491	0	0	0	0	
3	0	0	0	0	550	491	0	0	0	0	
4	0	0	0	0	547	489	0	0	0	0	
5	0	0	0	0	542	487	0	0	0	0	
6	0	0	0	0	537	484	0	0	0	0	
7	0	0	0	0	531	481	0	0	0	0	
8	0	0	0	0	526	479	0	0	0	0	
9	0	0	0	0	520	476	0	0	0	0	
10	0	0	0	0	515	474	0	0	0	0	
11	0	0	0	0	512	471	0	0	0	0	
12	0	0	0	0	509	469	0	0	0	0	
13	0	0	0	0	507	467	0	0	0	0	
14	0	0	0	0	505	465	0	0	0	0	
15	0	0	0	0	505	464	0	0	0	0	
0	0	0	0	0	507	463	0	0	0	0	
1	0	0	0	0	508	464	0	0	0	0	
2	0	0	0	0	511	464	0	0	0	0	
3	0	0	0	0	513	466	0	0	0	0	
4	0	0	0	0	517	468	0	0	0	0	
5	0	0	0	0	520	471	0	0	0	0	
6	0	0	0	0	525	475	0	0	0	0	
7	0	0	0	0	529	479	0	0	0	0	
8	0	0	0	0	532	482	0	0	0	0	
9	0	0	0	0	536	487	0	0	0	0	
10	0	0	0	0	540	491	0	0	0	0	
11	0	0	0	0	543	494	0	0	0	0	
12	0	0	0	0	545	497	0	0	0	0	
13	0	0	0	0	546	499	0	0	0	0	
14	0	0	0	0	546	500	0	0	0	0	
15	0	0	0	0	544	500	0	0	0	0	
0	0	0	0	0	540	497	0	0	0	0	
1	0	0	0	0	536	492	0	0	0	0	
2	0	0	0	0	528	485	0	0	0	0	
3	0	0	0	0	519	476	0	0	0	0	
4	0	0	0	0	507	466	0	0	0	0	
5	0	0	0	0	495	454	0	0	0	0	
6	0	0	0	0	481	441	0	0	0	0	
7	0	0	0	0	467	428	0	0	0	0	
8	0	0	0	0	453	415	0	0	0	0	
9	0	0	0	0	438	402	0	0	0	0	
10	0	0	0	0	423	389	0	0	0	0	
11	0	0	0	0	411	377	0	0	0	0	
12	0	0	0	0	397	365	0	0	0	0	
13	0	0	0	0	385	352	0	0	0	0	
14	0	0	0	0	373	341	0	0	0	0	
15	0	0	0	0	362	330	0	0	0	0	
0	0	0	0	0	351	319	0	0	0	0	
1	0	0	0	0	341	308	0	0	0	0	
2	0	0	0	0	331	297	0	0	0	0	
3	0	0	0	0	321	287	0	0	0	0	
4	0	0	0	0	313	276	0	0	0	0	
5	0	0	0	0	305	267	0	0	0	0	
6	0	0	0	0	298	258	0	0	0	0	
7	0	0	0	0	292	250	0	0	0	0	
8	0	0	0	0	289	245	0	0	0	0	
9	0	0	0	0	289	243	0	0	0	0	
10	0	0	0	0	291	243	0	0	0	0	
11	0	0	0	0	297	247	0	0	0	0	
12	0	0	0	0	307	255	0	0	0	0	
13	0	0	0	0	320	266	0	0	0	0	
14	0	0	0	0	337	281	0	0	0	0	
15	0	0	0	0	358	299	0	0	0	0	
0	0	0	0	0	381	320	0	0	0	0	
1	0	0	0	0	406	343	0	0	0	0	
2	0	0	0	0	432	367	0	0	0	0	
3	0	0	0	0	458	391	0	0	0	0	
4	0	0	0	0	483	416	0	0	0	0	
5	0	0	0	0	507	438	0	0	0	0	
6	0	0	0	0	526	458	0	0	0	0	
7	0	0	0	0	543	475	0	0	0	0	
8	0	0	0	0	556	489	0	0	0	0	
9	0	0	0	0	565	500	0	0	0	0	
10	0	0	0	0	571	507	0	0	0	0	
11	0	0	0	0	572	511	0	0	0	0	
12	0	0	0	0	572	513	0	0	0	0	
13	0	0	0	0	569	512	0	0	0	0	
14	0	0	0	0	564	511	0	0	0	0	
15	0	0	0	0	559	507	0	0	0	0	
0	0	0	0	0	553	504	0	0	0	0	
1	0	0	0	0	547	499	0	0	0	0	
2	0	0	0	0	541	495	0	0	0	0	
3	0	0	0	0	537	492	0	0	0	0	
4	0	0	0	0	534	490	0	0	0	0	
5	0	0	0	0	531	489	0	0	0	0	
6	0	0	0	0	531	488	0	0	0	0	
7	0	0	0	0	531	489	0	0	0	0	
8	0	0	0	0	533	490	0	0	0	0	
9	0	0	0	0	535	492	0	0	0	0	
10	0	0	0	0	537	493	0	0	0	0	
11	0	0	0	0	540	495	0	0	0	0	
12	0	0	0	0	542	496	0	0	0	0	
13	0	0	0	0	543	497	0	0	0	0	
14	0	0	0	0	544	497	0	0	0	0	
15	0	0	0	0	545	497	0	0	0	0	
0	0	0	0	0	545	496	0	0	0	0	
1	0	0	0	0	544	495	0	0	0	0	
2	0	0	0	0	543	493	0	0	0	0	
3	0	0	0	0	542	492	0	0	0	0	
4	0	0	0	0	540	491	0	0	0	0	
5	0	0	0	0	539	492	0	0	0	0	
6	0	0	0	0	539	492	0	0	0	0	
7	0	0	0	0	541	495	0	0	0	0	
8	0	0	0	0	542	498	0	0	0	0	
9	0	0	0	0	545	502	0	0	0	0	
10	0	0	0	0	549	506	0	0	0	0	
11	0	0	0	0	552	511	0	0	0	0	
12	0	0	0	0	556	515	0	0	0	0	
13	0	0	0	0	559	518	0	0	0	0	
14	0	0	0	0	561	519	0	0	0	0	
15	0	0	0	0	562	519	0	0	0	0	
0	0	0	0	0	562	519	0	0	0	0	
1	0	0	0	0	560	516	0	0	0	0	
2	0	0	0	0	559	514	0	0	0	0	
3	0	0	0	0	558	512	0	0	0	0	
4	0	0	0	0	556	509	0	0	0	0	
5	0	0	0	0	556	507	0	0	0	0	
6	0	0	0	0	556	507	0	0	0	0	
7	0	0	0	0	557	507	0	0	0	0	
8	0	0	0	0	559	508	0	0	0	0	
9	0	0	0	0	561	510	0	0	0	0	
10	0	0	0	0	563	512	0	0	0	0	
11	0	0	0	0	567	515	0	0	0	0	
12	0	0	0	0	569	517	0	0	0	0	
13	0	0	0	0	571	519	0	0	0	0	
14	0	0	0	0	571	521	0	0	0	0	
15	0	0	0	0	571	521	0	0	0	0	
0	0	0	0	0	570	521	0	0	0	0	
1	0	0	0	0	568	520	0	0	0	0	
2	0	0	0	0	564	518	0	0	0	0	
3	0	0	0	0	561	515	0	0	0	0	
4	0	0	0	0	557	511	0	0	0	0	
5	0	0	0	0	552	507	0	0	0	0	
6	0	0	0	0	548	503	0	0	0	0	
7	0	0	0	0	544	499	0	0	0	0	
8	0	0	0	0	541	496	0	0	0	0	
9	0	0	0	0	538	493	0	0	0	0	
10	0	0	0	0	537	491	0	0	0	0	
11	0	0	0	0	537	490	0	0	0	0	
12	0	0	0	0	538	490	0	0	0	0	
13	0	0	0	0	540	491	0	0	0	0	
14	0	0	0	0	542	492	0	0	0	0	
15	0	0	0	0	543	493	0	0	0	0	
0	0	0	0	0	546	496	0	0	0	0	
1	0	0	0	0	548	498	0	0	0	0	
2	0	0	0	0	550	500	0	0	0	0	
3	0	0	0	0	551	502	0	0	0	0	
4	0	0	0	0	551	504	0	0	0	0	
5	0	0	0	0	552	506	0	0	0	0	
6	0	0	0	0	552	508	0	0	0	0	
7	0	0	0	0	551	510	0	0	0	0	
8	0	0	0	0	552	510	0	0	0	0	
9	0	0	0	0	552	511	0	0	0	0	
10	0	0	0	0	553	512	0	0	0	0	
11	0	0	0	0	553	512	0	0	0	0	
12	0	0	0	0	553	512	0	0	0	0	
13	0	0	0	0	553	510	0	0	0	0	
14	0	0	0	0	553	509	0	0	0	0	
15	0	0	0	0	552	506	0	0	0	0	
0	0	0	0	0	551	504	0	0	0	0	
1	0	0	0	0	549	502	0	0	0	0	
2	0	0	0	0	547	499	0	0	0	0	
3	0	0	0	0	546	497	0	0	0	0	
4	0	0	0	0	543	495	0	0	0	0	
5	0	0	0	0	542	493	0	0	0	0	
6	0	0	0	0	539	492	0	0	0	0	
7	0	0	0	0	538	491	0	0	0	0	
8	0	0	0	0	536	491	0	0	0	0	
9	0	0	0	0	535	491	0	0	0	0	
10	0	0	0	0	534	491	0	0	0	0	
11	0	0	0	0	534	492	0	0	0	0	
12	0	0	0	0	535	492	0	0	0	0	
13	0	0	0	0	536	494	0	0	0	0	
14	0	0	0	0	537	495	0	0	0	0	
15	0	0	0	0	540	496	0	0	0	0	
0	0	0	0	0	542	497	0	0	0	0	
1	0	0	0	0	544	499	0	0	0	0	
2	0	0	0	0	547	500	0	0	0	0	
3	0	0	0	0	548	501	0	0	0	0	
4	0	0	0	0	550	501	0	0	0	0	
5	0	0	0	0	550	501	0	0	0	0	
6	0	0	0	0	551	501	0	0	0	0	
7	0	0	0	0	551	502	0	0	0	0	
8	0	0	0	0	551	502	0	0	0	0	
9	0	0	0	0	551	503	0	0	0	0	
10	0	0	0	0	551	503	0	0	0	0	
11	0	0	0	0	551	504	0	0	0	0	
12	0	0	0	0	550	504	0	0	0	0	
13	0	0	0	0	548	504	0	0	0	0	
14	0	0	0	0	547	504	0	0	0	0	
15	0	0	0	0	545	504	0	0	0	0	
0	0	0	0	0	543	502	0	0	0	0	
1	0	0	0	0	540	500	0	0	0	0	
2	0	0	0	0	538	498	0	0	0	0	
3	0	0	0	0	535	495	0	0	0	0	
4	0	0	0	0	532	492	0	0	0	0	
5	0	0	0	0	531	488	0	0	0	0	
6	0	0	0	0	528	484	0	0	0	0	
7	0	0	0	0	527	481	0	0	0	0	
8	0	0	0	0	526	478	0	0	0	0	
9	0	0	0	0	524	476	0	0	0	0	
10	0	0	0	0	524	473	0	0	0	0	
11	0	0	0	0	524	472	0	0	0	0	
12	0	0	0	0	524	472	0	0	0	0	
13	0	0	0	0	525	473	0	0	0	0	
14	0	0	0	0	526	474	0	0	0	0	
15	0	0	0	0	527	476	0	0	0	0	
0	0	0	0	0	529	479	0	0	0	0	
1	0	0	0	0	531	482	0	0	0	0	
2	0	0	0	0	532	485	0	0	0	0	
3	0	0	0	0	533	487	0	0	0	0	
4	0	0	0	0	534	489	0	0	0	0	
5	0	0	0	0	534	490	0	0	0	0	
6	0	0	0	0	534	490	0	0	0	0	
7	0	0	0	0	533	489	0	0	0	0	
8	0	0	0	0	532	488	0	0	0	0	
9	0	0	0	0	531	487	0	0	0	0	
10	0	0	0	0	530	486	0	0	0	0	
11	0	0	0	0	530	485	0	0	0	0	
12	0	0	0	0	529	484	0	0	0	0	
13	0	0	0	0	530	484	0	0	0	0	
14	0	0	0	0	531	484	0	0	0	0	
15	0	0	0	0	534	486	0	0	0	0	
0	0	0	0	0	537	489	0	0	0	0	
1	0	0	0	0	541	492	0	0	0	0	
2	0	0	0	0	545	496	0	0	0	0	
3	0	0	0	0	550	499	0	0	0	0	
4	0	0	0	0	554	503	0	0	0	0	
5	0	0	0	0	557	506	0	0	0	0	
6	0	0	0	0	560	509	0	0	0	0	
7	0	0	0	0	561	510	0	0	0	0	
8	0	0	0	0	560	510	0	0	0	0	
9	0	0	0	0	558	508	0	0	0	0	
10	0	0	0	0	555	505	0	0	0	0	
11	0	0	0	0	550	501	0	0	0	0	
12	0	0	0	0	544	496	0	0	0	0	
13	0	0	0	0	539	492	0	0	0	0	
14	0	0	0	0	533	487	0	0	0	0	
15	0	0	0	0	527	482	0	0	0	0	
0	0	0	0	0	523	479	0	0	0	0	
1	0	0	0	0	519	475	0	0	0	0	
2	0	0	0	0	516	474	0	0	0	0	
3	0	0	0	0	515	473	0	0	0	0	
4	0	0	0	0	515	473	0	0	0	0	
5	0	0	0	0	515	475	0	0	0	0	
6	0	0	0	0	517	476	0	0	0	0	
7	0	0	0	0	518	478	0	0	0	0	
8	0	0	0	0	520	479	0	0	0	0	
9	0	0	0	0	521	480	0	0	0	0	
10	0	0	0	0	521	480	0	0	0	0	
11	0	0	0	0	522	480	0	0	0	0	
12	0	0	0	0	521	479	0	0	0	0	
13	0	0	0	0	521	478	0	0	0	0	
14	0	0	0	0	520	477	0	0	0	0	
15	0	0	0	0	519	476	0	0	0	0	
0	0	0	0	0	519	474	0	0	0	0	
1	0	0	0	0	518	473	0	0	0	0	
2	0	0	0	0	517	472	0	0	0	0	
3	0	0	0	0	516	471	0	0	0	0	
4	0	0	0	0	516	470	0	0	0	0	
5	0	0	0	0	515	468	0	0	0	0	
6	0	0	0	0	515	467	0	0	0	0	
7	0	0	0	0	515	467	0	0	0	0	
8	0	0	0	0	515	467	0	0	0	0	
9	0	0	0	0	516	467	0	0	0	0	
10	0	0	0	0	517	469	0	0	0	0	
11	0	0	0	0	519	471	0	0	0	0	
12	0	0	0	0	521	473	0	0	0	0	
13	0	0	0	0	524	476	0	0	0	0	
14	0	0	0	0	527	479	0	0	0	0	
15	0	0	0	0	529	481	0	0	0	0	
0	0	0	0	0	531	483	0	0	0	0	
1	0	0	0	0	532	484	0	0	0	0	
2	0	0	0	0	532	484	0	0	0	0	
3	0	0	0	0	532	483	0	0	0	0	
4	0	0	0	0	531	482	0	0	0	0	
5	0	0	0	0	530	480	0	0	0	0	
6	0	0	0	0	529	479	0	0	0	0	
7	0	0	0	0	527	477	0	0	0	0	
8	0	0	0	0	526	476	0	0	0	0	
9	0	0	0	0	526	475	0	0	0	0	
10	0	0	0	0	525	475	0	0	0	0	
11	0	0	0	0	526	476	0	0	0	0	
12	0	0	0	0	527	476	0	0	0	0	
13	0	0	0	0	528	478	0	0	0	0	
14	0	0	0	0	530	480	0	0	0	0	
15	0	0	0	0	531	482	0	0	0	0	
0	0	0	0	0	533	483	0	0	0	0	
1	0	0	0	0	534	484	0	0	0	0	
2	0	0	0	0	534	485	0	0	0	0	
3	0	0	0	0	534	486	0	0	0	0	
4	0	0	0	0	534	486	0	0	0	0	
5	0	0	0	0	534	486	0	0	0	0	
6	0	0	0	0	533	486	0	0	0	0	
7	0	0	0	0	532	486	0	0	0	0	
8	0	0	0	0	532	485	0	0	0	0	
9	0	0	0	0	531	484	0	0	0	0	
10	0	0	0	0	531	483	0	0	0	0	
11	0	0	0	0	530	481	0	0	0	0	
12	0	0	0	0	529	480	0	0	0	0	
13	0	0	0	0	528	478	0	0	0	0	
14	0	0	0	0	527	476	0	0	0	0	
15	0	0	0	0	526	475	0	0	0	0	
0	0	0	0	0	526	473	0	0	0	0	
1	0	0	0	0	524	472	0	0	0	0	
2	0	0	0	0	523	470	0	0	0	0	
3	0	0	0	0	521	468	0	0	0	0	
4	0	0	0	0	519	467	0	0	0	0	
5	0	0	0	0	518	465	0	0	0	0	
6	0	0	0	0	516	464	0	0	0	0	
7	0	0	0	0	514	462	0	0	0	0	
8	0	0	0	0	512	461	0	0	0	0	
9	0	0	0	0	511	460	0	0	0	0	
10	0	0	0	0	510	459	0	0	0	0	
11	0	0	0	0	509	459	0	0	0	0	
12	0	0	0	0	509	459	0	0	0	0	
13	0	0	0	0	509	459	0	0	0	0	
14	0	0	0	0	511	459	0	0	0	0	
15	0	0	0	0	512	460	0	0	0	0	
0	0	0	0	0	515	463	0	0	0	0	
1	0	0	0	0	519	465	0	0	0	0	
2	0	0	0	0	524	469	0	0	0	0	
3	0	0	0	0	529	473	0	0	0	0	
4	0	0	0	0	534	478	0	0	0	0	
5	0	0	0	0	539	484	0	0	0	0	
6	0	0	0	0	545	489	0	0	0	0	
7	0	0	0	0	549	495	0	0	0	0	
8	0	0	0	0	553	499	0	0	0	0	
9	0	0	0	0	555	502	0	0	0	0	
10	0	0	0	0	555	504	0	0	0	0	
11	0	0	0	0	553	504	0	0	0	0	
12	0	0	0	0	551	502	0	0	0	0	
13	0	0	0	0	546	499	0	0	0	0	
14	0	0	0	0	541	494	0	0	0	0	
15	0	0	0	0	536	488	0	0	0	0	
0	0	0	0	0	530	483	0	0	0	0	
1	0	0	0	0	526	479	0	0	0	0	
2	0	0	0	0	523	475	0	0	0	0	
3	0	0	0	0	521	473	0	0	0	0	
4	0	0	0	0	522	473	0	0	0	0	
5	0	0	0	0	524	474	0	0	0	0	
6	0	0	0	0	527	476	0	0	0	0	
7	0	0	0	0	532	480	0	0	0	0	
8	0	0	0	0	537	484	0	0	0	0	
9	0	0	0	0	543	489	0	0	0	0	
10	0	0	0	0	548	493	0	0	0	0	
11	0	0	0	0	553	497	0	0	0	0	
12	0	0	0	0	557	501	0	0	0	0	
13	0	0	0	0	560	504	0	0	0	0	
14	0	0	0	0	561	506	0	0	0	0	
15	0	0	0	0	562	507	0	0	0	0	
0	0	0	0	0	561	507	0	0	0	0	
1	0	0	0	0	560	506	0	0	0	0	
2	0	0	0	0	558	505	0	0	0	0	
3	0	0	0	0	555	503	0	0	0	0	
4	0	0	0	0	552	500	0	0	0	0	
5	0	0	0	0	550	498	0	0	0	0	
6	0	0	0	0	548	496	0	0	0	0	
7	0	0	0	0	547	495	0	0	0	0	
8	0	0	0	0	545	493	0	0	0	0	
9	0	0	0	0	544	492	0	0	0	0	
10	0	0	0	0	543	491	0	0	0	0	
11	0	0	0	0	543	491	0	0	0	0	
12	0	0	0	0	541	490	0	0	0	0	
13	0	0	0	0	540	489	0	0	0	0	
14	0	0	0	0	539	488	0	0	0	0	
15	0	0	0	0	537	487	0	0	0	0	
0	0	0	0	0	534	486	0	0	0	0	
1	0	0	0	0	532	484	0	0	0	0	
2	0	0	0	0	529	483	0	0	0	0	
3	0	0	0	0	526	481	0	0	0	0	
4	0	0	0	0	524	479	0	0	0	0	
5	0	0	0	0	522	477	0	0	0	0	
6	0	0	0	0	520	475	0	0	0	0	
7	0	0	0	0	519	473	0	0	0	0	
8	0	0	0	0	519	473	0	0	0	0	
9	0	0	0	0	520	472	0	0	0	0	
10	0	0	0	0	521	472	0	0	0	0	
11	0	0	0	0	523	472	0	0	0	0	
12	0	0	0	0	524	472	0	0	0	0	
13	0	0	0	0	526	472	0	0	0	0	
14	0	0	0	0	527	472	0	0	0	0	
15	0	0	0	0	528	472	0	0	0	0	
0	0	0	0	0	528	471	0	0	0	0	
1	0	0	0	0	527	471	0	0	0	0	
2	0	0	0	0	527	470	0	0	0	0	
3	0	0	0	0	527	470	0	0	0	0	
4	0	0	0	0	527	470	0	0	0	0	
5	0	0	0	0	527	471	0	0	0	0	
6	0	0	0	0	527	471	0	0	0	0	
7	0	0	0	0	527	472	0	0	0	0	
8	0	0	0	0	527	473	0	0	0	0	
9	0	0	0	0	528	475	0	0	0	0	
10	0	0	0	0	529	476	0	0	0	0	
11	0	0	0	0	528	476	0	0	0	0	
12	0	0	0	0	528	476	0	0	0	0	
13	0	0	0	0	528	476	0	0	0	0	
14	0	0	0	0	527	476	0	0	0	0	
15	0	0	0	0	527	475	0	0	0	0	
0	0	0	0	0	527	475	0	0	0	0	
1	0	0	0	0	527	475	0	0	0	0	
2	0	0	0	0	527	475	0	0	0	0	
3	0	0	0	0	528	476	0	0	0	0	
4	0	0	0	0	529	477	0	0	0	0	
5	0	0	0	0	531	479	0	0	0	0	
6	0	0	0	0	532	481	0	0	0	0	
7	0	0	0	0	535	483	0	0	0	0	
8	0	0	0	0	536	485	0	0	0	0	
9	0	0	0	0	539	488	0	0	0	0	
10	0	0	0	0	541	491	0	0	0	0	
11	0	0	0	0	543	494	0	0	0	0	
12	0	0	0	0	546	496	0	0	0	0	
13	0	0	0	0	548	498	0	0	0	0	
14	0	0	0	0	550	499	0	0	0	0	
15	0	0	0	0	552	501	0	0	0	0	
0	0	0	0	0	553	502	0	0	0	0	
1	0	0	0	0	555	503	0	0	0	0	
2	0	0	0	0	556	504	0	0	0	0	
3	0	0	0	0	557	504	0	0	0	0	
4	0	0	0	0	557	504	0	0	0	0	
5	0	0	0	0	556	504	0	0	0	0	
6	0	0	0	0	555	503	0	0	0	0	
7	0	0	0	0	552	501	0	0	0	0	
8	0	0	0	0	550	499	0	0	0	0	
9	0	0	0	0	546	496	0	0	0	0	
10	0	0	0	0	543	494	0	0	0	0	
11	0	0	0	0	539	491	0	0	0	0	
12	0	0	0	0	536	488	0	0	0	0	
13	0	0	0	0	532	486	0	0	0	0	
14	0	0	0	0	530	483	0	0	0	0	
15	0	0	0	0	527	481	0	0	0	0	
0	0	0	0	0	525	478	0	0	0	0	
1	0	0	0	0	523	476	0	0	0	0	
2	0	0	0	0	520	473	0	0	0	0	
3	0	0	0	0	519	471	0	0	0	0	
4	0	0	0	0	516	469	0	0	0	0	
5	0	0	0	0	516	467	0	0	0	0	
6	0	0	0	0	515	465	0	0	0	0	
7	0	0	0	0	514	464	0	0	0	0	
8	0	0	0	0	515	464	0	0	0	0	
9	0	0	0	0	516	465	0	0	0	0	
10	0	0	0	0	519	467	0	0	0	0	
11	0	0	0	0	523	470	0	0	0	0	
12	0	0	0	0	527	474	0	0	0	0	
13	0	0	0	0	531	479	0	0	0	0	
14	0	0	0	0	536	484	0	0	0	0	
15	0	0	0	0	539	487	0	0	0	0	
0	0	0	0	0	542	491	0	0	0	0	
1	0	0	0	0	543	493	0	0	0	0	
2	0	0	0	0	542	495	0	0	0	0	
3	0	0	0	0	541	495	0	0	0	0	
4	0	0	0	0	540	494	0	0	0	0	
5	0	0	0	0	537	492	0	0	0	0	
6	0	0	0	0	533	490	0	0	0	0	
7	0	0	0	0	530	488	0	0	0	0	
8	0	0	0	0	527	486	0	0	0	0	
9	0	0	0	0	524	484	0	0	0	0	
10	0	0	0	0	523	483	0	0	0	0	
11	0	0	0	0	523	483	0	0	0	0	
12	0	0	0	0	524	483	0	0	0	0	
13	0	0	0	0	527	485	0	0	0	0	
14	0	0	0	0	530	487	0	0	0	0	
15	0	0	0	0	534	490	0	0	0	0	
0	0	0	0	0	537	492	0	0	0	0	
1	0	0	0	0	540	495	0	0	0	0	
2	0	0	0	0	543	497	0	0	0	0	
3	0	0	0	0	545	498	0	0	0	0	
4	0	0	0	0	546	499	0	0	0	0	
5	0	0	0	0	545	499	0	0	0	0	
6	0	0	0	0	544	498	0	0	0	0	
7	0	0	0	0	542	496	0	0	0	0	
8	0	0	0	0	539	495	0	0	0	0	
9	0	0	0	0	536	492	0	0	0	0	
10	0	0	0	0	534	490	0	0	0	0	
11	0	0	0	0	531	488	0	0	0	0	
12	0	0	0	0	530	487	0	0	0	0	
13	0	0	0	0	530	487	0	0	0	0	
14	0	0	0	0	531	487	0	0	0	0	
15	0	0	0	0	532	488	0	0	0	0	
0	0	0	0	0	536	491	0	0	0	0	
1	0	0	0	0	540	494	0	0	0	0	
2	0	0	0	0	544	497	0	0	0	0	
3	0	0	0	0	549	501	0	0	0	0	
4	0	0	0	0	553	505	0	0	0	0	
5	0	0	0	0	557	508	0	0	0	0	
6	0	0	0	0	560	511	0	0	0	0	
7	0	0	0	0	561	512	0	0	0	0	
8	0	0	0	0	561	512	0	0	0	0	
9	0	0	0	0	560	512	0	0	0	0	
10	0	0	0	0	556	508	0	0	0	0	
11	0	0	0	0	551	504	0	0	0	0	
12	0	0	0	0	544	498	0	0	0	0	
13	0	0	0	0	536	491	0	0	0	0	
14	0	0	0	0	527	484	0	0	0	0	
15	0	0	0	0	519	477	0	0	0	0	
0	0	0	0	0	512	471	0	0	0	0	
1	0	0	0	0	507	465	0	0	0	0	
2	0	0	0	0	504	462	0	0	0	0	
3	0	0	0	0	502	460	0	0	0	0	
4	0	0	0	0	501	459	0	0	0	0	
5	0	0	0	0	503	460	0	0	0	0	
6	0	0	0	0	507	462	0	0	0	0	
7	0	0	0	0	511	465	0	0	0	0	
8	0	0	0	0	517	470	0	0	0	0	
9	0	0	0	0	524	475	0	0	0	0	
10	0	0	0	0	530	481	0	0	0	0	
11	0	0	0	0	536	486	0	0	0	0	
12	0	0	0	0	542	491	0	0	0	0	
13	0	0	0	0	545	495	0	0	0	0	
14	0	0	0	0	548	498	0	0	0	0	
15	0	0	0	0	550	499	0	0	0	0	
0	0	0	0	0	550	499	0	0	0	0	
1	0	0	0	0	548	499	0	0	0	0	
2	0	0	0	0	545	496	0	0	0	0	
3	0	0	0	0	542	494	0	0	0	0	
4	0	0	0	0	538	491	0	0	0	0	
5	0	0	0	0	534	487	0	0	0	0	
6	0	0	0	0	531	483	0	0	0	0	
7	0	0	0	0	527	480	0	0	0	0	
8	0	0	0	0	524	478	0	0	0	0	
9	0	0	0	0	522	476	0	0	0	0	
10	0	0	0	0	521	474	0	0	0	0	
11	0	0	0	0	521	474	0	0	0	0	
12	0	0	0	0	522	475	0	0	0	0	
13	0	0	0	0	524	476	0	0	0	0	
14	0	0	0	0	526	478	0	0	0	0	
15	0	0	0	0	528	480	0	0	0	0	
0	0	0	0	0	531	483	0	0	0	0	
1	0	0	0	0	535	487	0	0	0	0	
2	0	0	0	0	539	491	0	0	0	0	
3	0	0	0	0	542	494	0	0	0	0	
4	0	0	0	0	545	497	0	0	0	0	
5	0	0	0	0	548	500	0	0	0	0	
6	0	0	0	0	550	502	0	0	0	0	
7	0	0	0	0	551	504	0	0	0	0	
8	0	0	0	0	551	505	0	0	0	0	
9	0	0	0	0	551	505	0	0	0	0	
10	0	0	0	0	551	505	0	0	0	0	
11	0	0	0	0	551	504	0	0	0	0	
12	0	0	0	0	549	504	0	0	0	0	
13	0	0	0	0	548	503	0	0	0	0	
14	0	0	0	0	547	502	0	0	0	0	
15	0	0	0	0	547	502	0	0	0	0	
0	0	0	0	0	547	502	0	0	0	0	
1	0	0	0	0	548	502	0	0	0	0	
2	0	0	0	0	550	504	0	0	0	0	
3	0	0	0	0	551	504	0	0	0	0	
4	0	0	0	0	553	506	0	0	0	0	
5	0	0	0	0	555	507	0	0	0	0	
6	0	0	0	0	556	508	0	0	0	0	
7	0	0	0	0	556	508	0	0	0	0	
8	0	0	0	0	555	506	0	0	0	0	
9	0	0	0	0	553	504	0	0	0	0	
10	0	0	0	0	549	501	0	0	0	0	
11	0	0	0	0	545	496	0	0	0	0	
12	0	0	0	0	539	490	0	0	0	0	
13	0	0	0	0	532	483	0	0	0	0	
14	0	0	0	0	525	476	0	0	0	0	
15	0	0	0	0	517	469	0	0	0	0	
0	0	0	0	0	510	463	0	0	0	0	
1	0	0	0	0	504	458	0	0	0	0	
2	0	0	0	0	499	454	0	0	0	0	
3	0	0	0	0	497	452	0	0	0	0	
4	0	0	0	0	497	453	0	0	0	0	
5	0	0	0	0	499	455	0	0	0	0	
6	0	0	0	0	504	460	0	0	0	0	
7	0	0	0	0	510	465	0	0	0	0	
8	0	0	0	0	518	473	0	0	0	0	
9	0	0	0	0	527	481	0	0	0	0	
10	0	0	0	0	537	489	0	0	0	0	
11	0	0	0	0	546	497	0	0	0	0	
12	0	0	0	0	555	504	0	0	0	0	
13	0	0	0	0	562	510	0	0	0	0	
14	0	0	0	0	567	514	0	0	0	0	
15	0	0	0	0	569	516	0	0	0	0	
0	0	0	0	0	569	516	0	0	0	0	
1	0	0	0	0	568	515	0	0	0	0	
2	0	0	0	0	564	511	0	0	0	0	
3	0	0	0	0	559	507	0	0	0	0	
4	0	0	0	0	553	503	0	0	0	0	
5	0	0	0	0	546	497	0	0	0	0	
6	0	0	0	0	540	492	0	0	0	0	
7	0	0	0	0	533	487	0	0	0	0	
8	0	0	0	0	527	483	0	0	0	0	
9	0	0	0	0	523	480	0	0	0	0	
10	0	0	0	0	519	477	0	0	0	0	
11	0	0	0	0	517	475	0	0	0	0	
12	0	0	0	0	515	473	0	0	0	0	
13	0	0	0	0	515	472	0	0	0	0	
14	0	0	0	0	515	472	0	0	0	0	
15	0	0	0	0	515	472	0	0	0	0	
0	0	0	0	0	516	472	0	0	0	0	
1	0	0	0	0	518	472	0	0	0	0	
2	0	0	0	0	520	473	0	0	0	0	
3	0	0	0	0	523	473	0	0	0	0	
4	0	0	0	0	526	475	0	0	0	0	
5	0	0	0	0	528	476	0	0	0	0	
6	0	0	0	0	531	477	0	0	0	0	
7	0	0	0	0	534	479	0	0	0	0	
8	0	0	0	0	537	481	0	0	0	0	
9	0	0	0	0	539	483	0	0	0	0	
10	0	0	0	0	541	485	0	0	0	0	
11	0	0	0	0	542	487	0	0	0	0	
12	0	0	0	0	542	489	0	0	0	0	
13	0	0	0	0	542	490	0	0	0	0	
14	0	0	0	0	541	491	0	0	0	0	
15	0	0	0	0	540	492	0	0	0	0	
0	0	0	0	0	540	493	0	0	0	0	
1	0	0	0	0	539	493	0	0	0	0	
2	0	0	0	0	538	493	0	0	0	0	
3	0	0	0	0	537	492	0	0	0	0	
4	0	0	0	0	536	492	0	0	0	0	
5	0	0	0	0	535	491	0	0	0	0	
6	0	0	0	0	533	489	0	0	0	0	
7	0	0	0	0	532	487	0	0	0	0	
8	0	0	0	0	531	486	0	0	0	0	
9	0	0	0	0	530	485	0	0	0	0	
10	0	0	0	0	529	484	0	0	0	0	
11	0	0	0	0	531	484	0	0	0	0	
12	0	0	0	0	533	486	0	0	0	0	
13	0	0	0	0	536	488	0	0	0	0	
14	0	0	0	0	541	492	0	0	0	0	
15	0	0	0	0	547	497	0	0	0	0	
0	0	0	0	0	553	502	0	0	0	0	
1	0	0	0	0	559	507	0	0	0	0	
2	0	0	0	0	563	511	0	0	0	0	
3	0	0	0	0	568	515	0	0	0	0	
4	0	0	0	0	571	518	0	0	0	0	
5	0	0	0	0	571	518	0	0	0	0	
6	0	0	0	0	569	517	0	0	0	0	
7	0	0	0	0	566	515	0	0	0	0	
8	0	0	0	0	560	511	0	0	0	0	
9	0	0	0	0	554	505	0	0	0	0	
10	0	0	0	0	546	499	0	0	0	0	
11	0	0	0	0	538	492	0	0	0	0	
12	0	0	0	0	530	485	0	0	0	0	
13	0	0	0	0	523	478	0	0	0	0	
14	0	0	0	0	516	471	0	0	0	0	
15	0	0	0	0	511	466	0	0	0	0	
0	0	0	0	0	507	462	0	0	0	0	
1	0	0	0	0	504	458	0	0	0	0	
2	0	0	0	0	503	456	0	0	0	0	
3	0	0	0	0	504	456	0	0	0	0	
4	0	0	0	0	506	458	0	0	0	0	
5	0	0	0	0	510	460	0	0	0	0	
6	0	0	0	0	514	464	0	0	0	0	
7	0	0	0	0	519	468	0	0	0	0	
8	0	0	0	0	524	472	0	0	0	0	
9	0	0	0	0	528	476	0	0	0	0	
10	0	0	0	0	532	480	0	0	0	0	
11	0	0	0	0	536	484	0	0	0	0	
12	0	0	0	0	538	487	0	0	0	0	
13	0	0	0	0	540	489	0	0	0	0	
14	0	0	0	0	542	491	0	0	0	0	
15	0	0	0	0	543	492	0	0	0	0	
0	0	0	0	0	544	493	0	0	0	0	
1	0	0	0	0	546	495	0	0	0	0	
2	0	0	0	0	547	496	0	0	0	0	
3	0	0	0	0	549	497	0	0	0	0	
4	0	0	0	0	551	499	0	0	0	0	
5	0	0	0	0	553	500	0	0	0	0	
6	0	0	0	0	555	502	0	0	0	0	
7	0	0	0	0	556	504	0	0	0	0	
8	0	0	0	0	558	506	0	0	0	0	
9	0	0	0	0	558	508	0	0	0	0	
10	0	0	0	0	559	508	0	0	0	0	
11	0	0	0	0	559	509	0	0	0	0	
12	0	0	0	0	558	510	0	0	0	0	
13	0	0	0	0	556	509	0	0	0	0	
14	0	0	0	0	554	508	0	0	0	0	
15	0	0	0	0	551	506	0	0	0	0	
0	0	0	0	0	549	504	0	0	0	0	
1	0	0	0	0	547	502	0	0	0	0	
2	0	0	0	0	545	500	0	0	0	0	
3	0	0	0	0	543	498	0	0	0	0	
4	0	0	0	0	542	496	0	0	0	0	
5	0	0	0	0	540	494	0	0	0	0	
6	0	0	0	0	539	491	0	0	0	0	
7	0	0	0	0	537	487	0	0	0	0	
8	0	0	0	0	535	485	0	0	0	0	
9	0	0	0	0	532	482	0	0	0	0	
10	0	0	0	0	531	480	0	0	0	0	
11	0	0	0	0	529	478	0	0	0	0	
12	0	0	0	0	528	476	0	0	0	0	
13	0	0	0	0	526	475	0	0	0	0	
14	0	0	0	0	524	473	0	0	0	0	
15	0	0	0	0	522	471	0	0	0	0	
0	0	0	0	0	519	469	0	0	0	0	
1	0	0	0	0	515	465	0	0	0	0	
2	0	0	0	0	511	461	0	0	0	0	
3	0	0	0	0	504	456	0	0	0	0	
4	0	0	0	0	497	449	0	0	0	0	
5	0	0	0	0	489	441	0	0	0	0	
6	0	0	0	0	479	433	0	0	0	0	
7	0	0	0	0	468	423	0	0	0	0	
8	0	0	0	0	457	412	0	0	0	0	
9	0	0	0	0	445	401	0	0	0	0	
10	0	0	0	0	433	390	0	0	0	0	
11	0	0	0	0	421	378	0	0	0	0	
12	0	0	0	0	409	366	0	0	0	0	
13	0	0	0	0	397	353	0	0	0	0	
14	0	0	0	0	386	341	0	0	0	0	
15	0	0	0	0	375	329	0	0	0	0	
0	0	0	0	0	364	317	0	0	0	0	
1	0	0	0	0	352	305	0	0	0	0	
2	0	0	0	0	340	294	0	0	0	0	
3	0	0	0	0	328	282	0	0	0	0	
4	0	0	0	0	316	271	0	0	0	0	
5	0	0	0	0	304	260	0	0	0	0	
6	0	0	0	0	294	251	0	0	0	0	
7	0	0	0	0	286	243	0	0	0	0	
8	0	0	0	0	280	238	0	0	0	0	
9	0	0	0	0	279	236	0	0	0	0	
10	0	0	0	0	281	237	0	0	0	0	
11	0	0	0	0	287	242	0	0	0	0	
12	0	0	0	0	300	252	0	0	0	0	
13	0	0	0	0	316	265	0	0	0	0	
14	0	0	0	0	337	283	0	0	0	0	
15	0	0	0	0	363	303	0	0	0	0	
0	0	0	0	0	390	326	0	0	0	0	
1	0	0	0	0	419	351	0	0	0	0	
2	0	0	0	0	449	376	0	0	0	0	
3	0	0	0	0	477	402	0	0	0	0	
4	0	0	0	0	504	426	0	0	0	0	
5	0	0	0	0	527	449	0	0	0	0	
6	0	0	0	0	547	468	0	0	0	0	
7	0	0	0	0	563	485	0	0	0	0	
8	0	0	0	0	574	498	0	0	0	0	
9	0	0	0	0	579	507	0	0	0	0	
10	0	0	0	0	581	513	0	0	0	0	
11	0	0	0	0	579	515	0	0	0	0	
12	0	0	0	0	574	514	0	0	0	0	
13	0	0	0	0	566	512	0	0	0	0	
14	0	0	0	0	557	508	0	0	0	0	
15	0	0	0	0	548	503	0	0	0	0	
0	0	0	0	0	540	498	0	0	0	0	
1	0	0	0	0	534	493	0	0	0	0	
2	0	0	0	0	529	489	0	0	0	0	
3	0	0	0	0	527	486	0	0	0	0	
4	0	0	0	0	526	484	0	0	0	0	
5	0	0	0	0	526	483	0	0	0	0	
6	0	0	0	0	529	483	0	0	0	0	
7	0	0	0	0	532	483	0	0	0	0	
8	0	0	0	0	536	484	0	0	0	0	
9	0	0	0	0	540	486	0	0	0	0	
10	0	0	0	0	544	488	0	0	0	0	
11	0	0	0	0	548	491	0	0	0	0	
12	0	0	0	0	551	493	0	0	0	0	
13	0	0	0	0	555	496	0	0	0	0	
14	0	0	0	0	557	497	0	0	0	0	
15	0	0	0	0	558	499	0	0	0	0	
0	0	0	0	0	559	501	0	0	0	0	
1	0	0	0	0	559	502	0	0	0	0	
2	0	0	0	0	558	502	0	0	0	0	
3	0	0	0	0	556	502	0	0	0	0	
4	0	0	0	0	553	500	0	0	0	0	
5	0	0	0	0	551	499	0	0	0	0	
6	0	0	0	0	548	497	0	0	0	0	
7	0	0	0	0	545	495	0	0	0	0	
8	0	0	0	0	542	492	0	0	0	0	
9	0	0	0	0	540	489	0	0	0	0	
10	0	0	0	0	537	487	0	0	0	0	
11	0	0	0	0	535	485	0	0	0	0	
12	0	0	0	0	534	483	0	0	0	0	
13	0	0	0	0	533	483	0	0	0	0	
14	0	0	0	0	532	483	0	0	0	0	
15	0	0	0	0	534	484	0	0	0	0	
0	0	0	0	0	536	486	0	0	0	0	
1	0	0	0	0	539	488	0	0	0	0	
2	0	0	0	0	542	492	0	0	0	0	
3	0	0	0	0	546	495	0	0	0	0	
4	0	0	0	0	551	499	0	0	0	0	
5	0	0	0	0	556	503	0	0	0	0	
6	0	0	0	0	560	507	0	0	0	0	
7	0	0	0	0	566	511	0	0	0	0	
8	0	0	0	0	571	515	0	0	0	0	
9	0	0	0	0	576	519	0	0	0	0	
10	0	0	0	0	580	522	0	0	0	0	
11	0	0	0	0	583	524	0	0	0	0	
12	0	0	0	0	585	526	0	0	0	0	
13	0	0	0	0	586	527	0	0	0	0	
14	0	0	0	0	586	527	0	0	0	0	
15	0	0	0	0	584	526	0	0	0	0	
0	0	0	0	0	582	525	0	0	0	0	
1	0	0	0	0	579	523	0	0	0	0	
2	0	0	0	0	575	520	0	0	0	0	
3	0	0	0	0	570	516	0	0	0	0	
4	0	0	0	0	565	512	0	0	0	0	
5	0	0	0	0	559	508	0	0	0	0	
6	0	0	0	0	553	503	0	0	0	0	
7	0	0	0	0	546	497	0	0	0	0	
8	0	0	0	0	541	492	0	0	0	0	
9	0	0	0	0	535	486	0	0	0	0	
10	0	0	0	0	530	481	0	0	0	0	
11	0	0	0	0	526	477	0	0	0	0	
12	0	0	0	0	524	474	0	0	0	0	
13	0	0	0	0	524	472	0	0	0	0	
14	0	0	0	0	525	472	0	0	0	0	
15	0	0	0	0	528	473	0	0	0	0	
0	0	0	0	0	532	476	0	0	0	0	
1	0	0	0	0	538	480	0	0	0	0	
2	0	0	0	0	545	485	0	0	0	0	
3	0	0	0	0	553	492	0	0	0	0	
4	0	0	0	0	562	499	0	0	0	0	
5	0	0	0	0	570	506	0	0	0	0	
6	0	0	0	0	578	514	0	0	0	0	
7	0	0	0	0	585	521	0	0	0	0	
8	0	0	0	0	590	527	0	0	0	0	
9	0	0	0	0	593	531	0	0	0	0	
10	0	0	0	0	595	534	0	0	0	0	
11	0	0	0	0	594	535	0	0	0	0	
12	0	0	0	0	592	535	0	0	0	0	
13	0	0	0	0	588	533	0	0	0	0	
14	0	0	0	0	583	530	0	0	0	0	
15	0	0	0	0	577	526	0	0	0	0	
0	0	0	0	0	571	520	0	0	0	0	
1	0	0	0	0	564	514	0	0	0	0	
2	0	0	0	0	556	507	0	0	0	0	
3	0	0	0	0	548	500	0	0	0	0	
4	0	0	0	0	541	493	0	0	0	0	
5	0	0	0	0	534	487	0	0	0	0	
6	0	0	0	0	528	480	0	0	0	0	
7	0	0	0	0	523	475	0	0	0	0	
8	0	0	0	0	519	471	0	0	0	0	
9	0	0	0	0	517	468	0	0	0	0	
10	0	0	0	0	516	467	0	0	0	0	
11	0	0	0	0	519	467	0	0	0	0	
12	0	0	0	0	523	469	0	0	0	0	
13	0	0	0	0	528	473	0	0	0	0	
14	0	0	0	0	535	478	0	0	0	0	
15	0	0	0	0	542	483	0	0	0	0	
0	0	0	0	0	549	489	0	0	0	0	
1	0	0	0	0	556	495	0	0	0	0	
2	0	0	0	0	561	500	0	0	0	0	
3	0	0	0	0	566	504	0	0	0	0	
4	0	0	0	0	568	507	0	0	0	0	
5	0	0	0	0	571	510	0	0	0	0	
6	0	0	0	0	572	511	0	0	0	0	
7	0	0	0	0	572	512	0	0	0	0	
8	0	0	0	0	572	512	0	0	0	0	
9	0	0	0	0	570	512	0	0	0	0	
10	0	0	0	0	569	511	0	0	0	0	
11	0	0	0	0	567	511	0	0	0	0	
12	0	0	0	0	564	509	0	0	0	0	
13	0	0	0	0	562	508	0	0	0	0	
14	0	0	0	0	560	508	0	0	0	0	
15	0	0	0	0	559	507	0	0	0	0	
0	0	0	0	0	558	505	0	0	0	0	
1	0	0	0	0	556	504	0	0	0	0	
2	0	0	0	0	555	504	0	0	0	0	
3	0	0	0	0	554	502	0	0	0	0	
4	0	0	0	0	553	500	0	0	0	0	
5	0	0	0	0	552	499	0	0	0	0	
6	0	0	0	0	551	496	0	0	0	0	
7	0	0	0	0	549	494	0	0	0	0	
8	0	0	0	0	547	492	0	0	0	0	
9	0	0	0	0	546	489	0	0	0	0	
10	0	0	0	0	544	487	0	0	0	0	
11	0	0	0	0	542	485	0	0	0	0	
12	0	0	0	0	540	483	0	0	0	0	
13	0	0	0	0	538	483	0	0	0	0	
14	0	0	0	0	538	483	0	0	0	0	
15	0	0	0	0	539	485	0	0	0	0	
0	0	0	0	0	540	488	0	0	0	0	
1	0	0	0	0	543	492	0	0	0	0	
2	0	0	0	0	546	496	0	0	0	0	
3	0	0	0	0	551	500	0	0	0	0	
4	0	0	0	0	555	505	0	0	0	0	
5	0	0	0	0	558	508	0	0	0	0	
6	0	0	0	0	560	511	0	0	0	0	
7	0	0	0	0	561	513	0	0	0	0	
8	0	0	0	0	561	512	0	0	0	0	
9	0	0	0	0	560	511	0	0	0	0	
10	0	0	0	0	558	509	0	0	0	0	
11	0	0	0	0	554	505	0	0	0	0	
12	0	0	0	0	550	500	0	0	0	0	
13	0	0	0	0	545	496	0	0	0	0	
14	0	0	0	0	540	491	0	0	0	0	
15	0	0	0	0	536	486	0	0	0	0	
0	0	0	0	0	531	482	0	0	0	0	
1	0	0	0	0	529	479	0	0	0	0	
2	0	0	0	0	527	477	0	0	0	0	
3	0	0	0	0	526	477	0	0	0	0	
4	0	0	0	0	527	477	0	0	0	0	
5	0	0	0	0	527	478	0	0	0	0	
6	0	0	0	0	528	479	0	0	0	0	
7	0	0	0	0	529	480	0	0	0	0	
8	0	0	0	0	529	481	0	0	0	0	
9	0	0	0	0	529	481	0	0	0	0	
10	0	0	0	0	529	481	0	0	0	0	
11	0	0	0	0	528	481	0	0	0	0	
12	0	0	0	0	527	480	0	0	0	0	
13	0	0	0	0	526	478	0	0	0	0	
14	0	0	0	0	524	476	0	0	0	0	
15	0	0	0	0	521	473	0	0	0	0	
0	0	0	0	0	520	470	0	0	0	0	
1	0	0	0	0	518	467	0	0	0	0	
2	0	0	0	0	516	465	0	0	0	0	
3	0	0	0	0	514	463	0	0	0	0	
4	0	0	0	0	513	461	0	0	0	0	
5	0	0	0	0	513	460	0	0	0	0	
6	0	0	0	0	513	460	0	0	0	0	
7	0	0	0	0	515	462	0	0	0	0	
8	0	0	0	0	517	464	0	0	0	0	
9	0	0	0	0	520	467	0	0	0	0	
10	0	0	0	0	524	471	0	0	0	0	
11	0	0	0	0	528	476	0	0	0	0	
12	0	0	0	0	532	480	0	0	0	0	
13	0	0	0	0	536	484	0	0	0	0	
14	0	0	0	0	540	488	0	0	0	0	
15	0	0	0	0	542	491	0	0	0	0	
0	0	0	0	0	544	492	0	0	0	0	
1	0	0	0	0	545	493	0	0	0	0	
2	0	0	0	0	545	494	0	0	0	0	
3	0	0	0	0	545	493	0	0	0	0	
4	0	0	0	0	545	492	0	0	0	0	
5	0	0	0	0	544	492	0	0	0	0	
6	0	0	0	0	543	490	0	0	0	0	
7	0	0	0	0	542	489	0	0	0	0	
8	0	0	0	0	540	488	0	0	0	0	
9	0	0	0	0	538	487	0	0	0	0	
10	0	0	0	0	536	486	0	0	0	0	
11	0	0	0	0	535	484	0	0	0	0	
12	0	0	0	0	533	483	0	0	0	0	
13	0	0	0	0	531	482	0	0	0	0	
14	0	0	0	0	529	481	0	0	0	0	
15	0	0	0	0	527	480	0	0	0	0	
0	0	0	0	0	527	480	0	0	0	0	
1	0	0	0	0	526	479	0	0	0	0	
2	0	0	0	0	525	478	0	0	0	0	
3	0	0	0	0	524	477	0	0	0	0	
4	0	0	0	0	525	476	0	0	0	0	
5	0	0	0	0	525	476	0	0	0	0	
6	0	0	0	0	526	475	0	0	0	0	
7	0	0	0	0	526	474	0	0	0	0	
8	0	0	0	0	527	474	0	0	0	0	
9	0	0	0	0	528	473	0	0	0	0	
10	0	0	0	0	529	473	0	0	0	0	
11	0	0	0	0	530	474	0	0	0	0	
12	0	0	0	0	532	475	0	0	0	0	
13	0	0	0	0	534	477	0	0	0	0	
14	0	0	0	0	536	479	0	0	0	0	
15	0	0	0	0	539	482	0	0	0	0	
0	0	0	0	0	542	485	0	0	0	0	
1	0	0	0	0	544	487	0	0	0	0	
2	0	0	0	0	545	490	0	0	0	0	
3	0	0	0	0	547	491	0	0	0	0	
4	0	0	0	0	547	493	0	0	0	0	
5	0	0	0	0	547	494	0	0	0	0	
6	0	0	0	0	547	494	0	0	0	0	
7	0	0	0	0	546	494	0	0	0	0	
8	0	0	0	0	545	493	0	0	0	0	
9	0	0	0	0	543	492	0	0	0	0	
10	0	0	0	0	543	492	0	0	0	0	
11	0	0	0	0	541	491	0	0	0	0	
12	0	0	0	0	540	490	0	0	0	0	
13	0	0	0	0	540	489	0	0	0	0	
14	0	0	0	0	541	489	0	0	0	0	
15	0	0	0	0	542	489	0	0	0	0	
0	0	0	0	0	542	489	0	0	0	0	
1	0	0	0	0	543	489	0	0	0	0	
2	0	0	0	0	543	488	0	0	0	0	
3	0	0	0	0	543	488	0	0	0	0	
4	0	0	0	0	542	487	0	0	0	0	
5	0	0	0	0	541	486	0	0	0	0	
6	0	0	0	0	539	485	0	0	0	0	
7	0	0	0	0	538	484	0	0	0	0	
8	0	0	0	0	537	485	0	0	0	0	
9	0	0	0	0	536	486	0	0	0	0	
10	0	0	0	0	536	487	0	0	0	0	
11	0	0	0	0	537	489	0	0	0	0	
12	0	0	0	0	539	491	0	0	0	0	
13	0	0	0	0	540	492	0	0	0	0	
14	0	0	0	0	541	493	0	0	0	0	
15	0	0	0	0	542	494	0	0	0	0	
0	0	0	0	0	543	494	0	0	0	0	
1	0	0	0	0	544	494	0	0	0	0	
2	0	0	0	0	545	493	0	0	0	0	
3	0	0	0	0	545	493	0	0	0	0	
4	0	0	0	0	545	492	0	0	0	0	
5	0	0	0	0	545	492	0	0	0	0	
6	0	0	0	0	546	492	0	0	0	0	
7	0	0	0	0	547	493	0	0	0	0	
8	0	0	0	0	548	494	0	0	0	0	
9	0	0	0	0	548	495	0	0	0	0	
10	0	0	0	0	549	496	0	0	0	0	
11	0	0	0	0	550	497	0	0	0	0	
12	0	0	0	0	551	498	0	0	0	0	
13	0	0	0	0	551	498	0	0	0	0	
14	0	0	0	0	550	498	0	0	0	0	
15	0	0	0	0	549	497	0	0	0	0	
0	0	0	0	0	548	497	0	0	0	0	
1	0	0	0	0	548	496	0	0	0	0	
2	0	0	0	0	547	495	0	0	0	0	
3	0	0	0	0	545	494	0	0	0	0	
4	0	0	0	0	543	492	0	0	0	0	
5	0	0	0	0	543	490	0	0	0	0	
6	0	0	0	0	542	489	0	0	0	0	
7	0	0	0	0	541	488	0	0	0	0	
8	0	0	0	0	541	487	0	0	0	0	
9	0	0	0	0	541	487	0	0	0	0	
10	0	0	0	0	542	487	0	0	0	0	
11	0	0	0	0	542	488	0	0	0	0	
12	0	0	0	0	543	489	0	0	0	0	
13	0	0	0	0	543	489	0	0	0	0	
14	0	0	0	0	543	490	0	0	0	0	
15	0	0	0	0	543	490	0	0	0	0	
0	0	0	0	0	542	490	0	0	0	0	
1	0	0	0	0	541	489	0	0	0	0	
2	0	0	0	0	539	487	0	0	0	0	
3	0	0	0	0	538	486	0	0	0	0	
4	0	0	0	0	536	484	0	0	0	0	
5	0	0	0	0	534	483	0	0	0	0	
6	0	0	0	0	532	481	0	0	0	0	
7	0	0	0	0	531	480	0	0	0	0	
8	0	0	0	0	531	480	0	0	0	0	
9	0	0	0	0	531	480	0	0	0	0	
10	0	0	0	0	531	480	0	0	0	0	
11	0	0	0	0	534	482	0	0	0	0	
12	0	0	0	0	536	484	0	0	0	0	
13	0	0	0	0	540	487	0	0	0	0	
14	0	0	0	0	544	492	0	0	0	0	
15	0	0	0	0	550	497	0	0	0	0	
0	0	0	0	0	556	504	0	0	0	0	
1	0	0	0	0	562	510	0	0	0	0	
2	0	0	0	0	568	516	0	0	0	0	
3	0	0	0	0	574	523	0	0	0	0	
4	0	0	0	0	579	528	0	0	0	0	
5	0	0	0	0	583	533	0	0	0	0	
6	0	0	0	0	586	536	0	0	0	0	
7	0	0	0	0	589	538	0	0	0	0	
8	0	0	0	0	589	538	0	0	0	0	
9	0	0	0	0	588	537	0	0	0	0	
10	0	0	0	0	587	536	0	0	0	0	
11	0	0	0	0	584	533	0	0	0	0	
12	0	0	0	0	582	530	0	0	0	0	
13	0	0	0	0	578	527	0	0	0	0	
14	0	0	0	0	574	523	0	0	0	0	
15	0	0	0	0	570	519	0	0	0	0	
0	0	0	0	0	566	516	0	0	0	0	
1	0	0	0	0	563	513	0	0	0	0	
2	0	0	0	0	559	510	0	0	0	0	
3	0	0	0	0	556	508	0	0	0	0	
4	0	0	0	0	553	505	0	0	0	0	
5	0	0	0	0	551	504	0	0	0	0	
6	0	0	0	0	549	503	0	0	0	0	
7	0	0	0	0	548	502	0	0	0	0	
8	0	0	0	0	548	502	0	0	0	0	
9	0	0	0	0	548	502	0	0	0	0	
10	0	0	0	0	548	502	0	0	0	0	
11	0	0	0	0	550	502	0	0	0	0	
12	0	0	0	0	551	503	0	0	0	0	
13	0	0	0	0	551	503	0	0	0	0	
14	0	0	0	0	553	504	0	0	0	0	
15	0	0	0	0	554	504	0	0	0	0	
0	0	0	0	0	555	504	0	0	0	0	
1	0	0	0	0	556	503	0	0	0	0	
2	0	0	0	0	556	502	0	0	0	0	
3	0	0	0	0	555	502	0	0	0	0	
4	0	0	0	0	555	500	0	0	0	0	
5	0	0	0	0	553	499	0	0	0	0	
6	0	0	0	0	552	498	0	0	0	0	
7	0	0	0	0	550	497	0	0	0	0	
8	0	0	0	0	548	496	0	0	0	0	
9	0	0	0	0	546	496	0	0	0	0	
10	0	0	0	0	544	495	0	0	0	0	
11	0	0	0	0	543	494	0	0	0	0	
12	0	0	0	0	541	493	0	0	0	0	
13	0	0	0	0	539	492	0	0	0	0	
14	0	0	0	0	537	490	0	0	0	0	
15	0	0	0	0	535	488	0	0	0	0	
0	0	0	0	0	534	486	0	0	0	0	
1	0	0	0	0	533	484	0	0	0	0	
2	0	0	0	0	531	483	0	0	0	0	
3	0	0	0	0	531	481	0	0	0	0	
4	0	0	0	0	530	480	0	0	0	0	
5	0	0	0	0	530	479	0	0	0	0	
6	0	0	0	0	531	479	0	0	0	0	
7	0	0	0	0	532	479	0	0	0	0	
8	0	0	0	0	533	480	0	0	0	0	
9	0	0	0	0	534	481	0	0	0	0	
10	0	0	0	0	536	483	0	0	0	0	
11	0	0	0	0	537	485	0	0	0	0	
12	0	0	0	0	539	487	0	0	0	0	
13	0	0	0	0	540	488	0	0	0	0	
14	0	0	0	0	541	489	0	0	0	0	
15	0	0	0	0	541	491	0	0	0	0	
0	0	0	0	0	542	492	0	0	0	0	
1	0	0	0	0	542	493	0	0	0	0	
2	0	0	0	0	542	493	0	0	0	0	
3	0	0	0	0	541	493	0	0	0	0	
4	0	0	0	0	541	493	0	0	0	0	
5	0	0	0	0	540	492	0	0	0	0	
6	0	0	0	0	540	491	0	0	0	0	
7	0	0	0	0	538	489	0	0	0	0	
8	0	0	0	0	537	488	0	0	0	0	
9	0	0	0	0	536	486	0	0	0	0	
10	0	0	0	0	535	485	0	0	0	0	
11	0	0	0	0	534	483	0	0	0	0	
12	0	0	0	0	533	483	0	0	0	0	
13	0	0	0	0	532	482	0	0	0	0	
14	0	0	0	0	533	482	0	0	0	0	
15	0	0	0	0	534	483	0	0	0	0	
0	0	0	0	0	535	484	0	0	0	0	
1	0	0	0	0	536	486	0	0	0	0	
2	0	0	0	0	537	487	0	0	0	0	
3	0	0	0	0	540	489	0	0	0	0	
4	0	0	0	0	542	491	0	0	0	0	
5	0	0	0	0	543	493	0	0	0	0	
6	0	0	0	0	546	496	0	0	0	0	
7	0	0	0	0	548	498	0	0	0	0	
8	0	0	0	0	552	501	0	0	0	0	
9	0	0	0	0	554	503	0	0	0	0	
10	0	0	0	0	556	505	0	0	0	0	
11	0	0	0	0	558	506	0	0	0	0	
12	0	0	0	0	560	508	0	0	0	0	
13	0	0	0	0	562	510	0	0	0	0	
14	0	0	0	0	563	511	0	0	0	0	
15	0	0	0	0	565	512	0	0	0	0	
0	0	0	0	0	566	512	0	0	0	0	
1	0	0	0	0	566	513	0	0	0	0	
2	0	0	0	0	566	513	0	0	0	0	
3	0	0	0	0	565	512	0	0	0	0	
4	0	0	0	0	564	511	0	0	0	0	
5	0	0	0	0	563	510	0	0	0	0	
6	0	0	0	0	561	509	0	0	0	0	
7	0	0	0	0	559	508	0	0	0	0	
8	0	0	0	0	557	506	0	0	0	0	
9	0	0	0	0	555	504	0	0	0	0	
10	0	0	0	0	552	502	0	0	0	0	
11	0	0	0	0	550	500	0	0	0	0	
12	0	0	0	0	547	497	0	0	0	0	
13	0	0	0	0	543	494	0	0	0	0	
14	0	0	0	0	540	490	0	0	0	0	
15	0	0	0	0	536	486	0	0	0	0	
0	0	0	0	0	532	481	0	0	0	0	
1	0	0	0	0	529	477	0	0	0	0	
2	0	0	0	0	525	472	0	0	0	0	
3	0	0	0	0	523	469	0	0	0	0	
4	0	0	0	0	521	466	0	0	0	0	
5	0	0	0	0	519	465	0	0	0	0	
6	0	0	0	0	521	465	0	0	0	0	
7	0	0	0	0	523	467	0	0	0	0	
8	0	0	0	0	526	470	0	0	0	0	
9	0	0	0	0	530	474	0	0	0	0	
10	0	0	0	0	535	479	0	0	0	0	
11	0	0	0	0	540	484	0	0	0	0	
12	0	0	0	0	545	489	0	0	0	0	
13	0	0	0	0	549	494	0	0	0	0	
14	0	0	0	0	553	498	0	0	0	0	
15	0	0	0	0	556	501	0	0	0	0	
0	0	0	0	0	558	503	0	0	0	0	
1	0	0	0	0	558	504	0	0	0	0	
2	0	0	0	0	558	503	0	0	0	0	
3	0	0	0	0	556	502	0	0	0	0	
4	0	0	0	0	554	499	0	0	0	0	
5	0	0	0	0	552	497	0	0	0	0	
6	0	0	0	0	551	495	0	0	0	0	
7	0	0	0	0	549	493	0	0	0	0	
8	0	0	0	0	548	492	0	0	0	0	
9	0	0	0	0	549	492	0	0	0	0	
10	0	0	0	0	550	492	0	0	0	0	
11	0	0	0	0	552	495	0	0	0	0	
12	0	0	0	0	555	498	0	0	0	0	
13	0	0	0	0	559	502	0	0	0	0	
14	0	0	0	0	563	506	0	0	0	0	
15	0	0	0	0	567	510	0	0	0	0	
0	0	0	0	0	569	514	0	0	0	0	
1	0	0	0	0	572	517	0	0	0	0	
2	0	0	0	0	574	520	0	0	0	0	
3	0	0	0	0	574	522	0	0	0	0	
4	0	0	0	0	574	523	0	0	0	0	
5	0	0	0	0	573	522	0	0	0	0	
6	0	0	0	0	571	520	0	0	0	0	
7	0	0	0	0	567	517	0	0	0	0	
8	0	0	0	0	562	513	0	0	0	0	
9	0	0	0	0	556	508	0	0	0	0	
10	0	0	0	0	551	503	0	0	0	0	
11	0	0	0	0	546	498	0	0	0	0	
12	0	0	0	0	542	494	0	0	0	0	
13	0	0	0	0	540	491	0	0	0	0	
14	0	0	0	0	538	489	0	0	0	0	
15	0	0	0	0	538	489	0	0	0	0	
0	0	0	0	0	539	490	0	0	0	0	
1	0	0	0	0	541	491	0	0	0	0	
2	0	0	0	0	543	492	0	0	0	0	
3	0	0	0	0	545	494	0	0	0	0	
4	0	0	0	0	547	496	0	0	0	0	
5	0	0	0	0	549	497	0	0	0	0	
6	0	0	0	0	550	497	0	0	0	0	
7	0	0	0	0	549	497	0	0	0	0	
8	0	0	0	0	548	495	0	0	0	0	
9	0	0	0	0	547	494	0	0	0	0	
10	0	0	0	0	545	492	0	0	0	0	
11	0	0	0	0	543	489	0	0	0	0	
12	0	0	0	0	542	487	0	0	0	0	
13	0	0	0	0	540	485	0	0	0	0	
14	0	0	0	0	539	483	0	0	0	0	
15	0	0	0	0	537	482	0	0	0	0	
0	0	0	0	0	537	481	0	0	0	0	
1	0	0	0	0	537	481	0	0	0	0	
2	0	0	0	0	538	482	0	0	0	0	
3	0	0	0	0	540	483	0	0	0	0	
4	0	0	0	0	541	484	0	0	0	0	
5	0	0	0	0	542	486	0	0	0	0	
6	0	0	0	0	543	487	0	0	0	0	
7	0	0	0	0	545	489	0	0	0	0	
8	0	0	0	0	546	490	0	0	0	0	
9	0	0	0	0	546	491	0	0	0	0	
10	0	0	0	0	547	492	0	0	0	0	
11	0	0	0	0	547	493	0	0	0	0	
12	0	0	0	0	548	494	0	0	0	0	
13	0	0	0	0	549	495	0	0	0	0	
14	0	0	0	0	550	495	0	0	0	0	
15	0	0	0	0	551	496	0	0	0	0	
0	0	0	0	0	551	496	0	0	0	0	
1	0	0	0	0	553	497	0	0	0	0	
2	0	0	0	0	555	497	0	0	0	0	
3	0	0	0	0	556	499	0	0	0	0	
4	0	0	0	0	558	499	0	0	0	0	
5	0	0	0	0	559	500	0	0	0	0	
6	0	0	0	0	561	502	0	0	0	0	
7	0	0	0	0	563	504	0	0	0	0	
8	0	0	0	0	565	507	0	0	0	0	
9	0	0	0	0	567	510	0	0	0	0	
10	0	0	0	0	569	513	0	0	0	0	
11	0	0	0	0	572	516	0	0	0	0	
12	0	0	0	0	574	519	0	0	0	0	
13	0	0	0	0	575	521	0	0	0	0	
14	0	0	0	0	577	523	0	0	0	0	
15	0	0	0	0	577	524	0	0	0	0	
0	0	0	0	0	577	523	0	0	0	0	
1	0	0	0	0	575	522	0	0	0	0	
2	0	0	0	0	573	519	0	0	0	0	
3	0	0	0	0	570	516	0	0	0	0	
4	0	0	0	0	566	512	0	0	0	0	
5	0	0	0	0	563	509	0	0	0	0	
6	0	0	0	0	561	507	0	0	0	0	
7	0	0	0	0	559	505	0	0	0	0	
8	0	0	0	0	557	504	0	0	0	0	
9	0	0	0	0	557	504	0	0	0	0	
10	0	0	0	0	557	505	0	0	0	0	
11	0	0	0	0	558	506	0	0	0	0	
12	0	0	0	0	560	509	0	0	0	0	
13	0	0	0	0	563	511	0	0	0	0	
14	0	0	0	0	565	514	0	0	0	0	
15	0	0	0	0	568	517	0	0	0	0	
0	0	0	0	0	569	519	0	0	0	0	
1	0	0	0	0	569	519	0	0	0	0	
2	0	0	0	0	568	517	0	0	0	0	
3	0	0	0	0	563	514	0	0	0	0	
4	0	0	0	0	558	508	0	0	0	0	
5	0	0	0	0	551	502	0	0	0	0	
6	0	0	0	0	543	495	0	0	0	0	
7	0	0	0	0	534	487	0	0	0	0	
8	0	0	0	0	526	479	0	0	0	0	
9	0	0	0	0	519	473	0	0	0	0	
10	0	0	0	0	514	467	0	0	0	0	
11	0	0	0	0	511	464	0	0	0	0	
12	0	0	0	0	510	462	0	0	0	0	
13	0	0	0	0	511	463	0	0	0	0	
14	0	0	0	0	515	466	0	0	0	0	
15	0	0	0	0	520	470	0	0	0	0	
0	0	0	0	0	527	477	0	0	0	0	
1	0	0	0	0	536	483	0	0	0	0	
2	0	0	0	0	543	491	0	0	0	0	
3	0	0	0	0	552	498	0	0	0	0	
4	0	0	0	0	559	504	0	0	0	0	
5	0	0	0	0	564	509	0	0	0	0	
6	0	0	0	0	568	512	0	0	0	0	
7	0	0	0	0	569	515	0	0	0	0	
8	0	0	0	0	569	515	0	0	0	0	
9	0	0	0	0	568	515	0	0	0	0	
10	0	0	0	0	565	513	0	0	0	0	
11	0	0	0	0	561	510	0	0	0	0	
12	0	0	0	0	556	507	0	0	0	0	
13	0	0	0	0	552	503	0	0	0	0	
14	0	0	0	0	548	499	0	0	0	0	
15	0	0	0	0	545	496	0	0	0	0	
0	0	0	0	0	542	493	0	0	0	0	
1	0	0	0	0	540	491	0	0	0	0	
2	0	0	0	0	539	489	0	0	0	0	
3	0	0	0	0	539	488	0	0	0	0	
4	0	0	0	0	539	488	0	0	0	0	
5	0	0	0	0	540	488	0	0	0	0	
6	0	0	0	0	541	488	0	0	0	0	
7	0	0	0	0	543	489	0	0	0	0	
8	0	0	0	0	545	490	0	0	0	0	
9	0	0	0	0	546	491	0	0	0	0	
10	0	0	0	0	547	492	0	0	0	0	
11	0	0	0	0	548	493	0	0	0	0	
12	0	0	0	0	549	494	0	0	0	0	
13	0	0	0	0	550	494	0	0	0	0	
14	0	0	0	0	550	494	0	0	0	0	
15	0	0	0	0	550	495	0	0	0	0	
0	0	0	0	0	550	495	0	0	0	0	
1	0	0	0	0	550	495	0	0	0	0	
2	0	0	0	0	550	495	0	0	0	0	
3	0	0	0	0	551	495	0	0	0	0	
4	0	0	0	0	553	496	0	0	0	0	
5	0	0	0	0	554	496	0	0	0	0	
6	0	0	0	0	557	498	0	0	0	0	
7	0	0	0	0	559	499	0	0	0	0	
8	0	0	0	0	561	501	0	0	0	0	
9	0	0	0	0	563	504	0	0	0	0	
10	0	0	0	0	565	505	0	0	0	0	
11	0	0	0	0	567	507	0	0	0	0	
12	0	0	0	0	567	508	0	0	0	0	
13	0	0	0	0	567	508	0	0	0	0	
14	0	0	0	0	566	508	0	0	0	0	
15	0	0	0	0	564	508	0	0	0	0	
0	0	0	0	0	562	507	0	0	0	0	
1	0	0	0	0	559	505	0	0	0	0	
2	0	0	0	0	556	502	0	0	0	0	
3	0	0	0	0	551	499	0	0	0	0	
4	0	0	0	0	547	495	0	0	0	0	
5	0	0	0	0	543	491	0	0	0	0	
6	0	0	0	0	539	487	0	0	0	0	
7	0	0	0	0	535	484	0	0	0	0	
8	0	0	0	0	531	481	0	0	0	0	
9	0	0	0	0	529	479	0	0	0	0	
10	0	0	0	0	528	478	0	0	0	0	
11	0	0	0	0	529	478	0	0	0	0	
12	0	0	0	0	529	479	0	0	0	0	
13	0	0	0	0	532	481	0	0	0	0	
14	0	0	0	0	535	484	0	0	0	0	
15	0	0	0	0	539	488	0	0	0	0	
0	0	0	0	0	543	491	0	0	0	0	
1	0	0	0	0	547	495	0	0	0	0	
2	0	0	0	0	550	497	0	0	0	0	
3	0	0	0	0	551	499	0	0	0	0	
4	0	0	0	0	553	499	0	0	0	0	
5	0	0	0	0	554	499	0	0	0	0	
6	0	0	0	0	554	499	0	0	0	0	
7	0	0	0	0	553	497	0	0	0	0	
8	0	0	0	0	553	496	0	0	0	0	
9	0	0	0	0	552	495	0	0	0	0	
10	0	0	0	0	552	494	0	0	0	0	
11	0	0	0	0	551	492	0	0	0	0	
12	0	0	0	0	551	491	0	0	0	0	
13	0	0	0	0	551	491	0	0	0	0	
14	0	0	0	0	551	489	0	0	0	0	
15	0	0	0	0	552	489	0	0	0	0	
0	0	0	0	0	551	488	0	0	0	0	
1	0	0	0	0	550	487	0	0	0	0	
2	0	0	0	0	548	486	0	0	0	0	
3	0	0	0	0	545	482	0	0	0	0	
4	0	0	0	0	541	479	0	0	0	0	
5	0	0	0	0	535	473	0	0	0	0	
6	0	0	0	0	527	466	0	0	0	0	
7	0	0	0	0	518	458	0	0	0	0	
8	0	0	0	0	508	448	0	0	0	0	
9	0	0	0	0	496	436	0	0	0	0	
10	0	0	0	0	483	424	0	0	0	0	
11	0	0	0	0	470	412	0	0	0	0	
12	0	0	0	0	455	398	0	0	0	0	
13	0	0	0	0	442	385	0	0	0	0	
14	0	0	0	0	428	371	0	0	0	0	
15	0	0	0	0	413	357	0	0	0	0	
0	0	0	0	0	398	342	0	0	0	0	
1	0	0	0	0	383	327	0	0	0	0	
2	0	0	0	0	367	312	0	0	0	0	
3	0	0	0	0	351	297	0	0	0	0	
4	0	0	0	0	335	282	0	0	0	0	
5	0	0	0	0	319	267	0	0	0	0	
6	0	0	0	0	304	253	0	0	0	0	
7	0	0	0	0	291	240	0	0	0	0	
8	0	0	0	0	281	230	0	0	0	0	
9	0	0	0	0	273	222	0	0	0	0	
10	0	0	0	0	269	218	0	0	0	0	
11	0	0	0	0	270	218	0	0	0	0	
12	0	0	0	0	276	222	0	0	0	0	
13	0	0	0	0	287	231	0	0	0	0	
14	0	0	0	0	304	244	0	0	0	0	
15	0	0	0	0	324	261	0	0	0	0	
0	0	0	0	0	349	282	0	0	0	0	
1	0	0	0	0	376	305	0	0	0	0	
2	0	0	0	0	406	330	0	0	0	0	
3	0	0	0	0	436	356	0	0	0	0	
4	0	0	0	0	465	383	0	0	0	0	
5	0	0	0	0	494	409	0	0	0	0	
6	0	0	0	0	519	433	0	0	0	0	
7	0	0	0	0	543	456	0	0	0	0	
8	0	0	0	0	563	477	0	0	0	0	
9	0	0	0	0	579	495	0	0	0	0	
10	0	0	0	0	591	510	0	0	0	0	
11	0	0	0	0	600	521	0	0	0	0	
12	0	0	0	0	604	530	0	0	0	0	
13	0	0	0	0	606	536	0	0	0	0	
14	0	0	0	0	605	539	0	0	0	0	
15	0	0	0	0	602	539	0	0	0	0	
0	0	0	0	0	597	537	0	0	0	0	
1	0	0	0	0	590	533	0	0	0	0	
2	0	0	0	0	583	527	0	0	0	0	
3	0	0	0	0	574	520	0	0	0	0	
4	0	0	0	0	565	512	0	0	0	0	
5	0	0	0	0	556	503	0	0	0	0	
6	0	0	0	0	547	495	0	0	0	0	
7	0	0	0	0	540	487	0	0	0	0	
8	0	0	0	0	533	480	0	0	0	0	
9	0	0	0	0	528	475	0	0	0	0	
10	0	0	0	0	526	472	0	0	0	0	
11	0	0	0	0	525	470	0	0	0	0	
12	0	0	0	0	526	470	0	0	0	0	
13	0	0	0	0	528	472	0	0	0	0	
14	0	0	0	0	533	475	0	0	0	0	
15	0	0	0	0	539	480	0	0	0	0	
0	0	0	0	0	545	487	0	0	0	0	
1	0	0	0	0	553	494	0	0	0	0	
2	0	0	0	0	562	503	0	0	0	0	
3	0	0	0	0	572	512	0	0	0	0	
4	0	0	0	0	581	521	0	0	0	0	
5	0	0	0	0	590	530	0	0	0	0	
6	0	0	0	0	597	537	0	0	0	0	
7	0	0	0	0	603	543	0	0	0	0	
8	0	0	0	0	607	547	0	0	0	0	
9	0	0	0	0	608	550	0	0	0	0	
10	0	0	0	0	608	550	0	0	0	0	
11	0	0	0	0	606	548	0	0	0	0	
12	0	0	0	0	601	545	0	0	0	0	
13	0	0	0	0	596	542	0	0	0	0	
14	0	0	0	0	591	537	0	0	0	0	
15	0	0	0	0	585	533	0	0	0	0	
0	0	0	0	0	579	529	0	0	0	0	
1	0	0	0	0	575	526	0	0	0	0	
2	0	0	0	0	571	524	0	0	0	0	
3	0	0	0	0	570	523	0	0	0	0	
4	0	0	0	0	569	523	0	0	0	0	
5	0	0	0	0	569	523	0	0	0	0	
6	0	0	0	0	570	524	0	0	0	0	
7	0	0	0	0	572	525	0	0	0	0	
8	0	0	0	0	573	526	0	0	0	0	
9	0	0	0	0	574	526	0	0	0	0	
10	0	0	0	0	574	525	0	0	0	0	
11	0	0	0	0	573	524	0	0	0	0	
12	0	0	0	0	571	521	0	0	0	0	
13	0	0	0	0	568	518	0	0	0	0	
14	0	0	0	0	566	515	0	0	0	0	
15	0	0	0	0	563	512	0	0	0	0	
0	0	0	0	0	560	509	0	0	0	0	
1	0	0	0	0	558	507	0	0	0	0	
2	0	0	0	0	556	505	0	0	0	0	
3	0	0	0	0	556	505	0	0	0	0	
4	0	0	0	0	557	506	0	0	0	0	
5	0	0	0	0	558	507	0	0	0	0	
6	0	0	0	0	559	509	0	0	0	0	
7	0	0	0	0	561	511	0	0	0	0	
8	0	0	0	0	563	514	0	0	0	0	
9	0	0	0	0	566	516	0	0	0	0	
10	0	0	0	0	568	519	0	0	0	0	
11	0	0	0	0	570	520	0	0	0	0	
12	0	0	0	0	571	521	0	0	0	0	
13	0	0	0	0	571	521	0	0	0	0	
14	0	0	0	0	570	519	0	0	0	0	
15	0	0	0	0	568	517	0	0	0	0	
0	0	0	0	0	566	514	0	0	0	0	
1	0	0	0	0	563	511	0	0	0	0	
2	0	0	0	0	560	508	0	0	0	0	
3	0	0	0	0	557	504	0	0	0	0	
4	0	0	0	0	554	502	0	0	0	0	
5	0	0	0	0	551	500	0	0	0	0	
6	0	0	0	0	551	499	0	0	0	0	
7	0	0	0	0	551	500	0	0	0	0	
8	0	0	0	0	553	502	0	0	0	0	
9	0	0	0	0	556	505	0	0	0	0	
10	0	0	0	0	560	509	0	0	0	0	
11	0	0	0	0	565	514	0	0	0	0	
12	0	0	0	0	571	518	0	0	0	0	
13	0	0	0	0	575	523	0	0	0	0	
14	0	0	0	0	580	527	0	0	0	0	
15	0	0	0	0	583	530	0	0	0	0	
0	0	0	0	0	586	531	0	0	0	0	
1	0	0	0	0	587	532	0	0	0	0	
2	0	0	0	0	586	531	0	0	0	0	
3	0	0	0	0	584	529	0	0	0	0	
4	0	0	0	0	581	527	0	0	0	0	
5	0	0	0	0	577	522	0	0	0	0	
6	0	0	0	0	572	518	0	0	0	0	
7	0	0	0	0	566	513	0	0	0	0	
8	0	0	0	0	560	508	0	0	0	0	
9	0	0	0	0	555	504	0	0	0	0	
10	0	0	0	0	551	501	0	0	0	0	
11	0	0	0	0	549	499	0	0	0	0	
12	0	0	0	0	547	497	0	0	0	0	
13	0	0	0	0	547	496	0	0	0	0	
14	0	0	0	0	547	497	0	0	0	0	
15	0	0	0	0	549	498	0	0	0	0	
0	0	0	0	0	550	499	0	0	0	0	
1	0	0	0	0	552	501	0	0	0	0	
2	0	0	0	0	554	502	0	0	0	0	
3	0	0	0	0	555	502	0	0	0	0	
4	0	0	0	0	557	503	0	0	0	0	
5	0	0	0	0	557	503	0	0	0	0	
6	0	0	0	0	558	503	0	0	0	0	
7	0	0	0	0	558	502	0	0	0	0	
8	0	0	0	0	558	502	0	0	0	0	
9	0	0	0	0	558	501	0	0	0	0	
10	0	0	0	0	559	502	0	0	0	0	
11	0	0	0	0	560	502	0	0	0	0	
12	0	0	0	0	562	503	0	0	0	0	
13	0	0	0	0	564	505	0	0	0	0	
14	0	0	0	0	567	508	0	0	0	0	
15	0	0	0	0	569	510	0	0	0	0	
0	0	0	0	0	573	513	0	0	0	0	
1	0	0	0	0	576	517	0	0	0	0	
2	0	0	0	0	577	519	0	0	0	0	
3	0	0	0	0	579	521	0	0	0	0	
4	0	0	0	0	580	523	0	0	0	0	
5	0	0	0	0	579	523	0	0	0	0	
6	0	0	0	0	577	521	0	0	0	0	
7	0	0	0	0	573	519	0	0	0	0	
8	0	0	0	0	568	515	0	0	0	0	
9	0	0	0	0	562	510	0	0	0	0	
10	0	0	0	0	555	503	0	0	0	0	
11	0	0	0	0	547	496	0	0	0	0	
12	0	0	0	0	540	489	0	0	0	0	
13	0	0	0	0	533	482	0	0	0	0	
14	0	0	0	0	527	475	0	0	0	0	
15	0	0	0	0	521	470	0	0	0	0	
0	0	0	0	0	518	466	0	0	0	0	
1	0	0	0	0	516	463	0	0	0	0	
2	0	0	0	0	517	463	0	0	0	0	
3	0	0	0	0	519	464	0	0	0	0	
4	0	0	0	0	523	467	0	0	0	0	
5	0	0	0	0	527	470	0	0	0	0	
6	0	0	0	0	532	474	0	0	0	0	
7	0	0	0	0	537	479	0	0	0	0	
8	0	0	0	0	543	484	0	0	0	0	
9	0	0	0	0	548	489	0	0	0	0	
10	0	0	0	0	552	494	0	0	0	0	
11	0	0	0	0	557	498	0	0	0	0	
12	0	0	0	0	560	501	0	0	0	0	
13	0	0	0	0	562	504	0	0	0	0	
14	0	0	0	0	563	505	0	0	0	0	
15	0	0	0	0	562	505	0	0	0	0	
0	0	0	0	0	560	503	0	0	0	0	
1	0	0	0	0	557	500	0	0	0	0	
2	0	0	0	0	553	496	0	0	0	0	
3	0	0	0	0	548	492	0	0	0	0	
4	0	0	0	0	543	487	0	0	0	0	
5	0	0	0	0	538	482	0	0	0	0	
6	0	0	0	0	534	479	0	0	0	0	
7	0	0	0	0	530	475	0	0	0	0	
8	0	0	0	0	528	474	0	0	0	0	
9	0	0	0	0	528	474	0	0	0	0	
10	0	0	0	0	529	475	0	0	0	0	
11	0	0	0	0	531	477	0	0	0	0	
12	0	0	0	0	535	480	0	0	0	0	
13	0	0	0	0	538	483	0	0	0	0	
14	0	0	0	0	543	486	0	0	0	0	
15	0	0	0	0	546	489	0	0	0	0	
0	0	0	0	0	549	491	0	0	0	0	
1	0	0	0	0	551	492	0	0	0	0	
2	0	0	0	0	551	492	0	0	0	0	
3	0	0	0	0	550	491	0	0	0	0	
4	0	0	0	0	548	488	0	0	0	0	
5	0	0	0	0	545	485	0	0	0	0	
6	0	0	0	0	540	481	0	0	0	0	
7	0	0	0	0	536	477	0	0	0	0	
8	0	0	0	0	532	474	0	0	0	0	
9	0	0	0	0	528	472	0	0	0	0	
10	0	0	0	0	527	470	0	0	0	0	
11	0	0	0	0	525	469	0	0	0	0	
12	0	0	0	0	525	469	0	0	0	0	
13	0	0	0	0	525	470	0	0	0	0	
14	0	0	0	0	526	471	0	0	0	0	
15	0	0	0	0	528	473	0	0	0	0	
0	0	0	0	0	530	475	0	0	0	0	
1	0	0	0	0	532	477	0	0	0	0	
2	0	0	0	0	534	479	0	0	0	0	
3	0	0	0	0	536	480	0	0	0	0	
4	0	0	0	0	539	482	0	0	0	0	
5	0	0	0	0	540	483	0	0	0	0	
6	0	0	0	0	542	483	0	0	0	0	
7	0	0	0	0	543	483	0	0	0	0	
8	0	0	0	0	544	484	0	0	0	0	
9	0	0	0	0	546	485	0	0	0	0	
10	0	0	0	0	547	486	0	0	0	0	
11	0	0	0	0	548	486	0	0	0	0	
12	0	0	0	0	550	487	0	0	0	0	
13	0	0	0	0	550	488	0	0	0	0	
14	0	0	0	0	551	489	0	0	0	0	
15	0	0	0	0	552	491	0	0	0	0	
0	0	0	0	0	553	493	0	0	0	0	
1	0	0	0	0	555	495	0	0	0	0	
2	0	0	0	0	556	498	0	0	0	0	
3	0	0	0	0	558	500	0	0	0	0	
4	0	0	0	0	560	503	0	0	0	0	
5	0	0	0	0	561	505	0	0	0	0	
6	0	0	0	0	563	506	0	0	0	0	
7	0	0	0	0	562	506	0	0	0	0	
8	0	0	0	0	561	505	0	0	0	0	
9	0	0	0	0	559	503	0	0	0	0	
10	0	0	0	0	556	500	0	0	0	0	
11	0	0	0	0	551	496	0	0	0	0	
12	0	0	0	0	547	491	0	0	0	0	
13	0	0	0	0	542	487	0	0	0	0	
14	0	0	0	0	537	482	0	0	0	0	
15	0	0	0	0	533	478	0	0	0	0	
0	0	0	0	0	529	474	0	0	0	0	
1	0	0	0	0	527	472	0	0	0	0	
2	0	0	0	0	526	471	0	0	0	0	
3	0	0	0	0	526	471	0	0	0	0	
4	0	0	0	0	528	473	0	0	0	0	
5	0	0	0	0	532	477	0	0	0	0	
6	0	0	0	0	537	482	0	0	0	0	
7	0	0	0	0	544	488	0	0	0	0	
8	0	0	0	0	552	496	0	0	0	0	
9	0	0	0	0	560	504	0	0	0	0	
10	0	0	0	0	570	513	0	0	0	0	
11	0	0	0	0	579	522	0	0	0	0	
12	0	0	0	0	589	531	0	0	0	0	
13	0	0	0	0	598	539	0	0	0	0	
14	0	0	0	0	606	546	0	0	0	0	
15	0	0	0	0	613	552	0	0	0	0	
0	0	0	0	0	618	556	0	0	0	0	
1	0	0	0	0	620	559	0	0	0	0	
2	0	0	0	0	620	558	0	0	0	0	
3	0	0	0	0	616	555	0	0	0	0	
4	0	0	0	0	611	550	0	0	0	0	
5	0	0	0	0	601	543	0	0	0	0	
6	0	0	0	0	590	535	0	0	0	0	
7	0	0	0	0	578	526	0	0	0	0	
8	0	0	0	0	566	516	0	0	0	0	
9	0	0	0	0	553	508	0	0	0	0	
10	0	0	0	0	543	501	0	0	0	0	
11	0	0	0	0	536	496	0	0	0	0	
12	0	0	0	0	531	494	0	0	0	0	
13	0	0	0	0	529	493	0	0	0	0	
14	0	0	0	0	530	493	0	0	0	0	
15	0	0	0	0	532	495	0	0	0	0	
0	0	0	0	0	537	497	0	0	0	0	
1	0	0	0	0	542	499	0	0	0	0	
2	0	0	0	0	546	500	0	0	0	0	
3	0	0	0	0	550	501	0	0	0	0	
4	0	0	0	0	552	500	0	0	0	0	
5	0	0	0	0	553	498	0	0	0	0	
6	0	0	0	0	553	496	0	0	0	0	
7	0	0	0	0	552	493	0	0	0	0	
8	0	0	0	0	549	490	0	0	0	0	
9	0	0	0	0	547	488	0	0	0	0	
10	0	0	0	0	545	487	0	0	0	0	
11	0	0	0	0	543	487	0	0	0	0	
12	0	0	0	0	543	488	0	0	0	0	
13	0	0	0	0	544	491	0	0	0	0	
14	0	0	0	0	547	495	0	0	0	0	
15	0	0	0	0	551	500	0	0	0	0	
0	0	0	0	0	555	506	0	0	0	0	
1	0	0	0	0	560	511	0	0	0	0	
2	0	0	0	0	565	517	0	0	0	0	
3	0	0	0	0	568	521	0	0	0	0	
4	0	0	0	0	572	525	0	0	0	0	
5	0	0	0	0	575	527	0	0	0	0	
6	0	0	0	0	577	529	0	0	0	0	
7	0	0	0	0	577	529	0	0	0	0	
8	0	0	0	0	577	528	0	0	0	0	
9	0	0	0	0	576	526	0	0	0	0	
10	0	0	0	0	575	524	0	0	0	0	
11	0	0	0	0	573	521	0	0	0	0	
12	0	0	0	0	570	519	0	0	0	0	
13	0	0	0	0	568	517	0	0	0	0	
14	0	0	0	0	566	515	0	0	0	0	
15	0	0	0	0	565	514	0	0	0	0	
0	0	0	0	0	563	513	0	0	0	0	
1	0	0	0	0	563	513	0	0	0	0	
2	0	0	0	0	562	512	0	0	0	0	
3	0	0	0	0	563	512	0	0	0	0	
4	0	0	0	0	563	512	0	0	0	0	
5	0	0	0	0	562	511	0	0	0	0	
6	0	0	0	0	562	511	0	0	0	0	
7	0	0	0	0	560	510	0	0	0	0	
8	0	0	0	0	559	508	0	0	0	0	
9	0	0	0	0	558	505	0	0	0	0	
10	0	0	0	0	555	504	0	0	0	0	
11	0	0	0	0	553	501	0	0	0	0	
12	0	0	0	0	552	499	0	0	0	0	
13	0	0	0	0	551	497	0	0	0	0	
14	0	0	0	0	551	497	0	0	0	0	
15	0	0	0	0	551	497	0	0	0	0	
0	0	0	0	0	553	498	0	0	0	0	
1	0	0	0	0	555	499	0	0	0	0	
2	0	0	0	0	557	502	0	0	0	0	
3	0	0	0	0	561	506	0	0	0	0	
4	0	0	0	0	564	510	0	0	0	0	
5	0	0	0	0	568	514	0	0	0	0	
6	0	0	0	0	572	519	0	0	0	0	
7	0	0	0	0	575	522	0	0	0	0	
8	0	0	0	0	577	524	0	0	0	0	
9	0	0	0	0	578	526	0	0	0	0	
10	0	0	0	0	578	526	0	0	0	0	
11	0	0	0	0	575	524	0	0	0	0	
12	0	0	0	0	572	520	0	0	0	0	
13	0	0	0	0	567	515	0	0	0	0	
14	0	0	0	0	562	510	0	0	0	0	
15	0	0	0	0	556	504	0	0	0	0	
0	0	0	0	0	550	499	0	0	0	0	
1	0	0	0	0	545	494	0	0	0	0	
2	0	0	0	0	541	490	0	0	0	0	
3	0	0	0	0	539	488	0	0	0	0	
4	0	0	0	0	539	487	0	0	0	0	
5	0	0	0	0	540	488	0	0	0	0	
6	0	0	0	0	544	491	0	0	0	0	
7	0	0	0	0	548	495	0	0	0	0	
8	0	0	0	0	553	500	0	0	0	0	
9	0	0	0	0	558	504	0	0	0	0	
10	0	0	0	0	563	509	0	0	0	0	
11	0	0	0	0	566	512	0	0	0	0	
12	0	0	0	0	568	514	0	0	0	0	
13	0	0	0	0	568	515	0	0	0	0	
14	0	0	0	0	566	513	0	0	0	0	
15	0	0	0	0	562	510	0	0	0	0	
0	0	0	0	0	558	506	0	0	0	0	
1	0	0	0	0	551	500	0	0	0	0	
2	0	0	0	0	545	494	0	0	0	0	
3	0	0	0	0	538	487	0	0	0	0	
4	0	0	0	0	532	480	0	0	0	0	
5	0	0	0	0	527	474	0	0	0	0	
6	0	0	0	0	523	468	0	0	0	0	
7	0	0	0	0	521	464	0	0	0	0	
8	0	0	0	0	520	462	0	0	0	0	
9	0	0	0	0	521	462	0	0	0	0	
10	0	0	0	0	524	463	0	0	0	0	
11	0	0	0	0	528	466	0	0	0	0	
12	0	0	0	0	533	471	0	0	0	0	
13	0	0	0	0	538	476	0	0	0	0	
14	0	0	0	0	544	483	0	0	0	0	
15	0	0	0	0	550	489	0	0	0	0	
0	0	0	0	0	555	495	0	0	0	0	
1	0	0	0	0	560	501	0	0	0	0	
2	0	0	0	0	563	505	0	0	0	0	
3	0	0	0	0	565	508	0	0	0	0	
4	0	0	0	0	566	510	0	0	0	0	
5	0	0	0	0	566	510	0	0	0	0	
6	0	0	0	0	563	508	0	0	0	0	
7	0	0	0	0	560	505	0	0	0	0	
8	0	0	0	0	555	500	0	0	0	0	
9	0	0	0	0	549	495	0	0	0	0	
10	0	0	0	0	543	489	0	0	0	0	
11	0	0	0	0	537	483	0	0	0	0	
12	0	0	0	0	532	478	0	0	0	0	
13	0	0	0	0	529	475	0	0	0	0	
14	0	0	0	0	529	475	0	0	0	0	
15	0	0	0	0	532	476	0	0	0	0	
0	0	0	0	0	537	481	0	0	0	0	
1	0	0	0	0	544	487	0	0	0	0	
2	0	0	0	0	553	495	0	0	0	0	
3	0	0	0	0	563	504	0	0	0	0	
4	0	0	0	0	574	514	0	0	0	0	
5	0	0	0	0	583	523	0	0	0	0	
6	0	0	0	0	591	529	0	0	0	0	
7	0	0	0	0	596	535	0	0	0	0	
8	0	0	0	0	599	537	0	0	0	0	
9	0	0	0	0	597	536	0	0	0	0	
10	0	0	0	0	593	533	0	0	0	0	
11	0	0	0	0	585	527	0	0	0	0	
12	0	0	0	0	576	519	0	0	0	0	
13	0	0	0	0	566	510	0	0	0	0	
14	0	0	0	0	555	501	0	0	0	0	
15	0	0	0	0	543	492	0	0	0	0	
0	0	0	0	0	534	483	0	0	0	0	
1	0	0	0	0	527	477	0	0	0	0	
2	0	0	0	0	522	473	0	0	0	0	
3	0	0	0	0	519	470	0	0	0	0	
4	0	0	0	0	520	471	0	0	0	0	
5	0	0	0	0	523	473	0	0	0	0	
6	0	0	0	0	527	476	0	0	0	0	
7	0	0	0	0	534	481	0	0	0	0	
8	0	0	0	0	540	486	0	0	0	0	
9	0	0	0	0	547	491	0	0	0	0	
10	0	0	0	0	552	496	0	0	0	0	
11	0	0	0	0	557	499	0	0	0	0	
12	0	0	0	0	560	502	0	0	0	0	
13	0	0	0	0	561	503	0	0	0	0	
14	0	0	0	0	560	502	0	0	0	0	
15	0	0	0	0	559	500	0	0	0	0	
0	0	0	0	0	556	499	0	0	0	0	
1	0	0	0	0	552	496	0	0	0	0	
2	0	0	0	0	548	493	0	0	0	0	
3	0	0	0	0	543	491	0	0	0	0	
4	0	0	0	0	540	488	0	0	0	0	
5	0	0	0	0	536	486	0	0	0	0	
6	0	0	0	0	534	484	0	0	0	0	
7	0	0	0	0	532	483	0	0	0	0	
8	0	0	0	0	531	483	0	0	0	0	
9	0	0	0	0	531	483	0	0	0	0	
10	0	0	0	0	532	483	0	0	0	0	
11	0	0	0	0	533	484	0	0	0	0	
12	0	0	0	0	535	486	0	0	0	0	
13	0	0	0	0	536	486	0	0	0	0	
14	0	0	0	0	538	487	0	0	0	0	
15	0	0	0	0	539	487	0	0	0	0	
0	0	0	0	0	540	488	0	0	0	0	
1	0	0	0	0	541	488	0	0	0	0	
2	0	0	0	0	542	489	0	0	0	0	
3	0	0	0	0	543	489	0	0	0	0	
4	0	0	0	0	544	491	0	0	0	0	
5	0	0	0	0	547	493	0	0	0	0	
6	0	0	0	0	550	495	0	0	0	0	
7	0	0	0	0	553	498	0	0	0	0	
8	0	0	0	0	557	500	0	0	0	0	
9	0	0	0	0	559	502	0	0	0	0	
10	0	0	0	0	561	504	0	0	0	0	
11	0	0	0	0	563	506	0	0	0	0	
12	0	0	0	0	565	508	0	0	0	0	
13	0	0	0	0	565	508	0	0	0	0	
14	0	0	0	0	565	509	0	0	0	0	
15	0	0	0	0	565	509	0	0	0	0	
0	0	0	0	0	564	508	0	0	0	0	
1	0	0	0	0	562	508	0	0	0	0	
2	0	0	0	0	561	507	0	0	0	0	
3	0	0	0	0	559	506	0	0	0	0	
4	0	0	0	0	559	506	0	0	0	0	
5	0	0	0	0	558	506	0	0	0	0	
6	0	0	0	0	559	507	0	0	0	0	
7	0	0	0	0	560	508	0	0	0	0	
8	0	0	0	0	561	509	0	0	0	0	
9	0	0	0	0	563	510	0	0	0	0	
10	0	0	0	0	564	511	0	0	0	0	
11	0	0	0	0	565	511	0	0	0	0	
12	0	0	0	0	566	511	0	0	0	0	
13	0	0	0	0	566	511	0	0	0	0	
14	0	0	0	0	566	511	0	0	0	0	
15	0	0	0	0	564	509	0	0	0	0	
0	0	0	0	0	562	507	0	0	0	0	
1	0	0	0	0	559	505	0	0	0	0	
2	0	0	0	0	555	502	0	0	0	0	
3	0	0	0	0	551	500	0	0	0	0	
4	0	0	0	0	548	497	0	0	0	0	
5	0	0	0	0	544	495	0	0	0	0	
6	0	0	0	0	541	494	0	0	0	0	
7	0	0	0	0	539	493	0	0	0	0	
8	0	0	0	0	537	492	0	0	0	0	
9	0	0	0	0	536	492	0	0	0	0	
10	0	0	0	0	536	491	0	0	0	0	
11	0	0	0	0	536	491	0	0	0	0	
12	0	0	0	0	536	491	0	0	0	0	
13	0	0	0	0	536	490	0	0	0	0	
14	0	0	0	0	536	489	0	0	0	0	
15	0	0	0	0	535	487	0	0	0	0	
0	0	0	0	0	534	485	0	0	0	0	
1	0	0	0	0	532	483	0	0	0	0	
2	0	0	0	0	531	481	0	0	0	0	
3	0	0	0	0	531	480	0	0	0	0	
4	0	0	0	0	530	479	0	0	0	0	
5	0	0	0	0	530	479	0	0	0	0	
6	0	0	0	0	531	480	0	0	0	0	
7	0	0	0	0	532	481	0	0	0	0	
8	0	0	0	0	535	483	0	0	0	0	
9	0	0	0	0	537	485	0	0	0	0	
10	0	0	0	0	539	487	0	0	0	0	
11	0	0	0	0	542	489	0	0	0	0	
12	0	0	0	0	545	491	0	0	0	0	
13	0	0	0	0	548	493	0	0	0	0	
14	0	0	0	0	551	494	0	0	0	0	
15	0	0	0	0	552	496	0	0	0	0	
0	0	0	0	0	555	497	0	0	0	0	
1	0	0	0	0	557	498	0	0	0	0	
2	0	0	0	0	560	500	0	0	0	0	
3	0	0	0	0	562	502	0	0	0	0	
4	0	0	0	0	566	505	0	0	0	0	
5	0	0	0	0	569	508	0	0	0	0	
6	0	0	0	0	574	512	0	0	0	0	
7	0	0	0	0	578	517	0	0	0	0	
8	0	0	0	0	583	521	0	0	0	0	
9	0	0	0	0	587	526	0	0	0	0	
10	0	0	0	0	591	530	0	0	0	0	
11	0	0	0	0	595	534	0	0	0	0	
12	0	0	0	0	598	536	0	0	0	0	
13	0	0	0	0	599	538	0	0	0	0	
14	0	0	0	0	598	539	0	0	0	0	
15	0	0	0	0	596	537	0	0	0	0	
0	0	0	0	0	591	534	0	0	0	0	
1	0	0	0	0	584	528	0	0	0	0	
2	0	0	0	0	576	521	0	0	0	0	
3	0	0	0	0	566	512	0	0	0	0	
4	0	0	0	0	553	502	0	0	0	0	
5	0	0	0	0	542	491	0	0	0	0	
6	0	0	0	0	530	480	0	0	0	0	
7	0	0	0	0	519	470	0	0	0	0	
8	0	0	0	0	510	461	0	0	0	0	
9	0	0	0	0	503	453	0	0	0	0	
10	0	0	0	0	498	448	0	0	0	0	
11	0	0	0	0	496	445	0	0	0	0	
12	0	0	0	0	497	445	0	0	0	0	
13	0	0	0	0	500	448	0	0	0	0	
14	0	0	0	0	507	452	0	0	0	0	
15	0	0	0	0	515	459	0	0	0	0	
0	0	0	0	0	524	467	0	0	0	0	
1	0	0	0	0	535	476	0	0	0	0	
2	0	0	0	0	546	486	0	0	0	0	
3	0	0	0	0	556	494	0	0	0	0	
4	0	0	0	0	565	502	0	0	0	0	
5	0	0	0	0	571	508	0	0	0	0	
6	0	0	0	0	575	512	0	0	0	0	
7	0	0	0	0	577	513	0	0	0	0	
8	0	0	0	0	577	513	0	0	0	0	
9	0	0	0	0	575	512	0	0	0	0	
10	0	0	0	0	571	509	0	0	0	0	
11	0	0	0	0	565	505	0	0	0	0	
12	0	0	0	0	559	500	0	0	0	0	
13	0	0	0	0	552	496	0	0	0	0	
14	0	0	0	0	547	491	0	0	0	0	
15	0	0	0	0	541	487	0	0	0	0	
0	0	0	0	0	537	483	0	0	0	0	
1	0	0	0	0	532	479	0	0	0	0	
2	0	0	0	0	529	476	0	0	0	0	
3	0	0	0	0	527	474	0	0	0	0	
4	0	0	0	0	526	472	0	0	0	0	
5	0	0	0	0	525	471	0	0	0	0	
6	0	0	0	0	524	470	0	0	0	0	
7	0	0	0	0	524	469	0	0	0	0	
8	0	0	0	0	525	468	0	0	0	0	
9	0	0	0	0	526	468	0	0	0	0	
10	0	0	0	0	526	467	0	0	0	0	
11	0	0	0	0	527	467	0	0	0	0	
12	0	0	0	0	528	467	0	0	0	0	
13	0	0	0	0	529	467	0	0	0	0	
14	0	0	0	0	530	468	0	0	0	0	
15	0	0	0	0	531	468	0	0	0	0	
0	0	0	0	0	532	468	0	0	0	0	
1	0	0	0	0	533	470	0	0	0	0	
2	0	0	0	0	534	471	0	0	0	0	
3	0	0	0	0	535	472	0	0	0	0	
4	0	0	0	0	535	473	0	0	0	0	
5	0	0	0	0	536	475	0	0	0	0	
6	0	0	0	0	536	477	0	0	0	0	
7	0	0	0	0	537	479	0	0	0	0	
8	0	0	0	0	537	480	0	0	0	0	
9	0	0	0	0	537	481	0	0	0	0	
10	0	0	0	0	537	482	0	0	0	0	
11	0	0	0	0	536	482	0	0	0	0	
12	0	0	0	0	536	482	0	0	0	0	
13	0	0	0	0	536	481	0	0	0	0	
14	0	0	0	0	536	481	0	0	0	0	
15	0	0	0	0	536	480	0	0	0	0	
0	0	0	0	0	536	480	0	0	0	0	
1	0	0	0	0	536	479	0	0	0	0	
2	0	0	0	0	536	478	0	0	0	0	
3	0	0	0	0	536	478	0	0	0	0	
4	0	0	0	0	537	478	0	0	0	0	
5	0	0	0	0	537	478	0	0	0	0	
6	0	0	0	0	538	478	0	0	0	0	
7	0	0	0	0	539	479	0	0	0	0	
8	0	0	0	0	539	479	0	0	0	0	
9	0	0	0	0	539	479	0	0	0	0	
10	0	0	0	0	540	480	0	0	0	0	
11	0	0	0	0	541	481	0	0	0	0	
12	0	0	0	0	542	483	0	0	0	0	
13	0	0	0	0	542	484	0	0	0	0	
14	0	0	0	0	543	486	0	0	0	0	
15	0	0	0	0	543	486	0	0	0	0	
0	0	0	0	0	544	487	0	0	0	0	
1	0	0	0	0	545	487	0	0	0	0	
2	0	0	0	0	545	488	0	0	0	0	
3	0	0	0	0	546	488	0	0	0	0	
4	0	0	0	0	546	488	0	0	0	0	
5	0	0	0	0	547	488	0	0	0	0	
6	0	0	0	0	548	489	0	0	0	0	
7	0	0	0	0	548	489	0	0	0	0	
8	0	0	0	0	549	490	0	0	0	0	
9	0	0	0	0	550	491	0	0	0	0	
10	0	0	0	0	551	492	0	0	0	0	
11	0	0	0	0	553	494	0	0	0	0	
12	0	0	0	0	555	496	0	0	0	0	
13	0	0	0	0	557	498	0	0	0	0	
14	0	0	0	0	559	501	0	0	0	0	
15	0	0	0	0	562	504	0	0	0	0	
0	0	0	0	0	565	508	0	0	0	0	
1	0	0	0	0	568	511	0	0	0	0	
2	0	0	0	0	570	514	0	0	0	0	
3	0	0	0	0	571	516	0	0	0	0	
4	0	0	0	0	572	516	0	0	0	0	
5	0	0	0	0	571	516	0	0	0	0	
6	0	0	0	0	570	515	0	0	0	0	
7	0	0	0	0	567	512	0	0	0	0	
8	0	0	0	0	564	508	0	0	0	0	
9	0	0	0	0	560	504	0	0	0	0	
10	0	0	0	0	555	500	0	0	0	0	
11	0	0	0	0	551	496	0	0	0	0	
12	0	0	0	0	547	492	0	0	0	0	
13	0	0	0	0	545	491	0	0	0	0	
14	0	0	0	0	544	489	0	0	0	0	
15	0	0	0	0	544	490	0	0	0	0	
0	0	0	0	0	546	492	0	0	0	0	
1	0	0	0	0	549	495	0	0	0	0	
2	0	0	0	0	553	498	0	0	0	0	
3	0	0	0	0	557	502	0	0	0	0	
4	0	0	0	0	562	505	0	0	0	0	
5	0	0	0	0	566	508	0	0	0	0	
6	0	0	0	0	568	510	0	0	0	0	
7	0	0	0	0	570	511	0	0	0	0	
8	0	0	0	0	570	510	0	0	0	0	
9	0	0	0	0	568	507	0	0	0	0	
10	0	0	0	0	564	503	0	0	0	0	
11	0	0	0	0	558	497	0	0	0	0	
12	0	0	0	0	551	492	0	0	0	0	
13	0	0	0	0	543	484	0	0	0	0	
14	0	0	0	0	535	477	0	0	0	0	
15	0	0	0	0	526	469	0	0	0	0	
0	0	0	0	0	516	462	0	0	0	0	
1	0	0	0	0	507	455	0	0	0	0	
2	0	0	0	0	499	448	0	0	0	0	
3	0	0	0	0	491	441	0	0	0	0	
4	0	0	0	0	482	434	0	0	0	0	
5	0	0	0	0	474	427	0	0	0	0	
6	0	0	0	0	466	419	0	0	0	0	
7	0	0	0	0	457	411	0	0	0	0	
8	0	0	0	0	448	403	0	0	0	0	
9	0	0	0	0	439	393	0	0	0	0	
10	0	0	0	0	428	382	0	0	0	0	
11	0	0	0	0	417	370	0	0	0	0	
12	0	0	0	0	404	357	0	0	0	0	
13	0	0	0	0	391	343	0	0	0	0	
14	0	0	0	0	376	327	0	0	0	0	
15	0	0	0	0	361	310	0	0	0	0	
0	0	0	0	0	345	293	0	0	0	0	
1	0	0	0	0	330	278	0	0	0	0	
2	0	0	0	0	316	263	0	0	0	0	
3	0	0	0	0	303	249	0	0	0	0	
4	0	0	0	0	294	239	0	0	0	0	
5	0	0	0	0	287	232	0	0	0	0	
6	0	0	0	0	284	230	0	0	0	0	
7	0	0	0	0	287	231	0	0	0	0	
8	0	0	0	0	293	238	0	0	0	0	
9	0	0	0	0	305	248	0	0	0	0	
10	0	0	0	0	322	264	0	0	0	0	
11	0	0	0	0	343	283	0	0	0	0	
12	0	0	0	0	368	306	0	0	0	0	
13	0	0	0	0	395	331	0	0	0	0	
14	0	0	0	0	425	358	0	0	0	0	
15	0	0	0	0	456	386	0	0	0	0	
0	0	0	0	0	487	414	0	0	0	0	
1	0	0	0	0	517	440	0	0	0	0	
2	0	0	0	0	544	465	0	0	0	0	
3	0	0	0	0	568	487	0	0	0	0	
4	0	0	0	0	588	507	0	0	0	0	
5	0	0	0	0	604	522	0	0	0	0	
6	0	0	0	0	615	534	0	0	0	0	
7	0	0	0	0	622	542	0	0	0	0	
8	0	0	0	0	625	547	0	0	0	0	
9	0	0	0	0	623	549	0	0	0	0	
10	0	0	0	0	619	548	0	0	0	0	
11	0	0	0	0	612	545	0	0	0	0	
12	0	0	0	0	602	540	0	0	0	0	
13	0	0	0	0	590	532	0	0	0	0	
14	0	0	0	0	577	523	0	0	0	0	
15	0	0	0	0	564	514	0	0	0	0	
0	0	0	0	0	551	504	0	0	0	0	
1	0	0	0	0	541	496	0	0	0	0	
2	0	0	0	0	531	489	0	0	0	0	
3	0	0	0	0	525	483	0	0	0	0	
4	0	0	0	0	521	479	0	0	0	0	
5	0	0	0	0	519	476	0	0	0	0	
6	0	0	0	0	519	475	0	0	0	0	
7	0	0	0	0	521	473	0	0	0	0	
8	0	0	0	0	523	473	0	0	0	0	
9	0	0	0	0	525	473	0	0	0	0	
10	0	0	0	0	527	473	0	0	0	0	
11	0	0	0	0	530	475	0	0	0	0	
12	0	0	0	0	533	476	0	0	0	0	
13	0	0	0	0	535	477	0	0	0	0	
14	0	0	0	0	537	479	0	0	0	0	
15	0	0	0	0	540	481	0	0	0	0	
0	0	0	0	0	542	483	0	0	0	0	
1	0	0	0	0	543	486	0	0	0	0	
2	0	0	0	0	545	488	0	0	0	0	
3	0	0	0	0	547	491	0	0	0	0	
4	0	0	0	0	550	494	0	0	0	0	
5	0	0	0	0	551	496	0	0	0	0	
6	0	0	0	0	553	499	0	0	0	0	
7	0	0	0	0	555	501	0	0	0	0	
8	0	0	0	0	557	503	0	0	0	0	
9	0	0	0	0	558	504	0	0	0	0	
10	0	0	0	0	559	504	0	0	0	0	
11	0	0	0	0	559	504	0	0	0	0	
12	0	0	0	0	559	504	0	0	0	0	
13	0	0	0	0	559	504	0	0	0	0	
14	0	0	0	0	559	503	0	0	0	0	
15	0	0	0	0	558	502	0	0	0	0	
0	0	0	0	0	558	503	0	0	0	0	
1	0	0	0	0	558	503	0	0	0	0	
2	0	0	0	0	559	504	0	0	0	0	
3	0	0	0	0	559	505	0	0	0	0	
4	0	0	0	0	560	507	0	0	0	0	
5	0	0	0	0	561	508	0	0	0	0	
6	0	0	0	0	562	510	0	0	0	0	
7	0	0	0	0	563	511	0	0	0	0	
8	0	0	0	0	563	511	0	0	0	0	
9	0	0	0	0	563	512	0	0	0	0	
10	0	0	0	0	563	511	0	0	0	0	
11	0	0	0	0	561	510	0	0	0	0	
12	0	0	0	0	560	508	0	0	0	0	
13	0	0	0	0	557	505	0	0	0	0	
14	0	0	0	0	555	503	0	0	0	0	
15	0	0	0	0	551	499	0	0	0	0	
0	0	0	0	0	548	496	0	0	0	0	
1	0	0	0	0	547	494	0	0	0	0	
2	0	0	0	0	546	493	0	0	0	0	
3	0	0	0	0	546	492	0	0	0	0	
4	0	0	0	0	547	493	0	0	0	0	
5	0	0	0	0	550	495	0	0	0	0	
6	0	0	0	0	553	498	0	0	0	0	
7	0	0	0	0	558	502	0	0	0	0	
8	0	0	0	0	563	507	0	0	0	0	
9	0	0	0	0	568	512	0	0	0	0	
10	0	0	0	0	572	516	0	0	0	0	
11	0	0	0	0	575	520	0	0	0	0	
12	0	0	0	0	577	522	0	0	0	0	
13	0	0	0	0	578	524	0	0	0	0	
14	0	0	0	0	577	524	0	0	0	0	
15	0	0	0	0	575	522	0	0	0	0	
0	0	0	0	0	572	519	0	0	0	0	
1	0	0	0	0	568	515	0	0	0	0	
2	0	0	0	0	563	510	0	0	0	0	
3	0	0	0	0	557	505	0	0	0	0	
4	0	0	0	0	552	499	0	0	0	0	
5	0	0	0	0	546	494	0	0	0	0	
6	0	0	0	0	541	489	0	0	0	0	
7	0	0	0	0	536	484	0	0	0	0	
8	0	0	0	0	532	480	0	0	0	0	
9	0	0	0	0	530	478	0	0	0	0	
10	0	0	0	0	529	476	0	0	0	0	
11	0	0	0	0	529	477	0	0	0	0	
12	0	0	0	0	531	479	0	0	0	0	
13	0	0	0	0	535	483	0	0	0	0	
14	0	0	0	0	539	488	0	0	0	0	
15	0	0	0	0	545	494	0	0	0	0	
0	0	0	0	0	551	499	0	0	0	0	
1	0	0	0	0	556	505	0	0	0	0	
2	0	0	0	0	560	509	0	0	0	0	
3	0	0	0	0	564	512	0	0	0	0	
4	0	0	0	0	566	515	0	0	0	0	
5	0	0	0	0	567	515	0	0	0	0	
6	0	0	0	0	566	514	0	0	0	0	
7	0	0	0	0	564	512	0	0	0	0	
8	0	0	0	0	562	510	0	0	0	0	
9	0	0	0	0	558	506	0	0	0	0	
10	0	0	0	0	555	502	0	0	0	0	
11	0	0	0	0	551	498	0	0	0	0	
12	0	0	0	0	547	495	0	0	0	0	
13	0	0	0	0	544	491	0	0	0	0	
14	0	0	0	0	541	488	0	0	0	0	
15	0	0	0	0	539	487	0	0	0	0	
0	0	0	0	0	537	485	0	0	0	0	
1	0	0	0	0	536	484	0	0	0	0	
2	0	0	0	0	536	485	0	0	0	0	
3	0	0	0	0	537	486	0	0	0	0	
4	0	0	0	0	539	487	0	0	0	0	
5	0	0	0	0	540	489	0	0	0	0	
6	0	0	0	0	543	490	0	0	0	0	
7	0	0	0	0	545	492	0	0	0	0	
8	0	0	0	0	547	493	0	0	0	0	
9	0	0	0	0	550	494	0	0	0	0	
10	0	0	0	0	551	495	0	0	0	0	
11	0	0	0	0	553	495	0	0	0	0	
12	0	0	0	0	554	496	0	0	0	0	
13	0	0	0	0	555	496	0	0	0	0	
14	0	0	0	0	556	496	0	0	0	0	
15	0	0	0	0	556	496	0	0	0	0	
0	0	0	0	0	555	496	0	0	0	0	
1	0	0	0	0	555	495	0	0	0	0	
2	0	0	0	0	552	495	0	0	0	0	
3	0	0	0	0	550	494	0	0	0	0	
4	0	0	0	0	547	492	0	0	0	0	
5	0	0	0	0	543	490	0	0	0	0	
6	0	0	0	0	540	488	0	0	0	0	
7	0	0	0	0	536	486	0	0	0	0	
8	0	0	0	0	532	483	0	0	0	0	
9	0	0	0	0	529	480	0	0	0	0	
10	0	0	0	0	526	478	0	0	0	0	
11	0	0	0	0	524	475	0	0	0	0	
12	0	0	0	0	523	473	0	0	0	0	
13	0	0	0	0	521	471	0	0	0	0	
14	0	0	0	0	521	470	0	0	0	0	
15	0	0	0	0	520	468	0	0	0	0	
0	0	0	0	0	521	468	0	0	0	0	
1	0	0	0	0	522	468	0	0	0	0	
2	0	0	0	0	523	469	0	0	0	0	
3	0	0	0	0	525	470	0	0	0	0	
4	0	0	0	0	527	472	0	0	0	0	
5	0	0	0	0	530	475	0	0	0	0	
6	0	0	0	0	534	478	0	0	0	0	
7	0	0	0	0	538	482	0	0	0	0	
8	0	0	0	0	542	486	0	0	0	0	
9	0	0	0	0	545	490	0	0	0	0	
10	0	0	0	0	550	495	0	0	0	0	
11	0	0	0	0	553	499	0	0	0	0	
12	0	0	0	0	556	502	0	0	0	0	
13	0	0	0	0	559	505	0	0	0	0	
14	0	0	0	0	562	508	0	0	0	0	
15	0	0	0	0	564	511	0	0	0	0	
0	0	0	0	0	566	513	0	0	0	0	
1	0	0	0	0	566	513	0	0	0	0	
2	0	0	0	0	566	513	0	0	0	0	
3	0	0	0	0	564	511	0	0	0	0	
4	0	0	0	0	560	508	0	0	0	0	
5	0	0	0	0	556	505	0	0	0	0	
6	0	0	0	0	551	501	0	0	0	0	
7	0	0	0	0	547	496	0	0	0	0	
8	0	0	0	0	542	492	0	0	0	0	
9	0	0	0	0	537	488	0	0	0	0	
10	0	0	0	0	534	485	0	0	0	0	
11	0	0	0	0	531	483	0	0	0	0	
12	0	0	0	0	529	481	0	0	0	0	
13	0	0	0	0	529	480	0	0	0	0	
14	0	0	0	0	528	480	0	0	0	0	
15	0	0	0	0	529	480	0	0	0	0	
0	0	0	0	0	530	481	0	0	0	0	
1	0	0	0	0	531	481	0	0	0	0	
2	0	0	0	0	532	482	0	0	0	0	
3	0	0	0	0	533	482	0	0	0	0	
4	0	0	0	0	534	483	0	0	0	0	
5	0	0	0	0	535	483	0	0	0	0	
6	0	0	0	0	535	482	0	0	0	0	
7	0	0	0	0	535	481	0	0	0	0	
8	0	0	0	0	535	480	0	0	0	0	
9	0	0	0	0	534	478	0	0	0	0	
10	0	0	0	0	533	477	0	0	0	0	
11	0	0	0	0	532	475	0	0	0	0	
12	0	0	0	0	532	474	0	0	0	0	
13	0	0	0	0	532	473	0	0	0	0	
14	0	0	0	0	533	473	0	0	0	0	
15	0	0	0	0	534	473	0	0	0	0	
0	0	0	0	0	536	475	0	0	0	0	
1	0	0	0	0	538	477	0	0	0	0	
2	0	0	0	0	540	479	0	0	0	0	
3	0	0	0	0	542	481	0	0	0	0	
4	0	0	0	0	544	484	0	0	0	0	
5	0	0	0	0	545	486	0	0	0	0	
6	0	0	0	0	545	486	0	0	0	0	
7	0	0	0	0	543	486	0	0	0	0	
8	0	0	0	0	542	484	0	0	0	0	
9	0	0	0	0	539	481	0	0	0	0	
10	0	0	0	0	534	477	0	0	0	0	
11	0	0	0	0	529	472	0	0	0	0	
12	0	0	0	0	524	467	0	0	0	0	
13	0	0	0	0	520	462	0	0	0	0	
14	0	0	0	0	516	457	0	0	0	0	
15	0	0	0	0	512	453	0	0	0	0	
0	0	0	0	0	510	450	0	0	0	0	
1	0	0	0	0	508	448	0	0	0	0	
2	0	0	0	0	507	447	0	0	0	0	
3	0	0	0	0	508	448	0	0	0	0	
4	0	0	0	0	509	450	0	0	0	0	
5	0	0	0	0	512	453	0	0	0	0	
6	0	0	0	0	515	457	0	0	0	0	
7	0	0	0	0	519	462	0	0	0	0	
8	0	0	0	0	523	466	0	0	0	0	
9	0	0	0	0	527	470	0	0	0	0	
10	0	0	0	0	531	474	0	0	0	0	
11	0	0	0	0	535	477	0	0	0	0	
12	0	0	0	0	538	480	0	0	0	0	
13	0	0	0	0	542	483	0	0	0	0	
14	0	0	0	0	545	486	0	0	0	0	
15	0	0	0	0	547	487	0	0	0	0	
0	0	0	0	0	550	489	0	0	0	0	
1	0	0	0	0	552	491	0	0	0	0	
2	0	0	0	0	555	493	0	0	0	0	
3	0	0	0	0	555	495	0	0	0	0	
4	0	0	0	0	556	495	0	0	0	0	
5	0	0	0	0	554	495	0	0	0	0	
6	0	0	0	0	552	494	0	0	0	0	
7	0	0	0	0	550	492	0	0	0	0	
8	0	0	0	0	545	489	0	0	0	0	
9	0	0	0	0	540	486	0	0	0	0	
10	0	0	0	0	536	482	0	0	0	0	
11	0	0	0	0	531	479	0	0	0	0	
12	0	0	0	0	528	476	0	0	0	0	
13	0	0	0	0	525	473	0	0	0	0	
14	0	0	0	0	523	472	0	0	0	0	
15	0	0	0	0	522	471	0	0	0	0	
0	0	0	0	0	522	471	0	0	0	0	
1	0	0	0	0	523	471	0	0	0	0	
2	0	0	0	0	525	471	0	0	0	0	
3	0	0	0	0	527	472	0	0	0	0	
4	0	0	0	0	529	472	0	0	0	0	
5	0	0	0	0	532	473	0	0	0	0	
6	0	0	0	0	535	475	0	0	0	0	
7	0	0	0	0	537	476	0	0	0	0	
8	0	0	0	0	540	477	0	0	0	0	
9	0	0	0	0	542	479	0	0	0	0	
10	0	0	0	0	544	481	0	0	0	0	
11	0	0	0	0	546	483	0	0	0	0	
12	0	0	0	0	549	486	0	0	0	0	
13	0	0	0	0	552	490	0	0	0	0	
14	0	0	0	0	555	494	0	0	0	0	
15	0	0	0	0	559	498	0	0	0	0	
0	0	0	0	0	563	503	0	0	0	0	
1	0	0	0	0	566	507	0	0	0	0	
2	0	0	0	0	569	510	0	0	0	0	
3	0	0	0	0	571	513	0	0	0	0	
4	0	0	0	0	572	514	0	0	0	0	
5	0	0	0	0	572	513	0	0	0	0	
6	0	0	0	0	569	511	0	0	0	0	
7	0	0	0	0	565	508	0	0	0	0	
8	0	0	0	0	560	503	0	0	0	0	
9	0	0	0	0	553	497	0	0	0	0	
10	0	0	0	0	546	491	0	0	0	0	
11	0	0	0	0	539	483	0	0	0	0	
12	0	0	0	0	531	477	0	0	0	0	
13	0	0	0	0	525	471	0	0	0	0	
14	0	0	0	0	520	466	0	0	0	0	
15	0	0	0	0	517	463	0	0	0	0	
0	0	0	0	0	515	462	0	0	0	0	
1	0	0	0	0	516	462	0	0	0	0	
2	0	0	0	0	519	463	0	0	0	0	
3	0	0	0	0	523	467	0	0	0	0	
4	0	0	0	0	528	472	0	0	0	0	
5	0	0	0	0	534	477	0	0	0	0	
6	0	0	0	0	540	482	0	0	0	0	
7	0	0	0	0	545	487	0	0	0	0	
8	0	0	0	0	551	492	0	0	0	0	
9	0	0	0	0	556	497	0	0	0	0	
10	0	0	0	0	561	501	0	0	0	0	
11	0	0	0	0	565	504	0	0	0	0	
12	0	0	0	0	569	508	0	0	0	0	
13	0	0	0	0	572	511	0	0	0	0	
14	0	0	0	0	575	514	0	0	0	0	
15	0	0	0	0	577	515	0	0	0	0	
0	0	0	0	0	578	517	0	0	0	0	
1	0	0	0	0	579	518	0	0	0	0	
2	0	0	0	0	577	518	0	0	0	0	
3	0	0	0	0	576	517	0	0	0	0	
4	0	0	0	0	572	515	0	0	0	0	
5	0	0	0	0	568	512	0	0	0	0	
6	0	0	0	0	562	508	0	0	0	0	
7	0	0	0	0	556	504	0	0	0	0	
8	0	0	0	0	549	498	0	0	0	0	
9	0	0	0	0	543	492	0	0	0	0	
10	0	0	0	0	536	487	0	0	0	0	
11	0	0	0	0	531	482	0	0	0	0	
12	0	0	0	0	528	479	0	0	0	0	
13	0	0	0	0	527	476	0	0	0	0	
14	0	0	0	0	527	475	0	0	0	0	
15	0	0	0	0	530	476	0	0	0	0	
0	0	0	0	0	535	478	0	0	0	0	
1	0	0	0	0	541	482	0	0	0	0	
2	0	0	0	0	548	486	0	0	0	0	
3	0	0	0	0	555	490	0	0	0	0	
4	0	0	0	0	561	494	0	0	0	0	
5	0	0	0	0	566	497	0	0	0	0	
6	0	0	0	0	568	499	0	0	0	0	
7	0	0	0	0	571	501	0	0	0	0	
8	0	0	0	0	571	502	0	0	0	0	
9	0	0	0	0	569	503	0	0	0	0	
10	0	0	0	0	568	503	0	0	0	0	
11	0	0	0	0	566	503	0	0	0	0	
12	0	0	0	0	562	502	0	0	0	0	
13	0	0	0	0	559	502	0	0	0	0	
14	0	0	0	0	556	501	0	0	0	0	
15	0	0	0	0	552	500	0	0	0	0	
0	0	0	0	0	550	499	0	0	0	0	
1	0	0	0	0	548	497	0	0	0	0	
2	0	0	0	0	547	497	0	0	0	0	
3	0	0	0	0	547	496	0	0	0	0	
4	0	0	0	0	548	496	0	0	0	0	
5	0	0	0	0	551	497	0	0	0	0	
6	0	0	0	0	553	497	0	0	0	0	
7	0	0	0	0	556	499	0	0	0	0	
8	0	0	0	0	559	499	0	0	0	0	
9	0	0	0	0	561	500	0	0	0	0	
10	0	0	0	0	563	500	0	0	0	0	
11	0	0	0	0	563	500	0	0	0	0	
12	0	0	0	0	562	499	0	0	0	0	
13	0	0	0	0	560	498	0	0	0	0	
14	0	0	0	0	557	496	0	0	0	0	
15	0	0	0	0	554	493	0	0	0	0	
0	0	0	0	0	550	491	0	0	0	0	
1	0	0	0	0	545	488	0	0	0	0	
2	0	0	0	0	540	485	0	0	0	0	
3	0	0	0	0	536	482	0	0	0	0	
4	0	0	0	0	532	479	0	0	0	0	
5	0	0	0	0	528	476	0	0	0	0	
6	0	0	0	0	526	474	0	0	0	0	
7	0	0	0	0	523	471	0	0	0	0	
8	0	0	0	0	522	469	0	0	0	0	
9	0	0	0	0	521	468	0	0	0	0	
10	0	0	0	0	521	467	0	0	0	0	
11	0	0	0	0	522	467	0	0	0	0	
12	0	0	0	0	524	468	0	0	0	0	
13	0	0	0	0	526	469	0	0	0	0	
14	0	0	0	0	530	472	0	0	0	0	
15	0	0	0	0	535	475	0	0	0	0	
0	0	0	0	0	539	479	0	0	0	0	
1	0	0	0	0	545	483	0	0	0	0	
2	0	0	0	0	551	488	0	0	0	0	
3	0	0	0	0	556	492	0	0	0	0	
4	0	0	0	0	562	497	0	0	0	0	
5	0	0	0	0	566	500	0	0	0	0	
6	0	0	0	0	569	503	0	0	0	0	
7	0	0	0	0	570	505	0	0	0	0	
8	0	0	0	0	569	505	0	0	0	0	
9	0	0	0	0	568	504	0	0	0	0	
10	0	0	0	0	564	502	0	0	0	0	
11	0	0	0	0	559	498	0	0	0	0	
12	0	0	0	0	552	494	0	0	0	0	
13	0	0	0	0	546	489	0	0	0	0	
14	0	0	0	0	539	483	0	0	0	0	
15	0	0	0	0	532	478	0	0	0	0	
0	0	0	0	0	526	473	0	0	0	0	
1	0	0	0	0	521	470	0	0	0	0	
2	0	0	0	0	519	468	0	0	0	0	
3	0	0	0	0	519	468	0	0	0	0	
4	0	0	0	0	519	468	0	0	0	0	
5	0	0	0	0	522	470	0	0	0	0	
6	0	0	0	0	525	472	0	0	0	0	
7	0	0	0	0	529	475	0	0	0	0	
8	0	0	0	0	532	477	0	0	0	0	
9	0	0	0	0	535	478	0	0	0	0	
10	0	0	0	0	536	479	0	0	0	0	
11	0	0	0	0	537	479	0	0	0	0	
12	0	0	0	0	537	478	0	0	0	0	
13	0	0	0	0	536	477	0	0	0	0	
14	0	0	0	0	534	475	0	0	0	0	
15	0	0	0	0	531	472	0	0	0	0	
0	0	0	0	0	529	470	0	0	0	0	
1	0	0	0	0	527	467	0	0	0	0	
2	0	0	0	0	525	466	0	0	0	0	
3	0	0	0	0	525	466	0	0	0	0	
4	0	0	0	0	526	468	0	0	0	0	
5	0	0	0	0	529	471	0	0	0	0	
6	0	0	0	0	534	476	0	0	0	0	
7	0	0	0	0	540	483	0	0	0	0	
8	0	0	0	0	548	491	0	0	0	0	
9	0	0	0	0	556	499	0	0	0	0	
10	0	0	0	0	566	508	0	0	0	0	
11	0	0	0	0	574	516	0	0	0	0	
12	0	0	0	0	582	523	0	0	0	0	
13	0	0	0	0	587	528	0	0	0	0	
14	0	0	0	0	590	531	0	0	0	0	
15	0	0	0	0	590	531	0	0	0	0	
0	0	0	0	0	588	528	0	0	0	0	
1	0	0	0	0	582	524	0	0	0	0	
2	0	0	0	0	574	517	0	0	0	0	
3	0	0	0	0	565	508	0	0	0	0	
4	0	0	0	0	554	500	0	0	0	0	
5	0	0	0	0	544	492	0	0	0	0	
6	0	0	0	0	535	484	0	0	0	0	
7	0	0	0	0	527	477	0	0	0	0	
8	0	0	0	0	520	472	0	0	0	0	
9	0	0	0	0	516	469	0	0	0	0	
10	0	0	0	0	514	468	0	0	0	0	
11	0	0	0	0	515	469	0	0	0	0	
12	0	0	0	0	518	471	0	0	0	0	
13	0	0	0	0	523	475	0	0	0	0	
14	0	0	0	0	528	480	0	0	0	0	
15	0	0	0	0	535	486	0	0	0	0	
0	0	0	0	0	542	491	0	0	0	0	
1	0	0	0	0	550	497	0	0	0	0	
2	0	0	0	0	557	502	0	0	0	0	
3	0	0	0	0	563	506	0	0	0	0	
4	0	0	0	0	568	511	0	0	0	0	
5	0	0	0	0	573	513	0	0	0	0	
6	0	0	0	0	575	515	0	0	0	0	
7	0	0	0	0	576	515	0	0	0	0	
8	0	0	0	0	575	514	0	0	0	0	
9	0	0	0	0	573	512	0	0	0	0	
10	0	0	0	0	568	508	0	0	0	0	
11	0	0	0	0	562	503	0	0	0	0	
12	0	0	0	0	554	496	0	0	0	0	
13	0	0	0	0	545	489	0	0	0	0	
14	0	0	0	0	536	482	0	0	0	0	
15	0	0	0	0	528	476	0	0	0	0	
0	0	0	0	0	520	469	0	0	0	0	
1	0	0	0	0	513	463	0	0	0	0	
2	0	0	0	0	508	460	0	0	0	0	
3	0	0	0	0	505	456	0	0	0	0	
4	0	0	0	0	503	455	0	0	0	0	
5	0	0	0	0	503	455	0	0	0	0	
6	0	0	0	0	505	456	0	0	0	0	
7	0	0	0	0	508	459	0	0	0	0	
8	0	0	0	0	513	463	0	0	0	0	
9	0	0	0	0	519	467	0	0	0	0	
10	0	0	0	0	525	471	0	0	0	0	
11	0	0	0	0	531	475	0	0	0	0	
12	0	0	0	0	537	480	0	0	0	0	
13	0	0	0	0	542	483	0	0	0	0	
14	0	0	0	0	547	487	0	0	0	0	
15	0	0	0	0	552	490	0	0	0	0	
0	0	0	0	0	555	492	0	0	0	0	
1	0	0	0	0	558	495	0	0	0	0	
2	0	0	0	0	560	495	0	0	0	0	
3	0	0	0	0	560	496	0	0	0	0	
4	0	0	0	0	559	495	0	0	0	0	
5	0	0	0	0	556	493	0	0	0	0	
6	0	0	0	0	553	492	0	0	0	0	
7	0	0	0	0	548	489	0	0	0	0	
8	0	0	0	0	544	486	0	0	0	0	
9	0	0	0	0	540	484	0	0	0	0	
10	0	0	0	0	536	481	0	0	0	0	
11	0	0	0	0	534	480	0	0	0	0	
12	0	0	0	0	532	479	0	0	0	0	
13	0	0	0	0	532	480	0	0	0	0	
14	0	0	0	0	534	480	0	0	0	0	
15	0	0	0	0	537	483	0	0	0	0	
0	0	0	0	0	542	486	0	0	0	0	
1	0	0	0	0	547	489	0	0	0	0	
2	0	0	0	0	553	492	0	0	0	0	
3	0	0	0	0	558	494	0	0	0	0	
4	0	0	0	0	561	496	0	0	0	0	
5	0	0	0	0	564	498	0	0	0	0	
6	0	0	0	0	566	499	0	0	0	0	
7	0	0	0	0	566	499	0	0	0	0	
8	0	0	0	0	564	499	0	0	0	0	
9	0	0	0	0	561	497	0	0	0	0	
10	0	0	0	0	558	497	0	0	0	0	
11	0	0	0	0	555	496	0	0	0	0	
12	0	0	0	0	552	495	0	0	0	0	
13	0	0	0	0	550	494	0	0	0	0	
14	0	0	0	0	547	494	0	0	0	0	
15	0	0	0	0	546	493	0	0	0	0	
0	0	0	0	0	544	492	0	0	0	0	
1	0	0	0	0	543	490	0	0	0	0	
2	0	0	0	0	542	488	0	0	0	0	
3	0	0	0	0	540	485	0	0	0	0	
4	0	0	0	0	538	483	0	0	0	0	
5	0	0	0	0	536	479	0	0	0	0	
6	0	0	0	0	533	475	0	0	0	0	
7	0	0	0	0	530	472	0	0	0	0	
8	0	0	0	0	527	469	0	0	0	0	
9	0	0	0	0	526	467	0	0	0	0	
10	0	0	0	0	524	466	0	0	0	0	
11	0	0	0	0	524	467	0	0	0	0	
12	0	0	0	0	526	469	0	0	0	0	
13	0	0	0	0	528	472	0	0	0	0	
14	0	0	0	0	531	476	0	0	0	0	
15	0	0	0	0	535	480	0	0	0	0	
0	0	0	0	0	540	485	0	0	0	0	
1	0	0	0	0	545	489	0	0	0	0	
2	0	0	0	0	550	493	0	0	0	0	
3	0	0	0	0	554	497	0	0	0	0	
4	0	0	0	0	558	499	0	0	0	0	
5	0	0	0	0	560	501	0	0	0	0	
6	0	0	0	0	562	502	0	0	0	0	
7	0	0	0	0	563	502	0	0	0	0	
8	0	0	0	0	563	501	0	0	0	0	
9	0	0	0	0	563	500	0	0	0	0	
10	0	0	0	0	562	499	0	0	0	0	
11	0	0	0	0	561	499	0	0	0	0	
12	0	0	0	0	561	498	0	0	0	0	
13	0	0	0	0	559	497	0	0	0	0	
14	0	0	0	0	558	497	0	0	0	0	
15	0	0	0	0	557	496	0	0	0	0	
0	0	0	0	0	555	494	0	0	0	0	
1	0	0	0	0	551	492	0	0	0	0	
2	0	0	0	0	548	490	0	0	0	0	
3	0	0	0	0	544	488	0	0	0	0	
4	0	0	0	0	541	486	0	0	0	0	
5	0	0	0	0	537	483	0	0	0	0	
6	0	0	0	0	533	480	0	0	0	0	
7	0	0	0	0	530	478	0	0	0	0	
8	0	0	0	0	527	476	0	0	0	0	
9	0	0	0	0	526	474	0	0	0	0	
10	0	0	0	0	524	473	0	0	0	0	
11	0	0	0	0	524	472	0	0	0	0	
12	0	0	0	0	524	471	0	0	0	0	
13	0	0	0	0	524	470	0	0	0	0	
14	0	0	0	0	523	468	0	0	0	0	
15	0	0	0	0	524	468	0	0	0	0	
0	0	0	0	0	524	468	0	0	0	0	
1	0	0	0	0	526	468	0	0	0	0	
2	0	0	0	0	527	470	0	0	0	0	
3	0	0	0	0	529	472	0	0	0	0	
4	0	0	0	0	532	475	0	0	0	0	
5	0	0	0	0	535	478	0	0	0	0	
6	0	0	0	0	538	481	0	0	0	0	
7	0	0	0	0	542	485	0	0	0	0	
8	0	0	0	0	545	489	0	0	0	0	
9	0	0	0	0	549	494	0	0	0	0	
10	0	0	0	0	554	498	0	0	0	0	
11	0	0	0	0	559	503	0	0	0	0	
12	0	0	0	0	563	507	0	0	0	0	
13	0	0	0	0	568	510	0	0	0	0	
14	0	0	0	0	572	512	0	0	0	0	
15	0	0	0	0	574	514	0	0	0	0	
0	0	0	0	0	574	513	0	0	0	0	
1	0	0	0	0	573	512	0	0	0	0	
2	0	0	0	0	571	509	0	0	0	0	
3	0	0	0	0	566	505	0	0	0	0	
4	0	0	0	0	560	499	0	0	0	0	
5	0	0	0	0	553	493	0	0	0	0	
6	0	0	0	0	547	487	0	0	0	0	
7	0	0	0	0	540	482	0	0	0	0	
8	0	0	0	0	535	477	0	0	0	0	
9	0	0	0	0	530	474	0	0	0	0	
10	0	0	0	0	527	471	0	0	0	0	
11	0	0	0	0	526	471	0	0	0	0	
12	0	0	0	0	526	471	0	0	0	0	
13	0	0	0	0	527	473	0	0	0	0	
14	0	0	0	0	531	476	0	0	0	0	
15	0	0	0	0	534	478	0	0	0	0	
0	0	0	0	0	539	481	0	0	0	0	
1	0	0	0	0	543	484	0	0	0	0	
2	0	0	0	0	547	487	0	0	0	0	
3	0	0	0	0	551	489	0	0	0	0	
4	0	0	0	0	554	491	0	0	0	0	
5	0	0	0	0	557	493	0	0	0	0	
6	0	0	0	0	559	495	0	0	0	0	
7	0	0	0	0	561	496	0	0	0	0	
8	0	0	0	0	562	498	0	0	0	0	
9	0	0	0	0	563	499	0	0	0	0	
10	0	0	0	0	564	501	0	0	0	0	
11	0	0	0	0	565	503	0	0	0	0	
12	0	0	0	0	564	503	0	0	0	0	
13	0	0	0	0	563	504	0	0	0	0	
14	0	0	0	0	562	504	0	0	0	0	
15	0	0	0	0	560	503	0	0	0	0	
0	0	0	0	0	558	502	0	0	0	0	
1	0	0	0	0	556	500	0	0	0	0	
2	0	0	0	0	553	498	0	0	0	0	
3	0	0	0	0	550	495	0	0	0	0	
4	0	0	0	0	548	493	0	0	0	0	
5	0	0	0	0	546	490	0	0	0	0	
6	0	0	0	0	544	487	0	0	0	0	
7	0	0	0	0	543	484	0	0	0	0	
8	0	0	0	0	543	483	0	0	0	0	
9	0	0	0	0	544	482	0	0	0	0	
10	0	0	0	0	545	481	0	0	0	0	
11	0	0	0	0	547	481	0	0	0	0	
12	0	0	0	0	548	481	0	0	0	0	
13	0	0	0	0	550	482	0	0	0	0	
14	0	0	0	0	551	483	0	0	0	0	
15	0	0	0	0	552	484	0	0	0	0	
0	0	0	0	0	553	486	0	0	0	0	
1	0	0	0	0	554	487	0	0	0	0	
2	0	0	0	0	554	488	0	0	0	0	
3	0	0	0	0	555	490	0	0	0	0	
4	0	0	0	0	556	492	0	0	0	0	
5	0	0	0	0	557	494	0	0	0	0	
6	0	0	0	0	558	495	0	0	0	0	
7	0	0	0	0	558	497	0	0	0	0	
8	0	0	0	0	560	498	0	0	0	0	
9	0	0	0	0	561	498	0	0	0	0	
10	0	0	0	0	563	499	0	0	0	0	
11	0	0	0	0	564	500	0	0	0	0	
12	0	0	0	0	566	501	0	0	0	0	
13	0	0	0	0	569	502	0	0	0	0	
14	0	0	0	0	572	504	0	0	0	0	
15	0	0	0	0	574	505	0	0	0	0	
0	0	0	0	0	576	507	0	0	0	0	
1	0	0	0	0	577	508	0	0	0	0	
2	0	0	0	0	576	508	0	0	0	0	
3	0	0	0	0	575	507	0	0	0	0	
4	0	0	0	0	570	504	0	0	0	0	
5	0	0	0	0	564	499	0	0	0	0	
6	0	0	0	0	555	493	0	0	0	0	
7	0	0	0	0	545	485	0	0	0	0	
8	0	0	0	0	533	475	0	0	0	0	
9	0	0	0	0	519	464	0	0	0	0	
10	0	0	0	0	504	451	0	0	0	0	
11	0	0	0	0	488	437	0	0	0	0	
12	0	0	0	0	472	423	0	0	0	0	
13	0	0	0	0	455	407	0	0	0	0	
14	0	0	0	0	438	390	0	0	0	0	
15	0	0	0	0	420	373	0	0	0	0	
0	0	0	0	0	404	357	0	0	0	0	
1	0	0	0	0	389	341	0	0	0	0	
2	0	0	0	0	375	325	0	0	0	0	
3	0	0	0	0	361	311	0	0	0	0	
4	0	0	0	0	350	296	0	0	0	0	
5	0	0	0	0	338	283	0	0	0	0	
6	0	0	0	0	327	271	0	0	0	0	
7	0	0	0	0	319	259	0	0	0	0	
8	0	0	0	0	310	248	0	0	0	0	
9	0	0	0	0	302	239	0	0	0	0	
10	0	0	0	0	296	231	0	0	0	0	
11	0	0	0	0	292	226	0	0	0	0	
12	0	0	0	0	290	223	0	0	0	0	
13	0	0	0	0	291	223	0	0	0	0	
14	0	0	0	0	295	227	0	0	0	0	
15	0	0	0	0	303	234	0	0	0	0	
0	0	0	0	0	316	244	0	0	0	0	
1	0	0	0	0	332	259	0	0	0	0	
2	0	0	0	0	352	277	0	0	0	0	
3	0	0	0	0	375	297	0	0	0	0	
4	0	0	0	0	401	320	0	0	0	0	
5	0	0	0	0	429	345	0	0	0	0	
6	0	0	0	0	457	371	0	0	0	0	
7	0	0	0	0	486	396	0	0	0	0	
8	0	0	0	0	512	422	0	0	0	0	
9	0	0	0	0	536	445	0	0	0	0	
10	0	0	0	0	557	466	0	0	0	0	
11	0	0	0	0	574	484	0	0	0	0	
12	0	0	0	0	587	499	0	0	0	0	
13	0	0	0	0	595	511	0	0	0	0	
14	0	0	0	0	599	519	0	0	0	0	
15	0	0	0	0	599	523	0	0	0	0	
0	0	0	0	0	596	525	0	0	0	0	
1	0	0	0	0	591	524	0	0	0	0	
2	0	0	0	0	583	520	0	0	0	0	
3	0	0	0	0	575	516	0	0	0	0	
4	0	0	0	0	568	510	0	0	0	0	
5	0	0	0	0	560	505	0	0	0	0	
6	0	0	0	0	553	499	0	0	0	0	
7	0	0	0	0	548	494	0	0	0	0	
8	0	0	0	0	545	489	0	0	0	0	
9	0	0	0	0	544	486	0	0	0	0	
10	0	0	0	0	544	484	0	0	0	0	
11	0	0	0	0	546	483	0	0	0	0	
12	0	0	0	0	549	483	0	0	0	0	
13	0	0	0	0	553	485	0	0	0	0	
14	0	0	0	0	558	488	0	0	0	0	
15	0	0	0	0	563	492	0	0	0	0	
0	0	0	0	0	568	496	0	0	0	0	
1	0	0	0	0	572	500	0	0	0	0	
2	0	0	0	0	575	504	0	0	0	0	
3	0	0	0	0	578	508	0	0	0	0	
4	0	0	0	0	579	510	0	0	0	0	
5	0	0	0	0	578	511	0	0	0	0	
6	0	0	0	0	576	511	0	0	0	0	
7	0	0	0	0	573	511	0	0	0	0	
8	0	0	0	0	570	509	0	0	0	0	
9	0	0	0	0	566	507	0	0	0	0	
10	0	0	0	0	563	504	0	0	0	0	
11	0	0	0	0	559	500	0	0	0	0	
12	0	0	0	0	556	497	0	0	0	0	
13	0	0	0	0	554	495	0	0	0	0	
14	0	0	0	0	552	493	0	0	0	0	
15	0	0	0	0	552	492	0	0	0	0	
0	0	0	0	0	552	491	0	0	0	0	
1	0	0	0	0	553	491	0	0	0	0	
2	0	0	0	0	556	492	0	0	0	0	
3	0	0	0	0	558	493	0	0	0	0	
4	0	0	0	0	560	494	0	0	0	0	
5	0	0	0	0	562	496	0	0	0	0	
6	0	0	0	0	563	497	0	0	0	0	
7	0	0	0	0	566	499	0	0	0	0	
8	0	0	0	0	568	501	0	0	0	0	
9	0	0	0	0	568	503	0	0	0	0	
10	0	0	0	0	570	504	0	0	0	0	
11	0	0	0	0	571	506	0	0	0	0	
12	0	0	0	0	572	507	0	0	0	0	
13	0	0	0	0	572	508	0	0	0	0	
14	0	0	0	0	572	509	0	0	0	0	
15	0	0	0	0	573	510	0	0	0	0	
0	0	0	0	0	573	510	0	0	0	0	
1	0	0	0	0	574	510	0	0	0	0	
2	0	0	0	0	573	510	0	0	0	0	
3	0	0	0	0	573	508	0	0	0	0	
4	0	0	0	0	572	508	0	0	0	0	
5	0	0	0	0	572	507	0	0	0	0	
6	0	0	0	0	572	507	0	0	0	0	
7	0	0	0	0	572	506	0	0	0	0	
8	0	0	0	0	572	507	0	0	0	0	
9	0	0	0	0	572	507	0	0	0	0	
10	0	0	0	0	572	508	0	0	0	0	
11	0	0	0	0	573	509	0	0	0	0	
12	0	0	0	0	572	510	0	0	0	0	
13	0	0	0	0	572	510	0	0	0	0	
14	0	0	0	0	572	510	0	0	0	0	
15	0	0	0	0	570	510	0	0	0	0	
0	0	0	0	0	569	509	0	0	0	0	
1	0	0	0	0	567	508	0	0	0	0	
2	0	0	0	0	565	506	0	0	0	0	
3	0	0	0	0	562	503	0	0	0	0	
4	0	0	0	0	559	500	0	0	0	0	
5	0	0	0	0	557	497	0	0	0	0	
6	0	0	0	0	555	494	0	0	0	0	
7	0	0	0	0	554	492	0	0	0	0	
8	0	0	0	0	552	489	0	0	0	0	
9	0	0	0	0	552	488	0	0	0	0	
10	0	0	0	0	553	488	0	0	0	0	
11	0	0	0	0	555	489	0	0	0	0	
12	0	0	0	0	556	490	0	0	0	0	
13	0	0	0	0	558	492	0	0	0	0	
14	0	0	0	0	560	494	0	0	0	0	
15	0	0	0	0	561	497	0	0	0	0	
0	0	0	0	0	563	498	0	0	0	0	
1	0	0	0	0	563	500	0	0	0	0	
2	0	0	0	0	563	501	0	0	0	0	
3	0	0	0	0	562	500	0	0	0	0	
4	0	0	0	0	560	500	0	0	0	0	
5	0	0	0	0	558	499	0	0	0	0	
6	0	0	0	0	556	497	0	0	0	0	
7	0	0	0	0	553	495	0	0	0	0	
8	0	0	0	0	551	493	0	0	0	0	
9	0	0	0	0	550	492	0	0	0	0	
10	0	0	0	0	549	490	0	0	0	0	
11	0	0	0	0	548	489	0	0	0	0	
12	0	0	0	0	548	488	0	0	0	0	
13	0	0	0	0	550	489	0	0	0	0	
14	0	0	0	0	552	490	0	0	0	0	
15	0	0	0	0	555	492	0	0	0	0	
0	0	0	0	0	558	494	0	0	0	0	
1	0	0	0	0	561	496	0	0	0	0	
2	0	0	0	0	564	499	0	0	0	0	
3	0	0	0	0	567	501	0	0	0	0	
4	0	0	0	0	569	503	0	0	0	0	
5	0	0	0	0	570	504	0	0	0	0	
6	0	0	0	0	570	505	0	0	0	0	
7	0	0	0	0	569	505	0	0	0	0	
8	0	0	0	0	568	504	0	0	0	0	
9	0	0	0	0	566	503	0	0	0	0	
10	0	0	0	0	563	501	0	0	0	0	
11	0	0	0	0	561	499	0	0	0	0	
12	0	0	0	0	558	497	0	0	0	0	
13	0	0	0	0	557	496	0	0	0	0	
14	0	0	0	0	555	494	0	0	0	0	
15	0	0	0	0	555	493	0	0	0	0	
0	0	0	0	0	554	492	0	0	0	0	
1	0	0	0	0	555	492	0	0	0	0	
2	0	0	0	0	556	492	0	0	0	0	
3	0	0	0	0	556	493	0	0	0	0	
4	0	0	0	0	558	494	0	0	0	0	
5	0	0	0	0	559	495	0	0	0	0	
6	0	0	0	0	560	497	0	0	0	0	
7	0	0	0	0	560	497	0	0	0	0	
8	0	0	0	0	560	498	0	0	0	0	
9	0	0	0	0	560	499	0	0	0	0	
10	0	0	0	0	558	498	0	0	0	0	
11	0	0	0	0	556	497	0	0	0	0	
12	0	0	0	0	553	495	0	0	0	0	
13	0	0	0	0	551	492	0	0	0	0	
14	0	0	0	0	548	489	0	0	0	0	
15	0	0	0	0	544	486	0	0	0	0	
0	0	0	0	0	542	482	0	0	0	0	
1	0	0	0	0	540	479	0	0	0	0	
2	0	0	0	0	539	476	0	0	0	0	
3	0	0	0	0	537	474	0	0	0	0	
4	0	0	0	0	537	472	0	0	0	0	
5	0	0	0	0	537	471	0	0	0	0	
6	0	0	0	0	537	471	0	0	0	0	
7	0	0	0	0	539	472	0	0	0	0	
8	0	0	0	0	541	473	0	0	0	0	
9	0	0	0	0	543	475	0	0	0	0	
10	0	0	0	0	546	477	0	0	0	0	
11	0	0	0	0	549	480	0	0	0	0	
12	0	0	0	0	551	483	0	0	0	0	
13	0	0	0	0	554	486	0	0	0	0	
14	0	0	0	0	556	487	0	0	0	0	
15	0	0	0	0	556	488	0	0	0	0	
0	0	0	0	0	556	489	0	0	0	0	
1	0	0	0	0	556	488	0	0	0	0	
2	0	0	0	0	553	487	0	0	0	0	
3	0	0	0	0	551	486	0	0	0	0	
4	0	0	0	0	548	483	0	0	0	0	
5	0	0	0	0	546	481	0	0	0	0	
6	0	0	0	0	543	480	0	0	0	0	
7	0	0	0	0	542	478	0	0	0	0	
8	0	0	0	0	540	476	0	0	0	0	
9	0	0	0	0	540	476	0	0	0	0	
10	0	0	0	0	540	476	0	0	0	0	
11	0	0	0	0	541	476	0	0	0	0	
12	0	0	0	0	542	477	0	0	0	0	
13	0	0	0	0	544	479	0	0	0	0	
14	0	0	0	0	545	482	0	0	0	0	
15	0	0	0	0	548	484	0	0	0	0	
0	0	0	0	0	551	486	0	0	0	0	
1	0	0	0	0	552	487	0	0	0	0	
2	0	0	0	0	553	489	0	0	0	0	
3	0	0	0	0	555	490	0	0	0	0	
4	0	0	0	0	556	490	0	0	0	0	
5	0	0	0	0	556	490	0	0	0	0	
6	0	0	0	0	556	489	0	0	0	0	
7	0	0	0	0	556	488	0	0	0	0	
8	0	0	0	0	556	487	0	0	0	0	
9	0	0	0	0	555	486	0	0	0	0	
10	0	0	0	0	555	486	0	0	0	0	
11	0	0	0	0	555	485	0	0	0	0	
12	0	0	0	0	556	486	0	0	0	0	
13	0	0	0	0	557	487	0	0	0	0	
14	0	0	0	0	559	489	0	0	0	0	
15	0	0	0	0	561	492	0	0	0	0	
0	0	0	0	0	564	495	0	0	0	0	
1	0	0	0	0	566	498	0	0	0	0	
2	0	0	0	0	569	502	0	0	0	0	
3	0	0	0	0	571	504	0	0	0	0	
4	0	0	0	0	573	507	0	0	0	0	
5	0	0	0	0	574	508	0	0	0	0	
6	0	0	0	0	574	508	0	0	0	0	
7	0	0	0	0	573	508	0	0	0	0	
8	0	0	0	0	570	505	0	0	0	0	
9	0	0	0	0	567	501	0	0	0	0	
10	0	0	0	0	562	497	0	0	0	0	
11	0	0	0	0	556	491	0	0	0	0	
12	0	0	0	0	551	487	0	0	0	0	
13	0	0	0	0	546	481	0	0	0	0	
14	0	0	0	0	543	478	0	0	0	0	
15	0	0	0	0	540	474	0	0	0	0	
0	0	0	0	0	538	472	0	0	0	0	
1	0	0	0	0	537	471	0	0	0	0	
2	0	0	0	0	538	471	0	0	0	0	
3	0	0	0	0	540	472	0	0	0	0	
4	0	0	0	0	543	475	0	0	0	0	
5	0	0	0	0	546	478	0	0	0	0	
6	0	0	0	0	550	481	0	0	0	0	
7	0	0	0	0	553	484	0	0	0	0	
8	0	0	0	0	556	487	0	0	0	0	
9	0	0	0	0	559	489	0	0	0	0	
10	0	0	0	0	560	490	0	0	0	0	
11	0	0	0	0	560	490	0	0	0	0	
12	0	0	0	0	560	488	0	0	0	0	
13	0	0	0	0	558	486	0	0	0	0	
14	0	0	0	0	555	482	0	0	0	0	
15	0	0	0	0	550	478	0	0	0	0	
0	0	0	0	0	547	474	0	0	0	0	
1	0	0	0	0	544	470	0	0	0	0	
2	0	0	0	0	542	467	0	0	0	0	
3	0	0	0	0	540	465	0	0	0	0	
4	0	0	0	0	540	464	0	0	0	0	
5	0	0	0	0	540	464	0	0	0	0	
6	0	0	0	0	542	466	0	0	0	0	
7	0	0	0	0	545	469	0	0	0	0	
8	0	0	0	0	548	472	0	0	0	0	
9	0	0	0	0	551	476	0	0	0	0	
10	0	0	0	0	555	480	0	0	0	0	
11	0	0	0	0	559	484	0	0	0	0	
12	0	0	0	0	561	487	0	0	0	0	
13	0	0	0	0	564	489	0	0	0	0	
14	0	0	0	0	566	491	0	0	0	0	
15	0	0	0	0	566	492	0	0	0	0	
0	0	0	0	0	566	492	0	0	0	0	
1	0	0	0	0	565	491	0	0	0	0	
2	0	0	0	0	563	488	0	0	0	0	
3	0	0	0	0	560	486	0	0	0	0	
4	0	0	0	0	558	483	0	0	0	0	
5	0	0	0	0	556	480	0	0	0	0	
6	0	0	0	0	553	477	0	0	0	0	
7	0	0	0	0	551	475	0	0	0	0	
8	0	0	0	0	550	473	0	0	0	0	
9	0	0	0	0	548	472	0	0	0	0	
10	0	0	0	0	548	472	0	0	0	0	
11	0	0	0	0	548	472	0	0	0	0	
12	0	0	0	0	549	473	0	0	0	0	
13	0	0	0	0	550	474	0	0	0	0	
14	0	0	0	0	551	476	0	0	0	0	
15	0	0	0	0	553	479	0	0	0	0	
0	0	0	0	0	555	480	0	0	0	0	
1	0	0	0	0	557	483	0	0	0	0	
2	0	0	0	0	559	484	0	0	0	0	
3	0	0	0	0	559	484	0	0	0	0	
4	0	0	0	0	560	485	0	0	0	0	
5	0	0	0	0	561	485	0	0	0	0	
6	0	0	0	0	561	485	0	0	0	0	
7	0	0	0	0	561	484	0	0	0	0	
8	0	0	0	0	560	483	0	0	0	0	
9	0	0	0	0	560	481	0	0	0	0	
10	0	0	0	0	559	479	0	0	0	0	
11	0	0	0	0	558	478	0	0	0	0	
12	0	0	0	0	558	476	0	0	0	0	
13	0	0	0	0	557	475	0	0	0	0	
14	0	0	0	0	557	475	0	0	0	0	
15	0	0	0	0	557	475	0	0	0	0	
0	0	0	0	0	557	475	0	0	0	0	
1	0	0	0	0	558	475	0	0	0	0	
2	0	0	0	0	558	476	0	0	0	0	
3	0	0	0	0	559	478	0	0	0	0	
4	0	0	0	0	559	479	0	0	0	0	
5	0	0	0	0	560	481	0	0	0	0	
6	0	0	0	0	560	482	0	0	0	0	
7	0	0	0	0	560	483	0	0	0	0	
8	0	0	0	0	560	484	0	0	0	0	
9	0	0	0	0	560	485	0	0	0	0	
10	0	0	0	0	559	485	0	0	0	0	
11	0	0	0	0	558	484	0	0	0	0	
12	0	0	0	0	557	483	0	0	0	0	
13	0	0	0	0	556	482	0	0	0	0	
14	0	0	0	0	555	480	0	0	0	0	
15	0	0	0	0	555	479	0	0	0	0	
0	0	0	0	0	554	478	0	0	0	0	
1	0	0	0	0	554	477	0	0	0	0	
2	0	0	0	0	555	476	0	0	0	0	
3	0	0	0	0	556	476	0	0	0	0	
4	0	0	0	0	557	477	0	0	0	0	
5	0	0	0	0	558	477	0	0	0	0	
6	0	0	0	0	559	477	0	0	0	0	
7	0	0	0	0	560	477	0	0	0	0	
8	0	0	0	0	560	477	0	0	0	0	
9	0	0	0	0	560	477	0	0	0	0	
10	0	0	0	0	559	476	0	0	0	0	
11	0	0	0	0	557	475	0	0	0	0	
12	0	0	0	0	556	473	0	0	0	0	
13	0	0	0	0	554	471	0	0	0	0	
14	0	0	0	0	552	469	0	0	0	0	
15	0	0	0	0	551	467	0	0	0	0	
0	0	0	0	0	551	466	0	0	0	0	
1	0	0	0	0	551	466	0	0	0	0	
2	0	0	0	0	552	467	0	0	0	0	
3	0	0	0	0	554	467	0	0	0	0	
4	0	0	0	0	556	469	0	0	0	0	
5	0	0	0	0	559	471	0	0	0	0	
6	0	0	0	0	561	473	0	0	0	0	
7	0	0	0	0	564	476	0	0	0	0	
8	0	0	0	0	566	478	0	0	0	0	
9	0	0	0	0	568	480	0	0	0	0	
10	0	0	0	0	569	483	0	0	0	0	
11	0	0	0	0	571	485	0	0	0	0	
12	0	0	0	0	572	487	0	0	0	0	
13	0	0	0	0	573	488	0	0	0	0	
14	0	0	0	0	573	489	0	0	0	0	
15	0	0	0	0	573	490	0	0	0	0	
0	0	0	0	0	573	490	0	0	0	0	
1	0	0	0	0	572	490	0	0	0	0	
2	0	0	0	0	571	489	0	0	0	0	
3	0	0	0	0	570	487	0	0	0	0	
4	0	0	0	0	569	486	0	0	0	0	
5	0	0	0	0	568	485	0	0	0	0	
6	0	0	0	0	567	484	0	0	0	0	
7	0	0	0	0	567	483	0	0	0	0	
8	0	0	0	0	567	483	0	0	0	0	
9	0	0	0	0	568	483	0	0	0	0	
10	0	0	0	0	569	484	0	0	0	0	
11	0	0	0	0	571	486	0	0	0	0	
12	0	0	0	0	572	487	0	0	0	0	
13	0	0	0	0	574	489	0	0	0	0	
14	0	0	0	0	576	492	0	0	0	0	
15	0	0	0	0	577	494	0	0	0	0	
0	0	0	0	0	578	495	0	0	0	0	
1	0	0	0	0	579	496	0	0	0	0	
2	0	0	0	0	578	496	0	0	0	0	
3	0	0	0	0	576	496	0	0	0	0	
4	0	0	0	0	575	495	0	0	0	0	
5	0	0	0	0	572	493	0	0	0	0	
6	0	0	0	0	569	490	0	0	0	0	
7	0	0	0	0	566	487	0	0	0	0	
8	0	0	0	0	563	484	0	0	0	0	
9	0	0	0	0	560	481	0	0	0	0	
10	0	0	0	0	557	478	0	0	0	0	
11	0	0	0	0	555	475	0	0	0	0	
12	0	0	0	0	552	473	0	0	0	0	
13	0	0	0	0	551	472	0	0	0	0	
14	0	0	0	0	550	472	0	0	0	0	
15	0	0	0	0	550	472	0	0	0	0	
0	0	0	0	0	551	473	0	0	0	0	
1	0	0	0	0	553	475	0	0	0	0	
2	0	0	0	0	554	477	0	0	0	0	
3	0	0	0	0	556	479	0	0	0	0	
4	0	0	0	0	558	481	0	0	0	0	
5	0	0	0	0	559	483	0	0	0	0	
6	0	0	0	0	559	483	0	0	0	0	
7	0	0	0	0	559	483	0	0	0	0	
8	0	0	0	0	559	482	0	0	0	0	
9	0	0	0	0	558	481	0	0	0	0	
10	0	0	0	0	556	479	0	0	0	0	
11	0	0	0	0	553	476	0	0	0	0	
12	0	0	0	0	550	473	0	0	0	0	
13	0	0	0	0	547	471	0	0	0	0	
14	0	0	0	0	545	469	0	0	0	0	
15	0	0	0	0	543	467	0	0	0	0	
0	0	0	0	0	542	466	0	0	0	0	
1	0	0	0	0	541	465	0	0	0	0	
2	0	0	0	0	542	466	0	0	0	0	
3	0	0	0	0	543	467	0	0	0	0	
4	0	0	0	0	545	469	0	0	0	0	
5	0	0	0	0	547	471	0	0	0	0	
6	0	0	0	0	549	474	0	0	0	0	
7	0	0	0	0	551	476	0	0	0	0	
8	0	0	0	0	552	478	0	0	0	0	
9	0	0	0	0	554	480	0	0	0	0	
10	0	0	0	0	554	481	0	0	0	0	
11	0	0	0	0	554	482	0	0	0	0	
12	0	0	0	0	553	482	0	0	0	0	
13	0	0	0	0	552	482	0	0	0	0	
14	0	0	0	0	551	481	0	0	0	0	
15	0	0	0	0	549	480	0	0	0	0	
0	0	0	0	0	547	478	0	0	0	0	
1	0	0	0	0	546	477	0	0	0	0	
2	0	0	0	0	545	476	0	0	0	0	
3	0	0	0	0	543	475	0	0	0	0	
4	0	0	0	0	543	473	0	0	0	0	
5	0	0	0	0	541	472	0	0	0	0	
6	0	0	0	0	541	472	0	0	0	0	
7	0	0	0	0	540	472	0	0	0	0	
8	0	0	0	0	540	472	0	0	0	0	
9	0	0	0	0	540	472	0	0	0	0	
10	0	0	0	0	540	472	0	0	0	0	
11	0	0	0	0	540	473	0	0	0	0	
12	0	0	0	0	541	473	0	0	0	0	
13	0	0	0	0	541	473	0	0	0	0	
14	0	0	0	0	542	473	0	0	0	0	
15	0	0	0	0	542	473	0	0	0	0	
0	0	0	0	0	542	473	0	0	0	0	
1	0	0	0	0	542	473	0	0	0	0	
2	0	0	0	0	541	472	0	0	0	0	
3	0	0	0	0	541	471	0	0	0	0	
4	0	0	0	0	540	470	0	0	0	0	
5	0	0	0	0	540	470	0	0	0	0	
6	0	0	0	0	539	470	0	0	0	0	
7	0	0	0	0	539	469	0	0	0	0	
8	0	0	0	0	539	470	0	0	0	0	
9	0	0	0	0	539	470	0	0	0	0	
10	0	0	0	0	540	471	0	0	0	0	
11	0	0	0	0	541	472	0	0	0	0	
12	0	0	0	0	542	474	0	0	0	0	
13	0	0	0	0	543	476	0	0	0	0	
14	0	0	0	0	544	478	0	0	0	0	
15	0	0	0	0	545	480	0	0	0	0	
0	0	0	0	0	547	482	0	0	0	0	
1	0	0	0	0	547	483	0	0	0	0	
2	0	0	0	0	548	484	0	0	0	0	
3	0	0	0	0	548	485	0	0	0	0	
4	0	0	0	0	549	486	0	0	0	0	
5	0	0	0	0	549	486	0	0	0	0	
6	0	0	0	0	548	486	0	0	0	0	
7	0	0	0	0	548	484	0	0	0	0	
8	0	0	0	0	547	484	0	0	0	0	
9	0	0	0	0	546	483	0	0	0	0	
10	0	0	0	0	545	481	0	0	0	0	
11	0	0	0	0	545	480	0	0	0	0	
12	0	0	0	0	544	478	0	0	0	0	
13	0	0	0	0	543	478	0	0	0	0	
14	0	0	0	0	543	476	0	0	0	0	
15	0	0	0	0	542	475	0	0	0	0	
0	0	0	0	0	542	475	0	0	0	0	
1	0	0	0	0	540	473	0	0	0	0	
2	0	0	0	0	539	473	0	0	0	0	
3	0	0	0	0	538	472	0	0	0	0	
4	0	0	0	0	537	472	0	0	0	0	
5	0	0	0	0	536	472	0	0	0	0	
6	0	0	0	0	535	472	0	0	0	0	
7	0	0	0	0	535	472	0	0	0	0	
8	0	0	0	0	535	472	0	0	0	0	
9	0	0	0	0	535	472	0	0	0	0	
10	0	0	0	0	534	471	0	0	0	0	
11	0	0	0	0	534	469	0	0	0	0	
12	0	0	0	0	534	467	0	0	0	0	
13	0	0	0	0	534	466	0	0	0	0	
14	0	0	0	0	534	465	0	0	0	0	
15	0	0	0	0	534	463	0	0	0	0	
0	0	0	0	0	534	463	0	0	0	0	
1	0	0	0	0	534	463	0	0	0	0	
2	0	0	0	0	535	464	0	0	0	0	
3	0	0	0	0	537	465	0	0	0	0	
4	0	0	0	0	539	467	0	0	0	0	
5	0	0	0	0	540	470	0	0	0	0	
6	0	0	0	0	542	473	0	0	0	0	
7	0	0	0	0	544	476	0	0	0	0	
8	0	0	0	0	546	478	0	0	0	0	
9	0	0	0	0	546	480	0	0	0	0	
10	0	0	0	0	546	480	0	0	0	0	
11	0	0	0	0	544	480	0	0	0	0	
12	0	0	0	0	543	479	0	0	0	0	
13	0	0	0	0	541	476	0	0	0	0	
14	0	0	0	0	538	473	0	0	0	0	
15	0	0	0	0	536	470	0	0	0	0	
0	0	0	0	0	533	467	0	0	0	0	
1	0	0	0	0	531	464	0	0	0	0	
2	0	0	0	0	529	462	0	0	0	0	
3	0	0	0	0	527	461	0	0	0	0	
4	0	0	0	0	527	460	0	0	0	0	
5	0	0	0	0	527	460	0	0	0	0	
6	0	0	0	0	527	461	0	0	0	0	
7	0	0	0	0	529	463	0	0	0	0	
8	0	0	0	0	530	464	0	0	0	0	
9	0	0	0	0	532	467	0	0	0	0	
10	0	0	0	0	534	469	0	0	0	0	
11	0	0	0	0	536	472	0	0	0	0	
12	0	0	0	0	538	473	0	0	0	0	
13	0	0	0	0	539	474	0	0	0	0	
14	0	0	0	0	540	474	0	0	0	0	
15	0	0	0	0	539	473	0	0	0	0	
0	0	0	0	0	538	472	0	0	0	0	
1	0	0	0	0	536	471	0	0	0	0	
2	0	0	0	0	534	468	0	0	0	0	
3	0	0	0	0	531	465	0	0	0	0	
4	0	0	0	0	527	462	0	0	0	0	
5	0	0	0	0	524	459	0	0	0	0	
6	0	0	0	0	521	456	0	0	0	0	
7	0	0	0	0	519	455	0	0	0	0	
8	0	0	0	0	518	454	0	0	0	0	
9	0	0	0	0	516	454	0	0	0	0	
10	0	0	0	0	517	454	0	0	0	0	
11	0	0	0	0	518	455	0	0	0	0	
12	0	0	0	0	520	457	0	0	0	0	
13	0	0	0	0	523	459	0	0	0	0	
14	0	0	0	0	525	462	0	0	0	0	
15	0	0	0	0	528	464	0	0	0	0	
0	0	0	0	0	531	466	0	0	0	0	
1	0	0	0	0	533	467	0	0	0	0	
2	0	0	0	0	534	467	0	0	0	0	
3	0	0	0	0	535	467	0	0	0	0	
4	0	0	0	0	534	465	0	0	0	0	
5	0	0	0	0	533	464	0	0	0	0	
6	0	0	0	0	531	461	0	0	0	0	
7	0	0	0	0	529	459	0	0	0	0	
8	0	0	0	0	527	456	0	0	0	0	
9	0	0	0	0	525	454	0	0	0	0	
10	0	0	0	0	522	452	0	0	0	0	
11	0	0	0	0	519	450	0	0	0	0	
12	0	0	0	0	517	448	0	0	0	0	
13	0	0	0	0	515	448	0	0	0	0	
14	0	0	0	0	513	448	0	0	0	0	
15	0	0	0	0	512	448	0	0	0	0	
0	0	0	0	0	512	448	0	0	0	0	
1	0	0	0	0	512	449	0	0	0	0	
2	0	0	0	0	513	451	0	0	0	0	
3	0	0	0	0	515	452	0	0	0	0	
4	0	0	0	0	516	454	0	0	0	0	
5	0	0	0	0	519	455	0	0	0	0	
6	0	0	0	0	520	457	0	0	0	0	
7	0	0	0	0	522	457	0	0	0	0	
8	0	0	0	0	523	458	0	0	0	0	
9	0	0	0	0	524	458	0	0	0	0	
10	0	0	0	0	524	457	0	0	0	0	
11	0	0	0	0	524	457	0	0	0	0	
12	0	0	0	0	524	456	0	0	0	0	
13	0	0	0	0	523	456	0	0	0	0	
14	0	0	0	0	523	455	0	0	0	0	
15	0	0	0	0	522	455	0	0	0	0	
0	0	0	0	0	523	455	0	0	0	0	
1	0	0	0	0	523	456	0	0	0	0	
2	0	0	0	0	523	457	0	0	0	0	
3	0	0	0	0	523	459	0	0	0	0	
4	0	0	0	0	524	460	0	0	0	0	
5	0	0	0	0	524	462	0	0	0	0	
6	0	0	0	0	525	464	0	0	0	0	
7	0	0	0	0	526	465	0	0	0	0	
8	0	0	0	0	527	467	0	0	0	0	
9	0	0	0	0	528	469	0	0	0	0	
10	0	0	0	0	529	470	0	0	0	0	
11	0	0	0	0	530	471	0	0	0	0	
12	0	0	0	0	530	471	0	0	0	0	
13	0	0	0	0	531	471	0	0	0	0	
14	0	0	0	0	530	470	0	0	0	0	
15	0	0	0	0	529	468	0	0	0	0	
0	0	0	0	0	528	467	0	0	0	0	
1	0	0	0	0	526	465	0	0	0	0	
2	0	0	0	0	525	463	0	0	0	0	
3	0	0	0	0	523	461	0	0	0	0	
4	0	0	0	0	521	460	0	0	0	0	
5	0	0	0	0	519	459	0	0	0	0	
6	0	0	0	0	519	459	0	0	0	0	
7	0	0	0	0	518	459	0	0	0	0	
8	0	0	0	0	518	460	0	0	0	0	
9	0	0	0	0	518	461	0	0	0	0	
10	0	0	0	0	518	462	0	0	0	0	
11	0	0	0	0	519	463	0	0	0	0	
12	0	0	0	0	519	463	0	0	0	0	
13	0	0	0	0	519	463	0	0	0	0	
14	0	0	0	0	518	462	0	0	0	0	
15	0	0	0	0	516	461	0	0	0	0	
0	0	0	0	0	515	459	0	0	0	0	
1	0	0	0	0	514	456	0	0	0	0	
2	0	0	0	0	513	455	0	0	0	0	
3	0	0	0	0	512	452	0	0	0	0	
4	0	0	0	0	511	451	0	0	0	0	
5	0	0	0	0	512	450	0	0	0	0	
6	0	0	0	0	514	450	0	0	0	0	
7	0	0	0	0	516	451	0	0	0	0	
8	0	0	0	0	519	452	0	0	0	0	
9	0	0	0	0	523	455	0	0	0	0	
10	0	0	0	0	527	459	0	0	0	0	
11	0	0	0	0	531	464	0	0	0	0	
12	0	0	0	0	536	469	0	0	0	0	
13	0	0	0	0	540	474	0	0	0	0	
14	0	0	0	0	543	479	0	0	0	0	
15	0	0	0	0	547	483	0	0	0	0	
0	0	0	0	0	549	486	0	0	0	0	
1	0	0	0	0	550	488	0	0	0	0	
2	0	0	0	0	549	489	0	0	0	0	
3	0	0	0	0	547	488	0	0	0	0	
4	0	0	0	0	545	487	0	0	0	0	
5	0	0	0	0	543	485	0	0	0	0	
6	0	0	0	0	539	482	0	0	0	0	
7	0	0	0	0	535	478	0	0	0	0	
8	0	0	0	0	531	475	0	0	0	0	
9	0	0	0	0	528	471	0	0	0	0	
10	0	0	0	0	525	467	0	0	0	0	
11	0	0	0	0	522	464	0	0	0	0	
12	0	0	0	0	519	462	0	0	0	0	
13	0	0	0	0	518	461	0	0	0	0	
14	0	0	0	0	517	460	0	0	0	0	
15	0	0	0	0	517	461	0	0	0	0	
0	0	0	0	0	518	462	0	0	0	0	
1	0	0	0	0	520	463	0	0	0	0	
2	0	0	0	0	522	466	0	0	0	0	
3	0	0	0	0	525	468	0	0	0	0	
4	0	0	0	0	528	471	0	0	0	0	
5	0	0	0	0	531	473	0	0	0	0	
6	0	0	0	0	534	475	0	0	0	0	
7	0	0	0	0	536	477	0	0	0	0	
8	0	0	0	0	538	479	0	0	0	0	
9	0	0	0	0	540	480	0	0	0	0	
10	0	0	0	0	541	480	0	0	0	0	
11	0	0	0	0	541	480	0	0	0	0	
12	0	0	0	0	541	480	0	0	0	0	
13	0	0	0	0	540	479	0	0	0	0	
14	0	0	0	0	540	478	0	0	0	0	
