# OpenSignals Text File Format. Version 1
# {"": {"position": 0, "device": "", "device name": "", "device connection": "", "sampling rate": 1000, "resolution": [4, 1, 1, 1, 1, 10, 10, 10, 10, 6, 6], "firmware version": 1281, "comments": "", "keywords": "", "mode": 0, "sync interval": 2, "date": "", "time": "", "channels": [1, 2, 3, 4, 5, 6], "sensor": ["RAW", "RAW", "RAW", "RAW", "RAW", "RAW"], "label": ["A1", "A2", "A3", "A4", "A5", "A6"], "column": ["nSeq", "I1", "I2", "O1", "O2", "A1", "A2", "A3", "A4", "A5", "A6"], "special": [{}, {}, {}, {}, {}, {}], "digital IO": [0, 0, 1, 1], "convertedValues": 0}}
# EndOfHeader
0	0	0	0	0	311	142	0	0	0	0	
1	0	0	0	0	310	139	0	0	0	0	
2	0	0	0	0	308	135	0	0	0	0	
3	0	0	0	0	307	132	0	0	0	0	
4	0	0	0	0	305	131	0	0	0	0	
5	0	0	0	0	305	130	0	0	0	0	
6	0	0	0	0	306	132	0	0	0	0	
7	0	0	0	0	308	136	0	0	0	0	
8	0	0	0	0	314	143	0	0	0	0	
9	0	0	0	0	321	152	0	0	0	0	
10	0	0	0	0	332	163	0	0	0	0	
11	0	0	0	0	345	177	0	0	0	0	
12	0	0	0	0	361	193	0	0	0	0	
13	0	0	0	0	378	210	0	0	0	0	
14	0	0	0	0	397	227	0	0	0	0	
15	0	0	0	0	417	246	0	0	0	0	
0	0	0	0	0	436	263	0	0	0	0	
1	0	0	0	0	455	280	0	0	0	0	
2	0	0	0	0	472	294	0	0	0	0	
3	0	0	0	0	488	308	0	0	0	0	
4	0	0	0	0	502	320	0	0	0	0	
5	0	0	0	0	513	332	0	0	0	0	
6	0	0	0	0	524	342	0	0	0	0	
7	0	0	0	0	532	351	0	0	0	0	
8	0	0	0	0	538	359	0	0	0	0	
9	0	0	0	0	543	366	0	0	0	0	
10	0	0	0	0	545	371	0	0	0	0	
11	0	0	0	0	546	375	0	0	0	0	
12	0	0	0	0	544	377	0	0	0	0	
13	0	0	0	0	540	376	0	0	0	0	
14	0	0	0	0	534	374	0	0	0	0	
15	0	0	0	0	526	369	0	0	0	0	
0	0	0	0	0	518	363	0	0	0	0	
1	0	0	0	0	508	356	0	0	0	0	
2	0	0	0	0	500	350	0	0	0	0	
3	0	0	0	0	492	344	0	0	0	0	
4	0	0	0	0	486	338	0	0	0	0	
5	0	0	0	0	481	333	0	0	0	0	
6	0	0	0	0	478	331	0	0	0	0	
7	0	0	0	0	478	328	0	0	0	0	
8	0	0	0	0	480	328	0	0	0	0	
9	0	0	0	0	483	329	0	0	0	0	
10	0	0	0	0	489	331	0	0	0	0	
11	0	0	0	0	495	334	0	0	0	0	
12	0	0	0	0	500	337	0	0	0	0	
13	0	0	0	0	506	339	0	0	0	0	
14	0	0	0	0	509	341	0	0	0	0	
15	0	0	0	0	511	342	0	0	0	0	
0	0	0	0	0	510	341	0	0	0	0	
1	0	0	0	0	507	338	0	0	0	0	
2	0	0	0	0	501	335	0	0	0	0	
3	0	0	0	0	494	330	0	0	0	0	
4	0	0	0	0	486	324	0	0	0	0	
5	0	0	0	0	477	318	0	0	0	0	
6	0	0	0	0	467	311	0	0	0	0	
7	0	0	0	0	458	304	0	0	0	0	
8	0	0	0	0	450	297	0	0	0	0	
9	0	0	0	0	442	290	0	0	0	0	
10	0	0	0	0	435	284	0	0	0	0	
11	0	0	0	0	432	280	0	0	0	0	
12	0	0	0	0	430	278	0	0	0	0	
13	0	0	0	0	432	279	0	0	0	0	
14	0	0	0	0	437	283	0	0	0	0	
15	0	0	0	0	445	289	0	0	0	0	
0	0	0	0	0	457	299	0	0	0	0	
1	0	0	0	0	472	312	0	0	0	0	
2	0	0	0	0	490	329	0	0	0	0	
3	0	0	0	0	511	348	0	0	0	0	
4	0	0	0	0	533	369	0	0	0	0	
5	0	0	0	0	557	392	0	0	0	0	
6	0	0	0	0	580	416	0	0	0	0	
7	0	0	0	0	602	439	0	0	0	0	
8	0	0	0	0	621	459	0	0	0	0	
9	0	0	0	0	635	474	0	0	0	0	
10	0	0	0	0	643	483	0	0	0	0	
11	0	0	0	0	643	484	0	0	0	0	
12	0	0	0	0	635	479	0	0	0	0	
13	0	0	0	0	620	465	0	0	0	0	
14	0	0	0	0	598	446	0	0	0	0	
15	0	0	0	0	571	422	0	0	0	0	
0	0	0	0	0	541	395	0	0	0	0	
1	0	0	0	0	511	367	0	0	0	0	
2	0	0	0	0	484	342	0	0	0	0	
3	0	0	0	0	460	319	0	0	0	0	
4	0	0	0	0	442	301	0	0	0	0	
5	0	0	0	0	431	289	0	0	0	0	
6	0	0	0	0	427	284	0	0	0	0	
7	0	0	0	0	430	284	0	0	0	0	
8	0	0	0	0	440	292	0	0	0	0	
9	0	0	0	0	454	303	0	0	0	0	
10	0	0	0	0	473	319	0	0	0	0	
11	0	0	0	0	494	336	0	0	0	0	
12	0	0	0	0	514	354	0	0	0	0	
13	0	0	0	0	533	371	0	0	0	0	
14	0	0	0	0	549	386	0	0	0	0	
15	0	0	0	0	562	398	0	0	0	0	
0	0	0	0	0	571	407	0	0	0	0	
1	0	0	0	0	575	412	0	0	0	0	
2	0	0	0	0	575	414	0	0	0	0	
3	0	0	0	0	572	412	0	0	0	0	
4	0	0	0	0	567	408	0	0	0	0	
5	0	0	0	0	558	402	0	0	0	0	
6	0	0	0	0	547	394	0	0	0	0	
7	0	0	0	0	536	385	0	0	0	0	
8	0	0	0	0	524	376	0	0	0	0	
9	0	0	0	0	513	367	0	0	0	0	
10	0	0	0	0	504	359	0	0	0	0	
11	0	0	0	0	496	352	0	0	0	0	
12	0	0	0	0	489	347	0	0	0	0	
13	0	0	0	0	484	343	0	0	0	0	
14	0	0	0	0	481	339	0	0	0	0	
15	0	0	0	0	479	337	0	0	0	0	
0	0	0	0	0	478	336	0	0	0	0	
1	0	0	0	0	478	335	0	0	0	0	
2	0	0	0	0	479	335	0	0	0	0	
3	0	0	0	0	480	335	0	0	0	0	
4	0	0	0	0	482	335	0	0	0	0	
5	0	0	0	0	483	335	0	0	0	0	
6	0	0	0	0	484	336	0	0	0	0	
7	0	0	0	0	485	336	0	0	0	0	
8	0	0	0	0	486	335	0	0	0	0	
9	0	0	0	0	486	335	0	0	0	0	
10	0	0	0	0	486	335	0	0	0	0	
11	0	0	0	0	486	335	0	0	0	0	
12	0	0	0	0	485	335	0	0	0	0	
13	0	0	0	0	485	336	0	0	0	0	
14	0	0	0	0	486	337	0	0	0	0	
15	0	0	0	0	487	339	0	0	0	0	
0	0	0	0	0	489	342	0	0	0	0	
1	0	0	0	0	493	345	0	0	0	0	
2	0	0	0	0	497	350	0	0	0	0	
3	0	0	0	0	504	356	0	0	0	0	
4	0	0	0	0	510	363	0	0	0	0	
5	0	0	0	0	517	371	0	0	0	0	
6	0	0	0	0	524	377	0	0	0	0	
7	0	0	0	0	529	383	0	0	0	0	
8	0	0	0	0	534	388	0	0	0	0	
9	0	0	0	0	536	390	0	0	0	0	
10	0	0	0	0	535	391	0	0	0	0	
11	0	0	0	0	531	388	0	0	0	0	
12	0	0	0	0	526	383	0	0	0	0	
13	0	0	0	0	517	376	0	0	0	0	
14	0	0	0	0	507	367	0	0	0	0	
15	0	0	0	0	496	358	0	0	0	0	
0	0	0	0	0	485	348	0	0	0	0	
1	0	0	0	0	476	339	0	0	0	0	
2	0	0	0	0	469	333	0	0	0	0	
3	0	0	0	0	465	329	0	0	0	0	
4	0	0	0	0	465	329	0	0	0	0	
5	0	0	0	0	469	331	0	0	0	0	
6	0	0	0	0	476	337	0	0	0	0	
7	0	0	0	0	486	345	0	0	0	0	
8	0	0	0	0	498	355	0	0	0	0	
9	0	0	0	0	511	366	0	0	0	0	
10	0	0	0	0	524	377	0	0	0	0	
11	0	0	0	0	536	387	0	0	0	0	
12	0	0	0	0	546	396	0	0	0	0	
13	0	0	0	0	554	403	0	0	0	0	
14	0	0	0	0	559	408	0	0	0	0	
15	0	0	0	0	561	409	0	0	0	0	
0	0	0	0	0	560	409	0	0	0	0	
1	0	0	0	0	556	406	0	0	0	0	
2	0	0	0	0	548	399	0	0	0	0	
3	0	0	0	0	538	390	0	0	0	0	
4	0	0	0	0	525	379	0	0	0	0	
5	0	0	0	0	510	366	0	0	0	0	
6	0	0	0	0	494	352	0	0	0	0	
7	0	0	0	0	478	339	0	0	0	0	
8	0	0	0	0	463	326	0	0	0	0	
9	0	0	0	0	450	315	0	0	0	0	
10	0	0	0	0	439	305	0	0	0	0	
11	0	0	0	0	432	299	0	0	0	0	
12	0	0	0	0	428	295	0	0	0	0	
13	0	0	0	0	430	295	0	0	0	0	
14	0	0	0	0	433	299	0	0	0	0	
15	0	0	0	0	442	305	0	0	0	0	
0	0	0	0	0	454	315	0	0	0	0	
1	0	0	0	0	467	327	0	0	0	0	
2	0	0	0	0	483	340	0	0	0	0	
3	0	0	0	0	500	355	0	0	0	0	
4	0	0	0	0	518	370	0	0	0	0	
5	0	0	0	0	535	386	0	0	0	0	
6	0	0	0	0	550	401	0	0	0	0	
7	0	0	0	0	563	414	0	0	0	0	
8	0	0	0	0	573	424	0	0	0	0	
9	0	0	0	0	577	430	0	0	0	0	
10	0	0	0	0	577	431	0	0	0	0	
11	0	0	0	0	571	428	0	0	0	0	
12	0	0	0	0	561	419	0	0	0	0	
13	0	0	0	0	547	408	0	0	0	0	
14	0	0	0	0	531	394	0	0	0	0	
15	0	0	0	0	514	380	0	0	0	0	
0	0	0	0	0	497	364	0	0	0	0	
1	0	0	0	0	482	350	0	0	0	0	
2	0	0	0	0	467	336	0	0	0	0	
3	0	0	0	0	455	324	0	0	0	0	
4	0	0	0	0	448	316	0	0	0	0	
5	0	0	0	0	443	311	0	0	0	0	
6	0	0	0	0	443	309	0	0	0	0	
7	0	0	0	0	446	311	0	0	0	0	
8	0	0	0	0	454	316	0	0	0	0	
9	0	0	0	0	463	323	0	0	0	0	
10	0	0	0	0	472	331	0	0	0	0	
11	0	0	0	0	481	337	0	0	0	0	
12	0	0	0	0	488	343	0	0	0	0	
13	0	0	0	0	492	345	0	0	0	0	
14	0	0	0	0	492	344	0	0	0	0	
15	0	0	0	0	487	340	0	0	0	0	
0	0	0	0	0	479	332	0	0	0	0	
1	0	0	0	0	467	323	0	0	0	0	
2	0	0	0	0	453	311	0	0	0	0	
3	0	0	0	0	440	300	0	0	0	0	
4	0	0	0	0	427	289	0	0	0	0	
5	0	0	0	0	417	281	0	0	0	0	
6	0	0	0	0	411	277	0	0	0	0	
7	0	0	0	0	410	276	0	0	0	0	
8	0	0	0	0	414	279	0	0	0	0	
9	0	0	0	0	423	287	0	0	0	0	
10	0	0	0	0	437	298	0	0	0	0	
11	0	0	0	0	456	313	0	0	0	0	
12	0	0	0	0	478	331	0	0	0	0	
13	0	0	0	0	501	350	0	0	0	0	
14	0	0	0	0	524	369	0	0	0	0	
15	0	0	0	0	544	387	0	0	0	0	
0	0	0	0	0	562	403	0	0	0	0	
1	0	0	0	0	575	415	0	0	0	0	
2	0	0	0	0	583	424	0	0	0	0	
3	0	0	0	0	587	430	0	0	0	0	
4	0	0	0	0	585	432	0	0	0	0	
5	0	0	0	0	579	430	0	0	0	0	
6	0	0	0	0	570	425	0	0	0	0	
7	0	0	0	0	559	418	0	0	0	0	
8	0	0	0	0	546	410	0	0	0	0	
9	0	0	0	0	533	401	0	0	0	0	
10	0	0	0	0	520	392	0	0	0	0	
11	0	0	0	0	510	383	0	0	0	0	
12	0	0	0	0	501	375	0	0	0	0	
13	0	0	0	0	494	368	0	0	0	0	
14	0	0	0	0	489	361	0	0	0	0	
15	0	0	0	0	486	356	0	0	0	0	
0	0	0	0	0	485	352	0	0	0	0	
1	0	0	0	0	484	349	0	0	0	0	
2	0	0	0	0	485	347	0	0	0	0	
3	0	0	0	0	487	345	0	0	0	0	
4	0	0	0	0	488	344	0	0	0	0	
5	0	0	0	0	490	344	0	0	0	0	
6	0	0	0	0	492	345	0	0	0	0	
7	0	0	0	0	494	346	0	0	0	0	
8	0	0	0	0	496	349	0	0	0	0	
9	0	0	0	0	500	353	0	0	0	0	
10	0	0	0	0	505	361	0	0	0	0	
11	0	0	0	0	513	370	0	0	0	0	
12	0	0	0	0	522	381	0	0	0	0	
13	0	0	0	0	532	393	0	0	0	0	
14	0	0	0	0	542	405	0	0	0	0	
15	0	0	0	0	553	416	0	0	0	0	
0	0	0	0	0	562	427	0	0	0	0	
1	0	0	0	0	568	433	0	0	0	0	
2	0	0	0	0	571	436	0	0	0	0	
3	0	0	0	0	569	435	0	0	0	0	
4	0	0	0	0	563	429	0	0	0	0	
5	0	0	0	0	553	418	0	0	0	0	
6	0	0	0	0	539	405	0	0	0	0	
7	0	0	0	0	522	388	0	0	0	0	
8	0	0	0	0	504	371	0	0	0	0	
9	0	0	0	0	487	355	0	0	0	0	
10	0	0	0	0	471	339	0	0	0	0	
11	0	0	0	0	456	326	0	0	0	0	
12	0	0	0	0	444	315	0	0	0	0	
13	0	0	0	0	437	307	0	0	0	0	
14	0	0	0	0	433	303	0	0	0	0	
15	0	0	0	0	433	302	0	0	0	0	
0	0	0	0	0	438	305	0	0	0	0	
1	0	0	0	0	445	310	0	0	0	0	
2	0	0	0	0	455	318	0	0	0	0	
3	0	0	0	0	466	326	0	0	0	0	
4	0	0	0	0	478	335	0	0	0	0	
5	0	0	0	0	488	342	0	0	0	0	
6	0	0	0	0	497	349	0	0	0	0	
7	0	0	0	0	505	355	0	0	0	0	
8	0	0	0	0	511	360	0	0	0	0	
9	0	0	0	0	515	364	0	0	0	0	
10	0	0	0	0	518	367	0	0	0	0	
11	0	0	0	0	519	370	0	0	0	0	
12	0	0	0	0	520	372	0	0	0	0	
13	0	0	0	0	519	374	0	0	0	0	
14	0	0	0	0	518	375	0	0	0	0	
15	0	0	0	0	517	376	0	0	0	0	
0	0	0	0	0	514	376	0	0	0	0	
1	0	0	0	0	512	376	0	0	0	0	
2	0	0	0	0	509	374	0	0	0	0	
3	0	0	0	0	506	373	0	0	0	0	
4	0	0	0	0	503	371	0	0	0	0	
5	0	0	0	0	500	369	0	0	0	0	
6	0	0	0	0	498	367	0	0	0	0	
7	0	0	0	0	497	365	0	0	0	0	
8	0	0	0	0	496	365	0	0	0	0	
9	0	0	0	0	498	366	0	0	0	0	
10	0	0	0	0	500	368	0	0	0	0	
11	0	0	0	0	505	371	0	0	0	0	
12	0	0	0	0	511	376	0	0	0	0	
13	0	0	0	0	516	381	0	0	0	0	
14	0	0	0	0	521	386	0	0	0	0	
15	0	0	0	0	526	390	0	0	0	0	
0	0	0	0	0	529	393	0	0	0	0	
1	0	0	0	0	531	396	0	0	0	0	
2	0	0	0	0	531	398	0	0	0	0	
3	0	0	0	0	531	398	0	0	0	0	
4	0	0	0	0	528	396	0	0	0	0	
5	0	0	0	0	524	393	0	0	0	0	
6	0	0	0	0	518	388	0	0	0	0	
7	0	0	0	0	512	382	0	0	0	0	
8	0	0	0	0	504	375	0	0	0	0	
9	0	0	0	0	496	368	0	0	0	0	
10	0	0	0	0	488	361	0	0	0	0	
11	0	0	0	0	482	354	0	0	0	0	
12	0	0	0	0	477	350	0	0	0	0	
13	0	0	0	0	474	345	0	0	0	0	
14	0	0	0	0	473	344	0	0	0	0	
15	0	0	0	0	475	344	0	0	0	0	
0	0	0	0	0	478	347	0	0	0	0	
1	0	0	0	0	484	352	0	0	0	0	
2	0	0	0	0	492	358	0	0	0	0	
3	0	0	0	0	502	367	0	0	0	0	
4	0	0	0	0	513	376	0	0	0	0	
5	0	0	0	0	526	387	0	0	0	0	
6	0	0	0	0	539	400	0	0	0	0	
7	0	0	0	0	552	412	0	0	0	0	
8	0	0	0	0	565	424	0	0	0	0	
9	0	0	0	0	576	435	0	0	0	0	
10	0	0	0	0	584	444	0	0	0	0	
11	0	0	0	0	590	450	0	0	0	0	
12	0	0	0	0	591	452	0	0	0	0	
13	0	0	0	0	588	450	0	0	0	0	
14	0	0	0	0	579	444	0	0	0	0	
15	0	0	0	0	568	435	0	0	0	0	
0	0	0	0	0	554	423	0	0	0	0	
1	0	0	0	0	537	409	0	0	0	0	
2	0	0	0	0	519	394	0	0	0	0	
3	0	0	0	0	502	379	0	0	0	0	
4	0	0	0	0	486	364	0	0	0	0	
5	0	0	0	0	472	352	0	0	0	0	
6	0	0	0	0	463	342	0	0	0	0	
7	0	0	0	0	457	336	0	0	0	0	
8	0	0	0	0	457	335	0	0	0	0	
9	0	0	0	0	461	337	0	0	0	0	
10	0	0	0	0	469	343	0	0	0	0	
11	0	0	0	0	480	352	0	0	0	0	
12	0	0	0	0	494	363	0	0	0	0	
13	0	0	0	0	507	374	0	0	0	0	
14	0	0	0	0	521	386	0	0	0	0	
15	0	0	0	0	533	396	0	0	0	0	
0	0	0	0	0	541	404	0	0	0	0	
1	0	0	0	0	546	409	0	0	0	0	
2	0	0	0	0	547	412	0	0	0	0	
3	0	0	0	0	544	409	0	0	0	0	
4	0	0	0	0	536	404	0	0	0	0	
5	0	0	0	0	526	395	0	0	0	0	
6	0	0	0	0	514	385	0	0	0	0	
7	0	0	0	0	502	375	0	0	0	0	
8	0	0	0	0	492	366	0	0	0	0	
9	0	0	0	0	485	359	0	0	0	0	
10	0	0	0	0	481	356	0	0	0	0	
11	0	0	0	0	482	356	0	0	0	0	
12	0	0	0	0	486	359	0	0	0	0	
13	0	0	0	0	494	366	0	0	0	0	
14	0	0	0	0	504	374	0	0	0	0	
15	0	0	0	0	515	383	0	0	0	0	
0	0	0	0	0	525	392	0	0	0	0	
1	0	0	0	0	535	401	0	0	0	0	
2	0	0	0	0	543	408	0	0	0	0	
3	0	0	0	0	550	415	0	0	0	0	
4	0	0	0	0	554	419	0	0	0	0	
5	0	0	0	0	557	422	0	0	0	0	
6	0	0	0	0	556	423	0	0	0	0	
7	0	0	0	0	555	423	0	0	0	0	
8	0	0	0	0	552	420	0	0	0	0	
9	0	0	0	0	547	416	0	0	0	0	
10	0	0	0	0	541	411	0	0	0	0	
11	0	0	0	0	535	406	0	0	0	0	
12	0	0	0	0	529	399	0	0	0	0	
13	0	0	0	0	524	394	0	0	0	0	
14	0	0	0	0	518	389	0	0	0	0	
15	0	0	0	0	513	384	0	0	0	0	
0	0	0	0	0	509	379	0	0	0	0	
1	0	0	0	0	506	375	0	0	0	0	
2	0	0	0	0	503	372	0	0	0	0	
3	0	0	0	0	500	369	0	0	0	0	
4	0	0	0	0	499	368	0	0	0	0	
5	0	0	0	0	499	368	0	0	0	0	
6	0	0	0	0	499	368	0	0	0	0	
7	0	0	0	0	500	370	0	0	0	0	
8	0	0	0	0	503	372	0	0	0	0	
9	0	0	0	0	504	375	0	0	0	0	
10	0	0	0	0	507	378	0	0	0	0	
11	0	0	0	0	510	381	0	0	0	0	
12	0	0	0	0	513	385	0	0	0	0	
13	0	0	0	0	516	387	0	0	0	0	
14	0	0	0	0	519	389	0	0	0	0	
15	0	0	0	0	520	390	0	0	0	0	
0	0	0	0	0	521	391	0	0	0	0	
1	0	0	0	0	520	390	0	0	0	0	
2	0	0	0	0	519	389	0	0	0	0	
3	0	0	0	0	518	387	0	0	0	0	
4	0	0	0	0	516	386	0	0	0	0	
5	0	0	0	0	515	384	0	0	0	0	
6	0	0	0	0	514	384	0	0	0	0	
7	0	0	0	0	513	383	0	0	0	0	
8	0	0	0	0	513	383	0	0	0	0	
9	0	0	0	0	513	384	0	0	0	0	
10	0	0	0	0	515	385	0	0	0	0	
11	0	0	0	0	517	387	0	0	0	0	
12	0	0	0	0	519	390	0	0	0	0	
13	0	0	0	0	523	393	0	0	0	0	
14	0	0	0	0	526	397	0	0	0	0	
15	0	0	0	0	529	400	0	0	0	0	
0	0	0	0	0	532	405	0	0	0	0	
1	0	0	0	0	536	408	0	0	0	0	
2	0	0	0	0	539	412	0	0	0	0	
3	0	0	0	0	542	416	0	0	0	0	
4	0	0	0	0	545	418	0	0	0	0	
5	0	0	0	0	546	419	0	0	0	0	
6	0	0	0	0	546	419	0	0	0	0	
7	0	0	0	0	544	417	0	0	0	0	
8	0	0	0	0	540	413	0	0	0	0	
9	0	0	0	0	536	408	0	0	0	0	
10	0	0	0	0	529	402	0	0	0	0	
11	0	0	0	0	521	394	0	0	0	0	
12	0	0	0	0	513	386	0	0	0	0	
13	0	0	0	0	504	378	0	0	0	0	
14	0	0	0	0	497	371	0	0	0	0	
15	0	0	0	0	491	366	0	0	0	0	
0	0	0	0	0	486	360	0	0	0	0	
1	0	0	0	0	482	357	0	0	0	0	
2	0	0	0	0	480	354	0	0	0	0	
3	0	0	0	0	479	353	0	0	0	0	
4	0	0	0	0	479	353	0	0	0	0	
5	0	0	0	0	481	354	0	0	0	0	
6	0	0	0	0	485	358	0	0	0	0	
7	0	0	0	0	490	361	0	0	0	0	
8	0	0	0	0	497	367	0	0	0	0	
9	0	0	0	0	506	374	0	0	0	0	
10	0	0	0	0	515	383	0	0	0	0	
11	0	0	0	0	527	392	0	0	0	0	
12	0	0	0	0	538	403	0	0	0	0	
13	0	0	0	0	549	412	0	0	0	0	
14	0	0	0	0	559	422	0	0	0	0	
15	0	0	0	0	568	430	0	0	0	0	
0	0	0	0	0	573	437	0	0	0	0	
1	0	0	0	0	576	441	0	0	0	0	
2	0	0	0	0	576	443	0	0	0	0	
3	0	0	0	0	574	442	0	0	0	0	
4	0	0	0	0	568	439	0	0	0	0	
5	0	0	0	0	560	433	0	0	0	0	
6	0	0	0	0	549	424	0	0	0	0	
7	0	0	0	0	537	414	0	0	0	0	
8	0	0	0	0	523	402	0	0	0	0	
9	0	0	0	0	508	389	0	0	0	0	
10	0	0	0	0	494	376	0	0	0	0	
11	0	0	0	0	481	364	0	0	0	0	
12	0	0	0	0	471	355	0	0	0	0	
13	0	0	0	0	463	347	0	0	0	0	
14	0	0	0	0	458	342	0	0	0	0	
15	0	0	0	0	456	339	0	0	0	0	
0	0	0	0	0	458	340	0	0	0	0	
1	0	0	0	0	463	343	0	0	0	0	
2	0	0	0	0	470	348	0	0	0	0	
3	0	0	0	0	480	356	0	0	0	0	
4	0	0	0	0	491	365	0	0	0	0	
5	0	0	0	0	503	375	0	0	0	0	
6	0	0	0	0	513	384	0	0	0	0	
7	0	0	0	0	523	393	0	0	0	0	
8	0	0	0	0	531	401	0	0	0	0	
9	0	0	0	0	536	406	0	0	0	0	
10	0	0	0	0	540	409	0	0	0	0	
11	0	0	0	0	540	410	0	0	0	0	
12	0	0	0	0	539	409	0	0	0	0	
13	0	0	0	0	536	406	0	0	0	0	
14	0	0	0	0	531	402	0	0	0	0	
15	0	0	0	0	526	398	0	0	0	0	
0	0	0	0	0	521	393	0	0	0	0	
1	0	0	0	0	517	390	0	0	0	0	
2	0	0	0	0	514	387	0	0	0	0	
3	0	0	0	0	512	386	0	0	0	0	
4	0	0	0	0	513	386	0	0	0	0	
5	0	0	0	0	515	388	0	0	0	0	
6	0	0	0	0	519	392	0	0	0	0	
7	0	0	0	0	525	396	0	0	0	0	
8	0	0	0	0	531	401	0	0	0	0	
9	0	0	0	0	538	407	0	0	0	0	
10	0	0	0	0	543	412	0	0	0	0	
11	0	0	0	0	549	417	0	0	0	0	
12	0	0	0	0	553	420	0	0	0	0	
13	0	0	0	0	556	423	0	0	0	0	
14	0	0	0	0	557	423	0	0	0	0	
15	0	0	0	0	557	423	0	0	0	0	
0	0	0	0	0	556	423	0	0	0	0	
1	0	0	0	0	554	421	0	0	0	0	
2	0	0	0	0	551	419	0	0	0	0	
3	0	0	0	0	549	418	0	0	0	0	
4	0	0	0	0	547	418	0	0	0	0	
5	0	0	0	0	547	418	0	0	0	0	
6	0	0	0	0	547	419	0	0	0	0	
7	0	0	0	0	548	421	0	0	0	0	
8	0	0	0	0	550	423	0	0	0	0	
9	0	0	0	0	552	425	0	0	0	0	
10	0	0	0	0	552	425	0	0	0	0	
11	0	0	0	0	551	424	0	0	0	0	
12	0	0	0	0	548	421	0	0	0	0	
13	0	0	0	0	543	417	0	0	0	0	
14	0	0	0	0	536	411	0	0	0	0	
15	0	0	0	0	529	406	0	0	0	0	
0	0	0	0	0	523	400	0	0	0	0	
1	0	0	0	0	516	394	0	0	0	0	
2	0	0	0	0	511	390	0	0	0	0	
3	0	0	0	0	507	387	0	0	0	0	
4	0	0	0	0	504	384	0	0	0	0	
5	0	0	0	0	502	382	0	0	0	0	
6	0	0	0	0	499	379	0	0	0	0	
7	0	0	0	0	496	376	0	0	0	0	
8	0	0	0	0	494	371	0	0	0	0	
9	0	0	0	0	489	367	0	0	0	0	
10	0	0	0	0	484	361	0	0	0	0	
11	0	0	0	0	479	356	0	0	0	0	
12	0	0	0	0	474	352	0	0	0	0	
13	0	0	0	0	471	348	0	0	0	0	
14	0	0	0	0	469	347	0	0	0	0	
15	0	0	0	0	469	347	0	0	0	0	
0	0	0	0	0	472	350	0	0	0	0	
1	0	0	0	0	478	355	0	0	0	0	
2	0	0	0	0	486	363	0	0	0	0	
3	0	0	0	0	496	372	0	0	0	0	
4	0	0	0	0	507	382	0	0	0	0	
5	0	0	0	0	518	392	0	0	0	0	
6	0	0	0	0	528	402	0	0	0	0	
7	0	0	0	0	539	410	0	0	0	0	
8	0	0	0	0	547	417	0	0	0	0	
9	0	0	0	0	552	422	0	0	0	0	
10	0	0	0	0	556	425	0	0	0	0	
11	0	0	0	0	557	426	0	0	0	0	
12	0	0	0	0	556	425	0	0	0	0	
13	0	0	0	0	553	423	0	0	0	0	
14	0	0	0	0	549	420	0	0	0	0	
15	0	0	0	0	544	416	0	0	0	0	
0	0	0	0	0	539	412	0	0	0	0	
1	0	0	0	0	534	408	0	0	0	0	
2	0	0	0	0	529	404	0	0	0	0	
3	0	0	0	0	526	401	0	0	0	0	
4	0	0	0	0	523	399	0	0	0	0	
5	0	0	0	0	519	398	0	0	0	0	
6	0	0	0	0	519	397	0	0	0	0	
7	0	0	0	0	518	396	0	0	0	0	
8	0	0	0	0	518	396	0	0	0	0	
9	0	0	0	0	517	396	0	0	0	0	
10	0	0	0	0	518	397	0	0	0	0	
11	0	0	0	0	520	398	0	0	0	0	
12	0	0	0	0	522	400	0	0	0	0	
13	0	0	0	0	525	403	0	0	0	0	
14	0	0	0	0	529	406	0	0	0	0	
15	0	0	0	0	533	410	0	0	0	0	
0	0	0	0	0	539	414	0	0	0	0	
1	0	0	0	0	543	418	0	0	0	0	
2	0	0	0	0	547	422	0	0	0	0	
3	0	0	0	0	551	424	0	0	0	0	
4	0	0	0	0	554	427	0	0	0	0	
5	0	0	0	0	556	430	0	0	0	0	
6	0	0	0	0	558	432	0	0	0	0	
7	0	0	0	0	558	432	0	0	0	0	
8	0	0	0	0	556	432	0	0	0	0	
9	0	0	0	0	552	430	0	0	0	0	
10	0	0	0	0	546	426	0	0	0	0	
11	0	0	0	0	539	421	0	0	0	0	
12	0	0	0	0	530	415	0	0	0	0	
13	0	0	0	0	521	408	0	0	0	0	
14	0	0	0	0	512	400	0	0	0	0	
15	0	0	0	0	504	392	0	0	0	0	
0	0	0	0	0	495	385	0	0	0	0	
1	0	0	0	0	487	377	0	0	0	0	
2	0	0	0	0	481	370	0	0	0	0	
3	0	0	0	0	476	364	0	0	0	0	
4	0	0	0	0	474	359	0	0	0	0	
5	0	0	0	0	474	356	0	0	0	0	
6	0	0	0	0	476	355	0	0	0	0	
7	0	0	0	0	479	356	0	0	0	0	
8	0	0	0	0	484	359	0	0	0	0	
9	0	0	0	0	492	363	0	0	0	0	
10	0	0	0	0	500	370	0	0	0	0	
11	0	0	0	0	509	378	0	0	0	0	
12	0	0	0	0	518	385	0	0	0	0	
13	0	0	0	0	524	392	0	0	0	0	
14	0	0	0	0	530	398	0	0	0	0	
15	0	0	0	0	532	401	0	0	0	0	
0	0	0	0	0	532	403	0	0	0	0	
1	0	0	0	0	530	402	0	0	0	0	
2	0	0	0	0	525	400	0	0	0	0	
3	0	0	0	0	519	396	0	0	0	0	
4	0	0	0	0	512	391	0	0	0	0	
5	0	0	0	0	505	385	0	0	0	0	
6	0	0	0	0	498	379	0	0	0	0	
7	0	0	0	0	492	374	0	0	0	0	
8	0	0	0	0	487	370	0	0	0	0	
9	0	0	0	0	485	368	0	0	0	0	
10	0	0	0	0	485	367	0	0	0	0	
11	0	0	0	0	487	369	0	0	0	0	
12	0	0	0	0	493	374	0	0	0	0	
13	0	0	0	0	502	381	0	0	0	0	
14	0	0	0	0	511	388	0	0	0	0	
15	0	0	0	0	521	398	0	0	0	0	
0	0	0	0	0	532	406	0	0	0	0	
1	0	0	0	0	540	415	0	0	0	0	
2	0	0	0	0	548	422	0	0	0	0	
3	0	0	0	0	553	427	0	0	0	0	
4	0	0	0	0	555	430	0	0	0	0	
5	0	0	0	0	555	431	0	0	0	0	
6	0	0	0	0	551	430	0	0	0	0	
7	0	0	0	0	547	427	0	0	0	0	
8	0	0	0	0	542	424	0	0	0	0	
9	0	0	0	0	536	420	0	0	0	0	
10	0	0	0	0	531	416	0	0	0	0	
11	0	0	0	0	527	413	0	0	0	0	
12	0	0	0	0	526	412	0	0	0	0	
13	0	0	0	0	526	411	0	0	0	0	
14	0	0	0	0	529	413	0	0	0	0	
15	0	0	0	0	534	415	0	0	0	0	
0	0	0	0	0	540	420	0	0	0	0	
1	0	0	0	0	548	426	0	0	0	0	
2	0	0	0	0	557	432	0	0	0	0	
3	0	0	0	0	565	438	0	0	0	0	
4	0	0	0	0	572	443	0	0	0	0	
5	0	0	0	0	576	447	0	0	0	0	
6	0	0	0	0	578	448	0	0	0	0	
7	0	0	0	0	577	448	0	0	0	0	
8	0	0	0	0	573	445	0	0	0	0	
9	0	0	0	0	566	440	0	0	0	0	
10	0	0	0	0	558	434	0	0	0	0	
11	0	0	0	0	548	427	0	0	0	0	
12	0	0	0	0	539	419	0	0	0	0	
13	0	0	0	0	529	412	0	0	0	0	
14	0	0	0	0	521	407	0	0	0	0	
15	0	0	0	0	516	402	0	0	0	0	
0	0	0	0	0	512	400	0	0	0	0	
1	0	0	0	0	512	399	0	0	0	0	
2	0	0	0	0	514	401	0	0	0	0	
3	0	0	0	0	518	404	0	0	0	0	
4	0	0	0	0	525	409	0	0	0	0	
5	0	0	0	0	531	414	0	0	0	0	
6	0	0	0	0	538	419	0	0	0	0	
7	0	0	0	0	544	423	0	0	0	0	
8	0	0	0	0	550	427	0	0	0	0	
9	0	0	0	0	553	430	0	0	0	0	
10	0	0	0	0	555	431	0	0	0	0	
11	0	0	0	0	553	430	0	0	0	0	
12	0	0	0	0	549	427	0	0	0	0	
13	0	0	0	0	540	420	0	0	0	0	
14	0	0	0	0	528	410	0	0	0	0	
15	0	0	0	0	511	396	0	0	0	0	
0	0	0	0	0	491	379	0	0	0	0	
1	0	0	0	0	467	359	0	0	0	0	
2	0	0	0	0	442	337	0	0	0	0	
3	0	0	0	0	417	315	0	0	0	0	
4	0	0	0	0	392	292	0	0	0	0	
5	0	0	0	0	369	271	0	0	0	0	
6	0	0	0	0	349	251	0	0	0	0	
7	0	0	0	0	332	234	0	0	0	0	
8	0	0	0	0	319	220	0	0	0	0	
9	0	0	0	0	310	210	0	0	0	0	
10	0	0	0	0	306	204	0	0	0	0	
11	0	0	0	0	307	202	0	0	0	0	
12	0	0	0	0	312	203	0	0	0	0	
13	0	0	0	0	319	207	0	0	0	0	
14	0	0	0	0	328	212	0	0	0	0	
15	0	0	0	0	339	219	0	0	0	0	
0	0	0	0	0	350	227	0	0	0	0	
1	0	0	0	0	360	235	0	0	0	0	
2	0	0	0	0	371	243	0	0	0	0	
3	0	0	0	0	381	252	0	0	0	0	
4	0	0	0	0	391	262	0	0	0	0	
5	0	0	0	0	403	273	0	0	0	0	
6	0	0	0	0	416	286	0	0	0	0	
7	0	0	0	0	432	300	0	0	0	0	
8	0	0	0	0	448	317	0	0	0	0	
9	0	0	0	0	467	335	0	0	0	0	
10	0	0	0	0	486	355	0	0	0	0	
11	0	0	0	0	505	374	0	0	0	0	
12	0	0	0	0	524	393	0	0	0	0	
13	0	0	0	0	540	410	0	0	0	0	
14	0	0	0	0	554	425	0	0	0	0	
15	0	0	0	0	564	438	0	0	0	0	
0	0	0	0	0	572	447	0	0	0	0	
1	0	0	0	0	575	452	0	0	0	0	
2	0	0	0	0	574	454	0	0	0	0	
3	0	0	0	0	569	451	0	0	0	0	
4	0	0	0	0	560	444	0	0	0	0	
5	0	0	0	0	547	434	0	0	0	0	
6	0	0	0	0	532	422	0	0	0	0	
7	0	0	0	0	517	409	0	0	0	0	
8	0	0	0	0	502	396	0	0	0	0	
9	0	0	0	0	488	384	0	0	0	0	
10	0	0	0	0	476	374	0	0	0	0	
11	0	0	0	0	468	366	0	0	0	0	
12	0	0	0	0	464	362	0	0	0	0	
13	0	0	0	0	463	361	0	0	0	0	
14	0	0	0	0	467	364	0	0	0	0	
15	0	0	0	0	474	370	0	0	0	0	
0	0	0	0	0	485	379	0	0	0	0	
1	0	0	0	0	498	390	0	0	0	0	
2	0	0	0	0	512	401	0	0	0	0	
3	0	0	0	0	527	413	0	0	0	0	
4	0	0	0	0	540	425	0	0	0	0	
5	0	0	0	0	552	435	0	0	0	0	
6	0	0	0	0	562	442	0	0	0	0	
7	0	0	0	0	568	448	0	0	0	0	
8	0	0	0	0	572	451	0	0	0	0	
9	0	0	0	0	572	452	0	0	0	0	
10	0	0	0	0	570	451	0	0	0	0	
11	0	0	0	0	566	449	0	0	0	0	
12	0	0	0	0	560	445	0	0	0	0	
13	0	0	0	0	554	441	0	0	0	0	
14	0	0	0	0	547	437	0	0	0	0	
15	0	0	0	0	541	433	0	0	0	0	
0	0	0	0	0	536	430	0	0	0	0	
1	0	0	0	0	532	428	0	0	0	0	
2	0	0	0	0	529	425	0	0	0	0	
3	0	0	0	0	527	424	0	0	0	0	
4	0	0	0	0	527	424	0	0	0	0	
5	0	0	0	0	529	425	0	0	0	0	
6	0	0	0	0	531	427	0	0	0	0	
7	0	0	0	0	535	429	0	0	0	0	
8	0	0	0	0	539	432	0	0	0	0	
9	0	0	0	0	542	434	0	0	0	0	
10	0	0	0	0	546	436	0	0	0	0	
11	0	0	0	0	548	438	0	0	0	0	
12	0	0	0	0	551	439	0	0	0	0	
13	0	0	0	0	551	439	0	0	0	0	
14	0	0	0	0	551	439	0	0	0	0	
15	0	0	0	0	551	438	0	0	0	0	
0	0	0	0	0	550	437	0	0	0	0	
1	0	0	0	0	548	435	0	0	0	0	
2	0	0	0	0	546	434	0	0	0	0	
3	0	0	0	0	544	432	0	0	0	0	
4	0	0	0	0	543	431	0	0	0	0	
5	0	0	0	0	543	431	0	0	0	0	
6	0	0	0	0	543	431	0	0	0	0	
7	0	0	0	0	543	432	0	0	0	0	
8	0	0	0	0	545	434	0	0	0	0	
9	0	0	0	0	547	437	0	0	0	0	
10	0	0	0	0	550	440	0	0	0	0	
11	0	0	0	0	552	444	0	0	0	0	
12	0	0	0	0	555	447	0	0	0	0	
13	0	0	0	0	556	449	0	0	0	0	
14	0	0	0	0	557	451	0	0	0	0	
15	0	0	0	0	556	451	0	0	0	0	
0	0	0	0	0	552	448	0	0	0	0	
1	0	0	0	0	547	444	0	0	0	0	
2	0	0	0	0	539	438	0	0	0	0	
3	0	0	0	0	531	430	0	0	0	0	
4	0	0	0	0	522	422	0	0	0	0	
5	0	0	0	0	513	413	0	0	0	0	
6	0	0	0	0	507	406	0	0	0	0	
7	0	0	0	0	501	401	0	0	0	0	
8	0	0	0	0	499	398	0	0	0	0	
9	0	0	0	0	500	398	0	0	0	0	
10	0	0	0	0	504	401	0	0	0	0	
11	0	0	0	0	511	406	0	0	0	0	
12	0	0	0	0	521	415	0	0	0	0	
13	0	0	0	0	534	426	0	0	0	0	
14	0	0	0	0	547	438	0	0	0	0	
15	0	0	0	0	562	451	0	0	0	0	
0	0	0	0	0	575	465	0	0	0	0	
1	0	0	0	0	588	478	0	0	0	0	
2	0	0	0	0	600	489	0	0	0	0	
3	0	0	0	0	609	499	0	0	0	0	
4	0	0	0	0	615	505	0	0	0	0	
5	0	0	0	0	618	509	0	0	0	0	
6	0	0	0	0	617	510	0	0	0	0	
7	0	0	0	0	614	507	0	0	0	0	
8	0	0	0	0	607	502	0	0	0	0	
9	0	0	0	0	598	495	0	0	0	0	
10	0	0	0	0	587	486	0	0	0	0	
11	0	0	0	0	576	476	0	0	0	0	
12	0	0	0	0	564	466	0	0	0	0	
13	0	0	0	0	553	456	0	0	0	0	
14	0	0	0	0	543	447	0	0	0	0	
15	0	0	0	0	536	440	0	0	0	0	
0	0	0	0	0	530	434	0	0	0	0	
1	0	0	0	0	527	431	0	0	0	0	
2	0	0	0	0	527	429	0	0	0	0	
3	0	0	0	0	528	430	0	0	0	0	
4	0	0	0	0	531	431	0	0	0	0	
5	0	0	0	0	535	434	0	0	0	0	
6	0	0	0	0	540	437	0	0	0	0	
7	0	0	0	0	545	441	0	0	0	0	
8	0	0	0	0	550	444	0	0	0	0	
9	0	0	0	0	553	448	0	0	0	0	
10	0	0	0	0	556	449	0	0	0	0	
11	0	0	0	0	558	451	0	0	0	0	
12	0	0	0	0	559	451	0	0	0	0	
13	0	0	0	0	558	449	0	0	0	0	
14	0	0	0	0	556	448	0	0	0	0	
15	0	0	0	0	552	444	0	0	0	0	
0	0	0	0	0	548	441	0	0	0	0	
1	0	0	0	0	545	438	0	0	0	0	
2	0	0	0	0	542	435	0	0	0	0	
3	0	0	0	0	540	434	0	0	0	0	
4	0	0	0	0	539	433	0	0	0	0	
5	0	0	0	0	539	434	0	0	0	0	
6	0	0	0	0	540	435	0	0	0	0	
7	0	0	0	0	540	436	0	0	0	0	
8	0	0	0	0	540	437	0	0	0	0	
9	0	0	0	0	539	436	0	0	0	0	
10	0	0	0	0	536	434	0	0	0	0	
11	0	0	0	0	533	432	0	0	0	0	
12	0	0	0	0	528	428	0	0	0	0	
13	0	0	0	0	524	424	0	0	0	0	
14	0	0	0	0	519	420	0	0	0	0	
15	0	0	0	0	517	418	0	0	0	0	
0	0	0	0	0	514	415	0	0	0	0	
1	0	0	0	0	514	415	0	0	0	0	
2	0	0	0	0	514	414	0	0	0	0	
3	0	0	0	0	515	415	0	0	0	0	
4	0	0	0	0	517	415	0	0	0	0	
5	0	0	0	0	519	417	0	0	0	0	
6	0	0	0	0	522	419	0	0	0	0	
7	0	0	0	0	525	421	0	0	0	0	
8	0	0	0	0	528	424	0	0	0	0	
9	0	0	0	0	532	428	0	0	0	0	
10	0	0	0	0	537	432	0	0	0	0	
11	0	0	0	0	541	437	0	0	0	0	
12	0	0	0	0	546	441	0	0	0	0	
13	0	0	0	0	550	446	0	0	0	0	
14	0	0	0	0	555	451	0	0	0	0	
15	0	0	0	0	558	455	0	0	0	0	
0	0	0	0	0	561	457	0	0	0	0	
1	0	0	0	0	564	461	0	0	0	0	
2	0	0	0	0	567	463	0	0	0	0	
3	0	0	0	0	570	466	0	0	0	0	
4	0	0	0	0	572	467	0	0	0	0	
5	0	0	0	0	574	468	0	0	0	0	
6	0	0	0	0	574	468	0	0	0	0	
7	0	0	0	0	573	467	0	0	0	0	
8	0	0	0	0	571	464	0	0	0	0	
9	0	0	0	0	568	461	0	0	0	0	
10	0	0	0	0	563	457	0	0	0	0	
11	0	0	0	0	559	453	0	0	0	0	
12	0	0	0	0	555	449	0	0	0	0	
13	0	0	0	0	551	446	0	0	0	0	
14	0	0	0	0	548	445	0	0	0	0	
15	0	0	0	0	546	444	0	0	0	0	
0	0	0	0	0	545	444	0	0	0	0	
1	0	0	0	0	545	446	0	0	0	0	
2	0	0	0	0	546	447	0	0	0	0	
3	0	0	0	0	546	447	0	0	0	0	
4	0	0	0	0	545	447	0	0	0	0	
5	0	0	0	0	543	445	0	0	0	0	
6	0	0	0	0	541	443	0	0	0	0	
7	0	0	0	0	538	440	0	0	0	0	
8	0	0	0	0	535	436	0	0	0	0	
9	0	0	0	0	531	432	0	0	0	0	
10	0	0	0	0	528	429	0	0	0	0	
11	0	0	0	0	526	427	0	0	0	0	
12	0	0	0	0	525	425	0	0	0	0	
13	0	0	0	0	524	424	0	0	0	0	
14	0	0	0	0	525	425	0	0	0	0	
15	0	0	0	0	526	426	0	0	0	0	
0	0	0	0	0	527	428	0	0	0	0	
1	0	0	0	0	529	431	0	0	0	0	
2	0	0	0	0	532	434	0	0	0	0	
3	0	0	0	0	535	438	0	0	0	0	
4	0	0	0	0	538	441	0	0	0	0	
5	0	0	0	0	541	444	0	0	0	0	
6	0	0	0	0	544	447	0	0	0	0	
7	0	0	0	0	547	449	0	0	0	0	
8	0	0	0	0	549	452	0	0	0	0	
9	0	0	0	0	551	453	0	0	0	0	
10	0	0	0	0	552	455	0	0	0	0	
11	0	0	0	0	553	454	0	0	0	0	
12	0	0	0	0	552	453	0	0	0	0	
13	0	0	0	0	550	451	0	0	0	0	
14	0	0	0	0	547	446	0	0	0	0	
15	0	0	0	0	541	441	0	0	0	0	
0	0	0	0	0	536	435	0	0	0	0	
1	0	0	0	0	529	429	0	0	0	0	
2	0	0	0	0	523	423	0	0	0	0	
3	0	0	0	0	516	418	0	0	0	0	
4	0	0	0	0	511	414	0	0	0	0	
5	0	0	0	0	508	411	0	0	0	0	
6	0	0	0	0	506	411	0	0	0	0	
7	0	0	0	0	507	412	0	0	0	0	
8	0	0	0	0	509	414	0	0	0	0	
9	0	0	0	0	512	417	0	0	0	0	
10	0	0	0	0	518	422	0	0	0	0	
11	0	0	0	0	524	427	0	0	0	0	
12	0	0	0	0	529	432	0	0	0	0	
13	0	0	0	0	535	436	0	0	0	0	
14	0	0	0	0	540	441	0	0	0	0	
15	0	0	0	0	545	445	0	0	0	0	
0	0	0	0	0	549	449	0	0	0	0	
1	0	0	0	0	552	452	0	0	0	0	
2	0	0	0	0	555	455	0	0	0	0	
3	0	0	0	0	558	458	0	0	0	0	
4	0	0	0	0	561	461	0	0	0	0	
5	0	0	0	0	563	464	0	0	0	0	
6	0	0	0	0	564	465	0	0	0	0	
7	0	0	0	0	564	465	0	0	0	0	
8	0	0	0	0	563	464	0	0	0	0	
9	0	0	0	0	561	463	0	0	0	0	
10	0	0	0	0	559	461	0	0	0	0	
11	0	0	0	0	556	459	0	0	0	0	
12	0	0	0	0	552	456	0	0	0	0	
13	0	0	0	0	550	454	0	0	0	0	
14	0	0	0	0	547	453	0	0	0	0	
15	0	0	0	0	545	451	0	0	0	0	
0	0	0	0	0	543	451	0	0	0	0	
1	0	0	0	0	542	450	0	0	0	0	
2	0	0	0	0	540	448	0	0	0	0	
3	0	0	0	0	539	447	0	0	0	0	
4	0	0	0	0	538	445	0	0	0	0	
5	0	0	0	0	537	444	0	0	0	0	
6	0	0	0	0	536	442	0	0	0	0	
7	0	0	0	0	535	441	0	0	0	0	
8	0	0	0	0	536	440	0	0	0	0	
9	0	0	0	0	537	441	0	0	0	0	
10	0	0	0	0	538	441	0	0	0	0	
11	0	0	0	0	540	443	0	0	0	0	
12	0	0	0	0	543	445	0	0	0	0	
13	0	0	0	0	546	447	0	0	0	0	
14	0	0	0	0	548	449	0	0	0	0	
15	0	0	0	0	551	452	0	0	0	0	
0	0	0	0	0	553	454	0	0	0	0	
1	0	0	0	0	554	455	0	0	0	0	
2	0	0	0	0	554	456	0	0	0	0	
3	0	0	0	0	553	455	0	0	0	0	
4	0	0	0	0	550	454	0	0	0	0	
5	0	0	0	0	546	451	0	0	0	0	
6	0	0	0	0	543	448	0	0	0	0	
7	0	0	0	0	538	445	0	0	0	0	
8	0	0	0	0	535	442	0	0	0	0	
9	0	0	0	0	532	440	0	0	0	0	
10	0	0	0	0	530	439	0	0	0	0	
11	0	0	0	0	531	439	0	0	0	0	
12	0	0	0	0	533	441	0	0	0	0	
13	0	0	0	0	537	444	0	0	0	0	
14	0	0	0	0	543	449	0	0	0	0	
15	0	0	0	0	550	455	0	0	0	0	
0	0	0	0	0	558	462	0	0	0	0	
1	0	0	0	0	565	468	0	0	0	0	
2	0	0	0	0	572	474	0	0	0	0	
3	0	0	0	0	576	478	0	0	0	0	
4	0	0	0	0	579	480	0	0	0	0	
5	0	0	0	0	579	481	0	0	0	0	
6	0	0	0	0	576	479	0	0	0	0	
7	0	0	0	0	572	476	0	0	0	0	
8	0	0	0	0	564	470	0	0	0	0	
9	0	0	0	0	556	463	0	0	0	0	
10	0	0	0	0	546	456	0	0	0	0	
11	0	0	0	0	536	448	0	0	0	0	
12	0	0	0	0	527	441	0	0	0	0	
13	0	0	0	0	518	433	0	0	0	0	
14	0	0	0	0	510	427	0	0	0	0	
15	0	0	0	0	504	421	0	0	0	0	
0	0	0	0	0	500	416	0	0	0	0	
1	0	0	0	0	499	414	0	0	0	0	
2	0	0	0	0	499	412	0	0	0	0	
3	0	0	0	0	501	412	0	0	0	0	
4	0	0	0	0	505	415	0	0	0	0	
5	0	0	0	0	511	418	0	0	0	0	
6	0	0	0	0	517	422	0	0	0	0	
7	0	0	0	0	524	427	0	0	0	0	
8	0	0	0	0	531	432	0	0	0	0	
9	0	0	0	0	537	438	0	0	0	0	
10	0	0	0	0	543	443	0	0	0	0	
11	0	0	0	0	548	448	0	0	0	0	
12	0	0	0	0	551	451	0	0	0	0	
13	0	0	0	0	553	454	0	0	0	0	
14	0	0	0	0	553	455	0	0	0	0	
15	0	0	0	0	553	455	0	0	0	0	
0	0	0	0	0	552	455	0	0	0	0	
1	0	0	0	0	551	455	0	0	0	0	
2	0	0	0	0	551	455	0	0	0	0	
3	0	0	0	0	551	455	0	0	0	0	
4	0	0	0	0	553	457	0	0	0	0	
5	0	0	0	0	556	460	0	0	0	0	
6	0	0	0	0	560	464	0	0	0	0	
7	0	0	0	0	566	468	0	0	0	0	
8	0	0	0	0	571	473	0	0	0	0	
9	0	0	0	0	577	479	0	0	0	0	
10	0	0	0	0	582	484	0	0	0	0	
11	0	0	0	0	587	489	0	0	0	0	
12	0	0	0	0	590	494	0	0	0	0	
13	0	0	0	0	594	498	0	0	0	0	
14	0	0	0	0	596	501	0	0	0	0	
15	0	0	0	0	597	503	0	0	0	0	
0	0	0	0	0	597	504	0	0	0	0	
1	0	0	0	0	595	504	0	0	0	0	
2	0	0	0	0	593	503	0	0	0	0	
3	0	0	0	0	590	500	0	0	0	0	
4	0	0	0	0	585	496	0	0	0	0	
5	0	0	0	0	580	491	0	0	0	0	
6	0	0	0	0	575	486	0	0	0	0	
7	0	0	0	0	570	481	0	0	0	0	
8	0	0	0	0	566	476	0	0	0	0	
9	0	0	0	0	562	472	0	0	0	0	
10	0	0	0	0	559	469	0	0	0	0	
11	0	0	0	0	557	466	0	0	0	0	
12	0	0	0	0	556	465	0	0	0	0	
13	0	0	0	0	555	464	0	0	0	0	
14	0	0	0	0	555	465	0	0	0	0	
15	0	0	0	0	556	465	0	0	0	0	
0	0	0	0	0	556	467	0	0	0	0	
1	0	0	0	0	558	469	0	0	0	0	
2	0	0	0	0	560	471	0	0	0	0	
3	0	0	0	0	560	472	0	0	0	0	
4	0	0	0	0	560	472	0	0	0	0	
5	0	0	0	0	560	472	0	0	0	0	
6	0	0	0	0	559	471	0	0	0	0	
7	0	0	0	0	557	470	0	0	0	0	
8	0	0	0	0	555	467	0	0	0	0	
9	0	0	0	0	551	464	0	0	0	0	
10	0	0	0	0	549	461	0	0	0	0	
11	0	0	0	0	546	459	0	0	0	0	
12	0	0	0	0	544	456	0	0	0	0	
13	0	0	0	0	543	455	0	0	0	0	
14	0	0	0	0	543	454	0	0	0	0	
15	0	0	0	0	544	454	0	0	0	0	
0	0	0	0	0	547	455	0	0	0	0	
1	0	0	0	0	550	458	0	0	0	0	
2	0	0	0	0	554	462	0	0	0	0	
3	0	0	0	0	559	466	0	0	0	0	
4	0	0	0	0	564	471	0	0	0	0	
5	0	0	0	0	572	477	0	0	0	0	
6	0	0	0	0	579	483	0	0	0	0	
7	0	0	0	0	586	491	0	0	0	0	
8	0	0	0	0	593	497	0	0	0	0	
9	0	0	0	0	599	504	0	0	0	0	
10	0	0	0	0	604	508	0	0	0	0	
11	0	0	0	0	606	510	0	0	0	0	
12	0	0	0	0	606	510	0	0	0	0	
13	0	0	0	0	601	506	0	0	0	0	
14	0	0	0	0	593	499	0	0	0	0	
15	0	0	0	0	582	488	0	0	0	0	
0	0	0	0	0	567	476	0	0	0	0	
1	0	0	0	0	551	462	0	0	0	0	
2	0	0	0	0	535	448	0	0	0	0	
3	0	0	0	0	519	435	0	0	0	0	
4	0	0	0	0	507	425	0	0	0	0	
5	0	0	0	0	498	417	0	0	0	0	
6	0	0	0	0	492	412	0	0	0	0	
7	0	0	0	0	491	411	0	0	0	0	
8	0	0	0	0	494	414	0	0	0	0	
9	0	0	0	0	501	420	0	0	0	0	
10	0	0	0	0	512	430	0	0	0	0	
11	0	0	0	0	525	441	0	0	0	0	
12	0	0	0	0	540	453	0	0	0	0	
13	0	0	0	0	555	465	0	0	0	0	
14	0	0	0	0	568	476	0	0	0	0	
15	0	0	0	0	579	485	0	0	0	0	
0	0	0	0	0	588	492	0	0	0	0	
1	0	0	0	0	592	495	0	0	0	0	
2	0	0	0	0	593	495	0	0	0	0	
3	0	0	0	0	590	492	0	0	0	0	
4	0	0	0	0	583	486	0	0	0	0	
5	0	0	0	0	574	478	0	0	0	0	
6	0	0	0	0	562	468	0	0	0	0	
7	0	0	0	0	549	457	0	0	0	0	
8	0	0	0	0	536	448	0	0	0	0	
9	0	0	0	0	525	439	0	0	0	0	
10	0	0	0	0	515	432	0	0	0	0	
11	0	0	0	0	508	426	0	0	0	0	
12	0	0	0	0	503	423	0	0	0	0	
13	0	0	0	0	501	421	0	0	0	0	
14	0	0	0	0	503	422	0	0	0	0	
15	0	0	0	0	508	426	0	0	0	0	
0	0	0	0	0	515	431	0	0	0	0	
1	0	0	0	0	524	439	0	0	0	0	
2	0	0	0	0	534	446	0	0	0	0	
3	0	0	0	0	545	455	0	0	0	0	
4	0	0	0	0	556	463	0	0	0	0	
5	0	0	0	0	564	470	0	0	0	0	
6	0	0	0	0	572	476	0	0	0	0	
7	0	0	0	0	577	480	0	0	0	0	
8	0	0	0	0	581	483	0	0	0	0	
9	0	0	0	0	583	485	0	0	0	0	
10	0	0	0	0	583	486	0	0	0	0	
11	0	0	0	0	583	486	0	0	0	0	
12	0	0	0	0	581	485	0	0	0	0	
13	0	0	0	0	580	485	0	0	0	0	
14	0	0	0	0	578	484	0	0	0	0	
15	0	0	0	0	576	484	0	0	0	0	
0	0	0	0	0	574	483	0	0	0	0	
1	0	0	0	0	574	484	0	0	0	0	
2	0	0	0	0	572	484	0	0	0	0	
3	0	0	0	0	572	484	0	0	0	0	
4	0	0	0	0	571	484	0	0	0	0	
5	0	0	0	0	571	485	0	0	0	0	
6	0	0	0	0	571	485	0	0	0	0	
7	0	0	0	0	571	484	0	0	0	0	
8	0	0	0	0	569	483	0	0	0	0	
9	0	0	0	0	568	480	0	0	0	0	
10	0	0	0	0	564	476	0	0	0	0	
11	0	0	0	0	559	471	0	0	0	0	
12	0	0	0	0	554	465	0	0	0	0	
13	0	0	0	0	548	458	0	0	0	0	
14	0	0	0	0	541	451	0	0	0	0	
15	0	0	0	0	534	444	0	0	0	0	
0	0	0	0	0	528	438	0	0	0	0	
1	0	0	0	0	523	434	0	0	0	0	
2	0	0	0	0	521	432	0	0	0	0	
3	0	0	0	0	522	433	0	0	0	0	
4	0	0	0	0	526	437	0	0	0	0	
5	0	0	0	0	534	444	0	0	0	0	
6	0	0	0	0	543	454	0	0	0	0	
7	0	0	0	0	556	465	0	0	0	0	
8	0	0	0	0	570	478	0	0	0	0	
9	0	0	0	0	583	490	0	0	0	0	
10	0	0	0	0	595	500	0	0	0	0	
11	0	0	0	0	603	507	0	0	0	0	
12	0	0	0	0	606	509	0	0	0	0	
13	0	0	0	0	604	506	0	0	0	0	
14	0	0	0	0	596	500	0	0	0	0	
15	0	0	0	0	584	490	0	0	0	0	
0	0	0	0	0	569	478	0	0	0	0	
1	0	0	0	0	553	464	0	0	0	0	
2	0	0	0	0	537	452	0	0	0	0	
3	0	0	0	0	521	440	0	0	0	0	
4	0	0	0	0	511	432	0	0	0	0	
5	0	0	0	0	503	427	0	0	0	0	
6	0	0	0	0	499	425	0	0	0	0	
7	0	0	0	0	501	428	0	0	0	0	
8	0	0	0	0	507	433	0	0	0	0	
9	0	0	0	0	516	441	0	0	0	0	
10	0	0	0	0	527	450	0	0	0	0	
11	0	0	0	0	540	460	0	0	0	0	
12	0	0	0	0	551	468	0	0	0	0	
13	0	0	0	0	562	475	0	0	0	0	
14	0	0	0	0	571	481	0	0	0	0	
15	0	0	0	0	577	485	0	0	0	0	
0	0	0	0	0	581	487	0	0	0	0	
1	0	0	0	0	582	488	0	0	0	0	
2	0	0	0	0	581	487	0	0	0	0	
3	0	0	0	0	578	485	0	0	0	0	
4	0	0	0	0	573	483	0	0	0	0	
5	0	0	0	0	568	480	0	0	0	0	
6	0	0	0	0	563	478	0	0	0	0	
7	0	0	0	0	559	476	0	0	0	0	
8	0	0	0	0	557	476	0	0	0	0	
9	0	0	0	0	557	477	0	0	0	0	
10	0	0	0	0	558	479	0	0	0	0	
11	0	0	0	0	560	482	0	0	0	0	
12	0	0	0	0	563	485	0	0	0	0	
13	0	0	0	0	567	488	0	0	0	0	
14	0	0	0	0	571	491	0	0	0	0	
15	0	0	0	0	575	494	0	0	0	0	
0	0	0	0	0	579	496	0	0	0	0	
1	0	0	0	0	581	497	0	0	0	0	
2	0	0	0	0	582	496	0	0	0	0	
3	0	0	0	0	582	494	0	0	0	0	
4	0	0	0	0	579	491	0	0	0	0	
5	0	0	0	0	575	486	0	0	0	0	
6	0	0	0	0	568	479	0	0	0	0	
7	0	0	0	0	562	472	0	0	0	0	
8	0	0	0	0	555	465	0	0	0	0	
9	0	0	0	0	548	459	0	0	0	0	
10	0	0	0	0	542	453	0	0	0	0	
11	0	0	0	0	536	449	0	0	0	0	
12	0	0	0	0	532	446	0	0	0	0	
13	0	0	0	0	531	444	0	0	0	0	
14	0	0	0	0	531	445	0	0	0	0	
15	0	0	0	0	534	447	0	0	0	0	
0	0	0	0	0	538	451	0	0	0	0	
1	0	0	0	0	543	455	0	0	0	0	
2	0	0	0	0	548	460	0	0	0	0	
3	0	0	0	0	553	465	0	0	0	0	
4	0	0	0	0	558	470	0	0	0	0	
5	0	0	0	0	561	472	0	0	0	0	
6	0	0	0	0	563	475	0	0	0	0	
7	0	0	0	0	566	476	0	0	0	0	
8	0	0	0	0	567	477	0	0	0	0	
9	0	0	0	0	568	478	0	0	0	0	
10	0	0	0	0	568	479	0	0	0	0	
11	0	0	0	0	569	480	0	0	0	0	
12	0	0	0	0	571	482	0	0	0	0	
13	0	0	0	0	573	484	0	0	0	0	
14	0	0	0	0	575	486	0	0	0	0	
15	0	0	0	0	577	488	0	0	0	0	
0	0	0	0	0	579	489	0	0	0	0	
1	0	0	0	0	580	491	0	0	0	0	
2	0	0	0	0	580	491	0	0	0	0	
3	0	0	0	0	579	489	0	0	0	0	
4	0	0	0	0	576	487	0	0	0	0	
5	0	0	0	0	572	483	0	0	0	0	
6	0	0	0	0	567	477	0	0	0	0	
7	0	0	0	0	561	472	0	0	0	0	
8	0	0	0	0	554	465	0	0	0	0	
9	0	0	0	0	547	459	0	0	0	0	
10	0	0	0	0	542	455	0	0	0	0	
11	0	0	0	0	538	451	0	0	0	0	
12	0	0	0	0	536	450	0	0	0	0	
13	0	0	0	0	536	450	0	0	0	0	
14	0	0	0	0	538	451	0	0	0	0	
15	0	0	0	0	542	455	0	0	0	0	
0	0	0	0	0	548	459	0	0	0	0	
1	0	0	0	0	555	465	0	0	0	0	
2	0	0	0	0	563	471	0	0	0	0	
3	0	0	0	0	570	478	0	0	0	0	
4	0	0	0	0	577	484	0	0	0	0	
5	0	0	0	0	584	490	0	0	0	0	
6	0	0	0	0	589	495	0	0	0	0	
7	0	0	0	0	593	499	0	0	0	0	
8	0	0	0	0	595	502	0	0	0	0	
9	0	0	0	0	595	503	0	0	0	0	
10	0	0	0	0	594	502	0	0	0	0	
11	0	0	0	0	590	500	0	0	0	0	
12	0	0	0	0	585	497	0	0	0	0	
13	0	0	0	0	578	492	0	0	0	0	
14	0	0	0	0	569	487	0	0	0	0	
15	0	0	0	0	562	481	0	0	0	0	
0	0	0	0	0	555	475	0	0	0	0	
1	0	0	0	0	547	469	0	0	0	0	
2	0	0	0	0	541	463	0	0	0	0	
3	0	0	0	0	536	458	0	0	0	0	
4	0	0	0	0	532	453	0	0	0	0	
5	0	0	0	0	528	448	0	0	0	0	
6	0	0	0	0	525	444	0	0	0	0	
7	0	0	0	0	524	441	0	0	0	0	
8	0	0	0	0	523	438	0	0	0	0	
9	0	0	0	0	524	438	0	0	0	0	
10	0	0	0	0	525	438	0	0	0	0	
11	0	0	0	0	527	440	0	0	0	0	
12	0	0	0	0	530	442	0	0	0	0	
13	0	0	0	0	532	444	0	0	0	0	
14	0	0	0	0	535	447	0	0	0	0	
15	0	0	0	0	537	448	0	0	0	0	
0	0	0	0	0	539	450	0	0	0	0	
1	0	0	0	0	540	451	0	0	0	0	
2	0	0	0	0	540	451	0	0	0	0	
3	0	0	0	0	541	452	0	0	0	0	
4	0	0	0	0	541	452	0	0	0	0	
5	0	0	0	0	542	453	0	0	0	0	
6	0	0	0	0	542	454	0	0	0	0	
7	0	0	0	0	543	455	0	0	0	0	
8	0	0	0	0	544	457	0	0	0	0	
9	0	0	0	0	546	460	0	0	0	0	
10	0	0	0	0	548	462	0	0	0	0	
11	0	0	0	0	550	465	0	0	0	0	
12	0	0	0	0	551	468	0	0	0	0	
13	0	0	0	0	554	470	0	0	0	0	
14	0	0	0	0	555	471	0	0	0	0	
15	0	0	0	0	556	472	0	0	0	0	
0	0	0	0	0	555	471	0	0	0	0	
1	0	0	0	0	554	470	0	0	0	0	
2	0	0	0	0	552	468	0	0	0	0	
3	0	0	0	0	551	466	0	0	0	0	
4	0	0	0	0	549	464	0	0	0	0	
5	0	0	0	0	547	462	0	0	0	0	
6	0	0	0	0	545	461	0	0	0	0	
7	0	0	0	0	544	459	0	0	0	0	
8	0	0	0	0	543	458	0	0	0	0	
9	0	0	0	0	543	457	0	0	0	0	
10	0	0	0	0	543	457	0	0	0	0	
11	0	0	0	0	543	458	0	0	0	0	
12	0	0	0	0	545	459	0	0	0	0	
13	0	0	0	0	547	461	0	0	0	0	
14	0	0	0	0	549	462	0	0	0	0	
15	0	0	0	0	551	464	0	0	0	0	
0	0	0	0	0	555	467	0	0	0	0	
1	0	0	0	0	558	471	0	0	0	0	
2	0	0	0	0	563	476	0	0	0	0	
3	0	0	0	0	568	480	0	0	0	0	
4	0	0	0	0	573	485	0	0	0	0	
5	0	0	0	0	578	490	0	0	0	0	
6	0	0	0	0	583	495	0	0	0	0	
7	0	0	0	0	588	499	0	0	0	0	
8	0	0	0	0	591	502	0	0	0	0	
9	0	0	0	0	593	503	0	0	0	0	
10	0	0	0	0	593	503	0	0	0	0	
11	0	0	0	0	591	500	0	0	0	0	
12	0	0	0	0	586	496	0	0	0	0	
13	0	0	0	0	579	490	0	0	0	0	
14	0	0	0	0	571	483	0	0	0	0	
15	0	0	0	0	560	474	0	0	0	0	
0	0	0	0	0	551	466	0	0	0	0	
1	0	0	0	0	542	459	0	0	0	0	
2	0	0	0	0	534	452	0	0	0	0	
3	0	0	0	0	527	447	0	0	0	0	
4	0	0	0	0	523	444	0	0	0	0	
5	0	0	0	0	521	443	0	0	0	0	
6	0	0	0	0	522	444	0	0	0	0	
7	0	0	0	0	525	446	0	0	0	0	
8	0	0	0	0	529	449	0	0	0	0	
9	0	0	0	0	535	454	0	0	0	0	
10	0	0	0	0	542	459	0	0	0	0	
11	0	0	0	0	549	465	0	0	0	0	
12	0	0	0	0	555	470	0	0	0	0	
13	0	0	0	0	561	474	0	0	0	0	
14	0	0	0	0	565	478	0	0	0	0	
15	0	0	0	0	569	481	0	0	0	0	
0	0	0	0	0	572	483	0	0	0	0	
1	0	0	0	0	574	485	0	0	0	0	
2	0	0	0	0	575	486	0	0	0	0	
3	0	0	0	0	575	487	0	0	0	0	
4	0	0	0	0	575	489	0	0	0	0	
5	0	0	0	0	576	490	0	0	0	0	
6	0	0	0	0	576	491	0	0	0	0	
7	0	0	0	0	576	492	0	0	0	0	
8	0	0	0	0	575	492	0	0	0	0	
9	0	0	0	0	575	491	0	0	0	0	
10	0	0	0	0	573	490	0	0	0	0	
11	0	0	0	0	572	489	0	0	0	0	
12	0	0	0	0	570	487	0	0	0	0	
13	0	0	0	0	568	486	0	0	0	0	
14	0	0	0	0	568	484	0	0	0	0	
15	0	0	0	0	568	484	0	0	0	0	
0	0	0	0	0	568	484	0	0	0	0	
1	0	0	0	0	571	485	0	0	0	0	
2	0	0	0	0	572	485	0	0	0	0	
3	0	0	0	0	573	485	0	0	0	0	
4	0	0	0	0	573	484	0	0	0	0	
5	0	0	0	0	572	483	0	0	0	0	
6	0	0	0	0	571	481	0	0	0	0	
7	0	0	0	0	567	478	0	0	0	0	
8	0	0	0	0	564	475	0	0	0	0	
9	0	0	0	0	559	471	0	0	0	0	
10	0	0	0	0	554	467	0	0	0	0	
11	0	0	0	0	548	463	0	0	0	0	
12	0	0	0	0	543	460	0	0	0	0	
13	0	0	0	0	540	457	0	0	0	0	
14	0	0	0	0	536	455	0	0	0	0	
15	0	0	0	0	533	454	0	0	0	0	
0	0	0	0	0	532	453	0	0	0	0	
1	0	0	0	0	531	453	0	0	0	0	
2	0	0	0	0	531	453	0	0	0	0	
3	0	0	0	0	530	453	0	0	0	0	
4	0	0	0	0	530	452	0	0	0	0	
5	0	0	0	0	528	451	0	0	0	0	
6	0	0	0	0	526	448	0	0	0	0	
7	0	0	0	0	520	442	0	0	0	0	
8	0	0	0	0	513	434	0	0	0	0	
9	0	0	0	0	503	423	0	0	0	0	
10	0	0	0	0	491	411	0	0	0	0	
11	0	0	0	0	476	397	0	0	0	0	
12	0	0	0	0	460	382	0	0	0	0	
13	0	0	0	0	444	366	0	0	0	0	
14	0	0	0	0	428	350	0	0	0	0	
15	0	0	0	0	412	335	0	0	0	0	
0	0	0	0	0	397	321	0	0	0	0	
1	0	0	0	0	384	308	0	0	0	0	
2	0	0	0	0	373	297	0	0	0	0	
3	0	0	0	0	365	289	0	0	0	0	
4	0	0	0	0	358	283	0	0	0	0	
5	0	0	0	0	354	278	0	0	0	0	
6	0	0	0	0	352	276	0	0	0	0	
7	0	0	0	0	352	275	0	0	0	0	
8	0	0	0	0	355	276	0	0	0	0	
9	0	0	0	0	359	279	0	0	0	0	
10	0	0	0	0	366	284	0	0	0	0	
11	0	0	0	0	376	291	0	0	0	0	
12	0	0	0	0	388	300	0	0	0	0	
13	0	0	0	0	402	312	0	0	0	0	
14	0	0	0	0	419	326	0	0	0	0	
15	0	0	0	0	440	343	0	0	0	0	
0	0	0	0	0	462	361	0	0	0	0	
1	0	0	0	0	484	382	0	0	0	0	
2	0	0	0	0	508	403	0	0	0	0	
3	0	0	0	0	531	424	0	0	0	0	
4	0	0	0	0	553	445	0	0	0	0	
5	0	0	0	0	573	465	0	0	0	0	
6	0	0	0	0	590	483	0	0	0	0	
7	0	0	0	0	604	499	0	0	0	0	
8	0	0	0	0	614	512	0	0	0	0	
9	0	0	0	0	622	523	0	0	0	0	
10	0	0	0	0	627	531	0	0	0	0	
11	0	0	0	0	628	536	0	0	0	0	
12	0	0	0	0	626	537	0	0	0	0	
13	0	0	0	0	620	536	0	0	0	0	
14	0	0	0	0	613	531	0	0	0	0	
15	0	0	0	0	602	524	0	0	0	0	
0	0	0	0	0	591	514	0	0	0	0	
1	0	0	0	0	579	504	0	0	0	0	
2	0	0	0	0	568	494	0	0	0	0	
3	0	0	0	0	558	484	0	0	0	0	
4	0	0	0	0	549	476	0	0	0	0	
5	0	0	0	0	544	471	0	0	0	0	
6	0	0	0	0	542	467	0	0	0	0	
7	0	0	0	0	543	468	0	0	0	0	
8	0	0	0	0	547	471	0	0	0	0	
9	0	0	0	0	554	477	0	0	0	0	
10	0	0	0	0	563	484	0	0	0	0	
11	0	0	0	0	572	492	0	0	0	0	
12	0	0	0	0	582	500	0	0	0	0	
13	0	0	0	0	591	508	0	0	0	0	
14	0	0	0	0	600	515	0	0	0	0	
15	0	0	0	0	606	519	0	0	0	0	
0	0	0	0	0	609	523	0	0	0	0	
1	0	0	0	0	609	523	0	0	0	0	
2	0	0	0	0	607	520	0	0	0	0	
3	0	0	0	0	601	516	0	0	0	0	
4	0	0	0	0	593	509	0	0	0	0	
5	0	0	0	0	584	502	0	0	0	0	
6	0	0	0	0	574	494	0	0	0	0	
7	0	0	0	0	566	486	0	0	0	0	
8	0	0	0	0	557	479	0	0	0	0	
9	0	0	0	0	551	473	0	0	0	0	
10	0	0	0	0	547	469	0	0	0	0	
11	0	0	0	0	545	467	0	0	0	0	
12	0	0	0	0	546	467	0	0	0	0	
13	0	0	0	0	549	469	0	0	0	0	
14	0	0	0	0	553	472	0	0	0	0	
15	0	0	0	0	559	477	0	0	0	0	
0	0	0	0	0	565	482	0	0	0	0	
1	0	0	0	0	571	487	0	0	0	0	
2	0	0	0	0	577	493	0	0	0	0	
3	0	0	0	0	582	497	0	0	0	0	
4	0	0	0	0	585	499	0	0	0	0	
5	0	0	0	0	586	501	0	0	0	0	
6	0	0	0	0	586	501	0	0	0	0	
7	0	0	0	0	583	499	0	0	0	0	
8	0	0	0	0	580	496	0	0	0	0	
9	0	0	0	0	574	491	0	0	0	0	
10	0	0	0	0	568	485	0	0	0	0	
11	0	0	0	0	560	479	0	0	0	0	
12	0	0	0	0	554	472	0	0	0	0	
13	0	0	0	0	548	467	0	0	0	0	
14	0	0	0	0	543	462	0	0	0	0	
15	0	0	0	0	540	460	0	0	0	0	
0	0	0	0	0	540	460	0	0	0	0	
1	0	0	0	0	542	462	0	0	0	0	
2	0	0	0	0	547	466	0	0	0	0	
3	0	0	0	0	555	473	0	0	0	0	
4	0	0	0	0	564	482	0	0	0	0	
5	0	0	0	0	574	492	0	0	0	0	
6	0	0	0	0	585	502	0	0	0	0	
7	0	0	0	0	595	511	0	0	0	0	
8	0	0	0	0	605	520	0	0	0	0	
9	0	0	0	0	612	527	0	0	0	0	
10	0	0	0	0	617	532	0	0	0	0	
11	0	0	0	0	619	534	0	0	0	0	
12	0	0	0	0	618	533	0	0	0	0	
13	0	0	0	0	614	529	0	0	0	0	
14	0	0	0	0	607	523	0	0	0	0	
15	0	0	0	0	598	515	0	0	0	0	
0	0	0	0	0	588	507	0	0	0	0	
1	0	0	0	0	577	498	0	0	0	0	
2	0	0	0	0	568	489	0	0	0	0	
3	0	0	0	0	559	482	0	0	0	0	
4	0	0	0	0	552	476	0	0	0	0	
5	0	0	0	0	548	472	0	0	0	0	
6	0	0	0	0	545	470	0	0	0	0	
7	0	0	0	0	546	470	0	0	0	0	
8	0	0	0	0	547	472	0	0	0	0	
9	0	0	0	0	552	476	0	0	0	0	
10	0	0	0	0	559	481	0	0	0	0	
11	0	0	0	0	567	488	0	0	0	0	
12	0	0	0	0	575	495	0	0	0	0	
13	0	0	0	0	585	503	0	0	0	0	
14	0	0	0	0	593	510	0	0	0	0	
15	0	0	0	0	602	517	0	0	0	0	
0	0	0	0	0	608	522	0	0	0	0	
1	0	0	0	0	612	525	0	0	0	0	
2	0	0	0	0	615	527	0	0	0	0	
3	0	0	0	0	614	526	0	0	0	0	
4	0	0	0	0	611	524	0	0	0	0	
5	0	0	0	0	607	520	0	0	0	0	
6	0	0	0	0	601	515	0	0	0	0	
7	0	0	0	0	595	510	0	0	0	0	
8	0	0	0	0	588	505	0	0	0	0	
9	0	0	0	0	581	500	0	0	0	0	
10	0	0	0	0	575	495	0	0	0	0	
11	0	0	0	0	569	492	0	0	0	0	
12	0	0	0	0	564	488	0	0	0	0	
13	0	0	0	0	561	486	0	0	0	0	
14	0	0	0	0	559	485	0	0	0	0	
15	0	0	0	0	558	484	0	0	0	0	
0	0	0	0	0	558	485	0	0	0	0	
1	0	0	0	0	559	486	0	0	0	0	
2	0	0	0	0	560	487	0	0	0	0	
3	0	0	0	0	563	488	0	0	0	0	
4	0	0	0	0	566	490	0	0	0	0	
5	0	0	0	0	568	491	0	0	0	0	
6	0	0	0	0	571	492	0	0	0	0	
7	0	0	0	0	573	492	0	0	0	0	
8	0	0	0	0	575	493	0	0	0	0	
9	0	0	0	0	576	493	0	0	0	0	
10	0	0	0	0	577	493	0	0	0	0	
11	0	0	0	0	577	493	0	0	0	0	
12	0	0	0	0	577	493	0	0	0	0	
13	0	0	0	0	577	494	0	0	0	0	
14	0	0	0	0	577	494	0	0	0	0	
15	0	0	0	0	577	495	0	0	0	0	
0	0	0	0	0	576	494	0	0	0	0	
1	0	0	0	0	575	494	0	0	0	0	
2	0	0	0	0	573	494	0	0	0	0	
3	0	0	0	0	571	492	0	0	0	0	
4	0	0	0	0	568	490	0	0	0	0	
5	0	0	0	0	565	487	0	0	0	0	
6	0	0	0	0	561	484	0	0	0	0	
7	0	0	0	0	558	480	0	0	0	0	
8	0	0	0	0	554	477	0	0	0	0	
9	0	0	0	0	551	473	0	0	0	0	
10	0	0	0	0	548	470	0	0	0	0	
11	0	0	0	0	546	467	0	0	0	0	
12	0	0	0	0	545	466	0	0	0	0	
13	0	0	0	0	545	466	0	0	0	0	
14	0	0	0	0	547	467	0	0	0	0	
15	0	0	0	0	550	470	0	0	0	0	
0	0	0	0	0	555	475	0	0	0	0	
1	0	0	0	0	560	480	0	0	0	0	
2	0	0	0	0	568	487	0	0	0	0	
3	0	0	0	0	575	494	0	0	0	0	
4	0	0	0	0	582	500	0	0	0	0	
5	0	0	0	0	589	507	0	0	0	0	
6	0	0	0	0	595	513	0	0	0	0	
7	0	0	0	0	599	517	0	0	0	0	
8	0	0	0	0	601	519	0	0	0	0	
9	0	0	0	0	603	521	0	0	0	0	
10	0	0	0	0	602	521	0	0	0	0	
11	0	0	0	0	601	520	0	0	0	0	
12	0	0	0	0	598	518	0	0	0	0	
13	0	0	0	0	593	513	0	0	0	0	
14	0	0	0	0	588	508	0	0	0	0	
15	0	0	0	0	580	501	0	0	0	0	
0	0	0	0	0	572	493	0	0	0	0	
1	0	0	0	0	563	485	0	0	0	0	
2	0	0	0	0	553	477	0	0	0	0	
3	0	0	0	0	545	469	0	0	0	0	
4	0	0	0	0	538	462	0	0	0	0	
5	0	0	0	0	533	457	0	0	0	0	
6	0	0	0	0	529	454	0	0	0	0	
7	0	0	0	0	529	453	0	0	0	0	
8	0	0	0	0	530	453	0	0	0	0	
9	0	0	0	0	534	455	0	0	0	0	
10	0	0	0	0	539	459	0	0	0	0	
11	0	0	0	0	544	463	0	0	0	0	
12	0	0	0	0	550	467	0	0	0	0	
13	0	0	0	0	556	471	0	0	0	0	
14	0	0	0	0	560	475	0	0	0	0	
15	0	0	0	0	565	478	0	0	0	0	
0	0	0	0	0	568	480	0	0	0	0	
1	0	0	0	0	572	483	0	0	0	0	
2	0	0	0	0	574	486	0	0	0	0	
3	0	0	0	0	576	487	0	0	0	0	
4	0	0	0	0	577	489	0	0	0	0	
5	0	0	0	0	579	491	0	0	0	0	
6	0	0	0	0	579	493	0	0	0	0	
7	0	0	0	0	580	495	0	0	0	0	
8	0	0	0	0	580	496	0	0	0	0	
9	0	0	0	0	581	498	0	0	0	0	
10	0	0	0	0	581	499	0	0	0	0	
11	0	0	0	0	580	500	0	0	0	0	
12	0	0	0	0	579	499	0	0	0	0	
13	0	0	0	0	576	499	0	0	0	0	
14	0	0	0	0	575	498	0	0	0	0	
15	0	0	0	0	572	496	0	0	0	0	
0	0	0	0	0	570	495	0	0	0	0	
1	0	0	0	0	567	493	0	0	0	0	
2	0	0	0	0	564	490	0	0	0	0	
3	0	0	0	0	560	486	0	0	0	0	
4	0	0	0	0	555	481	0	0	0	0	
5	0	0	0	0	550	475	0	0	0	0	
6	0	0	0	0	544	469	0	0	0	0	
7	0	0	0	0	538	463	0	0	0	0	
8	0	0	0	0	534	459	0	0	0	0	
9	0	0	0	0	532	455	0	0	0	0	
10	0	0	0	0	531	454	0	0	0	0	
11	0	0	0	0	532	454	0	0	0	0	
12	0	0	0	0	534	455	0	0	0	0	
13	0	0	0	0	538	457	0	0	0	0	
14	0	0	0	0	543	461	0	0	0	0	
15	0	0	0	0	548	465	0	0	0	0	
0	0	0	0	0	553	470	0	0	0	0	
1	0	0	0	0	559	475	0	0	0	0	
2	0	0	0	0	564	480	0	0	0	0	
3	0	0	0	0	570	486	0	0	0	0	
4	0	0	0	0	574	491	0	0	0	0	
5	0	0	0	0	579	496	0	0	0	0	
6	0	0	0	0	583	501	0	0	0	0	
7	0	0	0	0	588	505	0	0	0	0	
8	0	0	0	0	591	510	0	0	0	0	
9	0	0	0	0	595	514	0	0	0	0	
10	0	0	0	0	597	516	0	0	0	0	
11	0	0	0	0	598	517	0	0	0	0	
12	0	0	0	0	597	516	0	0	0	0	
13	0	0	0	0	593	513	0	0	0	0	
14	0	0	0	0	588	507	0	0	0	0	
15	0	0	0	0	580	499	0	0	0	0	
0	0	0	0	0	571	491	0	0	0	0	
1	0	0	0	0	560	481	0	0	0	0	
2	0	0	0	0	551	472	0	0	0	0	
3	0	0	0	0	542	464	0	0	0	0	
4	0	0	0	0	535	458	0	0	0	0	
5	0	0	0	0	529	454	0	0	0	0	
6	0	0	0	0	527	452	0	0	0	0	
7	0	0	0	0	526	452	0	0	0	0	
8	0	0	0	0	527	453	0	0	0	0	
9	0	0	0	0	530	455	0	0	0	0	
10	0	0	0	0	533	459	0	0	0	0	
11	0	0	0	0	537	462	0	0	0	0	
12	0	0	0	0	542	465	0	0	0	0	
13	0	0	0	0	546	467	0	0	0	0	
14	0	0	0	0	550	469	0	0	0	0	
15	0	0	0	0	552	471	0	0	0	0	
0	0	0	0	0	553	472	0	0	0	0	
1	0	0	0	0	554	471	0	0	0	0	
2	0	0	0	0	554	471	0	0	0	0	
3	0	0	0	0	553	471	0	0	0	0	
4	0	0	0	0	552	470	0	0	0	0	
5	0	0	0	0	551	470	0	0	0	0	
6	0	0	0	0	550	469	0	0	0	0	
7	0	0	0	0	549	468	0	0	0	0	
8	0	0	0	0	547	467	0	0	0	0	
9	0	0	0	0	547	467	0	0	0	0	
10	0	0	0	0	547	467	0	0	0	0	
11	0	0	0	0	548	468	0	0	0	0	
12	0	0	0	0	549	469	0	0	0	0	
13	0	0	0	0	551	470	0	0	0	0	
14	0	0	0	0	554	473	0	0	0	0	
15	0	0	0	0	558	476	0	0	0	0	
0	0	0	0	0	561	479	0	0	0	0	
1	0	0	0	0	564	481	0	0	0	0	
2	0	0	0	0	568	484	0	0	0	0	
3	0	0	0	0	571	487	0	0	0	0	
4	0	0	0	0	575	489	0	0	0	0	
5	0	0	0	0	577	491	0	0	0	0	
6	0	0	0	0	579	493	0	0	0	0	
7	0	0	0	0	580	494	0	0	0	0	
8	0	0	0	0	580	495	0	0	0	0	
9	0	0	0	0	579	495	0	0	0	0	
10	0	0	0	0	577	494	0	0	0	0	
11	0	0	0	0	573	491	0	0	0	0	
12	0	0	0	0	568	488	0	0	0	0	
13	0	0	0	0	562	484	0	0	0	0	
14	0	0	0	0	557	481	0	0	0	0	
15	0	0	0	0	552	478	0	0	0	0	
0	0	0	0	0	548	476	0	0	0	0	
1	0	0	0	0	545	474	0	0	0	0	
2	0	0	0	0	544	473	0	0	0	0	
3	0	0	0	0	545	473	0	0	0	0	
4	0	0	0	0	547	475	0	0	0	0	
5	0	0	0	0	550	476	0	0	0	0	
6	0	0	0	0	553	478	0	0	0	0	
7	0	0	0	0	557	479	0	0	0	0	
8	0	0	0	0	561	480	0	0	0	0	
9	0	0	0	0	564	480	0	0	0	0	
10	0	0	0	0	566	480	0	0	0	0	
11	0	0	0	0	568	480	0	0	0	0	
12	0	0	0	0	568	480	0	0	0	0	
13	0	0	0	0	570	481	0	0	0	0	
14	0	0	0	0	571	483	0	0	0	0	
15	0	0	0	0	572	485	0	0	0	0	
0	0	0	0	0	574	488	0	0	0	0	
1	0	0	0	0	576	493	0	0	0	0	
2	0	0	0	0	579	499	0	0	0	0	
3	0	0	0	0	582	504	0	0	0	0	
4	0	0	0	0	584	508	0	0	0	0	
5	0	0	0	0	585	511	0	0	0	0	
6	0	0	0	0	585	513	0	0	0	0	
7	0	0	0	0	583	512	0	0	0	0	
8	0	0	0	0	580	510	0	0	0	0	
9	0	0	0	0	576	506	0	0	0	0	
10	0	0	0	0	572	501	0	0	0	0	
11	0	0	0	0	566	496	0	0	0	0	
12	0	0	0	0	562	490	0	0	0	0	
13	0	0	0	0	558	485	0	0	0	0	
14	0	0	0	0	554	480	0	0	0	0	
15	0	0	0	0	551	476	0	0	0	0	
0	0	0	0	0	550	472	0	0	0	0	
1	0	0	0	0	550	470	0	0	0	0	
2	0	0	0	0	550	470	0	0	0	0	
3	0	0	0	0	551	470	0	0	0	0	
4	0	0	0	0	555	471	0	0	0	0	
5	0	0	0	0	559	474	0	0	0	0	
6	0	0	0	0	563	478	0	0	0	0	
7	0	0	0	0	567	481	0	0	0	0	
8	0	0	0	0	572	485	0	0	0	0	
9	0	0	0	0	575	488	0	0	0	0	
10	0	0	0	0	577	491	0	0	0	0	
11	0	0	0	0	578	492	0	0	0	0	
12	0	0	0	0	577	492	0	0	0	0	
13	0	0	0	0	575	492	0	0	0	0	
14	0	0	0	0	572	489	0	0	0	0	
15	0	0	0	0	569	487	0	0	0	0	
0	0	0	0	0	564	483	0	0	0	0	
1	0	0	0	0	559	480	0	0	0	0	
2	0	0	0	0	554	476	0	0	0	0	
3	0	0	0	0	549	472	0	0	0	0	
4	0	0	0	0	544	468	0	0	0	0	
5	0	0	0	0	540	464	0	0	0	0	
6	0	0	0	0	537	462	0	0	0	0	
7	0	0	0	0	534	460	0	0	0	0	
8	0	0	0	0	533	460	0	0	0	0	
9	0	0	0	0	532	460	0	0	0	0	
10	0	0	0	0	533	460	0	0	0	0	
11	0	0	0	0	534	462	0	0	0	0	
12	0	0	0	0	535	463	0	0	0	0	
13	0	0	0	0	536	464	0	0	0	0	
14	0	0	0	0	538	465	0	0	0	0	
15	0	0	0	0	540	466	0	0	0	0	
0	0	0	0	0	543	468	0	0	0	0	
1	0	0	0	0	547	469	0	0	0	0	
2	0	0	0	0	551	472	0	0	0	0	
3	0	0	0	0	557	476	0	0	0	0	
4	0	0	0	0	564	481	0	0	0	0	
5	0	0	0	0	572	487	0	0	0	0	
6	0	0	0	0	581	495	0	0	0	0	
7	0	0	0	0	590	502	0	0	0	0	
8	0	0	0	0	598	509	0	0	0	0	
9	0	0	0	0	606	516	0	0	0	0	
10	0	0	0	0	612	523	0	0	0	0	
11	0	0	0	0	615	527	0	0	0	0	
12	0	0	0	0	615	528	0	0	0	0	
13	0	0	0	0	611	526	0	0	0	0	
14	0	0	0	0	604	522	0	0	0	0	
15	0	0	0	0	593	514	0	0	0	0	
0	0	0	0	0	580	504	0	0	0	0	
1	0	0	0	0	563	491	0	0	0	0	
2	0	0	0	0	547	478	0	0	0	0	
3	0	0	0	0	531	467	0	0	0	0	
4	0	0	0	0	518	456	0	0	0	0	
5	0	0	0	0	508	448	0	0	0	0	
6	0	0	0	0	503	444	0	0	0	0	
7	0	0	0	0	503	442	0	0	0	0	
8	0	0	0	0	508	444	0	0	0	0	
9	0	0	0	0	516	449	0	0	0	0	
10	0	0	0	0	529	457	0	0	0	0	
11	0	0	0	0	542	466	0	0	0	0	
12	0	0	0	0	556	475	0	0	0	0	
13	0	0	0	0	569	484	0	0	0	0	
14	0	0	0	0	579	492	0	0	0	0	
15	0	0	0	0	587	497	0	0	0	0	
0	0	0	0	0	591	501	0	0	0	0	
1	0	0	0	0	593	503	0	0	0	0	
2	0	0	0	0	591	504	0	0	0	0	
3	0	0	0	0	588	503	0	0	0	0	
4	0	0	0	0	582	500	0	0	0	0	
5	0	0	0	0	574	496	0	0	0	0	
6	0	0	0	0	565	491	0	0	0	0	
7	0	0	0	0	555	484	0	0	0	0	
8	0	0	0	0	545	477	0	0	0	0	
9	0	0	0	0	536	470	0	0	0	0	
10	0	0	0	0	528	463	0	0	0	0	
11	0	0	0	0	522	457	0	0	0	0	
12	0	0	0	0	519	452	0	0	0	0	
13	0	0	0	0	517	450	0	0	0	0	
14	0	0	0	0	518	449	0	0	0	0	
15	0	0	0	0	520	449	0	0	0	0	
0	0	0	0	0	524	451	0	0	0	0	
1	0	0	0	0	529	455	0	0	0	0	
2	0	0	0	0	534	459	0	0	0	0	
3	0	0	0	0	540	464	0	0	0	0	
4	0	0	0	0	546	469	0	0	0	0	
5	0	0	0	0	552	475	0	0	0	0	
6	0	0	0	0	558	480	0	0	0	0	
7	0	0	0	0	562	485	0	0	0	0	
8	0	0	0	0	566	489	0	0	0	0	
9	0	0	0	0	568	492	0	0	0	0	
10	0	0	0	0	570	494	0	0	0	0	
11	0	0	0	0	570	494	0	0	0	0	
12	0	0	0	0	569	493	0	0	0	0	
13	0	0	0	0	567	491	0	0	0	0	
14	0	0	0	0	563	487	0	0	0	0	
15	0	0	0	0	560	484	0	0	0	0	
0	0	0	0	0	556	480	0	0	0	0	
1	0	0	0	0	552	476	0	0	0	0	
2	0	0	0	0	549	472	0	0	0	0	
3	0	0	0	0	546	470	0	0	0	0	
4	0	0	0	0	546	470	0	0	0	0	
5	0	0	0	0	547	471	0	0	0	0	
6	0	0	0	0	549	472	0	0	0	0	
7	0	0	0	0	553	476	0	0	0	0	
8	0	0	0	0	557	479	0	0	0	0	
9	0	0	0	0	561	483	0	0	0	0	
10	0	0	0	0	563	486	0	0	0	0	
11	0	0	0	0	565	487	0	0	0	0	
12	0	0	0	0	565	487	0	0	0	0	
13	0	0	0	0	563	485	0	0	0	0	
14	0	0	0	0	560	482	0	0	0	0	
15	0	0	0	0	555	478	0	0	0	0	
0	0	0	0	0	549	473	0	0	0	0	
1	0	0	0	0	543	468	0	0	0	0	
2	0	0	0	0	539	464	0	0	0	0	
3	0	0	0	0	535	461	0	0	0	0	
4	0	0	0	0	531	458	0	0	0	0	
5	0	0	0	0	530	456	0	0	0	0	
6	0	0	0	0	529	455	0	0	0	0	
7	0	0	0	0	530	455	0	0	0	0	
8	0	0	0	0	532	457	0	0	0	0	
9	0	0	0	0	536	460	0	0	0	0	
10	0	0	0	0	540	464	0	0	0	0	
11	0	0	0	0	547	470	0	0	0	0	
12	0	0	0	0	553	475	0	0	0	0	
13	0	0	0	0	560	481	0	0	0	0	
14	0	0	0	0	566	487	0	0	0	0	
15	0	0	0	0	572	492	0	0	0	0	
0	0	0	0	0	576	496	0	0	0	0	
1	0	0	0	0	578	499	0	0	0	0	
2	0	0	0	0	579	500	0	0	0	0	
3	0	0	0	0	576	499	0	0	0	0	
4	0	0	0	0	573	496	0	0	0	0	
5	0	0	0	0	568	491	0	0	0	0	
6	0	0	0	0	561	485	0	0	0	0	
7	0	0	0	0	555	479	0	0	0	0	
8	0	0	0	0	548	473	0	0	0	0	
9	0	0	0	0	542	467	0	0	0	0	
10	0	0	0	0	536	462	0	0	0	0	
11	0	0	0	0	531	457	0	0	0	0	
12	0	0	0	0	528	455	0	0	0	0	
13	0	0	0	0	527	454	0	0	0	0	
14	0	0	0	0	527	454	0	0	0	0	
15	0	0	0	0	528	455	0	0	0	0	
0	0	0	0	0	531	457	0	0	0	0	
1	0	0	0	0	534	460	0	0	0	0	
2	0	0	0	0	539	464	0	0	0	0	
3	0	0	0	0	545	468	0	0	0	0	
4	0	0	0	0	551	473	0	0	0	0	
5	0	0	0	0	556	478	0	0	0	0	
6	0	0	0	0	562	483	0	0	0	0	
7	0	0	0	0	568	487	0	0	0	0	
8	0	0	0	0	573	491	0	0	0	0	
9	0	0	0	0	576	493	0	0	0	0	
10	0	0	0	0	577	494	0	0	0	0	
11	0	0	0	0	577	494	0	0	0	0	
12	0	0	0	0	575	491	0	0	0	0	
13	0	0	0	0	571	488	0	0	0	0	
14	0	0	0	0	564	483	0	0	0	0	
15	0	0	0	0	557	477	0	0	0	0	
0	0	0	0	0	550	472	0	0	0	0	
1	0	0	0	0	542	465	0	0	0	0	
2	0	0	0	0	534	460	0	0	0	0	
3	0	0	0	0	527	455	0	0	0	0	
4	0	0	0	0	522	452	0	0	0	0	
5	0	0	0	0	519	450	0	0	0	0	
6	0	0	0	0	519	449	0	0	0	0	
7	0	0	0	0	520	451	0	0	0	0	
8	0	0	0	0	523	454	0	0	0	0	
9	0	0	0	0	528	459	0	0	0	0	
10	0	0	0	0	535	465	0	0	0	0	
11	0	0	0	0	543	471	0	0	0	0	
12	0	0	0	0	552	478	0	0	0	0	
13	0	0	0	0	561	484	0	0	0	0	
14	0	0	0	0	569	491	0	0	0	0	
15	0	0	0	0	576	496	0	0	0	0	
0	0	0	0	0	583	502	0	0	0	0	
1	0	0	0	0	588	505	0	0	0	0	
2	0	0	0	0	591	507	0	0	0	0	
3	0	0	0	0	592	508	0	0	0	0	
4	0	0	0	0	590	507	0	0	0	0	
5	0	0	0	0	586	504	0	0	0	0	
6	0	0	0	0	580	500	0	0	0	0	
7	0	0	0	0	572	496	0	0	0	0	
8	0	0	0	0	564	491	0	0	0	0	
9	0	0	0	0	555	485	0	0	0	0	
10	0	0	0	0	547	480	0	0	0	0	
11	0	0	0	0	538	474	0	0	0	0	
12	0	0	0	0	531	468	0	0	0	0	
13	0	0	0	0	524	463	0	0	0	0	
14	0	0	0	0	517	457	0	0	0	0	
15	0	0	0	0	513	452	0	0	0	0	
0	0	0	0	0	511	449	0	0	0	0	
1	0	0	0	0	509	446	0	0	0	0	
2	0	0	0	0	510	445	0	0	0	0	
3	0	0	0	0	513	445	0	0	0	0	
4	0	0	0	0	516	446	0	0	0	0	
5	0	0	0	0	522	448	0	0	0	0	
6	0	0	0	0	527	451	0	0	0	0	
7	0	0	0	0	535	455	0	0	0	0	
8	0	0	0	0	541	460	0	0	0	0	
9	0	0	0	0	548	465	0	0	0	0	
10	0	0	0	0	555	470	0	0	0	0	
11	0	0	0	0	561	476	0	0	0	0	
12	0	0	0	0	567	483	0	0	0	0	
13	0	0	0	0	572	488	0	0	0	0	
14	0	0	0	0	576	494	0	0	0	0	
15	0	0	0	0	580	499	0	0	0	0	
0	0	0	0	0	583	504	0	0	0	0	
1	0	0	0	0	586	510	0	0	0	0	
2	0	0	0	0	588	514	0	0	0	0	
3	0	0	0	0	591	519	0	0	0	0	
4	0	0	0	0	593	522	0	0	0	0	
5	0	0	0	0	596	526	0	0	0	0	
6	0	0	0	0	597	527	0	0	0	0	
7	0	0	0	0	597	527	0	0	0	0	
8	0	0	0	0	595	524	0	0	0	0	
9	0	0	0	0	589	518	0	0	0	0	
10	0	0	0	0	579	508	0	0	0	0	
11	0	0	0	0	568	496	0	0	0	0	
12	0	0	0	0	553	482	0	0	0	0	
13	0	0	0	0	537	467	0	0	0	0	
14	0	0	0	0	520	451	0	0	0	0	
15	0	0	0	0	505	436	0	0	0	0	
0	0	0	0	0	490	422	0	0	0	0	
1	0	0	0	0	480	412	0	0	0	0	
2	0	0	0	0	473	406	0	0	0	0	
3	0	0	0	0	470	403	0	0	0	0	
4	0	0	0	0	472	405	0	0	0	0	
5	0	0	0	0	479	410	0	0	0	0	
6	0	0	0	0	489	419	0	0	0	0	
7	0	0	0	0	502	430	0	0	0	0	
8	0	0	0	0	516	442	0	0	0	0	
9	0	0	0	0	530	454	0	0	0	0	
10	0	0	0	0	543	465	0	0	0	0	
11	0	0	0	0	555	475	0	0	0	0	
12	0	0	0	0	565	483	0	0	0	0	
13	0	0	0	0	572	489	0	0	0	0	
14	0	0	0	0	577	493	0	0	0	0	
15	0	0	0	0	580	496	0	0	0	0	
0	0	0	0	0	581	497	0	0	0	0	
1	0	0	0	0	581	498	0	0	0	0	
2	0	0	0	0	579	498	0	0	0	0	
3	0	0	0	0	575	496	0	0	0	0	
4	0	0	0	0	570	493	0	0	0	0	
5	0	0	0	0	563	489	0	0	0	0	
6	0	0	0	0	557	484	0	0	0	0	
7	0	0	0	0	550	479	0	0	0	0	
8	0	0	0	0	543	473	0	0	0	0	
9	0	0	0	0	535	467	0	0	0	0	
10	0	0	0	0	527	460	0	0	0	0	
11	0	0	0	0	521	454	0	0	0	0	
12	0	0	0	0	516	448	0	0	0	0	
13	0	0	0	0	511	444	0	0	0	0	
14	0	0	0	0	509	440	0	0	0	0	
15	0	0	0	0	508	437	0	0	0	0	
0	0	0	0	0	508	435	0	0	0	0	
1	0	0	0	0	509	435	0	0	0	0	
2	0	0	0	0	511	435	0	0	0	0	
3	0	0	0	0	515	437	0	0	0	0	
4	0	0	0	0	519	440	0	0	0	0	
5	0	0	0	0	524	443	0	0	0	0	
6	0	0	0	0	529	448	0	0	0	0	
7	0	0	0	0	535	454	0	0	0	0	
8	0	0	0	0	542	460	0	0	0	0	
9	0	0	0	0	548	466	0	0	0	0	
10	0	0	0	0	554	473	0	0	0	0	
11	0	0	0	0	560	479	0	0	0	0	
12	0	0	0	0	563	483	0	0	0	0	
13	0	0	0	0	567	487	0	0	0	0	
14	0	0	0	0	567	488	0	0	0	0	
15	0	0	0	0	566	488	0	0	0	0	
0	0	0	0	0	563	486	0	0	0	0	
1	0	0	0	0	558	481	0	0	0	0	
2	0	0	0	0	551	475	0	0	0	0	
3	0	0	0	0	542	468	0	0	0	0	
4	0	0	0	0	534	461	0	0	0	0	
5	0	0	0	0	527	455	0	0	0	0	
6	0	0	0	0	521	449	0	0	0	0	
7	0	0	0	0	517	445	0	0	0	0	
8	0	0	0	0	515	444	0	0	0	0	
9	0	0	0	0	515	443	0	0	0	0	
10	0	0	0	0	515	443	0	0	0	0	
11	0	0	0	0	518	444	0	0	0	0	
12	0	0	0	0	521	447	0	0	0	0	
13	0	0	0	0	525	450	0	0	0	0	
14	0	0	0	0	530	454	0	0	0	0	
15	0	0	0	0	535	459	0	0	0	0	
0	0	0	0	0	540	463	0	0	0	0	
1	0	0	0	0	545	467	0	0	0	0	
2	0	0	0	0	549	471	0	0	0	0	
3	0	0	0	0	551	474	0	0	0	0	
4	0	0	0	0	552	476	0	0	0	0	
5	0	0	0	0	552	476	0	0	0	0	
6	0	0	0	0	551	476	0	0	0	0	
7	0	0	0	0	549	474	0	0	0	0	
8	0	0	0	0	547	473	0	0	0	0	
9	0	0	0	0	545	472	0	0	0	0	
10	0	0	0	0	543	470	0	0	0	0	
11	0	0	0	0	542	469	0	0	0	0	
12	0	0	0	0	542	469	0	0	0	0	
13	0	0	0	0	543	471	0	0	0	0	
14	0	0	0	0	546	473	0	0	0	0	
15	0	0	0	0	550	476	0	0	0	0	
0	0	0	0	0	553	479	0	0	0	0	
1	0	0	0	0	556	482	0	0	0	0	
2	0	0	0	0	559	484	0	0	0	0	
3	0	0	0	0	560	485	0	0	0	0	
4	0	0	0	0	560	484	0	0	0	0	
5	0	0	0	0	558	483	0	0	0	0	
6	0	0	0	0	555	480	0	0	0	0	
7	0	0	0	0	550	476	0	0	0	0	
8	0	0	0	0	544	471	0	0	0	0	
9	0	0	0	0	539	466	0	0	0	0	
10	0	0	0	0	534	462	0	0	0	0	
11	0	0	0	0	528	457	0	0	0	0	
12	0	0	0	0	524	455	0	0	0	0	
13	0	0	0	0	521	453	0	0	0	0	
14	0	0	0	0	520	452	0	0	0	0	
15	0	0	0	0	521	454	0	0	0	0	
0	0	0	0	0	524	456	0	0	0	0	
1	0	0	0	0	529	461	0	0	0	0	
2	0	0	0	0	536	467	0	0	0	0	
3	0	0	0	0	544	474	0	0	0	0	
4	0	0	0	0	553	481	0	0	0	0	
5	0	0	0	0	562	488	0	0	0	0	
6	0	0	0	0	571	496	0	0	0	0	
7	0	0	0	0	578	502	0	0	0	0	
8	0	0	0	0	584	507	0	0	0	0	
9	0	0	0	0	589	511	0	0	0	0	
10	0	0	0	0	590	512	0	0	0	0	
11	0	0	0	0	588	511	0	0	0	0	
12	0	0	0	0	584	507	0	0	0	0	
13	0	0	0	0	577	501	0	0	0	0	
14	0	0	0	0	566	492	0	0	0	0	
15	0	0	0	0	554	482	0	0	0	0	
0	0	0	0	0	542	472	0	0	0	0	
1	0	0	0	0	529	460	0	0	0	0	
2	0	0	0	0	517	451	0	0	0	0	
3	0	0	0	0	507	442	0	0	0	0	
4	0	0	0	0	500	436	0	0	0	0	
5	0	0	0	0	496	433	0	0	0	0	
6	0	0	0	0	497	434	0	0	0	0	
7	0	0	0	0	500	437	0	0	0	0	
8	0	0	0	0	507	443	0	0	0	0	
9	0	0	0	0	517	451	0	0	0	0	
10	0	0	0	0	529	461	0	0	0	0	
11	0	0	0	0	541	471	0	0	0	0	
12	0	0	0	0	552	480	0	0	0	0	
13	0	0	0	0	561	487	0	0	0	0	
14	0	0	0	0	567	492	0	0	0	0	
15	0	0	0	0	569	493	0	0	0	0	
0	0	0	0	0	568	491	0	0	0	0	
1	0	0	0	0	562	485	0	0	0	0	
2	0	0	0	0	554	478	0	0	0	0	
3	0	0	0	0	545	470	0	0	0	0	
4	0	0	0	0	536	461	0	0	0	0	
5	0	0	0	0	526	452	0	0	0	0	
6	0	0	0	0	517	446	0	0	0	0	
7	0	0	0	0	511	440	0	0	0	0	
8	0	0	0	0	506	436	0	0	0	0	
9	0	0	0	0	504	434	0	0	0	0	
10	0	0	0	0	504	435	0	0	0	0	
11	0	0	0	0	506	436	0	0	0	0	
12	0	0	0	0	509	439	0	0	0	0	
13	0	0	0	0	513	443	0	0	0	0	
14	0	0	0	0	517	446	0	0	0	0	
15	0	0	0	0	520	448	0	0	0	0	
0	0	0	0	0	522	449	0	0	0	0	
1	0	0	0	0	522	449	0	0	0	0	
2	0	0	0	0	519	447	0	0	0	0	
3	0	0	0	0	515	443	0	0	0	0	
4	0	0	0	0	508	435	0	0	0	0	
5	0	0	0	0	498	427	0	0	0	0	
6	0	0	0	0	487	415	0	0	0	0	
7	0	0	0	0	473	403	0	0	0	0	
8	0	0	0	0	458	389	0	0	0	0	
9	0	0	0	0	443	375	0	0	0	0	
10	0	0	0	0	427	360	0	0	0	0	
11	0	0	0	0	413	346	0	0	0	0	
12	0	0	0	0	399	333	0	0	0	0	
13	0	0	0	0	387	322	0	0	0	0	
14	0	0	0	0	377	312	0	0	0	0	
15	0	0	0	0	369	304	0	0	0	0	
0	0	0	0	0	363	298	0	0	0	0	
1	0	0	0	0	359	294	0	0	0	0	
2	0	0	0	0	358	291	0	0	0	0	
3	0	0	0	0	359	291	0	0	0	0	
4	0	0	0	0	360	292	0	0	0	0	
5	0	0	0	0	364	294	0	0	0	0	
6	0	0	0	0	369	297	0	0	0	0	
7	0	0	0	0	375	301	0	0	0	0	
8	0	0	0	0	382	306	0	0	0	0	
9	0	0	0	0	391	313	0	0	0	0	
10	0	0	0	0	400	320	0	0	0	0	
11	0	0	0	0	411	329	0	0	0	0	
12	0	0	0	0	423	340	0	0	0	0	
13	0	0	0	0	436	352	0	0	0	0	
14	0	0	0	0	450	365	0	0	0	0	
15	0	0	0	0	464	380	0	0	0	0	
0	0	0	0	0	479	395	0	0	0	0	
1	0	0	0	0	493	409	0	0	0	0	
2	0	0	0	0	508	425	0	0	0	0	
3	0	0	0	0	520	439	0	0	0	0	
4	0	0	0	0	532	451	0	0	0	0	
5	0	0	0	0	542	462	0	0	0	0	
6	0	0	0	0	550	472	0	0	0	0	
7	0	0	0	0	555	478	0	0	0	0	
8	0	0	0	0	558	483	0	0	0	0	
9	0	0	0	0	560	485	0	0	0	0	
10	0	0	0	0	558	485	0	0	0	0	
11	0	0	0	0	556	483	0	0	0	0	
12	0	0	0	0	551	479	0	0	0	0	
13	0	0	0	0	545	474	0	0	0	0	
14	0	0	0	0	539	468	0	0	0	0	
15	0	0	0	0	531	462	0	0	0	0	
0	0	0	0	0	526	457	0	0	0	0	
1	0	0	0	0	521	452	0	0	0	0	
2	0	0	0	0	518	449	0	0	0	0	
3	0	0	0	0	516	448	0	0	0	0	
4	0	0	0	0	516	448	0	0	0	0	
5	0	0	0	0	519	450	0	0	0	0	
6	0	0	0	0	523	453	0	0	0	0	
7	0	0	0	0	527	456	0	0	0	0	
8	0	0	0	0	531	460	0	0	0	0	
9	0	0	0	0	536	464	0	0	0	0	
10	0	0	0	0	541	469	0	0	0	0	
11	0	0	0	0	545	473	0	0	0	0	
12	0	0	0	0	550	477	0	0	0	0	
13	0	0	0	0	552	480	0	0	0	0	
14	0	0	0	0	554	481	0	0	0	0	
15	0	0	0	0	555	483	0	0	0	0	
0	0	0	0	0	555	483	0	0	0	0	
1	0	0	0	0	553	482	0	0	0	0	
2	0	0	0	0	551	480	0	0	0	0	
3	0	0	0	0	549	479	0	0	0	0	
4	0	0	0	0	547	476	0	0	0	0	
5	0	0	0	0	545	475	0	0	0	0	
6	0	0	0	0	543	473	0	0	0	0	
7	0	0	0	0	542	472	0	0	0	0	
8	0	0	0	0	542	472	0	0	0	0	
9	0	0	0	0	543	473	0	0	0	0	
10	0	0	0	0	545	476	0	0	0	0	
11	0	0	0	0	548	479	0	0	0	0	
12	0	0	0	0	552	483	0	0	0	0	
13	0	0	0	0	557	489	0	0	0	0	
14	0	0	0	0	563	494	0	0	0	0	
15	0	0	0	0	568	499	0	0	0	0	
0	0	0	0	0	573	504	0	0	0	0	
1	0	0	0	0	577	508	0	0	0	0	
2	0	0	0	0	580	511	0	0	0	0	
3	0	0	0	0	582	512	0	0	0	0	
4	0	0	0	0	582	512	0	0	0	0	
5	0	0	0	0	581	511	0	0	0	0	
6	0	0	0	0	578	509	0	0	0	0	
7	0	0	0	0	574	505	0	0	0	0	
8	0	0	0	0	569	500	0	0	0	0	
9	0	0	0	0	562	494	0	0	0	0	
10	0	0	0	0	555	487	0	0	0	0	
11	0	0	0	0	547	480	0	0	0	0	
12	0	0	0	0	540	474	0	0	0	0	
13	0	0	0	0	532	467	0	0	0	0	
14	0	0	0	0	526	462	0	0	0	0	
15	0	0	0	0	521	458	0	0	0	0	
0	0	0	0	0	519	456	0	0	0	0	
1	0	0	0	0	517	455	0	0	0	0	
2	0	0	0	0	518	456	0	0	0	0	
3	0	0	0	0	520	458	0	0	0	0	
4	0	0	0	0	523	461	0	0	0	0	
5	0	0	0	0	526	464	0	0	0	0	
6	0	0	0	0	530	467	0	0	0	0	
7	0	0	0	0	533	469	0	0	0	0	
8	0	0	0	0	536	470	0	0	0	0	
9	0	0	0	0	537	471	0	0	0	0	
10	0	0	0	0	539	471	0	0	0	0	
11	0	0	0	0	539	472	0	0	0	0	
12	0	0	0	0	540	472	0	0	0	0	
13	0	0	0	0	542	473	0	0	0	0	
14	0	0	0	0	544	476	0	0	0	0	
15	0	0	0	0	547	479	0	0	0	0	
0	0	0	0	0	551	482	0	0	0	0	
1	0	0	0	0	555	486	0	0	0	0	
2	0	0	0	0	558	489	0	0	0	0	
3	0	0	0	0	561	492	0	0	0	0	
4	0	0	0	0	562	494	0	0	0	0	
5	0	0	0	0	563	496	0	0	0	0	
6	0	0	0	0	562	496	0	0	0	0	
7	0	0	0	0	561	496	0	0	0	0	
8	0	0	0	0	558	494	0	0	0	0	
9	0	0	0	0	555	491	0	0	0	0	
10	0	0	0	0	551	488	0	0	0	0	
11	0	0	0	0	546	483	0	0	0	0	
12	0	0	0	0	541	479	0	0	0	0	
13	0	0	0	0	536	475	0	0	0	0	
14	0	0	0	0	532	470	0	0	0	0	
15	0	0	0	0	529	467	0	0	0	0	
0	0	0	0	0	528	465	0	0	0	0	
1	0	0	0	0	529	464	0	0	0	0	
2	0	0	0	0	531	466	0	0	0	0	
3	0	0	0	0	536	469	0	0	0	0	
4	0	0	0	0	543	473	0	0	0	0	
5	0	0	0	0	551	480	0	0	0	0	
6	0	0	0	0	558	486	0	0	0	0	
7	0	0	0	0	566	491	0	0	0	0	
8	0	0	0	0	572	496	0	0	0	0	
9	0	0	0	0	576	499	0	0	0	0	
10	0	0	0	0	577	500	0	0	0	0	
11	0	0	0	0	575	499	0	0	0	0	
12	0	0	0	0	571	495	0	0	0	0	
13	0	0	0	0	562	487	0	0	0	0	
14	0	0	0	0	552	479	0	0	0	0	
15	0	0	0	0	540	469	0	0	0	0	
0	0	0	0	0	527	459	0	0	0	0	
1	0	0	0	0	515	449	0	0	0	0	
2	0	0	0	0	505	440	0	0	0	0	
3	0	0	0	0	496	432	0	0	0	0	
4	0	0	0	0	489	426	0	0	0	0	
5	0	0	0	0	486	423	0	0	0	0	
6	0	0	0	0	485	421	0	0	0	0	
7	0	0	0	0	487	422	0	0	0	0	
8	0	0	0	0	491	424	0	0	0	0	
9	0	0	0	0	496	429	0	0	0	0	
10	0	0	0	0	504	435	0	0	0	0	
11	0	0	0	0	512	441	0	0	0	0	
12	0	0	0	0	521	449	0	0	0	0	
13	0	0	0	0	529	455	0	0	0	0	
14	0	0	0	0	537	463	0	0	0	0	
15	0	0	0	0	545	470	0	0	0	0	
0	0	0	0	0	553	477	0	0	0	0	
1	0	0	0	0	559	483	0	0	0	0	
2	0	0	0	0	565	488	0	0	0	0	
3	0	0	0	0	571	493	0	0	0	0	
4	0	0	0	0	575	497	0	0	0	0	
5	0	0	0	0	577	500	0	0	0	0	
6	0	0	0	0	578	501	0	0	0	0	
7	0	0	0	0	577	500	0	0	0	0	
8	0	0	0	0	575	499	0	0	0	0	
9	0	0	0	0	570	495	0	0	0	0	
10	0	0	0	0	564	491	0	0	0	0	
11	0	0	0	0	557	486	0	0	0	0	
12	0	0	0	0	549	480	0	0	0	0	
13	0	0	0	0	541	474	0	0	0	0	
14	0	0	0	0	534	469	0	0	0	0	
15	0	0	0	0	527	463	0	0	0	0	
0	0	0	0	0	520	459	0	0	0	0	
1	0	0	0	0	516	456	0	0	0	0	
2	0	0	0	0	514	455	0	0	0	0	
3	0	0	0	0	513	454	0	0	0	0	
4	0	0	0	0	515	454	0	0	0	0	
5	0	0	0	0	517	455	0	0	0	0	
6	0	0	0	0	521	457	0	0	0	0	
7	0	0	0	0	526	460	0	0	0	0	
8	0	0	0	0	531	463	0	0	0	0	
9	0	0	0	0	536	465	0	0	0	0	
10	0	0	0	0	541	468	0	0	0	0	
11	0	0	0	0	546	471	0	0	0	0	
12	0	0	0	0	551	474	0	0	0	0	
13	0	0	0	0	555	477	0	0	0	0	
14	0	0	0	0	558	479	0	0	0	0	
15	0	0	0	0	561	483	0	0	0	0	
0	0	0	0	0	563	486	0	0	0	0	
1	0	0	0	0	565	488	0	0	0	0	
2	0	0	0	0	565	490	0	0	0	0	
3	0	0	0	0	565	492	0	0	0	0	
4	0	0	0	0	563	492	0	0	0	0	
5	0	0	0	0	561	493	0	0	0	0	
6	0	0	0	0	560	493	0	0	0	0	
7	0	0	0	0	558	493	0	0	0	0	
8	0	0	0	0	556	493	0	0	0	0	
9	0	0	0	0	555	493	0	0	0	0	
10	0	0	0	0	556	493	0	0	0	0	
11	0	0	0	0	556	493	0	0	0	0	
12	0	0	0	0	556	492	0	0	0	0	
13	0	0	0	0	555	490	0	0	0	0	
14	0	0	0	0	553	487	0	0	0	0	
15	0	0	0	0	550	483	0	0	0	0	
0	0	0	0	0	545	478	0	0	0	0	
1	0	0	0	0	539	472	0	0	0	0	
2	0	0	0	0	532	464	0	0	0	0	
3	0	0	0	0	524	458	0	0	0	0	
4	0	0	0	0	517	451	0	0	0	0	
5	0	0	0	0	510	444	0	0	0	0	
6	0	0	0	0	504	439	0	0	0	0	
7	0	0	0	0	499	435	0	0	0	0	
8	0	0	0	0	496	432	0	0	0	0	
9	0	0	0	0	495	433	0	0	0	0	
10	0	0	0	0	496	434	0	0	0	0	
11	0	0	0	0	498	437	0	0	0	0	
12	0	0	0	0	502	441	0	0	0	0	
13	0	0	0	0	507	445	0	0	0	0	
14	0	0	0	0	512	449	0	0	0	0	
15	0	0	0	0	518	454	0	0	0	0	
0	0	0	0	0	522	456	0	0	0	0	
1	0	0	0	0	526	459	0	0	0	0	
2	0	0	0	0	528	459	0	0	0	0	
3	0	0	0	0	529	459	0	0	0	0	
4	0	0	0	0	531	459	0	0	0	0	
5	0	0	0	0	530	457	0	0	0	0	
6	0	0	0	0	529	455	0	0	0	0	
7	0	0	0	0	527	454	0	0	0	0	
8	0	0	0	0	525	452	0	0	0	0	
9	0	0	0	0	523	451	0	0	0	0	
10	0	0	0	0	521	450	0	0	0	0	
11	0	0	0	0	519	449	0	0	0	0	
12	0	0	0	0	518	449	0	0	0	0	
13	0	0	0	0	516	449	0	0	0	0	
14	0	0	0	0	515	449	0	0	0	0	
15	0	0	0	0	515	450	0	0	0	0	
0	0	0	0	0	515	450	0	0	0	0	
1	0	0	0	0	515	451	0	0	0	0	
2	0	0	0	0	515	451	0	0	0	0	
3	0	0	0	0	515	451	0	0	0	0	
4	0	0	0	0	516	451	0	0	0	0	
5	0	0	0	0	517	452	0	0	0	0	
6	0	0	0	0	519	452	0	0	0	0	
7	0	0	0	0	519	453	0	0	0	0	
8	0	0	0	0	522	455	0	0	0	0	
9	0	0	0	0	524	455	0	0	0	0	
10	0	0	0	0	526	457	0	0	0	0	
11	0	0	0	0	528	458	0	0	0	0	
12	0	0	0	0	530	460	0	0	0	0	
13	0	0	0	0	532	462	0	0	0	0	
14	0	0	0	0	534	463	0	0	0	0	
15	0	0	0	0	536	464	0	0	0	0	
0	0	0	0	0	537	466	0	0	0	0	
1	0	0	0	0	537	466	0	0	0	0	
2	0	0	0	0	538	467	0	0	0	0	
3	0	0	0	0	539	468	0	0	0	0	
4	0	0	0	0	540	470	0	0	0	0	
5	0	0	0	0	541	471	0	0	0	0	
6	0	0	0	0	543	474	0	0	0	0	
7	0	0	0	0	547	478	0	0	0	0	
8	0	0	0	0	552	481	0	0	0	0	
9	0	0	0	0	557	486	0	0	0	0	
10	0	0	0	0	562	491	0	0	0	0	
11	0	0	0	0	566	494	0	0	0	0	
12	0	0	0	0	570	497	0	0	0	0	
13	0	0	0	0	572	498	0	0	0	0	
14	0	0	0	0	571	497	0	0	0	0	
15	0	0	0	0	568	495	0	0	0	0	
0	0	0	0	0	563	491	0	0	0	0	
1	0	0	0	0	557	485	0	0	0	0	
2	0	0	0	0	550	479	0	0	0	0	
3	0	0	0	0	542	474	0	0	0	0	
4	0	0	0	0	535	470	0	0	0	0	
5	0	0	0	0	530	466	0	0	0	0	
6	0	0	0	0	527	465	0	0	0	0	
7	0	0	0	0	527	466	0	0	0	0	
8	0	0	0	0	529	469	0	0	0	0	
9	0	0	0	0	533	472	0	0	0	0	
10	0	0	0	0	538	477	0	0	0	0	
11	0	0	0	0	544	482	0	0	0	0	
12	0	0	0	0	551	487	0	0	0	0	
13	0	0	0	0	557	491	0	0	0	0	
14	0	0	0	0	560	492	0	0	0	0	
15	0	0	0	0	562	492	0	0	0	0	
0	0	0	0	0	561	489	0	0	0	0	
1	0	0	0	0	558	485	0	0	0	0	
2	0	0	0	0	553	479	0	0	0	0	
3	0	0	0	0	545	472	0	0	0	0	
4	0	0	0	0	537	465	0	0	0	0	
5	0	0	0	0	529	459	0	0	0	0	
6	0	0	0	0	521	453	0	0	0	0	
7	0	0	0	0	514	448	0	0	0	0	
8	0	0	0	0	508	444	0	0	0	0	
9	0	0	0	0	504	442	0	0	0	0	
10	0	0	0	0	501	441	0	0	0	0	
11	0	0	0	0	499	441	0	0	0	0	
12	0	0	0	0	499	443	0	0	0	0	
13	0	0	0	0	502	445	0	0	0	0	
14	0	0	0	0	505	448	0	0	0	0	
15	0	0	0	0	510	452	0	0	0	0	
0	0	0	0	0	516	456	0	0	0	0	
1	0	0	0	0	522	460	0	0	0	0	
2	0	0	0	0	528	464	0	0	0	0	
3	0	0	0	0	535	469	0	0	0	0	
4	0	0	0	0	542	473	0	0	0	0	
5	0	0	0	0	547	476	0	0	0	0	
6	0	0	0	0	553	480	0	0	0	0	
7	0	0	0	0	558	485	0	0	0	0	
8	0	0	0	0	564	491	0	0	0	0	
9	0	0	0	0	570	496	0	0	0	0	
10	0	0	0	0	575	503	0	0	0	0	
11	0	0	0	0	580	508	0	0	0	0	
12	0	0	0	0	584	512	0	0	0	0	
13	0	0	0	0	585	515	0	0	0	0	
14	0	0	0	0	586	516	0	0	0	0	
15	0	0	0	0	584	515	0	0	0	0	
0	0	0	0	0	580	513	0	0	0	0	
1	0	0	0	0	575	508	0	0	0	0	
2	0	0	0	0	568	502	0	0	0	0	
3	0	0	0	0	560	496	0	0	0	0	
4	0	0	0	0	552	488	0	0	0	0	
5	0	0	0	0	544	481	0	0	0	0	
6	0	0	0	0	536	475	0	0	0	0	
7	0	0	0	0	531	469	0	0	0	0	
8	0	0	0	0	526	464	0	0	0	0	
9	0	0	0	0	523	461	0	0	0	0	
10	0	0	0	0	521	459	0	0	0	0	
11	0	0	0	0	520	457	0	0	0	0	
12	0	0	0	0	521	457	0	0	0	0	
13	0	0	0	0	523	458	0	0	0	0	
14	0	0	0	0	525	460	0	0	0	0	
15	0	0	0	0	528	462	0	0	0	0	
0	0	0	0	0	531	465	0	0	0	0	
1	0	0	0	0	535	469	0	0	0	0	
2	0	0	0	0	539	472	0	0	0	0	
3	0	0	0	0	542	476	0	0	0	0	
4	0	0	0	0	545	479	0	0	0	0	
5	0	0	0	0	548	481	0	0	0	0	
6	0	0	0	0	550	483	0	0	0	0	
7	0	0	0	0	551	485	0	0	0	0	
8	0	0	0	0	552	486	0	0	0	0	
9	0	0	0	0	553	486	0	0	0	0	
10	0	0	0	0	554	486	0	0	0	0	
11	0	0	0	0	554	486	0	0	0	0	
12	0	0	0	0	555	486	0	0	0	0	
13	0	0	0	0	556	487	0	0	0	0	
14	0	0	0	0	558	487	0	0	0	0	
15	0	0	0	0	560	488	0	0	0	0	
0	0	0	0	0	561	489	0	0	0	0	
1	0	0	0	0	563	490	0	0	0	0	
2	0	0	0	0	563	491	0	0	0	0	
3	0	0	0	0	563	491	0	0	0	0	
4	0	0	0	0	562	491	0	0	0	0	
5	0	0	0	0	560	489	0	0	0	0	
6	0	0	0	0	555	486	0	0	0	0	
7	0	0	0	0	549	482	0	0	0	0	
8	0	0	0	0	541	476	0	0	0	0	
9	0	0	0	0	532	468	0	0	0	0	
10	0	0	0	0	523	460	0	0	0	0	
11	0	0	0	0	514	452	0	0	0	0	
12	0	0	0	0	507	445	0	0	0	0	
13	0	0	0	0	501	439	0	0	0	0	
14	0	0	0	0	497	434	0	0	0	0	
15	0	0	0	0	495	432	0	0	0	0	
0	0	0	0	0	495	430	0	0	0	0	
1	0	0	0	0	497	431	0	0	0	0	
2	0	0	0	0	502	433	0	0	0	0	
3	0	0	0	0	508	437	0	0	0	0	
4	0	0	0	0	515	443	0	0	0	0	
5	0	0	0	0	523	449	0	0	0	0	
6	0	0	0	0	531	457	0	0	0	0	
7	0	0	0	0	540	464	0	0	0	0	
8	0	0	0	0	548	472	0	0	0	0	
9	0	0	0	0	556	480	0	0	0	0	
10	0	0	0	0	562	487	0	0	0	0	
11	0	0	0	0	567	492	0	0	0	0	
12	0	0	0	0	571	497	0	0	0	0	
13	0	0	0	0	573	500	0	0	0	0	
14	0	0	0	0	572	501	0	0	0	0	
15	0	0	0	0	570	500	0	0	0	0	
0	0	0	0	0	565	496	0	0	0	0	
1	0	0	0	0	558	491	0	0	0	0	
2	0	0	0	0	550	484	0	0	0	0	
3	0	0	0	0	540	476	0	0	0	0	
4	0	0	0	0	531	469	0	0	0	0	
5	0	0	0	0	523	461	0	0	0	0	
6	0	0	0	0	515	455	0	0	0	0	
7	0	0	0	0	510	451	0	0	0	0	
8	0	0	0	0	508	448	0	0	0	0	
9	0	0	0	0	508	448	0	0	0	0	
10	0	0	0	0	511	450	0	0	0	0	
11	0	0	0	0	518	455	0	0	0	0	
12	0	0	0	0	526	460	0	0	0	0	
13	0	0	0	0	535	467	0	0	0	0	
14	0	0	0	0	545	474	0	0	0	0	
15	0	0	0	0	553	480	0	0	0	0	
0	0	0	0	0	561	486	0	0	0	0	
1	0	0	0	0	567	490	0	0	0	0	
2	0	0	0	0	571	493	0	0	0	0	
3	0	0	0	0	573	496	0	0	0	0	
4	0	0	0	0	574	497	0	0	0	0	
5	0	0	0	0	573	496	0	0	0	0	
6	0	0	0	0	571	495	0	0	0	0	
7	0	0	0	0	567	494	0	0	0	0	
8	0	0	0	0	563	491	0	0	0	0	
9	0	0	0	0	559	487	0	0	0	0	
10	0	0	0	0	553	483	0	0	0	0	
11	0	0	0	0	548	479	0	0	0	0	
12	0	0	0	0	543	474	0	0	0	0	
13	0	0	0	0	539	470	0	0	0	0	
14	0	0	0	0	535	466	0	0	0	0	
15	0	0	0	0	531	463	0	0	0	0	
0	0	0	0	0	529	461	0	0	0	0	
1	0	0	0	0	528	460	0	0	0	0	
2	0	0	0	0	528	459	0	0	0	0	
3	0	0	0	0	530	460	0	0	0	0	
4	0	0	0	0	531	460	0	0	0	0	
5	0	0	0	0	533	462	0	0	0	0	
6	0	0	0	0	535	463	0	0	0	0	
7	0	0	0	0	536	463	0	0	0	0	
8	0	0	0	0	538	464	0	0	0	0	
9	0	0	0	0	540	465	0	0	0	0	
10	0	0	0	0	542	466	0	0	0	0	
11	0	0	0	0	543	467	0	0	0	0	
12	0	0	0	0	546	469	0	0	0	0	
13	0	0	0	0	549	472	0	0	0	0	
14	0	0	0	0	551	475	0	0	0	0	
15	0	0	0	0	554	477	0	0	0	0	
0	0	0	0	0	556	480	0	0	0	0	
1	0	0	0	0	558	482	0	0	0	0	
2	0	0	0	0	558	483	0	0	0	0	
3	0	0	0	0	557	483	0	0	0	0	
4	0	0	0	0	553	480	0	0	0	0	
5	0	0	0	0	548	477	0	0	0	0	
6	0	0	0	0	543	472	0	0	0	0	
7	0	0	0	0	536	467	0	0	0	0	
8	0	0	0	0	530	463	0	0	0	0	
9	0	0	0	0	524	458	0	0	0	0	
10	0	0	0	0	520	454	0	0	0	0	
11	0	0	0	0	517	451	0	0	0	0	
12	0	0	0	0	515	449	0	0	0	0	
13	0	0	0	0	515	449	0	0	0	0	
14	0	0	0	0	516	449	0	0	0	0	
15	0	0	0	0	519	451	0	0	0	0	
0	0	0	0	0	522	452	0	0	0	0	
1	0	0	0	0	525	455	0	0	0	0	
2	0	0	0	0	529	457	0	0	0	0	
3	0	0	0	0	534	461	0	0	0	0	
4	0	0	0	0	539	464	0	0	0	0	
5	0	0	0	0	543	468	0	0	0	0	
6	0	0	0	0	548	473	0	0	0	0	
7	0	0	0	0	553	478	0	0	0	0	
8	0	0	0	0	558	483	0	0	0	0	
9	0	0	0	0	563	489	0	0	0	0	
10	0	0	0	0	567	494	0	0	0	0	
11	0	0	0	0	571	499	0	0	0	0	
12	0	0	0	0	573	503	0	0	0	0	
13	0	0	0	0	574	505	0	0	0	0	
14	0	0	0	0	572	505	0	0	0	0	
15	0	0	0	0	569	503	0	0	0	0	
0	0	0	0	0	563	499	0	0	0	0	
1	0	0	0	0	556	493	0	0	0	0	
2	0	0	0	0	548	485	0	0	0	0	
3	0	0	0	0	540	478	0	0	0	0	
4	0	0	0	0	531	470	0	0	0	0	
5	0	0	0	0	524	463	0	0	0	0	
6	0	0	0	0	518	457	0	0	0	0	
7	0	0	0	0	514	452	0	0	0	0	
8	0	0	0	0	511	450	0	0	0	0	
9	0	0	0	0	511	448	0	0	0	0	
10	0	0	0	0	512	448	0	0	0	0	
11	0	0	0	0	513	449	0	0	0	0	
12	0	0	0	0	516	451	0	0	0	0	
13	0	0	0	0	520	454	0	0	0	0	
14	0	0	0	0	524	456	0	0	0	0	
15	0	0	0	0	528	460	0	0	0	0	
0	0	0	0	0	532	462	0	0	0	0	
1	0	0	0	0	535	465	0	0	0	0	
2	0	0	0	0	539	468	0	0	0	0	
3	0	0	0	0	542	471	0	0	0	0	
4	0	0	0	0	544	474	0	0	0	0	
5	0	0	0	0	547	476	0	0	0	0	
6	0	0	0	0	549	479	0	0	0	0	
7	0	0	0	0	551	480	0	0	0	0	
8	0	0	0	0	552	482	0	0	0	0	
9	0	0	0	0	552	483	0	0	0	0	
10	0	0	0	0	552	483	0	0	0	0	
11	0	0	0	0	551	483	0	0	0	0	
12	0	0	0	0	550	481	0	0	0	0	
13	0	0	0	0	547	479	0	0	0	0	
14	0	0	0	0	543	477	0	0	0	0	
15	0	0	0	0	539	474	0	0	0	0	
0	0	0	0	0	535	471	0	0	0	0	
1	0	0	0	0	531	468	0	0	0	0	
2	0	0	0	0	527	466	0	0	0	0	
3	0	0	0	0	526	465	0	0	0	0	
4	0	0	0	0	525	464	0	0	0	0	
5	0	0	0	0	526	464	0	0	0	0	
6	0	0	0	0	528	465	0	0	0	0	
7	0	0	0	0	531	467	0	0	0	0	
8	0	0	0	0	535	468	0	0	0	0	
9	0	0	0	0	539	471	0	0	0	0	
10	0	0	0	0	543	473	0	0	0	0	
11	0	0	0	0	546	476	0	0	0	0	
12	0	0	0	0	551	478	0	0	0	0	
13	0	0	0	0	554	481	0	0	0	0	
14	0	0	0	0	558	483	0	0	0	0	
15	0	0	0	0	561	485	0	0	0	0	
0	0	0	0	0	563	488	0	0	0	0	
1	0	0	0	0	565	491	0	0	0	0	
2	0	0	0	0	567	494	0	0	0	0	
3	0	0	0	0	568	497	0	0	0	0	
4	0	0	0	0	569	499	0	0	0	0	
5	0	0	0	0	569	502	0	0	0	0	
6	0	0	0	0	569	504	0	0	0	0	
7	0	0	0	0	568	505	0	0	0	0	
8	0	0	0	0	564	504	0	0	0	0	
9	0	0	0	0	560	501	0	0	0	0	
10	0	0	0	0	554	496	0	0	0	0	
11	0	0	0	0	547	490	0	0	0	0	
12	0	0	0	0	540	483	0	0	0	0	
13	0	0	0	0	532	476	0	0	0	0	
14	0	0	0	0	524	468	0	0	0	0	
15	0	0	0	0	517	461	0	0	0	0	
0	0	0	0	0	512	455	0	0	0	0	
1	0	0	0	0	509	451	0	0	0	0	
2	0	0	0	0	508	449	0	0	0	0	
3	0	0	0	0	510	449	0	0	0	0	
4	0	0	0	0	514	452	0	0	0	0	
5	0	0	0	0	520	457	0	0	0	0	
6	0	0	0	0	528	463	0	0	0	0	
7	0	0	0	0	536	470	0	0	0	0	
8	0	0	0	0	544	477	0	0	0	0	
9	0	0	0	0	551	483	0	0	0	0	
10	0	0	0	0	556	488	0	0	0	0	
11	0	0	0	0	560	491	0	0	0	0	
12	0	0	0	0	560	492	0	0	0	0	
13	0	0	0	0	559	491	0	0	0	0	
14	0	0	0	0	556	488	0	0	0	0	
15	0	0	0	0	551	484	0	0	0	0	
0	0	0	0	0	545	480	0	0	0	0	
1	0	0	0	0	539	475	0	0	0	0	
2	0	0	0	0	533	470	0	0	0	0	
3	0	0	0	0	528	466	0	0	0	0	
4	0	0	0	0	525	463	0	0	0	0	
5	0	0	0	0	522	461	0	0	0	0	
6	0	0	0	0	521	460	0	0	0	0	
7	0	0	0	0	520	459	0	0	0	0	
8	0	0	0	0	521	459	0	0	0	0	
9	0	0	0	0	523	460	0	0	0	0	
10	0	0	0	0	525	462	0	0	0	0	
11	0	0	0	0	527	464	0	0	0	0	
12	0	0	0	0	530	467	0	0	0	0	
13	0	0	0	0	533	470	0	0	0	0	
14	0	0	0	0	536	473	0	0	0	0	
15	0	0	0	0	540	476	0	0	0	0	
0	0	0	0	0	543	479	0	0	0	0	
1	0	0	0	0	545	481	0	0	0	0	
2	0	0	0	0	547	483	0	0	0	0	
3	0	0	0	0	549	484	0	0	0	0	
4	0	0	0	0	550	484	0	0	0	0	
5	0	0	0	0	550	484	0	0	0	0	
6	0	0	0	0	550	483	0	0	0	0	
7	0	0	0	0	549	482	0	0	0	0	
8	0	0	0	0	548	481	0	0	0	0	
9	0	0	0	0	548	480	0	0	0	0	
10	0	0	0	0	547	479	0	0	0	0	
11	0	0	0	0	546	478	0	0	0	0	
12	0	0	0	0	543	476	0	0	0	0	
13	0	0	0	0	542	476	0	0	0	0	
14	0	0	0	0	539	475	0	0	0	0	
15	0	0	0	0	537	474	0	0	0	0	
0	0	0	0	0	535	473	0	0	0	0	
1	0	0	0	0	533	473	0	0	0	0	
2	0	0	0	0	533	473	0	0	0	0	
3	0	0	0	0	533	474	0	0	0	0	
4	0	0	0	0	534	474	0	0	0	0	
5	0	0	0	0	536	475	0	0	0	0	
6	0	0	0	0	537	475	0	0	0	0	
7	0	0	0	0	538	474	0	0	0	0	
8	0	0	0	0	539	473	0	0	0	0	
9	0	0	0	0	539	472	0	0	0	0	
10	0	0	0	0	539	470	0	0	0	0	
11	0	0	0	0	538	468	0	0	0	0	
12	0	0	0	0	537	467	0	0	0	0	
13	0	0	0	0	536	466	0	0	0	0	
14	0	0	0	0	535	465	0	0	0	0	
15	0	0	0	0	534	465	0	0	0	0	
0	0	0	0	0	534	466	0	0	0	0	
1	0	0	0	0	534	467	0	0	0	0	
2	0	0	0	0	535	470	0	0	0	0	
3	0	0	0	0	536	473	0	0	0	0	
4	0	0	0	0	539	477	0	0	0	0	
5	0	0	0	0	542	481	0	0	0	0	
6	0	0	0	0	545	486	0	0	0	0	
7	0	0	0	0	548	489	0	0	0	0	
8	0	0	0	0	552	493	0	0	0	0	
9	0	0	0	0	557	497	0	0	0	0	
10	0	0	0	0	560	499	0	0	0	0	
11	0	0	0	0	563	501	0	0	0	0	
12	0	0	0	0	565	502	0	0	0	0	
13	0	0	0	0	566	501	0	0	0	0	
14	0	0	0	0	566	499	0	0	0	0	
15	0	0	0	0	563	496	0	0	0	0	
0	0	0	0	0	559	491	0	0	0	0	
1	0	0	0	0	553	484	0	0	0	0	
2	0	0	0	0	546	478	0	0	0	0	
3	0	0	0	0	538	470	0	0	0	0	
4	0	0	0	0	529	463	0	0	0	0	
5	0	0	0	0	521	456	0	0	0	0	
6	0	0	0	0	515	451	0	0	0	0	
7	0	0	0	0	510	446	0	0	0	0	
8	0	0	0	0	506	444	0	0	0	0	
9	0	0	0	0	504	443	0	0	0	0	
10	0	0	0	0	504	444	0	0	0	0	
11	0	0	0	0	505	446	0	0	0	0	
12	0	0	0	0	507	448	0	0	0	0	
13	0	0	0	0	509	449	0	0	0	0	
14	0	0	0	0	511	451	0	0	0	0	
15	0	0	0	0	513	452	0	0	0	0	
0	0	0	0	0	516	453	0	0	0	0	
1	0	0	0	0	518	454	0	0	0	0	
2	0	0	0	0	521	455	0	0	0	0	
3	0	0	0	0	524	456	0	0	0	0	
4	0	0	0	0	526	457	0	0	0	0	
5	0	0	0	0	528	458	0	0	0	0	
6	0	0	0	0	530	460	0	0	0	0	
7	0	0	0	0	532	461	0	0	0	0	
8	0	0	0	0	533	462	0	0	0	0	
9	0	0	0	0	533	463	0	0	0	0	
10	0	0	0	0	533	463	0	0	0	0	
11	0	0	0	0	531	463	0	0	0	0	
12	0	0	0	0	529	463	0	0	0	0	
13	0	0	0	0	527	463	0	0	0	0	
14	0	0	0	0	525	463	0	0	0	0	
15	0	0	0	0	524	463	0	0	0	0	
0	0	0	0	0	523	463	0	0	0	0	
1	0	0	0	0	523	464	0	0	0	0	
2	0	0	0	0	524	466	0	0	0	0	
3	0	0	0	0	527	470	0	0	0	0	
4	0	0	0	0	532	473	0	0	0	0	
5	0	0	0	0	536	476	0	0	0	0	
6	0	0	0	0	542	481	0	0	0	0	
7	0	0	0	0	548	485	0	0	0	0	
8	0	0	0	0	554	489	0	0	0	0	
9	0	0	0	0	560	494	0	0	0	0	
10	0	0	0	0	565	497	0	0	0	0	
11	0	0	0	0	569	500	0	0	0	0	
12	0	0	0	0	571	501	0	0	0	0	
13	0	0	0	0	571	501	0	0	0	0	
14	0	0	0	0	569	499	0	0	0	0	
15	0	0	0	0	565	496	0	0	0	0	
0	0	0	0	0	560	492	0	0	0	0	
1	0	0	0	0	553	488	0	0	0	0	
2	0	0	0	0	547	484	0	0	0	0	
3	0	0	0	0	542	480	0	0	0	0	
4	0	0	0	0	536	476	0	0	0	0	
5	0	0	0	0	532	474	0	0	0	0	
6	0	0	0	0	529	471	0	0	0	0	
7	0	0	0	0	528	470	0	0	0	0	
8	0	0	0	0	527	470	0	0	0	0	
9	0	0	0	0	528	469	0	0	0	0	
10	0	0	0	0	530	469	0	0	0	0	
11	0	0	0	0	531	469	0	0	0	0	
12	0	0	0	0	534	470	0	0	0	0	
13	0	0	0	0	536	471	0	0	0	0	
14	0	0	0	0	538	472	0	0	0	0	
15	0	0	0	0	540	472	0	0	0	0	
0	0	0	0	0	541	473	0	0	0	0	
1	0	0	0	0	542	473	0	0	0	0	
2	0	0	0	0	542	473	0	0	0	0	
3	0	0	0	0	541	472	0	0	0	0	
4	0	0	0	0	539	472	0	0	0	0	
5	0	0	0	0	536	470	0	0	0	0	
6	0	0	0	0	533	468	0	0	0	0	
7	0	0	0	0	529	467	0	0	0	0	
8	0	0	0	0	526	465	0	0	0	0	
9	0	0	0	0	522	463	0	0	0	0	
10	0	0	0	0	519	461	0	0	0	0	
11	0	0	0	0	517	460	0	0	0	0	
12	0	0	0	0	516	460	0	0	0	0	
13	0	0	0	0	517	460	0	0	0	0	
14	0	0	0	0	519	462	0	0	0	0	
15	0	0	0	0	522	465	0	0	0	0	
0	0	0	0	0	527	469	0	0	0	0	
1	0	0	0	0	534	474	0	0	0	0	
2	0	0	0	0	542	480	0	0	0	0	
3	0	0	0	0	550	487	0	0	0	0	
4	0	0	0	0	557	492	0	0	0	0	
5	0	0	0	0	563	497	0	0	0	0	
6	0	0	0	0	567	499	0	0	0	0	
7	0	0	0	0	568	500	0	0	0	0	
8	0	0	0	0	567	499	0	0	0	0	
9	0	0	0	0	562	495	0	0	0	0	
10	0	0	0	0	555	489	0	0	0	0	
11	0	0	0	0	547	481	0	0	0	0	
12	0	0	0	0	538	474	0	0	0	0	
13	0	0	0	0	528	466	0	0	0	0	
14	0	0	0	0	519	458	0	0	0	0	
15	0	0	0	0	512	452	0	0	0	0	
0	0	0	0	0	508	448	0	0	0	0	
1	0	0	0	0	504	445	0	0	0	0	
2	0	0	0	0	503	444	0	0	0	0	
3	0	0	0	0	505	446	0	0	0	0	
4	0	0	0	0	509	449	0	0	0	0	
5	0	0	0	0	514	454	0	0	0	0	
6	0	0	0	0	521	459	0	0	0	0	
7	0	0	0	0	528	465	0	0	0	0	
8	0	0	0	0	536	471	0	0	0	0	
9	0	0	0	0	542	477	0	0	0	0	
10	0	0	0	0	546	480	0	0	0	0	
11	0	0	0	0	548	482	0	0	0	0	
12	0	0	0	0	548	482	0	0	0	0	
13	0	0	0	0	544	480	0	0	0	0	
14	0	0	0	0	540	476	0	0	0	0	
15	0	0	0	0	533	471	0	0	0	0	
0	0	0	0	0	525	464	0	0	0	0	
1	0	0	0	0	516	457	0	0	0	0	
2	0	0	0	0	507	449	0	0	0	0	
3	0	0	0	0	497	442	0	0	0	0	
4	0	0	0	0	487	433	0	0	0	0	
5	0	0	0	0	477	424	0	0	0	0	
6	0	0	0	0	467	415	0	0	0	0	
7	0	0	0	0	456	404	0	0	0	0	
8	0	0	0	0	446	394	0	0	0	0	
9	0	0	0	0	436	384	0	0	0	0	
10	0	0	0	0	426	373	0	0	0	0	
11	0	0	0	0	416	361	0	0	0	0	
12	0	0	0	0	406	350	0	0	0	0	
13	0	0	0	0	396	339	0	0	0	0	
14	0	0	0	0	385	328	0	0	0	0	
15	0	0	0	0	376	318	0	0	0	0	
0	0	0	0	0	367	307	0	0	0	0	
1	0	0	0	0	358	299	0	0	0	0	
2	0	0	0	0	351	291	0	0	0	0	
3	0	0	0	0	346	285	0	0	0	0	
4	0	0	0	0	343	281	0	0	0	0	
5	0	0	0	0	341	279	0	0	0	0	
6	0	0	0	0	343	280	0	0	0	0	
7	0	0	0	0	347	283	0	0	0	0	
8	0	0	0	0	355	288	0	0	0	0	
9	0	0	0	0	365	296	0	0	0	0	
10	0	0	0	0	377	306	0	0	0	0	
11	0	0	0	0	392	319	0	0	0	0	
12	0	0	0	0	408	333	0	0	0	0	
13	0	0	0	0	426	349	0	0	0	0	
14	0	0	0	0	445	366	0	0	0	0	
15	0	0	0	0	464	384	0	0	0	0	
0	0	0	0	0	483	402	0	0	0	0	
1	0	0	0	0	501	420	0	0	0	0	
2	0	0	0	0	519	438	0	0	0	0	
3	0	0	0	0	534	454	0	0	0	0	
4	0	0	0	0	547	467	0	0	0	0	
5	0	0	0	0	557	479	0	0	0	0	
6	0	0	0	0	565	488	0	0	0	0	
7	0	0	0	0	570	495	0	0	0	0	
8	0	0	0	0	573	498	0	0	0	0	
9	0	0	0	0	572	499	0	0	0	0	
10	0	0	0	0	569	499	0	0	0	0	
11	0	0	0	0	566	497	0	0	0	0	
12	0	0	0	0	560	493	0	0	0	0	
13	0	0	0	0	553	488	0	0	0	0	
14	0	0	0	0	546	482	0	0	0	0	
15	0	0	0	0	539	476	0	0	0	0	
0	0	0	0	0	532	471	0	0	0	0	
1	0	0	0	0	527	467	0	0	0	0	
2	0	0	0	0	523	464	0	0	0	0	
3	0	0	0	0	522	462	0	0	0	0	
4	0	0	0	0	522	462	0	0	0	0	
5	0	0	0	0	525	465	0	0	0	0	
6	0	0	0	0	530	469	0	0	0	0	
7	0	0	0	0	537	475	0	0	0	0	
8	0	0	0	0	544	480	0	0	0	0	
9	0	0	0	0	552	486	0	0	0	0	
10	0	0	0	0	559	492	0	0	0	0	
11	0	0	0	0	564	496	0	0	0	0	
12	0	0	0	0	566	498	0	0	0	0	
13	0	0	0	0	565	497	0	0	0	0	
14	0	0	0	0	562	494	0	0	0	0	
15	0	0	0	0	556	489	0	0	0	0	
0	0	0	0	0	548	482	0	0	0	0	
1	0	0	0	0	539	475	0	0	0	0	
2	0	0	0	0	530	467	0	0	0	0	
3	0	0	0	0	521	460	0	0	0	0	
4	0	0	0	0	513	454	0	0	0	0	
5	0	0	0	0	508	450	0	0	0	0	
6	0	0	0	0	506	448	0	0	0	0	
7	0	0	0	0	505	447	0	0	0	0	
8	0	0	0	0	507	449	0	0	0	0	
9	0	0	0	0	511	453	0	0	0	0	
10	0	0	0	0	518	458	0	0	0	0	
11	0	0	0	0	525	464	0	0	0	0	
12	0	0	0	0	533	471	0	0	0	0	
13	0	0	0	0	541	478	0	0	0	0	
14	0	0	0	0	549	485	0	0	0	0	
15	0	0	0	0	556	491	0	0	0	0	
0	0	0	0	0	562	496	0	0	0	0	
1	0	0	0	0	567	500	0	0	0	0	
2	0	0	0	0	571	504	0	0	0	0	
3	0	0	0	0	574	507	0	0	0	0	
4	0	0	0	0	575	508	0	0	0	0	
5	0	0	0	0	576	509	0	0	0	0	
6	0	0	0	0	576	509	0	0	0	0	
7	0	0	0	0	577	510	0	0	0	0	
8	0	0	0	0	577	510	0	0	0	0	
9	0	0	0	0	576	510	0	0	0	0	
10	0	0	0	0	575	509	0	0	0	0	
11	0	0	0	0	573	508	0	0	0	0	
12	0	0	0	0	571	506	0	0	0	0	
13	0	0	0	0	568	504	0	0	0	0	
14	0	0	0	0	563	501	0	0	0	0	
15	0	0	0	0	560	498	0	0	0	0	
0	0	0	0	0	555	495	0	0	0	0	
1	0	0	0	0	551	493	0	0	0	0	
2	0	0	0	0	548	491	0	0	0	0	
3	0	0	0	0	545	489	0	0	0	0	
4	0	0	0	0	543	487	0	0	0	0	
5	0	0	0	0	541	487	0	0	0	0	
6	0	0	0	0	540	486	0	0	0	0	
7	0	0	0	0	540	485	0	0	0	0	
8	0	0	0	0	540	484	0	0	0	0	
9	0	0	0	0	540	483	0	0	0	0	
10	0	0	0	0	541	482	0	0	0	0	
11	0	0	0	0	541	481	0	0	0	0	
12	0	0	0	0	542	480	0	0	0	0	
13	0	0	0	0	542	479	0	0	0	0	
14	0	0	0	0	542	478	0	0	0	0	
15	0	0	0	0	542	478	0	0	0	0	
0	0	0	0	0	543	479	0	0	0	0	
1	0	0	0	0	544	480	0	0	0	0	
2	0	0	0	0	546	483	0	0	0	0	
3	0	0	0	0	549	486	0	0	0	0	
4	0	0	0	0	552	490	0	0	0	0	
5	0	0	0	0	556	496	0	0	0	0	
6	0	0	0	0	561	500	0	0	0	0	
7	0	0	0	0	565	505	0	0	0	0	
8	0	0	0	0	568	509	0	0	0	0	
9	0	0	0	0	570	511	0	0	0	0	
10	0	0	0	0	571	512	0	0	0	0	
11	0	0	0	0	569	511	0	0	0	0	
12	0	0	0	0	567	508	0	0	0	0	
13	0	0	0	0	562	504	0	0	0	0	
14	0	0	0	0	556	497	0	0	0	0	
15	0	0	0	0	550	492	0	0	0	0	
0	0	0	0	0	543	485	0	0	0	0	
1	0	0	0	0	537	479	0	0	0	0	
2	0	0	0	0	531	472	0	0	0	0	
3	0	0	0	0	526	467	0	0	0	0	
4	0	0	0	0	522	464	0	0	0	0	
5	0	0	0	0	520	462	0	0	0	0	
6	0	0	0	0	519	460	0	0	0	0	
7	0	0	0	0	519	460	0	0	0	0	
8	0	0	0	0	521	462	0	0	0	0	
9	0	0	0	0	524	464	0	0	0	0	
10	0	0	0	0	529	469	0	0	0	0	
11	0	0	0	0	534	472	0	0	0	0	
12	0	0	0	0	540	477	0	0	0	0	
13	0	0	0	0	545	481	0	0	0	0	
14	0	0	0	0	550	484	0	0	0	0	
15	0	0	0	0	555	487	0	0	0	0	
0	0	0	0	0	557	488	0	0	0	0	
1	0	0	0	0	559	489	0	0	0	0	
2	0	0	0	0	559	489	0	0	0	0	
3	0	0	0	0	557	487	0	0	0	0	
4	0	0	0	0	554	485	0	0	0	0	
5	0	0	0	0	550	482	0	0	0	0	
6	0	0	0	0	547	480	0	0	0	0	
7	0	0	0	0	543	477	0	0	0	0	
8	0	0	0	0	539	475	0	0	0	0	
9	0	0	0	0	536	475	0	0	0	0	
10	0	0	0	0	534	474	0	0	0	0	
11	0	0	0	0	532	474	0	0	0	0	
12	0	0	0	0	531	474	0	0	0	0	
13	0	0	0	0	530	473	0	0	0	0	
14	0	0	0	0	529	473	0	0	0	0	
15	0	0	0	0	529	472	0	0	0	0	
0	0	0	0	0	528	471	0	0	0	0	
1	0	0	0	0	527	469	0	0	0	0	
2	0	0	0	0	526	467	0	0	0	0	
3	0	0	0	0	524	466	0	0	0	0	
4	0	0	0	0	524	465	0	0	0	0	
5	0	0	0	0	523	463	0	0	0	0	
6	0	0	0	0	523	463	0	0	0	0	
7	0	0	0	0	524	463	0	0	0	0	
8	0	0	0	0	526	465	0	0	0	0	
9	0	0	0	0	528	467	0	0	0	0	
10	0	0	0	0	532	471	0	0	0	0	
11	0	0	0	0	538	476	0	0	0	0	
12	0	0	0	0	544	481	0	0	0	0	
13	0	0	0	0	551	488	0	0	0	0	
14	0	0	0	0	560	496	0	0	0	0	
15	0	0	0	0	568	503	0	0	0	0	
0	0	0	0	0	576	510	0	0	0	0	
1	0	0	0	0	584	518	0	0	0	0	
2	0	0	0	0	590	523	0	0	0	0	
3	0	0	0	0	594	527	0	0	0	0	
4	0	0	0	0	595	527	0	0	0	0	
5	0	0	0	0	593	526	0	0	0	0	
6	0	0	0	0	588	521	0	0	0	0	
7	0	0	0	0	580	515	0	0	0	0	
8	0	0	0	0	571	507	0	0	0	0	
9	0	0	0	0	559	497	0	0	0	0	
10	0	0	0	0	548	487	0	0	0	0	
11	0	0	0	0	536	476	0	0	0	0	
12	0	0	0	0	525	467	0	0	0	0	
13	0	0	0	0	515	457	0	0	0	0	
14	0	0	0	0	506	449	0	0	0	0	
15	0	0	0	0	499	443	0	0	0	0	
0	0	0	0	0	494	437	0	0	0	0	
1	0	0	0	0	491	434	0	0	0	0	
2	0	0	0	0	490	434	0	0	0	0	
3	0	0	0	0	492	435	0	0	0	0	
4	0	0	0	0	498	440	0	0	0	0	
5	0	0	0	0	505	446	0	0	0	0	
6	0	0	0	0	514	454	0	0	0	0	
7	0	0	0	0	523	463	0	0	0	0	
8	0	0	0	0	533	471	0	0	0	0	
9	0	0	0	0	541	479	0	0	0	0	
10	0	0	0	0	548	486	0	0	0	0	
11	0	0	0	0	553	491	0	0	0	0	
12	0	0	0	0	557	494	0	0	0	0	
13	0	0	0	0	558	496	0	0	0	0	
14	0	0	0	0	558	495	0	0	0	0	
15	0	0	0	0	554	493	0	0	0	0	
0	0	0	0	0	551	489	0	0	0	0	
1	0	0	0	0	546	486	0	0	0	0	
2	0	0	0	0	542	482	0	0	0	0	
3	0	0	0	0	539	480	0	0	0	0	
4	0	0	0	0	536	478	0	0	0	0	
5	0	0	0	0	534	477	0	0	0	0	
6	0	0	0	0	533	476	0	0	0	0	
7	0	0	0	0	532	476	0	0	0	0	
8	0	0	0	0	532	476	0	0	0	0	
9	0	0	0	0	532	476	0	0	0	0	
10	0	0	0	0	533	476	0	0	0	0	
11	0	0	0	0	534	475	0	0	0	0	
12	0	0	0	0	534	474	0	0	0	0	
13	0	0	0	0	534	472	0	0	0	0	
14	0	0	0	0	532	469	0	0	0	0	
15	0	0	0	0	531	466	0	0	0	0	
0	0	0	0	0	529	463	0	0	0	0	
1	0	0	0	0	527	459	0	0	0	0	
2	0	0	0	0	524	455	0	0	0	0	
3	0	0	0	0	521	453	0	0	0	0	
4	0	0	0	0	520	450	0	0	0	0	
5	0	0	0	0	519	449	0	0	0	0	
6	0	0	0	0	519	449	0	0	0	0	
7	0	0	0	0	519	449	0	0	0	0	
8	0	0	0	0	520	451	0	0	0	0	
9	0	0	0	0	523	454	0	0	0	0	
10	0	0	0	0	525	457	0	0	0	0	
11	0	0	0	0	527	461	0	0	0	0	
12	0	0	0	0	529	464	0	0	0	0	
13	0	0	0	0	531	468	0	0	0	0	
14	0	0	0	0	533	471	0	0	0	0	
15	0	0	0	0	535	474	0	0	0	0	
0	0	0	0	0	537	476	0	0	0	0	
1	0	0	0	0	538	478	0	0	0	0	
2	0	0	0	0	539	479	0	0	0	0	
3	0	0	0	0	540	480	0	0	0	0	
4	0	0	0	0	541	481	0	0	0	0	
5	0	0	0	0	543	481	0	0	0	0	
6	0	0	0	0	543	480	0	0	0	0	
7	0	0	0	0	545	480	0	0	0	0	
8	0	0	0	0	545	479	0	0	0	0	
9	0	0	0	0	545	478	0	0	0	0	
10	0	0	0	0	544	476	0	0	0	0	
11	0	0	0	0	543	474	0	0	0	0	
12	0	0	0	0	542	473	0	0	0	0	
13	0	0	0	0	542	474	0	0	0	0	
14	0	0	0	0	543	476	0	0	0	0	
15	0	0	0	0	544	479	0	0	0	0	
0	0	0	0	0	546	482	0	0	0	0	
1	0	0	0	0	548	486	0	0	0	0	
2	0	0	0	0	551	488	0	0	0	0	
3	0	0	0	0	553	491	0	0	0	0	
4	0	0	0	0	554	492	0	0	0	0	
5	0	0	0	0	554	492	0	0	0	0	
6	0	0	0	0	553	491	0	0	0	0	
7	0	0	0	0	551	487	0	0	0	0	
8	0	0	0	0	547	483	0	0	0	0	
9	0	0	0	0	541	478	0	0	0	0	
10	0	0	0	0	535	472	0	0	0	0	
11	0	0	0	0	528	464	0	0	0	0	
12	0	0	0	0	521	458	0	0	0	0	
13	0	0	0	0	515	452	0	0	0	0	
14	0	0	0	0	510	447	0	0	0	0	
15	0	0	0	0	507	444	0	0	0	0	
0	0	0	0	0	504	442	0	0	0	0	
1	0	0	0	0	504	441	0	0	0	0	
2	0	0	0	0	505	442	0	0	0	0	
3	0	0	0	0	507	444	0	0	0	0	
4	0	0	0	0	510	447	0	0	0	0	
5	0	0	0	0	513	451	0	0	0	0	
6	0	0	0	0	518	454	0	0	0	0	
7	0	0	0	0	523	458	0	0	0	0	
8	0	0	0	0	527	461	0	0	0	0	
9	0	0	0	0	531	464	0	0	0	0	
10	0	0	0	0	535	467	0	0	0	0	
11	0	0	0	0	538	469	0	0	0	0	
12	0	0	0	0	540	470	0	0	0	0	
13	0	0	0	0	541	470	0	0	0	0	
14	0	0	0	0	542	470	0	0	0	0	
15	0	0	0	0	542	471	0	0	0	0	
0	0	0	0	0	543	471	0	0	0	0	
1	0	0	0	0	543	472	0	0	0	0	
2	0	0	0	0	545	474	0	0	0	0	
3	0	0	0	0	547	477	0	0	0	0	
4	0	0	0	0	550	480	0	0	0	0	
5	0	0	0	0	553	484	0	0	0	0	
6	0	0	0	0	556	488	0	0	0	0	
7	0	0	0	0	559	491	0	0	0	0	
8	0	0	0	0	560	493	0	0	0	0	
9	0	0	0	0	560	494	0	0	0	0	
10	0	0	0	0	558	492	0	0	0	0	
11	0	0	0	0	554	488	0	0	0	0	
12	0	0	0	0	549	483	0	0	0	0	
13	0	0	0	0	542	476	0	0	0	0	
14	0	0	0	0	535	469	0	0	0	0	
15	0	0	0	0	528	462	0	0	0	0	
0	0	0	0	0	521	455	0	0	0	0	
1	0	0	0	0	515	449	0	0	0	0	
2	0	0	0	0	512	445	0	0	0	0	
3	0	0	0	0	510	442	0	0	0	0	
4	0	0	0	0	510	441	0	0	0	0	
5	0	0	0	0	511	442	0	0	0	0	
6	0	0	0	0	514	444	0	0	0	0	
7	0	0	0	0	518	447	0	0	0	0	
8	0	0	0	0	522	451	0	0	0	0	
9	0	0	0	0	527	456	0	0	0	0	
10	0	0	0	0	532	461	0	0	0	0	
11	0	0	0	0	538	468	0	0	0	0	
12	0	0	0	0	544	475	0	0	0	0	
13	0	0	0	0	551	481	0	0	0	0	
14	0	0	0	0	558	489	0	0	0	0	
15	0	0	0	0	564	497	0	0	0	0	
0	0	0	0	0	571	504	0	0	0	0	
1	0	0	0	0	576	509	0	0	0	0	
2	0	0	0	0	581	514	0	0	0	0	
3	0	0	0	0	584	518	0	0	0	0	
4	0	0	0	0	587	519	0	0	0	0	
5	0	0	0	0	587	520	0	0	0	0	
6	0	0	0	0	587	519	0	0	0	0	
7	0	0	0	0	586	519	0	0	0	0	
8	0	0	0	0	584	517	0	0	0	0	
9	0	0	0	0	582	514	0	0	0	0	
10	0	0	0	0	577	510	0	0	0	0	
11	0	0	0	0	573	505	0	0	0	0	
12	0	0	0	0	565	498	0	0	0	0	
13	0	0	0	0	557	491	0	0	0	0	
14	0	0	0	0	547	482	0	0	0	0	
15	0	0	0	0	536	473	0	0	0	0	
0	0	0	0	0	525	464	0	0	0	0	
1	0	0	0	0	515	456	0	0	0	0	
2	0	0	0	0	507	449	0	0	0	0	
3	0	0	0	0	501	444	0	0	0	0	
4	0	0	0	0	496	440	0	0	0	0	
5	0	0	0	0	494	439	0	0	0	0	
6	0	0	0	0	495	439	0	0	0	0	
7	0	0	0	0	498	441	0	0	0	0	
8	0	0	0	0	504	444	0	0	0	0	
9	0	0	0	0	510	449	0	0	0	0	
10	0	0	0	0	517	454	0	0	0	0	
11	0	0	0	0	524	458	0	0	0	0	
12	0	0	0	0	531	463	0	0	0	0	
13	0	0	0	0	538	467	0	0	0	0	
14	0	0	0	0	543	471	0	0	0	0	
15	0	0	0	0	546	473	0	0	0	0	
0	0	0	0	0	548	475	0	0	0	0	
1	0	0	0	0	549	476	0	0	0	0	
2	0	0	0	0	549	477	0	0	0	0	
3	0	0	0	0	548	477	0	0	0	0	
4	0	0	0	0	547	477	0	0	0	0	
5	0	0	0	0	546	478	0	0	0	0	
6	0	0	0	0	546	480	0	0	0	0	
7	0	0	0	0	547	481	0	0	0	0	
8	0	0	0	0	547	483	0	0	0	0	
9	0	0	0	0	549	485	0	0	0	0	
10	0	0	0	0	550	486	0	0	0	0	
11	0	0	0	0	550	486	0	0	0	0	
12	0	0	0	0	550	485	0	0	0	0	
13	0	0	0	0	548	483	0	0	0	0	
14	0	0	0	0	546	480	0	0	0	0	
15	0	0	0	0	543	476	0	0	0	0	
0	0	0	0	0	540	472	0	0	0	0	
1	0	0	0	0	536	467	0	0	0	0	
2	0	0	0	0	534	464	0	0	0	0	
3	0	0	0	0	532	463	0	0	0	0	
4	0	0	0	0	532	463	0	0	0	0	
5	0	0	0	0	533	464	0	0	0	0	
6	0	0	0	0	535	466	0	0	0	0	
7	0	0	0	0	537	470	0	0	0	0	
8	0	0	0	0	539	473	0	0	0	0	
9	0	0	0	0	541	477	0	0	0	0	
10	0	0	0	0	543	480	0	0	0	0	
11	0	0	0	0	544	482	0	0	0	0	
12	0	0	0	0	543	483	0	0	0	0	
13	0	0	0	0	542	483	0	0	0	0	
14	0	0	0	0	539	480	0	0	0	0	
15	0	0	0	0	536	478	0	0	0	0	
0	0	0	0	0	531	473	0	0	0	0	
1	0	0	0	0	527	468	0	0	0	0	
2	0	0	0	0	523	463	0	0	0	0	
3	0	0	0	0	519	458	0	0	0	0	
4	0	0	0	0	515	454	0	0	0	0	
5	0	0	0	0	512	450	0	0	0	0	
6	0	0	0	0	511	447	0	0	0	0	
7	0	0	0	0	511	446	0	0	0	0	
8	0	0	0	0	511	446	0	0	0	0	
9	0	0	0	0	513	448	0	0	0	0	
10	0	0	0	0	517	451	0	0	0	0	
11	0	0	0	0	520	454	0	0	0	0	
12	0	0	0	0	525	459	0	0	0	0	
13	0	0	0	0	529	463	0	0	0	0	
14	0	0	0	0	534	468	0	0	0	0	
15	0	0	0	0	538	473	0	0	0	0	
0	0	0	0	0	542	477	0	0	0	0	
1	0	0	0	0	544	480	0	0	0	0	
2	0	0	0	0	546	482	0	0	0	0	
3	0	0	0	0	548	484	0	0	0	0	
4	0	0	0	0	548	484	0	0	0	0	
5	0	0	0	0	548	484	0	0	0	0	
6	0	0	0	0	547	483	0	0	0	0	
7	0	0	0	0	546	481	0	0	0	0	
8	0	0	0	0	544	480	0	0	0	0	
9	0	0	0	0	542	478	0	0	0	0	
10	0	0	0	0	540	476	0	0	0	0	
11	0	0	0	0	539	475	0	0	0	0	
12	0	0	0	0	537	475	0	0	0	0	
13	0	0	0	0	539	476	0	0	0	0	
14	0	0	0	0	540	478	0	0	0	0	
15	0	0	0	0	542	481	0	0	0	0	
0	0	0	0	0	544	483	0	0	0	0	
1	0	0	0	0	547	486	0	0	0	0	
2	0	0	0	0	549	488	0	0	0	0	
3	0	0	0	0	551	490	0	0	0	0	
4	0	0	0	0	551	491	0	0	0	0	
5	0	0	0	0	551	490	0	0	0	0	
6	0	0	0	0	548	487	0	0	0	0	
7	0	0	0	0	545	484	0	0	0	0	
8	0	0	0	0	541	480	0	0	0	0	
9	0	0	0	0	536	474	0	0	0	0	
10	0	0	0	0	530	468	0	0	0	0	
11	0	0	0	0	524	463	0	0	0	0	
12	0	0	0	0	520	459	0	0	0	0	
13	0	0	0	0	517	456	0	0	0	0	
14	0	0	0	0	516	455	0	0	0	0	
15	0	0	0	0	518	456	0	0	0	0	
0	0	0	0	0	521	460	0	0	0	0	
1	0	0	0	0	527	464	0	0	0	0	
2	0	0	0	0	534	470	0	0	0	0	
3	0	0	0	0	540	476	0	0	0	0	
4	0	0	0	0	547	481	0	0	0	0	
5	0	0	0	0	553	486	0	0	0	0	
6	0	0	0	0	558	491	0	0	0	0	
7	0	0	0	0	561	494	0	0	0	0	
8	0	0	0	0	563	496	0	0	0	0	
9	0	0	0	0	563	496	0	0	0	0	
10	0	0	0	0	562	495	0	0	0	0	
11	0	0	0	0	560	494	0	0	0	0	
12	0	0	0	0	557	491	0	0	0	0	
13	0	0	0	0	553	487	0	0	0	0	
14	0	0	0	0	548	483	0	0	0	0	
15	0	0	0	0	543	478	0	0	0	0	
0	0	0	0	0	537	473	0	0	0	0	
1	0	0	0	0	532	469	0	0	0	0	
2	0	0	0	0	528	465	0	0	0	0	
3	0	0	0	0	524	461	0	0	0	0	
4	0	0	0	0	521	459	0	0	0	0	
5	0	0	0	0	519	457	0	0	0	0	
6	0	0	0	0	519	457	0	0	0	0	
7	0	0	0	0	519	458	0	0	0	0	
8	0	0	0	0	520	459	0	0	0	0	
9	0	0	0	0	521	461	0	0	0	0	
10	0	0	0	0	524	463	0	0	0	0	
11	0	0	0	0	525	464	0	0	0	0	
12	0	0	0	0	527	465	0	0	0	0	
13	0	0	0	0	527	465	0	0	0	0	
14	0	0	0	0	527	466	0	0	0	0	
15	0	0	0	0	527	466	0	0	0	0	
0	0	0	0	0	527	466	0	0	0	0	
1	0	0	0	0	526	466	0	0	0	0	
2	0	0	0	0	526	467	0	0	0	0	
3	0	0	0	0	527	468	0	0	0	0	
4	0	0	0	0	529	470	0	0	0	0	
5	0	0	0	0	532	473	0	0	0	0	
6	0	0	0	0	536	476	0	0	0	0	
7	0	0	0	0	540	480	0	0	0	0	
8	0	0	0	0	543	484	0	0	0	0	
9	0	0	0	0	547	487	0	0	0	0	
10	0	0	0	0	550	491	0	0	0	0	
11	0	0	0	0	552	492	0	0	0	0	
12	0	0	0	0	551	492	0	0	0	0	
13	0	0	0	0	549	492	0	0	0	0	
14	0	0	0	0	546	489	0	0	0	0	
15	0	0	0	0	540	485	0	0	0	0	
0	0	0	0	0	534	480	0	0	0	0	
1	0	0	0	0	527	475	0	0	0	0	
2	0	0	0	0	521	470	0	0	0	0	
3	0	0	0	0	515	463	0	0	0	0	
4	0	0	0	0	509	458	0	0	0	0	
5	0	0	0	0	505	452	0	0	0	0	
6	0	0	0	0	502	448	0	0	0	0	
7	0	0	0	0	500	444	0	0	0	0	
8	0	0	0	0	500	441	0	0	0	0	
9	0	0	0	0	501	440	0	0	0	0	
10	0	0	0	0	504	440	0	0	0	0	
11	0	0	0	0	507	441	0	0	0	0	
12	0	0	0	0	511	444	0	0	0	0	
13	0	0	0	0	515	448	0	0	0	0	
14	0	0	0	0	520	451	0	0	0	0	
15	0	0	0	0	525	456	0	0	0	0	
0	0	0	0	0	529	460	0	0	0	0	
1	0	0	0	0	532	464	0	0	0	0	
2	0	0	0	0	536	469	0	0	0	0	
3	0	0	0	0	538	473	0	0	0	0	
4	0	0	0	0	540	476	0	0	0	0	
5	0	0	0	0	542	480	0	0	0	0	
6	0	0	0	0	543	483	0	0	0	0	
7	0	0	0	0	546	486	0	0	0	0	
8	0	0	0	0	549	489	0	0	0	0	
9	0	0	0	0	553	493	0	0	0	0	
10	0	0	0	0	557	496	0	0	0	0	
11	0	0	0	0	560	499	0	0	0	0	
12	0	0	0	0	563	501	0	0	0	0	
13	0	0	0	0	564	501	0	0	0	0	
14	0	0	0	0	565	500	0	0	0	0	
15	0	0	0	0	564	498	0	0	0	0	
0	0	0	0	0	561	495	0	0	0	0	
1	0	0	0	0	558	492	0	0	0	0	
2	0	0	0	0	554	489	0	0	0	0	
3	0	0	0	0	549	485	0	0	0	0	
4	0	0	0	0	544	481	0	0	0	0	
5	0	0	0	0	539	478	0	0	0	0	
6	0	0	0	0	534	475	0	0	0	0	
7	0	0	0	0	529	471	0	0	0	0	
8	0	0	0	0	524	467	0	0	0	0	
9	0	0	0	0	519	464	0	0	0	0	
10	0	0	0	0	515	460	0	0	0	0	
11	0	0	0	0	512	458	0	0	0	0	
12	0	0	0	0	510	455	0	0	0	0	
13	0	0	0	0	510	455	0	0	0	0	
14	0	0	0	0	510	455	0	0	0	0	
15	0	0	0	0	513	456	0	0	0	0	
0	0	0	0	0	518	460	0	0	0	0	
1	0	0	0	0	525	464	0	0	0	0	
2	0	0	0	0	532	470	0	0	0	0	
3	0	0	0	0	540	476	0	0	0	0	
4	0	0	0	0	548	481	0	0	0	0	
5	0	0	0	0	555	487	0	0	0	0	
6	0	0	0	0	560	491	0	0	0	0	
7	0	0	0	0	562	494	0	0	0	0	
8	0	0	0	0	563	495	0	0	0	0	
9	0	0	0	0	561	494	0	0	0	0	
10	0	0	0	0	558	492	0	0	0	0	
11	0	0	0	0	553	490	0	0	0	0	
12	0	0	0	0	547	486	0	0	0	0	
13	0	0	0	0	540	481	0	0	0	0	
14	0	0	0	0	531	476	0	0	0	0	
15	0	0	0	0	524	471	0	0	0	0	
0	0	0	0	0	518	465	0	0	0	0	
1	0	0	0	0	512	460	0	0	0	0	
2	0	0	0	0	508	456	0	0	0	0	
3	0	0	0	0	505	454	0	0	0	0	
4	0	0	0	0	505	453	0	0	0	0	
5	0	0	0	0	507	454	0	0	0	0	
6	0	0	0	0	511	456	0	0	0	0	
7	0	0	0	0	518	461	0	0	0	0	
8	0	0	0	0	525	467	0	0	0	0	
9	0	0	0	0	534	474	0	0	0	0	
10	0	0	0	0	543	482	0	0	0	0	
11	0	0	0	0	551	489	0	0	0	0	
12	0	0	0	0	560	496	0	0	0	0	
13	0	0	0	0	566	501	0	0	0	0	
14	0	0	0	0	569	506	0	0	0	0	
15	0	0	0	0	571	508	0	0	0	0	
0	0	0	0	0	570	507	0	0	0	0	
1	0	0	0	0	567	505	0	0	0	0	
2	0	0	0	0	561	501	0	0	0	0	
3	0	0	0	0	554	495	0	0	0	0	
4	0	0	0	0	545	488	0	0	0	0	
5	0	0	0	0	537	480	0	0	0	0	
6	0	0	0	0	528	472	0	0	0	0	
7	0	0	0	0	520	464	0	0	0	0	
8	0	0	0	0	513	457	0	0	0	0	
9	0	0	0	0	508	451	0	0	0	0	
10	0	0	0	0	504	446	0	0	0	0	
11	0	0	0	0	502	444	0	0	0	0	
12	0	0	0	0	503	443	0	0	0	0	
13	0	0	0	0	505	445	0	0	0	0	
14	0	0	0	0	509	448	0	0	0	0	
15	0	0	0	0	515	453	0	0	0	0	
0	0	0	0	0	521	458	0	0	0	0	
1	0	0	0	0	527	463	0	0	0	0	
2	0	0	0	0	533	468	0	0	0	0	
3	0	0	0	0	537	472	0	0	0	0	
4	0	0	0	0	540	475	0	0	0	0	
5	0	0	0	0	541	476	0	0	0	0	
6	0	0	0	0	540	476	0	0	0	0	
7	0	0	0	0	538	474	0	0	0	0	
8	0	0	0	0	535	472	0	0	0	0	
9	0	0	0	0	531	469	0	0	0	0	
10	0	0	0	0	526	465	0	0	0	0	
11	0	0	0	0	521	461	0	0	0	0	
12	0	0	0	0	516	457	0	0	0	0	
13	0	0	0	0	512	454	0	0	0	0	
14	0	0	0	0	509	452	0	0	0	0	
15	0	0	0	0	507	450	0	0	0	0	
0	0	0	0	0	506	449	0	0	0	0	
1	0	0	0	0	507	450	0	0	0	0	
2	0	0	0	0	508	451	0	0	0	0	
3	0	0	0	0	511	453	0	0	0	0	
4	0	0	0	0	513	455	0	0	0	0	
5	0	0	0	0	516	458	0	0	0	0	
6	0	0	0	0	519	460	0	0	0	0	
7	0	0	0	0	520	462	0	0	0	0	
8	0	0	0	0	522	463	0	0	0	0	
9	0	0	0	0	523	464	0	0	0	0	
10	0	0	0	0	522	463	0	0	0	0	
11	0	0	0	0	521	463	0	0	0	0	
12	0	0	0	0	520	462	0	0	0	0	
13	0	0	0	0	518	460	0	0	0	0	
14	0	0	0	0	517	459	0	0	0	0	
15	0	0	0	0	516	458	0	0	0	0	
0	0	0	0	0	516	457	0	0	0	0	
1	0	0	0	0	517	458	0	0	0	0	
2	0	0	0	0	519	460	0	0	0	0	
3	0	0	0	0	522	462	0	0	0	0	
4	0	0	0	0	526	464	0	0	0	0	
5	0	0	0	0	530	468	0	0	0	0	
6	0	0	0	0	535	471	0	0	0	0	
7	0	0	0	0	538	475	0	0	0	0	
8	0	0	0	0	542	478	0	0	0	0	
9	0	0	0	0	545	481	0	0	0	0	
10	0	0	0	0	548	484	0	0	0	0	
11	0	0	0	0	550	486	0	0	0	0	
12	0	0	0	0	551	488	0	0	0	0	
13	0	0	0	0	553	490	0	0	0	0	
14	0	0	0	0	555	492	0	0	0	0	
15	0	0	0	0	559	496	0	0	0	0	
0	0	0	0	0	563	500	0	0	0	0	
1	0	0	0	0	568	505	0	0	0	0	
2	0	0	0	0	574	509	0	0	0	0	
3	0	0	0	0	579	514	0	0	0	0	
4	0	0	0	0	584	518	0	0	0	0	
5	0	0	0	0	588	520	0	0	0	0	
6	0	0	0	0	590	521	0	0	0	0	
7	0	0	0	0	588	518	0	0	0	0	
8	0	0	0	0	583	513	0	0	0	0	
9	0	0	0	0	575	506	0	0	0	0	
10	0	0	0	0	563	496	0	0	0	0	
11	0	0	0	0	550	485	0	0	0	0	
12	0	0	0	0	535	473	0	0	0	0	
13	0	0	0	0	519	460	0	0	0	0	
14	0	0	0	0	504	448	0	0	0	0	
15	0	0	0	0	490	437	0	0	0	0	
0	0	0	0	0	479	428	0	0	0	0	
1	0	0	0	0	470	420	0	0	0	0	
2	0	0	0	0	464	415	0	0	0	0	
3	0	0	0	0	462	413	0	0	0	0	
4	0	0	0	0	463	413	0	0	0	0	
5	0	0	0	0	466	414	0	0	0	0	
6	0	0	0	0	472	417	0	0	0	0	
7	0	0	0	0	481	422	0	0	0	0	
8	0	0	0	0	490	429	0	0	0	0	
9	0	0	0	0	501	436	0	0	0	0	
10	0	0	0	0	511	443	0	0	0	0	
11	0	0	0	0	521	450	0	0	0	0	
12	0	0	0	0	531	458	0	0	0	0	
13	0	0	0	0	538	465	0	0	0	0	
14	0	0	0	0	544	471	0	0	0	0	
15	0	0	0	0	548	476	0	0	0	0	
0	0	0	0	0	550	479	0	0	0	0	
1	0	0	0	0	550	481	0	0	0	0	
2	0	0	0	0	548	482	0	0	0	0	
3	0	0	0	0	545	481	0	0	0	0	
4	0	0	0	0	541	480	0	0	0	0	
5	0	0	0	0	536	477	0	0	0	0	
6	0	0	0	0	531	474	0	0	0	0	
7	0	0	0	0	527	472	0	0	0	0	
8	0	0	0	0	524	470	0	0	0	0	
9	0	0	0	0	522	468	0	0	0	0	
10	0	0	0	0	523	468	0	0	0	0	
11	0	0	0	0	524	469	0	0	0	0	
12	0	0	0	0	528	471	0	0	0	0	
13	0	0	0	0	532	472	0	0	0	0	
14	0	0	0	0	537	475	0	0	0	0	
15	0	0	0	0	541	476	0	0	0	0	
0	0	0	0	0	544	477	0	0	0	0	
1	0	0	0	0	546	478	0	0	0	0	
2	0	0	0	0	547	478	0	0	0	0	
3	0	0	0	0	546	477	0	0	0	0	
4	0	0	0	0	544	476	0	0	0	0	
5	0	0	0	0	541	474	0	0	0	0	
6	0	0	0	0	537	472	0	0	0	0	
7	0	0	0	0	532	469	0	0	0	0	
8	0	0	0	0	527	465	0	0	0	0	
9	0	0	0	0	520	460	0	0	0	0	
10	0	0	0	0	512	455	0	0	0	0	
11	0	0	0	0	504	448	0	0	0	0	
12	0	0	0	0	495	440	0	0	0	0	
13	0	0	0	0	485	432	0	0	0	0	
14	0	0	0	0	475	423	0	0	0	0	
15	0	0	0	0	465	413	0	0	0	0	
0	0	0	0	0	455	404	0	0	0	0	
1	0	0	0	0	446	395	0	0	0	0	
2	0	0	0	0	438	386	0	0	0	0	
3	0	0	0	0	430	378	0	0	0	0	
4	0	0	0	0	424	371	0	0	0	0	
5	0	0	0	0	419	366	0	0	0	0	
6	0	0	0	0	415	360	0	0	0	0	
7	0	0	0	0	412	355	0	0	0	0	
8	0	0	0	0	408	350	0	0	0	0	
9	0	0	0	0	402	343	0	0	0	0	
10	0	0	0	0	396	336	0	0	0	0	
11	0	0	0	0	388	328	0	0	0	0	
12	0	0	0	0	379	319	0	0	0	0	
13	0	0	0	0	369	309	0	0	0	0	
14	0	0	0	0	359	300	0	0	0	0	
15	0	0	0	0	350	291	0	0	0	0	
0	0	0	0	0	342	283	0	0	0	0	
1	0	0	0	0	336	278	0	0	0	0	
2	0	0	0	0	334	275	0	0	0	0	
3	0	0	0	0	334	276	0	0	0	0	
4	0	0	0	0	339	280	0	0	0	0	
5	0	0	0	0	350	289	0	0	0	0	
6	0	0	0	0	364	301	0	0	0	0	
7	0	0	0	0	383	318	0	0	0	0	
8	0	0	0	0	407	338	0	0	0	0	
9	0	0	0	0	433	362	0	0	0	0	
10	0	0	0	0	462	388	0	0	0	0	
11	0	0	0	0	492	416	0	0	0	0	
12	0	0	0	0	522	444	0	0	0	0	
13	0	0	0	0	551	471	0	0	0	0	
14	0	0	0	0	577	496	0	0	0	0	
15	0	0	0	0	599	517	0	0	0	0	
0	0	0	0	0	615	534	0	0	0	0	
1	0	0	0	0	624	544	0	0	0	0	
2	0	0	0	0	625	548	0	0	0	0	
3	0	0	0	0	620	546	0	0	0	0	
4	0	0	0	0	608	539	0	0	0	0	
5	0	0	0	0	590	526	0	0	0	0	
6	0	0	0	0	569	510	0	0	0	0	
7	0	0	0	0	546	492	0	0	0	0	
8	0	0	0	0	524	475	0	0	0	0	
9	0	0	0	0	504	460	0	0	0	0	
10	0	0	0	0	487	447	0	0	0	0	
11	0	0	0	0	476	437	0	0	0	0	
12	0	0	0	0	470	432	0	0	0	0	
13	0	0	0	0	469	430	0	0	0	0	
14	0	0	0	0	473	432	0	0	0	0	
15	0	0	0	0	481	436	0	0	0	0	
0	0	0	0	0	493	443	0	0	0	0	
1	0	0	0	0	506	453	0	0	0	0	
2	0	0	0	0	521	462	0	0	0	0	
3	0	0	0	0	535	472	0	0	0	0	
4	0	0	0	0	547	480	0	0	0	0	
5	0	0	0	0	558	487	0	0	0	0	
6	0	0	0	0	564	493	0	0	0	0	
7	0	0	0	0	569	496	0	0	0	0	
8	0	0	0	0	570	497	0	0	0	0	
9	0	0	0	0	568	497	0	0	0	0	
10	0	0	0	0	563	495	0	0	0	0	
11	0	0	0	0	558	492	0	0	0	0	
12	0	0	0	0	553	489	0	0	0	0	
13	0	0	0	0	547	487	0	0	0	0	
14	0	0	0	0	543	485	0	0	0	0	
15	0	0	0	0	540	484	0	0	0	0	
0	0	0	0	0	539	484	0	0	0	0	
1	0	0	0	0	540	486	0	0	0	0	
2	0	0	0	0	543	487	0	0	0	0	
3	0	0	0	0	546	491	0	0	0	0	
4	0	0	0	0	551	495	0	0	0	0	
5	0	0	0	0	558	499	0	0	0	0	
6	0	0	0	0	565	504	0	0	0	0	
7	0	0	0	0	572	510	0	0	0	0	
8	0	0	0	0	579	515	0	0	0	0	
9	0	0	0	0	585	519	0	0	0	0	
10	0	0	0	0	590	524	0	0	0	0	
11	0	0	0	0	593	526	0	0	0	0	
12	0	0	0	0	593	526	0	0	0	0	
13	0	0	0	0	590	523	0	0	0	0	
14	0	0	0	0	583	517	0	0	0	0	
15	0	0	0	0	574	510	0	0	0	0	
0	0	0	0	0	562	500	0	0	0	0	
1	0	0	0	0	549	489	0	0	0	0	
2	0	0	0	0	536	479	0	0	0	0	
3	0	0	0	0	523	468	0	0	0	0	
4	0	0	0	0	512	459	0	0	0	0	
5	0	0	0	0	503	452	0	0	0	0	
6	0	0	0	0	496	446	0	0	0	0	
7	0	0	0	0	493	443	0	0	0	0	
8	0	0	0	0	492	442	0	0	0	0	
9	0	0	0	0	494	444	0	0	0	0	
10	0	0	0	0	497	447	0	0	0	0	
11	0	0	0	0	503	451	0	0	0	0	
12	0	0	0	0	509	455	0	0	0	0	
13	0	0	0	0	515	461	0	0	0	0	
14	0	0	0	0	522	465	0	0	0	0	
15	0	0	0	0	528	470	0	0	0	0	
0	0	0	0	0	532	473	0	0	0	0	
1	0	0	0	0	537	476	0	0	0	0	
2	0	0	0	0	540	479	0	0	0	0	
3	0	0	0	0	543	480	0	0	0	0	
4	0	0	0	0	545	482	0	0	0	0	
5	0	0	0	0	548	484	0	0	0	0	
6	0	0	0	0	550	486	0	0	0	0	
7	0	0	0	0	553	489	0	0	0	0	
8	0	0	0	0	556	492	0	0	0	0	
9	0	0	0	0	560	496	0	0	0	0	
10	0	0	0	0	563	501	0	0	0	0	
11	0	0	0	0	568	505	0	0	0	0	
12	0	0	0	0	571	509	0	0	0	0	
13	0	0	0	0	573	512	0	0	0	0	
14	0	0	0	0	575	514	0	0	0	0	
15	0	0	0	0	575	515	0	0	0	0	
0	0	0	0	0	574	515	0	0	0	0	
1	0	0	0	0	572	514	0	0	0	0	
2	0	0	0	0	568	510	0	0	0	0	
3	0	0	0	0	564	507	0	0	0	0	
4	0	0	0	0	558	501	0	0	0	0	
5	0	0	0	0	552	496	0	0	0	0	
6	0	0	0	0	546	490	0	0	0	0	
7	0	0	0	0	540	484	0	0	0	0	
8	0	0	0	0	536	480	0	0	0	0	
9	0	0	0	0	532	476	0	0	0	0	
10	0	0	0	0	530	474	0	0	0	0	
11	0	0	0	0	529	473	0	0	0	0	
12	0	0	0	0	529	472	0	0	0	0	
13	0	0	0	0	530	473	0	0	0	0	
14	0	0	0	0	531	475	0	0	0	0	
15	0	0	0	0	532	476	0	0	0	0	
0	0	0	0	0	533	476	0	0	0	0	
1	0	0	0	0	532	476	0	0	0	0	
2	0	0	0	0	532	475	0	0	0	0	
3	0	0	0	0	530	474	0	0	0	0	
4	0	0	0	0	528	472	0	0	0	0	
5	0	0	0	0	526	470	0	0	0	0	
6	0	0	0	0	524	468	0	0	0	0	
7	0	0	0	0	524	467	0	0	0	0	
8	0	0	0	0	524	467	0	0	0	0	
9	0	0	0	0	527	468	0	0	0	0	
10	0	0	0	0	531	471	0	0	0	0	
11	0	0	0	0	536	475	0	0	0	0	
12	0	0	0	0	542	479	0	0	0	0	
13	0	0	0	0	547	484	0	0	0	0	
14	0	0	0	0	552	488	0	0	0	0	
15	0	0	0	0	556	492	0	0	0	0	
0	0	0	0	0	558	495	0	0	0	0	
1	0	0	0	0	560	497	0	0	0	0	
2	0	0	0	0	560	497	0	0	0	0	
3	0	0	0	0	558	497	0	0	0	0	
4	0	0	0	0	556	496	0	0	0	0	
5	0	0	0	0	551	495	0	0	0	0	
6	0	0	0	0	547	492	0	0	0	0	
7	0	0	0	0	541	487	0	0	0	0	
8	0	0	0	0	534	482	0	0	0	0	
9	0	0	0	0	527	476	0	0	0	0	
10	0	0	0	0	519	470	0	0	0	0	
11	0	0	0	0	512	463	0	0	0	0	
12	0	0	0	0	505	456	0	0	0	0	
13	0	0	0	0	499	450	0	0	0	0	
14	0	0	0	0	494	444	0	0	0	0	
15	0	0	0	0	490	441	0	0	0	0	
0	0	0	0	0	489	438	0	0	0	0	
1	0	0	0	0	488	436	0	0	0	0	
2	0	0	0	0	490	436	0	0	0	0	
3	0	0	0	0	493	437	0	0	0	0	
4	0	0	0	0	496	440	0	0	0	0	
5	0	0	0	0	502	443	0	0	0	0	
6	0	0	0	0	507	448	0	0	0	0	
7	0	0	0	0	513	453	0	0	0	0	
8	0	0	0	0	519	457	0	0	0	0	
9	0	0	0	0	524	463	0	0	0	0	
10	0	0	0	0	530	468	0	0	0	0	
11	0	0	0	0	535	473	0	0	0	0	
12	0	0	0	0	539	478	0	0	0	0	
13	0	0	0	0	543	482	0	0	0	0	
14	0	0	0	0	546	485	0	0	0	0	
15	0	0	0	0	548	487	0	0	0	0	
0	0	0	0	0	550	489	0	0	0	0	
1	0	0	0	0	550	489	0	0	0	0	
2	0	0	0	0	549	487	0	0	0	0	
3	0	0	0	0	547	486	0	0	0	0	
4	0	0	0	0	545	484	0	0	0	0	
5	0	0	0	0	543	481	0	0	0	0	
6	0	0	0	0	540	478	0	0	0	0	
7	0	0	0	0	537	475	0	0	0	0	
8	0	0	0	0	534	472	0	0	0	0	
9	0	0	0	0	531	470	0	0	0	0	
10	0	0	0	0	529	468	0	0	0	0	
11	0	0	0	0	527	466	0	0	0	0	
12	0	0	0	0	525	464	0	0	0	0	
13	0	0	0	0	524	463	0	0	0	0	
14	0	0	0	0	524	463	0	0	0	0	
15	0	0	0	0	525	465	0	0	0	0	
0	0	0	0	0	526	466	0	0	0	0	
1	0	0	0	0	528	468	0	0	0	0	
2	0	0	0	0	531	471	0	0	0	0	
3	0	0	0	0	534	474	0	0	0	0	
4	0	0	0	0	537	477	0	0	0	0	
5	0	0	0	0	540	480	0	0	0	0	
6	0	0	0	0	542	481	0	0	0	0	
7	0	0	0	0	542	481	0	0	0	0	
8	0	0	0	0	540	479	0	0	0	0	
9	0	0	0	0	537	476	0	0	0	0	
10	0	0	0	0	532	471	0	0	0	0	
11	0	0	0	0	527	466	0	0	0	0	
12	0	0	0	0	521	460	0	0	0	0	
13	0	0	0	0	515	455	0	0	0	0	
14	0	0	0	0	510	451	0	0	0	0	
15	0	0	0	0	506	447	0	0	0	0	
0	0	0	0	0	503	445	0	0	0	0	
1	0	0	0	0	502	444	0	0	0	0	
2	0	0	0	0	503	445	0	0	0	0	
3	0	0	0	0	506	448	0	0	0	0	
4	0	0	0	0	510	451	0	0	0	0	
5	0	0	0	0	516	455	0	0	0	0	
6	0	0	0	0	521	460	0	0	0	0	
7	0	0	0	0	527	464	0	0	0	0	
8	0	0	0	0	531	467	0	0	0	0	
9	0	0	0	0	534	468	0	0	0	0	
10	0	0	0	0	536	468	0	0	0	0	
11	0	0	0	0	536	467	0	0	0	0	
12	0	0	0	0	536	467	0	0	0	0	
13	0	0	0	0	534	465	0	0	0	0	
14	0	0	0	0	533	464	0	0	0	0	
15	0	0	0	0	533	465	0	0	0	0	
0	0	0	0	0	534	467	0	0	0	0	
1	0	0	0	0	536	470	0	0	0	0	
2	0	0	0	0	539	474	0	0	0	0	
3	0	0	0	0	543	479	0	0	0	0	
4	0	0	0	0	547	483	0	0	0	0	
5	0	0	0	0	550	487	0	0	0	0	
6	0	0	0	0	552	489	0	0	0	0	
7	0	0	0	0	551	489	0	0	0	0	
8	0	0	0	0	548	487	0	0	0	0	
9	0	0	0	0	543	483	0	0	0	0	
10	0	0	0	0	535	476	0	0	0	0	
11	0	0	0	0	525	467	0	0	0	0	
12	0	0	0	0	515	458	0	0	0	0	
13	0	0	0	0	504	448	0	0	0	0	
14	0	0	0	0	494	438	0	0	0	0	
15	0	0	0	0	484	429	0	0	0	0	
0	0	0	0	0	477	422	0	0	0	0	
1	0	0	0	0	472	415	0	0	0	0	
2	0	0	0	0	470	412	0	0	0	0	
3	0	0	0	0	470	411	0	0	0	0	
4	0	0	0	0	472	413	0	0	0	0	
5	0	0	0	0	478	417	0	0	0	0	
6	0	0	0	0	486	423	0	0	0	0	
7	0	0	0	0	495	431	0	0	0	0	
8	0	0	0	0	505	440	0	0	0	0	
9	0	0	0	0	516	450	0	0	0	0	
10	0	0	0	0	527	459	0	0	0	0	
11	0	0	0	0	536	468	0	0	0	0	
12	0	0	0	0	545	476	0	0	0	0	
13	0	0	0	0	551	481	0	0	0	0	
14	0	0	0	0	554	484	0	0	0	0	
15	0	0	0	0	557	486	0	0	0	0	
0	0	0	0	0	557	486	0	0	0	0	
1	0	0	0	0	556	486	0	0	0	0	
2	0	0	0	0	554	484	0	0	0	0	
3	0	0	0	0	552	483	0	0	0	0	
4	0	0	0	0	550	482	0	0	0	0	
5	0	0	0	0	547	480	0	0	0	0	
6	0	0	0	0	545	479	0	0	0	0	
7	0	0	0	0	543	478	0	0	0	0	
8	0	0	0	0	540	477	0	0	0	0	
9	0	0	0	0	539	476	0	0	0	0	
10	0	0	0	0	537	475	0	0	0	0	
11	0	0	0	0	535	474	0	0	0	0	
12	0	0	0	0	531	472	0	0	0	0	
13	0	0	0	0	527	468	0	0	0	0	
14	0	0	0	0	524	466	0	0	0	0	
15	0	0	0	0	520	462	0	0	0	0	
0	0	0	0	0	516	459	0	0	0	0	
1	0	0	0	0	514	456	0	0	0	0	
2	0	0	0	0	512	455	0	0	0	0	
3	0	0	0	0	511	454	0	0	0	0	
4	0	0	0	0	512	454	0	0	0	0	
5	0	0	0	0	513	454	0	0	0	0	
6	0	0	0	0	515	455	0	0	0	0	
7	0	0	0	0	518	456	0	0	0	0	
8	0	0	0	0	521	459	0	0	0	0	
9	0	0	0	0	525	462	0	0	0	0	
10	0	0	0	0	528	465	0	0	0	0	
11	0	0	0	0	532	468	0	0	0	0	
12	0	0	0	0	536	472	0	0	0	0	
13	0	0	0	0	539	476	0	0	0	0	
14	0	0	0	0	541	479	0	0	0	0	
15	0	0	0	0	543	481	0	0	0	0	
0	0	0	0	0	545	483	0	0	0	0	
1	0	0	0	0	545	484	0	0	0	0	
2	0	0	0	0	544	484	0	0	0	0	
3	0	0	0	0	543	484	0	0	0	0	
4	0	0	0	0	542	483	0	0	0	0	
5	0	0	0	0	540	481	0	0	0	0	
6	0	0	0	0	538	479	0	0	0	0	
7	0	0	0	0	536	477	0	0	0	0	
8	0	0	0	0	534	474	0	0	0	0	
9	0	0	0	0	534	473	0	0	0	0	
10	0	0	0	0	533	472	0	0	0	0	
11	0	0	0	0	534	472	0	0	0	0	
12	0	0	0	0	536	472	0	0	0	0	
13	0	0	0	0	539	475	0	0	0	0	
14	0	0	0	0	542	477	0	0	0	0	
15	0	0	0	0	546	480	0	0	0	0	
0	0	0	0	0	549	484	0	0	0	0	
1	0	0	0	0	553	487	0	0	0	0	
2	0	0	0	0	556	491	0	0	0	0	
3	0	0	0	0	558	493	0	0	0	0	
4	0	0	0	0	558	495	0	0	0	0	
5	0	0	0	0	558	495	0	0	0	0	
6	0	0	0	0	557	495	0	0	0	0	
7	0	0	0	0	555	494	0	0	0	0	
8	0	0	0	0	553	494	0	0	0	0	
9	0	0	0	0	551	492	0	0	0	0	
10	0	0	0	0	549	490	0	0	0	0	
11	0	0	0	0	547	487	0	0	0	0	
12	0	0	0	0	543	485	0	0	0	0	
13	0	0	0	0	541	481	0	0	0	0	
14	0	0	0	0	538	478	0	0	0	0	
15	0	0	0	0	535	474	0	0	0	0	
0	0	0	0	0	532	471	0	0	0	0	
1	0	0	0	0	529	467	0	0	0	0	
2	0	0	0	0	527	464	0	0	0	0	
3	0	0	0	0	525	462	0	0	0	0	
4	0	0	0	0	523	460	0	0	0	0	
5	0	0	0	0	521	459	0	0	0	0	
6	0	0	0	0	521	459	0	0	0	0	
7	0	0	0	0	521	459	0	0	0	0	
8	0	0	0	0	522	460	0	0	0	0	
9	0	0	0	0	523	462	0	0	0	0	
10	0	0	0	0	526	464	0	0	0	0	
11	0	0	0	0	529	467	0	0	0	0	
12	0	0	0	0	532	471	0	0	0	0	
13	0	0	0	0	537	475	0	0	0	0	
14	0	0	0	0	541	478	0	0	0	0	
15	0	0	0	0	546	482	0	0	0	0	
0	0	0	0	0	550	486	0	0	0	0	
1	0	0	0	0	553	488	0	0	0	0	
2	0	0	0	0	556	490	0	0	0	0	
3	0	0	0	0	558	492	0	0	0	0	
4	0	0	0	0	559	492	0	0	0	0	
5	0	0	0	0	558	491	0	0	0	0	
6	0	0	0	0	557	490	0	0	0	0	
7	0	0	0	0	554	487	0	0	0	0	
8	0	0	0	0	551	484	0	0	0	0	
9	0	0	0	0	547	480	0	0	0	0	
10	0	0	0	0	543	477	0	0	0	0	
11	0	0	0	0	540	474	0	0	0	0	
12	0	0	0	0	536	472	0	0	0	0	
13	0	0	0	0	533	469	0	0	0	0	
14	0	0	0	0	531	468	0	0	0	0	
15	0	0	0	0	529	468	0	0	0	0	
0	0	0	0	0	528	468	0	0	0	0	
1	0	0	0	0	528	468	0	0	0	0	
2	0	0	0	0	529	469	0	0	0	0	
3	0	0	0	0	530	470	0	0	0	0	
4	0	0	0	0	531	471	0	0	0	0	
5	0	0	0	0	532	471	0	0	0	0	
6	0	0	0	0	532	470	0	0	0	0	
7	0	0	0	0	533	470	0	0	0	0	
8	0	0	0	0	533	470	0	0	0	0	
9	0	0	0	0	534	470	0	0	0	0	
10	0	0	0	0	535	471	0	0	0	0	
11	0	0	0	0	536	472	0	0	0	0	
12	0	0	0	0	539	475	0	0	0	0	
13	0	0	0	0	543	479	0	0	0	0	
14	0	0	0	0	546	483	0	0	0	0	
15	0	0	0	0	550	488	0	0	0	0	
0	0	0	0	0	553	492	0	0	0	0	
1	0	0	0	0	556	496	0	0	0	0	
2	0	0	0	0	558	497	0	0	0	0	
3	0	0	0	0	558	497	0	0	0	0	
4	0	0	0	0	557	495	0	0	0	0	
5	0	0	0	0	553	492	0	0	0	0	
6	0	0	0	0	548	486	0	0	0	0	
7	0	0	0	0	541	479	0	0	0	0	
8	0	0	0	0	534	471	0	0	0	0	
9	0	0	0	0	525	463	0	0	0	0	
10	0	0	0	0	518	455	0	0	0	0	
11	0	0	0	0	511	449	0	0	0	0	
12	0	0	0	0	506	445	0	0	0	0	
13	0	0	0	0	504	443	0	0	0	0	
14	0	0	0	0	504	443	0	0	0	0	
15	0	0	0	0	506	446	0	0	0	0	
0	0	0	0	0	511	450	0	0	0	0	
1	0	0	0	0	518	457	0	0	0	0	
2	0	0	0	0	526	465	0	0	0	0	
3	0	0	0	0	535	473	0	0	0	0	
4	0	0	0	0	544	482	0	0	0	0	
5	0	0	0	0	551	489	0	0	0	0	
6	0	0	0	0	559	495	0	0	0	0	
7	0	0	0	0	563	499	0	0	0	0	
8	0	0	0	0	566	502	0	0	0	0	
9	0	0	0	0	566	502	0	0	0	0	
10	0	0	0	0	565	500	0	0	0	0	
11	0	0	0	0	561	497	0	0	0	0	
12	0	0	0	0	558	494	0	0	0	0	
13	0	0	0	0	553	489	0	0	0	0	
14	0	0	0	0	549	486	0	0	0	0	
15	0	0	0	0	545	482	0	0	0	0	
0	0	0	0	0	543	480	0	0	0	0	
1	0	0	0	0	541	477	0	0	0	0	
2	0	0	0	0	540	476	0	0	0	0	
3	0	0	0	0	540	476	0	0	0	0	
4	0	0	0	0	540	476	0	0	0	0	
5	0	0	0	0	541	476	0	0	0	0	
6	0	0	0	0	541	477	0	0	0	0	
7	0	0	0	0	542	478	0	0	0	0	
8	0	0	0	0	542	479	0	0	0	0	
9	0	0	0	0	541	478	0	0	0	0	
10	0	0	0	0	539	478	0	0	0	0	
11	0	0	0	0	536	477	0	0	0	0	
12	0	0	0	0	534	476	0	0	0	0	
13	0	0	0	0	531	473	0	0	0	0	
14	0	0	0	0	528	471	0	0	0	0	
15	0	0	0	0	525	469	0	0	0	0	
0	0	0	0	0	523	467	0	0	0	0	
1	0	0	0	0	521	465	0	0	0	0	
2	0	0	0	0	520	463	0	0	0	0	
3	0	0	0	0	519	461	0	0	0	0	
4	0	0	0	0	519	461	0	0	0	0	
5	0	0	0	0	520	461	0	0	0	0	
6	0	0	0	0	522	461	0	0	0	0	
7	0	0	0	0	524	462	0	0	0	0	
8	0	0	0	0	526	462	0	0	0	0	
9	0	0	0	0	528	464	0	0	0	0	
10	0	0	0	0	530	465	0	0	0	0	
11	0	0	0	0	532	467	0	0	0	0	
12	0	0	0	0	534	469	0	0	0	0	
13	0	0	0	0	536	471	0	0	0	0	
14	0	0	0	0	538	473	0	0	0	0	
15	0	0	0	0	541	476	0	0	0	0	
0	0	0	0	0	543	479	0	0	0	0	
1	0	0	0	0	547	483	0	0	0	0	
2	0	0	0	0	551	487	0	0	0	0	
3	0	0	0	0	556	491	0	0	0	0	
4	0	0	0	0	561	496	0	0	0	0	
5	0	0	0	0	566	500	0	0	0	0	
6	0	0	0	0	569	504	0	0	0	0	
7	0	0	0	0	572	506	0	0	0	0	
8	0	0	0	0	572	508	0	0	0	0	
9	0	0	0	0	571	507	0	0	0	0	
10	0	0	0	0	567	504	0	0	0	0	
11	0	0	0	0	560	499	0	0	0	0	
12	0	0	0	0	551	492	0	0	0	0	
13	0	0	0	0	542	485	0	0	0	0	
14	0	0	0	0	532	478	0	0	0	0	
15	0	0	0	0	523	470	0	0	0	0	
0	0	0	0	0	515	463	0	0	0	0	
1	0	0	0	0	509	459	0	0	0	0	
2	0	0	0	0	504	455	0	0	0	0	
3	0	0	0	0	503	453	0	0	0	0	
4	0	0	0	0	502	451	0	0	0	0	
5	0	0	0	0	503	451	0	0	0	0	
6	0	0	0	0	505	451	0	0	0	0	
7	0	0	0	0	508	452	0	0	0	0	
8	0	0	0	0	511	453	0	0	0	0	
9	0	0	0	0	513	454	0	0	0	0	
10	0	0	0	0	515	453	0	0	0	0	
11	0	0	0	0	517	453	0	0	0	0	
12	0	0	0	0	518	453	0	0	0	0	
13	0	0	0	0	519	453	0	0	0	0	
14	0	0	0	0	520	454	0	0	0	0	
15	0	0	0	0	521	455	0	0	0	0	
0	0	0	0	0	522	457	0	0	0	0	
1	0	0	0	0	524	460	0	0	0	0	
2	0	0	0	0	526	463	0	0	0	0	
3	0	0	0	0	529	467	0	0	0	0	
4	0	0	0	0	532	472	0	0	0	0	
5	0	0	0	0	536	476	0	0	0	0	
6	0	0	0	0	540	480	0	0	0	0	
7	0	0	0	0	543	483	0	0	0	0	
8	0	0	0	0	546	487	0	0	0	0	
9	0	0	0	0	550	490	0	0	0	0	
10	0	0	0	0	552	492	0	0	0	0	
11	0	0	0	0	556	495	0	0	0	0	
12	0	0	0	0	560	498	0	0	0	0	
13	0	0	0	0	563	501	0	0	0	0	
14	0	0	0	0	567	503	0	0	0	0	
15	0	0	0	0	570	506	0	0	0	0	
0	0	0	0	0	573	507	0	0	0	0	
1	0	0	0	0	574	508	0	0	0	0	
2	0	0	0	0	575	508	0	0	0	0	
3	0	0	0	0	573	506	0	0	0	0	
4	0	0	0	0	570	503	0	0	0	0	
5	0	0	0	0	565	499	0	0	0	0	
6	0	0	0	0	558	494	0	0	0	0	
7	0	0	0	0	550	487	0	0	0	0	
8	0	0	0	0	540	479	0	0	0	0	
9	0	0	0	0	529	470	0	0	0	0	
10	0	0	0	0	519	463	0	0	0	0	
11	0	0	0	0	510	455	0	0	0	0	
12	0	0	0	0	502	448	0	0	0	0	
13	0	0	0	0	495	443	0	0	0	0	
14	0	0	0	0	489	439	0	0	0	0	
15	0	0	0	0	487	436	0	0	0	0	
0	0	0	0	0	487	435	0	0	0	0	
1	0	0	0	0	488	435	0	0	0	0	
2	0	0	0	0	492	437	0	0	0	0	
3	0	0	0	0	497	440	0	0	0	0	
4	0	0	0	0	504	444	0	0	0	0	
5	0	0	0	0	513	450	0	0	0	0	
6	0	0	0	0	522	457	0	0	0	0	
7	0	0	0	0	531	464	0	0	0	0	
8	0	0	0	0	540	472	0	0	0	0	
9	0	0	0	0	550	479	0	0	0	0	
10	0	0	0	0	557	486	0	0	0	0	
11	0	0	0	0	563	492	0	0	0	0	
12	0	0	0	0	568	497	0	0	0	0	
13	0	0	0	0	571	502	0	0	0	0	
14	0	0	0	0	574	505	0	0	0	0	
15	0	0	0	0	575	508	0	0	0	0	
0	0	0	0	0	574	509	0	0	0	0	
1	0	0	0	0	573	510	0	0	0	0	
2	0	0	0	0	570	508	0	0	0	0	
3	0	0	0	0	567	506	0	0	0	0	
4	0	0	0	0	562	504	0	0	0	0	
5	0	0	0	0	558	500	0	0	0	0	
6	0	0	0	0	553	497	0	0	0	0	
7	0	0	0	0	549	494	0	0	0	0	
8	0	0	0	0	546	491	0	0	0	0	
9	0	0	0	0	543	488	0	0	0	0	
10	0	0	0	0	540	486	0	0	0	0	
11	0	0	0	0	538	484	0	0	0	0	
12	0	0	0	0	536	482	0	0	0	0	
13	0	0	0	0	534	479	0	0	0	0	
14	0	0	0	0	531	477	0	0	0	0	
15	0	0	0	0	529	473	0	0	0	0	
0	0	0	0	0	526	470	0	0	0	0	
1	0	0	0	0	522	466	0	0	0	0	
2	0	0	0	0	519	463	0	0	0	0	
3	0	0	0	0	517	460	0	0	0	0	
4	0	0	0	0	515	457	0	0	0	0	
5	0	0	0	0	515	456	0	0	0	0	
6	0	0	0	0	515	456	0	0	0	0	
7	0	0	0	0	517	457	0	0	0	0	
8	0	0	0	0	520	460	0	0	0	0	
9	0	0	0	0	524	463	0	0	0	0	
10	0	0	0	0	529	468	0	0	0	0	
11	0	0	0	0	535	474	0	0	0	0	
12	0	0	0	0	542	480	0	0	0	0	
13	0	0	0	0	549	487	0	0	0	0	
14	0	0	0	0	556	495	0	0	0	0	
15	0	0	0	0	563	501	0	0	0	0	
0	0	0	0	0	567	506	0	0	0	0	
1	0	0	0	0	570	509	0	0	0	0	
2	0	0	0	0	571	510	0	0	0	0	
3	0	0	0	0	568	508	0	0	0	0	
4	0	0	0	0	564	504	0	0	0	0	
5	0	0	0	0	557	499	0	0	0	0	
6	0	0	0	0	550	492	0	0	0	0	
7	0	0	0	0	542	485	0	0	0	0	
8	0	0	0	0	535	478	0	0	0	0	
9	0	0	0	0	527	472	0	0	0	0	
10	0	0	0	0	523	467	0	0	0	0	
11	0	0	0	0	518	463	0	0	0	0	
12	0	0	0	0	516	461	0	0	0	0	
13	0	0	0	0	515	459	0	0	0	0	
14	0	0	0	0	515	459	0	0	0	0	
15	0	0	0	0	516	459	0	0	0	0	
0	0	0	0	0	518	460	0	0	0	0	
1	0	0	0	0	520	461	0	0	0	0	
2	0	0	0	0	522	462	0	0	0	0	
3	0	0	0	0	523	462	0	0	0	0	
4	0	0	0	0	524	463	0	0	0	0	
5	0	0	0	0	525	464	0	0	0	0	
6	0	0	0	0	526	465	0	0	0	0	
7	0	0	0	0	526	465	0	0	0	0	
8	0	0	0	0	526	466	0	0	0	0	
9	0	0	0	0	526	467	0	0	0	0	
10	0	0	0	0	526	467	0	0	0	0	
11	0	0	0	0	526	468	0	0	0	0	
12	0	0	0	0	525	468	0	0	0	0	
13	0	0	0	0	524	469	0	0	0	0	
14	0	0	0	0	524	469	0	0	0	0	
15	0	0	0	0	523	468	0	0	0	0	
0	0	0	0	0	522	468	0	0	0	0	
1	0	0	0	0	522	468	0	0	0	0	
2	0	0	0	0	522	469	0	0	0	0	
3	0	0	0	0	523	469	0	0	0	0	
4	0	0	0	0	526	471	0	0	0	0	
5	0	0	0	0	528	472	0	0	0	0	
6	0	0	0	0	531	474	0	0	0	0	
7	0	0	0	0	535	476	0	0	0	0	
8	0	0	0	0	538	478	0	0	0	0	
9	0	0	0	0	541	480	0	0	0	0	
10	0	0	0	0	544	482	0	0	0	0	
11	0	0	0	0	545	483	0	0	0	0	
12	0	0	0	0	546	484	0	0	0	0	
13	0	0	0	0	545	483	0	0	0	0	
14	0	0	0	0	543	483	0	0	0	0	
15	0	0	0	0	541	481	0	0	0	0	
0	0	0	0	0	538	480	0	0	0	0	
1	0	0	0	0	535	478	0	0	0	0	
2	0	0	0	0	531	475	0	0	0	0	
3	0	0	0	0	528	473	0	0	0	0	
4	0	0	0	0	525	471	0	0	0	0	
5	0	0	0	0	523	469	0	0	0	0	
6	0	0	0	0	521	468	0	0	0	0	
7	0	0	0	0	520	466	0	0	0	0	
8	0	0	0	0	519	465	0	0	0	0	
9	0	0	0	0	519	465	0	0	0	0	
10	0	0	0	0	519	464	0	0	0	0	
11	0	0	0	0	519	464	0	0	0	0	
12	0	0	0	0	519	464	0	0	0	0	
13	0	0	0	0	520	464	0	0	0	0	
14	0	0	0	0	521	465	0	0	0	0	
15	0	0	0	0	523	466	0	0	0	0	
0	0	0	0	0	524	467	0	0	0	0	
1	0	0	0	0	526	469	0	0	0	0	
2	0	0	0	0	529	472	0	0	0	0	
3	0	0	0	0	532	474	0	0	0	0	
4	0	0	0	0	535	476	0	0	0	0	
5	0	0	0	0	539	479	0	0	0	0	
6	0	0	0	0	542	481	0	0	0	0	
7	0	0	0	0	545	484	0	0	0	0	
8	0	0	0	0	550	487	0	0	0	0	
9	0	0	0	0	554	491	0	0	0	0	
10	0	0	0	0	558	495	0	0	0	0	
11	0	0	0	0	562	498	0	0	0	0	
12	0	0	0	0	566	501	0	0	0	0	
13	0	0	0	0	568	503	0	0	0	0	
14	0	0	0	0	569	504	0	0	0	0	
15	0	0	0	0	568	504	0	0	0	0	
0	0	0	0	0	566	503	0	0	0	0	
1	0	0	0	0	563	500	0	0	0	0	
2	0	0	0	0	557	496	0	0	0	0	
3	0	0	0	0	550	491	0	0	0	0	
4	0	0	0	0	542	484	0	0	0	0	
5	0	0	0	0	533	477	0	0	0	0	
6	0	0	0	0	524	469	0	0	0	0	
7	0	0	0	0	515	462	0	0	0	0	
8	0	0	0	0	508	455	0	0	0	0	
9	0	0	0	0	500	448	0	0	0	0	
10	0	0	0	0	495	442	0	0	0	0	
11	0	0	0	0	491	438	0	0	0	0	
12	0	0	0	0	488	434	0	0	0	0	
13	0	0	0	0	488	433	0	0	0	0	
14	0	0	0	0	489	433	0	0	0	0	
15	0	0	0	0	493	434	0	0	0	0	
0	0	0	0	0	498	438	0	0	0	0	
1	0	0	0	0	505	443	0	0	0	0	
2	0	0	0	0	512	449	0	0	0	0	
3	0	0	0	0	521	456	0	0	0	0	
4	0	0	0	0	529	464	0	0	0	0	
5	0	0	0	0	539	473	0	0	0	0	
6	0	0	0	0	547	482	0	0	0	0	
7	0	0	0	0	557	492	0	0	0	0	
8	0	0	0	0	566	501	0	0	0	0	
9	0	0	0	0	574	509	0	0	0	0	
10	0	0	0	0	580	517	0	0	0	0	
11	0	0	0	0	587	523	0	0	0	0	
12	0	0	0	0	590	527	0	0	0	0	
13	0	0	0	0	591	529	0	0	0	0	
14	0	0	0	0	590	527	0	0	0	0	
15	0	0	0	0	585	523	0	0	0	0	
0	0	0	0	0	577	516	0	0	0	0	
1	0	0	0	0	566	506	0	0	0	0	
2	0	0	0	0	552	494	0	0	0	0	
3	0	0	0	0	537	480	0	0	0	0	
4	0	0	0	0	520	465	0	0	0	0	
5	0	0	0	0	502	449	0	0	0	0	
6	0	0	0	0	484	432	0	0	0	0	
7	0	0	0	0	467	415	0	0	0	0	
8	0	0	0	0	450	400	0	0	0	0	
9	0	0	0	0	434	385	0	0	0	0	
10	0	0	0	0	421	373	0	0	0	0	
11	0	0	0	0	411	362	0	0	0	0	
12	0	0	0	0	403	353	0	0	0	0	
13	0	0	0	0	397	347	0	0	0	0	
14	0	0	0	0	393	342	0	0	0	0	
15	0	0	0	0	392	339	0	0	0	0	
0	0	0	0	0	391	336	0	0	0	0	
1	0	0	0	0	390	333	0	0	0	0	
2	0	0	0	0	387	329	0	0	0	0	
3	0	0	0	0	384	324	0	0	0	0	
4	0	0	0	0	377	318	0	0	0	0	
5	0	0	0	0	370	309	0	0	0	0	
6	0	0	0	0	361	300	0	0	0	0	
7	0	0	0	0	351	291	0	0	0	0	
8	0	0	0	0	343	283	0	0	0	0	
9	0	0	0	0	336	278	0	0	0	0	
10	0	0	0	0	333	275	0	0	0	0	
11	0	0	0	0	334	276	0	0	0	0	
12	0	0	0	0	340	282	0	0	0	0	
13	0	0	0	0	351	292	0	0	0	0	
14	0	0	0	0	367	307	0	0	0	0	
15	0	0	0	0	387	324	0	0	0	0	
0	0	0	0	0	410	345	0	0	0	0	
1	0	0	0	0	435	367	0	0	0	0	
2	0	0	0	0	460	390	0	0	0	0	
3	0	0	0	0	483	412	0	0	0	0	
4	0	0	0	0	506	432	0	0	0	0	
5	0	0	0	0	525	450	0	0	0	0	
6	0	0	0	0	541	465	0	0	0	0	
7	0	0	0	0	552	476	0	0	0	0	
8	0	0	0	0	560	485	0	0	0	0	
9	0	0	0	0	564	489	0	0	0	0	
10	0	0	0	0	565	492	0	0	0	0	
11	0	0	0	0	563	492	0	0	0	0	
12	0	0	0	0	560	492	0	0	0	0	
13	0	0	0	0	557	491	0	0	0	0	
14	0	0	0	0	553	489	0	0	0	0	
15	0	0	0	0	550	487	0	0	0	0	
0	0	0	0	0	547	487	0	0	0	0	
1	0	0	0	0	546	487	0	0	0	0	
2	0	0	0	0	546	489	0	0	0	0	
3	0	0	0	0	546	490	0	0	0	0	
4	0	0	0	0	547	492	0	0	0	0	
5	0	0	0	0	548	493	0	0	0	0	
6	0	0	0	0	550	495	0	0	0	0	
7	0	0	0	0	550	496	0	0	0	0	
8	0	0	0	0	550	496	0	0	0	0	
9	0	0	0	0	550	495	0	0	0	0	
10	0	0	0	0	548	494	0	0	0	0	
11	0	0	0	0	547	493	0	0	0	0	
12	0	0	0	0	546	491	0	0	0	0	
13	0	0	0	0	544	489	0	0	0	0	
14	0	0	0	0	544	488	0	0	0	0	
15	0	0	0	0	543	487	0	0	0	0	
0	0	0	0	0	544	487	0	0	0	0	
1	0	0	0	0	545	488	0	0	0	0	
2	0	0	0	0	547	490	0	0	0	0	
3	0	0	0	0	550	492	0	0	0	0	
4	0	0	0	0	552	494	0	0	0	0	
5	0	0	0	0	555	497	0	0	0	0	
6	0	0	0	0	557	499	0	0	0	0	
7	0	0	0	0	559	500	0	0	0	0	
8	0	0	0	0	560	502	0	0	0	0	
9	0	0	0	0	560	502	0	0	0	0	
10	0	0	0	0	560	503	0	0	0	0	
11	0	0	0	0	559	502	0	0	0	0	
12	0	0	0	0	558	500	0	0	0	0	
13	0	0	0	0	556	499	0	0	0	0	
14	0	0	0	0	552	496	0	0	0	0	
15	0	0	0	0	550	494	0	0	0	0	
0	0	0	0	0	548	492	0	0	0	0	
1	0	0	0	0	546	490	0	0	0	0	
2	0	0	0	0	545	488	0	0	0	0	
3	0	0	0	0	545	488	0	0	0	0	
4	0	0	0	0	547	490	0	0	0	0	
5	0	0	0	0	550	492	0	0	0	0	
6	0	0	0	0	552	494	0	0	0	0	
7	0	0	0	0	557	497	0	0	0	0	
8	0	0	0	0	561	500	0	0	0	0	
9	0	0	0	0	565	504	0	0	0	0	
10	0	0	0	0	569	508	0	0	0	0	
11	0	0	0	0	572	511	0	0	0	0	
12	0	0	0	0	573	512	0	0	0	0	
13	0	0	0	0	572	512	0	0	0	0	
14	0	0	0	0	570	511	0	0	0	0	
15	0	0	0	0	565	508	0	0	0	0	
0	0	0	0	0	559	503	0	0	0	0	
1	0	0	0	0	551	497	0	0	0	0	
2	0	0	0	0	543	491	0	0	0	0	
3	0	0	0	0	536	485	0	0	0	0	
4	0	0	0	0	528	479	0	0	0	0	
5	0	0	0	0	523	474	0	0	0	0	
6	0	0	0	0	518	470	0	0	0	0	
7	0	0	0	0	516	468	0	0	0	0	
8	0	0	0	0	517	468	0	0	0	0	
9	0	0	0	0	519	470	0	0	0	0	
10	0	0	0	0	524	472	0	0	0	0	
11	0	0	0	0	529	476	0	0	0	0	
12	0	0	0	0	536	480	0	0	0	0	
13	0	0	0	0	541	484	0	0	0	0	
