# OpenSignals Text File Format. Version 1
# {"": {"position": 0, "device": "", "device name": "", "device connection": "", "sampling rate": 1000, "resolution": [4, 1, 1, 1, 1, 10, 10, 10, 10, 6, 6], "firmware version": 1281, "comments": "", "keywords": "", "mode": 0, "sync interval": 2, "date": "", "time": "", "channels": [1, 2, 3, 4, 5, 6], "sensor": ["RAW", "RAW", "RAW", "RAW", "RAW", "RAW"], "label": ["A1", "A2", "A3", "A4", "A5", "A6"], "column": ["nSeq", "I1", "I2", "O1", "O2", "A1", "A2", "A3", "A4", "A5", "A6"], "special": [{}, {}, {}, {}, {}, {}], "digital IO": [0, 0, 1, 1], "convertedValues": 0}}
# EndOfHeader
0	0	0	0	0	579	534	0	0	0	0	
1	0	0	0	0	577	534	0	0	0	0	
2	0	0	0	0	574	533	0	0	0	0	
3	0	0	0	0	571	531	0	0	0	0	
4	0	0	0	0	567	528	0	0	0	0	
5	0	0	0	0	563	526	0	0	0	0	
6	0	0	0	0	560	524	0	0	0	0	
7	0	0	0	0	558	521	0	0	0	0	
8	0	0	0	0	556	520	0	0	0	0	
9	0	0	0	0	555	518	0	0	0	0	
10	0	0	0	0	554	515	0	0	0	0	
11	0	0	0	0	552	513	0	0	0	0	
12	0	0	0	0	550	510	0	0	0	0	
13	0	0	0	0	547	506	0	0	0	0	
14	0	0	0	0	543	502	0	0	0	0	
15	0	0	0	0	539	497	0	0	0	0	
0	0	0	0	0	533	492	0	0	0	0	
1	0	0	0	0	527	486	0	0	0	0	
2	0	0	0	0	520	480	0	0	0	0	
3	0	0	0	0	513	473	0	0	0	0	
4	0	0	0	0	505	465	0	0	0	0	
5	0	0	0	0	496	457	0	0	0	0	
6	0	0	0	0	486	448	0	0	0	0	
7	0	0	0	0	476	440	0	0	0	0	
8	0	0	0	0	467	431	0	0	0	0	
9	0	0	0	0	457	422	0	0	0	0	
10	0	0	0	0	448	413	0	0	0	0	
11	0	0	0	0	440	404	0	0	0	0	
12	0	0	0	0	432	396	0	0	0	0	
13	0	0	0	0	425	387	0	0	0	0	
14	0	0	0	0	419	380	0	0	0	0	
15	0	0	0	0	413	373	0	0	0	0	
0	0	0	0	0	408	367	0	0	0	0	
1	0	0	0	0	404	361	0	0	0	0	
2	0	0	0	0	400	356	0	0	0	0	
3	0	0	0	0	395	351	0	0	0	0	
4	0	0	0	0	390	346	0	0	0	0	
5	0	0	0	0	383	339	0	0	0	0	
6	0	0	0	0	375	332	0	0	0	0	
7	0	0	0	0	365	323	0	0	0	0	
8	0	0	0	0	355	314	0	0	0	0	
9	0	0	0	0	345	305	0	0	0	0	
10	0	0	0	0	335	296	0	0	0	0	
11	0	0	0	0	327	289	0	0	0	0	
12	0	0	0	0	321	284	0	0	0	0	
13	0	0	0	0	319	281	0	0	0	0	
14	0	0	0	0	321	283	0	0	0	0	
15	0	0	0	0	327	288	0	0	0	0	
0	0	0	0	0	338	298	0	0	0	0	
1	0	0	0	0	353	312	0	0	0	0	
2	0	0	0	0	372	328	0	0	0	0	
3	0	0	0	0	395	348	0	0	0	0	
4	0	0	0	0	419	370	0	0	0	0	
5	0	0	0	0	444	392	0	0	0	0	
6	0	0	0	0	468	415	0	0	0	0	
7	0	0	0	0	491	436	0	0	0	0	
8	0	0	0	0	513	456	0	0	0	0	
9	0	0	0	0	531	475	0	0	0	0	
10	0	0	0	0	547	491	0	0	0	0	
11	0	0	0	0	560	504	0	0	0	0	
12	0	0	0	0	570	515	0	0	0	0	
13	0	0	0	0	577	524	0	0	0	0	
14	0	0	0	0	582	530	0	0	0	0	
15	0	0	0	0	585	535	0	0	0	0	
0	0	0	0	0	587	539	0	0	0	0	
1	0	0	0	0	588	542	0	0	0	0	
2	0	0	0	0	590	544	0	0	0	0	
3	0	0	0	0	591	547	0	0	0	0	
4	0	0	0	0	593	550	0	0	0	0	
5	0	0	0	0	595	552	0	0	0	0	
6	0	0	0	0	597	555	0	0	0	0	
7	0	0	0	0	599	556	0	0	0	0	
8	0	0	0	0	600	558	0	0	0	0	
9	0	0	0	0	601	560	0	0	0	0	
10	0	0	0	0	601	560	0	0	0	0	
11	0	0	0	0	601	560	0	0	0	0	
12	0	0	0	0	600	559	0	0	0	0	
13	0	0	0	0	597	558	0	0	0	0	
14	0	0	0	0	593	556	0	0	0	0	
15	0	0	0	0	589	552	0	0	0	0	
0	0	0	0	0	584	548	0	0	0	0	
1	0	0	0	0	579	543	0	0	0	0	
2	0	0	0	0	573	539	0	0	0	0	
3	0	0	0	0	567	533	0	0	0	0	
4	0	0	0	0	561	527	0	0	0	0	
5	0	0	0	0	556	521	0	0	0	0	
6	0	0	0	0	551	516	0	0	0	0	
7	0	0	0	0	547	513	0	0	0	0	
8	0	0	0	0	545	510	0	0	0	0	
9	0	0	0	0	545	509	0	0	0	0	
10	0	0	0	0	547	509	0	0	0	0	
11	0	0	0	0	549	510	0	0	0	0	
12	0	0	0	0	552	513	0	0	0	0	
13	0	0	0	0	556	516	0	0	0	0	
14	0	0	0	0	561	519	0	0	0	0	
15	0	0	0	0	565	524	0	0	0	0	
0	0	0	0	0	570	529	0	0	0	0	
1	0	0	0	0	574	533	0	0	0	0	
2	0	0	0	0	577	538	0	0	0	0	
3	0	0	0	0	580	542	0	0	0	0	
4	0	0	0	0	583	545	0	0	0	0	
5	0	0	0	0	584	548	0	0	0	0	
6	0	0	0	0	585	550	0	0	0	0	
7	0	0	0	0	586	552	0	0	0	0	
8	0	0	0	0	585	552	0	0	0	0	
9	0	0	0	0	585	551	0	0	0	0	
10	0	0	0	0	583	551	0	0	0	0	
11	0	0	0	0	581	549	0	0	0	0	
12	0	0	0	0	579	547	0	0	0	0	
13	0	0	0	0	576	543	0	0	0	0	
14	0	0	0	0	574	541	0	0	0	0	
15	0	0	0	0	572	539	0	0	0	0	
0	0	0	0	0	570	536	0	0	0	0	
1	0	0	0	0	568	534	0	0	0	0	
2	0	0	0	0	566	532	0	0	0	0	
3	0	0	0	0	564	531	0	0	0	0	
4	0	0	0	0	563	531	0	0	0	0	
5	0	0	0	0	563	531	0	0	0	0	
6	0	0	0	0	562	531	0	0	0	0	
7	0	0	0	0	563	532	0	0	0	0	
8	0	0	0	0	563	533	0	0	0	0	
9	0	0	0	0	564	533	0	0	0	0	
10	0	0	0	0	565	534	0	0	0	0	
11	0	0	0	0	566	534	0	0	0	0	
12	0	0	0	0	568	535	0	0	0	0	
13	0	0	0	0	571	537	0	0	0	0	
14	0	0	0	0	574	540	0	0	0	0	
15	0	0	0	0	578	543	0	0	0	0	
0	0	0	0	0	583	546	0	0	0	0	
1	0	0	0	0	588	549	0	0	0	0	
2	0	0	0	0	592	552	0	0	0	0	
3	0	0	0	0	596	556	0	0	0	0	
4	0	0	0	0	599	559	0	0	0	0	
5	0	0	0	0	601	561	0	0	0	0	
6	0	0	0	0	602	563	0	0	0	0	
7	0	0	0	0	601	563	0	0	0	0	
8	0	0	0	0	600	562	0	0	0	0	
9	0	0	0	0	596	560	0	0	0	0	
10	0	0	0	0	591	557	0	0	0	0	
11	0	0	0	0	585	553	0	0	0	0	
12	0	0	0	0	578	547	0	0	0	0	
13	0	0	0	0	571	541	0	0	0	0	
14	0	0	0	0	563	534	0	0	0	0	
15	0	0	0	0	555	527	0	0	0	0	
0	0	0	0	0	547	520	0	0	0	0	
1	0	0	0	0	540	513	0	0	0	0	
2	0	0	0	0	534	508	0	0	0	0	
3	0	0	0	0	528	502	0	0	0	0	
4	0	0	0	0	524	498	0	0	0	0	
5	0	0	0	0	520	495	0	0	0	0	
6	0	0	0	0	519	492	0	0	0	0	
7	0	0	0	0	518	491	0	0	0	0	
8	0	0	0	0	519	491	0	0	0	0	
9	0	0	0	0	520	492	0	0	0	0	
10	0	0	0	0	524	495	0	0	0	0	
11	0	0	0	0	528	499	0	0	0	0	
12	0	0	0	0	533	503	0	0	0	0	
13	0	0	0	0	538	508	0	0	0	0	
14	0	0	0	0	544	513	0	0	0	0	
15	0	0	0	0	550	518	0	0	0	0	
0	0	0	0	0	556	523	0	0	0	0	
1	0	0	0	0	560	527	0	0	0	0	
2	0	0	0	0	564	531	0	0	0	0	
3	0	0	0	0	568	535	0	0	0	0	
4	0	0	0	0	570	537	0	0	0	0	
5	0	0	0	0	571	539	0	0	0	0	
6	0	0	0	0	572	540	0	0	0	0	
7	0	0	0	0	572	540	0	0	0	0	
8	0	0	0	0	571	540	0	0	0	0	
9	0	0	0	0	571	539	0	0	0	0	
10	0	0	0	0	571	540	0	0	0	0	
11	0	0	0	0	571	541	0	0	0	0	
12	0	0	0	0	573	543	0	0	0	0	
13	0	0	0	0	575	546	0	0	0	0	
14	0	0	0	0	579	550	0	0	0	0	
15	0	0	0	0	583	555	0	0	0	0	
0	0	0	0	0	588	560	0	0	0	0	
1	0	0	0	0	592	564	0	0	0	0	
2	0	0	0	0	596	569	0	0	0	0	
3	0	0	0	0	600	572	0	0	0	0	
4	0	0	0	0	602	574	0	0	0	0	
5	0	0	0	0	602	574	0	0	0	0	
6	0	0	0	0	601	573	0	0	0	0	
7	0	0	0	0	598	571	0	0	0	0	
8	0	0	0	0	595	567	0	0	0	0	
9	0	0	0	0	589	561	0	0	0	0	
10	0	0	0	0	583	555	0	0	0	0	
11	0	0	0	0	575	548	0	0	0	0	
12	0	0	0	0	568	540	0	0	0	0	
13	0	0	0	0	560	534	0	0	0	0	
14	0	0	0	0	552	527	0	0	0	0	
15	0	0	0	0	546	521	0	0	0	0	
0	0	0	0	0	540	516	0	0	0	0	
1	0	0	0	0	537	513	0	0	0	0	
2	0	0	0	0	535	511	0	0	0	0	
3	0	0	0	0	535	511	0	0	0	0	
4	0	0	0	0	537	512	0	0	0	0	
5	0	0	0	0	540	515	0	0	0	0	
6	0	0	0	0	544	519	0	0	0	0	
7	0	0	0	0	550	523	0	0	0	0	
8	0	0	0	0	555	528	0	0	0	0	
9	0	0	0	0	561	533	0	0	0	0	
10	0	0	0	0	567	538	0	0	0	0	
11	0	0	0	0	571	542	0	0	0	0	
12	0	0	0	0	575	544	0	0	0	0	
13	0	0	0	0	577	546	0	0	0	0	
14	0	0	0	0	579	548	0	0	0	0	
15	0	0	0	0	579	548	0	0	0	0	
0	0	0	0	0	579	548	0	0	0	0	
1	0	0	0	0	579	548	0	0	0	0	
2	0	0	0	0	579	548	0	0	0	0	
3	0	0	0	0	579	548	0	0	0	0	
4	0	0	0	0	579	549	0	0	0	0	
5	0	0	0	0	579	550	0	0	0	0	
6	0	0	0	0	580	551	0	0	0	0	
7	0	0	0	0	581	552	0	0	0	0	
8	0	0	0	0	582	553	0	0	0	0	
9	0	0	0	0	582	555	0	0	0	0	
10	0	0	0	0	583	556	0	0	0	0	
11	0	0	0	0	583	556	0	0	0	0	
12	0	0	0	0	583	556	0	0	0	0	
13	0	0	0	0	582	555	0	0	0	0	
14	0	0	0	0	579	554	0	0	0	0	
15	0	0	0	0	577	552	0	0	0	0	
0	0	0	0	0	574	550	0	0	0	0	
1	0	0	0	0	571	547	0	0	0	0	
2	0	0	0	0	568	544	0	0	0	0	
3	0	0	0	0	565	542	0	0	0	0	
4	0	0	0	0	562	539	0	0	0	0	
5	0	0	0	0	560	537	0	0	0	0	
6	0	0	0	0	559	536	0	0	0	0	
7	0	0	0	0	557	535	0	0	0	0	
8	0	0	0	0	557	534	0	0	0	0	
9	0	0	0	0	556	534	0	0	0	0	
10	0	0	0	0	556	533	0	0	0	0	
11	0	0	0	0	555	533	0	0	0	0	
12	0	0	0	0	554	532	0	0	0	0	
13	0	0	0	0	553	531	0	0	0	0	
14	0	0	0	0	551	531	0	0	0	0	
15	0	0	0	0	548	529	0	0	0	0	
0	0	0	0	0	546	527	0	0	0	0	
1	0	0	0	0	543	525	0	0	0	0	
2	0	0	0	0	539	522	0	0	0	0	
3	0	0	0	0	534	519	0	0	0	0	
4	0	0	0	0	531	516	0	0	0	0	
5	0	0	0	0	527	512	0	0	0	0	
6	0	0	0	0	524	510	0	0	0	0	
7	0	0	0	0	523	508	0	0	0	0	
8	0	0	0	0	522	507	0	0	0	0	
9	0	0	0	0	523	507	0	0	0	0	
10	0	0	0	0	526	508	0	0	0	0	
11	0	0	0	0	530	512	0	0	0	0	
12	0	0	0	0	536	516	0	0	0	0	
13	0	0	0	0	542	521	0	0	0	0	
14	0	0	0	0	549	527	0	0	0	0	
15	0	0	0	0	556	533	0	0	0	0	
0	0	0	0	0	564	539	0	0	0	0	
1	0	0	0	0	571	545	0	0	0	0	
2	0	0	0	0	577	551	0	0	0	0	
3	0	0	0	0	582	555	0	0	0	0	
4	0	0	0	0	585	559	0	0	0	0	
5	0	0	0	0	587	560	0	0	0	0	
6	0	0	0	0	588	561	0	0	0	0	
7	0	0	0	0	587	560	0	0	0	0	
8	0	0	0	0	583	558	0	0	0	0	
9	0	0	0	0	579	554	0	0	0	0	
10	0	0	0	0	574	550	0	0	0	0	
11	0	0	0	0	569	545	0	0	0	0	
12	0	0	0	0	563	541	0	0	0	0	
13	0	0	0	0	559	537	0	0	0	0	
14	0	0	0	0	556	535	0	0	0	0	
15	0	0	0	0	554	533	0	0	0	0	
0	0	0	0	0	555	534	0	0	0	0	
1	0	0	0	0	556	536	0	0	0	0	
2	0	0	0	0	560	539	0	0	0	0	
3	0	0	0	0	565	543	0	0	0	0	
4	0	0	0	0	572	549	0	0	0	0	
5	0	0	0	0	577	554	0	0	0	0	
6	0	0	0	0	583	560	0	0	0	0	
7	0	0	0	0	589	564	0	0	0	0	
8	0	0	0	0	593	568	0	0	0	0	
9	0	0	0	0	596	571	0	0	0	0	
10	0	0	0	0	597	572	0	0	0	0	
11	0	0	0	0	596	570	0	0	0	0	
12	0	0	0	0	592	567	0	0	0	0	
13	0	0	0	0	586	560	0	0	0	0	
14	0	0	0	0	578	553	0	0	0	0	
15	0	0	0	0	568	544	0	0	0	0	
0	0	0	0	0	558	534	0	0	0	0	
1	0	0	0	0	547	525	0	0	0	0	
2	0	0	0	0	538	516	0	0	0	0	
3	0	0	0	0	530	509	0	0	0	0	
4	0	0	0	0	525	504	0	0	0	0	
5	0	0	0	0	523	503	0	0	0	0	
6	0	0	0	0	524	504	0	0	0	0	
7	0	0	0	0	527	507	0	0	0	0	
8	0	0	0	0	534	513	0	0	0	0	
9	0	0	0	0	543	521	0	0	0	0	
10	0	0	0	0	553	530	0	0	0	0	
11	0	0	0	0	564	540	0	0	0	0	
12	0	0	0	0	575	550	0	0	0	0	
13	0	0	0	0	585	558	0	0	0	0	
14	0	0	0	0	592	565	0	0	0	0	
15	0	0	0	0	597	569	0	0	0	0	
0	0	0	0	0	599	571	0	0	0	0	
1	0	0	0	0	598	569	0	0	0	0	
2	0	0	0	0	593	566	0	0	0	0	
3	0	0	0	0	587	560	0	0	0	0	
4	0	0	0	0	579	553	0	0	0	0	
5	0	0	0	0	570	545	0	0	0	0	
6	0	0	0	0	561	538	0	0	0	0	
7	0	0	0	0	553	532	0	0	0	0	
8	0	0	0	0	547	527	0	0	0	0	
9	0	0	0	0	543	524	0	0	0	0	
10	0	0	0	0	541	523	0	0	0	0	
11	0	0	0	0	541	524	0	0	0	0	
12	0	0	0	0	543	526	0	0	0	0	
13	0	0	0	0	546	529	0	0	0	0	
14	0	0	0	0	551	533	0	0	0	0	
15	0	0	0	0	557	537	0	0	0	0	
0	0	0	0	0	562	541	0	0	0	0	
1	0	0	0	0	567	545	0	0	0	0	
2	0	0	0	0	570	547	0	0	0	0	
3	0	0	0	0	573	550	0	0	0	0	
4	0	0	0	0	574	550	0	0	0	0	
5	0	0	0	0	575	549	0	0	0	0	
6	0	0	0	0	575	548	0	0	0	0	
7	0	0	0	0	573	547	0	0	0	0	
8	0	0	0	0	572	544	0	0	0	0	
9	0	0	0	0	570	543	0	0	0	0	
10	0	0	0	0	568	541	0	0	0	0	
11	0	0	0	0	568	541	0	0	0	0	
12	0	0	0	0	568	542	0	0	0	0	
13	0	0	0	0	569	543	0	0	0	0	
14	0	0	0	0	571	545	0	0	0	0	
15	0	0	0	0	574	548	0	0	0	0	
0	0	0	0	0	576	551	0	0	0	0	
1	0	0	0	0	577	553	0	0	0	0	
2	0	0	0	0	578	555	0	0	0	0	
3	0	0	0	0	578	555	0	0	0	0	
4	0	0	0	0	577	555	0	0	0	0	
5	0	0	0	0	576	554	0	0	0	0	
6	0	0	0	0	574	552	0	0	0	0	
7	0	0	0	0	572	550	0	0	0	0	
8	0	0	0	0	570	548	0	0	0	0	
9	0	0	0	0	568	545	0	0	0	0	
10	0	0	0	0	567	543	0	0	0	0	
11	0	0	0	0	565	540	0	0	0	0	
12	0	0	0	0	563	538	0	0	0	0	
13	0	0	0	0	562	536	0	0	0	0	
14	0	0	0	0	562	535	0	0	0	0	
15	0	0	0	0	561	534	0	0	0	0	
0	0	0	0	0	562	534	0	0	0	0	
1	0	0	0	0	563	535	0	0	0	0	
2	0	0	0	0	566	537	0	0	0	0	
3	0	0	0	0	568	540	0	0	0	0	
4	0	0	0	0	571	543	0	0	0	0	
5	0	0	0	0	574	546	0	0	0	0	
6	0	0	0	0	575	550	0	0	0	0	
7	0	0	0	0	577	551	0	0	0	0	
8	0	0	0	0	578	553	0	0	0	0	
9	0	0	0	0	577	554	0	0	0	0	
10	0	0	0	0	576	553	0	0	0	0	
11	0	0	0	0	573	551	0	0	0	0	
12	0	0	0	0	570	548	0	0	0	0	
13	0	0	0	0	567	545	0	0	0	0	
14	0	0	0	0	563	542	0	0	0	0	
15	0	0	0	0	560	539	0	0	0	0	
0	0	0	0	0	558	536	0	0	0	0	
1	0	0	0	0	556	534	0	0	0	0	
2	0	0	0	0	556	533	0	0	0	0	
3	0	0	0	0	557	533	0	0	0	0	
4	0	0	0	0	559	534	0	0	0	0	
5	0	0	0	0	560	535	0	0	0	0	
6	0	0	0	0	563	537	0	0	0	0	
7	0	0	0	0	564	538	0	0	0	0	
8	0	0	0	0	564	538	0	0	0	0	
9	0	0	0	0	564	538	0	0	0	0	
10	0	0	0	0	561	536	0	0	0	0	
11	0	0	0	0	558	532	0	0	0	0	
12	0	0	0	0	553	527	0	0	0	0	
13	0	0	0	0	548	522	0	0	0	0	
14	0	0	0	0	542	516	0	0	0	0	
15	0	0	0	0	537	511	0	0	0	0	
0	0	0	0	0	532	506	0	0	0	0	
1	0	0	0	0	529	503	0	0	0	0	
2	0	0	0	0	527	501	0	0	0	0	
3	0	0	0	0	527	502	0	0	0	0	
4	0	0	0	0	530	503	0	0	0	0	
5	0	0	0	0	535	508	0	0	0	0	
6	0	0	0	0	541	514	0	0	0	0	
7	0	0	0	0	549	521	0	0	0	0	
8	0	0	0	0	558	530	0	0	0	0	
9	0	0	0	0	568	539	0	0	0	0	
10	0	0	0	0	577	549	0	0	0	0	
11	0	0	0	0	587	558	0	0	0	0	
12	0	0	0	0	596	568	0	0	0	0	
13	0	0	0	0	604	575	0	0	0	0	
14	0	0	0	0	609	580	0	0	0	0	
15	0	0	0	0	613	583	0	0	0	0	
0	0	0	0	0	614	584	0	0	0	0	
1	0	0	0	0	612	582	0	0	0	0	
2	0	0	0	0	607	578	0	0	0	0	
3	0	0	0	0	600	572	0	0	0	0	
4	0	0	0	0	591	564	0	0	0	0	
5	0	0	0	0	581	555	0	0	0	0	
6	0	0	0	0	571	545	0	0	0	0	
7	0	0	0	0	560	536	0	0	0	0	
8	0	0	0	0	551	527	0	0	0	0	
9	0	0	0	0	542	519	0	0	0	0	
10	0	0	0	0	535	512	0	0	0	0	
11	0	0	0	0	529	507	0	0	0	0	
12	0	0	0	0	526	504	0	0	0	0	
13	0	0	0	0	524	502	0	0	0	0	
14	0	0	0	0	523	501	0	0	0	0	
15	0	0	0	0	525	502	0	0	0	0	
0	0	0	0	0	527	505	0	0	0	0	
1	0	0	0	0	531	508	0	0	0	0	
2	0	0	0	0	536	512	0	0	0	0	
3	0	0	0	0	542	517	0	0	0	0	
4	0	0	0	0	547	521	0	0	0	0	
5	0	0	0	0	551	525	0	0	0	0	
6	0	0	0	0	555	528	0	0	0	0	
7	0	0	0	0	558	530	0	0	0	0	
8	0	0	0	0	561	531	0	0	0	0	
9	0	0	0	0	563	533	0	0	0	0	
10	0	0	0	0	564	533	0	0	0	0	
11	0	0	0	0	566	534	0	0	0	0	
12	0	0	0	0	566	534	0	0	0	0	
13	0	0	0	0	567	534	0	0	0	0	
14	0	0	0	0	567	534	0	0	0	0	
15	0	0	0	0	567	534	0	0	0	0	
0	0	0	0	0	567	534	0	0	0	0	
1	0	0	0	0	567	536	0	0	0	0	
2	0	0	0	0	568	537	0	0	0	0	
3	0	0	0	0	569	540	0	0	0	0	
4	0	0	0	0	572	542	0	0	0	0	
5	0	0	0	0	574	545	0	0	0	0	
6	0	0	0	0	576	549	0	0	0	0	
7	0	0	0	0	579	552	0	0	0	0	
8	0	0	0	0	583	556	0	0	0	0	
9	0	0	0	0	586	559	0	0	0	0	
10	0	0	0	0	589	561	0	0	0	0	
11	0	0	0	0	591	563	0	0	0	0	
12	0	0	0	0	592	563	0	0	0	0	
13	0	0	0	0	592	563	0	0	0	0	
14	0	0	0	0	591	561	0	0	0	0	
15	0	0	0	0	589	560	0	0	0	0	
0	0	0	0	0	586	557	0	0	0	0	
1	0	0	0	0	583	553	0	0	0	0	
2	0	0	0	0	580	551	0	0	0	0	
3	0	0	0	0	576	547	0	0	0	0	
4	0	0	0	0	572	544	0	0	0	0	
5	0	0	0	0	568	542	0	0	0	0	
6	0	0	0	0	566	539	0	0	0	0	
7	0	0	0	0	563	537	0	0	0	0	
8	0	0	0	0	562	536	0	0	0	0	
9	0	0	0	0	560	535	0	0	0	0	
10	0	0	0	0	558	534	0	0	0	0	
11	0	0	0	0	557	532	0	0	0	0	
12	0	0	0	0	556	531	0	0	0	0	
13	0	0	0	0	555	530	0	0	0	0	
14	0	0	0	0	554	529	0	0	0	0	
15	0	0	0	0	553	528	0	0	0	0	
0	0	0	0	0	551	526	0	0	0	0	
1	0	0	0	0	550	525	0	0	0	0	
2	0	0	0	0	549	524	0	0	0	0	
3	0	0	0	0	548	522	0	0	0	0	
4	0	0	0	0	547	520	0	0	0	0	
5	0	0	0	0	547	519	0	0	0	0	
6	0	0	0	0	548	519	0	0	0	0	
7	0	0	0	0	548	520	0	0	0	0	
8	0	0	0	0	550	521	0	0	0	0	
9	0	0	0	0	552	523	0	0	0	0	
10	0	0	0	0	555	525	0	0	0	0	
11	0	0	0	0	557	527	0	0	0	0	
12	0	0	0	0	560	531	0	0	0	0	
13	0	0	0	0	563	534	0	0	0	0	
14	0	0	0	0	566	537	0	0	0	0	
15	0	0	0	0	568	540	0	0	0	0	
0	0	0	0	0	571	542	0	0	0	0	
1	0	0	0	0	573	544	0	0	0	0	
2	0	0	0	0	573	545	0	0	0	0	
3	0	0	0	0	573	545	0	0	0	0	
4	0	0	0	0	574	544	0	0	0	0	
5	0	0	0	0	573	543	0	0	0	0	
6	0	0	0	0	572	542	0	0	0	0	
7	0	0	0	0	570	540	0	0	0	0	
8	0	0	0	0	568	537	0	0	0	0	
9	0	0	0	0	566	535	0	0	0	0	
10	0	0	0	0	563	532	0	0	0	0	
11	0	0	0	0	561	530	0	0	0	0	
12	0	0	0	0	559	528	0	0	0	0	
13	0	0	0	0	557	527	0	0	0	0	
14	0	0	0	0	556	527	0	0	0	0	
15	0	0	0	0	555	527	0	0	0	0	
0	0	0	0	0	556	529	0	0	0	0	
1	0	0	0	0	557	530	0	0	0	0	
2	0	0	0	0	560	533	0	0	0	0	
3	0	0	0	0	562	536	0	0	0	0	
4	0	0	0	0	566	538	0	0	0	0	
5	0	0	0	0	568	540	0	0	0	0	
6	0	0	0	0	570	542	0	0	0	0	
7	0	0	0	0	571	542	0	0	0	0	
8	0	0	0	0	570	541	0	0	0	0	
9	0	0	0	0	569	539	0	0	0	0	
10	0	0	0	0	566	536	0	0	0	0	
11	0	0	0	0	563	533	0	0	0	0	
12	0	0	0	0	560	530	0	0	0	0	
13	0	0	0	0	557	527	0	0	0	0	
14	0	0	0	0	555	526	0	0	0	0	
15	0	0	0	0	553	525	0	0	0	0	
0	0	0	0	0	552	525	0	0	0	0	
1	0	0	0	0	553	526	0	0	0	0	
2	0	0	0	0	554	527	0	0	0	0	
3	0	0	0	0	556	529	0	0	0	0	
4	0	0	0	0	558	532	0	0	0	0	
5	0	0	0	0	561	534	0	0	0	0	
6	0	0	0	0	563	536	0	0	0	0	
7	0	0	0	0	565	538	0	0	0	0	
8	0	0	0	0	567	540	0	0	0	0	
9	0	0	0	0	568	540	0	0	0	0	
10	0	0	0	0	570	541	0	0	0	0	
11	0	0	0	0	570	541	0	0	0	0	
12	0	0	0	0	570	541	0	0	0	0	
13	0	0	0	0	569	540	0	0	0	0	
14	0	0	0	0	569	538	0	0	0	0	
15	0	0	0	0	568	536	0	0	0	0	
0	0	0	0	0	566	534	0	0	0	0	
1	0	0	0	0	564	532	0	0	0	0	
2	0	0	0	0	562	530	0	0	0	0	
3	0	0	0	0	561	528	0	0	0	0	
4	0	0	0	0	560	527	0	0	0	0	
5	0	0	0	0	559	526	0	0	0	0	
6	0	0	0	0	558	526	0	0	0	0	
7	0	0	0	0	558	526	0	0	0	0	
8	0	0	0	0	559	526	0	0	0	0	
9	0	0	0	0	559	527	0	0	0	0	
10	0	0	0	0	558	527	0	0	0	0	
11	0	0	0	0	557	526	0	0	0	0	
12	0	0	0	0	556	525	0	0	0	0	
13	0	0	0	0	553	523	0	0	0	0	
14	0	0	0	0	551	521	0	0	0	0	
15	0	0	0	0	548	519	0	0	0	0	
0	0	0	0	0	545	516	0	0	0	0	
1	0	0	0	0	543	514	0	0	0	0	
2	0	0	0	0	542	513	0	0	0	0	
3	0	0	0	0	542	513	0	0	0	0	
4	0	0	0	0	543	514	0	0	0	0	
5	0	0	0	0	547	516	0	0	0	0	
6	0	0	0	0	551	519	0	0	0	0	
7	0	0	0	0	556	524	0	0	0	0	
8	0	0	0	0	563	529	0	0	0	0	
9	0	0	0	0	569	535	0	0	0	0	
10	0	0	0	0	576	541	0	0	0	0	
11	0	0	0	0	583	547	0	0	0	0	
12	0	0	0	0	588	552	0	0	0	0	
13	0	0	0	0	593	557	0	0	0	0	
14	0	0	0	0	597	562	0	0	0	0	
15	0	0	0	0	600	565	0	0	0	0	
0	0	0	0	0	601	567	0	0	0	0	
1	0	0	0	0	601	568	0	0	0	0	
2	0	0	0	0	601	568	0	0	0	0	
3	0	0	0	0	599	567	0	0	0	0	
4	0	0	0	0	596	564	0	0	0	0	
5	0	0	0	0	593	561	0	0	0	0	
6	0	0	0	0	590	558	0	0	0	0	
7	0	0	0	0	586	554	0	0	0	0	
8	0	0	0	0	583	551	0	0	0	0	
9	0	0	0	0	580	547	0	0	0	0	
10	0	0	0	0	579	545	0	0	0	0	
11	0	0	0	0	577	544	0	0	0	0	
12	0	0	0	0	577	544	0	0	0	0	
13	0	0	0	0	579	545	0	0	0	0	
14	0	0	0	0	580	547	0	0	0	0	
15	0	0	0	0	583	550	0	0	0	0	
0	0	0	0	0	584	552	0	0	0	0	
1	0	0	0	0	586	554	0	0	0	0	
2	0	0	0	0	586	556	0	0	0	0	
3	0	0	0	0	586	557	0	0	0	0	
4	0	0	0	0	584	556	0	0	0	0	
5	0	0	0	0	582	555	0	0	0	0	
6	0	0	0	0	579	551	0	0	0	0	
7	0	0	0	0	574	548	0	0	0	0	
8	0	0	0	0	571	545	0	0	0	0	
9	0	0	0	0	566	540	0	0	0	0	
10	0	0	0	0	563	536	0	0	0	0	
11	0	0	0	0	559	531	0	0	0	0	
12	0	0	0	0	557	528	0	0	0	0	
13	0	0	0	0	555	525	0	0	0	0	
14	0	0	0	0	554	521	0	0	0	0	
15	0	0	0	0	553	519	0	0	0	0	
0	0	0	0	0	552	518	0	0	0	0	
1	0	0	0	0	551	516	0	0	0	0	
2	0	0	0	0	551	515	0	0	0	0	
3	0	0	0	0	550	515	0	0	0	0	
4	0	0	0	0	549	515	0	0	0	0	
5	0	0	0	0	549	515	0	0	0	0	
6	0	0	0	0	549	516	0	0	0	0	
7	0	0	0	0	549	518	0	0	0	0	
8	0	0	0	0	550	519	0	0	0	0	
9	0	0	0	0	552	522	0	0	0	0	
10	0	0	0	0	555	525	0	0	0	0	
11	0	0	0	0	558	529	0	0	0	0	
12	0	0	0	0	562	533	0	0	0	0	
13	0	0	0	0	567	536	0	0	0	0	
14	0	0	0	0	571	540	0	0	0	0	
15	0	0	0	0	575	542	0	0	0	0	
0	0	0	0	0	578	544	0	0	0	0	
1	0	0	0	0	580	545	0	0	0	0	
2	0	0	0	0	582	545	0	0	0	0	
3	0	0	0	0	581	544	0	0	0	0	
4	0	0	0	0	579	542	0	0	0	0	
5	0	0	0	0	576	539	0	0	0	0	
6	0	0	0	0	571	535	0	0	0	0	
7	0	0	0	0	563	528	0	0	0	0	
8	0	0	0	0	555	522	0	0	0	0	
9	0	0	0	0	545	514	0	0	0	0	
10	0	0	0	0	534	505	0	0	0	0	
11	0	0	0	0	521	495	0	0	0	0	
12	0	0	0	0	508	484	0	0	0	0	
13	0	0	0	0	495	472	0	0	0	0	
14	0	0	0	0	481	460	0	0	0	0	
15	0	0	0	0	466	446	0	0	0	0	
0	0	0	0	0	450	430	0	0	0	0	
1	0	0	0	0	434	414	0	0	0	0	
2	0	0	0	0	417	397	0	0	0	0	
3	0	0	0	0	399	379	0	0	0	0	
4	0	0	0	0	382	360	0	0	0	0	
5	0	0	0	0	364	342	0	0	0	0	
6	0	0	0	0	346	323	0	0	0	0	
7	0	0	0	0	329	306	0	0	0	0	
8	0	0	0	0	315	291	0	0	0	0	
9	0	0	0	0	303	279	0	0	0	0	
10	0	0	0	0	294	271	0	0	0	0	
11	0	0	0	0	290	267	0	0	0	0	
12	0	0	0	0	292	268	0	0	0	0	
13	0	0	0	0	299	274	0	0	0	0	
14	0	0	0	0	312	286	0	0	0	0	
15	0	0	0	0	330	302	0	0	0	0	
0	0	0	0	0	354	323	0	0	0	0	
1	0	0	0	0	382	347	0	0	0	0	
2	0	0	0	0	413	373	0	0	0	0	
3	0	0	0	0	444	401	0	0	0	0	
4	0	0	0	0	476	429	0	0	0	0	
5	0	0	0	0	508	456	0	0	0	0	
6	0	0	0	0	537	483	0	0	0	0	
7	0	0	0	0	565	508	0	0	0	0	
8	0	0	0	0	589	531	0	0	0	0	
9	0	0	0	0	611	552	0	0	0	0	
10	0	0	0	0	628	571	0	0	0	0	
11	0	0	0	0	641	586	0	0	0	0	
12	0	0	0	0	651	598	0	0	0	0	
13	0	0	0	0	656	608	0	0	0	0	
14	0	0	0	0	659	614	0	0	0	0	
15	0	0	0	0	658	617	0	0	0	0	
0	0	0	0	0	654	618	0	0	0	0	
1	0	0	0	0	647	616	0	0	0	0	
2	0	0	0	0	639	612	0	0	0	0	
3	0	0	0	0	629	606	0	0	0	0	
4	0	0	0	0	619	599	0	0	0	0	
5	0	0	0	0	608	591	0	0	0	0	
6	0	0	0	0	597	582	0	0	0	0	
7	0	0	0	0	587	573	0	0	0	0	
8	0	0	0	0	578	564	0	0	0	0	
9	0	0	0	0	571	556	0	0	0	0	
10	0	0	0	0	566	550	0	0	0	0	
11	0	0	0	0	563	545	0	0	0	0	
12	0	0	0	0	562	542	0	0	0	0	
13	0	0	0	0	564	541	0	0	0	0	
14	0	0	0	0	568	542	0	0	0	0	
15	0	0	0	0	573	545	0	0	0	0	
0	0	0	0	0	579	549	0	0	0	0	
1	0	0	0	0	586	554	0	0	0	0	
2	0	0	0	0	592	559	0	0	0	0	
3	0	0	0	0	599	564	0	0	0	0	
4	0	0	0	0	604	568	0	0	0	0	
5	0	0	0	0	607	572	0	0	0	0	
6	0	0	0	0	609	575	0	0	0	0	
7	0	0	0	0	609	575	0	0	0	0	
8	0	0	0	0	608	575	0	0	0	0	
9	0	0	0	0	606	574	0	0	0	0	
10	0	0	0	0	602	572	0	0	0	0	
11	0	0	0	0	597	569	0	0	0	0	
12	0	0	0	0	592	565	0	0	0	0	
13	0	0	0	0	587	561	0	0	0	0	
14	0	0	0	0	582	558	0	0	0	0	
15	0	0	0	0	577	555	0	0	0	0	
0	0	0	0	0	575	553	0	0	0	0	
1	0	0	0	0	573	551	0	0	0	0	
2	0	0	0	0	573	552	0	0	0	0	
3	0	0	0	0	574	553	0	0	0	0	
4	0	0	0	0	576	555	0	0	0	0	
5	0	0	0	0	580	557	0	0	0	0	
6	0	0	0	0	583	560	0	0	0	0	
7	0	0	0	0	587	563	0	0	0	0	
8	0	0	0	0	590	566	0	0	0	0	
9	0	0	0	0	592	568	0	0	0	0	
10	0	0	0	0	594	569	0	0	0	0	
11	0	0	0	0	593	569	0	0	0	0	
12	0	0	0	0	592	568	0	0	0	0	
13	0	0	0	0	590	567	0	0	0	0	
14	0	0	0	0	587	564	0	0	0	0	
15	0	0	0	0	583	561	0	0	0	0	
0	0	0	0	0	579	558	0	0	0	0	
1	0	0	0	0	575	555	0	0	0	0	
2	0	0	0	0	574	553	0	0	0	0	
3	0	0	0	0	572	552	0	0	0	0	
4	0	0	0	0	573	552	0	0	0	0	
5	0	0	0	0	574	553	0	0	0	0	
6	0	0	0	0	578	555	0	0	0	0	
7	0	0	0	0	583	558	0	0	0	0	
8	0	0	0	0	588	563	0	0	0	0	
9	0	0	0	0	595	568	0	0	0	0	
10	0	0	0	0	602	573	0	0	0	0	
11	0	0	0	0	608	579	0	0	0	0	
12	0	0	0	0	614	585	0	0	0	0	
13	0	0	0	0	619	590	0	0	0	0	
14	0	0	0	0	622	594	0	0	0	0	
15	0	0	0	0	624	597	0	0	0	0	
0	0	0	0	0	624	599	0	0	0	0	
1	0	0	0	0	623	599	0	0	0	0	
2	0	0	0	0	620	599	0	0	0	0	
3	0	0	0	0	616	596	0	0	0	0	
4	0	0	0	0	612	593	0	0	0	0	
5	0	0	0	0	607	589	0	0	0	0	
6	0	0	0	0	601	584	0	0	0	0	
7	0	0	0	0	596	579	0	0	0	0	
8	0	0	0	0	591	575	0	0	0	0	
9	0	0	0	0	588	572	0	0	0	0	
10	0	0	0	0	586	568	0	0	0	0	
11	0	0	0	0	584	566	0	0	0	0	
12	0	0	0	0	584	565	0	0	0	0	
13	0	0	0	0	586	565	0	0	0	0	
14	0	0	0	0	588	566	0	0	0	0	
15	0	0	0	0	591	568	0	0	0	0	
0	0	0	0	0	593	570	0	0	0	0	
1	0	0	0	0	596	572	0	0	0	0	
2	0	0	0	0	598	575	0	0	0	0	
3	0	0	0	0	600	576	0	0	0	0	
4	0	0	0	0	600	577	0	0	0	0	
5	0	0	0	0	599	578	0	0	0	0	
6	0	0	0	0	598	577	0	0	0	0	
7	0	0	0	0	595	576	0	0	0	0	
8	0	0	0	0	593	575	0	0	0	0	
9	0	0	0	0	591	573	0	0	0	0	
10	0	0	0	0	589	572	0	0	0	0	
11	0	0	0	0	588	571	0	0	0	0	
12	0	0	0	0	587	569	0	0	0	0	
13	0	0	0	0	587	568	0	0	0	0	
14	0	0	0	0	588	568	0	0	0	0	
15	0	0	0	0	588	568	0	0	0	0	
0	0	0	0	0	590	568	0	0	0	0	
1	0	0	0	0	590	568	0	0	0	0	
2	0	0	0	0	591	568	0	0	0	0	
3	0	0	0	0	591	568	0	0	0	0	
4	0	0	0	0	591	568	0	0	0	0	
5	0	0	0	0	591	568	0	0	0	0	
6	0	0	0	0	591	568	0	0	0	0	
7	0	0	0	0	591	567	0	0	0	0	
8	0	0	0	0	591	566	0	0	0	0	
9	0	0	0	0	590	565	0	0	0	0	
10	0	0	0	0	590	564	0	0	0	0	
11	0	0	0	0	589	563	0	0	0	0	
12	0	0	0	0	588	562	0	0	0	0	
13	0	0	0	0	588	561	0	0	0	0	
14	0	0	0	0	588	560	0	0	0	0	
15	0	0	0	0	588	559	0	0	0	0	
0	0	0	0	0	588	559	0	0	0	0	
1	0	0	0	0	588	558	0	0	0	0	
2	0	0	0	0	589	558	0	0	0	0	
3	0	0	0	0	588	557	0	0	0	0	
4	0	0	0	0	588	556	0	0	0	0	
5	0	0	0	0	587	556	0	0	0	0	
6	0	0	0	0	585	556	0	0	0	0	
7	0	0	0	0	584	556	0	0	0	0	
8	0	0	0	0	583	556	0	0	0	0	
9	0	0	0	0	582	557	0	0	0	0	
10	0	0	0	0	581	558	0	0	0	0	
11	0	0	0	0	581	559	0	0	0	0	
12	0	0	0	0	581	561	0	0	0	0	
13	0	0	0	0	582	563	0	0	0	0	
14	0	0	0	0	583	564	0	0	0	0	
15	0	0	0	0	585	566	0	0	0	0	
0	0	0	0	0	586	566	0	0	0	0	
1	0	0	0	0	587	566	0	0	0	0	
2	0	0	0	0	588	565	0	0	0	0	
3	0	0	0	0	587	563	0	0	0	0	
4	0	0	0	0	586	561	0	0	0	0	
5	0	0	0	0	584	558	0	0	0	0	
6	0	0	0	0	582	555	0	0	0	0	
7	0	0	0	0	580	552	0	0	0	0	
8	0	0	0	0	576	549	0	0	0	0	
9	0	0	0	0	573	546	0	0	0	0	
10	0	0	0	0	568	542	0	0	0	0	
11	0	0	0	0	564	538	0	0	0	0	
12	0	0	0	0	560	536	0	0	0	0	
13	0	0	0	0	556	533	0	0	0	0	
14	0	0	0	0	553	532	0	0	0	0	
15	0	0	0	0	553	532	0	0	0	0	
0	0	0	0	0	553	533	0	0	0	0	
1	0	0	0	0	555	536	0	0	0	0	
2	0	0	0	0	558	539	0	0	0	0	
3	0	0	0	0	562	543	0	0	0	0	
4	0	0	0	0	567	547	0	0	0	0	
5	0	0	0	0	572	551	0	0	0	0	
6	0	0	0	0	577	556	0	0	0	0	
7	0	0	0	0	582	559	0	0	0	0	
8	0	0	0	0	586	561	0	0	0	0	
9	0	0	0	0	589	563	0	0	0	0	
10	0	0	0	0	592	565	0	0	0	0	
11	0	0	0	0	594	567	0	0	0	0	
12	0	0	0	0	596	568	0	0	0	0	
13	0	0	0	0	597	569	0	0	0	0	
14	0	0	0	0	598	571	0	0	0	0	
15	0	0	0	0	599	573	0	0	0	0	
0	0	0	0	0	599	575	0	0	0	0	
1	0	0	0	0	600	576	0	0	0	0	
2	0	0	0	0	599	577	0	0	0	0	
3	0	0	0	0	600	579	0	0	0	0	
4	0	0	0	0	600	579	0	0	0	0	
5	0	0	0	0	599	579	0	0	0	0	
6	0	0	0	0	599	579	0	0	0	0	
7	0	0	0	0	597	577	0	0	0	0	
8	0	0	0	0	595	575	0	0	0	0	
9	0	0	0	0	593	572	0	0	0	0	
10	0	0	0	0	590	568	0	0	0	0	
11	0	0	0	0	585	563	0	0	0	0	
12	0	0	0	0	581	559	0	0	0	0	
13	0	0	0	0	576	553	0	0	0	0	
14	0	0	0	0	572	547	0	0	0	0	
15	0	0	0	0	568	543	0	0	0	0	
0	0	0	0	0	563	538	0	0	0	0	
1	0	0	0	0	560	535	0	0	0	0	
2	0	0	0	0	558	532	0	0	0	0	
3	0	0	0	0	557	531	0	0	0	0	
4	0	0	0	0	556	531	0	0	0	0	
5	0	0	0	0	556	531	0	0	0	0	
6	0	0	0	0	558	533	0	0	0	0	
7	0	0	0	0	560	536	0	0	0	0	
8	0	0	0	0	562	538	0	0	0	0	
9	0	0	0	0	566	541	0	0	0	0	
10	0	0	0	0	569	544	0	0	0	0	
11	0	0	0	0	574	548	0	0	0	0	
12	0	0	0	0	578	552	0	0	0	0	
13	0	0	0	0	582	555	0	0	0	0	
14	0	0	0	0	587	558	0	0	0	0	
15	0	0	0	0	590	560	0	0	0	0	
0	0	0	0	0	592	562	0	0	0	0	
1	0	0	0	0	594	563	0	0	0	0	
2	0	0	0	0	595	563	0	0	0	0	
3	0	0	0	0	595	563	0	0	0	0	
4	0	0	0	0	594	563	0	0	0	0	
5	0	0	0	0	592	562	0	0	0	0	
6	0	0	0	0	591	561	0	0	0	0	
7	0	0	0	0	589	560	0	0	0	0	
8	0	0	0	0	587	559	0	0	0	0	
9	0	0	0	0	585	558	0	0	0	0	
10	0	0	0	0	583	557	0	0	0	0	
11	0	0	0	0	580	556	0	0	0	0	
12	0	0	0	0	579	555	0	0	0	0	
13	0	0	0	0	577	553	0	0	0	0	
14	0	0	0	0	576	552	0	0	0	0	
15	0	0	0	0	575	551	0	0	0	0	
0	0	0	0	0	573	548	0	0	0	0	
1	0	0	0	0	571	546	0	0	0	0	
2	0	0	0	0	570	544	0	0	0	0	
3	0	0	0	0	569	543	0	0	0	0	
4	0	0	0	0	568	542	0	0	0	0	
5	0	0	0	0	569	542	0	0	0	0	
6	0	0	0	0	570	542	0	0	0	0	
7	0	0	0	0	572	543	0	0	0	0	
8	0	0	0	0	573	544	0	0	0	0	
9	0	0	0	0	575	545	0	0	0	0	
10	0	0	0	0	576	547	0	0	0	0	
11	0	0	0	0	578	548	0	0	0	0	
12	0	0	0	0	579	550	0	0	0	0	
13	0	0	0	0	579	551	0	0	0	0	
14	0	0	0	0	579	551	0	0	0	0	
15	0	0	0	0	579	551	0	0	0	0	
0	0	0	0	0	579	550	0	0	0	0	
1	0	0	0	0	578	549	0	0	0	0	
2	0	0	0	0	577	548	0	0	0	0	
3	0	0	0	0	576	547	0	0	0	0	
4	0	0	0	0	576	546	0	0	0	0	
5	0	0	0	0	577	545	0	0	0	0	
6	0	0	0	0	578	545	0	0	0	0	
7	0	0	0	0	580	546	0	0	0	0	
8	0	0	0	0	582	547	0	0	0	0	
9	0	0	0	0	584	549	0	0	0	0	
10	0	0	0	0	586	551	0	0	0	0	
11	0	0	0	0	589	553	0	0	0	0	
12	0	0	0	0	590	556	0	0	0	0	
13	0	0	0	0	592	558	0	0	0	0	
14	0	0	0	0	593	560	0	0	0	0	
15	0	0	0	0	593	562	0	0	0	0	
0	0	0	0	0	593	563	0	0	0	0	
1	0	0	0	0	592	563	0	0	0	0	
2	0	0	0	0	589	562	0	0	0	0	
3	0	0	0	0	585	560	0	0	0	0	
4	0	0	0	0	582	557	0	0	0	0	
5	0	0	0	0	577	553	0	0	0	0	
6	0	0	0	0	572	550	0	0	0	0	
7	0	0	0	0	568	546	0	0	0	0	
8	0	0	0	0	565	543	0	0	0	0	
9	0	0	0	0	563	540	0	0	0	0	
10	0	0	0	0	562	539	0	0	0	0	
11	0	0	0	0	562	537	0	0	0	0	
12	0	0	0	0	563	537	0	0	0	0	
13	0	0	0	0	565	538	0	0	0	0	
14	0	0	0	0	568	540	0	0	0	0	
15	0	0	0	0	572	543	0	0	0	0	
0	0	0	0	0	578	547	0	0	0	0	
1	0	0	0	0	583	551	0	0	0	0	
2	0	0	0	0	589	557	0	0	0	0	
3	0	0	0	0	595	562	0	0	0	0	
4	0	0	0	0	600	567	0	0	0	0	
5	0	0	0	0	604	572	0	0	0	0	
6	0	0	0	0	608	576	0	0	0	0	
7	0	0	0	0	609	578	0	0	0	0	
8	0	0	0	0	611	579	0	0	0	0	
9	0	0	0	0	610	579	0	0	0	0	
10	0	0	0	0	608	578	0	0	0	0	
11	0	0	0	0	606	575	0	0	0	0	
12	0	0	0	0	602	572	0	0	0	0	
13	0	0	0	0	599	568	0	0	0	0	
14	0	0	0	0	594	564	0	0	0	0	
15	0	0	0	0	590	560	0	0	0	0	
0	0	0	0	0	585	556	0	0	0	0	
1	0	0	0	0	580	552	0	0	0	0	
2	0	0	0	0	576	549	0	0	0	0	
3	0	0	0	0	573	547	0	0	0	0	
4	0	0	0	0	572	546	0	0	0	0	
5	0	0	0	0	571	546	0	0	0	0	
6	0	0	0	0	571	547	0	0	0	0	
7	0	0	0	0	572	548	0	0	0	0	
8	0	0	0	0	573	550	0	0	0	0	
9	0	0	0	0	574	551	0	0	0	0	
10	0	0	0	0	575	553	0	0	0	0	
11	0	0	0	0	576	554	0	0	0	0	
12	0	0	0	0	577	554	0	0	0	0	
13	0	0	0	0	579	555	0	0	0	0	
14	0	0	0	0	579	555	0	0	0	0	
15	0	0	0	0	580	554	0	0	0	0	
0	0	0	0	0	580	553	0	0	0	0	
1	0	0	0	0	581	552	0	0	0	0	
2	0	0	0	0	581	551	0	0	0	0	
3	0	0	0	0	580	550	0	0	0	0	
4	0	0	0	0	580	548	0	0	0	0	
5	0	0	0	0	579	547	0	0	0	0	
6	0	0	0	0	577	545	0	0	0	0	
7	0	0	0	0	576	544	0	0	0	0	
8	0	0	0	0	575	544	0	0	0	0	
9	0	0	0	0	575	544	0	0	0	0	
10	0	0	0	0	575	544	0	0	0	0	
11	0	0	0	0	575	546	0	0	0	0	
12	0	0	0	0	575	547	0	0	0	0	
13	0	0	0	0	577	548	0	0	0	0	
14	0	0	0	0	578	550	0	0	0	0	
15	0	0	0	0	578	551	0	0	0	0	
0	0	0	0	0	579	551	0	0	0	0	
1	0	0	0	0	581	552	0	0	0	0	
2	0	0	0	0	582	553	0	0	0	0	
3	0	0	0	0	583	553	0	0	0	0	
4	0	0	0	0	584	553	0	0	0	0	
5	0	0	0	0	585	552	0	0	0	0	
6	0	0	0	0	585	551	0	0	0	0	
7	0	0	0	0	585	550	0	0	0	0	
8	0	0	0	0	585	548	0	0	0	0	
9	0	0	0	0	585	547	0	0	0	0	
10	0	0	0	0	584	545	0	0	0	0	
11	0	0	0	0	583	544	0	0	0	0	
12	0	0	0	0	582	543	0	0	0	0	
13	0	0	0	0	581	542	0	0	0	0	
14	0	0	0	0	580	542	0	0	0	0	
15	0	0	0	0	580	542	0	0	0	0	
0	0	0	0	0	580	543	0	0	0	0	
1	0	0	0	0	581	544	0	0	0	0	
2	0	0	0	0	582	546	0	0	0	0	
3	0	0	0	0	583	548	0	0	0	0	
4	0	0	0	0	584	551	0	0	0	0	
5	0	0	0	0	585	553	0	0	0	0	
6	0	0	0	0	586	555	0	0	0	0	
7	0	0	0	0	586	556	0	0	0	0	
8	0	0	0	0	586	556	0	0	0	0	
9	0	0	0	0	585	556	0	0	0	0	
10	0	0	0	0	582	554	0	0	0	0	
11	0	0	0	0	579	551	0	0	0	0	
12	0	0	0	0	575	547	0	0	0	0	
13	0	0	0	0	571	543	0	0	0	0	
14	0	0	0	0	567	540	0	0	0	0	
15	0	0	0	0	563	537	0	0	0	0	
0	0	0	0	0	562	535	0	0	0	0	
1	0	0	0	0	561	534	0	0	0	0	
2	0	0	0	0	561	534	0	0	0	0	
3	0	0	0	0	563	535	0	0	0	0	
4	0	0	0	0	565	536	0	0	0	0	
5	0	0	0	0	568	538	0	0	0	0	
6	0	0	0	0	570	540	0	0	0	0	
7	0	0	0	0	574	541	0	0	0	0	
8	0	0	0	0	576	543	0	0	0	0	
9	0	0	0	0	578	544	0	0	0	0	
10	0	0	0	0	579	545	0	0	0	0	
11	0	0	0	0	580	545	0	0	0	0	
12	0	0	0	0	580	544	0	0	0	0	
13	0	0	0	0	580	544	0	0	0	0	
14	0	0	0	0	580	544	0	0	0	0	
15	0	0	0	0	580	544	0	0	0	0	
0	0	0	0	0	580	545	0	0	0	0	
1	0	0	0	0	581	546	0	0	0	0	
2	0	0	0	0	582	548	0	0	0	0	
3	0	0	0	0	584	550	0	0	0	0	
4	0	0	0	0	585	552	0	0	0	0	
5	0	0	0	0	587	554	0	0	0	0	
6	0	0	0	0	589	556	0	0	0	0	
7	0	0	0	0	591	559	0	0	0	0	
8	0	0	0	0	592	560	0	0	0	0	
9	0	0	0	0	593	563	0	0	0	0	
10	0	0	0	0	594	564	0	0	0	0	
11	0	0	0	0	594	565	0	0	0	0	
12	0	0	0	0	594	566	0	0	0	0	
13	0	0	0	0	592	564	0	0	0	0	
14	0	0	0	0	589	562	0	0	0	0	
15	0	0	0	0	585	558	0	0	0	0	
0	0	0	0	0	580	554	0	0	0	0	
1	0	0	0	0	575	548	0	0	0	0	
2	0	0	0	0	571	543	0	0	0	0	
3	0	0	0	0	566	537	0	0	0	0	
4	0	0	0	0	561	532	0	0	0	0	
5	0	0	0	0	557	528	0	0	0	0	
6	0	0	0	0	556	526	0	0	0	0	
7	0	0	0	0	555	524	0	0	0	0	
8	0	0	0	0	556	524	0	0	0	0	
9	0	0	0	0	559	527	0	0	0	0	
10	0	0	0	0	565	531	0	0	0	0	
11	0	0	0	0	572	536	0	0	0	0	
12	0	0	0	0	579	543	0	0	0	0	
13	0	0	0	0	586	549	0	0	0	0	
14	0	0	0	0	593	555	0	0	0	0	
15	0	0	0	0	599	561	0	0	0	0	
0	0	0	0	0	604	565	0	0	0	0	
1	0	0	0	0	607	568	0	0	0	0	
2	0	0	0	0	608	569	0	0	0	0	
3	0	0	0	0	607	568	0	0	0	0	
4	0	0	0	0	604	567	0	0	0	0	
5	0	0	0	0	601	563	0	0	0	0	
6	0	0	0	0	596	559	0	0	0	0	
7	0	0	0	0	591	554	0	0	0	0	
8	0	0	0	0	584	549	0	0	0	0	
9	0	0	0	0	579	545	0	0	0	0	
10	0	0	0	0	574	540	0	0	0	0	
11	0	0	0	0	569	536	0	0	0	0	
12	0	0	0	0	565	533	0	0	0	0	
13	0	0	0	0	563	531	0	0	0	0	
14	0	0	0	0	561	529	0	0	0	0	
15	0	0	0	0	561	529	0	0	0	0	
0	0	0	0	0	561	530	0	0	0	0	
1	0	0	0	0	563	532	0	0	0	0	
2	0	0	0	0	565	534	0	0	0	0	
3	0	0	0	0	568	537	0	0	0	0	
4	0	0	0	0	571	540	0	0	0	0	
5	0	0	0	0	574	543	0	0	0	0	
6	0	0	0	0	577	545	0	0	0	0	
7	0	0	0	0	580	547	0	0	0	0	
8	0	0	0	0	582	547	0	0	0	0	
9	0	0	0	0	583	548	0	0	0	0	
10	0	0	0	0	584	548	0	0	0	0	
11	0	0	0	0	583	547	0	0	0	0	
12	0	0	0	0	582	545	0	0	0	0	
13	0	0	0	0	580	543	0	0	0	0	
14	0	0	0	0	579	542	0	0	0	0	
15	0	0	0	0	576	540	0	0	0	0	
0	0	0	0	0	575	539	0	0	0	0	
1	0	0	0	0	573	539	0	0	0	0	
2	0	0	0	0	572	539	0	0	0	0	
3	0	0	0	0	572	539	0	0	0	0	
4	0	0	0	0	572	539	0	0	0	0	
5	0	0	0	0	572	540	0	0	0	0	
6	0	0	0	0	572	541	0	0	0	0	
7	0	0	0	0	572	541	0	0	0	0	
8	0	0	0	0	573	542	0	0	0	0	
9	0	0	0	0	574	542	0	0	0	0	
10	0	0	0	0	575	542	0	0	0	0	
11	0	0	0	0	575	541	0	0	0	0	
12	0	0	0	0	574	540	0	0	0	0	
13	0	0	0	0	573	539	0	0	0	0	
14	0	0	0	0	571	536	0	0	0	0	
15	0	0	0	0	568	534	0	0	0	0	
0	0	0	0	0	565	531	0	0	0	0	
1	0	0	0	0	561	529	0	0	0	0	
2	0	0	0	0	559	526	0	0	0	0	
3	0	0	0	0	556	524	0	0	0	0	
4	0	0	0	0	553	523	0	0	0	0	
5	0	0	0	0	552	523	0	0	0	0	
6	0	0	0	0	552	523	0	0	0	0	
7	0	0	0	0	555	526	0	0	0	0	
8	0	0	0	0	559	529	0	0	0	0	
9	0	0	0	0	563	534	0	0	0	0	
10	0	0	0	0	569	540	0	0	0	0	
11	0	0	0	0	577	547	0	0	0	0	
12	0	0	0	0	585	553	0	0	0	0	
13	0	0	0	0	592	559	0	0	0	0	
14	0	0	0	0	598	564	0	0	0	0	
15	0	0	0	0	603	568	0	0	0	0	
0	0	0	0	0	606	571	0	0	0	0	
1	0	0	0	0	608	572	0	0	0	0	
2	0	0	0	0	608	572	0	0	0	0	
3	0	0	0	0	608	570	0	0	0	0	
4	0	0	0	0	606	568	0	0	0	0	
5	0	0	0	0	603	565	0	0	0	0	
6	0	0	0	0	600	562	0	0	0	0	
7	0	0	0	0	596	559	0	0	0	0	
8	0	0	0	0	594	557	0	0	0	0	
9	0	0	0	0	591	556	0	0	0	0	
10	0	0	0	0	590	554	0	0	0	0	
11	0	0	0	0	588	553	0	0	0	0	
12	0	0	0	0	587	554	0	0	0	0	
13	0	0	0	0	586	554	0	0	0	0	
14	0	0	0	0	585	555	0	0	0	0	
15	0	0	0	0	585	555	0	0	0	0	
0	0	0	0	0	585	555	0	0	0	0	
1	0	0	0	0	585	555	0	0	0	0	
2	0	0	0	0	584	554	0	0	0	0	
3	0	0	0	0	583	553	0	0	0	0	
4	0	0	0	0	582	551	0	0	0	0	
5	0	0	0	0	580	549	0	0	0	0	
6	0	0	0	0	579	547	0	0	0	0	
7	0	0	0	0	577	544	0	0	0	0	
8	0	0	0	0	575	542	0	0	0	0	
9	0	0	0	0	574	540	0	0	0	0	
10	0	0	0	0	573	538	0	0	0	0	
11	0	0	0	0	573	537	0	0	0	0	
12	0	0	0	0	572	536	0	0	0	0	
13	0	0	0	0	571	536	0	0	0	0	
14	0	0	0	0	571	536	0	0	0	0	
15	0	0	0	0	571	537	0	0	0	0	
0	0	0	0	0	572	539	0	0	0	0	
1	0	0	0	0	572	540	0	0	0	0	
2	0	0	0	0	574	542	0	0	0	0	
3	0	0	0	0	575	544	0	0	0	0	
4	0	0	0	0	577	546	0	0	0	0	
5	0	0	0	0	578	547	0	0	0	0	
6	0	0	0	0	579	547	0	0	0	0	
7	0	0	0	0	578	547	0	0	0	0	
8	0	0	0	0	577	545	0	0	0	0	
9	0	0	0	0	575	543	0	0	0	0	
10	0	0	0	0	573	540	0	0	0	0	
11	0	0	0	0	569	537	0	0	0	0	
12	0	0	0	0	566	534	0	0	0	0	
13	0	0	0	0	562	530	0	0	0	0	
14	0	0	0	0	559	527	0	0	0	0	
15	0	0	0	0	558	526	0	0	0	0	
0	0	0	0	0	556	524	0	0	0	0	
1	0	0	0	0	556	525	0	0	0	0	
2	0	0	0	0	557	526	0	0	0	0	
3	0	0	0	0	560	527	0	0	0	0	
4	0	0	0	0	563	530	0	0	0	0	
5	0	0	0	0	566	533	0	0	0	0	
6	0	0	0	0	570	536	0	0	0	0	
7	0	0	0	0	573	539	0	0	0	0	
8	0	0	0	0	575	540	0	0	0	0	
9	0	0	0	0	576	540	0	0	0	0	
10	0	0	0	0	576	539	0	0	0	0	
11	0	0	0	0	574	536	0	0	0	0	
12	0	0	0	0	570	532	0	0	0	0	
13	0	0	0	0	565	527	0	0	0	0	
14	0	0	0	0	559	522	0	0	0	0	
15	0	0	0	0	554	517	0	0	0	0	
0	0	0	0	0	550	514	0	0	0	0	
1	0	0	0	0	548	512	0	0	0	0	
2	0	0	0	0	547	512	0	0	0	0	
3	0	0	0	0	550	515	0	0	0	0	
4	0	0	0	0	555	519	0	0	0	0	
5	0	0	0	0	561	525	0	0	0	0	
6	0	0	0	0	569	532	0	0	0	0	
7	0	0	0	0	578	541	0	0	0	0	
8	0	0	0	0	587	549	0	0	0	0	
9	0	0	0	0	595	557	0	0	0	0	
10	0	0	0	0	603	563	0	0	0	0	
11	0	0	0	0	609	569	0	0	0	0	
12	0	0	0	0	614	574	0	0	0	0	
13	0	0	0	0	616	577	0	0	0	0	
14	0	0	0	0	617	579	0	0	0	0	
15	0	0	0	0	615	579	0	0	0	0	
0	0	0	0	0	611	576	0	0	0	0	
1	0	0	0	0	606	572	0	0	0	0	
2	0	0	0	0	600	568	0	0	0	0	
3	0	0	0	0	592	562	0	0	0	0	
4	0	0	0	0	585	556	0	0	0	0	
5	0	0	0	0	578	549	0	0	0	0	
6	0	0	0	0	572	543	0	0	0	0	
7	0	0	0	0	568	539	0	0	0	0	
8	0	0	0	0	564	536	0	0	0	0	
9	0	0	0	0	563	534	0	0	0	0	
10	0	0	0	0	563	533	0	0	0	0	
11	0	0	0	0	565	534	0	0	0	0	
12	0	0	0	0	568	536	0	0	0	0	
13	0	0	0	0	572	538	0	0	0	0	
14	0	0	0	0	576	541	0	0	0	0	
15	0	0	0	0	581	544	0	0	0	0	
0	0	0	0	0	584	547	0	0	0	0	
1	0	0	0	0	587	550	0	0	0	0	
2	0	0	0	0	589	551	0	0	0	0	
3	0	0	0	0	589	550	0	0	0	0	
4	0	0	0	0	587	549	0	0	0	0	
5	0	0	0	0	585	547	0	0	0	0	
6	0	0	0	0	582	544	0	0	0	0	
7	0	0	0	0	578	542	0	0	0	0	
8	0	0	0	0	575	539	0	0	0	0	
9	0	0	0	0	572	536	0	0	0	0	
10	0	0	0	0	569	534	0	0	0	0	
11	0	0	0	0	568	532	0	0	0	0	
12	0	0	0	0	567	531	0	0	0	0	
13	0	0	0	0	567	531	0	0	0	0	
14	0	0	0	0	568	532	0	0	0	0	
15	0	0	0	0	571	534	0	0	0	0	
0	0	0	0	0	574	537	0	0	0	0	
1	0	0	0	0	577	540	0	0	0	0	
2	0	0	0	0	581	543	0	0	0	0	
3	0	0	0	0	586	547	0	0	0	0	
4	0	0	0	0	590	550	0	0	0	0	
5	0	0	0	0	595	554	0	0	0	0	
6	0	0	0	0	599	557	0	0	0	0	
7	0	0	0	0	601	559	0	0	0	0	
8	0	0	0	0	604	560	0	0	0	0	
9	0	0	0	0	606	561	0	0	0	0	
10	0	0	0	0	606	562	0	0	0	0	
11	0	0	0	0	605	561	0	0	0	0	
12	0	0	0	0	603	560	0	0	0	0	
13	0	0	0	0	600	558	0	0	0	0	
14	0	0	0	0	598	557	0	0	0	0	
15	0	0	0	0	594	555	0	0	0	0	
0	0	0	0	0	591	554	0	0	0	0	
1	0	0	0	0	588	552	0	0	0	0	
2	0	0	0	0	585	551	0	0	0	0	
3	0	0	0	0	583	550	0	0	0	0	
4	0	0	0	0	581	548	0	0	0	0	
5	0	0	0	0	578	547	0	0	0	0	
6	0	0	0	0	576	544	0	0	0	0	
7	0	0	0	0	573	542	0	0	0	0	
8	0	0	0	0	570	538	0	0	0	0	
9	0	0	0	0	564	532	0	0	0	0	
10	0	0	0	0	559	526	0	0	0	0	
11	0	0	0	0	551	519	0	0	0	0	
12	0	0	0	0	544	511	0	0	0	0	
13	0	0	0	0	536	503	0	0	0	0	
14	0	0	0	0	529	495	0	0	0	0	
15	0	0	0	0	522	488	0	0	0	0	
0	0	0	0	0	516	482	0	0	0	0	
1	0	0	0	0	511	476	0	0	0	0	
2	0	0	0	0	508	473	0	0	0	0	
3	0	0	0	0	504	470	0	0	0	0	
4	0	0	0	0	503	468	0	0	0	0	
5	0	0	0	0	501	466	0	0	0	0	
6	0	0	0	0	500	464	0	0	0	0	
7	0	0	0	0	499	463	0	0	0	0	
8	0	0	0	0	496	460	0	0	0	0	
9	0	0	0	0	492	457	0	0	0	0	
10	0	0	0	0	487	451	0	0	0	0	
11	0	0	0	0	479	444	0	0	0	0	
12	0	0	0	0	469	434	0	0	0	0	
13	0	0	0	0	456	422	0	0	0	0	
14	0	0	0	0	441	408	0	0	0	0	
15	0	0	0	0	424	391	0	0	0	0	
0	0	0	0	0	406	375	0	0	0	0	
1	0	0	0	0	387	357	0	0	0	0	
2	0	0	0	0	369	340	0	0	0	0	
3	0	0	0	0	353	325	0	0	0	0	
4	0	0	0	0	341	312	0	0	0	0	
5	0	0	0	0	333	304	0	0	0	0	
6	0	0	0	0	330	300	0	0	0	0	
7	0	0	0	0	333	301	0	0	0	0	
8	0	0	0	0	341	307	0	0	0	0	
9	0	0	0	0	355	318	0	0	0	0	
10	0	0	0	0	373	334	0	0	0	0	
11	0	0	0	0	396	352	0	0	0	0	
12	0	0	0	0	420	374	0	0	0	0	
13	0	0	0	0	447	396	0	0	0	0	
14	0	0	0	0	473	419	0	0	0	0	
15	0	0	0	0	498	442	0	0	0	0	
0	0	0	0	0	522	463	0	0	0	0	
1	0	0	0	0	543	482	0	0	0	0	
2	0	0	0	0	560	499	0	0	0	0	
3	0	0	0	0	575	513	0	0	0	0	
4	0	0	0	0	585	526	0	0	0	0	
5	0	0	0	0	594	535	0	0	0	0	
6	0	0	0	0	599	543	0	0	0	0	
7	0	0	0	0	603	549	0	0	0	0	
8	0	0	0	0	603	553	0	0	0	0	
9	0	0	0	0	603	556	0	0	0	0	
10	0	0	0	0	603	559	0	0	0	0	
11	0	0	0	0	602	560	0	0	0	0	
12	0	0	0	0	601	562	0	0	0	0	
13	0	0	0	0	600	563	0	0	0	0	
14	0	0	0	0	600	564	0	0	0	0	
15	0	0	0	0	600	566	0	0	0	0	
0	0	0	0	0	601	567	0	0	0	0	
1	0	0	0	0	601	567	0	0	0	0	
2	0	0	0	0	601	567	0	0	0	0	
3	0	0	0	0	601	565	0	0	0	0	
4	0	0	0	0	600	563	0	0	0	0	
5	0	0	0	0	598	561	0	0	0	0	
6	0	0	0	0	596	558	0	0	0	0	
7	0	0	0	0	592	553	0	0	0	0	
8	0	0	0	0	588	549	0	0	0	0	
9	0	0	0	0	584	545	0	0	0	0	
10	0	0	0	0	580	542	0	0	0	0	
11	0	0	0	0	577	539	0	0	0	0	
12	0	0	0	0	576	537	0	0	0	0	
13	0	0	0	0	575	537	0	0	0	0	
14	0	0	0	0	577	539	0	0	0	0	
15	0	0	0	0	581	542	0	0	0	0	
0	0	0	0	0	586	546	0	0	0	0	
1	0	0	0	0	593	552	0	0	0	0	
2	0	0	0	0	600	559	0	0	0	0	
3	0	0	0	0	609	566	0	0	0	0	
4	0	0	0	0	617	574	0	0	0	0	
5	0	0	0	0	626	580	0	0	0	0	
6	0	0	0	0	632	587	0	0	0	0	
7	0	0	0	0	638	591	0	0	0	0	
8	0	0	0	0	641	595	0	0	0	0	
9	0	0	0	0	642	596	0	0	0	0	
10	0	0	0	0	640	596	0	0	0	0	
11	0	0	0	0	636	593	0	0	0	0	
12	0	0	0	0	631	589	0	0	0	0	
13	0	0	0	0	623	583	0	0	0	0	
14	0	0	0	0	615	577	0	0	0	0	
15	0	0	0	0	606	570	0	0	0	0	
0	0	0	0	0	598	563	0	0	0	0	
1	0	0	0	0	590	556	0	0	0	0	
2	0	0	0	0	584	551	0	0	0	0	
3	0	0	0	0	579	546	0	0	0	0	
4	0	0	0	0	576	543	0	0	0	0	
5	0	0	0	0	574	541	0	0	0	0	
6	0	0	0	0	574	540	0	0	0	0	
7	0	0	0	0	574	539	0	0	0	0	
8	0	0	0	0	575	539	0	0	0	0	
9	0	0	0	0	575	538	0	0	0	0	
10	0	0	0	0	576	538	0	0	0	0	
11	0	0	0	0	577	538	0	0	0	0	
12	0	0	0	0	577	538	0	0	0	0	
13	0	0	0	0	578	538	0	0	0	0	
14	0	0	0	0	578	538	0	0	0	0	
15	0	0	0	0	578	539	0	0	0	0	
0	0	0	0	0	579	540	0	0	0	0	
1	0	0	0	0	581	541	0	0	0	0	
2	0	0	0	0	583	543	0	0	0	0	
3	0	0	0	0	586	545	0	0	0	0	
4	0	0	0	0	589	547	0	0	0	0	
5	0	0	0	0	592	550	0	0	0	0	
6	0	0	0	0	596	553	0	0	0	0	
7	0	0	0	0	600	556	0	0	0	0	
8	0	0	0	0	603	558	0	0	0	0	
9	0	0	0	0	606	560	0	0	0	0	
10	0	0	0	0	609	563	0	0	0	0	
11	0	0	0	0	611	564	0	0	0	0	
12	0	0	0	0	613	567	0	0	0	0	
13	0	0	0	0	615	568	0	0	0	0	
14	0	0	0	0	615	569	0	0	0	0	
15	0	0	0	0	616	570	0	0	0	0	
0	0	0	0	0	616	571	0	0	0	0	
1	0	0	0	0	615	570	0	0	0	0	
2	0	0	0	0	614	569	0	0	0	0	
3	0	0	0	0	612	568	0	0	0	0	
4	0	0	0	0	610	566	0	0	0	0	
5	0	0	0	0	609	564	0	0	0	0	
6	0	0	0	0	607	562	0	0	0	0	
7	0	0	0	0	606	561	0	0	0	0	
8	0	0	0	0	605	561	0	0	0	0	
9	0	0	0	0	605	561	0	0	0	0	
10	0	0	0	0	606	562	0	0	0	0	
11	0	0	0	0	608	564	0	0	0	0	
12	0	0	0	0	609	567	0	0	0	0	
13	0	0	0	0	612	569	0	0	0	0	
14	0	0	0	0	614	571	0	0	0	0	
15	0	0	0	0	615	573	0	0	0	0	
0	0	0	0	0	615	574	0	0	0	0	
1	0	0	0	0	615	574	0	0	0	0	
2	0	0	0	0	614	573	0	0	0	0	
3	0	0	0	0	611	571	0	0	0	0	
4	0	0	0	0	608	568	0	0	0	0	
5	0	0	0	0	603	563	0	0	0	0	
6	0	0	0	0	598	558	0	0	0	0	
7	0	0	0	0	591	552	0	0	0	0	
8	0	0	0	0	585	545	0	0	0	0	
9	0	0	0	0	578	539	0	0	0	0	
10	0	0	0	0	571	532	0	0	0	0	
11	0	0	0	0	564	526	0	0	0	0	
12	0	0	0	0	558	519	0	0	0	0	
13	0	0	0	0	553	514	0	0	0	0	
14	0	0	0	0	549	511	0	0	0	0	
15	0	0	0	0	547	508	0	0	0	0	
0	0	0	0	0	546	507	0	0	0	0	
1	0	0	0	0	547	508	0	0	0	0	
2	0	0	0	0	550	511	0	0	0	0	
3	0	0	0	0	556	515	0	0	0	0	
4	0	0	0	0	562	521	0	0	0	0	
5	0	0	0	0	569	527	0	0	0	0	
6	0	0	0	0	577	533	0	0	0	0	
7	0	0	0	0	585	540	0	0	0	0	
8	0	0	0	0	592	545	0	0	0	0	
9	0	0	0	0	598	550	0	0	0	0	
10	0	0	0	0	602	553	0	0	0	0	
11	0	0	0	0	604	555	0	0	0	0	
12	0	0	0	0	604	555	0	0	0	0	
13	0	0	0	0	602	553	0	0	0	0	
14	0	0	0	0	599	551	0	0	0	0	
15	0	0	0	0	593	547	0	0	0	0	
0	0	0	0	0	588	543	0	0	0	0	
1	0	0	0	0	581	539	0	0	0	0	
2	0	0	0	0	576	535	0	0	0	0	
3	0	0	0	0	571	531	0	0	0	0	
4	0	0	0	0	568	528	0	0	0	0	
5	0	0	0	0	564	527	0	0	0	0	
6	0	0	0	0	563	526	0	0	0	0	
7	0	0	0	0	563	525	0	0	0	0	
8	0	0	0	0	564	525	0	0	0	0	
9	0	0	0	0	564	525	0	0	0	0	
10	0	0	0	0	566	526	0	0	0	0	
11	0	0	0	0	567	526	0	0	0	0	
12	0	0	0	0	568	525	0	0	0	0	
13	0	0	0	0	568	524	0	0	0	0	
14	0	0	0	0	568	521	0	0	0	0	
15	0	0	0	0	565	519	0	0	0	0	
0	0	0	0	0	562	515	0	0	0	0	
1	0	0	0	0	559	511	0	0	0	0	
2	0	0	0	0	554	507	0	0	0	0	
3	0	0	0	0	550	502	0	0	0	0	
4	0	0	0	0	545	498	0	0	0	0	
5	0	0	0	0	542	495	0	0	0	0	
6	0	0	0	0	540	493	0	0	0	0	
7	0	0	0	0	539	493	0	0	0	0	
8	0	0	0	0	540	494	0	0	0	0	
9	0	0	0	0	542	495	0	0	0	0	
10	0	0	0	0	545	498	0	0	0	0	
11	0	0	0	0	550	501	0	0	0	0	
12	0	0	0	0	554	505	0	0	0	0	
13	0	0	0	0	559	508	0	0	0	0	
14	0	0	0	0	563	512	0	0	0	0	
15	0	0	0	0	567	516	0	0	0	0	
0	0	0	0	0	570	518	0	0	0	0	
1	0	0	0	0	572	521	0	0	0	0	
2	0	0	0	0	574	523	0	0	0	0	
3	0	0	0	0	575	524	0	0	0	0	
4	0	0	0	0	575	525	0	0	0	0	
5	0	0	0	0	575	525	0	0	0	0	
6	0	0	0	0	575	525	0	0	0	0	
7	0	0	0	0	574	524	0	0	0	0	
8	0	0	0	0	572	524	0	0	0	0	
9	0	0	0	0	571	523	0	0	0	0	
10	0	0	0	0	570	523	0	0	0	0	
11	0	0	0	0	569	523	0	0	0	0	
12	0	0	0	0	568	522	0	0	0	0	
13	0	0	0	0	567	521	0	0	0	0	
14	0	0	0	0	566	521	0	0	0	0	
15	0	0	0	0	564	520	0	0	0	0	
0	0	0	0	0	563	519	0	0	0	0	
1	0	0	0	0	560	517	0	0	0	0	
2	0	0	0	0	557	515	0	0	0	0	
3	0	0	0	0	553	512	0	0	0	0	
4	0	0	0	0	550	508	0	0	0	0	
5	0	0	0	0	545	505	0	0	0	0	
6	0	0	0	0	542	502	0	0	0	0	
7	0	0	0	0	539	498	0	0	0	0	
8	0	0	0	0	536	494	0	0	0	0	
9	0	0	0	0	534	491	0	0	0	0	
10	0	0	0	0	532	488	0	0	0	0	
11	0	0	0	0	531	486	0	0	0	0	
12	0	0	0	0	529	483	0	0	0	0	
13	0	0	0	0	529	482	0	0	0	0	
14	0	0	0	0	530	482	0	0	0	0	
15	0	0	0	0	530	481	0	0	0	0	
0	0	0	0	0	531	483	0	0	0	0	
1	0	0	0	0	533	484	0	0	0	0	
2	0	0	0	0	535	486	0	0	0	0	
3	0	0	0	0	537	488	0	0	0	0	
4	0	0	0	0	540	491	0	0	0	0	
5	0	0	0	0	542	493	0	0	0	0	
6	0	0	0	0	544	495	0	0	0	0	
7	0	0	0	0	546	497	0	0	0	0	
8	0	0	0	0	547	499	0	0	0	0	
9	0	0	0	0	548	499	0	0	0	0	
10	0	0	0	0	549	500	0	0	0	0	
11	0	0	0	0	549	499	0	0	0	0	
12	0	0	0	0	548	499	0	0	0	0	
13	0	0	0	0	547	497	0	0	0	0	
14	0	0	0	0	545	496	0	0	0	0	
15	0	0	0	0	544	495	0	0	0	0	
0	0	0	0	0	543	494	0	0	0	0	
1	0	0	0	0	542	493	0	0	0	0	
2	0	0	0	0	542	494	0	0	0	0	
3	0	0	0	0	543	495	0	0	0	0	
4	0	0	0	0	544	497	0	0	0	0	
5	0	0	0	0	547	499	0	0	0	0	
6	0	0	0	0	549	503	0	0	0	0	
7	0	0	0	0	551	505	0	0	0	0	
8	0	0	0	0	555	509	0	0	0	0	
9	0	0	0	0	557	512	0	0	0	0	
10	0	0	0	0	560	515	0	0	0	0	
11	0	0	0	0	561	516	0	0	0	0	
12	0	0	0	0	562	517	0	0	0	0	
13	0	0	0	0	562	517	0	0	0	0	
14	0	0	0	0	560	515	0	0	0	0	
15	0	0	0	0	557	512	0	0	0	0	
0	0	0	0	0	553	508	0	0	0	0	
1	0	0	0	0	547	503	0	0	0	0	
2	0	0	0	0	541	497	0	0	0	0	
3	0	0	0	0	534	490	0	0	0	0	
4	0	0	0	0	527	484	0	0	0	0	
5	0	0	0	0	521	478	0	0	0	0	
6	0	0	0	0	516	473	0	0	0	0	
7	0	0	0	0	512	469	0	0	0	0	
8	0	0	0	0	510	467	0	0	0	0	
9	0	0	0	0	509	467	0	0	0	0	
10	0	0	0	0	510	468	0	0	0	0	
11	0	0	0	0	512	471	0	0	0	0	
12	0	0	0	0	516	474	0	0	0	0	
13	0	0	0	0	521	479	0	0	0	0	
14	0	0	0	0	525	483	0	0	0	0	
15	0	0	0	0	530	487	0	0	0	0	
0	0	0	0	0	534	490	0	0	0	0	
1	0	0	0	0	536	492	0	0	0	0	
2	0	0	0	0	538	494	0	0	0	0	
3	0	0	0	0	538	494	0	0	0	0	
4	0	0	0	0	537	494	0	0	0	0	
5	0	0	0	0	536	492	0	0	0	0	
6	0	0	0	0	534	491	0	0	0	0	
7	0	0	0	0	532	489	0	0	0	0	
8	0	0	0	0	531	488	0	0	0	0	
9	0	0	0	0	531	488	0	0	0	0	
10	0	0	0	0	532	490	0	0	0	0	
11	0	0	0	0	535	492	0	0	0	0	
12	0	0	0	0	538	496	0	0	0	0	
13	0	0	0	0	542	500	0	0	0	0	
14	0	0	0	0	547	505	0	0	0	0	
15	0	0	0	0	551	510	0	0	0	0	
0	0	0	0	0	556	515	0	0	0	0	
1	0	0	0	0	560	519	0	0	0	0	
2	0	0	0	0	563	521	0	0	0	0	
3	0	0	0	0	564	523	0	0	0	0	
4	0	0	0	0	564	523	0	0	0	0	
5	0	0	0	0	563	522	0	0	0	0	
6	0	0	0	0	560	519	0	0	0	0	
7	0	0	0	0	556	516	0	0	0	0	
8	0	0	0	0	551	511	0	0	0	0	
9	0	0	0	0	546	506	0	0	0	0	
10	0	0	0	0	539	500	0	0	0	0	
11	0	0	0	0	532	494	0	0	0	0	
12	0	0	0	0	526	487	0	0	0	0	
13	0	0	0	0	519	481	0	0	0	0	
14	0	0	0	0	514	476	0	0	0	0	
15	0	0	0	0	510	472	0	0	0	0	
0	0	0	0	0	508	470	0	0	0	0	
1	0	0	0	0	507	469	0	0	0	0	
2	0	0	0	0	507	469	0	0	0	0	
3	0	0	0	0	509	471	0	0	0	0	
4	0	0	0	0	511	473	0	0	0	0	
5	0	0	0	0	515	476	0	0	0	0	
6	0	0	0	0	519	479	0	0	0	0	
7	0	0	0	0	524	482	0	0	0	0	
8	0	0	0	0	529	485	0	0	0	0	
9	0	0	0	0	533	487	0	0	0	0	
10	0	0	0	0	537	489	0	0	0	0	
11	0	0	0	0	540	492	0	0	0	0	
12	0	0	0	0	544	493	0	0	0	0	
13	0	0	0	0	546	494	0	0	0	0	
14	0	0	0	0	547	495	0	0	0	0	
15	0	0	0	0	547	495	0	0	0	0	
0	0	0	0	0	547	495	0	0	0	0	
1	0	0	0	0	546	494	0	0	0	0	
2	0	0	0	0	545	494	0	0	0	0	
3	0	0	0	0	543	494	0	0	0	0	
4	0	0	0	0	542	494	0	0	0	0	
5	0	0	0	0	541	495	0	0	0	0	
6	0	0	0	0	540	496	0	0	0	0	
7	0	0	0	0	540	498	0	0	0	0	
8	0	0	0	0	541	500	0	0	0	0	
9	0	0	0	0	543	503	0	0	0	0	
10	0	0	0	0	544	505	0	0	0	0	
11	0	0	0	0	547	508	0	0	0	0	
12	0	0	0	0	549	509	0	0	0	0	
13	0	0	0	0	551	511	0	0	0	0	
14	0	0	0	0	553	511	0	0	0	0	
15	0	0	0	0	553	509	0	0	0	0	
0	0	0	0	0	552	507	0	0	0	0	
1	0	0	0	0	550	503	0	0	0	0	
2	0	0	0	0	547	499	0	0	0	0	
3	0	0	0	0	543	494	0	0	0	0	
4	0	0	0	0	538	489	0	0	0	0	
5	0	0	0	0	534	485	0	0	0	0	
6	0	0	0	0	530	482	0	0	0	0	
7	0	0	0	0	527	480	0	0	0	0	
8	0	0	0	0	526	480	0	0	0	0	
9	0	0	0	0	526	480	0	0	0	0	
10	0	0	0	0	527	482	0	0	0	0	
11	0	0	0	0	529	485	0	0	0	0	
12	0	0	0	0	532	488	0	0	0	0	
13	0	0	0	0	535	491	0	0	0	0	
14	0	0	0	0	538	494	0	0	0	0	
15	0	0	0	0	541	497	0	0	0	0	
0	0	0	0	0	543	499	0	0	0	0	
1	0	0	0	0	545	499	0	0	0	0	
2	0	0	0	0	547	500	0	0	0	0	
3	0	0	0	0	547	499	0	0	0	0	
4	0	0	0	0	546	497	0	0	0	0	
5	0	0	0	0	545	496	0	0	0	0	
6	0	0	0	0	544	495	0	0	0	0	
7	0	0	0	0	543	494	0	0	0	0	
8	0	0	0	0	542	493	0	0	0	0	
9	0	0	0	0	541	493	0	0	0	0	
10	0	0	0	0	541	493	0	0	0	0	
11	0	0	0	0	540	495	0	0	0	0	
12	0	0	0	0	540	496	0	0	0	0	
13	0	0	0	0	539	497	0	0	0	0	
14	0	0	0	0	539	498	0	0	0	0	
15	0	0	0	0	538	499	0	0	0	0	
0	0	0	0	0	537	499	0	0	0	0	
1	0	0	0	0	536	498	0	0	0	0	
2	0	0	0	0	534	497	0	0	0	0	
3	0	0	0	0	532	496	0	0	0	0	
4	0	0	0	0	531	494	0	0	0	0	
5	0	0	0	0	529	492	0	0	0	0	
6	0	0	0	0	528	489	0	0	0	0	
7	0	0	0	0	527	487	0	0	0	0	
8	0	0	0	0	526	486	0	0	0	0	
9	0	0	0	0	526	484	0	0	0	0	
10	0	0	0	0	526	484	0	0	0	0	
11	0	0	0	0	527	484	0	0	0	0	
12	0	0	0	0	529	484	0	0	0	0	
13	0	0	0	0	530	484	0	0	0	0	
14	0	0	0	0	531	485	0	0	0	0	
15	0	0	0	0	533	486	0	0	0	0	
0	0	0	0	0	534	487	0	0	0	0	
1	0	0	0	0	534	487	0	0	0	0	
2	0	0	0	0	533	487	0	0	0	0	
3	0	0	0	0	533	487	0	0	0	0	
4	0	0	0	0	531	487	0	0	0	0	
5	0	0	0	0	529	486	0	0	0	0	
6	0	0	0	0	527	484	0	0	0	0	
7	0	0	0	0	524	482	0	0	0	0	
8	0	0	0	0	521	480	0	0	0	0	
9	0	0	0	0	519	478	0	0	0	0	
10	0	0	0	0	516	476	0	0	0	0	
11	0	0	0	0	514	475	0	0	0	0	
12	0	0	0	0	513	473	0	0	0	0	
13	0	0	0	0	513	473	0	0	0	0	
14	0	0	0	0	514	473	0	0	0	0	
15	0	0	0	0	516	475	0	0	0	0	
0	0	0	0	0	519	478	0	0	0	0	
1	0	0	0	0	524	481	0	0	0	0	
2	0	0	0	0	529	484	0	0	0	0	
3	0	0	0	0	534	488	0	0	0	0	
4	0	0	0	0	538	492	0	0	0	0	
5	0	0	0	0	541	494	0	0	0	0	
6	0	0	0	0	543	496	0	0	0	0	
7	0	0	0	0	543	496	0	0	0	0	
8	0	0	0	0	542	495	0	0	0	0	
9	0	0	0	0	540	494	0	0	0	0	
10	0	0	0	0	537	492	0	0	0	0	
11	0	0	0	0	533	489	0	0	0	0	
12	0	0	0	0	531	487	0	0	0	0	
13	0	0	0	0	527	484	0	0	0	0	
14	0	0	0	0	525	481	0	0	0	0	
15	0	0	0	0	522	479	0	0	0	0	
0	0	0	0	0	520	477	0	0	0	0	
1	0	0	0	0	519	475	0	0	0	0	
2	0	0	0	0	519	475	0	0	0	0	
3	0	0	0	0	520	476	0	0	0	0	
4	0	0	0	0	523	477	0	0	0	0	
5	0	0	0	0	526	480	0	0	0	0	
6	0	0	0	0	531	483	0	0	0	0	
7	0	0	0	0	536	487	0	0	0	0	
8	0	0	0	0	541	492	0	0	0	0	
9	0	0	0	0	547	496	0	0	0	0	
10	0	0	0	0	552	501	0	0	0	0	
11	0	0	0	0	557	505	0	0	0	0	
12	0	0	0	0	560	509	0	0	0	0	
13	0	0	0	0	563	511	0	0	0	0	
14	0	0	0	0	563	513	0	0	0	0	
15	0	0	0	0	563	513	0	0	0	0	
0	0	0	0	0	561	511	0	0	0	0	
1	0	0	0	0	557	509	0	0	0	0	
2	0	0	0	0	552	504	0	0	0	0	
3	0	0	0	0	545	499	0	0	0	0	
4	0	0	0	0	540	494	0	0	0	0	
5	0	0	0	0	534	488	0	0	0	0	
6	0	0	0	0	527	482	0	0	0	0	
7	0	0	0	0	521	477	0	0	0	0	
8	0	0	0	0	517	473	0	0	0	0	
9	0	0	0	0	514	470	0	0	0	0	
10	0	0	0	0	513	468	0	0	0	0	
11	0	0	0	0	513	468	0	0	0	0	
12	0	0	0	0	515	469	0	0	0	0	
13	0	0	0	0	518	472	0	0	0	0	
14	0	0	0	0	523	476	0	0	0	0	
15	0	0	0	0	527	480	0	0	0	0	
0	0	0	0	0	532	484	0	0	0	0	
1	0	0	0	0	537	489	0	0	0	0	
2	0	0	0	0	542	493	0	0	0	0	
3	0	0	0	0	544	496	0	0	0	0	
4	0	0	0	0	547	499	0	0	0	0	
5	0	0	0	0	547	500	0	0	0	0	
6	0	0	0	0	547	500	0	0	0	0	
7	0	0	0	0	545	498	0	0	0	0	
8	0	0	0	0	542	496	0	0	0	0	
9	0	0	0	0	537	493	0	0	0	0	
10	0	0	0	0	533	489	0	0	0	0	
11	0	0	0	0	529	485	0	0	0	0	
12	0	0	0	0	524	481	0	0	0	0	
13	0	0	0	0	520	477	0	0	0	0	
14	0	0	0	0	518	475	0	0	0	0	
15	0	0	0	0	515	473	0	0	0	0	
0	0	0	0	0	515	472	0	0	0	0	
1	0	0	0	0	515	473	0	0	0	0	
2	0	0	0	0	516	474	0	0	0	0	
3	0	0	0	0	518	476	0	0	0	0	
4	0	0	0	0	521	479	0	0	0	0	
5	0	0	0	0	524	481	0	0	0	0	
6	0	0	0	0	526	484	0	0	0	0	
7	0	0	0	0	529	486	0	0	0	0	
8	0	0	0	0	531	487	0	0	0	0	
9	0	0	0	0	531	488	0	0	0	0	
10	0	0	0	0	532	488	0	0	0	0	
11	0	0	0	0	531	487	0	0	0	0	
12	0	0	0	0	529	484	0	0	0	0	
13	0	0	0	0	527	482	0	0	0	0	
14	0	0	0	0	525	479	0	0	0	0	
15	0	0	0	0	521	476	0	0	0	0	
0	0	0	0	0	518	472	0	0	0	0	
1	0	0	0	0	514	468	0	0	0	0	
2	0	0	0	0	511	465	0	0	0	0	
3	0	0	0	0	508	462	0	0	0	0	
4	0	0	0	0	506	460	0	0	0	0	
5	0	0	0	0	505	460	0	0	0	0	
6	0	0	0	0	506	461	0	0	0	0	
7	0	0	0	0	508	464	0	0	0	0	
8	0	0	0	0	512	468	0	0	0	0	
9	0	0	0	0	518	475	0	0	0	0	
10	0	0	0	0	526	482	0	0	0	0	
11	0	0	0	0	534	490	0	0	0	0	
12	0	0	0	0	543	498	0	0	0	0	
13	0	0	0	0	552	505	0	0	0	0	
14	0	0	0	0	560	512	0	0	0	0	
15	0	0	0	0	567	518	0	0	0	0	
0	0	0	0	0	571	521	0	0	0	0	
1	0	0	0	0	574	523	0	0	0	0	
2	0	0	0	0	574	522	0	0	0	0	
3	0	0	0	0	571	519	0	0	0	0	
4	0	0	0	0	567	516	0	0	0	0	
5	0	0	0	0	560	510	0	0	0	0	
6	0	0	0	0	553	504	0	0	0	0	
7	0	0	0	0	545	497	0	0	0	0	
8	0	0	0	0	537	491	0	0	0	0	
9	0	0	0	0	530	485	0	0	0	0	
10	0	0	0	0	524	481	0	0	0	0	
11	0	0	0	0	519	478	0	0	0	0	
12	0	0	0	0	516	476	0	0	0	0	
13	0	0	0	0	515	475	0	0	0	0	
14	0	0	0	0	515	476	0	0	0	0	
15	0	0	0	0	515	477	0	0	0	0	
0	0	0	0	0	518	479	0	0	0	0	
1	0	0	0	0	521	481	0	0	0	0	
2	0	0	0	0	524	483	0	0	0	0	
3	0	0	0	0	526	483	0	0	0	0	
4	0	0	0	0	527	483	0	0	0	0	
5	0	0	0	0	528	482	0	0	0	0	
6	0	0	0	0	527	480	0	0	0	0	
7	0	0	0	0	525	478	0	0	0	0	
8	0	0	0	0	522	474	0	0	0	0	
9	0	0	0	0	519	471	0	0	0	0	
10	0	0	0	0	515	468	0	0	0	0	
11	0	0	0	0	512	465	0	0	0	0	
12	0	0	0	0	509	463	0	0	0	0	
13	0	0	0	0	508	462	0	0	0	0	
14	0	0	0	0	508	463	0	0	0	0	
15	0	0	0	0	509	465	0	0	0	0	
0	0	0	0	0	512	468	0	0	0	0	
1	0	0	0	0	517	472	0	0	0	0	
2	0	0	0	0	523	478	0	0	0	0	
3	0	0	0	0	528	483	0	0	0	0	
4	0	0	0	0	535	489	0	0	0	0	
5	0	0	0	0	541	494	0	0	0	0	
6	0	0	0	0	545	497	0	0	0	0	
7	0	0	0	0	547	500	0	0	0	0	
8	0	0	0	0	549	501	0	0	0	0	
9	0	0	0	0	549	500	0	0	0	0	
10	0	0	0	0	546	498	0	0	0	0	
11	0	0	0	0	543	496	0	0	0	0	
12	0	0	0	0	539	492	0	0	0	0	
13	0	0	0	0	534	488	0	0	0	0	
14	0	0	0	0	530	485	0	0	0	0	
15	0	0	0	0	527	483	0	0	0	0	
0	0	0	0	0	525	481	0	0	0	0	
1	0	0	0	0	524	481	0	0	0	0	
2	0	0	0	0	524	482	0	0	0	0	
3	0	0	0	0	526	483	0	0	0	0	
4	0	0	0	0	528	486	0	0	0	0	
5	0	0	0	0	531	487	0	0	0	0	
6	0	0	0	0	533	489	0	0	0	0	
7	0	0	0	0	535	491	0	0	0	0	
8	0	0	0	0	536	491	0	0	0	0	
9	0	0	0	0	537	490	0	0	0	0	
10	0	0	0	0	536	489	0	0	0	0	
11	0	0	0	0	535	487	0	0	0	0	
12	0	0	0	0	534	484	0	0	0	0	
13	0	0	0	0	532	482	0	0	0	0	
14	0	0	0	0	530	481	0	0	0	0	
15	0	0	0	0	529	480	0	0	0	0	
0	0	0	0	0	529	480	0	0	0	0	
1	0	0	0	0	531	482	0	0	0	0	
2	0	0	0	0	535	486	0	0	0	0	
3	0	0	0	0	539	490	0	0	0	0	
4	0	0	0	0	545	496	0	0	0	0	
5	0	0	0	0	551	502	0	0	0	0	
6	0	0	0	0	558	508	0	0	0	0	
7	0	0	0	0	563	513	0	0	0	0	
8	0	0	0	0	567	517	0	0	0	0	
9	0	0	0	0	569	519	0	0	0	0	
10	0	0	0	0	568	518	0	0	0	0	
11	0	0	0	0	564	516	0	0	0	0	
12	0	0	0	0	559	512	0	0	0	0	
13	0	0	0	0	551	505	0	0	0	0	
14	0	0	0	0	543	499	0	0	0	0	
15	0	0	0	0	534	491	0	0	0	0	
0	0	0	0	0	525	483	0	0	0	0	
1	0	0	0	0	516	475	0	0	0	0	
2	0	0	0	0	508	468	0	0	0	0	
3	0	0	0	0	502	462	0	0	0	0	
4	0	0	0	0	498	457	0	0	0	0	
5	0	0	0	0	497	455	0	0	0	0	
6	0	0	0	0	498	455	0	0	0	0	
7	0	0	0	0	502	457	0	0	0	0	
8	0	0	0	0	508	460	0	0	0	0	
9	0	0	0	0	515	465	0	0	0	0	
10	0	0	0	0	524	471	0	0	0	0	
11	0	0	0	0	531	476	0	0	0	0	
12	0	0	0	0	539	481	0	0	0	0	
13	0	0	0	0	544	485	0	0	0	0	
14	0	0	0	0	547	487	0	0	0	0	
15	0	0	0	0	548	488	0	0	0	0	
0	0	0	0	0	546	487	0	0	0	0	
1	0	0	0	0	542	484	0	0	0	0	
2	0	0	0	0	536	480	0	0	0	0	
3	0	0	0	0	528	474	0	0	0	0	
4	0	0	0	0	520	468	0	0	0	0	
5	0	0	0	0	512	463	0	0	0	0	
6	0	0	0	0	506	457	0	0	0	0	
7	0	0	0	0	500	453	0	0	0	0	
8	0	0	0	0	496	450	0	0	0	0	
9	0	0	0	0	494	448	0	0	0	0	
10	0	0	0	0	495	447	0	0	0	0	
11	0	0	0	0	497	448	0	0	0	0	
12	0	0	0	0	500	450	0	0	0	0	
13	0	0	0	0	504	454	0	0	0	0	
14	0	0	0	0	510	457	0	0	0	0	
15	0	0	0	0	515	461	0	0	0	0	
0	0	0	0	0	520	464	0	0	0	0	
1	0	0	0	0	525	468	0	0	0	0	
2	0	0	0	0	528	471	0	0	0	0	
3	0	0	0	0	530	473	0	0	0	0	
4	0	0	0	0	531	475	0	0	0	0	
5	0	0	0	0	532	477	0	0	0	0	
6	0	0	0	0	531	478	0	0	0	0	
7	0	0	0	0	531	478	0	0	0	0	
8	0	0	0	0	529	479	0	0	0	0	
9	0	0	0	0	528	478	0	0	0	0	
10	0	0	0	0	527	478	0	0	0	0	
11	0	0	0	0	527	479	0	0	0	0	
12	0	0	0	0	528	480	0	0	0	0	
13	0	0	0	0	529	481	0	0	0	0	
14	0	0	0	0	531	482	0	0	0	0	
15	0	0	0	0	533	485	0	0	0	0	
0	0	0	0	0	536	488	0	0	0	0	
1	0	0	0	0	540	491	0	0	0	0	
2	0	0	0	0	543	495	0	0	0	0	
3	0	0	0	0	547	497	0	0	0	0	
4	0	0	0	0	550	500	0	0	0	0	
5	0	0	0	0	552	503	0	0	0	0	
6	0	0	0	0	554	505	0	0	0	0	
7	0	0	0	0	556	506	0	0	0	0	
8	0	0	0	0	556	506	0	0	0	0	
9	0	0	0	0	556	506	0	0	0	0	
10	0	0	0	0	555	505	0	0	0	0	
11	0	0	0	0	552	503	0	0	0	0	
12	0	0	0	0	549	500	0	0	0	0	
13	0	0	0	0	547	496	0	0	0	0	
14	0	0	0	0	543	492	0	0	0	0	
15	0	0	0	0	540	488	0	0	0	0	
0	0	0	0	0	536	485	0	0	0	0	
1	0	0	0	0	533	481	0	0	0	0	
2	0	0	0	0	532	478	0	0	0	0	
3	0	0	0	0	531	477	0	0	0	0	
4	0	0	0	0	531	476	0	0	0	0	
5	0	0	0	0	532	476	0	0	0	0	
6	0	0	0	0	534	477	0	0	0	0	
7	0	0	0	0	536	479	0	0	0	0	
8	0	0	0	0	539	481	0	0	0	0	
9	0	0	0	0	541	483	0	0	0	0	
10	0	0	0	0	542	485	0	0	0	0	
11	0	0	0	0	543	486	0	0	0	0	
12	0	0	0	0	542	486	0	0	0	0	
13	0	0	0	0	539	483	0	0	0	0	
14	0	0	0	0	534	479	0	0	0	0	
15	0	0	0	0	527	474	0	0	0	0	
0	0	0	0	0	521	468	0	0	0	0	
1	0	0	0	0	512	461	0	0	0	0	
2	0	0	0	0	504	453	0	0	0	0	
3	0	0	0	0	496	446	0	0	0	0	
4	0	0	0	0	489	439	0	0	0	0	
5	0	0	0	0	483	433	0	0	0	0	
6	0	0	0	0	480	430	0	0	0	0	
7	0	0	0	0	479	429	0	0	0	0	
8	0	0	0	0	480	430	0	0	0	0	
9	0	0	0	0	483	433	0	0	0	0	
10	0	0	0	0	490	438	0	0	0	0	
11	0	0	0	0	497	445	0	0	0	0	
12	0	0	0	0	506	453	0	0	0	0	
13	0	0	0	0	515	461	0	0	0	0	
14	0	0	0	0	525	469	0	0	0	0	
15	0	0	0	0	535	477	0	0	0	0	
0	0	0	0	0	543	485	0	0	0	0	
1	0	0	0	0	551	492	0	0	0	0	
2	0	0	0	0	557	496	0	0	0	0	
3	0	0	0	0	561	499	0	0	0	0	
4	0	0	0	0	563	501	0	0	0	0	
5	0	0	0	0	563	501	0	0	0	0	
6	0	0	0	0	562	500	0	0	0	0	
7	0	0	0	0	559	497	0	0	0	0	
8	0	0	0	0	554	493	0	0	0	0	
9	0	0	0	0	548	488	0	0	0	0	
10	0	0	0	0	541	483	0	0	0	0	
11	0	0	0	0	534	477	0	0	0	0	
12	0	0	0	0	526	471	0	0	0	0	
13	0	0	0	0	518	464	0	0	0	0	
14	0	0	0	0	512	459	0	0	0	0	
15	0	0	0	0	505	453	0	0	0	0	
0	0	0	0	0	500	448	0	0	0	0	
1	0	0	0	0	495	443	0	0	0	0	
2	0	0	0	0	491	438	0	0	0	0	
3	0	0	0	0	487	433	0	0	0	0	
4	0	0	0	0	483	429	0	0	0	0	
5	0	0	0	0	478	424	0	0	0	0	
6	0	0	0	0	473	419	0	0	0	0	
7	0	0	0	0	467	412	0	0	0	0	
8	0	0	0	0	460	405	0	0	0	0	
9	0	0	0	0	451	396	0	0	0	0	
10	0	0	0	0	440	386	0	0	0	0	
11	0	0	0	0	428	375	0	0	0	0	
12	0	0	0	0	415	361	0	0	0	0	
13	0	0	0	0	398	346	0	0	0	0	
14	0	0	0	0	381	330	0	0	0	0	
15	0	0	0	0	361	312	0	0	0	0	
0	0	0	0	0	342	293	0	0	0	0	
1	0	0	0	0	321	274	0	0	0	0	
2	0	0	0	0	300	255	0	0	0	0	
3	0	0	0	0	281	238	0	0	0	0	
4	0	0	0	0	265	223	0	0	0	0	
5	0	0	0	0	252	211	0	0	0	0	
6	0	0	0	0	244	204	0	0	0	0	
7	0	0	0	0	241	201	0	0	0	0	
8	0	0	0	0	244	203	0	0	0	0	
9	0	0	0	0	254	211	0	0	0	0	
10	0	0	0	0	269	223	0	0	0	0	
11	0	0	0	0	290	240	0	0	0	0	
12	0	0	0	0	315	260	0	0	0	0	
13	0	0	0	0	343	283	0	0	0	0	
14	0	0	0	0	374	308	0	0	0	0	
15	0	0	0	0	405	334	0	0	0	0	
0	0	0	0	0	435	360	0	0	0	0	
1	0	0	0	0	464	385	0	0	0	0	
2	0	0	0	0	492	408	0	0	0	0	
3	0	0	0	0	514	430	0	0	0	0	
4	0	0	0	0	532	448	0	0	0	0	
5	0	0	0	0	547	463	0	0	0	0	
6	0	0	0	0	556	476	0	0	0	0	
7	0	0	0	0	561	485	0	0	0	0	
8	0	0	0	0	564	492	0	0	0	0	
9	0	0	0	0	563	496	0	0	0	0	
10	0	0	0	0	559	498	0	0	0	0	
11	0	0	0	0	556	498	0	0	0	0	
12	0	0	0	0	551	497	0	0	0	0	
13	0	0	0	0	546	494	0	0	0	0	
14	0	0	0	0	541	491	0	0	0	0	
15	0	0	0	0	536	487	0	0	0	0	
0	0	0	0	0	533	484	0	0	0	0	
1	0	0	0	0	531	481	0	0	0	0	
2	0	0	0	0	529	478	0	0	0	0	
3	0	0	0	0	528	476	0	0	0	0	
4	0	0	0	0	528	474	0	0	0	0	
5	0	0	0	0	529	473	0	0	0	0	
6	0	0	0	0	531	474	0	0	0	0	
7	0	0	0	0	535	476	0	0	0	0	
8	0	0	0	0	539	480	0	0	0	0	
9	0	0	0	0	543	483	0	0	0	0	
10	0	0	0	0	549	488	0	0	0	0	
11	0	0	0	0	554	493	0	0	0	0	
12	0	0	0	0	559	497	0	0	0	0	
13	0	0	0	0	563	501	0	0	0	0	
14	0	0	0	0	566	504	0	0	0	0	
15	0	0	0	0	568	506	0	0	0	0	
0	0	0	0	0	568	507	0	0	0	0	
1	0	0	0	0	568	508	0	0	0	0	
2	0	0	0	0	565	506	0	0	0	0	
3	0	0	0	0	561	504	0	0	0	0	
4	0	0	0	0	556	500	0	0	0	0	
5	0	0	0	0	551	496	0	0	0	0	
6	0	0	0	0	545	491	0	0	0	0	
7	0	0	0	0	539	487	0	0	0	0	
8	0	0	0	0	532	482	0	0	0	0	
9	0	0	0	0	528	478	0	0	0	0	
10	0	0	0	0	524	475	0	0	0	0	
11	0	0	0	0	521	472	0	0	0	0	
12	0	0	0	0	519	470	0	0	0	0	
13	0	0	0	0	518	470	0	0	0	0	
14	0	0	0	0	519	471	0	0	0	0	
15	0	0	0	0	520	472	0	0	0	0	
0	0	0	0	0	524	474	0	0	0	0	
1	0	0	0	0	527	477	0	0	0	0	
2	0	0	0	0	531	480	0	0	0	0	
3	0	0	0	0	536	484	0	0	0	0	
4	0	0	0	0	541	487	0	0	0	0	
5	0	0	0	0	546	492	0	0	0	0	
6	0	0	0	0	550	495	0	0	0	0	
7	0	0	0	0	554	498	0	0	0	0	
8	0	0	0	0	558	502	0	0	0	0	
9	0	0	0	0	562	504	0	0	0	0	
10	0	0	0	0	566	508	0	0	0	0	
11	0	0	0	0	569	511	0	0	0	0	
12	0	0	0	0	571	513	0	0	0	0	
13	0	0	0	0	572	514	0	0	0	0	
14	0	0	0	0	572	515	0	0	0	0	
15	0	0	0	0	571	515	0	0	0	0	
0	0	0	0	0	569	515	0	0	0	0	
1	0	0	0	0	568	516	0	0	0	0	
2	0	0	0	0	568	517	0	0	0	0	
3	0	0	0	0	568	518	0	0	0	0	
4	0	0	0	0	568	520	0	0	0	0	
5	0	0	0	0	570	522	0	0	0	0	
6	0	0	0	0	572	524	0	0	0	0	
7	0	0	0	0	575	527	0	0	0	0	
8	0	0	0	0	577	529	0	0	0	0	
9	0	0	0	0	580	531	0	0	0	0	
10	0	0	0	0	582	531	0	0	0	0	
11	0	0	0	0	582	530	0	0	0	0	
12	0	0	0	0	580	527	0	0	0	0	
13	0	0	0	0	577	523	0	0	0	0	
14	0	0	0	0	572	516	0	0	0	0	
15	0	0	0	0	563	507	0	0	0	0	
0	0	0	0	0	554	497	0	0	0	0	
1	0	0	0	0	542	487	0	0	0	0	
2	0	0	0	0	530	475	0	0	0	0	
3	0	0	0	0	518	464	0	0	0	0	
4	0	0	0	0	505	455	0	0	0	0	
5	0	0	0	0	495	446	0	0	0	0	
6	0	0	0	0	485	440	0	0	0	0	
7	0	0	0	0	479	435	0	0	0	0	
8	0	0	0	0	476	433	0	0	0	0	
9	0	0	0	0	475	432	0	0	0	0	
10	0	0	0	0	476	434	0	0	0	0	
11	0	0	0	0	481	436	0	0	0	0	
12	0	0	0	0	489	441	0	0	0	0	
13	0	0	0	0	498	446	0	0	0	0	
14	0	0	0	0	509	451	0	0	0	0	
15	0	0	0	0	519	456	0	0	0	0	
0	0	0	0	0	527	460	0	0	0	0	
1	0	0	0	0	535	464	0	0	0	0	
2	0	0	0	0	540	467	0	0	0	0	
3	0	0	0	0	544	470	0	0	0	0	
4	0	0	0	0	545	471	0	0	0	0	
5	0	0	0	0	543	472	0	0	0	0	
6	0	0	0	0	541	472	0	0	0	0	
7	0	0	0	0	537	473	0	0	0	0	
8	0	0	0	0	532	474	0	0	0	0	
9	0	0	0	0	528	474	0	0	0	0	
10	0	0	0	0	524	476	0	0	0	0	
11	0	0	0	0	520	477	0	0	0	0	
12	0	0	0	0	518	478	0	0	0	0	
13	0	0	0	0	516	479	0	0	0	0	
14	0	0	0	0	515	479	0	0	0	0	
15	0	0	0	0	516	480	0	0	0	0	
0	0	0	0	0	519	480	0	0	0	0	
1	0	0	0	0	521	480	0	0	0	0	
2	0	0	0	0	525	480	0	0	0	0	
3	0	0	0	0	528	480	0	0	0	0	
4	0	0	0	0	531	480	0	0	0	0	
5	0	0	0	0	535	479	0	0	0	0	
6	0	0	0	0	537	479	0	0	0	0	
7	0	0	0	0	539	477	0	0	0	0	
8	0	0	0	0	539	475	0	0	0	0	
9	0	0	0	0	538	473	0	0	0	0	
10	0	0	0	0	536	470	0	0	0	0	
11	0	0	0	0	533	468	0	0	0	0	
12	0	0	0	0	529	465	0	0	0	0	
13	0	0	0	0	526	462	0	0	0	0	
14	0	0	0	0	523	460	0	0	0	0	
15	0	0	0	0	519	459	0	0	0	0	
0	0	0	0	0	518	459	0	0	0	0	
1	0	0	0	0	517	459	0	0	0	0	
2	0	0	0	0	518	460	0	0	0	0	
3	0	0	0	0	519	463	0	0	0	0	
4	0	0	0	0	523	466	0	0	0	0	
5	0	0	0	0	527	470	0	0	0	0	
6	0	0	0	0	532	474	0	0	0	0	
7	0	0	0	0	537	478	0	0	0	0	
8	0	0	0	0	541	482	0	0	0	0	
9	0	0	0	0	545	485	0	0	0	0	
10	0	0	0	0	549	488	0	0	0	0	
11	0	0	0	0	551	489	0	0	0	0	
12	0	0	0	0	552	489	0	0	0	0	
13	0	0	0	0	553	490	0	0	0	0	
14	0	0	0	0	552	489	0	0	0	0	
15	0	0	0	0	551	488	0	0	0	0	
0	0	0	0	0	549	486	0	0	0	0	
1	0	0	0	0	546	484	0	0	0	0	
2	0	0	0	0	543	483	0	0	0	0	
3	0	0	0	0	540	480	0	0	0	0	
4	0	0	0	0	537	479	0	0	0	0	
5	0	0	0	0	533	476	0	0	0	0	
6	0	0	0	0	528	473	0	0	0	0	
7	0	0	0	0	524	470	0	0	0	0	
8	0	0	0	0	519	465	0	0	0	0	
9	0	0	0	0	514	461	0	0	0	0	
10	0	0	0	0	509	456	0	0	0	0	
11	0	0	0	0	504	451	0	0	0	0	
12	0	0	0	0	499	446	0	0	0	0	
13	0	0	0	0	496	441	0	0	0	0	
14	0	0	0	0	492	438	0	0	0	0	
15	0	0	0	0	490	434	0	0	0	0	
0	0	0	0	0	489	432	0	0	0	0	
1	0	0	0	0	489	431	0	0	0	0	
2	0	0	0	0	491	431	0	0	0	0	
3	0	0	0	0	494	432	0	0	0	0	
4	0	0	0	0	498	435	0	0	0	0	
5	0	0	0	0	502	438	0	0	0	0	
6	0	0	0	0	507	441	0	0	0	0	
7	0	0	0	0	511	445	0	0	0	0	
8	0	0	0	0	514	448	0	0	0	0	
9	0	0	0	0	517	451	0	0	0	0	
10	0	0	0	0	519	454	0	0	0	0	
11	0	0	0	0	520	455	0	0	0	0	
12	0	0	0	0	521	457	0	0	0	0	
13	0	0	0	0	521	458	0	0	0	0	
14	0	0	0	0	520	458	0	0	0	0	
15	0	0	0	0	519	457	0	0	0	0	
0	0	0	0	0	518	456	0	0	0	0	
1	0	0	0	0	516	455	0	0	0	0	
2	0	0	0	0	516	455	0	0	0	0	
3	0	0	0	0	515	455	0	0	0	0	
4	0	0	0	0	516	455	0	0	0	0	
5	0	0	0	0	516	455	0	0	0	0	
6	0	0	0	0	517	455	0	0	0	0	
7	0	0	0	0	518	455	0	0	0	0	
8	0	0	0	0	519	455	0	0	0	0	
9	0	0	0	0	520	455	0	0	0	0	
10	0	0	0	0	521	455	0	0	0	0	
11	0	0	0	0	522	455	0	0	0	0	
12	0	0	0	0	522	456	0	0	0	0	
13	0	0	0	0	523	456	0	0	0	0	
14	0	0	0	0	522	456	0	0	0	0	
15	0	0	0	0	520	455	0	0	0	0	
0	0	0	0	0	519	454	0	0	0	0	
1	0	0	0	0	515	452	0	0	0	0	
2	0	0	0	0	513	450	0	0	0	0	
3	0	0	0	0	510	447	0	0	0	0	
4	0	0	0	0	506	445	0	0	0	0	
5	0	0	0	0	504	443	0	0	0	0	
6	0	0	0	0	502	441	0	0	0	0	
7	0	0	0	0	502	440	0	0	0	0	
8	0	0	0	0	502	440	0	0	0	0	
9	0	0	0	0	504	440	0	0	0	0	
10	0	0	0	0	506	442	0	0	0	0	
11	0	0	0	0	509	444	0	0	0	0	
12	0	0	0	0	512	447	0	0	0	0	
13	0	0	0	0	516	451	0	0	0	0	
14	0	0	0	0	520	455	0	0	0	0	
15	0	0	0	0	525	459	0	0	0	0	
0	0	0	0	0	528	463	0	0	0	0	
1	0	0	0	0	531	466	0	0	0	0	
2	0	0	0	0	532	468	0	0	0	0	
3	0	0	0	0	532	469	0	0	0	0	
4	0	0	0	0	532	469	0	0	0	0	
5	0	0	0	0	529	468	0	0	0	0	
6	0	0	0	0	526	466	0	0	0	0	
7	0	0	0	0	523	463	0	0	0	0	
8	0	0	0	0	518	459	0	0	0	0	
9	0	0	0	0	514	455	0	0	0	0	
10	0	0	0	0	510	451	0	0	0	0	
11	0	0	0	0	506	447	0	0	0	0	
12	0	0	0	0	503	443	0	0	0	0	
13	0	0	0	0	500	440	0	0	0	0	
14	0	0	0	0	499	437	0	0	0	0	
15	0	0	0	0	499	435	0	0	0	0	
0	0	0	0	0	499	435	0	0	0	0	
1	0	0	0	0	501	436	0	0	0	0	
2	0	0	0	0	503	438	0	0	0	0	
3	0	0	0	0	506	440	0	0	0	0	
4	0	0	0	0	510	443	0	0	0	0	
5	0	0	0	0	513	446	0	0	0	0	
6	0	0	0	0	516	449	0	0	0	0	
7	0	0	0	0	519	452	0	0	0	0	
8	0	0	0	0	522	455	0	0	0	0	
9	0	0	0	0	524	458	0	0	0	0	
10	0	0	0	0	526	460	0	0	0	0	
11	0	0	0	0	527	461	0	0	0	0	
12	0	0	0	0	527	462	0	0	0	0	
13	0	0	0	0	528	462	0	0	0	0	
14	0	0	0	0	527	462	0	0	0	0	
15	0	0	0	0	526	461	0	0	0	0	
0	0	0	0	0	526	460	0	0	0	0	
1	0	0	0	0	524	459	0	0	0	0	
2	0	0	0	0	524	458	0	0	0	0	
3	0	0	0	0	523	457	0	0	0	0	
4	0	0	0	0	524	457	0	0	0	0	
5	0	0	0	0	524	457	0	0	0	0	
6	0	0	0	0	525	458	0	0	0	0	
7	0	0	0	0	526	459	0	0	0	0	
8	0	0	0	0	527	460	0	0	0	0	
9	0	0	0	0	530	463	0	0	0	0	
10	0	0	0	0	531	464	0	0	0	0	
11	0	0	0	0	533	466	0	0	0	0	
12	0	0	0	0	534	467	0	0	0	0	
13	0	0	0	0	535	468	0	0	0	0	
14	0	0	0	0	535	469	0	0	0	0	
15	0	0	0	0	535	470	0	0	0	0	
0	0	0	0	0	534	469	0	0	0	0	
1	0	0	0	0	533	469	0	0	0	0	
2	0	0	0	0	531	468	0	0	0	0	
3	0	0	0	0	529	467	0	0	0	0	
4	0	0	0	0	527	464	0	0	0	0	
5	0	0	0	0	524	462	0	0	0	0	
6	0	0	0	0	520	459	0	0	0	0	
7	0	0	0	0	517	455	0	0	0	0	
8	0	0	0	0	513	451	0	0	0	0	
9	0	0	0	0	510	448	0	0	0	0	
10	0	0	0	0	507	446	0	0	0	0	
11	0	0	0	0	506	444	0	0	0	0	
12	0	0	0	0	505	444	0	0	0	0	
13	0	0	0	0	507	444	0	0	0	0	
14	0	0	0	0	508	446	0	0	0	0	
15	0	0	0	0	511	448	0	0	0	0	
0	0	0	0	0	515	451	0	0	0	0	
1	0	0	0	0	518	455	0	0	0	0	
2	0	0	0	0	521	457	0	0	0	0	
3	0	0	0	0	525	460	0	0	0	0	
4	0	0	0	0	527	463	0	0	0	0	
5	0	0	0	0	529	464	0	0	0	0	
6	0	0	0	0	529	465	0	0	0	0	
7	0	0	0	0	529	466	0	0	0	0	
8	0	0	0	0	529	466	0	0	0	0	
9	0	0	0	0	528	465	0	0	0	0	
10	0	0	0	0	527	464	0	0	0	0	
11	0	0	0	0	526	463	0	0	0	0	
12	0	0	0	0	524	462	0	0	0	0	
13	0	0	0	0	522	461	0	0	0	0	
14	0	0	0	0	519	460	0	0	0	0	
15	0	0	0	0	517	458	0	0	0	0	
0	0	0	0	0	515	457	0	0	0	0	
1	0	0	0	0	513	456	0	0	0	0	
2	0	0	0	0	511	455	0	0	0	0	
3	0	0	0	0	509	454	0	0	0	0	
4	0	0	0	0	508	453	0	0	0	0	
5	0	0	0	0	508	453	0	0	0	0	
6	0	0	0	0	507	452	0	0	0	0	
7	0	0	0	0	507	452	0	0	0	0	
8	0	0	0	0	508	453	0	0	0	0	
9	0	0	0	0	509	454	0	0	0	0	
10	0	0	0	0	511	456	0	0	0	0	
11	0	0	0	0	514	458	0	0	0	0	
12	0	0	0	0	518	461	0	0	0	0	
13	0	0	0	0	523	463	0	0	0	0	
14	0	0	0	0	527	466	0	0	0	0	
15	0	0	0	0	532	470	0	0	0	0	
0	0	0	0	0	536	473	0	0	0	0	
1	0	0	0	0	539	476	0	0	0	0	
2	0	0	0	0	542	478	0	0	0	0	
3	0	0	0	0	544	480	0	0	0	0	
4	0	0	0	0	544	480	0	0	0	0	
5	0	0	0	0	543	480	0	0	0	0	
6	0	0	0	0	542	480	0	0	0	0	
7	0	0	0	0	540	479	0	0	0	0	
8	0	0	0	0	537	477	0	0	0	0	
9	0	0	0	0	534	475	0	0	0	0	
10	0	0	0	0	531	472	0	0	0	0	
11	0	0	0	0	527	468	0	0	0	0	
12	0	0	0	0	523	464	0	0	0	0	
13	0	0	0	0	519	460	0	0	0	0	
14	0	0	0	0	514	455	0	0	0	0	
15	0	0	0	0	510	451	0	0	0	0	
0	0	0	0	0	505	447	0	0	0	0	
1	0	0	0	0	502	444	0	0	0	0	
2	0	0	0	0	499	441	0	0	0	0	
3	0	0	0	0	498	441	0	0	0	0	
4	0	0	0	0	498	441	0	0	0	0	
5	0	0	0	0	500	443	0	0	0	0	
6	0	0	0	0	504	447	0	0	0	0	
7	0	0	0	0	510	452	0	0	0	0	
8	0	0	0	0	516	459	0	0	0	0	
9	0	0	0	0	523	465	0	0	0	0	
10	0	0	0	0	530	472	0	0	0	0	
11	0	0	0	0	537	478	0	0	0	0	
12	0	0	0	0	543	483	0	0	0	0	
13	0	0	0	0	547	486	0	0	0	0	
14	0	0	0	0	550	488	0	0	0	0	
15	0	0	0	0	550	488	0	0	0	0	
0	0	0	0	0	549	487	0	0	0	0	
1	0	0	0	0	545	483	0	0	0	0	
2	0	0	0	0	540	479	0	0	0	0	
3	0	0	0	0	535	474	0	0	0	0	
4	0	0	0	0	529	468	0	0	0	0	
5	0	0	0	0	523	463	0	0	0	0	
6	0	0	0	0	518	458	0	0	0	0	
7	0	0	0	0	513	454	0	0	0	0	
8	0	0	0	0	511	452	0	0	0	0	
9	0	0	0	0	510	451	0	0	0	0	
10	0	0	0	0	510	452	0	0	0	0	
11	0	0	0	0	511	454	0	0	0	0	
12	0	0	0	0	512	456	0	0	0	0	
13	0	0	0	0	514	460	0	0	0	0	
14	0	0	0	0	517	463	0	0	0	0	
15	0	0	0	0	519	465	0	0	0	0	
0	0	0	0	0	522	468	0	0	0	0	
1	0	0	0	0	524	470	0	0	0	0	
2	0	0	0	0	526	471	0	0	0	0	
3	0	0	0	0	526	470	0	0	0	0	
4	0	0	0	0	526	470	0	0	0	0	
5	0	0	0	0	525	468	0	0	0	0	
6	0	0	0	0	524	466	0	0	0	0	
7	0	0	0	0	522	465	0	0	0	0	
8	0	0	0	0	519	463	0	0	0	0	
9	0	0	0	0	516	462	0	0	0	0	
10	0	0	0	0	512	460	0	0	0	0	
11	0	0	0	0	509	459	0	0	0	0	
12	0	0	0	0	507	458	0	0	0	0	
13	0	0	0	0	504	457	0	0	0	0	
14	0	0	0	0	502	455	0	0	0	0	
15	0	0	0	0	502	455	0	0	0	0	
0	0	0	0	0	502	454	0	0	0	0	
1	0	0	0	0	504	452	0	0	0	0	
2	0	0	0	0	505	451	0	0	0	0	
3	0	0	0	0	508	450	0	0	0	0	
4	0	0	0	0	510	449	0	0	0	0	
5	0	0	0	0	512	449	0	0	0	0	
6	0	0	0	0	513	448	0	0	0	0	
7	0	0	0	0	514	448	0	0	0	0	
8	0	0	0	0	514	448	0	0	0	0	
9	0	0	0	0	515	449	0	0	0	0	
10	0	0	0	0	514	449	0	0	0	0	
11	0	0	0	0	513	451	0	0	0	0	
12	0	0	0	0	511	452	0	0	0	0	
13	0	0	0	0	508	453	0	0	0	0	
14	0	0	0	0	505	454	0	0	0	0	
15	0	0	0	0	502	455	0	0	0	0	
0	0	0	0	0	498	455	0	0	0	0	
1	0	0	0	0	495	456	0	0	0	0	
2	0	0	0	0	494	459	0	0	0	0	
3	0	0	0	0	493	460	0	0	0	0	
4	0	0	0	0	493	463	0	0	0	0	
5	0	0	0	0	494	466	0	0	0	0	
6	0	0	0	0	495	468	0	0	0	0	
7	0	0	0	0	497	471	0	0	0	0	
8	0	0	0	0	501	473	0	0	0	0	
9	0	0	0	0	506	475	0	0	0	0	
10	0	0	0	0	511	476	0	0	0	0	
11	0	0	0	0	518	476	0	0	0	0	
12	0	0	0	0	522	475	0	0	0	0	
13	0	0	0	0	527	473	0	0	0	0	
14	0	0	0	0	530	470	0	0	0	0	
15	0	0	0	0	532	467	0	0	0	0	
0	0	0	0	0	531	463	0	0	0	0	
1	0	0	0	0	529	459	0	0	0	0	
2	0	0	0	0	526	455	0	0	0	0	
3	0	0	0	0	522	452	0	0	0	0	
4	0	0	0	0	517	450	0	0	0	0	
5	0	0	0	0	512	448	0	0	0	0	
6	0	0	0	0	508	448	0	0	0	0	
7	0	0	0	0	505	448	0	0	0	0	
8	0	0	0	0	504	449	0	0	0	0	
9	0	0	0	0	503	450	0	0	0	0	
10	0	0	0	0	502	451	0	0	0	0	
11	0	0	0	0	502	453	0	0	0	0	
12	0	0	0	0	503	453	0	0	0	0	
13	0	0	0	0	503	452	0	0	0	0	
14	0	0	0	0	503	451	0	0	0	0	
15	0	0	0	0	502	449	0	0	0	0	
0	0	0	0	0	502	448	0	0	0	0	
1	0	0	0	0	502	446	0	0	0	0	
2	0	0	0	0	503	445	0	0	0	0	
3	0	0	0	0	504	445	0	0	0	0	
4	0	0	0	0	506	446	0	0	0	0	
5	0	0	0	0	509	449	0	0	0	0	
6	0	0	0	0	513	452	0	0	0	0	
7	0	0	0	0	518	457	0	0	0	0	
8	0	0	0	0	523	462	0	0	0	0	
9	0	0	0	0	528	467	0	0	0	0	
10	0	0	0	0	533	471	0	0	0	0	
11	0	0	0	0	537	475	0	0	0	0	
12	0	0	0	0	540	478	0	0	0	0	
13	0	0	0	0	542	480	0	0	0	0	
14	0	0	0	0	542	480	0	0	0	0	
15	0	0	0	0	541	480	0	0	0	0	
0	0	0	0	0	538	478	0	0	0	0	
1	0	0	0	0	535	476	0	0	0	0	
2	0	0	0	0	530	472	0	0	0	0	
3	0	0	0	0	525	469	0	0	0	0	
4	0	0	0	0	520	466	0	0	0	0	
5	0	0	0	0	515	463	0	0	0	0	
6	0	0	0	0	510	462	0	0	0	0	
7	0	0	0	0	506	462	0	0	0	0	
8	0	0	0	0	502	462	0	0	0	0	
9	0	0	0	0	500	463	0	0	0	0	
10	0	0	0	0	500	464	0	0	0	0	
11	0	0	0	0	503	467	0	0	0	0	
12	0	0	0	0	507	469	0	0	0	0	
13	0	0	0	0	512	472	0	0	0	0	
14	0	0	0	0	519	474	0	0	0	0	
15	0	0	0	0	525	476	0	0	0	0	
0	0	0	0	0	531	478	0	0	0	0	
1	0	0	0	0	537	479	0	0	0	0	
2	0	0	0	0	541	479	0	0	0	0	
3	0	0	0	0	544	479	0	0	0	0	
4	0	0	0	0	547	478	0	0	0	0	
5	0	0	0	0	548	478	0	0	0	0	
6	0	0	0	0	548	476	0	0	0	0	
7	0	0	0	0	548	474	0	0	0	0	
8	0	0	0	0	547	472	0	0	0	0	
9	0	0	0	0	547	469	0	0	0	0	
10	0	0	0	0	546	467	0	0	0	0	
11	0	0	0	0	545	464	0	0	0	0	
12	0	0	0	0	545	463	0	0	0	0	
13	0	0	0	0	545	462	0	0	0	0	
14	0	0	0	0	546	462	0	0	0	0	
15	0	0	0	0	547	463	0	0	0	0	
0	0	0	0	0	547	466	0	0	0	0	
1	0	0	0	0	548	468	0	0	0	0	
2	0	0	0	0	548	472	0	0	0	0	
3	0	0	0	0	548	476	0	0	0	0	
4	0	0	0	0	548	478	0	0	0	0	
5	0	0	0	0	547	480	0	0	0	0	
6	0	0	0	0	544	481	0	0	0	0	
7	0	0	0	0	541	481	0	0	0	0	
8	0	0	0	0	538	480	0	0	0	0	
9	0	0	0	0	534	478	0	0	0	0	
10	0	0	0	0	530	475	0	0	0	0	
11	0	0	0	0	526	471	0	0	0	0	
12	0	0	0	0	522	466	0	0	0	0	
13	0	0	0	0	519	462	0	0	0	0	
14	0	0	0	0	517	459	0	0	0	0	
15	0	0	0	0	515	455	0	0	0	0	
0	0	0	0	0	515	452	0	0	0	0	
1	0	0	0	0	515	451	0	0	0	0	
2	0	0	0	0	515	449	0	0	0	0	
3	0	0	0	0	517	449	0	0	0	0	
4	0	0	0	0	519	450	0	0	0	0	
5	0	0	0	0	523	452	0	0	0	0	
6	0	0	0	0	526	455	0	0	0	0	
7	0	0	0	0	529	459	0	0	0	0	
8	0	0	0	0	532	462	0	0	0	0	
9	0	0	0	0	535	466	0	0	0	0	
10	0	0	0	0	537	468	0	0	0	0	
11	0	0	0	0	538	471	0	0	0	0	
12	0	0	0	0	538	471	0	0	0	0	
13	0	0	0	0	537	471	0	0	0	0	
14	0	0	0	0	534	469	0	0	0	0	
15	0	0	0	0	529	466	0	0	0	0	
0	0	0	0	0	524	462	0	0	0	0	
1	0	0	0	0	519	457	0	0	0	0	
2	0	0	0	0	513	452	0	0	0	0	
3	0	0	0	0	508	446	0	0	0	0	
4	0	0	0	0	503	440	0	0	0	0	
5	0	0	0	0	499	436	0	0	0	0	
6	0	0	0	0	496	432	0	0	0	0	
7	0	0	0	0	495	430	0	0	0	0	
8	0	0	0	0	496	428	0	0	0	0	
9	0	0	0	0	497	430	0	0	0	0	
10	0	0	0	0	502	432	0	0	0	0	
11	0	0	0	0	508	437	0	0	0	0	
12	0	0	0	0	515	443	0	0	0	0	
13	0	0	0	0	522	449	0	0	0	0	
14	0	0	0	0	530	456	0	0	0	0	
15	0	0	0	0	538	463	0	0	0	0	
0	0	0	0	0	544	470	0	0	0	0	
1	0	0	0	0	550	476	0	0	0	0	
2	0	0	0	0	553	480	0	0	0	0	
3	0	0	0	0	555	484	0	0	0	0	
4	0	0	0	0	556	486	0	0	0	0	
5	0	0	0	0	555	487	0	0	0	0	
6	0	0	0	0	553	487	0	0	0	0	
7	0	0	0	0	551	486	0	0	0	0	
8	0	0	0	0	548	484	0	0	0	0	
9	0	0	0	0	545	481	0	0	0	0	
10	0	0	0	0	544	479	0	0	0	0	
11	0	0	0	0	543	476	0	0	0	0	
12	0	0	0	0	542	474	0	0	0	0	
13	0	0	0	0	542	472	0	0	0	0	
14	0	0	0	0	543	471	0	0	0	0	
15	0	0	0	0	543	471	0	0	0	0	
0	0	0	0	0	543	471	0	0	0	0	
1	0	0	0	0	544	471	0	0	0	0	
2	0	0	0	0	545	471	0	0	0	0	
3	0	0	0	0	546	472	0	0	0	0	
4	0	0	0	0	547	473	0	0	0	0	
5	0	0	0	0	548	475	0	0	0	0	
6	0	0	0	0	549	476	0	0	0	0	
7	0	0	0	0	550	477	0	0	0	0	
8	0	0	0	0	550	478	0	0	0	0	
9	0	0	0	0	551	478	0	0	0	0	
10	0	0	0	0	551	479	0	0	0	0	
11	0	0	0	0	551	478	0	0	0	0	
12	0	0	0	0	552	478	0	0	0	0	
13	0	0	0	0	552	477	0	0	0	0	
14	0	0	0	0	551	476	0	0	0	0	
15	0	0	0	0	551	475	0	0	0	0	
0	0	0	0	0	549	473	0	0	0	0	
1	0	0	0	0	546	472	0	0	0	0	
2	0	0	0	0	543	470	0	0	0	0	
3	0	0	0	0	539	468	0	0	0	0	
4	0	0	0	0	535	467	0	0	0	0	
5	0	0	0	0	529	465	0	0	0	0	
6	0	0	0	0	525	463	0	0	0	0	
7	0	0	0	0	520	462	0	0	0	0	
8	0	0	0	0	518	461	0	0	0	0	
9	0	0	0	0	515	460	0	0	0	0	
10	0	0	0	0	515	460	0	0	0	0	
11	0	0	0	0	516	460	0	0	0	0	
12	0	0	0	0	517	460	0	0	0	0	
13	0	0	0	0	520	460	0	0	0	0	
14	0	0	0	0	523	460	0	0	0	0	
15	0	0	0	0	526	459	0	0	0	0	
0	0	0	0	0	529	459	0	0	0	0	
1	0	0	0	0	531	459	0	0	0	0	
2	0	0	0	0	534	459	0	0	0	0	
3	0	0	0	0	535	459	0	0	0	0	
4	0	0	0	0	536	459	0	0	0	0	
5	0	0	0	0	537	459	0	0	0	0	
6	0	0	0	0	536	460	0	0	0	0	
7	0	0	0	0	537	461	0	0	0	0	
8	0	0	0	0	537	462	0	0	0	0	
9	0	0	0	0	536	462	0	0	0	0	
10	0	0	0	0	534	462	0	0	0	0	
11	0	0	0	0	533	462	0	0	0	0	
12	0	0	0	0	531	461	0	0	0	0	
13	0	0	0	0	528	460	0	0	0	0	
14	0	0	0	0	526	458	0	0	0	0	
15	0	0	0	0	524	456	0	0	0	0	
0	0	0	0	0	521	454	0	0	0	0	
1	0	0	0	0	520	452	0	0	0	0	
2	0	0	0	0	519	451	0	0	0	0	
3	0	0	0	0	519	451	0	0	0	0	
4	0	0	0	0	520	451	0	0	0	0	
5	0	0	0	0	520	451	0	0	0	0	
6	0	0	0	0	523	452	0	0	0	0	
7	0	0	0	0	525	454	0	0	0	0	
8	0	0	0	0	527	455	0	0	0	0	
9	0	0	0	0	528	457	0	0	0	0	
10	0	0	0	0	530	459	0	0	0	0	
11	0	0	0	0	531	460	0	0	0	0	
12	0	0	0	0	531	462	0	0	0	0	
13	0	0	0	0	531	462	0	0	0	0	
14	0	0	0	0	530	463	0	0	0	0	
15	0	0	0	0	529	462	0	0	0	0	
0	0	0	0	0	527	461	0	0	0	0	
1	0	0	0	0	525	460	0	0	0	0	
2	0	0	0	0	522	457	0	0	0	0	
3	0	0	0	0	519	454	0	0	0	0	
4	0	0	0	0	515	450	0	0	0	0	
5	0	0	0	0	512	447	0	0	0	0	
6	0	0	0	0	510	444	0	0	0	0	
7	0	0	0	0	509	442	0	0	0	0	
8	0	0	0	0	509	441	0	0	0	0	
9	0	0	0	0	511	443	0	0	0	0	
10	0	0	0	0	515	445	0	0	0	0	
11	0	0	0	0	520	450	0	0	0	0	
12	0	0	0	0	527	455	0	0	0	0	
13	0	0	0	0	535	462	0	0	0	0	
14	0	0	0	0	543	468	0	0	0	0	
15	0	0	0	0	550	476	0	0	0	0	
0	0	0	0	0	556	482	0	0	0	0	
1	0	0	0	0	561	487	0	0	0	0	
2	0	0	0	0	564	491	0	0	0	0	
3	0	0	0	0	565	494	0	0	0	0	
4	0	0	0	0	566	495	0	0	0	0	
5	0	0	0	0	563	494	0	0	0	0	
6	0	0	0	0	560	491	0	0	0	0	
7	0	0	0	0	555	487	0	0	0	0	
8	0	0	0	0	548	481	0	0	0	0	
9	0	0	0	0	541	475	0	0	0	0	
10	0	0	0	0	533	467	0	0	0	0	
11	0	0	0	0	525	460	0	0	0	0	
12	0	0	0	0	518	453	0	0	0	0	
13	0	0	0	0	512	448	0	0	0	0	
14	0	0	0	0	508	444	0	0	0	0	
15	0	0	0	0	507	443	0	0	0	0	
0	0	0	0	0	509	444	0	0	0	0	
1	0	0	0	0	515	449	0	0	0	0	
2	0	0	0	0	523	457	0	0	0	0	
3	0	0	0	0	535	467	0	0	0	0	
4	0	0	0	0	547	479	0	0	0	0	
5	0	0	0	0	561	491	0	0	0	0	
6	0	0	0	0	575	503	0	0	0	0	
7	0	0	0	0	587	514	0	0	0	0	
8	0	0	0	0	596	522	0	0	0	0	
9	0	0	0	0	603	527	0	0	0	0	
10	0	0	0	0	606	530	0	0	0	0	
11	0	0	0	0	606	530	0	0	0	0	
12	0	0	0	0	603	527	0	0	0	0	
13	0	0	0	0	597	523	0	0	0	0	
14	0	0	0	0	589	516	0	0	0	0	
15	0	0	0	0	581	509	0	0	0	0	
0	0	0	0	0	571	501	0	0	0	0	
1	0	0	0	0	562	493	0	0	0	0	
2	0	0	0	0	553	486	0	0	0	0	
3	0	0	0	0	545	480	0	0	0	0	
4	0	0	0	0	538	475	0	0	0	0	
5	0	0	0	0	533	471	0	0	0	0	
6	0	0	0	0	528	468	0	0	0	0	
7	0	0	0	0	526	467	0	0	0	0	
8	0	0	0	0	525	466	0	0	0	0	
9	0	0	0	0	526	466	0	0	0	0	
10	0	0	0	0	527	467	0	0	0	0	
11	0	0	0	0	530	468	0	0	0	0	
12	0	0	0	0	534	470	0	0	0	0	
13	0	0	0	0	536	472	0	0	0	0	
14	0	0	0	0	538	473	0	0	0	0	
15	0	0	0	0	538	474	0	0	0	0	
0	0	0	0	0	537	474	0	0	0	0	
1	0	0	0	0	536	473	0	0	0	0	
2	0	0	0	0	534	471	0	0	0	0	
3	0	0	0	0	531	468	0	0	0	0	
4	0	0	0	0	527	464	0	0	0	0	
5	0	0	0	0	523	459	0	0	0	0	
6	0	0	0	0	519	454	0	0	0	0	
7	0	0	0	0	513	448	0	0	0	0	
8	0	0	0	0	508	441	0	0	0	0	
9	0	0	0	0	501	433	0	0	0	0	
10	0	0	0	0	495	425	0	0	0	0	
11	0	0	0	0	487	417	0	0	0	0	
12	0	0	0	0	480	408	0	0	0	0	
13	0	0	0	0	470	398	0	0	0	0	
14	0	0	0	0	460	387	0	0	0	0	
15	0	0	0	0	448	375	0	0	0	0	
0	0	0	0	0	436	362	0	0	0	0	
1	0	0	0	0	423	349	0	0	0	0	
2	0	0	0	0	408	335	0	0	0	0	
3	0	0	0	0	393	321	0	0	0	0	
4	0	0	0	0	377	306	0	0	0	0	
5	0	0	0	0	361	291	0	0	0	0	
6	0	0	0	0	344	277	0	0	0	0	
7	0	0	0	0	327	262	0	0	0	0	
8	0	0	0	0	310	247	0	0	0	0	
9	0	0	0	0	294	233	0	0	0	0	
10	0	0	0	0	279	220	0	0	0	0	
11	0	0	0	0	267	211	0	0	0	0	
12	0	0	0	0	260	204	0	0	0	0	
13	0	0	0	0	257	201	0	0	0	0	
14	0	0	0	0	259	203	0	0	0	0	
15	0	0	0	0	268	209	0	0	0	0	
0	0	0	0	0	282	220	0	0	0	0	
1	0	0	0	0	301	235	0	0	0	0	
2	0	0	0	0	324	253	0	0	0	0	
3	0	0	0	0	352	275	0	0	0	0	
4	0	0	0	0	383	298	0	0	0	0	
5	0	0	0	0	414	324	0	0	0	0	
6	0	0	0	0	447	350	0	0	0	0	
7	0	0	0	0	478	377	0	0	0	0	
8	0	0	0	0	508	403	0	0	0	0	
9	0	0	0	0	536	428	0	0	0	0	
10	0	0	0	0	560	451	0	0	0	0	
11	0	0	0	0	580	472	0	0	0	0	
12	0	0	0	0	595	489	0	0	0	0	
13	0	0	0	0	606	502	0	0	0	0	
14	0	0	0	0	611	512	0	0	0	0	
15	0	0	0	0	612	518	0	0	0	0	
0	0	0	0	0	608	519	0	0	0	0	
1	0	0	0	0	601	518	0	0	0	0	
2	0	0	0	0	592	514	0	0	0	0	
3	0	0	0	0	581	508	0	0	0	0	
4	0	0	0	0	568	499	0	0	0	0	
5	0	0	0	0	557	491	0	0	0	0	
6	0	0	0	0	545	482	0	0	0	0	
7	0	0	0	0	536	474	0	0	0	0	
8	0	0	0	0	529	466	0	0	0	0	
9	0	0	0	0	524	460	0	0	0	0	
10	0	0	0	0	520	456	0	0	0	0	
11	0	0	0	0	519	453	0	0	0	0	
12	0	0	0	0	519	452	0	0	0	0	
13	0	0	0	0	522	453	0	0	0	0	
14	0	0	0	0	525	455	0	0	0	0	
15	0	0	0	0	530	459	0	0	0	0	
0	0	0	0	0	535	463	0	0	0	0	
1	0	0	0	0	540	467	0	0	0	0	
2	0	0	0	0	544	472	0	0	0	0	
3	0	0	0	0	550	477	0	0	0	0	
4	0	0	0	0	554	482	0	0	0	0	
5	0	0	0	0	559	487	0	0	0	0	
6	0	0	0	0	563	491	0	0	0	0	
7	0	0	0	0	566	494	0	0	0	0	
8	0	0	0	0	568	497	0	0	0	0	
9	0	0	0	0	570	499	0	0	0	0	
10	0	0	0	0	571	499	0	0	0	0	
11	0	0	0	0	571	499	0	0	0	0	
12	0	0	0	0	571	499	0	0	0	0	
13	0	0	0	0	569	497	0	0	0	0	
14	0	0	0	0	566	494	0	0	0	0	
15	0	0	0	0	562	491	0	0	0	0	
0	0	0	0	0	559	488	0	0	0	0	
1	0	0	0	0	555	485	0	0	0	0	
2	0	0	0	0	551	482	0	0	0	0	
3	0	0	0	0	547	479	0	0	0	0	
4	0	0	0	0	544	476	0	0	0	0	
5	0	0	0	0	542	475	0	0	0	0	
6	0	0	0	0	541	474	0	0	0	0	
7	0	0	0	0	541	474	0	0	0	0	
8	0	0	0	0	542	476	0	0	0	0	
9	0	0	0	0	545	479	0	0	0	0	
10	0	0	0	0	549	482	0	0	0	0	
11	0	0	0	0	554	487	0	0	0	0	
12	0	0	0	0	559	492	0	0	0	0	
13	0	0	0	0	564	497	0	0	0	0	
14	0	0	0	0	569	501	0	0	0	0	
15	0	0	0	0	572	505	0	0	0	0	
0	0	0	0	0	575	508	0	0	0	0	
1	0	0	0	0	576	509	0	0	0	0	
2	0	0	0	0	577	509	0	0	0	0	
3	0	0	0	0	576	509	0	0	0	0	
4	0	0	0	0	574	508	0	0	0	0	
5	0	0	0	0	573	506	0	0	0	0	
6	0	0	0	0	571	504	0	0	0	0	
7	0	0	0	0	568	502	0	0	0	0	
8	0	0	0	0	566	499	0	0	0	0	
9	0	0	0	0	564	497	0	0	0	0	
10	0	0	0	0	562	496	0	0	0	0	
11	0	0	0	0	561	495	0	0	0	0	
12	0	0	0	0	560	494	0	0	0	0	
13	0	0	0	0	560	494	0	0	0	0	
14	0	0	0	0	560	494	0	0	0	0	
15	0	0	0	0	560	494	0	0	0	0	
0	0	0	0	0	561	496	0	0	0	0	
1	0	0	0	0	561	496	0	0	0	0	
2	0	0	0	0	563	497	0	0	0	0	
3	0	0	0	0	564	499	0	0	0	0	
4	0	0	0	0	567	501	0	0	0	0	
5	0	0	0	0	569	503	0	0	0	0	
6	0	0	0	0	572	504	0	0	0	0	
7	0	0	0	0	574	506	0	0	0	0	
8	0	0	0	0	575	508	0	0	0	0	
9	0	0	0	0	578	509	0	0	0	0	
10	0	0	0	0	579	510	0	0	0	0	
11	0	0	0	0	579	510	0	0	0	0	
12	0	0	0	0	578	510	0	0	0	0	
13	0	0	0	0	575	509	0	0	0	0	
14	0	0	0	0	573	507	0	0	0	0	
15	0	0	0	0	568	505	0	0	0	0	
0	0	0	0	0	563	503	0	0	0	0	
1	0	0	0	0	558	501	0	0	0	0	
2	0	0	0	0	553	499	0	0	0	0	
3	0	0	0	0	551	498	0	0	0	0	
4	0	0	0	0	548	497	0	0	0	0	
5	0	0	0	0	548	496	0	0	0	0	
6	0	0	0	0	548	496	0	0	0	0	
7	0	0	0	0	550	495	0	0	0	0	
8	0	0	0	0	551	494	0	0	0	0	
9	0	0	0	0	552	492	0	0	0	0	
10	0	0	0	0	553	490	0	0	0	0	
11	0	0	0	0	553	487	0	0	0	0	
12	0	0	0	0	551	484	0	0	0	0	
13	0	0	0	0	548	480	0	0	0	0	
14	0	0	0	0	544	476	0	0	0	0	
15	0	0	0	0	539	471	0	0	0	0	
0	0	0	0	0	533	467	0	0	0	0	
1	0	0	0	0	527	463	0	0	0	0	
2	0	0	0	0	521	460	0	0	0	0	
3	0	0	0	0	517	459	0	0	0	0	
4	0	0	0	0	514	457	0	0	0	0	
5	0	0	0	0	512	457	0	0	0	0	
6	0	0	0	0	513	458	0	0	0	0	
7	0	0	0	0	515	460	0	0	0	0	
8	0	0	0	0	519	462	0	0	0	0	
9	0	0	0	0	524	465	0	0	0	0	
10	0	0	0	0	530	467	0	0	0	0	
11	0	0	0	0	536	470	0	0	0	0	
12	0	0	0	0	542	472	0	0	0	0	
13	0	0	0	0	546	474	0	0	0	0	
14	0	0	0	0	550	475	0	0	0	0	
15	0	0	0	0	553	475	0	0	0	0	
0	0	0	0	0	554	475	0	0	0	0	
1	0	0	0	0	555	474	0	0	0	0	
2	0	0	0	0	554	472	0	0	0	0	
3	0	0	0	0	552	471	0	0	0	0	
4	0	0	0	0	550	469	0	0	0	0	
5	0	0	0	0	547	467	0	0	0	0	
6	0	0	0	0	546	467	0	0	0	0	
7	0	0	0	0	544	467	0	0	0	0	
8	0	0	0	0	543	467	0	0	0	0	
9	0	0	0	0	542	468	0	0	0	0	
10	0	0	0	0	542	469	0	0	0	0	
11	0	0	0	0	542	472	0	0	0	0	
12	0	0	0	0	542	474	0	0	0	0	
13	0	0	0	0	543	476	0	0	0	0	
14	0	0	0	0	543	478	0	0	0	0	
15	0	0	0	0	544	480	0	0	0	0	
0	0	0	0	0	544	480	0	0	0	0	
1	0	0	0	0	544	480	0	0	0	0	
2	0	0	0	0	544	479	0	0	0	0	
3	0	0	0	0	543	478	0	0	0	0	
4	0	0	0	0	542	476	0	0	0	0	
5	0	0	0	0	540	473	0	0	0	0	
6	0	0	0	0	539	471	0	0	0	0	
7	0	0	0	0	539	469	0	0	0	0	
8	0	0	0	0	539	467	0	0	0	0	
9	0	0	0	0	540	467	0	0	0	0	
10	0	0	0	0	542	468	0	0	0	0	
11	0	0	0	0	545	471	0	0	0	0	
12	0	0	0	0	549	476	0	0	0	0	
13	0	0	0	0	555	482	0	0	0	0	
14	0	0	0	0	560	489	0	0	0	0	
15	0	0	0	0	567	497	0	0	0	0	
0	0	0	0	0	573	506	0	0	0	0	
1	0	0	0	0	579	514	0	0	0	0	
2	0	0	0	0	584	520	0	0	0	0	
3	0	0	0	0	587	525	0	0	0	0	
4	0	0	0	0	588	528	0	0	0	0	
5	0	0	0	0	586	528	0	0	0	0	
6	0	0	0	0	581	525	0	0	0	0	
7	0	0	0	0	574	521	0	0	0	0	
8	0	0	0	0	564	515	0	0	0	0	
9	0	0	0	0	554	509	0	0	0	0	
10	0	0	0	0	544	502	0	0	0	0	
11	0	0	0	0	534	495	0	0	0	0	
12	0	0	0	0	526	488	0	0	0	0	
13	0	0	0	0	520	483	0	0	0	0	
14	0	0	0	0	518	478	0	0	0	0	
15	0	0	0	0	518	475	0	0	0	0	
0	0	0	0	0	519	472	0	0	0	0	
1	0	0	0	0	523	472	0	0	0	0	
2	0	0	0	0	528	472	0	0	0	0	
3	0	0	0	0	536	473	0	0	0	0	
4	0	0	0	0	543	476	0	0	0	0	
5	0	0	0	0	550	479	0	0	0	0	
6	0	0	0	0	556	482	0	0	0	0	
7	0	0	0	0	561	485	0	0	0	0	
8	0	0	0	0	566	488	0	0	0	0	
9	0	0	0	0	568	489	0	0	0	0	
10	0	0	0	0	567	489	0	0	0	0	
11	0	0	0	0	564	488	0	0	0	0	
12	0	0	0	0	559	485	0	0	0	0	
13	0	0	0	0	554	481	0	0	0	0	
14	0	0	0	0	546	477	0	0	0	0	
15	0	0	0	0	539	472	0	0	0	0	
0	0	0	0	0	531	466	0	0	0	0	
1	0	0	0	0	524	461	0	0	0	0	
2	0	0	0	0	518	457	0	0	0	0	
3	0	0	0	0	513	454	0	0	0	0	
4	0	0	0	0	509	451	0	0	0	0	
5	0	0	0	0	508	450	0	0	0	0	
6	0	0	0	0	508	451	0	0	0	0	
7	0	0	0	0	511	453	0	0	0	0	
8	0	0	0	0	516	456	0	0	0	0	
9	0	0	0	0	523	462	0	0	0	0	
10	0	0	0	0	531	468	0	0	0	0	
11	0	0	0	0	541	475	0	0	0	0	
12	0	0	0	0	551	481	0	0	0	0	
13	0	0	0	0	559	487	0	0	0	0	
14	0	0	0	0	567	493	0	0	0	0	
15	0	0	0	0	572	496	0	0	0	0	
0	0	0	0	0	575	499	0	0	0	0	
1	0	0	0	0	577	499	0	0	0	0	
2	0	0	0	0	575	498	0	0	0	0	
3	0	0	0	0	572	496	0	0	0	0	
4	0	0	0	0	568	493	0	0	0	0	
5	0	0	0	0	560	488	0	0	0	0	
6	0	0	0	0	553	483	0	0	0	0	
7	0	0	0	0	544	477	0	0	0	0	
8	0	0	0	0	536	471	0	0	0	0	
9	0	0	0	0	528	466	0	0	0	0	
10	0	0	0	0	521	461	0	0	0	0	
11	0	0	0	0	516	457	0	0	0	0	
12	0	0	0	0	512	455	0	0	0	0	
13	0	0	0	0	510	453	0	0	0	0	
14	0	0	0	0	509	452	0	0	0	0	
15	0	0	0	0	509	451	0	0	0	0	
0	0	0	0	0	510	451	0	0	0	0	
1	0	0	0	0	512	452	0	0	0	0	
2	0	0	0	0	513	452	0	0	0	0	
3	0	0	0	0	515	452	0	0	0	0	
4	0	0	0	0	518	453	0	0	0	0	
5	0	0	0	0	520	454	0	0	0	0	
6	0	0	0	0	523	454	0	0	0	0	
7	0	0	0	0	524	455	0	0	0	0	
8	0	0	0	0	526	456	0	0	0	0	
9	0	0	0	0	527	457	0	0	0	0	
10	0	0	0	0	529	459	0	0	0	0	
11	0	0	0	0	531	462	0	0	0	0	
12	0	0	0	0	534	465	0	0	0	0	
13	0	0	0	0	537	469	0	0	0	0	
14	0	0	0	0	541	474	0	0	0	0	
15	0	0	0	0	547	480	0	0	0	0	
0	0	0	0	0	553	487	0	0	0	0	
1	0	0	0	0	560	494	0	0	0	0	
2	0	0	0	0	567	501	0	0	0	0	
3	0	0	0	0	574	508	0	0	0	0	
4	0	0	0	0	581	515	0	0	0	0	
5	0	0	0	0	587	520	0	0	0	0	
6	0	0	0	0	592	524	0	0	0	0	
7	0	0	0	0	596	527	0	0	0	0	
8	0	0	0	0	598	529	0	0	0	0	
9	0	0	0	0	599	529	0	0	0	0	
10	0	0	0	0	597	528	0	0	0	0	
11	0	0	0	0	595	526	0	0	0	0	
12	0	0	0	0	591	522	0	0	0	0	
13	0	0	0	0	584	517	0	0	0	0	
14	0	0	0	0	578	511	0	0	0	0	
15	0	0	0	0	571	504	0	0	0	0	
0	0	0	0	0	562	496	0	0	0	0	
1	0	0	0	0	552	487	0	0	0	0	
2	0	0	0	0	543	479	0	0	0	0	
3	0	0	0	0	533	470	0	0	0	0	
4	0	0	0	0	523	461	0	0	0	0	
5	0	0	0	0	513	452	0	0	0	0	
6	0	0	0	0	505	444	0	0	0	0	
7	0	0	0	0	498	439	0	0	0	0	
8	0	0	0	0	494	435	0	0	0	0	
9	0	0	0	0	493	433	0	0	0	0	
10	0	0	0	0	495	434	0	0	0	0	
11	0	0	0	0	500	437	0	0	0	0	
12	0	0	0	0	508	443	0	0	0	0	
13	0	0	0	0	518	450	0	0	0	0	
14	0	0	0	0	531	460	0	0	0	0	
15	0	0	0	0	545	470	0	0	0	0	
0	0	0	0	0	558	480	0	0	0	0	
1	0	0	0	0	570	489	0	0	0	0	
2	0	0	0	0	579	495	0	0	0	0	
3	0	0	0	0	583	499	0	0	0	0	
4	0	0	0	0	584	500	0	0	0	0	
5	0	0	0	0	581	497	0	0	0	0	
6	0	0	0	0	574	493	0	0	0	0	
7	0	0	0	0	563	485	0	0	0	0	
8	0	0	0	0	551	476	0	0	0	0	
9	0	0	0	0	536	466	0	0	0	0	
10	0	0	0	0	520	455	0	0	0	0	
11	0	0	0	0	505	443	0	0	0	0	
12	0	0	0	0	492	432	0	0	0	0	
13	0	0	0	0	481	423	0	0	0	0	
14	0	0	0	0	473	416	0	0	0	0	
15	0	0	0	0	470	412	0	0	0	0	
0	0	0	0	0	471	410	0	0	0	0	
1	0	0	0	0	476	412	0	0	0	0	
2	0	0	0	0	486	417	0	0	0	0	
3	0	0	0	0	499	424	0	0	0	0	
4	0	0	0	0	515	434	0	0	0	0	
5	0	0	0	0	531	446	0	0	0	0	
6	0	0	0	0	548	458	0	0	0	0	
7	0	0	0	0	563	471	0	0	0	0	
8	0	0	0	0	577	483	0	0	0	0	
9	0	0	0	0	588	494	0	0	0	0	
10	0	0	0	0	595	501	0	0	0	0	
11	0	0	0	0	596	504	0	0	0	0	
12	0	0	0	0	593	504	0	0	0	0	
13	0	0	0	0	584	499	0	0	0	0	
14	0	0	0	0	570	491	0	0	0	0	
15	0	0	0	0	551	478	0	0	0	0	
0	0	0	0	0	530	462	0	0	0	0	
1	0	0	0	0	507	444	0	0	0	0	
2	0	0	0	0	483	424	0	0	0	0	
3	0	0	0	0	460	406	0	0	0	0	
4	0	0	0	0	441	390	0	0	0	0	
5	0	0	0	0	427	376	0	0	0	0	
6	0	0	0	0	420	368	0	0	0	0	
7	0	0	0	0	420	367	0	0	0	0	
8	0	0	0	0	430	371	0	0	0	0	
9	0	0	0	0	447	382	0	0	0	0	
10	0	0	0	0	472	399	0	0	0	0	
11	0	0	0	0	502	423	0	0	0	0	
12	0	0	0	0	534	448	0	0	0	0	
13	0	0	0	0	568	475	0	0	0	0	
14	0	0	0	0	598	500	0	0	0	0	
15	0	0	0	0	624	523	0	0	0	0	
0	0	0	0	0	643	540	0	0	0	0	
1	0	0	0	0	655	552	0	0	0	0	
2	0	0	0	0	659	559	0	0	0	0	
3	0	0	0	0	656	560	0	0	0	0	
4	0	0	0	0	647	556	0	0	0	0	
5	0	0	0	0	631	547	0	0	0	0	
6	0	0	0	0	612	535	0	0	0	0	
7	0	0	0	0	591	521	0	0	0	0	
8	0	0	0	0	568	506	0	0	0	0	
9	0	0	0	0	547	491	0	0	0	0	
10	0	0	0	0	527	476	0	0	0	0	
11	0	0	0	0	511	463	0	0	0	0	
12	0	0	0	0	498	453	0	0	0	0	
13	0	0	0	0	489	445	0	0	0	0	
14	0	0	0	0	484	441	0	0	0	0	
15	0	0	0	0	484	440	0	0	0	0	
0	0	0	0	0	489	441	0	0	0	0	
1	0	0	0	0	497	445	0	0	0	0	
2	0	0	0	0	509	452	0	0	0	0	
3	0	0	0	0	522	459	0	0	0	0	
4	0	0	0	0	536	467	0	0	0	0	
5	0	0	0	0	551	475	0	0	0	0	
6	0	0	0	0	563	481	0	0	0	0	
7	0	0	0	0	574	486	0	0	0	0	
8	0	0	0	0	580	489	0	0	0	0	
9	0	0	0	0	584	491	0	0	0	0	
10	0	0	0	0	586	492	0	0	0	0	
11	0	0	0	0	584	490	0	0	0	0	
12	0	0	0	0	582	489	0	0	0	0	
13	0	0	0	0	577	487	0	0	0	0	
14	0	0	0	0	571	484	0	0	0	0	
15	0	0	0	0	564	482	0	0	0	0	
0	0	0	0	0	557	479	0	0	0	0	
1	0	0	0	0	551	478	0	0	0	0	
2	0	0	0	0	544	476	0	0	0	0	
3	0	0	0	0	539	476	0	0	0	0	
4	0	0	0	0	533	475	0	0	0	0	
5	0	0	0	0	529	475	0	0	0	0	
6	0	0	0	0	527	475	0	0	0	0	
7	0	0	0	0	525	475	0	0	0	0	
8	0	0	0	0	525	474	0	0	0	0	
9	0	0	0	0	525	473	0	0	0	0	
10	0	0	0	0	525	471	0	0	0	0	
11	0	0	0	0	526	468	0	0	0	0	
12	0	0	0	0	526	465	0	0	0	0	
13	0	0	0	0	526	462	0	0	0	0	
14	0	0	0	0	526	458	0	0	0	0	
15	0	0	0	0	526	455	0	0	0	0	
0	0	0	0	0	526	453	0	0	0	0	
1	0	0	0	0	525	450	0	0	0	0	
2	0	0	0	0	524	448	0	0	0	0	
3	0	0	0	0	524	447	0	0	0	0	
4	0	0	0	0	524	446	0	0	0	0	
5	0	0	0	0	526	448	0	0	0	0	
6	0	0	0	0	529	451	0	0	0	0	
7	0	0	0	0	534	457	0	0	0	0	
8	0	0	0	0	541	464	0	0	0	0	
9	0	0	0	0	549	472	0	0	0	0	
10	0	0	0	0	559	483	0	0	0	0	
11	0	0	0	0	570	493	0	0	0	0	
12	0	0	0	0	582	504	0	0	0	0	
13	0	0	0	0	593	515	0	0	0	0	
14	0	0	0	0	603	524	0	0	0	0	
15	0	0	0	0	611	531	0	0	0	0	
0	0	0	0	0	617	537	0	0	0	0	
1	0	0	0	0	620	539	0	0	0	0	
2	0	0	0	0	619	539	0	0	0	0	
3	0	0	0	0	616	536	0	0	0	0	
4	0	0	0	0	609	531	0	0	0	0	
5	0	0	0	0	601	524	0	0	0	0	
6	0	0	0	0	591	515	0	0	0	0	
7	0	0	0	0	579	505	0	0	0	0	
8	0	0	0	0	568	496	0	0	0	0	
9	0	0	0	0	556	486	0	0	0	0	
10	0	0	0	0	545	477	0	0	0	0	
11	0	0	0	0	536	469	0	0	0	0	
12	0	0	0	0	529	463	0	0	0	0	
13	0	0	0	0	523	459	0	0	0	0	
14	0	0	0	0	519	455	0	0	0	0	
15	0	0	0	0	517	453	0	0	0	0	
0	0	0	0	0	516	452	0	0	0	0	
1	0	0	0	0	517	453	0	0	0	0	
2	0	0	0	0	519	454	0	0	0	0	
3	0	0	0	0	521	455	0	0	0	0	
4	0	0	0	0	524	456	0	0	0	0	
5	0	0	0	0	527	458	0	0	0	0	
6	0	0	0	0	529	459	0	0	0	0	
7	0	0	0	0	531	460	0	0	0	0	
8	0	0	0	0	531	461	0	0	0	0	
9	0	0	0	0	532	460	0	0	0	0	
10	0	0	0	0	530	459	0	0	0	0	
11	0	0	0	0	527	456	0	0	0	0	
12	0	0	0	0	523	453	0	0	0	0	
13	0	0	0	0	518	449	0	0	0	0	
14	0	0	0	0	512	445	0	0	0	0	
15	0	0	0	0	508	441	0	0	0	0	
0	0	0	0	0	504	438	0	0	0	0	
1	0	0	0	0	502	436	0	0	0	0	
2	0	0	0	0	501	436	0	0	0	0	
3	0	0	0	0	503	437	0	0	0	0	
4	0	0	0	0	506	439	0	0	0	0	
5	0	0	0	0	511	443	0	0	0	0	
6	0	0	0	0	516	447	0	0	0	0	
7	0	0	0	0	522	451	0	0	0	0	
8	0	0	0	0	528	456	0	0	0	0	
9	0	0	0	0	535	460	0	0	0	0	
10	0	0	0	0	540	465	0	0	0	0	
11	0	0	0	0	545	469	0	0	0	0	
12	0	0	0	0	550	474	0	0	0	0	
13	0	0	0	0	553	477	0	0	0	0	
14	0	0	0	0	556	479	0	0	0	0	
15	0	0	0	0	556	480	0	0	0	0	
0	0	0	0	0	554	479	0	0	0	0	
1	0	0	0	0	551	476	0	0	0	0	
2	0	0	0	0	547	473	0	0	0	0	
3	0	0	0	0	542	470	0	0	0	0	
4	0	0	0	0	536	467	0	0	0	0	
5	0	0	0	0	531	463	0	0	0	0	
6	0	0	0	0	526	461	0	0	0	0	
7	0	0	0	0	523	459	0	0	0	0	
8	0	0	0	0	520	457	0	0	0	0	
9	0	0	0	0	518	456	0	0	0	0	
10	0	0	0	0	516	456	0	0	0	0	
11	0	0	0	0	515	456	0	0	0	0	
12	0	0	0	0	516	457	0	0	0	0	
13	0	0	0	0	517	457	0	0	0	0	
14	0	0	0	0	519	459	0	0	0	0	
15	0	0	0	0	522	461	0	0	0	0	
0	0	0	0	0	526	463	0	0	0	0	
1	0	0	0	0	530	465	0	0	0	0	
2	0	0	0	0	535	468	0	0	0	0	
3	0	0	0	0	541	472	0	0	0	0	
4	0	0	0	0	548	476	0	0	0	0	
5	0	0	0	0	556	482	0	0	0	0	
6	0	0	0	0	564	488	0	0	0	0	
7	0	0	0	0	572	495	0	0	0	0	
8	0	0	0	0	579	501	0	0	0	0	
9	0	0	0	0	585	506	0	0	0	0	
10	0	0	0	0	590	510	0	0	0	0	
11	0	0	0	0	592	512	0	0	0	0	
12	0	0	0	0	591	513	0	0	0	0	
13	0	0	0	0	589	512	0	0	0	0	
14	0	0	0	0	584	508	0	0	0	0	
15	0	0	0	0	578	504	0	0	0	0	
0	0	0	0	0	569	498	0	0	0	0	
1	0	0	0	0	560	491	0	0	0	0	
2	0	0	0	0	549	483	0	0	0	0	
3	0	0	0	0	538	475	0	0	0	0	
4	0	0	0	0	527	466	0	0	0	0	
5	0	0	0	0	519	459	0	0	0	0	
6	0	0	0	0	511	453	0	0	0	0	
7	0	0	0	0	506	448	0	0	0	0	
8	0	0	0	0	504	446	0	0	0	0	
9	0	0	0	0	504	445	0	0	0	0	
10	0	0	0	0	506	446	0	0	0	0	
11	0	0	0	0	511	449	0	0	0	0	
12	0	0	0	0	517	454	0	0	0	0	
13	0	0	0	0	525	459	0	0	0	0	
14	0	0	0	0	533	465	0	0	0	0	
15	0	0	0	0	542	472	0	0	0	0	
0	0	0	0	0	550	478	0	0	0	0	
1	0	0	0	0	558	483	0	0	0	0	
2	0	0	0	0	564	489	0	0	0	0	
3	0	0	0	0	570	493	0	0	0	0	
4	0	0	0	0	574	496	0	0	0	0	
5	0	0	0	0	575	498	0	0	0	0	
6	0	0	0	0	575	498	0	0	0	0	
7	0	0	0	0	574	497	0	0	0	0	
8	0	0	0	0	571	495	0	0	0	0	
9	0	0	0	0	568	493	0	0	0	0	
10	0	0	0	0	564	490	0	0	0	0	
11	0	0	0	0	561	487	0	0	0	0	
12	0	0	0	0	558	486	0	0	0	0	
13	0	0	0	0	556	484	0	0	0	0	
14	0	0	0	0	555	483	0	0	0	0	
15	0	0	0	0	554	483	0	0	0	0	
0	0	0	0	0	553	483	0	0	0	0	
1	0	0	0	0	551	483	0	0	0	0	
2	0	0	0	0	550	482	0	0	0	0	
3	0	0	0	0	548	481	0	0	0	0	
4	0	0	0	0	545	479	0	0	0	0	
5	0	0	0	0	541	476	0	0	0	0	
6	0	0	0	0	536	473	0	0	0	0	
7	0	0	0	0	531	469	0	0	0	0	
8	0	0	0	0	526	465	0	0	0	0	
9	0	0	0	0	521	461	0	0	0	0	
10	0	0	0	0	518	457	0	0	0	0	
11	0	0	0	0	516	455	0	0	0	0	
12	0	0	0	0	516	454	0	0	0	0	
13	0	0	0	0	519	455	0	0	0	0	
14	0	0	0	0	523	457	0	0	0	0	
15	0	0	0	0	527	460	0	0	0	0	
0	0	0	0	0	533	464	0	0	0	0	
1	0	0	0	0	539	468	0	0	0	0	
2	0	0	0	0	545	473	0	0	0	0	
3	0	0	0	0	551	478	0	0	0	0	
4	0	0	0	0	558	484	0	0	0	0	
5	0	0	0	0	564	490	0	0	0	0	
6	0	0	0	0	572	497	0	0	0	0	
7	0	0	0	0	579	504	0	0	0	0	
8	0	0	0	0	586	510	0	0	0	0	
9	0	0	0	0	592	515	0	0	0	0	
10	0	0	0	0	598	520	0	0	0	0	
11	0	0	0	0	601	523	0	0	0	0	
12	0	0	0	0	603	524	0	0	0	0	
13	0	0	0	0	603	524	0	0	0	0	
14	0	0	0	0	600	521	0	0	0	0	
15	0	0	0	0	594	516	0	0	0	0	
0	0	0	0	0	586	510	0	0	0	0	
1	0	0	0	0	576	501	0	0	0	0	
2	0	0	0	0	564	492	0	0	0	0	
3	0	0	0	0	551	481	0	0	0	0	
4	0	0	0	0	538	470	0	0	0	0	
5	0	0	0	0	524	459	0	0	0	0	
6	0	0	0	0	511	449	0	0	0	0	
7	0	0	0	0	499	441	0	0	0	0	
8	0	0	0	0	490	433	0	0	0	0	
9	0	0	0	0	483	428	0	0	0	0	
10	0	0	0	0	480	425	0	0	0	0	
11	0	0	0	0	479	424	0	0	0	0	
12	0	0	0	0	482	425	0	0	0	0	
13	0	0	0	0	487	427	0	0	0	0	
14	0	0	0	0	494	431	0	0	0	0	
15	0	0	0	0	502	435	0	0	0	0	
0	0	0	0	0	512	441	0	0	0	0	
1	0	0	0	0	521	448	0	0	0	0	
2	0	0	0	0	530	454	0	0	0	0	
3	0	0	0	0	538	460	0	0	0	0	
4	0	0	0	0	544	465	0	0	0	0	
5	0	0	0	0	550	470	0	0	0	0	
6	0	0	0	0	552	473	0	0	0	0	
7	0	0	0	0	554	475	0	0	0	0	
8	0	0	0	0	554	476	0	0	0	0	
9	0	0	0	0	553	475	0	0	0	0	
10	0	0	0	0	551	473	0	0	0	0	
11	0	0	0	0	548	470	0	0	0	0	
12	0	0	0	0	544	467	0	0	0	0	
13	0	0	0	0	540	463	0	0	0	0	
14	0	0	0	0	536	459	0	0	0	0	
15	0	0	0	0	532	457	0	0	0	0	
0	0	0	0	0	531	456	0	0	0	0	
1	0	0	0	0	533	459	0	0	0	0	
2	0	0	0	0	537	463	0	0	0	0	
3	0	0	0	0	543	470	0	0	0	0	
4	0	0	0	0	552	478	0	0	0	0	
5	0	0	0	0	561	486	0	0	0	0	
6	0	0	0	0	571	495	0	0	0	0	
7	0	0	0	0	579	502	0	0	0	0	
8	0	0	0	0	585	508	0	0	0	0	
9	0	0	0	0	590	511	0	0	0	0	
10	0	0	0	0	591	513	0	0	0	0	
11	0	0	0	0	591	513	0	0	0	0	
12	0	0	0	0	589	511	0	0	0	0	
13	0	0	0	0	584	508	0	0	0	0	
14	0	0	0	0	579	504	0	0	0	0	
15	0	0	0	0	573	499	0	0	0	0	
0	0	0	0	0	566	494	0	0	0	0	
1	0	0	0	0	560	489	0	0	0	0	
2	0	0	0	0	555	486	0	0	0	0	
3	0	0	0	0	551	483	0	0	0	0	
4	0	0	0	0	549	482	0	0	0	0	
5	0	0	0	0	547	481	0	0	0	0	
6	0	0	0	0	548	482	0	0	0	0	
7	0	0	0	0	550	484	0	0	0	0	
8	0	0	0	0	553	487	0	0	0	0	
9	0	0	0	0	556	488	0	0	0	0	
10	0	0	0	0	559	491	0	0	0	0	
11	0	0	0	0	561	492	0	0	0	0	
12	0	0	0	0	563	492	0	0	0	0	
13	0	0	0	0	565	493	0	0	0	0	
14	0	0	0	0	567	493	0	0	0	0	
15	0	0	0	0	568	493	0	0	0	0	
0	0	0	0	0	568	493	0	0	0	0	
1	0	0	0	0	568	494	0	0	0	0	
2	0	0	0	0	569	494	0	0	0	0	
3	0	0	0	0	568	494	0	0	0	0	
4	0	0	0	0	566	494	0	0	0	0	
5	0	0	0	0	563	492	0	0	0	0	
6	0	0	0	0	558	489	0	0	0	0	
7	0	0	0	0	551	486	0	0	0	0	
8	0	0	0	0	543	481	0	0	0	0	
9	0	0	0	0	535	475	0	0	0	0	
10	0	0	0	0	526	469	0	0	0	0	
11	0	0	0	0	517	462	0	0	0	0	
12	0	0	0	0	510	455	0	0	0	0	
13	0	0	0	0	504	448	0	0	0	0	
14	0	0	0	0	498	443	0	0	0	0	
15	0	0	0	0	495	438	0	0	0	0	
0	0	0	0	0	495	435	0	0	0	0	
1	0	0	0	0	498	434	0	0	0	0	
2	0	0	0	0	505	437	0	0	0	0	
3	0	0	0	0	515	443	0	0	0	0	
4	0	0	0	0	529	452	0	0	0	0	
5	0	0	0	0	545	463	0	0	0	0	
6	0	0	0	0	563	476	0	0	0	0	
7	0	0	0	0	581	491	0	0	0	0	
8	0	0	0	0	597	504	0	0	0	0	
9	0	0	0	0	611	516	0	0	0	0	
10	0	0	0	0	623	526	0	0	0	0	
11	0	0	0	0	631	534	0	0	0	0	
12	0	0	0	0	635	540	0	0	0	0	
13	0	0	0	0	636	544	0	0	0	0	
14	0	0	0	0	633	546	0	0	0	0	
15	0	0	0	0	627	545	0	0	0	0	
0	0	0	0	0	618	543	0	0	0	0	
1	0	0	0	0	607	537	0	0	0	0	
2	0	0	0	0	594	530	0	0	0	0	
3	0	0	0	0	579	522	0	0	0	0	
4	0	0	0	0	566	512	0	0	0	0	
5	0	0	0	0	551	501	0	0	0	0	
6	0	0	0	0	537	488	0	0	0	0	
7	0	0	0	0	523	476	0	0	0	0	
8	0	0	0	0	511	463	0	0	0	0	
9	0	0	0	0	500	451	0	0	0	0	
10	0	0	0	0	491	441	0	0	0	0	
11	0	0	0	0	484	432	0	0	0	0	
12	0	0	0	0	481	427	0	0	0	0	
13	0	0	0	0	480	423	0	0	0	0	
14	0	0	0	0	481	423	0	0	0	0	
15	0	0	0	0	485	425	0	0	0	0	
0	0	0	0	0	492	430	0	0	0	0	
1	0	0	0	0	499	437	0	0	0	0	
2	0	0	0	0	509	445	0	0	0	0	
3	0	0	0	0	518	454	0	0	0	0	
4	0	0	0	0	528	463	0	0	0	0	
5	0	0	0	0	538	472	0	0	0	0	
6	0	0	0	0	547	480	0	0	0	0	
7	0	0	0	0	556	487	0	0	0	0	
8	0	0	0	0	564	493	0	0	0	0	
9	0	0	0	0	572	498	0	0	0	0	
10	0	0	0	0	577	502	0	0	0	0	
11	0	0	0	0	582	505	0	0	0	0	
12	0	0	0	0	584	507	0	0	0	0	
13	0	0	0	0	584	508	0	0	0	0	
14	0	0	0	0	583	508	0	0	0	0	
15	0	0	0	0	579	506	0	0	0	0	
0	0	0	0	0	573	504	0	0	0	0	
1	0	0	0	0	566	501	0	0	0	0	
2	0	0	0	0	558	497	0	0	0	0	
3	0	0	0	0	550	494	0	0	0	0	
4	0	0	0	0	542	489	0	0	0	0	
5	0	0	0	0	536	485	0	0	0	0	
6	0	0	0	0	530	481	0	0	0	0	
7	0	0	0	0	526	476	0	0	0	0	
8	0	0	0	0	521	470	0	0	0	0	
9	0	0	0	0	516	462	0	0	0	0	
10	0	0	0	0	509	453	0	0	0	0	
11	0	0	0	0	500	441	0	0	0	0	
12	0	0	0	0	489	429	0	0	0	0	
13	0	0	0	0	477	415	0	0	0	0	
14	0	0	0	0	462	399	0	0	0	0	
15	0	0	0	0	445	382	0	0	0	0	
0	0	0	0	0	427	363	0	0	0	0	
1	0	0	0	0	406	344	0	0	0	0	
2	0	0	0	0	385	325	0	0	0	0	
3	0	0	0	0	363	306	0	0	0	0	
4	0	0	0	0	341	287	0	0	0	0	
5	0	0	0	0	319	270	0	0	0	0	
6	0	0	0	0	299	253	0	0	0	0	
7	0	0	0	0	281	238	0	0	0	0	
8	0	0	0	0	267	225	0	0	0	0	
9	0	0	0	0	256	215	0	0	0	0	
10	0	0	0	0	252	208	0	0	0	0	
11	0	0	0	0	252	206	0	0	0	0	
12	0	0	0	0	258	207	0	0	0	0	
13	0	0	0	0	270	214	0	0	0	0	
14	0	0	0	0	286	224	0	0	0	0	
15	0	0	0	0	307	239	0	0	0	0	
0	0	0	0	0	332	259	0	0	0	0	
1	0	0	0	0	360	281	0	0	0	0	
2	0	0	0	0	391	305	0	0	0	0	
3	0	0	0	0	422	332	0	0	0	0	
4	0	0	0	0	452	360	0	0	0	0	
5	0	0	0	0	481	387	0	0	0	0	
6	0	0	0	0	507	413	0	0	0	0	
7	0	0	0	0	530	437	0	0	0	0	
8	0	0	0	0	548	458	0	0	0	0	
9	0	0	0	0	563	476	0	0	0	0	
10	0	0	0	0	573	490	0	0	0	0	
11	0	0	0	0	579	502	0	0	0	0	
12	0	0	0	0	583	511	0	0	0	0	
13	0	0	0	0	584	518	0	0	0	0	
14	0	0	0	0	583	522	0	0	0	0	
15	0	0	0	0	582	524	0	0	0	0	
0	0	0	0	0	579	525	0	0	0	0	
1	0	0	0	0	577	525	0	0	0	0	
2	0	0	0	0	575	524	0	0	0	0	
3	0	0	0	0	575	523	0	0	0	0	
4	0	0	0	0	575	522	0	0	0	0	
5	0	0	0	0	576	522	0	0	0	0	
6	0	0	0	0	577	522	0	0	0	0	
7	0	0	0	0	580	522	0	0	0	0	
8	0	0	0	0	582	522	0	0	0	0	
9	0	0	0	0	583	523	0	0	0	0	
10	0	0	0	0	585	522	0	0	0	0	
11	0	0	0	0	585	521	0	0	0	0	
12	0	0	0	0	583	519	0	0	0	0	
13	0	0	0	0	579	515	0	0	0	0	
14	0	0	0	0	574	511	0	0	0	0	
15	0	0	0	0	567	505	0	0	0	0	
0	0	0	0	0	559	498	0	0	0	0	
1	0	0	0	0	550	491	0	0	0	0	
2	0	0	0	0	541	484	0	0	0	0	
3	0	0	0	0	534	478	0	0	0	0	
4	0	0	0	0	528	473	0	0	0	0	
5	0	0	0	0	524	470	0	0	0	0	
6	0	0	0	0	524	468	0	0	0	0	
7	0	0	0	0	524	468	0	0	0	0	
8	0	0	0	0	528	470	0	0	0	0	
9	0	0	0	0	534	473	0	0	0	0	
10	0	0	0	0	542	478	0	0	0	0	
11	0	0	0	0	550	482	0	0	0	0	
12	0	0	0	0	557	487	0	0	0	0	
13	0	0	0	0	564	492	0	0	0	0	
14	0	0	0	0	569	496	0	0	0	0	
15	0	0	0	0	574	500	0	0	0	0	
0	0	0	0	0	575	502	0	0	0	0	
1	0	0	0	0	575	504	0	0	0	0	
2	0	0	0	0	574	504	0	0	0	0	
3	0	0	0	0	570	505	0	0	0	0	
4	0	0	0	0	566	504	0	0	0	0	
5	0	0	0	0	562	504	0	0	0	0	
6	0	0	0	0	558	504	0	0	0	0	
7	0	0	0	0	554	504	0	0	0	0	
8	0	0	0	0	551	504	0	0	0	0	
9	0	0	0	0	549	505	0	0	0	0	
10	0	0	0	0	548	505	0	0	0	0	
11	0	0	0	0	548	505	0	0	0	0	
12	0	0	0	0	549	505	0	0	0	0	
13	0	0	0	0	551	504	0	0	0	0	
14	0	0	0	0	555	505	0	0	0	0	
15	0	0	0	0	558	505	0	0	0	0	
0	0	0	0	0	562	506	0	0	0	0	
1	0	0	0	0	567	508	0	0	0	0	
2	0	0	0	0	571	509	0	0	0	0	
3	0	0	0	0	576	512	0	0	0	0	
4	0	0	0	0	580	515	0	0	0	0	
5	0	0	0	0	583	517	0	0	0	0	
6	0	0	0	0	587	520	0	0	0	0	
7	0	0	0	0	589	523	0	0	0	0	
8	0	0	0	0	590	525	0	0	0	0	
9	0	0	0	0	591	526	0	0	0	0	
10	0	0	0	0	590	527	0	0	0	0	
11	0	0	0	0	588	526	0	0	0	0	
12	0	0	0	0	585	524	0	0	0	0	
13	0	0	0	0	582	522	0	0	0	0	
14	0	0	0	0	576	518	0	0	0	0	
15	0	0	0	0	570	512	0	0	0	0	
0	0	0	0	0	563	507	0	0	0	0	
1	0	0	0	0	557	501	0	0	0	0	
2	0	0	0	0	550	495	0	0	0	0	
3	0	0	0	0	542	488	0	0	0	0	
4	0	0	0	0	534	482	0	0	0	0	
5	0	0	0	0	528	477	0	0	0	0	
6	0	0	0	0	521	473	0	0	0	0	
7	0	0	0	0	517	471	0	0	0	0	
8	0	0	0	0	513	470	0	0	0	0	
9	0	0	0	0	512	470	0	0	0	0	
10	0	0	0	0	514	473	0	0	0	0	
11	0	0	0	0	519	477	0	0	0	0	
12	0	0	0	0	526	482	0	0	0	0	
13	0	0	0	0	534	487	0	0	0	0	
14	0	0	0	0	543	492	0	0	0	0	
15	0	0	0	0	551	496	0	0	0	0	
0	0	0	0	0	559	499	0	0	0	0	
1	0	0	0	0	565	501	0	0	0	0	
2	0	0	0	0	568	502	0	0	0	0	
3	0	0	0	0	569	500	0	0	0	0	
4	0	0	0	0	567	497	0	0	0	0	
5	0	0	0	0	564	493	0	0	0	0	
6	0	0	0	0	560	489	0	0	0	0	
7	0	0	0	0	556	485	0	0	0	0	
8	0	0	0	0	550	481	0	0	0	0	
9	0	0	0	0	545	478	0	0	0	0	
10	0	0	0	0	540	476	0	0	0	0	
11	0	0	0	0	537	476	0	0	0	0	
12	0	0	0	0	534	477	0	0	0	0	
13	0	0	0	0	533	478	0	0	0	0	
14	0	0	0	0	533	480	0	0	0	0	
15	0	0	0	0	534	483	0	0	0	0	
0	0	0	0	0	535	484	0	0	0	0	
1	0	0	0	0	536	486	0	0	0	0	
2	0	0	0	0	536	486	0	0	0	0	
3	0	0	0	0	535	484	0	0	0	0	
4	0	0	0	0	534	483	0	0	0	0	
5	0	0	0	0	533	480	0	0	0	0	
6	0	0	0	0	531	477	0	0	0	0	
7	0	0	0	0	528	474	0	0	0	0	
8	0	0	0	0	527	472	0	0	0	0	
9	0	0	0	0	526	470	0	0	0	0	
10	0	0	0	0	527	471	0	0	0	0	
11	0	0	0	0	529	472	0	0	0	0	
12	0	0	0	0	534	476	0	0	0	0	
13	0	0	0	0	540	481	0	0	0	0	
14	0	0	0	0	546	487	0	0	0	0	
15	0	0	0	0	553	492	0	0	0	0	
0	0	0	0	0	561	499	0	0	0	0	
1	0	0	0	0	567	505	0	0	0	0	
2	0	0	0	0	573	510	0	0	0	0	
3	0	0	0	0	578	515	0	0	0	0	
4	0	0	0	0	582	519	0	0	0	0	
5	0	0	0	0	585	523	0	0	0	0	
6	0	0	0	0	587	526	0	0	0	0	
7	0	0	0	0	587	527	0	0	0	0	
8	0	0	0	0	586	527	0	0	0	0	
9	0	0	0	0	583	526	0	0	0	0	
10	0	0	0	0	579	523	0	0	0	0	
11	0	0	0	0	574	518	0	0	0	0	
12	0	0	0	0	567	513	0	0	0	0	
13	0	0	0	0	560	506	0	0	0	0	
14	0	0	0	0	552	499	0	0	0	0	
15	0	0	0	0	544	493	0	0	0	0	
0	0	0	0	0	538	487	0	0	0	0	
1	0	0	0	0	532	483	0	0	0	0	
2	0	0	0	0	527	479	0	0	0	0	
3	0	0	0	0	524	477	0	0	0	0	
4	0	0	0	0	523	476	0	0	0	0	
5	0	0	0	0	523	476	0	0	0	0	
6	0	0	0	0	523	476	0	0	0	0	
7	0	0	0	0	524	477	0	0	0	0	
8	0	0	0	0	526	478	0	0	0	0	
9	0	0	0	0	527	478	0	0	0	0	
10	0	0	0	0	528	478	0	0	0	0	
11	0	0	0	0	528	478	0	0	0	0	
12	0	0	0	0	528	477	0	0	0	0	
13	0	0	0	0	527	475	0	0	0	0	
14	0	0	0	0	525	472	0	0	0	0	
15	0	0	0	0	523	470	0	0	0	0	
0	0	0	0	0	520	467	0	0	0	0	
1	0	0	0	0	519	466	0	0	0	0	
2	0	0	0	0	517	465	0	0	0	0	
3	0	0	0	0	516	465	0	0	0	0	
4	0	0	0	0	515	467	0	0	0	0	
5	0	0	0	0	515	468	0	0	0	0	
6	0	0	0	0	515	471	0	0	0	0	
7	0	0	0	0	514	474	0	0	0	0	
8	0	0	0	0	514	476	0	0	0	0	
9	0	0	0	0	514	479	0	0	0	0	
10	0	0	0	0	515	480	0	0	0	0	
11	0	0	0	0	516	481	0	0	0	0	
12	0	0	0	0	519	481	0	0	0	0	
13	0	0	0	0	521	480	0	0	0	0	
14	0	0	0	0	523	479	0	0	0	0	
15	0	0	0	0	526	479	0	0	0	0	
0	0	0	0	0	528	479	0	0	0	0	
1	0	0	0	0	532	479	0	0	0	0	
2	0	0	0	0	537	481	0	0	0	0	
3	0	0	0	0	543	484	0	0	0	0	
4	0	0	0	0	549	488	0	0	0	0	
5	0	0	0	0	557	494	0	0	0	0	
6	0	0	0	0	566	501	0	0	0	0	
7	0	0	0	0	574	508	0	0	0	0	
8	0	0	0	0	582	516	0	0	0	0	
9	0	0	0	0	590	524	0	0	0	0	
10	0	0	0	0	595	530	0	0	0	0	
11	0	0	0	0	599	535	0	0	0	0	
12	0	0	0	0	600	537	0	0	0	0	
13	0	0	0	0	596	536	0	0	0	0	
14	0	0	0	0	590	531	0	0	0	0	
15	0	0	0	0	579	524	0	0	0	0	
0	0	0	0	0	567	515	0	0	0	0	
1	0	0	0	0	553	504	0	0	0	0	
2	0	0	0	0	540	492	0	0	0	0	
3	0	0	0	0	527	482	0	0	0	0	
4	0	0	0	0	518	474	0	0	0	0	
5	0	0	0	0	512	469	0	0	0	0	
6	0	0	0	0	511	467	0	0	0	0	
7	0	0	0	0	514	468	0	0	0	0	
8	0	0	0	0	520	473	0	0	0	0	
9	0	0	0	0	529	479	0	0	0	0	
10	0	0	0	0	539	486	0	0	0	0	
11	0	0	0	0	549	492	0	0	0	0	
12	0	0	0	0	558	498	0	0	0	0	
13	0	0	0	0	564	503	0	0	0	0	
14	0	0	0	0	568	504	0	0	0	0	
15	0	0	0	0	568	504	0	0	0	0	
0	0	0	0	0	564	501	0	0	0	0	
1	0	0	0	0	558	496	0	0	0	0	
2	0	0	0	0	549	490	0	0	0	0	
3	0	0	0	0	539	483	0	0	0	0	
4	0	0	0	0	528	476	0	0	0	0	
5	0	0	0	0	519	469	0	0	0	0	
6	0	0	0	0	510	462	0	0	0	0	
7	0	0	0	0	502	457	0	0	0	0	
8	0	0	0	0	497	454	0	0	0	0	
9	0	0	0	0	496	453	0	0	0	0	
10	0	0	0	0	496	453	0	0	0	0	
11	0	0	0	0	499	455	0	0	0	0	
12	0	0	0	0	504	457	0	0	0	0	
13	0	0	0	0	511	462	0	0	0	0	
14	0	0	0	0	518	467	0	0	0	0	
15	0	0	0	0	526	473	0	0	0	0	
0	0	0	0	0	534	480	0	0	0	0	
1	0	0	0	0	542	486	0	0	0	0	
2	0	0	0	0	549	493	0	0	0	0	
3	0	0	0	0	557	499	0	0	0	0	
4	0	0	0	0	564	506	0	0	0	0	
5	0	0	0	0	572	512	0	0	0	0	
6	0	0	0	0	579	519	0	0	0	0	
7	0	0	0	0	586	524	0	0	0	0	
8	0	0	0	0	593	530	0	0	0	0	
9	0	0	0	0	598	535	0	0	0	0	
10	0	0	0	0	603	538	0	0	0	0	
11	0	0	0	0	604	540	0	0	0	0	
12	0	0	0	0	605	541	0	0	0	0	
13	0	0	0	0	603	540	0	0	0	0	
14	0	0	0	0	600	538	0	0	0	0	
15	0	0	0	0	594	534	0	0	0	0	
0	0	0	0	0	587	529	0	0	0	0	
1	0	0	0	0	579	523	0	0	0	0	
2	0	0	0	0	569	515	0	0	0	0	
3	0	0	0	0	559	507	0	0	0	0	
4	0	0	0	0	548	499	0	0	0	0	
5	0	0	0	0	538	491	0	0	0	0	
6	0	0	0	0	529	484	0	0	0	0	
7	0	0	0	0	521	478	0	0	0	0	
8	0	0	0	0	516	473	0	0	0	0	
9	0	0	0	0	513	471	0	0	0	0	
10	0	0	0	0	513	469	0	0	0	0	
11	0	0	0	0	515	469	0	0	0	0	
12	0	0	0	0	518	469	0	0	0	0	
13	0	0	0	0	521	469	0	0	0	0	
14	0	0	0	0	525	470	0	0	0	0	
15	0	0	0	0	529	470	0	0	0	0	
0	0	0	0	0	532	470	0	0	0	0	
1	0	0	0	0	535	469	0	0	0	0	
2	0	0	0	0	536	467	0	0	0	0	
3	0	0	0	0	536	466	0	0	0	0	
4	0	0	0	0	536	464	0	0	0	0	
5	0	0	0	0	534	463	0	0	0	0	
6	0	0	0	0	531	461	0	0	0	0	
7	0	0	0	0	528	460	0	0	0	0	
8	0	0	0	0	524	460	0	0	0	0	
9	0	0	0	0	521	459	0	0	0	0	
10	0	0	0	0	518	460	0	0	0	0	
11	0	0	0	0	516	462	0	0	0	0	
12	0	0	0	0	515	465	0	0	0	0	
13	0	0	0	0	516	469	0	0	0	0	
14	0	0	0	0	518	474	0	0	0	0	
15	0	0	0	0	522	480	0	0	0	0	
0	0	0	0	0	527	486	0	0	0	0	
1	0	0	0	0	534	492	0	0	0	0	
2	0	0	0	0	540	496	0	0	0	0	
3	0	0	0	0	547	500	0	0	0	0	
4	0	0	0	0	553	503	0	0	0	0	
5	0	0	0	0	558	504	0	0	0	0	
6	0	0	0	0	562	503	0	0	0	0	
7	0	0	0	0	564	501	0	0	0	0	
8	0	0	0	0	565	497	0	0	0	0	
9	0	0	0	0	565	494	0	0	0	0	
10	0	0	0	0	563	489	0	0	0	0	
11	0	0	0	0	561	486	0	0	0	0	
12	0	0	0	0	559	483	0	0	0	0	
13	0	0	0	0	557	482	0	0	0	0	
14	0	0	0	0	556	483	0	0	0	0	
15	0	0	0	0	557	486	0	0	0	0	
0	0	0	0	0	559	489	0	0	0	0	
1	0	0	0	0	561	495	0	0	0	0	
2	0	0	0	0	566	501	0	0	0	0	
3	0	0	0	0	570	508	0	0	0	0	
4	0	0	0	0	574	513	0	0	0	0	
5	0	0	0	0	577	518	0	0	0	0	
6	0	0	0	0	578	520	0	0	0	0	
7	0	0	0	0	577	521	0	0	0	0	
8	0	0	0	0	575	519	0	0	0	0	
9	0	0	0	0	572	516	0	0	0	0	
10	0	0	0	0	566	510	0	0	0	0	
11	0	0	0	0	559	503	0	0	0	0	
12	0	0	0	0	550	494	0	0	0	0	
13	0	0	0	0	541	485	0	0	0	0	
14	0	0	0	0	531	475	0	0	0	0	
15	0	0	0	0	521	465	0	0	0	0	
0	0	0	0	0	512	456	0	0	0	0	
1	0	0	0	0	504	448	0	0	0	0	
2	0	0	0	0	498	441	0	0	0	0	
3	0	0	0	0	493	436	0	0	0	0	
4	0	0	0	0	489	433	0	0	0	0	
5	0	0	0	0	488	432	0	0	0	0	
6	0	0	0	0	488	432	0	0	0	0	
7	0	0	0	0	491	433	0	0	0	0	
8	0	0	0	0	494	435	0	0	0	0	
9	0	0	0	0	498	439	0	0	0	0	
10	0	0	0	0	504	442	0	0	0	0	
11	0	0	0	0	509	446	0	0	0	0	
12	0	0	0	0	514	450	0	0	0	0	
13	0	0	0	0	519	454	0	0	0	0	
14	0	0	0	0	524	457	0	0	0	0	
15	0	0	0	0	527	460	0	0	0	0	
0	0	0	0	0	531	463	0	0	0	0	
1	0	0	0	0	533	465	0	0	0	0	
2	0	0	0	0	535	467	0	0	0	0	
3	0	0	0	0	536	467	0	0	0	0	
4	0	0	0	0	537	468	0	0	0	0	
5	0	0	0	0	539	470	0	0	0	0	
6	0	0	0	0	541	472	0	0	0	0	
7	0	0	0	0	543	475	0	0	0	0	
8	0	0	0	0	547	478	0	0	0	0	
9	0	0	0	0	550	480	0	0	0	0	
10	0	0	0	0	552	483	0	0	0	0	
11	0	0	0	0	554	486	0	0	0	0	
12	0	0	0	0	556	487	0	0	0	0	
13	0	0	0	0	555	487	0	0	0	0	
14	0	0	0	0	553	487	0	0	0	0	
15	0	0	0	0	550	486	0	0	0	0	
0	0	0	0	0	545	484	0	0	0	0	
1	0	0	0	0	540	483	0	0	0	0	
2	0	0	0	0	534	481	0	0	0	0	
3	0	0	0	0	528	479	0	0	0	0	
4	0	0	0	0	521	477	0	0	0	0	
5	0	0	0	0	516	475	0	0	0	0	
6	0	0	0	0	511	472	0	0	0	0	
7	0	0	0	0	509	470	0	0	0	0	
8	0	0	0	0	508	467	0	0	0	0	
9	0	0	0	0	508	465	0	0	0	0	
10	0	0	0	0	511	463	0	0	0	0	
11	0	0	0	0	515	460	0	0	0	0	
12	0	0	0	0	520	459	0	0	0	0	
13	0	0	0	0	526	457	0	0	0	0	
14	0	0	0	0	531	456	0	0	0	0	
15	0	0	0	0	535	454	0	0	0	0	
0	0	0	0	0	539	453	0	0	0	0	
1	0	0	0	0	540	451	0	0	0	0	
2	0	0	0	0	540	449	0	0	0	0	
3	0	0	0	0	539	448	0	0	0	0	
4	0	0	0	0	537	447	0	0	0	0	
5	0	0	0	0	534	446	0	0	0	0	
6	0	0	0	0	531	445	0	0	0	0	
7	0	0	0	0	529	445	0	0	0	0	
8	0	0	0	0	527	445	0	0	0	0	
9	0	0	0	0	524	446	0	0	0	0	
10	0	0	0	0	522	446	0	0	0	0	
11	0	0	0	0	520	447	0	0	0	0	
12	0	0	0	0	519	447	0	0	0	0	
13	0	0	0	0	517	448	0	0	0	0	
14	0	0	0	0	516	449	0	0	0	0	
15	0	0	0	0	516	450	0	0	0	0	
0	0	0	0	0	516	451	0	0	0	0	
1	0	0	0	0	517	452	0	0	0	0	
2	0	0	0	0	519	453	0	0	0	0	
3	0	0	0	0	521	454	0	0	0	0	
4	0	0	0	0	523	455	0	0	0	0	
5	0	0	0	0	525	455	0	0	0	0	
6	0	0	0	0	527	454	0	0	0	0	
7	0	0	0	0	527	452	0	0	0	0	
8	0	0	0	0	527	450	0	0	0	0	
9	0	0	0	0	527	448	0	0	0	0	
10	0	0	0	0	526	445	0	0	0	0	
11	0	0	0	0	525	442	0	0	0	0	
12	0	0	0	0	523	440	0	0	0	0	
13	0	0	0	0	521	438	0	0	0	0	
14	0	0	0	0	519	437	0	0	0	0	
15	0	0	0	0	517	436	0	0	0	0	
0	0	0	0	0	515	435	0	0	0	0	
1	0	0	0	0	513	435	0	0	0	0	
2	0	0	0	0	512	436	0	0	0	0	
3	0	0	0	0	511	438	0	0	0	0	
4	0	0	0	0	508	439	0	0	0	0	
5	0	0	0	0	507	440	0	0	0	0	
6	0	0	0	0	505	442	0	0	0	0	
7	0	0	0	0	505	444	0	0	0	0	
8	0	0	0	0	505	447	0	0	0	0	
9	0	0	0	0	507	450	0	0	0	0	
10	0	0	0	0	509	453	0	0	0	0	
11	0	0	0	0	513	456	0	0	0	0	
12	0	0	0	0	518	458	0	0	0	0	
13	0	0	0	0	524	460	0	0	0	0	
14	0	0	0	0	529	462	0	0	0	0	
15	0	0	0	0	534	462	0	0	0	0	
0	0	0	0	0	540	463	0	0	0	0	
1	0	0	0	0	544	463	0	0	0	0	
2	0	0	0	0	548	463	0	0	0	0	
3	0	0	0	0	551	462	0	0	0	0	
4	0	0	0	0	553	461	0	0	0	0	
5	0	0	0	0	553	461	0	0	0	0	
6	0	0	0	0	553	460	0	0	0	0	
7	0	0	0	0	552	460	0	0	0	0	
8	0	0	0	0	550	460	0	0	0	0	
9	0	0	0	0	548	460	0	0	0	0	
10	0	0	0	0	546	462	0	0	0	0	
11	0	0	0	0	545	463	0	0	0	0	
12	0	0	0	0	544	466	0	0	0	0	
13	0	0	0	0	544	468	0	0	0	0	
14	0	0	0	0	543	471	0	0	0	0	
15	0	0	0	0	544	473	0	0	0	0	
0	0	0	0	0	545	475	0	0	0	0	
1	0	0	0	0	545	475	0	0	0	0	
2	0	0	0	0	545	475	0	0	0	0	
3	0	0	0	0	544	473	0	0	0	0	
4	0	0	0	0	543	472	0	0	0	0	
5	0	0	0	0	542	469	0	0	0	0	
6	0	0	0	0	540	465	0	0	0	0	
7	0	0	0	0	537	462	0	0	0	0	
8	0	0	0	0	534	457	0	0	0	0	
9	0	0	0	0	529	452	0	0	0	0	
10	0	0	0	0	526	448	0	0	0	0	
11	0	0	0	0	522	445	0	0	0	0	
12	0	0	0	0	519	443	0	0	0	0	
13	0	0	0	0	516	441	0	0	0	0	
14	0	0	0	0	516	441	0	0	0	0	
15	0	0	0	0	517	443	0	0	0	0	
0	0	0	0	0	519	445	0	0	0	0	
1	0	0	0	0	523	448	0	0	0	0	
2	0	0	0	0	527	450	0	0	0	0	
3	0	0	0	0	530	452	0	0	0	0	
4	0	0	0	0	532	454	0	0	0	0	
5	0	0	0	0	534	453	0	0	0	0	
6	0	0	0	0	532	451	0	0	0	0	
7	0	0	0	0	530	448	0	0	0	0	
8	0	0	0	0	526	444	0	0	0	0	
9	0	0	0	0	521	439	0	0	0	0	
10	0	0	0	0	515	434	0	0	0	0	
11	0	0	0	0	509	428	0	0	0	0	
12	0	0	0	0	503	423	0	0	0	0	
13	0	0	0	0	497	420	0	0	0	0	
14	0	0	0	0	493	416	0	0	0	0	
15	0	0	0	0	489	415	0	0	0	0	
0	0	0	0	0	487	414	0	0	0	0	
1	0	0	0	0	487	415	0	0	0	0	
2	0	0	0	0	488	419	0	0	0	0	
3	0	0	0	0	492	422	0	0	0	0	
4	0	0	0	0	495	426	0	0	0	0	
5	0	0	0	0	499	430	0	0	0	0	
6	0	0	0	0	504	434	0	0	0	0	
7	0	0	0	0	509	438	0	0	0	0	
8	0	0	0	0	514	440	0	0	0	0	
9	0	0	0	0	519	442	0	0	0	0	
10	0	0	0	0	523	443	0	0	0	0	
11	0	0	0	0	527	443	0	0	0	0	
12	0	0	0	0	529	442	0	0	0	0	
13	0	0	0	0	530	441	0	0	0	0	
14	0	0	0	0	531	440	0	0	0	0	
15	0	0	0	0	531	439	0	0	0	0	
0	0	0	0	0	531	438	0	0	0	0	
1	0	0	0	0	529	438	0	0	0	0	
2	0	0	0	0	528	438	0	0	0	0	
3	0	0	0	0	527	438	0	0	0	0	
4	0	0	0	0	525	439	0	0	0	0	
5	0	0	0	0	523	440	0	0	0	0	
6	0	0	0	0	522	441	0	0	0	0	
7	0	0	0	0	521	443	0	0	0	0	
8	0	0	0	0	519	444	0	0	0	0	
9	0	0	0	0	518	446	0	0	0	0	
10	0	0	0	0	516	448	0	0	0	0	
11	0	0	0	0	515	448	0	0	0	0	
12	0	0	0	0	513	449	0	0	0	0	
13	0	0	0	0	513	449	0	0	0	0	
14	0	0	0	0	511	448	0	0	0	0	
15	0	0	0	0	511	446	0	0	0	0	
0	0	0	0	0	511	443	0	0	0	0	
1	0	0	0	0	511	441	0	0	0	0	
2	0	0	0	0	512	439	0	0	0	0	
3	0	0	0	0	514	436	0	0	0	0	
4	0	0	0	0	516	435	0	0	0	0	
5	0	0	0	0	519	436	0	0	0	0	
6	0	0	0	0	523	437	0	0	0	0	
7	0	0	0	0	527	439	0	0	0	0	
8	0	0	0	0	530	442	0	0	0	0	
9	0	0	0	0	533	444	0	0	0	0	
10	0	0	0	0	535	448	0	0	0	0	
11	0	0	0	0	537	451	0	0	0	0	
12	0	0	0	0	538	453	0	0	0	0	
13	0	0	0	0	538	455	0	0	0	0	
14	0	0	0	0	536	455	0	0	0	0	
15	0	0	0	0	533	455	0	0	0	0	
0	0	0	0	0	530	455	0	0	0	0	
1	0	0	0	0	526	453	0	0	0	0	
2	0	0	0	0	520	451	0	0	0	0	
3	0	0	0	0	515	448	0	0	0	0	
4	0	0	0	0	509	445	0	0	0	0	
5	0	0	0	0	504	442	0	0	0	0	
6	0	0	0	0	500	439	0	0	0	0	
7	0	0	0	0	499	436	0	0	0	0	
8	0	0	0	0	498	434	0	0	0	0	
9	0	0	0	0	499	432	0	0	0	0	
10	0	0	0	0	501	432	0	0	0	0	
11	0	0	0	0	504	432	0	0	0	0	
12	0	0	0	0	508	432	0	0	0	0	
13	0	0	0	0	511	433	0	0	0	0	
14	0	0	0	0	514	434	0	0	0	0	
15	0	0	0	0	517	435	0	0	0	0	
0	0	0	0	0	519	436	0	0	0	0	
1	0	0	0	0	521	438	0	0	0	0	
2	0	0	0	0	523	438	0	0	0	0	
3	0	0	0	0	524	439	0	0	0	0	
4	0	0	0	0	526	440	0	0	0	0	
5	0	0	0	0	528	442	0	0	0	0	
6	0	0	0	0	531	444	0	0	0	0	
7	0	0	0	0	535	446	0	0	0	0	
8	0	0	0	0	539	450	0	0	0	0	
9	0	0	0	0	543	453	0	0	0	0	
10	0	0	0	0	548	456	0	0	0	0	
11	0	0	0	0	552	460	0	0	0	0	
12	0	0	0	0	556	462	0	0	0	0	
13	0	0	0	0	558	464	0	0	0	0	
14	0	0	0	0	560	465	0	0	0	0	
15	0	0	0	0	560	466	0	0	0	0	
0	0	0	0	0	560	467	0	0	0	0	
1	0	0	0	0	560	466	0	0	0	0	
2	0	0	0	0	558	465	0	0	0	0	
3	0	0	0	0	555	464	0	0	0	0	
4	0	0	0	0	552	463	0	0	0	0	
5	0	0	0	0	548	461	0	0	0	0	
6	0	0	0	0	545	459	0	0	0	0	
7	0	0	0	0	541	457	0	0	0	0	
8	0	0	0	0	538	455	0	0	0	0	
9	0	0	0	0	535	454	0	0	0	0	
10	0	0	0	0	533	452	0	0	0	0	
11	0	0	0	0	531	451	0	0	0	0	
12	0	0	0	0	530	450	0	0	0	0	
13	0	0	0	0	530	450	0	0	0	0	
14	0	0	0	0	531	450	0	0	0	0	
15	0	0	0	0	532	450	0	0	0	0	
0	0	0	0	0	533	451	0	0	0	0	
1	0	0	0	0	535	451	0	0	0	0	
2	0	0	0	0	536	451	0	0	0	0	
3	0	0	0	0	536	452	0	0	0	0	
4	0	0	0	0	536	452	0	0	0	0	
5	0	0	0	0	535	452	0	0	0	0	
6	0	0	0	0	534	451	0	0	0	0	
7	0	0	0	0	532	451	0	0	0	0	
8	0	0	0	0	530	449	0	0	0	0	
9	0	0	0	0	527	448	0	0	0	0	
10	0	0	0	0	524	446	0	0	0	0	
11	0	0	0	0	522	445	0	0	0	0	
12	0	0	0	0	520	444	0	0	0	0	
13	0	0	0	0	519	442	0	0	0	0	
14	0	0	0	0	518	440	0	0	0	0	
15	0	0	0	0	516	439	0	0	0	0	
0	0	0	0	0	515	436	0	0	0	0	
1	0	0	0	0	514	433	0	0	0	0	
2	0	0	0	0	513	431	0	0	0	0	
3	0	0	0	0	511	428	0	0	0	0	
4	0	0	0	0	510	424	0	0	0	0	
5	0	0	0	0	508	422	0	0	0	0	
6	0	0	0	0	507	420	0	0	0	0	
7	0	0	0	0	507	420	0	0	0	0	
8	0	0	0	0	507	420	0	0	0	0	
9	0	0	0	0	507	422	0	0	0	0	
10	0	0	0	0	508	423	0	0	0	0	
11	0	0	0	0	508	426	0	0	0	0	
12	0	0	0	0	510	428	0	0	0	0	
13	0	0	0	0	511	431	0	0	0	0	
14	0	0	0	0	512	433	0	0	0	0	
15	0	0	0	0	514	435	0	0	0	0	
0	0	0	0	0	516	436	0	0	0	0	
1	0	0	0	0	517	437	0	0	0	0	
2	0	0	0	0	518	436	0	0	0	0	
3	0	0	0	0	518	434	0	0	0	0	
4	0	0	0	0	516	432	0	0	0	0	
5	0	0	0	0	515	429	0	0	0	0	
6	0	0	0	0	512	425	0	0	0	0	
7	0	0	0	0	511	423	0	0	0	0	
8	0	0	0	0	508	419	0	0	0	0	
9	0	0	0	0	507	418	0	0	0	0	
10	0	0	0	0	507	416	0	0	0	0	
11	0	0	0	0	507	416	0	0	0	0	
12	0	0	0	0	507	417	0	0	0	0	
13	0	0	0	0	508	419	0	0	0	0	
14	0	0	0	0	509	422	0	0	0	0	
15	0	0	0	0	510	425	0	0	0	0	
0	0	0	0	0	512	428	0	0	0	0	
1	0	0	0	0	513	432	0	0	0	0	
2	0	0	0	0	516	435	0	0	0	0	
3	0	0	0	0	518	439	0	0	0	0	
4	0	0	0	0	520	441	0	0	0	0	
5	0	0	0	0	523	443	0	0	0	0	
6	0	0	0	0	525	444	0	0	0	0	
7	0	0	0	0	527	444	0	0	0	0	
8	0	0	0	0	527	444	0	0	0	0	
9	0	0	0	0	529	444	0	0	0	0	
10	0	0	0	0	530	444	0	0	0	0	
11	0	0	0	0	531	444	0	0	0	0	
12	0	0	0	0	532	444	0	0	0	0	
13	0	0	0	0	532	445	0	0	0	0	
14	0	0	0	0	534	447	0	0	0	0	
15	0	0	0	0	535	448	0	0	0	0	
0	0	0	0	0	535	449	0	0	0	0	
1	0	0	0	0	535	451	0	0	0	0	
2	0	0	0	0	534	452	0	0	0	0	
3	0	0	0	0	532	453	0	0	0	0	
4	0	0	0	0	531	454	0	0	0	0	
5	0	0	0	0	529	455	0	0	0	0	
6	0	0	0	0	527	455	0	0	0	0	
7	0	0	0	0	526	454	0	0	0	0	
8	0	0	0	0	526	454	0	0	0	0	
9	0	0	0	0	525	453	0	0	0	0	
10	0	0	0	0	526	451	0	0	0	0	
11	0	0	0	0	525	449	0	0	0	0	
12	0	0	0	0	524	447	0	0	0	0	
13	0	0	0	0	522	444	0	0	0	0	
14	0	0	0	0	520	442	0	0	0	0	
15	0	0	0	0	518	439	0	0	0	0	
0	0	0	0	0	515	438	0	0	0	0	
1	0	0	0	0	513	436	0	0	0	0	
2	0	0	0	0	511	436	0	0	0	0	
3	0	0	0	0	511	437	0	0	0	0	
4	0	0	0	0	512	439	0	0	0	0	
5	0	0	0	0	514	441	0	0	0	0	
6	0	0	0	0	518	445	0	0	0	0	
7	0	0	0	0	523	449	0	0	0	0	
8	0	0	0	0	529	453	0	0	0	0	
9	0	0	0	0	536	457	0	0	0	0	
10	0	0	0	0	543	460	0	0	0	0	
11	0	0	0	0	549	463	0	0	0	0	
12	0	0	0	0	556	466	0	0	0	0	
13	0	0	0	0	561	468	0	0	0	0	
14	0	0	0	0	565	469	0	0	0	0	
15	0	0	0	0	567	469	0	0	0	0	
0	0	0	0	0	567	469	0	0	0	0	
1	0	0	0	0	566	468	0	0	0	0	
2	0	0	0	0	562	467	0	0	0	0	
3	0	0	0	0	556	464	0	0	0	0	
4	0	0	0	0	550	462	0	0	0	0	
5	0	0	0	0	542	459	0	0	0	0	
6	0	0	0	0	535	457	0	0	0	0	
7	0	0	0	0	529	455	0	0	0	0	
8	0	0	0	0	524	454	0	0	0	0	
9	0	0	0	0	522	455	0	0	0	0	
10	0	0	0	0	521	456	0	0	0	0	
11	0	0	0	0	523	459	0	0	0	0	
12	0	0	0	0	527	462	0	0	0	0	
13	0	0	0	0	532	466	0	0	0	0	
14	0	0	0	0	537	470	0	0	0	0	
15	0	0	0	0	543	473	0	0	0	0	
0	0	0	0	0	548	477	0	0	0	0	
1	0	0	0	0	554	480	0	0	0	0	
2	0	0	0	0	557	482	0	0	0	0	
3	0	0	0	0	560	482	0	0	0	0	
4	0	0	0	0	560	480	0	0	0	0	
5	0	0	0	0	559	478	0	0	0	0	
6	0	0	0	0	555	473	0	0	0	0	
7	0	0	0	0	551	467	0	0	0	0	
8	0	0	0	0	544	460	0	0	0	0	
9	0	0	0	0	537	451	0	0	0	0	
10	0	0	0	0	528	443	0	0	0	0	
11	0	0	0	0	519	433	0	0	0	0	
12	0	0	0	0	508	423	0	0	0	0	
13	0	0	0	0	497	414	0	0	0	0	
14	0	0	0	0	485	403	0	0	0	0	
15	0	0	0	0	473	393	0	0	0	0	
0	0	0	0	0	461	382	0	0	0	0	
1	0	0	0	0	448	372	0	0	0	0	
2	0	0	0	0	436	361	0	0	0	0	
3	0	0	0	0	424	351	0	0	0	0	
4	0	0	0	0	413	341	0	0	0	0	
5	0	0	0	0	401	329	0	0	0	0	
6	0	0	0	0	389	317	0	0	0	0	
7	0	0	0	0	376	304	0	0	0	0	
8	0	0	0	0	363	291	0	0	0	0	
9	0	0	0	0	350	277	0	0	0	0	
10	0	0	0	0	336	263	0	0	0	0	
11	0	0	0	0	323	250	0	0	0	0	
12	0	0	0	0	310	237	0	0	0	0	
13	0	0	0	0	297	225	0	0	0	0	
14	0	0	0	0	285	216	0	0	0	0	
15	0	0	0	0	275	209	0	0	0	0	
0	0	0	0	0	268	204	0	0	0	0	
1	0	0	0	0	263	204	0	0	0	0	
2	0	0	0	0	262	207	0	0	0	0	
3	0	0	0	0	265	214	0	0	0	0	
4	0	0	0	0	274	225	0	0	0	0	
5	0	0	0	0	289	240	0	0	0	0	
6	0	0	0	0	310	257	0	0	0	0	
7	0	0	0	0	335	278	0	0	0	0	
8	0	0	0	0	365	300	0	0	0	0	
9	0	0	0	0	397	323	0	0	0	0	
10	0	0	0	0	430	347	0	0	0	0	
11	0	0	0	0	463	371	0	0	0	0	
12	0	0	0	0	494	394	0	0	0	0	
13	0	0	0	0	523	417	0	0	0	0	
14	0	0	0	0	548	438	0	0	0	0	
15	0	0	0	0	570	457	0	0	0	0	
0	0	0	0	0	587	473	0	0	0	0	
1	0	0	0	0	599	487	0	0	0	0	
2	0	0	0	0	606	497	0	0	0	0	
3	0	0	0	0	608	504	0	0	0	0	
4	0	0	0	0	606	508	0	0	0	0	
5	0	0	0	0	601	509	0	0	0	0	
6	0	0	0	0	594	508	0	0	0	0	
7	0	0	0	0	585	505	0	0	0	0	
8	0	0	0	0	575	501	0	0	0	0	
9	0	0	0	0	567	496	0	0	0	0	
10	0	0	0	0	558	491	0	0	0	0	
11	0	0	0	0	550	485	0	0	0	0	
12	0	0	0	0	543	480	0	0	0	0	
13	0	0	0	0	538	474	0	0	0	0	
14	0	0	0	0	533	469	0	0	0	0	
15	0	0	0	0	529	464	0	0	0	0	
0	0	0	0	0	526	460	0	0	0	0	
1	0	0	0	0	524	456	0	0	0	0	
2	0	0	0	0	523	453	0	0	0	0	
3	0	0	0	0	523	451	0	0	0	0	
4	0	0	0	0	523	449	0	0	0	0	
5	0	0	0	0	524	448	0	0	0	0	
6	0	0	0	0	526	449	0	0	0	0	
7	0	0	0	0	528	450	0	0	0	0	
8	0	0	0	0	531	453	0	0	0	0	
9	0	0	0	0	535	456	0	0	0	0	
10	0	0	0	0	539	460	0	0	0	0	
11	0	0	0	0	543	464	0	0	0	0	
12	0	0	0	0	548	469	0	0	0	0	
13	0	0	0	0	552	474	0	0	0	0	
14	0	0	0	0	556	479	0	0	0	0	
15	0	0	0	0	561	485	0	0	0	0	
0	0	0	0	0	565	490	0	0	0	0	
1	0	0	0	0	568	495	0	0	0	0	
2	0	0	0	0	571	498	0	0	0	0	
3	0	0	0	0	574	500	0	0	0	0	
4	0	0	0	0	575	502	0	0	0	0	
5	0	0	0	0	577	504	0	0	0	0	
6	0	0	0	0	579	505	0	0	0	0	
7	0	0	0	0	581	507	0	0	0	0	
8	0	0	0	0	583	507	0	0	0	0	
9	0	0	0	0	584	508	0	0	0	0	
10	0	0	0	0	586	510	0	0	0	0	
11	0	0	0	0	588	511	0	0	0	0	
12	0	0	0	0	588	511	0	0	0	0	
13	0	0	0	0	589	511	0	0	0	0	
14	0	0	0	0	587	510	0	0	0	0	
15	0	0	0	0	584	508	0	0	0	0	
0	0	0	0	0	579	504	0	0	0	0	
1	0	0	0	0	573	499	0	0	0	0	
2	0	0	0	0	565	492	0	0	0	0	
3	0	0	0	0	556	485	0	0	0	0	
4	0	0	0	0	546	477	0	0	0	0	
5	0	0	0	0	536	468	0	0	0	0	
6	0	0	0	0	527	460	0	0	0	0	
7	0	0	0	0	517	451	0	0	0	0	
8	0	0	0	0	508	445	0	0	0	0	
9	0	0	0	0	502	438	0	0	0	0	
10	0	0	0	0	497	433	0	0	0	0	
11	0	0	0	0	494	430	0	0	0	0	
12	0	0	0	0	492	428	0	0	0	0	
13	0	0	0	0	493	428	0	0	0	0	
14	0	0	0	0	496	430	0	0	0	0	
15	0	0	0	0	502	433	0	0	0	0	
0	0	0	0	0	508	438	0	0	0	0	
1	0	0	0	0	515	443	0	0	0	0	
2	0	0	0	0	524	450	0	0	0	0	
3	0	0	0	0	534	457	0	0	0	0	
4	0	0	0	0	543	464	0	0	0	0	
5	0	0	0	0	553	472	0	0	0	0	
6	0	0	0	0	561	478	0	0	0	0	
7	0	0	0	0	569	485	0	0	0	0	
8	0	0	0	0	576	491	0	0	0	0	
9	0	0	0	0	582	495	0	0	0	0	
10	0	0	0	0	586	499	0	0	0	0	
11	0	0	0	0	588	501	0	0	0	0	
12	0	0	0	0	589	502	0	0	0	0	
13	0	0	0	0	589	502	0	0	0	0	
14	0	0	0	0	588	500	0	0	0	0	
15	0	0	0	0	585	498	0	0	0	0	
0	0	0	0	0	581	495	0	0	0	0	
1	0	0	0	0	577	492	0	0	0	0	
2	0	0	0	0	572	488	0	0	0	0	
3	0	0	0	0	567	485	0	0	0	0	
4	0	0	0	0	561	482	0	0	0	0	
5	0	0	0	0	556	480	0	0	0	0	
6	0	0	0	0	551	479	0	0	0	0	
7	0	0	0	0	547	478	0	0	0	0	
8	0	0	0	0	543	478	0	0	0	0	
9	0	0	0	0	541	477	0	0	0	0	
10	0	0	0	0	539	477	0	0	0	0	
11	0	0	0	0	539	477	0	0	0	0	
12	0	0	0	0	539	477	0	0	0	0	
13	0	0	0	0	540	476	0	0	0	0	
14	0	0	0	0	543	475	0	0	0	0	
15	0	0	0	0	545	473	0	0	0	0	
0	0	0	0	0	549	472	0	0	0	0	
1	0	0	0	0	553	470	0	0	0	0	
2	0	0	0	0	556	469	0	0	0	0	
3	0	0	0	0	560	468	0	0	0	0	
4	0	0	0	0	561	468	0	0	0	0	
5	0	0	0	0	561	468	0	0	0	0	
6	0	0	0	0	561	468	0	0	0	0	
7	0	0	0	0	559	470	0	0	0	0	
8	0	0	0	0	558	472	0	0	0	0	
9	0	0	0	0	556	473	0	0	0	0	
10	0	0	0	0	555	476	0	0	0	0	
11	0	0	0	0	555	478	0	0	0	0	
12	0	0	0	0	556	480	0	0	0	0	
13	0	0	0	0	556	480	0	0	0	0	
14	0	0	0	0	556	479	0	0	0	0	
15	0	0	0	0	556	477	0	0	0	0	
0	0	0	0	0	554	474	0	0	0	0	
1	0	0	0	0	551	470	0	0	0	0	
2	0	0	0	0	547	463	0	0	0	0	
3	0	0	0	0	542	457	0	0	0	0	
4	0	0	0	0	536	451	0	0	0	0	
5	0	0	0	0	531	445	0	0	0	0	
6	0	0	0	0	525	440	0	0	0	0	
7	0	0	0	0	520	436	0	0	0	0	
8	0	0	0	0	516	433	0	0	0	0	
9	0	0	0	0	515	432	0	0	0	0	
10	0	0	0	0	514	432	0	0	0	0	
11	0	0	0	0	517	435	0	0	0	0	
12	0	0	0	0	520	439	0	0	0	0	
13	0	0	0	0	526	445	0	0	0	0	
14	0	0	0	0	532	452	0	0	0	0	
15	0	0	0	0	539	459	0	0	0	0	
0	0	0	0	0	546	465	0	0	0	0	
1	0	0	0	0	551	471	0	0	0	0	
2	0	0	0	0	556	475	0	0	0	0	
3	0	0	0	0	558	477	0	0	0	0	
4	0	0	0	0	558	477	0	0	0	0	
5	0	0	0	0	555	476	0	0	0	0	
6	0	0	0	0	551	473	0	0	0	0	
7	0	0	0	0	545	469	0	0	0	0	
8	0	0	0	0	536	463	0	0	0	0	
9	0	0	0	0	527	458	0	0	0	0	
10	0	0	0	0	519	453	0	0	0	0	
11	0	0	0	0	511	448	0	0	0	0	
12	0	0	0	0	505	444	0	0	0	0	
13	0	0	0	0	502	440	0	0	0	0	
14	0	0	0	0	502	440	0	0	0	0	
15	0	0	0	0	504	440	0	0	0	0	
0	0	0	0	0	509	443	0	0	0	0	
1	0	0	0	0	515	447	0	0	0	0	
2	0	0	0	0	524	451	0	0	0	0	
3	0	0	0	0	532	456	0	0	0	0	
4	0	0	0	0	540	460	0	0	0	0	
5	0	0	0	0	548	464	0	0	0	0	
6	0	0	0	0	554	467	0	0	0	0	
7	0	0	0	0	559	468	0	0	0	0	
8	0	0	0	0	561	469	0	0	0	0	
9	0	0	0	0	562	468	0	0	0	0	
10	0	0	0	0	560	467	0	0	0	0	
11	0	0	0	0	557	464	0	0	0	0	
12	0	0	0	0	552	461	0	0	0	0	
13	0	0	0	0	547	457	0	0	0	0	
