# OpenSignals Text File Format. Version 1
# {"": {"position": 0, "device": "", "device name": "", "device connection": "", "sampling rate": 1000, "resolution": [4, 1, 1, 1, 1, 10, 10, 10, 10, 6, 6], "firmware version": 1281, "comments": "", "keywords": "", "mode": 0, "sync interval": 2, "date": "", "time": "", "channels": [1, 2, 3, 4, 5, 6], "sensor": ["RAW", "RAW", "RAW", "RAW", "RAW", "RAW"], "label": ["A1", "A2", "A3", "A4", "A5", "A6"], "column": ["nSeq", "I1", "I2", "O1", "O2", "A1", "A2", "A3", "A4", "A5", "A6"], "special": [{}, {}, {}, {}, {}, {}], "digital IO": [0, 0, 1, 1], "convertedValues": 0}}
# EndOfHeader
0	0	0	0	0	561	480	0	0	0	0	
1	0	0	0	0	563	483	0	0	0	0	
2	0	0	0	0	565	485	0	0	0	0	
3	0	0	0	0	566	487	0	0	0	0	
4	0	0	0	0	567	487	0	0	0	0	
5	0	0	0	0	567	487	0	0	0	0	
6	0	0	0	0	566	486	0	0	0	0	
7	0	0	0	0	563	484	0	0	0	0	
8	0	0	0	0	561	482	0	0	0	0	
9	0	0	0	0	558	479	0	0	0	0	
10	0	0	0	0	555	476	0	0	0	0	
11	0	0	0	0	551	472	0	0	0	0	
12	0	0	0	0	548	469	0	0	0	0	
13	0	0	0	0	545	466	0	0	0	0	
14	0	0	0	0	543	463	0	0	0	0	
15	0	0	0	0	542	462	0	0	0	0	
0	0	0	0	0	541	461	0	0	0	0	
1	0	0	0	0	541	461	0	0	0	0	
2	0	0	0	0	542	462	0	0	0	0	
3	0	0	0	0	542	463	0	0	0	0	
4	0	0	0	0	543	463	0	0	0	0	
5	0	0	0	0	544	465	0	0	0	0	
6	0	0	0	0	545	465	0	0	0	0	
7	0	0	0	0	546	467	0	0	0	0	
8	0	0	0	0	547	467	0	0	0	0	
9	0	0	0	0	547	467	0	0	0	0	
10	0	0	0	0	547	467	0	0	0	0	
11	0	0	0	0	546	467	0	0	0	0	
12	0	0	0	0	545	466	0	0	0	0	
13	0	0	0	0	545	465	0	0	0	0	
14	0	0	0	0	544	463	0	0	0	0	
15	0	0	0	0	543	463	0	0	0	0	
0	0	0	0	0	543	462	0	0	0	0	
1	0	0	0	0	542	462	0	0	0	0	
2	0	0	0	0	542	462	0	0	0	0	
3	0	0	0	0	543	462	0	0	0	0	
4	0	0	0	0	543	464	0	0	0	0	
5	0	0	0	0	545	465	0	0	0	0	
6	0	0	0	0	546	468	0	0	0	0	
7	0	0	0	0	548	470	0	0	0	0	
8	0	0	0	0	550	472	0	0	0	0	
9	0	0	0	0	551	473	0	0	0	0	
10	0	0	0	0	551	475	0	0	0	0	
11	0	0	0	0	552	476	0	0	0	0	
12	0	0	0	0	552	475	0	0	0	0	
13	0	0	0	0	551	475	0	0	0	0	
14	0	0	0	0	550	473	0	0	0	0	
15	0	0	0	0	549	472	0	0	0	0	
0	0	0	0	0	547	470	0	0	0	0	
1	0	0	0	0	546	467	0	0	0	0	
2	0	0	0	0	544	465	0	0	0	0	
3	0	0	0	0	543	463	0	0	0	0	
4	0	0	0	0	542	461	0	0	0	0	
5	0	0	0	0	540	460	0	0	0	0	
6	0	0	0	0	540	459	0	0	0	0	
7	0	0	0	0	539	459	0	0	0	0	
8	0	0	0	0	539	460	0	0	0	0	
9	0	0	0	0	540	460	0	0	0	0	
10	0	0	0	0	540	462	0	0	0	0	
11	0	0	0	0	542	464	0	0	0	0	
12	0	0	0	0	543	466	0	0	0	0	
13	0	0	0	0	544	468	0	0	0	0	
14	0	0	0	0	546	471	0	0	0	0	
15	0	0	0	0	547	472	0	0	0	0	
0	0	0	0	0	548	473	0	0	0	0	
1	0	0	0	0	549	474	0	0	0	0	
2	0	0	0	0	549	473	0	0	0	0	
3	0	0	0	0	548	473	0	0	0	0	
4	0	0	0	0	547	472	0	0	0	0	
5	0	0	0	0	545	470	0	0	0	0	
6	0	0	0	0	543	468	0	0	0	0	
7	0	0	0	0	540	466	0	0	0	0	
8	0	0	0	0	539	464	0	0	0	0	
9	0	0	0	0	537	462	0	0	0	0	
10	0	0	0	0	536	460	0	0	0	0	
11	0	0	0	0	535	459	0	0	0	0	
12	0	0	0	0	535	459	0	0	0	0	
13	0	0	0	0	536	460	0	0	0	0	
14	0	0	0	0	538	462	0	0	0	0	
15	0	0	0	0	540	464	0	0	0	0	
0	0	0	0	0	543	466	0	0	0	0	
1	0	0	0	0	545	468	0	0	0	0	
2	0	0	0	0	547	470	0	0	0	0	
3	0	0	0	0	548	472	0	0	0	0	
4	0	0	0	0	549	472	0	0	0	0	
5	0	0	0	0	549	472	0	0	0	0	
6	0	0	0	0	548	471	0	0	0	0	
7	0	0	0	0	546	468	0	0	0	0	
8	0	0	0	0	544	466	0	0	0	0	
9	0	0	0	0	541	463	0	0	0	0	
10	0	0	0	0	538	460	0	0	0	0	
11	0	0	0	0	535	457	0	0	0	0	
12	0	0	0	0	532	455	0	0	0	0	
13	0	0	0	0	529	453	0	0	0	0	
14	0	0	0	0	527	451	0	0	0	0	
15	0	0	0	0	526	451	0	0	0	0	
0	0	0	0	0	525	451	0	0	0	0	
1	0	0	0	0	526	452	0	0	0	0	
2	0	0	0	0	526	453	0	0	0	0	
3	0	0	0	0	527	455	0	0	0	0	
4	0	0	0	0	528	457	0	0	0	0	
5	0	0	0	0	530	459	0	0	0	0	
6	0	0	0	0	531	460	0	0	0	0	
7	0	0	0	0	533	462	0	0	0	0	
8	0	0	0	0	535	463	0	0	0	0	
9	0	0	0	0	536	463	0	0	0	0	
10	0	0	0	0	536	463	0	0	0	0	
11	0	0	0	0	535	461	0	0	0	0	
12	0	0	0	0	534	459	0	0	0	0	
13	0	0	0	0	532	457	0	0	0	0	
14	0	0	0	0	530	454	0	0	0	0	
15	0	0	0	0	528	451	0	0	0	0	
0	0	0	0	0	526	449	0	0	0	0	
1	0	0	0	0	525	448	0	0	0	0	
2	0	0	0	0	524	447	0	0	0	0	
3	0	0	0	0	524	447	0	0	0	0	
4	0	0	0	0	526	448	0	0	0	0	
5	0	0	0	0	528	450	0	0	0	0	
6	0	0	0	0	531	452	0	0	0	0	
7	0	0	0	0	534	455	0	0	0	0	
8	0	0	0	0	537	458	0	0	0	0	
9	0	0	0	0	540	461	0	0	0	0	
10	0	0	0	0	542	462	0	0	0	0	
11	0	0	0	0	543	464	0	0	0	0	
12	0	0	0	0	545	465	0	0	0	0	
13	0	0	0	0	545	465	0	0	0	0	
14	0	0	0	0	544	465	0	0	0	0	
15	0	0	0	0	542	463	0	0	0	0	
0	0	0	0	0	539	461	0	0	0	0	
1	0	0	0	0	537	460	0	0	0	0	
2	0	0	0	0	535	457	0	0	0	0	
3	0	0	0	0	532	456	0	0	0	0	
4	0	0	0	0	531	454	0	0	0	0	
5	0	0	0	0	529	453	0	0	0	0	
6	0	0	0	0	529	452	0	0	0	0	
7	0	0	0	0	529	452	0	0	0	0	
8	0	0	0	0	530	453	0	0	0	0	
9	0	0	0	0	531	454	0	0	0	0	
10	0	0	0	0	533	456	0	0	0	0	
11	0	0	0	0	535	459	0	0	0	0	
12	0	0	0	0	537	460	0	0	0	0	
13	0	0	0	0	539	463	0	0	0	0	
14	0	0	0	0	542	465	0	0	0	0	
15	0	0	0	0	543	467	0	0	0	0	
0	0	0	0	0	545	469	0	0	0	0	
1	0	0	0	0	547	470	0	0	0	0	
2	0	0	0	0	547	470	0	0	0	0	
3	0	0	0	0	547	470	0	0	0	0	
4	0	0	0	0	546	468	0	0	0	0	
5	0	0	0	0	545	467	0	0	0	0	
6	0	0	0	0	544	465	0	0	0	0	
7	0	0	0	0	542	463	0	0	0	0	
8	0	0	0	0	540	461	0	0	0	0	
9	0	0	0	0	539	460	0	0	0	0	
10	0	0	0	0	537	458	0	0	0	0	
11	0	0	0	0	536	457	0	0	0	0	
12	0	0	0	0	535	457	0	0	0	0	
13	0	0	0	0	535	457	0	0	0	0	
14	0	0	0	0	535	459	0	0	0	0	
15	0	0	0	0	536	460	0	0	0	0	
0	0	0	0	0	537	462	0	0	0	0	
1	0	0	0	0	539	464	0	0	0	0	
2	0	0	0	0	541	466	0	0	0	0	
3	0	0	0	0	542	467	0	0	0	0	
4	0	0	0	0	543	468	0	0	0	0	
5	0	0	0	0	543	468	0	0	0	0	
6	0	0	0	0	543	468	0	0	0	0	
7	0	0	0	0	542	466	0	0	0	0	
8	0	0	0	0	540	464	0	0	0	0	
9	0	0	0	0	538	462	0	0	0	0	
10	0	0	0	0	536	459	0	0	0	0	
11	0	0	0	0	534	456	0	0	0	0	
12	0	0	0	0	532	455	0	0	0	0	
13	0	0	0	0	531	452	0	0	0	0	
14	0	0	0	0	530	451	0	0	0	0	
15	0	0	0	0	531	451	0	0	0	0	
0	0	0	0	0	531	452	0	0	0	0	
1	0	0	0	0	533	453	0	0	0	0	
2	0	0	0	0	535	455	0	0	0	0	
3	0	0	0	0	537	457	0	0	0	0	
4	0	0	0	0	540	460	0	0	0	0	
5	0	0	0	0	542	463	0	0	0	0	
6	0	0	0	0	544	465	0	0	0	0	
7	0	0	0	0	545	467	0	0	0	0	
8	0	0	0	0	546	468	0	0	0	0	
9	0	0	0	0	547	470	0	0	0	0	
10	0	0	0	0	546	470	0	0	0	0	
11	0	0	0	0	545	470	0	0	0	0	
12	0	0	0	0	544	469	0	0	0	0	
13	0	0	0	0	542	468	0	0	0	0	
14	0	0	0	0	541	466	0	0	0	0	
15	0	0	0	0	540	465	0	0	0	0	
0	0	0	0	0	538	463	0	0	0	0	
1	0	0	0	0	537	462	0	0	0	0	
2	0	0	0	0	536	460	0	0	0	0	
3	0	0	0	0	536	460	0	0	0	0	
4	0	0	0	0	537	460	0	0	0	0	
5	0	0	0	0	539	460	0	0	0	0	
6	0	0	0	0	541	462	0	0	0	0	
7	0	0	0	0	543	463	0	0	0	0	
8	0	0	0	0	545	465	0	0	0	0	
9	0	0	0	0	548	467	0	0	0	0	
10	0	0	0	0	550	469	0	0	0	0	
11	0	0	0	0	552	471	0	0	0	0	
12	0	0	0	0	553	472	0	0	0	0	
13	0	0	0	0	554	473	0	0	0	0	
14	0	0	0	0	554	474	0	0	0	0	
15	0	0	0	0	554	474	0	0	0	0	
0	0	0	0	0	553	473	0	0	0	0	
1	0	0	0	0	551	472	0	0	0	0	
2	0	0	0	0	551	471	0	0	0	0	
3	0	0	0	0	549	470	0	0	0	0	
4	0	0	0	0	548	469	0	0	0	0	
5	0	0	0	0	547	468	0	0	0	0	
6	0	0	0	0	546	467	0	0	0	0	
7	0	0	0	0	546	467	0	0	0	0	
8	0	0	0	0	546	467	0	0	0	0	
9	0	0	0	0	547	468	0	0	0	0	
10	0	0	0	0	547	470	0	0	0	0	
11	0	0	0	0	547	471	0	0	0	0	
12	0	0	0	0	548	472	0	0	0	0	
13	0	0	0	0	549	473	0	0	0	0	
14	0	0	0	0	548	474	0	0	0	0	
15	0	0	0	0	548	475	0	0	0	0	
0	0	0	0	0	548	475	0	0	0	0	
1	0	0	0	0	547	474	0	0	0	0	
2	0	0	0	0	545	473	0	0	0	0	
3	0	0	0	0	544	472	0	0	0	0	
4	0	0	0	0	542	469	0	0	0	0	
5	0	0	0	0	540	467	0	0	0	0	
6	0	0	0	0	537	463	0	0	0	0	
7	0	0	0	0	535	461	0	0	0	0	
8	0	0	0	0	534	458	0	0	0	0	
9	0	0	0	0	532	456	0	0	0	0	
10	0	0	0	0	532	455	0	0	0	0	
11	0	0	0	0	532	455	0	0	0	0	
12	0	0	0	0	533	455	0	0	0	0	
13	0	0	0	0	535	457	0	0	0	0	
14	0	0	0	0	538	460	0	0	0	0	
15	0	0	0	0	542	463	0	0	0	0	
0	0	0	0	0	546	467	0	0	0	0	
1	0	0	0	0	551	473	0	0	0	0	
2	0	0	0	0	555	478	0	0	0	0	
3	0	0	0	0	559	482	0	0	0	0	
4	0	0	0	0	563	487	0	0	0	0	
5	0	0	0	0	566	489	0	0	0	0	
6	0	0	0	0	568	492	0	0	0	0	
7	0	0	0	0	569	493	0	0	0	0	
8	0	0	0	0	569	493	0	0	0	0	
9	0	0	0	0	568	492	0	0	0	0	
10	0	0	0	0	567	491	0	0	0	0	
11	0	0	0	0	565	489	0	0	0	0	
12	0	0	0	0	563	487	0	0	0	0	
13	0	0	0	0	560	485	0	0	0	0	
14	0	0	0	0	558	483	0	0	0	0	
15	0	0	0	0	556	481	0	0	0	0	
0	0	0	0	0	554	479	0	0	0	0	
1	0	0	0	0	553	478	0	0	0	0	
2	0	0	0	0	552	477	0	0	0	0	
3	0	0	0	0	552	476	0	0	0	0	
4	0	0	0	0	552	476	0	0	0	0	
5	0	0	0	0	553	476	0	0	0	0	
6	0	0	0	0	553	476	0	0	0	0	
7	0	0	0	0	553	476	0	0	0	0	
8	0	0	0	0	552	475	0	0	0	0	
9	0	0	0	0	552	475	0	0	0	0	
10	0	0	0	0	551	475	0	0	0	0	
11	0	0	0	0	550	474	0	0	0	0	
12	0	0	0	0	548	473	0	0	0	0	
13	0	0	0	0	546	472	0	0	0	0	
14	0	0	0	0	545	470	0	0	0	0	
15	0	0	0	0	543	469	0	0	0	0	
0	0	0	0	0	543	468	0	0	0	0	
1	0	0	0	0	542	467	0	0	0	0	
2	0	0	0	0	541	467	0	0	0	0	
3	0	0	0	0	542	467	0	0	0	0	
4	0	0	0	0	542	468	0	0	0	0	
5	0	0	0	0	543	469	0	0	0	0	
6	0	0	0	0	545	471	0	0	0	0	
7	0	0	0	0	547	473	0	0	0	0	
8	0	0	0	0	549	474	0	0	0	0	
9	0	0	0	0	550	476	0	0	0	0	
10	0	0	0	0	551	476	0	0	0	0	
11	0	0	0	0	551	477	0	0	0	0	
12	0	0	0	0	552	478	0	0	0	0	
13	0	0	0	0	552	477	0	0	0	0	
14	0	0	0	0	551	476	0	0	0	0	
15	0	0	0	0	549	474	0	0	0	0	
0	0	0	0	0	547	472	0	0	0	0	
1	0	0	0	0	544	471	0	0	0	0	
2	0	0	0	0	542	467	0	0	0	0	
3	0	0	0	0	540	465	0	0	0	0	
4	0	0	0	0	538	464	0	0	0	0	
5	0	0	0	0	536	462	0	0	0	0	
6	0	0	0	0	536	461	0	0	0	0	
7	0	0	0	0	535	461	0	0	0	0	
8	0	0	0	0	536	461	0	0	0	0	
9	0	0	0	0	536	463	0	0	0	0	
10	0	0	0	0	538	464	0	0	0	0	
11	0	0	0	0	540	465	0	0	0	0	
12	0	0	0	0	542	467	0	0	0	0	
13	0	0	0	0	544	470	0	0	0	0	
14	0	0	0	0	546	472	0	0	0	0	
15	0	0	0	0	548	473	0	0	0	0	
0	0	0	0	0	550	475	0	0	0	0	
1	0	0	0	0	550	476	0	0	0	0	
2	0	0	0	0	551	477	0	0	0	0	
3	0	0	0	0	551	477	0	0	0	0	
4	0	0	0	0	551	476	0	0	0	0	
5	0	0	0	0	550	475	0	0	0	0	
6	0	0	0	0	548	472	0	0	0	0	
7	0	0	0	0	546	471	0	0	0	0	
8	0	0	0	0	544	468	0	0	0	0	
9	0	0	0	0	542	465	0	0	0	0	
10	0	0	0	0	540	464	0	0	0	0	
11	0	0	0	0	537	462	0	0	0	0	
12	0	0	0	0	536	461	0	0	0	0	
13	0	0	0	0	534	460	0	0	0	0	
14	0	0	0	0	533	461	0	0	0	0	
15	0	0	0	0	532	461	0	0	0	0	
0	0	0	0	0	532	462	0	0	0	0	
1	0	0	0	0	532	463	0	0	0	0	
2	0	0	0	0	532	464	0	0	0	0	
3	0	0	0	0	532	466	0	0	0	0	
4	0	0	0	0	533	467	0	0	0	0	
5	0	0	0	0	534	467	0	0	0	0	
6	0	0	0	0	534	468	0	0	0	0	
7	0	0	0	0	535	468	0	0	0	0	
8	0	0	0	0	535	468	0	0	0	0	
9	0	0	0	0	536	467	0	0	0	0	
10	0	0	0	0	537	467	0	0	0	0	
11	0	0	0	0	537	468	0	0	0	0	
12	0	0	0	0	539	468	0	0	0	0	
13	0	0	0	0	540	469	0	0	0	0	
14	0	0	0	0	542	471	0	0	0	0	
15	0	0	0	0	544	472	0	0	0	0	
0	0	0	0	0	547	473	0	0	0	0	
1	0	0	0	0	549	475	0	0	0	0	
2	0	0	0	0	551	477	0	0	0	0	
3	0	0	0	0	553	479	0	0	0	0	
4	0	0	0	0	555	481	0	0	0	0	
5	0	0	0	0	556	483	0	0	0	0	
6	0	0	0	0	557	484	0	0	0	0	
7	0	0	0	0	556	484	0	0	0	0	
8	0	0	0	0	556	484	0	0	0	0	
9	0	0	0	0	555	484	0	0	0	0	
10	0	0	0	0	553	483	0	0	0	0	
11	0	0	0	0	551	481	0	0	0	0	
12	0	0	0	0	549	480	0	0	0	0	
13	0	0	0	0	547	478	0	0	0	0	
14	0	0	0	0	545	476	0	0	0	0	
15	0	0	0	0	543	474	0	0	0	0	
0	0	0	0	0	543	473	0	0	0	0	
1	0	0	0	0	543	472	0	0	0	0	
2	0	0	0	0	543	472	0	0	0	0	
3	0	0	0	0	545	473	0	0	0	0	
4	0	0	0	0	547	476	0	0	0	0	
5	0	0	0	0	550	478	0	0	0	0	
6	0	0	0	0	555	481	0	0	0	0	
7	0	0	0	0	559	485	0	0	0	0	
8	0	0	0	0	563	488	0	0	0	0	
9	0	0	0	0	567	492	0	0	0	0	
10	0	0	0	0	571	496	0	0	0	0	
11	0	0	0	0	574	499	0	0	0	0	
12	0	0	0	0	575	500	0	0	0	0	
13	0	0	0	0	575	500	0	0	0	0	
14	0	0	0	0	574	499	0	0	0	0	
15	0	0	0	0	571	497	0	0	0	0	
0	0	0	0	0	568	495	0	0	0	0	
1	0	0	0	0	564	491	0	0	0	0	
2	0	0	0	0	560	487	0	0	0	0	
3	0	0	0	0	555	483	0	0	0	0	
4	0	0	0	0	551	480	0	0	0	0	
5	0	0	0	0	548	478	0	0	0	0	
6	0	0	0	0	546	475	0	0	0	0	
7	0	0	0	0	545	475	0	0	0	0	
8	0	0	0	0	545	475	0	0	0	0	
9	0	0	0	0	546	476	0	0	0	0	
10	0	0	0	0	548	477	0	0	0	0	
11	0	0	0	0	550	479	0	0	0	0	
12	0	0	0	0	552	481	0	0	0	0	
13	0	0	0	0	555	484	0	0	0	0	
14	0	0	0	0	557	486	0	0	0	0	
15	0	0	0	0	559	487	0	0	0	0	
0	0	0	0	0	560	488	0	0	0	0	
1	0	0	0	0	561	489	0	0	0	0	
2	0	0	0	0	561	488	0	0	0	0	
3	0	0	0	0	560	487	0	0	0	0	
4	0	0	0	0	558	485	0	0	0	0	
5	0	0	0	0	556	482	0	0	0	0	
6	0	0	0	0	553	478	0	0	0	0	
7	0	0	0	0	550	476	0	0	0	0	
8	0	0	0	0	547	473	0	0	0	0	
9	0	0	0	0	545	470	0	0	0	0	
10	0	0	0	0	543	469	0	0	0	0	
11	0	0	0	0	543	468	0	0	0	0	
12	0	0	0	0	543	469	0	0	0	0	
13	0	0	0	0	544	471	0	0	0	0	
14	0	0	0	0	546	473	0	0	0	0	
15	0	0	0	0	549	476	0	0	0	0	
0	0	0	0	0	552	479	0	0	0	0	
1	0	0	0	0	555	481	0	0	0	0	
2	0	0	0	0	558	484	0	0	0	0	
3	0	0	0	0	561	487	0	0	0	0	
4	0	0	0	0	562	488	0	0	0	0	
5	0	0	0	0	563	489	0	0	0	0	
6	0	0	0	0	563	489	0	0	0	0	
7	0	0	0	0	562	488	0	0	0	0	
8	0	0	0	0	561	487	0	0	0	0	
9	0	0	0	0	558	485	0	0	0	0	
10	0	0	0	0	556	483	0	0	0	0	
11	0	0	0	0	553	481	0	0	0	0	
12	0	0	0	0	551	480	0	0	0	0	
13	0	0	0	0	550	479	0	0	0	0	
14	0	0	0	0	549	480	0	0	0	0	
15	0	0	0	0	548	479	0	0	0	0	
0	0	0	0	0	548	480	0	0	0	0	
1	0	0	0	0	549	481	0	0	0	0	
2	0	0	0	0	550	481	0	0	0	0	
3	0	0	0	0	550	482	0	0	0	0	
4	0	0	0	0	551	482	0	0	0	0	
5	0	0	0	0	551	483	0	0	0	0	
6	0	0	0	0	552	483	0	0	0	0	
7	0	0	0	0	551	483	0	0	0	0	
8	0	0	0	0	551	483	0	0	0	0	
9	0	0	0	0	551	483	0	0	0	0	
10	0	0	0	0	550	482	0	0	0	0	
11	0	0	0	0	548	481	0	0	0	0	
12	0	0	0	0	547	480	0	0	0	0	
13	0	0	0	0	545	478	0	0	0	0	
14	0	0	0	0	543	476	0	0	0	0	
15	0	0	0	0	541	475	0	0	0	0	
0	0	0	0	0	540	475	0	0	0	0	
1	0	0	0	0	539	474	0	0	0	0	
2	0	0	0	0	539	475	0	0	0	0	
3	0	0	0	0	540	476	0	0	0	0	
4	0	0	0	0	543	479	0	0	0	0	
5	0	0	0	0	546	483	0	0	0	0	
6	0	0	0	0	550	487	0	0	0	0	
7	0	0	0	0	555	492	0	0	0	0	
8	0	0	0	0	560	498	0	0	0	0	
9	0	0	0	0	566	504	0	0	0	0	
10	0	0	0	0	571	509	0	0	0	0	
11	0	0	0	0	575	513	0	0	0	0	
12	0	0	0	0	579	517	0	0	0	0	
13	0	0	0	0	581	519	0	0	0	0	
14	0	0	0	0	583	520	0	0	0	0	
15	0	0	0	0	583	520	0	0	0	0	
0	0	0	0	0	581	519	0	0	0	0	
1	0	0	0	0	579	516	0	0	0	0	
2	0	0	0	0	576	513	0	0	0	0	
3	0	0	0	0	573	510	0	0	0	0	
4	0	0	0	0	569	505	0	0	0	0	
5	0	0	0	0	565	502	0	0	0	0	
6	0	0	0	0	563	499	0	0	0	0	
7	0	0	0	0	561	497	0	0	0	0	
8	0	0	0	0	560	496	0	0	0	0	
9	0	0	0	0	560	496	0	0	0	0	
10	0	0	0	0	561	496	0	0	0	0	
11	0	0	0	0	563	497	0	0	0	0	
12	0	0	0	0	564	499	0	0	0	0	
13	0	0	0	0	567	501	0	0	0	0	
14	0	0	0	0	568	503	0	0	0	0	
15	0	0	0	0	568	504	0	0	0	0	
0	0	0	0	0	569	504	0	0	0	0	
1	0	0	0	0	568	505	0	0	0	0	
2	0	0	0	0	567	504	0	0	0	0	
3	0	0	0	0	564	503	0	0	0	0	
4	0	0	0	0	562	500	0	0	0	0	
5	0	0	0	0	559	498	0	0	0	0	
6	0	0	0	0	556	495	0	0	0	0	
7	0	0	0	0	553	492	0	0	0	0	
8	0	0	0	0	550	489	0	0	0	0	
9	0	0	0	0	547	487	0	0	0	0	
10	0	0	0	0	545	484	0	0	0	0	
11	0	0	0	0	544	483	0	0	0	0	
12	0	0	0	0	543	481	0	0	0	0	
13	0	0	0	0	543	481	0	0	0	0	
14	0	0	0	0	543	481	0	0	0	0	
15	0	0	0	0	543	481	0	0	0	0	
0	0	0	0	0	543	481	0	0	0	0	
1	0	0	0	0	543	480	0	0	0	0	
2	0	0	0	0	543	480	0	0	0	0	
3	0	0	0	0	542	479	0	0	0	0	
4	0	0	0	0	541	478	0	0	0	0	
5	0	0	0	0	540	476	0	0	0	0	
6	0	0	0	0	538	474	0	0	0	0	
7	0	0	0	0	536	472	0	0	0	0	
8	0	0	0	0	535	469	0	0	0	0	
9	0	0	0	0	532	467	0	0	0	0	
10	0	0	0	0	530	463	0	0	0	0	
11	0	0	0	0	528	461	0	0	0	0	
12	0	0	0	0	527	460	0	0	0	0	
13	0	0	0	0	527	459	0	0	0	0	
14	0	0	0	0	527	458	0	0	0	0	
15	0	0	0	0	528	459	0	0	0	0	
0	0	0	0	0	530	460	0	0	0	0	
1	0	0	0	0	532	463	0	0	0	0	
2	0	0	0	0	535	466	0	0	0	0	
3	0	0	0	0	538	470	0	0	0	0	
4	0	0	0	0	541	474	0	0	0	0	
5	0	0	0	0	544	478	0	0	0	0	
6	0	0	0	0	547	482	0	0	0	0	
7	0	0	0	0	550	486	0	0	0	0	
8	0	0	0	0	551	488	0	0	0	0	
9	0	0	0	0	551	489	0	0	0	0	
10	0	0	0	0	551	489	0	0	0	0	
11	0	0	0	0	548	487	0	0	0	0	
12	0	0	0	0	545	484	0	0	0	0	
13	0	0	0	0	541	480	0	0	0	0	
14	0	0	0	0	536	474	0	0	0	0	
15	0	0	0	0	531	469	0	0	0	0	
0	0	0	0	0	526	464	0	0	0	0	
1	0	0	0	0	521	460	0	0	0	0	
2	0	0	0	0	517	456	0	0	0	0	
3	0	0	0	0	514	453	0	0	0	0	
4	0	0	0	0	514	452	0	0	0	0	
5	0	0	0	0	514	453	0	0	0	0	
6	0	0	0	0	516	455	0	0	0	0	
7	0	0	0	0	519	459	0	0	0	0	
8	0	0	0	0	524	463	0	0	0	0	
9	0	0	0	0	530	469	0	0	0	0	
10	0	0	0	0	536	475	0	0	0	0	
11	0	0	0	0	544	481	0	0	0	0	
12	0	0	0	0	551	488	0	0	0	0	
13	0	0	0	0	559	495	0	0	0	0	
14	0	0	0	0	566	501	0	0	0	0	
15	0	0	0	0	572	507	0	0	0	0	
0	0	0	0	0	578	512	0	0	0	0	
1	0	0	0	0	583	516	0	0	0	0	
2	0	0	0	0	587	520	0	0	0	0	
3	0	0	0	0	590	524	0	0	0	0	
4	0	0	0	0	593	527	0	0	0	0	
5	0	0	0	0	595	531	0	0	0	0	
6	0	0	0	0	596	533	0	0	0	0	
7	0	0	0	0	597	534	0	0	0	0	
8	0	0	0	0	598	536	0	0	0	0	
9	0	0	0	0	598	536	0	0	0	0	
10	0	0	0	0	596	536	0	0	0	0	
11	0	0	0	0	595	535	0	0	0	0	
12	0	0	0	0	592	533	0	0	0	0	
13	0	0	0	0	590	531	0	0	0	0	
14	0	0	0	0	585	527	0	0	0	0	
15	0	0	0	0	581	524	0	0	0	0	
0	0	0	0	0	577	519	0	0	0	0	
1	0	0	0	0	572	515	0	0	0	0	
2	0	0	0	0	566	510	0	0	0	0	
3	0	0	0	0	561	505	0	0	0	0	
4	0	0	0	0	557	500	0	0	0	0	
5	0	0	0	0	553	495	0	0	0	0	
6	0	0	0	0	549	491	0	0	0	0	
7	0	0	0	0	547	488	0	0	0	0	
8	0	0	0	0	544	485	0	0	0	0	
9	0	0	0	0	543	483	0	0	0	0	
10	0	0	0	0	542	482	0	0	0	0	
11	0	0	0	0	543	482	0	0	0	0	
12	0	0	0	0	543	483	0	0	0	0	
13	0	0	0	0	545	484	0	0	0	0	
14	0	0	0	0	547	487	0	0	0	0	
15	0	0	0	0	550	489	0	0	0	0	
0	0	0	0	0	553	492	0	0	0	0	
1	0	0	0	0	555	495	0	0	0	0	
2	0	0	0	0	558	498	0	0	0	0	
3	0	0	0	0	559	500	0	0	0	0	
4	0	0	0	0	560	502	0	0	0	0	
5	0	0	0	0	562	504	0	0	0	0	
6	0	0	0	0	563	505	0	0	0	0	
7	0	0	0	0	564	507	0	0	0	0	
8	0	0	0	0	565	508	0	0	0	0	
9	0	0	0	0	566	509	0	0	0	0	
10	0	0	0	0	566	509	0	0	0	0	
11	0	0	0	0	567	509	0	0	0	0	
12	0	0	0	0	566	508	0	0	0	0	
13	0	0	0	0	565	507	0	0	0	0	
14	0	0	0	0	563	505	0	0	0	0	
15	0	0	0	0	562	503	0	0	0	0	
0	0	0	0	0	560	501	0	0	0	0	
1	0	0	0	0	558	499	0	0	0	0	
2	0	0	0	0	556	497	0	0	0	0	
3	0	0	0	0	553	496	0	0	0	0	
4	0	0	0	0	552	495	0	0	0	0	
5	0	0	0	0	551	494	0	0	0	0	
6	0	0	0	0	549	494	0	0	0	0	
7	0	0	0	0	547	493	0	0	0	0	
8	0	0	0	0	546	492	0	0	0	0	
9	0	0	0	0	543	490	0	0	0	0	
10	0	0	0	0	541	489	0	0	0	0	
11	0	0	0	0	539	487	0	0	0	0	
12	0	0	0	0	536	485	0	0	0	0	
13	0	0	0	0	533	483	0	0	0	0	
14	0	0	0	0	531	482	0	0	0	0	
15	0	0	0	0	530	481	0	0	0	0	
0	0	0	0	0	528	480	0	0	0	0	
1	0	0	0	0	527	478	0	0	0	0	
2	0	0	0	0	527	478	0	0	0	0	
3	0	0	0	0	527	476	0	0	0	0	
4	0	0	0	0	527	477	0	0	0	0	
5	0	0	0	0	529	477	0	0	0	0	
6	0	0	0	0	531	479	0	0	0	0	
7	0	0	0	0	533	480	0	0	0	0	
8	0	0	0	0	535	481	0	0	0	0	
9	0	0	0	0	536	481	0	0	0	0	
10	0	0	0	0	537	480	0	0	0	0	
11	0	0	0	0	535	478	0	0	0	0	
12	0	0	0	0	531	474	0	0	0	0	
13	0	0	0	0	525	468	0	0	0	0	
14	0	0	0	0	515	460	0	0	0	0	
15	0	0	0	0	504	449	0	0	0	0	
0	0	0	0	0	489	436	0	0	0	0	
1	0	0	0	0	473	421	0	0	0	0	
2	0	0	0	0	455	405	0	0	0	0	
3	0	0	0	0	436	388	0	0	0	0	
4	0	0	0	0	418	372	0	0	0	0	
5	0	0	0	0	400	356	0	0	0	0	
6	0	0	0	0	384	341	0	0	0	0	
7	0	0	0	0	369	327	0	0	0	0	
8	0	0	0	0	356	315	0	0	0	0	
9	0	0	0	0	345	303	0	0	0	0	
10	0	0	0	0	337	295	0	0	0	0	
11	0	0	0	0	332	288	0	0	0	0	
12	0	0	0	0	329	285	0	0	0	0	
13	0	0	0	0	331	284	0	0	0	0	
14	0	0	0	0	335	287	0	0	0	0	
15	0	0	0	0	343	294	0	0	0	0	
0	0	0	0	0	354	304	0	0	0	0	
1	0	0	0	0	369	316	0	0	0	0	
2	0	0	0	0	386	331	0	0	0	0	
3	0	0	0	0	404	347	0	0	0	0	
4	0	0	0	0	425	366	0	0	0	0	
5	0	0	0	0	446	385	0	0	0	0	
6	0	0	0	0	467	404	0	0	0	0	
7	0	0	0	0	488	424	0	0	0	0	
8	0	0	0	0	509	443	0	0	0	0	
9	0	0	0	0	528	462	0	0	0	0	
10	0	0	0	0	546	479	0	0	0	0	
11	0	0	0	0	562	494	0	0	0	0	
12	0	0	0	0	575	508	0	0	0	0	
13	0	0	0	0	586	519	0	0	0	0	
14	0	0	0	0	593	529	0	0	0	0	
15	0	0	0	0	599	536	0	0	0	0	
0	0	0	0	0	600	540	0	0	0	0	
1	0	0	0	0	600	542	0	0	0	0	
2	0	0	0	0	598	542	0	0	0	0	
3	0	0	0	0	593	541	0	0	0	0	
4	0	0	0	0	588	537	0	0	0	0	
5	0	0	0	0	582	534	0	0	0	0	
6	0	0	0	0	576	529	0	0	0	0	
7	0	0	0	0	570	524	0	0	0	0	
8	0	0	0	0	565	520	0	0	0	0	
9	0	0	0	0	561	517	0	0	0	0	
10	0	0	0	0	560	514	0	0	0	0	
11	0	0	0	0	560	514	0	0	0	0	
12	0	0	0	0	561	515	0	0	0	0	
13	0	0	0	0	565	517	0	0	0	0	
14	0	0	0	0	569	520	0	0	0	0	
15	0	0	0	0	575	524	0	0	0	0	
0	0	0	0	0	580	528	0	0	0	0	
1	0	0	0	0	586	532	0	0	0	0	
2	0	0	0	0	591	536	0	0	0	0	
3	0	0	0	0	594	540	0	0	0	0	
4	0	0	0	0	596	542	0	0	0	0	
5	0	0	0	0	598	543	0	0	0	0	
6	0	0	0	0	598	545	0	0	0	0	
7	0	0	0	0	598	545	0	0	0	0	
8	0	0	0	0	597	545	0	0	0	0	
9	0	0	0	0	596	546	0	0	0	0	
10	0	0	0	0	596	546	0	0	0	0	
11	0	0	0	0	596	547	0	0	0	0	
12	0	0	0	0	598	550	0	0	0	0	
13	0	0	0	0	600	551	0	0	0	0	
14	0	0	0	0	602	554	0	0	0	0	
15	0	0	0	0	605	557	0	0	0	0	
0	0	0	0	0	608	560	0	0	0	0	
1	0	0	0	0	611	563	0	0	0	0	
2	0	0	0	0	615	566	0	0	0	0	
3	0	0	0	0	618	568	0	0	0	0	
4	0	0	0	0	620	570	0	0	0	0	
5	0	0	0	0	621	571	0	0	0	0	
6	0	0	0	0	620	572	0	0	0	0	
7	0	0	0	0	619	571	0	0	0	0	
8	0	0	0	0	616	568	0	0	0	0	
9	0	0	0	0	611	565	0	0	0	0	
10	0	0	0	0	607	561	0	0	0	0	
11	0	0	0	0	601	557	0	0	0	0	
12	0	0	0	0	596	554	0	0	0	0	
13	0	0	0	0	591	550	0	0	0	0	
14	0	0	0	0	588	547	0	0	0	0	
15	0	0	0	0	585	544	0	0	0	0	
0	0	0	0	0	583	543	0	0	0	0	
1	0	0	0	0	582	541	0	0	0	0	
2	0	0	0	0	581	539	0	0	0	0	
3	0	0	0	0	581	538	0	0	0	0	
4	0	0	0	0	580	536	0	0	0	0	
5	0	0	0	0	580	535	0	0	0	0	
6	0	0	0	0	580	534	0	0	0	0	
7	0	0	0	0	581	533	0	0	0	0	
8	0	0	0	0	581	533	0	0	0	0	
9	0	0	0	0	582	533	0	0	0	0	
10	0	0	0	0	583	535	0	0	0	0	
11	0	0	0	0	584	536	0	0	0	0	
12	0	0	0	0	586	538	0	0	0	0	
13	0	0	0	0	587	540	0	0	0	0	
14	0	0	0	0	587	541	0	0	0	0	
15	0	0	0	0	587	542	0	0	0	0	
0	0	0	0	0	585	541	0	0	0	0	
1	0	0	0	0	583	540	0	0	0	0	
2	0	0	0	0	579	537	0	0	0	0	
3	0	0	0	0	575	534	0	0	0	0	
4	0	0	0	0	571	530	0	0	0	0	
5	0	0	0	0	567	526	0	0	0	0	
6	0	0	0	0	562	521	0	0	0	0	
7	0	0	0	0	559	518	0	0	0	0	
8	0	0	0	0	557	515	0	0	0	0	
9	0	0	0	0	556	513	0	0	0	0	
10	0	0	0	0	556	512	0	0	0	0	
11	0	0	0	0	558	512	0	0	0	0	
12	0	0	0	0	561	514	0	0	0	0	
13	0	0	0	0	565	516	0	0	0	0	
14	0	0	0	0	570	520	0	0	0	0	
15	0	0	0	0	575	524	0	0	0	0	
0	0	0	0	0	581	530	0	0	0	0	
1	0	0	0	0	587	536	0	0	0	0	
2	0	0	0	0	593	542	0	0	0	0	
3	0	0	0	0	599	549	0	0	0	0	
4	0	0	0	0	604	556	0	0	0	0	
5	0	0	0	0	610	561	0	0	0	0	
6	0	0	0	0	614	566	0	0	0	0	
7	0	0	0	0	617	569	0	0	0	0	
8	0	0	0	0	618	571	0	0	0	0	
9	0	0	0	0	618	570	0	0	0	0	
10	0	0	0	0	616	568	0	0	0	0	
11	0	0	0	0	613	565	0	0	0	0	
12	0	0	0	0	608	560	0	0	0	0	
13	0	0	0	0	603	555	0	0	0	0	
14	0	0	0	0	597	550	0	0	0	0	
15	0	0	0	0	591	543	0	0	0	0	
0	0	0	0	0	584	538	0	0	0	0	
1	0	0	0	0	579	534	0	0	0	0	
2	0	0	0	0	574	529	0	0	0	0	
3	0	0	0	0	570	526	0	0	0	0	
4	0	0	0	0	567	524	0	0	0	0	
5	0	0	0	0	565	523	0	0	0	0	
6	0	0	0	0	564	523	0	0	0	0	
7	0	0	0	0	564	523	0	0	0	0	
8	0	0	0	0	565	523	0	0	0	0	
9	0	0	0	0	566	523	0	0	0	0	
10	0	0	0	0	567	523	0	0	0	0	
11	0	0	0	0	568	524	0	0	0	0	
12	0	0	0	0	571	525	0	0	0	0	
13	0	0	0	0	573	527	0	0	0	0	
14	0	0	0	0	576	528	0	0	0	0	
15	0	0	0	0	579	530	0	0	0	0	
0	0	0	0	0	583	533	0	0	0	0	
1	0	0	0	0	587	536	0	0	0	0	
2	0	0	0	0	591	540	0	0	0	0	
3	0	0	0	0	596	545	0	0	0	0	
4	0	0	0	0	600	550	0	0	0	0	
5	0	0	0	0	604	554	0	0	0	0	
6	0	0	0	0	608	558	0	0	0	0	
7	0	0	0	0	610	560	0	0	0	0	
8	0	0	0	0	611	562	0	0	0	0	
9	0	0	0	0	611	563	0	0	0	0	
10	0	0	0	0	609	563	0	0	0	0	
11	0	0	0	0	607	561	0	0	0	0	
12	0	0	0	0	605	560	0	0	0	0	
13	0	0	0	0	602	557	0	0	0	0	
14	0	0	0	0	599	555	0	0	0	0	
15	0	0	0	0	595	551	0	0	0	0	
0	0	0	0	0	592	547	0	0	0	0	
1	0	0	0	0	588	543	0	0	0	0	
2	0	0	0	0	585	539	0	0	0	0	
3	0	0	0	0	582	535	0	0	0	0	
4	0	0	0	0	579	531	0	0	0	0	
5	0	0	0	0	575	527	0	0	0	0	
6	0	0	0	0	573	523	0	0	0	0	
7	0	0	0	0	571	520	0	0	0	0	
8	0	0	0	0	569	518	0	0	0	0	
9	0	0	0	0	570	517	0	0	0	0	
10	0	0	0	0	570	516	0	0	0	0	
11	0	0	0	0	572	517	0	0	0	0	
12	0	0	0	0	574	518	0	0	0	0	
13	0	0	0	0	576	519	0	0	0	0	
14	0	0	0	0	579	521	0	0	0	0	
15	0	0	0	0	582	523	0	0	0	0	
0	0	0	0	0	584	525	0	0	0	0	
1	0	0	0	0	586	526	0	0	0	0	
2	0	0	0	0	587	527	0	0	0	0	
3	0	0	0	0	586	527	0	0	0	0	
4	0	0	0	0	584	527	0	0	0	0	
5	0	0	0	0	583	526	0	0	0	0	
6	0	0	0	0	579	524	0	0	0	0	
7	0	0	0	0	575	522	0	0	0	0	
8	0	0	0	0	570	519	0	0	0	0	
9	0	0	0	0	565	516	0	0	0	0	
10	0	0	0	0	561	513	0	0	0	0	
11	0	0	0	0	558	512	0	0	0	0	
12	0	0	0	0	556	511	0	0	0	0	
13	0	0	0	0	556	512	0	0	0	0	
14	0	0	0	0	557	514	0	0	0	0	
15	0	0	0	0	560	517	0	0	0	0	
0	0	0	0	0	564	521	0	0	0	0	
1	0	0	0	0	569	526	0	0	0	0	
2	0	0	0	0	575	530	0	0	0	0	
3	0	0	0	0	580	534	0	0	0	0	
4	0	0	0	0	586	537	0	0	0	0	
5	0	0	0	0	590	540	0	0	0	0	
6	0	0	0	0	592	542	0	0	0	0	
7	0	0	0	0	594	542	0	0	0	0	
8	0	0	0	0	594	541	0	0	0	0	
9	0	0	0	0	594	540	0	0	0	0	
10	0	0	0	0	592	537	0	0	0	0	
11	0	0	0	0	590	535	0	0	0	0	
12	0	0	0	0	587	533	0	0	0	0	
13	0	0	0	0	585	532	0	0	0	0	
14	0	0	0	0	584	530	0	0	0	0	
15	0	0	0	0	583	530	0	0	0	0	
0	0	0	0	0	583	529	0	0	0	0	
1	0	0	0	0	583	530	0	0	0	0	
2	0	0	0	0	583	530	0	0	0	0	
3	0	0	0	0	585	531	0	0	0	0	
4	0	0	0	0	585	531	0	0	0	0	
5	0	0	0	0	586	532	0	0	0	0	
6	0	0	0	0	585	531	0	0	0	0	
7	0	0	0	0	583	529	0	0	0	0	
8	0	0	0	0	581	527	0	0	0	0	
9	0	0	0	0	578	524	0	0	0	0	
10	0	0	0	0	574	520	0	0	0	0	
11	0	0	0	0	571	517	0	0	0	0	
12	0	0	0	0	568	515	0	0	0	0	
13	0	0	0	0	565	513	0	0	0	0	
14	0	0	0	0	564	512	0	0	0	0	
15	0	0	0	0	565	513	0	0	0	0	
0	0	0	0	0	567	515	0	0	0	0	
1	0	0	0	0	570	518	0	0	0	0	
2	0	0	0	0	575	522	0	0	0	0	
3	0	0	0	0	580	526	0	0	0	0	
4	0	0	0	0	585	531	0	0	0	0	
5	0	0	0	0	591	536	0	0	0	0	
6	0	0	0	0	597	540	0	0	0	0	
7	0	0	0	0	602	544	0	0	0	0	
8	0	0	0	0	606	548	0	0	0	0	
9	0	0	0	0	609	551	0	0	0	0	
10	0	0	0	0	610	552	0	0	0	0	
11	0	0	0	0	611	552	0	0	0	0	
12	0	0	0	0	609	551	0	0	0	0	
13	0	0	0	0	606	548	0	0	0	0	
14	0	0	0	0	601	544	0	0	0	0	
15	0	0	0	0	596	540	0	0	0	0	
0	0	0	0	0	590	534	0	0	0	0	
1	0	0	0	0	583	527	0	0	0	0	
2	0	0	0	0	577	521	0	0	0	0	
3	0	0	0	0	571	515	0	0	0	0	
4	0	0	0	0	565	510	0	0	0	0	
5	0	0	0	0	560	505	0	0	0	0	
6	0	0	0	0	557	500	0	0	0	0	
7	0	0	0	0	554	498	0	0	0	0	
8	0	0	0	0	553	496	0	0	0	0	
9	0	0	0	0	553	496	0	0	0	0	
10	0	0	0	0	553	496	0	0	0	0	
11	0	0	0	0	555	496	0	0	0	0	
12	0	0	0	0	556	497	0	0	0	0	
13	0	0	0	0	557	499	0	0	0	0	
14	0	0	0	0	558	499	0	0	0	0	
15	0	0	0	0	558	499	0	0	0	0	
0	0	0	0	0	557	498	0	0	0	0	
1	0	0	0	0	556	497	0	0	0	0	
2	0	0	0	0	553	495	0	0	0	0	
3	0	0	0	0	551	492	0	0	0	0	
4	0	0	0	0	549	490	0	0	0	0	
5	0	0	0	0	546	487	0	0	0	0	
6	0	0	0	0	543	484	0	0	0	0	
7	0	0	0	0	542	483	0	0	0	0	
8	0	0	0	0	541	481	0	0	0	0	
9	0	0	0	0	541	481	0	0	0	0	
10	0	0	0	0	542	481	0	0	0	0	
11	0	0	0	0	543	483	0	0	0	0	
12	0	0	0	0	547	486	0	0	0	0	
13	0	0	0	0	550	489	0	0	0	0	
14	0	0	0	0	554	493	0	0	0	0	
15	0	0	0	0	559	498	0	0	0	0	
0	0	0	0	0	564	503	0	0	0	0	
1	0	0	0	0	569	508	0	0	0	0	
2	0	0	0	0	574	512	0	0	0	0	
3	0	0	0	0	579	517	0	0	0	0	
4	0	0	0	0	583	521	0	0	0	0	
5	0	0	0	0	588	524	0	0	0	0	
6	0	0	0	0	591	528	0	0	0	0	
7	0	0	0	0	594	531	0	0	0	0	
8	0	0	0	0	596	532	0	0	0	0	
9	0	0	0	0	599	533	0	0	0	0	
10	0	0	0	0	599	534	0	0	0	0	
11	0	0	0	0	600	534	0	0	0	0	
12	0	0	0	0	599	534	0	0	0	0	
13	0	0	0	0	598	534	0	0	0	0	
14	0	0	0	0	598	534	0	0	0	0	
15	0	0	0	0	597	533	0	0	0	0	
0	0	0	0	0	596	532	0	0	0	0	
1	0	0	0	0	594	532	0	0	0	0	
2	0	0	0	0	593	531	0	0	0	0	
3	0	0	0	0	591	528	0	0	0	0	
4	0	0	0	0	588	527	0	0	0	0	
5	0	0	0	0	584	523	0	0	0	0	
6	0	0	0	0	580	519	0	0	0	0	
7	0	0	0	0	575	515	0	0	0	0	
8	0	0	0	0	570	510	0	0	0	0	
9	0	0	0	0	564	504	0	0	0	0	
10	0	0	0	0	558	498	0	0	0	0	
11	0	0	0	0	551	492	0	0	0	0	
12	0	0	0	0	545	486	0	0	0	0	
13	0	0	0	0	539	480	0	0	0	0	
14	0	0	0	0	535	474	0	0	0	0	
15	0	0	0	0	531	470	0	0	0	0	
0	0	0	0	0	530	468	0	0	0	0	
1	0	0	0	0	531	467	0	0	0	0	
2	0	0	0	0	534	470	0	0	0	0	
3	0	0	0	0	540	475	0	0	0	0	
4	0	0	0	0	548	482	0	0	0	0	
5	0	0	0	0	559	491	0	0	0	0	
6	0	0	0	0	572	503	0	0	0	0	
7	0	0	0	0	586	515	0	0	0	0	
8	0	0	0	0	600	528	0	0	0	0	
9	0	0	0	0	614	541	0	0	0	0	
10	0	0	0	0	625	553	0	0	0	0	
11	0	0	0	0	635	562	0	0	0	0	
12	0	0	0	0	641	569	0	0	0	0	
13	0	0	0	0	645	573	0	0	0	0	
14	0	0	0	0	644	575	0	0	0	0	
15	0	0	0	0	642	574	0	0	0	0	
0	0	0	0	0	636	570	0	0	0	0	
1	0	0	0	0	629	565	0	0	0	0	
2	0	0	0	0	620	558	0	0	0	0	
3	0	0	0	0	611	551	0	0	0	0	
4	0	0	0	0	602	543	0	0	0	0	
5	0	0	0	0	594	536	0	0	0	0	
6	0	0	0	0	587	530	0	0	0	0	
7	0	0	0	0	582	526	0	0	0	0	
8	0	0	0	0	579	523	0	0	0	0	
9	0	0	0	0	577	521	0	0	0	0	
10	0	0	0	0	578	521	0	0	0	0	
11	0	0	0	0	580	522	0	0	0	0	
12	0	0	0	0	583	524	0	0	0	0	
13	0	0	0	0	586	525	0	0	0	0	
14	0	0	0	0	589	527	0	0	0	0	
15	0	0	0	0	591	528	0	0	0	0	
0	0	0	0	0	592	529	0	0	0	0	
1	0	0	0	0	593	529	0	0	0	0	
2	0	0	0	0	593	528	0	0	0	0	
3	0	0	0	0	591	527	0	0	0	0	
4	0	0	0	0	588	524	0	0	0	0	
5	0	0	0	0	585	520	0	0	0	0	
6	0	0	0	0	582	516	0	0	0	0	
7	0	0	0	0	577	511	0	0	0	0	
8	0	0	0	0	573	508	0	0	0	0	
9	0	0	0	0	569	504	0	0	0	0	
10	0	0	0	0	566	502	0	0	0	0	
11	0	0	0	0	565	500	0	0	0	0	
12	0	0	0	0	566	500	0	0	0	0	
13	0	0	0	0	568	502	0	0	0	0	
14	0	0	0	0	570	505	0	0	0	0	
15	0	0	0	0	574	508	0	0	0	0	
0	0	0	0	0	578	513	0	0	0	0	
1	0	0	0	0	583	517	0	0	0	0	
2	0	0	0	0	586	520	0	0	0	0	
3	0	0	0	0	589	523	0	0	0	0	
4	0	0	0	0	590	524	0	0	0	0	
5	0	0	0	0	590	525	0	0	0	0	
6	0	0	0	0	589	524	0	0	0	0	
7	0	0	0	0	586	522	0	0	0	0	
8	0	0	0	0	583	519	0	0	0	0	
9	0	0	0	0	580	516	0	0	0	0	
10	0	0	0	0	577	513	0	0	0	0	
11	0	0	0	0	574	511	0	0	0	0	
12	0	0	0	0	573	509	0	0	0	0	
13	0	0	0	0	572	508	0	0	0	0	
14	0	0	0	0	571	508	0	0	0	0	
15	0	0	0	0	572	508	0	0	0	0	
0	0	0	0	0	574	510	0	0	0	0	
1	0	0	0	0	577	512	0	0	0	0	
2	0	0	0	0	580	515	0	0	0	0	
3	0	0	0	0	584	519	0	0	0	0	
4	0	0	0	0	588	523	0	0	0	0	
5	0	0	0	0	591	526	0	0	0	0	
6	0	0	0	0	595	529	0	0	0	0	
7	0	0	0	0	597	531	0	0	0	0	
8	0	0	0	0	599	533	0	0	0	0	
9	0	0	0	0	599	534	0	0	0	0	
10	0	0	0	0	599	534	0	0	0	0	
11	0	0	0	0	597	533	0	0	0	0	
12	0	0	0	0	594	531	0	0	0	0	
13	0	0	0	0	591	528	0	0	0	0	
14	0	0	0	0	587	524	0	0	0	0	
15	0	0	0	0	583	520	0	0	0	0	
0	0	0	0	0	578	517	0	0	0	0	
1	0	0	0	0	574	513	0	0	0	0	
2	0	0	0	0	569	510	0	0	0	0	
3	0	0	0	0	566	507	0	0	0	0	
4	0	0	0	0	563	505	0	0	0	0	
5	0	0	0	0	562	504	0	0	0	0	
6	0	0	0	0	562	505	0	0	0	0	
7	0	0	0	0	563	505	0	0	0	0	
8	0	0	0	0	564	507	0	0	0	0	
9	0	0	0	0	567	510	0	0	0	0	
10	0	0	0	0	570	512	0	0	0	0	
11	0	0	0	0	573	515	0	0	0	0	
12	0	0	0	0	577	518	0	0	0	0	
13	0	0	0	0	581	521	0	0	0	0	
14	0	0	0	0	585	524	0	0	0	0	
15	0	0	0	0	589	526	0	0	0	0	
0	0	0	0	0	592	527	0	0	0	0	
1	0	0	0	0	595	528	0	0	0	0	
2	0	0	0	0	597	529	0	0	0	0	
3	0	0	0	0	598	528	0	0	0	0	
4	0	0	0	0	598	527	0	0	0	0	
5	0	0	0	0	595	524	0	0	0	0	
6	0	0	0	0	592	521	0	0	0	0	
7	0	0	0	0	588	517	0	0	0	0	
8	0	0	0	0	583	513	0	0	0	0	
9	0	0	0	0	577	509	0	0	0	0	
10	0	0	0	0	572	506	0	0	0	0	
11	0	0	0	0	569	504	0	0	0	0	
12	0	0	0	0	566	504	0	0	0	0	
13	0	0	0	0	565	504	0	0	0	0	
14	0	0	0	0	565	506	0	0	0	0	
15	0	0	0	0	566	508	0	0	0	0	
0	0	0	0	0	569	510	0	0	0	0	
1	0	0	0	0	572	513	0	0	0	0	
2	0	0	0	0	575	516	0	0	0	0	
3	0	0	0	0	577	518	0	0	0	0	
4	0	0	0	0	578	518	0	0	0	0	
5	0	0	0	0	578	517	0	0	0	0	
6	0	0	0	0	576	514	0	0	0	0	
7	0	0	0	0	573	510	0	0	0	0	
8	0	0	0	0	567	504	0	0	0	0	
9	0	0	0	0	561	498	0	0	0	0	
10	0	0	0	0	554	492	0	0	0	0	
11	0	0	0	0	547	486	0	0	0	0	
12	0	0	0	0	542	481	0	0	0	0	
13	0	0	0	0	538	479	0	0	0	0	
14	0	0	0	0	536	479	0	0	0	0	
15	0	0	0	0	537	481	0	0	0	0	
0	0	0	0	0	541	485	0	0	0	0	
1	0	0	0	0	547	492	0	0	0	0	
2	0	0	0	0	555	499	0	0	0	0	
3	0	0	0	0	564	508	0	0	0	0	
4	0	0	0	0	575	517	0	0	0	0	
5	0	0	0	0	586	526	0	0	0	0	
6	0	0	0	0	596	534	0	0	0	0	
7	0	0	0	0	606	541	0	0	0	0	
8	0	0	0	0	614	547	0	0	0	0	
9	0	0	0	0	620	551	0	0	0	0	
10	0	0	0	0	624	553	0	0	0	0	
11	0	0	0	0	627	555	0	0	0	0	
12	0	0	0	0	627	554	0	0	0	0	
13	0	0	0	0	626	553	0	0	0	0	
14	0	0	0	0	623	550	0	0	0	0	
15	0	0	0	0	619	546	0	0	0	0	
0	0	0	0	0	614	542	0	0	0	0	
1	0	0	0	0	608	539	0	0	0	0	
2	0	0	0	0	601	534	0	0	0	0	
3	0	0	0	0	594	529	0	0	0	0	
4	0	0	0	0	587	524	0	0	0	0	
5	0	0	0	0	579	519	0	0	0	0	
6	0	0	0	0	573	514	0	0	0	0	
7	0	0	0	0	568	510	0	0	0	0	
8	0	0	0	0	564	507	0	0	0	0	
9	0	0	0	0	562	504	0	0	0	0	
10	0	0	0	0	561	503	0	0	0	0	
11	0	0	0	0	562	502	0	0	0	0	
12	0	0	0	0	564	502	0	0	0	0	
13	0	0	0	0	568	504	0	0	0	0	
14	0	0	0	0	572	505	0	0	0	0	
15	0	0	0	0	577	507	0	0	0	0	
0	0	0	0	0	581	509	0	0	0	0	
1	0	0	0	0	585	511	0	0	0	0	
2	0	0	0	0	588	513	0	0	0	0	
3	0	0	0	0	592	515	0	0	0	0	
4	0	0	0	0	595	518	0	0	0	0	
5	0	0	0	0	597	520	0	0	0	0	
6	0	0	0	0	600	524	0	0	0	0	
7	0	0	0	0	601	527	0	0	0	0	
8	0	0	0	0	603	530	0	0	0	0	
9	0	0	0	0	604	534	0	0	0	0	
10	0	0	0	0	605	536	0	0	0	0	
11	0	0	0	0	605	539	0	0	0	0	
12	0	0	0	0	604	540	0	0	0	0	
13	0	0	0	0	604	540	0	0	0	0	
14	0	0	0	0	603	540	0	0	0	0	
15	0	0	0	0	601	540	0	0	0	0	
0	0	0	0	0	600	539	0	0	0	0	
1	0	0	0	0	599	537	0	0	0	0	
2	0	0	0	0	598	534	0	0	0	0	
3	0	0	0	0	596	532	0	0	0	0	
4	0	0	0	0	595	530	0	0	0	0	
5	0	0	0	0	595	528	0	0	0	0	
6	0	0	0	0	595	527	0	0	0	0	
7	0	0	0	0	595	525	0	0	0	0	
8	0	0	0	0	596	525	0	0	0	0	
9	0	0	0	0	598	526	0	0	0	0	
10	0	0	0	0	600	527	0	0	0	0	
11	0	0	0	0	601	528	0	0	0	0	
12	0	0	0	0	604	530	0	0	0	0	
13	0	0	0	0	606	533	0	0	0	0	
14	0	0	0	0	608	535	0	0	0	0	
15	0	0	0	0	610	537	0	0	0	0	
0	0	0	0	0	611	539	0	0	0	0	
1	0	0	0	0	611	539	0	0	0	0	
2	0	0	0	0	609	539	0	0	0	0	
3	0	0	0	0	606	536	0	0	0	0	
4	0	0	0	0	601	532	0	0	0	0	
5	0	0	0	0	595	528	0	0	0	0	
6	0	0	0	0	589	523	0	0	0	0	
7	0	0	0	0	583	518	0	0	0	0	
8	0	0	0	0	577	514	0	0	0	0	
9	0	0	0	0	573	510	0	0	0	0	
10	0	0	0	0	570	508	0	0	0	0	
11	0	0	0	0	569	508	0	0	0	0	
12	0	0	0	0	570	510	0	0	0	0	
13	0	0	0	0	574	513	0	0	0	0	
14	0	0	0	0	579	518	0	0	0	0	
15	0	0	0	0	586	524	0	0	0	0	
0	0	0	0	0	594	530	0	0	0	0	
1	0	0	0	0	602	537	0	0	0	0	
2	0	0	0	0	610	544	0	0	0	0	
3	0	0	0	0	617	550	0	0	0	0	
4	0	0	0	0	622	554	0	0	0	0	
5	0	0	0	0	626	557	0	0	0	0	
6	0	0	0	0	627	557	0	0	0	0	
7	0	0	0	0	626	556	0	0	0	0	
8	0	0	0	0	623	552	0	0	0	0	
9	0	0	0	0	617	547	0	0	0	0	
10	0	0	0	0	611	540	0	0	0	0	
11	0	0	0	0	603	534	0	0	0	0	
12	0	0	0	0	595	526	0	0	0	0	
13	0	0	0	0	587	519	0	0	0	0	
14	0	0	0	0	579	512	0	0	0	0	
15	0	0	0	0	572	507	0	0	0	0	
0	0	0	0	0	566	503	0	0	0	0	
1	0	0	0	0	562	500	0	0	0	0	
2	0	0	0	0	560	499	0	0	0	0	
3	0	0	0	0	561	501	0	0	0	0	
4	0	0	0	0	564	504	0	0	0	0	
5	0	0	0	0	571	509	0	0	0	0	
6	0	0	0	0	577	515	0	0	0	0	
7	0	0	0	0	585	520	0	0	0	0	
8	0	0	0	0	592	524	0	0	0	0	
9	0	0	0	0	598	527	0	0	0	0	
10	0	0	0	0	603	528	0	0	0	0	
11	0	0	0	0	606	527	0	0	0	0	
12	0	0	0	0	608	527	0	0	0	0	
13	0	0	0	0	609	525	0	0	0	0	
14	0	0	0	0	611	524	0	0	0	0	
15	0	0	0	0	611	524	0	0	0	0	
0	0	0	0	0	611	524	0	0	0	0	
1	0	0	0	0	611	524	0	0	0	0	
2	0	0	0	0	611	526	0	0	0	0	
3	0	0	0	0	612	529	0	0	0	0	
4	0	0	0	0	613	533	0	0	0	0	
5	0	0	0	0	614	537	0	0	0	0	
6	0	0	0	0	615	542	0	0	0	0	
7	0	0	0	0	617	546	0	0	0	0	
8	0	0	0	0	619	551	0	0	0	0	
9	0	0	0	0	620	555	0	0	0	0	
10	0	0	0	0	622	558	0	0	0	0	
11	0	0	0	0	623	560	0	0	0	0	
12	0	0	0	0	624	560	0	0	0	0	
13	0	0	0	0	625	560	0	0	0	0	
14	0	0	0	0	625	558	0	0	0	0	
15	0	0	0	0	624	556	0	0	0	0	
0	0	0	0	0	623	552	0	0	0	0	
1	0	0	0	0	623	548	0	0	0	0	
2	0	0	0	0	622	543	0	0	0	0	
3	0	0	0	0	622	540	0	0	0	0	
4	0	0	0	0	622	536	0	0	0	0	
5	0	0	0	0	622	534	0	0	0	0	
6	0	0	0	0	624	531	0	0	0	0	
7	0	0	0	0	626	530	0	0	0	0	
8	0	0	0	0	628	530	0	0	0	0	
9	0	0	0	0	630	530	0	0	0	0	
10	0	0	0	0	632	531	0	0	0	0	
11	0	0	0	0	633	532	0	0	0	0	
12	0	0	0	0	634	534	0	0	0	0	
13	0	0	0	0	634	535	0	0	0	0	
14	0	0	0	0	634	537	0	0	0	0	
15	0	0	0	0	632	538	0	0	0	0	
0	0	0	0	0	632	540	0	0	0	0	
1	0	0	0	0	631	542	0	0	0	0	
2	0	0	0	0	630	543	0	0	0	0	
3	0	0	0	0	628	545	0	0	0	0	
4	0	0	0	0	627	545	0	0	0	0	
5	0	0	0	0	626	546	0	0	0	0	
6	0	0	0	0	625	546	0	0	0	0	
7	0	0	0	0	625	546	0	0	0	0	
8	0	0	0	0	624	545	0	0	0	0	
9	0	0	0	0	624	544	0	0	0	0	
10	0	0	0	0	625	543	0	0	0	0	
11	0	0	0	0	625	543	0	0	0	0	
12	0	0	0	0	625	542	0	0	0	0	
13	0	0	0	0	625	540	0	0	0	0	
14	0	0	0	0	624	539	0	0	0	0	
15	0	0	0	0	623	537	0	0	0	0	
0	0	0	0	0	621	536	0	0	0	0	
1	0	0	0	0	617	534	0	0	0	0	
2	0	0	0	0	612	532	0	0	0	0	
3	0	0	0	0	607	529	0	0	0	0	
4	0	0	0	0	600	526	0	0	0	0	
5	0	0	0	0	593	522	0	0	0	0	
6	0	0	0	0	585	518	0	0	0	0	
7	0	0	0	0	577	513	0	0	0	0	
8	0	0	0	0	569	508	0	0	0	0	
9	0	0	0	0	562	504	0	0	0	0	
10	0	0	0	0	556	499	0	0	0	0	
11	0	0	0	0	552	495	0	0	0	0	
12	0	0	0	0	548	492	0	0	0	0	
13	0	0	0	0	546	489	0	0	0	0	
14	0	0	0	0	546	487	0	0	0	0	
15	0	0	0	0	548	486	0	0	0	0	
0	0	0	0	0	551	487	0	0	0	0	
1	0	0	0	0	555	488	0	0	0	0	
2	0	0	0	0	559	490	0	0	0	0	
3	0	0	0	0	565	493	0	0	0	0	
4	0	0	0	0	570	496	0	0	0	0	
5	0	0	0	0	574	498	0	0	0	0	
6	0	0	0	0	577	500	0	0	0	0	
7	0	0	0	0	579	502	0	0	0	0	
8	0	0	0	0	580	503	0	0	0	0	
9	0	0	0	0	580	503	0	0	0	0	
10	0	0	0	0	579	503	0	0	0	0	
11	0	0	0	0	578	502	0	0	0	0	
12	0	0	0	0	575	500	0	0	0	0	
13	0	0	0	0	573	498	0	0	0	0	
14	0	0	0	0	572	497	0	0	0	0	
15	0	0	0	0	571	496	0	0	0	0	
0	0	0	0	0	570	495	0	0	0	0	
1	0	0	0	0	570	495	0	0	0	0	
2	0	0	0	0	570	495	0	0	0	0	
3	0	0	0	0	572	496	0	0	0	0	
4	0	0	0	0	573	497	0	0	0	0	
5	0	0	0	0	575	499	0	0	0	0	
6	0	0	0	0	578	502	0	0	0	0	
7	0	0	0	0	581	504	0	0	0	0	
8	0	0	0	0	584	507	0	0	0	0	
9	0	0	0	0	587	509	0	0	0	0	
10	0	0	0	0	589	510	0	0	0	0	
11	0	0	0	0	590	511	0	0	0	0	
12	0	0	0	0	590	511	0	0	0	0	
13	0	0	0	0	590	510	0	0	0	0	
14	0	0	0	0	590	508	0	0	0	0	
15	0	0	0	0	589	507	0	0	0	0	
0	0	0	0	0	588	506	0	0	0	0	
1	0	0	0	0	589	505	0	0	0	0	
2	0	0	0	0	590	505	0	0	0	0	
3	0	0	0	0	591	507	0	0	0	0	
4	0	0	0	0	593	508	0	0	0	0	
5	0	0	0	0	596	510	0	0	0	0	
6	0	0	0	0	599	512	0	0	0	0	
7	0	0	0	0	602	514	0	0	0	0	
8	0	0	0	0	606	518	0	0	0	0	
9	0	0	0	0	609	521	0	0	0	0	
10	0	0	0	0	612	525	0	0	0	0	
11	0	0	0	0	615	529	0	0	0	0	
12	0	0	0	0	619	531	0	0	0	0	
13	0	0	0	0	620	535	0	0	0	0	
14	0	0	0	0	622	536	0	0	0	0	
15	0	0	0	0	622	537	0	0	0	0	
0	0	0	0	0	621	537	0	0	0	0	
1	0	0	0	0	620	536	0	0	0	0	
2	0	0	0	0	617	534	0	0	0	0	
3	0	0	0	0	614	530	0	0	0	0	
4	0	0	0	0	610	526	0	0	0	0	
5	0	0	0	0	606	522	0	0	0	0	
6	0	0	0	0	602	517	0	0	0	0	
7	0	0	0	0	597	512	0	0	0	0	
8	0	0	0	0	593	508	0	0	0	0	
9	0	0	0	0	590	504	0	0	0	0	
10	0	0	0	0	588	500	0	0	0	0	
11	0	0	0	0	586	498	0	0	0	0	
12	0	0	0	0	586	497	0	0	0	0	
13	0	0	0	0	587	497	0	0	0	0	
14	0	0	0	0	588	499	0	0	0	0	
15	0	0	0	0	590	502	0	0	0	0	
0	0	0	0	0	593	504	0	0	0	0	
1	0	0	0	0	596	508	0	0	0	0	
2	0	0	0	0	599	510	0	0	0	0	
3	0	0	0	0	602	513	0	0	0	0	
4	0	0	0	0	604	514	0	0	0	0	
5	0	0	0	0	605	515	0	0	0	0	
6	0	0	0	0	604	514	0	0	0	0	
7	0	0	0	0	603	511	0	0	0	0	
8	0	0	0	0	600	507	0	0	0	0	
9	0	0	0	0	595	502	0	0	0	0	
10	0	0	0	0	589	495	0	0	0	0	
11	0	0	0	0	582	488	0	0	0	0	
12	0	0	0	0	572	479	0	0	0	0	
13	0	0	0	0	563	470	0	0	0	0	
14	0	0	0	0	552	460	0	0	0	0	
15	0	0	0	0	542	450	0	0	0	0	
0	0	0	0	0	531	440	0	0	0	0	
1	0	0	0	0	520	430	0	0	0	0	
2	0	0	0	0	510	420	0	0	0	0	
3	0	0	0	0	499	411	0	0	0	0	
4	0	0	0	0	491	401	0	0	0	0	
5	0	0	0	0	482	392	0	0	0	0	
6	0	0	0	0	473	383	0	0	0	0	
7	0	0	0	0	464	373	0	0	0	0	
8	0	0	0	0	454	362	0	0	0	0	
9	0	0	0	0	444	350	0	0	0	0	
10	0	0	0	0	432	337	0	0	0	0	
11	0	0	0	0	419	323	0	0	0	0	
12	0	0	0	0	406	308	0	0	0	0	
13	0	0	0	0	392	293	0	0	0	0	
14	0	0	0	0	380	279	0	0	0	0	
15	0	0	0	0	367	265	0	0	0	0	
0	0	0	0	0	357	253	0	0	0	0	
1	0	0	0	0	348	243	0	0	0	0	
2	0	0	0	0	343	236	0	0	0	0	
3	0	0	0	0	340	233	0	0	0	0	
4	0	0	0	0	342	234	0	0	0	0	
5	0	0	0	0	348	240	0	0	0	0	
6	0	0	0	0	359	249	0	0	0	0	
7	0	0	0	0	374	263	0	0	0	0	
8	0	0	0	0	392	280	0	0	0	0	
9	0	0	0	0	414	300	0	0	0	0	
10	0	0	0	0	439	323	0	0	0	0	
11	0	0	0	0	464	348	0	0	0	0	
12	0	0	0	0	489	372	0	0	0	0	
13	0	0	0	0	515	396	0	0	0	0	
14	0	0	0	0	539	419	0	0	0	0	
15	0	0	0	0	561	440	0	0	0	0	
0	0	0	0	0	580	458	0	0	0	0	
1	0	0	0	0	596	473	0	0	0	0	
2	0	0	0	0	608	486	0	0	0	0	
3	0	0	0	0	617	495	0	0	0	0	
4	0	0	0	0	623	502	0	0	0	0	
5	0	0	0	0	626	506	0	0	0	0	
6	0	0	0	0	627	508	0	0	0	0	
7	0	0	0	0	626	509	0	0	0	0	
8	0	0	0	0	624	508	0	0	0	0	
9	0	0	0	0	620	507	0	0	0	0	
10	0	0	0	0	616	505	0	0	0	0	
11	0	0	0	0	612	503	0	0	0	0	
12	0	0	0	0	608	500	0	0	0	0	
13	0	0	0	0	605	498	0	0	0	0	
14	0	0	0	0	602	496	0	0	0	0	
15	0	0	0	0	600	495	0	0	0	0	
0	0	0	0	0	599	494	0	0	0	0	
1	0	0	0	0	599	493	0	0	0	0	
2	0	0	0	0	599	492	0	0	0	0	
3	0	0	0	0	599	492	0	0	0	0	
4	0	0	0	0	598	490	0	0	0	0	
5	0	0	0	0	598	488	0	0	0	0	
6	0	0	0	0	598	486	0	0	0	0	
7	0	0	0	0	596	483	0	0	0	0	
8	0	0	0	0	594	480	0	0	0	0	
9	0	0	0	0	592	477	0	0	0	0	
10	0	0	0	0	591	474	0	0	0	0	
11	0	0	0	0	590	473	0	0	0	0	
12	0	0	0	0	590	472	0	0	0	0	
13	0	0	0	0	591	473	0	0	0	0	
14	0	0	0	0	593	476	0	0	0	0	
15	0	0	0	0	596	478	0	0	0	0	
0	0	0	0	0	600	482	0	0	0	0	
1	0	0	0	0	605	486	0	0	0	0	
2	0	0	0	0	610	490	0	0	0	0	
3	0	0	0	0	614	494	0	0	0	0	
4	0	0	0	0	618	497	0	0	0	0	
5	0	0	0	0	621	499	0	0	0	0	
6	0	0	0	0	623	501	0	0	0	0	
7	0	0	0	0	624	501	0	0	0	0	
8	0	0	0	0	624	500	0	0	0	0	
9	0	0	0	0	623	499	0	0	0	0	
10	0	0	0	0	621	496	0	0	0	0	
11	0	0	0	0	618	493	0	0	0	0	
12	0	0	0	0	615	490	0	0	0	0	
13	0	0	0	0	611	487	0	0	0	0	
14	0	0	0	0	608	483	0	0	0	0	
15	0	0	0	0	604	480	0	0	0	0	
0	0	0	0	0	601	478	0	0	0	0	
1	0	0	0	0	598	475	0	0	0	0	
2	0	0	0	0	595	473	0	0	0	0	
3	0	0	0	0	593	472	0	0	0	0	
4	0	0	0	0	592	470	0	0	0	0	
5	0	0	0	0	591	468	0	0	0	0	
6	0	0	0	0	590	467	0	0	0	0	
7	0	0	0	0	588	465	0	0	0	0	
8	0	0	0	0	588	463	0	0	0	0	
9	0	0	0	0	587	461	0	0	0	0	
10	0	0	0	0	587	459	0	0	0	0	
11	0	0	0	0	587	457	0	0	0	0	
12	0	0	0	0	586	456	0	0	0	0	
13	0	0	0	0	587	455	0	0	0	0	
14	0	0	0	0	587	454	0	0	0	0	
15	0	0	0	0	588	454	0	0	0	0	
0	0	0	0	0	589	454	0	0	0	0	
1	0	0	0	0	590	454	0	0	0	0	
2	0	0	0	0	591	455	0	0	0	0	
3	0	0	0	0	593	456	0	0	0	0	
4	0	0	0	0	595	458	0	0	0	0	
5	0	0	0	0	596	460	0	0	0	0	
6	0	0	0	0	599	462	0	0	0	0	
7	0	0	0	0	600	465	0	0	0	0	
8	0	0	0	0	603	468	0	0	0	0	
9	0	0	0	0	605	472	0	0	0	0	
10	0	0	0	0	608	475	0	0	0	0	
11	0	0	0	0	610	478	0	0	0	0	
12	0	0	0	0	611	479	0	0	0	0	
13	0	0	0	0	612	479	0	0	0	0	
14	0	0	0	0	611	479	0	0	0	0	
15	0	0	0	0	610	476	0	0	0	0	
0	0	0	0	0	608	473	0	0	0	0	
1	0	0	0	0	604	470	0	0	0	0	
2	0	0	0	0	602	465	0	0	0	0	
3	0	0	0	0	599	461	0	0	0	0	
4	0	0	0	0	596	457	0	0	0	0	
5	0	0	0	0	593	452	0	0	0	0	
6	0	0	0	0	592	449	0	0	0	0	
7	0	0	0	0	592	448	0	0	0	0	
8	0	0	0	0	593	447	0	0	0	0	
9	0	0	0	0	595	447	0	0	0	0	
10	0	0	0	0	598	448	0	0	0	0	
11	0	0	0	0	600	449	0	0	0	0	
12	0	0	0	0	604	451	0	0	0	0	
13	0	0	0	0	607	452	0	0	0	0	
14	0	0	0	0	608	453	0	0	0	0	
15	0	0	0	0	608	452	0	0	0	0	
0	0	0	0	0	606	451	0	0	0	0	
1	0	0	0	0	603	447	0	0	0	0	
2	0	0	0	0	597	443	0	0	0	0	
3	0	0	0	0	590	437	0	0	0	0	
4	0	0	0	0	582	431	0	0	0	0	
5	0	0	0	0	575	425	0	0	0	0	
6	0	0	0	0	568	420	0	0	0	0	
7	0	0	0	0	562	417	0	0	0	0	
8	0	0	0	0	559	416	0	0	0	0	
9	0	0	0	0	557	416	0	0	0	0	
10	0	0	0	0	558	418	0	0	0	0	
11	0	0	0	0	561	421	0	0	0	0	
12	0	0	0	0	566	426	0	0	0	0	
13	0	0	0	0	572	431	0	0	0	0	
14	0	0	0	0	578	436	0	0	0	0	
15	0	0	0	0	585	441	0	0	0	0	
0	0	0	0	0	591	446	0	0	0	0	
1	0	0	0	0	597	449	0	0	0	0	
2	0	0	0	0	600	451	0	0	0	0	
3	0	0	0	0	601	451	0	0	0	0	
4	0	0	0	0	601	449	0	0	0	0	
5	0	0	0	0	599	446	0	0	0	0	
6	0	0	0	0	594	441	0	0	0	0	
7	0	0	0	0	588	436	0	0	0	0	
8	0	0	0	0	582	430	0	0	0	0	
9	0	0	0	0	575	423	0	0	0	0	
10	0	0	0	0	569	417	0	0	0	0	
11	0	0	0	0	563	412	0	0	0	0	
12	0	0	0	0	558	409	0	0	0	0	
13	0	0	0	0	556	407	0	0	0	0	
14	0	0	0	0	555	407	0	0	0	0	
15	0	0	0	0	556	408	0	0	0	0	
0	0	0	0	0	558	410	0	0	0	0	
1	0	0	0	0	561	414	0	0	0	0	
2	0	0	0	0	566	419	0	0	0	0	
3	0	0	0	0	572	423	0	0	0	0	
4	0	0	0	0	578	428	0	0	0	0	
5	0	0	0	0	583	433	0	0	0	0	
6	0	0	0	0	588	437	0	0	0	0	
7	0	0	0	0	592	440	0	0	0	0	
8	0	0	0	0	595	442	0	0	0	0	
9	0	0	0	0	597	443	0	0	0	0	
10	0	0	0	0	598	443	0	0	0	0	
11	0	0	0	0	597	442	0	0	0	0	
12	0	0	0	0	595	440	0	0	0	0	
13	0	0	0	0	591	438	0	0	0	0	
14	0	0	0	0	588	434	0	0	0	0	
15	0	0	0	0	583	430	0	0	0	0	
0	0	0	0	0	577	425	0	0	0	0	
1	0	0	0	0	571	420	0	0	0	0	
2	0	0	0	0	565	415	0	0	0	0	
3	0	0	0	0	560	410	0	0	0	0	
4	0	0	0	0	556	406	0	0	0	0	
5	0	0	0	0	552	402	0	0	0	0	
6	0	0	0	0	550	400	0	0	0	0	
7	0	0	0	0	550	399	0	0	0	0	
8	0	0	0	0	551	398	0	0	0	0	
9	0	0	0	0	553	399	0	0	0	0	
10	0	0	0	0	556	401	0	0	0	0	
11	0	0	0	0	560	403	0	0	0	0	
12	0	0	0	0	562	406	0	0	0	0	
13	0	0	0	0	564	407	0	0	0	0	
14	0	0	0	0	566	408	0	0	0	0	
15	0	0	0	0	566	408	0	0	0	0	
0	0	0	0	0	563	407	0	0	0	0	
1	0	0	0	0	561	405	0	0	0	0	
2	0	0	0	0	556	401	0	0	0	0	
3	0	0	0	0	551	397	0	0	0	0	
4	0	0	0	0	545	392	0	0	0	0	
5	0	0	0	0	540	388	0	0	0	0	
6	0	0	0	0	536	384	0	0	0	0	
7	0	0	0	0	532	380	0	0	0	0	
8	0	0	0	0	530	378	0	0	0	0	
9	0	0	0	0	529	377	0	0	0	0	
10	0	0	0	0	530	376	0	0	0	0	
11	0	0	0	0	532	378	0	0	0	0	
12	0	0	0	0	536	380	0	0	0	0	
13	0	0	0	0	541	384	0	0	0	0	
14	0	0	0	0	547	388	0	0	0	0	
15	0	0	0	0	552	392	0	0	0	0	
0	0	0	0	0	558	397	0	0	0	0	
1	0	0	0	0	563	400	0	0	0	0	
2	0	0	0	0	567	404	0	0	0	0	
3	0	0	0	0	570	407	0	0	0	0	
4	0	0	0	0	572	408	0	0	0	0	
5	0	0	0	0	573	409	0	0	0	0	
6	0	0	0	0	573	409	0	0	0	0	
7	0	0	0	0	572	408	0	0	0	0	
8	0	0	0	0	571	408	0	0	0	0	
9	0	0	0	0	571	407	0	0	0	0	
10	0	0	0	0	569	407	0	0	0	0	
11	0	0	0	0	570	406	0	0	0	0	
12	0	0	0	0	570	407	0	0	0	0	
13	0	0	0	0	572	408	0	0	0	0	
14	0	0	0	0	573	409	0	0	0	0	
15	0	0	0	0	575	412	0	0	0	0	
0	0	0	0	0	578	414	0	0	0	0	
1	0	0	0	0	581	417	0	0	0	0	
2	0	0	0	0	583	419	0	0	0	0	
3	0	0	0	0	585	422	0	0	0	0	
4	0	0	0	0	587	423	0	0	0	0	
5	0	0	0	0	587	423	0	0	0	0	
6	0	0	0	0	585	422	0	0	0	0	
7	0	0	0	0	583	419	0	0	0	0	
8	0	0	0	0	579	416	0	0	0	0	
9	0	0	0	0	573	411	0	0	0	0	
10	0	0	0	0	567	404	0	0	0	0	
11	0	0	0	0	559	397	0	0	0	0	
12	0	0	0	0	551	390	0	0	0	0	
13	0	0	0	0	543	382	0	0	0	0	
14	0	0	0	0	536	376	0	0	0	0	
15	0	0	0	0	531	370	0	0	0	0	
0	0	0	0	0	526	365	0	0	0	0	
1	0	0	0	0	522	362	0	0	0	0	
2	0	0	0	0	520	360	0	0	0	0	
3	0	0	0	0	520	360	0	0	0	0	
4	0	0	0	0	520	361	0	0	0	0	
5	0	0	0	0	523	364	0	0	0	0	
6	0	0	0	0	526	367	0	0	0	0	
7	0	0	0	0	530	371	0	0	0	0	
8	0	0	0	0	536	376	0	0	0	0	
9	0	0	0	0	540	381	0	0	0	0	
10	0	0	0	0	546	386	0	0	0	0	
11	0	0	0	0	551	390	0	0	0	0	
12	0	0	0	0	554	393	0	0	0	0	
13	0	0	0	0	557	395	0	0	0	0	
14	0	0	0	0	559	396	0	0	0	0	
15	0	0	0	0	559	396	0	0	0	0	
0	0	0	0	0	559	396	0	0	0	0	
1	0	0	0	0	557	395	0	0	0	0	
2	0	0	0	0	555	393	0	0	0	0	
3	0	0	0	0	553	391	0	0	0	0	
4	0	0	0	0	551	390	0	0	0	0	
5	0	0	0	0	549	389	0	0	0	0	
6	0	0	0	0	547	388	0	0	0	0	
7	0	0	0	0	545	387	0	0	0	0	
8	0	0	0	0	543	386	0	0	0	0	
9	0	0	0	0	542	385	0	0	0	0	
10	0	0	0	0	540	384	0	0	0	0	
11	0	0	0	0	539	384	0	0	0	0	
12	0	0	0	0	538	384	0	0	0	0	
13	0	0	0	0	538	384	0	0	0	0	
14	0	0	0	0	538	385	0	0	0	0	
15	0	0	0	0	538	385	0	0	0	0	
0	0	0	0	0	539	385	0	0	0	0	
1	0	0	0	0	540	386	0	0	0	0	
2	0	0	0	0	542	387	0	0	0	0	
3	0	0	0	0	543	388	0	0	0	0	
4	0	0	0	0	546	390	0	0	0	0	
5	0	0	0	0	549	392	0	0	0	0	
6	0	0	0	0	553	395	0	0	0	0	
7	0	0	0	0	557	398	0	0	0	0	
8	0	0	0	0	560	401	0	0	0	0	
9	0	0	0	0	563	403	0	0	0	0	
10	0	0	0	0	566	406	0	0	0	0	
11	0	0	0	0	568	407	0	0	0	0	
12	0	0	0	0	569	408	0	0	0	0	
13	0	0	0	0	569	408	0	0	0	0	
14	0	0	0	0	568	407	0	0	0	0	
15	0	0	0	0	565	404	0	0	0	0	
0	0	0	0	0	560	401	0	0	0	0	
1	0	0	0	0	556	397	0	0	0	0	
2	0	0	0	0	551	393	0	0	0	0	
3	0	0	0	0	545	388	0	0	0	0	
4	0	0	0	0	540	384	0	0	0	0	
5	0	0	0	0	536	380	0	0	0	0	
6	0	0	0	0	532	376	0	0	0	0	
7	0	0	0	0	529	374	0	0	0	0	
8	0	0	0	0	527	371	0	0	0	0	
9	0	0	0	0	526	371	0	0	0	0	
10	0	0	0	0	527	371	0	0	0	0	
11	0	0	0	0	528	371	0	0	0	0	
12	0	0	0	0	531	373	0	0	0	0	
13	0	0	0	0	534	376	0	0	0	0	
14	0	0	0	0	538	379	0	0	0	0	
15	0	0	0	0	543	383	0	0	0	0	
0	0	0	0	0	547	387	0	0	0	0	
1	0	0	0	0	552	391	0	0	0	0	
2	0	0	0	0	557	395	0	0	0	0	
3	0	0	0	0	560	399	0	0	0	0	
4	0	0	0	0	564	402	0	0	0	0	
5	0	0	0	0	566	404	0	0	0	0	
6	0	0	0	0	568	406	0	0	0	0	
7	0	0	0	0	568	406	0	0	0	0	
8	0	0	0	0	567	405	0	0	0	0	
9	0	0	0	0	565	403	0	0	0	0	
10	0	0	0	0	563	401	0	0	0	0	
11	0	0	0	0	559	398	0	0	0	0	
12	0	0	0	0	555	396	0	0	0	0	
13	0	0	0	0	552	393	0	0	0	0	
14	0	0	0	0	548	391	0	0	0	0	
15	0	0	0	0	545	389	0	0	0	0	
0	0	0	0	0	543	387	0	0	0	0	
1	0	0	0	0	542	387	0	0	0	0	
2	0	0	0	0	541	387	0	0	0	0	
3	0	0	0	0	541	387	0	0	0	0	
4	0	0	0	0	542	387	0	0	0	0	
5	0	0	0	0	544	388	0	0	0	0	
6	0	0	0	0	545	389	0	0	0	0	
7	0	0	0	0	547	390	0	0	0	0	
8	0	0	0	0	548	390	0	0	0	0	
9	0	0	0	0	549	388	0	0	0	0	
10	0	0	0	0	549	387	0	0	0	0	
11	0	0	0	0	547	384	0	0	0	0	
12	0	0	0	0	544	381	0	0	0	0	
13	0	0	0	0	540	376	0	0	0	0	
14	0	0	0	0	536	371	0	0	0	0	
15	0	0	0	0	530	366	0	0	0	0	
0	0	0	0	0	525	361	0	0	0	0	
1	0	0	0	0	519	357	0	0	0	0	
2	0	0	0	0	515	353	0	0	0	0	
3	0	0	0	0	511	351	0	0	0	0	
4	0	0	0	0	509	349	0	0	0	0	
5	0	0	0	0	509	350	0	0	0	0	
6	0	0	0	0	510	351	0	0	0	0	
7	0	0	0	0	512	355	0	0	0	0	
8	0	0	0	0	516	359	0	0	0	0	
9	0	0	0	0	521	364	0	0	0	0	
10	0	0	0	0	527	371	0	0	0	0	
11	0	0	0	0	534	377	0	0	0	0	
12	0	0	0	0	542	384	0	0	0	0	
13	0	0	0	0	548	391	0	0	0	0	
14	0	0	0	0	554	396	0	0	0	0	
15	0	0	0	0	559	401	0	0	0	0	
0	0	0	0	0	562	404	0	0	0	0	
1	0	0	0	0	563	406	0	0	0	0	
2	0	0	0	0	564	407	0	0	0	0	
3	0	0	0	0	564	406	0	0	0	0	
4	0	0	0	0	562	404	0	0	0	0	
5	0	0	0	0	560	403	0	0	0	0	
6	0	0	0	0	558	400	0	0	0	0	
7	0	0	0	0	555	398	0	0	0	0	
8	0	0	0	0	552	395	0	0	0	0	
9	0	0	0	0	550	393	0	0	0	0	
10	0	0	0	0	547	392	0	0	0	0	
11	0	0	0	0	545	391	0	0	0	0	
12	0	0	0	0	545	390	0	0	0	0	
13	0	0	0	0	544	390	0	0	0	0	
14	0	0	0	0	544	391	0	0	0	0	
15	0	0	0	0	544	391	0	0	0	0	
0	0	0	0	0	545	392	0	0	0	0	
1	0	0	0	0	546	393	0	0	0	0	
2	0	0	0	0	547	394	0	0	0	0	
3	0	0	0	0	547	394	0	0	0	0	
4	0	0	0	0	548	394	0	0	0	0	
5	0	0	0	0	548	393	0	0	0	0	
6	0	0	0	0	548	392	0	0	0	0	
7	0	0	0	0	548	391	0	0	0	0	
8	0	0	0	0	547	390	0	0	0	0	
9	0	0	0	0	546	388	0	0	0	0	
10	0	0	0	0	544	387	0	0	0	0	
11	0	0	0	0	543	385	0	0	0	0	
12	0	0	0	0	541	384	0	0	0	0	
13	0	0	0	0	539	382	0	0	0	0	
14	0	0	0	0	535	380	0	0	0	0	
15	0	0	0	0	532	377	0	0	0	0	
0	0	0	0	0	529	375	0	0	0	0	
1	0	0	0	0	525	372	0	0	0	0	
2	0	0	0	0	521	369	0	0	0	0	
3	0	0	0	0	518	366	0	0	0	0	
4	0	0	0	0	513	363	0	0	0	0	
5	0	0	0	0	511	359	0	0	0	0	
6	0	0	0	0	507	356	0	0	0	0	
7	0	0	0	0	505	353	0	0	0	0	
8	0	0	0	0	504	352	0	0	0	0	
9	0	0	0	0	505	352	0	0	0	0	
10	0	0	0	0	508	353	0	0	0	0	
11	0	0	0	0	512	356	0	0	0	0	
12	0	0	0	0	518	360	0	0	0	0	
13	0	0	0	0	525	365	0	0	0	0	
14	0	0	0	0	533	371	0	0	0	0	
15	0	0	0	0	541	378	0	0	0	0	
0	0	0	0	0	549	385	0	0	0	0	
1	0	0	0	0	556	391	0	0	0	0	
2	0	0	0	0	561	398	0	0	0	0	
3	0	0	0	0	566	403	0	0	0	0	
4	0	0	0	0	568	406	0	0	0	0	
5	0	0	0	0	569	408	0	0	0	0	
6	0	0	0	0	568	409	0	0	0	0	
7	0	0	0	0	565	408	0	0	0	0	
8	0	0	0	0	561	406	0	0	0	0	
9	0	0	0	0	555	403	0	0	0	0	
10	0	0	0	0	549	399	0	0	0	0	
11	0	0	0	0	543	394	0	0	0	0	
12	0	0	0	0	537	389	0	0	0	0	
13	0	0	0	0	532	385	0	0	0	0	
14	0	0	0	0	528	381	0	0	0	0	
15	0	0	0	0	526	379	0	0	0	0	
0	0	0	0	0	525	377	0	0	0	0	
1	0	0	0	0	525	376	0	0	0	0	
2	0	0	0	0	526	376	0	0	0	0	
3	0	0	0	0	527	376	0	0	0	0	
4	0	0	0	0	529	377	0	0	0	0	
5	0	0	0	0	532	378	0	0	0	0	
6	0	0	0	0	534	380	0	0	0	0	
7	0	0	0	0	536	382	0	0	0	0	
8	0	0	0	0	537	384	0	0	0	0	
9	0	0	0	0	538	386	0	0	0	0	
10	0	0	0	0	539	388	0	0	0	0	
11	0	0	0	0	540	390	0	0	0	0	
12	0	0	0	0	540	392	0	0	0	0	
13	0	0	0	0	541	394	0	0	0	0	
14	0	0	0	0	542	396	0	0	0	0	
15	0	0	0	0	542	396	0	0	0	0	
0	0	0	0	0	542	397	0	0	0	0	
1	0	0	0	0	542	396	0	0	0	0	
2	0	0	0	0	542	395	0	0	0	0	
3	0	0	0	0	541	393	0	0	0	0	
4	0	0	0	0	540	390	0	0	0	0	
5	0	0	0	0	538	387	0	0	0	0	
6	0	0	0	0	536	384	0	0	0	0	
7	0	0	0	0	534	380	0	0	0	0	
8	0	0	0	0	532	377	0	0	0	0	
9	0	0	0	0	530	375	0	0	0	0	
10	0	0	0	0	529	373	0	0	0	0	
11	0	0	0	0	528	372	0	0	0	0	
12	0	0	0	0	528	372	0	0	0	0	
13	0	0	0	0	529	372	0	0	0	0	
14	0	0	0	0	530	374	0	0	0	0	
15	0	0	0	0	531	376	0	0	0	0	
0	0	0	0	0	532	377	0	0	0	0	
1	0	0	0	0	535	380	0	0	0	0	
2	0	0	0	0	537	383	0	0	0	0	
3	0	0	0	0	540	385	0	0	0	0	
4	0	0	0	0	541	387	0	0	0	0	
5	0	0	0	0	542	388	0	0	0	0	
6	0	0	0	0	543	388	0	0	0	0	
7	0	0	0	0	543	388	0	0	0	0	
8	0	0	0	0	542	388	0	0	0	0	
9	0	0	0	0	540	387	0	0	0	0	
10	0	0	0	0	539	385	0	0	0	0	
11	0	0	0	0	538	384	0	0	0	0	
12	0	0	0	0	536	384	0	0	0	0	
13	0	0	0	0	535	383	0	0	0	0	
14	0	0	0	0	534	382	0	0	0	0	
15	0	0	0	0	533	382	0	0	0	0	
0	0	0	0	0	533	383	0	0	0	0	
1	0	0	0	0	533	384	0	0	0	0	
2	0	0	0	0	534	386	0	0	0	0	
3	0	0	0	0	535	387	0	0	0	0	
4	0	0	0	0	536	389	0	0	0	0	
5	0	0	0	0	537	390	0	0	0	0	
6	0	0	0	0	538	391	0	0	0	0	
7	0	0	0	0	538	391	0	0	0	0	
8	0	0	0	0	537	390	0	0	0	0	
9	0	0	0	0	537	388	0	0	0	0	
10	0	0	0	0	536	387	0	0	0	0	
11	0	0	0	0	535	385	0	0	0	0	
12	0	0	0	0	533	384	0	0	0	0	
13	0	0	0	0	532	382	0	0	0	0	
14	0	0	0	0	531	381	0	0	0	0	
15	0	0	0	0	530	380	0	0	0	0	
0	0	0	0	0	531	381	0	0	0	0	
1	0	0	0	0	531	382	0	0	0	0	
2	0	0	0	0	532	384	0	0	0	0	
3	0	0	0	0	533	387	0	0	0	0	
4	0	0	0	0	536	389	0	0	0	0	
5	0	0	0	0	537	392	0	0	0	0	
6	0	0	0	0	539	394	0	0	0	0	
7	0	0	0	0	540	396	0	0	0	0	
8	0	0	0	0	540	397	0	0	0	0	
9	0	0	0	0	541	397	0	0	0	0	
10	0	0	0	0	540	396	0	0	0	0	
11	0	0	0	0	540	395	0	0	0	0	
12	0	0	0	0	538	392	0	0	0	0	
13	0	0	0	0	536	389	0	0	0	0	
14	0	0	0	0	534	386	0	0	0	0	
15	0	0	0	0	532	383	0	0	0	0	
0	0	0	0	0	531	380	0	0	0	0	
1	0	0	0	0	529	378	0	0	0	0	
2	0	0	0	0	528	377	0	0	0	0	
3	0	0	0	0	528	376	0	0	0	0	
4	0	0	0	0	529	376	0	0	0	0	
5	0	0	0	0	529	377	0	0	0	0	
6	0	0	0	0	529	378	0	0	0	0	
7	0	0	0	0	529	380	0	0	0	0	
8	0	0	0	0	529	380	0	0	0	0	
9	0	0	0	0	528	380	0	0	0	0	
10	0	0	0	0	526	380	0	0	0	0	
11	0	0	0	0	524	379	0	0	0	0	
12	0	0	0	0	521	377	0	0	0	0	
13	0	0	0	0	519	376	0	0	0	0	
14	0	0	0	0	516	374	0	0	0	0	
15	0	0	0	0	515	372	0	0	0	0	
0	0	0	0	0	513	370	0	0	0	0	
1	0	0	0	0	513	369	0	0	0	0	
2	0	0	0	0	512	368	0	0	0	0	
3	0	0	0	0	513	367	0	0	0	0	
4	0	0	0	0	513	367	0	0	0	0	
5	0	0	0	0	513	367	0	0	0	0	
6	0	0	0	0	515	367	0	0	0	0	
7	0	0	0	0	516	368	0	0	0	0	
8	0	0	0	0	518	369	0	0	0	0	
9	0	0	0	0	520	371	0	0	0	0	
10	0	0	0	0	523	374	0	0	0	0	
11	0	0	0	0	525	377	0	0	0	0	
12	0	0	0	0	528	379	0	0	0	0	
13	0	0	0	0	530	382	0	0	0	0	
14	0	0	0	0	532	384	0	0	0	0	
15	0	0	0	0	532	385	0	0	0	0	
0	0	0	0	0	534	387	0	0	0	0	
1	0	0	0	0	535	388	0	0	0	0	
2	0	0	0	0	536	390	0	0	0	0	
3	0	0	0	0	537	391	0	0	0	0	
4	0	0	0	0	539	392	0	0	0	0	
5	0	0	0	0	540	393	0	0	0	0	
6	0	0	0	0	542	394	0	0	0	0	
7	0	0	0	0	543	395	0	0	0	0	
8	0	0	0	0	543	395	0	0	0	0	
9	0	0	0	0	544	395	0	0	0	0	
10	0	0	0	0	544	394	0	0	0	0	
11	0	0	0	0	544	393	0	0	0	0	
12	0	0	0	0	543	392	0	0	0	0	
13	0	0	0	0	542	391	0	0	0	0	
14	0	0	0	0	541	391	0	0	0	0	
15	0	0	0	0	540	391	0	0	0	0	
0	0	0	0	0	538	390	0	0	0	0	
1	0	0	0	0	537	390	0	0	0	0	
2	0	0	0	0	536	390	0	0	0	0	
3	0	0	0	0	535	389	0	0	0	0	
4	0	0	0	0	534	389	0	0	0	0	
5	0	0	0	0	533	388	0	0	0	0	
6	0	0	0	0	532	387	0	0	0	0	
7	0	0	0	0	532	387	0	0	0	0	
8	0	0	0	0	532	386	0	0	0	0	
9	0	0	0	0	532	385	0	0	0	0	
10	0	0	0	0	532	384	0	0	0	0	
11	0	0	0	0	533	384	0	0	0	0	
12	0	0	0	0	533	383	0	0	0	0	
13	0	0	0	0	534	383	0	0	0	0	
14	0	0	0	0	534	382	0	0	0	0	
15	0	0	0	0	534	383	0	0	0	0	
0	0	0	0	0	534	383	0	0	0	0	
1	0	0	0	0	534	384	0	0	0	0	
2	0	0	0	0	534	385	0	0	0	0	
3	0	0	0	0	534	386	0	0	0	0	
4	0	0	0	0	535	388	0	0	0	0	
5	0	0	0	0	534	389	0	0	0	0	
6	0	0	0	0	534	391	0	0	0	0	
7	0	0	0	0	534	391	0	0	0	0	
8	0	0	0	0	533	392	0	0	0	0	
9	0	0	0	0	533	392	0	0	0	0	
10	0	0	0	0	532	391	0	0	0	0	
11	0	0	0	0	532	391	0	0	0	0	
12	0	0	0	0	532	390	0	0	0	0	
13	0	0	0	0	531	388	0	0	0	0	
14	0	0	0	0	531	387	0	0	0	0	
15	0	0	0	0	532	385	0	0	0	0	
0	0	0	0	0	531	383	0	0	0	0	
1	0	0	0	0	531	381	0	0	0	0	
2	0	0	0	0	530	379	0	0	0	0	
3	0	0	0	0	530	378	0	0	0	0	
4	0	0	0	0	530	378	0	0	0	0	
5	0	0	0	0	530	379	0	0	0	0	
6	0	0	0	0	531	380	0	0	0	0	
7	0	0	0	0	532	382	0	0	0	0	
8	0	0	0	0	533	384	0	0	0	0	
9	0	0	0	0	534	385	0	0	0	0	
10	0	0	0	0	534	386	0	0	0	0	
11	0	0	0	0	532	385	0	0	0	0	
12	0	0	0	0	530	384	0	0	0	0	
13	0	0	0	0	527	382	0	0	0	0	
14	0	0	0	0	523	378	0	0	0	0	
15	0	0	0	0	519	374	0	0	0	0	
0	0	0	0	0	513	369	0	0	0	0	
1	0	0	0	0	508	364	0	0	0	0	
2	0	0	0	0	503	358	0	0	0	0	
3	0	0	0	0	499	354	0	0	0	0	
4	0	0	0	0	496	351	0	0	0	0	
5	0	0	0	0	495	349	0	0	0	0	
6	0	0	0	0	496	348	0	0	0	0	
7	0	0	0	0	498	350	0	0	0	0	
8	0	0	0	0	503	353	0	0	0	0	
9	0	0	0	0	507	356	0	0	0	0	
10	0	0	0	0	512	361	0	0	0	0	
11	0	0	0	0	518	366	0	0	0	0	
12	0	0	0	0	523	371	0	0	0	0	
13	0	0	0	0	528	376	0	0	0	0	
14	0	0	0	0	532	380	0	0	0	0	
15	0	0	0	0	536	384	0	0	0	0	
0	0	0	0	0	540	388	0	0	0	0	
1	0	0	0	0	542	390	0	0	0	0	
2	0	0	0	0	542	391	0	0	0	0	
3	0	0	0	0	542	391	0	0	0	0	
4	0	0	0	0	540	390	0	0	0	0	
5	0	0	0	0	537	387	0	0	0	0	
6	0	0	0	0	533	384	0	0	0	0	
7	0	0	0	0	529	380	0	0	0	0	
8	0	0	0	0	524	376	0	0	0	0	
9	0	0	0	0	520	373	0	0	0	0	
10	0	0	0	0	518	371	0	0	0	0	
11	0	0	0	0	517	370	0	0	0	0	
12	0	0	0	0	517	371	0	0	0	0	
13	0	0	0	0	519	373	0	0	0	0	
14	0	0	0	0	522	376	0	0	0	0	
15	0	0	0	0	526	379	0	0	0	0	
0	0	0	0	0	530	383	0	0	0	0	
1	0	0	0	0	535	387	0	0	0	0	
2	0	0	0	0	540	391	0	0	0	0	
3	0	0	0	0	543	394	0	0	0	0	
4	0	0	0	0	547	397	0	0	0	0	
5	0	0	0	0	549	399	0	0	0	0	
6	0	0	0	0	550	399	0	0	0	0	
7	0	0	0	0	550	398	0	0	0	0	
8	0	0	0	0	548	396	0	0	0	0	
9	0	0	0	0	544	392	0	0	0	0	
10	0	0	0	0	539	387	0	0	0	0	
11	0	0	0	0	531	380	0	0	0	0	
12	0	0	0	0	523	371	0	0	0	0	
13	0	0	0	0	512	361	0	0	0	0	
14	0	0	0	0	501	351	0	0	0	0	
15	0	0	0	0	489	339	0	0	0	0	
0	0	0	0	0	478	329	0	0	0	0	
1	0	0	0	0	468	319	0	0	0	0	
2	0	0	0	0	458	311	0	0	0	0	
3	0	0	0	0	449	303	0	0	0	0	
4	0	0	0	0	442	295	0	0	0	0	
5	0	0	0	0	436	289	0	0	0	0	
6	0	0	0	0	430	283	0	0	0	0	
7	0	0	0	0	424	278	0	0	0	0	
8	0	0	0	0	418	271	0	0	0	0	
9	0	0	0	0	411	263	0	0	0	0	
10	0	0	0	0	403	254	0	0	0	0	
11	0	0	0	0	392	242	0	0	0	0	
12	0	0	0	0	380	230	0	0	0	0	
13	0	0	0	0	366	215	0	0	0	0	
14	0	0	0	0	350	199	0	0	0	0	
15	0	0	0	0	334	183	0	0	0	0	
0	0	0	0	0	317	166	0	0	0	0	
1	0	0	0	0	301	151	0	0	0	0	
2	0	0	0	0	287	137	0	0	0	0	
3	0	0	0	0	276	126	0	0	0	0	
4	0	0	0	0	270	120	0	0	0	0	
5	0	0	0	0	267	116	0	0	0	0	
6	0	0	0	0	270	118	0	0	0	0	
7	0	0	0	0	278	125	0	0	0	0	
8	0	0	0	0	292	136	0	0	0	0	
9	0	0	0	0	311	152	0	0	0	0	
10	0	0	0	0	334	172	0	0	0	0	
11	0	0	0	0	359	194	0	0	0	0	
12	0	0	0	0	387	219	0	0	0	0	
13	0	0	0	0	416	243	0	0	0	0	
14	0	0	0	0	444	269	0	0	0	0	
15	0	0	0	0	469	292	0	0	0	0	
0	0	0	0	0	492	314	0	0	0	0	
1	0	0	0	0	512	334	0	0	0	0	
2	0	0	0	0	528	351	0	0	0	0	
3	0	0	0	0	540	365	0	0	0	0	
4	0	0	0	0	549	376	0	0	0	0	
5	0	0	0	0	554	384	0	0	0	0	
6	0	0	0	0	556	389	0	0	0	0	
7	0	0	0	0	556	392	0	0	0	0	
8	0	0	0	0	555	393	0	0	0	0	
9	0	0	0	0	552	394	0	0	0	0	
10	0	0	0	0	549	393	0	0	0	0	
11	0	0	0	0	545	391	0	0	0	0	
12	0	0	0	0	542	390	0	0	0	0	
13	0	0	0	0	539	388	0	0	0	0	
14	0	0	0	0	537	386	0	0	0	0	
15	0	0	0	0	536	384	0	0	0	0	
0	0	0	0	0	535	383	0	0	0	0	
1	0	0	0	0	535	382	0	0	0	0	
2	0	0	0	0	536	382	0	0	0	0	
3	0	0	0	0	537	381	0	0	0	0	
4	0	0	0	0	539	382	0	0	0	0	
5	0	0	0	0	541	383	0	0	0	0	
6	0	0	0	0	544	384	0	0	0	0	
7	0	0	0	0	547	387	0	0	0	0	
8	0	0	0	0	550	390	0	0	0	0	
9	0	0	0	0	553	393	0	0	0	0	
10	0	0	0	0	556	396	0	0	0	0	
11	0	0	0	0	559	400	0	0	0	0	
12	0	0	0	0	561	403	0	0	0	0	
13	0	0	0	0	563	406	0	0	0	0	
14	0	0	0	0	562	407	0	0	0	0	
15	0	0	0	0	560	406	0	0	0	0	
0	0	0	0	0	557	404	0	0	0	0	
1	0	0	0	0	552	401	0	0	0	0	
2	0	0	0	0	547	397	0	0	0	0	
3	0	0	0	0	541	392	0	0	0	0	
4	0	0	0	0	534	387	0	0	0	0	
5	0	0	0	0	528	381	0	0	0	0	
6	0	0	0	0	524	376	0	0	0	0	
7	0	0	0	0	519	371	0	0	0	0	
8	0	0	0	0	518	368	0	0	0	0	
9	0	0	0	0	516	365	0	0	0	0	
10	0	0	0	0	517	364	0	0	0	0	
11	0	0	0	0	519	365	0	0	0	0	
12	0	0	0	0	522	366	0	0	0	0	
13	0	0	0	0	525	368	0	0	0	0	
14	0	0	0	0	529	371	0	0	0	0	
15	0	0	0	0	534	375	0	0	0	0	
0	0	0	0	0	539	380	0	0	0	0	
1	0	0	0	0	543	385	0	0	0	0	
2	0	0	0	0	548	390	0	0	0	0	
3	0	0	0	0	551	396	0	0	0	0	
4	0	0	0	0	555	399	0	0	0	0	
5	0	0	0	0	556	403	0	0	0	0	
6	0	0	0	0	557	404	0	0	0	0	
7	0	0	0	0	557	406	0	0	0	0	
8	0	0	0	0	556	406	0	0	0	0	
9	0	0	0	0	555	406	0	0	0	0	
10	0	0	0	0	555	406	0	0	0	0	
11	0	0	0	0	554	405	0	0	0	0	
12	0	0	0	0	554	404	0	0	0	0	
13	0	0	0	0	554	403	0	0	0	0	
14	0	0	0	0	555	402	0	0	0	0	
15	0	0	0	0	555	402	0	0	0	0	
0	0	0	0	0	556	401	0	0	0	0	
1	0	0	0	0	556	400	0	0	0	0	
2	0	0	0	0	556	400	0	0	0	0	
3	0	0	0	0	557	399	0	0	0	0	
4	0	0	0	0	557	399	0	0	0	0	
5	0	0	0	0	556	399	0	0	0	0	
6	0	0	0	0	554	398	0	0	0	0	
7	0	0	0	0	552	397	0	0	0	0	
8	0	0	0	0	550	396	0	0	0	0	
9	0	0	0	0	547	395	0	0	0	0	
10	0	0	0	0	544	393	0	0	0	0	
11	0	0	0	0	541	391	0	0	0	0	
12	0	0	0	0	537	389	0	0	0	0	
13	0	0	0	0	534	386	0	0	0	0	
14	0	0	0	0	530	384	0	0	0	0	
15	0	0	0	0	527	382	0	0	0	0	
0	0	0	0	0	525	379	0	0	0	0	
1	0	0	0	0	524	377	0	0	0	0	
2	0	0	0	0	523	376	0	0	0	0	
3	0	0	0	0	524	376	0	0	0	0	
4	0	0	0	0	525	377	0	0	0	0	
5	0	0	0	0	527	379	0	0	0	0	
6	0	0	0	0	531	382	0	0	0	0	
7	0	0	0	0	536	385	0	0	0	0	
8	0	0	0	0	542	391	0	0	0	0	
9	0	0	0	0	547	395	0	0	0	0	
10	0	0	0	0	553	400	0	0	0	0	
11	0	0	0	0	559	406	0	0	0	0	
12	0	0	0	0	563	410	0	0	0	0	
13	0	0	0	0	567	413	0	0	0	0	
14	0	0	0	0	569	415	0	0	0	0	
15	0	0	0	0	570	415	0	0	0	0	
0	0	0	0	0	569	414	0	0	0	0	
1	0	0	0	0	566	411	0	0	0	0	
2	0	0	0	0	560	407	0	0	0	0	
3	0	0	0	0	554	400	0	0	0	0	
4	0	0	0	0	546	394	0	0	0	0	
5	0	0	0	0	539	387	0	0	0	0	
6	0	0	0	0	531	380	0	0	0	0	
7	0	0	0	0	524	375	0	0	0	0	
8	0	0	0	0	518	369	0	0	0	0	
9	0	0	0	0	514	366	0	0	0	0	
10	0	0	0	0	513	365	0	0	0	0	
11	0	0	0	0	515	366	0	0	0	0	
12	0	0	0	0	518	368	0	0	0	0	
13	0	0	0	0	523	373	0	0	0	0	
14	0	0	0	0	529	378	0	0	0	0	
15	0	0	0	0	536	384	0	0	0	0	
0	0	0	0	0	543	390	0	0	0	0	
1	0	0	0	0	550	396	0	0	0	0	
2	0	0	0	0	556	401	0	0	0	0	
3	0	0	0	0	560	404	0	0	0	0	
4	0	0	0	0	562	407	0	0	0	0	
5	0	0	0	0	563	408	0	0	0	0	
6	0	0	0	0	561	407	0	0	0	0	
7	0	0	0	0	557	403	0	0	0	0	
8	0	0	0	0	551	399	0	0	0	0	
9	0	0	0	0	545	392	0	0	0	0	
10	0	0	0	0	537	385	0	0	0	0	
11	0	0	0	0	529	378	0	0	0	0	
12	0	0	0	0	521	370	0	0	0	0	
13	0	0	0	0	513	363	0	0	0	0	
14	0	0	0	0	507	356	0	0	0	0	
15	0	0	0	0	502	351	0	0	0	0	
0	0	0	0	0	499	348	0	0	0	0	
1	0	0	0	0	498	346	0	0	0	0	
2	0	0	0	0	499	347	0	0	0	0	
3	0	0	0	0	502	349	0	0	0	0	
4	0	0	0	0	506	352	0	0	0	0	
5	0	0	0	0	511	357	0	0	0	0	
6	0	0	0	0	516	362	0	0	0	0	
7	0	0	0	0	522	368	0	0	0	0	
8	0	0	0	0	527	373	0	0	0	0	
9	0	0	0	0	532	377	0	0	0	0	
10	0	0	0	0	537	382	0	0	0	0	
11	0	0	0	0	541	385	0	0	0	0	
12	0	0	0	0	543	387	0	0	0	0	
13	0	0	0	0	545	390	0	0	0	0	
14	0	0	0	0	547	391	0	0	0	0	
15	0	0	0	0	547	391	0	0	0	0	
0	0	0	0	0	546	391	0	0	0	0	
1	0	0	0	0	544	390	0	0	0	0	
2	0	0	0	0	541	387	0	0	0	0	
3	0	0	0	0	539	385	0	0	0	0	
4	0	0	0	0	536	383	0	0	0	0	
5	0	0	0	0	532	380	0	0	0	0	
6	0	0	0	0	528	378	0	0	0	0	
7	0	0	0	0	526	376	0	0	0	0	
8	0	0	0	0	523	373	0	0	0	0	
9	0	0	0	0	519	371	0	0	0	0	
10	0	0	0	0	517	369	0	0	0	0	
11	0	0	0	0	515	368	0	0	0	0	
12	0	0	0	0	514	367	0	0	0	0	
13	0	0	0	0	513	366	0	0	0	0	
14	0	0	0	0	513	366	0	0	0	0	
15	0	0	0	0	512	365	0	0	0	0	
0	0	0	0	0	512	365	0	0	0	0	
1	0	0	0	0	512	364	0	0	0	0	
2	0	0	0	0	512	364	0	0	0	0	
3	0	0	0	0	513	364	0	0	0	0	
4	0	0	0	0	515	365	0	0	0	0	
5	0	0	0	0	517	366	0	0	0	0	
6	0	0	0	0	519	368	0	0	0	0	
7	0	0	0	0	522	370	0	0	0	0	
8	0	0	0	0	525	372	0	0	0	0	
9	0	0	0	0	528	375	0	0	0	0	
10	0	0	0	0	531	378	0	0	0	0	
11	0	0	0	0	533	381	0	0	0	0	
12	0	0	0	0	536	383	0	0	0	0	
13	0	0	0	0	537	385	0	0	0	0	
14	0	0	0	0	538	387	0	0	0	0	
15	0	0	0	0	539	387	0	0	0	0	
0	0	0	0	0	538	387	0	0	0	0	
1	0	0	0	0	537	385	0	0	0	0	
2	0	0	0	0	535	383	0	0	0	0	
3	0	0	0	0	531	380	0	0	0	0	
4	0	0	0	0	528	376	0	0	0	0	
5	0	0	0	0	524	372	0	0	0	0	
6	0	0	0	0	521	369	0	0	0	0	
7	0	0	0	0	519	367	0	0	0	0	
8	0	0	0	0	518	366	0	0	0	0	
9	0	0	0	0	518	365	0	0	0	0	
10	0	0	0	0	519	367	0	0	0	0	
11	0	0	0	0	522	370	0	0	0	0	
12	0	0	0	0	527	375	0	0	0	0	
13	0	0	0	0	533	381	0	0	0	0	
14	0	0	0	0	540	388	0	0	0	0	
15	0	0	0	0	548	396	0	0	0	0	
0	0	0	0	0	558	404	0	0	0	0	
1	0	0	0	0	567	413	0	0	0	0	
2	0	0	0	0	574	420	0	0	0	0	
3	0	0	0	0	580	426	0	0	0	0	
4	0	0	0	0	584	430	0	0	0	0	
5	0	0	0	0	585	431	0	0	0	0	
6	0	0	0	0	583	430	0	0	0	0	
7	0	0	0	0	577	425	0	0	0	0	
8	0	0	0	0	569	418	0	0	0	0	
9	0	0	0	0	560	410	0	0	0	0	
10	0	0	0	0	550	401	0	0	0	0	
11	0	0	0	0	539	391	0	0	0	0	
12	0	0	0	0	529	383	0	0	0	0	
13	0	0	0	0	521	375	0	0	0	0	
14	0	0	0	0	513	368	0	0	0	0	
15	0	0	0	0	508	362	0	0	0	0	
0	0	0	0	0	504	359	0	0	0	0	
1	0	0	0	0	502	356	0	0	0	0	
2	0	0	0	0	502	356	0	0	0	0	
3	0	0	0	0	503	357	0	0	0	0	
4	0	0	0	0	505	359	0	0	0	0	
5	0	0	0	0	508	361	0	0	0	0	
6	0	0	0	0	512	365	0	0	0	0	
7	0	0	0	0	515	368	0	0	0	0	
8	0	0	0	0	519	371	0	0	0	0	
9	0	0	0	0	522	374	0	0	0	0	
10	0	0	0	0	524	376	0	0	0	0	
11	0	0	0	0	526	379	0	0	0	0	
12	0	0	0	0	527	380	0	0	0	0	
13	0	0	0	0	527	380	0	0	0	0	
14	0	0	0	0	527	380	0	0	0	0	
15	0	0	0	0	526	380	0	0	0	0	
0	0	0	0	0	524	378	0	0	0	0	
1	0	0	0	0	522	376	0	0	0	0	
2	0	0	0	0	520	374	0	0	0	0	
3	0	0	0	0	519	372	0	0	0	0	
4	0	0	0	0	519	371	0	0	0	0	
5	0	0	0	0	519	370	0	0	0	0	
6	0	0	0	0	519	370	0	0	0	0	
7	0	0	0	0	520	372	0	0	0	0	
8	0	0	0	0	523	374	0	0	0	0	
9	0	0	0	0	525	376	0	0	0	0	
10	0	0	0	0	527	379	0	0	0	0	
11	0	0	0	0	529	381	0	0	0	0	
12	0	0	0	0	530	383	0	0	0	0	
13	0	0	0	0	531	384	0	0	0	0	
14	0	0	0	0	532	385	0	0	0	0	
15	0	0	0	0	532	386	0	0	0	0	
0	0	0	0	0	532	386	0	0	0	0	
1	0	0	0	0	532	385	0	0	0	0	
2	0	0	0	0	531	385	0	0	0	0	
3	0	0	0	0	531	384	0	0	0	0	
4	0	0	0	0	531	384	0	0	0	0	
5	0	0	0	0	531	384	0	0	0	0	
6	0	0	0	0	531	384	0	0	0	0	
7	0	0	0	0	532	384	0	0	0	0	
8	0	0	0	0	532	385	0	0	0	0	
9	0	0	0	0	533	387	0	0	0	0	
10	0	0	0	0	534	387	0	0	0	0	
11	0	0	0	0	535	389	0	0	0	0	
12	0	0	0	0	536	391	0	0	0	0	
13	0	0	0	0	538	392	0	0	0	0	
14	0	0	0	0	540	395	0	0	0	0	
15	0	0	0	0	542	397	0	0	0	0	
0	0	0	0	0	544	399	0	0	0	0	
1	0	0	0	0	547	402	0	0	0	0	
2	0	0	0	0	550	404	0	0	0	0	
3	0	0	0	0	552	407	0	0	0	0	
4	0	0	0	0	554	408	0	0	0	0	
5	0	0	0	0	556	409	0	0	0	0	
6	0	0	0	0	556	409	0	0	0	0	
7	0	0	0	0	556	409	0	0	0	0	
8	0	0	0	0	555	408	0	0	0	0	
9	0	0	0	0	553	406	0	0	0	0	
10	0	0	0	0	550	403	0	0	0	0	
11	0	0	0	0	547	401	0	0	0	0	
12	0	0	0	0	544	398	0	0	0	0	
13	0	0	0	0	541	396	0	0	0	0	
14	0	0	0	0	537	393	0	0	0	0	
15	0	0	0	0	534	391	0	0	0	0	
0	0	0	0	0	532	390	0	0	0	0	
1	0	0	0	0	531	390	0	0	0	0	
2	0	0	0	0	530	389	0	0	0	0	
3	0	0	0	0	530	390	0	0	0	0	
4	0	0	0	0	531	391	0	0	0	0	
5	0	0	0	0	533	391	0	0	0	0	
6	0	0	0	0	535	393	0	0	0	0	
7	0	0	0	0	537	395	0	0	0	0	
8	0	0	0	0	540	397	0	0	0	0	
9	0	0	0	0	542	399	0	0	0	0	
10	0	0	0	0	545	401	0	0	0	0	
11	0	0	0	0	547	403	0	0	0	0	
12	0	0	0	0	549	404	0	0	0	0	
13	0	0	0	0	551	406	0	0	0	0	
14	0	0	0	0	553	407	0	0	0	0	
15	0	0	0	0	553	408	0	0	0	0	
0	0	0	0	0	553	409	0	0	0	0	
1	0	0	0	0	552	409	0	0	0	0	
2	0	0	0	0	551	408	0	0	0	0	
3	0	0	0	0	549	408	0	0	0	0	
4	0	0	0	0	546	406	0	0	0	0	
5	0	0	0	0	543	405	0	0	0	0	
6	0	0	0	0	540	403	0	0	0	0	
7	0	0	0	0	537	402	0	0	0	0	
8	0	0	0	0	535	400	0	0	0	0	
9	0	0	0	0	534	400	0	0	0	0	
10	0	0	0	0	533	399	0	0	0	0	
11	0	0	0	0	534	399	0	0	0	0	
12	0	0	0	0	534	399	0	0	0	0	
13	0	0	0	0	537	399	0	0	0	0	
14	0	0	0	0	539	400	0	0	0	0	
15	0	0	0	0	542	400	0	0	0	0	
0	0	0	0	0	544	401	0	0	0	0	
1	0	0	0	0	547	401	0	0	0	0	
2	0	0	0	0	550	402	0	0	0	0	
3	0	0	0	0	552	403	0	0	0	0	
4	0	0	0	0	553	403	0	0	0	0	
5	0	0	0	0	555	403	0	0	0	0	
6	0	0	0	0	554	403	0	0	0	0	
7	0	0	0	0	552	403	0	0	0	0	
8	0	0	0	0	549	401	0	0	0	0	
9	0	0	0	0	544	398	0	0	0	0	
10	0	0	0	0	539	395	0	0	0	0	
11	0	0	0	0	531	390	0	0	0	0	
12	0	0	0	0	524	385	0	0	0	0	
13	0	0	0	0	516	380	0	0	0	0	
14	0	0	0	0	509	375	0	0	0	0	
15	0	0	0	0	504	370	0	0	0	0	
0	0	0	0	0	499	366	0	0	0	0	
1	0	0	0	0	498	364	0	0	0	0	
2	0	0	0	0	499	364	0	0	0	0	
3	0	0	0	0	503	367	0	0	0	0	
4	0	0	0	0	510	372	0	0	0	0	
5	0	0	0	0	519	379	0	0	0	0	
6	0	0	0	0	530	387	0	0	0	0	
7	0	0	0	0	543	397	0	0	0	0	
8	0	0	0	0	556	408	0	0	0	0	
9	0	0	0	0	568	417	0	0	0	0	
10	0	0	0	0	578	427	0	0	0	0	
11	0	0	0	0	586	434	0	0	0	0	
12	0	0	0	0	591	439	0	0	0	0	
13	0	0	0	0	592	441	0	0	0	0	
14	0	0	0	0	590	441	0	0	0	0	
15	0	0	0	0	585	439	0	0	0	0	
0	0	0	0	0	578	434	0	0	0	0	
1	0	0	0	0	569	428	0	0	0	0	
2	0	0	0	0	559	420	0	0	0	0	
3	0	0	0	0	549	413	0	0	0	0	
4	0	0	0	0	538	405	0	0	0	0	
5	0	0	0	0	530	398	0	0	0	0	
6	0	0	0	0	523	391	0	0	0	0	
7	0	0	0	0	518	387	0	0	0	0	
8	0	0	0	0	515	383	0	0	0	0	
9	0	0	0	0	514	380	0	0	0	0	
10	0	0	0	0	516	380	0	0	0	0	
11	0	0	0	0	519	381	0	0	0	0	
12	0	0	0	0	525	384	0	0	0	0	
13	0	0	0	0	531	388	0	0	0	0	
14	0	0	0	0	537	392	0	0	0	0	
15	0	0	0	0	545	398	0	0	0	0	
0	0	0	0	0	551	404	0	0	0	0	
1	0	0	0	0	557	409	0	0	0	0	
2	0	0	0	0	562	413	0	0	0	0	
3	0	0	0	0	565	417	0	0	0	0	
4	0	0	0	0	567	420	0	0	0	0	
5	0	0	0	0	568	421	0	0	0	0	
6	0	0	0	0	568	423	0	0	0	0	
7	0	0	0	0	567	423	0	0	0	0	
8	0	0	0	0	565	422	0	0	0	0	
9	0	0	0	0	563	422	0	0	0	0	
10	0	0	0	0	562	421	0	0	0	0	
11	0	0	0	0	560	419	0	0	0	0	
12	0	0	0	0	559	419	0	0	0	0	
13	0	0	0	0	558	417	0	0	0	0	
14	0	0	0	0	556	416	0	0	0	0	
15	0	0	0	0	555	415	0	0	0	0	
0	0	0	0	0	552	412	0	0	0	0	
1	0	0	0	0	549	409	0	0	0	0	
2	0	0	0	0	545	406	0	0	0	0	
3	0	0	0	0	540	401	0	0	0	0	
4	0	0	0	0	535	397	0	0	0	0	
5	0	0	0	0	528	392	0	0	0	0	
6	0	0	0	0	523	388	0	0	0	0	
7	0	0	0	0	518	384	0	0	0	0	
8	0	0	0	0	514	380	0	0	0	0	
9	0	0	0	0	512	378	0	0	0	0	
10	0	0	0	0	511	377	0	0	0	0	
11	0	0	0	0	512	379	0	0	0	0	
12	0	0	0	0	515	381	0	0	0	0	
13	0	0	0	0	521	386	0	0	0	0	
14	0	0	0	0	529	392	0	0	0	0	
15	0	0	0	0	538	399	0	0	0	0	
0	0	0	0	0	548	408	0	0	0	0	
1	0	0	0	0	560	417	0	0	0	0	
2	0	0	0	0	571	426	0	0	0	0	
3	0	0	0	0	582	435	0	0	0	0	
4	0	0	0	0	591	444	0	0	0	0	
5	0	0	0	0	599	450	0	0	0	0	
6	0	0	0	0	604	455	0	0	0	0	
7	0	0	0	0	605	457	0	0	0	0	
8	0	0	0	0	604	457	0	0	0	0	
9	0	0	0	0	600	455	0	0	0	0	
10	0	0	0	0	593	451	0	0	0	0	
11	0	0	0	0	583	444	0	0	0	0	
12	0	0	0	0	571	435	0	0	0	0	
13	0	0	0	0	559	425	0	0	0	0	
14	0	0	0	0	546	415	0	0	0	0	
15	0	0	0	0	534	404	0	0	0	0	
0	0	0	0	0	524	396	0	0	0	0	
1	0	0	0	0	515	388	0	0	0	0	
2	0	0	0	0	511	383	0	0	0	0	
3	0	0	0	0	509	379	0	0	0	0	
4	0	0	0	0	509	377	0	0	0	0	
5	0	0	0	0	512	378	0	0	0	0	
6	0	0	0	0	517	380	0	0	0	0	
7	0	0	0	0	523	383	0	0	0	0	
8	0	0	0	0	530	387	0	0	0	0	
9	0	0	0	0	536	391	0	0	0	0	
10	0	0	0	0	542	396	0	0	0	0	
11	0	0	0	0	547	400	0	0	0	0	
12	0	0	0	0	551	403	0	0	0	0	
13	0	0	0	0	552	405	0	0	0	0	
14	0	0	0	0	551	406	0	0	0	0	
15	0	0	0	0	547	404	0	0	0	0	
0	0	0	0	0	542	400	0	0	0	0	
1	0	0	0	0	535	396	0	0	0	0	
2	0	0	0	0	527	390	0	0	0	0	
3	0	0	0	0	519	384	0	0	0	0	
4	0	0	0	0	512	378	0	0	0	0	
5	0	0	0	0	505	373	0	0	0	0	
6	0	0	0	0	500	368	0	0	0	0	
7	0	0	0	0	497	366	0	0	0	0	
8	0	0	0	0	496	365	0	0	0	0	
9	0	0	0	0	498	367	0	0	0	0	
10	0	0	0	0	502	370	0	0	0	0	
11	0	0	0	0	508	375	0	0	0	0	
12	0	0	0	0	517	382	0	0	0	0	
13	0	0	0	0	527	391	0	0	0	0	
14	0	0	0	0	538	399	0	0	0	0	
15	0	0	0	0	550	409	0	0	0	0	
0	0	0	0	0	560	418	0	0	0	0	
1	0	0	0	0	569	425	0	0	0	0	
2	0	0	0	0	576	431	0	0	0	0	
3	0	0	0	0	579	433	0	0	0	0	
4	0	0	0	0	580	434	0	0	0	0	
5	0	0	0	0	578	431	0	0	0	0	
6	0	0	0	0	572	427	0	0	0	0	
7	0	0	0	0	563	419	0	0	0	0	
8	0	0	0	0	553	412	0	0	0	0	
9	0	0	0	0	540	402	0	0	0	0	
10	0	0	0	0	529	393	0	0	0	0	
11	0	0	0	0	518	384	0	0	0	0	
12	0	0	0	0	508	377	0	0	0	0	
13	0	0	0	0	501	372	0	0	0	0	
14	0	0	0	0	497	371	0	0	0	0	
15	0	0	0	0	498	371	0	0	0	0	
0	0	0	0	0	502	375	0	0	0	0	
1	0	0	0	0	507	380	0	0	0	0	
2	0	0	0	0	515	386	0	0	0	0	
3	0	0	0	0	525	394	0	0	0	0	
4	0	0	0	0	536	402	0	0	0	0	
5	0	0	0	0	546	411	0	0	0	0	
6	0	0	0	0	556	417	0	0	0	0	
7	0	0	0	0	563	423	0	0	0	0	
8	0	0	0	0	569	428	0	0	0	0	
9	0	0	0	0	572	430	0	0	0	0	
10	0	0	0	0	573	431	0	0	0	0	
11	0	0	0	0	571	429	0	0	0	0	
12	0	0	0	0	567	425	0	0	0	0	
13	0	0	0	0	561	421	0	0	0	0	
14	0	0	0	0	554	415	0	0	0	0	
15	0	0	0	0	546	409	0	0	0	0	
0	0	0	0	0	538	403	0	0	0	0	
1	0	0	0	0	530	398	0	0	0	0	
2	0	0	0	0	524	394	0	0	0	0	
3	0	0	0	0	519	391	0	0	0	0	
4	0	0	0	0	517	389	0	0	0	0	
5	0	0	0	0	516	389	0	0	0	0	
6	0	0	0	0	517	389	0	0	0	0	
7	0	0	0	0	519	391	0	0	0	0	
8	0	0	0	0	521	393	0	0	0	0	
9	0	0	0	0	524	396	0	0	0	0	
10	0	0	0	0	527	398	0	0	0	0	
11	0	0	0	0	530	400	0	0	0	0	
12	0	0	0	0	532	401	0	0	0	0	
13	0	0	0	0	535	403	0	0	0	0	
14	0	0	0	0	536	404	0	0	0	0	
15	0	0	0	0	537	404	0	0	0	0	
0	0	0	0	0	537	404	0	0	0	0	
1	0	0	0	0	538	405	0	0	0	0	
2	0	0	0	0	539	405	0	0	0	0	
3	0	0	0	0	540	405	0	0	0	0	
4	0	0	0	0	540	405	0	0	0	0	
5	0	0	0	0	541	405	0	0	0	0	
6	0	0	0	0	543	406	0	0	0	0	
7	0	0	0	0	544	407	0	0	0	0	
8	0	0	0	0	546	409	0	0	0	0	
9	0	0	0	0	548	411	0	0	0	0	
10	0	0	0	0	551	414	0	0	0	0	
11	0	0	0	0	553	416	0	0	0	0	
12	0	0	0	0	557	420	0	0	0	0	
13	0	0	0	0	560	423	0	0	0	0	
14	0	0	0	0	563	426	0	0	0	0	
15	0	0	0	0	565	428	0	0	0	0	
0	0	0	0	0	565	429	0	0	0	0	
1	0	0	0	0	565	429	0	0	0	0	
2	0	0	0	0	563	427	0	0	0	0	
3	0	0	0	0	559	423	0	0	0	0	
4	0	0	0	0	553	417	0	0	0	0	
5	0	0	0	0	545	411	0	0	0	0	
6	0	0	0	0	537	403	0	0	0	0	
7	0	0	0	0	528	395	0	0	0	0	
8	0	0	0	0	519	387	0	0	0	0	
9	0	0	0	0	511	380	0	0	0	0	
10	0	0	0	0	505	376	0	0	0	0	
11	0	0	0	0	503	374	0	0	0	0	
12	0	0	0	0	502	375	0	0	0	0	
13	0	0	0	0	504	377	0	0	0	0	
14	0	0	0	0	508	382	0	0	0	0	
15	0	0	0	0	513	388	0	0	0	0	
0	0	0	0	0	521	395	0	0	0	0	
1	0	0	0	0	528	402	0	0	0	0	
2	0	0	0	0	536	409	0	0	0	0	
3	0	0	0	0	543	415	0	0	0	0	
4	0	0	0	0	548	420	0	0	0	0	
5	0	0	0	0	552	423	0	0	0	0	
6	0	0	0	0	555	425	0	0	0	0	
7	0	0	0	0	555	425	0	0	0	0	
8	0	0	0	0	553	423	0	0	0	0	
9	0	0	0	0	550	421	0	0	0	0	
10	0	0	0	0	546	417	0	0	0	0	
11	0	0	0	0	542	414	0	0	0	0	
12	0	0	0	0	537	410	0	0	0	0	
13	0	0	0	0	533	406	0	0	0	0	
14	0	0	0	0	529	404	0	0	0	0	
15	0	0	0	0	527	403	0	0	0	0	
0	0	0	0	0	527	403	0	0	0	0	
1	0	0	0	0	528	404	0	0	0	0	
2	0	0	0	0	531	406	0	0	0	0	
3	0	0	0	0	533	409	0	0	0	0	
4	0	0	0	0	536	412	0	0	0	0	
5	0	0	0	0	540	416	0	0	0	0	
6	0	0	0	0	543	419	0	0	0	0	
7	0	0	0	0	545	421	0	0	0	0	
8	0	0	0	0	547	422	0	0	0	0	
9	0	0	0	0	548	423	0	0	0	0	
10	0	0	0	0	548	422	0	0	0	0	
11	0	0	0	0	547	422	0	0	0	0	
12	0	0	0	0	547	420	0	0	0	0	
13	0	0	0	0	545	418	0	0	0	0	
14	0	0	0	0	544	416	0	0	0	0	
15	0	0	0	0	542	414	0	0	0	0	
0	0	0	0	0	540	412	0	0	0	0	
1	0	0	0	0	539	411	0	0	0	0	
2	0	0	0	0	538	409	0	0	0	0	
3	0	0	0	0	538	409	0	0	0	0	
4	0	0	0	0	538	409	0	0	0	0	
5	0	0	0	0	539	410	0	0	0	0	
6	0	0	0	0	540	412	0	0	0	0	
7	0	0	0	0	542	414	0	0	0	0	
8	0	0	0	0	545	417	0	0	0	0	
9	0	0	0	0	548	420	0	0	0	0	
10	0	0	0	0	552	424	0	0	0	0	
11	0	0	0	0	556	428	0	0	0	0	
12	0	0	0	0	560	432	0	0	0	0	
13	0	0	0	0	564	435	0	0	0	0	
14	0	0	0	0	568	438	0	0	0	0	
15	0	0	0	0	571	440	0	0	0	0	
0	0	0	0	0	573	441	0	0	0	0	
1	0	0	0	0	574	441	0	0	0	0	
2	0	0	0	0	574	441	0	0	0	0	
3	0	0	0	0	573	440	0	0	0	0	
4	0	0	0	0	571	438	0	0	0	0	
5	0	0	0	0	569	435	0	0	0	0	
6	0	0	0	0	566	432	0	0	0	0	
7	0	0	0	0	562	429	0	0	0	0	
8	0	0	0	0	558	425	0	0	0	0	
9	0	0	0	0	552	422	0	0	0	0	
10	0	0	0	0	546	417	0	0	0	0	
11	0	0	0	0	539	411	0	0	0	0	
12	0	0	0	0	532	406	0	0	0	0	
13	0	0	0	0	525	400	0	0	0	0	
14	0	0	0	0	518	394	0	0	0	0	
15	0	0	0	0	511	388	0	0	0	0	
0	0	0	0	0	506	384	0	0	0	0	
1	0	0	0	0	502	380	0	0	0	0	
2	0	0	0	0	499	377	0	0	0	0	
3	0	0	0	0	498	375	0	0	0	0	
4	0	0	0	0	499	375	0	0	0	0	
5	0	0	0	0	500	375	0	0	0	0	
6	0	0	0	0	504	376	0	0	0	0	
7	0	0	0	0	508	379	0	0	0	0	
8	0	0	0	0	514	383	0	0	0	0	
9	0	0	0	0	520	388	0	0	0	0	
10	0	0	0	0	527	394	0	0	0	0	
11	0	0	0	0	536	401	0	0	0	0	
12	0	0	0	0	543	409	0	0	0	0	
13	0	0	0	0	551	417	0	0	0	0	
14	0	0	0	0	558	425	0	0	0	0	
15	0	0	0	0	564	432	0	0	0	0	
0	0	0	0	0	569	438	0	0	0	0	
1	0	0	0	0	572	442	0	0	0	0	
2	0	0	0	0	573	445	0	0	0	0	
3	0	0	0	0	572	445	0	0	0	0	
4	0	0	0	0	568	443	0	0	0	0	
5	0	0	0	0	563	440	0	0	0	0	
6	0	0	0	0	556	435	0	0	0	0	
7	0	0	0	0	548	429	0	0	0	0	
8	0	0	0	0	541	423	0	0	0	0	
9	0	0	0	0	535	417	0	0	0	0	
10	0	0	0	0	529	412	0	0	0	0	
11	0	0	0	0	526	409	0	0	0	0	
12	0	0	0	0	524	407	0	0	0	0	
13	0	0	0	0	523	405	0	0	0	0	
14	0	0	0	0	525	405	0	0	0	0	
15	0	0	0	0	527	407	0	0	0	0	
0	0	0	0	0	530	408	0	0	0	0	
1	0	0	0	0	534	409	0	0	0	0	
2	0	0	0	0	537	410	0	0	0	0	
3	0	0	0	0	538	410	0	0	0	0	
4	0	0	0	0	538	409	0	0	0	0	
5	0	0	0	0	536	406	0	0	0	0	
6	0	0	0	0	531	402	0	0	0	0	
7	0	0	0	0	523	394	0	0	0	0	
8	0	0	0	0	512	385	0	0	0	0	
9	0	0	0	0	498	373	0	0	0	0	
10	0	0	0	0	481	359	0	0	0	0	
11	0	0	0	0	463	342	0	0	0	0	
12	0	0	0	0	443	323	0	0	0	0	
13	0	0	0	0	420	304	0	0	0	0	
14	0	0	0	0	399	283	0	0	0	0	
15	0	0	0	0	376	263	0	0	0	0	
0	0	0	0	0	355	242	0	0	0	0	
1	0	0	0	0	335	223	0	0	0	0	
2	0	0	0	0	318	205	0	0	0	0	
3	0	0	0	0	304	190	0	0	0	0	
4	0	0	0	0	293	178	0	0	0	0	
5	0	0	0	0	285	168	0	0	0	0	
6	0	0	0	0	281	163	0	0	0	0	
7	0	0	0	0	282	162	0	0	0	0	
8	0	0	0	0	287	164	0	0	0	0	
9	0	0	0	0	296	171	0	0	0	0	
10	0	0	0	0	309	181	0	0	0	0	
11	0	0	0	0	325	194	0	0	0	0	
12	0	0	0	0	343	209	0	0	0	0	
13	0	0	0	0	364	227	0	0	0	0	
14	0	0	0	0	386	246	0	0	0	0	
15	0	0	0	0	408	266	0	0	0	0	
0	0	0	0	0	431	286	0	0	0	0	
1	0	0	0	0	452	305	0	0	0	0	
2	0	0	0	0	471	323	0	0	0	0	
3	0	0	0	0	488	340	0	0	0	0	
4	0	0	0	0	503	355	0	0	0	0	
5	0	0	0	0	514	368	0	0	0	0	
6	0	0	0	0	524	380	0	0	0	0	
7	0	0	0	0	531	390	0	0	0	0	
8	0	0	0	0	537	399	0	0	0	0	
9	0	0	0	0	542	407	0	0	0	0	
10	0	0	0	0	545	414	0	0	0	0	
11	0	0	0	0	548	420	0	0	0	0	
12	0	0	0	0	552	427	0	0	0	0	
13	0	0	0	0	556	433	0	0	0	0	
14	0	0	0	0	559	438	0	0	0	0	
15	0	0	0	0	563	443	0	0	0	0	
0	0	0	0	0	566	447	0	0	0	0	
1	0	0	0	0	569	449	0	0	0	0	
2	0	0	0	0	572	451	0	0	0	0	
3	0	0	0	0	573	451	0	0	0	0	
4	0	0	0	0	573	450	0	0	0	0	
5	0	0	0	0	573	448	0	0	0	0	
6	0	0	0	0	571	444	0	0	0	0	
7	0	0	0	0	568	440	0	0	0	0	
8	0	0	0	0	564	435	0	0	0	0	
9	0	0	0	0	560	431	0	0	0	0	
10	0	0	0	0	555	426	0	0	0	0	
11	0	0	0	0	550	421	0	0	0	0	
12	0	0	0	0	545	417	0	0	0	0	
13	0	0	0	0	540	414	0	0	0	0	
14	0	0	0	0	536	411	0	0	0	0	
15	0	0	0	0	534	411	0	0	0	0	
0	0	0	0	0	533	412	0	0	0	0	
1	0	0	0	0	534	414	0	0	0	0	
2	0	0	0	0	537	417	0	0	0	0	
3	0	0	0	0	541	422	0	0	0	0	
4	0	0	0	0	547	427	0	0	0	0	
5	0	0	0	0	554	432	0	0	0	0	
6	0	0	0	0	560	437	0	0	0	0	
7	0	0	0	0	567	442	0	0	0	0	
8	0	0	0	0	573	446	0	0	0	0	
9	0	0	0	0	578	450	0	0	0	0	
10	0	0	0	0	582	452	0	0	0	0	
11	0	0	0	0	585	455	0	0	0	0	
12	0	0	0	0	588	457	0	0	0	0	
13	0	0	0	0	589	460	0	0	0	0	
14	0	0	0	0	590	462	0	0	0	0	
15	0	0	0	0	590	463	0	0	0	0	
0	0	0	0	0	590	464	0	0	0	0	
1	0	0	0	0	590	466	0	0	0	0	
2	0	0	0	0	588	467	0	0	0	0	
3	0	0	0	0	589	469	0	0	0	0	
4	0	0	0	0	588	470	0	0	0	0	
5	0	0	0	0	588	471	0	0	0	0	
6	0	0	0	0	587	471	0	0	0	0	
7	0	0	0	0	585	470	0	0	0	0	
8	0	0	0	0	583	467	0	0	0	0	
9	0	0	0	0	579	463	0	0	0	0	
10	0	0	0	0	574	458	0	0	0	0	
11	0	0	0	0	568	451	0	0	0	0	
12	0	0	0	0	561	444	0	0	0	0	
13	0	0	0	0	554	435	0	0	0	0	
14	0	0	0	0	547	428	0	0	0	0	
15	0	0	0	0	540	420	0	0	0	0	
0	0	0	0	0	535	415	0	0	0	0	
1	0	0	0	0	531	410	0	0	0	0	
2	0	0	0	0	528	408	0	0	0	0	
3	0	0	0	0	527	408	0	0	0	0	
4	0	0	0	0	528	408	0	0	0	0	
5	0	0	0	0	531	412	0	0	0	0	
6	0	0	0	0	535	416	0	0	0	0	
7	0	0	0	0	539	420	0	0	0	0	
8	0	0	0	0	544	426	0	0	0	0	
9	0	0	0	0	549	431	0	0	0	0	
10	0	0	0	0	554	436	0	0	0	0	
11	0	0	0	0	558	440	0	0	0	0	
12	0	0	0	0	561	443	0	0	0	0	
13	0	0	0	0	563	444	0	0	0	0	
14	0	0	0	0	564	445	0	0	0	0	
15	0	0	0	0	565	445	0	0	0	0	
0	0	0	0	0	565	445	0	0	0	0	
1	0	0	0	0	564	444	0	0	0	0	
2	0	0	0	0	564	444	0	0	0	0	
3	0	0	0	0	563	443	0	0	0	0	
4	0	0	0	0	563	442	0	0	0	0	
5	0	0	0	0	562	441	0	0	0	0	
6	0	0	0	0	561	440	0	0	0	0	
7	0	0	0	0	560	440	0	0	0	0	
8	0	0	0	0	558	438	0	0	0	0	
9	0	0	0	0	556	437	0	0	0	0	
10	0	0	0	0	553	435	0	0	0	0	
11	0	0	0	0	550	433	0	0	0	0	
12	0	0	0	0	546	430	0	0	0	0	
13	0	0	0	0	543	428	0	0	0	0	
14	0	0	0	0	539	425	0	0	0	0	
15	0	0	0	0	536	423	0	0	0	0	
0	0	0	0	0	534	422	0	0	0	0	
1	0	0	0	0	533	421	0	0	0	0	
2	0	0	0	0	533	420	0	0	0	0	
3	0	0	0	0	534	421	0	0	0	0	
4	0	0	0	0	536	422	0	0	0	0	
5	0	0	0	0	540	424	0	0	0	0	
6	0	0	0	0	544	427	0	0	0	0	
7	0	0	0	0	549	430	0	0	0	0	
8	0	0	0	0	554	433	0	0	0	0	
9	0	0	0	0	559	437	0	0	0	0	
10	0	0	0	0	564	441	0	0	0	0	
11	0	0	0	0	569	445	0	0	0	0	
12	0	0	0	0	574	449	0	0	0	0	
13	0	0	0	0	578	453	0	0	0	0	
14	0	0	0	0	580	456	0	0	0	0	
15	0	0	0	0	583	459	0	0	0	0	
0	0	0	0	0	584	461	0	0	0	0	
1	0	0	0	0	584	462	0	0	0	0	
2	0	0	0	0	583	463	0	0	0	0	
3	0	0	0	0	581	463	0	0	0	0	
4	0	0	0	0	578	462	0	0	0	0	
5	0	0	0	0	574	459	0	0	0	0	
6	0	0	0	0	568	456	0	0	0	0	
7	0	0	0	0	563	452	0	0	0	0	
8	0	0	0	0	556	447	0	0	0	0	
9	0	0	0	0	550	441	0	0	0	0	
10	0	0	0	0	544	436	0	0	0	0	
11	0	0	0	0	539	430	0	0	0	0	
12	0	0	0	0	533	425	0	0	0	0	
13	0	0	0	0	529	420	0	0	0	0	
14	0	0	0	0	526	415	0	0	0	0	
15	0	0	0	0	524	413	0	0	0	0	
0	0	0	0	0	523	410	0	0	0	0	
1	0	0	0	0	523	409	0	0	0	0	
2	0	0	0	0	524	409	0	0	0	0	
3	0	0	0	0	525	409	0	0	0	0	
4	0	0	0	0	526	410	0	0	0	0	
5	0	0	0	0	527	411	0	0	0	0	
6	0	0	0	0	527	412	0	0	0	0	
7	0	0	0	0	528	413	0	0	0	0	
8	0	0	0	0	529	414	0	0	0	0	
9	0	0	0	0	529	415	0	0	0	0	
10	0	0	0	0	530	416	0	0	0	0	
11	0	0	0	0	531	417	0	0	0	0	
12	0	0	0	0	532	418	0	0	0	0	
13	0	0	0	0	533	419	0	0	0	0	
14	0	0	0	0	535	419	0	0	0	0	
15	0	0	0	0	536	420	0	0	0	0	
0	0	0	0	0	538	421	0	0	0	0	
1	0	0	0	0	540	422	0	0	0	0	
2	0	0	0	0	542	423	0	0	0	0	
3	0	0	0	0	543	423	0	0	0	0	
4	0	0	0	0	545	425	0	0	0	0	
5	0	0	0	0	547	427	0	0	0	0	
6	0	0	0	0	548	428	0	0	0	0	
7	0	0	0	0	550	430	0	0	0	0	
8	0	0	0	0	552	432	0	0	0	0	
9	0	0	0	0	554	434	0	0	0	0	
10	0	0	0	0	555	436	0	0	0	0	
11	0	0	0	0	556	437	0	0	0	0	
12	0	0	0	0	556	437	0	0	0	0	
13	0	0	0	0	556	436	0	0	0	0	
14	0	0	0	0	553	435	0	0	0	0	
15	0	0	0	0	551	432	0	0	0	0	
0	0	0	0	0	547	429	0	0	0	0	
1	0	0	0	0	543	425	0	0	0	0	
2	0	0	0	0	540	423	0	0	0	0	
3	0	0	0	0	536	420	0	0	0	0	
4	0	0	0	0	534	418	0	0	0	0	
5	0	0	0	0	532	417	0	0	0	0	
6	0	0	0	0	531	417	0	0	0	0	
7	0	0	0	0	533	419	0	0	0	0	
8	0	0	0	0	536	422	0	0	0	0	
9	0	0	0	0	540	425	0	0	0	0	
10	0	0	0	0	543	430	0	0	0	0	
11	0	0	0	0	547	434	0	0	0	0	
12	0	0	0	0	552	438	0	0	0	0	
13	0	0	0	0	556	441	0	0	0	0	
14	0	0	0	0	558	444	0	0	0	0	
15	0	0	0	0	560	445	0	0	0	0	
0	0	0	0	0	559	445	0	0	0	0	
1	0	0	0	0	556	442	0	0	0	0	
2	0	0	0	0	552	438	0	0	0	0	
3	0	0	0	0	546	432	0	0	0	0	
4	0	0	0	0	539	425	0	0	0	0	
5	0	0	0	0	531	417	0	0	0	0	
6	0	0	0	0	522	410	0	0	0	0	
7	0	0	0	0	514	402	0	0	0	0	
8	0	0	0	0	507	395	0	0	0	0	
9	0	0	0	0	501	389	0	0	0	0	
10	0	0	0	0	496	384	0	0	0	0	
11	0	0	0	0	492	381	0	0	0	0	
12	0	0	0	0	491	379	0	0	0	0	
13	0	0	0	0	491	379	0	0	0	0	
14	0	0	0	0	492	380	0	0	0	0	
15	0	0	0	0	495	382	0	0	0	0	
0	0	0	0	0	499	386	0	0	0	0	
1	0	0	0	0	503	390	0	0	0	0	
2	0	0	0	0	509	395	0	0	0	0	
3	0	0	0	0	513	399	0	0	0	0	
4	0	0	0	0	519	403	0	0	0	0	
5	0	0	0	0	523	406	0	0	0	0	
6	0	0	0	0	527	408	0	0	0	0	
7	0	0	0	0	529	410	0	0	0	0	
8	0	0	0	0	531	411	0	0	0	0	
9	0	0	0	0	531	412	0	0	0	0	
10	0	0	0	0	531	412	0	0	0	0	
11	0	0	0	0	531	412	0	0	0	0	
12	0	0	0	0	530	412	0	0	0	0	
13	0	0	0	0	529	412	0	0	0	0	
14	0	0	0	0	529	412	0	0	0	0	
15	0	0	0	0	529	413	0	0	0	0	
0	0	0	0	0	529	414	0	0	0	0	
1	0	0	0	0	529	415	0	0	0	0	
2	0	0	0	0	529	416	0	0	0	0	
3	0	0	0	0	530	417	0	0	0	0	
4	0	0	0	0	531	418	0	0	0	0	
5	0	0	0	0	531	418	0	0	0	0	
6	0	0	0	0	531	419	0	0	0	0	
7	0	0	0	0	530	417	0	0	0	0	
8	0	0	0	0	529	416	0	0	0	0	
9	0	0	0	0	528	415	0	0	0	0	
10	0	0	0	0	527	413	0	0	0	0	
11	0	0	0	0	526	411	0	0	0	0	
12	0	0	0	0	524	409	0	0	0	0	
13	0	0	0	0	523	408	0	0	0	0	
14	0	0	0	0	523	406	0	0	0	0	
15	0	0	0	0	523	406	0	0	0	0	
0	0	0	0	0	523	406	0	0	0	0	
1	0	0	0	0	525	408	0	0	0	0	
2	0	0	0	0	528	409	0	0	0	0	
3	0	0	0	0	531	413	0	0	0	0	
4	0	0	0	0	536	417	0	0	0	0	
5	0	0	0	0	540	421	0	0	0	0	
6	0	0	0	0	544	426	0	0	0	0	
7	0	0	0	0	547	430	0	0	0	0	
8	0	0	0	0	551	434	0	0	0	0	
9	0	0	0	0	553	438	0	0	0	0	
10	0	0	0	0	555	440	0	0	0	0	
11	0	0	0	0	555	442	0	0	0	0	
12	0	0	0	0	554	442	0	0	0	0	
13	0	0	0	0	552	441	0	0	0	0	
14	0	0	0	0	550	439	0	0	0	0	
15	0	0	0	0	545	436	0	0	0	0	
0	0	0	0	0	541	432	0	0	0	0	
1	0	0	0	0	536	427	0	0	0	0	
2	0	0	0	0	531	422	0	0	0	0	
3	0	0	0	0	527	417	0	0	0	0	
4	0	0	0	0	523	412	0	0	0	0	
5	0	0	0	0	519	408	0	0	0	0	
6	0	0	0	0	516	405	0	0	0	0	
7	0	0	0	0	515	403	0	0	0	0	
8	0	0	0	0	514	402	0	0	0	0	
9	0	0	0	0	513	401	0	0	0	0	
10	0	0	0	0	514	401	0	0	0	0	
11	0	0	0	0	515	402	0	0	0	0	
12	0	0	0	0	517	404	0	0	0	0	
13	0	0	0	0	519	406	0	0	0	0	
14	0	0	0	0	522	408	0	0	0	0	
15	0	0	0	0	524	411	0	0	0	0	
0	0	0	0	0	527	413	0	0	0	0	
1	0	0	0	0	529	415	0	0	0	0	
2	0	0	0	0	532	416	0	0	0	0	
3	0	0	0	0	534	418	0	0	0	0	
4	0	0	0	0	535	419	0	0	0	0	
5	0	0	0	0	536	419	0	0	0	0	
6	0	0	0	0	537	418	0	0	0	0	
7	0	0	0	0	537	418	0	0	0	0	
8	0	0	0	0	538	418	0	0	0	0	
9	0	0	0	0	539	418	0	0	0	0	
10	0	0	0	0	540	419	0	0	0	0	
11	0	0	0	0	541	420	0	0	0	0	
12	0	0	0	0	542	421	0	0	0	0	
13	0	0	0	0	543	423	0	0	0	0	
14	0	0	0	0	545	424	0	0	0	0	
15	0	0	0	0	545	425	0	0	0	0	
0	0	0	0	0	546	427	0	0	0	0	
1	0	0	0	0	547	428	0	0	0	0	
2	0	0	0	0	548	430	0	0	0	0	
3	0	0	0	0	548	431	0	0	0	0	
4	0	0	0	0	548	432	0	0	0	0	
5	0	0	0	0	548	432	0	0	0	0	
6	0	0	0	0	548	432	0	0	0	0	
7	0	0	0	0	547	432	0	0	0	0	
8	0	0	0	0	546	431	0	0	0	0	
9	0	0	0	0	545	431	0	0	0	0	
10	0	0	0	0	545	431	0	0	0	0	
11	0	0	0	0	546	432	0	0	0	0	
12	0	0	0	0	547	433	0	0	0	0	
13	0	0	0	0	549	434	0	0	0	0	
14	0	0	0	0	550	435	0	0	0	0	
15	0	0	0	0	552	438	0	0	0	0	
0	0	0	0	0	554	439	0	0	0	0	
1	0	0	0	0	556	440	0	0	0	0	
2	0	0	0	0	557	441	0	0	0	0	
3	0	0	0	0	558	442	0	0	0	0	
4	0	0	0	0	558	442	0	0	0	0	
5	0	0	0	0	556	441	0	0	0	0	
6	0	0	0	0	554	439	0	0	0	0	
7	0	0	0	0	551	436	0	0	0	0	
8	0	0	0	0	548	432	0	0	0	0	
9	0	0	0	0	544	429	0	0	0	0	
10	0	0	0	0	541	424	0	0	0	0	
11	0	0	0	0	537	420	0	0	0	0	
12	0	0	0	0	534	416	0	0	0	0	
13	0	0	0	0	531	412	0	0	0	0	
14	0	0	0	0	530	410	0	0	0	0	
15	0	0	0	0	529	409	0	0	0	0	
0	0	0	0	0	529	408	0	0	0	0	
1	0	0	0	0	530	408	0	0	0	0	
2	0	0	0	0	531	409	0	0	0	0	
3	0	0	0	0	532	411	0	0	0	0	
4	0	0	0	0	534	413	0	0	0	0	
5	0	0	0	0	536	416	0	0	0	0	
6	0	0	0	0	538	419	0	0	0	0	
7	0	0	0	0	541	423	0	0	0	0	
8	0	0	0	0	544	428	0	0	0	0	
9	0	0	0	0	547	432	0	0	0	0	
10	0	0	0	0	550	436	0	0	0	0	
11	0	0	0	0	552	440	0	0	0	0	
12	0	0	0	0	555	444	0	0	0	0	
13	0	0	0	0	556	446	0	0	0	0	
14	0	0	0	0	558	448	0	0	0	0	
15	0	0	0	0	558	448	0	0	0	0	
0	0	0	0	0	558	448	0	0	0	0	
1	0	0	0	0	557	446	0	0	0	0	
2	0	0	0	0	555	444	0	0	0	0	
3	0	0	0	0	553	441	0	0	0	0	
4	0	0	0	0	551	438	0	0	0	0	
5	0	0	0	0	549	435	0	0	0	0	
6	0	0	0	0	547	432	0	0	0	0	
7	0	0	0	0	545	430	0	0	0	0	
8	0	0	0	0	544	429	0	0	0	0	
9	0	0	0	0	543	428	0	0	0	0	
10	0	0	0	0	543	429	0	0	0	0	
11	0	0	0	0	544	431	0	0	0	0	
12	0	0	0	0	546	433	0	0	0	0	
13	0	0	0	0	548	437	0	0	0	0	
14	0	0	0	0	551	440	0	0	0	0	
15	0	0	0	0	555	444	0	0	0	0	
0	0	0	0	0	558	447	0	0	0	0	
1	0	0	0	0	560	449	0	0	0	0	
2	0	0	0	0	563	450	0	0	0	0	
3	0	0	0	0	563	451	0	0	0	0	
4	0	0	0	0	563	449	0	0	0	0	
5	0	0	0	0	562	448	0	0	0	0	
6	0	0	0	0	560	445	0	0	0	0	
7	0	0	0	0	557	440	0	0	0	0	
8	0	0	0	0	553	436	0	0	0	0	
9	0	0	0	0	548	431	0	0	0	0	
10	0	0	0	0	543	426	0	0	0	0	
11	0	0	0	0	539	422	0	0	0	0	
12	0	0	0	0	535	419	0	0	0	0	
13	0	0	0	0	532	417	0	0	0	0	
14	0	0	0	0	530	415	0	0	0	0	
15	0	0	0	0	529	415	0	0	0	0	
0	0	0	0	0	528	415	0	0	0	0	
1	0	0	0	0	528	416	0	0	0	0	
2	0	0	0	0	530	419	0	0	0	0	
3	0	0	0	0	532	422	0	0	0	0	
4	0	0	0	0	536	425	0	0	0	0	
5	0	0	0	0	540	428	0	0	0	0	
6	0	0	0	0	543	432	0	0	0	0	
7	0	0	0	0	548	435	0	0	0	0	
8	0	0	0	0	551	437	0	0	0	0	
9	0	0	0	0	554	439	0	0	0	0	
10	0	0	0	0	556	440	0	0	0	0	
11	0	0	0	0	556	439	0	0	0	0	
12	0	0	0	0	556	438	0	0	0	0	
13	0	0	0	0	555	437	0	0	0	0	
14	0	0	0	0	553	435	0	0	0	0	
15	0	0	0	0	551	433	0	0	0	0	
0	0	0	0	0	549	432	0	0	0	0	
1	0	0	0	0	546	430	0	0	0	0	
2	0	0	0	0	543	428	0	0	0	0	
3	0	0	0	0	540	426	0	0	0	0	
4	0	0	0	0	537	423	0	0	0	0	
5	0	0	0	0	533	421	0	0	0	0	
6	0	0	0	0	529	417	0	0	0	0	
7	0	0	0	0	525	415	0	0	0	0	
8	0	0	0	0	521	411	0	0	0	0	
9	0	0	0	0	518	408	0	0	0	0	
10	0	0	0	0	515	405	0	0	0	0	
11	0	0	0	0	512	402	0	0	0	0	
12	0	0	0	0	510	399	0	0	0	0	
13	0	0	0	0	509	398	0	0	0	0	
14	0	0	0	0	509	398	0	0	0	0	
15	0	0	0	0	511	398	0	0	0	0	
0	0	0	0	0	513	400	0	0	0	0	
1	0	0	0	0	518	403	0	0	0	0	
2	0	0	0	0	523	408	0	0	0	0	
3	0	0	0	0	529	413	0	0	0	0	
4	0	0	0	0	535	419	0	0	0	0	
5	0	0	0	0	541	425	0	0	0	0	
6	0	0	0	0	545	430	0	0	0	0	
7	0	0	0	0	551	436	0	0	0	0	
8	0	0	0	0	554	440	0	0	0	0	
9	0	0	0	0	557	444	0	0	0	0	
10	0	0	0	0	559	447	0	0	0	0	
11	0	0	0	0	559	448	0	0	0	0	
12	0	0	0	0	558	449	0	0	0	0	
13	0	0	0	0	557	448	0	0	0	0	
14	0	0	0	0	554	447	0	0	0	0	
15	0	0	0	0	551	444	0	0	0	0	
0	0	0	0	0	547	442	0	0	0	0	
1	0	0	0	0	544	439	0	0	0	0	
2	0	0	0	0	542	436	0	0	0	0	
3	0	0	0	0	540	435	0	0	0	0	
4	0	0	0	0	539	433	0	0	0	0	
5	0	0	0	0	538	433	0	0	0	0	
6	0	0	0	0	539	433	0	0	0	0	
7	0	0	0	0	541	435	0	0	0	0	
8	0	0	0	0	544	437	0	0	0	0	
9	0	0	0	0	547	439	0	0	0	0	
10	0	0	0	0	551	442	0	0	0	0	
11	0	0	0	0	555	445	0	0	0	0	
12	0	0	0	0	558	447	0	0	0	0	
13	0	0	0	0	559	449	0	0	0	0	
14	0	0	0	0	560	449	0	0	0	0	
15	0	0	0	0	558	448	0	0	0	0	
0	0	0	0	0	556	446	0	0	0	0	
1	0	0	0	0	552	442	0	0	0	0	
2	0	0	0	0	547	437	0	0	0	0	
3	0	0	0	0	542	432	0	0	0	0	
4	0	0	0	0	536	427	0	0	0	0	
5	0	0	0	0	531	423	0	0	0	0	
6	0	0	0	0	527	418	0	0	0	0	
7	0	0	0	0	524	415	0	0	0	0	
8	0	0	0	0	522	413	0	0	0	0	
9	0	0	0	0	521	412	0	0	0	0	
10	0	0	0	0	522	412	0	0	0	0	
11	0	0	0	0	523	413	0	0	0	0	
12	0	0	0	0	525	415	0	0	0	0	
13	0	0	0	0	527	417	0	0	0	0	
14	0	0	0	0	529	420	0	0	0	0	
15	0	0	0	0	532	423	0	0	0	0	
0	0	0	0	0	534	427	0	0	0	0	
1	0	0	0	0	536	430	0	0	0	0	
2	0	0	0	0	538	433	0	0	0	0	
3	0	0	0	0	540	435	0	0	0	0	
4	0	0	0	0	540	438	0	0	0	0	
5	0	0	0	0	541	439	0	0	0	0	
6	0	0	0	0	540	439	0	0	0	0	
7	0	0	0	0	540	439	0	0	0	0	
8	0	0	0	0	538	437	0	0	0	0	
9	0	0	0	0	536	435	0	0	0	0	
10	0	0	0	0	535	433	0	0	0	0	
11	0	0	0	0	532	431	0	0	0	0	
12	0	0	0	0	529	428	0	0	0	0	
13	0	0	0	0	527	426	0	0	0	0	
14	0	0	0	0	525	423	0	0	0	0	
15	0	0	0	0	523	422	0	0	0	0	
0	0	0	0	0	522	421	0	0	0	0	
1	0	0	0	0	521	420	0	0	0	0	
2	0	0	0	0	520	420	0	0	0	0	
3	0	0	0	0	520	421	0	0	0	0	
4	0	0	0	0	521	422	0	0	0	0	
5	0	0	0	0	523	424	0	0	0	0	
6	0	0	0	0	525	427	0	0	0	0	
7	0	0	0	0	527	430	0	0	0	0	
8	0	0	0	0	531	432	0	0	0	0	
9	0	0	0	0	535	435	0	0	0	0	
10	0	0	0	0	539	438	0	0	0	0	
11	0	0	0	0	542	439	0	0	0	0	
12	0	0	0	0	544	440	0	0	0	0	
13	0	0	0	0	546	440	0	0	0	0	
14	0	0	0	0	547	439	0	0	0	0	
15	0	0	0	0	545	437	0	0	0	0	
0	0	0	0	0	544	435	0	0	0	0	
1	0	0	0	0	541	432	0	0	0	0	
2	0	0	0	0	537	430	0	0	0	0	
3	0	0	0	0	534	427	0	0	0	0	
4	0	0	0	0	531	425	0	0	0	0	
5	0	0	0	0	528	425	0	0	0	0	
6	0	0	0	0	527	425	0	0	0	0	
7	0	0	0	0	526	426	0	0	0	0	
8	0	0	0	0	528	429	0	0	0	0	
9	0	0	0	0	531	432	0	0	0	0	
10	0	0	0	0	534	435	0	0	0	0	
11	0	0	0	0	538	439	0	0	0	0	
12	0	0	0	0	542	443	0	0	0	0	
13	0	0	0	0	546	446	0	0	0	0	
14	0	0	0	0	550	448	0	0	0	0	
15	0	0	0	0	553	451	0	0	0	0	
0	0	0	0	0	556	452	0	0	0	0	
1	0	0	0	0	558	453	0	0	0	0	
2	0	0	0	0	560	454	0	0	0	0	
3	0	0	0	0	562	455	0	0	0	0	
4	0	0	0	0	563	455	0	0	0	0	
5	0	0	0	0	563	456	0	0	0	0	
6	0	0	0	0	564	458	0	0	0	0	
7	0	0	0	0	565	460	0	0	0	0	
8	0	0	0	0	567	463	0	0	0	0	
9	0	0	0	0	569	466	0	0	0	0	
10	0	0	0	0	572	470	0	0	0	0	
11	0	0	0	0	574	473	0	0	0	0	
12	0	0	0	0	575	476	0	0	0	0	
13	0	0	0	0	577	478	0	0	0	0	
14	0	0	0	0	577	479	0	0	0	0	
15	0	0	0	0	576	479	0	0	0	0	
0	0	0	0	0	574	477	0	0	0	0	
1	0	0	0	0	569	473	0	0	0	0	
2	0	0	0	0	564	469	0	0	0	0	
3	0	0	0	0	559	463	0	0	0	0	
4	0	0	0	0	552	457	0	0	0	0	
5	0	0	0	0	545	450	0	0	0	0	
6	0	0	0	0	538	444	0	0	0	0	
7	0	0	0	0	532	438	0	0	0	0	
8	0	0	0	0	527	433	0	0	0	0	
9	0	0	0	0	524	429	0	0	0	0	
10	0	0	0	0	521	426	0	0	0	0	
11	0	0	0	0	520	425	0	0	0	0	
12	0	0	0	0	521	425	0	0	0	0	
13	0	0	0	0	523	426	0	0	0	0	
14	0	0	0	0	525	428	0	0	0	0	
15	0	0	0	0	528	431	0	0	0	0	
0	0	0	0	0	531	435	0	0	0	0	
1	0	0	0	0	535	438	0	0	0	0	
2	0	0	0	0	537	440	0	0	0	0	
3	0	0	0	0	539	442	0	0	0	0	
4	0	0	0	0	539	442	0	0	0	0	
5	0	0	0	0	539	441	0	0	0	0	
6	0	0	0	0	536	439	0	0	0	0	
7	0	0	0	0	533	436	0	0	0	0	
8	0	0	0	0	529	432	0	0	0	0	
9	0	0	0	0	524	427	0	0	0	0	
10	0	0	0	0	519	422	0	0	0	0	
11	0	0	0	0	515	417	0	0	0	0	
12	0	0	0	0	511	413	0	0	0	0	
13	0	0	0	0	508	409	0	0	0	0	
14	0	0	0	0	504	407	0	0	0	0	
15	0	0	0	0	503	405	0	0	0	0	
0	0	0	0	0	503	404	0	0	0	0	
1	0	0	0	0	503	404	0	0	0	0	
2	0	0	0	0	503	405	0	0	0	0	
3	0	0	0	0	505	407	0	0	0	0	
4	0	0	0	0	508	409	0	0	0	0	
5	0	0	0	0	511	413	0	0	0	0	
6	0	0	0	0	515	415	0	0	0	0	
7	0	0	0	0	519	419	0	0	0	0	
8	0	0	0	0	523	423	0	0	0	0	
9	0	0	0	0	527	427	0	0	0	0	
10	0	0	0	0	531	431	0	0	0	0	
11	0	0	0	0	534	434	0	0	0	0	
12	0	0	0	0	538	437	0	0	0	0	
13	0	0	0	0	540	440	0	0	0	0	
14	0	0	0	0	542	441	0	0	0	0	
15	0	0	0	0	543	443	0	0	0	0	
0	0	0	0	0	543	443	0	0	0	0	
1	0	0	0	0	542	443	0	0	0	0	
2	0	0	0	0	540	442	0	0	0	0	
3	0	0	0	0	539	441	0	0	0	0	
4	0	0	0	0	536	440	0	0	0	0	
5	0	0	0	0	533	438	0	0	0	0	
6	0	0	0	0	530	436	0	0	0	0	
7	0	0	0	0	527	434	0	0	0	0	
8	0	0	0	0	525	433	0	0	0	0	
9	0	0	0	0	525	433	0	0	0	0	
10	0	0	0	0	524	434	0	0	0	0	
11	0	0	0	0	526	435	0	0	0	0	
12	0	0	0	0	527	436	0	0	0	0	
13	0	0	0	0	530	438	0	0	0	0	
14	0	0	0	0	532	439	0	0	0	0	
15	0	0	0	0	536	441	0	0	0	0	
0	0	0	0	0	539	442	0	0	0	0	
1	0	0	0	0	542	444	0	0	0	0	
2	0	0	0	0	544	445	0	0	0	0	
3	0	0	0	0	547	446	0	0	0	0	
4	0	0	0	0	547	447	0	0	0	0	
5	0	0	0	0	548	447	0	0	0	0	
6	0	0	0	0	549	448	0	0	0	0	
7	0	0	0	0	548	449	0	0	0	0	
8	0	0	0	0	548	449	0	0	0	0	
9	0	0	0	0	548	450	0	0	0	0	
10	0	0	0	0	547	451	0	0	0	0	
11	0	0	0	0	546	451	0	0	0	0	
12	0	0	0	0	546	452	0	0	0	0	
13	0	0	0	0	546	452	0	0	0	0	
14	0	0	0	0	546	453	0	0	0	0	
15	0	0	0	0	546	454	0	0	0	0	
0	0	0	0	0	545	454	0	0	0	0	
1	0	0	0	0	546	454	0	0	0	0	
2	0	0	0	0	547	454	0	0	0	0	
3	0	0	0	0	547	454	0	0	0	0	
4	0	0	0	0	546	453	0	0	0	0	
5	0	0	0	0	546	452	0	0	0	0	
6	0	0	0	0	546	451	0	0	0	0	
7	0	0	0	0	545	450	0	0	0	0	
8	0	0	0	0	543	449	0	0	0	0	
9	0	0	0	0	542	447	0	0	0	0	
10	0	0	0	0	540	446	0	0	0	0	
11	0	0	0	0	539	444	0	0	0	0	
12	0	0	0	0	537	444	0	0	0	0	
13	0	0	0	0	537	444	0	0	0	0	
14	0	0	0	0	536	445	0	0	0	0	
15	0	0	0	0	537	447	0	0	0	0	
0	0	0	0	0	539	449	0	0	0	0	
1	0	0	0	0	542	452	0	0	0	0	
2	0	0	0	0	544	454	0	0	0	0	
3	0	0	0	0	546	456	0	0	0	0	
4	0	0	0	0	548	457	0	0	0	0	
5	0	0	0	0	549	457	0	0	0	0	
6	0	0	0	0	549	457	0	0	0	0	
7	0	0	0	0	548	455	0	0	0	0	
8	0	0	0	0	546	453	0	0	0	0	
9	0	0	0	0	543	451	0	0	0	0	
10	0	0	0	0	540	447	0	0	0	0	
11	0	0	0	0	536	444	0	0	0	0	
12	0	0	0	0	533	440	0	0	0	0	
13	0	0	0	0	530	437	0	0	0	0	
14	0	0	0	0	526	434	0	0	0	0	
15	0	0	0	0	524	431	0	0	0	0	
0	0	0	0	0	522	429	0	0	0	0	
1	0	0	0	0	520	428	0	0	0	0	
2	0	0	0	0	520	427	0	0	0	0	
3	0	0	0	0	519	426	0	0	0	0	
4	0	0	0	0	520	426	0	0	0	0	
5	0	0	0	0	521	427	0	0	0	0	
6	0	0	0	0	522	428	0	0	0	0	
7	0	0	0	0	523	429	0	0	0	0	
8	0	0	0	0	524	430	0	0	0	0	
9	0	0	0	0	524	430	0	0	0	0	
10	0	0	0	0	524	430	0	0	0	0	
11	0	0	0	0	523	429	0	0	0	0	
12	0	0	0	0	521	427	0	0	0	0	
13	0	0	0	0	518	425	0	0	0	0	
14	0	0	0	0	515	422	0	0	0	0	
15	0	0	0	0	511	419	0	0	0	0	
0	0	0	0	0	507	414	0	0	0	0	
1	0	0	0	0	501	409	0	0	0	0	
2	0	0	0	0	494	403	0	0	0	0	
3	0	0	0	0	487	396	0	0	0	0	
4	0	0	0	0	478	388	0	0	0	0	
5	0	0	0	0	469	380	0	0	0	0	
6	0	0	0	0	459	371	0	0	0	0	
7	0	0	0	0	448	360	0	0	0	0	
8	0	0	0	0	436	350	0	0	0	0	
9	0	0	0	0	423	338	0	0	0	0	
10	0	0	0	0	409	325	0	0	0	0	
11	0	0	0	0	393	310	0	0	0	0	
12	0	0	0	0	376	294	0	0	0	0	
13	0	0	0	0	357	276	0	0	0	0	
14	0	0	0	0	337	257	0	0	0	0	
15	0	0	0	0	316	237	0	0	0	0	
0	0	0	0	0	296	217	0	0	0	0	
1	0	0	0	0	276	197	0	0	0	0	
2	0	0	0	0	259	180	0	0	0	0	
3	0	0	0	0	244	165	0	0	0	0	
4	0	0	0	0	234	155	0	0	0	0	
5	0	0	0	0	230	148	0	0	0	0	
6	0	0	0	0	231	148	0	0	0	0	
7	0	0	0	0	240	154	0	0	0	0	
8	0	0	0	0	255	167	0	0	0	0	
9	0	0	0	0	277	185	0	0	0	0	
10	0	0	0	0	305	209	0	0	0	0	
11	0	0	0	0	337	238	0	0	0	0	
12	0	0	0	0	375	270	0	0	0	0	
13	0	0	0	0	414	304	0	0	0	0	
14	0	0	0	0	454	340	0	0	0	0	
15	0	0	0	0	491	375	0	0	0	0	
0	0	0	0	0	526	408	0	0	0	0	
1	0	0	0	0	556	436	0	0	0	0	
2	0	0	0	0	581	461	0	0	0	0	
3	0	0	0	0	598	480	0	0	0	0	
4	0	0	0	0	608	493	0	0	0	0	
5	0	0	0	0	612	500	0	0	0	0	
6	0	0	0	0	610	503	0	0	0	0	
7	0	0	0	0	603	500	0	0	0	0	
8	0	0	0	0	592	495	0	0	0	0	
9	0	0	0	0	578	487	0	0	0	0	
10	0	0	0	0	564	478	0	0	0	0	
11	0	0	0	0	550	469	0	0	0	0	
12	0	0	0	0	536	460	0	0	0	0	
13	0	0	0	0	525	452	0	0	0	0	
14	0	0	0	0	517	445	0	0	0	0	
15	0	0	0	0	511	440	0	0	0	0	
0	0	0	0	0	509	437	0	0	0	0	
1	0	0	0	0	509	436	0	0	0	0	
2	0	0	0	0	511	436	0	0	0	0	
3	0	0	0	0	515	438	0	0	0	0	
4	0	0	0	0	521	440	0	0	0	0	
5	0	0	0	0	527	444	0	0	0	0	
6	0	0	0	0	534	448	0	0	0	0	
7	0	0	0	0	541	452	0	0	0	0	
8	0	0	0	0	547	456	0	0	0	0	
9	0	0	0	0	552	460	0	0	0	0	
10	0	0	0	0	557	463	0	0	0	0	
11	0	0	0	0	561	467	0	0	0	0	
12	0	0	0	0	564	470	0	0	0	0	
13	0	0	0	0	566	472	0	0	0	0	
14	0	0	0	0	567	474	0	0	0	0	
15	0	0	0	0	568	475	0	0	0	0	
0	0	0	0	0	568	476	0	0	0	0	
1	0	0	0	0	567	476	0	0	0	0	
2	0	0	0	0	564	475	0	0	0	0	
3	0	0	0	0	562	473	0	0	0	0	
4	0	0	0	0	560	472	0	0	0	0	
5	0	0	0	0	556	469	0	0	0	0	
6	0	0	0	0	551	466	0	0	0	0	
7	0	0	0	0	545	462	0	0	0	0	
8	0	0	0	0	540	457	0	0	0	0	
9	0	0	0	0	536	453	0	0	0	0	
10	0	0	0	0	531	449	0	0	0	0	
11	0	0	0	0	527	445	0	0	0	0	
12	0	0	0	0	525	442	0	0	0	0	
13	0	0	0	0	524	440	0	0	0	0	
14	0	0	0	0	527	441	0	0	0	0	
15	0	0	0	0	531	444	0	0	0	0	
0	0	0	0	0	537	448	0	0	0	0	
1	0	0	0	0	545	454	0	0	0	0	
2	0	0	0	0	555	462	0	0	0	0	
3	0	0	0	0	566	471	0	0	0	0	
4	0	0	0	0	576	480	0	0	0	0	
5	0	0	0	0	587	489	0	0	0	0	
6	0	0	0	0	595	497	0	0	0	0	
7	0	0	0	0	602	504	0	0	0	0	
8	0	0	0	0	607	510	0	0	0	0	
9	0	0	0	0	609	513	0	0	0	0	
10	0	0	0	0	608	514	0	0	0	0	
11	0	0	0	0	605	513	0	0	0	0	
12	0	0	0	0	599	510	0	0	0	0	
13	0	0	0	0	592	505	0	0	0	0	
14	0	0	0	0	584	500	0	0	0	0	
15	0	0	0	0	576	494	0	0	0	0	
0	0	0	0	0	567	487	0	0	0	0	
1	0	0	0	0	559	481	0	0	0	0	
2	0	0	0	0	551	475	0	0	0	0	
3	0	0	0	0	546	471	0	0	0	0	
4	0	0	0	0	542	467	0	0	0	0	
5	0	0	0	0	540	465	0	0	0	0	
6	0	0	0	0	539	463	0	0	0	0	
7	0	0	0	0	540	463	0	0	0	0	
8	0	0	0	0	542	463	0	0	0	0	
9	0	0	0	0	545	465	0	0	0	0	
10	0	0	0	0	548	466	0	0	0	0	
11	0	0	0	0	551	467	0	0	0	0	
12	0	0	0	0	554	469	0	0	0	0	
13	0	0	0	0	556	469	0	0	0	0	
14	0	0	0	0	556	469	0	0	0	0	
15	0	0	0	0	556	468	0	0	0	0	
0	0	0	0	0	555	467	0	0	0	0	
1	0	0	0	0	552	465	0	0	0	0	
2	0	0	0	0	550	463	0	0	0	0	
3	0	0	0	0	547	462	0	0	0	0	
4	0	0	0	0	545	460	0	0	0	0	
5	0	0	0	0	543	459	0	0	0	0	
6	0	0	0	0	543	459	0	0	0	0	
7	0	0	0	0	543	460	0	0	0	0	
8	0	0	0	0	544	462	0	0	0	0	
9	0	0	0	0	547	464	0	0	0	0	
10	0	0	0	0	550	466	0	0	0	0	
11	0	0	0	0	553	469	0	0	0	0	
12	0	0	0	0	556	471	0	0	0	0	
13	0	0	0	0	559	473	0	0	0	0	
14	0	0	0	0	561	475	0	0	0	0	
15	0	0	0	0	563	476	0	0	0	0	
0	0	0	0	0	563	477	0	0	0	0	
1	0	0	0	0	564	477	0	0	0	0	
2	0	0	0	0	563	477	0	0	0	0	
3	0	0	0	0	561	476	0	0	0	0	
4	0	0	0	0	559	474	0	0	0	0	
5	0	0	0	0	556	472	0	0	0	0	
6	0	0	0	0	553	469	0	0	0	0	
7	0	0	0	0	550	466	0	0	0	0	
8	0	0	0	0	546	463	0	0	0	0	
9	0	0	0	0	543	460	0	0	0	0	
10	0	0	0	0	541	457	0	0	0	0	
11	0	0	0	0	539	455	0	0	0	0	
12	0	0	0	0	538	453	0	0	0	0	
13	0	0	0	0	538	452	0	0	0	0	
14	0	0	0	0	538	451	0	0	0	0	
15	0	0	0	0	540	452	0	0	0	0	
0	0	0	0	0	541	453	0	0	0	0	
1	0	0	0	0	543	455	0	0	0	0	
2	0	0	0	0	544	457	0	0	0	0	
3	0	0	0	0	546	459	0	0	0	0	
4	0	0	0	0	548	462	0	0	0	0	
5	0	0	0	0	550	465	0	0	0	0	
6	0	0	0	0	551	467	0	0	0	0	
7	0	0	0	0	552	469	0	0	0	0	
8	0	0	0	0	553	471	0	0	0	0	
9	0	0	0	0	553	472	0	0	0	0	
10	0	0	0	0	553	472	0	0	0	0	
11	0	0	0	0	552	471	0	0	0	0	
12	0	0	0	0	551	470	0	0	0	0	
13	0	0	0	0	549	467	0	0	0	0	
14	0	0	0	0	546	464	0	0	0	0	
15	0	0	0	0	544	462	0	0	0	0	
0	0	0	0	0	541	458	0	0	0	0	
1	0	0	0	0	538	455	0	0	0	0	
2	0	0	0	0	536	453	0	0	0	0	
3	0	0	0	0	534	451	0	0	0	0	
4	0	0	0	0	532	449	0	0	0	0	
5	0	0	0	0	531	448	0	0	0	0	
6	0	0	0	0	530	446	0	0	0	0	
7	0	0	0	0	529	446	0	0	0	0	
8	0	0	0	0	529	445	0	0	0	0	
9	0	0	0	0	528	444	0	0	0	0	
10	0	0	0	0	528	444	0	0	0	0	
11	0	0	0	0	528	444	0	0	0	0	
12	0	0	0	0	529	444	0	0	0	0	
13	0	0	0	0	529	443	0	0	0	0	
14	0	0	0	0	529	442	0	0	0	0	
15	0	0	0	0	530	442	0	0	0	0	
0	0	0	0	0	530	442	0	0	0	0	
1	0	0	0	0	531	443	0	0	0	0	
2	0	0	0	0	531	443	0	0	0	0	
3	0	0	0	0	532	444	0	0	0	0	
4	0	0	0	0	533	446	0	0	0	0	
5	0	0	0	0	535	448	0	0	0	0	
6	0	0	0	0	538	451	0	0	0	0	
7	0	0	0	0	541	455	0	0	0	0	
8	0	0	0	0	544	459	0	0	0	0	
9	0	0	0	0	548	463	0	0	0	0	
10	0	0	0	0	551	467	0	0	0	0	
11	0	0	0	0	556	472	0	0	0	0	
12	0	0	0	0	559	476	0	0	0	0	
13	0	0	0	0	561	479	0	0	0	0	
14	0	0	0	0	563	480	0	0	0	0	
15	0	0	0	0	564	481	0	0	0	0	
0	0	0	0	0	565	481	0	0	0	0	
1	0	0	0	0	564	480	0	0	0	0	
2	0	0	0	0	563	478	0	0	0	0	
3	0	0	0	0	562	476	0	0	0	0	
4	0	0	0	0	561	474	0	0	0	0	
5	0	0	0	0	559	472	0	0	0	0	
6	0	0	0	0	558	469	0	0	0	0	
7	0	0	0	0	556	467	0	0	0	0	
8	0	0	0	0	555	465	0	0	0	0	
9	0	0	0	0	555	464	0	0	0	0	
10	0	0	0	0	554	463	0	0	0	0	
11	0	0	0	0	555	463	0	0	0	0	
12	0	0	0	0	555	464	0	0	0	0	
13	0	0	0	0	556	465	0	0	0	0	
14	0	0	0	0	556	466	0	0	0	0	
15	0	0	0	0	556	467	0	0	0	0	
0	0	0	0	0	554	467	0	0	0	0	
1	0	0	0	0	551	465	0	0	0	0	
2	0	0	0	0	548	463	0	0	0	0	
3	0	0	0	0	543	460	0	0	0	0	
4	0	0	0	0	538	455	0	0	0	0	
5	0	0	0	0	533	450	0	0	0	0	
6	0	0	0	0	527	444	0	0	0	0	
7	0	0	0	0	521	439	0	0	0	0	
8	0	0	0	0	516	433	0	0	0	0	
9	0	0	0	0	512	429	0	0	0	0	
10	0	0	0	0	509	425	0	0	0	0	
11	0	0	0	0	507	423	0	0	0	0	
12	0	0	0	0	508	422	0	0	0	0	
13	0	0	0	0	509	422	0	0	0	0	
14	0	0	0	0	512	424	0	0	0	0	
15	0	0	0	0	516	428	0	0	0	0	
0	0	0	0	0	522	433	0	0	0	0	
1	0	0	0	0	528	439	0	0	0	0	
2	0	0	0	0	534	444	0	0	0	0	
3	0	0	0	0	539	450	0	0	0	0	
4	0	0	0	0	544	455	0	0	0	0	
5	0	0	0	0	548	459	0	0	0	0	
6	0	0	0	0	550	461	0	0	0	0	
7	0	0	0	0	551	462	0	0	0	0	
8	0	0	0	0	550	462	0	0	0	0	
9	0	0	0	0	548	460	0	0	0	0	
10	0	0	0	0	544	457	0	0	0	0	
11	0	0	0	0	540	454	0	0	0	0	
12	0	0	0	0	535	449	0	0	0	0	
13	0	0	0	0	529	445	0	0	0	0	
14	0	0	0	0	525	441	0	0	0	0	
15	0	0	0	0	521	438	0	0	0	0	
0	0	0	0	0	517	434	0	0	0	0	
1	0	0	0	0	515	433	0	0	0	0	
2	0	0	0	0	513	432	0	0	0	0	
3	0	0	0	0	514	432	0	0	0	0	
4	0	0	0	0	515	433	0	0	0	0	
5	0	0	0	0	518	435	0	0	0	0	
6	0	0	0	0	521	438	0	0	0	0	
7	0	0	0	0	525	441	0	0	0	0	
8	0	0	0	0	529	445	0	0	0	0	
9	0	0	0	0	533	449	0	0	0	0	
10	0	0	0	0	537	451	0	0	0	0	
11	0	0	0	0	540	454	0	0	0	0	
12	0	0	0	0	542	455	0	0	0	0	
13	0	0	0	0	544	456	0	0	0	0	
14	0	0	0	0	545	457	0	0	0	0	
15	0	0	0	0	545	457	0	0	0	0	
0	0	0	0	0	545	456	0	0	0	0	
1	0	0	0	0	545	456	0	0	0	0	
2	0	0	0	0	545	456	0	0	0	0	
3	0	0	0	0	546	456	0	0	0	0	
4	0	0	0	0	547	457	0	0	0	0	
5	0	0	0	0	548	458	0	0	0	0	
6	0	0	0	0	549	459	0	0	0	0	
7	0	0	0	0	550	460	0	0	0	0	
8	0	0	0	0	550	461	0	0	0	0	
9	0	0	0	0	550	461	0	0	0	0	
10	0	0	0	0	549	460	0	0	0	0	
11	0	0	0	0	547	459	0	0	0	0	
12	0	0	0	0	543	456	0	0	0	0	
13	0	0	0	0	539	453	0	0	0	0	
14	0	0	0	0	534	449	0	0	0	0	
15	0	0	0	0	529	444	0	0	0	0	
0	0	0	0	0	523	439	0	0	0	0	
1	0	0	0	0	517	433	0	0	0	0	
2	0	0	0	0	511	427	0	0	0	0	
3	0	0	0	0	505	421	0	0	0	0	
4	0	0	0	0	499	416	0	0	0	0	
5	0	0	0	0	495	411	0	0	0	0	
6	0	0	0	0	494	409	0	0	0	0	
7	0	0	0	0	494	408	0	0	0	0	
8	0	0	0	0	496	409	0	0	0	0	
9	0	0	0	0	501	412	0	0	0	0	
10	0	0	0	0	508	418	0	0	0	0	
11	0	0	0	0	516	425	0	0	0	0	
12	0	0	0	0	527	435	0	0	0	0	
13	0	0	0	0	537	444	0	0	0	0	
14	0	0	0	0	547	454	0	0	0	0	
15	0	0	0	0	557	463	0	0	0	0	
0	0	0	0	0	565	471	0	0	0	0	
1	0	0	0	0	571	477	0	0	0	0	
2	0	0	0	0	575	482	0	0	0	0	
3	0	0	0	0	575	484	0	0	0	0	
4	0	0	0	0	574	484	0	0	0	0	
5	0	0	0	0	571	483	0	0	0	0	
6	0	0	0	0	565	479	0	0	0	0	
7	0	0	0	0	559	474	0	0	0	0	
8	0	0	0	0	551	468	0	0	0	0	
9	0	0	0	0	544	462	0	0	0	0	
10	0	0	0	0	537	455	0	0	0	0	
11	0	0	0	0	531	449	0	0	0	0	
12	0	0	0	0	526	444	0	0	0	0	
13	0	0	0	0	523	439	0	0	0	0	
14	0	0	0	0	519	435	0	0	0	0	
15	0	0	0	0	519	433	0	0	0	0	
0	0	0	0	0	519	432	0	0	0	0	
1	0	0	0	0	520	433	0	0	0	0	
2	0	0	0	0	522	434	0	0	0	0	
3	0	0	0	0	525	436	0	0	0	0	
4	0	0	0	0	528	439	0	0	0	0	
5	0	0	0	0	532	442	0	0	0	0	
6	0	0	0	0	536	445	0	0	0	0	
7	0	0	0	0	540	449	0	0	0	0	
8	0	0	0	0	544	452	0	0	0	0	
9	0	0	0	0	547	455	0	0	0	0	
10	0	0	0	0	550	458	0	0	0	0	
11	0	0	0	0	552	460	0	0	0	0	
12	0	0	0	0	553	461	0	0	0	0	
13	0	0	0	0	553	462	0	0	0	0	
14	0	0	0	0	552	461	0	0	0	0	
15	0	0	0	0	551	460	0	0	0	0	
0	0	0	0	0	548	458	0	0	0	0	
1	0	0	0	0	546	456	0	0	0	0	
2	0	0	0	0	544	454	0	0	0	0	
3	0	0	0	0	542	454	0	0	0	0	
4	0	0	0	0	542	452	0	0	0	0	
5	0	0	0	0	541	452	0	0	0	0	
6	0	0	0	0	541	452	0	0	0	0	
7	0	0	0	0	543	454	0	0	0	0	
8	0	0	0	0	544	454	0	0	0	0	
9	0	0	0	0	546	455	0	0	0	0	
10	0	0	0	0	547	455	0	0	0	0	
11	0	0	0	0	547	455	0	0	0	0	
12	0	0	0	0	547	455	0	0	0	0	
13	0	0	0	0	546	453	0	0	0	0	
14	0	0	0	0	544	451	0	0	0	0	
15	0	0	0	0	542	448	0	0	0	0	
0	0	0	0	0	539	444	0	0	0	0	
1	0	0	0	0	536	441	0	0	0	0	
2	0	0	0	0	532	438	0	0	0	0	
3	0	0	0	0	528	435	0	0	0	0	
4	0	0	0	0	525	431	0	0	0	0	
5	0	0	0	0	522	428	0	0	0	0	
6	0	0	0	0	519	427	0	0	0	0	
7	0	0	0	0	517	425	0	0	0	0	
8	0	0	0	0	516	424	0	0	0	0	
9	0	0	0	0	516	424	0	0	0	0	
10	0	0	0	0	516	425	0	0	0	0	
11	0	0	0	0	518	426	0	0	0	0	
12	0	0	0	0	520	428	0	0	0	0	
13	0	0	0	0	522	430	0	0	0	0	
14	0	0	0	0	524	432	0	0	0	0	
15	0	0	0	0	526	433	0	0	0	0	
0	0	0	0	0	528	435	0	0	0	0	
1	0	0	0	0	529	436	0	0	0	0	
2	0	0	0	0	530	438	0	0	0	0	
3	0	0	0	0	531	439	0	0	0	0	
4	0	0	0	0	532	440	0	0	0	0	
5	0	0	0	0	533	441	0	0	0	0	
6	0	0	0	0	534	442	0	0	0	0	
7	0	0	0	0	535	443	0	0	0	0	
8	0	0	0	0	536	444	0	0	0	0	
9	0	0	0	0	537	446	0	0	0	0	
10	0	0	0	0	539	448	0	0	0	0	
11	0	0	0	0	542	450	0	0	0	0	
12	0	0	0	0	543	453	0	0	0	0	
13	0	0	0	0	545	455	0	0	0	0	
14	0	0	0	0	547	456	0	0	0	0	
15	0	0	0	0	547	457	0	0	0	0	
0	0	0	0	0	547	457	0	0	0	0	
1	0	0	0	0	547	457	0	0	0	0	
2	0	0	0	0	545	455	0	0	0	0	
3	0	0	0	0	542	453	0	0	0	0	
4	0	0	0	0	539	450	0	0	0	0	
5	0	0	0	0	535	446	0	0	0	0	
6	0	0	0	0	531	443	0	0	0	0	
7	0	0	0	0	527	439	0	0	0	0	
8	0	0	0	0	524	435	0	0	0	0	
9	0	0	0	0	521	432	0	0	0	0	
10	0	0	0	0	520	430	0	0	0	0	
11	0	0	0	0	519	429	0	0	0	0	
12	0	0	0	0	519	428	0	0	0	0	
13	0	0	0	0	520	429	0	0	0	0	
14	0	0	0	0	521	431	0	0	0	0	
15	0	0	0	0	524	433	0	0	0	0	
0	0	0	0	0	526	435	0	0	0	0	
1	0	0	0	0	529	438	0	0	0	0	
2	0	0	0	0	531	441	0	0	0	0	
3	0	0	0	0	534	443	0	0	0	0	
4	0	0	0	0	536	446	0	0	0	0	
5	0	0	0	0	537	447	0	0	0	0	
6	0	0	0	0	538	448	0	0	0	0	
7	0	0	0	0	537	447	0	0	0	0	
8	0	0	0	0	536	446	0	0	0	0	
9	0	0	0	0	534	444	0	0	0	0	
10	0	0	0	0	531	441	0	0	0	0	
11	0	0	0	0	527	438	0	0	0	0	
12	0	0	0	0	522	433	0	0	0	0	
13	0	0	0	0	516	428	0	0	0	0	
14	0	0	0	0	511	422	0	0	0	0	
15	0	0	0	0	505	416	0	0	0	0	
0	0	0	0	0	500	411	0	0	0	0	
1	0	0	0	0	495	406	0	0	0	0	
2	0	0	0	0	491	402	0	0	0	0	
3	0	0	0	0	488	399	0	0	0	0	
4	0	0	0	0	487	398	0	0	0	0	
5	0	0	0	0	487	398	0	0	0	0	
6	0	0	0	0	490	400	0	0	0	0	
7	0	0	0	0	495	404	0	0	0	0	
8	0	0	0	0	500	409	0	0	0	0	
9	0	0	0	0	508	415	0	0	0	0	
10	0	0	0	0	515	422	0	0	0	0	
11	0	0	0	0	523	429	0	0	0	0	
12	0	0	0	0	530	436	0	0	0	0	
13	0	0	0	0	538	444	0	0	0	0	
14	0	0	0	0	544	450	0	0	0	0	
15	0	0	0	0	550	455	0	0	0	0	
0	0	0	0	0	554	460	0	0	0	0	
1	0	0	0	0	557	463	0	0	0	0	
2	0	0	0	0	559	465	0	0	0	0	
3	0	0	0	0	560	466	0	0	0	0	
4	0	0	0	0	559	465	0	0	0	0	
5	0	0	0	0	558	465	0	0	0	0	
6	0	0	0	0	556	463	0	0	0	0	
7	0	0	0	0	554	462	0	0	0	0	
8	0	0	0	0	552	461	0	0	0	0	
9	0	0	0	0	550	460	0	0	0	0	
10	0	0	0	0	548	459	0	0	0	0	
11	0	0	0	0	545	458	0	0	0	0	
12	0	0	0	0	543	458	0	0	0	0	
13	0	0	0	0	542	458	0	0	0	0	
14	0	0	0	0	540	458	0	0	0	0	
15	0	0	0	0	538	457	0	0	0	0	
0	0	0	0	0	536	456	0	0	0	0	
1	0	0	0	0	534	455	0	0	0	0	
2	0	0	0	0	532	452	0	0	0	0	
3	0	0	0	0	530	450	0	0	0	0	
4	0	0	0	0	527	447	0	0	0	0	
5	0	0	0	0	526	445	0	0	0	0	
6	0	0	0	0	524	443	0	0	0	0	
7	0	0	0	0	523	440	0	0	0	0	
8	0	0	0	0	522	439	0	0	0	0	
9	0	0	0	0	523	438	0	0	0	0	
10	0	0	0	0	524	438	0	0	0	0	
11	0	0	0	0	526	439	0	0	0	0	
12	0	0	0	0	529	441	0	0	0	0	
13	0	0	0	0	533	444	0	0	0	0	
14	0	0	0	0	537	447	0	0	0	0	
15	0	0	0	0	540	450	0	0	0	0	
0	0	0	0	0	543	453	0	0	0	0	
1	0	0	0	0	545	455	0	0	0	0	
2	0	0	0	0	545	456	0	0	0	0	
3	0	0	0	0	544	456	0	0	0	0	
4	0	0	0	0	542	455	0	0	0	0	
5	0	0	0	0	538	452	0	0	0	0	
6	0	0	0	0	533	449	0	0	0	0	
7	0	0	0	0	528	445	0	0	0	0	
8	0	0	0	0	522	441	0	0	0	0	
9	0	0	0	0	516	436	0	0	0	0	
10	0	0	0	0	511	432	0	0	0	0	
11	0	0	0	0	506	428	0	0	0	0	
12	0	0	0	0	502	424	0	0	0	0	
13	0	0	0	0	500	422	0	0	0	0	
14	0	0	0	0	499	420	0	0	0	0	
15	0	0	0	0	500	421	0	0	0	0	
0	0	0	0	0	502	423	0	0	0	0	
1	0	0	0	0	506	426	0	0	0	0	
2	0	0	0	0	511	430	0	0	0	0	
3	0	0	0	0	515	435	0	0	0	0	
4	0	0	0	0	520	440	0	0	0	0	
5	0	0	0	0	525	444	0	0	0	0	
6	0	0	0	0	528	447	0	0	0	0	
7	0	0	0	0	530	448	0	0	0	0	
8	0	0	0	0	530	449	0	0	0	0	
9	0	0	0	0	530	448	0	0	0	0	
10	0	0	0	0	528	447	0	0	0	0	
11	0	0	0	0	527	446	0	0	0	0	
12	0	0	0	0	525	444	0	0	0	0	
13	0	0	0	0	522	442	0	0	0	0	
14	0	0	0	0	521	440	0	0	0	0	
15	0	0	0	0	519	440	0	0	0	0	
0	0	0	0	0	519	439	0	0	0	0	
1	0	0	0	0	520	439	0	0	0	0	
2	0	0	0	0	521	440	0	0	0	0	
3	0	0	0	0	524	442	0	0	0	0	
4	0	0	0	0	527	445	0	0	0	0	
5	0	0	0	0	531	448	0	0	0	0	
6	0	0	0	0	534	451	0	0	0	0	
7	0	0	0	0	538	454	0	0	0	0	
8	0	0	0	0	541	456	0	0	0	0	
9	0	0	0	0	543	457	0	0	0	0	
10	0	0	0	0	544	458	0	0	0	0	
11	0	0	0	0	543	457	0	0	0	0	
12	0	0	0	0	542	455	0	0	0	0	
13	0	0	0	0	539	452	0	0	0	0	
14	0	0	0	0	534	447	0	0	0	0	
15	0	0	0	0	528	441	0	0	0	0	
0	0	0	0	0	521	435	0	0	0	0	
1	0	0	0	0	513	428	0	0	0	0	
2	0	0	0	0	506	421	0	0	0	0	
3	0	0	0	0	499	415	0	0	0	0	
4	0	0	0	0	493	410	0	0	0	0	
5	0	0	0	0	488	406	0	0	0	0	
6	0	0	0	0	486	404	0	0	0	0	
7	0	0	0	0	485	404	0	0	0	0	
8	0	0	0	0	487	406	0	0	0	0	
9	0	0	0	0	490	410	0	0	0	0	
10	0	0	0	0	496	415	0	0	0	0	
11	0	0	0	0	503	423	0	0	0	0	
12	0	0	0	0	512	431	0	0	0	0	
13	0	0	0	0	521	440	0	0	0	0	
14	0	0	0	0	531	448	0	0	0	0	
15	0	0	0	0	539	455	0	0	0	0	
0	0	0	0	0	547	462	0	0	0	0	
1	0	0	0	0	553	466	0	0	0	0	
2	0	0	0	0	557	469	0	0	0	0	
3	0	0	0	0	559	470	0	0	0	0	
4	0	0	0	0	560	471	0	0	0	0	
5	0	0	0	0	559	470	0	0	0	0	
6	0	0	0	0	556	467	0	0	0	0	
7	0	0	0	0	553	465	0	0	0	0	
8	0	0	0	0	549	461	0	0	0	0	
9	0	0	0	0	544	458	0	0	0	0	
10	0	0	0	0	540	455	0	0	0	0	
11	0	0	0	0	536	451	0	0	0	0	
12	0	0	0	0	532	449	0	0	0	0	
13	0	0	0	0	530	447	0	0	0	0	
14	0	0	0	0	527	445	0	0	0	0	
15	0	0	0	0	525	444	0	0	0	0	
0	0	0	0	0	524	443	0	0	0	0	
1	0	0	0	0	523	442	0	0	0	0	
2	0	0	0	0	521	441	0	0	0	0	
3	0	0	0	0	520	440	0	0	0	0	
4	0	0	0	0	520	440	0	0	0	0	
5	0	0	0	0	521	439	0	0	0	0	
6	0	0	0	0	521	439	0	0	0	0	
7	0	0	0	0	522	439	0	0	0	0	
8	0	0	0	0	522	438	0	0	0	0	
9	0	0	0	0	523	438	0	0	0	0	
10	0	0	0	0	524	438	0	0	0	0	
11	0	0	0	0	524	439	0	0	0	0	
12	0	0	0	0	525	439	0	0	0	0	
13	0	0	0	0	525	439	0	0	0	0	
14	0	0	0	0	525	440	0	0	0	0	
15	0	0	0	0	525	441	0	0	0	0	
0	0	0	0	0	525	441	0	0	0	0	
1	0	0	0	0	525	442	0	0	0	0	
2	0	0	0	0	524	442	0	0	0	0	
3	0	0	0	0	524	444	0	0	0	0	
4	0	0	0	0	524	444	0	0	0	0	
5	0	0	0	0	524	444	0	0	0	0	
6	0	0	0	0	523	443	0	0	0	0	
7	0	0	0	0	522	442	0	0	0	0	
8	0	0	0	0	521	441	0	0	0	0	
9	0	0	0	0	521	439	0	0	0	0	
10	0	0	0	0	520	438	0	0	0	0	
11	0	0	0	0	519	435	0	0	0	0	
12	0	0	0	0	518	433	0	0	0	0	
13	0	0	0	0	517	431	0	0	0	0	
14	0	0	0	0	516	429	0	0	0	0	
15	0	0	0	0	515	428	0	0	0	0	
0	0	0	0	0	513	426	0	0	0	0	
1	0	0	0	0	512	425	0	0	0	0	
2	0	0	0	0	510	423	0	0	0	0	
3	0	0	0	0	509	423	0	0	0	0	
4	0	0	0	0	508	423	0	0	0	0	
5	0	0	0	0	508	424	0	0	0	0	
6	0	0	0	0	507	424	0	0	0	0	
7	0	0	0	0	508	426	0	0	0	0	
8	0	0	0	0	509	428	0	0	0	0	
9	0	0	0	0	510	430	0	0	0	0	
10	0	0	0	0	511	431	0	0	0	0	
11	0	0	0	0	513	433	0	0	0	0	
12	0	0	0	0	515	434	0	0	0	0	
13	0	0	0	0	516	435	0	0	0	0	
14	0	0	0	0	518	435	0	0	0	0	
15	0	0	0	0	519	435	0	0	0	0	
0	0	0	0	0	520	435	0	0	0	0	
1	0	0	0	0	520	435	0	0	0	0	
2	0	0	0	0	521	435	0	0	0	0	
3	0	0	0	0	522	435	0	0	0	0	
4	0	0	0	0	523	435	0	0	0	0	
5	0	0	0	0	524	436	0	0	0	0	
6	0	0	0	0	524	437	0	0	0	0	
7	0	0	0	0	525	439	0	0	0	0	
8	0	0	0	0	526	441	0	0	0	0	
9	0	0	0	0	526	442	0	0	0	0	
10	0	0	0	0	526	444	0	0	0	0	
11	0	0	0	0	526	445	0	0	0	0	
12	0	0	0	0	526	446	0	0	0	0	
13	0	0	0	0	526	447	0	0	0	0	
14	0	0	0	0	524	446	0	0	0	0	
15	0	0	0	0	523	445	0	0	0	0	
0	0	0	0	0	520	443	0	0	0	0	
1	0	0	0	0	518	441	0	0	0	0	
2	0	0	0	0	514	438	0	0	0	0	
3	0	0	0	0	511	435	0	0	0	0	
4	0	0	0	0	508	432	0	0	0	0	
5	0	0	0	0	505	429	0	0	0	0	
6	0	0	0	0	503	428	0	0	0	0	
7	0	0	0	0	503	426	0	0	0	0	
8	0	0	0	0	503	425	0	0	0	0	
9	0	0	0	0	504	425	0	0	0	0	
10	0	0	0	0	507	427	0	0	0	0	
11	0	0	0	0	510	429	0	0	0	0	
12	0	0	0	0	514	432	0	0	0	0	
13	0	0	0	0	519	435	0	0	0	0	
14	0	0	0	0	523	438	0	0	0	0	
15	0	0	0	0	527	441	0	0	0	0	
0	0	0	0	0	531	443	0	0	0	0	
1	0	0	0	0	533	445	0	0	0	0	
2	0	0	0	0	535	446	0	0	0	0	
3	0	0	0	0	536	447	0	0	0	0	
4	0	0	0	0	535	447	0	0	0	0	
5	0	0	0	0	536	447	0	0	0	0	
6	0	0	0	0	535	448	0	0	0	0	
7	0	0	0	0	535	448	0	0	0	0	
8	0	0	0	0	534	448	0	0	0	0	
9	0	0	0	0	532	448	0	0	0	0	
10	0	0	0	0	531	447	0	0	0	0	
11	0	0	0	0	530	446	0	0	0	0	
12	0	0	0	0	528	445	0	0	0	0	
13	0	0	0	0	526	443	0	0	0	0	
14	0	0	0	0	523	441	0	0	0	0	
15	0	0	0	0	521	439	0	0	0	0	
0	0	0	0	0	519	437	0	0	0	0	
1	0	0	0	0	518	436	0	0	0	0	
2	0	0	0	0	516	436	0	0	0	0	
3	0	0	0	0	516	435	0	0	0	0	
4	0	0	0	0	516	436	0	0	0	0	
5	0	0	0	0	516	436	0	0	0	0	
6	0	0	0	0	517	437	0	0	0	0	
7	0	0	0	0	518	438	0	0	0	0	
8	0	0	0	0	519	438	0	0	0	0	
9	0	0	0	0	520	439	0	0	0	0	
10	0	0	0	0	521	438	0	0	0	0	
11	0	0	0	0	521	438	0	0	0	0	
12	0	0	0	0	521	436	0	0	0	0	
13	0	0	0	0	520	434	0	0	0	0	
14	0	0	0	0	519	432	0	0	0	0	
15	0	0	0	0	517	430	0	0	0	0	
0	0	0	0	0	515	428	0	0	0	0	
1	0	0	0	0	513	426	0	0	0	0	
2	0	0	0	0	511	425	0	0	0	0	
3	0	0	0	0	511	425	0	0	0	0	
4	0	0	0	0	511	426	0	0	0	0	
5	0	0	0	0	512	428	0	0	0	0	
6	0	0	0	0	514	430	0	0	0	0	
7	0	0	0	0	519	435	0	0	0	0	
8	0	0	0	0	524	440	0	0	0	0	
9	0	0	0	0	530	447	0	0	0	0	
10	0	0	0	0	536	453	0	0	0	0	
11	0	0	0	0	543	459	0	0	0	0	
12	0	0	0	0	548	464	0	0	0	0	
13	0	0	0	0	552	468	0	0	0	0	
14	0	0	0	0	554	470	0	0	0	0	
15	0	0	0	0	555	471	0	0	0	0	
0	0	0	0	0	553	469	0	0	0	0	
1	0	0	0	0	549	465	0	0	0	0	
2	0	0	0	0	543	460	0	0	0	0	
3	0	0	0	0	535	452	0	0	0	0	
4	0	0	0	0	524	442	0	0	0	0	
5	0	0	0	0	512	431	0	0	0	0	
6	0	0	0	0	499	418	0	0	0	0	
7	0	0	0	0	484	406	0	0	0	0	
8	0	0	0	0	470	392	0	0	0	0	
9	0	0	0	0	455	379	0	0	0	0	
10	0	0	0	0	440	366	0	0	0	0	
11	0	0	0	0	426	353	0	0	0	0	
12	0	0	0	0	412	340	0	0	0	0	
13	0	0	0	0	399	328	0	0	0	0	
14	0	0	0	0	386	315	0	0	0	0	
15	0	0	0	0	372	302	0	0	0	0	
0	0	0	0	0	359	289	0	0	0	0	
1	0	0	0	0	346	275	0	0	0	0	
2	0	0	0	0	333	261	0	0	0	0	
3	0	0	0	0	321	247	0	0	0	0	
4	0	0	0	0	309	234	0	0	0	0	
5	0	0	0	0	297	221	0	0	0	0	
6	0	0	0	0	288	210	0	0	0	0	
7	0	0	0	0	280	200	0	0	0	0	
8	0	0	0	0	275	193	0	0	0	0	
9	0	0	0	0	272	189	0	0	0	0	
10	0	0	0	0	273	188	0	0	0	0	
11	0	0	0	0	278	192	0	0	0	0	
12	0	0	0	0	287	199	0	0	0	0	
13	0	0	0	0	300	211	0	0	0	0	
14	0	0	0	0	317	226	0	0	0	0	
15	0	0	0	0	337	245	0	0	0	0	
0	0	0	0	0	361	267	0	0	0	0	
1	0	0	0	0	387	291	0	0	0	0	
2	0	0	0	0	414	316	0	0	0	0	
3	0	0	0	0	441	341	0	0	0	0	
4	0	0	0	0	467	366	0	0	0	0	
5	0	0	0	0	490	388	0	0	0	0	
6	0	0	0	0	511	408	0	0	0	0	
7	0	0	0	0	527	423	0	0	0	0	
8	0	0	0	0	539	436	0	0	0	0	
9	0	0	0	0	547	445	0	0	0	0	
10	0	0	0	0	551	451	0	0	0	0	
11	0	0	0	0	551	453	0	0	0	0	
12	0	0	0	0	550	454	0	0	0	0	
13	0	0	0	0	546	453	0	0	0	0	
14	0	0	0	0	542	452	0	0	0	0	
15	0	0	0	0	539	451	0	0	0	0	
0	0	0	0	0	536	451	0	0	0	0	
1	0	0	0	0	535	451	0	0	0	0	
2	0	0	0	0	534	451	0	0	0	0	
3	0	0	0	0	536	454	0	0	0	0	
4	0	0	0	0	538	457	0	0	0	0	
5	0	0	0	0	542	460	0	0	0	0	
6	0	0	0	0	546	464	0	0	0	0	
7	0	0	0	0	550	468	0	0	0	0	
8	0	0	0	0	555	471	0	0	0	0	
9	0	0	0	0	559	474	0	0	0	0	
10	0	0	0	0	561	476	0	0	0	0	
11	0	0	0	0	562	476	0	0	0	0	
12	0	0	0	0	561	475	0	0	0	0	
13	0	0	0	0	558	472	0	0	0	0	
14	0	0	0	0	554	468	0	0	0	0	
15	0	0	0	0	549	464	0	0	0	0	
0	0	0	0	0	544	460	0	0	0	0	
1	0	0	0	0	540	455	0	0	0	0	
2	0	0	0	0	535	452	0	0	0	0	
3	0	0	0	0	533	450	0	0	0	0	
4	0	0	0	0	532	449	0	0	0	0	
5	0	0	0	0	532	449	0	0	0	0	
6	0	0	0	0	533	451	0	0	0	0	
7	0	0	0	0	536	453	0	0	0	0	
8	0	0	0	0	540	456	0	0	0	0	
9	0	0	0	0	543	459	0	0	0	0	
10	0	0	0	0	547	461	0	0	0	0	
11	0	0	0	0	550	463	0	0	0	0	
12	0	0	0	0	551	463	0	0	0	0	
13	0	0	0	0	552	464	0	0	0	0	
14	0	0	0	0	552	464	0	0	0	0	
15	0	0	0	0	551	463	0	0	0	0	
0	0	0	0	0	549	460	0	0	0	0	
1	0	0	0	0	547	459	0	0	0	0	
2	0	0	0	0	544	455	0	0	0	0	
3	0	0	0	0	540	452	0	0	0	0	
4	0	0	0	0	536	448	0	0	0	0	
5	0	0	0	0	532	445	0	0	0	0	
6	0	0	0	0	529	441	0	0	0	0	
7	0	0	0	0	526	439	0	0	0	0	
8	0	0	0	0	524	437	0	0	0	0	
9	0	0	0	0	523	436	0	0	0	0	
10	0	0	0	0	522	436	0	0	0	0	
11	0	0	0	0	523	437	0	0	0	0	
12	0	0	0	0	526	440	0	0	0	0	
13	0	0	0	0	529	443	0	0	0	0	
14	0	0	0	0	534	447	0	0	0	0	
15	0	0	0	0	539	452	0	0	0	0	
0	0	0	0	0	544	456	0	0	0	0	
1	0	0	0	0	549	460	0	0	0	0	
2	0	0	0	0	553	464	0	0	0	0	
3	0	0	0	0	557	467	0	0	0	0	
4	0	0	0	0	560	468	0	0	0	0	
5	0	0	0	0	561	470	0	0	0	0	
6	0	0	0	0	563	471	0	0	0	0	
7	0	0	0	0	563	471	0	0	0	0	
8	0	0	0	0	563	471	0	0	0	0	
9	0	0	0	0	562	470	0	0	0	0	
10	0	0	0	0	561	471	0	0	0	0	
11	0	0	0	0	562	471	0	0	0	0	
12	0	0	0	0	563	471	0	0	0	0	
13	0	0	0	0	564	472	0	0	0	0	
14	0	0	0	0	565	474	0	0	0	0	
15	0	0	0	0	567	476	0	0	0	0	
0	0	0	0	0	568	478	0	0	0	0	
1	0	0	0	0	571	480	0	0	0	0	
2	0	0	0	0	572	481	0	0	0	0	
3	0	0	0	0	573	482	0	0	0	0	
4	0	0	0	0	573	483	0	0	0	0	
5	0	0	0	0	572	481	0	0	0	0	
6	0	0	0	0	570	480	0	0	0	0	
7	0	0	0	0	567	477	0	0	0	0	
8	0	0	0	0	563	473	0	0	0	0	
9	0	0	0	0	559	470	0	0	0	0	
10	0	0	0	0	555	465	0	0	0	0	
11	0	0	0	0	550	461	0	0	0	0	
12	0	0	0	0	546	457	0	0	0	0	
13	0	0	0	0	542	454	0	0	0	0	
14	0	0	0	0	539	451	0	0	0	0	
15	0	0	0	0	537	449	0	0	0	0	
0	0	0	0	0	536	448	0	0	0	0	
1	0	0	0	0	535	449	0	0	0	0	
2	0	0	0	0	536	449	0	0	0	0	
3	0	0	0	0	536	450	0	0	0	0	
4	0	0	0	0	538	452	0	0	0	0	
5	0	0	0	0	539	453	0	0	0	0	
6	0	0	0	0	541	454	0	0	0	0	
7	0	0	0	0	542	455	0	0	0	0	
8	0	0	0	0	543	455	0	0	0	0	
9	0	0	0	0	544	455	0	0	0	0	
10	0	0	0	0	544	455	0	0	0	0	
11	0	0	0	0	544	454	0	0	0	0	
12	0	0	0	0	543	453	0	0	0	0	
13	0	0	0	0	543	452	0	0	0	0	
14	0	0	0	0	544	452	0	0	0	0	
15	0	0	0	0	545	453	0	0	0	0	
0	0	0	0	0	547	455	0	0	0	0	
1	0	0	0	0	550	458	0	0	0	0	
2	0	0	0	0	555	462	0	0	0	0	
3	0	0	0	0	560	467	0	0	0	0	
4	0	0	0	0	566	473	0	0	0	0	
5	0	0	0	0	572	479	0	0	0	0	
6	0	0	0	0	577	484	0	0	0	0	
7	0	0	0	0	582	489	0	0	0	0	
8	0	0	0	0	584	492	0	0	0	0	
9	0	0	0	0	585	493	0	0	0	0	
10	0	0	0	0	584	492	0	0	0	0	
11	0	0	0	0	581	489	0	0	0	0	
12	0	0	0	0	574	484	0	0	0	0	
13	0	0	0	0	567	478	0	0	0	0	
14	0	0	0	0	558	470	0	0	0	0	
15	0	0	0	0	547	461	0	0	0	0	
0	0	0	0	0	538	453	0	0	0	0	
1	0	0	0	0	530	446	0	0	0	0	
2	0	0	0	0	524	440	0	0	0	0	
3	0	0	0	0	520	437	0	0	0	0	
4	0	0	0	0	519	436	0	0	0	0	
5	0	0	0	0	522	438	0	0	0	0	
6	0	0	0	0	527	442	0	0	0	0	
7	0	0	0	0	534	448	0	0	0	0	
8	0	0	0	0	542	454	0	0	0	0	
9	0	0	0	0	551	461	0	0	0	0	
10	0	0	0	0	559	467	0	0	0	0	
11	0	0	0	0	565	472	0	0	0	0	
12	0	0	0	0	570	476	0	0	0	0	
13	0	0	0	0	572	478	0	0	0	0	
14	0	0	0	0	571	478	0	0	0	0	
15	0	0	0	0	568	475	0	0	0	0	
0	0	0	0	0	562	470	0	0	0	0	
1	0	0	0	0	555	463	0	0	0	0	
2	0	0	0	0	544	455	0	0	0	0	
3	0	0	0	0	534	446	0	0	0	0	
4	0	0	0	0	522	435	0	0	0	0	
5	0	0	0	0	511	425	0	0	0	0	
6	0	0	0	0	501	416	0	0	0	0	
7	0	0	0	0	493	408	0	0	0	0	
8	0	0	0	0	486	401	0	0	0	0	
9	0	0	0	0	482	397	0	0	0	0	
10	0	0	0	0	481	394	0	0	0	0	
11	0	0	0	0	483	395	0	0	0	0	
12	0	0	0	0	487	398	0	0	0	0	
13	0	0	0	0	495	404	0	0	0	0	
14	0	0	0	0	505	412	0	0	0	0	
15	0	0	0	0	515	420	0	0	0	0	
0	0	0	0	0	527	430	0	0	0	0	
1	0	0	0	0	539	440	0	0	0	0	
2	0	0	0	0	549	448	0	0	0	0	
3	0	0	0	0	556	455	0	0	0	0	
4	0	0	0	0	563	460	0	0	0	0	
5	0	0	0	0	567	464	0	0	0	0	
6	0	0	0	0	568	465	0	0	0	0	
7	0	0	0	0	567	465	0	0	0	0	
8	0	0	0	0	564	463	0	0	0	0	
9	0	0	0	0	559	459	0	0	0	0	
10	0	0	0	0	554	455	0	0	0	0	
11	0	0	0	0	547	451	0	0	0	0	
12	0	0	0	0	542	447	0	0	0	0	
13	0	0	0	0	536	443	0	0	0	0	
14	0	0	0	0	532	440	0	0	0	0	
15	0	0	0	0	529	438	0	0	0	0	
0	0	0	0	0	528	438	0	0	0	0	
1	0	0	0	0	529	439	0	0	0	0	
2	0	0	0	0	531	440	0	0	0	0	
3	0	0	0	0	535	443	0	0	0	0	
4	0	0	0	0	539	445	0	0	0	0	
5	0	0	0	0	543	448	0	0	0	0	
6	0	0	0	0	547	451	0	0	0	0	
7	0	0	0	0	551	452	0	0	0	0	
8	0	0	0	0	553	454	0	0	0	0	
9	0	0	0	0	554	453	0	0	0	0	
10	0	0	0	0	553	451	0	0	0	0	
11	0	0	0	0	551	448	0	0	0	0	
12	0	0	0	0	547	444	0	0	0	0	
13	0	0	0	0	541	440	0	0	0	0	
14	0	0	0	0	535	433	0	0	0	0	
15	0	0	0	0	529	428	0	0	0	0	
0	0	0	0	0	522	422	0	0	0	0	
1	0	0	0	0	516	416	0	0	0	0	
2	0	0	0	0	512	412	0	0	0	0	
3	0	0	0	0	508	408	0	0	0	0	
4	0	0	0	0	506	407	0	0	0	0	
5	0	0	0	0	506	406	0	0	0	0	
6	0	0	0	0	507	406	0	0	0	0	
7	0	0	0	0	509	408	0	0	0	0	
8	0	0	0	0	512	410	0	0	0	0	
9	0	0	0	0	516	413	0	0	0	0	
10	0	0	0	0	519	416	0	0	0	0	
11	0	0	0	0	524	419	0	0	0	0	
12	0	0	0	0	526	422	0	0	0	0	
13	0	0	0	0	529	423	0	0	0	0	
14	0	0	0	0	529	422	0	0	0	0	
15	0	0	0	0	528	421	0	0	0	0	
0	0	0	0	0	526	418	0	0	0	0	
1	0	0	0	0	523	415	0	0	0	0	
2	0	0	0	0	519	410	0	0	0	0	
3	0	0	0	0	515	406	0	0	0	0	
4	0	0	0	0	510	401	0	0	0	0	
5	0	0	0	0	505	396	0	0	0	0	
6	0	0	0	0	501	394	0	0	0	0	
7	0	0	0	0	499	391	0	0	0	0	
8	0	0	0	0	498	391	0	0	0	0	
9	0	0	0	0	499	392	0	0	0	0	
10	0	0	0	0	501	395	0	0	0	0	
11	0	0	0	0	504	399	0	0	0	0	
12	0	0	0	0	510	405	0	0	0	0	
13	0	0	0	0	515	411	0	0	0	0	
14	0	0	0	0	521	416	0	0	0	0	
15	0	0	0	0	527	420	0	0	0	0	
0	0	0	0	0	532	425	0	0	0	0	
1	0	0	0	0	536	429	0	0	0	0	
2	0	0	0	0	540	432	0	0	0	0	
3	0	0	0	0	542	432	0	0	0	0	
4	0	0	0	0	542	433	0	0	0	0	
5	0	0	0	0	542	432	0	0	0	0	
6	0	0	0	0	540	430	0	0	0	0	
7	0	0	0	0	539	428	0	0	0	0	
8	0	0	0	0	536	425	0	0	0	0	
9	0	0	0	0	532	423	0	0	0	0	
10	0	0	0	0	529	419	0	0	0	0	
11	0	0	0	0	527	417	0	0	0	0	
12	0	0	0	0	524	416	0	0	0	0	
13	0	0	0	0	523	415	0	0	0	0	
14	0	0	0	0	521	415	0	0	0	0	
15	0	0	0	0	520	415	0	0	0	0	
0	0	0	0	0	521	415	0	0	0	0	
1	0	0	0	0	521	416	0	0	0	0	
2	0	0	0	0	521	417	0	0	0	0	
3	0	0	0	0	521	418	0	0	0	0	
4	0	0	0	0	522	419	0	0	0	0	
5	0	0	0	0	522	419	0	0	0	0	
6	0	0	0	0	523	418	0	0	0	0	
7	0	0	0	0	523	418	0	0	0	0	
8	0	0	0	0	524	417	0	0	0	0	
9	0	0	0	0	524	417	0	0	0	0	
10	0	0	0	0	525	416	0	0	0	0	
11	0	0	0	0	525	415	0	0	0	0	
12	0	0	0	0	527	415	0	0	0	0	
13	0	0	0	0	528	416	0	0	0	0	
14	0	0	0	0	529	417	0	0	0	0	
15	0	0	0	0	531	418	0	0	0	0	
0	0	0	0	0	533	420	0	0	0	0	
1	0	0	0	0	535	422	0	0	0	0	
2	0	0	0	0	537	424	0	0	0	0	
3	0	0	0	0	538	426	0	0	0	0	
4	0	0	0	0	539	428	0	0	0	0	
5	0	0	0	0	538	429	0	0	0	0	
6	0	0	0	0	537	429	0	0	0	0	
7	0	0	0	0	535	428	0	0	0	0	
8	0	0	0	0	532	426	0	0	0	0	
9	0	0	0	0	529	423	0	0	0	0	
10	0	0	0	0	527	421	0	0	0	0	
11	0	0	0	0	524	418	0	0	0	0	
12	0	0	0	0	523	415	0	0	0	0	
13	0	0	0	0	520	412	0	0	0	0	
14	0	0	0	0	519	410	0	0	0	0	
15	0	0	0	0	518	407	0	0	0	0	
0	0	0	0	0	518	405	0	0	0	0	
1	0	0	0	0	517	403	0	0	0	0	
2	0	0	0	0	516	400	0	0	0	0	
3	0	0	0	0	515	399	0	0	0	0	
4	0	0	0	0	513	397	0	0	0	0	
5	0	0	0	0	512	396	0	0	0	0	
6	0	0	0	0	511	395	0	0	0	0	
7	0	0	0	0	509	394	0	0	0	0	
8	0	0	0	0	508	395	0	0	0	0	
9	0	0	0	0	508	396	0	0	0	0	
10	0	0	0	0	508	396	0	0	0	0	
11	0	0	0	0	509	398	0	0	0	0	
12	0	0	0	0	511	400	0	0	0	0	
13	0	0	0	0	513	403	0	0	0	0	
