# OpenSignals Text File Format. Version 1
# {"": {"position": 0, "device": "", "device name": "", "device connection": "", "sampling rate": 1000, "resolution": [4, 1, 1, 1, 1, 10, 10, 10, 10, 6, 6], "firmware version": 1281, "comments": "", "keywords": "", "mode": 0, "sync interval": 2, "date": "", "time": "", "channels": [1, 2, 3, 4, 5, 6], "sensor": ["RAW", "RAW", "RAW", "RAW", "RAW", "RAW"], "label": ["A1", "A2", "A3", "A4", "A5", "A6"], "column": ["nSeq", "I1", "I2", "O1", "O2", "A1", "A2", "A3", "A4", "A5", "A6"], "special": [{}, {}, {}, {}, {}, {}], "digital IO": [0, 0, 1, 1]}}
# EndOfHeader
0	0	0	0	0	643	542	0	1021	0	0	
1	0	0	0	0	608	531	0	1021	0	0	
2	0	0	0	0	568	520	0	1021	0	0	
3	0	0	0	0	526	510	0	1021	0	0	
4	0	0	0	0	488	502	0	1021	0	0	
5	0	0	0	0	455	496	0	1021	0	0	
6	0	0	0	0	433	493	0	1021	0	0	
7	0	0	0	0	421	493	0	1021	0	0	
8	0	0	0	0	422	496	0	1021	0	0	
9	0	0	0	0	435	502	0	1021	0	0	
10	0	0	0	0	460	511	0	1021	0	0	
11	0	0	0	0	494	520	0	1021	0	0	
12	0	0	0	0	533	531	0	1021	0	0	
13	0	0	0	0	574	541	0	1021	0	0	
14	0	0	0	0	613	550	0	1021	0	0	
15	0	0	0	0	646	556	0	1021	0	0	
0	0	0	0	0	670	560	0	1021	0	0	
1	0	0	0	0	684	561	0	1021	0	0	
2	0	0	0	0	686	559	0	1021	0	0	
3	0	0	0	0	675	554	0	1021	0	0	
4	0	0	0	0	654	547	0	1021	0	0	
5	0	0	0	0	623	539	0	1021	0	0	
6	0	0	0	0	586	529	0	1021	0	0	
7	0	0	0	0	547	521	0	1021	0	0	
8	0	0	0	0	511	513	0	1021	0	0	
9	0	0	0	0	480	508	0	1021	0	0	
10	0	0	0	0	457	505	0	1021	0	0	
11	0	0	0	0	447	506	0	1021	0	0	
12	0	0	0	0	448	509	0	1021	0	0	
13	0	0	0	0	460	515	0	1021	0	0	
14	0	0	0	0	484	523	0	1021	0	0	
15	0	0	0	0	517	532	0	1021	0	0	
0	0	0	0	0	555	543	0	1021	0	0	
1	0	0	0	0	594	552	0	1021	0	0	
2	0	0	0	0	632	561	0	1021	0	0	
3	0	0	0	0	663	567	0	1021	0	0	
4	0	0	0	0	686	571	0	1021	0	0	
5	0	0	0	0	697	571	0	1021	0	0	
6	0	0	0	0	697	569	0	1021	0	0	
7	0	0	0	0	685	564	0	1021	0	0	
8	0	0	0	0	661	556	0	1021	0	0	
9	0	0	0	0	629	546	0	1021	0	0	
10	0	0	0	0	590	536	0	1021	0	0	
11	0	0	0	0	550	526	0	1021	0	0	
12	0	0	0	0	511	518	0	1021	0	0	
13	0	0	0	0	480	512	0	1021	0	0	
14	0	0	0	0	457	509	0	1021	0	0	
15	0	0	0	0	446	509	0	1021	0	0	
0	0	0	0	0	446	512	0	1021	0	0	
1	0	0	0	0	458	518	0	1021	0	0	
2	0	0	0	0	481	525	0	1021	0	0	
3	0	0	0	0	513	535	0	1021	0	0	
4	0	0	0	0	550	544	0	1021	0	0	
5	0	0	0	0	588	554	0	1021	0	0	
6	0	0	0	0	624	561	0	1021	0	0	
7	0	0	0	0	655	568	0	1021	0	0	
8	0	0	0	0	677	571	0	1021	0	0	
9	0	0	0	0	689	572	0	1021	0	0	
10	0	0	0	0	689	570	0	1021	0	0	
11	0	0	0	0	676	565	0	1021	0	0	
12	0	0	0	0	654	559	0	1021	0	0	
13	0	0	0	0	622	550	0	1021	0	0	
14	0	0	0	0	584	541	0	1021	0	0	
15	0	0	0	0	544	532	0	1021	0	0	
0	0	0	0	0	507	525	0	1021	0	0	
1	0	0	0	0	475	520	0	1021	0	0	
2	0	0	0	0	452	517	0	1021	0	0	
3	0	0	0	0	440	518	0	1021	0	0	
4	0	0	0	0	440	521	0	1021	0	0	
5	0	0	0	0	453	527	0	1021	0	0	
6	0	0	0	0	477	535	0	1021	0	0	
7	0	0	0	0	509	545	0	1021	0	0	
8	0	0	0	0	547	554	0	1021	0	0	
9	0	0	0	0	587	563	0	1021	0	0	
10	0	0	0	0	624	571	0	1021	0	0	
11	0	0	0	0	656	575	0	1021	0	0	
12	0	0	0	0	679	577	0	1021	0	0	
13	0	0	0	0	691	575	0	1021	0	0	
14	0	0	0	0	690	570	0	1021	0	0	
15	0	0	0	0	678	562	0	1021	0	0	
0	0	0	0	0	654	551	0	1021	0	0	
1	0	0	0	0	622	540	0	1021	0	0	
2	0	0	0	0	583	528	0	1021	0	0	
3	0	0	0	0	542	518	0	1021	0	0	
4	0	0	0	0	504	509	0	1021	0	0	
5	0	0	0	0	472	502	0	1021	0	0	
6	0	0	0	0	448	498	0	1021	0	0	
7	0	0	0	0	436	498	0	1021	0	0	
8	0	0	0	0	436	501	0	1021	0	0	
9	0	0	0	0	448	507	0	1021	0	0	
10	0	0	0	0	471	515	0	1021	0	0	
11	0	0	0	0	504	526	0	1021	0	0	
12	0	0	0	0	541	536	0	1021	0	0	
13	0	0	0	0	581	546	0	1021	0	0	
14	0	0	0	0	617	555	0	1021	0	0	
15	0	0	0	0	649	561	0	1021	0	0	
0	0	0	0	0	672	565	0	1021	0	0	
1	0	0	0	0	685	565	0	1021	0	0	
2	0	0	0	0	686	563	0	1021	0	0	
3	0	0	0	0	675	557	0	1021	0	0	
4	0	0	0	0	654	550	0	1021	0	0	
5	0	0	0	0	623	541	0	1021	0	0	
6	0	0	0	0	587	531	0	1021	0	0	
7	0	0	0	0	547	521	0	1021	0	0	
8	0	0	0	0	510	513	0	1021	0	0	
9	0	0	0	0	480	507	0	1021	0	0	
10	0	0	0	0	458	504	0	1021	0	0	
11	0	0	0	0	446	504	0	1021	0	0	
12	0	0	0	0	447	507	0	1021	0	0	
13	0	0	0	0	458	512	0	1021	0	0	
14	0	0	0	0	482	519	0	1021	0	0	
15	0	0	0	0	513	527	0	1021	0	0	
0	0	0	0	0	550	536	0	1021	0	0	
1	0	0	0	0	589	545	0	1021	0	0	
2	0	0	0	0	626	553	0	1021	0	0	
3	0	0	0	0	658	558	0	1021	0	0	
4	0	0	0	0	681	561	0	1021	0	0	
5	0	0	0	0	694	561	0	1021	0	0	
6	0	0	0	0	693	558	0	1021	0	0	
7	0	0	0	0	681	551	0	1021	0	0	
8	0	0	0	0	658	543	0	1021	0	0	
9	0	0	0	0	624	532	0	1021	0	0	
10	0	0	0	0	585	521	0	1021	0	0	
11	0	0	0	0	542	510	0	1021	0	0	
12	0	0	0	0	503	501	0	1021	0	0	
13	0	0	0	0	469	494	0	1021	0	0	
14	0	0	0	0	444	489	0	1021	0	0	
15	0	0	0	0	431	489	0	1021	0	0	
0	0	0	0	0	430	492	0	1021	0	0	
1	0	0	0	0	444	497	0	1021	0	0	
2	0	0	0	0	468	506	0	1021	0	0	
3	0	0	0	0	503	517	0	1021	0	0	
4	0	0	0	0	544	528	0	1021	0	0	
5	0	0	0	0	587	539	0	1021	0	0	
6	0	0	0	0	628	549	0	1021	0	0	
7	0	0	0	0	664	557	0	1021	0	0	
8	0	0	0	0	691	561	0	1021	0	0	
9	0	0	0	0	707	563	0	1021	0	0	
10	0	0	0	0	710	560	0	1021	0	0	
11	0	0	0	0	701	556	0	1021	0	0	
12	0	0	0	0	679	548	0	1021	0	0	
13	0	0	0	0	647	539	0	1021	0	0	
14	0	0	0	0	608	529	0	1021	0	0	
15	0	0	0	0	566	519	0	1021	0	0	
0	0	0	0	0	525	510	0	1021	0	0	
1	0	0	0	0	489	504	0	1021	0	0	
2	0	0	0	0	462	501	0	1021	0	0	
3	0	0	0	0	446	501	0	1021	0	0	
4	0	0	0	0	441	504	0	1021	0	0	
5	0	0	0	0	450	509	0	1021	0	0	
6	0	0	0	0	471	518	0	1021	0	0	
7	0	0	0	0	500	527	0	1021	0	0	
8	0	0	0	0	536	538	0	1021	0	0	
9	0	0	0	0	575	548	0	1021	0	0	
10	0	0	0	0	611	556	0	1021	0	0	
11	0	0	0	0	643	561	0	1021	0	0	
12	0	0	0	0	666	564	0	1021	0	0	
13	0	0	0	0	678	563	0	1021	0	0	
14	0	0	0	0	677	559	0	1021	0	0	
15	0	0	0	0	665	552	0	1021	0	0	
0	0	0	0	0	643	542	0	1021	0	0	
1	0	0	0	0	611	532	0	1021	0	0	
2	0	0	0	0	573	521	0	1021	0	0	
3	0	0	0	0	534	511	0	1021	0	0	
4	0	0	0	0	497	504	0	1021	0	0	
5	0	0	0	0	467	499	0	1021	0	0	
6	0	0	0	0	445	497	0	1021	0	0	
7	0	0	0	0	434	498	0	1021	0	0	
8	0	0	0	0	435	503	0	1021	0	0	
9	0	0	0	0	449	510	0	1021	0	0	
10	0	0	0	0	473	519	0	1021	0	0	
11	0	0	0	0	506	529	0	1021	0	0	
12	0	0	0	0	544	539	0	1021	0	0	
13	0	0	0	0	583	548	0	1021	0	0	
14	0	0	0	0	620	555	0	1021	0	0	
15	0	0	0	0	651	559	0	1021	0	0	
0	0	0	0	0	673	560	0	1021	0	0	
1	0	0	0	0	684	559	0	1021	0	0	
2	0	0	0	0	683	554	0	1021	0	0	
3	0	0	0	0	671	547	0	1021	0	0	
4	0	0	0	0	649	539	0	1021	0	0	
5	0	0	0	0	617	529	0	1021	0	0	
6	0	0	0	0	579	519	0	1021	0	0	
7	0	0	0	0	539	510	0	1021	0	0	
8	0	0	0	0	501	504	0	1021	0	0	
9	0	0	0	0	470	499	0	1021	0	0	
10	0	0	0	0	446	497	0	1021	0	0	
11	0	0	0	0	434	498	0	1021	0	0	
12	0	0	0	0	434	502	0	1021	0	0	
13	0	0	0	0	445	507	0	1021	0	0	
14	0	0	0	0	469	515	0	1021	0	0	
15	0	0	0	0	501	525	0	1021	0	0	
0	0	0	0	0	540	535	0	1021	0	0	
1	0	0	0	0	579	544	0	1021	0	0	
2	0	0	0	0	618	552	0	1021	0	0	
3	0	0	0	0	651	558	0	1021	0	0	
4	0	0	0	0	675	561	0	1021	0	0	
5	0	0	0	0	688	561	0	1021	0	0	
6	0	0	0	0	689	558	0	1021	0	0	
7	0	0	0	0	679	553	0	1021	0	0	
8	0	0	0	0	656	545	0	1021	0	0	
9	0	0	0	0	625	537	0	1021	0	0	
10	0	0	0	0	588	527	0	1021	0	0	
11	0	0	0	0	547	519	0	1021	0	0	
12	0	0	0	0	510	512	0	1021	0	0	
13	0	0	0	0	478	507	0	1021	0	0	
14	0	0	0	0	455	504	0	1021	0	0	
15	0	0	0	0	443	505	0	1021	0	0	
0	0	0	0	0	441	508	0	1021	0	0	
1	0	0	0	0	453	514	0	1021	0	0	
2	0	0	0	0	475	522	0	1021	0	0	
3	0	0	0	0	505	531	0	1021	0	0	
4	0	0	0	0	542	541	0	1021	0	0	
5	0	0	0	0	580	550	0	1021	0	0	
6	0	0	0	0	616	557	0	1021	0	0	
7	0	0	0	0	647	561	0	1021	0	0	
8	0	0	0	0	669	563	0	1021	0	0	
9	0	0	0	0	681	561	0	1021	0	0	
10	0	0	0	0	681	557	0	1021	0	0	
11	0	0	0	0	670	551	0	1021	0	0	
12	0	0	0	0	648	542	0	1021	0	0	
13	0	0	0	0	617	532	0	1021	0	0	
14	0	0	0	0	580	523	0	1021	0	0	
15	0	0	0	0	541	514	0	1021	0	0	
0	0	0	0	0	505	507	0	1021	0	0	
1	0	0	0	0	475	502	0	1021	0	0	
2	0	0	0	0	453	501	0	1021	0	0	
3	0	0	0	0	442	502	0	1021	0	0	
4	0	0	0	0	443	507	0	1021	0	0	
5	0	0	0	0	455	513	0	1021	0	0	
6	0	0	0	0	479	522	0	1021	0	0	
7	0	0	0	0	511	532	0	1021	0	0	
8	0	0	0	0	548	542	0	1021	0	0	
9	0	0	0	0	588	551	0	1021	0	0	
10	0	0	0	0	623	559	0	1021	0	0	
11	0	0	0	0	654	564	0	1021	0	0	
12	0	0	0	0	675	565	0	1021	0	0	
13	0	0	0	0	686	563	0	1021	0	0	
14	0	0	0	0	684	559	0	1021	0	0	
15	0	0	0	0	670	551	0	1021	0	0	
0	0	0	0	0	647	542	0	1021	0	0	
1	0	0	0	0	613	531	0	1021	0	0	
2	0	0	0	0	575	519	0	1021	0	0	
3	0	0	0	0	535	509	0	1021	0	0	
4	0	0	0	0	497	501	0	1021	0	0	
5	0	0	0	0	466	496	0	1021	0	0	
6	0	0	0	0	444	492	0	1021	0	0	
7	0	0	0	0	432	492	0	1021	0	0	
8	0	0	0	0	433	496	0	1021	0	0	
9	0	0	0	0	446	501	0	1021	0	0	
10	0	0	0	0	470	509	0	1021	0	0	
11	0	0	0	0	502	518	0	1021	0	0	
12	0	0	0	0	540	527	0	1021	0	0	
13	0	0	0	0	579	536	0	1021	0	0	
14	0	0	0	0	616	543	0	1021	0	0	
15	0	0	0	0	647	548	0	1021	0	0	
0	0	0	0	0	671	551	0	1021	0	0	
1	0	0	0	0	684	551	0	1021	0	0	
2	0	0	0	0	685	548	0	1021	0	0	
3	0	0	0	0	676	543	0	1021	0	0	
4	0	0	0	0	655	536	0	1021	0	0	
5	0	0	0	0	624	528	0	1021	0	0	
6	0	0	0	0	588	519	0	1021	0	0	
7	0	0	0	0	549	510	0	1021	0	0	
8	0	0	0	0	513	503	0	1021	0	0	
9	0	0	0	0	481	498	0	1021	0	0	
10	0	0	0	0	459	496	0	1021	0	0	
11	0	0	0	0	446	496	0	1021	0	0	
12	0	0	0	0	444	499	0	1021	0	0	
13	0	0	0	0	455	505	0	1021	0	0	
14	0	0	0	0	477	513	0	1021	0	0	
15	0	0	0	0	507	523	0	1021	0	0	
0	0	0	0	0	543	533	0	1021	0	0	
1	0	0	0	0	580	543	0	1021	0	0	
2	0	0	0	0	617	551	0	1021	0	0	
3	0	0	0	0	648	558	0	1021	0	0	
4	0	0	0	0	671	562	0	1021	0	0	
5	0	0	0	0	683	563	0	1021	0	0	
6	0	0	0	0	684	560	0	1021	0	0	
7	0	0	0	0	674	555	0	1021	0	0	
8	0	0	0	0	652	547	0	1021	0	0	
9	0	0	0	0	619	536	0	1021	0	0	
10	0	0	0	0	581	525	0	1021	0	0	
11	0	0	0	0	540	514	0	1021	0	0	
12	0	0	0	0	500	504	0	1021	0	0	
13	0	0	0	0	466	496	0	1021	0	0	
14	0	0	0	0	441	492	0	1021	0	0	
15	0	0	0	0	428	491	0	1021	0	0	
0	0	0	0	0	426	494	0	1021	0	0	
1	0	0	0	0	438	500	0	1021	0	0	
2	0	0	0	0	460	510	0	1021	0	0	
3	0	0	0	0	493	523	0	1021	0	0	
4	0	0	0	0	531	535	0	1021	0	0	
5	0	0	0	0	572	547	0	1021	0	0	
6	0	0	0	0	611	558	0	1021	0	0	
7	0	0	0	0	644	565	0	1021	0	0	
8	0	0	0	0	668	569	0	1021	0	0	
9	0	0	0	0	682	569	0	1021	0	0	
10	0	0	0	0	683	564	0	1021	0	0	
11	0	0	0	0	672	557	0	1021	0	0	
12	0	0	0	0	649	547	0	1021	0	0	
13	0	0	0	0	617	535	0	1021	0	0	
14	0	0	0	0	578	522	0	1021	0	0	
15	0	0	0	0	537	511	0	1021	0	0	
0	0	0	0	0	499	503	0	1021	0	0	
1	0	0	0	0	467	497	0	1021	0	0	
2	0	0	0	0	444	496	0	1021	0	0	
3	0	0	0	0	433	497	0	1021	0	0	
4	0	0	0	0	434	502	0	1021	0	0	
5	0	0	0	0	448	510	0	1021	0	0	
6	0	0	0	0	473	520	0	1021	0	0	
7	0	0	0	0	508	531	0	1021	0	0	
8	0	0	0	0	547	543	0	1021	0	0	
9	0	0	0	0	588	554	0	1021	0	0	
10	0	0	0	0	626	563	0	1021	0	0	
11	0	0	0	0	659	568	0	1021	0	0	
12	0	0	0	0	684	572	0	1021	0	0	
13	0	0	0	0	696	571	0	1021	0	0	
14	0	0	0	0	697	567	0	1021	0	0	
15	0	0	0	0	684	560	0	1021	0	0	
0	0	0	0	0	661	551	0	1021	0	0	
1	0	0	0	0	628	540	0	1021	0	0	
2	0	0	0	0	589	528	0	1021	0	0	
3	0	0	0	0	546	517	0	1020	0	0	
4	0	0	0	0	505	508	0	1021	0	0	
5	0	0	0	0	471	501	0	1021	0	0	
6	0	0	0	0	444	497	0	1021	0	0	
7	0	0	0	0	429	496	0	1021	0	0	
8	0	0	0	0	427	499	0	1021	0	0	
9	0	0	0	0	436	505	0	1021	0	0	
10	0	0	0	0	458	514	0	1021	0	0	
11	0	0	0	0	489	525	0	1021	0	0	
12	0	0	0	0	527	537	0	1021	0	0	
13	0	0	0	0	568	547	0	1021	0	0	
14	0	0	0	0	607	557	0	1021	0	0	
15	0	0	0	0	641	564	0	1021	0	0	
0	0	0	0	0	667	568	0	1021	0	0	
1	0	0	0	0	682	569	0	1021	0	0	
2	0	0	0	0	686	566	0	1021	0	0	
3	0	0	0	0	677	560	0	1021	0	0	
4	0	0	0	0	659	551	0	1021	0	0	
5	0	0	0	0	629	541	0	1021	0	0	
6	0	0	0	0	593	529	0	1021	0	0	
7	0	0	0	0	554	519	0	1021	0	0	
8	0	0	0	0	516	509	0	1021	0	0	
9	0	0	0	0	483	502	0	1021	0	0	
10	0	0	0	0	457	496	0	1021	0	0	
11	0	0	0	0	442	495	0	1021	0	0	
12	0	0	0	0	437	496	0	1021	0	0	
13	0	0	0	0	444	499	0	1021	0	0	
14	0	0	0	0	462	504	0	1021	0	0	
15	0	0	0	0	488	511	0	1021	0	0	
0	0	0	0	0	520	518	0	1021	0	0	
1	0	0	0	0	555	524	0	1021	0	0	
2	0	0	0	0	587	528	0	1021	0	0	
3	0	0	0	0	615	531	0	1021	0	0	
4	0	0	0	0	635	531	0	1021	0	0	
5	0	0	0	0	647	529	0	1021	0	0	
6	0	0	0	0	647	525	0	1021	0	0	
7	0	0	0	0	637	519	0	1021	0	0	
8	0	0	0	0	616	512	0	1021	0	0	
9	0	0	0	0	588	504	0	1021	0	0	
10	0	0	0	0	554	495	0	1021	0	0	
11	0	0	0	0	518	488	0	1021	0	0	
12	0	0	0	0	484	482	0	1021	0	0	
13	0	0	0	0	456	479	0	1021	0	0	
14	0	0	0	0	435	478	0	1021	0	0	
15	0	0	0	0	424	480	0	1021	0	0	
0	0	0	0	0	424	483	0	1021	0	0	
1	0	0	0	0	434	489	0	1021	0	0	
2	0	0	0	0	455	496	0	1021	0	0	
3	0	0	0	0	484	504	0	1021	0	0	
4	0	0	0	0	518	512	0	1021	0	0	
5	0	0	0	0	553	519	0	1021	0	0	
6	0	0	0	0	587	525	0	1021	0	0	
7	0	0	0	0	615	529	0	1021	0	0	
8	0	0	0	0	637	531	0	1021	0	0	
9	0	0	0	0	649	530	0	1021	0	0	
10	0	0	0	0	651	527	0	1021	0	0	
11	0	0	0	0	642	523	0	1021	0	0	
12	0	0	0	0	625	517	0	1021	0	0	
13	0	0	0	0	599	510	0	1021	0	0	
14	0	0	0	0	568	504	0	1021	0	0	
15	0	0	0	0	534	497	0	1021	0	0	
0	0	0	0	0	502	493	0	1021	0	0	
1	0	0	0	0	476	490	0	1021	0	0	
2	0	0	0	0	457	490	0	1021	0	0	
3	0	0	0	0	448	492	0	1021	0	0	
4	0	0	0	0	449	496	0	1021	0	0	
5	0	0	0	0	461	503	0	1021	0	0	
6	0	0	0	0	483	510	0	1021	0	0	
7	0	0	0	0	512	519	0	1021	0	0	
8	0	0	0	0	545	528	0	1021	0	0	
9	0	0	0	0	580	536	0	1021	0	0	
10	0	0	0	0	612	542	0	1021	0	0	
11	0	0	0	0	640	545	0	1021	0	0	
12	0	0	0	0	659	546	0	1021	0	0	
13	0	0	0	0	668	543	0	1021	0	0	
14	0	0	0	0	666	538	0	1020	0	0	
15	0	0	0	0	653	531	0	1021	0	0	
0	0	0	0	0	630	521	0	1021	0	0	
1	0	0	0	0	598	510	0	1021	0	0	
2	0	0	0	0	562	500	0	1021	0	0	
3	0	0	0	0	524	490	0	1021	0	0	
4	0	0	0	0	487	481	0	1021	0	0	
5	0	0	0	0	457	476	0	1021	0	0	
6	0	0	0	0	435	472	0	1021	0	0	
7	0	0	0	0	423	472	0	1021	0	0	
8	0	0	0	0	424	476	0	1021	0	0	
9	0	0	0	0	437	482	0	1021	0	0	
10	0	0	0	0	462	491	0	1021	0	0	
11	0	0	0	0	495	502	0	1021	0	0	
12	0	0	0	0	535	514	0	1021	0	0	
13	0	0	0	0	576	526	0	1021	0	0	
14	0	0	0	0	615	536	0	1021	0	0	
15	0	0	0	0	649	543	0	1021	0	0	
0	0	0	0	0	675	548	0	1021	0	0	
1	0	0	0	0	689	550	0	1021	0	0	
2	0	0	0	0	690	548	0	1021	0	0	
3	0	0	0	0	680	544	0	1021	0	0	
4	0	0	0	0	658	536	0	1021	0	0	
5	0	0	0	0	627	527	0	1021	0	0	
6	0	0	0	0	588	517	0	1021	0	0	
7	0	0	0	0	547	507	0	1020	0	0	
8	0	0	0	0	507	499	0	1021	0	0	
9	0	0	0	0	473	493	0	1021	0	0	
10	0	0	0	0	448	490	0	1021	0	0	
11	0	0	0	0	433	489	0	1021	0	0	
12	0	0	0	0	431	492	0	1021	0	0	
13	0	0	0	0	440	497	0	1021	0	0	
14	0	0	0	0	461	504	0	1021	0	0	
15	0	0	0	0	491	513	0	1021	0	0	
0	0	0	0	0	527	521	0	1021	0	0	
1	0	0	0	0	565	529	0	1021	0	0	
2	0	0	0	0	601	536	0	1021	0	0	
3	0	0	0	0	633	539	0	1021	0	0	
4	0	0	0	0	655	540	0	1021	0	0	
5	0	0	0	0	668	537	0	1021	0	0	
6	0	0	0	0	670	531	0	1021	0	0	
7	0	0	0	0	659	523	0	1021	0	0	
8	0	0	0	0	637	513	0	1021	0	0	
9	0	0	0	0	606	501	0	1021	0	0	
10	0	0	0	0	568	489	0	1021	0	0	
11	0	0	0	0	527	477	0	1021	0	0	
12	0	0	0	0	490	468	0	1021	0	0	
13	0	0	0	0	458	462	0	1021	0	0	
14	0	0	0	0	434	460	0	1021	0	0	
15	0	0	0	0	423	461	0	1021	0	0	
0	0	0	0	0	423	466	0	1021	0	0	
1	0	0	0	0	435	474	0	1021	0	0	
2	0	0	0	0	458	484	0	1021	0	0	
3	0	0	0	0	490	496	0	1021	0	0	
4	0	0	0	0	528	507	0	1021	0	0	
5	0	0	0	0	567	517	0	1021	0	0	
6	0	0	0	0	603	525	0	1021	0	0	
7	0	0	0	0	635	530	0	1021	0	0	
8	0	0	0	0	658	531	0	1021	0	0	
9	0	0	0	0	671	530	0	1021	0	0	
10	0	0	0	0	672	525	0	1021	0	0	
11	0	0	0	0	661	518	0	1021	0	0	
12	0	0	0	0	641	509	0	1021	0	0	
13	0	0	0	0	610	498	0	1021	0	0	
14	0	0	0	0	574	488	0	1021	0	0	
15	0	0	0	0	535	478	0	1020	0	0	
0	0	0	0	0	498	471	0	1021	0	0	
1	0	0	0	0	467	466	0	1021	0	0	
2	0	0	0	0	444	465	0	1021	0	0	
3	0	0	0	0	432	467	0	1021	0	0	
4	0	0	0	0	432	472	0	1020	0	0	
5	0	0	0	0	444	482	0	1021	0	0	
6	0	0	0	0	467	494	0	1021	0	0	
7	0	0	0	0	498	508	0	1021	0	0	
8	0	0	0	0	534	521	0	1021	0	0	
9	0	0	0	0	572	534	0	1020	0	0	
10	0	0	0	0	607	545	0	1021	0	0	
11	0	0	0	0	637	553	0	1021	0	0	
12	0	0	0	0	658	557	0	1021	0	0	
13	0	0	0	0	667	556	0	1021	0	0	
14	0	0	0	0	664	551	0	1021	0	0	
15	0	0	0	0	647	541	0	1021	0	0	
0	0	0	0	0	619	527	0	1021	0	0	
1	0	0	0	0	581	511	0	1021	0	0	
2	0	0	0	0	537	493	0	1021	0	0	
3	0	0	0	0	489	475	0	1021	0	0	
4	0	0	0	0	444	458	0	1021	0	0	
5	0	0	0	0	403	443	0	1021	0	0	
6	0	0	0	0	370	430	0	1021	0	0	
7	0	0	0	0	349	421	0	1021	0	0	
8	0	0	0	0	339	414	0	1021	0	0	
9	0	0	0	0	340	411	0	1021	0	0	
10	0	0	0	0	354	409	0	1021	0	0	
11	0	0	0	0	377	410	0	1021	0	0	
12	0	0	0	0	407	411	0	1021	0	0	
13	0	0	0	0	440	412	0	1021	0	0	
14	0	0	0	0	471	412	0	1021	0	0	
15	0	0	0	0	498	410	0	1021	0	0	
0	0	0	0	0	515	405	0	1021	0	0	
1	0	0	0	0	523	397	0	1021	0	0	
2	0	0	0	0	518	386	0	1021	0	0	
3	0	0	0	0	500	371	0	1021	0	0	
4	0	0	0	0	470	352	0	1021	0	0	
5	0	0	0	0	430	332	0	1021	0	0	
6	0	0	0	0	383	310	0	1021	0	0	
7	0	0	0	0	333	287	0	1020	0	0	
8	0	0	0	0	284	267	0	1021	0	0	
9	0	0	0	0	243	250	0	1021	0	0	
10	0	0	0	0	210	239	0	1021	0	0	
11	0	0	0	0	189	233	0	1021	0	0	
12	0	0	0	0	184	234	0	1021	0	0	
13	0	0	0	0	194	242	0	1021	0	0	
14	0	0	0	0	222	258	0	1021	0	0	
15	0	0	0	0	266	281	0	1021	0	0	
0	0	0	0	0	321	310	0	1021	0	0	
1	0	0	0	0	386	343	0	1021	0	0	
2	0	0	0	0	454	377	0	1021	0	0	
3	0	0	0	0	519	412	0	1021	0	0	
4	0	0	0	0	578	444	0	1021	0	0	
5	0	0	0	0	626	473	0	1021	0	0	
6	0	0	0	0	659	496	0	1021	0	0	
7	0	0	0	0	676	514	0	1021	0	0	
8	0	0	0	0	679	525	0	1021	0	0	
9	0	0	0	0	666	531	0	1021	0	0	
10	0	0	0	0	640	531	0	1021	0	0	
11	0	0	0	0	606	527	0	1021	0	0	
12	0	0	0	0	567	522	0	1021	0	0	
13	0	0	0	0	530	515	0	1021	0	0	
14	0	0	0	0	496	508	0	1021	0	0	
15	0	0	0	0	471	504	0	1021	0	0	
0	0	0	0	0	455	500	0	1021	0	0	
1	0	0	0	0	450	500	0	1021	0	0	
2	0	0	0	0	458	502	0	1021	0	0	
3	0	0	0	0	477	507	0	1021	0	0	
4	0	0	0	0	504	513	0	1021	0	0	
5	0	0	0	0	535	520	0	1021	0	0	
6	0	0	0	0	568	527	0	1021	0	0	
7	0	0	0	0	598	532	0	1021	0	0	
8	0	0	0	0	621	536	0	1021	0	0	
9	0	0	0	0	637	538	0	1021	0	0	
10	0	0	0	0	643	537	0	1021	0	0	
11	0	0	0	0	639	533	0	1021	0	0	
12	0	0	0	0	624	528	0	1021	0	0	
13	0	0	0	0	600	520	0	1021	0	0	
14	0	0	0	0	571	512	0	1021	0	0	
15	0	0	0	0	537	504	0	1021	0	0	
0	0	0	0	0	504	496	0	1021	0	0	
1	0	0	0	0	473	489	0	1021	0	0	
2	0	0	0	0	451	486	0	1021	0	0	
3	0	0	0	0	437	484	0	1021	0	0	
4	0	0	0	0	433	485	0	1021	0	0	
5	0	0	0	0	440	488	0	1021	0	0	
6	0	0	0	0	458	495	0	1021	0	0	
7	0	0	0	0	484	502	0	1021	0	0	
8	0	0	0	0	516	509	0	1021	0	0	
9	0	0	0	0	551	516	0	1021	0	0	
10	0	0	0	0	584	522	0	1021	0	0	
11	0	0	0	0	614	527	0	1021	0	0	
12	0	0	0	0	637	529	0	1021	0	0	
13	0	0	0	0	652	528	0	1021	0	0	
14	0	0	0	0	656	527	0	1021	0	0	
15	0	0	0	0	651	524	0	1021	0	0	
0	0	0	0	0	636	519	0	1021	0	0	
1	0	0	0	0	613	513	0	1021	0	0	
2	0	0	0	0	584	507	0	1021	0	0	
3	0	0	0	0	552	502	0	1021	0	0	
4	0	0	0	0	521	497	0	1021	0	0	
5	0	0	0	0	495	495	0	1021	0	0	
6	0	0	0	0	476	494	0	1021	0	0	
7	0	0	0	0	466	496	0	1021	0	0	
8	0	0	0	0	466	500	0	1021	0	0	
9	0	0	0	0	476	507	0	1021	0	0	
10	0	0	0	0	496	515	0	1021	0	0	
11	0	0	0	0	523	524	0	1021	0	0	
12	0	0	0	0	555	532	0	1021	0	0	
13	0	0	0	0	590	540	0	1020	0	0	
14	0	0	0	0	622	545	0	1021	0	0	
15	0	0	0	0	649	548	0	1021	0	0	
0	0	0	0	0	669	549	0	1021	0	0	
1	0	0	0	0	678	545	0	1021	0	0	
2	0	0	0	0	676	540	0	1020	0	0	
3	0	0	0	0	663	532	0	1021	0	0	
4	0	0	0	0	640	522	0	1021	0	0	
5	0	0	0	0	608	511	0	1021	0	0	
6	0	0	0	0	571	499	0	1021	0	0	
7	0	0	0	0	532	488	0	1021	0	0	
8	0	0	0	0	495	480	0	1021	0	0	
9	0	0	0	0	463	474	0	1021	0	0	
10	0	0	0	0	441	471	0	1021	0	0	
11	0	0	0	0	429	472	0	1021	0	0	
12	0	0	0	0	429	476	0	1021	0	0	
13	0	0	0	0	440	483	0	1021	0	0	
14	0	0	0	0	464	493	0	1021	0	0	
15	0	0	0	0	496	504	0	1021	0	0	
0	0	0	0	0	534	516	0	1021	0	0	
1	0	0	0	0	574	527	0	1021	0	0	
2	0	0	0	0	613	537	0	1021	0	0	
3	0	0	0	0	646	544	0	1021	0	0	
4	0	0	0	0	670	548	0	1021	0	0	
5	0	0	0	0	685	548	0	1021	0	0	
6	0	0	0	0	687	544	0	1021	0	0	
7	0	0	0	0	677	538	0	1021	0	0	
8	0	0	0	0	657	528	0	1021	0	0	
9	0	0	0	0	625	517	0	1021	0	0	
10	0	0	0	0	588	505	0	1021	0	0	
11	0	0	0	0	547	493	0	1021	0	0	
12	0	0	0	0	508	483	0	1021	0	0	
13	0	0	0	0	475	475	0	1021	0	0	
14	0	0	0	0	448	470	0	1021	0	0	
15	0	0	0	0	433	468	0	1021	0	0	
0	0	0	0	0	429	470	0	1021	0	0	
1	0	0	0	0	436	474	0	1021	0	0	
2	0	0	0	0	455	481	0	1021	0	0	
3	0	0	0	0	483	490	0	1021	0	0	
4	0	0	0	0	517	500	0	1021	0	0	
5	0	0	0	0	554	509	0	1020	0	0	
6	0	0	0	0	588	518	0	1021	0	0	
7	0	0	0	0	620	525	0	1021	0	0	
8	0	0	0	0	643	528	0	1021	0	0	
9	0	0	0	0	656	530	0	1021	0	0	
10	0	0	0	0	659	528	0	1021	0	0	
11	0	0	0	0	652	525	0	1021	0	0	
12	0	0	0	0	633	519	0	1021	0	0	
13	0	0	0	0	606	512	0	1021	0	0	
14	0	0	0	0	572	504	0	1021	0	0	
15	0	0	0	0	536	496	0	1021	0	0	
0	0	0	0	0	501	489	0	1021	0	0	
1	0	0	0	0	471	484	0	1021	0	0	
2	0	0	0	0	448	481	0	1021	0	0	
3	0	0	0	0	436	481	0	1021	0	0	
4	0	0	0	0	434	483	0	1021	0	0	
5	0	0	0	0	445	489	0	1021	0	0	
6	0	0	0	0	465	496	0	1021	0	0	
7	0	0	0	0	496	505	0	1021	0	0	
8	0	0	0	0	531	515	0	1021	0	0	
9	0	0	0	0	568	523	0	1021	0	0	
10	0	0	0	0	605	531	0	1021	0	0	
11	0	0	0	0	636	537	0	1021	0	0	
12	0	0	0	0	659	540	0	1021	0	0	
13	0	0	0	0	672	539	0	1021	0	0	
14	0	0	0	0	674	535	0	1021	0	0	
15	0	0	0	0	664	529	0	1021	0	0	
0	0	0	0	0	643	520	0	1021	0	0	
1	0	0	0	0	613	510	0	1021	0	0	
2	0	0	0	0	577	499	0	1021	0	0	
3	0	0	0	0	538	488	0	1021	0	0	
4	0	0	0	0	501	479	0	1021	0	0	
5	0	0	0	0	468	472	0	1021	0	0	
6	0	0	0	0	445	468	0	1021	0	0	
7	0	0	0	0	431	466	0	1021	0	0	
8	0	0	0	0	428	467	0	1021	0	0	
9	0	0	0	0	438	472	0	1021	0	0	
10	0	0	0	0	457	477	0	1021	0	0	
11	0	0	0	0	486	484	0	1021	0	0	
12	0	0	0	0	520	492	0	1021	0	0	
13	0	0	0	0	556	498	0	1021	0	0	
14	0	0	0	0	592	504	0	1021	0	0	
15	0	0	0	0	622	508	0	1021	0	0	
0	0	0	0	0	645	510	0	1021	0	0	
1	0	0	0	0	658	509	0	1021	0	0	
2	0	0	0	0	659	506	0	1021	0	0	
3	0	0	0	0	651	500	0	1021	0	0	
4	0	0	0	0	632	492	0	1021	0	0	
5	0	0	0	0	602	483	0	1021	0	0	
6	0	0	0	0	566	473	0	1021	0	0	
7	0	0	0	0	527	463	0	1021	0	0	
8	0	0	0	0	491	455	0	1021	0	0	
9	0	0	0	0	458	449	0	1021	0	0	
10	0	0	0	0	434	446	0	1021	0	0	
11	0	0	0	0	420	447	0	1021	0	0	
12	0	0	0	0	418	450	0	1021	0	0	
13	0	0	0	0	428	457	0	1021	0	0	
14	0	0	0	0	449	466	0	1021	0	0	
15	0	0	0	0	479	476	0	1021	0	0	
0	0	0	0	0	515	487	0	1021	0	0	
1	0	0	0	0	552	496	0	1021	0	0	
2	0	0	0	0	588	505	0	1021	0	0	
3	0	0	0	0	619	510	0	1021	0	0	
4	0	0	0	0	641	512	0	1021	0	0	
5	0	0	0	0	653	511	0	1021	0	0	
6	0	0	0	0	653	507	0	1021	0	0	
7	0	0	0	0	642	500	0	1021	0	0	
8	0	0	0	0	620	492	0	1021	0	0	
9	0	0	0	0	589	481	0	1021	0	0	
10	0	0	0	0	552	471	0	1021	0	0	
11	0	0	0	0	512	461	0	1021	0	0	
12	0	0	0	0	475	454	0	1021	0	0	
13	0	0	0	0	444	449	0	1021	0	0	
14	0	0	0	0	421	446	0	1021	0	0	
15	0	0	0	0	409	448	0	1021	0	0	
0	0	0	0	0	409	452	0	1021	0	0	
1	0	0	0	0	422	459	0	1021	0	0	
2	0	0	0	0	444	468	0	1021	0	0	
3	0	0	0	0	476	479	0	1021	0	0	
4	0	0	0	0	513	489	0	1021	0	0	
5	0	0	0	0	552	500	0	1021	0	0	
6	0	0	0	0	589	508	0	1021	0	0	
7	0	0	0	0	621	513	0	1021	0	0	
8	0	0	0	0	643	514	0	1021	0	0	
9	0	0	0	0	655	512	0	1021	0	0	
10	0	0	0	0	655	507	0	1021	0	0	
11	0	0	0	0	643	498	0	1021	0	0	
12	0	0	0	0	620	487	0	1021	0	0	
13	0	0	0	0	587	473	0	1021	0	0	
14	0	0	0	0	548	460	0	1021	0	0	
15	0	0	0	0	506	446	0	1021	0	0	
0	0	0	0	0	465	435	0	1021	0	0	
1	0	0	0	0	431	425	0	1021	0	0	
2	0	0	0	0	403	419	0	1021	0	0	
3	0	0	0	0	388	417	0	1021	0	0	
4	0	0	0	0	384	419	0	1021	0	0	
5	0	0	0	0	392	424	0	1021	0	0	
6	0	0	0	0	412	433	0	1021	0	0	
7	0	0	0	0	441	444	0	1021	0	0	
8	0	0	0	0	477	455	0	1021	0	0	
9	0	0	0	0	515	467	0	1021	0	0	
10	0	0	0	0	551	477	0	1021	0	0	
11	0	0	0	0	583	484	0	1021	0	0	
12	0	0	0	0	606	487	0	1021	0	0	
13	0	0	0	0	618	487	0	1021	0	0	
14	0	0	0	0	618	483	0	1021	0	0	
15	0	0	0	0	606	476	0	1021	0	0	
0	0	0	0	0	584	467	0	1021	0	0	
1	0	0	0	0	553	455	0	1021	0	0	
2	0	0	0	0	515	443	0	1021	0	0	
3	0	0	0	0	475	430	0	1020	0	0	
4	0	0	0	0	436	419	0	1021	0	0	
5	0	0	0	0	403	409	0	1021	0	0	
6	0	0	0	0	379	404	0	1021	0	0	
7	0	0	0	0	366	401	0	1021	0	0	
8	0	0	0	0	364	403	0	1021	0	0	
9	0	0	0	0	376	408	0	1021	0	0	
10	0	0	0	0	399	417	0	1021	0	0	
11	0	0	0	0	432	428	0	1021	0	0	
12	0	0	0	0	472	440	0	1021	0	0	
13	0	0	0	0	513	454	0	1021	0	0	
14	0	0	0	0	552	464	0	1021	0	0	
15	0	0	0	0	586	473	0	1021	0	0	
0	0	0	0	0	611	478	0	1021	0	0	
1	0	0	0	0	626	481	0	1021	0	0	
2	0	0	0	0	628	479	0	1021	0	0	
3	0	0	0	0	617	473	0	1021	0	0	
4	0	0	0	0	595	465	0	1021	0	0	
5	0	0	0	0	563	455	0	1021	0	0	
6	0	0	0	0	524	443	0	1021	0	0	
7	0	0	0	0	482	431	0	1020	0	0	
8	0	0	0	0	441	420	0	1021	0	0	
9	0	0	0	0	407	412	0	1021	0	0	
10	0	0	0	0	380	407	0	1021	0	0	
11	0	0	0	0	365	405	0	1021	0	0	
12	0	0	0	0	362	407	0	1021	0	0	
13	0	0	0	0	371	412	0	1021	0	0	
14	0	0	0	0	393	421	0	1021	0	0	
15	0	0	0	0	424	432	0	1021	0	0	
0	0	0	0	0	463	445	0	1021	0	0	
1	0	0	0	0	504	458	0	1021	0	0	
2	0	0	0	0	544	469	0	1021	0	0	
3	0	0	0	0	580	479	0	1021	0	0	
4	0	0	0	0	607	486	0	1021	0	0	
5	0	0	0	0	624	489	0	1021	0	0	
6	0	0	0	0	630	489	0	1021	0	0	
7	0	0	0	0	623	487	0	1021	0	0	
8	0	0	0	0	604	481	0	1021	0	0	
9	0	0	0	0	575	473	0	1021	0	0	
10	0	0	0	0	539	464	0	1021	0	0	
11	0	0	0	0	499	455	0	1021	0	0	
12	0	0	0	0	460	446	0	1021	0	0	
13	0	0	0	0	426	438	0	1021	0	0	
14	0	0	0	0	399	434	0	1021	0	0	
15	0	0	0	0	382	432	0	1021	0	0	
0	0	0	0	0	377	434	0	1021	0	0	
1	0	0	0	0	385	440	0	1021	0	0	
2	0	0	0	0	406	449	0	1021	0	0	
3	0	0	0	0	436	460	0	1021	0	0	
4	0	0	0	0	474	472	0	1021	0	0	
5	0	0	0	0	515	483	0	1021	0	0	
6	0	0	0	0	556	494	0	1021	0	0	
7	0	0	0	0	592	503	0	1021	0	0	
8	0	0	0	0	620	508	0	1021	0	0	
9	0	0	0	0	638	511	0	1021	0	0	
10	0	0	0	0	644	510	0	1021	0	0	
11	0	0	0	0	639	508	0	1021	0	0	
12	0	0	0	0	623	502	0	1021	0	0	
13	0	0	0	0	597	496	0	1021	0	0	
14	0	0	0	0	563	487	0	1021	0	0	
15	0	0	0	0	527	480	0	1021	0	0	
0	0	0	0	0	492	474	0	1021	0	0	
1	0	0	0	0	460	470	0	1021	0	0	
2	0	0	0	0	438	469	0	1021	0	0	
3	0	0	0	0	424	471	0	1021	0	0	
4	0	0	0	0	423	475	0	1021	0	0	
5	0	0	0	0	433	483	0	1021	0	0	
6	0	0	0	0	455	492	0	1021	0	0	
7	0	0	0	0	486	503	0	1021	0	0	
8	0	0	0	0	522	513	0	1021	0	0	
9	0	0	0	0	561	523	0	1021	0	0	
10	0	0	0	0	598	531	0	1021	0	0	
11	0	0	0	0	630	536	0	1021	0	0	
12	0	0	0	0	654	539	0	1021	0	0	
13	0	0	0	0	668	539	0	1021	0	0	
14	0	0	0	0	671	537	0	1021	0	0	
15	0	0	0	0	664	532	0	1021	0	0	
0	0	0	0	0	645	526	0	1021	0	0	
1	0	0	0	0	617	519	0	1021	0	0	
2	0	0	0	0	583	511	0	1021	0	0	
3	0	0	0	0	547	504	0	1021	0	0	
4	0	0	0	0	511	498	0	1021	0	0	
5	0	0	0	0	480	495	0	1021	0	0	
6	0	0	0	0	457	494	0	1021	0	0	
7	0	0	0	0	444	496	0	1021	0	0	
8	0	0	0	0	441	499	0	1020	0	0	
9	0	0	0	0	450	507	0	1021	0	0	
10	0	0	0	0	470	515	0	1021	0	0	
11	0	0	0	0	498	525	0	1021	0	0	
12	0	0	0	0	532	535	0	1021	0	0	
13	0	0	0	0	569	544	0	1021	0	0	
14	0	0	0	0	605	552	0	1021	0	0	
15	0	0	0	0	636	558	0	1021	0	0	
0	0	0	0	0	659	560	0	1021	0	0	
1	0	0	0	0	673	560	0	1021	0	0	
2	0	0	0	0	675	556	0	1021	0	0	
3	0	0	0	0	667	550	0	1021	0	0	
4	0	0	0	0	646	541	0	1021	0	0	
5	0	0	0	0	616	530	0	1021	0	0	
6	0	0	0	0	580	519	0	1021	0	0	
7	0	0	0	0	540	509	0	1021	0	0	
8	0	0	0	0	503	500	0	1021	0	0	
9	0	0	0	0	470	496	0	1021	0	0	
10	0	0	0	0	445	493	0	1021	0	0	
11	0	0	0	0	432	495	0	1021	0	0	
12	0	0	0	0	430	500	0	1020	0	0	
13	0	0	0	0	440	508	0	1021	0	0	
14	0	0	0	0	462	519	0	1021	0	0	
15	0	0	0	0	494	531	0	1021	0	0	
0	0	0	0	0	532	545	0	1021	0	0	
1	0	0	0	0	574	557	0	1021	0	0	
2	0	0	0	0	614	568	0	1021	0	0	
3	0	0	0	0	651	577	0	1021	0	0	
4	0	0	0	0	678	582	0	1021	0	0	
5	0	0	0	0	696	583	0	1021	0	0	
6	0	0	0	0	702	581	0	1021	0	0	
7	0	0	0	0	696	575	0	1021	0	0	
8	0	0	0	0	678	567	0	1021	0	0	
9	0	0	0	0	649	555	0	1021	0	0	
10	0	0	0	0	612	543	0	1021	0	0	
11	0	0	0	0	572	531	0	1020	0	0	
12	0	0	0	0	531	519	0	1021	0	0	
13	0	0	0	0	495	511	0	1021	0	0	
14	0	0	0	0	467	505	0	1021	0	0	
15	0	0	0	0	448	503	0	1021	0	0	
0	0	0	0	0	441	504	0	1021	0	0	
1	0	0	0	0	448	508	0	1021	0	0	
2	0	0	0	0	466	516	0	1021	0	0	
3	0	0	0	0	495	525	0	1021	0	0	
4	0	0	0	0	530	535	0	1021	0	0	
5	0	0	0	0	569	545	0	1021	0	0	
6	0	0	0	0	607	553	0	1021	0	0	
7	0	0	0	0	642	560	0	1021	0	0	
8	0	0	0	0	669	563	0	1021	0	0	
9	0	0	0	0	685	564	0	1021	0	0	
10	0	0	0	0	690	562	0	1020	0	0	
11	0	0	0	0	683	556	0	1021	0	0	
12	0	0	0	0	665	549	0	1021	0	0	
13	0	0	0	0	636	539	0	1021	0	0	
14	0	0	0	0	600	529	0	1021	0	0	
15	0	0	0	0	560	518	0	1021	0	0	
0	0	0	0	0	520	509	0	1021	0	0	
1	0	0	0	0	485	501	0	1021	0	0	
2	0	0	0	0	457	496	0	1021	0	0	
3	0	0	0	0	439	495	0	1021	0	0	
4	0	0	0	0	433	495	0	1021	0	0	
5	0	0	0	0	439	499	0	1021	0	0	
6	0	0	0	0	457	506	0	1021	0	0	
7	0	0	0	0	485	514	0	1021	0	0	
8	0	0	0	0	520	524	0	1021	0	0	
9	0	0	0	0	560	534	0	1021	0	0	
10	0	0	0	0	596	541	0	1021	0	0	
11	0	0	0	0	631	548	0	1021	0	0	
12	0	0	0	0	657	551	0	1021	0	0	
13	0	0	0	0	674	552	0	1021	0	0	
14	0	0	0	0	679	550	0	1021	0	0	
15	0	0	0	0	672	546	0	1021	0	0	
0	0	0	0	0	655	539	0	1021	0	0	
1	0	0	0	0	627	531	0	1021	0	0	
2	0	0	0	0	592	523	0	1021	0	0	
3	0	0	0	0	553	514	0	1021	0	0	
4	0	0	0	0	515	508	0	1021	0	0	
5	0	0	0	0	482	503	0	1021	0	0	
6	0	0	0	0	455	501	0	1021	0	0	
7	0	0	0	0	439	502	0	1021	0	0	
8	0	0	0	0	435	505	0	1021	0	0	
9	0	0	0	0	441	511	0	1021	0	0	
10	0	0	0	0	460	519	0	1021	0	0	
11	0	0	0	0	489	528	0	1021	0	0	
12	0	0	0	0	524	538	0	1021	0	0	
13	0	0	0	0	563	546	0	1021	0	0	
14	0	0	0	0	600	552	0	1021	0	0	
15	0	0	0	0	633	557	0	1021	0	0	
0	0	0	0	0	658	558	0	1021	0	0	
1	0	0	0	0	674	556	0	1021	0	0	
2	0	0	0	0	678	551	0	1021	0	0	
3	0	0	0	0	671	543	0	1021	0	0	
4	0	0	0	0	652	535	0	1021	0	0	
5	0	0	0	0	623	524	0	1021	0	0	
6	0	0	0	0	588	514	0	1021	0	0	
7	0	0	0	0	550	504	0	1021	0	0	
8	0	0	0	0	512	496	0	1021	0	0	
9	0	0	0	0	479	490	0	1021	0	0	
10	0	0	0	0	453	487	0	1021	0	0	
11	0	0	0	0	438	487	0	1021	0	0	
12	0	0	0	0	433	489	0	1021	0	0	
13	0	0	0	0	440	495	0	1021	0	0	
14	0	0	0	0	458	503	0	1021	0	0	
15	0	0	0	0	486	512	0	1021	0	0	
0	0	0	0	0	520	523	0	1021	0	0	
1	0	0	0	0	558	532	0	1021	0	0	
2	0	0	0	0	593	540	0	1021	0	0	
3	0	0	0	0	626	547	0	1021	0	0	
4	0	0	0	0	650	551	0	1021	0	0	
5	0	0	0	0	665	551	0	1021	0	0	
6	0	0	0	0	669	550	0	1021	0	0	
7	0	0	0	0	661	545	0	1021	0	0	
8	0	0	0	0	642	538	0	1021	0	0	
9	0	0	0	0	614	529	0	1021	0	0	
10	0	0	0	0	579	519	0	1021	0	0	
11	0	0	0	0	541	509	0	1021	0	0	
12	0	0	0	0	503	499	0	1021	0	0	
13	0	0	0	0	470	492	0	1021	0	0	
14	0	0	0	0	445	488	0	1021	0	0	
15	0	0	0	0	430	487	0	1021	0	0	
0	0	0	0	0	426	488	0	1021	0	0	
1	0	0	0	0	435	493	0	1021	0	0	
2	0	0	0	0	454	500	0	1021	0	0	
3	0	0	0	0	483	508	0	1021	0	0	
4	0	0	0	0	518	518	0	1021	0	0	
5	0	0	0	0	557	527	0	1020	0	0	
6	0	0	0	0	594	535	0	1021	0	0	
7	0	0	0	0	628	542	0	1021	0	0	
8	0	0	0	0	655	545	0	1021	0	0	
9	0	0	0	0	672	545	0	1021	0	0	
10	0	0	0	0	677	543	0	1021	0	0	
11	0	0	0	0	671	537	0	1021	0	0	
12	0	0	0	0	653	529	0	1021	0	0	
13	0	0	0	0	625	519	0	1021	0	0	
14	0	0	0	0	591	509	0	1021	0	0	
15	0	0	0	0	552	500	0	1021	0	0	
0	0	0	0	0	515	492	0	1021	0	0	
1	0	0	0	0	483	487	0	1021	0	0	
2	0	0	0	0	459	486	0	1021	0	0	
3	0	0	0	0	444	487	0	1021	0	0	
4	0	0	0	0	442	492	0	1021	0	0	
5	0	0	0	0	451	499	0	1021	0	0	
6	0	0	0	0	471	508	0	1021	0	0	
7	0	0	0	0	501	519	0	1021	0	0	
8	0	0	0	0	537	530	0	1021	0	0	
9	0	0	0	0	575	539	0	1020	0	0	
10	0	0	0	0	614	547	0	1021	0	0	
11	0	0	0	0	648	553	0	1021	0	0	
12	0	0	0	0	673	555	0	1021	0	0	
13	0	0	0	0	689	554	0	1021	0	0	
14	0	0	0	0	694	550	0	1021	0	0	
15	0	0	0	0	686	543	0	1021	0	0	
0	0	0	0	0	668	534	0	1021	0	0	
1	0	0	0	0	639	524	0	1021	0	0	
2	0	0	0	0	602	512	0	1021	0	0	
3	0	0	0	0	563	501	0	1021	0	0	
4	0	0	0	0	523	492	0	1021	0	0	
5	0	0	0	0	488	484	0	1021	0	0	
6	0	0	0	0	462	480	0	1021	0	0	
7	0	0	0	0	445	479	0	1021	0	0	
8	0	0	0	0	441	482	0	1020	0	0	
9	0	0	0	0	448	487	0	1021	0	0	
10	0	0	0	0	468	495	0	1021	0	0	
11	0	0	0	0	497	504	0	1021	0	0	
12	0	0	0	0	533	515	0	1021	0	0	
13	0	0	0	0	573	525	0	1021	0	0	
14	0	0	0	0	611	533	0	1021	0	0	
15	0	0	0	0	646	540	0	1021	0	0	
0	0	0	0	0	673	543	0	1021	0	0	
1	0	0	0	0	689	544	0	1021	0	0	
2	0	0	0	0	695	542	0	1020	0	0	
3	0	0	0	0	687	536	0	1021	0	0	
4	0	0	0	0	669	529	0	1021	0	0	
5	0	0	0	0	639	519	0	1021	0	0	
6	0	0	0	0	604	509	0	1021	0	0	
7	0	0	0	0	563	499	0	1021	0	0	
8	0	0	0	0	524	490	0	1021	0	0	
9	0	0	0	0	490	484	0	1021	0	0	
10	0	0	0	0	464	481	0	1021	0	0	
11	0	0	0	0	448	480	0	1021	0	0	
12	0	0	0	0	443	483	0	1021	0	0	
13	0	0	0	0	451	488	0	1021	0	0	
14	0	0	0	0	471	496	0	1021	0	0	
15	0	0	0	0	500	505	0	1021	0	0	
0	0	0	0	0	536	515	0	1021	0	0	
1	0	0	0	0	576	525	0	1021	0	0	
2	0	0	0	0	614	534	0	1021	0	0	
3	0	0	0	0	649	541	0	1021	0	0	
4	0	0	0	0	675	545	0	1021	0	0	
5	0	0	0	0	692	547	0	1021	0	0	
6	0	0	0	0	696	545	0	1021	0	0	
7	0	0	0	0	690	542	0	1021	0	0	
8	0	0	0	0	670	535	0	1021	0	0	
9	0	0	0	0	640	526	0	1021	0	0	
10	0	0	0	0	603	517	0	1021	0	0	
11	0	0	0	0	562	508	0	1021	0	0	
12	0	0	0	0	522	500	0	1021	0	0	
13	0	0	0	0	486	494	0	1021	0	0	
14	0	0	0	0	458	491	0	1021	0	0	
15	0	0	0	0	440	490	0	1021	0	0	
0	0	0	0	0	433	492	0	1021	0	0	
1	0	0	0	0	440	497	0	1021	0	0	
2	0	0	0	0	458	504	0	1021	0	0	
3	0	0	0	0	486	512	0	1021	0	0	
4	0	0	0	0	521	521	0	1021	0	0	
5	0	0	0	0	559	529	0	1021	0	0	
6	0	0	0	0	597	537	0	1021	0	0	
7	0	0	0	0	632	542	0	1021	0	0	
8	0	0	0	0	657	543	0	1021	0	0	
9	0	0	0	0	673	543	0	1021	0	0	
10	0	0	0	0	678	539	0	1021	0	0	
11	0	0	0	0	671	533	0	1021	0	0	
12	0	0	0	0	653	526	0	1021	0	0	
13	0	0	0	0	624	516	0	1021	0	0	
14	0	0	0	0	589	507	0	1021	0	0	
15	0	0	0	0	549	499	0	1021	0	0	
0	0	0	0	0	511	493	0	1021	0	0	
1	0	0	0	0	477	489	0	1021	0	0	
2	0	0	0	0	451	489	0	1021	0	0	
3	0	0	0	0	436	493	0	1021	0	0	
4	0	0	0	0	432	498	0	1021	0	0	
5	0	0	0	0	440	506	0	1021	0	0	
6	0	0	0	0	459	516	0	1021	0	0	
7	0	0	0	0	487	527	0	1021	0	0	
8	0	0	0	0	521	536	0	1021	0	0	
9	0	0	0	0	559	546	0	1021	0	0	
10	0	0	0	0	596	553	0	1021	0	0	
11	0	0	0	0	628	558	0	1021	0	0	
12	0	0	0	0	654	559	0	1021	0	0	
13	0	0	0	0	668	557	0	1021	0	0	
14	0	0	0	0	672	552	0	1021	0	0	
15	0	0	0	0	664	545	0	1021	0	0	
0	0	0	0	0	646	536	0	1021	0	0	
1	0	0	0	0	617	526	0	1021	0	0	
2	0	0	0	0	581	514	0	1021	0	0	
3	0	0	0	0	542	504	0	1021	0	0	
4	0	0	0	0	503	495	0	1021	0	0	
5	0	0	0	0	468	489	0	1021	0	0	
6	0	0	0	0	442	486	0	1021	0	0	
7	0	0	0	0	425	486	0	1021	0	0	
8	0	0	0	0	419	488	0	1020	0	0	
9	0	0	0	0	425	495	0	1021	0	0	
10	0	0	0	0	444	503	0	1021	0	0	
11	0	0	0	0	473	514	0	1021	0	0	
12	0	0	0	0	509	526	0	1021	0	0	
13	0	0	0	0	549	538	0	1020	0	0	
14	0	0	0	0	589	548	0	1021	0	0	
15	0	0	0	0	626	558	0	1021	0	0	
0	0	0	0	0	656	563	0	1021	0	0	
1	0	0	0	0	675	566	0	1021	0	0	
2	0	0	0	0	684	565	0	1021	0	0	
3	0	0	0	0	681	560	0	1021	0	0	
4	0	0	0	0	667	553	0	1021	0	0	
5	0	0	0	0	641	543	0	1021	0	0	
6	0	0	0	0	608	532	0	1021	0	0	
7	0	0	0	0	571	520	0	1021	0	0	
8	0	0	0	0	532	510	0	1021	0	0	
9	0	0	0	0	498	502	0	1021	0	0	
10	0	0	0	0	471	497	0	1021	0	0	
11	0	0	0	0	453	495	0	1021	0	0	
12	0	0	0	0	446	497	0	1021	0	0	
13	0	0	0	0	449	502	0	1021	0	0	
14	0	0	0	0	465	510	0	1021	0	0	
15	0	0	0	0	490	519	0	1021	0	0	
0	0	0	0	0	521	529	0	1021	0	0	
1	0	0	0	0	556	539	0	1021	0	0	
2	0	0	0	0	590	547	0	1021	0	0	
3	0	0	0	0	621	555	0	1021	0	0	
4	0	0	0	0	645	558	0	1021	0	0	
5	0	0	0	0	659	559	0	1021	0	0	
6	0	0	0	0	664	557	0	1021	0	0	
7	0	0	0	0	657	552	0	1021	0	0	
8	0	0	0	0	639	545	0	1021	0	0	
9	0	0	0	0	612	536	0	1021	0	0	
10	0	0	0	0	577	526	0	1021	0	0	
11	0	0	0	0	540	516	0	1021	0	0	
12	0	0	0	0	503	508	0	1021	0	0	
13	0	0	0	0	470	503	0	1021	0	0	
14	0	0	0	0	445	500	0	1021	0	0	
15	0	0	0	0	430	500	0	1021	0	0	
0	0	0	0	0	426	503	0	1021	0	0	
1	0	0	0	0	434	509	0	1021	0	0	
2	0	0	0	0	454	518	0	1021	0	0	
3	0	0	0	0	482	527	0	1021	0	0	
4	0	0	0	0	518	539	0	1021	0	0	
5	0	0	0	0	556	548	0	1021	0	0	
6	0	0	0	0	593	556	0	1021	0	0	
7	0	0	0	0	626	562	0	1021	0	0	
8	0	0	0	0	652	565	0	1021	0	0	
9	0	0	0	0	667	564	0	1021	0	0	
10	0	0	0	0	671	561	0	1021	0	0	
11	0	0	0	0	664	555	0	1021	0	0	
12	0	0	0	0	646	546	0	1021	0	0	
13	0	0	0	0	617	536	0	1021	0	0	
14	0	0	0	0	583	525	0	1021	0	0	
15	0	0	0	0	544	515	0	1021	0	0	
0	0	0	0	0	506	506	0	1021	0	0	
1	0	0	0	0	472	500	0	1021	0	0	
2	0	0	0	0	447	497	0	1021	0	0	
3	0	0	0	0	432	498	0	1021	0	0	
4	0	0	0	0	428	502	0	1020	0	0	
5	0	0	0	0	435	508	0	1021	0	0	
6	0	0	0	0	455	517	0	1021	0	0	
7	0	0	0	0	484	528	0	1021	0	0	
8	0	0	0	0	520	540	0	1021	0	0	
9	0	0	0	0	559	552	0	1021	0	0	
10	0	0	0	0	597	563	0	1021	0	0	
11	0	0	0	0	632	571	0	1021	0	0	
12	0	0	0	0	658	575	0	1021	0	0	
13	0	0	0	0	674	577	0	1021	0	0	
14	0	0	0	0	678	575	0	1021	0	0	
15	0	0	0	0	670	569	0	1021	0	0	
0	0	0	0	0	649	560	0	1021	0	0	
1	0	0	0	0	619	550	0	1021	0	0	
2	0	0	0	0	582	537	0	1021	0	0	
3	0	0	0	0	541	525	0	1021	0	0	
4	0	0	0	0	501	514	0	1021	0	0	
5	0	0	0	0	465	506	0	1021	0	0	
6	0	0	0	0	438	500	0	1021	0	0	
7	0	0	0	0	422	497	0	1021	0	0	
8	0	0	0	0	417	499	0	1021	0	0	
9	0	0	0	0	424	503	0	1021	0	0	
10	0	0	0	0	444	510	0	1021	0	0	
11	0	0	0	0	474	519	0	1021	0	0	
12	0	0	0	0	511	529	0	1021	0	0	
13	0	0	0	0	551	540	0	1020	0	0	
14	0	0	0	0	590	549	0	1021	0	0	
15	0	0	0	0	626	556	0	1021	0	0	
0	0	0	0	0	654	561	0	1021	0	0	
1	0	0	0	0	672	562	0	1021	0	0	
2	0	0	0	0	677	560	0	1021	0	0	
3	0	0	0	0	671	556	0	1021	0	0	
4	0	0	0	0	654	548	0	1021	0	0	
5	0	0	0	0	624	537	0	1021	0	0	
6	0	0	0	0	588	526	0	1021	0	0	
7	0	0	0	0	547	514	0	1021	0	0	
8	0	0	0	0	505	503	0	1021	0	0	
9	0	0	0	0	467	494	0	1021	0	0	
10	0	0	0	0	438	488	0	1021	0	0	
11	0	0	0	0	417	486	0	1021	0	0	
12	0	0	0	0	409	486	0	1021	0	0	
13	0	0	0	0	412	490	0	1021	0	0	
14	0	0	0	0	428	497	0	1021	0	0	
15	0	0	0	0	455	506	0	1021	0	0	
0	0	0	0	0	489	517	0	1021	0	0	
1	0	0	0	0	528	528	0	1021	0	0	
2	0	0	0	0	568	538	0	1021	0	0	
3	0	0	0	0	604	547	0	1021	0	0	
4	0	0	0	0	634	552	0	1021	0	0	
5	0	0	0	0	654	554	0	1021	0	0	
6	0	0	0	0	661	553	0	1021	0	0	
7	0	0	0	0	657	547	0	1021	0	0	
8	0	0	0	0	641	538	0	1021	0	0	
9	0	0	0	0	613	527	0	1021	0	0	
10	0	0	0	0	577	514	0	1021	0	0	
11	0	0	0	0	536	502	0	1021	0	0	
12	0	0	0	0	495	491	0	1021	0	0	
13	0	0	0	0	459	483	0	1021	0	0	
14	0	0	0	0	430	478	0	1021	0	0	
15	0	0	0	0	412	477	0	1021	0	0	
0	0	0	0	0	406	480	0	1020	0	0	
1	0	0	0	0	412	486	0	1021	0	0	
2	0	0	0	0	431	495	0	1021	0	0	
3	0	0	0	0	460	506	0	1021	0	0	
4	0	0	0	0	497	518	0	1021	0	0	
5	0	0	0	0	537	530	0	1021	0	0	
6	0	0	0	0	578	542	0	1021	0	0	
7	0	0	0	0	615	551	0	1021	0	0	
8	0	0	0	0	644	557	0	1021	0	0	
9	0	0	0	0	664	560	0	1021	0	0	
10	0	0	0	0	671	560	0	1021	0	0	
11	0	0	0	0	667	557	0	1021	0	0	
12	0	0	0	0	650	550	0	1021	0	0	
13	0	0	0	0	623	542	0	1021	0	0	
14	0	0	0	0	588	531	0	1021	0	0	
15	0	0	0	0	548	521	0	1021	0	0	
0	0	0	0	0	509	512	0	1021	0	0	
1	0	0	0	0	473	504	0	1021	0	0	
2	0	0	0	0	445	498	0	1021	0	0	
3	0	0	0	0	427	495	0	1021	0	0	
4	0	0	0	0	420	496	0	1021	0	0	
5	0	0	0	0	425	499	0	1021	0	0	
6	0	0	0	0	442	504	0	1021	0	0	
7	0	0	0	0	469	511	0	1021	0	0	
8	0	0	0	0	502	518	0	1021	0	0	
9	0	0	0	0	538	525	0	1021	0	0	
10	0	0	0	0	574	532	0	1021	0	0	
11	0	0	0	0	607	537	0	1021	0	0	
12	0	0	0	0	633	540	0	1021	0	0	
13	0	0	0	0	649	540	0	1021	0	0	
14	0	0	0	0	655	538	0	1020	0	0	
15	0	0	0	0	649	534	0	1021	0	0	
0	0	0	0	0	632	527	0	1021	0	0	
1	0	0	0	0	606	519	0	1021	0	0	
2	0	0	0	0	572	511	0	1021	0	0	
3	0	0	0	0	535	503	0	1021	0	0	
4	0	0	0	0	498	496	0	1021	0	0	
5	0	0	0	0	465	491	0	1021	0	0	
6	0	0	0	0	440	488	0	1021	0	0	
7	0	0	0	0	424	489	0	1021	0	0	
8	0	0	0	0	419	492	0	1020	0	0	
9	0	0	0	0	427	499	0	1021	0	0	
10	0	0	0	0	445	507	0	1021	0	0	
11	0	0	0	0	474	518	0	1021	0	0	
12	0	0	0	0	510	528	0	1021	0	0	
13	0	0	0	0	548	538	0	1021	0	0	
14	0	0	0	0	586	547	0	1021	0	0	
15	0	0	0	0	620	554	0	1021	0	0	
0	0	0	0	0	646	558	0	1021	0	0	
1	0	0	0	0	662	559	0	1021	0	0	
2	0	0	0	0	668	556	0	1021	0	0	
3	0	0	0	0	661	551	0	1021	0	0	
4	0	0	0	0	643	543	0	1021	0	0	
5	0	0	0	0	615	533	0	1021	0	0	
6	0	0	0	0	580	521	0	1021	0	0	
7	0	0	0	0	541	510	0	1020	0	0	
8	0	0	0	0	502	499	0	1021	0	0	
9	0	0	0	0	467	491	0	1021	0	0	
10	0	0	0	0	440	484	0	1021	0	0	
11	0	0	0	0	421	480	0	1021	0	0	
12	0	0	0	0	414	481	0	1021	0	0	
13	0	0	0	0	418	483	0	1021	0	0	
14	0	0	0	0	435	489	0	1021	0	0	
15	0	0	0	0	461	497	0	1021	0	0	
0	0	0	0	0	494	507	0	1021	0	0	
1	0	0	0	0	531	518	0	1021	0	0	
2	0	0	0	0	570	527	0	1021	0	0	
3	0	0	0	0	605	536	0	1021	0	0	
4	0	0	0	0	634	542	0	1021	0	0	
5	0	0	0	0	654	546	0	1021	0	0	
6	0	0	0	0	663	547	0	1020	0	0	
7	0	0	0	0	660	544	0	1021	0	0	
8	0	0	0	0	647	540	0	1021	0	0	
9	0	0	0	0	624	532	0	1021	0	0	
10	0	0	0	0	593	524	0	1021	0	0	
11	0	0	0	0	558	514	0	1020	0	0	
12	0	0	0	0	520	505	0	1021	0	0	
13	0	0	0	0	488	498	0	1021	0	0	
14	0	0	0	0	461	492	0	1021	0	0	
15	0	0	0	0	444	490	0	1021	0	0	
0	0	0	0	0	436	490	0	1021	0	0	
1	0	0	0	0	440	494	0	1021	0	0	
2	0	0	0	0	456	501	0	1021	0	0	
3	0	0	0	0	481	510	0	1021	0	0	
4	0	0	0	0	512	519	0	1021	0	0	
5	0	0	0	0	547	529	0	1021	0	0	
6	0	0	0	0	581	537	0	1021	0	0	
7	0	0	0	0	611	543	0	1021	0	0	
8	0	0	0	0	634	546	0	1021	0	0	
9	0	0	0	0	647	546	0	1021	0	0	
10	0	0	0	0	651	543	0	1021	0	0	
11	0	0	0	0	643	537	0	1021	0	0	
12	0	0	0	0	624	530	0	1021	0	0	
13	0	0	0	0	597	520	0	1021	0	0	
14	0	0	0	0	563	511	0	1021	0	0	
15	0	0	0	0	527	502	0	1020	0	0	
0	0	0	0	0	492	495	0	1021	0	0	
1	0	0	0	0	460	490	0	1021	0	0	
2	0	0	0	0	437	488	0	1021	0	0	
3	0	0	0	0	423	488	0	1021	0	0	
4	0	0	0	0	419	491	0	1021	0	0	
5	0	0	0	0	427	496	0	1021	0	0	
6	0	0	0	0	445	503	0	1021	0	0	
7	0	0	0	0	472	511	0	1021	0	0	
8	0	0	0	0	507	519	0	1021	0	0	
9	0	0	0	0	544	527	0	1021	0	0	
10	0	0	0	0	582	534	0	1021	0	0	
11	0	0	0	0	615	539	0	1021	0	0	
12	0	0	0	0	640	541	0	1021	0	0	
13	0	0	0	0	657	540	0	1021	0	0	
14	0	0	0	0	661	536	0	1021	0	0	
15	0	0	0	0	654	529	0	1021	0	0	
0	0	0	0	0	636	521	0	1021	0	0	
1	0	0	0	0	607	510	0	1021	0	0	
2	0	0	0	0	571	499	0	1021	0	0	
3	0	0	0	0	531	489	0	1021	0	0	
4	0	0	0	0	492	480	0	1021	0	0	
5	0	0	0	0	458	473	0	1021	0	0	
6	0	0	0	0	431	469	0	1021	0	0	
7	0	0	0	0	413	467	0	1021	0	0	
8	0	0	0	0	407	469	0	1021	0	0	
9	0	0	0	0	413	473	0	1021	0	0	
10	0	0	0	0	431	481	0	1021	0	0	
11	0	0	0	0	459	490	0	1021	0	0	
12	0	0	0	0	493	499	0	1021	0	0	
13	0	0	0	0	530	508	0	1021	0	0	
14	0	0	0	0	567	516	0	1021	0	0	
15	0	0	0	0	600	522	0	1021	0	0	
0	0	0	0	0	625	525	0	1021	0	0	
1	0	0	0	0	641	525	0	1021	0	0	
2	0	0	0	0	646	522	0	1020	0	0	
3	0	0	0	0	639	516	0	1021	0	0	
4	0	0	0	0	622	508	0	1021	0	0	
5	0	0	0	0	595	499	0	1021	0	0	
6	0	0	0	0	561	489	0	1021	0	0	
7	0	0	0	0	524	479	0	1021	0	0	
8	0	0	0	0	488	472	0	1021	0	0	
9	0	0	0	0	457	466	0	1021	0	0	
10	0	0	0	0	434	465	0	1021	0	0	
11	0	0	0	0	420	466	0	1021	0	0	
12	0	0	0	0	419	470	0	1021	0	0	
13	0	0	0	0	428	477	0	1021	0	0	
14	0	0	0	0	449	487	0	1021	0	0	
15	0	0	0	0	478	497	0	1021	0	0	
0	0	0	0	0	514	509	0	1021	0	0	
1	0	0	0	0	553	519	0	1021	0	0	
2	0	0	0	0	590	528	0	1021	0	0	
3	0	0	0	0	623	535	0	1021	0	0	
4	0	0	0	0	648	539	0	1021	0	0	
5	0	0	0	0	663	539	0	1021	0	0	
6	0	0	0	0	666	536	0	1021	0	0	
7	0	0	0	0	656	531	0	1021	0	0	
8	0	0	0	0	637	524	0	1021	0	0	
9	0	0	0	0	607	514	0	1021	0	0	
10	0	0	0	0	569	503	0	1021	0	0	
11	0	0	0	0	527	492	0	1020	0	0	
12	0	0	0	0	487	483	0	1021	0	0	
13	0	0	0	0	452	476	0	1021	0	0	
14	0	0	0	0	425	472	0	1021	0	0	
15	0	0	0	0	409	471	0	1021	0	0	
0	0	0	0	0	405	473	0	1021	0	0	
1	0	0	0	0	413	480	0	1021	0	0	
2	0	0	0	0	433	488	0	1021	0	0	
3	0	0	0	0	463	499	0	1021	0	0	
4	0	0	0	0	501	510	0	1021	0	0	
5	0	0	0	0	541	521	0	1021	0	0	
6	0	0	0	0	582	531	0	1021	0	0	
7	0	0	0	0	617	538	0	1021	0	0	
8	0	0	0	0	645	542	0	1021	0	0	
9	0	0	0	0	662	543	0	1021	0	0	
10	0	0	0	0	666	541	0	1021	0	0	
11	0	0	0	0	659	535	0	1021	0	0	
12	0	0	0	0	640	527	0	1021	0	0	
13	0	0	0	0	610	518	0	1021	0	0	
14	0	0	0	0	573	507	0	1021	0	0	
15	0	0	0	0	532	497	0	1021	0	0	
0	0	0	0	0	491	488	0	1021	0	0	
1	0	0	0	0	455	481	0	1021	0	0	
2	0	0	0	0	427	478	0	1021	0	0	
3	0	0	0	0	409	477	0	1021	0	0	
4	0	0	0	0	404	480	0	1021	0	0	
5	0	0	0	0	412	486	0	1021	0	0	
6	0	0	0	0	431	494	0	1021	0	0	
7	0	0	0	0	461	504	0	1021	0	0	
8	0	0	0	0	498	515	0	1021	0	0	
9	0	0	0	0	539	525	0	1021	0	0	
10	0	0	0	0	579	534	0	1021	0	0	
11	0	0	0	0	615	541	0	1021	0	0	
12	0	0	0	0	644	544	0	1021	0	0	
13	0	0	0	0	662	545	0	1021	0	0	
14	0	0	0	0	668	542	0	1021	0	0	
15	0	0	0	0	663	536	0	1021	0	0	
0	0	0	0	0	645	527	0	1021	0	0	
1	0	0	0	0	617	517	0	1021	0	0	
2	0	0	0	0	581	506	0	1021	0	0	
3	0	0	0	0	540	495	0	1021	0	0	
4	0	0	0	0	500	485	0	1021	0	0	
5	0	0	0	0	464	478	0	1021	0	0	
6	0	0	0	0	435	473	0	1021	0	0	
7	0	0	0	0	415	472	0	1021	0	0	
8	0	0	0	0	408	473	0	1021	0	0	
9	0	0	0	0	412	479	0	1021	0	0	
10	0	0	0	0	429	487	0	1021	0	0	
11	0	0	0	0	457	497	0	1021	0	0	
12	0	0	0	0	493	508	0	1021	0	0	
13	0	0	0	0	532	519	0	1021	0	0	
14	0	0	0	0	573	530	0	1021	0	0	
15	0	0	0	0	610	538	0	1021	0	0	
0	0	0	0	0	640	544	0	1021	0	0	
1	0	0	0	0	660	546	0	1021	0	0	
2	0	0	0	0	669	544	0	1021	0	0	
3	0	0	0	0	666	541	0	1021	0	0	
4	0	0	0	0	651	534	0	1021	0	0	
5	0	0	0	0	624	524	0	1021	0	0	
6	0	0	0	0	590	513	0	1021	0	0	
7	0	0	0	0	551	502	0	1021	0	0	
8	0	0	0	0	511	493	0	1021	0	0	
9	0	0	0	0	476	484	0	1021	0	0	
10	0	0	0	0	448	479	0	1021	0	0	
11	0	0	0	0	431	478	0	1021	0	0	
12	0	0	0	0	424	480	0	1021	0	0	
13	0	0	0	0	430	485	0	1021	0	0	
14	0	0	0	0	448	493	0	1021	0	0	
15	0	0	0	0	476	504	0	1021	0	0	
0	0	0	0	0	510	514	0	1021	0	0	
1	0	0	0	0	547	524	0	1021	0	0	
2	0	0	0	0	584	534	0	1021	0	0	
3	0	0	0	0	617	540	0	1021	0	0	
4	0	0	0	0	642	543	0	1021	0	0	
5	0	0	0	0	656	543	0	1021	0	0	
6	0	0	0	0	660	539	0	1021	0	0	
7	0	0	0	0	650	531	0	1021	0	0	
8	0	0	0	0	628	520	0	1021	0	0	
9	0	0	0	0	596	507	0	1021	0	0	
10	0	0	0	0	556	492	0	1021	0	0	
11	0	0	0	0	511	475	0	1021	0	0	
12	0	0	0	0	465	458	0	1021	0	0	
13	0	0	0	0	423	442	0	1021	0	0	
14	0	0	0	0	386	428	0	1021	0	0	
15	0	0	0	0	358	416	0	1021	0	0	
0	0	0	0	0	341	406	0	1021	0	0	
1	0	0	0	0	335	400	0	1021	0	0	
2	0	0	0	0	341	396	0	1021	0	0	
3	0	0	0	0	358	394	0	1021	0	0	
4	0	0	0	0	384	395	0	1021	0	0	
5	0	0	0	0	414	396	0	1021	0	0	
6	0	0	0	0	446	397	0	1021	0	0	
7	0	0	0	0	474	397	0	1021	0	0	
8	0	0	0	0	496	395	0	1021	0	0	
9	0	0	0	0	507	390	0	1021	0	0	
10	0	0	0	0	507	381	0	1021	0	0	
11	0	0	0	0	495	369	0	1021	0	0	
12	0	0	0	0	470	353	0	1021	0	0	
13	0	0	0	0	434	335	0	1021	0	0	
14	0	0	0	0	390	314	0	1021	0	0	
15	0	0	0	0	341	293	0	1021	0	0	
0	0	0	0	0	293	274	0	1021	0	0	
1	0	0	0	0	249	257	0	1021	0	0	
2	0	0	0	0	215	245	0	1021	0	0	
3	0	0	0	0	191	238	0	1021	0	0	
4	0	0	0	0	182	239	0	1021	0	0	
5	0	0	0	0	189	247	0	1021	0	0	
6	0	0	0	0	214	263	0	1021	0	0	
7	0	0	0	0	255	286	0	1021	0	0	
8	0	0	0	0	310	315	0	1021	0	0	
9	0	0	0	0	375	348	0	1021	0	0	
10	0	0	0	0	444	384	0	1021	0	0	
11	0	0	0	0	513	420	0	1021	0	0	
12	0	0	0	0	575	454	0	1021	0	0	
13	0	0	0	0	627	484	0	1021	0	0	
14	0	0	0	0	664	509	0	1021	0	0	
15	0	0	0	0	687	528	0	1021	0	0	
0	0	0	0	0	692	540	0	1021	0	0	
1	0	0	0	0	682	545	0	1021	0	0	
2	0	0	0	0	658	545	0	1021	0	0	
3	0	0	0	0	624	541	0	1021	0	0	
4	0	0	0	0	584	533	0	1021	0	0	
5	0	0	0	0	543	524	0	1021	0	0	
6	0	0	0	0	506	515	0	1021	0	0	
7	0	0	0	0	476	507	0	1021	0	0	
8	0	0	0	0	456	500	0	1020	0	0	
9	0	0	0	0	448	497	0	1021	0	0	
10	0	0	0	0	453	497	0	1021	0	0	
11	0	0	0	0	470	500	0	1021	0	0	
12	0	0	0	0	497	506	0	1021	0	0	
13	0	0	0	0	529	513	0	1021	0	0	
14	0	0	0	0	567	520	0	1021	0	0	
15	0	0	0	0	601	527	0	1021	0	0	
0	0	0	0	0	632	533	0	1021	0	0	
1	0	0	0	0	654	535	0	1021	0	0	
2	0	0	0	0	665	536	0	1021	0	0	
3	0	0	0	0	665	534	0	1021	0	0	
4	0	0	0	0	655	529	0	1021	0	0	
5	0	0	0	0	633	522	0	1021	0	0	
6	0	0	0	0	603	514	0	1021	0	0	
7	0	0	0	0	568	504	0	1021	0	0	
8	0	0	0	0	531	496	0	1021	0	0	
9	0	0	0	0	497	489	0	1021	0	0	
10	0	0	0	0	471	485	0	1021	0	0	
11	0	0	0	0	452	482	0	1021	0	0	
12	0	0	0	0	444	482	0	1021	0	0	
13	0	0	0	0	446	484	0	1021	0	0	
14	0	0	0	0	461	489	0	1021	0	0	
15	0	0	0	0	485	496	0	1021	0	0	
0	0	0	0	0	517	504	0	1021	0	0	
1	0	0	0	0	553	513	0	1020	0	0	
2	0	0	0	0	590	521	0	1021	0	0	
3	0	0	0	0	624	527	0	1021	0	0	
4	0	0	0	0	652	532	0	1021	0	0	
5	0	0	0	0	671	534	0	1021	0	0	
6	0	0	0	0	679	534	0	1021	0	0	
7	0	0	0	0	676	531	0	1021	0	0	
8	0	0	0	0	662	526	0	1021	0	0	
9	0	0	0	0	637	518	0	1021	0	0	
10	0	0	0	0	604	509	0	1021	0	0	
11	0	0	0	0	566	500	0	1021	0	0	
12	0	0	0	0	528	492	0	1021	0	0	
13	0	0	0	0	494	485	0	1021	0	0	
14	0	0	0	0	466	481	0	1021	0	0	
15	0	0	0	0	448	480	0	1021	0	0	
0	0	0	0	0	441	482	0	1021	0	0	
1	0	0	0	0	445	487	0	1021	0	0	
2	0	0	0	0	461	494	0	1021	0	0	
3	0	0	0	0	487	503	0	1021	0	0	
4	0	0	0	0	519	512	0	1021	0	0	
5	0	0	0	0	556	521	0	1021	0	0	
6	0	0	0	0	591	529	0	1021	0	0	
7	0	0	0	0	624	535	0	1021	0	0	
8	0	0	0	0	649	537	0	1021	0	0	
9	0	0	0	0	665	537	0	1021	0	0	
10	0	0	0	0	670	534	0	1021	0	0	
11	0	0	0	0	664	528	0	1021	0	0	
12	0	0	0	0	647	521	0	1021	0	0	
13	0	0	0	0	620	512	0	1021	0	0	
14	0	0	0	0	587	503	0	1021	0	0	
15	0	0	0	0	550	494	0	1021	0	0	
0	0	0	0	0	513	487	0	1021	0	0	
1	0	0	0	0	480	481	0	1021	0	0	
2	0	0	0	0	455	479	0	1021	0	0	
3	0	0	0	0	440	480	0	1021	0	0	
4	0	0	0	0	435	483	0	1021	0	0	
5	0	0	0	0	442	488	0	1021	0	0	
6	0	0	0	0	461	496	0	1021	0	0	
7	0	0	0	0	488	506	0	1021	0	0	
8	0	0	0	0	522	516	0	1021	0	0	
9	0	0	0	0	559	526	0	1021	0	0	
10	0	0	0	0	595	533	0	1021	0	0	
11	0	0	0	0	627	540	0	1021	0	0	
12	0	0	0	0	651	543	0	1021	0	0	
13	0	0	0	0	666	542	0	1021	0	0	
14	0	0	0	0	668	539	0	1021	0	0	
15	0	0	0	0	661	532	0	1021	0	0	
0	0	0	0	0	642	524	0	1021	0	0	
1	0	0	0	0	612	513	0	1021	0	0	
2	0	0	0	0	576	501	0	1021	0	0	
3	0	0	0	0	537	489	0	1020	0	0	
4	0	0	0	0	497	478	0	1021	0	0	
5	0	0	0	0	463	471	0	1021	0	0	
6	0	0	0	0	436	466	0	1021	0	0	
7	0	0	0	0	418	464	0	1021	0	0	
8	0	0	0	0	412	465	0	1021	0	0	
9	0	0	0	0	417	469	0	1021	0	0	
10	0	0	0	0	434	476	0	1021	0	0	
11	0	0	0	0	460	484	0	1021	0	0	
12	0	0	0	0	493	493	0	1021	0	0	
13	0	0	0	0	529	502	0	1021	0	0	
14	0	0	0	0	565	511	0	1021	0	0	
15	0	0	0	0	598	517	0	1021	0	0	
0	0	0	0	0	624	521	0	1021	0	0	
1	0	0	0	0	641	523	0	1021	0	0	
2	0	0	0	0	649	522	0	1021	0	0	
3	0	0	0	0	645	519	0	1021	0	0	
4	0	0	0	0	631	513	0	1021	0	0	
5	0	0	0	0	607	506	0	1021	0	0	
6	0	0	0	0	575	498	0	1021	0	0	
7	0	0	0	0	540	489	0	1020	0	0	
8	0	0	0	0	504	482	0	1021	0	0	
9	0	0	0	0	472	476	0	1021	0	0	
10	0	0	0	0	447	472	0	1021	0	0	
11	0	0	0	0	431	471	0	1021	0	0	
12	0	0	0	0	425	473	0	1021	0	0	
13	0	0	0	0	430	477	0	1021	0	0	
14	0	0	0	0	446	483	0	1021	0	0	
15	0	0	0	0	470	492	0	1021	0	0	
0	0	0	0	0	502	501	0	1021	0	0	
1	0	0	0	0	536	510	0	1021	0	0	
2	0	0	0	0	572	518	0	1021	0	0	
3	0	0	0	0	603	525	0	1021	0	0	
4	0	0	0	0	627	529	0	1021	0	0	
5	0	0	0	0	641	530	0	1021	0	0	
6	0	0	0	0	645	528	0	1021	0	0	
7	0	0	0	0	638	522	0	1021	0	0	
8	0	0	0	0	620	515	0	1021	0	0	
9	0	0	0	0	592	505	0	1021	0	0	
10	0	0	0	0	557	494	0	1021	0	0	
11	0	0	0	0	519	483	0	1020	0	0	
12	0	0	0	0	481	472	0	1021	0	0	
13	0	0	0	0	447	465	0	1021	0	0	
14	0	0	0	0	419	460	0	1021	0	0	
15	0	0	0	0	401	458	0	1021	0	0	
0	0	0	0	0	395	459	0	1021	0	0	
1	0	0	0	0	399	463	0	1021	0	0	
2	0	0	0	0	416	471	0	1021	0	0	
3	0	0	0	0	443	480	0	1021	0	0	
4	0	0	0	0	476	491	0	1021	0	0	
5	0	0	0	0	515	501	0	1021	0	0	
6	0	0	0	0	553	510	0	1021	0	0	
7	0	0	0	0	589	517	0	1021	0	0	
8	0	0	0	0	617	521	0	1021	0	0	
9	0	0	0	0	636	522	0	1021	0	0	
10	0	0	0	0	644	519	0	1020	0	0	
11	0	0	0	0	640	514	0	1021	0	0	
12	0	0	0	0	625	507	0	1021	0	0	
13	0	0	0	0	599	497	0	1021	0	0	
14	0	0	0	0	566	487	0	1021	0	0	
15	0	0	0	0	528	476	0	1020	0	0	
0	0	0	0	0	489	467	0	1021	0	0	
1	0	0	0	0	455	460	0	1021	0	0	
2	0	0	0	0	428	457	0	1021	0	0	
3	0	0	0	0	410	456	0	1021	0	0	
4	0	0	0	0	403	458	0	1021	0	0	
5	0	0	0	0	407	463	0	1021	0	0	
6	0	0	0	0	422	472	0	1021	0	0	
7	0	0	0	0	447	481	0	1021	0	0	
8	0	0	0	0	479	492	0	1021	0	0	
9	0	0	0	0	513	503	0	1021	0	0	
10	0	0	0	0	547	511	0	1021	0	0	
11	0	0	0	0	579	517	0	1021	0	0	
12	0	0	0	0	603	520	0	1021	0	0	
13	0	0	0	0	618	519	0	1021	0	0	
14	0	0	0	0	624	516	0	1021	0	0	
15	0	0	0	0	617	510	0	1021	0	0	
0	0	0	0	0	601	500	0	1021	0	0	
1	0	0	0	0	575	489	0	1021	0	0	
2	0	0	0	0	543	478	0	1021	0	0	
3	0	0	0	0	507	466	0	1021	0	0	
4	0	0	0	0	470	455	0	1021	0	0	
5	0	0	0	0	438	448	0	1021	0	0	
6	0	0	0	0	412	443	0	1021	0	0	
7	0	0	0	0	395	440	0	1021	0	0	
8	0	0	0	0	388	441	0	1021	0	0	
9	0	0	0	0	392	445	0	1021	0	0	
10	0	0	0	0	408	451	0	1021	0	0	
11	0	0	0	0	432	459	0	1021	0	0	
12	0	0	0	0	463	468	0	1021	0	0	
13	0	0	0	0	498	477	0	1021	0	0	
14	0	0	0	0	532	484	0	1021	0	0	
15	0	0	0	0	564	490	0	1021	0	0	
0	0	0	0	0	588	493	0	1021	0	0	
1	0	0	0	0	603	493	0	1021	0	0	
2	0	0	0	0	606	489	0	1021	0	0	
3	0	0	0	0	598	483	0	1021	0	0	
4	0	0	0	0	579	474	0	1021	0	0	
5	0	0	0	0	550	463	0	1021	0	0	
6	0	0	0	0	514	450	0	1021	0	0	
7	0	0	0	0	474	437	0	1021	0	0	
8	0	0	0	0	435	426	0	1021	0	0	
9	0	0	0	0	400	417	0	1021	0	0	
10	0	0	0	0	373	411	0	1021	0	0	
11	0	0	0	0	355	407	0	1021	0	0	
12	0	0	0	0	349	408	0	1020	0	0	
13	0	0	0	0	354	411	0	1021	0	0	
14	0	0	0	0	371	418	0	1021	0	0	
15	0	0	0	0	399	427	0	1021	0	0	
0	0	0	0	0	434	438	0	1021	0	0	
1	0	0	0	0	473	449	0	1021	0	0	
2	0	0	0	0	511	459	0	1021	0	0	
3	0	0	0	0	545	467	0	1021	0	0	
4	0	0	0	0	572	472	0	1021	0	0	
5	0	0	0	0	590	475	0	1021	0	0	
6	0	0	0	0	596	475	0	1021	0	0	
7	0	0	0	0	590	471	0	1021	0	0	
8	0	0	0	0	575	465	0	1021	0	0	
9	0	0	0	0	548	457	0	1021	0	0	
10	0	0	0	0	515	447	0	1021	0	0	
11	0	0	0	0	478	436	0	1020	0	0	
12	0	0	0	0	441	426	0	1021	0	0	
13	0	0	0	0	407	418	0	1021	0	0	
14	0	0	0	0	380	412	0	1021	0	0	
15	0	0	0	0	362	408	0	1021	0	0	
0	0	0	0	0	354	407	0	1021	0	0	
1	0	0	0	0	358	408	0	1020	0	0	
2	0	0	0	0	372	412	0	1021	0	0	
3	0	0	0	0	396	417	0	1021	0	0	
4	0	0	0	0	426	424	0	1021	0	0	
5	0	0	0	0	460	431	0	1020	0	0	
6	0	0	0	0	494	437	0	1021	0	0	
7	0	0	0	0	525	441	0	1021	0	0	
8	0	0	0	0	548	444	0	1021	0	0	
9	0	0	0	0	563	445	0	1021	0	0	
10	0	0	0	0	567	443	0	1021	0	0	
11	0	0	0	0	560	438	0	1020	0	0	
12	0	0	0	0	543	432	0	1021	0	0	
13	0	0	0	0	516	424	0	1021	0	0	
14	0	0	0	0	484	416	0	1021	0	0	
15	0	0	0	0	449	408	0	1020	0	0	
0	0	0	0	0	414	403	0	1021	0	0	
1	0	0	0	0	384	398	0	1021	0	0	
2	0	0	0	0	361	396	0	1021	0	0	
3	0	0	0	0	349	398	0	1021	0	0	
4	0	0	0	0	347	401	0	1021	0	0	
5	0	0	0	0	356	408	0	1021	0	0	
6	0	0	0	0	376	416	0	1021	0	0	
7	0	0	0	0	407	426	0	1021	0	0	
8	0	0	0	0	442	437	0	1021	0	0	
9	0	0	0	0	482	448	0	1020	0	0	
10	0	0	0	0	520	458	0	1021	0	0	
11	0	0	0	0	554	466	0	1021	0	0	
12	0	0	0	0	580	471	0	1021	0	0	
13	0	0	0	0	596	473	0	1021	0	0	
14	0	0	0	0	601	472	0	1021	0	0	
15	0	0	0	0	594	468	0	1021	0	0	
0	0	0	0	0	575	462	0	1021	0	0	
1	0	0	0	0	548	454	0	1021	0	0	
2	0	0	0	0	513	444	0	1021	0	0	
3	0	0	0	0	476	435	0	1020	0	0	
4	0	0	0	0	440	427	0	1020	0	0	
5	0	0	0	0	407	422	0	1021	0	0	
6	0	0	0	0	383	418	0	1021	0	0	
7	0	0	0	0	368	418	0	1021	0	0	
8	0	0	0	0	366	422	0	1021	0	0	
9	0	0	0	0	374	428	0	1021	0	0	
10	0	0	0	0	395	438	0	1021	0	0	
11	0	0	0	0	425	449	0	1021	0	0	
12	0	0	0	0	462	462	0	1021	0	0	
13	0	0	0	0	503	474	0	1021	0	0	
14	0	0	0	0	543	485	0	1021	0	0	
15	0	0	0	0	579	494	0	1021	0	0	
0	0	0	0	0	608	500	0	1021	0	0	
1	0	0	0	0	627	504	0	1021	0	0	
2	0	0	0	0	635	504	0	1021	0	0	
3	0	0	0	0	631	501	0	1021	0	0	
4	0	0	0	0	615	497	0	1021	0	0	
5	0	0	0	0	590	490	0	1021	0	0	
6	0	0	0	0	557	482	0	1021	0	0	
7	0	0	0	0	519	473	0	1021	0	0	
8	0	0	0	0	482	466	0	1021	0	0	
9	0	0	0	0	448	461	0	1021	0	0	
10	0	0	0	0	422	459	0	1021	0	0	
11	0	0	0	0	404	460	0	1021	0	0	
12	0	0	0	0	398	463	0	1021	0	0	
13	0	0	0	0	403	469	0	1021	0	0	
14	0	0	0	0	419	478	0	1021	0	0	
15	0	0	0	0	446	487	0	1021	0	0	
0	0	0	0	0	480	498	0	1021	0	0	
1	0	0	0	0	518	508	0	1021	0	0	
2	0	0	0	0	556	518	0	1021	0	0	
3	0	0	0	0	591	525	0	1021	0	0	
4	0	0	0	0	620	529	0	1021	0	0	
5	0	0	0	0	639	531	0	1021	0	0	
6	0	0	0	0	648	529	0	1021	0	0	
7	0	0	0	0	647	525	0	1021	0	0	
8	0	0	0	0	634	519	0	1021	0	0	
9	0	0	0	0	610	511	0	1021	0	0	
10	0	0	0	0	579	501	0	1021	0	0	
11	0	0	0	0	543	492	0	1021	0	0	
12	0	0	0	0	507	484	0	1021	0	0	
13	0	0	0	0	475	479	0	1021	0	0	
14	0	0	0	0	448	475	0	1021	0	0	
15	0	0	0	0	431	475	0	1021	0	0	
0	0	0	0	0	423	478	0	1021	0	0	
1	0	0	0	0	428	484	0	1021	0	0	
2	0	0	0	0	444	492	0	1021	0	0	
3	0	0	0	0	469	502	0	1021	0	0	
4	0	0	0	0	502	513	0	1021	0	0	
5	0	0	0	0	537	523	0	1021	0	0	
6	0	0	0	0	574	531	0	1021	0	0	
7	0	0	0	0	607	538	0	1021	0	0	
8	0	0	0	0	633	542	0	1021	0	0	
9	0	0	0	0	650	542	0	1021	0	0	
10	0	0	0	0	657	540	0	1021	0	0	
11	0	0	0	0	654	536	0	1021	0	0	
12	0	0	0	0	639	529	0	1021	0	0	
13	0	0	0	0	615	520	0	1021	0	0	
14	0	0	0	0	583	512	0	1021	0	0	
15	0	0	0	0	548	503	0	1021	0	0	
0	0	0	0	0	512	496	0	1021	0	0	
1	0	0	0	0	480	491	0	1021	0	0	
2	0	0	0	0	455	489	0	1021	0	0	
3	0	0	0	0	439	489	0	1021	0	0	
4	0	0	0	0	433	492	0	1021	0	0	
5	0	0	0	0	438	499	0	1021	0	0	
6	0	0	0	0	455	507	0	1021	0	0	
7	0	0	0	0	481	516	0	1021	0	0	
8	0	0	0	0	514	527	0	1021	0	0	
9	0	0	0	0	551	537	0	1021	0	0	
10	0	0	0	0	588	546	0	1021	0	0	
11	0	0	0	0	622	553	0	1021	0	0	
12	0	0	0	0	648	557	0	1021	0	0	
13	0	0	0	0	666	558	0	1021	0	0	
14	0	0	0	0	672	555	0	1021	0	0	
15	0	0	0	0	668	550	0	1021	0	0	
0	0	0	0	0	652	542	0	1021	0	0	
1	0	0	0	0	625	531	0	1021	0	0	
2	0	0	0	0	591	519	0	1021	0	0	
3	0	0	0	0	553	508	0	1021	0	0	
4	0	0	0	0	514	497	0	1021	0	0	
5	0	0	0	0	480	489	0	1021	0	0	
6	0	0	0	0	452	483	0	1021	0	0	
7	0	0	0	0	435	482	0	1021	0	0	
8	0	0	0	0	428	483	0	1021	0	0	
9	0	0	0	0	434	489	0	1021	0	0	
10	0	0	0	0	452	497	0	1021	0	0	
11	0	0	0	0	479	508	0	1021	0	0	
12	0	0	0	0	514	519	0	1021	0	0	
13	0	0	0	0	551	530	0	1021	0	0	
14	0	0	0	0	590	540	0	1021	0	0	
15	0	0	0	0	623	547	0	1021	0	0	
0	0	0	0	0	649	551	0	1021	0	0	
1	0	0	0	0	666	552	0	1021	0	0	
2	0	0	0	0	671	551	0	1021	0	0	
3	0	0	0	0	665	544	0	1021	0	0	
4	0	0	0	0	647	536	0	1021	0	0	
5	0	0	0	0	618	526	0	1021	0	0	
6	0	0	0	0	582	515	0	1021	0	0	
7	0	0	0	0	542	504	0	1021	0	0	
8	0	0	0	0	503	494	0	1021	0	0	
9	0	0	0	0	467	486	0	1021	0	0	
10	0	0	0	0	439	481	0	1021	0	0	
11	0	0	0	0	422	480	0	1021	0	0	
12	0	0	0	0	415	482	0	1021	0	0	
13	0	0	0	0	421	487	0	1021	0	0	
14	0	0	0	0	440	495	0	1021	0	0	
15	0	0	0	0	467	504	0	1021	0	0	
0	0	0	0	0	502	514	0	1021	0	0	
1	0	0	0	0	542	525	0	1021	0	0	
2	0	0	0	0	580	534	0	1021	0	0	
3	0	0	0	0	615	541	0	1021	0	0	
4	0	0	0	0	643	544	0	1021	0	0	
5	0	0	0	0	660	545	0	1021	0	0	
6	0	0	0	0	667	542	0	1021	0	0	
7	0	0	0	0	660	536	0	1021	0	0	
8	0	0	0	0	643	527	0	1021	0	0	
9	0	0	0	0	615	516	0	1021	0	0	
10	0	0	0	0	580	505	0	1021	0	0	
11	0	0	0	0	540	494	0	1021	0	0	
12	0	0	0	0	501	484	0	1021	0	0	
13	0	0	0	0	466	478	0	1021	0	0	
14	0	0	0	0	438	473	0	1021	0	0	
15	0	0	0	0	420	473	0	1021	0	0	
0	0	0	0	0	414	476	0	1021	0	0	
1	0	0	0	0	420	482	0	1021	0	0	
2	0	0	0	0	437	491	0	1021	0	0	
3	0	0	0	0	464	501	0	1021	0	0	
4	0	0	0	0	499	511	0	1021	0	0	
5	0	0	0	0	536	520	0	1021	0	0	
6	0	0	0	0	574	528	0	1021	0	0	
7	0	0	0	0	608	534	0	1021	0	0	
8	0	0	0	0	634	536	0	1021	0	0	
9	0	0	0	0	652	536	0	1021	0	0	
10	0	0	0	0	659	531	0	1021	0	0	
11	0	0	0	0	654	525	0	1021	0	0	
12	0	0	0	0	638	516	0	1021	0	0	
13	0	0	0	0	611	506	0	1021	0	0	
14	0	0	0	0	577	496	0	1021	0	0	
15	0	0	0	0	539	486	0	1021	0	0	
0	0	0	0	0	501	478	0	1021	0	0	
1	0	0	0	0	467	472	0	1021	0	0	
2	0	0	0	0	440	470	0	1021	0	0	
3	0	0	0	0	424	471	0	1021	0	0	
4	0	0	0	0	419	474	0	1020	0	0	
5	0	0	0	0	425	481	0	1021	0	0	
6	0	0	0	0	443	490	0	1021	0	0	
7	0	0	0	0	471	501	0	1021	0	0	
8	0	0	0	0	506	512	0	1021	0	0	
9	0	0	0	0	544	523	0	1021	0	0	
10	0	0	0	0	582	531	0	1021	0	0	
11	0	0	0	0	617	539	0	1021	0	0	
12	0	0	0	0	644	543	0	1021	0	0	
13	0	0	0	0	662	543	0	1021	0	0	
14	0	0	0	0	668	541	0	1021	0	0	
15	0	0	0	0	663	536	0	1021	0	0	
0	0	0	0	0	647	528	0	1021	0	0	
1	0	0	0	0	620	519	0	1021	0	0	
2	0	0	0	0	585	508	0	1021	0	0	
3	0	0	0	0	546	497	0	1021	0	0	
4	0	0	0	0	507	488	0	1021	0	0	
5	0	0	0	0	471	481	0	1021	0	0	
6	0	0	0	0	442	476	0	1021	0	0	
7	0	0	0	0	422	474	0	1021	0	0	
8	0	0	0	0	414	474	0	1021	0	0	
9	0	0	0	0	416	478	0	1021	0	0	
10	0	0	0	0	431	483	0	1021	0	0	
11	0	0	0	0	455	491	0	1021	0	0	
12	0	0	0	0	487	499	0	1021	0	0	
13	0	0	0	0	523	508	0	1020	0	0	
14	0	0	0	0	560	516	0	1021	0	0	
15	0	0	0	0	594	524	0	1021	0	0	
0	0	0	0	0	622	528	0	1021	0	0	
1	0	0	0	0	641	530	0	1021	0	0	
2	0	0	0	0	651	529	0	1021	0	0	
3	0	0	0	0	648	525	0	1021	0	0	
4	0	0	0	0	635	518	0	1021	0	0	
5	0	0	0	0	612	510	0	1021	0	0	
6	0	0	0	0	582	500	0	1021	0	0	
7	0	0	0	0	547	490	0	1021	0	0	
8	0	0	0	0	510	480	0	1021	0	0	
9	0	0	0	0	478	473	0	1021	0	0	
10	0	0	0	0	452	469	0	1021	0	0	
11	0	0	0	0	436	468	0	1021	0	0	
12	0	0	0	0	430	471	0	1021	0	0	
13	0	0	0	0	435	475	0	1021	0	0	
14	0	0	0	0	451	483	0	1021	0	0	
15	0	0	0	0	477	493	0	1021	0	0	
0	0	0	0	0	509	503	0	1021	0	0	
1	0	0	0	0	545	513	0	1021	0	0	
2	0	0	0	0	582	521	0	1020	0	0	
3	0	0	0	0	614	528	0	1021	0	0	
4	0	0	0	0	640	533	0	1021	0	0	
5	0	0	0	0	657	534	0	1021	0	0	
6	0	0	0	0	664	531	0	1021	0	0	
7	0	0	0	0	659	526	0	1021	0	0	
8	0	0	0	0	643	519	0	1021	0	0	
9	0	0	0	0	618	509	0	1021	0	0	
10	0	0	0	0	585	499	0	1021	0	0	
11	0	0	0	0	549	488	0	1020	0	0	
12	0	0	0	0	512	479	0	1021	0	0	
13	0	0	0	0	479	472	0	1021	0	0	
14	0	0	0	0	452	468	0	1021	0	0	
15	0	0	0	0	435	467	0	1021	0	0	
0	0	0	0	0	428	468	0	1021	0	0	
1	0	0	0	0	432	473	0	1021	0	0	
2	0	0	0	0	447	481	0	1021	0	0	
3	0	0	0	0	472	491	0	1021	0	0	
4	0	0	0	0	503	501	0	1021	0	0	
5	0	0	0	0	538	512	0	1021	0	0	
6	0	0	0	0	575	521	0	1021	0	0	
7	0	0	0	0	607	529	0	1021	0	0	
8	0	0	0	0	634	536	0	1021	0	0	
9	0	0	0	0	652	539	0	1021	0	0	
10	0	0	0	0	659	538	0	1020	0	0	
11	0	0	0	0	655	535	0	1020	0	0	
12	0	0	0	0	642	529	0	1021	0	0	
13	0	0	0	0	617	521	0	1021	0	0	
14	0	0	0	0	585	510	0	1021	0	0	
15	0	0	0	0	548	499	0	1021	0	0	
0	0	0	0	0	510	488	0	1021	0	0	
1	0	0	0	0	475	478	0	1021	0	0	
2	0	0	0	0	447	471	0	1021	0	0	
3	0	0	0	0	428	466	0	1021	0	0	
4	0	0	0	0	419	464	0	1021	0	0	
5	0	0	0	0	422	466	0	1021	0	0	
6	0	0	0	0	438	472	0	1021	0	0	
7	0	0	0	0	462	480	0	1021	0	0	
8	0	0	0	0	496	489	0	1021	0	0	
9	0	0	0	0	532	499	0	1021	0	0	
10	0	0	0	0	570	508	0	1021	0	0	
11	0	0	0	0	606	515	0	1021	0	0	
12	0	0	0	0	634	521	0	1021	0	0	
13	0	0	0	0	654	523	0	1021	0	0	
14	0	0	0	0	664	523	0	1021	0	0	
15	0	0	0	0	661	519	0	1021	0	0	
0	0	0	0	0	647	512	0	1021	0	0	
1	0	0	0	0	624	503	0	1021	0	0	
2	0	0	0	0	591	492	0	1021	0	0	
3	0	0	0	0	554	480	0	1021	0	0	
4	0	0	0	0	515	469	0	1021	0	0	
5	0	0	0	0	480	460	0	1021	0	0	
6	0	0	0	0	451	454	0	1021	0	0	
7	0	0	0	0	432	451	0	1021	0	0	
8	0	0	0	0	423	451	0	1021	0	0	
9	0	0	0	0	425	455	0	1021	0	0	
10	0	0	0	0	440	462	0	1021	0	0	
11	0	0	0	0	464	471	0	1021	0	0	
12	0	0	0	0	497	482	0	1021	0	0	
13	0	0	0	0	534	493	0	1021	0	0	
14	0	0	0	0	571	503	0	1021	0	0	
15	0	0	0	0	607	512	0	1021	0	0	
0	0	0	0	0	635	519	0	1021	0	0	
1	0	0	0	0	655	522	0	1021	0	0	
2	0	0	0	0	665	521	0	1021	0	0	
3	0	0	0	0	663	518	0	1021	0	0	
4	0	0	0	0	650	513	0	1021	0	0	
5	0	0	0	0	626	505	0	1021	0	0	
6	0	0	0	0	594	496	0	1021	0	0	
7	0	0	0	0	557	486	0	1021	0	0	
8	0	0	0	0	519	477	0	1020	0	0	
9	0	0	0	0	483	469	0	1021	0	0	
10	0	0	0	0	453	464	0	1021	0	0	
11	0	0	0	0	432	462	0	1021	0	0	
12	0	0	0	0	423	462	0	1020	0	0	
13	0	0	0	0	424	465	0	1021	0	0	
14	0	0	0	0	438	472	0	1021	0	0	
15	0	0	0	0	462	480	0	1021	0	0	
0	0	0	0	0	494	489	0	1021	0	0	
1	0	0	0	0	531	498	0	1021	0	0	
2	0	0	0	0	569	507	0	1020	0	0	
3	0	0	0	0	606	514	0	1021	0	0	
4	0	0	0	0	635	519	0	1021	0	0	
5	0	0	0	0	655	520	0	1021	0	0	
6	0	0	0	0	664	519	0	1021	0	0	
7	0	0	0	0	661	513	0	1021	0	0	
8	0	0	0	0	647	506	0	1021	0	0	
9	0	0	0	0	621	497	0	1021	0	0	
10	0	0	0	0	586	485	0	1021	0	0	
11	0	0	0	0	547	474	0	1020	0	0	
12	0	0	0	0	507	463	0	1021	0	0	
13	0	0	0	0	470	455	0	1021	0	0	
14	0	0	0	0	440	449	0	1021	0	0	
15	0	0	0	0	420	447	0	1021	0	0	
0	0	0	0	0	412	448	0	1021	0	0	
1	0	0	0	0	415	452	0	1021	0	0	
2	0	0	0	0	430	459	0	1021	0	0	
3	0	0	0	0	455	469	0	1021	0	0	
4	0	0	0	0	488	479	0	1021	0	0	
5	0	0	0	0	525	491	0	1021	0	0	
6	0	0	0	0	564	500	0	1021	0	0	
7	0	0	0	0	600	510	0	1021	0	0	
8	0	0	0	0	628	515	0	1021	0	0	
9	0	0	0	0	648	519	0	1021	0	0	
10	0	0	0	0	658	520	0	1021	0	0	
11	0	0	0	0	656	518	0	1020	0	0	
12	0	0	0	0	644	514	0	1021	0	0	
13	0	0	0	0	621	507	0	1021	0	0	
14	0	0	0	0	590	499	0	1021	0	0	
15	0	0	0	0	555	490	0	1021	0	0	
0	0	0	0	0	518	482	0	1021	0	0	
1	0	0	0	0	484	475	0	1021	0	0	
2	0	0	0	0	457	470	0	1021	0	0	
3	0	0	0	0	437	467	0	1021	0	0	
4	0	0	0	0	428	467	0	1021	0	0	
5	0	0	0	0	430	470	0	1021	0	0	
6	0	0	0	0	443	475	0	1021	0	0	
7	0	0	0	0	466	482	0	1021	0	0	
8	0	0	0	0	497	490	0	1021	0	0	
9	0	0	0	0	532	499	0	1021	0	0	
10	0	0	0	0	568	507	0	1020	0	0	
11	0	0	0	0	601	513	0	1021	0	0	
12	0	0	0	0	627	518	0	1021	0	0	
13	0	0	0	0	645	519	0	1021	0	0	
14	0	0	0	0	653	518	0	1021	0	0	
15	0	0	0	0	649	515	0	1021	0	0	
0	0	0	0	0	636	510	0	1021	0	0	
1	0	0	0	0	612	502	0	1021	0	0	
2	0	0	0	0	580	493	0	1021	0	0	
3	0	0	0	0	544	483	0	1021	0	0	
4	0	0	0	0	507	475	0	1021	0	0	
5	0	0	0	0	473	467	0	1021	0	0	
6	0	0	0	0	444	462	0	1021	0	0	
7	0	0	0	0	425	459	0	1021	0	0	
8	0	0	0	0	416	459	0	1021	0	0	
9	0	0	0	0	419	462	0	1021	0	0	
10	0	0	0	0	434	467	0	1021	0	0	
11	0	0	0	0	460	476	0	1021	0	0	
12	0	0	0	0	493	487	0	1021	0	0	
13	0	0	0	0	531	497	0	1021	0	0	
14	0	0	0	0	570	508	0	1021	0	0	
15	0	0	0	0	606	518	0	1021	0	0	
0	0	0	0	0	636	524	0	1021	0	0	
1	0	0	0	0	656	527	0	1021	0	0	
2	0	0	0	0	666	528	0	1021	0	0	
3	0	0	0	0	664	525	0	1021	0	0	
4	0	0	0	0	649	519	0	1021	0	0	
5	0	0	0	0	624	511	0	1021	0	0	
6	0	0	0	0	591	501	0	1021	0	0	
7	0	0	0	0	552	490	0	1021	0	0	
8	0	0	0	0	513	481	0	1021	0	0	
9	0	0	0	0	477	472	0	1021	0	0	
10	0	0	0	0	447	466	0	1021	0	0	
11	0	0	0	0	427	463	0	1021	0	0	
12	0	0	0	0	417	463	0	1021	0	0	
13	0	0	0	0	419	467	0	1021	0	0	
14	0	0	0	0	433	473	0	1021	0	0	
15	0	0	0	0	458	481	0	1021	0	0	
0	0	0	0	0	490	491	0	1021	0	0	
1	0	0	0	0	527	500	0	1021	0	0	
2	0	0	0	0	564	509	0	1020	0	0	
3	0	0	0	0	599	516	0	1021	0	0	
4	0	0	0	0	627	521	0	1021	0	0	
5	0	0	0	0	646	522	0	1021	0	0	
6	0	0	0	0	653	520	0	1021	0	0	
7	0	0	0	0	649	516	0	1021	0	0	
8	0	0	0	0	635	509	0	1021	0	0	
9	0	0	0	0	610	500	0	1021	0	0	
10	0	0	0	0	577	491	0	1021	0	0	
11	0	0	0	0	540	482	0	1021	0	0	
12	0	0	0	0	502	475	0	1021	0	0	
13	0	0	0	0	467	468	0	1021	0	0	
14	0	0	0	0	440	465	0	1021	0	0	
15	0	0	0	0	422	465	0	1021	0	0	
0	0	0	0	0	415	467	0	1021	0	0	
1	0	0	0	0	419	473	0	1021	0	0	
2	0	0	0	0	435	480	0	1021	0	0	
3	0	0	0	0	463	489	0	1021	0	0	
4	0	0	0	0	497	499	0	1021	0	0	
5	0	0	0	0	536	508	0	1021	0	0	
6	0	0	0	0	574	516	0	1021	0	0	
7	0	0	0	0	610	522	0	1021	0	0	
8	0	0	0	0	639	525	0	1021	0	0	
9	0	0	0	0	657	525	0	1021	0	0	
10	0	0	0	0	665	521	0	1021	0	0	
11	0	0	0	0	661	516	0	1021	0	0	
12	0	0	0	0	646	508	0	1021	0	0	
13	0	0	0	0	620	498	0	1021	0	0	
14	0	0	0	0	587	487	0	1021	0	0	
15	0	0	0	0	548	477	0	1021	0	0	
0	0	0	0	0	508	468	0	1021	0	0	
1	0	0	0	0	473	461	0	1021	0	0	
2	0	0	0	0	444	457	0	1021	0	0	
3	0	0	0	0	425	455	0	1021	0	0	
4	0	0	0	0	416	457	0	1021	0	0	
5	0	0	0	0	420	462	0	1021	0	0	
6	0	0	0	0	435	470	0	1021	0	0	
7	0	0	0	0	460	480	0	1021	0	0	
8	0	0	0	0	493	490	0	1021	0	0	
9	0	0	0	0	531	500	0	1021	0	0	
10	0	0	0	0	568	509	0	1021	0	0	
11	0	0	0	0	604	516	0	1021	0	0	
12	0	0	0	0	633	522	0	1021	0	0	
13	0	0	0	0	652	524	0	1021	0	0	
14	0	0	0	0	663	523	0	1021	0	0	
15	0	0	0	0	660	519	0	1020	0	0	
0	0	0	0	0	647	513	0	1021	0	0	
1	0	0	0	0	624	504	0	1021	0	0	
2	0	0	0	0	591	494	0	1021	0	0	
3	0	0	0	0	554	483	0	1021	0	0	
4	0	0	0	0	515	472	0	1020	0	0	
5	0	0	0	0	480	465	0	1021	0	0	
6	0	0	0	0	450	458	0	1021	0	0	
7	0	0	0	0	429	455	0	1021	0	0	
8	0	0	0	0	419	455	0	1021	0	0	
9	0	0	0	0	419	457	0	1021	0	0	
10	0	0	0	0	432	463	0	1021	0	0	
11	0	0	0	0	455	470	0	1021	0	0	
12	0	0	0	0	487	479	0	1021	0	0	
13	0	0	0	0	522	488	0	1021	0	0	
14	0	0	0	0	559	497	0	1021	0	0	
15	0	0	0	0	593	505	0	1021	0	0	
0	0	0	0	0	622	511	0	1021	0	0	
1	0	0	0	0	643	515	0	1021	0	0	
2	0	0	0	0	653	515	0	1021	0	0	
3	0	0	0	0	652	514	0	1021	0	0	
4	0	0	0	0	641	510	0	1021	0	0	
5	0	0	0	0	619	504	0	1021	0	0	
6	0	0	0	0	589	496	0	1021	0	0	
7	0	0	0	0	555	487	0	1021	0	0	
8	0	0	0	0	518	478	0	1021	0	0	
9	0	0	0	0	483	470	0	1021	0	0	
10	0	0	0	0	454	465	0	1021	0	0	
11	0	0	0	0	433	461	0	1021	0	0	
12	0	0	0	0	423	460	0	1021	0	0	
13	0	0	0	0	423	463	0	1021	0	0	
14	0	0	0	0	435	469	0	1021	0	0	
15	0	0	0	0	457	477	0	1021	0	0	
0	0	0	0	0	487	486	0	1021	0	0	
1	0	0	0	0	521	496	0	1021	0	0	
2	0	0	0	0	557	505	0	1021	0	0	
3	0	0	0	0	591	513	0	1021	0	0	
4	0	0	0	0	619	519	0	1021	0	0	
5	0	0	0	0	638	522	0	1021	0	0	
6	0	0	0	0	647	522	0	1021	0	0	
7	0	0	0	0	646	519	0	1021	0	0	
8	0	0	0	0	633	514	0	1021	0	0	
9	0	0	0	0	611	506	0	1021	0	0	
10	0	0	0	0	580	496	0	1021	0	0	
11	0	0	0	0	545	486	0	1021	0	0	
12	0	0	0	0	508	477	0	1021	0	0	
13	0	0	0	0	475	469	0	1021	0	0	
14	0	0	0	0	448	463	0	1021	0	0	
15	0	0	0	0	429	460	0	1021	0	0	
0	0	0	0	0	421	459	0	1021	0	0	
1	0	0	0	0	424	463	0	1021	0	0	
2	0	0	0	0	439	467	0	1021	0	0	
3	0	0	0	0	463	475	0	1021	0	0	
4	0	0	0	0	494	483	0	1021	0	0	
5	0	0	0	0	528	491	0	1021	0	0	
6	0	0	0	0	564	499	0	1021	0	0	
7	0	0	0	0	597	505	0	1021	0	0	
8	0	0	0	0	624	510	0	1021	0	0	
9	0	0	0	0	642	512	0	1021	0	0	
10	0	0	0	0	650	511	0	1021	0	0	
11	0	0	0	0	647	509	0	1021	0	0	
12	0	0	0	0	635	504	0	1021	0	0	
13	0	0	0	0	611	497	0	1021	0	0	
14	0	0	0	0	581	489	0	1021	0	0	
15	0	0	0	0	545	480	0	1021	0	0	
0	0	0	0	0	510	473	0	1021	0	0	
1	0	0	0	0	477	467	0	1021	0	0	
2	0	0	0	0	451	463	0	1021	0	0	
3	0	0	0	0	433	462	0	1021	0	0	
4	0	0	0	0	425	463	0	1021	0	0	
5	0	0	0	0	430	468	0	1021	0	0	
6	0	0	0	0	445	475	0	1021	0	0	
7	0	0	0	0	471	484	0	1021	0	0	
8	0	0	0	0	504	494	0	1021	0	0	
9	0	0	0	0	540	504	0	1021	0	0	
10	0	0	0	0	577	513	0	1021	0	0	
11	0	0	0	0	612	521	0	1021	0	0	
12	0	0	0	0	640	526	0	1021	0	0	
13	0	0	0	0	659	527	0	1021	0	0	
14	0	0	0	0	666	525	0	1021	0	0	
15	0	0	0	0	662	519	0	1021	0	0	
0	0	0	0	0	647	512	0	1021	0	0	
1	0	0	0	0	622	504	0	1021	0	0	
2	0	0	0	0	589	493	0	1021	0	0	
3	0	0	0	0	551	482	0	1020	0	0	
4	0	0	0	0	513	473	0	1020	0	0	
5	0	0	0	0	478	467	0	1021	0	0	
6	0	0	0	0	450	463	0	1021	0	0	
7	0	0	0	0	432	461	0	1021	0	0	
8	0	0	0	0	423	463	0	1021	0	0	
9	0	0	0	0	427	467	0	1021	0	0	
10	0	0	0	0	441	475	0	1021	0	0	
11	0	0	0	0	466	484	0	1021	0	0	
12	0	0	0	0	499	495	0	1021	0	0	
13	0	0	0	0	535	505	0	1020	0	0	
14	0	0	0	0	572	514	0	1021	0	0	
15	0	0	0	0	607	522	0	1021	0	0	
0	0	0	0	0	634	527	0	1021	0	0	
1	0	0	0	0	653	529	0	1021	0	0	
2	0	0	0	0	661	528	0	1021	0	0	
3	0	0	0	0	658	523	0	1021	0	0	
4	0	0	0	0	643	516	0	1021	0	0	
5	0	0	0	0	618	507	0	1021	0	0	
6	0	0	0	0	585	496	0	1021	0	0	
7	0	0	0	0	547	485	0	1021	0	0	
8	0	0	0	0	509	474	0	1021	0	0	
9	0	0	0	0	473	465	0	1021	0	0	
10	0	0	0	0	444	459	0	1021	0	0	
11	0	0	0	0	424	455	0	1021	0	0	
12	0	0	0	0	415	454	0	1021	0	0	
13	0	0	0	0	417	455	0	1020	0	0	
14	0	0	0	0	431	460	0	1021	0	0	
15	0	0	0	0	454	467	0	1021	0	0	
0	0	0	0	0	486	475	0	1021	0	0	
1	0	0	0	0	521	483	0	1021	0	0	
2	0	0	0	0	558	490	0	1020	0	0	
3	0	0	0	0	592	497	0	1021	0	0	
4	0	0	0	0	620	502	0	1021	0	0	
5	0	0	0	0	639	504	0	1021	0	0	
6	0	0	0	0	648	502	0	1020	0	0	
7	0	0	0	0	645	498	0	1021	0	0	
8	0	0	0	0	632	492	0	1021	0	0	
9	0	0	0	0	608	483	0	1021	0	0	
10	0	0	0	0	575	473	0	1021	0	0	
11	0	0	0	0	540	463	0	1021	0	0	
12	0	0	0	0	502	454	0	1020	0	0	
13	0	0	0	0	469	448	0	1021	0	0	
14	0	0	0	0	442	444	0	1021	0	0	
15	0	0	0	0	425	444	0	1021	0	0	
0	0	0	0	0	418	447	0	1021	0	0	
1	0	0	0	0	423	452	0	1021	0	0	
2	0	0	0	0	439	462	0	1021	0	0	
3	0	0	0	0	465	472	0	1021	0	0	
4	0	0	0	0	499	484	0	1021	0	0	
5	0	0	0	0	536	496	0	1021	0	0	
6	0	0	0	0	574	507	0	1021	0	0	
7	0	0	0	0	609	515	0	1021	0	0	
8	0	0	0	0	637	522	0	1021	0	0	
9	0	0	0	0	656	525	0	1021	0	0	
10	0	0	0	0	665	524	0	1021	0	0	
11	0	0	0	0	662	521	0	1020	0	0	
12	0	0	0	0	647	516	0	1021	0	0	
13	0	0	0	0	623	507	0	1021	0	0	
14	0	0	0	0	590	498	0	1021	0	0	
15	0	0	0	0	552	487	0	1021	0	0	
0	0	0	0	0	513	477	0	1021	0	0	
1	0	0	0	0	477	469	0	1021	0	0	
2	0	0	0	0	448	463	0	1021	0	0	
3	0	0	0	0	428	459	0	1021	0	0	
4	0	0	0	0	419	459	0	1021	0	0	
5	0	0	0	0	423	462	0	1021	0	0	
6	0	0	0	0	439	468	0	1021	0	0	
7	0	0	0	0	464	477	0	1021	0	0	
8	0	0	0	0	498	487	0	1021	0	0	
9	0	0	0	0	537	497	0	1020	0	0	
10	0	0	0	0	576	506	0	1020	0	0	
11	0	0	0	0	612	514	0	1021	0	0	
12	0	0	0	0	642	519	0	1021	0	0	
13	0	0	0	0	663	521	0	1021	0	0	
14	0	0	0	0	672	520	0	1021	0	0	
15	0	0	0	0	670	516	0	1021	0	0	
0	0	0	0	0	656	510	0	1021	0	0	
1	0	0	0	0	632	503	0	1021	0	0	
2	0	0	0	0	600	494	0	1021	0	0	
3	0	0	0	0	563	484	0	1021	0	0	
4	0	0	0	0	525	476	0	1021	0	0	
5	0	0	0	0	491	470	0	1021	0	0	
6	0	0	0	0	463	465	0	1021	0	0	
7	0	0	0	0	443	464	0	1021	0	0	
8	0	0	0	0	434	465	0	1021	0	0	
9	0	0	0	0	436	468	0	1020	0	0	
10	0	0	0	0	449	475	0	1021	0	0	
11	0	0	0	0	472	482	0	1021	0	0	
12	0	0	0	0	502	489	0	1021	0	0	
13	0	0	0	0	536	497	0	1020	0	0	
14	0	0	0	0	572	504	0	1020	0	0	
15	0	0	0	0	604	511	0	1021	0	0	
0	0	0	0	0	631	514	0	1021	0	0	
1	0	0	0	0	650	515	0	1021	0	0	
2	0	0	0	0	658	514	0	1020	0	0	
3	0	0	0	0	655	511	0	1020	0	0	
4	0	0	0	0	643	507	0	1021	0	0	
5	0	0	0	0	620	499	0	1021	0	0	
6	0	0	0	0	589	492	0	1021	0	0	
7	0	0	0	0	553	483	0	1021	0	0	
8	0	0	0	0	516	475	0	1021	0	0	
9	0	0	0	0	481	468	0	1021	0	0	
10	0	0	0	0	453	463	0	1021	0	0	
11	0	0	0	0	433	460	0	1021	0	0	
12	0	0	0	0	424	461	0	1020	0	0	
13	0	0	0	0	425	463	0	1020	0	0	
14	0	0	0	0	439	470	0	1021	0	0	
15	0	0	0	0	462	479	0	1021	0	0	
0	0	0	0	0	494	488	0	1021	0	0	
1	0	0	0	0	529	498	0	1021	0	0	
2	0	0	0	0	565	507	0	1021	0	0	
3	0	0	0	0	600	514	0	1021	0	0	
4	0	0	0	0	627	519	0	1021	0	0	
5	0	0	0	0	647	520	0	1021	0	0	
6	0	0	0	0	655	518	0	1021	0	0	
7	0	0	0	0	654	513	0	1021	0	0	
8	0	0	0	0	641	506	0	1021	0	0	
9	0	0	0	0	618	496	0	1021	0	0	
10	0	0	0	0	588	486	0	1021	0	0	
11	0	0	0	0	553	476	0	1021	0	0	
12	0	0	0	0	517	466	0	1020	0	0	
13	0	0	0	0	485	460	0	1021	0	0	
14	0	0	0	0	459	456	0	1021	0	0	
15	0	0	0	0	441	455	0	1021	0	0	
0	0	0	0	0	435	456	0	1021	0	0	
1	0	0	0	0	438	462	0	1021	0	0	
2	0	0	0	0	454	469	0	1021	0	0	
3	0	0	0	0	479	479	0	1021	0	0	
4	0	0	0	0	511	490	0	1021	0	0	
5	0	0	0	0	548	502	0	1021	0	0	
6	0	0	0	0	586	513	0	1021	0	0	
7	0	0	0	0	621	522	0	1021	0	0	
8	0	0	0	0	650	529	0	1021	0	0	
9	0	0	0	0	669	532	0	1021	0	0	
10	0	0	0	0	679	532	0	1020	0	0	
11	0	0	0	0	676	528	0	1021	0	0	
12	0	0	0	0	663	521	0	1021	0	0	
13	0	0	0	0	638	512	0	1021	0	0	
14	0	0	0	0	604	500	0	1021	0	0	
15	0	0	0	0	563	487	0	1021	0	0	
0	0	0	0	0	521	473	0	1021	0	0	
1	0	0	0	0	481	462	0	1021	0	0	
2	0	0	0	0	446	451	0	1021	0	0	
3	0	0	0	0	418	443	0	1021	0	0	
4	0	0	0	0	399	436	0	1021	0	0	
5	0	0	0	0	391	432	0	1021	0	0	
6	0	0	0	0	395	429	0	1021	0	0	
7	0	0	0	0	408	428	0	1021	0	0	
8	0	0	0	0	430	429	0	1021	0	0	
9	0	0	0	0	457	431	0	1021	0	0	
10	0	0	0	0	485	431	0	1021	0	0	
11	0	0	0	0	512	431	0	1021	0	0	
12	0	0	0	0	533	430	0	1021	0	0	
13	0	0	0	0	546	425	0	1021	0	0	
14	0	0	0	0	549	418	0	1021	0	0	
15	0	0	0	0	540	408	0	1021	0	0	
0	0	0	0	0	520	395	0	1021	0	0	
1	0	0	0	0	489	379	0	1021	0	0	
2	0	0	0	0	449	361	0	1021	0	0	
3	0	0	0	0	404	342	0	1021	0	0	
4	0	0	0	0	357	321	0	1020	0	0	
5	0	0	0	0	312	303	0	1021	0	0	
6	0	0	0	0	274	286	0	1021	0	0	
7	0	0	0	0	243	271	0	1021	0	0	
8	0	0	0	0	222	261	0	1021	0	0	
9	0	0	0	0	213	254	0	1020	0	0	
10	0	0	0	0	217	253	0	1021	0	0	
11	0	0	0	0	235	256	0	1021	0	0	
12	0	0	0	0	265	264	0	1021	0	0	
13	0	0	0	0	304	277	0	1021	0	0	
14	0	0	0	0	351	294	0	1021	0	0	
15	0	0	0	0	401	314	0	1021	0	0	
0	0	0	0	0	451	337	0	1021	0	0	
1	0	0	0	0	497	360	0	1021	0	0	
2	0	0	0	0	536	383	0	1020	0	0	
3	0	0	0	0	565	406	0	1021	0	0	
4	0	0	0	0	584	427	0	1021	0	0	
5	0	0	0	0	592	444	0	1021	0	0	
6	0	0	0	0	589	459	0	1021	0	0	
7	0	0	0	0	577	470	0	1021	0	0	
8	0	0	0	0	559	479	0	1021	0	0	
9	0	0	0	0	540	486	0	1021	0	0	
10	0	0	0	0	520	491	0	1021	0	0	
11	0	0	0	0	504	496	0	1021	0	0	
12	0	0	0	0	495	499	0	1021	0	0	
13	0	0	0	0	492	502	0	1021	0	0	
14	0	0	0	0	498	506	0	1021	0	0	
15	0	0	0	0	512	510	0	1021	0	0	
0	0	0	0	0	532	514	0	1021	0	0	
1	0	0	0	0	557	517	0	1020	0	0	
2	0	0	0	0	583	521	0	1021	0	0	
3	0	0	0	0	608	523	0	1021	0	0	
4	0	0	0	0	627	523	0	1021	0	0	
5	0	0	0	0	640	521	0	1021	0	0	
6	0	0	0	0	644	517	0	1021	0	0	
7	0	0	0	0	640	512	0	1021	0	0	
8	0	0	0	0	626	504	0	1021	0	0	
9	0	0	0	0	603	496	0	1021	0	0	
10	0	0	0	0	574	486	0	1021	0	0	
11	0	0	0	0	540	477	0	1021	0	0	
12	0	0	0	0	506	470	0	1021	0	0	
13	0	0	0	0	476	464	0	1021	0	0	
14	0	0	0	0	452	461	0	1021	0	0	
15	0	0	0	0	438	461	0	1021	0	0	
0	0	0	0	0	433	464	0	1021	0	0	
1	0	0	0	0	440	471	0	1021	0	0	
2	0	0	0	0	457	480	0	1021	0	0	
3	0	0	0	0	484	491	0	1021	0	0	
4	0	0	0	0	518	502	0	1021	0	0	
5	0	0	0	0	555	513	0	1021	0	0	
6	0	0	0	0	592	523	0	1021	0	0	
7	0	0	0	0	627	531	0	1021	0	0	
8	0	0	0	0	654	536	0	1021	0	0	
9	0	0	0	0	673	538	0	1021	0	0	
10	0	0	0	0	682	537	0	1021	0	0	
11	0	0	0	0	679	533	0	1021	0	0	
12	0	0	0	0	664	526	0	1021	0	0	
13	0	0	0	0	638	517	0	1021	0	0	
14	0	0	0	0	604	506	0	1021	0	0	
15	0	0	0	0	564	495	0	1021	0	0	
0	0	0	0	0	522	485	0	1021	0	0	
1	0	0	0	0	484	476	0	1021	0	0	
2	0	0	0	0	451	470	0	1021	0	0	
3	0	0	0	0	429	467	0	1021	0	0	
4	0	0	0	0	416	467	0	1021	0	0	
5	0	0	0	0	417	470	0	1021	0	0	
6	0	0	0	0	430	476	0	1021	0	0	
7	0	0	0	0	454	483	0	1021	0	0	
8	0	0	0	0	487	492	0	1021	0	0	
9	0	0	0	0	526	502	0	1021	0	0	
10	0	0	0	0	566	511	0	1021	0	0	
11	0	0	0	0	604	518	0	1021	0	0	
12	0	0	0	0	636	523	0	1021	0	0	
13	0	0	0	0	659	526	0	1021	0	0	
14	0	0	0	0	673	526	0	1021	0	0	
15	0	0	0	0	675	524	0	1021	0	0	
0	0	0	0	0	665	520	0	1021	0	0	
1	0	0	0	0	645	514	0	1021	0	0	
2	0	0	0	0	615	507	0	1021	0	0	
3	0	0	0	0	580	500	0	1021	0	0	
4	0	0	0	0	543	493	0	1021	0	0	
5	0	0	0	0	508	488	0	1021	0	0	
6	0	0	0	0	478	485	0	1021	0	0	
7	0	0	0	0	456	483	0	1021	0	0	
8	0	0	0	0	444	484	0	1021	0	0	
9	0	0	0	0	443	486	0	1021	0	0	
10	0	0	0	0	454	491	0	1021	0	0	
11	0	0	0	0	475	497	0	1021	0	0	
12	0	0	0	0	503	504	0	1021	0	0	
13	0	0	0	0	536	511	0	1021	0	0	
14	0	0	0	0	571	517	0	1021	0	0	
15	0	0	0	0	604	523	0	1021	0	0	
0	0	0	0	0	631	526	0	1021	0	0	
1	0	0	0	0	650	527	0	1021	0	0	
2	0	0	0	0	659	525	0	1021	0	0	
3	0	0	0	0	656	520	0	1020	0	0	
4	0	0	0	0	643	514	0	1021	0	0	
5	0	0	0	0	619	505	0	1021	0	0	
6	0	0	0	0	587	496	0	1021	0	0	
7	0	0	0	0	550	486	0	1021	0	0	
8	0	0	0	0	512	477	0	1021	0	0	
9	0	0	0	0	477	471	0	1021	0	0	
10	0	0	0	0	449	466	0	1021	0	0	
11	0	0	0	0	429	464	0	1021	0	0	
12	0	0	0	0	419	464	0	1021	0	0	
13	0	0	0	0	421	466	0	1021	0	0	
14	0	0	0	0	433	470	0	1021	0	0	
15	0	0	0	0	455	476	0	1021	0	0	
0	0	0	0	0	486	483	0	1021	0	0	
1	0	0	0	0	520	491	0	1021	0	0	
2	0	0	0	0	556	498	0	1021	0	0	
3	0	0	0	0	591	504	0	1021	0	0	
4	0	0	0	0	619	508	0	1021	0	0	
5	0	0	0	0	639	511	0	1021	0	0	
6	0	0	0	0	649	510	0	1021	0	0	
7	0	0	0	0	650	508	0	1021	0	0	
8	0	0	0	0	638	503	0	1021	0	0	
9	0	0	0	0	617	497	0	1021	0	0	
10	0	0	0	0	588	488	0	1021	0	0	
11	0	0	0	0	554	480	0	1021	0	0	
12	0	0	0	0	518	472	0	1021	0	0	
13	0	0	0	0	484	465	0	1021	0	0	
14	0	0	0	0	456	460	0	1021	0	0	
15	0	0	0	0	436	458	0	1021	0	0	
0	0	0	0	0	427	457	0	1021	0	0	
1	0	0	0	0	427	460	0	1021	0	0	
2	0	0	0	0	439	466	0	1021	0	0	
3	0	0	0	0	461	473	0	1021	0	0	
4	0	0	0	0	491	482	0	1021	0	0	
5	0	0	0	0	525	491	0	1021	0	0	
6	0	0	0	0	560	499	0	1021	0	0	
7	0	0	0	0	593	505	0	1021	0	0	
8	0	0	0	0	620	509	0	1021	0	0	
9	0	0	0	0	639	511	0	1021	0	0	
10	0	0	0	0	648	508	0	1021	0	0	
11	0	0	0	0	646	504	0	1021	0	0	
12	0	0	0	0	633	497	0	1021	0	0	
13	0	0	0	0	610	489	0	1021	0	0	
14	0	0	0	0	579	479	0	1021	0	0	
15	0	0	0	0	543	469	0	1021	0	0	
0	0	0	0	0	506	461	0	1021	0	0	
1	0	0	0	0	472	454	0	1021	0	0	
2	0	0	0	0	444	450	0	1021	0	0	
3	0	0	0	0	425	448	0	1021	0	0	
4	0	0	0	0	416	449	0	1021	0	0	
5	0	0	0	0	418	454	0	1021	0	0	
6	0	0	0	0	432	460	0	1021	0	0	
7	0	0	0	0	456	468	0	1021	0	0	
8	0	0	0	0	487	478	0	1021	0	0	
9	0	0	0	0	524	487	0	1021	0	0	
10	0	0	0	0	560	495	0	1021	0	0	
11	0	0	0	0	594	502	0	1021	0	0	
12	0	0	0	0	621	507	0	1021	0	0	
13	0	0	0	0	639	509	0	1021	0	0	
14	0	0	0	0	647	508	0	1021	0	0	
15	0	0	0	0	644	504	0	1021	0	0	
0	0	0	0	0	630	497	0	1021	0	0	
1	0	0	0	0	604	488	0	1021	0	0	
2	0	0	0	0	571	478	0	1021	0	0	
3	0	0	0	0	533	467	0	1021	0	0	
4	0	0	0	0	494	458	0	1021	0	0	
5	0	0	0	0	458	451	0	1021	0	0	
6	0	0	0	0	428	446	0	1021	0	0	
7	0	0	0	0	408	443	0	1021	0	0	
8	0	0	0	0	399	443	0	1021	0	0	
9	0	0	0	0	400	446	0	1021	0	0	
10	0	0	0	0	414	451	0	1021	0	0	
11	0	0	0	0	437	457	0	1021	0	0	
12	0	0	0	0	468	465	0	1021	0	0	
13	0	0	0	0	504	472	0	1021	0	0	
14	0	0	0	0	540	479	0	1021	0	0	
15	0	0	0	0	574	484	0	1021	0	0	
0	0	0	0	0	603	487	0	1021	0	0	
1	0	0	0	0	623	488	0	1021	0	0	
2	0	0	0	0	633	487	0	1021	0	0	
3	0	0	0	0	632	484	0	1021	0	0	
4	0	0	0	0	620	479	0	1021	0	0	
5	0	0	0	0	598	471	0	1021	0	0	
6	0	0	0	0	567	463	0	1021	0	0	
7	0	0	0	0	531	453	0	1021	0	0	
8	0	0	0	0	493	445	0	1021	0	0	
9	0	0	0	0	458	438	0	1021	0	0	
10	0	0	0	0	428	433	0	1021	0	0	
11	0	0	0	0	407	430	0	1021	0	0	
12	0	0	0	0	395	429	0	1021	0	0	
13	0	0	0	0	395	432	0	1021	0	0	
14	0	0	0	0	406	437	0	1021	0	0	
15	0	0	0	0	427	445	0	1021	0	0	
0	0	0	0	0	455	454	0	1021	0	0	
1	0	0	0	0	489	463	0	1021	0	0	
2	0	0	0	0	524	472	0	1021	0	0	
3	0	0	0	0	556	479	0	1021	0	0	
4	0	0	0	0	583	484	0	1021	0	0	
5	0	0	0	0	602	487	0	1021	0	0	
6	0	0	0	0	610	487	0	1021	0	0	
7	0	0	0	0	608	485	0	1021	0	0	
8	0	0	0	0	594	480	0	1021	0	0	
9	0	0	0	0	571	472	0	1021	0	0	
10	0	0	0	0	540	464	0	1021	0	0	
11	0	0	0	0	504	455	0	1021	0	0	
12	0	0	0	0	467	448	0	1020	0	0	
13	0	0	0	0	433	442	0	1021	0	0	
14	0	0	0	0	405	438	0	1021	0	0	
15	0	0	0	0	385	435	0	1021	0	0	
0	0	0	0	0	376	436	0	1021	0	0	
1	0	0	0	0	377	439	0	1021	0	0	
2	0	0	0	0	390	444	0	1021	0	0	
3	0	0	0	0	412	451	0	1021	0	0	
4	0	0	0	0	442	459	0	1021	0	0	
5	0	0	0	0	476	467	0	1021	0	0	
6	0	0	0	0	511	473	0	1021	0	0	
7	0	0	0	0	543	479	0	1021	0	0	
8	0	0	0	0	569	482	0	1021	0	0	
9	0	0	0	0	587	482	0	1021	0	0	
10	0	0	0	0	595	480	0	1021	0	0	
11	0	0	0	0	593	474	0	1020	0	0	
12	0	0	0	0	580	466	0	1021	0	0	
13	0	0	0	0	557	456	0	1021	0	0	
14	0	0	0	0	527	445	0	1021	0	0	
15	0	0	0	0	492	434	0	1021	0	0	
0	0	0	0	0	456	424	0	1021	0	0	
1	0	0	0	0	423	416	0	1021	0	0	
2	0	0	0	0	395	412	0	1021	0	0	
3	0	0	0	0	376	409	0	1021	0	0	
4	0	0	0	0	367	410	0	1021	0	0	
5	0	0	0	0	368	414	0	1020	0	0	
6	0	0	0	0	381	420	0	1021	0	0	
7	0	0	0	0	403	428	0	1021	0	0	
8	0	0	0	0	433	436	0	1021	0	0	
9	0	0	0	0	467	446	0	1021	0	0	
10	0	0	0	0	503	454	0	1020	0	0	
11	0	0	0	0	536	462	0	1021	0	0	
12	0	0	0	0	564	467	0	1021	0	0	
13	0	0	0	0	583	470	0	1021	0	0	
14	0	0	0	0	592	469	0	1021	0	0	
15	0	0	0	0	590	467	0	1021	0	0	
0	0	0	0	0	577	461	0	1021	0	0	
1	0	0	0	0	553	453	0	1021	0	0	
2	0	0	0	0	522	443	0	1021	0	0	
3	0	0	0	0	485	432	0	1020	0	0	
4	0	0	0	0	447	423	0	1020	0	0	
5	0	0	0	0	411	415	0	1021	0	0	
6	0	0	0	0	381	409	0	1021	0	0	
7	0	0	0	0	360	406	0	1021	0	0	
8	0	0	0	0	349	406	0	1021	0	0	
9	0	0	0	0	350	408	0	1020	0	0	
10	0	0	0	0	363	414	0	1021	0	0	
11	0	0	0	0	387	423	0	1021	0	0	
12	0	0	0	0	419	433	0	1021	0	0	
13	0	0	0	0	456	444	0	1021	0	0	
14	0	0	0	0	495	454	0	1021	0	0	
15	0	0	0	0	532	463	0	1021	0	0	
0	0	0	0	0	563	470	0	1021	0	0	
1	0	0	0	0	585	474	0	1021	0	0	
2	0	0	0	0	598	475	0	1021	0	0	
3	0	0	0	0	598	473	0	1020	0	0	
4	0	0	0	0	587	468	0	1021	0	0	
5	0	0	0	0	566	461	0	1021	0	0	
6	0	0	0	0	536	453	0	1021	0	0	
7	0	0	0	0	502	444	0	1021	0	0	
8	0	0	0	0	465	435	0	1021	0	0	
9	0	0	0	0	433	428	0	1021	0	0	
10	0	0	0	0	405	423	0	1021	0	0	
11	0	0	0	0	386	420	0	1021	0	0	
12	0	0	0	0	377	421	0	1021	0	0	
13	0	0	0	0	380	424	0	1021	0	0	
14	0	0	0	0	393	430	0	1021	0	0	
15	0	0	0	0	417	439	0	1021	0	0	
0	0	0	0	0	449	448	0	1021	0	0	
1	0	0	0	0	486	458	0	1021	0	0	
2	0	0	0	0	524	468	0	1021	0	0	
3	0	0	0	0	561	476	0	1021	0	0	
4	0	0	0	0	591	483	0	1021	0	0	
5	0	0	0	0	613	487	0	1021	0	0	
6	0	0	0	0	626	487	0	1021	0	0	
7	0	0	0	0	627	487	0	1021	0	0	
8	0	0	0	0	617	483	0	1021	0	0	
9	0	0	0	0	597	477	0	1021	0	0	
10	0	0	0	0	569	470	0	1021	0	0	
11	0	0	0	0	536	463	0	1021	0	0	
12	0	0	0	0	502	456	0	1020	0	0	
13	0	0	0	0	470	452	0	1021	0	0	
14	0	0	0	0	445	449	0	1021	0	0	
15	0	0	0	0	428	450	0	1021	0	0	
0	0	0	0	0	421	454	0	1021	0	0	
1	0	0	0	0	426	460	0	1020	0	0	
2	0	0	0	0	442	468	0	1021	0	0	
3	0	0	0	0	467	479	0	1021	0	0	
4	0	0	0	0	501	489	0	1021	0	0	
5	0	0	0	0	539	500	0	1021	0	0	
6	0	0	0	0	577	510	0	1021	0	0	
7	0	0	0	0	612	518	0	1021	0	0	
8	0	0	0	0	641	523	0	1021	0	0	
9	0	0	0	0	661	525	0	1021	0	0	
10	0	0	0	0	670	524	0	1020	0	0	
11	0	0	0	0	668	521	0	1020	0	0	
12	0	0	0	0	655	515	0	1021	0	0	
13	0	0	0	0	631	507	0	1021	0	0	
14	0	0	0	0	599	498	0	1021	0	0	
15	0	0	0	0	561	488	0	1021	0	0	
0	0	0	0	0	523	480	0	1021	0	0	
1	0	0	0	0	488	473	0	1021	0	0	
2	0	0	0	0	459	469	0	1021	0	0	
3	0	0	0	0	439	467	0	1020	0	0	
4	0	0	0	0	429	467	0	1021	0	0	
5	0	0	0	0	431	470	0	1021	0	0	
6	0	0	0	0	444	476	0	1021	0	0	
7	0	0	0	0	467	482	0	1021	0	0	
8	0	0	0	0	499	491	0	1021	0	0	
9	0	0	0	0	536	499	0	1021	0	0	
10	0	0	0	0	574	507	0	1021	0	0	
11	0	0	0	0	609	514	0	1021	0	0	
12	0	0	0	0	641	520	0	1021	0	0	
13	0	0	0	0	663	523	0	1021	0	0	
14	0	0	0	0	675	524	0	1021	0	0	
15	0	0	0	0	676	522	0	1021	0	0	
0	0	0	0	0	666	518	0	1021	0	0	
1	0	0	0	0	645	511	0	1021	0	0	
2	0	0	0	0	615	504	0	1021	0	0	
3	0	0	0	0	579	496	0	1021	0	0	
4	0	0	0	0	541	487	0	1021	0	0	
5	0	0	0	0	505	481	0	1021	0	0	
6	0	0	0	0	474	477	0	1021	0	0	
7	0	0	0	0	451	474	0	1021	0	0	
8	0	0	0	0	438	475	0	1021	0	0	
9	0	0	0	0	436	478	0	1020	0	0	
10	0	0	0	0	446	484	0	1021	0	0	
11	0	0	0	0	467	492	0	1021	0	0	
12	0	0	0	0	497	502	0	1021	0	0	
13	0	0	0	0	532	511	0	1021	0	0	
14	0	0	0	0	569	521	0	1021	0	0	
15	0	0	0	0	606	530	0	1021	0	0	
0	0	0	0	0	636	536	0	1021	0	0	
1	0	0	0	0	659	540	0	1021	0	0	
2	0	0	0	0	671	540	0	1020	0	0	
3	0	0	0	0	671	539	0	1020	0	0	
4	0	0	0	0	660	534	0	1021	0	0	
5	0	0	0	0	639	527	0	1021	0	0	
6	0	0	0	0	608	518	0	1021	0	0	
7	0	0	0	0	572	508	0	1021	0	0	
8	0	0	0	0	532	498	0	1021	0	0	
9	0	0	0	0	497	490	0	1021	0	0	
10	0	0	0	0	467	484	0	1021	0	0	
11	0	0	0	0	446	481	0	1021	0	0	
12	0	0	0	0	436	481	0	1020	0	0	
13	0	0	0	0	438	485	0	1020	0	0	
14	0	0	0	0	452	492	0	1021	0	0	
15	0	0	0	0	476	499	0	1021	0	0	
0	0	0	0	0	509	509	0	1021	0	0	
1	0	0	0	0	547	519	0	1021	0	0	
2	0	0	0	0	586	527	0	1020	0	0	
3	0	0	0	0	623	536	0	1021	0	0	
4	0	0	0	0	653	541	0	1021	0	0	
5	0	0	0	0	675	543	0	1021	0	0	
6	0	0	0	0	686	543	0	1021	0	0	
7	0	0	0	0	684	539	0	1021	0	0	
8	0	0	0	0	672	533	0	1021	0	0	
9	0	0	0	0	647	524	0	1021	0	0	
10	0	0	0	0	615	515	0	1021	0	0	
11	0	0	0	0	576	504	0	1021	0	0	
12	0	0	0	0	536	495	0	1021	0	0	
13	0	0	0	0	499	487	0	1021	0	0	
14	0	0	0	0	468	482	0	1021	0	0	
15	0	0	0	0	447	480	0	1021	0	0	
0	0	0	0	0	436	480	0	1021	0	0	
1	0	0	0	0	437	484	0	1021	0	0	
2	0	0	0	0	451	490	0	1021	0	0	
3	0	0	0	0	474	499	0	1021	0	0	
4	0	0	0	0	506	509	0	1021	0	0	
5	0	0	0	0	544	519	0	1021	0	0	
6	0	0	0	0	582	529	0	1021	0	0	
7	0	0	0	0	619	538	0	1021	0	0	
8	0	0	0	0	650	544	0	1021	0	0	
9	0	0	0	0	672	547	0	1021	0	0	
10	0	0	0	0	683	547	0	1021	0	0	
11	0	0	0	0	682	544	0	1021	0	0	
12	0	0	0	0	670	539	0	1021	0	0	
13	0	0	0	0	646	530	0	1021	0	0	
14	0	0	0	0	614	521	0	1021	0	0	
15	0	0	0	0	575	511	0	1021	0	0	
0	0	0	0	0	535	501	0	1021	0	0	
1	0	0	0	0	498	493	0	1021	0	0	
2	0	0	0	0	466	487	0	1021	0	0	
3	0	0	0	0	443	483	0	1021	0	0	
4	0	0	0	0	431	483	0	1021	0	0	
5	0	0	0	0	430	485	0	1021	0	0	
6	0	0	0	0	442	491	0	1021	0	0	
7	0	0	0	0	464	499	0	1021	0	0	
8	0	0	0	0	496	509	0	1021	0	0	
9	0	0	0	0	534	520	0	1021	0	0	
10	0	0	0	0	573	530	0	1021	0	0	
11	0	0	0	0	610	539	0	1021	0	0	
12	0	0	0	0	642	545	0	1021	0	0	
13	0	0	0	0	665	549	0	1021	0	0	
14	0	0	0	0	678	550	0	1021	0	0	
15	0	0	0	0	679	547	0	1021	0	0	
0	0	0	0	0	669	541	0	1021	0	0	
1	0	0	0	0	647	533	0	1021	0	0	
2	0	0	0	0	617	523	0	1020	0	0	
3	0	0	0	0	582	512	0	1021	0	0	
4	0	0	0	0	543	501	0	1021	0	0	
5	0	0	0	0	507	493	0	1021	0	0	
6	0	0	0	0	477	486	0	1021	0	0	
7	0	0	0	0	455	482	0	1021	0	0	
8	0	0	0	0	444	481	0	1021	0	0	
9	0	0	0	0	444	483	0	1021	0	0	
10	0	0	0	0	456	488	0	1021	0	0	
11	0	0	0	0	479	496	0	1021	0	0	
12	0	0	0	0	510	504	0	1021	0	0	
13	0	0	0	0	546	514	0	1021	0	0	
14	0	0	0	0	583	522	0	1020	0	0	
15	0	0	0	0	619	530	0	1021	0	0	
0	0	0	0	0	648	534	0	1021	0	0	
1	0	0	0	0	670	536	0	1021	0	0	
2	0	0	0	0	680	535	0	1021	0	0	
3	0	0	0	0	680	531	0	1020	0	0	
4	0	0	0	0	668	525	0	1021	0	0	
5	0	0	0	0	645	516	0	1021	0	0	
6	0	0	0	0	614	506	0	1021	0	0	
7	0	0	0	0	577	497	0	1021	0	0	
8	0	0	0	0	538	487	0	1021	0	0	
9	0	0	0	0	502	480	0	1021	0	0	
10	0	0	0	0	471	475	0	1021	0	0	
11	0	0	0	0	448	473	0	1021	0	0	
12	0	0	0	0	436	473	0	1021	0	0	
13	0	0	0	0	435	476	0	1021	0	0	
14	0	0	0	0	446	483	0	1021	0	0	
15	0	0	0	0	467	490	0	1021	0	0	
0	0	0	0	0	497	499	0	1021	0	0	
1	0	0	0	0	532	509	0	1021	0	0	
2	0	0	0	0	570	518	0	1021	0	0	
3	0	0	0	0	606	527	0	1021	0	0	
4	0	0	0	0	638	534	0	1021	0	0	
5	0	0	0	0	661	538	0	1021	0	0	
6	0	0	0	0	675	539	0	1021	0	0	
7	0	0	0	0	678	539	0	1021	0	0	
8	0	0	0	0	670	536	0	1021	0	0	
9	0	0	0	0	650	530	0	1021	0	0	
10	0	0	0	0	622	523	0	1021	0	0	
11	0	0	0	0	588	514	0	1021	0	0	
12	0	0	0	0	550	507	0	1021	0	0	
13	0	0	0	0	516	501	0	1021	0	0	
14	0	0	0	0	486	496	0	1021	0	0	
15	0	0	0	0	463	494	0	1021	0	0	
0	0	0	0	0	451	493	0	1021	0	0	
1	0	0	0	0	448	496	0	1021	0	0	
2	0	0	0	0	458	500	0	1021	0	0	
3	0	0	0	0	478	506	0	1021	0	0	
4	0	0	0	0	506	513	0	1021	0	0	
5	0	0	0	0	539	520	0	1021	0	0	
6	0	0	0	0	574	528	0	1021	0	0	
7	0	0	0	0	608	534	0	1021	0	0	
8	0	0	0	0	636	538	0	1021	0	0	
9	0	0	0	0	656	539	0	1021	0	0	
10	0	0	0	0	667	537	0	1021	0	0	
11	0	0	0	0	665	534	0	1021	0	0	
12	0	0	0	0	654	527	0	1021	0	0	
13	0	0	0	0	632	518	0	1021	0	0	
14	0	0	0	0	600	507	0	1021	0	0	
15	0	0	0	0	564	496	0	1021	0	0	
0	0	0	0	0	525	486	0	1021	0	0	
1	0	0	0	0	489	477	0	1021	0	0	
2	0	0	0	0	459	470	0	1021	0	0	
3	0	0	0	0	437	466	0	1021	0	0	
4	0	0	0	0	425	465	0	1021	0	0	
5	0	0	0	0	425	467	0	1021	0	0	
6	0	0	0	0	436	472	0	1021	0	0	
7	0	0	0	0	459	480	0	1021	0	0	
8	0	0	0	0	489	489	0	1021	0	0	
9	0	0	0	0	524	499	0	1020	0	0	
10	0	0	0	0	562	509	0	1021	0	0	
11	0	0	0	0	597	518	0	1021	0	0	
12	0	0	0	0	627	525	0	1021	0	0	
13	0	0	0	0	648	529	0	1021	0	0	
14	0	0	0	0	657	531	0	1021	0	0	
15	0	0	0	0	658	529	0	1020	0	0	
0	0	0	0	0	647	526	0	1021	0	0	
1	0	0	0	0	624	519	0	1021	0	0	
2	0	0	0	0	593	512	0	1021	0	0	
3	0	0	0	0	557	504	0	1021	0	0	
4	0	0	0	0	519	495	0	1020	0	0	
5	0	0	0	0	485	489	0	1021	0	0	
6	0	0	0	0	456	485	0	1021	0	0	
7	0	0	0	0	436	483	0	1021	0	0	
8	0	0	0	0	428	484	0	1021	0	0	
9	0	0	0	0	430	488	0	1021	0	0	
10	0	0	0	0	446	495	0	1021	0	0	
11	0	0	0	0	471	504	0	1021	0	0	
12	0	0	0	0	505	514	0	1021	0	0	
13	0	0	0	0	543	524	0	1020	0	0	
14	0	0	0	0	583	534	0	1021	0	0	
15	0	0	0	0	620	543	0	1021	0	0	
0	0	0	0	0	652	549	0	1021	0	0	
1	0	0	0	0	675	553	0	1021	0	0	
2	0	0	0	0	687	553	0	1021	0	0	
3	0	0	0	0	687	551	0	1021	0	0	
4	0	0	0	0	675	545	0	1021	0	0	
5	0	0	0	0	652	537	0	1021	0	0	
6	0	0	0	0	618	527	0	1021	0	0	
7	0	0	0	0	579	516	0	1021	0	0	
8	0	0	0	0	537	506	0	1021	0	0	
9	0	0	0	0	497	496	0	1021	0	0	
10	0	0	0	0	464	489	0	1021	0	0	
11	0	0	0	0	439	484	0	1021	0	0	
12	0	0	0	0	425	482	0	1021	0	0	
13	0	0	0	0	423	484	0	1021	0	0	
14	0	0	0	0	434	487	0	1021	0	0	
15	0	0	0	0	456	494	0	1021	0	0	
0	0	0	0	0	487	502	0	1021	0	0	
1	0	0	0	0	525	510	0	1021	0	0	
2	0	0	0	0	564	519	0	1021	0	0	
3	0	0	0	0	603	527	0	1021	0	0	
4	0	0	0	0	636	533	0	1021	0	0	
5	0	0	0	0	661	537	0	1021	0	0	
6	0	0	0	0	675	537	0	1021	0	0	
7	0	0	0	0	676	536	0	1021	0	0	
8	0	0	0	0	667	531	0	1021	0	0	
9	0	0	0	0	646	524	0	1021	0	0	
10	0	0	0	0	615	515	0	1021	0	0	
11	0	0	0	0	579	506	0	1021	0	0	
12	0	0	0	0	540	497	0	1021	0	0	
13	0	0	0	0	504	489	0	1021	0	0	
14	0	0	0	0	473	483	0	1021	0	0	
15	0	0	0	0	450	480	0	1021	0	0	
0	0	0	0	0	438	480	0	1021	0	0	
1	0	0	0	0	437	483	0	1021	0	0	
2	0	0	0	0	449	487	0	1021	0	0	
3	0	0	0	0	471	495	0	1021	0	0	
4	0	0	0	0	501	504	0	1021	0	0	
5	0	0	0	0	537	512	0	1021	0	0	
6	0	0	0	0	574	521	0	1021	0	0	
7	0	0	0	0	608	528	0	1021	0	0	
8	0	0	0	0	637	532	0	1021	0	0	
9	0	0	0	0	657	534	0	1021	0	0	
10	0	0	0	0	667	533	0	1021	0	0	
11	0	0	0	0	665	529	0	1021	0	0	
12	0	0	0	0	652	522	0	1021	0	0	
13	0	0	0	0	628	513	0	1021	0	0	
14	0	0	0	0	595	502	0	1021	0	0	
15	0	0	0	0	558	492	0	1021	0	0	
0	0	0	0	0	517	481	0	1021	0	0	
1	0	0	0	0	481	473	0	1021	0	0	
2	0	0	0	0	451	468	0	1021	0	0	
3	0	0	0	0	430	467	0	1021	0	0	
4	0	0	0	0	420	470	0	1021	0	0	
5	0	0	0	0	423	476	0	1021	0	0	
6	0	0	0	0	438	485	0	1021	0	0	
7	0	0	0	0	464	497	0	1021	0	0	
8	0	0	0	0	498	510	0	1021	0	0	
9	0	0	0	0	537	523	0	1021	0	0	
10	0	0	0	0	577	535	0	1021	0	0	
11	0	0	0	0	615	545	0	1021	0	0	
12	0	0	0	0	646	551	0	1021	0	0	
13	0	0	0	0	669	555	0	1021	0	0	
14	0	0	0	0	680	554	0	1021	0	0	
15	0	0	0	0	679	550	0	1021	0	0	
0	0	0	0	0	667	542	0	1021	0	0	
1	0	0	0	0	643	532	0	1021	0	0	
2	0	0	0	0	609	520	0	1021	0	0	
3	0	0	0	0	572	508	0	1021	0	0	
4	0	0	0	0	531	496	0	1021	0	0	
5	0	0	0	0	493	487	0	1021	0	0	
6	0	0	0	0	462	481	0	1021	0	0	
7	0	0	0	0	440	478	0	1021	0	0	
8	0	0	0	0	428	478	0	1020	0	0	
9	0	0	0	0	429	481	0	1021	0	0	
10	0	0	0	0	442	487	0	1021	0	0	
11	0	0	0	0	465	497	0	1021	0	0	
12	0	0	0	0	498	507	0	1021	0	0	
13	0	0	0	0	535	517	0	1020	0	0	
14	0	0	0	0	574	527	0	1021	0	0	
15	0	0	0	0	610	535	0	1021	0	0	
0	0	0	0	0	641	541	0	1021	0	0	
1	0	0	0	0	663	543	0	1021	0	0	
2	0	0	0	0	673	542	0	1021	0	0	
3	0	0	0	0	673	539	0	1021	0	0	
4	0	0	0	0	661	532	0	1021	0	0	
5	0	0	0	0	638	524	0	1021	0	0	
6	0	0	0	0	606	513	0	1021	0	0	
7	0	0	0	0	569	503	0	1021	0	0	
8	0	0	0	0	531	494	0	1021	0	0	
9	0	0	0	0	495	487	0	1021	0	0	
10	0	0	0	0	465	482	0	1021	0	0	
11	0	0	0	0	444	481	0	1021	0	0	
12	0	0	0	0	435	483	0	1021	0	0	
13	0	0	0	0	437	487	0	1020	0	0	
14	0	0	0	0	451	495	0	1021	0	0	
15	0	0	0	0	475	504	0	1021	0	0	
0	0	0	0	0	507	514	0	1021	0	0	
1	0	0	0	0	544	524	0	1021	0	0	
2	0	0	0	0	583	533	0	1021	0	0	
3	0	0	0	0	619	540	0	1021	0	0	
4	0	0	0	0	650	545	0	1021	0	0	
5	0	0	0	0	671	547	0	1021	0	0	
6	0	0	0	0	683	546	0	1021	0	0	
7	0	0	0	0	682	541	0	1020	0	0	
8	0	0	0	0	671	535	0	1021	0	0	
9	0	0	0	0	647	526	0	1021	0	0	
10	0	0	0	0	616	516	0	1021	0	0	
11	0	0	0	0	579	505	0	1021	0	0	
12	0	0	0	0	539	495	0	1020	0	0	
13	0	0	0	0	503	488	0	1021	0	0	
14	0	0	0	0	472	483	0	1021	0	0	
15	0	0	0	0	450	480	0	1021	0	0	
0	0	0	0	0	439	481	0	1021	0	0	
1	0	0	0	0	440	486	0	1021	0	0	
2	0	0	0	0	452	493	0	1021	0	0	
3	0	0	0	0	476	502	0	1021	0	0	
4	0	0	0	0	508	513	0	1021	0	0	
5	0	0	0	0	545	524	0	1021	0	0	
6	0	0	0	0	584	534	0	1021	0	0	
7	0	0	0	0	620	543	0	1021	0	0	
8	0	0	0	0	650	549	0	1021	0	0	
9	0	0	0	0	670	552	0	1021	0	0	
10	0	0	0	0	680	552	0	1021	0	0	
11	0	0	0	0	678	548	0	1020	0	0	
12	0	0	0	0	663	542	0	1021	0	0	
13	0	0	0	0	638	532	0	1021	0	0	
14	0	0	0	0	603	521	0	1021	0	0	
15	0	0	0	0	563	508	0	1021	0	0	
0	0	0	0	0	521	497	0	1021	0	0	
1	0	0	0	0	483	487	0	1021	0	0	
2	0	0	0	0	450	480	0	1021	0	0	
3	0	0	0	0	426	475	0	1021	0	0	
4	0	0	0	0	414	473	0	1021	0	0	
5	0	0	0	0	412	474	0	1021	0	0	
6	0	0	0	0	424	479	0	1021	0	0	
7	0	0	0	0	447	486	0	1021	0	0	
8	0	0	0	0	478	495	0	1021	0	0	
9	0	0	0	0	516	505	0	1021	0	0	
10	0	0	0	0	556	514	0	1020	0	0	
11	0	0	0	0	594	523	0	1021	0	0	
12	0	0	0	0	627	530	0	1021	0	0	
13	0	0	0	0	651	535	0	1021	0	0	
14	0	0	0	0	665	537	0	1021	0	0	
15	0	0	0	0	667	536	0	1021	0	0	
0	0	0	0	0	659	533	0	1021	0	0	
1	0	0	0	0	638	527	0	1021	0	0	
2	0	0	0	0	609	520	0	1021	0	0	
3	0	0	0	0	575	513	0	1021	0	0	
4	0	0	0	0	538	504	0	1020	0	0	
5	0	0	0	0	503	499	0	1021	0	0	
6	0	0	0	0	473	494	0	1021	0	0	
7	0	0	0	0	452	491	0	1021	0	0	
8	0	0	0	0	441	492	0	1021	0	0	
9	0	0	0	0	442	494	0	1020	0	0	
10	0	0	0	0	454	500	0	1021	0	0	
11	0	0	0	0	477	508	0	1021	0	0	
12	0	0	0	0	508	517	0	1021	0	0	
13	0	0	0	0	544	526	0	1021	0	0	
14	0	0	0	0	582	534	0	1021	0	0	
15	0	0	0	0	618	541	0	1021	0	0	
0	0	0	0	0	647	544	0	1021	0	0	
1	0	0	0	0	669	545	0	1021	0	0	
2	0	0	0	0	679	542	0	1020	0	0	
3	0	0	0	0	678	537	0	1020	0	0	
4	0	0	0	0	666	530	0	1021	0	0	
5	0	0	0	0	643	521	0	1021	0	0	
6	0	0	0	0	611	511	0	1021	0	0	
7	0	0	0	0	575	500	0	1021	0	0	
8	0	0	0	0	536	491	0	1021	0	0	
9	0	0	0	0	499	484	0	1021	0	0	
10	0	0	0	0	468	481	0	1021	0	0	
11	0	0	0	0	446	480	0	1021	0	0	
12	0	0	0	0	434	483	0	1021	0	0	
13	0	0	0	0	434	487	0	1021	0	0	
14	0	0	0	0	445	496	0	1021	0	0	
15	0	0	0	0	467	505	0	1021	0	0	
0	0	0	0	0	498	515	0	1021	0	0	
1	0	0	0	0	533	524	0	1021	0	0	
2	0	0	0	0	570	532	0	1021	0	0	
3	0	0	0	0	604	538	0	1021	0	0	
4	0	0	0	0	633	542	0	1021	0	0	
5	0	0	0	0	654	542	0	1021	0	0	
6	0	0	0	0	664	539	0	1021	0	0	
7	0	0	0	0	664	534	0	1021	0	0	
8	0	0	0	0	652	527	0	1021	0	0	
9	0	0	0	0	630	517	0	1021	0	0	
10	0	0	0	0	600	507	0	1021	0	0	
11	0	0	0	0	566	497	0	1021	0	0	
12	0	0	0	0	529	487	0	1020	0	0	
13	0	0	0	0	496	480	0	1021	0	0	
14	0	0	0	0	467	475	0	1021	0	0	
15	0	0	0	0	447	472	0	1021	0	0	
0	0	0	0	0	438	472	0	1021	0	0	
1	0	0	0	0	438	476	0	1021	0	0	
2	0	0	0	0	450	481	0	1021	0	0	
3	0	0	0	0	472	489	0	1021	0	0	
4	0	0	0	0	502	498	0	1021	0	0	
5	0	0	0	0	536	508	0	1020	0	0	
6	0	0	0	0	573	517	0	1021	0	0	
7	0	0	0	0	608	524	0	1021	0	0	
8	0	0	0	0	636	529	0	1021	0	0	
9	0	0	0	0	657	532	0	1020	0	0	
10	0	0	0	0	668	531	0	1021	0	0	
11	0	0	0	0	667	527	0	1020	0	0	
12	0	0	0	0	655	521	0	1021	0	0	
13	0	0	0	0	632	512	0	1021	0	0	
14	0	0	0	0	600	502	0	1021	0	0	
15	0	0	0	0	563	491	0	1021	0	0	
0	0	0	0	0	524	481	0	1021	0	0	
1	0	0	0	0	488	473	0	1021	0	0	
2	0	0	0	0	458	467	0	1021	0	0	
3	0	0	0	0	436	465	0	1021	0	0	
4	0	0	0	0	426	467	0	1021	0	0	
5	0	0	0	0	427	472	0	1021	0	0	
6	0	0	0	0	441	480	0	1021	0	0	
7	0	0	0	0	465	491	0	1021	0	0	
8	0	0	0	0	497	503	0	1021	0	0	
9	0	0	0	0	535	515	0	1021	0	0	
10	0	0	0	0	574	525	0	1021	0	0	
11	0	0	0	0	609	534	0	1021	0	0	
12	0	0	0	0	638	540	0	1021	0	0	
13	0	0	0	0	658	542	0	1021	0	0	
14	0	0	0	0	668	542	0	1021	0	0	
15	0	0	0	0	665	537	0	1021	0	0	
0	0	0	0	0	652	530	0	1021	0	0	
1	0	0	0	0	628	521	0	1021	0	0	
2	0	0	0	0	595	510	0	1021	0	0	
3	0	0	0	0	558	499	0	1021	0	0	
4	0	0	0	0	519	489	0	1021	0	0	
5	0	0	0	0	484	481	0	1021	0	0	
6	0	0	0	0	454	476	0	1021	0	0	
7	0	0	0	0	434	473	0	1021	0	0	
8	0	0	0	0	425	474	0	1021	0	0	
9	0	0	0	0	427	478	0	1021	0	0	
10	0	0	0	0	440	484	0	1021	0	0	
11	0	0	0	0	464	494	0	1021	0	0	
12	0	0	0	0	496	504	0	1021	0	0	
13	0	0	0	0	532	514	0	1021	0	0	
14	0	0	0	0	569	523	0	1020	0	0	
15	0	0	0	0	604	531	0	1021	0	0	
0	0	0	0	0	633	537	0	1021	0	0	
1	0	0	0	0	654	540	0	1021	0	0	
2	0	0	0	0	664	540	0	1021	0	0	
3	0	0	0	0	662	536	0	1021	0	0	
4	0	0	0	0	650	531	0	1021	0	0	
5	0	0	0	0	626	522	0	1021	0	0	
6	0	0	0	0	595	512	0	1021	0	0	
7	0	0	0	0	558	501	0	1021	0	0	
8	0	0	0	0	519	491	0	1020	0	0	
9	0	0	0	0	482	482	0	1021	0	0	
10	0	0	0	0	452	476	0	1021	0	0	
11	0	0	0	0	431	472	0	1021	0	0	
12	0	0	0	0	420	472	0	1021	0	0	
13	0	0	0	0	420	475	0	1021	0	0	
14	0	0	0	0	433	480	0	1021	0	0	
15	0	0	0	0	457	488	0	1021	0	0	
0	0	0	0	0	489	498	0	1021	0	0	
1	0	0	0	0	526	508	0	1021	0	0	
2	0	0	0	0	564	519	0	1021	0	0	
3	0	0	0	0	601	527	0	1021	0	0	
4	0	0	0	0	631	534	0	1021	0	0	
5	0	0	0	0	652	538	0	1021	0	0	
6	0	0	0	0	663	538	0	1021	0	0	
7	0	0	0	0	662	536	0	1021	0	0	
8	0	0	0	0	649	531	0	1021	0	0	
9	0	0	0	0	625	522	0	1021	0	0	
10	0	0	0	0	592	513	0	1021	0	0	
11	0	0	0	0	555	503	0	1021	0	0	
12	0	0	0	0	516	493	0	1021	0	0	
13	0	0	0	0	480	485	0	1021	0	0	
14	0	0	0	0	449	480	0	1021	0	0	
15	0	0	0	0	428	477	0	1021	0	0	
0	0	0	0	0	417	477	0	1021	0	0	
1	0	0	0	0	417	480	0	1021	0	0	
2	0	0	0	0	430	486	0	1021	0	0	
3	0	0	0	0	451	492	0	1021	0	0	
4	0	0	0	0	481	500	0	1021	0	0	
5	0	0	0	0	515	507	0	1021	0	0	
6	0	0	0	0	550	512	0	1021	0	0	
7	0	0	0	0	583	517	0	1021	0	0	
8	0	0	0	0	610	520	0	1021	0	0	
9	0	0	0	0	630	520	0	1021	0	0	
10	0	0	0	0	640	518	0	1020	0	0	
11	0	0	0	0	640	515	0	1020	0	0	
12	0	0	0	0	631	510	0	1021	0	0	
13	0	0	0	0	610	503	0	1021	0	0	
14	0	0	0	0	582	496	0	1021	0	0	
15	0	0	0	0	550	488	0	1021	0	0	
0	0	0	0	0	515	482	0	1021	0	0	
1	0	0	0	0	483	478	0	1021	0	0	
2	0	0	0	0	456	475	0	1021	0	0	
3	0	0	0	0	438	475	0	1020	0	0	
4	0	0	0	0	429	477	0	1021	0	0	
5	0	0	0	0	430	481	0	1020	0	0	
6	0	0	0	0	442	487	0	1021	0	0	
7	0	0	0	0	464	495	0	1021	0	0	
8	0	0	0	0	493	503	0	1021	0	0	
9	0	0	0	0	526	511	0	1021	0	0	
10	0	0	0	0	560	518	0	1021	0	0	
11	0	0	0	0	593	524	0	1021	0	0	
12	0	0	0	0	620	527	0	1021	0	0	
13	0	0	0	0	638	527	0	1021	0	0	
14	0	0	0	0	647	526	0	1021	0	0	
15	0	0	0	0	644	521	0	1021	0	0	
0	0	0	0	0	632	515	0	1021	0	0	
1	0	0	0	0	609	508	0	1021	0	0	
2	0	0	0	0	579	499	0	1021	0	0	
3	0	0	0	0	543	489	0	1021	0	0	
4	0	0	0	0	505	480	0	1020	0	0	
5	0	0	0	0	470	474	0	1021	0	0	
6	0	0	0	0	441	469	0	1021	0	0	
7	0	0	0	0	420	467	0	1021	0	0	
8	0	0	0	0	409	467	0	1021	0	0	
9	0	0	0	0	411	471	0	1021	0	0	
10	0	0	0	0	424	477	0	1021	0	0	
11	0	0	0	0	448	485	0	1021	0	0	
12	0	0	0	0	480	494	0	1021	0	0	
13	0	0	0	0	518	504	0	1021	0	0	
14	0	0	0	0	558	513	0	1021	0	0	
15	0	0	0	0	595	521	0	1021	0	0	
0	0	0	0	0	627	527	0	1021	0	0	
1	0	0	0	0	650	530	0	1021	0	0	
2	0	0	0	0	663	531	0	1021	0	0	
3	0	0	0	0	664	529	0	1021	0	0	
4	0	0	0	0	654	524	0	1021	0	0	
5	0	0	0	0	633	517	0	1021	0	0	
6	0	0	0	0	603	508	0	1021	0	0	
7	0	0	0	0	568	499	0	1021	0	0	
8	0	0	0	0	529	491	0	1021	0	0	
9	0	0	0	0	494	483	0	1021	0	0	
10	0	0	0	0	463	478	0	1021	0	0	
11	0	0	0	0	440	476	0	1021	0	0	
12	0	0	0	0	428	476	0	1021	0	0	
13	0	0	0	0	428	479	0	1021	0	0	
14	0	0	0	0	439	485	0	1021	0	0	
15	0	0	0	0	461	492	0	1021	0	0	
0	0	0	0	0	492	501	0	1021	0	0	
1	0	0	0	0	527	510	0	1021	0	0	
2	0	0	0	0	564	517	0	1021	0	0	
3	0	0	0	0	599	524	0	1021	0	0	
4	0	0	0	0	628	528	0	1021	0	0	
5	0	0	0	0	648	529	0	1021	0	0	
6	0	0	0	0	658	528	0	1021	0	0	
7	0	0	0	0	656	523	0	1021	0	0	
8	0	0	0	0	643	515	0	1021	0	0	
9	0	0	0	0	619	507	0	1021	0	0	
10	0	0	0	0	585	496	0	1021	0	0	
11	0	0	0	0	547	486	0	1021	0	0	
12	0	0	0	0	508	476	0	1020	0	0	
13	0	0	0	0	470	469	0	1021	0	0	
14	0	0	0	0	439	465	0	1021	0	0	
15	0	0	0	0	417	464	0	1021	0	0	
0	0	0	0	0	407	467	0	1021	0	0	
1	0	0	0	0	408	473	0	1021	0	0	
2	0	0	0	0	421	483	0	1021	0	0	
3	0	0	0	0	446	495	0	1021	0	0	
4	0	0	0	0	479	508	0	1021	0	0	
5	0	0	0	0	518	520	0	1021	0	0	
6	0	0	0	0	558	532	0	1021	0	0	
7	0	0	0	0	596	541	0	1021	0	0	
8	0	0	0	0	627	547	0	1021	0	0	
9	0	0	0	0	651	550	0	1021	0	0	
10	0	0	0	0	663	549	0	1021	0	0	
11	0	0	0	0	663	544	0	1020	0	0	
12	0	0	0	0	651	537	0	1021	0	0	
13	0	0	0	0	627	527	0	1021	0	0	
14	0	0	0	0	595	516	0	1021	0	0	
15	0	0	0	0	556	504	0	1021	0	0	
0	0	0	0	0	516	492	0	1021	0	0	
1	0	0	0	0	478	482	0	1021	0	0	
2	0	0	0	0	445	474	0	1021	0	0	
3	0	0	0	0	421	470	0	1021	0	0	
4	0	0	0	0	408	468	0	1021	0	0	
5	0	0	0	0	407	470	0	1021	0	0	
6	0	0	0	0	418	476	0	1021	0	0	
7	0	0	0	0	440	484	0	1021	0	0	
8	0	0	0	0	471	495	0	1021	0	0	
9	0	0	0	0	509	505	0	1021	0	0	
10	0	0	0	0	548	517	0	1021	0	0	
11	0	0	0	0	587	526	0	1021	0	0	
12	0	0	0	0	619	533	0	1021	0	0	
13	0	0	0	0	643	536	0	1021	0	0	
14	0	0	0	0	657	536	0	1021	0	0	
15	0	0	0	0	659	534	0	1021	0	0	
0	0	0	0	0	650	528	0	1021	0	0	
1	0	0	0	0	630	519	0	1021	0	0	
2	0	0	0	0	600	508	0	1021	0	0	
3	0	0	0	0	565	497	0	1021	0	0	
4	0	0	0	0	526	487	0	1021	0	0	
5	0	0	0	0	490	478	0	1021	0	0	
6	0	0	0	0	459	471	0	1021	0	0	
7	0	0	0	0	436	467	0	1021	0	0	
8	0	0	0	0	424	466	0	1021	0	0	
9	0	0	0	0	423	469	0	1021	0	0	
10	0	0	0	0	435	475	0	1021	0	0	
11	0	0	0	0	457	483	0	1021	0	0	
12	0	0	0	0	487	493	0	1021	0	0	
13	0	0	0	0	523	502	0	1021	0	0	
14	0	0	0	0	560	512	0	1021	0	0	
15	0	0	0	0	596	520	0	1021	0	0	
0	0	0	0	0	627	526	0	1021	0	0	
1	0	0	0	0	649	529	0	1021	0	0	
2	0	0	0	0	661	528	0	1021	0	0	
3	0	0	0	0	661	525	0	1021	0	0	
4	0	0	0	0	650	519	0	1021	0	0	
5	0	0	0	0	627	510	0	1021	0	0	
6	0	0	0	0	596	500	0	1021	0	0	
7	0	0	0	0	559	489	0	1021	0	0	
8	0	0	0	0	518	479	0	1021	0	0	
9	0	0	0	0	480	470	0	1021	0	0	
10	0	0	0	0	448	463	0	1021	0	0	
11	0	0	0	0	423	459	0	1021	0	0	
12	0	0	0	0	409	456	0	1021	0	0	
13	0	0	0	0	404	457	0	1021	0	0	
14	0	0	0	0	413	459	0	1021	0	0	
15	0	0	0	0	431	463	0	1021	0	0	
0	0	0	0	0	457	467	0	1021	0	0	
1	0	0	0	0	488	472	0	1021	0	0	
2	0	0	0	0	519	475	0	1021	0	0	
3	0	0	0	0	550	476	0	1021	0	0	
4	0	0	0	0	573	474	0	1021	0	0	
5	0	0	0	0	587	468	0	1021	0	0	
6	0	0	0	0	590	460	0	1021	0	0	
7	0	0	0	0	581	448	0	1021	0	0	
8	0	0	0	0	560	433	0	1021	0	0	
9	0	0	0	0	529	415	0	1021	0	0	
10	0	0	0	0	489	397	0	1021	0	0	
11	0	0	0	0	444	378	0	1021	0	0	
12	0	0	0	0	396	359	0	1021	0	0	
13	0	0	0	0	350	342	0	1021	0	0	
14	0	0	0	0	310	326	0	1021	0	0	
15	0	0	0	0	278	313	0	1021	0	0	
0	0	0	0	0	255	302	0	1021	0	0	
1	0	0	0	0	242	294	0	1021	0	0	
2	0	0	0	0	240	288	0	1021	0	0	
3	0	0	0	0	249	285	0	1021	0	0	
4	0	0	0	0	267	283	0	1021	0	0	
5	0	0	0	0	292	284	0	1021	0	0	
6	0	0	0	0	321	284	0	1021	0	0	
7	0	0	0	0	352	285	0	1021	0	0	
8	0	0	0	0	380	287	0	1021	0	0	
9	0	0	0	0	403	289	0	1021	0	0	
10	0	0	0	0	419	291	0	1021	0	0	
11	0	0	0	0	428	295	0	1021	0	0	
12	0	0	0	0	431	301	0	1021	0	0	
13	0	0	0	0	427	309	0	1021	0	0	
14	0	0	0	0	418	319	0	1021	0	0	
15	0	0	0	0	406	331	0	1021	0	0	
0	0	0	0	0	395	347	0	1021	0	0	
1	0	0	0	0	387	366	0	1021	0	0	
2	0	0	0	0	384	387	0	1021	0	0	
3	0	0	0	0	389	410	0	1021	0	0	
4	0	0	0	0	401	435	0	1021	0	0	
5	0	0	0	0	422	460	0	1021	0	0	
6	0	0	0	0	450	483	0	1021	0	0	
7	0	0	0	0	483	506	0	1021	0	0	
8	0	0	0	0	521	525	0	1021	0	0	
9	0	0	0	0	561	542	0	1021	0	0	
10	0	0	0	0	599	553	0	1020	0	0	
11	0	0	0	0	632	561	0	1021	0	0	
12	0	0	0	0	657	563	0	1021	0	0	
13	0	0	0	0	672	561	0	1021	0	0	
14	0	0	0	0	676	554	0	1021	0	0	
15	0	0	0	0	668	544	0	1021	0	0	
0	0	0	0	0	651	532	0	1021	0	0	
1	0	0	0	0	622	518	0	1021	0	0	
2	0	0	0	0	586	504	0	1021	0	0	
3	0	0	0	0	545	490	0	1021	0	0	
4	0	0	0	0	505	478	0	1020	0	0	
5	0	0	0	0	468	470	0	1021	0	0	
6	0	0	0	0	438	465	0	1021	0	0	
7	0	0	0	0	418	464	0	1021	0	0	
8	0	0	0	0	409	467	0	1021	0	0	
9	0	0	0	0	413	473	0	1021	0	0	
10	0	0	0	0	428	483	0	1021	0	0	
11	0	0	0	0	455	495	0	1021	0	0	
12	0	0	0	0	490	508	0	1021	0	0	
13	0	0	0	0	530	521	0	1021	0	0	
14	0	0	0	0	571	533	0	1021	0	0	
15	0	0	0	0	610	543	0	1021	0	0	
0	0	0	0	0	642	551	0	1021	0	0	
1	0	0	0	0	665	555	0	1021	0	0	
2	0	0	0	0	678	554	0	1021	0	0	
3	0	0	0	0	678	551	0	1021	0	0	
4	0	0	0	0	665	544	0	1021	0	0	
5	0	0	0	0	642	534	0	1021	0	0	
6	0	0	0	0	609	522	0	1021	0	0	
7	0	0	0	0	569	508	0	1021	0	0	
8	0	0	0	0	528	494	0	1021	0	0	
9	0	0	0	0	489	483	0	1021	0	0	
10	0	0	0	0	457	473	0	1021	0	0	
11	0	0	0	0	433	467	0	1021	0	0	
12	0	0	0	0	421	465	0	1021	0	0	
13	0	0	0	0	421	467	0	1021	0	0	
14	0	0	0	0	433	473	0	1021	0	0	
15	0	0	0	0	457	482	0	1021	0	0	
0	0	0	0	0	490	493	0	1021	0	0	
1	0	0	0	0	528	505	0	1021	0	0	
2	0	0	0	0	568	516	0	1021	0	0	
3	0	0	0	0	606	527	0	1021	0	0	
4	0	0	0	0	639	534	0	1021	0	0	
5	0	0	0	0	663	538	0	1021	0	0	
6	0	0	0	0	675	538	0	1020	0	0	
7	0	0	0	0	677	536	0	1021	0	0	
8	0	0	0	0	667	531	0	1021	0	0	
9	0	0	0	0	645	522	0	1021	0	0	
10	0	0	0	0	614	512	0	1021	0	0	
11	0	0	0	0	577	500	0	1021	0	0	
12	0	0	0	0	538	490	0	1021	0	0	
13	0	0	0	0	501	481	0	1021	0	0	
14	0	0	0	0	469	474	0	1021	0	0	
15	0	0	0	0	446	470	0	1021	0	0	
0	0	0	0	0	432	468	0	1021	0	0	
1	0	0	0	0	430	470	0	1021	0	0	
2	0	0	0	0	441	476	0	1021	0	0	
3	0	0	0	0	461	483	0	1021	0	0	
4	0	0	0	0	492	492	0	1021	0	0	
5	0	0	0	0	527	503	0	1021	0	0	
6	0	0	0	0	566	514	0	1021	0	0	
7	0	0	0	0	604	524	0	1021	0	0	
8	0	0	0	0	636	532	0	1021	0	0	
9	0	0	0	0	660	537	0	1021	0	0	
10	0	0	0	0	674	540	0	1021	0	0	
11	0	0	0	0	676	539	0	1021	0	0	
12	0	0	0	0	668	535	0	1021	0	0	
13	0	0	0	0	648	528	0	1021	0	0	
14	0	0	0	0	618	519	0	1021	0	0	
15	0	0	0	0	583	509	0	1021	0	0	
0	0	0	0	0	544	499	0	1021	0	0	
1	0	0	0	0	508	491	0	1021	0	0	
2	0	0	0	0	476	485	0	1021	0	0	
3	0	0	0	0	453	481	0	1021	0	0	
4	0	0	0	0	440	480	0	1020	0	0	
5	0	0	0	0	439	483	0	1021	0	0	
6	0	0	0	0	449	487	0	1021	0	0	
7	0	0	0	0	471	495	0	1021	0	0	
8	0	0	0	0	500	503	0	1021	0	0	
9	0	0	0	0	535	511	0	1020	0	0	
10	0	0	0	0	572	519	0	1021	0	0	
11	0	0	0	0	607	525	0	1021	0	0	
12	0	0	0	0	637	528	0	1021	0	0	
13	0	0	0	0	657	528	0	1021	0	0	
14	0	0	0	0	669	527	0	1021	0	0	
15	0	0	0	0	668	521	0	1021	0	0	
0	0	0	0	0	656	514	0	1021	0	0	
1	0	0	0	0	633	505	0	1021	0	0	
2	0	0	0	0	601	495	0	1021	0	0	
3	0	0	0	0	563	484	0	1021	0	0	
4	0	0	0	0	524	475	0	1021	0	0	
5	0	0	0	0	486	467	0	1021	0	0	
6	0	0	0	0	454	462	0	1021	0	0	
7	0	0	0	0	431	460	0	1021	0	0	
8	0	0	0	0	418	462	0	1021	0	0	
9	0	0	0	0	418	465	0	1021	0	0	
10	0	0	0	0	429	473	0	1021	0	0	
11	0	0	0	0	451	482	0	1021	0	0	
12	0	0	0	0	483	493	0	1021	0	0	
13	0	0	0	0	520	504	0	1021	0	0	
14	0	0	0	0	560	515	0	1021	0	0	
15	0	0	0	0	599	524	0	1021	0	0	
0	0	0	0	0	632	531	0	1021	0	0	
1	0	0	0	0	656	534	0	1021	0	0	
2	0	0	0	0	671	534	0	1021	0	0	
3	0	0	0	0	673	531	0	1021	0	0	
4	0	0	0	0	664	526	0	1021	0	0	
5	0	0	0	0	643	516	0	1021	0	0	
6	0	0	0	0	612	506	0	1021	0	0	
7	0	0	0	0	575	495	0	1021	0	0	
8	0	0	0	0	534	483	0	1021	0	0	
9	0	0	0	0	495	473	0	1021	0	0	
10	0	0	0	0	460	466	0	1021	0	0	
11	0	0	0	0	433	461	0	1021	0	0	
12	0	0	0	0	416	459	0	1021	0	0	
13	0	0	0	0	411	459	0	1021	0	0	
14	0	0	0	0	419	464	0	1021	0	0	
15	0	0	0	0	437	471	0	1021	0	0	
0	0	0	0	0	465	480	0	1021	0	0	
1	0	0	0	0	499	489	0	1021	0	0	
2	0	0	0	0	535	498	0	1021	0	0	
3	0	0	0	0	571	506	0	1021	0	0	
4	0	0	0	0	600	512	0	1021	0	0	
5	0	0	0	0	622	514	0	1021	0	0	
6	0	0	0	0	633	514	0	1021	0	0	
7	0	0	0	0	634	511	0	1021	0	0	
8	0	0	0	0	624	505	0	1021	0	0	
9	0	0	0	0	603	498	0	1021	0	0	
10	0	0	0	0	574	489	0	1021	0	0	
11	0	0	0	0	539	479	0	1021	0	0	
12	0	0	0	0	502	470	0	1021	0	0	
13	0	0	0	0	467	462	0	1021	0	0	
14	0	0	0	0	438	456	0	1021	0	0	
15	0	0	0	0	417	453	0	1021	0	0	
0	0	0	0	0	406	452	0	1021	0	0	
1	0	0	0	0	405	455	0	1021	0	0	
2	0	0	0	0	416	460	0	1021	0	0	
3	0	0	0	0	438	466	0	1021	0	0	
4	0	0	0	0	468	475	0	1021	0	0	
5	0	0	0	0	504	484	0	1021	0	0	
6	0	0	0	0	541	493	0	1021	0	0	
7	0	0	0	0	576	500	0	1021	0	0	
8	0	0	0	0	606	506	0	1021	0	0	
9	0	0	0	0	627	509	0	1021	0	0	
10	0	0	0	0	638	508	0	1021	0	0	
11	0	0	0	0	636	504	0	1021	0	0	
12	0	0	0	0	624	499	0	1021	0	0	
13	0	0	0	0	599	490	0	1021	0	0	
14	0	0	0	0	566	479	0	1021	0	0	
15	0	0	0	0	526	468	0	1021	0	0	
0	0	0	0	0	484	457	0	1021	0	0	
1	0	0	0	0	446	448	0	1021	0	0	
2	0	0	0	0	412	441	0	1021	0	0	
3	0	0	0	0	388	438	0	1021	0	0	
4	0	0	0	0	375	437	0	1021	0	0	
5	0	0	0	0	374	440	0	1021	0	0	
6	0	0	0	0	385	446	0	1021	0	0	
7	0	0	0	0	408	454	0	1021	0	0	
8	0	0	0	0	440	464	0	1021	0	0	
9	0	0	0	0	479	474	0	1021	0	0	
10	0	0	0	0	519	483	0	1021	0	0	
11	0	0	0	0	557	492	0	1021	0	0	
12	0	0	0	0	588	497	0	1021	0	0	
13	0	0	0	0	611	500	0	1021	0	0	
14	0	0	0	0	624	499	0	1021	0	0	
15	0	0	0	0	624	494	0	1021	0	0	
0	0	0	0	0	612	488	0	1021	0	0	
1	0	0	0	0	589	480	0	1021	0	0	
2	0	0	0	0	557	470	0	1021	0	0	
3	0	0	0	0	519	459	0	1021	0	0	
4	0	0	0	0	480	450	0	1021	0	0	
5	0	0	0	0	444	443	0	1021	0	0	
6	0	0	0	0	412	438	0	1021	0	0	
7	0	0	0	0	390	436	0	1021	0	0	
8	0	0	0	0	377	438	0	1021	0	0	
9	0	0	0	0	377	441	0	1021	0	0	
10	0	0	0	0	388	448	0	1021	0	0	
11	0	0	0	0	410	457	0	1021	0	0	
12	0	0	0	0	441	467	0	1021	0	0	
13	0	0	0	0	476	476	0	1021	0	0	
14	0	0	0	0	513	485	0	1021	0	0	
15	0	0	0	0	548	492	0	1021	0	0	
0	0	0	0	0	577	496	0	1021	0	0	
1	0	0	0	0	598	498	0	1021	0	0	
2	0	0	0	0	608	496	0	1021	0	0	
3	0	0	0	0	607	491	0	1021	0	0	
4	0	0	0	0	594	483	0	1021	0	0	
5	0	0	0	0	571	473	0	1021	0	0	
6	0	0	0	0	539	462	0	1021	0	0	
7	0	0	0	0	503	450	0	1021	0	0	
8	0	0	0	0	464	439	0	1021	0	0	
9	0	0	0	0	428	430	0	1021	0	0	
10	0	0	0	0	398	423	0	1021	0	0	
11	0	0	0	0	376	419	0	1021	0	0	
12	0	0	0	0	365	419	0	1021	0	0	
13	0	0	0	0	365	421	0	1021	0	0	
14	0	0	0	0	376	427	0	1021	0	0	
15	0	0	0	0	399	434	0	1021	0	0	
0	0	0	0	0	430	444	0	1021	0	0	
1	0	0	0	0	467	454	0	1021	0	0	
2	0	0	0	0	506	463	0	1020	0	0	
3	0	0	0	0	543	472	0	1021	0	0	
4	0	0	0	0	575	477	0	1021	0	0	
5	0	0	0	0	598	480	0	1021	0	0	
6	0	0	0	0	610	479	0	1021	0	0	
7	0	0	0	0	611	475	0	1021	0	0	
8	0	0	0	0	600	468	0	1021	0	0	
9	0	0	0	0	578	459	0	1021	0	0	
10	0	0	0	0	547	448	0	1021	0	0	
11	0	0	0	0	509	437	0	1021	0	0	
12	0	0	0	0	470	425	0	1021	0	0	
13	0	0	0	0	431	417	0	1021	0	0	
14	0	0	0	0	398	410	0	1021	0	0	
15	0	0	0	0	373	406	0	1021	0	0	
0	0	0	0	0	359	405	0	1021	0	0	
1	0	0	0	0	356	407	0	1021	0	0	
2	0	0	0	0	365	412	0	1021	0	0	
3	0	0	0	0	386	420	0	1021	0	0	
4	0	0	0	0	415	429	0	1021	0	0	
5	0	0	0	0	452	440	0	1021	0	0	
6	0	0	0	0	492	450	0	1021	0	0	
7	0	0	0	0	531	460	0	1021	0	0	
8	0	0	0	0	565	468	0	1021	0	0	
9	0	0	0	0	591	473	0	1021	0	0	
10	0	0	0	0	609	477	0	1021	0	0	
11	0	0	0	0	615	476	0	1021	0	0	
12	0	0	0	0	609	475	0	1021	0	0	
13	0	0	0	0	592	470	0	1021	0	0	
14	0	0	0	0	566	463	0	1021	0	0	
15	0	0	0	0	532	455	0	1021	0	0	
0	0	0	0	0	495	446	0	1021	0	0	
1	0	0	0	0	459	438	0	1021	0	0	
2	0	0	0	0	427	431	0	1021	0	0	
3	0	0	0	0	401	427	0	1021	0	0	
4	0	0	0	0	386	426	0	1021	0	0	
5	0	0	0	0	382	428	0	1021	0	0	
6	0	0	0	0	391	433	0	1021	0	0	
7	0	0	0	0	411	442	0	1021	0	0	
8	0	0	0	0	441	453	0	1021	0	0	
9	0	0	0	0	478	465	0	1021	0	0	
10	0	0	0	0	519	477	0	1021	0	0	
11	0	0	0	0	558	488	0	1021	0	0	
12	0	0	0	0	593	497	0	1021	0	0	
13	0	0	0	0	620	504	0	1021	0	0	
14	0	0	0	0	637	507	0	1021	0	0	
15	0	0	0	0	643	507	0	1021	0	0	
0	0	0	0	0	636	504	0	1021	0	0	
1	0	0	0	0	619	499	0	1021	0	0	
2	0	0	0	0	591	491	0	1021	0	0	
3	0	0	0	0	558	482	0	1021	0	0	
4	0	0	0	0	520	473	0	1021	0	0	
5	0	0	0	0	485	466	0	1021	0	0	
6	0	0	0	0	454	461	0	1021	0	0	
7	0	0	0	0	430	459	0	1021	0	0	
8	0	0	0	0	417	459	0	1021	0	0	
9	0	0	0	0	414	462	0	1021	0	0	
10	0	0	0	0	424	468	0	1021	0	0	
11	0	0	0	0	445	477	0	1021	0	0	
12	0	0	0	0	474	487	0	1021	0	0	
13	0	0	0	0	510	498	0	1021	0	0	
14	0	0	0	0	549	508	0	1021	0	0	
15	0	0	0	0	587	518	0	1021	0	0	
0	0	0	0	0	620	525	0	1021	0	0	
1	0	0	0	0	645	529	0	1021	0	0	
2	0	0	0	0	661	531	0	1021	0	0	
3	0	0	0	0	666	530	0	1021	0	0	
4	0	0	0	0	660	526	0	1021	0	0	
5	0	0	0	0	643	520	0	1021	0	0	
6	0	0	0	0	617	512	0	1021	0	0	
7	0	0	0	0	583	504	0	1020	0	0	
8	0	0	0	0	547	496	0	1020	0	0	
9	0	0	0	0	511	488	0	1021	0	0	
10	0	0	0	0	479	483	0	1021	0	0	
11	0	0	0	0	454	480	0	1021	0	0	
12	0	0	0	0	439	480	0	1021	0	0	
13	0	0	0	0	435	483	0	1021	0	0	
14	0	0	0	0	443	489	0	1021	0	0	
15	0	0	0	0	462	498	0	1021	0	0	
0	0	0	0	0	490	508	0	1021	0	0	
1	0	0	0	0	525	518	0	1021	0	0	
2	0	0	0	0	562	528	0	1021	0	0	
3	0	0	0	0	598	536	0	1021	0	0	
4	0	0	0	0	631	542	0	1021	0	0	
5	0	0	0	0	655	544	0	1021	0	0	
6	0	0	0	0	669	543	0	1020	0	0	
7	0	0	0	0	673	540	0	1021	0	0	
8	0	0	0	0	667	534	0	1021	0	0	
9	0	0	0	0	649	526	0	1021	0	0	
10	0	0	0	0	622	516	0	1020	0	0	
11	0	0	0	0	588	506	0	1021	0	0	
12	0	0	0	0	550	496	0	1021	0	0	
13	0	0	0	0	514	488	0	1021	0	0	
14	0	0	0	0	481	483	0	1021	0	0	
15	0	0	0	0	456	480	0	1021	0	0	
0	0	0	0	0	441	480	0	1021	0	0	
1	0	0	0	0	436	483	0	1021	0	0	
2	0	0	0	0	444	490	0	1021	0	0	
3	0	0	0	0	462	498	0	1021	0	0	
4	0	0	0	0	490	508	0	1021	0	0	
5	0	0	0	0	523	519	0	1021	0	0	
6	0	0	0	0	559	529	0	1021	0	0	
7	0	0	0	0	595	537	0	1021	0	0	
8	0	0	0	0	627	544	0	1021	0	0	
9	0	0	0	0	650	547	0	1021	0	0	
10	0	0	0	0	665	547	0	1021	0	0	
11	0	0	0	0	668	545	0	1021	0	0	
12	0	0	0	0	661	540	0	1021	0	0	
13	0	0	0	0	643	532	0	1021	0	0	
14	0	0	0	0	615	524	0	1021	0	0	
15	0	0	0	0	583	514	0	1021	0	0	
0	0	0	0	0	546	506	0	1021	0	0	
1	0	0	0	0	512	499	0	1021	0	0	
2	0	0	0	0	483	494	0	1021	0	0	
3	0	0	0	0	462	491	0	1021	0	0	
4	0	0	0	0	450	492	0	1021	0	0	
5	0	0	0	0	449	495	0	1021	0	0	
6	0	0	0	0	461	500	0	1021	0	0	
7	0	0	0	0	481	508	0	1021	0	0	
8	0	0	0	0	511	516	0	1021	0	0	
9	0	0	0	0	547	526	0	1021	0	0	
10	0	0	0	0	583	535	0	1021	0	0	
11	0	0	0	0	620	543	0	1021	0	0	
12	0	0	0	0	650	548	0	1021	0	0	
13	0	0	0	0	673	551	0	1021	0	0	
14	0	0	0	0	686	551	0	1021	0	0	
15	0	0	0	0	687	548	0	1021	0	0	
0	0	0	0	0	677	542	0	1021	0	0	
1	0	0	0	0	656	533	0	1021	0	0	
2	0	0	0	0	626	523	0	1021	0	0	
3	0	0	0	0	590	511	0	1021	0	0	
4	0	0	0	0	550	502	0	1021	0	0	
5	0	0	0	0	513	492	0	1021	0	0	
6	0	0	0	0	480	486	0	1021	0	0	
7	0	0	0	0	455	482	0	1021	0	0	
8	0	0	0	0	441	481	0	1021	0	0	
9	0	0	0	0	438	484	0	1021	0	0	
10	0	0	0	0	448	490	0	1021	0	0	
11	0	0	0	0	467	497	0	1021	0	0	
12	0	0	0	0	496	507	0	1021	0	0	
13	0	0	0	0	530	516	0	1021	0	0	
14	0	0	0	0	566	524	0	1021	0	0	
15	0	0	0	0	601	532	0	1021	0	0	
0	0	0	0	0	631	537	0	1021	0	0	
1	0	0	0	0	652	539	0	1021	0	0	
2	0	0	0	0	665	538	0	1021	0	0	
3	0	0	0	0	665	535	0	1021	0	0	
4	0	0	0	0	657	529	0	1021	0	0	
5	0	0	0	0	636	522	0	1021	0	0	
6	0	0	0	0	607	513	0	1021	0	0	
7	0	0	0	0	573	504	0	1021	0	0	
8	0	0	0	0	536	496	0	1021	0	0	
9	0	0	0	0	502	490	0	1021	0	0	
10	0	0	0	0	472	485	0	1021	0	0	
11	0	0	0	0	452	484	0	1021	0	0	
12	0	0	0	0	441	485	0	1021	0	0	
13	0	0	0	0	441	488	0	1021	0	0	
14	0	0	0	0	452	494	0	1021	0	0	
15	0	0	0	0	473	501	0	1021	0	0	
0	0	0	0	0	502	508	0	1021	0	0	
1	0	0	0	0	536	517	0	1021	0	0	
2	0	0	0	0	572	524	0	1021	0	0	
3	0	0	0	0	605	530	0	1021	0	0	
4	0	0	0	0	634	534	0	1021	0	0	
5	0	0	0	0	655	536	0	1021	0	0	
6	0	0	0	0	667	535	0	1021	0	0	
7	0	0	0	0	667	531	0	1021	0	0	
8	0	0	0	0	657	526	0	1021	0	0	
9	0	0	0	0	635	517	0	1021	0	0	
10	0	0	0	0	605	508	0	1021	0	0	
11	0	0	0	0	569	498	0	1021	0	0	
12	0	0	0	0	531	488	0	1020	0	0	
13	0	0	0	0	494	481	0	1021	0	0	
14	0	0	0	0	463	477	0	1021	0	0	
15	0	0	0	0	439	475	0	1021	0	0	
0	0	0	0	0	427	476	0	1021	0	0	
1	0	0	0	0	425	480	0	1021	0	0	
2	0	0	0	0	435	487	0	1021	0	0	
3	0	0	0	0	455	496	0	1021	0	0	
4	0	0	0	0	485	505	0	1020	0	0	
5	0	0	0	0	519	515	0	1021	0	0	
6	0	0	0	0	556	524	0	1021	0	0	
7	0	0	0	0	591	531	0	1021	0	0	
8	0	0	0	0	622	536	0	1021	0	0	
9	0	0	0	0	644	536	0	1021	0	0	
10	0	0	0	0	657	535	0	1021	0	0	
11	0	0	0	0	659	529	0	1020	0	0	
12	0	0	0	0	651	521	0	1021	0	0	
13	0	0	0	0	632	512	0	1021	0	0	
14	0	0	0	0	604	500	0	1021	0	0	
15	0	0	0	0	569	488	0	1021	0	0	
0	0	0	0	0	533	479	0	1021	0	0	
1	0	0	0	0	499	471	0	1021	0	0	
2	0	0	0	0	468	465	0	1021	0	0	
3	0	0	0	0	447	463	0	1021	0	0	
4	0	0	0	0	435	463	0	1021	0	0	
5	0	0	0	0	433	466	0	1020	0	0	
6	0	0	0	0	443	473	0	1021	0	0	
7	0	0	0	0	463	481	0	1021	0	0	
8	0	0	0	0	493	491	0	1021	0	0	
9	0	0	0	0	527	502	0	1021	0	0	
10	0	0	0	0	564	512	0	1021	0	0	
11	0	0	0	0	600	520	0	1021	0	0	
12	0	0	0	0	632	526	0	1021	0	0	
13	0	0	0	0	655	529	0	1021	0	0	
14	0	0	0	0	669	531	0	1021	0	0	
15	0	0	0	0	671	528	0	1021	0	0	
0	0	0	0	0	663	523	0	1021	0	0	
1	0	0	0	0	642	515	0	1021	0	0	
2	0	0	0	0	612	504	0	1020	0	0	
3	0	0	0	0	574	493	0	1021	0	0	
4	0	0	0	0	533	481	0	1021	0	0	
5	0	0	0	0	493	471	0	1021	0	0	
6	0	0	0	0	457	463	0	1021	0	0	
7	0	0	0	0	430	457	0	1021	0	0	
8	0	0	0	0	413	455	0	1021	0	0	
9	0	0	0	0	408	457	0	1021	0	0	
10	0	0	0	0	415	463	0	1021	0	0	
11	0	0	0	0	436	472	0	1021	0	0	
12	0	0	0	0	465	482	0	1021	0	0	
13	0	0	0	0	503	495	0	1021	0	0	
14	0	0	0	0	543	506	0	1021	0	0	
15	0	0	0	0	582	516	0	1021	0	0	
0	0	0	0	0	616	524	0	1021	0	0	
1	0	0	0	0	643	529	0	1021	0	0	
2	0	0	0	0	660	530	0	1021	0	0	
3	0	0	0	0	665	527	0	1020	0	0	
4	0	0	0	0	659	522	0	1021	0	0	
5	0	0	0	0	641	514	0	1021	0	0	
6	0	0	0	0	613	503	0	1021	0	0	
7	0	0	0	0	578	492	0	1021	0	0	
8	0	0	0	0	540	481	0	1021	0	0	
9	0	0	0	0	504	472	0	1021	0	0	
10	0	0	0	0	471	465	0	1021	0	0	
11	0	0	0	0	447	462	0	1021	0	0	
12	0	0	0	0	432	461	0	1021	0	0	
13	0	0	0	0	427	463	0	1021	0	0	
14	0	0	0	0	434	467	0	1021	0	0	
15	0	0	0	0	451	475	0	1021	0	0	
0	0	0	0	0	478	483	0	1021	0	0	
1	0	0	0	0	510	493	0	1021	0	0	
2	0	0	0	0	545	503	0	1021	0	0	
3	0	0	0	0	579	511	0	1021	0	0	
4	0	0	0	0	608	518	0	1021	0	0	
5	0	0	0	0	631	522	0	1021	0	0	
6	0	0	0	0	643	523	0	1020	0	0	
7	0	0	0	0	646	522	0	1021	0	0	
8	0	0	0	0	637	518	0	1021	0	0	
9	0	0	0	0	619	511	0	1021	0	0	
10	0	0	0	0	591	503	0	1021	0	0	
11	0	0	0	0	559	494	0	1021	0	0	
12	0	0	0	0	523	484	0	1021	0	0	
13	0	0	0	0	489	476	0	1021	0	0	
14	0	0	0	0	459	470	0	1021	0	0	
15	0	0	0	0	437	467	0	1021	0	0	
0	0	0	0	0	424	466	0	1021	0	0	
1	0	0	0	0	423	468	0	1021	0	0	
2	0	0	0	0	432	473	0	1021	0	0	
3	0	0	0	0	452	481	0	1021	0	0	
4	0	0	0	0	481	491	0	1021	0	0	
5	0	0	0	0	515	501	0	1021	0	0	
6	0	0	0	0	552	510	0	1021	0	0	
7	0	0	0	0	589	519	0	1021	0	0	
8	0	0	0	0	620	526	0	1021	0	0	
9	0	0	0	0	644	529	0	1021	0	0	
10	0	0	0	0	658	530	0	1021	0	0	
11	0	0	0	0	661	527	0	1021	0	0	
12	0	0	0	0	654	521	0	1021	0	0	
13	0	0	0	0	633	513	0	1021	0	0	
14	0	0	0	0	604	502	0	1021	0	0	
15	0	0	0	0	568	491	0	1021	0	0	
0	0	0	0	0	529	479	0	1021	0	0	
1	0	0	0	0	491	469	0	1021	0	0	
2	0	0	0	0	458	462	0	1021	0	0	
3	0	0	0	0	432	456	0	1021	0	0	
4	0	0	0	0	417	455	0	1021	0	0	
5	0	0	0	0	414	456	0	1021	0	0	
6	0	0	0	0	422	460	0	1021	0	0	
7	0	0	0	0	442	468	0	1021	0	0	
8	0	0	0	0	471	478	0	1021	0	0	
9	0	0	0	0	507	487	0	1021	0	0	
10	0	0	0	0	546	498	0	1021	0	0	
11	0	0	0	0	584	508	0	1021	0	0	
12	0	0	0	0	617	515	0	1021	0	0	
13	0	0	0	0	644	520	0	1021	0	0	
14	0	0	0	0	661	523	0	1021	0	0	
15	0	0	0	0	667	521	0	1021	0	0	
0	0	0	0	0	662	519	0	1021	0	0	
1	0	0	0	0	645	513	0	1021	0	0	
2	0	0	0	0	619	504	0	1021	0	0	
3	0	0	0	0	585	496	0	1021	0	0	
4	0	0	0	0	547	486	0	1021	0	0	
5	0	0	0	0	511	478	0	1021	0	0	
6	0	0	0	0	478	471	0	1021	0	0	
7	0	0	0	0	452	467	0	1021	0	0	
8	0	0	0	0	437	467	0	1021	0	0	
9	0	0	0	0	433	469	0	1021	0	0	
10	0	0	0	0	440	475	0	1021	0	0	
11	0	0	0	0	458	483	0	1021	0	0	
12	0	0	0	0	485	492	0	1021	0	0	
13	0	0	0	0	519	503	0	1021	0	0	
14	0	0	0	0	555	512	0	1021	0	0	
15	0	0	0	0	590	521	0	1021	0	0	
0	0	0	0	0	620	527	0	1021	0	0	
1	0	0	0	0	642	531	0	1020	0	0	
2	0	0	0	0	655	532	0	1021	0	0	
3	0	0	0	0	657	530	0	1020	0	0	
4	0	0	0	0	649	526	0	1021	0	0	
5	0	0	0	0	630	519	0	1021	0	0	
6	0	0	0	0	601	511	0	1021	0	0	
7	0	0	0	0	568	500	0	1021	0	0	
8	0	0	0	0	531	491	0	1021	0	0	
9	0	0	0	0	495	483	0	1021	0	0	
10	0	0	0	0	464	478	0	1021	0	0	
11	0	0	0	0	442	474	0	1021	0	0	
12	0	0	0	0	430	473	0	1021	0	0	
13	0	0	0	0	428	476	0	1021	0	0	
14	0	0	0	0	437	481	0	1021	0	0	
15	0	0	0	0	457	487	0	1021	0	0	
0	0	0	0	0	485	495	0	1021	0	0	
1	0	0	0	0	519	503	0	1021	0	0	
2	0	0	0	0	554	510	0	1021	0	0	
3	0	0	0	0	589	516	0	1021	0	0	
4	0	0	0	0	619	520	0	1021	0	0	
5	0	0	0	0	641	521	0	1021	0	0	
6	0	0	0	0	654	520	0	1021	0	0	
7	0	0	0	0	656	516	0	1021	0	0	
8	0	0	0	0	648	510	0	1021	0	0	
9	0	0	0	0	629	503	0	1021	0	0	
10	0	0	0	0	602	494	0	1021	0	0	
11	0	0	0	0	569	485	0	1021	0	0	
12	0	0	0	0	533	476	0	1021	0	0	
