# OpenSignals Text File Format. Version 1
# {"": {"position": 0, "device": "", "device name": "", "device connection": "", "sampling rate": 1000, "resolution": [4, 1, 1, 1, 1, 10, 10, 10, 10, 6, 6], "firmware version": 1281, "comments": "", "keywords": "", "mode": 0, "sync interval": 2, "date": "", "time": "", "channels": [1, 2, 3, 4, 5, 6], "sensor": ["RAW", "RAW", "RAW", "RAW", "RAW", "RAW"], "label": ["A1", "A2", "A3", "A4", "A5", "A6"], "column": ["nSeq", "I1", "I2", "O1", "O2", "A1", "A2", "A3", "A4", "A5", "A6"], "special": [{}, {}, {}, {}, {}, {}], "digital IO": [0, 0, 1, 1]}}
# EndOfHeader
0	0	0	0	0	614	427	0	0	0	0	
1	0	0	0	0	605	420	0	0	0	0	
2	0	0	0	0	594	412	0	0	0	0	
3	0	0	0	0	583	405	0	0	0	0	
4	0	0	0	0	573	398	0	0	0	0	
5	0	0	0	0	564	393	0	0	0	0	
6	0	0	0	0	557	388	0	0	0	0	
7	0	0	0	0	552	385	0	0	0	0	
8	0	0	0	0	550	384	0	0	0	0	
9	0	0	0	0	548	383	0	0	0	0	
10	0	0	0	0	551	384	0	0	0	0	
11	0	0	0	0	554	385	0	0	0	0	
12	0	0	0	0	559	387	0	0	0	0	
13	0	0	0	0	564	390	0	0	0	0	
14	0	0	0	0	571	393	0	0	0	0	
15	0	0	0	0	576	395	0	0	0	0	
0	0	0	0	0	581	396	0	0	0	0	
1	0	0	0	0	584	396	0	0	0	0	
2	0	0	0	0	584	396	0	0	0	0	
3	0	0	0	0	584	393	0	0	0	0	
4	0	0	0	0	583	391	0	0	0	0	
5	0	0	0	0	579	388	0	0	0	0	
6	0	0	0	0	576	387	0	0	0	0	
7	0	0	0	0	574	385	0	0	0	0	
8	0	0	0	0	572	385	0	0	0	0	
9	0	0	0	0	571	385	0	0	0	0	
10	0	0	0	0	571	387	0	0	0	0	
11	0	0	0	0	572	389	0	0	0	0	
12	0	0	0	0	572	391	0	0	0	0	
13	0	0	0	0	573	393	0	0	0	0	
14	0	0	0	0	572	393	0	0	0	0	
15	0	0	0	0	571	392	0	0	0	0	
0	0	0	0	0	568	390	0	0	0	0	
1	0	0	0	0	563	386	0	0	0	0	
2	0	0	0	0	559	381	0	0	0	0	
3	0	0	0	0	553	376	0	0	0	0	
4	0	0	0	0	549	371	0	0	0	0	
5	0	0	0	0	544	366	0	0	0	0	
6	0	0	0	0	541	363	0	0	0	0	
7	0	0	0	0	540	360	0	0	0	0	
8	0	0	0	0	539	358	0	0	0	0	
9	0	0	0	0	539	358	0	0	0	0	
10	0	0	0	0	540	358	0	0	0	0	
11	0	0	0	0	542	359	0	0	0	0	
12	0	0	0	0	544	361	0	0	0	0	
13	0	0	0	0	547	364	0	0	0	0	
14	0	0	0	0	551	369	0	0	0	0	
15	0	0	0	0	557	375	0	0	0	0	
0	0	0	0	0	563	381	0	0	0	0	
1	0	0	0	0	569	387	0	0	0	0	
2	0	0	0	0	575	394	0	0	0	0	
3	0	0	0	0	580	399	0	0	0	0	
4	0	0	0	0	583	402	0	0	0	0	
5	0	0	0	0	584	403	0	0	0	0	
6	0	0	0	0	582	401	0	0	0	0	
7	0	0	0	0	578	397	0	0	0	0	
8	0	0	0	0	572	391	0	0	0	0	
9	0	0	0	0	564	385	0	0	0	0	
10	0	0	0	0	556	378	0	0	0	0	
11	0	0	0	0	550	372	0	0	0	0	
12	0	0	0	0	544	368	0	0	0	0	
13	0	0	0	0	541	365	0	0	0	0	
14	0	0	0	0	539	364	0	0	0	0	
15	0	0	0	0	540	365	0	0	0	0	
0	0	0	0	0	543	368	0	0	0	0	
1	0	0	0	0	547	372	0	0	0	0	
2	0	0	0	0	554	378	0	0	0	0	
3	0	0	0	0	562	385	0	0	0	0	
4	0	0	0	0	570	392	0	0	0	0	
5	0	0	0	0	579	400	0	0	0	0	
6	0	0	0	0	587	408	0	0	0	0	
7	0	0	0	0	594	416	0	0	0	0	
8	0	0	0	0	601	423	0	0	0	0	
9	0	0	0	0	606	428	0	0	0	0	
10	0	0	0	0	608	430	0	0	0	0	
11	0	0	0	0	608	430	0	0	0	0	
12	0	0	0	0	605	428	0	0	0	0	
13	0	0	0	0	600	424	0	0	0	0	
14	0	0	0	0	592	418	0	0	0	0	
15	0	0	0	0	585	412	0	0	0	0	
0	0	0	0	0	577	406	0	0	0	0	
1	0	0	0	0	570	400	0	0	0	0	
2	0	0	0	0	566	397	0	0	0	0	
3	0	0	0	0	563	396	0	0	0	0	
4	0	0	0	0	563	396	0	0	0	0	
5	0	0	0	0	566	399	0	0	0	0	
6	0	0	0	0	571	403	0	0	0	0	
7	0	0	0	0	575	407	0	0	0	0	
8	0	0	0	0	580	411	0	0	0	0	
9	0	0	0	0	584	414	0	0	0	0	
10	0	0	0	0	587	416	0	0	0	0	
11	0	0	0	0	587	415	0	0	0	0	
12	0	0	0	0	585	412	0	0	0	0	
13	0	0	0	0	579	407	0	0	0	0	
14	0	0	0	0	572	400	0	0	0	0	
15	0	0	0	0	563	391	0	0	0	0	
0	0	0	0	0	554	383	0	0	0	0	
1	0	0	0	0	545	374	0	0	0	0	
2	0	0	0	0	537	367	0	0	0	0	
3	0	0	0	0	532	361	0	0	0	0	
4	0	0	0	0	529	358	0	0	0	0	
5	0	0	0	0	529	359	0	0	0	0	
6	0	0	0	0	531	361	0	0	0	0	
7	0	0	0	0	537	366	0	0	0	0	
8	0	0	0	0	544	372	0	0	0	0	
9	0	0	0	0	553	379	0	0	0	0	
10	0	0	0	0	562	388	0	0	0	0	
11	0	0	0	0	572	396	0	0	0	0	
12	0	0	0	0	581	405	0	0	0	0	
13	0	0	0	0	590	412	0	0	0	0	
14	0	0	0	0	598	419	0	0	0	0	
15	0	0	0	0	604	425	0	0	0	0	
0	0	0	0	0	609	428	0	0	0	0	
1	0	0	0	0	611	430	0	0	0	0	
2	0	0	0	0	610	429	0	0	0	0	
3	0	0	0	0	606	426	0	0	0	0	
4	0	0	0	0	600	420	0	0	0	0	
5	0	0	0	0	591	413	0	0	0	0	
6	0	0	0	0	580	405	0	0	0	0	
7	0	0	0	0	569	397	0	0	0	0	
8	0	0	0	0	560	390	0	0	0	0	
9	0	0	0	0	551	383	0	0	0	0	
10	0	0	0	0	544	379	0	0	0	0	
11	0	0	0	0	540	376	0	0	0	0	
12	0	0	0	0	537	374	0	0	0	0	
13	0	0	0	0	539	375	0	0	0	0	
14	0	0	0	0	542	378	0	0	0	0	
15	0	0	0	0	547	382	0	0	0	0	
0	0	0	0	0	554	387	0	0	0	0	
1	0	0	0	0	560	391	0	0	0	0	
2	0	0	0	0	568	396	0	0	0	0	
3	0	0	0	0	574	400	0	0	0	0	
4	0	0	0	0	579	404	0	0	0	0	
5	0	0	0	0	583	408	0	0	0	0	
6	0	0	0	0	588	411	0	0	0	0	
7	0	0	0	0	592	414	0	0	0	0	
8	0	0	0	0	595	418	0	0	0	0	
9	0	0	0	0	598	422	0	0	0	0	
10	0	0	0	0	600	425	0	0	0	0	
11	0	0	0	0	603	429	0	0	0	0	
12	0	0	0	0	605	432	0	0	0	0	
13	0	0	0	0	607	436	0	0	0	0	
14	0	0	0	0	609	440	0	0	0	0	
15	0	0	0	0	612	445	0	0	0	0	
0	0	0	0	0	615	449	0	0	0	0	
1	0	0	0	0	619	453	0	0	0	0	
2	0	0	0	0	622	457	0	0	0	0	
3	0	0	0	0	623	458	0	0	0	0	
4	0	0	0	0	621	457	0	0	0	0	
5	0	0	0	0	616	454	0	0	0	0	
6	0	0	0	0	609	448	0	0	0	0	
7	0	0	0	0	600	440	0	0	0	0	
8	0	0	0	0	589	430	0	0	0	0	
9	0	0	0	0	577	419	0	0	0	0	
10	0	0	0	0	564	408	0	0	0	0	
11	0	0	0	0	553	398	0	0	0	0	
12	0	0	0	0	544	389	0	0	0	0	
13	0	0	0	0	537	382	0	0	0	0	
14	0	0	0	0	532	377	0	0	0	0	
15	0	0	0	0	531	374	0	0	0	0	
0	0	0	0	0	531	374	0	0	0	0	
1	0	0	0	0	535	376	0	0	0	0	
2	0	0	0	0	540	380	0	0	0	0	
3	0	0	0	0	546	384	0	0	0	0	
4	0	0	0	0	553	389	0	0	0	0	
5	0	0	0	0	559	394	0	0	0	0	
6	0	0	0	0	565	399	0	0	0	0	
7	0	0	0	0	569	403	0	0	0	0	
8	0	0	0	0	571	406	0	0	0	0	
9	0	0	0	0	572	407	0	0	0	0	
10	0	0	0	0	571	406	0	0	0	0	
11	0	0	0	0	567	404	0	0	0	0	
12	0	0	0	0	563	401	0	0	0	0	
13	0	0	0	0	558	398	0	0	0	0	
14	0	0	0	0	553	396	0	0	0	0	
15	0	0	0	0	550	393	0	0	0	0	
0	0	0	0	0	548	393	0	0	0	0	
1	0	0	0	0	549	395	0	0	0	0	
2	0	0	0	0	551	398	0	0	0	0	
3	0	0	0	0	558	404	0	0	0	0	
4	0	0	0	0	566	410	0	0	0	0	
5	0	0	0	0	575	418	0	0	0	0	
6	0	0	0	0	585	425	0	0	0	0	
7	0	0	0	0	594	432	0	0	0	0	
8	0	0	0	0	601	438	0	0	0	0	
9	0	0	0	0	607	441	0	0	0	0	
10	0	0	0	0	610	444	0	0	0	0	
11	0	0	0	0	609	443	0	0	0	0	
12	0	0	0	0	605	440	0	0	0	0	
13	0	0	0	0	598	435	0	0	0	0	
14	0	0	0	0	588	427	0	0	0	0	
15	0	0	0	0	577	419	0	0	0	0	
0	0	0	0	0	565	410	0	0	0	0	
1	0	0	0	0	553	401	0	0	0	0	
2	0	0	0	0	542	392	0	0	0	0	
3	0	0	0	0	535	386	0	0	0	0	
4	0	0	0	0	530	382	0	0	0	0	
5	0	0	0	0	529	380	0	0	0	0	
6	0	0	0	0	532	383	0	0	0	0	
7	0	0	0	0	540	388	0	0	0	0	
8	0	0	0	0	552	397	0	0	0	0	
9	0	0	0	0	568	409	0	0	0	0	
10	0	0	0	0	585	424	0	0	0	0	
11	0	0	0	0	604	440	0	0	0	0	
12	0	0	0	0	624	457	0	0	0	0	
13	0	0	0	0	641	472	0	0	0	0	
14	0	0	0	0	656	485	0	0	0	0	
15	0	0	0	0	666	494	0	0	0	0	
0	0	0	0	0	669	497	0	0	0	0	
1	0	0	0	0	665	495	0	0	0	0	
2	0	0	0	0	655	487	0	0	0	0	
3	0	0	0	0	638	474	0	0	0	0	
4	0	0	0	0	615	456	0	0	0	0	
5	0	0	0	0	590	436	0	0	0	0	
6	0	0	0	0	563	415	0	0	0	0	
7	0	0	0	0	538	393	0	0	0	0	
8	0	0	0	0	515	374	0	0	0	0	
9	0	0	0	0	496	358	0	0	0	0	
10	0	0	0	0	483	345	0	0	0	0	
11	0	0	0	0	476	338	0	0	0	0	
12	0	0	0	0	475	334	0	0	0	0	
13	0	0	0	0	479	335	0	0	0	0	
14	0	0	0	0	488	340	0	0	0	0	
15	0	0	0	0	501	348	0	0	0	0	
0	0	0	0	0	515	358	0	0	0	0	
1	0	0	0	0	530	369	0	0	0	0	
2	0	0	0	0	546	381	0	0	0	0	
3	0	0	0	0	560	392	0	0	0	0	
4	0	0	0	0	572	401	0	0	0	0	
5	0	0	0	0	580	409	0	0	0	0	
6	0	0	0	0	586	415	0	0	0	0	
7	0	0	0	0	589	419	0	0	0	0	
8	0	0	0	0	589	420	0	0	0	0	
9	0	0	0	0	586	420	0	0	0	0	
10	0	0	0	0	582	419	0	0	0	0	
11	0	0	0	0	576	416	0	0	0	0	
12	0	0	0	0	569	413	0	0	0	0	
13	0	0	0	0	563	408	0	0	0	0	
14	0	0	0	0	556	404	0	0	0	0	
15	0	0	0	0	551	400	0	0	0	0	
0	0	0	0	0	547	397	0	0	0	0	
1	0	0	0	0	545	395	0	0	0	0	
2	0	0	0	0	544	394	0	0	0	0	
3	0	0	0	0	545	393	0	0	0	0	
4	0	0	0	0	548	395	0	0	0	0	
5	0	0	0	0	553	398	0	0	0	0	
6	0	0	0	0	558	401	0	0	0	0	
7	0	0	0	0	564	405	0	0	0	0	
8	0	0	0	0	570	409	0	0	0	0	
9	0	0	0	0	574	413	0	0	0	0	
10	0	0	0	0	578	415	0	0	0	0	
11	0	0	0	0	580	417	0	0	0	0	
12	0	0	0	0	579	417	0	0	0	0	
13	0	0	0	0	577	415	0	0	0	0	
14	0	0	0	0	573	412	0	0	0	0	
15	0	0	0	0	568	408	0	0	0	0	
0	0	0	0	0	562	403	0	0	0	0	
1	0	0	0	0	556	398	0	0	0	0	
2	0	0	0	0	551	393	0	0	0	0	
3	0	0	0	0	545	389	0	0	0	0	
4	0	0	0	0	543	387	0	0	0	0	
5	0	0	0	0	542	387	0	0	0	0	
6	0	0	0	0	543	388	0	0	0	0	
7	0	0	0	0	547	392	0	0	0	0	
8	0	0	0	0	553	398	0	0	0	0	
9	0	0	0	0	560	405	0	0	0	0	
10	0	0	0	0	568	413	0	0	0	0	
11	0	0	0	0	576	421	0	0	0	0	
12	0	0	0	0	585	428	0	0	0	0	
13	0	0	0	0	591	435	0	0	0	0	
14	0	0	0	0	598	441	0	0	0	0	
15	0	0	0	0	603	446	0	0	0	0	
0	0	0	0	0	606	449	0	0	0	0	
1	0	0	0	0	608	452	0	0	0	0	
2	0	0	0	0	610	453	0	0	0	0	
3	0	0	0	0	609	454	0	0	0	0	
4	0	0	0	0	608	452	0	0	0	0	
5	0	0	0	0	604	449	0	0	0	0	
6	0	0	0	0	598	444	0	0	0	0	
7	0	0	0	0	591	437	0	0	0	0	
8	0	0	0	0	582	429	0	0	0	0	
9	0	0	0	0	572	421	0	0	0	0	
10	0	0	0	0	562	412	0	0	0	0	
11	0	0	0	0	552	404	0	0	0	0	
12	0	0	0	0	544	396	0	0	0	0	
13	0	0	0	0	537	391	0	0	0	0	
14	0	0	0	0	532	387	0	0	0	0	
15	0	0	0	0	529	384	0	0	0	0	
0	0	0	0	0	527	384	0	0	0	0	
1	0	0	0	0	529	384	0	0	0	0	
2	0	0	0	0	531	387	0	0	0	0	
3	0	0	0	0	535	390	0	0	0	0	
4	0	0	0	0	540	393	0	0	0	0	
5	0	0	0	0	545	397	0	0	0	0	
6	0	0	0	0	551	401	0	0	0	0	
7	0	0	0	0	557	406	0	0	0	0	
8	0	0	0	0	562	409	0	0	0	0	
9	0	0	0	0	567	413	0	0	0	0	
10	0	0	0	0	571	417	0	0	0	0	
11	0	0	0	0	574	419	0	0	0	0	
12	0	0	0	0	576	422	0	0	0	0	
13	0	0	0	0	578	423	0	0	0	0	
14	0	0	0	0	578	425	0	0	0	0	
15	0	0	0	0	579	426	0	0	0	0	
0	0	0	0	0	579	427	0	0	0	0	
1	0	0	0	0	578	427	0	0	0	0	
2	0	0	0	0	577	428	0	0	0	0	
3	0	0	0	0	576	428	0	0	0	0	
4	0	0	0	0	575	427	0	0	0	0	
5	0	0	0	0	573	426	0	0	0	0	
6	0	0	0	0	570	424	0	0	0	0	
7	0	0	0	0	568	422	0	0	0	0	
8	0	0	0	0	564	418	0	0	0	0	
9	0	0	0	0	560	414	0	0	0	0	
10	0	0	0	0	558	409	0	0	0	0	
11	0	0	0	0	555	406	0	0	0	0	
12	0	0	0	0	552	402	0	0	0	0	
13	0	0	0	0	551	400	0	0	0	0	
14	0	0	0	0	551	398	0	0	0	0	
15	0	0	0	0	551	398	0	0	0	0	
0	0	0	0	0	553	399	0	0	0	0	
1	0	0	0	0	555	400	0	0	0	0	
2	0	0	0	0	558	402	0	0	0	0	
3	0	0	0	0	560	405	0	0	0	0	
4	0	0	0	0	564	409	0	0	0	0	
5	0	0	0	0	568	413	0	0	0	0	
6	0	0	0	0	571	417	0	0	0	0	
7	0	0	0	0	574	422	0	0	0	0	
8	0	0	0	0	576	425	0	0	0	0	
9	0	0	0	0	578	428	0	0	0	0	
10	0	0	0	0	579	430	0	0	0	0	
11	0	0	0	0	578	431	0	0	0	0	
12	0	0	0	0	576	430	0	0	0	0	
13	0	0	0	0	574	428	0	0	0	0	
14	0	0	0	0	571	425	0	0	0	0	
15	0	0	0	0	568	422	0	0	0	0	
0	0	0	0	0	564	418	0	0	0	0	
1	0	0	0	0	561	414	0	0	0	0	
2	0	0	0	0	558	411	0	0	0	0	
3	0	0	0	0	557	408	0	0	0	0	
4	0	0	0	0	556	406	0	0	0	0	
5	0	0	0	0	557	406	0	0	0	0	
6	0	0	0	0	559	407	0	0	0	0	
7	0	0	0	0	562	408	0	0	0	0	
8	0	0	0	0	566	413	0	0	0	0	
9	0	0	0	0	572	418	0	0	0	0	
10	0	0	0	0	580	425	0	0	0	0	
11	0	0	0	0	588	433	0	0	0	0	
12	0	0	0	0	596	440	0	0	0	0	
13	0	0	0	0	604	448	0	0	0	0	
14	0	0	0	0	611	454	0	0	0	0	
15	0	0	0	0	615	458	0	0	0	0	
0	0	0	0	0	617	459	0	0	0	0	
1	0	0	0	0	615	457	0	0	0	0	
2	0	0	0	0	609	451	0	0	0	0	
3	0	0	0	0	600	443	0	0	0	0	
4	0	0	0	0	587	432	0	0	0	0	
5	0	0	0	0	571	417	0	0	0	0	
6	0	0	0	0	553	403	0	0	0	0	
7	0	0	0	0	536	388	0	0	0	0	
8	0	0	0	0	520	374	0	0	0	0	
9	0	0	0	0	507	362	0	0	0	0	
10	0	0	0	0	496	353	0	0	0	0	
11	0	0	0	0	489	347	0	0	0	0	
12	0	0	0	0	487	344	0	0	0	0	
13	0	0	0	0	489	344	0	0	0	0	
14	0	0	0	0	494	348	0	0	0	0	
15	0	0	0	0	502	353	0	0	0	0	
0	0	0	0	0	512	360	0	0	0	0	
1	0	0	0	0	523	368	0	0	0	0	
2	0	0	0	0	534	376	0	0	0	0	
3	0	0	0	0	544	383	0	0	0	0	
4	0	0	0	0	552	388	0	0	0	0	
5	0	0	0	0	558	393	0	0	0	0	
6	0	0	0	0	562	396	0	0	0	0	
7	0	0	0	0	564	396	0	0	0	0	
8	0	0	0	0	564	396	0	0	0	0	
9	0	0	0	0	562	394	0	0	0	0	
10	0	0	0	0	558	391	0	0	0	0	
11	0	0	0	0	554	387	0	0	0	0	
12	0	0	0	0	548	384	0	0	0	0	
13	0	0	0	0	543	380	0	0	0	0	
14	0	0	0	0	539	377	0	0	0	0	
15	0	0	0	0	536	376	0	0	0	0	
0	0	0	0	0	535	376	0	0	0	0	
1	0	0	0	0	535	377	0	0	0	0	
2	0	0	0	0	537	380	0	0	0	0	
3	0	0	0	0	540	384	0	0	0	0	
4	0	0	0	0	544	387	0	0	0	0	
5	0	0	0	0	548	391	0	0	0	0	
6	0	0	0	0	552	395	0	0	0	0	
7	0	0	0	0	556	398	0	0	0	0	
8	0	0	0	0	560	400	0	0	0	0	
9	0	0	0	0	563	403	0	0	0	0	
10	0	0	0	0	566	404	0	0	0	0	
11	0	0	0	0	568	404	0	0	0	0	
12	0	0	0	0	569	404	0	0	0	0	
13	0	0	0	0	569	403	0	0	0	0	
14	0	0	0	0	569	401	0	0	0	0	
15	0	0	0	0	568	399	0	0	0	0	
0	0	0	0	0	566	397	0	0	0	0	
1	0	0	0	0	564	395	0	0	0	0	
2	0	0	0	0	562	393	0	0	0	0	
3	0	0	0	0	560	391	0	0	0	0	
4	0	0	0	0	558	389	0	0	0	0	
5	0	0	0	0	556	388	0	0	0	0	
6	0	0	0	0	555	388	0	0	0	0	
7	0	0	0	0	553	387	0	0	0	0	
8	0	0	0	0	552	385	0	0	0	0	
9	0	0	0	0	550	384	0	0	0	0	
10	0	0	0	0	547	381	0	0	0	0	
11	0	0	0	0	544	379	0	0	0	0	
12	0	0	0	0	542	376	0	0	0	0	
13	0	0	0	0	539	373	0	0	0	0	
14	0	0	0	0	538	371	0	0	0	0	
15	0	0	0	0	537	370	0	0	0	0	
0	0	0	0	0	538	370	0	0	0	0	
1	0	0	0	0	541	371	0	0	0	0	
2	0	0	0	0	545	375	0	0	0	0	
3	0	0	0	0	551	380	0	0	0	0	
4	0	0	0	0	559	386	0	0	0	0	
5	0	0	0	0	568	394	0	0	0	0	
6	0	0	0	0	578	403	0	0	0	0	
7	0	0	0	0	587	412	0	0	0	0	
8	0	0	0	0	595	420	0	0	0	0	
9	0	0	0	0	604	427	0	0	0	0	
10	0	0	0	0	609	434	0	0	0	0	
11	0	0	0	0	614	438	0	0	0	0	
12	0	0	0	0	615	441	0	0	0	0	
13	0	0	0	0	615	441	0	0	0	0	
14	0	0	0	0	612	439	0	0	0	0	
15	0	0	0	0	608	435	0	0	0	0	
0	0	0	0	0	601	430	0	0	0	0	
1	0	0	0	0	593	423	0	0	0	0	
2	0	0	0	0	585	415	0	0	0	0	
3	0	0	0	0	575	406	0	0	0	0	
4	0	0	0	0	565	396	0	0	0	0	
5	0	0	0	0	554	385	0	0	0	0	
6	0	0	0	0	543	374	0	0	0	0	
7	0	0	0	0	532	363	0	0	0	0	
8	0	0	0	0	520	352	0	0	0	0	
9	0	0	0	0	510	341	0	0	0	0	
10	0	0	0	0	498	330	0	0	0	0	
11	0	0	0	0	487	319	0	0	0	0	
12	0	0	0	0	477	309	0	0	0	0	
13	0	0	0	0	467	299	0	0	0	0	
14	0	0	0	0	458	289	0	0	0	0	
15	0	0	0	0	449	279	0	0	0	0	
0	0	0	0	0	439	268	0	0	0	0	
1	0	0	0	0	428	256	0	0	0	0	
2	0	0	0	0	415	243	0	0	0	0	
3	0	0	0	0	401	227	0	0	0	0	
4	0	0	0	0	385	211	0	0	0	0	
5	0	0	0	0	367	194	0	0	0	0	
6	0	0	0	0	348	176	0	0	0	0	
7	0	0	0	0	330	158	0	0	0	0	
8	0	0	0	0	312	141	0	0	0	0	
9	0	0	0	0	296	125	0	0	0	0	
10	0	0	0	0	282	111	0	0	0	0	
11	0	0	0	0	271	100	0	0	0	0	
12	0	0	0	0	263	93	0	0	0	0	
13	0	0	0	0	260	89	0	0	0	0	
14	0	0	0	0	261	90	0	0	0	0	
15	0	0	0	0	267	94	0	0	0	0	
0	0	0	0	0	277	103	0	0	0	0	
1	0	0	0	0	291	115	0	0	0	0	
2	0	0	0	0	311	131	0	0	0	0	
3	0	0	0	0	332	150	0	0	0	0	
4	0	0	0	0	357	172	0	0	0	0	
5	0	0	0	0	384	195	0	0	0	0	
6	0	0	0	0	412	220	0	0	0	0	
7	0	0	0	0	440	246	0	0	0	0	
8	0	0	0	0	468	271	0	0	0	0	
9	0	0	0	0	495	296	0	0	0	0	
10	0	0	0	0	519	320	0	0	0	0	
11	0	0	0	0	542	342	0	0	0	0	
12	0	0	0	0	560	362	0	0	0	0	
13	0	0	0	0	575	379	0	0	0	0	
14	0	0	0	0	585	391	0	0	0	0	
15	0	0	0	0	591	401	0	0	0	0	
0	0	0	0	0	593	408	0	0	0	0	
1	0	0	0	0	591	411	0	0	0	0	
2	0	0	0	0	588	412	0	0	0	0	
3	0	0	0	0	582	410	0	0	0	0	
4	0	0	0	0	575	407	0	0	0	0	
5	0	0	0	0	568	403	0	0	0	0	
6	0	0	0	0	561	400	0	0	0	0	
7	0	0	0	0	556	397	0	0	0	0	
8	0	0	0	0	553	396	0	0	0	0	
9	0	0	0	0	553	396	0	0	0	0	
10	0	0	0	0	555	397	0	0	0	0	
11	0	0	0	0	558	399	0	0	0	0	
12	0	0	0	0	563	402	0	0	0	0	
13	0	0	0	0	568	404	0	0	0	0	
14	0	0	0	0	573	406	0	0	0	0	
15	0	0	0	0	577	408	0	0	0	0	
0	0	0	0	0	580	408	0	0	0	0	
1	0	0	0	0	580	407	0	0	0	0	
2	0	0	0	0	578	404	0	0	0	0	
3	0	0	0	0	574	400	0	0	0	0	
4	0	0	0	0	568	394	0	0	0	0	
5	0	0	0	0	560	388	0	0	0	0	
6	0	0	0	0	553	382	0	0	0	0	
7	0	0	0	0	547	377	0	0	0	0	
8	0	0	0	0	541	375	0	0	0	0	
9	0	0	0	0	539	374	0	0	0	0	
10	0	0	0	0	539	376	0	0	0	0	
11	0	0	0	0	542	380	0	0	0	0	
12	0	0	0	0	546	385	0	0	0	0	
13	0	0	0	0	553	392	0	0	0	0	
14	0	0	0	0	561	400	0	0	0	0	
15	0	0	0	0	569	407	0	0	0	0	
0	0	0	0	0	577	413	0	0	0	0	
1	0	0	0	0	582	417	0	0	0	0	
2	0	0	0	0	585	419	0	0	0	0	
3	0	0	0	0	586	418	0	0	0	0	
4	0	0	0	0	584	416	0	0	0	0	
5	0	0	0	0	581	413	0	0	0	0	
6	0	0	0	0	576	408	0	0	0	0	
7	0	0	0	0	571	404	0	0	0	0	
8	0	0	0	0	566	400	0	0	0	0	
9	0	0	0	0	562	398	0	0	0	0	
10	0	0	0	0	559	396	0	0	0	0	
11	0	0	0	0	557	396	0	0	0	0	
12	0	0	0	0	556	396	0	0	0	0	
13	0	0	0	0	558	399	0	0	0	0	
14	0	0	0	0	560	402	0	0	0	0	
15	0	0	0	0	563	405	0	0	0	0	
0	0	0	0	0	567	408	0	0	0	0	
1	0	0	0	0	571	412	0	0	0	0	
2	0	0	0	0	574	414	0	0	0	0	
3	0	0	0	0	576	415	0	0	0	0	
4	0	0	0	0	577	415	0	0	0	0	
5	0	0	0	0	576	414	0	0	0	0	
6	0	0	0	0	574	411	0	0	0	0	
7	0	0	0	0	572	407	0	0	0	0	
8	0	0	0	0	568	403	0	0	0	0	
9	0	0	0	0	563	399	0	0	0	0	
10	0	0	0	0	559	394	0	0	0	0	
11	0	0	0	0	554	390	0	0	0	0	
12	0	0	0	0	550	386	0	0	0	0	
13	0	0	0	0	547	383	0	0	0	0	
14	0	0	0	0	546	382	0	0	0	0	
15	0	0	0	0	546	382	0	0	0	0	
0	0	0	0	0	547	383	0	0	0	0	
1	0	0	0	0	551	385	0	0	0	0	
2	0	0	0	0	555	389	0	0	0	0	
3	0	0	0	0	560	393	0	0	0	0	
4	0	0	0	0	564	397	0	0	0	0	
5	0	0	0	0	570	401	0	0	0	0	
6	0	0	0	0	574	405	0	0	0	0	
7	0	0	0	0	577	408	0	0	0	0	
8	0	0	0	0	579	410	0	0	0	0	
9	0	0	0	0	580	411	0	0	0	0	
10	0	0	0	0	581	412	0	0	0	0	
11	0	0	0	0	581	412	0	0	0	0	
12	0	0	0	0	581	412	0	0	0	0	
13	0	0	0	0	580	412	0	0	0	0	
14	0	0	0	0	579	412	0	0	0	0	
15	0	0	0	0	579	411	0	0	0	0	
0	0	0	0	0	578	409	0	0	0	0	
1	0	0	0	0	576	408	0	0	0	0	
2	0	0	0	0	574	406	0	0	0	0	
3	0	0	0	0	571	404	0	0	0	0	
4	0	0	0	0	567	401	0	0	0	0	
5	0	0	0	0	563	397	0	0	0	0	
6	0	0	0	0	558	393	0	0	0	0	
7	0	0	0	0	551	388	0	0	0	0	
8	0	0	0	0	545	383	0	0	0	0	
9	0	0	0	0	539	377	0	0	0	0	
10	0	0	0	0	533	371	0	0	0	0	
11	0	0	0	0	528	367	0	0	0	0	
12	0	0	0	0	524	362	0	0	0	0	
13	0	0	0	0	522	361	0	0	0	0	
14	0	0	0	0	523	360	0	0	0	0	
15	0	0	0	0	526	362	0	0	0	0	
0	0	0	0	0	531	366	0	0	0	0	
1	0	0	0	0	539	371	0	0	0	0	
2	0	0	0	0	547	378	0	0	0	0	
3	0	0	0	0	556	385	0	0	0	0	
4	0	0	0	0	566	393	0	0	0	0	
5	0	0	0	0	574	400	0	0	0	0	
6	0	0	0	0	580	407	0	0	0	0	
7	0	0	0	0	585	413	0	0	0	0	
8	0	0	0	0	589	417	0	0	0	0	
9	0	0	0	0	590	419	0	0	0	0	
10	0	0	0	0	590	422	0	0	0	0	
11	0	0	0	0	588	422	0	0	0	0	
12	0	0	0	0	585	420	0	0	0	0	
13	0	0	0	0	581	418	0	0	0	0	
14	0	0	0	0	575	414	0	0	0	0	
15	0	0	0	0	569	409	0	0	0	0	
0	0	0	0	0	562	404	0	0	0	0	
1	0	0	0	0	555	397	0	0	0	0	
2	0	0	0	0	548	391	0	0	0	0	
3	0	0	0	0	542	384	0	0	0	0	
4	0	0	0	0	537	379	0	0	0	0	
5	0	0	0	0	533	375	0	0	0	0	
6	0	0	0	0	531	371	0	0	0	0	
7	0	0	0	0	529	370	0	0	0	0	
8	0	0	0	0	529	369	0	0	0	0	
9	0	0	0	0	531	370	0	0	0	0	
10	0	0	0	0	533	372	0	0	0	0	
11	0	0	0	0	536	376	0	0	0	0	
12	0	0	0	0	539	380	0	0	0	0	
13	0	0	0	0	544	384	0	0	0	0	
14	0	0	0	0	549	390	0	0	0	0	
15	0	0	0	0	555	396	0	0	0	0	
0	0	0	0	0	561	403	0	0	0	0	
1	0	0	0	0	566	409	0	0	0	0	
2	0	0	0	0	572	415	0	0	0	0	
3	0	0	0	0	576	420	0	0	0	0	
4	0	0	0	0	579	423	0	0	0	0	
5	0	0	0	0	581	425	0	0	0	0	
6	0	0	0	0	580	425	0	0	0	0	
7	0	0	0	0	579	423	0	0	0	0	
8	0	0	0	0	575	420	0	0	0	0	
9	0	0	0	0	569	415	0	0	0	0	
10	0	0	0	0	563	409	0	0	0	0	
11	0	0	0	0	556	402	0	0	0	0	
12	0	0	0	0	550	396	0	0	0	0	
13	0	0	0	0	544	391	0	0	0	0	
14	0	0	0	0	540	387	0	0	0	0	
15	0	0	0	0	537	384	0	0	0	0	
0	0	0	0	0	536	382	0	0	0	0	
1	0	0	0	0	536	382	0	0	0	0	
2	0	0	0	0	537	382	0	0	0	0	
3	0	0	0	0	538	383	0	0	0	0	
4	0	0	0	0	541	385	0	0	0	0	
5	0	0	0	0	543	387	0	0	0	0	
6	0	0	0	0	545	388	0	0	0	0	
7	0	0	0	0	546	389	0	0	0	0	
8	0	0	0	0	546	390	0	0	0	0	
9	0	0	0	0	546	390	0	0	0	0	
10	0	0	0	0	545	389	0	0	0	0	
11	0	0	0	0	545	388	0	0	0	0	
12	0	0	0	0	544	388	0	0	0	0	
13	0	0	0	0	544	388	0	0	0	0	
14	0	0	0	0	544	387	0	0	0	0	
15	0	0	0	0	543	386	0	0	0	0	
0	0	0	0	0	542	385	0	0	0	0	
1	0	0	0	0	540	383	0	0	0	0	
2	0	0	0	0	537	380	0	0	0	0	
3	0	0	0	0	534	377	0	0	0	0	
4	0	0	0	0	531	375	0	0	0	0	
5	0	0	0	0	527	372	0	0	0	0	
6	0	0	0	0	525	370	0	0	0	0	
7	0	0	0	0	523	369	0	0	0	0	
8	0	0	0	0	522	369	0	0	0	0	
9	0	0	0	0	524	371	0	0	0	0	
10	0	0	0	0	526	373	0	0	0	0	
11	0	0	0	0	529	377	0	0	0	0	
12	0	0	0	0	534	381	0	0	0	0	
13	0	0	0	0	538	386	0	0	0	0	
14	0	0	0	0	544	391	0	0	0	0	
15	0	0	0	0	549	396	0	0	0	0	
0	0	0	0	0	554	400	0	0	0	0	
1	0	0	0	0	559	404	0	0	0	0	
2	0	0	0	0	562	408	0	0	0	0	
3	0	0	0	0	565	410	0	0	0	0	
4	0	0	0	0	567	412	0	0	0	0	
5	0	0	0	0	567	414	0	0	0	0	
6	0	0	0	0	567	415	0	0	0	0	
7	0	0	0	0	566	415	0	0	0	0	
8	0	0	0	0	566	415	0	0	0	0	
9	0	0	0	0	565	416	0	0	0	0	
10	0	0	0	0	565	417	0	0	0	0	
11	0	0	0	0	567	420	0	0	0	0	
12	0	0	0	0	568	423	0	0	0	0	
13	0	0	0	0	573	427	0	0	0	0	
14	0	0	0	0	578	432	0	0	0	0	
15	0	0	0	0	583	436	0	0	0	0	
0	0	0	0	0	586	439	0	0	0	0	
1	0	0	0	0	587	440	0	0	0	0	
2	0	0	0	0	586	438	0	0	0	0	
3	0	0	0	0	582	433	0	0	0	0	
4	0	0	0	0	574	426	0	0	0	0	
5	0	0	0	0	564	417	0	0	0	0	
6	0	0	0	0	553	407	0	0	0	0	
7	0	0	0	0	542	397	0	0	0	0	
8	0	0	0	0	531	388	0	0	0	0	
9	0	0	0	0	522	380	0	0	0	0	
10	0	0	0	0	514	374	0	0	0	0	
11	0	0	0	0	509	370	0	0	0	0	
12	0	0	0	0	507	368	0	0	0	0	
13	0	0	0	0	507	369	0	0	0	0	
14	0	0	0	0	510	373	0	0	0	0	
15	0	0	0	0	515	377	0	0	0	0	
0	0	0	0	0	520	383	0	0	0	0	
1	0	0	0	0	528	389	0	0	0	0	
2	0	0	0	0	536	395	0	0	0	0	
3	0	0	0	0	543	401	0	0	0	0	
4	0	0	0	0	550	407	0	0	0	0	
5	0	0	0	0	556	412	0	0	0	0	
6	0	0	0	0	561	416	0	0	0	0	
7	0	0	0	0	564	419	0	0	0	0	
8	0	0	0	0	565	420	0	0	0	0	
9	0	0	0	0	564	420	0	0	0	0	
10	0	0	0	0	561	418	0	0	0	0	
11	0	0	0	0	556	415	0	0	0	0	
12	0	0	0	0	551	411	0	0	0	0	
13	0	0	0	0	544	407	0	0	0	0	
14	0	0	0	0	538	403	0	0	0	0	
15	0	0	0	0	532	399	0	0	0	0	
0	0	0	0	0	527	396	0	0	0	0	
1	0	0	0	0	524	394	0	0	0	0	
2	0	0	0	0	522	393	0	0	0	0	
3	0	0	0	0	523	395	0	0	0	0	
4	0	0	0	0	527	398	0	0	0	0	
5	0	0	0	0	533	403	0	0	0	0	
6	0	0	0	0	542	411	0	0	0	0	
7	0	0	0	0	553	420	0	0	0	0	
8	0	0	0	0	565	430	0	0	0	0	
9	0	0	0	0	578	440	0	0	0	0	
10	0	0	0	0	590	450	0	0	0	0	
11	0	0	0	0	600	457	0	0	0	0	
12	0	0	0	0	606	462	0	0	0	0	
13	0	0	0	0	608	463	0	0	0	0	
14	0	0	0	0	606	462	0	0	0	0	
15	0	0	0	0	600	457	0	0	0	0	
0	0	0	0	0	590	449	0	0	0	0	
1	0	0	0	0	577	438	0	0	0	0	
2	0	0	0	0	562	426	0	0	0	0	
3	0	0	0	0	545	413	0	0	0	0	
4	0	0	0	0	528	399	0	0	0	0	
5	0	0	0	0	513	387	0	0	0	0	
6	0	0	0	0	500	376	0	0	0	0	
7	0	0	0	0	489	368	0	0	0	0	
8	0	0	0	0	483	362	0	0	0	0	
9	0	0	0	0	479	359	0	0	0	0	
10	0	0	0	0	480	358	0	0	0	0	
11	0	0	0	0	483	360	0	0	0	0	
12	0	0	0	0	489	364	0	0	0	0	
13	0	0	0	0	498	371	0	0	0	0	
14	0	0	0	0	508	379	0	0	0	0	
15	0	0	0	0	519	387	0	0	0	0	
0	0	0	0	0	531	396	0	0	0	0	
1	0	0	0	0	541	405	0	0	0	0	
2	0	0	0	0	550	413	0	0	0	0	
3	0	0	0	0	559	421	0	0	0	0	
4	0	0	0	0	565	427	0	0	0	0	
5	0	0	0	0	569	432	0	0	0	0	
6	0	0	0	0	572	435	0	0	0	0	
7	0	0	0	0	572	437	0	0	0	0	
8	0	0	0	0	571	438	0	0	0	0	
9	0	0	0	0	568	438	0	0	0	0	
10	0	0	0	0	566	437	0	0	0	0	
11	0	0	0	0	562	435	0	0	0	0	
12	0	0	0	0	558	433	0	0	0	0	
13	0	0	0	0	554	432	0	0	0	0	
14	0	0	0	0	551	430	0	0	0	0	
15	0	0	0	0	548	428	0	0	0	0	
0	0	0	0	0	547	427	0	0	0	0	
1	0	0	0	0	546	426	0	0	0	0	
2	0	0	0	0	546	426	0	0	0	0	
3	0	0	0	0	547	427	0	0	0	0	
4	0	0	0	0	549	428	0	0	0	0	
5	0	0	0	0	551	430	0	0	0	0	
6	0	0	0	0	553	431	0	0	0	0	
7	0	0	0	0	555	432	0	0	0	0	
8	0	0	0	0	556	433	0	0	0	0	
9	0	0	0	0	557	433	0	0	0	0	
10	0	0	0	0	559	435	0	0	0	0	
11	0	0	0	0	560	436	0	0	0	0	
12	0	0	0	0	561	438	0	0	0	0	
13	0	0	0	0	563	441	0	0	0	0	
14	0	0	0	0	565	444	0	0	0	0	
15	0	0	0	0	567	447	0	0	0	0	
0	0	0	0	0	569	451	0	0	0	0	
1	0	0	0	0	570	454	0	0	0	0	
2	0	0	0	0	571	455	0	0	0	0	
3	0	0	0	0	571	456	0	0	0	0	
4	0	0	0	0	569	455	0	0	0	0	
5	0	0	0	0	567	453	0	0	0	0	
6	0	0	0	0	561	449	0	0	0	0	
7	0	0	0	0	556	444	0	0	0	0	
8	0	0	0	0	550	438	0	0	0	0	
9	0	0	0	0	543	431	0	0	0	0	
10	0	0	0	0	536	424	0	0	0	0	
11	0	0	0	0	530	418	0	0	0	0	
12	0	0	0	0	524	413	0	0	0	0	
13	0	0	0	0	519	408	0	0	0	0	
14	0	0	0	0	515	405	0	0	0	0	
15	0	0	0	0	513	403	0	0	0	0	
0	0	0	0	0	512	402	0	0	0	0	
1	0	0	0	0	512	403	0	0	0	0	
2	0	0	0	0	514	404	0	0	0	0	
3	0	0	0	0	516	406	0	0	0	0	
4	0	0	0	0	519	408	0	0	0	0	
5	0	0	0	0	521	411	0	0	0	0	
6	0	0	0	0	524	413	0	0	0	0	
7	0	0	0	0	527	415	0	0	0	0	
8	0	0	0	0	529	417	0	0	0	0	
9	0	0	0	0	531	418	0	0	0	0	
10	0	0	0	0	533	420	0	0	0	0	
11	0	0	0	0	536	422	0	0	0	0	
12	0	0	0	0	538	424	0	0	0	0	
13	0	0	0	0	540	427	0	0	0	0	
14	0	0	0	0	543	430	0	0	0	0	
15	0	0	0	0	545	433	0	0	0	0	
0	0	0	0	0	548	435	0	0	0	0	
1	0	0	0	0	550	438	0	0	0	0	
2	0	0	0	0	551	440	0	0	0	0	
3	0	0	0	0	551	441	0	0	0	0	
4	0	0	0	0	550	441	0	0	0	0	
5	0	0	0	0	548	440	0	0	0	0	
6	0	0	0	0	545	439	0	0	0	0	
7	0	0	0	0	543	437	0	0	0	0	
8	0	0	0	0	539	435	0	0	0	0	
9	0	0	0	0	536	432	0	0	0	0	
10	0	0	0	0	532	430	0	0	0	0	
11	0	0	0	0	529	428	0	0	0	0	
12	0	0	0	0	526	425	0	0	0	0	
13	0	0	0	0	525	425	0	0	0	0	
14	0	0	0	0	525	425	0	0	0	0	
15	0	0	0	0	527	425	0	0	0	0	
0	0	0	0	0	530	428	0	0	0	0	
1	0	0	0	0	534	431	0	0	0	0	
2	0	0	0	0	539	434	0	0	0	0	
3	0	0	0	0	544	438	0	0	0	0	
4	0	0	0	0	551	443	0	0	0	0	
5	0	0	0	0	557	448	0	0	0	0	
6	0	0	0	0	563	452	0	0	0	0	
7	0	0	0	0	567	457	0	0	0	0	
8	0	0	0	0	571	461	0	0	0	0	
9	0	0	0	0	574	463	0	0	0	0	
10	0	0	0	0	574	464	0	0	0	0	
11	0	0	0	0	572	463	0	0	0	0	
12	0	0	0	0	568	460	0	0	0	0	
13	0	0	0	0	562	455	0	0	0	0	
14	0	0	0	0	553	448	0	0	0	0	
15	0	0	0	0	543	440	0	0	0	0	
0	0	0	0	0	534	432	0	0	0	0	
1	0	0	0	0	524	423	0	0	0	0	
2	0	0	0	0	515	416	0	0	0	0	
3	0	0	0	0	508	411	0	0	0	0	
4	0	0	0	0	504	407	0	0	0	0	
5	0	0	0	0	502	405	0	0	0	0	
6	0	0	0	0	503	405	0	0	0	0	
7	0	0	0	0	505	408	0	0	0	0	
8	0	0	0	0	510	411	0	0	0	0	
9	0	0	0	0	515	415	0	0	0	0	
10	0	0	0	0	521	419	0	0	0	0	
11	0	0	0	0	527	424	0	0	0	0	
12	0	0	0	0	532	429	0	0	0	0	
13	0	0	0	0	537	433	0	0	0	0	
14	0	0	0	0	541	436	0	0	0	0	
15	0	0	0	0	543	439	0	0	0	0	
0	0	0	0	0	544	440	0	0	0	0	
1	0	0	0	0	543	440	0	0	0	0	
2	0	0	0	0	542	438	0	0	0	0	
3	0	0	0	0	539	436	0	0	0	0	
4	0	0	0	0	535	433	0	0	0	0	
5	0	0	0	0	531	430	0	0	0	0	
6	0	0	0	0	526	427	0	0	0	0	
7	0	0	0	0	522	423	0	0	0	0	
8	0	0	0	0	519	421	0	0	0	0	
9	0	0	0	0	516	419	0	0	0	0	
10	0	0	0	0	515	417	0	0	0	0	
11	0	0	0	0	515	417	0	0	0	0	
12	0	0	0	0	515	418	0	0	0	0	
13	0	0	0	0	518	421	0	0	0	0	
14	0	0	0	0	521	424	0	0	0	0	
15	0	0	0	0	526	429	0	0	0	0	
0	0	0	0	0	532	435	0	0	0	0	
1	0	0	0	0	537	440	0	0	0	0	
2	0	0	0	0	542	445	0	0	0	0	
3	0	0	0	0	547	449	0	0	0	0	
4	0	0	0	0	550	452	0	0	0	0	
5	0	0	0	0	551	454	0	0	0	0	
6	0	0	0	0	551	454	0	0	0	0	
7	0	0	0	0	550	452	0	0	0	0	
8	0	0	0	0	547	449	0	0	0	0	
9	0	0	0	0	543	446	0	0	0	0	
10	0	0	0	0	539	442	0	0	0	0	
11	0	0	0	0	536	439	0	0	0	0	
12	0	0	0	0	534	436	0	0	0	0	
13	0	0	0	0	533	436	0	0	0	0	
14	0	0	0	0	534	436	0	0	0	0	
15	0	0	0	0	536	440	0	0	0	0	
0	0	0	0	0	541	444	0	0	0	0	
1	0	0	0	0	548	451	0	0	0	0	
2	0	0	0	0	555	459	0	0	0	0	
3	0	0	0	0	561	466	0	0	0	0	
4	0	0	0	0	567	472	0	0	0	0	
5	0	0	0	0	570	475	0	0	0	0	
6	0	0	0	0	571	477	0	0	0	0	
7	0	0	0	0	569	476	0	0	0	0	
8	0	0	0	0	564	472	0	0	0	0	
9	0	0	0	0	557	467	0	0	0	0	
10	0	0	0	0	548	460	0	0	0	0	
11	0	0	0	0	540	452	0	0	0	0	
12	0	0	0	0	531	445	0	0	0	0	
13	0	0	0	0	523	439	0	0	0	0	
14	0	0	0	0	518	434	0	0	0	0	
15	0	0	0	0	515	432	0	0	0	0	
0	0	0	0	0	514	431	0	0	0	0	
1	0	0	0	0	516	432	0	0	0	0	
2	0	0	0	0	520	434	0	0	0	0	
3	0	0	0	0	524	438	0	0	0	0	
4	0	0	0	0	530	442	0	0	0	0	
5	0	0	0	0	535	447	0	0	0	0	
6	0	0	0	0	539	451	0	0	0	0	
7	0	0	0	0	541	454	0	0	0	0	
8	0	0	0	0	541	455	0	0	0	0	
9	0	0	0	0	541	455	0	0	0	0	
10	0	0	0	0	539	455	0	0	0	0	
11	0	0	0	0	536	453	0	0	0	0	
12	0	0	0	0	532	451	0	0	0	0	
13	0	0	0	0	528	448	0	0	0	0	
14	0	0	0	0	526	446	0	0	0	0	
15	0	0	0	0	524	444	0	0	0	0	
0	0	0	0	0	523	441	0	0	0	0	
1	0	0	0	0	522	440	0	0	0	0	
2	0	0	0	0	523	440	0	0	0	0	
3	0	0	0	0	524	440	0	0	0	0	
4	0	0	0	0	526	440	0	0	0	0	
5	0	0	0	0	528	440	0	0	0	0	
6	0	0	0	0	530	441	0	0	0	0	
7	0	0	0	0	532	441	0	0	0	0	
8	0	0	0	0	534	442	0	0	0	0	
9	0	0	0	0	536	443	0	0	0	0	
10	0	0	0	0	536	444	0	0	0	0	
11	0	0	0	0	537	445	0	0	0	0	
12	0	0	0	0	537	446	0	0	0	0	
13	0	0	0	0	536	447	0	0	0	0	
14	0	0	0	0	536	448	0	0	0	0	
15	0	0	0	0	534	448	0	0	0	0	
0	0	0	0	0	533	448	0	0	0	0	
1	0	0	0	0	531	448	0	0	0	0	
2	0	0	0	0	530	449	0	0	0	0	
3	0	0	0	0	529	449	0	0	0	0	
4	0	0	0	0	529	449	0	0	0	0	
5	0	0	0	0	528	449	0	0	0	0	
6	0	0	0	0	529	449	0	0	0	0	
7	0	0	0	0	530	449	0	0	0	0	
8	0	0	0	0	531	449	0	0	0	0	
9	0	0	0	0	532	450	0	0	0	0	
10	0	0	0	0	534	451	0	0	0	0	
11	0	0	0	0	536	452	0	0	0	0	
12	0	0	0	0	539	454	0	0	0	0	
13	0	0	0	0	540	455	0	0	0	0	
14	0	0	0	0	542	457	0	0	0	0	
15	0	0	0	0	544	459	0	0	0	0	
0	0	0	0	0	546	461	0	0	0	0	
1	0	0	0	0	548	463	0	0	0	0	
2	0	0	0	0	550	465	0	0	0	0	
3	0	0	0	0	551	467	0	0	0	0	
4	0	0	0	0	553	469	0	0	0	0	
5	0	0	0	0	554	470	0	0	0	0	
6	0	0	0	0	555	471	0	0	0	0	
7	0	0	0	0	555	472	0	0	0	0	
8	0	0	0	0	555	472	0	0	0	0	
9	0	0	0	0	555	473	0	0	0	0	
10	0	0	0	0	556	475	0	0	0	0	
11	0	0	0	0	559	478	0	0	0	0	
12	0	0	0	0	561	480	0	0	0	0	
13	0	0	0	0	564	484	0	0	0	0	
14	0	0	0	0	569	489	0	0	0	0	
15	0	0	0	0	574	494	0	0	0	0	
0	0	0	0	0	579	498	0	0	0	0	
1	0	0	0	0	584	503	0	0	0	0	
2	0	0	0	0	588	507	0	0	0	0	
3	0	0	0	0	590	508	0	0	0	0	
4	0	0	0	0	588	508	0	0	0	0	
5	0	0	0	0	585	506	0	0	0	0	
6	0	0	0	0	579	501	0	0	0	0	
7	0	0	0	0	570	494	0	0	0	0	
8	0	0	0	0	559	485	0	0	0	0	
9	0	0	0	0	547	475	0	0	0	0	
10	0	0	0	0	534	464	0	0	0	0	
11	0	0	0	0	521	453	0	0	0	0	
12	0	0	0	0	510	443	0	0	0	0	
13	0	0	0	0	500	434	0	0	0	0	
14	0	0	0	0	493	427	0	0	0	0	
15	0	0	0	0	487	421	0	0	0	0	
0	0	0	0	0	486	418	0	0	0	0	
1	0	0	0	0	487	417	0	0	0	0	
2	0	0	0	0	490	419	0	0	0	0	
3	0	0	0	0	496	422	0	0	0	0	
4	0	0	0	0	504	427	0	0	0	0	
5	0	0	0	0	512	433	0	0	0	0	
6	0	0	0	0	522	441	0	0	0	0	
7	0	0	0	0	531	449	0	0	0	0	
8	0	0	0	0	541	456	0	0	0	0	
9	0	0	0	0	550	464	0	0	0	0	
10	0	0	0	0	557	471	0	0	0	0	
11	0	0	0	0	562	476	0	0	0	0	
12	0	0	0	0	565	480	0	0	0	0	
13	0	0	0	0	567	483	0	0	0	0	
14	0	0	0	0	567	485	0	0	0	0	
15	0	0	0	0	565	485	0	0	0	0	
0	0	0	0	0	562	484	0	0	0	0	
1	0	0	0	0	558	482	0	0	0	0	
2	0	0	0	0	554	479	0	0	0	0	
3	0	0	0	0	549	476	0	0	0	0	
4	0	0	0	0	545	472	0	0	0	0	
5	0	0	0	0	540	469	0	0	0	0	
6	0	0	0	0	537	466	0	0	0	0	
7	0	0	0	0	533	463	0	0	0	0	
8	0	0	0	0	531	461	0	0	0	0	
9	0	0	0	0	530	459	0	0	0	0	
10	0	0	0	0	529	458	0	0	0	0	
11	0	0	0	0	529	459	0	0	0	0	
12	0	0	0	0	531	459	0	0	0	0	
13	0	0	0	0	533	460	0	0	0	0	
14	0	0	0	0	536	463	0	0	0	0	
15	0	0	0	0	539	465	0	0	0	0	
0	0	0	0	0	543	467	0	0	0	0	
1	0	0	0	0	547	471	0	0	0	0	
2	0	0	0	0	551	473	0	0	0	0	
3	0	0	0	0	554	476	0	0	0	0	
4	0	0	0	0	558	479	0	0	0	0	
5	0	0	0	0	561	482	0	0	0	0	
6	0	0	0	0	566	486	0	0	0	0	
7	0	0	0	0	571	491	0	0	0	0	
8	0	0	0	0	576	497	0	0	0	0	
9	0	0	0	0	583	503	0	0	0	0	
10	0	0	0	0	590	510	0	0	0	0	
11	0	0	0	0	597	517	0	0	0	0	
12	0	0	0	0	604	524	0	0	0	0	
13	0	0	0	0	610	530	0	0	0	0	
14	0	0	0	0	615	536	0	0	0	0	
15	0	0	0	0	618	540	0	0	0	0	
0	0	0	0	0	619	541	0	0	0	0	
1	0	0	0	0	615	539	0	0	0	0	
2	0	0	0	0	608	534	0	0	0	0	
3	0	0	0	0	597	524	0	0	0	0	
4	0	0	0	0	583	513	0	0	0	0	
5	0	0	0	0	566	499	0	0	0	0	
6	0	0	0	0	548	484	0	0	0	0	
7	0	0	0	0	531	470	0	0	0	0	
8	0	0	0	0	515	456	0	0	0	0	
9	0	0	0	0	502	445	0	0	0	0	
10	0	0	0	0	492	435	0	0	0	0	
11	0	0	0	0	486	429	0	0	0	0	
12	0	0	0	0	484	426	0	0	0	0	
13	0	0	0	0	486	426	0	0	0	0	
14	0	0	0	0	489	428	0	0	0	0	
15	0	0	0	0	497	432	0	0	0	0	
0	0	0	0	0	505	437	0	0	0	0	
1	0	0	0	0	515	443	0	0	0	0	
2	0	0	0	0	524	449	0	0	0	0	
3	0	0	0	0	531	454	0	0	0	0	
4	0	0	0	0	536	457	0	0	0	0	
5	0	0	0	0	539	459	0	0	0	0	
6	0	0	0	0	538	459	0	0	0	0	
7	0	0	0	0	534	455	0	0	0	0	
8	0	0	0	0	526	448	0	0	0	0	
9	0	0	0	0	514	439	0	0	0	0	
10	0	0	0	0	499	426	0	0	0	0	
11	0	0	0	0	481	411	0	0	0	0	
12	0	0	0	0	461	393	0	0	0	0	
13	0	0	0	0	440	374	0	0	0	0	
14	0	0	0	0	418	354	0	0	0	0	
15	0	0	0	0	396	334	0	0	0	0	
0	0	0	0	0	375	314	0	0	0	0	
1	0	0	0	0	355	295	0	0	0	0	
2	0	0	0	0	337	278	0	0	0	0	
3	0	0	0	0	322	263	0	0	0	0	
4	0	0	0	0	310	249	0	0	0	0	
5	0	0	0	0	300	238	0	0	0	0	
6	0	0	0	0	293	230	0	0	0	0	
7	0	0	0	0	289	224	0	0	0	0	
8	0	0	0	0	289	222	0	0	0	0	
9	0	0	0	0	293	224	0	0	0	0	
10	0	0	0	0	300	228	0	0	0	0	
11	0	0	0	0	310	236	0	0	0	0	
12	0	0	0	0	324	247	0	0	0	0	
13	0	0	0	0	341	262	0	0	0	0	
14	0	0	0	0	362	280	0	0	0	0	
15	0	0	0	0	384	300	0	0	0	0	
0	0	0	0	0	409	323	0	0	0	0	
1	0	0	0	0	437	347	0	0	0	0	
2	0	0	0	0	465	373	0	0	0	0	
3	0	0	0	0	494	400	0	0	0	0	
4	0	0	0	0	522	428	0	0	0	0	
5	0	0	0	0	549	454	0	0	0	0	
6	0	0	0	0	574	479	0	0	0	0	
7	0	0	0	0	596	501	0	0	0	0	
8	0	0	0	0	615	520	0	0	0	0	
9	0	0	0	0	628	535	0	0	0	0	
10	0	0	0	0	636	545	0	0	0	0	
11	0	0	0	0	639	550	0	0	0	0	
12	0	0	0	0	635	550	0	0	0	0	
13	0	0	0	0	626	545	0	0	0	0	
14	0	0	0	0	614	537	0	0	0	0	
15	0	0	0	0	598	527	0	0	0	0	
0	0	0	0	0	581	515	0	0	0	0	
1	0	0	0	0	563	503	0	0	0	0	
2	0	0	0	0	548	491	0	0	0	0	
3	0	0	0	0	535	480	0	0	0	0	
4	0	0	0	0	524	471	0	0	0	0	
5	0	0	0	0	517	464	0	0	0	0	
6	0	0	0	0	514	460	0	0	0	0	
7	0	0	0	0	514	457	0	0	0	0	
8	0	0	0	0	518	458	0	0	0	0	
9	0	0	0	0	524	460	0	0	0	0	
10	0	0	0	0	531	464	0	0	0	0	
11	0	0	0	0	540	468	0	0	0	0	
12	0	0	0	0	548	474	0	0	0	0	
13	0	0	0	0	557	480	0	0	0	0	
14	0	0	0	0	565	486	0	0	0	0	
15	0	0	0	0	571	492	0	0	0	0	
0	0	0	0	0	576	497	0	0	0	0	
1	0	0	0	0	580	501	0	0	0	0	
2	0	0	0	0	582	505	0	0	0	0	
3	0	0	0	0	582	507	0	0	0	0	
4	0	0	0	0	581	508	0	0	0	0	
5	0	0	0	0	578	508	0	0	0	0	
6	0	0	0	0	574	506	0	0	0	0	
7	0	0	0	0	568	503	0	0	0	0	
8	0	0	0	0	561	497	0	0	0	0	
9	0	0	0	0	554	491	0	0	0	0	
10	0	0	0	0	547	484	0	0	0	0	
11	0	0	0	0	539	477	0	0	0	0	
12	0	0	0	0	533	470	0	0	0	0	
13	0	0	0	0	528	464	0	0	0	0	
14	0	0	0	0	525	460	0	0	0	0	
15	0	0	0	0	525	458	0	0	0	0	
0	0	0	0	0	527	459	0	0	0	0	
1	0	0	0	0	532	462	0	0	0	0	
2	0	0	0	0	539	468	0	0	0	0	
3	0	0	0	0	547	476	0	0	0	0	
4	0	0	0	0	557	484	0	0	0	0	
5	0	0	0	0	568	494	0	0	0	0	
6	0	0	0	0	577	503	0	0	0	0	
7	0	0	0	0	586	511	0	0	0	0	
8	0	0	0	0	594	518	0	0	0	0	
9	0	0	0	0	599	524	0	0	0	0	
10	0	0	0	0	603	528	0	0	0	0	
11	0	0	0	0	604	530	0	0	0	0	
12	0	0	0	0	604	531	0	0	0	0	
13	0	0	0	0	603	531	0	0	0	0	
14	0	0	0	0	600	528	0	0	0	0	
15	0	0	0	0	596	527	0	0	0	0	
0	0	0	0	0	592	524	0	0	0	0	
1	0	0	0	0	589	522	0	0	0	0	
2	0	0	0	0	587	520	0	0	0	0	
3	0	0	0	0	584	520	0	0	0	0	
4	0	0	0	0	584	520	0	0	0	0	
5	0	0	0	0	585	522	0	0	0	0	
6	0	0	0	0	587	525	0	0	0	0	
7	0	0	0	0	590	528	0	0	0	0	
8	0	0	0	0	594	531	0	0	0	0	
9	0	0	0	0	598	535	0	0	0	0	
10	0	0	0	0	601	537	0	0	0	0	
11	0	0	0	0	603	539	0	0	0	0	
12	0	0	0	0	604	538	0	0	0	0	
13	0	0	0	0	601	535	0	0	0	0	
14	0	0	0	0	596	529	0	0	0	0	
15	0	0	0	0	588	521	0	0	0	0	
0	0	0	0	0	579	511	0	0	0	0	
1	0	0	0	0	567	500	0	0	0	0	
2	0	0	0	0	554	489	0	0	0	0	
3	0	0	0	0	543	478	0	0	0	0	
4	0	0	0	0	532	469	0	0	0	0	
5	0	0	0	0	524	463	0	0	0	0	
6	0	0	0	0	519	459	0	0	0	0	
7	0	0	0	0	518	457	0	0	0	0	
8	0	0	0	0	519	459	0	0	0	0	
9	0	0	0	0	524	463	0	0	0	0	
10	0	0	0	0	531	470	0	0	0	0	
11	0	0	0	0	540	477	0	0	0	0	
12	0	0	0	0	551	486	0	0	0	0	
13	0	0	0	0	561	495	0	0	0	0	
14	0	0	0	0	571	503	0	0	0	0	
15	0	0	0	0	579	510	0	0	0	0	
0	0	0	0	0	587	516	0	0	0	0	
1	0	0	0	0	591	521	0	0	0	0	
2	0	0	0	0	595	524	0	0	0	0	
3	0	0	0	0	597	525	0	0	0	0	
4	0	0	0	0	596	524	0	0	0	0	
5	0	0	0	0	593	523	0	0	0	0	
6	0	0	0	0	590	519	0	0	0	0	
7	0	0	0	0	585	516	0	0	0	0	
8	0	0	0	0	580	512	0	0	0	0	
9	0	0	0	0	575	508	0	0	0	0	
10	0	0	0	0	571	505	0	0	0	0	
11	0	0	0	0	567	502	0	0	0	0	
12	0	0	0	0	563	499	0	0	0	0	
13	0	0	0	0	561	498	0	0	0	0	
14	0	0	0	0	560	497	0	0	0	0	
15	0	0	0	0	561	497	0	0	0	0	
0	0	0	0	0	561	499	0	0	0	0	
1	0	0	0	0	563	500	0	0	0	0	
2	0	0	0	0	567	502	0	0	0	0	
3	0	0	0	0	569	504	0	0	0	0	
4	0	0	0	0	572	505	0	0	0	0	
5	0	0	0	0	574	506	0	0	0	0	
6	0	0	0	0	576	507	0	0	0	0	
7	0	0	0	0	576	506	0	0	0	0	
8	0	0	0	0	576	505	0	0	0	0	
9	0	0	0	0	575	504	0	0	0	0	
10	0	0	0	0	574	504	0	0	0	0	
11	0	0	0	0	572	502	0	0	0	0	
12	0	0	0	0	571	502	0	0	0	0	
13	0	0	0	0	570	502	0	0	0	0	
14	0	0	0	0	571	503	0	0	0	0	
15	0	0	0	0	571	505	0	0	0	0	
0	0	0	0	0	574	508	0	0	0	0	
1	0	0	0	0	578	512	0	0	0	0	
2	0	0	0	0	582	517	0	0	0	0	
3	0	0	0	0	586	521	0	0	0	0	
4	0	0	0	0	590	526	0	0	0	0	
5	0	0	0	0	594	529	0	0	0	0	
6	0	0	0	0	596	531	0	0	0	0	
7	0	0	0	0	597	531	0	0	0	0	
8	0	0	0	0	596	530	0	0	0	0	
9	0	0	0	0	593	527	0	0	0	0	
10	0	0	0	0	590	523	0	0	0	0	
11	0	0	0	0	585	519	0	0	0	0	
12	0	0	0	0	579	513	0	0	0	0	
13	0	0	0	0	573	508	0	0	0	0	
14	0	0	0	0	567	502	0	0	0	0	
15	0	0	0	0	562	498	0	0	0	0	
0	0	0	0	0	558	494	0	0	0	0	
1	0	0	0	0	555	491	0	0	0	0	
2	0	0	0	0	553	489	0	0	0	0	
3	0	0	0	0	552	489	0	0	0	0	
4	0	0	0	0	553	489	0	0	0	0	
5	0	0	0	0	555	491	0	0	0	0	
6	0	0	0	0	558	494	0	0	0	0	
7	0	0	0	0	561	497	0	0	0	0	
8	0	0	0	0	566	501	0	0	0	0	
9	0	0	0	0	571	505	0	0	0	0	
10	0	0	0	0	575	509	0	0	0	0	
11	0	0	0	0	580	513	0	0	0	0	
12	0	0	0	0	585	518	0	0	0	0	
13	0	0	0	0	589	521	0	0	0	0	
14	0	0	0	0	593	526	0	0	0	0	
15	0	0	0	0	596	529	0	0	0	0	
0	0	0	0	0	600	532	0	0	0	0	
1	0	0	0	0	602	535	0	0	0	0	
2	0	0	0	0	603	538	0	0	0	0	
3	0	0	0	0	605	540	0	0	0	0	
4	0	0	0	0	605	541	0	0	0	0	
5	0	0	0	0	604	541	0	0	0	0	
6	0	0	0	0	602	540	0	0	0	0	
7	0	0	0	0	599	536	0	0	0	0	
8	0	0	0	0	594	532	0	0	0	0	
9	0	0	0	0	588	527	0	0	0	0	
10	0	0	0	0	582	521	0	0	0	0	
11	0	0	0	0	575	515	0	0	0	0	
12	0	0	0	0	568	509	0	0	0	0	
13	0	0	0	0	562	504	0	0	0	0	
14	0	0	0	0	556	499	0	0	0	0	
15	0	0	0	0	551	495	0	0	0	0	
0	0	0	0	0	547	491	0	0	0	0	
1	0	0	0	0	545	488	0	0	0	0	
2	0	0	0	0	543	486	0	0	0	0	
3	0	0	0	0	542	484	0	0	0	0	
4	0	0	0	0	541	483	0	0	0	0	
5	0	0	0	0	541	483	0	0	0	0	
6	0	0	0	0	542	483	0	0	0	0	
7	0	0	0	0	544	483	0	0	0	0	
8	0	0	0	0	547	485	0	0	0	0	
9	0	0	0	0	551	487	0	0	0	0	
10	0	0	0	0	555	491	0	0	0	0	
11	0	0	0	0	560	496	0	0	0	0	
12	0	0	0	0	566	500	0	0	0	0	
13	0	0	0	0	571	506	0	0	0	0	
14	0	0	0	0	577	512	0	0	0	0	
15	0	0	0	0	582	517	0	0	0	0	
0	0	0	0	0	587	522	0	0	0	0	
1	0	0	0	0	591	527	0	0	0	0	
2	0	0	0	0	592	529	0	0	0	0	
3	0	0	0	0	593	531	0	0	0	0	
4	0	0	0	0	593	531	0	0	0	0	
5	0	0	0	0	590	529	0	0	0	0	
6	0	0	0	0	587	525	0	0	0	0	
7	0	0	0	0	582	520	0	0	0	0	
8	0	0	0	0	576	514	0	0	0	0	
9	0	0	0	0	569	507	0	0	0	0	
10	0	0	0	0	562	499	0	0	0	0	
11	0	0	0	0	555	492	0	0	0	0	
12	0	0	0	0	548	485	0	0	0	0	
13	0	0	0	0	543	479	0	0	0	0	
14	0	0	0	0	539	475	0	0	0	0	
15	0	0	0	0	537	473	0	0	0	0	
0	0	0	0	0	538	473	0	0	0	0	
1	0	0	0	0	541	476	0	0	0	0	
2	0	0	0	0	545	480	0	0	0	0	
3	0	0	0	0	552	487	0	0	0	0	
4	0	0	0	0	560	494	0	0	0	0	
5	0	0	0	0	569	502	0	0	0	0	
6	0	0	0	0	577	510	0	0	0	0	
7	0	0	0	0	583	517	0	0	0	0	
8	0	0	0	0	589	523	0	0	0	0	
9	0	0	0	0	593	527	0	0	0	0	
10	0	0	0	0	596	530	0	0	0	0	
11	0	0	0	0	596	531	0	0	0	0	
12	0	0	0	0	595	530	0	0	0	0	
13	0	0	0	0	593	528	0	0	0	0	
14	0	0	0	0	590	527	0	0	0	0	
15	0	0	0	0	587	523	0	0	0	0	
0	0	0	0	0	583	520	0	0	0	0	
1	0	0	0	0	579	517	0	0	0	0	
2	0	0	0	0	576	513	0	0	0	0	
3	0	0	0	0	573	511	0	0	0	0	
4	0	0	0	0	571	508	0	0	0	0	
5	0	0	0	0	569	507	0	0	0	0	
6	0	0	0	0	568	507	0	0	0	0	
7	0	0	0	0	567	506	0	0	0	0	
8	0	0	0	0	566	506	0	0	0	0	
9	0	0	0	0	567	506	0	0	0	0	
10	0	0	0	0	567	508	0	0	0	0	
11	0	0	0	0	567	508	0	0	0	0	
12	0	0	0	0	568	508	0	0	0	0	
13	0	0	0	0	568	509	0	0	0	0	
14	0	0	0	0	568	508	0	0	0	0	
15	0	0	0	0	568	508	0	0	0	0	
0	0	0	0	0	569	508	0	0	0	0	
1	0	0	0	0	570	509	0	0	0	0	
2	0	0	0	0	572	510	0	0	0	0	
3	0	0	0	0	576	513	0	0	0	0	
4	0	0	0	0	581	516	0	0	0	0	
5	0	0	0	0	586	520	0	0	0	0	
6	0	0	0	0	592	525	0	0	0	0	
7	0	0	0	0	598	529	0	0	0	0	
8	0	0	0	0	603	534	0	0	0	0	
9	0	0	0	0	607	537	0	0	0	0	
10	0	0	0	0	610	540	0	0	0	0	
11	0	0	0	0	611	542	0	0	0	0	
12	0	0	0	0	609	541	0	0	0	0	
13	0	0	0	0	607	540	0	0	0	0	
14	0	0	0	0	600	536	0	0	0	0	
15	0	0	0	0	592	530	0	0	0	0	
0	0	0	0	0	582	523	0	0	0	0	
1	0	0	0	0	571	515	0	0	0	0	
2	0	0	0	0	559	505	0	0	0	0	
3	0	0	0	0	547	496	0	0	0	0	
4	0	0	0	0	536	487	0	0	0	0	
5	0	0	0	0	527	480	0	0	0	0	
6	0	0	0	0	520	473	0	0	0	0	
7	0	0	0	0	515	467	0	0	0	0	
8	0	0	0	0	513	464	0	0	0	0	
9	0	0	0	0	513	462	0	0	0	0	
10	0	0	0	0	515	462	0	0	0	0	
11	0	0	0	0	520	464	0	0	0	0	
12	0	0	0	0	527	467	0	0	0	0	
13	0	0	0	0	535	472	0	0	0	0	
14	0	0	0	0	543	478	0	0	0	0	
15	0	0	0	0	551	486	0	0	0	0	
0	0	0	0	0	560	492	0	0	0	0	
1	0	0	0	0	568	499	0	0	0	0	
2	0	0	0	0	575	506	0	0	0	0	
3	0	0	0	0	579	511	0	0	0	0	
4	0	0	0	0	583	516	0	0	0	0	
5	0	0	0	0	585	519	0	0	0	0	
6	0	0	0	0	585	522	0	0	0	0	
7	0	0	0	0	586	524	0	0	0	0	
8	0	0	0	0	585	525	0	0	0	0	
9	0	0	0	0	585	526	0	0	0	0	
10	0	0	0	0	584	526	0	0	0	0	
11	0	0	0	0	584	527	0	0	0	0	
12	0	0	0	0	585	528	0	0	0	0	
13	0	0	0	0	586	529	0	0	0	0	
14	0	0	0	0	588	530	0	0	0	0	
15	0	0	0	0	591	533	0	0	0	0	
0	0	0	0	0	595	536	0	0	0	0	
1	0	0	0	0	599	539	0	0	0	0	
2	0	0	0	0	604	542	0	0	0	0	
3	0	0	0	0	607	545	0	0	0	0	
4	0	0	0	0	609	547	0	0	0	0	
5	0	0	0	0	609	547	0	0	0	0	
6	0	0	0	0	607	545	0	0	0	0	
7	0	0	0	0	601	540	0	0	0	0	
8	0	0	0	0	592	532	0	0	0	0	
9	0	0	0	0	581	523	0	0	0	0	
10	0	0	0	0	567	512	0	0	0	0	
11	0	0	0	0	553	500	0	0	0	0	
12	0	0	0	0	540	489	0	0	0	0	
13	0	0	0	0	527	479	0	0	0	0	
14	0	0	0	0	519	471	0	0	0	0	
15	0	0	0	0	513	465	0	0	0	0	
0	0	0	0	0	512	463	0	0	0	0	
1	0	0	0	0	514	463	0	0	0	0	
2	0	0	0	0	519	466	0	0	0	0	
3	0	0	0	0	526	470	0	0	0	0	
4	0	0	0	0	535	476	0	0	0	0	
5	0	0	0	0	544	481	0	0	0	0	
6	0	0	0	0	552	487	0	0	0	0	
7	0	0	0	0	560	492	0	0	0	0	
8	0	0	0	0	566	496	0	0	0	0	
9	0	0	0	0	571	500	0	0	0	0	
10	0	0	0	0	573	504	0	0	0	0	
11	0	0	0	0	575	506	0	0	0	0	
12	0	0	0	0	576	508	0	0	0	0	
13	0	0	0	0	577	510	0	0	0	0	
14	0	0	0	0	577	512	0	0	0	0	
15	0	0	0	0	577	514	0	0	0	0	
0	0	0	0	0	577	515	0	0	0	0	
1	0	0	0	0	576	516	0	0	0	0	
2	0	0	0	0	576	517	0	0	0	0	
3	0	0	0	0	576	517	0	0	0	0	
4	0	0	0	0	575	517	0	0	0	0	
5	0	0	0	0	575	516	0	0	0	0	
6	0	0	0	0	575	515	0	0	0	0	
7	0	0	0	0	575	514	0	0	0	0	
8	0	0	0	0	573	513	0	0	0	0	
9	0	0	0	0	572	511	0	0	0	0	
10	0	0	0	0	570	509	0	0	0	0	
11	0	0	0	0	568	507	0	0	0	0	
12	0	0	0	0	566	505	0	0	0	0	
13	0	0	0	0	563	502	0	0	0	0	
14	0	0	0	0	561	501	0	0	0	0	
15	0	0	0	0	558	499	0	0	0	0	
0	0	0	0	0	555	497	0	0	0	0	
1	0	0	0	0	553	496	0	0	0	0	
2	0	0	0	0	551	495	0	0	0	0	
3	0	0	0	0	550	494	0	0	0	0	
4	0	0	0	0	549	493	0	0	0	0	
5	0	0	0	0	548	492	0	0	0	0	
6	0	0	0	0	549	492	0	0	0	0	
7	0	0	0	0	551	492	0	0	0	0	
8	0	0	0	0	553	493	0	0	0	0	
9	0	0	0	0	556	494	0	0	0	0	
10	0	0	0	0	560	497	0	0	0	0	
11	0	0	0	0	565	500	0	0	0	0	
12	0	0	0	0	570	504	0	0	0	0	
13	0	0	0	0	574	507	0	0	0	0	
14	0	0	0	0	578	511	0	0	0	0	
15	0	0	0	0	581	515	0	0	0	0	
0	0	0	0	0	583	517	0	0	0	0	
1	0	0	0	0	583	518	0	0	0	0	
2	0	0	0	0	581	518	0	0	0	0	
3	0	0	0	0	578	516	0	0	0	0	
4	0	0	0	0	573	513	0	0	0	0	
5	0	0	0	0	567	509	0	0	0	0	
6	0	0	0	0	561	504	0	0	0	0	
7	0	0	0	0	555	500	0	0	0	0	
8	0	0	0	0	550	496	0	0	0	0	
9	0	0	0	0	546	492	0	0	0	0	
10	0	0	0	0	543	489	0	0	0	0	
11	0	0	0	0	543	487	0	0	0	0	
12	0	0	0	0	544	487	0	0	0	0	
13	0	0	0	0	546	487	0	0	0	0	
14	0	0	0	0	549	488	0	0	0	0	
15	0	0	0	0	552	491	0	0	0	0	
0	0	0	0	0	558	493	0	0	0	0	
1	0	0	0	0	563	497	0	0	0	0	
2	0	0	0	0	568	501	0	0	0	0	
3	0	0	0	0	572	505	0	0	0	0	
4	0	0	0	0	577	509	0	0	0	0	
5	0	0	0	0	580	512	0	0	0	0	
6	0	0	0	0	582	515	0	0	0	0	
7	0	0	0	0	583	515	0	0	0	0	
8	0	0	0	0	582	515	0	0	0	0	
9	0	0	0	0	580	515	0	0	0	0	
10	0	0	0	0	577	513	0	0	0	0	
11	0	0	0	0	574	510	0	0	0	0	
12	0	0	0	0	570	506	0	0	0	0	
13	0	0	0	0	566	502	0	0	0	0	
14	0	0	0	0	562	499	0	0	0	0	
15	0	0	0	0	559	495	0	0	0	0	
0	0	0	0	0	556	492	0	0	0	0	
1	0	0	0	0	553	490	0	0	0	0	
2	0	0	0	0	551	488	0	0	0	0	
3	0	0	0	0	550	487	0	0	0	0	
4	0	0	0	0	549	486	0	0	0	0	
5	0	0	0	0	549	486	0	0	0	0	
6	0	0	0	0	549	487	0	0	0	0	
7	0	0	0	0	550	487	0	0	0	0	
8	0	0	0	0	551	489	0	0	0	0	
9	0	0	0	0	553	491	0	0	0	0	
10	0	0	0	0	556	494	0	0	0	0	
11	0	0	0	0	559	497	0	0	0	0	
12	0	0	0	0	562	501	0	0	0	0	
13	0	0	0	0	565	504	0	0	0	0	
14	0	0	0	0	569	508	0	0	0	0	
15	0	0	0	0	572	511	0	0	0	0	
0	0	0	0	0	575	513	0	0	0	0	
1	0	0	0	0	577	516	0	0	0	0	
2	0	0	0	0	579	517	0	0	0	0	
3	0	0	0	0	580	518	0	0	0	0	
4	0	0	0	0	579	517	0	0	0	0	
5	0	0	0	0	578	515	0	0	0	0	
6	0	0	0	0	575	513	0	0	0	0	
7	0	0	0	0	571	510	0	0	0	0	
8	0	0	0	0	567	505	0	0	0	0	
9	0	0	0	0	562	501	0	0	0	0	
10	0	0	0	0	557	497	0	0	0	0	
11	0	0	0	0	551	492	0	0	0	0	
12	0	0	0	0	545	487	0	0	0	0	
13	0	0	0	0	540	483	0	0	0	0	
14	0	0	0	0	535	479	0	0	0	0	
15	0	0	0	0	531	476	0	0	0	0	
0	0	0	0	0	527	474	0	0	0	0	
1	0	0	0	0	525	472	0	0	0	0	
2	0	0	0	0	524	472	0	0	0	0	
3	0	0	0	0	526	472	0	0	0	0	
4	0	0	0	0	528	474	0	0	0	0	
5	0	0	0	0	532	477	0	0	0	0	
6	0	0	0	0	537	480	0	0	0	0	
7	0	0	0	0	544	483	0	0	0	0	
8	0	0	0	0	550	487	0	0	0	0	
9	0	0	0	0	556	491	0	0	0	0	
10	0	0	0	0	560	494	0	0	0	0	
11	0	0	0	0	565	497	0	0	0	0	
12	0	0	0	0	568	499	0	0	0	0	
13	0	0	0	0	570	502	0	0	0	0	
14	0	0	0	0	571	504	0	0	0	0	
15	0	0	0	0	571	505	0	0	0	0	
0	0	0	0	0	569	506	0	0	0	0	
1	0	0	0	0	568	506	0	0	0	0	
2	0	0	0	0	567	507	0	0	0	0	
3	0	0	0	0	566	507	0	0	0	0	
4	0	0	0	0	564	507	0	0	0	0	
5	0	0	0	0	563	508	0	0	0	0	
6	0	0	0	0	563	507	0	0	0	0	
7	0	0	0	0	564	508	0	0	0	0	
8	0	0	0	0	564	508	0	0	0	0	
9	0	0	0	0	566	508	0	0	0	0	
10	0	0	0	0	567	509	0	0	0	0	
11	0	0	0	0	569	509	0	0	0	0	
12	0	0	0	0	570	510	0	0	0	0	
13	0	0	0	0	571	510	0	0	0	0	
14	0	0	0	0	572	509	0	0	0	0	
15	0	0	0	0	571	509	0	0	0	0	
0	0	0	0	0	571	509	0	0	0	0	
1	0	0	0	0	571	510	0	0	0	0	
2	0	0	0	0	571	510	0	0	0	0	
3	0	0	0	0	571	511	0	0	0	0	
4	0	0	0	0	570	511	0	0	0	0	
5	0	0	0	0	571	512	0	0	0	0	
6	0	0	0	0	570	512	0	0	0	0	
7	0	0	0	0	570	512	0	0	0	0	
8	0	0	0	0	568	510	0	0	0	0	
9	0	0	0	0	567	508	0	0	0	0	
10	0	0	0	0	565	505	0	0	0	0	
11	0	0	0	0	562	503	0	0	0	0	
12	0	0	0	0	559	500	0	0	0	0	
13	0	0	0	0	556	497	0	0	0	0	
14	0	0	0	0	553	494	0	0	0	0	
15	0	0	0	0	550	491	0	0	0	0	
0	0	0	0	0	547	488	0	0	0	0	
1	0	0	0	0	545	487	0	0	0	0	
2	0	0	0	0	544	486	0	0	0	0	
3	0	0	0	0	543	486	0	0	0	0	
4	0	0	0	0	544	486	0	0	0	0	
5	0	0	0	0	546	487	0	0	0	0	
6	0	0	0	0	548	490	0	0	0	0	
7	0	0	0	0	551	493	0	0	0	0	
8	0	0	0	0	555	496	0	0	0	0	
9	0	0	0	0	559	500	0	0	0	0	
10	0	0	0	0	563	504	0	0	0	0	
11	0	0	0	0	567	508	0	0	0	0	
12	0	0	0	0	571	512	0	0	0	0	
13	0	0	0	0	573	515	0	0	0	0	
14	0	0	0	0	575	518	0	0	0	0	
15	0	0	0	0	577	520	0	0	0	0	
0	0	0	0	0	578	521	0	0	0	0	
1	0	0	0	0	578	521	0	0	0	0	
2	0	0	0	0	576	520	0	0	0	0	
3	0	0	0	0	573	518	0	0	0	0	
4	0	0	0	0	570	515	0	0	0	0	
5	0	0	0	0	566	511	0	0	0	0	
6	0	0	0	0	561	507	0	0	0	0	
7	0	0	0	0	557	502	0	0	0	0	
8	0	0	0	0	552	497	0	0	0	0	
9	0	0	0	0	547	493	0	0	0	0	
10	0	0	0	0	543	488	0	0	0	0	
11	0	0	0	0	539	484	0	0	0	0	
12	0	0	0	0	536	481	0	0	0	0	
13	0	0	0	0	534	479	0	0	0	0	
14	0	0	0	0	534	478	0	0	0	0	
15	0	0	0	0	535	478	0	0	0	0	
0	0	0	0	0	536	480	0	0	0	0	
1	0	0	0	0	538	481	0	0	0	0	
2	0	0	0	0	540	482	0	0	0	0	
3	0	0	0	0	543	484	0	0	0	0	
4	0	0	0	0	545	486	0	0	0	0	
5	0	0	0	0	547	487	0	0	0	0	
6	0	0	0	0	549	489	0	0	0	0	
7	0	0	0	0	551	491	0	0	0	0	
8	0	0	0	0	553	493	0	0	0	0	
9	0	0	0	0	556	495	0	0	0	0	
10	0	0	0	0	558	497	0	0	0	0	
11	0	0	0	0	560	499	0	0	0	0	
12	0	0	0	0	563	502	0	0	0	0	
13	0	0	0	0	566	505	0	0	0	0	
14	0	0	0	0	568	508	0	0	0	0	
15	0	0	0	0	570	511	0	0	0	0	
0	0	0	0	0	572	512	0	0	0	0	
1	0	0	0	0	573	513	0	0	0	0	
2	0	0	0	0	573	514	0	0	0	0	
3	0	0	0	0	572	513	0	0	0	0	
4	0	0	0	0	570	513	0	0	0	0	
5	0	0	0	0	568	512	0	0	0	0	
6	0	0	0	0	566	511	0	0	0	0	
7	0	0	0	0	564	510	0	0	0	0	
8	0	0	0	0	564	510	0	0	0	0	
9	0	0	0	0	563	510	0	0	0	0	
10	0	0	0	0	565	512	0	0	0	0	
11	0	0	0	0	568	515	0	0	0	0	
12	0	0	0	0	572	518	0	0	0	0	
13	0	0	0	0	577	521	0	0	0	0	
14	0	0	0	0	583	525	0	0	0	0	
15	0	0	0	0	588	529	0	0	0	0	
0	0	0	0	0	593	533	0	0	0	0	
1	0	0	0	0	596	536	0	0	0	0	
2	0	0	0	0	599	538	0	0	0	0	
3	0	0	0	0	600	539	0	0	0	0	
4	0	0	0	0	598	539	0	0	0	0	
5	0	0	0	0	595	536	0	0	0	0	
6	0	0	0	0	588	532	0	0	0	0	
7	0	0	0	0	580	526	0	0	0	0	
8	0	0	0	0	569	517	0	0	0	0	
9	0	0	0	0	556	508	0	0	0	0	
10	0	0	0	0	544	497	0	0	0	0	
11	0	0	0	0	532	487	0	0	0	0	
12	0	0	0	0	521	478	0	0	0	0	
13	0	0	0	0	512	469	0	0	0	0	
14	0	0	0	0	506	463	0	0	0	0	
15	0	0	0	0	503	458	0	0	0	0	
0	0	0	0	0	502	455	0	0	0	0	
1	0	0	0	0	503	455	0	0	0	0	
2	0	0	0	0	507	457	0	0	0	0	
3	0	0	0	0	512	460	0	0	0	0	
4	0	0	0	0	520	465	0	0	0	0	
5	0	0	0	0	528	472	0	0	0	0	
6	0	0	0	0	537	479	0	0	0	0	
7	0	0	0	0	546	487	0	0	0	0	
8	0	0	0	0	555	495	0	0	0	0	
9	0	0	0	0	563	503	0	0	0	0	
10	0	0	0	0	571	511	0	0	0	0	
11	0	0	0	0	578	518	0	0	0	0	
12	0	0	0	0	584	524	0	0	0	0	
13	0	0	0	0	589	530	0	0	0	0	
14	0	0	0	0	592	534	0	0	0	0	
15	0	0	0	0	593	537	0	0	0	0	
0	0	0	0	0	594	539	0	0	0	0	
1	0	0	0	0	592	538	0	0	0	0	
2	0	0	0	0	589	536	0	0	0	0	
3	0	0	0	0	584	533	0	0	0	0	
4	0	0	0	0	578	528	0	0	0	0	
5	0	0	0	0	570	521	0	0	0	0	
6	0	0	0	0	561	513	0	0	0	0	
7	0	0	0	0	551	504	0	0	0	0	
8	0	0	0	0	540	495	0	0	0	0	
9	0	0	0	0	529	484	0	0	0	0	
10	0	0	0	0	519	475	0	0	0	0	
11	0	0	0	0	510	467	0	0	0	0	
12	0	0	0	0	502	460	0	0	0	0	
13	0	0	0	0	497	454	0	0	0	0	
14	0	0	0	0	492	448	0	0	0	0	
15	0	0	0	0	487	442	0	0	0	0	
0	0	0	0	0	483	436	0	0	0	0	
1	0	0	0	0	477	429	0	0	0	0	
2	0	0	0	0	470	419	0	0	0	0	
3	0	0	0	0	459	407	0	0	0	0	
4	0	0	0	0	446	392	0	0	0	0	
5	0	0	0	0	428	374	0	0	0	0	
6	0	0	0	0	407	353	0	0	0	0	
7	0	0	0	0	384	331	0	0	0	0	
8	0	0	0	0	360	308	0	0	0	0	
9	0	0	0	0	336	286	0	0	0	0	
10	0	0	0	0	313	267	0	0	0	0	
11	0	0	0	0	294	250	0	0	0	0	
12	0	0	0	0	280	238	0	0	0	0	
13	0	0	0	0	271	231	0	0	0	0	
14	0	0	0	0	268	228	0	0	0	0	
15	0	0	0	0	273	233	0	0	0	0	
0	0	0	0	0	285	243	0	0	0	0	
1	0	0	0	0	303	259	0	0	0	0	
2	0	0	0	0	327	280	0	0	0	0	
3	0	0	0	0	357	304	0	0	0	0	
4	0	0	0	0	390	333	0	0	0	0	
5	0	0	0	0	425	364	0	0	0	0	
6	0	0	0	0	462	395	0	0	0	0	
7	0	0	0	0	498	426	0	0	0	0	
8	0	0	0	0	532	456	0	0	0	0	
9	0	0	0	0	562	483	0	0	0	0	
10	0	0	0	0	587	506	0	0	0	0	
11	0	0	0	0	607	525	0	0	0	0	
12	0	0	0	0	620	539	0	0	0	0	
13	0	0	0	0	627	548	0	0	0	0	
14	0	0	0	0	628	552	0	0	0	0	
15	0	0	0	0	623	551	0	0	0	0	
0	0	0	0	0	614	547	0	0	0	0	
1	0	0	0	0	601	540	0	0	0	0	
2	0	0	0	0	585	529	0	0	0	0	
3	0	0	0	0	568	519	0	0	0	0	
4	0	0	0	0	551	507	0	0	0	0	
5	0	0	0	0	536	497	0	0	0	0	
6	0	0	0	0	524	488	0	0	0	0	
7	0	0	0	0	515	481	0	0	0	0	
8	0	0	0	0	509	476	0	0	0	0	
9	0	0	0	0	507	475	0	0	0	0	
10	0	0	0	0	510	475	0	0	0	0	
11	0	0	0	0	515	478	0	0	0	0	
12	0	0	0	0	524	482	0	0	0	0	
13	0	0	0	0	535	488	0	0	0	0	
14	0	0	0	0	547	496	0	0	0	0	
15	0	0	0	0	560	504	0	0	0	0	
0	0	0	0	0	574	513	0	0	0	0	
1	0	0	0	0	586	523	0	0	0	0	
2	0	0	0	0	597	531	0	0	0	0	
3	0	0	0	0	606	539	0	0	0	0	
4	0	0	0	0	613	545	0	0	0	0	
5	0	0	0	0	617	551	0	0	0	0	
6	0	0	0	0	619	554	0	0	0	0	
7	0	0	0	0	619	556	0	0	0	0	
8	0	0	0	0	615	556	0	0	0	0	
9	0	0	0	0	610	554	0	0	0	0	
10	0	0	0	0	604	551	0	0	0	0	
11	0	0	0	0	595	547	0	0	0	0	
12	0	0	0	0	586	541	0	0	0	0	
13	0	0	0	0	576	535	0	0	0	0	
14	0	0	0	0	568	528	0	0	0	0	
15	0	0	0	0	560	521	0	0	0	0	
0	0	0	0	0	553	515	0	0	0	0	
1	0	0	0	0	550	511	0	0	0	0	
2	0	0	0	0	547	507	0	0	0	0	
3	0	0	0	0	549	506	0	0	0	0	
4	0	0	0	0	552	506	0	0	0	0	
5	0	0	0	0	558	508	0	0	0	0	
6	0	0	0	0	565	512	0	0	0	0	
7	0	0	0	0	573	518	0	0	0	0	
8	0	0	0	0	582	524	0	0	0	0	
9	0	0	0	0	589	529	0	0	0	0	
10	0	0	0	0	595	534	0	0	0	0	
11	0	0	0	0	600	538	0	0	0	0	
12	0	0	0	0	601	540	0	0	0	0	
13	0	0	0	0	599	540	0	0	0	0	
14	0	0	0	0	595	539	0	0	0	0	
15	0	0	0	0	590	536	0	0	0	0	
0	0	0	0	0	583	533	0	0	0	0	
1	0	0	0	0	576	529	0	0	0	0	
2	0	0	0	0	569	525	0	0	0	0	
3	0	0	0	0	563	520	0	0	0	0	
4	0	0	0	0	557	516	0	0	0	0	
5	0	0	0	0	552	512	0	0	0	0	
6	0	0	0	0	549	508	0	0	0	0	
7	0	0	0	0	547	506	0	0	0	0	
8	0	0	0	0	547	504	0	0	0	0	
9	0	0	0	0	549	504	0	0	0	0	
10	0	0	0	0	551	504	0	0	0	0	
11	0	0	0	0	556	507	0	0	0	0	
12	0	0	0	0	560	510	0	0	0	0	
13	0	0	0	0	566	514	0	0	0	0	
14	0	0	0	0	572	519	0	0	0	0	
15	0	0	0	0	577	524	0	0	0	0	
0	0	0	0	0	583	529	0	0	0	0	
1	0	0	0	0	588	534	0	0	0	0	
2	0	0	0	0	592	539	0	0	0	0	
3	0	0	0	0	595	542	0	0	0	0	
4	0	0	0	0	597	544	0	0	0	0	
5	0	0	0	0	600	547	0	0	0	0	
6	0	0	0	0	600	548	0	0	0	0	
7	0	0	0	0	600	548	0	0	0	0	
8	0	0	0	0	599	547	0	0	0	0	
9	0	0	0	0	596	544	0	0	0	0	
10	0	0	0	0	592	540	0	0	0	0	
11	0	0	0	0	585	534	0	0	0	0	
12	0	0	0	0	577	527	0	0	0	0	
13	0	0	0	0	569	519	0	0	0	0	
14	0	0	0	0	559	511	0	0	0	0	
15	0	0	0	0	551	504	0	0	0	0	
0	0	0	0	0	545	498	0	0	0	0	
1	0	0	0	0	540	494	0	0	0	0	
2	0	0	0	0	538	492	0	0	0	0	
3	0	0	0	0	537	493	0	0	0	0	
4	0	0	0	0	540	495	0	0	0	0	
5	0	0	0	0	545	499	0	0	0	0	
6	0	0	0	0	551	505	0	0	0	0	
7	0	0	0	0	558	511	0	0	0	0	
8	0	0	0	0	563	515	0	0	0	0	
9	0	0	0	0	569	520	0	0	0	0	
10	0	0	0	0	573	524	0	0	0	0	
11	0	0	0	0	575	525	0	0	0	0	
12	0	0	0	0	576	524	0	0	0	0	
13	0	0	0	0	575	523	0	0	0	0	
14	0	0	0	0	572	519	0	0	0	0	
15	0	0	0	0	568	516	0	0	0	0	
0	0	0	0	0	563	511	0	0	0	0	
1	0	0	0	0	559	507	0	0	0	0	
2	0	0	0	0	555	503	0	0	0	0	
3	0	0	0	0	551	500	0	0	0	0	
4	0	0	0	0	550	499	0	0	0	0	
5	0	0	0	0	549	499	0	0	0	0	
6	0	0	0	0	550	499	0	0	0	0	
7	0	0	0	0	551	502	0	0	0	0	
8	0	0	0	0	554	504	0	0	0	0	
9	0	0	0	0	558	508	0	0	0	0	
10	0	0	0	0	561	511	0	0	0	0	
11	0	0	0	0	565	515	0	0	0	0	
12	0	0	0	0	568	518	0	0	0	0	
13	0	0	0	0	572	521	0	0	0	0	
14	0	0	0	0	575	524	0	0	0	0	
15	0	0	0	0	577	526	0	0	0	0	
0	0	0	0	0	579	527	0	0	0	0	
1	0	0	0	0	580	528	0	0	0	0	
2	0	0	0	0	582	529	0	0	0	0	
3	0	0	0	0	582	529	0	0	0	0	
4	0	0	0	0	581	528	0	0	0	0	
5	0	0	0	0	580	527	0	0	0	0	
6	0	0	0	0	579	527	0	0	0	0	
7	0	0	0	0	578	526	0	0	0	0	
8	0	0	0	0	576	526	0	0	0	0	
9	0	0	0	0	575	526	0	0	0	0	
10	0	0	0	0	575	527	0	0	0	0	
11	0	0	0	0	574	528	0	0	0	0	
12	0	0	0	0	575	529	0	0	0	0	
13	0	0	0	0	575	530	0	0	0	0	
14	0	0	0	0	573	529	0	0	0	0	
15	0	0	0	0	571	527	0	0	0	0	
0	0	0	0	0	566	523	0	0	0	0	
1	0	0	0	0	561	517	0	0	0	0	
2	0	0	0	0	554	511	0	0	0	0	
3	0	0	0	0	547	504	0	0	0	0	
4	0	0	0	0	541	496	0	0	0	0	
5	0	0	0	0	536	491	0	0	0	0	
6	0	0	0	0	533	486	0	0	0	0	
7	0	0	0	0	531	483	0	0	0	0	
8	0	0	0	0	532	482	0	0	0	0	
9	0	0	0	0	535	483	0	0	0	0	
10	0	0	0	0	539	486	0	0	0	0	
11	0	0	0	0	544	489	0	0	0	0	
12	0	0	0	0	550	494	0	0	0	0	
13	0	0	0	0	558	500	0	0	0	0	
14	0	0	0	0	564	506	0	0	0	0	
15	0	0	0	0	570	512	0	0	0	0	
0	0	0	0	0	575	516	0	0	0	0	
1	0	0	0	0	577	519	0	0	0	0	
2	0	0	0	0	579	521	0	0	0	0	
3	0	0	0	0	577	521	0	0	0	0	
4	0	0	0	0	573	519	0	0	0	0	
5	0	0	0	0	568	515	0	0	0	0	
6	0	0	0	0	561	510	0	0	0	0	
7	0	0	0	0	553	503	0	0	0	0	
8	0	0	0	0	543	495	0	0	0	0	
9	0	0	0	0	535	488	0	0	0	0	
10	0	0	0	0	528	482	0	0	0	0	
11	0	0	0	0	524	478	0	0	0	0	
12	0	0	0	0	521	475	0	0	0	0	
13	0	0	0	0	522	475	0	0	0	0	
14	0	0	0	0	526	477	0	0	0	0	
15	0	0	0	0	532	481	0	0	0	0	
0	0	0	0	0	542	488	0	0	0	0	
1	0	0	0	0	553	496	0	0	0	0	
2	0	0	0	0	565	505	0	0	0	0	
3	0	0	0	0	575	513	0	0	0	0	
4	0	0	0	0	583	519	0	0	0	0	
5	0	0	0	0	588	524	0	0	0	0	
6	0	0	0	0	590	525	0	0	0	0	
7	0	0	0	0	588	524	0	0	0	0	
8	0	0	0	0	583	520	0	0	0	0	
9	0	0	0	0	575	515	0	0	0	0	
10	0	0	0	0	566	509	0	0	0	0	
11	0	0	0	0	556	502	0	0	0	0	
12	0	0	0	0	546	494	0	0	0	0	
13	0	0	0	0	537	487	0	0	0	0	
14	0	0	0	0	529	481	0	0	0	0	
15	0	0	0	0	524	477	0	0	0	0	
0	0	0	0	0	521	475	0	0	0	0	
1	0	0	0	0	522	475	0	0	0	0	
2	0	0	0	0	525	477	0	0	0	0	
3	0	0	0	0	531	481	0	0	0	0	
4	0	0	0	0	539	487	0	0	0	0	
5	0	0	0	0	549	495	0	0	0	0	
6	0	0	0	0	559	502	0	0	0	0	
7	0	0	0	0	569	510	0	0	0	0	
8	0	0	0	0	577	516	0	0	0	0	
9	0	0	0	0	584	523	0	0	0	0	
10	0	0	0	0	590	527	0	0	0	0	
11	0	0	0	0	592	531	0	0	0	0	
12	0	0	0	0	593	532	0	0	0	0	
13	0	0	0	0	592	532	0	0	0	0	
14	0	0	0	0	588	531	0	0	0	0	
15	0	0	0	0	583	527	0	0	0	0	
0	0	0	0	0	577	523	0	0	0	0	
1	0	0	0	0	569	516	0	0	0	0	
2	0	0	0	0	560	509	0	0	0	0	
3	0	0	0	0	551	502	0	0	0	0	
4	0	0	0	0	543	495	0	0	0	0	
5	0	0	0	0	536	489	0	0	0	0	
6	0	0	0	0	530	483	0	0	0	0	
7	0	0	0	0	527	480	0	0	0	0	
8	0	0	0	0	525	478	0	0	0	0	
9	0	0	0	0	526	477	0	0	0	0	
10	0	0	0	0	527	478	0	0	0	0	
11	0	0	0	0	531	480	0	0	0	0	
12	0	0	0	0	535	483	0	0	0	0	
13	0	0	0	0	540	487	0	0	0	0	
14	0	0	0	0	545	491	0	0	0	0	
15	0	0	0	0	549	494	0	0	0	0	
0	0	0	0	0	552	497	0	0	0	0	
1	0	0	0	0	555	500	0	0	0	0	
2	0	0	0	0	558	502	0	0	0	0	
3	0	0	0	0	558	503	0	0	0	0	
4	0	0	0	0	558	503	0	0	0	0	
5	0	0	0	0	557	502	0	0	0	0	
6	0	0	0	0	555	500	0	0	0	0	
7	0	0	0	0	554	499	0	0	0	0	
8	0	0	0	0	552	498	0	0	0	0	
9	0	0	0	0	550	496	0	0	0	0	
10	0	0	0	0	548	494	0	0	0	0	
11	0	0	0	0	547	494	0	0	0	0	
12	0	0	0	0	547	493	0	0	0	0	
13	0	0	0	0	547	492	0	0	0	0	
14	0	0	0	0	547	493	0	0	0	0	
15	0	0	0	0	548	494	0	0	0	0	
0	0	0	0	0	550	495	0	0	0	0	
1	0	0	0	0	552	497	0	0	0	0	
2	0	0	0	0	555	500	0	0	0	0	
3	0	0	0	0	558	503	0	0	0	0	
4	0	0	0	0	563	507	0	0	0	0	
5	0	0	0	0	567	511	0	0	0	0	
6	0	0	0	0	572	516	0	0	0	0	
7	0	0	0	0	577	519	0	0	0	0	
8	0	0	0	0	581	523	0	0	0	0	
9	0	0	0	0	583	525	0	0	0	0	
10	0	0	0	0	585	527	0	0	0	0	
11	0	0	0	0	586	527	0	0	0	0	
12	0	0	0	0	585	526	0	0	0	0	
13	0	0	0	0	582	523	0	0	0	0	
14	0	0	0	0	577	519	0	0	0	0	
15	0	0	0	0	571	515	0	0	0	0	
0	0	0	0	0	564	509	0	0	0	0	
1	0	0	0	0	557	504	0	0	0	0	
2	0	0	0	0	550	499	0	0	0	0	
3	0	0	0	0	543	494	0	0	0	0	
4	0	0	0	0	539	491	0	0	0	0	
5	0	0	0	0	536	489	0	0	0	0	
6	0	0	0	0	536	490	0	0	0	0	
7	0	0	0	0	538	491	0	0	0	0	
8	0	0	0	0	540	493	0	0	0	0	
9	0	0	0	0	544	495	0	0	0	0	
10	0	0	0	0	547	496	0	0	0	0	
11	0	0	0	0	549	497	0	0	0	0	
12	0	0	0	0	551	497	0	0	0	0	
13	0	0	0	0	551	496	0	0	0	0	
14	0	0	0	0	551	494	0	0	0	0	
15	0	0	0	0	550	492	0	0	0	0	
0	0	0	0	0	549	489	0	0	0	0	
1	0	0	0	0	549	488	0	0	0	0	
2	0	0	0	0	548	487	0	0	0	0	
3	0	0	0	0	548	487	0	0	0	0	
4	0	0	0	0	549	487	0	0	0	0	
5	0	0	0	0	550	488	0	0	0	0	
6	0	0	0	0	551	490	0	0	0	0	
7	0	0	0	0	553	492	0	0	0	0	
8	0	0	0	0	555	495	0	0	0	0	
9	0	0	0	0	556	497	0	0	0	0	
10	0	0	0	0	558	499	0	0	0	0	
11	0	0	0	0	559	500	0	0	0	0	
12	0	0	0	0	559	502	0	0	0	0	
13	0	0	0	0	559	503	0	0	0	0	
14	0	0	0	0	559	504	0	0	0	0	
15	0	0	0	0	559	504	0	0	0	0	
0	0	0	0	0	559	504	0	0	0	0	
1	0	0	0	0	559	504	0	0	0	0	
2	0	0	0	0	558	504	0	0	0	0	
3	0	0	0	0	558	504	0	0	0	0	
4	0	0	0	0	558	504	0	0	0	0	
5	0	0	0	0	558	504	0	0	0	0	
6	0	0	0	0	558	503	0	0	0	0	
7	0	0	0	0	558	504	0	0	0	0	
8	0	0	0	0	559	504	0	0	0	0	
9	0	0	0	0	559	504	0	0	0	0	
10	0	0	0	0	560	505	0	0	0	0	
11	0	0	0	0	560	505	0	0	0	0	
12	0	0	0	0	560	504	0	0	0	0	
13	0	0	0	0	558	503	0	0	0	0	
14	0	0	0	0	556	500	0	0	0	0	
15	0	0	0	0	552	496	0	0	0	0	
0	0	0	0	0	547	492	0	0	0	0	
1	0	0	0	0	542	488	0	0	0	0	
2	0	0	0	0	538	484	0	0	0	0	
3	0	0	0	0	534	480	0	0	0	0	
4	0	0	0	0	531	477	0	0	0	0	
5	0	0	0	0	529	475	0	0	0	0	
6	0	0	0	0	528	475	0	0	0	0	
7	0	0	0	0	529	475	0	0	0	0	
8	0	0	0	0	532	477	0	0	0	0	
9	0	0	0	0	536	480	0	0	0	0	
10	0	0	0	0	540	483	0	0	0	0	
11	0	0	0	0	545	487	0	0	0	0	
12	0	0	0	0	551	492	0	0	0	0	
13	0	0	0	0	556	495	0	0	0	0	
14	0	0	0	0	560	499	0	0	0	0	
15	0	0	0	0	563	501	0	0	0	0	
0	0	0	0	0	564	502	0	0	0	0	
1	0	0	0	0	564	502	0	0	0	0	
2	0	0	0	0	562	500	0	0	0	0	
3	0	0	0	0	559	497	0	0	0	0	
4	0	0	0	0	554	494	0	0	0	0	
5	0	0	0	0	549	490	0	0	0	0	
6	0	0	0	0	545	487	0	0	0	0	
7	0	0	0	0	541	483	0	0	0	0	
8	0	0	0	0	538	481	0	0	0	0	
9	0	0	0	0	537	480	0	0	0	0	
10	0	0	0	0	537	480	0	0	0	0	
11	0	0	0	0	540	482	0	0	0	0	
12	0	0	0	0	543	486	0	0	0	0	
13	0	0	0	0	550	491	0	0	0	0	
14	0	0	0	0	557	497	0	0	0	0	
15	0	0	0	0	566	504	0	0	0	0	
0	0	0	0	0	574	511	0	0	0	0	
1	0	0	0	0	581	516	0	0	0	0	
2	0	0	0	0	585	519	0	0	0	0	
3	0	0	0	0	587	520	0	0	0	0	
4	0	0	0	0	584	519	0	0	0	0	
5	0	0	0	0	580	514	0	0	0	0	
6	0	0	0	0	572	508	0	0	0	0	
7	0	0	0	0	561	499	0	0	0	0	
8	0	0	0	0	549	489	0	0	0	0	
9	0	0	0	0	537	479	0	0	0	0	
10	0	0	0	0	525	468	0	0	0	0	
11	0	0	0	0	513	459	0	0	0	0	
12	0	0	0	0	504	450	0	0	0	0	
13	0	0	0	0	497	444	0	0	0	0	
14	0	0	0	0	494	441	0	0	0	0	
15	0	0	0	0	493	440	0	0	0	0	
0	0	0	0	0	497	442	0	0	0	0	
1	0	0	0	0	503	447	0	0	0	0	
2	0	0	0	0	512	454	0	0	0	0	
3	0	0	0	0	523	462	0	0	0	0	
4	0	0	0	0	535	472	0	0	0	0	
5	0	0	0	0	547	481	0	0	0	0	
6	0	0	0	0	559	491	0	0	0	0	
7	0	0	0	0	570	499	0	0	0	0	
8	0	0	0	0	579	507	0	0	0	0	
9	0	0	0	0	585	512	0	0	0	0	
10	0	0	0	0	588	515	0	0	0	0	
11	0	0	0	0	588	516	0	0	0	0	
12	0	0	0	0	585	515	0	0	0	0	
13	0	0	0	0	580	511	0	0	0	0	
14	0	0	0	0	572	505	0	0	0	0	
15	0	0	0	0	563	499	0	0	0	0	
0	0	0	0	0	554	492	0	0	0	0	
1	0	0	0	0	545	486	0	0	0	0	
2	0	0	0	0	538	480	0	0	0	0	
3	0	0	0	0	534	476	0	0	0	0	
4	0	0	0	0	531	474	0	0	0	0	
5	0	0	0	0	531	473	0	0	0	0	
6	0	0	0	0	534	475	0	0	0	0	
7	0	0	0	0	538	477	0	0	0	0	
8	0	0	0	0	543	481	0	0	0	0	
9	0	0	0	0	550	485	0	0	0	0	
10	0	0	0	0	556	490	0	0	0	0	
11	0	0	0	0	562	494	0	0	0	0	
12	0	0	0	0	568	498	0	0	0	0	
13	0	0	0	0	572	502	0	0	0	0	
14	0	0	0	0	575	505	0	0	0	0	
15	0	0	0	0	577	508	0	0	0	0	
0	0	0	0	0	577	509	0	0	0	0	
1	0	0	0	0	575	509	0	0	0	0	
2	0	0	0	0	573	507	0	0	0	0	
3	0	0	0	0	568	504	0	0	0	0	
4	0	0	0	0	562	500	0	0	0	0	
5	0	0	0	0	556	495	0	0	0	0	
6	0	0	0	0	548	489	0	0	0	0	
7	0	0	0	0	543	484	0	0	0	0	
8	0	0	0	0	538	480	0	0	0	0	
9	0	0	0	0	535	477	0	0	0	0	
10	0	0	0	0	533	475	0	0	0	0	
11	0	0	0	0	533	475	0	0	0	0	
12	0	0	0	0	535	476	0	0	0	0	
13	0	0	0	0	538	479	0	0	0	0	
14	0	0	0	0	542	483	0	0	0	0	
15	0	0	0	0	547	487	0	0	0	0	
0	0	0	0	0	552	492	0	0	0	0	
1	0	0	0	0	557	496	0	0	0	0	
2	0	0	0	0	561	500	0	0	0	0	
3	0	0	0	0	565	503	0	0	0	0	
4	0	0	0	0	567	504	0	0	0	0	
5	0	0	0	0	567	504	0	0	0	0	
6	0	0	0	0	567	504	0	0	0	0	
7	0	0	0	0	565	503	0	0	0	0	
8	0	0	0	0	563	500	0	0	0	0	
9	0	0	0	0	559	497	0	0	0	0	
10	0	0	0	0	556	494	0	0	0	0	
11	0	0	0	0	551	489	0	0	0	0	
12	0	0	0	0	546	484	0	0	0	0	
13	0	0	0	0	540	478	0	0	0	0	
14	0	0	0	0	533	472	0	0	0	0	
15	0	0	0	0	527	465	0	0	0	0	
0	0	0	0	0	521	460	0	0	0	0	
1	0	0	0	0	516	455	0	0	0	0	
2	0	0	0	0	512	452	0	0	0	0	
3	0	0	0	0	510	451	0	0	0	0	
4	0	0	0	0	510	451	0	0	0	0	
5	0	0	0	0	512	455	0	0	0	0	
6	0	0	0	0	517	460	0	0	0	0	
7	0	0	0	0	524	466	0	0	0	0	
8	0	0	0	0	530	473	0	0	0	0	
9	0	0	0	0	537	480	0	0	0	0	
10	0	0	0	0	544	486	0	0	0	0	
11	0	0	0	0	550	490	0	0	0	0	
12	0	0	0	0	553	493	0	0	0	0	
13	0	0	0	0	555	493	0	0	0	0	
14	0	0	0	0	555	492	0	0	0	0	
15	0	0	0	0	552	489	0	0	0	0	
0	0	0	0	0	548	486	0	0	0	0	
1	0	0	0	0	543	481	0	0	0	0	
2	0	0	0	0	539	476	0	0	0	0	
3	0	0	0	0	534	472	0	0	0	0	
4	0	0	0	0	530	470	0	0	0	0	
5	0	0	0	0	529	469	0	0	0	0	
6	0	0	0	0	529	470	0	0	0	0	
7	0	0	0	0	530	472	0	0	0	0	
8	0	0	0	0	533	475	0	0	0	0	
9	0	0	0	0	536	478	0	0	0	0	
10	0	0	0	0	539	480	0	0	0	0	
11	0	0	0	0	542	482	0	0	0	0	
12	0	0	0	0	543	483	0	0	0	0	
13	0	0	0	0	545	483	0	0	0	0	
14	0	0	0	0	546	483	0	0	0	0	
15	0	0	0	0	546	482	0	0	0	0	
0	0	0	0	0	546	481	0	0	0	0	
1	0	0	0	0	545	480	0	0	0	0	
2	0	0	0	0	546	479	0	0	0	0	
3	0	0	0	0	545	478	0	0	0	0	
4	0	0	0	0	546	478	0	0	0	0	
5	0	0	0	0	546	478	0	0	0	0	
6	0	0	0	0	546	478	0	0	0	0	
7	0	0	0	0	547	479	0	0	0	0	
8	0	0	0	0	548	480	0	0	0	0	
9	0	0	0	0	550	482	0	0	0	0	
10	0	0	0	0	551	484	0	0	0	0	
11	0	0	0	0	553	487	0	0	0	0	
12	0	0	0	0	555	489	0	0	0	0	
13	0	0	0	0	555	490	0	0	0	0	
14	0	0	0	0	556	491	0	0	0	0	
15	0	0	0	0	555	492	0	0	0	0	
0	0	0	0	0	553	491	0	0	0	0	
1	0	0	0	0	551	491	0	0	0	0	
2	0	0	0	0	549	490	0	0	0	0	
3	0	0	0	0	547	488	0	0	0	0	
4	0	0	0	0	545	487	0	0	0	0	
5	0	0	0	0	543	486	0	0	0	0	
6	0	0	0	0	542	484	0	0	0	0	
7	0	0	0	0	542	483	0	0	0	0	
8	0	0	0	0	542	483	0	0	0	0	
9	0	0	0	0	543	483	0	0	0	0	
10	0	0	0	0	544	482	0	0	0	0	
11	0	0	0	0	545	482	0	0	0	0	
12	0	0	0	0	545	481	0	0	0	0	
13	0	0	0	0	544	479	0	0	0	0	
14	0	0	0	0	542	476	0	0	0	0	
15	0	0	0	0	539	473	0	0	0	0	
0	0	0	0	0	535	469	0	0	0	0	
1	0	0	0	0	530	465	0	0	0	0	
2	0	0	0	0	526	462	0	0	0	0	
3	0	0	0	0	521	460	0	0	0	0	
4	0	0	0	0	518	457	0	0	0	0	
5	0	0	0	0	515	456	0	0	0	0	
6	0	0	0	0	514	455	0	0	0	0	
7	0	0	0	0	514	456	0	0	0	0	
8	0	0	0	0	515	456	0	0	0	0	
9	0	0	0	0	515	456	0	0	0	0	
10	0	0	0	0	517	455	0	0	0	0	
11	0	0	0	0	518	455	0	0	0	0	
12	0	0	0	0	518	454	0	0	0	0	
13	0	0	0	0	519	453	0	0	0	0	
14	0	0	0	0	519	452	0	0	0	0	
15	0	0	0	0	519	452	0	0	0	0	
0	0	0	0	0	521	453	0	0	0	0	
1	0	0	0	0	523	455	0	0	0	0	
2	0	0	0	0	526	458	0	0	0	0	
3	0	0	0	0	530	462	0	0	0	0	
4	0	0	0	0	535	467	0	0	0	0	
5	0	0	0	0	539	472	0	0	0	0	
6	0	0	0	0	543	478	0	0	0	0	
7	0	0	0	0	547	483	0	0	0	0	
8	0	0	0	0	550	486	0	0	0	0	
9	0	0	0	0	552	489	0	0	0	0	
10	0	0	0	0	553	491	0	0	0	0	
11	0	0	0	0	554	491	0	0	0	0	
12	0	0	0	0	552	489	0	0	0	0	
13	0	0	0	0	550	487	0	0	0	0	
14	0	0	0	0	547	483	0	0	0	0	
15	0	0	0	0	545	480	0	0	0	0	
0	0	0	0	0	542	476	0	0	0	0	
1	0	0	0	0	539	472	0	0	0	0	
2	0	0	0	0	536	468	0	0	0	0	
3	0	0	0	0	534	465	0	0	0	0	
4	0	0	0	0	532	463	0	0	0	0	
5	0	0	0	0	532	463	0	0	0	0	
6	0	0	0	0	532	463	0	0	0	0	
7	0	0	0	0	534	465	0	0	0	0	
8	0	0	0	0	537	469	0	0	0	0	
9	0	0	0	0	542	473	0	0	0	0	
10	0	0	0	0	547	479	0	0	0	0	
11	0	0	0	0	553	484	0	0	0	0	
12	0	0	0	0	559	489	0	0	0	0	
13	0	0	0	0	564	495	0	0	0	0	
14	0	0	0	0	569	499	0	0	0	0	
15	0	0	0	0	574	503	0	0	0	0	
0	0	0	0	0	577	507	0	0	0	0	
1	0	0	0	0	579	508	0	0	0	0	
2	0	0	0	0	578	508	0	0	0	0	
3	0	0	0	0	576	506	0	0	0	0	
4	0	0	0	0	572	503	0	0	0	0	
5	0	0	0	0	566	498	0	0	0	0	
6	0	0	0	0	559	491	0	0	0	0	
7	0	0	0	0	550	484	0	0	0	0	
8	0	0	0	0	542	477	0	0	0	0	
9	0	0	0	0	534	471	0	0	0	0	
10	0	0	0	0	527	465	0	0	0	0	
11	0	0	0	0	523	461	0	0	0	0	
12	0	0	0	0	520	459	0	0	0	0	
13	0	0	0	0	519	457	0	0	0	0	
14	0	0	0	0	520	458	0	0	0	0	
15	0	0	0	0	523	459	0	0	0	0	
0	0	0	0	0	526	461	0	0	0	0	
1	0	0	0	0	529	463	0	0	0	0	
2	0	0	0	0	534	466	0	0	0	0	
3	0	0	0	0	537	469	0	0	0	0	
4	0	0	0	0	542	472	0	0	0	0	
5	0	0	0	0	545	476	0	0	0	0	
6	0	0	0	0	548	478	0	0	0	0	
7	0	0	0	0	550	479	0	0	0	0	
8	0	0	0	0	551	480	0	0	0	0	
9	0	0	0	0	550	479	0	0	0	0	
10	0	0	0	0	549	477	0	0	0	0	
11	0	0	0	0	546	475	0	0	0	0	
12	0	0	0	0	543	472	0	0	0	0	
13	0	0	0	0	539	469	0	0	0	0	
14	0	0	0	0	536	466	0	0	0	0	
15	0	0	0	0	532	463	0	0	0	0	
0	0	0	0	0	529	462	0	0	0	0	
1	0	0	0	0	527	460	0	0	0	0	
2	0	0	0	0	527	460	0	0	0	0	
3	0	0	0	0	527	460	0	0	0	0	
4	0	0	0	0	527	461	0	0	0	0	
5	0	0	0	0	528	462	0	0	0	0	
6	0	0	0	0	529	463	0	0	0	0	
7	0	0	0	0	529	463	0	0	0	0	
8	0	0	0	0	529	462	0	0	0	0	
9	0	0	0	0	527	461	0	0	0	0	
10	0	0	0	0	524	458	0	0	0	0	
11	0	0	0	0	520	454	0	0	0	0	
12	0	0	0	0	514	449	0	0	0	0	
13	0	0	0	0	508	443	0	0	0	0	
14	0	0	0	0	500	436	0	0	0	0	
15	0	0	0	0	492	429	0	0	0	0	
0	0	0	0	0	483	421	0	0	0	0	
1	0	0	0	0	475	413	0	0	0	0	
2	0	0	0	0	466	405	0	0	0	0	
3	0	0	0	0	457	397	0	0	0	0	
4	0	0	0	0	449	389	0	0	0	0	
5	0	0	0	0	441	381	0	0	0	0	
6	0	0	0	0	432	372	0	0	0	0	
7	0	0	0	0	423	363	0	0	0	0	
8	0	0	0	0	414	353	0	0	0	0	
9	0	0	0	0	404	342	0	0	0	0	
10	0	0	0	0	392	331	0	0	0	0	
11	0	0	0	0	381	318	0	0	0	0	
12	0	0	0	0	368	305	0	0	0	0	
13	0	0	0	0	356	291	0	0	0	0	
14	0	0	0	0	344	279	0	0	0	0	
15	0	0	0	0	332	266	0	0	0	0	
0	0	0	0	0	323	256	0	0	0	0	
1	0	0	0	0	316	248	0	0	0	0	
2	0	0	0	0	312	243	0	0	0	0	
3	0	0	0	0	313	242	0	0	0	0	
4	0	0	0	0	318	246	0	0	0	0	
5	0	0	0	0	327	254	0	0	0	0	
6	0	0	0	0	342	267	0	0	0	0	
7	0	0	0	0	359	283	0	0	0	0	
8	0	0	0	0	382	302	0	0	0	0	
9	0	0	0	0	406	323	0	0	0	0	
10	0	0	0	0	431	347	0	0	0	0	
11	0	0	0	0	458	372	0	0	0	0	
12	0	0	0	0	484	396	0	0	0	0	
13	0	0	0	0	508	420	0	0	0	0	
14	0	0	0	0	531	443	0	0	0	0	
15	0	0	0	0	550	462	0	0	0	0	
0	0	0	0	0	564	477	0	0	0	0	
1	0	0	0	0	575	488	0	0	0	0	
2	0	0	0	0	581	496	0	0	0	0	
3	0	0	0	0	583	499	0	0	0	0	
4	0	0	0	0	582	500	0	0	0	0	
5	0	0	0	0	577	497	0	0	0	0	
6	0	0	0	0	571	493	0	0	0	0	
7	0	0	0	0	563	487	0	0	0	0	
8	0	0	0	0	554	481	0	0	0	0	
9	0	0	0	0	545	475	0	0	0	0	
10	0	0	0	0	537	468	0	0	0	0	
11	0	0	0	0	529	463	0	0	0	0	
12	0	0	0	0	524	459	0	0	0	0	
13	0	0	0	0	519	456	0	0	0	0	
14	0	0	0	0	517	455	0	0	0	0	
15	0	0	0	0	517	455	0	0	0	0	
0	0	0	0	0	518	456	0	0	0	0	
1	0	0	0	0	521	459	0	0	0	0	
2	0	0	0	0	527	462	0	0	0	0	
3	0	0	0	0	532	467	0	0	0	0	
4	0	0	0	0	538	471	0	0	0	0	
5	0	0	0	0	545	475	0	0	0	0	
6	0	0	0	0	551	479	0	0	0	0	
7	0	0	0	0	556	482	0	0	0	0	
8	0	0	0	0	560	484	0	0	0	0	
9	0	0	0	0	563	487	0	0	0	0	
10	0	0	0	0	564	487	0	0	0	0	
11	0	0	0	0	564	487	0	0	0	0	
12	0	0	0	0	563	487	0	0	0	0	
13	0	0	0	0	562	487	0	0	0	0	
14	0	0	0	0	560	487	0	0	0	0	
15	0	0	0	0	558	486	0	0	0	0	
0	0	0	0	0	556	486	0	0	0	0	
1	0	0	0	0	554	486	0	0	0	0	
2	0	0	0	0	553	486	0	0	0	0	
3	0	0	0	0	551	486	0	0	0	0	
4	0	0	0	0	551	485	0	0	0	0	
5	0	0	0	0	550	485	0	0	0	0	
6	0	0	0	0	550	484	0	0	0	0	
7	0	0	0	0	551	484	0	0	0	0	
8	0	0	0	0	551	483	0	0	0	0	
9	0	0	0	0	551	482	0	0	0	0	
10	0	0	0	0	551	481	0	0	0	0	
11	0	0	0	0	553	480	0	0	0	0	
12	0	0	0	0	553	479	0	0	0	0	
13	0	0	0	0	553	478	0	0	0	0	
14	0	0	0	0	553	478	0	0	0	0	
15	0	0	0	0	552	477	0	0	0	0	
0	0	0	0	0	552	477	0	0	0	0	
1	0	0	0	0	552	478	0	0	0	0	
2	0	0	0	0	551	478	0	0	0	0	
3	0	0	0	0	551	479	0	0	0	0	
4	0	0	0	0	550	479	0	0	0	0	
5	0	0	0	0	550	480	0	0	0	0	
6	0	0	0	0	550	482	0	0	0	0	
7	0	0	0	0	550	483	0	0	0	0	
8	0	0	0	0	550	484	0	0	0	0	
9	0	0	0	0	550	485	0	0	0	0	
10	0	0	0	0	551	486	0	0	0	0	
11	0	0	0	0	552	487	0	0	0	0	
12	0	0	0	0	552	487	0	0	0	0	
13	0	0	0	0	553	488	0	0	0	0	
14	0	0	0	0	555	488	0	0	0	0	
15	0	0	0	0	556	489	0	0	0	0	
0	0	0	0	0	558	491	0	0	0	0	
1	0	0	0	0	562	493	0	0	0	0	
2	0	0	0	0	565	496	0	0	0	0	
3	0	0	0	0	569	499	0	0	0	0	
4	0	0	0	0	573	501	0	0	0	0	
5	0	0	0	0	576	504	0	0	0	0	
6	0	0	0	0	579	506	0	0	0	0	
7	0	0	0	0	581	508	0	0	0	0	
8	0	0	0	0	581	508	0	0	0	0	
9	0	0	0	0	581	509	0	0	0	0	
10	0	0	0	0	578	508	0	0	0	0	
11	0	0	0	0	574	505	0	0	0	0	
12	0	0	0	0	568	501	0	0	0	0	
13	0	0	0	0	562	497	0	0	0	0	
14	0	0	0	0	555	492	0	0	0	0	
15	0	0	0	0	547	486	0	0	0	0	
0	0	0	0	0	540	480	0	0	0	0	
1	0	0	0	0	534	474	0	0	0	0	
2	0	0	0	0	529	469	0	0	0	0	
3	0	0	0	0	526	465	0	0	0	0	
4	0	0	0	0	524	462	0	0	0	0	
5	0	0	0	0	523	459	0	0	0	0	
6	0	0	0	0	524	457	0	0	0	0	
7	0	0	0	0	525	456	0	0	0	0	
8	0	0	0	0	528	457	0	0	0	0	
9	0	0	0	0	532	459	0	0	0	0	
10	0	0	0	0	536	461	0	0	0	0	
11	0	0	0	0	540	464	0	0	0	0	
12	0	0	0	0	545	468	0	0	0	0	
13	0	0	0	0	549	472	0	0	0	0	
14	0	0	0	0	553	476	0	0	0	0	
15	0	0	0	0	556	479	0	0	0	0	
0	0	0	0	0	559	483	0	0	0	0	
1	0	0	0	0	560	485	0	0	0	0	
2	0	0	0	0	560	487	0	0	0	0	
3	0	0	0	0	560	487	0	0	0	0	
4	0	0	0	0	558	487	0	0	0	0	
5	0	0	0	0	556	485	0	0	0	0	
6	0	0	0	0	551	482	0	0	0	0	
7	0	0	0	0	548	479	0	0	0	0	
8	0	0	0	0	544	476	0	0	0	0	
9	0	0	0	0	541	473	0	0	0	0	
10	0	0	0	0	539	470	0	0	0	0	
11	0	0	0	0	538	469	0	0	0	0	
12	0	0	0	0	539	469	0	0	0	0	
13	0	0	0	0	542	471	0	0	0	0	
14	0	0	0	0	546	474	0	0	0	0	
15	0	0	0	0	551	478	0	0	0	0	
0	0	0	0	0	557	483	0	0	0	0	
1	0	0	0	0	563	487	0	0	0	0	
2	0	0	0	0	568	492	0	0	0	0	
3	0	0	0	0	571	494	0	0	0	0	
4	0	0	0	0	571	495	0	0	0	0	
5	0	0	0	0	570	494	0	0	0	0	
6	0	0	0	0	566	491	0	0	0	0	
7	0	0	0	0	559	485	0	0	0	0	
8	0	0	0	0	550	478	0	0	0	0	
9	0	0	0	0	541	470	0	0	0	0	
10	0	0	0	0	532	463	0	0	0	0	
11	0	0	0	0	523	455	0	0	0	0	
12	0	0	0	0	516	450	0	0	0	0	
13	0	0	0	0	511	446	0	0	0	0	
14	0	0	0	0	508	444	0	0	0	0	
15	0	0	0	0	508	444	0	0	0	0	
0	0	0	0	0	511	447	0	0	0	0	
1	0	0	0	0	516	451	0	0	0	0	
2	0	0	0	0	524	457	0	0	0	0	
3	0	0	0	0	534	464	0	0	0	0	
4	0	0	0	0	543	472	0	0	0	0	
5	0	0	0	0	554	480	0	0	0	0	
6	0	0	0	0	563	487	0	0	0	0	
7	0	0	0	0	570	492	0	0	0	0	
8	0	0	0	0	575	497	0	0	0	0	
9	0	0	0	0	577	499	0	0	0	0	
10	0	0	0	0	576	499	0	0	0	0	
11	0	0	0	0	574	497	0	0	0	0	
12	0	0	0	0	568	493	0	0	0	0	
13	0	0	0	0	559	487	0	0	0	0	
14	0	0	0	0	550	480	0	0	0	0	
15	0	0	0	0	540	472	0	0	0	0	
0	0	0	0	0	530	465	0	0	0	0	
1	0	0	0	0	521	457	0	0	0	0	
2	0	0	0	0	515	451	0	0	0	0	
3	0	0	0	0	510	447	0	0	0	0	
4	0	0	0	0	508	445	0	0	0	0	
5	0	0	0	0	508	445	0	0	0	0	
6	0	0	0	0	510	446	0	0	0	0	
7	0	0	0	0	514	449	0	0	0	0	
8	0	0	0	0	520	454	0	0	0	0	
9	0	0	0	0	527	459	0	0	0	0	
10	0	0	0	0	536	465	0	0	0	0	
11	0	0	0	0	543	472	0	0	0	0	
12	0	0	0	0	552	479	0	0	0	0	
13	0	0	0	0	559	484	0	0	0	0	
14	0	0	0	0	565	489	0	0	0	0	
15	0	0	0	0	569	493	0	0	0	0	
0	0	0	0	0	572	496	0	0	0	0	
1	0	0	0	0	574	497	0	0	0	0	
2	0	0	0	0	574	498	0	0	0	0	
3	0	0	0	0	574	498	0	0	0	0	
4	0	0	0	0	572	496	0	0	0	0	
5	0	0	0	0	569	495	0	0	0	0	
6	0	0	0	0	564	491	0	0	0	0	
7	0	0	0	0	559	487	0	0	0	0	
8	0	0	0	0	553	482	0	0	0	0	
9	0	0	0	0	545	476	0	0	0	0	
10	0	0	0	0	538	470	0	0	0	0	
11	0	0	0	0	529	462	0	0	0	0	
12	0	0	0	0	520	455	0	0	0	0	
13	0	0	0	0	512	448	0	0	0	0	
14	0	0	0	0	505	441	0	0	0	0	
15	0	0	0	0	500	436	0	0	0	0	
0	0	0	0	0	496	433	0	0	0	0	
1	0	0	0	0	495	431	0	0	0	0	
2	0	0	0	0	496	432	0	0	0	0	
3	0	0	0	0	499	433	0	0	0	0	
4	0	0	0	0	504	436	0	0	0	0	
5	0	0	0	0	509	440	0	0	0	0	
6	0	0	0	0	515	445	0	0	0	0	
7	0	0	0	0	523	450	0	0	0	0	
8	0	0	0	0	530	455	0	0	0	0	
9	0	0	0	0	536	460	0	0	0	0	
10	0	0	0	0	541	463	0	0	0	0	
11	0	0	0	0	545	467	0	0	0	0	
12	0	0	0	0	548	469	0	0	0	0	
13	0	0	0	0	549	471	0	0	0	0	
14	0	0	0	0	549	472	0	0	0	0	
15	0	0	0	0	548	472	0	0	0	0	
0	0	0	0	0	547	473	0	0	0	0	
1	0	0	0	0	547	475	0	0	0	0	
2	0	0	0	0	546	476	0	0	0	0	
3	0	0	0	0	547	479	0	0	0	0	
4	0	0	0	0	547	480	0	0	0	0	
5	0	0	0	0	548	483	0	0	0	0	
6	0	0	0	0	551	486	0	0	0	0	
7	0	0	0	0	553	488	0	0	0	0	
8	0	0	0	0	556	491	0	0	0	0	
9	0	0	0	0	559	492	0	0	0	0	
10	0	0	0	0	560	492	0	0	0	0	
11	0	0	0	0	561	492	0	0	0	0	
12	0	0	0	0	560	490	0	0	0	0	
13	0	0	0	0	559	488	0	0	0	0	
14	0	0	0	0	556	486	0	0	0	0	
15	0	0	0	0	553	483	0	0	0	0	
0	0	0	0	0	549	480	0	0	0	0	
1	0	0	0	0	546	478	0	0	0	0	
2	0	0	0	0	543	476	0	0	0	0	
3	0	0	0	0	541	476	0	0	0	0	
4	0	0	0	0	539	476	0	0	0	0	
5	0	0	0	0	539	476	0	0	0	0	
6	0	0	0	0	539	478	0	0	0	0	
7	0	0	0	0	540	479	0	0	0	0	
8	0	0	0	0	541	481	0	0	0	0	
9	0	0	0	0	543	483	0	0	0	0	
10	0	0	0	0	545	484	0	0	0	0	
11	0	0	0	0	547	485	0	0	0	0	
12	0	0	0	0	548	484	0	0	0	0	
13	0	0	0	0	548	483	0	0	0	0	
14	0	0	0	0	547	481	0	0	0	0	
15	0	0	0	0	546	478	0	0	0	0	
0	0	0	0	0	543	475	0	0	0	0	
1	0	0	0	0	541	471	0	0	0	0	
2	0	0	0	0	537	467	0	0	0	0	
3	0	0	0	0	535	465	0	0	0	0	
4	0	0	0	0	533	463	0	0	0	0	
5	0	0	0	0	531	462	0	0	0	0	
6	0	0	0	0	531	462	0	0	0	0	
7	0	0	0	0	531	463	0	0	0	0	
8	0	0	0	0	532	465	0	0	0	0	
9	0	0	0	0	534	467	0	0	0	0	
10	0	0	0	0	536	470	0	0	0	0	
11	0	0	0	0	537	472	0	0	0	0	
12	0	0	0	0	539	473	0	0	0	0	
13	0	0	0	0	539	474	0	0	0	0	
14	0	0	0	0	540	474	0	0	0	0	
15	0	0	0	0	540	473	0	0	0	0	
0	0	0	0	0	539	472	0	0	0	0	
1	0	0	0	0	538	470	0	0	0	0	
2	0	0	0	0	536	469	0	0	0	0	
3	0	0	0	0	536	467	0	0	0	0	
4	0	0	0	0	534	466	0	0	0	0	
5	0	0	0	0	533	464	0	0	0	0	
6	0	0	0	0	532	464	0	0	0	0	
7	0	0	0	0	532	464	0	0	0	0	
8	0	0	0	0	533	465	0	0	0	0	
9	0	0	0	0	534	467	0	0	0	0	
10	0	0	0	0	536	470	0	0	0	0	
11	0	0	0	0	538	472	0	0	0	0	
12	0	0	0	0	540	475	0	0	0	0	
13	0	0	0	0	543	478	0	0	0	0	
14	0	0	0	0	544	480	0	0	0	0	
15	0	0	0	0	546	481	0	0	0	0	
0	0	0	0	0	547	482	0	0	0	0	
1	0	0	0	0	547	482	0	0	0	0	
2	0	0	0	0	546	481	0	0	0	0	
3	0	0	0	0	545	480	0	0	0	0	
4	0	0	0	0	544	479	0	0	0	0	
5	0	0	0	0	543	478	0	0	0	0	
6	0	0	0	0	544	477	0	0	0	0	
7	0	0	0	0	546	479	0	0	0	0	
8	0	0	0	0	549	481	0	0	0	0	
9	0	0	0	0	554	486	0	0	0	0	
10	0	0	0	0	560	491	0	0	0	0	
11	0	0	0	0	568	497	0	0	0	0	
12	0	0	0	0	576	504	0	0	0	0	
13	0	0	0	0	584	511	0	0	0	0	
14	0	0	0	0	593	519	0	0	0	0	
15	0	0	0	0	601	526	0	0	0	0	
0	0	0	0	0	607	531	0	0	0	0	
1	0	0	0	0	611	535	0	0	0	0	
2	0	0	0	0	612	536	0	0	0	0	
3	0	0	0	0	610	535	0	0	0	0	
4	0	0	0	0	605	531	0	0	0	0	
5	0	0	0	0	596	524	0	0	0	0	
6	0	0	0	0	585	515	0	0	0	0	
7	0	0	0	0	573	505	0	0	0	0	
8	0	0	0	0	559	495	0	0	0	0	
9	0	0	0	0	545	484	0	0	0	0	
10	0	0	0	0	532	473	0	0	0	0	
11	0	0	0	0	523	465	0	0	0	0	
12	0	0	0	0	515	459	0	0	0	0	
13	0	0	0	0	510	453	0	0	0	0	
14	0	0	0	0	508	450	0	0	0	0	
15	0	0	0	0	508	450	0	0	0	0	
0	0	0	0	0	511	451	0	0	0	0	
1	0	0	0	0	516	454	0	0	0	0	
2	0	0	0	0	523	457	0	0	0	0	
3	0	0	0	0	531	462	0	0	0	0	
4	0	0	0	0	538	467	0	0	0	0	
5	0	0	0	0	546	473	0	0	0	0	
6	0	0	0	0	553	479	0	0	0	0	
7	0	0	0	0	558	483	0	0	0	0	
8	0	0	0	0	562	487	0	0	0	0	
9	0	0	0	0	564	490	0	0	0	0	
10	0	0	0	0	565	492	0	0	0	0	
11	0	0	0	0	565	492	0	0	0	0	
12	0	0	0	0	563	492	0	0	0	0	
13	0	0	0	0	560	490	0	0	0	0	
14	0	0	0	0	557	487	0	0	0	0	
15	0	0	0	0	553	485	0	0	0	0	
0	0	0	0	0	549	482	0	0	0	0	
1	0	0	0	0	546	480	0	0	0	0	
2	0	0	0	0	543	477	0	0	0	0	
3	0	0	0	0	541	476	0	0	0	0	
4	0	0	0	0	540	475	0	0	0	0	
5	0	0	0	0	540	475	0	0	0	0	
6	0	0	0	0	542	477	0	0	0	0	
7	0	0	0	0	544	480	0	0	0	0	
8	0	0	0	0	548	484	0	0	0	0	
9	0	0	0	0	553	488	0	0	0	0	
10	0	0	0	0	558	494	0	0	0	0	
11	0	0	0	0	564	500	0	0	0	0	
12	0	0	0	0	571	505	0	0	0	0	
13	0	0	0	0	576	511	0	0	0	0	
14	0	0	0	0	581	514	0	0	0	0	
15	0	0	0	0	584	517	0	0	0	0	
0	0	0	0	0	585	518	0	0	0	0	
1	0	0	0	0	585	517	0	0	0	0	
2	0	0	0	0	583	515	0	0	0	0	
3	0	0	0	0	580	512	0	0	0	0	
4	0	0	0	0	575	507	0	0	0	0	
5	0	0	0	0	569	502	0	0	0	0	
6	0	0	0	0	562	497	0	0	0	0	
7	0	0	0	0	555	492	0	0	0	0	
8	0	0	0	0	549	487	0	0	0	0	
9	0	0	0	0	543	483	0	0	0	0	
10	0	0	0	0	539	480	0	0	0	0	
11	0	0	0	0	535	477	0	0	0	0	
12	0	0	0	0	531	475	0	0	0	0	
13	0	0	0	0	529	474	0	0	0	0	
14	0	0	0	0	527	472	0	0	0	0	
15	0	0	0	0	527	472	0	0	0	0	
0	0	0	0	0	525	470	0	0	0	0	
1	0	0	0	0	524	468	0	0	0	0	
2	0	0	0	0	524	466	0	0	0	0	
3	0	0	0	0	523	463	0	0	0	0	
4	0	0	0	0	523	461	0	0	0	0	
5	0	0	0	0	523	459	0	0	0	0	
6	0	0	0	0	523	457	0	0	0	0	
7	0	0	0	0	524	457	0	0	0	0	
8	0	0	0	0	526	457	0	0	0	0	
9	0	0	0	0	527	457	0	0	0	0	
10	0	0	0	0	529	459	0	0	0	0	
11	0	0	0	0	532	462	0	0	0	0	
12	0	0	0	0	535	464	0	0	0	0	
13	0	0	0	0	538	468	0	0	0	0	
14	0	0	0	0	541	471	0	0	0	0	
15	0	0	0	0	543	474	0	0	0	0	
0	0	0	0	0	545	477	0	0	0	0	
1	0	0	0	0	548	480	0	0	0	0	
2	0	0	0	0	550	483	0	0	0	0	
3	0	0	0	0	551	485	0	0	0	0	
4	0	0	0	0	553	487	0	0	0	0	
5	0	0	0	0	555	488	0	0	0	0	
6	0	0	0	0	556	489	0	0	0	0	
7	0	0	0	0	557	490	0	0	0	0	
8	0	0	0	0	557	490	0	0	0	0	
9	0	0	0	0	557	489	0	0	0	0	
10	0	0	0	0	556	488	0	0	0	0	
11	0	0	0	0	556	488	0	0	0	0	
12	0	0	0	0	555	487	0	0	0	0	
13	0	0	0	0	554	486	0	0	0	0	
14	0	0	0	0	553	485	0	0	0	0	
15	0	0	0	0	552	485	0	0	0	0	
0	0	0	0	0	552	485	0	0	0	0	
1	0	0	0	0	552	485	0	0	0	0	
2	0	0	0	0	552	485	0	0	0	0	
3	0	0	0	0	552	486	0	0	0	0	
4	0	0	0	0	551	486	0	0	0	0	
5	0	0	0	0	551	486	0	0	0	0	
6	0	0	0	0	551	486	0	0	0	0	
7	0	0	0	0	549	486	0	0	0	0	
8	0	0	0	0	546	484	0	0	0	0	
9	0	0	0	0	543	482	0	0	0	0	
10	0	0	0	0	540	480	0	0	0	0	
11	0	0	0	0	536	477	0	0	0	0	
12	0	0	0	0	533	474	0	0	0	0	
13	0	0	0	0	529	472	0	0	0	0	
14	0	0	0	0	527	469	0	0	0	0	
15	0	0	0	0	524	467	0	0	0	0	
0	0	0	0	0	523	465	0	0	0	0	
1	0	0	0	0	523	464	0	0	0	0	
2	0	0	0	0	523	464	0	0	0	0	
3	0	0	0	0	524	465	0	0	0	0	
4	0	0	0	0	527	467	0	0	0	0	
5	0	0	0	0	531	469	0	0	0	0	
6	0	0	0	0	536	473	0	0	0	0	
7	0	0	0	0	541	476	0	0	0	0	
8	0	0	0	0	546	481	0	0	0	0	
9	0	0	0	0	551	485	0	0	0	0	
10	0	0	0	0	556	489	0	0	0	0	
11	0	0	0	0	561	493	0	0	0	0	
12	0	0	0	0	564	496	0	0	0	0	
13	0	0	0	0	566	497	0	0	0	0	
14	0	0	0	0	567	499	0	0	0	0	
15	0	0	0	0	566	498	0	0	0	0	
0	0	0	0	0	564	497	0	0	0	0	
1	0	0	0	0	560	495	0	0	0	0	
2	0	0	0	0	557	492	0	0	0	0	
3	0	0	0	0	553	490	0	0	0	0	
4	0	0	0	0	551	488	0	0	0	0	
5	0	0	0	0	548	487	0	0	0	0	
6	0	0	0	0	547	486	0	0	0	0	
7	0	0	0	0	547	486	0	0	0	0	
8	0	0	0	0	547	486	0	0	0	0	
9	0	0	0	0	547	487	0	0	0	0	
10	0	0	0	0	549	487	0	0	0	0	
11	0	0	0	0	550	489	0	0	0	0	
12	0	0	0	0	551	490	0	0	0	0	
13	0	0	0	0	553	491	0	0	0	0	
14	0	0	0	0	553	491	0	0	0	0	
15	0	0	0	0	553	491	0	0	0	0	
0	0	0	0	0	552	491	0	0	0	0	
1	0	0	0	0	551	489	0	0	0	0	
2	0	0	0	0	549	487	0	0	0	0	
3	0	0	0	0	547	486	0	0	0	0	
4	0	0	0	0	544	483	0	0	0	0	
5	0	0	0	0	542	482	0	0	0	0	
6	0	0	0	0	540	480	0	0	0	0	
7	0	0	0	0	540	480	0	0	0	0	
8	0	0	0	0	540	479	0	0	0	0	
9	0	0	0	0	541	479	0	0	0	0	
10	0	0	0	0	543	480	0	0	0	0	
11	0	0	0	0	545	481	0	0	0	0	
12	0	0	0	0	549	484	0	0	0	0	
13	0	0	0	0	554	488	0	0	0	0	
14	0	0	0	0	560	493	0	0	0	0	
15	0	0	0	0	566	498	0	0	0	0	
0	0	0	0	0	572	504	0	0	0	0	
1	0	0	0	0	577	508	0	0	0	0	
2	0	0	0	0	580	512	0	0	0	0	
3	0	0	0	0	582	515	0	0	0	0	
4	0	0	0	0	582	515	0	0	0	0	
5	0	0	0	0	578	514	0	0	0	0	
6	0	0	0	0	572	510	0	0	0	0	
7	0	0	0	0	563	504	0	0	0	0	
8	0	0	0	0	553	496	0	0	0	0	
9	0	0	0	0	543	488	0	0	0	0	
10	0	0	0	0	531	479	0	0	0	0	
11	0	0	0	0	521	471	0	0	0	0	
12	0	0	0	0	513	463	0	0	0	0	
13	0	0	0	0	506	457	0	0	0	0	
14	0	0	0	0	501	452	0	0	0	0	
15	0	0	0	0	499	450	0	0	0	0	
0	0	0	0	0	500	450	0	0	0	0	
1	0	0	0	0	504	452	0	0	0	0	
2	0	0	0	0	510	455	0	0	0	0	
3	0	0	0	0	517	460	0	0	0	0	
4	0	0	0	0	525	466	0	0	0	0	
5	0	0	0	0	534	472	0	0	0	0	
6	0	0	0	0	542	478	0	0	0	0	
7	0	0	0	0	548	482	0	0	0	0	
8	0	0	0	0	552	486	0	0	0	0	
9	0	0	0	0	555	488	0	0	0	0	
10	0	0	0	0	556	489	0	0	0	0	
11	0	0	0	0	556	489	0	0	0	0	
12	0	0	0	0	554	489	0	0	0	0	
13	0	0	0	0	552	488	0	0	0	0	
14	0	0	0	0	549	487	0	0	0	0	
15	0	0	0	0	547	486	0	0	0	0	
0	0	0	0	0	545	485	0	0	0	0	
1	0	0	0	0	544	484	0	0	0	0	
2	0	0	0	0	543	484	0	0	0	0	
3	0	0	0	0	543	484	0	0	0	0	
4	0	0	0	0	543	484	0	0	0	0	
5	0	0	0	0	544	485	0	0	0	0	
6	0	0	0	0	545	486	0	0	0	0	
7	0	0	0	0	545	486	0	0	0	0	
8	0	0	0	0	545	486	0	0	0	0	
9	0	0	0	0	546	486	0	0	0	0	
10	0	0	0	0	545	486	0	0	0	0	
11	0	0	0	0	545	485	0	0	0	0	
12	0	0	0	0	545	485	0	0	0	0	
13	0	0	0	0	546	485	0	0	0	0	
14	0	0	0	0	546	485	0	0	0	0	
15	0	0	0	0	547	484	0	0	0	0	
0	0	0	0	0	548	485	0	0	0	0	
1	0	0	0	0	549	485	0	0	0	0	
2	0	0	0	0	550	485	0	0	0	0	
3	0	0	0	0	550	485	0	0	0	0	
4	0	0	0	0	550	485	0	0	0	0	
5	0	0	0	0	550	485	0	0	0	0	
6	0	0	0	0	548	483	0	0	0	0	
7	0	0	0	0	546	482	0	0	0	0	
8	0	0	0	0	544	481	0	0	0	0	
9	0	0	0	0	541	480	0	0	0	0	
10	0	0	0	0	538	477	0	0	0	0	
11	0	0	0	0	535	475	0	0	0	0	
12	0	0	0	0	531	473	0	0	0	0	
13	0	0	0	0	528	471	0	0	0	0	
14	0	0	0	0	524	468	0	0	0	0	
15	0	0	0	0	521	466	0	0	0	0	
0	0	0	0	0	519	464	0	0	0	0	
1	0	0	0	0	517	463	0	0	0	0	
2	0	0	0	0	517	462	0	0	0	0	
3	0	0	0	0	517	462	0	0	0	0	
4	0	0	0	0	518	462	0	0	0	0	
5	0	0	0	0	519	463	0	0	0	0	
6	0	0	0	0	522	464	0	0	0	0	
7	0	0	0	0	525	465	0	0	0	0	
8	0	0	0	0	528	467	0	0	0	0	
9	0	0	0	0	531	470	0	0	0	0	
10	0	0	0	0	535	472	0	0	0	0	
11	0	0	0	0	537	474	0	0	0	0	
12	0	0	0	0	540	476	0	0	0	0	
13	0	0	0	0	543	479	0	0	0	0	
14	0	0	0	0	545	481	0	0	0	0	
15	0	0	0	0	546	483	0	0	0	0	
0	0	0	0	0	548	484	0	0	0	0	
1	0	0	0	0	549	486	0	0	0	0	
2	0	0	0	0	550	488	0	0	0	0	
3	0	0	0	0	551	489	0	0	0	0	
4	0	0	0	0	551	491	0	0	0	0	
5	0	0	0	0	551	491	0	0	0	0	
6	0	0	0	0	551	492	0	0	0	0	
7	0	0	0	0	551	492	0	0	0	0	
8	0	0	0	0	551	493	0	0	0	0	
9	0	0	0	0	551	494	0	0	0	0	
10	0	0	0	0	552	494	0	0	0	0	
11	0	0	0	0	555	496	0	0	0	0	
12	0	0	0	0	559	498	0	0	0	0	
13	0	0	0	0	563	501	0	0	0	0	
14	0	0	0	0	568	505	0	0	0	0	
15	0	0	0	0	574	510	0	0	0	0	
0	0	0	0	0	580	514	0	0	0	0	
1	0	0	0	0	585	519	0	0	0	0	
2	0	0	0	0	590	522	0	0	0	0	
3	0	0	0	0	591	523	0	0	0	0	
4	0	0	0	0	589	522	0	0	0	0	
5	0	0	0	0	585	519	0	0	0	0	
6	0	0	0	0	577	514	0	0	0	0	
7	0	0	0	0	568	506	0	0	0	0	
8	0	0	0	0	555	496	0	0	0	0	
9	0	0	0	0	542	487	0	0	0	0	
10	0	0	0	0	528	476	0	0	0	0	
11	0	0	0	0	516	465	0	0	0	0	
12	0	0	0	0	506	455	0	0	0	0	
13	0	0	0	0	497	448	0	0	0	0	
14	0	0	0	0	492	442	0	0	0	0	
15	0	0	0	0	489	439	0	0	0	0	
0	0	0	0	0	490	438	0	0	0	0	
1	0	0	0	0	494	439	0	0	0	0	
2	0	0	0	0	499	443	0	0	0	0	
3	0	0	0	0	507	448	0	0	0	0	
4	0	0	0	0	516	455	0	0	0	0	
5	0	0	0	0	526	462	0	0	0	0	
6	0	0	0	0	536	469	0	0	0	0	
7	0	0	0	0	544	476	0	0	0	0	
8	0	0	0	0	551	483	0	0	0	0	
9	0	0	0	0	558	489	0	0	0	0	
10	0	0	0	0	563	494	0	0	0	0	
11	0	0	0	0	566	498	0	0	0	0	
12	0	0	0	0	567	501	0	0	0	0	
13	0	0	0	0	567	502	0	0	0	0	
14	0	0	0	0	565	503	0	0	0	0	
15	0	0	0	0	562	502	0	0	0	0	
0	0	0	0	0	559	500	0	0	0	0	
1	0	0	0	0	554	497	0	0	0	0	
2	0	0	0	0	550	494	0	0	0	0	
3	0	0	0	0	545	489	0	0	0	0	
4	0	0	0	0	541	485	0	0	0	0	
5	0	0	0	0	536	480	0	0	0	0	
6	0	0	0	0	531	474	0	0	0	0	
7	0	0	0	0	526	468	0	0	0	0	
8	0	0	0	0	520	461	0	0	0	0	
9	0	0	0	0	513	454	0	0	0	0	
10	0	0	0	0	504	446	0	0	0	0	
11	0	0	0	0	496	438	0	0	0	0	
12	0	0	0	0	486	429	0	0	0	0	
13	0	0	0	0	476	420	0	0	0	0	
14	0	0	0	0	467	412	0	0	0	0	
15	0	0	0	0	457	402	0	0	0	0	
0	0	0	0	0	446	392	0	0	0	0	
1	0	0	0	0	435	382	0	0	0	0	
2	0	0	0	0	423	371	0	0	0	0	
3	0	0	0	0	411	358	0	0	0	0	
4	0	0	0	0	397	344	0	0	0	0	
5	0	0	0	0	382	328	0	0	0	0	
6	0	0	0	0	367	313	0	0	0	0	
7	0	0	0	0	351	296	0	0	0	0	
8	0	0	0	0	336	280	0	0	0	0	
9	0	0	0	0	322	265	0	0	0	0	
10	0	0	0	0	310	251	0	0	0	0	
11	0	0	0	0	299	240	0	0	0	0	
12	0	0	0	0	292	232	0	0	0	0	
13	0	0	0	0	289	228	0	0	0	0	
14	0	0	0	0	290	227	0	0	0	0	
15	0	0	0	0	295	231	0	0	0	0	
0	0	0	0	0	306	240	0	0	0	0	
1	0	0	0	0	320	253	0	0	0	0	
2	0	0	0	0	339	270	0	0	0	0	
3	0	0	0	0	362	291	0	0	0	0	
4	0	0	0	0	387	313	0	0	0	0	
5	0	0	0	0	414	338	0	0	0	0	
6	0	0	0	0	442	364	0	0	0	0	
7	0	0	0	0	470	391	0	0	0	0	
8	0	0	0	0	496	415	0	0	0	0	
9	0	0	0	0	520	438	0	0	0	0	
10	0	0	0	0	541	459	0	0	0	0	
11	0	0	0	0	559	476	0	0	0	0	
12	0	0	0	0	572	490	0	0	0	0	
13	0	0	0	0	581	500	0	0	0	0	
14	0	0	0	0	586	507	0	0	0	0	
15	0	0	0	0	588	511	0	0	0	0	
0	0	0	0	0	586	513	0	0	0	0	
1	0	0	0	0	582	512	0	0	0	0	
2	0	0	0	0	576	510	0	0	0	0	
3	0	0	0	0	569	507	0	0	0	0	
4	0	0	0	0	563	504	0	0	0	0	
5	0	0	0	0	558	501	0	0	0	0	
6	0	0	0	0	553	499	0	0	0	0	
7	0	0	0	0	550	496	0	0	0	0	
8	0	0	0	0	547	495	0	0	0	0	
9	0	0	0	0	546	494	0	0	0	0	
10	0	0	0	0	545	492	0	0	0	0	
11	0	0	0	0	545	490	0	0	0	0	
12	0	0	0	0	545	489	0	0	0	0	
13	0	0	0	0	544	487	0	0	0	0	
14	0	0	0	0	544	485	0	0	0	0	
15	0	0	0	0	544	484	0	0	0	0	
0	0	0	0	0	545	483	0	0	0	0	
1	0	0	0	0	547	484	0	0	0	0	
2	0	0	0	0	548	485	0	0	0	0	
3	0	0	0	0	551	487	0	0	0	0	
4	0	0	0	0	555	490	0	0	0	0	
5	0	0	0	0	559	494	0	0	0	0	
6	0	0	0	0	564	499	0	0	0	0	
7	0	0	0	0	570	505	0	0	0	0	
8	0	0	0	0	576	512	0	0	0	0	
9	0	0	0	0	582	519	0	0	0	0	
10	0	0	0	0	588	526	0	0	0	0	
11	0	0	0	0	593	531	0	0	0	0	
12	0	0	0	0	596	536	0	0	0	0	
13	0	0	0	0	597	537	0	0	0	0	
14	0	0	0	0	595	536	0	0	0	0	
15	0	0	0	0	591	533	0	0	0	0	
0	0	0	0	0	584	527	0	0	0	0	
1	0	0	0	0	575	519	0	0	0	0	
2	0	0	0	0	566	510	0	0	0	0	
3	0	0	0	0	556	502	0	0	0	0	
4	0	0	0	0	547	493	0	0	0	0	
5	0	0	0	0	540	486	0	0	0	0	
6	0	0	0	0	535	481	0	0	0	0	
7	0	0	0	0	532	478	0	0	0	0	
8	0	0	0	0	533	478	0	0	0	0	
9	0	0	0	0	536	480	0	0	0	0	
10	0	0	0	0	540	484	0	0	0	0	
11	0	0	0	0	545	488	0	0	0	0	
12	0	0	0	0	552	495	0	0	0	0	
13	0	0	0	0	559	500	0	0	0	0	
14	0	0	0	0	565	505	0	0	0	0	
15	0	0	0	0	570	509	0	0	0	0	
0	0	0	0	0	574	512	0	0	0	0	
1	0	0	0	0	575	513	0	0	0	0	
2	0	0	0	0	576	513	0	0	0	0	
3	0	0	0	0	575	512	0	0	0	0	
4	0	0	0	0	573	509	0	0	0	0	
5	0	0	0	0	568	506	0	0	0	0	
6	0	0	0	0	563	502	0	0	0	0	
7	0	0	0	0	557	496	0	0	0	0	
8	0	0	0	0	550	491	0	0	0	0	
9	0	0	0	0	543	486	0	0	0	0	
10	0	0	0	0	537	481	0	0	0	0	
11	0	0	0	0	532	477	0	0	0	0	
12	0	0	0	0	527	474	0	0	0	0	
13	0	0	0	0	526	473	0	0	0	0	
14	0	0	0	0	525	473	0	0	0	0	
15	0	0	0	0	527	474	0	0	0	0	
0	0	0	0	0	530	476	0	0	0	0	
1	0	0	0	0	535	480	0	0	0	0	
2	0	0	0	0	541	484	0	0	0	0	
3	0	0	0	0	547	489	0	0	0	0	
4	0	0	0	0	554	494	0	0	0	0	
5	0	0	0	0	560	499	0	0	0	0	
6	0	0	0	0	566	503	0	0	0	0	
7	0	0	0	0	571	506	0	0	0	0	
8	0	0	0	0	574	508	0	0	0	0	
9	0	0	0	0	575	509	0	0	0	0	
10	0	0	0	0	575	508	0	0	0	0	
11	0	0	0	0	573	506	0	0	0	0	
12	0	0	0	0	570	504	0	0	0	0	
13	0	0	0	0	565	499	0	0	0	0	
14	0	0	0	0	560	495	0	0	0	0	
15	0	0	0	0	554	491	0	0	0	0	
0	0	0	0	0	548	486	0	0	0	0	
1	0	0	0	0	543	482	0	0	0	0	
2	0	0	0	0	539	479	0	0	0	0	
3	0	0	0	0	536	476	0	0	0	0	
4	0	0	0	0	534	475	0	0	0	0	
5	0	0	0	0	534	476	0	0	0	0	
6	0	0	0	0	535	477	0	0	0	0	
7	0	0	0	0	538	479	0	0	0	0	
8	0	0	0	0	540	482	0	0	0	0	
9	0	0	0	0	544	485	0	0	0	0	
10	0	0	0	0	548	488	0	0	0	0	
11	0	0	0	0	551	491	0	0	0	0	
12	0	0	0	0	555	493	0	0	0	0	
13	0	0	0	0	558	494	0	0	0	0	
14	0	0	0	0	560	496	0	0	0	0	
15	0	0	0	0	561	496	0	0	0	0	
0	0	0	0	0	563	497	0	0	0	0	
1	0	0	0	0	563	498	0	0	0	0	
2	0	0	0	0	564	499	0	0	0	0	
3	0	0	0	0	564	500	0	0	0	0	
4	0	0	0	0	565	502	0	0	0	0	
5	0	0	0	0	566	504	0	0	0	0	
6	0	0	0	0	567	507	0	0	0	0	
7	0	0	0	0	569	510	0	0	0	0	
8	0	0	0	0	570	513	0	0	0	0	
9	0	0	0	0	572	516	0	0	0	0	
10	0	0	0	0	575	519	0	0	0	0	
11	0	0	0	0	576	521	0	0	0	0	
12	0	0	0	0	577	522	0	0	0	0	
13	0	0	0	0	577	521	0	0	0	0	
14	0	0	0	0	575	519	0	0	0	0	
15	0	0	0	0	573	516	0	0	0	0	
0	0	0	0	0	570	512	0	0	0	0	
1	0	0	0	0	566	506	0	0	0	0	
2	0	0	0	0	560	500	0	0	0	0	
3	0	0	0	0	555	494	0	0	0	0	
4	0	0	0	0	550	488	0	0	0	0	
5	0	0	0	0	545	483	0	0	0	0	
6	0	0	0	0	542	480	0	0	0	0	
7	0	0	0	0	541	478	0	0	0	0	
8	0	0	0	0	541	478	0	0	0	0	
9	0	0	0	0	543	480	0	0	0	0	
10	0	0	0	0	547	483	0	0	0	0	
11	0	0	0	0	552	488	0	0	0	0	
12	0	0	0	0	558	495	0	0	0	0	
13	0	0	0	0	565	501	0	0	0	0	
14	0	0	0	0	571	507	0	0	0	0	
15	0	0	0	0	575	512	0	0	0	0	
0	0	0	0	0	576	514	0	0	0	0	
1	0	0	0	0	575	513	0	0	0	0	
2	0	0	0	0	571	511	0	0	0	0	
3	0	0	0	0	563	505	0	0	0	0	
4	0	0	0	0	554	497	0	0	0	0	
5	0	0	0	0	542	487	0	0	0	0	
6	0	0	0	0	530	476	0	0	0	0	
7	0	0	0	0	518	465	0	0	0	0	
8	0	0	0	0	507	456	0	0	0	0	
9	0	0	0	0	499	448	0	0	0	0	
10	0	0	0	0	493	443	0	0	0	0	
11	0	0	0	0	490	440	0	0	0	0	
12	0	0	0	0	492	440	0	0	0	0	
13	0	0	0	0	496	442	0	0	0	0	
14	0	0	0	0	503	447	0	0	0	0	
15	0	0	0	0	511	452	0	0	0	0	
0	0	0	0	0	519	460	0	0	0	0	
1	0	0	0	0	529	467	0	0	0	0	
2	0	0	0	0	538	474	0	0	0	0	
3	0	0	0	0	546	480	0	0	0	0	
4	0	0	0	0	552	485	0	0	0	0	
5	0	0	0	0	556	489	0	0	0	0	
6	0	0	0	0	559	492	0	0	0	0	
7	0	0	0	0	559	492	0	0	0	0	
8	0	0	0	0	558	492	0	0	0	0	
9	0	0	0	0	555	490	0	0	0	0	
10	0	0	0	0	551	488	0	0	0	0	
11	0	0	0	0	547	485	0	0	0	0	
12	0	0	0	0	542	482	0	0	0	0	
13	0	0	0	0	537	480	0	0	0	0	
14	0	0	0	0	534	477	0	0	0	0	
15	0	0	0	0	531	476	0	0	0	0	
0	0	0	0	0	530	475	0	0	0	0	
1	0	0	0	0	530	475	0	0	0	0	
2	0	0	0	0	531	475	0	0	0	0	
3	0	0	0	0	532	477	0	0	0	0	
4	0	0	0	0	536	479	0	0	0	0	
5	0	0	0	0	539	482	0	0	0	0	
6	0	0	0	0	543	485	0	0	0	0	
7	0	0	0	0	547	488	0	0	0	0	
8	0	0	0	0	550	491	0	0	0	0	
9	0	0	0	0	551	492	0	0	0	0	
10	0	0	0	0	552	493	0	0	0	0	
11	0	0	0	0	553	493	0	0	0	0	
12	0	0	0	0	552	493	0	0	0	0	
13	0	0	0	0	551	492	0	0	0	0	
14	0	0	0	0	550	492	0	0	0	0	
15	0	0	0	0	550	491	0	0	0	0	
0	0	0	0	0	551	492	0	0	0	0	
1	0	0	0	0	551	492	0	0	0	0	
2	0	0	0	0	551	492	0	0	0	0	
3	0	0	0	0	552	492	0	0	0	0	
4	0	0	0	0	553	493	0	0	0	0	
5	0	0	0	0	553	492	0	0	0	0	
6	0	0	0	0	552	492	0	0	0	0	
7	0	0	0	0	551	490	0	0	0	0	
8	0	0	0	0	549	488	0	0	0	0	
9	0	0	0	0	547	486	0	0	0	0	
10	0	0	0	0	545	484	0	0	0	0	
11	0	0	0	0	542	483	0	0	0	0	
12	0	0	0	0	540	481	0	0	0	0	
13	0	0	0	0	538	480	0	0	0	0	
14	0	0	0	0	536	479	0	0	0	0	
15	0	0	0	0	536	478	0	0	0	0	
0	0	0	0	0	536	477	0	0	0	0	
1	0	0	0	0	536	476	0	0	0	0	
2	0	0	0	0	536	476	0	0	0	0	
3	0	0	0	0	537	476	0	0	0	0	
4	0	0	0	0	538	476	0	0	0	0	
5	0	0	0	0	539	476	0	0	0	0	
6	0	0	0	0	540	476	0	0	0	0	
7	0	0	0	0	540	476	0	0	0	0	
8	0	0	0	0	542	478	0	0	0	0	
9	0	0	0	0	543	480	0	0	0	0	
10	0	0	0	0	545	482	0	0	0	0	
11	0	0	0	0	547	484	0	0	0	0	
12	0	0	0	0	548	487	0	0	0	0	
13	0	0	0	0	550	489	0	0	0	0	
14	0	0	0	0	551	491	0	0	0	0	
15	0	0	0	0	552	493	0	0	0	0	
0	0	0	0	0	553	494	0	0	0	0	
1	0	0	0	0	552	494	0	0	0	0	
2	0	0	0	0	552	493	0	0	0	0	
3	0	0	0	0	552	492	0	0	0	0	
4	0	0	0	0	551	491	0	0	0	0	
5	0	0	0	0	551	489	0	0	0	0	
6	0	0	0	0	550	488	0	0	0	0	
7	0	0	0	0	550	487	0	0	0	0	
8	0	0	0	0	550	486	0	0	0	0	
9	0	0	0	0	551	487	0	0	0	0	
10	0	0	0	0	552	487	0	0	0	0	
11	0	0	0	0	553	489	0	0	0	0	
12	0	0	0	0	556	491	0	0	0	0	
13	0	0	0	0	558	494	0	0	0	0	
14	0	0	0	0	560	496	0	0	0	0	
15	0	0	0	0	561	498	0	0	0	0	
0	0	0	0	0	561	499	0	0	0	0	
1	0	0	0	0	561	499	0	0	0	0	
2	0	0	0	0	559	498	0	0	0	0	
3	0	0	0	0	556	496	0	0	0	0	
4	0	0	0	0	551	494	0	0	0	0	
5	0	0	0	0	547	490	0	0	0	0	
6	0	0	0	0	542	486	0	0	0	0	
7	0	0	0	0	537	482	0	0	0	0	
8	0	0	0	0	532	478	0	0	0	0	
9	0	0	0	0	529	475	0	0	0	0	
10	0	0	0	0	526	471	0	0	0	0	
11	0	0	0	0	524	470	0	0	0	0	
12	0	0	0	0	524	468	0	0	0	0	
13	0	0	0	0	524	468	0	0	0	0	
14	0	0	0	0	526	468	0	0	0	0	
15	0	0	0	0	529	470	0	0	0	0	
0	0	0	0	0	533	473	0	0	0	0	
1	0	0	0	0	539	478	0	0	0	0	
2	0	0	0	0	544	482	0	0	0	0	
3	0	0	0	0	550	487	0	0	0	0	
4	0	0	0	0	556	494	0	0	0	0	
5	0	0	0	0	562	498	0	0	0	0	
6	0	0	0	0	567	502	0	0	0	0	
7	0	0	0	0	569	505	0	0	0	0	
8	0	0	0	0	571	507	0	0	0	0	
9	0	0	0	0	571	507	0	0	0	0	
10	0	0	0	0	569	506	0	0	0	0	
11	0	0	0	0	566	504	0	0	0	0	
12	0	0	0	0	562	501	0	0	0	0	
13	0	0	0	0	557	496	0	0	0	0	
14	0	0	0	0	551	492	0	0	0	0	
15	0	0	0	0	546	488	0	0	0	0	
0	0	0	0	0	541	483	0	0	0	0	
1	0	0	0	0	537	480	0	0	0	0	
2	0	0	0	0	534	478	0	0	0	0	
3	0	0	0	0	531	476	0	0	0	0	
4	0	0	0	0	530	475	0	0	0	0	
5	0	0	0	0	530	476	0	0	0	0	
6	0	0	0	0	531	476	0	0	0	0	
7	0	0	0	0	534	478	0	0	0	0	
8	0	0	0	0	536	480	0	0	0	0	
9	0	0	0	0	539	481	0	0	0	0	
10	0	0	0	0	542	483	0	0	0	0	
11	0	0	0	0	545	485	0	0	0	0	
12	0	0	0	0	548	487	0	0	0	0	
13	0	0	0	0	550	487	0	0	0	0	
14	0	0	0	0	552	489	0	0	0	0	
15	0	0	0	0	553	489	0	0	0	0	
0	0	0	0	0	553	489	0	0	0	0	
1	0	0	0	0	553	489	0	0	0	0	
2	0	0	0	0	551	487	0	0	0	0	
3	0	0	0	0	551	487	0	0	0	0	
4	0	0	0	0	549	486	0	0	0	0	
5	0	0	0	0	547	485	0	0	0	0	
6	0	0	0	0	547	484	0	0	0	0	
7	0	0	0	0	546	484	0	0	0	0	
8	0	0	0	0	546	486	0	0	0	0	
9	0	0	0	0	547	487	0	0	0	0	
10	0	0	0	0	549	490	0	0	0	0	
11	0	0	0	0	551	492	0	0	0	0	
12	0	0	0	0	554	496	0	0	0	0	
13	0	0	0	0	557	499	0	0	0	0	
14	0	0	0	0	560	502	0	0	0	0	
15	0	0	0	0	562	504	0	0	0	0	
0	0	0	0	0	565	507	0	0	0	0	
1	0	0	0	0	567	508	0	0	0	0	
2	0	0	0	0	568	509	0	0	0	0	
3	0	0	0	0	568	509	0	0	0	0	
4	0	0	0	0	567	508	0	0	0	0	
5	0	0	0	0	565	505	0	0	0	0	
6	0	0	0	0	562	502	0	0	0	0	
7	0	0	0	0	559	499	0	0	0	0	
8	0	0	0	0	556	495	0	0	0	0	
9	0	0	0	0	552	491	0	0	0	0	
10	0	0	0	0	548	487	0	0	0	0	
11	0	0	0	0	545	484	0	0	0	0	
12	0	0	0	0	543	482	0	0	0	0	
13	0	0	0	0	542	480	0	0	0	0	
14	0	0	0	0	540	479	0	0	0	0	
15	0	0	0	0	540	479	0	0	0	0	
0	0	0	0	0	540	479	0	0	0	0	
1	0	0	0	0	540	480	0	0	0	0	
2	0	0	0	0	542	481	0	0	0	0	
3	0	0	0	0	543	483	0	0	0	0	
4	0	0	0	0	545	485	0	0	0	0	
5	0	0	0	0	546	487	0	0	0	0	
6	0	0	0	0	548	488	0	0	0	0	
7	0	0	0	0	550	490	0	0	0	0	
8	0	0	0	0	551	491	0	0	0	0	
9	0	0	0	0	552	491	0	0	0	0	
10	0	0	0	0	552	491	0	0	0	0	
11	0	0	0	0	553	491	0	0	0	0	
12	0	0	0	0	553	491	0	0	0	0	
13	0	0	0	0	552	490	0	0	0	0	
14	0	0	0	0	552	490	0	0	0	0	
15	0	0	0	0	552	491	0	0	0	0	
0	0	0	0	0	552	492	0	0	0	0	
1	0	0	0	0	554	494	0	0	0	0	
2	0	0	0	0	556	497	0	0	0	0	
3	0	0	0	0	559	500	0	0	0	0	
4	0	0	0	0	561	504	0	0	0	0	
5	0	0	0	0	566	509	0	0	0	0	
6	0	0	0	0	570	514	0	0	0	0	
7	0	0	0	0	574	519	0	0	0	0	
8	0	0	0	0	577	523	0	0	0	0	
9	0	0	0	0	579	525	0	0	0	0	
10	0	0	0	0	581	527	0	0	0	0	
11	0	0	0	0	580	526	0	0	0	0	
12	0	0	0	0	578	524	0	0	0	0	
13	0	0	0	0	574	520	0	0	0	0	
14	0	0	0	0	569	516	0	0	0	0	
15	0	0	0	0	564	511	0	0	0	0	
0	0	0	0	0	558	505	0	0	0	0	
1	0	0	0	0	551	499	0	0	0	0	
2	0	0	0	0	545	493	0	0	0	0	
3	0	0	0	0	540	488	0	0	0	0	
4	0	0	0	0	536	485	0	0	0	0	
5	0	0	0	0	534	483	0	0	0	0	
6	0	0	0	0	532	482	0	0	0	0	
7	0	0	0	0	533	483	0	0	0	0	
8	0	0	0	0	536	486	0	0	0	0	
9	0	0	0	0	539	488	0	0	0	0	
10	0	0	0	0	543	492	0	0	0	0	
11	0	0	0	0	548	496	0	0	0	0	
12	0	0	0	0	552	499	0	0	0	0	
13	0	0	0	0	556	503	0	0	0	0	
14	0	0	0	0	560	504	0	0	0	0	
15	0	0	0	0	561	505	0	0	0	0	
0	0	0	0	0	563	505	0	0	0	0	
1	0	0	0	0	563	505	0	0	0	0	
2	0	0	0	0	562	504	0	0	0	0	
3	0	0	0	0	561	503	0	0	0	0	
4	0	0	0	0	558	500	0	0	0	0	
5	0	0	0	0	556	498	0	0	0	0	
6	0	0	0	0	552	496	0	0	0	0	
7	0	0	0	0	549	494	0	0	0	0	
8	0	0	0	0	547	492	0	0	0	0	
9	0	0	0	0	545	490	0	0	0	0	
10	0	0	0	0	543	489	0	0	0	0	
11	0	0	0	0	542	489	0	0	0	0	
12	0	0	0	0	542	490	0	0	0	0	
13	0	0	0	0	542	490	0	0	0	0	
14	0	0	0	0	543	491	0	0	0	0	
15	0	0	0	0	543	492	0	0	0	0	
0	0	0	0	0	544	492	0	0	0	0	
1	0	0	0	0	544	492	0	0	0	0	
2	0	0	0	0	546	493	0	0	0	0	
3	0	0	0	0	547	493	0	0	0	0	
4	0	0	0	0	547	492	0	0	0	0	
5	0	0	0	0	547	492	0	0	0	0	
6	0	0	0	0	547	491	0	0	0	0	
7	0	0	0	0	547	490	0	0	0	0	
8	0	0	0	0	546	489	0	0	0	0	
9	0	0	0	0	546	488	0	0	0	0	
10	0	0	0	0	546	488	0	0	0	0	
11	0	0	0	0	547	488	0	0	0	0	
12	0	0	0	0	548	490	0	0	0	0	
13	0	0	0	0	551	492	0	0	0	0	
14	0	0	0	0	553	495	0	0	0	0	
15	0	0	0	0	556	499	0	0	0	0	
0	0	0	0	0	560	503	0	0	0	0	
1	0	0	0	0	564	507	0	0	0	0	
2	0	0	0	0	568	512	0	0	0	0	
3	0	0	0	0	571	515	0	0	0	0	
4	0	0	0	0	574	519	0	0	0	0	
5	0	0	0	0	576	521	0	0	0	0	
6	0	0	0	0	577	523	0	0	0	0	
7	0	0	0	0	577	523	0	0	0	0	
8	0	0	0	0	575	521	0	0	0	0	
9	0	0	0	0	573	519	0	0	0	0	
10	0	0	0	0	569	515	0	0	0	0	
11	0	0	0	0	564	511	0	0	0	0	
12	0	0	0	0	560	507	0	0	0	0	
13	0	0	0	0	555	502	0	0	0	0	
14	0	0	0	0	550	497	0	0	0	0	
15	0	0	0	0	545	493	0	0	0	0	
0	0	0	0	0	542	490	0	0	0	0	
1	0	0	0	0	539	488	0	0	0	0	
2	0	0	0	0	538	487	0	0	0	0	
3	0	0	0	0	538	487	0	0	0	0	
4	0	0	0	0	539	487	0	0	0	0	
5	0	0	0	0	542	489	0	0	0	0	
6	0	0	0	0	545	492	0	0	0	0	
7	0	0	0	0	549	495	0	0	0	0	
8	0	0	0	0	553	497	0	0	0	0	
9	0	0	0	0	557	499	0	0	0	0	
10	0	0	0	0	560	502	0	0	0	0	
11	0	0	0	0	562	503	0	0	0	0	
12	0	0	0	0	563	503	0	0	0	0	
13	0	0	0	0	562	502	0	0	0	0	
14	0	0	0	0	560	500	0	0	0	0	
15	0	0	0	0	558	499	0	0	0	0	
0	0	0	0	0	555	497	0	0	0	0	
1	0	0	0	0	551	495	0	0	0	0	
2	0	0	0	0	548	493	0	0	0	0	
3	0	0	0	0	545	492	0	0	0	0	
4	0	0	0	0	543	492	0	0	0	0	
5	0	0	0	0	542	492	0	0	0	0	
6	0	0	0	0	542	493	0	0	0	0	
7	0	0	0	0	543	495	0	0	0	0	
8	0	0	0	0	544	497	0	0	0	0	
9	0	0	0	0	547	500	0	0	0	0	
10	0	0	0	0	550	504	0	0	0	0	
11	0	0	0	0	553	506	0	0	0	0	
12	0	0	0	0	557	509	0	0	0	0	
13	0	0	0	0	560	511	0	0	0	0	
14	0	0	0	0	562	512	0	0	0	0	
15	0	0	0	0	564	512	0	0	0	0	
0	0	0	0	0	564	511	0	0	0	0	
1	0	0	0	0	564	509	0	0	0	0	
2	0	0	0	0	562	506	0	0	0	0	
3	0	0	0	0	560	503	0	0	0	0	
4	0	0	0	0	557	500	0	0	0	0	
5	0	0	0	0	554	496	0	0	0	0	
6	0	0	0	0	551	494	0	0	0	0	
7	0	0	0	0	549	493	0	0	0	0	
8	0	0	0	0	549	492	0	0	0	0	
9	0	0	0	0	550	494	0	0	0	0	
10	0	0	0	0	552	496	0	0	0	0	
11	0	0	0	0	555	500	0	0	0	0	
12	0	0	0	0	559	504	0	0	0	0	
13	0	0	0	0	563	509	0	0	0	0	
14	0	0	0	0	568	514	0	0	0	0	
15	0	0	0	0	572	518	0	0	0	0	
0	0	0	0	0	575	521	0	0	0	0	
1	0	0	0	0	578	524	0	0	0	0	
2	0	0	0	0	580	525	0	0	0	0	
3	0	0	0	0	581	526	0	0	0	0	
4	0	0	0	0	581	525	0	0	0	0	
5	0	0	0	0	580	524	0	0	0	0	
6	0	0	0	0	577	520	0	0	0	0	
7	0	0	0	0	574	518	0	0	0	0	
8	0	0	0	0	569	513	0	0	0	0	
9	0	0	0	0	563	508	0	0	0	0	
10	0	0	0	0	558	503	0	0	0	0	
11	0	0	0	0	552	499	0	0	0	0	
12	0	0	0	0	548	496	0	0	0	0	
13	0	0	0	0	545	493	0	0	0	0	
14	0	0	0	0	544	492	0	0	0	0	
15	0	0	0	0	544	492	0	0	0	0	
0	0	0	0	0	545	493	0	0	0	0	
1	0	0	0	0	548	495	0	0	0	0	
2	0	0	0	0	551	498	0	0	0	0	
3	0	0	0	0	556	502	0	0	0	0	
4	0	0	0	0	560	505	0	0	0	0	
5	0	0	0	0	564	509	0	0	0	0	
6	0	0	0	0	568	512	0	0	0	0	
7	0	0	0	0	572	515	0	0	0	0	
8	0	0	0	0	574	517	0	0	0	0	
9	0	0	0	0	576	518	0	0	0	0	
10	0	0	0	0	576	518	0	0	0	0	
11	0	0	0	0	575	517	0	0	0	0	
12	0	0	0	0	573	514	0	0	0	0	
13	0	0	0	0	569	511	0	0	0	0	
14	0	0	0	0	564	506	0	0	0	0	
15	0	0	0	0	558	501	0	0	0	0	
0	0	0	0	0	551	496	0	0	0	0	
1	0	0	0	0	545	491	0	0	0	0	
2	0	0	0	0	539	486	0	0	0	0	
3	0	0	0	0	535	483	0	0	0	0	
4	0	0	0	0	531	480	0	0	0	0	
5	0	0	0	0	530	480	0	0	0	0	
6	0	0	0	0	529	480	0	0	0	0	
7	0	0	0	0	531	481	0	0	0	0	
8	0	0	0	0	532	482	0	0	0	0	
9	0	0	0	0	535	484	0	0	0	0	
10	0	0	0	0	538	486	0	0	0	0	
11	0	0	0	0	541	488	0	0	0	0	
12	0	0	0	0	544	489	0	0	0	0	
13	0	0	0	0	545	490	0	0	0	0	
14	0	0	0	0	547	490	0	0	0	0	
15	0	0	0	0	549	490	0	0	0	0	
0	0	0	0	0	550	490	0	0	0	0	
1	0	0	0	0	551	490	0	0	0	0	
2	0	0	0	0	551	490	0	0	0	0	
3	0	0	0	0	551	490	0	0	0	0	
4	0	0	0	0	553	492	0	0	0	0	
5	0	0	0	0	554	494	0	0	0	0	
6	0	0	0	0	555	496	0	0	0	0	
7	0	0	0	0	556	497	0	0	0	0	
8	0	0	0	0	556	500	0	0	0	0	
9	0	0	0	0	557	502	0	0	0	0	
10	0	0	0	0	557	504	0	0	0	0	
11	0	0	0	0	556	504	0	0	0	0	
12	0	0	0	0	556	505	0	0	0	0	
13	0	0	0	0	554	504	0	0	0	0	
14	0	0	0	0	552	504	0	0	0	0	
15	0	0	0	0	551	502	0	0	0	0	
0	0	0	0	0	548	499	0	0	0	0	
1	0	0	0	0	545	496	0	0	0	0	
2	0	0	0	0	543	493	0	0	0	0	
3	0	0	0	0	541	491	0	0	0	0	
4	0	0	0	0	540	488	0	0	0	0	
5	0	0	0	0	539	487	0	0	0	0	
6	0	0	0	0	539	486	0	0	0	0	
7	0	0	0	0	540	486	0	0	0	0	
8	0	0	0	0	541	487	0	0	0	0	
9	0	0	0	0	543	488	0	0	0	0	
10	0	0	0	0	546	491	0	0	0	0	
11	0	0	0	0	549	493	0	0	0	0	
12	0	0	0	0	551	496	0	0	0	0	
13	0	0	0	0	554	498	0	0	0	0	
14	0	0	0	0	556	499	0	0	0	0	
15	0	0	0	0	557	502	0	0	0	0	
0	0	0	0	0	558	503	0	0	0	0	
1	0	0	0	0	558	504	0	0	0	0	
2	0	0	0	0	559	504	0	0	0	0	
3	0	0	0	0	559	505	0	0	0	0	
4	0	0	0	0	560	506	0	0	0	0	
5	0	0	0	0	560	506	0	0	0	0	
6	0	0	0	0	559	505	0	0	0	0	
7	0	0	0	0	559	505	0	0	0	0	
8	0	0	0	0	557	504	0	0	0	0	
9	0	0	0	0	555	501	0	0	0	0	
10	0	0	0	0	552	498	0	0	0	0	
11	0	0	0	0	548	494	0	0	0	0	
12	0	0	0	0	543	489	0	0	0	0	
13	0	0	0	0	538	483	0	0	0	0	
14	0	0	0	0	532	477	0	0	0	0	
15	0	0	0	0	525	471	0	0	0	0	
0	0	0	0	0	518	464	0	0	0	0	
1	0	0	0	0	510	457	0	0	0	0	
2	0	0	0	0	502	449	0	0	0	0	
3	0	0	0	0	493	441	0	0	0	0	
4	0	0	0	0	483	432	0	0	0	0	
5	0	0	0	0	472	422	0	0	0	0	
6	0	0	0	0	461	411	0	0	0	0	
7	0	0	0	0	448	398	0	0	0	0	
8	0	0	0	0	434	383	0	0	0	0	
9	0	0	0	0	419	368	0	0	0	0	
10	0	0	0	0	404	353	0	0	0	0	
11	0	0	0	0	388	337	0	0	0	0	
12	0	0	0	0	374	322	0	0	0	0	
13	0	0	0	0	359	308	0	0	0	0	
14	0	0	0	0	348	296	0	0	0	0	
15	0	0	0	0	338	286	0	0	0	0	
0	0	0	0	0	330	278	0	0	0	0	
1	0	0	0	0	326	274	0	0	0	0	
2	0	0	0	0	324	271	0	0	0	0	
3	0	0	0	0	327	273	0	0	0	0	
4	0	0	0	0	332	277	0	0	0	0	
5	0	0	0	0	341	285	0	0	0	0	
6	0	0	0	0	354	296	0	0	0	0	
7	0	0	0	0	371	311	0	0	0	0	
8	0	0	0	0	390	327	0	0	0	0	
9	0	0	0	0	411	345	0	0	0	0	
10	0	0	0	0	433	364	0	0	0	0	
11	0	0	0	0	457	385	0	0	0	0	
12	0	0	0	0	479	404	0	0	0	0	
13	0	0	0	0	500	423	0	0	0	0	
14	0	0	0	0	518	440	0	0	0	0	
15	0	0	0	0	535	455	0	0	0	0	
0	0	0	0	0	548	469	0	0	0	0	
1	0	0	0	0	560	481	0	0	0	0	
2	0	0	0	0	568	491	0	0	0	0	
3	0	0	0	0	573	498	0	0	0	0	
4	0	0	0	0	575	505	0	0	0	0	
5	0	0	0	0	576	509	0	0	0	0	
6	0	0	0	0	575	512	0	0	0	0	
7	0	0	0	0	572	513	0	0	0	0	
8	0	0	0	0	568	513	0	0	0	0	
9	0	0	0	0	565	512	0	0	0	0	
10	0	0	0	0	561	511	0	0	0	0	
11	0	0	0	0	558	510	0	0	0	0	
12	0	0	0	0	555	508	0	0	0	0	
13	0	0	0	0	552	506	0	0	0	0	
14	0	0	0	0	551	505	0	0	0	0	
15	0	0	0	0	551	504	0	0	0	0	
0	0	0	0	0	553	503	0	0	0	0	
1	0	0	0	0	555	503	0	0	0	0	
2	0	0	0	0	557	502	0	0	0	0	
3	0	0	0	0	560	502	0	0	0	0	
4	0	0	0	0	563	502	0	0	0	0	
5	0	0	0	0	566	502	0	0	0	0	
6	0	0	0	0	568	501	0	0	0	0	
7	0	0	0	0	569	502	0	0	0	0	
8	0	0	0	0	569	501	0	0	0	0	
9	0	0	0	0	569	501	0	0	0	0	
10	0	0	0	0	568	501	0	0	0	0	
11	0	0	0	0	568	502	0	0	0	0	
12	0	0	0	0	566	502	0	0	0	0	
13	0	0	0	0	565	503	0	0	0	0	
14	0	0	0	0	564	504	0	0	0	0	
15	0	0	0	0	563	505	0	0	0	0	
0	0	0	0	0	563	505	0	0	0	0	
1	0	0	0	0	562	506	0	0	0	0	
2	0	0	0	0	561	506	0	0	0	0	
3	0	0	0	0	560	505	0	0	0	0	
4	0	0	0	0	559	504	0	0	0	0	
5	0	0	0	0	558	503	0	0	0	0	
6	0	0	0	0	557	501	0	0	0	0	
7	0	0	0	0	556	500	0	0	0	0	
8	0	0	0	0	556	499	0	0	0	0	
9	0	0	0	0	556	499	0	0	0	0	
10	0	0	0	0	557	499	0	0	0	0	
11	0	0	0	0	559	502	0	0	0	0	
12	0	0	0	0	561	504	0	0	0	0	
13	0	0	0	0	564	507	0	0	0	0	
14	0	0	0	0	567	509	0	0	0	0	
15	0	0	0	0	569	512	0	0	0	0	
0	0	0	0	0	571	515	0	0	0	0	
1	0	0	0	0	573	517	0	0	0	0	
2	0	0	0	0	574	519	0	0	0	0	
3	0	0	0	0	573	519	0	0	0	0	
4	0	0	0	0	572	519	0	0	0	0	
5	0	0	0	0	571	518	0	0	0	0	
6	0	0	0	0	569	516	0	0	0	0	
7	0	0	0	0	567	515	0	0	0	0	
8	0	0	0	0	564	512	0	0	0	0	
9	0	0	0	0	561	509	0	0	0	0	
10	0	0	0	0	559	506	0	0	0	0	
11	0	0	0	0	556	503	0	0	0	0	
12	0	0	0	0	555	500	0	0	0	0	
13	0	0	0	0	553	497	0	0	0	0	
14	0	0	0	0	551	495	0	0	0	0	
15	0	0	0	0	551	494	0	0	0	0	
0	0	0	0	0	551	494	0	0	0	0	
1	0	0	0	0	553	496	0	0	0	0	
2	0	0	0	0	556	497	0	0	0	0	
3	0	0	0	0	559	500	0	0	0	0	
4	0	0	0	0	563	504	0	0	0	0	
5	0	0	0	0	567	508	0	0	0	0	
6	0	0	0	0	571	512	0	0	0	0	
7	0	0	0	0	575	516	0	0	0	0	
8	0	0	0	0	578	519	0	0	0	0	
9	0	0	0	0	580	522	0	0	0	0	
10	0	0	0	0	582	524	0	0	0	0	
11	0	0	0	0	583	525	0	0	0	0	
12	0	0	0	0	582	525	0	0	0	0	
13	0	0	0	0	580	524	0	0	0	0	
14	0	0	0	0	577	522	0	0	0	0	
15	0	0	0	0	574	519	0	0	0	0	
0	0	0	0	0	569	515	0	0	0	0	
1	0	0	0	0	564	510	0	0	0	0	
2	0	0	0	0	559	506	0	0	0	0	
3	0	0	0	0	554	502	0	0	0	0	
4	0	0	0	0	551	499	0	0	0	0	
5	0	0	0	0	547	496	0	0	0	0	
6	0	0	0	0	546	495	0	0	0	0	
7	0	0	0	0	545	495	0	0	0	0	
8	0	0	0	0	546	496	0	0	0	0	
9	0	0	0	0	547	497	0	0	0	0	
10	0	0	0	0	550	499	0	0	0	0	
11	0	0	0	0	553	502	0	0	0	0	
12	0	0	0	0	556	504	0	0	0	0	
13	0	0	0	0	559	507	0	0	0	0	
14	0	0	0	0	563	509	0	0	0	0	
15	0	0	0	0	565	511	0	0	0	0	
0	0	0	0	0	567	512	0	0	0	0	
1	0	0	0	0	568	512	0	0	0	0	
2	0	0	0	0	569	512	0	0	0	0	
3	0	0	0	0	569	512	0	0	0	0	
4	0	0	0	0	570	511	0	0	0	0	
5	0	0	0	0	570	510	0	0	0	0	
6	0	0	0	0	569	510	0	0	0	0	
7	0	0	0	0	568	508	0	0	0	0	
8	0	0	0	0	567	507	0	0	0	0	
9	0	0	0	0	566	505	0	0	0	0	
10	0	0	0	0	563	504	0	0	0	0	
11	0	0	0	0	559	501	0	0	0	0	
12	0	0	0	0	556	499	0	0	0	0	
13	0	0	0	0	553	496	0	0	0	0	
14	0	0	0	0	550	494	0	0	0	0	
15	0	0	0	0	547	492	0	0	0	0	
0	0	0	0	0	544	489	0	0	0	0	
1	0	0	0	0	542	488	0	0	0	0	
2	0	0	0	0	541	487	0	0	0	0	
3	0	0	0	0	540	486	0	0	0	0	
4	0	0	0	0	540	485	0	0	0	0	
5	0	0	0	0	541	485	0	0	0	0	
6	0	0	0	0	542	484	0	0	0	0	
7	0	0	0	0	543	485	0	0	0	0	
8	0	0	0	0	544	485	0	0	0	0	
9	0	0	0	0	545	485	0	0	0	0	
10	0	0	0	0	546	486	0	0	0	0	
11	0	0	0	0	546	486	0	0	0	0	
12	0	0	0	0	546	486	0	0	0	0	
13	0	0	0	0	546	487	0	0	0	0	
14	0	0	0	0	545	487	0	0	0	0	
15	0	0	0	0	545	487	0	0	0	0	
0	0	0	0	0	544	487	0	0	0	0	
1	0	0	0	0	543	487	0	0	0	0	
2	0	0	0	0	543	488	0	0	0	0	
3	0	0	0	0	542	488	0	0	0	0	
4	0	0	0	0	542	488	0	0	0	0	
5	0	0	0	0	541	489	0	0	0	0	
6	0	0	0	0	542	489	0	0	0	0	
7	0	0	0	0	542	489	0	0	0	0	
8	0	0	0	0	542	489	0	0	0	0	
9	0	0	0	0	543	488	0	0	0	0	
10	0	0	0	0	543	488	0	0	0	0	
11	0	0	0	0	543	488	0	0	0	0	
12	0	0	0	0	542	487	0	0	0	0	
13	0	0	0	0	542	487	0	0	0	0	
14	0	0	0	0	541	487	0	0	0	0	
15	0	0	0	0	541	487	0	0	0	0	
0	0	0	0	0	541	487	0	0	0	0	
1	0	0	0	0	541	487	0	0	0	0	
2	0	0	0	0	542	488	0	0	0	0	
3	0	0	0	0	543	489	0	0	0	0	
4	0	0	0	0	545	492	0	0	0	0	
5	0	0	0	0	549	494	0	0	0	0	
6	0	0	0	0	552	497	0	0	0	0	
7	0	0	0	0	556	499	0	0	0	0	
8	0	0	0	0	559	502	0	0	0	0	
9	0	0	0	0	561	504	0	0	0	0	
10	0	0	0	0	564	505	0	0	0	0	
11	0	0	0	0	565	506	0	0	0	0	
12	0	0	0	0	565	505	0	0	0	0	
13	0	0	0	0	563	504	0	0	0	0	
14	0	0	0	0	561	503	0	0	0	0	
15	0	0	0	0	558	501	0	0	0	0	
0	0	0	0	0	555	498	0	0	0	0	
1	0	0	0	0	551	495	0	0	0	0	
2	0	0	0	0	547	492	0	0	0	0	
3	0	0	0	0	543	491	0	0	0	0	
4	0	0	0	0	541	489	0	0	0	0	
5	0	0	0	0	540	488	0	0	0	0	
6	0	0	0	0	539	488	0	0	0	0	
7	0	0	0	0	540	489	0	0	0	0	
8	0	0	0	0	542	492	0	0	0	0	
9	0	0	0	0	545	494	0	0	0	0	
10	0	0	0	0	548	496	0	0	0	0	
11	0	0	0	0	552	499	0	0	0	0	
12	0	0	0	0	555	501	0	0	0	0	
13	0	0	0	0	558	504	0	0	0	0	
14	0	0	0	0	561	504	0	0	0	0	
15	0	0	0	0	562	505	0	0	0	0	
0	0	0	0	0	562	504	0	0	0	0	
1	0	0	0	0	560	502	0	0	0	0	
2	0	0	0	0	558	499	0	0	0	0	
3	0	0	0	0	554	496	0	0	0	0	
4	0	0	0	0	550	492	0	0	0	0	
5	0	0	0	0	547	488	0	0	0	0	
6	0	0	0	0	543	486	0	0	0	0	
7	0	0	0	0	542	485	0	0	0	0	
8	0	0	0	0	541	485	0	0	0	0	
9	0	0	0	0	542	486	0	0	0	0	
10	0	0	0	0	543	488	0	0	0	0	
11	0	0	0	0	545	491	0	0	0	0	
12	0	0	0	0	548	493	0	0	0	0	
13	0	0	0	0	550	495	0	0	0	0	
14	0	0	0	0	551	496	0	0	0	0	
15	0	0	0	0	552	497	0	0	0	0	
0	0	0	0	0	551	497	0	0	0	0	
1	0	0	0	0	550	495	0	0	0	0	
2	0	0	0	0	547	493	0	0	0	0	
3	0	0	0	0	544	489	0	0	0	0	
4	0	0	0	0	540	486	0	0	0	0	
5	0	0	0	0	536	482	0	0	0	0	
6	0	0	0	0	532	479	0	0	0	0	
7	0	0	0	0	529	476	0	0	0	0	
8	0	0	0	0	527	474	0	0	0	0	
9	0	0	0	0	526	473	0	0	0	0	
10	0	0	0	0	527	473	0	0	0	0	
11	0	0	0	0	529	475	0	0	0	0	
12	0	0	0	0	532	477	0	0	0	0	
13	0	0	0	0	537	480	0	0	0	0	
14	0	0	0	0	542	484	0	0	0	0	
15	0	0	0	0	547	489	0	0	0	0	
0	0	0	0	0	552	494	0	0	0	0	
1	0	0	0	0	557	499	0	0	0	0	
2	0	0	0	0	561	503	0	0	0	0	
3	0	0	0	0	565	507	0	0	0	0	
4	0	0	0	0	568	509	0	0	0	0	
5	0	0	0	0	568	511	0	0	0	0	
6	0	0	0	0	568	511	0	0	0	0	
7	0	0	0	0	567	511	0	0	0	0	
8	0	0	0	0	564	508	0	0	0	0	
9	0	0	0	0	561	505	0	0	0	0	
10	0	0	0	0	556	502	0	0	0	0	
11	0	0	0	0	552	498	0	0	0	0	
12	0	0	0	0	548	494	0	0	0	0	
13	0	0	0	0	544	489	0	0	0	0	
14	0	0	0	0	541	486	0	0	0	0	
15	0	0	0	0	538	483	0	0	0	0	
0	0	0	0	0	537	482	0	0	0	0	
1	0	0	0	0	537	482	0	0	0	0	
2	0	0	0	0	539	483	0	0	0	0	
3	0	0	0	0	540	483	0	0	0	0	
4	0	0	0	0	543	486	0	0	0	0	
5	0	0	0	0	545	487	0	0	0	0	
6	0	0	0	0	547	489	0	0	0	0	
7	0	0	0	0	550	492	0	0	0	0	
8	0	0	0	0	551	492	0	0	0	0	
9	0	0	0	0	552	494	0	0	0	0	
10	0	0	0	0	553	494	0	0	0	0	
11	0	0	0	0	553	494	0	0	0	0	
12	0	0	0	0	553	494	0	0	0	0	
13	0	0	0	0	552	493	0	0	0	0	
14	0	0	0	0	551	492	0	0	0	0	
15	0	0	0	0	550	491	0	0	0	0	
0	0	0	0	0	547	490	0	0	0	0	
1	0	0	0	0	545	488	0	0	0	0	
2	0	0	0	0	543	487	0	0	0	0	
3	0	0	0	0	541	486	0	0	0	0	
4	0	0	0	0	540	485	0	0	0	0	
5	0	0	0	0	539	484	0	0	0	0	
6	0	0	0	0	539	485	0	0	0	0	
7	0	0	0	0	540	486	0	0	0	0	
8	0	0	0	0	540	486	0	0	0	0	
9	0	0	0	0	543	488	0	0	0	0	
10	0	0	0	0	545	491	0	0	0	0	
11	0	0	0	0	547	493	0	0	0	0	
12	0	0	0	0	551	495	0	0	0	0	
13	0	0	0	0	552	496	0	0	0	0	
14	0	0	0	0	555	497	0	0	0	0	
15	0	0	0	0	556	498	0	0	0	0	
0	0	0	0	0	556	497	0	0	0	0	
1	0	0	0	0	556	496	0	0	0	0	
2	0	0	0	0	554	495	0	0	0	0	
3	0	0	0	0	553	493	0	0	0	0	
4	0	0	0	0	551	491	0	0	0	0	
5	0	0	0	0	549	489	0	0	0	0	
6	0	0	0	0	547	487	0	0	0	0	
7	0	0	0	0	547	487	0	0	0	0	
8	0	0	0	0	547	488	0	0	0	0	
9	0	0	0	0	550	491	0	0	0	0	
10	0	0	0	0	553	495	0	0	0	0	
11	0	0	0	0	558	500	0	0	0	0	
12	0	0	0	0	563	505	0	0	0	0	
13	0	0	0	0	569	511	0	0	0	0	
14	0	0	0	0	574	515	0	0	0	0	
15	0	0	0	0	578	519	0	0	0	0	
0	0	0	0	0	579	520	0	0	0	0	
1	0	0	0	0	579	520	0	0	0	0	
2	0	0	0	0	577	518	0	0	0	0	
3	0	0	0	0	573	515	0	0	0	0	
4	0	0	0	0	566	509	0	0	0	0	
5	0	0	0	0	558	503	0	0	0	0	
6	0	0	0	0	550	495	0	0	0	0	
7	0	0	0	0	542	489	0	0	0	0	
8	0	0	0	0	535	483	0	0	0	0	
9	0	0	0	0	528	479	0	0	0	0	
10	0	0	0	0	524	476	0	0	0	0	
11	0	0	0	0	521	474	0	0	0	0	
12	0	0	0	0	521	474	0	0	0	0	
13	0	0	0	0	523	476	0	0	0	0	
14	0	0	0	0	527	479	0	0	0	0	
15	0	0	0	0	532	483	0	0	0	0	
0	0	0	0	0	538	487	0	0	0	0	
1	0	0	0	0	543	492	0	0	0	0	
2	0	0	0	0	549	496	0	0	0	0	
3	0	0	0	0	554	499	0	0	0	0	
4	0	0	0	0	557	500	0	0	0	0	
5	0	0	0	0	559	500	0	0	0	0	
6	0	0	0	0	559	500	0	0	0	0	
7	0	0	0	0	558	499	0	0	0	0	
8	0	0	0	0	555	496	0	0	0	0	
9	0	0	0	0	552	493	0	0	0	0	
10	0	0	0	0	548	490	0	0	0	0	
11	0	0	0	0	545	487	0	0	0	0	
12	0	0	0	0	542	484	0	0	0	0	
13	0	0	0	0	540	483	0	0	0	0	
14	0	0	0	0	538	481	0	0	0	0	
15	0	0	0	0	538	481	0	0	0	0	
0	0	0	0	0	539	482	0	0	0	0	
1	0	0	0	0	542	485	0	0	0	0	
2	0	0	0	0	545	488	0	0	0	0	
3	0	0	0	0	551	492	0	0	0	0	
4	0	0	0	0	556	496	0	0	0	0	
5	0	0	0	0	561	502	0	0	0	0	
6	0	0	0	0	566	506	0	0	0	0	
7	0	0	0	0	569	510	0	0	0	0	
8	0	0	0	0	572	513	0	0	0	0	
9	0	0	0	0	572	514	0	0	0	0	
10	0	0	0	0	571	514	0	0	0	0	
11	0	0	0	0	569	513	0	0	0	0	
12	0	0	0	0	564	510	0	0	0	0	
13	0	0	0	0	558	506	0	0	0	0	
14	0	0	0	0	552	502	0	0	0	0	
15	0	0	0	0	545	497	0	0	0	0	
0	0	0	0	0	540	493	0	0	0	0	
1	0	0	0	0	536	489	0	0	0	0	
2	0	0	0	0	532	486	0	0	0	0	
3	0	0	0	0	529	483	0	0	0	0	
4	0	0	0	0	528	482	0	0	0	0	
5	0	0	0	0	528	481	0	0	0	0	
6	0	0	0	0	529	480	0	0	0	0	
7	0	0	0	0	530	480	0	0	0	0	
8	0	0	0	0	532	481	0	0	0	0	
9	0	0	0	0	535	482	0	0	0	0	
10	0	0	0	0	537	483	0	0	0	0	
11	0	0	0	0	540	485	0	0	0	0	
12	0	0	0	0	542	487	0	0	0	0	
13	0	0	0	0	543	489	0	0	0	0	
14	0	0	0	0	544	491	0	0	0	0	
15	0	0	0	0	544	492	0	0	0	0	
0	0	0	0	0	543	492	0	0	0	0	
1	0	0	0	0	543	492	0	0	0	0	
2	0	0	0	0	541	491	0	0	0	0	
3	0	0	0	0	539	490	0	0	0	0	
4	0	0	0	0	536	488	0	0	0	0	
5	0	0	0	0	534	486	0	0	0	0	
6	0	0	0	0	532	484	0	0	0	0	
7	0	0	0	0	531	483	0	0	0	0	
8	0	0	0	0	531	482	0	0	0	0	
9	0	0	0	0	531	482	0	0	0	0	
10	0	0	0	0	533	483	0	0	0	0	
11	0	0	0	0	536	485	0	0	0	0	
12	0	0	0	0	540	488	0	0	0	0	
13	0	0	0	0	545	492	0	0	0	0	
14	0	0	0	0	550	496	0	0	0	0	
15	0	0	0	0	556	500	0	0	0	0	
0	0	0	0	0	561	504	0	0	0	0	
1	0	0	0	0	565	508	0	0	0	0	
2	0	0	0	0	568	511	0	0	0	0	
3	0	0	0	0	570	513	0	0	0	0	
4	0	0	0	0	569	513	0	0	0	0	
5	0	0	0	0	567	511	0	0	0	0	
6	0	0	0	0	563	508	0	0	0	0	
7	0	0	0	0	557	505	0	0	0	0	
8	0	0	0	0	551	500	0	0	0	0	
9	0	0	0	0	545	496	0	0	0	0	
10	0	0	0	0	540	491	0	0	0	0	
11	0	0	0	0	536	488	0	0	0	0	
12	0	0	0	0	534	487	0	0	0	0	
13	0	0	0	0	533	487	0	0	0	0	
14	0	0	0	0	535	488	0	0	0	0	
15	0	0	0	0	537	491	0	0	0	0	
0	0	0	0	0	542	494	0	0	0	0	
1	0	0	0	0	547	499	0	0	0	0	
2	0	0	0	0	553	504	0	0	0	0	
3	0	0	0	0	560	510	0	0	0	0	
4	0	0	0	0	566	515	0	0	0	0	
5	0	0	0	0	571	518	0	0	0	0	
6	0	0	0	0	574	522	0	0	0	0	
7	0	0	0	0	576	523	0	0	0	0	
8	0	0	0	0	575	521	0	0	0	0	
9	0	0	0	0	572	518	0	0	0	0	
10	0	0	0	0	567	512	0	0	0	0	
11	0	0	0	0	559	505	0	0	0	0	
12	0	0	0	0	551	497	0	0	0	0	
13	0	0	0	0	542	489	0	0	0	0	
14	0	0	0	0	534	482	0	0	0	0	
15	0	0	0	0	527	476	0	0	0	0	
0	0	0	0	0	521	472	0	0	0	0	
1	0	0	0	0	519	470	0	0	0	0	
2	0	0	0	0	518	470	0	0	0	0	
3	0	0	0	0	519	472	0	0	0	0	
4	0	0	0	0	522	475	0	0	0	0	
5	0	0	0	0	526	480	0	0	0	0	
6	0	0	0	0	532	486	0	0	0	0	
7	0	0	0	0	538	492	0	0	0	0	
8	0	0	0	0	544	497	0	0	0	0	
9	0	0	0	0	550	502	0	0	0	0	
10	0	0	0	0	555	505	0	0	0	0	
11	0	0	0	0	558	508	0	0	0	0	
12	0	0	0	0	560	509	0	0	0	0	
13	0	0	0	0	561	509	0	0	0	0	
14	0	0	0	0	560	508	0	0	0	0	
15	0	0	0	0	558	506	0	0	0	0	
0	0	0	0	0	556	504	0	0	0	0	
1	0	0	0	0	552	501	0	0	0	0	
2	0	0	0	0	549	498	0	0	0	0	
3	0	0	0	0	545	495	0	0	0	0	
4	0	0	0	0	542	492	0	0	0	0	
5	0	0	0	0	539	491	0	0	0	0	
6	0	0	0	0	536	489	0	0	0	0	
7	0	0	0	0	535	489	0	0	0	0	
8	0	0	0	0	533	489	0	0	0	0	
9	0	0	0	0	533	490	0	0	0	0	
10	0	0	0	0	534	491	0	0	0	0	
11	0	0	0	0	535	492	0	0	0	0	
12	0	0	0	0	536	494	0	0	0	0	
13	0	0	0	0	538	496	0	0	0	0	
14	0	0	0	0	539	496	0	0	0	0	
15	0	0	0	0	540	497	0	0	0	0	
0	0	0	0	0	540	496	0	0	0	0	
1	0	0	0	0	540	495	0	0	0	0	
2	0	0	0	0	538	493	0	0	0	0	
3	0	0	0	0	537	492	0	0	0	0	
4	0	0	0	0	536	490	0	0	0	0	
5	0	0	0	0	535	488	0	0	0	0	
6	0	0	0	0	534	487	0	0	0	0	
7	0	0	0	0	534	488	0	0	0	0	
8	0	0	0	0	536	489	0	0	0	0	
9	0	0	0	0	538	491	0	0	0	0	
10	0	0	0	0	541	495	0	0	0	0	
11	0	0	0	0	545	499	0	0	0	0	
12	0	0	0	0	550	503	0	0	0	0	
13	0	0	0	0	556	509	0	0	0	0	
14	0	0	0	0	562	514	0	0	0	0	
15	0	0	0	0	568	519	0	0	0	0	
0	0	0	0	0	574	524	0	0	0	0	
1	0	0	0	0	578	528	0	0	0	0	
2	0	0	0	0	582	531	0	0	0	0	
3	0	0	0	0	583	532	0	0	0	0	
4	0	0	0	0	583	531	0	0	0	0	
5	0	0	0	0	580	529	0	0	0	0	
6	0	0	0	0	575	525	0	0	0	0	
7	0	0	0	0	570	519	0	0	0	0	
8	0	0	0	0	563	512	0	0	0	0	
9	0	0	0	0	555	506	0	0	0	0	
10	0	0	0	0	547	499	0	0	0	0	
11	0	0	0	0	540	493	0	0	0	0	
12	0	0	0	0	535	489	0	0	0	0	
13	0	0	0	0	530	485	0	0	0	0	
14	0	0	0	0	527	483	0	0	0	0	
15	0	0	0	0	525	482	0	0	0	0	
0	0	0	0	0	525	482	0	0	0	0	
1	0	0	0	0	527	483	0	0	0	0	
2	0	0	0	0	530	486	0	0	0	0	
3	0	0	0	0	534	488	0	0	0	0	
4	0	0	0	0	537	491	0	0	0	0	
5	0	0	0	0	541	493	0	0	0	0	
6	0	0	0	0	545	496	0	0	0	0	
7	0	0	0	0	548	497	0	0	0	0	
8	0	0	0	0	550	499	0	0	0	0	
9	0	0	0	0	551	499	0	0	0	0	
10	0	0	0	0	552	499	0	0	0	0	
11	0	0	0	0	552	498	0	0	0	0	
12	0	0	0	0	551	497	0	0	0	0	
13	0	0	0	0	550	495	0	0	0	0	
14	0	0	0	0	547	494	0	0	0	0	
15	0	0	0	0	545	492	0	0	0	0	
0	0	0	0	0	543	492	0	0	0	0	
1	0	0	0	0	542	491	0	0	0	0	
2	0	0	0	0	541	491	0	0	0	0	
3	0	0	0	0	541	492	0	0	0	0	
4	0	0	0	0	541	493	0	0	0	0	
5	0	0	0	0	542	495	0	0	0	0	
6	0	0	0	0	542	496	0	0	0	0	
7	0	0	0	0	542	496	0	0	0	0	
8	0	0	0	0	542	496	0	0	0	0	
9	0	0	0	0	541	496	0	0	0	0	
10	0	0	0	0	540	494	0	0	0	0	
11	0	0	0	0	538	493	0	0	0	0	
12	0	0	0	0	536	491	0	0	0	0	
13	0	0	0	0	533	488	0	0	0	0	
14	0	0	0	0	531	486	0	0	0	0	
15	0	0	0	0	527	483	0	0	0	0	
0	0	0	0	0	525	480	0	0	0	0	
1	0	0	0	0	524	478	0	0	0	0	
2	0	0	0	0	523	477	0	0	0	0	
3	0	0	0	0	524	476	0	0	0	0	
4	0	0	0	0	526	478	0	0	0	0	
5	0	0	0	0	529	480	0	0	0	0	
6	0	0	0	0	534	483	0	0	0	0	
7	0	0	0	0	540	487	0	0	0	0	
8	0	0	0	0	547	493	0	0	0	0	
9	0	0	0	0	555	499	0	0	0	0	
10	0	0	0	0	563	505	0	0	0	0	
11	0	0	0	0	570	511	0	0	0	0	
12	0	0	0	0	577	517	0	0	0	0	
13	0	0	0	0	582	523	0	0	0	0	
14	0	0	0	0	587	527	0	0	0	0	
15	0	0	0	0	589	529	0	0	0	0	
0	0	0	0	0	589	530	0	0	0	0	
1	0	0	0	0	588	529	0	0	0	0	
2	0	0	0	0	584	526	0	0	0	0	
3	0	0	0	0	579	522	0	0	0	0	
4	0	0	0	0	573	516	0	0	0	0	
5	0	0	0	0	565	510	0	0	0	0	
6	0	0	0	0	556	503	0	0	0	0	
7	0	0	0	0	548	497	0	0	0	0	
8	0	0	0	0	540	491	0	0	0	0	
9	0	0	0	0	533	485	0	0	0	0	
10	0	0	0	0	527	481	0	0	0	0	
11	0	0	0	0	523	478	0	0	0	0	
12	0	0	0	0	519	476	0	0	0	0	
13	0	0	0	0	518	475	0	0	0	0	
14	0	0	0	0	519	476	0	0	0	0	
15	0	0	0	0	521	478	0	0	0	0	
0	0	0	0	0	525	481	0	0	0	0	
1	0	0	0	0	529	485	0	0	0	0	
2	0	0	0	0	534	488	0	0	0	0	
3	0	0	0	0	539	492	0	0	0	0	
4	0	0	0	0	544	495	0	0	0	0	
5	0	0	0	0	547	496	0	0	0	0	
6	0	0	0	0	549	497	0	0	0	0	
7	0	0	0	0	550	497	0	0	0	0	
8	0	0	0	0	550	496	0	0	0	0	
9	0	0	0	0	548	494	0	0	0	0	
10	0	0	0	0	545	492	0	0	0	0	
11	0	0	0	0	542	490	0	0	0	0	
12	0	0	0	0	540	488	0	0	0	0	
13	0	0	0	0	537	487	0	0	0	0	
14	0	0	0	0	536	486	0	0	0	0	
15	0	0	0	0	535	486	0	0	0	0	
0	0	0	0	0	534	487	0	0	0	0	
1	0	0	0	0	535	487	0	0	0	0	
2	0	0	0	0	536	489	0	0	0	0	
3	0	0	0	0	538	490	0	0	0	0	
4	0	0	0	0	540	492	0	0	0	0	
5	0	0	0	0	542	494	0	0	0	0	
6	0	0	0	0	544	494	0	0	0	0	
7	0	0	0	0	545	495	0	0	0	0	
8	0	0	0	0	546	496	0	0	0	0	
9	0	0	0	0	547	496	0	0	0	0	
10	0	0	0	0	548	495	0	0	0	0	
11	0	0	0	0	549	496	0	0	0	0	
12	0	0	0	0	550	496	0	0	0	0	
13	0	0	0	0	551	496	0	0	0	0	
14	0	0	0	0	552	496	0	0	0	0	
15	0	0	0	0	553	496	0	0	0	0	
0	0	0	0	0	553	496	0	0	0	0	
1	0	0	0	0	553	497	0	0	0	0	
2	0	0	0	0	552	496	0	0	0	0	
3	0	0	0	0	551	495	0	0	0	0	
4	0	0	0	0	548	493	0	0	0	0	
5	0	0	0	0	545	491	0	0	0	0	
6	0	0	0	0	541	487	0	0	0	0	
7	0	0	0	0	536	483	0	0	0	0	
8	0	0	0	0	529	478	0	0	0	0	
9	0	0	0	0	523	472	0	0	0	0	
10	0	0	0	0	515	466	0	0	0	0	
11	0	0	0	0	506	459	0	0	0	0	
12	0	0	0	0	497	451	0	0	0	0	
13	0	0	0	0	486	441	0	0	0	0	
14	0	0	0	0	475	431	0	0	0	0	
15	0	0	0	0	463	420	0	0	0	0	
0	0	0	0	0	451	408	0	0	0	0	
1	0	0	0	0	438	394	0	0	0	0	
2	0	0	0	0	425	381	0	0	0	0	
3	0	0	0	0	412	367	0	0	0	0	
4	0	0	0	0	399	353	0	0	0	0	
5	0	0	0	0	386	340	0	0	0	0	
6	0	0	0	0	375	327	0	0	0	0	
7	0	0	0	0	364	315	0	0	0	0	
8	0	0	0	0	353	304	0	0	0	0	
9	0	0	0	0	344	295	0	0	0	0	
10	0	0	0	0	336	287	0	0	0	0	
11	0	0	0	0	329	280	0	0	0	0	
12	0	0	0	0	325	275	0	0	0	0	
13	0	0	0	0	323	271	0	0	0	0	
14	0	0	0	0	323	271	0	0	0	0	
15	0	0	0	0	327	275	0	0	0	0	
0	0	0	0	0	335	281	0	0	0	0	
1	0	0	0	0	347	291	0	0	0	0	
2	0	0	0	0	363	305	0	0	0	0	
3	0	0	0	0	382	323	0	0	0	0	
4	0	0	0	0	404	344	0	0	0	0	
5	0	0	0	0	430	367	0	0	0	0	
6	0	0	0	0	456	391	0	0	0	0	
7	0	0	0	0	483	416	0	0	0	0	
8	0	0	0	0	511	443	0	0	0	0	
9	0	0	0	0	538	468	0	0	0	0	
10	0	0	0	0	562	491	0	0	0	0	
11	0	0	0	0	584	513	0	0	0	0	
12	0	0	0	0	602	530	0	0	0	0	
13	0	0	0	0	615	545	0	0	0	0	
14	0	0	0	0	624	555	0	0	0	0	
15	0	0	0	0	628	561	0	0	0	0	
0	0	0	0	0	627	563	0	0	0	0	
1	0	0	0	0	621	560	0	0	0	0	
2	0	0	0	0	611	554	0	0	0	0	
3	0	0	0	0	599	546	0	0	0	0	
4	0	0	0	0	584	535	0	0	0	0	
5	0	0	0	0	569	523	0	0	0	0	
6	0	0	0	0	553	511	0	0	0	0	
7	0	0	0	0	539	499	0	0	0	0	
8	0	0	0	0	527	489	0	0	0	0	
9	0	0	0	0	519	482	0	0	0	0	
10	0	0	0	0	513	476	0	0	0	0	
11	0	0	0	0	510	473	0	0	0	0	
12	0	0	0	0	511	472	0	0	0	0	
13	0	0	0	0	515	474	0	0	0	0	
14	0	0	0	0	522	478	0	0	0	0	
15	0	0	0	0	529	483	0	0	0	0	
0	0	0	0	0	538	489	0	0	0	0	
1	0	0	0	0	547	496	0	0	0	0	
2	0	0	0	0	556	503	0	0	0	0	
3	0	0	0	0	563	510	0	0	0	0	
4	0	0	0	0	570	516	0	0	0	0	
5	0	0	0	0	575	520	0	0	0	0	
6	0	0	0	0	578	525	0	0	0	0	
7	0	0	0	0	580	528	0	0	0	0	
8	0	0	0	0	580	530	0	0	0	0	
9	0	0	0	0	581	532	0	0	0	0	
10	0	0	0	0	579	532	0	0	0	0	
11	0	0	0	0	579	533	0	0	0	0	
12	0	0	0	0	577	533	0	0	0	0	
13	0	0	0	0	576	533	0	0	0	0	
14	0	0	0	0	575	532	0	0	0	0	
15	0	0	0	0	574	531	0	0	0	0	
0	0	0	0	0	572	529	0	0	0	0	
1	0	0	0	0	571	528	0	0	0	0	
2	0	0	0	0	570	526	0	0	0	0	
3	0	0	0	0	569	525	0	0	0	0	
4	0	0	0	0	568	523	0	0	0	0	
5	0	0	0	0	568	523	0	0	0	0	
6	0	0	0	0	569	522	0	0	0	0	
7	0	0	0	0	570	522	0	0	0	0	
8	0	0	0	0	571	522	0	0	0	0	
9	0	0	0	0	572	523	0	0	0	0	
10	0	0	0	0	573	523	0	0	0	0	
11	0	0	0	0	574	522	0	0	0	0	
12	0	0	0	0	572	520	0	0	0	0	
13	0	0	0	0	570	518	0	0	0	0	
14	0	0	0	0	567	515	0	0	0	0	
15	0	0	0	0	563	512	0	0	0	0	
0	0	0	0	0	559	508	0	0	0	0	
1	0	0	0	0	554	504	0	0	0	0	
2	0	0	0	0	550	501	0	0	0	0	
3	0	0	0	0	547	499	0	0	0	0	
4	0	0	0	0	545	499	0	0	0	0	
5	0	0	0	0	546	500	0	0	0	0	
6	0	0	0	0	547	502	0	0	0	0	
7	0	0	0	0	551	505	0	0	0	0	
8	0	0	0	0	554	509	0	0	0	0	
9	0	0	0	0	559	513	0	0	0	0	
10	0	0	0	0	563	516	0	0	0	0	
11	0	0	0	0	567	519	0	0	0	0	
12	0	0	0	0	569	520	0	0	0	0	
13	0	0	0	0	570	521	0	0	0	0	
14	0	0	0	0	571	520	0	0	0	0	
15	0	0	0	0	571	519	0	0	0	0	
0	0	0	0	0	569	517	0	0	0	0	
1	0	0	0	0	568	514	0	0	0	0	
2	0	0	0	0	565	511	0	0	0	0	
3	0	0	0	0	563	508	0	0	0	0	
4	0	0	0	0	561	506	0	0	0	0	
5	0	0	0	0	560	504	0	0	0	0	
6	0	0	0	0	560	504	0	0	0	0	
7	0	0	0	0	560	504	0	0	0	0	
8	0	0	0	0	561	504	0	0	0	0	
9	0	0	0	0	563	506	0	0	0	0	
10	0	0	0	0	564	508	0	0	0	0	
11	0	0	0	0	566	510	0	0	0	0	
12	0	0	0	0	567	511	0	0	0	0	
13	0	0	0	0	568	513	0	0	0	0	
14	0	0	0	0	568	514	0	0	0	0	
15	0	0	0	0	568	514	0	0	0	0	
0	0	0	0	0	567	514	0	0	0	0	
1	0	0	0	0	565	513	0	0	0	0	
2	0	0	0	0	563	512	0	0	0	0	
3	0	0	0	0	560	510	0	0	0	0	
4	0	0	0	0	559	508	0	0	0	0	
5	0	0	0	0	557	505	0	0	0	0	
6	0	0	0	0	555	503	0	0	0	0	
7	0	0	0	0	554	501	0	0	0	0	
8	0	0	0	0	553	499	0	0	0	0	
9	0	0	0	0	553	498	0	0	0	0	
10	0	0	0	0	553	497	0	0	0	0	
11	0	0	0	0	554	498	0	0	0	0	
12	0	0	0	0	556	498	0	0	0	0	
13	0	0	0	0	557	499	0	0	0	0	
14	0	0	0	0	559	501	0	0	0	0	
15	0	0	0	0	561	503	0	0	0	0	
0	0	0	0	0	563	505	0	0	0	0	
1	0	0	0	0	564	507	0	0	0	0	
2	0	0	0	0	566	509	0	0	0	0	
3	0	0	0	0	566	510	0	0	0	0	
4	0	0	0	0	566	510	0	0	0	0	
5	0	0	0	0	564	509	0	0	0	0	
6	0	0	0	0	562	508	0	0	0	0	
7	0	0	0	0	560	506	0	0	0	0	
8	0	0	0	0	557	503	0	0	0	0	
9	0	0	0	0	553	500	0	0	0	0	
10	0	0	0	0	550	498	0	0	0	0	
11	0	0	0	0	547	496	0	0	0	0	
12	0	0	0	0	544	494	0	0	0	0	
13	0	0	0	0	543	493	0	0	0	0	
14	0	0	0	0	542	492	0	0	0	0	
15	0	0	0	0	543	492	0	0	0	0	
0	0	0	0	0	543	494	0	0	0	0	
1	0	0	0	0	546	496	0	0	0	0	
2	0	0	0	0	548	497	0	0	0	0	
3	0	0	0	0	552	501	0	0	0	0	
4	0	0	0	0	556	503	0	0	0	0	
5	0	0	0	0	560	507	0	0	0	0	
6	0	0	0	0	565	510	0	0	0	0	
7	0	0	0	0	569	513	0	0	0	0	
8	0	0	0	0	572	515	0	0	0	0	
9	0	0	0	0	575	518	0	0	0	0	
10	0	0	0	0	576	519	0	0	0	0	
11	0	0	0	0	577	520	0	0	0	0	
12	0	0	0	0	577	520	0	0	0	0	
13	0	0	0	0	574	518	0	0	0	0	
14	0	0	0	0	571	515	0	0	0	0	
15	0	0	0	0	567	512	0	0	0	0	
0	0	0	0	0	561	508	0	0	0	0	
1	0	0	0	0	555	503	0	0	0	0	
2	0	0	0	0	548	498	0	0	0	0	
3	0	0	0	0	543	494	0	0	0	0	
4	0	0	0	0	538	491	0	0	0	0	
5	0	0	0	0	535	489	0	0	0	0	
6	0	0	0	0	533	488	0	0	0	0	
7	0	0	0	0	532	487	0	0	0	0	
8	0	0	0	0	532	488	0	0	0	0	
9	0	0	0	0	534	489	0	0	0	0	
10	0	0	0	0	536	491	0	0	0	0	
11	0	0	0	0	539	493	0	0	0	0	
12	0	0	0	0	543	495	0	0	0	0	
13	0	0	0	0	547	497	0	0	0	0	
14	0	0	0	0	551	500	0	0	0	0	
15	0	0	0	0	554	502	0	0	0	0	
0	0	0	0	0	557	503	0	0	0	0	
1	0	0	0	0	558	503	0	0	0	0	
2	0	0	0	0	559	503	0	0	0	0	
3	0	0	0	0	559	502	0	0	0	0	
4	0	0	0	0	558	501	0	0	0	0	
5	0	0	0	0	557	500	0	0	0	0	
6	0	0	0	0	556	499	0	0	0	0	
7	0	0	0	0	555	498	0	0	0	0	
8	0	0	0	0	555	499	0	0	0	0	
9	0	0	0	0	555	500	0	0	0	0	
10	0	0	0	0	556	502	0	0	0	0	
11	0	0	0	0	557	504	0	0	0	0	
12	0	0	0	0	558	507	0	0	0	0	
13	0	0	0	0	559	508	0	0	0	0	
14	0	0	0	0	559	510	0	0	0	0	
