# OpenSignals Text File Format. Version 1
# {"": {"position": 0, "device": "", "device name": "", "device connection": "", "sampling rate": 1000, "resolution": [4, 1, 1, 1, 1, 10, 10, 10, 10, 6, 6], "firmware version": 1281, "comments": "", "keywords": "", "mode": 0, "sync interval": 2, "date": "", "time": "", "channels": [1, 2, 3, 4, 5, 6], "sensor": ["RAW", "RAW", "RAW", "RAW", "RAW", "RAW"], "label": ["A1", "A2", "A3", "A4", "A5", "A6"], "column": ["nSeq", "I1", "I2", "O1", "O2", "A1", "A2", "A3", "A4", "A5", "A6"], "special": [{}, {}, {}, {}, {}, {}], "digital IO": [0, 0, 1, 1]}}
# EndOfHeader
0	0	0	0	0	566	1021	0	0	0	0	
1	0	0	0	0	564	1021	0	0	0	0	
2	0	0	0	0	561	1021	0	0	0	0	
3	0	0	0	0	555	1021	0	0	0	0	
4	0	0	0	0	548	1021	0	0	0	0	
5	0	0	0	0	540	1021	0	0	0	0	
6	0	0	0	0	530	1021	0	0	0	0	
7	0	0	0	0	519	1021	0	0	0	0	
8	0	0	0	0	510	1021	0	0	0	0	
9	0	0	0	0	500	1021	0	0	0	0	
10	0	0	0	0	492	1021	0	0	0	0	
11	0	0	0	0	485	1021	0	0	0	0	
12	0	0	0	0	480	1021	0	0	0	0	
13	0	0	0	0	477	1021	0	0	0	0	
14	0	0	0	0	476	1021	0	0	0	0	
15	0	0	0	0	476	1021	0	0	0	0	
0	0	0	0	0	479	1021	0	0	0	0	
1	0	0	0	0	483	1021	0	0	0	0	
2	0	0	0	0	488	1021	0	0	0	0	
3	0	0	0	0	494	1021	0	0	0	0	
4	0	0	0	0	499	1021	0	0	0	0	
5	0	0	0	0	504	1021	0	0	0	0	
6	0	0	0	0	508	1021	0	0	0	0	
7	0	0	0	0	511	1021	0	0	0	0	
8	0	0	0	0	511	1021	0	0	0	0	
9	0	0	0	0	511	1021	0	0	0	0	
10	0	0	0	0	510	1021	0	0	0	0	
11	0	0	0	0	508	1021	0	0	0	0	
12	0	0	0	0	508	1021	0	0	0	0	
13	0	0	0	0	508	1021	0	0	0	0	
14	0	0	0	0	510	1021	0	0	0	0	
15	0	0	0	0	515	1021	0	0	0	0	
0	0	0	0	0	521	1021	0	0	0	0	
1	0	0	0	0	530	1021	0	0	0	0	
2	0	0	0	0	540	1021	0	0	0	0	
3	0	0	0	0	551	1021	0	0	0	0	
4	0	0	0	0	560	1021	0	0	0	0	
5	0	0	0	0	568	1021	0	0	0	0	
6	0	0	0	0	572	1021	0	0	0	0	
7	0	0	0	0	574	1021	0	0	0	0	
8	0	0	0	0	572	1021	0	0	0	0	
9	0	0	0	0	567	1021	0	0	0	0	
10	0	0	0	0	559	1021	0	0	0	0	
11	0	0	0	0	548	1021	0	0	0	0	
12	0	0	0	0	536	1021	0	0	0	0	
13	0	0	0	0	524	1021	0	0	0	0	
14	0	0	0	0	511	1021	0	0	0	0	
15	0	0	0	0	500	1021	0	0	0	0	
0	0	0	0	0	492	1021	0	0	0	0	
1	0	0	0	0	486	1021	0	0	0	0	
2	0	0	0	0	484	1021	0	0	0	0	
3	0	0	0	0	484	1021	0	0	0	0	
4	0	0	0	0	487	1021	0	0	0	0	
5	0	0	0	0	493	1021	0	0	0	0	
6	0	0	0	0	501	1021	0	0	0	0	
7	0	0	0	0	509	1021	0	0	0	0	
8	0	0	0	0	518	1021	0	0	0	0	
9	0	0	0	0	527	1021	0	0	0	0	
10	0	0	0	0	536	1021	0	0	0	0	
11	0	0	0	0	544	1021	0	0	0	0	
12	0	0	0	0	552	1021	0	0	0	0	
13	0	0	0	0	558	1021	0	0	0	0	
14	0	0	0	0	562	1021	0	0	0	0	
15	0	0	0	0	565	1021	0	0	0	0	
0	0	0	0	0	566	1021	0	0	0	0	
1	0	0	0	0	566	1021	0	0	0	0	
2	0	0	0	0	564	1021	0	0	0	0	
3	0	0	0	0	561	1021	0	0	0	0	
4	0	0	0	0	556	1021	0	0	0	0	
5	0	0	0	0	551	1021	0	0	0	0	
6	0	0	0	0	546	1021	0	0	0	0	
7	0	0	0	0	540	1021	0	0	0	0	
8	0	0	0	0	533	1021	0	0	0	0	
9	0	0	0	0	526	1021	0	0	0	0	
10	0	0	0	0	519	1021	0	0	0	0	
11	0	0	0	0	511	1021	0	0	0	0	
12	0	0	0	0	504	1021	0	0	0	0	
13	0	0	0	0	496	1021	0	0	0	0	
14	0	0	0	0	488	1021	0	0	0	0	
15	0	0	0	0	482	1021	0	0	0	0	
0	0	0	0	0	477	1021	0	0	0	0	
1	0	0	0	0	474	1021	0	0	0	0	
2	0	0	0	0	473	1021	0	0	0	0	
3	0	0	0	0	475	1021	0	0	0	0	
4	0	0	0	0	480	1021	0	0	0	0	
5	0	0	0	0	486	1021	0	0	0	0	
6	0	0	0	0	495	1021	0	0	0	0	
7	0	0	0	0	505	1021	0	0	0	0	
8	0	0	0	0	516	1021	0	0	0	0	
9	0	0	0	0	526	1021	0	0	0	0	
10	0	0	0	0	535	1021	0	0	0	0	
11	0	0	0	0	541	1021	0	0	0	0	
12	0	0	0	0	544	1021	0	0	0	0	
13	0	0	0	0	546	1021	0	0	0	0	
14	0	0	0	0	546	1021	0	0	0	0	
15	0	0	0	0	544	1021	0	0	0	0	
0	0	0	0	0	541	1021	0	0	0	0	
1	0	0	0	0	537	1021	0	0	0	0	
2	0	0	0	0	534	1021	0	0	0	0	
3	0	0	0	0	530	1021	0	0	0	0	
4	0	0	0	0	527	1021	0	0	0	0	
5	0	0	0	0	524	1021	0	0	0	0	
6	0	0	0	0	522	1021	0	0	0	0	
7	0	0	0	0	520	1021	0	0	0	0	
8	0	0	0	0	520	1021	0	0	0	0	
9	0	0	0	0	520	1021	0	0	0	0	
10	0	0	0	0	521	1021	0	0	0	0	
11	0	0	0	0	522	1021	0	0	0	0	
12	0	0	0	0	523	1021	0	0	0	0	
13	0	0	0	0	523	1021	0	0	0	0	
14	0	0	0	0	521	1021	0	0	0	0	
15	0	0	0	0	518	1021	0	0	0	0	
0	0	0	0	0	513	1021	0	0	0	0	
1	0	0	0	0	508	1021	0	0	0	0	
2	0	0	0	0	501	1021	0	0	0	0	
3	0	0	0	0	493	1021	0	0	0	0	
4	0	0	0	0	486	1021	0	0	0	0	
5	0	0	0	0	480	1021	0	0	0	0	
6	0	0	0	0	476	1021	0	0	0	0	
7	0	0	0	0	477	1021	0	0	0	0	
8	0	0	0	0	480	1021	0	0	0	0	
9	0	0	0	0	486	1021	0	0	0	0	
10	0	0	0	0	495	1021	0	0	0	0	
11	0	0	0	0	504	1021	0	0	0	0	
12	0	0	0	0	515	1021	0	0	0	0	
13	0	0	0	0	525	1021	0	0	0	0	
14	0	0	0	0	534	1021	0	0	0	0	
15	0	0	0	0	542	1021	0	0	0	0	
0	0	0	0	0	548	1021	0	0	0	0	
1	0	0	0	0	553	1021	0	0	0	0	
2	0	0	0	0	556	1021	0	0	0	0	
3	0	0	0	0	556	1021	0	0	0	0	
4	0	0	0	0	554	1021	0	0	0	0	
5	0	0	0	0	550	1021	0	0	0	0	
6	0	0	0	0	544	1021	0	0	0	0	
7	0	0	0	0	537	1021	0	0	0	0	
8	0	0	0	0	530	1021	0	0	0	0	
9	0	0	0	0	523	1021	0	0	0	0	
10	0	0	0	0	516	1021	0	0	0	0	
11	0	0	0	0	511	1021	0	0	0	0	
12	0	0	0	0	508	1021	0	0	0	0	
13	0	0	0	0	507	1021	0	0	0	0	
14	0	0	0	0	507	1021	0	0	0	0	
15	0	0	0	0	509	1021	0	0	0	0	
0	0	0	0	0	513	1021	0	0	0	0	
1	0	0	0	0	519	1021	0	0	0	0	
2	0	0	0	0	525	1021	0	0	0	0	
3	0	0	0	0	532	1021	0	0	0	0	
4	0	0	0	0	539	1021	0	0	0	0	
5	0	0	0	0	545	1021	0	0	0	0	
6	0	0	0	0	549	1021	0	0	0	0	
7	0	0	0	0	551	1021	0	0	0	0	
8	0	0	0	0	551	1021	0	0	0	0	
9	0	0	0	0	549	1021	0	0	0	0	
10	0	0	0	0	545	1021	0	0	0	0	
11	0	0	0	0	540	1021	0	0	0	0	
12	0	0	0	0	533	1021	0	0	0	0	
13	0	0	0	0	525	1021	0	0	0	0	
14	0	0	0	0	517	1021	0	0	0	0	
15	0	0	0	0	510	1021	0	0	0	0	
0	0	0	0	0	503	1021	0	0	0	0	
1	0	0	0	0	496	1021	0	0	0	0	
2	0	0	0	0	489	1021	0	0	0	0	
3	0	0	0	0	484	1021	0	0	0	0	
4	0	0	0	0	480	1021	0	0	0	0	
5	0	0	0	0	476	1021	0	0	0	0	
6	0	0	0	0	474	1021	0	0	0	0	
7	0	0	0	0	474	1021	0	0	0	0	
8	0	0	0	0	476	1021	0	0	0	0	
9	0	0	0	0	479	1021	0	0	0	0	
10	0	0	0	0	484	1021	0	0	0	0	
11	0	0	0	0	490	1021	0	0	0	0	
12	0	0	0	0	496	1021	0	0	0	0	
13	0	0	0	0	503	1021	0	0	0	0	
14	0	0	0	0	510	1021	0	0	0	0	
15	0	0	0	0	516	1021	0	0	0	0	
0	0	0	0	0	522	1021	0	0	0	0	
1	0	0	0	0	526	1021	0	0	0	0	
2	0	0	0	0	528	1021	0	0	0	0	
3	0	0	0	0	531	1021	0	0	0	0	
4	0	0	0	0	530	1021	0	0	0	0	
5	0	0	0	0	529	1021	0	0	0	0	
6	0	0	0	0	527	1021	0	0	0	0	
7	0	0	0	0	525	1021	0	0	0	0	
8	0	0	0	0	523	1021	0	0	0	0	
9	0	0	0	0	520	1021	0	0	0	0	
10	0	0	0	0	518	1021	0	0	0	0	
11	0	0	0	0	515	1021	0	0	0	0	
12	0	0	0	0	512	1021	0	0	0	0	
13	0	0	0	0	510	1021	0	0	0	0	
14	0	0	0	0	508	1021	0	0	0	0	
15	0	0	0	0	505	1021	0	0	0	0	
0	0	0	0	0	504	1021	0	0	0	0	
1	0	0	0	0	503	1021	0	0	0	0	
2	0	0	0	0	502	1021	0	0	0	0	
3	0	0	0	0	501	1021	0	0	0	0	
4	0	0	0	0	501	1021	0	0	0	0	
5	0	0	0	0	502	1021	0	0	0	0	
6	0	0	0	0	504	1021	0	0	0	0	
7	0	0	0	0	507	1021	0	0	0	0	
8	0	0	0	0	509	1021	0	0	0	0	
9	0	0	0	0	511	1021	0	0	0	0	
10	0	0	0	0	513	1021	0	0	0	0	
11	0	0	0	0	515	1021	0	0	0	0	
12	0	0	0	0	517	1021	0	0	0	0	
13	0	0	0	0	518	1021	0	0	0	0	
14	0	0	0	0	519	1021	0	0	0	0	
15	0	0	0	0	521	1021	0	0	0	0	
0	0	0	0	0	523	1021	0	0	0	0	
1	0	0	0	0	526	1021	0	0	0	0	
2	0	0	0	0	530	1021	0	0	0	0	
3	0	0	0	0	533	1021	0	0	0	0	
4	0	0	0	0	537	1021	0	0	0	0	
5	0	0	0	0	540	1021	0	0	0	0	
6	0	0	0	0	543	1021	0	0	0	0	
7	0	0	0	0	543	1021	0	0	0	0	
8	0	0	0	0	543	1021	0	0	0	0	
9	0	0	0	0	541	1021	0	0	0	0	
10	0	0	0	0	536	1021	0	0	0	0	
11	0	0	0	0	531	1021	0	0	0	0	
12	0	0	0	0	525	1021	0	0	0	0	
13	0	0	0	0	516	1021	0	0	0	0	
14	0	0	0	0	508	1022	0	0	0	0	
15	0	0	0	0	502	1021	0	0	0	0	
0	0	0	0	0	496	1021	0	0	0	0	
1	0	0	0	0	492	1021	0	0	0	0	
2	0	0	0	0	490	1021	0	0	0	0	
3	0	0	0	0	490	1021	0	0	0	0	
4	0	0	0	0	493	1021	0	0	0	0	
5	0	0	0	0	499	1021	0	0	0	0	
6	0	0	0	0	505	1021	0	0	0	0	
7	0	0	0	0	512	1021	0	0	0	0	
8	0	0	0	0	519	1021	0	0	0	0	
9	0	0	0	0	526	1021	0	0	0	0	
10	0	0	0	0	531	1021	0	0	0	0	
11	0	0	0	0	535	1021	0	0	0	0	
12	0	0	0	0	536	1021	0	0	0	0	
13	0	0	0	0	535	1021	0	0	0	0	
14	0	0	0	0	532	1021	0	0	0	0	
15	0	0	0	0	528	1021	0	0	0	0	
0	0	0	0	0	522	1021	0	0	0	0	
1	0	0	0	0	515	1021	0	0	0	0	
2	0	0	0	0	508	1021	0	0	0	0	
3	0	0	0	0	499	1021	0	0	0	0	
4	0	0	0	0	492	1021	0	0	0	0	
5	0	0	0	0	487	1021	0	0	0	0	
6	0	0	0	0	483	1021	0	0	0	0	
7	0	0	0	0	481	1021	0	0	0	0	
8	0	0	0	0	483	1021	0	0	0	0	
9	0	0	0	0	487	1021	0	0	0	0	
10	0	0	0	0	494	1021	0	0	0	0	
11	0	0	0	0	502	1021	0	0	0	0	
12	0	0	0	0	511	1021	0	0	0	0	
13	0	0	0	0	520	1021	0	0	0	0	
14	0	0	0	0	529	1021	0	0	0	0	
15	0	0	0	0	536	1021	0	0	0	0	
0	0	0	0	0	542	1021	0	0	0	0	
1	0	0	0	0	545	1021	0	0	0	0	
2	0	0	0	0	546	1021	0	0	0	0	
3	0	0	0	0	545	1021	0	0	0	0	
4	0	0	0	0	542	1021	0	0	0	0	
5	0	0	0	0	537	1021	0	0	0	0	
6	0	0	0	0	531	1021	0	0	0	0	
7	0	0	0	0	525	1021	0	0	0	0	
8	0	0	0	0	519	1021	0	0	0	0	
9	0	0	0	0	515	1021	0	0	0	0	
10	0	0	0	0	510	1021	0	0	0	0	
11	0	0	0	0	506	1021	0	0	0	0	
12	0	0	0	0	503	1021	0	0	0	0	
13	0	0	0	0	500	1021	0	0	0	0	
14	0	0	0	0	497	1021	0	0	0	0	
15	0	0	0	0	496	1021	0	0	0	0	
0	0	0	0	0	496	1021	0	0	0	0	
1	0	0	0	0	497	1021	0	0	0	0	
2	0	0	0	0	499	1021	0	0	0	0	
3	0	0	0	0	502	1021	0	0	0	0	
4	0	0	0	0	505	1021	0	0	0	0	
5	0	0	0	0	508	1021	0	0	0	0	
6	0	0	0	0	510	1021	0	0	0	0	
7	0	0	0	0	511	1021	0	0	0	0	
8	0	0	0	0	512	1021	0	0	0	0	
9	0	0	0	0	511	1021	0	0	0	0	
10	0	0	0	0	510	1021	0	0	0	0	
11	0	0	0	0	507	1021	0	0	0	0	
12	0	0	0	0	505	1021	0	0	0	0	
13	0	0	0	0	502	1021	0	0	0	0	
14	0	0	0	0	500	1021	0	0	0	0	
15	0	0	0	0	496	1021	0	0	0	0	
0	0	0	0	0	494	1021	0	0	0	0	
1	0	0	0	0	491	1021	0	0	0	0	
2	0	0	0	0	487	1021	0	0	0	0	
3	0	0	0	0	483	1021	0	0	0	0	
4	0	0	0	0	479	1021	0	0	0	0	
5	0	0	0	0	474	1021	0	0	0	0	
6	0	0	0	0	469	1021	0	0	0	0	
7	0	0	0	0	464	1021	0	0	0	0	
8	0	0	0	0	460	1021	0	0	0	0	
9	0	0	0	0	458	1021	0	0	0	0	
10	0	0	0	0	458	1021	0	0	0	0	
11	0	0	0	0	460	1021	0	0	0	0	
12	0	0	0	0	463	1021	0	0	0	0	
13	0	0	0	0	469	1021	0	0	0	0	
14	0	0	0	0	477	1021	0	0	0	0	
15	0	0	0	0	487	1021	0	0	0	0	
0	0	0	0	0	499	1021	0	0	0	0	
1	0	0	0	0	511	1021	0	0	0	0	
2	0	0	0	0	524	1021	0	0	0	0	
3	0	0	0	0	536	1021	0	0	0	0	
4	0	0	0	0	547	1021	0	0	0	0	
5	0	0	0	0	556	1021	0	0	0	0	
6	0	0	0	0	563	1021	0	0	0	0	
7	0	0	0	0	567	1021	0	0	0	0	
8	0	0	0	0	569	1021	0	0	0	0	
9	0	0	0	0	569	1021	0	0	0	0	
10	0	0	0	0	568	1021	0	0	0	0	
11	0	0	0	0	564	1021	0	0	0	0	
12	0	0	0	0	560	1021	0	0	0	0	
13	0	0	0	0	553	1021	0	0	0	0	
14	0	0	0	0	546	1021	0	0	0	0	
15	0	0	0	0	538	1021	0	0	0	0	
0	0	0	0	0	530	1021	0	0	0	0	
1	0	0	0	0	522	1021	0	0	0	0	
2	0	0	0	0	515	1021	0	0	0	0	
3	0	0	0	0	511	1021	0	0	0	0	
4	0	0	0	0	507	1021	0	0	0	0	
5	0	0	0	0	505	1021	0	0	0	0	
6	0	0	0	0	504	1021	0	0	0	0	
7	0	0	0	0	504	1021	0	0	0	0	
8	0	0	0	0	504	1021	0	0	0	0	
9	0	0	0	0	506	1021	0	0	0	0	
10	0	0	0	0	507	1021	0	0	0	0	
11	0	0	0	0	509	1021	0	0	0	0	
12	0	0	0	0	510	1021	0	0	0	0	
13	0	0	0	0	511	1021	0	0	0	0	
14	0	0	0	0	512	1021	0	0	0	0	
15	0	0	0	0	513	1021	0	0	0	0	
0	0	0	0	0	513	1021	0	0	0	0	
1	0	0	0	0	512	1021	0	0	0	0	
2	0	0	0	0	512	1021	0	0	0	0	
3	0	0	0	0	511	1021	0	0	0	0	
4	0	0	0	0	511	1021	0	0	0	0	
5	0	0	0	0	510	1021	0	0	0	0	
6	0	0	0	0	509	1021	0	0	0	0	
7	0	0	0	0	509	1021	0	0	0	0	
8	0	0	0	0	508	1021	0	0	0	0	
9	0	0	0	0	507	1021	0	0	0	0	
10	0	0	0	0	506	1021	0	0	0	0	
11	0	0	0	0	505	1021	0	0	0	0	
12	0	0	0	0	505	1021	0	0	0	0	
13	0	0	0	0	506	1021	0	0	0	0	
14	0	0	0	0	507	1021	0	0	0	0	
15	0	0	0	0	506	1021	0	0	0	0	
0	0	0	0	0	504	1021	0	0	0	0	
1	0	0	0	0	500	1021	0	0	0	0	
2	0	0	0	0	494	1021	0	0	0	0	
3	0	0	0	0	485	1021	0	0	0	0	
4	0	0	0	0	474	1021	0	0	0	0	
5	0	0	0	0	461	1021	0	0	0	0	
6	0	0	0	0	447	1021	0	0	0	0	
7	0	0	0	0	433	1021	0	0	0	0	
8	0	0	0	0	421	1021	0	0	0	0	
9	0	0	0	0	409	1021	0	0	0	0	
10	0	0	0	0	401	1021	0	0	0	0	
11	0	0	0	0	395	1021	0	0	0	0	
12	0	0	0	0	390	1021	0	0	0	0	
13	0	0	0	0	387	1021	0	0	0	0	
14	0	0	0	0	383	1021	0	0	0	0	
15	0	0	0	0	379	1021	0	0	0	0	
0	0	0	0	0	372	1021	0	0	0	0	
1	0	0	0	0	363	1021	0	0	0	0	
2	0	0	0	0	351	1021	0	0	0	0	
3	0	0	0	0	336	1021	0	0	0	0	
4	0	0	0	0	321	1021	0	0	0	0	
5	0	0	0	0	306	1021	0	0	0	0	
6	0	0	0	0	293	1021	0	0	0	0	
7	0	0	0	0	282	1021	0	0	0	0	
8	0	0	0	0	275	1021	0	0	0	0	
9	0	0	0	0	272	1021	0	0	0	0	
10	0	0	0	0	275	1021	0	0	0	0	
11	0	0	0	0	283	1021	0	0	0	0	
12	0	0	0	0	297	1021	0	0	0	0	
13	0	0	0	0	316	1021	0	0	0	0	
14	0	0	0	0	338	1021	0	0	0	0	
15	0	0	0	0	364	1021	0	0	0	0	
0	0	0	0	0	392	1021	0	0	0	0	
1	0	0	0	0	423	1021	0	0	0	0	
2	0	0	0	0	454	1021	0	0	0	0	
3	0	0	0	0	485	1021	0	0	0	0	
4	0	0	0	0	515	1021	0	0	0	0	
5	0	0	0	0	543	1021	0	0	0	0	
6	0	0	0	0	568	1021	0	0	0	0	
7	0	0	0	0	588	1021	0	0	0	0	
8	0	0	0	0	602	1021	0	0	0	0	
9	0	0	0	0	609	1021	0	0	0	0	
10	0	0	0	0	612	1021	0	0	0	0	
11	0	0	0	0	608	1021	0	0	0	0	
12	0	0	0	0	598	1021	0	0	0	0	
13	0	0	0	0	584	1021	0	0	0	0	
14	0	0	0	0	567	1021	0	0	0	0	
15	0	0	0	0	550	1021	0	0	0	0	
0	0	0	0	0	531	1021	0	0	0	0	
1	0	0	0	0	514	1021	0	0	0	0	
2	0	0	0	0	498	1021	0	0	0	0	
3	0	0	0	0	487	1021	0	0	0	0	
4	0	0	0	0	479	1021	0	0	0	0	
5	0	0	0	0	474	1021	0	0	0	0	
6	0	0	0	0	473	1021	0	0	0	0	
7	0	0	0	0	476	1021	0	0	0	0	
8	0	0	0	0	483	1021	0	0	0	0	
9	0	0	0	0	491	1021	0	0	0	0	
10	0	0	0	0	502	1021	0	0	0	0	
11	0	0	0	0	514	1021	0	0	0	0	
12	0	0	0	0	527	1021	0	0	0	0	
13	0	0	0	0	540	1021	0	0	0	0	
14	0	0	0	0	550	1021	0	0	0	0	
15	0	0	0	0	559	1021	0	0	0	0	
0	0	0	0	0	566	1021	0	0	0	0	
1	0	0	0	0	569	1021	0	0	0	0	
2	0	0	0	0	569	1021	0	0	0	0	
3	0	0	0	0	567	1021	0	0	0	0	
4	0	0	0	0	561	1021	0	0	0	0	
5	0	0	0	0	553	1021	0	0	0	0	
6	0	0	0	0	544	1021	0	0	0	0	
7	0	0	0	0	535	1021	0	0	0	0	
8	0	0	0	0	527	1021	0	0	0	0	
9	0	0	0	0	520	1021	0	0	0	0	
10	0	0	0	0	515	1021	0	0	0	0	
11	0	0	0	0	513	1021	0	0	0	0	
12	0	0	0	0	512	1021	0	0	0	0	
13	0	0	0	0	515	1021	0	0	0	0	
14	0	0	0	0	519	1021	0	0	0	0	
15	0	0	0	0	524	1021	0	0	0	0	
0	0	0	0	0	530	1021	0	0	0	0	
1	0	0	0	0	536	1021	0	0	0	0	
2	0	0	0	0	543	1021	0	0	0	0	
3	0	0	0	0	549	1021	0	0	0	0	
4	0	0	0	0	553	1021	0	0	0	0	
5	0	0	0	0	557	1021	0	0	0	0	
6	0	0	0	0	560	1021	0	0	0	0	
7	0	0	0	0	560	1021	0	0	0	0	
8	0	0	0	0	559	1021	0	0	0	0	
9	0	0	0	0	556	1021	0	0	0	0	
10	0	0	0	0	551	1021	0	0	0	0	
11	0	0	0	0	546	1021	0	0	0	0	
12	0	0	0	0	540	1021	0	0	0	0	
13	0	0	0	0	532	1021	0	0	0	0	
14	0	0	0	0	524	1021	0	0	0	0	
15	0	0	0	0	515	1021	0	0	0	0	
0	0	0	0	0	506	1021	0	0	0	0	
1	0	0	0	0	497	1021	0	0	0	0	
2	0	0	0	0	488	1021	0	0	0	0	
3	0	0	0	0	481	1021	0	0	0	0	
4	0	0	0	0	476	1021	0	0	0	0	
5	0	0	0	0	473	1021	0	0	0	0	
6	0	0	0	0	473	1021	0	0	0	0	
7	0	0	0	0	475	1021	0	0	0	0	
8	0	0	0	0	479	1021	0	0	0	0	
9	0	0	0	0	483	1022	0	0	0	0	
10	0	0	0	0	490	1021	0	0	0	0	
11	0	0	0	0	497	1021	0	0	0	0	
12	0	0	0	0	505	1021	0	0	0	0	
13	0	0	0	0	512	1021	0	0	0	0	
14	0	0	0	0	519	1021	0	0	0	0	
15	0	0	0	0	527	1021	0	0	0	0	
0	0	0	0	0	536	1021	0	0	0	0	
1	0	0	0	0	543	1021	0	0	0	0	
2	0	0	0	0	548	1021	0	0	0	0	
3	0	0	0	0	551	1021	0	0	0	0	
4	0	0	0	0	553	1021	0	0	0	0	
5	0	0	0	0	554	1021	0	0	0	0	
6	0	0	0	0	552	1021	0	0	0	0	
7	0	0	0	0	548	1021	0	0	0	0	
8	0	0	0	0	541	1021	0	0	0	0	
9	0	0	0	0	534	1021	0	0	0	0	
10	0	0	0	0	525	1021	0	0	0	0	
11	0	0	0	0	515	1021	0	0	0	0	
12	0	0	0	0	505	1021	0	0	0	0	
13	0	0	0	0	496	1021	0	0	0	0	
14	0	0	0	0	488	1021	0	0	0	0	
15	0	0	0	0	483	1021	0	0	0	0	
0	0	0	0	0	481	1021	0	0	0	0	
1	0	0	0	0	482	1021	0	0	0	0	
2	0	0	0	0	486	1021	0	0	0	0	
3	0	0	0	0	491	1021	0	0	0	0	
4	0	0	0	0	499	1021	0	0	0	0	
5	0	0	0	0	508	1021	0	0	0	0	
6	0	0	0	0	518	1021	0	0	0	0	
7	0	0	0	0	527	1021	0	0	0	0	
8	0	0	0	0	537	1021	0	0	0	0	
9	0	0	0	0	546	1021	0	0	0	0	
10	0	0	0	0	553	1021	0	0	0	0	
11	0	0	0	0	560	1021	0	0	0	0	
12	0	0	0	0	564	1021	0	0	0	0	
13	0	0	0	0	568	1021	0	0	0	0	
14	0	0	0	0	570	1021	0	0	0	0	
15	0	0	0	0	569	1021	0	0	0	0	
0	0	0	0	0	567	1021	0	0	0	0	
1	0	0	0	0	563	1021	0	0	0	0	
2	0	0	0	0	558	1021	0	0	0	0	
3	0	0	0	0	551	1021	0	0	0	0	
4	0	0	0	0	545	1021	0	0	0	0	
5	0	0	0	0	538	1021	0	0	0	0	
6	0	0	0	0	530	1021	0	0	0	0	
7	0	0	0	0	523	1021	0	0	0	0	
8	0	0	0	0	515	1021	0	0	0	0	
9	0	0	0	0	509	1021	0	0	0	0	
10	0	0	0	0	503	1021	0	0	0	0	
11	0	0	0	0	499	1021	0	0	0	0	
12	0	0	0	0	496	1021	0	0	0	0	
13	0	0	0	0	496	1021	0	0	0	0	
14	0	0	0	0	498	1021	0	0	0	0	
15	0	0	0	0	502	1021	0	0	0	0	
0	0	0	0	0	507	1021	0	0	0	0	
1	0	0	0	0	513	1021	0	0	0	0	
2	0	0	0	0	519	1021	0	0	0	0	
3	0	0	0	0	523	1021	0	0	0	0	
4	0	0	0	0	525	1021	0	0	0	0	
5	0	0	0	0	526	1021	0	0	0	0	
6	0	0	0	0	524	1021	0	0	0	0	
7	0	0	0	0	521	1021	0	0	0	0	
8	0	0	0	0	516	1021	0	0	0	0	
9	0	0	0	0	511	1021	0	0	0	0	
10	0	0	0	0	506	1021	0	0	0	0	
11	0	0	0	0	501	1021	0	0	0	0	
12	0	0	0	0	498	1021	0	0	0	0	
13	0	0	0	0	496	1021	0	0	0	0	
14	0	0	0	0	495	1021	0	0	0	0	
15	0	0	0	0	496	1021	0	0	0	0	
0	0	0	0	0	498	1021	0	0	0	0	
1	0	0	0	0	503	1021	0	0	0	0	
2	0	0	0	0	508	1021	0	0	0	0	
3	0	0	0	0	514	1021	0	0	0	0	
4	0	0	0	0	521	1021	0	0	0	0	
5	0	0	0	0	528	1021	0	0	0	0	
6	0	0	0	0	536	1021	0	0	0	0	
7	0	0	0	0	541	1021	0	0	0	0	
8	0	0	0	0	545	1021	0	0	0	0	
9	0	0	0	0	547	1021	0	0	0	0	
10	0	0	0	0	548	1021	0	0	0	0	
11	0	0	0	0	547	1021	0	0	0	0	
12	0	0	0	0	544	1021	0	0	0	0	
13	0	0	0	0	540	1021	0	0	0	0	
14	0	0	0	0	536	1021	0	0	0	0	
15	0	0	0	0	532	1021	0	0	0	0	
0	0	0	0	0	528	1021	0	0	0	0	
1	0	0	0	0	525	1021	0	0	0	0	
2	0	0	0	0	523	1021	0	0	0	0	
3	0	0	0	0	521	1021	0	0	0	0	
4	0	0	0	0	519	1021	0	0	0	0	
5	0	0	0	0	519	1021	0	0	0	0	
6	0	0	0	0	519	1021	0	0	0	0	
7	0	0	0	0	520	1021	0	0	0	0	
8	0	0	0	0	521	1021	0	0	0	0	
9	0	0	0	0	522	1021	0	0	0	0	
10	0	0	0	0	524	1021	0	0	0	0	
11	0	0	0	0	524	1021	0	0	0	0	
12	0	0	0	0	524	1021	0	0	0	0	
13	0	0	0	0	525	1021	0	0	0	0	
14	0	0	0	0	524	1021	0	0	0	0	
15	0	0	0	0	524	1021	0	0	0	0	
0	0	0	0	0	521	1021	0	0	0	0	
1	0	0	0	0	518	1021	0	0	0	0	
2	0	0	0	0	513	1021	0	0	0	0	
3	0	0	0	0	507	1021	0	0	0	0	
4	0	0	0	0	502	1021	0	0	0	0	
5	0	0	0	0	497	1021	0	0	0	0	
6	0	0	0	0	493	1021	0	0	0	0	
7	0	0	0	0	492	1021	0	0	0	0	
8	0	0	0	0	492	1021	0	0	0	0	
9	0	0	0	0	494	1021	0	0	0	0	
10	0	0	0	0	497	1021	0	0	0	0	
11	0	0	0	0	502	1021	0	0	0	0	
12	0	0	0	0	507	1021	0	0	0	0	
13	0	0	0	0	512	1021	0	0	0	0	
14	0	0	0	0	518	1021	0	0	0	0	
15	0	0	0	0	522	1021	0	0	0	0	
0	0	0	0	0	525	1021	0	0	0	0	
1	0	0	0	0	526	1021	0	0	0	0	
2	0	0	0	0	525	1021	0	0	0	0	
3	0	0	0	0	522	1021	0	0	0	0	
4	0	0	0	0	519	1021	0	0	0	0	
5	0	0	0	0	514	1021	0	0	0	0	
6	0	0	0	0	510	1021	0	0	0	0	
7	0	0	0	0	508	1021	0	0	0	0	
8	0	0	0	0	505	1021	0	0	0	0	
9	0	0	0	0	505	1021	0	0	0	0	
10	0	0	0	0	505	1021	0	0	0	0	
11	0	0	0	0	508	1021	0	0	0	0	
12	0	0	0	0	511	1021	0	0	0	0	
13	0	0	0	0	515	1021	0	0	0	0	
14	0	0	0	0	520	1021	0	0	0	0	
15	0	0	0	0	526	1021	0	0	0	0	
0	0	0	0	0	531	1021	0	0	0	0	
1	0	0	0	0	537	1021	0	0	0	0	
2	0	0	0	0	541	1021	0	0	0	0	
3	0	0	0	0	543	1021	0	0	0	0	
4	0	0	0	0	544	1021	0	0	0	0	
5	0	0	0	0	543	1021	0	0	0	0	
6	0	0	0	0	542	1021	0	0	0	0	
7	0	0	0	0	537	1021	0	0	0	0	
8	0	0	0	0	532	1021	0	0	0	0	
9	0	0	0	0	525	1021	0	0	0	0	
10	0	0	0	0	518	1021	0	0	0	0	
11	0	0	0	0	512	1021	0	0	0	0	
12	0	0	0	0	506	1021	0	0	0	0	
13	0	0	0	0	502	1021	0	0	0	0	
14	0	0	0	0	498	1021	0	0	0	0	
15	0	0	0	0	496	1021	0	0	0	0	
0	0	0	0	0	496	1021	0	0	0	0	
1	0	0	0	0	498	1021	0	0	0	0	
2	0	0	0	0	501	1021	0	0	0	0	
3	0	0	0	0	505	1021	0	0	0	0	
4	0	0	0	0	510	1021	0	0	0	0	
5	0	0	0	0	517	1021	0	0	0	0	
6	0	0	0	0	524	1021	0	0	0	0	
7	0	0	0	0	530	1021	0	0	0	0	
8	0	0	0	0	536	1021	0	0	0	0	
9	0	0	0	0	540	1021	0	0	0	0	
10	0	0	0	0	542	1021	0	0	0	0	
11	0	0	0	0	543	1021	0	0	0	0	
12	0	0	0	0	540	1021	0	0	0	0	
13	0	0	0	0	536	1021	0	0	0	0	
14	0	0	0	0	529	1021	0	0	0	0	
15	0	0	0	0	523	1021	0	0	0	0	
0	0	0	0	0	514	1021	0	0	0	0	
1	0	0	0	0	506	1021	0	0	0	0	
2	0	0	0	0	499	1021	0	0	0	0	
3	0	0	0	0	492	1021	0	0	0	0	
4	0	0	0	0	489	1021	0	0	0	0	
5	0	0	0	0	486	1021	0	0	0	0	
6	0	0	0	0	485	1021	0	0	0	0	
7	0	0	0	0	487	1021	0	0	0	0	
8	0	0	0	0	489	1021	0	0	0	0	
9	0	0	0	0	492	1021	0	0	0	0	
10	0	0	0	0	497	1021	0	0	0	0	
11	0	0	0	0	499	1021	0	0	0	0	
12	0	0	0	0	501	1021	0	0	0	0	
13	0	0	0	0	500	1021	0	0	0	0	
14	0	0	0	0	497	1021	0	0	0	0	
15	0	0	0	0	492	1021	0	0	0	0	
0	0	0	0	0	485	1021	0	0	0	0	
1	0	0	0	0	478	1021	0	0	0	0	
2	0	0	0	0	472	1021	0	0	0	0	
3	0	0	0	0	467	1021	0	0	0	0	
4	0	0	0	0	466	1021	0	0	0	0	
5	0	0	0	0	468	1021	0	0	0	0	
6	0	0	0	0	473	1021	0	0	0	0	
7	0	0	0	0	481	1021	0	0	0	0	
8	0	0	0	0	492	1021	0	0	0	0	
9	0	0	0	0	505	1021	0	0	0	0	
10	0	0	0	0	518	1021	0	0	0	0	
11	0	0	0	0	531	1021	0	0	0	0	
12	0	0	0	0	542	1021	0	0	0	0	
13	0	0	0	0	551	1021	0	0	0	0	
14	0	0	0	0	557	1021	0	0	0	0	
15	0	0	0	0	560	1021	0	0	0	0	
0	0	0	0	0	560	1021	0	0	0	0	
1	0	0	0	0	558	1021	0	0	0	0	
2	0	0	0	0	552	1021	0	0	0	0	
3	0	0	0	0	547	1021	0	0	0	0	
4	0	0	0	0	541	1021	0	0	0	0	
5	0	0	0	0	535	1021	0	0	0	0	
6	0	0	0	0	529	1021	0	0	0	0	
7	0	0	0	0	524	1021	0	0	0	0	
8	0	0	0	0	521	1021	0	0	0	0	
9	0	0	0	0	520	1021	0	0	0	0	
10	0	0	0	0	520	1021	0	0	0	0	
11	0	0	0	0	521	1021	0	0	0	0	
12	0	0	0	0	523	1021	0	0	0	0	
13	0	0	0	0	524	1021	0	0	0	0	
14	0	0	0	0	526	1021	0	0	0	0	
15	0	0	0	0	527	1021	0	0	0	0	
0	0	0	0	0	527	1021	0	0	0	0	
1	0	0	0	0	527	1021	0	0	0	0	
2	0	0	0	0	524	1021	0	0	0	0	
3	0	0	0	0	519	1021	0	0	0	0	
4	0	0	0	0	514	1021	0	0	0	0	
5	0	0	0	0	508	1021	0	0	0	0	
6	0	0	0	0	503	1021	0	0	0	0	
7	0	0	0	0	499	1021	0	0	0	0	
8	0	0	0	0	496	1021	0	0	0	0	
9	0	0	0	0	494	1021	0	0	0	0	
10	0	0	0	0	494	1021	0	0	0	0	
11	0	0	0	0	497	1021	0	0	0	0	
12	0	0	0	0	501	1021	0	0	0	0	
13	0	0	0	0	505	1021	0	0	0	0	
14	0	0	0	0	511	1021	0	0	0	0	
15	0	0	0	0	518	1021	0	0	0	0	
0	0	0	0	0	526	1021	0	0	0	0	
1	0	0	0	0	534	1021	0	0	0	0	
2	0	0	0	0	540	1021	0	0	0	0	
3	0	0	0	0	546	1021	0	0	0	0	
4	0	0	0	0	550	1021	0	0	0	0	
5	0	0	0	0	553	1021	0	0	0	0	
6	0	0	0	0	553	1021	0	0	0	0	
7	0	0	0	0	551	1021	0	0	0	0	
8	0	0	0	0	548	1021	0	0	0	0	
9	0	0	0	0	542	1021	0	0	0	0	
10	0	0	0	0	535	1021	0	0	0	0	
11	0	0	0	0	526	1021	0	0	0	0	
12	0	0	0	0	515	1021	0	0	0	0	
13	0	0	0	0	504	1021	0	0	0	0	
14	0	0	0	0	493	1021	0	0	0	0	
15	0	0	0	0	483	1021	0	0	0	0	
0	0	0	0	0	475	1021	0	0	0	0	
1	0	0	0	0	469	1021	0	0	0	0	
2	0	0	0	0	466	1021	0	0	0	0	
3	0	0	0	0	466	1021	0	0	0	0	
4	0	0	0	0	470	1021	0	0	0	0	
5	0	0	0	0	477	1021	0	0	0	0	
6	0	0	0	0	487	1021	0	0	0	0	
7	0	0	0	0	497	1021	0	0	0	0	
8	0	0	0	0	508	1021	0	0	0	0	
9	0	0	0	0	517	1021	0	0	0	0	
10	0	0	0	0	525	1021	0	0	0	0	
11	0	0	0	0	530	1021	0	0	0	0	
12	0	0	0	0	534	1021	0	0	0	0	
13	0	0	0	0	535	1021	0	0	0	0	
14	0	0	0	0	534	1021	0	0	0	0	
15	0	0	0	0	534	1021	0	0	0	0	
0	0	0	0	0	531	1021	0	0	0	0	
1	0	0	0	0	529	1021	0	0	0	0	
2	0	0	0	0	528	1021	0	0	0	0	
3	0	0	0	0	527	1021	0	0	0	0	
4	0	0	0	0	526	1021	0	0	0	0	
5	0	0	0	0	524	1021	0	0	0	0	
6	0	0	0	0	524	1021	0	0	0	0	
7	0	0	0	0	523	1021	0	0	0	0	
8	0	0	0	0	523	1021	0	0	0	0	
9	0	0	0	0	523	1021	0	0	0	0	
10	0	0	0	0	521	1021	0	0	0	0	
11	0	0	0	0	520	1021	0	0	0	0	
12	0	0	0	0	519	1021	0	0	0	0	
13	0	0	0	0	518	1021	0	0	0	0	
14	0	0	0	0	518	1021	0	0	0	0	
15	0	0	0	0	517	1021	0	0	0	0	
0	0	0	0	0	517	1021	0	0	0	0	
1	0	0	0	0	517	1021	0	0	0	0	
2	0	0	0	0	518	1021	0	0	0	0	
3	0	0	0	0	518	1021	0	0	0	0	
4	0	0	0	0	518	1021	0	0	0	0	
5	0	0	0	0	518	1021	0	0	0	0	
6	0	0	0	0	516	1021	0	0	0	0	
7	0	0	0	0	515	1021	0	0	0	0	
8	0	0	0	0	514	1021	0	0	0	0	
9	0	0	0	0	511	1021	0	0	0	0	
10	0	0	0	0	510	1021	0	0	0	0	
11	0	0	0	0	508	1021	0	0	0	0	
12	0	0	0	0	505	1021	0	0	0	0	
13	0	0	0	0	504	1021	0	0	0	0	
14	0	0	0	0	504	1021	0	0	0	0	
15	0	0	0	0	504	1021	0	0	0	0	
0	0	0	0	0	505	1021	0	0	0	0	
1	0	0	0	0	508	1021	0	0	0	0	
2	0	0	0	0	510	1021	0	0	0	0	
3	0	0	0	0	513	1021	0	0	0	0	
4	0	0	0	0	515	1021	0	0	0	0	
5	0	0	0	0	517	1021	0	0	0	0	
6	0	0	0	0	517	1021	0	0	0	0	
7	0	0	0	0	516	1021	0	0	0	0	
8	0	0	0	0	513	1021	0	0	0	0	
9	0	0	0	0	508	1021	0	0	0	0	
10	0	0	0	0	504	1021	0	0	0	0	
11	0	0	0	0	498	1021	0	0	0	0	
12	0	0	0	0	494	1021	0	0	0	0	
13	0	0	0	0	492	1021	0	0	0	0	
14	0	0	0	0	491	1021	0	0	0	0	
15	0	0	0	0	491	1021	0	0	0	0	
0	0	0	0	0	493	1021	0	0	0	0	
1	0	0	0	0	496	1021	0	0	0	0	
2	0	0	0	0	498	1021	0	0	0	0	
3	0	0	0	0	501	1021	0	0	0	0	
4	0	0	0	0	504	1021	0	0	0	0	
5	0	0	0	0	506	1021	0	0	0	0	
6	0	0	0	0	508	1021	0	0	0	0	
7	0	0	0	0	509	1021	0	0	0	0	
8	0	0	0	0	510	1021	0	0	0	0	
9	0	0	0	0	511	1021	0	0	0	0	
10	0	0	0	0	511	1021	0	0	0	0	
11	0	0	0	0	512	1021	0	0	0	0	
12	0	0	0	0	512	1021	0	0	0	0	
13	0	0	0	0	513	1021	0	0	0	0	
14	0	0	0	0	512	1021	0	0	0	0	
15	0	0	0	0	512	1021	0	0	0	0	
0	0	0	0	0	511	1021	0	0	0	0	
1	0	0	0	0	511	1021	0	0	0	0	
2	0	0	0	0	511	1021	0	0	0	0	
3	0	0	0	0	512	1021	0	0	0	0	
4	0	0	0	0	513	1021	0	0	0	0	
5	0	0	0	0	516	1021	0	0	0	0	
6	0	0	0	0	519	1021	0	0	0	0	
7	0	0	0	0	521	1021	0	0	0	0	
8	0	0	0	0	525	1021	0	0	0	0	
9	0	0	0	0	527	1021	0	0	0	0	
10	0	0	0	0	531	1021	0	0	0	0	
11	0	0	0	0	533	1021	0	0	0	0	
12	0	0	0	0	535	1021	0	0	0	0	
13	0	0	0	0	536	1022	0	0	0	0	
14	0	0	0	0	535	1021	0	0	0	0	
15	0	0	0	0	534	1021	0	0	0	0	
0	0	0	0	0	532	1021	0	0	0	0	
1	0	0	0	0	528	1021	0	0	0	0	
2	0	0	0	0	523	1021	0	0	0	0	
3	0	0	0	0	519	1021	0	0	0	0	
4	0	0	0	0	515	1021	0	0	0	0	
5	0	0	0	0	510	1021	0	0	0	0	
6	0	0	0	0	507	1021	0	0	0	0	
7	0	0	0	0	504	1021	0	0	0	0	
8	0	0	0	0	503	1021	0	0	0	0	
9	0	0	0	0	502	1021	0	0	0	0	
10	0	0	0	0	502	1021	0	0	0	0	
11	0	0	0	0	503	1021	0	0	0	0	
12	0	0	0	0	504	1021	0	0	0	0	
13	0	0	0	0	505	1021	0	0	0	0	
14	0	0	0	0	507	1021	0	0	0	0	
15	0	0	0	0	508	1021	0	0	0	0	
0	0	0	0	0	508	1021	0	0	0	0	
1	0	0	0	0	507	1021	0	0	0	0	
2	0	0	0	0	505	1021	0	0	0	0	
3	0	0	0	0	504	1021	0	0	0	0	
4	0	0	0	0	500	1021	0	0	0	0	
5	0	0	0	0	497	1021	0	0	0	0	
6	0	0	0	0	495	1021	0	0	0	0	
7	0	0	0	0	492	1021	0	0	0	0	
8	0	0	0	0	491	1021	0	0	0	0	
9	0	0	0	0	491	1021	0	0	0	0	
10	0	0	0	0	492	1021	0	0	0	0	
11	0	0	0	0	494	1021	0	0	0	0	
12	0	0	0	0	498	1021	0	0	0	0	
13	0	0	0	0	505	1021	0	0	0	0	
14	0	0	0	0	512	1021	0	0	0	0	
15	0	0	0	0	520	1021	0	0	0	0	
0	0	0	0	0	527	1021	0	0	0	0	
1	0	0	0	0	534	1021	0	0	0	0	
2	0	0	0	0	539	1021	0	0	0	0	
3	0	0	0	0	542	1021	0	0	0	0	
4	0	0	0	0	543	1021	0	0	0	0	
5	0	0	0	0	541	1021	0	0	0	0	
6	0	0	0	0	537	1021	0	0	0	0	
7	0	0	0	0	531	1021	0	0	0	0	
8	0	0	0	0	524	1021	0	0	0	0	
9	0	0	0	0	515	1021	0	0	0	0	
10	0	0	0	0	507	1021	0	0	0	0	
11	0	0	0	0	499	1021	0	0	0	0	
12	0	0	0	0	492	1021	0	0	0	0	
13	0	0	0	0	486	1021	0	0	0	0	
14	0	0	0	0	482	1021	0	0	0	0	
15	0	0	0	0	481	1021	0	0	0	0	
0	0	0	0	0	481	1021	0	0	0	0	
1	0	0	0	0	485	1021	0	0	0	0	
2	0	0	0	0	489	1021	0	0	0	0	
3	0	0	0	0	495	1021	0	0	0	0	
4	0	0	0	0	500	1022	0	0	0	0	
5	0	0	0	0	507	1021	0	0	0	0	
6	0	0	0	0	513	1021	0	0	0	0	
7	0	0	0	0	519	1021	0	0	0	0	
8	0	0	0	0	523	1021	0	0	0	0	
9	0	0	0	0	527	1021	0	0	0	0	
10	0	0	0	0	529	1021	0	0	0	0	
11	0	0	0	0	531	1021	0	0	0	0	
12	0	0	0	0	531	1021	0	0	0	0	
13	0	0	0	0	531	1021	0	0	0	0	
14	0	0	0	0	530	1021	0	0	0	0	
15	0	0	0	0	530	1021	0	0	0	0	
0	0	0	0	0	531	1021	0	0	0	0	
1	0	0	0	0	530	1021	0	0	0	0	
2	0	0	0	0	530	1021	0	0	0	0	
3	0	0	0	0	530	1021	0	0	0	0	
4	0	0	0	0	529	1021	0	0	0	0	
5	0	0	0	0	527	1021	0	0	0	0	
6	0	0	0	0	525	1021	0	0	0	0	
7	0	0	0	0	522	1021	0	0	0	0	
8	0	0	0	0	519	1021	0	0	0	0	
9	0	0	0	0	516	1021	0	0	0	0	
10	0	0	0	0	514	1021	0	0	0	0	
11	0	0	0	0	512	1021	0	0	0	0	
12	0	0	0	0	510	1021	0	0	0	0	
13	0	0	0	0	508	1021	0	0	0	0	
14	0	0	0	0	505	1021	0	0	0	0	
15	0	0	0	0	504	1021	0	0	0	0	
0	0	0	0	0	501	1021	0	0	0	0	
1	0	0	0	0	497	1021	0	0	0	0	
2	0	0	0	0	493	1021	0	0	0	0	
3	0	0	0	0	489	1021	0	0	0	0	
4	0	0	0	0	486	1021	0	0	0	0	
5	0	0	0	0	483	1021	0	0	0	0	
6	0	0	0	0	481	1021	0	0	0	0	
7	0	0	0	0	482	1021	0	0	0	0	
8	0	0	0	0	486	1021	0	0	0	0	
9	0	0	0	0	493	1021	0	0	0	0	
10	0	0	0	0	502	1021	0	0	0	0	
11	0	0	0	0	513	1021	0	0	0	0	
12	0	0	0	0	525	1021	0	0	0	0	
13	0	0	0	0	537	1021	0	0	0	0	
14	0	0	0	0	551	1021	0	0	0	0	
15	0	0	0	0	561	1021	0	0	0	0	
0	0	0	0	0	569	1021	0	0	0	0	
1	0	0	0	0	574	1022	0	0	0	0	
2	0	0	0	0	573	1021	0	0	0	0	
3	0	0	0	0	568	1021	0	0	0	0	
4	0	0	0	0	559	1021	0	0	0	0	
5	0	0	0	0	544	1021	0	0	0	0	
6	0	0	0	0	527	1021	0	0	0	0	
7	0	0	0	0	508	1021	0	0	0	0	
8	0	0	0	0	487	1021	0	0	0	0	
9	0	0	0	0	468	1021	0	0	0	0	
10	0	0	0	0	451	1021	0	0	0	0	
11	0	0	0	0	440	1021	0	0	0	0	
12	0	0	0	0	432	1021	0	0	0	0	
13	0	0	0	0	432	1021	0	0	0	0	
14	0	0	0	0	437	1021	0	0	0	0	
15	0	0	0	0	447	1021	0	0	0	0	
0	0	0	0	0	460	1021	0	0	0	0	
1	0	0	0	0	474	1021	0	0	0	0	
2	0	0	0	0	489	1021	0	0	0	0	
3	0	0	0	0	503	1021	0	0	0	0	
4	0	0	0	0	515	1021	0	0	0	0	
5	0	0	0	0	523	1021	0	0	0	0	
6	0	0	0	0	527	1021	0	0	0	0	
7	0	0	0	0	531	1021	0	0	0	0	
8	0	0	0	0	531	1021	0	0	0	0	
9	0	0	0	0	527	1021	0	0	0	0	
10	0	0	0	0	523	1021	0	0	0	0	
11	0	0	0	0	516	1021	0	0	0	0	
12	0	0	0	0	511	1021	0	0	0	0	
13	0	0	0	0	504	1021	0	0	0	0	
14	0	0	0	0	499	1021	0	0	0	0	
15	0	0	0	0	495	1021	0	0	0	0	
0	0	0	0	0	492	1021	0	0	0	0	
1	0	0	0	0	492	1021	0	0	0	0	
2	0	0	0	0	494	1021	0	0	0	0	
3	0	0	0	0	496	1021	0	0	0	0	
4	0	0	0	0	499	1022	0	0	0	0	
5	0	0	0	0	504	1021	0	0	0	0	
6	0	0	0	0	510	1021	0	0	0	0	
7	0	0	0	0	516	1021	0	0	0	0	
8	0	0	0	0	522	1021	0	0	0	0	
9	0	0	0	0	527	1021	0	0	0	0	
10	0	0	0	0	531	1021	0	0	0	0	
11	0	0	0	0	536	1021	0	0	0	0	
12	0	0	0	0	538	1021	0	0	0	0	
13	0	0	0	0	538	1021	0	0	0	0	
14	0	0	0	0	537	1021	0	0	0	0	
15	0	0	0	0	535	1021	0	0	0	0	
0	0	0	0	0	531	1021	0	0	0	0	
1	0	0	0	0	525	1021	0	0	0	0	
2	0	0	0	0	519	1021	0	0	0	0	
3	0	0	0	0	513	1021	0	0	0	0	
4	0	0	0	0	507	1021	0	0	0	0	
5	0	0	0	0	501	1021	0	0	0	0	
6	0	0	0	0	495	1021	0	0	0	0	
7	0	0	0	0	491	1021	0	0	0	0	
8	0	0	0	0	487	1021	0	0	0	0	
9	0	0	0	0	483	1021	0	0	0	0	
10	0	0	0	0	481	1021	0	0	0	0	
11	0	0	0	0	478	1021	0	0	0	0	
12	0	0	0	0	473	1021	0	0	0	0	
13	0	0	0	0	468	1021	0	0	0	0	
14	0	0	0	0	460	1021	0	0	0	0	
15	0	0	0	0	451	1021	0	0	0	0	
0	0	0	0	0	440	1021	0	0	0	0	
1	0	0	0	0	428	1021	0	0	0	0	
2	0	0	0	0	414	1021	0	0	0	0	
3	0	0	0	0	400	1021	0	0	0	0	
4	0	0	0	0	384	1021	0	0	0	0	
5	0	0	0	0	369	1021	0	0	0	0	
6	0	0	0	0	353	1021	0	0	0	0	
7	0	0	0	0	338	1021	0	0	0	0	
8	0	0	0	0	323	1021	0	0	0	0	
9	0	0	0	0	309	1021	0	0	0	0	
10	0	0	0	0	296	1021	0	0	0	0	
11	0	0	0	0	285	1021	0	0	0	0	
12	0	0	0	0	278	1021	0	0	0	0	
13	0	0	0	0	272	1021	0	0	0	0	
14	0	0	0	0	272	1021	0	0	0	0	
15	0	0	0	0	277	1021	0	0	0	0	
0	0	0	0	0	287	1021	0	0	0	0	
1	0	0	0	0	302	1021	0	0	0	0	
2	0	0	0	0	320	1021	0	0	0	0	
3	0	0	0	0	344	1021	0	0	0	0	
4	0	0	0	0	371	1021	0	0	0	0	
5	0	0	0	0	399	1021	0	0	0	0	
6	0	0	0	0	428	1021	0	0	0	0	
7	0	0	0	0	455	1021	0	0	0	0	
8	0	0	0	0	482	1021	0	0	0	0	
9	0	0	0	0	506	1021	0	0	0	0	
10	0	0	0	0	526	1021	0	0	0	0	
11	0	0	0	0	542	1021	0	0	0	0	
12	0	0	0	0	554	1021	0	0	0	0	
13	0	0	0	0	563	1021	0	0	0	0	
14	0	0	0	0	568	1021	0	0	0	0	
15	0	0	0	0	571	1021	0	0	0	0	
0	0	0	0	0	571	1021	0	0	0	0	
1	0	0	0	0	569	1021	0	0	0	0	
2	0	0	0	0	567	1021	0	0	0	0	
3	0	0	0	0	564	1021	0	0	0	0	
4	0	0	0	0	561	1021	0	0	0	0	
5	0	0	0	0	559	1021	0	0	0	0	
6	0	0	0	0	558	1021	0	0	0	0	
7	0	0	0	0	559	1021	0	0	0	0	
8	0	0	0	0	560	1021	0	0	0	0	
9	0	0	0	0	560	1021	0	0	0	0	
10	0	0	0	0	560	1022	0	0	0	0	
11	0	0	0	0	558	1021	0	0	0	0	
12	0	0	0	0	556	1021	0	0	0	0	
13	0	0	0	0	552	1021	0	0	0	0	
14	0	0	0	0	549	1021	0	0	0	0	
15	0	0	0	0	546	1022	0	0	0	0	
0	0	0	0	0	544	1021	0	0	0	0	
1	0	0	0	0	543	1021	0	0	0	0	
2	0	0	0	0	544	1021	0	0	0	0	
3	0	0	0	0	545	1021	0	0	0	0	
4	0	0	0	0	548	1022	0	0	0	0	
5	0	0	0	0	551	1021	0	0	0	0	
6	0	0	0	0	554	1021	0	0	0	0	
7	0	0	0	0	556	1021	0	0	0	0	
8	0	0	0	0	557	1021	0	0	0	0	
9	0	0	0	0	556	1021	0	0	0	0	
10	0	0	0	0	552	1021	0	0	0	0	
11	0	0	0	0	549	1021	0	0	0	0	
12	0	0	0	0	543	1021	0	0	0	0	
13	0	0	0	0	537	1021	0	0	0	0	
14	0	0	0	0	530	1021	0	0	0	0	
15	0	0	0	0	521	1021	0	0	0	0	
0	0	0	0	0	512	1021	0	0	0	0	
1	0	0	0	0	502	1021	0	0	0	0	
2	0	0	0	0	493	1021	0	0	0	0	
3	0	0	0	0	485	1021	0	0	0	0	
4	0	0	0	0	479	1021	0	0	0	0	
5	0	0	0	0	477	1021	0	0	0	0	
6	0	0	0	0	478	1021	0	0	0	0	
7	0	0	0	0	483	1021	0	0	0	0	
8	0	0	0	0	490	1021	0	0	0	0	
9	0	0	0	0	499	1021	0	0	0	0	
10	0	0	0	0	509	1021	0	0	0	0	
11	0	0	0	0	518	1021	0	0	0	0	
12	0	0	0	0	526	1021	0	0	0	0	
13	0	0	0	0	531	1021	0	0	0	0	
14	0	0	0	0	537	1021	0	0	0	0	
15	0	0	0	0	540	1021	0	0	0	0	
0	0	0	0	0	542	1021	0	0	0	0	
1	0	0	0	0	542	1021	0	0	0	0	
2	0	0	0	0	541	1021	0	0	0	0	
3	0	0	0	0	541	1021	0	0	0	0	
4	0	0	0	0	539	1021	0	0	0	0	
5	0	0	0	0	537	1021	0	0	0	0	
6	0	0	0	0	535	1021	0	0	0	0	
7	0	0	0	0	533	1021	0	0	0	0	
8	0	0	0	0	532	1021	0	0	0	0	
9	0	0	0	0	531	1021	0	0	0	0	
10	0	0	0	0	529	1021	0	0	0	0	
11	0	0	0	0	528	1021	0	0	0	0	
12	0	0	0	0	526	1021	0	0	0	0	
13	0	0	0	0	526	1021	0	0	0	0	
14	0	0	0	0	524	1021	0	0	0	0	
15	0	0	0	0	522	1021	0	0	0	0	
0	0	0	0	0	520	1021	0	0	0	0	
1	0	0	0	0	518	1021	0	0	0	0	
2	0	0	0	0	516	1021	0	0	0	0	
3	0	0	0	0	514	1021	0	0	0	0	
4	0	0	0	0	512	1021	0	0	0	0	
5	0	0	0	0	511	1021	0	0	0	0	
6	0	0	0	0	509	1021	0	0	0	0	
7	0	0	0	0	510	1021	0	0	0	0	
8	0	0	0	0	510	1021	0	0	0	0	
9	0	0	0	0	510	1021	0	0	0	0	
10	0	0	0	0	511	1021	0	0	0	0	
11	0	0	0	0	512	1021	0	0	0	0	
12	0	0	0	0	516	1021	0	0	0	0	
13	0	0	0	0	520	1021	0	0	0	0	
14	0	0	0	0	525	1021	0	0	0	0	
15	0	0	0	0	532	1021	0	0	0	0	
0	0	0	0	0	538	1021	0	0	0	0	
1	0	0	0	0	545	1021	0	0	0	0	
2	0	0	0	0	551	1021	0	0	0	0	
3	0	0	0	0	556	1021	0	0	0	0	
4	0	0	0	0	560	1021	0	0	0	0	
5	0	0	0	0	561	1021	0	0	0	0	
6	0	0	0	0	561	1021	0	0	0	0	
7	0	0	0	0	560	1021	0	0	0	0	
8	0	0	0	0	557	1021	0	0	0	0	
9	0	0	0	0	554	1021	0	0	0	0	
10	0	0	0	0	550	1021	0	0	0	0	
11	0	0	0	0	548	1021	0	0	0	0	
12	0	0	0	0	546	1021	0	0	0	0	
13	0	0	0	0	543	1021	0	0	0	0	
14	0	0	0	0	543	1021	0	0	0	0	
15	0	0	0	0	543	1021	0	0	0	0	
0	0	0	0	0	543	1021	0	0	0	0	
1	0	0	0	0	544	1021	0	0	0	0	
2	0	0	0	0	544	1021	0	0	0	0	
3	0	0	0	0	545	1021	0	0	0	0	
4	0	0	0	0	545	1021	0	0	0	0	
5	0	0	0	0	544	1021	0	0	0	0	
6	0	0	0	0	542	1021	0	0	0	0	
7	0	0	0	0	538	1021	0	0	0	0	
8	0	0	0	0	534	1021	0	0	0	0	
9	0	0	0	0	529	1021	0	0	0	0	
10	0	0	0	0	525	1021	0	0	0	0	
11	0	0	0	0	521	1021	0	0	0	0	
12	0	0	0	0	518	1021	0	0	0	0	
13	0	0	0	0	515	1021	0	0	0	0	
14	0	0	0	0	515	1021	0	0	0	0	
15	0	0	0	0	515	1021	0	0	0	0	
0	0	0	0	0	517	1021	0	0	0	0	
1	0	0	0	0	520	1021	0	0	0	0	
2	0	0	0	0	524	1021	0	0	0	0	
3	0	0	0	0	527	1021	0	0	0	0	
4	0	0	0	0	530	1021	0	0	0	0	
5	0	0	0	0	534	1021	0	0	0	0	
6	0	0	0	0	535	1021	0	0	0	0	
7	0	0	0	0	534	1021	0	0	0	0	
8	0	0	0	0	533	1021	0	0	0	0	
9	0	0	0	0	531	1021	0	0	0	0	
10	0	0	0	0	528	1021	0	0	0	0	
11	0	0	0	0	526	1021	0	0	0	0	
12	0	0	0	0	523	1021	0	0	0	0	
13	0	0	0	0	520	1021	0	0	0	0	
14	0	0	0	0	518	1021	0	0	0	0	
15	0	0	0	0	517	1021	0	0	0	0	
0	0	0	0	0	516	1021	0	0	0	0	
1	0	0	0	0	515	1021	0	0	0	0	
2	0	0	0	0	515	1021	0	0	0	0	
3	0	0	0	0	516	1021	0	0	0	0	
4	0	0	0	0	517	1021	0	0	0	0	
5	0	0	0	0	519	1021	0	0	0	0	
6	0	0	0	0	521	1021	0	0	0	0	
7	0	0	0	0	523	1021	0	0	0	0	
8	0	0	0	0	526	1021	0	0	0	0	
9	0	0	0	0	528	1021	0	0	0	0	
10	0	0	0	0	529	1021	0	0	0	0	
11	0	0	0	0	529	1022	0	0	0	0	
12	0	0	0	0	528	1021	0	0	0	0	
13	0	0	0	0	526	1021	0	0	0	0	
14	0	0	0	0	522	1021	0	0	0	0	
15	0	0	0	0	517	1021	0	0	0	0	
0	0	0	0	0	511	1021	0	0	0	0	
1	0	0	0	0	507	1021	0	0	0	0	
2	0	0	0	0	502	1021	0	0	0	0	
3	0	0	0	0	500	1021	0	0	0	0	
4	0	0	0	0	499	1021	0	0	0	0	
5	0	0	0	0	500	1021	0	0	0	0	
6	0	0	0	0	501	1021	0	0	0	0	
7	0	0	0	0	502	1021	0	0	0	0	
8	0	0	0	0	504	1021	0	0	0	0	
9	0	0	0	0	505	1021	0	0	0	0	
10	0	0	0	0	504	1021	0	0	0	0	
11	0	0	0	0	503	1021	0	0	0	0	
12	0	0	0	0	502	1021	0	0	0	0	
13	0	0	0	0	503	1021	0	0	0	0	
14	0	0	0	0	504	1021	0	0	0	0	
15	0	0	0	0	507	1021	0	0	0	0	
0	0	0	0	0	511	1021	0	0	0	0	
1	0	0	0	0	517	1021	0	0	0	0	
2	0	0	0	0	525	1021	0	0	0	0	
3	0	0	0	0	533	1021	0	0	0	0	
4	0	0	0	0	540	1021	0	0	0	0	
5	0	0	0	0	548	1021	0	0	0	0	
6	0	0	0	0	555	1021	0	0	0	0	
7	0	0	0	0	562	1021	0	0	0	0	
8	0	0	0	0	568	1021	0	0	0	0	
9	0	0	0	0	573	1021	0	0	0	0	
10	0	0	0	0	577	1021	0	0	0	0	
11	0	0	0	0	580	1021	0	0	0	0	
12	0	0	0	0	582	1021	0	0	0	0	
13	0	0	0	0	580	1021	0	0	0	0	
14	0	0	0	0	576	1021	0	0	0	0	
15	0	0	0	0	570	1022	0	0	0	0	
0	0	0	0	0	561	1021	0	0	0	0	
1	0	0	0	0	551	1021	0	0	0	0	
2	0	0	0	0	540	1021	0	0	0	0	
3	0	0	0	0	528	1021	0	0	0	0	
4	0	0	0	0	517	1021	0	0	0	0	
5	0	0	0	0	506	1021	0	0	0	0	
6	0	0	0	0	499	1021	0	0	0	0	
7	0	0	0	0	492	1021	0	0	0	0	
8	0	0	0	0	487	1021	0	0	0	0	
9	0	0	0	0	483	1022	0	0	0	0	
10	0	0	0	0	482	1021	0	0	0	0	
11	0	0	0	0	482	1021	0	0	0	0	
12	0	0	0	0	483	1021	0	0	0	0	
13	0	0	0	0	485	1021	0	0	0	0	
14	0	0	0	0	488	1021	0	0	0	0	
15	0	0	0	0	492	1021	0	0	0	0	
0	0	0	0	0	497	1021	0	0	0	0	
1	0	0	0	0	502	1022	0	0	0	0	
2	0	0	0	0	508	1021	0	0	0	0	
3	0	0	0	0	512	1022	0	0	0	0	
4	0	0	0	0	516	1021	0	0	0	0	
5	0	0	0	0	521	1021	0	0	0	0	
6	0	0	0	0	526	1021	0	0	0	0	
7	0	0	0	0	531	1021	0	0	0	0	
8	0	0	0	0	537	1021	0	0	0	0	
9	0	0	0	0	543	1021	0	0	0	0	
10	0	0	0	0	548	1021	0	0	0	0	
11	0	0	0	0	554	1021	0	0	0	0	
12	0	0	0	0	559	1021	0	0	0	0	
13	0	0	0	0	563	1021	0	0	0	0	
14	0	0	0	0	565	1021	0	0	0	0	
15	0	0	0	0	566	1021	0	0	0	0	
0	0	0	0	0	565	1021	0	0	0	0	
1	0	0	0	0	563	1021	0	0	0	0	
2	0	0	0	0	560	1021	0	0	0	0	
3	0	0	0	0	556	1021	0	0	0	0	
4	0	0	0	0	552	1021	0	0	0	0	
5	0	0	0	0	548	1021	0	0	0	0	
6	0	0	0	0	545	1021	0	0	0	0	
7	0	0	0	0	543	1022	0	0	0	0	
8	0	0	0	0	540	1021	0	0	0	0	
9	0	0	0	0	538	1021	0	0	0	0	
10	0	0	0	0	536	1021	0	0	0	0	
11	0	0	0	0	533	1021	0	0	0	0	
12	0	0	0	0	530	1021	0	0	0	0	
13	0	0	0	0	525	1021	0	0	0	0	
14	0	0	0	0	521	1021	0	0	0	0	
15	0	0	0	0	516	1021	0	0	0	0	
0	0	0	0	0	510	1021	0	0	0	0	
1	0	0	0	0	503	1021	0	0	0	0	
2	0	0	0	0	496	1021	0	0	0	0	
3	0	0	0	0	488	1021	0	0	0	0	
4	0	0	0	0	480	1021	0	0	0	0	
5	0	0	0	0	474	1021	0	0	0	0	
6	0	0	0	0	470	1021	0	0	0	0	
7	0	0	0	0	469	1021	0	0	0	0	
8	0	0	0	0	471	1021	0	0	0	0	
9	0	0	0	0	476	1021	0	0	0	0	
10	0	0	0	0	485	1021	0	0	0	0	
11	0	0	0	0	497	1021	0	0	0	0	
12	0	0	0	0	512	1021	0	0	0	0	
13	0	0	0	0	531	1021	0	0	0	0	
14	0	0	0	0	548	1021	0	0	0	0	
15	0	0	0	0	566	1021	0	0	0	0	
0	0	0	0	0	580	1021	0	0	0	0	
1	0	0	0	0	591	1021	0	0	0	0	
2	0	0	0	0	600	1021	0	0	0	0	
3	0	0	0	0	603	1021	0	0	0	0	
4	0	0	0	0	602	1021	0	0	0	0	
5	0	0	0	0	597	1021	0	0	0	0	
6	0	0	0	0	588	1021	0	0	0	0	
7	0	0	0	0	577	1021	0	0	0	0	
8	0	0	0	0	563	1021	0	0	0	0	
9	0	0	0	0	548	1021	0	0	0	0	
10	0	0	0	0	531	1022	0	0	0	0	
11	0	0	0	0	515	1021	0	0	0	0	
12	0	0	0	0	500	1021	0	0	0	0	
13	0	0	0	0	486	1021	0	0	0	0	
14	0	0	0	0	474	1021	0	0	0	0	
15	0	0	0	0	464	1021	0	0	0	0	
0	0	0	0	0	459	1021	0	0	0	0	
1	0	0	0	0	455	1021	0	0	0	0	
2	0	0	0	0	455	1021	0	0	0	0	
3	0	0	0	0	457	1021	0	0	0	0	
4	0	0	0	0	461	1021	0	0	0	0	
5	0	0	0	0	467	1021	0	0	0	0	
6	0	0	0	0	473	1021	0	0	0	0	
7	0	0	0	0	480	1021	0	0	0	0	
8	0	0	0	0	486	1021	0	0	0	0	
9	0	0	0	0	492	1021	0	0	0	0	
10	0	0	0	0	498	1021	0	0	0	0	
11	0	0	0	0	503	1021	0	0	0	0	
12	0	0	0	0	508	1021	0	0	0	0	
13	0	0	0	0	512	1021	0	0	0	0	
14	0	0	0	0	516	1021	0	0	0	0	
15	0	0	0	0	520	1021	0	0	0	0	
0	0	0	0	0	523	1021	0	0	0	0	
1	0	0	0	0	524	1021	0	0	0	0	
2	0	0	0	0	525	1021	0	0	0	0	
3	0	0	0	0	524	1021	0	0	0	0	
4	0	0	0	0	524	1021	0	0	0	0	
5	0	0	0	0	521	1021	0	0	0	0	
6	0	0	0	0	518	1021	0	0	0	0	
7	0	0	0	0	515	1021	0	0	0	0	
8	0	0	0	0	511	1022	0	0	0	0	
9	0	0	0	0	509	1021	0	0	0	0	
10	0	0	0	0	508	1021	0	0	0	0	
11	0	0	0	0	509	1021	0	0	0	0	
12	0	0	0	0	511	1021	0	0	0	0	
13	0	0	0	0	513	1021	0	0	0	0	
14	0	0	0	0	516	1021	0	0	0	0	
15	0	0	0	0	519	1021	0	0	0	0	
0	0	0	0	0	520	1021	0	0	0	0	
1	0	0	0	0	523	1021	0	0	0	0	
2	0	0	0	0	525	1022	0	0	0	0	
3	0	0	0	0	526	1021	0	0	0	0	
4	0	0	0	0	527	1021	0	0	0	0	
5	0	0	0	0	526	1021	0	0	0	0	
6	0	0	0	0	525	1021	0	0	0	0	
7	0	0	0	0	525	1021	0	0	0	0	
8	0	0	0	0	524	1021	0	0	0	0	
9	0	0	0	0	523	1021	0	0	0	0	
10	0	0	0	0	523	1021	0	0	0	0	
11	0	0	0	0	522	1021	0	0	0	0	
12	0	0	0	0	521	1021	0	0	0	0	
13	0	0	0	0	520	1021	0	0	0	0	
14	0	0	0	0	519	1021	0	0	0	0	
15	0	0	0	0	518	1021	0	0	0	0	
0	0	0	0	0	515	1021	0	0	0	0	
1	0	0	0	0	513	1021	0	0	0	0	
2	0	0	0	0	508	1021	0	0	0	0	
3	0	0	0	0	504	1021	0	0	0	0	
4	0	0	0	0	499	1021	0	0	0	0	
5	0	0	0	0	493	1021	0	0	0	0	
6	0	0	0	0	487	1021	0	0	0	0	
7	0	0	0	0	483	1021	0	0	0	0	
8	0	0	0	0	481	1021	0	0	0	0	
9	0	0	0	0	479	1021	0	0	0	0	
10	0	0	0	0	479	1021	0	0	0	0	
11	0	0	0	0	480	1021	0	0	0	0	
12	0	0	0	0	483	1021	0	0	0	0	
13	0	0	0	0	490	1021	0	0	0	0	
14	0	0	0	0	498	1021	0	0	0	0	
15	0	0	0	0	507	1021	0	0	0	0	
0	0	0	0	0	517	1021	0	0	0	0	
1	0	0	0	0	527	1021	0	0	0	0	
2	0	0	0	0	540	1021	0	0	0	0	
3	0	0	0	0	550	1021	0	0	0	0	
4	0	0	0	0	559	1021	0	0	0	0	
5	0	0	0	0	567	1021	0	0	0	0	
6	0	0	0	0	572	1021	0	0	0	0	
7	0	0	0	0	576	1021	0	0	0	0	
8	0	0	0	0	577	1021	0	0	0	0	
9	0	0	0	0	575	1021	0	0	0	0	
10	0	0	0	0	571	1022	0	0	0	0	
11	0	0	0	0	564	1021	0	0	0	0	
12	0	0	0	0	556	1021	0	0	0	0	
13	0	0	0	0	547	1021	0	0	0	0	
14	0	0	0	0	539	1021	0	0	0	0	
15	0	0	0	0	531	1022	0	0	0	0	
0	0	0	0	0	523	1021	0	0	0	0	
1	0	0	0	0	516	1021	0	0	0	0	
2	0	0	0	0	511	1021	0	0	0	0	
3	0	0	0	0	506	1021	0	0	0	0	
4	0	0	0	0	503	1021	0	0	0	0	
5	0	0	0	0	500	1021	0	0	0	0	
6	0	0	0	0	499	1021	0	0	0	0	
7	0	0	0	0	497	1021	0	0	0	0	
8	0	0	0	0	498	1021	0	0	0	0	
9	0	0	0	0	499	1021	0	0	0	0	
10	0	0	0	0	500	1021	0	0	0	0	
11	0	0	0	0	503	1021	0	0	0	0	
12	0	0	0	0	504	1021	0	0	0	0	
13	0	0	0	0	505	1021	0	0	0	0	
14	0	0	0	0	506	1021	0	0	0	0	
15	0	0	0	0	507	1021	0	0	0	0	
0	0	0	0	0	506	1021	0	0	0	0	
1	0	0	0	0	505	1021	0	0	0	0	
2	0	0	0	0	504	1021	0	0	0	0	
3	0	0	0	0	503	1021	0	0	0	0	
4	0	0	0	0	502	1021	0	0	0	0	
5	0	0	0	0	503	1021	0	0	0	0	
6	0	0	0	0	504	1021	0	0	0	0	
7	0	0	0	0	505	1021	0	0	0	0	
8	0	0	0	0	509	1021	0	0	0	0	
9	0	0	0	0	512	1021	0	0	0	0	
10	0	0	0	0	516	1021	0	0	0	0	
11	0	0	0	0	519	1021	0	0	0	0	
12	0	0	0	0	520	1021	0	0	0	0	
13	0	0	0	0	520	1021	0	0	0	0	
14	0	0	0	0	518	1021	0	0	0	0	
15	0	0	0	0	515	1021	0	0	0	0	
0	0	0	0	0	511	1021	0	0	0	0	
1	0	0	0	0	507	1021	0	0	0	0	
2	0	0	0	0	503	1022	0	0	0	0	
3	0	0	0	0	500	1021	0	0	0	0	
4	0	0	0	0	499	1021	0	0	0	0	
5	0	0	0	0	497	1021	0	0	0	0	
6	0	0	0	0	497	1021	0	0	0	0	
7	0	0	0	0	498	1021	0	0	0	0	
8	0	0	0	0	499	1021	0	0	0	0	
9	0	0	0	0	499	1021	0	0	0	0	
10	0	0	0	0	499	1021	0	0	0	0	
11	0	0	0	0	499	1021	0	0	0	0	
12	0	0	0	0	497	1021	0	0	0	0	
13	0	0	0	0	496	1021	0	0	0	0	
14	0	0	0	0	495	1021	0	0	0	0	
15	0	0	0	0	494	1021	0	0	0	0	
0	0	0	0	0	493	1021	0	0	0	0	
1	0	0	0	0	492	1022	0	0	0	0	
2	0	0	0	0	493	1021	0	0	0	0	
3	0	0	0	0	495	1021	0	0	0	0	
4	0	0	0	0	495	1022	0	0	0	0	
5	0	0	0	0	496	1021	0	0	0	0	
6	0	0	0	0	497	1022	0	0	0	0	
7	0	0	0	0	499	1021	0	0	0	0	
8	0	0	0	0	500	1021	0	0	0	0	
9	0	0	0	0	502	1021	0	0	0	0	
10	0	0	0	0	504	1021	0	0	0	0	
11	0	0	0	0	506	1021	0	0	0	0	
12	0	0	0	0	507	1021	0	0	0	0	
13	0	0	0	0	511	1021	0	0	0	0	
14	0	0	0	0	513	1021	0	0	0	0	
15	0	0	0	0	517	1021	0	0	0	0	
0	0	0	0	0	520	1022	0	0	0	0	
1	0	0	0	0	524	1021	0	0	0	0	
2	0	0	0	0	528	1021	0	0	0	0	
3	0	0	0	0	531	1021	0	0	0	0	
4	0	0	0	0	533	1021	0	0	0	0	
5	0	0	0	0	534	1021	0	0	0	0	
6	0	0	0	0	532	1021	0	0	0	0	
7	0	0	0	0	531	1021	0	0	0	0	
8	0	0	0	0	528	1021	0	0	0	0	
9	0	0	0	0	524	1021	0	0	0	0	
10	0	0	0	0	520	1022	0	0	0	0	
11	0	0	0	0	515	1021	0	0	0	0	
12	0	0	0	0	510	1021	0	0	0	0	
13	0	0	0	0	505	1021	0	0	0	0	
14	0	0	0	0	501	1021	0	0	0	0	
15	0	0	0	0	499	1021	0	0	0	0	
0	0	0	0	0	499	1021	0	0	0	0	
1	0	0	0	0	499	1021	0	0	0	0	
2	0	0	0	0	502	1021	0	0	0	0	
3	0	0	0	0	505	1021	0	0	0	0	
4	0	0	0	0	508	1021	0	0	0	0	
5	0	0	0	0	512	1021	0	0	0	0	
6	0	0	0	0	515	1021	0	0	0	0	
7	0	0	0	0	517	1021	0	0	0	0	
8	0	0	0	0	519	1021	0	0	0	0	
9	0	0	0	0	520	1021	0	0	0	0	
10	0	0	0	0	523	1021	0	0	0	0	
11	0	0	0	0	526	1021	0	0	0	0	
12	0	0	0	0	528	1021	0	0	0	0	
13	0	0	0	0	532	1021	0	0	0	0	
14	0	0	0	0	535	1021	0	0	0	0	
15	0	0	0	0	538	1021	0	0	0	0	
0	0	0	0	0	539	1021	0	0	0	0	
1	0	0	0	0	540	1021	0	0	0	0	
2	0	0	0	0	539	1021	0	0	0	0	
3	0	0	0	0	535	1021	0	0	0	0	
4	0	0	0	0	532	1021	0	0	0	0	
5	0	0	0	0	527	1021	0	0	0	0	
6	0	0	0	0	521	1021	0	0	0	0	
7	0	0	0	0	516	1022	0	0	0	0	
8	0	0	0	0	512	1021	0	0	0	0	
9	0	0	0	0	511	1021	0	0	0	0	
10	0	0	0	0	511	1021	0	0	0	0	
11	0	0	0	0	512	1021	0	0	0	0	
12	0	0	0	0	515	1021	0	0	0	0	
13	0	0	0	0	519	1021	0	0	0	0	
14	0	0	0	0	525	1021	0	0	0	0	
15	0	0	0	0	530	1021	0	0	0	0	
0	0	0	0	0	536	1021	0	0	0	0	
1	0	0	0	0	541	1021	0	0	0	0	
2	0	0	0	0	545	1021	0	0	0	0	
3	0	0	0	0	551	1021	0	0	0	0	
4	0	0	0	0	555	1021	0	0	0	0	
5	0	0	0	0	557	1021	0	0	0	0	
6	0	0	0	0	559	1021	0	0	0	0	
7	0	0	0	0	558	1021	0	0	0	0	
8	0	0	0	0	557	1021	0	0	0	0	
9	0	0	0	0	553	1021	0	0	0	0	
10	0	0	0	0	548	1021	0	0	0	0	
11	0	0	0	0	542	1021	0	0	0	0	
12	0	0	0	0	534	1021	0	0	0	0	
13	0	0	0	0	525	1021	0	0	0	0	
14	0	0	0	0	517	1021	0	0	0	0	
15	0	0	0	0	510	1021	0	0	0	0	
0	0	0	0	0	504	1021	0	0	0	0	
1	0	0	0	0	499	1021	0	0	0	0	
2	0	0	0	0	496	1021	0	0	0	0	
3	0	0	0	0	496	1021	0	0	0	0	
4	0	0	0	0	496	1021	0	0	0	0	
5	0	0	0	0	498	1021	0	0	0	0	
6	0	0	0	0	502	1022	0	0	0	0	
7	0	0	0	0	505	1021	0	0	0	0	
8	0	0	0	0	510	1021	0	0	0	0	
9	0	0	0	0	514	1021	0	0	0	0	
10	0	0	0	0	518	1021	0	0	0	0	
11	0	0	0	0	521	1021	0	0	0	0	
12	0	0	0	0	522	1021	0	0	0	0	
13	0	0	0	0	524	1021	0	0	0	0	
14	0	0	0	0	523	1021	0	0	0	0	
15	0	0	0	0	522	1021	0	0	0	0	
0	0	0	0	0	521	1021	0	0	0	0	
1	0	0	0	0	520	1021	0	0	0	0	
2	0	0	0	0	520	1021	0	0	0	0	
3	0	0	0	0	519	1021	0	0	0	0	
4	0	0	0	0	519	1021	0	0	0	0	
5	0	0	0	0	518	1021	0	0	0	0	
6	0	0	0	0	516	1021	0	0	0	0	
7	0	0	0	0	513	1021	0	0	0	0	
8	0	0	0	0	510	1021	0	0	0	0	
9	0	0	0	0	505	1021	0	0	0	0	
10	0	0	0	0	501	1021	0	0	0	0	
11	0	0	0	0	496	1021	0	0	0	0	
12	0	0	0	0	493	1021	0	0	0	0	
13	0	0	0	0	490	1021	0	0	0	0	
14	0	0	0	0	489	1021	0	0	0	0	
15	0	0	0	0	490	1021	0	0	0	0	
0	0	0	0	0	494	1021	0	0	0	0	
1	0	0	0	0	500	1021	0	0	0	0	
2	0	0	0	0	508	1021	0	0	0	0	
3	0	0	0	0	516	1021	0	0	0	0	
4	0	0	0	0	525	1021	0	0	0	0	
5	0	0	0	0	533	1021	0	0	0	0	
6	0	0	0	0	540	1021	0	0	0	0	
7	0	0	0	0	544	1021	0	0	0	0	
8	0	0	0	0	547	1021	0	0	0	0	
9	0	0	0	0	548	1021	0	0	0	0	
10	0	0	0	0	546	1021	0	0	0	0	
11	0	0	0	0	543	1021	0	0	0	0	
12	0	0	0	0	537	1021	0	0	0	0	
13	0	0	0	0	531	1021	0	0	0	0	
14	0	0	0	0	524	1022	0	0	0	0	
15	0	0	0	0	517	1021	0	0	0	0	
0	0	0	0	0	510	1021	0	0	0	0	
1	0	0	0	0	504	1021	0	0	0	0	
2	0	0	0	0	499	1021	0	0	0	0	
3	0	0	0	0	496	1021	0	0	0	0	
4	0	0	0	0	496	1021	0	0	0	0	
5	0	0	0	0	499	1021	0	0	0	0	
6	0	0	0	0	504	1021	0	0	0	0	
7	0	0	0	0	511	1021	0	0	0	0	
8	0	0	0	0	519	1021	0	0	0	0	
9	0	0	0	0	527	1021	0	0	0	0	
10	0	0	0	0	536	1021	0	0	0	0	
11	0	0	0	0	542	1021	0	0	0	0	
12	0	0	0	0	546	1021	0	0	0	0	
13	0	0	0	0	548	1022	0	0	0	0	
14	0	0	0	0	547	1022	0	0	0	0	
15	0	0	0	0	546	1021	0	0	0	0	
0	0	0	0	0	543	1021	0	0	0	0	
1	0	0	0	0	539	1021	0	0	0	0	
2	0	0	0	0	534	1022	0	0	0	0	
3	0	0	0	0	530	1022	0	0	0	0	
4	0	0	0	0	527	1021	0	0	0	0	
5	0	0	0	0	524	1021	0	0	0	0	
6	0	0	0	0	520	1021	0	0	0	0	
7	0	0	0	0	518	1022	0	0	0	0	
8	0	0	0	0	517	1021	0	0	0	0	
9	0	0	0	0	516	1021	0	0	0	0	
10	0	0	0	0	515	1021	0	0	0	0	
11	0	0	0	0	514	1021	0	0	0	0	
12	0	0	0	0	512	1022	0	0	0	0	
13	0	0	0	0	509	1021	0	0	0	0	
14	0	0	0	0	505	1021	0	0	0	0	
15	0	0	0	0	499	1021	0	0	0	0	
0	0	0	0	0	491	1021	0	0	0	0	
1	0	0	0	0	480	1021	0	0	0	0	
2	0	0	0	0	468	1022	0	0	0	0	
3	0	0	0	0	457	1021	0	0	0	0	
4	0	0	0	0	445	1021	0	0	0	0	
5	0	0	0	0	434	1021	0	0	0	0	
6	0	0	0	0	423	1021	0	0	0	0	
7	0	0	0	0	415	1021	0	0	0	0	
8	0	0	0	0	409	1021	0	0	0	0	
9	0	0	0	0	403	1021	0	0	0	0	
10	0	0	0	0	400	1021	0	0	0	0	
11	0	0	0	0	399	1021	0	0	0	0	
12	0	0	0	0	397	1021	0	0	0	0	
13	0	0	0	0	396	1021	0	0	0	0	
14	0	0	0	0	391	1021	0	0	0	0	
15	0	0	0	0	385	1021	0	0	0	0	
0	0	0	0	0	375	1021	0	0	0	0	
1	0	0	0	0	361	1021	0	0	0	0	
2	0	0	0	0	344	1021	0	0	0	0	
3	0	0	0	0	324	1021	0	0	0	0	
4	0	0	0	0	305	1021	0	0	0	0	
5	0	0	0	0	288	1021	0	0	0	0	
6	0	0	0	0	273	1021	0	0	0	0	
7	0	0	0	0	263	1021	0	0	0	0	
8	0	0	0	0	259	1021	0	0	0	0	
9	0	0	0	0	260	1021	0	0	0	0	
10	0	0	0	0	266	1021	0	0	0	0	
11	0	0	0	0	278	1021	0	0	0	0	
12	0	0	0	0	295	1021	0	0	0	0	
13	0	0	0	0	318	1021	0	0	0	0	
14	0	0	0	0	346	1021	0	0	0	0	
15	0	0	0	0	377	1021	0	0	0	0	
0	0	0	0	0	412	1021	0	0	0	0	
1	0	0	0	0	449	1021	0	0	0	0	
2	0	0	0	0	486	1021	0	0	0	0	
3	0	0	0	0	520	1021	0	0	0	0	
4	0	0	0	0	551	1022	0	0	0	0	
5	0	0	0	0	579	1021	0	0	0	0	
6	0	0	0	0	600	1021	0	0	0	0	
7	0	0	0	0	615	1021	0	0	0	0	
8	0	0	0	0	624	1021	0	0	0	0	
9	0	0	0	0	627	1021	0	0	0	0	
10	0	0	0	0	624	1022	0	0	0	0	
11	0	0	0	0	618	1021	0	0	0	0	
12	0	0	0	0	607	1021	0	0	0	0	
13	0	0	0	0	593	1021	0	0	0	0	
14	0	0	0	0	579	1022	0	0	0	0	
15	0	0	0	0	564	1021	0	0	0	0	
0	0	0	0	0	551	1021	0	0	0	0	
1	0	0	0	0	540	1021	0	0	0	0	
2	0	0	0	0	531	1021	0	0	0	0	
3	0	0	0	0	525	1021	0	0	0	0	
4	0	0	0	0	521	1021	0	0	0	0	
5	0	0	0	0	522	1021	0	0	0	0	
6	0	0	0	0	524	1021	0	0	0	0	
7	0	0	0	0	528	1021	0	0	0	0	
8	0	0	0	0	532	1021	0	0	0	0	
9	0	0	0	0	536	1022	0	0	0	0	
10	0	0	0	0	541	1021	0	0	0	0	
11	0	0	0	0	545	1021	0	0	0	0	
12	0	0	0	0	548	1021	0	0	0	0	
13	0	0	0	0	551	1022	0	0	0	0	
14	0	0	0	0	553	1022	0	0	0	0	
15	0	0	0	0	558	1021	0	0	0	0	
0	0	0	0	0	562	1021	0	0	0	0	
1	0	0	0	0	566	1021	0	0	0	0	
2	0	0	0	0	569	1022	0	0	0	0	
3	0	0	0	0	573	1022	0	0	0	0	
4	0	0	0	0	577	1021	0	0	0	0	
5	0	0	0	0	578	1022	0	0	0	0	
6	0	0	0	0	579	1021	0	0	0	0	
7	0	0	0	0	579	1022	0	0	0	0	
8	0	0	0	0	576	1021	0	0	0	0	
9	0	0	0	0	573	1021	0	0	0	0	
10	0	0	0	0	568	1021	0	0	0	0	
11	0	0	0	0	561	1021	0	0	0	0	
12	0	0	0	0	554	1021	0	0	0	0	
13	0	0	0	0	546	1022	0	0	0	0	
14	0	0	0	0	539	1021	0	0	0	0	
15	0	0	0	0	531	1021	0	0	0	0	
0	0	0	0	0	524	1021	0	0	0	0	
1	0	0	0	0	518	1022	0	0	0	0	
2	0	0	0	0	514	1021	0	0	0	0	
3	0	0	0	0	512	1021	0	0	0	0	
4	0	0	0	0	511	1021	0	0	0	0	
5	0	0	0	0	511	1021	0	0	0	0	
6	0	0	0	0	511	1021	0	0	0	0	
7	0	0	0	0	511	1021	0	0	0	0	
8	0	0	0	0	512	1021	0	0	0	0	
9	0	0	0	0	511	1021	0	0	0	0	
10	0	0	0	0	508	1021	0	0	0	0	
11	0	0	0	0	506	1021	0	0	0	0	
12	0	0	0	0	503	1021	0	0	0	0	
13	0	0	0	0	501	1021	0	0	0	0	
14	0	0	0	0	499	1021	0	0	0	0	
15	0	0	0	0	499	1021	0	0	0	0	
0	0	0	0	0	499	1021	0	0	0	0	
1	0	0	0	0	502	1021	0	0	0	0	
2	0	0	0	0	505	1021	0	0	0	0	
3	0	0	0	0	510	1021	0	0	0	0	
4	0	0	0	0	515	1021	0	0	0	0	
5	0	0	0	0	520	1021	0	0	0	0	
6	0	0	0	0	525	1021	0	0	0	0	
7	0	0	0	0	529	1021	0	0	0	0	
8	0	0	0	0	532	1021	0	0	0	0	
9	0	0	0	0	535	1021	0	0	0	0	
10	0	0	0	0	536	1022	0	0	0	0	
11	0	0	0	0	536	1022	0	0	0	0	
12	0	0	0	0	536	1021	0	0	0	0	
13	0	0	0	0	537	1021	0	0	0	0	
14	0	0	0	0	538	1021	0	0	0	0	
15	0	0	0	0	539	1022	0	0	0	0	
0	0	0	0	0	541	1021	0	0	0	0	
1	0	0	0	0	543	1021	0	0	0	0	
2	0	0	0	0	545	1021	0	0	0	0	
3	0	0	0	0	547	1021	0	0	0	0	
4	0	0	0	0	549	1021	0	0	0	0	
5	0	0	0	0	551	1021	0	0	0	0	
6	0	0	0	0	551	1021	0	0	0	0	
7	0	0	0	0	551	1021	0	0	0	0	
8	0	0	0	0	550	1021	0	0	0	0	
9	0	0	0	0	548	1021	0	0	0	0	
10	0	0	0	0	545	1021	0	0	0	0	
11	0	0	0	0	543	1021	0	0	0	0	
12	0	0	0	0	540	1021	0	0	0	0	
13	0	0	0	0	537	1021	0	0	0	0	
14	0	0	0	0	534	1022	0	0	0	0	
15	0	0	0	0	531	1022	0	0	0	0	
0	0	0	0	0	530	1021	0	0	0	0	
1	0	0	0	0	530	1021	0	0	0	0	
2	0	0	0	0	530	1021	0	0	0	0	
3	0	0	0	0	531	1021	0	0	0	0	
4	0	0	0	0	532	1021	0	0	0	0	
5	0	0	0	0	532	1021	0	0	0	0	
6	0	0	0	0	531	1021	0	0	0	0	
7	0	0	0	0	530	1021	0	0	0	0	
8	0	0	0	0	528	1022	0	0	0	0	
9	0	0	0	0	525	1021	0	0	0	0	
10	0	0	0	0	522	1021	0	0	0	0	
11	0	0	0	0	518	1021	0	0	0	0	
12	0	0	0	0	515	1021	0	0	0	0	
13	0	0	0	0	512	1021	0	0	0	0	
14	0	0	0	0	509	1022	0	0	0	0	
15	0	0	0	0	508	1021	0	0	0	0	
0	0	0	0	0	507	1021	0	0	0	0	
1	0	0	0	0	505	1021	0	0	0	0	
2	0	0	0	0	505	1021	0	0	0	0	
3	0	0	0	0	505	1022	0	0	0	0	
4	0	0	0	0	507	1021	0	0	0	0	
5	0	0	0	0	508	1021	0	0	0	0	
6	0	0	0	0	509	1021	0	0	0	0	
7	0	0	0	0	509	1022	0	0	0	0	
8	0	0	0	0	510	1022	0	0	0	0	
9	0	0	0	0	511	1021	0	0	0	0	
10	0	0	0	0	511	1021	0	0	0	0	
11	0	0	0	0	511	1021	0	0	0	0	
12	0	0	0	0	511	1021	0	0	0	0	
13	0	0	0	0	509	1021	0	0	0	0	
14	0	0	0	0	510	1021	0	0	0	0	
15	0	0	0	0	509	1021	0	0	0	0	
0	0	0	0	0	510	1021	0	0	0	0	
1	0	0	0	0	510	1021	0	0	0	0	
2	0	0	0	0	511	1021	0	0	0	0	
3	0	0	0	0	512	1021	0	0	0	0	
4	0	0	0	0	513	1021	0	0	0	0	
5	0	0	0	0	515	1021	0	0	0	0	
6	0	0	0	0	517	1021	0	0	0	0	
7	0	0	0	0	519	1021	0	0	0	0	
8	0	0	0	0	523	1021	0	0	0	0	
9	0	0	0	0	527	1021	0	0	0	0	
10	0	0	0	0	532	1021	0	0	0	0	
11	0	0	0	0	537	1022	0	0	0	0	
12	0	0	0	0	543	1022	0	0	0	0	
13	0	0	0	0	549	1021	0	0	0	0	
14	0	0	0	0	553	1021	0	0	0	0	
15	0	0	0	0	557	1021	0	0	0	0	
0	0	0	0	0	560	1021	0	0	0	0	
1	0	0	0	0	562	1022	0	0	0	0	
2	0	0	0	0	564	1021	0	0	0	0	
3	0	0	0	0	564	1021	0	0	0	0	
4	0	0	0	0	563	1021	0	0	0	0	
5	0	0	0	0	560	1022	0	0	0	0	
6	0	0	0	0	558	1021	0	0	0	0	
7	0	0	0	0	553	1021	0	0	0	0	
8	0	0	0	0	548	1021	0	0	0	0	
9	0	0	0	0	543	1021	0	0	0	0	
10	0	0	0	0	538	1021	0	0	0	0	
11	0	0	0	0	532	1022	0	0	0	0	
12	0	0	0	0	527	1021	0	0	0	0	
13	0	0	0	0	522	1021	0	0	0	0	
14	0	0	0	0	517	1021	0	0	0	0	
15	0	0	0	0	512	1022	0	0	0	0	
0	0	0	0	0	510	1021	0	0	0	0	
1	0	0	0	0	508	1021	0	0	0	0	
2	0	0	0	0	508	1021	0	0	0	0	
3	0	0	0	0	511	1021	0	0	0	0	
4	0	0	0	0	514	1021	0	0	0	0	
5	0	0	0	0	519	1021	0	0	0	0	
6	0	0	0	0	525	1021	0	0	0	0	
7	0	0	0	0	532	1021	0	0	0	0	
8	0	0	0	0	539	1021	0	0	0	0	
9	0	0	0	0	545	1021	0	0	0	0	
10	0	0	0	0	550	1022	0	0	0	0	
11	0	0	0	0	556	1021	0	0	0	0	
12	0	0	0	0	559	1021	0	0	0	0	
13	0	0	0	0	561	1021	0	0	0	0	
14	0	0	0	0	561	1022	0	0	0	0	
15	0	0	0	0	561	1021	0	0	0	0	
0	0	0	0	0	560	1021	0	0	0	0	
1	0	0	0	0	560	1021	0	0	0	0	
2	0	0	0	0	559	1021	0	0	0	0	
3	0	0	0	0	559	1021	0	0	0	0	
4	0	0	0	0	559	1021	0	0	0	0	
5	0	0	0	0	561	1021	0	0	0	0	
6	0	0	0	0	563	1021	0	0	0	0	
7	0	0	0	0	566	1021	0	0	0	0	
8	0	0	0	0	567	1022	0	0	0	0	
9	0	0	0	0	568	1022	0	0	0	0	
10	0	0	0	0	568	1021	0	0	0	0	
11	0	0	0	0	568	1021	0	0	0	0	
12	0	0	0	0	564	1021	0	0	0	0	
13	0	0	0	0	561	1022	0	0	0	0	
14	0	0	0	0	555	1021	0	0	0	0	
15	0	0	0	0	548	1021	0	0	0	0	
0	0	0	0	0	541	1021	0	0	0	0	
1	0	0	0	0	534	1021	0	0	0	0	
2	0	0	0	0	527	1021	0	0	0	0	
3	0	0	0	0	522	1022	0	0	0	0	
4	0	0	0	0	519	1021	0	0	0	0	
5	0	0	0	0	516	1021	0	0	0	0	
6	0	0	0	0	515	1021	0	0	0	0	
7	0	0	0	0	514	1021	0	0	0	0	
8	0	0	0	0	513	1022	0	0	0	0	
9	0	0	0	0	515	1021	0	0	0	0	
10	0	0	0	0	516	1021	0	0	0	0	
11	0	0	0	0	518	1021	0	0	0	0	
12	0	0	0	0	519	1021	0	0	0	0	
13	0	0	0	0	523	1021	0	0	0	0	
14	0	0	0	0	525	1021	0	0	0	0	
15	0	0	0	0	527	1021	0	0	0	0	
0	0	0	0	0	529	1021	0	0	0	0	
1	0	0	0	0	529	1021	0	0	0	0	
2	0	0	0	0	529	1021	0	0	0	0	
3	0	0	0	0	528	1021	0	0	0	0	
4	0	0	0	0	527	1021	0	0	0	0	
5	0	0	0	0	525	1021	0	0	0	0	
6	0	0	0	0	523	1022	0	0	0	0	
7	0	0	0	0	523	1021	0	0	0	0	
8	0	0	0	0	523	1021	0	0	0	0	
9	0	0	0	0	522	1021	0	0	0	0	
10	0	0	0	0	522	1021	0	0	0	0	
11	0	0	0	0	520	1021	0	0	0	0	
12	0	0	0	0	519	1021	0	0	0	0	
13	0	0	0	0	516	1021	0	0	0	0	
14	0	0	0	0	512	1021	0	0	0	0	
15	0	0	0	0	507	1021	0	0	0	0	
0	0	0	0	0	501	1021	0	0	0	0	
1	0	0	0	0	496	1021	0	0	0	0	
2	0	0	0	0	491	1021	0	0	0	0	
3	0	0	0	0	487	1021	0	0	0	0	
4	0	0	0	0	485	1021	0	0	0	0	
5	0	0	0	0	484	1021	0	0	0	0	
6	0	0	0	0	486	1021	0	0	0	0	
7	0	0	0	0	490	1021	0	0	0	0	
8	0	0	0	0	496	1021	0	0	0	0	
9	0	0	0	0	503	1021	0	0	0	0	
10	0	0	0	0	510	1021	0	0	0	0	
11	0	0	0	0	519	1021	0	0	0	0	
12	0	0	0	0	529	1021	0	0	0	0	
13	0	0	0	0	537	1021	0	0	0	0	
14	0	0	0	0	545	1021	0	0	0	0	
15	0	0	0	0	551	1021	0	0	0	0	
0	0	0	0	0	558	1021	0	0	0	0	
1	0	0	0	0	561	1021	0	0	0	0	
2	0	0	0	0	563	1021	0	0	0	0	
3	0	0	0	0	563	1021	0	0	0	0	
4	0	0	0	0	563	1022	0	0	0	0	
5	0	0	0	0	563	1021	0	0	0	0	
6	0	0	0	0	561	1021	0	0	0	0	
7	0	0	0	0	558	1021	0	0	0	0	
8	0	0	0	0	555	1021	0	0	0	0	
9	0	0	0	0	550	1021	0	0	0	0	
10	0	0	0	0	545	1022	0	0	0	0	
11	0	0	0	0	541	1021	0	0	0	0	
12	0	0	0	0	536	1021	0	0	0	0	
13	0	0	0	0	531	1021	0	0	0	0	
14	0	0	0	0	526	1021	0	0	0	0	
15	0	0	0	0	522	1022	0	0	0	0	
0	0	0	0	0	519	1021	0	0	0	0	
1	0	0	0	0	515	1021	0	0	0	0	
2	0	0	0	0	513	1021	0	0	0	0	
3	0	0	0	0	512	1021	0	0	0	0	
4	0	0	0	0	511	1022	0	0	0	0	
5	0	0	0	0	512	1021	0	0	0	0	
6	0	0	0	0	514	1021	0	0	0	0	
7	0	0	0	0	515	1021	0	0	0	0	
8	0	0	0	0	515	1022	0	0	0	0	
9	0	0	0	0	515	1022	0	0	0	0	
10	0	0	0	0	516	1021	0	0	0	0	
11	0	0	0	0	515	1021	0	0	0	0	
12	0	0	0	0	515	1021	0	0	0	0	
13	0	0	0	0	515	1021	0	0	0	0	
14	0	0	0	0	515	1021	0	0	0	0	
15	0	0	0	0	516	1021	0	0	0	0	
0	0	0	0	0	519	1021	0	0	0	0	
1	0	0	0	0	522	1021	0	0	0	0	
2	0	0	0	0	525	1022	0	0	0	0	
3	0	0	0	0	527	1022	0	0	0	0	
4	0	0	0	0	531	1021	0	0	0	0	
5	0	0	0	0	531	1021	0	0	0	0	
6	0	0	0	0	531	1021	0	0	0	0	
7	0	0	0	0	528	1021	0	0	0	0	
8	0	0	0	0	524	1021	0	0	0	0	
9	0	0	0	0	519	1021	0	0	0	0	
10	0	0	0	0	513	1021	0	0	0	0	
11	0	0	0	0	507	1021	0	0	0	0	
12	0	0	0	0	503	1022	0	0	0	0	
13	0	0	0	0	500	1021	0	0	0	0	
14	0	0	0	0	499	1021	0	0	0	0	
15	0	0	0	0	500	1021	0	0	0	0	
0	0	0	0	0	504	1021	0	0	0	0	
1	0	0	0	0	511	1021	0	0	0	0	
2	0	0	0	0	521	1021	0	0	0	0	
3	0	0	0	0	533	1021	0	0	0	0	
4	0	0	0	0	547	1021	0	0	0	0	
5	0	0	0	0	561	1021	0	0	0	0	
6	0	0	0	0	575	1022	0	0	0	0	
7	0	0	0	0	588	1021	0	0	0	0	
8	0	0	0	0	598	1021	0	0	0	0	
9	0	0	0	0	606	1021	0	0	0	0	
10	0	0	0	0	610	1021	0	0	0	0	
11	0	0	0	0	610	1022	0	0	0	0	
12	0	0	0	0	608	1021	0	0	0	0	
13	0	0	0	0	603	1021	0	0	0	0	
14	0	0	0	0	593	1021	0	0	0	0	
15	0	0	0	0	583	1021	0	0	0	0	
0	0	0	0	0	571	1022	0	0	0	0	
1	0	0	0	0	560	1021	0	0	0	0	
2	0	0	0	0	549	1021	0	0	0	0	
3	0	0	0	0	540	1021	0	0	0	0	
4	0	0	0	0	533	1021	0	0	0	0	
5	0	0	0	0	528	1021	0	0	0	0	
6	0	0	0	0	527	1021	0	0	0	0	
7	0	0	0	0	527	1021	0	0	0	0	
8	0	0	0	0	530	1021	0	0	0	0	
9	0	0	0	0	534	1021	0	0	0	0	
10	0	0	0	0	539	1022	0	0	0	0	
11	0	0	0	0	543	1021	0	0	0	0	
12	0	0	0	0	548	1021	0	0	0	0	
13	0	0	0	0	550	1021	0	0	0	0	
14	0	0	0	0	551	1021	0	0	0	0	
15	0	0	0	0	550	1022	0	0	0	0	
0	0	0	0	0	548	1021	0	0	0	0	
1	0	0	0	0	545	1021	0	0	0	0	
2	0	0	0	0	540	1021	0	0	0	0	
3	0	0	0	0	535	1021	0	0	0	0	
4	0	0	0	0	529	1022	0	0	0	0	
5	0	0	0	0	526	1021	0	0	0	0	
6	0	0	0	0	522	1021	0	0	0	0	
7	0	0	0	0	520	1021	0	0	0	0	
8	0	0	0	0	519	1021	0	0	0	0	
9	0	0	0	0	519	1021	0	0	0	0	
10	0	0	0	0	519	1021	0	0	0	0	
11	0	0	0	0	518	1021	0	0	0	0	
12	0	0	0	0	516	1021	0	0	0	0	
13	0	0	0	0	513	1021	0	0	0	0	
14	0	0	0	0	508	1022	0	0	0	0	
15	0	0	0	0	504	1021	0	0	0	0	
0	0	0	0	0	498	1021	0	0	0	0	
1	0	0	0	0	492	1021	0	0	0	0	
2	0	0	0	0	487	1021	0	0	0	0	
3	0	0	0	0	483	1021	0	0	0	0	
4	0	0	0	0	480	1021	0	0	0	0	
5	0	0	0	0	479	1021	0	0	0	0	
6	0	0	0	0	479	1021	0	0	0	0	
7	0	0	0	0	480	1021	0	0	0	0	
8	0	0	0	0	482	1021	0	0	0	0	
9	0	0	0	0	486	1021	0	0	0	0	
10	0	0	0	0	492	1021	0	0	0	0	
11	0	0	0	0	498	1021	0	0	0	0	
12	0	0	0	0	506	1021	0	0	0	0	
13	0	0	0	0	515	1021	0	0	0	0	
14	0	0	0	0	524	1022	0	0	0	0	
15	0	0	0	0	533	1021	0	0	0	0	
0	0	0	0	0	542	1021	0	0	0	0	
1	0	0	0	0	549	1021	0	0	0	0	
2	0	0	0	0	555	1021	1	0	0	0	
3	0	0	0	0	559	1022	0	0	0	0	
4	0	0	0	0	562	1021	0	0	0	0	
5	0	0	0	0	563	1021	0	0	0	0	
6	0	0	0	0	563	1021	0	0	0	0	
7	0	0	0	0	560	1022	0	0	0	0	
8	0	0	0	0	558	1022	0	0	0	0	
9	0	0	0	0	556	1021	0	0	0	0	
10	0	0	0	0	551	1021	0	0	0	0	
11	0	0	0	0	547	1021	0	0	0	0	
12	0	0	0	0	541	1021	0	0	0	0	
13	0	0	0	0	534	1022	0	0	0	0	
14	0	0	0	0	527	1021	0	0	0	0	
15	0	0	0	0	521	1021	0	0	0	0	
0	0	0	0	0	513	1021	0	0	0	0	
1	0	0	0	0	505	1021	0	0	0	0	
2	0	0	0	0	499	1022	0	0	0	0	
3	0	0	0	0	496	1021	0	0	0	0	
4	0	0	0	0	493	1021	0	0	0	0	
5	0	0	0	0	492	1021	0	0	0	0	
6	0	0	0	0	494	1022	0	0	0	0	
7	0	0	0	0	497	1022	0	0	0	0	
8	0	0	0	0	504	1021	0	0	0	0	
9	0	0	0	0	512	1021	0	0	0	0	
10	0	0	0	0	523	1021	0	0	0	0	
11	0	0	0	0	533	1021	0	0	0	0	
12	0	0	0	0	545	1021	0	0	0	0	
13	0	0	0	0	556	1021	0	0	0	0	
14	0	0	0	0	564	1021	0	0	0	0	
15	0	0	0	0	572	1021	0	0	0	0	
0	0	0	0	0	576	1022	0	0	0	0	
1	0	0	0	0	579	1022	0	0	0	0	
2	0	0	0	0	580	1021	0	0	0	0	
3	0	0	0	0	579	1021	0	0	0	0	
4	0	0	0	0	575	1021	0	0	0	0	
5	0	0	0	0	569	1022	0	0	0	0	
6	0	0	0	0	561	1021	0	0	0	0	
7	0	0	0	0	553	1021	0	0	0	0	
8	0	0	0	0	543	1021	0	0	0	0	
9	0	0	0	0	533	1021	0	0	0	0	
10	0	0	0	0	523	1022	0	0	0	0	
11	0	0	0	0	512	1022	0	0	0	0	
12	0	0	0	0	504	1021	0	0	0	0	
13	0	0	0	0	495	1021	0	0	0	0	
14	0	0	0	0	488	1021	0	0	0	0	
15	0	0	0	0	483	1022	0	0	0	0	
0	0	0	0	0	481	1021	0	0	0	0	
1	0	0	0	0	483	1021	0	0	0	0	
2	0	0	0	0	488	1021	0	0	0	0	
3	0	0	0	0	499	1021	0	0	0	0	
4	0	0	0	0	513	1021	0	0	0	0	
5	0	0	0	0	531	1021	0	0	0	0	
6	0	0	0	0	550	1021	0	0	0	0	
7	0	0	0	0	569	1021	0	0	0	0	
8	0	0	0	0	587	1021	0	0	0	0	
9	0	0	0	0	600	1021	0	0	0	0	
10	0	0	0	0	608	1022	0	0	0	0	
11	0	0	0	0	611	1021	0	0	0	0	
12	0	0	0	0	608	1021	0	0	0	0	
13	0	0	0	0	600	1021	0	0	0	0	
14	0	0	0	0	588	1022	0	0	0	0	
15	0	0	0	0	572	1021	0	0	0	0	
0	0	0	0	0	555	1021	0	0	0	0	
1	0	0	0	0	537	1021	0	0	0	0	
2	0	0	0	0	520	1021	0	0	0	0	
3	0	0	0	0	505	1021	0	0	0	0	
4	0	0	0	0	493	1021	0	0	0	0	
5	0	0	0	0	486	1021	0	0	0	0	
6	0	0	0	0	481	1021	0	0	0	0	
7	0	0	0	0	482	1021	0	0	0	0	
8	0	0	0	0	486	1021	0	0	0	0	
9	0	0	0	0	493	1022	0	0	0	0	
10	0	0	0	0	503	1021	0	0	0	0	
11	0	0	0	0	513	1021	0	0	0	0	
12	0	0	0	0	525	1021	0	0	0	0	
13	0	0	0	0	536	1022	0	0	0	0	
14	0	0	0	0	545	1022	0	0	0	0	
15	0	0	0	0	553	1021	0	0	0	0	
0	0	0	0	0	558	1021	0	0	0	0	
1	0	0	0	0	560	1021	0	0	0	0	
2	0	0	0	0	560	1022	0	0	0	0	
3	0	0	0	0	560	1022	0	0	0	0	
4	0	0	0	0	561	1021	0	0	0	0	
5	0	0	0	0	561	1021	0	0	0	0	
6	0	0	0	0	562	1021	0	0	0	0	
7	0	0	0	0	563	1021	0	0	0	0	
8	0	0	0	0	566	1021	0	0	0	0	
9	0	0	0	0	569	1021	0	0	0	0	
10	0	0	0	0	572	1021	0	0	0	0	
11	0	0	0	0	575	1021	0	0	0	0	
12	0	0	0	0	577	1022	0	0	0	0	
13	0	0	0	0	577	1022	0	0	0	0	
14	0	0	0	0	577	1021	0	0	0	0	
15	0	0	0	0	575	1021	0	0	0	0	
0	0	0	0	0	570	1021	0	0	0	0	
1	0	0	0	0	564	1021	0	0	0	0	
2	0	0	0	0	556	1021	0	0	0	0	
3	0	0	0	0	549	1021	0	0	0	0	
4	0	0	0	0	541	1021	0	0	0	0	
5	0	0	0	0	534	1021	0	0	0	0	
6	0	0	0	0	527	1022	0	0	0	0	
7	0	0	0	0	523	1021	0	0	0	0	
8	0	0	0	0	521	1021	0	0	0	0	
9	0	0	0	0	521	1021	0	0	0	0	
10	0	0	0	0	524	1021	0	0	0	0	
11	0	0	0	0	528	1022	0	0	0	0	
12	0	0	0	0	534	1022	0	0	0	0	
13	0	0	0	0	542	1021	0	0	0	0	
14	0	0	0	0	548	1021	0	0	0	0	
15	0	0	0	0	553	1021	0	0	0	0	
0	0	0	0	0	557	1022	0	0	0	0	
1	0	0	0	0	558	1021	0	0	0	0	
2	0	0	0	0	557	1021	0	0	0	0	
3	0	0	0	0	554	1021	0	0	0	0	
4	0	0	0	0	550	1021	0	0	0	0	
5	0	0	0	0	545	1021	0	0	0	0	
6	0	0	0	0	539	1022	0	0	0	0	
7	0	0	0	0	534	1021	0	0	0	0	
8	0	0	0	0	529	1021	0	0	0	0	
9	0	0	0	0	526	1021	0	0	0	0	
10	0	0	0	0	523	1022	0	0	0	0	
11	0	0	0	0	519	1022	0	0	0	0	
12	0	0	0	0	517	1021	0	0	0	0	
13	0	0	0	0	514	1021	0	0	0	0	
14	0	0	0	0	511	1021	0	0	0	0	
15	0	0	0	0	508	1022	0	0	0	0	
0	0	0	0	0	507	1022	0	0	0	0	
1	0	0	0	0	508	1021	0	0	0	0	
2	0	0	0	0	510	1021	0	0	0	0	
3	0	0	0	0	514	1021	0	0	0	0	
4	0	0	0	0	521	1021	0	0	0	0	
5	0	0	0	0	529	1021	0	0	0	0	
6	0	0	0	0	539	1021	0	0	0	0	
7	0	0	0	0	550	1021	0	0	0	0	
8	0	0	0	0	560	1021	0	0	0	0	
9	0	0	0	0	570	1021	0	0	0	0	
10	0	0	0	0	577	1022	0	0	0	0	
11	0	0	0	0	585	1021	0	0	0	0	
12	0	0	0	0	589	1021	0	0	0	0	
13	0	0	0	0	591	1021	0	0	0	0	
14	0	0	0	0	590	1022	0	0	0	0	
15	0	0	0	0	587	1021	0	0	0	0	
0	0	0	0	0	582	1021	0	0	0	0	
1	0	0	0	0	576	1021	0	0	0	0	
2	0	0	0	0	569	1021	0	0	0	0	
3	0	0	0	0	562	1021	0	0	0	0	
4	0	0	0	0	555	1022	0	0	0	0	
5	0	0	0	0	550	1021	0	0	0	0	
6	0	0	0	0	544	1021	0	0	0	0	
7	0	0	0	0	541	1021	0	0	0	0	
8	0	0	0	0	540	1021	0	0	0	0	
9	0	0	0	0	540	1022	0	0	0	0	
10	0	0	0	0	545	1021	0	0	0	0	
11	0	0	0	0	551	1021	0	0	0	0	
12	0	0	0	0	558	1021	0	0	0	0	
13	0	0	0	0	566	1022	0	0	0	0	
14	0	0	0	0	573	1022	0	0	0	0	
15	0	0	0	0	580	1021	0	0	0	0	
0	0	0	0	0	585	1021	0	0	0	0	
1	0	0	0	0	588	1021	0	0	0	0	
2	0	0	0	0	587	1022	0	0	0	0	
3	0	0	0	0	585	1022	0	0	0	0	
4	0	0	0	0	582	1021	0	0	0	0	
5	0	0	0	0	575	1022	0	0	0	0	
6	0	0	0	0	567	1021	0	0	0	0	
7	0	0	0	0	558	1021	0	0	0	0	
8	0	0	0	0	548	1021	0	0	0	0	
9	0	0	0	0	540	1021	0	0	0	0	
10	0	0	0	0	532	1021	0	0	0	0	
11	0	0	0	0	526	1021	0	0	0	0	
12	0	0	0	0	523	1022	0	0	0	0	
13	0	0	0	0	521	1022	0	0	0	0	
14	0	0	0	0	524	1021	0	0	0	0	
15	0	0	0	0	527	1021	0	0	0	0	
0	0	0	0	0	533	1021	0	0	0	0	
1	0	0	0	0	539	1022	0	0	0	0	
2	0	0	0	0	547	1021	0	0	0	0	
3	0	0	0	0	556	1021	0	0	0	0	
4	0	0	0	0	565	1021	0	0	0	0	
5	0	0	0	0	573	1021	0	0	0	0	
6	0	0	0	0	579	1021	0	0	0	0	
7	0	0	0	0	585	1022	0	0	0	0	
8	0	0	0	0	590	1021	0	0	0	0	
9	0	0	0	0	591	1021	0	0	0	0	
10	0	0	0	0	592	1021	0	0	0	0	
11	0	0	0	0	591	1022	0	0	0	0	
12	0	0	0	0	588	1022	0	0	0	0	
13	0	0	0	0	587	1021	0	0	0	0	
14	0	0	0	0	583	1021	0	0	0	0	
15	0	0	0	0	577	1021	0	0	0	0	
0	0	0	0	0	570	1022	0	0	0	0	
1	0	0	0	0	563	1021	0	0	0	0	
2	0	0	0	0	555	1021	0	0	0	0	
3	0	0	0	0	547	1021	0	0	0	0	
4	0	0	0	0	540	1021	0	0	0	0	
5	0	0	0	0	535	1021	0	0	0	0	
6	0	0	0	0	531	1022	0	0	0	0	
7	0	0	0	0	529	1021	0	0	0	0	
8	0	0	0	0	529	1021	0	0	0	0	
9	0	0	0	0	531	1021	0	0	0	0	
10	0	0	0	0	534	1022	0	0	0	0	
11	0	0	0	0	537	1022	0	0	0	0	
12	0	0	0	0	542	1021	0	0	0	0	
13	0	0	0	0	545	1021	0	0	0	0	
14	0	0	0	0	547	1021	0	0	0	0	
15	0	0	0	0	547	1021	0	0	0	0	
0	0	0	0	0	545	1021	0	0	0	0	
1	0	0	0	0	540	1021	0	0	0	0	
2	0	0	0	0	534	1021	0	0	0	0	
3	0	0	0	0	525	1021	0	0	0	0	
4	0	0	0	0	516	1022	0	0	0	0	
5	0	0	0	0	505	1021	0	0	0	0	
6	0	0	0	0	495	1021	0	0	0	0	
7	0	0	0	0	483	1021	0	0	0	0	
8	0	0	0	0	472	1021	0	0	0	0	
9	0	0	0	0	460	1021	0	0	0	0	
10	0	0	0	0	449	1021	0	0	0	0	
11	0	0	0	0	439	1021	0	0	0	0	
12	0	0	0	0	429	1021	0	0	0	0	
13	0	0	0	0	420	1021	0	0	0	0	
14	0	0	0	0	411	1022	0	0	0	0	
15	0	0	0	0	403	1021	0	0	0	0	
0	0	0	0	0	395	1021	0	0	0	0	
1	0	0	0	0	389	1021	0	0	0	0	
2	0	0	0	0	385	1021	0	0	0	0	
3	0	0	0	0	381	1021	0	0	0	0	
4	0	0	0	0	380	1021	0	0	0	0	
5	0	0	0	0	378	1021	0	0	0	0	
6	0	0	0	0	377	1021	0	0	0	0	
7	0	0	0	0	377	1021	0	0	0	0	
8	0	0	0	0	377	1021	0	0	0	0	
9	0	0	0	0	380	1021	0	0	0	0	
10	0	0	0	0	384	1021	0	0	0	0	
11	0	0	0	0	390	1021	0	0	0	0	
12	0	0	0	0	398	1021	0	0	0	0	
13	0	0	0	0	408	1021	0	0	0	0	
14	0	0	0	0	422	1021	0	0	0	0	
15	0	0	0	0	438	1021	0	0	0	0	
0	0	0	0	0	456	1021	0	0	0	0	
1	0	0	0	0	477	1021	0	0	0	0	
2	0	0	0	0	497	1022	0	0	0	0	
3	0	0	0	0	519	1021	0	0	0	0	
4	0	0	0	0	541	1021	0	0	0	0	
5	0	0	0	0	561	1021	0	0	0	0	
6	0	0	0	0	579	1021	0	0	0	0	
7	0	0	0	0	595	1022	0	0	0	0	
8	0	0	0	0	609	1021	0	0	0	0	
9	0	0	0	0	620	1021	0	0	0	0	
10	0	0	0	0	627	1021	0	0	0	0	
11	0	0	0	0	632	1021	0	0	0	0	
12	0	0	0	0	632	1022	0	0	0	0	
13	0	0	0	0	631	1021	0	0	0	0	
14	0	0	0	0	626	1021	0	0	0	0	
15	0	0	0	0	619	1021	0	0	0	0	
0	0	0	0	0	609	1021	0	0	0	0	
1	0	0	0	0	599	1021	0	0	0	0	
2	0	0	0	0	589	1021	0	0	0	0	
3	0	0	0	0	579	1021	0	0	0	0	
4	0	0	0	0	571	1021	0	0	0	0	
5	0	0	0	0	565	1021	0	0	0	0	
6	0	0	0	0	562	1021	0	0	0	0	
7	0	0	0	0	562	1021	0	0	0	0	
8	0	0	0	0	565	1021	0	0	0	0	
9	0	0	0	0	569	1021	0	0	0	0	
10	0	0	0	0	575	1021	0	0	0	0	
11	0	0	0	0	580	1021	0	0	0	0	
12	0	0	0	0	583	1021	0	0	0	0	
13	0	0	0	0	585	1021	0	0	0	0	
14	0	0	0	0	583	1021	0	0	0	0	
15	0	0	0	0	579	1021	0	0	0	0	
0	0	0	0	0	572	1021	0	0	0	0	
1	0	0	0	0	563	1021	0	0	0	0	
2	0	0	0	0	551	1021	0	0	0	0	
3	0	0	0	0	538	1021	0	0	0	0	
4	0	0	0	0	524	1022	0	0	0	0	
5	0	0	0	0	510	1021	0	0	0	0	
6	0	0	0	0	497	1021	0	0	0	0	
7	0	0	0	0	486	1021	0	0	0	0	
8	0	0	0	0	478	1021	0	0	0	0	
9	0	0	0	0	473	1021	0	0	0	0	
10	0	0	0	0	472	1022	0	0	0	0	
11	0	0	0	0	475	1022	0	0	0	0	
12	0	0	0	0	483	1021	0	0	0	0	
13	0	0	0	0	494	1021	0	0	0	0	
14	0	0	0	0	507	1021	0	0	0	0	
15	0	0	0	0	522	1021	0	0	0	0	
0	0	0	0	0	539	1021	0	0	0	0	
1	0	0	0	0	555	1021	0	0	0	0	
2	0	0	0	0	570	1021	0	0	0	0	
3	0	0	0	0	583	1021	0	0	0	0	
4	0	0	0	0	592	1022	0	0	0	0	
5	0	0	0	0	598	1021	0	0	0	0	
6	0	0	0	0	601	1021	0	0	0	0	
7	0	0	0	0	601	1021	0	0	0	0	
8	0	0	0	0	599	1021	0	0	0	0	
9	0	0	0	0	594	1022	0	0	0	0	
10	0	0	0	0	587	1022	0	0	0	0	
11	0	0	0	0	579	1021	0	0	0	0	
12	0	0	0	0	570	1021	0	0	0	0	
13	0	0	0	0	561	1021	0	0	0	0	
14	0	0	0	0	555	1022	0	0	0	0	
15	0	0	0	0	551	1022	0	0	0	0	
0	0	0	0	0	553	1021	0	0	0	0	
1	0	0	0	0	558	1021	0	0	0	0	
2	0	0	0	0	568	1021	0	0	0	0	
3	0	0	0	0	582	1022	0	0	0	0	
4	0	0	0	0	600	1022	0	0	0	0	
5	0	0	0	0	622	1021	0	0	0	0	
6	0	0	0	0	643	1021	0	0	0	0	
7	0	0	0	0	664	1021	0	0	0	0	
8	0	0	0	0	683	1022	0	0	0	0	
9	0	0	0	0	700	1021	0	0	0	0	
10	0	0	0	0	713	1021	0	0	0	0	
11	0	0	0	0	720	1021	0	0	0	0	
12	0	0	0	0	721	1021	0	0	0	0	
13	0	0	0	0	719	1022	0	0	0	0	
14	0	0	0	0	708	1022	0	0	0	0	
15	0	0	0	0	694	1021	0	0	0	0	
0	0	0	0	0	675	1021	0	0	0	0	
1	0	0	0	0	652	1022	0	0	0	0	
2	0	0	0	0	629	1022	0	0	0	0	
3	0	0	0	0	606	1021	0	0	0	0	
4	0	0	0	0	585	1021	0	0	0	0	
5	0	0	0	0	567	1021	0	0	0	0	
6	0	0	0	0	553	1021	0	0	0	0	
7	0	0	0	0	545	1022	0	0	0	0	
8	0	0	0	0	540	1021	0	0	0	0	
9	0	0	0	0	541	1021	0	0	0	0	
10	0	0	0	0	545	1021	0	0	0	0	
11	0	0	0	0	551	1022	0	0	0	0	
12	0	0	0	0	560	1021	0	0	0	0	
13	0	0	0	0	568	1022	0	0	0	0	
14	0	0	0	0	578	1021	0	0	0	0	
15	0	0	0	0	584	1021	0	0	0	0	
0	0	0	0	0	589	1021	0	0	0	0	
1	0	0	0	0	591	1021	0	0	0	0	
2	0	0	0	0	591	1022	0	0	0	0	
3	0	0	0	0	589	1021	0	0	0	0	
4	0	0	0	0	585	1021	0	0	0	0	
5	0	0	0	0	580	1021	0	0	0	0	
6	0	0	0	0	574	1022	0	0	0	0	
7	0	0	0	0	568	1022	0	0	0	0	
8	0	0	0	0	563	1021	0	0	0	0	
9	0	0	0	0	560	1021	0	0	0	0	
10	0	0	0	0	557	1021	0	0	0	0	
11	0	0	0	0	557	1022	0	0	0	0	
12	0	0	0	0	557	1022	0	0	0	0	
13	0	0	0	0	560	1021	0	0	0	0	
14	0	0	0	0	563	1021	0	0	0	0	
15	0	0	0	0	568	1021	0	0	0	0	
0	0	0	0	0	572	1021	0	0	0	0	
1	0	0	0	0	578	1022	0	0	0	0	
2	0	0	0	0	585	1021	0	0	0	0	
3	0	0	0	0	593	1021	0	0	0	0	
4	0	0	0	0	600	1021	0	0	0	0	
5	0	0	0	0	607	1021	0	0	0	0	
6	0	0	0	0	613	1021	0	0	0	0	
7	0	0	0	0	617	1021	0	0	0	0	
8	0	0	0	0	619	1021	0	0	0	0	
9	0	0	0	0	618	1021	0	0	0	0	
10	0	0	0	0	614	1022	0	0	0	0	
11	0	0	0	0	606	1022	0	0	0	0	
12	0	0	0	0	598	1021	0	0	0	0	
13	0	0	0	0	587	1021	0	0	0	0	
14	0	0	0	0	575	1021	0	0	0	0	
15	0	0	0	0	566	1022	0	0	0	0	
0	0	0	0	0	557	1021	0	0	0	0	
1	0	0	0	0	551	1021	0	0	0	0	
2	0	0	0	0	547	1021	0	0	0	0	
3	0	0	0	0	547	1021	0	0	0	0	
4	0	0	0	0	548	1021	0	0	0	0	
5	0	0	0	0	551	1021	0	0	0	0	
6	0	0	0	0	556	1021	0	0	0	0	
7	0	0	0	0	561	1021	0	0	0	0	
8	0	0	0	0	567	1021	0	0	0	0	
9	0	0	0	0	571	1021	0	0	0	0	
10	0	0	0	0	572	1022	0	0	0	0	
11	0	0	0	0	575	1021	0	0	0	0	
12	0	0	0	0	575	1021	0	0	0	0	
13	0	0	0	0	575	1021	0	0	0	0	
14	0	0	0	0	575	1022	0	0	0	0	
15	0	0	0	0	575	1021	0	0	0	0	
0	0	0	0	0	575	1021	0	0	0	0	
1	0	0	0	0	575	1021	0	0	0	0	
2	0	0	0	0	574	1021	0	0	0	0	
3	0	0	0	0	573	1021	0	0	0	0	
4	0	0	0	0	571	1021	0	0	0	0	
5	0	0	0	0	568	1021	0	0	0	0	
6	0	0	0	0	564	1021	0	0	0	0	
7	0	0	0	0	560	1021	0	0	0	0	
8	0	0	0	0	556	1021	0	0	0	0	
9	0	0	0	0	553	1022	0	0	0	0	
10	0	0	0	0	553	1021	0	0	0	0	
11	0	0	0	0	555	1021	0	0	0	0	
12	0	0	0	0	559	1021	0	0	0	0	
13	0	0	0	0	564	1022	0	0	0	0	
14	0	0	0	0	571	1022	0	0	0	0	
15	0	0	0	0	580	1021	0	0	0	0	
0	0	0	0	0	589	1021	0	0	0	0	
1	0	0	0	0	596	1021	0	0	0	0	
2	0	0	0	0	603	1022	0	0	0	0	
3	0	0	0	0	607	1022	0	0	0	0	
4	0	0	0	0	610	1021	0	0	0	0	
5	0	0	0	0	609	1021	0	0	0	0	
6	0	0	0	0	605	1021	0	0	0	0	
7	0	0	0	0	599	1021	0	0	0	0	
8	0	0	0	0	591	1021	0	0	0	0	
9	0	0	0	0	582	1021	0	0	0	0	
10	0	0	0	0	572	1021	0	0	0	0	
11	0	0	0	0	561	1021	0	0	0	0	
12	0	0	0	0	551	1022	0	0	0	0	
13	0	0	0	0	542	1021	0	0	0	0	
14	0	0	0	0	535	1021	0	0	0	0	
15	0	0	0	0	529	1021	0	0	0	0	
0	0	0	0	0	524	1021	0	0	0	0	
1	0	0	0	0	522	1021	0	0	0	0	
2	0	0	0	0	521	1021	0	0	0	0	
3	0	0	0	0	523	1021	0	0	0	0	
4	0	0	0	0	526	1021	0	0	0	0	
5	0	0	0	0	529	1021	0	0	0	0	
6	0	0	0	0	532	1021	0	0	0	0	
7	0	0	0	0	537	1022	0	0	0	0	
8	0	0	0	0	542	1021	0	0	0	0	
9	0	0	0	0	548	1021	0	0	0	0	
10	0	0	0	0	553	1021	0	0	0	0	
11	0	0	0	0	560	1022	0	0	0	0	
12	0	0	0	0	565	1022	0	0	0	0	
13	0	0	0	0	571	1021	0	0	0	0	
14	0	0	0	0	574	1021	0	0	0	0	
15	0	0	0	0	576	1021	0	0	0	0	
0	0	0	0	0	576	1022	0	0	0	0	
1	0	0	0	0	576	1022	0	0	0	0	
2	0	0	0	0	576	1021	0	0	0	0	
3	0	0	0	0	576	1021	0	0	0	0	
4	0	0	0	0	576	1022	0	0	0	0	
5	0	0	0	0	576	1022	0	0	0	0	
6	0	0	0	0	576	1021	0	0	0	0	
7	0	0	0	0	575	1021	0	0	0	0	
8	0	0	0	0	574	1021	0	0	0	0	
9	0	0	0	0	571	1021	0	0	0	0	
10	0	0	0	0	568	1021	0	0	0	0	
11	0	0	0	0	565	1022	0	0	0	0	
12	0	0	0	0	563	1021	0	0	0	0	
13	0	0	0	0	562	1021	0	0	0	0	
14	0	0	0	0	561	1021	0	0	0	0	
15	0	0	0	0	561	1022	0	0	0	0	
0	0	0	0	0	563	1021	0	0	0	0	
1	0	0	0	0	564	1021	0	0	0	0	
2	0	0	0	0	568	1021	0	0	0	0	
3	0	0	0	0	571	1021	0	0	0	0	
4	0	0	0	0	576	1021	0	0	0	0	
5	0	0	0	0	582	1021	0	0	0	0	
6	0	0	0	0	588	1021	0	0	0	0	
7	0	0	0	0	595	1021	0	0	0	0	
8	0	0	0	0	603	1021	0	0	0	0	
9	0	0	0	0	609	1022	0	0	0	0	
10	0	0	0	0	615	1022	0	0	0	0	
11	0	0	0	0	622	1021	0	0	0	0	
12	0	0	0	0	626	1021	0	0	0	0	
13	0	0	0	0	628	1021	0	0	0	0	
14	0	0	0	0	627	1022	0	0	0	0	
15	0	0	0	0	624	1022	0	0	0	0	
0	0	0	0	0	620	1021	0	0	0	0	
1	0	0	0	0	611	1021	0	0	0	0	
2	0	0	0	0	603	1021	0	0	0	0	
3	0	0	0	0	593	1022	0	0	0	0	
4	0	0	0	0	583	1022	0	0	0	0	
5	0	0	0	0	575	1021	0	0	0	0	
6	0	0	0	0	567	1021	0	0	0	0	
7	0	0	0	0	559	1021	0	0	0	0	
8	0	0	0	0	553	1021	0	0	0	0	
9	0	0	0	0	547	1022	0	0	0	0	
10	0	0	0	0	543	1021	0	0	0	0	
11	0	0	0	0	540	1021	0	0	0	0	
12	0	0	0	0	537	1021	0	0	0	0	
13	0	0	0	0	534	1022	0	0	0	0	
14	0	0	0	0	531	1021	0	0	0	0	
15	0	0	0	0	529	1021	0	0	0	0	
0	0	0	0	0	526	1021	0	0	0	0	
1	0	0	0	0	524	1021	0	0	0	0	
2	0	0	0	0	523	1021	0	0	0	0	
3	0	0	0	0	522	1021	0	0	0	0	
4	0	0	0	0	524	1021	0	0	0	0	
5	0	0	0	0	527	1021	0	0	0	0	
6	0	0	0	0	531	1021	0	0	0	0	
7	0	0	0	0	537	1022	0	0	0	0	
8	0	0	0	0	543	1022	0	0	0	0	
9	0	0	0	0	550	1021	0	0	0	0	
10	0	0	0	0	556	1021	0	0	0	0	
11	0	0	0	0	560	1021	0	0	0	0	
12	0	0	0	0	564	1022	0	0	0	0	
13	0	0	0	0	565	1022	0	0	0	0	
14	0	0	0	0	566	1021	0	0	0	0	
15	0	0	0	0	564	1021	0	0	0	0	
0	0	0	0	0	561	1021	0	0	0	0	
1	0	0	0	0	556	1021	0	0	0	0	
2	0	0	0	0	549	1022	0	0	0	0	
3	0	0	0	0	542	1021	0	0	0	0	
4	0	0	0	0	536	1021	0	0	0	0	
5	0	0	0	0	529	1021	0	0	0	0	
6	0	0	0	0	523	1022	0	0	0	0	
7	0	0	0	0	519	1022	0	0	0	0	
8	0	0	0	0	518	1021	0	0	0	0	
9	0	0	0	0	517	1021	0	0	0	0	
10	0	0	0	0	517	1021	0	0	0	0	
11	0	0	0	0	519	1022	0	0	0	0	
12	0	0	0	0	521	1022	0	0	0	0	
13	0	0	0	0	526	1021	0	0	0	0	
14	0	0	0	0	531	1021	0	0	0	0	
15	0	0	0	0	537	1021	0	0	0	0	
0	0	0	0	0	543	1022	0	0	0	0	
1	0	0	0	0	551	1021	0	0	0	0	
2	0	0	0	0	558	1021	0	0	0	0	
3	0	0	0	0	563	1021	0	0	0	0	
4	0	0	0	0	566	1021	0	0	0	0	
5	0	0	0	0	567	1022	0	0	0	0	
6	0	0	0	0	567	1022	0	0	0	0	
7	0	0	0	0	564	1021	0	0	0	0	
8	0	0	0	0	562	1021	0	0	0	0	
9	0	0	0	0	560	1021	0	0	0	0	
10	0	0	0	0	559	1021	0	0	0	0	
11	0	0	0	0	560	1021	0	0	0	0	
12	0	0	0	0	564	1021	0	0	0	0	
13	0	0	0	0	569	1021	0	0	0	0	
14	0	0	0	0	576	1021	0	0	0	0	
15	0	0	0	0	583	1022	0	0	0	0	
0	0	0	0	0	589	1022	0	0	0	0	
1	0	0	0	0	595	1021	0	0	0	0	
2	0	0	0	0	600	1021	0	0	0	0	
3	0	0	0	0	601	1021	0	0	0	0	
4	0	0	0	0	601	1022	0	0	0	0	
5	0	0	0	0	598	1022	0	0	0	0	
6	0	0	0	0	595	1021	0	0	0	0	
7	0	0	0	0	589	1021	0	0	0	0	
8	0	0	0	0	583	1021	0	0	0	0	
9	0	0	0	0	576	1022	0	0	0	0	
10	0	0	0	0	569	1022	0	0	0	0	
11	0	0	0	0	563	1021	0	0	0	0	
12	0	0	0	0	557	1021	0	0	0	0	
13	0	0	0	0	551	1021	0	0	0	0	
14	0	0	0	0	545	1022	0	0	0	0	
15	0	0	0	0	541	1022	0	0	0	0	
0	0	0	0	0	538	1021	0	0	0	0	
1	0	0	0	0	535	1022	0	0	0	0	
2	0	0	0	0	535	1021	0	0	0	0	
3	0	0	0	0	537	1022	0	0	0	0	
4	0	0	0	0	540	1022	0	0	0	0	
5	0	0	0	0	545	1021	0	0	0	0	
6	0	0	0	0	552	1021	0	0	0	0	
7	0	0	0	0	558	1021	0	0	0	0	
8	0	0	0	0	564	1022	0	0	0	0	
9	0	0	0	0	569	1021	0	0	0	0	
10	0	0	0	0	572	1021	0	0	0	0	
11	0	0	0	0	574	1021	0	0	0	0	
12	0	0	0	0	573	1021	0	0	0	0	
13	0	0	0	0	571	1021	0	0	0	0	
14	0	0	0	0	567	1021	0	0	0	0	
15	0	0	0	0	563	1021	0	0	0	0	
0	0	0	0	0	560	1021	0	0	0	0	
1	0	0	0	0	557	1021	0	0	0	0	
2	0	0	0	0	554	1021	0	0	0	0	
3	0	0	0	0	550	1022	0	0	0	0	
4	0	0	0	0	546	1021	0	0	0	0	
5	0	0	0	0	542	1021	0	0	0	0	
6	0	0	0	0	536	1021	0	0	0	0	
7	0	0	0	0	531	1022	0	0	0	0	
8	0	0	0	0	525	1021	0	0	0	0	
9	0	0	0	0	520	1021	0	0	0	0	
10	0	0	0	0	515	1021	0	0	0	0	
11	0	0	0	0	511	1021	0	0	0	0	
12	0	0	0	0	508	1021	0	0	0	0	
13	0	0	0	0	505	1022	0	0	0	0	
14	0	0	0	0	505	1021	0	0	0	0	
15	0	0	0	0	506	1021	0	0	0	0	
0	0	0	0	0	508	1021	0	0	0	0	
1	0	0	0	0	512	1021	0	0	0	0	
2	0	0	0	0	518	1021	0	0	0	0	
3	0	0	0	0	524	1021	0	0	0	0	
4	0	0	0	0	532	1021	0	0	0	0	
5	0	0	0	0	540	1021	0	0	0	0	
6	0	0	0	0	548	1021	0	0	0	0	
7	0	0	0	0	556	1021	0	0	0	0	
8	0	0	0	0	562	1021	0	0	0	0	
9	0	0	0	0	568	1021	0	0	0	0	
10	0	0	0	0	573	1021	0	0	0	0	
11	0	0	0	0	576	1022	0	0	0	0	
12	0	0	0	0	579	1021	0	0	0	0	
13	0	0	0	0	580	1021	0	0	0	0	
14	0	0	0	0	580	1021	0	0	0	0	
15	0	0	0	0	578	1021	0	0	0	0	
0	0	0	0	0	575	1021	0	0	0	0	
1	0	0	0	0	571	1021	0	0	0	0	
2	0	0	0	0	567	1021	0	0	0	0	
3	0	0	0	0	561	1021	0	0	0	0	
4	0	0	0	0	555	1021	0	0	0	0	
5	0	0	0	0	547	1021	0	0	0	0	
6	0	0	0	0	541	1021	0	0	0	0	
7	0	0	0	0	534	1021	0	0	0	0	
8	0	0	0	0	527	1021	0	0	0	0	
9	0	0	0	0	521	1021	0	0	0	0	
10	0	0	0	0	517	1021	0	0	0	0	
11	0	0	0	0	516	1021	0	0	0	0	
12	0	0	0	0	516	1021	0	0	0	0	
13	0	0	0	0	519	1021	0	0	0	0	
14	0	0	0	0	524	1021	0	0	0	0	
15	0	0	0	0	530	1022	0	0	0	0	
0	0	0	0	0	539	1021	0	0	0	0	
1	0	0	0	0	548	1021	0	0	0	0	
2	0	0	0	0	557	1021	0	0	0	0	
3	0	0	0	0	565	1021	0	0	0	0	
4	0	0	0	0	571	1022	0	0	0	0	
5	0	0	0	0	575	1021	0	0	0	0	
6	0	0	0	0	577	1021	0	0	0	0	
7	0	0	0	0	575	1021	0	0	0	0	
8	0	0	0	0	572	1021	0	0	0	0	
9	0	0	0	0	567	1021	0	0	0	0	
10	0	0	0	0	560	1021	0	0	0	0	
11	0	0	0	0	553	1021	0	0	0	0	
12	0	0	0	0	543	1021	0	0	0	0	
13	0	0	0	0	534	1021	0	0	0	0	
14	0	0	0	0	524	1022	0	0	0	0	
15	0	0	0	0	516	1021	0	0	0	0	
0	0	0	0	0	510	1021	0	0	0	0	
1	0	0	0	0	505	1021	0	0	0	0	
2	0	0	0	0	502	1021	0	0	0	0	
3	0	0	0	0	499	1022	0	0	0	0	
4	0	0	0	0	498	1021	0	0	0	0	
5	0	0	0	0	497	1021	0	0	0	0	
6	0	0	0	0	499	1021	0	0	0	0	
7	0	0	0	0	501	1021	0	0	0	0	
8	0	0	0	0	505	1022	0	0	0	0	
9	0	0	0	0	510	1021	0	0	0	0	
10	0	0	0	0	516	1021	0	0	0	0	
11	0	0	0	0	523	1021	0	0	0	0	
12	0	0	0	0	531	1021	0	0	0	0	
13	0	0	0	0	539	1021	0	0	0	0	
14	0	0	0	0	547	1021	0	0	0	0	
15	0	0	0	0	556	1021	0	0	0	0	
0	0	0	0	0	564	1021	0	0	0	0	
1	0	0	0	0	571	1021	0	0	0	0	
2	0	0	0	0	576	1022	0	0	0	0	
3	0	0	0	0	582	1021	0	0	0	0	
4	0	0	0	0	586	1021	0	0	0	0	
5	0	0	0	0	589	1021	0	0	0	0	
6	0	0	0	0	591	1021	0	0	0	0	
7	0	0	0	0	592	1022	0	0	0	0	
8	0	0	0	0	594	1021	0	0	0	0	
9	0	0	0	0	595	1021	0	0	0	0	
10	0	0	0	0	595	1021	0	0	0	0	
11	0	0	0	0	595	1021	0	0	0	0	
12	0	0	0	0	594	1022	0	0	0	0	
13	0	0	0	0	594	1021	0	0	0	0	
14	0	0	0	0	594	1021	0	0	0	0	
15	0	0	0	0	592	1021	0	0	0	0	
0	0	0	0	0	589	1021	0	0	0	0	
1	0	0	0	0	583	1022	0	0	0	0	
2	0	0	0	0	576	1021	0	0	0	0	
3	0	0	0	0	568	1021	0	0	0	0	
4	0	0	0	0	558	1021	0	0	0	0	
5	0	0	0	0	549	1021	0	0	0	0	
6	0	0	0	0	540	1021	0	0	0	0	
7	0	0	0	0	532	1021	0	0	0	0	
8	0	0	0	0	527	1021	0	0	0	0	
9	0	0	0	0	524	1021	0	0	0	0	
10	0	0	0	0	524	1021	0	0	0	0	
11	0	0	0	0	526	1021	0	0	0	0	
12	0	0	0	0	531	1021	0	0	0	0	
13	0	0	0	0	539	1021	0	0	0	0	
14	0	0	0	0	547	1021	0	0	0	0	
15	0	0	0	0	556	1021	0	0	0	0	
0	0	0	0	0	566	1022	0	0	0	0	
1	0	0	0	0	575	1021	0	0	0	0	
2	0	0	0	0	582	1021	0	0	0	0	
3	0	0	0	0	588	1021	0	0	0	0	
4	0	0	0	0	593	1021	0	0	0	0	
5	0	0	0	0	595	1021	0	0	0	0	
6	0	0	0	0	595	1022	0	0	0	0	
7	0	0	0	0	593	1021	0	0	0	0	
8	0	0	0	0	590	1021	0	0	0	0	
9	0	0	0	0	583	1021	0	0	0	0	
10	0	0	0	0	575	1021	0	0	0	0	
11	0	0	0	0	566	1022	0	0	0	0	
12	0	0	0	0	557	1021	0	0	0	0	
13	0	0	0	0	549	1021	0	0	0	0	
14	0	0	0	0	542	1021	0	0	0	0	
15	0	0	0	0	536	1021	0	0	0	0	
0	0	0	0	0	534	1021	0	0	0	0	
1	0	0	0	0	532	1021	0	0	0	0	
2	0	0	0	0	534	1021	0	0	0	0	
3	0	0	0	0	537	1021	0	0	0	0	
4	0	0	0	0	542	1022	0	0	0	0	
5	0	0	0	0	548	1022	0	0	0	0	
6	0	0	0	0	556	1021	0	0	0	0	
7	0	0	0	0	563	1021	0	0	0	0	
8	0	0	0	0	569	1021	0	0	0	0	
9	0	0	0	0	574	1021	0	0	0	0	
10	0	0	0	0	578	1021	0	0	0	0	
11	0	0	0	0	580	1021	0	0	0	0	
12	0	0	0	0	581	1021	0	0	0	0	
13	0	0	0	0	580	1021	0	0	0	0	
14	0	0	0	0	577	1022	0	0	0	0	
15	0	0	0	0	573	1022	0	0	0	0	
0	0	0	0	0	569	1021	0	0	0	0	
1	0	0	0	0	564	1021	0	0	0	0	
2	0	0	0	0	559	1021	0	0	0	0	
3	0	0	0	0	553	1021	0	0	0	0	
4	0	0	0	0	549	1021	0	0	0	0	
5	0	0	0	0	545	1021	0	0	0	0	
6	0	0	0	0	542	1021	0	0	0	0	
7	0	0	0	0	539	1021	0	0	0	0	
8	0	0	0	0	537	1021	0	0	0	0	
9	0	0	0	0	536	1021	0	0	0	0	
10	0	0	0	0	535	1021	0	0	0	0	
11	0	0	0	0	534	1021	0	0	0	0	
12	0	0	0	0	533	1022	0	0	0	0	
13	0	0	0	0	534	1021	0	0	0	0	
14	0	0	0	0	534	1022	0	0	0	0	
15	0	0	0	0	536	1021	0	0	0	0	
0	0	0	0	0	537	1021	0	0	0	0	
1	0	0	0	0	539	1021	0	0	0	0	
2	0	0	0	0	541	1022	0	0	0	0	
3	0	0	0	0	543	1022	0	0	0	0	
4	0	0	0	0	545	1021	0	0	0	0	
5	0	0	0	0	548	1021	0	0	0	0	
6	0	0	0	0	550	1021	0	0	0	0	
7	0	0	0	0	551	1022	0	0	0	0	
8	0	0	0	0	552	1022	0	0	0	0	
9	0	0	0	0	553	1021	0	0	0	0	
10	0	0	0	0	552	1021	0	0	0	0	
11	0	0	0	0	551	1021	0	0	0	0	
12	0	0	0	0	549	1022	0	0	0	0	
13	0	0	0	0	546	1022	0	0	0	0	
14	0	0	0	0	546	1021	0	0	0	0	
15	0	0	0	0	547	1021	0	0	0	0	
0	0	0	0	0	551	1021	0	0	0	0	
1	0	0	0	0	555	1021	0	0	0	0	
2	0	0	0	0	561	1021	0	0	0	0	
3	0	0	0	0	568	1021	0	0	0	0	
4	0	0	0	0	575	1021	0	0	0	0	
5	0	0	0	0	582	1021	0	0	0	0	
6	0	0	0	0	587	1022	0	0	0	0	
7	0	0	0	0	590	1021	0	0	0	0	
8	0	0	0	0	591	1021	0	0	0	0	
9	0	0	0	0	590	1021	0	0	0	0	
10	0	0	0	0	586	1021	0	0	0	0	
11	0	0	0	0	580	1021	0	0	0	0	
12	0	0	0	0	571	1022	0	0	0	0	
13	0	0	0	0	561	1021	0	0	0	0	
14	0	0	0	0	551	1021	0	0	0	0	
15	0	0	0	0	540	1021	0	0	0	0	
0	0	0	0	0	529	1021	0	0	0	0	
1	0	0	0	0	519	1022	0	0	0	0	
2	0	0	0	0	512	1021	0	0	0	0	
3	0	0	0	0	506	1021	0	0	0	0	
4	0	0	0	0	503	1021	0	0	0	0	
5	0	0	0	0	500	1022	0	0	0	0	
6	0	0	0	0	500	1022	0	0	0	0	
7	0	0	0	0	502	1021	0	0	0	0	
8	0	0	0	0	507	1021	0	0	0	0	
9	0	0	0	0	514	1021	0	0	0	0	
10	0	0	0	0	523	1022	0	0	0	0	
11	0	0	0	0	535	1022	0	0	0	0	
12	0	0	0	0	548	1021	0	0	0	0	
13	0	0	0	0	562	1021	0	0	0	0	
14	0	0	0	0	577	1021	0	0	0	0	
15	0	0	0	0	590	1021	0	0	0	0	
0	0	0	0	0	602	1021	0	0	0	0	
1	0	0	0	0	612	1021	0	0	0	0	
2	0	0	0	0	619	1021	0	0	0	0	
3	0	0	0	0	622	1021	1	0	0	0	
4	0	0	0	0	621	1021	0	0	0	0	
5	0	0	0	0	617	1021	0	0	0	0	
6	0	0	0	0	611	1021	0	0	0	0	
7	0	0	0	0	601	1022	0	0	0	0	
8	0	0	0	0	590	1021	0	0	0	0	
9	0	0	0	0	578	1021	0	0	0	0	
10	0	0	0	0	567	1021	0	0	0	0	
11	0	0	0	0	556	1021	0	0	0	0	
12	0	0	0	0	547	1021	0	0	0	0	
13	0	0	0	0	541	1021	0	0	0	0	
14	0	0	0	0	537	1021	0	0	0	0	
15	0	0	0	0	534	1022	0	0	0	0	
0	0	0	0	0	535	1021	0	0	0	0	
1	0	0	0	0	536	1021	0	0	0	0	
2	0	0	0	0	540	1021	0	0	0	0	
3	0	0	0	0	544	1021	0	0	0	0	
4	0	0	0	0	548	1022	0	0	0	0	
5	0	0	0	0	554	1021	0	0	0	0	
6	0	0	0	0	559	1021	0	0	0	0	
7	0	0	0	0	562	1021	0	0	0	0	
8	0	0	0	0	565	1021	0	0	0	0	
9	0	0	0	0	566	1022	0	0	0	0	
10	0	0	0	0	567	1021	0	0	0	0	
11	0	0	0	0	565	1021	0	0	0	0	
12	0	0	0	0	561	1021	0	0	0	0	
13	0	0	0	0	556	1022	0	0	0	0	
14	0	0	0	0	551	1022	0	0	0	0	
15	0	0	0	0	546	1021	0	0	0	0	
0	0	0	0	0	540	1021	0	0	0	0	
1	0	0	0	0	536	1021	0	0	0	0	
2	0	0	0	0	531	1022	0	0	0	0	
3	0	0	0	0	527	1022	0	0	0	0	
4	0	0	0	0	525	1021	0	0	0	0	
5	0	0	0	0	524	1021	0	0	0	0	
6	0	0	0	0	521	1021	0	0	0	0	
7	0	0	0	0	519	1021	0	0	0	0	
8	0	0	0	0	516	1021	0	0	0	0	
9	0	0	0	0	512	1021	0	0	0	0	
10	0	0	0	0	506	1021	0	0	0	0	
11	0	0	0	0	499	1021	0	0	0	0	
12	0	0	0	0	491	1022	0	0	0	0	
13	0	0	0	0	480	1022	0	0	0	0	
14	0	0	0	0	470	1021	0	0	0	0	
15	0	0	0	0	457	1021	0	0	0	0	
0	0	0	0	0	443	1021	0	0	0	0	
1	0	0	0	0	429	1021	0	0	0	0	
2	0	0	0	0	414	1021	0	0	0	0	
3	0	0	0	0	399	1021	0	0	0	0	
4	0	0	0	0	384	1021	0	0	0	0	
5	0	0	0	0	369	1021	0	0	0	0	
6	0	0	0	0	355	1021	0	0	0	0	
7	0	0	0	0	342	1021	0	0	0	0	
8	0	0	0	0	331	1021	0	0	0	0	
9	0	0	0	0	322	1021	0	0	0	0	
10	0	0	0	0	315	1021	0	0	0	0	
11	0	0	0	0	311	1021	0	0	0	0	
12	0	0	0	0	311	1022	0	0	0	0	
13	0	0	0	0	315	1021	0	0	0	0	
14	0	0	0	0	323	1021	0	0	0	0	
15	0	0	0	0	335	1021	0	0	0	0	
0	0	0	0	0	352	1021	0	0	0	0	
1	0	0	0	0	373	1021	0	0	0	0	
2	0	0	0	0	398	1021	0	0	0	0	
3	0	0	0	0	427	1021	0	0	0	0	
4	0	0	0	0	456	1021	0	0	0	0	
5	0	0	0	0	487	1022	0	0	0	0	
6	0	0	0	0	517	1022	0	0	0	0	
7	0	0	0	0	546	1021	0	0	0	0	
8	0	0	0	0	573	1021	0	0	0	0	
9	0	0	0	0	596	1021	0	0	0	0	
10	0	0	0	0	615	1021	0	0	0	0	
11	0	0	0	0	630	1022	0	0	0	0	
12	0	0	0	0	640	1021	0	0	0	0	
13	0	0	0	0	646	1021	0	0	0	0	
14	0	0	0	0	647	1021	0	0	0	0	
15	0	0	0	0	644	1022	0	0	0	0	
0	0	0	0	0	639	1021	0	0	0	0	
1	0	0	0	0	631	1021	0	0	0	0	
2	0	0	0	0	620	1021	0	0	0	0	
3	0	0	0	0	608	1021	0	0	0	0	
4	0	0	0	0	597	1021	0	0	0	0	
5	0	0	0	0	586	1021	0	0	0	0	
6	0	0	0	0	575	1021	0	0	0	0	
7	0	0	0	0	565	1021	0	0	0	0	
8	0	0	0	0	557	1021	0	0	0	0	
9	0	0	0	0	550	1021	0	0	0	0	
10	0	0	0	0	544	1022	0	0	0	0	
11	0	0	0	0	541	1021	0	0	0	0	
12	0	0	0	0	539	1021	0	0	0	0	
13	0	0	0	0	538	1021	0	0	0	0	
14	0	0	0	0	538	1022	0	0	0	0	
15	0	0	0	0	540	1021	0	0	0	0	
0	0	0	0	0	543	1021	0	0	0	0	
1	0	0	0	0	547	1021	0	0	0	0	
2	0	0	0	0	553	1021	0	0	0	0	
3	0	0	0	0	558	1021	0	0	0	0	
4	0	0	0	0	564	1021	0	0	0	0	
5	0	0	0	0	570	1021	0	0	0	0	
6	0	0	0	0	575	1021	0	0	0	0	
7	0	0	0	0	580	1021	0	0	0	0	
8	0	0	0	0	585	1021	0	0	0	0	
9	0	0	0	0	588	1022	0	0	0	0	
10	0	0	0	0	591	1021	0	0	0	0	
11	0	0	0	0	593	1021	0	0	0	0	
12	0	0	0	0	596	1021	0	0	0	0	
13	0	0	0	0	598	1022	0	0	0	0	
14	0	0	0	0	600	1022	0	0	0	0	
15	0	0	0	0	603	1021	0	0	0	0	
0	0	0	0	0	605	1021	0	0	0	0	
1	0	0	0	0	606	1021	0	0	0	0	
2	0	0	0	0	604	1022	0	0	0	0	
3	0	0	0	0	601	1022	0	0	0	0	
4	0	0	0	0	597	1021	0	0	0	0	
5	0	0	0	0	591	1021	0	0	0	0	
6	0	0	0	0	585	1021	0	0	0	0	
7	0	0	0	0	580	1021	0	0	0	0	
8	0	0	0	0	576	1021	0	0	0	0	
9	0	0	0	0	574	1021	0	0	0	0	
10	0	0	0	0	575	1021	0	0	0	0	
11	0	0	0	0	579	1021	0	0	0	0	
12	0	0	0	0	584	1022	0	0	0	0	
13	0	0	0	0	591	1022	0	0	0	0	
14	0	0	0	0	602	1021	0	0	0	0	
15	0	0	0	0	613	1021	0	0	0	0	
0	0	0	0	0	623	1021	0	0	0	0	
1	0	0	0	0	632	1021	0	0	0	0	
2	0	0	0	0	639	1021	0	0	0	0	
3	0	0	0	0	643	1021	0	0	0	0	
4	0	0	0	0	645	1021	0	0	0	0	
5	0	0	0	0	644	1021	0	0	0	0	
6	0	0	0	0	640	1022	0	0	0	0	
7	0	0	0	0	635	1022	0	0	0	0	
8	0	0	0	0	628	1021	0	0	0	0	
9	0	0	0	0	619	1021	0	0	0	0	
10	0	0	0	0	608	1021	0	0	0	0	
11	0	0	0	0	596	1022	0	0	0	0	
12	0	0	0	0	584	1022	0	0	0	0	
13	0	0	0	0	573	1021	0	0	0	0	
14	0	0	0	0	562	1021	0	0	0	0	
15	0	0	0	0	553	1021	0	0	0	0	
0	0	0	0	0	545	1022	0	0	0	0	
1	0	0	0	0	540	1021	0	0	0	0	
2	0	0	0	0	538	1021	0	0	0	0	
3	0	0	0	0	539	1021	0	0	0	0	
4	0	0	0	0	543	1021	0	0	0	0	
5	0	0	0	0	550	1021	0	0	0	0	
6	0	0	0	0	559	1022	0	0	0	0	
7	0	0	0	0	572	1021	0	0	0	0	
8	0	0	0	0	584	1021	0	0	0	0	
9	0	0	0	0	595	1021	0	0	0	0	
10	0	0	0	0	605	1021	0	0	0	0	
11	0	0	0	0	610	1022	0	0	0	0	
12	0	0	0	0	613	1021	0	0	0	0	
13	0	0	0	0	611	1021	0	0	0	0	
14	0	0	0	0	606	1021	0	0	0	0	
15	0	0	0	0	598	1021	0	0	0	0	
0	0	0	0	0	590	1022	0	0	0	0	
1	0	0	0	0	580	1021	0	0	0	0	
2	0	0	0	0	572	1021	0	0	0	0	
3	0	0	0	0	564	1021	0	0	0	0	
4	0	0	0	0	558	1022	0	0	0	0	
5	0	0	0	0	555	1021	0	0	0	0	
6	0	0	0	0	552	1021	0	0	0	0	
7	0	0	0	0	550	1021	0	0	0	0	
8	0	0	0	0	549	1021	0	0	0	0	
9	0	0	0	0	547	1021	0	0	0	0	
10	0	0	0	0	545	1022	0	0	0	0	
11	0	0	0	0	542	1021	0	0	0	0	
12	0	0	0	0	538	1021	0	0	0	0	
13	0	0	0	0	534	1021	0	0	0	0	
14	0	0	0	0	529	1022	0	0	0	0	
15	0	0	0	0	526	1021	0	0	0	0	
0	0	0	0	0	524	1021	0	0	0	0	
1	0	0	0	0	523	1021	0	0	0	0	
2	0	0	0	0	524	1021	0	0	0	0	
3	0	0	0	0	527	1021	0	0	0	0	
4	0	0	0	0	531	1022	0	0	0	0	
5	0	0	0	0	539	1021	0	0	0	0	
6	0	0	0	0	547	1021	0	0	0	0	
7	0	0	0	0	556	1021	0	0	0	0	
8	0	0	0	0	564	1021	0	0	0	0	
9	0	0	0	0	571	1021	0	0	0	0	
10	0	0	0	0	575	1021	0	0	0	0	
11	0	0	0	0	575	1021	0	0	0	0	
12	0	0	0	0	572	1021	0	0	0	0	
13	0	0	0	0	566	1022	0	0	0	0	
14	0	0	0	0	558	1021	0	0	0	0	
15	0	0	0	0	550	1021	0	0	0	0	
0	0	0	0	0	543	1021	0	0	0	0	
1	0	0	0	0	538	1021	0	0	0	0	
2	0	0	0	0	537	1022	0	0	0	0	
3	0	0	0	0	541	1021	0	0	0	0	
4	0	0	0	0	548	1021	0	0	0	0	
5	0	0	0	0	559	1021	0	0	0	0	
6	0	0	0	0	571	1021	0	0	0	0	
7	0	0	0	0	583	1021	0	0	0	0	
8	0	0	0	0	594	1021	0	0	0	0	
9	0	0	0	0	604	1021	0	0	0	0	
10	0	0	0	0	610	1021	0	0	0	0	
11	0	0	0	0	614	1021	0	0	0	0	
12	0	0	0	0	614	1022	0	0	0	0	
13	0	0	0	0	612	1021	0	0	0	0	
14	0	0	0	0	609	1021	0	0	0	0	
15	0	0	0	0	605	1021	0	0	0	0	
0	0	0	0	0	600	1021	0	0	0	0	
1	0	0	0	0	594	1022	0	0	0	0	
2	0	0	0	0	589	1021	0	0	0	0	
3	0	0	0	0	583	1021	0	0	0	0	
4	0	0	0	0	578	1021	0	0	0	0	
5	0	0	0	0	572	1021	0	0	0	0	
6	0	0	0	0	567	1022	0	0	0	0	
7	0	0	0	0	563	1021	0	0	0	0	
8	0	0	0	0	560	1021	0	0	0	0	
9	0	0	0	0	560	1021	0	0	0	0	
10	0	0	0	0	562	1021	0	0	0	0	
11	0	0	0	0	568	1022	0	0	0	0	
12	0	0	0	0	578	1021	0	0	0	0	
13	0	0	0	0	592	1021	0	0	0	0	
14	0	0	0	0	608	1021	0	0	0	0	
15	0	0	0	0	625	1021	0	0	0	0	
0	0	0	0	0	641	1022	0	0	0	0	
1	0	0	0	0	658	1021	0	0	0	0	
2	0	0	0	0	672	1021	0	0	0	0	
3	0	0	0	0	684	1021	0	0	0	0	
4	0	0	0	0	691	1021	0	0	0	0	
5	0	0	0	0	695	1022	0	0	0	0	
6	0	0	0	0	695	1021	0	0	0	0	
7	0	0	0	0	689	1021	0	0	0	0	
8	0	0	0	0	679	1021	0	0	0	0	
9	0	0	0	0	665	1021	0	0	0	0	
10	0	0	0	0	647	1021	0	0	0	0	
11	0	0	0	0	628	1022	0	0	0	0	
12	0	0	0	0	608	1021	0	0	0	0	
13	0	0	0	0	591	1021	0	0	0	0	
14	0	0	0	0	574	1021	0	0	0	0	
15	0	0	0	0	560	1022	0	0	0	0	
0	0	0	0	0	550	1022	0	0	0	0	
1	0	0	0	0	543	1021	0	0	0	0	
2	0	0	0	0	539	1021	0	0	0	0	
3	0	0	0	0	537	1021	0	0	0	0	
4	0	0	0	0	536	1021	1	0	0	0	
5	0	0	0	0	536	1021	0	0	0	0	
6	0	0	0	0	536	1021	0	0	0	0	
7	0	0	0	0	537	1021	0	0	0	0	
8	0	0	0	0	536	1021	0	0	0	0	
9	0	0	0	0	535	1021	0	0	0	0	
10	0	0	0	0	531	1022	0	0	0	0	
11	0	0	0	0	528	1021	0	0	0	0	
12	0	0	0	0	523	1021	0	0	0	0	
13	0	0	0	0	518	1021	0	0	0	0	
14	0	0	0	0	514	1022	0	0	0	0	
15	0	0	0	0	511	1022	0	0	0	0	
0	0	0	0	0	513	1021	0	0	0	0	
1	0	0	0	0	519	1021	0	0	0	0	
2	0	0	0	0	526	1021	0	0	0	0	
3	0	0	0	0	537	1021	0	0	0	0	
4	0	0	0	0	548	1021	0	0	0	0	
5	0	0	0	0	560	1021	0	0	0	0	
6	0	0	0	0	569	1021	0	0	0	0	
7	0	0	0	0	577	1021	0	0	0	0	
8	0	0	0	0	582	1021	0	0	0	0	
9	0	0	0	0	583	1021	0	0	0	0	
10	0	0	0	0	582	1021	0	0	0	0	
11	0	0	0	0	576	1021	0	0	0	0	
12	0	0	0	0	569	1022	0	0	0	0	
13	0	0	0	0	561	1021	0	0	0	0	
14	0	0	0	0	551	1022	0	0	0	0	
15	0	0	0	0	541	1021	0	0	0	0	
0	0	0	0	0	532	1021	0	0	0	0	
1	0	0	0	0	525	1021	0	0	0	0	
2	0	0	0	0	522	1021	0	0	0	0	
3	0	0	0	0	522	1022	0	0	0	0	
4	0	0	0	0	527	1021	0	0	0	0	
5	0	0	0	0	536	1021	0	0	0	0	
6	0	0	0	0	548	1021	0	0	0	0	
7	0	0	0	0	563	1022	0	0	0	0	
8	0	0	0	0	579	1022	0	0	0	0	
9	0	0	0	0	596	1021	0	0	0	0	
10	0	0	0	0	612	1021	0	0	0	0	
11	0	0	0	0	626	1021	0	0	0	0	
12	0	0	0	0	638	1022	0	0	0	0	
13	0	0	0	0	647	1022	0	0	0	0	
14	0	0	0	0	652	1021	0	0	0	0	
15	0	0	0	0	654	1021	0	0	0	0	
0	0	0	0	0	651	1021	0	0	0	0	
1	0	0	0	0	643	1022	0	0	0	0	
2	0	0	0	0	632	1022	0	0	0	0	
3	0	0	0	0	618	1021	0	0	0	0	
4	0	0	0	0	601	1022	0	0	0	0	
5	0	0	0	0	584	1021	0	0	0	0	
6	0	0	0	0	568	1022	0	0	0	0	
7	0	0	0	0	553	1021	0	0	0	0	
8	0	0	0	0	541	1021	0	0	0	0	
9	0	0	0	0	532	1021	0	0	0	0	
10	0	0	0	0	529	1021	0	0	0	0	
11	0	0	0	0	529	1021	0	0	0	0	
12	0	0	0	0	534	1022	0	0	0	0	
13	0	0	0	0	543	1021	0	0	0	0	
14	0	0	0	0	556	1021	0	0	0	0	
15	0	0	0	0	571	1021	0	0	0	0	
0	0	0	0	0	585	1021	0	0	0	0	
1	0	0	0	0	600	1021	0	0	0	0	
2	0	0	0	0	612	1021	0	0	0	0	
3	0	0	0	0	622	1021	0	0	0	0	
4	0	0	0	0	629	1021	0	0	0	0	
5	0	0	0	0	632	1022	0	0	0	0	
6	0	0	0	0	629	1022	0	0	0	0	
7	0	0	0	0	624	1021	0	0	0	0	
8	0	0	0	0	615	1021	0	0	0	0	
9	0	0	0	0	601	1021	0	0	0	0	
10	0	0	0	0	585	1021	0	0	0	0	
11	0	0	0	0	567	1022	0	0	0	0	
12	0	0	0	0	549	1021	0	0	0	0	
13	0	0	0	0	530	1021	0	0	0	0	
14	0	0	0	0	513	1021	0	0	0	0	
15	0	0	0	0	497	1022	0	0	0	0	
0	0	0	0	0	483	1022	0	0	0	0	
1	0	0	0	0	473	1021	0	0	0	0	
2	0	0	0	0	467	1021	0	0	0	0	
3	0	0	0	0	465	1021	0	0	0	0	
4	0	0	0	0	469	1021	0	0	0	0	
5	0	0	0	0	477	1021	0	0	0	0	
6	0	0	0	0	491	1021	0	0	0	0	
7	0	0	0	0	509	1021	0	0	0	0	
8	0	0	0	0	531	1021	0	0	0	0	
9	0	0	0	0	553	1021	0	0	0	0	
10	0	0	0	0	576	1022	0	0	0	0	
11	0	0	0	0	600	1021	0	0	0	0	
12	0	0	0	0	621	1021	0	0	0	0	
13	0	0	0	0	639	1021	0	0	0	0	
14	0	0	0	0	655	1022	0	0	0	0	
15	0	0	0	0	668	1021	0	0	0	0	
0	0	0	0	0	677	1021	0	0	0	0	
1	0	0	0	0	681	1021	0	0	0	0	
2	0	0	0	0	682	1021	0	0	0	0	
3	0	0	0	0	679	1021	0	0	0	0	
4	0	0	0	0	670	1022	0	0	0	0	
5	0	0	0	0	660	1021	0	0	0	0	
6	0	0	0	0	647	1021	0	0	0	0	
7	0	0	0	0	630	1021	0	0	0	0	
8	0	0	0	0	613	1021	0	0	0	0	
9	0	0	0	0	596	1022	0	0	0	0	
10	0	0	0	0	580	1021	0	0	0	0	
11	0	0	0	0	567	1021	0	0	0	0	
12	0	0	0	0	555	1021	0	0	0	0	
13	0	0	0	0	546	1022	0	0	0	0	
14	0	0	0	0	539	1022	0	0	0	0	
15	0	0	0	0	536	1021	0	0	0	0	
0	0	0	0	0	535	1021	0	0	0	0	
1	0	0	0	0	536	1021	0	0	0	0	
2	0	0	0	0	536	1022	0	0	0	0	
3	0	0	0	0	538	1022	0	0	0	0	
4	0	0	0	0	540	1021	0	0	0	0	
5	0	0	0	0	542	1022	0	0	0	0	
6	0	0	0	0	543	1021	0	0	0	0	
7	0	0	0	0	544	1021	0	0	0	0	
8	0	0	0	0	546	1021	0	0	0	0	
9	0	0	0	0	550	1021	0	0	0	0	
10	0	0	0	0	553	1021	0	0	0	0	
11	0	0	0	0	556	1021	0	0	0	0	
12	0	0	0	0	559	1021	0	0	0	0	
13	0	0	0	0	560	1022	0	0	0	0	
14	0	0	0	0	563	1021	0	0	0	0	
15	0	0	0	0	565	1021	0	0	0	0	
0	0	0	0	0	567	1021	0	0	0	0	
1	0	0	0	0	567	1021	0	0	0	0	
2	0	0	0	0	564	1021	0	0	0	0	
3	0	0	0	0	561	1021	0	0	0	0	
4	0	0	0	0	557	1021	0	0	0	0	
5	0	0	0	0	551	1021	0	0	0	0	
6	0	0	0	0	546	1021	0	0	0	0	
7	0	0	0	0	542	1022	0	0	0	0	
8	0	0	0	0	540	1021	0	0	0	0	
9	0	0	0	0	538	1021	0	0	0	0	
10	0	0	0	0	538	1021	0	0	0	0	
11	0	0	0	0	540	1022	0	0	0	0	
12	0	0	0	0	542	1022	0	0	0	0	
13	0	0	0	0	548	1021	0	0	0	0	
14	0	0	0	0	555	1021	0	0	0	0	
15	0	0	0	0	562	1021	0	0	0	0	
0	0	0	0	0	570	1022	0	0	0	0	
1	0	0	0	0	579	1021	0	0	0	0	
2	0	0	0	0	588	1021	0	0	0	0	
3	0	0	0	0	595	1021	0	0	0	0	
4	0	0	0	0	604	1021	0	0	0	0	
5	0	0	0	0	611	1021	0	0	0	0	
6	0	0	0	0	618	1022	0	0	0	0	
7	0	0	0	0	624	1021	0	0	0	0	
8	0	0	0	0	628	1021	0	0	0	0	
9	0	0	0	0	630	1021	0	0	0	0	
10	0	0	0	0	629	1021	0	0	0	0	
11	0	0	0	0	624	1022	0	0	0	0	
12	0	0	0	0	618	1021	0	0	0	0	
13	0	0	0	0	609	1021	0	0	0	0	
14	0	0	0	0	598	1021	0	0	0	0	
15	0	0	0	0	586	1022	0	0	0	0	
0	0	0	0	0	574	1022	0	0	0	0	
1	0	0	0	0	564	1021	0	0	0	0	
2	0	0	0	0	556	1021	0	0	0	0	
3	0	0	0	0	549	1021	0	0	0	0	
4	0	0	0	0	544	1021	0	0	0	0	
5	0	0	0	0	541	1021	0	0	0	0	
6	0	0	0	0	540	1021	0	0	0	0	
7	0	0	0	0	541	1021	0	0	0	0	
8	0	0	0	0	543	1021	0	0	0	0	
9	0	0	0	0	548	1021	0	0	0	0	
10	0	0	0	0	553	1022	0	0	0	0	
11	0	0	0	0	560	1021	0	0	0	0	
12	0	0	0	0	566	1021	0	0	0	0	
13	0	0	0	0	573	1021	0	0	0	0	
14	0	0	0	0	579	1022	0	0	0	0	
15	0	0	0	0	583	1021	0	0	0	0	
0	0	0	0	0	588	1021	0	0	0	0	
1	0	0	0	0	590	1021	0	0	0	0	
2	0	0	0	0	592	1021	0	0	0	0	
3	0	0	0	0	594	1021	0	0	0	0	
4	0	0	0	0	595	1021	0	0	0	0	
5	0	0	0	0	595	1021	0	0	0	0	
6	0	0	0	0	596	1021	0	0	0	0	
7	0	0	0	0	597	1021	0	0	0	0	
8	0	0	0	0	598	1021	1	0	0	0	
9	0	0	0	0	597	1022	0	0	0	0	
10	0	0	0	0	598	1021	0	0	0	0	
11	0	0	0	0	596	1021	0	0	0	0	
12	0	0	0	0	594	1021	0	0	0	0	
13	0	0	0	0	592	1022	0	0	0	0	
14	0	0	0	0	589	1022	0	0	0	0	
15	0	0	0	0	588	1021	0	0	0	0	
0	0	0	0	0	585	1021	0	0	0	0	
1	0	0	0	0	583	1021	0	0	0	0	
2	0	0	0	0	577	1022	0	0	0	0	
3	0	0	0	0	572	1022	0	0	0	0	
4	0	0	0	0	565	1021	0	0	0	0	
5	0	0	0	0	557	1021	0	0	0	0	
6	0	0	0	0	548	1021	0	0	0	0	
7	0	0	0	0	539	1021	0	0	0	0	
8	0	0	0	0	529	1021	0	0	0	0	
9	0	0	0	0	521	1021	0	0	0	0	
10	0	0	0	0	515	1021	0	0	0	0	
11	0	0	0	0	512	1021	0	0	0	0	
12	0	0	0	0	513	1021	0	0	0	0	
13	0	0	0	0	517	1022	0	0	0	0	
14	0	0	0	0	526	1021	0	0	0	0	
15	0	0	0	0	538	1021	0	0	0	0	
0	0	0	0	0	552	1021	0	0	0	0	
1	0	0	0	0	566	1022	0	0	0	0	
2	0	0	0	0	580	1021	0	0	0	0	
3	0	0	0	0	592	1021	0	0	0	0	
4	0	0	0	0	601	1021	0	0	0	0	
5	0	0	0	0	606	1021	0	0	0	0	
6	0	0	0	0	607	1022	0	0	0	0	
7	0	0	0	0	605	1021	0	0	0	0	
8	0	0	0	0	599	1021	0	0	0	0	
9	0	0	0	0	591	1021	0	0	0	0	
10	0	0	0	0	583	1021	0	0	0	0	
11	0	0	0	0	575	1022	0	0	0	0	
12	0	0	0	0	568	1021	0	0	0	0	
13	0	0	0	0	563	1021	0	0	0	0	
14	0	0	0	0	558	1021	0	0	0	0	
15	0	0	0	0	553	1021	0	0	0	0	
0	0	0	0	0	549	1021	0	0	0	0	
1	0	0	0	0	545	1021	0	0	0	0	
2	0	0	0	0	541	1021	0	0	0	0	
3	0	0	0	0	537	1021	0	0	0	0	
4	0	0	0	0	532	1021	0	0	0	0	
5	0	0	0	0	527	1022	0	0	0	0	
6	0	0	0	0	523	1021	0	0	0	0	
7	0	0	0	0	520	1021	0	0	0	0	
8	0	0	0	0	520	1021	0	0	0	0	
9	0	0	0	0	524	1021	0	0	0	0	
10	0	0	0	0	532	1021	0	0	0	0	
11	0	0	0	0	544	1021	0	0	0	0	
12	0	0	0	0	560	1021	0	0	0	0	
13	0	0	0	0	579	1021	0	0	0	0	
14	0	0	0	0	600	1021	0	0	0	0	
15	0	0	0	0	620	1022	0	0	0	0	
0	0	0	0	0	639	1021	0	0	0	0	
1	0	0	0	0	656	1021	0	0	0	0	
2	0	0	0	0	668	1021	0	0	0	0	
3	0	0	0	0	674	1021	0	0	0	0	
4	0	0	0	0	674	1022	0	0	0	0	
5	0	0	0	0	668	1021	0	0	0	0	
6	0	0	0	0	658	1021	0	0	0	0	
7	0	0	0	0	643	1021	0	0	0	0	
8	0	0	0	0	625	1021	0	0	0	0	
9	0	0	0	0	606	1022	0	0	0	0	
10	0	0	0	0	587	1021	0	0	0	0	
11	0	0	0	0	570	1021	0	0	0	0	
12	0	0	0	0	555	1021	0	0	0	0	
13	0	0	0	0	545	1021	0	0	0	0	
14	0	0	0	0	539	1022	0	0	0	0	
15	0	0	0	0	537	1021	0	0	0	0	
0	0	0	0	0	540	1021	0	0	0	0	
1	0	0	0	0	545	1021	0	0	0	0	
2	0	0	0	0	554	1021	0	0	0	0	
3	0	0	0	0	563	1022	0	0	0	0	
4	0	0	0	0	574	1021	0	0	0	0	
5	0	0	0	0	585	1021	0	0	0	0	
6	0	0	0	0	596	1021	0	0	0	0	
7	0	0	0	0	606	1021	0	0	0	0	
8	0	0	0	0	615	1021	0	0	0	0	
9	0	0	0	0	624	1021	0	0	0	0	
10	0	0	0	0	632	1021	0	0	0	0	
11	0	0	0	0	637	1021	0	0	0	0	
12	0	0	0	0	641	1022	0	0	0	0	
13	0	0	0	0	643	1021	0	0	0	0	
14	0	0	0	0	643	1021	0	0	0	0	
15	0	0	0	0	639	1021	0	0	0	0	
0	0	0	0	0	633	1021	0	0	0	0	
1	0	0	0	0	624	1021	0	0	0	0	
2	0	0	0	0	612	1021	0	0	0	0	
3	0	0	0	0	600	1021	0	0	0	0	
4	0	0	0	0	586	1021	0	0	0	0	
5	0	0	0	0	572	1021	0	0	0	0	
6	0	0	0	0	559	1021	0	0	0	0	
7	0	0	0	0	547	1021	0	0	0	0	
8	0	0	0	0	538	1021	0	0	0	0	
9	0	0	0	0	532	1021	0	0	0	0	
10	0	0	0	0	529	1021	0	0	0	0	
11	0	0	0	0	531	1021	0	0	0	0	
12	0	0	0	0	534	1021	0	0	0	0	
13	0	0	0	0	540	1021	0	0	0	0	
14	0	0	0	0	548	1021	0	0	0	0	
15	0	0	0	0	556	1021	0	0	0	0	
0	0	0	0	0	563	1022	0	0	0	0	
1	0	0	0	0	571	1021	0	0	0	0	
2	0	0	0	0	576	1022	0	0	0	0	
3	0	0	0	0	583	1021	0	0	0	0	
4	0	0	0	0	588	1021	0	0	0	0	
5	0	0	0	0	593	1021	0	0	0	0	
6	0	0	0	0	596	1021	0	0	0	0	
7	0	0	0	0	599	1021	0	0	0	0	
8	0	0	0	0	601	1021	0	0	0	0	
9	0	0	0	0	602	1021	0	0	0	0	
10	0	0	0	0	602	1021	0	0	0	0	
11	0	0	0	0	601	1022	0	0	0	0	
12	0	0	0	0	599	1021	0	0	0	0	
13	0	0	0	0	597	1021	0	0	0	0	
14	0	0	0	0	593	1021	0	0	0	0	
15	0	0	0	0	589	1021	0	0	0	0	
0	0	0	0	0	584	1021	0	0	0	0	
1	0	0	0	0	579	1021	0	0	0	0	
2	0	0	0	0	574	1021	0	0	0	0	
3	0	0	0	0	568	1021	0	0	0	0	
4	0	0	0	0	561	1021	0	0	0	0	
5	0	0	0	0	553	1021	0	0	0	0	
6	0	0	0	0	545	1022	0	0	0	0	
7	0	0	0	0	539	1021	0	0	0	0	
8	0	0	0	0	532	1021	0	0	0	0	
9	0	0	0	0	527	1021	0	0	0	0	
10	0	0	0	0	523	1021	0	0	0	0	
11	0	0	0	0	520	1021	0	0	0	0	
12	0	0	0	0	520	1021	0	0	0	0	
13	0	0	0	0	521	1021	0	0	0	0	
14	0	0	0	0	526	1021	0	0	0	0	
15	0	0	0	0	534	1022	0	0	0	0	
0	0	0	0	0	545	1021	0	0	0	0	
1	0	0	0	0	560	1021	0	0	0	0	
2	0	0	0	0	576	1021	0	0	0	0	
3	0	0	0	0	593	1021	0	0	0	0	
4	0	0	0	0	610	1022	0	0	0	0	
5	0	0	0	0	626	1021	0	0	0	0	
6	0	0	0	0	639	1021	0	0	0	0	
7	0	0	0	0	649	1021	0	0	0	0	
8	0	0	0	0	655	1021	0	0	0	0	
9	0	0	0	0	657	1022	0	0	0	0	
10	0	0	0	0	655	1021	0	0	0	0	
11	0	0	0	0	649	1021	0	0	0	0	
12	0	0	0	0	640	1021	0	0	0	0	
13	0	0	0	0	628	1021	0	0	0	0	
14	0	0	0	0	614	1022	0	0	0	0	
15	0	0	0	0	598	1022	0	0	0	0	
0	0	0	0	0	582	1021	0	0	0	0	
1	0	0	0	0	567	1021	0	0	0	0	
2	0	0	0	0	552	1021	0	0	0	0	
3	0	0	0	0	539	1021	0	0	0	0	
4	0	0	0	0	528	1021	0	0	0	0	
5	0	0	0	0	521	1021	0	0	0	0	
6	0	0	0	0	517	1021	0	0	0	0	
7	0	0	0	0	517	1021	0	0	0	0	
8	0	0	0	0	520	1022	0	0	0	0	
9	0	0	0	0	527	1021	0	0	0	0	
10	0	0	0	0	538	1021	0	0	0	0	
11	0	0	0	0	550	1021	0	0	0	0	
12	0	0	0	0	563	1021	0	0	0	0	
13	0	0	0	0	576	1022	0	0	0	0	
14	0	0	0	0	588	1021	0	0	0	0	
15	0	0	0	0	597	1021	0	0	0	0	
0	0	0	0	0	604	1021	0	0	0	0	
1	0	0	0	0	607	1021	0	0	0	0	
2	0	0	0	0	607	1022	0	0	0	0	
3	0	0	0	0	604	1021	0	0	0	0	
4	0	0	0	0	598	1021	0	0	0	0	
5	0	0	0	0	591	1021	0	0	0	0	
6	0	0	0	0	582	1021	0	0	0	0	
7	0	0	0	0	574	1021	0	0	0	0	
8	0	0	0	0	566	1022	0	0	0	0	
9	0	0	0	0	560	1021	0	0	0	0	
10	0	0	0	0	556	1021	0	0	0	0	
11	0	0	0	0	554	1021	0	0	0	0	
12	0	0	0	0	552	1022	0	0	0	0	
13	0	0	0	0	553	1021	0	0	0	0	
14	0	0	0	0	556	1021	0	0	0	0	
15	0	0	0	0	560	1021	0	0	0	0	
0	0	0	0	0	565	1021	0	0	0	0	
1	0	0	0	0	572	1022	0	0	0	0	
2	0	0	0	0	580	1021	0	0	0	0	
3	0	0	0	0	591	1021	0	0	0	0	
4	0	0	0	0	601	1021	0	0	0	0	
5	0	0	0	0	613	1021	0	0	0	0	
6	0	0	0	0	626	1021	0	0	0	0	
7	0	0	0	0	638	1021	0	0	0	0	
8	0	0	0	0	651	1021	0	0	0	0	
9	0	0	0	0	661	1021	0	0	0	0	
10	0	0	0	0	668	1021	0	0	0	0	
11	0	0	0	0	671	1021	0	0	0	0	
12	0	0	0	0	671	1021	0	0	0	0	
13	0	0	0	0	667	1021	0	0	0	0	
14	0	0	0	0	659	1021	0	0	0	0	
15	0	0	0	0	647	1021	0	0	0	0	
0	0	0	0	0	632	1021	0	0	0	0	
1	0	0	0	0	613	1021	0	0	0	0	
2	0	0	0	0	592	1021	0	0	0	0	
3	0	0	0	0	570	1021	0	0	0	0	
4	0	0	0	0	546	1021	0	0	0	0	
5	0	0	0	0	523	1021	0	0	0	0	
6	0	0	0	0	500	1021	0	0	0	0	
7	0	0	0	0	480	1021	0	0	0	0	
8	0	0	0	0	460	1021	0	0	0	0	
9	0	0	0	0	444	1021	0	0	0	0	
10	0	0	0	0	431	1021	0	0	0	0	
11	0	0	0	0	419	1022	0	0	0	0	
12	0	0	0	0	410	1021	0	0	0	0	
13	0	0	0	0	403	1021	0	0	0	0	
14	0	0	0	0	398	1021	0	0	0	0	
15	0	0	0	0	394	1021	0	0	0	0	
0	0	0	0	0	391	1021	0	0	0	0	
1	0	0	0	0	388	1021	0	0	0	0	
2	0	0	0	0	387	1021	0	0	0	0	
3	0	0	0	0	386	1021	0	0	0	0	
4	0	0	0	0	384	1021	0	0	0	0	
5	0	0	0	0	384	1021	0	0	0	0	
6	0	0	0	0	383	1021	0	0	0	0	
7	0	0	0	0	384	1021	0	0	0	0	
8	0	0	0	0	387	1021	0	0	0	0	
9	0	0	0	0	393	1021	0	0	0	0	
10	0	0	0	0	402	1022	0	0	0	0	
11	0	0	0	0	416	1021	0	0	0	0	
12	0	0	0	0	433	1021	0	0	0	0	
13	0	0	0	0	452	1021	0	0	0	0	
14	0	0	0	0	472	1022	0	0	0	0	
15	0	0	0	0	494	1022	0	0	0	0	
0	0	0	0	0	515	1021	0	0	0	0	
1	0	0	0	0	534	1021	0	0	0	0	
2	0	0	0	0	551	1021	0	0	0	0	
3	0	0	0	0	564	1022	0	0	0	0	
4	0	0	0	0	575	1022	0	0	0	0	
5	0	0	0	0	584	1021	0	0	0	0	
6	0	0	0	0	590	1021	0	0	0	0	
7	0	0	0	0	594	1021	0	0	0	0	
8	0	0	0	0	598	1021	0	0	0	0	
9	0	0	0	0	601	1022	0	0	0	0	
10	0	0	0	0	605	1021	0	0	0	0	
11	0	0	0	0	609	1021	0	0	0	0	
12	0	0	0	0	614	1021	0	0	0	0	
13	0	0	0	0	619	1021	0	0	0	0	
14	0	0	0	0	623	1022	0	0	0	0	
15	0	0	0	0	627	1021	0	0	0	0	
0	0	0	0	0	630	1021	0	0	0	0	
1	0	0	0	0	632	1021	0	0	0	0	
2	0	0	0	0	632	1022	0	0	0	0	
3	0	0	0	0	632	1022	0	0	0	0	
4	0	0	0	0	632	1021	0	0	0	0	
5	0	0	0	0	629	1022	0	0	0	0	
6	0	0	0	0	627	1021	0	0	0	0	
7	0	0	0	0	623	1021	0	0	0	0	
8	0	0	0	0	619	1021	0	0	0	0	
9	0	0	0	0	615	1021	0	0	0	0	
10	0	0	0	0	610	1021	0	0	0	0	
11	0	0	0	0	607	1021	0	0	0	0	
12	0	0	0	0	604	1021	0	0	0	0	
13	0	0	0	0	600	1022	0	0	0	0	
14	0	0	0	0	600	1021	0	0	0	0	
15	0	0	0	0	598	1021	0	0	0	0	
0	0	0	0	0	597	1021	0	0	0	0	
1	0	0	0	0	596	1021	0	0	0	0	
2	0	0	0	0	595	1021	0	0	0	0	
3	0	0	0	0	595	1021	0	0	0	0	
4	0	0	0	0	595	1021	0	0	0	0	
5	0	0	0	0	594	1021	0	0	0	0	
6	0	0	0	0	592	1022	0	0	0	0	
7	0	0	0	0	590	1022	0	0	0	0	
8	0	0	0	0	588	1021	0	0	0	0	
9	0	0	0	0	583	1021	0	0	0	0	
10	0	0	0	0	579	1021	0	0	0	0	
11	0	0	0	0	575	1021	0	0	0	0	
12	0	0	0	0	571	1022	0	0	0	0	
13	0	0	0	0	568	1021	0	0	0	0	
14	0	0	0	0	568	1021	0	0	0	0	
15	0	0	0	0	568	1021	0	0	0	0	
0	0	0	0	0	572	1022	0	0	0	0	
1	0	0	0	0	577	1021	0	0	0	0	
2	0	0	0	0	585	1021	0	0	0	0	
3	0	0	0	0	593	1021	0	0	0	0	
4	0	0	0	0	601	1021	0	0	0	0	
5	0	0	0	0	608	1021	0	0	0	0	
6	0	0	0	0	613	1021	0	0	0	0	
7	0	0	0	0	616	1021	0	0	0	0	
8	0	0	0	0	617	1021	0	0	0	0	
9	0	0	0	0	616	1021	0	0	0	0	
10	0	0	0	0	612	1021	0	0	0	0	
11	0	0	0	0	608	1021	0	0	0	0	
12	0	0	0	0	605	1021	0	0	0	0	
13	0	0	0	0	601	1021	0	0	0	0	
14	0	0	0	0	599	1021	0	0	0	0	
15	0	0	0	0	598	1021	0	0	0	0	
0	0	0	0	0	598	1022	0	0	0	0	
1	0	0	0	0	602	1021	0	0	0	0	
2	0	0	0	0	608	1021	0	0	0	0	
3	0	0	0	0	615	1022	0	0	0	0	
4	0	0	0	0	624	1021	0	0	0	0	
5	0	0	0	0	632	1022	0	0	0	0	
6	0	0	0	0	640	1021	0	0	0	0	
7	0	0	0	0	646	1021	0	0	0	0	
8	0	0	0	0	647	1021	0	0	0	0	
9	0	0	0	0	645	1022	0	0	0	0	
10	0	0	0	0	640	1022	0	0	0	0	
11	0	0	0	0	633	1021	0	0	0	0	
12	0	0	0	0	623	1021	0	0	0	0	
13	0	0	0	0	610	1021	0	0	0	0	
14	0	0	0	0	597	1022	0	0	0	0	
15	0	0	0	0	584	1022	0	0	0	0	
0	0	0	0	0	574	1021	0	0	0	0	
1	0	0	0	0	566	1021	0	0	0	0	
2	0	0	0	0	561	1021	0	0	0	0	
3	0	0	0	0	560	1021	0	0	0	0	
4	0	0	0	0	562	1022	0	0	0	0	
5	0	0	0	0	568	1021	0	0	0	0	
6	0	0	0	0	576	1021	0	0	0	0	
7	0	0	0	0	585	1021	0	0	0	0	
8	0	0	0	0	594	1022	0	0	0	0	
9	0	0	0	0	603	1022	0	0	0	0	
10	0	0	0	0	612	1021	0	0	0	0	
11	0	0	0	0	619	1021	0	0	0	0	
12	0	0	0	0	623	1022	0	0	0	0	
13	0	0	0	0	627	1021	0	0	0	0	
14	0	0	0	0	627	1021	0	0	0	0	
15	0	0	0	0	627	1021	0	0	0	0	
0	0	0	0	0	624	1021	0	0	0	0	
1	0	0	0	0	621	1021	0	0	0	0	
2	0	0	0	0	615	1021	0	0	0	0	
3	0	0	0	0	609	1022	0	0	0	0	
4	0	0	0	0	603	1021	0	0	0	0	
5	0	0	0	0	596	1021	0	0	0	0	
6	0	0	0	0	590	1021	0	0	0	0	
7	0	0	0	0	584	1021	0	0	0	0	
8	0	0	0	0	580	1021	0	0	0	0	
9	0	0	0	0	577	1021	0	0	0	0	
10	0	0	0	0	575	1021	0	0	0	0	
11	0	0	0	0	572	1021	0	0	0	0	
12	0	0	0	0	568	1021	0	0	0	0	
13	0	0	0	0	564	1021	0	0	0	0	
14	0	0	0	0	561	1021	0	0	0	0	
15	0	0	0	0	558	1021	0	0	0	0	
0	0	0	0	0	557	1021	0	0	0	0	
1	0	0	0	0	557	1021	0	0	0	0	
2	0	0	0	0	558	1021	0	0	0	0	
3	0	0	0	0	563	1021	0	0	0	0	
4	0	0	0	0	569	1021	0	0	0	0	
5	0	0	0	0	578	1021	0	0	0	0	
6	0	0	0	0	589	1022	0	0	0	0	
7	0	0	0	0	600	1022	0	0	0	0	
8	0	0	0	0	614	1021	0	0	0	0	
9	0	0	0	0	627	1021	0	0	0	0	
10	0	0	0	0	641	1021	0	0	0	0	
11	0	0	0	0	652	1022	0	0	0	0	
12	0	0	0	0	660	1022	0	0	0	0	
13	0	0	0	0	666	1021	0	0	0	0	
14	0	0	0	0	668	1021	0	0	0	0	
15	0	0	0	0	664	1022	0	0	0	0	
0	0	0	0	0	658	1021	0	0	0	0	
1	0	0	0	0	647	1022	0	0	0	0	
2	0	0	0	0	632	1021	0	0	0	0	
3	0	0	0	0	615	1021	0	0	0	0	
4	0	0	0	0	595	1021	0	0	0	0	
5	0	0	0	0	576	1021	0	0	0	0	
6	0	0	0	0	558	1021	0	0	0	0	
7	0	0	0	0	543	1021	0	0	0	0	
8	0	0	0	0	532	1021	0	0	0	0	
9	0	0	0	0	527	1021	0	0	0	0	
10	0	0	0	0	526	1021	0	0	0	0	
11	0	0	0	0	531	1022	0	0	0	0	
12	0	0	0	0	541	1021	0	0	0	0	
13	0	0	0	0	554	1021	0	0	0	0	
14	0	0	0	0	568	1021	0	0	0	0	
15	0	0	0	0	583	1021	0	0	0	0	
0	0	0	0	0	597	1021	0	0	0	0	
1	0	0	0	0	610	1021	0	0	0	0	
2	0	0	0	0	619	1021	0	0	0	0	
3	0	0	0	0	625	1021	0	0	0	0	
4	0	0	0	0	629	1021	0	0	0	0	
5	0	0	0	0	631	1021	0	0	0	0	
6	0	0	0	0	632	1021	0	0	0	0	
7	0	0	0	0	632	1022	0	0	0	0	
8	0	0	0	0	632	1021	0	0	0	0	
9	0	0	0	0	633	1021	0	0	0	0	
10	0	0	0	0	635	1022	0	0	0	0	
11	0	0	0	0	639	1021	0	0	0	0	
12	0	0	0	0	642	1021	0	0	0	0	
13	0	0	0	0	646	1021	0	0	0	0	
14	0	0	0	0	649	1022	0	0	0	0	
15	0	0	0	0	652	1022	0	0	0	0	
0	0	0	0	0	654	1021	0	0	0	0	
1	0	0	0	0	654	1021	0	0	0	0	
2	0	0	0	0	651	1021	0	0	0	0	
3	0	0	0	0	646	1022	0	0	0	0	
4	0	0	0	0	639	1022	0	0	0	0	
5	0	0	0	0	631	1021	0	0	0	0	
6	0	0	0	0	620	1021	0	0	0	0	
7	0	0	0	0	608	1021	0	0	0	0	
8	0	0	0	0	596	1021	0	0	0	0	
9	0	0	0	0	583	1022	0	0	0	0	
10	0	0	0	0	571	1021	0	0	0	0	
11	0	0	0	0	560	1021	0	0	0	0	
12	0	0	0	0	551	1021	0	0	0	0	
13	0	0	0	0	545	1021	0	0	0	0	
14	0	0	0	0	544	1021	0	0	0	0	
15	0	0	0	0	548	1021	0	0	0	0	
0	0	0	0	0	556	1021	0	0	0	0	
1	0	0	0	0	568	1021	0	0	0	0	
2	0	0	0	0	581	1021	0	0	0	0	
3	0	0	0	0	595	1021	0	0	0	0	
4	0	0	0	0	608	1021	0	0	0	0	
5	0	0	0	0	619	1021	0	0	0	0	
6	0	0	0	0	626	1021	0	0	0	0	
7	0	0	0	0	629	1021	0	0	0	0	
8	0	0	0	0	627	1022	0	0	0	0	
9	0	0	0	0	622	1021	0	0	0	0	
10	0	0	0	0	612	1021	0	0	0	0	
11	0	0	0	0	599	1021	0	0	0	0	
12	0	0	0	0	585	1022	0	0	0	0	
13	0	0	0	0	569	1022	0	0	0	0	
14	0	0	0	0	556	1021	0	0	0	0	
15	0	0	0	0	543	1021	0	0	0	0	
0	0	0	0	0	534	1021	0	0	0	0	
1	0	0	0	0	526	1021	0	0	0	0	
2	0	0	0	0	521	1022	0	0	0	0	
3	0	0	0	0	519	1021	0	0	0	0	
4	0	0	0	0	520	1021	0	0	0	0	
5	0	0	0	0	522	1021	0	0	0	0	
6	0	0	0	0	526	1021	0	0	0	0	
7	0	0	0	0	531	1022	0	0	0	0	
8	0	0	0	0	537	1021	0	0	0	0	
9	0	0	0	0	544	1021	0	0	0	0	
10	0	0	0	0	553	1022	0	0	0	0	
11	0	0	0	0	565	1022	0	0	0	0	
12	0	0	0	0	578	1022	0	0	0	0	
13	0	0	0	0	594	1021	0	0	0	0	
14	0	0	0	0	611	1021	0	0	0	0	
15	0	0	0	0	628	1021	0	0	0	0	
0	0	0	0	0	643	1021	0	0	0	0	
1	0	0	0	0	656	1022	0	0	0	0	
2	0	0	0	0	666	1021	0	0	0	0	
3	0	0	0	0	671	1021	0	0	0	0	
4	0	0	0	0	671	1021	0	0	0	0	
5	0	0	0	0	665	1022	0	0	0	0	
6	0	0	0	0	656	1021	0	0	0	0	
7	0	0	0	0	644	1021	0	0	0	0	
8	0	0	0	0	629	1021	0	0	0	0	
9	0	0	0	0	614	1021	0	0	0	0	
10	0	0	0	0	599	1022	0	0	0	0	
11	0	0	0	0	586	1021	0	0	0	0	
12	0	0	0	0	577	1021	0	0	0	0	
13	0	0	0	0	573	1021	0	0	0	0	
14	0	0	0	0	573	1021	0	0	0	0	
15	0	0	0	0	576	1021	0	0	0	0	
0	0	0	0	0	585	1022	0	0	0	0	
1	0	0	0	0	598	1021	0	0	0	0	
2	0	0	0	0	611	1021	0	0	0	0	
3	0	0	0	0	623	1022	0	0	0	0	
4	0	0	0	0	635	1022	0	0	0	0	
5	0	0	0	0	641	1022	0	0	0	0	
6	0	0	0	0	645	1021	0	0	0	0	
7	0	0	0	0	644	1021	0	0	0	0	
8	0	0	0	0	639	1021	0	0	0	0	
9	0	0	0	0	631	1021	0	0	0	0	
10	0	0	0	0	620	1021	0	0	0	0	
11	0	0	0	0	609	1021	0	0	0	0	
12	0	0	0	0	598	1021	0	0	0	0	
13	0	0	0	0	588	1021	0	0	0	0	
14	0	0	0	0	579	1021	0	0	0	0	
15	0	0	0	0	573	1022	0	0	0	0	
0	0	0	0	0	571	1021	0	0	0	0	
1	0	0	0	0	571	1021	0	0	0	0	
2	0	0	0	0	572	1021	0	0	0	0	
3	0	0	0	0	575	1021	0	0	0	0	
4	0	0	0	0	581	1021	0	0	0	0	
5	0	0	0	0	588	1021	0	0	0	0	
6	0	0	0	0	595	1021	0	0	0	0	
7	0	0	0	0	601	1021	0	0	0	0	
8	0	0	0	0	606	1021	0	0	0	0	
9	0	0	0	0	609	1022	0	0	0	0	
10	0	0	0	0	611	1021	0	0	0	0	
11	0	0	0	0	609	1021	0	0	0	0	
12	0	0	0	0	606	1021	0	0	0	0	
13	0	0	0	0	602	1022	0	0	0	0	
14	0	0	0	0	596	1022	0	0	0	0	
15	0	0	0	0	591	1021	0	0	0	0	
0	0	0	0	0	587	1021	0	0	0	0	
1	0	0	0	0	584	1021	0	0	0	0	
2	0	0	0	0	582	1021	0	0	0	0	
3	0	0	0	0	583	1021	0	0	0	0	
4	0	0	0	0	587	1021	0	0	0	0	
5	0	0	0	0	591	1021	0	0	0	0	
6	0	0	0	0	598	1021	0	0	0	0	
7	0	0	0	0	605	1021	0	0	0	0	
8	0	0	0	0	613	1021	0	0	0	0	
9	0	0	0	0	621	1021	0	0	0	0	
10	0	0	0	0	627	1021	0	0	0	0	
11	0	0	0	0	632	1021	0	0	0	0	
12	0	0	0	0	635	1021	0	0	0	0	
13	0	0	0	0	635	1021	0	0	0	0	
14	0	0	0	0	632	1021	0	0	0	0	
15	0	0	0	0	626	1021	0	0	0	0	
0	0	0	0	0	617	1021	0	0	0	0	
1	0	0	0	0	605	1021	0	0	0	0	
2	0	0	0	0	592	1021	0	0	0	0	
3	0	0	0	0	578	1021	0	0	0	0	
4	0	0	0	0	564	1021	0	0	0	0	
5	0	0	0	0	552	1021	0	0	0	0	
6	0	0	0	0	542	1022	0	0	0	0	
7	0	0	0	0	536	1021	0	0	0	0	
8	0	0	0	0	534	1021	0	0	0	0	
9	0	0	0	0	536	1021	0	0	0	0	
10	0	0	0	0	543	1021	0	0	0	0	
11	0	0	0	0	555	1021	0	0	0	0	
12	0	0	0	0	569	1021	0	0	0	0	
13	0	0	0	0	586	1021	0	0	0	0	
14	0	0	0	0	604	1021	0	0	0	0	
15	0	0	0	0	622	1021	0	0	0	0	
0	0	0	0	0	637	1022	0	0	0	0	
1	0	0	0	0	651	1022	0	0	0	0	
2	0	0	0	0	660	1021	0	0	0	0	
3	0	0	0	0	667	1021	0	0	0	0	
4	0	0	0	0	668	1021	0	0	0	0	
5	0	0	0	0	666	1022	0	0	0	0	
6	0	0	0	0	660	1021	0	0	0	0	
7	0	0	0	0	650	1021	0	0	0	0	
8	0	0	0	0	638	1021	0	0	0	0	
9	0	0	0	0	623	1021	0	0	0	0	
10	0	0	0	0	607	1021	0	0	0	0	
11	0	0	0	0	591	1021	0	0	0	0	
12	0	0	0	0	579	1021	0	0	0	0	
13	0	0	0	0	568	1021	0	0	0	0	
14	0	0	0	0	560	1021	0	0	0	0	
15	0	0	0	0	556	1021	0	0	0	0	
0	0	0	0	0	556	1021	0	0	0	0	
1	0	0	0	0	559	1021	0	0	0	0	
2	0	0	0	0	566	1021	0	0	0	0	
3	0	0	0	0	574	1021	0	0	0	0	
4	0	0	0	0	583	1022	0	0	0	0	
5	0	0	0	0	591	1021	0	0	0	0	
6	0	0	0	0	600	1021	0	0	0	0	
7	0	0	0	0	607	1021	0	0	0	0	
8	0	0	0	0	611	1021	0	0	0	0	
9	0	0	0	0	614	1022	0	0	0	0	
10	0	0	0	0	613	1021	0	0	0	0	
11	0	0	0	0	611	1021	0	0	0	0	
12	0	0	0	0	607	1021	0	0	0	0	
13	0	0	0	0	602	1021	0	0	0	0	
14	0	0	0	0	596	1022	0	0	0	0	
15	0	0	0	0	590	1021	0	0	0	0	
0	0	0	0	0	584	1021	0	0	0	0	
1	0	0	0	0	579	1021	0	0	0	0	
2	0	0	0	0	575	1021	0	0	0	0	
3	0	0	0	0	573	1022	0	0	0	0	
4	0	0	0	0	572	1022	0	0	0	0	
5	0	0	0	0	574	1021	0	0	0	0	
6	0	0	0	0	577	1021	0	0	0	0	
7	0	0	0	0	582	1021	0	0	0	0	
8	0	0	0	0	587	1021	0	0	0	0	
9	0	0	0	0	593	1022	0	0	0	0	
10	0	0	0	0	600	1021	0	0	0	0	
11	0	0	0	0	607	1021	0	0	0	0	
12	0	0	0	0	613	1021	0	0	0	0	
13	0	0	0	0	618	1021	0	0	0	0	
14	0	0	0	0	622	1022	0	0	0	0	
15	0	0	0	0	623	1021	0	0	0	0	
0	0	0	0	0	622	1021	0	0	0	0	
1	0	0	0	0	618	1021	0	0	0	0	
2	0	0	0	0	611	1022	0	0	0	0	
3	0	0	0	0	602	1022	0	0	0	0	
4	0	0	0	0	591	1021	0	0	0	0	
5	0	0	0	0	580	1021	0	0	0	0	
6	0	0	0	0	569	1021	0	0	0	0	
7	0	0	0	0	559	1022	0	0	0	0	
8	0	0	0	0	551	1022	0	0	0	0	
9	0	0	0	0	545	1021	0	0	0	0	
10	0	0	0	0	542	1021	0	0	0	0	
11	0	0	0	0	542	1021	0	0	0	0	
12	0	0	0	0	545	1021	0	0	0	0	
13	0	0	0	0	550	1022	0	0	0	0	
14	0	0	0	0	560	1021	0	0	0	0	
15	0	0	0	0	571	1021	0	0	0	0	
0	0	0	0	0	583	1021	0	0	0	0	
1	0	0	0	0	595	1021	0	0	0	0	
2	0	0	0	0	607	1022	0	0	0	0	
3	0	0	0	0	618	1021	0	0	0	0	
4	0	0	0	0	624	1021	0	0	0	0	
5	0	0	0	0	629	1021	0	0	0	0	
6	0	0	0	0	630	1022	0	0	0	0	
7	0	0	0	0	627	1022	0	0	0	0	
8	0	0	0	0	624	1021	0	0	0	0	
9	0	0	0	0	619	1021	0	0	0	0	
10	0	0	0	0	613	1021	0	0	0	0	
11	0	0	0	0	608	1021	0	0	0	0	
12	0	0	0	0	602	1021	0	0	0	0	
13	0	0	0	0	599	1021	0	0	0	0	
14	0	0	0	0	596	1021	0	0	0	0	
15	0	0	0	0	594	1022	0	0	0	0	
0	0	0	0	0	595	1021	0	0	0	0	
1	0	0	0	0	596	1022	0	0	0	0	
2	0	0	0	0	599	1021	0	0	0	0	
3	0	0	0	0	601	1022	0	0	0	0	
4	0	0	0	0	604	1021	0	0	0	0	
5	0	0	0	0	606	1021	0	0	0	0	
6	0	0	0	0	606	1022	0	0	0	0	
7	0	0	0	0	607	1021	0	0	0	0	
8	0	0	0	0	606	1021	0	0	0	0	
9	0	0	0	0	605	1021	0	0	0	0	
10	0	0	0	0	604	1021	0	0	0	0	
11	0	0	0	0	602	1021	0	0	0	0	
12	0	0	0	0	601	1021	0	0	0	0	
13	0	0	0	0	599	1021	0	0	0	0	
14	0	0	0	0	598	1021	0	0	0	0	
15	0	0	0	0	596	1021	0	0	0	0	
0	0	0	0	0	593	1022	0	0	0	0	
1	0	0	0	0	591	1021	0	0	0	0	
2	0	0	0	0	588	1021	0	0	0	0	
3	0	0	0	0	582	1022	0	0	0	0	
4	0	0	0	0	577	1021	0	0	0	0	
5	0	0	0	0	572	1022	0	0	0	0	
6	0	0	0	0	568	1021	0	0	0	0	
7	0	0	0	0	564	1021	0	0	0	0	
8	0	0	0	0	563	1021	0	0	0	0	
9	0	0	0	0	562	1021	0	0	0	0	
10	0	0	0	0	561	1022	0	0	0	0	
11	0	0	0	0	563	1021	0	0	0	0	
12	0	0	0	0	563	1021	0	0	0	0	
13	0	0	0	0	564	1021	0	0	0	0	
14	0	0	0	0	566	1021	0	0	0	0	
15	0	0	0	0	566	1021	0	0	0	0	
0	0	0	0	0	568	1021	0	0	0	0	
1	0	0	0	0	568	1021	0	0	0	0	
2	0	0	0	0	568	1021	0	0	0	0	
3	0	0	0	0	568	1021	0	0	0	0	
4	0	0	0	0	568	1021	0	0	0	0	
5	0	0	0	0	567	1021	0	0	0	0	
6	0	0	0	0	566	1021	0	0	0	0	
7	0	0	0	0	566	1021	0	0	0	0	
8	0	0	0	0	567	1021	1	0	0	0	
9	0	0	0	0	568	1022	0	0	0	0	
10	0	0	0	0	572	1021	0	0	0	0	
11	0	0	0	0	575	1021	0	0	0	0	
12	0	0	0	0	581	1021	0	0	0	0	
13	0	0	0	0	588	1021	0	0	0	0	
14	0	0	0	0	593	1022	0	0	0	0	
15	0	0	0	0	600	1021	0	0	0	0	
0	0	0	0	0	605	1021	0	0	0	0	
1	0	0	0	0	607	1021	0	0	0	0	
2	0	0	0	0	605	1022	0	0	0	0	
3	0	0	0	0	600	1022	0	0	0	0	
4	0	0	0	0	591	1021	0	0	0	0	
5	0	0	0	0	578	1021	0	0	0	0	
6	0	0	0	0	562	1021	0	0	0	0	
7	0	0	0	0	543	1021	0	0	0	0	
8	0	0	0	0	524	1021	0	0	0	0	
9	0	0	0	0	507	1021	0	0	0	0	
10	0	0	0	0	492	1021	0	0	0	0	
11	0	0	0	0	481	1021	0	0	0	0	
12	0	0	0	0	477	1021	0	0	0	0	
13	0	0	0	0	478	1022	0	0	0	0	
14	0	0	0	0	486	1021	0	0	0	0	
15	0	0	0	0	499	1021	0	0	0	0	
0	0	0	0	0	517	1021	0	0	0	0	
1	0	0	0	0	538	1021	0	0	0	0	
2	0	0	0	0	560	1021	0	0	0	0	
3	0	0	0	0	581	1021	0	0	0	0	
4	0	0	0	0	599	1021	0	0	0	0	
5	0	0	0	0	612	1021	0	0	0	0	
6	0	0	0	0	620	1022	0	0	0	0	
7	0	0	0	0	624	1022	0	0	0	0	
8	0	0	0	0	622	1021	0	0	0	0	
9	0	0	0	0	616	1021	0	0	0	0	
10	0	0	0	0	607	1021	0	0	0	0	
11	0	0	0	0	598	1021	0	0	0	0	
12	0	0	0	0	589	1022	0	0	0	0	
13	0	0	0	0	585	1021	0	0	0	0	
14	0	0	0	0	584	1021	0	0	0	0	
15	0	0	0	0	588	1021	0	0	0	0	
0	0	0	0	0	596	1022	0	0	0	0	
1	0	0	0	0	607	1021	0	0	0	0	
2	0	0	0	0	621	1021	0	0	0	0	
3	0	0	0	0	635	1021	0	0	0	0	
4	0	0	0	0	648	1021	0	0	0	0	
5	0	0	0	0	659	1021	0	0	0	0	
6	0	0	0	0	666	1022	0	0	0	0	
7	0	0	0	0	671	1021	0	0	0	0	
8	0	0	0	0	670	1021	0	0	0	0	
9	0	0	0	0	666	1022	0	0	0	0	
10	0	0	0	0	659	1022	0	0	0	0	
11	0	0	0	0	648	1022	0	0	0	0	
12	0	0	0	0	637	1021	0	0	0	0	
13	0	0	0	0	625	1021	0	0	0	0	
14	0	0	0	0	614	1021	0	0	0	0	
15	0	0	0	0	604	1022	0	0	0	0	
0	0	0	0	0	597	1021	0	0	0	0	
1	0	0	0	0	595	1021	0	0	0	0	
2	0	0	0	0	594	1021	0	0	0	0	
3	0	0	0	0	597	1021	0	0	0	0	
4	0	0	0	0	601	1022	0	0	0	0	
5	0	0	0	0	608	1021	0	0	0	0	
6	0	0	0	0	615	1021	0	0	0	0	
7	0	0	0	0	621	1021	0	0	0	0	
8	0	0	0	0	626	1021	0	0	0	0	
9	0	0	0	0	629	1022	0	0	0	0	
10	0	0	0	0	631	1021	0	0	0	0	
11	0	0	0	0	631	1021	0	0	0	0	
12	0	0	0	0	629	1021	0	0	0	0	
13	0	0	0	0	626	1021	0	0	0	0	
14	0	0	0	0	622	1022	0	0	0	0	
15	0	0	0	0	616	1022	0	0	0	0	
0	0	0	0	0	610	1021	0	0	0	0	
1	0	0	0	0	603	1021	0	0	0	0	
2	0	0	0	0	596	1021	0	0	0	0	
3	0	0	0	0	588	1021	0	0	0	0	
4	0	0	0	0	580	1021	0	0	0	0	
5	0	0	0	0	574	1021	0	0	0	0	
6	0	0	0	0	566	1021	0	0	0	0	
7	0	0	0	0	560	1021	0	0	0	0	
8	0	0	0	0	554	1022	0	0	0	0	
9	0	0	0	0	550	1021	0	0	0	0	
10	0	0	0	0	548	1021	0	0	0	0	
11	0	0	0	0	548	1021	0	0	0	0	
12	0	0	0	0	550	1021	0	0	0	0	
13	0	0	0	0	552	1022	0	0	0	0	
14	0	0	0	0	556	1021	0	0	0	0	
15	0	0	0	0	561	1021	0	0	0	0	
0	0	0	0	0	565	1021	0	0	0	0	
1	0	0	0	0	567	1021	0	0	0	0	
2	0	0	0	0	567	1022	0	0	0	0	
3	0	0	0	0	566	1022	0	0	0	0	
4	0	0	0	0	563	1021	0	0	0	0	
5	0	0	0	0	559	1021	0	0	0	0	
6	0	0	0	0	554	1021	0	0	0	0	
7	0	0	0	0	550	1021	0	0	0	0	
8	0	0	0	0	547	1022	0	0	0	0	
9	0	0	0	0	547	1021	0	0	0	0	
10	0	0	0	0	551	1021	0	0	0	0	
11	0	0	0	0	556	1021	0	0	0	0	
12	0	0	0	0	562	1021	0	0	0	0	
13	0	0	0	0	569	1021	0	0	0	0	
14	0	0	0	0	575	1021	0	0	0	0	
15	0	0	0	0	579	1021	0	0	0	0	
0	0	0	0	0	580	1022	0	0	0	0	
1	0	0	0	0	579	1021	0	0	0	0	
2	0	0	0	0	574	1022	0	0	0	0	
3	0	0	0	0	567	1021	0	0	0	0	
4	0	0	0	0	558	1021	0	0	0	0	
5	0	0	0	0	548	1021	0	0	0	0	
6	0	0	0	0	539	1022	0	0	0	0	
7	0	0	0	0	532	1022	0	0	0	0	
8	0	0	0	0	529	1021	0	0	0	0	
9	0	0	0	0	530	1021	0	0	0	0	
10	0	0	0	0	535	1022	0	0	0	0	
11	0	0	0	0	545	1021	0	0	0	0	
12	0	0	0	0	557	1022	0	0	0	0	
13	0	0	0	0	572	1021	0	0	0	0	
14	0	0	0	0	589	1021	0	0	0	0	
15	0	0	0	0	605	1021	0	0	0	0	
0	0	0	0	0	620	1022	0	0	0	0	
1	0	0	0	0	632	1022	0	0	0	0	
2	0	0	0	0	639	1021	0	0	0	0	
3	0	0	0	0	641	1021	0	0	0	0	
4	0	0	0	0	637	1021	0	0	0	0	
5	0	0	0	0	630	1021	0	0	0	0	
6	0	0	0	0	618	1021	0	0	0	0	
7	0	0	0	0	605	1021	0	0	0	0	
8	0	0	0	0	591	1021	0	0	0	0	
9	0	0	0	0	578	1021	0	0	0	0	
10	0	0	0	0	567	1021	0	0	0	0	
11	0	0	0	0	558	1022	0	0	0	0	
12	0	0	0	0	552	1021	0	0	0	0	
13	0	0	0	0	549	1021	0	0	0	0	
14	0	0	0	0	548	1021	0	0	0	0	
15	0	0	0	0	548	1022	0	0	0	0	
0	0	0	0	0	550	1022	0	0	0	0	
1	0	0	0	0	552	1021	0	0	0	0	
2	0	0	0	0	552	1021	0	0	0	0	
3	0	0	0	0	551	1021	0	0	0	0	
4	0	0	0	0	548	1021	0	0	0	0	
5	0	0	0	0	542	1022	0	0	0	0	
6	0	0	0	0	533	1021	0	0	0	0	
7	0	0	0	0	520	1021	0	0	0	0	
8	0	0	0	0	504	1021	0	0	0	0	
9	0	0	0	0	484	1022	0	0	0	0	
10	0	0	0	0	461	1022	0	0	0	0	
11	0	0	0	0	435	1021	0	0	0	0	
12	0	0	0	0	409	1021	0	0	0	0	
13	0	0	0	0	382	1021	0	0	0	0	
14	0	0	0	0	355	1021	0	0	0	0	
15	0	0	0	0	329	1022	0	0	0	0	
0	0	0	0	0	306	1021	0	0	0	0	
1	0	0	0	0	286	1021	0	0	0	0	
2	0	0	0	0	270	1021	0	0	0	0	
3	0	0	0	0	261	1021	0	0	0	0	
4	0	0	0	0	259	1021	0	0	0	0	
5	0	0	0	0	268	1021	0	0	0	0	
6	0	0	0	0	286	1021	0	0	0	0	
7	0	0	0	0	315	1021	0	0	0	0	
8	0	0	0	0	353	1021	0	0	0	0	
9	0	0	0	0	397	1021	0	0	0	0	
10	0	0	0	0	447	1021	0	0	0	0	
11	0	0	0	0	496	1021	0	0	0	0	
12	0	0	0	0	543	1021	0	0	0	0	
13	0	0	0	0	584	1021	0	0	0	0	
14	0	0	0	0	617	1021	0	0	0	0	
15	0	0	0	0	643	1021	0	0	0	0	
0	0	0	0	0	659	1021	0	0	0	0	
1	0	0	0	0	668	1021	0	0	0	0	
2	0	0	0	0	669	1021	0	0	0	0	
3	0	0	0	0	664	1022	0	0	0	0	
4	0	0	0	0	656	1021	0	0	0	0	
5	0	0	0	0	646	1021	0	0	0	0	
6	0	0	0	0	634	1021	0	0	0	0	
7	0	0	0	0	622	1021	0	0	0	0	
8	0	0	0	0	611	1021	0	0	0	0	
9	0	0	0	0	604	1021	0	0	0	0	
10	0	0	0	0	596	1021	0	0	0	0	
11	0	0	0	0	589	1021	0	0	0	0	
12	0	0	0	0	582	1021	0	0	0	0	
13	0	0	0	0	574	1022	0	0	0	0	
14	0	0	0	0	566	1021	0	0	0	0	
15	0	0	0	0	560	1021	0	0	0	0	
0	0	0	0	0	554	1021	0	0	0	0	
1	0	0	0	0	551	1021	0	0	0	0	
2	0	0	0	0	551	1021	0	0	0	0	
3	0	0	0	0	554	1021	0	0	0	0	
4	0	0	0	0	560	1021	0	0	0	0	
5	0	0	0	0	569	1021	0	0	0	0	
6	0	0	0	0	582	1022	0	0	0	0	
7	0	0	0	0	595	1021	0	0	0	0	
8	0	0	0	0	611	1021	0	0	0	0	
9	0	0	0	0	625	1021	0	0	0	0	
10	0	0	0	0	639	1021	0	0	0	0	
11	0	0	0	0	649	1021	0	0	0	0	
12	0	0	0	0	656	1022	0	0	0	0	
13	0	0	0	0	660	1021	0	0	0	0	
14	0	0	0	0	659	1021	0	0	0	0	
15	0	0	0	0	656	1021	0	0	0	0	
0	0	0	0	0	651	1021	0	0	0	0	
1	0	0	0	0	646	1022	0	0	0	0	
2	0	0	0	0	643	1021	0	0	0	0	
3	0	0	0	0	640	1021	0	0	0	0	
4	0	0	0	0	640	1021	0	0	0	0	
5	0	0	0	0	640	1021	0	0	0	0	
6	0	0	0	0	641	1022	0	0	0	0	
7	0	0	0	0	642	1021	0	0	0	0	
8	0	0	0	0	642	1021	0	0	0	0	
9	0	0	0	0	640	1021	0	0	0	0	
10	0	0	0	0	636	1022	0	0	0	0	
11	0	0	0	0	631	1022	0	0	0	0	
12	0	0	0	0	624	1021	0	0	0	0	
13	0	0	0	0	615	1021	0	0	0	0	
14	0	0	0	0	604	1021	0	0	0	0	
15	0	0	0	0	593	1021	0	0	0	0	
0	0	0	0	0	583	1021	0	0	0	0	
1	0	0	0	0	572	1021	0	0	0	0	
2	0	0	0	0	560	1021	0	0	0	0	
3	0	0	0	0	548	1021	0	0	0	0	
4	0	0	0	0	535	1022	0	0	0	0	
5	0	0	0	0	523	1022	0	0	0	0	
6	0	0	0	0	512	1021	0	0	0	0	
7	0	0	0	0	503	1021	0	0	0	0	
8	0	0	0	0	496	1021	0	0	0	0	
9	0	0	0	0	494	1021	0	0	0	0	
10	0	0	0	0	495	1021	0	0	0	0	
11	0	0	0	0	501	1021	0	0	0	0	
12	0	0	0	0	511	1021	0	0	0	0	
13	0	0	0	0	526	1021	0	0	0	0	
14	0	0	0	0	544	1022	0	0	0	0	
15	0	0	0	0	563	1021	0	0	0	0	
0	0	0	0	0	583	1021	0	0	0	0	
1	0	0	0	0	599	1021	0	0	0	0	
2	0	0	0	0	610	1021	0	0	0	0	
3	0	0	0	0	617	1021	0	0	0	0	
4	0	0	0	0	619	1021	0	0	0	0	
5	0	0	0	0	616	1021	0	0	0	0	
6	0	0	0	0	608	1021	0	0	0	0	
7	0	0	0	0	599	1021	0	0	0	0	
8	0	0	0	0	587	1022	0	0	0	0	
9	0	0	0	0	574	1021	0	0	0	0	
10	0	0	0	0	563	1021	0	0	0	0	
11	0	0	0	0	553	1021	0	0	0	0	
12	0	0	0	0	544	1021	0	0	0	0	
13	0	0	0	0	539	1021	0	0	0	0	
14	0	0	0	0	536	1021	0	0	0	0	
15	0	0	0	0	536	1021	0	0	0	0	
0	0	0	0	0	539	1021	0	0	0	0	
1	0	0	0	0	543	1021	0	0	0	0	
2	0	0	0	0	547	1021	0	0	0	0	
3	0	0	0	0	552	1021	0	0	0	0	
4	0	0	0	0	559	1021	0	0	0	0	
5	0	0	0	0	564	1021	0	0	0	0	
6	0	0	0	0	571	1021	0	0	0	0	
7	0	0	0	0	576	1021	0	0	0	0	
8	0	0	0	0	583	1021	0	0	0	0	
9	0	0	0	0	590	1021	0	0	0	0	
10	0	0	0	0	597	1021	0	0	0	0	
11	0	0	0	0	604	1021	0	0	0	0	
12	0	0	0	0	611	1022	0	0	0	0	
13	0	0	0	0	617	1021	0	0	0	0	
14	0	0	0	0	623	1021	0	0	0	0	
15	0	0	0	0	625	1021	0	0	0	0	
0	0	0	0	0	625	1021	0	0	0	0	
1	0	0	0	0	622	1022	0	0	0	0	
2	0	0	0	0	615	1021	0	0	0	0	
3	0	0	0	0	607	1021	0	0	0	0	
4	0	0	0	0	598	1021	0	0	0	0	
5	0	0	0	0	588	1021	0	0	0	0	
6	0	0	0	0	579	1021	0	0	0	0	
7	0	0	0	0	573	1021	0	0	0	0	
8	0	0	0	0	568	1021	0	0	0	0	
9	0	0	0	0	566	1021	0	0	0	0	
10	0	0	0	0	564	1021	0	0	0	0	
11	0	0	0	0	564	1022	0	0	0	0	
12	0	0	0	0	565	1021	0	0	0	0	
13	0	0	0	0	568	1021	0	0	0	0	
14	0	0	0	0	569	1021	0	0	0	0	
15	0	0	0	0	572	1021	0	0	0	0	
0	0	0	0	0	575	1022	0	0	0	0	
1	0	0	0	0	578	1021	0	0	0	0	
2	0	0	0	0	582	1021	0	0	0	0	
3	0	0	0	0	585	1021	0	0	0	0	
4	0	0	0	0	588	1021	0	0	0	0	
5	0	0	0	0	591	1021	0	0	0	0	
6	0	0	0	0	595	1022	0	0	0	0	
7	0	0	0	0	598	1021	0	0	0	0	
8	0	0	0	0	600	1021	0	0	0	0	
9	0	0	0	0	602	1021	0	0	0	0	
10	0	0	0	0	601	1022	0	0	0	0	
11	0	0	0	0	601	1022	0	0	0	0	
12	0	0	0	0	599	1021	0	0	0	0	
13	0	0	0	0	596	1021	0	0	0	0	
14	0	0	0	0	593	1021	0	0	0	0	
15	0	0	0	0	588	1022	0	0	0	0	
0	0	0	0	0	584	1022	0	0	0	0	
1	0	0	0	0	581	1021	0	0	0	0	
2	0	0	0	0	578	1021	0	0	0	0	
3	0	0	0	0	575	1021	0	0	0	0	
4	0	0	0	0	573	1021	0	0	0	0	
5	0	0	0	0	572	1022	0	0	0	0	
6	0	0	0	0	572	1021	0	0	0	0	
7	0	0	0	0	572	1021	0	0	0	0	
8	0	0	0	0	572	1021	0	0	0	0	
9	0	0	0	0	572	1021	0	0	0	0	
10	0	0	0	0	570	1022	0	0	0	0	
11	0	0	0	0	569	1021	0	0	0	0	
12	0	0	0	0	568	1021	0	0	0	0	
13	0	0	0	0	568	1022	0	0	0	0	
14	0	0	0	0	568	1021	0	0	0	0	
15	0	0	0	0	566	1022	0	0	0	0	
