# OpenSignals Text File Format. Version 1
# {"": {"position": 0, "device": "", "device name": "", "device connection": "", "sampling rate": 1000, "resolution": [4, 1, 1, 1, 1, 10, 10, 10, 10, 6, 6], "firmware version": 1281, "comments": "", "keywords": "", "mode": 0, "sync interval": 2, "date": "", "time": "", "channels": [1, 2, 3, 4, 5, 6], "sensor": ["RAW", "RAW", "RAW", "RAW", "RAW", "RAW"], "label": ["A1", "A2", "A3", "A4", "A5", "A6"], "column": ["nSeq", "I1", "I2", "O1", "O2", "A1", "A2", "A3", "A4", "A5", "A6"], "special": [{}, {}, {}, {}, {}, {}], "digital IO": [0, 0, 1, 1], "convertedValues": 0}}
# EndOfHeader
0	0	0	0	0	566	492	0	0	0	0	
1	0	0	0	0	584	499	0	0	0	0	
2	0	0	0	0	601	506	0	0	0	0	
3	0	0	0	0	617	512	0	0	0	0	
4	0	0	0	0	627	518	0	0	0	0	
5	0	0	0	0	633	520	0	0	0	0	
6	0	0	0	0	634	520	0	0	0	0	
7	0	0	0	0	629	518	0	0	0	0	
8	0	0	0	0	620	513	0	0	0	0	
9	0	0	0	0	606	507	0	0	0	0	
10	0	0	0	0	591	499	0	0	0	0	
11	0	0	0	0	574	490	0	0	0	0	
12	0	0	0	0	556	481	0	0	0	0	
13	0	0	0	0	539	473	0	0	0	0	
14	0	0	0	0	523	467	0	0	0	0	
15	0	0	0	0	510	463	0	0	0	0	
0	0	0	0	0	502	460	0	0	0	0	
1	0	0	0	0	498	461	0	0	0	0	
2	0	0	0	0	499	464	0	0	0	0	
3	0	0	0	0	506	469	0	0	0	0	
4	0	0	0	0	515	476	0	0	0	0	
5	0	0	0	0	528	483	0	0	0	0	
6	0	0	0	0	540	491	0	0	0	0	
7	0	0	0	0	552	497	0	0	0	0	
8	0	0	0	0	563	502	0	0	0	0	
9	0	0	0	0	571	505	0	0	0	0	
10	0	0	0	0	576	508	0	0	0	0	
11	0	0	0	0	579	508	0	0	0	0	
12	0	0	0	0	580	507	0	0	0	0	
13	0	0	0	0	578	505	0	0	0	0	
14	0	0	0	0	575	502	0	0	0	0	
15	0	0	0	0	571	498	0	0	0	0	
0	0	0	0	0	564	493	0	0	0	0	
1	0	0	0	0	558	487	0	0	0	0	
2	0	0	0	0	549	482	0	0	0	0	
3	0	0	0	0	540	477	0	0	0	0	
4	0	0	0	0	530	473	0	0	0	0	
5	0	0	0	0	522	471	0	0	0	0	
6	0	0	0	0	516	470	0	0	0	0	
7	0	0	0	0	513	471	0	0	0	0	
8	0	0	0	0	513	471	0	0	0	0	
9	0	0	0	0	515	473	0	0	0	0	
10	0	0	0	0	521	476	0	0	0	0	
11	0	0	0	0	528	479	0	0	0	0	
12	0	0	0	0	537	483	0	0	0	0	
13	0	0	0	0	546	486	0	0	0	0	
14	0	0	0	0	555	490	0	0	0	0	
15	0	0	0	0	562	493	0	0	0	0	
0	0	0	0	0	568	496	0	0	0	0	
1	0	0	0	0	570	497	0	0	0	0	
2	0	0	0	0	571	497	0	0	0	0	
3	0	0	0	0	569	496	0	0	0	0	
4	0	0	0	0	567	495	0	0	0	0	
5	0	0	0	0	564	492	0	0	0	0	
6	0	0	0	0	562	488	0	0	0	0	
7	0	0	0	0	560	484	0	0	0	0	
8	0	0	0	0	559	480	0	0	0	0	
9	0	0	0	0	557	476	0	0	0	0	
10	0	0	0	0	555	472	0	0	0	0	
11	0	0	0	0	553	468	0	0	0	0	
12	0	0	0	0	550	465	0	0	0	0	
13	0	0	0	0	547	463	0	0	0	0	
14	0	0	0	0	543	460	0	0	0	0	
15	0	0	0	0	539	459	0	0	0	0	
0	0	0	0	0	534	457	0	0	0	0	
1	0	0	0	0	528	455	0	0	0	0	
2	0	0	0	0	522	453	0	0	0	0	
3	0	0	0	0	516	452	0	0	0	0	
4	0	0	0	0	511	452	0	0	0	0	
5	0	0	0	0	507	453	0	0	0	0	
6	0	0	0	0	505	455	0	0	0	0	
7	0	0	0	0	505	459	0	0	0	0	
8	0	0	0	0	508	463	0	0	0	0	
9	0	0	0	0	513	468	0	0	0	0	
10	0	0	0	0	520	474	0	0	0	0	
11	0	0	0	0	528	480	0	0	0	0	
12	0	0	0	0	537	486	0	0	0	0	
13	0	0	0	0	545	491	0	0	0	0	
14	0	0	0	0	552	495	0	0	0	0	
15	0	0	0	0	559	497	0	0	0	0	
0	0	0	0	0	563	498	0	0	0	0	
1	0	0	0	0	566	498	0	0	0	0	
2	0	0	0	0	567	496	0	0	0	0	
3	0	0	0	0	565	494	0	0	0	0	
4	0	0	0	0	563	492	0	0	0	0	
5	0	0	0	0	559	489	0	0	0	0	
6	0	0	0	0	555	487	0	0	0	0	
7	0	0	0	0	551	484	0	0	0	0	
8	0	0	0	0	547	483	0	0	0	0	
9	0	0	0	0	546	482	0	0	0	0	
10	0	0	0	0	546	481	0	0	0	0	
11	0	0	0	0	547	481	0	0	0	0	
12	0	0	0	0	550	480	0	0	0	0	
13	0	0	0	0	551	480	0	0	0	0	
14	0	0	0	0	552	479	0	0	0	0	
15	0	0	0	0	553	478	0	0	0	0	
0	0	0	0	0	552	477	0	0	0	0	
1	0	0	0	0	551	477	0	0	0	0	
2	0	0	0	0	550	477	0	0	0	0	
3	0	0	0	0	547	478	0	0	0	0	
4	0	0	0	0	544	480	0	0	0	0	
5	0	0	0	0	541	483	0	0	0	0	
6	0	0	0	0	537	485	0	0	0	0	
7	0	0	0	0	534	487	0	0	0	0	
8	0	0	0	0	531	490	0	0	0	0	
9	0	0	0	0	529	492	0	0	0	0	
10	0	0	0	0	529	494	0	0	0	0	
11	0	0	0	0	530	495	0	0	0	0	
12	0	0	0	0	531	494	0	0	0	0	
13	0	0	0	0	533	492	0	0	0	0	
14	0	0	0	0	535	490	0	0	0	0	
15	0	0	0	0	537	486	0	0	0	0	
0	0	0	0	0	540	482	0	0	0	0	
1	0	0	0	0	541	477	0	0	0	0	
2	0	0	0	0	543	472	0	0	0	0	
3	0	0	0	0	545	467	0	0	0	0	
4	0	0	0	0	547	462	0	0	0	0	
5	0	0	0	0	548	459	0	0	0	0	
6	0	0	0	0	549	455	0	0	0	0	
7	0	0	0	0	550	453	0	0	0	0	
8	0	0	0	0	551	452	0	0	0	0	
9	0	0	0	0	551	453	0	0	0	0	
10	0	0	0	0	552	455	0	0	0	0	
11	0	0	0	0	553	457	0	0	0	0	
12	0	0	0	0	554	461	0	0	0	0	
13	0	0	0	0	555	466	0	0	0	0	
14	0	0	0	0	557	472	0	0	0	0	
15	0	0	0	0	559	477	0	0	0	0	
0	0	0	0	0	561	483	0	0	0	0	
1	0	0	0	0	562	487	0	0	0	0	
2	0	0	0	0	564	492	0	0	0	0	
3	0	0	0	0	566	495	0	0	0	0	
4	0	0	0	0	567	497	0	0	0	0	
5	0	0	0	0	569	498	0	0	0	0	
6	0	0	0	0	571	499	0	0	0	0	
7	0	0	0	0	572	498	0	0	0	0	
8	0	0	0	0	573	497	0	0	0	0	
9	0	0	0	0	572	495	0	0	0	0	
10	0	0	0	0	570	492	0	0	0	0	
11	0	0	0	0	568	489	0	0	0	0	
12	0	0	0	0	567	487	0	0	0	0	
13	0	0	0	0	566	486	0	0	0	0	
14	0	0	0	0	564	485	0	0	0	0	
15	0	0	0	0	562	484	0	0	0	0	
0	0	0	0	0	559	484	0	0	0	0	
1	0	0	0	0	555	484	0	0	0	0	
2	0	0	0	0	550	485	0	0	0	0	
3	0	0	0	0	544	485	0	0	0	0	
4	0	0	0	0	538	484	0	0	0	0	
5	0	0	0	0	531	483	0	0	0	0	
6	0	0	0	0	525	481	0	0	0	0	
7	0	0	0	0	518	479	0	0	0	0	
8	0	0	0	0	512	476	0	0	0	0	
9	0	0	0	0	508	473	0	0	0	0	
10	0	0	0	0	504	469	0	0	0	0	
11	0	0	0	0	501	466	0	0	0	0	
12	0	0	0	0	499	464	0	0	0	0	
13	0	0	0	0	499	461	0	0	0	0	
14	0	0	0	0	499	459	0	0	0	0	
15	0	0	0	0	501	457	0	0	0	0	
0	0	0	0	0	503	455	0	0	0	0	
1	0	0	0	0	504	451	0	0	0	0	
2	0	0	0	0	505	446	0	0	0	0	
3	0	0	0	0	506	440	0	0	0	0	
4	0	0	0	0	506	432	0	0	0	0	
5	0	0	0	0	504	422	0	0	0	0	
6	0	0	0	0	501	412	0	0	0	0	
7	0	0	0	0	495	399	0	0	0	0	
8	0	0	0	0	485	386	0	0	0	0	
9	0	0	0	0	472	372	0	0	0	0	
10	0	0	0	0	457	356	0	0	0	0	
11	0	0	0	0	438	342	0	0	0	0	
12	0	0	0	0	418	326	0	0	0	0	
13	0	0	0	0	396	311	0	0	0	0	
14	0	0	0	0	374	295	0	0	0	0	
15	0	0	0	0	352	281	0	0	0	0	
0	0	0	0	0	332	268	0	0	0	0	
1	0	0	0	0	312	255	0	0	0	0	
2	0	0	0	0	294	243	0	0	0	0	
3	0	0	0	0	277	234	0	0	0	0	
4	0	0	0	0	264	226	0	0	0	0	
5	0	0	0	0	255	222	0	0	0	0	
6	0	0	0	0	250	220	0	0	0	0	
7	0	0	0	0	252	220	0	0	0	0	
8	0	0	0	0	258	224	0	0	0	0	
9	0	0	0	0	271	231	0	0	0	0	
10	0	0	0	0	289	242	0	0	0	0	
11	0	0	0	0	311	255	0	0	0	0	
12	0	0	0	0	335	270	0	0	0	0	
13	0	0	0	0	363	287	0	0	0	0	
14	0	0	0	0	390	305	0	0	0	0	
15	0	0	0	0	418	324	0	0	0	0	
0	0	0	0	0	445	343	0	0	0	0	
1	0	0	0	0	470	361	0	0	0	0	
2	0	0	0	0	494	380	0	0	0	0	
3	0	0	0	0	516	399	0	0	0	0	
4	0	0	0	0	535	418	0	0	0	0	
5	0	0	0	0	551	436	0	0	0	0	
6	0	0	0	0	564	454	0	0	0	0	
7	0	0	0	0	575	472	0	0	0	0	
8	0	0	0	0	582	487	0	0	0	0	
9	0	0	0	0	588	502	0	0	0	0	
10	0	0	0	0	592	515	0	0	0	0	
11	0	0	0	0	595	524	0	0	0	0	
12	0	0	0	0	597	531	0	0	0	0	
13	0	0	0	0	597	534	0	0	0	0	
14	0	0	0	0	596	534	0	0	0	0	
15	0	0	0	0	593	530	0	0	0	0	
0	0	0	0	0	588	523	0	0	0	0	
1	0	0	0	0	581	515	0	0	0	0	
2	0	0	0	0	573	505	0	0	0	0	
3	0	0	0	0	566	496	0	0	0	0	
4	0	0	0	0	559	488	0	0	0	0	
5	0	0	0	0	553	483	0	0	0	0	
6	0	0	0	0	551	480	0	0	0	0	
7	0	0	0	0	549	479	0	0	0	0	
8	0	0	0	0	550	481	0	0	0	0	
9	0	0	0	0	553	483	0	0	0	0	
10	0	0	0	0	556	487	0	0	0	0	
11	0	0	0	0	560	492	0	0	0	0	
12	0	0	0	0	564	496	0	0	0	0	
13	0	0	0	0	568	500	0	0	0	0	
14	0	0	0	0	570	503	0	0	0	0	
15	0	0	0	0	571	504	0	0	0	0	
0	0	0	0	0	570	504	0	0	0	0	
1	0	0	0	0	568	503	0	0	0	0	
2	0	0	0	0	564	500	0	0	0	0	
3	0	0	0	0	560	496	0	0	0	0	
4	0	0	0	0	554	492	0	0	0	0	
5	0	0	0	0	547	486	0	0	0	0	
6	0	0	0	0	541	481	0	0	0	0	
7	0	0	0	0	535	477	0	0	0	0	
8	0	0	0	0	529	473	0	0	0	0	
9	0	0	0	0	525	472	0	0	0	0	
10	0	0	0	0	522	471	0	0	0	0	
11	0	0	0	0	523	472	0	0	0	0	
12	0	0	0	0	527	475	0	0	0	0	
13	0	0	0	0	534	480	0	0	0	0	
14	0	0	0	0	545	486	0	0	0	0	
15	0	0	0	0	558	493	0	0	0	0	
0	0	0	0	0	571	501	0	0	0	0	
1	0	0	0	0	584	509	0	0	0	0	
2	0	0	0	0	595	516	0	0	0	0	
3	0	0	0	0	602	521	0	0	0	0	
4	0	0	0	0	606	526	0	0	0	0	
5	0	0	0	0	607	528	0	0	0	0	
6	0	0	0	0	604	529	0	0	0	0	
7	0	0	0	0	600	528	0	0	0	0	
8	0	0	0	0	595	525	0	0	0	0	
9	0	0	0	0	590	520	0	0	0	0	
10	0	0	0	0	584	515	0	0	0	0	
11	0	0	0	0	581	509	0	0	0	0	
12	0	0	0	0	577	503	0	0	0	0	
13	0	0	0	0	574	496	0	0	0	0	
14	0	0	0	0	571	491	0	0	0	0	
15	0	0	0	0	568	486	0	0	0	0	
0	0	0	0	0	563	483	0	0	0	0	
1	0	0	0	0	560	481	0	0	0	0	
2	0	0	0	0	556	480	0	0	0	0	
3	0	0	0	0	552	481	0	0	0	0	
4	0	0	0	0	550	484	0	0	0	0	
5	0	0	0	0	549	487	0	0	0	0	
6	0	0	0	0	548	491	0	0	0	0	
7	0	0	0	0	549	495	0	0	0	0	
8	0	0	0	0	551	499	0	0	0	0	
9	0	0	0	0	555	503	0	0	0	0	
10	0	0	0	0	560	507	0	0	0	0	
11	0	0	0	0	566	509	0	0	0	0	
12	0	0	0	0	573	512	0	0	0	0	
13	0	0	0	0	580	513	0	0	0	0	
14	0	0	0	0	587	513	0	0	0	0	
15	0	0	0	0	592	513	0	0	0	0	
0	0	0	0	0	595	511	0	0	0	0	
1	0	0	0	0	594	508	0	0	0	0	
2	0	0	0	0	591	504	0	0	0	0	
3	0	0	0	0	586	501	0	0	0	0	
4	0	0	0	0	579	498	0	0	0	0	
5	0	0	0	0	572	495	0	0	0	0	
6	0	0	0	0	565	492	0	0	0	0	
7	0	0	0	0	558	490	0	0	0	0	
8	0	0	0	0	552	488	0	0	0	0	
9	0	0	0	0	547	487	0	0	0	0	
10	0	0	0	0	541	486	0	0	0	0	
11	0	0	0	0	535	485	0	0	0	0	
12	0	0	0	0	529	485	0	0	0	0	
13	0	0	0	0	524	485	0	0	0	0	
14	0	0	0	0	520	486	0	0	0	0	
15	0	0	0	0	519	488	0	0	0	0	
0	0	0	0	0	519	490	0	0	0	0	
1	0	0	0	0	523	493	0	0	0	0	
2	0	0	0	0	529	496	0	0	0	0	
3	0	0	0	0	537	499	0	0	0	0	
4	0	0	0	0	547	503	0	0	0	0	
5	0	0	0	0	557	506	0	0	0	0	
6	0	0	0	0	568	507	0	0	0	0	
7	0	0	0	0	579	508	0	0	0	0	
8	0	0	0	0	591	508	0	0	0	0	
9	0	0	0	0	604	505	0	0	0	0	
10	0	0	0	0	615	503	0	0	0	0	
11	0	0	0	0	626	501	0	0	0	0	
12	0	0	0	0	635	498	0	0	0	0	
13	0	0	0	0	638	495	0	0	0	0	
14	0	0	0	0	637	491	0	0	0	0	
15	0	0	0	0	629	487	0	0	0	0	
0	0	0	0	0	616	483	0	0	0	0	
1	0	0	0	0	600	480	0	0	0	0	
2	0	0	0	0	581	477	0	0	0	0	
3	0	0	0	0	561	474	0	0	0	0	
4	0	0	0	0	542	471	0	0	0	0	
5	0	0	0	0	526	469	0	0	0	0	
6	0	0	0	0	513	468	0	0	0	0	
7	0	0	0	0	505	467	0	0	0	0	
8	0	0	0	0	502	467	0	0	0	0	
9	0	0	0	0	503	469	0	0	0	0	
10	0	0	0	0	508	470	0	0	0	0	
11	0	0	0	0	516	471	0	0	0	0	
12	0	0	0	0	526	473	0	0	0	0	
13	0	0	0	0	536	477	0	0	0	0	
14	0	0	0	0	545	480	0	0	0	0	
15	0	0	0	0	553	484	0	0	0	0	
0	0	0	0	0	559	488	0	0	0	0	
1	0	0	0	0	561	494	0	0	0	0	
2	0	0	0	0	562	498	0	0	0	0	
3	0	0	0	0	561	502	0	0	0	0	
4	0	0	0	0	559	505	0	0	0	0	
5	0	0	0	0	556	507	0	0	0	0	
6	0	0	0	0	551	508	0	0	0	0	
7	0	0	0	0	547	507	0	0	0	0	
8	0	0	0	0	543	505	0	0	0	0	
9	0	0	0	0	539	502	0	0	0	0	
10	0	0	0	0	535	499	0	0	0	0	
11	0	0	0	0	532	495	0	0	0	0	
12	0	0	0	0	530	491	0	0	0	0	
13	0	0	0	0	530	487	0	0	0	0	
14	0	0	0	0	531	483	0	0	0	0	
15	0	0	0	0	532	479	0	0	0	0	
0	0	0	0	0	534	475	0	0	0	0	
1	0	0	0	0	536	472	0	0	0	0	
2	0	0	0	0	539	469	0	0	0	0	
3	0	0	0	0	541	467	0	0	0	0	
4	0	0	0	0	544	467	0	0	0	0	
5	0	0	0	0	549	467	0	0	0	0	
6	0	0	0	0	553	469	0	0	0	0	
7	0	0	0	0	558	472	0	0	0	0	
8	0	0	0	0	562	476	0	0	0	0	
9	0	0	0	0	565	479	0	0	0	0	
10	0	0	0	0	568	483	0	0	0	0	
11	0	0	0	0	569	487	0	0	0	0	
12	0	0	0	0	571	491	0	0	0	0	
13	0	0	0	0	571	493	0	0	0	0	
14	0	0	0	0	571	496	0	0	0	0	
15	0	0	0	0	569	497	0	0	0	0	
0	0	0	0	0	567	496	0	0	0	0	
1	0	0	0	0	564	495	0	0	0	0	
2	0	0	0	0	559	493	0	0	0	0	
3	0	0	0	0	555	491	0	0	0	0	
4	0	0	0	0	550	489	0	0	0	0	
5	0	0	0	0	546	487	0	0	0	0	
6	0	0	0	0	542	485	0	0	0	0	
7	0	0	0	0	539	483	0	0	0	0	
8	0	0	0	0	537	482	0	0	0	0	
9	0	0	0	0	537	483	0	0	0	0	
10	0	0	0	0	540	483	0	0	0	0	
11	0	0	0	0	544	485	0	0	0	0	
12	0	0	0	0	551	487	0	0	0	0	
13	0	0	0	0	560	490	0	0	0	0	
14	0	0	0	0	570	493	0	0	0	0	
15	0	0	0	0	579	495	0	0	0	0	
0	0	0	0	0	586	497	0	0	0	0	
1	0	0	0	0	589	496	0	0	0	0	
2	0	0	0	0	589	495	0	0	0	0	
3	0	0	0	0	583	492	0	0	0	0	
4	0	0	0	0	573	488	0	0	0	0	
5	0	0	0	0	560	483	0	0	0	0	
6	0	0	0	0	545	478	0	0	0	0	
7	0	0	0	0	530	472	0	0	0	0	
8	0	0	0	0	517	469	0	0	0	0	
9	0	0	0	0	507	466	0	0	0	0	
10	0	0	0	0	501	465	0	0	0	0	
11	0	0	0	0	498	465	0	0	0	0	
12	0	0	0	0	499	466	0	0	0	0	
13	0	0	0	0	502	468	0	0	0	0	
14	0	0	0	0	507	469	0	0	0	0	
15	0	0	0	0	513	471	0	0	0	0	
0	0	0	0	0	519	472	0	0	0	0	
1	0	0	0	0	525	473	0	0	0	0	
2	0	0	0	0	530	474	0	0	0	0	
3	0	0	0	0	535	476	0	0	0	0	
4	0	0	0	0	540	478	0	0	0	0	
5	0	0	0	0	544	480	0	0	0	0	
6	0	0	0	0	549	483	0	0	0	0	
7	0	0	0	0	556	486	0	0	0	0	
8	0	0	0	0	564	489	0	0	0	0	
9	0	0	0	0	575	492	0	0	0	0	
10	0	0	0	0	584	496	0	0	0	0	
11	0	0	0	0	593	498	0	0	0	0	
12	0	0	0	0	600	501	0	0	0	0	
13	0	0	0	0	604	502	0	0	0	0	
14	0	0	0	0	605	502	0	0	0	0	
15	0	0	0	0	603	501	0	0	0	0	
0	0	0	0	0	597	499	0	0	0	0	
1	0	0	0	0	588	496	0	0	0	0	
2	0	0	0	0	576	491	0	0	0	0	
3	0	0	0	0	563	486	0	0	0	0	
4	0	0	0	0	548	480	0	0	0	0	
5	0	0	0	0	534	473	0	0	0	0	
6	0	0	0	0	521	467	0	0	0	0	
7	0	0	0	0	510	462	0	0	0	0	
8	0	0	0	0	502	457	0	0	0	0	
9	0	0	0	0	496	453	0	0	0	0	
10	0	0	0	0	493	450	0	0	0	0	
11	0	0	0	0	493	449	0	0	0	0	
12	0	0	0	0	495	448	0	0	0	0	
13	0	0	0	0	500	449	0	0	0	0	
14	0	0	0	0	506	451	0	0	0	0	
15	0	0	0	0	513	454	0	0	0	0	
0	0	0	0	0	521	459	0	0	0	0	
1	0	0	0	0	530	464	0	0	0	0	
2	0	0	0	0	538	470	0	0	0	0	
3	0	0	0	0	545	476	0	0	0	0	
4	0	0	0	0	552	483	0	0	0	0	
5	0	0	0	0	559	489	0	0	0	0	
6	0	0	0	0	564	494	0	0	0	0	
7	0	0	0	0	568	498	0	0	0	0	
8	0	0	0	0	570	501	0	0	0	0	
9	0	0	0	0	569	502	0	0	0	0	
10	0	0	0	0	567	503	0	0	0	0	
11	0	0	0	0	562	501	0	0	0	0	
12	0	0	0	0	557	499	0	0	0	0	
13	0	0	0	0	551	497	0	0	0	0	
14	0	0	0	0	546	494	0	0	0	0	
15	0	0	0	0	543	491	0	0	0	0	
0	0	0	0	0	541	488	0	0	0	0	
1	0	0	0	0	542	486	0	0	0	0	
2	0	0	0	0	544	484	0	0	0	0	
3	0	0	0	0	548	483	0	0	0	0	
4	0	0	0	0	553	483	0	0	0	0	
5	0	0	0	0	559	482	0	0	0	0	
6	0	0	0	0	563	482	0	0	0	0	
7	0	0	0	0	567	483	0	0	0	0	
8	0	0	0	0	568	483	0	0	0	0	
9	0	0	0	0	567	483	0	0	0	0	
10	0	0	0	0	564	483	0	0	0	0	
11	0	0	0	0	560	483	0	0	0	0	
12	0	0	0	0	556	483	0	0	0	0	
13	0	0	0	0	551	481	0	0	0	0	
14	0	0	0	0	545	481	0	0	0	0	
15	0	0	0	0	542	480	0	0	0	0	
0	0	0	0	0	538	478	0	0	0	0	
1	0	0	0	0	535	477	0	0	0	0	
2	0	0	0	0	531	475	0	0	0	0	
3	0	0	0	0	528	473	0	0	0	0	
4	0	0	0	0	526	472	0	0	0	0	
5	0	0	0	0	524	472	0	0	0	0	
6	0	0	0	0	522	471	0	0	0	0	
7	0	0	0	0	521	472	0	0	0	0	
8	0	0	0	0	522	473	0	0	0	0	
9	0	0	0	0	524	475	0	0	0	0	
10	0	0	0	0	527	478	0	0	0	0	
11	0	0	0	0	532	483	0	0	0	0	
12	0	0	0	0	539	488	0	0	0	0	
13	0	0	0	0	548	494	0	0	0	0	
14	0	0	0	0	558	501	0	0	0	0	
15	0	0	0	0	568	507	0	0	0	0	
0	0	0	0	0	579	512	0	0	0	0	
1	0	0	0	0	590	516	0	0	0	0	
2	0	0	0	0	599	519	0	0	0	0	
3	0	0	0	0	606	521	0	0	0	0	
4	0	0	0	0	611	520	0	0	0	0	
5	0	0	0	0	612	519	0	0	0	0	
6	0	0	0	0	609	515	0	0	0	0	
7	0	0	0	0	603	511	0	0	0	0	
8	0	0	0	0	594	505	0	0	0	0	
9	0	0	0	0	583	499	0	0	0	0	
10	0	0	0	0	569	492	0	0	0	0	
11	0	0	0	0	556	486	0	0	0	0	
12	0	0	0	0	543	481	0	0	0	0	
13	0	0	0	0	533	478	0	0	0	0	
14	0	0	0	0	524	476	0	0	0	0	
15	0	0	0	0	518	477	0	0	0	0	
0	0	0	0	0	515	479	0	0	0	0	
1	0	0	0	0	513	482	0	0	0	0	
2	0	0	0	0	515	486	0	0	0	0	
3	0	0	0	0	517	489	0	0	0	0	
4	0	0	0	0	520	492	0	0	0	0	
5	0	0	0	0	524	495	0	0	0	0	
6	0	0	0	0	530	497	0	0	0	0	
7	0	0	0	0	536	497	0	0	0	0	
8	0	0	0	0	542	499	0	0	0	0	
9	0	0	0	0	548	498	0	0	0	0	
10	0	0	0	0	554	498	0	0	0	0	
11	0	0	0	0	559	498	0	0	0	0	
12	0	0	0	0	561	497	0	0	0	0	
13	0	0	0	0	563	496	0	0	0	0	
14	0	0	0	0	563	495	0	0	0	0	
15	0	0	0	0	561	494	0	0	0	0	
0	0	0	0	0	560	492	0	0	0	0	
1	0	0	0	0	558	491	0	0	0	0	
2	0	0	0	0	556	490	0	0	0	0	
3	0	0	0	0	556	489	0	0	0	0	
4	0	0	0	0	556	488	0	0	0	0	
5	0	0	0	0	558	489	0	0	0	0	
6	0	0	0	0	561	488	0	0	0	0	
7	0	0	0	0	564	488	0	0	0	0	
8	0	0	0	0	568	488	0	0	0	0	
9	0	0	0	0	573	488	0	0	0	0	
10	0	0	0	0	575	487	0	0	0	0	
11	0	0	0	0	576	485	0	0	0	0	
12	0	0	0	0	574	482	0	0	0	0	
13	0	0	0	0	569	478	0	0	0	0	
14	0	0	0	0	562	473	0	0	0	0	
15	0	0	0	0	552	468	0	0	0	0	
0	0	0	0	0	540	463	0	0	0	0	
1	0	0	0	0	527	457	0	0	0	0	
2	0	0	0	0	515	452	0	0	0	0	
3	0	0	0	0	503	449	0	0	0	0	
4	0	0	0	0	491	448	0	0	0	0	
5	0	0	0	0	482	448	0	0	0	0	
6	0	0	0	0	478	451	0	0	0	0	
7	0	0	0	0	477	457	0	0	0	0	
8	0	0	0	0	481	465	0	0	0	0	
9	0	0	0	0	490	475	0	0	0	0	
10	0	0	0	0	504	486	0	0	0	0	
11	0	0	0	0	521	497	0	0	0	0	
12	0	0	0	0	542	508	0	0	0	0	
13	0	0	0	0	565	517	0	0	0	0	
14	0	0	0	0	588	525	0	0	0	0	
15	0	0	0	0	608	529	0	0	0	0	
0	0	0	0	0	624	532	0	0	0	0	
1	0	0	0	0	637	531	0	0	0	0	
2	0	0	0	0	644	528	0	0	0	0	
3	0	0	0	0	645	523	0	0	0	0	
4	0	0	0	0	641	515	0	0	0	0	
5	0	0	0	0	632	506	0	0	0	0	
6	0	0	0	0	618	497	0	0	0	0	
7	0	0	0	0	602	489	0	0	0	0	
8	0	0	0	0	585	482	0	0	0	0	
9	0	0	0	0	569	476	0	0	0	0	
10	0	0	0	0	555	473	0	0	0	0	
11	0	0	0	0	544	472	0	0	0	0	
12	0	0	0	0	537	474	0	0	0	0	
13	0	0	0	0	535	478	0	0	0	0	
14	0	0	0	0	535	482	0	0	0	0	
15	0	0	0	0	538	487	0	0	0	0	
0	0	0	0	0	543	494	0	0	0	0	
1	0	0	0	0	550	499	0	0	0	0	
2	0	0	0	0	558	504	0	0	0	0	
3	0	0	0	0	565	508	0	0	0	0	
4	0	0	0	0	572	510	0	0	0	0	
5	0	0	0	0	576	511	0	0	0	0	
6	0	0	0	0	578	510	0	0	0	0	
7	0	0	0	0	577	507	0	0	0	0	
8	0	0	0	0	575	503	0	0	0	0	
9	0	0	0	0	570	498	0	0	0	0	
10	0	0	0	0	562	492	0	0	0	0	
11	0	0	0	0	552	487	0	0	0	0	
12	0	0	0	0	542	482	0	0	0	0	
13	0	0	0	0	531	478	0	0	0	0	
14	0	0	0	0	520	475	0	0	0	0	
15	0	0	0	0	512	473	0	0	0	0	
0	0	0	0	0	506	473	0	0	0	0	
1	0	0	0	0	503	474	0	0	0	0	
2	0	0	0	0	504	476	0	0	0	0	
3	0	0	0	0	508	480	0	0	0	0	
4	0	0	0	0	515	484	0	0	0	0	
5	0	0	0	0	524	489	0	0	0	0	
6	0	0	0	0	536	494	0	0	0	0	
7	0	0	0	0	548	497	0	0	0	0	
8	0	0	0	0	559	499	0	0	0	0	
9	0	0	0	0	568	500	0	0	0	0	
10	0	0	0	0	575	499	0	0	0	0	
11	0	0	0	0	579	497	0	0	0	0	
12	0	0	0	0	582	493	0	0	0	0	
13	0	0	0	0	582	488	0	0	0	0	
14	0	0	0	0	580	484	0	0	0	0	
15	0	0	0	0	577	480	0	0	0	0	
0	0	0	0	0	572	476	0	0	0	0	
1	0	0	0	0	567	473	0	0	0	0	
2	0	0	0	0	562	473	0	0	0	0	
3	0	0	0	0	558	472	0	0	0	0	
4	0	0	0	0	556	474	0	0	0	0	
5	0	0	0	0	556	478	0	0	0	0	
6	0	0	0	0	559	482	0	0	0	0	
7	0	0	0	0	563	487	0	0	0	0	
8	0	0	0	0	569	492	0	0	0	0	
9	0	0	0	0	575	496	0	0	0	0	
10	0	0	0	0	578	499	0	0	0	0	
11	0	0	0	0	579	501	0	0	0	0	
12	0	0	0	0	575	501	0	0	0	0	
13	0	0	0	0	568	499	0	0	0	0	
14	0	0	0	0	559	497	0	0	0	0	
15	0	0	0	0	548	495	0	0	0	0	
0	0	0	0	0	537	491	0	0	0	0	
1	0	0	0	0	527	487	0	0	0	0	
2	0	0	0	0	518	483	0	0	0	0	
3	0	0	0	0	511	479	0	0	0	0	
4	0	0	0	0	508	477	0	0	0	0	
5	0	0	0	0	508	476	0	0	0	0	
6	0	0	0	0	512	475	0	0	0	0	
7	0	0	0	0	519	476	0	0	0	0	
8	0	0	0	0	529	479	0	0	0	0	
9	0	0	0	0	541	483	0	0	0	0	
10	0	0	0	0	553	487	0	0	0	0	
11	0	0	0	0	564	491	0	0	0	0	
12	0	0	0	0	573	494	0	0	0	0	
13	0	0	0	0	580	496	0	0	0	0	
14	0	0	0	0	584	497	0	0	0	0	
15	0	0	0	0	585	497	0	0	0	0	
0	0	0	0	0	585	497	0	0	0	0	
1	0	0	0	0	582	496	0	0	0	0	
2	0	0	0	0	579	495	0	0	0	0	
3	0	0	0	0	575	494	0	0	0	0	
4	0	0	0	0	571	492	0	0	0	0	
5	0	0	0	0	566	491	0	0	0	0	
6	0	0	0	0	560	489	0	0	0	0	
7	0	0	0	0	556	488	0	0	0	0	
8	0	0	0	0	551	488	0	0	0	0	
9	0	0	0	0	548	488	0	0	0	0	
10	0	0	0	0	546	488	0	0	0	0	
11	0	0	0	0	544	489	0	0	0	0	
12	0	0	0	0	543	490	0	0	0	0	
13	0	0	0	0	543	490	0	0	0	0	
14	0	0	0	0	542	490	0	0	0	0	
15	0	0	0	0	542	489	0	0	0	0	
0	0	0	0	0	543	488	0	0	0	0	
1	0	0	0	0	543	487	0	0	0	0	
2	0	0	0	0	544	485	0	0	0	0	
3	0	0	0	0	544	482	0	0	0	0	
4	0	0	0	0	544	479	0	0	0	0	
5	0	0	0	0	543	476	0	0	0	0	
6	0	0	0	0	542	474	0	0	0	0	
7	0	0	0	0	540	472	0	0	0	0	
8	0	0	0	0	539	472	0	0	0	0	
9	0	0	0	0	539	472	0	0	0	0	
10	0	0	0	0	541	475	0	0	0	0	
11	0	0	0	0	543	479	0	0	0	0	
12	0	0	0	0	548	484	0	0	0	0	
13	0	0	0	0	553	489	0	0	0	0	
14	0	0	0	0	560	495	0	0	0	0	
15	0	0	0	0	565	501	0	0	0	0	
0	0	0	0	0	570	507	0	0	0	0	
1	0	0	0	0	575	512	0	0	0	0	
2	0	0	0	0	579	515	0	0	0	0	
3	0	0	0	0	582	519	0	0	0	0	
4	0	0	0	0	585	521	0	0	0	0	
5	0	0	0	0	587	521	0	0	0	0	
6	0	0	0	0	588	522	0	0	0	0	
7	0	0	0	0	586	520	0	0	0	0	
8	0	0	0	0	583	516	0	0	0	0	
9	0	0	0	0	578	512	0	0	0	0	
10	0	0	0	0	571	505	0	0	0	0	
11	0	0	0	0	563	499	0	0	0	0	
12	0	0	0	0	555	492	0	0	0	0	
13	0	0	0	0	547	487	0	0	0	0	
14	0	0	0	0	539	482	0	0	0	0	
15	0	0	0	0	533	479	0	0	0	0	
0	0	0	0	0	531	479	0	0	0	0	
1	0	0	0	0	531	480	0	0	0	0	
2	0	0	0	0	532	483	0	0	0	0	
3	0	0	0	0	536	487	0	0	0	0	
4	0	0	0	0	541	492	0	0	0	0	
5	0	0	0	0	548	498	0	0	0	0	
6	0	0	0	0	556	504	0	0	0	0	
7	0	0	0	0	564	510	0	0	0	0	
8	0	0	0	0	571	514	0	0	0	0	
9	0	0	0	0	578	518	0	0	0	0	
10	0	0	0	0	583	519	0	0	0	0	
11	0	0	0	0	588	519	0	0	0	0	
12	0	0	0	0	590	517	0	0	0	0	
13	0	0	0	0	590	513	0	0	0	0	
14	0	0	0	0	589	508	0	0	0	0	
15	0	0	0	0	585	502	0	0	0	0	
0	0	0	0	0	579	496	0	0	0	0	
1	0	0	0	0	572	490	0	0	0	0	
2	0	0	0	0	562	485	0	0	0	0	
3	0	0	0	0	554	482	0	0	0	0	
4	0	0	0	0	547	480	0	0	0	0	
5	0	0	0	0	543	480	0	0	0	0	
6	0	0	0	0	541	480	0	0	0	0	
7	0	0	0	0	540	480	0	0	0	0	
8	0	0	0	0	542	481	0	0	0	0	
9	0	0	0	0	543	482	0	0	0	0	
10	0	0	0	0	547	481	0	0	0	0	
11	0	0	0	0	551	481	0	0	0	0	
12	0	0	0	0	556	481	0	0	0	0	
13	0	0	0	0	562	481	0	0	0	0	
14	0	0	0	0	568	481	0	0	0	0	
15	0	0	0	0	573	483	0	0	0	0	
0	0	0	0	0	578	484	0	0	0	0	
1	0	0	0	0	582	486	0	0	0	0	
2	0	0	0	0	584	487	0	0	0	0	
3	0	0	0	0	585	490	0	0	0	0	
4	0	0	0	0	584	492	0	0	0	0	
5	0	0	0	0	580	494	0	0	0	0	
6	0	0	0	0	573	496	0	0	0	0	
7	0	0	0	0	564	497	0	0	0	0	
8	0	0	0	0	555	497	0	0	0	0	
9	0	0	0	0	546	498	0	0	0	0	
10	0	0	0	0	539	499	0	0	0	0	
11	0	0	0	0	534	499	0	0	0	0	
12	0	0	0	0	532	500	0	0	0	0	
13	0	0	0	0	534	502	0	0	0	0	
14	0	0	0	0	537	504	0	0	0	0	
15	0	0	0	0	544	505	0	0	0	0	
0	0	0	0	0	552	508	0	0	0	0	
1	0	0	0	0	561	510	0	0	0	0	
2	0	0	0	0	570	511	0	0	0	0	
3	0	0	0	0	577	511	0	0	0	0	
4	0	0	0	0	583	510	0	0	0	0	
5	0	0	0	0	585	508	0	0	0	0	
6	0	0	0	0	585	505	0	0	0	0	
7	0	0	0	0	583	501	0	0	0	0	
8	0	0	0	0	577	496	0	0	0	0	
9	0	0	0	0	570	491	0	0	0	0	
10	0	0	0	0	562	485	0	0	0	0	
11	0	0	0	0	554	480	0	0	0	0	
12	0	0	0	0	546	476	0	0	0	0	
13	0	0	0	0	539	473	0	0	0	0	
14	0	0	0	0	532	471	0	0	0	0	
15	0	0	0	0	527	470	0	0	0	0	
0	0	0	0	0	524	471	0	0	0	0	
1	0	0	0	0	524	473	0	0	0	0	
2	0	0	0	0	526	476	0	0	0	0	
3	0	0	0	0	530	479	0	0	0	0	
4	0	0	0	0	536	483	0	0	0	0	
5	0	0	0	0	543	486	0	0	0	0	
6	0	0	0	0	550	489	0	0	0	0	
7	0	0	0	0	556	492	0	0	0	0	
8	0	0	0	0	561	493	0	0	0	0	
9	0	0	0	0	566	493	0	0	0	0	
10	0	0	0	0	569	493	0	0	0	0	
11	0	0	0	0	571	492	0	0	0	0	
12	0	0	0	0	572	491	0	0	0	0	
13	0	0	0	0	571	490	0	0	0	0	
14	0	0	0	0	569	490	0	0	0	0	
15	0	0	0	0	568	489	0	0	0	0	
0	0	0	0	0	564	490	0	0	0	0	
1	0	0	0	0	562	491	0	0	0	0	
2	0	0	0	0	559	491	0	0	0	0	
3	0	0	0	0	558	492	0	0	0	0	
4	0	0	0	0	557	493	0	0	0	0	
5	0	0	0	0	558	495	0	0	0	0	
6	0	0	0	0	559	496	0	0	0	0	
7	0	0	0	0	561	497	0	0	0	0	
8	0	0	0	0	563	498	0	0	0	0	
9	0	0	0	0	564	498	0	0	0	0	
10	0	0	0	0	566	499	0	0	0	0	
11	0	0	0	0	566	497	0	0	0	0	
12	0	0	0	0	564	496	0	0	0	0	
13	0	0	0	0	562	494	0	0	0	0	
14	0	0	0	0	558	491	0	0	0	0	
15	0	0	0	0	553	489	0	0	0	0	
0	0	0	0	0	548	487	0	0	0	0	
1	0	0	0	0	543	484	0	0	0	0	
2	0	0	0	0	540	484	0	0	0	0	
3	0	0	0	0	537	483	0	0	0	0	
4	0	0	0	0	536	485	0	0	0	0	
5	0	0	0	0	537	487	0	0	0	0	
6	0	0	0	0	539	491	0	0	0	0	
7	0	0	0	0	540	493	0	0	0	0	
8	0	0	0	0	543	496	0	0	0	0	
9	0	0	0	0	544	498	0	0	0	0	
10	0	0	0	0	546	499	0	0	0	0	
11	0	0	0	0	547	499	0	0	0	0	
12	0	0	0	0	548	498	0	0	0	0	
13	0	0	0	0	551	497	0	0	0	0	
14	0	0	0	0	554	495	0	0	0	0	
15	0	0	0	0	557	492	0	0	0	0	
0	0	0	0	0	559	489	0	0	0	0	
1	0	0	0	0	560	485	0	0	0	0	
2	0	0	0	0	560	481	0	0	0	0	
3	0	0	0	0	559	478	0	0	0	0	
4	0	0	0	0	556	474	0	0	0	0	
5	0	0	0	0	554	471	0	0	0	0	
6	0	0	0	0	552	470	0	0	0	0	
7	0	0	0	0	551	469	0	0	0	0	
8	0	0	0	0	549	468	0	0	0	0	
9	0	0	0	0	548	468	0	0	0	0	
10	0	0	0	0	548	469	0	0	0	0	
11	0	0	0	0	548	470	0	0	0	0	
12	0	0	0	0	549	472	0	0	0	0	
13	0	0	0	0	551	473	0	0	0	0	
14	0	0	0	0	552	476	0	0	0	0	
15	0	0	0	0	553	478	0	0	0	0	
0	0	0	0	0	554	479	0	0	0	0	
1	0	0	0	0	554	480	0	0	0	0	
2	0	0	0	0	554	480	0	0	0	0	
3	0	0	0	0	552	479	0	0	0	0	
4	0	0	0	0	550	477	0	0	0	0	
5	0	0	0	0	546	474	0	0	0	0	
6	0	0	0	0	542	471	0	0	0	0	
7	0	0	0	0	537	468	0	0	0	0	
8	0	0	0	0	532	465	0	0	0	0	
9	0	0	0	0	527	464	0	0	0	0	
10	0	0	0	0	524	465	0	0	0	0	
11	0	0	0	0	522	468	0	0	0	0	
12	0	0	0	0	524	473	0	0	0	0	
13	0	0	0	0	528	480	0	0	0	0	
14	0	0	0	0	537	489	0	0	0	0	
15	0	0	0	0	547	499	0	0	0	0	
0	0	0	0	0	559	508	0	0	0	0	
1	0	0	0	0	571	517	0	0	0	0	
2	0	0	0	0	581	523	0	0	0	0	
3	0	0	0	0	588	526	0	0	0	0	
4	0	0	0	0	592	527	0	0	0	0	
5	0	0	0	0	591	523	0	0	0	0	
6	0	0	0	0	587	516	0	0	0	0	
7	0	0	0	0	577	505	0	0	0	0	
8	0	0	0	0	563	492	0	0	0	0	
9	0	0	0	0	547	477	0	0	0	0	
10	0	0	0	0	526	459	0	0	0	0	
11	0	0	0	0	503	439	0	0	0	0	
12	0	0	0	0	478	419	0	0	0	0	
13	0	0	0	0	453	397	0	0	0	0	
14	0	0	0	0	429	376	0	0	0	0	
15	0	0	0	0	406	356	0	0	0	0	
0	0	0	0	0	386	336	0	0	0	0	
1	0	0	0	0	369	318	0	0	0	0	
2	0	0	0	0	355	300	0	0	0	0	
3	0	0	0	0	345	284	0	0	0	0	
4	0	0	0	0	337	270	0	0	0	0	
5	0	0	0	0	330	257	0	0	0	0	
6	0	0	0	0	323	246	0	0	0	0	
7	0	0	0	0	316	236	0	0	0	0	
8	0	0	0	0	308	227	0	0	0	0	
9	0	0	0	0	301	221	0	0	0	0	
10	0	0	0	0	294	217	0	0	0	0	
11	0	0	0	0	287	216	0	0	0	0	
12	0	0	0	0	282	218	0	0	0	0	
13	0	0	0	0	280	224	0	0	0	0	
14	0	0	0	0	281	234	0	0	0	0	
15	0	0	0	0	287	248	0	0	0	0	
0	0	0	0	0	300	266	0	0	0	0	
1	0	0	0	0	318	286	0	0	0	0	
2	0	0	0	0	342	310	0	0	0	0	
3	0	0	0	0	371	336	0	0	0	0	
4	0	0	0	0	405	363	0	0	0	0	
5	0	0	0	0	441	390	0	0	0	0	
6	0	0	0	0	478	415	0	0	0	0	
7	0	0	0	0	514	439	0	0	0	0	
8	0	0	0	0	547	460	0	0	0	0	
9	0	0	0	0	575	479	0	0	0	0	
10	0	0	0	0	598	494	0	0	0	0	
11	0	0	0	0	615	505	0	0	0	0	
12	0	0	0	0	625	513	0	0	0	0	
13	0	0	0	0	630	518	0	0	0	0	
14	0	0	0	0	630	521	0	0	0	0	
15	0	0	0	0	626	522	0	0	0	0	
0	0	0	0	0	620	522	0	0	0	0	
1	0	0	0	0	612	521	0	0	0	0	
2	0	0	0	0	604	519	0	0	0	0	
3	0	0	0	0	595	517	0	0	0	0	
4	0	0	0	0	587	515	0	0	0	0	
5	0	0	0	0	578	512	0	0	0	0	
6	0	0	0	0	572	511	0	0	0	0	
7	0	0	0	0	568	510	0	0	0	0	
8	0	0	0	0	565	510	0	0	0	0	
9	0	0	0	0	564	510	0	0	0	0	
10	0	0	0	0	563	510	0	0	0	0	
11	0	0	0	0	563	511	0	0	0	0	
12	0	0	0	0	561	512	0	0	0	0	
13	0	0	0	0	560	513	0	0	0	0	
14	0	0	0	0	558	515	0	0	0	0	
15	0	0	0	0	557	518	0	0	0	0	
0	0	0	0	0	558	519	0	0	0	0	
1	0	0	0	0	561	521	0	0	0	0	
2	0	0	0	0	564	523	0	0	0	0	
3	0	0	0	0	569	523	0	0	0	0	
4	0	0	0	0	575	522	0	0	0	0	
5	0	0	0	0	580	521	0	0	0	0	
6	0	0	0	0	587	521	0	0	0	0	
7	0	0	0	0	592	519	0	0	0	0	
8	0	0	0	0	597	518	0	0	0	0	
9	0	0	0	0	601	516	0	0	0	0	
10	0	0	0	0	603	514	0	0	0	0	
11	0	0	0	0	604	513	0	0	0	0	
12	0	0	0	0	604	513	0	0	0	0	
13	0	0	0	0	602	513	0	0	0	0	
14	0	0	0	0	599	513	0	0	0	0	
15	0	0	0	0	596	513	0	0	0	0	
0	0	0	0	0	592	515	0	0	0	0	
1	0	0	0	0	588	516	0	0	0	0	
2	0	0	0	0	584	516	0	0	0	0	
3	0	0	0	0	581	517	0	0	0	0	
4	0	0	0	0	578	518	0	0	0	0	
5	0	0	0	0	575	518	0	0	0	0	
6	0	0	0	0	575	518	0	0	0	0	
7	0	0	0	0	576	518	0	0	0	0	
8	0	0	0	0	578	516	0	0	0	0	
9	0	0	0	0	580	515	0	0	0	0	
10	0	0	0	0	582	514	0	0	0	0	
11	0	0	0	0	583	512	0	0	0	0	
12	0	0	0	0	583	508	0	0	0	0	
13	0	0	0	0	581	506	0	0	0	0	
14	0	0	0	0	577	503	0	0	0	0	
15	0	0	0	0	571	500	0	0	0	0	
0	0	0	0	0	564	497	0	0	0	0	
1	0	0	0	0	557	495	0	0	0	0	
2	0	0	0	0	550	494	0	0	0	0	
3	0	0	0	0	544	493	0	0	0	0	
4	0	0	0	0	540	493	0	0	0	0	
5	0	0	0	0	540	495	0	0	0	0	
6	0	0	0	0	541	497	0	0	0	0	
7	0	0	0	0	546	499	0	0	0	0	
8	0	0	0	0	551	502	0	0	0	0	
9	0	0	0	0	557	504	0	0	0	0	
10	0	0	0	0	563	505	0	0	0	0	
11	0	0	0	0	568	505	0	0	0	0	
12	0	0	0	0	572	504	0	0	0	0	
13	0	0	0	0	575	503	0	0	0	0	
14	0	0	0	0	577	501	0	0	0	0	
15	0	0	0	0	578	499	0	0	0	0	
0	0	0	0	0	578	497	0	0	0	0	
1	0	0	0	0	578	495	0	0	0	0	
2	0	0	0	0	577	492	0	0	0	0	
3	0	0	0	0	576	491	0	0	0	0	
4	0	0	0	0	576	490	0	0	0	0	
5	0	0	0	0	576	489	0	0	0	0	
6	0	0	0	0	577	490	0	0	0	0	
7	0	0	0	0	579	491	0	0	0	0	
8	0	0	0	0	579	492	0	0	0	0	
9	0	0	0	0	580	494	0	0	0	0	
10	0	0	0	0	580	496	0	0	0	0	
11	0	0	0	0	580	499	0	0	0	0	
12	0	0	0	0	579	502	0	0	0	0	
13	0	0	0	0	578	505	0	0	0	0	
14	0	0	0	0	576	510	0	0	0	0	
15	0	0	0	0	575	513	0	0	0	0	
0	0	0	0	0	574	517	0	0	0	0	
1	0	0	0	0	573	520	0	0	0	0	
2	0	0	0	0	574	523	0	0	0	0	
3	0	0	0	0	575	525	0	0	0	0	
4	0	0	0	0	577	527	0	0	0	0	
5	0	0	0	0	580	527	0	0	0	0	
6	0	0	0	0	583	528	0	0	0	0	
7	0	0	0	0	587	527	0	0	0	0	
8	0	0	0	0	590	527	0	0	0	0	
9	0	0	0	0	592	525	0	0	0	0	
10	0	0	0	0	593	523	0	0	0	0	
11	0	0	0	0	591	521	0	0	0	0	
12	0	0	0	0	589	519	0	0	0	0	
13	0	0	0	0	584	518	0	0	0	0	
14	0	0	0	0	577	515	0	0	0	0	
15	0	0	0	0	568	512	0	0	0	0	
0	0	0	0	0	557	510	0	0	0	0	
1	0	0	0	0	547	506	0	0	0	0	
2	0	0	0	0	539	502	0	0	0	0	
3	0	0	0	0	532	497	0	0	0	0	
4	0	0	0	0	528	492	0	0	0	0	
5	0	0	0	0	527	488	0	0	0	0	
6	0	0	0	0	529	485	0	0	0	0	
7	0	0	0	0	533	482	0	0	0	0	
8	0	0	0	0	539	481	0	0	0	0	
9	0	0	0	0	544	482	0	0	0	0	
10	0	0	0	0	549	483	0	0	0	0	
11	0	0	0	0	553	487	0	0	0	0	
12	0	0	0	0	555	491	0	0	0	0	
13	0	0	0	0	556	496	0	0	0	0	
14	0	0	0	0	556	503	0	0	0	0	
15	0	0	0	0	557	510	0	0	0	0	
0	0	0	0	0	560	517	0	0	0	0	
1	0	0	0	0	564	524	0	0	0	0	
2	0	0	0	0	570	529	0	0	0	0	
3	0	0	0	0	577	533	0	0	0	0	
4	0	0	0	0	583	534	0	0	0	0	
5	0	0	0	0	589	532	0	0	0	0	
6	0	0	0	0	593	528	0	0	0	0	
7	0	0	0	0	596	522	0	0	0	0	
8	0	0	0	0	596	515	0	0	0	0	
9	0	0	0	0	593	507	0	0	0	0	
10	0	0	0	0	589	499	0	0	0	0	
11	0	0	0	0	583	491	0	0	0	0	
12	0	0	0	0	577	485	0	0	0	0	
13	0	0	0	0	571	480	0	0	0	0	
14	0	0	0	0	566	478	0	0	0	0	
15	0	0	0	0	562	478	0	0	0	0	
0	0	0	0	0	560	480	0	0	0	0	
1	0	0	0	0	561	484	0	0	0	0	
2	0	0	0	0	563	491	0	0	0	0	
3	0	0	0	0	567	497	0	0	0	0	
4	0	0	0	0	572	504	0	0	0	0	
5	0	0	0	0	577	511	0	0	0	0	
6	0	0	0	0	582	516	0	0	0	0	
7	0	0	0	0	586	520	0	0	0	0	
8	0	0	0	0	589	522	0	0	0	0	
9	0	0	0	0	590	522	0	0	0	0	
10	0	0	0	0	589	520	0	0	0	0	
11	0	0	0	0	586	516	0	0	0	0	
12	0	0	0	0	580	512	0	0	0	0	
13	0	0	0	0	574	507	0	0	0	0	
14	0	0	0	0	567	501	0	0	0	0	
15	0	0	0	0	559	495	0	0	0	0	
0	0	0	0	0	551	489	0	0	0	0	
1	0	0	0	0	542	483	0	0	0	0	
2	0	0	0	0	532	477	0	0	0	0	
3	0	0	0	0	523	471	0	0	0	0	
4	0	0	0	0	513	467	0	0	0	0	
5	0	0	0	0	502	463	0	0	0	0	
6	0	0	0	0	493	460	0	0	0	0	
7	0	0	0	0	486	459	0	0	0	0	
8	0	0	0	0	482	459	0	0	0	0	
9	0	0	0	0	483	462	0	0	0	0	
10	0	0	0	0	489	466	0	0	0	0	
11	0	0	0	0	500	473	0	0	0	0	
12	0	0	0	0	516	482	0	0	0	0	
13	0	0	0	0	536	491	0	0	0	0	
14	0	0	0	0	559	502	0	0	0	0	
15	0	0	0	0	582	511	0	0	0	0	
0	0	0	0	0	604	521	0	0	0	0	
1	0	0	0	0	623	527	0	0	0	0	
2	0	0	0	0	637	533	0	0	0	0	
3	0	0	0	0	645	536	0	0	0	0	
4	0	0	0	0	647	535	0	0	0	0	
5	0	0	0	0	643	531	0	0	0	0	
6	0	0	0	0	633	526	0	0	0	0	
7	0	0	0	0	620	519	0	0	0	0	
8	0	0	0	0	603	511	0	0	0	0	
9	0	0	0	0	585	502	0	0	0	0	
10	0	0	0	0	567	493	0	0	0	0	
11	0	0	0	0	549	485	0	0	0	0	
12	0	0	0	0	532	478	0	0	0	0	
13	0	0	0	0	518	472	0	0	0	0	
14	0	0	0	0	504	468	0	0	0	0	
15	0	0	0	0	494	464	0	0	0	0	
0	0	0	0	0	488	463	0	0	0	0	
1	0	0	0	0	487	463	0	0	0	0	
2	0	0	0	0	492	466	0	0	0	0	
3	0	0	0	0	500	470	0	0	0	0	
4	0	0	0	0	513	475	0	0	0	0	
5	0	0	0	0	529	481	0	0	0	0	
6	0	0	0	0	547	487	0	0	0	0	
7	0	0	0	0	566	495	0	0	0	0	
8	0	0	0	0	583	501	0	0	0	0	
9	0	0	0	0	599	507	0	0	0	0	
10	0	0	0	0	610	512	0	0	0	0	
11	0	0	0	0	617	515	0	0	0	0	
12	0	0	0	0	619	518	0	0	0	0	
13	0	0	0	0	615	519	0	0	0	0	
14	0	0	0	0	608	520	0	0	0	0	
15	0	0	0	0	598	519	0	0	0	0	
0	0	0	0	0	586	517	0	0	0	0	
1	0	0	0	0	573	515	0	0	0	0	
2	0	0	0	0	561	511	0	0	0	0	
3	0	0	0	0	550	507	0	0	0	0	
4	0	0	0	0	541	503	0	0	0	0	
5	0	0	0	0	535	499	0	0	0	0	
6	0	0	0	0	532	495	0	0	0	0	
7	0	0	0	0	532	491	0	0	0	0	
8	0	0	0	0	534	488	0	0	0	0	
9	0	0	0	0	538	487	0	0	0	0	
10	0	0	0	0	543	485	0	0	0	0	
11	0	0	0	0	550	486	0	0	0	0	
12	0	0	0	0	556	486	0	0	0	0	
13	0	0	0	0	562	487	0	0	0	0	
14	0	0	0	0	567	491	0	0	0	0	
15	0	0	0	0	572	494	0	0	0	0	
0	0	0	0	0	576	498	0	0	0	0	
1	0	0	0	0	579	502	0	0	0	0	
2	0	0	0	0	581	507	0	0	0	0	
3	0	0	0	0	583	511	0	0	0	0	
4	0	0	0	0	584	515	0	0	0	0	
5	0	0	0	0	585	519	0	0	0	0	
6	0	0	0	0	586	523	0	0	0	0	
7	0	0	0	0	587	526	0	0	0	0	
8	0	0	0	0	587	527	0	0	0	0	
9	0	0	0	0	589	528	0	0	0	0	
10	0	0	0	0	591	529	0	0	0	0	
11	0	0	0	0	592	528	0	0	0	0	
12	0	0	0	0	593	526	0	0	0	0	
13	0	0	0	0	593	523	0	0	0	0	
14	0	0	0	0	591	518	0	0	0	0	
15	0	0	0	0	587	512	0	0	0	0	
0	0	0	0	0	581	505	0	0	0	0	
1	0	0	0	0	574	497	0	0	0	0	
2	0	0	0	0	566	489	0	0	0	0	
3	0	0	0	0	559	482	0	0	0	0	
4	0	0	0	0	552	476	0	0	0	0	
5	0	0	0	0	547	471	0	0	0	0	
6	0	0	0	0	543	467	0	0	0	0	
7	0	0	0	0	541	467	0	0	0	0	
8	0	0	0	0	540	468	0	0	0	0	
9	0	0	0	0	541	472	0	0	0	0	
10	0	0	0	0	543	477	0	0	0	0	
11	0	0	0	0	547	484	0	0	0	0	
12	0	0	0	0	552	492	0	0	0	0	
13	0	0	0	0	559	499	0	0	0	0	
14	0	0	0	0	565	507	0	0	0	0	
15	0	0	0	0	572	512	0	0	0	0	
0	0	0	0	0	577	517	0	0	0	0	
1	0	0	0	0	581	519	0	0	0	0	
2	0	0	0	0	583	520	0	0	0	0	
3	0	0	0	0	583	519	0	0	0	0	
4	0	0	0	0	580	515	0	0	0	0	
5	0	0	0	0	575	510	0	0	0	0	
6	0	0	0	0	568	504	0	0	0	0	
7	0	0	0	0	560	498	0	0	0	0	
8	0	0	0	0	552	493	0	0	0	0	
9	0	0	0	0	545	488	0	0	0	0	
10	0	0	0	0	539	485	0	0	0	0	
11	0	0	0	0	535	483	0	0	0	0	
12	0	0	0	0	532	482	0	0	0	0	
13	0	0	0	0	530	483	0	0	0	0	
14	0	0	0	0	529	484	0	0	0	0	
15	0	0	0	0	530	487	0	0	0	0	
0	0	0	0	0	534	489	0	0	0	0	
1	0	0	0	0	538	492	0	0	0	0	
2	0	0	0	0	543	496	0	0	0	0	
3	0	0	0	0	550	499	0	0	0	0	
4	0	0	0	0	556	502	0	0	0	0	
5	0	0	0	0	562	504	0	0	0	0	
6	0	0	0	0	568	507	0	0	0	0	
7	0	0	0	0	572	509	0	0	0	0	
8	0	0	0	0	575	511	0	0	0	0	
9	0	0	0	0	576	512	0	0	0	0	
10	0	0	0	0	576	514	0	0	0	0	
11	0	0	0	0	574	515	0	0	0	0	
12	0	0	0	0	571	515	0	0	0	0	
13	0	0	0	0	568	515	0	0	0	0	
14	0	0	0	0	565	514	0	0	0	0	
15	0	0	0	0	563	514	0	0	0	0	
0	0	0	0	0	562	514	0	0	0	0	
1	0	0	0	0	562	514	0	0	0	0	
2	0	0	0	0	563	514	0	0	0	0	
3	0	0	0	0	564	514	0	0	0	0	
4	0	0	0	0	567	515	0	0	0	0	
5	0	0	0	0	571	516	0	0	0	0	
6	0	0	0	0	575	516	0	0	0	0	
7	0	0	0	0	582	517	0	0	0	0	
8	0	0	0	0	587	518	0	0	0	0	
9	0	0	0	0	592	517	0	0	0	0	
10	0	0	0	0	596	516	0	0	0	0	
11	0	0	0	0	599	515	0	0	0	0	
12	0	0	0	0	599	512	0	0	0	0	
13	0	0	0	0	597	509	0	0	0	0	
14	0	0	0	0	592	505	0	0	0	0	
15	0	0	0	0	586	500	0	0	0	0	
0	0	0	0	0	578	495	0	0	0	0	
1	0	0	0	0	571	491	0	0	0	0	
2	0	0	0	0	565	487	0	0	0	0	
3	0	0	0	0	561	485	0	0	0	0	
4	0	0	0	0	560	484	0	0	0	0	
5	0	0	0	0	562	486	0	0	0	0	
6	0	0	0	0	565	488	0	0	0	0	
7	0	0	0	0	569	492	0	0	0	0	
8	0	0	0	0	573	497	0	0	0	0	
9	0	0	0	0	575	502	0	0	0	0	
10	0	0	0	0	576	505	0	0	0	0	
11	0	0	0	0	575	508	0	0	0	0	
12	0	0	0	0	573	510	0	0	0	0	
13	0	0	0	0	568	511	0	0	0	0	
14	0	0	0	0	562	510	0	0	0	0	
15	0	0	0	0	556	510	0	0	0	0	
0	0	0	0	0	551	509	0	0	0	0	
1	0	0	0	0	546	508	0	0	0	0	
2	0	0	0	0	542	508	0	0	0	0	
3	0	0	0	0	538	508	0	0	0	0	
4	0	0	0	0	536	507	0	0	0	0	
5	0	0	0	0	534	505	0	0	0	0	
6	0	0	0	0	534	504	0	0	0	0	
7	0	0	0	0	535	502	0	0	0	0	
8	0	0	0	0	536	500	0	0	0	0	
9	0	0	0	0	540	500	0	0	0	0	
10	0	0	0	0	543	500	0	0	0	0	
11	0	0	0	0	547	501	0	0	0	0	
12	0	0	0	0	551	502	0	0	0	0	
13	0	0	0	0	558	504	0	0	0	0	
14	0	0	0	0	564	506	0	0	0	0	
15	0	0	0	0	571	508	0	0	0	0	
0	0	0	0	0	577	509	0	0	0	0	
1	0	0	0	0	583	510	0	0	0	0	
2	0	0	0	0	589	511	0	0	0	0	
3	0	0	0	0	593	512	0	0	0	0	
4	0	0	0	0	595	511	0	0	0	0	
5	0	0	0	0	595	511	0	0	0	0	
6	0	0	0	0	593	510	0	0	0	0	
7	0	0	0	0	591	508	0	0	0	0	
8	0	0	0	0	588	508	0	0	0	0	
9	0	0	0	0	584	507	0	0	0	0	
10	0	0	0	0	580	506	0	0	0	0	
11	0	0	0	0	577	507	0	0	0	0	
12	0	0	0	0	575	508	0	0	0	0	
13	0	0	0	0	575	509	0	0	0	0	
14	0	0	0	0	574	511	0	0	0	0	
15	0	0	0	0	574	512	0	0	0	0	
0	0	0	0	0	574	513	0	0	0	0	
1	0	0	0	0	572	513	0	0	0	0	
2	0	0	0	0	571	511	0	0	0	0	
3	0	0	0	0	568	508	0	0	0	0	
4	0	0	0	0	563	504	0	0	0	0	
5	0	0	0	0	558	499	0	0	0	0	
6	0	0	0	0	552	494	0	0	0	0	
7	0	0	0	0	546	488	0	0	0	0	
8	0	0	0	0	541	482	0	0	0	0	
9	0	0	0	0	536	478	0	0	0	0	
10	0	0	0	0	532	475	0	0	0	0	
11	0	0	0	0	531	473	0	0	0	0	
12	0	0	0	0	531	474	0	0	0	0	
13	0	0	0	0	532	476	0	0	0	0	
14	0	0	0	0	537	480	0	0	0	0	
15	0	0	0	0	541	486	0	0	0	0	
0	0	0	0	0	547	492	0	0	0	0	
1	0	0	0	0	552	498	0	0	0	0	
2	0	0	0	0	558	503	0	0	0	0	
3	0	0	0	0	562	507	0	0	0	0	
4	0	0	0	0	565	510	0	0	0	0	
5	0	0	0	0	568	511	0	0	0	0	
6	0	0	0	0	569	512	0	0	0	0	
7	0	0	0	0	571	510	0	0	0	0	
8	0	0	0	0	572	508	0	0	0	0	
9	0	0	0	0	572	505	0	0	0	0	
10	0	0	0	0	573	502	0	0	0	0	
11	0	0	0	0	575	499	0	0	0	0	
12	0	0	0	0	576	496	0	0	0	0	
13	0	0	0	0	579	495	0	0	0	0	
14	0	0	0	0	582	495	0	0	0	0	
15	0	0	0	0	586	496	0	0	0	0	
0	0	0	0	0	591	500	0	0	0	0	
1	0	0	0	0	595	505	0	0	0	0	
2	0	0	0	0	600	510	0	0	0	0	
3	0	0	0	0	603	516	0	0	0	0	
4	0	0	0	0	604	521	0	0	0	0	
5	0	0	0	0	604	524	0	0	0	0	
6	0	0	0	0	601	527	0	0	0	0	
7	0	0	0	0	598	527	0	0	0	0	
8	0	0	0	0	591	525	0	0	0	0	
9	0	0	0	0	584	521	0	0	0	0	
10	0	0	0	0	576	516	0	0	0	0	
11	0	0	0	0	566	510	0	0	0	0	
12	0	0	0	0	556	503	0	0	0	0	
13	0	0	0	0	545	496	0	0	0	0	
14	0	0	0	0	536	491	0	0	0	0	
15	0	0	0	0	527	486	0	0	0	0	
0	0	0	0	0	520	483	0	0	0	0	
1	0	0	0	0	515	481	0	0	0	0	
2	0	0	0	0	514	481	0	0	0	0	
3	0	0	0	0	515	481	0	0	0	0	
4	0	0	0	0	520	484	0	0	0	0	
5	0	0	0	0	529	487	0	0	0	0	
6	0	0	0	0	540	492	0	0	0	0	
7	0	0	0	0	553	497	0	0	0	0	
8	0	0	0	0	568	503	0	0	0	0	
9	0	0	0	0	583	509	0	0	0	0	
10	0	0	0	0	596	516	0	0	0	0	
11	0	0	0	0	608	522	0	0	0	0	
12	0	0	0	0	615	527	0	0	0	0	
13	0	0	0	0	620	530	0	0	0	0	
14	0	0	0	0	620	532	0	0	0	0	
15	0	0	0	0	618	531	0	0	0	0	
0	0	0	0	0	612	528	0	0	0	0	
1	0	0	0	0	603	523	0	0	0	0	
2	0	0	0	0	591	516	0	0	0	0	
3	0	0	0	0	578	508	0	0	0	0	
4	0	0	0	0	564	498	0	0	0	0	
5	0	0	0	0	550	488	0	0	0	0	
6	0	0	0	0	535	478	0	0	0	0	
7	0	0	0	0	522	469	0	0	0	0	
8	0	0	0	0	510	462	0	0	0	0	
9	0	0	0	0	499	456	0	0	0	0	
10	0	0	0	0	492	453	0	0	0	0	
11	0	0	0	0	487	452	0	0	0	0	
12	0	0	0	0	486	454	0	0	0	0	
13	0	0	0	0	491	459	0	0	0	0	
14	0	0	0	0	501	467	0	0	0	0	
15	0	0	0	0	516	477	0	0	0	0	
0	0	0	0	0	535	487	0	0	0	0	
1	0	0	0	0	556	499	0	0	0	0	
2	0	0	0	0	579	510	0	0	0	0	
3	0	0	0	0	600	519	0	0	0	0	
4	0	0	0	0	618	527	0	0	0	0	
5	0	0	0	0	632	533	0	0	0	0	
6	0	0	0	0	643	536	0	0	0	0	
7	0	0	0	0	648	537	0	0	0	0	
8	0	0	0	0	648	537	0	0	0	0	
9	0	0	0	0	644	534	0	0	0	0	
10	0	0	0	0	637	531	0	0	0	0	
11	0	0	0	0	628	528	0	0	0	0	
12	0	0	0	0	618	526	0	0	0	0	
13	0	0	0	0	607	524	0	0	0	0	
14	0	0	0	0	598	523	0	0	0	0	
15	0	0	0	0	588	522	0	0	0	0	
0	0	0	0	0	580	521	0	0	0	0	
1	0	0	0	0	575	521	0	0	0	0	
2	0	0	0	0	571	521	0	0	0	0	
3	0	0	0	0	568	521	0	0	0	0	
4	0	0	0	0	567	522	0	0	0	0	
5	0	0	0	0	568	521	0	0	0	0	
6	0	0	0	0	569	520	0	0	0	0	
7	0	0	0	0	571	519	0	0	0	0	
8	0	0	0	0	574	516	0	0	0	0	
9	0	0	0	0	575	514	0	0	0	0	
10	0	0	0	0	576	510	0	0	0	0	
11	0	0	0	0	575	507	0	0	0	0	
12	0	0	0	0	574	504	0	0	0	0	
13	0	0	0	0	571	500	0	0	0	0	
14	0	0	0	0	566	497	0	0	0	0	
15	0	0	0	0	560	495	0	0	0	0	
0	0	0	0	0	554	493	0	0	0	0	
1	0	0	0	0	548	492	0	0	0	0	
2	0	0	0	0	543	492	0	0	0	0	
3	0	0	0	0	537	492	0	0	0	0	
4	0	0	0	0	534	492	0	0	0	0	
5	0	0	0	0	532	493	0	0	0	0	
6	0	0	0	0	531	492	0	0	0	0	
7	0	0	0	0	533	492	0	0	0	0	
8	0	0	0	0	535	491	0	0	0	0	
9	0	0	0	0	537	490	0	0	0	0	
10	0	0	0	0	542	489	0	0	0	0	
11	0	0	0	0	546	487	0	0	0	0	
12	0	0	0	0	551	486	0	0	0	0	
13	0	0	0	0	556	486	0	0	0	0	
14	0	0	0	0	562	486	0	0	0	0	
15	0	0	0	0	568	487	0	0	0	0	
0	0	0	0	0	574	488	0	0	0	0	
1	0	0	0	0	579	490	0	0	0	0	
2	0	0	0	0	583	493	0	0	0	0	
3	0	0	0	0	588	496	0	0	0	0	
4	0	0	0	0	590	501	0	0	0	0	
5	0	0	0	0	593	506	0	0	0	0	
6	0	0	0	0	595	512	0	0	0	0	
7	0	0	0	0	595	518	0	0	0	0	
8	0	0	0	0	596	523	0	0	0	0	
9	0	0	0	0	597	528	0	0	0	0	
10	0	0	0	0	596	532	0	0	0	0	
11	0	0	0	0	595	535	0	0	0	0	
12	0	0	0	0	592	537	0	0	0	0	
13	0	0	0	0	589	538	0	0	0	0	
14	0	0	0	0	584	537	0	0	0	0	
15	0	0	0	0	579	536	0	0	0	0	
0	0	0	0	0	572	533	0	0	0	0	
1	0	0	0	0	564	528	0	0	0	0	
2	0	0	0	0	558	524	0	0	0	0	
3	0	0	0	0	552	519	0	0	0	0	
4	0	0	0	0	550	515	0	0	0	0	
5	0	0	0	0	550	511	0	0	0	0	
6	0	0	0	0	552	509	0	0	0	0	
7	0	0	0	0	557	507	0	0	0	0	
8	0	0	0	0	563	506	0	0	0	0	
9	0	0	0	0	571	507	0	0	0	0	
10	0	0	0	0	579	507	0	0	0	0	
11	0	0	0	0	587	508	0	0	0	0	
12	0	0	0	0	593	509	0	0	0	0	
13	0	0	0	0	597	510	0	0	0	0	
14	0	0	0	0	599	511	0	0	0	0	
15	0	0	0	0	599	511	0	0	0	0	
0	0	0	0	0	595	512	0	0	0	0	
1	0	0	0	0	591	511	0	0	0	0	
2	0	0	0	0	585	510	0	0	0	0	
3	0	0	0	0	578	509	0	0	0	0	
4	0	0	0	0	572	507	0	0	0	0	
5	0	0	0	0	567	504	0	0	0	0	
6	0	0	0	0	563	501	0	0	0	0	
7	0	0	0	0	561	498	0	0	0	0	
8	0	0	0	0	560	494	0	0	0	0	
9	0	0	0	0	560	491	0	0	0	0	
10	0	0	0	0	560	487	0	0	0	0	
11	0	0	0	0	561	484	0	0	0	0	
12	0	0	0	0	561	481	0	0	0	0	
13	0	0	0	0	562	479	0	0	0	0	
14	0	0	0	0	562	478	0	0	0	0	
15	0	0	0	0	561	477	0	0	0	0	
0	0	0	0	0	561	477	0	0	0	0	
1	0	0	0	0	559	477	0	0	0	0	
2	0	0	0	0	557	477	0	0	0	0	
3	0	0	0	0	553	478	0	0	0	0	
4	0	0	0	0	550	478	0	0	0	0	
5	0	0	0	0	546	479	0	0	0	0	
6	0	0	0	0	543	480	0	0	0	0	
7	0	0	0	0	540	480	0	0	0	0	
8	0	0	0	0	538	481	0	0	0	0	
9	0	0	0	0	537	481	0	0	0	0	
10	0	0	0	0	537	481	0	0	0	0	
11	0	0	0	0	538	481	0	0	0	0	
12	0	0	0	0	539	481	0	0	0	0	
13	0	0	0	0	540	480	0	0	0	0	
14	0	0	0	0	542	480	0	0	0	0	
15	0	0	0	0	545	481	0	0	0	0	
0	0	0	0	0	548	482	0	0	0	0	
1	0	0	0	0	552	485	0	0	0	0	
2	0	0	0	0	558	488	0	0	0	0	
3	0	0	0	0	564	493	0	0	0	0	
4	0	0	0	0	571	499	0	0	0	0	
5	0	0	0	0	579	505	0	0	0	0	
6	0	0	0	0	587	511	0	0	0	0	
7	0	0	0	0	595	516	0	0	0	0	
8	0	0	0	0	602	521	0	0	0	0	
9	0	0	0	0	608	525	0	0	0	0	
10	0	0	0	0	612	527	0	0	0	0	
11	0	0	0	0	615	528	0	0	0	0	
12	0	0	0	0	615	527	0	0	0	0	
13	0	0	0	0	612	525	0	0	0	0	
14	0	0	0	0	607	521	0	0	0	0	
15	0	0	0	0	600	516	0	0	0	0	
0	0	0	0	0	591	510	0	0	0	0	
1	0	0	0	0	581	504	0	0	0	0	
2	0	0	0	0	571	498	0	0	0	0	
3	0	0	0	0	561	493	0	0	0	0	
4	0	0	0	0	554	490	0	0	0	0	
5	0	0	0	0	548	488	0	0	0	0	
6	0	0	0	0	544	489	0	0	0	0	
7	0	0	0	0	543	492	0	0	0	0	
8	0	0	0	0	544	497	0	0	0	0	
9	0	0	0	0	547	503	0	0	0	0	
10	0	0	0	0	551	510	0	0	0	0	
11	0	0	0	0	556	516	0	0	0	0	
12	0	0	0	0	560	521	0	0	0	0	
13	0	0	0	0	563	525	0	0	0	0	
14	0	0	0	0	566	527	0	0	0	0	
15	0	0	0	0	568	528	0	0	0	0	
0	0	0	0	0	571	527	0	0	0	0	
1	0	0	0	0	572	523	0	0	0	0	
2	0	0	0	0	572	518	0	0	0	0	
3	0	0	0	0	573	513	0	0	0	0	
4	0	0	0	0	572	507	0	0	0	0	
5	0	0	0	0	572	500	0	0	0	0	
6	0	0	0	0	569	494	0	0	0	0	
7	0	0	0	0	566	488	0	0	0	0	
8	0	0	0	0	562	483	0	0	0	0	
9	0	0	0	0	558	480	0	0	0	0	
10	0	0	0	0	553	477	0	0	0	0	
11	0	0	0	0	550	476	0	0	0	0	
12	0	0	0	0	547	476	0	0	0	0	
13	0	0	0	0	546	478	0	0	0	0	
14	0	0	0	0	546	479	0	0	0	0	
15	0	0	0	0	547	481	0	0	0	0	
0	0	0	0	0	548	483	0	0	0	0	
1	0	0	0	0	550	484	0	0	0	0	
2	0	0	0	0	549	485	0	0	0	0	
3	0	0	0	0	547	487	0	0	0	0	
4	0	0	0	0	543	487	0	0	0	0	
5	0	0	0	0	536	488	0	0	0	0	
6	0	0	0	0	527	488	0	0	0	0	
7	0	0	0	0	518	489	0	0	0	0	
8	0	0	0	0	509	490	0	0	0	0	
9	0	0	0	0	504	490	0	0	0	0	
10	0	0	0	0	500	491	0	0	0	0	
11	0	0	0	0	502	490	0	0	0	0	
12	0	0	0	0	508	489	0	0	0	0	
13	0	0	0	0	518	487	0	0	0	0	
14	0	0	0	0	529	483	0	0	0	0	
15	0	0	0	0	542	479	0	0	0	0	
0	0	0	0	0	553	474	0	0	0	0	
1	0	0	0	0	562	469	0	0	0	0	
2	0	0	0	0	569	463	0	0	0	0	
3	0	0	0	0	574	457	0	0	0	0	
4	0	0	0	0	575	449	0	0	0	0	
5	0	0	0	0	572	441	0	0	0	0	
6	0	0	0	0	566	432	0	0	0	0	
7	0	0	0	0	555	419	0	0	0	0	
8	0	0	0	0	540	407	0	0	0	0	
9	0	0	0	0	521	392	0	0	0	0	
10	0	0	0	0	499	376	0	0	0	0	
11	0	0	0	0	472	359	0	0	0	0	
12	0	0	0	0	443	342	0	0	0	0	
13	0	0	0	0	411	323	0	0	0	0	
14	0	0	0	0	378	304	0	0	0	0	
15	0	0	0	0	345	286	0	0	0	0	
0	0	0	0	0	314	268	0	0	0	0	
1	0	0	0	0	285	251	0	0	0	0	
2	0	0	0	0	260	236	0	0	0	0	
3	0	0	0	0	239	222	0	0	0	0	
4	0	0	0	0	224	211	0	0	0	0	
5	0	0	0	0	216	202	0	0	0	0	
6	0	0	0	0	214	198	0	0	0	0	
7	0	0	0	0	219	197	0	0	0	0	
8	0	0	0	0	231	200	0	0	0	0	
9	0	0	0	0	249	208	0	0	0	0	
10	0	0	0	0	273	221	0	0	0	0	
11	0	0	0	0	302	238	0	0	0	0	
12	0	0	0	0	333	258	0	0	0	0	
13	0	0	0	0	367	280	0	0	0	0	
14	0	0	0	0	400	305	0	0	0	0	
15	0	0	0	0	434	331	0	0	0	0	
0	0	0	0	0	466	358	0	0	0	0	
1	0	0	0	0	496	385	0	0	0	0	
2	0	0	0	0	524	412	0	0	0	0	
3	0	0	0	0	547	437	0	0	0	0	
4	0	0	0	0	567	461	0	0	0	0	
5	0	0	0	0	583	482	0	0	0	0	
6	0	0	0	0	594	500	0	0	0	0	
7	0	0	0	0	600	515	0	0	0	0	
8	0	0	0	0	604	527	0	0	0	0	
9	0	0	0	0	605	535	0	0	0	0	
10	0	0	0	0	604	539	0	0	0	0	
11	0	0	0	0	600	539	0	0	0	0	
12	0	0	0	0	594	536	0	0	0	0	
13	0	0	0	0	588	530	0	0	0	0	
14	0	0	0	0	580	523	0	0	0	0	
15	0	0	0	0	575	514	0	0	0	0	
0	0	0	0	0	570	505	0	0	0	0	
1	0	0	0	0	567	496	0	0	0	0	
2	0	0	0	0	564	489	0	0	0	0	
3	0	0	0	0	563	483	0	0	0	0	
4	0	0	0	0	562	479	0	0	0	0	
5	0	0	0	0	561	476	0	0	0	0	
6	0	0	0	0	561	476	0	0	0	0	
7	0	0	0	0	561	477	0	0	0	0	
8	0	0	0	0	563	480	0	0	0	0	
9	0	0	0	0	567	486	0	0	0	0	
10	0	0	0	0	572	492	0	0	0	0	
11	0	0	0	0	579	500	0	0	0	0	
12	0	0	0	0	588	508	0	0	0	0	
13	0	0	0	0	598	517	0	0	0	0	
14	0	0	0	0	609	524	0	0	0	0	
15	0	0	0	0	620	531	0	0	0	0	
0	0	0	0	0	630	537	0	0	0	0	
1	0	0	0	0	638	540	0	0	0	0	
2	0	0	0	0	643	543	0	0	0	0	
3	0	0	0	0	643	543	0	0	0	0	
4	0	0	0	0	638	542	0	0	0	0	
5	0	0	0	0	629	539	0	0	0	0	
6	0	0	0	0	616	534	0	0	0	0	
7	0	0	0	0	601	528	0	0	0	0	
8	0	0	0	0	584	520	0	0	0	0	
9	0	0	0	0	569	512	0	0	0	0	
10	0	0	0	0	555	505	0	0	0	0	
11	0	0	0	0	543	499	0	0	0	0	
12	0	0	0	0	537	495	0	0	0	0	
13	0	0	0	0	535	492	0	0	0	0	
14	0	0	0	0	537	491	0	0	0	0	
15	0	0	0	0	544	492	0	0	0	0	
0	0	0	0	0	554	495	0	0	0	0	
1	0	0	0	0	566	499	0	0	0	0	
2	0	0	0	0	578	504	0	0	0	0	
3	0	0	0	0	590	509	0	0	0	0	
4	0	0	0	0	600	515	0	0	0	0	
5	0	0	0	0	607	520	0	0	0	0	
6	0	0	0	0	611	525	0	0	0	0	
7	0	0	0	0	612	528	0	0	0	0	
8	0	0	0	0	610	531	0	0	0	0	
9	0	0	0	0	607	532	0	0	0	0	
10	0	0	0	0	602	532	0	0	0	0	
11	0	0	0	0	597	532	0	0	0	0	
12	0	0	0	0	592	530	0	0	0	0	
13	0	0	0	0	587	528	0	0	0	0	
14	0	0	0	0	580	525	0	0	0	0	
15	0	0	0	0	575	521	0	0	0	0	
0	0	0	0	0	569	519	0	0	0	0	
1	0	0	0	0	565	515	0	0	0	0	
2	0	0	0	0	561	512	0	0	0	0	
3	0	0	0	0	559	510	0	0	0	0	
4	0	0	0	0	558	508	0	0	0	0	
5	0	0	0	0	558	508	0	0	0	0	
6	0	0	0	0	560	508	0	0	0	0	
7	0	0	0	0	563	509	0	0	0	0	
8	0	0	0	0	566	511	0	0	0	0	
9	0	0	0	0	569	512	0	0	0	0	
10	0	0	0	0	570	513	0	0	0	0	
11	0	0	0	0	571	514	0	0	0	0	
12	0	0	0	0	570	514	0	0	0	0	
13	0	0	0	0	568	513	0	0	0	0	
14	0	0	0	0	565	510	0	0	0	0	
15	0	0	0	0	563	508	0	0	0	0	
0	0	0	0	0	561	504	0	0	0	0	
1	0	0	0	0	560	499	0	0	0	0	
2	0	0	0	0	560	495	0	0	0	0	
3	0	0	0	0	561	491	0	0	0	0	
4	0	0	0	0	563	487	0	0	0	0	
5	0	0	0	0	566	484	0	0	0	0	
6	0	0	0	0	568	481	0	0	0	0	
7	0	0	0	0	570	480	0	0	0	0	
8	0	0	0	0	572	478	0	0	0	0	
9	0	0	0	0	573	479	0	0	0	0	
10	0	0	0	0	574	480	0	0	0	0	
11	0	0	0	0	575	482	0	0	0	0	
12	0	0	0	0	576	486	0	0	0	0	
13	0	0	0	0	578	489	0	0	0	0	
14	0	0	0	0	580	494	0	0	0	0	
15	0	0	0	0	582	498	0	0	0	0	
0	0	0	0	0	582	503	0	0	0	0	
1	0	0	0	0	580	506	0	0	0	0	
2	0	0	0	0	577	508	0	0	0	0	
3	0	0	0	0	572	510	0	0	0	0	
4	0	0	0	0	566	510	0	0	0	0	
5	0	0	0	0	559	510	0	0	0	0	
6	0	0	0	0	551	509	0	0	0	0	
7	0	0	0	0	545	508	0	0	0	0	
8	0	0	0	0	539	507	0	0	0	0	
9	0	0	0	0	536	505	0	0	0	0	
10	0	0	0	0	537	504	0	0	0	0	
11	0	0	0	0	541	504	0	0	0	0	
12	0	0	0	0	548	505	0	0	0	0	
13	0	0	0	0	559	508	0	0	0	0	
14	0	0	0	0	572	510	0	0	0	0	
15	0	0	0	0	588	514	0	0	0	0	
0	0	0	0	0	602	518	0	0	0	0	
1	0	0	0	0	616	522	0	0	0	0	
2	0	0	0	0	629	525	0	0	0	0	
3	0	0	0	0	638	527	0	0	0	0	
4	0	0	0	0	643	527	0	0	0	0	
5	0	0	0	0	643	526	0	0	0	0	
6	0	0	0	0	638	523	0	0	0	0	
7	0	0	0	0	628	518	0	0	0	0	
8	0	0	0	0	614	513	0	0	0	0	
9	0	0	0	0	598	508	0	0	0	0	
10	0	0	0	0	579	503	0	0	0	0	
11	0	0	0	0	561	498	0	0	0	0	
12	0	0	0	0	543	495	0	0	0	0	
13	0	0	0	0	528	492	0	0	0	0	
14	0	0	0	0	517	491	0	0	0	0	
15	0	0	0	0	510	491	0	0	0	0	
0	0	0	0	0	506	492	0	0	0	0	
1	0	0	0	0	505	492	0	0	0	0	
2	0	0	0	0	506	493	0	0	0	0	
3	0	0	0	0	508	492	0	0	0	0	
4	0	0	0	0	511	492	0	0	0	0	
5	0	0	0	0	515	491	0	0	0	0	
6	0	0	0	0	521	492	0	0	0	0	
7	0	0	0	0	528	492	0	0	0	0	
8	0	0	0	0	538	494	0	0	0	0	
9	0	0	0	0	548	497	0	0	0	0	
10	0	0	0	0	560	499	0	0	0	0	
11	0	0	0	0	570	500	0	0	0	0	
12	0	0	0	0	579	501	0	0	0	0	
13	0	0	0	0	587	500	0	0	0	0	
14	0	0	0	0	591	499	0	0	0	0	
15	0	0	0	0	592	496	0	0	0	0	
0	0	0	0	0	591	493	0	0	0	0	
1	0	0	0	0	588	488	0	0	0	0	
2	0	0	0	0	582	484	0	0	0	0	
3	0	0	0	0	575	481	0	0	0	0	
4	0	0	0	0	569	478	0	0	0	0	
5	0	0	0	0	563	477	0	0	0	0	
6	0	0	0	0	558	476	0	0	0	0	
7	0	0	0	0	556	476	0	0	0	0	
8	0	0	0	0	555	477	0	0	0	0	
9	0	0	0	0	556	479	0	0	0	0	
10	0	0	0	0	558	481	0	0	0	0	
11	0	0	0	0	561	484	0	0	0	0	
12	0	0	0	0	564	487	0	0	0	0	
13	0	0	0	0	568	490	0	0	0	0	
14	0	0	0	0	570	493	0	0	0	0	
15	0	0	0	0	572	495	0	0	0	0	
0	0	0	0	0	573	497	0	0	0	0	
1	0	0	0	0	572	498	0	0	0	0	
2	0	0	0	0	568	498	0	0	0	0	
3	0	0	0	0	563	497	0	0	0	0	
4	0	0	0	0	557	496	0	0	0	0	
5	0	0	0	0	550	495	0	0	0	0	
6	0	0	0	0	543	494	0	0	0	0	
7	0	0	0	0	538	493	0	0	0	0	
8	0	0	0	0	535	493	0	0	0	0	
9	0	0	0	0	535	492	0	0	0	0	
10	0	0	0	0	537	492	0	0	0	0	
11	0	0	0	0	543	492	0	0	0	0	
12	0	0	0	0	550	491	0	0	0	0	
13	0	0	0	0	557	489	0	0	0	0	
14	0	0	0	0	564	488	0	0	0	0	
15	0	0	0	0	568	486	0	0	0	0	
0	0	0	0	0	570	484	0	0	0	0	
1	0	0	0	0	569	481	0	0	0	0	
2	0	0	0	0	566	479	0	0	0	0	
3	0	0	0	0	561	477	0	0	0	0	
4	0	0	0	0	556	476	0	0	0	0	
5	0	0	0	0	551	474	0	0	0	0	
6	0	0	0	0	547	473	0	0	0	0	
7	0	0	0	0	545	474	0	0	0	0	
8	0	0	0	0	545	475	0	0	0	0	
9	0	0	0	0	546	478	0	0	0	0	
10	0	0	0	0	548	481	0	0	0	0	
11	0	0	0	0	549	484	0	0	0	0	
12	0	0	0	0	551	487	0	0	0	0	
13	0	0	0	0	551	491	0	0	0	0	
14	0	0	0	0	552	494	0	0	0	0	
15	0	0	0	0	553	495	0	0	0	0	
0	0	0	0	0	553	496	0	0	0	0	
1	0	0	0	0	553	495	0	0	0	0	
2	0	0	0	0	552	492	0	0	0	0	
3	0	0	0	0	551	490	0	0	0	0	
4	0	0	0	0	550	486	0	0	0	0	
5	0	0	0	0	547	483	0	0	0	0	
6	0	0	0	0	545	479	0	0	0	0	
7	0	0	0	0	542	476	0	0	0	0	
8	0	0	0	0	538	473	0	0	0	0	
9	0	0	0	0	535	472	0	0	0	0	
10	0	0	0	0	531	471	0	0	0	0	
11	0	0	0	0	529	471	0	0	0	0	
12	0	0	0	0	528	472	0	0	0	0	
13	0	0	0	0	528	473	0	0	0	0	
14	0	0	0	0	528	475	0	0	0	0	
15	0	0	0	0	529	476	0	0	0	0	
0	0	0	0	0	530	478	0	0	0	0	
1	0	0	0	0	531	479	0	0	0	0	
2	0	0	0	0	533	480	0	0	0	0	
3	0	0	0	0	536	481	0	0	0	0	
4	0	0	0	0	540	483	0	0	0	0	
5	0	0	0	0	545	484	0	0	0	0	
6	0	0	0	0	551	485	0	0	0	0	
7	0	0	0	0	556	486	0	0	0	0	
8	0	0	0	0	560	486	0	0	0	0	
9	0	0	0	0	564	487	0	0	0	0	
10	0	0	0	0	567	487	0	0	0	0	
11	0	0	0	0	568	487	0	0	0	0	
12	0	0	0	0	567	488	0	0	0	0	
13	0	0	0	0	565	488	0	0	0	0	
14	0	0	0	0	561	488	0	0	0	0	
15	0	0	0	0	556	488	0	0	0	0	
0	0	0	0	0	551	488	0	0	0	0	
1	0	0	0	0	545	487	0	0	0	0	
2	0	0	0	0	540	486	0	0	0	0	
3	0	0	0	0	537	484	0	0	0	0	
4	0	0	0	0	536	484	0	0	0	0	
5	0	0	0	0	536	484	0	0	0	0	
6	0	0	0	0	539	485	0	0	0	0	
7	0	0	0	0	543	487	0	0	0	0	
8	0	0	0	0	549	490	0	0	0	0	
9	0	0	0	0	556	493	0	0	0	0	
10	0	0	0	0	563	497	0	0	0	0	
11	0	0	0	0	571	501	0	0	0	0	
12	0	0	0	0	576	504	0	0	0	0	
13	0	0	0	0	580	507	0	0	0	0	
14	0	0	0	0	582	510	0	0	0	0	
15	0	0	0	0	580	511	0	0	0	0	
0	0	0	0	0	576	511	0	0	0	0	
1	0	0	0	0	569	510	0	0	0	0	
2	0	0	0	0	560	508	0	0	0	0	
3	0	0	0	0	551	504	0	0	0	0	
4	0	0	0	0	543	500	0	0	0	0	
5	0	0	0	0	537	495	0	0	0	0	
6	0	0	0	0	534	490	0	0	0	0	
7	0	0	0	0	533	485	0	0	0	0	
8	0	0	0	0	536	481	0	0	0	0	
9	0	0	0	0	541	479	0	0	0	0	
10	0	0	0	0	548	477	0	0	0	0	
11	0	0	0	0	557	477	0	0	0	0	
12	0	0	0	0	566	478	0	0	0	0	
13	0	0	0	0	576	480	0	0	0	0	
14	0	0	0	0	586	482	0	0	0	0	
15	0	0	0	0	595	485	0	0	0	0	
0	0	0	0	0	603	488	0	0	0	0	
1	0	0	0	0	607	492	0	0	0	0	
2	0	0	0	0	607	494	0	0	0	0	
3	0	0	0	0	604	496	0	0	0	0	
4	0	0	0	0	596	497	0	0	0	0	
5	0	0	0	0	586	496	0	0	0	0	
6	0	0	0	0	572	496	0	0	0	0	
7	0	0	0	0	557	494	0	0	0	0	
8	0	0	0	0	540	491	0	0	0	0	
9	0	0	0	0	524	489	0	0	0	0	
10	0	0	0	0	509	486	0	0	0	0	
11	0	0	0	0	496	483	0	0	0	0	
12	0	0	0	0	486	480	0	0	0	0	
13	0	0	0	0	479	478	0	0	0	0	
14	0	0	0	0	476	476	0	0	0	0	
15	0	0	0	0	478	476	0	0	0	0	
0	0	0	0	0	484	475	0	0	0	0	
1	0	0	0	0	495	475	0	0	0	0	
2	0	0	0	0	509	476	0	0	0	0	
3	0	0	0	0	524	476	0	0	0	0	
4	0	0	0	0	539	476	0	0	0	0	
5	0	0	0	0	551	475	0	0	0	0	
6	0	0	0	0	563	475	0	0	0	0	
7	0	0	0	0	570	473	0	0	0	0	
8	0	0	0	0	574	472	0	0	0	0	
9	0	0	0	0	575	471	0	0	0	0	
10	0	0	0	0	572	469	0	0	0	0	
11	0	0	0	0	568	468	0	0	0	0	
12	0	0	0	0	563	467	0	0	0	0	
13	0	0	0	0	558	468	0	0	0	0	
14	0	0	0	0	555	469	0	0	0	0	
15	0	0	0	0	552	472	0	0	0	0	
0	0	0	0	0	552	474	0	0	0	0	
1	0	0	0	0	552	477	0	0	0	0	
2	0	0	0	0	552	481	0	0	0	0	
3	0	0	0	0	551	483	0	0	0	0	
4	0	0	0	0	549	486	0	0	0	0	
5	0	0	0	0	546	486	0	0	0	0	
6	0	0	0	0	542	486	0	0	0	0	
7	0	0	0	0	536	484	0	0	0	0	
8	0	0	0	0	531	481	0	0	0	0	
9	0	0	0	0	527	478	0	0	0	0	
10	0	0	0	0	524	476	0	0	0	0	
11	0	0	0	0	524	474	0	0	0	0	
12	0	0	0	0	526	473	0	0	0	0	
13	0	0	0	0	531	475	0	0	0	0	
14	0	0	0	0	537	476	0	0	0	0	
15	0	0	0	0	545	480	0	0	0	0	
0	0	0	0	0	554	484	0	0	0	0	
1	0	0	0	0	561	488	0	0	0	0	
2	0	0	0	0	567	493	0	0	0	0	
3	0	0	0	0	572	498	0	0	0	0	
4	0	0	0	0	574	503	0	0	0	0	
5	0	0	0	0	575	508	0	0	0	0	
6	0	0	0	0	575	513	0	0	0	0	
7	0	0	0	0	574	516	0	0	0	0	
8	0	0	0	0	574	519	0	0	0	0	
9	0	0	0	0	574	520	0	0	0	0	
10	0	0	0	0	574	521	0	0	0	0	
11	0	0	0	0	573	519	0	0	0	0	
12	0	0	0	0	573	516	0	0	0	0	
13	0	0	0	0	571	512	0	0	0	0	
14	0	0	0	0	568	507	0	0	0	0	
15	0	0	0	0	565	502	0	0	0	0	
0	0	0	0	0	560	495	0	0	0	0	
1	0	0	0	0	555	489	0	0	0	0	
2	0	0	0	0	550	483	0	0	0	0	
3	0	0	0	0	545	478	0	0	0	0	
4	0	0	0	0	542	474	0	0	0	0	
5	0	0	0	0	539	471	0	0	0	0	
6	0	0	0	0	537	469	0	0	0	0	
7	0	0	0	0	534	467	0	0	0	0	
8	0	0	0	0	530	467	0	0	0	0	
9	0	0	0	0	524	466	0	0	0	0	
10	0	0	0	0	518	466	0	0	0	0	
11	0	0	0	0	510	466	0	0	0	0	
12	0	0	0	0	503	465	0	0	0	0	
13	0	0	0	0	496	465	0	0	0	0	
14	0	0	0	0	490	464	0	0	0	0	
15	0	0	0	0	487	464	0	0	0	0	
0	0	0	0	0	486	463	0	0	0	0	
1	0	0	0	0	488	462	0	0	0	0	
2	0	0	0	0	493	461	0	0	0	0	
3	0	0	0	0	501	462	0	0	0	0	
4	0	0	0	0	511	463	0	0	0	0	
5	0	0	0	0	523	464	0	0	0	0	
6	0	0	0	0	535	467	0	0	0	0	
7	0	0	0	0	547	471	0	0	0	0	
8	0	0	0	0	559	476	0	0	0	0	
9	0	0	0	0	569	480	0	0	0	0	
10	0	0	0	0	577	484	0	0	0	0	
11	0	0	0	0	584	488	0	0	0	0	
12	0	0	0	0	590	493	0	0	0	0	
13	0	0	0	0	594	497	0	0	0	0	
14	0	0	0	0	596	500	0	0	0	0	
15	0	0	0	0	597	503	0	0	0	0	
0	0	0	0	0	595	504	0	0	0	0	
1	0	0	0	0	591	505	0	0	0	0	
2	0	0	0	0	585	506	0	0	0	0	
3	0	0	0	0	576	506	0	0	0	0	
4	0	0	0	0	566	504	0	0	0	0	
5	0	0	0	0	554	502	0	0	0	0	
6	0	0	0	0	542	499	0	0	0	0	
7	0	0	0	0	529	495	0	0	0	0	
8	0	0	0	0	518	491	0	0	0	0	
9	0	0	0	0	508	487	0	0	0	0	
10	0	0	0	0	500	483	0	0	0	0	
11	0	0	0	0	495	480	0	0	0	0	
12	0	0	0	0	493	478	0	0	0	0	
13	0	0	0	0	494	476	0	0	0	0	
14	0	0	0	0	496	475	0	0	0	0	
15	0	0	0	0	500	475	0	0	0	0	
0	0	0	0	0	506	475	0	0	0	0	
1	0	0	0	0	513	476	0	0	0	0	
2	0	0	0	0	521	478	0	0	0	0	
3	0	0	0	0	530	480	0	0	0	0	
4	0	0	0	0	539	483	0	0	0	0	
5	0	0	0	0	546	485	0	0	0	0	
6	0	0	0	0	553	488	0	0	0	0	
7	0	0	0	0	558	490	0	0	0	0	
8	0	0	0	0	560	492	0	0	0	0	
9	0	0	0	0	561	492	0	0	0	0	
10	0	0	0	0	558	492	0	0	0	0	
11	0	0	0	0	552	490	0	0	0	0	
12	0	0	0	0	543	487	0	0	0	0	
13	0	0	0	0	532	481	0	0	0	0	
14	0	0	0	0	520	476	0	0	0	0	
15	0	0	0	0	508	470	0	0	0	0	
0	0	0	0	0	497	464	0	0	0	0	
1	0	0	0	0	489	460	0	0	0	0	
2	0	0	0	0	487	457	0	0	0	0	
3	0	0	0	0	489	455	0	0	0	0	
4	0	0	0	0	495	455	0	0	0	0	
5	0	0	0	0	505	455	0	0	0	0	
6	0	0	0	0	518	456	0	0	0	0	
7	0	0	0	0	532	457	0	0	0	0	
8	0	0	0	0	547	458	0	0	0	0	
9	0	0	0	0	563	460	0	0	0	0	
10	0	0	0	0	577	461	0	0	0	0	
11	0	0	0	0	588	462	0	0	0	0	
12	0	0	0	0	597	464	0	0	0	0	
13	0	0	0	0	602	466	0	0	0	0	
14	0	0	0	0	604	468	0	0	0	0	
15	0	0	0	0	602	472	0	0	0	0	
0	0	0	0	0	596	475	0	0	0	0	
1	0	0	0	0	588	480	0	0	0	0	
2	0	0	0	0	575	484	0	0	0	0	
3	0	0	0	0	563	489	0	0	0	0	
4	0	0	0	0	551	495	0	0	0	0	
5	0	0	0	0	538	499	0	0	0	0	
6	0	0	0	0	527	504	0	0	0	0	
7	0	0	0	0	518	508	0	0	0	0	
8	0	0	0	0	510	510	0	0	0	0	
9	0	0	0	0	505	512	0	0	0	0	
10	0	0	0	0	502	511	0	0	0	0	
11	0	0	0	0	502	509	0	0	0	0	
12	0	0	0	0	504	506	0	0	0	0	
13	0	0	0	0	509	502	0	0	0	0	
14	0	0	0	0	515	497	0	0	0	0	
15	0	0	0	0	522	491	0	0	0	0	
0	0	0	0	0	528	484	0	0	0	0	
1	0	0	0	0	533	478	0	0	0	0	
2	0	0	0	0	537	471	0	0	0	0	
3	0	0	0	0	539	464	0	0	0	0	
4	0	0	0	0	540	458	0	0	0	0	
5	0	0	0	0	540	453	0	0	0	0	
6	0	0	0	0	539	449	0	0	0	0	
7	0	0	0	0	538	448	0	0	0	0	
8	0	0	0	0	538	448	0	0	0	0	
9	0	0	0	0	539	451	0	0	0	0	
10	0	0	0	0	541	456	0	0	0	0	
11	0	0	0	0	544	463	0	0	0	0	
12	0	0	0	0	550	470	0	0	0	0	
13	0	0	0	0	556	478	0	0	0	0	
14	0	0	0	0	563	486	0	0	0	0	
15	0	0	0	0	569	492	0	0	0	0	
0	0	0	0	0	573	498	0	0	0	0	
1	0	0	0	0	575	501	0	0	0	0	
2	0	0	0	0	575	503	0	0	0	0	
3	0	0	0	0	573	503	0	0	0	0	
4	0	0	0	0	569	501	0	0	0	0	
5	0	0	0	0	563	498	0	0	0	0	
6	0	0	0	0	557	493	0	0	0	0	
7	0	0	0	0	550	487	0	0	0	0	
8	0	0	0	0	542	481	0	0	0	0	
9	0	0	0	0	534	476	0	0	0	0	
10	0	0	0	0	527	470	0	0	0	0	
11	0	0	0	0	520	466	0	0	0	0	
12	0	0	0	0	516	463	0	0	0	0	
13	0	0	0	0	513	462	0	0	0	0	
14	0	0	0	0	513	463	0	0	0	0	
15	0	0	0	0	515	465	0	0	0	0	
0	0	0	0	0	520	470	0	0	0	0	
1	0	0	0	0	528	476	0	0	0	0	
2	0	0	0	0	537	482	0	0	0	0	
3	0	0	0	0	546	488	0	0	0	0	
4	0	0	0	0	555	494	0	0	0	0	
5	0	0	0	0	561	498	0	0	0	0	
6	0	0	0	0	565	500	0	0	0	0	
7	0	0	0	0	566	500	0	0	0	0	
8	0	0	0	0	565	499	0	0	0	0	
9	0	0	0	0	562	496	0	0	0	0	
10	0	0	0	0	556	492	0	0	0	0	
11	0	0	0	0	549	487	0	0	0	0	
12	0	0	0	0	540	481	0	0	0	0	
13	0	0	0	0	531	476	0	0	0	0	
14	0	0	0	0	523	473	0	0	0	0	
15	0	0	0	0	516	471	0	0	0	0	
0	0	0	0	0	512	470	0	0	0	0	
1	0	0	0	0	511	472	0	0	0	0	
2	0	0	0	0	513	475	0	0	0	0	
3	0	0	0	0	518	478	0	0	0	0	
4	0	0	0	0	524	481	0	0	0	0	
5	0	0	0	0	532	485	0	0	0	0	
6	0	0	0	0	540	487	0	0	0	0	
7	0	0	0	0	546	489	0	0	0	0	
8	0	0	0	0	553	492	0	0	0	0	
9	0	0	0	0	557	494	0	0	0	0	
10	0	0	0	0	560	495	0	0	0	0	
11	0	0	0	0	561	496	0	0	0	0	
12	0	0	0	0	561	495	0	0	0	0	
13	0	0	0	0	559	495	0	0	0	0	
14	0	0	0	0	558	493	0	0	0	0	
15	0	0	0	0	556	491	0	0	0	0	
0	0	0	0	0	555	487	0	0	0	0	
1	0	0	0	0	553	483	0	0	0	0	
2	0	0	0	0	553	479	0	0	0	0	
3	0	0	0	0	553	474	0	0	0	0	
4	0	0	0	0	554	471	0	0	0	0	
5	0	0	0	0	555	466	0	0	0	0	
6	0	0	0	0	556	463	0	0	0	0	
7	0	0	0	0	556	462	0	0	0	0	
8	0	0	0	0	555	460	0	0	0	0	
9	0	0	0	0	553	460	0	0	0	0	
10	0	0	0	0	550	460	0	0	0	0	
11	0	0	0	0	545	460	0	0	0	0	
12	0	0	0	0	540	461	0	0	0	0	
13	0	0	0	0	534	462	0	0	0	0	
14	0	0	0	0	529	463	0	0	0	0	
15	0	0	0	0	524	463	0	0	0	0	
0	0	0	0	0	518	463	0	0	0	0	
1	0	0	0	0	513	462	0	0	0	0	
2	0	0	0	0	508	461	0	0	0	0	
3	0	0	0	0	505	460	0	0	0	0	
4	0	0	0	0	504	459	0	0	0	0	
5	0	0	0	0	505	458	0	0	0	0	
6	0	0	0	0	508	459	0	0	0	0	
7	0	0	0	0	515	460	0	0	0	0	
8	0	0	0	0	522	462	0	0	0	0	
9	0	0	0	0	531	465	0	0	0	0	
10	0	0	0	0	539	468	0	0	0	0	
11	0	0	0	0	547	471	0	0	0	0	
12	0	0	0	0	555	474	0	0	0	0	
13	0	0	0	0	562	478	0	0	0	0	
14	0	0	0	0	568	481	0	0	0	0	
15	0	0	0	0	573	484	0	0	0	0	
0	0	0	0	0	575	486	0	0	0	0	
1	0	0	0	0	575	487	0	0	0	0	
2	0	0	0	0	573	487	0	0	0	0	
3	0	0	0	0	568	487	0	0	0	0	
4	0	0	0	0	561	486	0	0	0	0	
5	0	0	0	0	553	485	0	0	0	0	
6	0	0	0	0	544	483	0	0	0	0	
7	0	0	0	0	536	481	0	0	0	0	
8	0	0	0	0	528	480	0	0	0	0	
9	0	0	0	0	522	477	0	0	0	0	
10	0	0	0	0	517	475	0	0	0	0	
11	0	0	0	0	513	472	0	0	0	0	
12	0	0	0	0	511	471	0	0	0	0	
13	0	0	0	0	510	469	0	0	0	0	
14	0	0	0	0	511	467	0	0	0	0	
15	0	0	0	0	514	467	0	0	0	0	
0	0	0	0	0	519	468	0	0	0	0	
1	0	0	0	0	525	470	0	0	0	0	
2	0	0	0	0	531	472	0	0	0	0	
3	0	0	0	0	539	476	0	0	0	0	
4	0	0	0	0	545	478	0	0	0	0	
5	0	0	0	0	550	480	0	0	0	0	
6	0	0	0	0	553	482	0	0	0	0	
7	0	0	0	0	553	482	0	0	0	0	
8	0	0	0	0	552	481	0	0	0	0	
9	0	0	0	0	549	480	0	0	0	0	
10	0	0	0	0	544	478	0	0	0	0	
11	0	0	0	0	538	475	0	0	0	0	
12	0	0	0	0	531	471	0	0	0	0	
13	0	0	0	0	526	467	0	0	0	0	
14	0	0	0	0	521	464	0	0	0	0	
15	0	0	0	0	519	461	0	0	0	0	
0	0	0	0	0	518	460	0	0	0	0	
1	0	0	0	0	518	458	0	0	0	0	
2	0	0	0	0	521	458	0	0	0	0	
3	0	0	0	0	524	460	0	0	0	0	
4	0	0	0	0	528	462	0	0	0	0	
5	0	0	0	0	533	464	0	0	0	0	
6	0	0	0	0	537	467	0	0	0	0	
7	0	0	0	0	541	471	0	0	0	0	
8	0	0	0	0	543	474	0	0	0	0	
9	0	0	0	0	543	477	0	0	0	0	
10	0	0	0	0	541	480	0	0	0	0	
11	0	0	0	0	537	481	0	0	0	0	
12	0	0	0	0	531	481	0	0	0	0	
13	0	0	0	0	525	481	0	0	0	0	
14	0	0	0	0	519	480	0	0	0	0	
15	0	0	0	0	515	478	0	0	0	0	
0	0	0	0	0	513	476	0	0	0	0	
1	0	0	0	0	513	473	0	0	0	0	
2	0	0	0	0	516	471	0	0	0	0	
3	0	0	0	0	520	468	0	0	0	0	
4	0	0	0	0	524	465	0	0	0	0	
5	0	0	0	0	527	463	0	0	0	0	
6	0	0	0	0	529	460	0	0	0	0	
7	0	0	0	0	531	458	0	0	0	0	
8	0	0	0	0	533	457	0	0	0	0	
9	0	0	0	0	535	456	0	0	0	0	
10	0	0	0	0	536	456	0	0	0	0	
11	0	0	0	0	536	456	0	0	0	0	
12	0	0	0	0	536	457	0	0	0	0	
13	0	0	0	0	535	458	0	0	0	0	
14	0	0	0	0	533	460	0	0	0	0	
15	0	0	0	0	531	461	0	0	0	0	
0	0	0	0	0	529	462	0	0	0	0	
1	0	0	0	0	527	462	0	0	0	0	
2	0	0	0	0	525	462	0	0	0	0	
3	0	0	0	0	523	462	0	0	0	0	
4	0	0	0	0	521	462	0	0	0	0	
5	0	0	0	0	520	462	0	0	0	0	
6	0	0	0	0	520	463	0	0	0	0	
7	0	0	0	0	523	466	0	0	0	0	
8	0	0	0	0	527	469	0	0	0	0	
9	0	0	0	0	533	473	0	0	0	0	
10	0	0	0	0	539	476	0	0	0	0	
11	0	0	0	0	544	480	0	0	0	0	
12	0	0	0	0	550	482	0	0	0	0	
13	0	0	0	0	554	484	0	0	0	0	
14	0	0	0	0	557	485	0	0	0	0	
15	0	0	0	0	560	484	0	0	0	0	
0	0	0	0	0	562	484	0	0	0	0	
1	0	0	0	0	563	483	0	0	0	0	
2	0	0	0	0	565	481	0	0	0	0	
3	0	0	0	0	566	480	0	0	0	0	
4	0	0	0	0	566	478	0	0	0	0	
5	0	0	0	0	564	476	0	0	0	0	
6	0	0	0	0	563	476	0	0	0	0	
7	0	0	0	0	561	476	0	0	0	0	
8	0	0	0	0	560	476	0	0	0	0	
9	0	0	0	0	557	475	0	0	0	0	
10	0	0	0	0	553	475	0	0	0	0	
11	0	0	0	0	549	475	0	0	0	0	
12	0	0	0	0	543	474	0	0	0	0	
13	0	0	0	0	537	472	0	0	0	0	
14	0	0	0	0	531	470	0	0	0	0	
15	0	0	0	0	523	466	0	0	0	0	
0	0	0	0	0	515	462	0	0	0	0	
1	0	0	0	0	506	456	0	0	0	0	
2	0	0	0	0	497	449	0	0	0	0	
3	0	0	0	0	487	441	0	0	0	0	
4	0	0	0	0	476	432	0	0	0	0	
5	0	0	0	0	465	421	0	0	0	0	
6	0	0	0	0	454	409	0	0	0	0	
7	0	0	0	0	441	396	0	0	0	0	
8	0	0	0	0	427	381	0	0	0	0	
9	0	0	0	0	414	366	0	0	0	0	
10	0	0	0	0	399	349	0	0	0	0	
11	0	0	0	0	384	332	0	0	0	0	
12	0	0	0	0	369	315	0	0	0	0	
13	0	0	0	0	355	297	0	0	0	0	
14	0	0	0	0	342	280	0	0	0	0	
15	0	0	0	0	329	263	0	0	0	0	
0	0	0	0	0	318	246	0	0	0	0	
1	0	0	0	0	308	231	0	0	0	0	
2	0	0	0	0	300	218	0	0	0	0	
3	0	0	0	0	294	207	0	0	0	0	
4	0	0	0	0	288	199	0	0	0	0	
5	0	0	0	0	284	193	0	0	0	0	
6	0	0	0	0	283	192	0	0	0	0	
7	0	0	0	0	283	192	0	0	0	0	
8	0	0	0	0	284	196	0	0	0	0	
9	0	0	0	0	287	202	0	0	0	0	
10	0	0	0	0	291	211	0	0	0	0	
11	0	0	0	0	297	223	0	0	0	0	
12	0	0	0	0	304	237	0	0	0	0	
13	0	0	0	0	313	252	0	0	0	0	
14	0	0	0	0	324	271	0	0	0	0	
15	0	0	0	0	339	291	0	0	0	0	
0	0	0	0	0	357	313	0	0	0	0	
1	0	0	0	0	379	336	0	0	0	0	
2	0	0	0	0	404	361	0	0	0	0	
3	0	0	0	0	432	387	0	0	0	0	
4	0	0	0	0	462	411	0	0	0	0	
5	0	0	0	0	490	433	0	0	0	0	
6	0	0	0	0	517	454	0	0	0	0	
7	0	0	0	0	541	472	0	0	0	0	
8	0	0	0	0	560	485	0	0	0	0	
9	0	0	0	0	574	495	0	0	0	0	
10	0	0	0	0	583	502	0	0	0	0	
11	0	0	0	0	585	504	0	0	0	0	
12	0	0	0	0	583	504	0	0	0	0	
13	0	0	0	0	578	501	0	0	0	0	
14	0	0	0	0	570	496	0	0	0	0	
15	0	0	0	0	560	491	0	0	0	0	
0	0	0	0	0	551	485	0	0	0	0	
1	0	0	0	0	541	479	0	0	0	0	
2	0	0	0	0	533	474	0	0	0	0	
3	0	0	0	0	527	471	0	0	0	0	
4	0	0	0	0	522	468	0	0	0	0	
5	0	0	0	0	519	467	0	0	0	0	
6	0	0	0	0	518	467	0	0	0	0	
7	0	0	0	0	519	469	0	0	0	0	
8	0	0	0	0	521	472	0	0	0	0	
9	0	0	0	0	524	476	0	0	0	0	
10	0	0	0	0	528	480	0	0	0	0	
11	0	0	0	0	532	483	0	0	0	0	
12	0	0	0	0	536	486	0	0	0	0	
13	0	0	0	0	540	489	0	0	0	0	
14	0	0	0	0	543	489	0	0	0	0	
15	0	0	0	0	546	489	0	0	0	0	
0	0	0	0	0	547	487	0	0	0	0	
1	0	0	0	0	549	484	0	0	0	0	
2	0	0	0	0	550	481	0	0	0	0	
3	0	0	0	0	549	477	0	0	0	0	
4	0	0	0	0	549	472	0	0	0	0	
5	0	0	0	0	548	469	0	0	0	0	
6	0	0	0	0	547	466	0	0	0	0	
7	0	0	0	0	546	463	0	0	0	0	
8	0	0	0	0	546	463	0	0	0	0	
9	0	0	0	0	547	464	0	0	0	0	
10	0	0	0	0	548	467	0	0	0	0	
11	0	0	0	0	551	471	0	0	0	0	
12	0	0	0	0	553	477	0	0	0	0	
13	0	0	0	0	556	483	0	0	0	0	
14	0	0	0	0	559	489	0	0	0	0	
15	0	0	0	0	560	496	0	0	0	0	
0	0	0	0	0	560	502	0	0	0	0	
1	0	0	0	0	559	507	0	0	0	0	
2	0	0	0	0	556	510	0	0	0	0	
3	0	0	0	0	553	512	0	0	0	0	
4	0	0	0	0	548	512	0	0	0	0	
5	0	0	0	0	543	510	0	0	0	0	
6	0	0	0	0	537	506	0	0	0	0	
7	0	0	0	0	531	500	0	0	0	0	
8	0	0	0	0	527	494	0	0	0	0	
9	0	0	0	0	524	486	0	0	0	0	
10	0	0	0	0	523	479	0	0	0	0	
11	0	0	0	0	525	472	0	0	0	0	
12	0	0	0	0	530	467	0	0	0	0	
13	0	0	0	0	539	462	0	0	0	0	
14	0	0	0	0	550	460	0	0	0	0	
15	0	0	0	0	563	460	0	0	0	0	
0	0	0	0	0	576	463	0	0	0	0	
1	0	0	0	0	588	467	0	0	0	0	
2	0	0	0	0	598	474	0	0	0	0	
3	0	0	0	0	603	481	0	0	0	0	
4	0	0	0	0	604	489	0	0	0	0	
5	0	0	0	0	602	497	0	0	0	0	
6	0	0	0	0	596	505	0	0	0	0	
7	0	0	0	0	588	511	0	0	0	0	
8	0	0	0	0	577	515	0	0	0	0	
9	0	0	0	0	565	519	0	0	0	0	
10	0	0	0	0	552	520	0	0	0	0	
11	0	0	0	0	539	519	0	0	0	0	
12	0	0	0	0	528	516	0	0	0	0	
13	0	0	0	0	519	512	0	0	0	0	
14	0	0	0	0	513	507	0	0	0	0	
15	0	0	0	0	510	501	0	0	0	0	
0	0	0	0	0	511	496	0	0	0	0	
1	0	0	0	0	515	491	0	0	0	0	
2	0	0	0	0	522	487	0	0	0	0	
3	0	0	0	0	530	483	0	0	0	0	
4	0	0	0	0	540	481	0	0	0	0	
5	0	0	0	0	548	480	0	0	0	0	
6	0	0	0	0	556	480	0	0	0	0	
7	0	0	0	0	562	481	0	0	0	0	
8	0	0	0	0	566	483	0	0	0	0	
9	0	0	0	0	568	486	0	0	0	0	
10	0	0	0	0	566	488	0	0	0	0	
11	0	0	0	0	563	491	0	0	0	0	
12	0	0	0	0	558	492	0	0	0	0	
13	0	0	0	0	552	493	0	0	0	0	
14	0	0	0	0	545	493	0	0	0	0	
15	0	0	0	0	538	491	0	0	0	0	
0	0	0	0	0	531	489	0	0	0	0	
1	0	0	0	0	525	485	0	0	0	0	
2	0	0	0	0	520	482	0	0	0	0	
3	0	0	0	0	516	478	0	0	0	0	
4	0	0	0	0	513	473	0	0	0	0	
5	0	0	0	0	512	471	0	0	0	0	
6	0	0	0	0	511	467	0	0	0	0	
7	0	0	0	0	511	465	0	0	0	0	
8	0	0	0	0	512	465	0	0	0	0	
9	0	0	0	0	511	465	0	0	0	0	
10	0	0	0	0	511	467	0	0	0	0	
11	0	0	0	0	509	469	0	0	0	0	
12	0	0	0	0	508	473	0	0	0	0	
13	0	0	0	0	510	478	0	0	0	0	
14	0	0	0	0	514	483	0	0	0	0	
15	0	0	0	0	522	489	0	0	0	0	
0	0	0	0	0	534	495	0	0	0	0	
1	0	0	0	0	550	500	0	0	0	0	
2	0	0	0	0	569	506	0	0	0	0	
3	0	0	0	0	590	511	0	0	0	0	
4	0	0	0	0	611	515	0	0	0	0	
5	0	0	0	0	628	516	0	0	0	0	
6	0	0	0	0	641	515	0	0	0	0	
7	0	0	0	0	648	512	0	0	0	0	
8	0	0	0	0	649	508	0	0	0	0	
9	0	0	0	0	642	501	0	0	0	0	
10	0	0	0	0	627	492	0	0	0	0	
11	0	0	0	0	607	483	0	0	0	0	
12	0	0	0	0	583	473	0	0	0	0	
13	0	0	0	0	557	465	0	0	0	0	
14	0	0	0	0	530	458	0	0	0	0	
15	0	0	0	0	504	452	0	0	0	0	
0	0	0	0	0	482	448	0	0	0	0	
1	0	0	0	0	463	445	0	0	0	0	
2	0	0	0	0	449	443	0	0	0	0	
3	0	0	0	0	441	442	0	0	0	0	
4	0	0	0	0	438	441	0	0	0	0	
5	0	0	0	0	440	441	0	0	0	0	
6	0	0	0	0	447	442	0	0	0	0	
7	0	0	0	0	457	444	0	0	0	0	
8	0	0	0	0	471	446	0	0	0	0	
9	0	0	0	0	486	449	0	0	0	0	
10	0	0	0	0	503	454	0	0	0	0	
11	0	0	0	0	519	460	0	0	0	0	
12	0	0	0	0	536	466	0	0	0	0	
13	0	0	0	0	551	473	0	0	0	0	
14	0	0	0	0	563	481	0	0	0	0	
15	0	0	0	0	574	488	0	0	0	0	
0	0	0	0	0	583	496	0	0	0	0	
1	0	0	0	0	588	502	0	0	0	0	
2	0	0	0	0	591	508	0	0	0	0	
3	0	0	0	0	592	511	0	0	0	0	
4	0	0	0	0	591	514	0	0	0	0	
5	0	0	0	0	587	514	0	0	0	0	
6	0	0	0	0	581	513	0	0	0	0	
7	0	0	0	0	574	511	0	0	0	0	
8	0	0	0	0	565	506	0	0	0	0	
9	0	0	0	0	556	500	0	0	0	0	
10	0	0	0	0	546	494	0	0	0	0	
11	0	0	0	0	536	486	0	0	0	0	
12	0	0	0	0	526	478	0	0	0	0	
13	0	0	0	0	518	469	0	0	0	0	
14	0	0	0	0	510	461	0	0	0	0	
15	0	0	0	0	504	454	0	0	0	0	
0	0	0	0	0	500	448	0	0	0	0	
1	0	0	0	0	498	444	0	0	0	0	
2	0	0	0	0	497	441	0	0	0	0	
3	0	0	0	0	499	440	0	0	0	0	
4	0	0	0	0	503	441	0	0	0	0	
5	0	0	0	0	508	445	0	0	0	0	
6	0	0	0	0	514	450	0	0	0	0	
7	0	0	0	0	521	456	0	0	0	0	
8	0	0	0	0	529	463	0	0	0	0	
9	0	0	0	0	537	470	0	0	0	0	
10	0	0	0	0	544	477	0	0	0	0	
11	0	0	0	0	550	483	0	0	0	0	
12	0	0	0	0	554	487	0	0	0	0	
13	0	0	0	0	558	491	0	0	0	0	
14	0	0	0	0	559	493	0	0	0	0	
15	0	0	0	0	559	494	0	0	0	0	
0	0	0	0	0	558	493	0	0	0	0	
1	0	0	0	0	555	492	0	0	0	0	
2	0	0	0	0	551	490	0	0	0	0	
3	0	0	0	0	546	487	0	0	0	0	
4	0	0	0	0	539	484	0	0	0	0	
5	0	0	0	0	531	480	0	0	0	0	
6	0	0	0	0	523	476	0	0	0	0	
7	0	0	0	0	515	472	0	0	0	0	
8	0	0	0	0	509	469	0	0	0	0	
9	0	0	0	0	506	466	0	0	0	0	
10	0	0	0	0	505	463	0	0	0	0	
11	0	0	0	0	507	462	0	0	0	0	
12	0	0	0	0	511	460	0	0	0	0	
13	0	0	0	0	516	460	0	0	0	0	
14	0	0	0	0	523	460	0	0	0	0	
15	0	0	0	0	530	461	0	0	0	0	
0	0	0	0	0	536	463	0	0	0	0	
1	0	0	0	0	542	464	0	0	0	0	
2	0	0	0	0	546	467	0	0	0	0	
3	0	0	0	0	547	469	0	0	0	0	
4	0	0	0	0	547	471	0	0	0	0	
5	0	0	0	0	545	472	0	0	0	0	
6	0	0	0	0	542	473	0	0	0	0	
7	0	0	0	0	538	473	0	0	0	0	
8	0	0	0	0	534	473	0	0	0	0	
9	0	0	0	0	529	473	0	0	0	0	
10	0	0	0	0	526	473	0	0	0	0	
11	0	0	0	0	523	474	0	0	0	0	
12	0	0	0	0	520	475	0	0	0	0	
13	0	0	0	0	518	477	0	0	0	0	
14	0	0	0	0	515	480	0	0	0	0	
15	0	0	0	0	511	482	0	0	0	0	
0	0	0	0	0	507	486	0	0	0	0	
1	0	0	0	0	503	488	0	0	0	0	
2	0	0	0	0	501	491	0	0	0	0	
3	0	0	0	0	500	493	0	0	0	0	
4	0	0	0	0	503	494	0	0	0	0	
5	0	0	0	0	508	492	0	0	0	0	
6	0	0	0	0	516	490	0	0	0	0	
7	0	0	0	0	526	486	0	0	0	0	
8	0	0	0	0	536	480	0	0	0	0	
9	0	0	0	0	544	475	0	0	0	0	
10	0	0	0	0	552	468	0	0	0	0	
11	0	0	0	0	559	462	0	0	0	0	
12	0	0	0	0	563	456	0	0	0	0	
13	0	0	0	0	566	452	0	0	0	0	
14	0	0	0	0	566	449	0	0	0	0	
15	0	0	0	0	565	448	0	0	0	0	
0	0	0	0	0	562	449	0	0	0	0	
1	0	0	0	0	559	452	0	0	0	0	
2	0	0	0	0	556	458	0	0	0	0	
3	0	0	0	0	553	465	0	0	0	0	
4	0	0	0	0	554	473	0	0	0	0	
5	0	0	0	0	556	482	0	0	0	0	
6	0	0	0	0	560	489	0	0	0	0	
7	0	0	0	0	565	496	0	0	0	0	
8	0	0	0	0	571	501	0	0	0	0	
9	0	0	0	0	575	504	0	0	0	0	
10	0	0	0	0	575	505	0	0	0	0	
11	0	0	0	0	572	503	0	0	0	0	
12	0	0	0	0	566	498	0	0	0	0	
13	0	0	0	0	557	492	0	0	0	0	
14	0	0	0	0	546	484	0	0	0	0	
15	0	0	0	0	535	477	0	0	0	0	
0	0	0	0	0	524	470	0	0	0	0	
1	0	0	0	0	515	463	0	0	0	0	
2	0	0	0	0	507	458	0	0	0	0	
3	0	0	0	0	502	456	0	0	0	0	
4	0	0	0	0	500	455	0	0	0	0	
5	0	0	0	0	502	456	0	0	0	0	
6	0	0	0	0	507	459	0	0	0	0	
7	0	0	0	0	515	464	0	0	0	0	
8	0	0	0	0	526	470	0	0	0	0	
9	0	0	0	0	539	477	0	0	0	0	
10	0	0	0	0	552	484	0	0	0	0	
11	0	0	0	0	564	491	0	0	0	0	
12	0	0	0	0	574	496	0	0	0	0	
13	0	0	0	0	581	501	0	0	0	0	
14	0	0	0	0	585	505	0	0	0	0	
15	0	0	0	0	585	505	0	0	0	0	
0	0	0	0	0	581	505	0	0	0	0	
1	0	0	0	0	575	502	0	0	0	0	
2	0	0	0	0	565	498	0	0	0	0	
3	0	0	0	0	553	492	0	0	0	0	
4	0	0	0	0	541	485	0	0	0	0	
5	0	0	0	0	529	478	0	0	0	0	
6	0	0	0	0	516	471	0	0	0	0	
7	0	0	0	0	505	465	0	0	0	0	
8	0	0	0	0	496	460	0	0	0	0	
9	0	0	0	0	489	456	0	0	0	0	
10	0	0	0	0	484	453	0	0	0	0	
11	0	0	0	0	480	451	0	0	0	0	
12	0	0	0	0	480	450	0	0	0	0	
13	0	0	0	0	481	451	0	0	0	0	
14	0	0	0	0	483	451	0	0	0	0	
15	0	0	0	0	487	452	0	0	0	0	
0	0	0	0	0	493	455	0	0	0	0	
1	0	0	0	0	499	457	0	0	0	0	
2	0	0	0	0	505	459	0	0	0	0	
3	0	0	0	0	512	462	0	0	0	0	
4	0	0	0	0	519	464	0	0	0	0	
5	0	0	0	0	525	467	0	0	0	0	
6	0	0	0	0	531	470	0	0	0	0	
7	0	0	0	0	537	473	0	0	0	0	
8	0	0	0	0	542	476	0	0	0	0	
9	0	0	0	0	548	480	0	0	0	0	
10	0	0	0	0	554	484	0	0	0	0	
11	0	0	0	0	559	487	0	0	0	0	
12	0	0	0	0	564	492	0	0	0	0	
13	0	0	0	0	569	497	0	0	0	0	
14	0	0	0	0	573	501	0	0	0	0	
15	0	0	0	0	575	504	0	0	0	0	
0	0	0	0	0	577	508	0	0	0	0	
1	0	0	0	0	578	510	0	0	0	0	
2	0	0	0	0	577	510	0	0	0	0	
3	0	0	0	0	576	511	0	0	0	0	
4	0	0	0	0	574	509	0	0	0	0	
5	0	0	0	0	572	507	0	0	0	0	
6	0	0	0	0	569	504	0	0	0	0	
7	0	0	0	0	566	500	0	0	0	0	
8	0	0	0	0	563	497	0	0	0	0	
9	0	0	0	0	558	492	0	0	0	0	
10	0	0	0	0	553	487	0	0	0	0	
11	0	0	0	0	547	483	0	0	0	0	
12	0	0	0	0	541	479	0	0	0	0	
13	0	0	0	0	534	475	0	0	0	0	
14	0	0	0	0	527	471	0	0	0	0	
15	0	0	0	0	521	468	0	0	0	0	
0	0	0	0	0	516	467	0	0	0	0	
1	0	0	0	0	512	466	0	0	0	0	
2	0	0	0	0	510	468	0	0	0	0	
3	0	0	0	0	509	470	0	0	0	0	
4	0	0	0	0	510	473	0	0	0	0	
5	0	0	0	0	512	478	0	0	0	0	
6	0	0	0	0	515	482	0	0	0	0	
7	0	0	0	0	519	485	0	0	0	0	
8	0	0	0	0	524	487	0	0	0	0	
9	0	0	0	0	527	487	0	0	0	0	
10	0	0	0	0	531	486	0	0	0	0	
11	0	0	0	0	536	483	0	0	0	0	
12	0	0	0	0	539	479	0	0	0	0	
13	0	0	0	0	542	475	0	0	0	0	
14	0	0	0	0	545	470	0	0	0	0	
15	0	0	0	0	547	464	0	0	0	0	
0	0	0	0	0	548	460	0	0	0	0	
1	0	0	0	0	548	456	0	0	0	0	
2	0	0	0	0	547	453	0	0	0	0	
3	0	0	0	0	544	451	0	0	0	0	
4	0	0	0	0	540	450	0	0	0	0	
5	0	0	0	0	534	450	0	0	0	0	
6	0	0	0	0	526	451	0	0	0	0	
7	0	0	0	0	518	452	0	0	0	0	
8	0	0	0	0	510	454	0	0	0	0	
9	0	0	0	0	501	456	0	0	0	0	
10	0	0	0	0	494	459	0	0	0	0	
11	0	0	0	0	489	462	0	0	0	0	
12	0	0	0	0	486	465	0	0	0	0	
13	0	0	0	0	486	468	0	0	0	0	
14	0	0	0	0	489	470	0	0	0	0	
15	0	0	0	0	494	472	0	0	0	0	
0	0	0	0	0	502	473	0	0	0	0	
1	0	0	0	0	510	473	0	0	0	0	
2	0	0	0	0	520	474	0	0	0	0	
3	0	0	0	0	531	475	0	0	0	0	
4	0	0	0	0	544	477	0	0	0	0	
5	0	0	0	0	557	480	0	0	0	0	
6	0	0	0	0	571	483	0	0	0	0	
7	0	0	0	0	584	488	0	0	0	0	
8	0	0	0	0	595	493	0	0	0	0	
9	0	0	0	0	604	498	0	0	0	0	
10	0	0	0	0	608	502	0	0	0	0	
11	0	0	0	0	608	505	0	0	0	0	
12	0	0	0	0	604	508	0	0	0	0	
13	0	0	0	0	596	509	0	0	0	0	
14	0	0	0	0	584	508	0	0	0	0	
15	0	0	0	0	571	506	0	0	0	0	
0	0	0	0	0	556	503	0	0	0	0	
1	0	0	0	0	541	498	0	0	0	0	
2	0	0	0	0	527	492	0	0	0	0	
3	0	0	0	0	515	486	0	0	0	0	
4	0	0	0	0	505	480	0	0	0	0	
5	0	0	0	0	496	473	0	0	0	0	
6	0	0	0	0	489	468	0	0	0	0	
7	0	0	0	0	486	463	0	0	0	0	
8	0	0	0	0	484	460	0	0	0	0	
9	0	0	0	0	484	458	0	0	0	0	
10	0	0	0	0	488	459	0	0	0	0	
11	0	0	0	0	493	460	0	0	0	0	
12	0	0	0	0	499	464	0	0	0	0	
13	0	0	0	0	508	467	0	0	0	0	
14	0	0	0	0	516	471	0	0	0	0	
15	0	0	0	0	524	475	0	0	0	0	
0	0	0	0	0	531	477	0	0	0	0	
1	0	0	0	0	537	479	0	0	0	0	
2	0	0	0	0	541	479	0	0	0	0	
3	0	0	0	0	543	478	0	0	0	0	
4	0	0	0	0	544	475	0	0	0	0	
5	0	0	0	0	544	472	0	0	0	0	
6	0	0	0	0	544	469	0	0	0	0	
7	0	0	0	0	545	465	0	0	0	0	
8	0	0	0	0	545	462	0	0	0	0	
9	0	0	0	0	547	459	0	0	0	0	
10	0	0	0	0	548	457	0	0	0	0	
11	0	0	0	0	549	456	0	0	0	0	
12	0	0	0	0	549	456	0	0	0	0	
13	0	0	0	0	549	457	0	0	0	0	
14	0	0	0	0	548	459	0	0	0	0	
15	0	0	0	0	546	462	0	0	0	0	
0	0	0	0	0	545	465	0	0	0	0	
1	0	0	0	0	543	469	0	0	0	0	
2	0	0	0	0	543	473	0	0	0	0	
3	0	0	0	0	542	478	0	0	0	0	
4	0	0	0	0	543	483	0	0	0	0	
5	0	0	0	0	544	487	0	0	0	0	
6	0	0	0	0	545	492	0	0	0	0	
7	0	0	0	0	546	495	0	0	0	0	
8	0	0	0	0	545	498	0	0	0	0	
9	0	0	0	0	544	499	0	0	0	0	
10	0	0	0	0	542	500	0	0	0	0	
11	0	0	0	0	538	500	0	0	0	0	
12	0	0	0	0	532	499	0	0	0	0	
13	0	0	0	0	528	497	0	0	0	0	
14	0	0	0	0	523	494	0	0	0	0	
15	0	0	0	0	520	491	0	0	0	0	
0	0	0	0	0	518	488	0	0	0	0	
1	0	0	0	0	516	484	0	0	0	0	
2	0	0	0	0	517	482	0	0	0	0	
3	0	0	0	0	519	479	0	0	0	0	
4	0	0	0	0	522	476	0	0	0	0	
5	0	0	0	0	525	474	0	0	0	0	
6	0	0	0	0	527	472	0	0	0	0	
7	0	0	0	0	530	471	0	0	0	0	
8	0	0	0	0	532	470	0	0	0	0	
9	0	0	0	0	535	471	0	0	0	0	
10	0	0	0	0	537	471	0	0	0	0	
11	0	0	0	0	538	472	0	0	0	0	
12	0	0	0	0	539	473	0	0	0	0	
13	0	0	0	0	539	475	0	0	0	0	
14	0	0	0	0	540	477	0	0	0	0	
15	0	0	0	0	539	479	0	0	0	0	
0	0	0	0	0	537	480	0	0	0	0	
1	0	0	0	0	535	480	0	0	0	0	
2	0	0	0	0	532	480	0	0	0	0	
3	0	0	0	0	530	480	0	0	0	0	
4	0	0	0	0	527	478	0	0	0	0	
5	0	0	0	0	525	476	0	0	0	0	
6	0	0	0	0	522	473	0	0	0	0	
7	0	0	0	0	520	470	0	0	0	0	
8	0	0	0	0	517	465	0	0	0	0	
9	0	0	0	0	515	462	0	0	0	0	
10	0	0	0	0	514	459	0	0	0	0	
11	0	0	0	0	514	456	0	0	0	0	
12	0	0	0	0	515	455	0	0	0	0	
13	0	0	0	0	517	454	0	0	0	0	
14	0	0	0	0	520	454	0	0	0	0	
15	0	0	0	0	524	454	0	0	0	0	
0	0	0	0	0	527	455	0	0	0	0	
1	0	0	0	0	531	458	0	0	0	0	
2	0	0	0	0	535	461	0	0	0	0	
3	0	0	0	0	537	464	0	0	0	0	
4	0	0	0	0	539	467	0	0	0	0	
5	0	0	0	0	541	470	0	0	0	0	
6	0	0	0	0	542	473	0	0	0	0	
7	0	0	0	0	543	476	0	0	0	0	
8	0	0	0	0	544	479	0	0	0	0	
9	0	0	0	0	547	480	0	0	0	0	
10	0	0	0	0	548	481	0	0	0	0	
11	0	0	0	0	548	483	0	0	0	0	
12	0	0	0	0	548	483	0	0	0	0	
13	0	0	0	0	547	483	0	0	0	0	
14	0	0	0	0	546	483	0	0	0	0	
15	0	0	0	0	544	483	0	0	0	0	
0	0	0	0	0	543	484	0	0	0	0	
1	0	0	0	0	542	484	0	0	0	0	
2	0	0	0	0	540	486	0	0	0	0	
3	0	0	0	0	540	486	0	0	0	0	
4	0	0	0	0	540	487	0	0	0	0	
5	0	0	0	0	540	488	0	0	0	0	
6	0	0	0	0	541	490	0	0	0	0	
7	0	0	0	0	542	491	0	0	0	0	
8	0	0	0	0	543	493	0	0	0	0	
9	0	0	0	0	545	494	0	0	0	0	
10	0	0	0	0	547	494	0	0	0	0	
11	0	0	0	0	547	495	0	0	0	0	
12	0	0	0	0	547	494	0	0	0	0	
13	0	0	0	0	546	493	0	0	0	0	
14	0	0	0	0	543	491	0	0	0	0	
15	0	0	0	0	541	488	0	0	0	0	
0	0	0	0	0	539	486	0	0	0	0	
1	0	0	0	0	536	482	0	0	0	0	
2	0	0	0	0	535	479	0	0	0	0	
3	0	0	0	0	532	476	0	0	0	0	
4	0	0	0	0	531	475	0	0	0	0	
5	0	0	0	0	529	473	0	0	0	0	
6	0	0	0	0	527	472	0	0	0	0	
7	0	0	0	0	526	472	0	0	0	0	
8	0	0	0	0	526	473	0	0	0	0	
9	0	0	0	0	526	475	0	0	0	0	
10	0	0	0	0	527	477	0	0	0	0	
11	0	0	0	0	529	479	0	0	0	0	
12	0	0	0	0	532	479	0	0	0	0	
13	0	0	0	0	535	479	0	0	0	0	
14	0	0	0	0	537	478	0	0	0	0	
15	0	0	0	0	540	476	0	0	0	0	
0	0	0	0	0	541	474	0	0	0	0	
1	0	0	0	0	543	472	0	0	0	0	
2	0	0	0	0	544	470	0	0	0	0	
3	0	0	0	0	544	468	0	0	0	0	
4	0	0	0	0	544	468	0	0	0	0	
5	0	0	0	0	544	467	0	0	0	0	
6	0	0	0	0	543	467	0	0	0	0	
7	0	0	0	0	543	468	0	0	0	0	
8	0	0	0	0	543	469	0	0	0	0	
9	0	0	0	0	543	471	0	0	0	0	
10	0	0	0	0	543	472	0	0	0	0	
11	0	0	0	0	542	474	0	0	0	0	
12	0	0	0	0	542	475	0	0	0	0	
13	0	0	0	0	542	476	0	0	0	0	
14	0	0	0	0	543	478	0	0	0	0	
15	0	0	0	0	543	479	0	0	0	0	
0	0	0	0	0	544	480	0	0	0	0	
1	0	0	0	0	545	481	0	0	0	0	
2	0	0	0	0	547	481	0	0	0	0	
3	0	0	0	0	548	482	0	0	0	0	
4	0	0	0	0	549	482	0	0	0	0	
5	0	0	0	0	550	482	0	0	0	0	
6	0	0	0	0	549	481	0	0	0	0	
7	0	0	0	0	549	480	0	0	0	0	
8	0	0	0	0	548	479	0	0	0	0	
9	0	0	0	0	548	479	0	0	0	0	
10	0	0	0	0	549	479	0	0	0	0	
11	0	0	0	0	549	480	0	0	0	0	
12	0	0	0	0	549	483	0	0	0	0	
13	0	0	0	0	548	484	0	0	0	0	
14	0	0	0	0	545	486	0	0	0	0	
15	0	0	0	0	542	486	0	0	0	0	
0	0	0	0	0	535	486	0	0	0	0	
1	0	0	0	0	527	484	0	0	0	0	
2	0	0	0	0	517	482	0	0	0	0	
3	0	0	0	0	507	480	0	0	0	0	
4	0	0	0	0	497	477	0	0	0	0	
5	0	0	0	0	487	475	0	0	0	0	
6	0	0	0	0	480	473	0	0	0	0	
7	0	0	0	0	475	472	0	0	0	0	
8	0	0	0	0	473	472	0	0	0	0	
9	0	0	0	0	475	472	0	0	0	0	
10	0	0	0	0	480	472	0	0	0	0	
11	0	0	0	0	488	472	0	0	0	0	
12	0	0	0	0	500	472	0	0	0	0	
13	0	0	0	0	513	472	0	0	0	0	
14	0	0	0	0	529	473	0	0	0	0	
15	0	0	0	0	544	473	0	0	0	0	
0	0	0	0	0	560	474	0	0	0	0	
1	0	0	0	0	574	475	0	0	0	0	
2	0	0	0	0	586	477	0	0	0	0	
3	0	0	0	0	595	479	0	0	0	0	
4	0	0	0	0	600	480	0	0	0	0	
5	0	0	0	0	600	481	0	0	0	0	
6	0	0	0	0	595	482	0	0	0	0	
7	0	0	0	0	586	481	0	0	0	0	
8	0	0	0	0	574	479	0	0	0	0	
9	0	0	0	0	558	476	0	0	0	0	
10	0	0	0	0	540	472	0	0	0	0	
11	0	0	0	0	522	467	0	0	0	0	
12	0	0	0	0	505	461	0	0	0	0	
13	0	0	0	0	488	455	0	0	0	0	
14	0	0	0	0	473	448	0	0	0	0	
15	0	0	0	0	460	442	0	0	0	0	
0	0	0	0	0	448	437	0	0	0	0	
1	0	0	0	0	439	432	0	0	0	0	
2	0	0	0	0	433	430	0	0	0	0	
3	0	0	0	0	432	428	0	0	0	0	
4	0	0	0	0	436	429	0	0	0	0	
5	0	0	0	0	445	431	0	0	0	0	
6	0	0	0	0	460	435	0	0	0	0	
7	0	0	0	0	478	440	0	0	0	0	
8	0	0	0	0	499	447	0	0	0	0	
9	0	0	0	0	521	455	0	0	0	0	
10	0	0	0	0	543	462	0	0	0	0	
11	0	0	0	0	563	470	0	0	0	0	
12	0	0	0	0	580	477	0	0	0	0	
13	0	0	0	0	591	482	0	0	0	0	
14	0	0	0	0	598	486	0	0	0	0	
15	0	0	0	0	600	488	0	0	0	0	
0	0	0	0	0	596	489	0	0	0	0	
1	0	0	0	0	590	489	0	0	0	0	
2	0	0	0	0	580	487	0	0	0	0	
3	0	0	0	0	571	486	0	0	0	0	
4	0	0	0	0	560	484	0	0	0	0	
5	0	0	0	0	551	482	0	0	0	0	
6	0	0	0	0	543	481	0	0	0	0	
7	0	0	0	0	537	480	0	0	0	0	
8	0	0	0	0	532	479	0	0	0	0	
9	0	0	0	0	529	479	0	0	0	0	
10	0	0	0	0	527	479	0	0	0	0	
11	0	0	0	0	527	478	0	0	0	0	
12	0	0	0	0	527	478	0	0	0	0	
13	0	0	0	0	529	477	0	0	0	0	
14	0	0	0	0	532	476	0	0	0	0	
15	0	0	0	0	537	476	0	0	0	0	
0	0	0	0	0	542	474	0	0	0	0	
1	0	0	0	0	548	473	0	0	0	0	
2	0	0	0	0	552	472	0	0	0	0	
3	0	0	0	0	555	471	0	0	0	0	
4	0	0	0	0	556	470	0	0	0	0	
5	0	0	0	0	556	469	0	0	0	0	
6	0	0	0	0	552	468	0	0	0	0	
7	0	0	0	0	548	467	0	0	0	0	
8	0	0	0	0	542	466	0	0	0	0	
9	0	0	0	0	536	466	0	0	0	0	
10	0	0	0	0	531	466	0	0	0	0	
11	0	0	0	0	527	467	0	0	0	0	
12	0	0	0	0	523	469	0	0	0	0	
13	0	0	0	0	521	472	0	0	0	0	
14	0	0	0	0	520	475	0	0	0	0	
15	0	0	0	0	520	478	0	0	0	0	
0	0	0	0	0	522	480	0	0	0	0	
1	0	0	0	0	524	483	0	0	0	0	
2	0	0	0	0	526	485	0	0	0	0	
3	0	0	0	0	528	487	0	0	0	0	
4	0	0	0	0	530	487	0	0	0	0	
5	0	0	0	0	532	487	0	0	0	0	
6	0	0	0	0	534	486	0	0	0	0	
7	0	0	0	0	535	484	0	0	0	0	
8	0	0	0	0	536	481	0	0	0	0	
9	0	0	0	0	536	478	0	0	0	0	
10	0	0	0	0	536	476	0	0	0	0	
11	0	0	0	0	534	473	0	0	0	0	
12	0	0	0	0	531	471	0	0	0	0	
13	0	0	0	0	527	469	0	0	0	0	
14	0	0	0	0	522	468	0	0	0	0	
15	0	0	0	0	517	468	0	0	0	0	
0	0	0	0	0	512	468	0	0	0	0	
1	0	0	0	0	510	470	0	0	0	0	
2	0	0	0	0	509	473	0	0	0	0	
3	0	0	0	0	512	476	0	0	0	0	
4	0	0	0	0	518	481	0	0	0	0	
5	0	0	0	0	527	486	0	0	0	0	
6	0	0	0	0	539	491	0	0	0	0	
7	0	0	0	0	552	495	0	0	0	0	
8	0	0	0	0	566	498	0	0	0	0	
9	0	0	0	0	576	500	0	0	0	0	
10	0	0	0	0	585	501	0	0	0	0	
11	0	0	0	0	589	500	0	0	0	0	
12	0	0	0	0	590	498	0	0	0	0	
13	0	0	0	0	586	494	0	0	0	0	
14	0	0	0	0	580	490	0	0	0	0	
15	0	0	0	0	572	485	0	0	0	0	
0	0	0	0	0	561	479	0	0	0	0	
1	0	0	0	0	550	473	0	0	0	0	
2	0	0	0	0	539	466	0	0	0	0	
3	0	0	0	0	527	459	0	0	0	0	
4	0	0	0	0	517	452	0	0	0	0	
5	0	0	0	0	507	444	0	0	0	0	
6	0	0	0	0	498	435	0	0	0	0	
7	0	0	0	0	488	426	0	0	0	0	
8	0	0	0	0	479	416	0	0	0	0	
9	0	0	0	0	470	406	0	0	0	0	
10	0	0	0	0	460	396	0	0	0	0	
11	0	0	0	0	450	384	0	0	0	0	
12	0	0	0	0	439	373	0	0	0	0	
13	0	0	0	0	427	360	0	0	0	0	
14	0	0	0	0	414	348	0	0	0	0	
15	0	0	0	0	401	335	0	0	0	0	
0	0	0	0	0	387	321	0	0	0	0	
1	0	0	0	0	370	307	0	0	0	0	
2	0	0	0	0	352	292	0	0	0	0	
3	0	0	0	0	334	277	0	0	0	0	
4	0	0	0	0	314	262	0	0	0	0	
5	0	0	0	0	293	246	0	0	0	0	
6	0	0	0	0	273	232	0	0	0	0	
7	0	0	0	0	253	219	0	0	0	0	
8	0	0	0	0	234	207	0	0	0	0	
9	0	0	0	0	220	199	0	0	0	0	
10	0	0	0	0	210	195	0	0	0	0	
11	0	0	0	0	206	194	0	0	0	0	
12	0	0	0	0	208	196	0	0	0	0	
13	0	0	0	0	217	203	0	0	0	0	
14	0	0	0	0	233	214	0	0	0	0	
15	0	0	0	0	257	229	0	0	0	0	
0	0	0	0	0	287	247	0	0	0	0	
1	0	0	0	0	321	268	0	0	0	0	
2	0	0	0	0	359	292	0	0	0	0	
3	0	0	0	0	400	318	0	0	0	0	
4	0	0	0	0	439	344	0	0	0	0	
5	0	0	0	0	477	371	0	0	0	0	
6	0	0	0	0	510	396	0	0	0	0	
7	0	0	0	0	538	420	0	0	0	0	
8	0	0	0	0	560	442	0	0	0	0	
9	0	0	0	0	575	461	0	0	0	0	
10	0	0	0	0	583	476	0	0	0	0	
11	0	0	0	0	587	487	0	0	0	0	
12	0	0	0	0	584	495	0	0	0	0	
13	0	0	0	0	578	499	0	0	0	0	
14	0	0	0	0	568	499	0	0	0	0	
15	0	0	0	0	558	497	0	0	0	0	
0	0	0	0	0	546	492	0	0	0	0	
1	0	0	0	0	535	485	0	0	0	0	
2	0	0	0	0	526	478	0	0	0	0	
3	0	0	0	0	519	471	0	0	0	0	
4	0	0	0	0	514	465	0	0	0	0	
5	0	0	0	0	512	461	0	0	0	0	
6	0	0	0	0	513	459	0	0	0	0	
7	0	0	0	0	518	459	0	0	0	0	
8	0	0	0	0	525	463	0	0	0	0	
9	0	0	0	0	534	469	0	0	0	0	
10	0	0	0	0	545	477	0	0	0	0	
11	0	0	0	0	556	487	0	0	0	0	
12	0	0	0	0	568	497	0	0	0	0	
13	0	0	0	0	578	507	0	0	0	0	
14	0	0	0	0	587	516	0	0	0	0	
15	0	0	0	0	593	524	0	0	0	0	
0	0	0	0	0	597	530	0	0	0	0	
1	0	0	0	0	598	533	0	0	0	0	
2	0	0	0	0	596	535	0	0	0	0	
3	0	0	0	0	592	533	0	0	0	0	
4	0	0	0	0	585	529	0	0	0	0	
5	0	0	0	0	576	524	0	0	0	0	
6	0	0	0	0	567	518	0	0	0	0	
7	0	0	0	0	556	510	0	0	0	0	
8	0	0	0	0	545	502	0	0	0	0	
9	0	0	0	0	536	493	0	0	0	0	
10	0	0	0	0	528	484	0	0	0	0	
11	0	0	0	0	522	477	0	0	0	0	
12	0	0	0	0	519	471	0	0	0	0	
13	0	0	0	0	518	467	0	0	0	0	
14	0	0	0	0	519	465	0	0	0	0	
15	0	0	0	0	523	466	0	0	0	0	
0	0	0	0	0	528	470	0	0	0	0	
1	0	0	0	0	536	475	0	0	0	0	
2	0	0	0	0	544	483	0	0	0	0	
3	0	0	0	0	552	491	0	0	0	0	
4	0	0	0	0	562	500	0	0	0	0	
5	0	0	0	0	572	509	0	0	0	0	
6	0	0	0	0	583	517	0	0	0	0	
7	0	0	0	0	593	524	0	0	0	0	
8	0	0	0	0	602	528	0	0	0	0	
9	0	0	0	0	607	529	0	0	0	0	
10	0	0	0	0	609	528	0	0	0	0	
11	0	0	0	0	605	524	0	0	0	0	
12	0	0	0	0	597	518	0	0	0	0	
13	0	0	0	0	585	509	0	0	0	0	
14	0	0	0	0	569	500	0	0	0	0	
15	0	0	0	0	551	491	0	0	0	0	
0	0	0	0	0	533	482	0	0	0	0	
1	0	0	0	0	516	473	0	0	0	0	
2	0	0	0	0	501	466	0	0	0	0	
3	0	0	0	0	490	461	0	0	0	0	
4	0	0	0	0	486	458	0	0	0	0	
5	0	0	0	0	487	457	0	0	0	0	
6	0	0	0	0	494	458	0	0	0	0	
7	0	0	0	0	504	461	0	0	0	0	
8	0	0	0	0	519	466	0	0	0	0	
9	0	0	0	0	536	472	0	0	0	0	
10	0	0	0	0	553	480	0	0	0	0	
11	0	0	0	0	569	487	0	0	0	0	
12	0	0	0	0	583	496	0	0	0	0	
13	0	0	0	0	595	503	0	0	0	0	
14	0	0	0	0	603	510	0	0	0	0	
15	0	0	0	0	607	515	0	0	0	0	
0	0	0	0	0	608	518	0	0	0	0	
1	0	0	0	0	605	519	0	0	0	0	
2	0	0	0	0	599	519	0	0	0	0	
3	0	0	0	0	591	518	0	0	0	0	
4	0	0	0	0	582	514	0	0	0	0	
5	0	0	0	0	571	511	0	0	0	0	
6	0	0	0	0	561	506	0	0	0	0	
7	0	0	0	0	550	501	0	0	0	0	
8	0	0	0	0	541	496	0	0	0	0	
9	0	0	0	0	534	491	0	0	0	0	
10	0	0	0	0	528	487	0	0	0	0	
11	0	0	0	0	524	484	0	0	0	0	
12	0	0	0	0	521	482	0	0	0	0	
13	0	0	0	0	520	480	0	0	0	0	
14	0	0	0	0	519	480	0	0	0	0	
15	0	0	0	0	520	480	0	0	0	0	
0	0	0	0	0	522	480	0	0	0	0	
1	0	0	0	0	523	480	0	0	0	0	
2	0	0	0	0	525	480	0	0	0	0	
3	0	0	0	0	527	480	0	0	0	0	
4	0	0	0	0	529	479	0	0	0	0	
5	0	0	0	0	532	478	0	0	0	0	
6	0	0	0	0	535	476	0	0	0	0	
7	0	0	0	0	537	474	0	0	0	0	
8	0	0	0	0	539	471	0	0	0	0	
9	0	0	0	0	540	467	0	0	0	0	
10	0	0	0	0	540	462	0	0	0	0	
11	0	0	0	0	539	457	0	0	0	0	
12	0	0	0	0	537	453	0	0	0	0	
13	0	0	0	0	535	449	0	0	0	0	
14	0	0	0	0	532	447	0	0	0	0	
15	0	0	0	0	530	446	0	0	0	0	
0	0	0	0	0	528	446	0	0	0	0	
1	0	0	0	0	526	449	0	0	0	0	
2	0	0	0	0	524	453	0	0	0	0	
3	0	0	0	0	523	459	0	0	0	0	
4	0	0	0	0	522	465	0	0	0	0	
5	0	0	0	0	523	473	0	0	0	0	
6	0	0	0	0	524	481	0	0	0	0	
7	0	0	0	0	526	489	0	0	0	0	
8	0	0	0	0	527	497	0	0	0	0	
9	0	0	0	0	530	504	0	0	0	0	
10	0	0	0	0	533	509	0	0	0	0	
11	0	0	0	0	538	513	0	0	0	0	
12	0	0	0	0	544	516	0	0	0	0	
13	0	0	0	0	552	518	0	0	0	0	
14	0	0	0	0	561	518	0	0	0	0	
15	0	0	0	0	571	518	0	0	0	0	
0	0	0	0	0	581	516	0	0	0	0	
1	0	0	0	0	590	515	0	0	0	0	
2	0	0	0	0	596	513	0	0	0	0	
3	0	0	0	0	600	511	0	0	0	0	
4	0	0	0	0	600	509	0	0	0	0	
5	0	0	0	0	599	507	0	0	0	0	
6	0	0	0	0	594	504	0	0	0	0	
7	0	0	0	0	588	503	0	0	0	0	
8	0	0	0	0	579	500	0	0	0	0	
9	0	0	0	0	571	498	0	0	0	0	
10	0	0	0	0	563	495	0	0	0	0	
11	0	0	0	0	554	491	0	0	0	0	
12	0	0	0	0	545	487	0	0	0	0	
13	0	0	0	0	537	482	0	0	0	0	
14	0	0	0	0	529	477	0	0	0	0	
15	0	0	0	0	521	472	0	0	0	0	
0	0	0	0	0	515	468	0	0	0	0	
1	0	0	0	0	511	465	0	0	0	0	
2	0	0	0	0	508	463	0	0	0	0	
3	0	0	0	0	508	463	0	0	0	0	
4	0	0	0	0	510	464	0	0	0	0	
5	0	0	0	0	512	466	0	0	0	0	
6	0	0	0	0	515	470	0	0	0	0	
7	0	0	0	0	518	474	0	0	0	0	
8	0	0	0	0	520	478	0	0	0	0	
9	0	0	0	0	522	482	0	0	0	0	
10	0	0	0	0	523	484	0	0	0	0	
11	0	0	0	0	523	486	0	0	0	0	
12	0	0	0	0	523	486	0	0	0	0	
13	0	0	0	0	522	484	0	0	0	0	
14	0	0	0	0	521	482	0	0	0	0	
15	0	0	0	0	520	478	0	0	0	0	
0	0	0	0	0	519	474	0	0	0	0	
1	0	0	0	0	519	470	0	0	0	0	
2	0	0	0	0	518	466	0	0	0	0	
3	0	0	0	0	519	463	0	0	0	0	
4	0	0	0	0	520	462	0	0	0	0	
5	0	0	0	0	522	460	0	0	0	0	
6	0	0	0	0	524	459	0	0	0	0	
7	0	0	0	0	526	460	0	0	0	0	
8	0	0	0	0	529	460	0	0	0	0	
9	0	0	0	0	532	462	0	0	0	0	
10	0	0	0	0	535	463	0	0	0	0	
11	0	0	0	0	538	466	0	0	0	0	
12	0	0	0	0	540	469	0	0	0	0	
13	0	0	0	0	543	472	0	0	0	0	
14	0	0	0	0	545	476	0	0	0	0	
15	0	0	0	0	548	479	0	0	0	0	
0	0	0	0	0	551	482	0	0	0	0	
1	0	0	0	0	553	486	0	0	0	0	
2	0	0	0	0	556	489	0	0	0	0	
3	0	0	0	0	559	493	0	0	0	0	
4	0	0	0	0	561	496	0	0	0	0	
5	0	0	0	0	562	499	0	0	0	0	
6	0	0	0	0	563	500	0	0	0	0	
7	0	0	0	0	562	501	0	0	0	0	
8	0	0	0	0	560	501	0	0	0	0	
9	0	0	0	0	557	499	0	0	0	0	
10	0	0	0	0	553	497	0	0	0	0	
11	0	0	0	0	548	494	0	0	0	0	
12	0	0	0	0	543	490	0	0	0	0	
13	0	0	0	0	540	487	0	0	0	0	
14	0	0	0	0	536	483	0	0	0	0	
15	0	0	0	0	533	479	0	0	0	0	
0	0	0	0	0	531	476	0	0	0	0	
1	0	0	0	0	530	473	0	0	0	0	
2	0	0	0	0	530	472	0	0	0	0	
3	0	0	0	0	531	470	0	0	0	0	
4	0	0	0	0	534	470	0	0	0	0	
5	0	0	0	0	537	470	0	0	0	0	
6	0	0	0	0	542	470	0	0	0	0	
7	0	0	0	0	548	471	0	0	0	0	
8	0	0	0	0	553	472	0	0	0	0	
9	0	0	0	0	556	472	0	0	0	0	
10	0	0	0	0	558	472	0	0	0	0	
11	0	0	0	0	558	472	0	0	0	0	
12	0	0	0	0	555	471	0	0	0	0	
13	0	0	0	0	549	470	0	0	0	0	
14	0	0	0	0	540	469	0	0	0	0	
15	0	0	0	0	529	468	0	0	0	0	
0	0	0	0	0	519	467	0	0	0	0	
1	0	0	0	0	508	467	0	0	0	0	
2	0	0	0	0	499	469	0	0	0	0	
3	0	0	0	0	495	471	0	0	0	0	
4	0	0	0	0	492	474	0	0	0	0	
5	0	0	0	0	492	478	0	0	0	0	
6	0	0	0	0	496	482	0	0	0	0	
7	0	0	0	0	503	485	0	0	0	0	
8	0	0	0	0	511	488	0	0	0	0	
9	0	0	0	0	519	491	0	0	0	0	
10	0	0	0	0	529	492	0	0	0	0	
11	0	0	0	0	540	493	0	0	0	0	
12	0	0	0	0	551	493	0	0	0	0	
13	0	0	0	0	561	492	0	0	0	0	
14	0	0	0	0	571	489	0	0	0	0	
15	0	0	0	0	579	487	0	0	0	0	
0	0	0	0	0	586	484	0	0	0	0	
1	0	0	0	0	590	480	0	0	0	0	
2	0	0	0	0	591	477	0	0	0	0	
3	0	0	0	0	589	474	0	0	0	0	
4	0	0	0	0	583	472	0	0	0	0	
5	0	0	0	0	575	469	0	0	0	0	
6	0	0	0	0	565	467	0	0	0	0	
7	0	0	0	0	553	465	0	0	0	0	
8	0	0	0	0	541	463	0	0	0	0	
9	0	0	0	0	530	461	0	0	0	0	
10	0	0	0	0	519	460	0	0	0	0	
11	0	0	0	0	511	458	0	0	0	0	
12	0	0	0	0	504	457	0	0	0	0	
13	0	0	0	0	499	457	0	0	0	0	
14	0	0	0	0	496	457	0	0	0	0	
15	0	0	0	0	496	458	0	0	0	0	
0	0	0	0	0	498	460	0	0	0	0	
1	0	0	0	0	503	462	0	0	0	0	
2	0	0	0	0	509	466	0	0	0	0	
3	0	0	0	0	516	470	0	0	0	0	
4	0	0	0	0	524	475	0	0	0	0	
5	0	0	0	0	533	480	0	0	0	0	
6	0	0	0	0	541	484	0	0	0	0	
7	0	0	0	0	549	489	0	0	0	0	
8	0	0	0	0	555	493	0	0	0	0	
9	0	0	0	0	560	496	0	0	0	0	
10	0	0	0	0	565	500	0	0	0	0	
11	0	0	0	0	568	503	0	0	0	0	
12	0	0	0	0	571	505	0	0	0	0	
13	0	0	0	0	572	507	0	0	0	0	
14	0	0	0	0	572	508	0	0	0	0	
15	0	0	0	0	573	509	0	0	0	0	
0	0	0	0	0	573	508	0	0	0	0	
1	0	0	0	0	573	506	0	0	0	0	
2	0	0	0	0	572	504	0	0	0	0	
3	0	0	0	0	569	499	0	0	0	0	
4	0	0	0	0	566	493	0	0	0	0	
5	0	0	0	0	562	487	0	0	0	0	
6	0	0	0	0	557	480	0	0	0	0	
7	0	0	0	0	550	473	0	0	0	0	
8	0	0	0	0	542	468	0	0	0	0	
9	0	0	0	0	532	463	0	0	0	0	
10	0	0	0	0	521	460	0	0	0	0	
11	0	0	0	0	512	458	0	0	0	0	
12	0	0	0	0	504	457	0	0	0	0	
13	0	0	0	0	498	459	0	0	0	0	
14	0	0	0	0	496	463	0	0	0	0	
15	0	0	0	0	498	467	0	0	0	0	
0	0	0	0	0	505	473	0	0	0	0	
1	0	0	0	0	515	479	0	0	0	0	
2	0	0	0	0	529	486	0	0	0	0	
3	0	0	0	0	544	491	0	0	0	0	
4	0	0	0	0	559	496	0	0	0	0	
5	0	0	0	0	572	499	0	0	0	0	
6	0	0	0	0	581	501	0	0	0	0	
7	0	0	0	0	586	502	0	0	0	0	
8	0	0	0	0	587	500	0	0	0	0	
9	0	0	0	0	582	497	0	0	0	0	
10	0	0	0	0	575	493	0	0	0	0	
11	0	0	0	0	565	489	0	0	0	0	
12	0	0	0	0	556	484	0	0	0	0	
13	0	0	0	0	547	480	0	0	0	0	
14	0	0	0	0	539	477	0	0	0	0	
15	0	0	0	0	532	474	0	0	0	0	
0	0	0	0	0	527	471	0	0	0	0	
1	0	0	0	0	524	470	0	0	0	0	
2	0	0	0	0	519	468	0	0	0	0	
3	0	0	0	0	515	467	0	0	0	0	
4	0	0	0	0	511	465	0	0	0	0	
5	0	0	0	0	507	465	0	0	0	0	
6	0	0	0	0	503	464	0	0	0	0	
7	0	0	0	0	501	464	0	0	0	0	
8	0	0	0	0	500	463	0	0	0	0	
9	0	0	0	0	499	462	0	0	0	0	
10	0	0	0	0	501	461	0	0	0	0	
11	0	0	0	0	504	460	0	0	0	0	
12	0	0	0	0	507	459	0	0	0	0	
13	0	0	0	0	512	458	0	0	0	0	
14	0	0	0	0	517	458	0	0	0	0	
15	0	0	0	0	524	459	0	0	0	0	
0	0	0	0	0	529	460	0	0	0	0	
1	0	0	0	0	535	462	0	0	0	0	
2	0	0	0	0	539	464	0	0	0	0	
3	0	0	0	0	542	466	0	0	0	0	
4	0	0	0	0	543	468	0	0	0	0	
5	0	0	0	0	544	471	0	0	0	0	
6	0	0	0	0	545	473	0	0	0	0	
7	0	0	0	0	547	476	0	0	0	0	
8	0	0	0	0	549	480	0	0	0	0	
9	0	0	0	0	551	483	0	0	0	0	
10	0	0	0	0	553	486	0	0	0	0	
11	0	0	0	0	554	489	0	0	0	0	
12	0	0	0	0	554	489	0	0	0	0	
13	0	0	0	0	552	490	0	0	0	0	
14	0	0	0	0	550	488	0	0	0	0	
15	0	0	0	0	546	487	0	0	0	0	
0	0	0	0	0	543	484	0	0	0	0	
1	0	0	0	0	540	480	0	0	0	0	
2	0	0	0	0	538	478	0	0	0	0	
3	0	0	0	0	537	475	0	0	0	0	
4	0	0	0	0	537	473	0	0	0	0	
5	0	0	0	0	540	472	0	0	0	0	
6	0	0	0	0	542	473	0	0	0	0	
7	0	0	0	0	546	475	0	0	0	0	
8	0	0	0	0	551	477	0	0	0	0	
9	0	0	0	0	554	480	0	0	0	0	
10	0	0	0	0	558	483	0	0	0	0	
11	0	0	0	0	559	484	0	0	0	0	
12	0	0	0	0	559	487	0	0	0	0	
13	0	0	0	0	558	487	0	0	0	0	
14	0	0	0	0	556	489	0	0	0	0	
15	0	0	0	0	554	491	0	0	0	0	
0	0	0	0	0	553	492	0	0	0	0	
1	0	0	0	0	554	493	0	0	0	0	
2	0	0	0	0	557	495	0	0	0	0	
3	0	0	0	0	561	497	0	0	0	0	
4	0	0	0	0	568	498	0	0	0	0	
5	0	0	0	0	573	499	0	0	0	0	
6	0	0	0	0	579	499	0	0	0	0	
7	0	0	0	0	583	499	0	0	0	0	
8	0	0	0	0	583	498	0	0	0	0	
9	0	0	0	0	582	497	0	0	0	0	
10	0	0	0	0	579	495	0	0	0	0	
11	0	0	0	0	575	494	0	0	0	0	
12	0	0	0	0	569	492	0	0	0	0	
13	0	0	0	0	563	491	0	0	0	0	
14	0	0	0	0	557	488	0	0	0	0	
15	0	0	0	0	551	486	0	0	0	0	
0	0	0	0	0	545	483	0	0	0	0	
1	0	0	0	0	541	480	0	0	0	0	
2	0	0	0	0	538	478	0	0	0	0	
3	0	0	0	0	535	476	0	0	0	0	
4	0	0	0	0	532	474	0	0	0	0	
5	0	0	0	0	528	472	0	0	0	0	
6	0	0	0	0	524	471	0	0	0	0	
7	0	0	0	0	519	470	0	0	0	0	
8	0	0	0	0	513	468	0	0	0	0	
9	0	0	0	0	508	467	0	0	0	0	
10	0	0	0	0	504	466	0	0	0	0	
11	0	0	0	0	504	466	0	0	0	0	
12	0	0	0	0	507	467	0	0	0	0	
13	0	0	0	0	511	469	0	0	0	0	
14	0	0	0	0	519	471	0	0	0	0	
15	0	0	0	0	527	473	0	0	0	0	
0	0	0	0	0	536	476	0	0	0	0	
1	0	0	0	0	544	478	0	0	0	0	
2	0	0	0	0	551	480	0	0	0	0	
3	0	0	0	0	555	481	0	0	0	0	
4	0	0	0	0	558	483	0	0	0	0	
5	0	0	0	0	560	485	0	0	0	0	
6	0	0	0	0	560	487	0	0	0	0	
7	0	0	0	0	560	489	0	0	0	0	
8	0	0	0	0	558	489	0	0	0	0	
9	0	0	0	0	557	490	0	0	0	0	
10	0	0	0	0	557	490	0	0	0	0	
11	0	0	0	0	557	489	0	0	0	0	
12	0	0	0	0	556	486	0	0	0	0	
13	0	0	0	0	555	483	0	0	0	0	
14	0	0	0	0	551	479	0	0	0	0	
15	0	0	0	0	546	473	0	0	0	0	
0	0	0	0	0	540	467	0	0	0	0	
1	0	0	0	0	531	462	0	0	0	0	
2	0	0	0	0	521	455	0	0	0	0	
3	0	0	0	0	510	450	0	0	0	0	
4	0	0	0	0	499	445	0	0	0	0	
5	0	0	0	0	488	441	0	0	0	0	
6	0	0	0	0	481	440	0	0	0	0	
7	0	0	0	0	479	440	0	0	0	0	
8	0	0	0	0	483	443	0	0	0	0	
9	0	0	0	0	493	448	0	0	0	0	
10	0	0	0	0	508	455	0	0	0	0	
11	0	0	0	0	526	462	0	0	0	0	
12	0	0	0	0	544	470	0	0	0	0	
13	0	0	0	0	560	477	0	0	0	0	
14	0	0	0	0	572	484	0	0	0	0	
15	0	0	0	0	581	491	0	0	0	0	
0	0	0	0	0	585	496	0	0	0	0	
1	0	0	0	0	586	500	0	0	0	0	
2	0	0	0	0	582	504	0	0	0	0	
3	0	0	0	0	576	505	0	0	0	0	
4	0	0	0	0	569	507	0	0	0	0	
5	0	0	0	0	561	506	0	0	0	0	
6	0	0	0	0	553	505	0	0	0	0	
7	0	0	0	0	547	503	0	0	0	0	
8	0	0	0	0	542	500	0	0	0	0	
9	0	0	0	0	539	496	0	0	0	0	
10	0	0	0	0	537	492	0	0	0	0	
11	0	0	0	0	536	487	0	0	0	0	
12	0	0	0	0	537	483	0	0	0	0	
13	0	0	0	0	539	479	0	0	0	0	
14	0	0	0	0	540	475	0	0	0	0	
15	0	0	0	0	540	471	0	0	0	0	
0	0	0	0	0	541	468	0	0	0	0	
1	0	0	0	0	541	466	0	0	0	0	
2	0	0	0	0	540	464	0	0	0	0	
3	0	0	0	0	539	462	0	0	0	0	
4	0	0	0	0	537	462	0	0	0	0	
5	0	0	0	0	535	461	0	0	0	0	
6	0	0	0	0	532	461	0	0	0	0	
7	0	0	0	0	530	462	0	0	0	0	
8	0	0	0	0	528	462	0	0	0	0	
9	0	0	0	0	526	463	0	0	0	0	
10	0	0	0	0	525	464	0	0	0	0	
11	0	0	0	0	524	466	0	0	0	0	
12	0	0	0	0	524	468	0	0	0	0	
13	0	0	0	0	525	472	0	0	0	0	
14	0	0	0	0	528	476	0	0	0	0	
15	0	0	0	0	532	481	0	0	0	0	
0	0	0	0	0	538	486	0	0	0	0	
1	0	0	0	0	546	492	0	0	0	0	
2	0	0	0	0	555	497	0	0	0	0	
3	0	0	0	0	564	503	0	0	0	0	
4	0	0	0	0	575	507	0	0	0	0	
5	0	0	0	0	585	510	0	0	0	0	
6	0	0	0	0	594	511	0	0	0	0	
7	0	0	0	0	601	511	0	0	0	0	
8	0	0	0	0	604	508	0	0	0	0	
9	0	0	0	0	603	504	0	0	0	0	
10	0	0	0	0	598	497	0	0	0	0	
11	0	0	0	0	587	489	0	0	0	0	
12	0	0	0	0	573	480	0	0	0	0	
13	0	0	0	0	555	470	0	0	0	0	
14	0	0	0	0	537	461	0	0	0	0	
15	0	0	0	0	519	453	0	0	0	0	
0	0	0	0	0	503	447	0	0	0	0	
1	0	0	0	0	490	444	0	0	0	0	
2	0	0	0	0	481	443	0	0	0	0	
3	0	0	0	0	477	444	0	0	0	0	
4	0	0	0	0	478	448	0	0	0	0	
5	0	0	0	0	483	454	0	0	0	0	
6	0	0	0	0	492	462	0	0	0	0	
7	0	0	0	0	502	470	0	0	0	0	
8	0	0	0	0	515	478	0	0	0	0	
9	0	0	0	0	527	486	0	0	0	0	
10	0	0	0	0	540	494	0	0	0	0	
11	0	0	0	0	550	500	0	0	0	0	
12	0	0	0	0	558	504	0	0	0	0	
13	0	0	0	0	563	508	0	0	0	0	
14	0	0	0	0	565	510	0	0	0	0	
15	0	0	0	0	566	511	0	0	0	0	
0	0	0	0	0	567	512	0	0	0	0	
1	0	0	0	0	567	513	0	0	0	0	
2	0	0	0	0	567	513	0	0	0	0	
3	0	0	0	0	567	514	0	0	0	0	
4	0	0	0	0	568	514	0	0	0	0	
5	0	0	0	0	568	513	0	0	0	0	
6	0	0	0	0	568	512	0	0	0	0	
7	0	0	0	0	569	511	0	0	0	0	
8	0	0	0	0	570	509	0	0	0	0	
9	0	0	0	0	571	507	0	0	0	0	
10	0	0	0	0	571	506	0	0	0	0	
11	0	0	0	0	571	504	0	0	0	0	
12	0	0	0	0	570	503	0	0	0	0	
13	0	0	0	0	568	502	0	0	0	0	
14	0	0	0	0	565	501	0	0	0	0	
15	0	0	0	0	562	500	0	0	0	0	
0	0	0	0	0	560	499	0	0	0	0	
1	0	0	0	0	558	497	0	0	0	0	
2	0	0	0	0	556	495	0	0	0	0	
3	0	0	0	0	556	492	0	0	0	0	
4	0	0	0	0	556	489	0	0	0	0	
5	0	0	0	0	557	487	0	0	0	0	
6	0	0	0	0	558	484	0	0	0	0	
7	0	0	0	0	560	484	0	0	0	0	
8	0	0	0	0	561	484	0	0	0	0	
9	0	0	0	0	563	485	0	0	0	0	
10	0	0	0	0	562	486	0	0	0	0	
11	0	0	0	0	561	488	0	0	0	0	
12	0	0	0	0	558	490	0	0	0	0	
13	0	0	0	0	554	492	0	0	0	0	
14	0	0	0	0	549	495	0	0	0	0	
15	0	0	0	0	544	496	0	0	0	0	
0	0	0	0	0	540	498	0	0	0	0	
1	0	0	0	0	537	499	0	0	0	0	
2	0	0	0	0	535	499	0	0	0	0	
3	0	0	0	0	536	498	0	0	0	0	
4	0	0	0	0	537	497	0	0	0	0	
5	0	0	0	0	540	496	0	0	0	0	
6	0	0	0	0	543	493	0	0	0	0	
7	0	0	0	0	548	491	0	0	0	0	
8	0	0	0	0	552	488	0	0	0	0	
9	0	0	0	0	556	486	0	0	0	0	
10	0	0	0	0	560	483	0	0	0	0	
11	0	0	0	0	561	481	0	0	0	0	
12	0	0	0	0	562	479	0	0	0	0	
13	0	0	0	0	563	477	0	0	0	0	
14	0	0	0	0	564	476	0	0	0	0	
15	0	0	0	0	565	476	0	0	0	0	
0	0	0	0	0	566	477	0	0	0	0	
1	0	0	0	0	566	478	0	0	0	0	
2	0	0	0	0	564	479	0	0	0	0	
3	0	0	0	0	561	480	0	0	0	0	
4	0	0	0	0	556	481	0	0	0	0	
5	0	0	0	0	549	481	0	0	0	0	
6	0	0	0	0	542	482	0	0	0	0	
7	0	0	0	0	535	483	0	0	0	0	
8	0	0	0	0	528	483	0	0	0	0	
9	0	0	0	0	525	484	0	0	0	0	
10	0	0	0	0	524	486	0	0	0	0	
11	0	0	0	0	527	488	0	0	0	0	
12	0	0	0	0	531	491	0	0	0	0	
13	0	0	0	0	537	493	0	0	0	0	
14	0	0	0	0	543	495	0	0	0	0	
15	0	0	0	0	547	496	0	0	0	0	
0	0	0	0	0	551	497	0	0	0	0	
1	0	0	0	0	553	499	0	0	0	0	
2	0	0	0	0	556	500	0	0	0	0	
3	0	0	0	0	558	502	0	0	0	0	
4	0	0	0	0	559	503	0	0	0	0	
5	0	0	0	0	560	503	0	0	0	0	
6	0	0	0	0	560	503	0	0	0	0	
7	0	0	0	0	560	502	0	0	0	0	
8	0	0	0	0	558	500	0	0	0	0	
9	0	0	0	0	556	498	0	0	0	0	
10	0	0	0	0	555	495	0	0	0	0	
11	0	0	0	0	552	492	0	0	0	0	
12	0	0	0	0	551	489	0	0	0	0	
13	0	0	0	0	549	487	0	0	0	0	
14	0	0	0	0	548	486	0	0	0	0	
15	0	0	0	0	548	486	0	0	0	0	
0	0	0	0	0	548	487	0	0	0	0	
1	0	0	0	0	550	488	0	0	0	0	
2	0	0	0	0	551	490	0	0	0	0	
3	0	0	0	0	553	494	0	0	0	0	
4	0	0	0	0	556	497	0	0	0	0	
5	0	0	0	0	558	500	0	0	0	0	
6	0	0	0	0	559	504	0	0	0	0	
7	0	0	0	0	558	505	0	0	0	0	
8	0	0	0	0	556	507	0	0	0	0	
9	0	0	0	0	551	507	0	0	0	0	
10	0	0	0	0	545	506	0	0	0	0	
11	0	0	0	0	537	505	0	0	0	0	
12	0	0	0	0	528	503	0	0	0	0	
13	0	0	0	0	519	500	0	0	0	0	
14	0	0	0	0	511	498	0	0	0	0	
15	0	0	0	0	507	496	0	0	0	0	
0	0	0	0	0	505	494	0	0	0	0	
1	0	0	0	0	506	492	0	0	0	0	
2	0	0	0	0	511	491	0	0	0	0	
3	0	0	0	0	518	489	0	0	0	0	
4	0	0	0	0	526	487	0	0	0	0	
5	0	0	0	0	536	485	0	0	0	0	
6	0	0	0	0	546	483	0	0	0	0	
7	0	0	0	0	557	481	0	0	0	0	
8	0	0	0	0	566	480	0	0	0	0	
9	0	0	0	0	573	479	0	0	0	0	
10	0	0	0	0	578	479	0	0	0	0	
11	0	0	0	0	581	478	0	0	0	0	
12	0	0	0	0	581	478	0	0	0	0	
13	0	0	0	0	578	478	0	0	0	0	
14	0	0	0	0	573	479	0	0	0	0	
15	0	0	0	0	566	479	0	0	0	0	
0	0	0	0	0	559	479	0	0	0	0	
1	0	0	0	0	551	479	0	0	0	0	
2	0	0	0	0	544	478	0	0	0	0	
3	0	0	0	0	538	477	0	0	0	0	
4	0	0	0	0	532	475	0	0	0	0	
5	0	0	0	0	528	472	0	0	0	0	
6	0	0	0	0	525	470	0	0	0	0	
7	0	0	0	0	523	467	0	0	0	0	
8	0	0	0	0	522	465	0	0	0	0	
9	0	0	0	0	522	463	0	0	0	0	
10	0	0	0	0	522	461	0	0	0	0	
11	0	0	0	0	522	459	0	0	0	0	
12	0	0	0	0	522	458	0	0	0	0	
13	0	0	0	0	523	457	0	0	0	0	
14	0	0	0	0	524	458	0	0	0	0	
15	0	0	0	0	526	460	0	0	0	0	
0	0	0	0	0	529	462	0	0	0	0	
1	0	0	0	0	533	466	0	0	0	0	
2	0	0	0	0	538	472	0	0	0	0	
3	0	0	0	0	543	477	0	0	0	0	
4	0	0	0	0	549	482	0	0	0	0	
5	0	0	0	0	556	488	0	0	0	0	
6	0	0	0	0	562	493	0	0	0	0	
7	0	0	0	0	568	497	0	0	0	0	
8	0	0	0	0	573	499	0	0	0	0	
9	0	0	0	0	577	501	0	0	0	0	
10	0	0	0	0	581	501	0	0	0	0	
11	0	0	0	0	583	500	0	0	0	0	
12	0	0	0	0	583	498	0	0	0	0	
13	0	0	0	0	580	496	0	0	0	0	
14	0	0	0	0	576	494	0	0	0	0	
15	0	0	0	0	570	492	0	0	0	0	
0	0	0	0	0	564	492	0	0	0	0	
1	0	0	0	0	557	492	0	0	0	0	
2	0	0	0	0	551	493	0	0	0	0	
3	0	0	0	0	547	494	0	0	0	0	
4	0	0	0	0	545	496	0	0	0	0	
5	0	0	0	0	544	498	0	0	0	0	
6	0	0	0	0	546	501	0	0	0	0	
7	0	0	0	0	549	503	0	0	0	0	
8	0	0	0	0	552	504	0	0	0	0	
9	0	0	0	0	556	505	0	0	0	0	
10	0	0	0	0	559	505	0	0	0	0	
11	0	0	0	0	561	504	0	0	0	0	
12	0	0	0	0	563	503	0	0	0	0	
13	0	0	0	0	564	501	0	0	0	0	
14	0	0	0	0	565	499	0	0	0	0	
15	0	0	0	0	566	497	0	0	0	0	
0	0	0	0	0	568	495	0	0	0	0	
1	0	0	0	0	569	494	0	0	0	0	
2	0	0	0	0	571	493	0	0	0	0	
3	0	0	0	0	572	493	0	0	0	0	
4	0	0	0	0	574	494	0	0	0	0	
5	0	0	0	0	577	496	0	0	0	0	
6	0	0	0	0	579	498	0	0	0	0	
7	0	0	0	0	582	501	0	0	0	0	
8	0	0	0	0	584	504	0	0	0	0	
9	0	0	0	0	587	506	0	0	0	0	
10	0	0	0	0	588	507	0	0	0	0	
11	0	0	0	0	588	507	0	0	0	0	
12	0	0	0	0	588	508	0	0	0	0	
13	0	0	0	0	585	507	0	0	0	0	
14	0	0	0	0	582	507	0	0	0	0	
15	0	0	0	0	578	506	0	0	0	0	
0	0	0	0	0	574	505	0	0	0	0	
1	0	0	0	0	570	504	0	0	0	0	
2	0	0	0	0	566	504	0	0	0	0	
3	0	0	0	0	562	503	0	0	0	0	
4	0	0	0	0	558	502	0	0	0	0	
5	0	0	0	0	555	501	0	0	0	0	
6	0	0	0	0	551	500	0	0	0	0	
7	0	0	0	0	548	499	0	0	0	0	
8	0	0	0	0	546	499	0	0	0	0	
9	0	0	0	0	545	499	0	0	0	0	
10	0	0	0	0	545	499	0	0	0	0	
11	0	0	0	0	545	499	0	0	0	0	
12	0	0	0	0	546	500	0	0	0	0	
13	0	0	0	0	547	500	0	0	0	0	
14	0	0	0	0	547	500	0	0	0	0	
15	0	0	0	0	547	499	0	0	0	0	
0	0	0	0	0	543	496	0	0	0	0	
1	0	0	0	0	538	492	0	0	0	0	
2	0	0	0	0	531	487	0	0	0	0	
3	0	0	0	0	524	482	0	0	0	0	
4	0	0	0	0	518	476	0	0	0	0	
5	0	0	0	0	511	470	0	0	0	0	
6	0	0	0	0	507	464	0	0	0	0	
7	0	0	0	0	503	457	0	0	0	0	
8	0	0	0	0	500	450	0	0	0	0	
9	0	0	0	0	497	443	0	0	0	0	
10	0	0	0	0	495	436	0	0	0	0	
11	0	0	0	0	492	429	0	0	0	0	
12	0	0	0	0	488	421	0	0	0	0	
13	0	0	0	0	484	413	0	0	0	0	
14	0	0	0	0	478	404	0	0	0	0	
15	0	0	0	0	470	394	0	0	0	0	
0	0	0	0	0	460	383	0	0	0	0	
1	0	0	0	0	449	371	0	0	0	0	
2	0	0	0	0	435	358	0	0	0	0	
3	0	0	0	0	419	343	0	0	0	0	
4	0	0	0	0	400	327	0	0	0	0	
5	0	0	0	0	380	309	0	0	0	0	
6	0	0	0	0	358	291	0	0	0	0	
7	0	0	0	0	337	273	0	0	0	0	
8	0	0	0	0	315	255	0	0	0	0	
9	0	0	0	0	295	238	0	0	0	0	
10	0	0	0	0	279	224	0	0	0	0	
11	0	0	0	0	265	212	0	0	0	0	
12	0	0	0	0	255	205	0	0	0	0	
13	0	0	0	0	251	203	0	0	0	0	
14	0	0	0	0	252	204	0	0	0	0	
15	0	0	0	0	259	211	0	0	0	0	
0	0	0	0	0	272	223	0	0	0	0	
1	0	0	0	0	291	240	0	0	0	0	
2	0	0	0	0	316	262	0	0	0	0	
3	0	0	0	0	347	287	0	0	0	0	
4	0	0	0	0	381	315	0	0	0	0	
5	0	0	0	0	419	347	0	0	0	0	
6	0	0	0	0	457	379	0	0	0	0	
7	0	0	0	0	496	411	0	0	0	0	
8	0	0	0	0	534	442	0	0	0	0	
9	0	0	0	0	569	471	0	0	0	0	
10	0	0	0	0	600	497	0	0	0	0	
11	0	0	0	0	624	518	0	0	0	0	
12	0	0	0	0	642	535	0	0	0	0	
13	0	0	0	0	652	546	0	0	0	0	
14	0	0	0	0	654	552	0	0	0	0	
15	0	0	0	0	648	554	0	0	0	0	
0	0	0	0	0	636	551	0	0	0	0	
1	0	0	0	0	616	545	0	0	0	0	
2	0	0	0	0	592	536	0	0	0	0	
3	0	0	0	0	567	524	0	0	0	0	
4	0	0	0	0	540	513	0	0	0	0	
5	0	0	0	0	514	502	0	0	0	0	
6	0	0	0	0	493	492	0	0	0	0	
7	0	0	0	0	476	484	0	0	0	0	
8	0	0	0	0	465	479	0	0	0	0	
9	0	0	0	0	462	476	0	0	0	0	
10	0	0	0	0	465	476	0	0	0	0	
11	0	0	0	0	476	480	0	0	0	0	
12	0	0	0	0	493	484	0	0	0	0	
13	0	0	0	0	514	491	0	0	0	0	
14	0	0	0	0	538	499	0	0	0	0	
15	0	0	0	0	563	506	0	0	0	0	
0	0	0	0	0	586	513	0	0	0	0	
1	0	0	0	0	607	519	0	0	0	0	
2	0	0	0	0	622	523	0	0	0	0	
3	0	0	0	0	633	526	0	0	0	0	
4	0	0	0	0	639	527	0	0	0	0	
5	0	0	0	0	638	527	0	0	0	0	
6	0	0	0	0	633	526	0	0	0	0	
7	0	0	0	0	624	523	0	0	0	0	
8	0	0	0	0	613	521	0	0	0	0	
9	0	0	0	0	600	519	0	0	0	0	
10	0	0	0	0	589	516	0	0	0	0	
11	0	0	0	0	579	515	0	0	0	0	
12	0	0	0	0	571	513	0	0	0	0	
13	0	0	0	0	567	513	0	0	0	0	
14	0	0	0	0	566	512	0	0	0	0	
15	0	0	0	0	570	513	0	0	0	0	
0	0	0	0	0	576	514	0	0	0	0	
1	0	0	0	0	585	515	0	0	0	0	
2	0	0	0	0	595	516	0	0	0	0	
3	0	0	0	0	605	518	0	0	0	0	
4	0	0	0	0	613	519	0	0	0	0	
5	0	0	0	0	617	519	0	0	0	0	
6	0	0	0	0	618	519	0	0	0	0	
7	0	0	0	0	615	519	0	0	0	0	
8	0	0	0	0	609	519	0	0	0	0	
9	0	0	0	0	600	518	0	0	0	0	
10	0	0	0	0	591	517	0	0	0	0	
11	0	0	0	0	580	516	0	0	0	0	
12	0	0	0	0	570	515	0	0	0	0	
13	0	0	0	0	561	514	0	0	0	0	
14	0	0	0	0	555	514	0	0	0	0	
15	0	0	0	0	550	514	0	0	0	0	
0	0	0	0	0	547	515	0	0	0	0	
1	0	0	0	0	546	515	0	0	0	0	
2	0	0	0	0	547	516	0	0	0	0	
3	0	0	0	0	549	518	0	0	0	0	
4	0	0	0	0	552	518	0	0	0	0	
5	0	0	0	0	556	519	0	0	0	0	
6	0	0	0	0	560	519	0	0	0	0	
7	0	0	0	0	564	518	0	0	0	0	
8	0	0	0	0	567	516	0	0	0	0	
9	0	0	0	0	571	514	0	0	0	0	
10	0	0	0	0	572	511	0	0	0	0	
11	0	0	0	0	574	508	0	0	0	0	
12	0	0	0	0	575	505	0	0	0	0	
13	0	0	0	0	574	502	0	0	0	0	
14	0	0	0	0	574	499	0	0	0	0	
15	0	0	0	0	572	498	0	0	0	0	
0	0	0	0	0	572	498	0	0	0	0	
1	0	0	0	0	571	498	0	0	0	0	
2	0	0	0	0	571	500	0	0	0	0	
3	0	0	0	0	572	502	0	0	0	0	
4	0	0	0	0	571	505	0	0	0	0	
5	0	0	0	0	572	508	0	0	0	0	
6	0	0	0	0	572	512	0	0	0	0	
7	0	0	0	0	574	515	0	0	0	0	
8	0	0	0	0	574	518	0	0	0	0	
9	0	0	0	0	575	520	0	0	0	0	
10	0	0	0	0	575	522	0	0	0	0	
11	0	0	0	0	574	524	0	0	0	0	
12	0	0	0	0	573	524	0	0	0	0	
13	0	0	0	0	572	526	0	0	0	0	
14	0	0	0	0	571	527	0	0	0	0	
15	0	0	0	0	570	528	0	0	0	0	
0	0	0	0	0	570	529	0	0	0	0	
1	0	0	0	0	571	532	0	0	0	0	
2	0	0	0	0	573	533	0	0	0	0	
3	0	0	0	0	576	535	0	0	0	0	
4	0	0	0	0	581	536	0	0	0	0	
5	0	0	0	0	586	537	0	0	0	0	
6	0	0	0	0	592	536	0	0	0	0	
7	0	0	0	0	598	535	0	0	0	0	
8	0	0	0	0	603	532	0	0	0	0	
9	0	0	0	0	607	529	0	0	0	0	
10	0	0	0	0	609	526	0	0	0	0	
11	0	0	0	0	610	523	0	0	0	0	
12	0	0	0	0	610	519	0	0	0	0	
13	0	0	0	0	608	516	0	0	0	0	
14	0	0	0	0	607	514	0	0	0	0	
15	0	0	0	0	604	511	0	0	0	0	
0	0	0	0	0	601	508	0	0	0	0	
1	0	0	0	0	595	505	0	0	0	0	
2	0	0	0	0	588	502	0	0	0	0	
3	0	0	0	0	581	499	0	0	0	0	
4	0	0	0	0	574	498	0	0	0	0	
5	0	0	0	0	568	497	0	0	0	0	
6	0	0	0	0	562	497	0	0	0	0	
7	0	0	0	0	557	498	0	0	0	0	
8	0	0	0	0	554	501	0	0	0	0	
9	0	0	0	0	552	504	0	0	0	0	
10	0	0	0	0	553	507	0	0	0	0	
11	0	0	0	0	554	510	0	0	0	0	
12	0	0	0	0	554	513	0	0	0	0	
13	0	0	0	0	556	514	0	0	0	0	
14	0	0	0	0	557	514	0	0	0	0	
15	0	0	0	0	558	512	0	0	0	0	
0	0	0	0	0	558	509	0	0	0	0	
1	0	0	0	0	558	505	0	0	0	0	
2	0	0	0	0	558	499	0	0	0	0	
3	0	0	0	0	556	493	0	0	0	0	
4	0	0	0	0	555	487	0	0	0	0	
5	0	0	0	0	551	481	0	0	0	0	
6	0	0	0	0	547	476	0	0	0	0	
7	0	0	0	0	542	473	0	0	0	0	
8	0	0	0	0	536	471	0	0	0	0	
9	0	0	0	0	530	471	0	0	0	0	
10	0	0	0	0	524	472	0	0	0	0	
11	0	0	0	0	518	475	0	0	0	0	
12	0	0	0	0	513	480	0	0	0	0	
13	0	0	0	0	511	485	0	0	0	0	
14	0	0	0	0	512	491	0	0	0	0	
15	0	0	0	0	516	497	0	0	0	0	
0	0	0	0	0	526	503	0	0	0	0	
1	0	0	0	0	537	508	0	0	0	0	
2	0	0	0	0	551	513	0	0	0	0	
3	0	0	0	0	567	516	0	0	0	0	
4	0	0	0	0	582	519	0	0	0	0	
5	0	0	0	0	595	521	0	0	0	0	
6	0	0	0	0	606	522	0	0	0	0	
7	0	0	0	0	613	522	0	0	0	0	
8	0	0	0	0	616	521	0	0	0	0	
9	0	0	0	0	614	519	0	0	0	0	
10	0	0	0	0	609	516	0	0	0	0	
11	0	0	0	0	601	513	0	0	0	0	
12	0	0	0	0	591	510	0	0	0	0	
13	0	0	0	0	582	507	0	0	0	0	
14	0	0	0	0	572	504	0	0	0	0	
15	0	0	0	0	564	502	0	0	0	0	
0	0	0	0	0	559	501	0	0	0	0	
1	0	0	0	0	554	500	0	0	0	0	
2	0	0	0	0	551	501	0	0	0	0	
3	0	0	0	0	552	503	0	0	0	0	
4	0	0	0	0	554	505	0	0	0	0	
5	0	0	0	0	558	508	0	0	0	0	
6	0	0	0	0	562	511	0	0	0	0	
7	0	0	0	0	567	513	0	0	0	0	
8	0	0	0	0	572	516	0	0	0	0	
9	0	0	0	0	576	518	0	0	0	0	
10	0	0	0	0	577	518	0	0	0	0	
11	0	0	0	0	575	517	0	0	0	0	
12	0	0	0	0	570	515	0	0	0	0	
13	0	0	0	0	562	512	0	0	0	0	
14	0	0	0	0	551	509	0	0	0	0	
15	0	0	0	0	540	505	0	0	0	0	
0	0	0	0	0	530	503	0	0	0	0	
1	0	0	0	0	522	500	0	0	0	0	
2	0	0	0	0	518	498	0	0	0	0	
3	0	0	0	0	517	497	0	0	0	0	
4	0	0	0	0	521	497	0	0	0	0	
5	0	0	0	0	528	498	0	0	0	0	
6	0	0	0	0	537	499	0	0	0	0	
7	0	0	0	0	548	502	0	0	0	0	
8	0	0	0	0	560	504	0	0	0	0	
9	0	0	0	0	572	507	0	0	0	0	
10	0	0	0	0	583	511	0	0	0	0	
11	0	0	0	0	593	514	0	0	0	0	
12	0	0	0	0	602	516	0	0	0	0	
13	0	0	0	0	608	519	0	0	0	0	
14	0	0	0	0	611	519	0	0	0	0	
15	0	0	0	0	611	519	0	0	0	0	
0	0	0	0	0	607	516	0	0	0	0	
1	0	0	0	0	599	512	0	0	0	0	
2	0	0	0	0	588	507	0	0	0	0	
3	0	0	0	0	576	500	0	0	0	0	
4	0	0	0	0	563	494	0	0	0	0	
5	0	0	0	0	551	487	0	0	0	0	
6	0	0	0	0	542	482	0	0	0	0	
7	0	0	0	0	536	478	0	0	0	0	
8	0	0	0	0	534	477	0	0	0	0	
9	0	0	0	0	536	476	0	0	0	0	
10	0	0	0	0	540	478	0	0	0	0	
11	0	0	0	0	546	480	0	0	0	0	
12	0	0	0	0	553	483	0	0	0	0	
13	0	0	0	0	561	486	0	0	0	0	
14	0	0	0	0	568	490	0	0	0	0	
15	0	0	0	0	572	493	0	0	0	0	
0	0	0	0	0	575	495	0	0	0	0	
1	0	0	0	0	574	497	0	0	0	0	
2	0	0	0	0	571	497	0	0	0	0	
3	0	0	0	0	566	497	0	0	0	0	
4	0	0	0	0	558	496	0	0	0	0	
5	0	0	0	0	548	494	0	0	0	0	
6	0	0	0	0	536	491	0	0	0	0	
7	0	0	0	0	524	487	0	0	0	0	
8	0	0	0	0	511	483	0	0	0	0	
9	0	0	0	0	499	477	0	0	0	0	
10	0	0	0	0	488	472	0	0	0	0	
11	0	0	0	0	479	467	0	0	0	0	
12	0	0	0	0	474	462	0	0	0	0	
13	0	0	0	0	472	458	0	0	0	0	
14	0	0	0	0	476	456	0	0	0	0	
15	0	0	0	0	483	455	0	0	0	0	
0	0	0	0	0	495	455	0	0	0	0	
1	0	0	0	0	511	459	0	0	0	0	
2	0	0	0	0	530	464	0	0	0	0	
3	0	0	0	0	550	472	0	0	0	0	
4	0	0	0	0	569	480	0	0	0	0	
5	0	0	0	0	587	489	0	0	0	0	
6	0	0	0	0	601	499	0	0	0	0	
7	0	0	0	0	612	509	0	0	0	0	
8	0	0	0	0	620	517	0	0	0	0	
9	0	0	0	0	623	525	0	0	0	0	
10	0	0	0	0	623	530	0	0	0	0	
11	0	0	0	0	620	534	0	0	0	0	
12	0	0	0	0	612	535	0	0	0	0	
13	0	0	0	0	603	534	0	0	0	0	
14	0	0	0	0	593	531	0	0	0	0	
15	0	0	0	0	581	526	0	0	0	0	
0	0	0	0	0	571	520	0	0	0	0	
1	0	0	0	0	561	515	0	0	0	0	
2	0	0	0	0	553	509	0	0	0	0	
3	0	0	0	0	547	504	0	0	0	0	
4	0	0	0	0	543	500	0	0	0	0	
5	0	0	0	0	542	497	0	0	0	0	
6	0	0	0	0	542	495	0	0	0	0	
7	0	0	0	0	544	494	0	0	0	0	
8	0	0	0	0	547	494	0	0	0	0	
9	0	0	0	0	552	494	0	0	0	0	
10	0	0	0	0	557	495	0	0	0	0	
11	0	0	0	0	561	497	0	0	0	0	
12	0	0	0	0	565	498	0	0	0	0	
13	0	0	0	0	568	499	0	0	0	0	
14	0	0	0	0	569	499	0	0	0	0	
15	0	0	0	0	569	499	0	0	0	0	
0	0	0	0	0	568	499	0	0	0	0	
1	0	0	0	0	566	498	0	0	0	0	
2	0	0	0	0	561	496	0	0	0	0	
3	0	0	0	0	557	494	0	0	0	0	
4	0	0	0	0	551	492	0	0	0	0	
5	0	0	0	0	544	491	0	0	0	0	
6	0	0	0	0	539	489	0	0	0	0	
7	0	0	0	0	533	488	0	0	0	0	
8	0	0	0	0	529	488	0	0	0	0	
9	0	0	0	0	527	488	0	0	0	0	
10	0	0	0	0	527	488	0	0	0	0	
11	0	0	0	0	528	488	0	0	0	0	
12	0	0	0	0	531	489	0	0	0	0	
13	0	0	0	0	537	489	0	0	0	0	
14	0	0	0	0	545	490	0	0	0	0	
15	0	0	0	0	554	492	0	0	0	0	
0	0	0	0	0	563	492	0	0	0	0	
1	0	0	0	0	569	493	0	0	0	0	
2	0	0	0	0	575	493	0	0	0	0	
3	0	0	0	0	576	492	0	0	0	0	
4	0	0	0	0	575	491	0	0	0	0	
5	0	0	0	0	571	490	0	0	0	0	
6	0	0	0	0	564	488	0	0	0	0	
7	0	0	0	0	556	486	0	0	0	0	
8	0	0	0	0	547	485	0	0	0	0	
9	0	0	0	0	537	484	0	0	0	0	
10	0	0	0	0	528	484	0	0	0	0	
11	0	0	0	0	520	484	0	0	0	0	
12	0	0	0	0	515	486	0	0	0	0	
13	0	0	0	0	510	487	0	0	0	0	
14	0	0	0	0	508	490	0	0	0	0	
15	0	0	0	0	508	493	0	0	0	0	
0	0	0	0	0	509	496	0	0	0	0	
1	0	0	0	0	514	498	0	0	0	0	
2	0	0	0	0	521	500	0	0	0	0	
3	0	0	0	0	531	503	0	0	0	0	
4	0	0	0	0	543	504	0	0	0	0	
5	0	0	0	0	557	504	0	0	0	0	
6	0	0	0	0	570	504	0	0	0	0	
7	0	0	0	0	583	503	0	0	0	0	
8	0	0	0	0	594	503	0	0	0	0	
9	0	0	0	0	602	502	0	0	0	0	
10	0	0	0	0	607	501	0	0	0	0	
11	0	0	0	0	609	500	0	0	0	0	
12	0	0	0	0	608	500	0	0	0	0	
13	0	0	0	0	603	500	0	0	0	0	
14	0	0	0	0	596	500	0	0	0	0	
15	0	0	0	0	588	501	0	0	0	0	
0	0	0	0	0	579	502	0	0	0	0	
1	0	0	0	0	570	503	0	0	0	0	
2	0	0	0	0	561	504	0	0	0	0	
3	0	0	0	0	554	505	0	0	0	0	
4	0	0	0	0	549	505	0	0	0	0	
5	0	0	0	0	546	505	0	0	0	0	
6	0	0	0	0	544	505	0	0	0	0	
7	0	0	0	0	544	504	0	0	0	0	
8	0	0	0	0	544	503	0	0	0	0	
9	0	0	0	0	545	501	0	0	0	0	
10	0	0	0	0	545	499	0	0	0	0	
11	0	0	0	0	546	498	0	0	0	0	
12	0	0	0	0	547	497	0	0	0	0	
13	0	0	0	0	548	496	0	0	0	0	
14	0	0	0	0	551	496	0	0	0	0	
15	0	0	0	0	555	497	0	0	0	0	
0	0	0	0	0	560	499	0	0	0	0	
1	0	0	0	0	565	502	0	0	0	0	
2	0	0	0	0	569	505	0	0	0	0	
3	0	0	0	0	572	508	0	0	0	0	
4	0	0	0	0	572	511	0	0	0	0	
5	0	0	0	0	570	512	0	0	0	0	
6	0	0	0	0	564	512	0	0	0	0	
7	0	0	0	0	556	511	0	0	0	0	
8	0	0	0	0	547	508	0	0	0	0	
9	0	0	0	0	539	505	0	0	0	0	
10	0	0	0	0	533	502	0	0	0	0	
11	0	0	0	0	529	499	0	0	0	0	
12	0	0	0	0	528	496	0	0	0	0	
13	0	0	0	0	530	492	0	0	0	0	
14	0	0	0	0	536	491	0	0	0	0	
15	0	0	0	0	543	489	0	0	0	0	
0	0	0	0	0	551	488	0	0	0	0	
1	0	0	0	0	560	487	0	0	0	0	
2	0	0	0	0	567	487	0	0	0	0	
3	0	0	0	0	572	488	0	0	0	0	
4	0	0	0	0	575	489	0	0	0	0	
5	0	0	0	0	575	490	0	0	0	0	
6	0	0	0	0	573	491	0	0	0	0	
7	0	0	0	0	568	492	0	0	0	0	
8	0	0	0	0	564	493	0	0	0	0	
9	0	0	0	0	559	495	0	0	0	0	
10	0	0	0	0	556	496	0	0	0	0	
11	0	0	0	0	552	497	0	0	0	0	
12	0	0	0	0	550	497	0	0	0	0	
13	0	0	0	0	548	496	0	0	0	0	
14	0	0	0	0	547	495	0	0	0	0	
15	0	0	0	0	547	492	0	0	0	0	
0	0	0	0	0	547	489	0	0	0	0	
1	0	0	0	0	548	486	0	0	0	0	
2	0	0	0	0	550	482	0	0	0	0	
3	0	0	0	0	552	479	0	0	0	0	
4	0	0	0	0	556	477	0	0	0	0	
5	0	0	0	0	561	476	0	0	0	0	
6	0	0	0	0	565	476	0	0	0	0	
7	0	0	0	0	569	478	0	0	0	0	
8	0	0	0	0	574	481	0	0	0	0	
9	0	0	0	0	577	487	0	0	0	0	
10	0	0	0	0	582	494	0	0	0	0	
11	0	0	0	0	585	501	0	0	0	0	
12	0	0	0	0	589	510	0	0	0	0	
13	0	0	0	0	592	518	0	0	0	0	
14	0	0	0	0	595	525	0	0	0	0	
15	0	0	0	0	597	531	0	0	0	0	
0	0	0	0	0	596	536	0	0	0	0	
1	0	0	0	0	593	537	0	0	0	0	
2	0	0	0	0	588	537	0	0	0	0	
3	0	0	0	0	582	535	0	0	0	0	
4	0	0	0	0	573	531	0	0	0	0	
5	0	0	0	0	564	524	0	0	0	0	
6	0	0	0	0	555	517	0	0	0	0	
7	0	0	0	0	545	509	0	0	0	0	
8	0	0	0	0	537	501	0	0	0	0	
9	0	0	0	0	530	493	0	0	0	0	
10	0	0	0	0	524	486	0	0	0	0	
11	0	0	0	0	520	480	0	0	0	0	
12	0	0	0	0	519	476	0	0	0	0	
13	0	0	0	0	519	473	0	0	0	0	
14	0	0	0	0	520	472	0	0	0	0	
15	0	0	0	0	523	472	0	0	0	0	
0	0	0	0	0	526	473	0	0	0	0	
1	0	0	0	0	531	476	0	0	0	0	
2	0	0	0	0	536	479	0	0	0	0	
3	0	0	0	0	542	483	0	0	0	0	
4	0	0	0	0	549	487	0	0	0	0	
5	0	0	0	0	556	492	0	0	0	0	
6	0	0	0	0	563	497	0	0	0	0	
7	0	0	0	0	571	502	0	0	0	0	
8	0	0	0	0	578	507	0	0	0	0	
9	0	0	0	0	585	511	0	0	0	0	
10	0	0	0	0	590	514	0	0	0	0	
11	0	0	0	0	593	515	0	0	0	0	
12	0	0	0	0	594	516	0	0	0	0	
13	0	0	0	0	592	514	0	0	0	0	
14	0	0	0	0	587	511	0	0	0	0	
15	0	0	0	0	581	508	0	0	0	0	
0	0	0	0	0	572	503	0	0	0	0	
1	0	0	0	0	563	498	0	0	0	0	
2	0	0	0	0	553	494	0	0	0	0	
3	0	0	0	0	543	489	0	0	0	0	
4	0	0	0	0	535	486	0	0	0	0	
5	0	0	0	0	528	483	0	0	0	0	
6	0	0	0	0	523	481	0	0	0	0	
7	0	0	0	0	520	480	0	0	0	0	
8	0	0	0	0	519	479	0	0	0	0	
9	0	0	0	0	519	479	0	0	0	0	
10	0	0	0	0	521	478	0	0	0	0	
11	0	0	0	0	524	477	0	0	0	0	
12	0	0	0	0	527	477	0	0	0	0	
13	0	0	0	0	531	477	0	0	0	0	
14	0	0	0	0	535	477	0	0	0	0	
15	0	0	0	0	539	479	0	0	0	0	
0	0	0	0	0	543	480	0	0	0	0	
1	0	0	0	0	546	483	0	0	0	0	
2	0	0	0	0	550	487	0	0	0	0	
3	0	0	0	0	553	490	0	0	0	0	
4	0	0	0	0	558	495	0	0	0	0	
5	0	0	0	0	563	499	0	0	0	0	
6	0	0	0	0	568	504	0	0	0	0	
7	0	0	0	0	573	508	0	0	0	0	
8	0	0	0	0	578	512	0	0	0	0	
9	0	0	0	0	583	516	0	0	0	0	
10	0	0	0	0	587	519	0	0	0	0	
11	0	0	0	0	590	522	0	0	0	0	
12	0	0	0	0	593	524	0	0	0	0	
13	0	0	0	0	593	525	0	0	0	0	
14	0	0	0	0	594	526	0	0	0	0	
15	0	0	0	0	593	526	0	0	0	0	
0	0	0	0	0	592	525	0	0	0	0	
1	0	0	0	0	590	524	0	0	0	0	
2	0	0	0	0	586	521	0	0	0	0	
3	0	0	0	0	581	518	0	0	0	0	
4	0	0	0	0	575	513	0	0	0	0	
5	0	0	0	0	569	509	0	0	0	0	
6	0	0	0	0	562	504	0	0	0	0	
7	0	0	0	0	555	499	0	0	0	0	
8	0	0	0	0	548	495	0	0	0	0	
9	0	0	0	0	542	492	0	0	0	0	
10	0	0	0	0	537	491	0	0	0	0	
11	0	0	0	0	534	490	0	0	0	0	
12	0	0	0	0	533	491	0	0	0	0	
13	0	0	0	0	532	492	0	0	0	0	
14	0	0	0	0	534	494	0	0	0	0	
15	0	0	0	0	536	496	0	0	0	0	
0	0	0	0	0	539	498	0	0	0	0	
1	0	0	0	0	543	499	0	0	0	0	
2	0	0	0	0	548	500	0	0	0	0	
3	0	0	0	0	555	500	0	0	0	0	
4	0	0	0	0	560	499	0	0	0	0	
5	0	0	0	0	564	497	0	0	0	0	
6	0	0	0	0	567	495	0	0	0	0	
7	0	0	0	0	567	492	0	0	0	0	
8	0	0	0	0	564	489	0	0	0	0	
9	0	0	0	0	560	486	0	0	0	0	
10	0	0	0	0	555	484	0	0	0	0	
11	0	0	0	0	550	482	0	0	0	0	
12	0	0	0	0	544	481	0	0	0	0	
13	0	0	0	0	541	482	0	0	0	0	
14	0	0	0	0	540	483	0	0	0	0	
15	0	0	0	0	541	486	0	0	0	0	
0	0	0	0	0	544	489	0	0	0	0	
1	0	0	0	0	551	494	0	0	0	0	
2	0	0	0	0	559	498	0	0	0	0	
3	0	0	0	0	568	502	0	0	0	0	
4	0	0	0	0	578	506	0	0	0	0	
5	0	0	0	0	587	510	0	0	0	0	
6	0	0	0	0	594	512	0	0	0	0	
7	0	0	0	0	598	515	0	0	0	0	
8	0	0	0	0	598	516	0	0	0	0	
9	0	0	0	0	593	516	0	0	0	0	
10	0	0	0	0	583	515	0	0	0	0	
11	0	0	0	0	570	514	0	0	0	0	
12	0	0	0	0	556	512	0	0	0	0	
13	0	0	0	0	544	510	0	0	0	0	
14	0	0	0	0	533	507	0	0	0	0	
15	0	0	0	0	526	505	0	0	0	0	
0	0	0	0	0	522	502	0	0	0	0	
1	0	0	0	0	521	499	0	0	0	0	
2	0	0	0	0	523	498	0	0	0	0	
3	0	0	0	0	527	496	0	0	0	0	
4	0	0	0	0	534	496	0	0	0	0	
5	0	0	0	0	542	495	0	0	0	0	
6	0	0	0	0	551	496	0	0	0	0	
7	0	0	0	0	561	497	0	0	0	0	
8	0	0	0	0	572	498	0	0	0	0	
9	0	0	0	0	582	500	0	0	0	0	
10	0	0	0	0	592	502	0	0	0	0	
11	0	0	0	0	601	504	0	0	0	0	
12	0	0	0	0	608	507	0	0	0	0	
13	0	0	0	0	613	509	0	0	0	0	
14	0	0	0	0	613	511	0	0	0	0	
15	0	0	0	0	611	512	0	0	0	0	
0	0	0	0	0	605	512	0	0	0	0	
1	0	0	0	0	596	512	0	0	0	0	
2	0	0	0	0	586	511	0	0	0	0	
3	0	0	0	0	574	510	0	0	0	0	
4	0	0	0	0	563	508	0	0	0	0	
5	0	0	0	0	553	506	0	0	0	0	
6	0	0	0	0	546	505	0	0	0	0	
7	0	0	0	0	543	504	0	0	0	0	
8	0	0	0	0	543	504	0	0	0	0	
9	0	0	0	0	546	504	0	0	0	0	
10	0	0	0	0	552	505	0	0	0	0	
11	0	0	0	0	560	508	0	0	0	0	
12	0	0	0	0	567	509	0	0	0	0	
13	0	0	0	0	573	510	0	0	0	0	
14	0	0	0	0	576	510	0	0	0	0	
15	0	0	0	0	577	508	0	0	0	0	
0	0	0	0	0	575	506	0	0	0	0	
1	0	0	0	0	572	504	0	0	0	0	
2	0	0	0	0	568	502	0	0	0	0	
3	0	0	0	0	563	499	0	0	0	0	
4	0	0	0	0	559	499	0	0	0	0	
5	0	0	0	0	554	497	0	0	0	0	
6	0	0	0	0	551	497	0	0	0	0	
7	0	0	0	0	549	497	0	0	0	0	
8	0	0	0	0	550	499	0	0	0	0	
9	0	0	0	0	552	500	0	0	0	0	
10	0	0	0	0	557	503	0	0	0	0	
11	0	0	0	0	560	506	0	0	0	0	
12	0	0	0	0	564	508	0	0	0	0	
13	0	0	0	0	568	511	0	0	0	0	
14	0	0	0	0	571	512	0	0	0	0	
15	0	0	0	0	573	514	0	0	0	0	
0	0	0	0	0	573	514	0	0	0	0	
1	0	0	0	0	574	514	0	0	0	0	
2	0	0	0	0	572	513	0	0	0	0	
3	0	0	0	0	570	511	0	0	0	0	
4	0	0	0	0	567	508	0	0	0	0	
5	0	0	0	0	561	503	0	0	0	0	
6	0	0	0	0	553	497	0	0	0	0	
7	0	0	0	0	544	489	0	0	0	0	
8	0	0	0	0	534	482	0	0	0	0	
9	0	0	0	0	524	475	0	0	0	0	
10	0	0	0	0	515	468	0	0	0	0	
11	0	0	0	0	508	463	0	0	0	0	
12	0	0	0	0	504	459	0	0	0	0	
13	0	0	0	0	502	457	0	0	0	0	
14	0	0	0	0	504	458	0	0	0	0	
15	0	0	0	0	508	460	0	0	0	0	
0	0	0	0	0	515	465	0	0	0	0	
1	0	0	0	0	524	471	0	0	0	0	
2	0	0	0	0	536	478	0	0	0	0	
3	0	0	0	0	548	484	0	0	0	0	
4	0	0	0	0	560	491	0	0	0	0	
5	0	0	0	0	572	497	0	0	0	0	
6	0	0	0	0	582	502	0	0	0	0	
7	0	0	0	0	591	505	0	0	0	0	
8	0	0	0	0	596	508	0	0	0	0	
9	0	0	0	0	597	507	0	0	0	0	
10	0	0	0	0	595	505	0	0	0	0	
11	0	0	0	0	591	502	0	0	0	0	
12	0	0	0	0	583	497	0	0	0	0	
13	0	0	0	0	573	492	0	0	0	0	
14	0	0	0	0	562	487	0	0	0	0	
15	0	0	0	0	551	483	0	0	0	0	
0	0	0	0	0	541	479	0	0	0	0	
1	0	0	0	0	534	477	0	0	0	0	
2	0	0	0	0	529	476	0	0	0	0	
3	0	0	0	0	527	476	0	0	0	0	
4	0	0	0	0	529	478	0	0	0	0	
5	0	0	0	0	533	480	0	0	0	0	
6	0	0	0	0	539	483	0	0	0	0	
7	0	0	0	0	548	487	0	0	0	0	
8	0	0	0	0	556	490	0	0	0	0	
9	0	0	0	0	566	492	0	0	0	0	
10	0	0	0	0	573	495	0	0	0	0	
11	0	0	0	0	579	496	0	0	0	0	
12	0	0	0	0	581	495	0	0	0	0	
13	0	0	0	0	580	493	0	0	0	0	
14	0	0	0	0	576	490	0	0	0	0	
15	0	0	0	0	569	485	0	0	0	0	
0	0	0	0	0	560	480	0	0	0	0	
1	0	0	0	0	549	476	0	0	0	0	
2	0	0	0	0	539	472	0	0	0	0	
3	0	0	0	0	530	470	0	0	0	0	
4	0	0	0	0	524	470	0	0	0	0	
5	0	0	0	0	521	472	0	0	0	0	
6	0	0	0	0	521	474	0	0	0	0	
7	0	0	0	0	524	478	0	0	0	0	
8	0	0	0	0	529	483	0	0	0	0	
9	0	0	0	0	536	490	0	0	0	0	
10	0	0	0	0	545	496	0	0	0	0	
11	0	0	0	0	554	502	0	0	0	0	
12	0	0	0	0	562	508	0	0	0	0	
13	0	0	0	0	568	512	0	0	0	0	
14	0	0	0	0	573	515	0	0	0	0	
15	0	0	0	0	575	516	0	0	0	0	
0	0	0	0	0	574	516	0	0	0	0	
1	0	0	0	0	569	514	0	0	0	0	
2	0	0	0	0	561	511	0	0	0	0	
3	0	0	0	0	552	506	0	0	0	0	
4	0	0	0	0	541	502	0	0	0	0	
5	0	0	0	0	529	497	0	0	0	0	
6	0	0	0	0	518	493	0	0	0	0	
7	0	0	0	0	509	489	0	0	0	0	
8	0	0	0	0	504	487	0	0	0	0	
9	0	0	0	0	503	484	0	0	0	0	
10	0	0	0	0	506	484	0	0	0	0	
11	0	0	0	0	511	484	0	0	0	0	
12	0	0	0	0	520	485	0	0	0	0	
13	0	0	0	0	532	486	0	0	0	0	
14	0	0	0	0	545	487	0	0	0	0	
15	0	0	0	0	559	488	0	0	0	0	
0	0	0	0	0	572	490	0	0	0	0	
1	0	0	0	0	584	491	0	0	0	0	
2	0	0	0	0	594	492	0	0	0	0	
3	0	0	0	0	601	493	0	0	0	0	
4	0	0	0	0	604	493	0	0	0	0	
5	0	0	0	0	603	492	0	0	0	0	
6	0	0	0	0	600	492	0	0	0	0	
7	0	0	0	0	593	490	0	0	0	0	
8	0	0	0	0	584	489	0	0	0	0	
9	0	0	0	0	574	487	0	0	0	0	
10	0	0	0	0	562	486	0	0	0	0	
11	0	0	0	0	549	484	0	0	0	0	
12	0	0	0	0	537	484	0	0	0	0	
13	0	0	0	0	525	484	0	0	0	0	
14	0	0	0	0	515	486	0	0	0	0	
15	0	0	0	0	509	487	0	0	0	0	
0	0	0	0	0	508	489	0	0	0	0	
1	0	0	0	0	513	492	0	0	0	0	
2	0	0	0	0	523	495	0	0	0	0	
3	0	0	0	0	539	497	0	0	0	0	
4	0	0	0	0	557	500	0	0	0	0	
5	0	0	0	0	577	502	0	0	0	0	
6	0	0	0	0	596	503	0	0	0	0	
7	0	0	0	0	612	504	0	0	0	0	
8	0	0	0	0	625	505	0	0	0	0	
9	0	0	0	0	633	504	0	0	0	0	
10	0	0	0	0	638	504	0	0	0	0	
11	0	0	0	0	639	504	0	0	0	0	
12	0	0	0	0	637	503	0	0	0	0	
13	0	0	0	0	631	502	0	0	0	0	
14	0	0	0	0	621	501	0	0	0	0	
15	0	0	0	0	609	500	0	0	0	0	
0	0	0	0	0	595	499	0	0	0	0	
1	0	0	0	0	580	499	0	0	0	0	
2	0	0	0	0	565	499	0	0	0	0	
3	0	0	0	0	551	499	0	0	0	0	
4	0	0	0	0	540	500	0	0	0	0	
5	0	0	0	0	529	501	0	0	0	0	
6	0	0	0	0	521	501	0	0	0	0	
7	0	0	0	0	514	500	0	0	0	0	
8	0	0	0	0	509	499	0	0	0	0	
9	0	0	0	0	507	498	0	0	0	0	
10	0	0	0	0	507	495	0	0	0	0	
11	0	0	0	0	508	492	0	0	0	0	
12	0	0	0	0	510	487	0	0	0	0	
13	0	0	0	0	513	482	0	0	0	0	
14	0	0	0	0	516	476	0	0	0	0	
15	0	0	0	0	519	470	0	0	0	0	
0	0	0	0	0	521	464	0	0	0	0	
1	0	0	0	0	520	457	0	0	0	0	
2	0	0	0	0	518	450	0	0	0	0	
3	0	0	0	0	514	444	0	0	0	0	
4	0	0	0	0	507	436	0	0	0	0	
5	0	0	0	0	497	429	0	0	0	0	
6	0	0	0	0	486	422	0	0	0	0	
7	0	0	0	0	473	415	0	0	0	0	
8	0	0	0	0	460	407	0	0	0	0	
9	0	0	0	0	446	399	0	0	0	0	
10	0	0	0	0	433	390	0	0	0	0	
11	0	0	0	0	420	380	0	0	0	0	
12	0	0	0	0	408	369	0	0	0	0	
13	0	0	0	0	396	357	0	0	0	0	
14	0	0	0	0	384	344	0	0	0	0	
15	0	0	0	0	372	328	0	0	0	0	
0	0	0	0	0	359	312	0	0	0	0	
1	0	0	0	0	344	294	0	0	0	0	
2	0	0	0	0	327	275	0	0	0	0	
3	0	0	0	0	310	256	0	0	0	0	
4	0	0	0	0	292	239	0	0	0	0	
5	0	0	0	0	276	223	0	0	0	0	
6	0	0	0	0	262	211	0	0	0	0	
7	0	0	0	0	254	203	0	0	0	0	
8	0	0	0	0	251	200	0	0	0	0	
9	0	0	0	0	258	204	0	0	0	0	
10	0	0	0	0	273	213	0	0	0	0	
11	0	0	0	0	296	229	0	0	0	0	
12	0	0	0	0	328	250	0	0	0	0	
13	0	0	0	0	365	276	0	0	0	0	
14	0	0	0	0	406	305	0	0	0	0	
15	0	0	0	0	448	336	0	0	0	0	
0	0	0	0	0	488	369	0	0	0	0	
1	0	0	0	0	526	401	0	0	0	0	
2	0	0	0	0	559	431	0	0	0	0	
3	0	0	0	0	586	458	0	0	0	0	
4	0	0	0	0	606	481	0	0	0	0	
5	0	0	0	0	620	500	0	0	0	0	
6	0	0	0	0	625	514	0	0	0	0	
7	0	0	0	0	625	523	0	0	0	0	
8	0	0	0	0	620	527	0	0	0	0	
9	0	0	0	0	611	528	0	0	0	0	
10	0	0	0	0	602	527	0	0	0	0	
11	0	0	0	0	591	524	0	0	0	0	
12	0	0	0	0	581	519	0	0	0	0	
13	0	0	0	0	574	515	0	0	0	0	
14	0	0	0	0	569	510	0	0	0	0	
15	0	0	0	0	566	506	0	0	0	0	
0	0	0	0	0	564	502	0	0	0	0	
1	0	0	0	0	563	499	0	0	0	0	
2	0	0	0	0	562	496	0	0	0	0	
3	0	0	0	0	561	493	0	0	0	0	
4	0	0	0	0	559	489	0	0	0	0	
5	0	0	0	0	556	487	0	0	0	0	
6	0	0	0	0	553	485	0	0	0	0	
7	0	0	0	0	549	483	0	0	0	0	
8	0	0	0	0	544	483	0	0	0	0	
9	0	0	0	0	540	483	0	0	0	0	
10	0	0	0	0	536	484	0	0	0	0	
11	0	0	0	0	533	487	0	0	0	0	
12	0	0	0	0	531	490	0	0	0	0	
13	0	0	0	0	530	493	0	0	0	0	
14	0	0	0	0	530	496	0	0	0	0	
15	0	0	0	0	531	500	0	0	0	0	
0	0	0	0	0	534	503	0	0	0	0	
1	0	0	0	0	538	505	0	0	0	0	
2	0	0	0	0	543	506	0	0	0	0	
3	0	0	0	0	549	507	0	0	0	0	
4	0	0	0	0	554	508	0	0	0	0	
5	0	0	0	0	559	508	0	0	0	0	
6	0	0	0	0	564	508	0	0	0	0	
7	0	0	0	0	568	507	0	0	0	0	
8	0	0	0	0	570	505	0	0	0	0	
9	0	0	0	0	572	503	0	0	0	0	
10	0	0	0	0	573	500	0	0	0	0	
11	0	0	0	0	573	496	0	0	0	0	
12	0	0	0	0	572	493	0	0	0	0	
13	0	0	0	0	572	490	0	0	0	0	
14	0	0	0	0	570	488	0	0	0	0	
15	0	0	0	0	570	487	0	0	0	0	
0	0	0	0	0	570	488	0	0	0	0	
1	0	0	0	0	570	489	0	0	0	0	
2	0	0	0	0	569	491	0	0	0	0	
3	0	0	0	0	568	494	0	0	0	0	
4	0	0	0	0	566	497	0	0	0	0	
5	0	0	0	0	563	500	0	0	0	0	
6	0	0	0	0	561	504	0	0	0	0	
7	0	0	0	0	559	507	0	0	0	0	
8	0	0	0	0	560	510	0	0	0	0	
9	0	0	0	0	562	513	0	0	0	0	
10	0	0	0	0	566	515	0	0	0	0	
11	0	0	0	0	572	518	0	0	0	0	
12	0	0	0	0	577	520	0	0	0	0	
13	0	0	0	0	583	521	0	0	0	0	
