# OpenSignals Text File Format. Version 1
# {"": {"position": 0, "device": "", "device name": "", "device connection": "", "sampling rate": 1000, "resolution": [4, 1, 1, 1, 1, 10, 10, 10, 10, 6, 6], "firmware version": 1281, "comments": "", "keywords": "", "mode": 0, "sync interval": 2, "date": "", "time": "", "channels": [1, 2, 3, 4, 5, 6], "sensor": ["RAW", "RAW", "RAW", "RAW", "RAW", "RAW"], "label": ["A1", "A2", "A3", "A4", "A5", "A6"], "column": ["nSeq", "I1", "I2", "O1", "O2", "A1", "A2", "A3", "A4", "A5", "A6"], "special": [{}, {}, {}, {}, {}, {}], "digital IO": [0, 0, 1, 1], "convertedValues": 0}}
# EndOfHeader
0	0	0	0	0	589	581	0	0	0	0	
1	0	0	0	0	590	580	0	0	0	0	
2	0	0	0	0	591	579	0	0	0	0	
3	0	0	0	0	591	578	0	0	0	0	
4	0	0	0	0	592	577	0	0	0	0	
5	0	0	0	0	593	577	0	0	0	0	
6	0	0	0	0	593	577	0	0	0	0	
7	0	0	0	0	594	577	0	0	0	0	
8	0	0	0	0	594	579	0	0	0	0	
9	0	0	0	0	594	579	0	0	0	0	
10	0	0	0	0	595	582	0	0	0	0	
11	0	0	0	0	595	584	0	0	0	0	
12	0	0	0	0	595	585	0	0	0	0	
13	0	0	0	0	595	586	0	0	0	0	
14	0	0	0	0	594	588	0	0	0	0	
15	0	0	0	0	593	588	0	0	0	0	
0	0	0	0	0	593	588	0	0	0	0	
1	0	0	0	0	592	588	0	0	0	0	
2	0	0	0	0	591	587	0	0	0	0	
3	0	0	0	0	590	584	0	0	0	0	
4	0	0	0	0	589	583	0	0	0	0	
5	0	0	0	0	588	581	0	0	0	0	
6	0	0	0	0	587	578	0	0	0	0	
7	0	0	0	0	585	575	0	0	0	0	
8	0	0	0	0	585	575	0	0	0	0	
9	0	0	0	0	585	574	0	0	0	0	
10	0	0	0	0	585	574	0	0	0	0	
11	0	0	0	0	587	575	0	0	0	0	
12	0	0	0	0	588	577	0	0	0	0	
13	0	0	0	0	590	579	0	0	0	0	
14	0	0	0	0	591	581	0	0	0	0	
15	0	0	0	0	592	584	0	0	0	0	
0	0	0	0	0	592	586	0	0	0	0	
1	0	0	0	0	593	587	0	0	0	0	
2	0	0	0	0	592	589	0	0	0	0	
3	0	0	0	0	591	588	0	0	0	0	
4	0	0	0	0	590	588	0	0	0	0	
5	0	0	0	0	588	587	0	0	0	0	
6	0	0	0	0	586	585	0	0	0	0	
7	0	0	0	0	584	583	0	0	0	0	
8	0	0	0	0	583	580	0	0	0	0	
9	0	0	0	0	581	577	0	0	0	0	
10	0	0	0	0	580	574	0	0	0	0	
11	0	0	0	0	580	572	0	0	0	0	
12	0	0	0	0	580	570	0	0	0	0	
13	0	0	0	0	581	569	0	0	0	0	
14	0	0	0	0	582	569	0	0	0	0	
15	0	0	0	0	583	569	0	0	0	0	
0	0	0	0	0	585	570	0	0	0	0	
1	0	0	0	0	587	572	0	0	0	0	
2	0	0	0	0	589	574	0	0	0	0	
3	0	0	0	0	590	576	0	0	0	0	
4	0	0	0	0	591	578	0	0	0	0	
5	0	0	0	0	592	580	0	0	0	0	
6	0	0	0	0	592	583	0	0	0	0	
7	0	0	0	0	591	583	0	0	0	0	
8	0	0	0	0	591	584	0	0	0	0	
9	0	0	0	0	590	583	0	0	0	0	
10	0	0	0	0	588	582	0	0	0	0	
11	0	0	0	0	586	581	0	0	0	0	
12	0	0	0	0	583	579	0	0	0	0	
13	0	0	0	0	582	576	0	0	0	0	
14	0	0	0	0	581	575	0	0	0	0	
15	0	0	0	0	580	573	0	0	0	0	
0	0	0	0	0	579	572	0	0	0	0	
1	0	0	0	0	579	571	0	0	0	0	
2	0	0	0	0	579	570	0	0	0	0	
3	0	0	0	0	580	569	0	0	0	0	
4	0	0	0	0	582	569	0	0	0	0	
5	0	0	0	0	583	571	0	0	0	0	
6	0	0	0	0	584	571	0	0	0	0	
7	0	0	0	0	585	573	0	0	0	0	
8	0	0	0	0	586	574	0	0	0	0	
9	0	0	0	0	587	575	0	0	0	0	
10	0	0	0	0	587	577	0	0	0	0	
11	0	0	0	0	588	578	0	0	0	0	
12	0	0	0	0	587	579	0	0	0	0	
13	0	0	0	0	587	579	0	0	0	0	
14	0	0	0	0	586	579	0	0	0	0	
15	0	0	0	0	585	579	0	0	0	0	
0	0	0	0	0	583	577	0	0	0	0	
1	0	0	0	0	582	575	0	0	0	0	
2	0	0	0	0	580	573	0	0	0	0	
3	0	0	0	0	579	571	0	0	0	0	
4	0	0	0	0	577	569	0	0	0	0	
5	0	0	0	0	577	568	0	0	0	0	
6	0	0	0	0	576	567	0	0	0	0	
7	0	0	0	0	576	567	0	0	0	0	
8	0	0	0	0	576	567	0	0	0	0	
9	0	0	0	0	576	568	0	0	0	0	
10	0	0	0	0	577	569	0	0	0	0	
11	0	0	0	0	578	571	0	0	0	0	
12	0	0	0	0	579	572	0	0	0	0	
13	0	0	0	0	580	574	0	0	0	0	
14	0	0	0	0	581	575	0	0	0	0	
15	0	0	0	0	582	575	0	0	0	0	
0	0	0	0	0	582	576	0	0	0	0	
1	0	0	0	0	583	576	0	0	0	0	
2	0	0	0	0	583	576	0	0	0	0	
3	0	0	0	0	582	575	0	0	0	0	
4	0	0	0	0	582	574	0	0	0	0	
5	0	0	0	0	582	573	0	0	0	0	
6	0	0	0	0	582	572	0	0	0	0	
7	0	0	0	0	581	571	0	0	0	0	
8	0	0	0	0	581	570	0	0	0	0	
9	0	0	0	0	580	569	0	0	0	0	
10	0	0	0	0	580	568	0	0	0	0	
11	0	0	0	0	579	567	0	0	0	0	
12	0	0	0	0	579	566	0	0	0	0	
13	0	0	0	0	578	566	0	0	0	0	
14	0	0	0	0	577	566	0	0	0	0	
15	0	0	0	0	577	567	0	0	0	0	
0	0	0	0	0	576	567	0	0	0	0	
1	0	0	0	0	576	568	0	0	0	0	
2	0	0	0	0	576	568	0	0	0	0	
3	0	0	0	0	577	569	0	0	0	0	
4	0	0	0	0	578	571	0	0	0	0	
5	0	0	0	0	579	571	0	0	0	0	
6	0	0	0	0	579	572	0	0	0	0	
7	0	0	0	0	580	572	0	0	0	0	
8	0	0	0	0	581	572	0	0	0	0	
9	0	0	0	0	582	572	0	0	0	0	
10	0	0	0	0	583	571	0	0	0	0	
11	0	0	0	0	583	569	0	0	0	0	
12	0	0	0	0	582	568	0	0	0	0	
13	0	0	0	0	582	568	0	0	0	0	
14	0	0	0	0	582	568	0	0	0	0	
15	0	0	0	0	581	567	0	0	0	0	
0	0	0	0	0	580	568	0	0	0	0	
1	0	0	0	0	579	568	0	0	0	0	
2	0	0	0	0	578	569	0	0	0	0	
3	0	0	0	0	578	571	0	0	0	0	
4	0	0	0	0	576	571	0	0	0	0	
5	0	0	0	0	577	573	0	0	0	0	
6	0	0	0	0	577	574	0	0	0	0	
7	0	0	0	0	577	574	0	0	0	0	
8	0	0	0	0	577	575	0	0	0	0	
9	0	0	0	0	577	575	0	0	0	0	
10	0	0	0	0	578	574	0	0	0	0	
11	0	0	0	0	577	573	0	0	0	0	
12	0	0	0	0	578	572	0	0	0	0	
13	0	0	0	0	579	571	0	0	0	0	
14	0	0	0	0	579	568	0	0	0	0	
15	0	0	0	0	579	567	0	0	0	0	
0	0	0	0	0	578	565	0	0	0	0	
1	0	0	0	0	578	564	0	0	0	0	
2	0	0	0	0	578	563	0	0	0	0	
3	0	0	0	0	578	563	0	0	0	0	
4	0	0	0	0	579	563	0	0	0	0	
5	0	0	0	0	579	564	0	0	0	0	
6	0	0	0	0	580	566	0	0	0	0	
7	0	0	0	0	582	568	0	0	0	0	
8	0	0	0	0	583	571	0	0	0	0	
9	0	0	0	0	584	574	0	0	0	0	
10	0	0	0	0	585	575	0	0	0	0	
11	0	0	0	0	587	578	0	0	0	0	
12	0	0	0	0	588	579	0	0	0	0	
13	0	0	0	0	588	580	0	0	0	0	
14	0	0	0	0	588	579	0	0	0	0	
15	0	0	0	0	587	580	0	0	0	0	
0	0	0	0	0	587	579	0	0	0	0	
1	0	0	0	0	586	577	0	0	0	0	
2	0	0	0	0	584	575	0	0	0	0	
3	0	0	0	0	583	572	0	0	0	0	
4	0	0	0	0	582	571	0	0	0	0	
5	0	0	0	0	580	569	0	0	0	0	
6	0	0	0	0	579	568	0	0	0	0	
7	0	0	0	0	577	566	0	0	0	0	
8	0	0	0	0	577	565	0	0	0	0	
9	0	0	0	0	577	565	0	0	0	0	
10	0	0	0	0	577	566	0	0	0	0	
11	0	0	0	0	578	567	0	0	0	0	
12	0	0	0	0	577	567	0	0	0	0	
13	0	0	0	0	579	568	0	0	0	0	
14	0	0	0	0	579	569	0	0	0	0	
15	0	0	0	0	579	569	0	0	0	0	
0	0	0	0	0	579	569	0	0	0	0	
1	0	0	0	0	578	569	0	0	0	0	
2	0	0	0	0	579	568	0	0	0	0	
3	0	0	0	0	578	566	0	0	0	0	
4	0	0	0	0	579	565	0	0	0	0	
5	0	0	0	0	579	564	0	0	0	0	
6	0	0	0	0	579	563	0	0	0	0	
7	0	0	0	0	579	562	0	0	0	0	
8	0	0	0	0	580	562	0	0	0	0	
9	0	0	0	0	581	563	0	0	0	0	
10	0	0	0	0	581	563	0	0	0	0	
11	0	0	0	0	581	564	0	0	0	0	
12	0	0	0	0	581	566	0	0	0	0	
13	0	0	0	0	581	568	0	0	0	0	
14	0	0	0	0	580	568	0	0	0	0	
15	0	0	0	0	579	569	0	0	0	0	
0	0	0	0	0	577	569	0	0	0	0	
1	0	0	0	0	575	568	0	0	0	0	
2	0	0	0	0	572	566	1	0	0	0	
3	0	0	0	0	568	563	0	0	0	0	
4	0	0	0	0	563	558	0	0	0	0	
5	0	0	0	0	557	551	0	0	0	0	
6	0	0	0	0	551	543	0	0	0	0	
7	0	0	0	0	543	535	0	0	0	0	
8	0	0	0	0	535	526	0	0	0	0	
9	0	0	0	0	527	516	0	0	0	0	
10	0	0	0	0	518	505	0	0	0	0	
11	0	0	0	0	510	495	0	0	0	0	
12	0	0	0	0	501	485	0	0	0	0	
13	0	0	0	0	493	476	0	0	0	0	
14	0	0	0	0	485	468	0	0	0	0	
15	0	0	0	0	478	460	0	0	0	0	
0	0	0	0	0	470	453	0	0	0	0	
1	0	0	0	0	463	446	0	0	0	0	
2	0	0	0	0	456	440	0	0	0	0	
3	0	0	0	0	449	434	0	0	0	0	
4	0	0	0	0	441	427	0	0	0	0	
5	0	0	0	0	434	420	0	0	0	0	
6	0	0	0	0	426	414	0	0	0	0	
7	0	0	0	0	417	406	0	0	0	0	
8	0	0	0	0	409	398	0	0	0	0	
9	0	0	0	0	401	390	0	0	0	0	
10	0	0	0	0	393	383	0	0	0	0	
11	0	0	0	0	387	376	0	0	0	0	
12	0	0	0	0	383	371	0	0	0	0	
13	0	0	0	0	382	368	0	0	0	0	
14	0	0	0	0	383	367	0	0	0	0	
15	0	0	0	0	388	370	0	0	0	0	
0	0	0	0	0	397	376	0	0	0	0	
1	0	0	0	0	409	386	0	0	0	0	
2	0	0	0	0	424	399	0	0	0	0	
3	0	0	0	0	442	415	0	0	0	0	
4	0	0	0	0	462	432	0	0	0	0	
5	0	0	0	0	482	452	0	0	0	0	
6	0	0	0	0	503	472	0	0	0	0	
7	0	0	0	0	524	492	0	0	0	0	
8	0	0	0	0	543	511	0	0	0	0	
9	0	0	0	0	560	528	0	0	0	0	
10	0	0	0	0	575	543	0	0	0	0	
11	0	0	0	0	588	557	0	0	0	0	
12	0	0	0	0	598	568	0	0	0	0	
13	0	0	0	0	604	576	0	0	0	0	
14	0	0	0	0	610	582	0	0	0	0	
15	0	0	0	0	613	587	0	0	0	0	
0	0	0	0	0	613	588	0	0	0	0	
1	0	0	0	0	612	589	0	0	0	0	
2	0	0	0	0	609	588	0	0	0	0	
3	0	0	0	0	606	585	0	0	0	0	
4	0	0	0	0	601	582	0	0	0	0	
5	0	0	0	0	596	579	0	0	0	0	
6	0	0	0	0	591	576	0	0	0	0	
7	0	0	0	0	587	573	0	0	0	0	
8	0	0	0	0	583	570	0	0	0	0	
9	0	0	0	0	579	569	0	0	0	0	
10	0	0	0	0	576	568	0	0	0	0	
11	0	0	0	0	575	567	0	0	0	0	
12	0	0	0	0	574	567	0	0	0	0	
13	0	0	0	0	574	567	0	0	0	0	
14	0	0	0	0	574	567	0	0	0	0	
15	0	0	0	0	575	567	0	0	0	0	
0	0	0	0	0	575	568	0	0	0	0	
1	0	0	0	0	576	567	0	0	0	0	
2	0	0	0	0	577	566	0	0	0	0	
3	0	0	0	0	578	565	0	0	0	0	
4	0	0	0	0	579	565	0	0	0	0	
5	0	0	0	0	580	565	0	0	0	0	
6	0	0	0	0	581	564	0	0	0	0	
7	0	0	0	0	583	564	0	0	0	0	
8	0	0	0	0	585	565	0	0	0	0	
9	0	0	0	0	587	566	0	0	0	0	
10	0	0	0	0	588	567	0	0	0	0	
11	0	0	0	0	589	568	0	0	0	0	
12	0	0	0	0	590	569	0	0	0	0	
13	0	0	0	0	591	571	0	0	0	0	
14	0	0	0	0	591	573	0	0	0	0	
15	0	0	0	0	592	575	0	0	0	0	
0	0	0	0	0	591	575	0	0	0	0	
1	0	0	0	0	592	577	0	0	0	0	
2	0	0	0	0	591	578	0	0	0	0	
3	0	0	0	0	591	578	0	0	0	0	
4	0	0	0	0	590	578	0	0	0	0	
5	0	0	0	0	588	577	0	0	0	0	
6	0	0	0	0	588	575	0	0	0	0	
7	0	0	0	0	587	574	0	0	0	0	
8	0	0	0	0	586	571	0	0	0	0	
9	0	0	0	0	585	569	0	0	0	0	
10	0	0	0	0	584	566	0	0	0	0	
11	0	0	0	0	583	564	0	0	0	0	
12	0	0	0	0	583	562	0	0	0	0	
13	0	0	0	0	583	560	0	0	0	0	
14	0	0	0	0	582	560	0	0	0	0	
15	0	0	0	0	582	559	0	0	0	0	
0	0	0	0	0	582	559	0	0	0	0	
1	0	0	0	0	581	559	0	0	0	0	
2	0	0	0	0	580	560	0	0	0	0	
3	0	0	0	0	580	561	0	0	0	0	
4	0	0	0	0	580	562	0	0	0	0	
5	0	0	0	0	579	563	0	0	0	0	
6	0	0	0	0	579	564	0	0	0	0	
7	0	0	0	0	579	564	0	0	0	0	
8	0	0	0	0	578	565	0	0	0	0	
9	0	0	0	0	578	564	0	0	0	0	
10	0	0	0	0	578	563	0	0	0	0	
11	0	0	0	0	578	563	0	0	0	0	
12	0	0	0	0	579	561	0	0	0	0	
13	0	0	0	0	579	561	0	0	0	0	
14	0	0	0	0	579	559	0	0	0	0	
15	0	0	0	0	580	558	0	0	0	0	
0	0	0	0	0	580	557	0	0	0	0	
1	0	0	0	0	580	556	0	0	0	0	
2	0	0	0	0	580	555	0	0	0	0	
3	0	0	0	0	580	555	0	0	0	0	
4	0	0	0	0	580	555	0	0	0	0	
5	0	0	0	0	579	554	0	0	0	0	
6	0	0	0	0	578	555	0	0	0	0	
7	0	0	0	0	576	555	0	0	0	0	
8	0	0	0	0	575	555	0	0	0	0	
9	0	0	0	0	574	555	0	0	0	0	
10	0	0	0	0	572	555	0	0	0	0	
11	0	0	0	0	571	555	0	0	0	0	
12	0	0	0	0	570	555	0	0	0	0	
13	0	0	0	0	568	553	0	0	0	0	
14	0	0	0	0	568	552	0	0	0	0	
15	0	0	0	0	567	551	0	0	0	0	
0	0	0	0	0	566	549	0	0	0	0	
1	0	0	0	0	566	547	0	0	0	0	
2	0	0	0	0	565	545	0	0	0	0	
3	0	0	0	0	564	543	0	0	0	0	
4	0	0	0	0	564	541	0	0	0	0	
5	0	0	0	0	565	541	0	0	0	0	
6	0	0	0	0	566	541	0	0	0	0	
7	0	0	0	0	567	542	0	0	0	0	
8	0	0	0	0	569	543	0	0	0	0	
9	0	0	0	0	571	545	0	0	0	0	
10	0	0	0	0	572	547	0	0	0	0	
11	0	0	0	0	574	551	0	0	0	0	
12	0	0	0	0	576	554	0	0	0	0	
13	0	0	0	0	577	556	0	0	0	0	
14	0	0	0	0	578	559	0	0	0	0	
15	0	0	0	0	578	560	0	0	0	0	
0	0	0	0	0	577	561	0	0	0	0	
1	0	0	0	0	576	561	0	0	0	0	
2	0	0	0	0	575	560	0	0	0	0	
3	0	0	0	0	572	558	0	0	0	0	
4	0	0	0	0	570	556	0	0	0	0	
5	0	0	0	0	568	552	0	0	0	0	
6	0	0	0	0	565	549	0	0	0	0	
7	0	0	0	0	563	546	0	0	0	0	
8	0	0	0	0	561	543	0	0	0	0	
9	0	0	0	0	560	540	0	0	0	0	
10	0	0	0	0	559	539	0	0	0	0	
11	0	0	0	0	558	538	0	0	0	0	
12	0	0	0	0	558	538	0	0	0	0	
13	0	0	0	0	558	538	0	0	0	0	
14	0	0	0	0	558	539	0	0	0	0	
15	0	0	0	0	559	541	0	0	0	0	
0	0	0	0	0	559	542	0	0	0	0	
1	0	0	0	0	560	544	0	0	0	0	
2	0	0	0	0	561	546	0	0	0	0	
3	0	0	0	0	562	547	0	0	0	0	
4	0	0	0	0	563	548	0	0	0	0	
5	0	0	0	0	563	548	0	0	0	0	
6	0	0	0	0	563	547	0	0	0	0	
7	0	0	0	0	564	547	0	0	0	0	
8	0	0	0	0	563	546	0	0	0	0	
9	0	0	0	0	563	545	0	0	0	0	
10	0	0	0	0	563	543	0	0	0	0	
11	0	0	0	0	563	542	0	0	0	0	
12	0	0	0	0	562	542	0	0	0	0	
13	0	0	0	0	562	541	0	0	0	0	
14	0	0	0	0	562	541	0	0	0	0	
15	0	0	0	0	563	541	0	0	0	0	
0	0	0	0	0	564	543	0	0	0	0	
1	0	0	0	0	564	544	0	0	0	0	
2	0	0	0	0	566	545	0	0	0	0	
3	0	0	0	0	567	547	0	0	0	0	
4	0	0	0	0	566	548	0	0	0	0	
5	0	0	0	0	567	549	0	0	0	0	
6	0	0	0	0	567	550	0	0	0	0	
7	0	0	0	0	566	551	0	0	0	0	
8	0	0	0	0	566	551	0	0	0	0	
9	0	0	0	0	565	550	0	0	0	0	
10	0	0	0	0	564	548	0	0	0	0	
11	0	0	0	0	563	546	0	0	0	0	
12	0	0	0	0	561	544	0	0	0	0	
13	0	0	0	0	560	543	0	0	0	0	
14	0	0	0	0	560	541	0	0	0	0	
15	0	0	0	0	558	540	0	0	0	0	
0	0	0	0	0	558	538	0	0	0	0	
1	0	0	0	0	558	538	0	0	0	0	
2	0	0	0	0	558	539	0	0	0	0	
3	0	0	0	0	558	539	0	0	0	0	
4	0	0	0	0	559	540	0	0	0	0	
5	0	0	0	0	560	543	0	0	0	0	
6	0	0	0	0	561	545	0	0	0	0	
7	0	0	0	0	563	547	0	0	0	0	
8	0	0	0	0	564	550	0	0	0	0	
9	0	0	0	0	566	551	0	0	0	0	
10	0	0	0	0	567	553	0	0	0	0	
11	0	0	0	0	568	554	0	0	0	0	
12	0	0	0	0	568	555	0	0	0	0	
13	0	0	0	0	568	554	0	0	0	0	
14	0	0	0	0	568	553	0	0	0	0	
15	0	0	0	0	568	552	0	0	0	0	
0	0	0	0	0	567	551	0	0	0	0	
1	0	0	0	0	566	549	0	0	0	0	
2	0	0	0	0	564	547	0	0	0	0	
3	0	0	0	0	563	545	0	0	0	0	
4	0	0	0	0	561	543	0	0	0	0	
5	0	0	0	0	561	542	0	0	0	0	
6	0	0	0	0	560	542	0	0	0	0	
7	0	0	0	0	560	542	0	0	0	0	
8	0	0	0	0	560	543	0	0	0	0	
9	0	0	0	0	560	544	0	0	0	0	
10	0	0	0	0	561	545	0	0	0	0	
11	0	0	0	0	563	548	0	0	0	0	
12	0	0	0	0	564	551	0	0	0	0	
13	0	0	0	0	567	553	0	0	0	0	
14	0	0	0	0	568	556	0	0	0	0	
15	0	0	0	0	571	557	0	0	0	0	
0	0	0	0	0	572	560	0	0	0	0	
1	0	0	0	0	574	560	0	0	0	0	
2	0	0	0	0	575	560	0	0	0	0	
3	0	0	0	0	575	560	0	0	0	0	
4	0	0	0	0	575	559	0	0	0	0	
5	0	0	0	0	574	558	0	0	0	0	
6	0	0	0	0	573	556	0	0	0	0	
7	0	0	0	0	571	555	0	0	0	0	
8	0	0	0	0	569	553	0	0	0	0	
9	0	0	0	0	568	551	0	0	0	0	
10	0	0	0	0	566	551	0	0	0	0	
11	0	0	0	0	565	550	0	0	0	0	
12	0	0	0	0	564	549	0	0	0	0	
13	0	0	0	0	563	549	0	0	0	0	
14	0	0	0	0	562	549	0	0	0	0	
15	0	0	0	0	562	551	0	0	0	0	
0	0	0	0	0	563	551	0	0	0	0	
1	0	0	0	0	563	553	0	0	0	0	
2	0	0	0	0	564	555	0	0	0	0	
3	0	0	0	0	566	556	0	0	0	0	
4	0	0	0	0	567	558	0	0	0	0	
5	0	0	0	0	568	559	0	0	0	0	
6	0	0	0	0	569	559	0	0	0	0	
7	0	0	0	0	571	559	0	0	0	0	
8	0	0	0	0	572	559	0	0	0	0	
9	0	0	0	0	572	558	0	0	0	0	
10	0	0	0	0	573	556	0	0	0	0	
11	0	0	0	0	572	555	0	0	0	0	
12	0	0	0	0	572	552	0	0	0	0	
13	0	0	0	0	571	551	0	0	0	0	
14	0	0	0	0	569	550	0	0	0	0	
15	0	0	0	0	567	548	0	0	0	0	
0	0	0	0	0	564	547	0	0	0	0	
1	0	0	0	0	563	547	0	0	0	0	
2	0	0	0	0	561	547	0	0	0	0	
3	0	0	0	0	559	547	0	0	0	0	
4	0	0	0	0	557	547	0	0	0	0	
5	0	0	0	0	555	548	0	0	0	0	
6	0	0	0	0	555	549	0	0	0	0	
7	0	0	0	0	555	550	0	0	0	0	
8	0	0	0	0	555	550	0	0	0	0	
9	0	0	0	0	556	550	0	0	0	0	
10	0	0	0	0	557	550	0	0	0	0	
11	0	0	0	0	558	549	0	0	0	0	
12	0	0	0	0	560	547	0	0	0	0	
13	0	0	0	0	561	547	0	0	0	0	
14	0	0	0	0	561	545	0	0	0	0	
15	0	0	0	0	562	543	0	0	0	0	
0	0	0	0	0	562	543	0	0	0	0	
1	0	0	0	0	561	541	0	0	0	0	
2	0	0	0	0	561	540	0	0	0	0	
3	0	0	0	0	560	540	0	0	0	0	
4	0	0	0	0	559	540	0	0	0	0	
5	0	0	0	0	558	541	0	0	0	0	
6	0	0	0	0	556	542	0	0	0	0	
7	0	0	0	0	555	543	0	0	0	0	
8	0	0	0	0	553	544	0	0	0	0	
9	0	0	0	0	552	545	0	0	0	0	
10	0	0	0	0	551	546	0	0	0	0	
11	0	0	0	0	550	545	0	0	0	0	
12	0	0	0	0	550	546	0	0	0	0	
13	0	0	0	0	550	545	0	0	0	0	
14	0	0	0	0	550	543	0	0	0	0	
15	0	0	0	0	550	542	0	0	0	0	
0	0	0	0	0	550	539	0	0	0	0	
1	0	0	0	0	550	537	0	0	0	0	
2	0	0	0	0	551	535	0	0	0	0	
3	0	0	0	0	551	533	0	0	0	0	
4	0	0	0	0	551	532	0	0	0	0	
5	0	0	0	0	551	530	0	0	0	0	
6	0	0	0	0	550	531	0	0	0	0	
7	0	0	0	0	550	530	0	0	0	0	
8	0	0	0	0	550	531	0	0	0	0	
9	0	0	0	0	550	532	0	0	0	0	
10	0	0	0	0	549	534	0	0	0	0	
11	0	0	0	0	549	535	0	0	0	0	
12	0	0	0	0	548	536	0	0	0	0	
13	0	0	0	0	548	537	0	0	0	0	
14	0	0	0	0	547	539	0	0	0	0	
15	0	0	0	0	547	540	0	0	0	0	
0	0	0	0	0	547	540	0	0	0	0	
1	0	0	0	0	547	540	0	0	0	0	
2	0	0	0	0	547	539	0	0	0	0	
3	0	0	0	0	546	538	0	0	0	0	
4	0	0	0	0	547	537	0	0	0	0	
5	0	0	0	0	547	536	0	0	0	0	
6	0	0	0	0	548	534	0	0	0	0	
7	0	0	0	0	549	533	0	0	0	0	
8	0	0	0	0	550	532	0	0	0	0	
9	0	0	0	0	551	531	0	0	0	0	
10	0	0	0	0	552	531	0	0	0	0	
11	0	0	0	0	553	532	0	0	0	0	
12	0	0	0	0	554	532	0	0	0	0	
13	0	0	0	0	554	533	0	0	0	0	
14	0	0	0	0	553	534	0	0	0	0	
15	0	0	0	0	553	534	0	0	0	0	
0	0	0	0	0	551	535	0	0	0	0	
1	0	0	0	0	550	535	0	0	0	0	
2	0	0	0	0	549	535	0	0	0	0	
3	0	0	0	0	547	534	0	0	0	0	
4	0	0	0	0	546	534	0	0	0	0	
5	0	0	0	0	544	533	0	0	0	0	
6	0	0	0	0	544	532	0	0	0	0	
7	0	0	0	0	543	531	0	0	0	0	
8	0	0	0	0	543	530	0	0	0	0	
9	0	0	0	0	543	529	0	0	0	0	
10	0	0	0	0	543	527	0	0	0	0	
11	0	0	0	0	543	526	0	0	0	0	
12	0	0	0	0	544	526	0	0	0	0	
13	0	0	0	0	544	525	0	0	0	0	
14	0	0	0	0	545	526	0	0	0	0	
15	0	0	0	0	546	526	0	0	0	0	
0	0	0	0	0	547	528	0	0	0	0	
1	0	0	0	0	548	529	0	0	0	0	
2	0	0	0	0	550	531	0	0	0	0	
3	0	0	0	0	551	534	0	0	0	0	
4	0	0	0	0	551	535	0	0	0	0	
5	0	0	0	0	552	536	0	0	0	0	
6	0	0	0	0	553	537	0	0	0	0	
7	0	0	0	0	553	538	0	0	0	0	
8	0	0	0	0	554	539	0	0	0	0	
9	0	0	0	0	554	538	0	0	0	0	
10	0	0	0	0	554	537	0	0	0	0	
11	0	0	0	0	554	536	0	0	0	0	
12	0	0	0	0	553	534	0	0	0	0	
13	0	0	0	0	553	532	0	0	0	0	
14	0	0	0	0	552	531	0	0	0	0	
15	0	0	0	0	551	530	0	0	0	0	
0	0	0	0	0	550	529	0	0	0	0	
1	0	0	0	0	550	529	0	0	0	0	
2	0	0	0	0	548	529	0	0	0	0	
3	0	0	0	0	547	529	0	0	0	0	
4	0	0	0	0	547	529	0	0	0	0	
5	0	0	0	0	545	530	0	0	0	0	
6	0	0	0	0	545	531	0	0	0	0	
7	0	0	0	0	544	532	0	0	0	0	
8	0	0	0	0	543	532	0	0	0	0	
9	0	0	0	0	543	533	0	0	0	0	
10	0	0	0	0	543	533	0	0	0	0	
11	0	0	0	0	543	533	0	0	0	0	
12	0	0	0	0	543	533	0	0	0	0	
13	0	0	0	0	543	532	0	0	0	0	
14	0	0	0	0	544	531	0	0	0	0	
15	0	0	0	0	544	529	0	0	0	0	
0	0	0	0	0	544	527	0	0	0	0	
1	0	0	0	0	545	526	0	0	0	0	
2	0	0	0	0	545	524	0	0	0	0	
3	0	0	0	0	545	523	0	0	0	0	
4	0	0	0	0	544	521	0	0	0	0	
5	0	0	0	0	543	519	0	0	0	0	
6	0	0	0	0	543	519	0	0	0	0	
7	0	0	0	0	542	519	0	0	0	0	
8	0	0	0	0	542	520	0	0	0	0	
9	0	0	0	0	542	521	0	0	0	0	
10	0	0	0	0	542	523	0	0	0	0	
11	0	0	0	0	542	526	0	0	0	0	
12	0	0	0	0	542	527	0	0	0	0	
13	0	0	0	0	543	529	0	0	0	0	
14	0	0	0	0	543	531	0	0	0	0	
15	0	0	0	0	543	533	0	0	0	0	
0	0	0	0	0	543	534	0	0	0	0	
1	0	0	0	0	543	534	0	0	0	0	
2	0	0	0	0	543	534	0	0	0	0	
3	0	0	0	0	543	533	0	0	0	0	
4	0	0	0	0	542	531	0	0	0	0	
5	0	0	0	0	542	529	0	0	0	0	
6	0	0	0	0	542	527	0	0	0	0	
7	0	0	0	0	542	525	0	0	0	0	
8	0	0	0	0	541	523	0	0	0	0	
9	0	0	0	0	542	521	0	0	0	0	
10	0	0	0	0	542	520	0	0	0	0	
11	0	0	0	0	542	520	0	0	0	0	
12	0	0	0	0	542	521	0	0	0	0	
13	0	0	0	0	543	521	0	0	0	0	
14	0	0	0	0	543	523	0	0	0	0	
15	0	0	0	0	544	525	0	0	0	0	
0	0	0	0	0	545	527	0	0	0	0	
1	0	0	0	0	545	529	0	0	0	0	
2	0	0	0	0	545	531	0	0	0	0	
3	0	0	0	0	545	533	0	0	0	0	
4	0	0	0	0	545	535	0	0	0	0	
5	0	0	0	0	545	535	0	0	0	0	
6	0	0	0	0	545	535	0	0	0	0	
7	0	0	0	0	545	535	0	0	0	0	
8	0	0	0	0	545	533	0	0	0	0	
9	0	0	0	0	544	531	0	0	0	0	
10	0	0	0	0	544	529	0	0	0	0	
11	0	0	0	0	543	526	0	0	0	0	
12	0	0	0	0	542	524	0	0	0	0	
13	0	0	0	0	541	521	0	0	0	0	
14	0	0	0	0	540	519	0	0	0	0	
15	0	0	0	0	539	518	0	0	0	0	
0	0	0	0	0	538	517	0	0	0	0	
1	0	0	0	0	537	515	0	0	0	0	
2	0	0	0	0	537	516	0	0	0	0	
3	0	0	0	0	536	516	0	0	0	0	
4	0	0	0	0	535	516	0	0	0	0	
5	0	0	0	0	535	516	0	0	0	0	
6	0	0	0	0	534	516	0	0	0	0	
7	0	0	0	0	534	516	0	0	0	0	
8	0	0	0	0	534	517	0	0	0	0	
9	0	0	0	0	534	517	0	0	0	0	
10	0	0	0	0	535	517	0	0	0	0	
11	0	0	0	0	536	517	0	0	0	0	
12	0	0	0	0	537	517	0	0	0	0	
13	0	0	0	0	539	518	0	0	0	0	
14	0	0	0	0	540	519	0	0	0	0	
15	0	0	0	0	542	519	0	0	0	0	
0	0	0	0	0	543	520	0	0	0	0	
1	0	0	0	0	544	522	0	0	0	0	
2	0	0	0	0	545	524	0	0	0	0	
3	0	0	0	0	546	525	0	0	0	0	
4	0	0	0	0	546	527	0	0	0	0	
5	0	0	0	0	546	528	0	0	0	0	
6	0	0	0	0	545	530	0	0	0	0	
7	0	0	0	0	544	531	0	0	0	0	
8	0	0	0	0	544	532	0	0	0	0	
9	0	0	0	0	544	532	0	0	0	0	
10	0	0	0	0	543	532	0	0	0	0	
11	0	0	0	0	543	533	0	0	0	0	
12	0	0	0	0	543	532	0	0	0	0	
13	0	0	0	0	544	531	0	0	0	0	
14	0	0	0	0	545	529	0	0	0	0	
15	0	0	0	0	545	527	0	0	0	0	
0	0	0	0	0	545	525	0	0	0	0	
1	0	0	0	0	546	524	0	0	0	0	
2	0	0	0	0	546	522	0	0	0	0	
3	0	0	0	0	546	520	0	0	0	0	
4	0	0	0	0	546	520	0	0	0	0	
5	0	0	0	0	546	520	0	0	0	0	
6	0	0	0	0	546	521	0	0	0	0	
7	0	0	0	0	546	522	0	0	0	0	
8	0	0	0	0	547	524	0	0	0	0	
9	0	0	0	0	547	527	0	0	0	0	
10	0	0	0	0	547	529	0	0	0	0	
11	0	0	0	0	547	531	0	0	0	0	
12	0	0	0	0	547	534	0	0	0	0	
13	0	0	0	0	547	536	0	0	0	0	
14	0	0	0	0	546	537	0	0	0	0	
15	0	0	0	0	546	538	0	0	0	0	
0	0	0	0	0	545	538	0	0	0	0	
1	0	0	0	0	545	537	0	0	0	0	
2	0	0	0	0	543	535	0	0	0	0	
3	0	0	0	0	542	533	0	0	0	0	
4	0	0	0	0	540	530	0	0	0	0	
5	0	0	0	0	539	527	0	0	0	0	
6	0	0	0	0	537	524	0	0	0	0	
7	0	0	0	0	536	520	0	0	0	0	
8	0	0	0	0	535	518	0	0	0	0	
9	0	0	0	0	534	516	0	0	0	0	
10	0	0	0	0	534	515	0	0	0	0	
11	0	0	0	0	534	515	0	0	0	0	
12	0	0	0	0	535	515	0	0	0	0	
13	0	0	0	0	535	516	0	0	0	0	
14	0	0	0	0	536	518	0	0	0	0	
15	0	0	0	0	537	519	0	0	0	0	
0	0	0	0	0	538	521	0	0	0	0	
1	0	0	0	0	540	524	0	0	0	0	
2	0	0	0	0	541	525	0	0	0	0	
3	0	0	0	0	542	527	0	0	0	0	
4	0	0	0	0	543	528	0	0	0	0	
5	0	0	0	0	543	528	0	0	0	0	
6	0	0	0	0	544	528	0	0	0	0	
7	0	0	0	0	544	528	0	0	0	0	
8	0	0	0	0	544	527	0	0	0	0	
9	0	0	0	0	543	527	0	0	0	0	
10	0	0	0	0	543	525	0	0	0	0	
11	0	0	0	0	542	524	0	0	0	0	
12	0	0	0	0	541	523	0	0	0	0	
13	0	0	0	0	540	523	0	0	0	0	
14	0	0	0	0	540	522	0	0	0	0	
15	0	0	0	0	540	523	0	0	0	0	
0	0	0	0	0	541	524	0	0	0	0	
1	0	0	0	0	542	525	0	0	0	0	
2	0	0	0	0	543	527	0	0	0	0	
3	0	0	0	0	543	528	0	0	0	0	
4	0	0	0	0	544	529	0	0	0	0	
5	0	0	0	0	546	531	0	0	0	0	
6	0	0	0	0	546	532	0	0	0	0	
7	0	0	0	0	547	532	0	0	0	0	
8	0	0	0	0	547	533	0	0	0	0	
9	0	0	0	0	547	532	0	0	0	0	
10	0	0	0	0	547	531	0	0	0	0	
11	0	0	0	0	546	530	0	0	0	0	
12	0	0	0	0	545	529	0	0	0	0	
13	0	0	0	0	545	528	0	0	0	0	
14	0	0	0	0	544	527	0	0	0	0	
15	0	0	0	0	543	525	0	0	0	0	
0	0	0	0	0	543	524	0	0	0	0	
1	0	0	0	0	542	523	0	0	0	0	
2	0	0	0	0	541	522	0	0	0	0	
3	0	0	0	0	540	521	0	0	0	0	
4	0	0	0	0	539	520	0	0	0	0	
5	0	0	0	0	537	520	0	0	0	0	
6	0	0	0	0	536	520	0	0	0	0	
7	0	0	0	0	536	521	0	0	0	0	
8	0	0	0	0	535	521	0	0	0	0	
9	0	0	0	0	535	521	0	0	0	0	
10	0	0	0	0	534	521	0	0	0	0	
11	0	0	0	0	534	521	0	0	0	0	
12	0	0	0	0	535	522	0	0	0	0	
13	0	0	0	0	534	521	0	0	0	0	
14	0	0	0	0	535	520	0	0	0	0	
15	0	0	0	0	535	519	0	0	0	0	
0	0	0	0	0	535	518	0	0	0	0	
1	0	0	0	0	534	516	0	0	0	0	
2	0	0	0	0	534	514	0	0	0	0	
3	0	0	0	0	533	511	0	0	0	0	
4	0	0	0	0	532	510	0	0	0	0	
5	0	0	0	0	531	508	0	0	0	0	
6	0	0	0	0	531	507	0	0	0	0	
7	0	0	0	0	530	506	0	0	0	0	
8	0	0	0	0	530	505	0	0	0	0	
9	0	0	0	0	529	505	0	0	0	0	
10	0	0	0	0	529	506	0	0	0	0	
11	0	0	0	0	529	507	0	0	0	0	
12	0	0	0	0	529	508	0	0	0	0	
13	0	0	0	0	529	510	0	0	0	0	
14	0	0	0	0	530	512	0	0	0	0	
15	0	0	0	0	531	513	0	0	0	0	
0	0	0	0	0	531	515	0	0	0	0	
1	0	0	0	0	532	515	0	0	0	0	
2	0	0	0	0	533	515	0	0	0	0	
3	0	0	0	0	533	516	0	0	0	0	
4	0	0	0	0	534	515	0	0	0	0	
5	0	0	0	0	534	515	0	0	0	0	
6	0	0	0	0	534	515	0	0	0	0	
7	0	0	0	0	535	515	0	0	0	0	
8	0	0	0	0	535	514	0	0	0	0	
9	0	0	0	0	535	514	0	0	0	0	
10	0	0	0	0	535	514	0	0	0	0	
11	0	0	0	0	535	514	0	0	0	0	
12	0	0	0	0	535	515	0	0	0	0	
13	0	0	0	0	535	516	0	0	0	0	
14	0	0	0	0	535	516	0	0	0	0	
15	0	0	0	0	535	517	0	0	0	0	
0	0	0	0	0	535	517	0	0	0	0	
1	0	0	0	0	535	517	0	0	0	0	
2	0	0	0	0	535	517	0	0	0	0	
3	0	0	0	0	535	517	0	0	0	0	
4	0	0	0	0	534	517	0	0	0	0	
5	0	0	0	0	534	516	0	0	0	0	
6	0	0	0	0	534	514	0	0	0	0	
7	0	0	0	0	533	513	0	0	0	0	
8	0	0	0	0	532	512	0	0	0	0	
9	0	0	0	0	532	511	0	0	0	0	
10	0	0	0	0	532	510	0	0	0	0	
11	0	0	0	0	532	509	0	0	0	0	
12	0	0	0	0	532	508	0	0	0	0	
13	0	0	0	0	533	509	0	0	0	0	
14	0	0	0	0	534	510	0	0	0	0	
15	0	0	0	0	535	511	0	0	0	0	
0	0	0	0	0	536	513	0	0	0	0	
1	0	0	0	0	538	515	0	0	0	0	
2	0	0	0	0	539	516	0	0	0	0	
3	0	0	0	0	540	518	0	0	0	0	
4	0	0	0	0	540	519	0	0	0	0	
5	0	0	0	0	542	520	0	0	0	0	
6	0	0	0	0	542	521	0	0	0	0	
7	0	0	0	0	542	520	0	0	0	0	
8	0	0	0	0	541	520	0	0	0	0	
9	0	0	0	0	540	519	0	0	0	0	
10	0	0	0	0	540	518	0	0	0	0	
11	0	0	0	0	538	516	0	0	0	0	
12	0	0	0	0	537	515	0	0	0	0	
13	0	0	0	0	536	514	0	0	0	0	
14	0	0	0	0	536	513	0	0	0	0	
15	0	0	0	0	534	512	0	0	0	0	
0	0	0	0	0	534	512	0	0	0	0	
1	0	0	0	0	534	511	0	0	0	0	
2	0	0	0	0	533	512	0	0	0	0	
3	0	0	0	0	532	512	0	0	0	0	
4	0	0	0	0	533	514	0	0	0	0	
5	0	0	0	0	534	515	0	0	0	0	
6	0	0	0	0	535	517	0	0	0	0	
7	0	0	0	0	536	519	0	0	0	0	
8	0	0	0	0	536	520	0	0	0	0	
9	0	0	0	0	537	522	0	0	0	0	
10	0	0	0	0	538	523	0	0	0	0	
11	0	0	0	0	539	523	0	0	0	0	
12	0	0	0	0	539	523	0	0	0	0	
13	0	0	0	0	539	522	0	0	0	0	
14	0	0	0	0	539	520	0	0	0	0	
15	0	0	0	0	538	519	0	0	0	0	
0	0	0	0	0	538	518	0	0	0	0	
1	0	0	0	0	537	516	0	0	0	0	
2	0	0	0	0	537	515	0	0	0	0	
3	0	0	0	0	538	514	0	0	0	0	
4	0	0	0	0	537	513	0	0	0	0	
5	0	0	0	0	537	513	0	0	0	0	
6	0	0	0	0	538	514	0	0	0	0	
7	0	0	0	0	539	515	0	0	0	0	
8	0	0	0	0	539	516	0	0	0	0	
9	0	0	0	0	539	518	0	0	0	0	
10	0	0	0	0	538	518	0	0	0	0	
11	0	0	0	0	536	519	0	0	0	0	
12	0	0	0	0	535	518	0	0	0	0	
13	0	0	0	0	532	516	0	0	0	0	
14	0	0	0	0	527	514	0	0	0	0	
15	0	0	0	0	522	509	0	0	0	0	
0	0	0	0	0	516	504	0	0	0	0	
1	0	0	0	0	508	496	0	0	0	0	
2	0	0	0	0	500	487	0	0	0	0	
3	0	0	0	0	491	476	0	0	0	0	
4	0	0	0	0	481	465	0	0	0	0	
5	0	0	0	0	470	453	0	0	0	0	
6	0	0	0	0	460	441	0	0	0	0	
7	0	0	0	0	449	429	0	0	0	0	
8	0	0	0	0	439	417	0	0	0	0	
9	0	0	0	0	429	406	0	0	0	0	
10	0	0	0	0	419	396	0	0	0	0	
11	0	0	0	0	411	387	0	0	0	0	
12	0	0	0	0	403	378	0	0	0	0	
13	0	0	0	0	394	371	0	0	0	0	
14	0	0	0	0	387	363	0	0	0	0	
15	0	0	0	0	379	356	0	0	0	0	
0	0	0	0	0	371	349	0	0	0	0	
1	0	0	0	0	364	342	0	0	0	0	
2	0	0	0	0	355	335	0	0	0	0	
3	0	0	0	0	348	328	0	0	0	0	
4	0	0	0	0	342	322	0	0	0	0	
5	0	0	0	0	337	318	0	0	0	0	
6	0	0	0	0	334	314	0	0	0	0	
7	0	0	0	0	334	313	0	0	0	0	
8	0	0	0	0	337	315	0	0	0	0	
9	0	0	0	0	343	319	0	0	0	0	
10	0	0	0	0	352	326	0	0	0	0	
11	0	0	0	0	365	337	0	0	0	0	
12	0	0	0	0	381	351	0	0	0	0	
13	0	0	0	0	399	367	0	0	0	0	
14	0	0	0	0	419	384	0	0	0	0	
15	0	0	0	0	440	403	0	0	0	0	
0	0	0	0	0	461	423	0	0	0	0	
1	0	0	0	0	481	443	0	0	0	0	
2	0	0	0	0	500	461	0	0	0	0	
3	0	0	0	0	518	479	0	0	0	0	
4	0	0	0	0	532	495	0	0	0	0	
5	0	0	0	0	545	508	0	0	0	0	
6	0	0	0	0	555	520	0	0	0	0	
7	0	0	0	0	561	529	0	0	0	0	
8	0	0	0	0	566	536	0	0	0	0	
9	0	0	0	0	568	540	0	0	0	0	
10	0	0	0	0	568	543	0	0	0	0	
11	0	0	0	0	565	542	0	0	0	0	
12	0	0	0	0	562	540	0	0	0	0	
13	0	0	0	0	558	537	0	0	0	0	
14	0	0	0	0	552	533	0	0	0	0	
15	0	0	0	0	547	528	0	0	0	0	
0	0	0	0	0	543	524	0	0	0	0	
1	0	0	0	0	539	520	0	0	0	0	
2	0	0	0	0	536	517	0	0	0	0	
3	0	0	0	0	532	514	0	0	0	0	
4	0	0	0	0	532	513	0	0	0	0	
5	0	0	0	0	532	513	0	0	0	0	
6	0	0	0	0	533	514	0	0	0	0	
7	0	0	0	0	535	515	0	0	0	0	
8	0	0	0	0	537	517	0	0	0	0	
9	0	0	0	0	540	519	0	0	0	0	
10	0	0	0	0	543	522	0	0	0	0	
11	0	0	0	0	545	524	0	0	0	0	
12	0	0	0	0	547	526	0	0	0	0	
13	0	0	0	0	549	527	0	0	0	0	
14	0	0	0	0	550	527	0	0	0	0	
15	0	0	0	0	551	527	0	0	0	0	
0	0	0	0	0	550	526	0	0	0	0	
1	0	0	0	0	550	525	0	0	0	0	
2	0	0	0	0	547	523	0	0	0	0	
3	0	0	0	0	547	521	0	0	0	0	
4	0	0	0	0	545	520	0	0	0	0	
5	0	0	0	0	543	518	0	0	0	0	
6	0	0	0	0	542	518	0	0	0	0	
7	0	0	0	0	540	516	0	0	0	0	
8	0	0	0	0	540	517	0	0	0	0	
9	0	0	0	0	540	518	0	0	0	0	
10	0	0	0	0	540	519	0	0	0	0	
11	0	0	0	0	541	521	0	0	0	0	
12	0	0	0	0	543	523	0	0	0	0	
13	0	0	0	0	544	525	0	0	0	0	
14	0	0	0	0	545	527	0	0	0	0	
15	0	0	0	0	547	529	0	0	0	0	
0	0	0	0	0	549	530	0	0	0	0	
1	0	0	0	0	550	531	0	0	0	0	
2	0	0	0	0	551	530	0	0	0	0	
3	0	0	0	0	551	529	0	0	0	0	
4	0	0	0	0	551	528	0	0	0	0	
5	0	0	0	0	551	526	0	0	0	0	
6	0	0	0	0	550	524	0	0	0	0	
7	0	0	0	0	549	522	0	0	0	0	
8	0	0	0	0	547	520	0	0	0	0	
9	0	0	0	0	546	518	0	0	0	0	
10	0	0	0	0	545	517	0	0	0	0	
11	0	0	0	0	544	516	0	0	0	0	
12	0	0	0	0	543	517	0	0	0	0	
13	0	0	0	0	543	518	0	0	0	0	
14	0	0	0	0	543	519	0	0	0	0	
15	0	0	0	0	542	521	0	0	0	0	
0	0	0	0	0	542	522	0	0	0	0	
1	0	0	0	0	543	524	0	0	0	0	
2	0	0	0	0	543	525	0	0	0	0	
3	0	0	0	0	543	526	0	0	0	0	
4	0	0	0	0	543	527	0	0	0	0	
5	0	0	0	0	544	527	0	0	0	0	
6	0	0	0	0	545	527	0	0	0	0	
7	0	0	0	0	545	527	0	0	0	0	
8	0	0	0	0	546	525	0	0	0	0	
9	0	0	0	0	547	524	0	0	0	0	
10	0	0	0	0	547	523	0	0	0	0	
11	0	0	0	0	547	521	0	0	0	0	
12	0	0	0	0	546	519	0	0	0	0	
13	0	0	0	0	546	518	0	0	0	0	
14	0	0	0	0	546	517	0	0	0	0	
15	0	0	0	0	546	516	0	0	0	0	
0	0	0	0	0	546	516	0	0	0	0	
1	0	0	0	0	545	516	0	0	0	0	
2	0	0	0	0	545	517	0	0	0	0	
3	0	0	0	0	545	519	0	0	0	0	
4	0	0	0	0	545	519	0	0	0	0	
5	0	0	0	0	545	520	0	0	0	0	
6	0	0	0	0	544	521	0	0	0	0	
7	0	0	0	0	544	522	0	0	0	0	
8	0	0	0	0	543	522	0	0	0	0	
9	0	0	0	0	542	521	0	0	0	0	
10	0	0	0	0	541	521	0	0	0	0	
11	0	0	0	0	540	519	0	0	0	0	
12	0	0	0	0	540	518	0	0	0	0	
13	0	0	0	0	539	517	0	0	0	0	
14	0	0	0	0	538	515	0	0	0	0	
15	0	0	0	0	537	513	0	0	0	0	
0	0	0	0	0	537	513	0	0	0	0	
1	0	0	0	0	538	513	0	0	0	0	
2	0	0	0	0	538	513	0	0	0	0	
3	0	0	0	0	539	514	0	0	0	0	
4	0	0	0	0	540	515	0	0	0	0	
5	0	0	0	0	541	518	0	0	0	0	
6	0	0	0	0	542	519	0	0	0	0	
7	0	0	0	0	543	521	0	0	0	0	
8	0	0	0	0	543	523	0	0	0	0	
9	0	0	0	0	543	524	0	0	0	0	
10	0	0	0	0	544	524	0	0	0	0	
11	0	0	0	0	543	524	0	0	0	0	
12	0	0	0	0	543	524	0	0	0	0	
13	0	0	0	0	543	523	0	0	0	0	
14	0	0	0	0	542	521	0	0	0	0	
15	0	0	0	0	542	520	0	0	0	0	
0	0	0	0	0	542	518	0	0	0	0	
1	0	0	0	0	541	516	0	0	0	0	
2	0	0	0	0	540	514	0	0	0	0	
3	0	0	0	0	540	513	0	0	0	0	
4	0	0	0	0	540	512	0	0	0	0	
5	0	0	0	0	540	511	0	0	0	0	
6	0	0	0	0	539	512	0	0	0	0	
7	0	0	0	0	539	512	0	0	0	0	
8	0	0	0	0	539	513	0	0	0	0	
9	0	0	0	0	539	514	0	0	0	0	
10	0	0	0	0	539	516	0	0	0	0	
11	0	0	0	0	539	518	0	0	0	0	
12	0	0	0	0	538	519	0	0	0	0	
13	0	0	0	0	538	519	0	0	0	0	
14	0	0	0	0	537	519	0	0	0	0	
15	0	0	0	0	536	520	0	0	0	0	
0	0	0	0	0	535	519	0	0	0	0	
1	0	0	0	0	534	519	0	0	0	0	
2	0	0	0	0	533	518	0	0	0	0	
3	0	0	0	0	532	515	0	0	0	0	
4	0	0	0	0	531	513	0	0	0	0	
5	0	0	0	0	530	512	0	0	0	0	
6	0	0	0	0	529	509	0	0	0	0	
7	0	0	0	0	530	508	0	0	0	0	
8	0	0	0	0	530	507	0	0	0	0	
9	0	0	0	0	531	505	0	0	0	0	
10	0	0	0	0	531	505	0	0	0	0	
11	0	0	0	0	532	505	0	0	0	0	
12	0	0	0	0	533	506	0	0	0	0	
13	0	0	0	0	534	508	0	0	0	0	
14	0	0	0	0	535	510	0	0	0	0	
15	0	0	0	0	536	512	0	0	0	0	
0	0	0	0	0	536	515	0	0	0	0	
1	0	0	0	0	537	518	0	0	0	0	
2	0	0	0	0	538	519	0	0	0	0	
3	0	0	0	0	539	522	0	0	0	0	
4	0	0	0	0	539	523	0	0	0	0	
5	0	0	0	0	538	523	0	0	0	0	
6	0	0	0	0	539	523	0	0	0	0	
7	0	0	0	0	539	523	0	0	0	0	
8	0	0	0	0	538	521	0	0	0	0	
9	0	0	0	0	537	520	0	0	0	0	
10	0	0	0	0	536	518	0	0	0	0	
11	0	0	0	0	536	516	0	0	0	0	
12	0	0	0	0	535	515	0	0	0	0	
13	0	0	0	0	534	513	0	0	0	0	
14	0	0	0	0	534	513	0	0	0	0	
15	0	0	0	0	534	512	0	0	0	0	
0	0	0	0	0	534	513	0	0	0	0	
1	0	0	0	0	533	513	0	0	0	0	
2	0	0	0	0	533	513	0	0	0	0	
3	0	0	0	0	533	514	0	0	0	0	
4	0	0	0	0	534	515	0	0	0	0	
5	0	0	0	0	534	515	0	0	0	0	
6	0	0	0	0	533	516	0	0	0	0	
7	0	0	0	0	533	515	0	0	0	0	
8	0	0	0	0	533	515	0	0	0	0	
9	0	0	0	0	533	515	0	0	0	0	
10	0	0	0	0	533	514	0	0	0	0	
11	0	0	0	0	532	513	0	0	0	0	
12	0	0	0	0	532	512	0	0	0	0	
13	0	0	0	0	532	511	0	0	0	0	
14	0	0	0	0	533	511	0	0	0	0	
15	0	0	0	0	533	510	0	0	0	0	
0	0	0	0	0	533	510	0	0	0	0	
1	0	0	0	0	533	510	0	0	0	0	
2	0	0	0	0	533	510	0	0	0	0	
3	0	0	0	0	534	511	0	0	0	0	
4	0	0	0	0	535	512	0	0	0	0	
5	0	0	0	0	535	513	0	0	0	0	
6	0	0	0	0	537	515	0	0	0	0	
7	0	0	0	0	538	518	0	0	0	0	
8	0	0	0	0	540	520	0	0	0	0	
9	0	0	0	0	542	523	0	0	0	0	
10	0	0	0	0	543	524	0	0	0	0	
11	0	0	0	0	544	525	0	0	0	0	
12	0	0	0	0	545	526	0	0	0	0	
13	0	0	0	0	545	525	0	0	0	0	
14	0	0	0	0	546	525	0	0	0	0	
15	0	0	0	0	546	524	0	0	0	0	
0	0	0	0	0	545	522	0	0	0	0	
1	0	0	0	0	544	521	0	0	0	0	
2	0	0	0	0	543	519	0	0	0	0	
3	0	0	0	0	542	518	0	0	0	0	
4	0	0	0	0	541	517	0	0	0	0	
5	0	0	0	0	540	516	0	0	0	0	
6	0	0	0	0	540	517	0	0	0	0	
7	0	0	0	0	541	518	0	0	0	0	
8	0	0	0	0	542	519	0	0	0	0	
9	0	0	0	0	543	522	0	0	0	0	
10	0	0	0	0	545	524	0	0	0	0	
11	0	0	0	0	546	527	0	0	0	0	
12	0	0	0	0	548	529	0	0	0	0	
13	0	0	0	0	551	532	0	0	0	0	
14	0	0	0	0	552	535	0	0	0	0	
15	0	0	0	0	554	537	0	0	0	0	
0	0	0	0	0	555	539	0	0	0	0	
1	0	0	0	0	555	538	0	0	0	0	
2	0	0	0	0	555	538	0	0	0	0	
3	0	0	0	0	554	537	0	0	0	0	
4	0	0	0	0	551	535	0	0	0	0	
5	0	0	0	0	549	532	0	0	0	0	
6	0	0	0	0	546	529	0	0	0	0	
7	0	0	0	0	543	525	0	0	0	0	
8	0	0	0	0	540	521	0	0	0	0	
9	0	0	0	0	537	519	0	0	0	0	
10	0	0	0	0	535	516	0	0	0	0	
11	0	0	0	0	533	515	0	0	0	0	
12	0	0	0	0	532	513	0	0	0	0	
13	0	0	0	0	531	513	0	0	0	0	
14	0	0	0	0	532	513	0	0	0	0	
15	0	0	0	0	533	514	0	0	0	0	
0	0	0	0	0	535	515	0	0	0	0	
1	0	0	0	0	536	518	0	0	0	0	
2	0	0	0	0	538	519	0	0	0	0	
3	0	0	0	0	539	519	0	0	0	0	
4	0	0	0	0	540	521	0	0	0	0	
5	0	0	0	0	540	521	0	0	0	0	
6	0	0	0	0	542	522	0	0	0	0	
7	0	0	0	0	541	521	0	0	0	0	
8	0	0	0	0	541	520	0	0	0	0	
9	0	0	0	0	540	519	0	0	0	0	
10	0	0	0	0	539	516	0	0	0	0	
11	0	0	0	0	538	514	0	0	0	0	
12	0	0	0	0	536	512	0	0	0	0	
13	0	0	0	0	534	510	0	0	0	0	
14	0	0	0	0	532	508	0	0	0	0	
15	0	0	0	0	530	507	0	0	0	0	
0	0	0	0	0	529	507	0	0	0	0	
1	0	0	0	0	528	508	0	0	0	0	
2	0	0	0	0	527	508	0	0	0	0	
3	0	0	0	0	527	510	0	0	0	0	
4	0	0	0	0	528	512	0	0	0	0	
5	0	0	0	0	529	514	0	0	0	0	
6	0	0	0	0	529	516	0	0	0	0	
7	0	0	0	0	530	516	0	0	0	0	
8	0	0	0	0	531	518	0	0	0	0	
9	0	0	0	0	532	517	0	0	0	0	
10	0	0	0	0	533	516	0	0	0	0	
11	0	0	0	0	533	515	0	0	0	0	
12	0	0	0	0	534	514	0	0	0	0	
13	0	0	0	0	534	512	0	0	0	0	
14	0	0	0	0	533	509	0	0	0	0	
15	0	0	0	0	533	507	0	0	0	0	
0	0	0	0	0	532	505	0	0	0	0	
1	0	0	0	0	531	504	0	0	0	0	
2	0	0	0	0	531	504	0	0	0	0	
3	0	0	0	0	530	503	0	0	0	0	
4	0	0	0	0	531	504	0	0	0	0	
5	0	0	0	0	531	505	0	0	0	0	
6	0	0	0	0	531	507	0	0	0	0	
7	0	0	0	0	532	508	0	0	0	0	
8	0	0	0	0	532	510	0	0	0	0	
9	0	0	0	0	532	511	0	0	0	0	
10	0	0	0	0	533	512	0	0	0	0	
11	0	0	0	0	534	513	0	0	0	0	
12	0	0	0	0	535	513	0	0	0	0	
13	0	0	0	0	535	513	0	0	0	0	
14	0	0	0	0	535	512	0	0	0	0	
15	0	0	0	0	535	511	0	0	0	0	
0	0	0	0	0	535	510	0	0	0	0	
1	0	0	0	0	535	510	0	0	0	0	
2	0	0	0	0	535	508	0	0	0	0	
3	0	0	0	0	536	507	0	0	0	0	
4	0	0	0	0	536	507	0	0	0	0	
5	0	0	0	0	536	507	0	0	0	0	
6	0	0	0	0	536	507	0	0	0	0	
7	0	0	0	0	536	508	0	0	0	0	
8	0	0	0	0	536	508	0	0	0	0	
9	0	0	0	0	536	510	0	0	0	0	
10	0	0	0	0	536	512	0	0	0	0	
11	0	0	0	0	536	514	0	0	0	0	
12	0	0	0	0	536	516	0	0	0	0	
13	0	0	0	0	537	518	0	0	0	0	
14	0	0	0	0	537	520	0	0	0	0	
15	0	0	0	0	537	521	0	0	0	0	
0	0	0	0	0	537	522	0	0	0	0	
1	0	0	0	0	537	522	0	0	0	0	
2	0	0	0	0	537	521	0	0	0	0	
3	0	0	0	0	536	519	0	0	0	0	
4	0	0	0	0	535	517	0	0	0	0	
5	0	0	0	0	534	514	0	0	0	0	
6	0	0	0	0	532	510	0	0	0	0	
7	0	0	0	0	532	507	0	0	0	0	
8	0	0	0	0	531	505	0	0	0	0	
9	0	0	0	0	530	503	0	0	0	0	
10	0	0	0	0	530	502	0	0	0	0	
11	0	0	0	0	529	501	0	0	0	0	
12	0	0	0	0	529	502	0	0	0	0	
13	0	0	0	0	529	503	0	0	0	0	
14	0	0	0	0	530	504	0	0	0	0	
15	0	0	0	0	530	505	0	0	0	0	
0	0	0	0	0	530	507	0	0	0	0	
1	0	0	0	0	529	508	0	0	0	0	
2	0	0	0	0	530	509	0	0	0	0	
3	0	0	0	0	529	509	0	0	0	0	
4	0	0	0	0	529	510	0	0	0	0	
5	0	0	0	0	528	509	0	0	0	0	
6	0	0	0	0	527	508	0	0	0	0	
7	0	0	0	0	526	507	0	0	0	0	
8	0	0	0	0	525	505	0	0	0	0	
9	0	0	0	0	524	503	0	0	0	0	
10	0	0	0	0	524	502	0	0	0	0	
11	0	0	0	0	523	501	0	0	0	0	
12	0	0	0	0	523	499	0	0	0	0	
13	0	0	0	0	524	499	0	0	0	0	
14	0	0	0	0	524	499	0	0	0	0	
15	0	0	0	0	524	499	0	0	0	0	
0	0	0	0	0	525	501	0	0	0	0	
1	0	0	0	0	526	502	0	0	0	0	
2	0	0	0	0	527	504	0	0	0	0	
3	0	0	0	0	528	505	0	0	0	0	
4	0	0	0	0	529	507	0	0	0	0	
5	0	0	0	0	529	508	0	0	0	0	
6	0	0	0	0	530	509	0	0	0	0	
7	0	0	0	0	530	510	0	0	0	0	
8	0	0	0	0	530	510	0	0	0	0	
9	0	0	0	0	530	509	0	0	0	0	
10	0	0	0	0	529	508	0	0	0	0	
11	0	0	0	0	528	507	0	0	0	0	
12	0	0	0	0	527	505	0	0	0	0	
13	0	0	0	0	526	503	0	0	0	0	
14	0	0	0	0	524	500	0	0	0	0	
15	0	0	0	0	523	499	0	0	0	0	
0	0	0	0	0	521	497	0	0	0	0	
1	0	0	0	0	521	496	0	0	0	0	
2	0	0	0	0	520	496	0	0	0	0	
3	0	0	0	0	520	497	0	0	0	0	
4	0	0	0	0	521	498	0	0	0	0	
5	0	0	0	0	521	499	0	0	0	0	
6	0	0	0	0	523	502	0	0	0	0	
7	0	0	0	0	525	504	0	0	0	0	
8	0	0	0	0	527	507	0	0	0	0	
9	0	0	0	0	528	509	0	0	0	0	
10	0	0	0	0	529	511	0	0	0	0	
11	0	0	0	0	531	513	0	0	0	0	
12	0	0	0	0	532	514	0	0	0	0	
13	0	0	0	0	532	513	0	0	0	0	
14	0	0	0	0	533	513	0	0	0	0	
15	0	0	0	0	532	512	0	0	0	0	
0	0	0	0	0	531	511	0	0	0	0	
1	0	0	0	0	531	510	0	0	0	0	
2	0	0	0	0	529	507	0	0	0	0	
3	0	0	0	0	527	504	0	0	0	0	
4	0	0	0	0	525	502	0	0	0	0	
5	0	0	0	0	523	501	0	0	0	0	
6	0	0	0	0	522	500	0	0	0	0	
7	0	0	0	0	520	499	0	0	0	0	
8	0	0	0	0	519	499	0	0	0	0	
9	0	0	0	0	519	500	0	0	0	0	
10	0	0	0	0	519	502	0	0	0	0	
11	0	0	0	0	519	504	0	0	0	0	
12	0	0	0	0	519	505	0	0	0	0	
13	0	0	0	0	520	507	0	0	0	0	
14	0	0	0	0	523	509	0	0	0	0	
15	0	0	0	0	524	510	0	0	0	0	
0	0	0	0	0	526	512	0	0	0	0	
1	0	0	0	0	527	512	0	0	0	0	
2	0	0	0	0	528	511	0	0	0	0	
3	0	0	0	0	528	510	0	0	0	0	
4	0	0	0	0	528	508	0	0	0	0	
5	0	0	0	0	528	507	0	0	0	0	
6	0	0	0	0	527	505	0	0	0	0	
7	0	0	0	0	526	503	0	0	0	0	
8	0	0	0	0	524	501	0	0	0	0	
9	0	0	0	0	523	499	0	0	0	0	
10	0	0	0	0	523	499	0	0	0	0	
11	0	0	0	0	521	498	0	0	0	0	
12	0	0	0	0	521	498	0	0	0	0	
13	0	0	0	0	520	499	0	0	0	0	
14	0	0	0	0	520	500	0	0	0	0	
15	0	0	0	0	520	502	0	0	0	0	
0	0	0	0	0	519	502	0	0	0	0	
1	0	0	0	0	521	504	0	0	0	0	
2	0	0	0	0	521	505	0	0	0	0	
3	0	0	0	0	523	506	0	0	0	0	
4	0	0	0	0	523	506	0	0	0	0	
5	0	0	0	0	524	506	0	0	0	0	
6	0	0	0	0	525	505	0	0	0	0	
7	0	0	0	0	525	505	0	0	0	0	
8	0	0	0	0	525	504	0	0	0	0	
9	0	0	0	0	526	504	0	0	0	0	
10	0	0	0	0	525	502	0	0	0	0	
11	0	0	0	0	526	501	0	0	0	0	
12	0	0	0	0	525	500	0	0	0	0	
13	0	0	0	0	524	499	0	0	0	0	
14	0	0	0	0	523	499	0	0	0	0	
15	0	0	0	0	523	499	0	0	0	0	
0	0	0	0	0	522	499	0	0	0	0	
1	0	0	0	0	523	501	0	0	0	0	
2	0	0	0	0	523	502	0	0	0	0	
3	0	0	0	0	523	504	0	0	0	0	
4	0	0	0	0	524	506	0	0	0	0	
5	0	0	0	0	524	507	0	0	0	0	
6	0	0	0	0	525	508	0	0	0	0	
7	0	0	0	0	526	508	0	0	0	0	
8	0	0	0	0	527	509	0	0	0	0	
9	0	0	0	0	527	509	0	0	0	0	
10	0	0	0	0	528	508	0	0	0	0	
11	0	0	0	0	528	508	0	0	0	0	
12	0	0	0	0	529	508	0	0	0	0	
13	0	0	0	0	529	507	0	0	0	0	
14	0	0	0	0	529	506	0	0	0	0	
15	0	0	0	0	529	505	0	0	0	0	
0	0	0	0	0	527	504	0	0	0	0	
1	0	0	0	0	527	504	0	0	0	0	
2	0	0	0	0	526	503	0	0	0	0	
3	0	0	0	0	526	503	0	0	0	0	
4	0	0	0	0	525	504	0	0	0	0	
5	0	0	0	0	524	504	0	0	0	0	
6	0	0	0	0	525	505	0	0	0	0	
7	0	0	0	0	524	505	0	0	0	0	
8	0	0	0	0	524	506	0	0	0	0	
9	0	0	0	0	524	506	0	0	0	0	
10	0	0	0	0	524	506	0	0	0	0	
11	0	0	0	0	523	506	0	0	0	0	
12	0	0	0	0	522	506	0	0	0	0	
13	0	0	0	0	521	505	0	0	0	0	
14	0	0	0	0	521	505	0	0	0	0	
15	0	0	0	0	519	504	0	0	0	0	
0	0	0	0	0	519	503	0	0	0	0	
1	0	0	0	0	518	503	0	0	0	0	
2	0	0	0	0	518	501	0	0	0	0	
3	0	0	0	0	518	501	0	0	0	0	
4	0	0	0	0	518	501	0	0	0	0	
5	0	0	0	0	517	501	0	0	0	0	
6	0	0	0	0	518	501	0	0	0	0	
7	0	0	0	0	518	502	0	0	0	0	
8	0	0	0	0	518	503	0	0	0	0	
9	0	0	0	0	519	504	0	0	0	0	
10	0	0	0	0	519	505	0	0	0	0	
11	0	0	0	0	520	508	0	0	0	0	
12	0	0	0	0	521	508	0	0	0	0	
13	0	0	0	0	523	510	0	0	0	0	
14	0	0	0	0	523	510	0	0	0	0	
15	0	0	0	0	524	511	0	0	0	0	
0	0	0	0	0	524	511	0	0	0	0	
1	0	0	0	0	524	511	0	0	0	0	
2	0	0	0	0	524	510	0	0	0	0	
3	0	0	0	0	523	508	0	0	0	0	
4	0	0	0	0	522	507	0	0	0	0	
5	0	0	0	0	521	506	0	0	0	0	
6	0	0	0	0	520	504	0	0	0	0	
7	0	0	0	0	520	504	0	0	0	0	
8	0	0	0	0	519	504	0	0	0	0	
9	0	0	0	0	519	504	0	0	0	0	
10	0	0	0	0	520	504	0	0	0	0	
11	0	0	0	0	520	505	0	0	0	0	
12	0	0	0	0	521	505	0	0	0	0	
13	0	0	0	0	522	507	0	0	0	0	
14	0	0	0	0	523	508	0	0	0	0	
15	0	0	0	0	524	510	0	0	0	0	
0	0	0	0	0	524	511	0	0	0	0	
1	0	0	0	0	524	512	0	0	0	0	
2	0	0	0	0	524	512	0	0	0	0	
3	0	0	0	0	524	513	0	0	0	0	
4	0	0	0	0	524	513	0	0	0	0	
5	0	0	0	0	523	511	0	0	0	0	
6	0	0	0	0	521	510	0	0	0	0	
7	0	0	0	0	519	507	0	0	0	0	
8	0	0	0	0	517	505	0	0	0	0	
9	0	0	0	0	515	502	0	0	0	0	
10	0	0	0	0	513	499	0	0	0	0	
11	0	0	0	0	512	497	0	0	0	0	
12	0	0	0	0	511	495	0	0	0	0	
13	0	0	0	0	510	493	0	0	0	0	
14	0	0	0	0	510	493	0	0	0	0	
15	0	0	0	0	511	493	0	0	0	0	
0	0	0	0	0	511	494	0	0	0	0	
1	0	0	0	0	512	494	0	0	0	0	
2	0	0	0	0	513	496	0	0	0	0	
3	0	0	0	0	515	498	0	0	0	0	
4	0	0	0	0	515	500	0	0	0	0	
5	0	0	0	0	516	502	0	0	0	0	
6	0	0	0	0	516	503	0	0	0	0	
7	0	0	0	0	517	505	0	0	0	0	
8	0	0	0	0	517	505	0	0	0	0	
9	0	0	0	0	518	506	0	0	0	0	
10	0	0	0	0	518	507	0	0	0	0	
11	0	0	0	0	518	507	0	0	0	0	
12	0	0	0	0	518	507	0	0	0	0	
13	0	0	0	0	518	506	0	0	0	0	
14	0	0	0	0	518	505	0	0	0	0	
15	0	0	0	0	518	505	0	0	0	0	
0	0	0	0	0	518	505	0	0	0	0	
1	0	0	0	0	518	504	0	0	0	0	
2	0	0	0	0	519	505	0	0	0	0	
3	0	0	0	0	519	506	0	0	0	0	
4	0	0	0	0	520	507	0	0	0	0	
5	0	0	0	0	520	508	0	0	0	0	
6	0	0	0	0	521	510	0	0	0	0	
7	0	0	0	0	522	513	0	0	0	0	
8	0	0	0	0	523	514	0	0	0	0	
9	0	0	0	0	524	516	0	0	0	0	
10	0	0	0	0	525	517	0	0	0	0	
11	0	0	0	0	526	517	0	0	0	0	
12	0	0	0	0	526	517	0	0	0	0	
13	0	0	0	0	527	516	0	0	0	0	
14	0	0	0	0	527	514	0	0	0	0	
15	0	0	0	0	527	512	0	0	0	0	
0	0	0	0	0	526	510	0	0	0	0	
1	0	0	0	0	526	507	0	0	0	0	
2	0	0	0	0	525	505	0	0	0	0	
3	0	0	0	0	524	503	0	0	0	0	
4	0	0	0	0	522	501	0	0	0	0	
5	0	0	0	0	520	499	0	0	0	0	
6	0	0	0	0	518	498	0	0	0	0	
7	0	0	0	0	516	497	0	0	0	0	
8	0	0	0	0	515	497	0	0	0	0	
9	0	0	0	0	512	498	0	0	0	0	
10	0	0	0	0	511	499	0	0	0	0	
11	0	0	0	0	510	499	0	0	0	0	
12	0	0	0	0	509	500	0	0	0	0	
13	0	0	0	0	509	502	0	0	0	0	
14	0	0	0	0	509	503	0	0	0	0	
15	0	0	0	0	510	503	0	0	0	0	
0	0	0	0	0	511	504	0	0	0	0	
1	0	0	0	0	512	503	0	0	0	0	
2	0	0	0	0	513	503	0	0	0	0	
3	0	0	0	0	514	502	0	0	0	0	
4	0	0	0	0	515	500	0	0	0	0	
5	0	0	0	0	515	499	0	0	0	0	
6	0	0	0	0	516	498	0	0	0	0	
7	0	0	0	0	515	497	0	0	0	0	
8	0	0	0	0	516	496	0	0	0	0	
9	0	0	0	0	516	496	0	0	0	0	
10	0	0	0	0	516	496	0	0	0	0	
11	0	0	0	0	516	497	0	0	0	0	
12	0	0	0	0	517	498	0	0	0	0	
13	0	0	0	0	516	500	0	0	0	0	
14	0	0	0	0	518	502	0	0	0	0	
15	0	0	0	0	519	504	0	0	0	0	
0	0	0	0	0	519	505	0	0	0	0	
1	0	0	0	0	521	507	0	0	0	0	
2	0	0	0	0	522	509	0	0	0	0	
3	0	0	0	0	523	511	0	0	0	0	
4	0	0	0	0	524	512	0	0	0	0	
5	0	0	0	0	524	512	0	0	0	0	
6	0	0	0	0	523	511	0	0	0	0	
7	0	0	0	0	521	510	0	0	0	0	
8	0	0	0	0	518	506	0	0	0	0	
9	0	0	0	0	515	502	0	0	0	0	
10	0	0	0	0	510	496	0	0	0	0	
11	0	0	0	0	504	489	0	0	0	0	
12	0	0	0	0	497	481	0	0	0	0	
13	0	0	0	0	488	473	0	0	0	0	
14	0	0	0	0	480	464	0	0	0	0	
15	0	0	0	0	470	455	0	0	0	0	
0	0	0	0	0	460	445	0	0	0	0	
1	0	0	0	0	449	435	0	0	0	0	
2	0	0	0	0	439	426	0	0	0	0	
3	0	0	0	0	429	416	0	0	0	0	
4	0	0	0	0	419	408	0	0	0	0	
5	0	0	0	0	410	398	0	0	0	0	
6	0	0	0	0	400	389	0	0	0	0	
7	0	0	0	0	391	380	0	0	0	0	
8	0	0	0	0	382	371	0	0	0	0	
9	0	0	0	0	372	360	0	0	0	0	
10	0	0	0	0	363	350	0	0	0	0	
11	0	0	0	0	353	339	0	0	0	0	
12	0	0	0	0	343	328	0	0	0	0	
13	0	0	0	0	334	318	0	0	0	0	
14	0	0	0	0	324	307	0	0	0	0	
15	0	0	0	0	318	300	0	0	0	0	
0	0	0	0	0	312	294	0	0	0	0	
1	0	0	0	0	310	290	0	0	0	0	
2	0	0	0	0	310	289	0	0	0	0	
3	0	0	0	0	314	292	0	0	0	0	
4	0	0	0	0	321	299	0	0	0	0	
5	0	0	0	0	332	309	0	0	0	0	
6	0	0	0	0	346	323	0	0	0	0	
7	0	0	0	0	364	339	0	0	0	0	
8	0	0	0	0	384	357	0	0	0	0	
9	0	0	0	0	405	377	0	0	0	0	
10	0	0	0	0	428	398	0	0	0	0	
11	0	0	0	0	451	419	0	0	0	0	
12	0	0	0	0	473	440	0	0	0	0	
13	0	0	0	0	492	458	0	0	0	0	
14	0	0	0	0	511	475	0	0	0	0	
15	0	0	0	0	525	489	0	0	0	0	
0	0	0	0	0	537	502	0	0	0	0	
1	0	0	0	0	547	511	0	0	0	0	
2	0	0	0	0	553	519	0	0	0	0	
3	0	0	0	0	557	524	0	0	0	0	
4	0	0	0	0	559	528	0	0	0	0	
5	0	0	0	0	559	531	0	0	0	0	
6	0	0	0	0	557	531	0	0	0	0	
7	0	0	0	0	555	531	0	0	0	0	
8	0	0	0	0	551	531	0	0	0	0	
9	0	0	0	0	547	529	0	0	0	0	
10	0	0	0	0	543	527	0	0	0	0	
11	0	0	0	0	539	526	0	0	0	0	
12	0	0	0	0	535	524	0	0	0	0	
13	0	0	0	0	532	522	0	0	0	0	
14	0	0	0	0	529	520	0	0	0	0	
15	0	0	0	0	527	519	0	0	0	0	
0	0	0	0	0	527	518	0	0	0	0	
1	0	0	0	0	527	517	0	0	0	0	
2	0	0	0	0	528	516	0	0	0	0	
3	0	0	0	0	529	516	0	0	0	0	
4	0	0	0	0	531	516	0	0	0	0	
5	0	0	0	0	534	516	0	0	0	0	
6	0	0	0	0	536	517	0	0	0	0	
7	0	0	0	0	539	518	0	0	0	0	
8	0	0	0	0	541	519	0	0	0	0	
9	0	0	0	0	543	520	0	0	0	0	
10	0	0	0	0	545	522	0	0	0	0	
11	0	0	0	0	547	524	0	0	0	0	
12	0	0	0	0	549	526	0	0	0	0	
13	0	0	0	0	549	529	0	0	0	0	
14	0	0	0	0	551	531	0	0	0	0	
15	0	0	0	0	551	533	0	0	0	0	
0	0	0	0	0	551	535	0	0	0	0	
1	0	0	0	0	550	536	0	0	0	0	
2	0	0	0	0	551	538	0	0	0	0	
3	0	0	0	0	550	539	0	0	0	0	
4	0	0	0	0	549	539	0	0	0	0	
5	0	0	0	0	547	537	0	0	0	0	
6	0	0	0	0	547	536	0	0	0	0	
7	0	0	0	0	544	533	0	0	0	0	
8	0	0	0	0	543	531	0	0	0	0	
9	0	0	0	0	542	527	0	0	0	0	
10	0	0	0	0	540	524	0	0	0	0	
11	0	0	0	0	540	521	0	0	0	0	
12	0	0	0	0	538	519	0	0	0	0	
13	0	0	0	0	537	518	0	0	0	0	
14	0	0	0	0	536	517	0	0	0	0	
15	0	0	0	0	536	517	0	0	0	0	
0	0	0	0	0	536	518	0	0	0	0	
1	0	0	0	0	536	519	0	0	0	0	
2	0	0	0	0	537	522	0	0	0	0	
3	0	0	0	0	539	526	0	0	0	0	
4	0	0	0	0	540	528	0	0	0	0	
5	0	0	0	0	542	532	0	0	0	0	
6	0	0	0	0	544	535	0	0	0	0	
7	0	0	0	0	545	537	0	0	0	0	
8	0	0	0	0	546	539	0	0	0	0	
9	0	0	0	0	547	539	0	0	0	0	
10	0	0	0	0	548	539	0	0	0	0	
11	0	0	0	0	548	538	0	0	0	0	
12	0	0	0	0	548	536	0	0	0	0	
13	0	0	0	0	547	535	0	0	0	0	
14	0	0	0	0	546	532	0	0	0	0	
15	0	0	0	0	545	529	0	0	0	0	
0	0	0	0	0	543	526	0	0	0	0	
1	0	0	0	0	542	523	0	0	0	0	
2	0	0	0	0	540	521	0	0	0	0	
3	0	0	0	0	539	520	0	0	0	0	
4	0	0	0	0	539	519	0	0	0	0	
5	0	0	0	0	538	520	0	0	0	0	
6	0	0	0	0	539	521	0	0	0	0	
7	0	0	0	0	540	524	0	0	0	0	
8	0	0	0	0	540	525	0	0	0	0	
9	0	0	0	0	542	528	0	0	0	0	
10	0	0	0	0	542	530	0	0	0	0	
11	0	0	0	0	543	532	0	0	0	0	
12	0	0	0	0	544	534	0	0	0	0	
13	0	0	0	0	544	534	0	0	0	0	
14	0	0	0	0	545	534	0	0	0	0	
15	0	0	0	0	544	533	0	0	0	0	
0	0	0	0	0	544	531	0	0	0	0	
1	0	0	0	0	543	530	0	0	0	0	
2	0	0	0	0	543	528	0	0	0	0	
3	0	0	0	0	542	525	0	0	0	0	
4	0	0	0	0	541	523	0	0	0	0	
5	0	0	0	0	540	522	0	0	0	0	
6	0	0	0	0	540	520	0	0	0	0	
7	0	0	0	0	539	520	0	0	0	0	
8	0	0	0	0	539	521	0	0	0	0	
9	0	0	0	0	539	521	0	0	0	0	
10	0	0	0	0	539	523	0	0	0	0	
11	0	0	0	0	539	525	0	0	0	0	
12	0	0	0	0	539	526	0	0	0	0	
13	0	0	0	0	539	528	0	0	0	0	
14	0	0	0	0	539	529	0	0	0	0	
15	0	0	0	0	539	530	0	0	0	0	
0	0	0	0	0	539	530	0	0	0	0	
1	0	0	0	0	539	529	0	0	0	0	
2	0	0	0	0	538	528	0	0	0	0	
3	0	0	0	0	537	527	0	0	0	0	
4	0	0	0	0	537	525	0	0	0	0	
5	0	0	0	0	536	522	0	0	0	0	
6	0	0	0	0	535	520	0	0	0	0	
7	0	0	0	0	534	518	0	0	0	0	
8	0	0	0	0	532	516	0	0	0	0	
9	0	0	0	0	531	515	0	0	0	0	
10	0	0	0	0	531	514	0	0	0	0	
11	0	0	0	0	530	513	0	0	0	0	
12	0	0	0	0	530	513	0	0	0	0	
13	0	0	0	0	529	514	0	0	0	0	
14	0	0	0	0	529	515	0	0	0	0	
15	0	0	0	0	530	516	0	0	0	0	
0	0	0	0	0	530	517	0	0	0	0	
1	0	0	0	0	531	518	0	0	0	0	
2	0	0	0	0	531	519	0	0	0	0	
3	0	0	0	0	532	520	0	0	0	0	
4	0	0	0	0	533	520	0	0	0	0	
5	0	0	0	0	534	520	0	0	0	0	
6	0	0	0	0	534	520	0	0	0	0	
7	0	0	0	0	534	519	0	0	0	0	
8	0	0	0	0	535	518	0	0	0	0	
9	0	0	0	0	535	518	0	0	0	0	
10	0	0	0	0	536	517	0	0	0	0	
11	0	0	0	0	536	516	0	0	0	0	
12	0	0	0	0	536	515	0	0	0	0	
13	0	0	0	0	536	515	0	0	0	0	
14	0	0	0	0	535	516	0	0	0	0	
15	0	0	0	0	535	516	0	0	0	0	
0	0	0	0	0	535	518	0	0	0	0	
1	0	0	0	0	535	519	0	0	0	0	
2	0	0	0	0	534	520	0	0	0	0	
3	0	0	0	0	534	521	0	0	0	0	
4	0	0	0	0	534	523	0	0	0	0	
5	0	0	0	0	534	524	0	0	0	0	
6	0	0	0	0	533	524	0	0	0	0	
7	0	0	0	0	533	524	0	0	0	0	
8	0	0	0	0	533	525	0	0	0	0	
9	0	0	0	0	532	524	0	0	0	0	
10	0	0	0	0	532	523	0	0	0	0	
11	0	0	0	0	532	521	0	0	0	0	
12	0	0	0	0	531	519	0	0	0	0	
13	0	0	0	0	532	518	0	0	0	0	
14	0	0	0	0	531	516	0	0	0	0	
15	0	0	0	0	531	514	0	0	0	0	
0	0	0	0	0	531	513	0	0	0	0	
1	0	0	0	0	531	513	0	0	0	0	
2	0	0	0	0	532	513	0	0	0	0	
3	0	0	0	0	532	514	0	0	0	0	
4	0	0	0	0	533	515	0	0	0	0	
5	0	0	0	0	533	517	0	0	0	0	
6	0	0	0	0	533	518	0	0	0	0	
7	0	0	0	0	534	520	0	0	0	0	
8	0	0	0	0	534	522	0	0	0	0	
9	0	0	0	0	534	524	0	0	0	0	
10	0	0	0	0	534	525	0	0	0	0	
11	0	0	0	0	534	526	0	0	0	0	
12	0	0	0	0	534	527	0	0	0	0	
13	0	0	0	0	534	526	0	0	0	0	
14	0	0	0	0	534	525	0	0	0	0	
15	0	0	0	0	532	524	0	0	0	0	
0	0	0	0	0	531	523	0	0	0	0	
1	0	0	0	0	531	521	0	0	0	0	
2	0	0	0	0	530	519	0	0	0	0	
3	0	0	0	0	529	517	0	0	0	0	
4	0	0	0	0	528	515	0	0	0	0	
5	0	0	0	0	528	513	0	0	0	0	
6	0	0	0	0	527	513	0	0	0	0	
7	0	0	0	0	527	512	0	0	0	0	
8	0	0	0	0	527	513	0	0	0	0	
9	0	0	0	0	528	514	0	0	0	0	
10	0	0	0	0	528	515	0	0	0	0	
11	0	0	0	0	529	518	0	0	0	0	
12	0	0	0	0	530	519	0	0	0	0	
13	0	0	0	0	532	522	0	0	0	0	
14	0	0	0	0	533	524	0	0	0	0	
15	0	0	0	0	535	526	0	0	0	0	
0	0	0	0	0	536	528	0	0	0	0	
1	0	0	0	0	537	529	0	0	0	0	
2	0	0	0	0	539	529	0	0	0	0	
3	0	0	0	0	540	529	0	0	0	0	
4	0	0	0	0	540	529	0	0	0	0	
5	0	0	0	0	540	528	0	0	0	0	
6	0	0	0	0	540	527	0	0	0	0	
7	0	0	0	0	541	527	0	0	0	0	
8	0	0	0	0	541	526	0	0	0	0	
9	0	0	0	0	542	526	0	0	0	0	
10	0	0	0	0	542	526	0	0	0	0	
11	0	0	0	0	543	527	0	0	0	0	
12	0	0	0	0	543	527	0	0	0	0	
13	0	0	0	0	544	530	0	0	0	0	
14	0	0	0	0	544	532	0	0	0	0	
15	0	0	0	0	544	534	0	0	0	0	
0	0	0	0	0	544	536	0	0	0	0	
1	0	0	0	0	544	537	0	0	0	0	
2	0	0	0	0	544	537	0	0	0	0	
3	0	0	0	0	543	537	0	0	0	0	
4	0	0	0	0	543	537	0	0	0	0	
5	0	0	0	0	542	536	0	0	0	0	
6	0	0	0	0	542	535	0	0	0	0	
7	0	0	0	0	541	533	0	0	0	0	
8	0	0	0	0	541	531	0	0	0	0	
9	0	0	0	0	541	529	0	0	0	0	
10	0	0	0	0	540	527	0	0	0	0	
11	0	0	0	0	540	526	0	0	0	0	
12	0	0	0	0	540	524	0	0	0	0	
13	0	0	0	0	540	524	0	0	0	0	
14	0	0	0	0	540	524	0	0	0	0	
15	0	0	0	0	541	525	0	0	0	0	
0	0	0	0	0	542	527	0	0	0	0	
1	0	0	0	0	543	529	0	0	0	0	
2	0	0	0	0	545	531	0	0	0	0	
3	0	0	0	0	546	534	0	0	0	0	
4	0	0	0	0	548	536	0	0	0	0	
5	0	0	0	0	549	538	0	0	0	0	
6	0	0	0	0	549	540	0	0	0	0	
7	0	0	0	0	550	540	0	0	0	0	
8	0	0	0	0	549	540	0	0	0	0	
9	0	0	0	0	548	539	0	0	0	0	
10	0	0	0	0	547	537	0	0	0	0	
11	0	0	0	0	545	535	0	0	0	0	
12	0	0	0	0	543	532	0	0	0	0	
13	0	0	0	0	541	530	0	0	0	0	
14	0	0	0	0	539	526	0	0	0	0	
15	0	0	0	0	537	524	0	0	0	0	
0	0	0	0	0	536	521	0	0	0	0	
1	0	0	0	0	535	520	0	0	0	0	
2	0	0	0	0	535	519	0	0	0	0	
3	0	0	0	0	535	519	0	0	0	0	
4	0	0	0	0	535	520	0	0	0	0	
5	0	0	0	0	536	521	0	0	0	0	
6	0	0	0	0	536	523	0	0	0	0	
7	0	0	0	0	537	524	0	0	0	0	
8	0	0	0	0	537	526	0	0	0	0	
9	0	0	0	0	538	528	0	0	0	0	
10	0	0	0	0	537	529	0	0	0	0	
11	0	0	0	0	539	530	0	0	0	0	
12	0	0	0	0	539	531	0	0	0	0	
13	0	0	0	0	537	529	0	0	0	0	
14	0	0	0	0	537	529	0	0	0	0	
15	0	0	0	0	536	527	0	0	0	0	
0	0	0	0	0	535	526	0	0	0	0	
1	0	0	0	0	534	524	0	0	0	0	
2	0	0	0	0	532	521	0	0	0	0	
3	0	0	0	0	531	519	0	0	0	0	
4	0	0	0	0	531	518	0	0	0	0	
5	0	0	0	0	530	516	0	0	0	0	
6	0	0	0	0	531	516	0	0	0	0	
7	0	0	0	0	531	516	0	0	0	0	
8	0	0	0	0	533	516	0	0	0	0	
9	0	0	0	0	534	518	0	0	0	0	
10	0	0	0	0	535	519	0	0	0	0	
11	0	0	0	0	536	521	0	0	0	0	
12	0	0	0	0	537	523	0	0	0	0	
13	0	0	0	0	538	524	0	0	0	0	
14	0	0	0	0	539	526	0	0	0	0	
15	0	0	0	0	540	527	0	0	0	0	
0	0	0	0	0	541	528	0	0	0	0	
1	0	0	0	0	541	528	0	0	0	0	
2	0	0	0	0	541	528	0	0	0	0	
3	0	0	0	0	541	527	0	0	0	0	
4	0	0	0	0	540	527	0	0	0	0	
5	0	0	0	0	540	525	0	0	0	0	
6	0	0	0	0	539	524	0	0	0	0	
7	0	0	0	0	538	522	0	0	0	0	
8	0	0	0	0	536	520	0	0	0	0	
9	0	0	0	0	535	518	0	0	0	0	
10	0	0	0	0	534	518	0	0	0	0	
11	0	0	0	0	533	516	0	0	0	0	
12	0	0	0	0	531	515	0	0	0	0	
13	0	0	0	0	531	516	0	0	0	0	
14	0	0	0	0	530	517	0	0	0	0	
15	0	0	0	0	529	518	0	0	0	0	
0	0	0	0	0	528	519	0	0	0	0	
1	0	0	0	0	528	520	0	0	0	0	
2	0	0	0	0	528	521	0	0	0	0	
3	0	0	0	0	527	521	0	0	0	0	
4	0	0	0	0	527	521	0	0	0	0	
5	0	0	0	0	526	519	0	0	0	0	
6	0	0	0	0	526	519	0	0	0	0	
7	0	0	0	0	525	518	0	0	0	0	
8	0	0	0	0	524	516	0	0	0	0	
9	0	0	0	0	524	515	0	0	0	0	
10	0	0	0	0	523	513	0	0	0	0	
11	0	0	0	0	523	512	0	0	0	0	
12	0	0	0	0	522	512	0	0	0	0	
13	0	0	0	0	523	512	0	0	0	0	
14	0	0	0	0	523	513	0	0	0	0	
15	0	0	0	0	524	514	0	0	0	0	
0	0	0	0	0	525	516	0	0	0	0	
1	0	0	0	0	527	518	0	0	0	0	
2	0	0	0	0	528	521	0	0	0	0	
3	0	0	0	0	530	523	0	0	0	0	
4	0	0	0	0	531	524	0	0	0	0	
5	0	0	0	0	532	526	0	0	0	0	
6	0	0	0	0	533	527	0	0	0	0	
7	0	0	0	0	534	527	0	0	0	0	
8	0	0	0	0	534	527	0	0	0	0	
9	0	0	0	0	533	525	0	0	0	0	
10	0	0	0	0	532	523	0	0	0	0	
11	0	0	0	0	531	519	0	0	0	0	
12	0	0	0	0	529	517	0	0	0	0	
13	0	0	0	0	527	514	0	0	0	0	
14	0	0	0	0	525	511	0	0	0	0	
15	0	0	0	0	524	508	0	0	0	0	
0	0	0	0	0	521	506	0	0	0	0	
1	0	0	0	0	519	505	0	0	0	0	
2	0	0	0	0	518	504	0	0	0	0	
3	0	0	0	0	516	504	0	0	0	0	
4	0	0	0	0	517	505	0	0	0	0	
5	0	0	0	0	516	506	0	0	0	0	
6	0	0	0	0	516	507	0	0	0	0	
7	0	0	0	0	515	509	0	0	0	0	
8	0	0	0	0	516	510	0	0	0	0	
9	0	0	0	0	516	512	0	0	0	0	
10	0	0	0	0	517	513	0	0	0	0	
11	0	0	0	0	518	515	0	0	0	0	
12	0	0	0	0	519	515	0	0	0	0	
13	0	0	0	0	520	516	0	0	0	0	
14	0	0	0	0	521	516	0	0	0	0	
15	0	0	0	0	523	516	0	0	0	0	
0	0	0	0	0	524	515	0	0	0	0	
1	0	0	0	0	524	515	0	0	0	0	
2	0	0	0	0	525	514	0	0	0	0	
3	0	0	0	0	526	513	0	0	0	0	
4	0	0	0	0	527	513	0	0	0	0	
5	0	0	0	0	527	513	0	0	0	0	
6	0	0	0	0	527	513	0	0	0	0	
7	0	0	0	0	527	514	0	0	0	0	
8	0	0	0	0	527	515	0	0	0	0	
9	0	0	0	0	527	517	0	0	0	0	
10	0	0	0	0	528	519	0	0	0	0	
11	0	0	0	0	529	521	0	0	0	0	
12	0	0	0	0	529	522	0	0	0	0	
13	0	0	0	0	530	524	0	0	0	0	
14	0	0	0	0	530	525	0	0	0	0	
15	0	0	0	0	530	526	0	0	0	0	
0	0	0	0	0	529	526	0	0	0	0	
1	0	0	0	0	528	524	0	0	0	0	
2	0	0	0	0	527	523	0	0	0	0	
3	0	0	0	0	526	520	0	0	0	0	
4	0	0	0	0	524	518	0	0	0	0	
5	0	0	0	0	523	516	0	0	0	0	
6	0	0	0	0	521	513	0	0	0	0	
7	0	0	0	0	519	511	0	0	0	0	
8	0	0	0	0	519	510	0	0	0	0	
9	0	0	0	0	519	510	0	0	0	0	
10	0	0	0	0	519	510	0	0	0	0	
11	0	0	0	0	519	511	0	0	0	0	
12	0	0	0	0	520	512	0	0	0	0	
13	0	0	0	0	520	513	0	0	0	0	
14	0	0	0	0	521	514	0	0	0	0	
15	0	0	0	0	522	516	0	0	0	0	
0	0	0	0	0	523	516	0	0	0	0	
1	0	0	0	0	524	517	0	0	0	0	
2	0	0	0	0	524	518	0	0	0	0	
3	0	0	0	0	525	518	0	0	0	0	
4	0	0	0	0	526	517	0	0	0	0	
5	0	0	0	0	525	515	0	0	0	0	
6	0	0	0	0	527	515	0	0	0	0	
7	0	0	0	0	526	513	0	0	0	0	
8	0	0	0	0	525	511	0	0	0	0	
9	0	0	0	0	525	510	0	0	0	0	
10	0	0	0	0	524	508	0	0	0	0	
11	0	0	0	0	523	506	0	0	0	0	
12	0	0	0	0	522	505	0	0	0	0	
13	0	0	0	0	521	505	0	0	0	0	
14	0	0	0	0	520	505	0	0	0	0	
15	0	0	0	0	520	505	0	0	0	0	
0	0	0	0	0	520	506	0	0	0	0	
1	0	0	0	0	519	507	0	0	0	0	
2	0	0	0	0	520	509	0	0	0	0	
3	0	0	0	0	521	511	0	0	0	0	
4	0	0	0	0	522	513	0	0	0	0	
5	0	0	0	0	523	515	0	0	0	0	
6	0	0	0	0	524	516	0	0	0	0	
7	0	0	0	0	525	517	0	0	0	0	
8	0	0	0	0	526	518	0	0	0	0	
9	0	0	0	0	526	518	0	0	0	0	
10	0	0	0	0	526	518	0	0	0	0	
11	0	0	0	0	526	516	0	0	0	0	
12	0	0	0	0	525	515	0	0	0	0	
13	0	0	0	0	524	513	0	0	0	0	
14	0	0	0	0	522	511	0	0	0	0	
15	0	0	0	0	520	508	0	0	0	0	
0	0	0	0	0	518	506	0	0	0	0	
1	0	0	0	0	516	504	0	0	0	0	
2	0	0	0	0	514	502	0	0	0	0	
3	0	0	0	0	513	501	0	0	0	0	
4	0	0	0	0	512	500	0	0	0	0	
5	0	0	0	0	511	501	0	0	0	0	
6	0	0	0	0	511	502	0	0	0	0	
7	0	0	0	0	511	504	0	0	0	0	
8	0	0	0	0	512	505	0	0	0	0	
9	0	0	0	0	515	508	0	0	0	0	
10	0	0	0	0	516	511	0	0	0	0	
11	0	0	0	0	518	513	0	0	0	0	
12	0	0	0	0	521	515	0	0	0	0	
13	0	0	0	0	523	517	0	0	0	0	
14	0	0	0	0	525	518	0	0	0	0	
15	0	0	0	0	526	518	0	0	0	0	
0	0	0	0	0	527	517	0	0	0	0	
1	0	0	0	0	527	516	0	0	0	0	
2	0	0	0	0	526	514	0	0	0	0	
3	0	0	0	0	526	512	0	0	0	0	
4	0	0	0	0	524	510	0	0	0	0	
5	0	0	0	0	523	508	0	0	0	0	
6	0	0	0	0	521	507	0	0	0	0	
7	0	0	0	0	520	506	0	0	0	0	
8	0	0	0	0	519	507	0	0	0	0	
9	0	0	0	0	520	506	0	0	0	0	
10	0	0	0	0	520	508	0	0	0	0	
11	0	0	0	0	521	509	0	0	0	0	
12	0	0	0	0	521	510	0	0	0	0	
13	0	0	0	0	522	511	0	0	0	0	
14	0	0	0	0	522	512	0	0	0	0	
15	0	0	0	0	522	512	0	0	0	0	
0	0	0	0	0	522	512	0	0	0	0	
1	0	0	0	0	522	512	0	0	0	0	
2	0	0	0	0	521	511	0	0	0	0	
3	0	0	0	0	520	510	0	0	0	0	
4	0	0	0	0	519	508	0	0	0	0	
5	0	0	0	0	519	507	0	0	0	0	
6	0	0	0	0	518	505	0	0	0	0	
7	0	0	0	0	517	504	0	0	0	0	
8	0	0	0	0	518	503	0	0	0	0	
9	0	0	0	0	518	502	0	0	0	0	
10	0	0	0	0	519	503	0	0	0	0	
11	0	0	0	0	520	503	0	0	0	0	
12	0	0	0	0	521	504	0	0	0	0	
13	0	0	0	0	523	505	0	0	0	0	
14	0	0	0	0	524	508	0	0	0	0	
15	0	0	0	0	526	511	0	0	0	0	
0	0	0	0	0	527	514	0	0	0	0	
1	0	0	0	0	529	517	0	0	0	0	
2	0	0	0	0	530	519	0	0	0	0	
3	0	0	0	0	531	521	0	0	0	0	
4	0	0	0	0	532	523	0	0	0	0	
5	0	0	0	0	532	524	0	0	0	0	
6	0	0	0	0	533	524	0	0	0	0	
7	0	0	0	0	532	523	0	0	0	0	
8	0	0	0	0	532	523	0	0	0	0	
9	0	0	0	0	531	521	0	0	0	0	
10	0	0	0	0	530	519	0	0	0	0	
11	0	0	0	0	531	517	0	0	0	0	
12	0	0	0	0	530	515	0	0	0	0	
13	0	0	0	0	528	515	0	0	0	0	
14	0	0	0	0	528	513	0	0	0	0	
15	0	0	0	0	527	513	0	0	0	0	
0	0	0	0	0	527	512	0	0	0	0	
1	0	0	0	0	526	513	0	0	0	0	
2	0	0	0	0	526	514	0	0	0	0	
3	0	0	0	0	526	515	0	0	0	0	
4	0	0	0	0	526	516	0	0	0	0	
5	0	0	0	0	527	517	0	0	0	0	
6	0	0	0	0	527	518	0	0	0	0	
7	0	0	0	0	527	519	0	0	0	0	
8	0	0	0	0	527	519	0	0	0	0	
9	0	0	0	0	527	517	0	0	0	0	
10	0	0	0	0	527	517	0	0	0	0	
11	0	0	0	0	527	516	0	0	0	0	
12	0	0	0	0	525	515	0	0	0	0	
13	0	0	0	0	524	513	0	0	0	0	
14	0	0	0	0	523	511	0	0	0	0	
15	0	0	0	0	523	510	0	0	0	0	
0	0	0	0	0	521	508	0	0	0	0	
1	0	0	0	0	521	508	0	0	0	0	
2	0	0	0	0	521	508	0	0	0	0	
3	0	0	0	0	521	508	0	0	0	0	
4	0	0	0	0	523	509	0	0	0	0	
5	0	0	0	0	523	510	0	0	0	0	
6	0	0	0	0	524	511	0	0	0	0	
7	0	0	0	0	526	513	0	0	0	0	
8	0	0	0	0	527	515	0	0	0	0	
9	0	0	0	0	529	518	0	0	0	0	
10	0	0	0	0	530	519	0	0	0	0	
11	0	0	0	0	530	520	0	0	0	0	
12	0	0	0	0	531	521	0	0	0	0	
13	0	0	0	0	530	520	0	0	0	0	
14	0	0	0	0	530	521	0	0	0	0	
15	0	0	0	0	529	519	0	0	0	0	
0	0	0	0	0	528	519	0	0	0	0	
1	0	0	0	0	527	517	0	0	0	0	
2	0	0	0	0	526	516	0	0	0	0	
3	0	0	0	0	526	514	0	0	0	0	
4	0	0	0	0	524	513	0	0	0	0	
5	0	0	0	0	524	513	0	0	0	0	
6	0	0	0	0	524	513	0	0	0	0	
7	0	0	0	0	524	513	0	0	0	0	
8	0	0	0	0	524	514	0	0	0	0	
9	0	0	0	0	525	515	0	0	0	0	
10	0	0	0	0	525	516	0	0	0	0	
11	0	0	0	0	526	517	0	0	0	0	
12	0	0	0	0	526	518	0	0	0	0	
13	0	0	0	0	526	518	0	0	0	0	
14	0	0	0	0	526	516	0	0	0	0	
15	0	0	0	0	524	516	0	0	0	0	
0	0	0	0	0	524	515	0	0	0	0	
1	0	0	0	0	523	513	0	0	0	0	
2	0	0	0	0	522	511	0	0	0	0	
3	0	0	0	0	521	509	0	0	0	0	
4	0	0	0	0	520	508	0	0	0	0	
5	0	0	0	0	520	507	0	0	0	0	
6	0	0	0	0	521	506	0	0	0	0	
7	0	0	0	0	522	505	0	0	0	0	
8	0	0	0	0	523	506	0	0	0	0	
9	0	0	0	0	525	508	0	0	0	0	
10	0	0	0	0	527	509	0	0	0	0	
11	0	0	0	0	529	510	0	0	0	0	
12	0	0	0	0	530	513	0	0	0	0	
13	0	0	0	0	534	515	0	0	0	0	
14	0	0	0	0	536	518	0	0	0	0	
15	0	0	0	0	537	521	0	0	0	0	
0	0	0	0	0	538	523	0	0	0	0	
1	0	0	0	0	539	524	0	0	0	0	
2	0	0	0	0	539	525	0	0	0	0	
3	0	0	0	0	538	526	0	0	0	0	
4	0	0	0	0	538	526	0	0	0	0	
5	0	0	0	0	536	523	0	0	0	0	
6	0	0	0	0	535	522	0	0	0	0	
7	0	0	0	0	533	519	0	0	0	0	
8	0	0	0	0	531	516	0	0	0	0	
9	0	0	0	0	529	513	0	0	0	0	
10	0	0	0	0	527	510	0	0	0	0	
11	0	0	0	0	526	507	0	0	0	0	
12	0	0	0	0	524	505	0	0	0	0	
13	0	0	0	0	523	504	0	0	0	0	
14	0	0	0	0	523	504	0	0	0	0	
15	0	0	0	0	523	505	0	0	0	0	
0	0	0	0	0	524	507	0	0	0	0	
1	0	0	0	0	524	508	0	0	0	0	
2	0	0	0	0	524	510	0	0	0	0	
3	0	0	0	0	525	513	0	0	0	0	
4	0	0	0	0	526	515	0	0	0	0	
5	0	0	0	0	527	516	0	0	0	0	
6	0	0	0	0	527	518	0	0	0	0	
7	0	0	0	0	528	518	0	0	0	0	
8	0	0	0	0	528	519	0	0	0	0	
9	0	0	0	0	528	518	0	0	0	0	
10	0	0	0	0	529	518	0	0	0	0	
11	0	0	0	0	529	517	0	0	0	0	
12	0	0	0	0	529	516	0	0	0	0	
13	0	0	0	0	530	515	0	0	0	0	
14	0	0	0	0	530	514	0	0	0	0	
15	0	0	0	0	530	514	0	0	0	0	
0	0	0	0	0	531	513	0	0	0	0	
1	0	0	0	0	531	513	0	0	0	0	
2	0	0	0	0	532	512	0	0	0	0	
3	0	0	0	0	532	513	0	0	0	0	
4	0	0	0	0	533	513	0	0	0	0	
5	0	0	0	0	532	513	0	0	0	0	
6	0	0	0	0	532	514	0	0	0	0	
7	0	0	0	0	531	513	0	0	0	0	
8	0	0	0	0	529	512	0	0	0	0	
9	0	0	0	0	526	510	0	0	0	0	
10	0	0	0	0	522	506	0	0	0	0	
11	0	0	0	0	516	502	0	0	0	0	
12	0	0	0	0	510	496	0	0	0	0	
13	0	0	0	0	502	488	0	0	0	0	
14	0	0	0	0	494	480	0	0	0	0	
15	0	0	0	0	484	471	0	0	0	0	
0	0	0	0	0	475	461	0	0	0	0	
1	0	0	0	0	465	451	0	0	0	0	
2	0	0	0	0	454	439	0	0	0	0	
3	0	0	0	0	444	428	0	0	0	0	
4	0	0	0	0	433	417	0	0	0	0	
5	0	0	0	0	423	407	0	0	0	0	
6	0	0	0	0	413	397	0	0	0	0	
7	0	0	0	0	403	387	0	0	0	0	
8	0	0	0	0	393	379	0	0	0	0	
9	0	0	0	0	384	370	0	0	0	0	
10	0	0	0	0	375	361	0	0	0	0	
11	0	0	0	0	365	353	0	0	0	0	
12	0	0	0	0	356	344	0	0	0	0	
13	0	0	0	0	346	335	0	0	0	0	
14	0	0	0	0	336	327	0	0	0	0	
15	0	0	0	0	327	318	0	0	0	0	
0	0	0	0	0	319	309	0	0	0	0	
1	0	0	0	0	312	301	0	0	0	0	
2	0	0	0	0	307	296	0	0	0	0	
3	0	0	0	0	305	292	0	0	0	0	
4	0	0	0	0	305	292	0	0	0	0	
5	0	0	0	0	310	294	0	0	0	0	
6	0	0	0	0	319	299	0	0	0	0	
7	0	0	0	0	331	308	0	0	0	0	
8	0	0	0	0	346	320	0	0	0	0	
9	0	0	0	0	364	336	0	0	0	0	
10	0	0	0	0	386	355	0	0	0	0	
11	0	0	0	0	409	376	0	0	0	0	
12	0	0	0	0	433	398	0	0	0	0	
13	0	0	0	0	457	421	0	0	0	0	
14	0	0	0	0	481	444	0	0	0	0	
15	0	0	0	0	503	466	0	0	0	0	
0	0	0	0	0	524	487	0	0	0	0	
1	0	0	0	0	541	506	0	0	0	0	
2	0	0	0	0	555	522	0	0	0	0	
3	0	0	0	0	566	535	0	0	0	0	
4	0	0	0	0	573	545	0	0	0	0	
5	0	0	0	0	577	551	0	0	0	0	
6	0	0	0	0	578	555	0	0	0	0	
7	0	0	0	0	576	555	0	0	0	0	
8	0	0	0	0	572	553	0	0	0	0	
9	0	0	0	0	567	550	0	0	0	0	
10	0	0	0	0	560	544	0	0	0	0	
11	0	0	0	0	553	538	0	0	0	0	
12	0	0	0	0	546	532	0	0	0	0	
13	0	0	0	0	540	526	0	0	0	0	
14	0	0	0	0	534	521	0	0	0	0	
15	0	0	0	0	530	517	0	0	0	0	
0	0	0	0	0	527	515	0	0	0	0	
1	0	0	0	0	525	513	0	0	0	0	
2	0	0	0	0	525	513	0	0	0	0	
3	0	0	0	0	526	514	0	0	0	0	
4	0	0	0	0	528	515	0	0	0	0	
5	0	0	0	0	531	518	0	0	0	0	
6	0	0	0	0	534	520	0	0	0	0	
7	0	0	0	0	536	522	0	0	0	0	
8	0	0	0	0	539	525	0	0	0	0	
9	0	0	0	0	542	527	0	0	0	0	
10	0	0	0	0	545	528	0	0	0	0	
11	0	0	0	0	547	530	0	0	0	0	
12	0	0	0	0	549	531	0	0	0	0	
13	0	0	0	0	551	533	0	0	0	0	
14	0	0	0	0	552	534	0	0	0	0	
15	0	0	0	0	553	535	0	0	0	0	
0	0	0	0	0	553	536	0	0	0	0	
1	0	0	0	0	554	537	0	0	0	0	
2	0	0	0	0	555	539	0	0	0	0	
3	0	0	0	0	554	539	0	0	0	0	
4	0	0	0	0	555	540	0	0	0	0	
5	0	0	0	0	554	541	0	0	0	0	
6	0	0	0	0	553	541	0	0	0	0	
7	0	0	0	0	552	542	0	0	0	0	
8	0	0	0	0	551	542	0	0	0	0	
9	0	0	0	0	551	541	0	0	0	0	
10	0	0	0	0	549	540	0	0	0	0	
11	0	0	0	0	548	539	0	0	0	0	
12	0	0	0	0	548	538	0	0	0	0	
13	0	0	0	0	547	536	0	0	0	0	
14	0	0	0	0	546	534	0	0	0	0	
15	0	0	0	0	545	532	0	0	0	0	
0	0	0	0	0	544	531	0	0	0	0	
1	0	0	0	0	543	529	0	0	0	0	
2	0	0	0	0	543	528	0	0	0	0	
3	0	0	0	0	543	527	0	0	0	0	
4	0	0	0	0	542	527	0	0	0	0	
5	0	0	0	0	542	527	0	0	0	0	
6	0	0	0	0	542	527	0	0	0	0	
7	0	0	0	0	543	527	0	0	0	0	
8	0	0	0	0	543	529	0	0	0	0	
9	0	0	0	0	543	530	0	0	0	0	
10	0	0	0	0	543	531	0	0	0	0	
11	0	0	0	0	543	533	0	0	0	0	
12	0	0	0	0	544	534	0	0	0	0	
13	0	0	0	0	544	535	0	0	0	0	
14	0	0	0	0	544	536	0	0	0	0	
15	0	0	0	0	544	536	0	0	0	0	
0	0	0	0	0	544	537	0	0	0	0	
1	0	0	0	0	545	537	0	0	0	0	
2	0	0	0	0	545	537	0	0	0	0	
3	0	0	0	0	546	535	0	0	0	0	
4	0	0	0	0	545	534	0	0	0	0	
5	0	0	0	0	545	533	0	0	0	0	
6	0	0	0	0	545	531	0	0	0	0	
7	0	0	0	0	545	530	0	0	0	0	
8	0	0	0	0	544	529	0	0	0	0	
9	0	0	0	0	544	528	0	0	0	0	
10	0	0	0	0	543	528	0	0	0	0	
11	0	0	0	0	543	528	0	0	0	0	
12	0	0	0	0	542	528	0	0	0	0	
13	0	0	0	0	542	529	0	0	0	0	
14	0	0	0	0	542	530	0	0	0	0	
15	0	0	0	0	542	531	0	0	0	0	
0	0	0	0	0	542	532	0	0	0	0	
1	0	0	0	0	542	534	0	0	0	0	
2	0	0	0	0	541	534	0	0	0	0	
3	0	0	0	0	541	535	0	0	0	0	
4	0	0	0	0	541	535	0	0	0	0	
5	0	0	0	0	541	534	0	0	0	0	
6	0	0	0	0	540	532	0	0	0	0	
7	0	0	0	0	540	531	0	0	0	0	
8	0	0	0	0	539	529	0	0	0	0	
9	0	0	0	0	539	527	0	0	0	0	
10	0	0	0	0	538	526	0	0	0	0	
11	0	0	0	0	538	524	0	0	0	0	
12	0	0	0	0	537	523	0	0	0	0	
13	0	0	0	0	537	522	0	0	0	0	
14	0	0	0	0	537	522	0	0	0	0	
15	0	0	0	0	537	523	0	0	0	0	
0	0	0	0	0	537	524	0	0	0	0	
1	0	0	0	0	537	524	0	0	0	0	
2	0	0	0	0	537	525	0	0	0	0	
3	0	0	0	0	537	526	0	0	0	0	
4	0	0	0	0	536	527	0	0	0	0	
5	0	0	0	0	535	527	0	0	0	0	
6	0	0	0	0	534	527	0	0	0	0	
7	0	0	0	0	532	526	0	0	0	0	
8	0	0	0	0	531	526	0	0	0	0	
9	0	0	0	0	531	524	0	0	0	0	
10	0	0	0	0	530	522	0	0	0	0	
11	0	0	0	0	529	520	0	0	0	0	
12	0	0	0	0	528	518	0	0	0	0	
13	0	0	0	0	527	516	0	0	0	0	
14	0	0	0	0	527	513	0	0	0	0	
15	0	0	0	0	526	512	0	0	0	0	
0	0	0	0	0	527	510	0	0	0	0	
1	0	0	0	0	526	509	0	0	0	0	
2	0	0	0	0	527	508	0	0	0	0	
3	0	0	0	0	527	508	0	0	0	0	
4	0	0	0	0	527	509	0	0	0	0	
5	0	0	0	0	527	511	0	0	0	0	
6	0	0	0	0	528	512	0	0	0	0	
7	0	0	0	0	529	514	0	0	0	0	
8	0	0	0	0	529	516	0	0	0	0	
9	0	0	0	0	530	518	0	0	0	0	
10	0	0	0	0	531	519	0	0	0	0	
11	0	0	0	0	531	520	0	0	0	0	
12	0	0	0	0	531	521	0	0	0	0	
13	0	0	0	0	532	521	0	0	0	0	
14	0	0	0	0	532	521	0	0	0	0	
15	0	0	0	0	532	520	0	0	0	0	
0	0	0	0	0	531	519	0	0	0	0	
1	0	0	0	0	531	518	0	0	0	0	
2	0	0	0	0	530	515	0	0	0	0	
3	0	0	0	0	531	514	0	0	0	0	
4	0	0	0	0	530	513	0	0	0	0	
5	0	0	0	0	529	512	0	0	0	0	
6	0	0	0	0	528	512	0	0	0	0	
7	0	0	0	0	527	511	0	0	0	0	
8	0	0	0	0	528	512	0	0	0	0	
9	0	0	0	0	527	513	0	0	0	0	
10	0	0	0	0	527	515	0	0	0	0	
11	0	0	0	0	529	516	0	0	0	0	
12	0	0	0	0	529	518	0	0	0	0	
13	0	0	0	0	530	520	0	0	0	0	
14	0	0	0	0	532	522	0	0	0	0	
15	0	0	0	0	533	523	0	0	0	0	
0	0	0	0	0	535	524	0	0	0	0	
1	0	0	0	0	536	524	0	0	0	0	
2	0	0	0	0	537	524	0	0	0	0	
3	0	0	0	0	538	524	0	0	0	0	
4	0	0	0	0	539	523	0	0	0	0	
5	0	0	0	0	539	522	0	0	0	0	
6	0	0	0	0	539	521	0	0	0	0	
7	0	0	0	0	539	520	0	0	0	0	
8	0	0	0	0	537	519	0	0	0	0	
9	0	0	0	0	536	518	0	0	0	0	
10	0	0	0	0	536	518	0	0	0	0	
11	0	0	0	0	535	518	0	0	0	0	
12	0	0	0	0	535	518	0	0	0	0	
13	0	0	0	0	534	518	0	0	0	0	
14	0	0	0	0	534	519	0	0	0	0	
15	0	0	0	0	535	521	0	0	0	0	
0	0	0	0	0	536	522	0	0	0	0	
1	0	0	0	0	537	524	0	0	0	0	
2	0	0	0	0	538	524	0	0	0	0	
3	0	0	0	0	538	526	0	0	0	0	
4	0	0	0	0	539	526	0	0	0	0	
5	0	0	0	0	539	526	0	0	0	0	
6	0	0	0	0	539	525	0	0	0	0	
7	0	0	0	0	537	524	0	0	0	0	
8	0	0	0	0	537	523	0	0	0	0	
9	0	0	0	0	536	522	0	0	0	0	
10	0	0	0	0	536	520	0	0	0	0	
11	0	0	0	0	536	520	0	0	0	0	
12	0	0	0	0	535	519	0	0	0	0	
13	0	0	0	0	536	520	0	0	0	0	
14	0	0	0	0	537	521	0	0	0	0	
15	0	0	0	0	538	522	0	0	0	0	
0	0	0	0	0	540	524	0	0	0	0	
1	0	0	0	0	541	526	0	0	0	0	
2	0	0	0	0	542	527	0	0	0	0	
3	0	0	0	0	543	529	0	0	0	0	
4	0	0	0	0	544	531	0	0	0	0	
5	0	0	0	0	545	532	0	0	0	0	
6	0	0	0	0	545	533	0	0	0	0	
7	0	0	0	0	545	534	0	0	0	0	
8	0	0	0	0	545	534	0	0	0	0	
9	0	0	0	0	544	534	0	0	0	0	
10	0	0	0	0	543	533	0	0	0	0	
11	0	0	0	0	541	532	0	0	0	0	
12	0	0	0	0	540	530	0	0	0	0	
13	0	0	0	0	539	529	0	0	0	0	
14	0	0	0	0	538	528	0	0	0	0	
15	0	0	0	0	538	527	0	0	0	0	
0	0	0	0	0	537	527	0	0	0	0	
1	0	0	0	0	537	527	0	0	0	0	
2	0	0	0	0	539	528	0	0	0	0	
3	0	0	0	0	540	529	0	0	0	0	
4	0	0	0	0	541	531	0	0	0	0	
5	0	0	0	0	543	533	0	0	0	0	
6	0	0	0	0	545	536	0	0	0	0	
7	0	0	0	0	547	537	0	0	0	0	
8	0	0	0	0	548	540	0	0	0	0	
9	0	0	0	0	549	540	0	0	0	0	
10	0	0	0	0	550	541	0	0	0	0	
11	0	0	0	0	551	541	0	0	0	0	
12	0	0	0	0	551	540	0	0	0	0	
13	0	0	0	0	550	539	0	0	0	0	
14	0	0	0	0	549	536	0	0	0	0	
15	0	0	0	0	547	534	0	0	0	0	
0	0	0	0	0	546	531	0	0	0	0	
1	0	0	0	0	544	528	0	0	0	0	
2	0	0	0	0	542	525	0	0	0	0	
3	0	0	0	0	540	523	0	0	0	0	
4	0	0	0	0	539	522	0	0	0	0	
5	0	0	0	0	537	521	0	0	0	0	
6	0	0	0	0	536	521	0	0	0	0	
7	0	0	0	0	536	523	0	0	0	0	
8	0	0	0	0	536	524	0	0	0	0	
9	0	0	0	0	537	526	0	0	0	0	
10	0	0	0	0	537	528	0	0	0	0	
11	0	0	0	0	539	531	0	0	0	0	
12	0	0	0	0	540	532	0	0	0	0	
13	0	0	0	0	541	534	0	0	0	0	
14	0	0	0	0	542	535	0	0	0	0	
15	0	0	0	0	542	536	0	0	0	0	
0	0	0	0	0	542	536	0	0	0	0	
1	0	0	0	0	543	536	0	0	0	0	
2	0	0	0	0	542	535	0	0	0	0	
3	0	0	0	0	542	533	0	0	0	0	
4	0	0	0	0	541	531	0	0	0	0	
5	0	0	0	0	540	528	0	0	0	0	
6	0	0	0	0	538	524	0	0	0	0	
7	0	0	0	0	537	523	0	0	0	0	
8	0	0	0	0	535	520	0	0	0	0	
9	0	0	0	0	533	518	0	0	0	0	
10	0	0	0	0	531	516	0	0	0	0	
11	0	0	0	0	530	515	0	0	0	0	
12	0	0	0	0	528	514	0	0	0	0	
13	0	0	0	0	527	514	0	0	0	0	
14	0	0	0	0	526	515	0	0	0	0	
15	0	0	0	0	525	515	0	0	0	0	
0	0	0	0	0	525	516	0	0	0	0	
1	0	0	0	0	524	517	0	0	0	0	
2	0	0	0	0	524	517	0	0	0	0	
3	0	0	0	0	524	517	0	0	0	0	
4	0	0	0	0	524	517	0	0	0	0	
5	0	0	0	0	524	515	0	0	0	0	
6	0	0	0	0	525	515	0	0	0	0	
7	0	0	0	0	526	515	0	0	0	0	
8	0	0	0	0	527	513	0	0	0	0	
9	0	0	0	0	527	513	0	0	0	0	
10	0	0	0	0	528	512	0	0	0	0	
11	0	0	0	0	529	511	0	0	0	0	
12	0	0	0	0	529	511	0	0	0	0	
13	0	0	0	0	529	510	0	0	0	0	
14	0	0	0	0	529	510	0	0	0	0	
15	0	0	0	0	529	511	0	0	0	0	
0	0	0	0	0	528	511	0	0	0	0	
1	0	0	0	0	527	512	0	0	0	0	
2	0	0	0	0	527	513	0	0	0	0	
3	0	0	0	0	527	515	0	0	0	0	
4	0	0	0	0	526	516	0	0	0	0	
5	0	0	0	0	526	517	0	0	0	0	
6	0	0	0	0	526	518	0	0	0	0	
7	0	0	0	0	526	518	0	0	0	0	
8	0	0	0	0	526	517	0	0	0	0	
9	0	0	0	0	526	516	0	0	0	0	
10	0	0	0	0	526	515	0	0	0	0	
11	0	0	0	0	526	513	0	0	0	0	
12	0	0	0	0	526	511	0	0	0	0	
13	0	0	0	0	526	510	0	0	0	0	
14	0	0	0	0	526	508	0	0	0	0	
15	0	0	0	0	526	507	0	0	0	0	
0	0	0	0	0	526	507	0	0	0	0	
1	0	0	0	0	526	507	0	0	0	0	
2	0	0	0	0	527	508	0	0	0	0	
3	0	0	0	0	527	509	0	0	0	0	
4	0	0	0	0	527	510	0	0	0	0	
5	0	0	0	0	527	512	0	0	0	0	
6	0	0	0	0	528	515	0	0	0	0	
7	0	0	0	0	529	517	0	0	0	0	
8	0	0	0	0	530	519	0	0	0	0	
9	0	0	0	0	531	521	0	0	0	0	
10	0	0	0	0	532	523	0	0	0	0	
11	0	0	0	0	532	523	0	0	0	0	
12	0	0	0	0	533	523	0	0	0	0	
13	0	0	0	0	532	522	0	0	0	0	
14	0	0	0	0	532	520	0	0	0	0	
15	0	0	0	0	531	518	0	0	0	0	
0	0	0	0	0	531	515	0	0	0	0	
1	0	0	0	0	529	512	0	0	0	0	
2	0	0	0	0	529	511	0	0	0	0	
3	0	0	0	0	528	508	0	0	0	0	
4	0	0	0	0	527	506	0	0	0	0	
5	0	0	0	0	526	505	0	0	0	0	
6	0	0	0	0	526	505	0	0	0	0	
7	0	0	0	0	526	505	0	0	0	0	
8	0	0	0	0	526	507	0	0	0	0	
9	0	0	0	0	527	508	0	0	0	0	
10	0	0	0	0	527	510	0	0	0	0	
11	0	0	0	0	528	512	0	0	0	0	
12	0	0	0	0	529	513	0	0	0	0	
13	0	0	0	0	530	516	0	0	0	0	
14	0	0	0	0	530	518	0	0	0	0	
15	0	0	0	0	531	518	0	0	0	0	
0	0	0	0	0	531	519	0	0	0	0	
1	0	0	0	0	530	518	0	0	0	0	
2	0	0	0	0	529	517	0	0	0	0	
3	0	0	0	0	527	515	0	0	0	0	
4	0	0	0	0	526	513	0	0	0	0	
5	0	0	0	0	525	512	0	0	0	0	
6	0	0	0	0	523	510	0	0	0	0	
7	0	0	0	0	522	508	0	0	0	0	
8	0	0	0	0	521	507	0	0	0	0	
9	0	0	0	0	520	506	0	0	0	0	
10	0	0	0	0	519	506	0	0	0	0	
11	0	0	0	0	519	506	0	0	0	0	
12	0	0	0	0	519	506	0	0	0	0	
13	0	0	0	0	518	507	0	0	0	0	
14	0	0	0	0	519	508	0	0	0	0	
15	0	0	0	0	519	509	0	0	0	0	
0	0	0	0	0	520	510	0	0	0	0	
1	0	0	0	0	521	511	0	0	0	0	
2	0	0	0	0	522	512	0	0	0	0	
3	0	0	0	0	523	512	0	0	0	0	
4	0	0	0	0	524	512	0	0	0	0	
5	0	0	0	0	525	511	0	0	0	0	
6	0	0	0	0	525	510	0	0	0	0	
7	0	0	0	0	524	509	0	0	0	0	
8	0	0	0	0	523	507	0	0	0	0	
9	0	0	0	0	521	504	0	0	0	0	
10	0	0	0	0	519	502	0	0	0	0	
11	0	0	0	0	518	500	0	0	0	0	
12	0	0	0	0	515	498	0	0	0	0	
13	0	0	0	0	513	497	0	0	0	0	
14	0	0	0	0	512	496	0	0	0	0	
15	0	0	0	0	512	496	0	0	0	0	
0	0	0	0	0	512	498	0	0	0	0	
1	0	0	0	0	513	499	0	0	0	0	
2	0	0	0	0	513	502	0	0	0	0	
3	0	0	0	0	515	504	0	0	0	0	
4	0	0	0	0	517	506	0	0	0	0	
5	0	0	0	0	519	510	0	0	0	0	
6	0	0	0	0	521	512	0	0	0	0	
7	0	0	0	0	524	514	0	0	0	0	
8	0	0	0	0	525	515	0	0	0	0	
9	0	0	0	0	526	516	0	0	0	0	
10	0	0	0	0	527	515	0	0	0	0	
11	0	0	0	0	526	514	0	0	0	0	
12	0	0	0	0	526	512	0	0	0	0	
13	0	0	0	0	525	510	0	0	0	0	
14	0	0	0	0	524	508	0	0	0	0	
15	0	0	0	0	521	505	0	0	0	0	
0	0	0	0	0	521	504	0	0	0	0	
1	0	0	0	0	519	503	0	0	0	0	
2	0	0	0	0	518	502	0	0	0	0	
3	0	0	0	0	517	502	0	0	0	0	
4	0	0	0	0	517	502	0	0	0	0	
5	0	0	0	0	516	503	0	0	0	0	
6	0	0	0	0	516	504	0	0	0	0	
7	0	0	0	0	517	505	0	0	0	0	
8	0	0	0	0	517	506	0	0	0	0	
9	0	0	0	0	518	507	0	0	0	0	
10	0	0	0	0	517	507	0	0	0	0	
11	0	0	0	0	518	507	0	0	0	0	
12	0	0	0	0	518	507	0	0	0	0	
13	0	0	0	0	517	505	0	0	0	0	
14	0	0	0	0	518	504	0	0	0	0	
15	0	0	0	0	517	502	0	0	0	0	
0	0	0	0	0	516	500	0	0	0	0	
1	0	0	0	0	515	498	0	0	0	0	
2	0	0	0	0	514	496	0	0	0	0	
3	0	0	0	0	514	495	0	0	0	0	
4	0	0	0	0	513	494	0	0	0	0	
5	0	0	0	0	512	494	0	0	0	0	
6	0	0	0	0	512	494	0	0	0	0	
7	0	0	0	0	512	495	0	0	0	0	
8	0	0	0	0	512	496	0	0	0	0	
9	0	0	0	0	511	498	0	0	0	0	
10	0	0	0	0	512	499	0	0	0	0	
11	0	0	0	0	512	501	0	0	0	0	
12	0	0	0	0	513	503	0	0	0	0	
13	0	0	0	0	514	504	0	0	0	0	
14	0	0	0	0	514	505	0	0	0	0	
15	0	0	0	0	515	505	0	0	0	0	
0	0	0	0	0	515	504	0	0	0	0	
1	0	0	0	0	515	504	0	0	0	0	
2	0	0	0	0	515	502	0	0	0	0	
3	0	0	0	0	516	500	0	0	0	0	
4	0	0	0	0	515	499	0	0	0	0	
5	0	0	0	0	515	497	0	0	0	0	
6	0	0	0	0	515	496	0	0	0	0	
7	0	0	0	0	515	495	0	0	0	0	
8	0	0	0	0	515	494	0	0	0	0	
9	0	0	0	0	515	494	0	0	0	0	
10	0	0	0	0	515	494	0	0	0	0	
11	0	0	0	0	515	493	0	0	0	0	
12	0	0	0	0	514	493	0	0	0	0	
13	0	0	0	0	514	494	0	0	0	0	
14	0	0	0	0	513	494	0	0	0	0	
15	0	0	0	0	512	495	0	0	0	0	
0	0	0	0	0	511	495	0	0	0	0	
1	0	0	0	0	510	495	0	0	0	0	
2	0	0	0	0	509	494	0	0	0	0	
3	0	0	0	0	507	493	0	0	0	0	
4	0	0	0	0	505	492	0	0	0	0	
5	0	0	0	0	504	491	0	0	0	0	
6	0	0	0	0	502	489	0	0	0	0	
7	0	0	0	0	501	488	0	0	0	0	
8	0	0	0	0	500	487	0	0	0	0	
9	0	0	0	0	500	486	0	0	0	0	
10	0	0	0	0	500	484	0	0	0	0	
11	0	0	0	0	501	483	0	0	0	0	
12	0	0	0	0	501	483	0	0	0	0	
13	0	0	0	0	502	483	0	0	0	0	
14	0	0	0	0	503	484	0	0	0	0	
15	0	0	0	0	504	484	0	0	0	0	
0	0	0	0	0	505	487	0	0	0	0	
1	0	0	0	0	507	489	0	0	0	0	
2	0	0	0	0	508	492	0	0	0	0	
3	0	0	0	0	510	494	0	0	0	0	
4	0	0	0	0	512	496	0	0	0	0	
5	0	0	0	0	513	498	0	0	0	0	
6	0	0	0	0	515	499	0	0	0	0	
7	0	0	0	0	515	500	0	0	0	0	
8	0	0	0	0	516	500	0	0	0	0	
9	0	0	0	0	515	499	0	0	0	0	
10	0	0	0	0	515	497	0	0	0	0	
11	0	0	0	0	513	494	0	0	0	0	
12	0	0	0	0	512	492	0	0	0	0	
13	0	0	0	0	510	489	0	0	0	0	
14	0	0	0	0	508	487	0	0	0	0	
15	0	0	0	0	507	486	0	0	0	0	
0	0	0	0	0	505	484	0	0	0	0	
1	0	0	0	0	505	484	0	0	0	0	
2	0	0	0	0	504	484	0	0	0	0	
3	0	0	0	0	505	486	0	0	0	0	
4	0	0	0	0	505	487	0	0	0	0	
5	0	0	0	0	506	489	0	0	0	0	
6	0	0	0	0	508	493	0	0	0	0	
7	0	0	0	0	510	496	0	0	0	0	
8	0	0	0	0	511	498	0	0	0	0	
9	0	0	0	0	513	500	0	0	0	0	
10	0	0	0	0	515	503	0	0	0	0	
11	0	0	0	0	516	504	0	0	0	0	
12	0	0	0	0	518	505	0	0	0	0	
13	0	0	0	0	518	504	0	0	0	0	
14	0	0	0	0	519	504	0	0	0	0	
15	0	0	0	0	519	503	0	0	0	0	
0	0	0	0	0	518	501	0	0	0	0	
1	0	0	0	0	518	499	0	0	0	0	
2	0	0	0	0	517	497	0	0	0	0	
3	0	0	0	0	516	495	0	0	0	0	
4	0	0	0	0	516	494	0	0	0	0	
5	0	0	0	0	515	493	0	0	0	0	
6	0	0	0	0	515	492	0	0	0	0	
7	0	0	0	0	514	492	0	0	0	0	
8	0	0	0	0	513	494	0	0	0	0	
9	0	0	0	0	514	494	0	0	0	0	
10	0	0	0	0	513	496	0	0	0	0	
11	0	0	0	0	513	497	0	0	0	0	
12	0	0	0	0	514	499	0	0	0	0	
13	0	0	0	0	515	500	0	0	0	0	
14	0	0	0	0	514	502	0	0	0	0	
15	0	0	0	0	515	502	0	0	0	0	
0	0	0	0	0	515	503	0	0	0	0	
1	0	0	0	0	515	503	0	0	0	0	
2	0	0	0	0	515	503	0	0	0	0	
3	0	0	0	0	515	502	0	0	0	0	
4	0	0	0	0	515	501	0	0	0	0	
5	0	0	0	0	515	500	0	0	0	0	
6	0	0	0	0	515	499	0	0	0	0	
7	0	0	0	0	515	497	0	0	0	0	
8	0	0	0	0	515	497	0	0	0	0	
9	0	0	0	0	514	496	0	0	0	0	
10	0	0	0	0	514	496	0	0	0	0	
11	0	0	0	0	513	496	0	0	0	0	
12	0	0	0	0	513	497	0	0	0	0	
13	0	0	0	0	513	498	0	0	0	0	
14	0	0	0	0	513	499	0	0	0	0	
15	0	0	0	0	513	501	0	0	0	0	
0	0	0	0	0	513	503	0	0	0	0	
1	0	0	0	0	515	504	0	0	0	0	
2	0	0	0	0	515	505	0	0	0	0	
3	0	0	0	0	516	507	0	0	0	0	
4	0	0	0	0	518	507	0	0	0	0	
5	0	0	0	0	518	507	0	0	0	0	
6	0	0	0	0	519	506	0	0	0	0	
7	0	0	0	0	519	504	0	0	0	0	
8	0	0	0	0	518	503	0	0	0	0	
9	0	0	0	0	518	500	0	0	0	0	
10	0	0	0	0	516	498	0	0	0	0	
11	0	0	0	0	515	495	0	0	0	0	
12	0	0	0	0	513	493	0	0	0	0	
13	0	0	0	0	511	492	0	0	0	0	
14	0	0	0	0	510	491	0	0	0	0	
15	0	0	0	0	508	491	0	0	0	0	
0	0	0	0	0	507	491	0	0	0	0	
1	0	0	0	0	506	491	0	0	0	0	
2	0	0	0	0	505	492	0	0	0	0	
3	0	0	0	0	505	493	0	0	0	0	
4	0	0	0	0	505	494	0	0	0	0	
5	0	0	0	0	506	496	0	0	0	0	
6	0	0	0	0	506	497	0	0	0	0	
7	0	0	0	0	508	497	0	0	0	0	
8	0	0	0	0	509	498	0	0	0	0	
9	0	0	0	0	510	498	0	0	0	0	
10	0	0	0	0	511	497	0	0	0	0	
11	0	0	0	0	511	495	0	0	0	0	
12	0	0	0	0	511	494	0	0	0	0	
13	0	0	0	0	510	492	0	0	0	0	
14	0	0	0	0	510	490	0	0	0	0	
15	0	0	0	0	509	488	0	0	0	0	
0	0	0	0	0	508	487	0	0	0	0	
1	0	0	0	0	508	487	0	0	0	0	
2	0	0	0	0	508	487	0	0	0	0	
3	0	0	0	0	508	487	0	0	0	0	
4	0	0	0	0	510	489	0	0	0	0	
5	0	0	0	0	511	491	0	0	0	0	
6	0	0	0	0	512	493	0	0	0	0	
7	0	0	0	0	514	496	0	0	0	0	
8	0	0	0	0	515	497	0	0	0	0	
9	0	0	0	0	517	499	0	0	0	0	
10	0	0	0	0	518	500	0	0	0	0	
11	0	0	0	0	519	501	0	0	0	0	
12	0	0	0	0	519	502	0	0	0	0	
13	0	0	0	0	519	501	0	0	0	0	
14	0	0	0	0	518	499	0	0	0	0	
15	0	0	0	0	517	498	0	0	0	0	
0	0	0	0	0	515	497	0	0	0	0	
1	0	0	0	0	514	496	0	0	0	0	
2	0	0	0	0	512	495	0	0	0	0	
3	0	0	0	0	511	493	0	0	0	0	
4	0	0	0	0	511	493	0	0	0	0	
5	0	0	0	0	510	492	0	0	0	0	
6	0	0	0	0	511	492	0	0	0	0	
7	0	0	0	0	511	493	0	0	0	0	
8	0	0	0	0	512	494	0	0	0	0	
9	0	0	0	0	513	495	0	0	0	0	
10	0	0	0	0	514	497	0	0	0	0	
11	0	0	0	0	515	499	0	0	0	0	
12	0	0	0	0	517	501	0	0	0	0	
13	0	0	0	0	518	503	0	0	0	0	
14	0	0	0	0	519	504	0	0	0	0	
15	0	0	0	0	519	504	0	0	0	0	
0	0	0	0	0	519	504	0	0	0	0	
1	0	0	0	0	518	504	0	0	0	0	
2	0	0	0	0	517	503	0	0	0	0	
3	0	0	0	0	516	501	0	0	0	0	
4	0	0	0	0	513	499	0	0	0	0	
5	0	0	0	0	512	497	0	0	0	0	
6	0	0	0	0	510	496	0	0	0	0	
7	0	0	0	0	509	494	0	0	0	0	
8	0	0	0	0	508	492	0	0	0	0	
9	0	0	0	0	507	491	0	0	0	0	
10	0	0	0	0	507	490	0	0	0	0	
11	0	0	0	0	507	490	0	0	0	0	
12	0	0	0	0	508	491	0	0	0	0	
13	0	0	0	0	509	492	0	0	0	0	
14	0	0	0	0	510	493	0	0	0	0	
15	0	0	0	0	512	495	0	0	0	0	
0	0	0	0	0	513	497	0	0	0	0	
1	0	0	0	0	515	498	0	0	0	0	
2	0	0	0	0	516	499	0	0	0	0	
3	0	0	0	0	517	501	0	0	0	0	
4	0	0	0	0	518	502	0	0	0	0	
5	0	0	0	0	518	501	0	0	0	0	
6	0	0	0	0	518	501	0	0	0	0	
7	0	0	0	0	518	500	0	0	0	0	
8	0	0	0	0	517	499	0	0	0	0	
9	0	0	0	0	516	498	0	0	0	0	
10	0	0	0	0	515	496	0	0	0	0	
11	0	0	0	0	514	496	0	0	0	0	
12	0	0	0	0	513	494	0	0	0	0	
13	0	0	0	0	512	494	0	0	0	0	
14	0	0	0	0	512	493	0	0	0	0	
15	0	0	0	0	512	493	0	0	0	0	
0	0	0	0	0	512	494	0	0	0	0	
1	0	0	0	0	512	494	0	0	0	0	
2	0	0	0	0	512	496	0	0	0	0	
3	0	0	0	0	513	497	0	0	0	0	
4	0	0	0	0	514	499	0	0	0	0	
5	0	0	0	0	516	501	0	0	0	0	
6	0	0	0	0	516	502	0	0	0	0	
7	0	0	0	0	518	504	0	0	0	0	
8	0	0	0	0	519	504	0	0	0	0	
9	0	0	0	0	519	504	0	0	0	0	
10	0	0	0	0	519	503	0	0	0	0	
11	0	0	0	0	519	501	0	0	0	0	
12	0	0	0	0	517	498	0	0	0	0	
13	0	0	0	0	514	494	0	0	0	0	
14	0	0	0	0	510	488	0	0	0	0	
15	0	0	0	0	505	483	0	0	0	0	
0	0	0	0	0	498	476	0	0	0	0	
1	0	0	0	0	491	469	0	0	0	0	
2	0	0	0	0	483	462	0	0	0	0	
3	0	0	0	0	473	455	0	0	0	0	
4	0	0	0	0	464	447	0	0	0	0	
5	0	0	0	0	454	439	0	0	0	0	
6	0	0	0	0	444	431	0	0	0	0	
7	0	0	0	0	435	423	0	0	0	0	
8	0	0	0	0	425	416	0	0	0	0	
9	0	0	0	0	417	409	0	0	0	0	
10	0	0	0	0	408	401	0	0	0	0	
11	0	0	0	0	400	393	0	0	0	0	
12	0	0	0	0	392	384	0	0	0	0	
13	0	0	0	0	383	374	0	0	0	0	
14	0	0	0	0	374	364	0	0	0	0	
15	0	0	0	0	364	353	0	0	0	0	
0	0	0	0	0	354	341	0	0	0	0	
1	0	0	0	0	344	329	0	0	0	0	
2	0	0	0	0	333	317	0	0	0	0	
3	0	0	0	0	323	305	0	0	0	0	
4	0	0	0	0	312	295	0	0	0	0	
5	0	0	0	0	304	286	0	0	0	0	
6	0	0	0	0	298	280	0	0	0	0	
7	0	0	0	0	295	277	0	0	0	0	
8	0	0	0	0	295	277	0	0	0	0	
9	0	0	0	0	298	280	0	0	0	0	
10	0	0	0	0	305	287	0	0	0	0	
11	0	0	0	0	316	297	0	0	0	0	
12	0	0	0	0	331	311	0	0	0	0	
13	0	0	0	0	348	327	0	0	0	0	
14	0	0	0	0	367	344	0	0	0	0	
15	0	0	0	0	388	363	0	0	0	0	
0	0	0	0	0	410	383	0	0	0	0	
1	0	0	0	0	432	402	0	0	0	0	
2	0	0	0	0	455	422	0	0	0	0	
3	0	0	0	0	476	440	0	0	0	0	
4	0	0	0	0	495	457	0	0	0	0	
5	0	0	0	0	511	473	0	0	0	0	
6	0	0	0	0	526	487	0	0	0	0	
7	0	0	0	0	537	498	0	0	0	0	
8	0	0	0	0	546	508	0	0	0	0	
9	0	0	0	0	551	515	0	0	0	0	
10	0	0	0	0	555	520	0	0	0	0	
11	0	0	0	0	556	524	0	0	0	0	
12	0	0	0	0	554	525	0	0	0	0	
13	0	0	0	0	550	525	0	0	0	0	
14	0	0	0	0	546	524	0	0	0	0	
15	0	0	0	0	541	522	0	0	0	0	
0	0	0	0	0	535	519	0	0	0	0	
1	0	0	0	0	529	516	0	0	0	0	
2	0	0	0	0	524	512	0	0	0	0	
3	0	0	0	0	519	508	0	0	0	0	
4	0	0	0	0	515	505	0	0	0	0	
5	0	0	0	0	512	501	0	0	0	0	
6	0	0	0	0	511	499	0	0	0	0	
7	0	0	0	0	510	496	0	0	0	0	
8	0	0	0	0	510	496	0	0	0	0	
9	0	0	0	0	512	495	0	0	0	0	
10	0	0	0	0	514	496	0	0	0	0	
11	0	0	0	0	517	496	0	0	0	0	
12	0	0	0	0	520	498	0	0	0	0	
13	0	0	0	0	524	500	0	0	0	0	
14	0	0	0	0	527	503	0	0	0	0	
15	0	0	0	0	530	505	0	0	0	0	
0	0	0	0	0	532	508	0	0	0	0	
1	0	0	0	0	535	511	0	0	0	0	
2	0	0	0	0	536	513	0	0	0	0	
3	0	0	0	0	537	515	0	0	0	0	
4	0	0	0	0	537	517	0	0	0	0	
5	0	0	0	0	538	519	0	0	0	0	
6	0	0	0	0	537	519	0	0	0	0	
7	0	0	0	0	537	520	0	0	0	0	
8	0	0	0	0	536	520	0	0	0	0	
9	0	0	0	0	536	519	0	0	0	0	
10	0	0	0	0	535	519	0	0	0	0	
11	0	0	0	0	534	517	0	0	0	0	
12	0	0	0	0	533	515	0	0	0	0	
13	0	0	0	0	532	514	0	0	0	0	
14	0	0	0	0	531	511	0	0	0	0	
15	0	0	0	0	531	510	0	0	0	0	
0	0	0	0	0	530	508	0	0	0	0	
1	0	0	0	0	529	508	0	0	0	0	
2	0	0	0	0	529	508	0	0	0	0	
3	0	0	0	0	529	508	0	0	0	0	
4	0	0	0	0	530	508	0	0	0	0	
5	0	0	0	0	531	509	0	0	0	0	
6	0	0	0	0	531	511	0	0	0	0	
7	0	0	0	0	532	513	0	0	0	0	
8	0	0	0	0	532	514	0	0	0	0	
9	0	0	0	0	532	515	0	0	0	0	
10	0	0	0	0	532	516	0	0	0	0	
11	0	0	0	0	532	516	0	0	0	0	
12	0	0	0	0	532	516	0	0	0	0	
13	0	0	0	0	531	515	0	0	0	0	
14	0	0	0	0	531	514	0	0	0	0	
15	0	0	0	0	531	513	0	0	0	0	
0	0	0	0	0	530	511	0	0	0	0	
1	0	0	0	0	531	510	0	0	0	0	
2	0	0	0	0	531	509	0	0	0	0	
3	0	0	0	0	531	508	0	0	0	0	
4	0	0	0	0	530	507	0	0	0	0	
5	0	0	0	0	530	507	0	0	0	0	
6	0	0	0	0	530	507	0	0	0	0	
7	0	0	0	0	530	508	0	0	0	0	
8	0	0	0	0	530	510	0	0	0	0	
9	0	0	0	0	530	511	0	0	0	0	
10	0	0	0	0	531	513	0	0	0	0	
11	0	0	0	0	531	516	0	0	0	0	
12	0	0	0	0	532	518	0	0	0	0	
13	0	0	0	0	533	520	0	0	0	0	
14	0	0	0	0	534	522	0	0	0	0	
15	0	0	0	0	534	523	0	0	0	0	
0	0	0	0	0	535	524	0	0	0	0	
1	0	0	0	0	534	521	0	0	0	0	
2	0	0	0	0	534	520	0	0	0	0	
3	0	0	0	0	533	518	0	0	0	0	
4	0	0	0	0	531	515	0	0	0	0	
5	0	0	0	0	529	512	0	0	0	0	
6	0	0	0	0	527	507	0	0	0	0	
7	0	0	0	0	525	505	0	0	0	0	
8	0	0	0	0	523	503	0	0	0	0	
9	0	0	0	0	521	500	0	0	0	0	
10	0	0	0	0	520	500	0	0	0	0	
11	0	0	0	0	519	499	0	0	0	0	
12	0	0	0	0	519	500	0	0	0	0	
13	0	0	0	0	519	502	0	0	0	0	
14	0	0	0	0	519	504	0	0	0	0	
15	0	0	0	0	520	505	0	0	0	0	
0	0	0	0	0	521	507	0	0	0	0	
1	0	0	0	0	521	508	0	0	0	0	
2	0	0	0	0	524	510	0	0	0	0	
3	0	0	0	0	525	511	0	0	0	0	
4	0	0	0	0	527	512	0	0	0	0	
5	0	0	0	0	527	511	0	0	0	0	
6	0	0	0	0	528	511	0	0	0	0	
7	0	0	0	0	529	510	0	0	0	0	
8	0	0	0	0	529	510	0	0	0	0	
9	0	0	0	0	530	509	0	0	0	0	
10	0	0	0	0	530	509	0	0	0	0	
11	0	0	0	0	531	509	0	0	0	0	
12	0	0	0	0	531	508	0	0	0	0	
13	0	0	0	0	531	509	0	0	0	0	
14	0	0	0	0	531	510	0	0	0	0	
15	0	0	0	0	530	511	0	0	0	0	
0	0	0	0	0	530	512	0	0	0	0	
1	0	0	0	0	529	513	0	0	0	0	
2	0	0	0	0	529	514	0	0	0	0	
3	0	0	0	0	529	515	0	0	0	0	
4	0	0	0	0	529	515	0	0	0	0	
5	0	0	0	0	528	515	0	0	0	0	
6	0	0	0	0	528	514	0	0	0	0	
7	0	0	0	0	527	513	0	0	0	0	
8	0	0	0	0	527	512	0	0	0	0	
9	0	0	0	0	527	511	0	0	0	0	
10	0	0	0	0	527	510	0	0	0	0	
11	0	0	0	0	528	508	0	0	0	0	
12	0	0	0	0	527	507	0	0	0	0	
13	0	0	0	0	528	505	0	0	0	0	
14	0	0	0	0	528	504	0	0	0	0	
15	0	0	0	0	528	504	0	0	0	0	
0	0	0	0	0	527	503	0	0	0	0	
1	0	0	0	0	527	503	0	0	0	0	
2	0	0	0	0	527	504	0	0	0	0	
3	0	0	0	0	527	504	0	0	0	0	
4	0	0	0	0	527	505	0	0	0	0	
5	0	0	0	0	528	508	0	0	0	0	
6	0	0	0	0	528	510	0	0	0	0	
7	0	0	0	0	528	512	0	0	0	0	
8	0	0	0	0	529	514	0	0	0	0	
9	0	0	0	0	530	515	0	0	0	0	
10	0	0	0	0	531	516	0	0	0	0	
11	0	0	0	0	531	517	0	0	0	0	
12	0	0	0	0	531	517	0	0	0	0	
13	0	0	0	0	531	516	0	0	0	0	
14	0	0	0	0	530	515	0	0	0	0	
15	0	0	0	0	529	513	0	0	0	0	
0	0	0	0	0	527	511	0	0	0	0	
1	0	0	0	0	527	509	0	0	0	0	
2	0	0	0	0	525	507	0	0	0	0	
3	0	0	0	0	524	505	0	0	0	0	
4	0	0	0	0	522	504	0	0	0	0	
5	0	0	0	0	521	503	0	0	0	0	
6	0	0	0	0	521	503	0	0	0	0	
7	0	0	0	0	520	504	0	0	0	0	
8	0	0	0	0	521	504	0	0	0	0	
9	0	0	0	0	521	506	0	0	0	0	
10	0	0	0	0	521	507	0	0	0	0	
11	0	0	0	0	521	509	0	0	0	0	
12	0	0	0	0	522	511	0	0	0	0	
13	0	0	0	0	523	512	0	0	0	0	
14	0	0	0	0	524	513	0	0	0	0	
15	0	0	0	0	526	515	0	0	0	0	
0	0	0	0	0	527	516	0	0	0	0	
1	0	0	0	0	528	515	0	0	0	0	
2	0	0	0	0	531	517	0	0	0	0	
3	0	0	0	0	532	517	0	0	0	0	
4	0	0	0	0	534	517	0	0	0	0	
5	0	0	0	0	535	516	0	0	0	0	
6	0	0	0	0	536	516	0	0	0	0	
7	0	0	0	0	536	515	0	0	0	0	
8	0	0	0	0	536	515	0	0	0	0	
9	0	0	0	0	536	515	0	0	0	0	
10	0	0	0	0	536	515	0	0	0	0	
11	0	0	0	0	536	515	0	0	0	0	
12	0	0	0	0	536	515	0	0	0	0	
13	0	0	0	0	535	516	0	0	0	0	
14	0	0	0	0	535	516	0	0	0	0	
15	0	0	0	0	535	517	0	0	0	0	
0	0	0	0	0	536	518	0	0	0	0	
1	0	0	0	0	536	519	0	0	0	0	
2	0	0	0	0	537	519	0	0	0	0	
3	0	0	0	0	538	520	0	0	0	0	
4	0	0	0	0	539	520	0	0	0	0	
5	0	0	0	0	540	521	0	0	0	0	
6	0	0	0	0	541	521	0	0	0	0	
7	0	0	0	0	541	521	0	0	0	0	
8	0	0	0	0	542	521	0	0	0	0	
9	0	0	0	0	543	521	0	0	0	0	
10	0	0	0	0	543	521	0	0	0	0	
11	0	0	0	0	543	520	0	0	0	0	
12	0	0	0	0	542	519	0	0	0	0	
13	0	0	0	0	541	519	0	0	0	0	
14	0	0	0	0	540	519	0	0	0	0	
15	0	0	0	0	539	519	0	0	0	0	
0	0	0	0	0	538	519	0	0	0	0	
1	0	0	0	0	536	518	0	0	0	0	
2	0	0	0	0	536	518	0	0	0	0	
3	0	0	0	0	535	518	0	0	0	0	
4	0	0	0	0	533	516	0	0	0	0	
5	0	0	0	0	533	517	0	0	0	0	
6	0	0	0	0	532	516	0	0	0	0	
7	0	0	0	0	531	516	0	0	0	0	
8	0	0	0	0	530	515	0	0	0	0	
9	0	0	0	0	529	515	0	0	0	0	
10	0	0	0	0	529	513	0	0	0	0	
11	0	0	0	0	530	512	0	0	0	0	
12	0	0	0	0	530	512	0	0	0	0	
13	0	0	0	0	531	512	0	0	0	0	
14	0	0	0	0	532	512	0	0	0	0	
15	0	0	0	0	535	512	0	0	0	0	
0	0	0	0	0	536	512	0	0	0	0	
1	0	0	0	0	538	514	0	0	0	0	
2	0	0	0	0	540	515	0	0	0	0	
3	0	0	0	0	542	518	0	0	0	0	
4	0	0	0	0	544	520	0	0	0	0	
5	0	0	0	0	546	522	0	0	0	0	
6	0	0	0	0	547	525	0	0	0	0	
7	0	0	0	0	548	527	0	0	0	0	
8	0	0	0	0	549	528	0	0	0	0	
9	0	0	0	0	548	529	0	0	0	0	
10	0	0	0	0	549	529	0	0	0	0	
11	0	0	0	0	548	529	0	0	0	0	
12	0	0	0	0	547	527	0	0	0	0	
13	0	0	0	0	546	525	0	0	0	0	
14	0	0	0	0	544	522	0	0	0	0	
15	0	0	0	0	543	519	0	0	0	0	
0	0	0	0	0	541	516	0	0	0	0	
1	0	0	0	0	540	514	0	0	0	0	
2	0	0	0	0	537	511	0	0	0	0	
3	0	0	0	0	537	510	0	0	0	0	
4	0	0	0	0	536	508	0	0	0	0	
5	0	0	0	0	535	508	0	0	0	0	
6	0	0	0	0	534	508	0	0	0	0	
7	0	0	0	0	534	509	0	0	0	0	
8	0	0	0	0	535	510	0	0	0	0	
9	0	0	0	0	535	512	0	0	0	0	
10	0	0	0	0	536	513	0	0	0	0	
11	0	0	0	0	537	515	0	0	0	0	
12	0	0	0	0	539	517	0	0	0	0	
13	0	0	0	0	540	519	0	0	0	0	
14	0	0	0	0	540	519	0	0	0	0	
15	0	0	0	0	541	520	0	0	0	0	
0	0	0	0	0	542	520	0	0	0	0	
1	0	0	0	0	542	519	0	0	0	0	
2	0	0	0	0	541	518	0	0	0	0	
3	0	0	0	0	541	516	0	0	0	0	
4	0	0	0	0	540	514	0	0	0	0	
5	0	0	0	0	539	512	0	0	0	0	
6	0	0	0	0	538	510	0	0	0	0	
7	0	0	0	0	537	508	0	0	0	0	
8	0	0	0	0	536	506	0	0	0	0	
9	0	0	0	0	535	505	0	0	0	0	
10	0	0	0	0	534	504	0	0	0	0	
11	0	0	0	0	534	504	0	0	0	0	
12	0	0	0	0	533	505	0	0	0	0	
13	0	0	0	0	533	505	0	0	0	0	
14	0	0	0	0	532	506	0	0	0	0	
15	0	0	0	0	532	508	0	0	0	0	
0	0	0	0	0	532	509	0	0	0	0	
1	0	0	0	0	532	510	0	0	0	0	
2	0	0	0	0	533	511	0	0	0	0	
3	0	0	0	0	533	513	0	0	0	0	
4	0	0	0	0	535	514	0	0	0	0	
5	0	0	0	0	535	514	0	0	0	0	
6	0	0	0	0	536	515	0	0	0	0	
7	0	0	0	0	537	515	0	0	0	0	
8	0	0	0	0	538	515	0	0	0	0	
9	0	0	0	0	540	515	0	0	0	0	
10	0	0	0	0	540	515	0	0	0	0	
11	0	0	0	0	541	514	0	0	0	0	
12	0	0	0	0	541	514	0	0	0	0	
13	0	0	0	0	541	514	0	0	0	0	
14	0	0	0	0	541	514	0	0	0	0	
15	0	0	0	0	541	514	0	0	0	0	
0	0	0	0	0	540	515	0	0	0	0	
1	0	0	0	0	540	515	0	0	0	0	
2	0	0	0	0	540	516	0	0	0	0	
3	0	0	0	0	540	517	0	0	0	0	
4	0	0	0	0	540	516	0	0	0	0	
5	0	0	0	0	540	518	0	0	0	0	
6	0	0	0	0	539	518	0	0	0	0	
7	0	0	0	0	539	518	0	0	0	0	
8	0	0	0	0	539	518	0	0	0	0	
9	0	0	0	0	539	517	0	0	0	0	
10	0	0	0	0	539	516	0	0	0	0	
11	0	0	0	0	539	515	0	0	0	0	
12	0	0	0	0	539	514	0	0	0	0	
13	0	0	0	0	539	512	0	0	0	0	
14	0	0	0	0	540	512	0	0	0	0	
15	0	0	0	0	540	511	0	0	0	0	
0	0	0	0	0	539	510	0	0	0	0	
1	0	0	0	0	539	510	0	0	0	0	
2	0	0	0	0	539	509	0	0	0	0	
3	0	0	0	0	538	509	0	0	0	0	
4	0	0	0	0	538	510	0	0	0	0	
5	0	0	0	0	538	511	0	0	0	0	
6	0	0	0	0	537	512	0	0	0	0	
7	0	0	0	0	537	514	0	0	0	0	
8	0	0	0	0	537	515	0	0	0	0	
9	0	0	0	0	537	516	0	0	0	0	
10	0	0	0	0	537	517	0	0	0	0	
11	0	0	0	0	536	517	0	0	0	0	
12	0	0	0	0	536	517	0	0	0	0	
13	0	0	0	0	536	516	0	0	0	0	
14	0	0	0	0	536	515	0	0	0	0	
15	0	0	0	0	534	513	0	0	0	0	
0	0	0	0	0	534	512	0	0	0	0	
1	0	0	0	0	534	510	0	0	0	0	
2	0	0	0	0	533	508	0	0	0	0	
3	0	0	0	0	533	508	0	0	0	0	
4	0	0	0	0	534	506	0	0	0	0	
5	0	0	0	0	534	506	0	0	0	0	
6	0	0	0	0	534	507	0	0	0	0	
7	0	0	0	0	535	508	0	0	0	0	
8	0	0	0	0	536	510	0	0	0	0	
9	0	0	0	0	538	512	0	0	0	0	
10	0	0	0	0	539	515	0	0	0	0	
11	0	0	0	0	540	518	0	0	0	0	
12	0	0	0	0	541	521	0	0	0	0	
13	0	0	0	0	543	523	0	0	0	0	
14	0	0	0	0	543	524	0	0	0	0	
15	0	0	0	0	543	525	0	0	0	0	
0	0	0	0	0	543	525	0	0	0	0	
1	0	0	0	0	543	523	0	0	0	0	
2	0	0	0	0	543	522	0	0	0	0	
3	0	0	0	0	541	519	0	0	0	0	
4	0	0	0	0	540	517	0	0	0	0	
5	0	0	0	0	539	514	0	0	0	0	
6	0	0	0	0	537	512	0	0	0	0	
7	0	0	0	0	537	510	0	0	0	0	
8	0	0	0	0	536	508	0	0	0	0	
9	0	0	0	0	535	507	0	0	0	0	
10	0	0	0	0	535	507	0	0	0	0	
11	0	0	0	0	535	507	0	0	0	0	
12	0	0	0	0	535	508	0	0	0	0	
13	0	0	0	0	535	509	0	0	0	0	
14	0	0	0	0	535	511	0	0	0	0	
15	0	0	0	0	536	512	0	0	0	0	
0	0	0	0	0	537	514	0	0	0	0	
1	0	0	0	0	538	516	0	0	0	0	
2	0	0	0	0	539	517	0	0	0	0	
3	0	0	0	0	540	518	0	0	0	0	
4	0	0	0	0	541	519	0	0	0	0	
5	0	0	0	0	541	519	0	0	0	0	
6	0	0	0	0	541	518	0	0	0	0	
7	0	0	0	0	540	516	0	0	0	0	
8	0	0	0	0	540	515	0	0	0	0	
9	0	0	0	0	539	513	0	0	0	0	
10	0	0	0	0	538	512	0	0	0	0	
11	0	0	0	0	537	511	0	0	0	0	
12	0	0	0	0	536	510	0	0	0	0	
13	0	0	0	0	535	509	0	0	0	0	
14	0	0	0	0	535	509	0	0	0	0	
15	0	0	0	0	535	509	0	0	0	0	
0	0	0	0	0	536	510	0	0	0	0	
1	0	0	0	0	535	511	0	0	0	0	
2	0	0	0	0	536	512	0	0	0	0	
3	0	0	0	0	537	513	0	0	0	0	
4	0	0	0	0	538	515	0	0	0	0	
5	0	0	0	0	539	516	0	0	0	0	
6	0	0	0	0	539	516	0	0	0	0	
7	0	0	0	0	539	516	0	0	0	0	
8	0	0	0	0	538	516	0	0	0	0	
9	0	0	0	0	537	515	0	0	0	0	
10	0	0	0	0	537	513	0	0	0	0	
11	0	0	0	0	536	512	0	0	0	0	
12	0	0	0	0	534	510	0	0	0	0	
13	0	0	0	0	533	508	0	0	0	0	
14	0	0	0	0	532	506	0	0	0	0	
15	0	0	0	0	531	505	0	0	0	0	
0	0	0	0	0	530	504	0	0	0	0	
1	0	0	0	0	530	504	0	0	0	0	
2	0	0	0	0	530	504	0	0	0	0	
3	0	0	0	0	531	504	0	0	0	0	
4	0	0	0	0	532	507	0	0	0	0	
5	0	0	0	0	533	508	0	0	0	0	
6	0	0	0	0	533	510	0	0	0	0	
7	0	0	0	0	534	512	0	0	0	0	
8	0	0	0	0	534	513	0	0	0	0	
9	0	0	0	0	535	514	0	0	0	0	
10	0	0	0	0	534	515	0	0	0	0	
11	0	0	0	0	534	515	0	0	0	0	
12	0	0	0	0	534	515	0	0	0	0	
13	0	0	0	0	533	515	0	0	0	0	
14	0	0	0	0	533	515	0	0	0	0	
15	0	0	0	0	533	514	0	0	0	0	
0	0	0	0	0	533	513	0	0	0	0	
1	0	0	0	0	533	512	0	0	0	0	
2	0	0	0	0	534	511	0	0	0	0	
3	0	0	0	0	535	510	0	0	0	0	
4	0	0	0	0	535	510	0	0	0	0	
5	0	0	0	0	536	509	0	0	0	0	
6	0	0	0	0	537	509	0	0	0	0	
7	0	0	0	0	538	509	0	0	0	0	
8	0	0	0	0	538	510	0	0	0	0	
9	0	0	0	0	539	510	0	0	0	0	
10	0	0	0	0	538	511	0	0	0	0	
11	0	0	0	0	538	512	0	0	0	0	
12	0	0	0	0	537	513	0	0	0	0	
13	0	0	0	0	536	515	0	0	0	0	
14	0	0	0	0	536	515	0	0	0	0	
15	0	0	0	0	535	516	0	0	0	0	
0	0	0	0	0	534	517	0	0	0	0	
1	0	0	0	0	534	516	0	0	0	0	
2	0	0	0	0	532	515	0	0	0	0	
3	0	0	0	0	534	515	0	0	0	0	
4	0	0	0	0	533	513	0	0	0	0	
5	0	0	0	0	534	512	0	0	0	0	
6	0	0	0	0	534	511	0	0	0	0	
7	0	0	0	0	534	510	0	0	0	0	
8	0	0	0	0	535	510	0	0	0	0	
9	0	0	0	0	536	510	0	0	0	0	
10	0	0	0	0	536	510	0	0	0	0	
11	0	0	0	0	536	511	0	0	0	0	
12	0	0	0	0	537	512	0	0	0	0	
13	0	0	0	0	537	514	0	0	0	0	
14	0	0	0	0	537	515	0	0	0	0	
15	0	0	0	0	538	517	0	0	0	0	
0	0	0	0	0	538	519	0	0	0	0	
1	0	0	0	0	538	519	0	0	0	0	
2	0	0	0	0	538	520	0	0	0	0	
3	0	0	0	0	537	520	0	0	0	0	
4	0	0	0	0	537	519	0	0	0	0	
5	0	0	0	0	536	518	0	0	0	0	
6	0	0	0	0	536	517	0	0	0	0	
7	0	0	0	0	534	515	0	0	0	0	
8	0	0	0	0	533	513	0	0	0	0	
9	0	0	0	0	533	511	0	0	0	0	
10	0	0	0	0	532	509	0	0	0	0	
11	0	0	0	0	532	508	0	0	0	0	
12	0	0	0	0	531	507	0	0	0	0	
13	0	0	0	0	532	507	0	0	0	0	
14	0	0	0	0	532	507	0	0	0	0	
15	0	0	0	0	533	506	0	0	0	0	
0	0	0	0	0	534	508	0	0	0	0	
1	0	0	0	0	534	509	0	0	0	0	
2	0	0	0	0	535	511	0	0	0	0	
3	0	0	0	0	536	513	0	0	0	0	
4	0	0	0	0	536	514	0	0	0	0	
5	0	0	0	0	537	516	0	0	0	0	
6	0	0	0	0	538	517	0	0	0	0	
7	0	0	0	0	537	518	0	0	0	0	
8	0	0	0	0	537	519	0	0	0	0	
9	0	0	0	0	537	519	0	0	0	0	
10	0	0	0	0	537	519	0	0	0	0	
11	0	0	0	0	536	518	0	0	0	0	
12	0	0	0	0	535	517	0	0	0	0	
13	0	0	0	0	534	516	0	0	0	0	
14	0	0	0	0	533	514	0	0	0	0	
15	0	0	0	0	532	512	0	0	0	0	
0	0	0	0	0	532	511	0	0	0	0	
1	0	0	0	0	531	510	0	0	0	0	
2	0	0	0	0	530	510	0	0	0	0	
3	0	0	0	0	530	509	0	0	0	0	
4	0	0	0	0	529	509	0	0	0	0	
5	0	0	0	0	529	509	0	0	0	0	
6	0	0	0	0	529	510	0	0	0	0	
7	0	0	0	0	529	510	0	0	0	0	
8	0	0	0	0	529	511	0	0	0	0	
9	0	0	0	0	530	512	0	0	0	0	
10	0	0	0	0	530	512	0	0	0	0	
11	0	0	0	0	530	513	0	0	0	0	
12	0	0	0	0	531	513	0	0	0	0	
13	0	0	0	0	532	513	0	0	0	0	
14	0	0	0	0	533	513	0	0	0	0	
15	0	0	0	0	534	513	0	0	0	0	
0	0	0	0	0	535	513	0	0	0	0	
1	0	0	0	0	537	513	0	0	0	0	
2	0	0	0	0	539	514	0	0	0	0	
3	0	0	0	0	540	514	0	0	0	0	
4	0	0	0	0	541	515	0	0	0	0	
5	0	0	0	0	542	516	0	0	0	0	
6	0	0	0	0	543	518	0	0	0	0	
7	0	0	0	0	544	519	0	0	0	0	
8	0	0	0	0	545	521	0	0	0	0	
9	0	0	0	0	545	523	0	0	0	0	
10	0	0	0	0	546	524	0	0	0	0	
11	0	0	0	0	546	526	0	0	0	0	
12	0	0	0	0	547	527	0	0	0	0	
13	0	0	0	0	547	528	0	0	0	0	
14	0	0	0	0	546	529	0	0	0	0	
15	0	0	0	0	546	529	0	0	0	0	
0	0	0	0	0	546	529	0	0	0	0	
1	0	0	0	0	545	527	0	0	0	0	
2	0	0	0	0	545	527	0	0	0	0	
3	0	0	0	0	545	526	0	0	0	0	
4	0	0	0	0	543	525	0	0	0	0	
5	0	0	0	0	543	524	0	0	0	0	
6	0	0	0	0	543	523	0	0	0	0	
7	0	0	0	0	543	522	0	0	0	0	
8	0	0	0	0	542	521	0	0	0	0	
9	0	0	0	0	542	520	0	0	0	0	
10	0	0	0	0	542	520	0	0	0	0	
11	0	0	0	0	542	520	0	0	0	0	
12	0	0	0	0	543	521	0	0	0	0	
13	0	0	0	0	543	522	0	0	0	0	
14	0	0	0	0	544	524	0	0	0	0	
15	0	0	0	0	545	525	0	0	0	0	
0	0	0	0	0	546	527	0	0	0	0	
1	0	0	0	0	547	528	0	0	0	0	
2	0	0	0	0	548	529	0	0	0	0	
3	0	0	0	0	548	529	0	0	0	0	
4	0	0	0	0	548	529	0	0	0	0	
5	0	0	0	0	547	529	0	0	0	0	
6	0	0	0	0	547	528	0	0	0	0	
7	0	0	0	0	546	526	0	0	0	0	
8	0	0	0	0	546	524	0	0	0	0	
9	0	0	0	0	544	522	0	0	0	0	
10	0	0	0	0	543	520	0	0	0	0	
11	0	0	0	0	542	518	0	0	0	0	
12	0	0	0	0	541	515	0	0	0	0	
13	0	0	0	0	539	514	0	0	0	0	
14	0	0	0	0	538	512	0	0	0	0	
15	0	0	0	0	537	512	0	0	0	0	
0	0	0	0	0	536	512	0	0	0	0	
1	0	0	0	0	536	512	0	0	0	0	
2	0	0	0	0	536	513	0	0	0	0	
3	0	0	0	0	537	515	0	0	0	0	
4	0	0	0	0	537	516	0	0	0	0	
5	0	0	0	0	539	518	0	0	0	0	
6	0	0	0	0	539	519	0	0	0	0	
7	0	0	0	0	540	520	0	0	0	0	
8	0	0	0	0	542	521	0	0	0	0	
9	0	0	0	0	542	521	0	0	0	0	
10	0	0	0	0	542	520	0	0	0	0	
11	0	0	0	0	541	518	0	0	0	0	
12	0	0	0	0	540	516	0	0	0	0	
13	0	0	0	0	539	514	0	0	0	0	
14	0	0	0	0	537	511	0	0	0	0	
15	0	0	0	0	536	508	0	0	0	0	
0	0	0	0	0	534	506	0	0	0	0	
1	0	0	0	0	532	505	0	0	0	0	
2	0	0	0	0	531	504	0	0	0	0	
3	0	0	0	0	530	505	0	0	0	0	
4	0	0	0	0	530	506	0	0	0	0	
5	0	0	0	0	530	508	0	0	0	0	
6	0	0	0	0	531	511	0	0	0	0	
7	0	0	0	0	533	514	0	0	0	0	
8	0	0	0	0	535	517	0	0	0	0	
9	0	0	0	0	537	520	0	0	0	0	
10	0	0	0	0	538	522	0	0	0	0	
11	0	0	0	0	540	524	0	0	0	0	
12	0	0	0	0	541	525	0	0	0	0	
13	0	0	0	0	542	525	0	0	0	0	
14	0	0	0	0	542	524	0	0	0	0	
15	0	0	0	0	541	522	0	0	0	0	
0	0	0	0	0	541	520	0	0	0	0	
1	0	0	0	0	540	518	0	0	0	0	
2	0	0	0	0	539	516	0	0	0	0	
3	0	0	0	0	539	514	0	0	0	0	
4	0	0	0	0	537	511	0	0	0	0	
5	0	0	0	0	537	510	0	0	0	0	
6	0	0	0	0	536	510	0	0	0	0	
7	0	0	0	0	536	510	0	0	0	0	
8	0	0	0	0	536	511	0	0	0	0	
9	0	0	0	0	536	512	0	0	0	0	
10	0	0	0	0	536	513	0	0	0	0	
11	0	0	0	0	536	515	0	0	0	0	
12	0	0	0	0	537	516	0	0	0	0	
13	0	0	0	0	537	518	0	0	0	0	
14	0	0	0	0	538	519	0	0	0	0	
15	0	0	0	0	539	519	0	0	0	0	
0	0	0	0	0	540	520	0	0	0	0	
1	0	0	0	0	540	520	0	0	0	0	
2	0	0	0	0	541	520	0	0	0	0	
3	0	0	0	0	543	520	0	0	0	0	
4	0	0	0	0	543	520	0	0	0	0	
5	0	0	0	0	544	520	0	0	0	0	
6	0	0	0	0	545	519	0	0	0	0	
7	0	0	0	0	545	520	0	0	0	0	
8	0	0	0	0	545	519	0	0	0	0	
9	0	0	0	0	546	520	0	0	0	0	
10	0	0	0	0	546	521	0	0	0	0	
11	0	0	0	0	545	521	0	0	0	0	
12	0	0	0	0	545	521	0	0	0	0	
13	0	0	0	0	545	523	0	0	0	0	
14	0	0	0	0	544	523	0	0	0	0	
15	0	0	0	0	544	524	0	0	0	0	
0	0	0	0	0	544	524	0	0	0	0	
1	0	0	0	0	544	524	0	0	0	0	
2	0	0	0	0	544	524	0	0	0	0	
3	0	0	0	0	543	524	0	0	0	0	
4	0	0	0	0	544	524	0	0	0	0	
5	0	0	0	0	544	523	0	0	0	0	
6	0	0	0	0	544	523	0	0	0	0	
7	0	0	0	0	544	521	0	0	0	0	
8	0	0	0	0	545	520	0	0	0	0	
9	0	0	0	0	544	519	0	0	0	0	
10	0	0	0	0	544	518	0	0	0	0	
11	0	0	0	0	544	517	0	0	0	0	
12	0	0	0	0	544	516	0	0	0	0	
13	0	0	0	0	542	515	0	0	0	0	
14	0	0	0	0	542	514	0	0	0	0	
15	0	0	0	0	540	514	0	0	0	0	
0	0	0	0	0	539	513	0	0	0	0	
1	0	0	0	0	540	515	0	0	0	0	
2	0	0	0	0	540	516	0	0	0	0	
3	0	0	0	0	540	518	0	0	0	0	
4	0	0	0	0	540	519	0	0	0	0	
5	0	0	0	0	541	520	0	0	0	0	
6	0	0	0	0	541	521	0	0	0	0	
7	0	0	0	0	542	522	0	0	0	0	
8	0	0	0	0	543	523	0	0	0	0	
9	0	0	0	0	544	523	0	0	0	0	
10	0	0	0	0	545	524	0	0	0	0	
11	0	0	0	0	545	523	0	0	0	0	
12	0	0	0	0	547	523	0	0	0	0	
13	0	0	0	0	547	523	0	0	0	0	
14	0	0	0	0	548	522	0	0	0	0	
15	0	0	0	0	548	520	0	0	0	0	
0	0	0	0	0	548	519	0	0	0	0	
1	0	0	0	0	546	518	0	0	0	0	
2	0	0	0	0	543	515	0	0	0	0	
3	0	0	0	0	540	512	0	0	0	0	
4	0	0	0	0	535	509	0	0	0	0	
5	0	0	0	0	528	504	0	0	0	0	
6	0	0	0	0	521	499	0	0	0	0	
7	0	0	0	0	514	493	0	0	0	0	
8	0	0	0	0	505	486	0	0	0	0	
9	0	0	0	0	496	478	0	0	0	0	
10	0	0	0	0	486	469	0	0	0	0	
11	0	0	0	0	476	459	0	0	0	0	
12	0	0	0	0	466	448	0	0	0	0	
13	0	0	0	0	456	438	0	0	0	0	
14	0	0	0	0	447	426	0	0	0	0	
15	0	0	0	0	436	415	0	0	0	0	
0	0	0	0	0	427	405	0	0	0	0	
1	0	0	0	0	418	395	0	0	0	0	
2	0	0	0	0	409	384	0	0	0	0	
3	0	0	0	0	401	376	0	0	0	0	
4	0	0	0	0	393	366	0	0	0	0	
5	0	0	0	0	384	357	0	0	0	0	
6	0	0	0	0	375	348	0	0	0	0	
7	0	0	0	0	366	339	0	0	0	0	
8	0	0	0	0	356	330	0	0	0	0	
9	0	0	0	0	348	322	0	0	0	0	
10	0	0	0	0	339	314	0	0	0	0	
11	0	0	0	0	332	308	0	0	0	0	
12	0	0	0	0	327	304	0	0	0	0	
13	0	0	0	0	326	302	0	0	0	0	
14	0	0	0	0	327	303	0	0	0	0	
15	0	0	0	0	332	307	0	0	0	0	
0	0	0	0	0	341	314	0	0	0	0	
1	0	0	0	0	353	325	0	0	0	0	
2	0	0	0	0	369	338	0	0	0	0	
3	0	0	0	0	388	353	0	0	0	0	
4	0	0	0	0	408	371	0	0	0	0	
5	0	0	0	0	430	391	0	0	0	0	
6	0	0	0	0	453	412	0	0	0	0	
7	0	0	0	0	476	433	0	0	0	0	
8	0	0	0	0	496	454	0	0	0	0	
9	0	0	0	0	516	475	0	0	0	0	
10	0	0	0	0	534	494	0	0	0	0	
11	0	0	0	0	549	512	0	0	0	0	
12	0	0	0	0	561	527	0	0	0	0	
13	0	0	0	0	569	540	0	0	0	0	
14	0	0	0	0	575	550	0	0	0	0	
15	0	0	0	0	578	557	0	0	0	0	
0	0	0	0	0	579	561	0	0	0	0	
1	0	0	0	0	578	562	0	0	0	0	
2	0	0	0	0	576	560	0	0	0	0	
3	0	0	0	0	572	557	0	0	0	0	
4	0	0	0	0	569	551	0	0	0	0	
5	0	0	0	0	564	544	0	0	0	0	
6	0	0	0	0	560	536	0	0	0	0	
7	0	0	0	0	556	528	0	0	0	0	
8	0	0	0	0	553	521	0	0	0	0	
9	0	0	0	0	550	515	0	0	0	0	
10	0	0	0	0	547	510	0	0	0	0	
11	0	0	0	0	547	508	0	0	0	0	
12	0	0	0	0	546	505	0	0	0	0	
13	0	0	0	0	545	506	0	0	0	0	
14	0	0	0	0	546	507	0	0	0	0	
15	0	0	0	0	547	510	0	0	0	0	
0	0	0	0	0	549	513	0	0	0	0	
1	0	0	0	0	550	517	0	0	0	0	
2	0	0	0	0	551	521	0	0	0	0	
3	0	0	0	0	553	525	0	0	0	0	
4	0	0	0	0	554	527	0	0	0	0	
5	0	0	0	0	555	531	0	0	0	0	
6	0	0	0	0	556	531	0	0	0	0	
7	0	0	0	0	555	532	0	0	0	0	
8	0	0	0	0	555	532	0	0	0	0	
9	0	0	0	0	554	532	0	0	0	0	
10	0	0	0	0	554	531	0	0	0	0	
11	0	0	0	0	553	528	0	0	0	0	
12	0	0	0	0	552	527	0	0	0	0	
13	0	0	0	0	552	525	0	0	0	0	
14	0	0	0	0	552	524	0	0	0	0	
15	0	0	0	0	552	523	0	0	0	0	
0	0	0	0	0	553	523	0	0	0	0	
1	0	0	0	0	553	523	0	0	0	0	
2	0	0	0	0	555	524	0	0	0	0	
3	0	0	0	0	556	526	0	0	0	0	
4	0	0	0	0	558	528	0	0	0	0	
5	0	0	0	0	559	531	0	0	0	0	
6	0	0	0	0	560	534	0	0	0	0	
7	0	0	0	0	561	536	0	0	0	0	
8	0	0	0	0	561	537	0	0	0	0	
9	0	0	0	0	561	539	0	0	0	0	
10	0	0	0	0	560	539	0	0	0	0	
11	0	0	0	0	560	538	0	0	0	0	
12	0	0	0	0	558	536	0	0	0	0	
13	0	0	0	0	556	535	0	0	0	0	
14	0	0	0	0	555	531	0	0	0	0	
15	0	0	0	0	554	530	0	0	0	0	
0	0	0	0	0	552	527	0	0	0	0	
1	0	0	0	0	552	526	0	0	0	0	
2	0	0	0	0	552	524	0	0	0	0	
3	0	0	0	0	552	524	0	0	0	0	
4	0	0	0	0	553	523	0	0	0	0	
5	0	0	0	0	554	524	0	0	0	0	
6	0	0	0	0	556	525	0	0	0	0	
7	0	0	0	0	558	527	0	0	0	0	
8	0	0	0	0	559	529	0	0	0	0	
9	0	0	0	0	560	531	0	0	0	0	
10	0	0	0	0	562	534	0	0	0	0	
11	0	0	0	0	563	537	0	0	0	0	
12	0	0	0	0	564	538	0	0	0	0	
13	0	0	0	0	566	540	0	0	0	0	
14	0	0	0	0	566	541	0	0	0	0	
15	0	0	0	0	566	542	0	0	0	0	
0	0	0	0	0	566	541	0	0	0	0	
1	0	0	0	0	566	540	0	0	0	0	
2	0	0	0	0	565	538	0	0	0	0	
3	0	0	0	0	563	536	0	0	0	0	
4	0	0	0	0	563	534	0	0	0	0	
5	0	0	0	0	561	531	0	0	0	0	
6	0	0	0	0	560	529	0	0	0	0	
7	0	0	0	0	558	527	0	0	0	0	
8	0	0	0	0	556	525	0	0	0	0	
9	0	0	0	0	555	524	0	0	0	0	
10	0	0	0	0	554	523	0	0	0	0	
11	0	0	0	0	552	524	0	0	0	0	
12	0	0	0	0	552	524	0	0	0	0	
13	0	0	0	0	551	525	0	0	0	0	
14	0	0	0	0	552	526	0	0	0	0	
15	0	0	0	0	552	527	0	0	0	0	
0	0	0	0	0	552	528	0	0	0	0	
1	0	0	0	0	553	529	0	0	0	0	
2	0	0	0	0	552	529	0	0	0	0	
3	0	0	0	0	553	529	0	0	0	0	
4	0	0	0	0	553	529	0	0	0	0	
5	0	0	0	0	553	528	0	0	0	0	
6	0	0	0	0	552	527	0	0	0	0	
7	0	0	0	0	551	525	0	0	0	0	
8	0	0	0	0	551	524	0	0	0	0	
9	0	0	0	0	551	522	0	0	0	0	
10	0	0	0	0	551	521	0	0	0	0	
11	0	0	0	0	551	520	0	0	0	0	
12	0	0	0	0	551	519	0	0	0	0	
13	0	0	0	0	551	519	0	0	0	0	
14	0	0	0	0	551	519	0	0	0	0	
15	0	0	0	0	551	519	0	0	0	0	
0	0	0	0	0	551	520	0	0	0	0	
1	0	0	0	0	551	522	0	0	0	0	
2	0	0	0	0	551	523	0	0	0	0	
3	0	0	0	0	551	524	0	0	0	0	
4	0	0	0	0	551	525	0	0	0	0	
5	0	0	0	0	550	525	0	0	0	0	
6	0	0	0	0	549	525	0	0	0	0	
7	0	0	0	0	548	525	0	0	0	0	
8	0	0	0	0	548	524	0	0	0	0	
9	0	0	0	0	547	523	0	0	0	0	
10	0	0	0	0	547	521	0	0	0	0	
11	0	0	0	0	546	520	0	0	0	0	
12	0	0	0	0	545	518	0	0	0	0	
13	0	0	0	0	545	517	0	0	0	0	
14	0	0	0	0	545	516	0	0	0	0	
15	0	0	0	0	544	515	0	0	0	0	
0	0	0	0	0	545	515	0	0	0	0	
1	0	0	0	0	545	515	0	0	0	0	
2	0	0	0	0	545	516	0	0	0	0	
3	0	0	0	0	545	516	0	0	0	0	
4	0	0	0	0	545	517	0	0	0	0	
5	0	0	0	0	546	519	0	0	0	0	
6	0	0	0	0	546	520	0	0	0	0	
7	0	0	0	0	546	521	0	0	0	0	
8	0	0	0	0	545	521	0	0	0	0	
9	0	0	0	0	545	522	0	0	0	0	
10	0	0	0	0	545	521	0	0	0	0	
11	0	0	0	0	543	520	0	0	0	0	
12	0	0	0	0	543	519	0	0	0	0	
13	0	0	0	0	541	516	0	0	0	0	
14	0	0	0	0	540	513	0	0	0	0	
15	0	0	0	0	539	511	0	0	0	0	
0	0	0	0	0	537	508	0	0	0	0	
1	0	0	0	0	536	506	0	0	0	0	
2	0	0	0	0	535	504	0	0	0	0	
3	0	0	0	0	535	504	0	0	0	0	
4	0	0	0	0	536	503	0	0	0	0	
5	0	0	0	0	536	504	0	0	0	0	
6	0	0	0	0	537	505	0	0	0	0	
7	0	0	0	0	538	508	0	0	0	0	
8	0	0	0	0	541	511	0	0	0	0	
9	0	0	0	0	542	515	0	0	0	0	
10	0	0	0	0	544	519	0	0	0	0	
11	0	0	0	0	547	523	0	0	0	0	
12	0	0	0	0	549	526	0	0	0	0	
13	0	0	0	0	551	528	0	0	0	0	
14	0	0	0	0	553	530	0	0	0	0	
15	0	0	0	0	553	531	0	0	0	0	
0	0	0	0	0	553	531	0	0	0	0	
1	0	0	0	0	553	530	0	0	0	0	
2	0	0	0	0	552	528	0	0	0	0	
3	0	0	0	0	551	525	0	0	0	0	
4	0	0	0	0	548	522	0	0	0	0	
5	0	0	0	0	547	519	0	0	0	0	
6	0	0	0	0	544	516	0	0	0	0	
7	0	0	0	0	543	513	0	0	0	0	
8	0	0	0	0	541	511	0	0	0	0	
9	0	0	0	0	540	509	0	0	0	0	
10	0	0	0	0	539	508	0	0	0	0	
11	0	0	0	0	539	508	0	0	0	0	
12	0	0	0	0	539	508	0	0	0	0	
13	0	0	0	0	538	508	0	0	0	0	
14	0	0	0	0	539	510	0	0	0	0	
15	0	0	0	0	539	511	0	0	0	0	
0	0	0	0	0	539	512	0	0	0	0	
1	0	0	0	0	540	513	0	0	0	0	
2	0	0	0	0	540	514	0	0	0	0	
3	0	0	0	0	540	515	0	0	0	0	
4	0	0	0	0	541	515	0	0	0	0	
5	0	0	0	0	542	515	0	0	0	0	
6	0	0	0	0	543	515	0	0	0	0	
7	0	0	0	0	543	515	0	0	0	0	
8	0	0	0	0	543	515	0	0	0	0	
9	0	0	0	0	544	515	0	0	0	0	
10	0	0	0	0	545	515	0	0	0	0	
11	0	0	0	0	547	515	0	0	0	0	
12	0	0	0	0	547	516	0	0	0	0	
13	0	0	0	0	549	518	0	0	0	0	
14	0	0	0	0	551	519	0	0	0	0	
15	0	0	0	0	553	522	0	0	0	0	
0	0	0	0	0	556	525	0	0	0	0	
1	0	0	0	0	558	528	0	0	0	0	
2	0	0	0	0	560	531	0	0	0	0	
3	0	0	0	0	563	535	0	0	0	0	
4	0	0	0	0	565	539	0	0	0	0	
5	0	0	0	0	567	541	0	0	0	0	
6	0	0	0	0	568	543	0	0	0	0	
7	0	0	0	0	568	545	0	0	0	0	
8	0	0	0	0	568	545	0	0	0	0	
9	0	0	0	0	566	544	0	0	0	0	
10	0	0	0	0	564	543	0	0	0	0	
11	0	0	0	0	561	540	0	0	0	0	
12	0	0	0	0	559	537	0	0	0	0	
13	0	0	0	0	556	533	0	0	0	0	
14	0	0	0	0	554	530	0	0	0	0	
15	0	0	0	0	551	527	0	0	0	0	
0	0	0	0	0	550	525	0	0	0	0	
1	0	0	0	0	549	523	0	0	0	0	
2	0	0	0	0	548	522	0	0	0	0	
3	0	0	0	0	549	523	0	0	0	0	
4	0	0	0	0	550	524	0	0	0	0	
5	0	0	0	0	552	525	0	0	0	0	
6	0	0	0	0	553	527	0	0	0	0	
7	0	0	0	0	556	529	0	0	0	0	
8	0	0	0	0	558	531	0	0	0	0	
9	0	0	0	0	560	534	0	0	0	0	
10	0	0	0	0	561	535	0	0	0	0	
11	0	0	0	0	563	537	0	0	0	0	
12	0	0	0	0	563	537	0	0	0	0	
13	0	0	0	0	564	537	0	0	0	0	
14	0	0	0	0	564	537	0	0	0	0	
15	0	0	0	0	564	535	0	0	0	0	
0	0	0	0	0	563	534	0	0	0	0	
1	0	0	0	0	562	532	0	0	0	0	
2	0	0	0	0	561	530	0	0	0	0	
3	0	0	0	0	560	528	0	0	0	0	
4	0	0	0	0	558	525	0	0	0	0	
5	0	0	0	0	555	523	0	0	0	0	
6	0	0	0	0	553	522	0	0	0	0	
7	0	0	0	0	551	521	0	0	0	0	
8	0	0	0	0	548	520	0	0	0	0	
9	0	0	0	0	547	520	0	0	0	0	
10	0	0	0	0	546	520	0	0	0	0	
11	0	0	0	0	545	520	0	0	0	0	
12	0	0	0	0	544	520	0	0	0	0	
13	0	0	0	0	545	522	0	0	0	0	
14	0	0	0	0	545	522	0	0	0	0	
15	0	0	0	0	545	522	0	0	0	0	
0	0	0	0	0	545	522	0	0	0	0	
1	0	0	0	0	545	521	0	0	0	0	
2	0	0	0	0	546	520	0	0	0	0	
3	0	0	0	0	546	519	0	0	0	0	
4	0	0	0	0	546	518	0	0	0	0	
5	0	0	0	0	545	516	0	0	0	0	
6	0	0	0	0	545	514	0	0	0	0	
7	0	0	0	0	545	513	0	0	0	0	
8	0	0	0	0	545	512	0	0	0	0	
9	0	0	0	0	544	511	0	0	0	0	
10	0	0	0	0	544	511	0	0	0	0	
11	0	0	0	0	544	511	0	0	0	0	
12	0	0	0	0	544	512	0	0	0	0	
13	0	0	0	0	545	513	0	0	0	0	
14	0	0	0	0	545	515	0	0	0	0	
15	0	0	0	0	545	517	0	0	0	0	
0	0	0	0	0	546	519	0	0	0	0	
1	0	0	0	0	546	520	0	0	0	0	
2	0	0	0	0	547	520	0	0	0	0	
3	0	0	0	0	547	521	0	0	0	0	
4	0	0	0	0	547	521	0	0	0	0	
5	0	0	0	0	547	520	0	0	0	0	
6	0	0	0	0	548	519	0	0	0	0	
7	0	0	0	0	547	517	0	0	0	0	
8	0	0	0	0	547	515	0	0	0	0	
9	0	0	0	0	546	514	0	0	0	0	
10	0	0	0	0	546	512	0	0	0	0	
11	0	0	0	0	545	511	0	0	0	0	
12	0	0	0	0	544	510	0	0	0	0	
13	0	0	0	0	543	510	0	0	0	0	
14	0	0	0	0	543	510	0	0	0	0	
15	0	0	0	0	542	511	0	0	0	0	
0	0	0	0	0	541	512	0	0	0	0	
1	0	0	0	0	540	513	0	0	0	0	
2	0	0	0	0	540	514	0	0	0	0	
3	0	0	0	0	539	515	0	0	0	0	
4	0	0	0	0	539	516	0	0	0	0	
5	0	0	0	0	539	518	0	0	0	0	
6	0	0	0	0	539	518	0	0	0	0	
7	0	0	0	0	539	518	0	0	0	0	
8	0	0	0	0	539	518	0	0	0	0	
9	0	0	0	0	539	517	0	0	0	0	
10	0	0	0	0	539	516	0	0	0	0	
11	0	0	0	0	540	515	0	0	0	0	
12	0	0	0	0	539	514	0	0	0	0	
13	0	0	0	0	539	512	0	0	0	0	
14	0	0	0	0	539	511	0	0	0	0	
15	0	0	0	0	539	510	0	0	0	0	
0	0	0	0	0	537	508	0	0	0	0	
1	0	0	0	0	537	508	0	0	0	0	
2	0	0	0	0	536	507	0	0	0	0	
3	0	0	0	0	536	507	0	0	0	0	
4	0	0	0	0	536	508	0	0	0	0	
5	0	0	0	0	536	508	0	0	0	0	
6	0	0	0	0	534	508	0	0	0	0	
7	0	0	0	0	534	510	0	0	0	0	
8	0	0	0	0	534	511	0	0	0	0	
9	0	0	0	0	535	512	0	0	0	0	
10	0	0	0	0	534	512	0	0	0	0	
11	0	0	0	0	534	513	0	0	0	0	
12	0	0	0	0	535	513	0	0	0	0	
13	0	0	0	0	535	513	0	0	0	0	
14	0	0	0	0	536	512	0	0	0	0	
15	0	0	0	0	536	511	0	0	0	0	
0	0	0	0	0	535	509	0	0	0	0	
1	0	0	0	0	535	507	0	0	0	0	
2	0	0	0	0	535	505	0	0	0	0	
3	0	0	0	0	535	503	0	0	0	0	
4	0	0	0	0	535	501	0	0	0	0	
5	0	0	0	0	534	500	0	0	0	0	
6	0	0	0	0	534	499	0	0	0	0	
7	0	0	0	0	533	499	0	0	0	0	
8	0	0	0	0	532	499	0	0	0	0	
9	0	0	0	0	532	499	0	0	0	0	
10	0	0	0	0	531	500	0	0	0	0	
11	0	0	0	0	531	501	0	0	0	0	
12	0	0	0	0	531	502	0	0	0	0	
13	0	0	0	0	531	504	0	0	0	0	
14	0	0	0	0	531	505	0	0	0	0	
15	0	0	0	0	531	506	0	0	0	0	
0	0	0	0	0	532	507	0	0	0	0	
1	0	0	0	0	533	508	0	0	0	0	
2	0	0	0	0	534	508	0	0	0	0	
3	0	0	0	0	536	508	0	0	0	0	
4	0	0	0	0	536	508	0	0	0	0	
5	0	0	0	0	537	509	0	0	0	0	
6	0	0	0	0	538	508	0	0	0	0	
7	0	0	0	0	539	508	0	0	0	0	
8	0	0	0	0	539	508	0	0	0	0	
9	0	0	0	0	540	507	0	0	0	0	
10	0	0	0	0	540	507	0	0	0	0	
11	0	0	0	0	539	506	0	0	0	0	
12	0	0	0	0	539	506	0	0	0	0	
13	0	0	0	0	538	505	0	0	0	0	
14	0	0	0	0	537	505	0	0	0	0	
15	0	0	0	0	536	505	0	0	0	0	
0	0	0	0	0	534	504	0	0	0	0	
1	0	0	0	0	533	504	0	0	0	0	
2	0	0	0	0	532	504	0	0	0	0	
3	0	0	0	0	530	504	0	0	0	0	
4	0	0	0	0	529	504	0	0	0	0	
5	0	0	0	0	529	504	0	0	0	0	
6	0	0	0	0	529	503	0	0	0	0	
7	0	0	0	0	529	502	0	0	0	0	
8	0	0	0	0	528	501	0	0	0	0	
9	0	0	0	0	529	500	0	0	0	0	
10	0	0	0	0	529	499	0	0	0	0	
11	0	0	0	0	530	499	0	0	0	0	
12	0	0	0	0	531	498	0	0	0	0	
13	0	0	0	0	531	499	0	0	0	0	
14	0	0	0	0	532	499	0	0	0	0	
15	0	0	0	0	533	500	0	0	0	0	
0	0	0	0	0	534	501	0	0	0	0	
1	0	0	0	0	535	502	0	0	0	0	
2	0	0	0	0	535	504	0	0	0	0	
3	0	0	0	0	536	506	0	0	0	0	
4	0	0	0	0	536	508	0	0	0	0	
5	0	0	0	0	536	508	0	0	0	0	
6	0	0	0	0	536	509	0	0	0	0	
7	0	0	0	0	536	509	0	0	0	0	
8	0	0	0	0	535	508	0	0	0	0	
9	0	0	0	0	534	507	0	0	0	0	
10	0	0	0	0	533	505	0	0	0	0	
11	0	0	0	0	531	503	0	0	0	0	
12	0	0	0	0	530	500	0	0	0	0	
13	0	0	0	0	528	497	0	0	0	0	
14	0	0	0	0	526	494	0	0	0	0	
15	0	0	0	0	524	492	0	0	0	0	
0	0	0	0	0	521	489	0	0	0	0	
1	0	0	0	0	519	487	0	0	0	0	
2	0	0	0	0	518	486	0	0	0	0	
3	0	0	0	0	517	486	0	0	0	0	
4	0	0	0	0	517	486	0	0	0	0	
5	0	0	0	0	517	487	0	0	0	0	
6	0	0	0	0	517	488	0	0	0	0	
7	0	0	0	0	518	489	0	0	0	0	
8	0	0	0	0	519	491	0	0	0	0	
9	0	0	0	0	521	493	0	0	0	0	
10	0	0	0	0	524	494	0	0	0	0	
11	0	0	0	0	525	496	0	0	0	0	
12	0	0	0	0	527	496	0	0	0	0	
13	0	0	0	0	529	497	0	0	0	0	
14	0	0	0	0	530	497	0	0	0	0	
15	0	0	0	0	531	496	0	0	0	0	
0	0	0	0	0	531	495	0	0	0	0	
1	0	0	0	0	531	495	0	0	0	0	
2	0	0	0	0	530	494	0	0	0	0	
3	0	0	0	0	529	493	0	0	0	0	
4	0	0	0	0	528	492	0	0	0	0	
5	0	0	0	0	527	492	0	0	0	0	
6	0	0	0	0	525	493	0	0	0	0	
7	0	0	0	0	524	494	0	0	0	0	
8	0	0	0	0	524	495	0	0	0	0	
9	0	0	0	0	524	496	0	0	0	0	
10	0	0	0	0	523	497	0	0	0	0	
11	0	0	0	0	524	499	0	0	0	0	
12	0	0	0	0	524	500	0	0	0	0	
13	0	0	0	0	525	501	0	0	0	0	
14	0	0	0	0	526	502	0	0	0	0	
15	0	0	0	0	527	502	0	0	0	0	
0	0	0	0	0	528	502	0	0	0	0	
1	0	0	0	0	529	501	0	0	0	0	
2	0	0	0	0	529	500	0	0	0	0	
3	0	0	0	0	530	498	0	0	0	0	
4	0	0	0	0	529	496	0	0	0	0	
5	0	0	0	0	529	494	0	0	0	0	
6	0	0	0	0	528	492	0	0	0	0	
7	0	0	0	0	527	490	0	0	0	0	
8	0	0	0	0	525	488	0	0	0	0	
9	0	0	0	0	524	487	0	0	0	0	
10	0	0	0	0	523	487	0	0	0	0	
11	0	0	0	0	522	487	0	0	0	0	
12	0	0	0	0	522	487	0	0	0	0	
13	0	0	0	0	522	488	0	0	0	0	
14	0	0	0	0	522	489	0	0	0	0	
15	0	0	0	0	523	491	0	0	0	0	
0	0	0	0	0	524	493	0	0	0	0	
1	0	0	0	0	525	495	0	0	0	0	
2	0	0	0	0	526	496	0	0	0	0	
3	0	0	0	0	527	497	0	0	0	0	
4	0	0	0	0	527	498	0	0	0	0	
5	0	0	0	0	527	498	0	0	0	0	
6	0	0	0	0	527	497	0	0	0	0	
7	0	0	0	0	526	496	0	0	0	0	
8	0	0	0	0	526	495	0	0	0	0	
9	0	0	0	0	524	493	0	0	0	0	
10	0	0	0	0	523	492	0	0	0	0	
11	0	0	0	0	522	491	0	0	0	0	
12	0	0	0	0	521	490	0	0	0	0	
13	0	0	0	0	520	489	0	0	0	0	
14	0	0	0	0	520	490	0	0	0	0	
15	0	0	0	0	520	491	0	0	0	0	
0	0	0	0	0	520	492	0	0	0	0	
1	0	0	0	0	520	493	0	0	0	0	
2	0	0	0	0	521	495	0	0	0	0	
3	0	0	0	0	521	496	0	0	0	0	
4	0	0	0	0	522	497	0	0	0	0	
5	0	0	0	0	522	498	0	0	0	0	
6	0	0	0	0	522	498	0	0	0	0	
7	0	0	0	0	523	498	0	0	0	0	
8	0	0	0	0	523	498	0	0	0	0	
9	0	0	0	0	524	497	0	0	0	0	
10	0	0	0	0	524	497	0	0	0	0	
11	0	0	0	0	525	495	0	0	0	0	
12	0	0	0	0	526	495	0	0	0	0	
13	0	0	0	0	526	494	0	0	0	0	
14	0	0	0	0	527	493	0	0	0	0	
15	0	0	0	0	528	493	0	0	0	0	
0	0	0	0	0	528	492	0	0	0	0	
1	0	0	0	0	528	493	0	0	0	0	
2	0	0	0	0	529	494	0	0	0	0	
3	0	0	0	0	529	495	0	0	0	0	
4	0	0	0	0	529	496	0	0	0	0	
5	0	0	0	0	527	497	0	0	0	0	
6	0	0	0	0	527	498	0	0	0	0	
7	0	0	0	0	526	499	0	0	0	0	
8	0	0	0	0	524	499	0	0	0	0	
9	0	0	0	0	522	499	0	0	0	0	
10	0	0	0	0	520	499	0	0	0	0	
11	0	0	0	0	519	497	0	0	0	0	
12	0	0	0	0	517	496	0	0	0	0	
13	0	0	0	0	515	493	0	0	0	0	
14	0	0	0	0	514	490	0	0	0	0	
15	0	0	0	0	512	487	0	0	0	0	
0	0	0	0	0	511	484	0	0	0	0	
1	0	0	0	0	511	482	0	0	0	0	
2	0	0	0	0	511	480	0	0	0	0	
3	0	0	0	0	511	479	0	0	0	0	
4	0	0	0	0	512	479	0	0	0	0	
5	0	0	0	0	514	480	0	0	0	0	
6	0	0	0	0	516	481	0	0	0	0	
7	0	0	0	0	518	484	0	0	0	0	
8	0	0	0	0	520	487	0	0	0	0	
9	0	0	0	0	522	490	0	0	0	0	
10	0	0	0	0	524	494	0	0	0	0	
11	0	0	0	0	526	496	0	0	0	0	
12	0	0	0	0	527	499	0	0	0	0	
13	0	0	0	0	527	501	0	0	0	0	
14	0	0	0	0	528	502	0	0	0	0	
15	0	0	0	0	528	502	0	0	0	0	
0	0	0	0	0	528	502	0	0	0	0	
1	0	0	0	0	528	501	0	0	0	0	
2	0	0	0	0	527	499	0	0	0	0	
3	0	0	0	0	526	496	0	0	0	0	
4	0	0	0	0	525	494	0	0	0	0	
5	0	0	0	0	524	492	0	0	0	0	
6	0	0	0	0	523	489	0	0	0	0	
7	0	0	0	0	521	487	0	0	0	0	
8	0	0	0	0	519	485	0	0	0	0	
9	0	0	0	0	519	484	0	0	0	0	
10	0	0	0	0	518	484	0	0	0	0	
11	0	0	0	0	518	483	0	0	0	0	
12	0	0	0	0	518	485	0	0	0	0	
13	0	0	0	0	518	486	0	0	0	0	
14	0	0	0	0	519	487	0	0	0	0	
15	0	0	0	0	519	488	0	0	0	0	
0	0	0	0	0	520	489	0	0	0	0	
1	0	0	0	0	520	490	0	0	0	0	
2	0	0	0	0	521	491	0	0	0	0	
3	0	0	0	0	520	490	0	0	0	0	
4	0	0	0	0	520	489	0	0	0	0	
5	0	0	0	0	519	488	0	0	0	0	
6	0	0	0	0	518	487	0	0	0	0	
7	0	0	0	0	517	486	0	0	0	0	
8	0	0	0	0	516	484	0	0	0	0	
9	0	0	0	0	515	483	0	0	0	0	
10	0	0	0	0	515	483	0	0	0	0	
11	0	0	0	0	515	483	0	0	0	0	
12	0	0	0	0	516	483	0	0	0	0	
13	0	0	0	0	517	484	0	0	0	0	
14	0	0	0	0	518	485	0	0	0	0	
15	0	0	0	0	520	487	0	0	0	0	
0	0	0	0	0	522	489	0	0	0	0	
1	0	0	0	0	523	492	0	0	0	0	
2	0	0	0	0	524	493	0	0	0	0	
3	0	0	0	0	524	495	0	0	0	0	
4	0	0	0	0	524	495	0	0	0	0	
5	0	0	0	0	524	495	0	0	0	0	
6	0	0	0	0	522	494	0	0	0	0	
7	0	0	0	0	520	492	0	0	0	0	
8	0	0	0	0	518	490	0	0	0	0	
9	0	0	0	0	515	487	0	0	0	0	
10	0	0	0	0	514	485	0	0	0	0	
11	0	0	0	0	513	483	0	0	0	0	
12	0	0	0	0	511	481	0	0	0	0	
13	0	0	0	0	511	480	0	0	0	0	
14	0	0	0	0	510	479	0	0	0	0	
15	0	0	0	0	511	479	0	0	0	0	
0	0	0	0	0	511	479	0	0	0	0	
1	0	0	0	0	511	479	0	0	0	0	
2	0	0	0	0	512	480	0	0	0	0	
3	0	0	0	0	513	482	0	0	0	0	
4	0	0	0	0	515	484	0	0	0	0	
5	0	0	0	0	517	487	0	0	0	0	
6	0	0	0	0	519	490	0	0	0	0	
7	0	0	0	0	522	493	0	0	0	0	
8	0	0	0	0	525	497	0	0	0	0	
9	0	0	0	0	527	500	0	0	0	0	
10	0	0	0	0	530	502	0	0	0	0	
11	0	0	0	0	531	503	0	0	0	0	
12	0	0	0	0	532	504	0	0	0	0	
13	0	0	0	0	532	504	0	0	0	0	
14	0	0	0	0	532	504	0	0	0	0	
15	0	0	0	0	531	502	0	0	0	0	
0	0	0	0	0	528	500	0	0	0	0	
1	0	0	0	0	526	498	0	0	0	0	
2	0	0	0	0	524	496	0	0	0	0	
3	0	0	0	0	521	493	0	0	0	0	
4	0	0	0	0	518	489	0	0	0	0	
5	0	0	0	0	514	486	0	0	0	0	
6	0	0	0	0	511	483	0	0	0	0	
7	0	0	0	0	508	481	0	0	0	0	
8	0	0	0	0	505	479	0	0	0	0	
9	0	0	0	0	503	477	0	0	0	0	
10	0	0	0	0	502	477	0	0	0	0	
11	0	0	0	0	502	477	0	0	0	0	
12	0	0	0	0	503	478	0	0	0	0	
13	0	0	0	0	504	480	0	0	0	0	
14	0	0	0	0	506	481	0	0	0	0	
15	0	0	0	0	509	483	0	0	0	0	
0	0	0	0	0	511	484	0	0	0	0	
1	0	0	0	0	514	486	0	0	0	0	
2	0	0	0	0	516	487	0	0	0	0	
3	0	0	0	0	518	486	0	0	0	0	
4	0	0	0	0	518	486	0	0	0	0	
5	0	0	0	0	519	486	0	0	0	0	
6	0	0	0	0	519	485	0	0	0	0	
7	0	0	0	0	518	484	0	0	0	0	
8	0	0	0	0	517	484	0	0	0	0	
9	0	0	0	0	516	483	0	0	0	0	
10	0	0	0	0	515	483	0	0	0	0	
11	0	0	0	0	515	484	0	0	0	0	
12	0	0	0	0	514	485	0	0	0	0	
13	0	0	0	0	515	486	0	0	0	0	
14	0	0	0	0	515	487	0	0	0	0	
15	0	0	0	0	516	489	0	0	0	0	
0	0	0	0	0	517	491	0	0	0	0	
1	0	0	0	0	519	492	0	0	0	0	
2	0	0	0	0	520	494	0	0	0	0	
3	0	0	0	0	521	495	0	0	0	0	
4	0	0	0	0	523	496	0	0	0	0	
5	0	0	0	0	524	497	0	0	0	0	
6	0	0	0	0	526	497	0	0	0	0	
7	0	0	0	0	527	497	0	0	0	0	
8	0	0	0	0	527	497	0	0	0	0	
9	0	0	0	0	528	496	0	0	0	0	
10	0	0	0	0	529	496	0	0	0	0	
11	0	0	0	0	529	497	0	0	0	0	
12	0	0	0	0	529	496	0	0	0	0	
13	0	0	0	0	529	497	0	0	0	0	
14	0	0	0	0	530	497	0	0	0	0	
15	0	0	0	0	530	498	0	0	0	0	
0	0	0	0	0	530	499	0	0	0	0	
1	0	0	0	0	529	499	0	0	0	0	
2	0	0	0	0	527	498	0	0	0	0	
3	0	0	0	0	526	496	0	0	0	0	
4	0	0	0	0	523	495	0	0	0	0	
5	0	0	0	0	520	492	0	0	0	0	
6	0	0	0	0	517	489	0	0	0	0	
7	0	0	0	0	513	486	0	0	0	0	
8	0	0	0	0	510	482	0	0	0	0	
9	0	0	0	0	507	479	0	0	0	0	
10	0	0	0	0	505	475	0	0	0	0	
11	0	0	0	0	504	473	0	0	0	0	
12	0	0	0	0	503	472	0	0	0	0	
13	0	0	0	0	504	472	0	0	0	0	
14	0	0	0	0	505	472	0	0	0	0	
15	0	0	0	0	507	474	0	0	0	0	
0	0	0	0	0	510	476	0	0	0	0	
1	0	0	0	0	512	479	0	0	0	0	
2	0	0	0	0	515	481	0	0	0	0	
3	0	0	0	0	518	485	0	0	0	0	
4	0	0	0	0	520	488	0	0	0	0	
5	0	0	0	0	523	490	0	0	0	0	
6	0	0	0	0	523	492	0	0	0	0	
7	0	0	0	0	524	494	0	0	0	0	
8	0	0	0	0	524	495	0	0	0	0	
9	0	0	0	0	524	496	0	0	0	0	
10	0	0	0	0	523	495	0	0	0	0	
11	0	0	0	0	522	495	0	0	0	0	
12	0	0	0	0	521	493	0	0	0	0	
13	0	0	0	0	519	491	0	0	0	0	
14	0	0	0	0	519	489	0	0	0	0	
15	0	0	0	0	518	487	0	0	0	0	
0	0	0	0	0	516	486	0	0	0	0	
1	0	0	0	0	516	485	0	0	0	0	
2	0	0	0	0	516	484	0	0	0	0	
3	0	0	0	0	515	483	0	0	0	0	
4	0	0	0	0	515	482	0	0	0	0	
5	0	0	0	0	513	481	0	0	0	0	
6	0	0	0	0	511	480	0	0	0	0	
7	0	0	0	0	509	478	0	0	0	0	
8	0	0	0	0	505	476	0	0	0	0	
9	0	0	0	0	501	473	0	0	0	0	
10	0	0	0	0	495	470	0	0	0	0	
11	0	0	0	0	488	465	0	0	0	0	
12	0	0	0	0	480	459	0	0	0	0	
13	0	0	0	0	472	452	0	0	0	0	
14	0	0	0	0	462	444	0	0	0	0	
15	0	0	0	0	452	434	0	0	0	0	
0	0	0	0	0	442	424	0	0	0	0	
1	0	0	0	0	432	413	0	0	0	0	
2	0	0	0	0	422	402	0	0	0	0	
3	0	0	0	0	412	390	0	0	0	0	
4	0	0	0	0	401	378	0	0	0	0	
5	0	0	0	0	391	367	0	0	0	0	
6	0	0	0	0	381	355	0	0	0	0	
7	0	0	0	0	371	344	0	0	0	0	
8	0	0	0	0	361	332	0	0	0	0	
9	0	0	0	0	351	321	0	0	0	0	
10	0	0	0	0	341	311	0	0	0	0	
11	0	0	0	0	331	301	0	0	0	0	
12	0	0	0	0	321	292	0	0	0	0	
13	0	0	0	0	312	284	0	0	0	0	
14	0	0	0	0	303	276	0	0	0	0	
15	0	0	0	0	296	271	0	0	0	0	
0	0	0	0	0	291	267	0	0	0	0	
1	0	0	0	0	287	265	0	0	0	0	
2	0	0	0	0	287	266	0	0	0	0	
3	0	0	0	0	288	268	0	0	0	0	
4	0	0	0	0	294	274	0	0	0	0	
5	0	0	0	0	303	282	0	0	0	0	
6	0	0	0	0	315	294	0	0	0	0	
7	0	0	0	0	331	308	0	0	0	0	
8	0	0	0	0	351	326	0	0	0	0	
9	0	0	0	0	374	345	0	0	0	0	
10	0	0	0	0	397	366	0	0	0	0	
11	0	0	0	0	423	388	0	0	0	0	
12	0	0	0	0	448	410	0	0	0	0	
13	0	0	0	0	472	432	0	0	0	0	
14	0	0	0	0	496	452	0	0	0	0	
15	0	0	0	0	517	472	0	0	0	0	
0	0	0	0	0	536	489	0	0	0	0	
1	0	0	0	0	551	505	0	0	0	0	
2	0	0	0	0	563	518	0	0	0	0	
3	0	0	0	0	571	527	0	0	0	0	
4	0	0	0	0	575	534	0	0	0	0	
5	0	0	0	0	575	537	0	0	0	0	
6	0	0	0	0	572	537	0	0	0	0	
7	0	0	0	0	567	535	0	0	0	0	
8	0	0	0	0	559	530	0	0	0	0	
9	0	0	0	0	550	524	0	0	0	0	
10	0	0	0	0	540	516	0	0	0	0	
11	0	0	0	0	529	507	0	0	0	0	
12	0	0	0	0	519	499	0	0	0	0	
13	0	0	0	0	511	491	0	0	0	0	
14	0	0	0	0	504	484	0	0	0	0	
15	0	0	0	0	499	479	0	0	0	0	
0	0	0	0	0	495	475	0	0	0	0	
1	0	0	0	0	494	473	0	0	0	0	
2	0	0	0	0	495	473	0	0	0	0	
3	0	0	0	0	497	475	0	0	0	0	
4	0	0	0	0	501	479	0	0	0	0	
5	0	0	0	0	505	482	0	0	0	0	
6	0	0	0	0	511	487	0	0	0	0	
7	0	0	0	0	516	493	0	0	0	0	
8	0	0	0	0	521	498	0	0	0	0	
9	0	0	0	0	526	503	0	0	0	0	
10	0	0	0	0	529	505	0	0	0	0	
11	0	0	0	0	532	508	0	0	0	0	
12	0	0	0	0	534	510	0	0	0	0	
13	0	0	0	0	535	511	0	0	0	0	
14	0	0	0	0	535	511	0	0	0	0	
15	0	0	0	0	534	510	0	0	0	0	
0	0	0	0	0	534	509	0	0	0	0	
1	0	0	0	0	533	508	0	0	0	0	
2	0	0	0	0	532	508	0	0	0	0	
3	0	0	0	0	533	508	0	0	0	0	
4	0	0	0	0	533	508	0	0	0	0	
5	0	0	0	0	533	509	0	0	0	0	
6	0	0	0	0	535	510	0	0	0	0	
7	0	0	0	0	536	512	0	0	0	0	
8	0	0	0	0	537	513	0	0	0	0	
9	0	0	0	0	537	515	0	0	0	0	
10	0	0	0	0	539	517	0	0	0	0	
11	0	0	0	0	540	519	0	0	0	0	
12	0	0	0	0	540	520	0	0	0	0	
13	0	0	0	0	540	520	0	0	0	0	
14	0	0	0	0	540	522	0	0	0	0	
15	0	0	0	0	539	521	0	0	0	0	
0	0	0	0	0	537	520	0	0	0	0	
1	0	0	0	0	536	518	0	0	0	0	
2	0	0	0	0	535	517	0	0	0	0	
3	0	0	0	0	532	514	0	0	0	0	
4	0	0	0	0	530	511	0	0	0	0	
5	0	0	0	0	529	509	0	0	0	0	
6	0	0	0	0	527	507	0	0	0	0	
7	0	0	0	0	527	505	0	0	0	0	
8	0	0	0	0	526	503	0	0	0	0	
9	0	0	0	0	526	502	0	0	0	0	
10	0	0	0	0	526	502	0	0	0	0	
11	0	0	0	0	526	502	0	0	0	0	
12	0	0	0	0	527	503	0	0	0	0	
13	0	0	0	0	527	504	0	0	0	0	
14	0	0	0	0	529	507	0	0	0	0	
15	0	0	0	0	530	509	0	0	0	0	
0	0	0	0	0	531	511	0	0	0	0	
1	0	0	0	0	532	513	0	0	0	0	
2	0	0	0	0	532	514	0	0	0	0	
3	0	0	0	0	532	514	0	0	0	0	
4	0	0	0	0	532	514	0	0	0	0	
5	0	0	0	0	531	513	0	0	0	0	
6	0	0	0	0	531	513	0	0	0	0	
7	0	0	0	0	530	511	0	0	0	0	
8	0	0	0	0	528	509	0	0	0	0	
9	0	0	0	0	527	507	0	0	0	0	
10	0	0	0	0	526	505	0	0	0	0	
11	0	0	0	0	525	504	0	0	0	0	
12	0	0	0	0	525	503	0	0	0	0	
13	0	0	0	0	524	503	0	0	0	0	
14	0	0	0	0	524	503	0	0	0	0	
15	0	0	0	0	524	504	0	0	0	0	
0	0	0	0	0	524	504	0	0	0	0	
1	0	0	0	0	524	505	0	0	0	0	
2	0	0	0	0	524	506	0	0	0	0	
3	0	0	0	0	525	508	0	0	0	0	
4	0	0	0	0	525	509	0	0	0	0	
5	0	0	0	0	525	510	0	0	0	0	
6	0	0	0	0	525	510	0	0	0	0	
7	0	0	0	0	524	510	0	0	0	0	
8	0	0	0	0	523	510	0	0	0	0	
9	0	0	0	0	523	509	0	0	0	0	
10	0	0	0	0	523	509	0	0	0	0	
11	0	0	0	0	523	508	0	0	0	0	
12	0	0	0	0	523	507	0	0	0	0	
13	0	0	0	0	523	507	0	0	0	0	
14	0	0	0	0	523	506	0	0	0	0	
15	0	0	0	0	523	505	0	0	0	0	
0	0	0	0	0	523	505	0	0	0	0	
1	0	0	0	0	523	505	0	0	0	0	
2	0	0	0	0	523	506	0	0	0	0	
3	0	0	0	0	523	507	0	0	0	0	
4	0	0	0	0	523	508	0	0	0	0	
5	0	0	0	0	523	508	0	0	0	0	
6	0	0	0	0	521	509	0	0	0	0	
7	0	0	0	0	521	510	0	0	0	0	
8	0	0	0	0	520	510	0	0	0	0	
9	0	0	0	0	519	510	0	0	0	0	
10	0	0	0	0	519	508	0	0	0	0	
11	0	0	0	0	518	508	0	0	0	0	
12	0	0	0	0	518	507	0	0	0	0	
13	0	0	0	0	517	506	0	0	0	0	
14	0	0	0	0	518	505	0	0	0	0	
15	0	0	0	0	517	504	0	0	0	0	
0	0	0	0	0	517	503	0	0	0	0	
1	0	0	0	0	518	502	0	0	0	0	
2	0	0	0	0	518	502	0	0	0	0	
3	0	0	0	0	519	502	0	0	0	0	
4	0	0	0	0	519	502	0	0	0	0	
5	0	0	0	0	520	503	0	0	0	0	
6	0	0	0	0	521	504	0	0	0	0	
7	0	0	0	0	523	505	0	0	0	0	
8	0	0	0	0	524	507	0	0	0	0	
9	0	0	0	0	524	508	0	0	0	0	
10	0	0	0	0	524	509	0	0	0	0	
11	0	0	0	0	524	510	0	0	0	0	
12	0	0	0	0	524	510	0	0	0	0	
13	0	0	0	0	523	509	0	0	0	0	
14	0	0	0	0	520	507	0	0	0	0	
15	0	0	0	0	519	506	0	0	0	0	
0	0	0	0	0	517	504	0	0	0	0	
1	0	0	0	0	514	501	0	0	0	0	
2	0	0	0	0	512	499	0	0	0	0	
3	0	0	0	0	511	496	0	0	0	0	
4	0	0	0	0	510	494	0	0	0	0	
5	0	0	0	0	508	492	0	0	0	0	
6	0	0	0	0	508	491	0	0	0	0	
7	0	0	0	0	507	489	0	0	0	0	
8	0	0	0	0	505	488	0	0	0	0	
9	0	0	0	0	505	488	0	0	0	0	
10	0	0	0	0	504	488	0	0	0	0	
11	0	0	0	0	504	488	0	0	0	0	
12	0	0	0	0	504	489	0	0	0	0	
13	0	0	0	0	504	491	0	0	0	0	
14	0	0	0	0	506	493	0	0	0	0	
15	0	0	0	0	508	495	0	0	0	0	
0	0	0	0	0	510	498	0	0	0	0	
1	0	0	0	0	512	500	0	0	0	0	
2	0	0	0	0	515	503	0	0	0	0	
3	0	0	0	0	518	504	0	0	0	0	
4	0	0	0	0	521	506	0	0	0	0	
5	0	0	0	0	525	508	0	0	0	0	
6	0	0	0	0	527	508	0	0	0	0	
7	0	0	0	0	528	508	0	0	0	0	
8	0	0	0	0	529	508	0	0	0	0	
9	0	0	0	0	529	507	0	0	0	0	
10	0	0	0	0	529	507	0	0	0	0	
11	0	0	0	0	528	506	0	0	0	0	
12	0	0	0	0	527	505	0	0	0	0	
13	0	0	0	0	526	505	0	0	0	0	
14	0	0	0	0	524	505	0	0	0	0	
15	0	0	0	0	523	506	0	0	0	0	
0	0	0	0	0	523	508	0	0	0	0	
1	0	0	0	0	522	508	0	0	0	0	
2	0	0	0	0	522	511	0	0	0	0	
3	0	0	0	0	523	512	0	0	0	0	
4	0	0	0	0	523	514	0	0	0	0	
5	0	0	0	0	524	515	0	0	0	0	
6	0	0	0	0	525	516	0	0	0	0	
7	0	0	0	0	526	516	0	0	0	0	
8	0	0	0	0	527	516	0	0	0	0	
9	0	0	0	0	527	515	0	0	0	0	
10	0	0	0	0	527	515	0	0	0	0	
11	0	0	0	0	527	513	0	0	0	0	
12	0	0	0	0	527	511	0	0	0	0	
13	0	0	0	0	526	510	0	0	0	0	
14	0	0	0	0	526	509	0	0	0	0	
15	0	0	0	0	525	508	0	0	0	0	
0	0	0	0	0	524	507	0	0	0	0	
1	0	0	0	0	525	507	0	0	0	0	
2	0	0	0	0	525	508	0	0	0	0	
3	0	0	0	0	526	509	0	0	0	0	
4	0	0	0	0	527	511	0	0	0	0	
5	0	0	0	0	528	512	0	0	0	0	
6	0	0	0	0	529	514	0	0	0	0	
7	0	0	0	0	530	515	0	0	0	0	
8	0	0	0	0	530	516	0	0	0	0	
9	0	0	0	0	530	518	0	0	0	0	
10	0	0	0	0	530	517	0	0	0	0	
11	0	0	0	0	528	516	0	0	0	0	
12	0	0	0	0	527	514	0	0	0	0	
13	0	0	0	0	524	511	0	0	0	0	
14	0	0	0	0	520	507	0	0	0	0	
15	0	0	0	0	517	502	0	0	0	0	
0	0	0	0	0	514	498	0	0	0	0	
1	0	0	0	0	512	495	0	0	0	0	
2	0	0	0	0	511	493	0	0	0	0	
3	0	0	0	0	510	492	0	0	0	0	
4	0	0	0	0	510	492	0	0	0	0	
5	0	0	0	0	512	494	0	0	0	0	
6	0	0	0	0	514	496	0	0	0	0	
7	0	0	0	0	518	500	0	0	0	0	
8	0	0	0	0	522	505	0	0	0	0	
9	0	0	0	0	526	510	0	0	0	0	
10	0	0	0	0	531	516	0	0	0	0	
11	0	0	0	0	535	521	0	0	0	0	
12	0	0	0	0	539	525	0	0	0	0	
13	0	0	0	0	542	528	0	0	0	0	
14	0	0	0	0	544	530	0	0	0	0	
15	0	0	0	0	544	531	0	0	0	0	
0	0	0	0	0	544	530	0	0	0	0	
1	0	0	0	0	543	528	0	0	0	0	
2	0	0	0	0	541	526	0	0	0	0	
3	0	0	0	0	539	523	0	0	0	0	
4	0	0	0	0	537	521	0	0	0	0	
5	0	0	0	0	536	519	0	0	0	0	
6	0	0	0	0	535	518	0	0	0	0	
7	0	0	0	0	535	518	0	0	0	0	
8	0	0	0	0	535	517	0	0	0	0	
9	0	0	0	0	536	518	0	0	0	0	
10	0	0	0	0	537	519	0	0	0	0	
11	0	0	0	0	539	521	0	0	0	0	
12	0	0	0	0	540	522	0	0	0	0	
13	0	0	0	0	540	523	0	0	0	0	
14	0	0	0	0	541	524	0	0	0	0	
15	0	0	0	0	541	525	0	0	0	0	
0	0	0	0	0	541	526	0	0	0	0	
1	0	0	0	0	540	526	0	0	0	0	
2	0	0	0	0	539	524	0	0	0	0	
3	0	0	0	0	537	523	0	0	0	0	
4	0	0	0	0	535	521	0	0	0	0	
5	0	0	0	0	532	519	0	0	0	0	
6	0	0	0	0	531	517	0	0	0	0	
7	0	0	0	0	528	514	0	0	0	0	
8	0	0	0	0	527	512	0	0	0	0	
9	0	0	0	0	526	509	0	0	0	0	
10	0	0	0	0	525	508	0	0	0	0	
11	0	0	0	0	524	506	0	0	0	0	
12	0	0	0	0	524	505	0	0	0	0	
13	0	0	0	0	524	504	0	0	0	0	
