# OpenSignals Text File Format. Version 1
# {"": {"position": 0, "device": "", "device name": "", "device connection": "", "sampling rate": 1000, "resolution": [4, 1, 1, 1, 1, 10, 10, 10, 10, 6, 6], "firmware version": 1281, "comments": "", "keywords": "", "mode": 0, "sync interval": 2, "date": "", "time": "", "channels": [1, 2, 3, 4, 5, 6], "sensor": ["RAW", "RAW", "RAW", "RAW", "RAW", "RAW"], "label": ["A1", "A2", "A3", "A4", "A5", "A6"], "column": ["nSeq", "I1", "I2", "O1", "O2", "A1", "A2", "A3", "A4", "A5", "A6"], "special": [{}, {}, {}, {}, {}, {}], "digital IO": [0, 0, 1, 1], "convertedValues": 0}}
# EndOfHeader
0	0	0	0	0	540	591	0	0	0	0	
1	0	0	0	0	540	591	0	0	0	0	
2	0	0	0	0	540	590	0	0	0	0	
3	0	0	0	0	540	589	0	0	0	0	
4	0	0	0	0	541	588	0	0	0	0	
5	0	0	0	0	541	587	0	0	0	0	
6	0	0	0	0	541	587	0	0	0	0	
7	0	0	0	0	541	587	0	0	0	0	
8	0	0	0	0	542	587	0	0	0	0	
9	0	0	0	0	541	587	0	0	0	0	
10	0	0	0	0	541	588	0	0	0	0	
11	0	0	0	0	541	588	0	0	0	0	
12	0	0	0	0	540	589	0	0	0	0	
13	0	0	0	0	540	590	0	0	0	0	
14	0	0	0	0	540	591	0	0	0	0	
15	0	0	0	0	540	592	0	0	0	0	
0	0	0	0	0	539	593	0	0	0	0	
1	0	0	0	0	540	594	0	0	0	0	
2	0	0	0	0	540	594	0	0	0	0	
3	0	0	0	0	540	594	0	0	0	0	
4	0	0	0	0	540	593	0	0	0	0	
5	0	0	0	0	541	593	0	0	0	0	
6	0	0	0	0	541	591	0	0	0	0	
7	0	0	0	0	541	590	0	0	0	0	
8	0	0	0	0	541	588	0	0	0	0	
9	0	0	0	0	541	587	0	0	0	0	
10	0	0	0	0	540	585	0	0	0	0	
11	0	0	0	0	540	584	0	0	0	0	
12	0	0	0	0	540	584	0	0	0	0	
13	0	0	0	0	540	584	0	0	0	0	
14	0	0	0	0	541	585	0	0	0	0	
15	0	0	0	0	541	587	0	0	0	0	
0	0	0	0	0	542	588	0	0	0	0	
1	0	0	0	0	543	588	0	0	0	0	
2	0	0	0	0	543	591	0	0	0	0	
3	0	0	0	0	544	592	0	0	0	0	
4	0	0	0	0	544	593	0	0	0	0	
5	0	0	0	0	545	594	0	0	0	0	
6	0	0	0	0	545	594	0	0	0	0	
7	0	0	0	0	544	594	0	0	0	0	
8	0	0	0	0	543	593	0	0	0	0	
9	0	0	0	0	542	592	0	0	0	0	
10	0	0	0	0	540	591	0	0	0	0	
11	0	0	0	0	538	589	0	0	0	0	
12	0	0	0	0	536	588	0	0	0	0	
13	0	0	0	0	535	587	0	0	0	0	
14	0	0	0	0	534	586	0	0	0	0	
15	0	0	0	0	533	586	0	0	0	0	
0	0	0	0	0	532	586	0	0	0	0	
1	0	0	0	0	533	586	0	0	0	0	
2	0	0	0	0	534	588	0	0	0	0	
3	0	0	0	0	535	589	0	0	0	0	
4	0	0	0	0	536	590	0	0	0	0	
5	0	0	0	0	537	591	0	0	0	0	
6	0	0	0	0	538	593	0	0	0	0	
7	0	0	0	0	540	593	0	0	0	0	
8	0	0	0	0	540	593	0	0	0	0	
9	0	0	0	0	540	593	0	0	0	0	
10	0	0	0	0	540	592	0	0	0	0	
11	0	0	0	0	538	590	0	0	0	0	
12	0	0	0	0	538	588	0	0	0	0	
13	0	0	0	0	537	587	0	0	0	0	
14	0	0	0	0	536	585	0	0	0	0	
15	0	0	0	0	536	583	0	0	0	0	
0	0	0	0	0	535	582	0	0	0	0	
1	0	0	0	0	536	581	0	0	0	0	
2	0	0	0	0	536	581	0	0	0	0	
3	0	0	0	0	536	581	0	0	0	0	
4	0	0	0	0	537	582	0	0	0	0	
5	0	0	0	0	537	582	0	0	0	0	
6	0	0	0	0	537	583	0	0	0	0	
7	0	0	0	0	536	582	0	0	0	0	
8	0	0	0	0	534	582	0	0	0	0	
9	0	0	0	0	531	579	0	0	0	0	
10	0	0	0	0	526	577	0	0	0	0	
11	0	0	0	0	522	573	0	0	0	0	
12	0	0	0	0	516	568	0	0	0	0	
13	0	0	0	0	509	561	0	0	0	0	
14	0	0	0	0	502	554	0	0	0	0	
15	0	0	0	0	494	545	0	0	0	0	
0	0	0	0	0	484	535	0	0	0	0	
1	0	0	0	0	475	525	0	0	0	0	
2	0	0	0	0	465	514	0	0	0	0	
3	0	0	0	0	454	503	0	0	0	0	
4	0	0	0	0	443	491	0	0	0	0	
5	0	0	0	0	432	479	0	0	0	0	
6	0	0	0	0	421	467	0	0	0	0	
7	0	0	0	0	409	455	0	0	0	0	
8	0	0	0	0	398	444	0	0	0	0	
9	0	0	0	0	387	434	0	0	0	0	
10	0	0	0	0	376	423	0	0	0	0	
11	0	0	0	0	365	413	0	0	0	0	
12	0	0	0	0	355	403	0	0	0	0	
13	0	0	0	0	345	394	0	0	0	0	
14	0	0	0	0	336	385	0	0	0	0	
15	0	0	0	0	328	379	0	0	0	0	
0	0	0	0	0	323	373	0	0	0	0	
1	0	0	0	0	319	369	0	0	0	0	
2	0	0	0	0	319	368	0	0	0	0	
3	0	0	0	0	321	369	0	0	0	0	
4	0	0	0	0	328	373	0	0	0	0	
5	0	0	0	0	338	380	0	0	0	0	
6	0	0	0	0	351	391	0	0	0	0	
7	0	0	0	0	367	404	0	0	0	0	
8	0	0	0	0	387	420	0	0	0	0	
9	0	0	0	0	409	439	0	0	0	0	
10	0	0	0	0	432	458	0	0	0	0	
11	0	0	0	0	455	479	0	0	0	0	
12	0	0	0	0	477	499	0	0	0	0	
13	0	0	0	0	499	520	0	0	0	0	
14	0	0	0	0	518	539	0	0	0	0	
15	0	0	0	0	536	556	0	0	0	0	
0	0	0	0	0	549	572	0	0	0	0	
1	0	0	0	0	560	585	0	0	0	0	
2	0	0	0	0	567	597	0	0	0	0	
3	0	0	0	0	573	606	0	0	0	0	
4	0	0	0	0	575	611	0	0	0	0	
5	0	0	0	0	575	615	0	0	0	0	
6	0	0	0	0	574	617	0	0	0	0	
7	0	0	0	0	571	616	0	0	0	0	
8	0	0	0	0	567	614	0	0	0	0	
9	0	0	0	0	563	611	0	0	0	0	
10	0	0	0	0	559	607	0	0	0	0	
11	0	0	0	0	555	603	0	0	0	0	
12	0	0	0	0	551	599	0	0	0	0	
13	0	0	0	0	550	595	0	0	0	0	
14	0	0	0	0	549	593	0	0	0	0	
15	0	0	0	0	549	591	0	0	0	0	
0	0	0	0	0	549	591	0	0	0	0	
1	0	0	0	0	551	592	0	0	0	0	
2	0	0	0	0	553	594	0	0	0	0	
3	0	0	0	0	556	596	0	0	0	0	
4	0	0	0	0	558	599	0	0	0	0	
5	0	0	0	0	560	601	0	0	0	0	
6	0	0	0	0	562	604	0	0	0	0	
7	0	0	0	0	564	607	0	0	0	0	
8	0	0	0	0	564	608	0	0	0	0	
9	0	0	0	0	565	609	0	0	0	0	
10	0	0	0	0	564	609	0	0	0	0	
11	0	0	0	0	563	609	0	0	0	0	
12	0	0	0	0	563	608	0	0	0	0	
13	0	0	0	0	561	606	0	0	0	0	
14	0	0	0	0	559	604	0	0	0	0	
15	0	0	0	0	558	603	0	0	0	0	
0	0	0	0	0	556	600	0	0	0	0	
1	0	0	0	0	555	599	0	0	0	0	
2	0	0	0	0	555	598	0	0	0	0	
3	0	0	0	0	555	598	0	0	0	0	
4	0	0	0	0	556	598	0	0	0	0	
5	0	0	0	0	557	599	0	0	0	0	
6	0	0	0	0	559	600	0	0	0	0	
7	0	0	0	0	561	601	0	0	0	0	
8	0	0	0	0	563	603	0	0	0	0	
9	0	0	0	0	563	604	0	0	0	0	
10	0	0	0	0	566	606	0	0	0	0	
11	0	0	0	0	567	607	0	0	0	0	
12	0	0	0	0	568	608	0	0	0	0	
13	0	0	0	0	568	608	0	0	0	0	
14	0	0	0	0	568	608	0	0	0	0	
15	0	0	0	0	569	608	0	0	0	0	
0	0	0	0	0	568	608	0	0	0	0	
1	0	0	0	0	568	606	0	0	0	0	
2	0	0	0	0	567	605	0	0	0	0	
3	0	0	0	0	566	603	0	0	0	0	
4	0	0	0	0	566	602	0	0	0	0	
5	0	0	0	0	566	602	0	0	0	0	
6	0	0	0	0	566	601	0	0	0	0	
7	0	0	0	0	566	601	0	0	0	0	
8	0	0	0	0	566	602	0	0	0	0	
9	0	0	0	0	567	603	0	0	0	0	
10	0	0	0	0	566	604	0	0	0	0	
11	0	0	0	0	566	605	0	0	0	0	
12	0	0	0	0	566	606	0	0	0	0	
13	0	0	0	0	565	607	0	0	0	0	
14	0	0	0	0	565	608	0	0	0	0	
15	0	0	0	0	565	609	0	0	0	0	
0	0	0	0	0	564	609	0	0	0	0	
1	0	0	0	0	564	609	0	0	0	0	
2	0	0	0	0	563	609	0	0	0	0	
3	0	0	0	0	563	608	0	0	0	0	
4	0	0	0	0	563	607	0	0	0	0	
5	0	0	0	0	562	606	0	0	0	0	
6	0	0	0	0	561	604	0	0	0	0	
7	0	0	0	0	560	602	0	0	0	0	
8	0	0	0	0	560	600	0	0	0	0	
9	0	0	0	0	560	599	0	0	0	0	
10	0	0	0	0	559	597	0	0	0	0	
11	0	0	0	0	559	596	0	0	0	0	
12	0	0	0	0	558	595	0	0	0	0	
13	0	0	0	0	558	595	0	0	0	0	
14	0	0	0	0	558	595	0	0	0	0	
15	0	0	0	0	558	596	0	0	0	0	
0	0	0	0	0	558	596	0	0	0	0	
1	0	0	0	0	558	597	0	0	0	0	
2	0	0	0	0	560	598	0	0	0	0	
3	0	0	0	0	560	598	0	0	0	0	
4	0	0	0	0	560	598	0	0	0	0	
5	0	0	0	0	560	597	0	0	0	0	
6	0	0	0	0	559	596	0	0	0	0	
7	0	0	0	0	559	595	0	0	0	0	
8	0	0	0	0	558	594	0	0	0	0	
9	0	0	0	0	557	592	0	0	0	0	
10	0	0	0	0	556	591	0	0	0	0	
11	0	0	0	0	555	589	0	0	0	0	
12	0	0	0	0	555	588	0	0	0	0	
13	0	0	0	0	554	588	0	0	0	0	
14	0	0	0	0	553	587	0	0	0	0	
15	0	0	0	0	553	588	0	0	0	0	
0	0	0	0	0	553	588	0	0	0	0	
1	0	0	0	0	555	589	0	0	0	0	
2	0	0	0	0	556	591	0	0	0	0	
3	0	0	0	0	556	593	0	0	0	0	
4	0	0	0	0	558	595	0	0	0	0	
5	0	0	0	0	558	596	0	0	0	0	
6	0	0	0	0	560	598	0	0	0	0	
7	0	0	0	0	560	599	0	0	0	0	
8	0	0	0	0	561	600	0	0	0	0	
9	0	0	0	0	561	600	0	0	0	0	
10	0	0	0	0	559	599	0	0	0	0	
11	0	0	0	0	559	598	0	0	0	0	
12	0	0	0	0	558	596	0	0	0	0	
13	0	0	0	0	556	595	0	0	0	0	
14	0	0	0	0	555	593	0	0	0	0	
15	0	0	0	0	553	592	0	0	0	0	
0	0	0	0	0	551	591	0	0	0	0	
1	0	0	0	0	551	591	0	0	0	0	
2	0	0	0	0	552	591	0	0	0	0	
3	0	0	0	0	552	591	0	0	0	0	
4	0	0	0	0	552	592	0	0	0	0	
5	0	0	0	0	554	593	0	0	0	0	
6	0	0	0	0	556	593	0	0	0	0	
7	0	0	0	0	557	593	0	0	0	0	
8	0	0	0	0	558	594	0	0	0	0	
9	0	0	0	0	559	594	0	0	0	0	
10	0	0	0	0	559	595	0	0	0	0	
11	0	0	0	0	559	595	0	0	0	0	
12	0	0	0	0	559	594	0	0	0	0	
13	0	0	0	0	558	593	0	0	0	0	
14	0	0	0	0	557	592	0	0	0	0	
15	0	0	0	0	556	591	0	0	0	0	
0	0	0	0	0	555	589	0	0	0	0	
1	0	0	0	0	553	588	0	0	0	0	
2	0	0	0	0	551	586	0	0	0	0	
3	0	0	0	0	550	584	0	0	0	0	
4	0	0	0	0	549	584	0	0	0	0	
5	0	0	0	0	548	583	0	0	0	0	
6	0	0	0	0	547	583	0	0	0	0	
7	0	0	0	0	547	582	0	0	0	0	
8	0	0	0	0	546	583	0	0	0	0	
9	0	0	0	0	547	584	0	0	0	0	
10	0	0	0	0	548	585	0	0	0	0	
11	0	0	0	0	550	587	0	0	0	0	
12	0	0	0	0	551	589	0	0	0	0	
13	0	0	0	0	553	591	0	0	0	0	
14	0	0	0	0	556	593	0	0	0	0	
15	0	0	0	0	558	595	0	0	0	0	
0	0	0	0	0	560	597	0	0	0	0	
1	0	0	0	0	561	598	0	0	0	0	
2	0	0	0	0	562	599	0	0	0	0	
3	0	0	0	0	561	599	0	0	0	0	
4	0	0	0	0	563	598	0	0	0	0	
5	0	0	0	0	562	597	0	0	0	0	
6	0	0	0	0	561	596	0	0	0	0	
7	0	0	0	0	561	595	0	0	0	0	
8	0	0	0	0	560	593	0	0	0	0	
9	0	0	0	0	558	592	0	0	0	0	
10	0	0	0	0	557	591	0	0	0	0	
11	0	0	0	0	555	590	0	0	0	0	
12	0	0	0	0	553	589	0	0	0	0	
13	0	0	0	0	551	589	0	0	0	0	
14	0	0	0	0	551	588	0	0	0	0	
15	0	0	0	0	550	588	0	0	0	0	
0	0	0	0	0	549	589	0	0	0	0	
1	0	0	0	0	550	590	0	0	0	0	
2	0	0	0	0	550	591	0	0	0	0	
3	0	0	0	0	551	591	0	0	0	0	
4	0	0	0	0	552	592	0	0	0	0	
5	0	0	0	0	553	593	0	0	0	0	
6	0	0	0	0	554	594	0	0	0	0	
7	0	0	0	0	555	593	0	0	0	0	
8	0	0	0	0	556	594	0	0	0	0	
9	0	0	0	0	556	593	0	0	0	0	
10	0	0	0	0	556	592	0	0	0	0	
11	0	0	0	0	556	591	0	0	0	0	
12	0	0	0	0	556	590	0	0	0	0	
13	0	0	0	0	556	589	0	0	0	0	
14	0	0	0	0	556	588	0	0	0	0	
15	0	0	0	0	556	587	0	0	0	0	
0	0	0	0	0	555	587	0	0	0	0	
1	0	0	0	0	555	588	0	0	0	0	
2	0	0	0	0	555	588	0	0	0	0	
3	0	0	0	0	555	588	0	0	0	0	
4	0	0	0	0	555	589	0	0	0	0	
5	0	0	0	0	555	591	0	0	0	0	
6	0	0	0	0	555	592	0	0	0	0	
7	0	0	0	0	556	594	0	0	0	0	
8	0	0	0	0	557	595	0	0	0	0	
9	0	0	0	0	557	596	0	0	0	0	
10	0	0	0	0	557	597	0	0	0	0	
11	0	0	0	0	558	598	0	0	0	0	
12	0	0	0	0	559	597	0	0	0	0	
13	0	0	0	0	559	597	0	0	0	0	
14	0	0	0	0	560	596	0	0	0	0	
15	0	0	0	0	560	595	0	0	0	0	
0	0	0	0	0	560	594	0	0	0	0	
1	0	0	0	0	562	594	0	0	0	0	
2	0	0	0	0	563	593	0	0	0	0	
3	0	0	0	0	564	594	0	0	0	0	
4	0	0	0	0	565	594	0	0	0	0	
5	0	0	0	0	566	595	0	0	0	0	
6	0	0	0	0	568	596	0	0	0	0	
7	0	0	0	0	569	598	0	0	0	0	
8	0	0	0	0	569	599	0	0	0	0	
9	0	0	0	0	570	600	0	0	0	0	
10	0	0	0	0	569	601	0	0	0	0	
11	0	0	0	0	569	602	0	0	0	0	
12	0	0	0	0	569	602	0	0	0	0	
13	0	0	0	0	568	602	0	0	0	0	
14	0	0	0	0	567	601	0	0	0	0	
15	0	0	0	0	565	600	0	0	0	0	
0	0	0	0	0	563	599	0	0	0	0	
1	0	0	0	0	562	597	0	0	0	0	
2	0	0	0	0	561	595	0	0	0	0	
3	0	0	0	0	560	593	0	0	0	0	
4	0	0	0	0	558	592	0	0	0	0	
5	0	0	0	0	559	591	0	0	0	0	
6	0	0	0	0	559	590	0	0	0	0	
7	0	0	0	0	559	589	0	0	0	0	
8	0	0	0	0	560	589	0	0	0	0	
9	0	0	0	0	560	590	0	0	0	0	
10	0	0	0	0	561	591	0	0	0	0	
11	0	0	0	0	562	591	0	0	0	0	
12	0	0	0	0	563	593	0	0	0	0	
13	0	0	0	0	563	594	0	0	0	0	
14	0	0	0	0	563	595	0	0	0	0	
15	0	0	0	0	563	596	0	0	0	0	
0	0	0	0	0	563	597	0	0	0	0	
1	0	0	0	0	561	597	0	0	0	0	
2	0	0	0	0	561	597	0	0	0	0	
3	0	0	0	0	559	596	0	0	0	0	
4	0	0	0	0	559	595	0	0	0	0	
5	0	0	0	0	557	593	0	0	0	0	
6	0	0	0	0	556	591	0	0	0	0	
7	0	0	0	0	555	589	0	0	0	0	
8	0	0	0	0	555	587	0	0	0	0	
9	0	0	0	0	555	584	0	0	0	0	
10	0	0	0	0	555	583	0	0	0	0	
11	0	0	0	0	556	582	0	0	0	0	
12	0	0	0	0	557	580	0	0	0	0	
13	0	0	0	0	558	580	0	0	0	0	
14	0	0	0	0	559	580	0	0	0	0	
15	0	0	0	0	559	580	0	0	0	0	
0	0	0	0	0	560	581	0	0	0	0	
1	0	0	0	0	560	582	0	0	0	0	
2	0	0	0	0	560	583	0	0	0	0	
3	0	0	0	0	560	584	0	0	0	0	
4	0	0	0	0	560	585	0	0	0	0	
5	0	0	0	0	559	586	0	0	0	0	
6	0	0	0	0	558	587	0	0	0	0	
7	0	0	0	0	558	587	0	0	0	0	
8	0	0	0	0	556	587	0	0	0	0	
9	0	0	0	0	556	587	0	0	0	0	
10	0	0	0	0	556	587	0	0	0	0	
11	0	0	0	0	556	586	0	0	0	0	
12	0	0	0	0	556	586	0	0	0	0	
13	0	0	0	0	557	586	0	0	0	0	
14	0	0	0	0	558	586	0	0	0	0	
15	0	0	0	0	558	586	0	0	0	0	
0	0	0	0	0	559	587	0	0	0	0	
1	0	0	0	0	558	587	0	0	0	0	
2	0	0	0	0	559	587	0	0	0	0	
3	0	0	0	0	559	588	0	0	0	0	
4	0	0	0	0	559	588	0	0	0	0	
5	0	0	0	0	558	589	0	0	0	0	
6	0	0	0	0	557	590	0	0	0	0	
7	0	0	0	0	557	590	0	0	0	0	
8	0	0	0	0	557	590	0	0	0	0	
9	0	0	0	0	556	590	0	0	0	0	
10	0	0	0	0	555	590	0	0	0	0	
11	0	0	0	0	555	590	0	0	0	0	
12	0	0	0	0	556	589	0	0	0	0	
13	0	0	0	0	556	588	0	0	0	0	
14	0	0	0	0	558	588	0	0	0	0	
15	0	0	0	0	559	588	0	0	0	0	
0	0	0	0	0	560	588	0	0	0	0	
1	0	0	0	0	561	588	0	0	0	0	
2	0	0	0	0	562	588	0	0	0	0	
3	0	0	0	0	563	588	0	0	0	0	
4	0	0	0	0	563	588	0	0	0	0	
5	0	0	0	0	563	588	0	0	0	0	
6	0	0	0	0	563	588	0	0	0	0	
7	0	0	0	0	563	589	0	0	0	0	
8	0	0	0	0	563	590	0	0	0	0	
9	0	0	0	0	563	591	0	0	0	0	
10	0	0	0	0	563	593	0	0	0	0	
11	0	0	0	0	563	595	0	0	0	0	
12	0	0	0	0	563	595	0	0	0	0	
13	0	0	0	0	562	596	0	0	0	0	
14	0	0	0	0	562	596	0	0	0	0	
15	0	0	0	0	561	596	0	0	0	0	
0	0	0	0	0	561	595	0	0	0	0	
1	0	0	0	0	561	593	0	0	0	0	
2	0	0	0	0	560	591	0	0	0	0	
3	0	0	0	0	559	589	0	0	0	0	
4	0	0	0	0	557	587	0	0	0	0	
5	0	0	0	0	556	584	0	0	0	0	
6	0	0	0	0	555	583	0	0	0	0	
7	0	0	0	0	554	581	0	0	0	0	
8	0	0	0	0	553	580	0	0	0	0	
9	0	0	0	0	553	579	0	0	0	0	
10	0	0	0	0	552	580	0	0	0	0	
11	0	0	0	0	553	580	0	0	0	0	
12	0	0	0	0	553	581	0	0	0	0	
13	0	0	0	0	554	583	0	0	0	0	
14	0	0	0	0	555	583	0	0	0	0	
15	0	0	0	0	556	584	0	0	0	0	
0	0	0	0	0	556	585	0	0	0	0	
1	0	0	0	0	556	585	0	0	0	0	
2	0	0	0	0	556	585	0	0	0	0	
3	0	0	0	0	556	585	0	0	0	0	
4	0	0	0	0	557	585	0	0	0	0	
5	0	0	0	0	556	584	0	0	0	0	
6	0	0	0	0	556	583	0	0	0	0	
7	0	0	0	0	556	583	0	0	0	0	
8	0	0	0	0	555	582	0	0	0	0	
9	0	0	0	0	556	582	0	0	0	0	
10	0	0	0	0	556	582	0	0	0	0	
11	0	0	0	0	556	583	0	0	0	0	
12	0	0	0	0	557	583	0	0	0	0	
13	0	0	0	0	557	584	0	0	0	0	
14	0	0	0	0	559	585	0	0	0	0	
15	0	0	0	0	559	587	0	0	0	0	
0	0	0	0	0	559	588	0	0	0	0	
1	0	0	0	0	559	588	0	0	0	0	
2	0	0	0	0	558	588	0	0	0	0	
3	0	0	0	0	558	588	0	0	0	0	
4	0	0	0	0	556	588	0	0	0	0	
5	0	0	0	0	555	587	0	0	0	0	
6	0	0	0	0	553	585	0	0	0	0	
7	0	0	0	0	551	583	0	0	0	0	
8	0	0	0	0	550	581	0	0	0	0	
9	0	0	0	0	548	579	0	0	0	0	
10	0	0	0	0	547	577	0	0	0	0	
11	0	0	0	0	546	575	0	0	0	0	
12	0	0	0	0	545	574	0	0	0	0	
13	0	0	0	0	545	573	0	0	0	0	
14	0	0	0	0	545	573	0	0	0	0	
15	0	0	0	0	545	572	0	0	0	0	
0	0	0	0	0	546	573	0	0	0	0	
1	0	0	0	0	547	573	0	0	0	0	
2	0	0	0	0	547	574	0	0	0	0	
3	0	0	0	0	548	575	0	0	0	0	
4	0	0	0	0	550	576	0	0	0	0	
5	0	0	0	0	551	577	0	0	0	0	
6	0	0	0	0	552	578	0	0	0	0	
7	0	0	0	0	554	579	0	0	0	0	
8	0	0	0	0	555	579	0	0	0	0	
9	0	0	0	0	556	580	0	0	0	0	
10	0	0	0	0	556	580	0	0	0	0	
11	0	0	0	0	556	579	0	0	0	0	
12	0	0	0	0	557	579	0	0	0	0	
13	0	0	0	0	556	577	0	0	0	0	
14	0	0	0	0	556	576	0	0	0	0	
15	0	0	0	0	555	574	0	0	0	0	
0	0	0	0	0	553	573	0	0	0	0	
1	0	0	0	0	552	572	0	0	0	0	
2	0	0	0	0	550	570	0	0	0	0	
3	0	0	0	0	548	568	0	0	0	0	
4	0	0	0	0	546	568	0	0	0	0	
5	0	0	0	0	545	567	0	0	0	0	
6	0	0	0	0	544	567	0	0	0	0	
7	0	0	0	0	543	568	0	0	0	0	
8	0	0	0	0	543	569	0	0	0	0	
9	0	0	0	0	543	570	0	0	0	0	
10	0	0	0	0	543	572	0	0	0	0	
11	0	0	0	0	544	573	0	0	0	0	
12	0	0	0	0	545	575	0	0	0	0	
13	0	0	0	0	545	576	0	0	0	0	
14	0	0	0	0	545	576	0	0	0	0	
15	0	0	0	0	545	576	0	0	0	0	
0	0	0	0	0	545	576	0	0	0	0	
1	0	0	0	0	545	575	0	0	0	0	
2	0	0	0	0	545	574	0	0	0	0	
3	0	0	0	0	544	573	0	0	0	0	
4	0	0	0	0	543	571	0	0	0	0	
5	0	0	0	0	543	570	0	0	0	0	
6	0	0	0	0	543	569	0	0	0	0	
7	0	0	0	0	543	568	0	0	0	0	
8	0	0	0	0	543	568	0	0	0	0	
9	0	0	0	0	544	569	0	0	0	0	
10	0	0	0	0	545	570	0	0	0	0	
11	0	0	0	0	547	572	0	0	0	0	
12	0	0	0	0	547	573	0	0	0	0	
13	0	0	0	0	549	575	0	0	0	0	
14	0	0	0	0	549	575	0	0	0	0	
15	0	0	0	0	550	576	0	0	0	0	
0	0	0	0	0	551	576	0	0	0	0	
1	0	0	0	0	551	576	0	0	0	0	
2	0	0	0	0	551	576	0	0	0	0	
3	0	0	0	0	551	575	0	0	0	0	
4	0	0	0	0	550	574	0	0	0	0	
5	0	0	0	0	549	573	0	0	0	0	
6	0	0	0	0	549	572	0	0	0	0	
7	0	0	0	0	548	571	0	0	0	0	
8	0	0	0	0	547	569	0	0	0	0	
9	0	0	0	0	546	568	0	0	0	0	
10	0	0	0	0	545	567	0	0	0	0	
11	0	0	0	0	544	566	0	0	0	0	
12	0	0	0	0	544	566	0	0	0	0	
13	0	0	0	0	543	566	0	0	0	0	
14	0	0	0	0	544	567	0	0	0	0	
15	0	0	0	0	544	568	0	0	0	0	
0	0	0	0	0	545	568	0	0	0	0	
1	0	0	0	0	546	571	0	0	0	0	
2	0	0	0	0	548	572	0	0	0	0	
3	0	0	0	0	550	574	0	0	0	0	
4	0	0	0	0	552	576	0	0	0	0	
5	0	0	0	0	554	577	0	0	0	0	
6	0	0	0	0	555	578	0	0	0	0	
7	0	0	0	0	556	579	0	0	0	0	
8	0	0	0	0	557	579	0	0	0	0	
9	0	0	0	0	558	578	0	0	0	0	
10	0	0	0	0	557	577	0	0	0	0	
11	0	0	0	0	557	576	0	0	0	0	
12	0	0	0	0	555	575	0	0	0	0	
13	0	0	0	0	554	574	0	0	0	0	
14	0	0	0	0	553	572	0	0	0	0	
15	0	0	0	0	551	570	0	0	0	0	
0	0	0	0	0	549	568	0	0	0	0	
1	0	0	0	0	548	568	0	0	0	0	
2	0	0	0	0	547	567	0	0	0	0	
3	0	0	0	0	547	568	0	0	0	0	
4	0	0	0	0	547	568	0	0	0	0	
5	0	0	0	0	547	569	0	0	0	0	
6	0	0	0	0	547	570	0	0	0	0	
7	0	0	0	0	548	572	0	0	0	0	
8	0	0	0	0	548	573	0	0	0	0	
9	0	0	0	0	549	574	0	0	0	0	
10	0	0	0	0	548	574	0	0	0	0	
11	0	0	0	0	549	574	0	0	0	0	
12	0	0	0	0	549	574	0	0	0	0	
13	0	0	0	0	548	574	0	0	0	0	
14	0	0	0	0	548	573	0	0	0	0	
15	0	0	0	0	547	572	0	0	0	0	
0	0	0	0	0	547	572	0	0	0	0	
1	0	0	0	0	547	571	0	0	0	0	
2	0	0	0	0	547	570	0	0	0	0	
3	0	0	0	0	547	569	0	0	0	0	
4	0	0	0	0	547	569	0	0	0	0	
5	0	0	0	0	548	568	0	0	0	0	
6	0	0	0	0	548	569	0	0	0	0	
7	0	0	0	0	548	568	0	0	0	0	
8	0	0	0	0	549	569	0	0	0	0	
9	0	0	0	0	548	569	0	0	0	0	
10	0	0	0	0	550	569	0	0	0	0	
11	0	0	0	0	550	570	0	0	0	0	
12	0	0	0	0	550	570	0	0	0	0	
13	0	0	0	0	550	570	0	0	0	0	
14	0	0	0	0	550	569	0	0	0	0	
15	0	0	0	0	550	569	0	0	0	0	
0	0	0	0	0	549	568	0	0	0	0	
1	0	0	0	0	549	568	0	0	0	0	
2	0	0	0	0	549	568	0	0	0	0	
3	0	0	0	0	548	567	0	0	0	0	
4	0	0	0	0	549	567	0	0	0	0	
5	0	0	0	0	549	568	0	0	0	0	
6	0	0	0	0	549	568	0	0	0	0	
7	0	0	0	0	550	570	0	0	0	0	
8	0	0	0	0	550	572	0	0	0	0	
9	0	0	0	0	551	573	0	0	0	0	
10	0	0	0	0	551	575	0	0	0	0	
11	0	0	0	0	551	577	0	0	0	0	
12	0	0	0	0	551	579	0	0	0	0	
13	0	0	0	0	551	580	0	0	0	0	
14	0	0	0	0	552	580	0	0	0	0	
15	0	0	0	0	552	581	0	0	0	0	
0	0	0	0	0	551	580	0	0	0	0	
1	0	0	0	0	551	579	0	0	0	0	
2	0	0	0	0	550	577	0	0	0	0	
3	0	0	0	0	550	575	0	0	0	0	
4	0	0	0	0	549	573	0	0	0	0	
5	0	0	0	0	548	571	0	0	0	0	
6	0	0	0	0	547	568	0	0	0	0	
7	0	0	0	0	545	566	0	0	0	0	
8	0	0	0	0	543	563	0	0	0	0	
9	0	0	0	0	543	561	0	0	0	0	
10	0	0	0	0	542	560	0	0	0	0	
11	0	0	0	0	540	558	0	0	0	0	
12	0	0	0	0	540	558	0	0	0	0	
13	0	0	0	0	539	558	0	0	0	0	
14	0	0	0	0	539	558	0	0	0	0	
15	0	0	0	0	539	558	0	0	0	0	
0	0	0	0	0	540	559	0	0	0	0	
1	0	0	0	0	540	561	0	0	0	0	
2	0	0	0	0	541	562	0	0	0	0	
3	0	0	0	0	543	564	0	0	0	0	
4	0	0	0	0	544	566	0	0	0	0	
5	0	0	0	0	546	567	0	0	0	0	
6	0	0	0	0	546	568	0	0	0	0	
7	0	0	0	0	548	568	0	0	0	0	
8	0	0	0	0	548	568	0	0	0	0	
9	0	0	0	0	549	568	0	0	0	0	
10	0	0	0	0	549	568	0	0	0	0	
11	0	0	0	0	549	568	0	0	0	0	
12	0	0	0	0	547	568	0	0	0	0	
13	0	0	0	0	547	567	0	0	0	0	
14	0	0	0	0	546	566	0	0	0	0	
15	0	0	0	0	544	566	0	0	0	0	
0	0	0	0	0	543	565	0	0	0	0	
1	0	0	0	0	541	564	0	0	0	0	
2	0	0	0	0	539	563	0	0	0	0	
3	0	0	0	0	538	563	0	0	0	0	
4	0	0	0	0	536	563	0	0	0	0	
5	0	0	0	0	536	563	0	0	0	0	
6	0	0	0	0	535	563	0	0	0	0	
7	0	0	0	0	536	563	0	0	0	0	
8	0	0	0	0	536	563	0	0	0	0	
9	0	0	0	0	538	564	0	0	0	0	
10	0	0	0	0	539	565	0	0	0	0	
11	0	0	0	0	541	566	0	0	0	0	
12	0	0	0	0	543	567	0	0	0	0	
13	0	0	0	0	546	568	0	0	0	0	
14	0	0	0	0	548	568	0	0	0	0	
15	0	0	0	0	550	569	0	0	0	0	
0	0	0	0	0	551	570	0	0	0	0	
1	0	0	0	0	552	570	0	0	0	0	
2	0	0	0	0	553	571	0	0	0	0	
3	0	0	0	0	553	571	0	0	0	0	
4	0	0	0	0	552	572	0	0	0	0	
5	0	0	0	0	552	572	0	0	0	0	
6	0	0	0	0	552	573	0	0	0	0	
7	0	0	0	0	551	573	0	0	0	0	
8	0	0	0	0	551	574	0	0	0	0	
9	0	0	0	0	550	574	0	0	0	0	
10	0	0	0	0	550	575	0	0	0	0	
11	0	0	0	0	550	575	0	0	0	0	
12	0	0	0	0	549	575	0	0	0	0	
13	0	0	0	0	549	574	0	0	0	0	
14	0	0	0	0	547	573	0	0	0	0	
15	0	0	0	0	547	572	0	0	0	0	
0	0	0	0	0	547	571	0	0	0	0	
1	0	0	0	0	547	569	0	0	0	0	
2	0	0	0	0	546	568	0	0	0	0	
3	0	0	0	0	546	566	0	0	0	0	
4	0	0	0	0	545	565	0	0	0	0	
5	0	0	0	0	545	564	0	0	0	0	
6	0	0	0	0	545	564	0	0	0	0	
7	0	0	0	0	546	564	0	0	0	0	
8	0	0	0	0	545	564	0	0	0	0	
9	0	0	0	0	546	566	0	0	0	0	
10	0	0	0	0	546	567	0	0	0	0	
11	0	0	0	0	546	568	0	0	0	0	
12	0	0	0	0	546	569	0	0	0	0	
13	0	0	0	0	546	571	0	0	0	0	
14	0	0	0	0	546	572	0	0	0	0	
15	0	0	0	0	547	572	0	0	0	0	
0	0	0	0	0	547	573	0	0	0	0	
1	0	0	0	0	547	573	0	0	0	0	
2	0	0	0	0	547	573	0	0	0	0	
3	0	0	0	0	546	572	0	0	0	0	
4	0	0	0	0	547	571	0	0	0	0	
5	0	0	0	0	546	570	0	0	0	0	
6	0	0	0	0	545	568	0	0	0	0	
7	0	0	0	0	545	567	0	0	0	0	
8	0	0	0	0	544	566	0	0	0	0	
9	0	0	0	0	544	566	0	0	0	0	
10	0	0	0	0	544	566	0	0	0	0	
11	0	0	0	0	544	566	0	0	0	0	
12	0	0	0	0	544	567	0	0	0	0	
13	0	0	0	0	545	568	0	0	0	0	
14	0	0	0	0	546	569	0	0	0	0	
15	0	0	0	0	546	570	0	0	0	0	
0	0	0	0	0	547	572	0	0	0	0	
1	0	0	0	0	547	572	0	0	0	0	
2	0	0	0	0	547	572	0	0	0	0	
3	0	0	0	0	547	572	0	0	0	0	
4	0	0	0	0	545	570	0	0	0	0	
5	0	0	0	0	543	567	0	0	0	0	
6	0	0	0	0	539	563	0	0	0	0	
7	0	0	0	0	534	558	0	0	0	0	
8	0	0	0	0	529	551	0	0	0	0	
9	0	0	0	0	523	544	0	0	0	0	
10	0	0	0	0	515	537	0	0	0	0	
11	0	0	0	0	508	528	0	0	0	0	
12	0	0	0	0	499	520	0	0	0	0	
13	0	0	0	0	491	512	0	0	0	0	
14	0	0	0	0	481	503	0	0	0	0	
15	0	0	0	0	472	495	0	0	0	0	
0	0	0	0	0	462	486	0	0	0	0	
1	0	0	0	0	452	478	0	0	0	0	
2	0	0	0	0	443	470	0	0	0	0	
3	0	0	0	0	432	462	0	0	0	0	
4	0	0	0	0	422	453	0	0	0	0	
5	0	0	0	0	412	444	0	0	0	0	
6	0	0	0	0	400	434	0	0	0	0	
7	0	0	0	0	390	423	0	0	0	0	
8	0	0	0	0	380	412	0	0	0	0	
9	0	0	0	0	368	400	0	0	0	0	
10	0	0	0	0	358	388	0	0	0	0	
11	0	0	0	0	347	376	0	0	0	0	
12	0	0	0	0	339	366	0	0	0	0	
13	0	0	0	0	332	356	0	0	0	0	
14	0	0	0	0	327	349	0	0	0	0	
15	0	0	0	0	324	345	0	0	0	0	
0	0	0	0	0	325	344	0	0	0	0	
1	0	0	0	0	330	346	0	0	0	0	
2	0	0	0	0	338	352	0	0	0	0	
3	0	0	0	0	350	363	0	0	0	0	
4	0	0	0	0	365	376	0	0	0	0	
5	0	0	0	0	383	393	0	0	0	0	
6	0	0	0	0	404	413	0	0	0	0	
7	0	0	0	0	427	434	0	0	0	0	
8	0	0	0	0	449	456	0	0	0	0	
9	0	0	0	0	472	479	0	0	0	0	
10	0	0	0	0	495	502	0	0	0	0	
11	0	0	0	0	516	523	0	0	0	0	
12	0	0	0	0	535	541	0	0	0	0	
13	0	0	0	0	551	558	0	0	0	0	
14	0	0	0	0	565	572	0	0	0	0	
15	0	0	0	0	575	583	0	0	0	0	
0	0	0	0	0	583	591	0	0	0	0	
1	0	0	0	0	588	598	0	0	0	0	
2	0	0	0	0	591	601	0	0	0	0	
3	0	0	0	0	591	603	0	0	0	0	
4	0	0	0	0	588	602	0	0	0	0	
5	0	0	0	0	585	600	0	0	0	0	
6	0	0	0	0	579	596	0	0	0	0	
7	0	0	0	0	573	592	0	0	0	0	
8	0	0	0	0	566	588	0	0	0	0	
9	0	0	0	0	560	584	0	0	0	0	
10	0	0	0	0	554	580	0	0	0	0	
11	0	0	0	0	549	577	0	0	0	0	
12	0	0	0	0	545	575	0	0	0	0	
13	0	0	0	0	543	575	0	0	0	0	
14	0	0	0	0	542	575	0	0	0	0	
15	0	0	0	0	543	575	0	0	0	0	
0	0	0	0	0	545	576	0	0	0	0	
1	0	0	0	0	548	577	0	0	0	0	
2	0	0	0	0	551	579	0	0	0	0	
3	0	0	0	0	554	580	0	0	0	0	
4	0	0	0	0	558	580	0	0	0	0	
5	0	0	0	0	561	581	0	0	0	0	
6	0	0	0	0	563	581	0	0	0	0	
7	0	0	0	0	564	581	0	0	0	0	
8	0	0	0	0	566	582	0	0	0	0	
9	0	0	0	0	567	582	0	0	0	0	
10	0	0	0	0	567	582	0	0	0	0	
11	0	0	0	0	567	583	0	0	0	0	
12	0	0	0	0	566	583	0	0	0	0	
13	0	0	0	0	566	584	0	0	0	0	
14	0	0	0	0	566	586	0	0	0	0	
15	0	0	0	0	565	587	0	0	0	0	
0	0	0	0	0	565	588	0	0	0	0	
1	0	0	0	0	565	590	0	0	0	0	
2	0	0	0	0	564	591	0	0	0	0	
3	0	0	0	0	566	592	0	0	0	0	
4	0	0	0	0	566	592	0	0	0	0	
5	0	0	0	0	567	593	0	0	0	0	
6	0	0	0	0	567	593	0	0	0	0	
7	0	0	0	0	568	593	0	0	0	0	
8	0	0	0	0	569	593	0	0	0	0	
9	0	0	0	0	570	592	0	0	0	0	
10	0	0	0	0	572	592	0	0	0	0	
11	0	0	0	0	573	591	0	0	0	0	
12	0	0	0	0	573	591	0	0	0	0	
13	0	0	0	0	574	591	0	0	0	0	
14	0	0	0	0	574	591	0	0	0	0	
15	0	0	0	0	574	590	0	0	0	0	
0	0	0	0	0	573	590	0	0	0	0	
1	0	0	0	0	571	590	0	0	0	0	
2	0	0	0	0	571	590	0	0	0	0	
3	0	0	0	0	569	591	0	0	0	0	
4	0	0	0	0	568	591	0	0	0	0	
5	0	0	0	0	567	592	0	0	0	0	
6	0	0	0	0	564	592	0	0	0	0	
7	0	0	0	0	564	593	0	0	0	0	
8	0	0	0	0	563	593	0	0	0	0	
9	0	0	0	0	562	593	0	0	0	0	
10	0	0	0	0	560	592	0	0	0	0	
11	0	0	0	0	560	591	0	0	0	0	
12	0	0	0	0	561	591	0	0	0	0	
13	0	0	0	0	560	589	0	0	0	0	
14	0	0	0	0	560	587	0	0	0	0	
15	0	0	0	0	560	585	0	0	0	0	
0	0	0	0	0	560	583	0	0	0	0	
1	0	0	0	0	560	582	0	0	0	0	
2	0	0	0	0	559	579	0	0	0	0	
3	0	0	0	0	559	578	0	0	0	0	
4	0	0	0	0	558	577	0	0	0	0	
5	0	0	0	0	556	576	0	0	0	0	
6	0	0	0	0	556	575	0	0	0	0	
7	0	0	0	0	556	576	0	0	0	0	
8	0	0	0	0	556	576	0	0	0	0	
9	0	0	0	0	556	577	0	0	0	0	
10	0	0	0	0	556	579	0	0	0	0	
11	0	0	0	0	558	580	0	0	0	0	
12	0	0	0	0	559	582	0	0	0	0	
13	0	0	0	0	560	583	0	0	0	0	
14	0	0	0	0	560	584	0	0	0	0	
15	0	0	0	0	563	585	0	0	0	0	
0	0	0	0	0	564	586	0	0	0	0	
1	0	0	0	0	565	586	0	0	0	0	
2	0	0	0	0	566	586	0	0	0	0	
3	0	0	0	0	567	585	0	0	0	0	
4	0	0	0	0	568	585	0	0	0	0	
5	0	0	0	0	568	585	0	0	0	0	
6	0	0	0	0	568	585	0	0	0	0	
7	0	0	0	0	567	585	0	0	0	0	
8	0	0	0	0	566	585	0	0	0	0	
9	0	0	0	0	565	585	0	0	0	0	
10	0	0	0	0	563	586	0	0	0	0	
11	0	0	0	0	562	586	0	0	0	0	
12	0	0	0	0	561	587	0	0	0	0	
13	0	0	0	0	559	586	0	0	0	0	
14	0	0	0	0	558	586	0	0	0	0	
15	0	0	0	0	557	585	0	0	0	0	
0	0	0	0	0	556	584	0	0	0	0	
1	0	0	0	0	556	583	0	0	0	0	
2	0	0	0	0	556	581	0	0	0	0	
3	0	0	0	0	556	580	0	0	0	0	
4	0	0	0	0	556	579	0	0	0	0	
5	0	0	0	0	556	577	0	0	0	0	
6	0	0	0	0	555	575	0	0	0	0	
7	0	0	0	0	555	574	0	0	0	0	
8	0	0	0	0	555	573	0	0	0	0	
9	0	0	0	0	554	572	0	0	0	0	
10	0	0	0	0	553	571	0	0	0	0	
11	0	0	0	0	553	571	0	0	0	0	
12	0	0	0	0	552	570	0	0	0	0	
13	0	0	0	0	551	571	0	0	0	0	
14	0	0	0	0	552	572	0	0	0	0	
15	0	0	0	0	552	573	0	0	0	0	
0	0	0	0	0	553	575	0	0	0	0	
1	0	0	0	0	554	576	0	0	0	0	
2	0	0	0	0	555	578	0	0	0	0	
3	0	0	0	0	556	580	0	0	0	0	
4	0	0	0	0	558	582	0	0	0	0	
5	0	0	0	0	558	582	0	0	0	0	
6	0	0	0	0	559	583	0	0	0	0	
7	0	0	0	0	560	583	0	0	0	0	
8	0	0	0	0	560	582	0	0	0	0	
9	0	0	0	0	560	581	0	0	0	0	
10	0	0	0	0	559	579	0	0	0	0	
11	0	0	0	0	558	578	0	0	0	0	
12	0	0	0	0	557	576	0	0	0	0	
13	0	0	0	0	557	575	0	0	0	0	
14	0	0	0	0	556	574	0	0	0	0	
15	0	0	0	0	555	573	0	0	0	0	
0	0	0	0	0	554	572	0	0	0	0	
1	0	0	0	0	553	572	0	0	0	0	
2	0	0	0	0	554	573	0	0	0	0	
3	0	0	0	0	554	574	0	0	0	0	
4	0	0	0	0	555	575	0	0	0	0	
5	0	0	0	0	555	575	0	0	0	0	
6	0	0	0	0	556	577	0	0	0	0	
7	0	0	0	0	556	578	0	0	0	0	
8	0	0	0	0	556	578	0	0	0	0	
9	0	0	0	0	556	579	0	0	0	0	
10	0	0	0	0	556	579	0	0	0	0	
11	0	0	0	0	555	579	0	0	0	0	
12	0	0	0	0	556	578	0	0	0	0	
13	0	0	0	0	555	577	0	0	0	0	
14	0	0	0	0	555	576	0	0	0	0	
15	0	0	0	0	554	576	0	0	0	0	
0	0	0	0	0	554	575	0	0	0	0	
1	0	0	0	0	554	575	0	0	0	0	
2	0	0	0	0	554	575	0	0	0	0	
3	0	0	0	0	555	575	0	0	0	0	
4	0	0	0	0	555	576	0	0	0	0	
5	0	0	0	0	555	577	0	0	0	0	
6	0	0	0	0	556	577	0	0	0	0	
7	0	0	0	0	558	579	0	0	0	0	
8	0	0	0	0	558	580	0	0	0	0	
9	0	0	0	0	559	580	0	0	0	0	
10	0	0	0	0	560	581	0	0	0	0	
11	0	0	0	0	561	582	0	0	0	0	
12	0	0	0	0	561	582	0	0	0	0	
13	0	0	0	0	560	582	0	0	0	0	
14	0	0	0	0	560	581	0	0	0	0	
15	0	0	0	0	559	580	0	0	0	0	
0	0	0	0	0	558	579	0	0	0	0	
1	0	0	0	0	556	577	0	0	0	0	
2	0	0	0	0	555	576	0	0	0	0	
3	0	0	0	0	553	575	0	0	0	0	
4	0	0	0	0	551	573	0	0	0	0	
5	0	0	0	0	551	572	0	0	0	0	
6	0	0	0	0	550	571	0	0	0	0	
7	0	0	0	0	549	571	0	0	0	0	
8	0	0	0	0	548	571	0	0	0	0	
9	0	0	0	0	548	571	0	0	0	0	
10	0	0	0	0	549	572	0	0	0	0	
11	0	0	0	0	549	573	0	0	0	0	
12	0	0	0	0	550	575	0	0	0	0	
13	0	0	0	0	551	576	0	0	0	0	
14	0	0	0	0	552	578	0	0	0	0	
15	0	0	0	0	553	579	0	0	0	0	
0	0	0	0	0	555	581	0	0	0	0	
1	0	0	0	0	556	582	0	0	0	0	
2	0	0	0	0	556	583	0	0	0	0	
3	0	0	0	0	556	583	0	0	0	0	
4	0	0	0	0	557	583	0	0	0	0	
5	0	0	0	0	557	583	0	0	0	0	
6	0	0	0	0	557	583	0	0	0	0	
7	0	0	0	0	557	582	0	0	0	0	
8	0	0	0	0	557	582	0	0	0	0	
9	0	0	0	0	557	582	0	0	0	0	
10	0	0	0	0	557	581	0	0	0	0	
11	0	0	0	0	558	582	0	0	0	0	
12	0	0	0	0	558	582	0	0	0	0	
13	0	0	0	0	558	582	0	0	0	0	
14	0	0	0	0	559	583	0	0	0	0	
15	0	0	0	0	559	583	0	0	0	0	
0	0	0	0	0	559	584	0	0	0	0	
1	0	0	0	0	559	585	0	0	0	0	
2	0	0	0	0	560	585	0	0	0	0	
3	0	0	0	0	560	586	0	0	0	0	
4	0	0	0	0	560	585	0	0	0	0	
5	0	0	0	0	560	585	0	0	0	0	
6	0	0	0	0	559	585	0	0	0	0	
7	0	0	0	0	559	584	0	0	0	0	
8	0	0	0	0	559	584	0	0	0	0	
9	0	0	0	0	560	583	0	0	0	0	
10	0	0	0	0	560	583	0	0	0	0	
11	0	0	0	0	560	582	0	0	0	0	
12	0	0	0	0	562	582	0	0	0	0	
13	0	0	0	0	563	582	0	0	0	0	
14	0	0	0	0	562	581	0	0	0	0	
15	0	0	0	0	563	580	0	0	0	0	
0	0	0	0	0	562	580	0	0	0	0	
1	0	0	0	0	561	580	0	0	0	0	
2	0	0	0	0	560	580	0	0	0	0	
3	0	0	0	0	559	581	0	0	0	0	
4	0	0	0	0	557	581	0	0	0	0	
5	0	0	0	0	555	582	0	0	0	0	
6	0	0	0	0	555	582	0	0	0	0	
7	0	0	0	0	553	583	0	0	0	0	
8	0	0	0	0	552	583	0	0	0	0	
9	0	0	0	0	552	583	0	0	0	0	
10	0	0	0	0	551	583	0	0	0	0	
11	0	0	0	0	552	583	0	0	0	0	
12	0	0	0	0	553	583	0	0	0	0	
13	0	0	0	0	553	582	0	0	0	0	
14	0	0	0	0	554	582	0	0	0	0	
15	0	0	0	0	554	580	0	0	0	0	
0	0	0	0	0	556	579	0	0	0	0	
1	0	0	0	0	556	579	0	0	0	0	
2	0	0	0	0	556	578	0	0	0	0	
3	0	0	0	0	556	577	0	0	0	0	
4	0	0	0	0	555	575	0	0	0	0	
5	0	0	0	0	555	575	0	0	0	0	
6	0	0	0	0	554	576	0	0	0	0	
7	0	0	0	0	553	576	0	0	0	0	
8	0	0	0	0	553	577	0	0	0	0	
9	0	0	0	0	553	578	0	0	0	0	
10	0	0	0	0	552	579	0	0	0	0	
11	0	0	0	0	552	580	0	0	0	0	
12	0	0	0	0	552	581	0	0	0	0	
13	0	0	0	0	553	582	0	0	0	0	
14	0	0	0	0	553	582	0	0	0	0	
15	0	0	0	0	553	581	0	0	0	0	
0	0	0	0	0	553	580	0	0	0	0	
1	0	0	0	0	553	579	0	0	0	0	
2	0	0	0	0	552	577	0	0	0	0	
3	0	0	0	0	552	575	0	0	0	0	
4	0	0	0	0	551	572	0	0	0	0	
5	0	0	0	0	550	570	0	0	0	0	
6	0	0	0	0	549	568	0	0	0	0	
7	0	0	0	0	547	567	0	0	0	0	
8	0	0	0	0	546	565	0	0	0	0	
9	0	0	0	0	545	564	0	0	0	0	
10	0	0	0	0	544	565	0	0	0	0	
11	0	0	0	0	543	565	0	0	0	0	
12	0	0	0	0	543	565	0	0	0	0	
13	0	0	0	0	543	566	0	0	0	0	
14	0	0	0	0	543	567	0	0	0	0	
15	0	0	0	0	543	568	0	0	0	0	
0	0	0	0	0	542	568	0	0	0	0	
1	0	0	0	0	542	569	0	0	0	0	
2	0	0	0	0	542	569	0	0	0	0	
3	0	0	0	0	541	568	0	0	0	0	
4	0	0	0	0	542	568	0	0	0	0	
5	0	0	0	0	541	567	0	0	0	0	
6	0	0	0	0	541	566	0	0	0	0	
7	0	0	0	0	540	564	0	0	0	0	
8	0	0	0	0	540	563	0	0	0	0	
9	0	0	0	0	540	562	0	0	0	0	
10	0	0	0	0	540	561	0	0	0	0	
11	0	0	0	0	540	560	0	0	0	0	
12	0	0	0	0	540	560	0	0	0	0	
13	0	0	0	0	539	560	0	0	0	0	
14	0	0	0	0	540	561	0	0	0	0	
15	0	0	0	0	541	562	0	0	0	0	
0	0	0	0	0	541	563	0	0	0	0	
1	0	0	0	0	541	563	0	0	0	0	
2	0	0	0	0	541	564	0	0	0	0	
3	0	0	0	0	542	565	0	0	0	0	
4	0	0	0	0	541	565	0	0	0	0	
5	0	0	0	0	541	565	0	0	0	0	
6	0	0	0	0	540	564	0	0	0	0	
7	0	0	0	0	539	563	0	0	0	0	
8	0	0	0	0	539	563	0	0	0	0	
9	0	0	0	0	539	562	0	0	0	0	
10	0	0	0	0	537	561	0	0	0	0	
11	0	0	0	0	537	559	0	0	0	0	
12	0	0	0	0	537	559	0	0	0	0	
13	0	0	0	0	536	557	0	0	0	0	
14	0	0	0	0	537	557	0	0	0	0	
15	0	0	0	0	537	556	0	0	0	0	
0	0	0	0	0	537	557	0	0	0	0	
1	0	0	0	0	538	557	0	0	0	0	
2	0	0	0	0	539	559	0	0	0	0	
3	0	0	0	0	540	560	0	0	0	0	
4	0	0	0	0	540	562	0	0	0	0	
5	0	0	0	0	542	564	0	0	0	0	
6	0	0	0	0	542	567	0	0	0	0	
7	0	0	0	0	543	569	0	0	0	0	
8	0	0	0	0	544	571	0	0	0	0	
9	0	0	0	0	544	572	0	0	0	0	
10	0	0	0	0	544	573	0	0	0	0	
11	0	0	0	0	543	572	0	0	0	0	
12	0	0	0	0	543	572	0	0	0	0	
13	0	0	0	0	541	571	0	0	0	0	
14	0	0	0	0	540	569	0	0	0	0	
15	0	0	0	0	537	566	0	0	0	0	
0	0	0	0	0	536	564	0	0	0	0	
1	0	0	0	0	535	562	0	0	0	0	
2	0	0	0	0	534	560	0	0	0	0	
3	0	0	0	0	533	558	0	0	0	0	
4	0	0	0	0	533	557	0	0	0	0	
5	0	0	0	0	532	556	0	0	0	0	
6	0	0	0	0	533	555	0	0	0	0	
7	0	0	0	0	533	555	0	0	0	0	
8	0	0	0	0	535	556	0	0	0	0	
9	0	0	0	0	536	557	0	0	0	0	
10	0	0	0	0	537	559	0	0	0	0	
11	0	0	0	0	538	560	0	0	0	0	
12	0	0	0	0	539	561	0	0	0	0	
13	0	0	0	0	540	562	0	0	0	0	
14	0	0	0	0	540	562	0	0	0	0	
15	0	0	0	0	539	561	0	0	0	0	
0	0	0	0	0	539	561	0	0	0	0	
1	0	0	0	0	538	559	0	0	0	0	
2	0	0	0	0	536	557	0	0	0	0	
3	0	0	0	0	534	555	0	0	0	0	
4	0	0	0	0	532	553	0	0	0	0	
5	0	0	0	0	531	552	0	0	0	0	
6	0	0	0	0	529	550	0	0	0	0	
7	0	0	0	0	528	549	0	0	0	0	
8	0	0	0	0	527	548	0	0	0	0	
9	0	0	0	0	526	548	0	0	0	0	
10	0	0	0	0	527	549	0	0	0	0	
11	0	0	0	0	527	550	0	0	0	0	
12	0	0	0	0	528	552	0	0	0	0	
13	0	0	0	0	530	554	0	0	0	0	
14	0	0	0	0	531	556	0	0	0	0	
15	0	0	0	0	534	559	0	0	0	0	
0	0	0	0	0	536	561	0	0	0	0	
1	0	0	0	0	537	563	0	0	0	0	
2	0	0	0	0	540	565	0	0	0	0	
3	0	0	0	0	540	566	0	0	0	0	
4	0	0	0	0	542	566	0	0	0	0	
5	0	0	0	0	542	566	0	0	0	0	
6	0	0	0	0	542	565	0	0	0	0	
7	0	0	0	0	540	564	0	0	0	0	
8	0	0	0	0	539	562	0	0	0	0	
9	0	0	0	0	537	560	0	0	0	0	
10	0	0	0	0	536	559	0	0	0	0	
11	0	0	0	0	534	558	0	0	0	0	
12	0	0	0	0	534	557	0	0	0	0	
13	0	0	0	0	532	556	0	0	0	0	
14	0	0	0	0	532	557	0	0	0	0	
15	0	0	0	0	532	557	0	0	0	0	
0	0	0	0	0	532	558	0	0	0	0	
1	0	0	0	0	532	559	0	0	0	0	
2	0	0	0	0	533	560	0	0	0	0	
3	0	0	0	0	535	561	0	0	0	0	
4	0	0	0	0	535	562	0	0	0	0	
5	0	0	0	0	536	563	0	0	0	0	
6	0	0	0	0	536	563	0	0	0	0	
7	0	0	0	0	535	562	0	0	0	0	
8	0	0	0	0	535	562	0	0	0	0	
9	0	0	0	0	534	560	0	0	0	0	
10	0	0	0	0	532	558	0	0	0	0	
11	0	0	0	0	531	556	0	0	0	0	
12	0	0	0	0	528	553	0	0	0	0	
13	0	0	0	0	528	551	0	0	0	0	
14	0	0	0	0	526	550	0	0	0	0	
15	0	0	0	0	526	548	0	0	0	0	
0	0	0	0	0	524	547	0	0	0	0	
1	0	0	0	0	524	547	0	0	0	0	
2	0	0	0	0	524	547	0	0	0	0	
3	0	0	0	0	524	547	0	0	0	0	
4	0	0	0	0	524	548	0	0	0	0	
5	0	0	0	0	525	549	0	0	0	0	
6	0	0	0	0	526	550	0	0	0	0	
7	0	0	0	0	527	552	0	0	0	0	
8	0	0	0	0	529	553	0	0	0	0	
9	0	0	0	0	530	555	0	0	0	0	
10	0	0	0	0	531	556	0	0	0	0	
11	0	0	0	0	531	556	0	0	0	0	
12	0	0	0	0	532	556	0	0	0	0	
13	0	0	0	0	531	555	0	0	0	0	
14	0	0	0	0	531	554	0	0	0	0	
15	0	0	0	0	529	553	0	0	0	0	
0	0	0	0	0	527	551	0	0	0	0	
1	0	0	0	0	527	551	0	0	0	0	
2	0	0	0	0	526	551	0	0	0	0	
3	0	0	0	0	526	550	0	0	0	0	
4	0	0	0	0	525	551	0	0	0	0	
5	0	0	0	0	524	551	0	0	0	0	
6	0	0	0	0	525	552	0	0	0	0	
7	0	0	0	0	525	553	0	0	0	0	
8	0	0	0	0	525	554	0	0	0	0	
9	0	0	0	0	525	556	0	0	0	0	
10	0	0	0	0	525	556	0	0	0	0	
11	0	0	0	0	526	557	0	0	0	0	
12	0	0	0	0	527	558	0	0	0	0	
13	0	0	0	0	527	558	0	0	0	0	
14	0	0	0	0	527	557	0	0	0	0	
15	0	0	0	0	527	556	0	0	0	0	
0	0	0	0	0	527	555	0	0	0	0	
1	0	0	0	0	527	553	0	0	0	0	
2	0	0	0	0	526	551	0	0	0	0	
3	0	0	0	0	526	550	0	0	0	0	
4	0	0	0	0	524	548	0	0	0	0	
5	0	0	0	0	525	547	0	0	0	0	
6	0	0	0	0	524	546	0	0	0	0	
7	0	0	0	0	524	545	0	0	0	0	
8	0	0	0	0	522	545	0	0	0	0	
9	0	0	0	0	521	545	0	0	0	0	
10	0	0	0	0	521	546	0	0	0	0	
11	0	0	0	0	521	547	0	0	0	0	
12	0	0	0	0	520	547	0	0	0	0	
13	0	0	0	0	520	548	0	0	0	0	
14	0	0	0	0	520	549	0	0	0	0	
15	0	0	0	0	520	550	0	0	0	0	
0	0	0	0	0	520	550	0	0	0	0	
1	0	0	0	0	520	550	0	0	0	0	
2	0	0	0	0	520	549	0	0	0	0	
3	0	0	0	0	520	549	0	0	0	0	
4	0	0	0	0	521	548	0	0	0	0	
5	0	0	0	0	521	547	0	0	0	0	
6	0	0	0	0	520	545	0	0	0	0	
7	0	0	0	0	520	543	0	0	0	0	
8	0	0	0	0	520	542	0	0	0	0	
9	0	0	0	0	520	541	0	0	0	0	
10	0	0	0	0	519	540	0	0	0	0	
11	0	0	0	0	519	540	0	0	0	0	
12	0	0	0	0	518	540	0	0	0	0	
13	0	0	0	0	517	540	0	0	0	0	
14	0	0	0	0	516	540	0	0	0	0	
15	0	0	0	0	516	541	0	0	0	0	
0	0	0	0	0	515	542	0	0	0	0	
1	0	0	0	0	515	542	0	0	0	0	
2	0	0	0	0	515	543	0	0	0	0	
3	0	0	0	0	515	543	0	0	0	0	
4	0	0	0	0	515	544	0	0	0	0	
5	0	0	0	0	516	544	0	0	0	0	
6	0	0	0	0	516	544	0	0	0	0	
7	0	0	0	0	517	545	0	0	0	0	
8	0	0	0	0	518	545	0	0	0	0	
9	0	0	0	0	519	545	0	0	0	0	
10	0	0	0	0	519	546	0	0	0	0	
11	0	0	0	0	520	546	0	0	0	0	
12	0	0	0	0	520	546	0	0	0	0	
13	0	0	0	0	521	547	0	0	0	0	
14	0	0	0	0	521	547	0	0	0	0	
15	0	0	0	0	522	548	0	0	0	0	
0	0	0	0	0	523	548	0	0	0	0	
1	0	0	0	0	523	549	0	0	0	0	
2	0	0	0	0	524	551	0	0	0	0	
3	0	0	0	0	525	552	0	0	0	0	
4	0	0	0	0	526	553	0	0	0	0	
5	0	0	0	0	527	554	0	0	0	0	
6	0	0	0	0	527	555	0	0	0	0	
7	0	0	0	0	527	556	0	0	0	0	
8	0	0	0	0	527	555	0	0	0	0	
9	0	0	0	0	527	554	0	0	0	0	
10	0	0	0	0	526	552	0	0	0	0	
11	0	0	0	0	524	551	0	0	0	0	
12	0	0	0	0	524	550	0	0	0	0	
13	0	0	0	0	524	548	0	0	0	0	
14	0	0	0	0	523	547	0	0	0	0	
15	0	0	0	0	523	545	0	0	0	0	
0	0	0	0	0	523	544	0	0	0	0	
1	0	0	0	0	523	544	0	0	0	0	
2	0	0	0	0	523	544	0	0	0	0	
3	0	0	0	0	523	543	0	0	0	0	
4	0	0	0	0	522	543	0	0	0	0	
5	0	0	0	0	521	544	0	0	0	0	
6	0	0	0	0	521	545	0	0	0	0	
7	0	0	0	0	520	545	0	0	0	0	
8	0	0	0	0	520	546	0	0	0	0	
9	0	0	0	0	520	547	0	0	0	0	
10	0	0	0	0	520	548	0	0	0	0	
11	0	0	0	0	520	549	0	0	0	0	
12	0	0	0	0	521	550	0	0	0	0	
13	0	0	0	0	523	550	0	0	0	0	
14	0	0	0	0	524	550	0	0	0	0	
15	0	0	0	0	524	550	0	0	0	0	
0	0	0	0	0	526	550	0	0	0	0	
1	0	0	0	0	527	548	0	0	0	0	
2	0	0	0	0	528	547	0	0	0	0	
3	0	0	0	0	528	545	0	0	0	0	
4	0	0	0	0	528	544	0	0	0	0	
5	0	0	0	0	528	543	0	0	0	0	
6	0	0	0	0	527	541	0	0	0	0	
7	0	0	0	0	525	540	0	0	0	0	
8	0	0	0	0	524	539	0	0	0	0	
9	0	0	0	0	521	538	0	0	0	0	
10	0	0	0	0	521	538	0	0	0	0	
11	0	0	0	0	519	538	0	0	0	0	
12	0	0	0	0	517	537	0	0	0	0	
13	0	0	0	0	515	537	0	0	0	0	
14	0	0	0	0	514	537	0	0	0	0	
15	0	0	0	0	512	537	0	0	0	0	
0	0	0	0	0	511	537	0	0	0	0	
1	0	0	0	0	510	536	0	0	0	0	
2	0	0	0	0	508	536	0	0	0	0	
3	0	0	0	0	507	535	0	0	0	0	
4	0	0	0	0	507	535	0	0	0	0	
5	0	0	0	0	507	533	0	0	0	0	
6	0	0	0	0	507	532	0	0	0	0	
7	0	0	0	0	507	530	0	0	0	0	
8	0	0	0	0	506	528	0	0	0	0	
9	0	0	0	0	507	527	0	0	0	0	
10	0	0	0	0	507	526	0	0	0	0	
11	0	0	0	0	507	526	0	0	0	0	
12	0	0	0	0	507	526	0	0	0	0	
13	0	0	0	0	507	527	0	0	0	0	
14	0	0	0	0	508	527	0	0	0	0	
15	0	0	0	0	508	529	0	0	0	0	
0	0	0	0	0	508	530	0	0	0	0	
1	0	0	0	0	508	531	0	0	0	0	
2	0	0	0	0	508	534	0	0	0	0	
3	0	0	0	0	508	535	0	0	0	0	
4	0	0	0	0	509	536	0	0	0	0	
5	0	0	0	0	508	536	0	0	0	0	
6	0	0	0	0	507	536	0	0	0	0	
7	0	0	0	0	507	536	0	0	0	0	
8	0	0	0	0	508	535	0	0	0	0	
9	0	0	0	0	508	534	0	0	0	0	
10	0	0	0	0	508	532	0	0	0	0	
11	0	0	0	0	508	531	0	0	0	0	
12	0	0	0	0	508	530	0	0	0	0	
13	0	0	0	0	509	529	0	0	0	0	
14	0	0	0	0	509	528	0	0	0	0	
15	0	0	0	0	510	528	0	0	0	0	
0	0	0	0	0	510	528	0	0	0	0	
1	0	0	0	0	511	530	0	0	0	0	
2	0	0	0	0	511	531	0	0	0	0	
3	0	0	0	0	511	533	0	0	0	0	
4	0	0	0	0	511	535	0	0	0	0	
5	0	0	0	0	511	537	0	0	0	0	
6	0	0	0	0	511	539	0	0	0	0	
7	0	0	0	0	512	541	0	0	0	0	
8	0	0	0	0	512	542	0	0	0	0	
9	0	0	0	0	511	542	0	0	0	0	
10	0	0	0	0	511	542	0	0	0	0	
11	0	0	0	0	512	542	0	0	0	0	
12	0	0	0	0	511	541	0	0	0	0	
13	0	0	0	0	511	540	0	0	0	0	
14	0	0	0	0	510	537	0	0	0	0	
15	0	0	0	0	509	535	0	0	0	0	
0	0	0	0	0	508	532	0	0	0	0	
1	0	0	0	0	507	530	0	0	0	0	
2	0	0	0	0	505	527	0	0	0	0	
3	0	0	0	0	504	526	0	0	0	0	
4	0	0	0	0	503	525	0	0	0	0	
5	0	0	0	0	502	524	0	0	0	0	
6	0	0	0	0	503	524	0	0	0	0	
7	0	0	0	0	503	526	0	0	0	0	
8	0	0	0	0	504	527	0	0	0	0	
9	0	0	0	0	505	529	0	0	0	0	
10	0	0	0	0	507	531	0	0	0	0	
11	0	0	0	0	509	534	0	0	0	0	
12	0	0	0	0	511	536	0	0	0	0	
13	0	0	0	0	513	538	0	0	0	0	
14	0	0	0	0	515	540	0	0	0	0	
15	0	0	0	0	517	541	0	0	0	0	
0	0	0	0	0	519	542	0	0	0	0	
1	0	0	0	0	520	543	0	0	0	0	
2	0	0	0	0	520	543	0	0	0	0	
3	0	0	0	0	520	542	0	0	0	0	
4	0	0	0	0	520	542	0	0	0	0	
5	0	0	0	0	519	540	0	0	0	0	
6	0	0	0	0	518	540	0	0	0	0	
7	0	0	0	0	516	539	0	0	0	0	
8	0	0	0	0	515	537	0	0	0	0	
9	0	0	0	0	514	537	0	0	0	0	
10	0	0	0	0	513	536	0	0	0	0	
11	0	0	0	0	512	536	0	0	0	0	
12	0	0	0	0	511	536	0	0	0	0	
13	0	0	0	0	510	536	0	0	0	0	
14	0	0	0	0	510	536	0	0	0	0	
15	0	0	0	0	511	536	0	0	0	0	
0	0	0	0	0	511	536	0	0	0	0	
1	0	0	0	0	512	536	0	0	0	0	
2	0	0	0	0	512	535	0	0	0	0	
3	0	0	0	0	512	535	0	0	0	0	
4	0	0	0	0	512	533	0	0	0	0	
5	0	0	0	0	511	531	0	0	0	0	
6	0	0	0	0	510	529	0	0	0	0	
7	0	0	0	0	508	527	0	0	0	0	
8	0	0	0	0	505	524	0	0	0	0	
9	0	0	0	0	502	522	0	0	0	0	
10	0	0	0	0	499	519	0	0	0	0	
11	0	0	0	0	495	515	0	0	0	0	
12	0	0	0	0	489	511	0	0	0	0	
13	0	0	0	0	484	508	0	0	0	0	
14	0	0	0	0	479	503	0	0	0	0	
15	0	0	0	0	472	498	0	0	0	0	
0	0	0	0	0	466	493	0	0	0	0	
1	0	0	0	0	459	487	0	0	0	0	
2	0	0	0	0	452	482	0	0	0	0	
3	0	0	0	0	446	476	0	0	0	0	
4	0	0	0	0	439	468	0	0	0	0	
5	0	0	0	0	432	461	0	0	0	0	
6	0	0	0	0	425	452	0	0	0	0	
7	0	0	0	0	417	444	0	0	0	0	
8	0	0	0	0	409	435	0	0	0	0	
9	0	0	0	0	400	424	0	0	0	0	
10	0	0	0	0	390	413	0	0	0	0	
11	0	0	0	0	379	402	0	0	0	0	
12	0	0	0	0	367	389	0	0	0	0	
13	0	0	0	0	355	377	0	0	0	0	
14	0	0	0	0	342	363	0	0	0	0	
15	0	0	0	0	329	351	0	0	0	0	
0	0	0	0	0	317	338	0	0	0	0	
1	0	0	0	0	305	327	0	0	0	0	
2	0	0	0	0	295	318	0	0	0	0	
3	0	0	0	0	288	312	0	0	0	0	
4	0	0	0	0	284	308	0	0	0	0	
5	0	0	0	0	284	308	0	0	0	0	
6	0	0	0	0	286	311	0	0	0	0	
7	0	0	0	0	293	318	0	0	0	0	
8	0	0	0	0	305	328	0	0	0	0	
9	0	0	0	0	319	342	0	0	0	0	
10	0	0	0	0	337	358	0	0	0	0	
11	0	0	0	0	357	376	0	0	0	0	
12	0	0	0	0	380	396	0	0	0	0	
13	0	0	0	0	403	416	0	0	0	0	
14	0	0	0	0	427	437	0	0	0	0	
15	0	0	0	0	450	456	0	0	0	0	
0	0	0	0	0	471	476	0	0	0	0	
1	0	0	0	0	491	494	0	0	0	0	
2	0	0	0	0	508	510	0	0	0	0	
3	0	0	0	0	522	524	0	0	0	0	
4	0	0	0	0	534	536	0	0	0	0	
5	0	0	0	0	542	546	0	0	0	0	
6	0	0	0	0	548	554	0	0	0	0	
7	0	0	0	0	551	559	0	0	0	0	
8	0	0	0	0	551	563	0	0	0	0	
9	0	0	0	0	550	564	0	0	0	0	
10	0	0	0	0	545	564	0	0	0	0	
11	0	0	0	0	540	562	0	0	0	0	
12	0	0	0	0	534	558	0	0	0	0	
13	0	0	0	0	528	554	0	0	0	0	
14	0	0	0	0	521	550	0	0	0	0	
15	0	0	0	0	515	544	0	0	0	0	
0	0	0	0	0	510	540	0	0	0	0	
1	0	0	0	0	506	536	0	0	0	0	
2	0	0	0	0	504	532	0	0	0	0	
3	0	0	0	0	501	529	0	0	0	0	
4	0	0	0	0	502	528	0	0	0	0	
5	0	0	0	0	503	528	0	0	0	0	
6	0	0	0	0	504	528	0	0	0	0	
7	0	0	0	0	507	529	0	0	0	0	
8	0	0	0	0	510	531	0	0	0	0	
9	0	0	0	0	513	534	0	0	0	0	
10	0	0	0	0	518	538	0	0	0	0	
11	0	0	0	0	522	542	0	0	0	0	
12	0	0	0	0	526	546	0	0	0	0	
13	0	0	0	0	529	551	0	0	0	0	
14	0	0	0	0	532	554	0	0	0	0	
15	0	0	0	0	535	558	0	0	0	0	
0	0	0	0	0	536	560	0	0	0	0	
1	0	0	0	0	536	561	0	0	0	0	
2	0	0	0	0	536	562	0	0	0	0	
3	0	0	0	0	535	562	0	0	0	0	
4	0	0	0	0	534	561	0	0	0	0	
5	0	0	0	0	532	559	0	0	0	0	
6	0	0	0	0	530	557	0	0	0	0	
7	0	0	0	0	528	555	0	0	0	0	
8	0	0	0	0	526	553	0	0	0	0	
9	0	0	0	0	525	551	0	0	0	0	
10	0	0	0	0	524	550	0	0	0	0	
11	0	0	0	0	523	549	0	0	0	0	
12	0	0	0	0	523	548	0	0	0	0	
13	0	0	0	0	523	549	0	0	0	0	
14	0	0	0	0	524	550	0	0	0	0	
15	0	0	0	0	524	550	0	0	0	0	
0	0	0	0	0	525	551	0	0	0	0	
1	0	0	0	0	525	552	0	0	0	0	
2	0	0	0	0	525	553	0	0	0	0	
3	0	0	0	0	526	553	0	0	0	0	
4	0	0	0	0	526	553	0	0	0	0	
5	0	0	0	0	526	553	0	0	0	0	
6	0	0	0	0	526	552	0	0	0	0	
7	0	0	0	0	525	551	0	0	0	0	
8	0	0	0	0	525	550	0	0	0	0	
9	0	0	0	0	524	547	0	0	0	0	
10	0	0	0	0	523	546	0	0	0	0	
11	0	0	0	0	522	545	0	0	0	0	
12	0	0	0	0	520	543	0	0	0	0	
13	0	0	0	0	519	542	0	0	0	0	
14	0	0	0	0	518	541	0	0	0	0	
15	0	0	0	0	517	541	0	0	0	0	
0	0	0	0	0	516	541	0	0	0	0	
1	0	0	0	0	516	542	0	0	0	0	
2	0	0	0	0	517	543	0	0	0	0	
3	0	0	0	0	518	545	0	0	0	0	
4	0	0	0	0	519	547	0	0	0	0	
5	0	0	0	0	521	548	0	0	0	0	
6	0	0	0	0	521	549	0	0	0	0	
7	0	0	0	0	523	550	0	0	0	0	
8	0	0	0	0	524	551	0	0	0	0	
9	0	0	0	0	525	551	0	0	0	0	
10	0	0	0	0	526	551	0	0	0	0	
11	0	0	0	0	527	551	0	0	0	0	
12	0	0	0	0	527	549	0	0	0	0	
13	0	0	0	0	526	547	0	0	0	0	
14	0	0	0	0	526	545	0	0	0	0	
15	0	0	0	0	524	543	0	0	0	0	
0	0	0	0	0	523	541	0	0	0	0	
1	0	0	0	0	521	539	0	0	0	0	
2	0	0	0	0	519	537	0	0	0	0	
3	0	0	0	0	518	535	0	0	0	0	
4	0	0	0	0	516	534	0	0	0	0	
5	0	0	0	0	514	533	0	0	0	0	
6	0	0	0	0	513	533	0	0	0	0	
7	0	0	0	0	512	533	0	0	0	0	
8	0	0	0	0	511	534	0	0	0	0	
9	0	0	0	0	510	534	0	0	0	0	
10	0	0	0	0	511	536	0	0	0	0	
11	0	0	0	0	511	536	0	0	0	0	
12	0	0	0	0	512	537	0	0	0	0	
13	0	0	0	0	512	538	0	0	0	0	
14	0	0	0	0	513	537	0	0	0	0	
15	0	0	0	0	514	537	0	0	0	0	
0	0	0	0	0	515	537	0	0	0	0	
1	0	0	0	0	515	536	0	0	0	0	
2	0	0	0	0	515	535	0	0	0	0	
3	0	0	0	0	515	533	0	0	0	0	
4	0	0	0	0	515	532	0	0	0	0	
5	0	0	0	0	515	531	0	0	0	0	
6	0	0	0	0	515	530	0	0	0	0	
7	0	0	0	0	515	530	0	0	0	0	
8	0	0	0	0	514	530	0	0	0	0	
9	0	0	0	0	515	532	0	0	0	0	
10	0	0	0	0	515	534	0	0	0	0	
11	0	0	0	0	516	536	0	0	0	0	
12	0	0	0	0	516	538	0	0	0	0	
13	0	0	0	0	517	540	0	0	0	0	
14	0	0	0	0	518	543	0	0	0	0	
15	0	0	0	0	519	545	0	0	0	0	
0	0	0	0	0	519	547	0	0	0	0	
1	0	0	0	0	520	548	0	0	0	0	
2	0	0	0	0	521	548	0	0	0	0	
3	0	0	0	0	521	548	0	0	0	0	
4	0	0	0	0	522	548	0	0	0	0	
5	0	0	0	0	521	546	0	0	0	0	
6	0	0	0	0	521	545	0	0	0	0	
7	0	0	0	0	521	543	0	0	0	0	
8	0	0	0	0	520	541	0	0	0	0	
9	0	0	0	0	520	539	0	0	0	0	
10	0	0	0	0	519	537	0	0	0	0	
11	0	0	0	0	519	536	0	0	0	0	
12	0	0	0	0	519	535	0	0	0	0	
13	0	0	0	0	518	535	0	0	0	0	
14	0	0	0	0	518	535	0	0	0	0	
15	0	0	0	0	518	535	0	0	0	0	
0	0	0	0	0	518	536	0	0	0	0	
1	0	0	0	0	517	536	0	0	0	0	
2	0	0	0	0	517	536	0	0	0	0	
3	0	0	0	0	516	536	0	0	0	0	
4	0	0	0	0	516	536	0	0	0	0	
5	0	0	0	0	515	535	0	0	0	0	
6	0	0	0	0	515	534	0	0	0	0	
7	0	0	0	0	513	532	0	0	0	0	
8	0	0	0	0	513	531	0	0	0	0	
9	0	0	0	0	513	529	0	0	0	0	
10	0	0	0	0	513	528	0	0	0	0	
11	0	0	0	0	513	527	0	0	0	0	
12	0	0	0	0	513	526	0	0	0	0	
13	0	0	0	0	514	526	0	0	0	0	
14	0	0	0	0	515	525	0	0	0	0	
15	0	0	0	0	515	525	0	0	0	0	
0	0	0	0	0	516	525	0	0	0	0	
1	0	0	0	0	516	525	0	0	0	0	
2	0	0	0	0	518	526	0	0	0	0	
3	0	0	0	0	519	526	0	0	0	0	
4	0	0	0	0	519	526	0	0	0	0	
5	0	0	0	0	519	526	0	0	0	0	
6	0	0	0	0	518	525	0	0	0	0	
7	0	0	0	0	519	525	0	0	0	0	
8	0	0	0	0	518	524	0	0	0	0	
9	0	0	0	0	517	522	0	0	0	0	
10	0	0	0	0	515	519	0	0	0	0	
11	0	0	0	0	513	517	0	0	0	0	
12	0	0	0	0	513	514	0	0	0	0	
13	0	0	0	0	511	511	0	0	0	0	
14	0	0	0	0	510	508	0	0	0	0	
15	0	0	0	0	509	505	0	0	0	0	
0	0	0	0	0	508	502	0	0	0	0	
1	0	0	0	0	509	500	0	0	0	0	
2	0	0	0	0	509	499	0	0	0	0	
3	0	0	0	0	509	499	0	0	0	0	
4	0	0	0	0	511	499	0	0	0	0	
5	0	0	0	0	511	499	0	0	0	0	
6	0	0	0	0	513	499	0	0	0	0	
7	0	0	0	0	515	501	0	0	0	0	
8	0	0	0	0	516	503	0	0	0	0	
9	0	0	0	0	519	504	0	0	0	0	
10	0	0	0	0	520	505	0	0	0	0	
11	0	0	0	0	522	507	0	0	0	0	
12	0	0	0	0	524	508	0	0	0	0	
13	0	0	0	0	526	508	0	0	0	0	
14	0	0	0	0	527	508	0	0	0	0	
15	0	0	0	0	527	507	0	0	0	0	
0	0	0	0	0	527	506	0	0	0	0	
1	0	0	0	0	527	505	0	0	0	0	
2	0	0	0	0	527	503	0	0	0	0	
3	0	0	0	0	526	501	0	0	0	0	
4	0	0	0	0	525	498	0	0	0	0	
5	0	0	0	0	524	496	0	0	0	0	
6	0	0	0	0	522	494	0	0	0	0	
7	0	0	0	0	519	492	0	0	0	0	
8	0	0	0	0	518	490	0	0	0	0	
9	0	0	0	0	515	487	0	0	0	0	
10	0	0	0	0	515	487	0	0	0	0	
11	0	0	0	0	513	486	0	0	0	0	
12	0	0	0	0	512	484	0	0	0	0	
13	0	0	0	0	510	483	0	0	0	0	
14	0	0	0	0	510	482	0	0	0	0	
15	0	0	0	0	510	481	0	0	0	0	
0	0	0	0	0	509	480	0	0	0	0	
1	0	0	0	0	510	480	0	0	0	0	
2	0	0	0	0	511	479	0	0	0	0	
3	0	0	0	0	512	479	0	0	0	0	
4	0	0	0	0	514	478	0	0	0	0	
5	0	0	0	0	515	478	0	0	0	0	
6	0	0	0	0	517	477	0	0	0	0	
7	0	0	0	0	519	476	0	0	0	0	
8	0	0	0	0	519	476	0	0	0	0	
9	0	0	0	0	520	475	0	0	0	0	
10	0	0	0	0	520	474	0	0	0	0	
11	0	0	0	0	520	473	0	0	0	0	
12	0	0	0	0	519	472	0	0	0	0	
13	0	0	0	0	518	472	0	0	0	0	
14	0	0	0	0	518	471	0	0	0	0	
15	0	0	0	0	516	470	0	0	0	0	
0	0	0	0	0	515	470	0	0	0	0	
1	0	0	0	0	515	470	0	0	0	0	
2	0	0	0	0	513	470	0	0	0	0	
3	0	0	0	0	513	470	0	0	0	0	
4	0	0	0	0	513	469	0	0	0	0	
5	0	0	0	0	513	469	0	0	0	0	
6	0	0	0	0	512	467	0	0	0	0	
7	0	0	0	0	512	466	0	0	0	0	
8	0	0	0	0	513	465	0	0	0	0	
9	0	0	0	0	513	463	0	0	0	0	
10	0	0	0	0	512	460	0	0	0	0	
11	0	0	0	0	512	457	0	0	0	0	
12	0	0	0	0	511	455	0	0	0	0	
13	0	0	0	0	512	453	0	0	0	0	
14	0	0	0	0	512	451	0	0	0	0	
15	0	0	0	0	512	449	0	0	0	0	
0	0	0	0	0	512	448	0	0	0	0	
1	0	0	0	0	512	448	0	0	0	0	
2	0	0	0	0	513	448	0	0	0	0	
3	0	0	0	0	513	449	0	0	0	0	
4	0	0	0	0	513	450	0	0	0	0	
5	0	0	0	0	513	451	0	0	0	0	
6	0	0	0	0	513	452	0	0	0	0	
7	0	0	0	0	513	452	0	0	0	0	
8	0	0	0	0	512	452	0	0	0	0	
9	0	0	0	0	511	451	0	0	0	0	
10	0	0	0	0	509	450	0	0	0	0	
11	0	0	0	0	508	448	0	0	0	0	
12	0	0	0	0	507	446	0	0	0	0	
13	0	0	0	0	505	443	0	0	0	0	
14	0	0	0	0	503	440	0	0	0	0	
15	0	0	0	0	501	436	0	0	0	0	
0	0	0	0	0	500	433	0	0	0	0	
1	0	0	0	0	499	431	0	0	0	0	
2	0	0	0	0	499	430	0	0	0	0	
3	0	0	0	0	499	428	0	0	0	0	
4	0	0	0	0	499	428	0	0	0	0	
5	0	0	0	0	499	428	0	0	0	0	
6	0	0	0	0	500	428	0	0	0	0	
7	0	0	0	0	500	429	0	0	0	0	
8	0	0	0	0	500	429	0	0	0	0	
9	0	0	0	0	499	430	0	0	0	0	
10	0	0	0	0	499	431	0	0	0	0	
11	0	0	0	0	500	431	0	0	0	0	
12	0	0	0	0	500	431	0	0	0	0	
13	0	0	0	0	499	431	0	0	0	0	
14	0	0	0	0	498	429	0	0	0	0	
15	0	0	0	0	496	427	0	0	0	0	
0	0	0	0	0	495	425	0	0	0	0	
1	0	0	0	0	494	423	0	0	0	0	
2	0	0	0	0	492	421	0	0	0	0	
3	0	0	0	0	491	418	0	0	0	0	
4	0	0	0	0	489	416	0	0	0	0	
5	0	0	0	0	488	415	0	0	0	0	
6	0	0	0	0	487	414	0	0	0	0	
7	0	0	0	0	487	414	0	0	0	0	
8	0	0	0	0	487	415	0	0	0	0	
9	0	0	0	0	487	416	0	0	0	0	
10	0	0	0	0	488	417	0	0	0	0	
11	0	0	0	0	490	420	0	0	0	0	
12	0	0	0	0	491	422	0	0	0	0	
13	0	0	0	0	492	424	0	0	0	0	
14	0	0	0	0	493	425	0	0	0	0	
15	0	0	0	0	494	427	0	0	0	0	
0	0	0	0	0	495	428	0	0	0	0	
1	0	0	0	0	496	428	0	0	0	0	
2	0	0	0	0	496	428	0	0	0	0	
3	0	0	0	0	496	428	0	0	0	0	
4	0	0	0	0	497	427	0	0	0	0	
5	0	0	0	0	496	426	0	0	0	0	
6	0	0	0	0	496	424	0	0	0	0	
7	0	0	0	0	495	422	0	0	0	0	
8	0	0	0	0	494	420	0	0	0	0	
9	0	0	0	0	492	418	0	0	0	0	
10	0	0	0	0	491	416	0	0	0	0	
11	0	0	0	0	489	415	0	0	0	0	
12	0	0	0	0	487	414	0	0	0	0	
13	0	0	0	0	486	413	0	0	0	0	
14	0	0	0	0	484	414	0	0	0	0	
15	0	0	0	0	483	414	0	0	0	0	
0	0	0	0	0	482	415	0	0	0	0	
1	0	0	0	0	481	415	0	0	0	0	
2	0	0	0	0	480	416	0	0	0	0	
3	0	0	0	0	480	417	0	0	0	0	
4	0	0	0	0	480	417	0	0	0	0	
5	0	0	0	0	480	418	0	0	0	0	
6	0	0	0	0	479	417	0	0	0	0	
7	0	0	0	0	479	417	0	0	0	0	
8	0	0	0	0	478	417	0	0	0	0	
9	0	0	0	0	478	416	0	0	0	0	
10	0	0	0	0	478	416	0	0	0	0	
11	0	0	0	0	478	415	0	0	0	0	
12	0	0	0	0	478	415	0	0	0	0	
13	0	0	0	0	478	415	0	0	0	0	
14	0	0	0	0	479	415	0	0	0	0	
15	0	0	0	0	479	415	0	0	0	0	
0	0	0	0	0	479	417	0	0	0	0	
1	0	0	0	0	480	419	0	0	0	0	
2	0	0	0	0	481	421	0	0	0	0	
3	0	0	0	0	481	423	0	0	0	0	
4	0	0	0	0	482	427	0	0	0	0	
5	0	0	0	0	482	429	0	0	0	0	
6	0	0	0	0	483	432	0	0	0	0	
7	0	0	0	0	483	434	0	0	0	0	
8	0	0	0	0	483	435	0	0	0	0	
9	0	0	0	0	483	436	0	0	0	0	
10	0	0	0	0	482	435	0	0	0	0	
11	0	0	0	0	482	435	0	0	0	0	
12	0	0	0	0	482	433	0	0	0	0	
13	0	0	0	0	481	431	0	0	0	0	
14	0	0	0	0	481	429	0	0	0	0	
15	0	0	0	0	480	426	0	0	0	0	
0	0	0	0	0	480	424	0	0	0	0	
1	0	0	0	0	480	422	0	0	0	0	
2	0	0	0	0	479	420	0	0	0	0	
3	0	0	0	0	479	419	0	0	0	0	
4	0	0	0	0	478	417	0	0	0	0	
5	0	0	0	0	478	417	0	0	0	0	
6	0	0	0	0	478	418	0	0	0	0	
7	0	0	0	0	478	418	0	0	0	0	
8	0	0	0	0	478	419	0	0	0	0	
9	0	0	0	0	477	420	0	0	0	0	
10	0	0	0	0	477	422	0	0	0	0	
11	0	0	0	0	477	423	0	0	0	0	
12	0	0	0	0	476	423	0	0	0	0	
13	0	0	0	0	476	423	0	0	0	0	
14	0	0	0	0	475	423	0	0	0	0	
15	0	0	0	0	475	423	0	0	0	0	
0	0	0	0	0	474	423	0	0	0	0	
1	0	0	0	0	473	422	0	0	0	0	
2	0	0	0	0	473	420	0	0	0	0	
3	0	0	0	0	472	419	0	0	0	0	
4	0	0	0	0	472	418	0	0	0	0	
5	0	0	0	0	471	417	0	0	0	0	
6	0	0	0	0	470	417	0	0	0	0	
7	0	0	0	0	470	417	0	0	0	0	
8	0	0	0	0	470	417	0	0	0	0	
9	0	0	0	0	470	419	0	0	0	0	
10	0	0	0	0	470	420	0	0	0	0	
11	0	0	0	0	471	422	0	0	0	0	
12	0	0	0	0	471	424	0	0	0	0	
13	0	0	0	0	472	427	0	0	0	0	
14	0	0	0	0	473	429	0	0	0	0	
15	0	0	0	0	474	431	0	0	0	0	
0	0	0	0	0	475	432	0	0	0	0	
1	0	0	0	0	475	433	0	0	0	0	
2	0	0	0	0	476	433	0	0	0	0	
3	0	0	0	0	476	433	0	0	0	0	
4	0	0	0	0	476	432	0	0	0	0	
5	0	0	0	0	476	432	0	0	0	0	
6	0	0	0	0	476	431	0	0	0	0	
7	0	0	0	0	476	430	0	0	0	0	
8	0	0	0	0	476	429	0	0	0	0	
9	0	0	0	0	477	429	0	0	0	0	
10	0	0	0	0	477	428	0	0	0	0	
11	0	0	0	0	477	428	0	0	0	0	
12	0	0	0	0	478	429	0	0	0	0	
13	0	0	0	0	478	429	0	0	0	0	
14	0	0	0	0	479	431	0	0	0	0	
15	0	0	0	0	478	432	0	0	0	0	
0	0	0	0	0	479	434	0	0	0	0	
1	0	0	0	0	478	435	0	0	0	0	
2	0	0	0	0	478	436	0	0	0	0	
3	0	0	0	0	478	438	0	0	0	0	
4	0	0	0	0	477	438	0	0	0	0	
5	0	0	0	0	476	438	0	0	0	0	
6	0	0	0	0	475	437	0	0	0	0	
7	0	0	0	0	474	436	0	0	0	0	
8	0	0	0	0	474	435	0	0	0	0	
9	0	0	0	0	473	434	0	0	0	0	
10	0	0	0	0	472	432	0	0	0	0	
11	0	0	0	0	472	431	0	0	0	0	
12	0	0	0	0	472	430	0	0	0	0	
13	0	0	0	0	472	429	0	0	0	0	
14	0	0	0	0	473	429	0	0	0	0	
15	0	0	0	0	474	429	0	0	0	0	
0	0	0	0	0	475	430	0	0	0	0	
1	0	0	0	0	476	431	0	0	0	0	
2	0	0	0	0	477	433	0	0	0	0	
3	0	0	0	0	478	435	0	0	0	0	
4	0	0	0	0	479	437	0	0	0	0	
5	0	0	0	0	480	439	0	0	0	0	
6	0	0	0	0	481	441	0	0	0	0	
7	0	0	0	0	482	444	0	0	0	0	
8	0	0	0	0	483	445	0	0	0	0	
9	0	0	0	0	484	446	0	0	0	0	
10	0	0	0	0	484	448	0	0	0	0	
11	0	0	0	0	485	447	0	0	0	0	
12	0	0	0	0	486	447	0	0	0	0	
13	0	0	0	0	486	446	0	0	0	0	
14	0	0	0	0	485	445	0	0	0	0	
15	0	0	0	0	485	444	0	0	0	0	
0	0	0	0	0	485	442	0	0	0	0	
1	0	0	0	0	484	441	0	0	0	0	
2	0	0	0	0	484	441	0	0	0	0	
3	0	0	0	0	484	440	0	0	0	0	
4	0	0	0	0	483	440	0	0	0	0	
5	0	0	0	0	483	441	0	0	0	0	
6	0	0	0	0	483	443	0	0	0	0	
7	0	0	0	0	483	444	0	0	0	0	
8	0	0	0	0	482	445	0	0	0	0	
9	0	0	0	0	482	446	0	0	0	0	
10	0	0	0	0	481	447	0	0	0	0	
11	0	0	0	0	481	448	0	0	0	0	
12	0	0	0	0	481	448	0	0	0	0	
13	0	0	0	0	480	448	0	0	0	0	
14	0	0	0	0	480	447	0	0	0	0	
15	0	0	0	0	478	446	0	0	0	0	
0	0	0	0	0	478	445	0	0	0	0	
1	0	0	0	0	477	443	0	0	0	0	
2	0	0	0	0	476	441	0	0	0	0	
3	0	0	0	0	476	439	0	0	0	0	
4	0	0	0	0	475	437	0	0	0	0	
5	0	0	0	0	476	436	0	0	0	0	
6	0	0	0	0	476	435	0	0	0	0	
7	0	0	0	0	476	435	0	0	0	0	
8	0	0	0	0	477	436	0	0	0	0	
9	0	0	0	0	478	437	0	0	0	0	
10	0	0	0	0	479	439	0	0	0	0	
11	0	0	0	0	479	441	0	0	0	0	
12	0	0	0	0	480	443	0	0	0	0	
13	0	0	0	0	480	445	0	0	0	0	
14	0	0	0	0	480	447	0	0	0	0	
15	0	0	0	0	480	448	0	0	0	0	
0	0	0	0	0	480	450	0	0	0	0	
1	0	0	0	0	479	450	0	0	0	0	
2	0	0	0	0	478	449	0	0	0	0	
3	0	0	0	0	477	449	0	0	0	0	
4	0	0	0	0	477	448	0	0	0	0	
5	0	0	0	0	476	447	0	0	0	0	
6	0	0	0	0	476	446	0	0	0	0	
7	0	0	0	0	476	444	0	0	0	0	
8	0	0	0	0	476	443	0	0	0	0	
9	0	0	0	0	476	442	0	0	0	0	
10	0	0	0	0	476	441	0	0	0	0	
11	0	0	0	0	476	441	0	0	0	0	
12	0	0	0	0	476	440	0	0	0	0	
13	0	0	0	0	476	440	0	0	0	0	
14	0	0	0	0	476	441	0	0	0	0	
15	0	0	0	0	476	443	0	0	0	0	
0	0	0	0	0	476	444	0	0	0	0	
1	0	0	0	0	476	446	0	0	0	0	
2	0	0	0	0	476	448	0	0	0	0	
3	0	0	0	0	477	450	0	0	0	0	
4	0	0	0	0	478	451	0	0	0	0	
5	0	0	0	0	478	452	0	0	0	0	
6	0	0	0	0	478	452	0	0	0	0	
7	0	0	0	0	478	451	0	0	0	0	
8	0	0	0	0	478	451	0	0	0	0	
9	0	0	0	0	478	449	0	0	0	0	
10	0	0	0	0	477	448	0	0	0	0	
11	0	0	0	0	476	446	0	0	0	0	
12	0	0	0	0	476	444	0	0	0	0	
13	0	0	0	0	476	442	0	0	0	0	
14	0	0	0	0	475	441	0	0	0	0	
15	0	0	0	0	475	440	0	0	0	0	
0	0	0	0	0	475	440	0	0	0	0	
1	0	0	0	0	475	441	0	0	0	0	
2	0	0	0	0	476	443	0	0	0	0	
3	0	0	0	0	476	444	0	0	0	0	
4	0	0	0	0	477	446	0	0	0	0	
5	0	0	0	0	479	449	0	0	0	0	
6	0	0	0	0	480	451	0	0	0	0	
7	0	0	0	0	482	454	0	0	0	0	
8	0	0	0	0	484	455	0	0	0	0	
9	0	0	0	0	486	456	0	0	0	0	
10	0	0	0	0	487	457	0	0	0	0	
11	0	0	0	0	488	457	0	0	0	0	
12	0	0	0	0	489	457	0	0	0	0	
13	0	0	0	0	489	457	0	0	0	0	
14	0	0	0	0	489	456	0	0	0	0	
15	0	0	0	0	488	455	0	0	0	0	
0	0	0	0	0	487	454	0	0	0	0	
1	0	0	0	0	487	454	0	0	0	0	
2	0	0	0	0	486	454	0	0	0	0	
3	0	0	0	0	484	454	0	0	0	0	
4	0	0	0	0	484	454	0	0	0	0	
5	0	0	0	0	483	454	0	0	0	0	
6	0	0	0	0	483	455	0	0	0	0	
7	0	0	0	0	483	455	0	0	0	0	
8	0	0	0	0	483	456	0	0	0	0	
9	0	0	0	0	484	457	0	0	0	0	
10	0	0	0	0	484	458	0	0	0	0	
11	0	0	0	0	485	459	0	0	0	0	
12	0	0	0	0	486	459	0	0	0	0	
13	0	0	0	0	487	459	0	0	0	0	
14	0	0	0	0	487	459	0	0	0	0	
15	0	0	0	0	487	459	0	0	0	0	
0	0	0	0	0	488	459	0	0	0	0	
1	0	0	0	0	488	457	0	0	0	0	
2	0	0	0	0	487	456	0	0	0	0	
3	0	0	0	0	487	455	0	0	0	0	
4	0	0	0	0	486	454	0	0	0	0	
5	0	0	0	0	486	453	0	0	0	0	
6	0	0	0	0	485	452	0	0	0	0	
7	0	0	0	0	483	451	0	0	0	0	
8	0	0	0	0	483	451	0	0	0	0	
9	0	0	0	0	481	450	0	0	0	0	
10	0	0	0	0	481	451	0	0	0	0	
11	0	0	0	0	480	451	0	0	0	0	
12	0	0	0	0	480	452	0	0	0	0	
13	0	0	0	0	480	453	0	0	0	0	
14	0	0	0	0	480	455	0	0	0	0	
15	0	0	0	0	480	456	0	0	0	0	
0	0	0	0	0	481	457	0	0	0	0	
1	0	0	0	0	482	458	0	0	0	0	
2	0	0	0	0	483	458	0	0	0	0	
3	0	0	0	0	483	457	0	0	0	0	
4	0	0	0	0	483	457	0	0	0	0	
5	0	0	0	0	483	456	0	0	0	0	
6	0	0	0	0	483	455	0	0	0	0	
7	0	0	0	0	483	453	0	0	0	0	
8	0	0	0	0	482	451	0	0	0	0	
9	0	0	0	0	481	449	0	0	0	0	
10	0	0	0	0	480	448	0	0	0	0	
11	0	0	0	0	479	447	0	0	0	0	
12	0	0	0	0	478	446	0	0	0	0	
13	0	0	0	0	477	445	0	0	0	0	
14	0	0	0	0	476	446	0	0	0	0	
15	0	0	0	0	475	446	0	0	0	0	
0	0	0	0	0	475	447	0	0	0	0	
1	0	0	0	0	475	448	0	0	0	0	
2	0	0	0	0	474	448	0	0	0	0	
3	0	0	0	0	475	449	0	0	0	0	
4	0	0	0	0	475	450	0	0	0	0	
5	0	0	0	0	475	450	0	0	0	0	
6	0	0	0	0	475	449	0	0	0	0	
7	0	0	0	0	475	449	0	0	0	0	
8	0	0	0	0	475	448	0	0	0	0	
9	0	0	0	0	475	447	0	0	0	0	
10	0	0	0	0	475	445	0	0	0	0	
11	0	0	0	0	475	443	0	0	0	0	
12	0	0	0	0	475	443	0	0	0	0	
13	0	0	0	0	476	443	0	0	0	0	
14	0	0	0	0	476	443	0	0	0	0	
15	0	0	0	0	476	443	0	0	0	0	
0	0	0	0	0	477	444	0	0	0	0	
1	0	0	0	0	478	446	0	0	0	0	
2	0	0	0	0	479	448	0	0	0	0	
3	0	0	0	0	479	451	0	0	0	0	
4	0	0	0	0	480	453	0	0	0	0	
5	0	0	0	0	481	455	0	0	0	0	
6	0	0	0	0	482	457	0	0	0	0	
7	0	0	0	0	483	459	0	0	0	0	
8	0	0	0	0	484	460	0	0	0	0	
9	0	0	0	0	485	460	0	0	0	0	
10	0	0	0	0	486	460	0	0	0	0	
11	0	0	0	0	486	460	0	0	0	0	
12	0	0	0	0	487	460	0	0	0	0	
13	0	0	0	0	487	459	0	0	0	0	
14	0	0	0	0	487	457	0	0	0	0	
15	0	0	0	0	487	456	0	0	0	0	
0	0	0	0	0	486	455	0	0	0	0	
1	0	0	0	0	487	454	0	0	0	0	
2	0	0	0	0	487	453	0	0	0	0	
3	0	0	0	0	487	453	0	0	0	0	
4	0	0	0	0	487	453	0	0	0	0	
5	0	0	0	0	487	453	0	0	0	0	
6	0	0	0	0	487	454	0	0	0	0	
7	0	0	0	0	487	455	0	0	0	0	
8	0	0	0	0	487	455	0	0	0	0	
9	0	0	0	0	487	455	0	0	0	0	
10	0	0	0	0	487	457	0	0	0	0	
11	0	0	0	0	487	458	0	0	0	0	
12	0	0	0	0	487	458	0	0	0	0	
13	0	0	0	0	487	458	0	0	0	0	
14	0	0	0	0	487	457	0	0	0	0	
15	0	0	0	0	486	455	0	0	0	0	
0	0	0	0	0	486	454	0	0	0	0	
1	0	0	0	0	485	452	0	0	0	0	
2	0	0	0	0	483	449	0	0	0	0	
3	0	0	0	0	483	447	0	0	0	0	
4	0	0	0	0	481	445	0	0	0	0	
5	0	0	0	0	481	444	0	0	0	0	
6	0	0	0	0	481	443	0	0	0	0	
7	0	0	0	0	480	442	0	0	0	0	
8	0	0	0	0	480	442	0	0	0	0	
9	0	0	0	0	480	443	0	0	0	0	
10	0	0	0	0	481	444	0	0	0	0	
11	0	0	0	0	481	447	0	0	0	0	
12	0	0	0	0	482	448	0	0	0	0	
13	0	0	0	0	483	451	0	0	0	0	
14	0	0	0	0	484	453	0	0	0	0	
15	0	0	0	0	485	455	0	0	0	0	
0	0	0	0	0	485	456	0	0	0	0	
1	0	0	0	0	486	457	0	0	0	0	
2	0	0	0	0	486	457	0	0	0	0	
3	0	0	0	0	485	456	0	0	0	0	
4	0	0	0	0	485	456	0	0	0	0	
5	0	0	0	0	483	454	0	0	0	0	
6	0	0	0	0	483	452	0	0	0	0	
7	0	0	0	0	481	450	0	0	0	0	
8	0	0	0	0	479	448	0	0	0	0	
9	0	0	0	0	479	446	0	0	0	0	
10	0	0	0	0	478	445	0	0	0	0	
11	0	0	0	0	477	443	0	0	0	0	
12	0	0	0	0	476	442	0	0	0	0	
13	0	0	0	0	475	441	0	0	0	0	
14	0	0	0	0	475	441	0	0	0	0	
15	0	0	0	0	475	441	0	0	0	0	
0	0	0	0	0	474	441	0	0	0	0	
1	0	0	0	0	472	440	0	0	0	0	
2	0	0	0	0	472	440	0	0	0	0	
3	0	0	0	0	470	440	0	0	0	0	
4	0	0	0	0	468	438	0	0	0	0	
5	0	0	0	0	465	435	0	0	0	0	
6	0	0	0	0	461	431	0	0	0	0	
7	0	0	0	0	455	425	0	0	0	0	
8	0	0	0	0	450	419	0	0	0	0	
9	0	0	0	0	444	412	0	0	0	0	
10	0	0	0	0	436	403	0	0	0	0	
11	0	0	0	0	429	394	0	0	0	0	
12	0	0	0	0	420	385	0	0	0	0	
13	0	0	0	0	412	376	0	0	0	0	
14	0	0	0	0	403	366	0	0	0	0	
15	0	0	0	0	395	358	0	0	0	0	
0	0	0	0	0	386	349	0	0	0	0	
1	0	0	0	0	377	342	0	0	0	0	
2	0	0	0	0	370	335	0	0	0	0	
3	0	0	0	0	362	327	0	0	0	0	
4	0	0	0	0	354	320	0	0	0	0	
5	0	0	0	0	345	312	0	0	0	0	
6	0	0	0	0	336	304	0	0	0	0	
7	0	0	0	0	327	295	0	0	0	0	
8	0	0	0	0	317	286	0	0	0	0	
9	0	0	0	0	307	276	0	0	0	0	
10	0	0	0	0	297	267	0	0	0	0	
11	0	0	0	0	288	257	0	0	0	0	
12	0	0	0	0	281	250	0	0	0	0	
13	0	0	0	0	277	244	0	0	0	0	
14	0	0	0	0	275	240	0	0	0	0	
15	0	0	0	0	276	240	0	0	0	0	
0	0	0	0	0	281	243	0	0	0	0	
1	0	0	0	0	290	250	0	0	0	0	
2	0	0	0	0	303	261	0	0	0	0	
3	0	0	0	0	319	275	0	0	0	0	
4	0	0	0	0	339	291	0	0	0	0	
5	0	0	0	0	360	311	0	0	0	0	
6	0	0	0	0	384	333	0	0	0	0	
7	0	0	0	0	408	356	0	0	0	0	
8	0	0	0	0	432	379	0	0	0	0	
9	0	0	0	0	454	401	0	0	0	0	
10	0	0	0	0	475	422	0	0	0	0	
11	0	0	0	0	494	441	0	0	0	0	
12	0	0	0	0	508	457	0	0	0	0	
13	0	0	0	0	519	470	0	0	0	0	
14	0	0	0	0	526	479	0	0	0	0	
15	0	0	0	0	529	485	0	0	0	0	
0	0	0	0	0	530	488	0	0	0	0	
1	0	0	0	0	528	488	0	0	0	0	
2	0	0	0	0	523	486	0	0	0	0	
3	0	0	0	0	518	482	0	0	0	0	
4	0	0	0	0	510	476	0	0	0	0	
5	0	0	0	0	504	470	0	0	0	0	
6	0	0	0	0	497	464	0	0	0	0	
7	0	0	0	0	492	458	0	0	0	0	
8	0	0	0	0	487	453	0	0	0	0	
9	0	0	0	0	484	449	0	0	0	0	
10	0	0	0	0	482	447	0	0	0	0	
11	0	0	0	0	482	446	0	0	0	0	
12	0	0	0	0	483	446	0	0	0	0	
13	0	0	0	0	485	447	0	0	0	0	
14	0	0	0	0	487	450	0	0	0	0	
15	0	0	0	0	491	452	0	0	0	0	
0	0	0	0	0	495	455	0	0	0	0	
1	0	0	0	0	497	457	0	0	0	0	
2	0	0	0	0	499	459	0	0	0	0	
3	0	0	0	0	501	461	0	0	0	0	
4	0	0	0	0	503	462	0	0	0	0	
5	0	0	0	0	503	462	0	0	0	0	
6	0	0	0	0	503	462	0	0	0	0	
7	0	0	0	0	502	461	0	0	0	0	
8	0	0	0	0	502	461	0	0	0	0	
9	0	0	0	0	501	460	0	0	0	0	
10	0	0	0	0	500	460	0	0	0	0	
11	0	0	0	0	499	460	0	0	0	0	
12	0	0	0	0	499	460	0	0	0	0	
13	0	0	0	0	498	460	0	0	0	0	
14	0	0	0	0	499	461	0	0	0	0	
15	0	0	0	0	498	462	0	0	0	0	
0	0	0	0	0	498	463	0	0	0	0	
1	0	0	0	0	498	464	0	0	0	0	
2	0	0	0	0	497	466	0	0	0	0	
3	0	0	0	0	497	466	0	0	0	0	
4	0	0	0	0	496	467	0	0	0	0	
5	0	0	0	0	496	467	0	0	0	0	
6	0	0	0	0	495	465	0	0	0	0	
7	0	0	0	0	495	465	0	0	0	0	
8	0	0	0	0	494	464	0	0	0	0	
9	0	0	0	0	494	462	0	0	0	0	
10	0	0	0	0	494	460	0	0	0	0	
11	0	0	0	0	493	458	0	0	0	0	
12	0	0	0	0	493	456	0	0	0	0	
13	0	0	0	0	494	455	0	0	0	0	
14	0	0	0	0	494	454	0	0	0	0	
15	0	0	0	0	494	453	0	0	0	0	
0	0	0	0	0	494	452	0	0	0	0	
1	0	0	0	0	495	453	0	0	0	0	
2	0	0	0	0	495	454	0	0	0	0	
3	0	0	0	0	496	455	0	0	0	0	
4	0	0	0	0	497	457	0	0	0	0	
5	0	0	0	0	497	459	0	0	0	0	
6	0	0	0	0	498	460	0	0	0	0	
7	0	0	0	0	499	461	0	0	0	0	
8	0	0	0	0	499	462	0	0	0	0	
9	0	0	0	0	499	463	0	0	0	0	
10	0	0	0	0	499	463	0	0	0	0	
11	0	0	0	0	498	462	0	0	0	0	
12	0	0	0	0	497	461	0	0	0	0	
13	0	0	0	0	496	459	0	0	0	0	
14	0	0	0	0	494	457	0	0	0	0	
15	0	0	0	0	493	455	0	0	0	0	
0	0	0	0	0	491	453	0	0	0	0	
1	0	0	0	0	490	452	0	0	0	0	
2	0	0	0	0	488	451	0	0	0	0	
3	0	0	0	0	488	450	0	0	0	0	
4	0	0	0	0	488	450	0	0	0	0	
5	0	0	0	0	488	450	0	0	0	0	
6	0	0	0	0	489	451	0	0	0	0	
7	0	0	0	0	491	453	0	0	0	0	
8	0	0	0	0	492	455	0	0	0	0	
9	0	0	0	0	493	456	0	0	0	0	
10	0	0	0	0	495	459	0	0	0	0	
11	0	0	0	0	496	460	0	0	0	0	
12	0	0	0	0	497	462	0	0	0	0	
13	0	0	0	0	497	462	0	0	0	0	
14	0	0	0	0	497	461	0	0	0	0	
15	0	0	0	0	496	460	0	0	0	0	
0	0	0	0	0	496	459	0	0	0	0	
1	0	0	0	0	495	456	0	0	0	0	
2	0	0	0	0	494	455	0	0	0	0	
3	0	0	0	0	493	452	0	0	0	0	
4	0	0	0	0	492	451	0	0	0	0	
5	0	0	0	0	492	449	0	0	0	0	
6	0	0	0	0	491	448	0	0	0	0	
7	0	0	0	0	491	448	0	0	0	0	
8	0	0	0	0	490	448	0	0	0	0	
9	0	0	0	0	491	449	0	0	0	0	
10	0	0	0	0	492	450	0	0	0	0	
11	0	0	0	0	492	452	0	0	0	0	
12	0	0	0	0	493	454	0	0	0	0	
13	0	0	0	0	494	455	0	0	0	0	
14	0	0	0	0	495	457	0	0	0	0	
15	0	0	0	0	495	459	0	0	0	0	
0	0	0	0	0	496	460	0	0	0	0	
1	0	0	0	0	496	460	0	0	0	0	
2	0	0	0	0	496	460	0	0	0	0	
3	0	0	0	0	495	460	0	0	0	0	
4	0	0	0	0	494	458	0	0	0	0	
5	0	0	0	0	494	457	0	0	0	0	
6	0	0	0	0	492	455	0	0	0	0	
7	0	0	0	0	491	453	0	0	0	0	
8	0	0	0	0	490	451	0	0	0	0	
9	0	0	0	0	489	449	0	0	0	0	
10	0	0	0	0	488	448	0	0	0	0	
11	0	0	0	0	487	446	0	0	0	0	
12	0	0	0	0	487	446	0	0	0	0	
13	0	0	0	0	486	445	0	0	0	0	
14	0	0	0	0	487	446	0	0	0	0	
15	0	0	0	0	488	448	0	0	0	0	
0	0	0	0	0	488	449	0	0	0	0	
1	0	0	0	0	489	450	0	0	0	0	
2	0	0	0	0	489	451	0	0	0	0	
3	0	0	0	0	491	453	0	0	0	0	
4	0	0	0	0	492	454	0	0	0	0	
5	0	0	0	0	492	455	0	0	0	0	
6	0	0	0	0	492	454	0	0	0	0	
7	0	0	0	0	491	454	0	0	0	0	
8	0	0	0	0	490	454	0	0	0	0	
9	0	0	0	0	489	452	0	0	0	0	
10	0	0	0	0	488	451	0	0	0	0	
11	0	0	0	0	487	449	0	0	0	0	
12	0	0	0	0	485	448	0	0	0	0	
13	0	0	0	0	484	446	0	0	0	0	
14	0	0	0	0	483	444	0	0	0	0	
15	0	0	0	0	482	443	0	0	0	0	
0	0	0	0	0	481	443	0	0	0	0	
1	0	0	0	0	481	443	0	0	0	0	
2	0	0	0	0	482	444	0	0	0	0	
3	0	0	0	0	483	446	0	0	0	0	
4	0	0	0	0	484	447	0	0	0	0	
5	0	0	0	0	486	448	0	0	0	0	
6	0	0	0	0	487	450	0	0	0	0	
7	0	0	0	0	488	451	0	0	0	0	
8	0	0	0	0	489	452	0	0	0	0	
9	0	0	0	0	489	451	0	0	0	0	
10	0	0	0	0	489	450	0	0	0	0	
11	0	0	0	0	488	448	0	0	0	0	
12	0	0	0	0	487	447	0	0	0	0	
13	0	0	0	0	487	444	0	0	0	0	
14	0	0	0	0	485	442	0	0	0	0	
15	0	0	0	0	483	440	0	0	0	0	
0	0	0	0	0	481	438	0	0	0	0	
1	0	0	0	0	480	437	0	0	0	0	
2	0	0	0	0	480	437	0	0	0	0	
3	0	0	0	0	479	438	0	0	0	0	
4	0	0	0	0	480	439	0	0	0	0	
5	0	0	0	0	480	440	0	0	0	0	
6	0	0	0	0	481	442	0	0	0	0	
7	0	0	0	0	482	444	0	0	0	0	
8	0	0	0	0	484	447	0	0	0	0	
9	0	0	0	0	486	449	0	0	0	0	
10	0	0	0	0	487	451	0	0	0	0	
11	0	0	0	0	489	452	0	0	0	0	
12	0	0	0	0	490	453	0	0	0	0	
13	0	0	0	0	491	453	0	0	0	0	
14	0	0	0	0	491	453	0	0	0	0	
15	0	0	0	0	490	452	0	0	0	0	
0	0	0	0	0	490	451	0	0	0	0	
1	0	0	0	0	489	450	0	0	0	0	
2	0	0	0	0	489	449	0	0	0	0	
3	0	0	0	0	488	447	0	0	0	0	
4	0	0	0	0	487	447	0	0	0	0	
5	0	0	0	0	487	447	0	0	0	0	
6	0	0	0	0	487	446	0	0	0	0	
7	0	0	0	0	486	446	0	0	0	0	
8	0	0	0	0	487	447	0	0	0	0	
9	0	0	0	0	486	447	0	0	0	0	
10	0	0	0	0	486	449	0	0	0	0	
11	0	0	0	0	487	450	0	0	0	0	
12	0	0	0	0	486	451	0	0	0	0	
13	0	0	0	0	486	452	0	0	0	0	
14	0	0	0	0	486	453	0	0	0	0	
15	0	0	0	0	486	454	0	0	0	0	
0	0	0	0	0	486	454	0	0	0	0	
1	0	0	0	0	486	454	0	0	0	0	
2	0	0	0	0	486	454	0	0	0	0	
3	0	0	0	0	486	454	0	0	0	0	
4	0	0	0	0	487	453	0	0	0	0	
5	0	0	0	0	487	452	0	0	0	0	
6	0	0	0	0	488	451	0	0	0	0	
7	0	0	0	0	489	450	0	0	0	0	
8	0	0	0	0	490	450	0	0	0	0	
9	0	0	0	0	491	449	0	0	0	0	
10	0	0	0	0	492	449	0	0	0	0	
11	0	0	0	0	493	450	0	0	0	0	
12	0	0	0	0	493	451	0	0	0	0	
13	0	0	0	0	494	451	0	0	0	0	
14	0	0	0	0	494	452	0	0	0	0	
15	0	0	0	0	494	453	0	0	0	0	
0	0	0	0	0	494	455	0	0	0	0	
1	0	0	0	0	494	456	0	0	0	0	
2	0	0	0	0	494	457	0	0	0	0	
3	0	0	0	0	494	458	0	0	0	0	
4	0	0	0	0	494	458	0	0	0	0	
5	0	0	0	0	494	459	0	0	0	0	
6	0	0	0	0	493	457	0	0	0	0	
7	0	0	0	0	493	457	0	0	0	0	
8	0	0	0	0	494	456	0	0	0	0	
9	0	0	0	0	493	455	0	0	0	0	
10	0	0	0	0	493	454	0	0	0	0	
11	0	0	0	0	493	451	0	0	0	0	
12	0	0	0	0	492	450	0	0	0	0	
13	0	0	0	0	493	450	0	0	0	0	
14	0	0	0	0	493	449	0	0	0	0	
15	0	0	0	0	493	448	0	0	0	0	
0	0	0	0	0	494	449	0	0	0	0	
1	0	0	0	0	494	450	0	0	0	0	
2	0	0	0	0	495	451	0	0	0	0	
3	0	0	0	0	496	453	0	0	0	0	
4	0	0	0	0	497	454	0	0	0	0	
5	0	0	0	0	497	455	0	0	0	0	
6	0	0	0	0	498	457	0	0	0	0	
7	0	0	0	0	499	458	0	0	0	0	
8	0	0	0	0	498	458	0	0	0	0	
9	0	0	0	0	498	459	0	0	0	0	
10	0	0	0	0	498	458	0	0	0	0	
11	0	0	0	0	496	457	0	0	0	0	
12	0	0	0	0	496	456	0	0	0	0	
13	0	0	0	0	494	454	0	0	0	0	
14	0	0	0	0	493	452	0	0	0	0	
15	0	0	0	0	491	450	0	0	0	0	
0	0	0	0	0	489	448	0	0	0	0	
1	0	0	0	0	489	447	0	0	0	0	
2	0	0	0	0	488	447	0	0	0	0	
3	0	0	0	0	487	446	0	0	0	0	
4	0	0	0	0	488	447	0	0	0	0	
5	0	0	0	0	488	448	0	0	0	0	
6	0	0	0	0	489	449	0	0	0	0	
7	0	0	0	0	490	451	0	0	0	0	
8	0	0	0	0	491	452	0	0	0	0	
9	0	0	0	0	491	454	0	0	0	0	
10	0	0	0	0	491	454	0	0	0	0	
11	0	0	0	0	491	455	0	0	0	0	
12	0	0	0	0	491	455	0	0	0	0	
13	0	0	0	0	490	455	0	0	0	0	
14	0	0	0	0	489	454	0	0	0	0	
15	0	0	0	0	487	451	0	0	0	0	
0	0	0	0	0	487	450	0	0	0	0	
1	0	0	0	0	485	447	0	0	0	0	
2	0	0	0	0	483	444	0	0	0	0	
3	0	0	0	0	483	441	0	0	0	0	
4	0	0	0	0	482	439	0	0	0	0	
5	0	0	0	0	481	437	0	0	0	0	
6	0	0	0	0	481	435	0	0	0	0	
7	0	0	0	0	481	435	0	0	0	0	
8	0	0	0	0	480	434	0	0	0	0	
9	0	0	0	0	480	434	0	0	0	0	
10	0	0	0	0	481	436	0	0	0	0	
11	0	0	0	0	482	438	0	0	0	0	
12	0	0	0	0	482	440	0	0	0	0	
13	0	0	0	0	484	442	0	0	0	0	
14	0	0	0	0	486	444	0	0	0	0	
15	0	0	0	0	487	447	0	0	0	0	
0	0	0	0	0	489	448	0	0	0	0	
1	0	0	0	0	491	449	0	0	0	0	
2	0	0	0	0	492	450	0	0	0	0	
3	0	0	0	0	493	450	0	0	0	0	
4	0	0	0	0	493	450	0	0	0	0	
5	0	0	0	0	493	449	0	0	0	0	
6	0	0	0	0	493	448	0	0	0	0	
7	0	0	0	0	492	446	0	0	0	0	
8	0	0	0	0	490	444	0	0	0	0	
9	0	0	0	0	488	443	0	0	0	0	
10	0	0	0	0	487	441	0	0	0	0	
11	0	0	0	0	485	440	0	0	0	0	
12	0	0	0	0	483	440	0	0	0	0	
13	0	0	0	0	481	440	0	0	0	0	
14	0	0	0	0	481	440	0	0	0	0	
15	0	0	0	0	481	441	0	0	0	0	
0	0	0	0	0	481	442	0	0	0	0	
1	0	0	0	0	481	443	0	0	0	0	
2	0	0	0	0	481	444	0	0	0	0	
3	0	0	0	0	483	446	0	0	0	0	
4	0	0	0	0	483	446	0	0	0	0	
5	0	0	0	0	483	446	0	0	0	0	
6	0	0	0	0	483	446	0	0	0	0	
7	0	0	0	0	483	445	0	0	0	0	
8	0	0	0	0	483	444	0	0	0	0	
9	0	0	0	0	483	442	0	0	0	0	
10	0	0	0	0	482	440	0	0	0	0	
11	0	0	0	0	482	438	0	0	0	0	
12	0	0	0	0	481	437	0	0	0	0	
13	0	0	0	0	481	435	0	0	0	0	
14	0	0	0	0	482	435	0	0	0	0	
15	0	0	0	0	482	434	0	0	0	0	
0	0	0	0	0	482	434	0	0	0	0	
1	0	0	0	0	482	435	0	0	0	0	
2	0	0	0	0	482	436	0	0	0	0	
3	0	0	0	0	482	437	0	0	0	0	
4	0	0	0	0	482	438	0	0	0	0	
5	0	0	0	0	481	440	0	0	0	0	
6	0	0	0	0	480	440	0	0	0	0	
7	0	0	0	0	480	441	0	0	0	0	
8	0	0	0	0	480	442	0	0	0	0	
9	0	0	0	0	479	442	0	0	0	0	
10	0	0	0	0	479	442	0	0	0	0	
11	0	0	0	0	478	441	0	0	0	0	
12	0	0	0	0	478	441	0	0	0	0	
13	0	0	0	0	478	440	0	0	0	0	
14	0	0	0	0	478	439	0	0	0	0	
15	0	0	0	0	478	438	0	0	0	0	
0	0	0	0	0	479	437	0	0	0	0	
1	0	0	0	0	480	437	0	0	0	0	
2	0	0	0	0	481	437	0	0	0	0	
3	0	0	0	0	482	436	0	0	0	0	
4	0	0	0	0	483	437	0	0	0	0	
5	0	0	0	0	484	437	0	0	0	0	
6	0	0	0	0	485	438	0	0	0	0	
7	0	0	0	0	487	440	0	0	0	0	
8	0	0	0	0	487	441	0	0	0	0	
9	0	0	0	0	487	442	0	0	0	0	
10	0	0	0	0	487	443	0	0	0	0	
11	0	0	0	0	487	444	0	0	0	0	
12	0	0	0	0	487	444	0	0	0	0	
13	0	0	0	0	486	444	0	0	0	0	
14	0	0	0	0	486	444	0	0	0	0	
15	0	0	0	0	484	443	0	0	0	0	
0	0	0	0	0	483	443	0	0	0	0	
1	0	0	0	0	483	442	0	0	0	0	
2	0	0	0	0	482	441	0	0	0	0	
3	0	0	0	0	480	440	0	0	0	0	
4	0	0	0	0	480	439	0	0	0	0	
5	0	0	0	0	480	438	0	0	0	0	
6	0	0	0	0	479	437	0	0	0	0	
7	0	0	0	0	479	437	0	0	0	0	
8	0	0	0	0	479	437	0	0	0	0	
9	0	0	0	0	479	436	0	0	0	0	
10	0	0	0	0	479	437	0	0	0	0	
11	0	0	0	0	480	438	0	0	0	0	
12	0	0	0	0	480	439	0	0	0	0	
13	0	0	0	0	481	440	0	0	0	0	
14	0	0	0	0	481	441	0	0	0	0	
15	0	0	0	0	482	443	0	0	0	0	
0	0	0	0	0	483	443	0	0	0	0	
1	0	0	0	0	483	444	0	0	0	0	
2	0	0	0	0	483	444	0	0	0	0	
3	0	0	0	0	483	445	0	0	0	0	
4	0	0	0	0	483	445	0	0	0	0	
5	0	0	0	0	483	444	0	0	0	0	
6	0	0	0	0	483	444	0	0	0	0	
7	0	0	0	0	482	442	0	0	0	0	
8	0	0	0	0	481	442	0	0	0	0	
9	0	0	0	0	481	441	0	0	0	0	
10	0	0	0	0	481	440	0	0	0	0	
11	0	0	0	0	480	440	0	0	0	0	
12	0	0	0	0	480	440	0	0	0	0	
13	0	0	0	0	480	440	0	0	0	0	
14	0	0	0	0	479	440	0	0	0	0	
15	0	0	0	0	479	440	0	0	0	0	
0	0	0	0	0	479	441	0	0	0	0	
1	0	0	0	0	478	441	0	0	0	0	
2	0	0	0	0	478	442	0	0	0	0	
3	0	0	0	0	478	443	0	0	0	0	
4	0	0	0	0	478	443	0	0	0	0	
5	0	0	0	0	477	443	0	0	0	0	
6	0	0	0	0	476	441	0	0	0	0	
7	0	0	0	0	476	440	0	0	0	0	
8	0	0	0	0	476	440	0	0	0	0	
9	0	0	0	0	476	438	0	0	0	0	
10	0	0	0	0	476	436	0	0	0	0	
11	0	0	0	0	476	435	0	0	0	0	
12	0	0	0	0	476	434	0	0	0	0	
13	0	0	0	0	477	435	0	0	0	0	
14	0	0	0	0	478	435	0	0	0	0	
15	0	0	0	0	479	435	0	0	0	0	
0	0	0	0	0	481	437	0	0	0	0	
1	0	0	0	0	482	437	0	0	0	0	
2	0	0	0	0	483	440	0	0	0	0	
3	0	0	0	0	485	441	0	0	0	0	
4	0	0	0	0	486	444	0	0	0	0	
5	0	0	0	0	486	445	0	0	0	0	
6	0	0	0	0	486	447	0	0	0	0	
7	0	0	0	0	486	448	0	0	0	0	
8	0	0	0	0	486	449	0	0	0	0	
9	0	0	0	0	486	449	0	0	0	0	
10	0	0	0	0	485	448	0	0	0	0	
11	0	0	0	0	483	448	0	0	0	0	
12	0	0	0	0	483	446	0	0	0	0	
13	0	0	0	0	482	444	0	0	0	0	
14	0	0	0	0	481	441	0	0	0	0	
15	0	0	0	0	479	439	0	0	0	0	
0	0	0	0	0	478	437	0	0	0	0	
1	0	0	0	0	477	434	0	0	0	0	
2	0	0	0	0	476	433	0	0	0	0	
3	0	0	0	0	475	431	0	0	0	0	
4	0	0	0	0	474	430	0	0	0	0	
5	0	0	0	0	474	431	0	0	0	0	
6	0	0	0	0	475	432	0	0	0	0	
7	0	0	0	0	476	433	0	0	0	0	
8	0	0	0	0	477	435	0	0	0	0	
9	0	0	0	0	478	436	0	0	0	0	
10	0	0	0	0	479	439	0	0	0	0	
11	0	0	0	0	480	441	0	0	0	0	
12	0	0	0	0	481	443	0	0	0	0	
13	0	0	0	0	482	444	0	0	0	0	
14	0	0	0	0	482	444	0	0	0	0	
15	0	0	0	0	482	445	0	0	0	0	
0	0	0	0	0	482	444	0	0	0	0	
1	0	0	0	0	482	443	0	0	0	0	
2	0	0	0	0	481	441	0	0	0	0	
3	0	0	0	0	480	440	0	0	0	0	
4	0	0	0	0	479	438	0	0	0	0	
5	0	0	0	0	478	436	0	0	0	0	
6	0	0	0	0	478	435	0	0	0	0	
7	0	0	0	0	476	435	0	0	0	0	
8	0	0	0	0	476	434	0	0	0	0	
9	0	0	0	0	475	435	0	0	0	0	
10	0	0	0	0	476	435	0	0	0	0	
11	0	0	0	0	476	436	0	0	0	0	
12	0	0	0	0	476	438	0	0	0	0	
13	0	0	0	0	476	438	0	0	0	0	
14	0	0	0	0	476	440	0	0	0	0	
15	0	0	0	0	477	440	0	0	0	0	
0	0	0	0	0	477	440	0	0	0	0	
1	0	0	0	0	477	440	0	0	0	0	
2	0	0	0	0	477	440	0	0	0	0	
3	0	0	0	0	477	440	0	0	0	0	
4	0	0	0	0	478	439	0	0	0	0	
5	0	0	0	0	478	438	0	0	0	0	
6	0	0	0	0	478	437	0	0	0	0	
7	0	0	0	0	478	436	0	0	0	0	
8	0	0	0	0	478	436	0	0	0	0	
9	0	0	0	0	479	435	0	0	0	0	
10	0	0	0	0	480	435	0	0	0	0	
11	0	0	0	0	480	435	0	0	0	0	
12	0	0	0	0	480	436	0	0	0	0	
13	0	0	0	0	480	437	0	0	0	0	
14	0	0	0	0	481	438	0	0	0	0	
15	0	0	0	0	481	440	0	0	0	0	
0	0	0	0	0	482	441	0	0	0	0	
1	0	0	0	0	482	443	0	0	0	0	
2	0	0	0	0	482	444	0	0	0	0	
3	0	0	0	0	483	444	0	0	0	0	
4	0	0	0	0	483	445	0	0	0	0	
5	0	0	0	0	483	444	0	0	0	0	
6	0	0	0	0	483	443	0	0	0	0	
7	0	0	0	0	482	441	0	0	0	0	
8	0	0	0	0	482	440	0	0	0	0	
9	0	0	0	0	481	438	0	0	0	0	
10	0	0	0	0	480	436	0	0	0	0	
11	0	0	0	0	479	434	0	0	0	0	
12	0	0	0	0	478	433	0	0	0	0	
13	0	0	0	0	477	432	0	0	0	0	
14	0	0	0	0	476	431	0	0	0	0	
15	0	0	0	0	475	431	0	0	0	0	
0	0	0	0	0	474	430	0	0	0	0	
1	0	0	0	0	473	432	0	0	0	0	
2	0	0	0	0	474	432	0	0	0	0	
3	0	0	0	0	474	433	0	0	0	0	
4	0	0	0	0	475	435	0	0	0	0	
5	0	0	0	0	476	437	0	0	0	0	
6	0	0	0	0	477	438	0	0	0	0	
7	0	0	0	0	478	440	0	0	0	0	
8	0	0	0	0	479	440	0	0	0	0	
9	0	0	0	0	480	441	0	0	0	0	
10	0	0	0	0	480	441	0	0	0	0	
11	0	0	0	0	481	440	0	0	0	0	
12	0	0	0	0	481	440	0	0	0	0	
13	0	0	0	0	481	439	0	0	0	0	
14	0	0	0	0	481	437	0	0	0	0	
15	0	0	0	0	480	436	0	0	0	0	
0	0	0	0	0	479	435	0	0	0	0	
1	0	0	0	0	478	434	0	0	0	0	
2	0	0	0	0	477	433	0	0	0	0	
3	0	0	0	0	476	432	0	0	0	0	
4	0	0	0	0	476	432	0	0	0	0	
5	0	0	0	0	475	433	0	0	0	0	
6	0	0	0	0	475	434	0	0	0	0	
7	0	0	0	0	475	434	0	0	0	0	
8	0	0	0	0	475	435	0	0	0	0	
9	0	0	0	0	475	436	0	0	0	0	
10	0	0	0	0	476	436	0	0	0	0	
11	0	0	0	0	476	436	0	0	0	0	
12	0	0	0	0	476	436	0	0	0	0	
13	0	0	0	0	476	435	0	0	0	0	
14	0	0	0	0	476	434	0	0	0	0	
15	0	0	0	0	476	432	0	0	0	0	
0	0	0	0	0	476	431	0	0	0	0	
1	0	0	0	0	475	429	0	0	0	0	
2	0	0	0	0	474	428	0	0	0	0	
3	0	0	0	0	473	427	0	0	0	0	
4	0	0	0	0	471	425	0	0	0	0	
5	0	0	0	0	470	425	0	0	0	0	
6	0	0	0	0	468	424	0	0	0	0	
7	0	0	0	0	467	424	0	0	0	0	
8	0	0	0	0	465	424	0	0	0	0	
9	0	0	0	0	464	425	0	0	0	0	
10	0	0	0	0	464	427	0	0	0	0	
11	0	0	0	0	464	428	0	0	0	0	
12	0	0	0	0	464	430	0	0	0	0	
13	0	0	0	0	465	432	0	0	0	0	
14	0	0	0	0	466	433	0	0	0	0	
15	0	0	0	0	468	435	0	0	0	0	
0	0	0	0	0	469	436	0	0	0	0	
1	0	0	0	0	471	436	0	0	0	0	
2	0	0	0	0	472	437	0	0	0	0	
3	0	0	0	0	473	436	0	0	0	0	
4	0	0	0	0	475	436	0	0	0	0	
5	0	0	0	0	475	435	0	0	0	0	
6	0	0	0	0	475	433	0	0	0	0	
7	0	0	0	0	475	432	0	0	0	0	
8	0	0	0	0	474	431	0	0	0	0	
9	0	0	0	0	473	430	0	0	0	0	
10	0	0	0	0	472	429	0	0	0	0	
11	0	0	0	0	472	429	0	0	0	0	
12	0	0	0	0	472	429	0	0	0	0	
13	0	0	0	0	471	430	0	0	0	0	
14	0	0	0	0	471	431	0	0	0	0	
15	0	0	0	0	472	432	0	0	0	0	
0	0	0	0	0	472	434	0	0	0	0	
1	0	0	0	0	472	435	0	0	0	0	
2	0	0	0	0	473	437	0	0	0	0	
3	0	0	0	0	474	438	0	0	0	0	
4	0	0	0	0	475	439	0	0	0	0	
5	0	0	0	0	476	439	0	0	0	0	
6	0	0	0	0	476	438	0	0	0	0	
7	0	0	0	0	476	437	0	0	0	0	
8	0	0	0	0	476	437	0	0	0	0	
9	0	0	0	0	474	435	0	0	0	0	
10	0	0	0	0	473	433	0	0	0	0	
11	0	0	0	0	471	432	0	0	0	0	
12	0	0	0	0	469	429	0	0	0	0	
13	0	0	0	0	467	428	0	0	0	0	
14	0	0	0	0	465	427	0	0	0	0	
15	0	0	0	0	464	427	0	0	0	0	
0	0	0	0	0	463	427	0	0	0	0	
1	0	0	0	0	462	428	0	0	0	0	
2	0	0	0	0	463	430	0	0	0	0	
3	0	0	0	0	464	431	0	0	0	0	
4	0	0	0	0	466	433	0	0	0	0	
5	0	0	0	0	468	435	0	0	0	0	
6	0	0	0	0	471	437	0	0	0	0	
7	0	0	0	0	473	439	0	0	0	0	
8	0	0	0	0	476	440	0	0	0	0	
9	0	0	0	0	478	441	0	0	0	0	
10	0	0	0	0	479	441	0	0	0	0	
11	0	0	0	0	480	441	0	0	0	0	
12	0	0	0	0	482	441	0	0	0	0	
13	0	0	0	0	482	440	0	0	0	0	
14	0	0	0	0	481	438	0	0	0	0	
15	0	0	0	0	480	435	0	0	0	0	
0	0	0	0	0	479	434	0	0	0	0	
1	0	0	0	0	478	432	0	0	0	0	
2	0	0	0	0	477	432	0	0	0	0	
3	0	0	0	0	476	432	0	0	0	0	
4	0	0	0	0	475	431	0	0	0	0	
5	0	0	0	0	474	432	0	0	0	0	
6	0	0	0	0	474	433	0	0	0	0	
7	0	0	0	0	475	435	0	0	0	0	
8	0	0	0	0	475	436	0	0	0	0	
9	0	0	0	0	475	438	0	0	0	0	
10	0	0	0	0	477	441	0	0	0	0	
11	0	0	0	0	479	443	0	0	0	0	
12	0	0	0	0	480	445	0	0	0	0	
13	0	0	0	0	482	446	0	0	0	0	
14	0	0	0	0	484	447	0	0	0	0	
15	0	0	0	0	485	446	0	0	0	0	
0	0	0	0	0	485	445	0	0	0	0	
1	0	0	0	0	485	444	0	0	0	0	
2	0	0	0	0	483	440	0	0	0	0	
3	0	0	0	0	482	437	0	0	0	0	
4	0	0	0	0	478	432	0	0	0	0	
5	0	0	0	0	473	427	0	0	0	0	
6	0	0	0	0	468	422	0	0	0	0	
7	0	0	0	0	461	415	0	0	0	0	
8	0	0	0	0	454	409	0	0	0	0	
9	0	0	0	0	445	402	0	0	0	0	
10	0	0	0	0	436	396	0	0	0	0	
11	0	0	0	0	428	389	0	0	0	0	
12	0	0	0	0	418	382	0	0	0	0	
13	0	0	0	0	408	375	0	0	0	0	
14	0	0	0	0	398	367	0	0	0	0	
15	0	0	0	0	388	359	0	0	0	0	
0	0	0	0	0	379	350	0	0	0	0	
1	0	0	0	0	369	341	0	0	0	0	
2	0	0	0	0	359	330	0	0	0	0	
3	0	0	0	0	349	319	0	0	0	0	
4	0	0	0	0	339	308	0	0	0	0	
5	0	0	0	0	328	295	0	0	0	0	
6	0	0	0	0	317	283	0	0	0	0	
7	0	0	0	0	306	270	0	0	0	0	
8	0	0	0	0	294	257	0	0	0	0	
9	0	0	0	0	284	244	0	0	0	0	
10	0	0	0	0	273	233	0	0	0	0	
11	0	0	0	0	264	224	0	0	0	0	
12	0	0	0	0	257	216	0	0	0	0	
13	0	0	0	0	252	211	0	0	0	0	
14	0	0	0	0	251	209	0	0	0	0	
15	0	0	0	0	252	211	0	0	0	0	
0	0	0	0	0	259	217	0	0	0	0	
1	0	0	0	0	268	226	0	0	0	0	
2	0	0	0	0	281	238	0	0	0	0	
3	0	0	0	0	298	254	0	0	0	0	
4	0	0	0	0	318	272	0	0	0	0	
5	0	0	0	0	341	292	0	0	0	0	
6	0	0	0	0	365	313	0	0	0	0	
7	0	0	0	0	389	335	0	0	0	0	
8	0	0	0	0	414	357	0	0	0	0	
9	0	0	0	0	438	378	0	0	0	0	
10	0	0	0	0	460	398	0	0	0	0	
11	0	0	0	0	479	415	0	0	0	0	
12	0	0	0	0	495	432	0	0	0	0	
13	0	0	0	0	508	445	0	0	0	0	
14	0	0	0	0	518	456	0	0	0	0	
15	0	0	0	0	524	464	0	0	0	0	
0	0	0	0	0	527	471	0	0	0	0	
1	0	0	0	0	527	475	0	0	0	0	
2	0	0	0	0	526	477	0	0	0	0	
3	0	0	0	0	522	478	0	0	0	0	
4	0	0	0	0	518	478	0	0	0	0	
5	0	0	0	0	513	477	0	0	0	0	
6	0	0	0	0	508	475	0	0	0	0	
7	0	0	0	0	504	473	0	0	0	0	
8	0	0	0	0	499	471	0	0	0	0	
9	0	0	0	0	496	468	0	0	0	0	
10	0	0	0	0	494	465	0	0	0	0	
11	0	0	0	0	492	463	0	0	0	0	
12	0	0	0	0	492	460	0	0	0	0	
13	0	0	0	0	493	457	0	0	0	0	
14	0	0	0	0	494	455	0	0	0	0	
15	0	0	0	0	496	454	0	0	0	0	
0	0	0	0	0	498	452	0	0	0	0	
1	0	0	0	0	500	452	0	0	0	0	
2	0	0	0	0	502	452	0	0	0	0	
3	0	0	0	0	504	453	0	0	0	0	
4	0	0	0	0	505	454	0	0	0	0	
5	0	0	0	0	506	455	0	0	0	0	
6	0	0	0	0	508	458	0	0	0	0	
7	0	0	0	0	508	460	0	0	0	0	
8	0	0	0	0	509	463	0	0	0	0	
9	0	0	0	0	509	465	0	0	0	0	
10	0	0	0	0	509	467	0	0	0	0	
11	0	0	0	0	508	469	0	0	0	0	
12	0	0	0	0	508	470	0	0	0	0	
13	0	0	0	0	508	471	0	0	0	0	
14	0	0	0	0	506	470	0	0	0	0	
15	0	0	0	0	505	470	0	0	0	0	
0	0	0	0	0	504	468	0	0	0	0	
1	0	0	0	0	504	467	0	0	0	0	
2	0	0	0	0	503	465	0	0	0	0	
3	0	0	0	0	502	463	0	0	0	0	
4	0	0	0	0	500	460	0	0	0	0	
5	0	0	0	0	500	460	0	0	0	0	
6	0	0	0	0	499	459	0	0	0	0	
7	0	0	0	0	499	458	0	0	0	0	
8	0	0	0	0	500	459	0	0	0	0	
9	0	0	0	0	500	460	0	0	0	0	
10	0	0	0	0	502	461	0	0	0	0	
11	0	0	0	0	504	463	0	0	0	0	
12	0	0	0	0	505	465	0	0	0	0	
13	0	0	0	0	507	467	0	0	0	0	
14	0	0	0	0	508	470	0	0	0	0	
15	0	0	0	0	510	472	0	0	0	0	
0	0	0	0	0	511	473	0	0	0	0	
1	0	0	0	0	512	475	0	0	0	0	
2	0	0	0	0	512	475	0	0	0	0	
3	0	0	0	0	512	475	0	0	0	0	
4	0	0	0	0	512	474	0	0	0	0	
5	0	0	0	0	511	473	0	0	0	0	
6	0	0	0	0	510	471	0	0	0	0	
7	0	0	0	0	509	468	0	0	0	0	
8	0	0	0	0	507	466	0	0	0	0	
9	0	0	0	0	506	464	0	0	0	0	
10	0	0	0	0	504	462	0	0	0	0	
11	0	0	0	0	503	461	0	0	0	0	
12	0	0	0	0	501	460	0	0	0	0	
13	0	0	0	0	500	461	0	0	0	0	
14	0	0	0	0	500	461	0	0	0	0	
15	0	0	0	0	499	462	0	0	0	0	
0	0	0	0	0	499	463	0	0	0	0	
1	0	0	0	0	499	464	0	0	0	0	
2	0	0	0	0	499	465	0	0	0	0	
3	0	0	0	0	499	467	0	0	0	0	
4	0	0	0	0	499	467	0	0	0	0	
5	0	0	0	0	499	467	0	0	0	0	
6	0	0	0	0	499	467	0	0	0	0	
7	0	0	0	0	498	465	0	0	0	0	
8	0	0	0	0	498	465	0	0	0	0	
9	0	0	0	0	498	464	0	0	0	0	
10	0	0	0	0	499	464	0	0	0	0	
11	0	0	0	0	499	463	0	0	0	0	
12	0	0	0	0	499	463	0	0	0	0	
13	0	0	0	0	500	463	0	0	0	0	
14	0	0	0	0	500	463	0	0	0	0	
15	0	0	0	0	501	464	0	0	0	0	
0	0	0	0	0	502	465	0	0	0	0	
1	0	0	0	0	502	466	0	0	0	0	
2	0	0	0	0	503	468	0	0	0	0	
3	0	0	0	0	504	469	0	0	0	0	
4	0	0	0	0	504	470	0	0	0	0	
5	0	0	0	0	504	471	0	0	0	0	
6	0	0	0	0	504	471	0	0	0	0	
7	0	0	0	0	504	472	0	0	0	0	
8	0	0	0	0	504	471	0	0	0	0	
9	0	0	0	0	504	470	0	0	0	0	
10	0	0	0	0	503	468	0	0	0	0	
11	0	0	0	0	502	466	0	0	0	0	
12	0	0	0	0	502	465	0	0	0	0	
13	0	0	0	0	502	463	0	0	0	0	
14	0	0	0	0	501	461	0	0	0	0	
15	0	0	0	0	502	460	0	0	0	0	
0	0	0	0	0	501	458	0	0	0	0	
1	0	0	0	0	501	457	0	0	0	0	
2	0	0	0	0	502	457	0	0	0	0	
3	0	0	0	0	502	458	0	0	0	0	
4	0	0	0	0	503	459	0	0	0	0	
5	0	0	0	0	503	461	0	0	0	0	
6	0	0	0	0	504	463	0	0	0	0	
7	0	0	0	0	505	466	0	0	0	0	
8	0	0	0	0	505	468	0	0	0	0	
9	0	0	0	0	505	469	0	0	0	0	
10	0	0	0	0	505	472	0	0	0	0	
11	0	0	0	0	506	472	0	0	0	0	
12	0	0	0	0	505	472	0	0	0	0	
13	0	0	0	0	505	472	0	0	0	0	
14	0	0	0	0	504	471	0	0	0	0	
15	0	0	0	0	502	470	0	0	0	0	
0	0	0	0	0	500	467	0	0	0	0	
1	0	0	0	0	499	465	0	0	0	0	
2	0	0	0	0	498	463	0	0	0	0	
3	0	0	0	0	497	461	0	0	0	0	
4	0	0	0	0	496	460	0	0	0	0	
5	0	0	0	0	496	459	0	0	0	0	
6	0	0	0	0	496	458	0	0	0	0	
7	0	0	0	0	495	457	0	0	0	0	
8	0	0	0	0	495	457	0	0	0	0	
9	0	0	0	0	495	458	0	0	0	0	
10	0	0	0	0	496	458	0	0	0	0	
11	0	0	0	0	496	459	0	0	0	0	
12	0	0	0	0	497	460	0	0	0	0	
13	0	0	0	0	498	461	0	0	0	0	
14	0	0	0	0	498	462	0	0	0	0	
15	0	0	0	0	500	463	0	0	0	0	
0	0	0	0	0	501	464	0	0	0	0	
1	0	0	0	0	502	464	0	0	0	0	
2	0	0	0	0	502	465	0	0	0	0	
3	0	0	0	0	503	464	0	0	0	0	
4	0	0	0	0	503	464	0	0	0	0	
5	0	0	0	0	503	464	0	0	0	0	
6	0	0	0	0	503	463	0	0	0	0	
7	0	0	0	0	503	462	0	0	0	0	
8	0	0	0	0	503	462	0	0	0	0	
9	0	0	0	0	503	461	0	0	0	0	
10	0	0	0	0	502	461	0	0	0	0	
11	0	0	0	0	502	461	0	0	0	0	
12	0	0	0	0	502	461	0	0	0	0	
13	0	0	0	0	501	462	0	0	0	0	
14	0	0	0	0	502	463	0	0	0	0	
15	0	0	0	0	503	464	0	0	0	0	
0	0	0	0	0	504	466	0	0	0	0	
1	0	0	0	0	504	467	0	0	0	0	
2	0	0	0	0	504	470	0	0	0	0	
3	0	0	0	0	505	471	0	0	0	0	
4	0	0	0	0	505	472	0	0	0	0	
5	0	0	0	0	505	472	0	0	0	0	
6	0	0	0	0	504	471	0	0	0	0	
7	0	0	0	0	504	470	0	0	0	0	
8	0	0	0	0	504	469	0	0	0	0	
9	0	0	0	0	503	467	0	0	0	0	
10	0	0	0	0	502	465	0	0	0	0	
11	0	0	0	0	502	463	0	0	0	0	
12	0	0	0	0	501	462	0	0	0	0	
13	0	0	0	0	501	461	0	0	0	0	
14	0	0	0	0	501	460	0	0	0	0	
15	0	0	0	0	501	461	0	0	0	0	
0	0	0	0	0	501	461	0	0	0	0	
1	0	0	0	0	502	463	0	0	0	0	
2	0	0	0	0	504	464	0	0	0	0	
3	0	0	0	0	505	465	0	0	0	0	
4	0	0	0	0	506	467	0	0	0	0	
5	0	0	0	0	507	468	0	0	0	0	
6	0	0	0	0	508	470	0	0	0	0	
7	0	0	0	0	510	472	0	0	0	0	
8	0	0	0	0	511	473	0	0	0	0	
9	0	0	0	0	511	474	0	0	0	0	
10	0	0	0	0	511	474	0	0	0	0	
11	0	0	0	0	511	474	0	0	0	0	
12	0	0	0	0	511	473	0	0	0	0	
13	0	0	0	0	510	472	0	0	0	0	
14	0	0	0	0	509	471	0	0	0	0	
15	0	0	0	0	508	469	0	0	0	0	
0	0	0	0	0	506	468	0	0	0	0	
1	0	0	0	0	506	466	0	0	0	0	
2	0	0	0	0	505	465	0	0	0	0	
3	0	0	0	0	504	464	0	0	0	0	
4	0	0	0	0	504	463	0	0	0	0	
5	0	0	0	0	504	464	0	0	0	0	
6	0	0	0	0	504	465	0	0	0	0	
7	0	0	0	0	505	467	0	0	0	0	
8	0	0	0	0	506	468	0	0	0	0	
9	0	0	0	0	507	470	0	0	0	0	
10	0	0	0	0	508	472	0	0	0	0	
11	0	0	0	0	509	473	0	0	0	0	
12	0	0	0	0	510	475	0	0	0	0	
13	0	0	0	0	511	476	0	0	0	0	
14	0	0	0	0	510	476	0	0	0	0	
15	0	0	0	0	511	476	0	0	0	0	
0	0	0	0	0	512	476	0	0	0	0	
1	0	0	0	0	513	476	0	0	0	0	
2	0	0	0	0	513	475	0	0	0	0	
3	0	0	0	0	514	475	0	0	0	0	
4	0	0	0	0	515	474	0	0	0	0	
5	0	0	0	0	515	474	0	0	0	0	
6	0	0	0	0	516	475	0	0	0	0	
7	0	0	0	0	516	475	0	0	0	0	
8	0	0	0	0	516	476	0	0	0	0	
9	0	0	0	0	516	477	0	0	0	0	
10	0	0	0	0	516	478	0	0	0	0	
11	0	0	0	0	516	480	0	0	0	0	
12	0	0	0	0	516	481	0	0	0	0	
13	0	0	0	0	516	481	0	0	0	0	
14	0	0	0	0	516	483	0	0	0	0	
15	0	0	0	0	516	483	0	0	0	0	
0	0	0	0	0	516	483	0	0	0	0	
1	0	0	0	0	516	483	0	0	0	0	
2	0	0	0	0	516	481	0	0	0	0	
3	0	0	0	0	515	479	0	0	0	0	
4	0	0	0	0	515	478	0	0	0	0	
5	0	0	0	0	515	476	0	0	0	0	
6	0	0	0	0	515	473	0	0	0	0	
7	0	0	0	0	514	471	0	0	0	0	
8	0	0	0	0	513	468	0	0	0	0	
9	0	0	0	0	513	467	0	0	0	0	
10	0	0	0	0	513	467	0	0	0	0	
11	0	0	0	0	512	467	0	0	0	0	
12	0	0	0	0	513	467	0	0	0	0	
13	0	0	0	0	513	469	0	0	0	0	
14	0	0	0	0	514	471	0	0	0	0	
15	0	0	0	0	515	473	0	0	0	0	
0	0	0	0	0	516	476	0	0	0	0	
1	0	0	0	0	517	477	0	0	0	0	
2	0	0	0	0	517	479	0	0	0	0	
3	0	0	0	0	519	480	0	0	0	0	
4	0	0	0	0	519	481	0	0	0	0	
5	0	0	0	0	519	481	0	0	0	0	
6	0	0	0	0	519	480	0	0	0	0	
7	0	0	0	0	517	478	0	0	0	0	
8	0	0	0	0	517	476	0	0	0	0	
9	0	0	0	0	516	474	0	0	0	0	
10	0	0	0	0	515	471	0	0	0	0	
11	0	0	0	0	513	469	0	0	0	0	
12	0	0	0	0	511	466	0	0	0	0	
13	0	0	0	0	510	465	0	0	0	0	
14	0	0	0	0	509	463	0	0	0	0	
15	0	0	0	0	507	461	0	0	0	0	
0	0	0	0	0	507	461	0	0	0	0	
1	0	0	0	0	506	461	0	0	0	0	
2	0	0	0	0	507	462	0	0	0	0	
3	0	0	0	0	507	463	0	0	0	0	
4	0	0	0	0	508	464	0	0	0	0	
5	0	0	0	0	509	466	0	0	0	0	
6	0	0	0	0	509	467	0	0	0	0	
7	0	0	0	0	511	468	0	0	0	0	
8	0	0	0	0	511	468	0	0	0	0	
9	0	0	0	0	512	468	0	0	0	0	
10	0	0	0	0	513	468	0	0	0	0	
11	0	0	0	0	513	467	0	0	0	0	
12	0	0	0	0	513	467	0	0	0	0	
13	0	0	0	0	513	467	0	0	0	0	
14	0	0	0	0	513	466	0	0	0	0	
15	0	0	0	0	513	465	0	0	0	0	
0	0	0	0	0	512	465	0	0	0	0	
1	0	0	0	0	513	466	0	0	0	0	
2	0	0	0	0	513	467	0	0	0	0	
3	0	0	0	0	513	468	0	0	0	0	
4	0	0	0	0	514	470	0	0	0	0	
5	0	0	0	0	515	472	0	0	0	0	
6	0	0	0	0	516	475	0	0	0	0	
7	0	0	0	0	517	477	0	0	0	0	
8	0	0	0	0	519	479	0	0	0	0	
9	0	0	0	0	520	480	0	0	0	0	
10	0	0	0	0	520	481	0	0	0	0	
11	0	0	0	0	521	482	0	0	0	0	
12	0	0	0	0	522	482	0	0	0	0	
13	0	0	0	0	521	480	0	0	0	0	
14	0	0	0	0	521	479	0	0	0	0	
15	0	0	0	0	521	477	0	0	0	0	
0	0	0	0	0	520	475	0	0	0	0	
1	0	0	0	0	519	472	0	0	0	0	
2	0	0	0	0	519	470	0	0	0	0	
3	0	0	0	0	518	467	0	0	0	0	
4	0	0	0	0	516	465	0	0	0	0	
5	0	0	0	0	516	465	0	0	0	0	
6	0	0	0	0	516	465	0	0	0	0	
7	0	0	0	0	515	465	0	0	0	0	
8	0	0	0	0	515	465	0	0	0	0	
9	0	0	0	0	515	467	0	0	0	0	
10	0	0	0	0	515	468	0	0	0	0	
11	0	0	0	0	516	470	0	0	0	0	
12	0	0	0	0	516	472	0	0	0	0	
13	0	0	0	0	517	474	0	0	0	0	
14	0	0	0	0	517	476	0	0	0	0	
15	0	0	0	0	519	478	0	0	0	0	
0	0	0	0	0	519	479	0	0	0	0	
1	0	0	0	0	520	479	0	0	0	0	
2	0	0	0	0	520	478	0	0	0	0	
3	0	0	0	0	520	477	0	0	0	0	
4	0	0	0	0	519	476	0	0	0	0	
5	0	0	0	0	519	474	0	0	0	0	
6	0	0	0	0	519	472	0	0	0	0	
7	0	0	0	0	518	470	0	0	0	0	
8	0	0	0	0	517	468	0	0	0	0	
9	0	0	0	0	517	467	0	0	0	0	
10	0	0	0	0	517	465	0	0	0	0	
11	0	0	0	0	517	465	0	0	0	0	
12	0	0	0	0	518	465	0	0	0	0	
13	0	0	0	0	518	465	0	0	0	0	
14	0	0	0	0	519	467	0	0	0	0	
15	0	0	0	0	521	469	0	0	0	0	
0	0	0	0	0	522	471	0	0	0	0	
1	0	0	0	0	523	473	0	0	0	0	
2	0	0	0	0	523	476	0	0	0	0	
3	0	0	0	0	524	477	0	0	0	0	
4	0	0	0	0	525	479	0	0	0	0	
5	0	0	0	0	525	480	0	0	0	0	
6	0	0	0	0	524	480	0	0	0	0	
7	0	0	0	0	524	480	0	0	0	0	
8	0	0	0	0	522	479	0	0	0	0	
9	0	0	0	0	521	478	0	0	0	0	
10	0	0	0	0	519	476	0	0	0	0	
11	0	0	0	0	518	473	0	0	0	0	
12	0	0	0	0	516	472	0	0	0	0	
13	0	0	0	0	516	470	0	0	0	0	
14	0	0	0	0	515	468	0	0	0	0	
15	0	0	0	0	514	467	0	0	0	0	
0	0	0	0	0	514	466	0	0	0	0	
1	0	0	0	0	513	466	0	0	0	0	
2	0	0	0	0	514	466	0	0	0	0	
3	0	0	0	0	515	466	0	0	0	0	
4	0	0	0	0	515	467	0	0	0	0	
5	0	0	0	0	516	467	0	0	0	0	
6	0	0	0	0	516	468	0	0	0	0	
7	0	0	0	0	518	469	0	0	0	0	
8	0	0	0	0	518	470	0	0	0	0	
9	0	0	0	0	518	470	0	0	0	0	
10	0	0	0	0	518	470	0	0	0	0	
11	0	0	0	0	518	469	0	0	0	0	
12	0	0	0	0	518	469	0	0	0	0	
13	0	0	0	0	517	467	0	0	0	0	
14	0	0	0	0	516	466	0	0	0	0	
15	0	0	0	0	516	465	0	0	0	0	
0	0	0	0	0	515	464	0	0	0	0	
1	0	0	0	0	515	463	0	0	0	0	
2	0	0	0	0	515	463	0	0	0	0	
3	0	0	0	0	515	463	0	0	0	0	
4	0	0	0	0	514	463	0	0	0	0	
5	0	0	0	0	515	464	0	0	0	0	
6	0	0	0	0	515	467	0	0	0	0	
7	0	0	0	0	516	468	0	0	0	0	
8	0	0	0	0	517	470	0	0	0	0	
9	0	0	0	0	518	472	0	0	0	0	
10	0	0	0	0	519	473	0	0	0	0	
11	0	0	0	0	520	475	0	0	0	0	
12	0	0	0	0	521	476	0	0	0	0	
13	0	0	0	0	521	476	0	0	0	0	
14	0	0	0	0	521	475	0	0	0	0	
15	0	0	0	0	520	475	0	0	0	0	
0	0	0	0	0	520	473	0	0	0	0	
1	0	0	0	0	519	471	0	0	0	0	
2	0	0	0	0	518	469	0	0	0	0	
3	0	0	0	0	517	467	0	0	0	0	
4	0	0	0	0	515	464	0	0	0	0	
5	0	0	0	0	515	463	0	0	0	0	
6	0	0	0	0	513	462	0	0	0	0	
7	0	0	0	0	512	462	0	0	0	0	
8	0	0	0	0	512	461	0	0	0	0	
9	0	0	0	0	511	461	0	0	0	0	
10	0	0	0	0	511	462	0	0	0	0	
11	0	0	0	0	511	462	0	0	0	0	
12	0	0	0	0	511	463	0	0	0	0	
13	0	0	0	0	512	463	0	0	0	0	
14	0	0	0	0	511	463	0	0	0	0	
15	0	0	0	0	511	464	0	0	0	0	
0	0	0	0	0	512	464	0	0	0	0	
1	0	0	0	0	512	464	0	0	0	0	
2	0	0	0	0	512	463	0	0	0	0	
3	0	0	0	0	512	462	0	0	0	0	
4	0	0	0	0	512	462	0	0	0	0	
5	0	0	0	0	512	460	0	0	0	0	
6	0	0	0	0	512	459	0	0	0	0	
7	0	0	0	0	511	457	0	0	0	0	
8	0	0	0	0	511	457	0	0	0	0	
9	0	0	0	0	511	457	0	0	0	0	
10	0	0	0	0	511	457	0	0	0	0	
11	0	0	0	0	511	457	0	0	0	0	
12	0	0	0	0	512	457	0	0	0	0	
13	0	0	0	0	513	459	0	0	0	0	
14	0	0	0	0	514	460	0	0	0	0	
15	0	0	0	0	515	462	0	0	0	0	
0	0	0	0	0	515	463	0	0	0	0	
1	0	0	0	0	516	465	0	0	0	0	
2	0	0	0	0	515	465	0	0	0	0	
3	0	0	0	0	515	467	0	0	0	0	
4	0	0	0	0	515	468	0	0	0	0	
5	0	0	0	0	515	468	0	0	0	0	
6	0	0	0	0	514	468	0	0	0	0	
7	0	0	0	0	512	467	0	0	0	0	
8	0	0	0	0	512	467	0	0	0	0	
9	0	0	0	0	512	465	0	0	0	0	
10	0	0	0	0	512	464	0	0	0	0	
11	0	0	0	0	511	463	0	0	0	0	
12	0	0	0	0	511	462	0	0	0	0	
13	0	0	0	0	511	461	0	0	0	0	
14	0	0	0	0	512	461	0	0	0	0	
15	0	0	0	0	512	461	0	0	0	0	
0	0	0	0	0	512	461	0	0	0	0	
1	0	0	0	0	513	462	0	0	0	0	
2	0	0	0	0	514	464	0	0	0	0	
3	0	0	0	0	515	466	0	0	0	0	
4	0	0	0	0	516	469	0	0	0	0	
5	0	0	0	0	517	472	0	0	0	0	
6	0	0	0	0	518	473	0	0	0	0	
7	0	0	0	0	519	476	0	0	0	0	
8	0	0	0	0	520	478	0	0	0	0	
9	0	0	0	0	521	478	0	0	0	0	
10	0	0	0	0	521	478	0	0	0	0	
11	0	0	0	0	521	478	0	0	0	0	
12	0	0	0	0	521	477	0	0	0	0	
13	0	0	0	0	521	475	0	0	0	0	
14	0	0	0	0	521	473	0	0	0	0	
15	0	0	0	0	520	471	0	0	0	0	
0	0	0	0	0	519	469	0	0	0	0	
1	0	0	0	0	519	468	0	0	0	0	
2	0	0	0	0	518	467	0	0	0	0	
3	0	0	0	0	518	467	0	0	0	0	
4	0	0	0	0	518	467	0	0	0	0	
5	0	0	0	0	518	467	0	0	0	0	
6	0	0	0	0	519	469	0	0	0	0	
7	0	0	0	0	519	471	0	0	0	0	
8	0	0	0	0	520	473	0	0	0	0	
9	0	0	0	0	521	475	0	0	0	0	
10	0	0	0	0	522	477	0	0	0	0	
11	0	0	0	0	524	479	0	0	0	0	
12	0	0	0	0	524	480	0	0	0	0	
13	0	0	0	0	524	480	0	0	0	0	
14	0	0	0	0	524	480	0	0	0	0	
15	0	0	0	0	523	479	0	0	0	0	
0	0	0	0	0	523	478	0	0	0	0	
1	0	0	0	0	522	476	0	0	0	0	
2	0	0	0	0	520	473	0	0	0	0	
3	0	0	0	0	520	472	0	0	0	0	
4	0	0	0	0	519	469	0	0	0	0	
5	0	0	0	0	519	469	0	0	0	0	
6	0	0	0	0	519	468	0	0	0	0	
7	0	0	0	0	519	468	0	0	0	0	
8	0	0	0	0	520	468	0	0	0	0	
9	0	0	0	0	521	470	0	0	0	0	
10	0	0	0	0	523	472	0	0	0	0	
11	0	0	0	0	524	475	0	0	0	0	
12	0	0	0	0	526	476	0	0	0	0	
13	0	0	0	0	527	479	0	0	0	0	
14	0	0	0	0	529	481	0	0	0	0	
15	0	0	0	0	530	482	0	0	0	0	
0	0	0	0	0	531	483	0	0	0	0	
1	0	0	0	0	532	483	0	0	0	0	
2	0	0	0	0	532	483	0	0	0	0	
3	0	0	0	0	532	481	0	0	0	0	
4	0	0	0	0	532	481	0	0	0	0	
5	0	0	0	0	531	479	0	0	0	0	
6	0	0	0	0	530	477	0	0	0	0	
7	0	0	0	0	528	474	0	0	0	0	
8	0	0	0	0	526	472	0	0	0	0	
9	0	0	0	0	525	471	0	0	0	0	
10	0	0	0	0	524	469	0	0	0	0	
11	0	0	0	0	523	468	0	0	0	0	
12	0	0	0	0	522	468	0	0	0	0	
13	0	0	0	0	521	469	0	0	0	0	
14	0	0	0	0	521	470	0	0	0	0	
15	0	0	0	0	521	471	0	0	0	0	
0	0	0	0	0	521	472	0	0	0	0	
1	0	0	0	0	521	474	0	0	0	0	
2	0	0	0	0	521	475	0	0	0	0	
3	0	0	0	0	521	476	0	0	0	0	
4	0	0	0	0	521	476	0	0	0	0	
5	0	0	0	0	521	477	0	0	0	0	
6	0	0	0	0	521	476	0	0	0	0	
7	0	0	0	0	520	475	0	0	0	0	
8	0	0	0	0	519	474	0	0	0	0	
9	0	0	0	0	519	473	0	0	0	0	
10	0	0	0	0	518	472	0	0	0	0	
11	0	0	0	0	518	470	0	0	0	0	
12	0	0	0	0	516	469	0	0	0	0	
13	0	0	0	0	516	468	0	0	0	0	
14	0	0	0	0	515	467	0	0	0	0	
15	0	0	0	0	515	467	0	0	0	0	
0	0	0	0	0	515	467	0	0	0	0	
1	0	0	0	0	515	468	0	0	0	0	
2	0	0	0	0	516	469	0	0	0	0	
3	0	0	0	0	517	470	0	0	0	0	
4	0	0	0	0	518	472	0	0	0	0	
5	0	0	0	0	519	473	0	0	0	0	
6	0	0	0	0	521	474	0	0	0	0	
7	0	0	0	0	523	475	0	0	0	0	
8	0	0	0	0	524	476	0	0	0	0	
9	0	0	0	0	526	476	0	0	0	0	
10	0	0	0	0	527	475	0	0	0	0	
11	0	0	0	0	527	474	0	0	0	0	
12	0	0	0	0	527	473	0	0	0	0	
13	0	0	0	0	526	472	0	0	0	0	
14	0	0	0	0	525	471	0	0	0	0	
15	0	0	0	0	524	470	0	0	0	0	
0	0	0	0	0	522	469	0	0	0	0	
1	0	0	0	0	521	469	0	0	0	0	
2	0	0	0	0	519	469	0	0	0	0	
3	0	0	0	0	518	469	0	0	0	0	
4	0	0	0	0	517	470	0	0	0	0	
5	0	0	0	0	516	472	0	0	0	0	
6	0	0	0	0	517	473	0	0	0	0	
7	0	0	0	0	518	476	0	0	0	0	
8	0	0	0	0	518	477	0	0	0	0	
9	0	0	0	0	519	479	0	0	0	0	
10	0	0	0	0	519	480	0	0	0	0	
11	0	0	0	0	521	481	0	0	0	0	
12	0	0	0	0	522	482	0	0	0	0	
13	0	0	0	0	523	482	0	0	0	0	
14	0	0	0	0	524	481	0	0	0	0	
15	0	0	0	0	524	481	0	0	0	0	
0	0	0	0	0	524	480	0	0	0	0	
1	0	0	0	0	524	479	0	0	0	0	
2	0	0	0	0	524	478	0	0	0	0	
3	0	0	0	0	524	476	0	0	0	0	
4	0	0	0	0	523	476	0	0	0	0	
5	0	0	0	0	523	476	0	0	0	0	
6	0	0	0	0	523	475	0	0	0	0	
7	0	0	0	0	522	475	0	0	0	0	
8	0	0	0	0	522	474	0	0	0	0	
9	0	0	0	0	522	475	0	0	0	0	
10	0	0	0	0	522	476	0	0	0	0	
11	0	0	0	0	523	477	0	0	0	0	
12	0	0	0	0	524	478	0	0	0	0	
13	0	0	0	0	524	478	0	0	0	0	
14	0	0	0	0	524	479	0	0	0	0	
15	0	0	0	0	526	480	0	0	0	0	
0	0	0	0	0	526	480	0	0	0	0	
1	0	0	0	0	527	480	0	0	0	0	
2	0	0	0	0	527	478	0	0	0	0	
3	0	0	0	0	526	478	0	0	0	0	
4	0	0	0	0	527	477	0	0	0	0	
5	0	0	0	0	526	475	0	0	0	0	
6	0	0	0	0	525	474	0	0	0	0	
7	0	0	0	0	524	472	0	0	0	0	
8	0	0	0	0	523	472	0	0	0	0	
9	0	0	0	0	522	471	0	0	0	0	
10	0	0	0	0	521	470	0	0	0	0	
11	0	0	0	0	520	470	0	0	0	0	
12	0	0	0	0	519	470	0	0	0	0	
13	0	0	0	0	518	472	0	0	0	0	
14	0	0	0	0	519	472	0	0	0	0	
15	0	0	0	0	519	474	0	0	0	0	
0	0	0	0	0	519	476	0	0	0	0	
1	0	0	0	0	520	477	0	0	0	0	
2	0	0	0	0	522	480	0	0	0	0	
3	0	0	0	0	524	481	0	0	0	0	
4	0	0	0	0	526	483	0	0	0	0	
5	0	0	0	0	527	483	0	0	0	0	
6	0	0	0	0	528	483	0	0	0	0	
7	0	0	0	0	529	482	0	0	0	0	
8	0	0	0	0	529	481	0	0	0	0	
9	0	0	0	0	529	479	0	0	0	0	
10	0	0	0	0	527	476	0	0	0	0	
11	0	0	0	0	524	471	0	0	0	0	
12	0	0	0	0	521	467	0	0	0	0	
13	0	0	0	0	516	461	0	0	0	0	
14	0	0	0	0	510	455	0	0	0	0	
15	0	0	0	0	504	449	0	0	0	0	
0	0	0	0	0	495	442	0	0	0	0	
1	0	0	0	0	487	435	0	0	0	0	
2	0	0	0	0	477	427	0	0	0	0	
3	0	0	0	0	467	419	0	0	0	0	
4	0	0	0	0	456	411	0	0	0	0	
5	0	0	0	0	446	402	0	0	0	0	
6	0	0	0	0	435	392	0	0	0	0	
7	0	0	0	0	424	384	0	0	0	0	
8	0	0	0	0	414	374	0	0	0	0	
9	0	0	0	0	403	364	0	0	0	0	
10	0	0	0	0	393	353	0	0	0	0	
11	0	0	0	0	383	343	0	0	0	0	
12	0	0	0	0	374	331	0	0	0	0	
13	0	0	0	0	363	319	0	0	0	0	
14	0	0	0	0	353	307	0	0	0	0	
15	0	0	0	0	343	295	0	0	0	0	
0	0	0	0	0	332	284	0	0	0	0	
1	0	0	0	0	323	273	0	0	0	0	
2	0	0	0	0	313	263	0	0	0	0	
3	0	0	0	0	306	256	0	0	0	0	
4	0	0	0	0	301	251	0	0	0	0	
5	0	0	0	0	298	248	0	0	0	0	
6	0	0	0	0	299	249	0	0	0	0	
7	0	0	0	0	303	254	0	0	0	0	
8	0	0	0	0	311	261	0	0	0	0	
9	0	0	0	0	322	273	0	0	0	0	
10	0	0	0	0	337	286	0	0	0	0	
11	0	0	0	0	355	303	0	0	0	0	
12	0	0	0	0	376	322	0	0	0	0	
13	0	0	0	0	399	343	0	0	0	0	
14	0	0	0	0	423	364	0	0	0	0	
15	0	0	0	0	447	384	0	0	0	0	
0	0	0	0	0	470	405	0	0	0	0	
1	0	0	0	0	491	424	0	0	0	0	
2	0	0	0	0	510	441	0	0	0	0	
3	0	0	0	0	526	457	0	0	0	0	
4	0	0	0	0	539	470	0	0	0	0	
5	0	0	0	0	549	481	0	0	0	0	
6	0	0	0	0	556	490	0	0	0	0	
7	0	0	0	0	560	497	0	0	0	0	
8	0	0	0	0	562	502	0	0	0	0	
9	0	0	0	0	562	505	0	0	0	0	
10	0	0	0	0	560	508	0	0	0	0	
11	0	0	0	0	557	508	0	0	0	0	
12	0	0	0	0	552	508	0	0	0	0	
13	0	0	0	0	548	506	0	0	0	0	
14	0	0	0	0	543	504	0	0	0	0	
15	0	0	0	0	540	502	0	0	0	0	
0	0	0	0	0	536	498	0	0	0	0	
1	0	0	0	0	533	496	0	0	0	0	
2	0	0	0	0	531	492	0	0	0	0	
3	0	0	0	0	529	489	0	0	0	0	
4	0	0	0	0	529	487	0	0	0	0	
5	0	0	0	0	530	486	0	0	0	0	
6	0	0	0	0	531	484	0	0	0	0	
7	0	0	0	0	532	483	0	0	0	0	
8	0	0	0	0	533	483	0	0	0	0	
9	0	0	0	0	536	484	0	0	0	0	
10	0	0	0	0	537	486	0	0	0	0	
11	0	0	0	0	540	487	0	0	0	0	
12	0	0	0	0	542	489	0	0	0	0	
13	0	0	0	0	543	492	0	0	0	0	
14	0	0	0	0	545	496	0	0	0	0	
15	0	0	0	0	547	499	0	0	0	0	
0	0	0	0	0	548	502	0	0	0	0	
1	0	0	0	0	549	505	0	0	0	0	
2	0	0	0	0	550	507	0	0	0	0	
3	0	0	0	0	551	510	0	0	0	0	
4	0	0	0	0	551	511	0	0	0	0	
5	0	0	0	0	552	512	0	0	0	0	
6	0	0	0	0	551	512	0	0	0	0	
7	0	0	0	0	552	512	0	0	0	0	
8	0	0	0	0	552	512	0	0	0	0	
9	0	0	0	0	552	510	0	0	0	0	
10	0	0	0	0	552	509	0	0	0	0	
11	0	0	0	0	551	507	0	0	0	0	
12	0	0	0	0	551	505	0	0	0	0	
13	0	0	0	0	551	505	0	0	0	0	
14	0	0	0	0	551	504	0	0	0	0	
15	0	0	0	0	551	504	0	0	0	0	
0	0	0	0	0	551	504	0	0	0	0	
1	0	0	0	0	551	504	0	0	0	0	
2	0	0	0	0	552	506	0	0	0	0	
3	0	0	0	0	553	508	0	0	0	0	
4	0	0	0	0	552	509	0	0	0	0	
5	0	0	0	0	553	510	0	0	0	0	
6	0	0	0	0	553	511	0	0	0	0	
7	0	0	0	0	554	513	0	0	0	0	
8	0	0	0	0	554	513	0	0	0	0	
9	0	0	0	0	554	514	0	0	0	0	
10	0	0	0	0	555	513	0	0	0	0	
11	0	0	0	0	555	512	0	0	0	0	
12	0	0	0	0	555	512	0	0	0	0	
13	0	0	0	0	555	510	0	0	0	0	
14	0	0	0	0	555	508	0	0	0	0	
15	0	0	0	0	554	507	0	0	0	0	
0	0	0	0	0	553	505	0	0	0	0	
1	0	0	0	0	553	504	0	0	0	0	
2	0	0	0	0	552	503	0	0	0	0	
3	0	0	0	0	551	503	0	0	0	0	
4	0	0	0	0	551	503	0	0	0	0	
5	0	0	0	0	551	503	0	0	0	0	
6	0	0	0	0	551	504	0	0	0	0	
7	0	0	0	0	551	505	0	0	0	0	
8	0	0	0	0	551	507	0	0	0	0	
9	0	0	0	0	551	507	0	0	0	0	
10	0	0	0	0	550	508	0	0	0	0	
11	0	0	0	0	550	509	0	0	0	0	
12	0	0	0	0	549	509	0	0	0	0	
13	0	0	0	0	547	508	0	0	0	0	
14	0	0	0	0	546	506	0	0	0	0	
15	0	0	0	0	543	503	0	0	0	0	
0	0	0	0	0	541	500	0	0	0	0	
1	0	0	0	0	539	497	0	0	0	0	
2	0	0	0	0	537	493	0	0	0	0	
3	0	0	0	0	536	490	0	0	0	0	
4	0	0	0	0	534	487	0	0	0	0	
5	0	0	0	0	534	485	0	0	0	0	
6	0	0	0	0	533	483	0	0	0	0	
7	0	0	0	0	534	483	0	0	0	0	
8	0	0	0	0	534	482	0	0	0	0	
9	0	0	0	0	534	483	0	0	0	0	
10	0	0	0	0	536	485	0	0	0	0	
11	0	0	0	0	537	487	0	0	0	0	
12	0	0	0	0	537	488	0	0	0	0	
13	0	0	0	0	539	491	0	0	0	0	
14	0	0	0	0	539	492	0	0	0	0	
15	0	0	0	0	540	494	0	0	0	0	
0	0	0	0	0	540	495	0	0	0	0	
1	0	0	0	0	540	496	0	0	0	0	
2	0	0	0	0	541	496	0	0	0	0	
3	0	0	0	0	540	495	0	0	0	0	
4	0	0	0	0	541	495	0	0	0	0	
5	0	0	0	0	540	493	0	0	0	0	
6	0	0	0	0	540	492	0	0	0	0	
7	0	0	0	0	540	491	0	0	0	0	
8	0	0	0	0	539	489	0	0	0	0	
9	0	0	0	0	539	488	0	0	0	0	
10	0	0	0	0	539	488	0	0	0	0	
11	0	0	0	0	539	488	0	0	0	0	
12	0	0	0	0	538	488	0	0	0	0	
13	0	0	0	0	538	489	0	0	0	0	
14	0	0	0	0	539	490	0	0	0	0	
15	0	0	0	0	539	491	0	0	0	0	
0	0	0	0	0	539	493	0	0	0	0	
1	0	0	0	0	540	494	0	0	0	0	
2	0	0	0	0	541	495	0	0	0	0	
3	0	0	0	0	542	497	0	0	0	0	
4	0	0	0	0	543	497	0	0	0	0	
5	0	0	0	0	543	498	0	0	0	0	
6	0	0	0	0	543	498	0	0	0	0	
7	0	0	0	0	542	496	0	0	0	0	
8	0	0	0	0	543	497	0	0	0	0	
9	0	0	0	0	542	496	0	0	0	0	
10	0	0	0	0	541	495	0	0	0	0	
11	0	0	0	0	540	493	0	0	0	0	
12	0	0	0	0	539	492	0	0	0	0	
13	0	0	0	0	539	492	0	0	0	0	
14	0	0	0	0	537	491	0	0	0	0	
15	0	0	0	0	537	491	0	0	0	0	
0	0	0	0	0	537	491	0	0	0	0	
1	0	0	0	0	536	490	0	0	0	0	
2	0	0	0	0	537	491	0	0	0	0	
3	0	0	0	0	537	492	0	0	0	0	
4	0	0	0	0	537	492	0	0	0	0	
5	0	0	0	0	537	493	0	0	0	0	
6	0	0	0	0	536	493	0	0	0	0	
7	0	0	0	0	537	494	0	0	0	0	
8	0	0	0	0	537	493	0	0	0	0	
9	0	0	0	0	537	493	0	0	0	0	
10	0	0	0	0	537	493	0	0	0	0	
11	0	0	0	0	537	492	0	0	0	0	
12	0	0	0	0	537	491	0	0	0	0	
13	0	0	0	0	537	489	0	0	0	0	
14	0	0	0	0	537	488	0	0	0	0	
15	0	0	0	0	536	487	0	0	0	0	
0	0	0	0	0	536	485	0	0	0	0	
1	0	0	0	0	535	484	0	0	0	0	
2	0	0	0	0	534	484	0	0	0	0	
3	0	0	0	0	533	483	0	0	0	0	
4	0	0	0	0	533	484	0	0	0	0	
5	0	0	0	0	532	484	0	0	0	0	
6	0	0	0	0	532	486	0	0	0	0	
7	0	0	0	0	532	487	0	0	0	0	
8	0	0	0	0	532	489	0	0	0	0	
9	0	0	0	0	532	489	0	0	0	0	
10	0	0	0	0	532	492	0	0	0	0	
11	0	0	0	0	534	492	0	0	0	0	
12	0	0	0	0	535	493	0	0	0	0	
13	0	0	0	0	535	493	0	0	0	0	
14	0	0	0	0	536	492	0	0	0	0	
15	0	0	0	0	535	492	0	0	0	0	
0	0	0	0	0	536	491	0	0	0	0	
1	0	0	0	0	536	489	0	0	0	0	
2	0	0	0	0	536	488	0	0	0	0	
3	0	0	0	0	535	487	0	0	0	0	
4	0	0	0	0	534	487	0	0	0	0	
5	0	0	0	0	534	486	0	0	0	0	
6	0	0	0	0	534	486	0	0	0	0	
7	0	0	0	0	535	487	0	0	0	0	
8	0	0	0	0	535	487	0	0	0	0	
9	0	0	0	0	535	490	0	0	0	0	
10	0	0	0	0	536	492	0	0	0	0	
11	0	0	0	0	537	494	0	0	0	0	
12	0	0	0	0	539	497	0	0	0	0	
13	0	0	0	0	539	499	0	0	0	0	
14	0	0	0	0	540	502	0	0	0	0	
15	0	0	0	0	541	503	0	0	0	0	
0	0	0	0	0	542	504	0	0	0	0	
1	0	0	0	0	542	505	0	0	0	0	
2	0	0	0	0	543	505	0	0	0	0	
3	0	0	0	0	543	504	0	0	0	0	
4	0	0	0	0	543	503	0	0	0	0	
5	0	0	0	0	542	501	0	0	0	0	
6	0	0	0	0	542	499	0	0	0	0	
7	0	0	0	0	541	497	0	0	0	0	
8	0	0	0	0	541	495	0	0	0	0	
9	0	0	0	0	540	493	0	0	0	0	
10	0	0	0	0	540	492	0	0	0	0	
11	0	0	0	0	541	491	0	0	0	0	
12	0	0	0	0	542	491	0	0	0	0	
13	0	0	0	0	543	491	0	0	0	0	
14	0	0	0	0	543	492	0	0	0	0	
15	0	0	0	0	545	494	0	0	0	0	
0	0	0	0	0	546	495	0	0	0	0	
1	0	0	0	0	547	497	0	0	0	0	
2	0	0	0	0	547	497	0	0	0	0	
3	0	0	0	0	547	499	0	0	0	0	
4	0	0	0	0	547	500	0	0	0	0	
5	0	0	0	0	547	500	0	0	0	0	
6	0	0	0	0	546	500	0	0	0	0	
7	0	0	0	0	545	501	0	0	0	0	
8	0	0	0	0	545	500	0	0	0	0	
9	0	0	0	0	544	499	0	0	0	0	
10	0	0	0	0	544	499	0	0	0	0	
11	0	0	0	0	544	499	0	0	0	0	
12	0	0	0	0	543	499	0	0	0	0	
13	0	0	0	0	544	499	0	0	0	0	
14	0	0	0	0	544	499	0	0	0	0	
15	0	0	0	0	544	499	0	0	0	0	
0	0	0	0	0	545	500	0	0	0	0	
1	0	0	0	0	545	500	0	0	0	0	
2	0	0	0	0	545	502	0	0	0	0	
3	0	0	0	0	546	502	0	0	0	0	
4	0	0	0	0	547	503	0	0	0	0	
5	0	0	0	0	547	504	0	0	0	0	
6	0	0	0	0	547	503	0	0	0	0	
7	0	0	0	0	547	504	0	0	0	0	
8	0	0	0	0	547	504	0	0	0	0	
9	0	0	0	0	548	504	0	0	0	0	
10	0	0	0	0	547	503	0	0	0	0	
11	0	0	0	0	547	502	0	0	0	0	
12	0	0	0	0	547	502	0	0	0	0	
13	0	0	0	0	547	501	0	0	0	0	
14	0	0	0	0	546	500	0	0	0	0	
15	0	0	0	0	546	499	0	0	0	0	
0	0	0	0	0	545	497	0	0	0	0	
1	0	0	0	0	544	496	0	0	0	0	
2	0	0	0	0	543	496	0	0	0	0	
3	0	0	0	0	542	495	0	0	0	0	
4	0	0	0	0	541	495	0	0	0	0	
5	0	0	0	0	540	494	0	0	0	0	
6	0	0	0	0	540	496	0	0	0	0	
7	0	0	0	0	540	496	0	0	0	0	
8	0	0	0	0	540	497	0	0	0	0	
9	0	0	0	0	540	498	0	0	0	0	
10	0	0	0	0	539	498	0	0	0	0	
11	0	0	0	0	539	498	0	0	0	0	
12	0	0	0	0	539	497	0	0	0	0	
13	0	0	0	0	539	496	0	0	0	0	
14	0	0	0	0	538	494	0	0	0	0	
15	0	0	0	0	538	493	0	0	0	0	
0	0	0	0	0	538	491	0	0	0	0	
1	0	0	0	0	537	489	0	0	0	0	
2	0	0	0	0	536	487	0	0	0	0	
3	0	0	0	0	536	484	0	0	0	0	
4	0	0	0	0	535	482	0	0	0	0	
5	0	0	0	0	535	481	0	0	0	0	
6	0	0	0	0	535	481	0	0	0	0	
7	0	0	0	0	534	481	0	0	0	0	
8	0	0	0	0	534	481	0	0	0	0	
9	0	0	0	0	534	483	0	0	0	0	
10	0	0	0	0	535	485	0	0	0	0	
11	0	0	0	0	535	487	0	0	0	0	
12	0	0	0	0	536	489	0	0	0	0	
13	0	0	0	0	536	492	0	0	0	0	
14	0	0	0	0	537	494	0	0	0	0	
15	0	0	0	0	538	496	0	0	0	0	
0	0	0	0	0	539	497	0	0	0	0	
1	0	0	0	0	540	498	0	0	0	0	
2	0	0	0	0	541	498	0	0	0	0	
3	0	0	0	0	542	497	0	0	0	0	
4	0	0	0	0	542	496	0	0	0	0	
5	0	0	0	0	542	494	0	0	0	0	
6	0	0	0	0	542	492	0	0	0	0	
7	0	0	0	0	541	489	0	0	0	0	
8	0	0	0	0	539	487	0	0	0	0	
9	0	0	0	0	538	485	0	0	0	0	
10	0	0	0	0	536	483	0	0	0	0	
11	0	0	0	0	536	483	0	0	0	0	
12	0	0	0	0	535	483	0	0	0	0	
13	0	0	0	0	535	484	0	0	0	0	
14	0	0	0	0	534	485	0	0	0	0	
15	0	0	0	0	535	487	0	0	0	0	
0	0	0	0	0	535	489	0	0	0	0	
1	0	0	0	0	536	491	0	0	0	0	
2	0	0	0	0	536	492	0	0	0	0	
3	0	0	0	0	536	494	0	0	0	0	
4	0	0	0	0	537	495	0	0	0	0	
5	0	0	0	0	537	496	0	0	0	0	
6	0	0	0	0	537	495	0	0	0	0	
7	0	0	0	0	536	495	0	0	0	0	
8	0	0	0	0	536	494	0	0	0	0	
9	0	0	0	0	536	492	0	0	0	0	
10	0	0	0	0	535	491	0	0	0	0	
11	0	0	0	0	534	489	0	0	0	0	
12	0	0	0	0	533	488	0	0	0	0	
13	0	0	0	0	534	487	0	0	0	0	
14	0	0	0	0	534	487	0	0	0	0	
15	0	0	0	0	534	488	0	0	0	0	
0	0	0	0	0	535	489	0	0	0	0	
1	0	0	0	0	535	491	0	0	0	0	
2	0	0	0	0	537	493	0	0	0	0	
3	0	0	0	0	538	495	0	0	0	0	
4	0	0	0	0	539	497	0	0	0	0	
5	0	0	0	0	540	498	0	0	0	0	
6	0	0	0	0	540	500	0	0	0	0	
7	0	0	0	0	540	500	0	0	0	0	
8	0	0	0	0	540	500	0	0	0	0	
9	0	0	0	0	540	500	0	0	0	0	
10	0	0	0	0	540	498	0	0	0	0	
11	0	0	0	0	538	497	0	0	0	0	
12	0	0	0	0	538	496	0	0	0	0	
13	0	0	0	0	536	493	0	0	0	0	
14	0	0	0	0	535	491	0	0	0	0	
15	0	0	0	0	534	489	0	0	0	0	
0	0	0	0	0	533	487	0	0	0	0	
1	0	0	0	0	533	487	0	0	0	0	
2	0	0	0	0	532	486	0	0	0	0	
3	0	0	0	0	533	486	0	0	0	0	
4	0	0	0	0	533	486	0	0	0	0	
5	0	0	0	0	534	487	0	0	0	0	
6	0	0	0	0	535	489	0	0	0	0	
7	0	0	0	0	536	490	0	0	0	0	
8	0	0	0	0	536	492	0	0	0	0	
9	0	0	0	0	537	493	0	0	0	0	
10	0	0	0	0	536	494	0	0	0	0	
11	0	0	0	0	536	495	0	0	0	0	
12	0	0	0	0	536	495	0	0	0	0	
13	0	0	0	0	535	495	0	0	0	0	
14	0	0	0	0	534	493	0	0	0	0	
15	0	0	0	0	532	493	0	0	0	0	
0	0	0	0	0	532	491	0	0	0	0	
1	0	0	0	0	531	489	0	0	0	0	
2	0	0	0	0	530	488	0	0	0	0	
3	0	0	0	0	529	486	0	0	0	0	
4	0	0	0	0	529	484	0	0	0	0	
5	0	0	0	0	529	484	0	0	0	0	
6	0	0	0	0	530	483	0	0	0	0	
7	0	0	0	0	530	483	0	0	0	0	
8	0	0	0	0	530	483	0	0	0	0	
9	0	0	0	0	531	484	0	0	0	0	
10	0	0	0	0	532	485	0	0	0	0	
11	0	0	0	0	533	487	0	0	0	0	
12	0	0	0	0	534	488	0	0	0	0	
13	0	0	0	0	534	489	0	0	0	0	
14	0	0	0	0	535	490	0	0	0	0	
15	0	0	0	0	535	491	0	0	0	0	
0	0	0	0	0	536	492	0	0	0	0	
1	0	0	0	0	535	492	0	0	0	0	
2	0	0	0	0	535	492	0	0	0	0	
3	0	0	0	0	534	491	0	0	0	0	
4	0	0	0	0	533	490	0	0	0	0	
5	0	0	0	0	532	489	0	0	0	0	
6	0	0	0	0	531	487	0	0	0	0	
7	0	0	0	0	530	485	0	0	0	0	
8	0	0	0	0	529	484	0	0	0	0	
9	0	0	0	0	528	484	0	0	0	0	
10	0	0	0	0	528	484	0	0	0	0	
11	0	0	0	0	528	484	0	0	0	0	
12	0	0	0	0	528	485	0	0	0	0	
13	0	0	0	0	528	486	0	0	0	0	
14	0	0	0	0	529	488	0	0	0	0	
15	0	0	0	0	529	489	0	0	0	0	
0	0	0	0	0	530	491	0	0	0	0	
1	0	0	0	0	530	492	0	0	0	0	
2	0	0	0	0	530	493	0	0	0	0	
3	0	0	0	0	531	494	0	0	0	0	
4	0	0	0	0	531	495	0	0	0	0	
5	0	0	0	0	531	495	0	0	0	0	
6	0	0	0	0	531	494	0	0	0	0	
7	0	0	0	0	531	493	0	0	0	0	
8	0	0	0	0	531	492	0	0	0	0	
9	0	0	0	0	531	492	0	0	0	0	
10	0	0	0	0	531	490	0	0	0	0	
11	0	0	0	0	531	489	0	0	0	0	
12	0	0	0	0	531	488	0	0	0	0	
13	0	0	0	0	531	487	0	0	0	0	
14	0	0	0	0	531	486	0	0	0	0	
15	0	0	0	0	531	486	0	0	0	0	
0	0	0	0	0	530	486	0	0	0	0	
1	0	0	0	0	530	485	0	0	0	0	
2	0	0	0	0	529	486	0	0	0	0	
3	0	0	0	0	529	487	0	0	0	0	
4	0	0	0	0	529	487	0	0	0	0	
5	0	0	0	0	529	488	0	0	0	0	
6	0	0	0	0	529	488	0	0	0	0	
7	0	0	0	0	529	490	0	0	0	0	
8	0	0	0	0	530	490	0	0	0	0	
9	0	0	0	0	530	490	0	0	0	0	
10	0	0	0	0	529	490	0	0	0	0	
11	0	0	0	0	530	489	0	0	0	0	
12	0	0	0	0	530	489	0	0	0	0	
13	0	0	0	0	530	489	0	0	0	0	
14	0	0	0	0	530	488	0	0	0	0	
15	0	0	0	0	530	487	0	0	0	0	
0	0	0	0	0	530	486	0	0	0	0	
1	0	0	0	0	529	486	0	0	0	0	
2	0	0	0	0	529	485	0	0	0	0	
3	0	0	0	0	529	485	0	0	0	0	
4	0	0	0	0	529	485	0	0	0	0	
5	0	0	0	0	528	486	0	0	0	0	
6	0	0	0	0	529	487	0	0	0	0	
7	0	0	0	0	530	488	0	0	0	0	
8	0	0	0	0	531	489	0	0	0	0	
9	0	0	0	0	531	491	0	0	0	0	
10	0	0	0	0	531	492	0	0	0	0	
11	0	0	0	0	533	493	0	0	0	0	
12	0	0	0	0	534	494	0	0	0	0	
13	0	0	0	0	535	495	0	0	0	0	
14	0	0	0	0	536	494	0	0	0	0	
15	0	0	0	0	536	494	0	0	0	0	
0	0	0	0	0	537	493	0	0	0	0	
1	0	0	0	0	537	492	0	0	0	0	
2	0	0	0	0	537	491	0	0	0	0	
3	0	0	0	0	537	489	0	0	0	0	
4	0	0	0	0	536	487	0	0	0	0	
5	0	0	0	0	536	487	0	0	0	0	
6	0	0	0	0	535	487	0	0	0	0	
7	0	0	0	0	534	486	0	0	0	0	
8	0	0	0	0	533	486	0	0	0	0	
9	0	0	0	0	532	487	0	0	0	0	
10	0	0	0	0	531	487	0	0	0	0	
11	0	0	0	0	531	488	0	0	0	0	
12	0	0	0	0	531	489	0	0	0	0	
13	0	0	0	0	531	489	0	0	0	0	
14	0	0	0	0	531	489	0	0	0	0	
15	0	0	0	0	532	490	0	0	0	0	
0	0	0	0	0	533	491	0	0	0	0	
1	0	0	0	0	534	490	0	0	0	0	
2	0	0	0	0	535	490	0	0	0	0	
3	0	0	0	0	535	489	0	0	0	0	
4	0	0	0	0	536	489	0	0	0	0	
5	0	0	0	0	536	488	0	0	0	0	
6	0	0	0	0	535	487	0	0	0	0	
7	0	0	0	0	535	485	0	0	0	0	
8	0	0	0	0	534	484	0	0	0	0	
9	0	0	0	0	534	483	0	0	0	0	
10	0	0	0	0	533	483	0	0	0	0	
11	0	0	0	0	532	483	0	0	0	0	
12	0	0	0	0	531	483	0	0	0	0	
13	0	0	0	0	531	484	0	0	0	0	
14	0	0	0	0	531	485	0	0	0	0	
15	0	0	0	0	531	486	0	0	0	0	
0	0	0	0	0	530	487	0	0	0	0	
1	0	0	0	0	531	489	0	0	0	0	
2	0	0	0	0	531	489	0	0	0	0	
3	0	0	0	0	532	492	0	0	0	0	
4	0	0	0	0	533	492	0	0	0	0	
5	0	0	0	0	534	494	0	0	0	0	
6	0	0	0	0	535	494	0	0	0	0	
7	0	0	0	0	535	494	0	0	0	0	
8	0	0	0	0	536	494	0	0	0	0	
9	0	0	0	0	536	493	0	0	0	0	
10	0	0	0	0	536	492	0	0	0	0	
11	0	0	0	0	536	491	0	0	0	0	
12	0	0	0	0	535	490	0	0	0	0	
13	0	0	0	0	536	489	0	0	0	0	
14	0	0	0	0	535	488	0	0	0	0	
15	0	0	0	0	535	488	0	0	0	0	
0	0	0	0	0	534	488	0	0	0	0	
1	0	0	0	0	534	489	0	0	0	0	
2	0	0	0	0	534	490	0	0	0	0	
3	0	0	0	0	534	491	0	0	0	0	
4	0	0	0	0	535	493	0	0	0	0	
5	0	0	0	0	536	494	0	0	0	0	
6	0	0	0	0	536	496	0	0	0	0	
7	0	0	0	0	537	496	0	0	0	0	
8	0	0	0	0	537	497	0	0	0	0	
9	0	0	0	0	538	497	0	0	0	0	
10	0	0	0	0	538	497	0	0	0	0	
11	0	0	0	0	538	496	0	0	0	0	
12	0	0	0	0	538	495	0	0	0	0	
13	0	0	0	0	538	494	0	0	0	0	
14	0	0	0	0	537	492	0	0	0	0	
15	0	0	0	0	537	491	0	0	0	0	
0	0	0	0	0	536	489	0	0	0	0	
1	0	0	0	0	536	488	0	0	0	0	
2	0	0	0	0	534	487	0	0	0	0	
3	0	0	0	0	533	487	0	0	0	0	
4	0	0	0	0	532	486	0	0	0	0	
5	0	0	0	0	531	486	0	0	0	0	
6	0	0	0	0	531	487	0	0	0	0	
7	0	0	0	0	531	487	0	0	0	0	
8	0	0	0	0	531	487	0	0	0	0	
9	0	0	0	0	531	488	0	0	0	0	
10	0	0	0	0	531	488	0	0	0	0	
11	0	0	0	0	531	489	0	0	0	0	
12	0	0	0	0	531	490	0	0	0	0	
13	0	0	0	0	531	489	0	0	0	0	
14	0	0	0	0	530	489	0	0	0	0	
15	0	0	0	0	529	488	0	0	0	0	
0	0	0	0	0	528	487	0	0	0	0	
1	0	0	0	0	527	486	0	0	0	0	
2	0	0	0	0	526	484	0	0	0	0	
3	0	0	0	0	525	483	0	0	0	0	
4	0	0	0	0	524	480	0	0	0	0	
5	0	0	0	0	524	480	0	0	0	0	
6	0	0	0	0	523	479	0	0	0	0	
7	0	0	0	0	523	478	0	0	0	0	
8	0	0	0	0	523	477	0	0	0	0	
9	0	0	0	0	523	478	0	0	0	0	
10	0	0	0	0	524	479	0	0	0	0	
11	0	0	0	0	525	480	0	0	0	0	
12	0	0	0	0	526	481	0	0	0	0	
13	0	0	0	0	527	482	0	0	0	0	
14	0	0	0	0	527	484	0	0	0	0	
15	0	0	0	0	528	485	0	0	0	0	
0	0	0	0	0	529	486	0	0	0	0	
1	0	0	0	0	529	487	0	0	0	0	
2	0	0	0	0	529	486	0	0	0	0	
3	0	0	0	0	528	486	0	0	0	0	
4	0	0	0	0	528	485	0	0	0	0	
5	0	0	0	0	527	484	0	0	0	0	
6	0	0	0	0	526	483	0	0	0	0	
7	0	0	0	0	525	481	0	0	0	0	
8	0	0	0	0	524	481	0	0	0	0	
9	0	0	0	0	524	481	0	0	0	0	
10	0	0	0	0	524	481	0	0	0	0	
11	0	0	0	0	525	481	0	0	0	0	
12	0	0	0	0	526	481	0	0	0	0	
13	0	0	0	0	526	482	0	0	0	0	
14	0	0	0	0	527	483	0	0	0	0	
15	0	0	0	0	528	484	0	0	0	0	
0	0	0	0	0	529	485	0	0	0	0	
1	0	0	0	0	529	486	0	0	0	0	
2	0	0	0	0	529	487	0	0	0	0	
3	0	0	0	0	531	487	0	0	0	0	
4	0	0	0	0	531	487	0	0	0	0	
5	0	0	0	0	530	486	0	0	0	0	
6	0	0	0	0	529	484	0	0	0	0	
7	0	0	0	0	528	483	0	0	0	0	
8	0	0	0	0	528	481	0	0	0	0	
9	0	0	0	0	527	480	0	0	0	0	
10	0	0	0	0	527	478	0	0	0	0	
11	0	0	0	0	525	477	0	0	0	0	
12	0	0	0	0	525	476	0	0	0	0	
13	0	0	0	0	525	476	0	0	0	0	
14	0	0	0	0	524	476	0	0	0	0	
15	0	0	0	0	524	477	0	0	0	0	
0	0	0	0	0	523	477	0	0	0	0	
1	0	0	0	0	523	478	0	0	0	0	
2	0	0	0	0	523	479	0	0	0	0	
3	0	0	0	0	522	480	0	0	0	0	
4	0	0	0	0	523	480	0	0	0	0	
5	0	0	0	0	521	481	0	0	0	0	
6	0	0	0	0	522	481	0	0	0	0	
7	0	0	0	0	521	481	0	0	0	0	
8	0	0	0	0	521	481	0	0	0	0	
9	0	0	0	0	521	480	0	0	0	0	
10	0	0	0	0	522	480	0	0	0	0	
11	0	0	0	0	522	478	0	0	0	0	
12	0	0	0	0	522	478	0	0	0	0	
13	0	0	0	0	522	476	0	0	0	0	
14	0	0	0	0	521	475	0	0	0	0	
15	0	0	0	0	521	472	0	0	0	0	
0	0	0	0	0	520	471	0	0	0	0	
1	0	0	0	0	520	470	0	0	0	0	
2	0	0	0	0	520	469	0	0	0	0	
3	0	0	0	0	519	469	0	0	0	0	
4	0	0	0	0	519	468	0	0	0	0	
5	0	0	0	0	518	468	0	0	0	0	
6	0	0	0	0	518	470	0	0	0	0	
7	0	0	0	0	518	471	0	0	0	0	
8	0	0	0	0	518	472	0	0	0	0	
9	0	0	0	0	518	474	0	0	0	0	
10	0	0	0	0	519	475	0	0	0	0	
11	0	0	0	0	520	478	0	0	0	0	
12	0	0	0	0	521	478	0	0	0	0	
13	0	0	0	0	521	480	0	0	0	0	
14	0	0	0	0	522	480	0	0	0	0	
15	0	0	0	0	523	480	0	0	0	0	
0	0	0	0	0	524	480	0	0	0	0	
1	0	0	0	0	524	480	0	0	0	0	
2	0	0	0	0	525	479	0	0	0	0	
3	0	0	0	0	525	478	0	0	0	0	
4	0	0	0	0	525	477	0	0	0	0	
5	0	0	0	0	524	476	0	0	0	0	
6	0	0	0	0	524	474	0	0	0	0	
7	0	0	0	0	521	472	0	0	0	0	
8	0	0	0	0	519	470	0	0	0	0	
9	0	0	0	0	514	467	0	0	0	0	
10	0	0	0	0	510	463	0	0	0	0	
11	0	0	0	0	504	459	0	0	0	0	
12	0	0	0	0	497	454	0	0	0	0	
13	0	0	0	0	489	448	0	0	0	0	
14	0	0	0	0	480	440	0	0	0	0	
15	0	0	0	0	471	432	0	0	0	0	
0	0	0	0	0	461	423	0	0	0	0	
1	0	0	0	0	451	413	0	0	0	0	
2	0	0	0	0	440	402	0	0	0	0	
3	0	0	0	0	429	390	0	0	0	0	
4	0	0	0	0	418	378	0	0	0	0	
5	0	0	0	0	407	365	0	0	0	0	
6	0	0	0	0	396	352	0	0	0	0	
7	0	0	0	0	384	339	0	0	0	0	
8	0	0	0	0	372	326	0	0	0	0	
9	0	0	0	0	361	313	0	0	0	0	
10	0	0	0	0	349	300	0	0	0	0	
11	0	0	0	0	337	287	0	0	0	0	
12	0	0	0	0	325	276	0	0	0	0	
13	0	0	0	0	313	265	0	0	0	0	
14	0	0	0	0	301	255	0	0	0	0	
15	0	0	0	0	292	248	0	0	0	0	
0	0	0	0	0	285	243	0	0	0	0	
1	0	0	0	0	281	239	0	0	0	0	
2	0	0	0	0	280	239	0	0	0	0	
3	0	0	0	0	283	243	0	0	0	0	
4	0	0	0	0	290	249	0	0	0	0	
5	0	0	0	0	301	259	0	0	0	0	
6	0	0	0	0	316	271	0	0	0	0	
7	0	0	0	0	334	287	0	0	0	0	
8	0	0	0	0	356	304	0	0	0	0	
9	0	0	0	0	380	323	0	0	0	0	
10	0	0	0	0	406	344	0	0	0	0	
11	0	0	0	0	431	365	0	0	0	0	
12	0	0	0	0	456	385	0	0	0	0	
13	0	0	0	0	480	407	0	0	0	0	
14	0	0	0	0	502	427	0	0	0	0	
15	0	0	0	0	521	446	0	0	0	0	
0	0	0	0	0	537	462	0	0	0	0	
1	0	0	0	0	550	476	0	0	0	0	
2	0	0	0	0	559	488	0	0	0	0	
3	0	0	0	0	566	498	0	0	0	0	
4	0	0	0	0	568	505	0	0	0	0	
5	0	0	0	0	569	510	0	0	0	0	
6	0	0	0	0	567	512	0	0	0	0	
7	0	0	0	0	563	513	0	0	0	0	
8	0	0	0	0	558	511	0	0	0	0	
9	0	0	0	0	552	508	0	0	0	0	
10	0	0	0	0	547	504	0	0	0	0	
11	0	0	0	0	540	499	0	0	0	0	
12	0	0	0	0	536	494	0	0	0	0	
13	0	0	0	0	532	489	0	0	0	0	
14	0	0	0	0	528	484	0	0	0	0	
15	0	0	0	0	527	480	0	0	0	0	
0	0	0	0	0	525	477	0	0	0	0	
1	0	0	0	0	526	475	0	0	0	0	
2	0	0	0	0	527	474	0	0	0	0	
3	0	0	0	0	528	475	0	0	0	0	
4	0	0	0	0	531	477	0	0	0	0	
5	0	0	0	0	533	479	0	0	0	0	
6	0	0	0	0	536	483	0	0	0	0	
7	0	0	0	0	539	487	0	0	0	0	
8	0	0	0	0	541	491	0	0	0	0	
9	0	0	0	0	543	494	0	0	0	0	
10	0	0	0	0	545	497	0	0	0	0	
11	0	0	0	0	547	500	0	0	0	0	
12	0	0	0	0	547	502	0	0	0	0	
13	0	0	0	0	547	502	0	0	0	0	
14	0	0	0	0	547	502	0	0	0	0	
15	0	0	0	0	547	500	0	0	0	0	
0	0	0	0	0	547	499	0	0	0	0	
1	0	0	0	0	547	498	0	0	0	0	
2	0	0	0	0	545	496	0	0	0	0	
3	0	0	0	0	546	494	0	0	0	0	
4	0	0	0	0	545	493	0	0	0	0	
5	0	0	0	0	545	492	0	0	0	0	
6	0	0	0	0	545	492	0	0	0	0	
7	0	0	0	0	545	492	0	0	0	0	
8	0	0	0	0	546	493	0	0	0	0	
9	0	0	0	0	545	494	0	0	0	0	
10	0	0	0	0	546	496	0	0	0	0	
11	0	0	0	0	546	496	0	0	0	0	
12	0	0	0	0	547	498	0	0	0	0	
13	0	0	0	0	546	498	0	0	0	0	
14	0	0	0	0	545	499	0	0	0	0	
15	0	0	0	0	546	500	0	0	0	0	
0	0	0	0	0	546	500	0	0	0	0	
1	0	0	0	0	545	499	0	0	0	0	
2	0	0	0	0	545	498	0	0	0	0	
3	0	0	0	0	544	498	0	0	0	0	
4	0	0	0	0	544	496	0	0	0	0	
5	0	0	0	0	544	495	0	0	0	0	
6	0	0	0	0	544	494	0	0	0	0	
7	0	0	0	0	544	493	0	0	0	0	
8	0	0	0	0	543	492	0	0	0	0	
9	0	0	0	0	544	492	0	0	0	0	
10	0	0	0	0	545	492	0	0	0	0	
11	0	0	0	0	546	493	0	0	0	0	
12	0	0	0	0	546	493	0	0	0	0	
13	0	0	0	0	547	495	0	0	0	0	
14	0	0	0	0	548	497	0	0	0	0	
15	0	0	0	0	549	499	0	0	0	0	
0	0	0	0	0	550	500	0	0	0	0	
1	0	0	0	0	551	502	0	0	0	0	
2	0	0	0	0	551	504	0	0	0	0	
3	0	0	0	0	552	505	0	0	0	0	
4	0	0	0	0	552	505	0	0	0	0	
5	0	0	0	0	552	504	0	0	0	0	
6	0	0	0	0	551	502	0	0	0	0	
7	0	0	0	0	550	501	0	0	0	0	
8	0	0	0	0	548	498	0	0	0	0	
9	0	0	0	0	546	496	0	0	0	0	
10	0	0	0	0	544	493	0	0	0	0	
11	0	0	0	0	543	490	0	0	0	0	
12	0	0	0	0	541	487	0	0	0	0	
13	0	0	0	0	539	486	0	0	0	0	
14	0	0	0	0	538	486	0	0	0	0	
15	0	0	0	0	537	485	0	0	0	0	
0	0	0	0	0	536	485	0	0	0	0	
1	0	0	0	0	535	487	0	0	0	0	
2	0	0	0	0	536	488	0	0	0	0	
3	0	0	0	0	536	489	0	0	0	0	
4	0	0	0	0	537	492	0	0	0	0	
5	0	0	0	0	539	493	0	0	0	0	
6	0	0	0	0	540	495	0	0	0	0	
7	0	0	0	0	542	496	0	0	0	0	
8	0	0	0	0	543	497	0	0	0	0	
9	0	0	0	0	543	496	0	0	0	0	
10	0	0	0	0	543	496	0	0	0	0	
11	0	0	0	0	543	494	0	0	0	0	
12	0	0	0	0	543	493	0	0	0	0	
13	0	0	0	0	542	491	0	0	0	0	
14	0	0	0	0	541	488	0	0	0	0	
15	0	0	0	0	539	486	0	0	0	0	
0	0	0	0	0	537	483	0	0	0	0	
1	0	0	0	0	536	481	0	0	0	0	
2	0	0	0	0	535	481	0	0	0	0	
3	0	0	0	0	534	480	0	0	0	0	
4	0	0	0	0	533	480	0	0	0	0	
5	0	0	0	0	533	480	0	0	0	0	
6	0	0	0	0	534	482	0	0	0	0	
7	0	0	0	0	535	484	0	0	0	0	
8	0	0	0	0	536	486	0	0	0	0	
9	0	0	0	0	536	487	0	0	0	0	
10	0	0	0	0	538	490	0	0	0	0	
11	0	0	0	0	539	491	0	0	0	0	
12	0	0	0	0	539	492	0	0	0	0	
13	0	0	0	0	540	491	0	0	0	0	
14	0	0	0	0	539	490	0	0	0	0	
15	0	0	0	0	539	489	0	0	0	0	
0	0	0	0	0	539	487	0	0	0	0	
1	0	0	0	0	538	486	0	0	0	0	
2	0	0	0	0	537	484	0	0	0	0	
3	0	0	0	0	536	481	0	0	0	0	
4	0	0	0	0	535	480	0	0	0	0	
5	0	0	0	0	534	479	0	0	0	0	
6	0	0	0	0	533	478	0	0	0	0	
7	0	0	0	0	531	477	0	0	0	0	
8	0	0	0	0	531	478	0	0	0	0	
9	0	0	0	0	531	477	0	0	0	0	
10	0	0	0	0	530	479	0	0	0	0	
11	0	0	0	0	530	480	0	0	0	0	
12	0	0	0	0	530	482	0	0	0	0	
13	0	0	0	0	530	484	0	0	0	0	
14	0	0	0	0	529	485	0	0	0	0	
15	0	0	0	0	530	487	0	0	0	0	
0	0	0	0	0	530	487	0	0	0	0	
1	0	0	0	0	530	488	0	0	0	0	
2	0	0	0	0	529	487	0	0	0	0	
3	0	0	0	0	529	487	0	0	0	0	
4	0	0	0	0	529	486	0	0	0	0	
5	0	0	0	0	529	484	0	0	0	0	
6	0	0	0	0	528	484	0	0	0	0	
7	0	0	0	0	529	483	0	0	0	0	
8	0	0	0	0	529	481	0	0	0	0	
9	0	0	0	0	529	481	0	0	0	0	
10	0	0	0	0	530	481	0	0	0	0	
11	0	0	0	0	531	481	0	0	0	0	
12	0	0	0	0	531	482	0	0	0	0	
13	0	0	0	0	532	483	0	0	0	0	
14	0	0	0	0	534	485	0	0	0	0	
15	0	0	0	0	534	486	0	0	0	0	
0	0	0	0	0	535	487	0	0	0	0	
1	0	0	0	0	536	487	0	0	0	0	
2	0	0	0	0	536	487	0	0	0	0	
3	0	0	0	0	536	488	0	0	0	0	
4	0	0	0	0	536	487	0	0	0	0	
5	0	0	0	0	536	486	0	0	0	0	
6	0	0	0	0	535	484	0	0	0	0	
7	0	0	0	0	534	482	0	0	0	0	
8	0	0	0	0	533	480	0	0	0	0	
9	0	0	0	0	531	477	0	0	0	0	
10	0	0	0	0	530	475	0	0	0	0	
11	0	0	0	0	528	473	0	0	0	0	
12	0	0	0	0	526	471	0	0	0	0	
13	0	0	0	0	525	470	0	0	0	0	
14	0	0	0	0	524	470	0	0	0	0	
15	0	0	0	0	523	470	0	0	0	0	
0	0	0	0	0	523	471	0	0	0	0	
1	0	0	0	0	523	472	0	0	0	0	
2	0	0	0	0	524	474	0	0	0	0	
3	0	0	0	0	526	476	0	0	0	0	
4	0	0	0	0	527	479	0	0	0	0	
5	0	0	0	0	529	481	0	0	0	0	
6	0	0	0	0	530	482	0	0	0	0	
7	0	0	0	0	532	484	0	0	0	0	
8	0	0	0	0	533	485	0	0	0	0	
9	0	0	0	0	534	486	0	0	0	0	
10	0	0	0	0	534	486	0	0	0	0	
11	0	0	0	0	534	485	0	0	0	0	
12	0	0	0	0	535	484	0	0	0	0	
13	0	0	0	0	534	483	0	0	0	0	
14	0	0	0	0	533	481	0	0	0	0	
15	0	0	0	0	533	480	0	0	0	0	
0	0	0	0	0	531	479	0	0	0	0	
1	0	0	0	0	531	479	0	0	0	0	
2	0	0	0	0	531	478	0	0	0	0	
3	0	0	0	0	531	479	0	0	0	0	
4	0	0	0	0	531	480	0	0	0	0	
5	0	0	0	0	531	480	0	0	0	0	
6	0	0	0	0	532	483	0	0	0	0	
7	0	0	0	0	532	485	0	0	0	0	
8	0	0	0	0	533	487	0	0	0	0	
9	0	0	0	0	534	489	0	0	0	0	
10	0	0	0	0	535	491	0	0	0	0	
11	0	0	0	0	537	492	0	0	0	0	
12	0	0	0	0	538	493	0	0	0	0	
13	0	0	0	0	540	494	0	0	0	0	
14	0	0	0	0	540	493	0	0	0	0	
15	0	0	0	0	541	493	0	0	0	0	
0	0	0	0	0	542	492	0	0	0	0	
1	0	0	0	0	542	491	0	0	0	0	
2	0	0	0	0	542	489	0	0	0	0	
3	0	0	0	0	541	487	0	0	0	0	
4	0	0	0	0	540	486	0	0	0	0	
5	0	0	0	0	539	485	0	0	0	0	
6	0	0	0	0	537	484	0	0	0	0	
7	0	0	0	0	536	483	0	0	0	0	
8	0	0	0	0	535	483	0	0	0	0	
9	0	0	0	0	533	484	0	0	0	0	
10	0	0	0	0	533	485	0	0	0	0	
11	0	0	0	0	532	487	0	0	0	0	
12	0	0	0	0	532	488	0	0	0	0	
13	0	0	0	0	533	489	0	0	0	0	
14	0	0	0	0	533	491	0	0	0	0	
15	0	0	0	0	534	492	0	0	0	0	
0	0	0	0	0	535	492	0	0	0	0	
1	0	0	0	0	536	492	0	0	0	0	
2	0	0	0	0	537	491	0	0	0	0	
3	0	0	0	0	537	490	0	0	0	0	
4	0	0	0	0	538	489	0	0	0	0	
5	0	0	0	0	539	488	0	0	0	0	
6	0	0	0	0	539	487	0	0	0	0	
7	0	0	0	0	538	484	0	0	0	0	
8	0	0	0	0	537	483	0	0	0	0	
9	0	0	0	0	537	483	0	0	0	0	
10	0	0	0	0	536	482	0	0	0	0	
11	0	0	0	0	536	482	0	0	0	0	
12	0	0	0	0	534	481	0	0	0	0	
13	0	0	0	0	534	483	0	0	0	0	
14	0	0	0	0	534	483	0	0	0	0	
15	0	0	0	0	534	485	0	0	0	0	
0	0	0	0	0	534	485	0	0	0	0	
1	0	0	0	0	534	486	0	0	0	0	
2	0	0	0	0	534	487	0	0	0	0	
3	0	0	0	0	535	488	0	0	0	0	
4	0	0	0	0	535	489	0	0	0	0	
5	0	0	0	0	536	489	0	0	0	0	
6	0	0	0	0	536	489	0	0	0	0	
7	0	0	0	0	536	487	0	0	0	0	
8	0	0	0	0	536	487	0	0	0	0	
9	0	0	0	0	536	487	0	0	0	0	
10	0	0	0	0	535	485	0	0	0	0	
11	0	0	0	0	534	483	0	0	0	0	
12	0	0	0	0	532	481	0	0	0	0	
13	0	0	0	0	531	480	0	0	0	0	
14	0	0	0	0	529	478	0	0	0	0	
15	0	0	0	0	527	476	0	0	0	0	
0	0	0	0	0	526	475	0	0	0	0	
1	0	0	0	0	524	475	0	0	0	0	
2	0	0	0	0	524	474	0	0	0	0	
3	0	0	0	0	523	473	0	0	0	0	
4	0	0	0	0	523	474	0	0	0	0	
5	0	0	0	0	524	474	0	0	0	0	
6	0	0	0	0	525	474	0	0	0	0	
7	0	0	0	0	527	475	0	0	0	0	
8	0	0	0	0	528	476	0	0	0	0	
9	0	0	0	0	529	476	0	0	0	0	
10	0	0	0	0	531	476	0	0	0	0	
11	0	0	0	0	532	475	0	0	0	0	
12	0	0	0	0	532	476	0	0	0	0	
13	0	0	0	0	533	475	0	0	0	0	
14	0	0	0	0	533	474	0	0	0	0	
15	0	0	0	0	532	473	0	0	0	0	
0	0	0	0	0	531	472	0	0	0	0	
1	0	0	0	0	531	471	0	0	0	0	
2	0	0	0	0	529	471	0	0	0	0	
3	0	0	0	0	528	471	0	0	0	0	
4	0	0	0	0	527	471	0	0	0	0	
5	0	0	0	0	525	471	0	0	0	0	
6	0	0	0	0	524	472	0	0	0	0	
7	0	0	0	0	523	472	0	0	0	0	
8	0	0	0	0	521	472	0	0	0	0	
9	0	0	0	0	521	473	0	0	0	0	
10	0	0	0	0	520	473	0	0	0	0	
11	0	0	0	0	521	473	0	0	0	0	
12	0	0	0	0	521	473	0	0	0	0	
13	0	0	0	0	521	472	0	0	0	0	
14	0	0	0	0	523	472	0	0	0	0	
15	0	0	0	0	523	470	0	0	0	0	
0	0	0	0	0	524	469	0	0	0	0	
1	0	0	0	0	525	468	0	0	0	0	
2	0	0	0	0	526	467	0	0	0	0	
3	0	0	0	0	526	465	0	0	0	0	
4	0	0	0	0	527	465	0	0	0	0	
5	0	0	0	0	527	465	0	0	0	0	
6	0	0	0	0	527	466	0	0	0	0	
7	0	0	0	0	528	467	0	0	0	0	
8	0	0	0	0	527	468	0	0	0	0	
9	0	0	0	0	528	469	0	0	0	0	
10	0	0	0	0	528	472	0	0	0	0	
11	0	0	0	0	529	474	0	0	0	0	
12	0	0	0	0	529	476	0	0	0	0	
13	0	0	0	0	530	478	0	0	0	0	
14	0	0	0	0	529	478	0	0	0	0	
15	0	0	0	0	529	480	0	0	0	0	
0	0	0	0	0	528	480	0	0	0	0	
1	0	0	0	0	528	479	0	0	0	0	
2	0	0	0	0	526	477	0	0	0	0	
3	0	0	0	0	524	475	0	0	0	0	
4	0	0	0	0	523	473	0	0	0	0	
5	0	0	0	0	521	470	0	0	0	0	
6	0	0	0	0	520	468	0	0	0	0	
7	0	0	0	0	519	465	0	0	0	0	
8	0	0	0	0	518	463	0	0	0	0	
9	0	0	0	0	518	462	0	0	0	0	
10	0	0	0	0	518	461	0	0	0	0	
11	0	0	0	0	519	462	0	0	0	0	
12	0	0	0	0	520	463	0	0	0	0	
13	0	0	0	0	520	464	0	0	0	0	
14	0	0	0	0	521	465	0	0	0	0	
15	0	0	0	0	522	468	0	0	0	0	
0	0	0	0	0	522	469	0	0	0	0	
1	0	0	0	0	523	471	0	0	0	0	
2	0	0	0	0	522	472	0	0	0	0	
3	0	0	0	0	522	472	0	0	0	0	
4	0	0	0	0	521	472	0	0	0	0	
5	0	0	0	0	520	472	0	0	0	0	
6	0	0	0	0	520	472	0	0	0	0	
7	0	0	0	0	520	470	0	0	0	0	
8	0	0	0	0	520	469	0	0	0	0	
9	0	0	0	0	520	467	0	0	0	0	
10	0	0	0	0	520	466	0	0	0	0	
11	0	0	0	0	521	466	0	0	0	0	
12	0	0	0	0	521	464	0	0	0	0	
13	0	0	0	0	521	465	0	0	0	0	
14	0	0	0	0	521	464	0	0	0	0	
15	0	0	0	0	521	464	0	0	0	0	
0	0	0	0	0	521	464	0	0	0	0	
1	0	0	0	0	521	464	0	0	0	0	
2	0	0	0	0	520	466	0	0	0	0	
3	0	0	0	0	521	467	0	0	0	0	
4	0	0	0	0	520	468	0	0	0	0	
5	0	0	0	0	521	469	0	0	0	0	
6	0	0	0	0	521	471	0	0	0	0	
7	0	0	0	0	521	472	0	0	0	0	
8	0	0	0	0	521	472	0	0	0	0	
9	0	0	0	0	522	472	0	0	0	0	
10	0	0	0	0	522	472	0	0	0	0	
11	0	0	0	0	522	471	0	0	0	0	
12	0	0	0	0	522	470	0	0	0	0	
13	0	0	0	0	522	468	0	0	0	0	
14	0	0	0	0	521	467	0	0	0	0	
15	0	0	0	0	521	465	0	0	0	0	
0	0	0	0	0	520	463	0	0	0	0	
1	0	0	0	0	519	463	0	0	0	0	
2	0	0	0	0	519	462	0	0	0	0	
3	0	0	0	0	518	461	0	0	0	0	
4	0	0	0	0	518	460	0	0	0	0	
5	0	0	0	0	517	460	0	0	0	0	
6	0	0	0	0	516	461	0	0	0	0	
7	0	0	0	0	516	462	0	0	0	0	
8	0	0	0	0	516	462	0	0	0	0	
9	0	0	0	0	516	463	0	0	0	0	
10	0	0	0	0	516	463	0	0	0	0	
11	0	0	0	0	517	464	0	0	0	0	
12	0	0	0	0	517	464	0	0	0	0	
13	0	0	0	0	517	464	0	0	0	0	
14	0	0	0	0	518	464	0	0	0	0	
15	0	0	0	0	518	463	0	0	0	0	
0	0	0	0	0	518	463	0	0	0	0	
1	0	0	0	0	519	462	0	0	0	0	
2	0	0	0	0	518	461	0	0	0	0	
3	0	0	0	0	519	460	0	0	0	0	
4	0	0	0	0	518	459	0	0	0	0	
5	0	0	0	0	519	459	0	0	0	0	
6	0	0	0	0	518	459	0	0	0	0	
7	0	0	0	0	518	459	0	0	0	0	
8	0	0	0	0	517	459	0	0	0	0	
9	0	0	0	0	516	459	0	0	0	0	
10	0	0	0	0	515	460	0	0	0	0	
11	0	0	0	0	515	461	0	0	0	0	
12	0	0	0	0	514	462	0	0	0	0	
13	0	0	0	0	514	462	0	0	0	0	
14	0	0	0	0	513	462	0	0	0	0	
15	0	0	0	0	513	462	0	0	0	0	
0	0	0	0	0	513	462	0	0	0	0	
1	0	0	0	0	512	461	0	0	0	0	
2	0	0	0	0	513	460	0	0	0	0	
3	0	0	0	0	512	458	0	0	0	0	
4	0	0	0	0	513	457	0	0	0	0	
5	0	0	0	0	513	456	0	0	0	0	
6	0	0	0	0	513	455	0	0	0	0	
7	0	0	0	0	513	455	0	0	0	0	
8	0	0	0	0	513	454	0	0	0	0	
9	0	0	0	0	513	454	0	0	0	0	
10	0	0	0	0	513	454	0	0	0	0	
11	0	0	0	0	513	455	0	0	0	0	
12	0	0	0	0	513	456	0	0	0	0	
13	0	0	0	0	513	457	0	0	0	0	
14	0	0	0	0	514	459	0	0	0	0	
15	0	0	0	0	513	461	0	0	0	0	
0	0	0	0	0	513	463	0	0	0	0	
1	0	0	0	0	514	464	0	0	0	0	
2	0	0	0	0	514	465	0	0	0	0	
3	0	0	0	0	514	466	0	0	0	0	
4	0	0	0	0	514	466	0	0	0	0	
5	0	0	0	0	514	465	0	0	0	0	
6	0	0	0	0	514	464	0	0	0	0	
7	0	0	0	0	513	462	0	0	0	0	
8	0	0	0	0	513	460	0	0	0	0	
9	0	0	0	0	512	457	0	0	0	0	
10	0	0	0	0	511	455	0	0	0	0	
11	0	0	0	0	510	452	0	0	0	0	
12	0	0	0	0	508	450	0	0	0	0	
13	0	0	0	0	508	448	0	0	0	0	
