# OpenSignals Text File Format. Version 1
# {"": {"position": 0, "device": "", "device name": "", "device connection": "", "sampling rate": 1000, "resolution": [4, 1, 1, 1, 1, 10, 10, 10, 10, 6, 6], "firmware version": 1281, "comments": "", "keywords": "", "mode": 0, "sync interval": 2, "date": "", "time": "", "channels": [1, 2, 3, 4, 5, 6], "sensor": ["RAW", "RAW", "RAW", "RAW", "RAW", "RAW"], "label": ["A1", "A2", "A3", "A4", "A5", "A6"], "column": ["nSeq", "I1", "I2", "O1", "O2", "A1", "A2", "A3", "A4", "A5", "A6"], "special": [{}, {}, {}, {}, {}, {}], "digital IO": [0, 0, 1, 1], "convertedValues": 0}}
# EndOfHeader
0	0	0	0	0	560	485	0	0	0	0	
1	0	0	0	0	563	490	0	0	0	0	
2	0	0	0	0	563	492	0	0	0	0	
3	0	0	0	0	560	489	0	0	0	0	
4	0	0	0	0	556	484	0	0	0	0	
5	0	0	0	0	550	477	0	0	0	0	
6	0	0	0	0	543	467	0	0	0	0	
7	0	0	0	0	536	456	0	0	0	0	
8	0	0	0	0	530	446	0	0	0	0	
9	0	0	0	0	524	435	0	0	0	0	
10	0	0	0	0	519	427	0	0	0	0	
11	0	0	0	0	518	421	0	0	0	0	
12	0	0	0	0	517	419	0	0	0	0	
13	0	0	0	0	519	419	0	0	0	0	
14	0	0	0	0	521	423	0	0	0	0	
15	0	0	0	0	526	429	0	0	0	0	
0	0	0	0	0	531	437	0	0	0	0	
1	0	0	0	0	537	446	0	0	0	0	
2	0	0	0	0	542	456	0	0	0	0	
3	0	0	0	0	547	465	0	0	0	0	
4	0	0	0	0	551	473	0	0	0	0	
5	0	0	0	0	553	478	0	0	0	0	
6	0	0	0	0	555	480	0	0	0	0	
7	0	0	0	0	553	479	0	0	0	0	
8	0	0	0	0	551	476	0	0	0	0	
9	0	0	0	0	546	470	0	0	0	0	
10	0	0	0	0	540	462	0	0	0	0	
11	0	0	0	0	535	452	0	0	0	0	
12	0	0	0	0	530	443	0	0	0	0	
13	0	0	0	0	524	433	0	0	0	0	
14	0	0	0	0	519	425	0	0	0	0	
15	0	0	0	0	516	420	0	0	0	0	
0	0	0	0	0	516	417	0	0	0	0	
1	0	0	0	0	515	417	0	0	0	0	
2	0	0	0	0	518	421	0	0	0	0	
3	0	0	0	0	522	427	0	0	0	0	
4	0	0	0	0	526	435	0	0	0	0	
5	0	0	0	0	532	445	0	0	0	0	
6	0	0	0	0	537	455	0	0	0	0	
7	0	0	0	0	543	465	0	0	0	0	
8	0	0	0	0	547	473	0	0	0	0	
9	0	0	0	0	551	478	0	0	0	0	
10	0	0	0	0	552	481	0	0	0	0	
11	0	0	0	0	551	480	0	0	0	0	
12	0	0	0	0	549	476	0	0	0	0	
13	0	0	0	0	545	470	0	0	0	0	
14	0	0	0	0	539	461	0	0	0	0	
15	0	0	0	0	533	450	0	0	0	0	
0	0	0	0	0	527	440	0	0	0	0	
1	0	0	0	0	520	430	0	0	0	0	
2	0	0	0	0	516	422	0	0	0	0	
3	0	0	0	0	511	415	0	0	0	0	
4	0	0	0	0	511	413	0	0	0	0	
5	0	0	0	0	510	413	0	0	0	0	
6	0	0	0	0	513	417	0	0	0	0	
7	0	0	0	0	516	424	0	0	0	0	
8	0	0	0	0	522	433	0	0	0	0	
9	0	0	0	0	528	444	0	0	0	0	
10	0	0	0	0	535	455	0	0	0	0	
11	0	0	0	0	542	466	0	0	0	0	
12	0	0	0	0	548	476	0	0	0	0	
13	0	0	0	0	553	483	0	0	0	0	
14	0	0	0	0	557	487	0	0	0	0	
15	0	0	0	0	559	488	0	0	0	0	
0	0	0	0	0	559	486	0	0	0	0	
1	0	0	0	0	558	481	0	0	0	0	
2	0	0	0	0	555	475	0	0	0	0	
3	0	0	0	0	552	467	0	0	0	0	
4	0	0	0	0	548	459	0	0	0	0	
5	0	0	0	0	545	451	0	0	0	0	
6	0	0	0	0	541	444	0	0	0	0	
7	0	0	0	0	539	440	0	0	0	0	
8	0	0	0	0	537	437	0	0	0	0	
9	0	0	0	0	536	438	0	0	0	0	
10	0	0	0	0	536	440	0	0	0	0	
11	0	0	0	0	538	445	0	0	0	0	
12	0	0	0	0	540	451	0	0	0	0	
13	0	0	0	0	543	460	0	0	0	0	
14	0	0	0	0	545	467	0	0	0	0	
15	0	0	0	0	548	475	0	0	0	0	
0	0	0	0	0	551	481	0	0	0	0	
1	0	0	0	0	551	485	0	0	0	0	
2	0	0	0	0	551	487	0	0	0	0	
3	0	0	0	0	550	485	0	0	0	0	
4	0	0	0	0	547	481	0	0	0	0	
5	0	0	0	0	543	476	0	0	0	0	
6	0	0	0	0	540	469	0	0	0	0	
7	0	0	0	0	535	461	0	0	0	0	
8	0	0	0	0	531	453	0	0	0	0	
9	0	0	0	0	527	445	0	0	0	0	
10	0	0	0	0	524	439	0	0	0	0	
11	0	0	0	0	523	434	0	0	0	0	
12	0	0	0	0	522	431	0	0	0	0	
13	0	0	0	0	522	431	0	0	0	0	
14	0	0	0	0	524	433	0	0	0	0	
15	0	0	0	0	526	437	0	0	0	0	
0	0	0	0	0	529	443	0	0	0	0	
1	0	0	0	0	532	450	0	0	0	0	
2	0	0	0	0	536	457	0	0	0	0	
3	0	0	0	0	540	463	0	0	0	0	
4	0	0	0	0	542	468	0	0	0	0	
5	0	0	0	0	543	472	0	0	0	0	
6	0	0	0	0	543	472	0	0	0	0	
7	0	0	0	0	542	471	0	0	0	0	
8	0	0	0	0	540	466	0	0	0	0	
9	0	0	0	0	536	459	0	0	0	0	
10	0	0	0	0	532	451	0	0	0	0	
11	0	0	0	0	527	443	0	0	0	0	
12	0	0	0	0	523	434	0	0	0	0	
13	0	0	0	0	519	425	0	0	0	0	
14	0	0	0	0	515	418	0	0	0	0	
15	0	0	0	0	513	414	0	0	0	0	
0	0	0	0	0	512	412	0	0	0	0	
1	0	0	0	0	513	413	0	0	0	0	
2	0	0	0	0	515	417	0	0	0	0	
3	0	0	0	0	518	423	0	0	0	0	
4	0	0	0	0	522	432	0	0	0	0	
5	0	0	0	0	526	441	0	0	0	0	
6	0	0	0	0	530	450	0	0	0	0	
7	0	0	0	0	534	459	0	0	0	0	
8	0	0	0	0	537	466	0	0	0	0	
9	0	0	0	0	540	472	0	0	0	0	
10	0	0	0	0	540	474	0	0	0	0	
11	0	0	0	0	540	473	0	0	0	0	
12	0	0	0	0	538	470	0	0	0	0	
13	0	0	0	0	535	464	0	0	0	0	
14	0	0	0	0	532	457	0	0	0	0	
15	0	0	0	0	527	449	0	0	0	0	
0	0	0	0	0	524	440	0	0	0	0	
1	0	0	0	0	519	432	0	0	0	0	
2	0	0	0	0	515	424	0	0	0	0	
3	0	0	0	0	513	419	0	0	0	0	
4	0	0	0	0	512	416	0	0	0	0	
5	0	0	0	0	512	416	0	0	0	0	
6	0	0	0	0	513	419	0	0	0	0	
7	0	0	0	0	516	425	0	0	0	0	
8	0	0	0	0	520	432	0	0	0	0	
9	0	0	0	0	525	440	0	0	0	0	
10	0	0	0	0	531	450	0	0	0	0	
11	0	0	0	0	536	459	0	0	0	0	
12	0	0	0	0	540	466	0	0	0	0	
13	0	0	0	0	543	472	0	0	0	0	
14	0	0	0	0	545	475	0	0	0	0	
15	0	0	0	0	545	475	0	0	0	0	
0	0	0	0	0	543	472	0	0	0	0	
1	0	0	0	0	541	466	0	0	0	0	
2	0	0	0	0	537	460	0	0	0	0	
3	0	0	0	0	534	451	0	0	0	0	
4	0	0	0	0	530	443	0	0	0	0	
5	0	0	0	0	526	436	0	0	0	0	
6	0	0	0	0	524	430	0	0	0	0	
7	0	0	0	0	523	426	0	0	0	0	
8	0	0	0	0	523	425	0	0	0	0	
9	0	0	0	0	524	427	0	0	0	0	
10	0	0	0	0	527	431	0	0	0	0	
11	0	0	0	0	531	438	0	0	0	0	
12	0	0	0	0	534	445	0	0	0	0	
13	0	0	0	0	540	455	0	0	0	0	
14	0	0	0	0	544	464	0	0	0	0	
15	0	0	0	0	549	472	0	0	0	0	
0	0	0	0	0	552	479	0	0	0	0	
1	0	0	0	0	554	483	0	0	0	0	
2	0	0	0	0	555	485	0	0	0	0	
3	0	0	0	0	555	484	0	0	0	0	
4	0	0	0	0	551	480	0	0	0	0	
5	0	0	0	0	548	475	0	0	0	0	
6	0	0	0	0	544	467	0	0	0	0	
7	0	0	0	0	539	459	0	0	0	0	
8	0	0	0	0	535	451	0	0	0	0	
9	0	0	0	0	530	443	0	0	0	0	
10	0	0	0	0	527	437	0	0	0	0	
11	0	0	0	0	525	432	0	0	0	0	
12	0	0	0	0	524	430	0	0	0	0	
13	0	0	0	0	524	430	0	0	0	0	
14	0	0	0	0	526	432	0	0	0	0	
15	0	0	0	0	528	437	0	0	0	0	
0	0	0	0	0	531	443	0	0	0	0	
1	0	0	0	0	535	450	0	0	0	0	
2	0	0	0	0	537	457	0	0	0	0	
3	0	0	0	0	541	464	0	0	0	0	
4	0	0	0	0	543	469	0	0	0	0	
5	0	0	0	0	543	472	0	0	0	0	
6	0	0	0	0	542	472	0	0	0	0	
7	0	0	0	0	539	470	0	0	0	0	
8	0	0	0	0	534	464	0	0	0	0	
9	0	0	0	0	528	455	0	0	0	0	
10	0	0	0	0	522	446	0	0	0	0	
11	0	0	0	0	515	435	0	0	0	0	
12	0	0	0	0	509	424	0	0	0	0	
13	0	0	0	0	504	415	0	0	0	0	
14	0	0	0	0	499	407	0	0	0	0	
15	0	0	0	0	496	401	0	0	0	0	
0	0	0	0	0	496	399	0	0	0	0	
1	0	0	0	0	497	400	0	0	0	0	
2	0	0	0	0	499	405	0	0	0	0	
3	0	0	0	0	504	411	0	0	0	0	
4	0	0	0	0	508	419	0	0	0	0	
5	0	0	0	0	514	429	0	0	0	0	
6	0	0	0	0	518	438	0	0	0	0	
7	0	0	0	0	523	447	0	0	0	0	
8	0	0	0	0	526	453	0	0	0	0	
9	0	0	0	0	529	457	0	0	0	0	
10	0	0	0	0	529	459	0	0	0	0	
11	0	0	0	0	528	457	0	0	0	0	
12	0	0	0	0	525	453	0	0	0	0	
13	0	0	0	0	520	446	0	0	0	0	
14	0	0	0	0	516	438	0	0	0	0	
15	0	0	0	0	511	429	0	0	0	0	
0	0	0	0	0	506	420	0	0	0	0	
1	0	0	0	0	502	412	0	0	0	0	
2	0	0	0	0	499	406	0	0	0	0	
3	0	0	0	0	498	403	0	0	0	0	
4	0	0	0	0	499	402	0	0	0	0	
5	0	0	0	0	501	404	0	0	0	0	
6	0	0	0	0	505	409	0	0	0	0	
7	0	0	0	0	509	417	0	0	0	0	
8	0	0	0	0	515	427	0	0	0	0	
9	0	0	0	0	521	437	0	0	0	0	
10	0	0	0	0	527	447	0	0	0	0	
11	0	0	0	0	531	456	0	0	0	0	
12	0	0	0	0	535	463	0	0	0	0	
13	0	0	0	0	536	468	0	0	0	0	
14	0	0	0	0	537	470	0	0	0	0	
15	0	0	0	0	536	468	0	0	0	0	
0	0	0	0	0	534	464	0	0	0	0	
1	0	0	0	0	529	457	0	0	0	0	
2	0	0	0	0	524	448	0	0	0	0	
3	0	0	0	0	519	438	0	0	0	0	
4	0	0	0	0	515	429	0	0	0	0	
5	0	0	0	0	511	420	0	0	0	0	
6	0	0	0	0	508	412	0	0	0	0	
7	0	0	0	0	507	408	0	0	0	0	
8	0	0	0	0	508	407	0	0	0	0	
9	0	0	0	0	510	409	0	0	0	0	
10	0	0	0	0	513	414	0	0	0	0	
11	0	0	0	0	519	423	0	0	0	0	
12	0	0	0	0	523	433	0	0	0	0	
13	0	0	0	0	530	444	0	0	0	0	
14	0	0	0	0	535	455	0	0	0	0	
15	0	0	0	0	540	466	0	0	0	0	
0	0	0	0	0	543	474	0	0	0	0	
1	0	0	0	0	546	480	0	0	0	0	
2	0	0	0	0	547	484	0	0	0	0	
3	0	0	0	0	545	483	0	0	0	0	
4	0	0	0	0	542	480	0	0	0	0	
5	0	0	0	0	539	473	0	0	0	0	
6	0	0	0	0	533	465	0	0	0	0	
7	0	0	0	0	528	455	0	0	0	0	
8	0	0	0	0	523	445	0	0	0	0	
9	0	0	0	0	518	435	0	0	0	0	
10	0	0	0	0	515	427	0	0	0	0	
11	0	0	0	0	512	421	0	0	0	0	
12	0	0	0	0	512	418	0	0	0	0	
13	0	0	0	0	512	417	0	0	0	0	
14	0	0	0	0	515	419	0	0	0	0	
15	0	0	0	0	518	424	0	0	0	0	
0	0	0	0	0	523	431	0	0	0	0	
1	0	0	0	0	528	440	0	0	0	0	
2	0	0	0	0	532	448	0	0	0	0	
3	0	0	0	0	537	456	0	0	0	0	
4	0	0	0	0	540	463	0	0	0	0	
5	0	0	0	0	541	468	0	0	0	0	
6	0	0	0	0	542	470	0	0	0	0	
7	0	0	0	0	541	469	0	0	0	0	
8	0	0	0	0	538	465	0	0	0	0	
9	0	0	0	0	534	459	0	0	0	0	
10	0	0	0	0	528	451	0	0	0	0	
11	0	0	0	0	525	443	0	0	0	0	
12	0	0	0	0	519	434	0	0	0	0	
13	0	0	0	0	515	427	0	0	0	0	
14	0	0	0	0	512	421	0	0	0	0	
15	0	0	0	0	512	418	0	0	0	0	
0	0	0	0	0	512	417	0	0	0	0	
1	0	0	0	0	514	420	0	0	0	0	
2	0	0	0	0	518	426	0	0	0	0	
3	0	0	0	0	524	435	0	0	0	0	
4	0	0	0	0	530	446	0	0	0	0	
5	0	0	0	0	538	458	0	0	0	0	
6	0	0	0	0	544	470	0	0	0	0	
7	0	0	0	0	551	481	0	0	0	0	
8	0	0	0	0	556	490	0	0	0	0	
9	0	0	0	0	558	495	0	0	0	0	
10	0	0	0	0	560	497	0	0	0	0	
11	0	0	0	0	558	495	0	0	0	0	
12	0	0	0	0	553	487	0	0	0	0	
13	0	0	0	0	545	476	0	0	0	0	
14	0	0	0	0	536	462	0	0	0	0	
15	0	0	0	0	525	445	0	0	0	0	
0	0	0	0	0	512	427	0	0	0	0	
1	0	0	0	0	499	409	0	0	0	0	
2	0	0	0	0	485	391	0	0	0	0	
3	0	0	0	0	473	376	0	0	0	0	
4	0	0	0	0	461	363	0	0	0	0	
5	0	0	0	0	451	353	0	0	0	0	
6	0	0	0	0	443	347	0	0	0	0	
7	0	0	0	0	435	343	0	0	0	0	
8	0	0	0	0	430	343	0	0	0	0	
9	0	0	0	0	425	343	0	0	0	0	
10	0	0	0	0	421	345	0	0	0	0	
11	0	0	0	0	416	345	0	0	0	0	
12	0	0	0	0	409	344	0	0	0	0	
13	0	0	0	0	403	341	0	0	0	0	
14	0	0	0	0	395	335	0	0	0	0	
15	0	0	0	0	384	324	0	0	0	0	
0	0	0	0	0	373	311	0	0	0	0	
1	0	0	0	0	360	295	0	0	0	0	
2	0	0	0	0	347	277	0	0	0	0	
3	0	0	0	0	335	259	0	0	0	0	
4	0	0	0	0	323	241	0	0	0	0	
5	0	0	0	0	314	227	0	0	0	0	
6	0	0	0	0	309	217	0	0	0	0	
7	0	0	0	0	308	212	0	0	0	0	
8	0	0	0	0	313	214	0	0	0	0	
9	0	0	0	0	323	222	0	0	0	0	
10	0	0	0	0	337	237	0	0	0	0	
11	0	0	0	0	356	258	0	0	0	0	
12	0	0	0	0	379	284	0	0	0	0	
13	0	0	0	0	406	313	0	0	0	0	
14	0	0	0	0	433	345	0	0	0	0	
15	0	0	0	0	462	377	0	0	0	0	
0	0	0	0	0	488	408	0	0	0	0	
1	0	0	0	0	512	435	0	0	0	0	
2	0	0	0	0	534	457	0	0	0	0	
3	0	0	0	0	551	475	0	0	0	0	
4	0	0	0	0	564	486	0	0	0	0	
5	0	0	0	0	571	492	0	0	0	0	
6	0	0	0	0	574	491	0	0	0	0	
7	0	0	0	0	573	486	0	0	0	0	
8	0	0	0	0	568	478	0	0	0	0	
9	0	0	0	0	561	467	0	0	0	0	
10	0	0	0	0	553	457	0	0	0	0	
11	0	0	0	0	543	447	0	0	0	0	
12	0	0	0	0	536	439	0	0	0	0	
13	0	0	0	0	528	432	0	0	0	0	
14	0	0	0	0	523	430	0	0	0	0	
15	0	0	0	0	519	429	0	0	0	0	
0	0	0	0	0	516	432	0	0	0	0	
1	0	0	0	0	517	437	0	0	0	0	
2	0	0	0	0	518	443	0	0	0	0	
3	0	0	0	0	520	450	0	0	0	0	
4	0	0	0	0	524	456	0	0	0	0	
5	0	0	0	0	527	462	0	0	0	0	
6	0	0	0	0	530	465	0	0	0	0	
7	0	0	0	0	532	467	0	0	0	0	
8	0	0	0	0	533	466	0	0	0	0	
9	0	0	0	0	534	463	0	0	0	0	
10	0	0	0	0	532	459	0	0	0	0	
11	0	0	0	0	532	453	0	0	0	0	
12	0	0	0	0	530	446	0	0	0	0	
13	0	0	0	0	529	440	0	0	0	0	
14	0	0	0	0	527	435	0	0	0	0	
15	0	0	0	0	527	432	0	0	0	0	
0	0	0	0	0	527	431	0	0	0	0	
1	0	0	0	0	527	432	0	0	0	0	
2	0	0	0	0	529	435	0	0	0	0	
3	0	0	0	0	532	441	0	0	0	0	
4	0	0	0	0	535	448	0	0	0	0	
5	0	0	0	0	539	456	0	0	0	0	
6	0	0	0	0	541	463	0	0	0	0	
7	0	0	0	0	543	470	0	0	0	0	
8	0	0	0	0	545	476	0	0	0	0	
9	0	0	0	0	546	479	0	0	0	0	
10	0	0	0	0	547	480	0	0	0	0	
11	0	0	0	0	545	478	0	0	0	0	
12	0	0	0	0	543	474	0	0	0	0	
13	0	0	0	0	540	467	0	0	0	0	
14	0	0	0	0	537	460	0	0	0	0	
15	0	0	0	0	535	452	0	0	0	0	
0	0	0	0	0	532	444	0	0	0	0	
1	0	0	0	0	530	438	0	0	0	0	
2	0	0	0	0	530	434	0	0	0	0	
3	0	0	0	0	531	432	0	0	0	0	
4	0	0	0	0	534	434	0	0	0	0	
5	0	0	0	0	538	438	0	0	0	0	
6	0	0	0	0	544	444	0	0	0	0	
7	0	0	0	0	549	453	0	0	0	0	
8	0	0	0	0	556	463	0	0	0	0	
9	0	0	0	0	561	473	0	0	0	0	
10	0	0	0	0	566	482	0	0	0	0	
11	0	0	0	0	569	490	0	0	0	0	
12	0	0	0	0	570	495	0	0	0	0	
13	0	0	0	0	570	497	0	0	0	0	
14	0	0	0	0	567	496	0	0	0	0	
15	0	0	0	0	562	491	0	0	0	0	
0	0	0	0	0	555	483	0	0	0	0	
1	0	0	0	0	546	472	0	0	0	0	
2	0	0	0	0	539	461	0	0	0	0	
3	0	0	0	0	531	448	0	0	0	0	
4	0	0	0	0	523	436	0	0	0	0	
5	0	0	0	0	517	425	0	0	0	0	
6	0	0	0	0	513	417	0	0	0	0	
7	0	0	0	0	511	412	0	0	0	0	
8	0	0	0	0	511	410	0	0	0	0	
9	0	0	0	0	514	412	0	0	0	0	
10	0	0	0	0	519	417	0	0	0	0	
11	0	0	0	0	524	424	0	0	0	0	
12	0	0	0	0	530	434	0	0	0	0	
13	0	0	0	0	538	445	0	0	0	0	
14	0	0	0	0	544	455	0	0	0	0	
15	0	0	0	0	550	465	0	0	0	0	
0	0	0	0	0	553	473	0	0	0	0	
1	0	0	0	0	556	478	0	0	0	0	
2	0	0	0	0	557	480	0	0	0	0	
3	0	0	0	0	555	479	0	0	0	0	
4	0	0	0	0	551	475	0	0	0	0	
5	0	0	0	0	546	468	0	0	0	0	
6	0	0	0	0	540	459	0	0	0	0	
7	0	0	0	0	534	449	0	0	0	0	
8	0	0	0	0	528	440	0	0	0	0	
9	0	0	0	0	523	430	0	0	0	0	
10	0	0	0	0	519	423	0	0	0	0	
11	0	0	0	0	517	419	0	0	0	0	
12	0	0	0	0	517	417	0	0	0	0	
13	0	0	0	0	519	418	0	0	0	0	
14	0	0	0	0	521	421	0	0	0	0	
15	0	0	0	0	526	428	0	0	0	0	
0	0	0	0	0	529	435	0	0	0	0	
1	0	0	0	0	535	444	0	0	0	0	
2	0	0	0	0	540	452	0	0	0	0	
3	0	0	0	0	542	460	0	0	0	0	
4	0	0	0	0	544	465	0	0	0	0	
5	0	0	0	0	543	468	0	0	0	0	
6	0	0	0	0	542	468	0	0	0	0	
7	0	0	0	0	538	465	0	0	0	0	
8	0	0	0	0	534	461	0	0	0	0	
9	0	0	0	0	528	453	0	0	0	0	
10	0	0	0	0	524	445	0	0	0	0	
11	0	0	0	0	519	436	0	0	0	0	
12	0	0	0	0	514	428	0	0	0	0	
13	0	0	0	0	511	420	0	0	0	0	
14	0	0	0	0	510	415	0	0	0	0	
15	0	0	0	0	510	412	0	0	0	0	
0	0	0	0	0	512	412	0	0	0	0	
1	0	0	0	0	515	414	0	0	0	0	
2	0	0	0	0	519	419	0	0	0	0	
3	0	0	0	0	524	427	0	0	0	0	
4	0	0	0	0	528	435	0	0	0	0	
5	0	0	0	0	534	444	0	0	0	0	
6	0	0	0	0	539	454	0	0	0	0	
7	0	0	0	0	542	461	0	0	0	0	
8	0	0	0	0	544	467	0	0	0	0	
9	0	0	0	0	546	472	0	0	0	0	
10	0	0	0	0	545	473	0	0	0	0	
11	0	0	0	0	543	471	0	0	0	0	
12	0	0	0	0	540	467	0	0	0	0	
13	0	0	0	0	535	460	0	0	0	0	
14	0	0	0	0	529	452	0	0	0	0	
15	0	0	0	0	524	443	0	0	0	0	
0	0	0	0	0	519	433	0	0	0	0	
1	0	0	0	0	513	424	0	0	0	0	
2	0	0	0	0	509	417	0	0	0	0	
3	0	0	0	0	506	411	0	0	0	0	
4	0	0	0	0	504	408	0	0	0	0	
5	0	0	0	0	504	408	0	0	0	0	
6	0	0	0	0	505	410	0	0	0	0	
7	0	0	0	0	507	414	0	0	0	0	
8	0	0	0	0	510	420	0	0	0	0	
9	0	0	0	0	513	428	0	0	0	0	
10	0	0	0	0	517	435	0	0	0	0	
11	0	0	0	0	520	443	0	0	0	0	
12	0	0	0	0	522	449	0	0	0	0	
13	0	0	0	0	524	453	0	0	0	0	
14	0	0	0	0	524	454	0	0	0	0	
15	0	0	0	0	524	453	0	0	0	0	
0	0	0	0	0	520	448	0	0	0	0	
1	0	0	0	0	516	441	0	0	0	0	
2	0	0	0	0	512	433	0	0	0	0	
3	0	0	0	0	507	423	0	0	0	0	
4	0	0	0	0	503	413	0	0	0	0	
5	0	0	0	0	499	404	0	0	0	0	
6	0	0	0	0	496	397	0	0	0	0	
7	0	0	0	0	494	392	0	0	0	0	
8	0	0	0	0	495	391	0	0	0	0	
9	0	0	0	0	496	393	0	0	0	0	
10	0	0	0	0	500	398	0	0	0	0	
11	0	0	0	0	505	405	0	0	0	0	
12	0	0	0	0	510	414	0	0	0	0	
13	0	0	0	0	516	425	0	0	0	0	
14	0	0	0	0	521	435	0	0	0	0	
15	0	0	0	0	526	444	0	0	0	0	
0	0	0	0	0	529	452	0	0	0	0	
1	0	0	0	0	531	458	0	0	0	0	
2	0	0	0	0	532	460	0	0	0	0	
3	0	0	0	0	531	460	0	0	0	0	
4	0	0	0	0	528	455	0	0	0	0	
5	0	0	0	0	525	449	0	0	0	0	
6	0	0	0	0	520	440	0	0	0	0	
7	0	0	0	0	515	431	0	0	0	0	
8	0	0	0	0	509	419	0	0	0	0	
9	0	0	0	0	504	410	0	0	0	0	
10	0	0	0	0	500	401	0	0	0	0	
11	0	0	0	0	497	395	0	0	0	0	
12	0	0	0	0	496	392	0	0	0	0	
13	0	0	0	0	497	392	0	0	0	0	
14	0	0	0	0	499	397	0	0	0	0	
15	0	0	0	0	503	404	0	0	0	0	
0	0	0	0	0	508	413	0	0	0	0	
1	0	0	0	0	515	425	0	0	0	0	
2	0	0	0	0	521	437	0	0	0	0	
3	0	0	0	0	527	448	0	0	0	0	
4	0	0	0	0	533	458	0	0	0	0	
5	0	0	0	0	536	465	0	0	0	0	
6	0	0	0	0	540	469	0	0	0	0	
7	0	0	0	0	540	469	0	0	0	0	
8	0	0	0	0	537	465	0	0	0	0	
9	0	0	0	0	534	458	0	0	0	0	
10	0	0	0	0	529	449	0	0	0	0	
11	0	0	0	0	523	439	0	0	0	0	
12	0	0	0	0	516	427	0	0	0	0	
13	0	0	0	0	510	416	0	0	0	0	
14	0	0	0	0	504	407	0	0	0	0	
15	0	0	0	0	500	400	0	0	0	0	
0	0	0	0	0	499	397	0	0	0	0	
1	0	0	0	0	499	398	0	0	0	0	
2	0	0	0	0	502	401	0	0	0	0	
3	0	0	0	0	506	408	0	0	0	0	
4	0	0	0	0	511	417	0	0	0	0	
5	0	0	0	0	519	429	0	0	0	0	
6	0	0	0	0	525	440	0	0	0	0	
7	0	0	0	0	531	451	0	0	0	0	
8	0	0	0	0	536	460	0	0	0	0	
9	0	0	0	0	539	466	0	0	0	0	
10	0	0	0	0	542	470	0	0	0	0	
11	0	0	0	0	540	469	0	0	0	0	
12	0	0	0	0	538	466	0	0	0	0	
13	0	0	0	0	534	460	0	0	0	0	
14	0	0	0	0	529	451	0	0	0	0	
15	0	0	0	0	524	441	0	0	0	0	
0	0	0	0	0	518	431	0	0	0	0	
1	0	0	0	0	512	422	0	0	0	0	
2	0	0	0	0	508	414	0	0	0	0	
3	0	0	0	0	505	408	0	0	0	0	
4	0	0	0	0	504	406	0	0	0	0	
5	0	0	0	0	505	407	0	0	0	0	
6	0	0	0	0	507	411	0	0	0	0	
7	0	0	0	0	511	417	0	0	0	0	
8	0	0	0	0	516	427	0	0	0	0	
9	0	0	0	0	521	436	0	0	0	0	
10	0	0	0	0	526	446	0	0	0	0	
11	0	0	0	0	531	454	0	0	0	0	
12	0	0	0	0	534	461	0	0	0	0	
13	0	0	0	0	537	466	0	0	0	0	
14	0	0	0	0	537	467	0	0	0	0	
15	0	0	0	0	536	465	0	0	0	0	
0	0	0	0	0	533	461	0	0	0	0	
1	0	0	0	0	528	453	0	0	0	0	
2	0	0	0	0	524	444	0	0	0	0	
3	0	0	0	0	518	435	0	0	0	0	
4	0	0	0	0	513	425	0	0	0	0	
5	0	0	0	0	509	416	0	0	0	0	
6	0	0	0	0	506	409	0	0	0	0	
7	0	0	0	0	505	405	0	0	0	0	
8	0	0	0	0	505	404	0	0	0	0	
9	0	0	0	0	508	407	0	0	0	0	
10	0	0	0	0	512	413	0	0	0	0	
11	0	0	0	0	516	421	0	0	0	0	
12	0	0	0	0	522	431	0	0	0	0	
13	0	0	0	0	528	442	0	0	0	0	
14	0	0	0	0	533	452	0	0	0	0	
15	0	0	0	0	536	461	0	0	0	0	
0	0	0	0	0	539	467	0	0	0	0	
1	0	0	0	0	540	472	0	0	0	0	
2	0	0	0	0	539	472	0	0	0	0	
3	0	0	0	0	536	469	0	0	0	0	
4	0	0	0	0	532	463	0	0	0	0	
5	0	0	0	0	526	455	0	0	0	0	
6	0	0	0	0	521	444	0	0	0	0	
7	0	0	0	0	515	433	0	0	0	0	
8	0	0	0	0	511	423	0	0	0	0	
9	0	0	0	0	507	413	0	0	0	0	
10	0	0	0	0	504	406	0	0	0	0	
11	0	0	0	0	504	402	0	0	0	0	
12	0	0	0	0	505	401	0	0	0	0	
13	0	0	0	0	508	403	0	0	0	0	
14	0	0	0	0	512	408	0	0	0	0	
15	0	0	0	0	517	414	0	0	0	0	
0	0	0	0	0	522	422	0	0	0	0	
1	0	0	0	0	527	431	0	0	0	0	
2	0	0	0	0	531	439	0	0	0	0	
3	0	0	0	0	534	447	0	0	0	0	
4	0	0	0	0	535	452	0	0	0	0	
5	0	0	0	0	536	455	0	0	0	0	
6	0	0	0	0	535	456	0	0	0	0	
7	0	0	0	0	533	454	0	0	0	0	
8	0	0	0	0	531	451	0	0	0	0	
9	0	0	0	0	528	445	0	0	0	0	
10	0	0	0	0	525	438	0	0	0	0	
11	0	0	0	0	522	431	0	0	0	0	
12	0	0	0	0	519	423	0	0	0	0	
13	0	0	0	0	518	417	0	0	0	0	
14	0	0	0	0	516	412	0	0	0	0	
15	0	0	0	0	516	409	0	0	0	0	
0	0	0	0	0	517	408	0	0	0	0	
1	0	0	0	0	519	410	0	0	0	0	
2	0	0	0	0	521	414	0	0	0	0	
3	0	0	0	0	525	420	0	0	0	0	
4	0	0	0	0	528	428	0	0	0	0	
5	0	0	0	0	534	438	0	0	0	0	
6	0	0	0	0	539	448	0	0	0	0	
7	0	0	0	0	544	456	0	0	0	0	
8	0	0	0	0	548	464	0	0	0	0	
9	0	0	0	0	552	470	0	0	0	0	
10	0	0	0	0	554	472	0	0	0	0	
11	0	0	0	0	555	472	0	0	0	0	
12	0	0	0	0	553	468	0	0	0	0	
13	0	0	0	0	549	461	0	0	0	0	
14	0	0	0	0	544	452	0	0	0	0	
15	0	0	0	0	539	442	0	0	0	0	
0	0	0	0	0	533	431	0	0	0	0	
1	0	0	0	0	528	421	0	0	0	0	
2	0	0	0	0	524	413	0	0	0	0	
3	0	0	0	0	519	406	0	0	0	0	
4	0	0	0	0	519	403	0	0	0	0	
5	0	0	0	0	519	402	0	0	0	0	
6	0	0	0	0	520	404	0	0	0	0	
7	0	0	0	0	522	410	0	0	0	0	
8	0	0	0	0	526	418	0	0	0	0	
9	0	0	0	0	530	427	0	0	0	0	
10	0	0	0	0	534	435	0	0	0	0	
11	0	0	0	0	538	444	0	0	0	0	
12	0	0	0	0	540	451	0	0	0	0	
13	0	0	0	0	543	457	0	0	0	0	
14	0	0	0	0	543	460	0	0	0	0	
15	0	0	0	0	543	460	0	0	0	0	
0	0	0	0	0	541	457	0	0	0	0	
1	0	0	0	0	538	451	0	0	0	0	
2	0	0	0	0	533	443	0	0	0	0	
3	0	0	0	0	528	433	0	0	0	0	
4	0	0	0	0	522	422	0	0	0	0	
5	0	0	0	0	516	412	0	0	0	0	
6	0	0	0	0	511	403	0	0	0	0	
7	0	0	0	0	508	398	0	0	0	0	
8	0	0	0	0	507	394	0	0	0	0	
9	0	0	0	0	507	394	0	0	0	0	
10	0	0	0	0	510	398	0	0	0	0	
11	0	0	0	0	513	403	0	0	0	0	
12	0	0	0	0	517	412	0	0	0	0	
13	0	0	0	0	522	422	0	0	0	0	
14	0	0	0	0	527	431	0	0	0	0	
15	0	0	0	0	531	441	0	0	0	0	
0	0	0	0	0	534	448	0	0	0	0	
1	0	0	0	0	536	454	0	0	0	0	
2	0	0	0	0	537	457	0	0	0	0	
3	0	0	0	0	536	456	0	0	0	0	
4	0	0	0	0	534	454	0	0	0	0	
5	0	0	0	0	530	448	0	0	0	0	
6	0	0	0	0	526	440	0	0	0	0	
7	0	0	0	0	521	432	0	0	0	0	
8	0	0	0	0	516	422	0	0	0	0	
9	0	0	0	0	511	412	0	0	0	0	
10	0	0	0	0	506	404	0	0	0	0	
11	0	0	0	0	503	398	0	0	0	0	
12	0	0	0	0	501	393	0	0	0	0	
13	0	0	0	0	500	392	0	0	0	0	
14	0	0	0	0	501	394	0	0	0	0	
15	0	0	0	0	503	398	0	0	0	0	
0	0	0	0	0	506	406	0	0	0	0	
1	0	0	0	0	511	414	0	0	0	0	
2	0	0	0	0	515	423	0	0	0	0	
3	0	0	0	0	519	433	0	0	0	0	
4	0	0	0	0	524	440	0	0	0	0	
5	0	0	0	0	527	446	0	0	0	0	
6	0	0	0	0	529	450	0	0	0	0	
7	0	0	0	0	528	449	0	0	0	0	
8	0	0	0	0	525	445	0	0	0	0	
9	0	0	0	0	522	438	0	0	0	0	
10	0	0	0	0	516	428	0	0	0	0	
11	0	0	0	0	511	418	0	0	0	0	
12	0	0	0	0	506	407	0	0	0	0	
13	0	0	0	0	501	396	0	0	0	0	
14	0	0	0	0	497	387	0	0	0	0	
15	0	0	0	0	495	381	0	0	0	0	
0	0	0	0	0	495	378	0	0	0	0	
1	0	0	0	0	497	379	0	0	0	0	
2	0	0	0	0	500	383	0	0	0	0	
3	0	0	0	0	506	390	0	0	0	0	
4	0	0	0	0	511	399	0	0	0	0	
5	0	0	0	0	519	410	0	0	0	0	
6	0	0	0	0	525	421	0	0	0	0	
7	0	0	0	0	531	432	0	0	0	0	
8	0	0	0	0	535	440	0	0	0	0	
9	0	0	0	0	537	445	0	0	0	0	
10	0	0	0	0	538	448	0	0	0	0	
11	0	0	0	0	536	447	0	0	0	0	
12	0	0	0	0	533	443	0	0	0	0	
13	0	0	0	0	528	435	0	0	0	0	
14	0	0	0	0	521	425	0	0	0	0	
15	0	0	0	0	515	414	0	0	0	0	
0	0	0	0	0	510	403	0	0	0	0	
1	0	0	0	0	504	391	0	0	0	0	
2	0	0	0	0	499	382	0	0	0	0	
3	0	0	0	0	496	375	0	0	0	0	
4	0	0	0	0	495	371	0	0	0	0	
5	0	0	0	0	494	370	0	0	0	0	
6	0	0	0	0	495	373	0	0	0	0	
7	0	0	0	0	497	378	0	0	0	0	
8	0	0	0	0	502	387	0	0	0	0	
9	0	0	0	0	507	396	0	0	0	0	
10	0	0	0	0	512	407	0	0	0	0	
11	0	0	0	0	517	417	0	0	0	0	
12	0	0	0	0	521	426	0	0	0	0	
13	0	0	0	0	524	433	0	0	0	0	
14	0	0	0	0	526	437	0	0	0	0	
15	0	0	0	0	526	438	0	0	0	0	
0	0	0	0	0	524	435	0	0	0	0	
1	0	0	0	0	521	430	0	0	0	0	
2	0	0	0	0	517	422	0	0	0	0	
3	0	0	0	0	513	413	0	0	0	0	
4	0	0	0	0	507	403	0	0	0	0	
5	0	0	0	0	503	393	0	0	0	0	
6	0	0	0	0	499	384	0	0	0	0	
7	0	0	0	0	496	379	0	0	0	0	
8	0	0	0	0	495	375	0	0	0	0	
9	0	0	0	0	496	374	0	0	0	0	
10	0	0	0	0	497	376	0	0	0	0	
11	0	0	0	0	500	380	0	0	0	0	
12	0	0	0	0	505	387	0	0	0	0	
13	0	0	0	0	511	396	0	0	0	0	
14	0	0	0	0	515	406	0	0	0	0	
15	0	0	0	0	521	416	0	0	0	0	
0	0	0	0	0	525	424	0	0	0	0	
1	0	0	0	0	528	432	0	0	0	0	
2	0	0	0	0	530	436	0	0	0	0	
3	0	0	0	0	531	438	0	0	0	0	
4	0	0	0	0	531	437	0	0	0	0	
5	0	0	0	0	528	432	0	0	0	0	
6	0	0	0	0	526	427	0	0	0	0	
7	0	0	0	0	522	419	0	0	0	0	
8	0	0	0	0	517	410	0	0	0	0	
9	0	0	0	0	513	401	0	0	0	0	
10	0	0	0	0	508	393	0	0	0	0	
11	0	0	0	0	505	387	0	0	0	0	
12	0	0	0	0	504	383	0	0	0	0	
13	0	0	0	0	503	382	0	0	0	0	
14	0	0	0	0	504	384	0	0	0	0	
15	0	0	0	0	506	388	0	0	0	0	
0	0	0	0	0	511	396	0	0	0	0	
1	0	0	0	0	515	404	0	0	0	0	
2	0	0	0	0	519	413	0	0	0	0	
3	0	0	0	0	524	421	0	0	0	0	
4	0	0	0	0	526	428	0	0	0	0	
5	0	0	0	0	528	433	0	0	0	0	
6	0	0	0	0	529	435	0	0	0	0	
7	0	0	0	0	529	435	0	0	0	0	
8	0	0	0	0	527	431	0	0	0	0	
9	0	0	0	0	523	426	0	0	0	0	
10	0	0	0	0	519	418	0	0	0	0	
11	0	0	0	0	516	410	0	0	0	0	
12	0	0	0	0	513	402	0	0	0	0	
13	0	0	0	0	511	394	0	0	0	0	
14	0	0	0	0	509	389	0	0	0	0	
15	0	0	0	0	510	385	0	0	0	0	
0	0	0	0	0	511	384	0	0	0	0	
1	0	0	0	0	513	386	0	0	0	0	
2	0	0	0	0	517	391	0	0	0	0	
3	0	0	0	0	522	397	0	0	0	0	
4	0	0	0	0	526	405	0	0	0	0	
5	0	0	0	0	532	414	0	0	0	0	
6	0	0	0	0	536	423	0	0	0	0	
7	0	0	0	0	539	432	0	0	0	0	
8	0	0	0	0	541	438	0	0	0	0	
9	0	0	0	0	542	442	0	0	0	0	
10	0	0	0	0	541	443	0	0	0	0	
11	0	0	0	0	537	441	0	0	0	0	
12	0	0	0	0	533	435	0	0	0	0	
13	0	0	0	0	527	427	0	0	0	0	
14	0	0	0	0	519	416	0	0	0	0	
15	0	0	0	0	512	405	0	0	0	0	
0	0	0	0	0	505	393	0	0	0	0	
1	0	0	0	0	499	382	0	0	0	0	
2	0	0	0	0	494	372	0	0	0	0	
3	0	0	0	0	491	365	0	0	0	0	
4	0	0	0	0	491	363	0	0	0	0	
5	0	0	0	0	492	363	0	0	0	0	
6	0	0	0	0	496	367	0	0	0	0	
7	0	0	0	0	501	375	0	0	0	0	
8	0	0	0	0	507	385	0	0	0	0	
9	0	0	0	0	515	398	0	0	0	0	
10	0	0	0	0	522	411	0	0	0	0	
11	0	0	0	0	528	423	0	0	0	0	
12	0	0	0	0	534	434	0	0	0	0	
13	0	0	0	0	537	443	0	0	0	0	
14	0	0	0	0	540	448	0	0	0	0	
15	0	0	0	0	541	449	0	0	0	0	
0	0	0	0	0	539	447	0	0	0	0	
1	0	0	0	0	535	442	0	0	0	0	
2	0	0	0	0	529	433	0	0	0	0	
3	0	0	0	0	525	424	0	0	0	0	
4	0	0	0	0	518	412	0	0	0	0	
5	0	0	0	0	513	403	0	0	0	0	
6	0	0	0	0	509	394	0	0	0	0	
7	0	0	0	0	507	388	0	0	0	0	
8	0	0	0	0	506	385	0	0	0	0	
9	0	0	0	0	508	385	0	0	0	0	
10	0	0	0	0	511	389	0	0	0	0	
11	0	0	0	0	515	396	0	0	0	0	
12	0	0	0	0	520	405	0	0	0	0	
13	0	0	0	0	527	415	0	0	0	0	
14	0	0	0	0	533	426	0	0	0	0	
15	0	0	0	0	537	435	0	0	0	0	
0	0	0	0	0	541	444	0	0	0	0	
1	0	0	0	0	544	449	0	0	0	0	
2	0	0	0	0	545	452	0	0	0	0	
3	0	0	0	0	543	451	0	0	0	0	
4	0	0	0	0	540	447	0	0	0	0	
5	0	0	0	0	536	440	0	0	0	0	
6	0	0	0	0	530	431	0	0	0	0	
7	0	0	0	0	523	421	0	0	0	0	
8	0	0	0	0	516	409	0	0	0	0	
9	0	0	0	0	511	400	0	0	0	0	
10	0	0	0	0	505	391	0	0	0	0	
11	0	0	0	0	502	385	0	0	0	0	
12	0	0	0	0	501	382	0	0	0	0	
13	0	0	0	0	501	381	0	0	0	0	
14	0	0	0	0	504	385	0	0	0	0	
15	0	0	0	0	509	391	0	0	0	0	
0	0	0	0	0	514	399	0	0	0	0	
1	0	0	0	0	521	410	0	0	0	0	
2	0	0	0	0	527	422	0	0	0	0	
3	0	0	0	0	534	432	0	0	0	0	
4	0	0	0	0	539	442	0	0	0	0	
5	0	0	0	0	543	449	0	0	0	0	
6	0	0	0	0	547	454	0	0	0	0	
7	0	0	0	0	547	454	0	0	0	0	
8	0	0	0	0	545	451	0	0	0	0	
9	0	0	0	0	541	444	0	0	0	0	
10	0	0	0	0	536	435	0	0	0	0	
11	0	0	0	0	529	424	0	0	0	0	
12	0	0	0	0	522	412	0	0	0	0	
13	0	0	0	0	515	399	0	0	0	0	
14	0	0	0	0	508	389	0	0	0	0	
15	0	0	0	0	503	381	0	0	0	0	
0	0	0	0	0	500	376	0	0	0	0	
1	0	0	0	0	499	374	0	0	0	0	
2	0	0	0	0	499	376	0	0	0	0	
3	0	0	0	0	502	381	0	0	0	0	
4	0	0	0	0	505	389	0	0	0	0	
5	0	0	0	0	512	400	0	0	0	0	
6	0	0	0	0	516	410	0	0	0	0	
7	0	0	0	0	523	422	0	0	0	0	
8	0	0	0	0	527	431	0	0	0	0	
9	0	0	0	0	531	438	0	0	0	0	
10	0	0	0	0	534	443	0	0	0	0	
11	0	0	0	0	534	443	0	0	0	0	
12	0	0	0	0	532	441	0	0	0	0	
13	0	0	0	0	530	436	0	0	0	0	
14	0	0	0	0	525	428	0	0	0	0	
15	0	0	0	0	521	418	0	0	0	0	
0	0	0	0	0	516	408	0	0	0	0	
1	0	0	0	0	512	398	0	0	0	0	
2	0	0	0	0	508	390	0	0	0	0	
3	0	0	0	0	506	384	0	0	0	0	
4	0	0	0	0	507	382	0	0	0	0	
5	0	0	0	0	509	382	0	0	0	0	
6	0	0	0	0	512	386	0	0	0	0	
7	0	0	0	0	515	392	0	0	0	0	
8	0	0	0	0	520	400	0	0	0	0	
9	0	0	0	0	526	411	0	0	0	0	
10	0	0	0	0	530	421	0	0	0	0	
11	0	0	0	0	535	432	0	0	0	0	
12	0	0	0	0	538	440	0	0	0	0	
13	0	0	0	0	540	446	0	0	0	0	
14	0	0	0	0	541	449	0	0	0	0	
15	0	0	0	0	540	449	0	0	0	0	
0	0	0	0	0	537	446	0	0	0	0	
1	0	0	0	0	533	440	0	0	0	0	
2	0	0	0	0	528	432	0	0	0	0	
3	0	0	0	0	524	422	0	0	0	0	
4	0	0	0	0	518	412	0	0	0	0	
5	0	0	0	0	514	402	0	0	0	0	
6	0	0	0	0	510	393	0	0	0	0	
7	0	0	0	0	507	387	0	0	0	0	
8	0	0	0	0	507	384	0	0	0	0	
9	0	0	0	0	508	385	0	0	0	0	
10	0	0	0	0	510	388	0	0	0	0	
11	0	0	0	0	514	393	0	0	0	0	
12	0	0	0	0	518	401	0	0	0	0	
13	0	0	0	0	523	411	0	0	0	0	
14	0	0	0	0	527	420	0	0	0	0	
15	0	0	0	0	531	430	0	0	0	0	
0	0	0	0	0	534	437	0	0	0	0	
1	0	0	0	0	536	443	0	0	0	0	
2	0	0	0	0	537	446	0	0	0	0	
3	0	0	0	0	537	446	0	0	0	0	
4	0	0	0	0	535	444	0	0	0	0	
5	0	0	0	0	531	438	0	0	0	0	
6	0	0	0	0	527	431	0	0	0	0	
7	0	0	0	0	522	423	0	0	0	0	
8	0	0	0	0	517	414	0	0	0	0	
9	0	0	0	0	514	406	0	0	0	0	
10	0	0	0	0	512	400	0	0	0	0	
11	0	0	0	0	510	396	0	0	0	0	
12	0	0	0	0	511	394	0	0	0	0	
13	0	0	0	0	512	395	0	0	0	0	
14	0	0	0	0	516	399	0	0	0	0	
15	0	0	0	0	519	405	0	0	0	0	
0	0	0	0	0	524	413	0	0	0	0	
1	0	0	0	0	528	421	0	0	0	0	
2	0	0	0	0	532	430	0	0	0	0	
3	0	0	0	0	536	438	0	0	0	0	
4	0	0	0	0	539	444	0	0	0	0	
5	0	0	0	0	540	448	0	0	0	0	
6	0	0	0	0	540	450	0	0	0	0	
7	0	0	0	0	539	448	0	0	0	0	
8	0	0	0	0	537	445	0	0	0	0	
9	0	0	0	0	533	439	0	0	0	0	
10	0	0	0	0	528	431	0	0	0	0	
11	0	0	0	0	524	423	0	0	0	0	
12	0	0	0	0	519	413	0	0	0	0	
13	0	0	0	0	515	405	0	0	0	0	
14	0	0	0	0	511	398	0	0	0	0	
15	0	0	0	0	510	393	0	0	0	0	
0	0	0	0	0	509	391	0	0	0	0	
1	0	0	0	0	509	391	0	0	0	0	
2	0	0	0	0	512	395	0	0	0	0	
3	0	0	0	0	515	401	0	0	0	0	
4	0	0	0	0	520	410	0	0	0	0	
5	0	0	0	0	527	420	0	0	0	0	
6	0	0	0	0	532	430	0	0	0	0	
7	0	0	0	0	537	440	0	0	0	0	
8	0	0	0	0	541	448	0	0	0	0	
9	0	0	0	0	542	453	0	0	0	0	
10	0	0	0	0	544	456	0	0	0	0	
11	0	0	0	0	543	456	0	0	0	0	
12	0	0	0	0	540	453	0	0	0	0	
13	0	0	0	0	536	447	0	0	0	0	
14	0	0	0	0	531	439	0	0	0	0	
15	0	0	0	0	525	429	0	0	0	0	
0	0	0	0	0	519	419	0	0	0	0	
1	0	0	0	0	513	408	0	0	0	0	
2	0	0	0	0	509	400	0	0	0	0	
3	0	0	0	0	505	393	0	0	0	0	
4	0	0	0	0	504	389	0	0	0	0	
5	0	0	0	0	504	388	0	0	0	0	
6	0	0	0	0	505	390	0	0	0	0	
7	0	0	0	0	508	395	0	0	0	0	
8	0	0	0	0	511	401	0	0	0	0	
9	0	0	0	0	515	410	0	0	0	0	
10	0	0	0	0	519	419	0	0	0	0	
11	0	0	0	0	524	427	0	0	0	0	
12	0	0	0	0	526	435	0	0	0	0	
13	0	0	0	0	527	440	0	0	0	0	
14	0	0	0	0	528	443	0	0	0	0	
15	0	0	0	0	526	442	0	0	0	0	
0	0	0	0	0	524	439	0	0	0	0	
1	0	0	0	0	519	432	0	0	0	0	
2	0	0	0	0	516	425	0	0	0	0	
3	0	0	0	0	512	416	0	0	0	0	
4	0	0	0	0	508	407	0	0	0	0	
5	0	0	0	0	504	398	0	0	0	0	
6	0	0	0	0	502	391	0	0	0	0	
7	0	0	0	0	500	386	0	0	0	0	
8	0	0	0	0	500	384	0	0	0	0	
9	0	0	0	0	501	385	0	0	0	0	
10	0	0	0	0	504	388	0	0	0	0	
11	0	0	0	0	508	395	0	0	0	0	
12	0	0	0	0	511	403	0	0	0	0	
13	0	0	0	0	517	414	0	0	0	0	
14	0	0	0	0	521	423	0	0	0	0	
15	0	0	0	0	525	433	0	0	0	0	
0	0	0	0	0	528	441	0	0	0	0	
1	0	0	0	0	530	447	0	0	0	0	
2	0	0	0	0	531	449	0	0	0	0	
3	0	0	0	0	529	449	0	0	0	0	
4	0	0	0	0	527	445	0	0	0	0	
5	0	0	0	0	524	439	0	0	0	0	
6	0	0	0	0	519	430	0	0	0	0	
7	0	0	0	0	513	421	0	0	0	0	
8	0	0	0	0	508	410	0	0	0	0	
9	0	0	0	0	504	400	0	0	0	0	
10	0	0	0	0	499	392	0	0	0	0	
11	0	0	0	0	496	385	0	0	0	0	
12	0	0	0	0	496	383	0	0	0	0	
13	0	0	0	0	496	383	0	0	0	0	
14	0	0	0	0	498	386	0	0	0	0	
15	0	0	0	0	502	392	0	0	0	0	
0	0	0	0	0	508	402	0	0	0	0	
1	0	0	0	0	514	412	0	0	0	0	
2	0	0	0	0	520	424	0	0	0	0	
3	0	0	0	0	526	435	0	0	0	0	
4	0	0	0	0	531	444	0	0	0	0	
5	0	0	0	0	535	451	0	0	0	0	
6	0	0	0	0	537	455	0	0	0	0	
7	0	0	0	0	537	455	0	0	0	0	
8	0	0	0	0	535	453	0	0	0	0	
9	0	0	0	0	531	447	0	0	0	0	
10	0	0	0	0	525	439	0	0	0	0	
11	0	0	0	0	519	430	0	0	0	0	
12	0	0	0	0	512	419	0	0	0	0	
13	0	0	0	0	506	409	0	0	0	0	
14	0	0	0	0	500	400	0	0	0	0	
15	0	0	0	0	496	393	0	0	0	0	
0	0	0	0	0	494	390	0	0	0	0	
1	0	0	0	0	493	390	0	0	0	0	
2	0	0	0	0	495	391	0	0	0	0	
3	0	0	0	0	497	397	0	0	0	0	
4	0	0	0	0	502	405	0	0	0	0	
5	0	0	0	0	508	415	0	0	0	0	
6	0	0	0	0	514	425	0	0	0	0	
7	0	0	0	0	519	435	0	0	0	0	
8	0	0	0	0	524	444	0	0	0	0	
9	0	0	0	0	527	451	0	0	0	0	
10	0	0	0	0	529	455	0	0	0	0	
11	0	0	0	0	529	456	0	0	0	0	
12	0	0	0	0	528	455	0	0	0	0	
13	0	0	0	0	525	450	0	0	0	0	
14	0	0	0	0	521	444	0	0	0	0	
15	0	0	0	0	517	435	0	0	0	0	
0	0	0	0	0	512	427	0	0	0	0	
1	0	0	0	0	508	418	0	0	0	0	
2	0	0	0	0	504	411	0	0	0	0	
3	0	0	0	0	502	405	0	0	0	0	
4	0	0	0	0	500	403	0	0	0	0	
5	0	0	0	0	501	403	0	0	0	0	
6	0	0	0	0	502	404	0	0	0	0	
7	0	0	0	0	504	409	0	0	0	0	
8	0	0	0	0	508	416	0	0	0	0	
9	0	0	0	0	512	424	0	0	0	0	
10	0	0	0	0	515	432	0	0	0	0	
11	0	0	0	0	519	440	0	0	0	0	
12	0	0	0	0	522	447	0	0	0	0	
13	0	0	0	0	525	452	0	0	0	0	
14	0	0	0	0	526	455	0	0	0	0	
15	0	0	0	0	527	456	0	0	0	0	
0	0	0	0	0	526	454	0	0	0	0	
1	0	0	0	0	525	450	0	0	0	0	
2	0	0	0	0	523	444	0	0	0	0	
3	0	0	0	0	521	437	0	0	0	0	
4	0	0	0	0	519	430	0	0	0	0	
5	0	0	0	0	516	422	0	0	0	0	
6	0	0	0	0	514	416	0	0	0	0	
7	0	0	0	0	513	412	0	0	0	0	
8	0	0	0	0	513	410	0	0	0	0	
9	0	0	0	0	514	411	0	0	0	0	
10	0	0	0	0	515	414	0	0	0	0	
11	0	0	0	0	518	419	0	0	0	0	
12	0	0	0	0	521	428	0	0	0	0	
13	0	0	0	0	525	436	0	0	0	0	
14	0	0	0	0	528	445	0	0	0	0	
15	0	0	0	0	531	454	0	0	0	0	
0	0	0	0	0	532	460	0	0	0	0	
1	0	0	0	0	533	464	0	0	0	0	
2	0	0	0	0	531	464	0	0	0	0	
3	0	0	0	0	527	461	0	0	0	0	
4	0	0	0	0	520	454	0	0	0	0	
5	0	0	0	0	511	444	0	0	0	0	
6	0	0	0	0	501	431	0	0	0	0	
7	0	0	0	0	489	415	0	0	0	0	
8	0	0	0	0	476	399	0	0	0	0	
9	0	0	0	0	464	382	0	0	0	0	
10	0	0	0	0	452	367	0	0	0	0	
11	0	0	0	0	440	352	0	0	0	0	
12	0	0	0	0	431	340	0	0	0	0	
13	0	0	0	0	423	331	0	0	0	0	
14	0	0	0	0	415	324	0	0	0	0	
15	0	0	0	0	409	320	0	0	0	0	
0	0	0	0	0	405	319	0	0	0	0	
1	0	0	0	0	403	320	0	0	0	0	
2	0	0	0	0	400	321	0	0	0	0	
3	0	0	0	0	398	323	0	0	0	0	
4	0	0	0	0	396	323	0	0	0	0	
5	0	0	0	0	391	322	0	0	0	0	
6	0	0	0	0	386	318	0	0	0	0	
7	0	0	0	0	377	310	0	0	0	0	
8	0	0	0	0	367	299	0	0	0	0	
9	0	0	0	0	355	284	0	0	0	0	
10	0	0	0	0	341	268	0	0	0	0	
11	0	0	0	0	327	251	0	0	0	0	
12	0	0	0	0	314	234	0	0	0	0	
13	0	0	0	0	303	220	0	0	0	0	
14	0	0	0	0	295	208	0	0	0	0	
15	0	0	0	0	291	201	0	0	0	0	
0	0	0	0	0	293	200	0	0	0	0	
1	0	0	0	0	300	206	0	0	0	0	
2	0	0	0	0	313	219	0	0	0	0	
3	0	0	0	0	331	238	0	0	0	0	
4	0	0	0	0	354	262	0	0	0	0	
5	0	0	0	0	381	290	0	0	0	0	
6	0	0	0	0	410	322	0	0	0	0	
7	0	0	0	0	439	354	0	0	0	0	
8	0	0	0	0	468	386	0	0	0	0	
9	0	0	0	0	494	415	0	0	0	0	
10	0	0	0	0	518	440	0	0	0	0	
11	0	0	0	0	536	460	0	0	0	0	
12	0	0	0	0	549	474	0	0	0	0	
13	0	0	0	0	557	481	0	0	0	0	
14	0	0	0	0	560	483	0	0	0	0	
15	0	0	0	0	559	480	0	0	0	0	
0	0	0	0	0	555	473	0	0	0	0	
1	0	0	0	0	548	464	0	0	0	0	
2	0	0	0	0	540	454	0	0	0	0	
3	0	0	0	0	532	446	0	0	0	0	
4	0	0	0	0	525	438	0	0	0	0	
5	0	0	0	0	519	433	0	0	0	0	
6	0	0	0	0	515	431	0	0	0	0	
7	0	0	0	0	512	431	0	0	0	0	
8	0	0	0	0	512	434	0	0	0	0	
9	0	0	0	0	514	440	0	0	0	0	
10	0	0	0	0	517	446	0	0	0	0	
11	0	0	0	0	521	454	0	0	0	0	
12	0	0	0	0	525	460	0	0	0	0	
13	0	0	0	0	529	466	0	0	0	0	
14	0	0	0	0	532	470	0	0	0	0	
15	0	0	0	0	534	470	0	0	0	0	
0	0	0	0	0	534	469	0	0	0	0	
1	0	0	0	0	531	464	0	0	0	0	
2	0	0	0	0	529	458	0	0	0	0	
3	0	0	0	0	525	450	0	0	0	0	
4	0	0	0	0	520	441	0	0	0	0	
5	0	0	0	0	516	433	0	0	0	0	
6	0	0	0	0	511	426	0	0	0	0	
7	0	0	0	0	508	421	0	0	0	0	
8	0	0	0	0	507	419	0	0	0	0	
9	0	0	0	0	507	419	0	0	0	0	
10	0	0	0	0	508	423	0	0	0	0	
11	0	0	0	0	512	429	0	0	0	0	
12	0	0	0	0	515	437	0	0	0	0	
13	0	0	0	0	522	448	0	0	0	0	
14	0	0	0	0	528	458	0	0	0	0	
15	0	0	0	0	534	467	0	0	0	0	
0	0	0	0	0	539	476	0	0	0	0	
1	0	0	0	0	543	482	0	0	0	0	
2	0	0	0	0	545	485	0	0	0	0	
3	0	0	0	0	546	485	0	0	0	0	
4	0	0	0	0	543	481	0	0	0	0	
5	0	0	0	0	540	475	0	0	0	0	
6	0	0	0	0	535	466	0	0	0	0	
7	0	0	0	0	528	456	0	0	0	0	
8	0	0	0	0	522	446	0	0	0	0	
9	0	0	0	0	516	436	0	0	0	0	
10	0	0	0	0	511	429	0	0	0	0	
11	0	0	0	0	508	423	0	0	0	0	
12	0	0	0	0	507	421	0	0	0	0	
13	0	0	0	0	508	422	0	0	0	0	
14	0	0	0	0	511	426	0	0	0	0	
15	0	0	0	0	515	433	0	0	0	0	
0	0	0	0	0	521	443	0	0	0	0	
1	0	0	0	0	528	455	0	0	0	0	
2	0	0	0	0	536	467	0	0	0	0	
3	0	0	0	0	543	478	0	0	0	0	
4	0	0	0	0	548	488	0	0	0	0	
5	0	0	0	0	552	496	0	0	0	0	
6	0	0	0	0	555	500	0	0	0	0	
7	0	0	0	0	554	500	0	0	0	0	
8	0	0	0	0	551	498	0	0	0	0	
9	0	0	0	0	547	491	0	0	0	0	
10	0	0	0	0	540	482	0	0	0	0	
11	0	0	0	0	532	471	0	0	0	0	
12	0	0	0	0	523	458	0	0	0	0	
13	0	0	0	0	515	447	0	0	0	0	
14	0	0	0	0	508	436	0	0	0	0	
15	0	0	0	0	502	428	0	0	0	0	
0	0	0	0	0	499	423	0	0	0	0	
1	0	0	0	0	497	420	0	0	0	0	
2	0	0	0	0	498	422	0	0	0	0	
3	0	0	0	0	501	427	0	0	0	0	
4	0	0	0	0	506	435	0	0	0	0	
5	0	0	0	0	513	444	0	0	0	0	
6	0	0	0	0	519	455	0	0	0	0	
7	0	0	0	0	526	465	0	0	0	0	
8	0	0	0	0	532	474	0	0	0	0	
9	0	0	0	0	536	480	0	0	0	0	
10	0	0	0	0	539	484	0	0	0	0	
11	0	0	0	0	539	485	0	0	0	0	
12	0	0	0	0	537	482	0	0	0	0	
13	0	0	0	0	533	476	0	0	0	0	
14	0	0	0	0	527	468	0	0	0	0	
15	0	0	0	0	521	458	0	0	0	0	
0	0	0	0	0	515	448	0	0	0	0	
1	0	0	0	0	509	439	0	0	0	0	
2	0	0	0	0	504	431	0	0	0	0	
3	0	0	0	0	499	425	0	0	0	0	
4	0	0	0	0	498	423	0	0	0	0	
5	0	0	0	0	498	423	0	0	0	0	
6	0	0	0	0	500	426	0	0	0	0	
7	0	0	0	0	504	433	0	0	0	0	
8	0	0	0	0	509	441	0	0	0	0	
9	0	0	0	0	516	453	0	0	0	0	
10	0	0	0	0	523	463	0	0	0	0	
11	0	0	0	0	530	475	0	0	0	0	
12	0	0	0	0	536	484	0	0	0	0	
13	0	0	0	0	540	491	0	0	0	0	
14	0	0	0	0	543	495	0	0	0	0	
15	0	0	0	0	543	496	0	0	0	0	
0	0	0	0	0	542	493	0	0	0	0	
1	0	0	0	0	537	487	0	0	0	0	
2	0	0	0	0	533	480	0	0	0	0	
3	0	0	0	0	528	471	0	0	0	0	
4	0	0	0	0	522	461	0	0	0	0	
5	0	0	0	0	516	451	0	0	0	0	
6	0	0	0	0	512	443	0	0	0	0	
7	0	0	0	0	508	436	0	0	0	0	
8	0	0	0	0	506	433	0	0	0	0	
9	0	0	0	0	505	432	0	0	0	0	
10	0	0	0	0	506	434	0	0	0	0	
11	0	0	0	0	508	438	0	0	0	0	
12	0	0	0	0	511	445	0	0	0	0	
13	0	0	0	0	515	452	0	0	0	0	
14	0	0	0	0	518	461	0	0	0	0	
15	0	0	0	0	522	469	0	0	0	0	
0	0	0	0	0	525	476	0	0	0	0	
1	0	0	0	0	527	481	0	0	0	0	
2	0	0	0	0	528	484	0	0	0	0	
3	0	0	0	0	528	484	0	0	0	0	
4	0	0	0	0	526	481	0	0	0	0	
5	0	0	0	0	524	475	0	0	0	0	
6	0	0	0	0	519	467	0	0	0	0	
7	0	0	0	0	515	459	0	0	0	0	
8	0	0	0	0	511	450	0	0	0	0	
9	0	0	0	0	507	441	0	0	0	0	
10	0	0	0	0	504	433	0	0	0	0	
11	0	0	0	0	501	428	0	0	0	0	
12	0	0	0	0	500	425	0	0	0	0	
13	0	0	0	0	500	424	0	0	0	0	
14	0	0	0	0	503	427	0	0	0	0	
15	0	0	0	0	505	432	0	0	0	0	
0	0	0	0	0	509	440	0	0	0	0	
1	0	0	0	0	514	449	0	0	0	0	
2	0	0	0	0	518	459	0	0	0	0	
3	0	0	0	0	522	467	0	0	0	0	
4	0	0	0	0	526	475	0	0	0	0	
5	0	0	0	0	527	480	0	0	0	0	
6	0	0	0	0	528	482	0	0	0	0	
7	0	0	0	0	527	481	0	0	0	0	
8	0	0	0	0	525	478	0	0	0	0	
9	0	0	0	0	521	472	0	0	0	0	
10	0	0	0	0	516	465	0	0	0	0	
11	0	0	0	0	512	456	0	0	0	0	
12	0	0	0	0	508	448	0	0	0	0	
13	0	0	0	0	505	441	0	0	0	0	
14	0	0	0	0	503	435	0	0	0	0	
15	0	0	0	0	503	431	0	0	0	0	
0	0	0	0	0	504	430	0	0	0	0	
1	0	0	0	0	505	432	0	0	0	0	
2	0	0	0	0	509	435	0	0	0	0	
3	0	0	0	0	512	441	0	0	0	0	
4	0	0	0	0	517	449	0	0	0	0	
5	0	0	0	0	522	457	0	0	0	0	
6	0	0	0	0	526	465	0	0	0	0	
7	0	0	0	0	528	472	0	0	0	0	
8	0	0	0	0	529	478	0	0	0	0	
9	0	0	0	0	530	482	0	0	0	0	
10	0	0	0	0	529	483	0	0	0	0	
11	0	0	0	0	526	482	0	0	0	0	
12	0	0	0	0	522	478	0	0	0	0	
13	0	0	0	0	518	472	0	0	0	0	
14	0	0	0	0	512	464	0	0	0	0	
15	0	0	0	0	508	455	0	0	0	0	
0	0	0	0	0	502	447	0	0	0	0	
1	0	0	0	0	497	438	0	0	0	0	
2	0	0	0	0	494	431	0	0	0	0	
3	0	0	0	0	492	425	0	0	0	0	
4	0	0	0	0	491	423	0	0	0	0	
5	0	0	0	0	492	423	0	0	0	0	
6	0	0	0	0	494	426	0	0	0	0	
7	0	0	0	0	498	432	0	0	0	0	
8	0	0	0	0	502	439	0	0	0	0	
9	0	0	0	0	508	448	0	0	0	0	
10	0	0	0	0	515	459	0	0	0	0	
11	0	0	0	0	519	468	0	0	0	0	
12	0	0	0	0	525	477	0	0	0	0	
13	0	0	0	0	527	483	0	0	0	0	
14	0	0	0	0	530	487	0	0	0	0	
15	0	0	0	0	530	489	0	0	0	0	
0	0	0	0	0	528	487	0	0	0	0	
1	0	0	0	0	525	483	0	0	0	0	
2	0	0	0	0	520	475	0	0	0	0	
3	0	0	0	0	516	467	0	0	0	0	
4	0	0	0	0	510	458	0	0	0	0	
5	0	0	0	0	505	448	0	0	0	0	
6	0	0	0	0	500	440	0	0	0	0	
7	0	0	0	0	497	434	0	0	0	0	
8	0	0	0	0	495	430	0	0	0	0	
9	0	0	0	0	494	429	0	0	0	0	
10	0	0	0	0	494	431	0	0	0	0	
11	0	0	0	0	496	435	0	0	0	0	
12	0	0	0	0	499	442	0	0	0	0	
13	0	0	0	0	504	451	0	0	0	0	
14	0	0	0	0	509	460	0	0	0	0	
15	0	0	0	0	514	470	0	0	0	0	
0	0	0	0	0	519	478	0	0	0	0	
1	0	0	0	0	523	486	0	0	0	0	
2	0	0	0	0	527	492	0	0	0	0	
3	0	0	0	0	529	495	0	0	0	0	
4	0	0	0	0	529	495	0	0	0	0	
5	0	0	0	0	528	492	0	0	0	0	
6	0	0	0	0	526	487	0	0	0	0	
7	0	0	0	0	524	480	0	0	0	0	
8	0	0	0	0	520	472	0	0	0	0	
9	0	0	0	0	516	463	0	0	0	0	
10	0	0	0	0	512	456	0	0	0	0	
11	0	0	0	0	510	450	0	0	0	0	
12	0	0	0	0	508	446	0	0	0	0	
13	0	0	0	0	507	443	0	0	0	0	
14	0	0	0	0	507	444	0	0	0	0	
15	0	0	0	0	508	446	0	0	0	0	
0	0	0	0	0	511	451	0	0	0	0	
1	0	0	0	0	515	457	0	0	0	0	
2	0	0	0	0	518	464	0	0	0	0	
3	0	0	0	0	521	472	0	0	0	0	
4	0	0	0	0	525	479	0	0	0	0	
5	0	0	0	0	527	484	0	0	0	0	
6	0	0	0	0	529	487	0	0	0	0	
7	0	0	0	0	528	487	0	0	0	0	
8	0	0	0	0	527	484	0	0	0	0	
9	0	0	0	0	524	480	0	0	0	0	
10	0	0	0	0	520	473	0	0	0	0	
11	0	0	0	0	515	464	0	0	0	0	
12	0	0	0	0	511	455	0	0	0	0	
13	0	0	0	0	507	448	0	0	0	0	
14	0	0	0	0	504	440	0	0	0	0	
15	0	0	0	0	500	435	0	0	0	0	
0	0	0	0	0	500	433	0	0	0	0	
1	0	0	0	0	501	434	0	0	0	0	
2	0	0	0	0	503	438	0	0	0	0	
3	0	0	0	0	507	444	0	0	0	0	
4	0	0	0	0	511	451	0	0	0	0	
5	0	0	0	0	518	461	0	0	0	0	
6	0	0	0	0	523	471	0	0	0	0	
7	0	0	0	0	527	480	0	0	0	0	
8	0	0	0	0	532	488	0	0	0	0	
9	0	0	0	0	536	494	0	0	0	0	
10	0	0	0	0	537	498	0	0	0	0	
11	0	0	0	0	538	499	0	0	0	0	
12	0	0	0	0	536	496	0	0	0	0	
13	0	0	0	0	534	491	0	0	0	0	
14	0	0	0	0	529	483	0	0	0	0	
15	0	0	0	0	526	475	0	0	0	0	
0	0	0	0	0	520	466	0	0	0	0	
1	0	0	0	0	516	457	0	0	0	0	
2	0	0	0	0	512	449	0	0	0	0	
3	0	0	0	0	509	444	0	0	0	0	
4	0	0	0	0	508	441	0	0	0	0	
5	0	0	0	0	508	441	0	0	0	0	
6	0	0	0	0	509	444	0	0	0	0	
7	0	0	0	0	512	448	0	0	0	0	
8	0	0	0	0	515	456	0	0	0	0	
9	0	0	0	0	520	465	0	0	0	0	
10	0	0	0	0	525	474	0	0	0	0	
11	0	0	0	0	529	483	0	0	0	0	
12	0	0	0	0	533	490	0	0	0	0	
13	0	0	0	0	535	495	0	0	0	0	
14	0	0	0	0	536	497	0	0	0	0	
15	0	0	0	0	536	496	0	0	0	0	
0	0	0	0	0	534	492	0	0	0	0	
1	0	0	0	0	530	485	0	0	0	0	
2	0	0	0	0	526	477	0	0	0	0	
3	0	0	0	0	522	468	0	0	0	0	
4	0	0	0	0	517	457	0	0	0	0	
5	0	0	0	0	512	448	0	0	0	0	
6	0	0	0	0	507	440	0	0	0	0	
7	0	0	0	0	503	433	0	0	0	0	
8	0	0	0	0	501	430	0	0	0	0	
9	0	0	0	0	500	429	0	0	0	0	
10	0	0	0	0	501	431	0	0	0	0	
11	0	0	0	0	504	436	0	0	0	0	
12	0	0	0	0	507	443	0	0	0	0	
13	0	0	0	0	512	451	0	0	0	0	
14	0	0	0	0	518	460	0	0	0	0	
15	0	0	0	0	523	471	0	0	0	0	
0	0	0	0	0	528	478	0	0	0	0	
1	0	0	0	0	532	486	0	0	0	0	
2	0	0	0	0	536	490	0	0	0	0	
3	0	0	0	0	537	492	0	0	0	0	
4	0	0	0	0	537	491	0	0	0	0	
5	0	0	0	0	536	486	0	0	0	0	
6	0	0	0	0	533	481	0	0	0	0	
7	0	0	0	0	530	474	0	0	0	0	
8	0	0	0	0	527	466	0	0	0	0	
9	0	0	0	0	523	459	0	0	0	0	
10	0	0	0	0	519	452	0	0	0	0	
11	0	0	0	0	517	448	0	0	0	0	
12	0	0	0	0	516	445	0	0	0	0	
13	0	0	0	0	516	445	0	0	0	0	
14	0	0	0	0	518	447	0	0	0	0	
15	0	0	0	0	519	451	0	0	0	0	
0	0	0	0	0	523	457	0	0	0	0	
1	0	0	0	0	527	465	0	0	0	0	
2	0	0	0	0	531	472	0	0	0	0	
3	0	0	0	0	534	480	0	0	0	0	
4	0	0	0	0	537	486	0	0	0	0	
5	0	0	0	0	539	490	0	0	0	0	
6	0	0	0	0	540	492	0	0	0	0	
7	0	0	0	0	540	491	0	0	0	0	
8	0	0	0	0	537	486	0	0	0	0	
9	0	0	0	0	534	480	0	0	0	0	
10	0	0	0	0	528	472	0	0	0	0	
11	0	0	0	0	523	462	0	0	0	0	
12	0	0	0	0	518	451	0	0	0	0	
13	0	0	0	0	512	441	0	0	0	0	
14	0	0	0	0	507	434	0	0	0	0	
15	0	0	0	0	503	427	0	0	0	0	
0	0	0	0	0	501	423	0	0	0	0	
1	0	0	0	0	501	423	0	0	0	0	
2	0	0	0	0	502	425	0	0	0	0	
3	0	0	0	0	504	431	0	0	0	0	
4	0	0	0	0	509	439	0	0	0	0	
5	0	0	0	0	514	448	0	0	0	0	
6	0	0	0	0	520	459	0	0	0	0	
7	0	0	0	0	525	469	0	0	0	0	
8	0	0	0	0	530	477	0	0	0	0	
9	0	0	0	0	532	484	0	0	0	0	
10	0	0	0	0	536	487	0	0	0	0	
11	0	0	0	0	535	487	0	0	0	0	
12	0	0	0	0	534	485	0	0	0	0	
13	0	0	0	0	531	479	0	0	0	0	
14	0	0	0	0	526	472	0	0	0	0	
15	0	0	0	0	522	462	0	0	0	0	
0	0	0	0	0	517	452	0	0	0	0	
1	0	0	0	0	512	442	0	0	0	0	
2	0	0	0	0	508	433	0	0	0	0	
3	0	0	0	0	505	427	0	0	0	0	
4	0	0	0	0	504	423	0	0	0	0	
5	0	0	0	0	504	422	0	0	0	0	
6	0	0	0	0	505	423	0	0	0	0	
7	0	0	0	0	507	427	0	0	0	0	
8	0	0	0	0	511	434	0	0	0	0	
9	0	0	0	0	514	441	0	0	0	0	
10	0	0	0	0	518	450	0	0	0	0	
11	0	0	0	0	522	458	0	0	0	0	
12	0	0	0	0	526	465	0	0	0	0	
13	0	0	0	0	527	471	0	0	0	0	
14	0	0	0	0	528	473	0	0	0	0	
15	0	0	0	0	527	474	0	0	0	0	
0	0	0	0	0	525	471	0	0	0	0	
1	0	0	0	0	521	465	0	0	0	0	
2	0	0	0	0	517	459	0	0	0	0	
3	0	0	0	0	512	450	0	0	0	0	
4	0	0	0	0	507	440	0	0	0	0	
5	0	0	0	0	502	432	0	0	0	0	
6	0	0	0	0	497	424	0	0	0	0	
7	0	0	0	0	495	419	0	0	0	0	
8	0	0	0	0	493	416	0	0	0	0	
9	0	0	0	0	494	416	0	0	0	0	
10	0	0	0	0	496	419	0	0	0	0	
11	0	0	0	0	498	423	0	0	0	0	
12	0	0	0	0	502	432	0	0	0	0	
13	0	0	0	0	507	440	0	0	0	0	
14	0	0	0	0	511	448	0	0	0	0	
15	0	0	0	0	515	456	0	0	0	0	
0	0	0	0	0	518	463	0	0	0	0	
1	0	0	0	0	519	467	0	0	0	0	
2	0	0	0	0	520	470	0	0	0	0	
3	0	0	0	0	518	468	0	0	0	0	
4	0	0	0	0	515	464	0	0	0	0	
5	0	0	0	0	511	458	0	0	0	0	
6	0	0	0	0	506	449	0	0	0	0	
7	0	0	0	0	501	440	0	0	0	0	
8	0	0	0	0	496	430	0	0	0	0	
9	0	0	0	0	491	420	0	0	0	0	
10	0	0	0	0	487	412	0	0	0	0	
11	0	0	0	0	483	404	0	0	0	0	
12	0	0	0	0	482	401	0	0	0	0	
13	0	0	0	0	481	400	0	0	0	0	
14	0	0	0	0	483	402	0	0	0	0	
15	0	0	0	0	485	408	0	0	0	0	
0	0	0	0	0	489	415	0	0	0	0	
1	0	0	0	0	494	425	0	0	0	0	
2	0	0	0	0	498	435	0	0	0	0	
3	0	0	0	0	503	446	0	0	0	0	
4	0	0	0	0	507	455	0	0	0	0	
5	0	0	0	0	509	461	0	0	0	0	
6	0	0	0	0	511	466	0	0	0	0	
7	0	0	0	0	512	467	0	0	0	0	
8	0	0	0	0	510	464	0	0	0	0	
9	0	0	0	0	507	460	0	0	0	0	
10	0	0	0	0	503	452	0	0	0	0	
11	0	0	0	0	498	443	0	0	0	0	
12	0	0	0	0	493	433	0	0	0	0	
13	0	0	0	0	488	423	0	0	0	0	
14	0	0	0	0	484	415	0	0	0	0	
15	0	0	0	0	481	408	0	0	0	0	
0	0	0	0	0	479	404	0	0	0	0	
1	0	0	0	0	479	404	0	0	0	0	
2	0	0	0	0	481	407	0	0	0	0	
3	0	0	0	0	484	412	0	0	0	0	
4	0	0	0	0	487	420	0	0	0	0	
5	0	0	0	0	492	430	0	0	0	0	
6	0	0	0	0	496	439	0	0	0	0	
7	0	0	0	0	500	448	0	0	0	0	
8	0	0	0	0	504	457	0	0	0	0	
9	0	0	0	0	505	462	0	0	0	0	
10	0	0	0	0	507	465	0	0	0	0	
11	0	0	0	0	506	465	0	0	0	0	
12	0	0	0	0	504	462	0	0	0	0	
13	0	0	0	0	500	456	0	0	0	0	
14	0	0	0	0	496	449	0	0	0	0	
15	0	0	0	0	492	439	0	0	0	0	
0	0	0	0	0	487	428	0	0	0	0	
1	0	0	0	0	482	417	0	0	0	0	
2	0	0	0	0	476	407	0	0	0	0	
3	0	0	0	0	473	399	0	0	0	0	
4	0	0	0	0	471	395	0	0	0	0	
5	0	0	0	0	470	392	0	0	0	0	
6	0	0	0	0	472	393	0	0	0	0	
7	0	0	0	0	475	398	0	0	0	0	
8	0	0	0	0	479	405	0	0	0	0	
9	0	0	0	0	484	414	0	0	0	0	
10	0	0	0	0	491	425	0	0	0	0	
11	0	0	0	0	497	435	0	0	0	0	
12	0	0	0	0	503	445	0	0	0	0	
13	0	0	0	0	507	454	0	0	0	0	
14	0	0	0	0	511	460	0	0	0	0	
15	0	0	0	0	512	463	0	0	0	0	
0	0	0	0	0	511	462	0	0	0	0	
1	0	0	0	0	509	459	0	0	0	0	
2	0	0	0	0	505	453	0	0	0	0	
3	0	0	0	0	500	445	0	0	0	0	
4	0	0	0	0	496	436	0	0	0	0	
5	0	0	0	0	491	427	0	0	0	0	
6	0	0	0	0	486	419	0	0	0	0	
7	0	0	0	0	482	412	0	0	0	0	
8	0	0	0	0	480	408	0	0	0	0	
9	0	0	0	0	480	407	0	0	0	0	
10	0	0	0	0	481	408	0	0	0	0	
11	0	0	0	0	483	412	0	0	0	0	
12	0	0	0	0	486	418	0	0	0	0	
13	0	0	0	0	491	426	0	0	0	0	
14	0	0	0	0	495	435	0	0	0	0	
15	0	0	0	0	499	443	0	0	0	0	
0	0	0	0	0	502	449	0	0	0	0	
1	0	0	0	0	504	455	0	0	0	0	
2	0	0	0	0	506	458	0	0	0	0	
3	0	0	0	0	506	459	0	0	0	0	
4	0	0	0	0	504	456	0	0	0	0	
5	0	0	0	0	502	451	0	0	0	0	
6	0	0	0	0	498	444	0	0	0	0	
7	0	0	0	0	494	435	0	0	0	0	
8	0	0	0	0	489	426	0	0	0	0	
9	0	0	0	0	484	416	0	0	0	0	
10	0	0	0	0	480	408	0	0	0	0	
11	0	0	0	0	476	402	0	0	0	0	
12	0	0	0	0	474	399	0	0	0	0	
13	0	0	0	0	473	397	0	0	0	0	
14	0	0	0	0	473	400	0	0	0	0	
15	0	0	0	0	475	405	0	0	0	0	
0	0	0	0	0	479	414	0	0	0	0	
1	0	0	0	0	483	423	0	0	0	0	
2	0	0	0	0	488	433	0	0	0	0	
3	0	0	0	0	494	443	0	0	0	0	
4	0	0	0	0	498	453	0	0	0	0	
5	0	0	0	0	502	459	0	0	0	0	
6	0	0	0	0	504	464	0	0	0	0	
7	0	0	0	0	504	464	0	0	0	0	
8	0	0	0	0	503	462	0	0	0	0	
9	0	0	0	0	500	457	0	0	0	0	
10	0	0	0	0	495	449	0	0	0	0	
11	0	0	0	0	491	441	0	0	0	0	
12	0	0	0	0	486	432	0	0	0	0	
13	0	0	0	0	481	423	0	0	0	0	
14	0	0	0	0	477	415	0	0	0	0	
15	0	0	0	0	474	411	0	0	0	0	
0	0	0	0	0	474	409	0	0	0	0	
1	0	0	0	0	475	410	0	0	0	0	
2	0	0	0	0	478	415	0	0	0	0	
3	0	0	0	0	482	421	0	0	0	0	
4	0	0	0	0	487	431	0	0	0	0	
5	0	0	0	0	494	442	0	0	0	0	
6	0	0	0	0	500	452	0	0	0	0	
7	0	0	0	0	505	462	0	0	0	0	
8	0	0	0	0	509	469	0	0	0	0	
9	0	0	0	0	510	473	0	0	0	0	
10	0	0	0	0	510	476	0	0	0	0	
11	0	0	0	0	508	473	0	0	0	0	
12	0	0	0	0	504	468	0	0	0	0	
13	0	0	0	0	499	460	0	0	0	0	
14	0	0	0	0	493	451	0	0	0	0	
15	0	0	0	0	487	440	0	0	0	0	
0	0	0	0	0	482	429	0	0	0	0	
1	0	0	0	0	477	419	0	0	0	0	
2	0	0	0	0	473	411	0	0	0	0	
3	0	0	0	0	472	404	0	0	0	0	
4	0	0	0	0	472	402	0	0	0	0	
5	0	0	0	0	473	401	0	0	0	0	
6	0	0	0	0	476	405	0	0	0	0	
7	0	0	0	0	480	411	0	0	0	0	
8	0	0	0	0	484	419	0	0	0	0	
9	0	0	0	0	489	429	0	0	0	0	
10	0	0	0	0	495	440	0	0	0	0	
11	0	0	0	0	499	450	0	0	0	0	
12	0	0	0	0	502	459	0	0	0	0	
13	0	0	0	0	504	466	0	0	0	0	
14	0	0	0	0	504	470	0	0	0	0	
15	0	0	0	0	503	471	0	0	0	0	
0	0	0	0	0	501	469	0	0	0	0	
1	0	0	0	0	496	463	0	0	0	0	
2	0	0	0	0	491	455	0	0	0	0	
3	0	0	0	0	486	447	0	0	0	0	
4	0	0	0	0	481	437	0	0	0	0	
5	0	0	0	0	476	428	0	0	0	0	
6	0	0	0	0	472	420	0	0	0	0	
7	0	0	0	0	470	414	0	0	0	0	
8	0	0	0	0	470	411	0	0	0	0	
9	0	0	0	0	470	410	0	0	0	0	
10	0	0	0	0	473	413	0	0	0	0	
11	0	0	0	0	476	418	0	0	0	0	
12	0	0	0	0	481	425	0	0	0	0	
13	0	0	0	0	487	435	0	0	0	0	
14	0	0	0	0	492	444	0	0	0	0	
15	0	0	0	0	497	453	0	0	0	0	
0	0	0	0	0	502	461	0	0	0	0	
1	0	0	0	0	505	467	0	0	0	0	
2	0	0	0	0	507	471	0	0	0	0	
3	0	0	0	0	507	471	0	0	0	0	
4	0	0	0	0	505	469	0	0	0	0	
5	0	0	0	0	502	465	0	0	0	0	
6	0	0	0	0	498	458	0	0	0	0	
7	0	0	0	0	494	450	0	0	0	0	
8	0	0	0	0	489	441	0	0	0	0	
9	0	0	0	0	484	432	0	0	0	0	
10	0	0	0	0	480	424	0	0	0	0	
11	0	0	0	0	477	417	0	0	0	0	
12	0	0	0	0	476	414	0	0	0	0	
13	0	0	0	0	476	412	0	0	0	0	
14	0	0	0	0	478	414	0	0	0	0	
15	0	0	0	0	481	419	0	0	0	0	
0	0	0	0	0	486	427	0	0	0	0	
1	0	0	0	0	491	436	0	0	0	0	
2	0	0	0	0	496	446	0	0	0	0	
3	0	0	0	0	501	455	0	0	0	0	
4	0	0	0	0	505	463	0	0	0	0	
5	0	0	0	0	507	469	0	0	0	0	
6	0	0	0	0	508	473	0	0	0	0	
7	0	0	0	0	508	473	0	0	0	0	
8	0	0	0	0	505	470	0	0	0	0	
9	0	0	0	0	502	465	0	0	0	0	
10	0	0	0	0	496	457	0	0	0	0	
11	0	0	0	0	491	449	0	0	0	0	
12	0	0	0	0	486	440	0	0	0	0	
13	0	0	0	0	481	432	0	0	0	0	
14	0	0	0	0	476	425	0	0	0	0	
15	0	0	0	0	473	420	0	0	0	0	
0	0	0	0	0	472	417	0	0	0	0	
1	0	0	0	0	472	417	0	0	0	0	
2	0	0	0	0	474	420	0	0	0	0	
3	0	0	0	0	478	426	0	0	0	0	
4	0	0	0	0	482	434	0	0	0	0	
5	0	0	0	0	488	443	0	0	0	0	
6	0	0	0	0	494	453	0	0	0	0	
7	0	0	0	0	500	463	0	0	0	0	
8	0	0	0	0	504	471	0	0	0	0	
9	0	0	0	0	507	477	0	0	0	0	
10	0	0	0	0	510	481	0	0	0	0	
11	0	0	0	0	510	482	0	0	0	0	
12	0	0	0	0	507	479	0	0	0	0	
13	0	0	0	0	504	474	0	0	0	0	
14	0	0	0	0	499	466	0	0	0	0	
15	0	0	0	0	493	457	0	0	0	0	
0	0	0	0	0	487	448	0	0	0	0	
1	0	0	0	0	481	438	0	0	0	0	
2	0	0	0	0	477	429	0	0	0	0	
3	0	0	0	0	472	422	0	0	0	0	
4	0	0	0	0	471	418	0	0	0	0	
5	0	0	0	0	470	416	0	0	0	0	
6	0	0	0	0	470	417	0	0	0	0	
7	0	0	0	0	472	420	0	0	0	0	
8	0	0	0	0	474	427	0	0	0	0	
9	0	0	0	0	479	435	0	0	0	0	
10	0	0	0	0	483	443	0	0	0	0	
11	0	0	0	0	487	451	0	0	0	0	
12	0	0	0	0	492	459	0	0	0	0	
13	0	0	0	0	494	464	0	0	0	0	
14	0	0	0	0	497	468	0	0	0	0	
15	0	0	0	0	497	468	0	0	0	0	
0	0	0	0	0	497	467	0	0	0	0	
1	0	0	0	0	496	463	0	0	0	0	
2	0	0	0	0	493	456	0	0	0	0	
3	0	0	0	0	489	448	0	0	0	0	
4	0	0	0	0	486	440	0	0	0	0	
5	0	0	0	0	482	431	0	0	0	0	
6	0	0	0	0	479	423	0	0	0	0	
7	0	0	0	0	476	417	0	0	0	0	
8	0	0	0	0	475	415	0	0	0	0	
9	0	0	0	0	474	414	0	0	0	0	
10	0	0	0	0	475	416	0	0	0	0	
11	0	0	0	0	477	421	0	0	0	0	
12	0	0	0	0	481	429	0	0	0	0	
13	0	0	0	0	486	439	0	0	0	0	
14	0	0	0	0	491	449	0	0	0	0	
15	0	0	0	0	496	459	0	0	0	0	
0	0	0	0	0	500	467	0	0	0	0	
1	0	0	0	0	504	475	0	0	0	0	
2	0	0	0	0	507	479	0	0	0	0	
3	0	0	0	0	508	481	0	0	0	0	
4	0	0	0	0	507	480	0	0	0	0	
5	0	0	0	0	505	476	0	0	0	0	
6	0	0	0	0	503	470	0	0	0	0	
7	0	0	0	0	499	462	0	0	0	0	
8	0	0	0	0	495	453	0	0	0	0	
9	0	0	0	0	492	445	0	0	0	0	
10	0	0	0	0	489	438	0	0	0	0	
11	0	0	0	0	487	433	0	0	0	0	
12	0	0	0	0	487	431	0	0	0	0	
13	0	0	0	0	488	431	0	0	0	0	
14	0	0	0	0	491	434	0	0	0	0	
15	0	0	0	0	495	440	0	0	0	0	
0	0	0	0	0	499	448	0	0	0	0	
1	0	0	0	0	504	457	0	0	0	0	
2	0	0	0	0	508	467	0	0	0	0	
3	0	0	0	0	512	476	0	0	0	0	
4	0	0	0	0	515	484	0	0	0	0	
5	0	0	0	0	517	489	0	0	0	0	
6	0	0	0	0	518	493	0	0	0	0	
7	0	0	0	0	517	493	0	0	0	0	
8	0	0	0	0	516	491	0	0	0	0	
9	0	0	0	0	512	485	0	0	0	0	
10	0	0	0	0	508	477	0	0	0	0	
11	0	0	0	0	504	468	0	0	0	0	
12	0	0	0	0	498	457	0	0	0	0	
13	0	0	0	0	492	446	0	0	0	0	
14	0	0	0	0	487	437	0	0	0	0	
15	0	0	0	0	482	428	0	0	0	0	
0	0	0	0	0	479	423	0	0	0	0	
1	0	0	0	0	477	421	0	0	0	0	
2	0	0	0	0	476	422	0	0	0	0	
3	0	0	0	0	479	425	0	0	0	0	
4	0	0	0	0	481	432	0	0	0	0	
5	0	0	0	0	486	441	0	0	0	0	
6	0	0	0	0	491	451	0	0	0	0	
7	0	0	0	0	496	462	0	0	0	0	
8	0	0	0	0	501	472	0	0	0	0	
9	0	0	0	0	505	480	0	0	0	0	
10	0	0	0	0	509	486	0	0	0	0	
11	0	0	0	0	511	489	0	0	0	0	
12	0	0	0	0	511	489	0	0	0	0	
13	0	0	0	0	510	486	0	0	0	0	
14	0	0	0	0	507	481	0	0	0	0	
15	0	0	0	0	504	473	0	0	0	0	
0	0	0	0	0	499	464	0	0	0	0	
1	0	0	0	0	496	455	0	0	0	0	
2	0	0	0	0	492	446	0	0	0	0	
3	0	0	0	0	489	440	0	0	0	0	
4	0	0	0	0	488	435	0	0	0	0	
5	0	0	0	0	489	434	0	0	0	0	
6	0	0	0	0	491	435	0	0	0	0	
7	0	0	0	0	494	440	0	0	0	0	
8	0	0	0	0	499	447	0	0	0	0	
9	0	0	0	0	504	455	0	0	0	0	
10	0	0	0	0	510	465	0	0	0	0	
11	0	0	0	0	515	475	0	0	0	0	
12	0	0	0	0	519	483	0	0	0	0	
13	0	0	0	0	522	488	0	0	0	0	
14	0	0	0	0	523	492	0	0	0	0	
15	0	0	0	0	520	490	0	0	0	0	
0	0	0	0	0	515	485	0	0	0	0	
1	0	0	0	0	507	476	0	0	0	0	
2	0	0	0	0	497	463	0	0	0	0	
3	0	0	0	0	486	449	0	0	0	0	
4	0	0	0	0	474	433	0	0	0	0	
5	0	0	0	0	461	415	0	0	0	0	
6	0	0	0	0	448	398	0	0	0	0	
7	0	0	0	0	436	382	0	0	0	0	
8	0	0	0	0	425	368	0	0	0	0	
9	0	0	0	0	415	358	0	0	0	0	
10	0	0	0	0	407	350	0	0	0	0	
11	0	0	0	0	400	344	0	0	0	0	
12	0	0	0	0	394	341	0	0	0	0	
13	0	0	0	0	389	340	0	0	0	0	
14	0	0	0	0	384	339	0	0	0	0	
15	0	0	0	0	380	339	0	0	0	0	
0	0	0	0	0	374	336	0	0	0	0	
1	0	0	0	0	367	333	0	0	0	0	
2	0	0	0	0	359	326	0	0	0	0	
3	0	0	0	0	349	318	0	0	0	0	
4	0	0	0	0	338	306	0	0	0	0	
5	0	0	0	0	327	293	0	0	0	0	
6	0	0	0	0	315	278	0	0	0	0	
7	0	0	0	0	305	265	0	0	0	0	
8	0	0	0	0	298	253	0	0	0	0	
9	0	0	0	0	294	244	0	0	0	0	
10	0	0	0	0	295	239	0	0	0	0	
11	0	0	0	0	300	241	0	0	0	0	
12	0	0	0	0	311	248	0	0	0	0	
13	0	0	0	0	327	261	0	0	0	0	
14	0	0	0	0	348	281	0	0	0	0	
15	0	0	0	0	373	305	0	0	0	0	
0	0	0	0	0	400	334	0	0	0	0	
1	0	0	0	0	429	365	0	0	0	0	
2	0	0	0	0	458	397	0	0	0	0	
3	0	0	0	0	486	428	0	0	0	0	
4	0	0	0	0	510	456	0	0	0	0	
5	0	0	0	0	529	479	0	0	0	0	
6	0	0	0	0	544	497	0	0	0	0	
7	0	0	0	0	553	509	0	0	0	0	
8	0	0	0	0	558	514	0	0	0	0	
9	0	0	0	0	557	512	0	0	0	0	
10	0	0	0	0	552	507	0	0	0	0	
11	0	0	0	0	545	498	0	0	0	0	
12	0	0	0	0	535	486	0	0	0	0	
13	0	0	0	0	525	474	0	0	0	0	
14	0	0	0	0	514	462	0	0	0	0	
15	0	0	0	0	505	451	0	0	0	0	
0	0	0	0	0	498	444	0	0	0	0	
1	0	0	0	0	494	440	0	0	0	0	
2	0	0	0	0	492	439	0	0	0	0	
3	0	0	0	0	493	443	0	0	0	0	
4	0	0	0	0	496	449	0	0	0	0	
5	0	0	0	0	503	459	0	0	0	0	
6	0	0	0	0	510	470	0	0	0	0	
7	0	0	0	0	518	481	0	0	0	0	
8	0	0	0	0	525	491	0	0	0	0	
9	0	0	0	0	531	501	0	0	0	0	
10	0	0	0	0	537	507	0	0	0	0	
11	0	0	0	0	540	510	0	0	0	0	
12	0	0	0	0	540	508	0	0	0	0	
13	0	0	0	0	537	504	0	0	0	0	
14	0	0	0	0	533	496	0	0	0	0	
15	0	0	0	0	528	487	0	0	0	0	
0	0	0	0	0	521	476	0	0	0	0	
1	0	0	0	0	515	466	0	0	0	0	
2	0	0	0	0	509	456	0	0	0	0	
3	0	0	0	0	504	448	0	0	0	0	
4	0	0	0	0	502	444	0	0	0	0	
5	0	0	0	0	501	444	0	0	0	0	
6	0	0	0	0	502	446	0	0	0	0	
7	0	0	0	0	505	451	0	0	0	0	
8	0	0	0	0	509	460	0	0	0	0	
9	0	0	0	0	516	470	0	0	0	0	
10	0	0	0	0	523	481	0	0	0	0	
11	0	0	0	0	529	492	0	0	0	0	
12	0	0	0	0	534	500	0	0	0	0	
13	0	0	0	0	538	508	0	0	0	0	
14	0	0	0	0	540	512	0	0	0	0	
15	0	0	0	0	541	513	0	0	0	0	
0	0	0	0	0	539	511	0	0	0	0	
1	0	0	0	0	536	506	0	0	0	0	
2	0	0	0	0	531	498	0	0	0	0	
3	0	0	0	0	526	489	0	0	0	0	
4	0	0	0	0	520	479	0	0	0	0	
5	0	0	0	0	515	470	0	0	0	0	
6	0	0	0	0	511	462	0	0	0	0	
7	0	0	0	0	507	456	0	0	0	0	
8	0	0	0	0	506	452	0	0	0	0	
9	0	0	0	0	506	451	0	0	0	0	
10	0	0	0	0	508	454	0	0	0	0	
11	0	0	0	0	511	458	0	0	0	0	
12	0	0	0	0	514	465	0	0	0	0	
13	0	0	0	0	519	473	0	0	0	0	
14	0	0	0	0	523	482	0	0	0	0	
15	0	0	0	0	527	491	0	0	0	0	
0	0	0	0	0	531	498	0	0	0	0	
1	0	0	0	0	532	503	0	0	0	0	
2	0	0	0	0	534	507	0	0	0	0	
3	0	0	0	0	533	507	0	0	0	0	
4	0	0	0	0	531	503	0	0	0	0	
5	0	0	0	0	527	497	0	0	0	0	
6	0	0	0	0	523	490	0	0	0	0	
7	0	0	0	0	519	481	0	0	0	0	
8	0	0	0	0	513	471	0	0	0	0	
9	0	0	0	0	509	461	0	0	0	0	
10	0	0	0	0	505	452	0	0	0	0	
11	0	0	0	0	503	447	0	0	0	0	
12	0	0	0	0	503	444	0	0	0	0	
13	0	0	0	0	504	444	0	0	0	0	
14	0	0	0	0	507	448	0	0	0	0	
15	0	0	0	0	511	453	0	0	0	0	
0	0	0	0	0	515	461	0	0	0	0	
1	0	0	0	0	521	470	0	0	0	0	
2	0	0	0	0	526	480	0	0	0	0	
3	0	0	0	0	530	488	0	0	0	0	
4	0	0	0	0	534	497	0	0	0	0	
5	0	0	0	0	536	503	0	0	0	0	
6	0	0	0	0	538	507	0	0	0	0	
7	0	0	0	0	538	508	0	0	0	0	
8	0	0	0	0	536	505	0	0	0	0	
9	0	0	0	0	532	500	0	0	0	0	
10	0	0	0	0	527	493	0	0	0	0	
11	0	0	0	0	521	484	0	0	0	0	
12	0	0	0	0	515	473	0	0	0	0	
13	0	0	0	0	509	463	0	0	0	0	
14	0	0	0	0	504	453	0	0	0	0	
15	0	0	0	0	499	445	0	0	0	0	
0	0	0	0	0	497	441	0	0	0	0	
1	0	0	0	0	497	439	0	0	0	0	
2	0	0	0	0	499	440	0	0	0	0	
3	0	0	0	0	503	445	0	0	0	0	
4	0	0	0	0	508	453	0	0	0	0	
5	0	0	0	0	515	462	0	0	0	0	
6	0	0	0	0	522	473	0	0	0	0	
7	0	0	0	0	529	483	0	0	0	0	
8	0	0	0	0	535	494	0	0	0	0	
9	0	0	0	0	540	503	0	0	0	0	
10	0	0	0	0	543	509	0	0	0	0	
11	0	0	0	0	544	512	0	0	0	0	
12	0	0	0	0	544	512	0	0	0	0	
13	0	0	0	0	542	508	0	0	0	0	
14	0	0	0	0	538	504	0	0	0	0	
15	0	0	0	0	534	496	0	0	0	0	
0	0	0	0	0	529	488	0	0	0	0	
1	0	0	0	0	524	480	0	0	0	0	
2	0	0	0	0	519	472	0	0	0	0	
3	0	0	0	0	516	467	0	0	0	0	
4	0	0	0	0	515	463	0	0	0	0	
5	0	0	0	0	514	461	0	0	0	0	
6	0	0	0	0	515	463	0	0	0	0	
7	0	0	0	0	517	466	0	0	0	0	
8	0	0	0	0	519	471	0	0	0	0	
9	0	0	0	0	523	478	0	0	0	0	
10	0	0	0	0	526	485	0	0	0	0	
11	0	0	0	0	530	493	0	0	0	0	
12	0	0	0	0	532	499	0	0	0	0	
13	0	0	0	0	533	503	0	0	0	0	
14	0	0	0	0	534	506	0	0	0	0	
15	0	0	0	0	532	505	0	0	0	0	
0	0	0	0	0	530	503	0	0	0	0	
1	0	0	0	0	526	496	0	0	0	0	
2	0	0	0	0	520	489	0	0	0	0	
3	0	0	0	0	515	480	0	0	0	0	
4	0	0	0	0	509	469	0	0	0	0	
5	0	0	0	0	504	460	0	0	0	0	
6	0	0	0	0	499	451	0	0	0	0	
7	0	0	0	0	496	444	0	0	0	0	
8	0	0	0	0	494	439	0	0	0	0	
9	0	0	0	0	494	437	0	0	0	0	
10	0	0	0	0	495	437	0	0	0	0	
11	0	0	0	0	497	440	0	0	0	0	
12	0	0	0	0	500	444	0	0	0	0	
13	0	0	0	0	504	451	0	0	0	0	
14	0	0	0	0	508	459	0	0	0	0	
15	0	0	0	0	512	467	0	0	0	0	
0	0	0	0	0	515	473	0	0	0	0	
1	0	0	0	0	519	480	0	0	0	0	
2	0	0	0	0	521	484	0	0	0	0	
3	0	0	0	0	522	486	0	0	0	0	
4	0	0	0	0	522	485	0	0	0	0	
5	0	0	0	0	520	482	0	0	0	0	
6	0	0	0	0	518	476	0	0	0	0	
7	0	0	0	0	515	469	0	0	0	0	
8	0	0	0	0	512	461	0	0	0	0	
9	0	0	0	0	509	454	0	0	0	0	
10	0	0	0	0	507	447	0	0	0	0	
11	0	0	0	0	504	441	0	0	0	0	
12	0	0	0	0	504	439	0	0	0	0	
13	0	0	0	0	504	438	0	0	0	0	
14	0	0	0	0	507	440	0	0	0	0	
15	0	0	0	0	509	444	0	0	0	0	
0	0	0	0	0	513	452	0	0	0	0	
1	0	0	0	0	519	461	0	0	0	0	
2	0	0	0	0	524	470	0	0	0	0	
3	0	0	0	0	528	479	0	0	0	0	
4	0	0	0	0	531	486	0	0	0	0	
5	0	0	0	0	533	491	0	0	0	0	
6	0	0	0	0	534	494	0	0	0	0	
7	0	0	0	0	533	494	0	0	0	0	
8	0	0	0	0	529	490	0	0	0	0	
9	0	0	0	0	525	484	0	0	0	0	
10	0	0	0	0	519	476	0	0	0	0	
11	0	0	0	0	514	467	0	0	0	0	
12	0	0	0	0	508	456	0	0	0	0	
13	0	0	0	0	503	448	0	0	0	0	
14	0	0	0	0	499	439	0	0	0	0	
15	0	0	0	0	497	434	0	0	0	0	
0	0	0	0	0	497	432	0	0	0	0	
1	0	0	0	0	499	431	0	0	0	0	
2	0	0	0	0	502	435	0	0	0	0	
3	0	0	0	0	507	441	0	0	0	0	
4	0	0	0	0	512	449	0	0	0	0	
5	0	0	0	0	519	460	0	0	0	0	
6	0	0	0	0	525	470	0	0	0	0	
7	0	0	0	0	530	480	0	0	0	0	
8	0	0	0	0	534	487	0	0	0	0	
9	0	0	0	0	535	493	0	0	0	0	
10	0	0	0	0	536	496	0	0	0	0	
11	0	0	0	0	534	495	0	0	0	0	
12	0	0	0	0	530	492	0	0	0	0	
13	0	0	0	0	524	484	0	0	0	0	
14	0	0	0	0	517	475	0	0	0	0	
15	0	0	0	0	509	464	0	0	0	0	
0	0	0	0	0	501	452	0	0	0	0	
1	0	0	0	0	494	441	0	0	0	0	
2	0	0	0	0	488	431	0	0	0	0	
3	0	0	0	0	484	424	0	0	0	0	
4	0	0	0	0	483	421	0	0	0	0	
5	0	0	0	0	485	421	0	0	0	0	
6	0	0	0	0	489	425	0	0	0	0	
7	0	0	0	0	496	432	0	0	0	0	
8	0	0	0	0	503	441	0	0	0	0	
9	0	0	0	0	512	454	0	0	0	0	
10	0	0	0	0	521	465	0	0	0	0	
11	0	0	0	0	529	478	0	0	0	0	
12	0	0	0	0	536	488	0	0	0	0	
13	0	0	0	0	541	497	0	0	0	0	
14	0	0	0	0	544	503	0	0	0	0	
15	0	0	0	0	545	504	0	0	0	0	
0	0	0	0	0	543	503	0	0	0	0	
1	0	0	0	0	539	499	0	0	0	0	
2	0	0	0	0	534	492	0	0	0	0	
3	0	0	0	0	528	483	0	0	0	0	
4	0	0	0	0	521	473	0	0	0	0	
5	0	0	0	0	515	464	0	0	0	0	
6	0	0	0	0	509	456	0	0	0	0	
7	0	0	0	0	506	450	0	0	0	0	
8	0	0	0	0	504	446	0	0	0	0	
9	0	0	0	0	504	445	0	0	0	0	
10	0	0	0	0	506	447	0	0	0	0	
11	0	0	0	0	510	452	0	0	0	0	
12	0	0	0	0	515	459	0	0	0	0	
13	0	0	0	0	522	469	0	0	0	0	
14	0	0	0	0	528	478	0	0	0	0	
15	0	0	0	0	534	488	0	0	0	0	
0	0	0	0	0	539	496	0	0	0	0	
1	0	0	0	0	542	504	0	0	0	0	
2	0	0	0	0	544	508	0	0	0	0	
3	0	0	0	0	544	508	0	0	0	0	
4	0	0	0	0	543	506	0	0	0	0	
5	0	0	0	0	539	502	0	0	0	0	
6	0	0	0	0	535	495	0	0	0	0	
7	0	0	0	0	531	487	0	0	0	0	
8	0	0	0	0	526	479	0	0	0	0	
9	0	0	0	0	521	470	0	0	0	0	
10	0	0	0	0	518	463	0	0	0	0	
11	0	0	0	0	515	456	0	0	0	0	
12	0	0	0	0	514	454	0	0	0	0	
13	0	0	0	0	514	453	0	0	0	0	
14	0	0	0	0	515	455	0	0	0	0	
15	0	0	0	0	518	461	0	0	0	0	
0	0	0	0	0	523	470	0	0	0	0	
1	0	0	0	0	528	479	0	0	0	0	
2	0	0	0	0	534	490	0	0	0	0	
3	0	0	0	0	540	500	0	0	0	0	
4	0	0	0	0	544	509	0	0	0	0	
5	0	0	0	0	547	515	0	0	0	0	
6	0	0	0	0	549	519	0	0	0	0	
7	0	0	0	0	549	519	0	0	0	0	
8	0	0	0	0	547	516	0	0	0	0	
9	0	0	0	0	543	510	0	0	0	0	
10	0	0	0	0	537	501	0	0	0	0	
11	0	0	0	0	532	492	0	0	0	0	
12	0	0	0	0	526	482	0	0	0	0	
13	0	0	0	0	521	472	0	0	0	0	
14	0	0	0	0	517	464	0	0	0	0	
15	0	0	0	0	513	459	0	0	0	0	
0	0	0	0	0	512	456	0	0	0	0	
1	0	0	0	0	513	456	0	0	0	0	
2	0	0	0	0	515	459	0	0	0	0	
3	0	0	0	0	519	464	0	0	0	0	
4	0	0	0	0	523	472	0	0	0	0	
5	0	0	0	0	529	482	0	0	0	0	
6	0	0	0	0	535	492	0	0	0	0	
7	0	0	0	0	540	502	0	0	0	0	
8	0	0	0	0	546	511	0	0	0	0	
9	0	0	0	0	549	516	0	0	0	0	
10	0	0	0	0	552	521	0	0	0	0	
11	0	0	0	0	553	522	0	0	0	0	
12	0	0	0	0	552	520	0	0	0	0	
13	0	0	0	0	549	515	0	0	0	0	
14	0	0	0	0	545	509	0	0	0	0	
15	0	0	0	0	542	501	0	0	0	0	
0	0	0	0	0	537	492	0	0	0	0	
1	0	0	0	0	532	483	0	0	0	0	
2	0	0	0	0	528	476	0	0	0	0	
3	0	0	0	0	526	470	0	0	0	0	
4	0	0	0	0	524	466	0	0	0	0	
5	0	0	0	0	524	465	0	0	0	0	
6	0	0	0	0	526	466	0	0	0	0	
7	0	0	0	0	528	471	0	0	0	0	
8	0	0	0	0	531	477	0	0	0	0	
9	0	0	0	0	536	485	0	0	0	0	
10	0	0	0	0	541	494	0	0	0	0	
11	0	0	0	0	546	503	0	0	0	0	
12	0	0	0	0	550	510	0	0	0	0	
13	0	0	0	0	552	516	0	0	0	0	
14	0	0	0	0	555	519	0	0	0	0	
15	0	0	0	0	555	519	0	0	0	0	
0	0	0	0	0	553	517	0	0	0	0	
1	0	0	0	0	550	512	0	0	0	0	
2	0	0	0	0	545	504	0	0	0	0	
3	0	0	0	0	541	496	0	0	0	0	
4	0	0	0	0	536	487	0	0	0	0	
5	0	0	0	0	530	476	0	0	0	0	
6	0	0	0	0	524	468	0	0	0	0	
7	0	0	0	0	520	461	0	0	0	0	
8	0	0	0	0	519	457	0	0	0	0	
9	0	0	0	0	518	455	0	0	0	0	
10	0	0	0	0	519	457	0	0	0	0	
11	0	0	0	0	522	462	0	0	0	0	
12	0	0	0	0	527	471	0	0	0	0	
13	0	0	0	0	534	481	0	0	0	0	
14	0	0	0	0	540	492	0	0	0	0	
15	0	0	0	0	547	503	0	0	0	0	
0	0	0	0	0	553	513	0	0	0	0	
1	0	0	0	0	558	521	0	0	0	0	
2	0	0	0	0	561	526	0	0	0	0	
3	0	0	0	0	561	527	0	0	0	0	
4	0	0	0	0	559	525	0	0	0	0	
5	0	0	0	0	555	519	0	0	0	0	
6	0	0	0	0	549	510	0	0	0	0	
7	0	0	0	0	541	498	0	0	0	0	
8	0	0	0	0	532	486	0	0	0	0	
9	0	0	0	0	523	472	0	0	0	0	
10	0	0	0	0	515	460	0	0	0	0	
11	0	0	0	0	508	449	0	0	0	0	
12	0	0	0	0	503	442	0	0	0	0	
13	0	0	0	0	500	438	0	0	0	0	
14	0	0	0	0	500	439	0	0	0	0	
15	0	0	0	0	502	443	0	0	0	0	
0	0	0	0	0	507	451	0	0	0	0	
1	0	0	0	0	513	462	0	0	0	0	
2	0	0	0	0	522	475	0	0	0	0	
3	0	0	0	0	531	489	0	0	0	0	
4	0	0	0	0	540	502	0	0	0	0	
5	0	0	0	0	548	513	0	0	0	0	
6	0	0	0	0	555	523	0	0	0	0	
7	0	0	0	0	560	528	0	0	0	0	
8	0	0	0	0	563	530	0	0	0	0	
9	0	0	0	0	563	529	0	0	0	0	
10	0	0	0	0	561	524	0	0	0	0	
11	0	0	0	0	558	517	0	0	0	0	
12	0	0	0	0	553	508	0	0	0	0	
13	0	0	0	0	547	497	0	0	0	0	
14	0	0	0	0	540	487	0	0	0	0	
15	0	0	0	0	535	479	0	0	0	0	
0	0	0	0	0	530	472	0	0	0	0	
1	0	0	0	0	526	468	0	0	0	0	
2	0	0	0	0	524	468	0	0	0	0	
3	0	0	0	0	524	470	0	0	0	0	
4	0	0	0	0	525	474	0	0	0	0	
5	0	0	0	0	528	481	0	0	0	0	
6	0	0	0	0	532	489	0	0	0	0	
7	0	0	0	0	536	497	0	0	0	0	
8	0	0	0	0	541	505	0	0	0	0	
9	0	0	0	0	544	510	0	0	0	0	
10	0	0	0	0	547	515	0	0	0	0	
11	0	0	0	0	548	516	0	0	0	0	
12	0	0	0	0	549	515	0	0	0	0	
13	0	0	0	0	547	511	0	0	0	0	
14	0	0	0	0	543	505	0	0	0	0	
15	0	0	0	0	540	497	0	0	0	0	
0	0	0	0	0	536	489	0	0	0	0	
1	0	0	0	0	531	481	0	0	0	0	
2	0	0	0	0	527	473	0	0	0	0	
3	0	0	0	0	524	468	0	0	0	0	
4	0	0	0	0	523	465	0	0	0	0	
5	0	0	0	0	523	464	0	0	0	0	
6	0	0	0	0	524	466	0	0	0	0	
7	0	0	0	0	525	471	0	0	0	0	
8	0	0	0	0	527	476	0	0	0	0	
9	0	0	0	0	531	483	0	0	0	0	
10	0	0	0	0	534	491	0	0	0	0	
11	0	0	0	0	536	497	0	0	0	0	
12	0	0	0	0	537	502	0	0	0	0	
13	0	0	0	0	536	505	0	0	0	0	
14	0	0	0	0	536	507	0	0	0	0	
15	0	0	0	0	534	505	0	0	0	0	
0	0	0	0	0	530	502	0	0	0	0	
1	0	0	0	0	526	495	0	0	0	0	
2	0	0	0	0	521	488	0	0	0	0	
3	0	0	0	0	518	480	0	0	0	0	
4	0	0	0	0	513	471	0	0	0	0	
5	0	0	0	0	510	463	0	0	0	0	
6	0	0	0	0	508	457	0	0	0	0	
7	0	0	0	0	508	453	0	0	0	0	
8	0	0	0	0	509	451	0	0	0	0	
9	0	0	0	0	512	452	0	0	0	0	
10	0	0	0	0	516	457	0	0	0	0	
11	0	0	0	0	523	465	0	0	0	0	
12	0	0	0	0	529	474	0	0	0	0	
13	0	0	0	0	537	486	0	0	0	0	
14	0	0	0	0	544	496	0	0	0	0	
15	0	0	0	0	550	507	0	0	0	0	
0	0	0	0	0	555	516	0	0	0	0	
1	0	0	0	0	557	523	0	0	0	0	
2	0	0	0	0	559	527	0	0	0	0	
3	0	0	0	0	558	527	0	0	0	0	
4	0	0	0	0	555	524	0	0	0	0	
5	0	0	0	0	550	519	0	0	0	0	
6	0	0	0	0	544	511	0	0	0	0	
7	0	0	0	0	538	503	0	0	0	0	
8	0	0	0	0	532	492	0	0	0	0	
9	0	0	0	0	525	482	0	0	0	0	
10	0	0	0	0	520	473	0	0	0	0	
11	0	0	0	0	516	465	0	0	0	0	
12	0	0	0	0	514	461	0	0	0	0	
13	0	0	0	0	513	458	0	0	0	0	
14	0	0	0	0	514	459	0	0	0	0	
15	0	0	0	0	516	463	0	0	0	0	
0	0	0	0	0	520	469	0	0	0	0	
1	0	0	0	0	525	477	0	0	0	0	
2	0	0	0	0	530	486	0	0	0	0	
3	0	0	0	0	535	496	0	0	0	0	
4	0	0	0	0	539	504	0	0	0	0	
5	0	0	0	0	543	512	0	0	0	0	
6	0	0	0	0	546	517	0	0	0	0	
7	0	0	0	0	547	519	0	0	0	0	
8	0	0	0	0	548	519	0	0	0	0	
9	0	0	0	0	546	515	0	0	0	0	
10	0	0	0	0	544	511	0	0	0	0	
11	0	0	0	0	541	504	0	0	0	0	
12	0	0	0	0	537	496	0	0	0	0	
13	0	0	0	0	534	487	0	0	0	0	
14	0	0	0	0	530	480	0	0	0	0	
15	0	0	0	0	527	475	0	0	0	0	
0	0	0	0	0	525	471	0	0	0	0	
1	0	0	0	0	525	470	0	0	0	0	
2	0	0	0	0	525	471	0	0	0	0	
3	0	0	0	0	526	474	0	0	0	0	
4	0	0	0	0	528	480	0	0	0	0	
5	0	0	0	0	532	487	0	0	0	0	
6	0	0	0	0	535	494	0	0	0	0	
7	0	0	0	0	538	502	0	0	0	0	
8	0	0	0	0	541	508	0	0	0	0	
9	0	0	0	0	543	514	0	0	0	0	
10	0	0	0	0	545	518	0	0	0	0	
11	0	0	0	0	544	519	0	0	0	0	
12	0	0	0	0	543	517	0	0	0	0	
13	0	0	0	0	540	513	0	0	0	0	
14	0	0	0	0	537	507	0	0	0	0	
15	0	0	0	0	534	500	0	0	0	0	
0	0	0	0	0	529	491	0	0	0	0	
1	0	0	0	0	525	483	0	0	0	0	
2	0	0	0	0	521	475	0	0	0	0	
3	0	0	0	0	518	468	0	0	0	0	
4	0	0	0	0	516	464	0	0	0	0	
5	0	0	0	0	516	463	0	0	0	0	
6	0	0	0	0	516	465	0	0	0	0	
7	0	0	0	0	519	469	0	0	0	0	
8	0	0	0	0	522	476	0	0	0	0	
9	0	0	0	0	526	484	0	0	0	0	
10	0	0	0	0	530	493	0	0	0	0	
11	0	0	0	0	535	501	0	0	0	0	
12	0	0	0	0	539	509	0	0	0	0	
13	0	0	0	0	541	515	0	0	0	0	
14	0	0	0	0	544	519	0	0	0	0	
15	0	0	0	0	545	521	0	0	0	0	
0	0	0	0	0	546	520	0	0	0	0	
1	0	0	0	0	545	516	0	0	0	0	
2	0	0	0	0	543	510	0	0	0	0	
3	0	0	0	0	541	504	0	0	0	0	
4	0	0	0	0	538	495	0	0	0	0	
5	0	0	0	0	535	487	0	0	0	0	
6	0	0	0	0	531	479	0	0	0	0	
7	0	0	0	0	529	473	0	0	0	0	
8	0	0	0	0	528	470	0	0	0	0	
9	0	0	0	0	527	469	0	0	0	0	
10	0	0	0	0	527	471	0	0	0	0	
11	0	0	0	0	529	476	0	0	0	0	
12	0	0	0	0	531	481	0	0	0	0	
13	0	0	0	0	534	490	0	0	0	0	
14	0	0	0	0	537	499	0	0	0	0	
15	0	0	0	0	541	508	0	0	0	0	
0	0	0	0	0	543	516	0	0	0	0	
1	0	0	0	0	546	524	0	0	0	0	
2	0	0	0	0	547	528	0	0	0	0	
3	0	0	0	0	548	531	0	0	0	0	
4	0	0	0	0	547	529	0	0	0	0	
5	0	0	0	0	544	526	0	0	0	0	
6	0	0	0	0	541	519	0	0	0	0	
7	0	0	0	0	537	511	0	0	0	0	
8	0	0	0	0	532	502	0	0	0	0	
9	0	0	0	0	527	492	0	0	0	0	
10	0	0	0	0	524	483	0	0	0	0	
11	0	0	0	0	519	475	0	0	0	0	
12	0	0	0	0	517	470	0	0	0	0	
13	0	0	0	0	516	467	0	0	0	0	
14	0	0	0	0	517	468	0	0	0	0	
15	0	0	0	0	519	471	0	0	0	0	
0	0	0	0	0	523	478	0	0	0	0	
1	0	0	0	0	528	487	0	0	0	0	
2	0	0	0	0	534	497	0	0	0	0	
3	0	0	0	0	540	508	0	0	0	0	
4	0	0	0	0	547	518	0	0	0	0	
5	0	0	0	0	551	526	0	0	0	0	
6	0	0	0	0	555	532	0	0	0	0	
7	0	0	0	0	557	536	0	0	0	0	
8	0	0	0	0	556	535	0	0	0	0	
9	0	0	0	0	555	532	0	0	0	0	
10	0	0	0	0	551	527	0	0	0	0	
11	0	0	0	0	548	520	0	0	0	0	
12	0	0	0	0	543	511	0	0	0	0	
13	0	0	0	0	539	504	0	0	0	0	
14	0	0	0	0	534	496	0	0	0	0	
15	0	0	0	0	531	490	0	0	0	0	
0	0	0	0	0	529	486	0	0	0	0	
1	0	0	0	0	528	484	0	0	0	0	
2	0	0	0	0	528	486	0	0	0	0	
3	0	0	0	0	530	490	0	0	0	0	
4	0	0	0	0	532	496	0	0	0	0	
5	0	0	0	0	536	504	0	0	0	0	
6	0	0	0	0	540	512	0	0	0	0	
7	0	0	0	0	545	521	0	0	0	0	
8	0	0	0	0	548	528	0	0	0	0	
9	0	0	0	0	551	533	0	0	0	0	
10	0	0	0	0	553	537	0	0	0	0	
11	0	0	0	0	552	536	0	0	0	0	
12	0	0	0	0	551	534	0	0	0	0	
13	0	0	0	0	547	528	0	0	0	0	
14	0	0	0	0	542	520	0	0	0	0	
15	0	0	0	0	537	510	0	0	0	0	
0	0	0	0	0	531	499	0	0	0	0	
1	0	0	0	0	525	488	0	0	0	0	
2	0	0	0	0	519	479	0	0	0	0	
3	0	0	0	0	515	472	0	0	0	0	
4	0	0	0	0	513	468	0	0	0	0	
5	0	0	0	0	512	468	0	0	0	0	
6	0	0	0	0	514	470	0	0	0	0	
7	0	0	0	0	517	475	0	0	0	0	
8	0	0	0	0	522	483	0	0	0	0	
9	0	0	0	0	528	494	0	0	0	0	
10	0	0	0	0	534	504	0	0	0	0	
11	0	0	0	0	542	516	0	0	0	0	
12	0	0	0	0	548	526	0	0	0	0	
13	0	0	0	0	553	535	0	0	0	0	
14	0	0	0	0	558	541	0	0	0	0	
15	0	0	0	0	561	544	0	0	0	0	
0	0	0	0	0	562	544	0	0	0	0	
1	0	0	0	0	561	542	0	0	0	0	
2	0	0	0	0	558	537	0	0	0	0	
3	0	0	0	0	555	530	0	0	0	0	
4	0	0	0	0	550	521	0	0	0	0	
5	0	0	0	0	545	512	0	0	0	0	
6	0	0	0	0	540	504	0	0	0	0	
7	0	0	0	0	536	497	0	0	0	0	
8	0	0	0	0	533	492	0	0	0	0	
9	0	0	0	0	532	490	0	0	0	0	
10	0	0	0	0	532	492	0	0	0	0	
11	0	0	0	0	534	495	0	0	0	0	
12	0	0	0	0	536	500	0	0	0	0	
13	0	0	0	0	540	508	0	0	0	0	
14	0	0	0	0	544	515	0	0	0	0	
15	0	0	0	0	548	522	0	0	0	0	
0	0	0	0	0	550	527	0	0	0	0	
1	0	0	0	0	551	531	0	0	0	0	
2	0	0	0	0	551	532	0	0	0	0	
3	0	0	0	0	550	531	0	0	0	0	
4	0	0	0	0	546	526	0	0	0	0	
5	0	0	0	0	541	519	0	0	0	0	
6	0	0	0	0	535	510	0	0	0	0	
7	0	0	0	0	529	501	0	0	0	0	
8	0	0	0	0	523	492	0	0	0	0	
9	0	0	0	0	518	483	0	0	0	0	
10	0	0	0	0	515	476	0	0	0	0	
11	0	0	0	0	512	471	0	0	0	0	
12	0	0	0	0	513	469	0	0	0	0	
13	0	0	0	0	515	470	0	0	0	0	
14	0	0	0	0	519	474	0	0	0	0	
15	0	0	0	0	526	480	0	0	0	0	
0	0	0	0	0	531	489	0	0	0	0	
1	0	0	0	0	540	500	0	0	0	0	
2	0	0	0	0	548	512	0	0	0	0	
3	0	0	0	0	557	524	0	0	0	0	
4	0	0	0	0	563	535	0	0	0	0	
5	0	0	0	0	569	543	0	0	0	0	
6	0	0	0	0	572	550	0	0	0	0	
7	0	0	0	0	574	552	0	0	0	0	
8	0	0	0	0	574	552	0	0	0	0	
9	0	0	0	0	571	548	0	0	0	0	
10	0	0	0	0	565	541	0	0	0	0	
11	0	0	0	0	559	532	0	0	0	0	
12	0	0	0	0	551	521	0	0	0	0	
13	0	0	0	0	544	510	0	0	0	0	
14	0	0	0	0	536	499	0	0	0	0	
15	0	0	0	0	529	489	0	0	0	0	
0	0	0	0	0	524	482	0	0	0	0	
1	0	0	0	0	521	478	0	0	0	0	
2	0	0	0	0	519	477	0	0	0	0	
3	0	0	0	0	519	479	0	0	0	0	
4	0	0	0	0	521	483	0	0	0	0	
5	0	0	0	0	525	491	0	0	0	0	
6	0	0	0	0	529	499	0	0	0	0	
7	0	0	0	0	534	509	0	0	0	0	
8	0	0	0	0	540	519	0	0	0	0	
9	0	0	0	0	543	526	0	0	0	0	
10	0	0	0	0	547	533	0	0	0	0	
11	0	0	0	0	550	536	0	0	0	0	
12	0	0	0	0	550	535	0	0	0	0	
13	0	0	0	0	548	531	0	0	0	0	
14	0	0	0	0	545	525	0	0	0	0	
15	0	0	0	0	542	516	0	0	0	0	
0	0	0	0	0	536	506	0	0	0	0	
1	0	0	0	0	531	495	0	0	0	0	
2	0	0	0	0	526	484	0	0	0	0	
3	0	0	0	0	521	476	0	0	0	0	
4	0	0	0	0	519	471	0	0	0	0	
5	0	0	0	0	518	467	0	0	0	0	
6	0	0	0	0	518	468	0	0	0	0	
7	0	0	0	0	520	471	0	0	0	0	
8	0	0	0	0	523	477	0	0	0	0	
9	0	0	0	0	527	484	0	0	0	0	
10	0	0	0	0	531	492	0	0	0	0	
11	0	0	0	0	534	500	0	0	0	0	
12	0	0	0	0	536	506	0	0	0	0	
13	0	0	0	0	536	510	0	0	0	0	
14	0	0	0	0	534	512	0	0	0	0	
15	0	0	0	0	529	509	0	0	0	0	
0	0	0	0	0	523	502	0	0	0	0	
1	0	0	0	0	513	492	0	0	0	0	
2	0	0	0	0	502	479	0	0	0	0	
3	0	0	0	0	489	463	0	0	0	0	
4	0	0	0	0	476	447	0	0	0	0	
5	0	0	0	0	462	429	0	0	0	0	
6	0	0	0	0	448	412	0	0	0	0	
7	0	0	0	0	437	397	0	0	0	0	
8	0	0	0	0	426	384	0	0	0	0	
9	0	0	0	0	417	372	0	0	0	0	
10	0	0	0	0	409	364	0	0	0	0	
11	0	0	0	0	403	358	0	0	0	0	
12	0	0	0	0	397	355	0	0	0	0	
13	0	0	0	0	393	353	0	0	0	0	
14	0	0	0	0	390	353	0	0	0	0	
15	0	0	0	0	385	353	0	0	0	0	
0	0	0	0	0	380	352	0	0	0	0	
1	0	0	0	0	375	350	0	0	0	0	
2	0	0	0	0	368	347	0	0	0	0	
3	0	0	0	0	362	343	0	0	0	0	
4	0	0	0	0	355	337	0	0	0	0	
5	0	0	0	0	351	331	0	0	0	0	
6	0	0	0	0	347	324	0	0	0	0	
7	0	0	0	0	346	319	0	0	0	0	
8	0	0	0	0	348	317	0	0	0	0	
9	0	0	0	0	354	316	0	0	0	0	
10	0	0	0	0	364	320	0	0	0	0	
11	0	0	0	0	377	327	0	0	0	0	
12	0	0	0	0	395	339	0	0	0	0	
13	0	0	0	0	415	355	0	0	0	0	
14	0	0	0	0	438	375	0	0	0	0	
15	0	0	0	0	461	398	0	0	0	0	
0	0	0	0	0	485	424	0	0	0	0	
1	0	0	0	0	509	450	0	0	0	0	
2	0	0	0	0	531	476	0	0	0	0	
3	0	0	0	0	550	501	0	0	0	0	
4	0	0	0	0	567	523	0	0	0	0	
5	0	0	0	0	579	541	0	0	0	0	
6	0	0	0	0	588	553	0	0	0	0	
7	0	0	0	0	592	561	0	0	0	0	
8	0	0	0	0	593	564	0	0	0	0	
9	0	0	0	0	590	562	0	0	0	0	
10	0	0	0	0	584	556	0	0	0	0	
11	0	0	0	0	576	546	0	0	0	0	
12	0	0	0	0	567	535	0	0	0	0	
13	0	0	0	0	557	523	0	0	0	0	
14	0	0	0	0	548	511	0	0	0	0	
15	0	0	0	0	540	501	0	0	0	0	
0	0	0	0	0	533	494	0	0	0	0	
1	0	0	0	0	529	489	0	0	0	0	
2	0	0	0	0	527	487	0	0	0	0	
3	0	0	0	0	528	489	0	0	0	0	
4	0	0	0	0	529	493	0	0	0	0	
5	0	0	0	0	533	500	0	0	0	0	
6	0	0	0	0	537	508	0	0	0	0	
7	0	0	0	0	542	516	0	0	0	0	
8	0	0	0	0	546	523	0	0	0	0	
9	0	0	0	0	550	530	0	0	0	0	
10	0	0	0	0	554	534	0	0	0	0	
11	0	0	0	0	556	535	0	0	0	0	
12	0	0	0	0	556	534	0	0	0	0	
13	0	0	0	0	554	529	0	0	0	0	
14	0	0	0	0	551	524	0	0	0	0	
15	0	0	0	0	548	515	0	0	0	0	
0	0	0	0	0	544	507	0	0	0	0	
1	0	0	0	0	540	497	0	0	0	0	
2	0	0	0	0	536	489	0	0	0	0	
3	0	0	0	0	533	484	0	0	0	0	
4	0	0	0	0	532	481	0	0	0	0	
5	0	0	0	0	532	480	0	0	0	0	
6	0	0	0	0	534	482	0	0	0	0	
7	0	0	0	0	536	486	0	0	0	0	
8	0	0	0	0	540	494	0	0	0	0	
9	0	0	0	0	545	503	0	0	0	0	
10	0	0	0	0	551	512	0	0	0	0	
11	0	0	0	0	556	522	0	0	0	0	
12	0	0	0	0	561	530	0	0	0	0	
13	0	0	0	0	564	537	0	0	0	0	
14	0	0	0	0	567	541	0	0	0	0	
15	0	0	0	0	567	543	0	0	0	0	
0	0	0	0	0	566	542	0	0	0	0	
1	0	0	0	0	563	537	0	0	0	0	
2	0	0	0	0	559	532	0	0	0	0	
3	0	0	0	0	554	524	0	0	0	0	
4	0	0	0	0	549	515	0	0	0	0	
5	0	0	0	0	543	506	0	0	0	0	
6	0	0	0	0	538	497	0	0	0	0	
7	0	0	0	0	534	491	0	0	0	0	
8	0	0	0	0	532	486	0	0	0	0	
9	0	0	0	0	531	484	0	0	0	0	
10	0	0	0	0	531	483	0	0	0	0	
11	0	0	0	0	532	486	0	0	0	0	
12	0	0	0	0	534	491	0	0	0	0	
13	0	0	0	0	538	498	0	0	0	0	
14	0	0	0	0	542	506	0	0	0	0	
15	0	0	0	0	546	514	0	0	0	0	
0	0	0	0	0	550	522	0	0	0	0	
1	0	0	0	0	553	528	0	0	0	0	
2	0	0	0	0	556	533	0	0	0	0	
3	0	0	0	0	558	536	0	0	0	0	
4	0	0	0	0	558	535	0	0	0	0	
5	0	0	0	0	557	532	0	0	0	0	
6	0	0	0	0	554	527	0	0	0	0	
7	0	0	0	0	551	520	0	0	0	0	
8	0	0	0	0	547	512	0	0	0	0	
9	0	0	0	0	542	504	0	0	0	0	
10	0	0	0	0	537	495	0	0	0	0	
11	0	0	0	0	533	488	0	0	0	0	
12	0	0	0	0	531	484	0	0	0	0	
13	0	0	0	0	529	481	0	0	0	0	
14	0	0	0	0	528	481	0	0	0	0	
15	0	0	0	0	529	484	0	0	0	0	
0	0	0	0	0	531	488	0	0	0	0	
1	0	0	0	0	536	495	0	0	0	0	
2	0	0	0	0	540	503	0	0	0	0	
3	0	0	0	0	544	511	0	0	0	0	
4	0	0	0	0	548	518	0	0	0	0	
5	0	0	0	0	551	524	0	0	0	0	
6	0	0	0	0	554	528	0	0	0	0	
7	0	0	0	0	555	529	0	0	0	0	
8	0	0	0	0	554	528	0	0	0	0	
9	0	0	0	0	551	524	0	0	0	0	
10	0	0	0	0	547	518	0	0	0	0	
11	0	0	0	0	543	510	0	0	0	0	
12	0	0	0	0	538	501	0	0	0	0	
13	0	0	0	0	533	492	0	0	0	0	
14	0	0	0	0	528	484	0	0	0	0	
15	0	0	0	0	524	477	0	0	0	0	
0	0	0	0	0	523	474	0	0	0	0	
1	0	0	0	0	522	472	0	0	0	0	
2	0	0	0	0	524	474	0	0	0	0	
3	0	0	0	0	526	478	0	0	0	0	
4	0	0	0	0	531	485	0	0	0	0	
5	0	0	0	0	536	494	0	0	0	0	
6	0	0	0	0	543	504	0	0	0	0	
7	0	0	0	0	548	512	0	0	0	0	
8	0	0	0	0	553	520	0	0	0	0	
9	0	0	0	0	556	526	0	0	0	0	
10	0	0	0	0	559	531	0	0	0	0	
11	0	0	0	0	559	531	0	0	0	0	
12	0	0	0	0	558	529	0	0	0	0	
13	0	0	0	0	555	524	0	0	0	0	
14	0	0	0	0	550	517	0	0	0	0	
15	0	0	0	0	545	508	0	0	0	0	
0	0	0	0	0	539	498	0	0	0	0	
1	0	0	0	0	533	489	0	0	0	0	
2	0	0	0	0	528	480	0	0	0	0	
3	0	0	0	0	524	473	0	0	0	0	
4	0	0	0	0	521	469	0	0	0	0	
5	0	0	0	0	519	467	0	0	0	0	
6	0	0	0	0	519	468	0	0	0	0	
7	0	0	0	0	521	472	0	0	0	0	
8	0	0	0	0	523	477	0	0	0	0	
9	0	0	0	0	527	486	0	0	0	0	
10	0	0	0	0	532	493	0	0	0	0	
11	0	0	0	0	536	503	0	0	0	0	
12	0	0	0	0	540	510	0	0	0	0	
13	0	0	0	0	543	515	0	0	0	0	
14	0	0	0	0	545	519	0	0	0	0	
15	0	0	0	0	546	519	0	0	0	0	
0	0	0	0	0	545	517	0	0	0	0	
1	0	0	0	0	543	511	0	0	0	0	
2	0	0	0	0	539	505	0	0	0	0	
3	0	0	0	0	536	496	0	0	0	0	
4	0	0	0	0	531	487	0	0	0	0	
5	0	0	0	0	526	478	0	0	0	0	
6	0	0	0	0	522	470	0	0	0	0	
7	0	0	0	0	518	464	0	0	0	0	
8	0	0	0	0	516	460	0	0	0	0	
9	0	0	0	0	515	459	0	0	0	0	
10	0	0	0	0	516	460	0	0	0	0	
11	0	0	0	0	518	464	0	0	0	0	
12	0	0	0	0	521	471	0	0	0	0	
13	0	0	0	0	527	479	0	0	0	0	
14	0	0	0	0	532	488	0	0	0	0	
15	0	0	0	0	537	497	0	0	0	0	
0	0	0	0	0	543	506	0	0	0	0	
1	0	0	0	0	547	514	0	0	0	0	
2	0	0	0	0	551	519	0	0	0	0	
3	0	0	0	0	554	522	0	0	0	0	
4	0	0	0	0	554	521	0	0	0	0	
5	0	0	0	0	552	518	0	0	0	0	
6	0	0	0	0	550	512	0	0	0	0	
7	0	0	0	0	546	505	0	0	0	0	
8	0	0	0	0	541	496	0	0	0	0	
9	0	0	0	0	536	487	0	0	0	0	
10	0	0	0	0	529	478	0	0	0	0	
11	0	0	0	0	525	470	0	0	0	0	
12	0	0	0	0	523	466	0	0	0	0	
13	0	0	0	0	521	464	0	0	0	0	
14	0	0	0	0	522	464	0	0	0	0	
15	0	0	0	0	523	468	0	0	0	0	
0	0	0	0	0	527	475	0	0	0	0	
1	0	0	0	0	533	483	0	0	0	0	
2	0	0	0	0	539	493	0	0	0	0	
3	0	0	0	0	545	502	0	0	0	0	
4	0	0	0	0	551	512	0	0	0	0	
5	0	0	0	0	557	519	0	0	0	0	
6	0	0	0	0	561	524	0	0	0	0	
7	0	0	0	0	562	526	0	0	0	0	
8	0	0	0	0	561	524	0	0	0	0	
9	0	0	0	0	557	519	0	0	0	0	
10	0	0	0	0	551	512	0	0	0	0	
11	0	0	0	0	544	502	0	0	0	0	
12	0	0	0	0	535	490	0	0	0	0	
13	0	0	0	0	526	479	0	0	0	0	
14	0	0	0	0	517	468	0	0	0	0	
15	0	0	0	0	510	459	0	0	0	0	
0	0	0	0	0	504	453	0	0	0	0	
1	0	0	0	0	501	449	0	0	0	0	
2	0	0	0	0	499	448	0	0	0	0	
3	0	0	0	0	501	451	0	0	0	0	
4	0	0	0	0	504	456	0	0	0	0	
5	0	0	0	0	510	465	0	0	0	0	
6	0	0	0	0	515	473	0	0	0	0	
7	0	0	0	0	522	483	0	0	0	0	
8	0	0	0	0	528	492	0	0	0	0	
9	0	0	0	0	533	500	0	0	0	0	
10	0	0	0	0	538	506	0	0	0	0	
11	0	0	0	0	541	509	0	0	0	0	
12	0	0	0	0	542	510	0	0	0	0	
13	0	0	0	0	542	508	0	0	0	0	
14	0	0	0	0	540	502	0	0	0	0	
15	0	0	0	0	537	496	0	0	0	0	
0	0	0	0	0	534	488	0	0	0	0	
1	0	0	0	0	529	480	0	0	0	0	
2	0	0	0	0	526	472	0	0	0	0	
3	0	0	0	0	522	465	0	0	0	0	
4	0	0	0	0	519	461	0	0	0	0	
5	0	0	0	0	518	458	0	0	0	0	
6	0	0	0	0	518	459	0	0	0	0	
7	0	0	0	0	518	461	0	0	0	0	
8	0	0	0	0	520	466	0	0	0	0	
9	0	0	0	0	523	473	0	0	0	0	
10	0	0	0	0	526	480	0	0	0	0	
11	0	0	0	0	529	488	0	0	0	0	
12	0	0	0	0	531	495	0	0	0	0	
13	0	0	0	0	534	500	0	0	0	0	
14	0	0	0	0	534	504	0	0	0	0	
15	0	0	0	0	534	504	0	0	0	0	
0	0	0	0	0	533	503	0	0	0	0	
1	0	0	0	0	531	499	0	0	0	0	
2	0	0	0	0	528	493	0	0	0	0	
3	0	0	0	0	524	486	0	0	0	0	
4	0	0	0	0	520	478	0	0	0	0	
5	0	0	0	0	517	470	0	0	0	0	
6	0	0	0	0	514	463	0	0	0	0	
7	0	0	0	0	512	457	0	0	0	0	
8	0	0	0	0	512	455	0	0	0	0	
9	0	0	0	0	513	455	0	0	0	0	
10	0	0	0	0	515	457	0	0	0	0	
11	0	0	0	0	519	462	0	0	0	0	
12	0	0	0	0	524	468	0	0	0	0	
13	0	0	0	0	530	478	0	0	0	0	
14	0	0	0	0	536	486	0	0	0	0	
15	0	0	0	0	541	496	0	0	0	0	
0	0	0	0	0	546	504	0	0	0	0	
1	0	0	0	0	550	512	0	0	0	0	
2	0	0	0	0	554	517	0	0	0	0	
3	0	0	0	0	555	520	0	0	0	0	
4	0	0	0	0	555	520	0	0	0	0	
5	0	0	0	0	554	517	0	0	0	0	
6	0	0	0	0	551	513	0	0	0	0	
7	0	0	0	0	548	507	0	0	0	0	
8	0	0	0	0	544	499	0	0	0	0	
9	0	0	0	0	541	492	0	0	0	0	
10	0	0	0	0	537	484	0	0	0	0	
11	0	0	0	0	534	479	0	0	0	0	
12	0	0	0	0	533	475	0	0	0	0	
13	0	0	0	0	532	473	0	0	0	0	
14	0	0	0	0	533	473	0	0	0	0	
15	0	0	0	0	534	476	0	0	0	0	
0	0	0	0	0	536	481	0	0	0	0	
1	0	0	0	0	540	487	0	0	0	0	
2	0	0	0	0	544	495	0	0	0	0	
3	0	0	0	0	547	502	0	0	0	0	
4	0	0	0	0	551	508	0	0	0	0	
5	0	0	0	0	553	515	0	0	0	0	
6	0	0	0	0	555	518	0	0	0	0	
7	0	0	0	0	555	519	0	0	0	0	
8	0	0	0	0	554	518	0	0	0	0	
9	0	0	0	0	551	513	0	0	0	0	
10	0	0	0	0	547	507	0	0	0	0	
11	0	0	0	0	543	498	0	0	0	0	
12	0	0	0	0	537	488	0	0	0	0	
13	0	0	0	0	532	478	0	0	0	0	
14	0	0	0	0	527	469	0	0	0	0	
15	0	0	0	0	522	461	0	0	0	0	
0	0	0	0	0	519	456	0	0	0	0	
1	0	0	0	0	519	454	0	0	0	0	
2	0	0	0	0	520	455	0	0	0	0	
3	0	0	0	0	522	458	0	0	0	0	
4	0	0	0	0	526	464	0	0	0	0	
5	0	0	0	0	531	473	0	0	0	0	
6	0	0	0	0	537	482	0	0	0	0	
7	0	0	0	0	543	491	0	0	0	0	
8	0	0	0	0	548	500	0	0	0	0	
9	0	0	0	0	552	506	0	0	0	0	
10	0	0	0	0	555	511	0	0	0	0	
11	0	0	0	0	556	514	0	0	0	0	
12	0	0	0	0	555	512	0	0	0	0	
13	0	0	0	0	552	509	0	0	0	0	
14	0	0	0	0	548	503	0	0	0	0	
15	0	0	0	0	543	495	0	0	0	0	
0	0	0	0	0	537	486	0	0	0	0	
1	0	0	0	0	531	477	0	0	0	0	
2	0	0	0	0	526	468	0	0	0	0	
3	0	0	0	0	521	461	0	0	0	0	
4	0	0	0	0	519	457	0	0	0	0	
5	0	0	0	0	518	455	0	0	0	0	
6	0	0	0	0	518	455	0	0	0	0	
7	0	0	0	0	520	458	0	0	0	0	
8	0	0	0	0	523	463	0	0	0	0	
9	0	0	0	0	528	471	0	0	0	0	
10	0	0	0	0	533	480	0	0	0	0	
11	0	0	0	0	539	488	0	0	0	0	
12	0	0	0	0	544	496	0	0	0	0	
13	0	0	0	0	548	503	0	0	0	0	
14	0	0	0	0	552	508	0	0	0	0	
15	0	0	0	0	555	511	0	0	0	0	
0	0	0	0	0	556	511	0	0	0	0	
1	0	0	0	0	555	508	0	0	0	0	
2	0	0	0	0	553	503	0	0	0	0	
3	0	0	0	0	550	496	0	0	0	0	
4	0	0	0	0	545	487	0	0	0	0	
5	0	0	0	0	541	478	0	0	0	0	
6	0	0	0	0	536	469	0	0	0	0	
7	0	0	0	0	532	462	0	0	0	0	
8	0	0	0	0	530	457	0	0	0	0	
9	0	0	0	0	528	454	0	0	0	0	
10	0	0	0	0	527	454	0	0	0	0	
11	0	0	0	0	529	456	0	0	0	0	
12	0	0	0	0	531	461	0	0	0	0	
13	0	0	0	0	535	469	0	0	0	0	
14	0	0	0	0	539	477	0	0	0	0	
15	0	0	0	0	543	486	0	0	0	0	
0	0	0	0	0	547	494	0	0	0	0	
1	0	0	0	0	550	502	0	0	0	0	
2	0	0	0	0	554	508	0	0	0	0	
3	0	0	0	0	556	511	0	0	0	0	
4	0	0	0	0	556	511	0	0	0	0	
5	0	0	0	0	556	508	0	0	0	0	
6	0	0	0	0	554	503	0	0	0	0	
7	0	0	0	0	551	496	0	0	0	0	
8	0	0	0	0	547	487	0	0	0	0	
9	0	0	0	0	543	479	0	0	0	0	
10	0	0	0	0	540	471	0	0	0	0	
11	0	0	0	0	536	463	0	0	0	0	
12	0	0	0	0	533	458	0	0	0	0	
13	0	0	0	0	531	455	0	0	0	0	
14	0	0	0	0	531	455	0	0	0	0	
15	0	0	0	0	532	457	0	0	0	0	
0	0	0	0	0	534	462	0	0	0	0	
1	0	0	0	0	537	469	0	0	0	0	
2	0	0	0	0	541	478	0	0	0	0	
3	0	0	0	0	544	486	0	0	0	0	
4	0	0	0	0	548	494	0	0	0	0	
5	0	0	0	0	550	500	0	0	0	0	
6	0	0	0	0	553	505	0	0	0	0	
7	0	0	0	0	553	506	0	0	0	0	
8	0	0	0	0	552	505	0	0	0	0	
9	0	0	0	0	549	501	0	0	0	0	
10	0	0	0	0	545	494	0	0	0	0	
11	0	0	0	0	541	486	0	0	0	0	
12	0	0	0	0	536	477	0	0	0	0	
13	0	0	0	0	531	467	0	0	0	0	
14	0	0	0	0	526	457	0	0	0	0	
15	0	0	0	0	522	449	0	0	0	0	
0	0	0	0	0	519	444	0	0	0	0	
1	0	0	0	0	519	440	0	0	0	0	
2	0	0	0	0	518	440	0	0	0	0	
3	0	0	0	0	519	443	0	0	0	0	
4	0	0	0	0	521	447	0	0	0	0	
5	0	0	0	0	525	455	0	0	0	0	
6	0	0	0	0	528	463	0	0	0	0	
7	0	0	0	0	532	470	0	0	0	0	
8	0	0	0	0	535	478	0	0	0	0	
9	0	0	0	0	536	484	0	0	0	0	
10	0	0	0	0	538	487	0	0	0	0	
11	0	0	0	0	538	489	0	0	0	0	
12	0	0	0	0	536	488	0	0	0	0	
13	0	0	0	0	534	484	0	0	0	0	
14	0	0	0	0	529	478	0	0	0	0	
15	0	0	0	0	525	471	0	0	0	0	
0	0	0	0	0	520	462	0	0	0	0	
1	0	0	0	0	515	454	0	0	0	0	
2	0	0	0	0	511	446	0	0	0	0	
3	0	0	0	0	508	439	0	0	0	0	
4	0	0	0	0	507	435	0	0	0	0	
5	0	0	0	0	506	433	0	0	0	0	
6	0	0	0	0	507	433	0	0	0	0	
7	0	0	0	0	510	437	0	0	0	0	
8	0	0	0	0	513	443	0	0	0	0	
9	0	0	0	0	518	451	0	0	0	0	
10	0	0	0	0	523	459	0	0	0	0	
11	0	0	0	0	527	468	0	0	0	0	
12	0	0	0	0	531	475	0	0	0	0	
13	0	0	0	0	533	482	0	0	0	0	
14	0	0	0	0	536	486	0	0	0	0	
15	0	0	0	0	535	487	0	0	0	0	
0	0	0	0	0	533	485	0	0	0	0	
1	0	0	0	0	530	480	0	0	0	0	
2	0	0	0	0	525	474	0	0	0	0	
3	0	0	0	0	521	466	0	0	0	0	
4	0	0	0	0	515	456	0	0	0	0	
5	0	0	0	0	511	447	0	0	0	0	
6	0	0	0	0	507	438	0	0	0	0	
7	0	0	0	0	503	431	0	0	0	0	
8	0	0	0	0	502	426	0	0	0	0	
9	0	0	0	0	503	425	0	0	0	0	
10	0	0	0	0	505	426	0	0	0	0	
11	0	0	0	0	509	430	0	0	0	0	
12	0	0	0	0	513	438	0	0	0	0	
13	0	0	0	0	520	447	0	0	0	0	
14	0	0	0	0	526	456	0	0	0	0	
15	0	0	0	0	532	467	0	0	0	0	
0	0	0	0	0	537	475	0	0	0	0	
1	0	0	0	0	540	483	0	0	0	0	
2	0	0	0	0	543	488	0	0	0	0	
3	0	0	0	0	543	490	0	0	0	0	
4	0	0	0	0	542	488	0	0	0	0	
5	0	0	0	0	539	483	0	0	0	0	
6	0	0	0	0	534	478	0	0	0	0	
7	0	0	0	0	529	469	0	0	0	0	
8	0	0	0	0	524	460	0	0	0	0	
9	0	0	0	0	519	451	0	0	0	0	
10	0	0	0	0	515	442	0	0	0	0	
11	0	0	0	0	511	436	0	0	0	0	
12	0	0	0	0	511	432	0	0	0	0	
13	0	0	0	0	511	430	0	0	0	0	
14	0	0	0	0	512	431	0	0	0	0	
15	0	0	0	0	515	434	0	0	0	0	
0	0	0	0	0	519	440	0	0	0	0	
1	0	0	0	0	523	448	0	0	0	0	
2	0	0	0	0	527	455	0	0	0	0	
3	0	0	0	0	531	464	0	0	0	0	
4	0	0	0	0	535	472	0	0	0	0	
5	0	0	0	0	537	477	0	0	0	0	
6	0	0	0	0	538	480	0	0	0	0	
7	0	0	0	0	537	480	0	0	0	0	
8	0	0	0	0	536	478	0	0	0	0	
9	0	0	0	0	532	472	0	0	0	0	
10	0	0	0	0	528	463	0	0	0	0	
11	0	0	0	0	523	454	0	0	0	0	
12	0	0	0	0	518	443	0	0	0	0	
13	0	0	0	0	513	433	0	0	0	0	
14	0	0	0	0	509	423	0	0	0	0	
15	0	0	0	0	507	416	0	0	0	0	
0	0	0	0	0	505	412	0	0	0	0	
1	0	0	0	0	506	411	0	0	0	0	
2	0	0	0	0	508	412	0	0	0	0	
3	0	0	0	0	511	417	0	0	0	0	
4	0	0	0	0	516	425	0	0	0	0	
5	0	0	0	0	522	435	0	0	0	0	
6	0	0	0	0	527	444	0	0	0	0	
7	0	0	0	0	531	455	0	0	0	0	
8	0	0	0	0	536	464	0	0	0	0	
9	0	0	0	0	538	471	0	0	0	0	
10	0	0	0	0	539	477	0	0	0	0	
11	0	0	0	0	539	479	0	0	0	0	
12	0	0	0	0	536	478	0	0	0	0	
13	0	0	0	0	532	474	0	0	0	0	
14	0	0	0	0	527	468	0	0	0	0	
15	0	0	0	0	523	461	0	0	0	0	
0	0	0	0	0	518	452	0	0	0	0	
1	0	0	0	0	513	444	0	0	0	0	
2	0	0	0	0	510	436	0	0	0	0	
3	0	0	0	0	508	429	0	0	0	0	
4	0	0	0	0	507	425	0	0	0	0	
5	0	0	0	0	508	423	0	0	0	0	
6	0	0	0	0	510	425	0	0	0	0	
7	0	0	0	0	512	428	0	0	0	0	
8	0	0	0	0	516	434	0	0	0	0	
9	0	0	0	0	521	442	0	0	0	0	
10	0	0	0	0	527	451	0	0	0	0	
11	0	0	0	0	531	460	0	0	0	0	
12	0	0	0	0	535	469	0	0	0	0	
13	0	0	0	0	537	475	0	0	0	0	
14	0	0	0	0	540	480	0	0	0	0	
15	0	0	0	0	540	482	0	0	0	0	
0	0	0	0	0	539	481	0	0	0	0	
1	0	0	0	0	535	477	0	0	0	0	
2	0	0	0	0	531	471	0	0	0	0	
3	0	0	0	0	526	463	0	0	0	0	
4	0	0	0	0	521	455	0	0	0	0	
5	0	0	0	0	515	446	0	0	0	0	
6	0	0	0	0	512	438	0	0	0	0	
7	0	0	0	0	508	431	0	0	0	0	
8	0	0	0	0	507	428	0	0	0	0	
9	0	0	0	0	507	426	0	0	0	0	
10	0	0	0	0	509	428	0	0	0	0	
11	0	0	0	0	512	433	0	0	0	0	
12	0	0	0	0	516	440	0	0	0	0	
13	0	0	0	0	523	450	0	0	0	0	
14	0	0	0	0	530	461	0	0	0	0	
15	0	0	0	0	536	472	0	0	0	0	
0	0	0	0	0	543	482	0	0	0	0	
1	0	0	0	0	547	492	0	0	0	0	
2	0	0	0	0	551	498	0	0	0	0	
3	0	0	0	0	553	502	0	0	0	0	
4	0	0	0	0	553	503	0	0	0	0	
5	0	0	0	0	551	500	0	0	0	0	
6	0	0	0	0	547	494	0	0	0	0	
7	0	0	0	0	541	487	0	0	0	0	
8	0	0	0	0	536	479	0	0	0	0	
9	0	0	0	0	529	469	0	0	0	0	
10	0	0	0	0	522	460	0	0	0	0	
11	0	0	0	0	518	453	0	0	0	0	
12	0	0	0	0	514	448	0	0	0	0	
13	0	0	0	0	512	445	0	0	0	0	
14	0	0	0	0	512	445	0	0	0	0	
15	0	0	0	0	513	448	0	0	0	0	
0	0	0	0	0	516	452	0	0	0	0	
1	0	0	0	0	520	460	0	0	0	0	
2	0	0	0	0	525	469	0	0	0	0	
3	0	0	0	0	530	477	0	0	0	0	
4	0	0	0	0	535	485	0	0	0	0	
5	0	0	0	0	539	491	0	0	0	0	
6	0	0	0	0	542	496	0	0	0	0	
7	0	0	0	0	543	498	0	0	0	0	
8	0	0	0	0	543	497	0	0	0	0	
9	0	0	0	0	540	492	0	0	0	0	
10	0	0	0	0	537	485	0	0	0	0	
11	0	0	0	0	532	477	0	0	0	0	
12	0	0	0	0	527	468	0	0	0	0	
13	0	0	0	0	522	458	0	0	0	0	
14	0	0	0	0	517	449	0	0	0	0	
15	0	0	0	0	513	441	0	0	0	0	
0	0	0	0	0	511	437	0	0	0	0	
1	0	0	0	0	510	435	0	0	0	0	
2	0	0	0	0	511	436	0	0	0	0	
3	0	0	0	0	514	440	0	0	0	0	
4	0	0	0	0	517	446	0	0	0	0	
5	0	0	0	0	523	455	0	0	0	0	
6	0	0	0	0	529	465	0	0	0	0	
7	0	0	0	0	536	476	0	0	0	0	
8	0	0	0	0	541	486	0	0	0	0	
9	0	0	0	0	545	494	0	0	0	0	
10	0	0	0	0	550	500	0	0	0	0	
11	0	0	0	0	552	503	0	0	0	0	
12	0	0	0	0	552	503	0	0	0	0	
13	0	0	0	0	550	500	0	0	0	0	
14	0	0	0	0	547	494	0	0	0	0	
15	0	0	0	0	542	487	0	0	0	0	
0	0	0	0	0	537	478	0	0	0	0	
1	0	0	0	0	531	468	0	0	0	0	
2	0	0	0	0	526	460	0	0	0	0	
3	0	0	0	0	520	451	0	0	0	0	
4	0	0	0	0	517	447	0	0	0	0	
5	0	0	0	0	515	444	0	0	0	0	
6	0	0	0	0	515	444	0	0	0	0	
7	0	0	0	0	516	447	0	0	0	0	
8	0	0	0	0	519	452	0	0	0	0	
9	0	0	0	0	524	460	0	0	0	0	
10	0	0	0	0	529	470	0	0	0	0	
11	0	0	0	0	535	479	0	0	0	0	
12	0	0	0	0	541	488	0	0	0	0	
13	0	0	0	0	545	495	0	0	0	0	
14	0	0	0	0	550	501	0	0	0	0	
15	0	0	0	0	551	503	0	0	0	0	
0	0	0	0	0	551	502	0	0	0	0	
1	0	0	0	0	550	499	0	0	0	0	
2	0	0	0	0	546	492	0	0	0	0	
3	0	0	0	0	541	483	0	0	0	0	
4	0	0	0	0	535	473	0	0	0	0	
5	0	0	0	0	528	463	0	0	0	0	
6	0	0	0	0	522	453	0	0	0	0	
7	0	0	0	0	516	444	0	0	0	0	
8	0	0	0	0	512	439	0	0	0	0	
9	0	0	0	0	509	435	0	0	0	0	
10	0	0	0	0	508	435	0	0	0	0	
11	0	0	0	0	509	437	0	0	0	0	
12	0	0	0	0	512	444	0	0	0	0	
13	0	0	0	0	517	452	0	0	0	0	
14	0	0	0	0	523	462	0	0	0	0	
15	0	0	0	0	529	472	0	0	0	0	
0	0	0	0	0	535	481	0	0	0	0	
1	0	0	0	0	540	487	0	0	0	0	
2	0	0	0	0	543	494	0	0	0	0	
3	0	0	0	0	545	496	0	0	0	0	
4	0	0	0	0	545	495	0	0	0	0	
5	0	0	0	0	544	492	0	0	0	0	
6	0	0	0	0	540	486	0	0	0	0	
7	0	0	0	0	537	478	0	0	0	0	
8	0	0	0	0	532	469	0	0	0	0	
9	0	0	0	0	529	461	0	0	0	0	
10	0	0	0	0	525	453	0	0	0	0	
11	0	0	0	0	522	447	0	0	0	0	
12	0	0	0	0	521	444	0	0	0	0	
13	0	0	0	0	521	443	0	0	0	0	
14	0	0	0	0	523	445	0	0	0	0	
15	0	0	0	0	525	449	0	0	0	0	
0	0	0	0	0	527	456	0	0	0	0	
1	0	0	0	0	532	464	0	0	0	0	
2	0	0	0	0	537	473	0	0	0	0	
3	0	0	0	0	542	483	0	0	0	0	
4	0	0	0	0	546	491	0	0	0	0	
5	0	0	0	0	549	497	0	0	0	0	
6	0	0	0	0	552	503	0	0	0	0	
7	0	0	0	0	553	504	0	0	0	0	
8	0	0	0	0	552	504	0	0	0	0	
9	0	0	0	0	551	501	0	0	0	0	
10	0	0	0	0	547	494	0	0	0	0	
11	0	0	0	0	543	487	0	0	0	0	
12	0	0	0	0	538	478	0	0	0	0	
13	0	0	0	0	533	468	0	0	0	0	
14	0	0	0	0	527	459	0	0	0	0	
15	0	0	0	0	522	451	0	0	0	0	
0	0	0	0	0	519	446	0	0	0	0	
1	0	0	0	0	516	443	0	0	0	0	
2	0	0	0	0	515	442	0	0	0	0	
3	0	0	0	0	516	444	0	0	0	0	
4	0	0	0	0	518	449	0	0	0	0	
5	0	0	0	0	521	456	0	0	0	0	
6	0	0	0	0	525	464	0	0	0	0	
7	0	0	0	0	529	472	0	0	0	0	
8	0	0	0	0	533	480	0	0	0	0	
9	0	0	0	0	536	485	0	0	0	0	
10	0	0	0	0	539	490	0	0	0	0	
11	0	0	0	0	540	492	0	0	0	0	
12	0	0	0	0	539	491	0	0	0	0	
13	0	0	0	0	537	487	0	0	0	0	
14	0	0	0	0	535	481	0	0	0	0	
15	0	0	0	0	531	474	0	0	0	0	
0	0	0	0	0	528	466	0	0	0	0	
1	0	0	0	0	525	458	0	0	0	0	
2	0	0	0	0	522	451	0	0	0	0	
3	0	0	0	0	520	445	0	0	0	0	
4	0	0	0	0	520	443	0	0	0	0	
5	0	0	0	0	521	443	0	0	0	0	
6	0	0	0	0	524	445	0	0	0	0	
7	0	0	0	0	527	450	0	0	0	0	
8	0	0	0	0	531	456	0	0	0	0	
9	0	0	0	0	536	465	0	0	0	0	
10	0	0	0	0	541	473	0	0	0	0	
11	0	0	0	0	544	481	0	0	0	0	
12	0	0	0	0	547	488	0	0	0	0	
13	0	0	0	0	548	492	0	0	0	0	
14	0	0	0	0	548	495	0	0	0	0	
15	0	0	0	0	547	495	0	0	0	0	
0	0	0	0	0	545	493	0	0	0	0	
1	0	0	0	0	541	488	0	0	0	0	
2	0	0	0	0	537	481	0	0	0	0	
3	0	0	0	0	533	475	0	0	0	0	
4	0	0	0	0	530	467	0	0	0	0	
5	0	0	0	0	527	460	0	0	0	0	
6	0	0	0	0	525	454	0	0	0	0	
7	0	0	0	0	524	449	0	0	0	0	
8	0	0	0	0	524	448	0	0	0	0	
9	0	0	0	0	527	448	0	0	0	0	
10	0	0	0	0	530	451	0	0	0	0	
11	0	0	0	0	536	457	0	0	0	0	
12	0	0	0	0	540	464	0	0	0	0	
13	0	0	0	0	547	475	0	0	0	0	
14	0	0	0	0	551	484	0	0	0	0	
15	0	0	0	0	555	492	0	0	0	0	
0	0	0	0	0	558	499	0	0	0	0	
1	0	0	0	0	557	504	0	0	0	0	
2	0	0	0	0	555	504	0	0	0	0	
3	0	0	0	0	550	501	0	0	0	0	
4	0	0	0	0	542	494	0	0	0	0	
5	0	0	0	0	531	482	0	0	0	0	
6	0	0	0	0	519	468	0	0	0	0	
7	0	0	0	0	506	451	0	0	0	0	
8	0	0	0	0	491	432	0	0	0	0	
9	0	0	0	0	476	414	0	0	0	0	
10	0	0	0	0	462	396	0	0	0	0	
11	0	0	0	0	448	378	0	0	0	0	
12	0	0	0	0	436	364	0	0	0	0	
13	0	0	0	0	425	351	0	0	0	0	
14	0	0	0	0	416	342	0	0	0	0	
15	0	0	0	0	409	335	0	0	0	0	
0	0	0	0	0	402	330	0	0	0	0	
1	0	0	0	0	397	329	0	0	0	0	
2	0	0	0	0	392	328	0	0	0	0	
3	0	0	0	0	388	328	0	0	0	0	
4	0	0	0	0	384	327	0	0	0	0	
5	0	0	0	0	378	326	0	0	0	0	
6	0	0	0	0	372	323	0	0	0	0	
7	0	0	0	0	366	317	0	0	0	0	
8	0	0	0	0	358	309	0	0	0	0	
9	0	0	0	0	350	300	0	0	0	0	
10	0	0	0	0	342	289	0	0	0	0	
11	0	0	0	0	336	280	0	0	0	0	
12	0	0	0	0	332	271	0	0	0	0	
13	0	0	0	0	331	264	0	0	0	0	
14	0	0	0	0	334	261	0	0	0	0	
15	0	0	0	0	340	262	0	0	0	0	
0	0	0	0	0	352	269	0	0	0	0	
1	0	0	0	0	368	281	0	0	0	0	
2	0	0	0	0	389	299	0	0	0	0	
3	0	0	0	0	414	323	0	0	0	0	
4	0	0	0	0	440	350	0	0	0	0	
5	0	0	0	0	469	380	0	0	0	0	
6	0	0	0	0	497	411	0	0	0	0	
7	0	0	0	0	524	442	0	0	0	0	
8	0	0	0	0	548	470	0	0	0	0	
9	0	0	0	0	567	495	0	0	0	0	
10	0	0	0	0	583	515	0	0	0	0	
11	0	0	0	0	593	528	0	0	0	0	
12	0	0	0	0	598	536	0	0	0	0	
13	0	0	0	0	599	538	0	0	0	0	
14	0	0	0	0	595	534	0	0	0	0	
15	0	0	0	0	588	526	0	0	0	0	
0	0	0	0	0	578	515	0	0	0	0	
1	0	0	0	0	567	502	0	0	0	0	
2	0	0	0	0	555	489	0	0	0	0	
3	0	0	0	0	543	476	0	0	0	0	
4	0	0	0	0	534	466	0	0	0	0	
5	0	0	0	0	527	458	0	0	0	0	
6	0	0	0	0	522	454	0	0	0	0	
7	0	0	0	0	520	452	0	0	0	0	
8	0	0	0	0	521	455	0	0	0	0	
9	0	0	0	0	524	461	0	0	0	0	
10	0	0	0	0	530	469	0	0	0	0	
11	0	0	0	0	536	478	0	0	0	0	
12	0	0	0	0	543	487	0	0	0	0	
13	0	0	0	0	550	495	0	0	0	0	
14	0	0	0	0	556	503	0	0	0	0	
15	0	0	0	0	560	507	0	0	0	0	
0	0	0	0	0	562	508	0	0	0	0	
1	0	0	0	0	563	508	0	0	0	0	
2	0	0	0	0	562	504	0	0	0	0	
3	0	0	0	0	560	498	0	0	0	0	
4	0	0	0	0	557	491	0	0	0	0	
5	0	0	0	0	554	484	0	0	0	0	
6	0	0	0	0	551	477	0	0	0	0	
7	0	0	0	0	548	471	0	0	0	0	
8	0	0	0	0	547	467	0	0	0	0	
9	0	0	0	0	546	466	0	0	0	0	
10	0	0	0	0	547	467	0	0	0	0	
11	0	0	0	0	548	470	0	0	0	0	
12	0	0	0	0	552	477	0	0	0	0	
13	0	0	0	0	557	486	0	0	0	0	
14	0	0	0	0	561	495	0	0	0	0	
15	0	0	0	0	566	503	0	0	0	0	
0	0	0	0	0	571	511	0	0	0	0	
1	0	0	0	0	573	517	0	0	0	0	
2	0	0	0	0	575	521	0	0	0	0	
3	0	0	0	0	575	523	0	0	0	0	
4	0	0	0	0	574	520	0	0	0	0	
5	0	0	0	0	571	515	0	0	0	0	
6	0	0	0	0	565	508	0	0	0	0	
7	0	0	0	0	560	500	0	0	0	0	
8	0	0	0	0	555	490	0	0	0	0	
9	0	0	0	0	549	481	0	0	0	0	
10	0	0	0	0	544	472	0	0	0	0	
11	0	0	0	0	540	465	0	0	0	0	
12	0	0	0	0	539	462	0	0	0	0	
13	0	0	0	0	538	460	0	0	0	0	
14	0	0	0	0	540	462	0	0	0	0	
15	0	0	0	0	542	466	0	0	0	0	
0	0	0	0	0	546	473	0	0	0	0	
1	0	0	0	0	551	481	0	0	0	0	
2	0	0	0	0	557	491	0	0	0	0	
3	0	0	0	0	563	500	0	0	0	0	
4	0	0	0	0	567	508	0	0	0	0	
5	0	0	0	0	571	515	0	0	0	0	
6	0	0	0	0	573	519	0	0	0	0	
7	0	0	0	0	572	520	0	0	0	0	
8	0	0	0	0	570	517	0	0	0	0	
9	0	0	0	0	565	510	0	0	0	0	
10	0	0	0	0	558	501	0	0	0	0	
11	0	0	0	0	551	490	0	0	0	0	
12	0	0	0	0	542	477	0	0	0	0	
13	0	0	0	0	534	464	0	0	0	0	
14	0	0	0	0	526	452	0	0	0	0	
15	0	0	0	0	519	443	0	0	0	0	
0	0	0	0	0	515	435	0	0	0	0	
1	0	0	0	0	512	431	0	0	0	0	
2	0	0	0	0	512	429	0	0	0	0	
3	0	0	0	0	513	431	0	0	0	0	
4	0	0	0	0	516	436	0	0	0	0	
5	0	0	0	0	522	443	0	0	0	0	
6	0	0	0	0	527	451	0	0	0	0	
7	0	0	0	0	534	461	0	0	0	0	
8	0	0	0	0	540	469	0	0	0	0	
9	0	0	0	0	544	477	0	0	0	0	
10	0	0	0	0	548	481	0	0	0	0	
11	0	0	0	0	549	484	0	0	0	0	
12	0	0	0	0	549	484	0	0	0	0	
13	0	0	0	0	547	480	0	0	0	0	
14	0	0	0	0	543	475	0	0	0	0	
15	0	0	0	0	538	467	0	0	0	0	
0	0	0	0	0	533	459	0	0	0	0	
1	0	0	0	0	527	449	0	0	0	0	
2	0	0	0	0	521	440	0	0	0	0	
3	0	0	0	0	516	432	0	0	0	0	
4	0	0	0	0	513	426	0	0	0	0	
5	0	0	0	0	511	423	0	0	0	0	
6	0	0	0	0	511	423	0	0	0	0	
7	0	0	0	0	513	425	0	0	0	0	
8	0	0	0	0	516	431	0	0	0	0	
9	0	0	0	0	521	439	0	0	0	0	
10	0	0	0	0	527	448	0	0	0	0	
11	0	0	0	0	533	458	0	0	0	0	
12	0	0	0	0	538	467	0	0	0	0	
13	0	0	0	0	541	475	0	0	0	0	
14	0	0	0	0	544	480	0	0	0	0	
15	0	0	0	0	545	483	0	0	0	0	
0	0	0	0	0	543	482	0	0	0	0	
1	0	0	0	0	540	478	0	0	0	0	
2	0	0	0	0	535	472	0	0	0	0	
3	0	0	0	0	529	463	0	0	0	0	
4	0	0	0	0	521	452	0	0	0	0	
5	0	0	0	0	513	441	0	0	0	0	
6	0	0	0	0	507	431	0	0	0	0	
7	0	0	0	0	500	421	0	0	0	0	
8	0	0	0	0	496	414	0	0	0	0	
9	0	0	0	0	493	409	0	0	0	0	
10	0	0	0	0	492	408	0	0	0	0	
11	0	0	0	0	494	410	0	0	0	0	
12	0	0	0	0	496	415	0	0	0	0	
13	0	0	0	0	500	422	0	0	0	0	
14	0	0	0	0	505	431	0	0	0	0	
15	0	0	0	0	511	440	0	0	0	0	
0	0	0	0	0	515	449	0	0	0	0	
1	0	0	0	0	519	457	0	0	0	0	
2	0	0	0	0	523	463	0	0	0	0	
3	0	0	0	0	524	467	0	0	0	0	
4	0	0	0	0	524	467	0	0	0	0	
5	0	0	0	0	521	466	0	0	0	0	
6	0	0	0	0	518	462	0	0	0	0	
7	0	0	0	0	513	455	0	0	0	0	
8	0	0	0	0	508	448	0	0	0	0	
9	0	0	0	0	502	440	0	0	0	0	
10	0	0	0	0	496	432	0	0	0	0	
11	0	0	0	0	492	425	0	0	0	0	
12	0	0	0	0	489	421	0	0	0	0	
13	0	0	0	0	487	418	0	0	0	0	
14	0	0	0	0	487	418	0	0	0	0	
15	0	0	0	0	488	421	0	0	0	0	
0	0	0	0	0	491	426	0	0	0	0	
1	0	0	0	0	496	435	0	0	0	0	
2	0	0	0	0	501	444	0	0	0	0	
3	0	0	0	0	507	455	0	0	0	0	
4	0	0	0	0	512	464	0	0	0	0	
5	0	0	0	0	516	472	0	0	0	0	
6	0	0	0	0	520	480	0	0	0	0	
7	0	0	0	0	522	484	0	0	0	0	
8	0	0	0	0	522	485	0	0	0	0	
9	0	0	0	0	519	483	0	0	0	0	
10	0	0	0	0	515	478	0	0	0	0	
11	0	0	0	0	511	472	0	0	0	0	
12	0	0	0	0	504	463	0	0	0	0	
13	0	0	0	0	497	453	0	0	0	0	
14	0	0	0	0	491	444	0	0	0	0	
15	0	0	0	0	485	436	0	0	0	0	
0	0	0	0	0	481	431	0	0	0	0	
1	0	0	0	0	479	429	0	0	0	0	
2	0	0	0	0	478	430	0	0	0	0	
3	0	0	0	0	480	434	0	0	0	0	
4	0	0	0	0	484	441	0	0	0	0	
5	0	0	0	0	491	451	0	0	0	0	
6	0	0	0	0	497	462	0	0	0	0	
7	0	0	0	0	504	473	0	0	0	0	
8	0	0	0	0	511	484	0	0	0	0	
9	0	0	0	0	517	494	0	0	0	0	
10	0	0	0	0	522	501	0	0	0	0	
11	0	0	0	0	524	504	0	0	0	0	
12	0	0	0	0	525	505	0	0	0	0	
13	0	0	0	0	524	503	0	0	0	0	
14	0	0	0	0	519	497	0	0	0	0	
15	0	0	0	0	514	491	0	0	0	0	
0	0	0	0	0	508	482	0	0	0	0	
1	0	0	0	0	500	473	0	0	0	0	
2	0	0	0	0	495	465	0	0	0	0	
3	0	0	0	0	490	460	0	0	0	0	
4	0	0	0	0	487	455	0	0	0	0	
5	0	0	0	0	486	455	0	0	0	0	
6	0	0	0	0	487	457	0	0	0	0	
7	0	0	0	0	491	462	0	0	0	0	
8	0	0	0	0	495	469	0	0	0	0	
9	0	0	0	0	501	479	0	0	0	0	
10	0	0	0	0	508	490	0	0	0	0	
11	0	0	0	0	514	501	0	0	0	0	
12	0	0	0	0	520	512	0	0	0	0	
13	0	0	0	0	525	520	0	0	0	0	
14	0	0	0	0	529	528	0	0	0	0	
15	0	0	0	0	531	532	0	0	0	0	
0	0	0	0	0	531	534	0	0	0	0	
1	0	0	0	0	531	533	0	0	0	0	
2	0	0	0	0	528	529	0	0	0	0	
3	0	0	0	0	524	524	0	0	0	0	
4	0	0	0	0	519	516	0	0	0	0	
5	0	0	0	0	514	508	0	0	0	0	
6	0	0	0	0	509	501	0	0	0	0	
7	0	0	0	0	505	494	0	0	0	0	
8	0	0	0	0	502	490	0	0	0	0	
9	0	0	0	0	500	487	0	0	0	0	
10	0	0	0	0	500	487	0	0	0	0	
11	0	0	0	0	500	488	0	0	0	0	
12	0	0	0	0	503	492	0	0	0	0	
13	0	0	0	0	506	499	0	0	0	0	
14	0	0	0	0	510	506	0	0	0	0	
15	0	0	0	0	514	515	0	0	0	0	
0	0	0	0	0	519	523	0	0	0	0	
1	0	0	0	0	523	531	0	0	0	0	
2	0	0	0	0	528	539	0	0	0	0	
3	0	0	0	0	533	545	0	0	0	0	
4	0	0	0	0	536	550	0	0	0	0	
5	0	0	0	0	539	551	0	0	0	0	
6	0	0	0	0	541	553	0	0	0	0	
7	0	0	0	0	543	551	0	0	0	0	
8	0	0	0	0	544	549	0	0	0	0	
9	0	0	0	0	544	545	0	0	0	0	
10	0	0	0	0	545	542	0	0	0	0	
11	0	0	0	0	543	538	0	0	0	0	
12	0	0	0	0	543	535	0	0	0	0	
13	0	0	0	0	542	531	0	0	0	0	
14	0	0	0	0	540	530	0	0	0	0	
15	0	0	0	0	538	529	0	0	0	0	
0	0	0	0	0	535	531	0	0	0	0	
1	0	0	0	0	534	534	0	0	0	0	
2	0	0	0	0	531	538	0	0	0	0	
3	0	0	0	0	529	542	0	0	0	0	
4	0	0	0	0	527	545	0	0	0	0	
5	0	0	0	0	524	549	0	0	0	0	
6	0	0	0	0	524	551	0	0	0	0	
7	0	0	0	0	523	553	0	0	0	0	
8	0	0	0	0	522	553	0	0	0	0	
9	0	0	0	0	522	551	0	0	0	0	
10	0	0	0	0	522	548	0	0	0	0	
11	0	0	0	0	523	545	0	0	0	0	
12	0	0	0	0	524	541	0	0	0	0	
13	0	0	0	0	524	536	0	0	0	0	
14	0	0	0	0	525	531	0	0	0	0	
15	0	0	0	0	526	527	0	0	0	0	
0	0	0	0	0	527	526	0	0	0	0	
1	0	0	0	0	528	526	0	0	0	0	
2	0	0	0	0	530	527	0	0	0	0	
3	0	0	0	0	531	530	0	0	0	0	
4	0	0	0	0	533	536	0	0	0	0	
5	0	0	0	0	535	543	0	0	0	0	
6	0	0	0	0	536	549	0	0	0	0	
7	0	0	0	0	538	557	0	0	0	0	
8	0	0	0	0	540	564	0	0	0	0	
9	0	0	0	0	540	570	0	0	0	0	
10	0	0	0	0	541	575	0	0	0	0	
11	0	0	0	0	540	577	0	0	0	0	
12	0	0	0	0	540	578	0	0	0	0	
13	0	0	0	0	537	575	0	0	0	0	
14	0	0	0	0	535	571	0	0	0	0	
15	0	0	0	0	532	566	0	0	0	0	
0	0	0	0	0	529	558	0	0	0	0	
1	0	0	0	0	526	551	0	0	0	0	
2	0	0	0	0	524	543	0	0	0	0	
3	0	0	0	0	522	537	0	0	0	0	
4	0	0	0	0	522	534	0	0	0	0	
5	0	0	0	0	523	532	0	0	0	0	
6	0	0	0	0	524	534	0	0	0	0	
7	0	0	0	0	527	537	0	0	0	0	
8	0	0	0	0	531	542	0	0	0	0	
9	0	0	0	0	536	550	0	0	0	0	
10	0	0	0	0	540	558	0	0	0	0	
11	0	0	0	0	543	566	0	0	0	0	
12	0	0	0	0	546	574	0	0	0	0	
13	0	0	0	0	548	580	0	0	0	0	
14	0	0	0	0	550	585	0	0	0	0	
15	0	0	0	0	550	588	0	0	0	0	
0	0	0	0	0	548	588	0	0	0	0	
1	0	0	0	0	546	587	0	0	0	0	
2	0	0	0	0	542	582	0	0	0	0	
3	0	0	0	0	539	576	0	0	0	0	
4	0	0	0	0	536	569	0	0	0	0	
5	0	0	0	0	532	562	0	0	0	0	
6	0	0	0	0	530	555	0	0	0	0	
7	0	0	0	0	529	550	0	0	0	0	
8	0	0	0	0	530	548	0	0	0	0	
9	0	0	0	0	532	548	0	0	0	0	
10	0	0	0	0	535	551	0	0	0	0	
11	0	0	0	0	539	555	0	0	0	0	
12	0	0	0	0	543	563	0	0	0	0	
13	0	0	0	0	550	571	0	0	0	0	
14	0	0	0	0	555	580	0	0	0	0	
15	0	0	0	0	560	590	0	0	0	0	
0	0	0	0	0	563	597	0	0	0	0	
1	0	0	0	0	566	604	0	0	0	0	
2	0	0	0	0	567	608	0	0	0	0	
3	0	0	0	0	566	610	0	0	0	0	
4	0	0	0	0	564	609	0	0	0	0	
5	0	0	0	0	560	605	0	0	0	0	
6	0	0	0	0	556	599	0	0	0	0	
7	0	0	0	0	552	593	0	0	0	0	
8	0	0	0	0	548	585	0	0	0	0	
9	0	0	0	0	544	577	0	0	0	0	
10	0	0	0	0	542	570	0	0	0	0	
11	0	0	0	0	540	563	0	0	0	0	
12	0	0	0	0	540	561	0	0	0	0	
13	0	0	0	0	540	559	0	0	0	0	
14	0	0	0	0	542	560	0	0	0	0	
15	0	0	0	0	545	563	0	0	0	0	
0	0	0	0	0	548	568	0	0	0	0	
1	0	0	0	0	552	575	0	0	0	0	
2	0	0	0	0	557	583	0	0	0	0	
3	0	0	0	0	560	591	0	0	0	0	
4	0	0	0	0	563	596	0	0	0	0	
5	0	0	0	0	563	601	0	0	0	0	
6	0	0	0	0	563	604	0	0	0	0	
7	0	0	0	0	561	603	0	0	0	0	
8	0	0	0	0	557	599	0	0	0	0	
9	0	0	0	0	551	593	0	0	0	0	
10	0	0	0	0	545	585	0	0	0	0	
11	0	0	0	0	538	576	0	0	0	0	
12	0	0	0	0	532	567	0	0	0	0	
13	0	0	0	0	526	558	0	0	0	0	
14	0	0	0	0	522	550	0	0	0	0	
15	0	0	0	0	519	544	0	0	0	0	
0	0	0	0	0	519	541	0	0	0	0	
1	0	0	0	0	520	541	0	0	0	0	
2	0	0	0	0	523	543	0	0	0	0	
3	0	0	0	0	528	548	0	0	0	0	
4	0	0	0	0	533	556	0	0	0	0	
5	0	0	0	0	540	566	0	0	0	0	
6	0	0	0	0	548	576	0	0	0	0	
7	0	0	0	0	555	587	0	0	0	0	
8	0	0	0	0	561	597	0	0	0	0	
9	0	0	0	0	566	605	0	0	0	0	
10	0	0	0	0	570	611	0	0	0	0	
11	0	0	0	0	572	615	0	0	0	0	
12	0	0	0	0	572	615	0	0	0	0	
13	0	0	0	0	570	612	0	0	0	0	
14	0	0	0	0	567	606	0	0	0	0	
15	0	0	0	0	562	598	0	0	0	0	
0	0	0	0	0	556	589	0	0	0	0	
1	0	0	0	0	551	579	0	0	0	0	
2	0	0	0	0	545	569	0	0	0	0	
3	0	0	0	0	540	561	0	0	0	0	
4	0	0	0	0	536	556	0	0	0	0	
5	0	0	0	0	535	553	0	0	0	0	
6	0	0	0	0	536	554	0	0	0	0	
7	0	0	0	0	537	557	0	0	0	0	
8	0	0	0	0	541	564	0	0	0	0	
9	0	0	0	0	547	575	0	0	0	0	
10	0	0	0	0	553	586	0	0	0	0	
11	0	0	0	0	560	598	0	0	0	0	
12	0	0	0	0	566	609	0	0	0	0	
13	0	0	0	0	572	618	0	0	0	0	
14	0	0	0	0	575	626	0	0	0	0	
15	0	0	0	0	578	631	0	0	0	0	
0	0	0	0	0	578	632	0	0	0	0	
1	0	0	0	0	576	630	0	0	0	0	
2	0	0	0	0	573	624	0	0	0	0	
3	0	0	0	0	569	617	0	0	0	0	
4	0	0	0	0	563	606	0	0	0	0	
5	0	0	0	0	558	596	0	0	0	0	
6	0	0	0	0	552	585	0	0	0	0	
7	0	0	0	0	547	576	0	0	0	0	
8	0	0	0	0	543	569	0	0	0	0	
9	0	0	0	0	541	564	0	0	0	0	
10	0	0	0	0	540	563	0	0	0	0	
11	0	0	0	0	540	563	0	0	0	0	
12	0	0	0	0	543	568	0	0	0	0	
13	0	0	0	0	547	575	0	0	0	0	
14	0	0	0	0	551	583	0	0	0	0	
15	0	0	0	0	555	591	0	0	0	0	
0	0	0	0	0	559	600	0	0	0	0	
1	0	0	0	0	561	606	0	0	0	0	
2	0	0	0	0	563	613	0	0	0	0	
3	0	0	0	0	563	615	0	0	0	0	
4	0	0	0	0	561	615	0	0	0	0	
5	0	0	0	0	558	613	0	0	0	0	
6	0	0	0	0	554	608	0	0	0	0	
7	0	0	0	0	550	601	0	0	0	0	
8	0	0	0	0	545	592	0	0	0	0	
9	0	0	0	0	542	584	0	0	0	0	
10	0	0	0	0	539	576	0	0	0	0	
11	0	0	0	0	536	569	0	0	0	0	
12	0	0	0	0	535	565	0	0	0	0	
13	0	0	0	0	536	563	0	0	0	0	
14	0	0	0	0	537	563	0	0	0	0	
15	0	0	0	0	540	566	0	0	0	0	
0	0	0	0	0	543	571	0	0	0	0	
1	0	0	0	0	549	579	0	0	0	0	
2	0	0	0	0	553	587	0	0	0	0	
3	0	0	0	0	558	595	0	0	0	0	
4	0	0	0	0	562	603	0	0	0	0	
5	0	0	0	0	564	610	0	0	0	0	
6	0	0	0	0	567	615	0	0	0	0	
7	0	0	0	0	567	617	0	0	0	0	
8	0	0	0	0	566	615	0	0	0	0	
9	0	0	0	0	565	612	0	0	0	0	
10	0	0	0	0	561	606	0	0	0	0	
11	0	0	0	0	558	599	0	0	0	0	
12	0	0	0	0	553	590	0	0	0	0	
13	0	0	0	0	550	582	0	0	0	0	
14	0	0	0	0	547	575	0	0	0	0	
15	0	0	0	0	544	569	0	0	0	0	
0	0	0	0	0	544	566	0	0	0	0	
1	0	0	0	0	544	565	0	0	0	0	
2	0	0	0	0	547	568	0	0	0	0	
3	0	0	0	0	551	573	0	0	0	0	
4	0	0	0	0	555	579	0	0	0	0	
5	0	0	0	0	560	589	0	0	0	0	
6	0	0	0	0	565	599	0	0	0	0	
7	0	0	0	0	570	608	0	0	0	0	
8	0	0	0	0	573	615	0	0	0	0	
9	0	0	0	0	575	621	0	0	0	0	
10	0	0	0	0	576	625	0	0	0	0	
11	0	0	0	0	575	625	0	0	0	0	
12	0	0	0	0	572	623	0	0	0	0	
13	0	0	0	0	567	617	0	0	0	0	
14	0	0	0	0	561	608	0	0	0	0	
15	0	0	0	0	555	600	0	0	0	0	
0	0	0	0	0	548	589	0	0	0	0	
1	0	0	0	0	542	577	0	0	0	0	
2	0	0	0	0	537	567	0	0	0	0	
3	0	0	0	0	534	560	0	0	0	0	
4	0	0	0	0	533	556	0	0	0	0	
5	0	0	0	0	534	554	0	0	0	0	
6	0	0	0	0	537	556	0	0	0	0	
7	0	0	0	0	541	561	0	0	0	0	
8	0	0	0	0	546	568	0	0	0	0	
9	0	0	0	0	553	577	0	0	0	0	
10	0	0	0	0	559	588	0	0	0	0	
11	0	0	0	0	565	598	0	0	0	0	
12	0	0	0	0	570	608	0	0	0	0	
13	0	0	0	0	573	615	0	0	0	0	
14	0	0	0	0	575	621	0	0	0	0	
15	0	0	0	0	574	624	0	0	0	0	
0	0	0	0	0	571	623	0	0	0	0	
1	0	0	0	0	566	619	0	0	0	0	
2	0	0	0	0	560	612	0	0	0	0	
3	0	0	0	0	553	604	0	0	0	0	
4	0	0	0	0	546	594	0	0	0	0	
5	0	0	0	0	540	583	0	0	0	0	
6	0	0	0	0	534	573	0	0	0	0	
7	0	0	0	0	530	566	0	0	0	0	
8	0	0	0	0	529	560	0	0	0	0	
9	0	0	0	0	529	558	0	0	0	0	
10	0	0	0	0	532	559	0	0	0	0	
11	0	0	0	0	537	563	0	0	0	0	
12	0	0	0	0	544	572	0	0	0	0	
13	0	0	0	0	553	583	0	0	0	0	
14	0	0	0	0	563	595	0	0	0	0	
15	0	0	0	0	572	608	0	0	0	0	
0	0	0	0	0	581	620	0	0	0	0	
1	0	0	0	0	588	631	0	0	0	0	
2	0	0	0	0	595	639	0	0	0	0	
3	0	0	0	0	599	644	0	0	0	0	
4	0	0	0	0	600	646	0	0	0	0	
5	0	0	0	0	600	643	0	0	0	0	
6	0	0	0	0	595	639	0	0	0	0	
7	0	0	0	0	591	631	0	0	0	0	
8	0	0	0	0	585	622	0	0	0	0	
9	0	0	0	0	578	611	0	0	0	0	
10	0	0	0	0	572	600	0	0	0	0	
11	0	0	0	0	565	590	0	0	0	0	
12	0	0	0	0	560	582	0	0	0	0	
13	0	0	0	0	556	576	0	0	0	0	
14	0	0	0	0	553	574	0	0	0	0	
15	0	0	0	0	552	573	0	0	0	0	
0	0	0	0	0	552	576	0	0	0	0	
1	0	0	0	0	555	582	0	0	0	0	
2	0	0	0	0	559	589	0	0	0	0	
3	0	0	0	0	564	597	0	0	0	0	
4	0	0	0	0	568	605	0	0	0	0	
5	0	0	0	0	572	613	0	0	0	0	
6	0	0	0	0	576	618	0	0	0	0	
7	0	0	0	0	577	621	0	0	0	0	
8	0	0	0	0	577	621	0	0	0	0	
9	0	0	0	0	576	617	0	0	0	0	
10	0	0	0	0	572	612	0	0	0	0	
11	0	0	0	0	568	605	0	0	0	0	
12	0	0	0	0	563	595	0	0	0	0	
13	0	0	0	0	558	585	0	0	0	0	
14	0	0	0	0	552	575	0	0	0	0	
15	0	0	0	0	547	568	0	0	0	0	
0	0	0	0	0	545	561	0	0	0	0	
1	0	0	0	0	543	558	0	0	0	0	
2	0	0	0	0	543	557	0	0	0	0	
3	0	0	0	0	545	559	0	0	0	0	
4	0	0	0	0	548	564	0	0	0	0	
5	0	0	0	0	553	572	0	0	0	0	
6	0	0	0	0	559	581	0	0	0	0	
7	0	0	0	0	565	591	0	0	0	0	
8	0	0	0	0	571	600	0	0	0	0	
9	0	0	0	0	575	607	0	0	0	0	
10	0	0	0	0	579	614	0	0	0	0	
11	0	0	0	0	580	616	0	0	0	0	
12	0	0	0	0	581	617	0	0	0	0	
13	0	0	0	0	579	614	0	0	0	0	
14	0	0	0	0	575	609	0	0	0	0	
15	0	0	0	0	572	601	0	0	0	0	
0	0	0	0	0	567	592	0	0	0	0	
1	0	0	0	0	561	582	0	0	0	0	
2	0	0	0	0	556	572	0	0	0	0	
3	0	0	0	0	551	564	0	0	0	0	
4	0	0	0	0	547	559	0	0	0	0	
5	0	0	0	0	545	556	0	0	0	0	
6	0	0	0	0	545	556	0	0	0	0	
7	0	0	0	0	546	558	0	0	0	0	
8	0	0	0	0	549	564	0	0	0	0	
9	0	0	0	0	553	572	0	0	0	0	
10	0	0	0	0	559	582	0	0	0	0	
11	0	0	0	0	566	591	0	0	0	0	
12	0	0	0	0	571	600	0	0	0	0	
13	0	0	0	0	576	609	0	0	0	0	
14	0	0	0	0	581	617	0	0	0	0	
15	0	0	0	0	584	620	0	0	0	0	
0	0	0	0	0	585	622	0	0	0	0	
1	0	0	0	0	584	620	0	0	0	0	
2	0	0	0	0	581	614	0	0	0	0	
3	0	0	0	0	577	607	0	0	0	0	
4	0	0	0	0	572	598	0	0	0	0	
5	0	0	0	0	567	588	0	0	0	0	
6	0	0	0	0	560	579	0	0	0	0	
7	0	0	0	0	556	570	0	0	0	0	
8	0	0	0	0	552	564	0	0	0	0	
9	0	0	0	0	550	560	0	0	0	0	
10	0	0	0	0	549	559	0	0	0	0	
11	0	0	0	0	551	561	0	0	0	0	
12	0	0	0	0	552	565	0	0	0	0	
13	0	0	0	0	556	572	0	0	0	0	
14	0	0	0	0	560	580	0	0	0	0	
15	0	0	0	0	565	588	0	0	0	0	
0	0	0	0	0	569	596	0	0	0	0	
1	0	0	0	0	573	604	0	0	0	0	
2	0	0	0	0	577	609	0	0	0	0	
3	0	0	0	0	579	612	0	0	0	0	
4	0	0	0	0	580	613	0	0	0	0	
5	0	0	0	0	579	611	0	0	0	0	
6	0	0	0	0	577	607	0	0	0	0	
7	0	0	0	0	574	600	0	0	0	0	
8	0	0	0	0	569	592	0	0	0	0	
9	0	0	0	0	564	583	0	0	0	0	
10	0	0	0	0	559	574	0	0	0	0	
11	0	0	0	0	554	566	0	0	0	0	
12	0	0	0	0	550	560	0	0	0	0	
13	0	0	0	0	546	556	0	0	0	0	
14	0	0	0	0	545	555	0	0	0	0	
15	0	0	0	0	545	556	0	0	0	0	
0	0	0	0	0	547	561	0	0	0	0	
1	0	0	0	0	551	568	0	0	0	0	
2	0	0	0	0	555	575	0	0	0	0	
3	0	0	0	0	560	584	0	0	0	0	
4	0	0	0	0	565	591	0	0	0	0	
5	0	0	0	0	569	598	0	0	0	0	
6	0	0	0	0	572	603	0	0	0	0	
7	0	0	0	0	574	605	0	0	0	0	
8	0	0	0	0	574	605	0	0	0	0	
9	0	0	0	0	572	601	0	0	0	0	
10	0	0	0	0	568	595	0	0	0	0	
11	0	0	0	0	566	588	0	0	0	0	
12	0	0	0	0	561	579	0	0	0	0	
13	0	0	0	0	557	571	0	0	0	0	
14	0	0	0	0	553	563	0	0	0	0	
15	0	0	0	0	550	556	0	0	0	0	
0	0	0	0	0	547	551	0	0	0	0	
1	0	0	0	0	547	550	0	0	0	0	
2	0	0	0	0	547	550	0	0	0	0	
3	0	0	0	0	549	554	0	0	0	0	
4	0	0	0	0	551	559	0	0	0	0	
5	0	0	0	0	556	568	0	0	0	0	
6	0	0	0	0	561	577	0	0	0	0	
7	0	0	0	0	565	586	0	0	0	0	
8	0	0	0	0	570	593	0	0	0	0	
9	0	0	0	0	573	600	0	0	0	0	
10	0	0	0	0	575	606	0	0	0	0	
11	0	0	0	0	577	608	0	0	0	0	
12	0	0	0	0	577	607	0	0	0	0	
13	0	0	0	0	575	604	0	0	0	0	
14	0	0	0	0	572	598	0	0	0	0	
15	0	0	0	0	568	591	0	0	0	0	
0	0	0	0	0	563	581	0	0	0	0	
1	0	0	0	0	558	571	0	0	0	0	
2	0	0	0	0	554	562	0	0	0	0	
3	0	0	0	0	550	553	0	0	0	0	
4	0	0	0	0	547	549	0	0	0	0	
5	0	0	0	0	547	546	0	0	0	0	
6	0	0	0	0	548	546	0	0	0	0	
7	0	0	0	0	551	549	0	0	0	0	
8	0	0	0	0	554	555	0	0	0	0	
9	0	0	0	0	559	563	0	0	0	0	
10	0	0	0	0	565	572	0	0	0	0	
11	0	0	0	0	571	582	0	0	0	0	
12	0	0	0	0	575	591	0	0	0	0	
13	0	0	0	0	579	598	0	0	0	0	
14	0	0	0	0	582	605	0	0	0	0	
15	0	0	0	0	583	608	0	0	0	0	
0	0	0	0	0	583	608	0	0	0	0	
1	0	0	0	0	581	606	0	0	0	0	
2	0	0	0	0	577	600	0	0	0	0	
3	0	0	0	0	574	594	0	0	0	0	
4	0	0	0	0	568	585	0	0	0	0	
5	0	0	0	0	563	576	0	0	0	0	
6	0	0	0	0	559	567	0	0	0	0	
7	0	0	0	0	555	559	0	0	0	0	
8	0	0	0	0	553	553	0	0	0	0	
9	0	0	0	0	551	550	0	0	0	0	
10	0	0	0	0	552	550	0	0	0	0	
11	0	0	0	0	553	551	0	0	0	0	
12	0	0	0	0	557	557	0	0	0	0	
13	0	0	0	0	562	566	0	0	0	0	
14	0	0	0	0	567	575	0	0	0	0	
15	0	0	0	0	573	584	0	0	0	0	
0	0	0	0	0	578	593	0	0	0	0	
1	0	0	0	0	583	600	0	0	0	0	
2	0	0	0	0	586	606	0	0	0	0	
3	0	0	0	0	588	608	0	0	0	0	
4	0	0	0	0	587	608	0	0	0	0	
5	0	0	0	0	585	605	0	0	0	0	
6	0	0	0	0	582	598	0	0	0	0	
7	0	0	0	0	577	591	0	0	0	0	
8	0	0	0	0	572	582	0	0	0	0	
9	0	0	0	0	566	572	0	0	0	0	
10	0	0	0	0	560	563	0	0	0	0	
11	0	0	0	0	554	555	0	0	0	0	
12	0	0	0	0	550	548	0	0	0	0	
13	0	0	0	0	547	543	0	0	0	0	
14	0	0	0	0	545	542	0	0	0	0	
15	0	0	0	0	544	543	0	0	0	0	
0	0	0	0	0	545	546	0	0	0	0	
1	0	0	0	0	547	551	0	0	0	0	
2	0	0	0	0	550	558	0	0	0	0	
3	0	0	0	0	552	565	0	0	0	0	
4	0	0	0	0	556	572	0	0	0	0	
5	0	0	0	0	558	577	0	0	0	0	
6	0	0	0	0	560	580	0	0	0	0	
7	0	0	0	0	559	581	0	0	0	0	
8	0	0	0	0	556	577	0	0	0	0	
9	0	0	0	0	552	572	0	0	0	0	
10	0	0	0	0	545	562	0	0	0	0	
11	0	0	0	0	538	551	0	0	0	0	
12	0	0	0	0	529	538	0	0	0	0	
13	0	0	0	0	519	524	0	0	0	0	
14	0	0	0	0	508	509	0	0	0	0	
15	0	0	0	0	498	495	0	0	0	0	
0	0	0	0	0	487	483	0	0	0	0	
1	0	0	0	0	479	472	0	0	0	0	
2	0	0	0	0	470	463	0	0	0	0	
3	0	0	0	0	462	456	0	0	0	0	
4	0	0	0	0	455	451	0	0	0	0	
5	0	0	0	0	449	448	0	0	0	0	
6	0	0	0	0	443	445	0	0	0	0	
7	0	0	0	0	437	443	0	0	0	0	
8	0	0	0	0	430	439	0	0	0	0	
9	0	0	0	0	422	435	0	0	0	0	
10	0	0	0	0	413	429	0	0	0	0	
11	0	0	0	0	403	420	0	0	0	0	
12	0	0	0	0	393	411	0	0	0	0	
13	0	0	0	0	383	400	0	0	0	0	
14	0	0	0	0	374	389	0	0	0	0	
15	0	0	0	0	367	379	0	0	0	0	
0	0	0	0	0	363	370	0	0	0	0	
1	0	0	0	0	363	364	0	0	0	0	
2	0	0	0	0	367	361	0	0	0	0	
3	0	0	0	0	374	364	0	0	0	0	
4	0	0	0	0	388	371	0	0	0	0	
5	0	0	0	0	406	384	0	0	0	0	
6	0	0	0	0	428	402	0	0	0	0	
7	0	0	0	0	452	424	0	0	0	0	
8	0	0	0	0	478	451	0	0	0	0	
9	0	0	0	0	505	479	0	0	0	0	
10	0	0	0	0	532	508	0	0	0	0	
11	0	0	0	0	557	537	0	0	0	0	
12	0	0	0	0	580	565	0	0	0	0	
13	0	0	0	0	598	587	0	0	0	0	
14	0	0	0	0	613	606	0	0	0	0	
15	0	0	0	0	623	620	0	0	0	0	
0	0	0	0	0	628	628	0	0	0	0	
1	0	0	0	0	629	632	0	0	0	0	
2	0	0	0	0	625	630	0	0	0	0	
3	0	0	0	0	620	623	0	0	0	0	
4	0	0	0	0	609	612	0	0	0	0	
5	0	0	0	0	598	599	0	0	0	0	
6	0	0	0	0	587	586	0	0	0	0	
7	0	0	0	0	574	573	0	0	0	0	
8	0	0	0	0	565	562	0	0	0	0	
9	0	0	0	0	557	553	0	0	0	0	
10	0	0	0	0	553	549	0	0	0	0	
11	0	0	0	0	551	548	0	0	0	0	
12	0	0	0	0	552	551	0	0	0	0	
13	0	0	0	0	557	558	0	0	0	0	
14	0	0	0	0	563	567	0	0	0	0	
15	0	0	0	0	572	576	0	0	0	0	
0	0	0	0	0	580	587	0	0	0	0	
1	0	0	0	0	588	596	0	0	0	0	
2	0	0	0	0	595	605	0	0	0	0	
3	0	0	0	0	600	610	0	0	0	0	
4	0	0	0	0	602	612	0	0	0	0	
5	0	0	0	0	602	610	0	0	0	0	
6	0	0	0	0	599	605	0	0	0	0	
7	0	0	0	0	595	599	0	0	0	0	
8	0	0	0	0	590	590	0	0	0	0	
9	0	0	0	0	583	581	0	0	0	0	
10	0	0	0	0	576	571	0	0	0	0	
11	0	0	0	0	571	563	0	0	0	0	
12	0	0	0	0	566	558	0	0	0	0	
13	0	0	0	0	563	555	0	0	0	0	
14	0	0	0	0	561	555	0	0	0	0	
15	0	0	0	0	561	557	0	0	0	0	
0	0	0	0	0	563	562	0	0	0	0	
1	0	0	0	0	568	571	0	0	0	0	
2	0	0	0	0	573	580	0	0	0	0	
3	0	0	0	0	579	590	0	0	0	0	
4	0	0	0	0	585	599	0	0	0	0	
5	0	0	0	0	591	608	0	0	0	0	
6	0	0	0	0	596	615	0	0	0	0	
7	0	0	0	0	600	619	0	0	0	0	
8	0	0	0	0	602	620	0	0	0	0	
9	0	0	0	0	602	617	0	0	0	0	
10	0	0	0	0	600	611	0	0	0	0	
11	0	0	0	0	597	604	0	0	0	0	
12	0	0	0	0	593	594	0	0	0	0	
13	0	0	0	0	588	583	0	0	0	0	
14	0	0	0	0	583	573	0	0	0	0	
15	0	0	0	0	577	563	0	0	0	0	
0	0	0	0	0	574	556	0	0	0	0	
1	0	0	0	0	572	551	0	0	0	0	
2	0	0	0	0	572	550	0	0	0	0	
3	0	0	0	0	573	553	0	0	0	0	
4	0	0	0	0	575	557	0	0	0	0	
5	0	0	0	0	580	565	0	0	0	0	
6	0	0	0	0	584	574	0	0	0	0	
7	0	0	0	0	589	583	0	0	0	0	
8	0	0	0	0	593	590	0	0	0	0	
9	0	0	0	0	596	597	0	0	0	0	
10	0	0	0	0	599	603	0	0	0	0	
11	0	0	0	0	600	605	0	0	0	0	
12	0	0	0	0	598	604	0	0	0	0	
13	0	0	0	0	596	601	0	0	0	0	
14	0	0	0	0	592	595	0	0	0	0	
15	0	0	0	0	588	588	0	0	0	0	
0	0	0	0	0	582	579	0	0	0	0	
1	0	0	0	0	576	569	0	0	0	0	
2	0	0	0	0	571	560	0	0	0	0	
3	0	0	0	0	564	552	0	0	0	0	
4	0	0	0	0	561	546	0	0	0	0	
5	0	0	0	0	559	542	0	0	0	0	
6	0	0	0	0	558	540	0	0	0	0	
7	0	0	0	0	558	541	0	0	0	0	
8	0	0	0	0	559	545	0	0	0	0	
9	0	0	0	0	563	551	0	0	0	0	
10	0	0	0	0	567	559	0	0	0	0	
11	0	0	0	0	571	567	0	0	0	0	
12	0	0	0	0	576	575	0	0	0	0	
13	0	0	0	0	579	583	0	0	0	0	
14	0	0	0	0	583	590	0	0	0	0	
15	0	0	0	0	585	593	0	0	0	0	
0	0	0	0	0	585	594	0	0	0	0	
1	0	0	0	0	585	592	0	0	0	0	
2	0	0	0	0	582	589	0	0	0	0	
3	0	0	0	0	580	583	0	0	0	0	
4	0	0	0	0	576	575	0	0	0	0	
5	0	0	0	0	572	567	0	0	0	0	
6	0	0	0	0	568	557	0	0	0	0	
7	0	0	0	0	563	551	0	0	0	0	
8	0	0	0	0	561	545	0	0	0	0	
9	0	0	0	0	560	542	0	0	0	0	
10	0	0	0	0	559	541	0	0	0	0	
11	0	0	0	0	560	543	0	0	0	0	
12	0	0	0	0	562	547	0	0	0	0	
13	0	0	0	0	565	553	0	0	0	0	
14	0	0	0	0	568	560	0	0	0	0	
15	0	0	0	0	572	568	0	0	0	0	
0	0	0	0	0	575	574	0	0	0	0	
1	0	0	0	0	577	579	0	0	0	0	
2	0	0	0	0	579	583	0	0	0	0	
3	0	0	0	0	579	584	0	0	0	0	
4	0	0	0	0	577	583	0	0	0	0	
5	0	0	0	0	574	578	0	0	0	0	
6	0	0	0	0	570	572	0	0	0	0	
7	0	0	0	0	566	565	0	0	0	0	
8	0	0	0	0	561	556	0	0	0	0	
9	0	0	0	0	557	547	0	0	0	0	
10	0	0	0	0	552	539	0	0	0	0	
11	0	0	0	0	549	534	0	0	0	0	
12	0	0	0	0	548	530	0	0	0	0	
13	0	0	0	0	547	528	0	0	0	0	
14	0	0	0	0	548	529	0	0	0	0	
15	0	0	0	0	550	533	0	0	0	0	
0	0	0	0	0	553	539	0	0	0	0	
1	0	0	0	0	558	547	0	0	0	0	
2	0	0	0	0	563	556	0	0	0	0	
3	0	0	0	0	567	566	0	0	0	0	
4	0	0	0	0	572	575	0	0	0	0	
5	0	0	0	0	575	581	0	0	0	0	
6	0	0	0	0	578	588	0	0	0	0	
7	0	0	0	0	579	591	0	0	0	0	
8	0	0	0	0	580	591	0	0	0	0	
9	0	0	0	0	579	588	0	0	0	0	
10	0	0	0	0	576	583	0	0	0	0	
11	0	0	0	0	573	577	0	0	0	0	
12	0	0	0	0	569	569	0	0	0	0	
13	0	0	0	0	564	559	0	0	0	0	
14	0	0	0	0	559	551	0	0	0	0	
15	0	0	0	0	555	542	0	0	0	0	
0	0	0	0	0	552	536	0	0	0	0	
1	0	0	0	0	550	532	0	0	0	0	
2	0	0	0	0	549	530	0	0	0	0	
3	0	0	0	0	550	531	0	0	0	0	
4	0	0	0	0	551	536	0	0	0	0	
5	0	0	0	0	555	542	0	0	0	0	
6	0	0	0	0	559	550	0	0	0	0	
7	0	0	0	0	563	559	0	0	0	0	
8	0	0	0	0	567	567	0	0	0	0	
9	0	0	0	0	570	576	0	0	0	0	
10	0	0	0	0	574	583	0	0	0	0	
11	0	0	0	0	576	588	0	0	0	0	
12	0	0	0	0	577	590	0	0	0	0	
13	0	0	0	0	576	590	0	0	0	0	
14	0	0	0	0	574	588	0	0	0	0	
15	0	0	0	0	572	583	0	0	0	0	
0	0	0	0	0	569	577	0	0	0	0	
1	0	0	0	0	566	571	0	0	0	0	
2	0	0	0	0	563	563	0	0	0	0	
3	0	0	0	0	560	558	0	0	0	0	
4	0	0	0	0	559	554	0	0	0	0	
5	0	0	0	0	559	552	0	0	0	0	
6	0	0	0	0	559	552	0	0	0	0	
7	0	0	0	0	561	554	0	0	0	0	
8	0	0	0	0	564	559	0	0	0	0	
9	0	0	0	0	568	566	0	0	0	0	
10	0	0	0	0	571	572	0	0	0	0	
11	0	0	0	0	575	580	0	0	0	0	
12	0	0	0	0	578	587	0	0	0	0	
13	0	0	0	0	580	593	0	0	0	0	
14	0	0	0	0	582	599	0	0	0	0	
15	0	0	0	0	582	600	0	0	0	0	
0	0	0	0	0	581	600	0	0	0	0	
1	0	0	0	0	578	597	0	0	0	0	
2	0	0	0	0	572	592	0	0	0	0	
3	0	0	0	0	567	584	0	0	0	0	
4	0	0	0	0	560	575	0	0	0	0	
5	0	0	0	0	551	564	0	0	0	0	
6	0	0	0	0	544	554	0	0	0	0	
7	0	0	0	0	536	545	0	0	0	0	
8	0	0	0	0	531	537	0	0	0	0	
9	0	0	0	0	526	532	0	0	0	0	
10	0	0	0	0	523	530	0	0	0	0	
11	0	0	0	0	523	530	0	0	0	0	
12	0	0	0	0	523	534	0	0	0	0	
13	0	0	0	0	527	540	0	0	0	0	
14	0	0	0	0	532	548	0	0	0	0	
15	0	0	0	0	539	558	0	0	0	0	
0	0	0	0	0	546	567	0	0	0	0	
1	0	0	0	0	552	577	0	0	0	0	
2	0	0	0	0	559	585	0	0	0	0	
3	0	0	0	0	564	590	0	0	0	0	
4	0	0	0	0	567	592	0	0	0	0	
5	0	0	0	0	567	592	0	0	0	0	
6	0	0	0	0	566	589	0	0	0	0	
7	0	0	0	0	562	583	0	0	0	0	
8	0	0	0	0	557	576	0	0	0	0	
9	0	0	0	0	552	569	0	0	0	0	
10	0	0	0	0	547	561	0	0	0	0	
11	0	0	0	0	542	556	0	0	0	0	
12	0	0	0	0	540	552	0	0	0	0	
13	0	0	0	0	539	551	0	0	0	0	
14	0	0	0	0	540	552	0	0	0	0	
15	0	0	0	0	544	556	0	0	0	0	
0	0	0	0	0	550	564	0	0	0	0	
1	0	0	0	0	558	575	0	0	0	0	
2	0	0	0	0	566	587	0	0	0	0	
3	0	0	0	0	575	599	0	0	0	0	
4	0	0	0	0	585	611	0	0	0	0	
5	0	0	0	0	593	624	0	0	0	0	
6	0	0	0	0	601	633	0	0	0	0	
7	0	0	0	0	607	640	0	0	0	0	
8	0	0	0	0	610	643	0	0	0	0	
9	0	0	0	0	611	642	0	0	0	0	
10	0	0	0	0	608	639	0	0	0	0	
11	0	0	0	0	604	631	0	0	0	0	
12	0	0	0	0	597	620	0	0	0	0	
13	0	0	0	0	589	607	0	0	0	0	
14	0	0	0	0	579	593	0	0	0	0	
15	0	0	0	0	569	581	0	0	0	0	
0	0	0	0	0	561	569	0	0	0	0	
1	0	0	0	0	555	561	0	0	0	0	
2	0	0	0	0	551	556	0	0	0	0	
3	0	0	0	0	549	554	0	0	0	0	
4	0	0	0	0	549	557	0	0	0	0	
5	0	0	0	0	553	562	0	0	0	0	
6	0	0	0	0	558	570	0	0	0	0	
7	0	0	0	0	563	578	0	0	0	0	
8	0	0	0	0	568	586	0	0	0	0	
9	0	0	0	0	572	595	0	0	0	0	
10	0	0	0	0	576	601	0	0	0	0	
11	0	0	0	0	579	605	0	0	0	0	
12	0	0	0	0	579	607	0	0	0	0	
13	0	0	0	0	579	605	0	0	0	0	
14	0	0	0	0	576	601	0	0	0	0	
15	0	0	0	0	572	596	0	0	0	0	
0	0	0	0	0	568	589	0	0	0	0	
1	0	0	0	0	563	582	0	0	0	0	
2	0	0	0	0	557	573	0	0	0	0	
3	0	0	0	0	552	566	0	0	0	0	
4	0	0	0	0	548	560	0	0	0	0	
5	0	0	0	0	545	557	0	0	0	0	
6	0	0	0	0	543	556	0	0	0	0	
7	0	0	0	0	543	558	0	0	0	0	
8	0	0	0	0	545	562	0	0	0	0	
9	0	0	0	0	547	569	0	0	0	0	
10	0	0	0	0	551	577	0	0	0	0	
11	0	0	0	0	556	585	0	0	0	0	
12	0	0	0	0	559	592	0	0	0	0	
13	0	0	0	0	563	599	0	0	0	0	
14	0	0	0	0	566	604	0	0	0	0	
15	0	0	0	0	567	608	0	0	0	0	
0	0	0	0	0	568	608	0	0	0	0	
1	0	0	0	0	565	605	0	0	0	0	
2	0	0	0	0	564	600	0	0	0	0	
3	0	0	0	0	561	594	0	0	0	0	
4	0	0	0	0	559	587	0	0	0	0	
5	0	0	0	0	556	580	0	0	0	0	
6	0	0	0	0	553	573	0	0	0	0	
7	0	0	0	0	552	567	0	0	0	0	
8	0	0	0	0	552	564	0	0	0	0	
9	0	0	0	0	553	563	0	0	0	0	
10	0	0	0	0	555	564	0	0	0	0	
11	0	0	0	0	558	568	0	0	0	0	
12	0	0	0	0	562	574	0	0	0	0	
13	0	0	0	0	568	583	0	0	0	0	
14	0	0	0	0	574	593	0	0	0	0	
15	0	0	0	0	581	604	0	0	0	0	
0	0	0	0	0	587	615	0	0	0	0	
1	0	0	0	0	592	623	0	0	0	0	
2	0	0	0	0	598	632	0	0	0	0	
3	0	0	0	0	601	636	0	0	0	0	
4	0	0	0	0	603	638	0	0	0	0	
5	0	0	0	0	602	636	0	0	0	0	
6	0	0	0	0	600	632	0	0	0	0	
7	0	0	0	0	596	627	0	0	0	0	
8	0	0	0	0	590	618	0	0	0	0	
9	0	0	0	0	584	608	0	0	0	0	
10	0	0	0	0	577	599	0	0	0	0	
11	0	0	0	0	571	590	0	0	0	0	
12	0	0	0	0	566	584	0	0	0	0	
13	0	0	0	0	562	579	0	0	0	0	
14	0	0	0	0	559	578	0	0	0	0	
15	0	0	0	0	558	579	0	0	0	0	
0	0	0	0	0	558	583	0	0	0	0	
1	0	0	0	0	560	590	0	0	0	0	
2	0	0	0	0	563	599	0	0	0	0	
3	0	0	0	0	566	607	0	0	0	0	
4	0	0	0	0	571	617	0	0	0	0	
5	0	0	0	0	575	625	0	0	0	0	
6	0	0	0	0	579	633	0	0	0	0	
7	0	0	0	0	582	637	0	0	0	0	
8	0	0	0	0	584	639	0	0	0	0	
9	0	0	0	0	585	638	0	0	0	0	
10	0	0	0	0	584	633	0	0	0	0	
11	0	0	0	0	583	628	0	0	0	0	
12	0	0	0	0	580	621	0	0	0	0	
13	0	0	0	0	577	613	0	0	0	0	
14	0	0	0	0	574	605	0	0	0	0	
15	0	0	0	0	570	598	0	0	0	0	
0	0	0	0	0	569	592	0	0	0	0	
1	0	0	0	0	567	589	0	0	0	0	
2	0	0	0	0	568	588	0	0	0	0	
3	0	0	0	0	569	590	0	0	0	0	
4	0	0	0	0	572	595	0	0	0	0	
5	0	0	0	0	575	602	0	0	0	0	
6	0	0	0	0	580	611	0	0	0	0	
7	0	0	0	0	585	620	0	0	0	0	
8	0	0	0	0	590	630	0	0	0	0	
9	0	0	0	0	595	638	0	0	0	0	
10	0	0	0	0	600	646	0	0	0	0	
11	0	0	0	0	602	650	0	0	0	0	
12	0	0	0	0	602	652	0	0	0	0	
13	0	0	0	0	600	649	0	0	0	0	
14	0	0	0	0	596	642	0	0	0	0	
15	0	0	0	0	591	634	0	0	0	0	
0	0	0	0	0	583	623	0	0	0	0	
1	0	0	0	0	576	611	0	0	0	0	
2	0	0	0	0	568	598	0	0	0	0	
3	0	0	0	0	561	588	0	0	0	0	
4	0	0	0	0	556	580	0	0	0	0	
5	0	0	0	0	552	574	0	0	0	0	
6	0	0	0	0	551	572	0	0	0	0	
7	0	0	0	0	552	573	0	0	0	0	
8	0	0	0	0	555	577	0	0	0	0	
9	0	0	0	0	560	585	0	0	0	0	
10	0	0	0	0	566	595	0	0	0	0	
11	0	0	0	0	572	605	0	0	0	0	
12	0	0	0	0	579	616	0	0	0	0	
13	0	0	0	0	584	626	0	0	0	0	
14	0	0	0	0	590	635	0	0	0	0	
15	0	0	0	0	593	640	0	0	0	0	
0	0	0	0	0	595	643	0	0	0	0	
1	0	0	0	0	595	643	0	0	0	0	
2	0	0	0	0	592	639	0	0	0	0	
3	0	0	0	0	590	633	0	0	0	0	
4	0	0	0	0	586	626	0	0	0	0	
5	0	0	0	0	582	617	0	0	0	0	
6	0	0	0	0	576	608	0	0	0	0	
7	0	0	0	0	572	601	0	0	0	0	
8	0	0	0	0	569	595	0	0	0	0	
9	0	0	0	0	566	591	0	0	0	0	
10	0	0	0	0	565	590	0	0	0	0	
11	0	0	0	0	566	591	0	0	0	0	
12	0	0	0	0	567	594	0	0	0	0	
13	0	0	0	0	570	601	0	0	0	0	
14	0	0	0	0	573	608	0	0	0	0	
15	0	0	0	0	576	615	0	0	0	0	
0	0	0	0	0	579	623	0	0	0	0	
1	0	0	0	0	582	629	0	0	0	0	
2	0	0	0	0	584	633	0	0	0	0	
3	0	0	0	0	585	635	0	0	0	0	
4	0	0	0	0	584	635	0	0	0	0	
5	0	0	0	0	583	631	0	0	0	0	
6	0	0	0	0	579	625	0	0	0	0	
7	0	0	0	0	576	618	0	0	0	0	
8	0	0	0	0	571	608	0	0	0	0	
9	0	0	0	0	567	599	0	0	0	0	
10	0	0	0	0	563	590	0	0	0	0	
11	0	0	0	0	559	581	0	0	0	0	
12	0	0	0	0	557	576	0	0	0	0	
13	0	0	0	0	556	572	0	0	0	0	
14	0	0	0	0	556	572	0	0	0	0	
15	0	0	0	0	559	574	0	0	0	0	
0	0	0	0	0	563	579	0	0	0	0	
1	0	0	0	0	568	588	0	0	0	0	
2	0	0	0	0	575	597	0	0	0	0	
3	0	0	0	0	581	608	0	0	0	0	
4	0	0	0	0	588	618	0	0	0	0	
5	0	0	0	0	593	627	0	0	0	0	
6	0	0	0	0	597	635	0	0	0	0	
7	0	0	0	0	599	639	0	0	0	0	
8	0	0	0	0	598	639	0	0	0	0	
9	0	0	0	0	596	638	0	0	0	0	
10	0	0	0	0	592	633	0	0	0	0	
11	0	0	0	0	587	627	0	0	0	0	
12	0	0	0	0	580	618	0	0	0	0	
13	0	0	0	0	574	608	0	0	0	0	
14	0	0	0	0	567	598	0	0	0	0	
15	0	0	0	0	562	589	0	0	0	0	
0	0	0	0	0	558	583	0	0	0	0	
1	0	0	0	0	556	579	0	0	0	0	
2	0	0	0	0	556	577	0	0	0	0	
3	0	0	0	0	558	579	0	0	0	0	
4	0	0	0	0	561	583	0	0	0	0	
5	0	0	0	0	566	590	0	0	0	0	
6	0	0	0	0	572	599	0	0	0	0	
7	0	0	0	0	577	608	0	0	0	0	
8	0	0	0	0	583	617	0	0	0	0	
9	0	0	0	0	589	625	0	0	0	0	
10	0	0	0	0	593	632	0	0	0	0	
11	0	0	0	0	596	637	0	0	0	0	
12	0	0	0	0	596	638	0	0	0	0	
13	0	0	0	0	596	638	0	0	0	0	
14	0	0	0	0	593	633	0	0	0	0	
15	0	0	0	0	590	627	0	0	0	0	
0	0	0	0	0	585	619	0	0	0	0	
1	0	0	0	0	579	609	0	0	0	0	
2	0	0	0	0	574	600	0	0	0	0	
3	0	0	0	0	568	590	0	0	0	0	
4	0	0	0	0	564	584	0	0	0	0	
5	0	0	0	0	561	579	0	0	0	0	
6	0	0	0	0	560	577	0	0	0	0	
7	0	0	0	0	560	577	0	0	0	0	
8	0	0	0	0	562	581	0	0	0	0	
9	0	0	0	0	567	589	0	0	0	0	
10	0	0	0	0	573	598	0	0	0	0	
11	0	0	0	0	579	608	0	0	0	0	
12	0	0	0	0	587	619	0	0	0	0	
13	0	0	0	0	593	629	0	0	0	0	
14	0	0	0	0	599	638	0	0	0	0	
15	0	0	0	0	603	644	0	0	0	0	
0	0	0	0	0	605	646	0	0	0	0	
1	0	0	0	0	604	644	0	0	0	0	
2	0	0	0	0	601	639	0	0	0	0	
3	0	0	0	0	596	632	0	0	0	0	
4	0	0	0	0	590	621	0	0	0	0	
5	0	0	0	0	583	609	0	0	0	0	
6	0	0	0	0	576	598	0	0	0	0	
7	0	0	0	0	569	586	0	0	0	0	
8	0	0	0	0	564	578	0	0	0	0	
9	0	0	0	0	561	572	0	0	0	0	
10	0	0	0	0	559	568	0	0	0	0	
11	0	0	0	0	560	569	0	0	0	0	
12	0	0	0	0	563	572	0	0	0	0	
13	0	0	0	0	567	579	0	0	0	0	
14	0	0	0	0	573	588	0	0	0	0	
15	0	0	0	0	579	597	0	0	0	0	
0	0	0	0	0	585	606	0	0	0	0	
1	0	0	0	0	590	614	0	0	0	0	
2	0	0	0	0	593	621	0	0	0	0	
3	0	0	0	0	596	625	0	0	0	0	
4	0	0	0	0	595	626	0	0	0	0	
5	0	0	0	0	594	624	0	0	0	0	
6	0	0	0	0	591	619	0	0	0	0	
7	0	0	0	0	586	611	0	0	0	0	
8	0	0	0	0	580	603	0	0	0	0	
9	0	0	0	0	574	592	0	0	0	0	
10	0	0	0	0	568	583	0	0	0	0	
11	0	0	0	0	563	574	0	0	0	0	
12	0	0	0	0	561	568	0	0	0	0	
13	0	0	0	0	559	564	0	0	0	0	
14	0	0	0	0	560	563	0	0	0	0	
15	0	0	0	0	563	566	0	0	0	0	
0	0	0	0	0	567	572	0	0	0	0	
1	0	0	0	0	573	580	0	0	0	0	
2	0	0	0	0	579	589	0	0	0	0	
3	0	0	0	0	586	599	0	0	0	0	
4	0	0	0	0	591	608	0	0	0	0	
5	0	0	0	0	596	617	0	0	0	0	
6	0	0	0	0	601	624	0	0	0	0	
7	0	0	0	0	603	628	0	0	0	0	
8	0	0	0	0	603	630	0	0	0	0	
9	0	0	0	0	602	628	0	0	0	0	
10	0	0	0	0	599	622	0	0	0	0	
11	0	0	0	0	595	616	0	0	0	0	
12	0	0	0	0	589	607	0	0	0	0	
13	0	0	0	0	583	597	0	0	0	0	
14	0	0	0	0	577	587	0	0	0	0	
15	0	0	0	0	571	578	0	0	0	0	
0	0	0	0	0	568	571	0	0	0	0	
1	0	0	0	0	564	566	0	0	0	0	
2	0	0	0	0	563	564	0	0	0	0	
3	0	0	0	0	564	566	0	0	0	0	
4	0	0	0	0	567	571	0	0	0	0	
5	0	0	0	0	571	578	0	0	0	0	
6	0	0	0	0	576	588	0	0	0	0	
7	0	0	0	0	583	599	0	0	0	0	
8	0	0	0	0	589	609	0	0	0	0	
9	0	0	0	0	595	620	0	0	0	0	
10	0	0	0	0	600	628	0	0	0	0	
11	0	0	0	0	604	633	0	0	0	0	
12	0	0	0	0	605	636	0	0	0	0	
13	0	0	0	0	605	636	0	0	0	0	
