# OpenSignals Text File Format. Version 1
# {"": {"position": 0, "device": "", "device name": "", "device connection": "", "sampling rate": 1000, "resolution": [4, 1, 1, 1, 1, 10, 10, 10, 10, 6, 6], "firmware version": 1281, "comments": "", "keywords": "", "mode": 0, "sync interval": 2, "date": "", "time": "", "channels": [1, 2, 3, 4, 5, 6], "sensor": ["RAW", "RAW", "RAW", "RAW", "RAW", "RAW"], "label": ["A1", "A2", "A3", "A4", "A5", "A6"], "column": ["nSeq", "I1", "I2", "O1", "O2", "A1", "A2", "A3", "A4", "A5", "A6"], "special": [{}, {}, {}, {}, {}, {}], "digital IO": [0, 0, 1, 1], "convertedValues": 0}}
# EndOfHeader
0	0	0	0	0	502	461	0	0	0	0	
1	0	0	0	0	500	459	0	0	0	0	
2	0	0	0	0	499	457	0	0	0	0	
3	0	0	0	0	498	456	0	0	0	0	
4	0	0	0	0	497	455	0	0	0	0	
5	0	0	0	0	497	454	0	0	0	0	
6	0	0	0	0	497	454	0	0	0	0	
7	0	0	0	0	497	455	0	0	0	0	
8	0	0	0	0	497	455	0	0	0	0	
9	0	0	0	0	498	457	0	0	0	0	
10	0	0	0	0	500	459	0	0	0	0	
11	0	0	0	0	501	461	0	0	0	0	
12	0	0	0	0	503	463	0	0	0	0	
13	0	0	0	0	504	464	0	0	0	0	
14	0	0	0	0	505	466	0	0	0	0	
15	0	0	0	0	506	467	0	0	0	0	
0	0	0	0	0	507	468	0	0	0	0	
1	0	0	0	0	507	468	0	0	0	0	
2	0	0	0	0	507	468	0	0	0	0	
3	0	0	0	0	507	467	0	0	0	0	
4	0	0	0	0	506	467	0	0	0	0	
5	0	0	0	0	505	466	0	0	0	0	
6	0	0	0	0	504	465	0	0	0	0	
7	0	0	0	0	503	464	0	0	0	0	
8	0	0	0	0	502	463	0	0	0	0	
9	0	0	0	0	502	463	0	0	0	0	
10	0	0	0	0	502	463	0	0	0	0	
11	0	0	0	0	501	463	0	0	0	0	
12	0	0	0	0	502	464	0	0	0	0	
13	0	0	0	0	503	465	0	0	0	0	
14	0	0	0	0	503	466	0	0	0	0	
15	0	0	0	0	504	467	0	0	0	0	
0	0	0	0	0	504	468	0	0	0	0	
1	0	0	0	0	504	469	0	0	0	0	
2	0	0	0	0	505	470	0	0	0	0	
3	0	0	0	0	504	470	0	0	0	0	
4	0	0	0	0	503	469	0	0	0	0	
5	0	0	0	0	502	467	0	0	0	0	
6	0	0	0	0	500	465	0	0	0	0	
7	0	0	0	0	497	463	0	0	0	0	
8	0	0	0	0	495	460	0	0	0	0	
9	0	0	0	0	492	457	0	0	0	0	
10	0	0	0	0	491	455	0	0	0	0	
11	0	0	0	0	490	453	0	0	0	0	
12	0	0	0	0	489	452	0	0	0	0	
13	0	0	0	0	490	452	0	0	0	0	
14	0	0	0	0	491	453	0	0	0	0	
15	0	0	0	0	493	454	0	0	0	0	
0	0	0	0	0	495	455	0	0	0	0	
1	0	0	0	0	496	457	0	0	0	0	
2	0	0	0	0	499	459	0	0	0	0	
3	0	0	0	0	501	460	0	0	0	0	
4	0	0	0	0	503	461	0	0	0	0	
5	0	0	0	0	503	461	0	0	0	0	
6	0	0	0	0	503	462	0	0	0	0	
7	0	0	0	0	502	461	0	0	0	0	
8	0	0	0	0	501	460	0	0	0	0	
9	0	0	0	0	499	459	0	0	0	0	
10	0	0	0	0	497	457	0	0	0	0	
11	0	0	0	0	495	456	0	0	0	0	
12	0	0	0	0	495	454	0	0	0	0	
13	0	0	0	0	493	452	0	0	0	0	
14	0	0	0	0	492	451	0	0	0	0	
15	0	0	0	0	491	450	0	0	0	0	
0	0	0	0	0	490	449	0	0	0	0	
1	0	0	0	0	490	448	0	0	0	0	
2	0	0	0	0	491	449	0	0	0	0	
3	0	0	0	0	491	449	0	0	0	0	
4	0	0	0	0	492	450	0	0	0	0	
5	0	0	0	0	494	451	0	0	0	0	
6	0	0	0	0	495	452	0	0	0	0	
7	0	0	0	0	496	454	0	0	0	0	
8	0	0	0	0	496	455	0	0	0	0	
9	0	0	0	0	497	455	0	0	0	0	
10	0	0	0	0	496	456	0	0	0	0	
11	0	0	0	0	496	456	0	0	0	0	
12	0	0	0	0	496	455	0	0	0	0	
13	0	0	0	0	495	455	0	0	0	0	
14	0	0	0	0	492	453	0	0	0	0	
15	0	0	0	0	491	451	0	0	0	0	
0	0	0	0	0	489	449	0	0	0	0	
1	0	0	0	0	487	447	0	0	0	0	
2	0	0	0	0	486	446	0	0	0	0	
3	0	0	0	0	485	444	0	0	0	0	
4	0	0	0	0	486	444	0	0	0	0	
5	0	0	0	0	487	444	0	0	0	0	
6	0	0	0	0	488	446	0	0	0	0	
7	0	0	0	0	490	448	0	0	0	0	
8	0	0	0	0	492	449	0	0	0	0	
9	0	0	0	0	494	451	0	0	0	0	
10	0	0	0	0	496	454	0	0	0	0	
11	0	0	0	0	497	455	0	0	0	0	
12	0	0	0	0	499	457	0	0	0	0	
13	0	0	0	0	499	459	0	0	0	0	
14	0	0	0	0	501	460	0	0	0	0	
15	0	0	0	0	501	460	0	0	0	0	
0	0	0	0	0	502	461	0	0	0	0	
1	0	0	0	0	502	461	0	0	0	0	
2	0	0	0	0	503	460	0	0	0	0	
3	0	0	0	0	504	460	0	0	0	0	
4	0	0	0	0	504	460	0	0	0	0	
5	0	0	0	0	504	460	0	0	0	0	
6	0	0	0	0	504	460	0	0	0	0	
7	0	0	0	0	504	459	0	0	0	0	
8	0	0	0	0	504	459	0	0	0	0	
9	0	0	0	0	504	458	0	0	0	0	
10	0	0	0	0	503	458	0	0	0	0	
11	0	0	0	0	502	458	0	0	0	0	
12	0	0	0	0	500	458	0	0	0	0	
13	0	0	0	0	500	458	0	0	0	0	
14	0	0	0	0	499	458	0	0	0	0	
15	0	0	0	0	499	458	0	0	0	0	
0	0	0	0	0	498	458	0	0	0	0	
1	0	0	0	0	497	457	0	0	0	0	
2	0	0	0	0	497	457	0	0	0	0	
3	0	0	0	0	496	456	0	0	0	0	
4	0	0	0	0	496	456	0	0	0	0	
5	0	0	0	0	496	455	0	0	0	0	
6	0	0	0	0	496	455	0	0	0	0	
7	0	0	0	0	496	455	0	0	0	0	
8	0	0	0	0	497	455	0	0	0	0	
9	0	0	0	0	497	455	0	0	0	0	
10	0	0	0	0	498	456	0	0	0	0	
11	0	0	0	0	499	457	0	0	0	0	
12	0	0	0	0	500	458	0	0	0	0	
13	0	0	0	0	502	460	0	0	0	0	
14	0	0	0	0	503	461	0	0	0	0	
15	0	0	0	0	503	463	0	0	0	0	
0	0	0	0	0	504	464	0	0	0	0	
1	0	0	0	0	504	465	0	0	0	0	
2	0	0	0	0	505	466	0	0	0	0	
3	0	0	0	0	504	466	0	0	0	0	
4	0	0	0	0	504	466	0	0	0	0	
5	0	0	0	0	504	466	0	0	0	0	
6	0	0	0	0	504	466	0	0	0	0	
7	0	0	0	0	504	466	0	0	0	0	
8	0	0	0	0	504	465	0	0	0	0	
9	0	0	0	0	504	464	0	0	0	0	
10	0	0	0	0	504	463	0	0	0	0	
11	0	0	0	0	503	461	0	0	0	0	
12	0	0	0	0	504	460	0	0	0	0	
13	0	0	0	0	503	459	0	0	0	0	
14	0	0	0	0	503	458	0	0	0	0	
15	0	0	0	0	503	457	0	0	0	0	
0	0	0	0	0	503	457	0	0	0	0	
1	0	0	0	0	504	457	0	0	0	0	
2	0	0	0	0	503	457	0	0	0	0	
3	0	0	0	0	504	459	0	0	0	0	
4	0	0	0	0	504	460	0	0	0	0	
5	0	0	0	0	504	461	0	0	0	0	
6	0	0	0	0	505	462	0	0	0	0	
7	0	0	0	0	506	463	0	0	0	0	
8	0	0	0	0	507	464	0	0	0	0	
9	0	0	0	0	508	465	0	0	0	0	
10	0	0	0	0	508	466	0	0	0	0	
11	0	0	0	0	510	467	0	0	0	0	
12	0	0	0	0	510	467	0	0	0	0	
13	0	0	0	0	510	467	0	0	0	0	
14	0	0	0	0	510	467	0	0	0	0	
15	0	0	0	0	509	466	0	0	0	0	
0	0	0	0	0	509	465	0	0	0	0	
1	0	0	0	0	509	464	0	0	0	0	
2	0	0	0	0	508	463	0	0	0	0	
3	0	0	0	0	508	463	0	0	0	0	
4	0	0	0	0	509	463	0	0	0	0	
5	0	0	0	0	510	464	0	0	0	0	
6	0	0	0	0	511	466	0	0	0	0	
7	0	0	0	0	513	468	0	0	0	0	
8	0	0	0	0	515	471	0	0	0	0	
9	0	0	0	0	517	473	0	0	0	0	
10	0	0	0	0	519	475	0	0	0	0	
11	0	0	0	0	520	477	0	0	0	0	
12	0	0	0	0	521	478	0	0	0	0	
13	0	0	0	0	522	479	0	0	0	0	
14	0	0	0	0	520	479	0	0	0	0	
15	0	0	0	0	519	477	0	0	0	0	
0	0	0	0	0	518	475	0	0	0	0	
1	0	0	0	0	515	472	0	0	0	0	
2	0	0	0	0	513	469	0	0	0	0	
3	0	0	0	0	509	465	0	0	0	0	
4	0	0	0	0	507	463	0	0	0	0	
5	0	0	0	0	504	459	0	0	0	0	
6	0	0	0	0	501	456	0	0	0	0	
7	0	0	0	0	498	454	0	0	0	0	
8	0	0	0	0	496	452	0	0	0	0	
9	0	0	0	0	495	451	0	0	0	0	
10	0	0	0	0	495	451	0	0	0	0	
11	0	0	0	0	494	451	0	0	0	0	
12	0	0	0	0	496	452	0	0	0	0	
13	0	0	0	0	497	454	0	0	0	0	
14	0	0	0	0	500	457	0	0	0	0	
15	0	0	0	0	503	460	0	0	0	0	
0	0	0	0	0	506	464	0	0	0	0	
1	0	0	0	0	510	467	0	0	0	0	
2	0	0	0	0	512	470	0	0	0	0	
3	0	0	0	0	515	473	0	0	0	0	
4	0	0	0	0	516	475	0	0	0	0	
5	0	0	0	0	518	475	0	0	0	0	
6	0	0	0	0	518	475	0	0	0	0	
7	0	0	0	0	516	475	0	0	0	0	
8	0	0	0	0	516	473	0	0	0	0	
9	0	0	0	0	515	472	0	0	0	0	
10	0	0	0	0	513	471	0	0	0	0	
11	0	0	0	0	511	470	0	0	0	0	
12	0	0	0	0	510	469	0	0	0	0	
13	0	0	0	0	509	468	0	0	0	0	
14	0	0	0	0	508	467	0	0	0	0	
15	0	0	0	0	507	466	0	0	0	0	
0	0	0	0	0	507	465	0	0	0	0	
1	0	0	0	0	505	464	0	0	0	0	
2	0	0	0	0	506	463	0	0	0	0	
3	0	0	0	0	505	462	0	0	0	0	
4	0	0	0	0	504	461	0	0	0	0	
5	0	0	0	0	504	460	0	0	0	0	
6	0	0	0	0	504	459	0	0	0	0	
7	0	0	0	0	504	459	0	0	0	0	
8	0	0	0	0	504	459	0	0	0	0	
9	0	0	0	0	505	460	0	0	0	0	
10	0	0	0	0	505	460	0	0	0	0	
11	0	0	0	0	506	461	0	0	0	0	
12	0	0	0	0	507	462	0	0	0	0	
13	0	0	0	0	508	463	0	0	0	0	
14	0	0	0	0	508	464	0	0	0	0	
15	0	0	0	0	508	464	0	0	0	0	
0	0	0	0	0	508	465	0	0	0	0	
1	0	0	0	0	508	465	0	0	0	0	
2	0	0	0	0	508	465	0	0	0	0	
3	0	0	0	0	508	465	0	0	0	0	
4	0	0	0	0	507	465	0	0	0	0	
5	0	0	0	0	506	464	0	0	0	0	
6	0	0	0	0	505	463	0	0	0	0	
7	0	0	0	0	504	462	0	0	0	0	
8	0	0	0	0	503	461	0	0	0	0	
9	0	0	0	0	502	460	0	0	0	0	
10	0	0	0	0	500	459	0	0	0	0	
11	0	0	0	0	500	459	0	0	0	0	
12	0	0	0	0	500	458	0	0	0	0	
13	0	0	0	0	499	457	0	0	0	0	
14	0	0	0	0	499	457	0	0	0	0	
15	0	0	0	0	499	457	0	0	0	0	
0	0	0	0	0	499	457	0	0	0	0	
1	0	0	0	0	499	457	0	0	0	0	
2	0	0	0	0	500	458	0	0	0	0	
3	0	0	0	0	500	459	0	0	0	0	
4	0	0	0	0	502	460	0	0	0	0	
5	0	0	0	0	503	462	0	0	0	0	
6	0	0	0	0	504	463	0	0	0	0	
7	0	0	0	0	506	465	0	0	0	0	
8	0	0	0	0	507	466	0	0	0	0	
9	0	0	0	0	508	468	0	0	0	0	
10	0	0	0	0	509	469	0	0	0	0	
11	0	0	0	0	509	470	0	0	0	0	
12	0	0	0	0	509	470	0	0	0	0	
13	0	0	0	0	508	470	0	0	0	0	
14	0	0	0	0	507	468	0	0	0	0	
15	0	0	0	0	505	467	0	0	0	0	
0	0	0	0	0	503	465	0	0	0	0	
1	0	0	0	0	500	463	0	0	0	0	
2	0	0	0	0	498	460	0	0	0	0	
3	0	0	0	0	496	458	0	0	0	0	
4	0	0	0	0	494	456	0	0	0	0	
5	0	0	0	0	492	454	0	0	0	0	
6	0	0	0	0	491	452	0	0	0	0	
7	0	0	0	0	490	451	0	0	0	0	
8	0	0	0	0	489	450	0	0	0	0	
9	0	0	0	0	488	449	0	0	0	0	
10	0	0	0	0	488	449	0	0	0	0	
11	0	0	0	0	489	449	0	0	0	0	
12	0	0	0	0	489	450	0	0	0	0	
13	0	0	0	0	491	451	0	0	0	0	
14	0	0	0	0	492	452	0	0	0	0	
15	0	0	0	0	493	454	0	0	0	0	
0	0	0	0	0	495	455	0	0	0	0	
1	0	0	0	0	496	457	0	0	0	0	
2	0	0	0	0	499	460	0	0	0	0	
3	0	0	0	0	501	462	0	0	0	0	
4	0	0	0	0	503	464	0	0	0	0	
5	0	0	0	0	505	467	0	0	0	0	
6	0	0	0	0	507	468	0	0	0	0	
7	0	0	0	0	508	469	0	0	0	0	
8	0	0	0	0	509	470	0	0	0	0	
9	0	0	0	0	509	470	0	0	0	0	
10	0	0	0	0	509	469	0	0	0	0	
11	0	0	0	0	508	468	0	0	0	0	
12	0	0	0	0	508	468	0	0	0	0	
13	0	0	0	0	507	467	0	0	0	0	
14	0	0	0	0	506	466	0	0	0	0	
15	0	0	0	0	505	465	0	0	0	0	
0	0	0	0	0	503	464	0	0	0	0	
1	0	0	0	0	502	464	0	0	0	0	
2	0	0	0	0	502	464	0	0	0	0	
3	0	0	0	0	500	463	0	0	0	0	
4	0	0	0	0	500	463	0	0	0	0	
5	0	0	0	0	499	462	0	0	0	0	
6	0	0	0	0	499	462	0	0	0	0	
7	0	0	0	0	498	461	0	0	0	0	
8	0	0	0	0	498	460	0	0	0	0	
9	0	0	0	0	497	458	0	0	0	0	
10	0	0	0	0	496	456	0	0	0	0	
11	0	0	0	0	495	455	0	0	0	0	
12	0	0	0	0	495	454	0	0	0	0	
13	0	0	0	0	494	453	0	0	0	0	
14	0	0	0	0	494	452	0	0	0	0	
15	0	0	0	0	494	451	0	0	0	0	
0	0	0	0	0	495	452	0	0	0	0	
1	0	0	0	0	496	452	0	0	0	0	
2	0	0	0	0	497	454	0	0	0	0	
3	0	0	0	0	499	455	0	0	0	0	
4	0	0	0	0	500	456	0	0	0	0	
5	0	0	0	0	501	458	0	0	0	0	
6	0	0	0	0	503	460	0	0	0	0	
7	0	0	0	0	503	460	0	0	0	0	
8	0	0	0	0	503	461	0	0	0	0	
9	0	0	0	0	503	462	0	0	0	0	
10	0	0	0	0	502	461	0	0	0	0	
11	0	0	0	0	500	460	0	0	0	0	
12	0	0	0	0	499	458	0	0	0	0	
13	0	0	0	0	496	456	0	0	0	0	
14	0	0	0	0	494	453	0	0	0	0	
15	0	0	0	0	492	450	0	0	0	0	
0	0	0	0	0	490	447	0	0	0	0	
1	0	0	0	0	487	444	0	0	0	0	
2	0	0	0	0	487	442	0	0	0	0	
3	0	0	0	0	486	440	0	0	0	0	
4	0	0	0	0	487	440	0	0	0	0	
5	0	0	0	0	488	440	0	0	0	0	
6	0	0	0	0	489	442	0	0	0	0	
7	0	0	0	0	491	444	0	0	0	0	
8	0	0	0	0	492	446	0	0	0	0	
9	0	0	0	0	495	449	0	0	0	0	
10	0	0	0	0	497	452	0	0	0	0	
11	0	0	0	0	499	454	0	0	0	0	
12	0	0	0	0	500	457	0	0	0	0	
13	0	0	0	0	502	459	0	0	0	0	
14	0	0	0	0	502	460	0	0	0	0	
15	0	0	0	0	503	462	0	0	0	0	
0	0	0	0	0	503	462	0	0	0	0	
1	0	0	0	0	504	462	0	0	0	0	
2	0	0	0	0	504	462	0	0	0	0	
3	0	0	0	0	504	461	0	0	0	0	
4	0	0	0	0	505	461	0	0	0	0	
5	0	0	0	0	506	461	0	0	0	0	
6	0	0	0	0	507	461	0	0	0	0	
7	0	0	0	0	508	462	0	0	0	0	
8	0	0	0	0	510	463	0	0	0	0	
9	0	0	0	0	512	464	0	0	0	0	
10	0	0	0	0	513	465	0	0	0	0	
11	0	0	0	0	513	466	0	0	0	0	
12	0	0	0	0	513	467	0	0	0	0	
13	0	0	0	0	511	467	0	0	0	0	
14	0	0	0	0	510	466	0	0	0	0	
15	0	0	0	0	508	465	0	0	0	0	
0	0	0	0	0	505	463	0	0	0	0	
1	0	0	0	0	501	461	0	0	0	0	
2	0	0	0	0	498	460	0	0	0	0	
3	0	0	0	0	496	457	0	0	0	0	
4	0	0	0	0	494	455	0	0	0	0	
5	0	0	0	0	492	454	0	0	0	0	
6	0	0	0	0	491	452	0	0	0	0	
7	0	0	0	0	490	451	0	0	0	0	
8	0	0	0	0	491	451	0	0	0	0	
9	0	0	0	0	492	451	0	0	0	0	
10	0	0	0	0	494	452	0	0	0	0	
11	0	0	0	0	497	454	0	0	0	0	
12	0	0	0	0	498	455	0	0	0	0	
13	0	0	0	0	502	458	0	0	0	0	
14	0	0	0	0	504	460	0	0	0	0	
15	0	0	0	0	507	463	0	0	0	0	
0	0	0	0	0	509	465	0	0	0	0	
1	0	0	0	0	510	467	0	0	0	0	
2	0	0	0	0	512	469	0	0	0	0	
3	0	0	0	0	513	471	0	0	0	0	
4	0	0	0	0	513	472	0	0	0	0	
5	0	0	0	0	513	472	0	0	0	0	
6	0	0	0	0	512	472	0	0	0	0	
7	0	0	0	0	511	471	0	0	0	0	
8	0	0	0	0	509	469	0	0	0	0	
9	0	0	0	0	508	467	0	0	0	0	
10	0	0	0	0	505	465	0	0	0	0	
11	0	0	0	0	503	463	0	0	0	0	
12	0	0	0	0	502	462	0	0	0	0	
13	0	0	0	0	500	460	0	0	0	0	
14	0	0	0	0	498	458	0	0	0	0	
15	0	0	0	0	496	456	0	0	0	0	
0	0	0	0	0	495	455	0	0	0	0	
1	0	0	0	0	494	454	0	0	0	0	
2	0	0	0	0	494	454	0	0	0	0	
3	0	0	0	0	494	454	0	0	0	0	
4	0	0	0	0	494	454	0	0	0	0	
5	0	0	0	0	495	455	0	0	0	0	
6	0	0	0	0	496	456	0	0	0	0	
7	0	0	0	0	498	458	0	0	0	0	
8	0	0	0	0	500	460	0	0	0	0	
9	0	0	0	0	502	462	0	0	0	0	
10	0	0	0	0	504	463	0	0	0	0	
11	0	0	0	0	507	465	0	0	0	0	
12	0	0	0	0	508	466	0	0	0	0	
13	0	0	0	0	510	467	0	0	0	0	
14	0	0	0	0	510	466	0	0	0	0	
15	0	0	0	0	511	466	0	0	0	0	
0	0	0	0	0	510	465	0	0	0	0	
1	0	0	0	0	509	463	0	0	0	0	
2	0	0	0	0	507	461	0	0	0	0	
3	0	0	0	0	505	460	0	0	0	0	
4	0	0	0	0	504	458	0	0	0	0	
5	0	0	0	0	502	457	0	0	0	0	
6	0	0	0	0	500	456	0	0	0	0	
7	0	0	0	0	500	456	0	0	0	0	
8	0	0	0	0	500	456	0	0	0	0	
9	0	0	0	0	501	457	0	0	0	0	
10	0	0	0	0	503	459	0	0	0	0	
11	0	0	0	0	504	460	0	0	0	0	
12	0	0	0	0	506	462	0	0	0	0	
13	0	0	0	0	508	464	0	0	0	0	
14	0	0	0	0	509	465	0	0	0	0	
15	0	0	0	0	511	467	0	0	0	0	
0	0	0	0	0	511	467	0	0	0	0	
1	0	0	0	0	512	468	0	0	0	0	
2	0	0	0	0	512	468	0	0	0	0	
3	0	0	0	0	511	468	0	0	0	0	
4	0	0	0	0	511	468	0	0	0	0	
5	0	0	0	0	510	467	0	0	0	0	
6	0	0	0	0	509	467	0	0	0	0	
7	0	0	0	0	508	466	0	0	0	0	
8	0	0	0	0	506	465	0	0	0	0	
9	0	0	0	0	504	464	0	0	0	0	
10	0	0	0	0	501	462	0	0	0	0	
11	0	0	0	0	499	461	0	0	0	0	
12	0	0	0	0	497	459	0	0	0	0	
13	0	0	0	0	494	458	0	0	0	0	
14	0	0	0	0	494	457	0	0	0	0	
15	0	0	0	0	494	458	0	0	0	0	
0	0	0	0	0	494	458	0	0	0	0	
1	0	0	0	0	496	460	0	0	0	0	
2	0	0	0	0	498	462	0	0	0	0	
3	0	0	0	0	501	465	0	0	0	0	
4	0	0	0	0	505	467	0	0	0	0	
5	0	0	0	0	509	470	0	0	0	0	
6	0	0	0	0	512	472	0	0	0	0	
7	0	0	0	0	513	473	0	0	0	0	
8	0	0	0	0	516	474	0	0	0	0	
9	0	0	0	0	516	473	0	0	0	0	
10	0	0	0	0	515	472	0	0	0	0	
11	0	0	0	0	513	469	0	0	0	0	
12	0	0	0	0	511	467	0	0	0	0	
13	0	0	0	0	508	464	0	0	0	0	
14	0	0	0	0	504	460	0	0	0	0	
15	0	0	0	0	500	457	0	0	0	0	
0	0	0	0	0	495	453	0	0	0	0	
1	0	0	0	0	492	450	0	0	0	0	
2	0	0	0	0	489	448	0	0	0	0	
3	0	0	0	0	488	447	0	0	0	0	
4	0	0	0	0	487	447	0	0	0	0	
5	0	0	0	0	488	448	0	0	0	0	
6	0	0	0	0	491	450	0	0	0	0	
7	0	0	0	0	494	453	0	0	0	0	
8	0	0	0	0	499	457	0	0	0	0	
9	0	0	0	0	503	462	0	0	0	0	
10	0	0	0	0	508	466	0	0	0	0	
11	0	0	0	0	513	471	0	0	0	0	
12	0	0	0	0	518	475	0	0	0	0	
13	0	0	0	0	521	477	0	0	0	0	
14	0	0	0	0	523	479	0	0	0	0	
15	0	0	0	0	523	480	0	0	0	0	
0	0	0	0	0	524	480	0	0	0	0	
1	0	0	0	0	522	479	0	0	0	0	
2	0	0	0	0	520	477	0	0	0	0	
3	0	0	0	0	517	475	0	0	0	0	
4	0	0	0	0	514	472	0	0	0	0	
5	0	0	0	0	510	470	0	0	0	0	
6	0	0	0	0	507	468	0	0	0	0	
7	0	0	0	0	504	466	0	0	0	0	
8	0	0	0	0	501	464	0	0	0	0	
9	0	0	0	0	498	462	0	0	0	0	
10	0	0	0	0	497	461	0	0	0	0	
11	0	0	0	0	495	460	0	0	0	0	
12	0	0	0	0	494	458	0	0	0	0	
13	0	0	0	0	494	457	0	0	0	0	
14	0	0	0	0	493	456	0	0	0	0	
15	0	0	0	0	494	456	0	0	0	0	
0	0	0	0	0	495	455	0	0	0	0	
1	0	0	0	0	496	455	0	0	0	0	
2	0	0	0	0	498	456	0	0	0	0	
3	0	0	0	0	499	457	0	0	0	0	
4	0	0	0	0	502	458	0	0	0	0	
5	0	0	0	0	504	459	0	0	0	0	
6	0	0	0	0	505	461	0	0	0	0	
7	0	0	0	0	507	463	0	0	0	0	
8	0	0	0	0	508	463	0	0	0	0	
9	0	0	0	0	508	465	0	0	0	0	
10	0	0	0	0	509	466	0	0	0	0	
11	0	0	0	0	508	466	0	0	0	0	
12	0	0	0	0	508	466	0	0	0	0	
13	0	0	0	0	507	466	0	0	0	0	
14	0	0	0	0	506	465	0	0	0	0	
15	0	0	0	0	505	465	0	0	0	0	
0	0	0	0	0	504	463	0	0	0	0	
1	0	0	0	0	503	462	0	0	0	0	
2	0	0	0	0	502	461	0	0	0	0	
3	0	0	0	0	500	459	0	0	0	0	
4	0	0	0	0	499	457	0	0	0	0	
5	0	0	0	0	497	455	0	0	0	0	
6	0	0	0	0	495	452	0	0	0	0	
7	0	0	0	0	492	449	0	0	0	0	
8	0	0	0	0	490	447	0	0	0	0	
9	0	0	0	0	487	444	0	0	0	0	
10	0	0	0	0	483	440	0	0	0	0	
11	0	0	0	0	480	436	0	0	0	0	
12	0	0	0	0	475	432	0	0	0	0	
13	0	0	0	0	470	428	0	0	0	0	
14	0	0	0	0	464	423	0	0	0	0	
15	0	0	0	0	458	417	0	0	0	0	
0	0	0	0	0	451	412	0	0	0	0	
1	0	0	0	0	445	407	0	0	0	0	
2	0	0	0	0	439	400	0	0	0	0	
3	0	0	0	0	432	395	0	0	0	0	
4	0	0	0	0	427	389	0	0	0	0	
5	0	0	0	0	420	383	0	0	0	0	
6	0	0	0	0	415	377	0	0	0	0	
7	0	0	0	0	408	371	0	0	0	0	
8	0	0	0	0	402	364	0	0	0	0	
9	0	0	0	0	395	356	0	0	0	0	
10	0	0	0	0	387	347	0	0	0	0	
11	0	0	0	0	377	337	0	0	0	0	
12	0	0	0	0	368	327	0	0	0	0	
13	0	0	0	0	357	316	0	0	0	0	
14	0	0	0	0	345	305	0	0	0	0	
15	0	0	0	0	334	294	0	0	0	0	
0	0	0	0	0	323	284	0	0	0	0	
1	0	0	0	0	312	274	0	0	0	0	
2	0	0	0	0	303	266	0	0	0	0	
3	0	0	0	0	296	260	0	0	0	0	
4	0	0	0	0	291	255	0	0	0	0	
5	0	0	0	0	289	254	0	0	0	0	
6	0	0	0	0	291	255	0	0	0	0	
7	0	0	0	0	296	259	0	0	0	0	
8	0	0	0	0	305	267	0	0	0	0	
9	0	0	0	0	318	278	0	0	0	0	
10	0	0	0	0	333	290	0	0	0	0	
11	0	0	0	0	351	305	0	0	0	0	
12	0	0	0	0	371	322	0	0	0	0	
13	0	0	0	0	392	341	0	0	0	0	
14	0	0	0	0	414	359	0	0	0	0	
15	0	0	0	0	435	378	0	0	0	0	
0	0	0	0	0	455	397	0	0	0	0	
1	0	0	0	0	475	415	0	0	0	0	
2	0	0	0	0	492	432	0	0	0	0	
3	0	0	0	0	506	447	0	0	0	0	
4	0	0	0	0	518	461	0	0	0	0	
5	0	0	0	0	528	473	0	0	0	0	
6	0	0	0	0	536	483	0	0	0	0	
7	0	0	0	0	541	491	0	0	0	0	
8	0	0	0	0	543	497	0	0	0	0	
9	0	0	0	0	544	500	0	0	0	0	
10	0	0	0	0	542	502	0	0	0	0	
11	0	0	0	0	540	501	0	0	0	0	
12	0	0	0	0	537	499	0	0	0	0	
13	0	0	0	0	533	495	0	0	0	0	
14	0	0	0	0	528	491	0	0	0	0	
15	0	0	0	0	524	487	0	0	0	0	
0	0	0	0	0	520	482	0	0	0	0	
1	0	0	0	0	517	478	0	0	0	0	
2	0	0	0	0	514	474	0	0	0	0	
3	0	0	0	0	512	472	0	0	0	0	
4	0	0	0	0	511	471	0	0	0	0	
5	0	0	0	0	513	471	0	0	0	0	
6	0	0	0	0	513	471	0	0	0	0	
7	0	0	0	0	514	472	0	0	0	0	
8	0	0	0	0	516	473	0	0	0	0	
9	0	0	0	0	516	475	0	0	0	0	
10	0	0	0	0	519	477	0	0	0	0	
11	0	0	0	0	519	478	0	0	0	0	
12	0	0	0	0	519	479	0	0	0	0	
13	0	0	0	0	519	480	0	0	0	0	
14	0	0	0	0	519	480	0	0	0	0	
15	0	0	0	0	519	480	0	0	0	0	
0	0	0	0	0	519	479	0	0	0	0	
1	0	0	0	0	519	479	0	0	0	0	
2	0	0	0	0	519	479	0	0	0	0	
3	0	0	0	0	519	479	0	0	0	0	
4	0	0	0	0	520	479	0	0	0	0	
5	0	0	0	0	520	479	0	0	0	0	
6	0	0	0	0	521	479	0	0	0	0	
7	0	0	0	0	521	480	0	0	0	0	
8	0	0	0	0	520	480	0	0	0	0	
9	0	0	0	0	521	480	0	0	0	0	
10	0	0	0	0	521	480	0	0	0	0	
11	0	0	0	0	520	480	0	0	0	0	
12	0	0	0	0	521	480	0	0	0	0	
13	0	0	0	0	519	480	0	0	0	0	
14	0	0	0	0	520	480	0	0	0	0	
15	0	0	0	0	519	479	0	0	0	0	
0	0	0	0	0	519	479	0	0	0	0	
1	0	0	0	0	519	478	0	0	0	0	
2	0	0	0	0	517	476	0	0	0	0	
3	0	0	0	0	517	475	0	0	0	0	
4	0	0	0	0	516	473	0	0	0	0	
5	0	0	0	0	515	472	0	0	0	0	
6	0	0	0	0	514	470	0	0	0	0	
7	0	0	0	0	512	468	0	0	0	0	
8	0	0	0	0	512	468	0	0	0	0	
9	0	0	0	0	513	468	0	0	0	0	
10	0	0	0	0	513	469	0	0	0	0	
11	0	0	0	0	515	471	0	0	0	0	
12	0	0	0	0	517	474	0	0	0	0	
13	0	0	0	0	520	477	0	0	0	0	
14	0	0	0	0	523	481	0	0	0	0	
15	0	0	0	0	525	484	0	0	0	0	
0	0	0	0	0	527	487	0	0	0	0	
1	0	0	0	0	528	489	0	0	0	0	
2	0	0	0	0	529	490	0	0	0	0	
3	0	0	0	0	530	491	0	0	0	0	
4	0	0	0	0	529	490	0	0	0	0	
5	0	0	0	0	528	489	0	0	0	0	
6	0	0	0	0	527	487	0	0	0	0	
7	0	0	0	0	526	485	0	0	0	0	
8	0	0	0	0	524	483	0	0	0	0	
9	0	0	0	0	521	480	0	0	0	0	
10	0	0	0	0	520	478	0	0	0	0	
11	0	0	0	0	518	476	0	0	0	0	
12	0	0	0	0	518	475	0	0	0	0	
13	0	0	0	0	518	475	0	0	0	0	
14	0	0	0	0	519	475	0	0	0	0	
15	0	0	0	0	519	476	0	0	0	0	
0	0	0	0	0	521	478	0	0	0	0	
1	0	0	0	0	522	479	0	0	0	0	
2	0	0	0	0	523	480	0	0	0	0	
3	0	0	0	0	524	481	0	0	0	0	
4	0	0	0	0	524	482	0	0	0	0	
5	0	0	0	0	523	482	0	0	0	0	
6	0	0	0	0	523	482	0	0	0	0	
7	0	0	0	0	521	481	0	0	0	0	
8	0	0	0	0	519	480	0	0	0	0	
9	0	0	0	0	519	480	0	0	0	0	
10	0	0	0	0	518	479	0	0	0	0	
11	0	0	0	0	518	478	0	0	0	0	
12	0	0	0	0	517	478	0	0	0	0	
13	0	0	0	0	518	477	0	0	0	0	
14	0	0	0	0	519	478	0	0	0	0	
15	0	0	0	0	519	478	0	0	0	0	
0	0	0	0	0	522	479	0	0	0	0	
1	0	0	0	0	524	480	0	0	0	0	
2	0	0	0	0	525	481	0	0	0	0	
3	0	0	0	0	526	481	0	0	0	0	
4	0	0	0	0	526	482	0	0	0	0	
5	0	0	0	0	527	482	0	0	0	0	
6	0	0	0	0	527	482	0	0	0	0	
7	0	0	0	0	526	481	0	0	0	0	
8	0	0	0	0	524	480	0	0	0	0	
9	0	0	0	0	522	479	0	0	0	0	
10	0	0	0	0	522	478	0	0	0	0	
11	0	0	0	0	519	477	0	0	0	0	
12	0	0	0	0	519	476	0	0	0	0	
13	0	0	0	0	517	475	0	0	0	0	
14	0	0	0	0	515	474	0	0	0	0	
15	0	0	0	0	516	473	0	0	0	0	
0	0	0	0	0	515	473	0	0	0	0	
1	0	0	0	0	515	472	0	0	0	0	
2	0	0	0	0	513	472	0	0	0	0	
3	0	0	0	0	514	472	0	0	0	0	
4	0	0	0	0	514	471	0	0	0	0	
5	0	0	0	0	514	471	0	0	0	0	
6	0	0	0	0	514	470	0	0	0	0	
7	0	0	0	0	515	470	0	0	0	0	
8	0	0	0	0	515	470	0	0	0	0	
9	0	0	0	0	517	472	0	0	0	0	
10	0	0	0	0	518	473	0	0	0	0	
11	0	0	0	0	519	475	0	0	0	0	
12	0	0	0	0	520	476	0	0	0	0	
13	0	0	0	0	521	479	0	0	0	0	
14	0	0	0	0	522	481	0	0	0	0	
15	0	0	0	0	523	483	0	0	0	0	
0	0	0	0	0	523	484	0	0	0	0	
1	0	0	0	0	523	485	0	0	0	0	
2	0	0	0	0	522	486	0	0	0	0	
3	0	0	0	0	521	486	0	0	0	0	
4	0	0	0	0	519	486	0	0	0	0	
5	0	0	0	0	518	484	0	0	0	0	
6	0	0	0	0	515	482	0	0	0	0	
7	0	0	0	0	512	479	0	0	0	0	
8	0	0	0	0	510	475	0	0	0	0	
9	0	0	0	0	507	471	0	0	0	0	
10	0	0	0	0	504	467	0	0	0	0	
11	0	0	0	0	501	463	0	0	0	0	
12	0	0	0	0	498	460	0	0	0	0	
13	0	0	0	0	497	457	0	0	0	0	
14	0	0	0	0	496	456	0	0	0	0	
15	0	0	0	0	496	455	0	0	0	0	
0	0	0	0	0	496	456	0	0	0	0	
1	0	0	0	0	497	458	0	0	0	0	
2	0	0	0	0	500	460	0	0	0	0	
3	0	0	0	0	502	463	0	0	0	0	
4	0	0	0	0	505	467	0	0	0	0	
5	0	0	0	0	508	470	0	0	0	0	
6	0	0	0	0	511	473	0	0	0	0	
7	0	0	0	0	514	476	0	0	0	0	
8	0	0	0	0	517	478	0	0	0	0	
9	0	0	0	0	519	480	0	0	0	0	
10	0	0	0	0	519	480	0	0	0	0	
11	0	0	0	0	519	481	0	0	0	0	
12	0	0	0	0	521	482	0	0	0	0	
13	0	0	0	0	520	481	0	0	0	0	
14	0	0	0	0	520	481	0	0	0	0	
15	0	0	0	0	520	481	0	0	0	0	
0	0	0	0	0	519	481	0	0	0	0	
1	0	0	0	0	519	481	0	0	0	0	
2	0	0	0	0	519	481	0	0	0	0	
3	0	0	0	0	519	481	0	0	0	0	
4	0	0	0	0	518	481	0	0	0	0	
5	0	0	0	0	517	481	0	0	0	0	
6	0	0	0	0	517	481	0	0	0	0	
7	0	0	0	0	516	480	0	0	0	0	
8	0	0	0	0	516	480	0	0	0	0	
9	0	0	0	0	515	480	0	0	0	0	
10	0	0	0	0	515	480	0	0	0	0	
11	0	0	0	0	515	480	0	0	0	0	
12	0	0	0	0	516	480	0	0	0	0	
13	0	0	0	0	517	480	0	0	0	0	
14	0	0	0	0	519	481	0	0	0	0	
15	0	0	0	0	521	482	0	0	0	0	
0	0	0	0	0	524	483	0	0	0	0	
1	0	0	0	0	526	485	0	0	0	0	
2	0	0	0	0	528	486	0	0	0	0	
3	0	0	0	0	531	488	0	0	0	0	
4	0	0	0	0	532	489	0	0	0	0	
5	0	0	0	0	534	492	0	0	0	0	
6	0	0	0	0	536	493	0	0	0	0	
7	0	0	0	0	536	495	0	0	0	0	
8	0	0	0	0	536	496	0	0	0	0	
9	0	0	0	0	534	497	0	0	0	0	
10	0	0	0	0	533	497	0	0	0	0	
11	0	0	0	0	531	496	0	0	0	0	
12	0	0	0	0	528	495	0	0	0	0	
13	0	0	0	0	525	493	0	0	0	0	
14	0	0	0	0	523	492	0	0	0	0	
15	0	0	0	0	520	490	0	0	0	0	
0	0	0	0	0	518	487	0	0	0	0	
1	0	0	0	0	516	485	0	0	0	0	
2	0	0	0	0	515	483	0	0	0	0	
3	0	0	0	0	513	481	0	0	0	0	
4	0	0	0	0	512	479	0	0	0	0	
5	0	0	0	0	512	477	0	0	0	0	
6	0	0	0	0	511	476	0	0	0	0	
7	0	0	0	0	511	474	0	0	0	0	
8	0	0	0	0	511	473	0	0	0	0	
9	0	0	0	0	511	473	0	0	0	0	
10	0	0	0	0	512	473	0	0	0	0	
11	0	0	0	0	512	473	0	0	0	0	
12	0	0	0	0	513	474	0	0	0	0	
13	0	0	0	0	513	475	0	0	0	0	
14	0	0	0	0	515	477	0	0	0	0	
15	0	0	0	0	516	479	0	0	0	0	
0	0	0	0	0	518	481	0	0	0	0	
1	0	0	0	0	519	483	0	0	0	0	
2	0	0	0	0	520	484	0	0	0	0	
3	0	0	0	0	522	485	0	0	0	0	
4	0	0	0	0	523	486	0	0	0	0	
5	0	0	0	0	522	485	0	0	0	0	
6	0	0	0	0	521	483	0	0	0	0	
7	0	0	0	0	520	481	0	0	0	0	
8	0	0	0	0	518	479	0	0	0	0	
9	0	0	0	0	516	476	0	0	0	0	
10	0	0	0	0	514	474	0	0	0	0	
11	0	0	0	0	512	471	0	0	0	0	
12	0	0	0	0	510	469	0	0	0	0	
13	0	0	0	0	509	468	0	0	0	0	
14	0	0	0	0	507	467	0	0	0	0	
15	0	0	0	0	506	467	0	0	0	0	
0	0	0	0	0	506	468	0	0	0	0	
1	0	0	0	0	507	469	0	0	0	0	
2	0	0	0	0	509	471	0	0	0	0	
3	0	0	0	0	510	474	0	0	0	0	
4	0	0	0	0	512	476	0	0	0	0	
5	0	0	0	0	515	478	0	0	0	0	
6	0	0	0	0	516	480	0	0	0	0	
7	0	0	0	0	519	482	0	0	0	0	
8	0	0	0	0	521	483	0	0	0	0	
9	0	0	0	0	523	484	0	0	0	0	
10	0	0	0	0	523	483	0	0	0	0	
11	0	0	0	0	523	483	0	0	0	0	
12	0	0	0	0	522	481	0	0	0	0	
13	0	0	0	0	521	480	0	0	0	0	
14	0	0	0	0	519	477	0	0	0	0	
15	0	0	0	0	516	475	0	0	0	0	
0	0	0	0	0	513	473	0	0	0	0	
1	0	0	0	0	512	471	0	0	0	0	
2	0	0	0	0	510	470	0	0	0	0	
3	0	0	0	0	508	469	0	0	0	0	
4	0	0	0	0	507	468	0	0	0	0	
5	0	0	0	0	505	468	0	0	0	0	
6	0	0	0	0	506	469	0	0	0	0	
7	0	0	0	0	505	469	0	0	0	0	
8	0	0	0	0	505	470	0	0	0	0	
9	0	0	0	0	505	470	0	0	0	0	
10	0	0	0	0	506	471	0	0	0	0	
11	0	0	0	0	509	472	0	0	0	0	
12	0	0	0	0	510	472	0	0	0	0	
13	0	0	0	0	512	473	0	0	0	0	
14	0	0	0	0	514	474	0	0	0	0	
15	0	0	0	0	516	475	0	0	0	0	
0	0	0	0	0	519	476	0	0	0	0	
1	0	0	0	0	521	477	0	0	0	0	
2	0	0	0	0	523	478	0	0	0	0	
3	0	0	0	0	524	479	0	0	0	0	
4	0	0	0	0	523	478	0	0	0	0	
5	0	0	0	0	523	478	0	0	0	0	
6	0	0	0	0	523	478	0	0	0	0	
7	0	0	0	0	521	477	0	0	0	0	
8	0	0	0	0	519	476	0	0	0	0	
9	0	0	0	0	518	476	0	0	0	0	
10	0	0	0	0	516	475	0	0	0	0	
11	0	0	0	0	515	475	0	0	0	0	
12	0	0	0	0	513	474	0	0	0	0	
13	0	0	0	0	511	473	0	0	0	0	
14	0	0	0	0	510	472	0	0	0	0	
15	0	0	0	0	509	472	0	0	0	0	
0	0	0	0	0	508	471	0	0	0	0	
1	0	0	0	0	508	470	0	0	0	0	
2	0	0	0	0	507	469	0	0	0	0	
3	0	0	0	0	508	469	0	0	0	0	
4	0	0	0	0	510	469	0	0	0	0	
5	0	0	0	0	511	470	0	0	0	0	
6	0	0	0	0	513	471	0	0	0	0	
7	0	0	0	0	515	472	0	0	0	0	
8	0	0	0	0	519	475	0	0	0	0	
9	0	0	0	0	521	477	0	0	0	0	
10	0	0	0	0	524	479	0	0	0	0	
11	0	0	0	0	527	481	0	0	0	0	
12	0	0	0	0	527	482	0	0	0	0	
13	0	0	0	0	529	484	0	0	0	0	
14	0	0	0	0	529	484	0	0	0	0	
15	0	0	0	0	529	484	0	0	0	0	
0	0	0	0	0	527	484	0	0	0	0	
1	0	0	0	0	524	483	0	0	0	0	
2	0	0	0	0	522	481	0	0	0	0	
3	0	0	0	0	519	479	0	0	0	0	
4	0	0	0	0	516	476	0	0	0	0	
5	0	0	0	0	513	474	0	0	0	0	
6	0	0	0	0	510	471	0	0	0	0	
7	0	0	0	0	509	469	0	0	0	0	
8	0	0	0	0	507	467	0	0	0	0	
9	0	0	0	0	506	466	0	0	0	0	
10	0	0	0	0	505	464	0	0	0	0	
11	0	0	0	0	505	464	0	0	0	0	
12	0	0	0	0	506	464	0	0	0	0	
13	0	0	0	0	508	465	0	0	0	0	
14	0	0	0	0	510	467	0	0	0	0	
15	0	0	0	0	512	469	0	0	0	0	
0	0	0	0	0	514	471	0	0	0	0	
1	0	0	0	0	517	474	0	0	0	0	
2	0	0	0	0	519	476	0	0	0	0	
3	0	0	0	0	521	478	0	0	0	0	
4	0	0	0	0	522	480	0	0	0	0	
5	0	0	0	0	522	481	0	0	0	0	
6	0	0	0	0	521	480	0	0	0	0	
7	0	0	0	0	520	480	0	0	0	0	
8	0	0	0	0	519	479	0	0	0	0	
9	0	0	0	0	518	477	0	0	0	0	
10	0	0	0	0	516	475	0	0	0	0	
11	0	0	0	0	514	473	0	0	0	0	
12	0	0	0	0	514	472	0	0	0	0	
13	0	0	0	0	513	471	0	0	0	0	
14	0	0	0	0	512	470	0	0	0	0	
15	0	0	0	0	511	468	0	0	0	0	
0	0	0	0	0	511	468	0	0	0	0	
1	0	0	0	0	511	467	0	0	0	0	
2	0	0	0	0	511	467	0	0	0	0	
3	0	0	0	0	511	467	0	0	0	0	
4	0	0	0	0	511	468	0	0	0	0	
5	0	0	0	0	511	468	0	0	0	0	
6	0	0	0	0	511	469	0	0	0	0	
7	0	0	0	0	512	470	0	0	0	0	
8	0	0	0	0	512	471	0	0	0	0	
9	0	0	0	0	512	472	0	0	0	0	
10	0	0	0	0	513	473	0	0	0	0	
11	0	0	0	0	515	474	0	0	0	0	
12	0	0	0	0	516	475	0	0	0	0	
13	0	0	0	0	517	475	0	0	0	0	
14	0	0	0	0	517	475	0	0	0	0	
15	0	0	0	0	516	474	0	0	0	0	
0	0	0	0	0	516	473	0	0	0	0	
1	0	0	0	0	516	472	0	0	0	0	
2	0	0	0	0	515	471	0	0	0	0	
3	0	0	0	0	514	470	0	0	0	0	
4	0	0	0	0	513	470	0	0	0	0	
5	0	0	0	0	514	470	0	0	0	0	
6	0	0	0	0	514	470	0	0	0	0	
7	0	0	0	0	515	471	0	0	0	0	
8	0	0	0	0	515	472	0	0	0	0	
9	0	0	0	0	516	473	0	0	0	0	
10	0	0	0	0	519	475	0	0	0	0	
11	0	0	0	0	520	476	0	0	0	0	
12	0	0	0	0	521	477	0	0	0	0	
13	0	0	0	0	521	478	0	0	0	0	
14	0	0	0	0	522	479	0	0	0	0	
15	0	0	0	0	521	479	0	0	0	0	
0	0	0	0	0	521	478	0	0	0	0	
1	0	0	0	0	519	477	0	0	0	0	
2	0	0	0	0	518	476	0	0	0	0	
3	0	0	0	0	516	474	0	0	0	0	
4	0	0	0	0	515	472	0	0	0	0	
5	0	0	0	0	513	470	0	0	0	0	
6	0	0	0	0	512	468	0	0	0	0	
7	0	0	0	0	510	466	0	0	0	0	
8	0	0	0	0	510	465	0	0	0	0	
9	0	0	0	0	510	464	0	0	0	0	
10	0	0	0	0	510	464	0	0	0	0	
11	0	0	0	0	511	464	0	0	0	0	
12	0	0	0	0	512	465	0	0	0	0	
13	0	0	0	0	513	467	0	0	0	0	
14	0	0	0	0	515	470	0	0	0	0	
15	0	0	0	0	518	472	0	0	0	0	
0	0	0	0	0	519	474	0	0	0	0	
1	0	0	0	0	521	476	0	0	0	0	
2	0	0	0	0	523	479	0	0	0	0	
3	0	0	0	0	524	480	0	0	0	0	
4	0	0	0	0	525	480	0	0	0	0	
5	0	0	0	0	525	480	0	0	0	0	
6	0	0	0	0	524	479	0	0	0	0	
7	0	0	0	0	524	478	0	0	0	0	
8	0	0	0	0	522	476	0	0	0	0	
9	0	0	0	0	520	474	0	0	0	0	
10	0	0	0	0	517	471	0	0	0	0	
11	0	0	0	0	515	469	0	0	0	0	
12	0	0	0	0	512	467	0	0	0	0	
13	0	0	0	0	510	465	0	0	0	0	
14	0	0	0	0	509	464	0	0	0	0	
15	0	0	0	0	508	464	0	0	0	0	
0	0	0	0	0	507	463	0	0	0	0	
1	0	0	0	0	507	465	0	0	0	0	
2	0	0	0	0	508	467	0	0	0	0	
3	0	0	0	0	510	469	0	0	0	0	
4	0	0	0	0	512	471	0	0	0	0	
5	0	0	0	0	514	474	0	0	0	0	
6	0	0	0	0	517	476	0	0	0	0	
7	0	0	0	0	519	479	0	0	0	0	
8	0	0	0	0	522	481	0	0	0	0	
9	0	0	0	0	524	482	0	0	0	0	
10	0	0	0	0	525	483	0	0	0	0	
11	0	0	0	0	525	483	0	0	0	0	
12	0	0	0	0	525	482	0	0	0	0	
13	0	0	0	0	524	480	0	0	0	0	
14	0	0	0	0	522	479	0	0	0	0	
15	0	0	0	0	520	476	0	0	0	0	
0	0	0	0	0	518	474	0	0	0	0	
1	0	0	0	0	515	472	0	0	0	0	
2	0	0	0	0	513	470	0	0	0	0	
3	0	0	0	0	511	468	0	0	0	0	
4	0	0	0	0	510	467	0	0	0	0	
5	0	0	0	0	509	466	0	0	0	0	
6	0	0	0	0	508	466	0	0	0	0	
7	0	0	0	0	508	466	0	0	0	0	
8	0	0	0	0	509	467	0	0	0	0	
9	0	0	0	0	510	467	0	0	0	0	
10	0	0	0	0	511	468	0	0	0	0	
11	0	0	0	0	512	470	0	0	0	0	
12	0	0	0	0	513	470	0	0	0	0	
13	0	0	0	0	515	471	0	0	0	0	
14	0	0	0	0	515	471	0	0	0	0	
15	0	0	0	0	515	471	0	0	0	0	
0	0	0	0	0	516	472	0	0	0	0	
1	0	0	0	0	517	471	0	0	0	0	
2	0	0	0	0	516	470	0	0	0	0	
3	0	0	0	0	516	469	0	0	0	0	
4	0	0	0	0	516	470	0	0	0	0	
5	0	0	0	0	516	469	0	0	0	0	
6	0	0	0	0	515	469	0	0	0	0	
7	0	0	0	0	515	468	0	0	0	0	
8	0	0	0	0	514	469	0	0	0	0	
9	0	0	0	0	513	469	0	0	0	0	
10	0	0	0	0	513	470	0	0	0	0	
11	0	0	0	0	513	470	0	0	0	0	
12	0	0	0	0	513	470	0	0	0	0	
13	0	0	0	0	513	471	0	0	0	0	
14	0	0	0	0	513	472	0	0	0	0	
15	0	0	0	0	515	473	0	0	0	0	
0	0	0	0	0	516	474	0	0	0	0	
1	0	0	0	0	518	475	0	0	0	0	
2	0	0	0	0	518	475	0	0	0	0	
3	0	0	0	0	520	476	0	0	0	0	
4	0	0	0	0	523	478	0	0	0	0	
5	0	0	0	0	525	479	0	0	0	0	
6	0	0	0	0	527	480	0	0	0	0	
7	0	0	0	0	528	481	0	0	0	0	
8	0	0	0	0	529	482	0	0	0	0	
9	0	0	0	0	530	483	0	0	0	0	
10	0	0	0	0	530	483	0	0	0	0	
11	0	0	0	0	530	483	0	0	0	0	
12	0	0	0	0	528	484	0	0	0	0	
13	0	0	0	0	527	484	0	0	0	0	
14	0	0	0	0	526	483	0	0	0	0	
15	0	0	0	0	523	482	0	0	0	0	
0	0	0	0	0	521	481	0	0	0	0	
1	0	0	0	0	518	480	0	0	0	0	
2	0	0	0	0	515	478	0	0	0	0	
3	0	0	0	0	513	476	0	0	0	0	
4	0	0	0	0	512	473	0	0	0	0	
5	0	0	0	0	510	472	0	0	0	0	
6	0	0	0	0	509	470	0	0	0	0	
7	0	0	0	0	508	468	0	0	0	0	
8	0	0	0	0	509	467	0	0	0	0	
9	0	0	0	0	509	466	0	0	0	0	
10	0	0	0	0	511	466	0	0	0	0	
11	0	0	0	0	512	467	0	0	0	0	
12	0	0	0	0	513	468	0	0	0	0	
13	0	0	0	0	516	471	0	0	0	0	
14	0	0	0	0	519	473	0	0	0	0	
15	0	0	0	0	521	476	0	0	0	0	
0	0	0	0	0	524	479	0	0	0	0	
1	0	0	0	0	526	483	0	0	0	0	
2	0	0	0	0	529	486	0	0	0	0	
3	0	0	0	0	530	488	0	0	0	0	
4	0	0	0	0	531	490	0	0	0	0	
5	0	0	0	0	531	491	0	0	0	0	
6	0	0	0	0	531	492	0	0	0	0	
7	0	0	0	0	531	492	0	0	0	0	
8	0	0	0	0	531	493	0	0	0	0	
9	0	0	0	0	531	493	0	0	0	0	
10	0	0	0	0	531	493	0	0	0	0	
11	0	0	0	0	532	494	0	0	0	0	
12	0	0	0	0	534	496	0	0	0	0	
13	0	0	0	0	535	496	0	0	0	0	
14	0	0	0	0	537	497	0	0	0	0	
15	0	0	0	0	538	497	0	0	0	0	
0	0	0	0	0	539	497	0	0	0	0	
1	0	0	0	0	540	497	0	0	0	0	
2	0	0	0	0	540	496	0	0	0	0	
3	0	0	0	0	538	495	0	0	0	0	
4	0	0	0	0	537	493	0	0	0	0	
5	0	0	0	0	533	490	0	0	0	0	
6	0	0	0	0	531	488	0	0	0	0	
7	0	0	0	0	527	485	0	0	0	0	
8	0	0	0	0	524	483	0	0	0	0	
9	0	0	0	0	521	480	0	0	0	0	
10	0	0	0	0	518	478	0	0	0	0	
11	0	0	0	0	516	477	0	0	0	0	
12	0	0	0	0	515	477	0	0	0	0	
13	0	0	0	0	514	476	0	0	0	0	
14	0	0	0	0	513	476	0	0	0	0	
15	0	0	0	0	514	476	0	0	0	0	
0	0	0	0	0	515	477	0	0	0	0	
1	0	0	0	0	517	478	0	0	0	0	
2	0	0	0	0	519	478	0	0	0	0	
3	0	0	0	0	520	479	0	0	0	0	
4	0	0	0	0	521	479	0	0	0	0	
5	0	0	0	0	523	480	0	0	0	0	
6	0	0	0	0	523	480	0	0	0	0	
7	0	0	0	0	523	479	0	0	0	0	
8	0	0	0	0	523	479	0	0	0	0	
9	0	0	0	0	523	479	0	0	0	0	
10	0	0	0	0	522	479	0	0	0	0	
11	0	0	0	0	520	479	0	0	0	0	
12	0	0	0	0	519	478	0	0	0	0	
13	0	0	0	0	519	478	0	0	0	0	
14	0	0	0	0	518	478	0	0	0	0	
15	0	0	0	0	518	478	0	0	0	0	
0	0	0	0	0	518	478	0	0	0	0	
1	0	0	0	0	519	478	0	0	0	0	
2	0	0	0	0	519	479	0	0	0	0	
3	0	0	0	0	519	479	0	0	0	0	
4	0	0	0	0	522	479	0	0	0	0	
5	0	0	0	0	524	480	0	0	0	0	
6	0	0	0	0	525	480	0	0	0	0	
7	0	0	0	0	527	481	0	0	0	0	
8	0	0	0	0	528	482	0	0	0	0	
9	0	0	0	0	529	483	0	0	0	0	
10	0	0	0	0	530	483	0	0	0	0	
11	0	0	0	0	530	483	0	0	0	0	
12	0	0	0	0	529	483	0	0	0	0	
13	0	0	0	0	529	483	0	0	0	0	
14	0	0	0	0	528	483	0	0	0	0	
15	0	0	0	0	527	483	0	0	0	0	
0	0	0	0	0	527	483	0	0	0	0	
1	0	0	0	0	526	482	0	0	0	0	
2	0	0	0	0	525	483	0	0	0	0	
3	0	0	0	0	525	483	0	0	0	0	
4	0	0	0	0	525	483	0	0	0	0	
5	0	0	0	0	524	483	0	0	0	0	
6	0	0	0	0	524	482	0	0	0	0	
7	0	0	0	0	524	482	0	0	0	0	
8	0	0	0	0	524	482	0	0	0	0	
9	0	0	0	0	523	481	0	0	0	0	
10	0	0	0	0	523	480	0	0	0	0	
11	0	0	0	0	523	480	0	0	0	0	
12	0	0	0	0	521	479	0	0	0	0	
13	0	0	0	0	522	479	0	0	0	0	
14	0	0	0	0	521	479	0	0	0	0	
15	0	0	0	0	521	479	0	0	0	0	
0	0	0	0	0	521	479	0	0	0	0	
1	0	0	0	0	521	479	0	0	0	0	
2	0	0	0	0	521	480	0	0	0	0	
3	0	0	0	0	521	480	0	0	0	0	
4	0	0	0	0	522	481	0	0	0	0	
5	0	0	0	0	523	481	0	0	0	0	
6	0	0	0	0	524	482	0	0	0	0	
7	0	0	0	0	526	483	0	0	0	0	
8	0	0	0	0	527	483	0	0	0	0	
9	0	0	0	0	529	484	0	0	0	0	
10	0	0	0	0	530	485	0	0	0	0	
11	0	0	0	0	531	486	0	0	0	0	
12	0	0	0	0	533	487	0	0	0	0	
13	0	0	0	0	535	488	0	0	0	0	
14	0	0	0	0	536	489	0	0	0	0	
15	0	0	0	0	537	490	0	0	0	0	
0	0	0	0	0	537	491	0	0	0	0	
1	0	0	0	0	539	492	0	0	0	0	
2	0	0	0	0	539	493	0	0	0	0	
3	0	0	0	0	539	494	0	0	0	0	
4	0	0	0	0	539	494	0	0	0	0	
5	0	0	0	0	537	494	0	0	0	0	
6	0	0	0	0	538	495	0	0	0	0	
7	0	0	0	0	538	495	0	0	0	0	
8	0	0	0	0	538	496	0	0	0	0	
9	0	0	0	0	538	496	0	0	0	0	
10	0	0	0	0	538	497	0	0	0	0	
11	0	0	0	0	540	498	0	0	0	0	
12	0	0	0	0	540	499	0	0	0	0	
13	0	0	0	0	541	499	0	0	0	0	
14	0	0	0	0	540	499	0	0	0	0	
15	0	0	0	0	540	498	0	0	0	0	
0	0	0	0	0	539	497	0	0	0	0	
1	0	0	0	0	536	495	0	0	0	0	
2	0	0	0	0	534	492	0	0	0	0	
3	0	0	0	0	530	488	0	0	0	0	
4	0	0	0	0	524	483	0	0	0	0	
5	0	0	0	0	519	478	0	0	0	0	
6	0	0	0	0	512	472	0	0	0	0	
7	0	0	0	0	505	465	0	0	0	0	
8	0	0	0	0	497	457	0	0	0	0	
9	0	0	0	0	488	450	0	0	0	0	
10	0	0	0	0	479	441	0	0	0	0	
11	0	0	0	0	470	433	0	0	0	0	
12	0	0	0	0	461	424	0	0	0	0	
13	0	0	0	0	452	415	0	0	0	0	
14	0	0	0	0	443	406	0	0	0	0	
15	0	0	0	0	434	397	0	0	0	0	
0	0	0	0	0	426	388	0	0	0	0	
1	0	0	0	0	418	379	0	0	0	0	
2	0	0	0	0	410	369	0	0	0	0	
3	0	0	0	0	401	359	0	0	0	0	
4	0	0	0	0	393	351	0	0	0	0	
5	0	0	0	0	385	341	0	0	0	0	
6	0	0	0	0	377	332	0	0	0	0	
7	0	0	0	0	369	323	0	0	0	0	
8	0	0	0	0	361	314	0	0	0	0	
9	0	0	0	0	354	307	0	0	0	0	
10	0	0	0	0	349	302	0	0	0	0	
11	0	0	0	0	345	298	0	0	0	0	
12	0	0	0	0	344	297	0	0	0	0	
13	0	0	0	0	345	299	0	0	0	0	
14	0	0	0	0	350	304	0	0	0	0	
15	0	0	0	0	358	311	0	0	0	0	
0	0	0	0	0	368	321	0	0	0	0	
1	0	0	0	0	381	332	0	0	0	0	
2	0	0	0	0	396	346	0	0	0	0	
3	0	0	0	0	413	362	0	0	0	0	
4	0	0	0	0	432	379	0	0	0	0	
5	0	0	0	0	450	396	0	0	0	0	
6	0	0	0	0	470	412	0	0	0	0	
7	0	0	0	0	488	429	0	0	0	0	
8	0	0	0	0	505	445	0	0	0	0	
9	0	0	0	0	521	460	0	0	0	0	
10	0	0	0	0	536	473	0	0	0	0	
11	0	0	0	0	547	486	0	0	0	0	
12	0	0	0	0	556	496	0	0	0	0	
13	0	0	0	0	565	506	0	0	0	0	
14	0	0	0	0	571	514	0	0	0	0	
15	0	0	0	0	575	519	0	0	0	0	
0	0	0	0	0	577	524	0	0	0	0	
1	0	0	0	0	578	527	0	0	0	0	
2	0	0	0	0	579	530	0	0	0	0	
3	0	0	0	0	577	531	0	0	0	0	
4	0	0	0	0	575	531	0	0	0	0	
5	0	0	0	0	572	529	0	0	0	0	
6	0	0	0	0	568	527	0	0	0	0	
7	0	0	0	0	564	524	0	0	0	0	
8	0	0	0	0	560	521	0	0	0	0	
9	0	0	0	0	558	518	0	0	0	0	
10	0	0	0	0	554	514	0	0	0	0	
11	0	0	0	0	551	511	0	0	0	0	
12	0	0	0	0	549	508	0	0	0	0	
13	0	0	0	0	547	505	0	0	0	0	
14	0	0	0	0	545	503	0	0	0	0	
15	0	0	0	0	543	500	0	0	0	0	
0	0	0	0	0	543	500	0	0	0	0	
1	0	0	0	0	544	499	0	0	0	0	
2	0	0	0	0	545	500	0	0	0	0	
3	0	0	0	0	547	502	0	0	0	0	
4	0	0	0	0	549	504	0	0	0	0	
5	0	0	0	0	552	507	0	0	0	0	
6	0	0	0	0	555	510	0	0	0	0	
7	0	0	0	0	559	513	0	0	0	0	
8	0	0	0	0	563	517	0	0	0	0	
9	0	0	0	0	566	520	0	0	0	0	
10	0	0	0	0	570	524	0	0	0	0	
11	0	0	0	0	573	526	0	0	0	0	
12	0	0	0	0	575	528	0	0	0	0	
13	0	0	0	0	577	529	0	0	0	0	
14	0	0	0	0	578	530	0	0	0	0	
15	0	0	0	0	579	531	0	0	0	0	
0	0	0	0	0	579	531	0	0	0	0	
1	0	0	0	0	578	529	0	0	0	0	
2	0	0	0	0	576	528	0	0	0	0	
3	0	0	0	0	575	526	0	0	0	0	
4	0	0	0	0	572	524	0	0	0	0	
5	0	0	0	0	570	521	0	0	0	0	
6	0	0	0	0	568	519	0	0	0	0	
7	0	0	0	0	565	518	0	0	0	0	
8	0	0	0	0	563	516	0	0	0	0	
9	0	0	0	0	562	515	0	0	0	0	
10	0	0	0	0	561	515	0	0	0	0	
11	0	0	0	0	561	515	0	0	0	0	
12	0	0	0	0	561	515	0	0	0	0	
13	0	0	0	0	562	515	0	0	0	0	
14	0	0	0	0	564	515	0	0	0	0	
15	0	0	0	0	566	516	0	0	0	0	
0	0	0	0	0	568	516	0	0	0	0	
1	0	0	0	0	569	515	0	0	0	0	
2	0	0	0	0	570	515	0	0	0	0	
3	0	0	0	0	571	514	0	0	0	0	
4	0	0	0	0	572	513	0	0	0	0	
5	0	0	0	0	571	512	0	0	0	0	
6	0	0	0	0	571	511	0	0	0	0	
7	0	0	0	0	570	510	0	0	0	0	
8	0	0	0	0	569	509	0	0	0	0	
9	0	0	0	0	568	509	0	0	0	0	
10	0	0	0	0	568	509	0	0	0	0	
11	0	0	0	0	568	509	0	0	0	0	
12	0	0	0	0	567	509	0	0	0	0	
13	0	0	0	0	567	510	0	0	0	0	
14	0	0	0	0	567	510	0	0	0	0	
15	0	0	0	0	567	510	0	0	0	0	
0	0	0	0	0	567	509	0	0	0	0	
1	0	0	0	0	566	508	0	0	0	0	
2	0	0	0	0	567	507	0	0	0	0	
3	0	0	0	0	566	506	0	0	0	0	
4	0	0	0	0	566	505	0	0	0	0	
5	0	0	0	0	566	504	0	0	0	0	
6	0	0	0	0	566	502	0	0	0	0	
7	0	0	0	0	567	502	0	0	0	0	
8	0	0	0	0	568	502	0	0	0	0	
9	0	0	0	0	570	503	0	0	0	0	
10	0	0	0	0	572	504	0	0	0	0	
11	0	0	0	0	574	505	0	0	0	0	
12	0	0	0	0	577	507	0	0	0	0	
13	0	0	0	0	579	508	0	0	0	0	
14	0	0	0	0	581	509	0	0	0	0	
15	0	0	0	0	583	510	0	0	0	0	
0	0	0	0	0	583	509	0	0	0	0	
1	0	0	0	0	582	508	0	0	0	0	
2	0	0	0	0	582	508	0	0	0	0	
3	0	0	0	0	580	506	0	0	0	0	
4	0	0	0	0	579	504	0	0	0	0	
5	0	0	0	0	577	502	0	0	0	0	
6	0	0	0	0	575	500	0	0	0	0	
7	0	0	0	0	574	499	0	0	0	0	
8	0	0	0	0	572	497	0	0	0	0	
9	0	0	0	0	571	496	0	0	0	0	
10	0	0	0	0	570	495	0	0	0	0	
11	0	0	0	0	570	494	0	0	0	0	
12	0	0	0	0	570	493	0	0	0	0	
13	0	0	0	0	570	493	0	0	0	0	
14	0	0	0	0	571	493	0	0	0	0	
15	0	0	0	0	572	493	0	0	0	0	
0	0	0	0	0	573	494	0	0	0	0	
1	0	0	0	0	575	494	0	0	0	0	
2	0	0	0	0	577	495	0	0	0	0	
3	0	0	0	0	579	496	0	0	0	0	
4	0	0	0	0	580	497	0	0	0	0	
5	0	0	0	0	581	497	0	0	0	0	
6	0	0	0	0	583	499	0	0	0	0	
7	0	0	0	0	583	499	0	0	0	0	
8	0	0	0	0	583	499	0	0	0	0	
9	0	0	0	0	582	498	0	0	0	0	
10	0	0	0	0	581	498	0	0	0	0	
11	0	0	0	0	579	496	0	0	0	0	
12	0	0	0	0	576	493	0	0	0	0	
13	0	0	0	0	573	489	0	0	0	0	
14	0	0	0	0	568	484	0	0	0	0	
15	0	0	0	0	564	479	0	0	0	0	
0	0	0	0	0	560	474	0	0	0	0	
1	0	0	0	0	556	470	0	0	0	0	
2	0	0	0	0	553	465	0	0	0	0	
3	0	0	0	0	550	463	0	0	0	0	
4	0	0	0	0	550	461	0	0	0	0	
5	0	0	0	0	551	462	0	0	0	0	
6	0	0	0	0	552	463	0	0	0	0	
7	0	0	0	0	555	465	0	0	0	0	
8	0	0	0	0	557	467	0	0	0	0	
9	0	0	0	0	560	471	0	0	0	0	
10	0	0	0	0	562	474	0	0	0	0	
11	0	0	0	0	563	476	0	0	0	0	
12	0	0	0	0	564	479	0	0	0	0	
13	0	0	0	0	566	481	0	0	0	0	
14	0	0	0	0	566	482	0	0	0	0	
15	0	0	0	0	566	483	0	0	0	0	
0	0	0	0	0	565	482	0	0	0	0	
1	0	0	0	0	565	482	0	0	0	0	
2	0	0	0	0	565	481	0	0	0	0	
3	0	0	0	0	565	481	0	0	0	0	
4	0	0	0	0	568	481	0	0	0	0	
5	0	0	0	0	569	482	0	0	0	0	
6	0	0	0	0	572	483	0	0	0	0	
7	0	0	0	0	575	484	0	0	0	0	
8	0	0	0	0	577	486	0	0	0	0	
9	0	0	0	0	579	488	0	0	0	0	
10	0	0	0	0	582	490	0	0	0	0	
11	0	0	0	0	583	492	0	0	0	0	
12	0	0	0	0	583	493	0	0	0	0	
13	0	0	0	0	583	494	0	0	0	0	
14	0	0	0	0	583	495	0	0	0	0	
15	0	0	0	0	582	496	0	0	0	0	
0	0	0	0	0	580	496	0	0	0	0	
1	0	0	0	0	577	496	0	0	0	0	
2	0	0	0	0	575	495	0	0	0	0	
3	0	0	0	0	574	494	0	0	0	0	
4	0	0	0	0	571	492	0	0	0	0	
5	0	0	0	0	568	489	0	0	0	0	
6	0	0	0	0	566	487	0	0	0	0	
7	0	0	0	0	563	484	0	0	0	0	
8	0	0	0	0	562	482	0	0	0	0	
9	0	0	0	0	560	479	0	0	0	0	
10	0	0	0	0	559	477	0	0	0	0	
11	0	0	0	0	558	475	0	0	0	0	
12	0	0	0	0	557	474	0	0	0	0	
13	0	0	0	0	558	474	0	0	0	0	
14	0	0	0	0	558	474	0	0	0	0	
15	0	0	0	0	559	475	0	0	0	0	
0	0	0	0	0	559	476	0	0	0	0	
1	0	0	0	0	560	476	0	0	0	0	
2	0	0	0	0	561	478	0	0	0	0	
3	0	0	0	0	562	480	0	0	0	0	
4	0	0	0	0	563	481	0	0	0	0	
5	0	0	0	0	563	481	0	0	0	0	
6	0	0	0	0	563	482	0	0	0	0	
7	0	0	0	0	563	483	0	0	0	0	
8	0	0	0	0	563	483	0	0	0	0	
9	0	0	0	0	562	483	0	0	0	0	
10	0	0	0	0	562	483	0	0	0	0	
11	0	0	0	0	561	483	0	0	0	0	
12	0	0	0	0	560	483	0	0	0	0	
13	0	0	0	0	559	483	0	0	0	0	
14	0	0	0	0	558	482	0	0	0	0	
15	0	0	0	0	557	482	0	0	0	0	
0	0	0	0	0	556	481	0	0	0	0	
1	0	0	0	0	556	482	0	0	0	0	
2	0	0	0	0	556	483	0	0	0	0	
3	0	0	0	0	557	484	0	0	0	0	
4	0	0	0	0	558	486	0	0	0	0	
5	0	0	0	0	559	488	0	0	0	0	
6	0	0	0	0	562	492	0	0	0	0	
7	0	0	0	0	565	494	0	0	0	0	
8	0	0	0	0	569	498	0	0	0	0	
9	0	0	0	0	572	500	0	0	0	0	
10	0	0	0	0	574	503	0	0	0	0	
11	0	0	0	0	578	505	0	0	0	0	
12	0	0	0	0	580	507	0	0	0	0	
13	0	0	0	0	582	507	0	0	0	0	
14	0	0	0	0	582	506	0	0	0	0	
15	0	0	0	0	582	505	0	0	0	0	
0	0	0	0	0	580	504	0	0	0	0	
1	0	0	0	0	579	502	0	0	0	0	
2	0	0	0	0	576	500	0	0	0	0	
3	0	0	0	0	573	497	0	0	0	0	
4	0	0	0	0	570	495	0	0	0	0	
5	0	0	0	0	568	494	0	0	0	0	
6	0	0	0	0	566	493	0	0	0	0	
7	0	0	0	0	564	492	0	0	0	0	
8	0	0	0	0	563	492	0	0	0	0	
9	0	0	0	0	563	493	0	0	0	0	
10	0	0	0	0	564	495	0	0	0	0	
11	0	0	0	0	566	496	0	0	0	0	
12	0	0	0	0	568	499	0	0	0	0	
13	0	0	0	0	571	502	0	0	0	0	
14	0	0	0	0	573	504	0	0	0	0	
15	0	0	0	0	577	507	0	0	0	0	
0	0	0	0	0	579	508	0	0	0	0	
1	0	0	0	0	582	510	0	0	0	0	
2	0	0	0	0	583	511	0	0	0	0	
3	0	0	0	0	584	511	0	0	0	0	
4	0	0	0	0	585	511	0	0	0	0	
5	0	0	0	0	584	510	0	0	0	0	
6	0	0	0	0	583	509	0	0	0	0	
7	0	0	0	0	582	508	0	0	0	0	
8	0	0	0	0	580	506	0	0	0	0	
9	0	0	0	0	578	505	0	0	0	0	
10	0	0	0	0	576	504	0	0	0	0	
11	0	0	0	0	573	504	0	0	0	0	
12	0	0	0	0	572	503	0	0	0	0	
13	0	0	0	0	568	502	0	0	0	0	
14	0	0	0	0	568	503	0	0	0	0	
15	0	0	0	0	565	502	0	0	0	0	
0	0	0	0	0	564	503	0	0	0	0	
1	0	0	0	0	564	503	0	0	0	0	
2	0	0	0	0	563	503	0	0	0	0	
3	0	0	0	0	564	503	0	0	0	0	
4	0	0	0	0	564	503	0	0	0	0	
5	0	0	0	0	565	503	0	0	0	0	
6	0	0	0	0	566	502	0	0	0	0	
7	0	0	0	0	567	502	0	0	0	0	
8	0	0	0	0	568	501	0	0	0	0	
9	0	0	0	0	569	500	0	0	0	0	
10	0	0	0	0	569	500	0	0	0	0	
11	0	0	0	0	570	499	0	0	0	0	
12	0	0	0	0	570	499	0	0	0	0	
13	0	0	0	0	571	499	0	0	0	0	
14	0	0	0	0	571	499	0	0	0	0	
15	0	0	0	0	570	500	0	0	0	0	
0	0	0	0	0	569	500	0	0	0	0	
1	0	0	0	0	568	499	0	0	0	0	
2	0	0	0	0	566	499	0	0	0	0	
3	0	0	0	0	564	497	0	0	0	0	
4	0	0	0	0	560	496	0	0	0	0	
5	0	0	0	0	558	493	0	0	0	0	
6	0	0	0	0	554	490	0	0	0	0	
7	0	0	0	0	552	487	0	0	0	0	
8	0	0	0	0	550	485	0	0	0	0	
9	0	0	0	0	549	484	0	0	0	0	
10	0	0	0	0	549	483	0	0	0	0	
11	0	0	0	0	550	483	0	0	0	0	
12	0	0	0	0	553	485	0	0	0	0	
13	0	0	0	0	558	487	0	0	0	0	
14	0	0	0	0	563	491	0	0	0	0	
15	0	0	0	0	568	495	0	0	0	0	
0	0	0	0	0	574	500	0	0	0	0	
1	0	0	0	0	580	504	0	0	0	0	
2	0	0	0	0	585	509	0	0	0	0	
3	0	0	0	0	590	513	0	0	0	0	
4	0	0	0	0	593	516	0	0	0	0	
5	0	0	0	0	595	519	0	0	0	0	
6	0	0	0	0	596	521	0	0	0	0	
7	0	0	0	0	595	522	0	0	0	0	
8	0	0	0	0	593	521	0	0	0	0	
9	0	0	0	0	590	520	0	0	0	0	
10	0	0	0	0	586	518	0	0	0	0	
11	0	0	0	0	581	515	0	0	0	0	
12	0	0	0	0	575	510	0	0	0	0	
13	0	0	0	0	570	506	0	0	0	0	
14	0	0	0	0	564	501	0	0	0	0	
15	0	0	0	0	559	496	0	0	0	0	
0	0	0	0	0	556	492	0	0	0	0	
1	0	0	0	0	552	488	0	0	0	0	
2	0	0	0	0	551	484	0	0	0	0	
3	0	0	0	0	549	481	0	0	0	0	
4	0	0	0	0	549	480	0	0	0	0	
5	0	0	0	0	551	480	0	0	0	0	
6	0	0	0	0	552	480	0	0	0	0	
7	0	0	0	0	554	481	0	0	0	0	
8	0	0	0	0	557	483	0	0	0	0	
9	0	0	0	0	559	485	0	0	0	0	
10	0	0	0	0	562	487	0	0	0	0	
11	0	0	0	0	564	490	0	0	0	0	
12	0	0	0	0	567	492	0	0	0	0	
13	0	0	0	0	569	495	0	0	0	0	
14	0	0	0	0	570	497	0	0	0	0	
15	0	0	0	0	572	498	0	0	0	0	
0	0	0	0	0	572	498	0	0	0	0	
1	0	0	0	0	573	498	0	0	0	0	
2	0	0	0	0	572	498	0	0	0	0	
3	0	0	0	0	571	497	0	0	0	0	
4	0	0	0	0	570	496	0	0	0	0	
5	0	0	0	0	568	495	0	0	0	0	
6	0	0	0	0	567	494	0	0	0	0	
7	0	0	0	0	564	493	0	0	0	0	
8	0	0	0	0	562	493	0	0	0	0	
9	0	0	0	0	561	492	0	0	0	0	
10	0	0	0	0	559	491	0	0	0	0	
11	0	0	0	0	558	492	0	0	0	0	
12	0	0	0	0	558	491	0	0	0	0	
13	0	0	0	0	558	492	0	0	0	0	
14	0	0	0	0	558	492	0	0	0	0	
15	0	0	0	0	559	492	0	0	0	0	
0	0	0	0	0	560	492	0	0	0	0	
1	0	0	0	0	561	492	0	0	0	0	
2	0	0	0	0	562	492	0	0	0	0	
3	0	0	0	0	565	492	0	0	0	0	
4	0	0	0	0	566	492	0	0	0	0	
5	0	0	0	0	567	492	0	0	0	0	
6	0	0	0	0	567	491	0	0	0	0	
7	0	0	0	0	567	490	0	0	0	0	
8	0	0	0	0	566	489	0	0	0	0	
9	0	0	0	0	565	489	0	0	0	0	
10	0	0	0	0	563	487	0	0	0	0	
11	0	0	0	0	561	486	0	0	0	0	
12	0	0	0	0	558	484	0	0	0	0	
13	0	0	0	0	556	483	0	0	0	0	
14	0	0	0	0	554	482	0	0	0	0	
15	0	0	0	0	552	482	0	0	0	0	
0	0	0	0	0	551	482	0	0	0	0	
1	0	0	0	0	550	482	0	0	0	0	
2	0	0	0	0	550	483	0	0	0	0	
3	0	0	0	0	551	485	0	0	0	0	
4	0	0	0	0	553	487	0	0	0	0	
5	0	0	0	0	555	487	0	0	0	0	
6	0	0	0	0	557	489	0	0	0	0	
7	0	0	0	0	560	491	0	0	0	0	
8	0	0	0	0	563	493	0	0	0	0	
9	0	0	0	0	566	494	0	0	0	0	
10	0	0	0	0	569	495	0	0	0	0	
11	0	0	0	0	571	496	0	0	0	0	
12	0	0	0	0	572	497	0	0	0	0	
13	0	0	0	0	572	496	0	0	0	0	
14	0	0	0	0	571	496	0	0	0	0	
15	0	0	0	0	569	495	0	0	0	0	
0	0	0	0	0	566	494	0	0	0	0	
1	0	0	0	0	564	492	0	0	0	0	
2	0	0	0	0	560	491	0	0	0	0	
3	0	0	0	0	558	489	0	0	0	0	
4	0	0	0	0	556	488	0	0	0	0	
5	0	0	0	0	553	487	0	0	0	0	
6	0	0	0	0	553	488	0	0	0	0	
7	0	0	0	0	553	488	0	0	0	0	
8	0	0	0	0	553	488	0	0	0	0	
9	0	0	0	0	553	489	0	0	0	0	
10	0	0	0	0	553	488	0	0	0	0	
11	0	0	0	0	555	488	0	0	0	0	
12	0	0	0	0	554	487	0	0	0	0	
13	0	0	0	0	553	485	0	0	0	0	
14	0	0	0	0	552	483	0	0	0	0	
15	0	0	0	0	551	481	0	0	0	0	
0	0	0	0	0	550	480	0	0	0	0	
1	0	0	0	0	549	479	0	0	0	0	
2	0	0	0	0	549	478	0	0	0	0	
3	0	0	0	0	550	479	0	0	0	0	
4	0	0	0	0	551	481	0	0	0	0	
5	0	0	0	0	555	484	0	0	0	0	
6	0	0	0	0	559	488	0	0	0	0	
7	0	0	0	0	563	492	0	0	0	0	
8	0	0	0	0	566	496	0	0	0	0	
9	0	0	0	0	569	499	0	0	0	0	
10	0	0	0	0	572	503	0	0	0	0	
11	0	0	0	0	575	505	0	0	0	0	
12	0	0	0	0	576	507	0	0	0	0	
13	0	0	0	0	576	508	0	0	0	0	
14	0	0	0	0	577	508	0	0	0	0	
15	0	0	0	0	576	507	0	0	0	0	
0	0	0	0	0	574	505	0	0	0	0	
1	0	0	0	0	572	503	0	0	0	0	
2	0	0	0	0	569	499	0	0	0	0	
3	0	0	0	0	566	497	0	0	0	0	
4	0	0	0	0	564	494	0	0	0	0	
5	0	0	0	0	561	491	0	0	0	0	
6	0	0	0	0	559	488	0	0	0	0	
7	0	0	0	0	557	486	0	0	0	0	
8	0	0	0	0	556	484	0	0	0	0	
9	0	0	0	0	556	483	0	0	0	0	
10	0	0	0	0	556	483	0	0	0	0	
11	0	0	0	0	556	483	0	0	0	0	
12	0	0	0	0	557	484	0	0	0	0	
13	0	0	0	0	558	485	0	0	0	0	
14	0	0	0	0	560	486	0	0	0	0	
15	0	0	0	0	561	487	0	0	0	0	
0	0	0	0	0	562	488	0	0	0	0	
1	0	0	0	0	562	489	0	0	0	0	
2	0	0	0	0	563	491	0	0	0	0	
3	0	0	0	0	565	492	0	0	0	0	
4	0	0	0	0	565	492	0	0	0	0	
5	0	0	0	0	566	493	0	0	0	0	
6	0	0	0	0	566	493	0	0	0	0	
7	0	0	0	0	566	494	0	0	0	0	
8	0	0	0	0	566	493	0	0	0	0	
9	0	0	0	0	566	493	0	0	0	0	
10	0	0	0	0	566	492	0	0	0	0	
11	0	0	0	0	565	491	0	0	0	0	
12	0	0	0	0	564	491	0	0	0	0	
13	0	0	0	0	564	490	0	0	0	0	
14	0	0	0	0	564	489	0	0	0	0	
15	0	0	0	0	563	489	0	0	0	0	
0	0	0	0	0	562	488	0	0	0	0	
1	0	0	0	0	561	487	0	0	0	0	
2	0	0	0	0	561	487	0	0	0	0	
3	0	0	0	0	560	486	0	0	0	0	
4	0	0	0	0	558	484	0	0	0	0	
5	0	0	0	0	557	482	0	0	0	0	
6	0	0	0	0	556	481	0	0	0	0	
7	0	0	0	0	555	480	0	0	0	0	
8	0	0	0	0	555	479	0	0	0	0	
9	0	0	0	0	555	478	0	0	0	0	
10	0	0	0	0	554	477	0	0	0	0	
11	0	0	0	0	555	477	0	0	0	0	
12	0	0	0	0	556	477	0	0	0	0	
13	0	0	0	0	557	477	0	0	0	0	
14	0	0	0	0	558	477	0	0	0	0	
15	0	0	0	0	559	478	0	0	0	0	
0	0	0	0	0	560	479	0	0	0	0	
1	0	0	0	0	561	479	0	0	0	0	
2	0	0	0	0	562	480	0	0	0	0	
3	0	0	0	0	563	481	0	0	0	0	
4	0	0	0	0	564	482	0	0	0	0	
5	0	0	0	0	564	483	0	0	0	0	
6	0	0	0	0	564	484	0	0	0	0	
7	0	0	0	0	564	485	0	0	0	0	
8	0	0	0	0	564	485	0	0	0	0	
9	0	0	0	0	563	484	0	0	0	0	
10	0	0	0	0	563	484	0	0	0	0	
11	0	0	0	0	562	483	0	0	0	0	
12	0	0	0	0	561	483	0	0	0	0	
13	0	0	0	0	560	481	0	0	0	0	
14	0	0	0	0	559	480	0	0	0	0	
15	0	0	0	0	558	479	0	0	0	0	
0	0	0	0	0	557	477	0	0	0	0	
1	0	0	0	0	555	476	0	0	0	0	
2	0	0	0	0	554	474	0	0	0	0	
3	0	0	0	0	552	473	0	0	0	0	
4	0	0	0	0	551	473	0	0	0	0	
5	0	0	0	0	551	473	0	0	0	0	
6	0	0	0	0	551	475	0	0	0	0	
7	0	0	0	0	553	476	0	0	0	0	
8	0	0	0	0	554	478	0	0	0	0	
9	0	0	0	0	556	481	0	0	0	0	
10	0	0	0	0	558	484	0	0	0	0	
11	0	0	0	0	560	487	0	0	0	0	
12	0	0	0	0	562	489	0	0	0	0	
13	0	0	0	0	564	491	0	0	0	0	
14	0	0	0	0	566	493	0	0	0	0	
15	0	0	0	0	568	495	0	0	0	0	
0	0	0	0	0	569	496	0	0	0	0	
1	0	0	0	0	570	497	0	0	0	0	
2	0	0	0	0	570	497	0	0	0	0	
3	0	0	0	0	570	497	0	0	0	0	
4	0	0	0	0	571	497	0	0	0	0	
5	0	0	0	0	570	497	0	0	0	0	
6	0	0	0	0	569	497	0	0	0	0	
7	0	0	0	0	568	496	0	0	0	0	
8	0	0	0	0	567	495	0	0	0	0	
9	0	0	0	0	566	494	0	0	0	0	
10	0	0	0	0	564	492	0	0	0	0	
11	0	0	0	0	563	491	0	0	0	0	
12	0	0	0	0	560	489	0	0	0	0	
13	0	0	0	0	559	487	0	0	0	0	
14	0	0	0	0	557	487	0	0	0	0	
15	0	0	0	0	556	486	0	0	0	0	
0	0	0	0	0	555	486	0	0	0	0	
1	0	0	0	0	553	485	0	0	0	0	
2	0	0	0	0	553	485	0	0	0	0	
3	0	0	0	0	552	485	0	0	0	0	
4	0	0	0	0	551	484	0	0	0	0	
5	0	0	0	0	551	484	0	0	0	0	
6	0	0	0	0	551	483	0	0	0	0	
7	0	0	0	0	551	483	0	0	0	0	
8	0	0	0	0	551	483	0	0	0	0	
9	0	0	0	0	551	483	0	0	0	0	
10	0	0	0	0	551	484	0	0	0	0	
11	0	0	0	0	552	485	0	0	0	0	
12	0	0	0	0	553	487	0	0	0	0	
13	0	0	0	0	555	489	0	0	0	0	
14	0	0	0	0	556	492	0	0	0	0	
15	0	0	0	0	558	495	0	0	0	0	
0	0	0	0	0	558	497	0	0	0	0	
1	0	0	0	0	559	498	0	0	0	0	
2	0	0	0	0	560	499	0	0	0	0	
3	0	0	0	0	560	500	0	0	0	0	
4	0	0	0	0	560	499	0	0	0	0	
5	0	0	0	0	558	499	0	0	0	0	
6	0	0	0	0	558	497	0	0	0	0	
7	0	0	0	0	556	496	0	0	0	0	
8	0	0	0	0	555	494	0	0	0	0	
9	0	0	0	0	553	491	0	0	0	0	
10	0	0	0	0	551	489	0	0	0	0	
11	0	0	0	0	550	487	0	0	0	0	
12	0	0	0	0	549	486	0	0	0	0	
13	0	0	0	0	548	486	0	0	0	0	
14	0	0	0	0	548	485	0	0	0	0	
15	0	0	0	0	549	485	0	0	0	0	
0	0	0	0	0	549	486	0	0	0	0	
1	0	0	0	0	551	487	0	0	0	0	
2	0	0	0	0	551	489	0	0	0	0	
3	0	0	0	0	552	491	0	0	0	0	
4	0	0	0	0	552	492	0	0	0	0	
5	0	0	0	0	551	492	0	0	0	0	
6	0	0	0	0	550	493	0	0	0	0	
7	0	0	0	0	549	492	0	0	0	0	
8	0	0	0	0	547	492	0	0	0	0	
9	0	0	0	0	544	489	0	0	0	0	
10	0	0	0	0	541	488	0	0	0	0	
11	0	0	0	0	539	486	0	0	0	0	
12	0	0	0	0	537	484	0	0	0	0	
13	0	0	0	0	535	482	0	0	0	0	
14	0	0	0	0	534	480	0	0	0	0	
15	0	0	0	0	532	479	0	0	0	0	
0	0	0	0	0	533	479	0	0	0	0	
1	0	0	0	0	533	479	0	0	0	0	
2	0	0	0	0	535	479	0	0	0	0	
3	0	0	0	0	536	480	0	0	0	0	
4	0	0	0	0	538	481	0	0	0	0	
5	0	0	0	0	541	483	0	0	0	0	
6	0	0	0	0	544	487	0	0	0	0	
7	0	0	0	0	548	490	0	0	0	0	
8	0	0	0	0	551	494	0	0	0	0	
9	0	0	0	0	554	497	0	0	0	0	
10	0	0	0	0	558	501	0	0	0	0	
11	0	0	0	0	560	504	0	0	0	0	
12	0	0	0	0	563	507	0	0	0	0	
13	0	0	0	0	564	509	0	0	0	0	
14	0	0	0	0	565	510	0	0	0	0	
15	0	0	0	0	566	511	0	0	0	0	
0	0	0	0	0	566	511	0	0	0	0	
1	0	0	0	0	564	510	0	0	0	0	
2	0	0	0	0	562	508	0	0	0	0	
3	0	0	0	0	560	506	0	0	0	0	
4	0	0	0	0	557	504	0	0	0	0	
5	0	0	0	0	554	501	0	0	0	0	
6	0	0	0	0	551	499	0	0	0	0	
7	0	0	0	0	549	497	0	0	0	0	
8	0	0	0	0	547	495	0	0	0	0	
9	0	0	0	0	546	494	0	0	0	0	
10	0	0	0	0	546	494	0	0	0	0	
11	0	0	0	0	546	494	0	0	0	0	
12	0	0	0	0	547	495	0	0	0	0	
13	0	0	0	0	549	497	0	0	0	0	
14	0	0	0	0	552	499	0	0	0	0	
15	0	0	0	0	555	502	0	0	0	0	
0	0	0	0	0	558	505	0	0	0	0	
1	0	0	0	0	561	508	0	0	0	0	
2	0	0	0	0	563	510	0	0	0	0	
3	0	0	0	0	566	512	0	0	0	0	
4	0	0	0	0	568	514	0	0	0	0	
5	0	0	0	0	569	515	0	0	0	0	
6	0	0	0	0	569	516	0	0	0	0	
7	0	0	0	0	569	516	0	0	0	0	
8	0	0	0	0	568	515	0	0	0	0	
9	0	0	0	0	567	514	0	0	0	0	
10	0	0	0	0	564	512	0	0	0	0	
11	0	0	0	0	561	510	0	0	0	0	
12	0	0	0	0	558	508	0	0	0	0	
13	0	0	0	0	554	505	0	0	0	0	
14	0	0	0	0	550	503	0	0	0	0	
15	0	0	0	0	547	500	0	0	0	0	
0	0	0	0	0	543	499	0	0	0	0	
1	0	0	0	0	540	497	0	0	0	0	
2	0	0	0	0	539	496	0	0	0	0	
3	0	0	0	0	537	495	0	0	0	0	
4	0	0	0	0	536	495	0	0	0	0	
5	0	0	0	0	536	495	0	0	0	0	
6	0	0	0	0	537	495	0	0	0	0	
7	0	0	0	0	539	496	0	0	0	0	
8	0	0	0	0	540	496	0	0	0	0	
9	0	0	0	0	542	496	0	0	0	0	
10	0	0	0	0	543	495	0	0	0	0	
11	0	0	0	0	544	495	0	0	0	0	
12	0	0	0	0	546	496	0	0	0	0	
13	0	0	0	0	547	496	0	0	0	0	
14	0	0	0	0	548	496	0	0	0	0	
15	0	0	0	0	548	496	0	0	0	0	
0	0	0	0	0	548	496	0	0	0	0	
1	0	0	0	0	549	497	0	0	0	0	
2	0	0	0	0	548	497	0	0	0	0	
3	0	0	0	0	548	498	0	0	0	0	
4	0	0	0	0	548	499	0	0	0	0	
5	0	0	0	0	547	499	0	0	0	0	
6	0	0	0	0	548	502	0	0	0	0	
7	0	0	0	0	548	503	0	0	0	0	
8	0	0	0	0	548	504	0	0	0	0	
9	0	0	0	0	550	506	0	0	0	0	
10	0	0	0	0	551	508	0	0	0	0	
11	0	0	0	0	552	510	0	0	0	0	
12	0	0	0	0	554	511	0	0	0	0	
13	0	0	0	0	556	511	0	0	0	0	
14	0	0	0	0	556	511	0	0	0	0	
15	0	0	0	0	556	510	0	0	0	0	
0	0	0	0	0	556	509	0	0	0	0	
1	0	0	0	0	554	507	0	0	0	0	
2	0	0	0	0	552	503	0	0	0	0	
3	0	0	0	0	547	498	0	0	0	0	
4	0	0	0	0	541	492	0	0	0	0	
5	0	0	0	0	535	486	0	0	0	0	
6	0	0	0	0	527	479	0	0	0	0	
7	0	0	0	0	518	471	0	0	0	0	
8	0	0	0	0	508	463	0	0	0	0	
9	0	0	0	0	499	455	0	0	0	0	
10	0	0	0	0	489	447	0	0	0	0	
11	0	0	0	0	480	439	0	0	0	0	
12	0	0	0	0	470	430	0	0	0	0	
13	0	0	0	0	461	421	0	0	0	0	
14	0	0	0	0	451	412	0	0	0	0	
15	0	0	0	0	442	403	0	0	0	0	
0	0	0	0	0	433	394	0	0	0	0	
1	0	0	0	0	423	384	0	0	0	0	
2	0	0	0	0	413	373	0	0	0	0	
3	0	0	0	0	402	361	0	0	0	0	
4	0	0	0	0	391	350	0	0	0	0	
5	0	0	0	0	380	337	0	0	0	0	
6	0	0	0	0	368	325	0	0	0	0	
7	0	0	0	0	357	313	0	0	0	0	
8	0	0	0	0	347	303	0	0	0	0	
9	0	0	0	0	339	295	0	0	0	0	
10	0	0	0	0	333	290	0	0	0	0	
11	0	0	0	0	329	287	0	0	0	0	
12	0	0	0	0	331	288	0	0	0	0	
13	0	0	0	0	335	292	0	0	0	0	
14	0	0	0	0	344	301	0	0	0	0	
15	0	0	0	0	356	312	0	0	0	0	
0	0	0	0	0	372	327	0	0	0	0	
1	0	0	0	0	391	343	0	0	0	0	
2	0	0	0	0	411	361	0	0	0	0	
3	0	0	0	0	434	382	0	0	0	0	
4	0	0	0	0	456	402	0	0	0	0	
5	0	0	0	0	479	422	0	0	0	0	
6	0	0	0	0	499	441	0	0	0	0	
7	0	0	0	0	518	458	0	0	0	0	
8	0	0	0	0	535	473	0	0	0	0	
9	0	0	0	0	548	486	0	0	0	0	
10	0	0	0	0	559	496	0	0	0	0	
11	0	0	0	0	566	504	0	0	0	0	
12	0	0	0	0	569	509	0	0	0	0	
13	0	0	0	0	572	513	0	0	0	0	
14	0	0	0	0	571	515	0	0	0	0	
15	0	0	0	0	568	515	0	0	0	0	
0	0	0	0	0	564	514	0	0	0	0	
1	0	0	0	0	559	513	0	0	0	0	
2	0	0	0	0	555	511	0	0	0	0	
3	0	0	0	0	551	509	0	0	0	0	
4	0	0	0	0	547	507	0	0	0	0	
5	0	0	0	0	544	505	0	0	0	0	
6	0	0	0	0	543	504	0	0	0	0	
7	0	0	0	0	542	503	0	0	0	0	
8	0	0	0	0	543	502	0	0	0	0	
9	0	0	0	0	544	502	0	0	0	0	
10	0	0	0	0	546	501	0	0	0	0	
11	0	0	0	0	548	501	0	0	0	0	
12	0	0	0	0	551	502	0	0	0	0	
13	0	0	0	0	553	502	0	0	0	0	
14	0	0	0	0	555	502	0	0	0	0	
15	0	0	0	0	556	502	0	0	0	0	
0	0	0	0	0	556	503	0	0	0	0	
1	0	0	0	0	558	504	0	0	0	0	
2	0	0	0	0	558	505	0	0	0	0	
3	0	0	0	0	558	505	0	0	0	0	
4	0	0	0	0	556	505	0	0	0	0	
5	0	0	0	0	555	506	0	0	0	0	
6	0	0	0	0	555	507	0	0	0	0	
7	0	0	0	0	553	507	0	0	0	0	
8	0	0	0	0	551	507	0	0	0	0	
9	0	0	0	0	549	507	0	0	0	0	
10	0	0	0	0	546	505	0	0	0	0	
11	0	0	0	0	544	505	0	0	0	0	
12	0	0	0	0	542	504	0	0	0	0	
13	0	0	0	0	540	504	0	0	0	0	
14	0	0	0	0	538	504	0	0	0	0	
15	0	0	0	0	536	503	0	0	0	0	
0	0	0	0	0	536	504	0	0	0	0	
1	0	0	0	0	537	504	0	0	0	0	
2	0	0	0	0	538	505	0	0	0	0	
3	0	0	0	0	540	507	0	0	0	0	
4	0	0	0	0	543	509	0	0	0	0	
5	0	0	0	0	546	512	0	0	0	0	
6	0	0	0	0	549	514	0	0	0	0	
7	0	0	0	0	552	517	0	0	0	0	
8	0	0	0	0	554	519	0	0	0	0	
9	0	0	0	0	555	521	0	0	0	0	
10	0	0	0	0	557	523	0	0	0	0	
11	0	0	0	0	558	525	0	0	0	0	
12	0	0	0	0	556	526	0	0	0	0	
13	0	0	0	0	556	526	0	0	0	0	
14	0	0	0	0	554	527	0	0	0	0	
15	0	0	0	0	552	527	0	0	0	0	
0	0	0	0	0	550	526	0	0	0	0	
1	0	0	0	0	548	525	0	0	0	0	
2	0	0	0	0	545	524	0	0	0	0	
3	0	0	0	0	543	522	0	0	0	0	
4	0	0	0	0	541	522	0	0	0	0	
5	0	0	0	0	539	520	0	0	0	0	
6	0	0	0	0	537	519	0	0	0	0	
7	0	0	0	0	536	519	0	0	0	0	
8	0	0	0	0	535	518	0	0	0	0	
9	0	0	0	0	535	519	0	0	0	0	
10	0	0	0	0	536	520	0	0	0	0	
11	0	0	0	0	537	522	0	0	0	0	
12	0	0	0	0	539	524	0	0	0	0	
13	0	0	0	0	540	526	0	0	0	0	
14	0	0	0	0	542	530	0	0	0	0	
15	0	0	0	0	543	532	0	0	0	0	
0	0	0	0	0	545	535	0	0	0	0	
1	0	0	0	0	547	537	0	0	0	0	
2	0	0	0	0	547	538	0	0	0	0	
3	0	0	0	0	548	540	0	0	0	0	
4	0	0	0	0	548	541	0	0	0	0	
5	0	0	0	0	548	542	0	0	0	0	
6	0	0	0	0	548	542	0	0	0	0	
7	0	0	0	0	547	541	0	0	0	0	
8	0	0	0	0	547	541	0	0	0	0	
9	0	0	0	0	545	540	0	0	0	0	
10	0	0	0	0	544	539	0	0	0	0	
11	0	0	0	0	543	539	0	0	0	0	
12	0	0	0	0	542	538	0	0	0	0	
13	0	0	0	0	541	537	0	0	0	0	
14	0	0	0	0	540	538	0	0	0	0	
15	0	0	0	0	540	539	0	0	0	0	
0	0	0	0	0	541	540	0	0	0	0	
1	0	0	0	0	541	543	0	0	0	0	
2	0	0	0	0	543	546	0	0	0	0	
3	0	0	0	0	543	548	0	0	0	0	
4	0	0	0	0	545	551	0	0	0	0	
5	0	0	0	0	545	554	0	0	0	0	
6	0	0	0	0	545	556	0	0	0	0	
7	0	0	0	0	546	557	0	0	0	0	
8	0	0	0	0	545	558	0	0	0	0	
9	0	0	0	0	544	557	0	0	0	0	
10	0	0	0	0	543	556	0	0	0	0	
11	0	0	0	0	542	555	0	0	0	0	
12	0	0	0	0	542	554	0	0	0	0	
13	0	0	0	0	540	552	0	0	0	0	
14	0	0	0	0	539	550	0	0	0	0	
15	0	0	0	0	538	548	0	0	0	0	
0	0	0	0	0	536	547	0	0	0	0	
1	0	0	0	0	536	547	0	0	0	0	
2	0	0	0	0	535	546	0	0	0	0	
3	0	0	0	0	534	547	0	0	0	0	
4	0	0	0	0	533	547	0	0	0	0	
5	0	0	0	0	533	548	0	0	0	0	
6	0	0	0	0	533	551	0	0	0	0	
7	0	0	0	0	534	552	0	0	0	0	
8	0	0	0	0	535	554	0	0	0	0	
9	0	0	0	0	536	556	0	0	0	0	
10	0	0	0	0	537	559	0	0	0	0	
11	0	0	0	0	538	560	0	0	0	0	
12	0	0	0	0	539	561	0	0	0	0	
13	0	0	0	0	540	561	0	0	0	0	
14	0	0	0	0	540	561	0	0	0	0	
15	0	0	0	0	540	561	0	0	0	0	
0	0	0	0	0	541	561	0	0	0	0	
1	0	0	0	0	541	561	0	0	0	0	
2	0	0	0	0	541	561	0	0	0	0	
3	0	0	0	0	541	561	0	0	0	0	
4	0	0	0	0	541	562	0	0	0	0	
5	0	0	0	0	542	563	0	0	0	0	
6	0	0	0	0	543	563	0	0	0	0	
7	0	0	0	0	543	565	0	0	0	0	
8	0	0	0	0	544	566	0	0	0	0	
9	0	0	0	0	545	568	0	0	0	0	
10	0	0	0	0	546	570	0	0	0	0	
11	0	0	0	0	547	571	0	0	0	0	
12	0	0	0	0	547	572	0	0	0	0	
13	0	0	0	0	547	572	0	0	0	0	
14	0	0	0	0	547	573	0	0	0	0	
15	0	0	0	0	548	573	0	0	0	0	
0	0	0	0	0	548	573	0	0	0	0	
1	0	0	0	0	548	572	0	0	0	0	
2	0	0	0	0	548	572	0	0	0	0	
3	0	0	0	0	548	571	0	0	0	0	
4	0	0	0	0	548	570	0	0	0	0	
5	0	0	0	0	547	568	0	0	0	0	
6	0	0	0	0	547	567	0	0	0	0	
7	0	0	0	0	546	566	0	0	0	0	
8	0	0	0	0	546	565	0	0	0	0	
9	0	0	0	0	545	564	0	0	0	0	
10	0	0	0	0	545	563	0	0	0	0	
11	0	0	0	0	544	563	0	0	0	0	
12	0	0	0	0	543	563	0	0	0	0	
13	0	0	0	0	543	563	0	0	0	0	
14	0	0	0	0	543	564	0	0	0	0	
15	0	0	0	0	544	564	0	0	0	0	
0	0	0	0	0	544	565	0	0	0	0	
1	0	0	0	0	544	565	0	0	0	0	
2	0	0	0	0	543	566	0	0	0	0	
3	0	0	0	0	544	566	0	0	0	0	
4	0	0	0	0	543	564	0	0	0	0	
5	0	0	0	0	542	563	0	0	0	0	
6	0	0	0	0	540	560	0	0	0	0	
7	0	0	0	0	538	558	0	0	0	0	
8	0	0	0	0	536	556	0	0	0	0	
9	0	0	0	0	534	553	0	0	0	0	
10	0	0	0	0	533	551	0	0	0	0	
11	0	0	0	0	532	551	0	0	0	0	
12	0	0	0	0	532	550	0	0	0	0	
13	0	0	0	0	533	551	0	0	0	0	
14	0	0	0	0	536	554	0	0	0	0	
15	0	0	0	0	538	556	0	0	0	0	
0	0	0	0	0	541	560	0	0	0	0	
1	0	0	0	0	545	564	0	0	0	0	
2	0	0	0	0	550	569	0	0	0	0	
3	0	0	0	0	554	573	0	0	0	0	
4	0	0	0	0	558	577	0	0	0	0	
5	0	0	0	0	561	580	0	0	0	0	
6	0	0	0	0	563	582	0	0	0	0	
7	0	0	0	0	566	583	0	0	0	0	
8	0	0	0	0	566	583	0	0	0	0	
9	0	0	0	0	566	582	0	0	0	0	
10	0	0	0	0	565	580	0	0	0	0	
11	0	0	0	0	563	577	0	0	0	0	
12	0	0	0	0	561	575	0	0	0	0	
13	0	0	0	0	559	571	0	0	0	0	
14	0	0	0	0	556	568	0	0	0	0	
15	0	0	0	0	554	566	0	0	0	0	
0	0	0	0	0	553	565	0	0	0	0	
1	0	0	0	0	552	564	0	0	0	0	
2	0	0	0	0	552	565	0	0	0	0	
3	0	0	0	0	553	566	0	0	0	0	
4	0	0	0	0	555	568	0	0	0	0	
5	0	0	0	0	557	570	0	0	0	0	
6	0	0	0	0	559	572	0	0	0	0	
7	0	0	0	0	561	575	0	0	0	0	
8	0	0	0	0	562	576	0	0	0	0	
9	0	0	0	0	563	578	0	0	0	0	
10	0	0	0	0	563	578	0	0	0	0	
11	0	0	0	0	564	579	0	0	0	0	
12	0	0	0	0	563	577	0	0	0	0	
13	0	0	0	0	561	576	0	0	0	0	
14	0	0	0	0	559	573	0	0	0	0	
15	0	0	0	0	556	571	0	0	0	0	
0	0	0	0	0	553	568	0	0	0	0	
1	0	0	0	0	551	564	0	0	0	0	
2	0	0	0	0	547	560	0	0	0	0	
3	0	0	0	0	544	557	0	0	0	0	
4	0	0	0	0	542	553	0	0	0	0	
5	0	0	0	0	541	552	0	0	0	0	
6	0	0	0	0	540	550	0	0	0	0	
7	0	0	0	0	540	550	0	0	0	0	
8	0	0	0	0	541	549	0	0	0	0	
9	0	0	0	0	542	550	0	0	0	0	
10	0	0	0	0	544	551	0	0	0	0	
11	0	0	0	0	547	553	0	0	0	0	
12	0	0	0	0	549	555	0	0	0	0	
13	0	0	0	0	551	558	0	0	0	0	
14	0	0	0	0	554	560	0	0	0	0	
15	0	0	0	0	557	561	0	0	0	0	
0	0	0	0	0	559	563	0	0	0	0	
1	0	0	0	0	560	564	0	0	0	0	
2	0	0	0	0	560	564	0	0	0	0	
3	0	0	0	0	562	564	0	0	0	0	
4	0	0	0	0	561	563	0	0	0	0	
5	0	0	0	0	561	561	0	0	0	0	
6	0	0	0	0	560	560	0	0	0	0	
7	0	0	0	0	559	558	0	0	0	0	
8	0	0	0	0	556	556	0	0	0	0	
9	0	0	0	0	556	555	0	0	0	0	
10	0	0	0	0	555	553	0	0	0	0	
11	0	0	0	0	554	552	0	0	0	0	
12	0	0	0	0	553	552	0	0	0	0	
13	0	0	0	0	553	552	0	0	0	0	
14	0	0	0	0	554	553	0	0	0	0	
15	0	0	0	0	555	554	0	0	0	0	
0	0	0	0	0	556	555	0	0	0	0	
1	0	0	0	0	557	556	0	0	0	0	
2	0	0	0	0	558	557	0	0	0	0	
3	0	0	0	0	559	557	0	0	0	0	
4	0	0	0	0	559	556	0	0	0	0	
5	0	0	0	0	559	556	0	0	0	0	
6	0	0	0	0	559	554	0	0	0	0	
7	0	0	0	0	558	552	0	0	0	0	
8	0	0	0	0	557	550	0	0	0	0	
9	0	0	0	0	557	548	0	0	0	0	
10	0	0	0	0	556	545	0	0	0	0	
11	0	0	0	0	555	543	0	0	0	0	
12	0	0	0	0	553	542	0	0	0	0	
13	0	0	0	0	553	541	0	0	0	0	
14	0	0	0	0	552	539	0	0	0	0	
15	0	0	0	0	552	538	0	0	0	0	
0	0	0	0	0	552	537	0	0	0	0	
1	0	0	0	0	552	537	0	0	0	0	
2	0	0	0	0	554	539	0	0	0	0	
3	0	0	0	0	556	540	0	0	0	0	
4	0	0	0	0	557	541	0	0	0	0	
5	0	0	0	0	560	542	0	0	0	0	
6	0	0	0	0	561	543	0	0	0	0	
7	0	0	0	0	563	544	0	0	0	0	
8	0	0	0	0	564	544	0	0	0	0	
9	0	0	0	0	565	544	0	0	0	0	
10	0	0	0	0	565	543	0	0	0	0	
11	0	0	0	0	564	542	0	0	0	0	
12	0	0	0	0	563	541	0	0	0	0	
13	0	0	0	0	563	540	0	0	0	0	
14	0	0	0	0	561	539	0	0	0	0	
15	0	0	0	0	561	539	0	0	0	0	
0	0	0	0	0	561	539	0	0	0	0	
1	0	0	0	0	561	540	0	0	0	0	
2	0	0	0	0	562	540	0	0	0	0	
3	0	0	0	0	563	542	0	0	0	0	
4	0	0	0	0	565	543	0	0	0	0	
5	0	0	0	0	565	544	0	0	0	0	
6	0	0	0	0	567	545	0	0	0	0	
7	0	0	0	0	567	545	0	0	0	0	
8	0	0	0	0	567	545	0	0	0	0	
9	0	0	0	0	567	543	0	0	0	0	
10	0	0	0	0	566	542	0	0	0	0	
11	0	0	0	0	564	539	0	0	0	0	
12	0	0	0	0	561	534	0	0	0	0	
13	0	0	0	0	559	529	0	0	0	0	
14	0	0	0	0	555	524	0	0	0	0	
15	0	0	0	0	553	519	0	0	0	0	
0	0	0	0	0	551	515	0	0	0	0	
1	0	0	0	0	548	511	0	0	0	0	
2	0	0	0	0	547	507	0	0	0	0	
3	0	0	0	0	546	504	0	0	0	0	
4	0	0	0	0	545	503	0	0	0	0	
5	0	0	0	0	545	502	0	0	0	0	
6	0	0	0	0	546	503	0	0	0	0	
7	0	0	0	0	547	504	0	0	0	0	
8	0	0	0	0	550	506	0	0	0	0	
9	0	0	0	0	551	509	0	0	0	0	
10	0	0	0	0	555	512	0	0	0	0	
11	0	0	0	0	558	515	0	0	0	0	
12	0	0	0	0	561	518	0	0	0	0	
13	0	0	0	0	565	521	0	0	0	0	
14	0	0	0	0	568	524	0	0	0	0	
15	0	0	0	0	571	527	0	0	0	0	
0	0	0	0	0	573	528	0	0	0	0	
1	0	0	0	0	574	528	0	0	0	0	
2	0	0	0	0	575	528	0	0	0	0	
3	0	0	0	0	574	527	0	0	0	0	
4	0	0	0	0	574	526	0	0	0	0	
5	0	0	0	0	572	524	0	0	0	0	
6	0	0	0	0	570	521	0	0	0	0	
7	0	0	0	0	568	519	0	0	0	0	
8	0	0	0	0	566	516	0	0	0	0	
9	0	0	0	0	564	514	0	0	0	0	
10	0	0	0	0	563	512	0	0	0	0	
11	0	0	0	0	562	511	0	0	0	0	
12	0	0	0	0	562	510	0	0	0	0	
13	0	0	0	0	561	510	0	0	0	0	
14	0	0	0	0	563	510	0	0	0	0	
15	0	0	0	0	563	509	0	0	0	0	
0	0	0	0	0	564	509	0	0	0	0	
1	0	0	0	0	564	508	0	0	0	0	
2	0	0	0	0	564	506	0	0	0	0	
3	0	0	0	0	564	505	0	0	0	0	
4	0	0	0	0	563	503	0	0	0	0	
5	0	0	0	0	563	501	0	0	0	0	
6	0	0	0	0	562	499	0	0	0	0	
7	0	0	0	0	560	496	0	0	0	0	
8	0	0	0	0	561	495	0	0	0	0	
9	0	0	0	0	560	494	0	0	0	0	
10	0	0	0	0	560	492	0	0	0	0	
11	0	0	0	0	559	492	0	0	0	0	
12	0	0	0	0	559	491	0	0	0	0	
13	0	0	0	0	560	492	0	0	0	0	
14	0	0	0	0	560	492	0	0	0	0	
15	0	0	0	0	560	492	0	0	0	0	
0	0	0	0	0	561	494	0	0	0	0	
1	0	0	0	0	561	494	0	0	0	0	
2	0	0	0	0	563	496	0	0	0	0	
3	0	0	0	0	564	497	0	0	0	0	
4	0	0	0	0	565	498	0	0	0	0	
5	0	0	0	0	566	499	0	0	0	0	
6	0	0	0	0	566	499	0	0	0	0	
7	0	0	0	0	567	499	0	0	0	0	
8	0	0	0	0	566	498	0	0	0	0	
9	0	0	0	0	566	497	0	0	0	0	
10	0	0	0	0	565	495	0	0	0	0	
11	0	0	0	0	564	494	0	0	0	0	
12	0	0	0	0	564	492	0	0	0	0	
13	0	0	0	0	563	490	0	0	0	0	
14	0	0	0	0	562	488	0	0	0	0	
15	0	0	0	0	561	487	0	0	0	0	
0	0	0	0	0	561	486	0	0	0	0	
1	0	0	0	0	560	484	0	0	0	0	
2	0	0	0	0	559	483	0	0	0	0	
3	0	0	0	0	559	482	0	0	0	0	
4	0	0	0	0	558	480	0	0	0	0	
5	0	0	0	0	556	479	0	0	0	0	
6	0	0	0	0	555	479	0	0	0	0	
7	0	0	0	0	554	477	0	0	0	0	
8	0	0	0	0	553	476	0	0	0	0	
9	0	0	0	0	552	476	0	0	0	0	
10	0	0	0	0	551	475	0	0	0	0	
11	0	0	0	0	552	475	0	0	0	0	
12	0	0	0	0	551	474	0	0	0	0	
13	0	0	0	0	552	474	0	0	0	0	
14	0	0	0	0	553	474	0	0	0	0	
15	0	0	0	0	552	474	0	0	0	0	
0	0	0	0	0	553	474	0	0	0	0	
1	0	0	0	0	553	474	0	0	0	0	
2	0	0	0	0	554	474	0	0	0	0	
3	0	0	0	0	554	474	0	0	0	0	
4	0	0	0	0	554	473	0	0	0	0	
5	0	0	0	0	554	474	0	0	0	0	
6	0	0	0	0	554	474	0	0	0	0	
7	0	0	0	0	554	475	0	0	0	0	
8	0	0	0	0	554	476	0	0	0	0	
9	0	0	0	0	555	476	0	0	0	0	
10	0	0	0	0	556	478	0	0	0	0	
11	0	0	0	0	557	479	0	0	0	0	
12	0	0	0	0	558	480	0	0	0	0	
13	0	0	0	0	559	481	0	0	0	0	
14	0	0	0	0	560	483	0	0	0	0	
15	0	0	0	0	562	484	0	0	0	0	
0	0	0	0	0	562	484	0	0	0	0	
1	0	0	0	0	563	484	0	0	0	0	
2	0	0	0	0	563	483	0	0	0	0	
3	0	0	0	0	561	482	0	0	0	0	
4	0	0	0	0	561	480	0	0	0	0	
5	0	0	0	0	559	478	0	0	0	0	
6	0	0	0	0	558	475	0	0	0	0	
7	0	0	0	0	555	472	0	0	0	0	
8	0	0	0	0	553	470	0	0	0	0	
9	0	0	0	0	551	468	0	0	0	0	
10	0	0	0	0	548	465	0	0	0	0	
11	0	0	0	0	545	463	0	0	0	0	
12	0	0	0	0	543	461	0	0	0	0	
13	0	0	0	0	541	461	0	0	0	0	
14	0	0	0	0	540	460	0	0	0	0	
15	0	0	0	0	539	460	0	0	0	0	
0	0	0	0	0	538	460	0	0	0	0	
1	0	0	0	0	538	460	0	0	0	0	
2	0	0	0	0	539	461	0	0	0	0	
3	0	0	0	0	540	462	0	0	0	0	
4	0	0	0	0	540	462	0	0	0	0	
5	0	0	0	0	541	462	0	0	0	0	
6	0	0	0	0	542	462	0	0	0	0	
7	0	0	0	0	543	461	0	0	0	0	
8	0	0	0	0	543	462	0	0	0	0	
9	0	0	0	0	544	461	0	0	0	0	
10	0	0	0	0	545	461	0	0	0	0	
11	0	0	0	0	546	461	0	0	0	0	
12	0	0	0	0	547	462	0	0	0	0	
13	0	0	0	0	549	464	0	0	0	0	
14	0	0	0	0	551	465	0	0	0	0	
15	0	0	0	0	553	468	0	0	0	0	
0	0	0	0	0	555	470	0	0	0	0	
1	0	0	0	0	557	472	0	0	0	0	
2	0	0	0	0	559	475	0	0	0	0	
3	0	0	0	0	559	476	0	0	0	0	
4	0	0	0	0	559	477	0	0	0	0	
5	0	0	0	0	559	477	0	0	0	0	
6	0	0	0	0	558	476	0	0	0	0	
7	0	0	0	0	556	476	0	0	0	0	
8	0	0	0	0	554	474	0	0	0	0	
9	0	0	0	0	552	472	0	0	0	0	
10	0	0	0	0	550	469	0	0	0	0	
11	0	0	0	0	547	466	0	0	0	0	
12	0	0	0	0	545	464	0	0	0	0	
13	0	0	0	0	542	461	0	0	0	0	
14	0	0	0	0	540	459	0	0	0	0	
15	0	0	0	0	539	457	0	0	0	0	
0	0	0	0	0	537	457	0	0	0	0	
1	0	0	0	0	538	456	0	0	0	0	
2	0	0	0	0	538	457	0	0	0	0	
3	0	0	0	0	539	458	0	0	0	0	
4	0	0	0	0	541	460	0	0	0	0	
5	0	0	0	0	542	461	0	0	0	0	
6	0	0	0	0	543	463	0	0	0	0	
7	0	0	0	0	545	465	0	0	0	0	
8	0	0	0	0	546	466	0	0	0	0	
9	0	0	0	0	547	467	0	0	0	0	
10	0	0	0	0	547	467	0	0	0	0	
11	0	0	0	0	548	468	0	0	0	0	
12	0	0	0	0	548	467	0	0	0	0	
13	0	0	0	0	547	467	0	0	0	0	
14	0	0	0	0	547	466	0	0	0	0	
15	0	0	0	0	546	465	0	0	0	0	
0	0	0	0	0	546	464	0	0	0	0	
1	0	0	0	0	545	463	0	0	0	0	
2	0	0	0	0	545	463	0	0	0	0	
3	0	0	0	0	544	462	0	0	0	0	
4	0	0	0	0	543	461	0	0	0	0	
5	0	0	0	0	543	461	0	0	0	0	
6	0	0	0	0	543	461	0	0	0	0	
7	0	0	0	0	542	460	0	0	0	0	
8	0	0	0	0	540	458	0	0	0	0	
9	0	0	0	0	538	457	0	0	0	0	
10	0	0	0	0	537	457	0	0	0	0	
11	0	0	0	0	535	457	0	0	0	0	
12	0	0	0	0	534	457	0	0	0	0	
13	0	0	0	0	533	457	0	0	0	0	
14	0	0	0	0	532	457	0	0	0	0	
15	0	0	0	0	534	459	0	0	0	0	
0	0	0	0	0	536	462	0	0	0	0	
1	0	0	0	0	538	463	0	0	0	0	
2	0	0	0	0	540	466	0	0	0	0	
3	0	0	0	0	544	468	0	0	0	0	
4	0	0	0	0	548	471	0	0	0	0	
5	0	0	0	0	551	473	0	0	0	0	
6	0	0	0	0	553	474	0	0	0	0	
7	0	0	0	0	555	474	0	0	0	0	
8	0	0	0	0	555	474	0	0	0	0	
9	0	0	0	0	554	473	0	0	0	0	
10	0	0	0	0	553	472	0	0	0	0	
11	0	0	0	0	551	471	0	0	0	0	
12	0	0	0	0	549	469	0	0	0	0	
13	0	0	0	0	546	467	0	0	0	0	
14	0	0	0	0	545	467	0	0	0	0	
15	0	0	0	0	542	465	0	0	0	0	
0	0	0	0	0	540	464	0	0	0	0	
1	0	0	0	0	539	463	0	0	0	0	
2	0	0	0	0	537	463	0	0	0	0	
3	0	0	0	0	537	463	0	0	0	0	
4	0	0	0	0	538	463	0	0	0	0	
5	0	0	0	0	538	463	0	0	0	0	
6	0	0	0	0	540	464	0	0	0	0	
7	0	0	0	0	540	464	0	0	0	0	
8	0	0	0	0	542	465	0	0	0	0	
9	0	0	0	0	543	466	0	0	0	0	
10	0	0	0	0	543	466	0	0	0	0	
11	0	0	0	0	543	465	0	0	0	0	
12	0	0	0	0	543	466	0	0	0	0	
13	0	0	0	0	543	466	0	0	0	0	
14	0	0	0	0	543	465	0	0	0	0	
15	0	0	0	0	543	465	0	0	0	0	
0	0	0	0	0	542	465	0	0	0	0	
1	0	0	0	0	542	467	0	0	0	0	
2	0	0	0	0	543	468	0	0	0	0	
3	0	0	0	0	543	468	0	0	0	0	
4	0	0	0	0	544	470	0	0	0	0	
5	0	0	0	0	544	470	0	0	0	0	
6	0	0	0	0	544	471	0	0	0	0	
7	0	0	0	0	544	471	0	0	0	0	
8	0	0	0	0	544	471	0	0	0	0	
9	0	0	0	0	543	470	0	0	0	0	
10	0	0	0	0	541	468	0	0	0	0	
11	0	0	0	0	539	467	0	0	0	0	
12	0	0	0	0	537	465	0	0	0	0	
13	0	0	0	0	536	463	0	0	0	0	
14	0	0	0	0	534	462	0	0	0	0	
15	0	0	0	0	533	461	0	0	0	0	
0	0	0	0	0	532	462	0	0	0	0	
1	0	0	0	0	533	463	0	0	0	0	
2	0	0	0	0	534	464	0	0	0	0	
3	0	0	0	0	535	465	0	0	0	0	
4	0	0	0	0	536	467	0	0	0	0	
5	0	0	0	0	536	469	0	0	0	0	
6	0	0	0	0	539	471	0	0	0	0	
7	0	0	0	0	540	472	0	0	0	0	
8	0	0	0	0	540	473	0	0	0	0	
9	0	0	0	0	540	473	0	0	0	0	
10	0	0	0	0	540	473	0	0	0	0	
11	0	0	0	0	540	472	0	0	0	0	
12	0	0	0	0	538	471	0	0	0	0	
13	0	0	0	0	536	469	0	0	0	0	
14	0	0	0	0	534	466	0	0	0	0	
15	0	0	0	0	531	465	0	0	0	0	
0	0	0	0	0	530	462	0	0	0	0	
1	0	0	0	0	528	460	0	0	0	0	
2	0	0	0	0	527	459	0	0	0	0	
3	0	0	0	0	525	457	0	0	0	0	
4	0	0	0	0	525	458	0	0	0	0	
5	0	0	0	0	526	458	0	0	0	0	
6	0	0	0	0	527	459	0	0	0	0	
7	0	0	0	0	528	461	0	0	0	0	
8	0	0	0	0	530	463	0	0	0	0	
9	0	0	0	0	531	465	0	0	0	0	
10	0	0	0	0	534	467	0	0	0	0	
11	0	0	0	0	535	469	0	0	0	0	
12	0	0	0	0	536	471	0	0	0	0	
13	0	0	0	0	537	473	0	0	0	0	
14	0	0	0	0	538	473	0	0	0	0	
15	0	0	0	0	538	474	0	0	0	0	
0	0	0	0	0	537	473	0	0	0	0	
1	0	0	0	0	536	473	0	0	0	0	
2	0	0	0	0	535	472	0	0	0	0	
3	0	0	0	0	532	469	0	0	0	0	
4	0	0	0	0	531	467	0	0	0	0	
5	0	0	0	0	529	465	0	0	0	0	
6	0	0	0	0	527	463	0	0	0	0	
7	0	0	0	0	527	461	0	0	0	0	
8	0	0	0	0	525	460	0	0	0	0	
9	0	0	0	0	525	459	0	0	0	0	
10	0	0	0	0	525	459	0	0	0	0	
11	0	0	0	0	526	459	0	0	0	0	
12	0	0	0	0	526	460	0	0	0	0	
13	0	0	0	0	527	460	0	0	0	0	
14	0	0	0	0	527	462	0	0	0	0	
15	0	0	0	0	528	463	0	0	0	0	
0	0	0	0	0	528	464	0	0	0	0	
1	0	0	0	0	528	464	0	0	0	0	
2	0	0	0	0	527	464	0	0	0	0	
3	0	0	0	0	527	465	0	0	0	0	
4	0	0	0	0	527	465	0	0	0	0	
5	0	0	0	0	526	465	0	0	0	0	
6	0	0	0	0	525	464	0	0	0	0	
7	0	0	0	0	524	463	0	0	0	0	
8	0	0	0	0	524	463	0	0	0	0	
9	0	0	0	0	524	463	0	0	0	0	
10	0	0	0	0	524	463	0	0	0	0	
11	0	0	0	0	524	464	0	0	0	0	
12	0	0	0	0	525	465	0	0	0	0	
13	0	0	0	0	527	467	0	0	0	0	
14	0	0	0	0	529	468	0	0	0	0	
15	0	0	0	0	531	471	0	0	0	0	
0	0	0	0	0	534	473	0	0	0	0	
1	0	0	0	0	535	476	0	0	0	0	
2	0	0	0	0	537	478	0	0	0	0	
3	0	0	0	0	539	479	0	0	0	0	
4	0	0	0	0	540	480	0	0	0	0	
5	0	0	0	0	540	481	0	0	0	0	
6	0	0	0	0	540	481	0	0	0	0	
7	0	0	0	0	540	480	0	0	0	0	
8	0	0	0	0	539	480	0	0	0	0	
9	0	0	0	0	537	478	0	0	0	0	
10	0	0	0	0	537	477	0	0	0	0	
11	0	0	0	0	535	475	0	0	0	0	
12	0	0	0	0	534	474	0	0	0	0	
13	0	0	0	0	533	472	0	0	0	0	
14	0	0	0	0	532	471	0	0	0	0	
15	0	0	0	0	531	470	0	0	0	0	
0	0	0	0	0	531	468	0	0	0	0	
1	0	0	0	0	530	468	0	0	0	0	
2	0	0	0	0	529	467	0	0	0	0	
3	0	0	0	0	528	467	0	0	0	0	
4	0	0	0	0	527	466	0	0	0	0	
5	0	0	0	0	526	465	0	0	0	0	
6	0	0	0	0	525	465	0	0	0	0	
7	0	0	0	0	523	464	0	0	0	0	
8	0	0	0	0	521	463	0	0	0	0	
9	0	0	0	0	520	463	0	0	0	0	
10	0	0	0	0	519	462	0	0	0	0	
11	0	0	0	0	519	462	0	0	0	0	
12	0	0	0	0	520	463	0	0	0	0	
13	0	0	0	0	522	464	0	0	0	0	
14	0	0	0	0	524	465	0	0	0	0	
15	0	0	0	0	527	467	0	0	0	0	
0	0	0	0	0	531	469	0	0	0	0	
1	0	0	0	0	534	472	0	0	0	0	
2	0	0	0	0	537	473	0	0	0	0	
3	0	0	0	0	540	474	0	0	0	0	
4	0	0	0	0	541	475	0	0	0	0	
5	0	0	0	0	542	475	0	0	0	0	
6	0	0	0	0	540	472	0	0	0	0	
7	0	0	0	0	538	470	0	0	0	0	
8	0	0	0	0	533	465	0	0	0	0	
9	0	0	0	0	527	460	0	0	0	0	
10	0	0	0	0	519	453	0	0	0	0	
11	0	0	0	0	510	446	0	0	0	0	
12	0	0	0	0	499	437	0	0	0	0	
13	0	0	0	0	487	427	0	0	0	0	
14	0	0	0	0	475	416	0	0	0	0	
15	0	0	0	0	463	406	0	0	0	0	
0	0	0	0	0	450	394	0	0	0	0	
1	0	0	0	0	438	382	0	0	0	0	
2	0	0	0	0	426	370	0	0	0	0	
3	0	0	0	0	414	358	0	0	0	0	
4	0	0	0	0	402	346	0	0	0	0	
5	0	0	0	0	391	334	0	0	0	0	
6	0	0	0	0	380	322	0	0	0	0	
7	0	0	0	0	369	310	0	0	0	0	
8	0	0	0	0	359	299	0	0	0	0	
9	0	0	0	0	350	289	0	0	0	0	
10	0	0	0	0	342	280	0	0	0	0	
11	0	0	0	0	335	273	0	0	0	0	
12	0	0	0	0	331	268	0	0	0	0	
13	0	0	0	0	329	266	0	0	0	0	
14	0	0	0	0	331	266	0	0	0	0	
15	0	0	0	0	335	269	0	0	0	0	
0	0	0	0	0	343	275	0	0	0	0	
1	0	0	0	0	353	284	0	0	0	0	
2	0	0	0	0	368	296	0	0	0	0	
3	0	0	0	0	385	312	0	0	0	0	
4	0	0	0	0	404	329	0	0	0	0	
5	0	0	0	0	424	348	0	0	0	0	
6	0	0	0	0	446	368	0	0	0	0	
7	0	0	0	0	467	388	0	0	0	0	
8	0	0	0	0	488	408	0	0	0	0	
9	0	0	0	0	507	426	0	0	0	0	
10	0	0	0	0	524	444	0	0	0	0	
11	0	0	0	0	539	459	0	0	0	0	
12	0	0	0	0	551	472	0	0	0	0	
13	0	0	0	0	560	483	0	0	0	0	
14	0	0	0	0	567	492	0	0	0	0	
15	0	0	0	0	571	499	0	0	0	0	
0	0	0	0	0	573	503	0	0	0	0	
1	0	0	0	0	573	505	0	0	0	0	
2	0	0	0	0	572	507	0	0	0	0	
3	0	0	0	0	569	506	0	0	0	0	
4	0	0	0	0	565	504	0	0	0	0	
5	0	0	0	0	560	500	0	0	0	0	
6	0	0	0	0	553	495	0	0	0	0	
7	0	0	0	0	548	491	0	0	0	0	
8	0	0	0	0	543	485	0	0	0	0	
9	0	0	0	0	537	480	0	0	0	0	
10	0	0	0	0	532	474	0	0	0	0	
11	0	0	0	0	529	471	0	0	0	0	
12	0	0	0	0	527	469	0	0	0	0	
13	0	0	0	0	526	467	0	0	0	0	
14	0	0	0	0	527	466	0	0	0	0	
15	0	0	0	0	528	467	0	0	0	0	
0	0	0	0	0	530	468	0	0	0	0	
1	0	0	0	0	534	472	0	0	0	0	
2	0	0	0	0	538	476	0	0	0	0	
3	0	0	0	0	542	480	0	0	0	0	
4	0	0	0	0	546	483	0	0	0	0	
5	0	0	0	0	549	487	0	0	0	0	
6	0	0	0	0	554	492	0	0	0	0	
7	0	0	0	0	557	495	0	0	0	0	
8	0	0	0	0	559	498	0	0	0	0	
9	0	0	0	0	560	500	0	0	0	0	
10	0	0	0	0	562	502	0	0	0	0	
11	0	0	0	0	563	503	0	0	0	0	
12	0	0	0	0	563	503	0	0	0	0	
13	0	0	0	0	562	502	0	0	0	0	
14	0	0	0	0	560	499	0	0	0	0	
15	0	0	0	0	558	496	0	0	0	0	
0	0	0	0	0	555	494	0	0	0	0	
1	0	0	0	0	552	491	0	0	0	0	
2	0	0	0	0	550	488	0	0	0	0	
3	0	0	0	0	548	487	0	0	0	0	
4	0	0	0	0	547	486	0	0	0	0	
5	0	0	0	0	548	488	0	0	0	0	
6	0	0	0	0	549	490	0	0	0	0	
7	0	0	0	0	551	493	0	0	0	0	
8	0	0	0	0	554	496	0	0	0	0	
9	0	0	0	0	557	499	0	0	0	0	
10	0	0	0	0	560	502	0	0	0	0	
11	0	0	0	0	563	505	0	0	0	0	
12	0	0	0	0	564	507	0	0	0	0	
13	0	0	0	0	566	508	0	0	0	0	
14	0	0	0	0	567	509	0	0	0	0	
15	0	0	0	0	567	509	0	0	0	0	
0	0	0	0	0	565	508	0	0	0	0	
1	0	0	0	0	564	507	0	0	0	0	
2	0	0	0	0	563	505	0	0	0	0	
3	0	0	0	0	560	503	0	0	0	0	
4	0	0	0	0	559	502	0	0	0	0	
5	0	0	0	0	557	499	0	0	0	0	
6	0	0	0	0	556	498	0	0	0	0	
7	0	0	0	0	554	497	0	0	0	0	
8	0	0	0	0	553	496	0	0	0	0	
9	0	0	0	0	553	496	0	0	0	0	
10	0	0	0	0	553	496	0	0	0	0	
11	0	0	0	0	554	497	0	0	0	0	
12	0	0	0	0	554	497	0	0	0	0	
13	0	0	0	0	555	497	0	0	0	0	
14	0	0	0	0	555	497	0	0	0	0	
15	0	0	0	0	554	496	0	0	0	0	
0	0	0	0	0	554	496	0	0	0	0	
1	0	0	0	0	553	495	0	0	0	0	
2	0	0	0	0	551	494	0	0	0	0	
3	0	0	0	0	551	494	0	0	0	0	
4	0	0	0	0	550	492	0	0	0	0	
5	0	0	0	0	548	491	0	0	0	0	
6	0	0	0	0	547	489	0	0	0	0	
7	0	0	0	0	545	487	0	0	0	0	
8	0	0	0	0	545	486	0	0	0	0	
9	0	0	0	0	544	484	0	0	0	0	
10	0	0	0	0	544	484	0	0	0	0	
11	0	0	0	0	544	484	0	0	0	0	
12	0	0	0	0	545	484	0	0	0	0	
13	0	0	0	0	546	485	0	0	0	0	
14	0	0	0	0	547	486	0	0	0	0	
15	0	0	0	0	549	487	0	0	0	0	
0	0	0	0	0	550	489	0	0	0	0	
1	0	0	0	0	551	490	0	0	0	0	
2	0	0	0	0	552	492	0	0	0	0	
3	0	0	0	0	552	493	0	0	0	0	
4	0	0	0	0	552	494	0	0	0	0	
5	0	0	0	0	551	494	0	0	0	0	
6	0	0	0	0	551	494	0	0	0	0	
7	0	0	0	0	550	494	0	0	0	0	
8	0	0	0	0	548	493	0	0	0	0	
9	0	0	0	0	547	492	0	0	0	0	
10	0	0	0	0	547	490	0	0	0	0	
11	0	0	0	0	545	488	0	0	0	0	
12	0	0	0	0	544	487	0	0	0	0	
13	0	0	0	0	544	486	0	0	0	0	
14	0	0	0	0	543	485	0	0	0	0	
15	0	0	0	0	543	484	0	0	0	0	
0	0	0	0	0	542	483	0	0	0	0	
1	0	0	0	0	542	483	0	0	0	0	
2	0	0	0	0	542	483	0	0	0	0	
3	0	0	0	0	543	484	0	0	0	0	
4	0	0	0	0	543	484	0	0	0	0	
5	0	0	0	0	544	486	0	0	0	0	
6	0	0	0	0	545	487	0	0	0	0	
7	0	0	0	0	547	489	0	0	0	0	
8	0	0	0	0	548	490	0	0	0	0	
9	0	0	0	0	548	491	0	0	0	0	
10	0	0	0	0	547	490	0	0	0	0	
11	0	0	0	0	547	490	0	0	0	0	
12	0	0	0	0	545	488	0	0	0	0	
13	0	0	0	0	543	486	0	0	0	0	
14	0	0	0	0	541	483	0	0	0	0	
15	0	0	0	0	539	481	0	0	0	0	
0	0	0	0	0	537	480	0	0	0	0	
1	0	0	0	0	536	478	0	0	0	0	
2	0	0	0	0	534	476	0	0	0	0	
3	0	0	0	0	532	475	0	0	0	0	
4	0	0	0	0	531	473	0	0	0	0	
5	0	0	0	0	531	473	0	0	0	0	
6	0	0	0	0	530	473	0	0	0	0	
7	0	0	0	0	531	474	0	0	0	0	
8	0	0	0	0	531	475	0	0	0	0	
9	0	0	0	0	533	476	0	0	0	0	
10	0	0	0	0	536	480	0	0	0	0	
11	0	0	0	0	540	483	0	0	0	0	
12	0	0	0	0	543	487	0	0	0	0	
13	0	0	0	0	547	490	0	0	0	0	
14	0	0	0	0	550	494	0	0	0	0	
15	0	0	0	0	553	496	0	0	0	0	
0	0	0	0	0	555	497	0	0	0	0	
1	0	0	0	0	556	498	0	0	0	0	
2	0	0	0	0	555	496	0	0	0	0	
3	0	0	0	0	552	495	0	0	0	0	
4	0	0	0	0	550	492	0	0	0	0	
5	0	0	0	0	547	490	0	0	0	0	
6	0	0	0	0	543	487	0	0	0	0	
7	0	0	0	0	540	484	0	0	0	0	
8	0	0	0	0	537	482	0	0	0	0	
9	0	0	0	0	536	482	0	0	0	0	
10	0	0	0	0	535	482	0	0	0	0	
11	0	0	0	0	534	482	0	0	0	0	
12	0	0	0	0	534	483	0	0	0	0	
13	0	0	0	0	534	484	0	0	0	0	
14	0	0	0	0	536	486	0	0	0	0	
15	0	0	0	0	537	487	0	0	0	0	
0	0	0	0	0	538	489	0	0	0	0	
1	0	0	0	0	539	490	0	0	0	0	
2	0	0	0	0	539	490	0	0	0	0	
3	0	0	0	0	540	492	0	0	0	0	
4	0	0	0	0	540	491	0	0	0	0	
5	0	0	0	0	541	491	0	0	0	0	
6	0	0	0	0	541	491	0	0	0	0	
7	0	0	0	0	541	492	0	0	0	0	
8	0	0	0	0	542	492	0	0	0	0	
9	0	0	0	0	543	492	0	0	0	0	
10	0	0	0	0	543	493	0	0	0	0	
11	0	0	0	0	544	494	0	0	0	0	
12	0	0	0	0	544	496	0	0	0	0	
13	0	0	0	0	546	497	0	0	0	0	
14	0	0	0	0	547	499	0	0	0	0	
15	0	0	0	0	549	500	0	0	0	0	
0	0	0	0	0	550	502	0	0	0	0	
1	0	0	0	0	550	502	0	0	0	0	
2	0	0	0	0	551	503	0	0	0	0	
3	0	0	0	0	551	503	0	0	0	0	
4	0	0	0	0	550	502	0	0	0	0	
5	0	0	0	0	550	501	0	0	0	0	
6	0	0	0	0	547	499	0	0	0	0	
7	0	0	0	0	546	498	0	0	0	0	
8	0	0	0	0	544	496	0	0	0	0	
9	0	0	0	0	542	494	0	0	0	0	
10	0	0	0	0	540	492	0	0	0	0	
11	0	0	0	0	539	491	0	0	0	0	
12	0	0	0	0	539	490	0	0	0	0	
13	0	0	0	0	539	490	0	0	0	0	
14	0	0	0	0	540	491	0	0	0	0	
15	0	0	0	0	542	493	0	0	0	0	
0	0	0	0	0	543	495	0	0	0	0	
1	0	0	0	0	546	497	0	0	0	0	
2	0	0	0	0	548	499	0	0	0	0	
3	0	0	0	0	550	502	0	0	0	0	
4	0	0	0	0	551	503	0	0	0	0	
5	0	0	0	0	551	504	0	0	0	0	
6	0	0	0	0	552	505	0	0	0	0	
7	0	0	0	0	552	504	0	0	0	0	
8	0	0	0	0	551	504	0	0	0	0	
9	0	0	0	0	550	503	0	0	0	0	
10	0	0	0	0	548	502	0	0	0	0	
11	0	0	0	0	547	500	0	0	0	0	
12	0	0	0	0	546	499	0	0	0	0	
13	0	0	0	0	544	496	0	0	0	0	
14	0	0	0	0	542	494	0	0	0	0	
15	0	0	0	0	540	492	0	0	0	0	
0	0	0	0	0	539	490	0	0	0	0	
1	0	0	0	0	538	489	0	0	0	0	
2	0	0	0	0	536	487	0	0	0	0	
3	0	0	0	0	536	487	0	0	0	0	
4	0	0	0	0	536	486	0	0	0	0	
5	0	0	0	0	536	486	0	0	0	0	
6	0	0	0	0	536	487	0	0	0	0	
7	0	0	0	0	537	488	0	0	0	0	
8	0	0	0	0	538	490	0	0	0	0	
9	0	0	0	0	540	493	0	0	0	0	
10	0	0	0	0	543	496	0	0	0	0	
11	0	0	0	0	545	499	0	0	0	0	
12	0	0	0	0	549	502	0	0	0	0	
13	0	0	0	0	551	504	0	0	0	0	
14	0	0	0	0	555	508	0	0	0	0	
15	0	0	0	0	558	511	0	0	0	0	
0	0	0	0	0	560	512	0	0	0	0	
1	0	0	0	0	563	514	0	0	0	0	
2	0	0	0	0	563	514	0	0	0	0	
3	0	0	0	0	563	515	0	0	0	0	
4	0	0	0	0	563	513	0	0	0	0	
5	0	0	0	0	561	511	0	0	0	0	
6	0	0	0	0	558	508	0	0	0	0	
7	0	0	0	0	554	504	0	0	0	0	
8	0	0	0	0	550	501	0	0	0	0	
9	0	0	0	0	546	497	0	0	0	0	
10	0	0	0	0	543	495	0	0	0	0	
11	0	0	0	0	540	492	0	0	0	0	
12	0	0	0	0	537	490	0	0	0	0	
13	0	0	0	0	535	489	0	0	0	0	
14	0	0	0	0	534	488	0	0	0	0	
15	0	0	0	0	534	488	0	0	0	0	
0	0	0	0	0	533	488	0	0	0	0	
1	0	0	0	0	533	487	0	0	0	0	
2	0	0	0	0	532	487	0	0	0	0	
3	0	0	0	0	532	487	0	0	0	0	
4	0	0	0	0	532	486	0	0	0	0	
5	0	0	0	0	532	484	0	0	0	0	
6	0	0	0	0	531	483	0	0	0	0	
7	0	0	0	0	530	482	0	0	0	0	
8	0	0	0	0	530	480	0	0	0	0	
9	0	0	0	0	530	480	0	0	0	0	
10	0	0	0	0	531	479	0	0	0	0	
11	0	0	0	0	531	479	0	0	0	0	
12	0	0	0	0	532	480	0	0	0	0	
13	0	0	0	0	535	482	0	0	0	0	
14	0	0	0	0	537	484	0	0	0	0	
15	0	0	0	0	539	486	0	0	0	0	
0	0	0	0	0	541	488	0	0	0	0	
1	0	0	0	0	542	491	0	0	0	0	
2	0	0	0	0	543	492	0	0	0	0	
3	0	0	0	0	543	493	0	0	0	0	
4	0	0	0	0	543	493	0	0	0	0	
5	0	0	0	0	542	492	0	0	0	0	
6	0	0	0	0	541	492	0	0	0	0	
7	0	0	0	0	540	491	0	0	0	0	
8	0	0	0	0	539	489	0	0	0	0	
9	0	0	0	0	537	487	0	0	0	0	
10	0	0	0	0	534	486	0	0	0	0	
11	0	0	0	0	533	483	0	0	0	0	
12	0	0	0	0	532	482	0	0	0	0	
13	0	0	0	0	531	481	0	0	0	0	
14	0	0	0	0	529	480	0	0	0	0	
15	0	0	0	0	529	480	0	0	0	0	
0	0	0	0	0	528	480	0	0	0	0	
1	0	0	0	0	529	480	0	0	0	0	
2	0	0	0	0	529	481	0	0	0	0	
3	0	0	0	0	530	482	0	0	0	0	
4	0	0	0	0	530	483	0	0	0	0	
5	0	0	0	0	530	483	0	0	0	0	
6	0	0	0	0	530	485	0	0	0	0	
7	0	0	0	0	530	485	0	0	0	0	
8	0	0	0	0	529	484	0	0	0	0	
9	0	0	0	0	529	485	0	0	0	0	
10	0	0	0	0	528	484	0	0	0	0	
11	0	0	0	0	528	483	0	0	0	0	
12	0	0	0	0	527	481	0	0	0	0	
13	0	0	0	0	526	480	0	0	0	0	
14	0	0	0	0	525	479	0	0	0	0	
15	0	0	0	0	524	477	0	0	0	0	
0	0	0	0	0	524	476	0	0	0	0	
1	0	0	0	0	523	475	0	0	0	0	
2	0	0	0	0	524	474	0	0	0	0	
3	0	0	0	0	524	474	0	0	0	0	
4	0	0	0	0	524	474	0	0	0	0	
5	0	0	0	0	525	475	0	0	0	0	
6	0	0	0	0	525	476	0	0	0	0	
7	0	0	0	0	526	476	0	0	0	0	
8	0	0	0	0	527	478	0	0	0	0	
9	0	0	0	0	527	479	0	0	0	0	
10	0	0	0	0	527	482	0	0	0	0	
11	0	0	0	0	528	483	0	0	0	0	
12	0	0	0	0	529	486	0	0	0	0	
13	0	0	0	0	530	487	0	0	0	0	
14	0	0	0	0	531	489	0	0	0	0	
15	0	0	0	0	533	491	0	0	0	0	
0	0	0	0	0	534	491	0	0	0	0	
1	0	0	0	0	535	492	0	0	0	0	
2	0	0	0	0	536	491	0	0	0	0	
3	0	0	0	0	536	490	0	0	0	0	
4	0	0	0	0	536	490	0	0	0	0	
5	0	0	0	0	535	488	0	0	0	0	
6	0	0	0	0	534	487	0	0	0	0	
7	0	0	0	0	532	485	0	0	0	0	
8	0	0	0	0	530	485	0	0	0	0	
9	0	0	0	0	529	484	0	0	0	0	
10	0	0	0	0	528	484	0	0	0	0	
11	0	0	0	0	527	484	0	0	0	0	
12	0	0	0	0	527	486	0	0	0	0	
13	0	0	0	0	527	487	0	0	0	0	
14	0	0	0	0	528	489	0	0	0	0	
15	0	0	0	0	530	491	0	0	0	0	
0	0	0	0	0	531	493	0	0	0	0	
1	0	0	0	0	533	495	0	0	0	0	
2	0	0	0	0	535	496	0	0	0	0	
3	0	0	0	0	537	498	0	0	0	0	
4	0	0	0	0	538	499	0	0	0	0	
5	0	0	0	0	540	499	0	0	0	0	
6	0	0	0	0	540	498	0	0	0	0	
7	0	0	0	0	540	497	0	0	0	0	
8	0	0	0	0	540	496	0	0	0	0	
9	0	0	0	0	540	495	0	0	0	0	
10	0	0	0	0	539	494	0	0	0	0	
11	0	0	0	0	538	493	0	0	0	0	
12	0	0	0	0	536	492	0	0	0	0	
13	0	0	0	0	536	493	0	0	0	0	
14	0	0	0	0	534	492	0	0	0	0	
15	0	0	0	0	533	492	0	0	0	0	
0	0	0	0	0	531	492	0	0	0	0	
1	0	0	0	0	530	492	0	0	0	0	
2	0	0	0	0	529	493	0	0	0	0	
3	0	0	0	0	528	492	0	0	0	0	
4	0	0	0	0	527	492	0	0	0	0	
5	0	0	0	0	525	491	0	0	0	0	
6	0	0	0	0	524	490	0	0	0	0	
7	0	0	0	0	525	490	0	0	0	0	
8	0	0	0	0	525	490	0	0	0	0	
9	0	0	0	0	525	489	0	0	0	0	
10	0	0	0	0	527	489	0	0	0	0	
11	0	0	0	0	527	488	0	0	0	0	
12	0	0	0	0	529	489	0	0	0	0	
13	0	0	0	0	531	489	0	0	0	0	
14	0	0	0	0	533	489	0	0	0	0	
15	0	0	0	0	534	490	0	0	0	0	
0	0	0	0	0	535	490	0	0	0	0	
1	0	0	0	0	536	492	0	0	0	0	
2	0	0	0	0	537	492	0	0	0	0	
3	0	0	0	0	537	493	0	0	0	0	
4	0	0	0	0	538	494	0	0	0	0	
5	0	0	0	0	537	494	0	0	0	0	
6	0	0	0	0	537	496	0	0	0	0	
7	0	0	0	0	537	496	0	0	0	0	
8	0	0	0	0	537	497	0	0	0	0	
9	0	0	0	0	537	497	0	0	0	0	
10	0	0	0	0	537	496	0	0	0	0	
11	0	0	0	0	537	495	0	0	0	0	
12	0	0	0	0	536	493	0	0	0	0	
13	0	0	0	0	535	490	0	0	0	0	
14	0	0	0	0	532	486	0	0	0	0	
15	0	0	0	0	531	483	0	0	0	0	
0	0	0	0	0	529	480	0	0	0	0	
1	0	0	0	0	527	478	0	0	0	0	
2	0	0	0	0	526	477	0	0	0	0	
3	0	0	0	0	526	476	0	0	0	0	
4	0	0	0	0	526	476	0	0	0	0	
5	0	0	0	0	526	478	0	0	0	0	
6	0	0	0	0	527	479	0	0	0	0	
7	0	0	0	0	528	481	0	0	0	0	
8	0	0	0	0	530	482	0	0	0	0	
9	0	0	0	0	531	484	0	0	0	0	
10	0	0	0	0	533	486	0	0	0	0	
11	0	0	0	0	534	487	0	0	0	0	
12	0	0	0	0	534	487	0	0	0	0	
13	0	0	0	0	534	486	0	0	0	0	
14	0	0	0	0	533	485	0	0	0	0	
15	0	0	0	0	532	483	0	0	0	0	
0	0	0	0	0	531	480	0	0	0	0	
1	0	0	0	0	529	477	0	0	0	0	
2	0	0	0	0	527	474	0	0	0	0	
3	0	0	0	0	525	472	0	0	0	0	
4	0	0	0	0	525	471	0	0	0	0	
5	0	0	0	0	526	470	0	0	0	0	
6	0	0	0	0	527	471	0	0	0	0	
7	0	0	0	0	529	472	0	0	0	0	
8	0	0	0	0	530	474	0	0	0	0	
9	0	0	0	0	533	476	0	0	0	0	
10	0	0	0	0	536	478	0	0	0	0	
11	0	0	0	0	537	480	0	0	0	0	
12	0	0	0	0	538	481	0	0	0	0	
13	0	0	0	0	539	484	0	0	0	0	
14	0	0	0	0	540	484	0	0	0	0	
15	0	0	0	0	540	485	0	0	0	0	
0	0	0	0	0	540	485	0	0	0	0	
1	0	0	0	0	538	484	0	0	0	0	
2	0	0	0	0	536	483	0	0	0	0	
3	0	0	0	0	536	481	0	0	0	0	
4	0	0	0	0	534	479	0	0	0	0	
5	0	0	0	0	532	477	0	0	0	0	
6	0	0	0	0	530	474	0	0	0	0	
7	0	0	0	0	528	472	0	0	0	0	
8	0	0	0	0	527	470	0	0	0	0	
9	0	0	0	0	526	467	0	0	0	0	
10	0	0	0	0	525	465	0	0	0	0	
11	0	0	0	0	525	463	0	0	0	0	
12	0	0	0	0	524	462	0	0	0	0	
13	0	0	0	0	526	462	0	0	0	0	
14	0	0	0	0	527	462	0	0	0	0	
15	0	0	0	0	528	463	0	0	0	0	
0	0	0	0	0	530	464	0	0	0	0	
1	0	0	0	0	531	467	0	0	0	0	
2	0	0	0	0	533	469	0	0	0	0	
3	0	0	0	0	534	471	0	0	0	0	
4	0	0	0	0	535	472	0	0	0	0	
5	0	0	0	0	535	473	0	0	0	0	
6	0	0	0	0	535	475	0	0	0	0	
7	0	0	0	0	535	475	0	0	0	0	
8	0	0	0	0	535	475	0	0	0	0	
9	0	0	0	0	534	474	0	0	0	0	
10	0	0	0	0	534	472	0	0	0	0	
11	0	0	0	0	533	472	0	0	0	0	
12	0	0	0	0	533	471	0	0	0	0	
13	0	0	0	0	533	470	0	0	0	0	
14	0	0	0	0	532	470	0	0	0	0	
15	0	0	0	0	532	469	0	0	0	0	
0	0	0	0	0	532	469	0	0	0	0	
1	0	0	0	0	532	469	0	0	0	0	
2	0	0	0	0	532	470	0	0	0	0	
3	0	0	0	0	531	470	0	0	0	0	
4	0	0	0	0	531	469	0	0	0	0	
5	0	0	0	0	529	467	0	0	0	0	
6	0	0	0	0	527	467	0	0	0	0	
7	0	0	0	0	524	465	0	0	0	0	
8	0	0	0	0	522	463	0	0	0	0	
9	0	0	0	0	519	460	0	0	0	0	
10	0	0	0	0	516	457	0	0	0	0	
11	0	0	0	0	515	455	0	0	0	0	
12	0	0	0	0	513	454	0	0	0	0	
13	0	0	0	0	513	453	0	0	0	0	
14	0	0	0	0	513	452	0	0	0	0	
15	0	0	0	0	515	453	0	0	0	0	
0	0	0	0	0	518	455	0	0	0	0	
1	0	0	0	0	521	459	0	0	0	0	
2	0	0	0	0	526	462	0	0	0	0	
3	0	0	0	0	531	467	0	0	0	0	
4	0	0	0	0	536	472	0	0	0	0	
5	0	0	0	0	540	476	0	0	0	0	
6	0	0	0	0	544	481	0	0	0	0	
7	0	0	0	0	546	484	0	0	0	0	
8	0	0	0	0	548	487	0	0	0	0	
9	0	0	0	0	548	488	0	0	0	0	
10	0	0	0	0	547	490	0	0	0	0	
11	0	0	0	0	546	491	0	0	0	0	
12	0	0	0	0	544	490	0	0	0	0	
13	0	0	0	0	542	488	0	0	0	0	
14	0	0	0	0	540	487	0	0	0	0	
15	0	0	0	0	537	485	0	0	0	0	
0	0	0	0	0	535	483	0	0	0	0	
1	0	0	0	0	533	481	0	0	0	0	
2	0	0	0	0	531	479	0	0	0	0	
3	0	0	0	0	529	477	0	0	0	0	
4	0	0	0	0	528	477	0	0	0	0	
5	0	0	0	0	527	476	0	0	0	0	
6	0	0	0	0	527	475	0	0	0	0	
7	0	0	0	0	527	475	0	0	0	0	
8	0	0	0	0	527	475	0	0	0	0	
9	0	0	0	0	527	476	0	0	0	0	
10	0	0	0	0	528	477	0	0	0	0	
11	0	0	0	0	529	478	0	0	0	0	
12	0	0	0	0	530	479	0	0	0	0	
13	0	0	0	0	530	480	0	0	0	0	
14	0	0	0	0	531	481	0	0	0	0	
15	0	0	0	0	532	481	0	0	0	0	
0	0	0	0	0	532	483	0	0	0	0	
1	0	0	0	0	534	484	0	0	0	0	
2	0	0	0	0	534	483	0	0	0	0	
3	0	0	0	0	535	485	0	0	0	0	
4	0	0	0	0	536	485	0	0	0	0	
5	0	0	0	0	536	485	0	0	0	0	
6	0	0	0	0	537	485	0	0	0	0	
7	0	0	0	0	537	486	0	0	0	0	
8	0	0	0	0	539	486	0	0	0	0	
9	0	0	0	0	540	486	0	0	0	0	
10	0	0	0	0	541	487	0	0	0	0	
11	0	0	0	0	543	488	0	0	0	0	
12	0	0	0	0	544	490	0	0	0	0	
13	0	0	0	0	547	492	0	0	0	0	
14	0	0	0	0	548	494	0	0	0	0	
15	0	0	0	0	550	496	0	0	0	0	
0	0	0	0	0	551	497	0	0	0	0	
1	0	0	0	0	551	499	0	0	0	0	
2	0	0	0	0	551	500	0	0	0	0	
3	0	0	0	0	550	500	0	0	0	0	
4	0	0	0	0	548	499	0	0	0	0	
5	0	0	0	0	546	498	0	0	0	0	
6	0	0	0	0	543	496	0	0	0	0	
7	0	0	0	0	541	494	0	0	0	0	
8	0	0	0	0	537	491	0	0	0	0	
9	0	0	0	0	535	489	0	0	0	0	
10	0	0	0	0	532	486	0	0	0	0	
11	0	0	0	0	531	483	0	0	0	0	
12	0	0	0	0	530	482	0	0	0	0	
13	0	0	0	0	530	481	0	0	0	0	
14	0	0	0	0	531	480	0	0	0	0	
15	0	0	0	0	533	481	0	0	0	0	
0	0	0	0	0	535	481	0	0	0	0	
1	0	0	0	0	537	483	0	0	0	0	
2	0	0	0	0	540	486	0	0	0	0	
3	0	0	0	0	543	488	0	0	0	0	
4	0	0	0	0	545	490	0	0	0	0	
5	0	0	0	0	546	492	0	0	0	0	
6	0	0	0	0	547	495	0	0	0	0	
7	0	0	0	0	548	496	0	0	0	0	
8	0	0	0	0	548	497	0	0	0	0	
9	0	0	0	0	547	497	0	0	0	0	
10	0	0	0	0	546	496	0	0	0	0	
11	0	0	0	0	545	496	0	0	0	0	
12	0	0	0	0	543	495	0	0	0	0	
13	0	0	0	0	542	493	0	0	0	0	
14	0	0	0	0	540	491	0	0	0	0	
15	0	0	0	0	539	489	0	0	0	0	
0	0	0	0	0	539	487	0	0	0	0	
1	0	0	0	0	539	487	0	0	0	0	
2	0	0	0	0	539	486	0	0	0	0	
3	0	0	0	0	540	485	0	0	0	0	
4	0	0	0	0	540	484	0	0	0	0	
5	0	0	0	0	541	484	0	0	0	0	
6	0	0	0	0	542	484	0	0	0	0	
7	0	0	0	0	542	483	0	0	0	0	
8	0	0	0	0	541	483	0	0	0	0	
9	0	0	0	0	540	481	0	0	0	0	
10	0	0	0	0	540	481	0	0	0	0	
11	0	0	0	0	539	480	0	0	0	0	
12	0	0	0	0	537	479	0	0	0	0	
13	0	0	0	0	536	478	0	0	0	0	
14	0	0	0	0	535	477	0	0	0	0	
15	0	0	0	0	533	476	0	0	0	0	
0	0	0	0	0	532	475	0	0	0	0	
1	0	0	0	0	530	473	0	0	0	0	
2	0	0	0	0	529	471	0	0	0	0	
3	0	0	0	0	527	468	0	0	0	0	
4	0	0	0	0	526	467	0	0	0	0	
5	0	0	0	0	525	466	0	0	0	0	
6	0	0	0	0	525	465	0	0	0	0	
7	0	0	0	0	524	463	0	0	0	0	
8	0	0	0	0	524	462	0	0	0	0	
9	0	0	0	0	523	462	0	0	0	0	
10	0	0	0	0	523	462	0	0	0	0	
11	0	0	0	0	523	463	0	0	0	0	
12	0	0	0	0	524	463	0	0	0	0	
13	0	0	0	0	524	464	0	0	0	0	
14	0	0	0	0	526	467	0	0	0	0	
15	0	0	0	0	527	470	0	0	0	0	
0	0	0	0	0	530	473	0	0	0	0	
1	0	0	0	0	533	476	0	0	0	0	
2	0	0	0	0	536	479	0	0	0	0	
3	0	0	0	0	540	483	0	0	0	0	
4	0	0	0	0	542	486	0	0	0	0	
5	0	0	0	0	545	488	0	0	0	0	
6	0	0	0	0	548	489	0	0	0	0	
7	0	0	0	0	549	491	0	0	0	0	
8	0	0	0	0	551	491	0	0	0	0	
9	0	0	0	0	551	490	0	0	0	0	
10	0	0	0	0	551	489	0	0	0	0	
11	0	0	0	0	550	488	0	0	0	0	
12	0	0	0	0	548	486	0	0	0	0	
13	0	0	0	0	547	485	0	0	0	0	
14	0	0	0	0	545	483	0	0	0	0	
15	0	0	0	0	543	481	0	0	0	0	
0	0	0	0	0	540	480	0	0	0	0	
1	0	0	0	0	537	478	0	0	0	0	
2	0	0	0	0	536	478	0	0	0	0	
3	0	0	0	0	534	477	0	0	0	0	
4	0	0	0	0	532	477	0	0	0	0	
5	0	0	0	0	531	476	0	0	0	0	
6	0	0	0	0	531	476	0	0	0	0	
7	0	0	0	0	531	476	0	0	0	0	
8	0	0	0	0	531	476	0	0	0	0	
9	0	0	0	0	532	476	0	0	0	0	
10	0	0	0	0	533	475	0	0	0	0	
11	0	0	0	0	533	475	0	0	0	0	
12	0	0	0	0	534	474	0	0	0	0	
13	0	0	0	0	535	473	0	0	0	0	
14	0	0	0	0	535	473	0	0	0	0	
15	0	0	0	0	535	472	0	0	0	0	
0	0	0	0	0	535	473	0	0	0	0	
1	0	0	0	0	536	473	0	0	0	0	
2	0	0	0	0	536	474	0	0	0	0	
3	0	0	0	0	536	475	0	0	0	0	
4	0	0	0	0	536	475	0	0	0	0	
5	0	0	0	0	535	476	0	0	0	0	
6	0	0	0	0	536	477	0	0	0	0	
7	0	0	0	0	535	478	0	0	0	0	
8	0	0	0	0	535	478	0	0	0	0	
9	0	0	0	0	534	478	0	0	0	0	
10	0	0	0	0	533	478	0	0	0	0	
11	0	0	0	0	532	478	0	0	0	0	
12	0	0	0	0	531	477	0	0	0	0	
13	0	0	0	0	531	476	0	0	0	0	
14	0	0	0	0	530	475	0	0	0	0	
15	0	0	0	0	529	474	0	0	0	0	
0	0	0	0	0	529	473	0	0	0	0	
1	0	0	0	0	528	472	0	0	0	0	
2	0	0	0	0	528	471	0	0	0	0	
3	0	0	0	0	527	470	0	0	0	0	
4	0	0	0	0	527	470	0	0	0	0	
5	0	0	0	0	527	470	0	0	0	0	
6	0	0	0	0	527	469	0	0	0	0	
7	0	0	0	0	527	469	0	0	0	0	
8	0	0	0	0	527	469	0	0	0	0	
9	0	0	0	0	526	470	0	0	0	0	
10	0	0	0	0	527	470	0	0	0	0	
11	0	0	0	0	526	469	0	0	0	0	
12	0	0	0	0	526	469	0	0	0	0	
13	0	0	0	0	525	468	0	0	0	0	
14	0	0	0	0	523	467	0	0	0	0	
15	0	0	0	0	523	466	0	0	0	0	
0	0	0	0	0	521	464	0	0	0	0	
1	0	0	0	0	519	462	0	0	0	0	
2	0	0	0	0	518	459	0	0	0	0	
3	0	0	0	0	515	457	0	0	0	0	
4	0	0	0	0	514	454	0	0	0	0	
5	0	0	0	0	511	451	0	0	0	0	
6	0	0	0	0	509	449	0	0	0	0	
7	0	0	0	0	508	447	0	0	0	0	
8	0	0	0	0	505	444	0	0	0	0	
9	0	0	0	0	503	442	0	0	0	0	
10	0	0	0	0	499	439	0	0	0	0	
11	0	0	0	0	495	436	0	0	0	0	
12	0	0	0	0	491	432	0	0	0	0	
13	0	0	0	0	486	428	0	0	0	0	
14	0	0	0	0	480	424	0	0	0	0	
15	0	0	0	0	475	419	0	0	0	0	
0	0	0	0	0	468	413	0	0	0	0	
1	0	0	0	0	462	407	0	0	0	0	
2	0	0	0	0	455	400	0	0	0	0	
3	0	0	0	0	448	392	0	0	0	0	
4	0	0	0	0	439	383	0	0	0	0	
5	0	0	0	0	431	373	0	0	0	0	
6	0	0	0	0	421	362	0	0	0	0	
7	0	0	0	0	410	350	0	0	0	0	
8	0	0	0	0	398	337	0	0	0	0	
9	0	0	0	0	385	323	0	0	0	0	
10	0	0	0	0	372	309	0	0	0	0	
11	0	0	0	0	359	296	0	0	0	0	
12	0	0	0	0	347	283	0	0	0	0	
13	0	0	0	0	336	273	0	0	0	0	
14	0	0	0	0	328	266	0	0	0	0	
15	0	0	0	0	324	262	0	0	0	0	
0	0	0	0	0	323	261	0	0	0	0	
1	0	0	0	0	327	265	0	0	0	0	
2	0	0	0	0	335	272	0	0	0	0	
3	0	0	0	0	348	283	0	0	0	0	
4	0	0	0	0	365	297	0	0	0	0	
5	0	0	0	0	384	314	0	0	0	0	
6	0	0	0	0	406	333	0	0	0	0	
7	0	0	0	0	429	354	0	0	0	0	
8	0	0	0	0	452	374	0	0	0	0	
9	0	0	0	0	476	395	0	0	0	0	
10	0	0	0	0	497	414	0	0	0	0	
11	0	0	0	0	516	432	0	0	0	0	
12	0	0	0	0	532	447	0	0	0	0	
13	0	0	0	0	546	460	0	0	0	0	
14	0	0	0	0	556	471	0	0	0	0	
15	0	0	0	0	563	479	0	0	0	0	
0	0	0	0	0	567	485	0	0	0	0	
1	0	0	0	0	569	490	0	0	0	0	
2	0	0	0	0	569	492	0	0	0	0	
3	0	0	0	0	568	493	0	0	0	0	
4	0	0	0	0	564	492	0	0	0	0	
5	0	0	0	0	560	489	0	0	0	0	
6	0	0	0	0	556	487	0	0	0	0	
7	0	0	0	0	551	484	0	0	0	0	
8	0	0	0	0	545	480	0	0	0	0	
9	0	0	0	0	541	476	0	0	0	0	
10	0	0	0	0	537	473	0	0	0	0	
11	0	0	0	0	536	471	0	0	0	0	
12	0	0	0	0	535	469	0	0	0	0	
13	0	0	0	0	535	468	0	0	0	0	
14	0	0	0	0	536	468	0	0	0	0	
15	0	0	0	0	539	468	0	0	0	0	
0	0	0	0	0	542	470	0	0	0	0	
1	0	0	0	0	545	472	0	0	0	0	
2	0	0	0	0	549	474	0	0	0	0	
3	0	0	0	0	552	476	0	0	0	0	
4	0	0	0	0	555	478	0	0	0	0	
5	0	0	0	0	558	481	0	0	0	0	
6	0	0	0	0	560	483	0	0	0	0	
7	0	0	0	0	561	484	0	0	0	0	
8	0	0	0	0	561	484	0	0	0	0	
9	0	0	0	0	560	485	0	0	0	0	
10	0	0	0	0	559	485	0	0	0	0	
11	0	0	0	0	557	484	0	0	0	0	
12	0	0	0	0	555	484	0	0	0	0	
13	0	0	0	0	552	483	0	0	0	0	
14	0	0	0	0	551	482	0	0	0	0	
15	0	0	0	0	549	482	0	0	0	0	
0	0	0	0	0	548	482	0	0	0	0	
1	0	0	0	0	547	481	0	0	0	0	
2	0	0	0	0	547	481	0	0	0	0	
3	0	0	0	0	547	481	0	0	0	0	
4	0	0	0	0	548	482	0	0	0	0	
5	0	0	0	0	549	482	0	0	0	0	
6	0	0	0	0	551	482	0	0	0	0	
7	0	0	0	0	552	483	0	0	0	0	
8	0	0	0	0	553	484	0	0	0	0	
9	0	0	0	0	555	484	0	0	0	0	
10	0	0	0	0	557	485	0	0	0	0	
11	0	0	0	0	558	486	0	0	0	0	
12	0	0	0	0	558	486	0	0	0	0	
13	0	0	0	0	558	486	0	0	0	0	
14	0	0	0	0	559	486	0	0	0	0	
15	0	0	0	0	558	485	0	0	0	0	
0	0	0	0	0	558	484	0	0	0	0	
1	0	0	0	0	557	483	0	0	0	0	
2	0	0	0	0	556	482	0	0	0	0	
3	0	0	0	0	555	482	0	0	0	0	
4	0	0	0	0	553	480	0	0	0	0	
5	0	0	0	0	552	479	0	0	0	0	
6	0	0	0	0	551	478	0	0	0	0	
7	0	0	0	0	548	476	0	0	0	0	
8	0	0	0	0	547	476	0	0	0	0	
9	0	0	0	0	546	475	0	0	0	0	
10	0	0	0	0	544	473	0	0	0	0	
11	0	0	0	0	543	472	0	0	0	0	
12	0	0	0	0	542	472	0	0	0	0	
13	0	0	0	0	542	472	0	0	0	0	
14	0	0	0	0	542	472	0	0	0	0	
15	0	0	0	0	542	472	0	0	0	0	
0	0	0	0	0	543	473	0	0	0	0	
1	0	0	0	0	543	474	0	0	0	0	
2	0	0	0	0	545	476	0	0	0	0	
3	0	0	0	0	547	478	0	0	0	0	
4	0	0	0	0	548	480	0	0	0	0	
5	0	0	0	0	549	481	0	0	0	0	
6	0	0	0	0	550	482	0	0	0	0	
7	0	0	0	0	551	484	0	0	0	0	
8	0	0	0	0	552	485	0	0	0	0	
9	0	0	0	0	553	486	0	0	0	0	
10	0	0	0	0	553	486	0	0	0	0	
11	0	0	0	0	553	486	0	0	0	0	
12	0	0	0	0	553	486	0	0	0	0	
13	0	0	0	0	552	485	0	0	0	0	
14	0	0	0	0	551	483	0	0	0	0	
15	0	0	0	0	549	482	0	0	0	0	
0	0	0	0	0	547	480	0	0	0	0	
1	0	0	0	0	546	479	0	0	0	0	
2	0	0	0	0	545	478	0	0	0	0	
3	0	0	0	0	544	478	0	0	0	0	
4	0	0	0	0	543	478	0	0	0	0	
5	0	0	0	0	543	478	0	0	0	0	
6	0	0	0	0	545	480	0	0	0	0	
7	0	0	0	0	546	481	0	0	0	0	
8	0	0	0	0	548	483	0	0	0	0	
9	0	0	0	0	550	484	0	0	0	0	
10	0	0	0	0	551	485	0	0	0	0	
11	0	0	0	0	552	486	0	0	0	0	
12	0	0	0	0	552	486	0	0	0	0	
13	0	0	0	0	552	486	0	0	0	0	
14	0	0	0	0	552	485	0	0	0	0	
15	0	0	0	0	551	484	0	0	0	0	
0	0	0	0	0	551	483	0	0	0	0	
1	0	0	0	0	549	482	0	0	0	0	
2	0	0	0	0	548	480	0	0	0	0	
3	0	0	0	0	547	480	0	0	0	0	
4	0	0	0	0	547	479	0	0	0	0	
5	0	0	0	0	547	480	0	0	0	0	
6	0	0	0	0	549	481	0	0	0	0	
7	0	0	0	0	551	483	0	0	0	0	
8	0	0	0	0	553	485	0	0	0	0	
9	0	0	0	0	555	487	0	0	0	0	
10	0	0	0	0	558	491	0	0	0	0	
11	0	0	0	0	560	492	0	0	0	0	
12	0	0	0	0	561	495	0	0	0	0	
13	0	0	0	0	562	496	0	0	0	0	
14	0	0	0	0	562	496	0	0	0	0	
15	0	0	0	0	563	496	0	0	0	0	
0	0	0	0	0	561	495	0	0	0	0	
1	0	0	0	0	560	493	0	0	0	0	
2	0	0	0	0	558	491	0	0	0	0	
3	0	0	0	0	555	489	0	0	0	0	
4	0	0	0	0	552	487	0	0	0	0	
5	0	0	0	0	549	484	0	0	0	0	
6	0	0	0	0	547	482	0	0	0	0	
7	0	0	0	0	543	480	0	0	0	0	
8	0	0	0	0	541	478	0	0	0	0	
9	0	0	0	0	540	477	0	0	0	0	
10	0	0	0	0	539	476	0	0	0	0	
11	0	0	0	0	539	476	0	0	0	0	
12	0	0	0	0	540	478	0	0	0	0	
13	0	0	0	0	541	479	0	0	0	0	
14	0	0	0	0	543	482	0	0	0	0	
15	0	0	0	0	547	485	0	0	0	0	
0	0	0	0	0	551	487	0	0	0	0	
1	0	0	0	0	554	490	0	0	0	0	
2	0	0	0	0	558	493	0	0	0	0	
3	0	0	0	0	561	497	0	0	0	0	
4	0	0	0	0	565	499	0	0	0	0	
5	0	0	0	0	568	501	0	0	0	0	
6	0	0	0	0	570	503	0	0	0	0	
7	0	0	0	0	572	503	0	0	0	0	
8	0	0	0	0	573	503	0	0	0	0	
9	0	0	0	0	573	501	0	0	0	0	
10	0	0	0	0	572	499	0	0	0	0	
11	0	0	0	0	569	496	0	0	0	0	
12	0	0	0	0	566	492	0	0	0	0	
13	0	0	0	0	562	489	0	0	0	0	
14	0	0	0	0	558	486	0	0	0	0	
15	0	0	0	0	554	483	0	0	0	0	
0	0	0	0	0	550	480	0	0	0	0	
1	0	0	0	0	546	478	0	0	0	0	
2	0	0	0	0	544	477	0	0	0	0	
3	0	0	0	0	543	476	0	0	0	0	
4	0	0	0	0	542	476	0	0	0	0	
5	0	0	0	0	541	476	0	0	0	0	
6	0	0	0	0	542	476	0	0	0	0	
7	0	0	0	0	542	476	0	0	0	0	
8	0	0	0	0	543	476	0	0	0	0	
9	0	0	0	0	544	476	0	0	0	0	
10	0	0	0	0	546	476	0	0	0	0	
11	0	0	0	0	547	476	0	0	0	0	
12	0	0	0	0	550	478	0	0	0	0	
13	0	0	0	0	551	478	0	0	0	0	
14	0	0	0	0	553	479	0	0	0	0	
15	0	0	0	0	554	479	0	0	0	0	
0	0	0	0	0	555	480	0	0	0	0	
1	0	0	0	0	556	481	0	0	0	0	
2	0	0	0	0	558	483	0	0	0	0	
3	0	0	0	0	559	484	0	0	0	0	
4	0	0	0	0	560	486	0	0	0	0	
5	0	0	0	0	560	488	0	0	0	0	
6	0	0	0	0	561	490	0	0	0	0	
7	0	0	0	0	561	491	0	0	0	0	
8	0	0	0	0	561	492	0	0	0	0	
9	0	0	0	0	561	492	0	0	0	0	
10	0	0	0	0	560	490	0	0	0	0	
11	0	0	0	0	560	489	0	0	0	0	
12	0	0	0	0	558	486	0	0	0	0	
13	0	0	0	0	556	483	0	0	0	0	
14	0	0	0	0	555	480	0	0	0	0	
15	0	0	0	0	552	476	0	0	0	0	
0	0	0	0	0	551	474	0	0	0	0	
1	0	0	0	0	550	472	0	0	0	0	
2	0	0	0	0	549	470	0	0	0	0	
3	0	0	0	0	549	469	0	0	0	0	
4	0	0	0	0	549	469	0	0	0	0	
5	0	0	0	0	551	470	0	0	0	0	
6	0	0	0	0	553	472	0	0	0	0	
7	0	0	0	0	556	473	0	0	0	0	
8	0	0	0	0	558	476	0	0	0	0	
9	0	0	0	0	560	478	0	0	0	0	
10	0	0	0	0	563	481	0	0	0	0	
11	0	0	0	0	563	483	0	0	0	0	
12	0	0	0	0	564	485	0	0	0	0	
13	0	0	0	0	565	487	0	0	0	0	
14	0	0	0	0	564	487	0	0	0	0	
15	0	0	0	0	563	487	0	0	0	0	
0	0	0	0	0	563	487	0	0	0	0	
1	0	0	0	0	561	486	0	0	0	0	
2	0	0	0	0	560	484	0	0	0	0	
3	0	0	0	0	558	483	0	0	0	0	
4	0	0	0	0	557	481	0	0	0	0	
5	0	0	0	0	556	479	0	0	0	0	
6	0	0	0	0	555	476	0	0	0	0	
7	0	0	0	0	554	475	0	0	0	0	
8	0	0	0	0	553	474	0	0	0	0	
9	0	0	0	0	554	474	0	0	0	0	
10	0	0	0	0	555	474	0	0	0	0	
11	0	0	0	0	556	474	0	0	0	0	
12	0	0	0	0	556	475	0	0	0	0	
13	0	0	0	0	557	476	0	0	0	0	
14	0	0	0	0	559	476	0	0	0	0	
15	0	0	0	0	559	477	0	0	0	0	
0	0	0	0	0	559	477	0	0	0	0	
1	0	0	0	0	558	476	0	0	0	0	
2	0	0	0	0	557	475	0	0	0	0	
3	0	0	0	0	555	473	0	0	0	0	
4	0	0	0	0	552	471	0	0	0	0	
5	0	0	0	0	550	467	0	0	0	0	
6	0	0	0	0	547	464	0	0	0	0	
7	0	0	0	0	545	462	0	0	0	0	
8	0	0	0	0	543	460	0	0	0	0	
9	0	0	0	0	542	458	0	0	0	0	
10	0	0	0	0	541	457	0	0	0	0	
11	0	0	0	0	542	456	0	0	0	0	
12	0	0	0	0	543	456	0	0	0	0	
13	0	0	0	0	544	457	0	0	0	0	
14	0	0	0	0	546	458	0	0	0	0	
15	0	0	0	0	548	460	0	0	0	0	
0	0	0	0	0	550	461	0	0	0	0	
1	0	0	0	0	551	463	0	0	0	0	
2	0	0	0	0	553	464	0	0	0	0	
3	0	0	0	0	554	465	0	0	0	0	
4	0	0	0	0	555	466	0	0	0	0	
5	0	0	0	0	555	467	0	0	0	0	
6	0	0	0	0	554	466	0	0	0	0	
7	0	0	0	0	554	467	0	0	0	0	
8	0	0	0	0	554	467	0	0	0	0	
9	0	0	0	0	554	466	0	0	0	0	
10	0	0	0	0	554	465	0	0	0	0	
11	0	0	0	0	554	465	0	0	0	0	
12	0	0	0	0	556	466	0	0	0	0	
13	0	0	0	0	556	465	0	0	0	0	
14	0	0	0	0	557	466	0	0	0	0	
15	0	0	0	0	557	465	0	0	0	0	
0	0	0	0	0	556	466	0	0	0	0	
1	0	0	0	0	556	465	0	0	0	0	
2	0	0	0	0	554	464	0	0	0	0	
3	0	0	0	0	553	463	0	0	0	0	
4	0	0	0	0	550	463	0	0	0	0	
5	0	0	0	0	548	462	0	0	0	0	
6	0	0	0	0	546	461	0	0	0	0	
7	0	0	0	0	545	461	0	0	0	0	
8	0	0	0	0	544	460	0	0	0	0	
9	0	0	0	0	543	460	0	0	0	0	
10	0	0	0	0	543	459	0	0	0	0	
11	0	0	0	0	544	460	0	0	0	0	
12	0	0	0	0	544	460	0	0	0	0	
13	0	0	0	0	545	460	0	0	0	0	
14	0	0	0	0	546	460	0	0	0	0	
15	0	0	0	0	546	461	0	0	0	0	
0	0	0	0	0	548	462	0	0	0	0	
1	0	0	0	0	550	463	0	0	0	0	
2	0	0	0	0	551	464	0	0	0	0	
3	0	0	0	0	552	465	0	0	0	0	
4	0	0	0	0	553	466	0	0	0	0	
5	0	0	0	0	554	468	0	0	0	0	
6	0	0	0	0	555	469	0	0	0	0	
7	0	0	0	0	555	470	0	0	0	0	
8	0	0	0	0	556	472	0	0	0	0	
9	0	0	0	0	557	472	0	0	0	0	
10	0	0	0	0	557	473	0	0	0	0	
11	0	0	0	0	557	473	0	0	0	0	
12	0	0	0	0	556	472	0	0	0	0	
13	0	0	0	0	556	472	0	0	0	0	
14	0	0	0	0	553	469	0	0	0	0	
15	0	0	0	0	551	467	0	0	0	0	
0	0	0	0	0	550	465	0	0	0	0	
1	0	0	0	0	547	462	0	0	0	0	
2	0	0	0	0	546	460	0	0	0	0	
3	0	0	0	0	544	457	0	0	0	0	
4	0	0	0	0	544	456	0	0	0	0	
5	0	0	0	0	543	455	0	0	0	0	
6	0	0	0	0	543	455	0	0	0	0	
7	0	0	0	0	543	455	0	0	0	0	
8	0	0	0	0	543	456	0	0	0	0	
9	0	0	0	0	544	458	0	0	0	0	
10	0	0	0	0	545	459	0	0	0	0	
11	0	0	0	0	545	460	0	0	0	0	
12	0	0	0	0	545	462	0	0	0	0	
13	0	0	0	0	544	463	0	0	0	0	
14	0	0	0	0	545	464	0	0	0	0	
15	0	0	0	0	545	465	0	0	0	0	
0	0	0	0	0	545	466	0	0	0	0	
1	0	0	0	0	545	466	0	0	0	0	
2	0	0	0	0	545	467	0	0	0	0	
3	0	0	0	0	546	467	0	0	0	0	
4	0	0	0	0	547	466	0	0	0	0	
5	0	0	0	0	547	465	0	0	0	0	
6	0	0	0	0	547	465	0	0	0	0	
7	0	0	0	0	546	464	0	0	0	0	
8	0	0	0	0	547	463	0	0	0	0	
9	0	0	0	0	547	463	0	0	0	0	
10	0	0	0	0	547	463	0	0	0	0	
11	0	0	0	0	547	463	0	0	0	0	
12	0	0	0	0	547	463	0	0	0	0	
13	0	0	0	0	547	463	0	0	0	0	
14	0	0	0	0	547	464	0	0	0	0	
15	0	0	0	0	547	464	0	0	0	0	
0	0	0	0	0	545	465	0	0	0	0	
1	0	0	0	0	544	465	0	0	0	0	
2	0	0	0	0	544	466	0	0	0	0	
3	0	0	0	0	542	466	0	0	0	0	
4	0	0	0	0	541	466	0	0	0	0	
5	0	0	0	0	540	465	0	0	0	0	
6	0	0	0	0	539	465	0	0	0	0	
7	0	0	0	0	537	464	0	0	0	0	
8	0	0	0	0	536	462	0	0	0	0	
9	0	0	0	0	535	461	0	0	0	0	
10	0	0	0	0	534	460	0	0	0	0	
11	0	0	0	0	533	459	0	0	0	0	
12	0	0	0	0	534	459	0	0	0	0	
13	0	0	0	0	535	459	0	0	0	0	
14	0	0	0	0	536	460	0	0	0	0	
15	0	0	0	0	539	461	0	0	0	0	
0	0	0	0	0	541	461	0	0	0	0	
1	0	0	0	0	543	463	0	0	0	0	
2	0	0	0	0	547	465	0	0	0	0	
3	0	0	0	0	549	467	0	0	0	0	
4	0	0	0	0	551	468	0	0	0	0	
5	0	0	0	0	552	469	0	0	0	0	
6	0	0	0	0	553	470	0	0	0	0	
7	0	0	0	0	552	470	0	0	0	0	
8	0	0	0	0	551	470	0	0	0	0	
9	0	0	0	0	550	469	0	0	0	0	
10	0	0	0	0	547	469	0	0	0	0	
11	0	0	0	0	547	468	0	0	0	0	
12	0	0	0	0	545	467	0	0	0	0	
13	0	0	0	0	544	467	0	0	0	0	
14	0	0	0	0	544	467	0	0	0	0	
15	0	0	0	0	543	466	0	0	0	0	
0	0	0	0	0	544	466	0	0	0	0	
1	0	0	0	0	545	467	0	0	0	0	
2	0	0	0	0	546	467	0	0	0	0	
3	0	0	0	0	547	466	0	0	0	0	
4	0	0	0	0	548	467	0	0	0	0	
5	0	0	0	0	550	467	0	0	0	0	
6	0	0	0	0	550	467	0	0	0	0	
7	0	0	0	0	551	467	0	0	0	0	
8	0	0	0	0	551	467	0	0	0	0	
9	0	0	0	0	551	467	0	0	0	0	
10	0	0	0	0	551	468	0	0	0	0	
11	0	0	0	0	551	468	0	0	0	0	
12	0	0	0	0	550	468	0	0	0	0	
13	0	0	0	0	548	467	0	0	0	0	
14	0	0	0	0	547	466	0	0	0	0	
15	0	0	0	0	545	465	0	0	0	0	
0	0	0	0	0	544	464	0	0	0	0	
1	0	0	0	0	543	463	0	0	0	0	
2	0	0	0	0	542	462	0	0	0	0	
3	0	0	0	0	541	460	0	0	0	0	
4	0	0	0	0	540	459	0	0	0	0	
5	0	0	0	0	540	458	0	0	0	0	
6	0	0	0	0	540	456	0	0	0	0	
7	0	0	0	0	540	455	0	0	0	0	
8	0	0	0	0	540	456	0	0	0	0	
9	0	0	0	0	540	456	0	0	0	0	
10	0	0	0	0	541	457	0	0	0	0	
11	0	0	0	0	541	459	0	0	0	0	
12	0	0	0	0	542	460	0	0	0	0	
13	0	0	0	0	542	462	0	0	0	0	
14	0	0	0	0	543	463	0	0	0	0	
15	0	0	0	0	544	464	0	0	0	0	
0	0	0	0	0	545	464	0	0	0	0	
1	0	0	0	0	545	464	0	0	0	0	
2	0	0	0	0	545	464	0	0	0	0	
3	0	0	0	0	546	463	0	0	0	0	
4	0	0	0	0	545	462	0	0	0	0	
5	0	0	0	0	545	460	0	0	0	0	
6	0	0	0	0	544	458	0	0	0	0	
7	0	0	0	0	543	457	0	0	0	0	
8	0	0	0	0	545	456	0	0	0	0	
9	0	0	0	0	545	456	0	0	0	0	
10	0	0	0	0	545	456	0	0	0	0	
11	0	0	0	0	546	455	0	0	0	0	
12	0	0	0	0	545	457	0	0	0	0	
13	0	0	0	0	547	458	0	0	0	0	
14	0	0	0	0	548	460	0	0	0	0	
15	0	0	0	0	549	461	0	0	0	0	
0	0	0	0	0	550	463	0	0	0	0	
1	0	0	0	0	550	464	0	0	0	0	
2	0	0	0	0	551	466	0	0	0	0	
3	0	0	0	0	552	467	0	0	0	0	
4	0	0	0	0	553	467	0	0	0	0	
5	0	0	0	0	554	467	0	0	0	0	
6	0	0	0	0	554	466	0	0	0	0	
7	0	0	0	0	555	465	0	0	0	0	
8	0	0	0	0	554	463	0	0	0	0	
9	0	0	0	0	553	462	0	0	0	0	
10	0	0	0	0	553	460	0	0	0	0	
11	0	0	0	0	551	457	0	0	0	0	
12	0	0	0	0	551	456	0	0	0	0	
13	0	0	0	0	548	453	0	0	0	0	
14	0	0	0	0	547	451	0	0	0	0	
15	0	0	0	0	545	449	0	0	0	0	
0	0	0	0	0	542	447	0	0	0	0	
1	0	0	0	0	541	446	0	0	0	0	
2	0	0	0	0	540	444	0	0	0	0	
3	0	0	0	0	539	444	0	0	0	0	
4	0	0	0	0	538	444	0	0	0	0	
5	0	0	0	0	537	444	0	0	0	0	
6	0	0	0	0	539	445	0	0	0	0	
7	0	0	0	0	540	446	0	0	0	0	
8	0	0	0	0	540	447	0	0	0	0	
9	0	0	0	0	542	448	0	0	0	0	
10	0	0	0	0	543	449	0	0	0	0	
11	0	0	0	0	544	450	0	0	0	0	
12	0	0	0	0	546	451	0	0	0	0	
13	0	0	0	0	547	451	0	0	0	0	
14	0	0	0	0	549	451	0	0	0	0	
15	0	0	0	0	549	452	0	0	0	0	
0	0	0	0	0	550	451	0	0	0	0	
1	0	0	0	0	550	451	0	0	0	0	
2	0	0	0	0	549	450	0	0	0	0	
3	0	0	0	0	548	448	0	0	0	0	
4	0	0	0	0	546	447	0	0	0	0	
5	0	0	0	0	544	446	0	0	0	0	
6	0	0	0	0	543	445	0	0	0	0	
7	0	0	0	0	542	445	0	0	0	0	
8	0	0	0	0	541	444	0	0	0	0	
9	0	0	0	0	541	445	0	0	0	0	
10	0	0	0	0	542	446	0	0	0	0	
11	0	0	0	0	543	448	0	0	0	0	
12	0	0	0	0	544	448	0	0	0	0	
13	0	0	0	0	544	449	0	0	0	0	
14	0	0	0	0	545	449	0	0	0	0	
15	0	0	0	0	546	449	0	0	0	0	
0	0	0	0	0	546	449	0	0	0	0	
1	0	0	0	0	546	448	0	0	0	0	
2	0	0	0	0	545	447	0	0	0	0	
3	0	0	0	0	545	446	0	0	0	0	
4	0	0	0	0	544	445	0	0	0	0	
5	0	0	0	0	544	445	0	0	0	0	
6	0	0	0	0	544	444	0	0	0	0	
7	0	0	0	0	543	443	0	0	0	0	
8	0	0	0	0	543	443	0	0	0	0	
9	0	0	0	0	542	443	0	0	0	0	
10	0	0	0	0	542	443	0	0	0	0	
11	0	0	0	0	541	443	0	0	0	0	
12	0	0	0	0	541	444	0	0	0	0	
13	0	0	0	0	540	444	0	0	0	0	
14	0	0	0	0	540	445	0	0	0	0	
15	0	0	0	0	539	445	0	0	0	0	
0	0	0	0	0	539	445	0	0	0	0	
1	0	0	0	0	539	445	0	0	0	0	
2	0	0	0	0	538	444	0	0	0	0	
3	0	0	0	0	537	444	0	0	0	0	
4	0	0	0	0	536	443	0	0	0	0	
5	0	0	0	0	536	441	0	0	0	0	
6	0	0	0	0	534	440	0	0	0	0	
7	0	0	0	0	533	438	0	0	0	0	
8	0	0	0	0	532	437	0	0	0	0	
9	0	0	0	0	532	437	0	0	0	0	
10	0	0	0	0	532	436	0	0	0	0	
11	0	0	0	0	533	437	0	0	0	0	
12	0	0	0	0	534	438	0	0	0	0	
13	0	0	0	0	536	440	0	0	0	0	
14	0	0	0	0	539	443	0	0	0	0	
15	0	0	0	0	540	446	0	0	0	0	
0	0	0	0	0	543	449	0	0	0	0	
1	0	0	0	0	544	453	0	0	0	0	
2	0	0	0	0	547	456	0	0	0	0	
3	0	0	0	0	548	459	0	0	0	0	
4	0	0	0	0	548	461	0	0	0	0	
5	0	0	0	0	548	463	0	0	0	0	
6	0	0	0	0	547	463	0	0	0	0	
7	0	0	0	0	547	462	0	0	0	0	
8	0	0	0	0	544	461	0	0	0	0	
9	0	0	0	0	543	460	0	0	0	0	
10	0	0	0	0	541	458	0	0	0	0	
11	0	0	0	0	540	455	0	0	0	0	
12	0	0	0	0	539	454	0	0	0	0	
13	0	0	0	0	538	453	0	0	0	0	
14	0	0	0	0	538	452	0	0	0	0	
15	0	0	0	0	538	452	0	0	0	0	
0	0	0	0	0	539	452	0	0	0	0	
1	0	0	0	0	540	454	0	0	0	0	
2	0	0	0	0	542	456	0	0	0	0	
3	0	0	0	0	544	458	0	0	0	0	
4	0	0	0	0	546	461	0	0	0	0	
5	0	0	0	0	547	463	0	0	0	0	
6	0	0	0	0	549	466	0	0	0	0	
7	0	0	0	0	550	468	0	0	0	0	
8	0	0	0	0	550	469	0	0	0	0	
9	0	0	0	0	550	469	0	0	0	0	
10	0	0	0	0	548	469	0	0	0	0	
11	0	0	0	0	547	468	0	0	0	0	
12	0	0	0	0	544	467	0	0	0	0	
13	0	0	0	0	541	464	0	0	0	0	
14	0	0	0	0	538	460	0	0	0	0	
15	0	0	0	0	534	458	0	0	0	0	
0	0	0	0	0	532	455	0	0	0	0	
1	0	0	0	0	529	453	0	0	0	0	
2	0	0	0	0	527	451	0	0	0	0	
3	0	0	0	0	527	450	0	0	0	0	
4	0	0	0	0	526	450	0	0	0	0	
5	0	0	0	0	527	451	0	0	0	0	
6	0	0	0	0	528	451	0	0	0	0	
7	0	0	0	0	529	453	0	0	0	0	
8	0	0	0	0	531	455	0	0	0	0	
9	0	0	0	0	533	455	0	0	0	0	
10	0	0	0	0	535	458	0	0	0	0	
11	0	0	0	0	537	460	0	0	0	0	
12	0	0	0	0	538	461	0	0	0	0	
13	0	0	0	0	539	462	0	0	0	0	
14	0	0	0	0	540	462	0	0	0	0	
15	0	0	0	0	540	463	0	0	0	0	
0	0	0	0	0	540	463	0	0	0	0	
1	0	0	0	0	539	462	0	0	0	0	
2	0	0	0	0	538	461	0	0	0	0	
3	0	0	0	0	537	460	0	0	0	0	
4	0	0	0	0	537	459	0	0	0	0	
5	0	0	0	0	536	457	0	0	0	0	
6	0	0	0	0	535	457	0	0	0	0	
7	0	0	0	0	533	456	0	0	0	0	
8	0	0	0	0	531	456	0	0	0	0	
9	0	0	0	0	532	457	0	0	0	0	
10	0	0	0	0	531	457	0	0	0	0	
11	0	0	0	0	531	457	0	0	0	0	
12	0	0	0	0	531	458	0	0	0	0	
13	0	0	0	0	530	457	0	0	0	0	
14	0	0	0	0	530	459	0	0	0	0	
15	0	0	0	0	530	459	0	0	0	0	
0	0	0	0	0	529	458	0	0	0	0	
1	0	0	0	0	529	457	0	0	0	0	
2	0	0	0	0	528	455	0	0	0	0	
3	0	0	0	0	528	455	0	0	0	0	
4	0	0	0	0	527	453	0	0	0	0	
5	0	0	0	0	528	452	0	0	0	0	
6	0	0	0	0	528	452	0	0	0	0	
7	0	0	0	0	530	451	0	0	0	0	
8	0	0	0	0	531	452	0	0	0	0	
9	0	0	0	0	534	454	0	0	0	0	
10	0	0	0	0	537	456	0	0	0	0	
11	0	0	0	0	540	459	0	0	0	0	
12	0	0	0	0	543	461	0	0	0	0	
13	0	0	0	0	547	466	0	0	0	0	
14	0	0	0	0	551	469	0	0	0	0	
15	0	0	0	0	554	473	0	0	0	0	
0	0	0	0	0	557	476	0	0	0	0	
1	0	0	0	0	559	479	0	0	0	0	
2	0	0	0	0	560	481	0	0	0	0	
3	0	0	0	0	560	482	0	0	0	0	
4	0	0	0	0	559	481	0	0	0	0	
5	0	0	0	0	558	480	0	0	0	0	
6	0	0	0	0	555	478	0	0	0	0	
7	0	0	0	0	552	475	0	0	0	0	
8	0	0	0	0	549	472	0	0	0	0	
9	0	0	0	0	547	468	0	0	0	0	
10	0	0	0	0	544	465	0	0	0	0	
11	0	0	0	0	542	462	0	0	0	0	
12	0	0	0	0	540	460	0	0	0	0	
13	0	0	0	0	539	457	0	0	0	0	
14	0	0	0	0	538	456	0	0	0	0	
15	0	0	0	0	538	455	0	0	0	0	
0	0	0	0	0	537	454	0	0	0	0	
1	0	0	0	0	538	455	0	0	0	0	
2	0	0	0	0	538	455	0	0	0	0	
3	0	0	0	0	539	456	0	0	0	0	
4	0	0	0	0	539	456	0	0	0	0	
5	0	0	0	0	539	457	0	0	0	0	
6	0	0	0	0	539	458	0	0	0	0	
7	0	0	0	0	539	459	0	0	0	0	
8	0	0	0	0	538	458	0	0	0	0	
9	0	0	0	0	538	458	0	0	0	0	
10	0	0	0	0	536	457	0	0	0	0	
11	0	0	0	0	537	457	0	0	0	0	
12	0	0	0	0	537	456	0	0	0	0	
13	0	0	0	0	537	456	0	0	0	0	
14	0	0	0	0	538	455	0	0	0	0	
15	0	0	0	0	538	455	0	0	0	0	
0	0	0	0	0	540	455	0	0	0	0	
1	0	0	0	0	540	456	0	0	0	0	
2	0	0	0	0	541	456	0	0	0	0	
3	0	0	0	0	542	455	0	0	0	0	
4	0	0	0	0	541	455	0	0	0	0	
5	0	0	0	0	542	455	0	0	0	0	
6	0	0	0	0	542	455	0	0	0	0	
7	0	0	0	0	542	455	0	0	0	0	
8	0	0	0	0	542	454	0	0	0	0	
9	0	0	0	0	541	455	0	0	0	0	
10	0	0	0	0	542	455	0	0	0	0	
11	0	0	0	0	542	455	0	0	0	0	
12	0	0	0	0	542	455	0	0	0	0	
13	0	0	0	0	542	454	0	0	0	0	
14	0	0	0	0	541	453	0	0	0	0	
15	0	0	0	0	541	452	0	0	0	0	
0	0	0	0	0	540	450	0	0	0	0	
1	0	0	0	0	538	448	0	0	0	0	
2	0	0	0	0	537	447	0	0	0	0	
3	0	0	0	0	535	444	0	0	0	0	
4	0	0	0	0	533	441	0	0	0	0	
5	0	0	0	0	531	439	0	0	0	0	
6	0	0	0	0	528	437	0	0	0	0	
7	0	0	0	0	526	435	0	0	0	0	
8	0	0	0	0	524	434	0	0	0	0	
9	0	0	0	0	524	433	0	0	0	0	
10	0	0	0	0	524	434	0	0	0	0	
11	0	0	0	0	525	435	0	0	0	0	
12	0	0	0	0	527	438	0	0	0	0	
13	0	0	0	0	528	440	0	0	0	0	
14	0	0	0	0	531	442	0	0	0	0	
15	0	0	0	0	532	444	0	0	0	0	
0	0	0	0	0	532	444	0	0	0	0	
1	0	0	0	0	531	442	0	0	0	0	
2	0	0	0	0	528	439	0	0	0	0	
3	0	0	0	0	524	434	0	0	0	0	
4	0	0	0	0	518	427	0	0	0	0	
5	0	0	0	0	509	419	0	0	0	0	
6	0	0	0	0	499	408	0	0	0	0	
7	0	0	0	0	487	396	0	0	0	0	
8	0	0	0	0	476	384	0	0	0	0	
9	0	0	0	0	463	370	0	0	0	0	
10	0	0	0	0	450	356	0	0	0	0	
11	0	0	0	0	436	342	0	0	0	0	
12	0	0	0	0	422	327	0	0	0	0	
13	0	0	0	0	408	314	0	0	0	0	
14	0	0	0	0	395	301	0	0	0	0	
15	0	0	0	0	382	288	0	0	0	0	
0	0	0	0	0	370	277	0	0	0	0	
1	0	0	0	0	359	266	0	0	0	0	
2	0	0	0	0	349	257	0	0	0	0	
3	0	0	0	0	341	249	0	0	0	0	
4	0	0	0	0	336	244	0	0	0	0	
5	0	0	0	0	333	241	0	0	0	0	
6	0	0	0	0	333	241	0	0	0	0	
7	0	0	0	0	338	244	0	0	0	0	
8	0	0	0	0	346	251	0	0	0	0	
9	0	0	0	0	358	259	0	0	0	0	
10	0	0	0	0	373	271	0	0	0	0	
11	0	0	0	0	390	286	0	0	0	0	
12	0	0	0	0	410	304	0	0	0	0	
13	0	0	0	0	431	322	0	0	0	0	
14	0	0	0	0	452	341	0	0	0	0	
15	0	0	0	0	472	361	0	0	0	0	
0	0	0	0	0	492	380	0	0	0	0	
1	0	0	0	0	509	399	0	0	0	0	
2	0	0	0	0	524	416	0	0	0	0	
3	0	0	0	0	537	431	0	0	0	0	
4	0	0	0	0	547	444	0	0	0	0	
5	0	0	0	0	555	455	0	0	0	0	
6	0	0	0	0	561	464	0	0	0	0	
7	0	0	0	0	566	470	0	0	0	0	
8	0	0	0	0	568	475	0	0	0	0	
9	0	0	0	0	569	477	0	0	0	0	
10	0	0	0	0	569	479	0	0	0	0	
11	0	0	0	0	569	479	0	0	0	0	
12	0	0	0	0	568	477	0	0	0	0	
13	0	0	0	0	566	475	0	0	0	0	
14	0	0	0	0	564	472	0	0	0	0	
15	0	0	0	0	561	469	0	0	0	0	
0	0	0	0	0	559	466	0	0	0	0	
1	0	0	0	0	556	463	0	0	0	0	
2	0	0	0	0	553	461	0	0	0	0	
3	0	0	0	0	551	459	0	0	0	0	
4	0	0	0	0	548	459	0	0	0	0	
5	0	0	0	0	547	458	0	0	0	0	
6	0	0	0	0	546	458	0	0	0	0	
7	0	0	0	0	545	459	0	0	0	0	
8	0	0	0	0	545	460	0	0	0	0	
9	0	0	0	0	545	462	0	0	0	0	
10	0	0	0	0	547	463	0	0	0	0	
11	0	0	0	0	547	464	0	0	0	0	
12	0	0	0	0	548	465	0	0	0	0	
13	0	0	0	0	550	464	0	0	0	0	
14	0	0	0	0	551	465	0	0	0	0	
15	0	0	0	0	553	466	0	0	0	0	
0	0	0	0	0	554	465	0	0	0	0	
1	0	0	0	0	555	464	0	0	0	0	
2	0	0	0	0	555	464	0	0	0	0	
3	0	0	0	0	555	463	0	0	0	0	
4	0	0	0	0	556	463	0	0	0	0	
5	0	0	0	0	555	463	0	0	0	0	
6	0	0	0	0	555	463	0	0	0	0	
7	0	0	0	0	555	463	0	0	0	0	
8	0	0	0	0	554	465	0	0	0	0	
9	0	0	0	0	555	467	0	0	0	0	
10	0	0	0	0	556	469	0	0	0	0	
11	0	0	0	0	558	472	0	0	0	0	
12	0	0	0	0	559	475	0	0	0	0	
13	0	0	0	0	561	477	0	0	0	0	
14	0	0	0	0	563	481	0	0	0	0	
15	0	0	0	0	566	484	0	0	0	0	
0	0	0	0	0	568	486	0	0	0	0	
1	0	0	0	0	570	487	0	0	0	0	
2	0	0	0	0	570	488	0	0	0	0	
3	0	0	0	0	571	488	0	0	0	0	
4	0	0	0	0	571	487	0	0	0	0	
5	0	0	0	0	570	485	0	0	0	0	
6	0	0	0	0	568	482	0	0	0	0	
7	0	0	0	0	565	479	0	0	0	0	
8	0	0	0	0	562	476	0	0	0	0	
9	0	0	0	0	560	473	0	0	0	0	
10	0	0	0	0	556	471	0	0	0	0	
11	0	0	0	0	555	469	0	0	0	0	
12	0	0	0	0	552	467	0	0	0	0	
13	0	0	0	0	551	467	0	0	0	0	
14	0	0	0	0	551	466	0	0	0	0	
15	0	0	0	0	551	467	0	0	0	0	
0	0	0	0	0	551	467	0	0	0	0	
1	0	0	0	0	552	469	0	0	0	0	
2	0	0	0	0	554	471	0	0	0	0	
3	0	0	0	0	556	472	0	0	0	0	
4	0	0	0	0	557	473	0	0	0	0	
5	0	0	0	0	559	475	0	0	0	0	
6	0	0	0	0	561	475	0	0	0	0	
7	0	0	0	0	562	476	0	0	0	0	
8	0	0	0	0	563	477	0	0	0	0	
9	0	0	0	0	563	476	0	0	0	0	
10	0	0	0	0	563	476	0	0	0	0	
11	0	0	0	0	563	474	0	0	0	0	
12	0	0	0	0	563	475	0	0	0	0	
13	0	0	0	0	563	473	0	0	0	0	
14	0	0	0	0	563	473	0	0	0	0	
15	0	0	0	0	563	474	0	0	0	0	
0	0	0	0	0	563	475	0	0	0	0	
1	0	0	0	0	565	476	0	0	0	0	
2	0	0	0	0	565	477	0	0	0	0	
3	0	0	0	0	566	479	0	0	0	0	
4	0	0	0	0	567	480	0	0	0	0	
5	0	0	0	0	567	480	0	0	0	0	
6	0	0	0	0	567	481	0	0	0	0	
7	0	0	0	0	567	481	0	0	0	0	
8	0	0	0	0	567	481	0	0	0	0	
9	0	0	0	0	567	481	0	0	0	0	
10	0	0	0	0	566	480	0	0	0	0	
11	0	0	0	0	567	479	0	0	0	0	
12	0	0	0	0	567	478	0	0	0	0	
13	0	0	0	0	567	477	0	0	0	0	
14	0	0	0	0	567	476	0	0	0	0	
15	0	0	0	0	568	475	0	0	0	0	
0	0	0	0	0	569	475	0	0	0	0	
1	0	0	0	0	569	474	0	0	0	0	
2	0	0	0	0	570	474	0	0	0	0	
3	0	0	0	0	570	473	0	0	0	0	
4	0	0	0	0	569	473	0	0	0	0	
5	0	0	0	0	569	473	0	0	0	0	
6	0	0	0	0	568	474	0	0	0	0	
7	0	0	0	0	568	474	0	0	0	0	
8	0	0	0	0	567	474	0	0	0	0	
9	0	0	0	0	566	475	0	0	0	0	
10	0	0	0	0	565	475	0	0	0	0	
11	0	0	0	0	564	475	0	0	0	0	
12	0	0	0	0	563	475	0	0	0	0	
13	0	0	0	0	563	474	0	0	0	0	
14	0	0	0	0	561	473	0	0	0	0	
15	0	0	0	0	561	472	0	0	0	0	
0	0	0	0	0	559	471	0	0	0	0	
1	0	0	0	0	558	469	0	0	0	0	
2	0	0	0	0	557	467	0	0	0	0	
3	0	0	0	0	555	464	0	0	0	0	
4	0	0	0	0	553	463	0	0	0	0	
5	0	0	0	0	552	461	0	0	0	0	
6	0	0	0	0	551	459	0	0	0	0	
7	0	0	0	0	548	456	0	0	0	0	
8	0	0	0	0	547	453	0	0	0	0	
9	0	0	0	0	546	452	0	0	0	0	
10	0	0	0	0	545	450	0	0	0	0	
11	0	0	0	0	544	449	0	0	0	0	
12	0	0	0	0	544	448	0	0	0	0	
13	0	0	0	0	544	448	0	0	0	0	
14	0	0	0	0	545	448	0	0	0	0	
15	0	0	0	0	546	449	0	0	0	0	
0	0	0	0	0	547	449	0	0	0	0	
1	0	0	0	0	548	449	0	0	0	0	
2	0	0	0	0	548	448	0	0	0	0	
3	0	0	0	0	549	449	0	0	0	0	
4	0	0	0	0	549	448	0	0	0	0	
5	0	0	0	0	550	447	0	0	0	0	
6	0	0	0	0	549	446	0	0	0	0	
7	0	0	0	0	548	446	0	0	0	0	
8	0	0	0	0	548	446	0	0	0	0	
9	0	0	0	0	548	445	0	0	0	0	
10	0	0	0	0	547	445	0	0	0	0	
11	0	0	0	0	547	444	0	0	0	0	
12	0	0	0	0	546	444	0	0	0	0	
13	0	0	0	0	545	444	0	0	0	0	
14	0	0	0	0	544	443	0	0	0	0	
15	0	0	0	0	543	443	0	0	0	0	
0	0	0	0	0	543	443	0	0	0	0	
1	0	0	0	0	542	441	0	0	0	0	
2	0	0	0	0	541	442	0	0	0	0	
3	0	0	0	0	541	442	0	0	0	0	
4	0	0	0	0	541	441	0	0	0	0	
5	0	0	0	0	541	441	0	0	0	0	
6	0	0	0	0	540	440	0	0	0	0	
7	0	0	0	0	540	440	0	0	0	0	
8	0	0	0	0	540	438	0	0	0	0	
9	0	0	0	0	539	436	0	0	0	0	
10	0	0	0	0	538	434	0	0	0	0	
11	0	0	0	0	536	432	0	0	0	0	
12	0	0	0	0	536	431	0	0	0	0	
13	0	0	0	0	536	430	0	0	0	0	
14	0	0	0	0	536	430	0	0	0	0	
15	0	0	0	0	536	430	0	0	0	0	
0	0	0	0	0	537	431	0	0	0	0	
1	0	0	0	0	539	432	0	0	0	0	
2	0	0	0	0	541	435	0	0	0	0	
3	0	0	0	0	544	438	0	0	0	0	
4	0	0	0	0	547	440	0	0	0	0	
5	0	0	0	0	550	444	0	0	0	0	
6	0	0	0	0	552	447	0	0	0	0	
7	0	0	0	0	555	450	0	0	0	0	
8	0	0	0	0	556	452	0	0	0	0	
9	0	0	0	0	558	453	0	0	0	0	
10	0	0	0	0	557	453	0	0	0	0	
11	0	0	0	0	557	453	0	0	0	0	
12	0	0	0	0	555	451	0	0	0	0	
13	0	0	0	0	553	449	0	0	0	0	
14	0	0	0	0	550	447	0	0	0	0	
15	0	0	0	0	547	444	0	0	0	0	
0	0	0	0	0	544	441	0	0	0	0	
1	0	0	0	0	540	438	0	0	0	0	
2	0	0	0	0	537	435	0	0	0	0	
3	0	0	0	0	534	432	0	0	0	0	
4	0	0	0	0	531	430	0	0	0	0	
5	0	0	0	0	530	429	0	0	0	0	
6	0	0	0	0	528	428	0	0	0	0	
7	0	0	0	0	528	428	0	0	0	0	
8	0	0	0	0	528	428	0	0	0	0	
9	0	0	0	0	527	429	0	0	0	0	
10	0	0	0	0	529	430	0	0	0	0	
11	0	0	0	0	531	431	0	0	0	0	
12	0	0	0	0	532	432	0	0	0	0	
13	0	0	0	0	534	433	0	0	0	0	
14	0	0	0	0	534	434	0	0	0	0	
15	0	0	0	0	536	435	0	0	0	0	
0	0	0	0	0	536	435	0	0	0	0	
1	0	0	0	0	536	435	0	0	0	0	
2	0	0	0	0	536	433	0	0	0	0	
3	0	0	0	0	535	433	0	0	0	0	
4	0	0	0	0	536	432	0	0	0	0	
5	0	0	0	0	535	432	0	0	0	0	
6	0	0	0	0	534	431	0	0	0	0	
7	0	0	0	0	534	431	0	0	0	0	
8	0	0	0	0	533	431	0	0	0	0	
9	0	0	0	0	534	432	0	0	0	0	
10	0	0	0	0	534	433	0	0	0	0	
11	0	0	0	0	534	435	0	0	0	0	
12	0	0	0	0	535	436	0	0	0	0	
13	0	0	0	0	535	438	0	0	0	0	
14	0	0	0	0	536	439	0	0	0	0	
15	0	0	0	0	536	440	0	0	0	0	
0	0	0	0	0	536	440	0	0	0	0	
1	0	0	0	0	535	439	0	0	0	0	
2	0	0	0	0	533	438	0	0	0	0	
3	0	0	0	0	532	436	0	0	0	0	
4	0	0	0	0	531	435	0	0	0	0	
5	0	0	0	0	530	433	0	0	0	0	
6	0	0	0	0	529	432	0	0	0	0	
7	0	0	0	0	527	432	0	0	0	0	
8	0	0	0	0	527	432	0	0	0	0	
9	0	0	0	0	527	432	0	0	0	0	
10	0	0	0	0	527	432	0	0	0	0	
11	0	0	0	0	528	433	0	0	0	0	
12	0	0	0	0	528	435	0	0	0	0	
13	0	0	0	0	530	438	0	0	0	0	
14	0	0	0	0	532	440	0	0	0	0	
15	0	0	0	0	533	441	0	0	0	0	
0	0	0	0	0	535	444	0	0	0	0	
1	0	0	0	0	536	445	0	0	0	0	
2	0	0	0	0	537	447	0	0	0	0	
3	0	0	0	0	538	447	0	0	0	0	
4	0	0	0	0	539	448	0	0	0	0	
5	0	0	0	0	539	447	0	0	0	0	
6	0	0	0	0	539	447	0	0	0	0	
7	0	0	0	0	538	447	0	0	0	0	
8	0	0	0	0	538	446	0	0	0	0	
9	0	0	0	0	537	445	0	0	0	0	
10	0	0	0	0	536	443	0	0	0	0	
11	0	0	0	0	535	441	0	0	0	0	
12	0	0	0	0	534	440	0	0	0	0	
13	0	0	0	0	532	439	0	0	0	0	
14	0	0	0	0	530	437	0	0	0	0	
15	0	0	0	0	528	436	0	0	0	0	
0	0	0	0	0	526	435	0	0	0	0	
1	0	0	0	0	525	434	0	0	0	0	
2	0	0	0	0	524	434	0	0	0	0	
3	0	0	0	0	523	434	0	0	0	0	
4	0	0	0	0	523	435	0	0	0	0	
5	0	0	0	0	524	436	0	0	0	0	
6	0	0	0	0	526	440	0	0	0	0	
7	0	0	0	0	529	443	0	0	0	0	
8	0	0	0	0	532	446	0	0	0	0	
9	0	0	0	0	534	449	0	0	0	0	
10	0	0	0	0	538	452	0	0	0	0	
11	0	0	0	0	541	455	0	0	0	0	
12	0	0	0	0	545	459	0	0	0	0	
13	0	0	0	0	547	461	0	0	0	0	
14	0	0	0	0	550	462	0	0	0	0	
15	0	0	0	0	551	463	0	0	0	0	
0	0	0	0	0	552	463	0	0	0	0	
1	0	0	0	0	553	464	0	0	0	0	
2	0	0	0	0	553	464	0	0	0	0	
3	0	0	0	0	552	463	0	0	0	0	
4	0	0	0	0	551	463	0	0	0	0	
5	0	0	0	0	550	463	0	0	0	0	
6	0	0	0	0	548	463	0	0	0	0	
7	0	0	0	0	547	462	0	0	0	0	
8	0	0	0	0	545	462	0	0	0	0	
9	0	0	0	0	543	460	0	0	0	0	
10	0	0	0	0	542	460	0	0	0	0	
11	0	0	0	0	540	458	0	0	0	0	
12	0	0	0	0	538	457	0	0	0	0	
13	0	0	0	0	536	455	0	0	0	0	
14	0	0	0	0	535	453	0	0	0	0	
15	0	0	0	0	535	452	0	0	0	0	
0	0	0	0	0	535	451	0	0	0	0	
1	0	0	0	0	536	450	0	0	0	0	
2	0	0	0	0	537	451	0	0	0	0	
3	0	0	0	0	538	451	0	0	0	0	
4	0	0	0	0	541	453	0	0	0	0	
5	0	0	0	0	543	455	0	0	0	0	
6	0	0	0	0	545	457	0	0	0	0	
7	0	0	0	0	547	460	0	0	0	0	
8	0	0	0	0	548	462	0	0	0	0	
9	0	0	0	0	550	464	0	0	0	0	
10	0	0	0	0	550	465	0	0	0	0	
11	0	0	0	0	549	466	0	0	0	0	
12	0	0	0	0	549	466	0	0	0	0	
13	0	0	0	0	547	464	0	0	0	0	
14	0	0	0	0	544	462	0	0	0	0	
15	0	0	0	0	541	459	0	0	0	0	
0	0	0	0	0	537	455	0	0	0	0	
1	0	0	0	0	533	450	0	0	0	0	
2	0	0	0	0	528	444	0	0	0	0	
3	0	0	0	0	525	440	0	0	0	0	
4	0	0	0	0	520	435	0	0	0	0	
5	0	0	0	0	517	432	0	0	0	0	
6	0	0	0	0	515	428	0	0	0	0	
7	0	0	0	0	513	427	0	0	0	0	
8	0	0	0	0	515	428	0	0	0	0	
9	0	0	0	0	518	430	0	0	0	0	
10	0	0	0	0	523	434	0	0	0	0	
11	0	0	0	0	529	440	0	0	0	0	
12	0	0	0	0	536	447	0	0	0	0	
13	0	0	0	0	544	455	0	0	0	0	
14	0	0	0	0	552	463	0	0	0	0	
15	0	0	0	0	560	471	0	0	0	0	
0	0	0	0	0	568	477	0	0	0	0	
1	0	0	0	0	572	483	0	0	0	0	
2	0	0	0	0	576	487	0	0	0	0	
3	0	0	0	0	577	488	0	0	0	0	
4	0	0	0	0	577	488	0	0	0	0	
5	0	0	0	0	575	486	0	0	0	0	
6	0	0	0	0	572	483	0	0	0	0	
7	0	0	0	0	567	479	0	0	0	0	
8	0	0	0	0	562	474	0	0	0	0	
9	0	0	0	0	556	467	0	0	0	0	
10	0	0	0	0	548	460	0	0	0	0	
11	0	0	0	0	542	452	0	0	0	0	
12	0	0	0	0	536	446	0	0	0	0	
13	0	0	0	0	530	440	0	0	0	0	
14	0	0	0	0	525	435	0	0	0	0	
15	0	0	0	0	521	431	0	0	0	0	
0	0	0	0	0	519	428	0	0	0	0	
1	0	0	0	0	519	428	0	0	0	0	
2	0	0	0	0	519	429	0	0	0	0	
3	0	0	0	0	522	431	0	0	0	0	
4	0	0	0	0	525	435	0	0	0	0	
5	0	0	0	0	528	438	0	0	0	0	
6	0	0	0	0	532	444	0	0	0	0	
7	0	0	0	0	536	448	0	0	0	0	
8	0	0	0	0	538	451	0	0	0	0	
9	0	0	0	0	540	453	0	0	0	0	
10	0	0	0	0	541	454	0	0	0	0	
11	0	0	0	0	541	455	0	0	0	0	
12	0	0	0	0	540	454	0	0	0	0	
13	0	0	0	0	539	452	0	0	0	0	
14	0	0	0	0	537	449	0	0	0	0	
15	0	0	0	0	535	447	0	0	0	0	
0	0	0	0	0	533	445	0	0	0	0	
1	0	0	0	0	531	442	0	0	0	0	
2	0	0	0	0	530	440	0	0	0	0	
3	0	0	0	0	529	439	0	0	0	0	
4	0	0	0	0	528	438	0	0	0	0	
5	0	0	0	0	530	438	0	0	0	0	
6	0	0	0	0	531	438	0	0	0	0	
7	0	0	0	0	532	439	0	0	0	0	
8	0	0	0	0	534	440	0	0	0	0	
9	0	0	0	0	535	440	0	0	0	0	
10	0	0	0	0	536	442	0	0	0	0	
11	0	0	0	0	537	442	0	0	0	0	
12	0	0	0	0	538	443	0	0	0	0	
13	0	0	0	0	538	444	0	0	0	0	
14	0	0	0	0	538	443	0	0	0	0	
15	0	0	0	0	539	444	0	0	0	0	
0	0	0	0	0	539	444	0	0	0	0	
1	0	0	0	0	539	444	0	0	0	0	
2	0	0	0	0	539	445	0	0	0	0	
3	0	0	0	0	540	444	0	0	0	0	
4	0	0	0	0	540	444	0	0	0	0	
5	0	0	0	0	540	444	0	0	0	0	
6	0	0	0	0	539	443	0	0	0	0	
7	0	0	0	0	538	441	0	0	0	0	
8	0	0	0	0	536	440	0	0	0	0	
9	0	0	0	0	536	439	0	0	0	0	
10	0	0	0	0	535	438	0	0	0	0	
11	0	0	0	0	533	436	0	0	0	0	
12	0	0	0	0	531	435	0	0	0	0	
13	0	0	0	0	529	433	0	0	0	0	
14	0	0	0	0	527	433	0	0	0	0	
15	0	0	0	0	526	432	0	0	0	0	
0	0	0	0	0	524	430	0	0	0	0	
1	0	0	0	0	523	429	0	0	0	0	
2	0	0	0	0	521	427	0	0	0	0	
3	0	0	0	0	519	425	0	0	0	0	
4	0	0	0	0	517	423	0	0	0	0	
5	0	0	0	0	515	421	0	0	0	0	
6	0	0	0	0	514	419	0	0	0	0	
7	0	0	0	0	512	417	0	0	0	0	
8	0	0	0	0	513	417	0	0	0	0	
9	0	0	0	0	512	416	0	0	0	0	
10	0	0	0	0	513	416	0	0	0	0	
11	0	0	0	0	514	416	0	0	0	0	
12	0	0	0	0	515	418	0	0	0	0	
13	0	0	0	0	518	419	0	0	0	0	
14	0	0	0	0	519	422	0	0	0	0	
15	0	0	0	0	521	423	0	0	0	0	
0	0	0	0	0	524	425	0	0	0	0	
1	0	0	0	0	524	428	0	0	0	0	
2	0	0	0	0	527	430	0	0	0	0	
3	0	0	0	0	528	431	0	0	0	0	
4	0	0	0	0	528	432	0	0	0	0	
5	0	0	0	0	528	432	0	0	0	0	
6	0	0	0	0	527	432	0	0	0	0	
7	0	0	0	0	527	432	0	0	0	0	
8	0	0	0	0	525	431	0	0	0	0	
9	0	0	0	0	524	429	0	0	0	0	
10	0	0	0	0	523	428	0	0	0	0	
11	0	0	0	0	522	426	0	0	0	0	
12	0	0	0	0	522	425	0	0	0	0	
13	0	0	0	0	523	425	0	0	0	0	
14	0	0	0	0	524	426	0	0	0	0	
15	0	0	0	0	524	427	0	0	0	0	
0	0	0	0	0	526	428	0	0	0	0	
1	0	0	0	0	527	430	0	0	0	0	
2	0	0	0	0	529	432	0	0	0	0	
3	0	0	0	0	531	434	0	0	0	0	
4	0	0	0	0	532	437	0	0	0	0	
5	0	0	0	0	534	439	0	0	0	0	
6	0	0	0	0	535	442	0	0	0	0	
7	0	0	0	0	536	445	0	0	0	0	
8	0	0	0	0	536	447	0	0	0	0	
9	0	0	0	0	537	448	0	0	0	0	
10	0	0	0	0	536	449	0	0	0	0	
11	0	0	0	0	535	448	0	0	0	0	
12	0	0	0	0	534	447	0	0	0	0	
13	0	0	0	0	531	445	0	0	0	0	
14	0	0	0	0	529	442	0	0	0	0	
15	0	0	0	0	526	439	0	0	0	0	
0	0	0	0	0	523	436	0	0	0	0	
1	0	0	0	0	520	432	0	0	0	0	
2	0	0	0	0	518	429	0	0	0	0	
3	0	0	0	0	515	426	0	0	0	0	
4	0	0	0	0	514	423	0	0	0	0	
5	0	0	0	0	512	423	0	0	0	0	
6	0	0	0	0	512	422	0	0	0	0	
7	0	0	0	0	512	423	0	0	0	0	
8	0	0	0	0	513	424	0	0	0	0	
9	0	0	0	0	515	427	0	0	0	0	
10	0	0	0	0	519	430	0	0	0	0	
11	0	0	0	0	521	434	0	0	0	0	
12	0	0	0	0	525	437	0	0	0	0	
13	0	0	0	0	527	441	0	0	0	0	
14	0	0	0	0	530	443	0	0	0	0	
15	0	0	0	0	532	445	0	0	0	0	
0	0	0	0	0	534	446	0	0	0	0	
1	0	0	0	0	534	447	0	0	0	0	
2	0	0	0	0	533	447	0	0	0	0	
3	0	0	0	0	532	446	0	0	0	0	
4	0	0	0	0	531	446	0	0	0	0	
5	0	0	0	0	529	444	0	0	0	0	
6	0	0	0	0	527	444	0	0	0	0	
7	0	0	0	0	526	443	0	0	0	0	
8	0	0	0	0	523	443	0	0	0	0	
9	0	0	0	0	523	443	0	0	0	0	
10	0	0	0	0	523	443	0	0	0	0	
11	0	0	0	0	523	444	0	0	0	0	
12	0	0	0	0	523	444	0	0	0	0	
13	0	0	0	0	523	444	0	0	0	0	
14	0	0	0	0	524	445	0	0	0	0	
15	0	0	0	0	524	446	0	0	0	0	
0	0	0	0	0	524	446	0	0	0	0	
1	0	0	0	0	524	446	0	0	0	0	
2	0	0	0	0	524	444	0	0	0	0	
3	0	0	0	0	523	445	0	0	0	0	
4	0	0	0	0	523	444	0	0	0	0	
5	0	0	0	0	522	443	0	0	0	0	
6	0	0	0	0	521	442	0	0	0	0	
7	0	0	0	0	519	441	0	0	0	0	
8	0	0	0	0	519	441	0	0	0	0	
9	0	0	0	0	518	441	0	0	0	0	
10	0	0	0	0	518	441	0	0	0	0	
11	0	0	0	0	518	441	0	0	0	0	
12	0	0	0	0	518	443	0	0	0	0	
13	0	0	0	0	520	444	0	0	0	0	
