# OpenSignals Text File Format. Version 1
# {"": {"position": 0, "device": "", "device name": "", "device connection": "", "sampling rate": 1000, "resolution": [4, 1, 1, 1, 1, 10, 10, 10, 10, 6, 6], "firmware version": 1281, "comments": "", "keywords": "", "mode": 0, "sync interval": 2, "date": "", "time": "", "channels": [1, 2, 3, 4, 5, 6], "sensor": ["RAW", "RAW", "RAW", "RAW", "RAW", "RAW"], "label": ["A1", "A2", "A3", "A4", "A5", "A6"], "column": ["nSeq", "I1", "I2", "O1", "O2", "A1", "A2", "A3", "A4", "A5", "A6"], "special": [{}, {}, {}, {}, {}, {}], "digital IO": [0, 0, 1, 1], "convertedValues": 0}}
# EndOfHeader
0	0	0	0	0	526	509	0	0	0	0	
1	0	0	0	0	526	508	0	0	0	0	
2	0	0	0	0	526	507	0	0	0	0	
3	0	0	0	0	526	505	0	0	0	0	
4	0	0	0	0	526	504	0	0	0	0	
5	0	0	0	0	525	504	0	0	0	0	
6	0	0	0	0	525	503	0	0	0	0	
7	0	0	0	0	524	503	0	0	0	0	
8	0	0	0	0	525	503	0	0	0	0	
9	0	0	0	0	524	504	0	0	0	0	
10	0	0	0	0	524	504	0	0	0	0	
11	0	0	0	0	524	505	0	0	0	0	
12	0	0	0	0	524	506	0	0	0	0	
13	0	0	0	0	524	507	0	0	0	0	
14	0	0	0	0	524	508	0	0	0	0	
15	0	0	0	0	524	508	0	0	0	0	
0	0	0	0	0	524	508	0	0	0	0	
1	0	0	0	0	524	508	0	0	0	0	
2	0	0	0	0	525	508	0	0	0	0	
3	0	0	0	0	525	507	0	0	0	0	
4	0	0	0	0	524	505	0	0	0	0	
5	0	0	0	0	524	504	0	0	0	0	
6	0	0	0	0	525	503	0	0	0	0	
7	0	0	0	0	524	502	0	0	0	0	
8	0	0	0	0	524	500	0	0	0	0	
9	0	0	0	0	524	500	0	0	0	0	
10	0	0	0	0	524	499	0	0	0	0	
11	0	0	0	0	524	499	0	0	0	0	
12	0	0	0	0	524	500	0	0	0	0	
13	0	0	0	0	524	500	0	0	0	0	
14	0	0	0	0	524	501	0	0	0	0	
15	0	0	0	0	524	502	0	0	0	0	
0	0	0	0	0	524	502	0	0	0	0	
1	0	0	0	0	524	503	0	0	0	0	
2	0	0	0	0	524	503	0	0	0	0	
3	0	0	0	0	524	503	0	0	0	0	
4	0	0	0	0	524	503	0	0	0	0	
5	0	0	0	0	524	503	0	0	0	0	
6	0	0	0	0	524	502	0	0	0	0	
7	0	0	0	0	524	501	0	0	0	0	
8	0	0	0	0	524	500	0	0	0	0	
9	0	0	0	0	524	499	0	0	0	0	
10	0	0	0	0	524	499	0	0	0	0	
11	0	0	0	0	523	498	0	0	0	0	
12	0	0	0	0	523	498	0	0	0	0	
13	0	0	0	0	523	498	0	0	0	0	
14	0	0	0	0	524	498	0	0	0	0	
15	0	0	0	0	524	499	0	0	0	0	
0	0	0	0	0	524	499	0	0	0	0	
1	0	0	0	0	525	501	0	0	0	0	
2	0	0	0	0	525	502	0	0	0	0	
3	0	0	0	0	525	503	0	0	0	0	
4	0	0	0	0	525	504	0	0	0	0	
5	0	0	0	0	524	506	0	0	0	0	
6	0	0	0	0	525	507	0	0	0	0	
7	0	0	0	0	524	508	0	0	0	0	
8	0	0	0	0	524	508	0	0	0	0	
9	0	0	0	0	524	508	0	0	0	0	
10	0	0	0	0	524	508	0	0	0	0	
11	0	0	0	0	524	508	0	0	0	0	
12	0	0	0	0	524	507	0	0	0	0	
13	0	0	0	0	524	506	0	0	0	0	
14	0	0	0	0	524	505	0	0	0	0	
15	0	0	0	0	524	504	0	0	0	0	
0	0	0	0	0	525	504	0	0	0	0	
1	0	0	0	0	525	503	0	0	0	0	
2	0	0	0	0	526	502	0	0	0	0	
3	0	0	0	0	526	502	0	0	0	0	
4	0	0	0	0	526	502	0	0	0	0	
5	0	0	0	0	527	502	0	0	0	0	
6	0	0	0	0	527	503	0	0	0	0	
7	0	0	0	0	527	504	0	0	0	0	
8	0	0	0	0	526	504	0	0	0	0	
9	0	0	0	0	526	504	0	0	0	0	
10	0	0	0	0	525	505	0	0	0	0	
11	0	0	0	0	524	505	0	0	0	0	
12	0	0	0	0	524	506	0	0	0	0	
13	0	0	0	0	523	506	0	0	0	0	
14	0	0	0	0	523	506	0	0	0	0	
15	0	0	0	0	523	506	0	0	0	0	
0	0	0	0	0	523	506	0	0	0	0	
1	0	0	0	0	524	506	0	0	0	0	
2	0	0	0	0	524	505	0	0	0	0	
3	0	0	0	0	524	505	0	0	0	0	
4	0	0	0	0	524	505	0	0	0	0	
5	0	0	0	0	525	505	0	0	0	0	
6	0	0	0	0	526	505	0	0	0	0	
7	0	0	0	0	526	505	0	0	0	0	
8	0	0	0	0	527	506	0	0	0	0	
9	0	0	0	0	527	506	0	0	0	0	
10	0	0	0	0	528	507	0	0	0	0	
11	0	0	0	0	528	508	0	0	0	0	
12	0	0	0	0	529	508	0	0	0	0	
13	0	0	0	0	530	509	0	0	0	0	
14	0	0	0	0	530	510	0	0	0	0	
15	0	0	0	0	531	510	0	0	0	0	
0	0	0	0	0	531	510	0	0	0	0	
1	0	0	0	0	530	510	0	0	0	0	
2	0	0	0	0	531	509	0	0	0	0	
3	0	0	0	0	530	508	0	0	0	0	
4	0	0	0	0	530	507	0	0	0	0	
5	0	0	0	0	529	505	0	0	0	0	
6	0	0	0	0	528	503	0	0	0	0	
7	0	0	0	0	528	502	0	0	0	0	
8	0	0	0	0	528	501	0	0	0	0	
9	0	0	0	0	527	499	0	0	0	0	
10	0	0	0	0	527	499	0	0	0	0	
11	0	0	0	0	527	499	0	0	0	0	
12	0	0	0	0	528	500	0	0	0	0	
13	0	0	0	0	528	502	0	0	0	0	
14	0	0	0	0	529	503	0	0	0	0	
15	0	0	0	0	529	505	0	0	0	0	
0	0	0	0	0	530	507	0	0	0	0	
1	0	0	0	0	530	509	0	0	0	0	
2	0	0	0	0	531	511	0	0	0	0	
3	0	0	0	0	530	512	0	0	0	0	
4	0	0	0	0	530	513	0	0	0	0	
5	0	0	0	0	530	513	0	0	0	0	
6	0	0	0	0	529	512	0	0	0	0	
7	0	0	0	0	529	512	0	0	0	0	
8	0	0	0	0	528	511	0	0	0	0	
9	0	0	0	0	527	509	0	0	0	0	
10	0	0	0	0	527	508	0	0	0	0	
11	0	0	0	0	527	506	0	0	0	0	
12	0	0	0	0	527	505	0	0	0	0	
13	0	0	0	0	527	504	0	0	0	0	
14	0	0	0	0	527	503	0	0	0	0	
15	0	0	0	0	527	503	0	0	0	0	
0	0	0	0	0	527	503	0	0	0	0	
1	0	0	0	0	528	504	0	0	0	0	
2	0	0	0	0	528	505	0	0	0	0	
3	0	0	0	0	528	507	0	0	0	0	
4	0	0	0	0	528	508	0	0	0	0	
5	0	0	0	0	528	510	0	0	0	0	
6	0	0	0	0	528	511	0	0	0	0	
7	0	0	0	0	527	512	0	0	0	0	
8	0	0	0	0	527	513	0	0	0	0	
9	0	0	0	0	527	513	0	0	0	0	
10	0	0	0	0	526	512	0	0	0	0	
11	0	0	0	0	526	511	0	0	0	0	
12	0	0	0	0	526	510	0	0	0	0	
13	0	0	0	0	526	508	0	0	0	0	
14	0	0	0	0	526	507	0	0	0	0	
15	0	0	0	0	526	505	0	0	0	0	
0	0	0	0	0	527	504	0	0	0	0	
1	0	0	0	0	527	502	0	0	0	0	
2	0	0	0	0	527	502	0	0	0	0	
3	0	0	0	0	528	501	0	0	0	0	
4	0	0	0	0	528	501	0	0	0	0	
5	0	0	0	0	529	502	0	0	0	0	
6	0	0	0	0	529	502	0	0	0	0	
7	0	0	0	0	530	503	0	0	0	0	
8	0	0	0	0	530	504	0	0	0	0	
9	0	0	0	0	530	506	0	0	0	0	
10	0	0	0	0	530	507	0	0	0	0	
11	0	0	0	0	530	508	0	0	0	0	
12	0	0	0	0	530	509	0	0	0	0	
13	0	0	0	0	529	510	0	0	0	0	
14	0	0	0	0	529	510	0	0	0	0	
15	0	0	0	0	528	510	0	0	0	0	
0	0	0	0	0	528	509	0	0	0	0	
1	0	0	0	0	527	508	0	0	0	0	
2	0	0	0	0	527	507	0	0	0	0	
3	0	0	0	0	527	506	0	0	0	0	
4	0	0	0	0	527	505	0	0	0	0	
5	0	0	0	0	527	504	0	0	0	0	
6	0	0	0	0	528	503	0	0	0	0	
7	0	0	0	0	528	503	0	0	0	0	
8	0	0	0	0	529	503	0	0	0	0	
9	0	0	0	0	530	503	0	0	0	0	
10	0	0	0	0	530	503	0	0	0	0	
11	0	0	0	0	531	504	0	0	0	0	
12	0	0	0	0	531	504	0	0	0	0	
13	0	0	0	0	530	505	0	0	0	0	
14	0	0	0	0	531	506	0	0	0	0	
15	0	0	0	0	531	507	0	0	0	0	
0	0	0	0	0	531	508	0	0	0	0	
1	0	0	0	0	530	508	0	0	0	0	
2	0	0	0	0	529	508	0	0	0	0	
3	0	0	0	0	530	508	0	0	0	0	
4	0	0	0	0	529	508	0	0	0	0	
5	0	0	0	0	529	507	0	0	0	0	
6	0	0	0	0	529	506	0	0	0	0	
7	0	0	0	0	528	505	0	0	0	0	
8	0	0	0	0	529	504	0	0	0	0	
9	0	0	0	0	529	504	0	0	0	0	
10	0	0	0	0	529	503	0	0	0	0	
11	0	0	0	0	528	503	0	0	0	0	
12	0	0	0	0	528	503	0	0	0	0	
13	0	0	0	0	527	503	0	0	0	0	
14	0	0	0	0	527	504	0	0	0	0	
15	0	0	0	0	526	504	0	0	0	0	
0	0	0	0	0	526	505	0	0	0	0	
1	0	0	0	0	525	506	0	0	0	0	
2	0	0	0	0	525	507	0	0	0	0	
3	0	0	0	0	524	508	0	0	0	0	
4	0	0	0	0	524	509	0	0	0	0	
5	0	0	0	0	524	509	0	0	0	0	
6	0	0	0	0	525	509	0	0	0	0	
7	0	0	0	0	525	509	0	0	0	0	
8	0	0	0	0	526	508	0	0	0	0	
9	0	0	0	0	527	508	0	0	0	0	
10	0	0	0	0	527	507	0	0	0	0	
11	0	0	0	0	526	506	0	0	0	0	
12	0	0	0	0	527	504	0	0	0	0	
13	0	0	0	0	527	503	0	0	0	0	
14	0	0	0	0	527	502	0	0	0	0	
15	0	0	0	0	525	500	0	0	0	0	
0	0	0	0	0	524	499	0	0	0	0	
1	0	0	0	0	524	499	0	0	0	0	
2	0	0	0	0	523	498	0	0	0	0	
3	0	0	0	0	521	498	0	0	0	0	
4	0	0	0	0	519	497	0	0	0	0	
5	0	0	0	0	518	498	0	0	0	0	
6	0	0	0	0	518	498	0	0	0	0	
7	0	0	0	0	517	498	0	0	0	0	
8	0	0	0	0	516	498	0	0	0	0	
9	0	0	0	0	515	498	0	0	0	0	
10	0	0	0	0	515	498	0	0	0	0	
11	0	0	0	0	516	498	0	0	0	0	
12	0	0	0	0	516	497	0	0	0	0	
13	0	0	0	0	516	497	0	0	0	0	
14	0	0	0	0	517	497	0	0	0	0	
15	0	0	0	0	517	496	0	0	0	0	
0	0	0	0	0	518	496	0	0	0	0	
1	0	0	0	0	519	496	0	0	0	0	
2	0	0	0	0	519	496	0	0	0	0	
3	0	0	0	0	519	496	0	0	0	0	
4	0	0	0	0	520	496	0	0	0	0	
5	0	0	0	0	521	496	0	0	0	0	
6	0	0	0	0	521	497	0	0	0	0	
7	0	0	0	0	521	497	0	0	0	0	
8	0	0	0	0	522	497	0	0	0	0	
9	0	0	0	0	522	498	0	0	0	0	
10	0	0	0	0	523	499	0	0	0	0	
11	0	0	0	0	522	499	0	0	0	0	
12	0	0	0	0	522	499	0	0	0	0	
13	0	0	0	0	523	500	0	0	0	0	
14	0	0	0	0	523	500	0	0	0	0	
15	0	0	0	0	523	500	0	0	0	0	
0	0	0	0	0	523	500	0	0	0	0	
1	0	0	0	0	523	500	0	0	0	0	
2	0	0	0	0	524	499	0	0	0	0	
3	0	0	0	0	523	499	0	0	0	0	
4	0	0	0	0	524	499	0	0	0	0	
5	0	0	0	0	524	499	0	0	0	0	
6	0	0	0	0	524	499	0	0	0	0	
7	0	0	0	0	523	499	0	0	0	0	
8	0	0	0	0	523	499	0	0	0	0	
9	0	0	0	0	523	499	0	0	0	0	
10	0	0	0	0	523	499	0	0	0	0	
11	0	0	0	0	523	500	0	0	0	0	
12	0	0	0	0	523	500	0	0	0	0	
13	0	0	0	0	521	500	0	0	0	0	
14	0	0	0	0	523	501	0	0	0	0	
15	0	0	0	0	522	500	0	0	0	0	
0	0	0	0	0	522	500	0	0	0	0	
1	0	0	0	0	523	500	0	0	0	0	
2	0	0	0	0	523	499	0	0	0	0	
3	0	0	0	0	523	499	0	0	0	0	
4	0	0	0	0	523	498	0	0	0	0	
5	0	0	0	0	523	497	0	0	0	0	
6	0	0	0	0	523	496	0	0	0	0	
7	0	0	0	0	521	496	0	0	0	0	
8	0	0	0	0	522	496	0	0	0	0	
9	0	0	0	0	522	495	0	0	0	0	
10	0	0	0	0	521	495	0	0	0	0	
11	0	0	0	0	520	495	0	0	0	0	
12	0	0	0	0	519	495	0	0	0	0	
13	0	0	0	0	520	496	0	0	0	0	
14	0	0	0	0	519	496	0	0	0	0	
15	0	0	0	0	519	496	0	0	0	0	
0	0	0	0	0	518	497	0	0	0	0	
1	0	0	0	0	517	497	0	0	0	0	
2	0	0	0	0	518	497	0	0	0	0	
3	0	0	0	0	518	497	0	0	0	0	
4	0	0	0	0	518	497	0	0	0	0	
5	0	0	0	0	518	497	0	0	0	0	
6	0	0	0	0	518	496	0	0	0	0	
7	0	0	0	0	518	496	0	0	0	0	
8	0	0	0	0	518	495	0	0	0	0	
9	0	0	0	0	519	494	0	0	0	0	
10	0	0	0	0	519	494	0	0	0	0	
11	0	0	0	0	520	494	0	0	0	0	
12	0	0	0	0	521	495	0	0	0	0	
13	0	0	0	0	523	495	0	0	0	0	
14	0	0	0	0	524	496	0	0	0	0	
15	0	0	0	0	524	497	0	0	0	0	
0	0	0	0	0	526	499	0	0	0	0	
1	0	0	0	0	527	500	0	0	0	0	
2	0	0	0	0	528	502	0	0	0	0	
3	0	0	0	0	528	503	0	0	0	0	
4	0	0	0	0	528	504	0	0	0	0	
5	0	0	0	0	527	504	0	0	0	0	
6	0	0	0	0	527	505	0	0	0	0	
7	0	0	0	0	527	505	0	0	0	0	
8	0	0	0	0	526	505	0	0	0	0	
9	0	0	0	0	524	505	0	0	0	0	
10	0	0	0	0	524	504	0	0	0	0	
11	0	0	0	0	523	503	0	0	0	0	
12	0	0	0	0	521	502	0	0	0	0	
13	0	0	0	0	521	501	0	0	0	0	
14	0	0	0	0	521	499	0	0	0	0	
15	0	0	0	0	519	498	0	0	0	0	
0	0	0	0	0	520	497	0	0	0	0	
1	0	0	0	0	519	497	0	0	0	0	
2	0	0	0	0	519	496	0	0	0	0	
3	0	0	0	0	519	496	0	0	0	0	
4	0	0	0	0	519	496	0	0	0	0	
5	0	0	0	0	520	496	0	0	0	0	
6	0	0	0	0	520	497	0	0	0	0	
7	0	0	0	0	521	498	0	0	0	0	
8	0	0	0	0	521	499	0	0	0	0	
9	0	0	0	0	523	500	0	0	0	0	
10	0	0	0	0	523	500	0	0	0	0	
11	0	0	0	0	523	501	0	0	0	0	
12	0	0	0	0	524	501	0	0	0	0	
13	0	0	0	0	523	501	0	0	0	0	
14	0	0	0	0	524	501	0	0	0	0	
15	0	0	0	0	524	500	0	0	0	0	
0	0	0	0	0	524	499	0	0	0	0	
1	0	0	0	0	523	497	0	0	0	0	
2	0	0	0	0	522	496	0	0	0	0	
3	0	0	0	0	523	495	0	0	0	0	
4	0	0	0	0	523	494	0	0	0	0	
5	0	0	0	0	523	494	0	0	0	0	
6	0	0	0	0	523	494	0	0	0	0	
7	0	0	0	0	523	495	0	0	0	0	
8	0	0	0	0	524	496	0	0	0	0	
9	0	0	0	0	526	497	0	0	0	0	
10	0	0	0	0	526	499	0	0	0	0	
11	0	0	0	0	527	500	0	0	0	0	
12	0	0	0	0	528	503	0	0	0	0	
13	0	0	0	0	529	504	0	0	0	0	
14	0	0	0	0	530	506	0	0	0	0	
15	0	0	0	0	531	508	0	0	0	0	
0	0	0	0	0	531	509	0	0	0	0	
1	0	0	0	0	531	509	0	0	0	0	
2	0	0	0	0	532	510	0	0	0	0	
3	0	0	0	0	531	510	0	0	0	0	
4	0	0	0	0	531	509	0	0	0	0	
5	0	0	0	0	530	508	0	0	0	0	
6	0	0	0	0	529	508	0	0	0	0	
7	0	0	0	0	529	507	0	0	0	0	
8	0	0	0	0	528	506	0	0	0	0	
9	0	0	0	0	527	505	0	0	0	0	
10	0	0	0	0	526	504	0	0	0	0	
11	0	0	0	0	525	503	0	0	0	0	
12	0	0	0	0	526	503	0	0	0	0	
13	0	0	0	0	525	503	0	0	0	0	
14	0	0	0	0	525	503	0	0	0	0	
15	0	0	0	0	526	503	0	0	0	0	
0	0	0	0	0	526	503	0	0	0	0	
1	0	0	0	0	527	504	0	0	0	0	
2	0	0	0	0	527	504	0	0	0	0	
3	0	0	0	0	527	504	0	0	0	0	
4	0	0	0	0	528	504	0	0	0	0	
5	0	0	0	0	528	505	0	0	0	0	
6	0	0	0	0	528	505	0	0	0	0	
7	0	0	0	0	529	505	0	0	0	0	
8	0	0	0	0	529	505	0	0	0	0	
9	0	0	0	0	529	505	0	0	0	0	
10	0	0	0	0	529	506	0	0	0	0	
11	0	0	0	0	529	506	0	0	0	0	
12	0	0	0	0	529	507	0	0	0	0	
13	0	0	0	0	529	507	0	0	0	0	
14	0	0	0	0	529	507	0	0	0	0	
15	0	0	0	0	529	508	0	0	0	0	
0	0	0	0	0	529	508	0	0	0	0	
1	0	0	0	0	530	509	0	0	0	0	
2	0	0	0	0	529	509	0	0	0	0	
3	0	0	0	0	529	510	0	0	0	0	
4	0	0	0	0	529	510	0	0	0	0	
5	0	0	0	0	529	510	0	0	0	0	
6	0	0	0	0	529	510	0	0	0	0	
7	0	0	0	0	528	509	0	0	0	0	
8	0	0	0	0	528	508	0	0	0	0	
9	0	0	0	0	528	508	0	0	0	0	
10	0	0	0	0	527	507	0	0	0	0	
11	0	0	0	0	528	506	0	0	0	0	
12	0	0	0	0	528	505	0	0	0	0	
13	0	0	0	0	528	505	0	0	0	0	
14	0	0	0	0	529	504	0	0	0	0	
15	0	0	0	0	529	504	0	0	0	0	
0	0	0	0	0	531	504	0	0	0	0	
1	0	0	0	0	531	504	0	0	0	0	
2	0	0	0	0	532	505	0	0	0	0	
3	0	0	0	0	533	505	0	0	0	0	
4	0	0	0	0	533	507	0	0	0	0	
5	0	0	0	0	535	508	0	0	0	0	
6	0	0	0	0	535	509	0	0	0	0	
7	0	0	0	0	536	510	0	0	0	0	
8	0	0	0	0	536	511	0	0	0	0	
9	0	0	0	0	536	512	0	0	0	0	
10	0	0	0	0	537	513	0	0	0	0	
11	0	0	0	0	537	513	0	0	0	0	
12	0	0	0	0	537	514	0	0	0	0	
13	0	0	0	0	537	514	0	0	0	0	
14	0	0	0	0	538	514	0	0	0	0	
15	0	0	0	0	537	513	0	0	0	0	
0	0	0	0	0	537	513	0	0	0	0	
1	0	0	0	0	536	511	0	0	0	0	
2	0	0	0	0	536	511	0	0	0	0	
3	0	0	0	0	535	510	0	0	0	0	
4	0	0	0	0	535	509	0	0	0	0	
5	0	0	0	0	535	509	0	0	0	0	
6	0	0	0	0	535	509	0	0	0	0	
7	0	0	0	0	535	509	0	0	0	0	
8	0	0	0	0	536	510	0	0	0	0	
9	0	0	0	0	537	512	0	0	0	0	
10	0	0	0	0	538	513	0	0	0	0	
11	0	0	0	0	539	515	0	0	0	0	
12	0	0	0	0	540	517	0	0	0	0	
13	0	0	0	0	540	518	0	0	0	0	
14	0	0	0	0	542	519	0	0	0	0	
15	0	0	0	0	542	519	0	0	0	0	
0	0	0	0	0	542	519	0	0	0	0	
1	0	0	0	0	540	519	0	0	0	0	
2	0	0	0	0	539	517	0	0	0	0	
3	0	0	0	0	537	515	0	0	0	0	
4	0	0	0	0	535	512	0	0	0	0	
5	0	0	0	0	532	509	0	0	0	0	
6	0	0	0	0	529	507	0	0	0	0	
7	0	0	0	0	527	504	0	0	0	0	
8	0	0	0	0	524	502	0	0	0	0	
9	0	0	0	0	521	499	0	0	0	0	
10	0	0	0	0	519	497	0	0	0	0	
11	0	0	0	0	517	496	0	0	0	0	
12	0	0	0	0	515	495	0	0	0	0	
13	0	0	0	0	515	495	0	0	0	0	
14	0	0	0	0	515	495	0	0	0	0	
15	0	0	0	0	515	495	0	0	0	0	
0	0	0	0	0	515	496	0	0	0	0	
1	0	0	0	0	516	496	0	0	0	0	
2	0	0	0	0	517	497	0	0	0	0	
3	0	0	0	0	518	497	0	0	0	0	
4	0	0	0	0	519	497	0	0	0	0	
5	0	0	0	0	519	497	0	0	0	0	
6	0	0	0	0	520	497	0	0	0	0	
7	0	0	0	0	520	496	0	0	0	0	
8	0	0	0	0	520	495	0	0	0	0	
9	0	0	0	0	519	495	0	0	0	0	
10	0	0	0	0	519	494	0	0	0	0	
11	0	0	0	0	518	493	0	0	0	0	
12	0	0	0	0	518	492	0	0	0	0	
13	0	0	0	0	517	492	0	0	0	0	
14	0	0	0	0	516	491	0	0	0	0	
15	0	0	0	0	515	491	0	0	0	0	
0	0	0	0	0	515	492	0	0	0	0	
1	0	0	0	0	516	493	0	0	0	0	
2	0	0	0	0	517	495	0	0	0	0	
3	0	0	0	0	518	496	0	0	0	0	
4	0	0	0	0	518	497	0	0	0	0	
5	0	0	0	0	518	499	0	0	0	0	
6	0	0	0	0	519	500	0	0	0	0	
7	0	0	0	0	520	502	0	0	0	0	
8	0	0	0	0	521	502	0	0	0	0	
9	0	0	0	0	522	503	0	0	0	0	
10	0	0	0	0	523	504	0	0	0	0	
11	0	0	0	0	524	505	0	0	0	0	
12	0	0	0	0	526	506	0	0	0	0	
13	0	0	0	0	527	506	0	0	0	0	
14	0	0	0	0	529	507	0	0	0	0	
15	0	0	0	0	529	507	0	0	0	0	
0	0	0	0	0	531	507	0	0	0	0	
1	0	0	0	0	532	507	0	0	0	0	
2	0	0	0	0	532	508	0	0	0	0	
3	0	0	0	0	532	508	0	0	0	0	
4	0	0	0	0	531	508	0	0	0	0	
5	0	0	0	0	532	508	0	0	0	0	
6	0	0	0	0	531	508	0	0	0	0	
7	0	0	0	0	530	508	0	0	0	0	
8	0	0	0	0	528	507	0	0	0	0	
9	0	0	0	0	528	507	0	0	0	0	
10	0	0	0	0	527	506	0	0	0	0	
11	0	0	0	0	527	506	0	0	0	0	
12	0	0	0	0	527	505	0	0	0	0	
13	0	0	0	0	527	505	0	0	0	0	
14	0	0	0	0	527	504	0	0	0	0	
15	0	0	0	0	527	504	0	0	0	0	
0	0	0	0	0	527	503	0	0	0	0	
1	0	0	0	0	527	502	0	0	0	0	
2	0	0	0	0	527	502	0	0	0	0	
3	0	0	0	0	526	501	0	0	0	0	
4	0	0	0	0	527	502	0	0	0	0	
5	0	0	0	0	527	502	0	0	0	0	
6	0	0	0	0	527	502	0	0	0	0	
7	0	0	0	0	527	503	0	0	0	0	
8	0	0	0	0	527	504	0	0	0	0	
9	0	0	0	0	527	505	0	0	0	0	
10	0	0	0	0	527	506	0	0	0	0	
11	0	0	0	0	528	508	0	0	0	0	
12	0	0	0	0	529	509	0	0	0	0	
13	0	0	0	0	529	511	0	0	0	0	
14	0	0	0	0	530	511	0	0	0	0	
15	0	0	0	0	531	513	0	0	0	0	
0	0	0	0	0	531	513	0	0	0	0	
1	0	0	0	0	531	512	0	0	0	0	
2	0	0	0	0	530	511	0	0	0	0	
3	0	0	0	0	530	510	0	0	0	0	
4	0	0	0	0	529	509	0	0	0	0	
5	0	0	0	0	528	507	0	0	0	0	
6	0	0	0	0	527	505	0	0	0	0	
7	0	0	0	0	526	503	0	0	0	0	
8	0	0	0	0	525	502	0	0	0	0	
9	0	0	0	0	524	500	0	0	0	0	
10	0	0	0	0	522	500	0	0	0	0	
11	0	0	0	0	522	499	0	0	0	0	
12	0	0	0	0	521	499	0	0	0	0	
13	0	0	0	0	520	499	0	0	0	0	
14	0	0	0	0	520	499	0	0	0	0	
15	0	0	0	0	519	499	0	0	0	0	
0	0	0	0	0	519	499	0	0	0	0	
1	0	0	0	0	520	500	0	0	0	0	
2	0	0	0	0	521	501	0	0	0	0	
3	0	0	0	0	521	502	0	0	0	0	
4	0	0	0	0	522	502	0	0	0	0	
5	0	0	0	0	523	502	0	0	0	0	
6	0	0	0	0	524	502	0	0	0	0	
7	0	0	0	0	524	501	0	0	0	0	
8	0	0	0	0	523	499	0	0	0	0	
9	0	0	0	0	522	497	0	0	0	0	
10	0	0	0	0	519	493	0	0	0	0	
11	0	0	0	0	515	489	0	0	0	0	
12	0	0	0	0	511	484	0	0	0	0	
13	0	0	0	0	506	478	0	0	0	0	
14	0	0	0	0	499	471	0	0	0	0	
15	0	0	0	0	491	463	0	0	0	0	
0	0	0	0	0	482	455	0	0	0	0	
1	0	0	0	0	473	447	0	0	0	0	
2	0	0	0	0	463	438	0	0	0	0	
3	0	0	0	0	454	430	0	0	0	0	
4	0	0	0	0	444	422	0	0	0	0	
5	0	0	0	0	434	413	0	0	0	0	
6	0	0	0	0	425	404	0	0	0	0	
7	0	0	0	0	416	396	0	0	0	0	
8	0	0	0	0	407	387	0	0	0	0	
9	0	0	0	0	398	378	0	0	0	0	
10	0	0	0	0	390	369	0	0	0	0	
11	0	0	0	0	380	358	0	0	0	0	
12	0	0	0	0	371	348	0	0	0	0	
13	0	0	0	0	360	336	0	0	0	0	
14	0	0	0	0	350	323	0	0	0	0	
15	0	0	0	0	339	311	0	0	0	0	
0	0	0	0	0	328	299	0	0	0	0	
1	0	0	0	0	318	288	0	0	0	0	
2	0	0	0	0	311	280	0	0	0	0	
3	0	0	0	0	305	274	0	0	0	0	
4	0	0	0	0	301	271	0	0	0	0	
5	0	0	0	0	303	272	0	0	0	0	
6	0	0	0	0	307	276	0	0	0	0	
7	0	0	0	0	315	285	0	0	0	0	
8	0	0	0	0	328	298	0	0	0	0	
9	0	0	0	0	344	314	0	0	0	0	
10	0	0	0	0	365	334	0	0	0	0	
11	0	0	0	0	388	356	0	0	0	0	
12	0	0	0	0	413	380	0	0	0	0	
13	0	0	0	0	439	404	0	0	0	0	
14	0	0	0	0	464	428	0	0	0	0	
15	0	0	0	0	489	451	0	0	0	0	
0	0	0	0	0	512	473	0	0	0	0	
1	0	0	0	0	532	492	0	0	0	0	
2	0	0	0	0	548	508	0	0	0	0	
3	0	0	0	0	562	522	0	0	0	0	
4	0	0	0	0	573	532	0	0	0	0	
5	0	0	0	0	579	539	0	0	0	0	
6	0	0	0	0	582	543	0	0	0	0	
7	0	0	0	0	581	545	0	0	0	0	
8	0	0	0	0	578	545	0	0	0	0	
9	0	0	0	0	574	544	0	0	0	0	
10	0	0	0	0	567	542	0	0	0	0	
11	0	0	0	0	560	538	0	0	0	0	
12	0	0	0	0	552	534	0	0	0	0	
13	0	0	0	0	545	530	0	0	0	0	
14	0	0	0	0	540	526	0	0	0	0	
15	0	0	0	0	535	523	0	0	0	0	
0	0	0	0	0	531	520	0	0	0	0	
1	0	0	0	0	529	518	0	0	0	0	
2	0	0	0	0	527	516	0	0	0	0	
3	0	0	0	0	529	515	0	0	0	0	
4	0	0	0	0	531	515	0	0	0	0	
5	0	0	0	0	533	514	0	0	0	0	
6	0	0	0	0	536	514	0	0	0	0	
7	0	0	0	0	540	515	0	0	0	0	
8	0	0	0	0	543	516	0	0	0	0	
9	0	0	0	0	546	516	0	0	0	0	
10	0	0	0	0	548	517	0	0	0	0	
11	0	0	0	0	550	518	0	0	0	0	
12	0	0	0	0	551	519	0	0	0	0	
13	0	0	0	0	552	521	0	0	0	0	
14	0	0	0	0	552	521	0	0	0	0	
15	0	0	0	0	551	523	0	0	0	0	
0	0	0	0	0	550	524	0	0	0	0	
1	0	0	0	0	548	524	0	0	0	0	
2	0	0	0	0	547	525	0	0	0	0	
3	0	0	0	0	546	526	0	0	0	0	
4	0	0	0	0	544	526	0	0	0	0	
5	0	0	0	0	544	526	0	0	0	0	
6	0	0	0	0	542	525	0	0	0	0	
7	0	0	0	0	542	524	0	0	0	0	
8	0	0	0	0	542	524	0	0	0	0	
9	0	0	0	0	542	523	0	0	0	0	
10	0	0	0	0	542	522	0	0	0	0	
11	0	0	0	0	543	521	0	0	0	0	
12	0	0	0	0	544	520	0	0	0	0	
13	0	0	0	0	544	520	0	0	0	0	
14	0	0	0	0	545	520	0	0	0	0	
15	0	0	0	0	546	520	0	0	0	0	
0	0	0	0	0	547	521	0	0	0	0	
1	0	0	0	0	548	522	0	0	0	0	
2	0	0	0	0	549	523	0	0	0	0	
3	0	0	0	0	550	524	0	0	0	0	
4	0	0	0	0	551	526	0	0	0	0	
5	0	0	0	0	551	527	0	0	0	0	
6	0	0	0	0	552	528	0	0	0	0	
7	0	0	0	0	552	529	0	0	0	0	
8	0	0	0	0	552	530	0	0	0	0	
9	0	0	0	0	551	530	0	0	0	0	
10	0	0	0	0	552	530	0	0	0	0	
11	0	0	0	0	551	530	0	0	0	0	
12	0	0	0	0	550	529	0	0	0	0	
13	0	0	0	0	549	528	0	0	0	0	
14	0	0	0	0	548	527	0	0	0	0	
15	0	0	0	0	547	525	0	0	0	0	
0	0	0	0	0	546	524	0	0	0	0	
1	0	0	0	0	545	523	0	0	0	0	
2	0	0	0	0	545	522	0	0	0	0	
3	0	0	0	0	543	522	0	0	0	0	
4	0	0	0	0	543	522	0	0	0	0	
5	0	0	0	0	543	522	0	0	0	0	
6	0	0	0	0	543	523	0	0	0	0	
7	0	0	0	0	543	524	0	0	0	0	
8	0	0	0	0	543	525	0	0	0	0	
9	0	0	0	0	544	526	0	0	0	0	
10	0	0	0	0	545	527	0	0	0	0	
11	0	0	0	0	547	527	0	0	0	0	
12	0	0	0	0	547	527	0	0	0	0	
13	0	0	0	0	548	527	0	0	0	0	
14	0	0	0	0	549	527	0	0	0	0	
15	0	0	0	0	549	527	0	0	0	0	
0	0	0	0	0	550	526	0	0	0	0	
1	0	0	0	0	549	525	0	0	0	0	
2	0	0	0	0	548	524	0	0	0	0	
3	0	0	0	0	547	522	0	0	0	0	
4	0	0	0	0	546	520	0	0	0	0	
5	0	0	0	0	545	519	0	0	0	0	
6	0	0	0	0	543	519	0	0	0	0	
7	0	0	0	0	543	518	0	0	0	0	
8	0	0	0	0	541	517	0	0	0	0	
9	0	0	0	0	541	517	0	0	0	0	
10	0	0	0	0	541	517	0	0	0	0	
11	0	0	0	0	541	518	0	0	0	0	
12	0	0	0	0	542	518	0	0	0	0	
13	0	0	0	0	542	519	0	0	0	0	
14	0	0	0	0	543	520	0	0	0	0	
15	0	0	0	0	545	522	0	0	0	0	
0	0	0	0	0	545	523	0	0	0	0	
1	0	0	0	0	547	524	0	0	0	0	
2	0	0	0	0	547	524	0	0	0	0	
3	0	0	0	0	549	525	0	0	0	0	
4	0	0	0	0	549	525	0	0	0	0	
5	0	0	0	0	550	525	0	0	0	0	
6	0	0	0	0	549	524	0	0	0	0	
7	0	0	0	0	548	524	0	0	0	0	
8	0	0	0	0	548	523	0	0	0	0	
9	0	0	0	0	547	522	0	0	0	0	
10	0	0	0	0	546	521	0	0	0	0	
11	0	0	0	0	545	521	0	0	0	0	
12	0	0	0	0	544	521	0	0	0	0	
13	0	0	0	0	544	522	0	0	0	0	
14	0	0	0	0	543	522	0	0	0	0	
15	0	0	0	0	543	523	0	0	0	0	
0	0	0	0	0	542	523	0	0	0	0	
1	0	0	0	0	541	524	0	0	0	0	
2	0	0	0	0	541	524	0	0	0	0	
3	0	0	0	0	541	525	0	0	0	0	
4	0	0	0	0	540	525	0	0	0	0	
5	0	0	0	0	540	525	0	0	0	0	
6	0	0	0	0	540	524	0	0	0	0	
7	0	0	0	0	540	524	0	0	0	0	
8	0	0	0	0	540	522	0	0	0	0	
9	0	0	0	0	540	520	0	0	0	0	
10	0	0	0	0	540	519	0	0	0	0	
11	0	0	0	0	541	517	0	0	0	0	
12	0	0	0	0	542	516	0	0	0	0	
13	0	0	0	0	542	515	0	0	0	0	
14	0	0	0	0	542	515	0	0	0	0	
15	0	0	0	0	542	515	0	0	0	0	
0	0	0	0	0	543	515	0	0	0	0	
1	0	0	0	0	543	516	0	0	0	0	
2	0	0	0	0	543	518	0	0	0	0	
3	0	0	0	0	543	519	0	0	0	0	
4	0	0	0	0	543	520	0	0	0	0	
5	0	0	0	0	543	521	0	0	0	0	
6	0	0	0	0	542	523	0	0	0	0	
7	0	0	0	0	542	523	0	0	0	0	
8	0	0	0	0	541	524	0	0	0	0	
9	0	0	0	0	540	524	0	0	0	0	
10	0	0	0	0	540	523	0	0	0	0	
11	0	0	0	0	540	523	0	0	0	0	
12	0	0	0	0	540	522	0	0	0	0	
13	0	0	0	0	540	522	0	0	0	0	
14	0	0	0	0	540	521	0	0	0	0	
15	0	0	0	0	541	521	0	0	0	0	
0	0	0	0	0	542	521	0	0	0	0	
1	0	0	0	0	542	521	0	0	0	0	
2	0	0	0	0	543	521	0	0	0	0	
3	0	0	0	0	543	521	0	0	0	0	
4	0	0	0	0	543	522	0	0	0	0	
5	0	0	0	0	543	522	0	0	0	0	
6	0	0	0	0	543	522	0	0	0	0	
7	0	0	0	0	543	523	0	0	0	0	
8	0	0	0	0	542	522	0	0	0	0	
9	0	0	0	0	541	522	0	0	0	0	
10	0	0	0	0	540	522	0	0	0	0	
11	0	0	0	0	538	521	0	0	0	0	
12	0	0	0	0	537	520	0	0	0	0	
13	0	0	0	0	535	519	0	0	0	0	
14	0	0	0	0	534	519	0	0	0	0	
15	0	0	0	0	534	518	0	0	0	0	
0	0	0	0	0	533	517	0	0	0	0	
1	0	0	0	0	533	516	0	0	0	0	
2	0	0	0	0	533	515	0	0	0	0	
3	0	0	0	0	534	515	0	0	0	0	
4	0	0	0	0	535	515	0	0	0	0	
5	0	0	0	0	535	515	0	0	0	0	
6	0	0	0	0	536	515	0	0	0	0	
7	0	0	0	0	537	515	0	0	0	0	
8	0	0	0	0	539	515	0	0	0	0	
9	0	0	0	0	540	516	0	0	0	0	
10	0	0	0	0	541	518	0	0	0	0	
11	0	0	0	0	542	519	0	0	0	0	
12	0	0	0	0	543	520	0	0	0	0	
13	0	0	0	0	544	522	0	0	0	0	
14	0	0	0	0	545	523	0	0	0	0	
15	0	0	0	0	546	524	0	0	0	0	
0	0	0	0	0	547	525	0	0	0	0	
1	0	0	0	0	547	526	0	0	0	0	
2	0	0	0	0	547	526	0	0	0	0	
3	0	0	0	0	548	527	0	0	0	0	
4	0	0	0	0	549	528	0	0	0	0	
5	0	0	0	0	550	528	0	0	0	0	
6	0	0	0	0	551	529	0	0	0	0	
7	0	0	0	0	551	530	0	0	0	0	
8	0	0	0	0	553	531	0	0	0	0	
9	0	0	0	0	553	531	0	0	0	0	
10	0	0	0	0	553	531	0	0	0	0	
11	0	0	0	0	552	531	0	0	0	0	
12	0	0	0	0	551	531	0	0	0	0	
13	0	0	0	0	551	531	0	0	0	0	
14	0	0	0	0	550	531	0	0	0	0	
15	0	0	0	0	549	531	0	0	0	0	
0	0	0	0	0	548	531	0	0	0	0	
1	0	0	0	0	546	530	0	0	0	0	
2	0	0	0	0	546	530	0	0	0	0	
3	0	0	0	0	545	529	0	0	0	0	
4	0	0	0	0	544	529	0	0	0	0	
5	0	0	0	0	544	528	0	0	0	0	
6	0	0	0	0	543	526	0	0	0	0	
7	0	0	0	0	543	525	0	0	0	0	
8	0	0	0	0	543	524	0	0	0	0	
9	0	0	0	0	543	522	0	0	0	0	
10	0	0	0	0	543	520	0	0	0	0	
11	0	0	0	0	543	519	0	0	0	0	
12	0	0	0	0	543	518	0	0	0	0	
13	0	0	0	0	543	517	0	0	0	0	
14	0	0	0	0	542	516	0	0	0	0	
15	0	0	0	0	542	516	0	0	0	0	
0	0	0	0	0	542	518	0	0	0	0	
1	0	0	0	0	543	519	0	0	0	0	
2	0	0	0	0	543	520	0	0	0	0	
3	0	0	0	0	543	523	0	0	0	0	
4	0	0	0	0	544	525	0	0	0	0	
5	0	0	0	0	545	527	0	0	0	0	
6	0	0	0	0	547	528	0	0	0	0	
7	0	0	0	0	547	529	0	0	0	0	
8	0	0	0	0	549	530	0	0	0	0	
9	0	0	0	0	550	531	0	0	0	0	
10	0	0	0	0	550	530	0	0	0	0	
11	0	0	0	0	550	530	0	0	0	0	
12	0	0	0	0	549	528	0	0	0	0	
13	0	0	0	0	548	527	0	0	0	0	
14	0	0	0	0	548	526	0	0	0	0	
15	0	0	0	0	547	525	0	0	0	0	
0	0	0	0	0	547	524	0	0	0	0	
1	0	0	0	0	545	522	0	0	0	0	
2	0	0	0	0	545	521	0	0	0	0	
3	0	0	0	0	543	520	0	0	0	0	
4	0	0	0	0	543	520	0	0	0	0	
5	0	0	0	0	543	520	0	0	0	0	
6	0	0	0	0	542	521	0	0	0	0	
7	0	0	0	0	541	521	0	0	0	0	
8	0	0	0	0	542	522	0	0	0	0	
9	0	0	0	0	541	523	0	0	0	0	
10	0	0	0	0	543	524	0	0	0	0	
11	0	0	0	0	543	526	0	0	0	0	
12	0	0	0	0	545	527	0	0	0	0	
13	0	0	0	0	546	527	0	0	0	0	
14	0	0	0	0	548	528	0	0	0	0	
15	0	0	0	0	549	529	0	0	0	0	
0	0	0	0	0	551	529	0	0	0	0	
1	0	0	0	0	552	529	0	0	0	0	
2	0	0	0	0	553	529	0	0	0	0	
3	0	0	0	0	553	529	0	0	0	0	
4	0	0	0	0	554	529	0	0	0	0	
5	0	0	0	0	553	528	0	0	0	0	
6	0	0	0	0	553	528	0	0	0	0	
7	0	0	0	0	552	527	0	0	0	0	
8	0	0	0	0	551	527	0	0	0	0	
9	0	0	0	0	550	527	0	0	0	0	
10	0	0	0	0	549	527	0	0	0	0	
11	0	0	0	0	548	527	0	0	0	0	
12	0	0	0	0	547	527	0	0	0	0	
13	0	0	0	0	546	527	0	0	0	0	
14	0	0	0	0	546	527	0	0	0	0	
15	0	0	0	0	545	527	0	0	0	0	
0	0	0	0	0	546	527	0	0	0	0	
1	0	0	0	0	546	527	0	0	0	0	
2	0	0	0	0	547	527	0	0	0	0	
3	0	0	0	0	548	528	0	0	0	0	
4	0	0	0	0	548	527	0	0	0	0	
5	0	0	0	0	550	527	0	0	0	0	
6	0	0	0	0	550	527	0	0	0	0	
7	0	0	0	0	551	528	0	0	0	0	
8	0	0	0	0	552	528	0	0	0	0	
9	0	0	0	0	553	528	0	0	0	0	
10	0	0	0	0	553	529	0	0	0	0	
11	0	0	0	0	554	529	0	0	0	0	
12	0	0	0	0	553	530	0	0	0	0	
13	0	0	0	0	553	531	0	0	0	0	
14	0	0	0	0	553	531	0	0	0	0	
15	0	0	0	0	553	531	0	0	0	0	
0	0	0	0	0	552	531	0	0	0	0	
1	0	0	0	0	551	531	0	0	0	0	
2	0	0	0	0	551	532	0	0	0	0	
3	0	0	0	0	552	532	0	0	0	0	
4	0	0	0	0	552	532	0	0	0	0	
5	0	0	0	0	553	532	0	0	0	0	
6	0	0	0	0	553	532	0	0	0	0	
7	0	0	0	0	555	532	0	0	0	0	
8	0	0	0	0	556	532	0	0	0	0	
9	0	0	0	0	556	532	0	0	0	0	
10	0	0	0	0	557	532	0	0	0	0	
11	0	0	0	0	557	532	0	0	0	0	
12	0	0	0	0	557	532	0	0	0	0	
13	0	0	0	0	556	532	0	0	0	0	
14	0	0	0	0	556	532	0	0	0	0	
15	0	0	0	0	555	531	0	0	0	0	
0	0	0	0	0	552	530	0	0	0	0	
1	0	0	0	0	551	530	0	0	0	0	
2	0	0	0	0	549	529	0	0	0	0	
3	0	0	0	0	547	528	0	0	0	0	
4	0	0	0	0	546	527	0	0	0	0	
5	0	0	0	0	545	526	0	0	0	0	
6	0	0	0	0	544	526	0	0	0	0	
7	0	0	0	0	543	525	0	0	0	0	
8	0	0	0	0	543	525	0	0	0	0	
9	0	0	0	0	544	525	0	0	0	0	
10	0	0	0	0	544	524	0	0	0	0	
11	0	0	0	0	545	524	0	0	0	0	
12	0	0	0	0	546	524	0	0	0	0	
13	0	0	0	0	547	523	0	0	0	0	
14	0	0	0	0	548	523	0	0	0	0	
15	0	0	0	0	548	522	0	0	0	0	
0	0	0	0	0	550	522	0	0	0	0	
1	0	0	0	0	550	522	0	0	0	0	
2	0	0	0	0	550	523	0	0	0	0	
3	0	0	0	0	551	524	0	0	0	0	
4	0	0	0	0	550	524	0	0	0	0	
5	0	0	0	0	550	525	0	0	0	0	
6	0	0	0	0	550	526	0	0	0	0	
7	0	0	0	0	549	526	0	0	0	0	
8	0	0	0	0	547	526	0	0	0	0	
9	0	0	0	0	546	526	0	0	0	0	
10	0	0	0	0	545	526	0	0	0	0	
11	0	0	0	0	545	526	0	0	0	0	
12	0	0	0	0	544	524	0	0	0	0	
13	0	0	0	0	543	524	0	0	0	0	
14	0	0	0	0	543	523	0	0	0	0	
15	0	0	0	0	542	521	0	0	0	0	
0	0	0	0	0	542	520	0	0	0	0	
1	0	0	0	0	543	519	0	0	0	0	
2	0	0	0	0	543	519	0	0	0	0	
3	0	0	0	0	543	519	0	0	0	0	
4	0	0	0	0	545	519	0	0	0	0	
5	0	0	0	0	546	519	0	0	0	0	
6	0	0	0	0	547	520	0	0	0	0	
7	0	0	0	0	548	521	0	0	0	0	
8	0	0	0	0	549	522	0	0	0	0	
9	0	0	0	0	550	523	0	0	0	0	
10	0	0	0	0	550	525	0	0	0	0	
11	0	0	0	0	551	526	0	0	0	0	
12	0	0	0	0	551	527	0	0	0	0	
13	0	0	0	0	550	528	0	0	0	0	
14	0	0	0	0	550	529	0	0	0	0	
15	0	0	0	0	549	529	0	0	0	0	
0	0	0	0	0	548	528	0	0	0	0	
1	0	0	0	0	547	527	0	0	0	0	
2	0	0	0	0	546	527	0	0	0	0	
3	0	0	0	0	545	526	0	0	0	0	
4	0	0	0	0	544	524	0	0	0	0	
5	0	0	0	0	543	522	0	0	0	0	
6	0	0	0	0	543	521	0	0	0	0	
7	0	0	0	0	542	519	0	0	0	0	
8	0	0	0	0	542	518	0	0	0	0	
9	0	0	0	0	542	517	0	0	0	0	
10	0	0	0	0	542	517	0	0	0	0	
11	0	0	0	0	542	517	0	0	0	0	
12	0	0	0	0	542	517	0	0	0	0	
13	0	0	0	0	542	518	0	0	0	0	
14	0	0	0	0	541	519	0	0	0	0	
15	0	0	0	0	541	519	0	0	0	0	
0	0	0	0	0	541	520	0	0	0	0	
1	0	0	0	0	540	521	0	0	0	0	
2	0	0	0	0	541	522	0	0	0	0	
3	0	0	0	0	542	523	0	0	0	0	
4	0	0	0	0	542	523	0	0	0	0	
5	0	0	0	0	542	523	0	0	0	0	
6	0	0	0	0	542	523	0	0	0	0	
7	0	0	0	0	543	522	0	0	0	0	
8	0	0	0	0	543	521	0	0	0	0	
9	0	0	0	0	544	521	0	0	0	0	
10	0	0	0	0	544	521	0	0	0	0	
11	0	0	0	0	545	521	0	0	0	0	
12	0	0	0	0	546	521	0	0	0	0	
13	0	0	0	0	547	522	0	0	0	0	
14	0	0	0	0	548	522	0	0	0	0	
15	0	0	0	0	548	523	0	0	0	0	
0	0	0	0	0	549	523	0	0	0	0	
1	0	0	0	0	548	524	0	0	0	0	
2	0	0	0	0	548	524	0	0	0	0	
3	0	0	0	0	547	524	0	0	0	0	
4	0	0	0	0	545	523	0	0	0	0	
5	0	0	0	0	544	523	0	0	0	0	
6	0	0	0	0	543	523	0	0	0	0	
7	0	0	0	0	541	521	0	0	0	0	
8	0	0	0	0	540	521	0	0	0	0	
9	0	0	0	0	539	520	0	0	0	0	
10	0	0	0	0	538	519	0	0	0	0	
11	0	0	0	0	538	518	0	0	0	0	
12	0	0	0	0	537	516	0	0	0	0	
13	0	0	0	0	537	516	0	0	0	0	
14	0	0	0	0	537	515	0	0	0	0	
15	0	0	0	0	537	514	0	0	0	0	
0	0	0	0	0	538	514	0	0	0	0	
1	0	0	0	0	538	513	0	0	0	0	
2	0	0	0	0	539	513	0	0	0	0	
3	0	0	0	0	538	513	0	0	0	0	
4	0	0	0	0	539	514	0	0	0	0	
5	0	0	0	0	539	514	0	0	0	0	
6	0	0	0	0	538	514	0	0	0	0	
7	0	0	0	0	538	515	0	0	0	0	
8	0	0	0	0	537	515	0	0	0	0	
9	0	0	0	0	537	516	0	0	0	0	
10	0	0	0	0	536	516	0	0	0	0	
11	0	0	0	0	536	516	0	0	0	0	
12	0	0	0	0	536	517	0	0	0	0	
13	0	0	0	0	536	516	0	0	0	0	
14	0	0	0	0	536	516	0	0	0	0	
15	0	0	0	0	537	516	0	0	0	0	
0	0	0	0	0	537	515	0	0	0	0	
1	0	0	0	0	539	515	0	0	0	0	
2	0	0	0	0	540	515	0	0	0	0	
3	0	0	0	0	540	514	0	0	0	0	
4	0	0	0	0	541	514	0	0	0	0	
5	0	0	0	0	542	513	0	0	0	0	
6	0	0	0	0	542	512	0	0	0	0	
7	0	0	0	0	542	512	0	0	0	0	
8	0	0	0	0	541	512	0	0	0	0	
9	0	0	0	0	540	511	0	0	0	0	
10	0	0	0	0	538	511	0	0	0	0	
11	0	0	0	0	537	510	0	0	0	0	
12	0	0	0	0	535	510	0	0	0	0	
13	0	0	0	0	534	509	0	0	0	0	
14	0	0	0	0	532	509	0	0	0	0	
15	0	0	0	0	531	508	0	0	0	0	
0	0	0	0	0	531	508	0	0	0	0	
1	0	0	0	0	530	508	0	0	0	0	
2	0	0	0	0	530	508	0	0	0	0	
3	0	0	0	0	531	509	0	0	0	0	
4	0	0	0	0	531	509	0	0	0	0	
5	0	0	0	0	532	510	0	0	0	0	
6	0	0	0	0	534	510	0	0	0	0	
7	0	0	0	0	535	511	0	0	0	0	
8	0	0	0	0	538	512	0	0	0	0	
9	0	0	0	0	540	514	0	0	0	0	
10	0	0	0	0	541	515	0	0	0	0	
11	0	0	0	0	543	517	0	0	0	0	
12	0	0	0	0	543	519	0	0	0	0	
13	0	0	0	0	545	520	0	0	0	0	
14	0	0	0	0	546	522	0	0	0	0	
15	0	0	0	0	547	523	0	0	0	0	
0	0	0	0	0	547	524	0	0	0	0	
1	0	0	0	0	546	524	0	0	0	0	
2	0	0	0	0	546	525	0	0	0	0	
3	0	0	0	0	545	525	0	0	0	0	
4	0	0	0	0	545	524	0	0	0	0	
5	0	0	0	0	544	523	0	0	0	0	
6	0	0	0	0	542	521	0	0	0	0	
7	0	0	0	0	542	520	0	0	0	0	
8	0	0	0	0	541	518	0	0	0	0	
9	0	0	0	0	540	515	0	0	0	0	
10	0	0	0	0	538	513	0	0	0	0	
11	0	0	0	0	537	512	0	0	0	0	
12	0	0	0	0	538	511	0	0	0	0	
13	0	0	0	0	537	510	0	0	0	0	
14	0	0	0	0	538	511	0	0	0	0	
15	0	0	0	0	538	511	0	0	0	0	
0	0	0	0	0	539	512	0	0	0	0	
1	0	0	0	0	540	514	0	0	0	0	
2	0	0	0	0	540	515	0	0	0	0	
3	0	0	0	0	541	517	0	0	0	0	
4	0	0	0	0	542	518	0	0	0	0	
5	0	0	0	0	542	519	0	0	0	0	
6	0	0	0	0	543	520	0	0	0	0	
7	0	0	0	0	543	520	0	0	0	0	
8	0	0	0	0	543	521	0	0	0	0	
9	0	0	0	0	542	519	0	0	0	0	
10	0	0	0	0	541	519	0	0	0	0	
11	0	0	0	0	540	518	0	0	0	0	
12	0	0	0	0	540	516	0	0	0	0	
13	0	0	0	0	539	514	0	0	0	0	
14	0	0	0	0	538	513	0	0	0	0	
15	0	0	0	0	537	512	0	0	0	0	
0	0	0	0	0	538	511	0	0	0	0	
1	0	0	0	0	538	511	0	0	0	0	
2	0	0	0	0	539	511	0	0	0	0	
3	0	0	0	0	539	511	0	0	0	0	
4	0	0	0	0	539	512	0	0	0	0	
5	0	0	0	0	540	514	0	0	0	0	
6	0	0	0	0	541	515	0	0	0	0	
7	0	0	0	0	542	517	0	0	0	0	
8	0	0	0	0	542	518	0	0	0	0	
9	0	0	0	0	543	520	0	0	0	0	
10	0	0	0	0	544	522	0	0	0	0	
11	0	0	0	0	544	523	0	0	0	0	
12	0	0	0	0	545	524	0	0	0	0	
13	0	0	0	0	545	526	0	0	0	0	
14	0	0	0	0	545	526	0	0	0	0	
15	0	0	0	0	546	527	0	0	0	0	
0	0	0	0	0	547	527	0	0	0	0	
1	0	0	0	0	547	527	0	0	0	0	
2	0	0	0	0	547	526	0	0	0	0	
3	0	0	0	0	547	525	0	0	0	0	
4	0	0	0	0	547	524	0	0	0	0	
5	0	0	0	0	546	523	0	0	0	0	
6	0	0	0	0	545	521	0	0	0	0	
7	0	0	0	0	543	519	0	0	0	0	
8	0	0	0	0	542	517	0	0	0	0	
9	0	0	0	0	540	516	0	0	0	0	
10	0	0	0	0	539	515	0	0	0	0	
11	0	0	0	0	538	515	0	0	0	0	
12	0	0	0	0	537	515	0	0	0	0	
13	0	0	0	0	538	516	0	0	0	0	
14	0	0	0	0	539	518	0	0	0	0	
15	0	0	0	0	540	519	0	0	0	0	
0	0	0	0	0	541	522	0	0	0	0	
1	0	0	0	0	543	524	0	0	0	0	
2	0	0	0	0	545	526	0	0	0	0	
3	0	0	0	0	547	527	0	0	0	0	
4	0	0	0	0	548	528	0	0	0	0	
5	0	0	0	0	550	529	0	0	0	0	
6	0	0	0	0	550	529	0	0	0	0	
7	0	0	0	0	551	529	0	0	0	0	
8	0	0	0	0	552	529	0	0	0	0	
9	0	0	0	0	552	529	0	0	0	0	
10	0	0	0	0	552	529	0	0	0	0	
11	0	0	0	0	551	528	0	0	0	0	
12	0	0	0	0	552	528	0	0	0	0	
13	0	0	0	0	551	528	0	0	0	0	
14	0	0	0	0	551	527	0	0	0	0	
15	0	0	0	0	551	527	0	0	0	0	
0	0	0	0	0	550	527	0	0	0	0	
1	0	0	0	0	550	527	0	0	0	0	
2	0	0	0	0	550	527	0	0	0	0	
3	0	0	0	0	549	528	0	0	0	0	
4	0	0	0	0	549	528	0	0	0	0	
5	0	0	0	0	548	528	0	0	0	0	
6	0	0	0	0	549	528	0	0	0	0	
7	0	0	0	0	548	528	0	0	0	0	
8	0	0	0	0	548	528	0	0	0	0	
9	0	0	0	0	548	528	0	0	0	0	
10	0	0	0	0	547	527	0	0	0	0	
11	0	0	0	0	547	527	0	0	0	0	
12	0	0	0	0	547	527	0	0	0	0	
13	0	0	0	0	547	527	0	0	0	0	
14	0	0	0	0	547	527	0	0	0	0	
15	0	0	0	0	547	527	0	0	0	0	
0	0	0	0	0	547	527	0	0	0	0	
1	0	0	0	0	547	527	0	0	0	0	
2	0	0	0	0	547	527	0	0	0	0	
3	0	0	0	0	547	527	0	0	0	0	
4	0	0	0	0	546	528	0	0	0	0	
5	0	0	0	0	547	528	0	0	0	0	
6	0	0	0	0	547	528	0	0	0	0	
7	0	0	0	0	546	528	0	0	0	0	
8	0	0	0	0	546	528	0	0	0	0	
9	0	0	0	0	546	527	0	0	0	0	
10	0	0	0	0	546	527	0	0	0	0	
11	0	0	0	0	546	527	0	0	0	0	
12	0	0	0	0	545	525	0	0	0	0	
13	0	0	0	0	545	524	0	0	0	0	
14	0	0	0	0	544	523	0	0	0	0	
15	0	0	0	0	543	521	0	0	0	0	
0	0	0	0	0	541	519	0	0	0	0	
1	0	0	0	0	540	518	0	0	0	0	
2	0	0	0	0	539	516	0	0	0	0	
3	0	0	0	0	536	515	0	0	0	0	
4	0	0	0	0	536	514	0	0	0	0	
5	0	0	0	0	535	513	0	0	0	0	
6	0	0	0	0	534	513	0	0	0	0	
7	0	0	0	0	533	512	0	0	0	0	
8	0	0	0	0	533	512	0	0	0	0	
9	0	0	0	0	533	512	0	0	0	0	
10	0	0	0	0	534	512	0	0	0	0	
11	0	0	0	0	534	512	0	0	0	0	
12	0	0	0	0	534	513	0	0	0	0	
13	0	0	0	0	535	513	0	0	0	0	
14	0	0	0	0	535	513	0	0	0	0	
15	0	0	0	0	536	513	0	0	0	0	
0	0	0	0	0	536	512	0	0	0	0	
1	0	0	0	0	536	511	0	0	0	0	
2	0	0	0	0	536	511	0	0	0	0	
3	0	0	0	0	535	510	0	0	0	0	
4	0	0	0	0	536	510	0	0	0	0	
5	0	0	0	0	535	509	0	0	0	0	
6	0	0	0	0	534	509	0	0	0	0	
7	0	0	0	0	534	508	0	0	0	0	
8	0	0	0	0	532	508	0	0	0	0	
9	0	0	0	0	532	509	0	0	0	0	
10	0	0	0	0	531	509	0	0	0	0	
11	0	0	0	0	531	510	0	0	0	0	
12	0	0	0	0	530	510	0	0	0	0	
13	0	0	0	0	529	511	0	0	0	0	
14	0	0	0	0	530	512	0	0	0	0	
15	0	0	0	0	531	513	0	0	0	0	
0	0	0	0	0	532	514	0	0	0	0	
1	0	0	0	0	533	515	0	0	0	0	
2	0	0	0	0	535	515	0	0	0	0	
3	0	0	0	0	537	517	0	0	0	0	
4	0	0	0	0	539	518	0	0	0	0	
5	0	0	0	0	541	518	0	0	0	0	
6	0	0	0	0	543	518	0	0	0	0	
7	0	0	0	0	543	519	0	0	0	0	
8	0	0	0	0	545	519	0	0	0	0	
9	0	0	0	0	546	519	0	0	0	0	
10	0	0	0	0	547	519	0	0	0	0	
11	0	0	0	0	545	519	0	0	0	0	
12	0	0	0	0	546	520	0	0	0	0	
13	0	0	0	0	546	520	0	0	0	0	
14	0	0	0	0	545	520	0	0	0	0	
15	0	0	0	0	544	521	0	0	0	0	
0	0	0	0	0	544	521	0	0	0	0	
1	0	0	0	0	542	521	0	0	0	0	
2	0	0	0	0	542	521	0	0	0	0	
3	0	0	0	0	540	520	0	0	0	0	
4	0	0	0	0	539	519	0	0	0	0	
5	0	0	0	0	537	517	0	0	0	0	
6	0	0	0	0	536	515	0	0	0	0	
7	0	0	0	0	535	513	0	0	0	0	
8	0	0	0	0	534	511	0	0	0	0	
9	0	0	0	0	533	510	0	0	0	0	
10	0	0	0	0	532	508	0	0	0	0	
11	0	0	0	0	531	507	0	0	0	0	
12	0	0	0	0	532	506	0	0	0	0	
13	0	0	0	0	532	505	0	0	0	0	
14	0	0	0	0	533	506	0	0	0	0	
15	0	0	0	0	534	507	0	0	0	0	
0	0	0	0	0	535	508	0	0	0	0	
1	0	0	0	0	536	509	0	0	0	0	
2	0	0	0	0	537	511	0	0	0	0	
3	0	0	0	0	538	513	0	0	0	0	
4	0	0	0	0	540	515	0	0	0	0	
5	0	0	0	0	539	516	0	0	0	0	
6	0	0	0	0	540	518	0	0	0	0	
7	0	0	0	0	540	519	0	0	0	0	
8	0	0	0	0	539	519	0	0	0	0	
9	0	0	0	0	539	519	0	0	0	0	
10	0	0	0	0	537	518	0	0	0	0	
11	0	0	0	0	538	518	0	0	0	0	
12	0	0	0	0	537	516	0	0	0	0	
13	0	0	0	0	537	515	0	0	0	0	
14	0	0	0	0	537	514	0	0	0	0	
15	0	0	0	0	537	513	0	0	0	0	
0	0	0	0	0	538	512	0	0	0	0	
1	0	0	0	0	539	512	0	0	0	0	
2	0	0	0	0	539	512	0	0	0	0	
3	0	0	0	0	540	512	0	0	0	0	
4	0	0	0	0	540	512	0	0	0	0	
5	0	0	0	0	541	513	0	0	0	0	
6	0	0	0	0	542	514	0	0	0	0	
7	0	0	0	0	542	515	0	0	0	0	
8	0	0	0	0	542	515	0	0	0	0	
9	0	0	0	0	542	516	0	0	0	0	
10	0	0	0	0	542	517	0	0	0	0	
11	0	0	0	0	542	518	0	0	0	0	
12	0	0	0	0	540	516	0	0	0	0	
13	0	0	0	0	539	515	0	0	0	0	
14	0	0	0	0	536	512	0	0	0	0	
15	0	0	0	0	533	508	0	0	0	0	
0	0	0	0	0	529	504	0	0	0	0	
1	0	0	0	0	524	498	0	0	0	0	
2	0	0	0	0	517	491	0	0	0	0	
3	0	0	0	0	510	483	0	0	0	0	
4	0	0	0	0	502	475	0	0	0	0	
5	0	0	0	0	492	466	0	0	0	0	
6	0	0	0	0	483	457	0	0	0	0	
7	0	0	0	0	473	448	0	0	0	0	
8	0	0	0	0	463	439	0	0	0	0	
9	0	0	0	0	453	430	0	0	0	0	
10	0	0	0	0	443	422	0	0	0	0	
11	0	0	0	0	433	412	0	0	0	0	
12	0	0	0	0	424	403	0	0	0	0	
13	0	0	0	0	415	395	0	0	0	0	
14	0	0	0	0	406	386	0	0	0	0	
15	0	0	0	0	397	377	0	0	0	0	
0	0	0	0	0	388	367	0	0	0	0	
1	0	0	0	0	378	357	0	0	0	0	
2	0	0	0	0	368	346	0	0	0	0	
3	0	0	0	0	358	335	0	0	0	0	
4	0	0	0	0	348	324	0	0	0	0	
5	0	0	0	0	339	314	0	0	0	0	
6	0	0	0	0	332	305	0	0	0	0	
7	0	0	0	0	325	297	0	0	0	0	
8	0	0	0	0	322	293	0	0	0	0	
9	0	0	0	0	321	292	0	0	0	0	
10	0	0	0	0	324	294	0	0	0	0	
11	0	0	0	0	331	299	0	0	0	0	
12	0	0	0	0	342	309	0	0	0	0	
13	0	0	0	0	356	322	0	0	0	0	
14	0	0	0	0	374	338	0	0	0	0	
15	0	0	0	0	395	357	0	0	0	0	
0	0	0	0	0	416	377	0	0	0	0	
1	0	0	0	0	440	399	0	0	0	0	
2	0	0	0	0	463	423	0	0	0	0	
3	0	0	0	0	486	444	0	0	0	0	
4	0	0	0	0	507	465	0	0	0	0	
5	0	0	0	0	526	484	0	0	0	0	
6	0	0	0	0	541	500	0	0	0	0	
7	0	0	0	0	555	514	0	0	0	0	
8	0	0	0	0	563	524	0	0	0	0	
9	0	0	0	0	570	532	0	0	0	0	
10	0	0	0	0	573	536	0	0	0	0	
11	0	0	0	0	573	537	0	0	0	0	
12	0	0	0	0	572	537	0	0	0	0	
13	0	0	0	0	568	535	0	0	0	0	
14	0	0	0	0	563	532	0	0	0	0	
15	0	0	0	0	557	528	0	0	0	0	
0	0	0	0	0	552	524	0	0	0	0	
1	0	0	0	0	546	520	0	0	0	0	
2	0	0	0	0	541	516	0	0	0	0	
3	0	0	0	0	536	513	0	0	0	0	
4	0	0	0	0	532	510	0	0	0	0	
5	0	0	0	0	530	508	0	0	0	0	
6	0	0	0	0	528	507	0	0	0	0	
7	0	0	0	0	528	505	0	0	0	0	
8	0	0	0	0	528	505	0	0	0	0	
9	0	0	0	0	530	505	0	0	0	0	
10	0	0	0	0	533	507	0	0	0	0	
11	0	0	0	0	536	509	0	0	0	0	
12	0	0	0	0	540	511	0	0	0	0	
13	0	0	0	0	543	513	0	0	0	0	
14	0	0	0	0	547	516	0	0	0	0	
15	0	0	0	0	550	519	0	0	0	0	
0	0	0	0	0	553	522	0	0	0	0	
1	0	0	0	0	555	524	0	0	0	0	
2	0	0	0	0	556	527	0	0	0	0	
3	0	0	0	0	557	528	0	0	0	0	
4	0	0	0	0	558	530	0	0	0	0	
5	0	0	0	0	557	531	0	0	0	0	
6	0	0	0	0	556	531	0	0	0	0	
7	0	0	0	0	555	531	0	0	0	0	
8	0	0	0	0	553	531	0	0	0	0	
9	0	0	0	0	551	530	0	0	0	0	
10	0	0	0	0	549	530	0	0	0	0	
11	0	0	0	0	547	528	0	0	0	0	
12	0	0	0	0	546	527	0	0	0	0	
13	0	0	0	0	545	526	0	0	0	0	
14	0	0	0	0	544	525	0	0	0	0	
15	0	0	0	0	544	524	0	0	0	0	
0	0	0	0	0	544	523	0	0	0	0	
1	0	0	0	0	544	522	0	0	0	0	
2	0	0	0	0	544	521	0	0	0	0	
3	0	0	0	0	546	520	0	0	0	0	
4	0	0	0	0	547	520	0	0	0	0	
5	0	0	0	0	548	520	0	0	0	0	
6	0	0	0	0	549	520	0	0	0	0	
7	0	0	0	0	550	520	0	0	0	0	
8	0	0	0	0	551	521	0	0	0	0	
9	0	0	0	0	552	523	0	0	0	0	
10	0	0	0	0	553	524	0	0	0	0	
11	0	0	0	0	554	525	0	0	0	0	
12	0	0	0	0	555	526	0	0	0	0	
13	0	0	0	0	555	527	0	0	0	0	
14	0	0	0	0	555	528	0	0	0	0	
15	0	0	0	0	555	528	0	0	0	0	
0	0	0	0	0	556	529	0	0	0	0	
1	0	0	0	0	556	530	0	0	0	0	
2	0	0	0	0	555	530	0	0	0	0	
3	0	0	0	0	556	530	0	0	0	0	
4	0	0	0	0	555	529	0	0	0	0	
5	0	0	0	0	556	529	0	0	0	0	
6	0	0	0	0	555	528	0	0	0	0	
7	0	0	0	0	555	527	0	0	0	0	
8	0	0	0	0	555	526	0	0	0	0	
9	0	0	0	0	554	525	0	0	0	0	
10	0	0	0	0	552	524	0	0	0	0	
11	0	0	0	0	551	523	0	0	0	0	
12	0	0	0	0	549	522	0	0	0	0	
13	0	0	0	0	548	522	0	0	0	0	
14	0	0	0	0	547	521	0	0	0	0	
15	0	0	0	0	547	522	0	0	0	0	
0	0	0	0	0	545	522	0	0	0	0	
1	0	0	0	0	546	523	0	0	0	0	
2	0	0	0	0	546	523	0	0	0	0	
3	0	0	0	0	547	523	0	0	0	0	
4	0	0	0	0	547	524	0	0	0	0	
5	0	0	0	0	548	524	0	0	0	0	
6	0	0	0	0	550	524	0	0	0	0	
7	0	0	0	0	551	524	0	0	0	0	
8	0	0	0	0	552	524	0	0	0	0	
9	0	0	0	0	552	523	0	0	0	0	
10	0	0	0	0	553	522	0	0	0	0	
11	0	0	0	0	553	521	0	0	0	0	
12	0	0	0	0	553	520	0	0	0	0	
13	0	0	0	0	551	519	0	0	0	0	
14	0	0	0	0	551	519	0	0	0	0	
15	0	0	0	0	549	518	0	0	0	0	
0	0	0	0	0	547	518	0	0	0	0	
1	0	0	0	0	546	518	0	0	0	0	
2	0	0	0	0	545	518	0	0	0	0	
3	0	0	0	0	544	518	0	0	0	0	
4	0	0	0	0	543	519	0	0	0	0	
5	0	0	0	0	542	519	0	0	0	0	
6	0	0	0	0	543	519	0	0	0	0	
7	0	0	0	0	542	519	0	0	0	0	
8	0	0	0	0	542	519	0	0	0	0	
9	0	0	0	0	540	517	0	0	0	0	
10	0	0	0	0	540	516	0	0	0	0	
11	0	0	0	0	540	515	0	0	0	0	
12	0	0	0	0	540	515	0	0	0	0	
13	0	0	0	0	540	513	0	0	0	0	
14	0	0	0	0	540	512	0	0	0	0	
15	0	0	0	0	540	512	0	0	0	0	
0	0	0	0	0	540	512	0	0	0	0	
1	0	0	0	0	541	512	0	0	0	0	
2	0	0	0	0	541	512	0	0	0	0	
3	0	0	0	0	541	512	0	0	0	0	
4	0	0	0	0	541	513	0	0	0	0	
5	0	0	0	0	542	515	0	0	0	0	
6	0	0	0	0	542	516	0	0	0	0	
7	0	0	0	0	543	517	0	0	0	0	
8	0	0	0	0	543	519	0	0	0	0	
9	0	0	0	0	543	520	0	0	0	0	
10	0	0	0	0	543	521	0	0	0	0	
11	0	0	0	0	543	521	0	0	0	0	
12	0	0	0	0	542	520	0	0	0	0	
13	0	0	0	0	541	519	0	0	0	0	
14	0	0	0	0	540	518	0	0	0	0	
15	0	0	0	0	538	516	0	0	0	0	
0	0	0	0	0	536	514	0	0	0	0	
1	0	0	0	0	535	513	0	0	0	0	
2	0	0	0	0	534	511	0	0	0	0	
3	0	0	0	0	532	510	0	0	0	0	
4	0	0	0	0	532	509	0	0	0	0	
5	0	0	0	0	532	508	0	0	0	0	
6	0	0	0	0	532	508	0	0	0	0	
7	0	0	0	0	532	508	0	0	0	0	
8	0	0	0	0	533	509	0	0	0	0	
9	0	0	0	0	534	510	0	0	0	0	
10	0	0	0	0	535	511	0	0	0	0	
11	0	0	0	0	536	512	0	0	0	0	
12	0	0	0	0	536	513	0	0	0	0	
13	0	0	0	0	537	514	0	0	0	0	
14	0	0	0	0	537	515	0	0	0	0	
15	0	0	0	0	537	515	0	0	0	0	
0	0	0	0	0	536	515	0	0	0	0	
1	0	0	0	0	535	514	0	0	0	0	
2	0	0	0	0	535	513	0	0	0	0	
3	0	0	0	0	534	512	0	0	0	0	
4	0	0	0	0	533	511	0	0	0	0	
5	0	0	0	0	532	509	0	0	0	0	
6	0	0	0	0	531	508	0	0	0	0	
7	0	0	0	0	531	507	0	0	0	0	
8	0	0	0	0	530	506	0	0	0	0	
9	0	0	0	0	529	505	0	0	0	0	
10	0	0	0	0	529	505	0	0	0	0	
11	0	0	0	0	529	505	0	0	0	0	
12	0	0	0	0	529	506	0	0	0	0	
13	0	0	0	0	530	508	0	0	0	0	
14	0	0	0	0	531	509	0	0	0	0	
15	0	0	0	0	532	511	0	0	0	0	
0	0	0	0	0	533	513	0	0	0	0	
1	0	0	0	0	534	515	0	0	0	0	
2	0	0	0	0	536	516	0	0	0	0	
3	0	0	0	0	537	517	0	0	0	0	
4	0	0	0	0	537	517	0	0	0	0	
5	0	0	0	0	538	517	0	0	0	0	
6	0	0	0	0	537	516	0	0	0	0	
7	0	0	0	0	537	515	0	0	0	0	
8	0	0	0	0	537	514	0	0	0	0	
9	0	0	0	0	536	512	0	0	0	0	
10	0	0	0	0	536	511	0	0	0	0	
11	0	0	0	0	535	509	0	0	0	0	
12	0	0	0	0	534	508	0	0	0	0	
13	0	0	0	0	534	507	0	0	0	0	
14	0	0	0	0	534	507	0	0	0	0	
15	0	0	0	0	534	507	0	0	0	0	
0	0	0	0	0	534	508	0	0	0	0	
1	0	0	0	0	535	509	0	0	0	0	
2	0	0	0	0	536	511	0	0	0	0	
3	0	0	0	0	537	513	0	0	0	0	
4	0	0	0	0	538	515	0	0	0	0	
5	0	0	0	0	539	517	0	0	0	0	
6	0	0	0	0	540	519	0	0	0	0	
7	0	0	0	0	541	519	0	0	0	0	
8	0	0	0	0	542	520	0	0	0	0	
9	0	0	0	0	541	519	0	0	0	0	
10	0	0	0	0	542	519	0	0	0	0	
11	0	0	0	0	541	517	0	0	0	0	
12	0	0	0	0	540	515	0	0	0	0	
13	0	0	0	0	538	513	0	0	0	0	
14	0	0	0	0	536	510	0	0	0	0	
15	0	0	0	0	535	508	0	0	0	0	
0	0	0	0	0	534	506	0	0	0	0	
1	0	0	0	0	532	505	0	0	0	0	
2	0	0	0	0	531	504	0	0	0	0	
3	0	0	0	0	530	504	0	0	0	0	
4	0	0	0	0	531	505	0	0	0	0	
5	0	0	0	0	531	507	0	0	0	0	
6	0	0	0	0	531	508	0	0	0	0	
7	0	0	0	0	532	510	0	0	0	0	
8	0	0	0	0	532	512	0	0	0	0	
9	0	0	0	0	534	514	0	0	0	0	
10	0	0	0	0	535	515	0	0	0	0	
11	0	0	0	0	535	516	0	0	0	0	
12	0	0	0	0	536	517	0	0	0	0	
13	0	0	0	0	535	516	0	0	0	0	
14	0	0	0	0	536	516	0	0	0	0	
15	0	0	0	0	536	516	0	0	0	0	
0	0	0	0	0	536	515	0	0	0	0	
1	0	0	0	0	536	514	0	0	0	0	
2	0	0	0	0	536	513	0	0	0	0	
3	0	0	0	0	536	513	0	0	0	0	
4	0	0	0	0	537	513	0	0	0	0	
5	0	0	0	0	538	514	0	0	0	0	
6	0	0	0	0	539	515	0	0	0	0	
7	0	0	0	0	540	516	0	0	0	0	
8	0	0	0	0	541	518	0	0	0	0	
9	0	0	0	0	542	520	0	0	0	0	
10	0	0	0	0	543	523	0	0	0	0	
11	0	0	0	0	544	524	0	0	0	0	
12	0	0	0	0	545	526	0	0	0	0	
13	0	0	0	0	546	527	0	0	0	0	
14	0	0	0	0	547	528	0	0	0	0	
15	0	0	0	0	547	528	0	0	0	0	
0	0	0	0	0	547	528	0	0	0	0	
1	0	0	0	0	546	527	0	0	0	0	
2	0	0	0	0	545	526	0	0	0	0	
3	0	0	0	0	545	524	0	0	0	0	
4	0	0	0	0	544	521	0	0	0	0	
5	0	0	0	0	543	519	0	0	0	0	
6	0	0	0	0	542	517	0	0	0	0	
7	0	0	0	0	541	515	0	0	0	0	
8	0	0	0	0	541	513	0	0	0	0	
9	0	0	0	0	540	512	0	0	0	0	
10	0	0	0	0	540	511	0	0	0	0	
11	0	0	0	0	539	511	0	0	0	0	
12	0	0	0	0	540	511	0	0	0	0	
13	0	0	0	0	540	512	0	0	0	0	
14	0	0	0	0	541	513	0	0	0	0	
15	0	0	0	0	542	515	0	0	0	0	
0	0	0	0	0	542	516	0	0	0	0	
1	0	0	0	0	543	518	0	0	0	0	
2	0	0	0	0	544	519	0	0	0	0	
3	0	0	0	0	545	521	0	0	0	0	
4	0	0	0	0	545	521	0	0	0	0	
5	0	0	0	0	545	521	0	0	0	0	
6	0	0	0	0	546	522	0	0	0	0	
7	0	0	0	0	546	522	0	0	0	0	
8	0	0	0	0	546	521	0	0	0	0	
9	0	0	0	0	545	519	0	0	0	0	
10	0	0	0	0	544	517	0	0	0	0	
11	0	0	0	0	543	516	0	0	0	0	
12	0	0	0	0	543	514	0	0	0	0	
13	0	0	0	0	543	513	0	0	0	0	
14	0	0	0	0	542	513	0	0	0	0	
15	0	0	0	0	541	513	0	0	0	0	
0	0	0	0	0	541	513	0	0	0	0	
1	0	0	0	0	540	515	0	0	0	0	
2	0	0	0	0	539	515	0	0	0	0	
3	0	0	0	0	539	516	0	0	0	0	
4	0	0	0	0	539	518	0	0	0	0	
5	0	0	0	0	538	519	0	0	0	0	
6	0	0	0	0	539	520	0	0	0	0	
7	0	0	0	0	539	520	0	0	0	0	
8	0	0	0	0	539	520	0	0	0	0	
9	0	0	0	0	539	520	0	0	0	0	
10	0	0	0	0	538	519	0	0	0	0	
11	0	0	0	0	539	519	0	0	0	0	
12	0	0	0	0	539	518	0	0	0	0	
13	0	0	0	0	539	517	0	0	0	0	
14	0	0	0	0	539	516	0	0	0	0	
15	0	0	0	0	539	515	0	0	0	0	
0	0	0	0	0	539	514	0	0	0	0	
1	0	0	0	0	539	514	0	0	0	0	
2	0	0	0	0	539	513	0	0	0	0	
3	0	0	0	0	539	513	0	0	0	0	
4	0	0	0	0	537	513	0	0	0	0	
5	0	0	0	0	537	514	0	0	0	0	
6	0	0	0	0	536	514	0	0	0	0	
7	0	0	0	0	536	515	0	0	0	0	
8	0	0	0	0	535	515	0	0	0	0	
9	0	0	0	0	534	516	0	0	0	0	
10	0	0	0	0	535	517	0	0	0	0	
11	0	0	0	0	535	517	0	0	0	0	
12	0	0	0	0	535	517	0	0	0	0	
13	0	0	0	0	536	516	0	0	0	0	
14	0	0	0	0	536	516	0	0	0	0	
15	0	0	0	0	538	516	0	0	0	0	
0	0	0	0	0	539	515	0	0	0	0	
1	0	0	0	0	540	514	0	0	0	0	
2	0	0	0	0	542	514	0	0	0	0	
3	0	0	0	0	543	514	0	0	0	0	
4	0	0	0	0	545	515	0	0	0	0	
5	0	0	0	0	545	515	0	0	0	0	
6	0	0	0	0	547	516	0	0	0	0	
7	0	0	0	0	547	517	0	0	0	0	
8	0	0	0	0	547	519	0	0	0	0	
9	0	0	0	0	548	519	0	0	0	0	
10	0	0	0	0	547	520	0	0	0	0	
11	0	0	0	0	547	522	0	0	0	0	
12	0	0	0	0	547	523	0	0	0	0	
13	0	0	0	0	547	523	0	0	0	0	
14	0	0	0	0	547	524	0	0	0	0	
15	0	0	0	0	547	524	0	0	0	0	
0	0	0	0	0	547	523	0	0	0	0	
1	0	0	0	0	547	522	0	0	0	0	
2	0	0	0	0	546	521	0	0	0	0	
3	0	0	0	0	547	520	0	0	0	0	
4	0	0	0	0	547	518	0	0	0	0	
5	0	0	0	0	547	516	0	0	0	0	
6	0	0	0	0	547	515	0	0	0	0	
7	0	0	0	0	546	513	0	0	0	0	
8	0	0	0	0	546	513	0	0	0	0	
9	0	0	0	0	545	512	0	0	0	0	
10	0	0	0	0	545	511	0	0	0	0	
11	0	0	0	0	544	512	0	0	0	0	
12	0	0	0	0	544	512	0	0	0	0	
13	0	0	0	0	544	513	0	0	0	0	
14	0	0	0	0	543	514	0	0	0	0	
15	0	0	0	0	543	515	0	0	0	0	
0	0	0	0	0	543	516	0	0	0	0	
1	0	0	0	0	542	516	0	0	0	0	
2	0	0	0	0	543	518	0	0	0	0	
3	0	0	0	0	542	518	0	0	0	0	
4	0	0	0	0	542	518	0	0	0	0	
5	0	0	0	0	542	518	0	0	0	0	
6	0	0	0	0	541	517	0	0	0	0	
7	0	0	0	0	542	516	0	0	0	0	
8	0	0	0	0	542	516	0	0	0	0	
9	0	0	0	0	542	515	0	0	0	0	
10	0	0	0	0	542	514	0	0	0	0	
11	0	0	0	0	542	514	0	0	0	0	
12	0	0	0	0	542	513	0	0	0	0	
13	0	0	0	0	542	513	0	0	0	0	
14	0	0	0	0	542	512	0	0	0	0	
15	0	0	0	0	541	512	0	0	0	0	
0	0	0	0	0	540	512	0	0	0	0	
1	0	0	0	0	539	512	0	0	0	0	
2	0	0	0	0	537	512	0	0	0	0	
3	0	0	0	0	536	513	0	0	0	0	
4	0	0	0	0	535	513	0	0	0	0	
5	0	0	0	0	533	513	0	0	0	0	
6	0	0	0	0	534	513	0	0	0	0	
7	0	0	0	0	533	513	0	0	0	0	
8	0	0	0	0	534	513	0	0	0	0	
9	0	0	0	0	534	513	0	0	0	0	
10	0	0	0	0	534	513	0	0	0	0	
11	0	0	0	0	536	513	0	0	0	0	
12	0	0	0	0	536	512	0	0	0	0	
13	0	0	0	0	537	512	0	0	0	0	
14	0	0	0	0	537	511	0	0	0	0	
15	0	0	0	0	538	511	0	0	0	0	
0	0	0	0	0	539	510	0	0	0	0	
1	0	0	0	0	539	510	0	0	0	0	
2	0	0	0	0	539	510	0	0	0	0	
3	0	0	0	0	539	511	0	0	0	0	
4	0	0	0	0	539	511	0	0	0	0	
5	0	0	0	0	539	512	0	0	0	0	
6	0	0	0	0	539	514	0	0	0	0	
7	0	0	0	0	539	515	0	0	0	0	
8	0	0	0	0	540	516	0	0	0	0	
9	0	0	0	0	540	518	0	0	0	0	
10	0	0	0	0	541	519	0	0	0	0	
11	0	0	0	0	542	520	0	0	0	0	
12	0	0	0	0	542	521	0	0	0	0	
13	0	0	0	0	544	521	0	0	0	0	
14	0	0	0	0	544	521	0	0	0	0	
15	0	0	0	0	545	521	0	0	0	0	
0	0	0	0	0	546	520	0	0	0	0	
1	0	0	0	0	547	520	0	0	0	0	
2	0	0	0	0	547	519	0	0	0	0	
3	0	0	0	0	547	519	0	0	0	0	
4	0	0	0	0	547	518	0	0	0	0	
5	0	0	0	0	547	518	0	0	0	0	
6	0	0	0	0	547	518	0	0	0	0	
7	0	0	0	0	545	517	0	0	0	0	
8	0	0	0	0	545	518	0	0	0	0	
9	0	0	0	0	545	518	0	0	0	0	
10	0	0	0	0	545	519	0	0	0	0	
11	0	0	0	0	544	519	0	0	0	0	
12	0	0	0	0	545	519	0	0	0	0	
13	0	0	0	0	544	520	0	0	0	0	
14	0	0	0	0	544	520	0	0	0	0	
15	0	0	0	0	544	520	0	0	0	0	
0	0	0	0	0	543	519	0	0	0	0	
1	0	0	0	0	542	519	0	0	0	0	
2	0	0	0	0	542	518	0	0	0	0	
3	0	0	0	0	543	518	0	0	0	0	
4	0	0	0	0	542	517	0	0	0	0	
5	0	0	0	0	542	516	0	0	0	0	
6	0	0	0	0	542	516	0	0	0	0	
7	0	0	0	0	542	515	0	0	0	0	
8	0	0	0	0	542	515	0	0	0	0	
9	0	0	0	0	542	516	0	0	0	0	
10	0	0	0	0	542	516	0	0	0	0	
11	0	0	0	0	542	517	0	0	0	0	
12	0	0	0	0	542	517	0	0	0	0	
13	0	0	0	0	542	519	0	0	0	0	
14	0	0	0	0	541	519	0	0	0	0	
15	0	0	0	0	541	519	0	0	0	0	
0	0	0	0	0	540	519	0	0	0	0	
1	0	0	0	0	539	519	0	0	0	0	
2	0	0	0	0	538	519	0	0	0	0	
3	0	0	0	0	538	519	0	0	0	0	
4	0	0	0	0	537	519	0	0	0	0	
5	0	0	0	0	537	518	0	0	0	0	
6	0	0	0	0	537	517	0	0	0	0	
7	0	0	0	0	537	516	0	0	0	0	
8	0	0	0	0	537	515	0	0	0	0	
9	0	0	0	0	537	515	0	0	0	0	
10	0	0	0	0	537	513	0	0	0	0	
11	0	0	0	0	537	513	0	0	0	0	
12	0	0	0	0	537	513	0	0	0	0	
13	0	0	0	0	537	513	0	0	0	0	
14	0	0	0	0	537	513	0	0	0	0	
15	0	0	0	0	537	513	0	0	0	0	
0	0	0	0	0	537	513	0	0	0	0	
1	0	0	0	0	537	515	0	0	0	0	
2	0	0	0	0	537	515	0	0	0	0	
3	0	0	0	0	537	516	0	0	0	0	
4	0	0	0	0	537	517	0	0	0	0	
5	0	0	0	0	536	518	0	0	0	0	
6	0	0	0	0	537	518	0	0	0	0	
7	0	0	0	0	537	519	0	0	0	0	
8	0	0	0	0	537	519	0	0	0	0	
9	0	0	0	0	536	519	0	0	0	0	
10	0	0	0	0	536	518	0	0	0	0	
11	0	0	0	0	537	518	0	0	0	0	
12	0	0	0	0	537	518	0	0	0	0	
13	0	0	0	0	537	517	0	0	0	0	
14	0	0	0	0	537	516	0	0	0	0	
15	0	0	0	0	537	515	0	0	0	0	
0	0	0	0	0	538	515	0	0	0	0	
1	0	0	0	0	539	515	0	0	0	0	
2	0	0	0	0	539	515	0	0	0	0	
3	0	0	0	0	540	515	0	0	0	0	
4	0	0	0	0	539	515	0	0	0	0	
5	0	0	0	0	540	517	0	0	0	0	
6	0	0	0	0	540	518	0	0	0	0	
7	0	0	0	0	541	519	0	0	0	0	
8	0	0	0	0	540	519	0	0	0	0	
9	0	0	0	0	540	520	0	0	0	0	
10	0	0	0	0	541	521	0	0	0	0	
11	0	0	0	0	541	522	0	0	0	0	
12	0	0	0	0	541	521	0	0	0	0	
13	0	0	0	0	541	522	0	0	0	0	
14	0	0	0	0	541	521	0	0	0	0	
15	0	0	0	0	541	520	0	0	0	0	
0	0	0	0	0	540	519	0	0	0	0	
1	0	0	0	0	540	518	0	0	0	0	
2	0	0	0	0	540	517	0	0	0	0	
3	0	0	0	0	540	516	0	0	0	0	
4	0	0	0	0	540	516	0	0	0	0	
5	0	0	0	0	540	516	0	0	0	0	
6	0	0	0	0	540	516	0	0	0	0	
7	0	0	0	0	541	516	0	0	0	0	
8	0	0	0	0	540	517	0	0	0	0	
9	0	0	0	0	541	518	0	0	0	0	
10	0	0	0	0	541	519	0	0	0	0	
11	0	0	0	0	541	519	0	0	0	0	
12	0	0	0	0	541	520	0	0	0	0	
13	0	0	0	0	540	520	0	0	0	0	
14	0	0	0	0	540	520	0	0	0	0	
15	0	0	0	0	539	520	0	0	0	0	
0	0	0	0	0	538	519	0	0	0	0	
1	0	0	0	0	537	519	0	0	0	0	
2	0	0	0	0	536	517	0	0	0	0	
3	0	0	0	0	536	516	0	0	0	0	
4	0	0	0	0	536	515	0	0	0	0	
5	0	0	0	0	535	513	0	0	0	0	
6	0	0	0	0	534	512	0	0	0	0	
7	0	0	0	0	534	511	0	0	0	0	
8	0	0	0	0	534	510	0	0	0	0	
9	0	0	0	0	534	510	0	0	0	0	
10	0	0	0	0	533	510	0	0	0	0	
11	0	0	0	0	533	510	0	0	0	0	
12	0	0	0	0	533	510	0	0	0	0	
13	0	0	0	0	532	510	0	0	0	0	
14	0	0	0	0	532	511	0	0	0	0	
15	0	0	0	0	531	512	0	0	0	0	
0	0	0	0	0	531	512	0	0	0	0	
1	0	0	0	0	530	512	0	0	0	0	
2	0	0	0	0	530	512	0	0	0	0	
3	0	0	0	0	530	512	0	0	0	0	
4	0	0	0	0	529	512	0	0	0	0	
5	0	0	0	0	530	512	0	0	0	0	
6	0	0	0	0	529	511	0	0	0	0	
7	0	0	0	0	530	511	0	0	0	0	
8	0	0	0	0	530	510	0	0	0	0	
9	0	0	0	0	530	509	0	0	0	0	
10	0	0	0	0	529	508	0	0	0	0	
11	0	0	0	0	530	508	0	0	0	0	
12	0	0	0	0	531	508	0	0	0	0	
13	0	0	0	0	532	508	0	0	0	0	
14	0	0	0	0	533	508	0	0	0	0	
15	0	0	0	0	534	509	0	0	0	0	
0	0	0	0	0	535	510	0	0	0	0	
1	0	0	0	0	536	511	0	0	0	0	
2	0	0	0	0	536	512	0	0	0	0	
3	0	0	0	0	536	513	0	0	0	0	
4	0	0	0	0	536	513	0	0	0	0	
5	0	0	0	0	535	514	0	0	0	0	
6	0	0	0	0	536	515	0	0	0	0	
7	0	0	0	0	536	515	0	0	0	0	
8	0	0	0	0	536	515	0	0	0	0	
9	0	0	0	0	535	514	0	0	0	0	
10	0	0	0	0	535	513	0	0	0	0	
11	0	0	0	0	534	512	0	0	0	0	
12	0	0	0	0	534	511	0	0	0	0	
13	0	0	0	0	534	510	0	0	0	0	
14	0	0	0	0	533	510	0	0	0	0	
15	0	0	0	0	534	509	0	0	0	0	
0	0	0	0	0	533	509	0	0	0	0	
1	0	0	0	0	533	508	0	0	0	0	
2	0	0	0	0	533	509	0	0	0	0	
3	0	0	0	0	533	509	0	0	0	0	
4	0	0	0	0	532	509	0	0	0	0	
5	0	0	0	0	533	511	0	0	0	0	
6	0	0	0	0	533	512	0	0	0	0	
7	0	0	0	0	534	513	0	0	0	0	
8	0	0	0	0	534	515	0	0	0	0	
9	0	0	0	0	534	516	0	0	0	0	
10	0	0	0	0	536	516	0	0	0	0	
11	0	0	0	0	536	517	0	0	0	0	
12	0	0	0	0	536	517	0	0	0	0	
13	0	0	0	0	537	517	0	0	0	0	
14	0	0	0	0	538	516	0	0	0	0	
15	0	0	0	0	539	516	0	0	0	0	
0	0	0	0	0	539	515	0	0	0	0	
1	0	0	0	0	539	514	0	0	0	0	
2	0	0	0	0	539	513	0	0	0	0	
3	0	0	0	0	539	512	0	0	0	0	
4	0	0	0	0	539	512	0	0	0	0	
5	0	0	0	0	539	512	0	0	0	0	
6	0	0	0	0	539	512	0	0	0	0	
7	0	0	0	0	538	512	0	0	0	0	
8	0	0	0	0	538	512	0	0	0	0	
9	0	0	0	0	537	512	0	0	0	0	
10	0	0	0	0	537	513	0	0	0	0	
11	0	0	0	0	537	514	0	0	0	0	
12	0	0	0	0	537	514	0	0	0	0	
13	0	0	0	0	537	515	0	0	0	0	
14	0	0	0	0	537	516	0	0	0	0	
15	0	0	0	0	537	516	0	0	0	0	
0	0	0	0	0	537	516	0	0	0	0	
1	0	0	0	0	537	516	0	0	0	0	
2	0	0	0	0	537	515	0	0	0	0	
3	0	0	0	0	537	515	0	0	0	0	
4	0	0	0	0	537	513	0	0	0	0	
5	0	0	0	0	537	512	0	0	0	0	
6	0	0	0	0	536	510	0	0	0	0	
7	0	0	0	0	535	509	0	0	0	0	
8	0	0	0	0	535	508	0	0	0	0	
9	0	0	0	0	534	507	0	0	0	0	
10	0	0	0	0	534	507	0	0	0	0	
11	0	0	0	0	533	506	0	0	0	0	
12	0	0	0	0	533	507	0	0	0	0	
13	0	0	0	0	533	508	0	0	0	0	
14	0	0	0	0	533	508	0	0	0	0	
15	0	0	0	0	532	509	0	0	0	0	
0	0	0	0	0	532	509	0	0	0	0	
1	0	0	0	0	532	510	0	0	0	0	
2	0	0	0	0	532	510	0	0	0	0	
3	0	0	0	0	531	510	0	0	0	0	
4	0	0	0	0	530	509	0	0	0	0	
5	0	0	0	0	529	508	0	0	0	0	
6	0	0	0	0	528	507	0	0	0	0	
7	0	0	0	0	528	506	0	0	0	0	
8	0	0	0	0	527	504	0	0	0	0	
9	0	0	0	0	527	503	0	0	0	0	
10	0	0	0	0	526	502	0	0	0	0	
11	0	0	0	0	526	501	0	0	0	0	
12	0	0	0	0	526	500	0	0	0	0	
13	0	0	0	0	526	499	0	0	0	0	
14	0	0	0	0	526	499	0	0	0	0	
15	0	0	0	0	525	498	0	0	0	0	
0	0	0	0	0	525	499	0	0	0	0	
1	0	0	0	0	526	499	0	0	0	0	
2	0	0	0	0	525	499	0	0	0	0	
3	0	0	0	0	525	500	0	0	0	0	
4	0	0	0	0	524	500	0	0	0	0	
5	0	0	0	0	524	500	0	0	0	0	
6	0	0	0	0	524	501	0	0	0	0	
7	0	0	0	0	524	500	0	0	0	0	
8	0	0	0	0	523	500	0	0	0	0	
9	0	0	0	0	522	499	0	0	0	0	
10	0	0	0	0	521	499	0	0	0	0	
11	0	0	0	0	522	499	0	0	0	0	
12	0	0	0	0	522	499	0	0	0	0	
13	0	0	0	0	522	499	0	0	0	0	
14	0	0	0	0	522	498	0	0	0	0	
15	0	0	0	0	523	499	0	0	0	0	
0	0	0	0	0	524	499	0	0	0	0	
1	0	0	0	0	525	500	0	0	0	0	
2	0	0	0	0	526	501	0	0	0	0	
3	0	0	0	0	527	502	0	0	0	0	
4	0	0	0	0	527	503	0	0	0	0	
5	0	0	0	0	529	504	0	0	0	0	
6	0	0	0	0	529	504	0	0	0	0	
7	0	0	0	0	530	506	0	0	0	0	
8	0	0	0	0	531	507	0	0	0	0	
9	0	0	0	0	531	508	0	0	0	0	
10	0	0	0	0	533	509	0	0	0	0	
11	0	0	0	0	533	509	0	0	0	0	
12	0	0	0	0	534	510	0	0	0	0	
13	0	0	0	0	534	510	0	0	0	0	
14	0	0	0	0	534	509	0	0	0	0	
15	0	0	0	0	534	510	0	0	0	0	
0	0	0	0	0	533	508	0	0	0	0	
1	0	0	0	0	532	508	0	0	0	0	
2	0	0	0	0	531	507	0	0	0	0	
3	0	0	0	0	529	506	0	0	0	0	
4	0	0	0	0	528	505	0	0	0	0	
5	0	0	0	0	527	504	0	0	0	0	
6	0	0	0	0	524	503	0	0	0	0	
7	0	0	0	0	524	502	0	0	0	0	
8	0	0	0	0	522	501	0	0	0	0	
9	0	0	0	0	522	501	0	0	0	0	
10	0	0	0	0	520	500	0	0	0	0	
11	0	0	0	0	520	500	0	0	0	0	
12	0	0	0	0	520	500	0	0	0	0	
13	0	0	0	0	520	499	0	0	0	0	
14	0	0	0	0	521	500	0	0	0	0	
15	0	0	0	0	521	499	0	0	0	0	
0	0	0	0	0	522	499	0	0	0	0	
1	0	0	0	0	522	499	0	0	0	0	
2	0	0	0	0	523	498	0	0	0	0	
3	0	0	0	0	524	499	0	0	0	0	
4	0	0	0	0	524	498	0	0	0	0	
5	0	0	0	0	525	498	0	0	0	0	
6	0	0	0	0	525	497	0	0	0	0	
7	0	0	0	0	524	497	0	0	0	0	
8	0	0	0	0	524	497	0	0	0	0	
9	0	0	0	0	525	497	0	0	0	0	
10	0	0	0	0	524	497	0	0	0	0	
11	0	0	0	0	524	497	0	0	0	0	
12	0	0	0	0	523	498	0	0	0	0	
13	0	0	0	0	523	498	0	0	0	0	
14	0	0	0	0	523	499	0	0	0	0	
15	0	0	0	0	522	499	0	0	0	0	
0	0	0	0	0	521	499	0	0	0	0	
1	0	0	0	0	520	499	0	0	0	0	
2	0	0	0	0	520	499	0	0	0	0	
3	0	0	0	0	520	499	0	0	0	0	
4	0	0	0	0	520	499	0	0	0	0	
5	0	0	0	0	520	499	0	0	0	0	
6	0	0	0	0	520	499	0	0	0	0	
7	0	0	0	0	521	498	0	0	0	0	
8	0	0	0	0	521	499	0	0	0	0	
9	0	0	0	0	522	498	0	0	0	0	
10	0	0	0	0	523	498	0	0	0	0	
11	0	0	0	0	523	499	0	0	0	0	
12	0	0	0	0	524	499	0	0	0	0	
13	0	0	0	0	525	499	0	0	0	0	
14	0	0	0	0	525	499	0	0	0	0	
15	0	0	0	0	524	498	0	0	0	0	
0	0	0	0	0	524	497	0	0	0	0	
1	0	0	0	0	524	496	0	0	0	0	
2	0	0	0	0	521	494	0	0	0	0	
3	0	0	0	0	519	491	0	0	0	0	
4	0	0	0	0	514	487	0	0	0	0	
5	0	0	0	0	510	483	0	0	0	0	
6	0	0	0	0	504	478	0	0	0	0	
7	0	0	0	0	497	472	0	0	0	0	
8	0	0	0	0	489	465	0	0	0	0	
9	0	0	0	0	480	457	0	0	0	0	
10	0	0	0	0	471	449	0	0	0	0	
11	0	0	0	0	461	440	0	0	0	0	
12	0	0	0	0	451	431	0	0	0	0	
13	0	0	0	0	441	421	0	0	0	0	
14	0	0	0	0	430	411	0	0	0	0	
15	0	0	0	0	420	401	0	0	0	0	
0	0	0	0	0	411	391	0	0	0	0	
1	0	0	0	0	401	380	0	0	0	0	
2	0	0	0	0	392	370	0	0	0	0	
3	0	0	0	0	382	359	0	0	0	0	
4	0	0	0	0	373	350	0	0	0	0	
5	0	0	0	0	364	339	0	0	0	0	
6	0	0	0	0	354	329	0	0	0	0	
7	0	0	0	0	344	319	0	0	0	0	
8	0	0	0	0	335	309	0	0	0	0	
9	0	0	0	0	326	300	0	0	0	0	
10	0	0	0	0	318	292	0	0	0	0	
11	0	0	0	0	312	286	0	0	0	0	
12	0	0	0	0	307	281	0	0	0	0	
13	0	0	0	0	305	278	0	0	0	0	
14	0	0	0	0	307	280	0	0	0	0	
15	0	0	0	0	311	283	0	0	0	0	
0	0	0	0	0	319	289	0	0	0	0	
1	0	0	0	0	331	299	0	0	0	0	
2	0	0	0	0	345	310	0	0	0	0	
3	0	0	0	0	362	326	0	0	0	0	
4	0	0	0	0	381	343	0	0	0	0	
5	0	0	0	0	403	362	0	0	0	0	
6	0	0	0	0	424	382	0	0	0	0	
7	0	0	0	0	446	403	0	0	0	0	
8	0	0	0	0	467	423	0	0	0	0	
9	0	0	0	0	487	443	0	0	0	0	
10	0	0	0	0	505	461	0	0	0	0	
11	0	0	0	0	520	478	0	0	0	0	
12	0	0	0	0	533	493	0	0	0	0	
13	0	0	0	0	543	504	0	0	0	0	
14	0	0	0	0	551	515	0	0	0	0	
15	0	0	0	0	555	521	0	0	0	0	
0	0	0	0	0	557	526	0	0	0	0	
1	0	0	0	0	557	527	0	0	0	0	
2	0	0	0	0	554	527	0	0	0	0	
3	0	0	0	0	551	524	0	0	0	0	
4	0	0	0	0	545	520	0	0	0	0	
5	0	0	0	0	540	516	0	0	0	0	
6	0	0	0	0	535	511	0	0	0	0	
7	0	0	0	0	529	505	0	0	0	0	
8	0	0	0	0	525	501	0	0	0	0	
9	0	0	0	0	521	498	0	0	0	0	
10	0	0	0	0	519	495	0	0	0	0	
11	0	0	0	0	518	494	0	0	0	0	
12	0	0	0	0	517	493	0	0	0	0	
13	0	0	0	0	518	494	0	0	0	0	
14	0	0	0	0	519	495	0	0	0	0	
15	0	0	0	0	521	497	0	0	0	0	
0	0	0	0	0	523	498	0	0	0	0	
1	0	0	0	0	525	500	0	0	0	0	
2	0	0	0	0	527	502	0	0	0	0	
3	0	0	0	0	528	504	0	0	0	0	
4	0	0	0	0	529	504	0	0	0	0	
5	0	0	0	0	529	505	0	0	0	0	
6	0	0	0	0	530	504	0	0	0	0	
7	0	0	0	0	531	504	0	0	0	0	
8	0	0	0	0	531	504	0	0	0	0	
9	0	0	0	0	531	504	0	0	0	0	
10	0	0	0	0	532	504	0	0	0	0	
11	0	0	0	0	532	503	0	0	0	0	
12	0	0	0	0	532	504	0	0	0	0	
13	0	0	0	0	533	504	0	0	0	0	
14	0	0	0	0	534	504	0	0	0	0	
15	0	0	0	0	534	504	0	0	0	0	
0	0	0	0	0	534	505	0	0	0	0	
1	0	0	0	0	534	506	0	0	0	0	
2	0	0	0	0	535	507	0	0	0	0	
3	0	0	0	0	535	507	0	0	0	0	
4	0	0	0	0	535	508	0	0	0	0	
5	0	0	0	0	535	508	0	0	0	0	
6	0	0	0	0	535	508	0	0	0	0	
7	0	0	0	0	535	508	0	0	0	0	
8	0	0	0	0	534	508	0	0	0	0	
9	0	0	0	0	534	508	0	0	0	0	
10	0	0	0	0	532	507	0	0	0	0	
11	0	0	0	0	532	506	0	0	0	0	
12	0	0	0	0	532	505	0	0	0	0	
13	0	0	0	0	531	504	0	0	0	0	
14	0	0	0	0	530	501	0	0	0	0	
15	0	0	0	0	530	500	0	0	0	0	
0	0	0	0	0	529	499	0	0	0	0	
1	0	0	0	0	528	498	0	0	0	0	
2	0	0	0	0	528	498	0	0	0	0	
3	0	0	0	0	528	498	0	0	0	0	
4	0	0	0	0	527	498	0	0	0	0	
5	0	0	0	0	527	499	0	0	0	0	
6	0	0	0	0	528	499	0	0	0	0	
7	0	0	0	0	528	500	0	0	0	0	
8	0	0	0	0	528	501	0	0	0	0	
9	0	0	0	0	529	503	0	0	0	0	
10	0	0	0	0	530	503	0	0	0	0	
11	0	0	0	0	530	504	0	0	0	0	
12	0	0	0	0	531	503	0	0	0	0	
13	0	0	0	0	531	503	0	0	0	0	
14	0	0	0	0	531	502	0	0	0	0	
15	0	0	0	0	531	500	0	0	0	0	
0	0	0	0	0	530	499	0	0	0	0	
1	0	0	0	0	530	497	0	0	0	0	
2	0	0	0	0	529	496	0	0	0	0	
3	0	0	0	0	527	494	0	0	0	0	
4	0	0	0	0	527	494	0	0	0	0	
5	0	0	0	0	526	492	0	0	0	0	
6	0	0	0	0	525	492	0	0	0	0	
7	0	0	0	0	524	490	0	0	0	0	
8	0	0	0	0	523	491	0	0	0	0	
9	0	0	0	0	523	491	0	0	0	0	
10	0	0	0	0	522	491	0	0	0	0	
11	0	0	0	0	522	491	0	0	0	0	
12	0	0	0	0	521	492	0	0	0	0	
13	0	0	0	0	521	492	0	0	0	0	
14	0	0	0	0	522	493	0	0	0	0	
15	0	0	0	0	523	494	0	0	0	0	
0	0	0	0	0	524	494	0	0	0	0	
1	0	0	0	0	524	494	0	0	0	0	
2	0	0	0	0	525	494	0	0	0	0	
3	0	0	0	0	526	495	0	0	0	0	
4	0	0	0	0	527	495	0	0	0	0	
5	0	0	0	0	527	494	0	0	0	0	
6	0	0	0	0	528	494	0	0	0	0	
7	0	0	0	0	527	493	0	0	0	0	
8	0	0	0	0	527	493	0	0	0	0	
9	0	0	0	0	526	492	0	0	0	0	
10	0	0	0	0	524	491	0	0	0	0	
11	0	0	0	0	524	491	0	0	0	0	
12	0	0	0	0	522	490	0	0	0	0	
13	0	0	0	0	520	490	0	0	0	0	
14	0	0	0	0	519	490	0	0	0	0	
15	0	0	0	0	518	490	0	0	0	0	
0	0	0	0	0	517	490	0	0	0	0	
1	0	0	0	0	516	489	0	0	0	0	
2	0	0	0	0	516	490	0	0	0	0	
3	0	0	0	0	516	490	0	0	0	0	
4	0	0	0	0	516	490	0	0	0	0	
5	0	0	0	0	517	490	0	0	0	0	
6	0	0	0	0	517	490	0	0	0	0	
7	0	0	0	0	519	490	0	0	0	0	
8	0	0	0	0	519	489	0	0	0	0	
9	0	0	0	0	521	489	0	0	0	0	
10	0	0	0	0	521	488	0	0	0	0	
11	0	0	0	0	522	487	0	0	0	0	
12	0	0	0	0	523	487	0	0	0	0	
13	0	0	0	0	524	487	0	0	0	0	
14	0	0	0	0	524	487	0	0	0	0	
15	0	0	0	0	524	486	0	0	0	0	
0	0	0	0	0	524	487	0	0	0	0	
1	0	0	0	0	524	487	0	0	0	0	
2	0	0	0	0	524	487	0	0	0	0	
3	0	0	0	0	524	488	0	0	0	0	
4	0	0	0	0	523	488	0	0	0	0	
5	0	0	0	0	523	489	0	0	0	0	
6	0	0	0	0	523	490	0	0	0	0	
7	0	0	0	0	523	490	0	0	0	0	
8	0	0	0	0	524	491	0	0	0	0	
9	0	0	0	0	524	490	0	0	0	0	
10	0	0	0	0	524	490	0	0	0	0	
11	0	0	0	0	525	489	0	0	0	0	
12	0	0	0	0	525	488	0	0	0	0	
13	0	0	0	0	525	487	0	0	0	0	
14	0	0	0	0	524	486	0	0	0	0	
15	0	0	0	0	524	484	0	0	0	0	
0	0	0	0	0	524	483	0	0	0	0	
1	0	0	0	0	523	481	0	0	0	0	
2	0	0	0	0	522	480	0	0	0	0	
3	0	0	0	0	521	480	0	0	0	0	
4	0	0	0	0	519	479	0	0	0	0	
5	0	0	0	0	519	479	0	0	0	0	
6	0	0	0	0	518	479	0	0	0	0	
7	0	0	0	0	517	480	0	0	0	0	
8	0	0	0	0	516	480	0	0	0	0	
9	0	0	0	0	515	481	0	0	0	0	
10	0	0	0	0	516	482	0	0	0	0	
11	0	0	0	0	516	482	0	0	0	0	
12	0	0	0	0	516	483	0	0	0	0	
13	0	0	0	0	517	483	0	0	0	0	
14	0	0	0	0	517	483	0	0	0	0	
15	0	0	0	0	518	483	0	0	0	0	
0	0	0	0	0	518	483	0	0	0	0	
1	0	0	0	0	519	483	0	0	0	0	
2	0	0	0	0	519	483	0	0	0	0	
3	0	0	0	0	519	482	0	0	0	0	
4	0	0	0	0	520	483	0	0	0	0	
5	0	0	0	0	521	483	0	0	0	0	
6	0	0	0	0	521	483	0	0	0	0	
7	0	0	0	0	521	483	0	0	0	0	
8	0	0	0	0	520	483	0	0	0	0	
9	0	0	0	0	521	484	0	0	0	0	
10	0	0	0	0	521	484	0	0	0	0	
11	0	0	0	0	520	484	0	0	0	0	
12	0	0	0	0	520	483	0	0	0	0	
13	0	0	0	0	519	483	0	0	0	0	
14	0	0	0	0	520	483	0	0	0	0	
15	0	0	0	0	520	481	0	0	0	0	
0	0	0	0	0	520	480	0	0	0	0	
1	0	0	0	0	519	479	0	0	0	0	
2	0	0	0	0	519	478	0	0	0	0	
3	0	0	0	0	519	477	0	0	0	0	
4	0	0	0	0	519	476	0	0	0	0	
5	0	0	0	0	519	475	0	0	0	0	
6	0	0	0	0	519	474	0	0	0	0	
7	0	0	0	0	518	473	0	0	0	0	
8	0	0	0	0	518	473	0	0	0	0	
9	0	0	0	0	517	472	0	0	0	0	
10	0	0	0	0	517	473	0	0	0	0	
11	0	0	0	0	516	473	0	0	0	0	
12	0	0	0	0	515	474	0	0	0	0	
13	0	0	0	0	516	475	0	0	0	0	
14	0	0	0	0	516	476	0	0	0	0	
15	0	0	0	0	516	477	0	0	0	0	
0	0	0	0	0	517	478	0	0	0	0	
1	0	0	0	0	518	479	0	0	0	0	
2	0	0	0	0	520	481	0	0	0	0	
3	0	0	0	0	522	482	0	0	0	0	
4	0	0	0	0	524	483	0	0	0	0	
5	0	0	0	0	526	483	0	0	0	0	
6	0	0	0	0	527	483	0	0	0	0	
7	0	0	0	0	529	483	0	0	0	0	
8	0	0	0	0	531	483	0	0	0	0	
9	0	0	0	0	531	482	0	0	0	0	
10	0	0	0	0	531	480	0	0	0	0	
11	0	0	0	0	531	480	0	0	0	0	
12	0	0	0	0	531	480	0	0	0	0	
13	0	0	0	0	530	479	0	0	0	0	
14	0	0	0	0	529	479	0	0	0	0	
15	0	0	0	0	527	478	0	0	0	0	
0	0	0	0	0	526	477	0	0	0	0	
1	0	0	0	0	524	478	0	0	0	0	
2	0	0	0	0	523	477	0	0	0	0	
3	0	0	0	0	521	477	0	0	0	0	
4	0	0	0	0	521	477	0	0	0	0	
5	0	0	0	0	520	477	0	0	0	0	
6	0	0	0	0	520	478	0	0	0	0	
7	0	0	0	0	521	478	0	0	0	0	
8	0	0	0	0	522	479	0	0	0	0	
9	0	0	0	0	523	479	0	0	0	0	
10	0	0	0	0	524	479	0	0	0	0	
11	0	0	0	0	526	479	0	0	0	0	
12	0	0	0	0	527	479	0	0	0	0	
13	0	0	0	0	528	478	0	0	0	0	
14	0	0	0	0	528	477	0	0	0	0	
15	0	0	0	0	529	476	0	0	0	0	
0	0	0	0	0	531	476	0	0	0	0	
1	0	0	0	0	531	476	0	0	0	0	
2	0	0	0	0	531	476	0	0	0	0	
3	0	0	0	0	532	476	0	0	0	0	
4	0	0	0	0	532	476	0	0	0	0	
5	0	0	0	0	533	476	0	0	0	0	
6	0	0	0	0	534	476	0	0	0	0	
7	0	0	0	0	534	477	0	0	0	0	
8	0	0	0	0	534	477	0	0	0	0	
9	0	0	0	0	535	479	0	0	0	0	
10	0	0	0	0	536	479	0	0	0	0	
11	0	0	0	0	536	480	0	0	0	0	
12	0	0	0	0	536	480	0	0	0	0	
13	0	0	0	0	535	479	0	0	0	0	
14	0	0	0	0	535	479	0	0	0	0	
15	0	0	0	0	534	477	0	0	0	0	
0	0	0	0	0	533	476	0	0	0	0	
1	0	0	0	0	532	473	0	0	0	0	
2	0	0	0	0	530	471	0	0	0	0	
3	0	0	0	0	529	469	0	0	0	0	
4	0	0	0	0	528	467	0	0	0	0	
5	0	0	0	0	527	465	0	0	0	0	
6	0	0	0	0	526	464	0	0	0	0	
7	0	0	0	0	525	463	0	0	0	0	
8	0	0	0	0	525	463	0	0	0	0	
9	0	0	0	0	526	463	0	0	0	0	
10	0	0	0	0	527	463	0	0	0	0	
11	0	0	0	0	527	464	0	0	0	0	
12	0	0	0	0	528	465	0	0	0	0	
13	0	0	0	0	529	467	0	0	0	0	
14	0	0	0	0	531	468	0	0	0	0	
15	0	0	0	0	532	469	0	0	0	0	
0	0	0	0	0	532	470	0	0	0	0	
1	0	0	0	0	532	470	0	0	0	0	
2	0	0	0	0	532	471	0	0	0	0	
3	0	0	0	0	531	470	0	0	0	0	
4	0	0	0	0	531	470	0	0	0	0	
5	0	0	0	0	530	469	0	0	0	0	
6	0	0	0	0	529	468	0	0	0	0	
7	0	0	0	0	528	467	0	0	0	0	
8	0	0	0	0	527	466	0	0	0	0	
9	0	0	0	0	527	465	0	0	0	0	
10	0	0	0	0	527	465	0	0	0	0	
11	0	0	0	0	526	464	0	0	0	0	
12	0	0	0	0	526	464	0	0	0	0	
13	0	0	0	0	526	464	0	0	0	0	
14	0	0	0	0	527	463	0	0	0	0	
15	0	0	0	0	527	463	0	0	0	0	
0	0	0	0	0	527	464	0	0	0	0	
1	0	0	0	0	527	463	0	0	0	0	
2	0	0	0	0	528	464	0	0	0	0	
3	0	0	0	0	528	463	0	0	0	0	
4	0	0	0	0	529	463	0	0	0	0	
5	0	0	0	0	530	463	0	0	0	0	
6	0	0	0	0	530	462	0	0	0	0	
7	0	0	0	0	531	462	0	0	0	0	
8	0	0	0	0	532	461	0	0	0	0	
9	0	0	0	0	533	461	0	0	0	0	
10	0	0	0	0	533	460	0	0	0	0	
11	0	0	0	0	534	460	0	0	0	0	
12	0	0	0	0	534	460	0	0	0	0	
13	0	0	0	0	534	460	0	0	0	0	
14	0	0	0	0	533	460	0	0	0	0	
15	0	0	0	0	533	460	0	0	0	0	
0	0	0	0	0	531	460	0	0	0	0	
1	0	0	0	0	531	460	0	0	0	0	
2	0	0	0	0	530	460	0	0	0	0	
3	0	0	0	0	529	460	0	0	0	0	
4	0	0	0	0	528	460	0	0	0	0	
5	0	0	0	0	527	460	0	0	0	0	
6	0	0	0	0	527	461	0	0	0	0	
7	0	0	0	0	528	461	0	0	0	0	
8	0	0	0	0	528	461	0	0	0	0	
9	0	0	0	0	529	460	0	0	0	0	
10	0	0	0	0	529	460	0	0	0	0	
11	0	0	0	0	531	460	0	0	0	0	
12	0	0	0	0	531	458	0	0	0	0	
13	0	0	0	0	532	457	0	0	0	0	
14	0	0	0	0	532	456	0	0	0	0	
15	0	0	0	0	532	455	0	0	0	0	
0	0	0	0	0	532	454	0	0	0	0	
1	0	0	0	0	532	454	0	0	0	0	
2	0	0	0	0	532	454	0	0	0	0	
3	0	0	0	0	532	454	0	0	0	0	
4	0	0	0	0	531	454	0	0	0	0	
5	0	0	0	0	532	455	0	0	0	0	
6	0	0	0	0	531	455	0	0	0	0	
7	0	0	0	0	531	455	0	0	0	0	
8	0	0	0	0	530	456	0	0	0	0	
9	0	0	0	0	530	456	0	0	0	0	
10	0	0	0	0	530	457	0	0	0	0	
11	0	0	0	0	530	457	0	0	0	0	
12	0	0	0	0	531	457	0	0	0	0	
13	0	0	0	0	531	456	0	0	0	0	
14	0	0	0	0	531	456	0	0	0	0	
15	0	0	0	0	532	455	0	0	0	0	
0	0	0	0	0	531	453	0	0	0	0	
1	0	0	0	0	531	452	0	0	0	0	
2	0	0	0	0	531	451	0	0	0	0	
3	0	0	0	0	530	449	0	0	0	0	
4	0	0	0	0	530	448	0	0	0	0	
5	0	0	0	0	529	448	0	0	0	0	
6	0	0	0	0	529	447	0	0	0	0	
7	0	0	0	0	528	447	0	0	0	0	
8	0	0	0	0	528	447	0	0	0	0	
9	0	0	0	0	528	447	0	0	0	0	
10	0	0	0	0	527	448	0	0	0	0	
11	0	0	0	0	528	448	0	0	0	0	
12	0	0	0	0	528	449	0	0	0	0	
13	0	0	0	0	528	449	0	0	0	0	
14	0	0	0	0	529	450	0	0	0	0	
15	0	0	0	0	529	450	0	0	0	0	
0	0	0	0	0	531	450	0	0	0	0	
1	0	0	0	0	531	449	0	0	0	0	
2	0	0	0	0	533	449	0	0	0	0	
3	0	0	0	0	534	449	0	0	0	0	
4	0	0	0	0	535	448	0	0	0	0	
5	0	0	0	0	536	447	0	0	0	0	
6	0	0	0	0	536	446	0	0	0	0	
7	0	0	0	0	536	444	0	0	0	0	
8	0	0	0	0	536	443	0	0	0	0	
9	0	0	0	0	535	441	0	0	0	0	
10	0	0	0	0	534	440	0	0	0	0	
11	0	0	0	0	533	440	0	0	0	0	
12	0	0	0	0	532	438	0	0	0	0	
13	0	0	0	0	531	438	0	0	0	0	
14	0	0	0	0	531	438	0	0	0	0	
15	0	0	0	0	530	438	0	0	0	0	
0	0	0	0	0	530	438	0	0	0	0	
1	0	0	0	0	529	438	0	0	0	0	
2	0	0	0	0	530	439	0	0	0	0	
3	0	0	0	0	530	439	0	0	0	0	
4	0	0	0	0	531	439	0	0	0	0	
5	0	0	0	0	531	439	0	0	0	0	
6	0	0	0	0	531	439	0	0	0	0	
7	0	0	0	0	532	439	0	0	0	0	
8	0	0	0	0	533	439	0	0	0	0	
9	0	0	0	0	534	438	0	0	0	0	
10	0	0	0	0	534	437	0	0	0	0	
11	0	0	0	0	534	438	0	0	0	0	
12	0	0	0	0	535	437	0	0	0	0	
13	0	0	0	0	535	436	0	0	0	0	
14	0	0	0	0	535	436	0	0	0	0	
15	0	0	0	0	535	435	0	0	0	0	
0	0	0	0	0	535	435	0	0	0	0	
1	0	0	0	0	535	435	0	0	0	0	
2	0	0	0	0	534	435	0	0	0	0	
3	0	0	0	0	534	435	0	0	0	0	
4	0	0	0	0	534	434	0	0	0	0	
5	0	0	0	0	534	434	0	0	0	0	
6	0	0	0	0	534	435	0	0	0	0	
7	0	0	0	0	535	434	0	0	0	0	
8	0	0	0	0	535	434	0	0	0	0	
9	0	0	0	0	536	433	0	0	0	0	
10	0	0	0	0	536	432	0	0	0	0	
11	0	0	0	0	536	432	0	0	0	0	
12	0	0	0	0	536	430	0	0	0	0	
13	0	0	0	0	534	428	0	0	0	0	
14	0	0	0	0	532	424	0	0	0	0	
15	0	0	0	0	528	421	0	0	0	0	
0	0	0	0	0	526	417	0	0	0	0	
1	0	0	0	0	521	414	0	0	0	0	
2	0	0	0	0	518	410	0	0	0	0	
3	0	0	0	0	515	407	0	0	0	0	
4	0	0	0	0	511	404	0	0	0	0	
5	0	0	0	0	510	403	0	0	0	0	
6	0	0	0	0	508	402	0	0	0	0	
7	0	0	0	0	507	401	0	0	0	0	
8	0	0	0	0	506	400	0	0	0	0	
9	0	0	0	0	505	399	0	0	0	0	
10	0	0	0	0	505	399	0	0	0	0	
11	0	0	0	0	506	400	0	0	0	0	
12	0	0	0	0	508	400	0	0	0	0	
13	0	0	0	0	509	402	0	0	0	0	
14	0	0	0	0	513	404	0	0	0	0	
15	0	0	0	0	518	407	0	0	0	0	
0	0	0	0	0	523	411	0	0	0	0	
1	0	0	0	0	529	415	0	0	0	0	
2	0	0	0	0	535	419	0	0	0	0	
3	0	0	0	0	540	423	0	0	0	0	
4	0	0	0	0	546	429	0	0	0	0	
5	0	0	0	0	551	433	0	0	0	0	
6	0	0	0	0	554	437	0	0	0	0	
7	0	0	0	0	557	440	0	0	0	0	
8	0	0	0	0	557	442	0	0	0	0	
9	0	0	0	0	558	443	0	0	0	0	
10	0	0	0	0	556	443	0	0	0	0	
11	0	0	0	0	555	442	0	0	0	0	
12	0	0	0	0	552	440	0	0	0	0	
13	0	0	0	0	550	438	0	0	0	0	
14	0	0	0	0	547	436	0	0	0	0	
15	0	0	0	0	544	433	0	0	0	0	
0	0	0	0	0	543	430	0	0	0	0	
1	0	0	0	0	540	428	0	0	0	0	
2	0	0	0	0	538	425	0	0	0	0	
3	0	0	0	0	538	423	0	0	0	0	
4	0	0	0	0	537	422	0	0	0	0	
5	0	0	0	0	536	420	0	0	0	0	
6	0	0	0	0	536	419	0	0	0	0	
7	0	0	0	0	536	419	0	0	0	0	
8	0	0	0	0	537	419	0	0	0	0	
9	0	0	0	0	538	418	0	0	0	0	
10	0	0	0	0	539	418	0	0	0	0	
11	0	0	0	0	539	418	0	0	0	0	
12	0	0	0	0	540	418	0	0	0	0	
13	0	0	0	0	540	419	0	0	0	0	
14	0	0	0	0	540	419	0	0	0	0	
15	0	0	0	0	540	419	0	0	0	0	
0	0	0	0	0	540	419	0	0	0	0	
1	0	0	0	0	539	419	0	0	0	0	
2	0	0	0	0	539	419	0	0	0	0	
3	0	0	0	0	539	418	0	0	0	0	
4	0	0	0	0	539	417	0	0	0	0	
5	0	0	0	0	537	415	0	0	0	0	
6	0	0	0	0	536	413	0	0	0	0	
7	0	0	0	0	535	412	0	0	0	0	
8	0	0	0	0	533	409	0	0	0	0	
9	0	0	0	0	531	407	0	0	0	0	
10	0	0	0	0	527	403	0	0	0	0	
11	0	0	0	0	526	401	0	0	0	0	
12	0	0	0	0	524	400	0	0	0	0	
13	0	0	0	0	523	399	0	0	0	0	
14	0	0	0	0	521	398	0	0	0	0	
15	0	0	0	0	521	397	0	0	0	0	
0	0	0	0	0	521	398	0	0	0	0	
1	0	0	0	0	522	399	0	0	0	0	
2	0	0	0	0	524	401	0	0	0	0	
3	0	0	0	0	526	404	0	0	0	0	
4	0	0	0	0	528	406	0	0	0	0	
5	0	0	0	0	529	408	0	0	0	0	
6	0	0	0	0	532	410	0	0	0	0	
7	0	0	0	0	534	412	0	0	0	0	
8	0	0	0	0	535	412	0	0	0	0	
9	0	0	0	0	536	413	0	0	0	0	
10	0	0	0	0	536	413	0	0	0	0	
11	0	0	0	0	536	413	0	0	0	0	
12	0	0	0	0	536	412	0	0	0	0	
13	0	0	0	0	536	409	0	0	0	0	
14	0	0	0	0	533	407	0	0	0	0	
15	0	0	0	0	531	403	0	0	0	0	
0	0	0	0	0	527	398	0	0	0	0	
1	0	0	0	0	522	391	0	0	0	0	
2	0	0	0	0	515	384	0	0	0	0	
3	0	0	0	0	508	376	0	0	0	0	
4	0	0	0	0	500	369	0	0	0	0	
5	0	0	0	0	495	364	0	0	0	0	
6	0	0	0	0	492	361	0	0	0	0	
7	0	0	0	0	491	360	0	0	0	0	
8	0	0	0	0	492	362	0	0	0	0	
9	0	0	0	0	495	367	0	0	0	0	
10	0	0	0	0	502	374	0	0	0	0	
11	0	0	0	0	511	383	0	0	0	0	
12	0	0	0	0	520	392	0	0	0	0	
13	0	0	0	0	531	403	0	0	0	0	
14	0	0	0	0	541	412	0	0	0	0	
15	0	0	0	0	551	422	0	0	0	0	
0	0	0	0	0	559	428	0	0	0	0	
1	0	0	0	0	565	434	0	0	0	0	
2	0	0	0	0	568	437	0	0	0	0	
3	0	0	0	0	569	437	0	0	0	0	
4	0	0	0	0	568	436	0	0	0	0	
5	0	0	0	0	564	432	0	0	0	0	
6	0	0	0	0	559	428	0	0	0	0	
7	0	0	0	0	551	421	0	0	0	0	
8	0	0	0	0	544	415	0	0	0	0	
9	0	0	0	0	537	409	0	0	0	0	
10	0	0	0	0	531	404	0	0	0	0	
11	0	0	0	0	526	400	0	0	0	0	
12	0	0	0	0	522	397	0	0	0	0	
13	0	0	0	0	519	395	0	0	0	0	
14	0	0	0	0	519	395	0	0	0	0	
15	0	0	0	0	521	395	0	0	0	0	
0	0	0	0	0	523	396	0	0	0	0	
1	0	0	0	0	526	398	0	0	0	0	
2	0	0	0	0	529	399	0	0	0	0	
3	0	0	0	0	532	401	0	0	0	0	
4	0	0	0	0	535	402	0	0	0	0	
5	0	0	0	0	537	403	0	0	0	0	
6	0	0	0	0	539	403	0	0	0	0	
7	0	0	0	0	538	401	0	0	0	0	
8	0	0	0	0	538	401	0	0	0	0	
9	0	0	0	0	536	399	0	0	0	0	
10	0	0	0	0	534	398	0	0	0	0	
11	0	0	0	0	531	396	0	0	0	0	
12	0	0	0	0	526	393	0	0	0	0	
13	0	0	0	0	523	391	0	0	0	0	
14	0	0	0	0	518	387	0	0	0	0	
15	0	0	0	0	513	384	0	0	0	0	
0	0	0	0	0	508	381	0	0	0	0	
1	0	0	0	0	504	377	0	0	0	0	
2	0	0	0	0	501	376	0	0	0	0	
3	0	0	0	0	498	372	0	0	0	0	
4	0	0	0	0	495	369	0	0	0	0	
5	0	0	0	0	491	364	0	0	0	0	
6	0	0	0	0	485	358	0	0	0	0	
7	0	0	0	0	479	351	0	0	0	0	
8	0	0	0	0	472	343	0	0	0	0	
9	0	0	0	0	466	335	0	0	0	0	
10	0	0	0	0	461	328	0	0	0	0	
11	0	0	0	0	458	324	0	0	0	0	
12	0	0	0	0	458	324	0	0	0	0	
13	0	0	0	0	460	325	0	0	0	0	
14	0	0	0	0	466	331	0	0	0	0	
15	0	0	0	0	474	339	0	0	0	0	
0	0	0	0	0	484	349	0	0	0	0	
1	0	0	0	0	496	361	0	0	0	0	
2	0	0	0	0	508	374	0	0	0	0	
3	0	0	0	0	519	387	0	0	0	0	
4	0	0	0	0	531	398	0	0	0	0	
5	0	0	0	0	540	408	0	0	0	0	
6	0	0	0	0	548	418	0	0	0	0	
7	0	0	0	0	556	427	0	0	0	0	
8	0	0	0	0	561	433	0	0	0	0	
9	0	0	0	0	566	439	0	0	0	0	
10	0	0	0	0	569	443	0	0	0	0	
11	0	0	0	0	571	446	0	0	0	0	
12	0	0	0	0	570	446	0	0	0	0	
13	0	0	0	0	568	444	0	0	0	0	
14	0	0	0	0	562	441	0	0	0	0	
15	0	0	0	0	557	437	0	0	0	0	
0	0	0	0	0	551	432	0	0	0	0	
1	0	0	0	0	543	426	0	0	0	0	
2	0	0	0	0	536	419	0	0	0	0	
3	0	0	0	0	529	413	0	0	0	0	
4	0	0	0	0	521	407	0	0	0	0	
5	0	0	0	0	516	401	0	0	0	0	
6	0	0	0	0	510	396	0	0	0	0	
7	0	0	0	0	506	391	0	0	0	0	
8	0	0	0	0	502	387	0	0	0	0	
9	0	0	0	0	497	382	0	0	0	0	
10	0	0	0	0	492	376	0	0	0	0	
11	0	0	0	0	486	368	0	0	0	0	
12	0	0	0	0	479	360	0	0	0	0	
13	0	0	0	0	471	352	0	0	0	0	
14	0	0	0	0	464	344	0	0	0	0	
15	0	0	0	0	459	338	0	0	0	0	
0	0	0	0	0	456	335	0	0	0	0	
1	0	0	0	0	456	334	0	0	0	0	
2	0	0	0	0	459	336	0	0	0	0	
3	0	0	0	0	463	341	0	0	0	0	
4	0	0	0	0	471	348	0	0	0	0	
5	0	0	0	0	479	356	0	0	0	0	
6	0	0	0	0	487	364	0	0	0	0	
7	0	0	0	0	495	373	0	0	0	0	
8	0	0	0	0	501	381	0	0	0	0	
9	0	0	0	0	506	387	0	0	0	0	
10	0	0	0	0	508	391	0	0	0	0	
11	0	0	0	0	509	394	0	0	0	0	
12	0	0	0	0	507	394	0	0	0	0	
13	0	0	0	0	504	393	0	0	0	0	
14	0	0	0	0	500	391	0	0	0	0	
15	0	0	0	0	495	387	0	0	0	0	
0	0	0	0	0	490	383	0	0	0	0	
1	0	0	0	0	486	378	0	0	0	0	
2	0	0	0	0	481	374	0	0	0	0	
3	0	0	0	0	478	370	0	0	0	0	
4	0	0	0	0	476	367	0	0	0	0	
5	0	0	0	0	474	364	0	0	0	0	
6	0	0	0	0	473	362	0	0	0	0	
7	0	0	0	0	473	360	0	0	0	0	
8	0	0	0	0	475	360	0	0	0	0	
9	0	0	0	0	477	361	0	0	0	0	
10	0	0	0	0	480	364	0	0	0	0	
11	0	0	0	0	484	367	0	0	0	0	
12	0	0	0	0	488	371	0	0	0	0	
13	0	0	0	0	494	377	0	0	0	0	
14	0	0	0	0	499	383	0	0	0	0	
15	0	0	0	0	505	388	0	0	0	0	
0	0	0	0	0	509	393	0	0	0	0	
1	0	0	0	0	512	396	0	0	0	0	
2	0	0	0	0	514	399	0	0	0	0	
3	0	0	0	0	513	399	0	0	0	0	
4	0	0	0	0	511	398	0	0	0	0	
5	0	0	0	0	507	395	0	0	0	0	
6	0	0	0	0	501	390	0	0	0	0	
7	0	0	0	0	495	384	0	0	0	0	
8	0	0	0	0	487	378	0	0	0	0	
9	0	0	0	0	480	370	0	0	0	0	
10	0	0	0	0	472	362	0	0	0	0	
11	0	0	0	0	464	355	0	0	0	0	
12	0	0	0	0	457	348	0	0	0	0	
13	0	0	0	0	451	341	0	0	0	0	
14	0	0	0	0	445	334	0	0	0	0	
15	0	0	0	0	440	327	0	0	0	0	
0	0	0	0	0	433	321	0	0	0	0	
1	0	0	0	0	426	313	0	0	0	0	
2	0	0	0	0	416	303	0	0	0	0	
3	0	0	0	0	403	290	0	0	0	0	
4	0	0	0	0	387	274	0	0	0	0	
5	0	0	0	0	368	255	0	0	0	0	
6	0	0	0	0	347	235	0	0	0	0	
7	0	0	0	0	325	214	0	0	0	0	
8	0	0	0	0	304	192	0	0	0	0	
9	0	0	0	0	284	173	0	0	0	0	
10	0	0	0	0	268	156	0	0	0	0	
11	0	0	0	0	255	142	0	0	0	0	
12	0	0	0	0	247	132	0	0	0	0	
13	0	0	0	0	242	126	0	0	0	0	
14	0	0	0	0	242	124	0	0	0	0	
15	0	0	0	0	246	126	0	0	0	0	
0	0	0	0	0	253	129	0	0	0	0	
1	0	0	0	0	264	136	0	0	0	0	
2	0	0	0	0	276	145	0	0	0	0	
3	0	0	0	0	291	156	0	0	0	0	
4	0	0	0	0	306	169	0	0	0	0	
5	0	0	0	0	324	184	0	0	0	0	
6	0	0	0	0	344	201	0	0	0	0	
7	0	0	0	0	364	220	0	0	0	0	
8	0	0	0	0	386	240	0	0	0	0	
9	0	0	0	0	408	263	0	0	0	0	
10	0	0	0	0	430	285	0	0	0	0	
11	0	0	0	0	451	308	0	0	0	0	
12	0	0	0	0	471	330	0	0	0	0	
13	0	0	0	0	488	350	0	0	0	0	
14	0	0	0	0	504	369	0	0	0	0	
15	0	0	0	0	517	384	0	0	0	0	
0	0	0	0	0	527	397	0	0	0	0	
1	0	0	0	0	536	407	0	0	0	0	
2	0	0	0	0	541	415	0	0	0	0	
3	0	0	0	0	545	419	0	0	0	0	
4	0	0	0	0	548	422	0	0	0	0	
5	0	0	0	0	549	423	0	0	0	0	
6	0	0	0	0	548	422	0	0	0	0	
7	0	0	0	0	546	419	0	0	0	0	
8	0	0	0	0	543	416	0	0	0	0	
9	0	0	0	0	539	411	0	0	0	0	
10	0	0	0	0	533	406	0	0	0	0	
11	0	0	0	0	526	400	0	0	0	0	
12	0	0	0	0	518	393	0	0	0	0	
13	0	0	0	0	509	387	0	0	0	0	
14	0	0	0	0	500	379	0	0	0	0	
15	0	0	0	0	490	370	0	0	0	0	
0	0	0	0	0	479	360	0	0	0	0	
1	0	0	0	0	467	348	0	0	0	0	
2	0	0	0	0	454	335	0	0	0	0	
3	0	0	0	0	442	321	0	0	0	0	
4	0	0	0	0	431	308	0	0	0	0	
5	0	0	0	0	423	297	0	0	0	0	
6	0	0	0	0	419	290	0	0	0	0	
7	0	0	0	0	420	288	0	0	0	0	
8	0	0	0	0	427	291	0	0	0	0	
9	0	0	0	0	440	300	0	0	0	0	
10	0	0	0	0	456	315	0	0	0	0	
11	0	0	0	0	476	332	0	0	0	0	
12	0	0	0	0	497	353	0	0	0	0	
13	0	0	0	0	520	375	0	0	0	0	
14	0	0	0	0	542	397	0	0	0	0	
15	0	0	0	0	561	417	0	0	0	0	
0	0	0	0	0	576	433	0	0	0	0	
1	0	0	0	0	588	446	0	0	0	0	
2	0	0	0	0	596	455	0	0	0	0	
3	0	0	0	0	600	460	0	0	0	0	
4	0	0	0	0	599	460	0	0	0	0	
5	0	0	0	0	595	457	0	0	0	0	
6	0	0	0	0	587	450	0	0	0	0	
7	0	0	0	0	577	442	0	0	0	0	
8	0	0	0	0	566	432	0	0	0	0	
9	0	0	0	0	554	422	0	0	0	0	
10	0	0	0	0	542	411	0	0	0	0	
11	0	0	0	0	531	401	0	0	0	0	
12	0	0	0	0	521	393	0	0	0	0	
13	0	0	0	0	515	387	0	0	0	0	
14	0	0	0	0	510	383	0	0	0	0	
15	0	0	0	0	509	381	0	0	0	0	
0	0	0	0	0	510	381	0	0	0	0	
1	0	0	0	0	513	383	0	0	0	0	
2	0	0	0	0	517	385	0	0	0	0	
3	0	0	0	0	523	389	0	0	0	0	
4	0	0	0	0	529	393	0	0	0	0	
5	0	0	0	0	536	396	0	0	0	0	
6	0	0	0	0	543	399	0	0	0	0	
7	0	0	0	0	548	402	0	0	0	0	
8	0	0	0	0	553	403	0	0	0	0	
9	0	0	0	0	555	403	0	0	0	0	
10	0	0	0	0	556	402	0	0	0	0	
11	0	0	0	0	556	400	0	0	0	0	
12	0	0	0	0	553	398	0	0	0	0	
13	0	0	0	0	550	395	0	0	0	0	
14	0	0	0	0	545	391	0	0	0	0	
15	0	0	0	0	539	387	0	0	0	0	
0	0	0	0	0	534	383	0	0	0	0	
1	0	0	0	0	528	378	0	0	0	0	
2	0	0	0	0	523	374	0	0	0	0	
3	0	0	0	0	519	369	0	0	0	0	
4	0	0	0	0	515	365	0	0	0	0	
5	0	0	0	0	513	361	0	0	0	0	
6	0	0	0	0	513	358	0	0	0	0	
7	0	0	0	0	514	356	0	0	0	0	
8	0	0	0	0	516	356	0	0	0	0	
9	0	0	0	0	521	358	0	0	0	0	
10	0	0	0	0	527	362	0	0	0	0	
11	0	0	0	0	533	367	0	0	0	0	
12	0	0	0	0	540	373	0	0	0	0	
13	0	0	0	0	547	379	0	0	0	0	
14	0	0	0	0	552	385	0	0	0	0	
15	0	0	0	0	558	391	0	0	0	0	
0	0	0	0	0	561	395	0	0	0	0	
1	0	0	0	0	564	398	0	0	0	0	
2	0	0	0	0	565	401	0	0	0	0	
3	0	0	0	0	564	402	0	0	0	0	
4	0	0	0	0	564	402	0	0	0	0	
5	0	0	0	0	563	401	0	0	0	0	
6	0	0	0	0	561	399	0	0	0	0	
7	0	0	0	0	558	396	0	0	0	0	
8	0	0	0	0	556	393	0	0	0	0	
9	0	0	0	0	554	391	0	0	0	0	
10	0	0	0	0	551	387	0	0	0	0	
11	0	0	0	0	550	385	0	0	0	0	
12	0	0	0	0	548	383	0	0	0	0	
13	0	0	0	0	547	381	0	0	0	0	
14	0	0	0	0	546	379	0	0	0	0	
15	0	0	0	0	544	377	0	0	0	0	
0	0	0	0	0	543	375	0	0	0	0	
1	0	0	0	0	540	371	0	0	0	0	
2	0	0	0	0	537	369	0	0	0	0	
3	0	0	0	0	535	366	0	0	0	0	
4	0	0	0	0	533	363	0	0	0	0	
5	0	0	0	0	531	360	0	0	0	0	
6	0	0	0	0	529	358	0	0	0	0	
7	0	0	0	0	529	358	0	0	0	0	
8	0	0	0	0	531	358	0	0	0	0	
9	0	0	0	0	534	359	0	0	0	0	
10	0	0	0	0	536	361	0	0	0	0	
11	0	0	0	0	539	364	0	0	0	0	
12	0	0	0	0	541	366	0	0	0	0	
13	0	0	0	0	543	369	0	0	0	0	
14	0	0	0	0	544	371	0	0	0	0	
15	0	0	0	0	545	372	0	0	0	0	
0	0	0	0	0	543	373	0	0	0	0	
1	0	0	0	0	541	372	0	0	0	0	
2	0	0	0	0	539	372	0	0	0	0	
3	0	0	0	0	536	371	0	0	0	0	
4	0	0	0	0	532	368	0	0	0	0	
5	0	0	0	0	528	366	0	0	0	0	
6	0	0	0	0	525	364	0	0	0	0	
7	0	0	0	0	522	361	0	0	0	0	
8	0	0	0	0	521	359	0	0	0	0	
9	0	0	0	0	519	358	0	0	0	0	
10	0	0	0	0	519	356	0	0	0	0	
11	0	0	0	0	519	355	0	0	0	0	
12	0	0	0	0	520	355	0	0	0	0	
13	0	0	0	0	521	354	0	0	0	0	
14	0	0	0	0	521	353	0	0	0	0	
15	0	0	0	0	520	352	0	0	0	0	
0	0	0	0	0	519	351	0	0	0	0	
1	0	0	0	0	517	350	0	0	0	0	
2	0	0	0	0	515	350	0	0	0	0	
3	0	0	0	0	512	350	0	0	0	0	
4	0	0	0	0	510	351	0	0	0	0	
5	0	0	0	0	509	352	0	0	0	0	
6	0	0	0	0	509	353	0	0	0	0	
7	0	0	0	0	510	356	0	0	0	0	
8	0	0	0	0	511	357	0	0	0	0	
9	0	0	0	0	511	358	0	0	0	0	
10	0	0	0	0	512	358	0	0	0	0	
11	0	0	0	0	512	356	0	0	0	0	
12	0	0	0	0	509	352	0	0	0	0	
13	0	0	0	0	504	345	0	0	0	0	
14	0	0	0	0	498	339	0	0	0	0	
15	0	0	0	0	492	331	0	0	0	0	
0	0	0	0	0	487	326	0	0	0	0	
1	0	0	0	0	484	323	0	0	0	0	
2	0	0	0	0	484	323	0	0	0	0	
3	0	0	0	0	487	326	0	0	0	0	
4	0	0	0	0	493	333	0	0	0	0	
5	0	0	0	0	501	342	0	0	0	0	
6	0	0	0	0	511	353	0	0	0	0	
7	0	0	0	0	522	365	0	0	0	0	
8	0	0	0	0	532	377	0	0	0	0	
9	0	0	0	0	542	387	0	0	0	0	
10	0	0	0	0	550	395	0	0	0	0	
11	0	0	0	0	555	400	0	0	0	0	
12	0	0	0	0	558	403	0	0	0	0	
13	0	0	0	0	558	402	0	0	0	0	
14	0	0	0	0	555	398	0	0	0	0	
15	0	0	0	0	551	394	0	0	0	0	
0	0	0	0	0	546	388	0	0	0	0	
1	0	0	0	0	540	382	0	0	0	0	
2	0	0	0	0	534	375	0	0	0	0	
3	0	0	0	0	528	370	0	0	0	0	
4	0	0	0	0	524	367	0	0	0	0	
5	0	0	0	0	519	364	0	0	0	0	
6	0	0	0	0	517	363	0	0	0	0	
7	0	0	0	0	515	363	0	0	0	0	
8	0	0	0	0	515	364	0	0	0	0	
9	0	0	0	0	515	366	0	0	0	0	
10	0	0	0	0	517	369	0	0	0	0	
11	0	0	0	0	519	371	0	0	0	0	
12	0	0	0	0	521	374	0	0	0	0	
13	0	0	0	0	523	375	0	0	0	0	
14	0	0	0	0	525	377	0	0	0	0	
15	0	0	0	0	526	377	0	0	0	0	
0	0	0	0	0	526	376	0	0	0	0	
1	0	0	0	0	526	375	0	0	0	0	
2	0	0	0	0	524	371	0	0	0	0	
3	0	0	0	0	523	368	0	0	0	0	
4	0	0	0	0	519	365	0	0	0	0	
5	0	0	0	0	516	360	0	0	0	0	
6	0	0	0	0	512	356	0	0	0	0	
7	0	0	0	0	509	353	0	0	0	0	
8	0	0	0	0	506	351	0	0	0	0	
9	0	0	0	0	505	351	0	0	0	0	
10	0	0	0	0	505	351	0	0	0	0	
11	0	0	0	0	507	353	0	0	0	0	
12	0	0	0	0	510	356	0	0	0	0	
13	0	0	0	0	515	362	0	0	0	0	
14	0	0	0	0	521	367	0	0	0	0	
15	0	0	0	0	527	373	0	0	0	0	
0	0	0	0	0	532	378	0	0	0	0	
1	0	0	0	0	537	383	0	0	0	0	
2	0	0	0	0	541	387	0	0	0	0	
3	0	0	0	0	543	389	0	0	0	0	
4	0	0	0	0	543	390	0	0	0	0	
5	0	0	0	0	540	389	0	0	0	0	
6	0	0	0	0	537	387	0	0	0	0	
7	0	0	0	0	532	383	0	0	0	0	
8	0	0	0	0	525	376	0	0	0	0	
9	0	0	0	0	516	369	0	0	0	0	
10	0	0	0	0	505	359	0	0	0	0	
11	0	0	0	0	495	348	0	0	0	0	
12	0	0	0	0	486	339	0	0	0	0	
13	0	0	0	0	478	331	0	0	0	0	
14	0	0	0	0	475	327	0	0	0	0	
15	0	0	0	0	475	326	0	0	0	0	
0	0	0	0	0	479	328	0	0	0	0	
1	0	0	0	0	487	334	0	0	0	0	
2	0	0	0	0	497	342	0	0	0	0	
3	0	0	0	0	509	352	0	0	0	0	
4	0	0	0	0	520	363	0	0	0	0	
5	0	0	0	0	532	374	0	0	0	0	
6	0	0	0	0	543	384	0	0	0	0	
7	0	0	0	0	551	393	0	0	0	0	
8	0	0	0	0	557	399	0	0	0	0	
9	0	0	0	0	560	403	0	0	0	0	
10	0	0	0	0	560	404	0	0	0	0	
11	0	0	0	0	559	405	0	0	0	0	
12	0	0	0	0	556	402	0	0	0	0	
13	0	0	0	0	551	399	0	0	0	0	
14	0	0	0	0	546	394	0	0	0	0	
15	0	0	0	0	540	389	0	0	0	0	
0	0	0	0	0	536	384	0	0	0	0	
1	0	0	0	0	531	379	0	0	0	0	
2	0	0	0	0	527	375	0	0	0	0	
3	0	0	0	0	523	371	0	0	0	0	
4	0	0	0	0	520	367	0	0	0	0	
5	0	0	0	0	518	365	0	0	0	0	
6	0	0	0	0	516	364	0	0	0	0	
7	0	0	0	0	515	363	0	0	0	0	
8	0	0	0	0	515	363	0	0	0	0	
9	0	0	0	0	515	364	0	0	0	0	
10	0	0	0	0	516	366	0	0	0	0	
11	0	0	0	0	518	368	0	0	0	0	
12	0	0	0	0	520	371	0	0	0	0	
13	0	0	0	0	523	374	0	0	0	0	
14	0	0	0	0	525	376	0	0	0	0	
15	0	0	0	0	528	378	0	0	0	0	
0	0	0	0	0	530	380	0	0	0	0	
1	0	0	0	0	531	380	0	0	0	0	
2	0	0	0	0	531	380	0	0	0	0	
3	0	0	0	0	530	379	0	0	0	0	
4	0	0	0	0	529	377	0	0	0	0	
5	0	0	0	0	528	376	0	0	0	0	
6	0	0	0	0	527	375	0	0	0	0	
7	0	0	0	0	526	374	0	0	0	0	
8	0	0	0	0	525	373	0	0	0	0	
9	0	0	0	0	524	374	0	0	0	0	
10	0	0	0	0	524	374	0	0	0	0	
11	0	0	0	0	525	376	0	0	0	0	
12	0	0	0	0	525	376	0	0	0	0	
13	0	0	0	0	526	377	0	0	0	0	
14	0	0	0	0	527	379	0	0	0	0	
15	0	0	0	0	527	379	0	0	0	0	
0	0	0	0	0	527	379	0	0	0	0	
1	0	0	0	0	527	377	0	0	0	0	
2	0	0	0	0	527	376	0	0	0	0	
3	0	0	0	0	527	376	0	0	0	0	
4	0	0	0	0	527	375	0	0	0	0	
5	0	0	0	0	527	374	0	0	0	0	
6	0	0	0	0	527	373	0	0	0	0	
7	0	0	0	0	526	371	0	0	0	0	
8	0	0	0	0	526	371	0	0	0	0	
9	0	0	0	0	526	372	0	0	0	0	
10	0	0	0	0	525	373	0	0	0	0	
11	0	0	0	0	525	374	0	0	0	0	
12	0	0	0	0	525	377	0	0	0	0	
13	0	0	0	0	526	379	0	0	0	0	
14	0	0	0	0	527	383	0	0	0	0	
15	0	0	0	0	529	386	0	0	0	0	
0	0	0	0	0	532	390	0	0	0	0	
1	0	0	0	0	534	393	0	0	0	0	
2	0	0	0	0	537	397	0	0	0	0	
3	0	0	0	0	540	399	0	0	0	0	
4	0	0	0	0	542	401	0	0	0	0	
5	0	0	0	0	544	402	0	0	0	0	
6	0	0	0	0	544	400	0	0	0	0	
7	0	0	0	0	543	399	0	0	0	0	
8	0	0	0	0	541	396	0	0	0	0	
9	0	0	0	0	537	392	0	0	0	0	
10	0	0	0	0	533	388	0	0	0	0	
11	0	0	0	0	528	384	0	0	0	0	
12	0	0	0	0	524	380	0	0	0	0	
13	0	0	0	0	519	376	0	0	0	0	
14	0	0	0	0	515	373	0	0	0	0	
15	0	0	0	0	511	371	0	0	0	0	
0	0	0	0	0	508	368	0	0	0	0	
1	0	0	0	0	506	367	0	0	0	0	
2	0	0	0	0	504	366	0	0	0	0	
3	0	0	0	0	503	364	0	0	0	0	
4	0	0	0	0	503	364	0	0	0	0	
5	0	0	0	0	503	364	0	0	0	0	
6	0	0	0	0	504	364	0	0	0	0	
7	0	0	0	0	504	363	0	0	0	0	
8	0	0	0	0	504	362	0	0	0	0	
9	0	0	0	0	504	361	0	0	0	0	
10	0	0	0	0	504	359	0	0	0	0	
11	0	0	0	0	504	358	0	0	0	0	
12	0	0	0	0	504	358	0	0	0	0	
13	0	0	0	0	504	358	0	0	0	0	
14	0	0	0	0	505	360	0	0	0	0	
15	0	0	0	0	507	362	0	0	0	0	
0	0	0	0	0	511	367	0	0	0	0	
1	0	0	0	0	515	372	0	0	0	0	
2	0	0	0	0	520	378	0	0	0	0	
3	0	0	0	0	525	384	0	0	0	0	
4	0	0	0	0	530	390	0	0	0	0	
5	0	0	0	0	535	396	0	0	0	0	
6	0	0	0	0	538	399	0	0	0	0	
7	0	0	0	0	540	402	0	0	0	0	
8	0	0	0	0	542	404	0	0	0	0	
9	0	0	0	0	540	403	0	0	0	0	
10	0	0	0	0	540	403	0	0	0	0	
11	0	0	0	0	537	400	0	0	0	0	
12	0	0	0	0	534	397	0	0	0	0	
13	0	0	0	0	531	392	0	0	0	0	
14	0	0	0	0	527	388	0	0	0	0	
15	0	0	0	0	524	384	0	0	0	0	
0	0	0	0	0	521	379	0	0	0	0	
1	0	0	0	0	519	376	0	0	0	0	
2	0	0	0	0	518	373	0	0	0	0	
3	0	0	0	0	516	371	0	0	0	0	
4	0	0	0	0	516	369	0	0	0	0	
5	0	0	0	0	515	369	0	0	0	0	
6	0	0	0	0	515	369	0	0	0	0	
7	0	0	0	0	515	370	0	0	0	0	
8	0	0	0	0	515	371	0	0	0	0	
9	0	0	0	0	515	372	0	0	0	0	
10	0	0	0	0	514	373	0	0	0	0	
11	0	0	0	0	512	372	0	0	0	0	
12	0	0	0	0	510	371	0	0	0	0	
13	0	0	0	0	507	369	0	0	0	0	
14	0	0	0	0	505	367	0	0	0	0	
15	0	0	0	0	503	366	0	0	0	0	
0	0	0	0	0	502	364	0	0	0	0	
1	0	0	0	0	502	364	0	0	0	0	
2	0	0	0	0	503	365	0	0	0	0	
3	0	0	0	0	507	368	0	0	0	0	
4	0	0	0	0	511	371	0	0	0	0	
5	0	0	0	0	516	375	0	0	0	0	
6	0	0	0	0	522	380	0	0	0	0	
7	0	0	0	0	526	384	0	0	0	0	
8	0	0	0	0	530	387	0	0	0	0	
9	0	0	0	0	532	390	0	0	0	0	
10	0	0	0	0	532	390	0	0	0	0	
11	0	0	0	0	530	389	0	0	0	0	
12	0	0	0	0	526	387	0	0	0	0	
13	0	0	0	0	522	384	0	0	0	0	
14	0	0	0	0	517	380	0	0	0	0	
15	0	0	0	0	511	375	0	0	0	0	
0	0	0	0	0	506	369	0	0	0	0	
1	0	0	0	0	500	365	0	0	0	0	
2	0	0	0	0	497	361	0	0	0	0	
3	0	0	0	0	494	358	0	0	0	0	
4	0	0	0	0	494	357	0	0	0	0	
5	0	0	0	0	494	356	0	0	0	0	
6	0	0	0	0	497	358	0	0	0	0	
7	0	0	0	0	502	361	0	0	0	0	
8	0	0	0	0	508	365	0	0	0	0	
9	0	0	0	0	515	371	0	0	0	0	
10	0	0	0	0	523	378	0	0	0	0	
11	0	0	0	0	530	386	0	0	0	0	
12	0	0	0	0	537	393	0	0	0	0	
13	0	0	0	0	543	399	0	0	0	0	
14	0	0	0	0	547	405	0	0	0	0	
15	0	0	0	0	549	409	0	0	0	0	
0	0	0	0	0	549	412	0	0	0	0	
1	0	0	0	0	547	413	0	0	0	0	
2	0	0	0	0	543	413	0	0	0	0	
3	0	0	0	0	539	411	0	0	0	0	
4	0	0	0	0	533	406	0	0	0	0	
5	0	0	0	0	526	402	0	0	0	0	
6	0	0	0	0	519	396	0	0	0	0	
7	0	0	0	0	513	391	0	0	0	0	
8	0	0	0	0	508	385	0	0	0	0	
9	0	0	0	0	503	380	0	0	0	0	
10	0	0	0	0	501	377	0	0	0	0	
11	0	0	0	0	500	375	0	0	0	0	
12	0	0	0	0	501	373	0	0	0	0	
13	0	0	0	0	502	372	0	0	0	0	
14	0	0	0	0	503	372	0	0	0	0	
15	0	0	0	0	505	373	0	0	0	0	
0	0	0	0	0	507	374	0	0	0	0	
1	0	0	0	0	509	376	0	0	0	0	
2	0	0	0	0	510	377	0	0	0	0	
3	0	0	0	0	511	379	0	0	0	0	
4	0	0	0	0	511	380	0	0	0	0	
5	0	0	0	0	511	381	0	0	0	0	
6	0	0	0	0	511	382	0	0	0	0	
7	0	0	0	0	510	382	0	0	0	0	
8	0	0	0	0	507	380	0	0	0	0	
9	0	0	0	0	505	378	0	0	0	0	
10	0	0	0	0	503	377	0	0	0	0	
11	0	0	0	0	502	375	0	0	0	0	
12	0	0	0	0	501	374	0	0	0	0	
13	0	0	0	0	501	374	0	0	0	0	
14	0	0	0	0	502	373	0	0	0	0	
15	0	0	0	0	503	374	0	0	0	0	
0	0	0	0	0	505	375	0	0	0	0	
1	0	0	0	0	508	377	0	0	0	0	
2	0	0	0	0	511	380	0	0	0	0	
3	0	0	0	0	513	383	0	0	0	0	
4	0	0	0	0	516	386	0	0	0	0	
5	0	0	0	0	519	388	0	0	0	0	
6	0	0	0	0	520	390	0	0	0	0	
7	0	0	0	0	520	391	0	0	0	0	
8	0	0	0	0	519	391	0	0	0	0	
9	0	0	0	0	518	391	0	0	0	0	
10	0	0	0	0	515	389	0	0	0	0	
11	0	0	0	0	512	387	0	0	0	0	
12	0	0	0	0	508	383	0	0	0	0	
13	0	0	0	0	504	379	0	0	0	0	
14	0	0	0	0	500	376	0	0	0	0	
15	0	0	0	0	496	372	0	0	0	0	
0	0	0	0	0	492	368	0	0	0	0	
1	0	0	0	0	487	364	0	0	0	0	
2	0	0	0	0	483	360	0	0	0	0	
3	0	0	0	0	481	358	0	0	0	0	
4	0	0	0	0	479	355	0	0	0	0	
5	0	0	0	0	478	354	0	0	0	0	
6	0	0	0	0	477	353	0	0	0	0	
7	0	0	0	0	477	352	0	0	0	0	
8	0	0	0	0	478	353	0	0	0	0	
9	0	0	0	0	480	355	0	0	0	0	
10	0	0	0	0	482	357	0	0	0	0	
11	0	0	0	0	487	361	0	0	0	0	
12	0	0	0	0	492	367	0	0	0	0	
13	0	0	0	0	499	374	0	0	0	0	
14	0	0	0	0	507	381	0	0	0	0	
15	0	0	0	0	515	389	0	0	0	0	
0	0	0	0	0	522	397	0	0	0	0	
1	0	0	0	0	528	405	0	0	0	0	
2	0	0	0	0	535	412	0	0	0	0	
3	0	0	0	0	539	417	0	0	0	0	
4	0	0	0	0	542	421	0	0	0	0	
5	0	0	0	0	544	423	0	0	0	0	
6	0	0	0	0	543	424	0	0	0	0	
7	0	0	0	0	542	423	0	0	0	0	
8	0	0	0	0	540	422	0	0	0	0	
9	0	0	0	0	536	418	0	0	0	0	
10	0	0	0	0	532	415	0	0	0	0	
11	0	0	0	0	527	410	0	0	0	0	
12	0	0	0	0	523	406	0	0	0	0	
13	0	0	0	0	519	401	0	0	0	0	
14	0	0	0	0	514	396	0	0	0	0	
15	0	0	0	0	508	391	0	0	0	0	
0	0	0	0	0	503	386	0	0	0	0	
1	0	0	0	0	498	382	0	0	0	0	
2	0	0	0	0	494	378	0	0	0	0	
3	0	0	0	0	489	374	0	0	0	0	
4	0	0	0	0	487	371	0	0	0	0	
5	0	0	0	0	485	370	0	0	0	0	
6	0	0	0	0	486	371	0	0	0	0	
7	0	0	0	0	488	374	0	0	0	0	
8	0	0	0	0	492	377	0	0	0	0	
9	0	0	0	0	497	382	0	0	0	0	
10	0	0	0	0	501	386	0	0	0	0	
11	0	0	0	0	507	391	0	0	0	0	
12	0	0	0	0	511	395	0	0	0	0	
13	0	0	0	0	515	399	0	0	0	0	
14	0	0	0	0	518	401	0	0	0	0	
15	0	0	0	0	518	401	0	0	0	0	
0	0	0	0	0	517	400	0	0	0	0	
1	0	0	0	0	515	398	0	0	0	0	
2	0	0	0	0	511	395	0	0	0	0	
3	0	0	0	0	507	391	0	0	0	0	
4	0	0	0	0	503	389	0	0	0	0	
5	0	0	0	0	500	388	0	0	0	0	
6	0	0	0	0	499	388	0	0	0	0	
7	0	0	0	0	499	390	0	0	0	0	
8	0	0	0	0	500	393	0	0	0	0	
9	0	0	0	0	503	395	0	0	0	0	
10	0	0	0	0	506	400	0	0	0	0	
11	0	0	0	0	510	403	0	0	0	0	
12	0	0	0	0	513	407	0	0	0	0	
13	0	0	0	0	518	411	0	0	0	0	
14	0	0	0	0	520	414	0	0	0	0	
15	0	0	0	0	524	415	0	0	0	0	
0	0	0	0	0	526	416	0	0	0	0	
1	0	0	0	0	528	417	0	0	0	0	
2	0	0	0	0	528	416	0	0	0	0	
3	0	0	0	0	527	414	0	0	0	0	
4	0	0	0	0	525	412	0	0	0	0	
5	0	0	0	0	521	408	0	0	0	0	
6	0	0	0	0	516	405	0	0	0	0	
7	0	0	0	0	511	401	0	0	0	0	
8	0	0	0	0	505	398	0	0	0	0	
9	0	0	0	0	501	394	0	0	0	0	
10	0	0	0	0	496	392	0	0	0	0	
11	0	0	0	0	494	391	0	0	0	0	
12	0	0	0	0	492	390	0	0	0	0	
13	0	0	0	0	491	391	0	0	0	0	
14	0	0	0	0	492	391	0	0	0	0	
15	0	0	0	0	493	393	0	0	0	0	
0	0	0	0	0	495	394	0	0	0	0	
1	0	0	0	0	498	395	0	0	0	0	
2	0	0	0	0	500	395	0	0	0	0	
3	0	0	0	0	502	396	0	0	0	0	
4	0	0	0	0	504	395	0	0	0	0	
5	0	0	0	0	504	395	0	0	0	0	
6	0	0	0	0	504	393	0	0	0	0	
7	0	0	0	0	502	392	0	0	0	0	
8	0	0	0	0	501	391	0	0	0	0	
9	0	0	0	0	499	389	0	0	0	0	
10	0	0	0	0	497	389	0	0	0	0	
11	0	0	0	0	495	388	0	0	0	0	
12	0	0	0	0	492	387	0	0	0	0	
13	0	0	0	0	491	387	0	0	0	0	
14	0	0	0	0	489	387	0	0	0	0	
15	0	0	0	0	488	387	0	0	0	0	
0	0	0	0	0	487	386	0	0	0	0	
1	0	0	0	0	486	385	0	0	0	0	
2	0	0	0	0	484	384	0	0	0	0	
3	0	0	0	0	483	382	0	0	0	0	
4	0	0	0	0	481	379	0	0	0	0	
5	0	0	0	0	481	378	0	0	0	0	
6	0	0	0	0	481	376	0	0	0	0	
7	0	0	0	0	483	377	0	0	0	0	
8	0	0	0	0	486	380	0	0	0	0	
9	0	0	0	0	490	383	0	0	0	0	
10	0	0	0	0	495	386	0	0	0	0	
11	0	0	0	0	500	391	0	0	0	0	
12	0	0	0	0	507	398	0	0	0	0	
13	0	0	0	0	512	403	0	0	0	0	
14	0	0	0	0	516	408	0	0	0	0	
15	0	0	0	0	521	413	0	0	0	0	
0	0	0	0	0	524	417	0	0	0	0	
1	0	0	0	0	526	421	0	0	0	0	
2	0	0	0	0	527	423	0	0	0	0	
3	0	0	0	0	526	423	0	0	0	0	
4	0	0	0	0	524	422	0	0	0	0	
5	0	0	0	0	519	418	0	0	0	0	
6	0	0	0	0	514	414	0	0	0	0	
7	0	0	0	0	508	408	0	0	0	0	
8	0	0	0	0	502	403	0	0	0	0	
9	0	0	0	0	496	398	0	0	0	0	
10	0	0	0	0	492	392	0	0	0	0	
11	0	0	0	0	489	390	0	0	0	0	
12	0	0	0	0	487	388	0	0	0	0	
13	0	0	0	0	487	387	0	0	0	0	
14	0	0	0	0	488	387	0	0	0	0	
15	0	0	0	0	490	387	0	0	0	0	
0	0	0	0	0	493	390	0	0	0	0	
1	0	0	0	0	496	392	0	0	0	0	
2	0	0	0	0	499	394	0	0	0	0	
3	0	0	0	0	503	397	0	0	0	0	
4	0	0	0	0	505	399	0	0	0	0	
5	0	0	0	0	507	402	0	0	0	0	
6	0	0	0	0	509	404	0	0	0	0	
7	0	0	0	0	510	406	0	0	0	0	
8	0	0	0	0	510	407	0	0	0	0	
9	0	0	0	0	509	407	0	0	0	0	
10	0	0	0	0	507	406	0	0	0	0	
11	0	0	0	0	505	405	0	0	0	0	
12	0	0	0	0	502	403	0	0	0	0	
13	0	0	0	0	499	402	0	0	0	0	
14	0	0	0	0	498	401	0	0	0	0	
15	0	0	0	0	496	401	0	0	0	0	
0	0	0	0	0	496	401	0	0	0	0	
1	0	0	0	0	496	401	0	0	0	0	
2	0	0	0	0	497	401	0	0	0	0	
3	0	0	0	0	497	402	0	0	0	0	
4	0	0	0	0	499	403	0	0	0	0	
5	0	0	0	0	501	404	0	0	0	0	
6	0	0	0	0	502	405	0	0	0	0	
7	0	0	0	0	502	406	0	0	0	0	
8	0	0	0	0	501	405	0	0	0	0	
9	0	0	0	0	500	404	0	0	0	0	
10	0	0	0	0	497	401	0	0	0	0	
11	0	0	0	0	493	398	0	0	0	0	
12	0	0	0	0	487	393	0	0	0	0	
13	0	0	0	0	480	387	0	0	0	0	
14	0	0	0	0	471	380	0	0	0	0	
15	0	0	0	0	461	371	0	0	0	0	
0	0	0	0	0	451	363	0	0	0	0	
1	0	0	0	0	441	353	0	0	0	0	
2	0	0	0	0	430	343	0	0	0	0	
3	0	0	0	0	420	334	0	0	0	0	
4	0	0	0	0	411	323	0	0	0	0	
5	0	0	0	0	400	313	0	0	0	0	
6	0	0	0	0	390	302	0	0	0	0	
7	0	0	0	0	379	291	0	0	0	0	
8	0	0	0	0	367	278	0	0	0	0	
9	0	0	0	0	353	264	0	0	0	0	
10	0	0	0	0	339	249	0	0	0	0	
11	0	0	0	0	324	235	0	0	0	0	
12	0	0	0	0	309	220	0	0	0	0	
13	0	0	0	0	295	207	0	0	0	0	
14	0	0	0	0	282	195	0	0	0	0	
15	0	0	0	0	271	185	0	0	0	0	
0	0	0	0	0	262	178	0	0	0	0	
1	0	0	0	0	257	173	0	0	0	0	
2	0	0	0	0	255	172	0	0	0	0	
3	0	0	0	0	257	173	0	0	0	0	
4	0	0	0	0	263	177	0	0	0	0	
5	0	0	0	0	272	184	0	0	0	0	
6	0	0	0	0	284	192	0	0	0	0	
7	0	0	0	0	300	205	0	0	0	0	
8	0	0	0	0	319	220	0	0	0	0	
9	0	0	0	0	342	240	0	0	0	0	
10	0	0	0	0	367	262	0	0	0	0	
11	0	0	0	0	393	285	0	0	0	0	
12	0	0	0	0	421	311	0	0	0	0	
13	0	0	0	0	448	337	0	0	0	0	
14	0	0	0	0	473	363	0	0	0	0	
15	0	0	0	0	495	386	0	0	0	0	
0	0	0	0	0	513	407	0	0	0	0	
1	0	0	0	0	528	425	0	0	0	0	
2	0	0	0	0	538	439	0	0	0	0	
3	0	0	0	0	544	449	0	0	0	0	
4	0	0	0	0	546	456	0	0	0	0	
5	0	0	0	0	545	460	0	0	0	0	
6	0	0	0	0	542	461	0	0	0	0	
7	0	0	0	0	538	460	0	0	0	0	
8	0	0	0	0	533	457	0	0	0	0	
9	0	0	0	0	528	453	0	0	0	0	
10	0	0	0	0	523	449	0	0	0	0	
11	0	0	0	0	520	445	0	0	0	0	
12	0	0	0	0	517	440	0	0	0	0	
13	0	0	0	0	514	436	0	0	0	0	
14	0	0	0	0	512	433	0	0	0	0	
15	0	0	0	0	510	430	0	0	0	0	
0	0	0	0	0	509	427	0	0	0	0	
1	0	0	0	0	507	424	0	0	0	0	
2	0	0	0	0	505	422	0	0	0	0	
3	0	0	0	0	504	420	0	0	0	0	
4	0	0	0	0	503	420	0	0	0	0	
5	0	0	0	0	504	422	0	0	0	0	
6	0	0	0	0	506	426	0	0	0	0	
7	0	0	0	0	510	431	0	0	0	0	
8	0	0	0	0	515	438	0	0	0	0	
9	0	0	0	0	521	445	0	0	0	0	
10	0	0	0	0	528	453	0	0	0	0	
11	0	0	0	0	536	461	0	0	0	0	
12	0	0	0	0	542	467	0	0	0	0	
13	0	0	0	0	547	472	0	0	0	0	
14	0	0	0	0	550	475	0	0	0	0	
15	0	0	0	0	551	476	0	0	0	0	
0	0	0	0	0	550	474	0	0	0	0	
1	0	0	0	0	545	469	0	0	0	0	
2	0	0	0	0	539	463	0	0	0	0	
3	0	0	0	0	530	455	0	0	0	0	
4	0	0	0	0	521	447	0	0	0	0	
5	0	0	0	0	512	439	0	0	0	0	
6	0	0	0	0	504	432	0	0	0	0	
7	0	0	0	0	499	427	0	0	0	0	
8	0	0	0	0	495	424	0	0	0	0	
9	0	0	0	0	494	424	0	0	0	0	
10	0	0	0	0	495	425	0	0	0	0	
11	0	0	0	0	498	429	0	0	0	0	
12	0	0	0	0	503	433	0	0	0	0	
13	0	0	0	0	508	438	0	0	0	0	
14	0	0	0	0	515	443	0	0	0	0	
15	0	0	0	0	520	448	0	0	0	0	
0	0	0	0	0	525	452	0	0	0	0	
1	0	0	0	0	529	455	0	0	0	0	
2	0	0	0	0	531	455	0	0	0	0	
3	0	0	0	0	531	456	0	0	0	0	
4	0	0	0	0	529	454	0	0	0	0	
5	0	0	0	0	527	452	0	0	0	0	
6	0	0	0	0	523	449	0	0	0	0	
7	0	0	0	0	519	446	0	0	0	0	
8	0	0	0	0	516	444	0	0	0	0	
9	0	0	0	0	513	441	0	0	0	0	
10	0	0	0	0	511	439	0	0	0	0	
11	0	0	0	0	509	438	0	0	0	0	
12	0	0	0	0	508	437	0	0	0	0	
13	0	0	0	0	509	438	0	0	0	0	
14	0	0	0	0	510	439	0	0	0	0	
15	0	0	0	0	512	440	0	0	0	0	
0	0	0	0	0	514	442	0	0	0	0	
1	0	0	0	0	517	444	0	0	0	0	
2	0	0	0	0	520	448	0	0	0	0	
3	0	0	0	0	524	451	0	0	0	0	
4	0	0	0	0	527	454	0	0	0	0	
5	0	0	0	0	529	455	0	0	0	0	
6	0	0	0	0	530	456	0	0	0	0	
7	0	0	0	0	531	458	0	0	0	0	
8	0	0	0	0	531	457	0	0	0	0	
9	0	0	0	0	529	456	0	0	0	0	
10	0	0	0	0	526	453	0	0	0	0	
11	0	0	0	0	523	451	0	0	0	0	
12	0	0	0	0	519	448	0	0	0	0	
13	0	0	0	0	513	444	0	0	0	0	
14	0	0	0	0	508	440	0	0	0	0	
15	0	0	0	0	502	436	0	0	0	0	
0	0	0	0	0	496	432	0	0	0	0	
1	0	0	0	0	491	428	0	0	0	0	
2	0	0	0	0	486	424	0	0	0	0	
3	0	0	0	0	482	422	0	0	0	0	
4	0	0	0	0	481	421	0	0	0	0	
5	0	0	0	0	481	423	0	0	0	0	
6	0	0	0	0	484	425	0	0	0	0	
7	0	0	0	0	489	430	0	0	0	0	
8	0	0	0	0	495	434	0	0	0	0	
9	0	0	0	0	502	439	0	0	0	0	
10	0	0	0	0	507	444	0	0	0	0	
11	0	0	0	0	513	448	0	0	0	0	
12	0	0	0	0	518	450	0	0	0	0	
13	0	0	0	0	521	452	0	0	0	0	
14	0	0	0	0	523	451	0	0	0	0	
15	0	0	0	0	523	451	0	0	0	0	
0	0	0	0	0	523	449	0	0	0	0	
1	0	0	0	0	521	448	0	0	0	0	
2	0	0	0	0	519	447	0	0	0	0	
3	0	0	0	0	516	446	0	0	0	0	
4	0	0	0	0	514	446	0	0	0	0	
5	0	0	0	0	514	447	0	0	0	0	
6	0	0	0	0	513	449	0	0	0	0	
7	0	0	0	0	513	451	0	0	0	0	
8	0	0	0	0	514	454	0	0	0	0	
9	0	0	0	0	515	458	0	0	0	0	
10	0	0	0	0	518	461	0	0	0	0	
11	0	0	0	0	520	464	0	0	0	0	
12	0	0	0	0	523	466	0	0	0	0	
13	0	0	0	0	524	468	0	0	0	0	
14	0	0	0	0	527	469	0	0	0	0	
15	0	0	0	0	528	469	0	0	0	0	
0	0	0	0	0	529	468	0	0	0	0	
1	0	0	0	0	529	466	0	0	0	0	
2	0	0	0	0	528	463	0	0	0	0	
3	0	0	0	0	525	460	0	0	0	0	
4	0	0	0	0	522	456	0	0	0	0	
5	0	0	0	0	517	452	0	0	0	0	
6	0	0	0	0	512	448	0	0	0	0	
7	0	0	0	0	507	443	0	0	0	0	
8	0	0	0	0	501	440	0	0	0	0	
9	0	0	0	0	497	437	0	0	0	0	
10	0	0	0	0	494	436	0	0	0	0	
11	0	0	0	0	492	436	0	0	0	0	
12	0	0	0	0	492	436	0	0	0	0	
13	0	0	0	0	493	439	0	0	0	0	
14	0	0	0	0	496	441	0	0	0	0	
15	0	0	0	0	499	444	0	0	0	0	
0	0	0	0	0	502	447	0	0	0	0	
1	0	0	0	0	505	450	0	0	0	0	
2	0	0	0	0	509	453	0	0	0	0	
3	0	0	0	0	512	455	0	0	0	0	
4	0	0	0	0	515	456	0	0	0	0	
5	0	0	0	0	517	457	0	0	0	0	
6	0	0	0	0	517	457	0	0	0	0	
7	0	0	0	0	518	458	0	0	0	0	
8	0	0	0	0	518	457	0	0	0	0	
9	0	0	0	0	517	457	0	0	0	0	
10	0	0	0	0	515	456	0	0	0	0	
11	0	0	0	0	513	455	0	0	0	0	
12	0	0	0	0	510	454	0	0	0	0	
13	0	0	0	0	508	452	0	0	0	0	
14	0	0	0	0	505	451	0	0	0	0	
15	0	0	0	0	502	450	0	0	0	0	
0	0	0	0	0	500	449	0	0	0	0	
1	0	0	0	0	499	449	0	0	0	0	
2	0	0	0	0	499	450	0	0	0	0	
3	0	0	0	0	500	451	0	0	0	0	
4	0	0	0	0	501	452	0	0	0	0	
5	0	0	0	0	502	452	0	0	0	0	
6	0	0	0	0	504	453	0	0	0	0	
7	0	0	0	0	505	453	0	0	0	0	
8	0	0	0	0	507	453	0	0	0	0	
9	0	0	0	0	508	452	0	0	0	0	
10	0	0	0	0	509	451	0	0	0	0	
11	0	0	0	0	510	451	0	0	0	0	
12	0	0	0	0	510	451	0	0	0	0	
13	0	0	0	0	510	451	0	0	0	0	
14	0	0	0	0	509	450	0	0	0	0	
15	0	0	0	0	507	448	0	0	0	0	
0	0	0	0	0	504	447	0	0	0	0	
1	0	0	0	0	499	444	0	0	0	0	
2	0	0	0	0	494	440	0	0	0	0	
3	0	0	0	0	488	435	0	0	0	0	
4	0	0	0	0	483	431	0	0	0	0	
5	0	0	0	0	478	428	0	0	0	0	
6	0	0	0	0	475	425	0	0	0	0	
7	0	0	0	0	473	424	0	0	0	0	
8	0	0	0	0	473	424	0	0	0	0	
9	0	0	0	0	476	427	0	0	0	0	
10	0	0	0	0	480	430	0	0	0	0	
11	0	0	0	0	487	435	0	0	0	0	
12	0	0	0	0	494	441	0	0	0	0	
13	0	0	0	0	502	447	0	0	0	0	
14	0	0	0	0	508	452	0	0	0	0	
15	0	0	0	0	516	458	0	0	0	0	
0	0	0	0	0	522	463	0	0	0	0	
1	0	0	0	0	526	466	0	0	0	0	
2	0	0	0	0	529	468	0	0	0	0	
3	0	0	0	0	530	470	0	0	0	0	
4	0	0	0	0	529	469	0	0	0	0	
5	0	0	0	0	528	469	0	0	0	0	
6	0	0	0	0	526	467	0	0	0	0	
7	0	0	0	0	522	465	0	0	0	0	
8	0	0	0	0	519	462	0	0	0	0	
9	0	0	0	0	513	459	0	0	0	0	
10	0	0	0	0	510	456	0	0	0	0	
11	0	0	0	0	505	452	0	0	0	0	
12	0	0	0	0	501	449	0	0	0	0	
13	0	0	0	0	497	445	0	0	0	0	
14	0	0	0	0	492	441	0	0	0	0	
15	0	0	0	0	489	438	0	0	0	0	
0	0	0	0	0	487	435	0	0	0	0	
1	0	0	0	0	487	433	0	0	0	0	
2	0	0	0	0	487	432	0	0	0	0	
3	0	0	0	0	488	433	0	0	0	0	
4	0	0	0	0	492	436	0	0	0	0	
5	0	0	0	0	495	440	0	0	0	0	
6	0	0	0	0	500	445	0	0	0	0	
7	0	0	0	0	506	451	0	0	0	0	
8	0	0	0	0	512	457	0	0	0	0	
9	0	0	0	0	518	464	0	0	0	0	
10	0	0	0	0	524	470	0	0	0	0	
11	0	0	0	0	528	475	0	0	0	0	
12	0	0	0	0	531	479	0	0	0	0	
13	0	0	0	0	533	482	0	0	0	0	
14	0	0	0	0	535	483	0	0	0	0	
15	0	0	0	0	535	482	0	0	0	0	
0	0	0	0	0	533	481	0	0	0	0	
1	0	0	0	0	531	478	0	0	0	0	
2	0	0	0	0	528	475	0	0	0	0	
3	0	0	0	0	524	472	0	0	0	0	
4	0	0	0	0	521	467	0	0	0	0	
5	0	0	0	0	517	463	0	0	0	0	
6	0	0	0	0	513	459	0	0	0	0	
7	0	0	0	0	508	454	0	0	0	0	
8	0	0	0	0	504	451	0	0	0	0	
9	0	0	0	0	500	447	0	0	0	0	
10	0	0	0	0	497	444	0	0	0	0	
11	0	0	0	0	494	441	0	0	0	0	
12	0	0	0	0	492	439	0	0	0	0	
13	0	0	0	0	491	439	0	0	0	0	
14	0	0	0	0	491	440	0	0	0	0	
15	0	0	0	0	492	441	0	0	0	0	
0	0	0	0	0	495	444	0	0	0	0	
1	0	0	0	0	499	448	0	0	0	0	
2	0	0	0	0	505	454	0	0	0	0	
3	0	0	0	0	511	459	0	0	0	0	
4	0	0	0	0	517	464	0	0	0	0	
5	0	0	0	0	523	469	0	0	0	0	
6	0	0	0	0	527	472	0	0	0	0	
7	0	0	0	0	532	477	0	0	0	0	
8	0	0	0	0	536	480	0	0	0	0	
9	0	0	0	0	538	481	0	0	0	0	
10	0	0	0	0	538	480	0	0	0	0	
11	0	0	0	0	537	480	0	0	0	0	
12	0	0	0	0	536	480	0	0	0	0	
13	0	0	0	0	533	478	0	0	0	0	
14	0	0	0	0	529	476	0	0	0	0	
15	0	0	0	0	526	475	0	0	0	0	
0	0	0	0	0	523	473	0	0	0	0	
1	0	0	0	0	521	473	0	0	0	0	
2	0	0	0	0	519	472	0	0	0	0	
3	0	0	0	0	517	471	0	0	0	0	
4	0	0	0	0	515	470	0	0	0	0	
5	0	0	0	0	514	468	0	0	0	0	
6	0	0	0	0	513	469	0	0	0	0	
7	0	0	0	0	513	468	0	0	0	0	
8	0	0	0	0	513	467	0	0	0	0	
9	0	0	0	0	514	467	0	0	0	0	
10	0	0	0	0	515	467	0	0	0	0	
11	0	0	0	0	516	467	0	0	0	0	
12	0	0	0	0	517	467	0	0	0	0	
13	0	0	0	0	518	467	0	0	0	0	
14	0	0	0	0	518	465	0	0	0	0	
15	0	0	0	0	517	464	0	0	0	0	
0	0	0	0	0	516	463	0	0	0	0	
1	0	0	0	0	513	462	0	0	0	0	
2	0	0	0	0	511	460	0	0	0	0	
3	0	0	0	0	509	458	0	0	0	0	
4	0	0	0	0	507	456	0	0	0	0	
5	0	0	0	0	506	456	0	0	0	0	
6	0	0	0	0	506	456	0	0	0	0	
7	0	0	0	0	506	457	0	0	0	0	
8	0	0	0	0	507	459	0	0	0	0	
9	0	0	0	0	508	461	0	0	0	0	
10	0	0	0	0	510	463	0	0	0	0	
11	0	0	0	0	512	464	0	0	0	0	
12	0	0	0	0	514	466	0	0	0	0	
13	0	0	0	0	515	467	0	0	0	0	
14	0	0	0	0	517	468	0	0	0	0	
15	0	0	0	0	518	470	0	0	0	0	
0	0	0	0	0	519	471	0	0	0	0	
1	0	0	0	0	521	471	0	0	0	0	
2	0	0	0	0	523	472	0	0	0	0	
3	0	0	0	0	523	471	0	0	0	0	
4	0	0	0	0	525	472	0	0	0	0	
5	0	0	0	0	525	472	0	0	0	0	
6	0	0	0	0	525	472	0	0	0	0	
7	0	0	0	0	525	472	0	0	0	0	
8	0	0	0	0	524	472	0	0	0	0	
9	0	0	0	0	524	472	0	0	0	0	
10	0	0	0	0	523	473	0	0	0	0	
11	0	0	0	0	523	474	0	0	0	0	
12	0	0	0	0	523	475	0	0	0	0	
13	0	0	0	0	522	478	0	0	0	0	
14	0	0	0	0	523	479	0	0	0	0	
15	0	0	0	0	523	479	0	0	0	0	
0	0	0	0	0	522	479	0	0	0	0	
1	0	0	0	0	521	478	0	0	0	0	
2	0	0	0	0	519	475	0	0	0	0	
3	0	0	0	0	516	472	0	0	0	0	
4	0	0	0	0	512	467	0	0	0	0	
5	0	0	0	0	508	462	0	0	0	0	
6	0	0	0	0	505	457	0	0	0	0	
7	0	0	0	0	502	453	0	0	0	0	
8	0	0	0	0	500	451	0	0	0	0	
9	0	0	0	0	500	451	0	0	0	0	
10	0	0	0	0	500	451	0	0	0	0	
11	0	0	0	0	503	453	0	0	0	0	
12	0	0	0	0	505	457	0	0	0	0	
13	0	0	0	0	511	462	0	0	0	0	
14	0	0	0	0	515	466	0	0	0	0	
15	0	0	0	0	520	471	0	0	0	0	
0	0	0	0	0	525	476	0	0	0	0	
1	0	0	0	0	528	479	0	0	0	0	
2	0	0	0	0	531	482	0	0	0	0	
3	0	0	0	0	533	483	0	0	0	0	
4	0	0	0	0	532	483	0	0	0	0	
5	0	0	0	0	532	482	0	0	0	0	
6	0	0	0	0	530	479	0	0	0	0	
7	0	0	0	0	527	476	0	0	0	0	
8	0	0	0	0	522	472	0	0	0	0	
9	0	0	0	0	519	468	0	0	0	0	
10	0	0	0	0	516	464	0	0	0	0	
11	0	0	0	0	513	462	0	0	0	0	
12	0	0	0	0	513	462	0	0	0	0	
13	0	0	0	0	513	463	0	0	0	0	
14	0	0	0	0	514	464	0	0	0	0	
15	0	0	0	0	515	466	0	0	0	0	
0	0	0	0	0	518	468	0	0	0	0	
1	0	0	0	0	519	471	0	0	0	0	
2	0	0	0	0	520	472	0	0	0	0	
3	0	0	0	0	521	473	0	0	0	0	
4	0	0	0	0	520	474	0	0	0	0	
5	0	0	0	0	519	472	0	0	0	0	
6	0	0	0	0	517	472	0	0	0	0	
7	0	0	0	0	515	471	0	0	0	0	
8	0	0	0	0	513	469	0	0	0	0	
9	0	0	0	0	511	467	0	0	0	0	
10	0	0	0	0	510	465	0	0	0	0	
11	0	0	0	0	509	463	0	0	0	0	
12	0	0	0	0	508	462	0	0	0	0	
13	0	0	0	0	508	461	0	0	0	0	
14	0	0	0	0	509	460	0	0	0	0	
15	0	0	0	0	510	461	0	0	0	0	
0	0	0	0	0	512	461	0	0	0	0	
1	0	0	0	0	513	462	0	0	0	0	
2	0	0	0	0	514	463	0	0	0	0	
3	0	0	0	0	515	464	0	0	0	0	
4	0	0	0	0	515	464	0	0	0	0	
5	0	0	0	0	514	465	0	0	0	0	
6	0	0	0	0	512	465	0	0	0	0	
7	0	0	0	0	510	464	0	0	0	0	
8	0	0	0	0	507	463	0	0	0	0	
9	0	0	0	0	502	461	0	0	0	0	
10	0	0	0	0	499	458	0	0	0	0	
11	0	0	0	0	495	455	0	0	0	0	
12	0	0	0	0	492	453	0	0	0	0	
13	0	0	0	0	489	451	0	0	0	0	
14	0	0	0	0	487	448	0	0	0	0	
15	0	0	0	0	487	448	0	0	0	0	
0	0	0	0	0	487	448	0	0	0	0	
1	0	0	0	0	491	449	0	0	0	0	
2	0	0	0	0	495	453	0	0	0	0	
3	0	0	0	0	501	457	0	0	0	0	
4	0	0	0	0	508	463	0	0	0	0	
5	0	0	0	0	515	468	0	0	0	0	
6	0	0	0	0	522	474	0	0	0	0	
7	0	0	0	0	528	480	0	0	0	0	
8	0	0	0	0	533	484	0	0	0	0	
9	0	0	0	0	537	488	0	0	0	0	
10	0	0	0	0	539	491	0	0	0	0	
11	0	0	0	0	539	492	0	0	0	0	
12	0	0	0	0	538	492	0	0	0	0	
13	0	0	0	0	536	491	0	0	0	0	
14	0	0	0	0	532	491	0	0	0	0	
15	0	0	0	0	528	488	0	0	0	0	
0	0	0	0	0	523	484	0	0	0	0	
1	0	0	0	0	518	480	0	0	0	0	
2	0	0	0	0	512	474	0	0	0	0	
3	0	0	0	0	507	470	0	0	0	0	
4	0	0	0	0	503	465	0	0	0	0	
5	0	0	0	0	499	460	0	0	0	0	
6	0	0	0	0	497	457	0	0	0	0	
7	0	0	0	0	497	456	0	0	0	0	
8	0	0	0	0	499	457	0	0	0	0	
9	0	0	0	0	503	461	0	0	0	0	
10	0	0	0	0	509	466	0	0	0	0	
11	0	0	0	0	516	472	0	0	0	0	
12	0	0	0	0	522	478	0	0	0	0	
13	0	0	0	0	529	485	0	0	0	0	
14	0	0	0	0	534	490	0	0	0	0	
15	0	0	0	0	538	494	0	0	0	0	
0	0	0	0	0	539	496	0	0	0	0	
1	0	0	0	0	539	496	0	0	0	0	
2	0	0	0	0	536	496	0	0	0	0	
3	0	0	0	0	532	492	0	0	0	0	
4	0	0	0	0	526	488	0	0	0	0	
5	0	0	0	0	519	483	0	0	0	0	
6	0	0	0	0	511	475	0	0	0	0	
7	0	0	0	0	504	469	0	0	0	0	
8	0	0	0	0	496	462	0	0	0	0	
9	0	0	0	0	489	454	0	0	0	0	
10	0	0	0	0	483	448	0	0	0	0	
11	0	0	0	0	478	443	0	0	0	0	
12	0	0	0	0	476	439	0	0	0	0	
13	0	0	0	0	475	438	0	0	0	0	
14	0	0	0	0	477	439	0	0	0	0	
15	0	0	0	0	481	441	0	0	0	0	
0	0	0	0	0	487	446	0	0	0	0	
1	0	0	0	0	495	452	0	0	0	0	
2	0	0	0	0	502	458	0	0	0	0	
3	0	0	0	0	509	465	0	0	0	0	
4	0	0	0	0	516	472	0	0	0	0	
5	0	0	0	0	521	476	0	0	0	0	
6	0	0	0	0	527	481	0	0	0	0	
7	0	0	0	0	530	485	0	0	0	0	
8	0	0	0	0	532	487	0	0	0	0	
9	0	0	0	0	532	489	0	0	0	0	
10	0	0	0	0	531	489	0	0	0	0	
11	0	0	0	0	529	487	0	0	0	0	
12	0	0	0	0	526	486	0	0	0	0	
13	0	0	0	0	522	483	0	0	0	0	
14	0	0	0	0	518	479	0	0	0	0	
15	0	0	0	0	513	475	0	0	0	0	
0	0	0	0	0	509	472	0	0	0	0	
1	0	0	0	0	505	468	0	0	0	0	
2	0	0	0	0	502	465	0	0	0	0	
3	0	0	0	0	499	463	0	0	0	0	
4	0	0	0	0	498	460	0	0	0	0	
5	0	0	0	0	497	461	0	0	0	0	
6	0	0	0	0	498	462	0	0	0	0	
7	0	0	0	0	500	463	0	0	0	0	
8	0	0	0	0	503	465	0	0	0	0	
9	0	0	0	0	505	468	0	0	0	0	
10	0	0	0	0	508	470	0	0	0	0	
11	0	0	0	0	509	471	0	0	0	0	
12	0	0	0	0	509	471	0	0	0	0	
13	0	0	0	0	508	469	0	0	0	0	
14	0	0	0	0	504	466	0	0	0	0	
15	0	0	0	0	501	463	0	0	0	0	
0	0	0	0	0	497	459	0	0	0	0	
1	0	0	0	0	494	455	0	0	0	0	
2	0	0	0	0	492	454	0	0	0	0	
3	0	0	0	0	492	453	0	0	0	0	
4	0	0	0	0	494	455	0	0	0	0	
5	0	0	0	0	496	458	0	0	0	0	
6	0	0	0	0	501	463	0	0	0	0	
7	0	0	0	0	506	467	0	0	0	0	
8	0	0	0	0	512	473	0	0	0	0	
9	0	0	0	0	519	479	0	0	0	0	
10	0	0	0	0	524	484	0	0	0	0	
11	0	0	0	0	527	488	0	0	0	0	
12	0	0	0	0	530	492	0	0	0	0	
13	0	0	0	0	531	492	0	0	0	0	
14	0	0	0	0	531	494	0	0	0	0	
15	0	0	0	0	530	492	0	0	0	0	
0	0	0	0	0	528	491	0	0	0	0	
1	0	0	0	0	526	488	0	0	0	0	
2	0	0	0	0	524	487	0	0	0	0	
3	0	0	0	0	523	484	0	0	0	0	
4	0	0	0	0	522	483	0	0	0	0	
5	0	0	0	0	522	481	0	0	0	0	
6	0	0	0	0	522	480	0	0	0	0	
7	0	0	0	0	522	481	0	0	0	0	
8	0	0	0	0	523	481	0	0	0	0	
9	0	0	0	0	524	482	0	0	0	0	
10	0	0	0	0	525	483	0	0	0	0	
11	0	0	0	0	526	483	0	0	0	0	
12	0	0	0	0	525	484	0	0	0	0	
13	0	0	0	0	526	484	0	0	0	0	
14	0	0	0	0	525	484	0	0	0	0	
15	0	0	0	0	524	484	0	0	0	0	
0	0	0	0	0	522	483	0	0	0	0	
1	0	0	0	0	521	483	0	0	0	0	
2	0	0	0	0	520	483	0	0	0	0	
3	0	0	0	0	520	483	0	0	0	0	
4	0	0	0	0	520	483	0	0	0	0	
5	0	0	0	0	521	483	0	0	0	0	
6	0	0	0	0	521	483	0	0	0	0	
7	0	0	0	0	522	482	0	0	0	0	
8	0	0	0	0	523	482	0	0	0	0	
9	0	0	0	0	523	480	0	0	0	0	
10	0	0	0	0	522	479	0	0	0	0	
11	0	0	0	0	521	478	0	0	0	0	
12	0	0	0	0	521	477	0	0	0	0	
13	0	0	0	0	521	476	0	0	0	0	
14	0	0	0	0	520	475	0	0	0	0	
15	0	0	0	0	520	474	0	0	0	0	
0	0	0	0	0	519	475	0	0	0	0	
1	0	0	0	0	519	474	0	0	0	0	
2	0	0	0	0	518	473	0	0	0	0	
3	0	0	0	0	516	472	0	0	0	0	
4	0	0	0	0	515	470	0	0	0	0	
5	0	0	0	0	511	468	0	0	0	0	
6	0	0	0	0	508	464	0	0	0	0	
7	0	0	0	0	503	460	0	0	0	0	
8	0	0	0	0	499	456	0	0	0	0	
9	0	0	0	0	496	454	0	0	0	0	
10	0	0	0	0	495	453	0	0	0	0	
11	0	0	0	0	496	453	0	0	0	0	
12	0	0	0	0	499	455	0	0	0	0	
13	0	0	0	0	503	459	0	0	0	0	
14	0	0	0	0	509	464	0	0	0	0	
15	0	0	0	0	515	469	0	0	0	0	
0	0	0	0	0	522	475	0	0	0	0	
1	0	0	0	0	527	480	0	0	0	0	
2	0	0	0	0	533	484	0	0	0	0	
3	0	0	0	0	537	488	0	0	0	0	
4	0	0	0	0	539	491	0	0	0	0	
5	0	0	0	0	540	492	0	0	0	0	
6	0	0	0	0	539	492	0	0	0	0	
7	0	0	0	0	537	492	0	0	0	0	
8	0	0	0	0	534	490	0	0	0	0	
9	0	0	0	0	529	487	0	0	0	0	
10	0	0	0	0	524	484	0	0	0	0	
11	0	0	0	0	519	480	0	0	0	0	
12	0	0	0	0	513	476	0	0	0	0	
13	0	0	0	0	508	471	0	0	0	0	
14	0	0	0	0	504	467	0	0	0	0	
15	0	0	0	0	500	463	0	0	0	0	
0	0	0	0	0	498	460	0	0	0	0	
1	0	0	0	0	497	457	0	0	0	0	
2	0	0	0	0	497	455	0	0	0	0	
3	0	0	0	0	497	455	0	0	0	0	
4	0	0	0	0	500	456	0	0	0	0	
5	0	0	0	0	504	457	0	0	0	0	
6	0	0	0	0	507	460	0	0	0	0	
7	0	0	0	0	511	463	0	0	0	0	
8	0	0	0	0	515	467	0	0	0	0	
9	0	0	0	0	519	471	0	0	0	0	
10	0	0	0	0	523	475	0	0	0	0	
11	0	0	0	0	526	478	0	0	0	0	
12	0	0	0	0	529	482	0	0	0	0	
13	0	0	0	0	531	485	0	0	0	0	
14	0	0	0	0	533	489	0	0	0	0	
15	0	0	0	0	534	491	0	0	0	0	
0	0	0	0	0	534	492	0	0	0	0	
1	0	0	0	0	533	491	0	0	0	0	
2	0	0	0	0	531	491	0	0	0	0	
3	0	0	0	0	530	490	0	0	0	0	
4	0	0	0	0	528	489	0	0	0	0	
5	0	0	0	0	527	487	0	0	0	0	
6	0	0	0	0	525	486	0	0	0	0	
7	0	0	0	0	523	483	0	0	0	0	
8	0	0	0	0	521	481	0	0	0	0	
9	0	0	0	0	518	478	0	0	0	0	
10	0	0	0	0	515	473	0	0	0	0	
11	0	0	0	0	511	469	0	0	0	0	
12	0	0	0	0	507	463	0	0	0	0	
13	0	0	0	0	503	460	0	0	0	0	
14	0	0	0	0	500	457	0	0	0	0	
15	0	0	0	0	498	455	0	0	0	0	
0	0	0	0	0	498	455	0	0	0	0	
1	0	0	0	0	499	456	0	0	0	0	
2	0	0	0	0	503	460	0	0	0	0	
3	0	0	0	0	506	464	0	0	0	0	
4	0	0	0	0	511	469	0	0	0	0	
5	0	0	0	0	516	474	0	0	0	0	
6	0	0	0	0	521	479	0	0	0	0	
7	0	0	0	0	526	483	0	0	0	0	
8	0	0	0	0	531	487	0	0	0	0	
9	0	0	0	0	534	491	0	0	0	0	
10	0	0	0	0	538	494	0	0	0	0	
11	0	0	0	0	540	496	0	0	0	0	
12	0	0	0	0	541	497	0	0	0	0	
13	0	0	0	0	541	497	0	0	0	0	
14	0	0	0	0	540	497	0	0	0	0	
15	0	0	0	0	538	496	0	0	0	0	
0	0	0	0	0	536	494	0	0	0	0	
1	0	0	0	0	533	492	0	0	0	0	
2	0	0	0	0	530	491	0	0	0	0	
3	0	0	0	0	527	488	0	0	0	0	
4	0	0	0	0	526	487	0	0	0	0	
5	0	0	0	0	524	484	0	0	0	0	
6	0	0	0	0	523	484	0	0	0	0	
7	0	0	0	0	520	481	0	0	0	0	
8	0	0	0	0	518	477	0	0	0	0	
9	0	0	0	0	513	471	0	0	0	0	
10	0	0	0	0	507	464	0	0	0	0	
11	0	0	0	0	501	457	0	0	0	0	
12	0	0	0	0	493	449	0	0	0	0	
13	0	0	0	0	485	440	0	0	0	0	
14	0	0	0	0	476	430	0	0	0	0	
15	0	0	0	0	467	421	0	0	0	0	
0	0	0	0	0	457	413	0	0	0	0	
1	0	0	0	0	449	404	0	0	0	0	
2	0	0	0	0	440	396	0	0	0	0	
3	0	0	0	0	432	389	0	0	0	0	
4	0	0	0	0	423	382	0	0	0	0	
5	0	0	0	0	415	375	0	0	0	0	
6	0	0	0	0	407	367	0	0	0	0	
7	0	0	0	0	398	359	0	0	0	0	
8	0	0	0	0	388	349	0	0	0	0	
9	0	0	0	0	376	340	0	0	0	0	
10	0	0	0	0	365	328	0	0	0	0	
11	0	0	0	0	353	316	0	0	0	0	
12	0	0	0	0	340	303	0	0	0	0	
13	0	0	0	0	327	291	0	0	0	0	
14	0	0	0	0	316	279	0	0	0	0	
15	0	0	0	0	305	269	0	0	0	0	
0	0	0	0	0	297	260	0	0	0	0	
1	0	0	0	0	291	254	0	0	0	0	
2	0	0	0	0	289	252	0	0	0	0	
3	0	0	0	0	291	253	0	0	0	0	
4	0	0	0	0	297	259	0	0	0	0	
5	0	0	0	0	307	268	0	0	0	0	
6	0	0	0	0	321	280	0	0	0	0	
7	0	0	0	0	338	294	0	0	0	0	
8	0	0	0	0	358	312	0	0	0	0	
9	0	0	0	0	380	331	0	0	0	0	
10	0	0	0	0	404	352	0	0	0	0	
11	0	0	0	0	428	374	0	0	0	0	
12	0	0	0	0	451	394	0	0	0	0	
13	0	0	0	0	472	415	0	0	0	0	
14	0	0	0	0	492	433	0	0	0	0	
15	0	0	0	0	509	449	0	0	0	0	
0	0	0	0	0	523	463	0	0	0	0	
1	0	0	0	0	533	474	0	0	0	0	
2	0	0	0	0	541	483	0	0	0	0	
3	0	0	0	0	546	489	0	0	0	0	
4	0	0	0	0	549	494	0	0	0	0	
5	0	0	0	0	550	497	0	0	0	0	
6	0	0	0	0	549	499	0	0	0	0	
7	0	0	0	0	547	499	0	0	0	0	
8	0	0	0	0	544	499	0	0	0	0	
9	0	0	0	0	541	498	0	0	0	0	
10	0	0	0	0	537	496	0	0	0	0	
11	0	0	0	0	535	495	0	0	0	0	
12	0	0	0	0	531	493	0	0	0	0	
13	0	0	0	0	530	492	0	0	0	0	
14	0	0	0	0	529	490	0	0	0	0	
15	0	0	0	0	528	489	0	0	0	0	
0	0	0	0	0	528	488	0	0	0	0	
1	0	0	0	0	527	487	0	0	0	0	
2	0	0	0	0	527	487	0	0	0	0	
3	0	0	0	0	529	487	0	0	0	0	
4	0	0	0	0	529	487	0	0	0	0	
5	0	0	0	0	531	488	0	0	0	0	
6	0	0	0	0	532	489	0	0	0	0	
7	0	0	0	0	534	491	0	0	0	0	
8	0	0	0	0	535	492	0	0	0	0	
9	0	0	0	0	537	494	0	0	0	0	
10	0	0	0	0	539	496	0	0	0	0	
11	0	0	0	0	540	498	0	0	0	0	
12	0	0	0	0	543	499	0	0	0	0	
13	0	0	0	0	543	500	0	0	0	0	
14	0	0	0	0	544	501	0	0	0	0	
15	0	0	0	0	543	500	0	0	0	0	
0	0	0	0	0	540	499	0	0	0	0	
1	0	0	0	0	538	496	0	0	0	0	
2	0	0	0	0	534	494	0	0	0	0	
3	0	0	0	0	531	491	0	0	0	0	
4	0	0	0	0	527	488	0	0	0	0	
5	0	0	0	0	524	486	0	0	0	0	
6	0	0	0	0	523	484	0	0	0	0	
7	0	0	0	0	521	483	0	0	0	0	
8	0	0	0	0	521	481	0	0	0	0	
9	0	0	0	0	521	480	0	0	0	0	
10	0	0	0	0	522	481	0	0	0	0	
11	0	0	0	0	524	481	0	0	0	0	
12	0	0	0	0	526	481	0	0	0	0	
13	0	0	0	0	527	481	0	0	0	0	
14	0	0	0	0	529	481	0	0	0	0	
15	0	0	0	0	529	483	0	0	0	0	
0	0	0	0	0	531	483	0	0	0	0	
1	0	0	0	0	532	485	0	0	0	0	
2	0	0	0	0	533	487	0	0	0	0	
3	0	0	0	0	535	489	0	0	0	0	
4	0	0	0	0	536	493	0	0	0	0	
5	0	0	0	0	539	497	0	0	0	0	
6	0	0	0	0	542	502	0	0	0	0	
7	0	0	0	0	545	506	0	0	0	0	
8	0	0	0	0	548	510	0	0	0	0	
9	0	0	0	0	551	513	0	0	0	0	
10	0	0	0	0	554	517	0	0	0	0	
11	0	0	0	0	556	519	0	0	0	0	
12	0	0	0	0	558	520	0	0	0	0	
13	0	0	0	0	559	520	0	0	0	0	
14	0	0	0	0	558	518	0	0	0	0	
15	0	0	0	0	557	517	0	0	0	0	
0	0	0	0	0	556	515	0	0	0	0	
1	0	0	0	0	554	512	0	0	0	0	
2	0	0	0	0	551	508	0	0	0	0	
3	0	0	0	0	548	504	0	0	0	0	
4	0	0	0	0	544	502	0	0	0	0	
5	0	0	0	0	540	497	0	0	0	0	
6	0	0	0	0	536	494	0	0	0	0	
7	0	0	0	0	533	491	0	0	0	0	
8	0	0	0	0	529	488	0	0	0	0	
9	0	0	0	0	527	486	0	0	0	0	
10	0	0	0	0	524	485	0	0	0	0	
11	0	0	0	0	524	484	0	0	0	0	
12	0	0	0	0	524	485	0	0	0	0	
13	0	0	0	0	524	486	0	0	0	0	
14	0	0	0	0	527	488	0	0	0	0	
15	0	0	0	0	531	491	0	0	0	0	
0	0	0	0	0	535	494	0	0	0	0	
1	0	0	0	0	539	496	0	0	0	0	
2	0	0	0	0	542	499	0	0	0	0	
3	0	0	0	0	546	501	0	0	0	0	
4	0	0	0	0	548	502	0	0	0	0	
5	0	0	0	0	549	502	0	0	0	0	
6	0	0	0	0	549	501	0	0	0	0	
7	0	0	0	0	547	498	0	0	0	0	
8	0	0	0	0	546	496	0	0	0	0	
9	0	0	0	0	542	493	0	0	0	0	
10	0	0	0	0	539	491	0	0	0	0	
11	0	0	0	0	535	487	0	0	0	0	
12	0	0	0	0	531	484	0	0	0	0	
13	0	0	0	0	528	484	0	0	0	0	
14	0	0	0	0	526	483	0	0	0	0	
15	0	0	0	0	524	482	0	0	0	0	
0	0	0	0	0	524	483	0	0	0	0	
1	0	0	0	0	524	483	0	0	0	0	
2	0	0	0	0	526	486	0	0	0	0	
3	0	0	0	0	528	489	0	0	0	0	
4	0	0	0	0	531	492	0	0	0	0	
5	0	0	0	0	535	495	0	0	0	0	
6	0	0	0	0	538	496	0	0	0	0	
7	0	0	0	0	541	498	0	0	0	0	
8	0	0	0	0	543	499	0	0	0	0	
9	0	0	0	0	544	497	0	0	0	0	
10	0	0	0	0	543	494	0	0	0	0	
11	0	0	0	0	540	491	0	0	0	0	
12	0	0	0	0	536	487	0	0	0	0	
13	0	0	0	0	533	483	0	0	0	0	
14	0	0	0	0	529	480	0	0	0	0	
15	0	0	0	0	527	478	0	0	0	0	
0	0	0	0	0	525	477	0	0	0	0	
1	0	0	0	0	525	478	0	0	0	0	
2	0	0	0	0	526	480	0	0	0	0	
3	0	0	0	0	527	483	0	0	0	0	
4	0	0	0	0	531	486	0	0	0	0	
5	0	0	0	0	533	491	0	0	0	0	
6	0	0	0	0	537	495	0	0	0	0	
7	0	0	0	0	541	498	0	0	0	0	
8	0	0	0	0	544	501	0	0	0	0	
9	0	0	0	0	545	503	0	0	0	0	
10	0	0	0	0	547	504	0	0	0	0	
11	0	0	0	0	548	504	0	0	0	0	
12	0	0	0	0	547	504	0	0	0	0	
13	0	0	0	0	547	502	0	0	0	0	
14	0	0	0	0	545	500	0	0	0	0	
15	0	0	0	0	543	497	0	0	0	0	
0	0	0	0	0	540	496	0	0	0	0	
1	0	0	0	0	538	494	0	0	0	0	
2	0	0	0	0	536	492	0	0	0	0	
3	0	0	0	0	534	491	0	0	0	0	
4	0	0	0	0	532	489	0	0	0	0	
5	0	0	0	0	532	491	0	0	0	0	
6	0	0	0	0	533	492	0	0	0	0	
7	0	0	0	0	534	493	0	0	0	0	
8	0	0	0	0	536	495	0	0	0	0	
9	0	0	0	0	538	496	0	0	0	0	
10	0	0	0	0	540	498	0	0	0	0	
11	0	0	0	0	543	500	0	0	0	0	
12	0	0	0	0	543	500	0	0	0	0	
13	0	0	0	0	544	500	0	0	0	0	
14	0	0	0	0	543	498	0	0	0	0	
15	0	0	0	0	541	495	0	0	0	0	
0	0	0	0	0	538	491	0	0	0	0	
1	0	0	0	0	534	487	0	0	0	0	
2	0	0	0	0	530	483	0	0	0	0	
3	0	0	0	0	525	479	0	0	0	0	
4	0	0	0	0	521	475	0	0	0	0	
5	0	0	0	0	518	472	0	0	0	0	
6	0	0	0	0	515	471	0	0	0	0	
7	0	0	0	0	513	469	0	0	0	0	
8	0	0	0	0	510	468	0	0	0	0	
9	0	0	0	0	508	467	0	0	0	0	
10	0	0	0	0	506	465	0	0	0	0	
11	0	0	0	0	504	464	0	0	0	0	
12	0	0	0	0	502	461	0	0	0	0	
13	0	0	0	0	499	460	0	0	0	0	
14	0	0	0	0	499	459	0	0	0	0	
15	0	0	0	0	499	459	0	0	0	0	
0	0	0	0	0	500	459	0	0	0	0	
1	0	0	0	0	503	460	0	0	0	0	
2	0	0	0	0	505	461	0	0	0	0	
3	0	0	0	0	508	463	0	0	0	0	
4	0	0	0	0	511	465	0	0	0	0	
5	0	0	0	0	515	467	0	0	0	0	
6	0	0	0	0	519	469	0	0	0	0	
7	0	0	0	0	522	473	0	0	0	0	
8	0	0	0	0	527	477	0	0	0	0	
9	0	0	0	0	531	481	0	0	0	0	
10	0	0	0	0	535	486	0	0	0	0	
11	0	0	0	0	539	490	0	0	0	0	
12	0	0	0	0	542	494	0	0	0	0	
13	0	0	0	0	544	498	0	0	0	0	
14	0	0	0	0	546	502	0	0	0	0	
15	0	0	0	0	547	503	0	0	0	0	
0	0	0	0	0	546	504	0	0	0	0	
1	0	0	0	0	545	504	0	0	0	0	
2	0	0	0	0	544	504	0	0	0	0	
3	0	0	0	0	543	503	0	0	0	0	
4	0	0	0	0	542	500	0	0	0	0	
5	0	0	0	0	540	499	0	0	0	0	
6	0	0	0	0	539	497	0	0	0	0	
7	0	0	0	0	538	495	0	0	0	0	
8	0	0	0	0	538	495	0	0	0	0	
9	0	0	0	0	538	494	0	0	0	0	
10	0	0	0	0	539	494	0	0	0	0	
11	0	0	0	0	540	494	0	0	0	0	
12	0	0	0	0	541	494	0	0	0	0	
13	0	0	0	0	540	493	0	0	0	0	
14	0	0	0	0	540	492	0	0	0	0	
15	0	0	0	0	537	489	0	0	0	0	
0	0	0	0	0	534	487	0	0	0	0	
1	0	0	0	0	532	484	0	0	0	0	
2	0	0	0	0	529	482	0	0	0	0	
3	0	0	0	0	526	480	0	0	0	0	
4	0	0	0	0	524	478	0	0	0	0	
5	0	0	0	0	523	477	0	0	0	0	
6	0	0	0	0	522	477	0	0	0	0	
7	0	0	0	0	522	477	0	0	0	0	
8	0	0	0	0	522	476	0	0	0	0	
9	0	0	0	0	522	476	0	0	0	0	
10	0	0	0	0	523	475	0	0	0	0	
11	0	0	0	0	523	476	0	0	0	0	
12	0	0	0	0	524	475	0	0	0	0	
13	0	0	0	0	524	476	0	0	0	0	
14	0	0	0	0	525	476	0	0	0	0	
15	0	0	0	0	526	476	0	0	0	0	
0	0	0	0	0	527	477	0	0	0	0	
1	0	0	0	0	528	478	0	0	0	0	
2	0	0	0	0	529	479	0	0	0	0	
3	0	0	0	0	530	479	0	0	0	0	
4	0	0	0	0	529	480	0	0	0	0	
5	0	0	0	0	530	481	0	0	0	0	
6	0	0	0	0	529	481	0	0	0	0	
7	0	0	0	0	528	481	0	0	0	0	
8	0	0	0	0	527	481	0	0	0	0	
9	0	0	0	0	524	481	0	0	0	0	
10	0	0	0	0	524	481	0	0	0	0	
11	0	0	0	0	522	481	0	0	0	0	
12	0	0	0	0	521	481	0	0	0	0	
13	0	0	0	0	521	481	0	0	0	0	
14	0	0	0	0	521	482	0	0	0	0	
15	0	0	0	0	523	483	0	0	0	0	
0	0	0	0	0	524	484	0	0	0	0	
1	0	0	0	0	525	485	0	0	0	0	
2	0	0	0	0	527	485	0	0	0	0	
3	0	0	0	0	527	486	0	0	0	0	
4	0	0	0	0	529	486	0	0	0	0	
5	0	0	0	0	529	485	0	0	0	0	
6	0	0	0	0	529	484	0	0	0	0	
7	0	0	0	0	529	483	0	0	0	0	
8	0	0	0	0	529	483	0	0	0	0	
9	0	0	0	0	530	482	0	0	0	0	
10	0	0	0	0	530	482	0	0	0	0	
11	0	0	0	0	531	482	0	0	0	0	
12	0	0	0	0	531	481	0	0	0	0	
13	0	0	0	0	531	482	0	0	0	0	
14	0	0	0	0	532	481	0	0	0	0	
15	0	0	0	0	531	480	0	0	0	0	
0	0	0	0	0	530	479	0	0	0	0	
1	0	0	0	0	528	477	0	0	0	0	
2	0	0	0	0	526	475	0	0	0	0	
3	0	0	0	0	524	473	0	0	0	0	
4	0	0	0	0	523	472	0	0	0	0	
5	0	0	0	0	523	472	0	0	0	0	
6	0	0	0	0	524	473	0	0	0	0	
7	0	0	0	0	525	476	0	0	0	0	
8	0	0	0	0	528	479	0	0	0	0	
9	0	0	0	0	531	484	0	0	0	0	
10	0	0	0	0	535	488	0	0	0	0	
11	0	0	0	0	539	493	0	0	0	0	
12	0	0	0	0	541	497	0	0	0	0	
13	0	0	0	0	544	500	0	0	0	0	
14	0	0	0	0	544	502	0	0	0	0	
15	0	0	0	0	545	504	0	0	0	0	
0	0	0	0	0	544	503	0	0	0	0	
1	0	0	0	0	542	502	0	0	0	0	
2	0	0	0	0	539	500	0	0	0	0	
3	0	0	0	0	536	497	0	0	0	0	
4	0	0	0	0	532	492	0	0	0	0	
5	0	0	0	0	529	488	0	0	0	0	
6	0	0	0	0	526	484	0	0	0	0	
7	0	0	0	0	524	481	0	0	0	0	
8	0	0	0	0	524	479	0	0	0	0	
9	0	0	0	0	524	477	0	0	0	0	
10	0	0	0	0	524	476	0	0	0	0	
11	0	0	0	0	526	477	0	0	0	0	
12	0	0	0	0	527	477	0	0	0	0	
13	0	0	0	0	528	479	0	0	0	0	
14	0	0	0	0	530	480	0	0	0	0	
15	0	0	0	0	530	481	0	0	0	0	
0	0	0	0	0	530	482	0	0	0	0	
1	0	0	0	0	530	483	0	0	0	0	
2	0	0	0	0	530	485	0	0	0	0	
3	0	0	0	0	530	486	0	0	0	0	
4	0	0	0	0	530	488	0	0	0	0	
5	0	0	0	0	530	489	0	0	0	0	
6	0	0	0	0	531	491	0	0	0	0	
7	0	0	0	0	531	492	0	0	0	0	
8	0	0	0	0	531	492	0	0	0	0	
9	0	0	0	0	532	492	0	0	0	0	
10	0	0	0	0	532	492	0	0	0	0	
11	0	0	0	0	533	492	0	0	0	0	
12	0	0	0	0	532	490	0	0	0	0	
13	0	0	0	0	531	488	0	0	0	0	
14	0	0	0	0	531	487	0	0	0	0	
15	0	0	0	0	528	484	0	0	0	0	
0	0	0	0	0	527	481	0	0	0	0	
1	0	0	0	0	524	478	0	0	0	0	
2	0	0	0	0	521	475	0	0	0	0	
3	0	0	0	0	518	472	0	0	0	0	
4	0	0	0	0	513	469	0	0	0	0	
5	0	0	0	0	511	467	0	0	0	0	
6	0	0	0	0	509	465	0	0	0	0	
7	0	0	0	0	508	465	0	0	0	0	
8	0	0	0	0	508	465	0	0	0	0	
9	0	0	0	0	510	466	0	0	0	0	
10	0	0	0	0	513	469	0	0	0	0	
11	0	0	0	0	517	472	0	0	0	0	
12	0	0	0	0	523	476	0	0	0	0	
13	0	0	0	0	528	481	0	0	0	0	
14	0	0	0	0	535	486	0	0	0	0	
15	0	0	0	0	541	491	0	0	0	0	
0	0	0	0	0	547	495	0	0	0	0	
1	0	0	0	0	551	498	0	0	0	0	
2	0	0	0	0	554	501	0	0	0	0	
3	0	0	0	0	555	501	0	0	0	0	
4	0	0	0	0	555	502	0	0	0	0	
5	0	0	0	0	553	501	0	0	0	0	
6	0	0	0	0	550	499	0	0	0	0	
7	0	0	0	0	546	496	0	0	0	0	
8	0	0	0	0	541	494	0	0	0	0	
9	0	0	0	0	536	491	0	0	0	0	
10	0	0	0	0	531	489	0	0	0	0	
11	0	0	0	0	526	486	0	0	0	0	
12	0	0	0	0	523	483	0	0	0	0	
13	0	0	0	0	519	481	0	0	0	0	
14	0	0	0	0	518	480	0	0	0	0	
15	0	0	0	0	518	479	0	0	0	0	
0	0	0	0	0	518	478	0	0	0	0	
1	0	0	0	0	520	479	0	0	0	0	
2	0	0	0	0	523	480	0	0	0	0	
3	0	0	0	0	527	482	0	0	0	0	
4	0	0	0	0	530	483	0	0	0	0	
5	0	0	0	0	534	485	0	0	0	0	
6	0	0	0	0	536	486	0	0	0	0	
7	0	0	0	0	538	486	0	0	0	0	
8	0	0	0	0	539	486	0	0	0	0	
9	0	0	0	0	538	486	0	0	0	0	
10	0	0	0	0	536	484	0	0	0	0	
11	0	0	0	0	534	483	0	0	0	0	
12	0	0	0	0	530	481	0	0	0	0	
13	0	0	0	0	527	478	0	0	0	0	
14	0	0	0	0	523	475	0	0	0	0	
15	0	0	0	0	518	473	0	0	0	0	
0	0	0	0	0	515	470	0	0	0	0	
1	0	0	0	0	511	468	0	0	0	0	
2	0	0	0	0	509	467	0	0	0	0	
3	0	0	0	0	508	465	0	0	0	0	
4	0	0	0	0	508	465	0	0	0	0	
5	0	0	0	0	508	465	0	0	0	0	
6	0	0	0	0	510	465	0	0	0	0	
7	0	0	0	0	513	467	0	0	0	0	
8	0	0	0	0	516	467	0	0	0	0	
9	0	0	0	0	519	468	0	0	0	0	
10	0	0	0	0	521	469	0	0	0	0	
11	0	0	0	0	524	470	0	0	0	0	
12	0	0	0	0	526	471	0	0	0	0	
13	0	0	0	0	527	472	0	0	0	0	
14	0	0	0	0	528	472	0	0	0	0	
15	0	0	0	0	526	471	0	0	0	0	
0	0	0	0	0	524	469	0	0	0	0	
1	0	0	0	0	520	467	0	0	0	0	
2	0	0	0	0	515	464	0	0	0	0	
3	0	0	0	0	509	461	0	0	0	0	
4	0	0	0	0	504	457	0	0	0	0	
5	0	0	0	0	499	455	0	0	0	0	
6	0	0	0	0	496	454	0	0	0	0	
7	0	0	0	0	496	454	0	0	0	0	
8	0	0	0	0	497	455	0	0	0	0	
9	0	0	0	0	500	458	0	0	0	0	
10	0	0	0	0	504	462	0	0	0	0	
11	0	0	0	0	510	465	0	0	0	0	
12	0	0	0	0	516	470	0	0	0	0	
13	0	0	0	0	523	474	0	0	0	0	
14	0	0	0	0	529	477	0	0	0	0	
15	0	0	0	0	534	480	0	0	0	0	
0	0	0	0	0	539	483	0	0	0	0	
1	0	0	0	0	542	485	0	0	0	0	
2	0	0	0	0	543	487	0	0	0	0	
3	0	0	0	0	544	488	0	0	0	0	
4	0	0	0	0	543	488	0	0	0	0	
5	0	0	0	0	542	489	0	0	0	0	
6	0	0	0	0	540	488	0	0	0	0	
7	0	0	0	0	536	487	0	0	0	0	
8	0	0	0	0	534	486	0	0	0	0	
9	0	0	0	0	530	484	0	0	0	0	
10	0	0	0	0	527	483	0	0	0	0	
11	0	0	0	0	525	481	0	0	0	0	
12	0	0	0	0	523	480	0	0	0	0	
13	0	0	0	0	522	478	0	0	0	0	
14	0	0	0	0	520	476	0	0	0	0	
15	0	0	0	0	520	475	0	0	0	0	
0	0	0	0	0	521	473	0	0	0	0	
1	0	0	0	0	521	472	0	0	0	0	
2	0	0	0	0	522	470	0	0	0	0	
3	0	0	0	0	523	469	0	0	0	0	
4	0	0	0	0	524	469	0	0	0	0	
5	0	0	0	0	524	469	0	0	0	0	
6	0	0	0	0	524	469	0	0	0	0	
7	0	0	0	0	523	468	0	0	0	0	
8	0	0	0	0	522	467	0	0	0	0	
9	0	0	0	0	520	467	0	0	0	0	
10	0	0	0	0	517	465	0	0	0	0	
11	0	0	0	0	513	463	0	0	0	0	
12	0	0	0	0	510	461	0	0	0	0	
13	0	0	0	0	505	457	0	0	0	0	
14	0	0	0	0	501	455	0	0	0	0	
15	0	0	0	0	497	451	0	0	0	0	
0	0	0	0	0	495	450	0	0	0	0	
1	0	0	0	0	494	449	0	0	0	0	
2	0	0	0	0	494	450	0	0	0	0	
3	0	0	0	0	499	452	0	0	0	0	
4	0	0	0	0	503	456	0	0	0	0	
5	0	0	0	0	509	460	0	0	0	0	
6	0	0	0	0	516	466	0	0	0	0	
7	0	0	0	0	524	472	0	0	0	0	
8	0	0	0	0	531	478	0	0	0	0	
9	0	0	0	0	537	483	0	0	0	0	
10	0	0	0	0	542	487	0	0	0	0	
11	0	0	0	0	546	492	0	0	0	0	
12	0	0	0	0	548	494	0	0	0	0	
13	0	0	0	0	550	497	0	0	0	0	
14	0	0	0	0	550	497	0	0	0	0	
15	0	0	0	0	547	496	0	0	0	0	
0	0	0	0	0	543	493	0	0	0	0	
1	0	0	0	0	538	489	0	0	0	0	
2	0	0	0	0	532	484	0	0	0	0	
3	0	0	0	0	526	479	0	0	0	0	
4	0	0	0	0	520	474	0	0	0	0	
5	0	0	0	0	515	469	0	0	0	0	
6	0	0	0	0	511	464	0	0	0	0	
7	0	0	0	0	507	461	0	0	0	0	
8	0	0	0	0	505	459	0	0	0	0	
9	0	0	0	0	504	457	0	0	0	0	
10	0	0	0	0	504	456	0	0	0	0	
11	0	0	0	0	504	456	0	0	0	0	
12	0	0	0	0	505	457	0	0	0	0	
13	0	0	0	0	508	457	0	0	0	0	
