# OpenSignals Text File Format. Version 1
# {"": {"position": 0, "device": "", "device name": "", "device connection": "", "sampling rate": 1000, "resolution": [4, 1, 1, 1, 1, 10, 10, 10, 10, 6, 6], "firmware version": 1281, "comments": "", "keywords": "", "mode": 0, "sync interval": 2, "date": "", "time": "", "channels": [1, 2, 3, 4, 5, 6], "sensor": ["RAW", "RAW", "RAW", "RAW", "RAW", "RAW"], "label": ["A1", "A2", "A3", "A4", "A5", "A6"], "column": ["nSeq", "I1", "I2", "O1", "O2", "A1", "A2", "A3", "A4", "A5", "A6"], "special": [{}, {}, {}, {}, {}, {}], "digital IO": [0, 0, 1, 1]}}
# EndOfHeader
0	0	0	0	0	415	346	1021	0	0	0	
1	0	0	0	0	450	375	1021	0	0	0	
2	0	0	0	0	481	403	1021	0	0	0	
3	0	0	0	0	510	428	1021	0	0	0	
4	0	0	0	0	533	449	1021	0	0	0	
5	0	0	0	0	551	466	1021	0	0	0	
6	0	0	0	0	562	479	1021	0	0	0	
7	0	0	0	0	569	487	1021	0	0	0	
8	0	0	0	0	569	491	1021	0	0	0	
9	0	0	0	0	565	491	1020	0	0	0	
10	0	0	0	0	558	489	1020	0	0	0	
11	0	0	0	0	547	484	1021	0	0	0	
12	0	0	0	0	538	480	1021	0	0	0	
13	0	0	0	0	527	475	1021	0	0	0	
14	0	0	0	0	519	471	1021	0	0	0	
15	0	0	0	0	512	467	1021	0	0	0	
0	0	0	0	0	508	466	1021	0	0	0	
1	0	0	0	0	507	466	1021	0	0	0	
2	0	0	0	0	509	468	1021	0	0	0	
3	0	0	0	0	513	472	1021	0	0	0	
4	0	0	0	0	519	476	1021	0	0	0	
5	0	0	0	0	526	480	1020	0	0	0	
6	0	0	0	0	534	485	1021	0	0	0	
7	0	0	0	0	541	489	1021	0	0	0	
8	0	0	0	0	548	493	1021	0	0	0	
9	0	0	0	0	553	496	1021	0	0	0	
10	0	0	0	0	557	497	1021	0	0	0	
11	0	0	0	0	560	498	1021	0	0	0	
12	0	0	0	0	561	498	1021	0	0	0	
13	0	0	0	0	559	496	1020	0	0	0	
14	0	0	0	0	556	494	1021	0	0	0	
15	0	0	0	0	552	491	1021	0	0	0	
0	0	0	0	0	547	487	1021	0	0	0	
1	0	0	0	0	542	485	1021	0	0	0	
2	0	0	0	0	537	483	1021	0	0	0	
3	0	0	0	0	534	481	1020	0	0	0	
4	0	0	0	0	533	482	1020	0	0	0	
5	0	0	0	0	534	483	1021	0	0	0	
6	0	0	0	0	535	486	1021	0	0	0	
7	0	0	0	0	537	488	1021	0	0	0	
8	0	0	0	0	542	491	1021	0	0	0	
9	0	0	0	0	545	493	1021	0	0	0	
10	0	0	0	0	548	495	1021	0	0	0	
11	0	0	0	0	550	495	1021	0	0	0	
12	0	0	0	0	550	494	1020	0	0	0	
13	0	0	0	0	547	492	1021	0	0	0	
14	0	0	0	0	545	488	1021	0	0	0	
15	0	0	0	0	541	484	1021	0	0	0	
0	0	0	0	0	536	480	1021	0	0	0	
1	0	0	0	0	530	474	1021	0	0	0	
2	0	0	0	0	524	470	1020	0	0	0	
3	0	0	0	0	520	466	1020	0	0	0	
4	0	0	0	0	518	463	1021	0	0	0	
5	0	0	0	0	517	463	1021	0	0	0	
6	0	0	0	0	519	464	1021	0	0	0	
7	0	0	0	0	521	468	1021	0	0	0	
8	0	0	0	0	527	473	1021	0	0	0	
9	0	0	0	0	534	480	1021	0	0	0	
10	0	0	0	0	541	487	1021	0	0	0	
11	0	0	0	0	548	493	1020	0	0	0	
12	0	0	0	0	556	500	1021	0	0	0	
13	0	0	0	0	561	505	1021	0	0	0	
14	0	0	0	0	566	508	1021	0	0	0	
15	0	0	0	0	568	509	1021	0	0	0	
0	0	0	0	0	567	508	1021	0	0	0	
1	0	0	0	0	563	504	1021	0	0	0	
2	0	0	0	0	557	499	1021	0	0	0	
3	0	0	0	0	551	493	1021	0	0	0	
4	0	0	0	0	543	486	1021	0	0	0	
5	0	0	0	0	534	479	1021	0	0	0	
6	0	0	0	0	525	472	1020	0	0	0	
7	0	0	0	0	518	466	1021	0	0	0	
8	0	0	0	0	512	461	1021	0	0	0	
9	0	0	0	0	508	459	1021	0	0	0	
10	0	0	0	0	506	458	1020	0	0	0	
11	0	0	0	0	508	460	1021	0	0	0	
12	0	0	0	0	511	464	1021	0	0	0	
13	0	0	0	0	519	470	1021	0	0	0	
14	0	0	0	0	527	477	1021	0	0	0	
15	0	0	0	0	536	485	1021	0	0	0	
0	0	0	0	0	545	493	1021	0	0	0	
1	0	0	0	0	554	500	1021	0	0	0	
2	0	0	0	0	561	506	1021	0	0	0	
3	0	0	0	0	566	509	1021	0	0	0	
4	0	0	0	0	568	510	1021	0	0	0	
5	0	0	0	0	567	508	1021	0	0	0	
6	0	0	0	0	562	504	1021	0	0	0	
7	0	0	0	0	556	498	1021	0	0	0	
8	0	0	0	0	548	490	1021	0	0	0	
9	0	0	0	0	540	483	1020	0	0	0	
10	0	0	0	0	532	476	1021	0	0	0	
11	0	0	0	0	526	470	1020	0	0	0	
12	0	0	0	0	522	466	1021	0	0	0	
13	0	0	0	0	520	465	1021	0	0	0	
14	0	0	0	0	521	466	1021	0	0	0	
15	0	0	0	0	524	469	1021	0	0	0	
0	0	0	0	0	529	474	1021	0	0	0	
1	0	0	0	0	535	480	1021	0	0	0	
2	0	0	0	0	540	486	1021	0	0	0	
3	0	0	0	0	544	490	1021	0	0	0	
4	0	0	0	0	547	494	1021	0	0	0	
5	0	0	0	0	548	496	1021	0	0	0	
6	0	0	0	0	547	495	1021	0	0	0	
7	0	0	0	0	543	493	1021	0	0	0	
8	0	0	0	0	537	488	1020	0	0	0	
9	0	0	0	0	531	483	1021	0	0	0	
10	0	0	0	0	523	476	1021	0	0	0	
11	0	0	0	0	516	469	1021	0	0	0	
12	0	0	0	0	510	463	1021	0	0	0	
13	0	0	0	0	505	457	1020	0	0	0	
14	0	0	0	0	502	454	1021	0	0	0	
15	0	0	0	0	503	452	1021	0	0	0	
0	0	0	0	0	505	452	1021	0	0	0	
1	0	0	0	0	509	454	1021	0	0	0	
2	0	0	0	0	515	458	1021	0	0	0	
3	0	0	0	0	522	463	1021	0	0	0	
4	0	0	0	0	530	469	1021	0	0	0	
5	0	0	0	0	539	476	1021	0	0	0	
6	0	0	0	0	546	482	1021	0	0	0	
7	0	0	0	0	551	488	1021	0	0	0	
8	0	0	0	0	556	493	1021	0	0	0	
9	0	0	0	0	558	496	1020	0	0	0	
10	0	0	0	0	558	498	1021	0	0	0	
11	0	0	0	0	555	498	1021	0	0	0	
12	0	0	0	0	550	495	1020	0	0	0	
13	0	0	0	0	543	491	1021	0	0	0	
14	0	0	0	0	537	487	1021	0	0	0	
15	0	0	0	0	529	481	1021	0	0	0	
0	0	0	0	0	523	476	1021	0	0	0	
1	0	0	0	0	517	471	1021	0	0	0	
2	0	0	0	0	512	466	1021	0	0	0	
3	0	0	0	0	510	463	1021	0	0	0	
4	0	0	0	0	509	461	1021	0	0	0	
5	0	0	0	0	510	461	1021	0	0	0	
6	0	0	0	0	512	462	1021	0	0	0	
7	0	0	0	0	516	465	1021	0	0	0	
8	0	0	0	0	521	469	1021	0	0	0	
9	0	0	0	0	527	473	1021	0	0	0	
10	0	0	0	0	533	478	1021	0	0	0	
11	0	0	0	0	538	483	1021	0	0	0	
12	0	0	0	0	542	487	1021	0	0	0	
13	0	0	0	0	544	489	1021	0	0	0	
14	0	0	0	0	547	491	1021	0	0	0	
15	0	0	0	0	545	490	1021	0	0	0	
0	0	0	0	0	543	488	1021	0	0	0	
1	0	0	0	0	538	484	1021	0	0	0	
2	0	0	0	0	531	479	1021	0	0	0	
3	0	0	0	0	524	472	1021	0	0	0	
4	0	0	0	0	516	465	1021	0	0	0	
5	0	0	0	0	508	458	1020	0	0	0	
6	0	0	0	0	502	452	1021	0	0	0	
7	0	0	0	0	496	447	1021	0	0	0	
8	0	0	0	0	494	444	1021	0	0	0	
9	0	0	0	0	493	443	1021	0	0	0	
10	0	0	0	0	494	444	1021	0	0	0	
11	0	0	0	0	499	447	1021	0	0	0	
12	0	0	0	0	503	451	1020	0	0	0	
13	0	0	0	0	511	458	1021	0	0	0	
14	0	0	0	0	518	464	1021	0	0	0	
15	0	0	0	0	526	472	1021	0	0	0	
0	0	0	0	0	532	478	1021	0	0	0	
1	0	0	0	0	539	483	1021	0	0	0	
2	0	0	0	0	544	487	1021	0	0	0	
3	0	0	0	0	547	490	1021	0	0	0	
4	0	0	0	0	550	492	1021	0	0	0	
5	0	0	0	0	550	492	1020	0	0	0	
6	0	0	0	0	548	490	1021	0	0	0	
7	0	0	0	0	546	487	1021	0	0	0	
8	0	0	0	0	543	484	1021	0	0	0	
9	0	0	0	0	539	479	1020	0	0	0	
10	0	0	0	0	534	474	1021	0	0	0	
11	0	0	0	0	528	469	1021	0	0	0	
12	0	0	0	0	524	466	1021	0	0	0	
13	0	0	0	0	520	463	1021	0	0	0	
14	0	0	0	0	518	461	1020	0	0	0	
15	0	0	0	0	516	461	1021	0	0	0	
0	0	0	0	0	516	462	1021	0	0	0	
1	0	0	0	0	516	463	1021	0	0	0	
2	0	0	0	0	517	465	1021	0	0	0	
3	0	0	0	0	518	467	1021	0	0	0	
4	0	0	0	0	518	468	1021	0	0	0	
5	0	0	0	0	518	469	1021	0	0	0	
6	0	0	0	0	518	468	1021	0	0	0	
7	0	0	0	0	515	467	1021	0	0	0	
8	0	0	0	0	513	465	1021	0	0	0	
9	0	0	0	0	510	462	1021	0	0	0	
10	0	0	0	0	506	458	1021	0	0	0	
11	0	0	0	0	504	455	1021	0	0	0	
12	0	0	0	0	502	452	1021	0	0	0	
13	0	0	0	0	500	449	1020	0	0	0	
14	0	0	0	0	500	448	1021	0	0	0	
15	0	0	0	0	501	448	1021	0	0	0	
0	0	0	0	0	504	449	1021	0	0	0	
1	0	0	0	0	507	452	1021	0	0	0	
2	0	0	0	0	511	456	1021	0	0	0	
3	0	0	0	0	516	461	1021	0	0	0	
4	0	0	0	0	522	467	1021	0	0	0	
5	0	0	0	0	528	472	1021	0	0	0	
6	0	0	0	0	532	478	1021	0	0	0	
7	0	0	0	0	536	482	1021	0	0	0	
8	0	0	0	0	539	486	1021	0	0	0	
9	0	0	0	0	540	487	1021	0	0	0	
10	0	0	0	0	540	488	1021	0	0	0	
11	0	0	0	0	538	486	1021	0	0	0	
12	0	0	0	0	535	483	1020	0	0	0	
13	0	0	0	0	531	479	1021	0	0	0	
14	0	0	0	0	525	474	1021	0	0	0	
15	0	0	0	0	520	468	1021	0	0	0	
0	0	0	0	0	515	463	1021	0	0	0	
1	0	0	0	0	510	457	1021	0	0	0	
2	0	0	0	0	506	453	1021	0	0	0	
3	0	0	0	0	504	451	1021	0	0	0	
4	0	0	0	0	504	451	1021	0	0	0	
5	0	0	0	0	507	453	1021	0	0	0	
6	0	0	0	0	511	457	1021	0	0	0	
7	0	0	0	0	518	463	1020	0	0	0	
8	0	0	0	0	525	472	1020	0	0	0	
9	0	0	0	0	535	481	1021	0	0	0	
10	0	0	0	0	544	490	1021	0	0	0	
11	0	0	0	0	554	500	1021	0	0	0	
12	0	0	0	0	562	508	1021	0	0	0	
13	0	0	0	0	568	514	1020	0	0	0	
14	0	0	0	0	572	518	1021	0	0	0	
15	0	0	0	0	572	518	1021	0	0	0	
0	0	0	0	0	571	515	1021	0	0	0	
1	0	0	0	0	565	509	1021	0	0	0	
2	0	0	0	0	558	502	1021	0	0	0	
3	0	0	0	0	548	493	1021	0	0	0	
4	0	0	0	0	539	483	1021	0	0	0	
5	0	0	0	0	529	474	1021	0	0	0	
6	0	0	0	0	520	466	1021	0	0	0	
7	0	0	0	0	513	460	1021	0	0	0	
8	0	0	0	0	508	455	1021	0	0	0	
9	0	0	0	0	505	452	1021	0	0	0	
10	0	0	0	0	504	452	1021	0	0	0	
11	0	0	0	0	505	454	1021	0	0	0	
12	0	0	0	0	508	456	1021	0	0	0	
13	0	0	0	0	512	461	1021	0	0	0	
14	0	0	0	0	517	465	1021	0	0	0	
15	0	0	0	0	521	469	1021	0	0	0	
0	0	0	0	0	525	473	1020	0	0	0	
1	0	0	0	0	528	477	1020	0	0	0	
2	0	0	0	0	531	479	1021	0	0	0	
3	0	0	0	0	531	480	1021	0	0	0	
4	0	0	0	0	532	480	1021	0	0	0	
5	0	0	0	0	531	479	1021	0	0	0	
6	0	0	0	0	529	478	1021	0	0	0	
7	0	0	0	0	527	476	1021	0	0	0	
8	0	0	0	0	526	473	1021	0	0	0	
9	0	0	0	0	524	472	1021	0	0	0	
10	0	0	0	0	523	470	1021	0	0	0	
11	0	0	0	0	523	468	1021	0	0	0	
12	0	0	0	0	524	469	1021	0	0	0	
13	0	0	0	0	525	469	1021	0	0	0	
14	0	0	0	0	527	471	1021	0	0	0	
15	0	0	0	0	531	473	1021	0	0	0	
0	0	0	0	0	534	476	1020	0	0	0	
1	0	0	0	0	539	480	1021	0	0	0	
2	0	0	0	0	542	483	1021	0	0	0	
3	0	0	0	0	546	486	1021	0	0	0	
4	0	0	0	0	548	488	1021	0	0	0	
5	0	0	0	0	549	490	1021	0	0	0	
6	0	0	0	0	547	489	1021	0	0	0	
7	0	0	0	0	544	487	1021	0	0	0	
8	0	0	0	0	539	483	1021	0	0	0	
9	0	0	0	0	531	477	1021	0	0	0	
10	0	0	0	0	524	470	1021	0	0	0	
11	0	0	0	0	516	463	1021	0	0	0	
12	0	0	0	0	508	456	1021	0	0	0	
13	0	0	0	0	501	449	1021	0	0	0	
14	0	0	0	0	495	444	1020	0	0	0	
15	0	0	0	0	492	440	1020	0	0	0	
0	0	0	0	0	491	439	1021	0	0	0	
1	0	0	0	0	493	440	1021	0	0	0	
2	0	0	0	0	498	444	1021	0	0	0	
3	0	0	0	0	505	449	1021	0	0	0	
4	0	0	0	0	514	457	1021	0	0	0	
5	0	0	0	0	524	467	1021	0	0	0	
6	0	0	0	0	536	477	1021	0	0	0	
7	0	0	0	0	547	487	1021	0	0	0	
8	0	0	0	0	556	496	1021	0	0	0	
9	0	0	0	0	564	504	1021	0	0	0	
10	0	0	0	0	571	510	1021	0	0	0	
11	0	0	0	0	574	513	1021	0	0	0	
12	0	0	0	0	574	514	1021	0	0	0	
13	0	0	0	0	572	512	1021	0	0	0	
14	0	0	0	0	568	509	1021	0	0	0	
15	0	0	0	0	562	504	1021	0	0	0	
0	0	0	0	0	554	497	1021	0	0	0	
1	0	0	0	0	545	490	1020	0	0	0	
2	0	0	0	0	538	483	1020	0	0	0	
3	0	0	0	0	530	476	1021	0	0	0	
4	0	0	0	0	525	472	1021	0	0	0	
5	0	0	0	0	521	468	1021	0	0	0	
6	0	0	0	0	519	465	1021	0	0	0	
7	0	0	0	0	518	464	1021	0	0	0	
8	0	0	0	0	519	464	1021	0	0	0	
9	0	0	0	0	520	465	1021	0	0	0	
10	0	0	0	0	521	466	1021	0	0	0	
11	0	0	0	0	524	468	1021	0	0	0	
12	0	0	0	0	526	469	1021	0	0	0	
13	0	0	0	0	527	471	1021	0	0	0	
14	0	0	0	0	527	471	1021	0	0	0	
15	0	0	0	0	526	471	1021	0	0	0	
0	0	0	0	0	524	469	1020	0	0	0	
1	0	0	0	0	521	466	1021	0	0	0	
2	0	0	0	0	518	463	1021	0	0	0	
3	0	0	0	0	515	459	1021	0	0	0	
4	0	0	0	0	511	455	1021	0	0	0	
5	0	0	0	0	508	451	1021	0	0	0	
6	0	0	0	0	504	448	1021	0	0	0	
7	0	0	0	0	504	447	1020	0	0	0	
8	0	0	0	0	505	448	1021	0	0	0	
9	0	0	0	0	508	450	1021	0	0	0	
10	0	0	0	0	512	455	1021	0	0	0	
11	0	0	0	0	519	462	1021	0	0	0	
12	0	0	0	0	526	469	1021	0	0	0	
13	0	0	0	0	534	477	1021	0	0	0	
14	0	0	0	0	543	486	1021	0	0	0	
15	0	0	0	0	550	493	1021	0	0	0	
0	0	0	0	0	557	499	1021	0	0	0	
1	0	0	0	0	562	505	1020	0	0	0	
2	0	0	0	0	566	509	1021	0	0	0	
3	0	0	0	0	568	511	1021	0	0	0	
4	0	0	0	0	568	511	1021	0	0	0	
5	0	0	0	0	566	509	1021	0	0	0	
6	0	0	0	0	563	505	1021	0	0	0	
7	0	0	0	0	558	500	1021	0	0	0	
8	0	0	0	0	551	494	1021	0	0	0	
9	0	0	0	0	543	487	1021	0	0	0	
10	0	0	0	0	535	479	1021	0	0	0	
11	0	0	0	0	527	472	1021	0	0	0	
12	0	0	0	0	520	466	1021	0	0	0	
13	0	0	0	0	515	462	1021	0	0	0	
14	0	0	0	0	513	460	1021	0	0	0	
15	0	0	0	0	512	460	1020	0	0	0	
0	0	0	0	0	513	461	1020	0	0	0	
1	0	0	0	0	517	465	1021	0	0	0	
2	0	0	0	0	521	469	1021	0	0	0	
3	0	0	0	0	527	474	1021	0	0	0	
4	0	0	0	0	532	479	1021	0	0	0	
5	0	0	0	0	538	483	1021	0	0	0	
6	0	0	0	0	541	486	1021	0	0	0	
7	0	0	0	0	543	487	1021	0	0	0	
8	0	0	0	0	543	487	1021	0	0	0	
9	0	0	0	0	541	484	1021	0	0	0	
10	0	0	0	0	537	480	1020	0	0	0	
11	0	0	0	0	532	474	1021	0	0	0	
12	0	0	0	0	526	468	1021	0	0	0	
13	0	0	0	0	519	462	1021	0	0	0	
14	0	0	0	0	512	456	1020	0	0	0	
15	0	0	0	0	508	452	1021	0	0	0	
0	0	0	0	0	506	450	1021	0	0	0	
1	0	0	0	0	506	451	1021	0	0	0	
2	0	0	0	0	508	453	1020	0	0	0	
3	0	0	0	0	513	458	1021	0	0	0	
4	0	0	0	0	519	464	1021	0	0	0	
5	0	0	0	0	527	472	1021	0	0	0	
6	0	0	0	0	536	480	1021	0	0	0	
7	0	0	0	0	545	487	1021	0	0	0	
8	0	0	0	0	552	495	1021	0	0	0	
9	0	0	0	0	560	502	1021	0	0	0	
10	0	0	0	0	564	506	1021	0	0	0	
11	0	0	0	0	566	508	1021	0	0	0	
12	0	0	0	0	564	506	1021	0	0	0	
13	0	0	0	0	560	502	1021	0	0	0	
14	0	0	0	0	551	495	1021	0	0	0	
15	0	0	0	0	540	486	1021	0	0	0	
0	0	0	0	0	527	475	1021	0	0	0	
1	0	0	0	0	514	463	1020	0	0	0	
2	0	0	0	0	502	451	1021	0	0	0	
3	0	0	0	0	489	440	1021	0	0	0	
4	0	0	0	0	480	432	1021	0	0	0	
5	0	0	0	0	474	427	1021	0	0	0	
6	0	0	0	0	471	423	1021	0	0	0	
7	0	0	0	0	471	423	1021	0	0	0	
8	0	0	0	0	475	427	1021	0	0	0	
9	0	0	0	0	481	432	1021	0	0	0	
10	0	0	0	0	489	439	1021	0	0	0	
11	0	0	0	0	499	447	1021	0	0	0	
12	0	0	0	0	510	455	1021	0	0	0	
13	0	0	0	0	519	463	1021	0	0	0	
14	0	0	0	0	528	471	1021	0	0	0	
15	0	0	0	0	535	476	1021	0	0	0	
0	0	0	0	0	539	479	1021	0	0	0	
1	0	0	0	0	541	480	1021	0	0	0	
2	0	0	0	0	540	480	1020	0	0	0	
3	0	0	0	0	538	479	1021	0	0	0	
4	0	0	0	0	533	476	1021	0	0	0	
5	0	0	0	0	529	473	1021	0	0	0	
6	0	0	0	0	523	469	1021	0	0	0	
7	0	0	0	0	519	467	1021	0	0	0	
8	0	0	0	0	516	466	1021	0	0	0	
9	0	0	0	0	516	466	1021	0	0	0	
10	0	0	0	0	517	468	1021	0	0	0	
11	0	0	0	0	520	471	1021	0	0	0	
12	0	0	0	0	526	477	1020	0	0	0	
13	0	0	0	0	534	483	1021	0	0	0	
14	0	0	0	0	541	489	1021	0	0	0	
15	0	0	0	0	548	496	1021	0	0	0	
0	0	0	0	0	556	502	1021	0	0	0	
1	0	0	0	0	562	507	1021	0	0	0	
2	0	0	0	0	566	510	1021	0	0	0	
3	0	0	0	0	567	510	1021	0	0	0	
4	0	0	0	0	567	509	1021	0	0	0	
5	0	0	0	0	563	506	1021	0	0	0	
6	0	0	0	0	557	501	1020	0	0	0	
7	0	0	0	0	551	495	1021	0	0	0	
8	0	0	0	0	543	489	1021	0	0	0	
9	0	0	0	0	536	483	1021	0	0	0	
10	0	0	0	0	529	478	1021	0	0	0	
11	0	0	0	0	522	472	1021	0	0	0	
12	0	0	0	0	518	469	1021	0	0	0	
13	0	0	0	0	515	467	1021	0	0	0	
14	0	0	0	0	515	466	1020	0	0	0	
15	0	0	0	0	516	467	1021	0	0	0	
0	0	0	0	0	519	470	1021	0	0	0	
1	0	0	0	0	524	473	1021	0	0	0	
2	0	0	0	0	529	478	1021	0	0	0	
3	0	0	0	0	536	483	1021	0	0	0	
4	0	0	0	0	541	487	1021	0	0	0	
5	0	0	0	0	545	490	1021	0	0	0	
6	0	0	0	0	550	492	1021	0	0	0	
7	0	0	0	0	551	493	1021	0	0	0	
8	0	0	0	0	550	492	1021	0	0	0	
9	0	0	0	0	548	489	1021	0	0	0	
10	0	0	0	0	544	485	1020	0	0	0	
11	0	0	0	0	540	480	1021	0	0	0	
12	0	0	0	0	534	475	1021	0	0	0	
13	0	0	0	0	528	470	1021	0	0	0	
14	0	0	0	0	522	465	1021	0	0	0	
15	0	0	0	0	517	460	1021	0	0	0	
0	0	0	0	0	512	456	1021	0	0	0	
1	0	0	0	0	508	454	1021	0	0	0	
2	0	0	0	0	506	452	1021	0	0	0	
3	0	0	0	0	505	452	1021	0	0	0	
4	0	0	0	0	506	454	1021	0	0	0	
5	0	0	0	0	509	457	1021	0	0	0	
6	0	0	0	0	513	462	1021	0	0	0	
7	0	0	0	0	518	466	1021	0	0	0	
8	0	0	0	0	523	471	1021	0	0	0	
9	0	0	0	0	528	475	1020	0	0	0	
10	0	0	0	0	533	479	1021	0	0	0	
11	0	0	0	0	536	480	1021	0	0	0	
12	0	0	0	0	538	481	1020	0	0	0	
13	0	0	0	0	539	480	1021	0	0	0	
14	0	0	0	0	537	478	1021	0	0	0	
15	0	0	0	0	536	476	1021	0	0	0	
0	0	0	0	0	534	473	1021	0	0	0	
1	0	0	0	0	531	471	1021	0	0	0	
2	0	0	0	0	528	469	1021	0	0	0	
3	0	0	0	0	527	468	1020	0	0	0	
4	0	0	0	0	527	468	1021	0	0	0	
5	0	0	0	0	526	469	1021	0	0	0	
6	0	0	0	0	527	471	1021	0	0	0	
7	0	0	0	0	529	474	1021	0	0	0	
8	0	0	0	0	531	477	1021	0	0	0	
9	0	0	0	0	534	481	1021	0	0	0	
10	0	0	0	0	536	484	1021	0	0	0	
11	0	0	0	0	537	487	1020	0	0	0	
12	0	0	0	0	538	488	1021	0	0	0	
13	0	0	0	0	536	487	1021	0	0	0	
14	0	0	0	0	535	486	1021	0	0	0	
15	0	0	0	0	531	482	1021	0	0	0	
0	0	0	0	0	525	476	1021	0	0	0	
1	0	0	0	0	518	468	1021	0	0	0	
2	0	0	0	0	511	461	1020	0	0	0	
3	0	0	0	0	504	454	1021	0	0	0	
4	0	0	0	0	497	446	1021	0	0	0	
5	0	0	0	0	492	440	1021	0	0	0	
6	0	0	0	0	488	435	1021	0	0	0	
7	0	0	0	0	487	433	1021	0	0	0	
8	0	0	0	0	488	432	1021	0	0	0	
9	0	0	0	0	492	435	1021	0	0	0	
10	0	0	0	0	499	440	1021	0	0	0	
11	0	0	0	0	507	447	1021	0	0	0	
12	0	0	0	0	517	456	1021	0	0	0	
13	0	0	0	0	528	466	1021	0	0	0	
14	0	0	0	0	540	477	1021	0	0	0	
15	0	0	0	0	551	488	1021	0	0	0	
0	0	0	0	0	561	498	1021	0	0	0	
1	0	0	0	0	569	506	1021	0	0	0	
2	0	0	0	0	577	513	1021	0	0	0	
3	0	0	0	0	580	518	1021	0	0	0	
4	0	0	0	0	582	519	1020	0	0	0	
5	0	0	0	0	580	518	1021	0	0	0	
6	0	0	0	0	575	514	1021	0	0	0	
7	0	0	0	0	568	508	1021	0	0	0	
8	0	0	0	0	558	499	1021	0	0	0	
9	0	0	0	0	546	489	1021	0	0	0	
10	0	0	0	0	533	478	1021	0	0	0	
11	0	0	0	0	519	467	1021	0	0	0	
12	0	0	0	0	508	458	1021	0	0	0	
13	0	0	0	0	498	451	1021	0	0	0	
14	0	0	0	0	491	447	1021	0	0	0	
15	0	0	0	0	488	446	1021	0	0	0	
0	0	0	0	0	488	447	1020	0	0	0	
1	0	0	0	0	492	451	1021	0	0	0	
2	0	0	0	0	499	456	1021	0	0	0	
3	0	0	0	0	508	463	1021	0	0	0	
4	0	0	0	0	519	471	1021	0	0	0	
5	0	0	0	0	530	479	1021	0	0	0	
6	0	0	0	0	540	486	1021	0	0	0	
7	0	0	0	0	549	491	1021	0	0	0	
8	0	0	0	0	556	495	1021	0	0	0	
9	0	0	0	0	560	496	1021	0	0	0	
10	0	0	0	0	562	497	1021	0	0	0	
11	0	0	0	0	562	495	1021	0	0	0	
12	0	0	0	0	560	492	1021	0	0	0	
13	0	0	0	0	555	487	1021	0	0	0	
14	0	0	0	0	549	482	1021	0	0	0	
15	0	0	0	0	543	478	1021	0	0	0	
0	0	0	0	0	536	473	1021	0	0	0	
1	0	0	0	0	531	471	1021	0	0	0	
2	0	0	0	0	527	469	1021	0	0	0	
3	0	0	0	0	525	470	1021	0	0	0	
4	0	0	0	0	523	471	1020	0	0	0	
5	0	0	0	0	524	474	1021	0	0	0	
6	0	0	0	0	526	478	1021	0	0	0	
7	0	0	0	0	529	482	1021	0	0	0	
8	0	0	0	0	532	486	1021	0	0	0	
9	0	0	0	0	536	489	1021	0	0	0	
10	0	0	0	0	538	491	1021	0	0	0	
11	0	0	0	0	539	491	1021	0	0	0	
12	0	0	0	0	539	488	1021	0	0	0	
13	0	0	0	0	536	485	1020	0	0	0	
14	0	0	0	0	532	480	1021	0	0	0	
15	0	0	0	0	528	474	1021	0	0	0	
0	0	0	0	0	523	467	1021	0	0	0	
1	0	0	0	0	518	461	1020	0	0	0	
2	0	0	0	0	514	456	1021	0	0	0	
3	0	0	0	0	510	453	1021	0	0	0	
4	0	0	0	0	510	452	1021	0	0	0	
5	0	0	0	0	511	453	1021	0	0	0	
6	0	0	0	0	514	456	1020	0	0	0	
7	0	0	0	0	519	462	1021	0	0	0	
8	0	0	0	0	527	470	1021	0	0	0	
9	0	0	0	0	536	479	1021	0	0	0	
10	0	0	0	0	545	488	1021	0	0	0	
11	0	0	0	0	554	496	1021	0	0	0	
12	0	0	0	0	561	503	1021	0	0	0	
13	0	0	0	0	566	507	1021	0	0	0	
14	0	0	0	0	569	509	1021	0	0	0	
15	0	0	0	0	568	508	1021	0	0	0	
0	0	0	0	0	565	505	1021	0	0	0	
1	0	0	0	0	560	500	1021	0	0	0	
2	0	0	0	0	552	493	1021	0	0	0	
3	0	0	0	0	545	486	1021	0	0	0	
4	0	0	0	0	537	480	1021	0	0	0	
5	0	0	0	0	531	474	1020	0	0	0	
6	0	0	0	0	526	471	1021	0	0	0	
7	0	0	0	0	525	470	1021	0	0	0	
8	0	0	0	0	526	472	1021	0	0	0	
9	0	0	0	0	531	476	1021	0	0	0	
10	0	0	0	0	538	483	1021	0	0	0	
11	0	0	0	0	547	491	1021	0	0	0	
12	0	0	0	0	556	499	1021	0	0	0	
13	0	0	0	0	565	507	1021	0	0	0	
14	0	0	0	0	573	513	1021	0	0	0	
15	0	0	0	0	577	517	1021	0	0	0	
0	0	0	0	0	577	517	1021	0	0	0	
1	0	0	0	0	572	512	1021	0	0	0	
2	0	0	0	0	563	504	1021	0	0	0	
3	0	0	0	0	548	490	1021	0	0	0	
4	0	0	0	0	529	473	1020	0	0	0	
5	0	0	0	0	507	455	1021	0	0	0	
6	0	0	0	0	483	434	1021	0	0	0	
7	0	0	0	0	460	414	1021	0	0	0	
8	0	0	0	0	437	393	1021	0	0	0	
9	0	0	0	0	415	374	1021	0	0	0	
10	0	0	0	0	396	357	1021	0	0	0	
11	0	0	0	0	380	342	1021	0	0	0	
12	0	0	0	0	368	330	1021	0	0	0	
13	0	0	0	0	359	319	1021	0	0	0	
14	0	0	0	0	353	312	1021	0	0	0	
15	0	0	0	0	350	306	1021	0	0	0	
0	0	0	0	0	348	302	1021	0	0	0	
1	0	0	0	0	348	299	1021	0	0	0	
2	0	0	0	0	348	296	1021	0	0	0	
3	0	0	0	0	349	294	1020	0	0	0	
4	0	0	0	0	350	293	1021	0	0	0	
5	0	0	0	0	350	292	1021	0	0	0	
6	0	0	0	0	352	292	1021	0	0	0	
7	0	0	0	0	354	294	1021	0	0	0	
8	0	0	0	0	358	296	1021	0	0	0	
9	0	0	0	0	363	301	1021	0	0	0	
10	0	0	0	0	370	307	1021	0	0	0	
11	0	0	0	0	380	316	1021	0	0	0	
12	0	0	0	0	394	327	1021	0	0	0	
13	0	0	0	0	409	340	1021	0	0	0	
14	0	0	0	0	427	356	1020	0	0	0	
15	0	0	0	0	448	374	1021	0	0	0	
0	0	0	0	0	469	393	1021	0	0	0	
1	0	0	0	0	492	414	1021	0	0	0	
2	0	0	0	0	514	435	1020	0	0	0	
3	0	0	0	0	536	455	1021	0	0	0	
4	0	0	0	0	555	474	1021	0	0	0	
5	0	0	0	0	572	492	1021	0	0	0	
6	0	0	0	0	585	506	1021	0	0	0	
7	0	0	0	0	594	518	1021	0	0	0	
8	0	0	0	0	600	526	1021	0	0	0	
9	0	0	0	0	601	532	1021	0	0	0	
10	0	0	0	0	601	535	1021	0	0	0	
11	0	0	0	0	596	534	1021	0	0	0	
12	0	0	0	0	589	530	1021	0	0	0	
13	0	0	0	0	581	525	1021	0	0	0	
14	0	0	0	0	570	517	1021	0	0	0	
15	0	0	0	0	559	508	1021	0	0	0	
0	0	0	0	0	548	499	1021	0	0	0	
1	0	0	0	0	538	490	1021	0	0	0	
2	0	0	0	0	530	482	1021	0	0	0	
3	0	0	0	0	524	476	1021	0	0	0	
4	0	0	0	0	521	472	1021	0	0	0	
5	0	0	0	0	521	471	1021	0	0	0	
6	0	0	0	0	524	473	1020	0	0	0	
7	0	0	0	0	530	477	1021	0	0	0	
8	0	0	0	0	537	483	1021	0	0	0	
9	0	0	0	0	547	490	1021	0	0	0	
10	0	0	0	0	558	499	1021	0	0	0	
11	0	0	0	0	568	508	1021	0	0	0	
12	0	0	0	0	577	516	1021	0	0	0	
13	0	0	0	0	585	524	1020	0	0	0	
14	0	0	0	0	592	530	1021	0	0	0	
15	0	0	0	0	596	533	1021	0	0	0	
0	0	0	0	0	598	535	1021	0	0	0	
1	0	0	0	0	595	534	1021	0	0	0	
2	0	0	0	0	592	531	1021	0	0	0	
3	0	0	0	0	586	527	1021	0	0	0	
4	0	0	0	0	579	520	1021	0	0	0	
5	0	0	0	0	571	515	1021	0	0	0	
6	0	0	0	0	563	508	1021	0	0	0	
7	0	0	0	0	556	502	1021	0	0	0	
8	0	0	0	0	549	497	1021	0	0	0	
9	0	0	0	0	544	493	1021	0	0	0	
10	0	0	0	0	540	490	1020	0	0	0	
11	0	0	0	0	539	489	1021	0	0	0	
12	0	0	0	0	539	489	1021	0	0	0	
13	0	0	0	0	542	491	1021	0	0	0	
14	0	0	0	0	545	494	1021	0	0	0	
15	0	0	0	0	549	496	1021	0	0	0	
0	0	0	0	0	553	499	1021	0	0	0	
1	0	0	0	0	557	503	1021	0	0	0	
2	0	0	0	0	560	504	1021	0	0	0	
3	0	0	0	0	562	505	1021	0	0	0	
4	0	0	0	0	561	504	1021	0	0	0	
5	0	0	0	0	559	503	1020	0	0	0	
6	0	0	0	0	556	499	1021	0	0	0	
7	0	0	0	0	552	496	1021	0	0	0	
8	0	0	0	0	548	492	1021	0	0	0	
9	0	0	0	0	543	489	1020	0	0	0	
10	0	0	0	0	541	487	1021	0	0	0	
11	0	0	0	0	538	486	1021	0	0	0	
12	0	0	0	0	539	487	1021	0	0	0	
13	0	0	0	0	541	489	1021	0	0	0	
14	0	0	0	0	544	493	1021	0	0	0	
15	0	0	0	0	550	499	1021	0	0	0	
0	0	0	0	0	558	506	1021	0	0	0	
1	0	0	0	0	567	515	1021	0	0	0	
2	0	0	0	0	575	523	1021	0	0	0	
3	0	0	0	0	583	530	1021	0	0	0	
4	0	0	0	0	590	537	1021	0	0	0	
5	0	0	0	0	595	542	1021	0	0	0	
6	0	0	0	0	598	544	1021	0	0	0	
7	0	0	0	0	598	544	1021	0	0	0	
8	0	0	0	0	594	541	1021	0	0	0	
9	0	0	0	0	588	535	1021	0	0	0	
10	0	0	0	0	579	527	1020	0	0	0	
11	0	0	0	0	571	519	1021	0	0	0	
12	0	0	0	0	560	509	1021	0	0	0	
13	0	0	0	0	552	501	1021	0	0	0	
14	0	0	0	0	543	493	1021	0	0	0	
15	0	0	0	0	538	487	1021	0	0	0	
0	0	0	0	0	535	484	1021	0	0	0	
1	0	0	0	0	535	484	1021	0	0	0	
2	0	0	0	0	538	486	1021	0	0	0	
3	0	0	0	0	543	491	1021	0	0	0	
4	0	0	0	0	551	497	1021	0	0	0	
5	0	0	0	0	559	504	1021	0	0	0	
6	0	0	0	0	566	511	1021	0	0	0	
7	0	0	0	0	572	516	1021	0	0	0	
8	0	0	0	0	576	520	1020	0	0	0	
9	0	0	0	0	577	521	1021	0	0	0	
10	0	0	0	0	577	521	1021	0	0	0	
11	0	0	0	0	573	518	1021	0	0	0	
12	0	0	0	0	568	514	1021	0	0	0	
13	0	0	0	0	560	508	1021	0	0	0	
14	0	0	0	0	551	500	1021	0	0	0	
15	0	0	0	0	542	493	1021	0	0	0	
0	0	0	0	0	534	485	1021	0	0	0	
1	0	0	0	0	527	478	1021	0	0	0	
2	0	0	0	0	522	473	1021	0	0	0	
3	0	0	0	0	519	469	1021	0	0	0	
4	0	0	0	0	519	468	1021	0	0	0	
5	0	0	0	0	522	469	1021	0	0	0	
6	0	0	0	0	527	473	1021	0	0	0	
7	0	0	0	0	535	479	1021	0	0	0	
8	0	0	0	0	543	485	1020	0	0	0	
9	0	0	0	0	552	493	1021	0	0	0	
10	0	0	0	0	560	500	1021	0	0	0	
11	0	0	0	0	568	507	1021	0	0	0	
12	0	0	0	0	573	511	1021	0	0	0	
13	0	0	0	0	576	515	1021	0	0	0	
14	0	0	0	0	576	516	1021	0	0	0	
15	0	0	0	0	574	515	1021	0	0	0	
0	0	0	0	0	569	511	1021	0	0	0	
1	0	0	0	0	562	506	1021	0	0	0	
2	0	0	0	0	555	500	1021	0	0	0	
3	0	0	0	0	547	494	1021	0	0	0	
4	0	0	0	0	539	487	1021	0	0	0	
5	0	0	0	0	532	481	1021	0	0	0	
6	0	0	0	0	526	477	1020	0	0	0	
7	0	0	0	0	523	474	1020	0	0	0	
8	0	0	0	0	524	473	1021	0	0	0	
9	0	0	0	0	526	475	1021	0	0	0	
10	0	0	0	0	532	480	1021	0	0	0	
11	0	0	0	0	540	487	1021	0	0	0	
12	0	0	0	0	548	495	1021	0	0	0	
13	0	0	0	0	558	504	1021	0	0	0	
14	0	0	0	0	567	512	1021	0	0	0	
15	0	0	0	0	575	520	1021	0	0	0	
0	0	0	0	0	581	526	1021	0	0	0	
1	0	0	0	0	584	529	1021	0	0	0	
2	0	0	0	0	585	531	1021	0	0	0	
3	0	0	0	0	583	530	1021	0	0	0	
4	0	0	0	0	579	526	1020	0	0	0	
5	0	0	0	0	573	521	1021	0	0	0	
6	0	0	0	0	565	515	1021	0	0	0	
7	0	0	0	0	557	507	1021	0	0	0	
8	0	0	0	0	548	500	1021	0	0	0	
9	0	0	0	0	540	492	1021	0	0	0	
10	0	0	0	0	532	485	1021	0	0	0	
11	0	0	0	0	526	480	1020	0	0	0	
12	0	0	0	0	523	477	1021	0	0	0	
13	0	0	0	0	522	475	1021	0	0	0	
14	0	0	0	0	524	477	1021	0	0	0	
15	0	0	0	0	527	480	1021	0	0	0	
0	0	0	0	0	533	485	1021	0	0	0	
1	0	0	0	0	539	490	1021	0	0	0	
2	0	0	0	0	546	495	1021	0	0	0	
3	0	0	0	0	552	500	1021	0	0	0	
4	0	0	0	0	558	505	1021	0	0	0	
5	0	0	0	0	562	508	1021	0	0	0	
6	0	0	0	0	565	510	1021	0	0	0	
7	0	0	0	0	565	509	1021	0	0	0	
8	0	0	0	0	563	508	1021	0	0	0	
9	0	0	0	0	560	504	1021	0	0	0	
10	0	0	0	0	555	499	1020	0	0	0	
11	0	0	0	0	549	495	1021	0	0	0	
12	0	0	0	0	543	489	1021	0	0	0	
13	0	0	0	0	538	484	1021	0	0	0	
14	0	0	0	0	533	480	1021	0	0	0	
15	0	0	0	0	531	479	1021	0	0	0	
0	0	0	0	0	530	479	1021	0	0	0	
1	0	0	0	0	532	481	1021	0	0	0	
2	0	0	0	0	536	484	1021	0	0	0	
3	0	0	0	0	543	490	1021	0	0	0	
4	0	0	0	0	550	497	1021	0	0	0	
5	0	0	0	0	559	505	1021	0	0	0	
6	0	0	0	0	567	512	1021	0	0	0	
7	0	0	0	0	573	517	1021	0	0	0	
8	0	0	0	0	577	521	1021	0	0	0	
9	0	0	0	0	577	521	1021	0	0	0	
10	0	0	0	0	575	519	1021	0	0	0	
11	0	0	0	0	568	514	1021	0	0	0	
12	0	0	0	0	559	507	1020	0	0	0	
13	0	0	0	0	547	497	1021	0	0	0	
14	0	0	0	0	535	487	1021	0	0	0	
15	0	0	0	0	522	476	1021	0	0	0	
0	0	0	0	0	511	465	1021	0	0	0	
1	0	0	0	0	500	456	1021	0	0	0	
2	0	0	0	0	492	449	1020	0	0	0	
3	0	0	0	0	487	444	1020	0	0	0	
4	0	0	0	0	487	442	1021	0	0	0	
5	0	0	0	0	489	442	1021	0	0	0	
6	0	0	0	0	496	447	1021	0	0	0	
7	0	0	0	0	505	453	1021	0	0	0	
8	0	0	0	0	515	461	1021	0	0	0	
9	0	0	0	0	527	470	1021	0	0	0	
10	0	0	0	0	539	480	1021	0	0	0	
11	0	0	0	0	550	488	1020	0	0	0	
12	0	0	0	0	560	496	1021	0	0	0	
13	0	0	0	0	567	503	1021	0	0	0	
14	0	0	0	0	572	508	1021	0	0	0	
15	0	0	0	0	574	511	1021	0	0	0	
0	0	0	0	0	574	511	1021	0	0	0	
1	0	0	0	0	571	510	1021	0	0	0	
2	0	0	0	0	567	507	1021	0	0	0	
3	0	0	0	0	561	503	1021	0	0	0	
4	0	0	0	0	555	499	1021	0	0	0	
5	0	0	0	0	549	493	1021	0	0	0	
6	0	0	0	0	542	489	1020	0	0	0	
7	0	0	0	0	537	484	1021	0	0	0	
8	0	0	0	0	533	481	1021	0	0	0	
9	0	0	0	0	530	479	1021	0	0	0	
10	0	0	0	0	529	479	1021	0	0	0	
11	0	0	0	0	530	479	1021	0	0	0	
12	0	0	0	0	531	480	1021	0	0	0	
13	0	0	0	0	534	483	1021	0	0	0	
14	0	0	0	0	538	486	1021	0	0	0	
15	0	0	0	0	543	489	1021	0	0	0	
0	0	0	0	0	547	493	1021	0	0	0	
1	0	0	0	0	551	496	1021	0	0	0	
2	0	0	0	0	555	499	1021	0	0	0	
3	0	0	0	0	558	502	1021	0	0	0	
4	0	0	0	0	560	502	1020	0	0	0	
5	0	0	0	0	561	502	1021	0	0	0	
6	0	0	0	0	560	501	1021	0	0	0	
7	0	0	0	0	560	500	1021	0	0	0	
8	0	0	0	0	560	500	1021	0	0	0	
9	0	0	0	0	559	499	1021	0	0	0	
10	0	0	0	0	559	499	1021	0	0	0	
11	0	0	0	0	559	499	1020	0	0	0	
12	0	0	0	0	560	500	1021	0	0	0	
13	0	0	0	0	560	500	1021	0	0	0	
14	0	0	0	0	560	502	1021	0	0	0	
15	0	0	0	0	560	502	1021	0	0	0	
0	0	0	0	0	561	504	1021	0	0	0	
1	0	0	0	0	561	505	1021	0	0	0	
2	0	0	0	0	561	507	1021	0	0	0	
3	0	0	0	0	562	508	1021	0	0	0	
4	0	0	0	0	562	509	1021	0	0	0	
5	0	0	0	0	563	510	1021	0	0	0	
6	0	0	0	0	562	510	1021	0	0	0	
7	0	0	0	0	560	509	1021	0	0	0	
8	0	0	0	0	558	507	1021	0	0	0	
9	0	0	0	0	555	504	1021	0	0	0	
10	0	0	0	0	550	499	1020	0	0	0	
11	0	0	0	0	547	495	1021	0	0	0	
12	0	0	0	0	542	490	1021	0	0	0	
13	0	0	0	0	538	485	1020	0	0	0	
14	0	0	0	0	535	481	1021	0	0	0	
15	0	0	0	0	533	478	1021	0	0	0	
0	0	0	0	0	533	477	1021	0	0	0	
1	0	0	0	0	536	478	1021	0	0	0	
2	0	0	0	0	540	481	1021	0	0	0	
3	0	0	0	0	546	485	1021	1	0	0	
4	0	0	0	0	553	491	1021	0	0	0	
5	0	0	0	0	561	497	1021	0	0	0	
6	0	0	0	0	568	504	1021	0	0	0	
7	0	0	0	0	574	510	1020	0	0	0	
8	0	0	0	0	578	514	1021	0	0	0	
9	0	0	0	0	579	518	1021	0	0	0	
10	0	0	0	0	581	520	1021	0	0	0	
11	0	0	0	0	579	520	1021	0	0	0	
12	0	0	0	0	576	519	1020	0	0	0	
13	0	0	0	0	570	515	1021	0	0	0	
14	0	0	0	0	563	509	1021	0	0	0	
15	0	0	0	0	554	502	1021	0	0	0	
0	0	0	0	0	545	494	1021	0	0	0	
1	0	0	0	0	536	486	1021	0	0	0	
2	0	0	0	0	526	477	1021	0	0	0	
3	0	0	0	0	518	470	1021	0	0	0	
4	0	0	0	0	512	465	1021	0	0	0	
5	0	0	0	0	510	462	1021	0	0	0	
6	0	0	0	0	509	461	1021	0	0	0	
7	0	0	0	0	512	464	1020	0	0	0	
8	0	0	0	0	518	468	1021	0	0	0	
9	0	0	0	0	526	476	1021	0	0	0	
10	0	0	0	0	536	483	1021	0	0	0	
11	0	0	0	0	546	492	1021	0	0	0	
12	0	0	0	0	556	499	1021	0	0	0	
13	0	0	0	0	563	505	1021	0	0	0	
14	0	0	0	0	569	510	1021	0	0	0	
15	0	0	0	0	572	511	1021	0	0	0	
0	0	0	0	0	572	510	1021	0	0	0	
1	0	0	0	0	568	507	1021	0	0	0	
2	0	0	0	0	563	502	1021	0	0	0	
3	0	0	0	0	556	497	1021	0	0	0	
4	0	0	0	0	548	490	1021	0	0	0	
5	0	0	0	0	541	484	1021	0	0	0	
6	0	0	0	0	533	478	1020	0	0	0	
7	0	0	0	0	528	475	1021	0	0	0	
8	0	0	0	0	525	473	1021	0	0	0	
9	0	0	0	0	524	472	1021	0	0	0	
10	0	0	0	0	526	475	1021	0	0	0	
11	0	0	0	0	530	479	1021	0	0	0	
12	0	0	0	0	536	485	1021	0	0	0	
13	0	0	0	0	545	493	1021	0	0	0	
14	0	0	0	0	554	500	1021	0	0	0	
15	0	0	0	0	563	508	1021	0	0	0	
0	0	0	0	0	572	515	1021	0	0	0	
1	0	0	0	0	579	521	1021	0	0	0	
2	0	0	0	0	584	526	1021	0	0	0	
3	0	0	0	0	588	528	1021	0	0	0	
4	0	0	0	0	588	527	1020	0	0	0	
5	0	0	0	0	586	526	1021	0	0	0	
6	0	0	0	0	582	523	1021	0	0	0	
7	0	0	0	0	578	519	1021	0	0	0	
8	0	0	0	0	573	514	1021	0	0	0	
9	0	0	0	0	568	511	1021	0	0	0	
10	0	0	0	0	564	508	1021	0	0	0	
11	0	0	0	0	561	506	1020	0	0	0	
12	0	0	0	0	561	506	1021	0	0	0	
13	0	0	0	0	561	507	1021	0	0	0	
14	0	0	0	0	562	508	1021	0	0	0	
15	0	0	0	0	564	510	1021	0	0	0	
0	0	0	0	0	566	512	1021	0	0	0	
1	0	0	0	0	567	513	1021	0	0	0	
2	0	0	0	0	567	513	1021	0	0	0	
3	0	0	0	0	566	512	1021	0	0	0	
4	0	0	0	0	564	510	1020	0	0	0	
5	0	0	0	0	561	508	1021	0	0	0	
6	0	0	0	0	558	505	1021	0	0	0	
7	0	0	0	0	555	502	1021	0	0	0	
8	0	0	0	0	550	498	1020	0	0	0	
9	0	0	0	0	546	494	1021	0	0	0	
10	0	0	0	0	541	489	1021	0	0	0	
11	0	0	0	0	537	485	1021	0	0	0	
12	0	0	0	0	533	480	1021	0	0	0	
13	0	0	0	0	530	476	1020	0	0	0	
14	0	0	0	0	527	473	1021	0	0	0	
15	0	0	0	0	525	471	1021	0	0	0	
0	0	0	0	0	525	471	1021	0	0	0	
1	0	0	0	0	526	471	1021	0	0	0	
2	0	0	0	0	529	474	1021	0	0	0	
3	0	0	0	0	533	478	1021	0	0	0	
4	0	0	0	0	539	483	1021	0	0	0	
5	0	0	0	0	545	489	1021	0	0	0	
6	0	0	0	0	551	495	1021	0	0	0	
7	0	0	0	0	558	502	1021	0	0	0	
8	0	0	0	0	565	508	1021	0	0	0	
9	0	0	0	0	570	513	1021	0	0	0	
10	0	0	0	0	575	519	1021	0	0	0	
11	0	0	0	0	579	521	1021	0	0	0	
12	0	0	0	0	580	523	1021	0	0	0	
13	0	0	0	0	580	521	1021	0	0	0	
14	0	0	0	0	578	519	1021	0	0	0	
15	0	0	0	0	576	516	1021	0	0	0	
0	0	0	0	0	572	511	1021	0	0	0	
1	0	0	0	0	568	506	1021	0	0	0	
2	0	0	0	0	562	499	1021	0	0	0	
3	0	0	0	0	557	495	1021	0	0	0	
4	0	0	0	0	552	490	1021	0	0	0	
5	0	0	0	0	549	487	1021	0	0	0	
6	0	0	0	0	547	486	1021	0	0	0	
7	0	0	0	0	547	486	1021	0	0	0	
8	0	0	0	0	547	487	1021	0	0	0	
9	0	0	0	0	550	491	1021	0	0	0	
10	0	0	0	0	553	495	1021	0	0	0	
11	0	0	0	0	557	501	1021	0	0	0	
12	0	0	0	0	561	505	1021	0	0	0	
13	0	0	0	0	564	510	1021	0	0	0	
14	0	0	0	0	567	513	1021	0	0	0	
15	0	0	0	0	568	515	1021	0	0	0	
0	0	0	0	0	568	515	1021	0	0	0	
1	0	0	0	0	565	512	1021	0	0	0	
2	0	0	0	0	561	508	1021	0	0	0	
3	0	0	0	0	555	502	1021	0	0	0	
4	0	0	0	0	547	495	1021	0	0	0	
5	0	0	0	0	540	487	1021	0	0	0	
6	0	0	0	0	532	480	1021	0	0	0	
7	0	0	0	0	527	476	1021	0	0	0	
8	0	0	0	0	525	473	1021	0	0	0	
9	0	0	0	0	526	474	1021	0	0	0	
10	0	0	0	0	529	478	1021	0	0	0	
11	0	0	0	0	536	483	1021	0	0	0	
12	0	0	0	0	544	490	1021	0	0	0	
13	0	0	0	0	554	499	1021	0	0	0	
14	0	0	0	0	563	507	1021	0	0	0	
15	0	0	0	0	572	515	1021	0	0	0	
0	0	0	0	0	578	520	1021	0	0	0	
1	0	0	0	0	582	524	1021	0	0	0	
2	0	0	0	0	583	526	1021	0	0	0	
3	0	0	0	0	580	524	1021	0	0	0	
4	0	0	0	0	575	519	1021	0	0	0	
5	0	0	0	0	568	513	1021	0	0	0	
6	0	0	0	0	558	505	1021	0	0	0	
7	0	0	0	0	549	497	1021	0	0	0	
8	0	0	0	0	540	488	1021	0	0	0	
9	0	0	0	0	531	481	1021	0	0	0	
10	0	0	0	0	525	475	1021	0	0	0	
11	0	0	0	0	520	470	1021	0	0	0	
12	0	0	0	0	519	468	1021	0	0	0	
13	0	0	0	0	520	468	1021	0	0	0	
14	0	0	0	0	525	471	1021	0	0	0	
15	0	0	0	0	531	475	1021	0	0	0	
0	0	0	0	0	539	481	1021	0	0	0	
1	0	0	0	0	547	487	1021	0	0	0	
2	0	0	0	0	555	494	1021	0	0	0	
3	0	0	0	0	562	500	1020	0	0	0	
4	0	0	0	0	568	505	1021	0	0	0	
5	0	0	0	0	572	509	1021	0	0	0	
6	0	0	0	0	575	512	1021	0	0	0	
7	0	0	0	0	575	513	1021	0	0	0	
8	0	0	0	0	573	512	1021	0	0	0	
9	0	0	0	0	569	510	1021	0	0	0	
10	0	0	0	0	565	507	1021	0	0	0	
11	0	0	0	0	560	503	1021	0	0	0	
12	0	0	0	0	555	499	1021	0	0	0	
13	0	0	0	0	551	496	1021	0	0	0	
14	0	0	0	0	547	493	1021	0	0	0	
15	0	0	0	0	546	492	1021	0	0	0	
0	0	0	0	0	547	492	1021	0	0	0	
1	0	0	0	0	549	494	1021	0	0	0	
2	0	0	0	0	552	496	1020	0	0	0	
3	0	0	0	0	557	499	1021	0	0	0	
4	0	0	0	0	560	503	1021	0	0	0	
5	0	0	0	0	564	507	1021	0	0	0	
6	0	0	0	0	568	510	1021	0	0	0	
7	0	0	0	0	569	512	1020	0	0	0	
8	0	0	0	0	570	514	1021	0	0	0	
9	0	0	0	0	570	515	1021	0	0	0	
10	0	0	0	0	569	515	1021	0	0	0	
11	0	0	0	0	566	513	1021	0	0	0	
12	0	0	0	0	562	509	1021	0	0	0	
13	0	0	0	0	556	504	1021	0	0	0	
14	0	0	0	0	549	497	1021	0	0	0	
15	0	0	0	0	542	490	1021	0	0	0	
0	0	0	0	0	534	482	1021	0	0	0	
1	0	0	0	0	528	475	1021	0	0	0	
2	0	0	0	0	522	469	1021	0	0	0	
3	0	0	0	0	518	464	1021	0	0	0	
4	0	0	0	0	518	463	1021	0	0	0	
5	0	0	0	0	519	464	1021	0	0	0	
6	0	0	0	0	524	467	1020	0	0	0	
7	0	0	0	0	532	474	1021	0	0	0	
8	0	0	0	0	541	483	1021	0	0	0	
9	0	0	0	0	553	494	1021	0	0	0	
10	0	0	0	0	564	504	1021	0	0	0	
11	0	0	0	0	575	515	1021	0	0	0	
12	0	0	0	0	585	524	1021	0	0	0	
13	0	0	0	0	592	531	1021	0	0	0	
14	0	0	0	0	598	537	1021	0	0	0	
15	0	0	0	0	600	540	1021	0	0	0	
0	0	0	0	0	600	541	1021	0	0	0	
1	0	0	0	0	596	539	1021	0	0	0	
2	0	0	0	0	591	535	1021	0	0	0	
3	0	0	0	0	583	529	1021	0	0	0	
4	0	0	0	0	575	523	1021	0	0	0	
5	0	0	0	0	568	515	1020	0	0	0	
6	0	0	0	0	560	509	1021	0	0	0	
7	0	0	0	0	553	503	1021	0	0	0	
8	0	0	0	0	550	499	1021	0	0	0	
9	0	0	0	0	548	497	1021	0	0	0	
10	0	0	0	0	548	497	1021	0	0	0	
11	0	0	0	0	549	497	1021	0	0	0	
12	0	0	0	0	552	500	1021	0	0	0	
13	0	0	0	0	556	504	1021	0	0	0	
14	0	0	0	0	560	506	1021	0	0	0	
15	0	0	0	0	563	509	1021	0	0	0	
0	0	0	0	0	564	510	1021	0	0	0	
1	0	0	0	0	563	510	1021	0	0	0	
2	0	0	0	0	561	508	1021	0	0	0	
3	0	0	0	0	556	504	1021	0	0	0	
4	0	0	0	0	551	499	1020	0	0	0	
5	0	0	0	0	543	492	1021	0	0	0	
6	0	0	0	0	535	486	1021	0	0	0	
7	0	0	0	0	527	478	1021	0	0	0	
8	0	0	0	0	519	472	1021	0	0	0	
9	0	0	0	0	513	466	1021	0	0	0	
10	0	0	0	0	508	461	1021	0	0	0	
11	0	0	0	0	505	459	1021	0	0	0	
12	0	0	0	0	507	459	1021	0	0	0	
13	0	0	0	0	510	462	1021	0	0	0	
14	0	0	0	0	515	466	1021	0	0	0	
15	0	0	0	0	524	472	1020	0	0	0	
0	0	0	0	0	532	480	1021	0	0	0	
1	0	0	0	0	543	488	1021	0	0	0	
2	0	0	0	0	552	496	1021	0	0	0	
3	0	0	0	0	561	504	1021	0	0	0	
4	0	0	0	0	568	510	1021	0	0	0	
5	0	0	0	0	573	514	1021	0	0	0	
6	0	0	0	0	576	517	1021	0	0	0	
7	0	0	0	0	577	518	1021	0	0	0	
8	0	0	0	0	575	517	1021	0	0	0	
9	0	0	0	0	572	513	1021	0	0	0	
10	0	0	0	0	567	510	1021	0	0	0	
11	0	0	0	0	561	505	1021	0	0	0	
12	0	0	0	0	555	499	1021	0	0	0	
13	0	0	0	0	549	495	1021	0	0	0	
14	0	0	0	0	544	491	1021	0	0	0	
15	0	0	0	0	541	489	1021	0	0	0	
0	0	0	0	0	540	488	1021	0	0	0	
1	0	0	0	0	541	489	1021	0	0	0	
2	0	0	0	0	543	492	1021	0	0	0	
3	0	0	0	0	547	496	1021	0	0	0	
4	0	0	0	0	554	502	1021	0	0	0	
5	0	0	0	0	562	509	1021	0	0	0	
6	0	0	0	0	571	516	1021	0	0	0	
7	0	0	0	0	579	523	1021	0	0	0	
8	0	0	0	0	586	528	1021	0	0	0	
9	0	0	0	0	592	534	1021	0	0	0	
10	0	0	0	0	595	536	1021	0	0	0	
11	0	0	0	0	596	536	1021	0	0	0	
12	0	0	0	0	595	534	1021	0	0	0	
13	0	0	0	0	590	530	1021	0	0	0	
14	0	0	0	0	583	525	1021	0	0	0	
15	0	0	0	0	575	519	1021	0	0	0	
0	0	0	0	0	565	511	1021	0	0	0	
1	0	0	0	0	556	503	1021	0	0	0	
2	0	0	0	0	545	494	1021	0	0	0	
3	0	0	0	0	536	487	1021	0	0	0	
4	0	0	0	0	529	481	1021	0	0	0	
5	0	0	0	0	525	477	1021	0	0	0	
6	0	0	0	0	523	476	1021	0	0	0	
7	0	0	0	0	526	478	1021	0	0	0	
8	0	0	0	0	530	481	1021	0	0	0	
9	0	0	0	0	538	487	1021	0	0	0	
10	0	0	0	0	546	495	1021	0	0	0	
11	0	0	0	0	556	503	1021	0	0	0	
12	0	0	0	0	565	510	1021	0	0	0	
13	0	0	0	0	573	517	1021	0	0	0	
14	0	0	0	0	579	522	1021	0	0	0	
15	0	0	0	0	584	526	1021	0	0	0	
0	0	0	0	0	585	526	1021	0	0	0	
1	0	0	0	0	583	525	1021	0	0	0	
2	0	0	0	0	579	521	1021	0	0	0	
3	0	0	0	0	573	516	1021	0	0	0	
4	0	0	0	0	565	509	1021	0	0	0	
5	0	0	0	0	558	502	1021	0	0	0	
6	0	0	0	0	549	495	1021	0	0	0	
7	0	0	0	0	543	490	1021	0	0	0	
8	0	0	0	0	538	486	1021	0	0	0	
9	0	0	0	0	536	484	1021	0	0	0	
10	0	0	0	0	536	485	1021	0	0	0	
11	0	0	0	0	538	487	1021	0	0	0	
12	0	0	0	0	541	490	1021	0	0	0	
13	0	0	0	0	546	496	1021	0	0	0	
14	0	0	0	0	551	500	1021	0	0	0	
15	0	0	0	0	556	505	1021	0	0	0	
0	0	0	0	0	561	509	1020	0	0	0	
1	0	0	0	0	564	512	1021	0	0	0	
2	0	0	0	0	567	513	1021	0	0	0	
3	0	0	0	0	567	512	1021	0	0	0	
4	0	0	0	0	564	510	1021	0	0	0	
5	0	0	0	0	560	505	1021	0	0	0	
6	0	0	0	0	552	498	1021	0	0	0	
7	0	0	0	0	544	490	1021	0	0	0	
8	0	0	0	0	534	480	1021	0	0	0	
9	0	0	0	0	522	470	1021	0	0	0	
10	0	0	0	0	509	458	1021	0	0	0	
11	0	0	0	0	497	447	1021	0	0	0	
12	0	0	0	0	486	437	1021	0	0	0	
13	0	0	0	0	475	428	1021	0	0	0	
14	0	0	0	0	467	421	1021	0	0	0	
15	0	0	0	0	460	415	1021	0	0	0	
0	0	0	0	0	455	410	1021	0	0	0	
1	0	0	0	0	451	407	1021	0	0	0	
2	0	0	0	0	448	404	1021	0	0	0	
3	0	0	0	0	445	400	1021	0	0	0	
4	0	0	0	0	441	395	1021	0	0	0	
5	0	0	0	0	435	388	1021	0	0	0	
6	0	0	0	0	428	380	1021	0	0	0	
7	0	0	0	0	417	369	1021	0	0	0	
8	0	0	0	0	405	355	1021	0	0	0	
9	0	0	0	0	391	341	1021	0	0	0	
10	0	0	0	0	376	326	1021	0	0	0	
11	0	0	0	0	361	312	1021	0	0	0	
12	0	0	0	0	349	300	1021	0	0	0	
13	0	0	0	0	339	289	1021	0	0	0	
14	0	0	0	0	333	283	1021	0	0	0	
15	0	0	0	0	332	281	1021	0	0	0	
0	0	0	0	0	337	285	1021	0	0	0	
1	0	0	0	0	348	292	1021	0	0	0	
2	0	0	0	0	364	306	1021	0	0	0	
3	0	0	0	0	385	323	1021	0	0	0	
4	0	0	0	0	409	344	1021	0	0	0	
5	0	0	0	0	437	369	1021	0	0	0	
6	0	0	0	0	465	393	1021	0	0	0	
7	0	0	0	0	494	419	1021	0	0	0	
8	0	0	0	0	520	444	1021	0	0	0	
9	0	0	0	0	544	466	1021	0	0	0	
10	0	0	0	0	564	485	1021	0	0	0	
11	0	0	0	0	579	500	1021	0	0	0	
12	0	0	0	0	589	512	1021	0	0	0	
13	0	0	0	0	595	520	1021	0	0	0	
14	0	0	0	0	597	524	1021	0	0	0	
15	0	0	0	0	597	526	1021	0	0	0	
0	0	0	0	0	594	526	1021	0	0	0	
1	0	0	0	0	589	524	1021	0	0	0	
2	0	0	0	0	584	520	1021	0	0	0	
3	0	0	0	0	578	517	1021	0	0	0	
4	0	0	0	0	574	515	1021	0	0	0	
5	0	0	0	0	570	513	1021	0	0	0	
6	0	0	0	0	568	512	1021	0	0	0	
7	0	0	0	0	566	512	1021	0	0	0	
8	0	0	0	0	566	514	1021	0	0	0	
9	0	0	0	0	567	515	1021	0	0	0	
10	0	0	0	0	568	517	1021	0	0	0	
11	0	0	0	0	570	518	1021	0	0	0	
12	0	0	0	0	572	520	1021	0	0	0	
13	0	0	0	0	572	520	1021	0	0	0	
14	0	0	0	0	572	520	1021	0	0	0	
15	0	0	0	0	571	519	1021	0	0	0	
0	0	0	0	0	568	516	1020	0	0	0	
1	0	0	0	0	565	512	1021	0	0	0	
2	0	0	0	0	561	509	1021	0	0	0	
3	0	0	0	0	558	505	1021	0	0	0	
4	0	0	0	0	554	501	1021	0	0	0	
5	0	0	0	0	551	497	1021	0	0	0	
6	0	0	0	0	547	495	1020	0	0	0	
7	0	0	0	0	546	493	1021	0	0	0	
8	0	0	0	0	545	493	1021	0	0	0	
9	0	0	0	0	547	494	1021	0	0	0	
10	0	0	0	0	549	496	1020	0	0	0	
11	0	0	0	0	553	500	1021	0	0	0	
12	0	0	0	0	557	504	1021	0	0	0	
13	0	0	0	0	563	510	1021	0	0	0	
14	0	0	0	0	568	515	1021	0	0	0	
15	0	0	0	0	574	519	1020	0	0	0	
0	0	0	0	0	578	524	1021	0	0	0	
1	0	0	0	0	582	527	1021	0	0	0	
2	0	0	0	0	585	531	1021	0	0	0	
3	0	0	0	0	587	532	1021	0	0	0	
4	0	0	0	0	588	532	1021	0	0	0	
5	0	0	0	0	586	532	1020	0	0	0	
6	0	0	0	0	585	530	1021	0	0	0	
7	0	0	0	0	582	527	1021	0	0	0	
8	0	0	0	0	579	524	1021	0	0	0	
9	0	0	0	0	575	519	1021	0	0	0	
10	0	0	0	0	571	515	1021	0	0	0	
11	0	0	0	0	566	510	1021	0	0	0	
12	0	0	0	0	562	507	1021	0	0	0	
13	0	0	0	0	559	503	1021	0	0	0	
14	0	0	0	0	556	502	1021	0	0	0	
15	0	0	0	0	555	501	1021	0	0	0	
0	0	0	0	0	556	503	1021	0	0	0	
1	0	0	0	0	558	505	1021	0	0	0	
2	0	0	0	0	561	510	1021	0	0	0	
3	0	0	0	0	566	514	1021	0	0	0	
4	0	0	0	0	572	520	1021	0	0	0	
5	0	0	0	0	577	525	1021	0	0	0	
6	0	0	0	0	582	529	1021	0	0	0	
7	0	0	0	0	585	532	1021	0	0	0	
8	0	0	0	0	587	534	1020	0	0	0	
9	0	0	0	0	588	534	1021	0	0	0	
10	0	0	0	0	587	533	1021	0	0	0	
11	0	0	0	0	585	532	1021	0	0	0	
12	0	0	0	0	583	529	1021	0	0	0	
13	0	0	0	0	578	525	1020	0	0	0	
14	0	0	0	0	573	520	1021	0	0	0	
15	0	0	0	0	568	516	1021	0	0	0	
0	0	0	0	0	562	511	1021	0	0	0	
1	0	0	0	0	558	507	1021	0	0	0	
2	0	0	0	0	554	504	1021	0	0	0	
3	0	0	0	0	551	503	1021	0	0	0	
4	0	0	0	0	550	502	1021	0	0	0	
5	0	0	0	0	550	502	1021	0	0	0	
6	0	0	0	0	551	503	1021	0	0	0	
7	0	0	0	0	553	504	1021	0	0	0	
8	0	0	0	0	556	506	1021	0	0	0	
9	0	0	0	0	558	508	1021	0	0	0	
10	0	0	0	0	560	509	1021	0	0	0	
11	0	0	0	0	561	509	1021	0	0	0	
12	0	0	0	0	561	508	1021	0	0	0	
13	0	0	0	0	561	507	1021	0	0	0	
14	0	0	0	0	559	504	1021	0	0	0	
15	0	0	0	0	558	501	1021	0	0	0	
0	0	0	0	0	555	497	1021	0	0	0	
1	0	0	0	0	551	494	1021	0	0	0	
2	0	0	0	0	548	490	1021	0	0	0	
3	0	0	0	0	545	487	1021	0	0	0	
4	0	0	0	0	543	486	1021	0	0	0	
5	0	0	0	0	543	486	1021	0	0	0	
6	0	0	0	0	544	487	1021	0	0	0	
7	0	0	0	0	547	490	1020	0	0	0	
8	0	0	0	0	551	495	1021	0	0	0	
9	0	0	0	0	557	502	1021	0	0	0	
10	0	0	0	0	564	508	1021	0	0	0	
11	0	0	0	0	571	515	1020	0	0	0	
12	0	0	0	0	578	522	1021	0	0	0	
13	0	0	0	0	583	527	1021	0	0	0	
14	0	0	0	0	589	533	1021	0	0	0	
15	0	0	0	0	592	536	1021	0	0	0	
0	0	0	0	0	592	536	1021	0	0	0	
1	0	0	0	0	591	535	1021	0	0	0	
2	0	0	0	0	587	531	1021	0	0	0	
3	0	0	0	0	581	526	1021	0	0	0	
4	0	0	0	0	573	519	1021	0	0	0	
5	0	0	0	0	565	512	1021	0	0	0	
6	0	0	0	0	556	504	1021	0	0	0	
7	0	0	0	0	548	497	1021	0	0	0	
8	0	0	0	0	541	492	1021	0	0	0	
9	0	0	0	0	536	488	1021	0	0	0	
10	0	0	0	0	532	486	1020	0	0	0	
11	0	0	0	0	531	485	1021	0	0	0	
12	0	0	0	0	531	485	1021	0	0	0	
13	0	0	0	0	535	487	1021	0	0	0	
14	0	0	0	0	539	490	1021	0	0	0	
15	0	0	0	0	543	494	1021	0	0	0	
0	0	0	0	0	548	497	1021	0	0	0	
1	0	0	0	0	554	501	1021	0	0	0	
2	0	0	0	0	559	504	1021	0	0	0	
3	0	0	0	0	562	505	1021	0	0	0	
4	0	0	0	0	563	506	1021	0	0	0	
5	0	0	0	0	562	504	1021	0	0	0	
6	0	0	0	0	559	502	1021	0	0	0	
7	0	0	0	0	556	498	1021	0	0	0	
8	0	0	0	0	550	493	1021	0	0	0	
9	0	0	0	0	543	488	1021	0	0	0	
10	0	0	0	0	537	483	1021	0	0	0	
11	0	0	0	0	532	480	1021	0	0	0	
12	0	0	0	0	528	478	1021	0	0	0	
13	0	0	0	0	527	478	1021	0	0	0	
14	0	0	0	0	528	480	1021	0	0	0	
15	0	0	0	0	531	485	1021	0	0	0	
0	0	0	0	0	537	491	1021	0	0	0	
1	0	0	0	0	546	499	1021	0	0	0	
2	0	0	0	0	555	508	1021	0	0	0	
3	0	0	0	0	565	516	1021	0	0	0	
4	0	0	0	0	574	525	1021	0	0	0	
5	0	0	0	0	582	531	1021	0	0	0	
6	0	0	0	0	587	536	1021	0	0	0	
7	0	0	0	0	589	537	1021	0	0	0	
8	0	0	0	0	587	535	1021	0	0	0	
9	0	0	0	0	580	529	1020	0	0	0	
10	0	0	0	0	572	521	1021	0	0	0	
11	0	0	0	0	563	512	1021	0	0	0	
12	0	0	0	0	551	501	1021	0	0	0	
13	0	0	0	0	540	491	1021	0	0	0	
14	0	0	0	0	529	481	1021	0	0	0	
15	0	0	0	0	521	474	1021	0	0	0	
0	0	0	0	0	515	468	1021	0	0	0	
1	0	0	0	0	512	466	1021	0	0	0	
2	0	0	0	0	513	466	1020	0	0	0	
3	0	0	0	0	517	469	1021	0	0	0	
4	0	0	0	0	522	473	1021	0	0	0	
5	0	0	0	0	530	480	1021	0	0	0	
6	0	0	0	0	539	487	1021	0	0	0	
7	0	0	0	0	548	494	1020	0	0	0	
8	0	0	0	0	557	502	1021	0	0	0	
9	0	0	0	0	565	509	1021	0	0	0	
10	0	0	0	0	572	515	1021	0	0	0	
11	0	0	0	0	577	519	1021	0	0	0	
12	0	0	0	0	581	521	1021	0	0	0	
13	0	0	0	0	581	521	1021	0	0	0	
14	0	0	0	0	580	519	1021	0	0	0	
15	0	0	0	0	576	516	1021	0	0	0	
0	0	0	0	0	571	511	1021	0	0	0	
1	0	0	0	0	563	505	1021	0	0	0	
2	0	0	0	0	556	498	1021	0	0	0	
3	0	0	0	0	547	492	1021	0	0	0	
4	0	0	0	0	541	487	1021	0	0	0	
5	0	0	0	0	536	484	1021	0	0	0	
6	0	0	0	0	534	483	1021	0	0	0	
7	0	0	0	0	533	483	1021	0	0	0	
8	0	0	0	0	535	486	1021	0	0	0	
9	0	0	0	0	540	491	1021	0	0	0	
10	0	0	0	0	546	496	1021	0	0	0	
11	0	0	0	0	552	502	1021	0	0	0	
12	0	0	0	0	559	508	1021	0	0	0	
13	0	0	0	0	565	513	1021	0	0	0	
14	0	0	0	0	571	517	1021	0	0	0	
15	0	0	0	0	573	519	1021	0	0	0	
0	0	0	0	0	574	518	1021	0	0	0	
1	0	0	0	0	571	515	1020	0	0	0	
2	0	0	0	0	565	509	1021	0	0	0	
3	0	0	0	0	558	502	1021	0	0	0	
4	0	0	0	0	548	493	1021	0	0	0	
5	0	0	0	0	538	483	1021	0	0	0	
6	0	0	0	0	528	474	1021	0	0	0	
7	0	0	0	0	519	465	1021	0	0	0	
8	0	0	0	0	512	460	1021	0	0	0	
9	0	0	0	0	508	456	1021	0	0	0	
10	0	0	0	0	508	455	1021	0	0	0	
11	0	0	0	0	510	457	1021	0	0	0	
12	0	0	0	0	514	463	1020	0	0	0	
13	0	0	0	0	521	469	1021	0	0	0	
14	0	0	0	0	531	478	1021	0	0	0	
15	0	0	0	0	540	486	1021	0	0	0	
0	0	0	0	0	549	495	1020	0	0	0	
1	0	0	0	0	558	502	1021	0	0	0	
2	0	0	0	0	565	510	1021	0	0	0	
3	0	0	0	0	571	514	1021	0	0	0	
4	0	0	0	0	575	517	1021	0	0	0	
5	0	0	0	0	576	518	1021	0	0	0	
6	0	0	0	0	575	517	1021	0	0	0	
7	0	0	0	0	572	514	1021	0	0	0	
8	0	0	0	0	567	510	1021	0	0	0	
9	0	0	0	0	561	504	1021	0	0	0	
10	0	0	0	0	554	498	1021	0	0	0	
11	0	0	0	0	547	493	1021	0	0	0	
12	0	0	0	0	542	488	1021	0	0	0	
13	0	0	0	0	539	486	1021	0	0	0	
14	0	0	0	0	537	485	1021	0	0	0	
15	0	0	0	0	538	486	1021	0	0	0	
0	0	0	0	0	541	489	1021	0	0	0	
1	0	0	0	0	546	493	1021	0	0	0	
2	0	0	0	0	552	498	1021	0	0	0	
3	0	0	0	0	557	502	1021	0	0	0	
4	0	0	0	0	561	505	1021	0	0	0	
5	0	0	0	0	565	508	1021	0	0	0	
6	0	0	0	0	568	509	1021	0	0	0	
7	0	0	0	0	568	509	1021	0	0	0	
8	0	0	0	0	566	507	1021	0	0	0	
9	0	0	0	0	561	502	1021	0	0	0	
10	0	0	0	0	555	497	1021	0	0	0	
11	0	0	0	0	548	491	1021	0	0	0	
12	0	0	0	0	541	484	1021	0	0	0	
13	0	0	0	0	534	479	1021	0	0	0	
14	0	0	0	0	528	474	1021	0	0	0	
15	0	0	0	0	524	471	1021	0	0	0	
0	0	0	0	0	522	470	1021	0	0	0	
1	0	0	0	0	523	471	1021	0	0	0	
2	0	0	0	0	527	475	1021	0	0	0	
3	0	0	0	0	534	481	1021	0	0	0	
4	0	0	0	0	542	489	1021	0	0	0	
5	0	0	0	0	552	497	1021	0	0	0	
6	0	0	0	0	561	506	1021	0	0	0	
7	0	0	0	0	570	512	1021	0	0	0	
8	0	0	0	0	575	517	1020	0	0	0	
9	0	0	0	0	579	519	1020	0	0	0	
10	0	0	0	0	579	519	1021	0	0	0	
11	0	0	0	0	575	516	1021	0	0	0	
12	0	0	0	0	569	510	1021	0	0	0	
13	0	0	0	0	560	502	1020	0	0	0	
14	0	0	0	0	550	493	1021	0	0	0	
15	0	0	0	0	540	483	1021	0	0	0	
0	0	0	0	0	529	475	1021	0	0	0	
1	0	0	0	0	519	467	1021	0	0	0	
2	0	0	0	0	513	460	1021	0	0	0	
3	0	0	0	0	508	455	1021	0	0	0	
4	0	0	0	0	507	454	1021	0	0	0	
5	0	0	0	0	508	454	1021	0	0	0	
6	0	0	0	0	511	457	1021	0	0	0	
7	0	0	0	0	518	462	1021	0	0	0	
8	0	0	0	0	525	469	1021	0	0	0	
9	0	0	0	0	535	476	1021	0	0	0	
10	0	0	0	0	544	485	1021	0	0	0	
11	0	0	0	0	553	493	1021	0	0	0	
12	0	0	0	0	561	501	1021	0	0	0	
13	0	0	0	0	568	509	1021	0	0	0	
14	0	0	0	0	575	515	1021	0	0	0	
15	0	0	0	0	578	518	1021	0	0	0	
0	0	0	0	0	578	519	1021	0	0	0	
1	0	0	0	0	577	519	1021	0	0	0	
2	0	0	0	0	573	516	1021	0	0	0	
3	0	0	0	0	567	511	1021	0	0	0	
4	0	0	0	0	559	505	1021	0	0	0	
5	0	0	0	0	551	497	1020	0	0	0	
6	0	0	0	0	542	490	1021	0	0	0	
7	0	0	0	0	532	482	1021	0	0	0	
8	0	0	0	0	524	475	1021	0	0	0	
9	0	0	0	0	517	469	1021	0	0	0	
10	0	0	0	0	512	465	1021	0	0	0	
11	0	0	0	0	509	463	1021	0	0	0	
12	0	0	0	0	509	462	1021	0	0	0	
13	0	0	0	0	511	465	1021	0	0	0	
14	0	0	0	0	515	467	1021	0	0	0	
15	0	0	0	0	521	472	1021	0	0	0	
0	0	0	0	0	527	476	1021	0	0	0	
1	0	0	0	0	534	481	1021	0	0	0	
2	0	0	0	0	541	486	1021	0	0	0	
3	0	0	0	0	546	489	1021	0	0	0	
4	0	0	0	0	550	491	1021	0	0	0	
5	0	0	0	0	553	492	1021	0	0	0	
6	0	0	0	0	553	491	1021	0	0	0	
7	0	0	0	0	552	489	1021	0	0	0	
8	0	0	0	0	551	487	1021	0	0	0	
9	0	0	0	0	548	485	1021	0	0	0	
10	0	0	0	0	545	483	1021	0	0	0	
11	0	0	0	0	543	480	1021	0	0	0	
12	0	0	0	0	542	481	1021	0	0	0	
13	0	0	0	0	541	481	1021	0	0	0	
14	0	0	0	0	543	484	1021	0	0	0	
15	0	0	0	0	545	487	1021	0	0	0	
0	0	0	0	0	550	493	1021	0	0	0	
1	0	0	0	0	555	499	1021	0	0	0	
2	0	0	0	0	561	505	1021	0	0	0	
3	0	0	0	0	566	511	1021	0	0	0	
4	0	0	0	0	571	516	1021	0	0	0	
5	0	0	0	0	575	519	1021	0	0	0	
6	0	0	0	0	577	522	1021	0	0	0	
7	0	0	0	0	577	522	1021	0	0	0	
8	0	0	0	0	575	521	1021	0	0	0	
9	0	0	0	0	572	517	1021	0	0	0	
10	0	0	0	0	566	512	1021	0	0	0	
11	0	0	0	0	561	507	1021	0	0	0	
12	0	0	0	0	555	501	1021	0	0	0	
13	0	0	0	0	550	496	1020	0	0	0	
14	0	0	0	0	545	491	1021	0	0	0	
15	0	0	0	0	542	488	1021	0	0	0	
0	0	0	0	0	542	487	1021	0	0	0	
1	0	0	0	0	542	487	1021	0	0	0	
2	0	0	0	0	544	488	1021	0	0	0	
3	0	0	0	0	548	490	1021	0	0	0	
4	0	0	0	0	551	494	1021	0	0	0	
5	0	0	0	0	556	499	1021	0	0	0	
6	0	0	0	0	560	503	1021	0	0	0	
7	0	0	0	0	562	505	1020	0	0	0	
8	0	0	0	0	563	506	1021	0	0	0	
9	0	0	0	0	561	506	1021	0	0	0	
10	0	0	0	0	559	505	1021	0	0	0	
11	0	0	0	0	555	501	1021	0	0	0	
12	0	0	0	0	549	496	1020	0	0	0	
13	0	0	0	0	542	491	1021	0	0	0	
14	0	0	0	0	535	485	1021	0	0	0	
15	0	0	0	0	529	479	1021	0	0	0	
0	0	0	0	0	523	473	1021	0	0	0	
1	0	0	0	0	519	470	1021	0	0	0	
2	0	0	0	0	517	466	1021	0	0	0	
3	0	0	0	0	516	465	1021	0	0	0	
4	0	0	0	0	519	465	1021	0	0	0	
5	0	0	0	0	523	468	1021	0	0	0	
6	0	0	0	0	529	472	1021	0	0	0	
7	0	0	0	0	536	478	1020	0	0	0	
8	0	0	0	0	543	484	1021	0	0	0	
9	0	0	0	0	550	491	1021	0	0	0	
10	0	0	0	0	555	496	1021	0	0	0	
11	0	0	0	0	559	500	1021	0	0	0	
12	0	0	0	0	560	503	1021	0	0	0	
13	0	0	0	0	559	504	1021	0	0	0	
14	0	0	0	0	557	502	1021	0	0	0	
15	0	0	0	0	553	499	1021	0	0	0	
0	0	0	0	0	547	495	1021	0	0	0	
1	0	0	0	0	541	489	1021	0	0	0	
2	0	0	0	0	533	483	1021	0	0	0	
3	0	0	0	0	527	477	1021	0	0	0	
4	0	0	0	0	520	471	1021	0	0	0	
5	0	0	0	0	515	465	1021	0	0	0	
6	0	0	0	0	511	461	1020	0	0	0	
7	0	0	0	0	509	459	1021	0	0	0	
8	0	0	0	0	509	457	1021	0	0	0	
9	0	0	0	0	510	458	1021	0	0	0	
10	0	0	0	0	513	460	1020	0	0	0	
11	0	0	0	0	517	464	1021	0	0	0	
12	0	0	0	0	522	468	1021	0	0	0	
13	0	0	0	0	528	475	1021	0	0	0	
14	0	0	0	0	534	481	1021	0	0	0	
15	0	0	0	0	540	487	1021	0	0	0	
0	0	0	0	0	546	493	1021	0	0	0	
1	0	0	0	0	551	498	1021	0	0	0	
2	0	0	0	0	555	502	1021	0	0	0	
3	0	0	0	0	558	504	1021	0	0	0	
4	0	0	0	0	558	504	1021	0	0	0	
5	0	0	0	0	557	503	1021	0	0	0	
6	0	0	0	0	555	500	1021	0	0	0	
7	0	0	0	0	551	496	1021	0	0	0	
8	0	0	0	0	546	492	1021	0	0	0	
9	0	0	0	0	542	487	1020	0	0	0	
10	0	0	0	0	537	483	1021	0	0	0	
11	0	0	0	0	533	478	1021	0	0	0	
12	0	0	0	0	530	476	1021	0	0	0	
13	0	0	0	0	528	475	1021	0	0	0	
14	0	0	0	0	528	476	1021	0	0	0	
15	0	0	0	0	530	477	1021	0	0	0	
0	0	0	0	0	532	481	1021	0	0	0	
1	0	0	0	0	537	486	1021	0	0	0	
2	0	0	0	0	542	491	1021	0	0	0	
3	0	0	0	0	546	496	1021	0	0	0	
4	0	0	0	0	550	500	1021	0	0	0	
5	0	0	0	0	553	504	1021	0	0	0	
6	0	0	0	0	556	506	1021	0	0	0	
7	0	0	0	0	557	506	1021	0	0	0	
8	0	0	0	0	556	505	1021	0	0	0	
9	0	0	0	0	554	501	1021	0	0	0	
10	0	0	0	0	550	497	1021	0	0	0	
11	0	0	0	0	545	492	1021	0	0	0	
12	0	0	0	0	540	486	1021	0	0	0	
13	0	0	0	0	536	481	1021	0	0	0	
14	0	0	0	0	533	477	1021	0	0	0	
15	0	0	0	0	531	475	1021	0	0	0	
0	0	0	0	0	531	475	1021	0	0	0	
1	0	0	0	0	533	476	1021	0	0	0	
2	0	0	0	0	537	480	1021	0	0	0	
3	0	0	0	0	543	484	1021	0	0	0	
4	0	0	0	0	549	492	1021	0	0	0	
5	0	0	0	0	556	498	1021	0	0	0	
6	0	0	0	0	563	504	1021	0	0	0	
7	0	0	0	0	568	510	1021	0	0	0	
8	0	0	0	0	571	513	1021	0	0	0	
9	0	0	0	0	573	516	1021	0	0	0	
10	0	0	0	0	573	517	1021	0	0	0	
11	0	0	0	0	571	515	1021	0	0	0	
12	0	0	0	0	567	512	1021	0	0	0	
13	0	0	0	0	561	507	1021	0	0	0	
14	0	0	0	0	555	502	1020	0	0	0	
15	0	0	0	0	548	497	1021	0	0	0	
0	0	0	0	0	542	491	1021	0	0	0	
1	0	0	0	0	536	485	1021	0	0	0	
2	0	0	0	0	530	480	1020	0	0	0	
3	0	0	0	0	525	476	1021	0	0	0	
4	0	0	0	0	522	472	1021	0	0	0	
5	0	0	0	0	520	471	1021	0	0	0	
6	0	0	0	0	520	471	1021	0	0	0	
7	0	0	0	0	521	472	1020	0	0	0	
8	0	0	0	0	524	473	1020	0	0	0	
9	0	0	0	0	527	476	1021	0	0	0	
10	0	0	0	0	530	480	1021	0	0	0	
11	0	0	0	0	534	483	1020	0	0	0	
12	0	0	0	0	538	487	1021	0	0	0	
13	0	0	0	0	541	490	1021	0	0	0	
14	0	0	0	0	544	493	1021	0	0	0	
15	0	0	0	0	547	495	1021	0	0	0	
0	0	0	0	0	548	496	1021	0	0	0	
1	0	0	0	0	549	496	1021	0	0	0	
2	0	0	0	0	549	495	1021	0	0	0	
3	0	0	0	0	548	494	1021	0	0	0	
4	0	0	0	0	547	492	1021	0	0	0	
5	0	0	0	0	546	491	1021	0	0	0	
6	0	0	0	0	544	488	1021	0	0	0	
7	0	0	0	0	542	485	1021	0	0	0	
8	0	0	0	0	540	483	1021	0	0	0	
9	0	0	0	0	538	481	1021	0	0	0	
10	0	0	0	0	537	481	1020	0	0	0	
11	0	0	0	0	538	483	1021	0	0	0	
12	0	0	0	0	540	485	1021	0	0	0	
13	0	0	0	0	544	490	1021	0	0	0	
14	0	0	0	0	548	494	1021	0	0	0	
15	0	0	0	0	552	499	1021	0	0	0	
0	0	0	0	0	556	502	1021	0	0	0	
1	0	0	0	0	559	504	1021	0	0	0	
2	0	0	0	0	561	506	1021	0	0	0	
3	0	0	0	0	560	505	1021	0	0	0	
4	0	0	0	0	558	503	1021	0	0	0	
5	0	0	0	0	552	499	1020	0	0	0	
6	0	0	0	0	547	493	1020	0	0	0	
7	0	0	0	0	542	487	1021	0	0	0	
8	0	0	0	0	535	480	1021	0	0	0	
9	0	0	0	0	529	475	1020	0	0	0	
10	0	0	0	0	526	471	1021	0	0	0	
11	0	0	0	0	523	468	1021	0	0	0	
12	0	0	0	0	523	468	1021	0	0	0	
13	0	0	0	0	525	470	1021	0	0	0	
14	0	0	0	0	528	472	1021	0	0	0	
15	0	0	0	0	533	477	1021	0	0	0	
0	0	0	0	0	539	482	1021	0	0	0	
1	0	0	0	0	545	488	1021	0	0	0	
2	0	0	0	0	551	494	1021	0	0	0	
3	0	0	0	0	556	499	1021	0	0	0	
4	0	0	0	0	560	503	1021	0	0	0	
5	0	0	0	0	561	505	1021	0	0	0	
6	0	0	0	0	562	507	1021	0	0	0	
7	0	0	0	0	561	507	1021	0	0	0	
8	0	0	0	0	558	504	1021	0	0	0	
9	0	0	0	0	553	500	1021	0	0	0	
10	0	0	0	0	547	495	1021	0	0	0	
11	0	0	0	0	540	489	1021	0	0	0	
12	0	0	0	0	533	483	1021	0	0	0	
13	0	0	0	0	526	477	1021	0	0	0	
14	0	0	0	0	520	471	1021	0	0	0	
15	0	0	0	0	515	467	1021	0	0	0	
0	0	0	0	0	512	464	1021	0	0	0	
1	0	0	0	0	512	463	1021	0	0	0	
2	0	0	0	0	513	464	1021	0	0	0	
3	0	0	0	0	516	466	1021	0	0	0	
4	0	0	0	0	520	470	1020	0	0	0	
5	0	0	0	0	526	475	1021	0	0	0	
6	0	0	0	0	533	480	1021	0	0	0	
7	0	0	0	0	540	486	1021	0	0	0	
8	0	0	0	0	547	492	1020	0	0	0	
9	0	0	0	0	553	497	1021	0	0	0	
10	0	0	0	0	558	501	1021	0	0	0	
11	0	0	0	0	560	503	1021	0	0	0	
12	0	0	0	0	560	503	1021	0	0	0	
13	0	0	0	0	558	501	1021	0	0	0	
14	0	0	0	0	554	498	1021	0	0	0	
15	0	0	0	0	549	494	1021	0	0	0	
0	0	0	0	0	543	489	1021	0	0	0	
1	0	0	0	0	537	484	1021	0	0	0	
2	0	0	0	0	531	479	1021	0	0	0	
3	0	0	0	0	527	476	1021	0	0	0	
4	0	0	0	0	524	473	1021	0	0	0	
5	0	0	0	0	521	471	1021	0	0	0	
6	0	0	0	0	520	470	1021	0	0	0	
7	0	0	0	0	521	471	1021	0	0	0	
8	0	0	0	0	524	473	1021	0	0	0	
9	0	0	0	0	528	477	1021	0	0	0	
10	0	0	0	0	533	481	1021	0	0	0	
11	0	0	0	0	539	486	1021	0	0	0	
12	0	0	0	0	544	490	1021	0	0	0	
13	0	0	0	0	549	495	1021	0	0	0	
14	0	0	0	0	554	498	1021	0	0	0	
15	0	0	0	0	558	500	1021	0	0	0	
0	0	0	0	0	560	501	1021	0	0	0	
1	0	0	0	0	560	500	1021	0	0	0	
2	0	0	0	0	559	499	1021	0	0	0	
3	0	0	0	0	558	497	1021	0	0	0	
4	0	0	0	0	556	495	1021	0	0	0	
5	0	0	0	0	553	493	1021	0	0	0	
6	0	0	0	0	551	491	1021	0	0	0	
7	0	0	0	0	550	491	1021	0	0	0	
8	0	0	0	0	550	491	1021	0	0	0	
9	0	0	0	0	550	492	1021	0	0	0	
10	0	0	0	0	551	493	1021	0	0	0	
11	0	0	0	0	553	496	1021	0	0	0	
12	0	0	0	0	556	499	1021	0	0	0	
13	0	0	0	0	559	502	1021	0	0	0	
14	0	0	0	0	561	505	1021	0	0	0	
15	0	0	0	0	564	508	1021	0	0	0	
0	0	0	0	0	565	510	1021	0	0	0	
1	0	0	0	0	565	511	1021	0	0	0	
2	0	0	0	0	563	510	1021	0	0	0	
3	0	0	0	0	559	507	1021	0	0	0	
4	0	0	0	0	553	501	1021	0	0	0	
5	0	0	0	0	546	495	1021	0	0	0	
6	0	0	0	0	537	487	1021	0	0	0	
7	0	0	0	0	529	480	1021	0	0	0	
8	0	0	0	0	520	471	1021	0	0	0	
9	0	0	0	0	513	463	1020	0	0	0	
10	0	0	0	0	507	457	1021	0	0	0	
11	0	0	0	0	504	453	1021	0	0	0	
12	0	0	0	0	504	452	1021	0	0	0	
13	0	0	0	0	506	454	1021	0	0	0	
14	0	0	0	0	512	458	1021	0	0	0	
15	0	0	0	0	520	464	1021	0	0	0	
0	0	0	0	0	530	473	1021	0	0	0	
1	0	0	0	0	542	481	1021	0	0	0	
2	0	0	0	0	552	491	1021	0	0	0	
3	0	0	0	0	561	498	1021	0	0	0	
4	0	0	0	0	566	503	1021	0	0	0	
5	0	0	0	0	568	505	1021	0	0	0	
6	0	0	0	0	566	504	1021	0	0	0	
7	0	0	0	0	559	499	1021	0	0	0	
8	0	0	0	0	548	489	1021	0	0	0	
9	0	0	0	0	532	477	1020	0	0	0	
10	0	0	0	0	515	463	1021	0	0	0	
11	0	0	0	0	496	447	1021	0	0	0	
12	0	0	0	0	476	431	1021	0	0	0	
13	0	0	0	0	458	414	1021	0	0	0	
14	0	0	0	0	440	399	1021	0	0	0	
15	0	0	0	0	425	385	1020	0	0	0	
0	0	0	0	0	412	372	1021	0	0	0	
1	0	0	0	0	401	361	1021	0	0	0	
2	0	0	0	0	392	351	1021	0	0	0	
3	0	0	0	0	385	343	1021	0	0	0	
4	0	0	0	0	379	334	1021	0	0	0	
5	0	0	0	0	373	327	1021	0	0	0	
6	0	0	0	0	368	321	1021	0	0	0	
7	0	0	0	0	363	315	1021	0	0	0	
8	0	0	0	0	359	309	1021	0	0	0	
9	0	0	0	0	353	304	1021	0	0	0	
10	0	0	0	0	351	300	1021	0	0	0	
11	0	0	0	0	349	298	1021	0	0	0	
12	0	0	0	0	349	297	1021	0	0	0	
13	0	0	0	0	351	297	1021	0	0	0	
14	0	0	0	0	355	300	1021	0	0	0	
15	0	0	0	0	363	305	1021	0	0	0	
0	0	0	0	0	372	312	1021	0	0	0	
1	0	0	0	0	384	319	1021	0	0	0	
2	0	0	0	0	397	330	1021	0	0	0	
3	0	0	0	0	413	343	1021	0	0	0	
4	0	0	0	0	431	358	1021	0	0	0	
5	0	0	0	0	451	376	1021	0	0	0	
6	0	0	0	0	472	395	1021	0	0	0	
7	0	0	0	0	493	415	1020	0	0	0	
8	0	0	0	0	515	437	1020	0	0	0	
9	0	0	0	0	536	458	1021	0	0	0	
10	0	0	0	0	556	478	1021	0	0	0	
11	0	0	0	0	573	496	1020	0	0	0	
12	0	0	0	0	587	512	1021	0	0	0	
13	0	0	0	0	596	523	1021	0	0	0	
14	0	0	0	0	602	531	1021	0	0	0	
15	0	0	0	0	603	535	1021	0	0	0	
0	0	0	0	0	599	534	1021	0	0	0	
1	0	0	0	0	591	529	1021	0	0	0	
2	0	0	0	0	580	522	1021	0	0	0	
3	0	0	0	0	568	514	1021	0	0	0	
4	0	0	0	0	556	504	1021	0	0	0	
5	0	0	0	0	544	496	1021	0	0	0	
6	0	0	0	0	535	487	1021	0	0	0	
7	0	0	0	0	527	481	1021	0	0	0	
8	0	0	0	0	524	478	1021	0	0	0	
9	0	0	0	0	523	477	1021	0	0	0	
10	0	0	0	0	526	480	1021	0	0	0	
11	0	0	0	0	533	484	1021	0	0	0	
12	0	0	0	0	542	491	1021	0	0	0	
13	0	0	0	0	553	500	1021	0	0	0	
14	0	0	0	0	564	509	1021	0	0	0	
15	0	0	0	0	575	519	1021	0	0	0	
0	0	0	0	0	585	526	1021	0	0	0	
1	0	0	0	0	593	533	1021	0	0	0	
2	0	0	0	0	598	537	1021	0	0	0	
3	0	0	0	0	599	537	1021	0	0	0	
4	0	0	0	0	596	535	1021	0	0	0	
5	0	0	0	0	590	529	1021	0	0	0	
6	0	0	0	0	580	521	1021	0	0	0	
7	0	0	0	0	569	511	1021	0	0	0	
8	0	0	0	0	556	499	1021	0	0	0	
9	0	0	0	0	543	489	1021	0	0	0	
10	0	0	0	0	530	479	1021	0	0	0	
11	0	0	0	0	519	470	1021	0	0	0	
12	0	0	0	0	512	464	1021	0	0	0	
13	0	0	0	0	508	461	1021	0	0	0	
14	0	0	0	0	508	462	1021	0	0	0	
15	0	0	0	0	511	465	1021	0	0	0	
0	0	0	0	0	518	472	1021	0	0	0	
1	0	0	0	0	528	481	1021	0	0	0	
2	0	0	0	0	540	491	1021	0	0	0	
3	0	0	0	0	553	502	1021	0	0	0	
4	0	0	0	0	566	512	1021	0	0	0	
5	0	0	0	0	578	522	1021	0	0	0	
6	0	0	0	0	589	531	1021	0	0	0	
7	0	0	0	0	598	537	1021	0	0	0	
8	0	0	0	0	603	540	1021	0	0	0	
9	0	0	0	0	604	540	1021	0	0	0	
10	0	0	0	0	602	537	1021	0	0	0	
11	0	0	0	0	598	533	1021	0	0	0	
12	0	0	0	0	591	526	1021	0	0	0	
13	0	0	0	0	582	519	1021	0	0	0	
14	0	0	0	0	572	511	1021	0	0	0	
15	0	0	0	0	562	504	1021	0	0	0	
0	0	0	0	0	554	497	1021	0	0	0	
1	0	0	0	0	547	493	1021	0	0	0	
2	0	0	0	0	543	490	1020	0	0	0	
3	0	0	0	0	540	490	1021	0	0	0	
4	0	0	0	0	541	491	1021	0	0	0	
5	0	0	0	0	544	496	1021	0	0	0	
6	0	0	0	0	549	499	1021	0	0	0	
7	0	0	0	0	555	505	1021	0	0	0	
8	0	0	0	0	562	511	1021	0	0	0	
9	0	0	0	0	568	516	1021	0	0	0	
10	0	0	0	0	575	520	1021	0	0	0	
11	0	0	0	0	579	522	1021	0	0	0	
12	0	0	0	0	581	521	1021	0	0	0	
13	0	0	0	0	580	519	1021	0	0	0	
14	0	0	0	0	575	514	1021	0	0	0	
15	0	0	0	0	569	508	1021	0	0	0	
0	0	0	0	0	561	500	1021	0	0	0	
1	0	0	0	0	553	493	1021	0	0	0	
2	0	0	0	0	545	487	1021	0	0	0	
3	0	0	0	0	538	482	1021	0	0	0	
4	0	0	0	0	534	479	1021	0	0	0	
5	0	0	0	0	531	478	1021	0	0	0	
6	0	0	0	0	531	479	1021	0	0	0	
7	0	0	0	0	533	482	1021	0	0	0	
8	0	0	0	0	536	486	1021	0	0	0	
9	0	0	0	0	542	490	1021	0	0	0	
10	0	0	0	0	547	495	1021	0	0	0	
11	0	0	0	0	553	500	1021	0	0	0	
12	0	0	0	0	559	504	1021	0	0	0	
13	0	0	0	0	564	508	1021	0	0	0	
14	0	0	0	0	568	511	1021	0	0	0	
15	0	0	0	0	571	512	1021	0	0	0	
0	0	0	0	0	573	513	1021	0	0	0	
1	0	0	0	0	574	512	1021	0	0	0	
2	0	0	0	0	574	511	1020	0	0	0	
3	0	0	0	0	572	508	1021	0	0	0	
4	0	0	0	0	570	506	1021	0	0	0	
5	0	0	0	0	568	504	1020	0	0	0	
6	0	0	0	0	567	503	1021	0	0	0	
7	0	0	0	0	564	502	1021	0	0	0	
8	0	0	0	0	564	503	1021	0	0	0	
9	0	0	0	0	563	503	1021	0	0	0	
10	0	0	0	0	563	504	1021	0	0	0	
11	0	0	0	0	563	505	1021	0	0	0	
12	0	0	0	0	563	506	1021	0	0	0	
13	0	0	0	0	564	508	1021	0	0	0	
14	0	0	0	0	565	510	1021	0	0	0	
15	0	0	0	0	566	511	1021	0	0	0	
0	0	0	0	0	565	512	1020	0	0	0	
1	0	0	0	0	565	512	1021	0	0	0	
2	0	0	0	0	564	512	1021	0	0	0	
3	0	0	0	0	562	509	1021	0	0	0	
4	0	0	0	0	560	507	1021	0	0	0	
5	0	0	0	0	556	503	1021	0	0	0	
6	0	0	0	0	552	499	1021	0	0	0	
7	0	0	0	0	549	495	1021	0	0	0	
8	0	0	0	0	545	490	1021	0	0	0	
9	0	0	0	0	542	487	1021	0	0	0	
10	0	0	0	0	539	483	1021	0	0	0	
11	0	0	0	0	538	482	1021	0	0	0	
12	0	0	0	0	539	482	1021	0	0	0	
13	0	0	0	0	540	483	1021	0	0	0	
14	0	0	0	0	544	486	1021	0	0	0	
15	0	0	0	0	548	490	1020	0	0	0	
0	0	0	0	0	553	495	1021	0	0	0	
1	0	0	0	0	560	501	1021	0	0	0	
2	0	0	0	0	566	506	1021	0	0	0	
3	0	0	0	0	571	512	1021	0	0	0	
4	0	0	0	0	575	517	1021	0	0	0	
5	0	0	0	0	579	520	1021	0	0	0	
6	0	0	0	0	582	524	1021	0	0	0	
7	0	0	0	0	583	524	1021	0	0	0	
8	0	0	0	0	580	522	1021	0	0	0	
9	0	0	0	0	576	518	1021	0	0	0	
10	0	0	0	0	569	513	1021	0	0	0	
11	0	0	0	0	562	505	1021	0	0	0	
12	0	0	0	0	552	497	1021	0	0	0	
13	0	0	0	0	543	489	1021	0	0	0	
14	0	0	0	0	533	480	1021	0	0	0	
15	0	0	0	0	524	473	1021	0	0	0	
0	0	0	0	0	517	467	1021	0	0	0	
1	0	0	0	0	512	464	1021	0	0	0	
2	0	0	0	0	510	462	1020	0	0	0	
3	0	0	0	0	511	463	1021	0	0	0	
4	0	0	0	0	514	466	1021	0	0	0	
5	0	0	0	0	519	472	1021	0	0	0	
6	0	0	0	0	526	478	1021	0	0	0	
7	0	0	0	0	534	484	1021	0	0	0	
8	0	0	0	0	541	490	1021	0	0	0	
9	0	0	0	0	547	495	1021	0	0	0	
10	0	0	0	0	553	500	1021	0	0	0	
11	0	0	0	0	558	503	1021	0	0	0	
12	0	0	0	0	560	504	1021	0	0	0	
13	0	0	0	0	559	503	1020	0	0	0	
14	0	0	0	0	558	500	1021	0	0	0	
15	0	0	0	0	555	497	1021	0	0	0	
0	0	0	0	0	551	494	1021	0	0	0	
1	0	0	0	0	546	489	1021	0	0	0	
2	0	0	0	0	541	484	1021	0	0	0	
3	0	0	0	0	536	479	1021	0	0	0	
4	0	0	0	0	533	477	1021	0	0	0	
5	0	0	0	0	531	474	1021	0	0	0	
6	0	0	0	0	530	475	1021	0	0	0	
7	0	0	0	0	531	476	1021	0	0	0	
8	0	0	0	0	534	480	1021	0	0	0	
9	0	0	0	0	539	484	1021	0	0	0	
10	0	0	0	0	544	488	1021	0	0	0	
11	0	0	0	0	548	493	1021	0	0	0	
12	0	0	0	0	553	497	1021	0	0	0	
13	0	0	0	0	558	501	1021	0	0	0	
14	0	0	0	0	560	503	1021	0	0	0	
15	0	0	0	0	561	504	1021	0	0	0	
0	0	0	0	0	561	503	1021	0	0	0	
1	0	0	0	0	559	500	1021	0	0	0	
2	0	0	0	0	554	496	1021	0	0	0	
3	0	0	0	0	550	492	1021	0	0	0	
4	0	0	0	0	544	486	1021	0	0	0	
5	0	0	0	0	538	480	1021	0	0	0	
6	0	0	0	0	533	476	1021	0	0	0	
7	0	0	0	0	528	473	1021	0	0	0	
8	0	0	0	0	527	471	1021	0	0	0	
9	0	0	0	0	527	472	1021	0	0	0	
10	0	0	0	0	529	475	1021	0	0	0	
11	0	0	0	0	534	479	1021	0	0	0	
12	0	0	0	0	541	487	1021	0	0	0	
13	0	0	0	0	550	495	1021	0	0	0	
14	0	0	0	0	558	503	1021	0	0	0	
15	0	0	0	0	566	509	1021	0	0	0	
0	0	0	0	0	573	515	1021	0	0	0	
1	0	0	0	0	577	519	1021	0	0	0	
2	0	0	0	0	580	521	1021	0	0	0	
3	0	0	0	0	580	521	1021	0	0	0	
4	0	0	0	0	577	518	1020	0	0	0	
5	0	0	0	0	572	514	1021	0	0	0	
6	0	0	0	0	566	508	1021	0	0	0	
7	0	0	0	0	559	503	1021	0	0	0	
8	0	0	0	0	552	497	1021	0	0	0	
9	0	0	0	0	547	492	1021	0	0	0	
10	0	0	0	0	543	489	1021	0	0	0	
11	0	0	0	0	542	488	1021	0	0	0	
12	0	0	0	0	543	490	1021	0	0	0	
13	0	0	0	0	547	494	1021	0	0	0	
14	0	0	0	0	554	499	1021	0	0	0	
15	0	0	0	0	562	506	1020	0	0	0	
0	0	0	0	0	571	513	1021	0	0	0	
1	0	0	0	0	580	522	1021	0	0	0	
2	0	0	0	0	588	529	1021	0	0	0	
3	0	0	0	0	594	534	1021	0	0	0	
4	0	0	0	0	596	537	1021	0	0	0	
5	0	0	0	0	595	536	1021	0	0	0	
6	0	0	0	0	590	534	1021	0	0	0	
7	0	0	0	0	582	527	1021	0	0	0	
8	0	0	0	0	570	518	1021	0	0	0	
9	0	0	0	0	556	506	1021	0	0	0	
10	0	0	0	0	541	494	1021	0	0	0	
11	0	0	0	0	527	482	1021	0	0	0	
12	0	0	0	0	513	470	1021	0	0	0	
13	0	0	0	0	502	460	1021	0	0	0	
14	0	0	0	0	494	452	1021	0	0	0	
15	0	0	0	0	489	446	1021	0	0	0	
0	0	0	0	0	488	444	1021	0	0	0	
1	0	0	0	0	492	445	1021	0	0	0	
2	0	0	0	0	499	449	1021	0	0	0	
3	0	0	0	0	508	456	1021	0	0	0	
4	0	0	0	0	519	464	1021	0	0	0	
5	0	0	0	0	532	474	1021	0	0	0	
6	0	0	0	0	544	483	1021	0	0	0	
7	0	0	0	0	556	492	1021	0	0	0	
8	0	0	0	0	564	499	1021	0	0	0	
9	0	0	0	0	570	505	1021	0	0	0	
10	0	0	0	0	574	508	1021	0	0	0	
11	0	0	0	0	573	509	1021	0	0	0	
12	0	0	0	0	570	507	1021	0	0	0	
13	0	0	0	0	565	503	1021	0	0	0	
14	0	0	0	0	557	496	1021	0	0	0	
15	0	0	0	0	548	491	1021	0	0	0	
0	0	0	0	0	539	483	1021	0	0	0	
1	0	0	0	0	530	476	1021	0	0	0	
2	0	0	0	0	524	471	1021	0	0	0	
3	0	0	0	0	518	466	1021	0	0	0	
4	0	0	0	0	515	464	1021	0	0	0	
5	0	0	0	0	515	463	1021	0	0	0	
6	0	0	0	0	517	465	1021	0	0	0	
7	0	0	0	0	523	469	1021	0	0	0	
8	0	0	0	0	529	474	1021	0	0	0	
9	0	0	0	0	537	481	1021	0	0	0	
10	0	0	0	0	545	487	1021	0	0	0	
11	0	0	0	0	552	493	1021	0	0	0	
12	0	0	0	0	558	498	1021	0	0	0	
13	0	0	0	0	563	501	1021	0	0	0	
14	0	0	0	0	566	504	1021	0	0	0	
15	0	0	0	0	566	505	1021	0	0	0	
0	0	0	0	0	564	504	1021	0	0	0	
1	0	0	0	0	562	502	1021	0	0	0	
2	0	0	0	0	558	498	1020	0	0	0	
3	0	0	0	0	554	495	1021	0	0	0	
4	0	0	0	0	549	491	1021	0	0	0	
5	0	0	0	0	544	487	1021	0	0	0	
6	0	0	0	0	540	484	1021	0	0	0	
7	0	0	0	0	537	481	1021	0	0	0	
8	0	0	0	0	537	482	1021	0	0	0	
9	0	0	0	0	539	483	1021	0	0	0	
10	0	0	0	0	543	487	1021	0	0	0	
11	0	0	0	0	549	492	1021	0	0	0	
12	0	0	0	0	557	501	1021	0	0	0	
13	0	0	0	0	567	510	1021	0	0	0	
14	0	0	0	0	576	519	1021	0	0	0	
15	0	0	0	0	586	527	1021	0	0	0	
0	0	0	0	0	592	534	1020	0	0	0	
1	0	0	0	0	597	538	1021	0	0	0	
2	0	0	0	0	600	541	1021	0	0	0	
3	0	0	0	0	598	540	1021	0	0	0	
4	0	0	0	0	593	536	1021	0	0	0	
5	0	0	0	0	584	528	1021	0	0	0	
6	0	0	0	0	573	519	1021	0	0	0	
7	0	0	0	0	561	509	1021	0	0	0	
8	0	0	0	0	548	498	1021	0	0	0	
9	0	0	0	0	535	487	1021	0	0	0	
10	0	0	0	0	524	477	1021	0	0	0	
11	0	0	0	0	514	470	1021	0	0	0	
12	0	0	0	0	508	464	1021	0	0	0	
13	0	0	0	0	504	460	1021	0	0	0	
14	0	0	0	0	504	460	1021	0	0	0	
15	0	0	0	0	507	461	1021	0	0	0	
0	0	0	0	0	511	465	1021	0	0	0	
1	0	0	0	0	519	471	1021	0	0	0	
2	0	0	0	0	527	477	1021	0	0	0	
3	0	0	0	0	536	484	1021	0	0	0	
4	0	0	0	0	544	490	1021	0	0	0	
5	0	0	0	0	551	496	1021	0	0	0	
6	0	0	0	0	559	501	1021	0	0	0	
7	0	0	0	0	563	504	1021	0	0	0	
8	0	0	0	0	566	505	1021	0	0	0	
9	0	0	0	0	565	504	1021	0	0	0	
10	0	0	0	0	563	501	1021	0	0	0	
11	0	0	0	0	558	497	1021	0	0	0	
12	0	0	0	0	552	492	1021	0	0	0	
13	0	0	0	0	545	487	1021	0	0	0	
14	0	0	0	0	539	481	1021	0	0	0	
15	0	0	0	0	534	478	1021	0	0	0	
0	0	0	0	0	530	476	1021	0	0	0	
1	0	0	0	0	529	476	1021	0	0	0	
2	0	0	0	0	530	478	1021	0	0	0	
3	0	0	0	0	533	481	1021	0	0	0	
4	0	0	0	0	537	487	1021	0	0	0	
5	0	0	0	0	543	493	1021	0	0	0	
6	0	0	0	0	550	499	1021	0	0	0	
7	0	0	0	0	556	505	1021	0	0	0	
8	0	0	0	0	562	510	1021	0	0	0	
9	0	0	0	0	566	514	1021	0	0	0	
10	0	0	0	0	568	515	1021	0	0	0	
11	0	0	0	0	568	515	1021	0	0	0	
12	0	0	0	0	565	512	1021	0	0	0	
13	0	0	0	0	561	507	1021	0	0	0	
14	0	0	0	0	555	502	1021	0	0	0	
15	0	0	0	0	548	495	1021	0	0	0	
0	0	0	0	0	542	488	1021	0	0	0	
1	0	0	0	0	536	482	1021	0	0	0	
2	0	0	0	0	530	477	1020	0	0	0	
3	0	0	0	0	527	473	1021	0	0	0	
4	0	0	0	0	525	472	1021	0	0	0	
5	0	0	0	0	525	472	1021	0	0	0	
6	0	0	0	0	527	474	1021	0	0	0	
7	0	0	0	0	531	477	1021	0	0	0	
8	0	0	0	0	536	483	1021	0	0	0	
9	0	0	0	0	542	489	1021	0	0	0	
10	0	0	0	0	549	495	1021	0	0	0	
11	0	0	0	0	555	501	1021	0	0	0	
12	0	0	0	0	559	505	1020	0	0	0	
13	0	0	0	0	563	509	1021	0	0	0	
14	0	0	0	0	566	512	1021	0	0	0	
15	0	0	0	0	567	513	1021	0	0	0	
0	0	0	0	0	566	511	1021	0	0	0	
1	0	0	0	0	563	509	1020	0	0	0	
2	0	0	0	0	558	505	1021	0	0	0	
3	0	0	0	0	553	501	1021	0	0	0	
4	0	0	0	0	548	496	1021	0	0	0	
5	0	0	0	0	543	491	1021	0	0	0	
6	0	0	0	0	538	486	1021	0	0	0	
7	0	0	0	0	535	483	1021	0	0	0	
8	0	0	0	0	533	481	1021	0	0	0	
9	0	0	0	0	533	481	1021	0	0	0	
10	0	0	0	0	535	482	1021	0	0	0	
11	0	0	0	0	538	484	1021	0	0	0	
12	0	0	0	0	542	488	1021	0	0	0	
13	0	0	0	0	547	492	1021	0	0	0	
14	0	0	0	0	551	496	1021	0	0	0	
15	0	0	0	0	555	499	1021	0	0	0	
0	0	0	0	0	559	502	1021	0	0	0	
1	0	0	0	0	560	503	1021	0	0	0	
2	0	0	0	0	560	503	1021	0	0	0	
3	0	0	0	0	559	501	1021	0	0	0	
4	0	0	0	0	555	498	1021	0	0	0	
5	0	0	0	0	550	494	1021	0	0	0	
6	0	0	0	0	543	487	1021	0	0	0	
7	0	0	0	0	538	483	1021	0	0	0	
8	0	0	0	0	532	478	1021	0	0	0	
9	0	0	0	0	527	473	1021	0	0	0	
10	0	0	0	0	523	469	1021	0	0	0	
11	0	0	0	0	520	467	1021	0	0	0	
12	0	0	0	0	519	467	1021	0	0	0	
13	0	0	0	0	520	467	1021	0	0	0	
14	0	0	0	0	523	469	1021	0	0	0	
15	0	0	0	0	526	471	1021	0	0	0	
0	0	0	0	0	530	475	1021	0	0	0	
1	0	0	0	0	536	480	1021	0	0	0	
2	0	0	0	0	542	485	1021	0	0	0	
3	0	0	0	0	547	491	1021	0	0	0	
4	0	0	0	0	554	497	1021	0	0	0	
5	0	0	0	0	560	502	1021	0	0	0	
6	0	0	0	0	566	507	1021	0	0	0	
7	0	0	0	0	569	511	1021	0	0	0	
8	0	0	0	0	572	512	1021	0	0	0	
9	0	0	0	0	571	511	1021	0	0	0	
10	0	0	0	0	568	510	1021	0	0	0	
11	0	0	0	0	563	504	1021	0	0	0	
12	0	0	0	0	556	498	1021	0	0	0	
13	0	0	0	0	548	491	1021	0	0	0	
14	0	0	0	0	539	483	1020	0	0	0	
15	0	0	0	0	530	475	1021	0	0	0	
0	0	0	0	0	523	468	1021	0	0	0	
1	0	0	0	0	517	464	1021	0	0	0	
2	0	0	0	0	513	461	1021	0	0	0	
3	0	0	0	0	512	460	1021	0	0	0	
4	0	0	0	0	513	462	1021	0	0	0	
5	0	0	0	0	518	465	1021	0	0	0	
6	0	0	0	0	523	470	1021	0	0	0	
7	0	0	0	0	530	476	1021	0	0	0	
8	0	0	0	0	538	483	1021	0	0	0	
9	0	0	0	0	546	489	1021	0	0	0	
10	0	0	0	0	553	496	1021	0	0	0	
11	0	0	0	0	558	500	1021	0	0	0	
12	0	0	0	0	561	503	1021	0	0	0	
13	0	0	0	0	563	503	1021	0	0	0	
14	0	0	0	0	561	500	1021	0	0	0	
15	0	0	0	0	557	497	1021	0	0	0	
0	0	0	0	0	552	493	1021	0	0	0	
1	0	0	0	0	546	487	1021	0	0	0	
2	0	0	0	0	540	482	1021	0	0	0	
3	0	0	0	0	534	476	1021	0	0	0	
4	0	0	0	0	528	473	1021	0	0	0	
5	0	0	0	0	525	470	1021	0	0	0	
6	0	0	0	0	523	469	1021	0	0	0	
7	0	0	0	0	524	470	1021	0	0	0	
8	0	0	0	0	527	473	1021	0	0	0	
9	0	0	0	0	531	478	1021	0	0	0	
10	0	0	0	0	537	483	1021	0	0	0	
11	0	0	0	0	543	489	1021	0	0	0	
12	0	0	0	0	550	495	1021	0	0	0	
13	0	0	0	0	556	501	1021	0	0	0	
14	0	0	0	0	561	506	1021	0	0	0	
15	0	0	0	0	564	508	1021	0	0	0	
0	0	0	0	0	565	509	1021	0	0	0	
1	0	0	0	0	562	506	1021	0	0	0	
2	0	0	0	0	558	503	1021	0	0	0	
3	0	0	0	0	552	498	1021	0	0	0	
4	0	0	0	0	545	492	1021	0	0	0	
5	0	0	0	0	538	486	1021	0	0	0	
6	0	0	0	0	532	480	1021	0	0	0	
7	0	0	0	0	527	476	1021	0	0	0	
8	0	0	0	0	526	474	1021	0	0	0	
9	0	0	0	0	527	474	1021	0	0	0	
10	0	0	0	0	529	476	1021	0	0	0	
11	0	0	0	0	534	479	1021	0	0	0	
12	0	0	0	0	539	482	1021	0	0	0	
13	0	0	0	0	545	487	1021	0	0	0	
14	0	0	0	0	550	491	1021	0	0	0	
15	0	0	0	0	555	495	1021	0	0	0	
0	0	0	0	0	559	499	1021	0	0	0	
1	0	0	0	0	562	502	1021	0	0	0	
2	0	0	0	0	564	505	1021	0	0	0	
3	0	0	0	0	565	507	1021	0	0	0	
4	0	0	0	0	564	508	1021	0	0	0	
5	0	0	0	0	563	507	1021	0	0	0	
6	0	0	0	0	561	506	1021	0	0	0	
7	0	0	0	0	558	505	1021	0	0	0	
8	0	0	0	0	555	503	1021	0	0	0	
9	0	0	0	0	551	499	1021	0	0	0	
10	0	0	0	0	548	496	1021	0	0	0	
11	0	0	0	0	544	494	1021	0	0	0	
12	0	0	0	0	542	491	1021	0	0	0	
13	0	0	0	0	540	488	1021	0	0	0	
14	0	0	0	0	539	487	1021	0	0	0	
15	0	0	0	0	538	485	1021	0	0	0	
0	0	0	0	0	537	486	1021	0	0	0	
1	0	0	0	0	538	486	1021	0	0	0	
2	0	0	0	0	539	486	1021	0	0	0	
3	0	0	0	0	540	487	1021	0	0	0	
4	0	0	0	0	540	488	1021	0	0	0	
5	0	0	0	0	540	489	1021	0	0	0	
6	0	0	0	0	542	489	1021	0	0	0	
7	0	0	0	0	541	489	1021	0	0	0	
8	0	0	0	0	540	487	1021	0	0	0	
9	0	0	0	0	538	485	1021	0	0	0	
10	0	0	0	0	535	483	1021	0	0	0	
11	0	0	0	0	533	480	1021	0	0	0	
12	0	0	0	0	531	476	1021	0	0	0	
13	0	0	0	0	529	474	1021	0	0	0	
14	0	0	0	0	527	472	1021	0	0	0	
15	0	0	0	0	527	472	1021	0	0	0	
0	0	0	0	0	528	472	1021	0	0	0	
1	0	0	0	0	530	474	1021	0	0	0	
2	0	0	0	0	534	478	1021	0	0	0	
3	0	0	0	0	539	482	1021	0	0	0	
4	0	0	0	0	544	489	1021	0	0	0	
5	0	0	0	0	551	496	1021	0	0	0	
6	0	0	0	0	559	504	1021	0	0	0	
7	0	0	0	0	566	511	1021	0	0	0	
8	0	0	0	0	572	518	1021	0	0	0	
9	0	0	0	0	577	523	1021	0	0	0	
10	0	0	0	0	580	526	1021	0	0	0	
11	0	0	0	0	580	526	1021	0	0	0	
12	0	0	0	0	577	523	1021	0	0	0	
13	0	0	0	0	573	518	1021	0	0	0	
14	0	0	0	0	565	511	1021	0	0	0	
15	0	0	0	0	557	503	1021	0	0	0	
0	0	0	0	0	547	493	1021	0	0	0	
1	0	0	0	0	537	484	1021	0	0	0	
2	0	0	0	0	527	475	1021	0	0	0	
3	0	0	0	0	519	466	1021	0	0	0	
4	0	0	0	0	511	460	1021	0	0	0	
5	0	0	0	0	506	455	1021	0	0	0	
6	0	0	0	0	502	451	1021	0	0	0	
7	0	0	0	0	500	450	1020	0	0	0	
8	0	0	0	0	500	451	1021	0	0	0	
9	0	0	0	0	503	454	1021	0	0	0	
10	0	0	0	0	508	458	1021	0	0	0	
11	0	0	0	0	514	463	1021	0	0	0	
12	0	0	0	0	521	470	1021	1	0	0	
13	0	0	0	0	528	476	1020	0	0	0	
14	0	0	0	0	536	481	1021	0	0	0	
15	0	0	0	0	541	486	1021	0	0	0	
0	0	0	0	0	545	489	1021	0	0	0	
1	0	0	0	0	547	490	1021	0	0	0	
2	0	0	0	0	547	489	1021	0	0	0	
3	0	0	0	0	545	487	1021	0	0	0	
4	0	0	0	0	542	484	1021	0	0	0	
5	0	0	0	0	539	481	1021	0	0	0	
6	0	0	0	0	535	477	1021	0	0	0	
7	0	0	0	0	531	475	1021	0	0	0	
8	0	0	0	0	529	473	1021	0	0	0	
9	0	0	0	0	529	474	1021	0	0	0	
10	0	0	0	0	530	476	1021	0	0	0	
11	0	0	0	0	534	480	1021	0	0	0	
12	0	0	0	0	539	485	1021	0	0	0	
13	0	0	0	0	546	492	1021	0	0	0	
14	0	0	0	0	552	498	1021	0	0	0	
15	0	0	0	0	558	504	1021	0	0	0	
0	0	0	0	0	563	508	1021	0	0	0	
1	0	0	0	0	566	511	1021	0	0	0	
2	0	0	0	0	567	512	1021	0	0	0	
3	0	0	0	0	565	511	1021	0	0	0	
4	0	0	0	0	560	507	1021	0	0	0	
5	0	0	0	0	555	502	1021	0	0	0	
6	0	0	0	0	546	494	1021	0	0	0	
7	0	0	0	0	537	486	1021	0	0	0	
8	0	0	0	0	528	477	1021	0	0	0	
9	0	0	0	0	519	471	1021	0	0	0	
10	0	0	0	0	513	464	1021	0	0	0	
11	0	0	0	0	509	460	1021	0	0	0	
12	0	0	0	0	509	460	1021	0	0	0	
13	0	0	0	0	511	462	1021	0	0	0	
14	0	0	0	0	517	466	1021	0	0	0	
15	0	0	0	0	525	471	1021	0	0	0	
0	0	0	0	0	534	479	1021	0	0	0	
1	0	0	0	0	545	487	1021	0	0	0	
2	0	0	0	0	556	496	1021	0	0	0	
3	0	0	0	0	566	504	1021	0	0	0	
4	0	0	0	0	575	511	1021	0	0	0	
5	0	0	0	0	581	516	1021	0	0	0	
6	0	0	0	0	585	519	1021	0	0	0	
7	0	0	0	0	587	521	1021	0	0	0	
8	0	0	0	0	584	519	1021	0	0	0	
9	0	0	0	0	579	515	1020	0	0	0	
10	0	0	0	0	571	509	1021	0	0	0	
11	0	0	0	0	561	502	1021	0	0	0	
12	0	0	0	0	551	494	1021	0	0	0	
13	0	0	0	0	540	485	1021	0	0	0	
14	0	0	0	0	530	478	1021	0	0	0	
15	0	0	0	0	521	470	1021	0	0	0	
0	0	0	0	0	515	466	1021	0	0	0	
1	0	0	0	0	512	464	1021	0	0	0	
2	0	0	0	0	512	464	1021	0	0	0	
3	0	0	0	0	514	467	1021	0	0	0	
4	0	0	0	0	520	473	1021	0	0	0	
5	0	0	0	0	528	481	1021	0	0	0	
6	0	0	0	0	538	490	1021	0	0	0	
7	0	0	0	0	549	499	1021	0	0	0	
8	0	0	0	0	560	509	1021	0	0	0	
9	0	0	0	0	571	518	1021	0	0	0	
10	0	0	0	0	580	526	1021	0	0	0	
11	0	0	0	0	588	531	1021	0	0	0	
12	0	0	0	0	593	535	1021	0	0	0	
13	0	0	0	0	595	535	1021	0	0	0	
14	0	0	0	0	593	532	1021	0	0	0	
15	0	0	0	0	588	527	1021	0	0	0	
0	0	0	0	0	579	518	1021	0	0	0	
1	0	0	0	0	568	508	1021	0	0	0	
2	0	0	0	0	555	497	1021	0	0	0	
3	0	0	0	0	541	486	1021	0	0	0	
4	0	0	0	0	529	477	1021	0	0	0	
5	0	0	0	0	518	469	1021	0	0	0	
6	0	0	0	0	510	463	1021	0	0	0	
7	0	0	0	0	504	459	1021	0	0	0	
8	0	0	0	0	500	457	1021	0	0	0	
9	0	0	0	0	500	457	1021	0	0	0	
10	0	0	0	0	502	458	1021	0	0	0	
11	0	0	0	0	505	460	1021	0	0	0	
12	0	0	0	0	508	462	1021	0	0	0	
13	0	0	0	0	511	463	1021	0	0	0	
14	0	0	0	0	513	462	1021	0	0	0	
15	0	0	0	0	513	460	1021	0	0	0	
0	0	0	0	0	509	454	1021	0	0	0	
1	0	0	0	0	502	446	1021	0	0	0	
2	0	0	0	0	492	436	1021	0	0	0	
3	0	0	0	0	481	424	1021	0	0	0	
4	0	0	0	0	467	410	1021	0	0	0	
5	0	0	0	0	451	396	1021	0	0	0	
6	0	0	0	0	436	381	1021	0	0	0	
7	0	0	0	0	419	367	1021	0	0	0	
8	0	0	0	0	405	353	1021	0	0	0	
9	0	0	0	0	391	340	1021	0	0	0	
10	0	0	0	0	380	329	1021	0	0	0	
11	0	0	0	0	369	320	1021	0	0	0	
12	0	0	0	0	361	313	1021	0	0	0	
13	0	0	0	0	354	307	1021	0	0	0	
14	0	0	0	0	348	302	1021	0	0	0	
15	0	0	0	0	344	299	1021	0	0	0	
0	0	0	0	0	342	296	1021	0	0	0	
1	0	0	0	0	341	294	1021	0	0	0	
2	0	0	0	0	341	295	1021	0	0	0	
3	0	0	0	0	343	295	1021	0	0	0	
4	0	0	0	0	347	297	1021	0	0	0	
5	0	0	0	0	351	299	1021	0	0	0	
6	0	0	0	0	356	303	1021	0	0	0	
7	0	0	0	0	365	308	1021	0	0	0	
8	0	0	0	0	375	315	1021	0	0	0	
9	0	0	0	0	388	324	1021	0	0	0	
10	0	0	0	0	403	335	1021	0	0	0	
11	0	0	0	0	420	349	1021	0	0	0	
12	0	0	0	0	439	365	1021	0	0	0	
13	0	0	0	0	459	383	1021	0	0	0	
14	0	0	0	0	480	402	1021	0	0	0	
15	0	0	0	0	500	423	1021	0	0	0	
0	0	0	0	0	520	443	1021	0	0	0	
1	0	0	0	0	540	463	1021	0	0	0	
2	0	0	0	0	557	481	1021	0	0	0	
3	0	0	0	0	572	499	1021	0	0	0	
4	0	0	0	0	584	513	1021	0	0	0	
5	0	0	0	0	593	525	1021	0	0	0	
6	0	0	0	0	599	534	1021	0	0	0	
7	0	0	0	0	601	539	1021	0	0	0	
8	0	0	0	0	600	541	1021	0	0	0	
9	0	0	0	0	595	540	1021	0	0	0	
10	0	0	0	0	588	534	1021	0	0	0	
11	0	0	0	0	578	528	1021	0	0	0	
12	0	0	0	0	567	519	1021	0	0	0	
13	0	0	0	0	556	511	1021	0	0	0	
14	0	0	0	0	545	501	1021	0	0	0	
15	0	0	0	0	536	493	1021	0	0	0	
0	0	0	0	0	530	488	1021	0	0	0	
1	0	0	0	0	527	484	1021	0	0	0	
2	0	0	0	0	526	483	1021	0	0	0	
3	0	0	0	0	529	484	1021	0	0	0	
4	0	0	0	0	535	489	1021	0	0	0	
5	0	0	0	0	543	496	1021	0	0	0	
6	0	0	0	0	553	504	1021	0	0	0	
7	0	0	0	0	565	513	1021	0	0	0	
8	0	0	0	0	575	522	1021	0	0	0	
9	0	0	0	0	585	529	1021	0	0	0	
10	0	0	0	0	592	536	1021	0	0	0	
11	0	0	0	0	597	539	1021	0	0	0	
12	0	0	0	0	598	539	1021	0	0	0	
13	0	0	0	0	595	536	1021	0	0	0	
14	0	0	0	0	590	530	1021	0	0	0	
15	0	0	0	0	582	524	1021	0	0	0	
0	0	0	0	0	573	516	1021	0	0	0	
1	0	0	0	0	564	508	1021	0	0	0	
2	0	0	0	0	555	500	1021	0	0	0	
3	0	0	0	0	548	495	1021	0	0	0	
4	0	0	0	0	543	492	1021	0	0	0	
5	0	0	0	0	541	491	1021	0	0	0	
6	0	0	0	0	541	493	1021	0	0	0	
7	0	0	0	0	544	496	1021	0	0	0	
8	0	0	0	0	549	502	1021	0	0	0	
9	0	0	0	0	556	508	1021	0	0	0	
10	0	0	0	0	563	514	1021	0	0	0	
11	0	0	0	0	571	521	1021	0	0	0	
12	0	0	0	0	577	526	1021	0	0	0	
13	0	0	0	0	582	530	1021	0	0	0	
14	0	0	0	0	586	533	1021	0	0	0	
15	0	0	0	0	588	534	1021	0	0	0	
0	0	0	0	0	588	534	1021	0	0	0	
1	0	0	0	0	587	531	1021	0	0	0	
2	0	0	0	0	585	530	1021	0	0	0	
3	0	0	0	0	583	527	1021	0	0	0	
4	0	0	0	0	582	526	1021	0	0	0	
5	0	0	0	0	580	524	1021	0	0	0	
6	0	0	0	0	579	523	1021	0	0	0	
7	0	0	0	0	578	523	1021	0	0	0	
8	0	0	0	0	577	523	1021	0	0	0	
9	0	0	0	0	576	523	1021	0	0	0	
10	0	0	0	0	575	523	1021	0	0	0	
11	0	0	0	0	574	522	1021	0	0	0	
12	0	0	0	0	573	524	1021	0	0	0	
13	0	0	0	0	572	524	1021	0	0	0	
14	0	0	0	0	571	524	1021	0	0	0	
15	0	0	0	0	569	523	1021	0	0	0	
0	0	0	0	0	568	523	1021	0	0	0	
1	0	0	0	0	566	523	1021	0	0	0	
2	0	0	0	0	566	521	1021	0	0	0	
3	0	0	0	0	564	519	1021	0	0	0	
4	0	0	0	0	561	516	1021	0	0	0	
5	0	0	0	0	559	512	1021	0	0	0	
6	0	0	0	0	556	508	1021	0	0	0	
7	0	0	0	0	553	504	1021	0	0	0	
8	0	0	0	0	550	499	1021	0	0	0	
9	0	0	0	0	547	495	1021	0	0	0	
10	0	0	0	0	545	491	1021	0	0	0	
11	0	0	0	0	543	489	1021	0	0	0	
12	0	0	0	0	542	487	1021	0	0	0	
13	0	0	0	0	542	486	1021	0	0	0	
14	0	0	0	0	543	487	1021	0	0	0	
15	0	0	0	0	545	488	1021	0	0	0	
0	0	0	0	0	549	493	1021	0	0	0	
1	0	0	0	0	554	498	1021	0	0	0	
2	0	0	0	0	560	504	1021	0	0	0	
3	0	0	0	0	567	511	1021	0	0	0	
4	0	0	0	0	573	518	1020	0	0	0	
5	0	0	0	0	579	523	1021	0	0	0	
6	0	0	0	0	584	528	1021	0	0	0	
7	0	0	0	0	587	531	1021	0	0	0	
8	0	0	0	0	589	533	1021	0	0	0	
9	0	0	0	0	587	531	1020	0	0	0	
10	0	0	0	0	584	528	1021	0	0	0	
11	0	0	0	0	580	524	1021	0	0	0	
12	0	0	0	0	575	519	1021	0	0	0	
13	0	0	0	0	569	514	1021	0	0	0	
14	0	0	0	0	564	509	1021	1	0	0	
15	0	0	0	0	560	505	1021	0	0	0	
0	0	0	0	0	558	504	1021	0	0	0	
1	0	0	0	0	557	504	1021	0	0	0	
2	0	0	0	0	559	505	1021	0	0	0	
3	0	0	0	0	561	507	1021	0	0	0	
4	0	0	0	0	566	512	1021	0	0	0	
5	0	0	0	0	572	518	1021	0	0	0	
6	0	0	0	0	577	523	1021	0	0	0	
7	0	0	0	0	583	528	1021	0	0	0	
8	0	0	0	0	588	534	1021	0	0	0	
9	0	0	0	0	591	537	1021	0	0	0	
10	0	0	0	0	595	540	1021	0	0	0	
11	0	0	0	0	597	542	1021	0	0	0	
12	0	0	0	0	597	542	1021	0	0	0	
13	0	0	0	0	596	541	1021	0	0	0	
14	0	0	0	0	593	539	1021	0	0	0	
15	0	0	0	0	591	535	1021	0	0	0	
0	0	0	0	0	587	531	1021	0	0	0	
1	0	0	0	0	582	527	1021	0	0	0	
2	0	0	0	0	577	523	1021	0	0	0	
3	0	0	0	0	574	519	1021	0	0	0	
4	0	0	0	0	571	516	1021	0	0	0	
5	0	0	0	0	568	514	1021	0	0	0	
6	0	0	0	0	567	513	1021	0	0	0	
7	0	0	0	0	565	512	1021	0	0	0	
8	0	0	0	0	564	511	1021	0	0	0	
9	0	0	0	0	565	511	1021	0	0	0	
10	0	0	0	0	565	512	1021	0	0	0	
11	0	0	0	0	566	513	1021	0	0	0	
12	0	0	0	0	568	515	1021	0	0	0	
13	0	0	0	0	569	516	1021	0	0	0	
14	0	0	0	0	571	518	1021	0	0	0	
15	0	0	0	0	572	519	1021	0	0	0	
0	0	0	0	0	571	517	1021	0	0	0	
1	0	0	0	0	569	515	1021	0	0	0	
2	0	0	0	0	566	513	1021	0	0	0	
3	0	0	0	0	563	510	1021	0	0	0	
4	0	0	0	0	560	507	1021	0	0	0	
5	0	0	0	0	558	504	1021	0	0	0	
6	0	0	0	0	555	501	1021	0	0	0	
7	0	0	0	0	553	499	1021	0	0	0	
8	0	0	0	0	553	499	1021	0	0	0	
9	0	0	0	0	554	499	1021	0	0	0	
10	0	0	0	0	557	502	1021	0	0	0	
11	0	0	0	0	560	506	1021	0	0	0	
12	0	0	0	0	565	510	1021	0	0	0	
13	0	0	0	0	571	516	1021	0	0	0	
14	0	0	0	0	575	522	1021	0	0	0	
15	0	0	0	0	580	527	1021	0	0	0	
0	0	0	0	0	583	530	1021	0	0	0	
1	0	0	0	0	585	532	1021	0	0	0	
2	0	0	0	0	584	532	1021	0	0	0	
3	0	0	0	0	582	531	1021	0	0	0	
4	0	0	0	0	577	527	1021	0	0	0	
5	0	0	0	0	570	521	1021	0	0	0	
6	0	0	0	0	562	512	1021	0	0	0	
7	0	0	0	0	553	505	1021	0	0	0	
8	0	0	0	0	544	496	1021	0	0	0	
9	0	0	0	0	536	488	1021	0	0	0	
10	0	0	0	0	528	480	1021	0	0	0	
11	0	0	0	0	523	475	1021	0	0	0	
12	0	0	0	0	521	472	1021	0	0	0	
13	0	0	0	0	521	472	1021	0	0	0	
14	0	0	0	0	524	473	1021	0	0	0	
15	0	0	0	0	531	478	1021	0	0	0	
0	0	0	0	0	539	485	1021	0	0	0	
1	0	0	0	0	550	494	1021	0	0	0	
2	0	0	0	0	561	503	1021	0	0	0	
3	0	0	0	0	571	512	1021	0	0	0	
4	0	0	0	0	581	520	1021	0	0	0	
5	0	0	0	0	588	527	1021	0	0	0	
6	0	0	0	0	593	532	1021	0	0	0	
7	0	0	0	0	595	534	1021	0	0	0	
8	0	0	0	0	594	534	1021	0	0	0	
9	0	0	0	0	590	531	1021	0	0	0	
10	0	0	0	0	582	524	1021	0	0	0	
11	0	0	0	0	574	518	1021	0	0	0	
12	0	0	0	0	565	511	1021	0	0	0	
13	0	0	0	0	555	503	1021	0	0	0	
14	0	0	0	0	548	496	1021	0	0	0	
15	0	0	0	0	542	491	1021	0	0	0	
0	0	0	0	0	538	487	1021	0	0	0	
1	0	0	0	0	538	487	1021	0	0	0	
2	0	0	0	0	540	489	1021	0	0	0	
3	0	0	0	0	546	493	1021	0	0	0	
4	0	0	0	0	552	499	1021	0	0	0	
5	0	0	0	0	561	507	1021	0	0	0	
6	0	0	0	0	571	515	1021	0	0	0	
7	0	0	0	0	580	524	1021	0	0	0	
8	0	0	0	0	588	531	1021	0	0	0	
9	0	0	0	0	594	537	1021	0	0	0	
10	0	0	0	0	599	541	1021	0	0	0	
11	0	0	0	0	600	542	1021	0	0	0	
12	0	0	0	0	599	541	1021	0	0	0	
13	0	0	0	0	595	538	1021	0	0	0	
14	0	0	0	0	590	533	1021	0	0	0	
15	0	0	0	0	584	528	1021	0	0	0	
0	0	0	0	0	577	523	1021	0	0	0	
1	0	0	0	0	570	517	1021	0	0	0	
2	0	0	0	0	563	511	1021	0	0	0	
3	0	0	0	0	558	507	1021	0	0	0	
4	0	0	0	0	553	503	1021	0	0	0	
5	0	0	0	0	551	502	1021	0	0	0	
6	0	0	0	0	550	502	1021	0	0	0	
7	0	0	0	0	551	503	1021	0	0	0	
8	0	0	0	0	551	504	1021	0	0	0	
9	0	0	0	0	555	507	1021	0	0	0	
10	0	0	0	0	558	509	1021	0	0	0	
11	0	0	0	0	560	511	1021	0	0	0	
12	0	0	0	0	562	513	1021	0	0	0	
13	0	0	0	0	562	512	1021	0	0	0	
14	0	0	0	0	561	511	1021	0	0	0	
15	0	0	0	0	559	508	1021	0	0	0	
0	0	0	0	0	555	503	1021	0	0	0	
1	0	0	0	0	551	498	1021	0	0	0	
2	0	0	0	0	545	492	1021	0	0	0	
3	0	0	0	0	541	487	1021	0	0	0	
4	0	0	0	0	537	482	1021	0	0	0	
5	0	0	0	0	534	479	1021	0	0	0	
6	0	0	0	0	533	477	1021	0	0	0	
7	0	0	0	0	534	477	1021	0	0	0	
8	0	0	0	0	537	480	1021	0	0	0	
9	0	0	0	0	543	484	1021	0	0	0	
10	0	0	0	0	550	490	1021	0	0	0	
11	0	0	0	0	559	498	1021	0	0	0	
12	0	0	0	0	568	506	1021	0	0	0	
13	0	0	0	0	579	517	1021	0	0	0	
14	0	0	0	0	588	526	1021	0	0	0	
15	0	0	0	0	597	536	1021	0	0	0	
0	0	0	0	0	605	543	1021	0	0	0	
1	0	0	0	0	611	550	1021	0	0	0	
2	0	0	0	0	615	556	1021	0	0	0	
3	0	0	0	0	617	559	1021	0	0	0	
4	0	0	0	0	615	559	1021	0	0	0	
5	0	0	0	0	611	557	1021	0	0	0	
6	0	0	0	0	605	552	1021	0	0	0	
7	0	0	0	0	596	545	1021	0	0	0	
8	0	0	0	0	587	537	1021	0	0	0	
9	0	0	0	0	575	527	1021	0	0	0	
10	0	0	0	0	564	517	1021	0	0	0	
11	0	0	0	0	553	507	1021	0	0	0	
12	0	0	0	0	543	499	1021	0	0	0	
13	0	0	0	0	536	492	1021	0	0	0	
14	0	0	0	0	532	487	1021	0	0	0	
15	0	0	0	0	531	486	1021	0	0	0	
0	0	0	0	0	532	487	1021	0	0	0	
1	0	0	0	0	537	490	1021	0	0	0	
2	0	0	0	0	543	495	1021	0	0	0	
3	0	0	0	0	551	501	1021	0	0	0	
4	0	0	0	0	559	507	1021	0	0	0	
5	0	0	0	0	567	512	1021	0	0	0	
6	0	0	0	0	573	518	1021	0	0	0	
7	0	0	0	0	578	521	1021	0	0	0	
8	0	0	0	0	580	522	1021	0	0	0	
9	0	0	0	0	579	519	1020	0	0	0	
10	0	0	0	0	574	515	1021	0	0	0	
11	0	0	0	0	568	509	1021	0	0	0	
12	0	0	0	0	560	502	1021	0	0	0	
13	0	0	0	0	550	494	1021	0	0	0	
14	0	0	0	0	541	487	1021	0	0	0	
15	0	0	0	0	533	480	1021	0	0	0	
0	0	0	0	0	527	476	1021	0	0	0	
1	0	0	0	0	524	473	1021	0	0	0	
2	0	0	0	0	523	473	1021	0	0	0	
3	0	0	0	0	527	476	1021	0	0	0	
4	0	0	0	0	531	481	1021	0	0	0	
5	0	0	0	0	540	488	1021	0	0	0	
6	0	0	0	0	548	496	1021	0	0	0	
7	0	0	0	0	558	504	1021	0	0	0	
8	0	0	0	0	567	511	1021	0	0	0	
9	0	0	0	0	575	518	1021	0	0	0	
10	0	0	0	0	582	524	1021	0	0	0	
11	0	0	0	0	587	528	1021	0	0	0	
12	0	0	0	0	590	531	1021	0	0	0	
13	0	0	0	0	590	531	1021	0	0	0	
14	0	0	0	0	587	528	1021	0	0	0	
15	0	0	0	0	582	525	1021	0	0	0	
0	0	0	0	0	576	520	1021	0	0	0	
1	0	0	0	0	569	515	1021	0	0	0	
2	0	0	0	0	561	509	1021	0	0	0	
3	0	0	0	0	555	504	1021	0	0	0	
4	0	0	0	0	550	501	1021	0	0	0	
5	0	0	0	0	547	498	1021	0	0	0	
6	0	0	0	0	546	498	1021	0	0	0	
7	0	0	0	0	547	500	1021	0	0	0	
8	0	0	0	0	551	504	1021	0	0	0	
9	0	0	0	0	557	509	1021	0	0	0	
10	0	0	0	0	563	515	1021	0	0	0	
11	0	0	0	0	570	520	1021	0	0	0	
12	0	0	0	0	576	526	1021	0	0	0	
13	0	0	0	0	580	530	1021	0	0	0	
14	0	0	0	0	584	532	1021	0	0	0	
15	0	0	0	0	585	533	1021	0	0	0	
0	0	0	0	0	584	532	1021	0	0	0	
1	0	0	0	0	582	529	1021	0	0	0	
2	0	0	0	0	579	527	1021	0	0	0	
3	0	0	0	0	576	525	1021	0	0	0	
4	0	0	0	0	575	523	1021	0	0	0	
5	0	0	0	0	573	521	1021	0	0	0	
6	0	0	0	0	573	521	1021	0	0	0	
7	0	0	0	0	574	521	1021	0	0	0	
8	0	0	0	0	575	522	1021	0	0	0	
9	0	0	0	0	578	524	1021	0	0	0	
10	0	0	0	0	581	527	1021	0	0	0	
11	0	0	0	0	585	531	1021	0	0	0	
12	0	0	0	0	589	535	1021	0	0	0	
13	0	0	0	0	593	540	1021	0	0	0	
14	0	0	0	0	597	545	1021	0	0	0	
15	0	0	0	0	600	549	1021	0	0	0	
0	0	0	0	0	602	552	1021	0	0	0	
1	0	0	0	0	602	553	1021	0	0	0	
2	0	0	0	0	600	552	1021	0	0	0	
3	0	0	0	0	597	550	1021	0	0	0	
4	0	0	0	0	592	546	1021	0	0	0	
5	0	0	0	0	585	540	1021	0	0	0	
6	0	0	0	0	577	532	1021	0	0	0	
7	0	0	0	0	568	524	1021	0	0	0	
8	0	0	0	0	558	514	1021	0	0	0	
9	0	0	0	0	548	504	1021	0	0	0	
10	0	0	0	0	539	495	1021	0	0	0	
11	0	0	0	0	530	487	1021	0	0	0	
12	0	0	0	0	525	482	1021	0	0	0	
13	0	0	0	0	522	479	1021	0	0	0	
14	0	0	0	0	522	478	1021	0	0	0	
15	0	0	0	0	526	480	1021	0	0	0	
0	0	0	0	0	531	485	1021	0	0	0	
1	0	0	0	0	540	491	1021	0	0	0	
2	0	0	0	0	548	498	1021	0	0	0	
3	0	0	0	0	558	505	1021	0	0	0	
4	0	0	0	0	567	512	1021	0	0	0	
5	0	0	0	0	575	519	1021	0	0	0	
6	0	0	0	0	581	523	1021	0	0	0	
7	0	0	0	0	585	525	1021	0	0	0	
8	0	0	0	0	586	526	1021	0	0	0	
9	0	0	0	0	584	524	1021	0	0	0	
10	0	0	0	0	580	521	1021	0	0	0	
11	0	0	0	0	576	518	1021	0	0	0	
12	0	0	0	0	570	513	1021	0	0	0	
13	0	0	0	0	564	508	1021	0	0	0	
14	0	0	0	0	558	503	1021	0	0	0	
15	0	0	0	0	551	500	1021	0	0	0	
0	0	0	0	0	547	497	1021	0	0	0	
1	0	0	0	0	545	496	1021	0	0	0	
2	0	0	0	0	544	496	1021	0	0	0	
3	0	0	0	0	545	497	1021	1	0	0	
4	0	0	0	0	548	499	1021	0	0	0	
5	0	0	0	0	551	503	1021	0	0	0	
6	0	0	0	0	556	506	1021	0	0	0	
7	0	0	0	0	560	509	1021	0	0	0	
8	0	0	0	0	563	511	1021	0	0	0	
9	0	0	0	0	566	512	1021	0	0	0	
10	0	0	0	0	567	514	1021	0	0	0	
11	0	0	0	0	568	514	1021	0	0	0	
12	0	0	0	0	567	512	1021	0	0	0	
13	0	0	0	0	565	510	1021	0	0	0	
14	0	0	0	0	563	507	1021	0	0	0	
15	0	0	0	0	560	505	1021	0	0	0	
0	0	0	0	0	558	503	1021	0	0	0	
1	0	0	0	0	556	502	1021	0	0	0	
2	0	0	0	0	555	500	1021	0	0	0	
3	0	0	0	0	555	502	1021	0	0	0	
4	0	0	0	0	558	505	1021	0	0	0	
5	0	0	0	0	561	508	1021	0	0	0	
6	0	0	0	0	566	513	1021	0	0	0	
7	0	0	0	0	572	518	1021	0	0	0	
8	0	0	0	0	578	524	1021	0	0	0	
9	0	0	0	0	585	530	1021	0	0	0	
10	0	0	0	0	590	535	1021	0	0	0	
11	0	0	0	0	594	539	1021	0	0	0	
12	0	0	0	0	597	542	1021	0	0	0	
13	0	0	0	0	599	543	1021	0	0	0	
14	0	0	0	0	598	543	1021	0	0	0	
15	0	0	0	0	595	540	1021	0	0	0	
0	0	0	0	0	590	536	1021	0	0	0	
1	0	0	0	0	583	530	1021	0	0	0	
2	0	0	0	0	577	524	1021	0	0	0	
3	0	0	0	0	571	518	1021	0	0	0	
4	0	0	0	0	565	513	1021	0	0	0	
5	0	0	0	0	561	508	1021	0	0	0	
6	0	0	0	0	558	504	1021	0	0	0	
7	0	0	0	0	556	503	1021	0	0	0	
8	0	0	0	0	555	502	1021	0	0	0	
9	0	0	0	0	555	502	1021	0	0	0	
10	0	0	0	0	555	502	1021	0	0	0	
11	0	0	0	0	555	503	1021	0	0	0	
12	0	0	0	0	555	504	1021	0	0	0	
13	0	0	0	0	556	505	1021	0	0	0	
14	0	0	0	0	555	505	1021	0	0	0	
15	0	0	0	0	553	505	1021	0	0	0	
0	0	0	0	0	553	504	1021	0	0	0	
1	0	0	0	0	551	504	1021	0	0	0	
2	0	0	0	0	551	504	1021	0	0	0	
3	0	0	0	0	550	502	1021	0	0	0	
4	0	0	0	0	550	500	1021	0	0	0	
5	0	0	0	0	548	498	1021	0	0	0	
6	0	0	0	0	547	495	1021	0	0	0	
7	0	0	0	0	545	492	1021	0	0	0	
8	0	0	0	0	543	489	1021	0	0	0	
9	0	0	0	0	542	485	1021	0	0	0	
10	0	0	0	0	540	482	1021	0	0	0	
11	0	0	0	0	539	480	1021	0	0	0	
12	0	0	0	0	539	480	1021	0	0	0	
13	0	0	0	0	540	480	1021	0	0	0	
14	0	0	0	0	542	483	1021	0	0	0	
15	0	0	0	0	545	487	1021	0	0	0	
0	0	0	0	0	548	492	1021	0	0	0	
1	0	0	0	0	553	497	1021	0	0	0	
2	0	0	0	0	557	503	1021	0	0	0	
3	0	0	0	0	562	509	1021	0	0	0	
4	0	0	0	0	566	515	1021	0	0	0	
5	0	0	0	0	569	520	1021	0	0	0	
6	0	0	0	0	572	524	1021	0	0	0	
7	0	0	0	0	574	526	1021	0	0	0	
8	0	0	0	0	574	526	1021	0	0	0	
9	0	0	0	0	572	524	1021	0	0	0	
10	0	0	0	0	568	521	1020	0	0	0	
11	0	0	0	0	566	517	1021	0	0	0	
12	0	0	0	0	562	512	1021	0	0	0	
13	0	0	0	0	558	508	1021	0	0	0	
14	0	0	0	0	555	504	1021	0	0	0	
15	0	0	0	0	551	501	1021	0	0	0	
0	0	0	0	0	552	500	1021	0	0	0	
1	0	0	0	0	554	501	1021	0	0	0	
2	0	0	0	0	560	505	1021	0	0	0	
3	0	0	0	0	567	512	1021	0	0	0	
4	0	0	0	0	575	520	1021	0	0	0	
5	0	0	0	0	586	529	1021	0	0	0	
6	0	0	0	0	595	537	1021	0	0	0	
7	0	0	0	0	603	544	1021	0	0	0	
8	0	0	0	0	610	549	1021	0	0	0	
9	0	0	0	0	613	554	1021	0	0	0	
10	0	0	0	0	615	556	1021	0	0	0	
11	0	0	0	0	613	555	1021	0	0	0	
12	0	0	0	0	608	551	1021	0	0	0	
13	0	0	0	0	600	544	1021	0	0	0	
14	0	0	0	0	588	536	1021	0	0	0	
15	0	0	0	0	577	526	1021	0	0	0	
0	0	0	0	0	563	515	1021	0	0	0	
1	0	0	0	0	548	503	1021	0	0	0	
2	0	0	0	0	535	491	1021	0	0	0	
3	0	0	0	0	523	482	1021	0	0	0	
4	0	0	0	0	515	474	1021	0	0	0	
5	0	0	0	0	510	470	1021	0	0	0	
6	0	0	0	0	508	469	1021	0	0	0	
7	0	0	0	0	512	471	1021	0	0	0	
8	0	0	0	0	519	478	1021	0	0	0	
9	0	0	0	0	531	487	1021	0	0	0	
10	0	0	0	0	544	497	1021	0	0	0	
11	0	0	0	0	559	509	1021	0	0	0	
12	0	0	0	0	574	521	1021	0	0	0	
13	0	0	0	0	587	532	1021	0	0	0	
14	0	0	0	0	598	541	1021	0	0	0	
15	0	0	0	0	605	546	1021	0	0	0	
0	0	0	0	0	608	548	1021	0	0	0	
1	0	0	0	0	605	545	1021	0	0	0	
2	0	0	0	0	598	540	1020	0	0	0	
3	0	0	0	0	588	531	1021	0	0	0	
4	0	0	0	0	574	521	1021	0	0	0	
5	0	0	0	0	560	509	1021	0	0	0	
6	0	0	0	0	546	498	1021	0	0	0	
7	0	0	0	0	534	488	1021	0	0	0	
8	0	0	0	0	524	481	1021	0	0	0	
9	0	0	0	0	519	477	1021	0	0	0	
10	0	0	0	0	518	476	1021	0	0	0	
11	0	0	0	0	520	478	1020	0	0	0	
12	0	0	0	0	527	483	1021	0	0	0	
13	0	0	0	0	537	492	1021	0	0	0	
14	0	0	0	0	549	501	1021	0	0	0	
15	0	0	0	0	562	511	1021	0	0	0	
0	0	0	0	0	573	520	1021	0	0	0	
1	0	0	0	0	584	528	1021	0	0	0	
2	0	0	0	0	592	535	1021	0	0	0	
3	0	0	0	0	597	539	1021	0	0	0	
4	0	0	0	0	599	540	1021	0	0	0	
5	0	0	0	0	596	538	1021	0	0	0	
6	0	0	0	0	590	533	1021	0	0	0	
7	0	0	0	0	582	527	1021	0	0	0	
8	0	0	0	0	573	519	1021	0	0	0	
9	0	0	0	0	562	511	1021	0	0	0	
10	0	0	0	0	551	503	1021	0	0	0	
11	0	0	0	0	541	495	1021	0	0	0	
12	0	0	0	0	534	489	1021	0	0	0	
13	0	0	0	0	528	485	1021	0	0	0	
14	0	0	0	0	526	483	1021	0	0	0	
15	0	0	0	0	527	484	1021	0	0	0	
0	0	0	0	0	531	488	1021	0	0	0	
1	0	0	0	0	538	493	1021	0	0	0	
2	0	0	0	0	546	499	1021	0	0	0	
3	0	0	0	0	556	507	1021	0	0	0	
4	0	0	0	0	566	515	1021	0	0	0	
5	0	0	0	0	574	522	1021	0	0	0	
6	0	0	0	0	584	529	1021	0	0	0	
7	0	0	0	0	591	535	1021	0	0	0	
8	0	0	0	0	595	539	1021	0	0	0	
9	0	0	0	0	598	541	1021	0	0	0	
10	0	0	0	0	598	543	1021	0	0	0	
11	0	0	0	0	598	543	1021	0	0	0	
12	0	0	0	0	595	541	1021	0	0	0	
13	0	0	0	0	591	538	1021	0	0	0	
14	0	0	0	0	586	533	1021	0	0	0	
15	0	0	0	0	578	527	1021	0	0	0	
0	0	0	0	0	571	519	1021	0	0	0	
1	0	0	0	0	562	512	1021	0	0	0	
2	0	0	0	0	553	505	1021	0	0	0	
3	0	0	0	0	547	499	1021	0	0	0	
4	0	0	0	0	540	494	1021	0	0	0	
5	0	0	0	0	536	491	1021	0	0	0	
6	0	0	0	0	534	488	1021	0	0	0	
7	0	0	0	0	533	488	1021	0	0	0	
8	0	0	0	0	534	488	1021	0	0	0	
9	0	0	0	0	536	489	1021	0	0	0	
10	0	0	0	0	538	491	1021	0	0	0	
11	0	0	0	0	540	492	1021	0	0	0	
12	0	0	0	0	541	493	1021	0	0	0	
13	0	0	0	0	542	492	1021	0	0	0	
14	0	0	0	0	542	491	1021	0	0	0	
15	0	0	0	0	541	489	1021	0	0	0	
0	0	0	0	0	539	486	1021	0	0	0	
1	0	0	0	0	537	484	1021	0	0	0	
2	0	0	0	0	536	482	1021	0	0	0	
3	0	0	0	0	536	481	1020	0	0	0	
4	0	0	0	0	537	483	1021	0	0	0	
5	0	0	0	0	539	485	1021	0	0	0	
6	0	0	0	0	543	490	1021	0	0	0	
7	0	0	0	0	549	496	1021	0	0	0	
8	0	0	0	0	556	502	1021	0	0	0	
9	0	0	0	0	562	510	1021	0	0	0	
10	0	0	0	0	569	517	1021	0	0	0	
11	0	0	0	0	575	524	1021	0	0	0	
12	0	0	0	0	581	530	1021	0	0	0	
13	0	0	0	0	584	534	1021	0	0	0	
14	0	0	0	0	585	536	1021	0	0	0	
15	0	0	0	0	585	536	1021	0	0	0	
0	0	0	0	0	583	534	1021	0	0	0	
1	0	0	0	0	579	531	1020	0	0	0	
2	0	0	0	0	574	526	1021	0	0	0	
3	0	0	0	0	569	521	1021	0	0	0	
4	0	0	0	0	563	515	1021	0	0	0	
5	0	0	0	0	559	511	1021	0	0	0	
6	0	0	0	0	556	507	1021	0	0	0	
7	0	0	0	0	554	504	1021	0	0	0	
8	0	0	0	0	553	503	1021	0	0	0	
9	0	0	0	0	555	503	1021	0	0	0	
10	0	0	0	0	558	505	1021	0	0	0	
11	0	0	0	0	562	508	1021	0	0	0	
12	0	0	0	0	567	511	1021	0	0	0	
13	0	0	0	0	572	516	1021	0	0	0	
14	0	0	0	0	575	519	1021	0	0	0	
15	0	0	0	0	579	523	1021	0	0	0	
0	0	0	0	0	581	525	1021	0	0	0	
1	0	0	0	0	581	527	1021	0	0	0	
2	0	0	0	0	580	527	1021	0	0	0	
3	0	0	0	0	577	525	1021	0	0	0	
4	0	0	0	0	572	521	1021	0	0	0	
5	0	0	0	0	566	516	1021	0	0	0	
6	0	0	0	0	558	510	1021	0	0	0	
7	0	0	0	0	550	503	1021	0	0	0	
8	0	0	0	0	542	495	1021	0	0	0	
9	0	0	0	0	534	487	1021	0	0	0	
10	0	0	0	0	529	482	1021	0	0	0	
11	0	0	0	0	526	477	1021	0	0	0	
12	0	0	0	0	526	476	1021	0	0	0	
13	0	0	0	0	529	477	1021	0	0	0	
14	0	0	0	0	535	481	1021	0	0	0	
15	0	0	0	0	543	487	1021	0	0	0	
0	0	0	0	0	552	496	1021	0	0	0	
1	0	0	0	0	564	506	1021	0	0	0	
2	0	0	0	0	575	517	1021	0	0	0	
3	0	0	0	0	587	527	1021	0	0	0	
4	0	0	0	0	595	536	1021	0	0	0	
5	0	0	0	0	601	543	1021	0	0	0	
6	0	0	0	0	605	547	1021	0	0	0	
7	0	0	0	0	603	547	1021	0	0	0	
8	0	0	0	0	598	544	1021	0	0	0	
9	0	0	0	0	591	539	1021	0	0	0	
10	0	0	0	0	582	531	1021	0	0	0	
11	0	0	0	0	571	523	1021	0	0	0	
12	0	0	0	0	560	513	1021	0	0	0	
13	0	0	0	0	550	505	1021	0	0	0	
14	0	0	0	0	543	497	1021	0	0	0	
15	0	0	0	0	536	492	1020	0	0	0	
0	0	0	0	0	535	488	1021	0	0	0	
1	0	0	0	0	535	487	1021	0	0	0	
2	0	0	0	0	538	489	1021	0	0	0	
3	0	0	0	0	543	492	1021	0	0	0	
4	0	0	0	0	550	496	1020	0	0	0	
5	0	0	0	0	557	501	1021	0	0	0	
6	0	0	0	0	564	507	1021	0	0	0	
7	0	0	0	0	571	512	1021	0	0	0	
8	0	0	0	0	575	516	1021	0	0	0	
9	0	0	0	0	579	519	1021	0	0	0	
10	0	0	0	0	581	522	1021	0	0	0	
11	0	0	0	0	580	523	1021	0	0	0	
12	0	0	0	0	578	522	1021	0	0	0	
13	0	0	0	0	575	519	1021	0	0	0	
14	0	0	0	0	569	515	1021	0	0	0	
15	0	0	0	0	564	511	1021	0	0	0	
0	0	0	0	0	558	506	1021	0	0	0	
1	0	0	0	0	553	501	1021	0	0	0	
2	0	0	0	0	548	496	1021	0	0	0	
3	0	0	0	0	544	492	1021	0	0	0	
4	0	0	0	0	542	490	1021	0	0	0	
5	0	0	0	0	541	487	1021	0	0	0	
6	0	0	0	0	540	486	1021	0	0	0	
7	0	0	0	0	540	484	1021	0	0	0	
8	0	0	0	0	540	484	1021	0	0	0	
9	0	0	0	0	541	484	1021	0	0	0	
10	0	0	0	0	542	484	1021	0	0	0	
11	0	0	0	0	541	484	1021	0	0	0	
12	0	0	0	0	540	483	1021	0	0	0	
13	0	0	0	0	536	480	1021	0	0	0	
14	0	0	0	0	530	476	1021	0	0	0	
15	0	0	0	0	522	469	1021	0	0	0	
0	0	0	0	0	510	459	1021	0	0	0	
1	0	0	0	0	496	446	1021	0	0	0	
2	0	0	0	0	480	431	1021	0	0	0	
3	0	0	0	0	462	414	1021	0	0	0	
4	0	0	0	0	442	395	1021	0	0	0	
5	0	0	0	0	422	375	1021	0	0	0	
6	0	0	0	0	401	355	1021	0	0	0	
7	0	0	0	0	381	335	1021	0	0	0	
8	0	0	0	0	363	317	1021	0	0	0	
9	0	0	0	0	347	300	1021	0	0	0	
10	0	0	0	0	334	288	1021	0	0	0	
11	0	0	0	0	326	280	1021	0	0	0	
12	0	0	0	0	323	275	1021	0	0	0	
13	0	0	0	0	325	276	1021	0	0	0	
14	0	0	0	0	332	281	1021	0	0	0	
15	0	0	0	0	342	288	1021	0	0	0	
0	0	0	0	0	355	299	1021	0	0	0	
1	0	0	0	0	371	312	1021	0	0	0	
2	0	0	0	0	388	326	1020	0	0	0	
3	0	0	0	0	406	341	1021	0	0	0	
4	0	0	0	0	423	356	1021	0	0	0	
5	0	0	0	0	440	371	1021	0	0	0	
6	0	0	0	0	457	385	1021	0	0	0	
7	0	0	0	0	473	400	1021	0	0	0	
8	0	0	0	0	489	415	1021	0	0	0	
9	0	0	0	0	504	430	1021	0	0	0	
10	0	0	0	0	518	443	1021	0	0	0	
11	0	0	0	0	532	457	1021	0	0	0	
12	0	0	0	0	544	471	1021	0	0	0	
13	0	0	0	0	556	483	1021	0	0	0	
14	0	0	0	0	568	496	1021	0	0	0	
15	0	0	0	0	578	508	1021	0	0	0	
0	0	0	0	0	588	518	1021	0	0	0	
1	0	0	0	0	596	528	1021	0	0	0	
2	0	0	0	0	602	536	1021	0	0	0	
3	0	0	0	0	606	542	1021	0	0	0	
4	0	0	0	0	608	545	1021	0	0	0	
5	0	0	0	0	607	546	1021	0	0	0	
6	0	0	0	0	606	546	1021	0	0	0	
7	0	0	0	0	601	544	1021	0	0	0	
8	0	0	0	0	596	540	1021	0	0	0	
9	0	0	0	0	589	536	1020	0	0	0	
10	0	0	0	0	583	530	1021	0	0	0	
11	0	0	0	0	577	526	1021	0	0	0	
12	0	0	0	0	572	521	1021	0	0	0	
13	0	0	0	0	568	517	1021	0	0	0	
14	0	0	0	0	565	514	1021	0	0	0	
15	0	0	0	0	563	511	1021	0	0	0	
0	0	0	0	0	562	509	1021	0	0	0	
1	0	0	0	0	562	508	1021	0	0	0	
2	0	0	0	0	563	508	1021	0	0	0	
3	0	0	0	0	564	508	1021	0	0	0	
4	0	0	0	0	566	509	1021	0	0	0	
5	0	0	0	0	569	512	1021	0	0	0	
6	0	0	0	0	572	515	1021	0	0	0	
7	0	0	0	0	575	518	1021	0	0	0	
8	0	0	0	0	579	521	1021	0	0	0	
9	0	0	0	0	583	524	1021	0	0	0	
10	0	0	0	0	585	527	1021	0	0	0	
11	0	0	0	0	587	528	1021	0	0	0	
12	0	0	0	0	587	528	1021	0	0	0	
13	0	0	0	0	587	527	1021	0	0	0	
14	0	0	0	0	584	526	1021	0	0	0	
15	0	0	0	0	581	523	1021	0	0	0	
0	0	0	0	0	576	519	1021	0	0	0	
1	0	0	0	0	572	515	1021	0	0	0	
2	0	0	0	0	566	510	1021	0	0	0	
3	0	0	0	0	561	506	1020	0	0	0	
4	0	0	0	0	557	503	1021	0	0	0	
5	0	0	0	0	555	501	1021	0	0	0	
6	0	0	0	0	554	501	1021	0	0	0	
7	0	0	0	0	556	504	1021	0	0	0	
8	0	0	0	0	561	507	1021	0	0	0	
9	0	0	0	0	567	514	1021	0	0	0	
10	0	0	0	0	575	521	1021	0	0	0	
11	0	0	0	0	583	529	1021	0	0	0	
12	0	0	0	0	591	538	1021	0	0	0	
13	0	0	0	0	600	544	1021	0	0	0	
14	0	0	0	0	607	552	1021	0	0	0	
15	0	0	0	0	613	558	1021	0	0	0	
0	0	0	0	0	618	562	1021	0	0	0	
1	0	0	0	0	622	564	1021	0	0	0	
2	0	0	0	0	623	565	1021	0	0	0	
3	0	0	0	0	621	564	1021	0	0	0	
4	0	0	0	0	618	560	1021	0	0	0	
5	0	0	0	0	613	554	1021	0	0	0	
6	0	0	0	0	604	546	1021	0	0	0	
7	0	0	0	0	595	537	1021	0	0	0	
8	0	0	0	0	585	529	1021	0	0	0	
9	0	0	0	0	575	519	1021	0	0	0	
10	0	0	0	0	564	511	1021	0	0	0	
11	0	0	0	0	556	504	1021	0	0	0	
12	0	0	0	0	548	498	1021	0	0	0	
13	0	0	0	0	542	495	1021	0	0	0	
14	0	0	0	0	539	493	1021	0	0	0	
15	0	0	0	0	537	493	1021	0	0	0	
0	0	0	0	0	539	494	1021	0	0	0	
1	0	0	0	0	540	497	1021	0	0	0	
2	0	0	0	0	545	500	1021	0	0	0	
3	0	0	0	0	550	504	1021	0	0	0	
4	0	0	0	0	553	505	1021	0	0	0	
5	0	0	0	0	557	507	1021	0	0	0	
6	0	0	0	0	559	506	1021	0	0	0	
7	0	0	0	0	560	505	1021	0	0	0	
8	0	0	0	0	560	503	1021	0	0	0	
9	0	0	0	0	559	500	1021	0	0	0	
10	0	0	0	0	558	497	1021	0	0	0	
11	0	0	0	0	556	495	1021	0	0	0	
12	0	0	0	0	555	495	1021	0	0	0	
13	0	0	0	0	554	495	1021	0	0	0	
14	0	0	0	0	556	497	1021	0	0	0	
15	0	0	0	0	558	500	1021	0	0	0	
0	0	0	0	0	562	505	1021	0	0	0	
1	0	0	0	0	568	511	1021	0	0	0	
2	0	0	0	0	574	519	1021	0	0	0	
3	0	0	0	0	580	525	1021	0	0	0	
4	0	0	0	0	588	532	1021	0	0	0	
5	0	0	0	0	593	537	1021	0	0	0	
6	0	0	0	0	598	542	1021	0	0	0	
7	0	0	0	0	600	544	1021	0	0	0	
8	0	0	0	0	600	544	1021	0	0	0	
9	0	0	0	0	598	542	1021	0	0	0	
10	0	0	0	0	593	537	1021	0	0	0	
11	0	0	0	0	587	531	1021	0	0	0	
12	0	0	0	0	579	525	1021	0	0	0	
13	0	0	0	0	571	518	1021	0	0	0	
14	0	0	0	0	563	510	1021	0	0	0	
15	0	0	0	0	556	504	1021	0	0	0	
0	0	0	0	0	550	500	1021	0	0	0	
1	0	0	0	0	547	497	1021	0	0	0	
2	0	0	0	0	545	497	1021	0	0	0	
3	0	0	0	0	547	499	1021	0	0	0	
4	0	0	0	0	551	503	1021	0	0	0	
5	0	0	0	0	558	510	1021	0	0	0	
6	0	0	0	0	566	516	1021	0	0	0	
7	0	0	0	0	574	524	1021	0	0	0	
8	0	0	0	0	582	531	1021	0	0	0	
9	0	0	0	0	590	538	1021	0	0	0	
10	0	0	0	0	596	543	1021	0	0	0	
11	0	0	0	0	600	545	1021	0	0	0	
12	0	0	0	0	600	546	1021	0	0	0	
13	0	0	0	0	598	544	1021	0	0	0	
14	0	0	0	0	592	539	1021	0	0	0	
15	0	0	0	0	585	533	1021	0	0	0	
0	0	0	0	0	575	524	1021	0	0	0	
1	0	0	0	0	564	516	1021	0	0	0	
2	0	0	0	0	555	507	1021	0	0	0	
3	0	0	0	0	545	499	1021	0	0	0	
4	0	0	0	0	539	493	1021	0	0	0	
5	0	0	0	0	534	490	1021	0	0	0	
6	0	0	0	0	534	490	1021	0	0	0	
7	0	0	0	0	537	493	1021	0	0	0	
8	0	0	0	0	544	498	1021	0	0	0	
9	0	0	0	0	554	507	1021	0	0	0	
10	0	0	0	0	566	517	1021	0	0	0	
11	0	0	0	0	580	529	1021	0	0	0	
12	0	0	0	0	594	541	1021	0	0	0	
13	0	0	0	0	608	552	1021	0	0	0	
14	0	0	0	0	621	563	1021	0	0	0	
15	0	0	0	0	629	569	1021	0	0	0	
0	0	0	0	0	633	571	1021	0	0	0	
1	0	0	0	0	631	568	1021	0	0	0	
2	0	0	0	0	624	561	1021	0	0	0	
3	0	0	0	0	611	549	1021	0	0	0	
4	0	0	0	0	594	534	1021	0	0	0	
5	0	0	0	0	574	518	1021	0	0	0	
6	0	0	0	0	553	499	1021	0	0	0	
7	0	0	0	0	531	483	1021	0	0	0	
8	0	0	0	0	514	468	1021	0	0	0	
9	0	0	0	0	499	457	1021	0	0	0	
10	0	0	0	0	489	449	1021	0	0	0	
11	0	0	0	0	484	445	1021	0	0	0	
12	0	0	0	0	484	446	1020	0	0	0	
13	0	0	0	0	491	450	1021	0	0	0	
14	0	0	0	0	500	457	1021	0	0	0	
15	0	0	0	0	512	466	1021	0	0	0	
0	0	0	0	0	526	475	1021	0	0	0	
1	0	0	0	0	538	485	1021	0	0	0	
2	0	0	0	0	551	493	1021	0	0	0	
3	0	0	0	0	561	499	1021	0	0	0	
4	0	0	0	0	568	504	1021	0	0	0	
5	0	0	0	0	572	506	1021	0	0	0	
6	0	0	0	0	572	507	1020	0	0	0	
7	0	0	0	0	572	506	1021	0	0	0	
8	0	0	0	0	568	504	1021	0	0	0	
9	0	0	0	0	563	502	1021	0	0	0	
10	0	0	0	0	559	499	1021	0	0	0	
11	0	0	0	0	553	497	1021	0	0	0	
12	0	0	0	0	550	495	1021	0	0	0	
13	0	0	0	0	547	495	1021	0	0	0	
14	0	0	0	0	546	495	1021	0	0	0	
15	0	0	0	0	546	496	1021	0	0	0	
0	0	0	0	0	547	498	1021	0	0	0	
1	0	0	0	0	550	502	1021	0	0	0	
2	0	0	0	0	553	505	1021	0	0	0	
3	0	0	0	0	557	509	1021	0	0	0	
4	0	0	0	0	561	513	1021	0	0	0	
5	0	0	0	0	564	517	1021	0	0	0	
6	0	0	0	0	568	519	1021	0	0	0	
7	0	0	0	0	569	520	1021	0	0	0	
8	0	0	0	0	570	520	1021	0	0	0	
9	0	0	0	0	569	518	1021	0	0	0	
10	0	0	0	0	565	515	1021	0	0	0	
11	0	0	0	0	562	510	1021	0	0	0	
12	0	0	0	0	556	504	1021	0	0	0	
13	0	0	0	0	550	497	1021	0	0	0	
14	0	0	0	0	544	491	1021	0	0	0	
15	0	0	0	0	537	485	1021	0	0	0	
0	0	0	0	0	532	479	1021	0	0	0	
1	0	0	0	0	527	476	1021	0	0	0	
2	0	0	0	0	524	473	1021	0	0	0	
3	0	0	0	0	524	473	1021	0	0	0	
4	0	0	0	0	525	476	1021	0	0	0	
5	0	0	0	0	529	480	1021	0	0	0	
6	0	0	0	0	534	485	1021	0	0	0	
7	0	0	0	0	542	492	1021	0	0	0	
8	0	0	0	0	549	499	1021	0	0	0	
9	0	0	0	0	558	507	1021	0	0	0	
10	0	0	0	0	566	513	1021	0	0	0	
11	0	0	0	0	572	519	1021	0	0	0	
12	0	0	0	0	577	523	1021	0	0	0	
13	0	0	0	0	581	526	1021	0	0	0	
14	0	0	0	0	583	527	1021	0	0	0	
15	0	0	0	0	583	528	1021	0	0	0	
0	0	0	0	0	582	527	1021	0	0	0	
1	0	0	0	0	578	524	1021	0	0	0	
2	0	0	0	0	573	518	1021	0	0	0	
3	0	0	0	0	566	512	1021	0	0	0	
4	0	0	0	0	559	505	1021	0	0	0	
5	0	0	0	0	551	498	1021	0	0	0	
6	0	0	0	0	544	492	1021	0	0	0	
7	0	0	0	0	538	487	1021	0	0	0	
8	0	0	0	0	533	483	1021	0	0	0	
9	0	0	0	0	530	481	1021	0	0	0	
10	0	0	0	0	529	480	1021	0	0	0	
11	0	0	0	0	529	480	1021	0	0	0	
12	0	0	0	0	529	481	1021	0	0	0	
13	0	0	0	0	531	483	1021	0	0	0	
14	0	0	0	0	532	484	1021	0	0	0	
15	0	0	0	0	534	485	1021	0	0	0	
0	0	0	0	0	535	485	1021	0	0	0	
1	0	0	0	0	535	484	1021	0	0	0	
2	0	0	0	0	534	481	1021	0	0	0	
3	0	0	0	0	531	478	1021	0	0	0	
4	0	0	0	0	529	475	1021	0	0	0	
5	0	0	0	0	526	471	1021	0	0	0	
6	0	0	0	0	523	467	1021	0	0	0	
7	0	0	0	0	521	464	1021	0	0	0	
8	0	0	0	0	521	463	1021	0	0	0	
9	0	0	0	0	521	463	1021	0	0	0	
10	0	0	0	0	524	466	1021	0	0	0	
11	0	0	0	0	528	470	1021	0	0	0	
12	0	0	0	0	534	476	1021	0	0	0	
13	0	0	0	0	540	483	1021	0	0	0	
14	0	0	0	0	547	491	1021	0	0	0	
15	0	0	0	0	555	499	1021	0	0	0	
0	0	0	0	0	561	505	1021	0	0	0	
1	0	0	0	0	566	510	1021	0	0	0	
2	0	0	0	0	569	514	1021	0	0	0	
3	0	0	0	0	570	514	1021	0	0	0	
4	0	0	0	0	568	512	1021	0	0	0	
5	0	0	0	0	563	507	1021	0	0	0	
6	0	0	0	0	556	500	1021	0	0	0	
7	0	0	0	0	549	494	1021	0	0	0	
8	0	0	0	0	541	486	1021	0	0	0	
9	0	0	0	0	533	479	1021	0	0	0	
10	0	0	0	0	527	473	1021	0	0	0	
11	0	0	0	0	522	468	1021	0	0	0	
12	0	0	0	0	520	466	1021	0	0	0	
13	0	0	0	0	520	467	1021	0	0	0	
14	0	0	0	0	523	470	1021	0	0	0	
15	0	0	0	0	529	475	1021	0	0	0	
0	0	0	0	0	536	481	1021	0	0	0	
1	0	0	0	0	544	489	1021	0	0	0	
2	0	0	0	0	553	499	1021	0	0	0	
3	0	0	0	0	561	507	1021	0	0	0	
4	0	0	0	0	569	515	1021	0	0	0	
5	0	0	0	0	575	521	1021	0	0	0	
6	0	0	0	0	580	527	1021	0	0	0	
7	0	0	0	0	582	529	1021	0	0	0	
8	0	0	0	0	581	529	1021	0	0	0	
9	0	0	0	0	578	527	1021	0	0	0	
10	0	0	0	0	572	520	1021	0	0	0	
11	0	0	0	0	565	513	1021	0	0	0	
12	0	0	0	0	556	505	1021	0	0	0	
13	0	0	0	0	547	496	1021	0	0	0	
14	0	0	0	0	537	487	1021	0	0	0	
15	0	0	0	0	529	480	1021	0	0	0	
0	0	0	0	0	525	475	1021	0	0	0	
1	0	0	0	0	521	471	1021	0	0	0	
2	0	0	0	0	520	471	1021	0	0	0	
3	0	0	0	0	523	473	1021	0	0	0	
4	0	0	0	0	528	477	1020	0	0	0	
5	0	0	0	0	535	483	1021	0	0	0	
6	0	0	0	0	544	492	1021	0	0	0	
7	0	0	0	0	554	501	1021	0	0	0	
8	0	0	0	0	564	510	1021	0	0	0	
9	0	0	0	0	574	519	1021	0	0	0	
10	0	0	0	0	583	527	1021	0	0	0	
11	0	0	0	0	588	532	1021	0	0	0	
12	0	0	0	0	591	536	1021	0	0	0	
13	0	0	0	0	591	535	1021	0	0	0	
14	0	0	0	0	586	531	1021	0	0	0	
15	0	0	0	0	580	526	1021	0	0	0	
0	0	0	0	0	571	518	1021	0	0	0	
1	0	0	0	0	561	508	1021	0	0	0	
2	0	0	0	0	549	497	1021	1	0	0	
3	0	0	0	0	538	487	1021	0	0	0	
4	0	0	0	0	527	477	1021	0	0	0	
5	0	0	0	0	517	469	1021	0	0	0	
6	0	0	0	0	510	463	1021	0	0	0	
7	0	0	0	0	505	460	1021	0	0	0	
8	0	0	0	0	504	460	1021	0	0	0	
9	0	0	0	0	508	463	1021	0	0	0	
10	0	0	0	0	513	469	1021	0	0	0	
11	0	0	0	0	521	476	1021	0	0	0	
12	0	0	0	0	530	483	1021	0	0	0	
13	0	0	0	0	539	490	1021	0	0	0	
14	0	0	0	0	547	497	1021	0	0	0	
15	0	0	0	0	553	501	1021	0	0	0	
0	0	0	0	0	557	503	1021	0	0	0	
1	0	0	0	0	559	503	1021	0	0	0	
2	0	0	0	0	557	501	1020	0	0	0	
3	0	0	0	0	554	498	1021	0	0	0	
4	0	0	0	0	550	494	1021	0	0	0	
5	0	0	0	0	544	489	1021	0	0	0	
6	0	0	0	0	540	485	1021	0	0	0	
7	0	0	0	0	535	481	1021	0	0	0	
8	0	0	0	0	532	480	1021	0	0	0	
9	0	0	0	0	531	480	1021	0	0	0	
10	0	0	0	0	531	480	1021	0	0	0	
11	0	0	0	0	533	483	1021	0	0	0	
12	0	0	0	0	536	486	1021	0	0	0	
13	0	0	0	0	541	492	1021	0	0	0	
14	0	0	0	0	545	496	1021	0	0	0	
15	0	0	0	0	551	501	1021	0	0	0	
0	0	0	0	0	556	506	1021	0	0	0	
1	0	0	0	0	561	510	1021	0	0	0	
2	0	0	0	0	565	513	1021	0	0	0	
3	0	0	0	0	567	515	1021	0	0	0	
4	0	0	0	0	567	515	1021	0	0	0	
5	0	0	0	0	565	513	1021	0	0	0	
6	0	0	0	0	561	510	1020	0	0	0	
7	0	0	0	0	557	505	1021	0	0	0	
8	0	0	0	0	551	499	1021	0	0	0	
9	0	0	0	0	544	492	1021	0	0	0	
10	0	0	0	0	537	485	1021	0	0	0	
11	0	0	0	0	530	478	1021	0	0	0	
12	0	0	0	0	524	472	1021	0	0	0	
13	0	0	0	0	519	468	1021	0	0	0	
14	0	0	0	0	516	466	1021	0	0	0	
15	0	0	0	0	516	466	1021	0	0	0	
0	0	0	0	0	518	468	1021	0	0	0	
1	0	0	0	0	522	473	1021	0	0	0	
2	0	0	0	0	528	480	1021	0	0	0	
3	0	0	0	0	536	488	1021	0	0	0	
4	0	0	0	0	547	497	1021	0	0	0	
5	0	0	0	0	556	506	1020	0	0	0	
6	0	0	0	0	565	514	1021	0	0	0	
7	0	0	0	0	572	520	1021	0	0	0	
8	0	0	0	0	576	523	1021	0	0	0	
9	0	0	0	0	576	523	1021	0	0	0	
10	0	0	0	0	573	519	1021	0	0	0	
11	0	0	0	0	567	513	1021	0	0	0	
12	0	0	0	0	558	505	1021	0	0	0	
13	0	0	0	0	547	496	1021	0	0	0	
14	0	0	0	0	536	486	1021	0	0	0	
15	0	0	0	0	525	475	1021	0	0	0	
0	0	0	0	0	516	468	1021	0	0	0	
1	0	0	0	0	508	462	1021	0	0	0	
2	0	0	0	0	504	458	1021	0	0	0	
3	0	0	0	0	504	457	1021	0	0	0	
4	0	0	0	0	505	457	1021	0	0	0	
5	0	0	0	0	510	462	1021	0	0	0	
6	0	0	0	0	516	468	1021	0	0	0	
7	0	0	0	0	524	475	1021	0	0	0	
8	0	0	0	0	532	482	1021	0	0	0	
9	0	0	0	0	541	489	1021	0	0	0	
10	0	0	0	0	550	496	1021	0	0	0	
11	0	0	0	0	556	502	1021	0	0	0	
12	0	0	0	0	560	505	1021	0	0	0	
13	0	0	0	0	562	507	1021	0	0	0	
14	0	0	0	0	561	504	1021	0	0	0	
15	0	0	0	0	558	501	1021	0	0	0	
0	0	0	0	0	551	495	1021	0	0	0	
1	0	0	0	0	543	488	1021	0	0	0	
2	0	0	0	0	534	480	1021	0	0	0	
3	0	0	0	0	525	473	1021	0	0	0	
4	0	0	0	0	518	467	1021	0	0	0	
5	0	0	0	0	513	464	1021	0	0	0	
6	0	0	0	0	510	463	1021	0	0	0	
7	0	0	0	0	510	465	1021	0	0	0	
8	0	0	0	0	513	469	1021	0	0	0	
9	0	0	0	0	519	475	1021	0	0	0	
10	0	0	0	0	527	483	1021	0	0	0	
11	0	0	0	0	535	490	1021	0	0	0	
12	0	0	0	0	543	498	1021	0	0	0	
13	0	0	0	0	551	504	1021	0	0	0	
14	0	0	0	0	559	510	1021	0	0	0	
15	0	0	0	0	563	514	1021	0	0	0	
0	0	0	0	0	567	516	1021	0	0	0	
1	0	0	0	0	567	515	1021	0	0	0	
2	0	0	0	0	564	512	1021	0	0	0	
3	0	0	0	0	560	507	1021	0	0	0	
4	0	0	0	0	554	501	1021	0	0	0	
5	0	0	0	0	548	495	1021	0	0	0	
6	0	0	0	0	540	487	1021	0	0	0	
7	0	0	0	0	535	482	1021	0	0	0	
8	0	0	0	0	530	478	1021	0	0	0	
9	0	0	0	0	526	475	1021	0	0	0	
10	0	0	0	0	525	475	1021	0	0	0	
11	0	0	0	0	525	476	1021	0	0	0	
12	0	0	0	0	527	477	1021	0	0	0	
13	0	0	0	0	530	481	1021	0	0	0	
14	0	0	0	0	533	484	1021	0	0	0	
15	0	0	0	0	536	487	1021	0	0	0	
0	0	0	0	0	537	489	1021	0	0	0	
1	0	0	0	0	537	490	1021	0	0	0	
2	0	0	0	0	537	489	1021	0	0	0	
3	0	0	0	0	535	488	1021	0	0	0	
4	0	0	0	0	531	485	1021	0	0	0	
5	0	0	0	0	527	481	1021	0	0	0	
6	0	0	0	0	521	476	1021	0	0	0	
7	0	0	0	0	515	471	1021	0	0	0	
8	0	0	0	0	511	466	1021	0	0	0	
9	0	0	0	0	508	462	1021	0	0	0	
10	0	0	0	0	505	459	1021	0	0	0	
11	0	0	0	0	505	457	1021	0	0	0	
12	0	0	0	0	506	458	1021	0	0	0	
13	0	0	0	0	509	460	1021	0	0	0	
14	0	0	0	0	513	464	1021	0	0	0	
15	0	0	0	0	519	470	1021	0	0	0	
0	0	0	0	0	526	476	1021	0	0	0	
1	0	0	0	0	534	483	1021	0	0	0	
2	0	0	0	0	540	490	1021	0	0	0	
3	0	0	0	0	545	495	1021	0	0	0	
4	0	0	0	0	549	499	1021	0	0	0	
5	0	0	0	0	551	502	1021	0	0	0	
6	0	0	0	0	551	503	1021	0	0	0	
7	0	0	0	0	550	501	1021	0	0	0	
8	0	0	0	0	545	498	1021	0	0	0	
9	0	0	0	0	540	494	1021	0	0	0	
10	0	0	0	0	535	489	1021	0	0	0	
11	0	0	0	0	529	483	1021	0	0	0	
12	0	0	0	0	523	479	1021	0	0	0	
13	0	0	0	0	518	474	1021	0	0	0	
14	0	0	0	0	515	470	1021	0	0	0	
15	0	0	0	0	513	467	1021	0	0	0	
0	0	0	0	0	513	467	1021	0	0	0	
1	0	0	0	0	515	468	1021	0	0	0	
2	0	0	0	0	519	472	1021	0	0	0	
3	0	0	0	0	526	477	1021	0	0	0	
4	0	0	0	0	533	484	1021	0	0	0	
5	0	0	0	0	543	492	1021	0	0	0	
6	0	0	0	0	551	499	1021	0	0	0	
7	0	0	0	0	559	507	1021	0	0	0	
8	0	0	0	0	566	513	1021	0	0	0	
9	0	0	0	0	571	519	1021	0	0	0	
10	0	0	0	0	575	523	1021	0	0	0	
11	0	0	0	0	575	524	1021	0	0	0	
12	0	0	0	0	574	523	1021	0	0	0	
13	0	0	0	0	570	520	1021	0	0	0	
14	0	0	0	0	563	514	1021	0	0	0	
15	0	0	0	0	555	507	1021	0	0	0	
0	0	0	0	0	544	498	1021	0	0	0	
1	0	0	0	0	534	489	1021	0	0	0	
2	0	0	0	0	523	480	1021	0	0	0	
3	0	0	0	0	515	471	1021	0	0	0	
4	0	0	0	0	509	465	1021	0	0	0	
5	0	0	0	0	504	461	1021	0	0	0	
6	0	0	0	0	504	460	1021	0	0	0	
7	0	0	0	0	505	460	1021	0	0	0	
8	0	0	0	0	509	463	1021	0	0	0	
9	0	0	0	0	516	468	1021	0	0	0	
10	0	0	0	0	525	475	1021	0	0	0	
11	0	0	0	0	534	483	1021	0	0	0	
12	0	0	0	0	544	490	1021	0	0	0	
13	0	0	0	0	553	497	1021	0	0	0	
14	0	0	0	0	561	504	1021	0	0	0	
15	0	0	0	0	567	508	1021	0	0	0	
0	0	0	0	0	570	511	1021	0	0	0	
1	0	0	0	0	571	511	1021	0	0	0	
2	0	0	0	0	568	511	1021	0	0	0	
3	0	0	0	0	566	509	1021	0	0	0	
4	0	0	0	0	561	505	1021	0	0	0	
5	0	0	0	0	555	502	1021	0	0	0	
6	0	0	0	0	548	496	1021	0	0	0	
7	0	0	0	0	542	492	1021	0	0	0	
8	0	0	0	0	536	487	1021	0	0	0	
9	0	0	0	0	530	483	1021	0	0	0	
10	0	0	0	0	525	481	1021	0	0	0	
11	0	0	0	0	522	479	1021	0	0	0	
12	0	0	0	0	520	478	1021	0	0	0	
13	0	0	0	0	520	479	1021	0	0	0	
14	0	0	0	0	521	480	1021	0	0	0	
15	0	0	0	0	522	481	1021	0	0	0	
0	0	0	0	0	524	482	1021	0	0	0	
1	0	0	0	0	526	484	1021	0	0	0	
2	0	0	0	0	529	486	1020	0	0	0	
3	0	0	0	0	530	486	1021	0	0	0	
4	0	0	0	0	531	486	1021	0	0	0	
5	0	0	0	0	532	485	1021	0	0	0	
6	0	0	0	0	532	484	1021	0	0	0	
7	0	0	0	0	532	483	1021	0	0	0	
8	0	0	0	0	532	482	1021	0	0	0	
9	0	0	0	0	531	481	1021	0	0	0	
10	0	0	0	0	531	480	1021	0	0	0	
11	0	0	0	0	531	480	1020	0	0	0	
12	0	0	0	0	532	480	1021	0	0	0	
13	0	0	0	0	534	482	1021	0	0	0	
14	0	0	0	0	536	484	1021	0	0	0	
15	0	0	0	0	540	487	1021	0	0	0	
0	0	0	0	0	543	491	1021	0	0	0	
1	0	0	0	0	548	495	1021	0	0	0	
2	0	0	0	0	552	499	1021	0	0	0	
3	0	0	0	0	556	504	1021	0	0	0	
4	0	0	0	0	560	507	1021	0	0	0	
5	0	0	0	0	561	509	1021	0	0	0	
6	0	0	0	0	563	511	1021	0	0	0	
7	0	0	0	0	562	511	1021	0	0	0	
8	0	0	0	0	560	511	1021	0	0	0	
9	0	0	0	0	558	508	1021	0	0	0	
10	0	0	0	0	553	505	1021	0	0	0	
11	0	0	0	0	548	502	1021	0	0	0	
12	0	0	0	0	542	496	1021	0	0	0	
13	0	0	0	0	536	491	1021	0	0	0	
14	0	0	0	0	529	484	1021	0	0	0	
15	0	0	0	0	523	480	1021	0	0	0	
0	0	0	0	0	519	475	1021	0	0	0	
1	0	0	0	0	515	473	1021	0	0	0	
2	0	0	0	0	513	472	1021	0	0	0	
3	0	0	0	0	516	474	1021	0	0	0	
4	0	0	0	0	520	479	1021	0	0	0	
5	0	0	0	0	528	486	1021	0	0	0	
6	0	0	0	0	537	494	1021	0	0	0	
7	0	0	0	0	547	502	1021	0	0	0	
8	0	0	0	0	556	509	1021	0	0	0	
9	0	0	0	0	563	515	1021	0	0	0	
10	0	0	0	0	568	518	1021	0	0	0	
11	0	0	0	0	569	518	1021	0	0	0	
12	0	0	0	0	568	515	1021	0	0	0	
13	0	0	0	0	563	510	1021	0	0	0	
14	0	0	0	0	554	502	1021	0	0	0	
15	0	0	0	0	545	493	1021	0	0	0	
0	0	0	0	0	533	483	1021	0	0	0	
1	0	0	0	0	523	474	1021	0	0	0	
2	0	0	0	0	513	465	1021	0	0	0	
3	0	0	0	0	505	460	1020	0	0	0	
4	0	0	0	0	501	456	1021	0	0	0	
5	0	0	0	0	499	455	1021	0	0	0	
6	0	0	0	0	500	456	1021	0	0	0	
7	0	0	0	0	504	460	1021	0	0	0	
8	0	0	0	0	509	465	1021	0	0	0	
9	0	0	0	0	517	472	1021	0	0	0	
10	0	0	0	0	526	479	1021	0	0	0	
11	0	0	0	0	535	487	1021	0	0	0	
12	0	0	0	0	544	494	1021	0	0	0	
13	0	0	0	0	551	501	1020	0	0	0	
14	0	0	0	0	559	507	1021	0	0	0	
15	0	0	0	0	564	511	1021	0	0	0	
0	0	0	0	0	567	512	1021	0	0	0	
1	0	0	0	0	567	511	1021	0	0	0	
2	0	0	0	0	563	508	1020	0	0	0	
3	0	0	0	0	558	502	1021	0	0	0	
4	0	0	0	0	549	494	1021	0	0	0	
5	0	0	0	0	539	485	1021	0	0	0	
6	0	0	0	0	528	475	1021	0	0	0	
7	0	0	0	0	517	466	1020	0	0	0	
8	0	0	0	0	509	458	1021	0	0	0	
9	0	0	0	0	502	452	1021	0	0	0	
10	0	0	0	0	497	449	1021	0	0	0	
11	0	0	0	0	497	449	1021	0	0	0	
12	0	0	0	0	499	452	1020	0	0	0	
13	0	0	0	0	505	458	1021	0	0	0	
14	0	0	0	0	513	465	1021	0	0	0	
15	0	0	0	0	522	474	1021	0	0	0	
0	0	0	0	0	531	482	1020	0	0	0	
1	0	0	0	0	540	489	1021	0	0	0	
2	0	0	0	0	547	494	1021	0	0	0	
3	0	0	0	0	551	497	1021	0	0	0	
4	0	0	0	0	553	498	1021	0	0	0	
5	0	0	0	0	552	496	1021	0	0	0	
6	0	0	0	0	549	492	1021	0	0	0	
7	0	0	0	0	543	486	1021	0	0	0	
8	0	0	0	0	536	479	1021	0	0	0	
9	0	0	0	0	528	472	1021	0	0	0	
10	0	0	0	0	520	465	1021	0	0	0	
11	0	0	0	0	513	460	1021	0	0	0	
12	0	0	0	0	509	456	1021	0	0	0	
13	0	0	0	0	506	455	1021	0	0	0	
14	0	0	0	0	507	456	1021	0	0	0	
15	0	0	0	0	510	460	1021	0	0	0	
0	0	0	0	0	514	465	1021	0	0	0	
1	0	0	0	0	521	472	1021	0	0	0	
2	0	0	0	0	528	479	1021	0	0	0	
3	0	0	0	0	536	487	1021	0	0	0	
4	0	0	0	0	545	494	1021	0	0	0	
5	0	0	0	0	553	501	1021	0	0	0	
6	0	0	0	0	560	507	1021	0	0	0	
7	0	0	0	0	565	511	1021	0	0	0	
8	0	0	0	0	568	513	1021	0	0	0	
9	0	0	0	0	567	512	1021	0	0	0	
10	0	0	0	0	563	509	1021	0	0	0	
11	0	0	0	0	558	504	1021	0	0	0	
12	0	0	0	0	549	497	1021	0	0	0	
13	0	0	0	0	540	488	1021	0	0	0	
14	0	0	0	0	530	480	1021	0	0	0	
15	0	0	0	0	520	472	1021	0	0	0	
0	0	0	0	0	513	466	1021	0	0	0	
1	0	0	0	0	507	462	1021	0	0	0	
2	0	0	0	0	505	460	1021	0	0	0	
3	0	0	0	0	505	462	1021	0	0	0	
4	0	0	0	0	508	464	1021	0	0	0	
5	0	0	0	0	513	469	1021	0	0	0	
6	0	0	0	0	519	475	1021	0	0	0	
7	0	0	0	0	526	481	1021	0	0	0	
8	0	0	0	0	535	487	1021	0	0	0	
9	0	0	0	0	542	492	1021	0	0	0	
10	0	0	0	0	548	497	1021	0	0	0	
11	0	0	0	0	553	500	1021	0	0	0	
12	0	0	0	0	557	502	1021	0	0	0	
13	0	0	0	0	559	503	1021	0	0	0	
14	0	0	0	0	559	501	1021	0	0	0	
15	0	0	0	0	558	499	1021	0	0	0	
0	0	0	0	0	556	497	1021	0	0	0	
1	0	0	0	0	553	494	1021	0	0	0	
2	0	0	0	0	550	492	1021	0	0	0	
3	0	0	0	0	546	488	1021	0	0	0	
4	0	0	0	0	543	487	1021	0	0	0	
5	0	0	0	0	540	486	1021	0	0	0	
6	0	0	0	0	538	486	1021	0	0	0	
7	0	0	0	0	538	488	1021	0	0	0	
8	0	0	0	0	539	490	1021	0	0	0	
9	0	0	0	0	542	494	1021	0	0	0	
10	0	0	0	0	545	498	1021	0	0	0	
11	0	0	0	0	548	502	1021	0	0	0	
12	0	0	0	0	551	504	1021	0	0	0	
13	0	0	0	0	553	506	1020	0	0	0	
14	0	0	0	0	556	507	1021	0	0	0	
15	0	0	0	0	556	507	1021	0	0	0	
0	0	0	0	0	555	505	1021	0	0	0	
1	0	0	0	0	553	503	1021	0	0	0	
2	0	0	0	0	551	499	1021	0	0	0	
3	0	0	0	0	549	496	1021	0	0	0	
4	0	0	0	0	546	493	1021	0	0	0	
5	0	0	0	0	543	491	1021	0	0	0	
6	0	0	0	0	542	488	1021	0	0	0	
7	0	0	0	0	541	487	1021	0	0	0	
8	0	0	0	0	542	488	1021	0	0	0	
9	0	0	0	0	543	490	1021	0	0	0	
10	0	0	0	0	546	493	1021	0	0	0	
11	0	0	0	0	550	497	1021	0	0	0	
12	0	0	0	0	554	501	1021	0	0	0	
13	0	0	0	0	558	506	1021	0	0	0	
14	0	0	0	0	561	510	1021	0	0	0	
15	0	0	0	0	564	513	1021	0	0	0	
0	0	0	0	0	565	516	1021	0	0	0	
1	0	0	0	0	564	515	1021	0	0	0	
2	0	0	0	0	562	514	1021	0	0	0	
3	0	0	0	0	556	510	1021	0	0	0	
4	0	0	0	0	547	503	1021	0	0	0	
5	0	0	0	0	536	493	1021	0	0	0	
6	0	0	0	0	522	480	1021	0	0	0	
7	0	0	0	0	508	467	1021	0	0	0	
8	0	0	0	0	492	452	1021	0	0	0	
9	0	0	0	0	477	438	1021	0	0	0	
10	0	0	0	0	462	423	1021	0	0	0	
11	0	0	0	0	447	408	1021	0	0	0	
12	0	0	0	0	433	395	1021	0	0	0	
13	0	0	0	0	420	382	1021	0	0	0	
14	0	0	0	0	409	370	1021	0	0	0	
15	0	0	0	0	400	359	1021	0	0	0	
0	0	0	0	0	391	350	1021	0	0	0	
1	0	0	0	0	385	342	1021	0	0	0	
2	0	0	0	0	379	334	1021	0	0	0	
3	0	0	0	0	372	327	1021	0	0	0	
4	0	0	0	0	367	320	1021	0	0	0	
5	0	0	0	0	360	313	1021	0	0	0	
6	0	0	0	0	353	306	1021	0	0	0	
7	0	0	0	0	347	299	1021	0	0	0	
8	0	0	0	0	340	291	1021	0	0	0	
9	0	0	0	0	335	284	1021	0	0	0	
10	0	0	0	0	329	279	1021	0	0	0	
11	0	0	0	0	327	275	1021	0	0	0	
12	0	0	0	0	327	275	1021	0	0	0	
13	0	0	0	0	331	276	1021	0	0	0	
14	0	0	0	0	337	281	1021	0	0	0	
15	0	0	0	0	347	288	1021	0	0	0	
0	0	0	0	0	361	300	1021	0	0	0	
1	0	0	0	0	377	314	1021	0	0	0	
2	0	0	0	0	396	331	1021	0	0	0	
3	0	0	0	0	418	351	1021	0	0	0	
4	0	0	0	0	442	371	1021	0	0	0	
5	0	0	0	0	467	395	1021	0	0	0	
6	0	0	0	0	492	418	1021	0	0	0	
7	0	0	0	0	515	441	1021	0	0	0	
8	0	0	0	0	537	462	1021	0	0	0	
9	0	0	0	0	556	481	1021	0	0	0	
10	0	0	0	0	571	497	1021	0	0	0	
11	0	0	0	0	581	510	1021	0	0	0	
12	0	0	0	0	587	518	1021	0	0	0	
13	0	0	0	0	589	522	1021	0	0	0	
14	0	0	0	0	586	523	1021	0	0	0	
15	0	0	0	0	581	520	1021	0	0	0	
0	0	0	0	0	573	515	1021	0	0	0	
1	0	0	0	0	564	510	1021	0	0	0	
2	0	0	0	0	555	503	1021	0	0	0	
3	0	0	0	0	546	495	1021	0	0	0	
4	0	0	0	0	539	490	1021	0	0	0	
5	0	0	0	0	534	486	1021	0	0	0	
6	0	0	0	0	532	484	1021	0	0	0	
7	0	0	0	0	534	486	1021	0	0	0	
8	0	0	0	0	539	489	1021	0	0	0	
9	0	0	0	0	548	497	1021	0	0	0	
10	0	0	0	0	559	507	1021	0	0	0	
11	0	0	0	0	573	518	1021	0	0	0	
12	0	0	0	0	587	531	1021	0	0	0	
13	0	0	0	0	601	542	1021	0	0	0	
14	0	0	0	0	613	552	1021	0	0	0	
15	0	0	0	0	621	559	1021	0	0	0	
0	0	0	0	0	626	561	1021	0	0	0	
1	0	0	0	0	625	560	1020	0	0	0	
2	0	0	0	0	619	553	1021	0	0	0	
3	0	0	0	0	608	543	1021	0	0	0	
4	0	0	0	0	592	530	1021	0	0	0	
5	0	0	0	0	575	515	1021	0	0	0	
6	0	0	0	0	556	500	1021	0	0	0	
7	0	0	0	0	538	485	1021	0	0	0	
8	0	0	0	0	523	473	1021	0	0	0	
9	0	0	0	0	510	463	1021	0	0	0	
10	0	0	0	0	503	458	1021	0	0	0	
11	0	0	0	0	499	456	1021	0	0	0	
12	0	0	0	0	501	458	1021	0	0	0	
13	0	0	0	0	507	463	1021	0	0	0	
14	0	0	0	0	515	471	1021	0	0	0	
15	0	0	0	0	527	480	1021	0	0	0	
0	0	0	0	0	540	490	1021	0	0	0	
1	0	0	0	0	553	500	1021	0	0	0	
2	0	0	0	0	566	509	1021	0	0	0	
3	0	0	0	0	577	517	1021	0	0	0	
4	0	0	0	0	586	523	1021	0	0	0	
5	0	0	0	0	591	526	1021	0	0	0	
6	0	0	0	0	593	527	1021	0	0	0	
7	0	0	0	0	592	526	1021	0	0	0	
8	0	0	0	0	588	523	1021	0	0	0	
9	0	0	0	0	582	519	1021	0	0	0	
10	0	0	0	0	575	514	1021	0	0	0	
11	0	0	0	0	567	509	1020	0	0	0	
12	0	0	0	0	561	505	1021	0	0	0	
13	0	0	0	0	556	504	1021	0	0	0	
14	0	0	0	0	554	504	1021	0	0	0	
15	0	0	0	0	556	507	1021	0	0	0	
0	0	0	0	0	559	511	1021	0	0	0	
1	0	0	0	0	565	517	1021	0	0	0	
2	0	0	0	0	571	523	1021	0	0	0	
3	0	0	0	0	576	528	1021	0	0	0	
4	0	0	0	0	581	532	1021	0	0	0	
5	0	0	0	0	584	534	1021	0	0	0	
6	0	0	0	0	585	535	1021	0	0	0	
7	0	0	0	0	583	532	1021	0	0	0	
8	0	0	0	0	578	527	1021	0	0	0	
9	0	0	0	0	570	520	1021	0	0	0	
10	0	0	0	0	561	512	1021	0	0	0	
11	0	0	0	0	551	503	1021	0	0	0	
12	0	0	0	0	541	493	1021	0	0	0	
13	0	0	0	0	531	484	1021	0	0	0	
14	0	0	0	0	522	476	1021	0	0	0	
15	0	0	0	0	516	470	1021	0	0	0	
0	0	0	0	0	512	467	1021	0	0	0	
1	0	0	0	0	511	466	1021	0	0	0	
2	0	0	0	0	513	467	1021	0	0	0	
3	0	0	0	0	518	470	1021	0	0	0	
4	0	0	0	0	524	476	1021	0	0	0	
5	0	0	0	0	534	484	1021	0	0	0	
6	0	0	0	0	545	494	1021	0	0	0	
7	0	0	0	0	557	504	1021	0	0	0	
8	0	0	0	0	569	514	1021	0	0	0	
9	0	0	0	0	580	523	1021	0	0	0	
10	0	0	0	0	590	532	1021	0	0	0	
11	0	0	0	0	598	538	1021	0	0	0	
12	0	0	0	0	601	540	1021	0	0	0	
13	0	0	0	0	601	541	1021	0	0	0	
14	0	0	0	0	597	536	1021	0	0	0	
15	0	0	0	0	590	530	1021	0	0	0	
0	0	0	0	0	579	521	1021	0	0	0	
1	0	0	0	0	568	512	1021	0	0	0	
2	0	0	0	0	556	503	1021	0	0	0	
3	0	0	0	0	546	494	1021	0	0	0	
4	0	0	0	0	538	488	1021	0	0	0	
5	0	0	0	0	532	484	1021	0	0	0	
6	0	0	0	0	529	482	1021	0	0	0	
7	0	0	0	0	529	482	1021	0	0	0	
8	0	0	0	0	530	483	1021	0	0	0	
9	0	0	0	0	534	486	1021	0	0	0	
10	0	0	0	0	538	489	1021	0	0	0	
11	0	0	0	0	542	493	1021	0	0	0	
12	0	0	0	0	546	496	1021	0	0	0	
13	0	0	0	0	550	499	1021	0	0	0	
14	0	0	0	0	553	501	1021	0	0	0	
15	0	0	0	0	554	502	1021	0	0	0	
0	0	0	0	0	555	502	1021	0	0	0	
1	0	0	0	0	554	500	1021	0	0	0	
2	0	0	0	0	552	498	1021	0	0	0	
3	0	0	0	0	549	496	1021	0	0	0	
4	0	0	0	0	546	492	1021	0	0	0	
5	0	0	0	0	542	489	1021	0	0	0	
6	0	0	0	0	539	484	1021	0	0	0	
7	0	0	0	0	536	482	1021	0	0	0	
8	0	0	0	0	534	480	1021	0	0	0	
9	0	0	0	0	533	480	1021	0	0	0	
10	0	0	0	0	535	481	1021	0	0	0	
11	0	0	0	0	537	484	1021	0	0	0	
12	0	0	0	0	542	487	1021	0	0	0	
13	0	0	0	0	547	492	1021	0	0	0	
14	0	0	0	0	552	497	1021	0	0	0	
15	0	0	0	0	558	503	1021	0	0	0	
0	0	0	0	0	563	508	1021	0	0	0	
1	0	0	0	0	567	511	1021	0	0	0	
2	0	0	0	0	571	515	1021	0	0	0	
3	0	0	0	0	572	517	1021	0	0	0	
4	0	0	0	0	572	517	1021	0	0	0	
5	0	0	0	0	570	516	1021	0	0	0	
6	0	0	0	0	567	513	1021	0	0	0	
7	0	0	0	0	562	508	1021	0	0	0	
8	0	0	0	0	556	503	1021	0	0	0	
9	0	0	0	0	549	497	1021	0	0	0	
10	0	0	0	0	542	491	1021	0	0	0	
11	0	0	0	0	536	485	1021	0	0	0	
12	0	0	0	0	532	481	1021	0	0	0	
13	0	0	0	0	529	479	1021	0	0	0	
14	0	0	0	0	529	478	1021	0	0	0	
15	0	0	0	0	531	480	1021	0	0	0	
0	0	0	0	0	535	484	1021	0	0	0	
1	0	0	0	0	542	489	1021	0	0	0	
2	0	0	0	0	548	496	1021	0	0	0	
3	0	0	0	0	557	504	1021	0	0	0	
4	0	0	0	0	565	511	1021	0	0	0	
5	0	0	0	0	572	517	1021	0	0	0	
6	0	0	0	0	577	522	1021	0	0	0	
7	0	0	0	0	579	524	1021	0	0	0	
8	0	0	0	0	579	524	1021	0	0	0	
9	0	0	0	0	575	520	1021	0	0	0	
10	0	0	0	0	569	515	1021	0	0	0	
11	0	0	0	0	560	509	1021	0	0	0	
12	0	0	0	0	551	502	1021	0	0	0	
13	0	0	0	0	542	494	1021	0	0	0	
14	0	0	0	0	534	487	1021	0	0	0	
15	0	0	0	0	526	480	1021	0	0	0	
0	0	0	0	0	521	476	1021	0	0	0	
1	0	0	0	0	518	473	1021	0	0	0	
2	0	0	0	0	518	472	1021	0	0	0	
3	0	0	0	0	519	473	1021	0	0	0	
4	0	0	0	0	523	475	1020	0	0	0	
5	0	0	0	0	528	478	1021	0	0	0	
6	0	0	0	0	533	482	1021	0	0	0	
7	0	0	0	0	538	486	1021	0	0	0	
8	0	0	0	0	542	489	1021	0	0	0	
9	0	0	0	0	543	491	1021	0	0	0	
10	0	0	0	0	545	492	1021	0	0	0	
11	0	0	0	0	543	492	1021	0	0	0	
12	0	0	0	0	541	489	1021	0	0	0	
