# OpenSignals Text File Format. Version 1
# {"": {"position": 0, "device": "", "device name": "", "device connection": "", "sampling rate": 1000, "resolution": [4, 1, 1, 1, 1, 10, 10, 10, 10, 6, 6], "firmware version": 1281, "comments": "", "keywords": "", "mode": 0, "sync interval": 2, "date": "", "time": "", "channels": [1, 2, 3, 4, 5, 6], "sensor": ["RAW", "RAW", "RAW", "RAW", "RAW", "RAW"], "label": ["A1", "A2", "A3", "A4", "A5", "A6"], "column": ["nSeq", "I1", "I2", "O1", "O2", "A1", "A2", "A3", "A4", "A5", "A6"], "special": [{}, {}, {}, {}, {}, {}], "digital IO": [0, 0, 1, 1]}}
# EndOfHeader
0	0	0	0	0	560	1021	0	401	0	0	
1	0	0	0	0	561	1021	0	404	0	0	
2	0	0	0	0	563	1021	0	407	0	0	
3	0	0	0	0	564	1021	0	410	0	0	
4	0	0	0	0	566	1021	0	413	0	0	
5	0	0	0	0	568	1021	0	415	0	0	
6	0	0	0	0	569	1021	0	417	0	0	
7	0	0	0	0	570	1021	0	418	0	0	
8	0	0	0	0	571	1021	0	418	0	0	
9	0	0	0	0	571	1021	0	417	0	0	
10	0	0	0	0	571	1021	0	416	0	0	
11	0	0	0	0	570	1021	0	414	0	0	
12	0	0	0	0	569	1021	0	412	0	0	
13	0	0	0	0	568	1021	0	409	0	0	
14	0	0	0	0	566	1021	0	407	0	0	
15	0	0	0	0	565	1021	0	405	0	0	
0	0	0	0	0	563	1021	0	403	0	0	
1	0	0	0	0	562	1021	0	402	0	0	
2	0	0	0	0	560	1021	0	401	0	0	
3	0	0	0	0	560	1021	0	401	0	0	
4	0	0	0	0	559	1021	0	401	0	0	
5	0	0	0	0	558	1021	0	402	0	0	
6	0	0	0	0	558	1021	0	403	0	0	
7	0	0	0	0	556	1021	0	404	0	0	
8	0	0	0	0	556	1021	0	404	0	0	
9	0	0	0	0	555	1021	0	404	0	0	
10	0	0	0	0	553	1021	0	404	0	0	
11	0	0	0	0	552	1021	0	403	0	0	
12	0	0	0	0	551	1021	0	401	0	0	
13	0	0	0	0	549	1021	0	399	0	0	
14	0	0	0	0	548	1021	0	397	0	0	
15	0	0	0	0	548	1021	0	395	0	0	
0	0	0	0	0	548	1021	0	393	0	0	
1	0	0	0	0	548	1021	0	392	0	0	
2	0	0	0	0	550	1021	0	391	0	0	
3	0	0	0	0	552	1021	0	392	0	0	
4	0	0	0	0	554	1021	0	393	0	0	
5	0	0	0	0	557	1021	0	395	0	0	
6	0	0	0	0	560	1021	0	397	0	0	
7	0	0	0	0	563	1021	0	400	0	0	
8	0	0	0	0	568	1021	0	404	0	0	
9	0	0	0	0	570	1021	0	408	0	0	
10	0	0	0	0	572	1021	0	411	0	0	
11	0	0	0	0	574	1021	0	414	0	0	
12	0	0	0	0	575	1021	0	417	0	0	
13	0	0	0	0	576	1021	0	419	0	0	
14	0	0	0	0	576	1021	0	422	0	0	
15	0	0	0	0	577	1021	0	423	0	0	
0	0	0	0	0	576	1021	0	423	0	0	
1	0	0	0	0	577	1021	0	424	0	0	
2	0	0	0	0	576	1021	0	423	0	0	
3	0	0	0	0	576	1021	0	422	0	0	
4	0	0	0	0	575	1021	0	420	0	0	
5	0	0	0	0	574	1021	0	417	0	0	
6	0	0	0	0	573	1021	0	415	0	0	
7	0	0	0	0	571	1021	0	412	0	0	
8	0	0	0	0	569	1021	0	409	0	0	
9	0	0	0	0	566	1021	0	407	0	0	
10	0	0	0	0	563	1021	0	404	0	0	
11	0	0	0	0	560	1021	0	403	0	0	
12	0	0	0	0	557	1021	0	401	0	0	
13	0	0	0	0	553	1021	0	400	0	0	
14	0	0	0	0	550	1021	0	399	0	0	
15	0	0	0	0	547	1022	0	399	0	0	
0	0	0	0	0	545	1021	0	399	0	0	
1	0	0	0	0	545	1021	0	400	0	0	
2	0	0	0	0	545	1021	0	401	0	0	
3	0	0	0	0	546	1021	0	401	0	0	
4	0	0	0	0	548	1021	0	404	0	0	
5	0	0	0	0	551	1021	0	405	0	0	
6	0	0	0	0	557	1021	0	407	0	0	
7	0	0	0	0	560	1021	0	408	0	0	
8	0	0	0	0	565	1021	0	409	0	0	
9	0	0	0	0	568	1021	0	411	0	0	
10	0	0	0	0	571	1021	0	411	0	0	
11	0	0	0	0	574	1021	0	412	0	0	
12	0	0	0	0	575	1021	0	412	0	0	
13	0	0	0	0	575	1021	0	412	0	0	
14	0	0	0	0	574	1021	0	412	0	0	
15	0	0	0	0	572	1021	0	412	0	0	
0	0	0	0	0	569	1021	0	412	0	0	
1	0	0	0	0	566	1021	0	412	0	0	
2	0	0	0	0	563	1021	0	411	0	0	
3	0	0	0	0	558	1021	0	411	0	0	
4	0	0	0	0	555	1021	0	410	0	0	
5	0	0	0	0	552	1021	0	408	0	0	
6	0	0	0	0	550	1021	0	408	0	0	
7	0	0	0	0	549	1021	0	407	0	0	
8	0	0	0	0	549	1021	0	406	0	0	
9	0	0	0	0	550	1021	0	405	0	0	
10	0	0	0	0	551	1021	0	404	0	0	
11	0	0	0	0	553	1021	0	403	0	0	
12	0	0	0	0	556	1021	0	403	0	0	
13	0	0	0	0	557	1021	0	402	0	0	
14	0	0	0	0	560	1021	0	401	0	0	
15	0	0	0	0	561	1021	0	400	0	0	
0	0	0	0	0	563	1021	0	401	0	0	
1	0	0	0	0	564	1021	0	401	0	0	
2	0	0	0	0	565	1021	0	402	0	0	
3	0	0	0	0	566	1021	0	403	0	0	
4	0	0	0	0	566	1021	0	405	0	0	
5	0	0	0	0	565	1021	0	406	0	0	
6	0	0	0	0	564	1021	0	408	0	0	
7	0	0	0	0	562	1021	0	409	0	0	
8	0	0	0	0	560	1021	0	409	0	0	
9	0	0	0	0	558	1021	0	409	0	0	
10	0	0	0	0	556	1021	0	409	0	0	
11	0	0	0	0	554	1021	0	408	0	0	
12	0	0	0	0	551	1021	0	407	0	0	
13	0	0	0	0	551	1021	0	406	0	0	
14	0	0	0	0	550	1021	0	403	0	0	
15	0	0	0	0	550	1021	0	402	0	0	
0	0	0	0	0	550	1021	0	401	0	0	
1	0	0	0	0	551	1021	0	400	0	0	
2	0	0	0	0	552	1021	0	399	0	0	
3	0	0	0	0	554	1021	0	399	0	0	
4	0	0	0	0	557	1021	0	400	0	0	
5	0	0	0	0	559	1021	0	401	0	0	
6	0	0	0	0	561	1021	0	403	0	0	
7	0	0	0	0	564	1021	0	405	0	0	
8	0	0	0	0	566	1021	0	407	0	0	
9	0	0	0	0	567	1021	0	409	0	0	
10	0	0	0	0	568	1021	0	412	0	0	
11	0	0	0	0	568	1021	0	413	0	0	
12	0	0	0	0	569	1021	0	415	0	0	
13	0	0	0	0	569	1021	0	415	0	0	
14	0	0	0	0	568	1021	0	416	0	0	
15	0	0	0	0	568	1021	0	416	0	0	
0	0	0	0	0	566	1021	0	415	0	0	
1	0	0	0	0	566	1021	0	414	0	0	
2	0	0	0	0	565	1021	0	412	0	0	
3	0	0	0	0	563	1021	0	410	0	0	
4	0	0	0	0	562	1021	0	408	0	0	
5	0	0	0	0	560	1021	0	406	0	0	
6	0	0	0	0	559	1021	0	403	0	0	
7	0	0	0	0	557	1021	0	400	0	0	
8	0	0	0	0	555	1021	0	398	0	0	
9	0	0	0	0	553	1021	0	396	0	0	
10	0	0	0	0	551	1022	0	394	0	0	
11	0	0	0	0	549	1021	0	393	0	0	
12	0	0	0	0	548	1021	0	393	0	0	
13	0	0	0	0	547	1021	0	393	0	0	
14	0	0	0	0	547	1021	0	395	0	0	
15	0	0	0	0	547	1021	0	396	0	0	
0	0	0	0	0	548	1021	0	399	0	0	
1	0	0	0	0	550	1021	0	401	0	0	
2	0	0	0	0	551	1021	0	403	0	0	
3	0	0	0	0	552	1021	0	405	0	0	
4	0	0	0	0	554	1022	0	406	0	0	
5	0	0	0	0	555	1021	0	406	0	0	
6	0	0	0	0	555	1021	0	406	0	0	
7	0	0	0	0	555	1021	0	405	0	0	
8	0	0	0	0	555	1021	0	403	0	0	
9	0	0	0	0	553	1022	0	401	0	0	
10	0	0	0	0	552	1021	0	399	0	0	
11	0	0	0	0	551	1021	0	398	0	0	
12	0	0	0	0	550	1021	0	397	0	0	
13	0	0	0	0	549	1021	0	397	0	0	
14	0	0	0	0	548	1022	0	398	0	0	
15	0	0	0	0	549	1021	0	400	0	0	
0	0	0	0	0	551	1021	0	403	0	0	
1	0	0	0	0	553	1021	0	406	0	0	
2	0	0	0	0	555	1021	0	409	0	0	
3	0	0	0	0	558	1022	0	413	0	0	
4	0	0	0	0	560	1021	0	415	0	0	
5	0	0	0	0	563	1021	0	418	0	0	
6	0	0	0	0	565	1021	0	419	0	0	
7	0	0	0	0	566	1021	0	419	0	0	
8	0	0	0	0	566	1022	0	418	0	0	
9	0	0	0	0	566	1021	0	415	0	0	
10	0	0	0	0	564	1021	0	412	0	0	
11	0	0	0	0	561	1021	0	409	0	0	
12	0	0	0	0	559	1021	0	405	0	0	
13	0	0	0	0	555	1022	0	401	0	0	
14	0	0	0	0	551	1021	0	397	0	0	
15	0	0	0	0	549	1021	0	395	0	0	
0	0	0	0	0	547	1021	0	394	0	0	
1	0	0	0	0	547	1021	0	395	0	0	
2	0	0	0	0	547	1021	0	396	0	0	
3	0	0	0	0	548	1021	0	399	0	0	
4	0	0	0	0	551	1021	0	403	0	0	
5	0	0	0	0	555	1021	0	408	0	0	
6	0	0	0	0	559	1021	0	412	0	0	
7	0	0	0	0	563	1021	0	416	0	0	
8	0	0	0	0	566	1021	0	421	0	0	
9	0	0	0	0	571	1021	0	425	0	0	
10	0	0	0	0	574	1021	0	428	0	0	
11	0	0	0	0	576	1021	0	429	0	0	
12	0	0	0	0	578	1021	0	429	0	0	
13	0	0	0	0	578	1021	0	429	0	0	
14	0	0	0	0	579	1021	0	428	0	0	
15	0	0	0	0	578	1021	0	426	0	0	
0	0	0	0	0	576	1021	0	423	0	0	
1	0	0	0	0	574	1022	1	419	0	0	
2	0	0	0	0	571	1021	0	416	0	0	
3	0	0	0	0	569	1021	0	413	0	0	
4	0	0	0	0	565	1021	0	411	0	0	
5	0	0	0	0	563	1021	0	408	0	0	
6	0	0	0	0	559	1022	0	407	0	0	
7	0	0	0	0	557	1021	0	406	0	0	
8	0	0	0	0	556	1021	0	406	0	0	
9	0	0	0	0	554	1021	0	407	0	0	
10	0	0	0	0	554	1021	0	409	0	0	
11	0	0	0	0	555	1021	0	412	0	0	
12	0	0	0	0	555	1021	0	414	0	0	
13	0	0	0	0	557	1021	0	417	0	0	
14	0	0	0	0	559	1021	0	419	0	0	
15	0	0	0	0	561	1021	0	422	0	0	
0	0	0	0	0	563	1021	0	423	0	0	
1	0	0	0	0	567	1021	0	423	0	0	
2	0	0	0	0	569	1021	0	423	0	0	
3	0	0	0	0	570	1021	0	423	0	0	
4	0	0	0	0	571	1021	0	422	0	0	
5	0	0	0	0	571	1021	0	419	0	0	
6	0	0	0	0	570	1021	0	417	0	0	
7	0	0	0	0	569	1021	0	415	0	0	
8	0	0	0	0	567	1021	0	412	0	0	
9	0	0	0	0	565	1021	0	411	0	0	
10	0	0	0	0	563	1021	0	409	0	0	
11	0	0	0	0	560	1021	0	408	0	0	
12	0	0	0	0	560	1021	0	408	0	0	
13	0	0	0	0	558	1021	0	409	0	0	
14	0	0	0	0	557	1021	0	410	0	0	
15	0	0	0	0	557	1022	0	412	0	0	
0	0	0	0	0	557	1021	0	413	0	0	
1	0	0	0	0	557	1021	0	415	0	0	
2	0	0	0	0	558	1021	0	416	0	0	
3	0	0	0	0	558	1021	0	417	0	0	
4	0	0	0	0	559	1021	0	418	0	0	
5	0	0	0	0	560	1021	0	418	0	0	
6	0	0	0	0	560	1021	0	418	0	0	
7	0	0	0	0	560	1021	0	417	0	0	
8	0	0	0	0	562	1021	0	416	0	0	
9	0	0	0	0	562	1021	0	415	0	0	
10	0	0	0	0	562	1021	0	414	0	0	
11	0	0	0	0	563	1021	0	413	0	0	
12	0	0	0	0	563	1021	0	413	0	0	
13	0	0	0	0	563	1021	0	412	0	0	
14	0	0	0	0	562	1021	0	413	0	0	
15	0	0	0	0	562	1021	0	413	0	0	
0	0	0	0	0	563	1021	0	414	0	0	
1	0	0	0	0	563	1021	0	416	0	0	
2	0	0	0	0	562	1021	0	417	0	0	
3	0	0	0	0	562	1021	0	419	0	0	
4	0	0	0	0	561	1021	0	420	0	0	
5	0	0	0	0	562	1021	0	421	0	0	
6	0	0	0	0	561	1021	0	421	0	0	
7	0	0	0	0	561	1021	0	420	0	0	
8	0	0	0	0	560	1021	0	419	0	0	
9	0	0	0	0	560	1021	0	417	0	0	
10	0	0	0	0	559	1021	0	415	0	0	
11	0	0	0	0	558	1021	0	412	0	0	
12	0	0	0	0	558	1021	0	409	0	0	
13	0	0	0	0	557	1021	0	406	0	0	
14	0	0	0	0	556	1021	0	403	0	0	
15	0	0	0	0	556	1021	0	401	0	0	
0	0	0	0	0	556	1021	0	399	0	0	
1	0	0	0	0	555	1021	0	399	0	0	
2	0	0	0	0	556	1021	0	400	0	0	
3	0	0	0	0	558	1021	0	403	0	0	
4	0	0	0	0	559	1021	0	407	0	0	
5	0	0	0	0	561	1021	0	412	0	0	
6	0	0	0	0	564	1021	0	416	0	0	
7	0	0	0	0	567	1021	0	422	0	0	
8	0	0	0	0	570	1021	0	426	0	0	
9	0	0	0	0	572	1021	0	429	0	0	
10	0	0	0	0	574	1021	0	432	0	0	
11	0	0	0	0	574	1021	0	433	0	0	
12	0	0	0	0	574	1021	0	433	0	0	
13	0	0	0	0	573	1021	0	432	0	0	
14	0	0	0	0	572	1021	0	430	0	0	
15	0	0	0	0	571	1021	0	428	0	0	
0	0	0	0	0	569	1021	0	425	0	0	
1	0	0	0	0	566	1021	0	422	0	0	
2	0	0	0	0	564	1021	0	418	0	0	
3	0	0	0	0	562	1021	0	415	0	0	
4	0	0	0	0	560	1021	0	412	0	0	
5	0	0	0	0	559	1021	0	411	0	0	
6	0	0	0	0	558	1021	0	410	0	0	
7	0	0	0	0	559	1021	0	411	0	0	
8	0	0	0	0	560	1021	0	412	0	0	
9	0	0	0	0	562	1021	0	414	0	0	
10	0	0	0	0	563	1021	0	417	0	0	
11	0	0	0	0	565	1021	0	420	0	0	
12	0	0	0	0	568	1021	0	422	0	0	
13	0	0	0	0	569	1021	0	425	0	0	
14	0	0	0	0	571	1021	0	427	0	0	
15	0	0	0	0	573	1021	0	428	0	0	
0	0	0	0	0	574	1022	0	430	0	0	
1	0	0	0	0	575	1021	0	430	0	0	
2	0	0	0	0	575	1021	0	429	0	0	
3	0	0	0	0	575	1021	0	428	0	0	
4	0	0	0	0	574	1022	0	427	0	0	
5	0	0	0	0	573	1022	0	425	0	0	
6	0	0	0	0	571	1021	0	422	0	0	
7	0	0	0	0	569	1021	0	420	0	0	
8	0	0	0	0	567	1021	0	417	0	0	
9	0	0	0	0	564	1021	0	415	0	0	
10	0	0	0	0	561	1021	0	413	0	0	
11	0	0	0	0	559	1021	0	412	0	0	
12	0	0	0	0	556	1021	0	411	0	0	
13	0	0	0	0	553	1021	0	410	0	0	
14	0	0	0	0	551	1021	0	410	0	0	
15	0	0	0	0	550	1021	0	411	0	0	
0	0	0	0	0	549	1021	0	411	0	0	
1	0	0	0	0	549	1021	0	412	0	0	
2	0	0	0	0	548	1021	0	412	0	0	
3	0	0	0	0	549	1021	0	412	0	0	
4	0	0	0	0	549	1021	0	412	0	0	
5	0	0	0	0	549	1022	0	412	0	0	
6	0	0	0	0	551	1021	0	411	0	0	
7	0	0	0	0	552	1021	0	410	0	0	
8	0	0	0	0	554	1021	0	409	0	0	
9	0	0	0	0	555	1021	0	408	0	0	
10	0	0	0	0	556	1021	0	408	0	0	
11	0	0	0	0	559	1021	0	408	0	0	
12	0	0	0	0	559	1021	0	408	0	0	
13	0	0	0	0	560	1021	0	409	0	0	
14	0	0	0	0	560	1021	0	410	0	0	
15	0	0	0	0	560	1021	0	412	0	0	
0	0	0	0	0	561	1021	0	414	0	0	
1	0	0	0	0	561	1021	0	416	0	0	
2	0	0	0	0	561	1021	0	419	0	0	
3	0	0	0	0	561	1021	0	421	0	0	
4	0	0	0	0	561	1021	0	423	0	0	
5	0	0	0	0	562	1021	0	425	0	0	
6	0	0	0	0	562	1021	0	425	0	0	
7	0	0	0	0	562	1021	0	426	0	0	
8	0	0	0	0	563	1021	0	425	0	0	
9	0	0	0	0	563	1021	0	423	0	0	
10	0	0	0	0	563	1021	0	422	0	0	
11	0	0	0	0	563	1021	0	419	0	0	
12	0	0	0	0	563	1021	0	417	0	0	
13	0	0	0	0	563	1021	0	414	0	0	
14	0	0	0	0	562	1021	0	412	0	0	
15	0	0	0	0	562	1021	0	411	0	0	
0	0	0	0	0	562	1021	0	409	0	0	
1	0	0	0	0	562	1021	0	409	0	0	
2	0	0	0	0	561	1021	0	410	0	0	
3	0	0	0	0	562	1021	0	411	0	0	
4	0	0	0	0	562	1021	0	413	0	0	
5	0	0	0	0	562	1021	0	415	0	0	
6	0	0	0	0	562	1021	0	416	0	0	
7	0	0	0	0	561	1022	0	417	0	0	
8	0	0	0	0	560	1021	0	418	0	0	
9	0	0	0	0	560	1021	0	419	0	0	
10	0	0	0	0	559	1021	0	419	0	0	
11	0	0	0	0	558	1021	0	419	0	0	
12	0	0	0	0	558	1022	0	418	0	0	
13	0	0	0	0	556	1021	0	417	0	0	
14	0	0	0	0	557	1021	0	417	0	0	
15	0	0	0	0	557	1021	0	416	0	0	
0	0	0	0	0	557	1021	0	415	0	0	
1	0	0	0	0	558	1021	0	415	0	0	
2	0	0	0	0	560	1021	0	415	0	0	
3	0	0	0	0	563	1021	0	415	0	0	
4	0	0	0	0	565	1021	0	416	0	0	
5	0	0	0	0	568	1021	0	418	0	0	
6	0	0	0	0	570	1021	0	419	0	0	
7	0	0	0	0	572	1021	0	421	0	0	
8	0	0	0	0	574	1021	0	423	0	0	
9	0	0	0	0	575	1021	0	424	0	0	
10	0	0	0	0	575	1021	0	427	0	0	
11	0	0	0	0	575	1021	0	428	0	0	
12	0	0	0	0	574	1021	0	429	0	0	
13	0	0	0	0	573	1021	0	429	0	0	
14	0	0	0	0	572	1021	0	428	0	0	
15	0	0	0	0	569	1021	0	427	0	0	
0	0	0	0	0	568	1021	0	425	0	0	
1	0	0	0	0	566	1021	0	423	0	0	
2	0	0	0	0	564	1021	0	421	0	0	
3	0	0	0	0	563	1021	0	419	0	0	
4	0	0	0	0	562	1021	0	417	0	0	
5	0	0	0	0	562	1021	0	415	0	0	
6	0	0	0	0	562	1021	0	415	0	0	
7	0	0	0	0	564	1021	0	415	0	0	
8	0	0	0	0	565	1021	0	415	0	0	
9	0	0	0	0	567	1021	0	416	0	0	
10	0	0	0	0	568	1021	0	418	0	0	
11	0	0	0	0	568	1021	0	419	0	0	
12	0	0	0	0	570	1021	0	421	0	0	
13	0	0	0	0	569	1021	0	422	0	0	
14	0	0	0	0	568	1021	0	423	0	0	
15	0	0	0	0	566	1021	0	422	0	0	
0	0	0	0	0	561	1021	0	420	0	0	
1	0	0	0	0	556	1021	0	416	0	0	
2	0	0	0	0	550	1021	0	411	0	0	
3	0	0	0	0	542	1021	0	405	0	0	
4	0	0	0	0	533	1021	0	396	0	0	
5	0	0	0	0	523	1021	0	387	0	0	
6	0	0	0	0	513	1021	0	376	0	0	
7	0	0	0	0	502	1021	0	364	0	0	
8	0	0	0	0	492	1021	0	352	0	0	
9	0	0	0	0	481	1021	0	340	0	0	
10	0	0	0	0	470	1021	0	327	0	0	
11	0	0	0	0	461	1021	0	316	0	0	
12	0	0	0	0	450	1021	0	304	0	0	
13	0	0	0	0	439	1021	0	293	0	0	
14	0	0	0	0	428	1021	0	282	0	0	
15	0	0	0	0	417	1021	0	272	0	0	
0	0	0	0	0	407	1021	0	262	0	0	
1	0	0	0	0	395	1021	0	252	0	0	
2	0	0	0	0	385	1021	0	245	0	0	
3	0	0	0	0	376	1021	0	238	0	0	
4	0	0	0	0	368	1021	0	233	0	0	
5	0	0	0	0	363	1021	0	230	0	0	
6	0	0	0	0	361	1021	0	230	0	0	
7	0	0	0	0	362	1021	0	232	0	0	
8	0	0	0	0	367	1021	0	237	0	0	
9	0	0	0	0	376	1021	0	244	0	0	
10	0	0	0	0	389	1021	0	254	0	0	
11	0	0	0	0	404	1021	0	266	0	0	
12	0	0	0	0	422	1021	0	280	0	0	
13	0	0	0	0	442	1021	0	296	0	0	
14	0	0	0	0	463	1021	0	313	0	0	
15	0	0	0	0	486	1021	0	331	0	0	
0	0	0	0	0	508	1021	0	348	0	0	
1	0	0	0	0	528	1021	0	367	0	0	
2	0	0	0	0	546	1021	0	384	0	0	
3	0	0	0	0	561	1021	0	399	0	0	
4	0	0	0	0	574	1021	0	412	0	0	
5	0	0	0	0	583	1021	0	424	0	0	
6	0	0	0	0	589	1021	0	434	0	0	
7	0	0	0	0	593	1022	0	441	0	0	
8	0	0	0	0	594	1021	0	447	0	0	
9	0	0	0	0	593	1021	0	450	0	0	
10	0	0	0	0	591	1021	0	451	0	0	
11	0	0	0	0	588	1021	0	452	0	0	
12	0	0	0	0	585	1021	0	451	0	0	
13	0	0	0	0	581	1022	0	448	0	0	
14	0	0	0	0	579	1021	0	446	0	0	
15	0	0	0	0	576	1021	0	443	0	0	
0	0	0	0	0	574	1021	0	439	0	0	
1	0	0	0	0	572	1021	0	435	0	0	
2	0	0	0	0	569	1021	0	432	0	0	
3	0	0	0	0	568	1021	0	428	0	0	
4	0	0	0	0	567	1021	0	425	0	0	
5	0	0	0	0	566	1021	0	423	0	0	
6	0	0	0	0	565	1021	0	422	0	0	
7	0	0	0	0	565	1021	0	421	0	0	
8	0	0	0	0	566	1021	0	422	0	0	
9	0	0	0	0	567	1021	0	424	0	0	
10	0	0	0	0	568	1021	0	426	0	0	
11	0	0	0	0	568	1022	0	428	0	0	
12	0	0	0	0	568	1021	0	430	0	0	
13	0	0	0	0	569	1021	0	432	0	0	
14	0	0	0	0	569	1021	0	433	0	0	
15	0	0	0	0	569	1021	0	433	0	0	
0	0	0	0	0	568	1022	0	433	0	0	
1	0	0	0	0	567	1021	0	432	0	0	
2	0	0	0	0	566	1021	0	430	0	0	
3	0	0	0	0	564	1021	0	428	0	0	
4	0	0	0	0	563	1021	0	426	0	0	
5	0	0	0	0	563	1021	0	424	0	0	
6	0	0	0	0	561	1021	0	423	0	0	
7	0	0	0	0	562	1021	0	423	0	0	
8	0	0	0	0	563	1021	0	423	0	0	
9	0	0	0	0	563	1021	0	423	0	0	
10	0	0	0	0	565	1021	0	425	0	0	
11	0	0	0	0	568	1021	0	427	0	0	
12	0	0	0	0	571	1021	0	430	0	0	
13	0	0	0	0	573	1021	0	433	0	0	
14	0	0	0	0	576	1021	0	437	0	0	
15	0	0	0	0	579	1021	0	441	0	0	
0	0	0	0	0	583	1021	0	444	0	0	
1	0	0	0	0	586	1021	0	446	0	0	
2	0	0	0	0	588	1021	0	448	0	0	
3	0	0	0	0	590	1021	0	449	0	0	
4	0	0	0	0	589	1021	0	448	0	0	
5	0	0	0	0	589	1021	0	447	0	0	
6	0	0	0	0	587	1021	0	444	0	0	
7	0	0	0	0	585	1021	0	441	0	0	
8	0	0	0	0	582	1021	0	438	0	0	
9	0	0	0	0	578	1021	0	435	0	0	
10	0	0	0	0	575	1021	0	431	0	0	
11	0	0	0	0	572	1021	0	428	0	0	
12	0	0	0	0	569	1021	0	426	0	0	
13	0	0	0	0	567	1021	0	424	0	0	
14	0	0	0	0	564	1021	0	423	0	0	
15	0	0	0	0	564	1021	0	423	0	0	
0	0	0	0	0	563	1021	0	424	0	0	
1	0	0	0	0	563	1021	0	426	0	0	
2	0	0	0	0	565	1021	0	428	0	0	
3	0	0	0	0	567	1021	0	432	0	0	
4	0	0	0	0	570	1021	0	435	0	0	
5	0	0	0	0	573	1021	0	439	0	0	
6	0	0	0	0	576	1021	0	441	0	0	
7	0	0	0	0	579	1021	0	444	0	0	
8	0	0	0	0	582	1021	0	446	0	0	
9	0	0	0	0	585	1021	0	447	0	0	
10	0	0	0	0	587	1021	0	447	0	0	
11	0	0	0	0	588	1021	0	446	0	0	
12	0	0	0	0	588	1021	0	444	0	0	
13	0	0	0	0	586	1021	0	441	0	0	
14	0	0	0	0	584	1021	0	438	0	0	
15	0	0	0	0	583	1021	0	435	0	0	
0	0	0	0	0	580	1021	0	432	0	0	
1	0	0	0	0	578	1021	0	429	0	0	
2	0	0	0	0	576	1021	0	427	0	0	
3	0	0	0	0	575	1021	0	426	0	0	
4	0	0	0	0	575	1021	0	426	0	0	
5	0	0	0	0	575	1021	0	427	0	0	
6	0	0	0	0	575	1021	0	428	0	0	
7	0	0	0	0	575	1021	0	430	0	0	
8	0	0	0	0	577	1021	0	431	0	0	
9	0	0	0	0	577	1021	0	432	0	0	
10	0	0	0	0	577	1021	0	433	0	0	
11	0	0	0	0	578	1021	0	434	0	0	
12	0	0	0	0	577	1021	0	433	0	0	
13	0	0	0	0	577	1021	0	433	0	0	
14	0	0	0	0	577	1021	0	432	0	0	
15	0	0	0	0	577	1021	0	431	0	0	
0	0	0	0	0	576	1021	0	428	0	0	
1	0	0	0	0	575	1021	0	426	0	0	
2	0	0	0	0	574	1021	0	424	0	0	
3	0	0	0	0	574	1021	0	423	0	0	
4	0	0	0	0	574	1021	0	421	0	0	
5	0	0	0	0	573	1021	0	420	0	0	
6	0	0	0	0	572	1021	0	418	0	0	
7	0	0	0	0	571	1021	0	418	0	0	
8	0	0	0	0	570	1021	0	419	0	0	
9	0	0	0	0	569	1021	0	419	0	0	
10	0	0	0	0	568	1021	0	420	0	0	
11	0	0	0	0	567	1021	0	421	0	0	
12	0	0	0	0	565	1021	0	422	0	0	
13	0	0	0	0	565	1021	0	423	0	0	
14	0	0	0	0	564	1021	0	423	0	0	
15	0	0	0	0	564	1021	0	423	0	0	
0	0	0	0	0	563	1021	0	423	0	0	
1	0	0	0	0	563	1021	0	422	0	0	
2	0	0	0	0	563	1021	0	421	0	0	
3	0	0	0	0	563	1021	0	420	0	0	
4	0	0	0	0	563	1021	0	418	0	0	
5	0	0	0	0	562	1021	0	415	0	0	
6	0	0	0	0	560	1021	0	413	0	0	
7	0	0	0	0	560	1021	0	411	0	0	
8	0	0	0	0	560	1021	0	409	0	0	
9	0	0	0	0	559	1021	0	408	0	0	
10	0	0	0	0	559	1022	0	408	0	0	
11	0	0	0	0	558	1021	0	408	0	0	
12	0	0	0	0	559	1021	0	408	0	0	
13	0	0	0	0	559	1021	0	410	0	0	
14	0	0	0	0	560	1021	0	412	0	0	
15	0	0	0	0	562	1021	0	414	0	0	
0	0	0	0	0	564	1021	0	417	0	0	
1	0	0	0	0	567	1021	0	421	0	0	
2	0	0	0	0	570	1021	0	424	0	0	
3	0	0	0	0	572	1021	0	427	0	0	
4	0	0	0	0	575	1021	0	428	0	0	
5	0	0	0	0	576	1021	0	429	0	0	
6	0	0	0	0	579	1021	0	430	0	0	
7	0	0	0	0	580	1021	0	430	0	0	
8	0	0	0	0	580	1021	0	430	0	0	
9	0	0	0	0	579	1022	0	428	0	0	
10	0	0	0	0	579	1021	0	427	0	0	
11	0	0	0	0	579	1021	0	427	0	0	
12	0	0	0	0	578	1021	0	426	0	0	
13	0	0	0	0	577	1021	0	425	0	0	
14	0	0	0	0	576	1022	0	425	0	0	
15	0	0	0	0	574	1021	0	425	0	0	
0	0	0	0	0	574	1021	0	426	0	0	
1	0	0	0	0	573	1021	0	428	0	0	
2	0	0	0	0	572	1021	0	428	0	0	
3	0	0	0	0	571	1021	0	430	0	0	
4	0	0	0	0	570	1021	0	431	0	0	
5	0	0	0	0	571	1021	0	432	0	0	
6	0	0	0	0	571	1021	0	433	0	0	
7	0	0	0	0	571	1021	0	434	0	0	
8	0	0	0	0	572	1021	0	435	0	0	
9	0	0	0	0	572	1021	0	434	0	0	
10	0	0	0	0	575	1021	0	435	0	0	
11	0	0	0	0	576	1021	0	434	0	0	
12	0	0	0	0	578	1021	0	433	0	0	
13	0	0	0	0	579	1021	0	433	0	0	
14	0	0	0	0	580	1021	0	432	0	0	
15	0	0	0	0	581	1021	0	431	0	0	
0	0	0	0	0	581	1021	0	430	0	0	
1	0	0	0	0	581	1021	0	429	0	0	
2	0	0	0	0	580	1021	0	429	0	0	
3	0	0	0	0	579	1021	0	428	0	0	
4	0	0	0	0	579	1021	0	428	0	0	
5	0	0	0	0	577	1021	0	428	0	0	
6	0	0	0	0	576	1021	0	429	0	0	
7	0	0	0	0	575	1022	0	430	0	0	
8	0	0	0	0	574	1021	0	431	0	0	
9	0	0	0	0	573	1021	0	431	0	0	
10	0	0	0	0	572	1021	0	432	0	0	
11	0	0	0	0	571	1021	0	432	0	0	
12	0	0	0	0	571	1021	0	432	0	0	
13	0	0	0	0	569	1021	0	431	0	0	
14	0	0	0	0	569	1021	0	430	0	0	
15	0	0	0	0	569	1021	0	428	0	0	
0	0	0	0	0	568	1021	0	427	0	0	
1	0	0	0	0	568	1021	0	425	0	0	
2	0	0	0	0	568	1021	0	423	0	0	
3	0	0	0	0	567	1021	0	421	0	0	
4	0	0	0	0	566	1021	0	420	0	0	
5	0	0	0	0	566	1021	0	419	0	0	
6	0	0	0	0	565	1022	0	419	0	0	
7	0	0	0	0	565	1021	0	419	0	0	
8	0	0	0	0	564	1021	0	419	0	0	
9	0	0	0	0	564	1021	0	421	0	0	
10	0	0	0	0	564	1021	0	422	0	0	
11	0	0	0	0	563	1022	0	423	0	0	
12	0	0	0	0	564	1021	0	424	0	0	
13	0	0	0	0	563	1021	0	424	0	0	
14	0	0	0	0	561	1021	0	423	0	0	
15	0	0	0	0	560	1021	0	422	0	0	
0	0	0	0	0	557	1021	0	419	0	0	
1	0	0	0	0	553	1021	0	415	0	0	
2	0	0	0	0	551	1021	0	411	0	0	
3	0	0	0	0	547	1021	0	407	0	0	
4	0	0	0	0	545	1021	0	403	0	0	
5	0	0	0	0	543	1021	0	400	0	0	
6	0	0	0	0	542	1021	0	398	0	0	
7	0	0	0	0	544	1021	0	398	0	0	
8	0	0	0	0	546	1021	0	399	0	0	
9	0	0	0	0	550	1021	0	402	0	0	
10	0	0	0	0	554	1021	0	407	0	0	
11	0	0	0	0	558	1021	0	412	0	0	
12	0	0	0	0	564	1021	0	417	0	0	
13	0	0	0	0	569	1021	0	424	0	0	
14	0	0	0	0	574	1021	0	429	0	0	
15	0	0	0	0	578	1022	0	436	0	0	
0	0	0	0	0	582	1021	0	441	0	0	
1	0	0	0	0	584	1021	0	445	0	0	
2	0	0	0	0	586	1021	0	448	0	0	
3	0	0	0	0	586	1021	0	449	0	0	
4	0	0	0	0	585	1022	0	449	0	0	
5	0	0	0	0	583	1021	0	447	0	0	
6	0	0	0	0	580	1021	0	444	0	0	
7	0	0	0	0	576	1021	0	439	0	0	
8	0	0	0	0	571	1021	0	434	0	0	
9	0	0	0	0	566	1021	0	429	0	0	
10	0	0	0	0	561	1021	0	423	0	0	
11	0	0	0	0	557	1021	0	417	0	0	
12	0	0	0	0	554	1021	0	413	0	0	
13	0	0	0	0	551	1021	0	409	0	0	
14	0	0	0	0	548	1022	0	408	0	0	
15	0	0	0	0	547	1021	0	406	0	0	
0	0	0	0	0	547	1021	0	407	0	0	
1	0	0	0	0	548	1021	0	408	0	0	
2	0	0	0	0	550	1021	0	412	0	0	
3	0	0	0	0	553	1022	0	416	0	0	
4	0	0	0	0	556	1021	0	420	0	0	
5	0	0	0	0	562	1021	0	426	0	0	
6	0	0	0	0	568	1021	0	432	0	0	
7	0	0	0	0	574	1021	0	437	0	0	
8	0	0	0	0	580	1021	0	442	0	0	
9	0	0	0	0	586	1021	0	446	0	0	
10	0	0	0	0	591	1021	0	449	0	0	
11	0	0	0	0	595	1021	0	450	0	0	
12	0	0	0	0	596	1021	0	450	0	0	
13	0	0	0	0	596	1021	0	448	0	0	
14	0	0	0	0	595	1021	0	446	0	0	
15	0	0	0	0	592	1021	0	442	0	0	
0	0	0	0	0	588	1021	0	438	0	0	
1	0	0	0	0	583	1021	0	433	0	0	
2	0	0	0	0	576	1021	0	429	0	0	
3	0	0	0	0	572	1021	0	425	0	0	
4	0	0	0	0	566	1021	0	422	0	0	
5	0	0	0	0	562	1021	0	420	0	0	
6	0	0	0	0	558	1021	0	419	0	0	
7	0	0	0	0	556	1021	0	419	0	0	
8	0	0	0	0	556	1021	0	420	0	0	
9	0	0	0	0	556	1021	0	422	0	0	
10	0	0	0	0	558	1021	0	424	0	0	
11	0	0	0	0	561	1021	0	426	0	0	
12	0	0	0	0	564	1021	0	429	0	0	
13	0	0	0	0	569	1021	0	431	0	0	
14	0	0	0	0	572	1021	0	432	0	0	
15	0	0	0	0	575	1021	0	433	0	0	
0	0	0	0	0	577	1021	0	433	0	0	
1	0	0	0	0	579	1021	0	432	0	0	
2	0	0	0	0	579	1021	0	432	0	0	
3	0	0	0	0	579	1021	0	430	0	0	
4	0	0	0	0	578	1021	0	428	0	0	
5	0	0	0	0	576	1021	0	427	0	0	
6	0	0	0	0	573	1021	0	425	0	0	
7	0	0	0	0	571	1021	0	423	0	0	
8	0	0	0	0	569	1021	0	422	0	0	
9	0	0	0	0	567	1021	0	422	0	0	
10	0	0	0	0	566	1021	0	423	0	0	
11	0	0	0	0	566	1021	0	424	0	0	
12	0	0	0	0	566	1021	0	425	0	0	
13	0	0	0	0	568	1021	0	428	0	0	
14	0	0	0	0	569	1021	0	431	0	0	
15	0	0	0	0	572	1021	0	433	0	0	
0	0	0	0	0	574	1021	0	435	0	0	
1	0	0	0	0	576	1021	0	435	0	0	
2	0	0	0	0	578	1021	0	436	0	0	
3	0	0	0	0	579	1021	0	436	0	0	
4	0	0	0	0	579	1021	0	435	0	0	
5	0	0	0	0	578	1021	0	433	0	0	
6	0	0	0	0	576	1021	0	430	0	0	
7	0	0	0	0	574	1021	0	428	0	0	
8	0	0	0	0	571	1021	0	425	0	0	
9	0	0	0	0	568	1021	0	423	0	0	
10	0	0	0	0	566	1021	0	422	0	0	
11	0	0	0	0	564	1021	0	421	0	0	
12	0	0	0	0	563	1021	0	421	0	0	
13	0	0	0	0	563	1021	0	423	0	0	
14	0	0	0	0	564	1021	0	424	0	0	
15	0	0	0	0	565	1022	0	427	0	0	
0	0	0	0	0	567	1021	0	430	0	0	
1	0	0	0	0	569	1021	0	432	0	0	
2	0	0	0	0	572	1021	0	435	0	0	
3	0	0	0	0	573	1021	0	438	0	0	
4	0	0	0	0	575	1021	0	439	0	0	
5	0	0	0	0	576	1021	0	439	0	0	
6	0	0	0	0	578	1021	0	439	0	0	
7	0	0	0	0	578	1021	0	438	0	0	
8	0	0	0	0	578	1021	0	436	0	0	
9	0	0	0	0	578	1021	0	435	0	0	
10	0	0	0	0	577	1021	0	432	0	0	
11	0	0	0	0	576	1021	0	430	0	0	
12	0	0	0	0	575	1021	0	428	0	0	
13	0	0	0	0	573	1021	0	427	0	0	
14	0	0	0	0	572	1021	0	426	0	0	
15	0	0	0	0	569	1022	0	425	0	0	
0	0	0	0	0	568	1021	0	425	0	0	
1	0	0	0	0	567	1021	0	425	0	0	
2	0	0	0	0	565	1021	0	425	0	0	
3	0	0	0	0	563	1022	0	425	0	0	
4	0	0	0	0	561	1022	0	424	0	0	
5	0	0	0	0	560	1021	0	423	0	0	
6	0	0	0	0	559	1021	0	423	0	0	
7	0	0	0	0	557	1021	0	422	0	0	
8	0	0	0	0	556	1021	0	421	0	0	
9	0	0	0	0	556	1022	0	420	0	0	
10	0	0	0	0	557	1021	0	419	0	0	
11	0	0	0	0	557	1021	0	419	0	0	
12	0	0	0	0	558	1021	0	419	0	0	
13	0	0	0	0	560	1021	0	419	0	0	
14	0	0	0	0	560	1021	0	418	0	0	
15	0	0	0	0	563	1021	0	419	0	0	
0	0	0	0	0	564	1021	0	419	0	0	
1	0	0	0	0	565	1021	0	419	0	0	
2	0	0	0	0	565	1022	0	420	0	0	
3	0	0	0	0	566	1021	0	421	0	0	
4	0	0	0	0	567	1021	0	422	0	0	
5	0	0	0	0	567	1021	0	423	0	0	
6	0	0	0	0	567	1021	0	425	0	0	
7	0	0	0	0	567	1021	0	426	0	0	
8	0	0	0	0	567	1021	0	427	0	0	
9	0	0	0	0	568	1021	0	427	0	0	
10	0	0	0	0	567	1021	0	427	0	0	
11	0	0	0	0	566	1021	0	426	0	0	
12	0	0	0	0	566	1021	0	425	0	0	
13	0	0	0	0	564	1022	0	423	0	0	
14	0	0	0	0	565	1021	0	422	0	0	
15	0	0	0	0	565	1021	0	420	0	0	
0	0	0	0	0	564	1021	0	419	0	0	
1	0	0	0	0	563	1021	0	417	0	0	
2	0	0	0	0	563	1021	0	416	0	0	
3	0	0	0	0	562	1021	0	416	0	0	
4	0	0	0	0	561	1021	0	416	0	0	
5	0	0	0	0	560	1021	0	416	0	0	
6	0	0	0	0	559	1021	0	416	0	0	
7	0	0	0	0	558	1021	0	417	0	0	
8	0	0	0	0	557	1021	0	418	0	0	
9	0	0	0	0	556	1021	0	419	0	0	
10	0	0	0	0	556	1021	0	422	0	0	
11	0	0	0	0	556	1021	0	423	0	0	
12	0	0	0	0	557	1021	0	426	0	0	
13	0	0	0	0	559	1021	0	428	0	0	
14	0	0	0	0	561	1021	0	431	0	0	
15	0	0	0	0	563	1021	0	433	0	0	
0	0	0	0	0	566	1021	0	434	0	0	
1	0	0	0	0	568	1021	0	435	0	0	
2	0	0	0	0	571	1021	0	435	0	0	
3	0	0	0	0	572	1021	0	435	0	0	
4	0	0	0	0	573	1021	0	434	0	0	
5	0	0	0	0	572	1022	0	432	0	0	
6	0	0	0	0	570	1022	0	429	0	0	
7	0	0	0	0	568	1021	0	426	0	0	
8	0	0	0	0	566	1021	0	423	0	0	
9	0	0	0	0	563	1021	0	422	0	0	
10	0	0	0	0	560	1021	0	420	0	0	
11	0	0	0	0	558	1021	0	419	0	0	
12	0	0	0	0	557	1021	0	419	0	0	
13	0	0	0	0	556	1021	0	420	0	0	
14	0	0	0	0	555	1021	0	421	0	0	
15	0	0	0	0	555	1021	0	422	0	0	
0	0	0	0	0	556	1021	0	422	0	0	
1	0	0	0	0	556	1021	0	423	0	0	
2	0	0	0	0	556	1021	0	423	0	0	
3	0	0	0	0	556	1021	0	422	0	0	
4	0	0	0	0	556	1021	0	420	0	0	
5	0	0	0	0	555	1022	0	419	0	0	
6	0	0	0	0	555	1021	0	417	0	0	
7	0	0	0	0	555	1021	0	415	0	0	
8	0	0	0	0	555	1021	0	413	0	0	
9	0	0	0	0	555	1021	0	410	0	0	
10	0	0	0	0	553	1022	0	408	0	0	
11	0	0	0	0	553	1021	0	406	0	0	
12	0	0	0	0	553	1021	0	404	0	0	
13	0	0	0	0	552	1021	0	404	0	0	
14	0	0	0	0	551	1021	0	404	0	0	
15	0	0	0	0	551	1021	0	406	0	0	
0	0	0	0	0	552	1021	0	408	0	0	
1	0	0	0	0	554	1021	0	412	0	0	
2	0	0	0	0	556	1021	0	416	0	0	
3	0	0	0	0	559	1022	0	420	0	0	
4	0	0	0	0	561	1021	0	424	0	0	
5	0	0	0	0	565	1021	0	429	0	0	
6	0	0	0	0	568	1021	0	432	0	0	
7	0	0	0	0	571	1021	0	435	0	0	
8	0	0	0	0	573	1021	0	437	0	0	
9	0	0	0	0	575	1022	0	437	0	0	
10	0	0	0	0	576	1021	0	436	0	0	
11	0	0	0	0	576	1021	0	435	0	0	
12	0	0	0	0	575	1021	0	433	0	0	
13	0	0	0	0	574	1021	0	430	0	0	
14	0	0	0	0	572	1021	0	426	0	0	
15	0	0	0	0	569	1021	0	422	0	0	
0	0	0	0	0	566	1021	0	419	0	0	
1	0	0	0	0	563	1021	0	416	0	0	
2	0	0	0	0	560	1022	0	414	0	0	
3	0	0	0	0	557	1021	0	412	0	0	
4	0	0	0	0	556	1021	0	411	0	0	
5	0	0	0	0	555	1021	0	411	0	0	
6	0	0	0	0	554	1021	0	412	0	0	
7	0	0	0	0	554	1021	0	413	0	0	
8	0	0	0	0	555	1021	0	414	0	0	
9	0	0	0	0	555	1021	0	415	0	0	
10	0	0	0	0	556	1021	0	416	0	0	
11	0	0	0	0	557	1021	0	418	0	0	
12	0	0	0	0	557	1021	0	419	0	0	
13	0	0	0	0	559	1021	0	419	0	0	
14	0	0	0	0	559	1021	0	419	0	0	
15	0	0	0	0	560	1021	0	419	0	0	
0	0	0	0	0	560	1021	0	418	0	0	
1	0	0	0	0	560	1021	0	417	0	0	
2	0	0	0	0	560	1021	0	416	0	0	
3	0	0	0	0	560	1021	0	416	0	0	
4	0	0	0	0	560	1021	0	416	0	0	
5	0	0	0	0	560	1021	0	416	0	0	
6	0	0	0	0	560	1021	0	417	0	0	
7	0	0	0	0	561	1021	0	418	0	0	
8	0	0	0	0	562	1021	0	419	0	0	
9	0	0	0	0	563	1021	0	422	0	0	
10	0	0	0	0	563	1021	0	424	0	0	
11	0	0	0	0	563	1021	0	426	0	0	
12	0	0	0	0	565	1021	0	428	0	0	
13	0	0	0	0	566	1021	0	430	0	0	
14	0	0	0	0	567	1021	0	430	0	0	
15	0	0	0	0	567	1021	0	430	0	0	
0	0	0	0	0	566	1021	0	430	0	0	
1	0	0	0	0	566	1021	0	428	0	0	
2	0	0	0	0	565	1021	0	425	0	0	
3	0	0	0	0	564	1021	0	422	0	0	
4	0	0	0	0	562	1021	0	419	0	0	
5	0	0	0	0	561	1021	0	416	0	0	
6	0	0	0	0	560	1021	0	413	0	0	
7	0	0	0	0	560	1021	0	411	0	0	
8	0	0	0	0	559	1021	0	409	0	0	
9	0	0	0	0	559	1021	0	408	0	0	
10	0	0	0	0	558	1021	0	408	0	0	
11	0	0	0	0	559	1021	0	408	0	0	
12	0	0	0	0	560	1021	0	410	0	0	
13	0	0	0	0	561	1021	0	413	0	0	
14	0	0	0	0	563	1021	0	416	0	0	
15	0	0	0	0	564	1022	0	419	0	0	
0	0	0	0	0	566	1021	0	421	0	0	
1	0	0	0	0	568	1021	0	424	0	0	
2	0	0	0	0	568	1021	0	425	0	0	
3	0	0	0	0	568	1021	0	427	0	0	
4	0	0	0	0	567	1022	0	426	0	0	
5	0	0	0	0	565	1021	0	425	0	0	
6	0	0	0	0	563	1021	0	423	0	0	
7	0	0	0	0	561	1021	0	420	0	0	
8	0	0	0	0	559	1021	0	417	0	0	
9	0	0	0	0	556	1021	0	413	0	0	
10	0	0	0	0	553	1021	0	409	0	0	
11	0	0	0	0	551	1021	0	406	0	0	
12	0	0	0	0	548	1021	0	403	0	0	
13	0	0	0	0	547	1021	0	402	0	0	
14	0	0	0	0	546	1022	0	402	0	0	
15	0	0	0	0	546	1021	0	403	0	0	
0	0	0	0	0	548	1021	0	405	0	0	
1	0	0	0	0	550	1021	0	408	0	0	
2	0	0	0	0	553	1021	0	412	0	0	
3	0	0	0	0	557	1021	0	416	0	0	
4	0	0	0	0	561	1021	0	421	0	0	
5	0	0	0	0	566	1021	0	426	0	0	
6	0	0	0	0	569	1021	0	429	0	0	
7	0	0	0	0	573	1021	0	432	0	0	
8	0	0	0	0	575	1021	0	434	0	0	
9	0	0	0	0	575	1021	0	433	0	0	
10	0	0	0	0	576	1021	0	433	0	0	
11	0	0	0	0	575	1021	0	431	0	0	
12	0	0	0	0	572	1021	0	428	0	0	
13	0	0	0	0	569	1022	0	424	0	0	
14	0	0	0	0	565	1021	0	420	0	0	
15	0	0	0	0	561	1021	0	417	0	0	
0	0	0	0	0	557	1021	0	415	0	0	
1	0	0	0	0	554	1021	0	412	0	0	
2	0	0	0	0	550	1021	0	411	0	0	
3	0	0	0	0	549	1021	0	410	0	0	
4	0	0	0	0	548	1021	0	411	0	0	
5	0	0	0	0	548	1021	0	412	0	0	
6	0	0	0	0	550	1021	0	415	0	0	
7	0	0	0	0	551	1021	0	418	0	0	
8	0	0	0	0	555	1021	0	421	0	0	
9	0	0	0	0	558	1021	0	425	0	0	
10	0	0	0	0	562	1021	0	428	0	0	
11	0	0	0	0	566	1021	0	431	0	0	
12	0	0	0	0	568	1021	0	433	0	0	
13	0	0	0	0	571	1021	0	433	0	0	
14	0	0	0	0	572	1021	0	433	0	0	
15	0	0	0	0	573	1021	0	432	0	0	
0	0	0	0	0	572	1021	0	430	0	0	
1	0	0	0	0	570	1021	0	428	0	0	
2	0	0	0	0	568	1021	0	425	0	0	
3	0	0	0	0	566	1021	0	423	0	0	
4	0	0	0	0	564	1021	0	422	0	0	
5	0	0	0	0	562	1021	0	422	0	0	
6	0	0	0	0	561	1021	0	422	0	0	
7	0	0	0	0	561	1021	0	422	0	0	
8	0	0	0	0	561	1021	0	424	0	0	
9	0	0	0	0	562	1021	0	425	0	0	
10	0	0	0	0	563	1021	0	428	0	0	
11	0	0	0	0	563	1021	0	429	0	0	
12	0	0	0	0	565	1021	0	430	0	0	
13	0	0	0	0	565	1021	0	431	0	0	
14	0	0	0	0	565	1021	0	431	0	0	
15	0	0	0	0	565	1021	0	430	0	0	
0	0	0	0	0	563	1021	0	429	0	0	
1	0	0	0	0	563	1021	0	427	0	0	
2	0	0	0	0	561	1021	0	425	0	0	
3	0	0	0	0	560	1021	0	422	0	0	
4	0	0	0	0	558	1021	0	419	0	0	
5	0	0	0	0	556	1021	0	417	0	0	
6	0	0	0	0	555	1021	0	414	0	0	
7	0	0	0	0	553	1021	0	413	0	0	
8	0	0	0	0	552	1021	0	412	0	0	
9	0	0	0	0	552	1021	0	411	0	0	
10	0	0	0	0	551	1021	0	412	0	0	
11	0	0	0	0	552	1021	0	412	0	0	
12	0	0	0	0	554	1021	0	414	0	0	
13	0	0	0	0	555	1021	0	416	0	0	
14	0	0	0	0	556	1021	0	419	0	0	
15	0	0	0	0	558	1021	0	421	0	0	
0	0	0	0	0	560	1021	0	423	0	0	
1	0	0	0	0	561	1021	0	424	0	0	
2	0	0	0	0	562	1021	0	424	0	0	
3	0	0	0	0	562	1021	0	423	0	0	
4	0	0	0	0	561	1021	0	422	0	0	
5	0	0	0	0	561	1021	0	420	0	0	
6	0	0	0	0	560	1021	0	418	0	0	
7	0	0	0	0	559	1021	0	416	0	0	
8	0	0	0	0	559	1021	0	414	0	0	
9	0	0	0	0	558	1021	0	412	0	0	
10	0	0	0	0	558	1021	0	411	0	0	
11	0	0	0	0	559	1021	0	411	0	0	
12	0	0	0	0	560	1021	0	412	0	0	
13	0	0	0	0	561	1021	0	414	0	0	
14	0	0	0	0	561	1022	0	416	0	0	
15	0	0	0	0	563	1022	0	419	0	0	
0	0	0	0	0	565	1021	0	421	0	0	
1	0	0	0	0	566	1021	0	424	0	0	
2	0	0	0	0	567	1021	0	427	0	0	
3	0	0	0	0	567	1021	0	428	0	0	
4	0	0	0	0	566	1022	0	430	0	0	
5	0	0	0	0	566	1021	0	430	0	0	
6	0	0	0	0	564	1021	0	429	0	0	
7	0	0	0	0	563	1021	0	428	0	0	
8	0	0	0	0	560	1021	0	427	0	0	
9	0	0	0	0	559	1022	0	425	0	0	
10	0	0	0	0	558	1021	0	423	0	0	
11	0	0	0	0	557	1021	0	421	0	0	
12	0	0	0	0	556	1021	0	419	0	0	
13	0	0	0	0	555	1022	0	417	0	0	
14	0	0	0	0	555	1022	0	415	0	0	
15	0	0	0	0	555	1021	0	414	0	0	
0	0	0	0	0	556	1021	0	413	0	0	
1	0	0	0	0	555	1021	0	412	0	0	
2	0	0	0	0	556	1022	0	413	0	0	
3	0	0	0	0	555	1022	0	414	0	0	
4	0	0	0	0	556	1021	0	415	0	0	
5	0	0	0	0	557	1021	0	418	0	0	
6	0	0	0	0	558	1021	0	420	0	0	
7	0	0	0	0	559	1021	0	423	0	0	
8	0	0	0	0	560	1021	0	424	0	0	
9	0	0	0	0	562	1021	0	426	0	0	
10	0	0	0	0	563	1021	0	428	0	0	
11	0	0	0	0	563	1021	0	428	0	0	
12	0	0	0	0	564	1021	0	428	0	0	
13	0	0	0	0	565	1021	0	427	0	0	
14	0	0	0	0	565	1021	0	426	0	0	
15	0	0	0	0	564	1021	0	423	0	0	
0	0	0	0	0	563	1021	0	422	0	0	
1	0	0	0	0	562	1021	0	419	0	0	
2	0	0	0	0	560	1021	0	416	0	0	
3	0	0	0	0	559	1021	0	414	0	0	
4	0	0	0	0	557	1021	0	412	0	0	
5	0	0	0	0	556	1021	0	410	0	0	
6	0	0	0	0	554	1022	0	409	0	0	
7	0	0	0	0	551	1021	0	408	0	0	
8	0	0	0	0	550	1021	0	408	0	0	
9	0	0	0	0	549	1021	0	408	0	0	
10	0	0	0	0	547	1021	0	408	0	0	
11	0	0	0	0	546	1021	0	409	0	0	
12	0	0	0	0	544	1021	0	408	0	0	
13	0	0	0	0	543	1021	0	409	0	0	
14	0	0	0	0	543	1021	0	409	0	0	
15	0	0	0	0	544	1021	0	410	0	0	
0	0	0	0	0	545	1022	0	411	0	0	
1	0	0	0	0	547	1021	0	412	0	0	
2	0	0	0	0	551	1021	0	413	0	0	
3	0	0	0	0	554	1021	0	414	0	0	
4	0	0	0	0	557	1021	0	415	0	0	
5	0	0	0	0	560	1021	0	416	0	0	
6	0	0	0	0	563	1021	0	416	0	0	
7	0	0	0	0	564	1021	0	416	0	0	
8	0	0	0	0	564	1021	0	415	0	0	
9	0	0	0	0	562	1021	0	413	0	0	
10	0	0	0	0	558	1021	0	410	0	0	
11	0	0	0	0	551	1022	0	405	0	0	
12	0	0	0	0	544	1021	0	400	0	0	
13	0	0	0	0	535	1021	0	394	0	0	
14	0	0	0	0	525	1021	0	387	0	0	
15	0	0	0	0	513	1021	0	379	0	0	
0	0	0	0	0	502	1021	0	370	0	0	
1	0	0	0	0	491	1021	0	360	0	0	
2	0	0	0	0	480	1021	0	351	0	0	
3	0	0	0	0	468	1021	0	340	0	0	
4	0	0	0	0	457	1021	0	329	0	0	
5	0	0	0	0	445	1022	0	317	0	0	
6	0	0	0	0	434	1021	0	304	0	0	
7	0	0	0	0	423	1021	0	291	0	0	
8	0	0	0	0	411	1021	0	277	0	0	
9	0	0	0	0	399	1021	0	263	0	0	
10	0	0	0	0	387	1021	0	248	0	0	
11	0	0	0	0	375	1021	0	234	0	0	
12	0	0	0	0	365	1021	0	222	0	0	
13	0	0	0	0	355	1021	0	212	0	0	
14	0	0	0	0	349	1021	0	206	0	0	
15	0	0	0	0	345	1021	0	203	0	0	
0	0	0	0	0	347	1021	0	204	0	0	
1	0	0	0	0	352	1021	0	210	0	0	
2	0	0	0	0	361	1021	0	220	0	0	
3	0	0	0	0	375	1022	0	236	0	0	
4	0	0	0	0	392	1022	0	253	0	0	
5	0	0	0	0	414	1021	0	273	0	0	
6	0	0	0	0	436	1021	0	295	0	0	
7	0	0	0	0	460	1021	0	318	0	0	
8	0	0	0	0	484	1021	0	341	0	0	
9	0	0	0	0	508	1021	0	361	0	0	
10	0	0	0	0	529	1021	0	381	0	0	
11	0	0	0	0	548	1021	0	397	0	0	
12	0	0	0	0	564	1021	0	411	0	0	
13	0	0	0	0	576	1022	0	420	0	0	
14	0	0	0	0	583	1022	0	428	0	0	
15	0	0	0	0	589	1021	0	432	0	0	
0	0	0	0	0	591	1021	0	435	0	0	
1	0	0	0	0	591	1021	0	436	0	0	
2	0	0	0	0	589	1022	0	436	0	0	
3	0	0	0	0	585	1021	0	436	0	0	
4	0	0	0	0	582	1021	0	435	0	0	
5	0	0	0	0	578	1021	0	435	0	0	
6	0	0	0	0	575	1021	0	435	0	0	
7	0	0	0	0	571	1022	0	434	0	0	
8	0	0	0	0	568	1021	0	433	0	0	
9	0	0	0	0	567	1021	0	433	0	0	
10	0	0	0	0	565	1021	0	432	0	0	
11	0	0	0	0	564	1021	0	431	0	0	
12	0	0	0	0	564	1021	0	429	0	0	
13	0	0	0	0	564	1021	0	427	0	0	
14	0	0	0	0	565	1021	0	425	0	0	
15	0	0	0	0	566	1021	0	423	0	0	
0	0	0	0	0	567	1021	0	422	0	0	
1	0	0	0	0	569	1021	0	421	0	0	
2	0	0	0	0	570	1022	0	420	0	0	
3	0	0	0	0	573	1021	0	421	0	0	
4	0	0	0	0	575	1021	0	422	0	0	
5	0	0	0	0	576	1021	0	423	0	0	
6	0	0	0	0	577	1022	0	425	0	0	
7	0	0	0	0	578	1021	0	427	0	0	
8	0	0	0	0	578	1021	0	428	0	0	
9	0	0	0	0	577	1021	0	430	0	0	
10	0	0	0	0	575	1021	0	431	0	0	
11	0	0	0	0	574	1021	0	432	0	0	
12	0	0	0	0	570	1022	0	432	0	0	
13	0	0	0	0	568	1021	0	431	0	0	
14	0	0	0	0	565	1021	0	430	0	0	
15	0	0	0	0	562	1021	0	429	0	0	
0	0	0	0	0	559	1021	0	427	0	0	
1	0	0	0	0	558	1022	0	425	0	0	
2	0	0	0	0	558	1021	0	423	0	0	
3	0	0	0	0	559	1021	0	422	0	0	
4	0	0	0	0	560	1021	0	420	0	0	
5	0	0	0	0	562	1021	0	420	0	0	
6	0	0	0	0	565	1021	0	420	0	0	
7	0	0	0	0	569	1021	0	421	0	0	
8	0	0	0	0	572	1021	0	423	0	0	
9	0	0	0	0	576	1021	0	425	0	0	
10	0	0	0	0	580	1022	0	430	0	0	
11	0	0	0	0	584	1021	0	433	0	0	
12	0	0	0	0	588	1021	0	438	0	0	
13	0	0	0	0	590	1021	0	443	0	0	
14	0	0	0	0	592	1021	0	447	0	0	
15	0	0	0	0	593	1022	0	450	0	0	
0	0	0	0	0	593	1021	0	452	0	0	
1	0	0	0	0	593	1021	0	453	0	0	
2	0	0	0	0	591	1021	0	453	0	0	
3	0	0	0	0	590	1021	0	452	0	0	
4	0	0	0	0	586	1022	0	450	0	0	
5	0	0	0	0	584	1021	0	447	0	0	
6	0	0	0	0	581	1021	0	443	0	0	
7	0	0	0	0	578	1021	0	438	0	0	
8	0	0	0	0	575	1021	0	434	0	0	
9	0	0	0	0	572	1021	0	431	0	0	
10	0	0	0	0	572	1021	0	427	0	0	
11	0	0	0	0	571	1021	0	425	0	0	
12	0	0	0	0	570	1021	0	424	0	0	
13	0	0	0	0	570	1021	0	424	0	0	
14	0	0	0	0	570	1022	0	424	0	0	
15	0	0	0	0	571	1021	0	425	0	0	
0	0	0	0	0	571	1021	0	427	0	0	
1	0	0	0	0	571	1021	0	428	0	0	
2	0	0	0	0	571	1021	0	431	0	0	
3	0	0	0	0	571	1021	0	433	0	0	
4	0	0	0	0	571	1022	0	435	0	0	
5	0	0	0	0	571	1021	0	436	0	0	
6	0	0	0	0	571	1021	0	438	0	0	
7	0	0	0	0	572	1021	0	438	0	0	
8	0	0	0	0	572	1021	0	439	0	0	
9	0	0	0	0	572	1022	0	438	0	0	
10	0	0	0	0	573	1021	0	436	0	0	
11	0	0	0	0	574	1021	0	435	0	0	
12	0	0	0	0	574	1021	0	433	0	0	
13	0	0	0	0	574	1021	0	431	0	0	
14	0	0	0	0	574	1022	0	430	0	0	
15	0	0	0	0	574	1021	0	428	0	0	
0	0	0	0	0	574	1021	0	428	0	0	
1	0	0	0	0	573	1021	0	427	0	0	
2	0	0	0	0	572	1021	0	426	0	0	
3	0	0	0	0	572	1021	0	427	0	0	
4	0	0	0	0	573	1021	0	428	0	0	
5	0	0	0	0	572	1022	0	430	0	0	
6	0	0	0	0	572	1021	0	431	0	0	
7	0	0	0	0	571	1021	0	432	0	0	
8	0	0	0	0	569	1021	0	433	0	0	
9	0	0	0	0	569	1021	0	433	0	0	
10	0	0	0	0	567	1021	0	432	0	0	
11	0	0	0	0	565	1021	0	431	0	0	
12	0	0	0	0	563	1022	0	429	0	0	
13	0	0	0	0	561	1022	0	427	0	0	
14	0	0	0	0	560	1021	0	424	0	0	
15	0	0	0	0	559	1021	0	423	0	0	
0	0	0	0	0	559	1021	0	421	0	0	
1	0	0	0	0	560	1021	0	421	0	0	
2	0	0	0	0	562	1021	0	420	0	0	
3	0	0	0	0	565	1021	0	421	0	0	
4	0	0	0	0	568	1021	0	423	0	0	
5	0	0	0	0	571	1021	0	424	0	0	
6	0	0	0	0	573	1021	0	427	0	0	
7	0	0	0	0	575	1022	0	429	0	0	
8	0	0	0	0	578	1021	0	432	0	0	
9	0	0	0	0	579	1021	0	434	0	0	
10	0	0	0	0	579	1021	0	435	0	0	
11	0	0	0	0	578	1021	0	435	0	0	
12	0	0	0	0	575	1022	0	435	0	0	
13	0	0	0	0	573	1021	0	434	0	0	
14	0	0	0	0	569	1021	0	432	0	0	
15	0	0	0	0	567	1021	0	431	0	0	
0	0	0	0	0	563	1022	0	428	0	0	
1	0	0	0	0	560	1021	0	425	0	0	
2	0	0	0	0	558	1021	0	423	0	0	
3	0	0	0	0	556	1021	0	421	0	0	
4	0	0	0	0	556	1021	0	419	0	0	
5	0	0	0	0	556	1021	0	418	0	0	
6	0	0	0	0	556	1021	0	418	0	0	
7	0	0	0	0	558	1021	0	418	0	0	
8	0	0	0	0	560	1021	0	419	0	0	
9	0	0	0	0	563	1021	0	421	0	0	
10	0	0	0	0	566	1021	0	423	0	0	
11	0	0	0	0	568	1022	0	426	0	0	
12	0	0	0	0	571	1021	0	428	0	0	
13	0	0	0	0	573	1021	0	431	0	0	
14	0	0	0	0	574	1021	0	433	0	0	
15	0	0	0	0	575	1021	0	435	0	0	
0	0	0	0	0	574	1021	0	435	0	0	
1	0	0	0	0	574	1021	0	435	0	0	
2	0	0	0	0	572	1021	0	435	0	0	
3	0	0	0	0	569	1021	0	433	0	0	
4	0	0	0	0	567	1021	0	431	0	0	
5	0	0	0	0	563	1022	0	427	0	0	
6	0	0	0	0	560	1021	0	424	0	0	
7	0	0	0	0	558	1021	0	421	0	0	
8	0	0	0	0	556	1021	0	417	0	0	
9	0	0	0	0	555	1022	0	415	0	0	
10	0	0	0	0	555	1021	0	413	0	0	
11	0	0	0	0	555	1021	0	412	0	0	
12	0	0	0	0	556	1021	0	412	0	0	
13	0	0	0	0	558	1021	0	413	0	0	
14	0	0	0	0	559	1021	0	415	0	0	
15	0	0	0	0	562	1021	0	417	0	0	
0	0	0	0	0	565	1021	0	421	0	0	
1	0	0	0	0	568	1021	0	425	0	0	
2	0	0	0	0	570	1021	0	429	0	0	
3	0	0	0	0	571	1021	0	432	0	0	
4	0	0	0	0	572	1021	0	435	0	0	
5	0	0	0	0	573	1021	0	436	0	0	
6	0	0	0	0	572	1021	0	437	0	0	
7	0	0	0	0	572	1021	0	437	0	0	
8	0	0	0	0	569	1022	0	435	0	0	
9	0	0	0	0	567	1022	0	433	0	0	
10	0	0	0	0	565	1021	0	430	0	0	
11	0	0	0	0	563	1021	0	426	0	0	
12	0	0	0	0	560	1021	0	422	0	0	
13	0	0	0	0	557	1021	0	418	0	0	
14	0	0	0	0	556	1021	0	414	0	0	
15	0	0	0	0	554	1021	0	411	0	0	
0	0	0	0	0	552	1021	0	409	0	0	
1	0	0	0	0	551	1021	0	408	0	0	
2	0	0	0	0	550	1021	0	407	0	0	
3	0	0	0	0	550	1021	0	408	0	0	
4	0	0	0	0	550	1021	0	409	0	0	
5	0	0	0	0	550	1021	0	411	0	0	
6	0	0	0	0	551	1021	0	413	0	0	
7	0	0	0	0	551	1021	0	415	0	0	
8	0	0	0	0	552	1021	0	417	0	0	
9	0	0	0	0	553	1021	0	419	0	0	
10	0	0	0	0	554	1021	0	420	0	0	
11	0	0	0	0	554	1021	0	421	0	0	
12	0	0	0	0	554	1022	0	421	0	0	
13	0	0	0	0	555	1021	0	420	0	0	
14	0	0	0	0	555	1021	0	419	0	0	
15	0	0	0	0	555	1021	0	418	0	0	
0	0	0	0	0	554	1021	0	415	0	0	
1	0	0	0	0	553	1022	0	414	0	0	
2	0	0	0	0	552	1021	0	411	0	0	
3	0	0	0	0	552	1021	0	409	0	0	
4	0	0	0	0	551	1021	0	408	0	0	
5	0	0	0	0	550	1021	0	407	0	0	
6	0	0	0	0	548	1021	0	406	0	0	
7	0	0	0	0	548	1021	0	406	0	0	
8	0	0	0	0	547	1021	0	406	0	0	
9	0	0	0	0	547	1021	0	406	0	0	
10	0	0	0	0	547	1021	0	408	0	0	
11	0	0	0	0	547	1021	0	409	0	0	
12	0	0	0	0	548	1021	0	411	0	0	
13	0	0	0	0	550	1021	0	413	0	0	
14	0	0	0	0	551	1021	0	414	0	0	
15	0	0	0	0	555	1021	0	416	0	0	
0	0	0	0	0	556	1021	0	417	0	0	
1	0	0	0	0	559	1022	0	418	0	0	
2	0	0	0	0	562	1021	0	418	0	0	
3	0	0	0	0	564	1021	0	418	0	0	
4	0	0	0	0	565	1021	0	417	0	0	
5	0	0	0	0	564	1022	0	416	0	0	
6	0	0	0	0	564	1021	0	414	0	0	
7	0	0	0	0	563	1021	0	412	0	0	
8	0	0	0	0	561	1021	0	410	0	0	
9	0	0	0	0	559	1021	0	409	0	0	
10	0	0	0	0	556	1022	0	408	0	0	
11	0	0	0	0	553	1021	0	407	0	0	
12	0	0	0	0	551	1021	0	407	0	0	
13	0	0	0	0	549	1021	0	407	0	0	
14	0	0	0	0	547	1022	0	409	0	0	
15	0	0	0	0	546	1021	0	410	0	0	
0	0	0	0	0	546	1021	0	412	0	0	
1	0	0	0	0	546	1021	0	413	0	0	
2	0	0	0	0	547	1021	0	415	0	0	
3	0	0	0	0	548	1021	0	415	0	0	
4	0	0	0	0	549	1021	0	416	0	0	
5	0	0	0	0	551	1022	0	416	0	0	
6	0	0	0	0	553	1021	0	416	0	0	
7	0	0	0	0	556	1021	0	416	0	0	
8	0	0	0	0	558	1021	0	417	0	0	
9	0	0	0	0	560	1021	0	416	0	0	
10	0	0	0	0	562	1022	0	417	0	0	
11	0	0	0	0	564	1021	0	418	0	0	
12	0	0	0	0	566	1021	0	419	0	0	
13	0	0	0	0	567	1021	0	421	0	0	
14	0	0	0	0	568	1022	0	423	0	0	
15	0	0	0	0	568	1021	0	424	0	0	
0	0	0	0	0	567	1021	0	425	0	0	
1	0	0	0	0	567	1021	0	428	0	0	
2	0	0	0	0	565	1021	0	429	0	0	
3	0	0	0	0	563	1022	0	430	0	0	
4	0	0	0	0	561	1022	0	430	0	0	
5	0	0	0	0	561	1021	0	430	0	0	
6	0	0	0	0	560	1021	0	429	0	0	
7	0	0	0	0	559	1021	0	428	0	0	
8	0	0	0	0	559	1021	0	426	0	0	
9	0	0	0	0	558	1022	0	424	0	0	
10	0	0	0	0	559	1021	0	422	0	0	
11	0	0	0	0	559	1021	0	420	0	0	
12	0	0	0	0	560	1021	0	419	0	0	
13	0	0	0	0	560	1021	0	419	0	0	
14	0	0	0	0	561	1021	0	418	0	0	
15	0	0	0	0	562	1021	0	417	0	0	
0	0	0	0	0	562	1021	0	417	0	0	
1	0	0	0	0	561	1021	0	417	0	0	
2	0	0	0	0	560	1021	0	417	0	0	
3	0	0	0	0	558	1021	0	416	0	0	
4	0	0	0	0	556	1021	0	415	0	0	
5	0	0	0	0	554	1021	0	415	0	0	
6	0	0	0	0	552	1021	0	415	0	0	
7	0	0	0	0	550	1021	0	415	0	0	
8	0	0	0	0	547	1021	0	414	0	0	
9	0	0	0	0	547	1021	0	414	0	0	
10	0	0	0	0	546	1021	0	414	0	0	
11	0	0	0	0	546	1021	0	414	0	0	
12	0	0	0	0	547	1021	0	414	0	0	
13	0	0	0	0	548	1022	0	415	0	0	
14	0	0	0	0	551	1021	0	415	0	0	
15	0	0	0	0	555	1021	0	415	0	0	
0	0	0	0	0	558	1021	0	415	0	0	
1	0	0	0	0	561	1021	0	416	0	0	
2	0	0	0	0	563	1021	0	416	0	0	
3	0	0	0	0	565	1021	0	416	0	0	
4	0	0	0	0	567	1021	0	417	0	0	
5	0	0	0	0	567	1021	0	418	0	0	
6	0	0	0	0	566	1021	0	418	0	0	
7	0	0	0	0	565	1022	0	419	0	0	
8	0	0	0	0	564	1021	0	420	0	0	
9	0	0	0	0	561	1022	0	421	0	0	
10	0	0	0	0	559	1021	0	422	0	0	
11	0	0	0	0	558	1021	0	422	0	0	
12	0	0	0	0	555	1022	0	423	0	0	
13	0	0	0	0	556	1021	0	423	0	0	
14	0	0	0	0	555	1021	0	424	0	0	
15	0	0	0	0	555	1021	0	425	0	0	
0	0	0	0	0	556	1022	0	425	0	0	
1	0	0	0	0	556	1021	0	424	0	0	
2	0	0	0	0	558	1021	0	424	0	0	
3	0	0	0	0	558	1021	0	423	0	0	
4	0	0	0	0	559	1021	0	422	0	0	
5	0	0	0	0	560	1021	0	421	0	0	
6	0	0	0	0	560	1021	0	419	0	0	
7	0	0	0	0	561	1021	0	419	0	0	
8	0	0	0	0	560	1021	0	417	0	0	
9	0	0	0	0	560	1021	0	417	0	0	
10	0	0	0	0	560	1021	0	416	0	0	
11	0	0	0	0	558	1022	0	416	0	0	
12	0	0	0	0	557	1021	0	415	0	0	
13	0	0	0	0	555	1021	0	415	0	0	
14	0	0	0	0	554	1021	0	415	0	0	
15	0	0	0	0	552	1021	0	415	0	0	
0	0	0	0	0	551	1021	0	416	0	0	
1	0	0	0	0	551	1021	0	416	0	0	
2	0	0	0	0	552	1021	0	417	0	0	
3	0	0	0	0	553	1021	0	419	0	0	
4	0	0	0	0	556	1022	0	420	0	0	
5	0	0	0	0	557	1022	0	421	0	0	
6	0	0	0	0	561	1021	0	422	0	0	
7	0	0	0	0	564	1021	0	423	0	0	
8	0	0	0	0	568	1021	0	425	0	0	
9	0	0	0	0	570	1022	0	426	0	0	
10	0	0	0	0	572	1021	0	426	0	0	
11	0	0	0	0	574	1021	0	427	0	0	
12	0	0	0	0	574	1021	0	427	0	0	
13	0	0	0	0	574	1021	0	427	0	0	
14	0	0	0	0	572	1022	1	427	0	0	
15	0	0	0	0	570	1022	0	426	0	0	
0	0	0	0	0	568	1021	0	426	0	0	
1	0	0	0	0	566	1021	0	426	0	0	
2	0	0	0	0	563	1021	0	425	0	0	
3	0	0	0	0	561	1022	0	425	0	0	
4	0	0	0	0	558	1022	0	424	0	0	
5	0	0	0	0	557	1021	0	423	0	0	
6	0	0	0	0	555	1021	0	422	0	0	
7	0	0	0	0	554	1021	0	421	0	0	
8	0	0	0	0	552	1021	0	419	0	0	
9	0	0	0	0	551	1021	0	416	0	0	
10	0	0	0	0	551	1021	0	413	0	0	
11	0	0	0	0	550	1021	0	410	0	0	
12	0	0	0	0	549	1021	0	407	0	0	
13	0	0	0	0	549	1021	0	405	0	0	
14	0	0	0	0	548	1022	0	404	0	0	
15	0	0	0	0	549	1021	0	403	0	0	
0	0	0	0	0	550	1021	0	404	0	0	
1	0	0	0	0	551	1021	0	406	0	0	
2	0	0	0	0	553	1021	0	408	0	0	
3	0	0	0	0	554	1022	0	412	0	0	
4	0	0	0	0	556	1021	0	415	0	0	
5	0	0	0	0	559	1021	0	419	0	0	
6	0	0	0	0	560	1021	0	423	0	0	
7	0	0	0	0	562	1021	0	427	0	0	
8	0	0	0	0	563	1022	0	429	0	0	
9	0	0	0	0	566	1021	0	432	0	0	
10	0	0	0	0	568	1021	0	434	0	0	
11	0	0	0	0	569	1021	0	435	0	0	
12	0	0	0	0	571	1022	0	435	0	0	
13	0	0	0	0	572	1021	0	435	0	0	
14	0	0	0	0	572	1021	0	434	0	0	
15	0	0	0	0	572	1021	0	433	0	0	
0	0	0	0	0	572	1021	0	431	0	0	
1	0	0	0	0	571	1021	0	428	0	0	
2	0	0	0	0	569	1022	0	425	0	0	
3	0	0	0	0	568	1021	0	423	0	0	
4	0	0	0	0	564	1021	0	420	0	0	
5	0	0	0	0	561	1021	0	417	0	0	
6	0	0	0	0	558	1022	0	414	0	0	
7	0	0	0	0	554	1021	0	411	0	0	
8	0	0	0	0	550	1021	0	409	0	0	
9	0	0	0	0	547	1021	0	408	0	0	
10	0	0	0	0	544	1021	0	407	0	0	
11	0	0	0	0	542	1021	0	407	0	0	
12	0	0	0	0	540	1021	0	407	0	0	
13	0	0	0	0	541	1021	0	408	0	0	
14	0	0	0	0	542	1021	0	409	0	0	
15	0	0	0	0	543	1021	0	410	0	0	
0	0	0	0	0	545	1021	0	412	0	0	
1	0	0	0	0	547	1022	0	412	0	0	
2	0	0	0	0	550	1021	0	413	0	0	
3	0	0	0	0	553	1021	0	413	0	0	
4	0	0	0	0	555	1021	0	413	0	0	
5	0	0	0	0	556	1021	0	412	0	0	
6	0	0	0	0	557	1021	0	412	0	0	
7	0	0	0	0	557	1021	0	411	0	0	
8	0	0	0	0	557	1021	0	410	0	0	
9	0	0	0	0	555	1021	0	408	0	0	
10	0	0	0	0	553	1022	0	408	0	0	
11	0	0	0	0	551	1021	0	406	0	0	
12	0	0	0	0	548	1021	0	406	0	0	
13	0	0	0	0	545	1021	0	406	0	0	
14	0	0	0	0	542	1021	0	406	0	0	
15	0	0	0	0	540	1022	0	407	0	0	
0	0	0	0	0	538	1022	0	408	0	0	
1	0	0	0	0	538	1021	0	409	0	0	
2	0	0	0	0	539	1021	0	411	0	0	
3	0	0	0	0	540	1021	0	413	0	0	
4	0	0	0	0	543	1022	0	416	0	0	
5	0	0	0	0	545	1022	0	417	0	0	
6	0	0	0	0	549	1021	0	419	0	0	
7	0	0	0	0	552	1021	0	419	0	0	
8	0	0	0	0	556	1021	0	419	0	0	
9	0	0	0	0	558	1021	0	417	0	0	
10	0	0	0	0	559	1022	0	416	0	0	
11	0	0	0	0	560	1021	0	414	0	0	
12	0	0	0	0	560	1021	0	412	0	0	
13	0	0	0	0	559	1021	0	410	0	0	
14	0	0	0	0	557	1021	0	409	0	0	
15	0	0	0	0	554	1021	0	407	0	0	
0	0	0	0	0	551	1021	0	406	0	0	
1	0	0	0	0	549	1021	0	406	0	0	
2	0	0	0	0	547	1021	0	406	0	0	
3	0	0	0	0	546	1022	0	407	0	0	
4	0	0	0	0	544	1022	0	408	0	0	
5	0	0	0	0	546	1021	0	410	0	0	
6	0	0	0	0	547	1021	0	412	0	0	
7	0	0	0	0	550	1021	0	415	0	0	
8	0	0	0	0	552	1021	0	418	0	0	
9	0	0	0	0	555	1022	0	420	0	0	
10	0	0	0	0	560	1021	0	422	0	0	
11	0	0	0	0	563	1021	0	423	0	0	
12	0	0	0	0	566	1021	0	423	0	0	
13	0	0	0	0	568	1022	0	423	0	0	
14	0	0	0	0	569	1021	0	423	0	0	
15	0	0	0	0	571	1021	0	422	0	0	
0	0	0	0	0	570	1021	0	420	0	0	
1	0	0	0	0	569	1021	0	419	0	0	
2	0	0	0	0	568	1022	0	417	0	0	
3	0	0	0	0	564	1022	0	415	0	0	
4	0	0	0	0	562	1021	0	414	0	0	
5	0	0	0	0	558	1021	0	413	0	0	
6	0	0	0	0	554	1021	0	412	0	0	
7	0	0	0	0	551	1022	0	411	0	0	
8	0	0	0	0	547	1021	0	410	0	0	
9	0	0	0	0	544	1021	0	409	0	0	
10	0	0	0	0	542	1021	0	409	0	0	
11	0	0	0	0	540	1021	0	409	0	0	
12	0	0	0	0	539	1021	0	409	0	0	
13	0	0	0	0	540	1021	0	409	0	0	
14	0	0	0	0	541	1021	0	409	0	0	
15	0	0	0	0	543	1021	0	409	0	0	
0	0	0	0	0	546	1021	0	411	0	0	
1	0	0	0	0	550	1021	0	412	0	0	
2	0	0	0	0	553	1022	0	415	0	0	
3	0	0	0	0	559	1021	0	417	0	0	
4	0	0	0	0	563	1021	0	420	0	0	
5	0	0	0	0	568	1021	0	423	0	0	
6	0	0	0	0	572	1022	0	426	0	0	
7	0	0	0	0	574	1021	0	428	0	0	
8	0	0	0	0	575	1021	0	430	0	0	
9	0	0	0	0	576	1021	0	432	0	0	
10	0	0	0	0	575	1021	0	433	0	0	
11	0	0	0	0	574	1021	0	433	0	0	
12	0	0	0	0	572	1021	0	433	0	0	
13	0	0	0	0	570	1021	0	432	0	0	
14	0	0	0	0	568	1021	0	432	0	0	
15	0	0	0	0	566	1021	0	430	0	0	
0	0	0	0	0	563	1021	0	428	0	0	
1	0	0	0	0	560	1022	0	426	0	0	
2	0	0	0	0	559	1021	0	423	0	0	
3	0	0	0	0	557	1021	0	421	0	0	
4	0	0	0	0	555	1021	0	418	0	0	
5	0	0	0	0	554	1022	0	416	0	0	
6	0	0	0	0	552	1022	0	414	0	0	
7	0	0	0	0	552	1021	0	413	0	0	
8	0	0	0	0	552	1021	0	412	0	0	
9	0	0	0	0	553	1021	0	412	0	0	
10	0	0	0	0	554	1021	0	413	0	0	
11	0	0	0	0	556	1021	0	415	0	0	
12	0	0	0	0	557	1021	0	417	0	0	
13	0	0	0	0	559	1021	0	419	0	0	
14	0	0	0	0	560	1021	0	421	0	0	
15	0	0	0	0	560	1022	0	423	0	0	
0	0	0	0	0	561	1022	0	425	0	0	
1	0	0	0	0	563	1021	0	427	0	0	
2	0	0	0	0	564	1021	0	428	0	0	
3	0	0	0	0	564	1021	0	429	0	0	
4	0	0	0	0	564	1021	0	429	0	0	
5	0	0	0	0	564	1022	0	428	0	0	
6	0	0	0	0	566	1021	0	428	0	0	
7	0	0	0	0	566	1021	0	427	0	0	
8	0	0	0	0	566	1021	0	426	0	0	
9	0	0	0	0	566	1021	0	425	0	0	
10	0	0	0	0	566	1021	0	423	0	0	
11	0	0	0	0	566	1021	0	423	0	0	
12	0	0	0	0	564	1021	0	422	0	0	
13	0	0	0	0	563	1021	0	421	0	0	
14	0	0	0	0	562	1022	0	421	0	0	
15	0	0	0	0	561	1021	0	419	0	0	
0	0	0	0	0	559	1021	0	419	0	0	
1	0	0	0	0	558	1021	0	419	0	0	
2	0	0	0	0	556	1021	0	419	0	0	
3	0	0	0	0	555	1022	0	418	0	0	
4	0	0	0	0	554	1022	0	418	0	0	
5	0	0	0	0	554	1021	0	418	0	0	
6	0	0	0	0	554	1021	0	417	0	0	
7	0	0	0	0	554	1021	0	417	0	0	
8	0	0	0	0	555	1021	0	417	0	0	
9	0	0	0	0	556	1021	0	417	0	0	
10	0	0	0	0	558	1021	0	417	0	0	
11	0	0	0	0	559	1021	0	416	0	0	
12	0	0	0	0	560	1021	0	416	0	0	
13	0	0	0	0	560	1021	0	415	0	0	
14	0	0	0	0	560	1022	0	414	0	0	
15	0	0	0	0	561	1021	0	413	0	0	
0	0	0	0	0	561	1021	0	412	0	0	
1	0	0	0	0	561	1021	0	412	0	0	
2	0	0	0	0	560	1022	0	411	0	0	
3	0	0	0	0	559	1021	0	411	0	0	
4	0	0	0	0	559	1021	0	411	0	0	
5	0	0	0	0	557	1021	0	412	0	0	
6	0	0	0	0	556	1021	0	413	0	0	
7	0	0	0	0	556	1022	0	415	0	0	
8	0	0	0	0	556	1021	0	417	0	0	
9	0	0	0	0	556	1021	0	419	0	0	
10	0	0	0	0	557	1021	0	422	0	0	
11	0	0	0	0	559	1021	0	424	0	0	
12	0	0	0	0	561	1021	0	427	0	0	
13	0	0	0	0	564	1021	0	428	0	0	
14	0	0	0	0	567	1021	0	431	0	0	
15	0	0	0	0	570	1021	0	432	0	0	
0	0	0	0	0	573	1021	0	433	0	0	
1	0	0	0	0	574	1022	0	433	0	0	
2	0	0	0	0	576	1021	0	432	0	0	
3	0	0	0	0	577	1021	0	432	0	0	
4	0	0	0	0	577	1021	0	431	0	0	
5	0	0	0	0	576	1021	0	429	0	0	
6	0	0	0	0	574	1022	0	428	0	0	
7	0	0	0	0	573	1021	0	426	0	0	
8	0	0	0	0	571	1021	0	425	0	0	
9	0	0	0	0	569	1021	0	425	0	0	
10	0	0	0	0	567	1021	0	425	0	0	
11	0	0	0	0	566	1021	0	425	0	0	
12	0	0	0	0	565	1021	0	426	0	0	
13	0	0	0	0	564	1021	0	426	0	0	
14	0	0	0	0	563	1021	0	427	0	0	
15	0	0	0	0	563	1021	0	427	0	0	
0	0	0	0	0	562	1021	0	427	0	0	
1	0	0	0	0	562	1021	0	425	0	0	
2	0	0	0	0	562	1021	0	424	0	0	
3	0	0	0	0	561	1021	0	423	0	0	
4	0	0	0	0	560	1021	0	421	0	0	
5	0	0	0	0	559	1021	0	419	0	0	
6	0	0	0	0	559	1021	0	417	0	0	
7	0	0	0	0	558	1021	0	416	0	0	
8	0	0	0	0	557	1021	0	415	0	0	
9	0	0	0	0	556	1021	0	415	0	0	
10	0	0	0	0	555	1021	0	414	0	0	
11	0	0	0	0	554	1021	0	414	0	0	
12	0	0	0	0	553	1021	0	414	0	0	
13	0	0	0	0	552	1021	0	414	0	0	
14	0	0	0	0	551	1021	0	414	0	0	
15	0	0	0	0	549	1022	0	413	0	0	
0	0	0	0	0	549	1021	0	413	0	0	
1	0	0	0	0	548	1021	0	413	0	0	
2	0	0	0	0	548	1021	0	413	0	0	
3	0	0	0	0	548	1021	0	412	0	0	
4	0	0	0	0	549	1021	0	412	0	0	
5	0	0	0	0	550	1021	0	412	0	0	
6	0	0	0	0	551	1021	0	412	0	0	
7	0	0	0	0	553	1021	0	412	0	0	
8	0	0	0	0	555	1021	0	412	0	0	
9	0	0	0	0	556	1021	0	412	0	0	
10	0	0	0	0	559	1021	0	412	0	0	
11	0	0	0	0	560	1021	0	412	0	0	
12	0	0	0	0	561	1021	0	413	0	0	
13	0	0	0	0	562	1021	0	415	0	0	
14	0	0	0	0	562	1021	0	415	0	0	
15	0	0	0	0	562	1021	0	417	0	0	
0	0	0	0	0	562	1021	0	418	0	0	
1	0	0	0	0	561	1021	0	420	0	0	
2	0	0	0	0	560	1021	0	422	0	0	
3	0	0	0	0	559	1021	0	423	0	0	
4	0	0	0	0	559	1021	0	423	0	0	
5	0	0	0	0	558	1021	0	424	0	0	
6	0	0	0	0	557	1021	0	424	0	0	
7	0	0	0	0	556	1021	0	424	0	0	
8	0	0	0	0	556	1021	0	424	0	0	
9	0	0	0	0	556	1021	0	423	0	0	
10	0	0	0	0	556	1021	0	422	0	0	
11	0	0	0	0	557	1021	0	421	0	0	
12	0	0	0	0	558	1021	0	420	0	0	
13	0	0	0	0	560	1021	0	419	0	0	
14	0	0	0	0	562	1021	0	419	0	0	
15	0	0	0	0	563	1021	0	419	0	0	
0	0	0	0	0	564	1021	0	419	0	0	
1	0	0	0	0	566	1021	0	420	0	0	
2	0	0	0	0	566	1021	0	421	0	0	
3	0	0	0	0	566	1021	0	421	0	0	
4	0	0	0	0	566	1021	0	423	0	0	
5	0	0	0	0	564	1021	0	424	0	0	
6	0	0	0	0	563	1021	0	426	0	0	
7	0	0	0	0	562	1021	0	427	0	0	
8	0	0	0	0	560	1021	0	428	0	0	
9	0	0	0	0	560	1021	0	428	0	0	
10	0	0	0	0	558	1021	0	427	0	0	
11	0	0	0	0	556	1022	0	427	0	0	
12	0	0	0	0	556	1021	0	425	0	0	
13	0	0	0	0	555	1021	0	423	0	0	
14	0	0	0	0	554	1021	0	422	0	0	
15	0	0	0	0	553	1021	0	419	0	0	
0	0	0	0	0	553	1021	0	417	0	0	
1	0	0	0	0	553	1021	0	416	0	0	
2	0	0	0	0	554	1021	0	414	0	0	
3	0	0	0	0	555	1021	0	413	0	0	
4	0	0	0	0	555	1021	0	412	0	0	
5	0	0	0	0	555	1021	0	412	0	0	
6	0	0	0	0	555	1021	0	411	0	0	
7	0	0	0	0	555	1021	0	411	0	0	
8	0	0	0	0	555	1021	0	412	0	0	
9	0	0	0	0	553	1021	0	412	0	0	
10	0	0	0	0	552	1022	0	414	0	0	
11	0	0	0	0	552	1021	0	415	0	0	
12	0	0	0	0	551	1021	0	415	0	0	
13	0	0	0	0	552	1021	0	416	0	0	
14	0	0	0	0	551	1021	0	417	0	0	
15	0	0	0	0	552	1021	0	417	0	0	
0	0	0	0	0	553	1021	0	417	0	0	
1	0	0	0	0	553	1022	0	417	0	0	
2	0	0	0	0	556	1021	0	417	0	0	
3	0	0	0	0	557	1021	0	417	0	0	
4	0	0	0	0	559	1021	0	417	0	0	
5	0	0	0	0	560	1021	0	416	0	0	
6	0	0	0	0	560	1022	0	417	0	0	
7	0	0	0	0	562	1021	0	417	0	0	
8	0	0	0	0	563	1021	0	417	0	0	
9	0	0	0	0	564	1021	0	418	0	0	
10	0	0	0	0	564	1021	0	419	0	0	
11	0	0	0	0	565	1021	0	420	0	0	
12	0	0	0	0	566	1021	0	422	0	0	
13	0	0	0	0	566	1021	0	423	0	0	
14	0	0	0	0	567	1021	0	424	0	0	
15	0	0	0	0	567	1021	0	426	0	0	
0	0	0	0	0	566	1022	0	426	0	0	
1	0	0	0	0	566	1021	0	426	0	0	
2	0	0	0	0	564	1021	0	426	0	0	
3	0	0	0	0	563	1021	0	424	0	0	
4	0	0	0	0	561	1021	0	422	0	0	
5	0	0	0	0	557	1022	0	418	0	0	
6	0	0	0	0	555	1021	0	414	0	0	
7	0	0	0	0	551	1021	0	408	0	0	
8	0	0	0	0	546	1021	0	402	0	0	
9	0	0	0	0	540	1022	1	395	0	0	
10	0	0	0	0	534	1022	0	388	0	0	
11	0	0	0	0	527	1021	0	379	0	0	
12	0	0	0	0	518	1021	0	370	0	0	
13	0	0	0	0	509	1021	0	361	0	0	
14	0	0	0	0	499	1021	0	352	0	0	
15	0	0	0	0	488	1022	0	342	0	0	
0	0	0	0	0	478	1021	0	332	0	0	
1	0	0	0	0	467	1021	0	323	0	0	
2	0	0	0	0	456	1021	0	315	0	0	
3	0	0	0	0	446	1021	0	306	0	0	
4	0	0	0	0	436	1022	0	298	0	0	
5	0	0	0	0	428	1021	0	291	0	0	
6	0	0	0	0	419	1021	0	284	0	0	
7	0	0	0	0	412	1021	0	277	0	0	
8	0	0	0	0	404	1021	0	270	0	0	
9	0	0	0	0	397	1021	0	263	0	0	
10	0	0	0	0	392	1021	0	256	0	0	
11	0	0	0	0	387	1021	0	250	0	0	
12	0	0	0	0	384	1021	0	246	0	0	
13	0	0	0	0	382	1021	0	243	0	0	
14	0	0	0	0	381	1022	0	241	0	0	
15	0	0	0	0	383	1021	0	241	0	0	
0	0	0	0	0	387	1021	0	244	0	0	
1	0	0	0	0	393	1021	0	251	0	0	
2	0	0	0	0	402	1021	0	260	0	0	
3	0	0	0	0	413	1022	0	271	0	0	
4	0	0	0	0	427	1021	0	285	0	0	
5	0	0	0	0	442	1021	0	300	0	0	
6	0	0	0	0	459	1021	0	318	0	0	
7	0	0	0	0	476	1021	0	336	0	0	
8	0	0	0	0	492	1022	0	353	0	0	
9	0	0	0	0	509	1021	0	370	0	0	
10	0	0	0	0	525	1021	0	386	0	0	
11	0	0	0	0	539	1021	0	399	0	0	
12	0	0	0	0	551	1022	0	411	0	0	
13	0	0	0	0	560	1022	0	420	0	0	
14	0	0	0	0	569	1021	0	426	0	0	
15	0	0	0	0	575	1021	0	431	0	0	
0	0	0	0	0	579	1021	0	434	0	0	
1	0	0	0	0	582	1022	0	435	0	0	
2	0	0	0	0	584	1021	0	435	0	0	
3	0	0	0	0	585	1021	0	435	0	0	
4	0	0	0	0	584	1022	0	434	0	0	
5	0	0	0	0	583	1021	0	433	0	0	
6	0	0	0	0	581	1022	0	432	0	0	
7	0	0	0	0	579	1022	0	432	0	0	
8	0	0	0	0	577	1021	0	431	0	0	
9	0	0	0	0	574	1021	0	430	0	0	
10	0	0	0	0	571	1021	0	430	0	0	
11	0	0	0	0	568	1021	0	429	0	0	
12	0	0	0	0	564	1022	0	428	0	0	
13	0	0	0	0	562	1021	0	428	0	0	
14	0	0	0	0	560	1021	0	428	0	0	
15	0	0	0	0	559	1021	0	428	0	0	
0	0	0	0	0	559	1021	0	428	0	0	
1	0	0	0	0	559	1021	0	428	0	0	
2	0	0	0	0	561	1021	0	427	0	0	
3	0	0	0	0	562	1021	0	427	0	0	
4	0	0	0	0	564	1021	0	427	0	0	
5	0	0	0	0	567	1022	0	427	0	0	
6	0	0	0	0	568	1022	0	427	0	0	
7	0	0	0	0	571	1021	0	427	0	0	
8	0	0	0	0	573	1021	0	427	0	0	
9	0	0	0	0	575	1021	0	428	0	0	
10	0	0	0	0	576	1021	0	429	0	0	
11	0	0	0	0	577	1021	0	430	0	0	
12	0	0	0	0	577	1021	0	431	0	0	
13	0	0	0	0	575	1021	0	432	0	0	
14	0	0	0	0	575	1021	0	432	0	0	
15	0	0	0	0	572	1022	0	433	0	0	
0	0	0	0	0	570	1021	0	432	0	0	
1	0	0	0	0	568	1021	0	432	0	0	
2	0	0	0	0	564	1021	0	431	0	0	
3	0	0	0	0	562	1022	0	429	0	0	
4	0	0	0	0	560	1021	0	428	0	0	
5	0	0	0	0	558	1021	0	425	0	0	
6	0	0	0	0	557	1021	0	423	0	0	
7	0	0	0	0	557	1021	0	422	0	0	
8	0	0	0	0	558	1021	0	421	0	0	
9	0	0	0	0	559	1021	0	420	0	0	
10	0	0	0	0	560	1022	0	419	0	0	
11	0	0	0	0	564	1021	0	419	0	0	
12	0	0	0	0	566	1021	0	420	0	0	
13	0	0	0	0	568	1021	0	421	0	0	
14	0	0	0	0	569	1022	0	422	0	0	
15	0	0	0	0	571	1021	0	423	0	0	
0	0	0	0	0	572	1021	0	424	0	0	
1	0	0	0	0	572	1021	0	426	0	0	
2	0	0	0	0	573	1021	0	429	0	0	
3	0	0	0	0	574	1021	0	431	0	0	
4	0	0	0	0	573	1022	0	433	0	0	
5	0	0	0	0	574	1021	0	435	0	0	
6	0	0	0	0	573	1021	0	435	0	0	
7	0	0	0	0	572	1021	0	435	0	0	
8	0	0	0	0	571	1021	0	434	0	0	
9	0	0	0	0	569	1022	0	432	0	0	
10	0	0	0	0	569	1021	0	430	0	0	
11	0	0	0	0	567	1021	0	428	0	0	
12	0	0	0	0	567	1021	0	425	0	0	
13	0	0	0	0	566	1022	0	424	0	0	
14	0	0	0	0	566	1022	0	422	0	0	
15	0	0	0	0	567	1021	0	422	0	0	
0	0	0	0	0	568	1021	0	422	0	0	
1	0	0	0	0	569	1021	0	423	0	0	
2	0	0	0	0	571	1021	0	424	0	0	
3	0	0	0	0	572	1021	0	427	0	0	
4	0	0	0	0	574	1021	0	430	0	0	
5	0	0	0	0	576	1021	0	432	0	0	
6	0	0	0	0	577	1021	0	435	0	0	
7	0	0	0	0	579	1021	0	438	0	0	
8	0	0	0	0	579	1022	0	441	0	0	
9	0	0	0	0	581	1021	0	442	0	0	
10	0	0	0	0	581	1021	0	443	0	0	
11	0	0	0	0	581	1021	0	444	0	0	
12	0	0	0	0	580	1021	0	443	0	0	
13	0	0	0	0	579	1022	0	441	0	0	
14	0	0	0	0	579	1021	0	440	0	0	
15	0	0	0	0	579	1021	0	438	0	0	
0	0	0	0	0	577	1021	0	436	0	0	
1	0	0	0	0	576	1022	0	434	0	0	
2	0	0	0	0	575	1022	0	432	0	0	
3	0	0	0	0	575	1021	0	430	0	0	
4	0	0	0	0	574	1021	0	428	0	0	
5	0	0	0	0	573	1021	0	428	0	0	
6	0	0	0	0	572	1022	0	427	0	0	
7	0	0	0	0	569	1022	0	426	0	0	
8	0	0	0	0	569	1021	0	426	0	0	
9	0	0	0	0	568	1021	0	426	0	0	
10	0	0	0	0	566	1021	0	427	0	0	
11	0	0	0	0	566	1021	0	427	0	0	
12	0	0	0	0	565	1021	0	427	0	0	
13	0	0	0	0	564	1021	0	428	0	0	
14	0	0	0	0	564	1021	0	428	0	0	
15	0	0	0	0	564	1021	0	428	0	0	
0	0	0	0	0	563	1021	0	428	0	0	
1	0	0	0	0	563	1021	0	426	0	0	
2	0	0	0	0	563	1021	0	424	0	0	
3	0	0	0	0	562	1021	0	422	0	0	
4	0	0	0	0	561	1021	0	419	0	0	
5	0	0	0	0	560	1021	0	416	0	0	
6	0	0	0	0	559	1022	0	414	0	0	
7	0	0	0	0	559	1021	0	412	0	0	
8	0	0	0	0	558	1021	0	411	0	0	
9	0	0	0	0	558	1021	0	410	0	0	
10	0	0	0	0	558	1021	0	411	0	0	
11	0	0	0	0	558	1022	0	412	0	0	
12	0	0	0	0	559	1021	0	413	0	0	
13	0	0	0	0	560	1021	0	416	0	0	
14	0	0	0	0	561	1021	0	419	0	0	
15	0	0	0	0	563	1021	0	422	0	0	
0	0	0	0	0	564	1021	0	424	0	0	
1	0	0	0	0	567	1021	0	427	0	0	
2	0	0	0	0	568	1021	0	428	0	0	
3	0	0	0	0	568	1022	0	430	0	0	
4	0	0	0	0	570	1021	0	430	0	0	
5	0	0	0	0	570	1022	0	430	0	0	
6	0	0	0	0	571	1021	0	430	0	0	
7	0	0	0	0	571	1021	0	428	0	0	
8	0	0	0	0	570	1021	0	427	0	0	
9	0	0	0	0	568	1022	0	424	0	0	
10	0	0	0	0	568	1022	0	423	0	0	
11	0	0	0	0	568	1021	0	420	0	0	
12	0	0	0	0	567	1021	0	419	0	0	
13	0	0	0	0	566	1021	0	418	0	0	
14	0	0	0	0	565	1021	0	417	0	0	
15	0	0	0	0	564	1021	0	417	0	0	
0	0	0	0	0	563	1021	0	416	0	0	
1	0	0	0	0	561	1021	0	416	0	0	
2	0	0	0	0	559	1021	0	416	0	0	
3	0	0	0	0	556	1021	0	415	0	0	
4	0	0	0	0	553	1021	0	414	0	0	
5	0	0	0	0	549	1021	0	412	0	0	
6	0	0	0	0	545	1021	0	410	0	0	
7	0	0	0	0	542	1021	0	408	0	0	
8	0	0	0	0	539	1021	0	406	0	0	
9	0	0	0	0	537	1021	0	404	0	0	
10	0	0	0	0	537	1021	0	403	0	0	
11	0	0	0	0	539	1021	0	403	0	0	
12	0	0	0	0	542	1021	0	404	0	0	
13	0	0	0	0	546	1022	0	407	0	0	
14	0	0	0	0	550	1022	0	409	0	0	
15	0	0	0	0	557	1021	0	413	0	0	
0	0	0	0	0	563	1021	0	417	0	0	
1	0	0	0	0	570	1021	0	423	0	0	
2	0	0	0	0	577	1021	0	428	0	0	
3	0	0	0	0	582	1022	0	432	0	0	
4	0	0	0	0	587	1021	0	438	0	0	
5	0	0	0	0	591	1021	0	441	0	0	
6	0	0	0	0	593	1021	0	445	0	0	
7	0	0	0	0	594	1021	0	448	0	0	
8	0	0	0	0	595	1022	0	449	0	0	
9	0	0	0	0	594	1021	0	449	0	0	
10	0	0	0	0	592	1021	0	448	0	0	
11	0	0	0	0	588	1021	0	446	0	0	
12	0	0	0	0	585	1021	0	443	0	0	
13	0	0	0	0	580	1021	0	438	0	0	
14	0	0	0	0	576	1021	0	434	0	0	
15	0	0	0	0	571	1021	0	430	0	0	
0	0	0	0	0	567	1021	0	426	0	0	
1	0	0	0	0	564	1021	0	423	0	0	
2	0	0	0	0	560	1022	0	419	0	0	
3	0	0	0	0	559	1021	0	417	0	0	
4	0	0	0	0	557	1021	0	415	0	0	
5	0	0	0	0	556	1021	0	414	0	0	
6	0	0	0	0	555	1021	0	414	0	0	
7	0	0	0	0	555	1021	0	413	0	0	
8	0	0	0	0	555	1021	0	413	0	0	
9	0	0	0	0	554	1021	0	414	0	0	
10	0	0	0	0	554	1021	0	415	0	0	
11	0	0	0	0	553	1022	0	415	0	0	
12	0	0	0	0	553	1021	0	415	0	0	
13	0	0	0	0	553	1021	0	415	0	0	
14	0	0	0	0	552	1021	0	414	0	0	
15	0	0	0	0	552	1021	0	414	0	0	
0	0	0	0	0	552	1021	0	412	0	0	
1	0	0	0	0	551	1021	0	411	0	0	
2	0	0	0	0	552	1021	0	409	0	0	
3	0	0	0	0	551	1021	0	407	0	0	
4	0	0	0	0	552	1021	0	406	0	0	
5	0	0	0	0	552	1022	0	404	0	0	
6	0	0	0	0	553	1022	0	403	0	0	
7	0	0	0	0	555	1021	0	403	0	0	
8	0	0	0	0	556	1021	0	404	0	0	
9	0	0	0	0	558	1021	0	406	0	0	
10	0	0	0	0	560	1021	0	408	0	0	
11	0	0	0	0	562	1021	0	411	0	0	
12	0	0	0	0	564	1021	0	414	0	0	
13	0	0	0	0	565	1021	0	417	0	0	
14	0	0	0	0	566	1021	0	420	0	0	
15	0	0	0	0	566	1022	0	423	0	0	
0	0	0	0	0	565	1022	0	425	0	0	
1	0	0	0	0	565	1021	0	425	0	0	
2	0	0	0	0	564	1021	0	426	0	0	
3	0	0	0	0	562	1021	0	425	0	0	
4	0	0	0	0	561	1021	0	423	0	0	
5	0	0	0	0	559	1022	0	422	0	0	
6	0	0	0	0	558	1021	0	419	0	0	
7	0	0	0	0	557	1021	0	417	0	0	
8	0	0	0	0	556	1021	0	415	0	0	
9	0	0	0	0	556	1021	0	412	0	0	
10	0	0	0	0	555	1022	0	410	0	0	
11	0	0	0	0	555	1021	0	408	0	0	
12	0	0	0	0	555	1021	0	407	0	0	
13	0	0	0	0	555	1021	0	407	0	0	
14	0	0	0	0	554	1022	0	407	0	0	
15	0	0	0	0	554	1022	0	407	0	0	
0	0	0	0	0	553	1021	0	407	0	0	
1	0	0	0	0	552	1021	0	408	0	0	
2	0	0	0	0	551	1021	0	408	0	0	
3	0	0	0	0	549	1022	0	409	0	0	
4	0	0	0	0	547	1022	0	409	0	0	
5	0	0	0	0	545	1021	0	408	0	0	
6	0	0	0	0	543	1021	0	408	0	0	
7	0	0	0	0	541	1021	0	407	0	0	
8	0	0	0	0	540	1022	0	407	0	0	
9	0	0	0	0	540	1021	0	407	0	0	
10	0	0	0	0	542	1021	0	407	0	0	
11	0	0	0	0	544	1021	0	408	0	0	
12	0	0	0	0	547	1021	0	409	0	0	
13	0	0	0	0	551	1022	0	411	0	0	
14	0	0	0	0	555	1021	0	412	0	0	
15	0	0	0	0	559	1021	0	413	0	0	
0	0	0	0	0	562	1021	0	415	0	0	
1	0	0	0	0	565	1021	0	416	0	0	
2	0	0	0	0	566	1022	0	417	0	0	
3	0	0	0	0	568	1021	0	419	0	0	
4	0	0	0	0	568	1021	0	419	0	0	
5	0	0	0	0	567	1021	0	420	0	0	
6	0	0	0	0	565	1021	0	420	0	0	
7	0	0	0	0	562	1021	0	419	0	0	
8	0	0	0	0	559	1021	0	418	0	0	
9	0	0	0	0	556	1021	0	417	0	0	
10	0	0	0	0	553	1021	0	415	0	0	
11	0	0	0	0	550	1021	0	412	0	0	
12	0	0	0	0	547	1021	0	410	0	0	
13	0	0	0	0	545	1021	0	407	0	0	
14	0	0	0	0	543	1021	0	404	0	0	
15	0	0	0	0	542	1021	0	401	0	0	
0	0	0	0	0	541	1021	0	398	0	0	
1	0	0	0	0	540	1021	0	395	0	0	
2	0	0	0	0	541	1021	0	394	0	0	
3	0	0	0	0	542	1021	0	392	0	0	
4	0	0	0	0	542	1021	0	392	0	0	
5	0	0	0	0	543	1021	0	393	0	0	
6	0	0	0	0	544	1021	0	394	0	0	
7	0	0	0	0	547	1021	0	396	0	0	
8	0	0	0	0	550	1021	0	400	0	0	
9	0	0	0	0	553	1021	0	404	0	0	
10	0	0	0	0	556	1021	0	409	0	0	
11	0	0	0	0	558	1021	0	413	0	0	
12	0	0	0	0	560	1021	0	417	0	0	
13	0	0	0	0	562	1021	0	420	0	0	
14	0	0	0	0	563	1021	0	423	0	0	
15	0	0	0	0	564	1021	0	424	0	0	
0	0	0	0	0	564	1021	0	425	0	0	
1	0	0	0	0	565	1021	0	424	0	0	
2	0	0	0	0	565	1021	0	423	0	0	
3	0	0	0	0	564	1021	0	421	0	0	
4	0	0	0	0	564	1021	0	419	0	0	
5	0	0	0	0	562	1022	0	416	0	0	
6	0	0	0	0	561	1021	0	413	0	0	
7	0	0	0	0	560	1021	0	411	0	0	
8	0	0	0	0	559	1021	0	408	0	0	
9	0	0	0	0	558	1021	0	407	0	0	
10	0	0	0	0	555	1021	1	406	0	0	
11	0	0	0	0	555	1021	0	405	0	0	
12	0	0	0	0	553	1021	0	406	0	0	
13	0	0	0	0	551	1021	0	406	0	0	
14	0	0	0	0	550	1021	0	407	0	0	
15	0	0	0	0	549	1021	0	408	0	0	
0	0	0	0	0	548	1021	0	409	0	0	
1	0	0	0	0	548	1021	0	412	0	0	
2	0	0	0	0	548	1021	0	413	0	0	
3	0	0	0	0	549	1021	0	415	0	0	
4	0	0	0	0	551	1021	0	417	0	0	
5	0	0	0	0	552	1021	0	419	0	0	
6	0	0	0	0	555	1021	0	420	0	0	
7	0	0	0	0	557	1021	0	420	0	0	
8	0	0	0	0	558	1021	0	421	0	0	
9	0	0	0	0	560	1021	0	420	0	0	
10	0	0	0	0	561	1021	0	419	0	0	
11	0	0	0	0	563	1021	0	419	0	0	
12	0	0	0	0	563	1021	0	418	0	0	
13	0	0	0	0	563	1021	0	417	0	0	
14	0	0	0	0	563	1021	0	417	0	0	
15	0	0	0	0	561	1021	0	415	0	0	
0	0	0	0	0	560	1021	0	415	0	0	
1	0	0	0	0	558	1021	0	415	0	0	
2	0	0	0	0	556	1021	0	415	0	0	
3	0	0	0	0	555	1021	0	414	0	0	
4	0	0	0	0	553	1021	0	414	0	0	
5	0	0	0	0	552	1021	0	415	0	0	
6	0	0	0	0	551	1021	0	415	0	0	
7	0	0	0	0	551	1021	0	416	0	0	
8	0	0	0	0	551	1021	0	416	0	0	
9	0	0	0	0	551	1022	0	416	0	0	
10	0	0	0	0	553	1021	0	416	0	0	
11	0	0	0	0	554	1021	0	416	0	0	
12	0	0	0	0	556	1021	0	416	0	0	
13	0	0	0	0	557	1021	0	416	0	0	
14	0	0	0	0	559	1021	0	415	0	0	
15	0	0	0	0	560	1021	0	414	0	0	
0	0	0	0	0	560	1021	0	414	0	0	
1	0	0	0	0	561	1021	0	414	0	0	
2	0	0	0	0	561	1021	0	414	0	0	
3	0	0	0	0	560	1022	0	414	0	0	
4	0	0	0	0	559	1021	0	414	0	0	
5	0	0	0	0	557	1021	0	413	0	0	
6	0	0	0	0	554	1021	0	413	0	0	
7	0	0	0	0	551	1021	0	412	0	0	
8	0	0	0	0	548	1021	0	411	0	0	
9	0	0	0	0	545	1021	0	409	0	0	
10	0	0	0	0	542	1021	0	408	0	0	
11	0	0	0	0	539	1021	0	407	0	0	
12	0	0	0	0	537	1021	0	405	0	0	
13	0	0	0	0	535	1021	0	403	0	0	
14	0	0	0	0	535	1021	0	401	0	0	
15	0	0	0	0	534	1021	0	399	0	0	
0	0	0	0	0	534	1021	0	399	0	0	
1	0	0	0	0	536	1021	0	399	0	0	
2	0	0	0	0	539	1021	0	399	0	0	
3	0	0	0	0	542	1021	0	400	0	0	
4	0	0	0	0	546	1021	0	403	0	0	
5	0	0	0	0	550	1021	0	405	0	0	
6	0	0	0	0	554	1021	0	408	0	0	
7	0	0	0	0	557	1021	0	411	0	0	
8	0	0	0	0	560	1021	0	414	0	0	
9	0	0	0	0	562	1021	0	416	0	0	
10	0	0	0	0	564	1021	0	419	0	0	
11	0	0	0	0	564	1021	0	420	0	0	
12	0	0	0	0	562	1022	0	420	0	0	
13	0	0	0	0	561	1021	0	420	0	0	
14	0	0	0	0	559	1021	0	419	0	0	
15	0	0	0	0	556	1021	0	418	0	0	
0	0	0	0	0	554	1021	0	416	0	0	
1	0	0	0	0	552	1021	0	414	0	0	
2	0	0	0	0	551	1021	0	412	0	0	
3	0	0	0	0	549	1021	0	410	0	0	
4	0	0	0	0	548	1021	0	408	0	0	
5	0	0	0	0	547	1021	0	406	0	0	
6	0	0	0	0	546	1022	0	403	0	0	
7	0	0	0	0	546	1021	0	401	0	0	
8	0	0	0	0	545	1021	0	399	0	0	
9	0	0	0	0	544	1021	0	397	0	0	
10	0	0	0	0	543	1021	0	396	0	0	
11	0	0	0	0	542	1021	0	394	0	0	
12	0	0	0	0	540	1021	0	393	0	0	
13	0	0	0	0	538	1021	0	393	0	0	
14	0	0	0	0	536	1021	0	394	0	0	
15	0	0	0	0	536	1021	0	396	0	0	
0	0	0	0	0	535	1021	0	397	0	0	
1	0	0	0	0	536	1021	0	399	0	0	
2	0	0	0	0	536	1021	0	401	0	0	
3	0	0	0	0	537	1021	0	404	0	0	
4	0	0	0	0	540	1021	0	407	0	0	
5	0	0	0	0	543	1021	0	408	0	0	
6	0	0	0	0	546	1021	0	410	0	0	
7	0	0	0	0	549	1021	0	412	0	0	
8	0	0	0	0	552	1021	0	413	0	0	
9	0	0	0	0	556	1021	0	414	0	0	
10	0	0	0	0	558	1022	0	414	0	0	
11	0	0	0	0	560	1021	0	415	0	0	
12	0	0	0	0	562	1021	0	415	0	0	
13	0	0	0	0	563	1021	0	415	0	0	
14	0	0	0	0	564	1021	0	415	0	0	
15	0	0	0	0	564	1021	0	415	0	0	
0	0	0	0	0	563	1021	0	415	0	0	
1	0	0	0	0	561	1021	0	415	0	0	
2	0	0	0	0	560	1021	0	415	0	0	
3	0	0	0	0	558	1021	0	414	0	0	
4	0	0	0	0	556	1022	0	414	0	0	
5	0	0	0	0	554	1021	0	413	0	0	
6	0	0	0	0	552	1021	0	413	0	0	
7	0	0	0	0	551	1021	0	412	0	0	
8	0	0	0	0	550	1021	0	411	0	0	
9	0	0	0	0	548	1022	0	411	0	0	
10	0	0	0	0	548	1021	0	409	0	0	
11	0	0	0	0	547	1021	0	408	0	0	
12	0	0	0	0	547	1021	0	406	0	0	
13	0	0	0	0	546	1021	0	405	0	0	
14	0	0	0	0	545	1022	0	403	0	0	
15	0	0	0	0	546	1021	0	402	0	0	
0	0	0	0	0	545	1021	0	401	0	0	
1	0	0	0	0	544	1021	0	401	0	0	
2	0	0	0	0	543	1022	0	401	0	0	
3	0	0	0	0	542	1022	0	401	0	0	
4	0	0	0	0	543	1021	0	401	0	0	
5	0	0	0	0	542	1021	0	402	0	0	
6	0	0	0	0	542	1021	0	404	0	0	
7	0	0	0	0	542	1022	0	406	0	0	
8	0	0	0	0	542	1022	0	408	0	0	
9	0	0	0	0	543	1021	0	409	0	0	
10	0	0	0	0	544	1021	0	412	0	0	
11	0	0	0	0	546	1021	0	413	0	0	
12	0	0	0	0	547	1022	0	415	0	0	
13	0	0	0	0	549	1022	0	415	0	0	
14	0	0	0	0	551	1021	0	415	0	0	
15	0	0	0	0	552	1021	0	415	0	0	
0	0	0	0	0	555	1021	0	415	0	0	
1	0	0	0	0	556	1021	0	414	0	0	
2	0	0	0	0	556	1022	0	414	0	0	
3	0	0	0	0	557	1021	0	413	0	0	
4	0	0	0	0	556	1021	0	412	0	0	
5	0	0	0	0	555	1021	0	411	0	0	
6	0	0	0	0	552	1022	0	410	0	0	
7	0	0	0	0	549	1021	0	409	0	0	
8	0	0	0	0	546	1021	0	408	0	0	
9	0	0	0	0	543	1021	0	408	0	0	
10	0	0	0	0	540	1021	0	408	0	0	
11	0	0	0	0	538	1021	0	408	0	0	
12	0	0	0	0	536	1022	0	408	0	0	
13	0	0	0	0	536	1021	0	409	0	0	
14	0	0	0	0	537	1021	0	411	0	0	
15	0	0	0	0	539	1021	0	412	0	0	
0	0	0	0	0	541	1021	0	413	0	0	
1	0	0	0	0	544	1021	0	414	0	0	
2	0	0	0	0	548	1021	0	415	0	0	
3	0	0	0	0	552	1021	0	416	0	0	
4	0	0	0	0	556	1021	0	416	0	0	
5	0	0	0	0	558	1021	0	415	0	0	
6	0	0	0	0	560	1021	0	415	0	0	
7	0	0	0	0	561	1021	0	413	0	0	
8	0	0	0	0	560	1021	0	411	0	0	
9	0	0	0	0	558	1021	0	409	0	0	
10	0	0	0	0	556	1021	0	408	0	0	
11	0	0	0	0	551	1021	0	405	0	0	
12	0	0	0	0	548	1021	0	403	0	0	
13	0	0	0	0	543	1021	0	401	0	0	
14	0	0	0	0	539	1021	0	400	0	0	
15	0	0	0	0	535	1021	0	400	0	0	
0	0	0	0	0	532	1021	0	400	0	0	
1	0	0	0	0	531	1021	0	401	0	0	
2	0	0	0	0	531	1021	0	403	0	0	
3	0	0	0	0	532	1021	0	405	0	0	
4	0	0	0	0	535	1021	0	408	0	0	
5	0	0	0	0	538	1022	0	410	0	0	
6	0	0	0	0	543	1021	0	412	0	0	
7	0	0	0	0	548	1021	0	415	0	0	
8	0	0	0	0	553	1021	0	417	0	0	
9	0	0	0	0	558	1021	0	419	0	0	
10	0	0	0	0	562	1021	0	420	0	0	
11	0	0	0	0	565	1021	0	422	0	0	
12	0	0	0	0	567	1021	0	422	0	0	
13	0	0	0	0	567	1021	0	422	0	0	
14	0	0	0	0	566	1021	0	422	0	0	
15	0	0	0	0	563	1022	0	420	0	0	
0	0	0	0	0	560	1021	0	419	0	0	
1	0	0	0	0	556	1021	0	418	0	0	
2	0	0	0	0	552	1021	0	416	0	0	
3	0	0	0	0	548	1022	0	415	0	0	
4	0	0	0	0	544	1021	0	414	0	0	
5	0	0	0	0	541	1021	0	413	0	0	
6	0	0	0	0	539	1021	0	412	0	0	
7	0	0	0	0	537	1021	0	412	0	0	
8	0	0	0	0	536	1021	0	411	0	0	
9	0	0	0	0	536	1022	0	410	0	0	
10	0	0	0	0	536	1021	0	408	0	0	
11	0	0	0	0	537	1021	0	408	0	0	
12	0	0	0	0	538	1021	0	406	0	0	
13	0	0	0	0	539	1021	0	405	0	0	
14	0	0	0	0	540	1021	0	404	0	0	
15	0	0	0	0	540	1021	0	403	0	0	
0	0	0	0	0	541	1021	0	403	0	0	
1	0	0	0	0	541	1021	0	403	0	0	
2	0	0	0	0	541	1021	0	403	0	0	
3	0	0	0	0	540	1021	0	403	0	0	
4	0	0	0	0	541	1021	0	404	0	0	
5	0	0	0	0	540	1021	0	406	0	0	
6	0	0	0	0	540	1021	0	408	0	0	
7	0	0	0	0	540	1022	0	409	0	0	
8	0	0	0	0	541	1021	0	410	0	0	
9	0	0	0	0	542	1021	0	412	0	0	
10	0	0	0	0	543	1021	0	413	0	0	
11	0	0	0	0	545	1021	0	414	0	0	
12	0	0	0	0	546	1021	0	415	0	0	
13	0	0	0	0	548	1021	0	415	0	0	
14	0	0	0	0	550	1021	0	415	0	0	
15	0	0	0	0	552	1021	0	415	0	0	
0	0	0	0	0	554	1021	0	415	0	0	
1	0	0	0	0	555	1022	0	414	0	0	
2	0	0	0	0	556	1021	0	413	0	0	
3	0	0	0	0	557	1021	0	412	0	0	
4	0	0	0	0	557	1021	0	412	0	0	
5	0	0	0	0	557	1021	0	412	0	0	
6	0	0	0	0	556	1022	0	412	0	0	
7	0	0	0	0	556	1021	0	412	0	0	
8	0	0	0	0	555	1021	0	413	0	0	
9	0	0	0	0	555	1021	0	413	0	0	
10	0	0	0	0	553	1021	0	414	0	0	
11	0	0	0	0	552	1021	0	415	0	0	
12	0	0	0	0	551	1021	0	415	0	0	
13	0	0	0	0	550	1021	0	415	0	0	
14	0	0	0	0	548	1021	0	414	0	0	
15	0	0	0	0	546	1021	0	412	0	0	
0	0	0	0	0	543	1021	0	411	0	0	
1	0	0	0	0	541	1021	0	408	0	0	
2	0	0	0	0	540	1021	0	405	0	0	
3	0	0	0	0	537	1021	0	403	0	0	
4	0	0	0	0	536	1021	0	401	0	0	
5	0	0	0	0	535	1022	0	399	0	0	
6	0	0	0	0	536	1021	0	398	0	0	
7	0	0	0	0	536	1021	0	398	0	0	
8	0	0	0	0	538	1021	0	398	0	0	
9	0	0	0	0	540	1021	0	400	0	0	
10	0	0	0	0	542	1021	0	402	0	0	
11	0	0	0	0	545	1021	0	404	0	0	
12	0	0	0	0	547	1021	0	408	0	0	
13	0	0	0	0	550	1021	0	411	0	0	
14	0	0	0	0	551	1021	0	415	0	0	
15	0	0	0	0	552	1021	0	418	0	0	
0	0	0	0	0	553	1021	0	419	0	0	
1	0	0	0	0	554	1021	0	421	0	0	
2	0	0	0	0	553	1021	0	421	0	0	
3	0	0	0	0	552	1021	0	420	0	0	
4	0	0	0	0	550	1021	0	419	0	0	
5	0	0	0	0	548	1021	0	416	0	0	
6	0	0	0	0	546	1021	0	413	0	0	
7	0	0	0	0	544	1021	0	410	0	0	
8	0	0	0	0	542	1021	0	407	0	0	
9	0	0	0	0	540	1021	0	404	0	0	
10	0	0	0	0	539	1021	0	402	0	0	
11	0	0	0	0	538	1021	0	400	0	0	
12	0	0	0	0	537	1021	0	398	0	0	
13	0	0	0	0	537	1021	0	397	0	0	
14	0	0	0	0	536	1021	0	397	0	0	
15	0	0	0	0	536	1021	0	396	0	0	
0	0	0	0	0	536	1021	0	397	0	0	
1	0	0	0	0	535	1021	0	397	0	0	
2	0	0	0	0	535	1021	0	398	0	0	
3	0	0	0	0	534	1021	0	399	0	0	
4	0	0	0	0	533	1021	0	399	0	0	
5	0	0	0	0	532	1021	0	400	0	0	
6	0	0	0	0	531	1021	0	400	0	0	
7	0	0	0	0	531	1021	0	400	0	0	
8	0	0	0	0	530	1021	0	399	0	0	
9	0	0	0	0	529	1022	0	398	0	0	
10	0	0	0	0	529	1021	0	396	0	0	
11	0	0	0	0	530	1021	0	394	0	0	
12	0	0	0	0	531	1021	0	393	0	0	
13	0	0	0	0	532	1022	0	392	0	0	
14	0	0	0	0	534	1021	0	391	0	0	
15	0	0	0	0	537	1021	0	392	0	0	
0	0	0	0	0	539	1021	0	393	0	0	
1	0	0	0	0	541	1021	0	395	0	0	
2	0	0	0	0	543	1021	0	396	0	0	
3	0	0	0	0	545	1021	0	398	0	0	
4	0	0	0	0	547	1021	0	400	0	0	
5	0	0	0	0	547	1021	0	402	0	0	
6	0	0	0	0	547	1021	0	404	0	0	
7	0	0	0	0	546	1021	0	405	0	0	
8	0	0	0	0	545	1021	0	406	0	0	
9	0	0	0	0	544	1021	0	406	0	0	
10	0	0	0	0	543	1021	0	406	0	0	
11	0	0	0	0	542	1021	0	405	0	0	
12	0	0	0	0	540	1021	0	404	0	0	
13	0	0	0	0	539	1021	0	402	0	0	
14	0	0	0	0	538	1021	0	400	0	0	
15	0	0	0	0	536	1021	0	398	0	0	
0	0	0	0	0	536	1021	0	396	0	0	
1	0	0	0	0	535	1021	0	394	0	0	
2	0	0	0	0	535	1021	0	392	0	0	
3	0	0	0	0	535	1021	0	391	0	0	
4	0	0	0	0	535	1021	0	390	0	0	
5	0	0	0	0	535	1021	0	391	0	0	
6	0	0	0	0	535	1021	0	391	0	0	
7	0	0	0	0	535	1021	0	391	0	0	
8	0	0	0	0	535	1021	0	393	0	0	
9	0	0	0	0	535	1021	0	395	0	0	
10	0	0	0	0	534	1021	0	396	0	0	
11	0	0	0	0	533	1021	0	398	0	0	
12	0	0	0	0	532	1022	0	399	0	0	
13	0	0	0	0	533	1021	0	400	0	0	
14	0	0	0	0	534	1021	0	402	0	0	
15	0	0	0	0	535	1021	0	403	0	0	
0	0	0	0	0	536	1021	0	405	0	0	
1	0	0	0	0	538	1022	0	406	0	0	
2	0	0	0	0	541	1021	0	406	0	0	
3	0	0	0	0	543	1021	0	407	0	0	
4	0	0	0	0	545	1021	0	407	0	0	
5	0	0	0	0	548	1021	0	407	0	0	
6	0	0	0	0	550	1022	0	407	0	0	
7	0	0	0	0	552	1021	0	406	0	0	
8	0	0	0	0	554	1021	0	406	0	0	
9	0	0	0	0	555	1021	0	406	0	0	
10	0	0	0	0	555	1022	0	406	0	0	
11	0	0	0	0	556	1021	0	406	0	0	
12	0	0	0	0	556	1021	0	406	0	0	
13	0	0	0	0	556	1021	0	407	0	0	
14	0	0	0	0	556	1021	0	407	0	0	
15	0	0	0	0	554	1021	0	407	0	0	
0	0	0	0	0	553	1021	0	407	0	0	
1	0	0	0	0	552	1021	0	407	0	0	
2	0	0	0	0	551	1021	0	407	0	0	
3	0	0	0	0	550	1021	0	406	0	0	
4	0	0	0	0	548	1021	0	406	0	0	
5	0	0	0	0	547	1021	0	404	0	0	
6	0	0	0	0	546	1021	0	403	0	0	
7	0	0	0	0	545	1021	0	402	0	0	
8	0	0	0	0	544	1021	0	400	0	0	
9	0	0	0	0	543	1022	0	398	0	0	
10	0	0	0	0	542	1021	0	396	0	0	
11	0	0	0	0	542	1021	0	395	0	0	
12	0	0	0	0	541	1021	0	394	0	0	
13	0	0	0	0	540	1021	0	393	0	0	
14	0	0	0	0	540	1021	0	393	0	0	
15	0	0	0	0	540	1021	0	394	0	0	
0	0	0	0	0	540	1021	0	395	0	0	
1	0	0	0	0	540	1021	0	397	0	0	
2	0	0	0	0	541	1021	0	399	0	0	
3	0	0	0	0	541	1021	0	400	0	0	
4	0	0	0	0	542	1021	0	402	0	0	
5	0	0	0	0	542	1021	0	403	0	0	
6	0	0	0	0	542	1021	0	403	0	0	
7	0	0	0	0	541	1021	0	403	0	0	
8	0	0	0	0	540	1021	0	402	0	0	
9	0	0	0	0	539	1021	0	400	0	0	
10	0	0	0	0	538	1021	0	397	0	0	
11	0	0	0	0	535	1021	0	393	0	0	
12	0	0	0	0	532	1021	0	388	0	0	
13	0	0	0	0	527	1021	0	382	0	0	
14	0	0	0	0	523	1021	0	375	0	0	
15	0	0	0	0	518	1021	0	368	0	0	
0	0	0	0	0	512	1021	0	362	0	0	
1	0	0	0	0	505	1021	0	355	0	0	
2	0	0	0	0	498	1021	0	348	0	0	
3	0	0	0	0	491	1021	0	342	0	0	
4	0	0	0	0	483	1021	0	335	0	0	
5	0	0	0	0	475	1021	0	329	0	0	
6	0	0	0	0	467	1021	0	323	0	0	
7	0	0	0	0	459	1021	0	318	0	0	
8	0	0	0	0	451	1021	0	311	0	0	
9	0	0	0	0	442	1021	0	304	0	0	
10	0	0	0	0	433	1021	0	297	0	0	
11	0	0	0	0	424	1021	0	289	0	0	
12	0	0	0	0	415	1021	0	280	0	0	
13	0	0	0	0	404	1021	0	270	0	0	
14	0	0	0	0	394	1021	0	259	0	0	
15	0	0	0	0	383	1021	0	246	0	0	
0	0	0	0	0	372	1021	0	234	0	0	
1	0	0	0	0	361	1021	0	222	0	0	
2	0	0	0	0	352	1021	0	211	0	0	
3	0	0	0	0	344	1021	0	201	0	0	
4	0	0	0	0	337	1021	0	194	0	0	
5	0	0	0	0	334	1021	0	191	0	0	
6	0	0	0	0	334	1021	0	191	0	0	
7	0	0	0	0	337	1021	0	194	0	0	
8	0	0	0	0	345	1021	0	203	0	0	
9	0	0	0	0	357	1021	0	215	0	0	
10	0	0	0	0	373	1021	0	231	0	0	
11	0	0	0	0	391	1021	0	251	0	0	
12	0	0	0	0	413	1021	0	272	0	0	
13	0	0	0	0	436	1021	0	295	0	0	
14	0	0	0	0	460	1021	0	318	0	0	
15	0	0	0	0	483	1021	0	342	0	0	
0	0	0	0	0	506	1021	0	363	0	0	
1	0	0	0	0	527	1021	0	383	0	0	
2	0	0	0	0	545	1021	0	399	0	0	
3	0	0	0	0	560	1021	0	413	0	0	
4	0	0	0	0	572	1021	0	423	0	0	
5	0	0	0	0	580	1022	0	430	0	0	
6	0	0	0	0	583	1022	0	433	0	0	
7	0	0	0	0	586	1021	0	433	0	0	
8	0	0	0	0	583	1021	0	431	0	0	
9	0	0	0	0	580	1021	0	428	0	0	
10	0	0	0	0	574	1021	0	423	0	0	
11	0	0	0	0	566	1021	0	416	0	0	
12	0	0	0	0	558	1021	0	411	0	0	
13	0	0	0	0	550	1021	0	406	0	0	
14	0	0	0	0	543	1021	0	401	0	0	
15	0	0	0	0	537	1021	0	398	0	0	
0	0	0	0	0	531	1022	0	395	0	0	
1	0	0	0	0	528	1021	0	393	0	0	
2	0	0	0	0	526	1021	0	392	0	0	
3	0	0	0	0	526	1021	0	391	0	0	
4	0	0	0	0	526	1022	0	392	0	0	
5	0	0	0	0	527	1022	0	392	0	0	
6	0	0	0	0	529	1021	0	392	0	0	
7	0	0	0	0	532	1021	0	393	0	0	
8	0	0	0	0	535	1021	0	393	0	0	
9	0	0	0	0	539	1021	0	394	0	0	
10	0	0	0	0	541	1022	0	395	0	0	
11	0	0	0	0	545	1021	0	396	0	0	
12	0	0	0	0	547	1021	0	397	0	0	
13	0	0	0	0	550	1021	0	399	0	0	
14	0	0	0	0	552	1021	0	401	0	0	
15	0	0	0	0	554	1021	0	403	0	0	
0	0	0	0	0	556	1021	0	406	0	0	
1	0	0	0	0	557	1021	0	409	0	0	
2	0	0	0	0	558	1021	0	412	0	0	
3	0	0	0	0	559	1021	0	415	0	0	
4	0	0	0	0	558	1022	0	417	0	0	
5	0	0	0	0	558	1021	0	418	0	0	
6	0	0	0	0	558	1021	0	419	0	0	
7	0	0	0	0	557	1021	0	420	0	0	
8	0	0	0	0	556	1021	0	419	0	0	
9	0	0	0	0	555	1022	0	418	0	0	
10	0	0	0	0	556	1021	0	416	0	0	
11	0	0	0	0	554	1021	0	414	0	0	
12	0	0	0	0	554	1021	0	411	0	0	
13	0	0	0	0	553	1021	0	408	0	0	
14	0	0	0	0	551	1022	0	405	0	0	
15	0	0	0	0	551	1021	0	402	0	0	
0	0	0	0	0	551	1021	0	401	0	0	
1	0	0	0	0	551	1021	0	399	0	0	
2	0	0	0	0	550	1021	0	399	0	0	
3	0	0	0	0	550	1021	0	400	0	0	
4	0	0	0	0	550	1021	0	401	0	0	
5	0	0	0	0	550	1021	0	404	0	0	
6	0	0	0	0	551	1021	0	407	0	0	
7	0	0	0	0	551	1021	0	409	0	0	
8	0	0	0	0	552	1021	0	412	0	0	
9	0	0	0	0	553	1021	0	414	0	0	
10	0	0	0	0	554	1021	0	416	0	0	
11	0	0	0	0	555	1021	0	417	0	0	
12	0	0	0	0	556	1021	0	418	0	0	
13	0	0	0	0	556	1022	0	418	0	0	
14	0	0	0	0	557	1021	0	417	0	0	
15	0	0	0	0	557	1021	0	416	0	0	
0	0	0	0	0	557	1021	0	414	0	0	
1	0	0	0	0	556	1021	0	411	0	0	
2	0	0	0	0	555	1021	0	408	0	0	
3	0	0	0	0	554	1021	0	406	0	0	
4	0	0	0	0	553	1021	0	404	0	0	
5	0	0	0	0	551	1021	0	402	0	0	
6	0	0	0	0	548	1021	0	400	0	0	
7	0	0	0	0	547	1022	0	400	0	0	
8	0	0	0	0	546	1021	0	400	0	0	
9	0	0	0	0	545	1021	0	401	0	0	
10	0	0	0	0	543	1021	0	402	0	0	
11	0	0	0	0	542	1021	0	404	0	0	
12	0	0	0	0	542	1021	0	405	0	0	
13	0	0	0	0	542	1021	0	406	0	0	
14	0	0	0	0	542	1021	0	407	0	0	
15	0	0	0	0	542	1021	0	407	0	0	
0	0	0	0	0	543	1021	0	408	0	0	
1	0	0	0	0	544	1021	0	407	0	0	
2	0	0	0	0	546	1021	0	407	0	0	
3	0	0	0	0	548	1021	0	406	0	0	
4	0	0	0	0	550	1021	0	406	0	0	
5	0	0	0	0	551	1021	0	405	0	0	
6	0	0	0	0	552	1022	0	404	0	0	
7	0	0	0	0	554	1021	0	403	0	0	
8	0	0	0	0	555	1021	0	403	0	0	
9	0	0	0	0	555	1021	0	403	0	0	
10	0	0	0	0	555	1021	0	404	0	0	
11	0	0	0	0	553	1021	0	403	0	0	
12	0	0	0	0	552	1021	0	403	0	0	
13	0	0	0	0	550	1021	0	404	0	0	
14	0	0	0	0	547	1021	0	404	0	0	
15	0	0	0	0	545	1021	0	404	0	0	
0	0	0	0	0	542	1021	0	403	0	0	
1	0	0	0	0	540	1021	0	403	0	0	
2	0	0	0	0	537	1021	0	403	0	0	
3	0	0	0	0	536	1021	0	402	0	0	
4	0	0	0	0	535	1021	0	401	0	0	
5	0	0	0	0	535	1021	0	400	0	0	
6	0	0	0	0	535	1021	0	399	0	0	
7	0	0	0	0	535	1021	0	398	0	0	
8	0	0	0	0	536	1021	0	397	0	0	
9	0	0	0	0	537	1021	0	396	0	0	
10	0	0	0	0	538	1021	0	394	0	0	
11	0	0	0	0	540	1021	0	394	0	0	
12	0	0	0	0	542	1021	0	394	0	0	
13	0	0	0	0	544	1021	0	395	0	0	
14	0	0	0	0	546	1021	0	396	0	0	
15	0	0	0	0	548	1022	0	398	0	0	
0	0	0	0	0	551	1021	0	400	0	0	
1	0	0	0	0	552	1021	0	402	0	0	
2	0	0	0	0	553	1021	0	404	0	0	
3	0	0	0	0	553	1022	0	406	0	0	
4	0	0	0	0	553	1022	0	407	0	0	
5	0	0	0	0	553	1021	0	407	0	0	
6	0	0	0	0	551	1021	0	407	0	0	
7	0	0	0	0	550	1021	0	407	0	0	
8	0	0	0	0	548	1021	0	406	0	0	
9	0	0	0	0	546	1021	0	405	0	0	
10	0	0	0	0	545	1021	0	403	0	0	
11	0	0	0	0	543	1021	0	402	0	0	
12	0	0	0	0	542	1021	0	401	0	0	
13	0	0	0	0	542	1021	0	400	0	0	
14	0	0	0	0	540	1022	0	399	0	0	
15	0	0	0	0	541	1021	0	398	0	0	
0	0	0	0	0	541	1021	0	398	0	0	
1	0	0	0	0	541	1021	0	399	0	0	
2	0	0	0	0	543	1021	0	399	0	0	
3	0	0	0	0	543	1022	0	400	0	0	
4	0	0	0	0	544	1021	0	401	0	0	
5	0	0	0	0	544	1021	0	402	0	0	
6	0	0	0	0	545	1021	0	403	0	0	
7	0	0	0	0	545	1021	0	405	0	0	
8	0	0	0	0	546	1022	0	406	0	0	
9	0	0	0	0	547	1021	0	407	0	0	
10	0	0	0	0	547	1021	0	408	0	0	
11	0	0	0	0	548	1021	0	408	0	0	
12	0	0	0	0	549	1022	0	408	0	0	
13	0	0	0	0	550	1022	0	408	0	0	
14	0	0	0	0	551	1021	0	408	0	0	
15	0	0	0	0	551	1021	0	407	0	0	
0	0	0	0	0	552	1021	0	405	0	0	
1	0	0	0	0	551	1022	0	403	0	0	
2	0	0	0	0	551	1021	0	400	0	0	
3	0	0	0	0	550	1021	0	399	0	0	
4	0	0	0	0	548	1021	0	397	0	0	
5	0	0	0	0	546	1021	0	395	0	0	
6	0	0	0	0	544	1021	0	394	0	0	
7	0	0	0	0	540	1022	0	392	0	0	
8	0	0	0	0	539	1021	0	392	0	0	
9	0	0	0	0	537	1021	0	392	0	0	
10	0	0	0	0	535	1021	0	393	0	0	
11	0	0	0	0	534	1021	0	394	0	0	
12	0	0	0	0	532	1022	0	396	0	0	
13	0	0	0	0	533	1021	0	397	0	0	
14	0	0	0	0	533	1021	0	399	0	0	
15	0	0	0	0	533	1021	0	399	0	0	
0	0	0	0	0	533	1021	0	399	0	0	
1	0	0	0	0	534	1021	0	398	0	0	
2	0	0	0	0	534	1021	0	396	0	0	
3	0	0	0	0	534	1021	0	394	0	0	
4	0	0	0	0	534	1021	0	392	0	0	
5	0	0	0	0	534	1021	0	389	0	0	
6	0	0	0	0	532	1022	0	386	0	0	
7	0	0	0	0	533	1021	0	383	0	0	
8	0	0	0	0	532	1021	0	381	0	0	
9	0	0	0	0	531	1021	0	380	0	0	
10	0	0	0	0	531	1021	0	378	0	0	
11	0	0	0	0	530	1021	0	377	0	0	
12	0	0	0	0	529	1021	0	377	0	0	
13	0	0	0	0	527	1021	0	377	0	0	
14	0	0	0	0	526	1021	0	377	0	0	
15	0	0	0	0	526	1021	0	379	0	0	
0	0	0	0	0	524	1021	0	380	0	0	
1	0	0	0	0	525	1021	0	382	0	0	
2	0	0	0	0	526	1021	0	384	0	0	
3	0	0	0	0	528	1021	0	387	0	0	
4	0	0	0	0	530	1021	0	390	0	0	
5	0	0	0	0	531	1022	0	393	0	0	
6	0	0	0	0	535	1021	0	395	0	0	
7	0	0	0	0	537	1021	0	397	0	0	
8	0	0	0	0	540	1021	0	398	0	0	
9	0	0	0	0	541	1022	1	399	0	0	
10	0	0	0	0	543	1022	0	399	0	0	
11	0	0	0	0	545	1021	0	399	0	0	
12	0	0	0	0	546	1021	0	399	0	0	
13	0	0	0	0	546	1021	0	399	0	0	
14	0	0	0	0	545	1022	0	399	0	0	
15	0	0	0	0	545	1021	0	398	0	0	
0	0	0	0	0	543	1021	0	397	0	0	
1	0	0	0	0	542	1021	0	397	0	0	
2	0	0	0	0	541	1021	0	397	0	0	
3	0	0	0	0	539	1021	0	397	0	0	
4	0	0	0	0	537	1021	0	396	0	0	
5	0	0	0	0	537	1021	0	396	0	0	
6	0	0	0	0	536	1021	0	397	0	0	
7	0	0	0	0	535	1021	0	397	0	0	
8	0	0	0	0	535	1021	0	397	0	0	
9	0	0	0	0	535	1021	0	396	0	0	
10	0	0	0	0	535	1021	0	396	0	0	
11	0	0	0	0	535	1021	0	395	0	0	
12	0	0	0	0	534	1021	0	393	0	0	
13	0	0	0	0	534	1021	0	391	0	0	
14	0	0	0	0	532	1022	0	390	0	0	
15	0	0	0	0	531	1021	0	387	0	0	
0	0	0	0	0	531	1021	0	386	0	0	
1	0	0	0	0	530	1021	0	384	0	0	
2	0	0	0	0	529	1021	0	384	0	0	
3	0	0	0	0	528	1022	0	383	0	0	
4	0	0	0	0	528	1021	0	383	0	0	
5	0	0	0	0	528	1021	0	384	0	0	
6	0	0	0	0	528	1021	0	385	0	0	
7	0	0	0	0	528	1021	0	387	0	0	
8	0	0	0	0	527	1022	0	388	0	0	
9	0	0	0	0	528	1021	0	390	0	0	
10	0	0	0	0	529	1021	0	391	0	0	
11	0	0	0	0	530	1021	0	392	0	0	
12	0	0	0	0	530	1021	0	393	0	0	
13	0	0	0	0	531	1022	0	394	0	0	
14	0	0	0	0	532	1021	0	393	0	0	
15	0	0	0	0	534	1021	0	393	0	0	
0	0	0	0	0	535	1021	0	392	0	0	
1	0	0	0	0	535	1022	0	391	0	0	
2	0	0	0	0	536	1022	0	391	0	0	
3	0	0	0	0	536	1021	0	389	0	0	
4	0	0	0	0	536	1021	0	388	0	0	
5	0	0	0	0	536	1021	0	387	0	0	
6	0	0	0	0	536	1022	0	387	0	0	
7	0	0	0	0	535	1022	0	387	0	0	
8	0	0	0	0	535	1021	0	387	0	0	
9	0	0	0	0	535	1021	0	389	0	0	
10	0	0	0	0	535	1021	0	391	0	0	
11	0	0	0	0	535	1021	0	393	0	0	
12	0	0	0	0	535	1021	0	395	0	0	
13	0	0	0	0	536	1021	0	397	0	0	
14	0	0	0	0	536	1021	0	399	0	0	
15	0	0	0	0	537	1021	0	399	0	0	
0	0	0	0	0	538	1021	0	400	0	0	
1	0	0	0	0	538	1021	0	399	0	0	
2	0	0	0	0	539	1021	0	399	0	0	
3	0	0	0	0	540	1021	0	397	0	0	
4	0	0	0	0	540	1021	0	396	0	0	
5	0	0	0	0	541	1021	0	395	0	0	
6	0	0	0	0	541	1021	0	392	0	0	
7	0	0	0	0	541	1021	0	391	0	0	
8	0	0	0	0	541	1021	0	390	0	0	
9	0	0	0	0	541	1021	0	390	0	0	
10	0	0	0	0	541	1021	0	390	0	0	
11	0	0	0	0	540	1021	0	390	0	0	
12	0	0	0	0	540	1021	0	391	0	0	
13	0	0	0	0	540	1021	0	394	0	0	
14	0	0	0	0	540	1021	0	396	0	0	
15	0	0	0	0	540	1021	0	399	0	0	
0	0	0	0	0	540	1021	0	401	0	0	
1	0	0	0	0	540	1021	0	402	0	0	
2	0	0	0	0	540	1021	0	404	0	0	
3	0	0	0	0	540	1021	0	404	0	0	
4	0	0	0	0	540	1021	0	404	0	0	
5	0	0	0	0	540	1022	0	403	0	0	
6	0	0	0	0	540	1021	0	401	0	0	
7	0	0	0	0	539	1021	0	398	0	0	
8	0	0	0	0	538	1021	0	395	0	0	
9	0	0	0	0	537	1021	0	392	0	0	
10	0	0	0	0	536	1021	0	390	0	0	
11	0	0	0	0	535	1021	0	387	0	0	
12	0	0	0	0	535	1021	0	385	0	0	
13	0	0	0	0	534	1021	0	384	0	0	
14	0	0	0	0	533	1022	0	384	0	0	
15	0	0	0	0	534	1022	0	385	0	0	
0	0	0	0	0	535	1021	0	385	0	0	
1	0	0	0	0	535	1021	0	387	0	0	
2	0	0	0	0	536	1021	0	390	0	0	
3	0	0	0	0	536	1021	0	391	0	0	
4	0	0	0	0	536	1022	0	394	0	0	
5	0	0	0	0	537	1021	0	396	0	0	
6	0	0	0	0	537	1021	0	398	0	0	
7	0	0	0	0	537	1021	0	399	0	0	
8	0	0	0	0	538	1021	0	400	0	0	
9	0	0	0	0	539	1021	0	399	0	0	
10	0	0	0	0	540	1021	0	399	0	0	
11	0	0	0	0	540	1021	0	399	0	0	
12	0	0	0	0	540	1021	0	396	0	0	
13	0	0	0	0	540	1021	0	395	0	0	
14	0	0	0	0	538	1022	0	392	0	0	
15	0	0	0	0	537	1021	0	390	0	0	
0	0	0	0	0	536	1021	0	388	0	0	
1	0	0	0	0	535	1021	0	387	0	0	
2	0	0	0	0	535	1021	0	387	0	0	
3	0	0	0	0	534	1022	0	387	0	0	
4	0	0	0	0	534	1021	0	387	0	0	
5	0	0	0	0	534	1021	0	389	0	0	
6	0	0	0	0	535	1021	0	391	0	0	
7	0	0	0	0	535	1021	0	393	0	0	
8	0	0	0	0	536	1021	0	394	0	0	
9	0	0	0	0	536	1021	0	396	0	0	
10	0	0	0	0	536	1021	0	396	0	0	
11	0	0	0	0	536	1021	0	396	0	0	
12	0	0	0	0	536	1021	0	395	0	0	
13	0	0	0	0	535	1021	0	394	0	0	
14	0	0	0	0	536	1021	0	393	0	0	
15	0	0	0	0	536	1021	0	392	0	0	
0	0	0	0	0	535	1021	0	391	0	0	
1	0	0	0	0	535	1021	0	390	0	0	
2	0	0	0	0	535	1021	0	389	0	0	
3	0	0	0	0	536	1021	0	389	0	0	
4	0	0	0	0	536	1021	0	390	0	0	
5	0	0	0	0	537	1021	0	391	0	0	
6	0	0	0	0	538	1022	0	393	0	0	
7	0	0	0	0	539	1021	0	395	0	0	
8	0	0	0	0	541	1021	0	398	0	0	
9	0	0	0	0	543	1021	0	400	0	0	
10	0	0	0	0	544	1021	0	403	0	0	
11	0	0	0	0	545	1022	0	405	0	0	
12	0	0	0	0	546	1021	0	406	0	0	
13	0	0	0	0	547	1021	0	407	0	0	
14	0	0	0	0	547	1021	0	408	0	0	
15	0	0	0	0	547	1021	0	408	0	0	
0	0	0	0	0	546	1021	0	407	0	0	
1	0	0	0	0	545	1021	0	405	0	0	
2	0	0	0	0	544	1021	0	403	0	0	
3	0	0	0	0	543	1021	0	401	0	0	
4	0	0	0	0	542	1021	0	399	0	0	
5	0	0	0	0	540	1022	0	396	0	0	
6	0	0	0	0	538	1021	0	393	0	0	
7	0	0	0	0	537	1021	0	391	0	0	
8	0	0	0	0	536	1021	0	389	0	0	
9	0	0	0	0	534	1021	0	387	0	0	
10	0	0	0	0	532	1021	0	385	0	0	
11	0	0	0	0	530	1021	0	384	0	0	
12	0	0	0	0	529	1021	0	383	0	0	
13	0	0	0	0	527	1021	0	383	0	0	
14	0	0	0	0	527	1021	0	384	0	0	
15	0	0	0	0	525	1021	0	384	0	0	
0	0	0	0	0	525	1021	0	385	0	0	
1	0	0	0	0	526	1021	0	387	0	0	
2	0	0	0	0	527	1021	0	389	0	0	
3	0	0	0	0	528	1021	0	390	0	0	
4	0	0	0	0	529	1021	0	391	0	0	
5	0	0	0	0	531	1022	0	393	0	0	
6	0	0	0	0	533	1021	0	393	0	0	
7	0	0	0	0	535	1021	0	393	0	0	
8	0	0	0	0	536	1021	0	392	0	0	
9	0	0	0	0	536	1022	0	392	0	0	
10	0	0	0	0	536	1022	0	391	0	0	
11	0	0	0	0	536	1021	0	389	0	0	
12	0	0	0	0	536	1021	0	388	0	0	
13	0	0	0	0	535	1021	0	387	0	0	
14	0	0	0	0	533	1022	1	386	0	0	
15	0	0	0	0	532	1022	0	386	0	0	
0	0	0	0	0	532	1021	0	385	0	0	
1	0	0	0	0	531	1021	0	386	0	0	
2	0	0	0	0	531	1021	0	387	0	0	
3	0	0	0	0	529	1022	0	388	0	0	
4	0	0	0	0	529	1021	0	389	0	0	
5	0	0	0	0	529	1021	0	391	0	0	
6	0	0	0	0	529	1021	0	391	0	0	
7	0	0	0	0	528	1021	0	391	0	0	
8	0	0	0	0	528	1022	0	391	0	0	
9	0	0	0	0	528	1022	0	390	0	0	
10	0	0	0	0	527	1021	0	388	0	0	
11	0	0	0	0	528	1021	0	387	0	0	
12	0	0	0	0	527	1021	0	385	0	0	
13	0	0	0	0	527	1021	0	383	0	0	
14	0	0	0	0	527	1021	0	382	0	0	
15	0	0	0	0	528	1021	0	380	0	0	
0	0	0	0	0	528	1021	0	380	0	0	
1	0	0	0	0	528	1021	0	380	0	0	
2	0	0	0	0	528	1021	0	381	0	0	
3	0	0	0	0	527	1022	0	382	0	0	
4	0	0	0	0	527	1021	0	382	0	0	
5	0	0	0	0	527	1021	0	384	0	0	
6	0	0	0	0	526	1021	0	385	0	0	
7	0	0	0	0	525	1021	0	387	0	0	
8	0	0	0	0	524	1021	0	387	0	0	
9	0	0	0	0	524	1021	0	388	0	0	
10	0	0	0	0	524	1021	0	388	0	0	
11	0	0	0	0	524	1021	0	388	0	0	
12	0	0	0	0	525	1021	0	389	0	0	
13	0	0	0	0	526	1021	0	388	0	0	
14	0	0	0	0	527	1021	0	388	0	0	
15	0	0	0	0	529	1021	0	387	0	0	
0	0	0	0	0	531	1021	0	388	0	0	
1	0	0	0	0	534	1021	0	388	0	0	
2	0	0	0	0	536	1022	0	388	0	0	
3	0	0	0	0	538	1021	0	388	0	0	
4	0	0	0	0	540	1021	0	389	0	0	
5	0	0	0	0	541	1021	0	389	0	0	
6	0	0	0	0	541	1021	0	390	0	0	
7	0	0	0	0	540	1021	0	389	0	0	
8	0	0	0	0	538	1021	0	389	0	0	
9	0	0	0	0	536	1021	0	389	0	0	
10	0	0	0	0	534	1021	0	389	0	0	
11	0	0	0	0	531	1021	0	389	0	0	
12	0	0	0	0	528	1021	0	388	0	0	
13	0	0	0	0	527	1021	0	389	0	0	
14	0	0	0	0	525	1021	0	390	0	0	
15	0	0	0	0	524	1021	0	390	0	0	
0	0	0	0	0	525	1021	1	389	0	0	
1	0	0	0	0	526	1022	0	390	0	0	
2	0	0	0	0	528	1021	0	390	0	0	
3	0	0	0	0	531	1021	0	391	0	0	
4	0	0	0	0	534	1021	0	391	0	0	
5	0	0	0	0	537	1021	0	392	0	0	
6	0	0	0	0	540	1022	0	392	0	0	
7	0	0	0	0	543	1021	0	393	0	0	
8	0	0	0	0	545	1021	0	394	0	0	
9	0	0	0	0	547	1021	0	396	0	0	
10	0	0	0	0	548	1021	0	397	0	0	
11	0	0	0	0	550	1021	0	398	0	0	
12	0	0	0	0	550	1021	0	399	0	0	
13	0	0	0	0	550	1021	0	399	0	0	
14	0	0	0	0	549	1021	0	400	0	0	
15	0	0	0	0	548	1021	0	401	0	0	
0	0	0	0	0	545	1021	0	400	0	0	
1	0	0	0	0	543	1021	0	399	0	0	
2	0	0	0	0	541	1021	0	398	0	0	
3	0	0	0	0	539	1021	0	398	0	0	
4	0	0	0	0	537	1021	0	396	0	0	
5	0	0	0	0	536	1021	0	394	0	0	
6	0	0	0	0	535	1021	0	393	0	0	
7	0	0	0	0	534	1021	0	392	0	0	
8	0	0	0	0	535	1021	0	391	0	0	
9	0	0	0	0	536	1021	0	392	0	0	
10	0	0	0	0	538	1021	0	392	0	0	
11	0	0	0	0	541	1021	0	394	0	0	
12	0	0	0	0	543	1021	0	396	0	0	
13	0	0	0	0	546	1021	0	397	0	0	
14	0	0	0	0	548	1021	0	399	0	0	
15	0	0	0	0	549	1022	0	401	0	0	
0	0	0	0	0	551	1021	0	402	0	0	
1	0	0	0	0	551	1021	0	403	0	0	
2	0	0	0	0	551	1021	0	403	0	0	
3	0	0	0	0	548	1022	0	403	0	0	
4	0	0	0	0	547	1022	0	403	0	0	
5	0	0	0	0	545	1021	0	402	0	0	
6	0	0	0	0	543	1021	0	400	0	0	
7	0	0	0	0	540	1021	0	399	0	0	
8	0	0	0	0	539	1021	0	397	0	0	
9	0	0	0	0	537	1022	0	396	0	0	
10	0	0	0	0	536	1021	0	393	0	0	
11	0	0	0	0	535	1021	0	391	0	0	
12	0	0	0	0	535	1021	0	390	0	0	
13	0	0	0	0	535	1021	0	390	0	0	
14	0	0	0	0	535	1021	0	388	0	0	
15	0	0	0	0	536	1021	0	388	0	0	
0	0	0	0	0	537	1021	0	389	0	0	
1	0	0	0	0	538	1021	0	390	0	0	
2	0	0	0	0	539	1021	0	391	0	0	
3	0	0	0	0	539	1021	0	393	0	0	
4	0	0	0	0	540	1021	0	395	0	0	
5	0	0	0	0	540	1021	0	396	0	0	
6	0	0	0	0	540	1021	0	398	0	0	
7	0	0	0	0	539	1022	0	399	0	0	
8	0	0	0	0	539	1021	0	400	0	0	
9	0	0	0	0	539	1021	0	401	0	0	
10	0	0	0	0	539	1021	0	401	0	0	
11	0	0	0	0	538	1021	0	401	0	0	
12	0	0	0	0	538	1022	0	400	0	0	
13	0	0	0	0	539	1021	0	399	0	0	
14	0	0	0	0	539	1021	0	397	0	0	
15	0	0	0	0	539	1021	0	395	0	0	
0	0	0	0	0	539	1021	0	393	0	0	
1	0	0	0	0	538	1021	0	390	0	0	
2	0	0	0	0	537	1021	0	388	0	0	
3	0	0	0	0	537	1021	0	386	0	0	
4	0	0	0	0	536	1021	0	385	0	0	
5	0	0	0	0	536	1021	0	385	0	0	
6	0	0	0	0	535	1021	0	386	0	0	
7	0	0	0	0	536	1021	0	388	0	0	
8	0	0	0	0	537	1021	0	391	0	0	
9	0	0	0	0	538	1021	0	393	0	0	
10	0	0	0	0	539	1021	0	397	0	0	
11	0	0	0	0	540	1021	0	401	0	0	
12	0	0	0	0	541	1021	0	403	0	0	
13	0	0	0	0	542	1021	0	406	0	0	
14	0	0	0	0	542	1021	0	407	0	0	
15	0	0	0	0	542	1021	0	407	0	0	
0	0	0	0	0	542	1021	0	406	0	0	
1	0	0	0	0	541	1021	0	404	0	0	
2	0	0	0	0	540	1021	0	402	0	0	
3	0	0	0	0	540	1021	0	399	0	0	
4	0	0	0	0	539	1021	0	397	0	0	
5	0	0	0	0	537	1021	0	394	0	0	
6	0	0	0	0	536	1021	0	391	0	0	
7	0	0	0	0	536	1021	0	388	0	0	
8	0	0	0	0	534	1021	0	386	0	0	
9	0	0	0	0	533	1021	0	385	0	0	
10	0	0	0	0	532	1021	0	384	0	0	
11	0	0	0	0	532	1021	0	383	0	0	
12	0	0	0	0	531	1021	0	384	0	0	
13	0	0	0	0	531	1021	0	385	0	0	
14	0	0	0	0	532	1021	0	386	0	0	
15	0	0	0	0	532	1021	0	388	0	0	
0	0	0	0	0	533	1022	0	390	0	0	
1	0	0	0	0	534	1021	0	391	0	0	
2	0	0	0	0	535	1021	0	393	0	0	
3	0	0	0	0	536	1021	0	395	0	0	
4	0	0	0	0	537	1021	0	396	0	0	
5	0	0	0	0	538	1021	0	397	0	0	
6	0	0	0	0	540	1021	0	398	0	0	
7	0	0	0	0	541	1021	0	398	0	0	
8	0	0	0	0	542	1021	0	398	0	0	
9	0	0	0	0	543	1021	0	397	0	0	
10	0	0	0	0	543	1022	0	396	0	0	
11	0	0	0	0	544	1021	0	395	0	0	
12	0	0	0	0	544	1021	0	394	0	0	
13	0	0	0	0	544	1021	0	393	0	0	
14	0	0	0	0	544	1021	0	393	0	0	
15	0	0	0	0	543	1021	0	392	0	0	
0	0	0	0	0	543	1021	0	392	0	0	
1	0	0	0	0	542	1021	0	393	0	0	
2	0	0	0	0	542	1021	0	394	0	0	
3	0	0	0	0	542	1021	0	395	0	0	
4	0	0	0	0	542	1021	0	396	0	0	
5	0	0	0	0	543	1021	0	398	0	0	
6	0	0	0	0	543	1021	0	399	0	0	
7	0	0	0	0	543	1021	0	400	0	0	
8	0	0	0	0	545	1021	0	400	0	0	
9	0	0	0	0	545	1021	0	400	0	0	
10	0	0	0	0	545	1021	0	399	0	0	
11	0	0	0	0	545	1021	0	399	0	0	
12	0	0	0	0	545	1021	0	397	0	0	
13	0	0	0	0	545	1021	0	396	0	0	
14	0	0	0	0	544	1022	0	395	0	0	
15	0	0	0	0	543	1021	0	393	0	0	
0	0	0	0	0	543	1021	0	392	0	0	
1	0	0	0	0	542	1021	0	392	0	0	
2	0	0	0	0	542	1021	0	392	0	0	
3	0	0	0	0	541	1022	0	392	0	0	
4	0	0	0	0	541	1021	0	393	0	0	
5	0	0	0	0	541	1021	0	395	0	0	
6	0	0	0	0	541	1021	0	396	0	0	
7	0	0	0	0	540	1021	0	398	0	0	
8	0	0	0	0	540	1022	0	399	0	0	
9	0	0	0	0	541	1021	0	399	0	0	
10	0	0	0	0	541	1021	0	399	0	0	
11	0	0	0	0	541	1021	0	399	0	0	
12	0	0	0	0	541	1021	0	398	0	0	
13	0	0	0	0	540	1022	0	395	0	0	
14	0	0	0	0	539	1021	0	392	0	0	
15	0	0	0	0	537	1021	0	389	0	0	
0	0	0	0	0	536	1021	0	385	0	0	
1	0	0	0	0	534	1021	0	382	0	0	
2	0	0	0	0	532	1022	0	379	0	0	
3	0	0	0	0	531	1021	0	376	0	0	
4	0	0	0	0	529	1021	0	375	0	0	
5	0	0	0	0	528	1021	0	374	0	0	
6	0	0	0	0	528	1021	0	374	0	0	
7	0	0	0	0	527	1021	0	375	0	0	
8	0	0	0	0	529	1021	0	376	0	0	
9	0	0	0	0	530	1021	0	379	0	0	
10	0	0	0	0	531	1021	0	382	0	0	
11	0	0	0	0	533	1021	0	385	0	0	
12	0	0	0	0	535	1021	0	388	0	0	
13	0	0	0	0	536	1021	0	391	0	0	
14	0	0	0	0	537	1021	0	394	0	0	
15	0	0	0	0	538	1021	0	395	0	0	
0	0	0	0	0	539	1021	1	396	0	0	
1	0	0	0	0	539	1022	0	397	0	0	
2	0	0	0	0	540	1021	0	396	0	0	
3	0	0	0	0	541	1021	0	396	0	0	
4	0	0	0	0	541	1021	0	395	0	0	
5	0	0	0	0	541	1021	0	393	0	0	
6	0	0	0	0	540	1022	0	391	0	0	
7	0	0	0	0	541	1021	0	390	0	0	
8	0	0	0	0	540	1021	0	388	0	0	
9	0	0	0	0	540	1021	0	387	0	0	
10	0	0	0	0	540	1022	0	387	0	0	
11	0	0	0	0	540	1022	0	387	0	0	
12	0	0	0	0	541	1021	0	387	0	0	
13	0	0	0	0	541	1021	0	388	0	0	
14	0	0	0	0	542	1021	0	390	0	0	
15	0	0	0	0	542	1021	0	391	0	0	
0	0	0	0	0	543	1021	0	392	0	0	
1	0	0	0	0	543	1021	0	393	0	0	
2	0	0	0	0	543	1021	0	395	0	0	
3	0	0	0	0	543	1021	0	395	0	0	
4	0	0	0	0	543	1021	0	396	0	0	
5	0	0	0	0	542	1022	0	395	0	0	
6	0	0	0	0	542	1021	0	394	0	0	
7	0	0	0	0	541	1021	0	393	0	0	
8	0	0	0	0	541	1021	0	392	0	0	
9	0	0	0	0	540	1021	0	391	0	0	
10	0	0	0	0	540	1021	0	390	0	0	
11	0	0	0	0	540	1021	0	391	0	0	
12	0	0	0	0	541	1021	0	391	0	0	
13	0	0	0	0	543	1021	0	392	0	0	
14	0	0	0	0	543	1022	0	394	0	0	
15	0	0	0	0	545	1022	0	396	0	0	
0	0	0	0	0	547	1021	0	399	0	0	
1	0	0	0	0	549	1021	0	401	0	0	
2	0	0	0	0	550	1021	0	403	0	0	
3	0	0	0	0	551	1021	0	406	0	0	
4	0	0	0	0	550	1022	0	407	0	0	
5	0	0	0	0	551	1021	0	407	0	0	
6	0	0	0	0	550	1021	0	408	0	0	
7	0	0	0	0	549	1021	0	407	0	0	
8	0	0	0	0	548	1021	0	407	0	0	
9	0	0	0	0	547	1021	0	405	0	0	
10	0	0	0	0	546	1021	0	403	0	0	
11	0	0	0	0	544	1021	0	402	0	0	
12	0	0	0	0	543	1021	0	399	0	0	
13	0	0	0	0	542	1021	0	398	0	0	
14	0	0	0	0	541	1022	0	396	0	0	
15	0	0	0	0	540	1021	0	393	0	0	
0	0	0	0	0	539	1021	0	392	0	0	
1	0	0	0	0	538	1021	0	391	0	0	
2	0	0	0	0	538	1021	0	391	0	0	
3	0	0	0	0	537	1021	0	391	0	0	
4	0	0	0	0	539	1021	0	392	0	0	
5	0	0	0	0	540	1021	0	394	0	0	
6	0	0	0	0	541	1021	0	396	0	0	
7	0	0	0	0	543	1022	0	398	0	0	
8	0	0	0	0	545	1022	0	401	0	0	
9	0	0	0	0	547	1021	0	403	0	0	
10	0	0	0	0	549	1021	0	405	0	0	
11	0	0	0	0	550	1021	0	406	0	0	
12	0	0	0	0	551	1021	0	407	0	0	
13	0	0	0	0	551	1021	0	406	0	0	
14	0	0	0	0	552	1021	0	406	0	0	
15	0	0	0	0	551	1021	0	404	0	0	
0	0	0	0	0	551	1021	0	403	0	0	
1	0	0	0	0	551	1021	0	401	0	0	
2	0	0	0	0	550	1022	0	400	0	0	
3	0	0	0	0	550	1021	0	399	0	0	
4	0	0	0	0	550	1021	0	398	0	0	
5	0	0	0	0	550	1021	0	398	0	0	
6	0	0	0	0	550	1021	0	398	0	0	
7	0	0	0	0	550	1021	0	398	0	0	
8	0	0	0	0	550	1021	0	399	0	0	
9	0	0	0	0	549	1021	0	399	0	0	
10	0	0	0	0	548	1021	0	400	0	0	
11	0	0	0	0	547	1021	0	399	0	0	
12	0	0	0	0	544	1022	0	398	0	0	
13	0	0	0	0	541	1021	0	396	0	0	
14	0	0	0	0	537	1021	0	393	0	0	
15	0	0	0	0	532	1021	0	388	0	0	
0	0	0	0	0	526	1021	0	382	0	0	
1	0	0	0	0	519	1022	0	375	0	0	
2	0	0	0	0	512	1021	0	367	0	0	
3	0	0	0	0	504	1021	0	358	0	0	
4	0	0	0	0	496	1021	0	348	0	0	
5	0	0	0	0	487	1021	0	339	0	0	
6	0	0	0	0	477	1022	0	328	0	0	
7	0	0	0	0	468	1021	0	318	0	0	
8	0	0	0	0	458	1021	0	308	0	0	
9	0	0	0	0	448	1021	0	298	0	0	
10	0	0	0	0	439	1022	0	290	0	0	
11	0	0	0	0	429	1022	0	281	0	0	
12	0	0	0	0	419	1021	0	272	0	0	
13	0	0	0	0	410	1021	0	264	0	0	
14	0	0	0	0	400	1021	0	256	0	0	
15	0	0	0	0	391	1021	0	249	0	0	
0	0	0	0	0	382	1021	0	242	0	0	
1	0	0	0	0	375	1021	0	236	0	0	
2	0	0	0	0	368	1021	0	231	0	0	
3	0	0	0	0	363	1021	0	226	0	0	
4	0	0	0	0	359	1021	0	223	0	0	
5	0	0	0	0	358	1022	0	221	0	0	
6	0	0	0	0	359	1021	0	220	0	0	
7	0	0	0	0	364	1021	0	223	0	0	
8	0	0	0	0	371	1021	0	228	0	0	
9	0	0	0	0	380	1021	0	235	0	0	
10	0	0	0	0	393	1021	0	245	0	0	
11	0	0	0	0	408	1021	0	258	0	0	
12	0	0	0	0	425	1021	0	273	0	0	
13	0	0	0	0	443	1021	0	290	0	0	
14	0	0	0	0	462	1021	0	308	0	0	
15	0	0	0	0	481	1021	0	326	0	0	
0	0	0	0	0	500	1021	0	345	0	0	
1	0	0	0	0	518	1021	0	364	0	0	
2	0	0	0	0	534	1021	0	381	0	0	
3	0	0	0	0	548	1021	0	396	0	0	
4	0	0	0	0	560	1021	0	409	0	0	
5	0	0	0	0	569	1021	0	420	0	0	
6	0	0	0	0	576	1021	0	428	0	0	
7	0	0	0	0	580	1021	0	433	0	0	
8	0	0	0	0	581	1021	0	435	0	0	
9	0	0	0	0	580	1021	0	433	0	0	
10	0	0	0	0	577	1021	0	430	0	0	
11	0	0	0	0	573	1021	0	425	0	0	
12	0	0	0	0	567	1021	0	419	0	0	
13	0	0	0	0	560	1021	0	412	0	0	
14	0	0	0	0	553	1021	0	405	0	0	
15	0	0	0	0	547	1021	0	399	0	0	
0	0	0	0	0	543	1021	0	394	0	0	
1	0	0	0	0	540	1021	0	390	0	0	
2	0	0	0	0	538	1021	0	389	0	0	
3	0	0	0	0	538	1021	0	389	0	0	
4	0	0	0	0	540	1021	0	391	0	0	
5	0	0	0	0	544	1021	0	395	0	0	
6	0	0	0	0	548	1021	0	400	0	0	
7	0	0	0	0	553	1021	0	406	0	0	
8	0	0	0	0	558	1022	0	411	0	0	
9	0	0	0	0	562	1021	0	416	0	0	
10	0	0	0	0	566	1021	0	420	0	0	
11	0	0	0	0	568	1021	0	423	0	0	
12	0	0	0	0	569	1021	0	425	0	0	
13	0	0	0	0	569	1021	0	425	0	0	
14	0	0	0	0	569	1021	0	424	0	0	
15	0	0	0	0	568	1021	0	422	0	0	
0	0	0	0	0	565	1021	0	419	0	0	
1	0	0	0	0	563	1021	0	416	0	0	
2	0	0	0	0	560	1021	0	412	0	0	
3	0	0	0	0	558	1021	0	409	0	0	
4	0	0	0	0	556	1021	0	406	0	0	
5	0	0	0	0	555	1021	0	404	0	0	
6	0	0	0	0	555	1021	0	403	0	0	
7	0	0	0	0	554	1021	0	403	0	0	
8	0	0	0	0	555	1021	0	404	0	0	
9	0	0	0	0	555	1021	0	406	0	0	
10	0	0	0	0	557	1021	0	409	0	0	
11	0	0	0	0	558	1021	0	412	0	0	
12	0	0	0	0	559	1021	0	414	0	0	
13	0	0	0	0	560	1021	0	417	0	0	
14	0	0	0	0	561	1021	0	419	0	0	
15	0	0	0	0	563	1021	0	421	0	0	
0	0	0	0	0	563	1022	0	422	0	0	
1	0	0	0	0	563	1021	0	421	0	0	
2	0	0	0	0	564	1021	0	420	0	0	
3	0	0	0	0	563	1021	0	419	0	0	
4	0	0	0	0	563	1021	0	417	0	0	
5	0	0	0	0	562	1021	0	415	0	0	
6	0	0	0	0	561	1021	0	412	0	0	
7	0	0	0	0	560	1021	0	410	0	0	
8	0	0	0	0	560	1021	0	408	0	0	
9	0	0	0	0	559	1021	0	408	0	0	
10	0	0	0	0	559	1021	0	407	0	0	
11	0	0	0	0	559	1021	0	407	0	0	
12	0	0	0	0	559	1021	0	408	0	0	
13	0	0	0	0	558	1021	0	409	0	0	
14	0	0	0	0	559	1021	0	412	0	0	
15	0	0	0	0	559	1021	0	414	0	0	
0	0	0	0	0	560	1021	0	415	0	0	
1	0	0	0	0	561	1021	0	418	0	0	
2	0	0	0	0	562	1021	0	420	0	0	
3	0	0	0	0	564	1021	0	422	0	0	
4	0	0	0	0	565	1021	0	423	0	0	
5	0	0	0	0	566	1022	0	423	0	0	
6	0	0	0	0	567	1021	0	423	0	0	
7	0	0	0	0	568	1021	0	422	0	0	
8	0	0	0	0	567	1022	0	421	0	0	
9	0	0	0	0	567	1021	0	419	0	0	
10	0	0	0	0	566	1021	0	415	0	0	
11	0	0	0	0	564	1021	0	413	0	0	
12	0	0	0	0	563	1021	0	410	0	0	
13	0	0	0	0	561	1021	0	408	0	0	
14	0	0	0	0	559	1021	0	406	0	0	
15	0	0	0	0	556	1021	0	404	0	0	
0	0	0	0	0	556	1021	0	403	0	0	
1	0	0	0	0	554	1021	0	403	0	0	
2	0	0	0	0	553	1021	0	404	0	0	
3	0	0	0	0	553	1021	0	405	0	0	
4	0	0	0	0	552	1022	0	407	0	0	
5	0	0	0	0	552	1021	0	408	0	0	
6	0	0	0	0	553	1021	0	409	0	0	
7	0	0	0	0	553	1021	0	410	0	0	
8	0	0	0	0	553	1021	0	410	0	0	
9	0	0	0	0	554	1022	0	411	0	0	
10	0	0	0	0	555	1021	0	409	0	0	
11	0	0	0	0	555	1021	0	407	0	0	
12	0	0	0	0	554	1021	0	405	0	0	
13	0	0	0	0	554	1021	0	403	0	0	
14	0	0	0	0	553	1022	0	401	0	0	
15	0	0	0	0	553	1021	0	399	0	0	
0	0	0	0	0	553	1021	0	399	0	0	
1	0	0	0	0	553	1021	0	399	0	0	
2	0	0	0	0	553	1022	0	400	0	0	
3	0	0	0	0	554	1022	0	401	0	0	
4	0	0	0	0	556	1021	0	403	0	0	
5	0	0	0	0	557	1021	0	406	0	0	
6	0	0	0	0	558	1021	0	409	0	0	
7	0	0	0	0	560	1021	0	413	0	0	
8	0	0	0	0	561	1021	0	415	0	0	
9	0	0	0	0	563	1021	0	419	0	0	
10	0	0	0	0	563	1021	0	420	0	0	
11	0	0	0	0	564	1021	0	422	0	0	
12	0	0	0	0	563	1021	0	421	0	0	
13	0	0	0	0	563	1022	0	422	0	0	
14	0	0	0	0	562	1021	0	419	0	0	
15	0	0	0	0	561	1021	0	417	0	0	
0	0	0	0	0	560	1021	0	414	0	0	
1	0	0	0	0	558	1021	0	412	0	0	
2	0	0	0	0	556	1022	0	409	0	0	
3	0	0	0	0	556	1021	0	407	0	0	
4	0	0	0	0	555	1021	0	406	0	0	
5	0	0	0	0	554	1021	0	405	0	0	
6	0	0	0	0	555	1021	0	406	0	0	
7	0	0	0	0	555	1021	0	407	0	0	
8	0	0	0	0	556	1021	0	408	0	0	
9	0	0	0	0	557	1021	0	411	0	0	
10	0	0	0	0	558	1021	0	413	0	0	
11	0	0	0	0	559	1021	0	415	0	0	
12	0	0	0	0	560	1021	0	417	0	0	
13	0	0	0	0	560	1021	0	418	0	0	
14	0	0	0	0	559	1021	0	418	0	0	
15	0	0	0	0	559	1021	0	418	0	0	
0	0	0	0	0	558	1021	0	416	0	0	
1	0	0	0	0	556	1021	0	414	0	0	
2	0	0	0	0	555	1021	0	411	0	0	
3	0	0	0	0	552	1021	0	408	0	0	
4	0	0	0	0	551	1021	0	404	0	0	
5	0	0	0	0	549	1021	0	401	0	0	
6	0	0	0	0	547	1022	0	398	0	0	
7	0	0	0	0	545	1021	0	395	0	0	
8	0	0	0	0	544	1021	0	392	0	0	
9	0	0	0	0	543	1021	0	391	0	0	
10	0	0	0	0	543	1021	0	391	0	0	
11	0	0	0	0	542	1021	0	391	0	0	
12	0	0	0	0	542	1021	0	392	0	0	
13	0	0	0	0	542	1021	0	394	0	0	
14	0	0	0	0	542	1021	0	396	0	0	
15	0	0	0	0	543	1021	0	399	0	0	
0	0	0	0	0	544	1022	0	402	0	0	
1	0	0	0	0	547	1021	0	404	0	0	
2	0	0	0	0	548	1021	0	407	0	0	
3	0	0	0	0	551	1021	0	409	0	0	
4	0	0	0	0	552	1021	0	411	0	0	
5	0	0	0	0	554	1022	0	412	0	0	
6	0	0	0	0	556	1021	0	411	0	0	
7	0	0	0	0	557	1021	0	410	0	0	
8	0	0	0	0	557	1021	0	409	0	0	
9	0	0	0	0	558	1021	0	408	0	0	
10	0	0	0	0	557	1021	0	405	0	0	
11	0	0	0	0	557	1021	0	403	0	0	
12	0	0	0	0	556	1021	0	401	0	0	
13	0	0	0	0	555	1021	0	400	0	0	
14	0	0	0	0	554	1021	0	399	0	0	
15	0	0	0	0	551	1022	0	397	0	0	
0	0	0	0	0	550	1021	0	396	0	0	
1	0	0	0	0	549	1021	0	396	0	0	
2	0	0	0	0	547	1021	0	397	0	0	
3	0	0	0	0	545	1021	0	397	0	0	
4	0	0	0	0	545	1021	0	398	0	0	
5	0	0	0	0	544	1021	0	399	0	0	
6	0	0	0	0	544	1021	0	399	0	0	
7	0	0	0	0	544	1021	0	400	0	0	
8	0	0	0	0	544	1021	0	400	0	0	
9	0	0	0	0	545	1021	0	399	0	0	
10	0	0	0	0	545	1021	0	399	0	0	
11	0	0	0	0	546	1021	0	399	0	0	
12	0	0	0	0	547	1021	0	398	0	0	
13	0	0	0	0	548	1021	0	398	0	0	
14	0	0	0	0	548	1022	0	396	0	0	
15	0	0	0	0	550	1021	0	395	0	0	
0	0	0	0	0	550	1021	0	395	0	0	
1	0	0	0	0	551	1021	0	394	0	0	
2	0	0	0	0	550	1022	0	394	0	0	
3	0	0	0	0	550	1022	0	394	0	0	
4	0	0	0	0	550	1021	0	394	0	0	
5	0	0	0	0	549	1021	0	394	0	0	
6	0	0	0	0	548	1021	0	395	0	0	
7	0	0	0	0	547	1021	0	396	0	0	
8	0	0	0	0	546	1021	0	396	0	0	
9	0	0	0	0	546	1021	0	397	0	0	
10	0	0	0	0	546	1021	0	398	0	0	
11	0	0	0	0	546	1021	0	398	0	0	
12	0	0	0	0	547	1021	0	399	0	0	
13	0	0	0	0	547	1022	0	399	0	0	
14	0	0	0	0	549	1021	0	399	0	0	
15	0	0	0	0	551	1021	0	400	0	0	
0	0	0	0	0	552	1021	0	401	0	0	
1	0	0	0	0	554	1021	0	401	0	0	
2	0	0	0	0	555	1021	0	401	0	0	
3	0	0	0	0	556	1021	0	402	0	0	
4	0	0	0	0	557	1021	0	403	0	0	
5	0	0	0	0	558	1021	0	403	0	0	
6	0	0	0	0	557	1022	0	403	0	0	
7	0	0	0	0	557	1022	0	404	0	0	
8	0	0	0	0	557	1021	0	405	0	0	
9	0	0	0	0	556	1021	0	405	0	0	
10	0	0	0	0	555	1021	0	406	0	0	
11	0	0	0	0	552	1022	0	406	0	0	
12	0	0	0	0	551	1022	0	407	0	0	
13	0	0	0	0	551	1021	0	407	0	0	
14	0	0	0	0	550	1021	0	408	0	0	
15	0	0	0	0	550	1021	0	408	0	0	
0	0	0	0	0	550	1021	0	408	0	0	
1	0	0	0	0	551	1021	0	407	0	0	
2	0	0	0	0	551	1021	0	407	0	0	
3	0	0	0	0	552	1021	0	406	0	0	
4	0	0	0	0	553	1021	0	405	0	0	
5	0	0	0	0	553	1022	0	403	0	0	
6	0	0	0	0	554	1021	0	402	0	0	
7	0	0	0	0	554	1021	0	401	0	0	
8	0	0	0	0	555	1021	0	400	0	0	
9	0	0	0	0	554	1021	0	400	0	0	
10	0	0	0	0	553	1022	0	400	0	0	
11	0	0	0	0	552	1021	0	399	0	0	
12	0	0	0	0	552	1021	0	400	0	0	
13	0	0	0	0	551	1021	0	400	0	0	
14	0	0	0	0	550	1021	0	401	0	0	
15	0	0	0	0	550	1021	0	401	0	0	
0	0	0	0	0	548	1021	0	401	0	0	
1	0	0	0	0	548	1021	0	401	0	0	
2	0	0	0	0	547	1021	0	400	0	0	
3	0	0	0	0	546	1021	0	400	0	0	
4	0	0	0	0	545	1021	0	399	0	0	
5	0	0	0	0	545	1022	0	398	0	0	
6	0	0	0	0	545	1021	0	397	0	0	
7	0	0	0	0	545	1021	0	396	0	0	
8	0	0	0	0	545	1021	0	395	0	0	
9	0	0	0	0	545	1021	0	394	0	0	
10	0	0	0	0	545	1021	0	393	0	0	
11	0	0	0	0	545	1021	0	392	0	0	
12	0	0	0	0	545	1021	0	392	0	0	
13	0	0	0	0	545	1021	0	391	0	0	
14	0	0	0	0	544	1021	0	391	0	0	
15	0	0	0	0	545	1021	0	391	0	0	
0	0	0	0	0	545	1021	0	393	0	0	
1	0	0	0	0	545	1021	0	394	0	0	
2	0	0	0	0	546	1021	0	396	0	0	
3	0	0	0	0	547	1021	0	397	0	0	
4	0	0	0	0	548	1022	0	399	0	0	
5	0	0	0	0	550	1021	0	401	0	0	
6	0	0	0	0	551	1021	0	403	0	0	
7	0	0	0	0	554	1021	0	406	0	0	
8	0	0	0	0	556	1021	0	408	0	0	
9	0	0	0	0	557	1021	0	408	0	0	
10	0	0	0	0	559	1021	0	408	0	0	
11	0	0	0	0	560	1021	0	408	0	0	
12	0	0	0	0	561	1021	0	408	0	0	
13	0	0	0	0	561	1021	0	406	0	0	
14	0	0	0	0	560	1021	0	404	0	0	
15	0	0	0	0	560	1021	0	403	0	0	
0	0	0	0	0	558	1021	0	401	0	0	
1	0	0	0	0	557	1021	0	400	0	0	
2	0	0	0	0	556	1021	0	400	0	0	
3	0	0	0	0	554	1021	0	400	0	0	
4	0	0	0	0	553	1021	0	400	0	0	
5	0	0	0	0	553	1021	0	402	0	0	
6	0	0	0	0	552	1021	0	404	0	0	
7	0	0	0	0	553	1021	0	406	0	0	
8	0	0	0	0	553	1021	0	408	0	0	
9	0	0	0	0	555	1021	0	410	0	0	
10	0	0	0	0	556	1021	0	412	0	0	
11	0	0	0	0	558	1021	0	413	0	0	
12	0	0	0	0	559	1021	0	414	0	0	
13	0	0	0	0	560	1022	0	414	0	0	
14	0	0	0	0	562	1021	0	413	0	0	
15	0	0	0	0	563	1021	0	412	0	0	
0	0	0	0	0	563	1021	0	411	0	0	
1	0	0	0	0	563	1021	0	409	0	0	
2	0	0	0	0	562	1022	0	407	0	0	
3	0	0	0	0	561	1021	0	404	0	0	
4	0	0	0	0	560	1021	0	403	0	0	
5	0	0	0	0	559	1021	0	402	0	0	
6	0	0	0	0	558	1021	0	401	0	0	
7	0	0	0	0	556	1021	0	401	0	0	
8	0	0	0	0	555	1021	0	401	0	0	
9	0	0	0	0	553	1021	0	401	0	0	
10	0	0	0	0	552	1021	0	402	0	0	
11	0	0	0	0	550	1021	0	402	0	0	
12	0	0	0	0	547	1022	0	402	0	0	
13	0	0	0	0	545	1021	0	401	0	0	
14	0	0	0	0	543	1021	0	400	0	0	
15	0	0	0	0	542	1021	0	399	0	0	
0	0	0	0	0	540	1021	0	396	0	0	
1	0	0	0	0	539	1022	0	395	0	0	
2	0	0	0	0	540	1021	0	393	0	0	
3	0	0	0	0	541	1021	0	392	0	0	
4	0	0	0	0	543	1021	0	392	0	0	
5	0	0	0	0	547	1022	0	393	0	0	
6	0	0	0	0	550	1022	0	395	0	0	
7	0	0	0	0	556	1021	0	397	0	0	
8	0	0	0	0	560	1021	0	401	0	0	
9	0	0	0	0	566	1021	0	406	0	0	
10	0	0	0	0	569	1022	0	411	0	0	
11	0	0	0	0	573	1021	0	415	0	0	
12	0	0	0	0	576	1021	0	419	0	0	
13	0	0	0	0	578	1021	0	423	0	0	
14	0	0	0	0	579	1021	0	426	0	0	
15	0	0	0	0	578	1021	0	428	0	0	
0	0	0	0	0	576	1021	0	428	0	0	
1	0	0	0	0	574	1021	0	428	0	0	
2	0	0	0	0	571	1021	0	427	0	0	
3	0	0	0	0	568	1021	0	424	0	0	
4	0	0	0	0	563	1022	0	421	0	0	
5	0	0	0	0	560	1022	0	417	0	0	
6	0	0	0	0	557	1021	0	412	0	0	
7	0	0	0	0	555	1021	0	408	0	0	
8	0	0	0	0	553	1021	0	404	0	0	
9	0	0	0	0	551	1022	0	401	0	0	
10	0	0	0	0	550	1022	0	399	0	0	
11	0	0	0	0	550	1021	0	396	0	0	
12	0	0	0	0	550	1021	0	395	0	0	
13	0	0	0	0	550	1021	0	394	0	0	
14	0	0	0	0	550	1021	0	394	0	0	
15	0	0	0	0	550	1022	0	394	0	0	
0	0	0	0	0	550	1021	0	394	0	0	
1	0	0	0	0	550	1021	0	395	0	0	
2	0	0	0	0	549	1021	0	396	0	0	
3	0	0	0	0	549	1022	0	397	0	0	
4	0	0	0	0	548	1022	0	398	0	0	
5	0	0	0	0	548	1021	0	399	0	0	
6	0	0	0	0	548	1021	0	399	0	0	
7	0	0	0	0	547	1021	0	400	0	0	
8	0	0	0	0	547	1021	0	400	0	0	
9	0	0	0	0	548	1021	0	399	0	0	
10	0	0	0	0	549	1021	0	399	0	0	
11	0	0	0	0	550	1021	0	398	0	0	
12	0	0	0	0	551	1021	0	398	0	0	
13	0	0	0	0	553	1021	0	398	0	0	
14	0	0	0	0	554	1021	0	398	0	0	
15	0	0	0	0	556	1021	0	398	0	0	
0	0	0	0	0	558	1021	0	399	0	0	
1	0	0	0	0	560	1021	0	399	0	0	
2	0	0	0	0	560	1021	0	400	0	0	
3	0	0	0	0	560	1021	0	401	0	0	
4	0	0	0	0	561	1021	0	401	0	0	
5	0	0	0	0	559	1021	0	402	0	0	
6	0	0	0	0	557	1022	0	402	0	0	
7	0	0	0	0	556	1021	0	403	0	0	
8	0	0	0	0	553	1021	0	402	0	0	
9	0	0	0	0	551	1021	0	402	0	0	
10	0	0	0	0	550	1021	0	401	0	0	
11	0	0	0	0	548	1021	0	400	0	0	
12	0	0	0	0	547	1021	0	399	0	0	
13	0	0	0	0	545	1022	0	398	0	0	
14	0	0	0	0	545	1021	0	396	0	0	
15	0	0	0	0	544	1021	0	395	0	0	
0	0	0	0	0	543	1021	0	393	0	0	
1	0	0	0	0	543	1021	0	391	0	0	
2	0	0	0	0	543	1021	0	389	0	0	
3	0	0	0	0	542	1021	0	387	0	0	
4	0	0	0	0	542	1021	0	386	0	0	
5	0	0	0	0	541	1021	0	385	0	0	
6	0	0	0	0	540	1022	0	384	0	0	
7	0	0	0	0	540	1021	0	384	0	0	
8	0	0	0	0	540	1021	0	385	0	0	
9	0	0	0	0	540	1021	0	387	0	0	
10	0	0	0	0	541	1021	0	389	0	0	
11	0	0	0	0	543	1021	0	392	0	0	
12	0	0	0	0	544	1021	0	395	0	0	
13	0	0	0	0	548	1021	0	398	0	0	
14	0	0	0	0	551	1021	0	401	0	0	
15	0	0	0	0	554	1021	0	404	0	0	
0	0	0	0	0	557	1021	0	407	0	0	
1	0	0	0	0	559	1021	0	408	0	0	
2	0	0	0	0	562	1021	0	408	0	0	
3	0	0	0	0	563	1021	0	408	0	0	
4	0	0	0	0	564	1021	0	407	0	0	
5	0	0	0	0	563	1022	0	406	0	0	
6	0	0	0	0	561	1021	0	403	0	0	
7	0	0	0	0	560	1021	0	400	0	0	
8	0	0	0	0	557	1021	0	397	0	0	
9	0	0	0	0	554	1021	0	395	0	0	
10	0	0	0	0	551	1021	0	393	0	0	
11	0	0	0	0	548	1021	0	391	0	0	
12	0	0	0	0	547	1021	0	390	0	0	
13	0	0	0	0	544	1021	0	390	0	0	
14	0	0	0	0	543	1021	0	391	0	0	
15	0	0	0	0	542	1021	0	391	0	0	
0	0	0	0	0	541	1021	0	392	0	0	
1	0	0	0	0	541	1021	0	393	0	0	
2	0	0	0	0	541	1021	0	395	0	0	
3	0	0	0	0	541	1021	0	395	0	0	
4	0	0	0	0	541	1021	0	395	0	0	
5	0	0	0	0	541	1021	0	395	0	0	
6	0	0	0	0	542	1021	0	394	0	0	
7	0	0	0	0	543	1021	0	393	0	0	
8	0	0	0	0	543	1021	0	391	0	0	
9	0	0	0	0	544	1021	0	391	0	0	
10	0	0	0	0	545	1021	0	390	0	0	
11	0	0	0	0	546	1021	0	389	0	0	
12	0	0	0	0	548	1021	0	389	0	0	
13	0	0	0	0	549	1021	0	389	0	0	
14	0	0	0	0	551	1021	0	390	0	0	
15	0	0	0	0	552	1021	0	391	0	0	
0	0	0	0	0	554	1021	0	393	0	0	
1	0	0	0	0	555	1021	0	396	0	0	
2	0	0	0	0	557	1021	0	398	0	0	
3	0	0	0	0	558	1022	0	401	0	0	
4	0	0	0	0	558	1021	0	403	0	0	
5	0	0	0	0	559	1021	0	406	0	0	
6	0	0	0	0	559	1021	0	407	0	0	
7	0	0	0	0	559	1021	0	408	0	0	
8	0	0	0	0	559	1021	0	408	0	0	
9	0	0	0	0	558	1021	0	408	0	0	
10	0	0	0	0	558	1021	0	407	0	0	
11	0	0	0	0	557	1021	0	406	0	0	
12	0	0	0	0	556	1021	0	403	0	0	
13	0	0	0	0	555	1021	0	401	0	0	
14	0	0	0	0	554	1022	0	399	0	0	
15	0	0	0	0	553	1021	0	397	0	0	
0	0	0	0	0	551	1021	0	395	0	0	
1	0	0	0	0	550	1021	0	392	0	0	
2	0	0	0	0	547	1022	0	391	0	0	
3	0	0	0	0	545	1021	0	388	0	0	
4	0	0	0	0	543	1021	0	387	0	0	
5	0	0	0	0	542	1021	0	386	0	0	
6	0	0	0	0	540	1021	0	386	0	0	
7	0	0	0	0	539	1021	0	387	0	0	
8	0	0	0	0	539	1021	0	387	0	0	
9	0	0	0	0	541	1021	0	390	0	0	
10	0	0	0	0	543	1021	0	392	0	0	
11	0	0	0	0	545	1021	0	395	0	0	
12	0	0	0	0	548	1021	0	397	0	0	
13	0	0	0	0	551	1021	0	398	0	0	
14	0	0	0	0	554	1021	0	400	0	0	
15	0	0	0	0	556	1021	0	400	0	0	
0	0	0	0	0	557	1021	0	400	0	0	
1	0	0	0	0	557	1021	0	399	0	0	
2	0	0	0	0	556	1021	0	397	0	0	
3	0	0	0	0	555	1021	0	395	0	0	
4	0	0	0	0	552	1021	0	393	0	0	
5	0	0	0	0	549	1021	0	391	0	0	
6	0	0	0	0	545	1021	0	390	0	0	
7	0	0	0	0	542	1021	0	388	0	0	
8	0	0	0	0	540	1021	0	387	0	0	
9	0	0	0	0	537	1021	0	386	0	0	
10	0	0	0	0	536	1021	0	385	0	0	
11	0	0	0	0	536	1021	0	386	0	0	
12	0	0	0	0	536	1021	0	387	0	0	
13	0	0	0	0	539	1021	0	388	0	0	
14	0	0	0	0	542	1021	0	391	0	0	
15	0	0	0	0	545	1021	0	394	0	0	
0	0	0	0	0	550	1021	0	396	0	0	
1	0	0	0	0	554	1021	0	399	0	0	
2	0	0	0	0	559	1021	0	401	0	0	
3	0	0	0	0	564	1021	0	403	0	0	
4	0	0	0	0	568	1021	0	404	0	0	
5	0	0	0	0	570	1021	0	405	0	0	
6	0	0	0	0	571	1021	0	405	0	0	
7	0	0	0	0	572	1021	0	404	0	0	
8	0	0	0	0	572	1021	0	403	0	0	
9	0	0	0	0	570	1021	0	402	0	0	
10	0	0	0	0	567	1022	0	400	0	0	
11	0	0	0	0	564	1021	0	399	0	0	
12	0	0	0	0	561	1021	0	398	0	0	
13	0	0	0	0	559	1021	0	397	0	0	
14	0	0	0	0	556	1021	0	397	0	0	
15	0	0	0	0	555	1021	0	397	0	0	
0	0	0	0	0	553	1021	0	397	0	0	
1	0	0	0	0	552	1021	0	398	0	0	
2	0	0	0	0	552	1021	0	399	0	0	
3	0	0	0	0	553	1021	0	400	0	0	
4	0	0	0	0	553	1021	0	401	0	0	
5	0	0	0	0	555	1021	0	402	0	0	
6	0	0	0	0	557	1021	0	403	0	0	
7	0	0	0	0	559	1021	0	404	0	0	
8	0	0	0	0	561	1021	0	405	0	0	
9	0	0	0	0	564	1021	0	405	0	0	
10	0	0	0	0	566	1021	0	405	0	0	
11	0	0	0	0	568	1021	0	405	0	0	
12	0	0	0	0	569	1021	0	405	0	0	
13	0	0	0	0	570	1021	0	406	0	0	
14	0	0	0	0	571	1021	0	406	0	0	
15	0	0	0	0	571	1021	0	406	0	0	
0	0	0	0	0	571	1021	0	406	0	0	
1	0	0	0	0	570	1021	0	405	0	0	
2	0	0	0	0	568	1022	0	406	0	0	
3	0	0	0	0	567	1021	0	405	0	0	
4	0	0	0	0	565	1021	0	404	0	0	
5	0	0	0	0	563	1021	0	403	0	0	
6	0	0	0	0	560	1021	0	402	0	0	
7	0	0	0	0	557	1021	0	400	0	0	
8	0	0	0	0	553	1021	0	398	0	0	
9	0	0	0	0	550	1021	0	394	0	0	
10	0	0	0	0	547	1021	0	391	0	0	
11	0	0	0	0	544	1021	0	387	0	0	
12	0	0	0	0	543	1021	0	384	0	0	
13	0	0	0	0	542	1021	0	382	0	0	
14	0	0	0	0	542	1022	0	380	0	0	
15	0	0	0	0	543	1021	0	379	0	0	
0	0	0	0	0	545	1021	0	379	0	0	
1	0	0	0	0	547	1021	0	380	0	0	
2	0	0	0	0	550	1021	0	382	0	0	
3	0	0	0	0	553	1022	0	386	0	0	
4	0	0	0	0	557	1021	0	390	0	0	
5	0	0	0	0	560	1021	0	395	0	0	
6	0	0	0	0	564	1021	0	400	0	0	
7	0	0	0	0	568	1021	0	405	0	0	
8	0	0	0	0	571	1021	0	410	0	0	
9	0	0	0	0	573	1021	0	414	0	0	
10	0	0	0	0	574	1021	0	417	0	0	
11	0	0	0	0	575	1021	0	419	0	0	
12	0	0	0	0	575	1021	0	419	0	0	
13	0	0	0	0	573	1022	0	418	0	0	
14	0	0	0	0	572	1021	0	416	0	0	
15	0	0	0	0	571	1021	0	413	0	0	
0	0	0	0	0	568	1021	0	409	0	0	
1	0	0	0	0	564	1022	0	405	0	0	
2	0	0	0	0	563	1021	0	400	0	0	
3	0	0	0	0	560	1021	0	397	0	0	
4	0	0	0	0	558	1021	0	394	0	0	
5	0	0	0	0	556	1021	0	391	0	0	
6	0	0	0	0	553	1021	1	389	0	0	
7	0	0	0	0	552	1022	0	389	0	0	
8	0	0	0	0	551	1021	0	388	0	0	
9	0	0	0	0	551	1021	0	389	0	0	
10	0	0	0	0	550	1021	0	390	0	0	
11	0	0	0	0	551	1021	0	391	0	0	
12	0	0	0	0	550	1021	0	392	0	0	
13	0	0	0	0	551	1021	0	393	0	0	
14	0	0	0	0	551	1021	0	393	0	0	
15	0	0	0	0	551	1021	0	394	0	0	
0	0	0	0	0	551	1021	0	393	0	0	
1	0	0	0	0	551	1021	0	392	0	0	
2	0	0	0	0	552	1021	0	391	0	0	
3	0	0	0	0	553	1021	0	391	0	0	
4	0	0	0	0	554	1021	0	391	0	0	
5	0	0	0	0	556	1021	0	391	0	0	
6	0	0	0	0	557	1022	0	391	0	0	
7	0	0	0	0	559	1021	0	391	0	0	
8	0	0	0	0	561	1021	0	393	0	0	
9	0	0	0	0	563	1021	0	395	0	0	
10	0	0	0	0	564	1021	0	396	0	0	
11	0	0	0	0	565	1021	0	398	0	0	
12	0	0	0	0	565	1021	0	400	0	0	
13	0	0	0	0	564	1021	0	401	0	0	
14	0	0	0	0	563	1021	0	402	0	0	
15	0	0	0	0	561	1021	0	403	0	0	
0	0	0	0	0	560	1022	0	403	0	0	
1	0	0	0	0	558	1021	0	403	0	0	
2	0	0	0	0	557	1021	0	403	0	0	
3	0	0	0	0	556	1021	0	401	0	0	
4	0	0	0	0	555	1021	0	401	0	0	
5	0	0	0	0	554	1022	0	399	0	0	
6	0	0	0	0	554	1021	0	397	0	0	
7	0	0	0	0	554	1021	0	395	0	0	
8	0	0	0	0	554	1021	0	393	0	0	
9	0	0	0	0	554	1021	0	391	0	0	
10	0	0	0	0	554	1022	0	390	0	0	
11	0	0	0	0	555	1021	0	388	0	0	
12	0	0	0	0	555	1021	0	387	0	0	
13	0	0	0	0	554	1021	0	387	0	0	
14	0	0	0	0	553	1022	0	387	0	0	
15	0	0	0	0	553	1021	0	387	0	0	
0	0	0	0	0	552	1021	0	388	0	0	
1	0	0	0	0	552	1021	0	389	0	0	
2	0	0	0	0	551	1021	0	391	0	0	
3	0	0	0	0	552	1021	0	392	0	0	
4	0	0	0	0	552	1022	0	394	0	0	
5	0	0	0	0	553	1021	0	395	0	0	
6	0	0	0	0	555	1021	0	396	0	0	
7	0	0	0	0	556	1021	0	397	0	0	
8	0	0	0	0	557	1021	0	398	0	0	
9	0	0	0	0	558	1021	0	397	0	0	
10	0	0	0	0	560	1021	0	396	0	0	
11	0	0	0	0	561	1021	0	396	0	0	
12	0	0	0	0	563	1021	0	396	0	0	
13	0	0	0	0	563	1021	0	396	0	0	
14	0	0	0	0	564	1021	0	395	0	0	
15	0	0	0	0	565	1021	0	395	0	0	
0	0	0	0	0	565	1021	0	394	0	0	
1	0	0	0	0	565	1021	0	395	0	0	
2	0	0	0	0	565	1021	0	395	0	0	
3	0	0	0	0	564	1021	0	395	0	0	
4	0	0	0	0	564	1021	0	396	0	0	
5	0	0	0	0	563	1021	0	397	0	0	
6	0	0	0	0	562	1021	0	398	0	0	
7	0	0	0	0	561	1021	0	398	0	0	
8	0	0	0	0	560	1022	0	399	0	0	
9	0	0	0	0	560	1021	0	399	0	0	
10	0	0	0	0	559	1021	0	400	0	0	
11	0	0	0	0	558	1021	0	399	0	0	
12	0	0	0	0	558	1021	0	399	0	0	
13	0	0	0	0	557	1021	0	398	0	0	
14	0	0	0	0	557	1021	0	396	0	0	
15	0	0	0	0	556	1021	0	395	0	0	
0	0	0	0	0	556	1021	0	394	0	0	
1	0	0	0	0	556	1021	0	392	0	0	
2	0	0	0	0	556	1022	0	391	0	0	
3	0	0	0	0	556	1021	0	390	0	0	
4	0	0	0	0	556	1021	0	390	0	0	
5	0	0	0	0	556	1021	0	389	0	0	
6	0	0	0	0	555	1021	0	389	0	0	
7	0	0	0	0	554	1021	0	388	0	0	
8	0	0	0	0	554	1021	0	388	0	0	
9	0	0	0	0	553	1021	0	389	0	0	
10	0	0	0	0	553	1021	0	390	0	0	
11	0	0	0	0	553	1021	0	391	0	0	
12	0	0	0	0	553	1022	0	394	0	0	
13	0	0	0	0	553	1021	0	395	0	0	
14	0	0	0	0	554	1021	0	396	0	0	
15	0	0	0	0	555	1021	0	397	0	0	
0	0	0	0	0	555	1021	0	398	0	0	
1	0	0	0	0	555	1022	0	398	0	0	
2	0	0	0	0	555	1021	0	397	0	0	
3	0	0	0	0	555	1021	0	397	0	0	
4	0	0	0	0	555	1021	0	396	0	0	
5	0	0	0	0	556	1021	0	395	0	0	
6	0	0	0	0	555	1022	0	394	0	0	
7	0	0	0	0	556	1021	0	393	0	0	
8	0	0	0	0	556	1021	0	394	0	0	
9	0	0	0	0	558	1021	0	395	0	0	
10	0	0	0	0	559	1022	0	397	0	0	
11	0	0	0	0	560	1022	0	399	0	0	
12	0	0	0	0	562	1021	0	402	0	0	
13	0	0	0	0	564	1021	0	405	0	0	
14	0	0	0	0	565	1021	0	407	0	0	
15	0	0	0	0	566	1021	0	409	0	0	
0	0	0	0	0	566	1021	0	411	0	0	
1	0	0	0	0	566	1021	0	412	0	0	
2	0	0	0	0	566	1021	0	411	0	0	
3	0	0	0	0	564	1021	0	410	0	0	
4	0	0	0	0	563	1021	0	408	0	0	
5	0	0	0	0	560	1021	0	405	0	0	
6	0	0	0	0	558	1021	0	402	0	0	
7	0	0	0	0	555	1021	0	398	0	0	
8	0	0	0	0	552	1021	0	395	0	0	
9	0	0	0	0	550	1021	0	391	0	0	
10	0	0	0	0	548	1021	0	387	0	0	
11	0	0	0	0	547	1021	0	385	0	0	
12	0	0	0	0	546	1021	0	383	0	0	
13	0	0	0	0	545	1021	0	382	0	0	
14	0	0	0	0	544	1021	0	380	0	0	
15	0	0	0	0	543	1022	0	381	0	0	
0	0	0	0	0	543	1021	0	380	0	0	
1	0	0	0	0	542	1021	0	380	0	0	
2	0	0	0	0	540	1021	0	380	0	0	
3	0	0	0	0	537	1022	0	379	0	0	
4	0	0	0	0	534	1022	0	378	0	0	
5	0	0	0	0	529	1021	0	374	0	0	
6	0	0	0	0	523	1021	0	369	0	0	
7	0	0	0	0	516	1021	0	363	0	0	
8	0	0	0	0	507	1021	0	355	0	0	
9	0	0	0	0	497	1021	0	344	0	0	
10	0	0	0	0	487	1021	0	333	0	0	
11	0	0	0	0	475	1021	0	321	0	0	
12	0	0	0	0	462	1021	0	307	0	0	
13	0	0	0	0	449	1021	0	293	0	0	
14	0	0	0	0	436	1022	0	280	0	0	
15	0	0	0	0	423	1021	0	266	0	0	
0	0	0	0	0	412	1021	0	254	0	0	
1	0	0	0	0	399	1021	0	242	0	0	
2	0	0	0	0	389	1021	0	231	0	0	
3	0	0	0	0	379	1022	0	223	0	0	
4	0	0	0	0	371	1021	0	216	0	0	
5	0	0	0	0	366	1021	0	212	0	0	
6	0	0	0	0	363	1021	0	210	0	0	
7	0	0	0	0	362	1021	0	212	0	0	
8	0	0	0	0	365	1022	0	217	0	0	
9	0	0	0	0	371	1021	0	224	0	0	
10	0	0	0	0	380	1021	0	234	0	0	
11	0	0	0	0	393	1021	0	247	0	0	
12	0	0	0	0	408	1021	0	262	0	0	
13	0	0	0	0	425	1022	0	277	0	0	
14	0	0	0	0	444	1021	0	292	0	0	
15	0	0	0	0	463	1021	0	308	0	0	
0	0	0	0	0	481	1021	0	325	0	0	
1	0	0	0	0	500	1021	0	340	0	0	
2	0	0	0	0	515	1022	0	354	0	0	
3	0	0	0	0	530	1021	0	367	0	0	
4	0	0	0	0	542	1021	0	378	0	0	
5	0	0	0	0	551	1021	0	388	0	0	
6	0	0	0	0	559	1021	0	396	0	0	
7	0	0	0	0	563	1021	0	403	0	0	
8	0	0	0	0	567	1021	0	409	0	0	
9	0	0	0	0	569	1021	0	414	0	0	
10	0	0	0	0	571	1021	0	417	0	0	
11	0	0	0	0	571	1021	0	419	0	0	
12	0	0	0	0	571	1021	0	420	0	0	
13	0	0	0	0	571	1021	0	422	0	0	
14	0	0	0	0	570	1021	0	422	0	0	
15	0	0	0	0	570	1021	0	422	0	0	
0	0	0	0	0	571	1021	0	422	0	0	
1	0	0	0	0	571	1022	0	421	0	0	
2	0	0	0	0	572	1021	0	419	0	0	
3	0	0	0	0	573	1021	0	418	0	0	
4	0	0	0	0	574	1021	0	417	0	0	
5	0	0	0	0	575	1021	0	416	0	0	
6	0	0	0	0	575	1022	0	415	0	0	
7	0	0	0	0	576	1021	0	414	0	0	
8	0	0	0	0	576	1021	0	413	0	0	
9	0	0	0	0	575	1021	0	413	0	0	
10	0	0	0	0	575	1021	0	413	0	0	
11	0	0	0	0	573	1021	0	413	0	0	
12	0	0	0	0	572	1021	0	413	0	0	
13	0	0	0	0	571	1021	0	414	0	0	
14	0	0	0	0	569	1021	0	415	0	0	
15	0	0	0	0	567	1021	0	415	0	0	
0	0	0	0	0	565	1022	0	415	0	0	
1	0	0	0	0	563	1021	0	415	0	0	
2	0	0	0	0	562	1021	0	415	0	0	
3	0	0	0	0	560	1021	0	414	0	0	
4	0	0	0	0	560	1021	0	413	0	0	
5	0	0	0	0	559	1022	0	412	0	0	
6	0	0	0	0	559	1021	0	409	0	0	
7	0	0	0	0	558	1021	0	407	0	0	
8	0	0	0	0	557	1021	0	404	0	0	
9	0	0	0	0	556	1021	0	401	0	0	
10	0	0	0	0	555	1022	0	400	0	0	
11	0	0	0	0	555	1021	0	398	0	0	
12	0	0	0	0	555	1021	0	397	0	0	
13	0	0	0	0	555	1021	0	397	0	0	
14	0	0	0	0	555	1021	0	398	0	0	
15	0	0	0	0	556	1021	0	399	0	0	
0	0	0	0	0	556	1021	0	400	0	0	
1	0	0	0	0	557	1021	0	403	0	0	
2	0	0	0	0	558	1021	0	406	0	0	
3	0	0	0	0	560	1021	0	410	0	0	
4	0	0	0	0	561	1022	0	414	0	0	
5	0	0	0	0	563	1021	0	417	0	0	
6	0	0	0	0	566	1021	0	420	0	0	
7	0	0	0	0	568	1021	0	422	0	0	
8	0	0	0	0	570	1021	0	423	0	0	
9	0	0	0	0	571	1021	0	424	0	0	
10	0	0	0	0	573	1021	0	423	0	0	
11	0	0	0	0	573	1021	0	422	0	0	
12	0	0	0	0	573	1021	0	419	0	0	
13	0	0	0	0	572	1021	0	416	0	0	
14	0	0	0	0	570	1021	0	413	0	0	
15	0	0	0	0	568	1021	0	410	0	0	
0	0	0	0	0	567	1021	0	408	0	0	
1	0	0	0	0	565	1021	0	406	0	0	
2	0	0	0	0	563	1021	0	406	0	0	
3	0	0	0	0	562	1021	0	406	0	0	
4	0	0	0	0	563	1021	0	408	0	0	
5	0	0	0	0	564	1021	0	411	0	0	
6	0	0	0	0	565	1021	0	414	0	0	
7	0	0	0	0	567	1021	0	418	0	0	
8	0	0	0	0	569	1021	0	421	0	0	
9	0	0	0	0	572	1021	0	425	0	0	
10	0	0	0	0	574	1021	0	428	0	0	
11	0	0	0	0	576	1021	0	430	0	0	
12	0	0	0	0	578	1021	0	431	0	0	
13	0	0	0	0	579	1021	0	431	0	0	
14	0	0	0	0	580	1021	0	430	0	0	
15	0	0	0	0	580	1021	0	428	0	0	
0	0	0	0	0	580	1021	0	425	0	0	
1	0	0	0	0	579	1021	0	423	0	0	
2	0	0	0	0	577	1021	0	419	0	0	
3	0	0	0	0	576	1021	0	416	0	0	
4	0	0	0	0	574	1021	0	414	0	0	
5	0	0	0	0	572	1021	0	411	0	0	
6	0	0	0	0	569	1022	0	409	0	0	
7	0	0	0	0	567	1021	0	408	0	0	
8	0	0	0	0	566	1021	0	408	0	0	
9	0	0	0	0	565	1021	0	409	0	0	
10	0	0	0	0	565	1021	0	412	0	0	
11	0	0	0	0	566	1021	0	415	0	0	
12	0	0	0	0	567	1021	0	417	0	0	
