# OpenSignals Text File Format. Version 1
# {"": {"position": 0, "device": "", "device name": "", "device connection": "", "sampling rate": 1000, "resolution": [4, 1, 1, 1, 1, 10, 10, 10, 10, 6, 6], "firmware version": 1281, "comments": "", "keywords": "", "mode": 0, "sync interval": 2, "date": "", "time": "", "channels": [1, 2, 3, 4, 5, 6], "sensor": ["RAW", "RAW", "RAW", "RAW", "RAW", "RAW"], "label": ["A1", "A2", "A3", "A4", "A5", "A6"], "column": ["nSeq", "I1", "I2", "O1", "O2", "A1", "A2", "A3", "A4", "A5", "A6"], "special": [{}, {}, {}, {}, {}, {}], "digital IO": [0, 0, 1, 1]}}
# EndOfHeader
0	0	0	0	0	559	500	1021	0	0	0	
1	0	0	0	0	549	492	1021	0	0	0	
2	0	0	0	0	538	483	1021	0	0	0	
3	0	0	0	0	529	475	1021	0	0	0	
4	0	0	0	0	519	467	1021	0	0	0	
5	0	0	0	0	512	461	1021	0	0	0	
6	0	0	0	0	507	457	1021	0	0	0	
7	0	0	0	0	503	455	1021	0	0	0	
8	0	0	0	0	502	455	1021	0	0	0	
9	0	0	0	0	502	455	1021	0	0	0	
10	0	0	0	0	503	455	1021	0	0	0	
11	0	0	0	0	504	457	1021	0	0	0	
12	0	0	0	0	506	457	1021	0	0	0	
13	0	0	0	0	508	459	1021	0	0	0	
14	0	0	0	0	510	460	1021	0	0	0	
15	0	0	0	0	512	460	1021	0	0	0	
0	0	0	0	0	515	461	1021	0	0	0	
1	0	0	0	0	518	462	1021	0	0	0	
2	0	0	0	0	520	462	1021	0	0	0	
3	0	0	0	0	523	463	1021	0	0	0	
4	0	0	0	0	526	464	1021	0	0	0	
5	0	0	0	0	529	465	1021	0	0	0	
6	0	0	0	0	531	466	1021	0	0	0	
7	0	0	0	0	532	467	1021	0	0	0	
8	0	0	0	0	535	469	1021	0	0	0	
9	0	0	0	0	536	472	1021	0	0	0	
10	0	0	0	0	539	475	1021	0	0	0	
11	0	0	0	0	541	479	1021	0	0	0	
12	0	0	0	0	545	484	1021	0	0	0	
13	0	0	0	0	550	490	1021	0	0	0	
14	0	0	0	0	555	496	1021	0	0	0	
15	0	0	0	0	559	502	1021	0	0	0	
0	0	0	0	0	563	508	1020	0	0	0	
1	0	0	0	0	566	512	1021	0	0	0	
2	0	0	0	0	569	515	1021	0	0	0	
3	0	0	0	0	570	516	1021	0	0	0	
4	0	0	0	0	569	515	1021	0	0	0	
5	0	0	0	0	567	513	1020	0	0	0	
6	0	0	0	0	563	510	1021	0	0	0	
7	0	0	0	0	558	504	1021	0	0	0	
8	0	0	0	0	550	497	1021	0	0	0	
9	0	0	0	0	541	488	1020	0	0	0	
10	0	0	0	0	531	478	1021	0	0	0	
11	0	0	0	0	520	468	1020	0	0	0	
12	0	0	0	0	512	460	1021	0	0	0	
13	0	0	0	0	504	452	1021	0	0	0	
14	0	0	0	0	498	447	1021	0	0	0	
15	0	0	0	0	494	444	1021	0	0	0	
0	0	0	0	0	494	444	1021	0	0	0	
1	0	0	0	0	496	446	1021	0	0	0	
2	0	0	0	0	500	450	1021	0	0	0	
3	0	0	0	0	506	455	1021	0	0	0	
4	0	0	0	0	513	462	1021	0	0	0	
5	0	0	0	0	521	468	1021	0	0	0	
6	0	0	0	0	528	474	1021	0	0	0	
7	0	0	0	0	534	478	1021	0	0	0	
8	0	0	0	0	537	480	1021	0	0	0	
9	0	0	0	0	539	480	1021	0	0	0	
10	0	0	0	0	537	478	1021	0	0	0	
11	0	0	0	0	535	475	1021	0	0	0	
12	0	0	0	0	530	470	1021	0	0	0	
13	0	0	0	0	524	464	1021	0	0	0	
14	0	0	0	0	518	459	1021	0	0	0	
15	0	0	0	0	512	454	1021	0	0	0	
0	0	0	0	0	509	451	1021	0	0	0	
1	0	0	0	0	508	451	1021	0	0	0	
2	0	0	0	0	510	453	1021	0	0	0	
3	0	0	0	0	515	458	1021	0	0	0	
4	0	0	0	0	523	465	1021	0	0	0	
5	0	0	0	0	533	475	1021	0	0	0	
6	0	0	0	0	545	485	1021	0	0	0	
7	0	0	0	0	558	496	1021	0	0	0	
8	0	0	0	0	570	507	1021	0	0	0	
9	0	0	0	0	581	516	1021	0	0	0	
10	0	0	0	0	590	524	1021	0	0	0	
11	0	0	0	0	594	528	1021	0	0	0	
12	0	0	0	0	595	529	1021	0	0	0	
13	0	0	0	0	593	527	1021	0	0	0	
14	0	0	0	0	585	521	1021	0	0	0	
15	0	0	0	0	574	512	1021	0	0	0	
0	0	0	0	0	559	499	1021	0	0	0	
1	0	0	0	0	541	485	1021	0	0	0	
2	0	0	0	0	523	470	1020	0	0	0	
3	0	0	0	0	504	454	1020	0	0	0	
4	0	0	0	0	488	441	1021	0	0	0	
5	0	0	0	0	475	431	1021	0	0	0	
6	0	0	0	0	467	425	1021	0	0	0	
7	0	0	0	0	464	423	1021	0	0	0	
8	0	0	0	0	467	425	1021	0	0	0	
9	0	0	0	0	475	432	1021	0	0	0	
10	0	0	0	0	487	441	1021	0	0	0	
11	0	0	0	0	503	453	1021	0	0	0	
12	0	0	0	0	520	467	1020	0	0	0	
13	0	0	0	0	538	481	1021	0	0	0	
14	0	0	0	0	556	495	1021	0	0	0	
15	0	0	0	0	572	506	1021	0	0	0	
0	0	0	0	0	584	516	1021	0	0	0	
1	0	0	0	0	593	523	1021	0	0	0	
2	0	0	0	0	599	527	1021	0	0	0	
3	0	0	0	0	601	527	1021	0	0	0	
4	0	0	0	0	598	524	1021	0	0	0	
5	0	0	0	0	592	519	1021	0	0	0	
6	0	0	0	0	582	512	1021	0	0	0	
7	0	0	0	0	571	504	1021	0	0	0	
8	0	0	0	0	559	496	1021	0	0	0	
9	0	0	0	0	546	487	1021	0	0	0	
10	0	0	0	0	535	480	1021	0	0	0	
11	0	0	0	0	526	474	1021	0	0	0	
12	0	0	0	0	518	470	1021	0	0	0	
13	0	0	0	0	515	468	1021	0	0	0	
14	0	0	0	0	514	468	1021	0	0	0	
15	0	0	0	0	515	470	1021	0	0	0	
0	0	0	0	0	518	472	1021	0	0	0	
1	0	0	0	0	521	475	1020	0	0	0	
2	0	0	0	0	526	478	1021	0	0	0	
3	0	0	0	0	529	480	1021	0	0	0	
4	0	0	0	0	532	480	1021	0	0	0	
5	0	0	0	0	533	480	1021	0	0	0	
6	0	0	0	0	533	478	1020	0	0	0	
7	0	0	0	0	533	476	1021	0	0	0	
8	0	0	0	0	531	473	1021	0	0	0	
9	0	0	0	0	530	471	1021	0	0	0	
10	0	0	0	0	527	468	1021	0	0	0	
11	0	0	0	0	527	467	1020	0	0	0	
12	0	0	0	0	527	467	1021	0	0	0	
13	0	0	0	0	529	469	1021	0	0	0	
14	0	0	0	0	533	473	1021	0	0	0	
15	0	0	0	0	538	479	1021	0	0	0	
0	0	0	0	0	546	487	1021	0	0	0	
1	0	0	0	0	555	496	1021	0	0	0	
2	0	0	0	0	563	504	1021	0	0	0	
3	0	0	0	0	571	512	1020	0	0	0	
4	0	0	0	0	575	517	1021	0	0	0	
5	0	0	0	0	577	519	1020	0	0	0	
6	0	0	0	0	575	518	1021	0	0	0	
7	0	0	0	0	570	513	1021	0	0	0	
8	0	0	0	0	560	504	1021	0	0	0	
9	0	0	0	0	547	492	1021	0	0	0	
10	0	0	0	0	531	477	1021	0	0	0	
11	0	0	0	0	513	460	1021	0	0	0	
12	0	0	0	0	492	441	1021	0	0	0	
13	0	0	0	0	472	422	1021	0	0	0	
14	0	0	0	0	451	403	1021	0	0	0	
15	0	0	0	0	432	385	1021	0	0	0	
0	0	0	0	0	416	370	1021	0	0	0	
1	0	0	0	0	404	358	1021	0	0	0	
2	0	0	0	0	395	349	1021	0	0	0	
3	0	0	0	0	391	343	1020	0	0	0	
4	0	0	0	0	390	340	1020	0	0	0	
5	0	0	0	0	392	340	1021	0	0	0	
6	0	0	0	0	396	343	1021	0	0	0	
7	0	0	0	0	401	344	1021	0	0	0	
8	0	0	0	0	404	345	1021	0	0	0	
9	0	0	0	0	404	344	1021	0	0	0	
10	0	0	0	0	401	339	1021	0	0	0	
11	0	0	0	0	393	331	1021	0	0	0	
12	0	0	0	0	381	318	1021	0	0	0	
13	0	0	0	0	366	304	1021	0	0	0	
14	0	0	0	0	350	289	1021	0	0	0	
15	0	0	0	0	335	276	1021	0	0	0	
0	0	0	0	0	321	265	1021	0	0	0	
1	0	0	0	0	312	257	1020	0	0	0	
2	0	0	0	0	307	253	1021	0	0	0	
3	0	0	0	0	309	255	1020	0	0	0	
4	0	0	0	0	318	263	1021	0	0	0	
5	0	0	0	0	333	276	1021	0	0	0	
6	0	0	0	0	355	295	1021	0	0	0	
7	0	0	0	0	383	320	1021	0	0	0	
8	0	0	0	0	416	350	1020	0	0	0	
9	0	0	0	0	453	383	1021	0	0	0	
10	0	0	0	0	492	418	1021	0	0	0	
11	0	0	0	0	530	453	1021	0	0	0	
12	0	0	0	0	564	485	1021	0	0	0	
13	0	0	0	0	595	513	1021	0	0	0	
14	0	0	0	0	618	535	1021	0	0	0	
15	0	0	0	0	632	550	1021	0	0	0	
0	0	0	0	0	637	558	1021	0	0	0	
1	0	0	0	0	634	559	1021	0	0	0	
2	0	0	0	0	624	553	1021	0	0	0	
3	0	0	0	0	608	543	1021	0	0	0	
4	0	0	0	0	588	528	1021	0	0	0	
5	0	0	0	0	565	512	1021	0	0	0	
6	0	0	0	0	542	495	1021	0	0	0	
7	0	0	0	0	520	478	1021	0	0	0	
8	0	0	0	0	503	464	1021	0	0	0	
9	0	0	0	0	490	453	1021	0	0	0	
10	0	0	0	0	482	445	1020	0	0	0	
11	0	0	0	0	480	442	1021	0	0	0	
12	0	0	0	0	483	442	1020	0	0	0	
13	0	0	0	0	491	446	1021	0	0	0	
14	0	0	0	0	502	452	1021	0	0	0	
15	0	0	0	0	515	461	1021	0	0	0	
0	0	0	0	0	530	470	1021	0	0	0	
1	0	0	0	0	543	479	1021	0	0	0	
2	0	0	0	0	556	487	1021	0	0	0	
3	0	0	0	0	565	494	1021	0	0	0	
4	0	0	0	0	571	499	1021	0	0	0	
5	0	0	0	0	575	502	1021	0	0	0	
6	0	0	0	0	576	504	1020	0	0	0	
7	0	0	0	0	576	505	1021	0	0	0	
8	0	0	0	0	574	505	1021	0	0	0	
9	0	0	0	0	571	505	1021	0	0	0	
10	0	0	0	0	568	506	1020	0	0	0	
11	0	0	0	0	567	507	1021	0	0	0	
12	0	0	0	0	566	508	1021	0	0	0	
13	0	0	0	0	566	510	1021	0	0	0	
14	0	0	0	0	567	512	1021	0	0	0	
15	0	0	0	0	568	514	1021	0	0	0	
0	0	0	0	0	569	517	1021	0	0	0	
1	0	0	0	0	572	520	1021	0	0	0	
2	0	0	0	0	574	522	1021	0	0	0	
3	0	0	0	0	575	524	1020	0	0	0	
4	0	0	0	0	575	524	1021	0	0	0	
5	0	0	0	0	574	523	1020	0	0	0	
6	0	0	0	0	573	521	1021	0	0	0	
7	0	0	0	0	570	518	1021	0	0	0	
8	0	0	0	0	567	515	1021	0	0	0	
9	0	0	0	0	563	511	1021	0	0	0	
10	0	0	0	0	560	508	1020	0	0	0	
11	0	0	0	0	560	506	1021	0	0	0	
12	0	0	0	0	561	505	1021	0	0	0	
13	0	0	0	0	562	506	1021	0	0	0	
14	0	0	0	0	565	506	1021	0	0	0	
15	0	0	0	0	568	507	1021	0	0	0	
0	0	0	0	0	570	508	1021	0	0	0	
1	0	0	0	0	570	507	1021	0	0	0	
2	0	0	0	0	570	506	1021	0	0	0	
3	0	0	0	0	568	504	1020	0	0	0	
4	0	0	0	0	564	502	1020	0	0	0	
5	0	0	0	0	560	499	1021	0	0	0	
6	0	0	0	0	555	496	1021	0	0	0	
7	0	0	0	0	550	493	1021	0	0	0	
8	0	0	0	0	544	490	1021	0	0	0	
9	0	0	0	0	539	488	1021	0	0	0	
10	0	0	0	0	536	487	1021	0	0	0	
11	0	0	0	0	533	486	1021	0	0	0	
12	0	0	0	0	532	485	1021	0	0	0	
13	0	0	0	0	531	484	1021	0	0	0	
14	0	0	0	0	533	485	1021	0	0	0	
15	0	0	0	0	536	487	1021	0	0	0	
0	0	0	0	0	541	489	1021	0	0	0	
1	0	0	0	0	545	492	1021	0	0	0	
2	0	0	0	0	551	494	1021	0	0	0	
3	0	0	0	0	556	497	1021	0	0	0	
4	0	0	0	0	561	500	1021	0	0	0	
5	0	0	0	0	566	503	1021	0	0	0	
6	0	0	0	0	570	507	1021	0	0	0	
7	0	0	0	0	574	511	1021	0	0	0	
8	0	0	0	0	578	515	1021	0	0	0	
9	0	0	0	0	581	519	1021	0	0	0	
10	0	0	0	0	583	522	1021	0	0	0	
11	0	0	0	0	586	526	1021	0	0	0	
12	0	0	0	0	588	530	1021	0	0	0	
13	0	0	0	0	590	533	1020	0	0	0	
14	0	0	0	0	591	535	1021	0	0	0	
15	0	0	0	0	591	536	1021	0	0	0	
0	0	0	0	0	589	533	1021	0	0	0	
1	0	0	0	0	584	530	1020	0	0	0	
2	0	0	0	0	578	523	1020	0	0	0	
3	0	0	0	0	570	515	1021	0	0	0	
4	0	0	0	0	560	505	1021	0	0	0	
5	0	0	0	0	550	496	1021	0	0	0	
6	0	0	0	0	539	486	1021	0	0	0	
7	0	0	0	0	530	478	1021	0	0	0	
8	0	0	0	0	524	472	1021	0	0	0	
9	0	0	0	0	519	469	1021	0	0	0	
10	0	0	0	0	518	467	1021	0	0	0	
11	0	0	0	0	519	469	1021	0	0	0	
12	0	0	0	0	521	471	1020	0	0	0	
13	0	0	0	0	525	474	1021	0	0	0	
14	0	0	0	0	528	477	1021	0	0	0	
15	0	0	0	0	532	480	1021	0	0	0	
0	0	0	0	0	534	481	1021	0	0	0	
1	0	0	0	0	536	483	1021	0	0	0	
2	0	0	0	0	536	482	1021	0	0	0	
3	0	0	0	0	537	482	1021	0	0	0	
4	0	0	0	0	536	480	1021	0	0	0	
5	0	0	0	0	536	478	1021	0	0	0	
6	0	0	0	0	534	476	1021	0	0	0	
7	0	0	0	0	534	474	1021	0	0	0	
8	0	0	0	0	533	472	1021	0	0	0	
9	0	0	0	0	534	471	1021	0	0	0	
10	0	0	0	0	535	471	1021	0	0	0	
11	0	0	0	0	536	472	1021	0	0	0	
12	0	0	0	0	539	474	1021	0	0	0	
13	0	0	0	0	542	477	1021	0	0	0	
14	0	0	0	0	546	481	1021	0	0	0	
15	0	0	0	0	551	486	1021	0	0	0	
0	0	0	0	0	556	492	1021	0	0	0	
1	0	0	0	0	561	498	1021	0	0	0	
2	0	0	0	0	565	503	1021	0	0	0	
3	0	0	0	0	568	508	1021	0	0	0	
4	0	0	0	0	569	511	1021	0	0	0	
5	0	0	0	0	571	514	1021	0	0	0	
6	0	0	0	0	571	515	1021	0	0	0	
7	0	0	0	0	570	515	1021	0	0	0	
8	0	0	0	0	568	515	1021	0	0	0	
9	0	0	0	0	564	513	1021	0	0	0	
10	0	0	0	0	561	510	1021	0	0	0	
11	0	0	0	0	557	506	1021	0	0	0	
12	0	0	0	0	551	501	1021	0	0	0	
13	0	0	0	0	546	495	1021	0	0	0	
14	0	0	0	0	540	489	1021	0	0	0	
15	0	0	0	0	535	483	1021	0	0	0	
0	0	0	0	0	529	477	1021	0	0	0	
1	0	0	0	0	524	472	1021	0	0	0	
2	0	0	0	0	521	467	1021	0	0	0	
3	0	0	0	0	518	463	1021	0	0	0	
4	0	0	0	0	516	462	1021	0	0	0	
5	0	0	0	0	516	462	1021	0	0	0	
6	0	0	0	0	517	462	1021	0	0	0	
7	0	0	0	0	518	463	1021	0	0	0	
8	0	0	0	0	519	465	1021	0	0	0	
9	0	0	0	0	521	467	1021	0	0	0	
10	0	0	0	0	522	468	1021	0	0	0	
11	0	0	0	0	524	470	1021	0	0	0	
12	0	0	0	0	524	470	1021	0	0	0	
13	0	0	0	0	524	469	1021	0	0	0	
14	0	0	0	0	523	468	1021	0	0	0	
15	0	0	0	0	522	466	1021	0	0	0	
0	0	0	0	0	521	464	1021	0	0	0	
1	0	0	0	0	520	462	1021	0	0	0	
2	0	0	0	0	519	461	1021	0	0	0	
3	0	0	0	0	521	461	1021	0	0	0	
4	0	0	0	0	524	463	1021	0	0	0	
5	0	0	0	0	529	467	1021	0	0	0	
6	0	0	0	0	535	473	1021	0	0	0	
7	0	0	0	0	543	480	1021	0	0	0	
8	0	0	0	0	553	490	1021	0	0	0	
9	0	0	0	0	563	501	1021	0	0	0	
10	0	0	0	0	575	512	1021	0	0	0	
11	0	0	0	0	585	524	1021	0	0	0	
12	0	0	0	0	595	534	1021	0	0	0	
13	0	0	0	0	604	543	1021	0	0	0	
14	0	0	0	0	610	550	1021	0	0	0	
15	0	0	0	0	614	554	1021	0	0	0	
0	0	0	0	0	615	555	1021	0	0	0	
1	0	0	0	0	611	552	1021	0	0	0	
2	0	0	0	0	605	546	1021	0	0	0	
3	0	0	0	0	595	538	1021	0	0	0	
4	0	0	0	0	584	527	1021	0	0	0	
5	0	0	0	0	571	515	1021	0	0	0	
6	0	0	0	0	557	504	1021	0	0	0	
7	0	0	0	0	543	492	1021	0	0	0	
8	0	0	0	0	532	481	1021	0	0	0	
9	0	0	0	0	522	473	1021	0	0	0	
10	0	0	0	0	515	467	1021	0	0	0	
11	0	0	0	0	511	463	1021	0	0	0	
12	0	0	0	0	511	464	1021	0	0	0	
13	0	0	0	0	516	467	1021	0	0	0	
14	0	0	0	0	523	473	1021	0	0	0	
15	0	0	0	0	531	480	1021	0	0	0	
0	0	0	0	0	540	487	1020	0	0	0	
1	0	0	0	0	550	494	1021	0	0	0	
2	0	0	0	0	559	500	1021	0	0	0	
3	0	0	0	0	564	504	1021	0	0	0	
4	0	0	0	0	567	504	1021	0	0	0	
5	0	0	0	0	563	501	1020	0	0	0	
6	0	0	0	0	557	495	1021	0	0	0	
7	0	0	0	0	547	486	1021	0	0	0	
8	0	0	0	0	536	476	1021	0	0	0	
9	0	0	0	0	523	465	1021	0	0	0	
10	0	0	0	0	510	455	1020	0	0	0	
11	0	0	0	0	499	447	1021	0	0	0	
12	0	0	0	0	491	440	1021	0	0	0	
13	0	0	0	0	487	438	1021	0	0	0	
14	0	0	0	0	486	437	1021	0	0	0	
15	0	0	0	0	490	440	1021	0	0	0	
0	0	0	0	0	496	444	1020	0	0	0	
1	0	0	0	0	506	452	1021	0	0	0	
2	0	0	0	0	519	462	1021	0	0	0	
3	0	0	0	0	532	473	1021	0	0	0	
4	0	0	0	0	547	484	1021	0	0	0	
5	0	0	0	0	560	495	1020	0	0	0	
6	0	0	0	0	573	504	1021	0	0	0	
7	0	0	0	0	581	510	1021	0	0	0	
8	0	0	0	0	584	513	1021	0	0	0	
9	0	0	0	0	583	512	1021	0	0	0	
10	0	0	0	0	578	508	1021	0	0	0	
11	0	0	0	0	570	503	1021	0	0	0	
12	0	0	0	0	560	497	1021	0	0	0	
13	0	0	0	0	549	490	1021	0	0	0	
14	0	0	0	0	539	484	1021	0	0	0	
15	0	0	0	0	530	479	1021	0	0	0	
0	0	0	0	0	524	476	1021	0	0	0	
1	0	0	0	0	520	475	1021	0	0	0	
2	0	0	0	0	521	477	1021	0	0	0	
3	0	0	0	0	524	480	1021	0	0	0	
4	0	0	0	0	530	485	1021	0	0	0	
5	0	0	0	0	539	491	1021	0	0	0	
6	0	0	0	0	547	496	1021	0	0	0	
7	0	0	0	0	555	500	1021	0	0	0	
8	0	0	0	0	560	503	1021	0	0	0	
9	0	0	0	0	563	503	1021	0	0	0	
10	0	0	0	0	564	501	1021	0	0	0	
11	0	0	0	0	562	498	1021	0	0	0	
12	0	0	0	0	557	492	1021	0	0	0	
13	0	0	0	0	551	486	1021	0	0	0	
14	0	0	0	0	541	478	1021	0	0	0	
15	0	0	0	0	533	471	1021	0	0	0	
0	0	0	0	0	524	463	1021	0	0	0	
1	0	0	0	0	515	455	1021	0	0	0	
2	0	0	0	0	508	450	1021	0	0	0	
3	0	0	0	0	503	447	1021	0	0	0	
4	0	0	0	0	501	446	1021	0	0	0	
5	0	0	0	0	502	448	1021	0	0	0	
6	0	0	0	0	505	451	1021	0	0	0	
7	0	0	0	0	511	456	1021	0	0	0	
8	0	0	0	0	518	462	1020	0	0	0	
9	0	0	0	0	525	468	1021	0	0	0	
10	0	0	0	0	532	474	1021	0	0	0	
11	0	0	0	0	538	479	1021	0	0	0	
12	0	0	0	0	544	483	1021	0	0	0	
13	0	0	0	0	546	486	1021	0	0	0	
14	0	0	0	0	548	487	1021	0	0	0	
15	0	0	0	0	547	486	1021	0	0	0	
0	0	0	0	0	544	484	1021	0	0	0	
1	0	0	0	0	540	481	1021	0	0	0	
2	0	0	0	0	534	476	1021	0	0	0	
3	0	0	0	0	527	471	1021	0	0	0	
4	0	0	0	0	520	465	1021	0	0	0	
5	0	0	0	0	514	460	1021	0	0	0	
6	0	0	0	0	508	455	1021	0	0	0	
7	0	0	0	0	504	451	1021	0	0	0	
8	0	0	0	0	501	448	1021	0	0	0	
9	0	0	0	0	500	447	1021	0	0	0	
10	0	0	0	0	503	448	1021	0	0	0	
11	0	0	0	0	506	452	1021	0	0	0	
12	0	0	0	0	512	456	1021	0	0	0	
13	0	0	0	0	520	464	1021	0	0	0	
14	0	0	0	0	529	472	1021	0	0	0	
15	0	0	0	0	538	480	1021	0	0	0	
0	0	0	0	0	546	487	1021	0	0	0	
1	0	0	0	0	553	494	1020	0	0	0	
2	0	0	0	0	558	498	1021	0	0	0	
3	0	0	0	0	559	500	1021	0	0	0	
4	0	0	0	0	558	499	1021	0	0	0	
5	0	0	0	0	553	495	1021	0	0	0	
6	0	0	0	0	545	488	1020	0	0	0	
7	0	0	0	0	537	481	1021	0	0	0	
8	0	0	0	0	528	473	1021	0	0	0	
9	0	0	0	0	519	465	1021	0	0	0	
10	0	0	0	0	511	457	1021	0	0	0	
11	0	0	0	0	505	452	1021	0	0	0	
12	0	0	0	0	503	449	1021	0	0	0	
13	0	0	0	0	503	449	1021	0	0	0	
14	0	0	0	0	507	452	1021	0	0	0	
15	0	0	0	0	513	459	1021	0	0	0	
0	0	0	0	0	523	467	1021	0	0	0	
1	0	0	0	0	536	479	1021	0	0	0	
2	0	0	0	0	550	491	1021	0	0	0	
3	0	0	0	0	564	504	1021	0	0	0	
4	0	0	0	0	579	516	1021	0	0	0	
5	0	0	0	0	592	527	1021	0	0	0	
6	0	0	0	0	601	535	1021	0	0	0	
7	0	0	0	0	607	539	1021	0	0	0	
8	0	0	0	0	606	538	1021	0	0	0	
9	0	0	0	0	600	531	1021	0	0	0	
10	0	0	0	0	588	521	1020	0	0	0	
11	0	0	0	0	572	507	1021	0	0	0	
12	0	0	0	0	553	491	1021	0	0	0	
13	0	0	0	0	534	475	1021	0	0	0	
14	0	0	0	0	513	458	1021	0	0	0	
15	0	0	0	0	496	444	1021	0	0	0	
0	0	0	0	0	482	433	1021	0	0	0	
1	0	0	0	0	473	427	1021	0	0	0	
2	0	0	0	0	469	423	1021	0	0	0	
3	0	0	0	0	470	425	1021	0	0	0	
4	0	0	0	0	475	430	1020	0	0	0	
5	0	0	0	0	484	437	1021	0	0	0	
6	0	0	0	0	496	446	1021	0	0	0	
7	0	0	0	0	509	455	1021	0	0	0	
8	0	0	0	0	521	465	1021	0	0	0	
9	0	0	0	0	533	474	1020	0	0	0	
10	0	0	0	0	543	482	1021	0	0	0	
11	0	0	0	0	552	488	1021	0	0	0	
12	0	0	0	0	558	493	1021	0	0	0	
13	0	0	0	0	561	495	1021	0	0	0	
14	0	0	0	0	561	496	1020	0	0	0	
15	0	0	0	0	561	496	1021	0	0	0	
0	0	0	0	0	559	495	1021	0	0	0	
1	0	0	0	0	555	492	1021	0	0	0	
2	0	0	0	0	549	489	1021	0	0	0	
3	0	0	0	0	543	486	1020	0	0	0	
4	0	0	0	0	539	483	1021	0	0	0	
5	0	0	0	0	533	480	1021	0	0	0	
6	0	0	0	0	528	478	1021	0	0	0	
7	0	0	0	0	524	475	1021	0	0	0	
8	0	0	0	0	520	473	1021	0	0	0	
9	0	0	0	0	516	471	1021	0	0	0	
10	0	0	0	0	513	469	1021	0	0	0	
11	0	0	0	0	510	467	1021	0	0	0	
12	0	0	0	0	507	465	1021	0	0	0	
13	0	0	0	0	504	464	1020	0	0	0	
14	0	0	0	0	503	463	1021	0	0	0	
15	0	0	0	0	502	461	1021	0	0	0	
0	0	0	0	0	503	461	1021	0	0	0	
1	0	0	0	0	504	460	1021	0	0	0	
2	0	0	0	0	507	461	1021	0	0	0	
3	0	0	0	0	511	462	1021	0	0	0	
4	0	0	0	0	515	463	1021	0	0	0	
5	0	0	0	0	519	464	1021	0	0	0	
6	0	0	0	0	523	466	1020	0	0	0	
7	0	0	0	0	527	468	1020	0	0	0	
8	0	0	0	0	531	471	1021	0	0	0	
9	0	0	0	0	534	473	1021	0	0	0	
10	0	0	0	0	536	476	1021	0	0	0	
11	0	0	0	0	537	478	1021	0	0	0	
12	0	0	0	0	538	480	1020	0	0	0	
13	0	0	0	0	540	483	1021	0	0	0	
14	0	0	0	0	540	487	1021	0	0	0	
15	0	0	0	0	541	489	1021	0	0	0	
0	0	0	0	0	541	491	1021	0	0	0	
1	0	0	0	0	541	493	1021	0	0	0	
2	0	0	0	0	540	493	1021	0	0	0	
3	0	0	0	0	537	491	1021	0	0	0	
4	0	0	0	0	533	487	1021	0	0	0	
5	0	0	0	0	527	481	1020	0	0	0	
6	0	0	0	0	520	475	1021	0	0	0	
7	0	0	0	0	515	468	1021	0	0	0	
8	0	0	0	0	509	462	1021	0	0	0	
9	0	0	0	0	504	455	1021	0	0	0	
10	0	0	0	0	500	450	1021	0	0	0	
11	0	0	0	0	498	446	1021	0	0	0	
12	0	0	0	0	497	444	1021	0	0	0	
13	0	0	0	0	497	443	1021	0	0	0	
14	0	0	0	0	499	444	1021	0	0	0	
15	0	0	0	0	501	446	1021	0	0	0	
0	0	0	0	0	505	449	1021	0	0	0	
1	0	0	0	0	510	454	1021	0	0	0	
2	0	0	0	0	516	460	1021	0	0	0	
3	0	0	0	0	523	466	1021	0	0	0	
4	0	0	0	0	528	472	1021	0	0	0	
5	0	0	0	0	536	479	1021	0	0	0	
6	0	0	0	0	541	485	1021	0	0	0	
7	0	0	0	0	547	490	1021	0	0	0	
8	0	0	0	0	551	494	1021	0	0	0	
9	0	0	0	0	552	495	1021	0	0	0	
10	0	0	0	0	553	495	1021	0	0	0	
11	0	0	0	0	551	493	1021	0	0	0	
12	0	0	0	0	547	488	1021	0	0	0	
13	0	0	0	0	541	482	1021	0	0	0	
14	0	0	0	0	533	474	1021	0	0	0	
15	0	0	0	0	526	467	1021	0	0	0	
0	0	0	0	0	518	460	1021	0	0	0	
1	0	0	0	0	511	454	1021	0	0	0	
2	0	0	0	0	506	451	1021	0	0	0	
3	0	0	0	0	504	449	1021	0	0	0	
4	0	0	0	0	505	451	1021	0	0	0	
5	0	0	0	0	509	454	1021	0	0	0	
6	0	0	0	0	515	460	1021	0	0	0	
7	0	0	0	0	523	467	1021	0	0	0	
8	0	0	0	0	530	475	1020	0	0	0	
9	0	0	0	0	538	481	1021	0	0	0	
10	0	0	0	0	543	486	1021	0	0	0	
11	0	0	0	0	546	487	1021	0	0	0	
12	0	0	0	0	544	486	1021	0	0	0	
13	0	0	0	0	540	483	1021	0	0	0	
14	0	0	0	0	534	478	1021	0	0	0	
15	0	0	0	0	527	472	1021	0	0	0	
0	0	0	0	0	520	467	1021	0	0	0	
1	0	0	0	0	513	462	1021	0	0	0	
2	0	0	0	0	508	457	1021	0	0	0	
3	0	0	0	0	505	455	1020	0	0	0	
4	0	0	0	0	505	455	1021	0	0	0	
5	0	0	0	0	508	457	1021	0	0	0	
6	0	0	0	0	514	462	1021	0	0	0	
7	0	0	0	0	520	468	1021	0	0	0	
8	0	0	0	0	529	476	1021	0	0	0	
9	0	0	0	0	539	484	1021	0	0	0	
10	0	0	0	0	547	492	1021	0	0	0	
11	0	0	0	0	555	500	1021	0	0	0	
12	0	0	0	0	561	505	1021	0	0	0	
13	0	0	0	0	563	508	1020	0	0	0	
14	0	0	0	0	564	510	1021	0	0	0	
15	0	0	0	0	561	507	1021	0	0	0	
0	0	0	0	0	556	502	1021	0	0	0	
1	0	0	0	0	548	496	1021	0	0	0	
2	0	0	0	0	539	487	1021	0	0	0	
3	0	0	0	0	528	478	1021	0	0	0	
4	0	0	0	0	518	468	1021	0	0	0	
5	0	0	0	0	509	459	1021	0	0	0	
6	0	0	0	0	500	451	1021	0	0	0	
7	0	0	0	0	494	446	1020	0	0	0	
8	0	0	0	0	491	443	1021	0	0	0	
9	0	0	0	0	492	443	1021	0	0	0	
10	0	0	0	0	496	446	1021	0	0	0	
11	0	0	0	0	502	451	1020	0	0	0	
12	0	0	0	0	512	460	1020	0	0	0	
13	0	0	0	0	524	470	1021	0	0	0	
14	0	0	0	0	536	480	1021	0	0	0	
15	0	0	0	0	548	490	1021	0	0	0	
0	0	0	0	0	560	500	1021	0	0	0	
1	0	0	0	0	570	508	1021	0	0	0	
2	0	0	0	0	578	515	1021	0	0	0	
3	0	0	0	0	583	520	1021	0	0	0	
4	0	0	0	0	586	522	1021	0	0	0	
5	0	0	0	0	586	522	1021	0	0	0	
6	0	0	0	0	583	520	1020	0	0	0	
7	0	0	0	0	580	518	1021	0	0	0	
8	0	0	0	0	574	514	1021	0	0	0	
9	0	0	0	0	568	508	1021	0	0	0	
10	0	0	0	0	559	503	1021	0	0	0	
11	0	0	0	0	552	497	1020	0	0	0	
12	0	0	0	0	546	492	1021	0	0	0	
13	0	0	0	0	540	487	1021	0	0	0	
14	0	0	0	0	535	484	1021	0	0	0	
15	0	0	0	0	531	481	1021	0	0	0	
0	0	0	0	0	530	481	1021	0	0	0	
1	0	0	0	0	531	482	1021	0	0	0	
2	0	0	0	0	534	485	1021	0	0	0	
3	0	0	0	0	537	488	1021	0	0	0	
4	0	0	0	0	541	491	1021	0	0	0	
5	0	0	0	0	543	493	1020	0	0	0	
6	0	0	0	0	544	493	1021	0	0	0	
7	0	0	0	0	543	490	1021	0	0	0	
8	0	0	0	0	539	485	1021	0	0	0	
9	0	0	0	0	532	478	1021	0	0	0	
10	0	0	0	0	524	469	1021	0	0	0	
11	0	0	0	0	515	460	1021	0	0	0	
12	0	0	0	0	507	451	1021	0	0	0	
13	0	0	0	0	499	443	1021	0	0	0	
14	0	0	0	0	493	437	1021	0	0	0	
15	0	0	0	0	490	433	1020	0	0	0	
0	0	0	0	0	491	433	1021	0	0	0	
1	0	0	0	0	494	435	1021	0	0	0	
2	0	0	0	0	501	441	1021	0	0	0	
3	0	0	0	0	510	448	1021	0	0	0	
4	0	0	0	0	521	458	1021	0	0	0	
5	0	0	0	0	534	469	1021	0	0	0	
6	0	0	0	0	545	479	1021	0	0	0	
7	0	0	0	0	556	489	1021	0	0	0	
8	0	0	0	0	567	498	1021	0	0	0	
9	0	0	0	0	574	505	1020	0	0	0	
10	0	0	0	0	579	510	1021	0	0	0	
11	0	0	0	0	580	512	1021	0	0	0	
12	0	0	0	0	578	511	1021	0	0	0	
13	0	0	0	0	572	507	1021	0	0	0	
14	0	0	0	0	562	499	1021	0	0	0	
15	0	0	0	0	550	489	1021	0	0	0	
0	0	0	0	0	535	477	1021	0	0	0	
1	0	0	0	0	519	465	1021	0	0	0	
2	0	0	0	0	503	451	1021	0	0	0	
3	0	0	0	0	487	439	1020	0	0	0	
4	0	0	0	0	476	429	1021	0	0	0	
5	0	0	0	0	467	423	1021	0	0	0	
6	0	0	0	0	465	420	1021	0	0	0	
7	0	0	0	0	467	422	1021	0	0	0	
8	0	0	0	0	473	428	1021	0	0	0	
9	0	0	0	0	484	436	1021	0	0	0	
10	0	0	0	0	497	446	1021	0	0	0	
11	0	0	0	0	512	457	1021	0	0	0	
12	0	0	0	0	526	467	1021	0	0	0	
13	0	0	0	0	540	477	1021	0	0	0	
14	0	0	0	0	551	485	1021	0	0	0	
15	0	0	0	0	560	491	1021	0	0	0	
0	0	0	0	0	567	496	1021	0	0	0	
1	0	0	0	0	570	498	1021	0	0	0	
2	0	0	0	0	572	499	1021	0	0	0	
3	0	0	0	0	571	498	1021	0	0	0	
4	0	0	0	0	567	495	1021	0	0	0	
5	0	0	0	0	560	490	1021	0	0	0	
6	0	0	0	0	551	483	1021	0	0	0	
7	0	0	0	0	541	476	1021	0	0	0	
8	0	0	0	0	530	468	1021	0	0	0	
9	0	0	0	0	519	460	1021	0	0	0	
10	0	0	0	0	510	454	1021	0	0	0	
11	0	0	0	0	502	450	1021	0	0	0	
12	0	0	0	0	497	448	1021	0	0	0	
13	0	0	0	0	496	447	1021	0	0	0	
14	0	0	0	0	497	449	1021	0	0	0	
15	0	0	0	0	502	454	1021	0	0	0	
0	0	0	0	0	508	459	1021	0	0	0	
1	0	0	0	0	517	467	1021	0	0	0	
2	0	0	0	0	527	475	1021	0	0	0	
3	0	0	0	0	538	482	1021	0	0	0	
4	0	0	0	0	549	491	1021	0	0	0	
5	0	0	0	0	559	497	1021	0	0	0	
6	0	0	0	0	569	504	1021	0	0	0	
7	0	0	0	0	577	510	1021	0	0	0	
8	0	0	0	0	583	515	1021	0	0	0	
9	0	0	0	0	587	518	1021	0	0	0	
10	0	0	0	0	589	519	1021	0	0	0	
11	0	0	0	0	589	520	1021	0	0	0	
12	0	0	0	0	587	519	1021	0	0	0	
13	0	0	0	0	582	516	1021	0	0	0	
14	0	0	0	0	575	512	1021	0	0	0	
15	0	0	0	0	566	506	1021	0	0	0	
0	0	0	0	0	556	500	1021	0	0	0	
1	0	0	0	0	545	493	1021	0	0	0	
2	0	0	0	0	535	486	1021	0	0	0	
3	0	0	0	0	525	480	1021	0	0	0	
4	0	0	0	0	517	474	1021	0	0	0	
5	0	0	0	0	511	469	1021	0	0	0	
6	0	0	0	0	506	465	1021	0	0	0	
7	0	0	0	0	503	462	1021	0	0	0	
8	0	0	0	0	500	459	1021	0	0	0	
9	0	0	0	0	499	455	1021	0	0	0	
10	0	0	0	0	499	452	1021	0	0	0	
11	0	0	0	0	499	449	1021	0	0	0	
12	0	0	0	0	499	447	1021	0	0	0	
13	0	0	0	0	500	444	1021	0	0	0	
14	0	0	0	0	501	442	1021	0	0	0	
15	0	0	0	0	502	440	1021	0	0	0	
0	0	0	0	0	504	440	1021	0	0	0	
1	0	0	0	0	506	441	1021	0	0	0	
2	0	0	0	0	510	445	1021	0	0	0	
3	0	0	0	0	515	449	1021	0	0	0	
4	0	0	0	0	521	456	1021	0	0	0	
5	0	0	0	0	530	465	1021	0	0	0	
6	0	0	0	0	539	475	1021	0	0	0	
7	0	0	0	0	550	486	1021	0	0	0	
8	0	0	0	0	561	497	1021	0	0	0	
9	0	0	0	0	572	508	1021	0	0	0	
10	0	0	0	0	583	519	1021	0	0	0	
11	0	0	0	0	590	526	1021	0	0	0	
12	0	0	0	0	594	529	1021	0	0	0	
13	0	0	0	0	594	530	1021	0	0	0	
14	0	0	0	0	588	525	1021	0	0	0	
15	0	0	0	0	579	517	1021	0	0	0	
0	0	0	0	0	566	505	1021	0	0	0	
1	0	0	0	0	551	493	1021	0	0	0	
2	0	0	0	0	534	479	1021	0	0	0	
3	0	0	0	0	518	465	1020	0	0	0	
4	0	0	0	0	505	454	1021	0	0	0	
5	0	0	0	0	493	444	1021	0	0	0	
6	0	0	0	0	485	438	1021	0	0	0	
7	0	0	0	0	479	433	1021	0	0	0	
8	0	0	0	0	477	432	1020	0	0	0	
9	0	0	0	0	477	432	1021	0	0	0	
10	0	0	0	0	478	432	1021	0	0	0	
11	0	0	0	0	478	432	1021	0	0	0	
12	0	0	0	0	478	431	1021	0	0	0	
13	0	0	0	0	477	428	1021	0	0	0	
14	0	0	0	0	475	425	1021	0	0	0	
15	0	0	0	0	470	419	1021	0	0	0	
0	0	0	0	0	463	411	1021	0	0	0	
1	0	0	0	0	454	400	1021	0	0	0	
2	0	0	0	0	443	388	1020	0	0	0	
3	0	0	0	0	430	375	1021	0	0	0	
4	0	0	0	0	415	359	1021	0	0	0	
5	0	0	0	0	399	344	1021	0	0	0	
6	0	0	0	0	382	327	1021	0	0	0	
7	0	0	0	0	364	310	1021	0	0	0	
8	0	0	0	0	347	295	1021	0	0	0	
9	0	0	0	0	332	281	1021	0	0	0	
10	0	0	0	0	318	268	1021	0	0	0	
11	0	0	0	0	307	258	1021	0	0	0	
12	0	0	0	0	298	251	1021	0	0	0	
13	0	0	0	0	294	247	1021	0	0	0	
14	0	0	0	0	294	247	1021	0	0	0	
15	0	0	0	0	299	251	1021	0	0	0	
0	0	0	0	0	308	258	1021	0	0	0	
1	0	0	0	0	321	269	1021	0	0	0	
2	0	0	0	0	339	284	1021	0	0	0	
3	0	0	0	0	360	301	1021	0	0	0	
4	0	0	0	0	384	321	1021	0	0	0	
5	0	0	0	0	409	341	1021	0	0	0	
6	0	0	0	0	436	363	1021	0	0	0	
7	0	0	0	0	461	384	1021	0	0	0	
8	0	0	0	0	485	404	1021	0	0	0	
9	0	0	0	0	507	423	1021	0	0	0	
10	0	0	0	0	525	441	1020	0	0	0	
11	0	0	0	0	541	456	1021	0	0	0	
12	0	0	0	0	555	470	1021	0	0	0	
13	0	0	0	0	565	482	1021	0	0	0	
14	0	0	0	0	574	494	1021	0	0	0	
15	0	0	0	0	581	504	1021	0	0	0	
0	0	0	0	0	587	513	1021	0	0	0	
1	0	0	0	0	591	521	1021	0	0	0	
2	0	0	0	0	592	526	1021	0	0	0	
3	0	0	0	0	592	530	1021	0	0	0	
4	0	0	0	0	591	531	1021	0	0	0	
5	0	0	0	0	586	529	1020	0	0	0	
6	0	0	0	0	580	526	1021	0	0	0	
7	0	0	0	0	572	519	1021	0	0	0	
8	0	0	0	0	561	510	1021	0	0	0	
9	0	0	0	0	550	499	1021	0	0	0	
10	0	0	0	0	538	488	1021	0	0	0	
11	0	0	0	0	527	477	1021	0	0	0	
12	0	0	0	0	518	467	1021	0	0	0	
13	0	0	0	0	509	459	1021	0	0	0	
14	0	0	0	0	503	452	1021	0	0	0	
15	0	0	0	0	499	447	1020	0	0	0	
0	0	0	0	0	499	446	1021	0	0	0	
1	0	0	0	0	503	448	1021	0	0	0	
2	0	0	0	0	509	454	1021	0	0	0	
3	0	0	0	0	519	463	1021	0	0	0	
4	0	0	0	0	530	473	1020	0	0	0	
5	0	0	0	0	544	486	1021	0	0	0	
6	0	0	0	0	558	498	1021	0	0	0	
7	0	0	0	0	570	510	1021	0	0	0	
8	0	0	0	0	582	520	1021	0	0	0	
9	0	0	0	0	592	530	1021	0	0	0	
10	0	0	0	0	600	537	1021	0	0	0	
11	0	0	0	0	604	540	1021	0	0	0	
12	0	0	0	0	604	540	1021	0	0	0	
13	0	0	0	0	599	537	1020	0	0	0	
14	0	0	0	0	590	529	1021	0	0	0	
15	0	0	0	0	578	519	1021	0	0	0	
0	0	0	0	0	563	507	1021	0	0	0	
1	0	0	0	0	547	494	1021	0	0	0	
2	0	0	0	0	533	482	1021	0	0	0	
3	0	0	0	0	519	471	1020	0	0	0	
4	0	0	0	0	509	463	1021	0	0	0	
5	0	0	0	0	503	458	1021	0	0	0	
6	0	0	0	0	500	456	1021	0	0	0	
7	0	0	0	0	502	458	1021	0	0	0	
8	0	0	0	0	507	462	1021	0	0	0	
9	0	0	0	0	515	469	1021	0	0	0	
10	0	0	0	0	526	477	1021	0	0	0	
11	0	0	0	0	536	485	1021	0	0	0	
12	0	0	0	0	548	493	1021	0	0	0	
13	0	0	0	0	558	500	1021	0	0	0	
14	0	0	0	0	565	505	1021	0	0	0	
15	0	0	0	0	569	507	1021	0	0	0	
0	0	0	0	0	571	507	1021	0	0	0	
1	0	0	0	0	568	505	1020	0	0	0	
2	0	0	0	0	564	500	1020	0	0	0	
3	0	0	0	0	558	495	1021	0	0	0	
4	0	0	0	0	550	488	1021	0	0	0	
5	0	0	0	0	541	481	1021	0	0	0	
6	0	0	0	0	533	475	1021	0	0	0	
7	0	0	0	0	526	471	1021	0	0	0	
8	0	0	0	0	521	468	1021	0	0	0	
9	0	0	0	0	519	468	1021	0	0	0	
10	0	0	0	0	520	470	1021	0	0	0	
11	0	0	0	0	524	474	1021	0	0	0	
12	0	0	0	0	529	480	1020	0	0	0	
13	0	0	0	0	537	487	1021	0	0	0	
14	0	0	0	0	545	494	1021	0	0	0	
15	0	0	0	0	554	501	1021	0	0	0	
0	0	0	0	0	561	506	1021	0	0	0	
1	0	0	0	0	567	511	1021	0	0	0	
2	0	0	0	0	572	514	1021	0	0	0	
3	0	0	0	0	574	515	1021	0	0	0	
4	0	0	0	0	574	514	1021	0	0	0	
5	0	0	0	0	572	512	1020	0	0	0	
6	0	0	0	0	569	508	1020	0	0	0	
7	0	0	0	0	565	505	1021	0	0	0	
8	0	0	0	0	560	500	1021	0	0	0	
9	0	0	0	0	555	495	1021	0	0	0	
10	0	0	0	0	548	490	1021	0	0	0	
11	0	0	0	0	542	485	1020	0	0	0	
12	0	0	0	0	537	481	1021	0	0	0	
13	0	0	0	0	533	479	1021	0	0	0	
14	0	0	0	0	531	477	1021	0	0	0	
15	0	0	0	0	530	478	1021	0	0	0	
0	0	0	0	0	530	480	1021	0	0	0	
1	0	0	0	0	532	482	1021	0	0	0	
2	0	0	0	0	534	484	1021	0	0	0	
3	0	0	0	0	537	487	1021	0	0	0	
4	0	0	0	0	540	491	1021	0	0	0	
5	0	0	0	0	543	493	1021	0	0	0	
6	0	0	0	0	545	495	1021	0	0	0	
7	0	0	0	0	547	496	1021	0	0	0	
8	0	0	0	0	547	496	1021	0	0	0	
9	0	0	0	0	547	495	1021	0	0	0	
10	0	0	0	0	547	494	1021	0	0	0	
11	0	0	0	0	546	492	1021	0	0	0	
12	0	0	0	0	545	490	1021	0	0	0	
13	0	0	0	0	543	487	1021	0	0	0	
14	0	0	0	0	542	485	1021	0	0	0	
15	0	0	0	0	540	483	1020	0	0	0	
0	0	0	0	0	539	482	1021	0	0	0	
1	0	0	0	0	539	481	1021	0	0	0	
2	0	0	0	0	539	482	1021	0	0	0	
3	0	0	0	0	541	485	1021	0	0	0	
4	0	0	0	0	544	489	1021	0	0	0	
5	0	0	0	0	550	495	1021	0	0	0	
6	0	0	0	0	556	502	1021	0	0	0	
7	0	0	0	0	563	509	1021	0	0	0	
8	0	0	0	0	569	515	1021	0	0	0	
9	0	0	0	0	573	519	1021	0	0	0	
10	0	0	0	0	575	522	1021	0	0	0	
11	0	0	0	0	575	522	1021	0	0	0	
12	0	0	0	0	572	519	1021	0	0	0	
13	0	0	0	0	566	514	1021	0	0	0	
14	0	0	0	0	557	506	1020	0	0	0	
15	0	0	0	0	548	498	1021	0	0	0	
0	0	0	0	0	537	487	1021	0	0	0	
1	0	0	0	0	526	477	1021	0	0	0	
2	0	0	0	0	515	466	1021	0	0	0	
3	0	0	0	0	505	457	1020	0	0	0	
4	0	0	0	0	497	450	1021	0	0	0	
5	0	0	0	0	492	444	1021	0	0	0	
6	0	0	0	0	489	441	1021	0	0	0	
7	0	0	0	0	489	441	1021	0	0	0	
8	0	0	0	0	492	443	1021	0	0	0	
9	0	0	0	0	498	448	1021	0	0	0	
10	0	0	0	0	506	454	1021	0	0	0	
11	0	0	0	0	515	460	1021	0	0	0	
12	0	0	0	0	524	468	1021	0	0	0	
13	0	0	0	0	533	476	1020	0	0	0	
14	0	0	0	0	542	482	1021	0	0	0	
15	0	0	0	0	547	487	1021	0	0	0	
0	0	0	0	0	550	488	1021	0	0	0	
1	0	0	0	0	549	487	1021	0	0	0	
2	0	0	0	0	545	484	1021	0	0	0	
3	0	0	0	0	539	479	1021	0	0	0	
4	0	0	0	0	531	472	1021	0	0	0	
5	0	0	0	0	522	466	1021	0	0	0	
6	0	0	0	0	514	460	1020	0	0	0	
7	0	0	0	0	508	455	1020	0	0	0	
8	0	0	0	0	504	454	1021	0	0	0	
9	0	0	0	0	502	453	1021	0	0	0	
10	0	0	0	0	503	455	1021	0	0	0	
11	0	0	0	0	507	459	1021	0	0	0	
12	0	0	0	0	511	465	1020	0	0	0	
13	0	0	0	0	519	472	1021	0	0	0	
14	0	0	0	0	527	479	1021	0	0	0	
15	0	0	0	0	535	485	1021	0	0	0	
0	0	0	0	0	541	491	1021	0	0	0	
1	0	0	0	0	547	495	1021	0	0	0	
2	0	0	0	0	551	497	1021	0	0	0	
3	0	0	0	0	552	497	1021	0	0	0	
4	0	0	0	0	552	496	1021	0	0	0	
5	0	0	0	0	550	493	1021	0	0	0	
6	0	0	0	0	548	490	1021	0	0	0	
7	0	0	0	0	545	487	1021	0	0	0	
8	0	0	0	0	542	483	1021	0	0	0	
9	0	0	0	0	540	480	1021	0	0	0	
10	0	0	0	0	537	478	1021	0	0	0	
11	0	0	0	0	535	476	1021	0	0	0	
12	0	0	0	0	534	476	1021	0	0	0	
13	0	0	0	0	535	476	1021	0	0	0	
14	0	0	0	0	535	478	1021	0	0	0	
15	0	0	0	0	536	480	1021	0	0	0	
0	0	0	0	0	538	483	1021	0	0	0	
1	0	0	0	0	540	486	1021	0	0	0	
2	0	0	0	0	540	488	1021	0	0	0	
3	0	0	0	0	541	489	1021	0	0	0	
4	0	0	0	0	541	491	1021	0	0	0	
5	0	0	0	0	539	490	1021	0	0	0	
6	0	0	0	0	539	490	1021	0	0	0	
7	0	0	0	0	537	489	1021	0	0	0	
8	0	0	0	0	535	487	1021	0	0	0	
9	0	0	0	0	532	485	1021	0	0	0	
10	0	0	0	0	529	481	1021	0	0	0	
11	0	0	0	0	526	476	1021	0	0	0	
12	0	0	0	0	521	471	1021	0	0	0	
13	0	0	0	0	517	465	1021	0	0	0	
14	0	0	0	0	512	460	1020	0	0	0	
15	0	0	0	0	509	455	1021	0	0	0	
0	0	0	0	0	505	450	1021	0	0	0	
1	0	0	0	0	502	447	1021	0	0	0	
2	0	0	0	0	500	444	1021	0	0	0	
3	0	0	0	0	499	443	1021	0	0	0	
4	0	0	0	0	499	444	1020	0	0	0	
5	0	0	0	0	502	446	1021	0	0	0	
6	0	0	0	0	505	449	1021	0	0	0	
7	0	0	0	0	510	454	1021	0	0	0	
8	0	0	0	0	515	460	1021	0	0	0	
9	0	0	0	0	520	466	1021	0	0	0	
10	0	0	0	0	526	471	1021	0	0	0	
11	0	0	0	0	531	475	1021	0	0	0	
12	0	0	0	0	535	479	1021	0	0	0	
13	0	0	0	0	537	480	1021	0	0	0	
14	0	0	0	0	538	481	1021	0	0	0	
15	0	0	0	0	539	481	1021	0	0	0	
0	0	0	0	0	537	479	1021	0	0	0	
1	0	0	0	0	535	477	1021	0	0	0	
2	0	0	0	0	533	474	1021	0	0	0	
3	0	0	0	0	529	471	1020	0	0	0	
4	0	0	0	0	527	468	1021	0	0	0	
5	0	0	0	0	525	467	1021	0	0	0	
6	0	0	0	0	524	467	1021	0	0	0	
7	0	0	0	0	524	468	1021	0	0	0	
8	0	0	0	0	526	471	1021	0	0	0	
9	0	0	0	0	528	475	1021	0	0	0	
10	0	0	0	0	531	479	1021	0	0	0	
11	0	0	0	0	535	482	1020	0	0	0	
12	0	0	0	0	536	485	1021	0	0	0	
13	0	0	0	0	538	487	1021	0	0	0	
14	0	0	0	0	539	487	1021	0	0	0	
15	0	0	0	0	537	486	1021	0	0	0	
0	0	0	0	0	534	482	1021	0	0	0	
1	0	0	0	0	529	478	1021	0	0	0	
2	0	0	0	0	524	472	1021	0	0	0	
3	0	0	0	0	519	467	1021	0	0	0	
4	0	0	0	0	515	462	1021	0	0	0	
5	0	0	0	0	512	458	1021	0	0	0	
6	0	0	0	0	510	455	1021	0	0	0	
7	0	0	0	0	510	455	1021	0	0	0	
8	0	0	0	0	512	456	1021	0	0	0	
9	0	0	0	0	515	459	1021	0	0	0	
10	0	0	0	0	520	463	1021	0	0	0	
11	0	0	0	0	526	468	1021	0	0	0	
12	0	0	0	0	531	473	1021	0	0	0	
13	0	0	0	0	538	480	1021	0	0	0	
14	0	0	0	0	544	486	1021	0	0	0	
15	0	0	0	0	550	492	1021	0	0	0	
0	0	0	0	0	555	496	1020	0	0	0	
1	0	0	0	0	557	499	1020	0	0	0	
2	0	0	0	0	559	501	1021	0	0	0	
3	0	0	0	0	558	501	1021	0	0	0	
4	0	0	0	0	555	498	1021	0	0	0	
5	0	0	0	0	550	494	1021	0	0	0	
6	0	0	0	0	543	487	1021	0	0	0	
7	0	0	0	0	536	480	1021	0	0	0	
8	0	0	0	0	527	472	1021	0	0	0	
9	0	0	0	0	519	464	1021	0	0	0	
10	0	0	0	0	511	456	1021	0	0	0	
11	0	0	0	0	505	451	1020	0	0	0	
12	0	0	0	0	500	446	1021	0	0	0	
13	0	0	0	0	497	442	1021	0	0	0	
14	0	0	0	0	496	441	1021	0	0	0	
15	0	0	0	0	496	441	1021	0	0	0	
0	0	0	0	0	497	444	1021	0	0	0	
1	0	0	0	0	501	447	1021	0	0	0	
2	0	0	0	0	505	451	1021	0	0	0	
3	0	0	0	0	511	457	1021	0	0	0	
4	0	0	0	0	516	462	1021	0	0	0	
5	0	0	0	0	521	467	1021	0	0	0	
6	0	0	0	0	527	472	1021	0	0	0	
7	0	0	0	0	530	476	1021	0	0	0	
8	0	0	0	0	531	476	1021	0	0	0	
9	0	0	0	0	529	475	1021	0	0	0	
10	0	0	0	0	526	472	1021	0	0	0	
11	0	0	0	0	520	466	1021	0	0	0	
12	0	0	0	0	514	460	1021	0	0	0	
13	0	0	0	0	508	454	1021	0	0	0	
14	0	0	0	0	502	447	1021	0	0	0	
15	0	0	0	0	497	443	1021	0	0	0	
0	0	0	0	0	495	440	1021	0	0	0	
1	0	0	0	0	496	439	1021	0	0	0	
2	0	0	0	0	498	441	1021	0	0	0	
3	0	0	0	0	503	444	1021	0	0	0	
4	0	0	0	0	510	451	1021	0	0	0	
5	0	0	0	0	519	457	1021	0	0	0	
6	0	0	0	0	527	465	1021	0	0	0	
7	0	0	0	0	535	472	1021	0	0	0	
8	0	0	0	0	541	478	1021	0	0	0	
9	0	0	0	0	546	483	1021	0	0	0	
10	0	0	0	0	549	486	1021	0	0	0	
11	0	0	0	0	549	486	1021	0	0	0	
12	0	0	0	0	546	484	1021	0	0	0	
13	0	0	0	0	541	481	1021	0	0	0	
14	0	0	0	0	535	476	1021	0	0	0	
15	0	0	0	0	529	472	1021	0	0	0	
0	0	0	0	0	523	467	1021	0	0	0	
1	0	0	0	0	518	463	1021	0	0	0	
2	0	0	0	0	513	460	1021	0	0	0	
3	0	0	0	0	511	459	1021	0	0	0	
4	0	0	0	0	512	459	1021	0	0	0	
5	0	0	0	0	514	461	1021	0	0	0	
6	0	0	0	0	517	464	1021	0	0	0	
7	0	0	0	0	521	467	1021	0	0	0	
8	0	0	0	0	526	471	1021	0	0	0	
9	0	0	0	0	530	475	1021	0	0	0	
10	0	0	0	0	533	477	1021	0	0	0	
11	0	0	0	0	536	480	1021	0	0	0	
12	0	0	0	0	537	481	1021	0	0	0	
13	0	0	0	0	538	482	1021	0	0	0	
14	0	0	0	0	537	481	1021	0	0	0	
15	0	0	0	0	536	479	1021	0	0	0	
0	0	0	0	0	532	475	1021	0	0	0	
1	0	0	0	0	527	470	1021	0	0	0	
2	0	0	0	0	521	465	1021	0	0	0	
3	0	0	0	0	516	460	1021	0	0	0	
4	0	0	0	0	511	455	1021	0	0	0	
5	0	0	0	0	507	450	1021	0	0	0	
6	0	0	0	0	504	446	1021	0	0	0	
7	0	0	0	0	502	444	1021	0	0	0	
8	0	0	0	0	502	444	1021	0	0	0	
9	0	0	0	0	503	445	1021	0	0	0	
10	0	0	0	0	507	449	1021	0	0	0	
11	0	0	0	0	513	455	1021	0	0	0	
12	0	0	0	0	522	463	1021	0	0	0	
13	0	0	0	0	532	473	1021	0	0	0	
14	0	0	0	0	544	485	1021	0	0	0	
15	0	0	0	0	557	497	1021	0	0	0	
0	0	0	0	0	568	508	1021	0	0	0	
1	0	0	0	0	577	516	1021	0	0	0	
2	0	0	0	0	583	522	1021	0	0	0	
3	0	0	0	0	584	523	1021	0	0	0	
4	0	0	0	0	580	519	1021	0	0	0	
5	0	0	0	0	571	511	1021	0	0	0	
6	0	0	0	0	558	499	1021	0	0	0	
7	0	0	0	0	543	487	1021	0	0	0	
8	0	0	0	0	527	472	1021	0	0	0	
9	0	0	0	0	512	459	1021	0	0	0	
10	0	0	0	0	498	445	1021	0	0	0	
11	0	0	0	0	486	436	1021	0	0	0	
12	0	0	0	0	480	430	1021	0	0	0	
13	0	0	0	0	478	428	1021	0	0	0	
14	0	0	0	0	481	430	1021	0	0	0	
15	0	0	0	0	489	436	1021	0	0	0	
0	0	0	0	0	501	447	1021	0	0	0	
1	0	0	0	0	518	460	1021	0	0	0	
2	0	0	0	0	535	474	1021	0	0	0	
3	0	0	0	0	554	490	1021	0	0	0	
4	0	0	0	0	571	504	1021	0	0	0	
5	0	0	0	0	585	515	1021	0	0	0	
6	0	0	0	0	594	522	1021	0	0	0	
7	0	0	0	0	597	525	1021	0	0	0	
8	0	0	0	0	594	523	1021	0	0	0	
9	0	0	0	0	586	516	1021	0	0	0	
10	0	0	0	0	572	506	1021	0	0	0	
11	0	0	0	0	554	493	1021	0	0	0	
12	0	0	0	0	534	478	1021	0	0	0	
13	0	0	0	0	513	462	1020	0	0	0	
14	0	0	0	0	494	447	1021	0	0	0	
15	0	0	0	0	477	434	1021	0	0	0	
0	0	0	0	0	464	424	1021	0	0	0	
1	0	0	0	0	456	418	1021	0	0	0	
2	0	0	0	0	453	415	1021	0	0	0	
3	0	0	0	0	455	415	1021	0	0	0	
4	0	0	0	0	459	417	1021	0	0	0	
5	0	0	0	0	467	423	1021	0	0	0	
6	0	0	0	0	478	430	1021	0	0	0	
7	0	0	0	0	488	436	1021	0	0	0	
8	0	0	0	0	499	443	1021	0	0	0	
9	0	0	0	0	507	448	1021	0	0	0	
10	0	0	0	0	514	453	1021	0	0	0	
11	0	0	0	0	518	455	1021	0	0	0	
12	0	0	0	0	519	455	1021	0	0	0	
13	0	0	0	0	517	454	1021	0	0	0	
14	0	0	0	0	513	450	1021	0	0	0	
15	0	0	0	0	509	447	1021	0	0	0	
0	0	0	0	0	504	443	1021	0	0	0	
1	0	0	0	0	500	441	1021	0	0	0	
2	0	0	0	0	498	440	1021	0	0	0	
3	0	0	0	0	498	440	1021	0	0	0	
4	0	0	0	0	501	443	1021	0	0	0	
5	0	0	0	0	506	448	1021	0	0	0	
6	0	0	0	0	513	454	1021	0	0	0	
7	0	0	0	0	522	462	1021	0	0	0	
8	0	0	0	0	532	471	1021	0	0	0	
9	0	0	0	0	542	480	1021	0	0	0	
10	0	0	0	0	551	487	1021	0	0	0	
11	0	0	0	0	559	494	1021	0	0	0	
12	0	0	0	0	564	499	1021	0	0	0	
13	0	0	0	0	567	501	1021	0	0	0	
14	0	0	0	0	567	502	1021	0	0	0	
15	0	0	0	0	563	500	1021	0	0	0	
0	0	0	0	0	559	497	1021	0	0	0	
1	0	0	0	0	552	492	1021	0	0	0	
2	0	0	0	0	546	487	1021	0	0	0	
3	0	0	0	0	540	482	1021	0	0	0	
4	0	0	0	0	535	478	1021	0	0	0	
5	0	0	0	0	531	475	1021	0	0	0	
6	0	0	0	0	529	473	1021	0	0	0	
7	0	0	0	0	529	473	1021	0	0	0	
8	0	0	0	0	532	477	1021	0	0	0	
9	0	0	0	0	538	483	1021	0	0	0	
10	0	0	0	0	546	490	1021	0	0	0	
11	0	0	0	0	556	499	1021	0	0	0	
12	0	0	0	0	566	509	1021	0	0	0	
13	0	0	0	0	575	518	1021	0	0	0	
14	0	0	0	0	580	523	1021	0	0	0	
15	0	0	0	0	583	525	1021	0	0	0	
0	0	0	0	0	581	524	1021	0	0	0	
1	0	0	0	0	575	519	1021	0	0	0	
2	0	0	0	0	566	512	1021	0	0	0	
3	0	0	0	0	554	503	1021	0	0	0	
4	0	0	0	0	540	491	1021	0	0	0	
5	0	0	0	0	526	478	1021	0	0	0	
6	0	0	0	0	511	464	1021	0	0	0	
7	0	0	0	0	498	452	1021	0	0	0	
8	0	0	0	0	487	442	1021	0	0	0	
9	0	0	0	0	480	434	1021	0	0	0	
10	0	0	0	0	475	428	1021	0	0	0	
11	0	0	0	0	475	427	1021	0	0	0	
12	0	0	0	0	478	428	1021	0	0	0	
13	0	0	0	0	484	432	1021	0	0	0	
14	0	0	0	0	493	439	1021	0	0	0	
15	0	0	0	0	503	447	1021	0	0	0	
0	0	0	0	0	515	457	1021	0	0	0	
1	0	0	0	0	527	467	1021	0	0	0	
2	0	0	0	0	538	477	1021	0	0	0	
3	0	0	0	0	548	487	1021	0	0	0	
4	0	0	0	0	557	495	1021	0	0	0	
5	0	0	0	0	565	502	1021	0	0	0	
6	0	0	0	0	571	508	1021	0	0	0	
7	0	0	0	0	575	511	1021	0	0	0	
8	0	0	0	0	576	513	1021	0	0	0	
9	0	0	0	0	575	513	1021	0	0	0	
10	0	0	0	0	572	511	1021	0	0	0	
11	0	0	0	0	567	507	1021	0	0	0	
12	0	0	0	0	560	501	1021	0	0	0	
13	0	0	0	0	552	495	1021	0	0	0	
14	0	0	0	0	543	488	1021	0	0	0	
15	0	0	0	0	536	482	1021	0	0	0	
0	0	0	0	0	530	478	1021	0	0	0	
1	0	0	0	0	527	475	1021	0	0	0	
2	0	0	0	0	526	475	1021	0	0	0	
3	0	0	0	0	527	476	1021	0	0	0	
4	0	0	0	0	531	480	1021	0	0	0	
5	0	0	0	0	536	484	1021	0	0	0	
6	0	0	0	0	541	488	1021	0	0	0	
7	0	0	0	0	546	493	1021	0	0	0	
8	0	0	0	0	550	496	1021	0	0	0	
9	0	0	0	0	553	497	1021	0	0	0	
10	0	0	0	0	553	497	1021	0	0	0	
11	0	0	0	0	551	495	1021	0	0	0	
12	0	0	0	0	546	491	1021	0	0	0	
13	0	0	0	0	540	485	1021	0	0	0	
14	0	0	0	0	531	477	1021	0	0	0	
15	0	0	0	0	522	469	1021	0	0	0	
0	0	0	0	0	513	461	1021	0	0	0	
1	0	0	0	0	505	454	1021	0	0	0	
2	0	0	0	0	498	447	1021	0	0	0	
3	0	0	0	0	493	442	1021	0	0	0	
4	0	0	0	0	491	440	1021	0	0	0	
5	0	0	0	0	492	440	1021	0	0	0	
6	0	0	0	0	496	443	1021	0	0	0	
7	0	0	0	0	503	448	1021	0	0	0	
8	0	0	0	0	512	455	1021	0	0	0	
9	0	0	0	0	523	463	1021	0	0	0	
10	0	0	0	0	534	472	1021	0	0	0	
11	0	0	0	0	543	480	1021	0	0	0	
12	0	0	0	0	553	488	1021	0	0	0	
13	0	0	0	0	561	495	1021	0	0	0	
14	0	0	0	0	567	501	1021	0	0	0	
15	0	0	0	0	569	504	1021	0	0	0	
0	0	0	0	0	569	505	1021	0	0	0	
1	0	0	0	0	567	504	1021	0	0	0	
2	0	0	0	0	562	500	1021	0	0	0	
3	0	0	0	0	556	495	1021	0	0	0	
4	0	0	0	0	548	489	1021	0	0	0	
5	0	0	0	0	540	482	1021	0	0	0	
6	0	0	0	0	531	474	1021	0	0	0	
7	0	0	0	0	523	466	1021	0	0	0	
8	0	0	0	0	515	459	1021	0	0	0	
9	0	0	0	0	508	453	1021	0	0	0	
10	0	0	0	0	503	449	1021	0	0	0	
11	0	0	0	0	500	447	1021	0	0	0	
12	0	0	0	0	499	447	1021	0	0	0	
13	0	0	0	0	500	448	1021	0	0	0	
14	0	0	0	0	503	452	1021	0	0	0	
15	0	0	0	0	507	456	1021	0	0	0	
0	0	0	0	0	512	462	1021	0	0	0	
1	0	0	0	0	517	467	1021	0	0	0	
2	0	0	0	0	522	472	1021	0	0	0	
3	0	0	0	0	526	476	1021	0	0	0	
4	0	0	0	0	529	478	1021	0	0	0	
5	0	0	0	0	532	479	1021	0	0	0	
6	0	0	0	0	532	479	1021	0	0	0	
7	0	0	0	0	533	478	1021	0	0	0	
8	0	0	0	0	534	478	1021	0	0	0	
9	0	0	0	0	533	476	1021	0	0	0	
10	0	0	0	0	533	475	1021	0	0	0	
11	0	0	0	0	532	473	1021	0	0	0	
12	0	0	0	0	532	473	1021	0	0	0	
13	0	0	0	0	532	472	1021	0	0	0	
14	0	0	0	0	532	473	1021	0	0	0	
15	0	0	0	0	533	474	1021	0	0	0	
0	0	0	0	0	535	476	1021	0	0	0	
1	0	0	0	0	536	479	1021	0	0	0	
2	0	0	0	0	538	481	1021	0	0	0	
3	0	0	0	0	540	484	1021	0	0	0	
4	0	0	0	0	542	487	1021	0	0	0	
5	0	0	0	0	543	491	1021	0	0	0	
6	0	0	0	0	544	493	1021	0	0	0	
7	0	0	0	0	545	495	1021	0	0	0	
8	0	0	0	0	546	496	1021	0	0	0	
9	0	0	0	0	547	496	1021	0	0	0	
10	0	0	0	0	547	497	1021	0	0	0	
11	0	0	0	0	549	497	1021	0	0	0	
12	0	0	0	0	551	498	1021	0	0	0	
13	0	0	0	0	555	499	1021	0	0	0	
14	0	0	0	0	557	500	1021	0	0	0	
15	0	0	0	0	560	501	1021	0	0	0	
0	0	0	0	0	562	501	1021	0	0	0	
1	0	0	0	0	563	500	1021	0	0	0	
2	0	0	0	0	562	499	1021	0	0	0	
3	0	0	0	0	560	496	1021	0	0	0	
4	0	0	0	0	557	495	1021	0	0	0	
5	0	0	0	0	553	492	1021	0	0	0	
6	0	0	0	0	550	489	1021	0	0	0	
7	0	0	0	0	545	487	1021	0	0	0	
8	0	0	0	0	541	485	1021	0	0	0	
9	0	0	0	0	537	483	1021	0	0	0	
10	0	0	0	0	534	481	1021	0	0	0	
11	0	0	0	0	530	479	1021	0	0	0	
12	0	0	0	0	527	477	1021	0	0	0	
13	0	0	0	0	524	474	1021	0	0	0	
14	0	0	0	0	522	471	1021	0	0	0	
15	0	0	0	0	519	468	1021	0	0	0	
0	0	0	0	0	518	465	1021	0	0	0	
1	0	0	0	0	515	461	1021	0	0	0	
2	0	0	0	0	515	459	1021	0	0	0	
3	0	0	0	0	513	456	1021	0	0	0	
4	0	0	0	0	514	456	1021	0	0	0	
5	0	0	0	0	516	457	1021	0	0	0	
6	0	0	0	0	520	460	1021	0	0	0	
7	0	0	0	0	527	466	1021	0	0	0	
8	0	0	0	0	534	473	1021	0	0	0	
9	0	0	0	0	543	482	1021	0	0	0	
10	0	0	0	0	553	492	1021	0	0	0	
11	0	0	0	0	564	502	1021	0	0	0	
12	0	0	0	0	573	511	1021	0	0	0	
13	0	0	0	0	580	518	1021	0	0	0	
14	0	0	0	0	585	522	1021	0	0	0	
15	0	0	0	0	587	524	1021	0	0	0	
0	0	0	0	0	585	523	1021	0	0	0	
1	0	0	0	0	579	518	1021	0	0	0	
2	0	0	0	0	572	511	1021	0	0	0	
3	0	0	0	0	563	504	1021	0	0	0	
4	0	0	0	0	552	495	1021	0	0	0	
5	0	0	0	0	541	486	1021	0	0	0	
6	0	0	0	0	529	476	1021	0	0	0	
7	0	0	0	0	519	468	1021	0	0	0	
8	0	0	0	0	510	461	1021	0	0	0	
9	0	0	0	0	503	455	1021	0	0	0	
10	0	0	0	0	498	451	1021	0	0	0	
11	0	0	0	0	496	450	1021	0	0	0	
12	0	0	0	0	495	449	1021	0	0	0	
13	0	0	0	0	497	451	1021	0	0	0	
14	0	0	0	0	499	452	1021	0	0	0	
15	0	0	0	0	502	454	1021	0	0	0	
0	0	0	0	0	504	454	1021	0	0	0	
1	0	0	0	0	504	453	1021	0	0	0	
2	0	0	0	0	503	450	1021	0	0	0	
3	0	0	0	0	499	445	1021	0	0	0	
4	0	0	0	0	492	437	1021	0	0	0	
5	0	0	0	0	482	427	1020	0	0	0	
6	0	0	0	0	470	415	1021	0	0	0	
7	0	0	0	0	456	402	1021	0	0	0	
8	0	0	0	0	440	387	1021	0	0	0	
9	0	0	0	0	422	371	1021	0	0	0	
10	0	0	0	0	403	354	1021	0	0	0	
11	0	0	0	0	384	336	1021	0	0	0	
12	0	0	0	0	365	320	1021	0	0	0	
13	0	0	0	0	348	304	1021	0	0	0	
14	0	0	0	0	332	290	1021	0	0	0	
15	0	0	0	0	320	278	1021	0	0	0	
0	0	0	0	0	310	270	1021	0	0	0	
1	0	0	0	0	305	263	1021	0	0	0	
2	0	0	0	0	304	261	1021	0	0	0	
3	0	0	0	0	307	263	1021	0	0	0	
4	0	0	0	0	315	268	1021	0	0	0	
5	0	0	0	0	327	277	1021	0	0	0	
6	0	0	0	0	344	289	1021	0	0	0	
7	0	0	0	0	364	304	1021	0	0	0	
8	0	0	0	0	385	320	1021	0	0	0	
9	0	0	0	0	408	339	1021	0	0	0	
10	0	0	0	0	432	357	1021	0	0	0	
11	0	0	0	0	455	377	1021	0	0	0	
12	0	0	0	0	479	397	1021	0	0	0	
13	0	0	0	0	501	416	1021	0	0	0	
14	0	0	0	0	521	435	1021	0	0	0	
15	0	0	0	0	540	452	1021	0	0	0	
0	0	0	0	0	555	468	1021	0	0	0	
1	0	0	0	0	568	483	1021	0	0	0	
2	0	0	0	0	580	497	1021	0	0	0	
3	0	0	0	0	590	510	1021	0	0	0	
4	0	0	0	0	597	521	1021	0	0	0	
5	0	0	0	0	604	531	1021	0	0	0	
6	0	0	0	0	606	537	1021	0	0	0	
7	0	0	0	0	605	539	1021	0	0	0	
8	0	0	0	0	599	537	1020	0	0	0	
9	0	0	0	0	590	532	1021	0	0	0	
10	0	0	0	0	578	524	1021	0	0	0	
11	0	0	0	0	563	511	1021	0	0	0	
12	0	0	0	0	546	498	1021	0	0	0	
13	0	0	0	0	528	483	1021	0	0	0	
14	0	0	0	0	511	468	1021	0	0	0	
15	0	0	0	0	497	455	1021	0	0	0	
0	0	0	0	0	486	445	1021	0	0	0	
1	0	0	0	0	479	438	1021	0	0	0	
2	0	0	0	0	476	435	1021	0	0	0	
3	0	0	0	0	480	436	1021	0	0	0	
4	0	0	0	0	489	443	1021	0	0	0	
5	0	0	0	0	504	454	1021	0	0	0	
6	0	0	0	0	523	468	1021	0	0	0	
7	0	0	0	0	546	486	1021	0	0	0	
8	0	0	0	0	570	505	1021	0	0	0	
9	0	0	0	0	594	524	1021	0	0	0	
10	0	0	0	0	615	542	1021	0	0	0	
11	0	0	0	0	632	556	1021	0	0	0	
12	0	0	0	0	643	565	1021	0	0	0	
13	0	0	0	0	647	569	1021	0	0	0	
14	0	0	0	0	647	571	1021	0	0	0	
15	0	0	0	0	640	567	1021	0	0	0	
0	0	0	0	0	629	560	1021	0	0	0	
1	0	0	0	0	615	550	1021	0	0	0	
2	0	0	0	0	598	539	1021	0	0	0	
3	0	0	0	0	580	526	1021	0	0	0	
4	0	0	0	0	561	511	1021	0	0	0	
5	0	0	0	0	544	498	1021	0	0	0	
6	0	0	0	0	528	486	1021	0	0	0	
7	0	0	0	0	516	475	1021	0	0	0	
8	0	0	0	0	508	467	1021	0	0	0	
9	0	0	0	0	503	463	1021	0	0	0	
10	0	0	0	0	503	462	1021	0	0	0	
11	0	0	0	0	506	463	1021	0	0	0	
12	0	0	0	0	512	468	1021	0	0	0	
13	0	0	0	0	522	475	1021	0	0	0	
14	0	0	0	0	534	483	1021	0	0	0	
15	0	0	0	0	545	492	1021	0	0	0	
0	0	0	0	0	556	499	1021	0	0	0	
1	0	0	0	0	566	508	1021	0	0	0	
2	0	0	0	0	575	514	1021	0	0	0	
3	0	0	0	0	580	518	1021	0	0	0	
4	0	0	0	0	583	520	1021	0	0	0	
5	0	0	0	0	584	520	1021	0	0	0	
6	0	0	0	0	582	519	1021	0	0	0	
7	0	0	0	0	579	516	1021	0	0	0	
8	0	0	0	0	574	511	1021	0	0	0	
9	0	0	0	0	569	506	1021	0	0	0	
10	0	0	0	0	563	500	1021	0	0	0	
11	0	0	0	0	557	496	1021	0	0	0	
12	0	0	0	0	552	492	1021	0	0	0	
13	0	0	0	0	548	488	1021	0	0	0	
14	0	0	0	0	544	486	1021	0	0	0	
15	0	0	0	0	543	485	1021	0	0	0	
0	0	0	0	0	541	486	1021	0	0	0	
1	0	0	0	0	542	487	1021	0	0	0	
2	0	0	0	0	542	490	1021	0	0	0	
3	0	0	0	0	543	493	1021	0	0	0	
4	0	0	0	0	545	496	1021	0	0	0	
5	0	0	0	0	547	499	1021	0	0	0	
6	0	0	0	0	550	501	1021	0	0	0	
7	0	0	0	0	552	503	1021	0	0	0	
8	0	0	0	0	554	504	1021	0	0	0	
9	0	0	0	0	555	504	1021	0	0	0	
10	0	0	0	0	556	504	1021	0	0	0	
11	0	0	0	0	556	502	1021	0	0	0	
12	0	0	0	0	556	500	1021	0	0	0	
13	0	0	0	0	556	498	1021	0	0	0	
14	0	0	0	0	556	497	1021	0	0	0	
15	0	0	0	0	554	495	1021	0	0	0	
0	0	0	0	0	554	495	1021	0	0	0	
1	0	0	0	0	554	495	1021	0	0	0	
2	0	0	0	0	555	496	1021	0	0	0	
3	0	0	0	0	555	496	1021	0	0	0	
4	0	0	0	0	557	499	1020	0	0	0	
5	0	0	0	0	559	502	1021	0	0	0	
6	0	0	0	0	561	505	1021	0	0	0	
7	0	0	0	0	563	508	1021	0	0	0	
8	0	0	0	0	566	512	1020	0	0	0	
9	0	0	0	0	568	514	1021	0	0	0	
10	0	0	0	0	571	516	1021	0	0	0	
11	0	0	0	0	572	518	1021	0	0	0	
12	0	0	0	0	571	517	1021	0	0	0	
13	0	0	0	0	568	515	1020	0	0	0	
14	0	0	0	0	565	512	1021	0	0	0	
15	0	0	0	0	563	509	1021	0	0	0	
0	0	0	0	0	559	506	1021	0	0	0	
1	0	0	0	0	557	504	1021	0	0	0	
2	0	0	0	0	555	502	1020	0	0	0	
3	0	0	0	0	553	500	1021	0	0	0	
4	0	0	0	0	554	501	1021	0	0	0	
5	0	0	0	0	556	502	1021	0	0	0	
6	0	0	0	0	557	504	1021	0	0	0	
7	0	0	0	0	560	507	1021	0	0	0	
8	0	0	0	0	562	509	1021	0	0	0	
9	0	0	0	0	563	511	1021	0	0	0	
10	0	0	0	0	563	512	1021	0	0	0	
11	0	0	0	0	561	511	1021	0	0	0	
12	0	0	0	0	558	509	1021	0	0	0	
13	0	0	0	0	553	505	1021	0	0	0	
14	0	0	0	0	548	501	1021	0	0	0	
15	0	0	0	0	544	497	1021	0	0	0	
0	0	0	0	0	540	493	1020	0	0	0	
1	0	0	0	0	537	489	1021	0	0	0	
2	0	0	0	0	535	486	1021	0	0	0	
3	0	0	0	0	536	484	1021	0	0	0	
4	0	0	0	0	537	484	1021	0	0	0	
5	0	0	0	0	542	485	1021	0	0	0	
6	0	0	0	0	547	488	1021	0	0	0	
7	0	0	0	0	555	493	1021	0	0	0	
8	0	0	0	0	563	499	1021	0	0	0	
9	0	0	0	0	572	506	1021	0	0	0	
10	0	0	0	0	580	513	1021	0	0	0	
11	0	0	0	0	587	520	1021	0	0	0	
12	0	0	0	0	593	527	1021	0	0	0	
13	0	0	0	0	597	533	1021	0	0	0	
14	0	0	0	0	598	536	1021	0	0	0	
15	0	0	0	0	597	537	1021	0	0	0	
0	0	0	0	0	592	535	1021	0	0	0	
1	0	0	0	0	585	531	1021	0	0	0	
2	0	0	0	0	575	524	1021	0	0	0	
3	0	0	0	0	563	514	1021	0	0	0	
4	0	0	0	0	551	503	1021	0	0	0	
5	0	0	0	0	536	491	1021	0	0	0	
6	0	0	0	0	521	478	1021	0	0	0	
7	0	0	0	0	508	465	1021	0	0	0	
8	0	0	0	0	495	454	1021	0	0	0	
9	0	0	0	0	485	444	1021	0	0	0	
10	0	0	0	0	477	435	1021	0	0	0	
11	0	0	0	0	472	430	1021	0	0	0	
12	0	0	0	0	471	428	1021	0	0	0	
13	0	0	0	0	473	428	1021	0	0	0	
14	0	0	0	0	478	431	1021	0	0	0	
15	0	0	0	0	485	436	1021	0	0	0	
0	0	0	0	0	493	443	1021	0	0	0	
1	0	0	0	0	504	451	1021	0	0	0	
2	0	0	0	0	515	461	1021	0	0	0	
3	0	0	0	0	526	471	1021	0	0	0	
4	0	0	0	0	537	480	1021	0	0	0	
5	0	0	0	0	546	488	1021	0	0	0	
6	0	0	0	0	555	495	1021	0	0	0	
7	0	0	0	0	560	500	1021	0	0	0	
8	0	0	0	0	563	502	1021	0	0	0	
9	0	0	0	0	563	503	1021	0	0	0	
10	0	0	0	0	561	501	1021	0	0	0	
11	0	0	0	0	558	499	1021	0	0	0	
12	0	0	0	0	553	495	1021	0	0	0	
13	0	0	0	0	548	491	1021	0	0	0	
14	0	0	0	0	543	487	1021	0	0	0	
15	0	0	0	0	539	484	1021	0	0	0	
0	0	0	0	0	537	483	1021	0	0	0	
1	0	0	0	0	537	485	1021	0	0	0	
2	0	0	0	0	539	488	1021	0	0	0	
3	0	0	0	0	544	494	1021	0	0	0	
4	0	0	0	0	550	500	1021	0	0	0	
5	0	0	0	0	558	508	1021	0	0	0	
6	0	0	0	0	564	514	1021	0	0	0	
7	0	0	0	0	571	520	1021	0	0	0	
8	0	0	0	0	575	524	1021	0	0	0	
9	0	0	0	0	578	527	1021	0	0	0	
10	0	0	0	0	579	527	1021	0	0	0	
11	0	0	0	0	577	525	1021	0	0	0	
12	0	0	0	0	572	521	1021	0	0	0	
13	0	0	0	0	565	515	1020	0	0	0	
14	0	0	0	0	558	507	1021	0	0	0	
15	0	0	0	0	549	499	1021	0	0	0	
0	0	0	0	0	540	491	1021	0	0	0	
1	0	0	0	0	532	483	1021	0	0	0	
2	0	0	0	0	526	476	1021	0	0	0	
3	0	0	0	0	521	472	1021	0	0	0	
4	0	0	0	0	520	469	1021	0	0	0	
5	0	0	0	0	521	469	1021	0	0	0	
6	0	0	0	0	525	472	1021	0	0	0	
7	0	0	0	0	531	476	1021	0	0	0	
8	0	0	0	0	540	484	1021	0	0	0	
9	0	0	0	0	550	492	1021	0	0	0	
10	0	0	0	0	560	501	1021	0	0	0	
11	0	0	0	0	568	509	1021	0	0	0	
12	0	0	0	0	574	515	1021	0	0	0	
13	0	0	0	0	577	519	1021	0	0	0	
14	0	0	0	0	577	519	1021	0	0	0	
15	0	0	0	0	574	517	1021	0	0	0	
0	0	0	0	0	567	512	1021	0	0	0	
1	0	0	0	0	557	505	1020	0	0	0	
2	0	0	0	0	548	497	1021	0	0	0	
3	0	0	0	0	539	489	1021	0	0	0	
4	0	0	0	0	530	481	1021	0	0	0	
5	0	0	0	0	523	475	1021	0	0	0	
6	0	0	0	0	518	469	1021	0	0	0	
7	0	0	0	0	515	465	1021	0	0	0	
8	0	0	0	0	515	464	1021	0	0	0	
9	0	0	0	0	517	465	1021	0	0	0	
10	0	0	0	0	521	467	1021	0	0	0	
11	0	0	0	0	528	472	1021	0	0	0	
12	0	0	0	0	536	478	1021	0	0	0	
13	0	0	0	0	546	486	1021	0	0	0	
14	0	0	0	0	555	494	1021	0	0	0	
15	0	0	0	0	565	502	1021	0	0	0	
0	0	0	0	0	572	509	1021	0	0	0	
1	0	0	0	0	577	515	1021	0	0	0	
2	0	0	0	0	580	517	1021	0	0	0	
3	0	0	0	0	578	516	1021	0	0	0	
4	0	0	0	0	573	513	1021	0	0	0	
5	0	0	0	0	564	506	1021	0	0	0	
6	0	0	0	0	552	496	1021	0	0	0	
7	0	0	0	0	539	486	1021	0	0	0	
8	0	0	0	0	526	476	1021	0	0	0	
9	0	0	0	0	513	465	1021	0	0	0	
10	0	0	0	0	502	455	1021	0	0	0	
11	0	0	0	0	493	448	1021	0	0	0	
12	0	0	0	0	488	444	1021	0	0	0	
13	0	0	0	0	487	442	1021	0	0	0	
14	0	0	0	0	488	444	1021	0	0	0	
15	0	0	0	0	494	448	1021	0	0	0	
0	0	0	0	0	502	454	1021	0	0	0	
1	0	0	0	0	513	463	1021	0	0	0	
2	0	0	0	0	525	473	1021	0	0	0	
3	0	0	0	0	536	482	1021	0	0	0	
4	0	0	0	0	547	491	1021	0	0	0	
5	0	0	0	0	556	496	1021	0	0	0	
6	0	0	0	0	563	502	1021	0	0	0	
7	0	0	0	0	566	503	1021	0	0	0	
8	0	0	0	0	566	501	1021	0	0	0	
9	0	0	0	0	561	497	1021	0	0	0	
10	0	0	0	0	555	491	1020	0	0	0	
11	0	0	0	0	547	483	1021	0	0	0	
12	0	0	0	0	537	475	1021	0	0	0	
13	0	0	0	0	527	467	1021	0	0	0	
14	0	0	0	0	519	459	1021	0	0	0	
15	0	0	0	0	510	453	1021	0	0	0	
0	0	0	0	0	505	449	1021	0	0	0	
1	0	0	0	0	503	448	1021	0	0	0	
2	0	0	0	0	504	451	1021	0	0	0	
3	0	0	0	0	508	456	1021	0	0	0	
4	0	0	0	0	517	465	1021	0	0	0	
5	0	0	0	0	529	477	1021	0	0	0	
6	0	0	0	0	543	489	1021	0	0	0	
7	0	0	0	0	558	503	1021	0	0	0	
8	0	0	0	0	574	517	1021	0	0	0	
9	0	0	0	0	589	529	1021	0	0	0	
10	0	0	0	0	604	541	1021	0	0	0	
11	0	0	0	0	614	548	1021	0	0	0	
12	0	0	0	0	620	553	1021	0	0	0	
13	0	0	0	0	623	553	1021	0	0	0	
14	0	0	0	0	620	550	1021	0	0	0	
15	0	0	0	0	612	543	1021	0	0	0	
0	0	0	0	0	600	533	1021	0	0	0	
1	0	0	0	0	586	520	1021	0	0	0	
2	0	0	0	0	569	507	1021	0	0	0	
3	0	0	0	0	551	493	1021	0	0	0	
4	0	0	0	0	536	481	1021	0	0	0	
5	0	0	0	0	522	472	1021	0	0	0	
6	0	0	0	0	512	465	1021	0	0	0	
7	0	0	0	0	506	462	1021	0	0	0	
8	0	0	0	0	503	461	1021	0	0	0	
9	0	0	0	0	504	463	1021	0	0	0	
10	0	0	0	0	507	466	1021	0	0	0	
11	0	0	0	0	512	471	1021	0	0	0	
12	0	0	0	0	517	474	1021	0	0	0	
13	0	0	0	0	522	477	1021	0	0	0	
14	0	0	0	0	526	479	1021	0	0	0	
15	0	0	0	0	529	479	1021	0	0	0	
0	0	0	0	0	530	478	1021	0	0	0	
1	0	0	0	0	529	475	1021	0	0	0	
2	0	0	0	0	526	470	1021	0	0	0	
3	0	0	0	0	523	466	1021	0	0	0	
4	0	0	0	0	518	461	1021	0	0	0	
5	0	0	0	0	513	456	1021	0	0	0	
6	0	0	0	0	509	451	1021	0	0	0	
7	0	0	0	0	505	448	1021	0	0	0	
8	0	0	0	0	504	447	1021	0	0	0	
9	0	0	0	0	504	448	1021	0	0	0	
10	0	0	0	0	508	452	1021	0	0	0	
11	0	0	0	0	514	458	1021	0	0	0	
12	0	0	0	0	523	466	1021	0	0	0	
13	0	0	0	0	535	477	1021	0	0	0	
14	0	0	0	0	548	490	1021	0	0	0	
15	0	0	0	0	564	504	1021	0	0	0	
0	0	0	0	0	580	518	1020	0	0	0	
1	0	0	0	0	595	530	1021	0	0	0	
2	0	0	0	0	609	542	1021	0	0	0	
3	0	0	0	0	620	550	1021	0	0	0	
4	0	0	0	0	626	555	1021	0	0	0	
5	0	0	0	0	627	553	1021	0	0	0	
6	0	0	0	0	622	549	1021	0	0	0	
7	0	0	0	0	612	540	1021	0	0	0	
8	0	0	0	0	598	528	1021	0	0	0	
9	0	0	0	0	582	515	1021	0	0	0	
10	0	0	0	0	563	500	1021	0	0	0	
11	0	0	0	0	544	486	1020	0	0	0	
12	0	0	0	0	527	472	1021	0	0	0	
13	0	0	0	0	511	462	1021	0	0	0	
14	0	0	0	0	499	453	1021	0	0	0	
15	0	0	0	0	491	448	1021	0	0	0	
0	0	0	0	0	486	445	1021	0	0	0	
1	0	0	0	0	487	447	1021	0	0	0	
2	0	0	0	0	492	451	1021	0	0	0	
3	0	0	0	0	499	457	1021	0	0	0	
4	0	0	0	0	509	464	1021	0	0	0	
5	0	0	0	0	519	471	1021	0	0	0	
6	0	0	0	0	529	477	1021	0	0	0	
7	0	0	0	0	537	482	1021	0	0	0	
8	0	0	0	0	543	484	1021	0	0	0	
9	0	0	0	0	546	485	1021	0	0	0	
10	0	0	0	0	547	483	1021	0	0	0	
11	0	0	0	0	544	480	1021	0	0	0	
12	0	0	0	0	540	475	1021	0	0	0	
13	0	0	0	0	533	469	1021	0	0	0	
14	0	0	0	0	526	463	1021	0	0	0	
15	0	0	0	0	519	458	1021	0	0	0	
0	0	0	0	0	513	455	1021	0	0	0	
1	0	0	0	0	509	453	1021	0	0	0	
2	0	0	0	0	507	453	1021	0	0	0	
3	0	0	0	0	508	456	1021	0	0	0	
4	0	0	0	0	512	461	1021	0	0	0	
5	0	0	0	0	519	469	1021	0	0	0	
6	0	0	0	0	529	478	1021	0	0	0	
7	0	0	0	0	540	487	1021	0	0	0	
8	0	0	0	0	551	496	1021	0	0	0	
9	0	0	0	0	561	505	1021	0	0	0	
10	0	0	0	0	570	511	1021	0	0	0	
11	0	0	0	0	576	515	1021	0	0	0	
12	0	0	0	0	579	515	1021	0	0	0	
13	0	0	0	0	578	513	1021	0	0	0	
14	0	0	0	0	573	508	1021	0	0	0	
15	0	0	0	0	566	500	1021	0	0	0	
0	0	0	0	0	556	491	1021	0	0	0	
1	0	0	0	0	543	481	1021	0	0	0	
2	0	0	0	0	531	471	1021	0	0	0	
3	0	0	0	0	520	462	1021	0	0	0	
4	0	0	0	0	512	456	1021	0	0	0	
5	0	0	0	0	506	453	1021	0	0	0	
6	0	0	0	0	504	453	1021	0	0	0	
7	0	0	0	0	506	456	1021	0	0	0	
8	0	0	0	0	511	462	1021	0	0	0	
9	0	0	0	0	521	470	1021	0	0	0	
10	0	0	0	0	532	481	1021	0	0	0	
11	0	0	0	0	545	492	1021	0	0	0	
12	0	0	0	0	558	503	1021	0	0	0	
13	0	0	0	0	571	513	1021	0	0	0	
14	0	0	0	0	582	523	1021	0	0	0	
15	0	0	0	0	591	531	1021	0	0	0	
0	0	0	0	0	599	536	1021	0	0	0	
1	0	0	0	0	603	538	1021	0	0	0	
2	0	0	0	0	603	536	1021	0	0	0	
3	0	0	0	0	600	533	1021	0	0	0	
4	0	0	0	0	594	527	1021	0	0	0	
5	0	0	0	0	586	520	1021	0	0	0	
6	0	0	0	0	577	512	1021	0	0	0	
7	0	0	0	0	568	505	1021	0	0	0	
8	0	0	0	0	560	499	1021	0	0	0	
9	0	0	0	0	552	495	1021	0	0	0	
10	0	0	0	0	547	492	1021	0	0	0	
11	0	0	0	0	543	491	1021	0	0	0	
12	0	0	0	0	539	488	1020	0	0	0	
13	0	0	0	0	535	487	1021	0	0	0	
14	0	0	0	0	531	484	1021	0	0	0	
15	0	0	0	0	527	482	1021	0	0	0	
0	0	0	0	0	524	479	1020	0	0	0	
1	0	0	0	0	521	476	1021	0	0	0	
2	0	0	0	0	519	475	1021	0	0	0	
3	0	0	0	0	518	472	1021	0	0	0	
4	0	0	0	0	516	470	1021	0	0	0	
5	0	0	0	0	516	467	1021	0	0	0	
6	0	0	0	0	515	464	1021	0	0	0	
7	0	0	0	0	515	463	1021	0	0	0	
8	0	0	0	0	515	460	1021	0	0	0	
9	0	0	0	0	515	458	1021	0	0	0	
10	0	0	0	0	515	455	1021	0	0	0	
11	0	0	0	0	516	454	1021	0	0	0	
12	0	0	0	0	518	454	1021	0	0	0	
13	0	0	0	0	520	455	1021	0	0	0	
14	0	0	0	0	523	458	1021	0	0	0	
15	0	0	0	0	527	462	1021	0	0	0	
0	0	0	0	0	533	468	1021	0	0	0	
1	0	0	0	0	540	475	1021	0	0	0	
2	0	0	0	0	547	483	1021	0	0	0	
3	0	0	0	0	555	492	1021	0	0	0	
4	0	0	0	0	563	502	1021	0	0	0	
5	0	0	0	0	571	510	1021	0	0	0	
6	0	0	0	0	577	517	1021	0	0	0	
7	0	0	0	0	579	521	1021	0	0	0	
8	0	0	0	0	580	522	1021	0	0	0	
9	0	0	0	0	576	519	1021	0	0	0	
10	0	0	0	0	569	513	1021	0	0	0	
11	0	0	0	0	560	505	1021	0	0	0	
12	0	0	0	0	548	495	1021	0	0	0	
13	0	0	0	0	536	484	1021	0	0	0	
14	0	0	0	0	524	473	1021	0	0	0	
15	0	0	0	0	512	463	1021	0	0	0	
0	0	0	0	0	503	454	1021	0	0	0	
1	0	0	0	0	496	448	1021	0	0	0	
2	0	0	0	0	492	445	1021	0	0	0	
3	0	0	0	0	492	445	1021	0	0	0	
4	0	0	0	0	495	448	1021	0	0	0	
5	0	0	0	0	501	453	1021	0	0	0	
6	0	0	0	0	509	461	1021	0	0	0	
7	0	0	0	0	519	469	1021	0	0	0	
8	0	0	0	0	529	478	1021	0	0	0	
9	0	0	0	0	539	487	1021	0	0	0	
10	0	0	0	0	548	494	1021	0	0	0	
11	0	0	0	0	556	499	1021	0	0	0	
12	0	0	0	0	560	501	1021	0	0	0	
13	0	0	0	0	561	500	1021	0	0	0	
14	0	0	0	0	559	497	1021	0	0	0	
15	0	0	0	0	554	492	1021	0	0	0	
0	0	0	0	0	547	485	1021	0	0	0	
1	0	0	0	0	538	477	1021	0	0	0	
2	0	0	0	0	529	469	1021	0	0	0	
3	0	0	0	0	520	463	1021	0	0	0	
4	0	0	0	0	513	457	1021	0	0	0	
5	0	0	0	0	509	455	1021	0	0	0	
6	0	0	0	0	507	455	1021	0	0	0	
7	0	0	0	0	509	457	1021	0	0	0	
8	0	0	0	0	514	463	1021	0	0	0	
9	0	0	0	0	522	470	1021	0	0	0	
10	0	0	0	0	532	479	1021	0	0	0	
11	0	0	0	0	545	489	1021	0	0	0	
12	0	0	0	0	557	499	1021	0	0	0	
13	0	0	0	0	568	508	1021	0	0	0	
14	0	0	0	0	579	515	1021	0	0	0	
15	0	0	0	0	586	520	1021	0	0	0	
0	0	0	0	0	588	521	1021	0	0	0	
1	0	0	0	0	587	518	1021	0	0	0	
2	0	0	0	0	580	511	1021	0	0	0	
3	0	0	0	0	572	504	1021	0	0	0	
4	0	0	0	0	559	494	1021	0	0	0	
5	0	0	0	0	547	484	1021	0	0	0	
6	0	0	0	0	534	475	1021	0	0	0	
7	0	0	0	0	524	469	1021	0	0	0	
8	0	0	0	0	515	465	1021	0	0	0	
9	0	0	0	0	511	463	1021	0	0	0	
10	0	0	0	0	510	465	1021	0	0	0	
11	0	0	0	0	512	469	1021	0	0	0	
12	0	0	0	0	519	477	1021	0	0	0	
13	0	0	0	0	528	485	1021	0	0	0	
14	0	0	0	0	540	495	1021	0	0	0	
15	0	0	0	0	552	504	1021	0	0	0	
0	0	0	0	0	564	513	1021	0	0	0	
1	0	0	0	0	575	521	1021	0	0	0	
2	0	0	0	0	584	527	1021	0	0	0	
3	0	0	0	0	591	531	1021	0	0	0	
4	0	0	0	0	593	532	1021	0	0	0	
5	0	0	0	0	592	531	1021	0	0	0	
6	0	0	0	0	590	528	1021	0	0	0	
7	0	0	0	0	585	524	1021	0	0	0	
8	0	0	0	0	578	518	1021	0	0	0	
9	0	0	0	0	572	512	1021	0	0	0	
10	0	0	0	0	565	507	1021	0	0	0	
11	0	0	0	0	560	504	1021	0	0	0	
12	0	0	0	0	557	502	1021	0	0	0	
13	0	0	0	0	556	502	1021	0	0	0	
14	0	0	0	0	557	504	1021	0	0	0	
15	0	0	0	0	559	507	1021	0	0	0	
0	0	0	0	0	562	511	1021	0	0	0	
1	0	0	0	0	566	515	1021	0	0	0	
2	0	0	0	0	568	519	1021	0	0	0	
3	0	0	0	0	569	520	1021	0	0	0	
4	0	0	0	0	568	519	1021	0	0	0	
5	0	0	0	0	564	517	1021	0	0	0	
6	0	0	0	0	557	511	1021	0	0	0	
7	0	0	0	0	547	503	1021	0	0	0	
8	0	0	0	0	536	492	1021	0	0	0	
9	0	0	0	0	522	480	1021	0	0	0	
10	0	0	0	0	508	467	1021	0	0	0	
11	0	0	0	0	495	454	1021	0	0	0	
12	0	0	0	0	482	441	1021	0	0	0	
13	0	0	0	0	471	431	1021	0	0	0	
14	0	0	0	0	463	422	1021	0	0	0	
15	0	0	0	0	458	418	1021	0	0	0	
0	0	0	0	0	459	417	1021	0	0	0	
1	0	0	0	0	464	420	1021	0	0	0	
2	0	0	0	0	474	428	1021	0	0	0	
3	0	0	0	0	487	438	1020	0	0	0	
4	0	0	0	0	504	451	1021	0	0	0	
5	0	0	0	0	523	467	1021	0	0	0	
6	0	0	0	0	542	483	1021	0	0	0	
7	0	0	0	0	560	499	1021	0	0	0	
8	0	0	0	0	575	512	1020	0	0	0	
9	0	0	0	0	587	522	1021	0	0	0	
10	0	0	0	0	594	529	1021	0	0	0	
11	0	0	0	0	596	532	1021	0	0	0	
12	0	0	0	0	593	531	1021	0	0	0	
13	0	0	0	0	585	526	1021	0	0	0	
14	0	0	0	0	574	517	1020	0	0	0	
15	0	0	0	0	560	507	1021	0	0	0	
0	0	0	0	0	544	495	1021	0	0	0	
1	0	0	0	0	528	482	1021	0	0	0	
2	0	0	0	0	513	471	1021	0	0	0	
3	0	0	0	0	501	461	1021	0	0	0	
4	0	0	0	0	493	455	1021	0	0	0	
5	0	0	0	0	490	453	1021	0	0	0	
6	0	0	0	0	492	455	1021	0	0	0	
7	0	0	0	0	498	460	1021	0	0	0	
8	0	0	0	0	509	469	1021	0	0	0	
9	0	0	0	0	523	480	1021	0	0	0	
10	0	0	0	0	539	492	1021	0	0	0	
11	0	0	0	0	555	503	1021	0	0	0	
12	0	0	0	0	568	512	1021	0	0	0	
13	0	0	0	0	578	519	1021	0	0	0	
14	0	0	0	0	584	523	1021	0	0	0	
15	0	0	0	0	584	522	1021	0	0	0	
0	0	0	0	0	579	517	1021	0	0	0	
1	0	0	0	0	571	509	1021	0	0	0	
2	0	0	0	0	558	498	1021	0	0	0	
3	0	0	0	0	543	487	1021	0	0	0	
4	0	0	0	0	527	475	1021	0	0	0	
5	0	0	0	0	512	463	1021	0	0	0	
6	0	0	0	0	499	453	1021	0	0	0	
7	0	0	0	0	488	446	1021	0	0	0	
8	0	0	0	0	482	441	1021	0	0	0	
9	0	0	0	0	480	439	1021	0	0	0	
10	0	0	0	0	482	441	1021	0	0	0	
11	0	0	0	0	488	445	1021	0	0	0	
12	0	0	0	0	498	452	1020	0	0	0	
13	0	0	0	0	510	462	1021	0	0	0	
14	0	0	0	0	524	473	1021	0	0	0	
15	0	0	0	0	538	484	1021	0	0	0	
0	0	0	0	0	552	494	1020	0	0	0	
1	0	0	0	0	564	503	1021	0	0	0	
2	0	0	0	0	575	511	1021	0	0	0	
3	0	0	0	0	582	517	1021	0	0	0	
4	0	0	0	0	586	519	1021	0	0	0	
5	0	0	0	0	587	520	1021	0	0	0	
6	0	0	0	0	585	519	1021	0	0	0	
7	0	0	0	0	581	516	1021	0	0	0	
8	0	0	0	0	575	513	1021	0	0	0	
9	0	0	0	0	568	508	1021	0	0	0	
10	0	0	0	0	558	502	1021	0	0	0	
11	0	0	0	0	550	496	1021	0	0	0	
12	0	0	0	0	542	491	1021	0	0	0	
13	0	0	0	0	534	486	1021	0	0	0	
14	0	0	0	0	527	482	1021	0	0	0	
15	0	0	0	0	522	478	1021	0	0	0	
0	0	0	0	0	517	475	1021	0	0	0	
1	0	0	0	0	514	473	1021	0	0	0	
2	0	0	0	0	511	470	1021	0	0	0	
3	0	0	0	0	508	467	1021	0	0	0	
4	0	0	0	0	505	464	1021	0	0	0	
5	0	0	0	0	502	460	1021	0	0	0	
6	0	0	0	0	499	456	1021	0	0	0	
7	0	0	0	0	495	451	1021	0	0	0	
8	0	0	0	0	490	445	1021	0	0	0	
9	0	0	0	0	484	438	1021	0	0	0	
10	0	0	0	0	478	429	1021	0	0	0	
11	0	0	0	0	470	420	1021	0	0	0	
12	0	0	0	0	460	409	1021	0	0	0	
13	0	0	0	0	448	397	1021	0	0	0	
14	0	0	0	0	435	384	1020	0	0	0	
15	0	0	0	0	420	369	1021	0	0	0	
0	0	0	0	0	404	354	1021	0	0	0	
1	0	0	0	0	387	338	1021	0	0	0	
2	0	0	0	0	369	322	1021	0	0	0	
3	0	0	0	0	351	307	1021	0	0	0	
4	0	0	0	0	333	291	1021	0	0	0	
5	0	0	0	0	316	278	1021	0	0	0	
6	0	0	0	0	303	267	1021	0	0	0	
7	0	0	0	0	293	259	1021	0	0	0	
8	0	0	0	0	288	254	1021	0	0	0	
9	0	0	0	0	287	254	1021	0	0	0	
10	0	0	0	0	293	257	1021	0	0	0	
11	0	0	0	0	304	266	1021	0	0	0	
12	0	0	0	0	320	277	1021	0	0	0	
13	0	0	0	0	340	292	1021	0	0	0	
14	0	0	0	0	363	308	1021	0	0	0	
15	0	0	0	0	388	327	1021	0	0	0	
0	0	0	0	0	415	347	1021	0	0	0	
1	0	0	0	0	442	368	1021	0	0	0	
2	0	0	0	0	467	388	1021	0	0	0	
3	0	0	0	0	492	408	1021	0	0	0	
4	0	0	0	0	514	428	1021	0	0	0	
5	0	0	0	0	535	448	1021	0	0	0	
6	0	0	0	0	554	467	1021	0	0	0	
7	0	0	0	0	571	485	1021	0	0	0	
8	0	0	0	0	585	502	1021	0	0	0	
9	0	0	0	0	597	517	1021	0	0	0	
10	0	0	0	0	605	529	1021	0	0	0	
11	0	0	0	0	610	539	1021	0	0	0	
12	0	0	0	0	610	544	1021	0	0	0	
13	0	0	0	0	606	547	1021	0	0	0	
14	0	0	0	0	600	545	1021	0	0	0	
15	0	0	0	0	590	540	1021	0	0	0	
0	0	0	0	0	577	532	1021	0	0	0	
1	0	0	0	0	564	522	1021	0	0	0	
2	0	0	0	0	550	511	1021	0	0	0	
3	0	0	0	0	536	499	1021	0	0	0	
4	0	0	0	0	524	487	1021	0	0	0	
5	0	0	0	0	513	477	1021	0	0	0	
6	0	0	0	0	506	468	1021	0	0	0	
7	0	0	0	0	501	462	1021	0	0	0	
8	0	0	0	0	500	458	1021	0	0	0	
9	0	0	0	0	502	457	1021	0	0	0	
10	0	0	0	0	508	459	1021	0	0	0	
11	0	0	0	0	516	464	1021	0	0	0	
12	0	0	0	0	527	472	1021	0	0	0	
13	0	0	0	0	540	481	1021	0	0	0	
14	0	0	0	0	552	491	1021	0	0	0	
15	0	0	0	0	564	501	1021	0	0	0	
0	0	0	0	0	574	510	1020	0	0	0	
1	0	0	0	0	582	519	1021	0	0	0	
2	0	0	0	0	588	525	1021	0	0	0	
3	0	0	0	0	590	529	1021	0	0	0	
4	0	0	0	0	589	530	1021	0	0	0	
5	0	0	0	0	585	529	1021	0	0	0	
6	0	0	0	0	579	525	1021	0	0	0	
7	0	0	0	0	571	520	1021	0	0	0	
8	0	0	0	0	562	514	1021	0	0	0	
9	0	0	0	0	554	507	1021	0	0	0	
10	0	0	0	0	546	500	1021	0	0	0	
11	0	0	0	0	539	494	1020	0	0	0	
12	0	0	0	0	533	489	1021	0	0	0	
13	0	0	0	0	530	486	1021	0	0	0	
14	0	0	0	0	531	486	1021	0	0	0	
15	0	0	0	0	535	488	1021	0	0	0	
0	0	0	0	0	542	493	1021	0	0	0	
1	0	0	0	0	551	501	1021	0	0	0	
2	0	0	0	0	564	511	1021	0	0	0	
3	0	0	0	0	576	520	1021	0	0	0	
4	0	0	0	0	590	530	1021	0	0	0	
5	0	0	0	0	600	538	1021	0	0	0	
6	0	0	0	0	609	546	1021	0	0	0	
7	0	0	0	0	615	550	1021	0	0	0	
8	0	0	0	0	616	551	1021	0	0	0	
9	0	0	0	0	612	548	1020	0	0	0	
10	0	0	0	0	604	541	1021	0	0	0	
11	0	0	0	0	592	532	1021	0	0	0	
12	0	0	0	0	577	520	1021	0	0	0	
13	0	0	0	0	560	508	1021	0	0	0	
14	0	0	0	0	543	494	1021	0	0	0	
15	0	0	0	0	526	481	1021	0	0	0	
0	0	0	0	0	512	472	1021	0	0	0	
1	0	0	0	0	503	465	1021	0	0	0	
2	0	0	0	0	498	462	1021	0	0	0	
3	0	0	0	0	499	463	1021	0	0	0	
4	0	0	0	0	504	467	1021	0	0	0	
5	0	0	0	0	514	476	1021	0	0	0	
6	0	0	0	0	526	486	1021	0	0	0	
7	0	0	0	0	541	497	1021	0	0	0	
8	0	0	0	0	555	507	1021	0	0	0	
9	0	0	0	0	569	516	1021	0	0	0	
10	0	0	0	0	582	526	1021	0	0	0	
11	0	0	0	0	592	532	1021	0	0	0	
12	0	0	0	0	599	537	1021	0	0	0	
13	0	0	0	0	603	540	1021	0	0	0	
14	0	0	0	0	604	540	1021	0	0	0	
15	0	0	0	0	604	540	1021	0	0	0	
0	0	0	0	0	599	536	1021	0	0	0	
1	0	0	0	0	592	531	1021	0	0	0	
2	0	0	0	0	583	525	1021	0	0	0	
3	0	0	0	0	573	517	1021	0	0	0	
4	0	0	0	0	563	511	1021	0	0	0	
5	0	0	0	0	555	506	1021	0	0	0	
6	0	0	0	0	547	502	1021	0	0	0	
7	0	0	0	0	542	499	1021	0	0	0	
8	0	0	0	0	540	499	1021	0	0	0	
9	0	0	0	0	540	500	1021	0	0	0	
10	0	0	0	0	541	502	1021	0	0	0	
11	0	0	0	0	543	504	1021	0	0	0	
12	0	0	0	0	546	506	1021	0	0	0	
13	0	0	0	0	549	507	1021	0	0	0	
14	0	0	0	0	551	508	1021	0	0	0	
15	0	0	0	0	551	506	1021	0	0	0	
0	0	0	0	0	549	503	1021	0	0	0	
1	0	0	0	0	546	499	1021	0	0	0	
2	0	0	0	0	542	492	1021	0	0	0	
3	0	0	0	0	536	487	1021	0	0	0	
4	0	0	0	0	530	480	1021	0	0	0	
5	0	0	0	0	524	473	1021	0	0	0	
6	0	0	0	0	518	467	1021	0	0	0	
7	0	0	0	0	513	463	1021	0	0	0	
8	0	0	0	0	511	461	1021	0	0	0	
9	0	0	0	0	510	461	1021	0	0	0	
10	0	0	0	0	512	463	1021	0	0	0	
11	0	0	0	0	515	467	1021	0	0	0	
12	0	0	0	0	519	472	1020	0	0	0	
13	0	0	0	0	525	477	1021	0	0	0	
14	0	0	0	0	531	483	1021	0	0	0	
15	0	0	0	0	537	488	1021	0	0	0	
0	0	0	0	0	543	493	1020	0	0	0	
1	0	0	0	0	548	497	1021	0	0	0	
2	0	0	0	0	552	501	1021	0	0	0	
3	0	0	0	0	556	503	1021	0	0	0	
4	0	0	0	0	557	503	1021	0	0	0	
5	0	0	0	0	558	502	1021	0	0	0	
6	0	0	0	0	556	500	1021	0	0	0	
7	0	0	0	0	554	498	1021	0	0	0	
8	0	0	0	0	552	495	1021	0	0	0	
9	0	0	0	0	550	492	1021	0	0	0	
10	0	0	0	0	547	489	1021	0	0	0	
11	0	0	0	0	545	487	1021	0	0	0	
12	0	0	0	0	543	486	1021	0	0	0	
13	0	0	0	0	541	484	1021	0	0	0	
14	0	0	0	0	540	484	1021	0	0	0	
15	0	0	0	0	539	485	1021	0	0	0	
0	0	0	0	0	539	486	1021	0	0	0	
1	0	0	0	0	540	489	1021	0	0	0	
2	0	0	0	0	540	491	1021	0	0	0	
3	0	0	0	0	541	494	1021	0	0	0	
4	0	0	0	0	543	497	1021	0	0	0	
5	0	0	0	0	544	499	1021	0	0	0	
6	0	0	0	0	546	503	1021	0	0	0	
7	0	0	0	0	547	504	1021	0	0	0	
8	0	0	0	0	549	505	1021	0	0	0	
9	0	0	0	0	551	506	1021	0	0	0	
10	0	0	0	0	552	506	1021	0	0	0	
11	0	0	0	0	554	507	1021	0	0	0	
12	0	0	0	0	557	507	1021	0	0	0	
13	0	0	0	0	559	507	1021	0	0	0	
14	0	0	0	0	560	507	1021	0	0	0	
15	0	0	0	0	563	508	1021	0	0	0	
0	0	0	0	0	567	510	1021	0	0	0	
1	0	0	0	0	570	512	1021	0	0	0	
2	0	0	0	0	573	515	1021	0	0	0	
3	0	0	0	0	575	517	1021	0	0	0	
4	0	0	0	0	576	517	1021	0	0	0	
5	0	0	0	0	576	519	1021	0	0	0	
6	0	0	0	0	575	518	1021	0	0	0	
7	0	0	0	0	572	517	1021	0	0	0	
8	0	0	0	0	566	513	1021	0	0	0	
9	0	0	0	0	558	508	1021	0	0	0	
10	0	0	0	0	548	502	1021	0	0	0	
11	0	0	0	0	537	493	1021	0	0	0	
12	0	0	0	0	524	483	1021	0	0	0	
13	0	0	0	0	511	473	1021	0	0	0	
14	0	0	0	0	499	463	1021	0	0	0	
15	0	0	0	0	489	454	1021	0	0	0	
0	0	0	0	0	482	446	1021	0	0	0	
1	0	0	0	0	478	441	1021	0	0	0	
2	0	0	0	0	477	438	1021	0	0	0	
3	0	0	0	0	479	436	1021	0	0	0	
4	0	0	0	0	484	439	1021	0	0	0	
5	0	0	0	0	492	443	1021	0	0	0	
6	0	0	0	0	503	450	1021	0	0	0	
7	0	0	0	0	515	458	1021	0	0	0	
8	0	0	0	0	528	468	1021	0	0	0	
9	0	0	0	0	542	479	1021	0	0	0	
10	0	0	0	0	555	489	1021	0	0	0	
11	0	0	0	0	565	498	1021	0	0	0	
12	0	0	0	0	572	505	1021	0	0	0	
13	0	0	0	0	576	510	1021	0	0	0	
14	0	0	0	0	577	512	1021	0	0	0	
15	0	0	0	0	575	512	1021	0	0	0	
0	0	0	0	0	569	510	1020	0	0	0	
1	0	0	0	0	560	505	1021	0	0	0	
2	0	0	0	0	550	497	1021	0	0	0	
3	0	0	0	0	538	490	1021	0	0	0	
4	0	0	0	0	526	481	1021	0	0	0	
5	0	0	0	0	514	472	1021	0	0	0	
6	0	0	0	0	504	463	1021	0	0	0	
7	0	0	0	0	493	455	1021	0	0	0	
8	0	0	0	0	487	448	1021	0	0	0	
9	0	0	0	0	481	442	1021	0	0	0	
10	0	0	0	0	480	439	1021	0	0	0	
11	0	0	0	0	480	438	1021	0	0	0	
12	0	0	0	0	483	439	1021	0	0	0	
13	0	0	0	0	488	442	1021	0	0	0	
14	0	0	0	0	495	447	1021	0	0	0	
15	0	0	0	0	503	453	1021	0	0	0	
0	0	0	0	0	512	460	1021	0	0	0	
1	0	0	0	0	520	466	1021	0	0	0	
2	0	0	0	0	528	472	1021	0	0	0	
3	0	0	0	0	535	477	1021	0	0	0	
4	0	0	0	0	540	481	1021	0	0	0	
5	0	0	0	0	543	483	1021	0	0	0	
6	0	0	0	0	544	484	1021	0	0	0	
7	0	0	0	0	545	485	1021	0	0	0	
8	0	0	0	0	545	485	1021	0	0	0	
9	0	0	0	0	545	485	1021	0	0	0	
10	0	0	0	0	544	484	1021	0	0	0	
11	0	0	0	0	543	484	1021	0	0	0	
12	0	0	0	0	543	485	1021	0	0	0	
13	0	0	0	0	544	487	1021	0	0	0	
14	0	0	0	0	545	490	1021	0	0	0	
15	0	0	0	0	547	493	1021	0	0	0	
0	0	0	0	0	549	497	1021	0	0	0	
1	0	0	0	0	551	500	1021	0	0	0	
2	0	0	0	0	552	502	1021	0	0	0	
3	0	0	0	0	552	503	1021	0	0	0	
4	0	0	0	0	550	502	1021	0	0	0	
5	0	0	0	0	546	500	1021	0	0	0	
6	0	0	0	0	542	496	1021	0	0	0	
7	0	0	0	0	535	490	1021	0	0	0	
8	0	0	0	0	527	483	1021	0	0	0	
9	0	0	0	0	518	475	1021	0	0	0	
10	0	0	0	0	511	468	1021	0	0	0	
11	0	0	0	0	506	463	1021	0	0	0	
12	0	0	0	0	504	459	1021	0	0	0	
13	0	0	0	0	505	459	1021	0	0	0	
14	0	0	0	0	510	461	1021	0	0	0	
15	0	0	0	0	518	467	1021	0	0	0	
0	0	0	0	0	531	476	1021	0	0	0	
1	0	0	0	0	545	487	1021	0	0	0	
2	0	0	0	0	560	499	1021	0	0	0	
3	0	0	0	0	575	511	1021	0	0	0	
4	0	0	0	0	588	524	1021	0	0	0	
5	0	0	0	0	598	532	1021	0	0	0	
6	0	0	0	0	603	536	1021	0	0	0	
7	0	0	0	0	602	537	1021	0	0	0	
8	0	0	0	0	595	533	1021	0	0	0	
9	0	0	0	0	584	527	1021	0	0	0	
10	0	0	0	0	570	516	1021	0	0	0	
11	0	0	0	0	552	504	1021	0	0	0	
12	0	0	0	0	535	491	1021	0	0	0	
13	0	0	0	0	517	477	1021	0	0	0	
14	0	0	0	0	500	465	1021	0	0	0	
15	0	0	0	0	487	453	1021	0	0	0	
0	0	0	0	0	476	444	1021	0	0	0	
1	0	0	0	0	469	436	1021	0	0	0	
2	0	0	0	0	465	430	1021	0	0	0	
3	0	0	0	0	463	427	1021	0	0	0	
4	0	0	0	0	465	425	1021	0	0	0	
5	0	0	0	0	469	426	1021	0	0	0	
6	0	0	0	0	476	429	1021	0	0	0	
7	0	0	0	0	484	434	1021	0	0	0	
8	0	0	0	0	493	440	1021	0	0	0	
9	0	0	0	0	504	448	1021	0	0	0	
10	0	0	0	0	513	455	1021	0	0	0	
11	0	0	0	0	522	462	1021	0	0	0	
12	0	0	0	0	529	468	1020	0	0	0	
13	0	0	0	0	535	473	1021	0	0	0	
14	0	0	0	0	540	478	1021	0	0	0	
15	0	0	0	0	542	481	1021	0	0	0	
0	0	0	0	0	543	483	1021	0	0	0	
1	0	0	0	0	543	483	1021	0	0	0	
2	0	0	0	0	541	483	1021	0	0	0	
3	0	0	0	0	539	481	1021	0	0	0	
4	0	0	0	0	535	478	1021	0	0	0	
5	0	0	0	0	531	474	1021	0	0	0	
6	0	0	0	0	526	470	1021	0	0	0	
7	0	0	0	0	520	466	1021	0	0	0	
8	0	0	0	0	516	463	1021	0	0	0	
9	0	0	0	0	512	459	1021	0	0	0	
10	0	0	0	0	510	457	1021	0	0	0	
11	0	0	0	0	509	457	1021	0	0	0	
12	0	0	0	0	509	457	1021	0	0	0	
13	0	0	0	0	510	459	1021	0	0	0	
14	0	0	0	0	512	462	1021	0	0	0	
15	0	0	0	0	516	466	1021	0	0	0	
0	0	0	0	0	521	470	1021	0	0	0	
1	0	0	0	0	525	475	1021	0	0	0	
2	0	0	0	0	530	479	1021	0	0	0	
3	0	0	0	0	534	482	1021	0	0	0	
4	0	0	0	0	537	485	1021	0	0	0	
5	0	0	0	0	539	486	1021	0	0	0	
6	0	0	0	0	539	486	1021	0	0	0	
7	0	0	0	0	538	484	1021	0	0	0	
8	0	0	0	0	536	481	1021	0	0	0	
9	0	0	0	0	532	477	1021	0	0	0	
10	0	0	0	0	528	472	1021	0	0	0	
11	0	0	0	0	524	467	1021	0	0	0	
12	0	0	0	0	520	464	1021	0	0	0	
13	0	0	0	0	518	463	1021	0	0	0	
14	0	0	0	0	518	462	1021	0	0	0	
15	0	0	0	0	518	464	1021	0	0	0	
0	0	0	0	0	520	467	1021	0	0	0	
1	0	0	0	0	524	472	1021	0	0	0	
2	0	0	0	0	528	477	1021	0	0	0	
3	0	0	0	0	532	482	1021	0	0	0	
4	0	0	0	0	536	486	1021	0	0	0	
5	0	0	0	0	539	489	1021	0	0	0	
6	0	0	0	0	540	491	1021	0	0	0	
7	0	0	0	0	541	492	1021	0	0	0	
8	0	0	0	0	542	491	1021	0	0	0	
9	0	0	0	0	543	491	1021	0	0	0	
10	0	0	0	0	542	488	1021	0	0	0	
11	0	0	0	0	542	486	1021	0	0	0	
12	0	0	0	0	540	482	1021	0	0	0	
13	0	0	0	0	536	478	1021	0	0	0	
14	0	0	0	0	531	472	1021	0	0	0	
15	0	0	0	0	525	467	1021	0	0	0	
0	0	0	0	0	519	462	1021	0	0	0	
1	0	0	0	0	513	458	1021	0	0	0	
2	0	0	0	0	508	455	1021	0	0	0	
3	0	0	0	0	503	454	1021	0	0	0	
4	0	0	0	0	499	453	1021	0	0	0	
5	0	0	0	0	497	454	1021	0	0	0	
6	0	0	0	0	497	457	1021	0	0	0	
7	0	0	0	0	498	460	1021	0	0	0	
8	0	0	0	0	500	462	1021	0	0	0	
9	0	0	0	0	503	464	1021	0	0	0	
10	0	0	0	0	506	466	1021	0	0	0	
11	0	0	0	0	508	467	1021	0	0	0	
12	0	0	0	0	510	466	1021	0	0	0	
13	0	0	0	0	510	464	1021	0	0	0	
14	0	0	0	0	510	461	1021	0	0	0	
15	0	0	0	0	510	459	1021	0	0	0	
0	0	0	0	0	509	457	1021	0	0	0	
1	0	0	0	0	509	455	1021	0	0	0	
2	0	0	0	0	510	455	1021	0	0	0	
3	0	0	0	0	511	454	1021	0	0	0	
4	0	0	0	0	513	456	1021	0	0	0	
5	0	0	0	0	516	459	1021	0	0	0	
6	0	0	0	0	522	464	1021	0	0	0	
7	0	0	0	0	529	470	1021	0	0	0	
8	0	0	0	0	537	478	1021	0	0	0	
9	0	0	0	0	546	487	1021	0	0	0	
10	0	0	0	0	555	496	1021	0	0	0	
11	0	0	0	0	561	503	1021	0	0	0	
12	0	0	0	0	567	508	1021	0	0	0	
13	0	0	0	0	569	511	1020	0	0	0	
14	0	0	0	0	568	511	1021	0	0	0	
15	0	0	0	0	561	507	1021	0	0	0	
0	0	0	0	0	551	498	1021	0	0	0	
1	0	0	0	0	536	487	1020	0	0	0	
2	0	0	0	0	519	473	1021	0	0	0	
3	0	0	0	0	502	459	1021	0	0	0	
4	0	0	0	0	486	446	1021	0	0	0	
5	0	0	0	0	471	433	1021	0	0	0	
6	0	0	0	0	459	424	1021	0	0	0	
7	0	0	0	0	452	417	1021	0	0	0	
8	0	0	0	0	448	414	1021	0	0	0	
9	0	0	0	0	450	415	1021	0	0	0	
10	0	0	0	0	455	419	1021	0	0	0	
11	0	0	0	0	465	425	1021	0	0	0	
12	0	0	0	0	477	434	1021	0	0	0	
13	0	0	0	0	492	445	1021	0	0	0	
14	0	0	0	0	506	455	1021	0	0	0	
15	0	0	0	0	519	466	1021	0	0	0	
0	0	0	0	0	532	475	1021	0	0	0	
1	0	0	0	0	542	482	1021	0	0	0	
2	0	0	0	0	549	488	1021	0	0	0	
3	0	0	0	0	552	492	1021	0	0	0	
4	0	0	0	0	553	492	1021	0	0	0	
5	0	0	0	0	551	491	1021	0	0	0	
6	0	0	0	0	547	487	1021	0	0	0	
7	0	0	0	0	542	484	1021	0	0	0	
8	0	0	0	0	536	481	1021	0	0	0	
9	0	0	0	0	530	477	1021	0	0	0	
10	0	0	0	0	526	475	1021	0	0	0	
11	0	0	0	0	522	473	1020	0	0	0	
12	0	0	0	0	520	473	1021	0	0	0	
13	0	0	0	0	521	475	1021	0	0	0	
14	0	0	0	0	522	476	1021	0	0	0	
15	0	0	0	0	524	478	1021	0	0	0	
0	0	0	0	0	524	479	1021	0	0	0	
1	0	0	0	0	525	480	1021	0	0	0	
2	0	0	0	0	524	479	1021	0	0	0	
3	0	0	0	0	523	477	1021	0	0	0	
4	0	0	0	0	519	473	1021	0	0	0	
5	0	0	0	0	515	469	1021	0	0	0	
6	0	0	0	0	511	465	1021	0	0	0	
7	0	0	0	0	505	460	1021	0	0	0	
8	0	0	0	0	501	455	1021	0	0	0	
9	0	0	0	0	498	452	1021	0	0	0	
10	0	0	0	0	495	448	1021	0	0	0	
11	0	0	0	0	494	446	1021	0	0	0	
12	0	0	0	0	494	446	1021	0	0	0	
13	0	0	0	0	496	446	1021	0	0	0	
14	0	0	0	0	499	448	1021	0	0	0	
15	0	0	0	0	503	451	1021	0	0	0	
0	0	0	0	0	508	454	1021	0	0	0	
1	0	0	0	0	514	459	1021	0	0	0	
2	0	0	0	0	520	464	1021	0	0	0	
3	0	0	0	0	526	470	1021	0	0	0	
4	0	0	0	0	531	475	1021	0	0	0	
5	0	0	0	0	536	481	1021	0	0	0	
6	0	0	0	0	539	486	1021	0	0	0	
7	0	0	0	0	542	490	1021	0	0	0	
8	0	0	0	0	543	493	1020	0	0	0	
9	0	0	0	0	543	495	1021	0	0	0	
10	0	0	0	0	543	496	1021	0	0	0	
11	0	0	0	0	540	494	1021	0	0	0	
12	0	0	0	0	537	491	1021	0	0	0	
13	0	0	0	0	532	487	1021	0	0	0	
14	0	0	0	0	527	483	1021	0	0	0	
15	0	0	0	0	523	479	1021	0	0	0	
0	0	0	0	0	520	476	1021	0	0	0	
1	0	0	0	0	518	473	1021	0	0	0	
2	0	0	0	0	517	472	1021	0	0	0	
3	0	0	0	0	517	472	1021	0	0	0	
4	0	0	0	0	518	472	1021	0	0	0	
5	0	0	0	0	520	473	1021	0	0	0	
6	0	0	0	0	523	475	1021	0	0	0	
7	0	0	0	0	526	478	1021	0	0	0	
8	0	0	0	0	530	480	1021	0	0	0	
9	0	0	0	0	535	484	1021	0	0	0	
10	0	0	0	0	540	489	1021	0	0	0	
11	0	0	0	0	546	493	1021	0	0	0	
12	0	0	0	0	552	498	1021	0	0	0	
13	0	0	0	0	557	500	1021	0	0	0	
14	0	0	0	0	560	503	1021	0	0	0	
15	0	0	0	0	560	502	1021	0	0	0	
0	0	0	0	0	558	499	1021	0	0	0	
1	0	0	0	0	553	494	1021	0	0	0	
2	0	0	0	0	545	487	1021	0	0	0	
3	0	0	0	0	536	479	1021	0	0	0	
4	0	0	0	0	524	468	1021	0	0	0	
5	0	0	0	0	511	458	1021	0	0	0	
6	0	0	0	0	499	449	1021	0	0	0	
7	0	0	0	0	488	440	1021	0	0	0	
8	0	0	0	0	480	435	1021	0	0	0	
9	0	0	0	0	476	432	1021	0	0	0	
10	0	0	0	0	474	433	1021	0	0	0	
11	0	0	0	0	476	436	1021	0	0	0	
12	0	0	0	0	482	441	1021	0	0	0	
13	0	0	0	0	490	449	1021	0	0	0	
14	0	0	0	0	500	456	1021	0	0	0	
15	0	0	0	0	511	465	1021	0	0	0	
0	0	0	0	0	521	472	1021	0	0	0	
1	0	0	0	0	531	479	1021	0	0	0	
2	0	0	0	0	539	484	1021	0	0	0	
3	0	0	0	0	545	487	1021	0	0	0	
4	0	0	0	0	548	487	1021	0	0	0	
5	0	0	0	0	548	486	1021	0	0	0	
6	0	0	0	0	545	482	1021	0	0	0	
7	0	0	0	0	540	478	1021	0	0	0	
8	0	0	0	0	533	472	1021	0	0	0	
9	0	0	0	0	524	465	1021	0	0	0	
10	0	0	0	0	515	459	1021	0	0	0	
11	0	0	0	0	507	454	1021	0	0	0	
12	0	0	0	0	501	449	1021	0	0	0	
13	0	0	0	0	496	448	1021	0	0	0	
14	0	0	0	0	495	448	1021	0	0	0	
15	0	0	0	0	497	452	1021	0	0	0	
0	0	0	0	0	502	457	1021	0	0	0	
1	0	0	0	0	509	465	1021	0	0	0	
2	0	0	0	0	518	473	1021	0	0	0	
3	0	0	0	0	528	481	1021	0	0	0	
4	0	0	0	0	538	491	1021	0	0	0	
5	0	0	0	0	548	497	1021	0	0	0	
6	0	0	0	0	556	504	1021	0	0	0	
7	0	0	0	0	562	508	1021	0	0	0	
8	0	0	0	0	566	510	1021	0	0	0	
9	0	0	0	0	568	510	1021	0	0	0	
10	0	0	0	0	566	508	1020	0	0	0	
11	0	0	0	0	563	504	1021	0	0	0	
12	0	0	0	0	558	499	1021	0	0	0	
13	0	0	0	0	551	494	1021	0	0	0	
14	0	0	0	0	543	486	1021	0	0	0	
15	0	0	0	0	535	480	1021	0	0	0	
0	0	0	0	0	527	472	1021	0	0	0	
1	0	0	0	0	519	467	1021	0	0	0	
2	0	0	0	0	513	462	1021	0	0	0	
3	0	0	0	0	509	458	1021	0	0	0	
4	0	0	0	0	506	457	1021	0	0	0	
5	0	0	0	0	505	457	1021	0	0	0	
6	0	0	0	0	505	458	1021	0	0	0	
7	0	0	0	0	507	460	1021	0	0	0	
8	0	0	0	0	510	463	1021	0	0	0	
9	0	0	0	0	512	463	1021	0	0	0	
10	0	0	0	0	513	464	1021	0	0	0	
11	0	0	0	0	512	463	1021	0	0	0	
12	0	0	0	0	509	460	1021	0	0	0	
13	0	0	0	0	505	455	1021	0	0	0	
14	0	0	0	0	498	449	1021	0	0	0	
15	0	0	0	0	493	444	1021	0	0	0	
0	0	0	0	0	487	438	1021	0	0	0	
1	0	0	0	0	481	433	1021	0	0	0	
2	0	0	0	0	478	429	1021	0	0	0	
3	0	0	0	0	476	426	1021	0	0	0	
4	0	0	0	0	476	427	1021	0	0	0	
5	0	0	0	0	479	429	1021	0	0	0	
6	0	0	0	0	484	433	1021	0	0	0	
7	0	0	0	0	492	440	1021	0	0	0	
8	0	0	0	0	499	448	1021	0	0	0	
9	0	0	0	0	510	456	1021	0	0	0	
10	0	0	0	0	519	465	1021	0	0	0	
11	0	0	0	0	529	474	1021	0	0	0	
12	0	0	0	0	538	483	1021	0	0	0	
13	0	0	0	0	544	489	1021	0	0	0	
14	0	0	0	0	551	495	1021	0	0	0	
15	0	0	0	0	554	498	1021	0	0	0	
0	0	0	0	0	555	500	1021	0	0	0	
1	0	0	0	0	554	499	1021	0	0	0	
2	0	0	0	0	551	496	1021	0	0	0	
3	0	0	0	0	547	493	1021	0	0	0	
4	0	0	0	0	540	487	1021	0	0	0	
5	0	0	0	0	531	479	1021	0	0	0	
6	0	0	0	0	522	470	1021	0	0	0	
7	0	0	0	0	513	462	1021	0	0	0	
8	0	0	0	0	505	455	1021	0	0	0	
9	0	0	0	0	500	450	1021	0	0	0	
10	0	0	0	0	499	449	1021	0	0	0	
11	0	0	0	0	501	450	1021	0	0	0	
12	0	0	0	0	507	455	1021	0	0	0	
13	0	0	0	0	516	463	1021	0	0	0	
14	0	0	0	0	528	473	1021	0	0	0	
15	0	0	0	0	540	483	1021	0	0	0	
0	0	0	0	0	552	494	1020	0	0	0	
1	0	0	0	0	563	502	1021	0	0	0	
2	0	0	0	0	572	510	1021	0	0	0	
3	0	0	0	0	578	514	1021	0	0	0	
4	0	0	0	0	579	515	1021	0	0	0	
5	0	0	0	0	577	513	1021	0	0	0	
6	0	0	0	0	571	507	1021	0	0	0	
7	0	0	0	0	561	500	1021	0	0	0	
8	0	0	0	0	549	489	1021	0	0	0	
9	0	0	0	0	536	479	1021	0	0	0	
10	0	0	0	0	522	468	1021	0	0	0	
11	0	0	0	0	510	459	1021	0	0	0	
12	0	0	0	0	502	452	1021	0	0	0	
13	0	0	0	0	496	448	1021	0	0	0	
14	0	0	0	0	495	446	1021	0	0	0	
15	0	0	0	0	497	448	1021	0	0	0	
0	0	0	0	0	501	452	1021	0	0	0	
1	0	0	0	0	508	457	1021	0	0	0	
2	0	0	0	0	516	463	1021	0	0	0	
3	0	0	0	0	523	468	1021	0	0	0	
4	0	0	0	0	529	472	1021	0	0	0	
5	0	0	0	0	533	476	1021	0	0	0	
6	0	0	0	0	536	477	1021	0	0	0	
7	0	0	0	0	536	476	1021	0	0	0	
8	0	0	0	0	533	473	1021	0	0	0	
9	0	0	0	0	528	469	1021	0	0	0	
10	0	0	0	0	523	465	1021	0	0	0	
11	0	0	0	0	519	460	1021	0	0	0	
12	0	0	0	0	514	457	1021	0	0	0	
13	0	0	0	0	512	455	1021	0	0	0	
14	0	0	0	0	511	452	1021	0	0	0	
15	0	0	0	0	511	453	1021	0	0	0	
0	0	0	0	0	513	455	1021	0	0	0	
1	0	0	0	0	517	458	1021	0	0	0	
2	0	0	0	0	522	462	1021	0	0	0	
3	0	0	0	0	528	468	1021	0	0	0	
4	0	0	0	0	535	474	1021	0	0	0	
5	0	0	0	0	541	480	1021	0	0	0	
6	0	0	0	0	545	485	1021	0	0	0	
7	0	0	0	0	549	488	1021	0	0	0	
8	0	0	0	0	549	490	1020	0	0	0	
9	0	0	0	0	550	491	1021	0	0	0	
10	0	0	0	0	548	491	1021	0	0	0	
11	0	0	0	0	545	489	1021	0	0	0	
12	0	0	0	0	542	487	1021	0	0	0	
13	0	0	0	0	538	483	1020	0	0	0	
14	0	0	0	0	534	479	1021	0	0	0	
15	0	0	0	0	528	473	1021	0	0	0	
0	0	0	0	0	522	467	1021	0	0	0	
1	0	0	0	0	514	459	1021	0	0	0	
2	0	0	0	0	505	450	1021	0	0	0	
3	0	0	0	0	494	439	1021	0	0	0	
4	0	0	0	0	483	429	1021	0	0	0	
5	0	0	0	0	471	418	1021	0	0	0	
6	0	0	0	0	459	408	1021	0	0	0	
7	0	0	0	0	448	398	1021	0	0	0	
8	0	0	0	0	437	390	1021	0	0	0	
9	0	0	0	0	428	382	1021	0	0	0	
10	0	0	0	0	420	376	1021	0	0	0	
11	0	0	0	0	412	369	1021	0	0	0	
12	0	0	0	0	404	362	1021	0	0	0	
13	0	0	0	0	396	355	1021	0	0	0	
14	0	0	0	0	388	347	1021	0	0	0	
15	0	0	0	0	378	337	1021	0	0	0	
0	0	0	0	0	368	325	1021	0	0	0	
1	0	0	0	0	356	312	1021	0	0	0	
2	0	0	0	0	343	298	1020	0	0	0	
3	0	0	0	0	329	283	1021	0	0	0	
4	0	0	0	0	317	268	1021	0	0	0	
5	0	0	0	0	304	255	1021	0	0	0	
6	0	0	0	0	295	242	1021	0	0	0	
7	0	0	0	0	287	234	1021	0	0	0	
8	0	0	0	0	284	228	1021	0	0	0	
9	0	0	0	0	285	227	1021	0	0	0	
10	0	0	0	0	290	230	1021	0	0	0	
11	0	0	0	0	300	237	1021	0	0	0	
12	0	0	0	0	313	248	1021	0	0	0	
13	0	0	0	0	332	264	1021	0	0	0	
14	0	0	0	0	352	283	1021	0	0	0	
15	0	0	0	0	376	304	1021	0	0	0	
0	0	0	0	0	401	327	1021	0	0	0	
1	0	0	0	0	425	350	1020	0	0	0	
2	0	0	0	0	451	374	1021	0	0	0	
3	0	0	0	0	474	396	1021	0	0	0	
4	0	0	0	0	496	418	1021	0	0	0	
5	0	0	0	0	516	437	1021	0	0	0	
6	0	0	0	0	532	454	1021	0	0	0	
7	0	0	0	0	546	467	1021	0	0	0	
8	0	0	0	0	556	477	1021	0	0	0	
9	0	0	0	0	563	485	1021	0	0	0	
10	0	0	0	0	567	490	1021	0	0	0	
11	0	0	0	0	569	494	1021	0	0	0	
12	0	0	0	0	569	495	1021	0	0	0	
13	0	0	0	0	568	496	1021	0	0	0	
14	0	0	0	0	567	496	1021	0	0	0	
15	0	0	0	0	563	495	1021	0	0	0	
0	0	0	0	0	560	494	1021	0	0	0	
1	0	0	0	0	556	492	1021	0	0	0	
2	0	0	0	0	552	491	1021	0	0	0	
3	0	0	0	0	548	489	1021	0	0	0	
4	0	0	0	0	544	487	1021	0	0	0	
5	0	0	0	0	540	485	1021	0	0	0	
6	0	0	0	0	536	483	1021	0	0	0	
7	0	0	0	0	533	480	1021	0	0	0	
8	0	0	0	0	529	477	1021	0	0	0	
9	0	0	0	0	526	473	1021	0	0	0	
10	0	0	0	0	524	470	1021	0	0	0	
11	0	0	0	0	521	467	1021	0	0	0	
12	0	0	0	0	520	464	1021	0	0	0	
13	0	0	0	0	519	462	1021	0	0	0	
14	0	0	0	0	521	460	1021	0	0	0	
15	0	0	0	0	524	462	1021	0	0	0	
0	0	0	0	0	529	465	1021	0	0	0	
1	0	0	0	0	536	471	1021	0	0	0	
2	0	0	0	0	544	478	1021	0	0	0	
3	0	0	0	0	552	485	1021	0	0	0	
4	0	0	0	0	560	494	1021	0	0	0	
5	0	0	0	0	568	501	1021	0	0	0	
6	0	0	0	0	574	508	1021	0	0	0	
7	0	0	0	0	578	514	1021	0	0	0	
8	0	0	0	0	580	518	1021	0	0	0	
9	0	0	0	0	580	521	1021	0	0	0	
10	0	0	0	0	578	520	1021	0	0	0	
11	0	0	0	0	572	516	1021	0	0	0	
12	0	0	0	0	565	511	1021	0	0	0	
13	0	0	0	0	556	502	1021	0	0	0	
14	0	0	0	0	544	493	1021	0	0	0	
15	0	0	0	0	533	482	1021	0	0	0	
0	0	0	0	0	522	472	1021	0	0	0	
1	0	0	0	0	512	462	1021	0	0	0	
2	0	0	0	0	504	454	1021	0	0	0	
3	0	0	0	0	498	448	1021	0	0	0	
4	0	0	0	0	496	445	1021	0	0	0	
5	0	0	0	0	498	445	1021	0	0	0	
6	0	0	0	0	503	448	1021	0	0	0	
7	0	0	0	0	510	454	1021	0	0	0	
8	0	0	0	0	519	461	1021	0	0	0	
9	0	0	0	0	530	470	1021	0	0	0	
10	0	0	0	0	541	480	1021	0	0	0	
11	0	0	0	0	551	488	1021	0	0	0	
12	0	0	0	0	559	496	1020	0	0	0	
13	0	0	0	0	566	502	1021	0	0	0	
14	0	0	0	0	571	507	1021	0	0	0	
15	0	0	0	0	573	510	1021	0	0	0	
0	0	0	0	0	573	511	1021	0	0	0	
1	0	0	0	0	570	510	1021	0	0	0	
2	0	0	0	0	567	508	1021	0	0	0	
3	0	0	0	0	563	506	1021	0	0	0	
4	0	0	0	0	560	504	1021	0	0	0	
5	0	0	0	0	557	501	1021	0	0	0	
6	0	0	0	0	553	498	1020	0	0	0	
7	0	0	0	0	551	496	1021	0	0	0	
8	0	0	0	0	550	495	1021	0	0	0	
9	0	0	0	0	550	496	1021	0	0	0	
10	0	0	0	0	552	498	1021	0	0	0	
11	0	0	0	0	556	501	1021	0	0	0	
12	0	0	0	0	560	505	1021	0	0	0	
13	0	0	0	0	566	511	1021	0	0	0	
14	0	0	0	0	572	518	1021	0	0	0	
15	0	0	0	0	578	523	1021	0	0	0	
0	0	0	0	0	582	527	1021	0	0	0	
1	0	0	0	0	587	532	1021	0	0	0	
2	0	0	0	0	588	534	1021	0	0	0	
3	0	0	0	0	588	534	1021	0	0	0	
4	0	0	0	0	583	530	1021	0	0	0	
5	0	0	0	0	577	524	1021	0	0	0	
6	0	0	0	0	566	513	1021	0	0	0	
7	0	0	0	0	553	502	1021	0	0	0	
8	0	0	0	0	539	489	1021	0	0	0	
9	0	0	0	0	525	476	1021	0	0	0	
10	0	0	0	0	512	463	1021	0	0	0	
11	0	0	0	0	501	453	1021	0	0	0	
12	0	0	0	0	493	447	1021	0	0	0	
13	0	0	0	0	490	443	1021	0	0	0	
14	0	0	0	0	491	443	1021	0	0	0	
15	0	0	0	0	495	446	1021	0	0	0	
0	0	0	0	0	503	452	1020	0	0	0	
1	0	0	0	0	513	460	1021	0	0	0	
2	0	0	0	0	526	471	1021	0	0	0	
3	0	0	0	0	540	482	1021	0	0	0	
4	0	0	0	0	554	493	1021	0	0	0	
5	0	0	0	0	566	502	1021	0	0	0	
6	0	0	0	0	577	511	1021	0	0	0	
7	0	0	0	0	583	516	1021	0	0	0	
8	0	0	0	0	587	519	1021	0	0	0	
9	0	0	0	0	586	518	1021	0	0	0	
10	0	0	0	0	581	515	1021	0	0	0	
11	0	0	0	0	575	510	1021	0	0	0	
12	0	0	0	0	567	504	1021	0	0	0	
13	0	0	0	0	558	499	1021	0	0	0	
14	0	0	0	0	550	492	1021	0	0	0	
15	0	0	0	0	542	487	1021	0	0	0	
0	0	0	0	0	536	482	1021	0	0	0	
1	0	0	0	0	532	480	1021	0	0	0	
2	0	0	0	0	531	479	1021	0	0	0	
3	0	0	0	0	532	479	1021	0	0	0	
4	0	0	0	0	534	479	1021	0	0	0	
5	0	0	0	0	537	481	1021	0	0	0	
6	0	0	0	0	540	483	1021	0	0	0	
7	0	0	0	0	543	486	1021	0	0	0	
8	0	0	0	0	546	488	1021	0	0	0	
9	0	0	0	0	549	490	1021	0	0	0	
10	0	0	0	0	551	492	1021	0	0	0	
11	0	0	0	0	552	492	1021	0	0	0	
12	0	0	0	0	552	492	1021	0	0	0	
13	0	0	0	0	551	489	1021	0	0	0	
14	0	0	0	0	546	486	1021	0	0	0	
15	0	0	0	0	541	482	1021	0	0	0	
0	0	0	0	0	535	477	1021	0	0	0	
1	0	0	0	0	528	472	1021	0	0	0	
2	0	0	0	0	523	467	1021	0	0	0	
3	0	0	0	0	517	462	1021	0	0	0	
4	0	0	0	0	513	460	1021	0	0	0	
5	0	0	0	0	511	459	1021	0	0	0	
6	0	0	0	0	511	460	1021	0	0	0	
7	0	0	0	0	513	461	1021	0	0	0	
8	0	0	0	0	516	464	1021	0	0	0	
9	0	0	0	0	520	468	1021	0	0	0	
10	0	0	0	0	526	473	1021	0	0	0	
11	0	0	0	0	531	478	1021	0	0	0	
12	0	0	0	0	536	482	1021	0	0	0	
13	0	0	0	0	540	484	1021	0	0	0	
14	0	0	0	0	543	488	1021	0	0	0	
15	0	0	0	0	545	489	1021	0	0	0	
0	0	0	0	0	547	490	1021	0	0	0	
1	0	0	0	0	549	491	1021	0	0	0	
2	0	0	0	0	550	490	1021	0	0	0	
3	0	0	0	0	551	491	1021	0	0	0	
4	0	0	0	0	553	491	1021	0	0	0	
5	0	0	0	0	554	490	1021	0	0	0	
6	0	0	0	0	555	490	1021	0	0	0	
7	0	0	0	0	555	490	1021	0	0	0	
8	0	0	0	0	555	489	1021	0	0	0	
9	0	0	0	0	555	490	1021	0	0	0	
10	0	0	0	0	555	492	1021	0	0	0	
11	0	0	0	0	556	494	1021	0	0	0	
12	0	0	0	0	558	496	1021	0	0	0	
13	0	0	0	0	560	501	1021	0	0	0	
14	0	0	0	0	563	504	1021	0	0	0	
15	0	0	0	0	564	508	1021	0	0	0	
0	0	0	0	0	566	511	1021	0	0	0	
1	0	0	0	0	568	513	1021	0	0	0	
2	0	0	0	0	568	515	1021	0	0	0	
3	0	0	0	0	567	515	1021	0	0	0	
4	0	0	0	0	565	513	1021	0	0	0	
5	0	0	0	0	563	510	1021	0	0	0	
6	0	0	0	0	560	507	1021	0	0	0	
7	0	0	0	0	558	504	1021	0	0	0	
8	0	0	0	0	554	499	1021	0	0	0	
9	0	0	0	0	551	495	1021	0	0	0	
10	0	0	0	0	547	490	1021	0	0	0	
11	0	0	0	0	543	485	1021	0	0	0	
12	0	0	0	0	540	483	1021	0	0	0	
13	0	0	0	0	538	481	1021	0	0	0	
14	0	0	0	0	537	481	1021	0	0	0	
15	0	0	0	0	538	482	1021	0	0	0	
0	0	0	0	0	539	484	1021	0	0	0	
1	0	0	0	0	541	486	1021	0	0	0	
2	0	0	0	0	542	489	1021	0	0	0	
3	0	0	0	0	543	492	1021	0	0	0	
4	0	0	0	0	544	494	1021	0	0	0	
5	0	0	0	0	544	494	1021	0	0	0	
6	0	0	0	0	544	495	1021	0	0	0	
7	0	0	0	0	543	495	1021	0	0	0	
8	0	0	0	0	542	493	1021	0	0	0	
9	0	0	0	0	541	491	1021	0	0	0	
10	0	0	0	0	539	488	1021	0	0	0	
11	0	0	0	0	538	485	1021	0	0	0	
12	0	0	0	0	536	482	1021	0	0	0	
13	0	0	0	0	536	479	1021	0	0	0	
14	0	0	0	0	534	476	1021	0	0	0	
15	0	0	0	0	532	473	1021	0	0	0	
0	0	0	0	0	532	472	1021	0	0	0	
1	0	0	0	0	531	470	1021	0	0	0	
2	0	0	0	0	531	470	1021	0	0	0	
3	0	0	0	0	531	471	1021	0	0	0	
4	0	0	0	0	532	473	1021	0	0	0	
5	0	0	0	0	535	476	1021	0	0	0	
6	0	0	0	0	539	481	1021	0	0	0	
7	0	0	0	0	543	486	1021	0	0	0	
8	0	0	0	0	548	492	1021	0	0	0	
9	0	0	0	0	552	496	1021	0	0	0	
10	0	0	0	0	556	500	1021	0	0	0	
11	0	0	0	0	558	502	1021	0	0	0	
12	0	0	0	0	557	501	1021	0	0	0	
13	0	0	0	0	554	498	1021	0	0	0	
14	0	0	0	0	547	492	1021	0	0	0	
15	0	0	0	0	540	485	1021	0	0	0	
0	0	0	0	0	531	476	1021	0	0	0	
1	0	0	0	0	523	469	1021	0	0	0	
2	0	0	0	0	515	462	1021	0	0	0	
3	0	0	0	0	509	455	1021	0	0	0	
4	0	0	0	0	506	452	1021	0	0	0	
5	0	0	0	0	505	451	1021	0	0	0	
6	0	0	0	0	506	452	1021	0	0	0	
7	0	0	0	0	510	455	1021	0	0	0	
8	0	0	0	0	515	460	1020	0	0	0	
9	0	0	0	0	523	465	1021	0	0	0	
10	0	0	0	0	530	472	1021	0	0	0	
11	0	0	0	0	537	479	1021	0	0	0	
12	0	0	0	0	544	484	1021	0	0	0	
13	0	0	0	0	549	489	1021	0	0	0	
14	0	0	0	0	553	493	1021	0	0	0	
15	0	0	0	0	555	495	1021	0	0	0	
0	0	0	0	0	554	496	1021	0	0	0	
1	0	0	0	0	552	495	1021	0	0	0	
2	0	0	0	0	548	492	1021	0	0	0	
3	0	0	0	0	544	489	1021	0	0	0	
4	0	0	0	0	541	487	1021	0	0	0	
5	0	0	0	0	538	484	1021	0	0	0	
6	0	0	0	0	536	482	1021	0	0	0	
7	0	0	0	0	535	481	1021	0	0	0	
8	0	0	0	0	535	481	1021	0	0	0	
9	0	0	0	0	536	482	1021	0	0	0	
10	0	0	0	0	537	483	1021	0	0	0	
11	0	0	0	0	540	484	1021	0	0	0	
12	0	0	0	0	542	487	1021	0	0	0	
13	0	0	0	0	545	489	1021	0	0	0	
14	0	0	0	0	549	492	1021	0	0	0	
15	0	0	0	0	551	495	1021	0	0	0	
0	0	0	0	0	553	496	1020	0	0	0	
1	0	0	0	0	555	497	1021	0	0	0	
2	0	0	0	0	556	499	1021	0	0	0	
3	0	0	0	0	556	498	1021	0	0	0	
4	0	0	0	0	553	496	1021	0	0	0	
5	0	0	0	0	550	492	1021	0	0	0	
6	0	0	0	0	546	487	1021	0	0	0	
7	0	0	0	0	541	483	1021	0	0	0	
8	0	0	0	0	536	479	1021	0	0	0	
9	0	0	0	0	533	475	1021	0	0	0	
10	0	0	0	0	531	472	1021	0	0	0	
11	0	0	0	0	530	471	1021	0	0	0	
12	0	0	0	0	531	472	1021	0	0	0	
13	0	0	0	0	533	474	1021	0	0	0	
14	0	0	0	0	537	477	1021	0	0	0	
15	0	0	0	0	542	481	1021	0	0	0	
0	0	0	0	0	548	486	1021	0	0	0	
1	0	0	0	0	554	493	1021	0	0	0	
2	0	0	0	0	561	500	1021	0	0	0	
3	0	0	0	0	567	506	1021	0	0	0	
4	0	0	0	0	573	512	1021	0	0	0	
5	0	0	0	0	575	515	1021	0	0	0	
6	0	0	0	0	575	517	1021	0	0	0	
7	0	0	0	0	572	515	1021	0	0	0	
8	0	0	0	0	567	511	1021	0	0	0	
9	0	0	0	0	558	505	1020	0	0	0	
10	0	0	0	0	547	496	1021	0	0	0	
11	0	0	0	0	536	487	1021	0	0	0	
12	0	0	0	0	526	478	1021	0	0	0	
13	0	0	0	0	516	469	1021	0	0	0	
14	0	0	0	0	508	462	1021	0	0	0	
15	0	0	0	0	503	455	1021	0	0	0	
0	0	0	0	0	501	453	1021	0	0	0	
1	0	0	0	0	503	453	1021	0	0	0	
2	0	0	0	0	507	455	1021	0	0	0	
3	0	0	0	0	513	459	1021	0	0	0	
4	0	0	0	0	521	464	1021	0	0	0	
5	0	0	0	0	529	471	1021	0	0	0	
6	0	0	0	0	537	477	1021	0	0	0	
7	0	0	0	0	544	483	1021	0	0	0	
8	0	0	0	0	551	488	1021	0	0	0	
9	0	0	0	0	555	492	1021	0	0	0	
10	0	0	0	0	558	495	1021	0	0	0	
11	0	0	0	0	559	496	1021	0	0	0	
12	0	0	0	0	558	496	1021	0	0	0	
13	0	0	0	0	556	494	1021	0	0	0	
14	0	0	0	0	552	492	1021	0	0	0	
15	0	0	0	0	547	488	1021	0	0	0	
0	0	0	0	0	542	484	1021	0	0	0	
1	0	0	0	0	535	479	1021	0	0	0	
2	0	0	0	0	529	475	1021	0	0	0	
3	0	0	0	0	523	470	1021	0	0	0	
4	0	0	0	0	518	467	1021	0	0	0	
5	0	0	0	0	515	465	1021	0	0	0	
6	0	0	0	0	513	464	1021	0	0	0	
7	0	0	0	0	514	465	1021	0	0	0	
8	0	0	0	0	516	467	1021	0	0	0	
9	0	0	0	0	520	470	1021	0	0	0	
10	0	0	0	0	524	473	1021	0	0	0	
11	0	0	0	0	528	477	1021	0	0	0	
12	0	0	0	0	532	479	1021	0	0	0	
13	0	0	0	0	536	481	1021	0	0	0	
14	0	0	0	0	539	483	1021	0	0	0	
15	0	0	0	0	540	483	1021	0	0	0	
0	0	0	0	0	541	483	1021	0	0	0	
1	0	0	0	0	541	481	1021	0	0	0	
2	0	0	0	0	539	479	1021	0	0	0	
3	0	0	0	0	537	477	1021	0	0	0	
4	0	0	0	0	535	473	1021	0	0	0	
5	0	0	0	0	532	470	1021	0	0	0	
6	0	0	0	0	530	467	1021	0	0	0	
7	0	0	0	0	527	465	1021	0	0	0	
8	0	0	0	0	528	465	1021	0	0	0	
9	0	0	0	0	530	467	1021	0	0	0	
10	0	0	0	0	535	472	1021	0	0	0	
11	0	0	0	0	543	479	1021	0	0	0	
12	0	0	0	0	552	487	1021	0	0	0	
13	0	0	0	0	565	499	1021	0	0	0	
14	0	0	0	0	577	510	1021	0	0	0	
15	0	0	0	0	590	522	1021	0	0	0	
0	0	0	0	0	602	533	1021	0	0	0	
1	0	0	0	0	611	541	1021	0	0	0	
2	0	0	0	0	617	547	1021	0	0	0	
3	0	0	0	0	617	549	1021	0	0	0	
4	0	0	0	0	611	545	1021	0	0	0	
5	0	0	0	0	600	536	1021	0	0	0	
6	0	0	0	0	582	520	1021	0	0	0	
7	0	0	0	0	559	503	1021	0	0	0	
8	0	0	0	0	534	482	1021	0	0	0	
9	0	0	0	0	509	462	1021	0	0	0	
10	0	0	0	0	486	442	1021	0	0	0	
11	0	0	0	0	465	427	1021	0	0	0	
12	0	0	0	0	452	415	1021	0	0	0	
13	0	0	0	0	444	408	1021	0	0	0	
14	0	0	0	0	443	406	1021	0	0	0	
15	0	0	0	0	448	409	1021	0	0	0	
0	0	0	0	0	459	417	1021	0	0	0	
1	0	0	0	0	473	427	1021	0	0	0	
2	0	0	0	0	491	440	1021	0	0	0	
3	0	0	0	0	510	453	1021	0	0	0	
4	0	0	0	0	529	467	1021	0	0	0	
5	0	0	0	0	546	478	1021	0	0	0	
6	0	0	0	0	560	489	1021	0	0	0	
7	0	0	0	0	570	496	1021	0	0	0	
8	0	0	0	0	576	500	1021	0	0	0	
9	0	0	0	0	577	500	1021	0	0	0	
10	0	0	0	0	574	499	1021	0	0	0	
11	0	0	0	0	568	494	1021	0	0	0	
12	0	0	0	0	558	487	1021	0	0	0	
13	0	0	0	0	547	480	1021	0	0	0	
14	0	0	0	0	536	473	1021	0	0	0	
15	0	0	0	0	526	468	1021	0	0	0	
0	0	0	0	0	519	464	1021	0	0	0	
1	0	0	0	0	514	463	1021	0	0	0	
2	0	0	0	0	513	464	1021	0	0	0	
3	0	0	0	0	515	467	1021	0	0	0	
4	0	0	0	0	519	473	1021	0	0	0	
5	0	0	0	0	527	479	1021	0	0	0	
6	0	0	0	0	535	486	1021	0	0	0	
7	0	0	0	0	542	491	1021	0	0	0	
8	0	0	0	0	547	494	1021	0	0	0	
9	0	0	0	0	550	496	1021	0	0	0	
10	0	0	0	0	552	496	1021	0	0	0	
11	0	0	0	0	550	493	1021	0	0	0	
12	0	0	0	0	546	488	1021	0	0	0	
13	0	0	0	0	540	481	1021	0	0	0	
14	0	0	0	0	533	476	1021	0	0	0	
15	0	0	0	0	526	468	1021	0	0	0	
0	0	0	0	0	518	461	1021	0	0	0	
1	0	0	0	0	510	455	1021	0	0	0	
2	0	0	0	0	504	450	1021	0	0	0	
3	0	0	0	0	500	447	1021	0	0	0	
4	0	0	0	0	499	448	1021	0	0	0	
5	0	0	0	0	502	451	1021	0	0	0	
6	0	0	0	0	507	456	1021	0	0	0	
7	0	0	0	0	515	464	1021	0	0	0	
8	0	0	0	0	524	473	1021	0	0	0	
9	0	0	0	0	535	483	1021	0	0	0	
10	0	0	0	0	545	493	1021	0	0	0	
11	0	0	0	0	555	502	1021	0	0	0	
12	0	0	0	0	562	508	1021	0	0	0	
13	0	0	0	0	566	511	1021	0	0	0	
14	0	0	0	0	568	512	1021	0	0	0	
15	0	0	0	0	564	509	1021	0	0	0	
0	0	0	0	0	558	504	1021	0	0	0	
1	0	0	0	0	550	496	1021	0	0	0	
2	0	0	0	0	540	487	1021	0	0	0	
3	0	0	0	0	530	478	1021	0	0	0	
4	0	0	0	0	521	470	1021	0	0	0	
5	0	0	0	0	513	463	1021	0	0	0	
6	0	0	0	0	508	457	1021	0	0	0	
7	0	0	0	0	505	455	1020	0	0	0	
8	0	0	0	0	506	455	1021	0	0	0	
9	0	0	0	0	510	459	1021	0	0	0	
10	0	0	0	0	516	463	1021	0	0	0	
11	0	0	0	0	524	471	1020	0	0	0	
12	0	0	0	0	534	478	1021	0	0	0	
13	0	0	0	0	542	486	1021	0	0	0	
14	0	0	0	0	551	492	1021	0	0	0	
15	0	0	0	0	557	498	1021	0	0	0	
0	0	0	0	0	561	501	1021	0	0	0	
1	0	0	0	0	563	503	1021	0	0	0	
2	0	0	0	0	562	503	1021	0	0	0	
3	0	0	0	0	559	500	1021	0	0	0	
4	0	0	0	0	553	496	1021	0	0	0	
5	0	0	0	0	543	488	1021	0	0	0	
6	0	0	0	0	535	481	1021	0	0	0	
7	0	0	0	0	524	472	1021	0	0	0	
8	0	0	0	0	514	464	1021	0	0	0	
9	0	0	0	0	504	456	1021	0	0	0	
10	0	0	0	0	496	449	1021	0	0	0	
11	0	0	0	0	492	445	1021	0	0	0	
12	0	0	0	0	491	444	1021	0	0	0	
13	0	0	0	0	495	448	1021	0	0	0	
14	0	0	0	0	503	454	1021	0	0	0	
15	0	0	0	0	513	463	1021	0	0	0	
0	0	0	0	0	527	475	1020	0	0	0	
1	0	0	0	0	543	488	1021	0	0	0	
2	0	0	0	0	560	502	1021	0	0	0	
3	0	0	0	0	574	514	1021	0	0	0	
4	0	0	0	0	586	524	1021	0	0	0	
5	0	0	0	0	594	529	1021	0	0	0	
6	0	0	0	0	597	532	1021	0	0	0	
7	0	0	0	0	594	529	1021	0	0	0	
8	0	0	0	0	585	521	1021	0	0	0	
9	0	0	0	0	571	510	1021	0	0	0	
10	0	0	0	0	553	496	1021	0	0	0	
11	0	0	0	0	535	481	1021	0	0	0	
12	0	0	0	0	515	466	1021	0	0	0	
13	0	0	0	0	499	453	1021	0	0	0	
14	0	0	0	0	485	442	1021	0	0	0	
15	0	0	0	0	476	435	1021	0	0	0	
0	0	0	0	0	474	433	1021	0	0	0	
1	0	0	0	0	476	435	1021	0	0	0	
2	0	0	0	0	483	441	1021	0	0	0	
3	0	0	0	0	494	450	1021	0	0	0	
4	0	0	0	0	509	461	1021	0	0	0	
5	0	0	0	0	525	474	1021	0	0	0	
6	0	0	0	0	542	487	1021	0	0	0	
7	0	0	0	0	557	499	1021	0	0	0	
8	0	0	0	0	571	509	1021	0	0	0	
9	0	0	0	0	579	515	1021	0	0	0	
10	0	0	0	0	585	520	1021	0	0	0	
11	0	0	0	0	585	520	1021	0	0	0	
12	0	0	0	0	580	516	1021	0	0	0	
13	0	0	0	0	571	509	1021	0	0	0	
14	0	0	0	0	558	499	1021	0	0	0	
15	0	0	0	0	542	488	1021	0	0	0	
0	0	0	0	0	526	476	1021	0	0	0	
1	0	0	0	0	510	463	1021	0	0	0	
2	0	0	0	0	496	454	1021	0	0	0	
3	0	0	0	0	484	444	1021	0	0	0	
4	0	0	0	0	476	439	1021	0	0	0	
5	0	0	0	0	472	436	1021	0	0	0	
6	0	0	0	0	473	436	1021	0	0	0	
7	0	0	0	0	478	439	1021	0	0	0	
8	0	0	0	0	485	444	1021	0	0	0	
9	0	0	0	0	496	452	1021	0	0	0	
10	0	0	0	0	508	461	1021	0	0	0	
11	0	0	0	0	520	470	1021	0	0	0	
12	0	0	0	0	532	478	1021	0	0	0	
13	0	0	0	0	542	484	1021	0	0	0	
14	0	0	0	0	549	489	1021	0	0	0	
15	0	0	0	0	553	492	1021	0	0	0	
0	0	0	0	0	553	491	1021	0	0	0	
1	0	0	0	0	550	488	1021	0	0	0	
2	0	0	0	0	544	483	1021	0	0	0	
3	0	0	0	0	536	478	1021	0	0	0	
4	0	0	0	0	528	472	1021	0	0	0	
5	0	0	0	0	520	466	1021	0	0	0	
6	0	0	0	0	513	461	1021	0	0	0	
7	0	0	0	0	508	457	1020	0	0	0	
8	0	0	0	0	507	457	1021	0	0	0	
9	0	0	0	0	507	458	1021	0	0	0	
10	0	0	0	0	510	462	1021	0	0	0	
11	0	0	0	0	516	467	1021	0	0	0	
12	0	0	0	0	524	473	1020	0	0	0	
13	0	0	0	0	533	481	1021	0	0	0	
14	0	0	0	0	542	490	1021	0	0	0	
15	0	0	0	0	551	497	1021	0	0	0	
0	0	0	0	0	558	504	1021	0	0	0	
1	0	0	0	0	563	508	1021	0	0	0	
2	0	0	0	0	566	512	1021	0	0	0	
3	0	0	0	0	566	512	1021	0	0	0	
4	0	0	0	0	563	509	1021	0	0	0	
5	0	0	0	0	556	502	1021	0	0	0	
6	0	0	0	0	546	492	1021	0	0	0	
7	0	0	0	0	534	480	1021	0	0	0	
8	0	0	0	0	519	467	1021	0	0	0	
9	0	0	0	0	504	453	1021	0	0	0	
10	0	0	0	0	489	440	1021	0	0	0	
11	0	0	0	0	478	430	1021	0	0	0	
12	0	0	0	0	469	423	1021	0	0	0	
13	0	0	0	0	465	419	1021	0	0	0	
14	0	0	0	0	466	421	1021	0	0	0	
15	0	0	0	0	472	425	1021	0	0	0	
0	0	0	0	0	481	433	1021	0	0	0	
1	0	0	0	0	494	443	1021	0	0	0	
2	0	0	0	0	506	453	1021	0	0	0	
3	0	0	0	0	519	463	1021	0	0	0	
4	0	0	0	0	529	471	1021	0	0	0	
5	0	0	0	0	537	476	1021	0	0	0	
6	0	0	0	0	543	480	1021	0	0	0	
7	0	0	0	0	545	482	1021	0	0	0	
8	0	0	0	0	544	480	1021	0	0	0	
9	0	0	0	0	540	477	1021	0	0	0	
10	0	0	0	0	534	472	1021	0	0	0	
11	0	0	0	0	528	466	1021	0	0	0	
12	0	0	0	0	521	461	1021	0	0	0	
13	0	0	0	0	515	456	1021	0	0	0	
14	0	0	0	0	510	452	1021	0	0	0	
15	0	0	0	0	507	451	1021	0	0	0	
0	0	0	0	0	506	451	1021	0	0	0	
1	0	0	0	0	508	453	1021	0	0	0	
2	0	0	0	0	511	457	1021	0	0	0	
3	0	0	0	0	517	463	1021	0	0	0	
4	0	0	0	0	524	469	1021	0	0	0	
5	0	0	0	0	531	476	1021	0	0	0	
6	0	0	0	0	537	481	1021	0	0	0	
7	0	0	0	0	542	486	1021	0	0	0	
8	0	0	0	0	545	488	1021	0	0	0	
9	0	0	0	0	546	488	1021	0	0	0	
10	0	0	0	0	544	487	1021	0	0	0	
11	0	0	0	0	540	484	1021	0	0	0	
12	0	0	0	0	534	479	1021	0	0	0	
13	0	0	0	0	526	472	1021	0	0	0	
14	0	0	0	0	516	464	1021	0	0	0	
15	0	0	0	0	507	455	1021	0	0	0	
0	0	0	0	0	498	448	1021	0	0	0	
1	0	0	0	0	491	441	1021	0	0	0	
2	0	0	0	0	486	436	1021	0	0	0	
3	0	0	0	0	483	433	1021	0	0	0	
4	0	0	0	0	484	433	1021	0	0	0	
5	0	0	0	0	487	436	1021	0	0	0	
6	0	0	0	0	495	442	1021	0	0	0	
7	0	0	0	0	505	451	1021	0	0	0	
8	0	0	0	0	516	461	1021	0	0	0	
9	0	0	0	0	530	472	1021	0	0	0	
10	0	0	0	0	543	483	1021	0	0	0	
11	0	0	0	0	553	492	1021	0	0	0	
12	0	0	0	0	562	499	1021	0	0	0	
13	0	0	0	0	566	504	1021	0	0	0	
14	0	0	0	0	567	505	1021	0	0	0	
15	0	0	0	0	563	503	1021	0	0	0	
0	0	0	0	0	555	497	1021	0	0	0	
1	0	0	0	0	545	489	1021	0	0	0	
2	0	0	0	0	534	480	1021	0	0	0	
3	0	0	0	0	521	471	1021	0	0	0	
4	0	0	0	0	509	462	1021	0	0	0	
5	0	0	0	0	499	453	1021	0	0	0	
6	0	0	0	0	491	446	1021	0	0	0	
7	0	0	0	0	486	441	1021	0	0	0	
8	0	0	0	0	484	439	1021	0	0	0	
9	0	0	0	0	486	439	1021	0	0	0	
10	0	0	0	0	491	442	1021	0	0	0	
11	0	0	0	0	499	448	1021	0	0	0	
12	0	0	0	0	511	457	1021	0	0	0	
13	0	0	0	0	524	468	1021	0	0	0	
14	0	0	0	0	538	480	1021	0	0	0	
15	0	0	0	0	553	493	1021	0	0	0	
0	0	0	0	0	568	506	1021	0	0	0	
1	0	0	0	0	582	517	1021	0	0	0	
2	0	0	0	0	591	526	1021	0	0	0	
3	0	0	0	0	596	531	1021	0	0	0	
4	0	0	0	0	596	531	1021	0	0	0	
5	0	0	0	0	592	528	1021	0	0	0	
6	0	0	0	0	582	521	1021	0	0	0	
7	0	0	0	0	571	511	1021	0	0	0	
8	0	0	0	0	556	499	1021	0	0	0	
9	0	0	0	0	541	487	1021	0	0	0	
10	0	0	0	0	526	475	1021	0	0	0	
11	0	0	0	0	511	463	1021	0	0	0	
12	0	0	0	0	498	453	1021	0	0	0	
13	0	0	0	0	487	444	1021	0	0	0	
14	0	0	0	0	479	437	1021	0	0	0	
15	0	0	0	0	472	431	1021	0	0	0	
0	0	0	0	0	467	426	1021	0	0	0	
1	0	0	0	0	464	422	1021	0	0	0	
2	0	0	0	0	462	419	1021	0	0	0	
3	0	0	0	0	460	416	1021	0	0	0	
4	0	0	0	0	460	414	1021	0	0	0	
5	0	0	0	0	459	412	1020	0	0	0	
6	0	0	0	0	459	408	1021	0	0	0	
7	0	0	0	0	456	405	1021	0	0	0	
8	0	0	0	0	451	399	1021	0	0	0	
9	0	0	0	0	445	390	1021	0	0	0	
10	0	0	0	0	434	379	1021	0	0	0	
11	0	0	0	0	421	365	1021	0	0	0	
12	0	0	0	0	405	349	1021	0	0	0	
13	0	0	0	0	386	331	1021	0	0	0	
14	0	0	0	0	366	312	1021	0	0	0	
15	0	0	0	0	344	292	1021	0	0	0	
0	0	0	0	0	322	273	1021	0	0	0	
1	0	0	0	0	302	255	1021	0	0	0	
2	0	0	0	0	283	239	1021	0	0	0	
3	0	0	0	0	267	225	1021	0	0	0	
4	0	0	0	0	253	214	1021	0	0	0	
5	0	0	0	0	244	206	1021	0	0	0	
6	0	0	0	0	240	203	1021	0	0	0	
7	0	0	0	0	242	203	1021	0	0	0	
8	0	0	0	0	249	208	1021	0	0	0	
9	0	0	0	0	263	218	1021	0	0	0	
10	0	0	0	0	281	231	1021	0	0	0	
11	0	0	0	0	302	247	1021	0	0	0	
12	0	0	0	0	327	266	1021	0	0	0	
13	0	0	0	0	355	285	1021	0	0	0	
14	0	0	0	0	381	305	1020	0	0	0	
15	0	0	0	0	408	327	1021	0	0	0	
0	0	0	0	0	433	347	1021	0	0	0	
1	0	0	0	0	456	368	1021	0	0	0	
2	0	0	0	0	478	388	1021	0	0	0	
3	0	0	0	0	496	407	1021	0	0	0	
4	0	0	0	0	514	426	1021	0	0	0	
5	0	0	0	0	530	444	1021	0	0	0	
6	0	0	0	0	543	461	1021	0	0	0	
7	0	0	0	0	555	477	1021	0	0	0	
8	0	0	0	0	564	492	1021	0	0	0	
9	0	0	0	0	572	504	1021	0	0	0	
10	0	0	0	0	577	513	1021	0	0	0	
11	0	0	0	0	579	519	1021	0	0	0	
12	0	0	0	0	580	524	1021	0	0	0	
13	0	0	0	0	579	525	1021	0	0	0	
14	0	0	0	0	575	525	1021	0	0	0	
15	0	0	0	0	571	522	1021	0	0	0	
0	0	0	0	0	564	517	1021	0	0	0	
1	0	0	0	0	558	511	1021	0	0	0	
2	0	0	0	0	551	502	1021	0	0	0	
3	0	0	0	0	543	494	1021	0	0	0	
4	0	0	0	0	535	485	1021	0	0	0	
5	0	0	0	0	527	477	1021	0	0	0	
6	0	0	0	0	520	469	1021	0	0	0	
7	0	0	0	0	513	462	1021	0	0	0	
8	0	0	0	0	510	457	1021	0	0	0	
9	0	0	0	0	507	455	1021	0	0	0	
10	0	0	0	0	506	454	1021	0	0	0	
11	0	0	0	0	508	456	1021	0	0	0	
12	0	0	0	0	512	460	1021	0	0	0	
13	0	0	0	0	519	466	1021	0	0	0	
14	0	0	0	0	527	473	1021	0	0	0	
15	0	0	0	0	536	481	1021	0	0	0	
0	0	0	0	0	544	488	1021	0	0	0	
1	0	0	0	0	552	494	1021	0	0	0	
2	0	0	0	0	558	499	1021	0	0	0	
3	0	0	0	0	562	501	1021	0	0	0	
4	0	0	0	0	564	502	1021	0	0	0	
5	0	0	0	0	566	501	1021	0	0	0	
6	0	0	0	0	564	498	1021	0	0	0	
7	0	0	0	0	561	495	1021	0	0	0	
8	0	0	0	0	557	491	1021	0	0	0	
9	0	0	0	0	551	484	1021	0	0	0	
10	0	0	0	0	544	477	1021	0	0	0	
11	0	0	0	0	537	471	1021	0	0	0	
12	0	0	0	0	529	465	1021	0	0	0	
13	0	0	0	0	523	460	1021	0	0	0	
14	0	0	0	0	519	458	1021	0	0	0	
15	0	0	0	0	516	457	1021	0	0	0	
0	0	0	0	0	517	460	1021	0	0	0	
1	0	0	0	0	521	464	1021	0	0	0	
2	0	0	0	0	527	471	1021	0	0	0	
3	0	0	0	0	537	480	1021	0	0	0	
4	0	0	0	0	548	490	1021	0	0	0	
5	0	0	0	0	560	499	1021	0	0	0	
6	0	0	0	0	571	509	1021	0	0	0	
7	0	0	0	0	580	517	1021	0	0	0	
8	0	0	0	0	588	523	1021	0	0	0	
9	0	0	0	0	591	525	1021	0	0	0	
10	0	0	0	0	590	524	1021	0	0	0	
11	0	0	0	0	584	519	1021	0	0	0	
12	0	0	0	0	575	511	1021	0	0	0	
13	0	0	0	0	562	500	1021	0	0	0	
14	0	0	0	0	547	488	1021	0	0	0	
15	0	0	0	0	534	478	1021	0	0	0	
0	0	0	0	0	521	469	1021	0	0	0	
1	0	0	0	0	511	462	1021	0	0	0	
2	0	0	0	0	504	457	1021	0	0	0	
3	0	0	0	0	500	456	1021	0	0	0	
4	0	0	0	0	499	455	1021	0	0	0	
5	0	0	0	0	500	457	1021	0	0	0	
6	0	0	0	0	504	460	1021	0	0	0	
7	0	0	0	0	508	464	1021	0	0	0	
8	0	0	0	0	514	467	1021	0	0	0	
9	0	0	0	0	519	471	1021	0	0	0	
10	0	0	0	0	524	474	1021	0	0	0	
11	0	0	0	0	528	476	1021	0	0	0	
12	0	0	0	0	531	476	1021	0	0	0	
13	0	0	0	0	532	476	1021	0	0	0	
14	0	0	0	0	534	476	1021	0	0	0	
15	0	0	0	0	534	475	1021	0	0	0	
0	0	0	0	0	534	475	1021	0	0	0	
1	0	0	0	0	534	475	1021	0	0	0	
2	0	0	0	0	536	476	1021	0	0	0	
3	0	0	0	0	539	479	1021	0	0	0	
4	0	0	0	0	543	483	1021	0	0	0	
5	0	0	0	0	548	487	1021	0	0	0	
6	0	0	0	0	553	492	1021	0	0	0	
7	0	0	0	0	558	496	1021	0	0	0	
8	0	0	0	0	560	499	1021	0	0	0	
9	0	0	0	0	561	500	1021	0	0	0	
10	0	0	0	0	560	500	1021	0	0	0	
11	0	0	0	0	557	498	1021	0	0	0	
12	0	0	0	0	553	495	1021	0	0	0	
13	0	0	0	0	546	491	1020	0	0	0	
14	0	0	0	0	540	486	1021	0	0	0	
15	0	0	0	0	532	479	1021	0	0	0	
0	0	0	0	0	525	472	1021	0	0	0	
1	0	0	0	0	518	467	1021	0	0	0	
2	0	0	0	0	511	460	1021	0	0	0	
3	0	0	0	0	505	456	1021	0	0	0	
4	0	0	0	0	502	453	1021	0	0	0	
5	0	0	0	0	500	451	1021	0	0	0	
6	0	0	0	0	501	451	1021	0	0	0	
7	0	0	0	0	504	454	1020	0	0	0	
8	0	0	0	0	511	458	1021	0	0	0	
9	0	0	0	0	519	464	1021	0	0	0	
10	0	0	0	0	528	472	1021	0	0	0	
11	0	0	0	0	537	479	1021	0	0	0	
12	0	0	0	0	545	485	1021	0	0	0	
13	0	0	0	0	551	490	1021	0	0	0	
14	0	0	0	0	554	492	1021	0	0	0	
15	0	0	0	0	554	493	1021	0	0	0	
0	0	0	0	0	552	492	1021	0	0	0	
1	0	0	0	0	547	489	1021	0	0	0	
2	0	0	0	0	543	486	1021	0	0	0	
3	0	0	0	0	537	482	1021	0	0	0	
4	0	0	0	0	531	477	1021	0	0	0	
5	0	0	0	0	525	471	1021	0	0	0	
6	0	0	0	0	519	467	1021	0	0	0	
7	0	0	0	0	515	462	1021	0	0	0	
8	0	0	0	0	510	457	1021	0	0	0	
9	0	0	0	0	507	453	1021	0	0	0	
10	0	0	0	0	504	448	1021	0	0	0	
11	0	0	0	0	500	445	1021	0	0	0	
12	0	0	0	0	499	442	1021	0	0	0	
13	0	0	0	0	498	440	1021	0	0	0	
14	0	0	0	0	498	440	1021	0	0	0	
15	0	0	0	0	499	441	1021	0	0	0	
0	0	0	0	0	502	444	1021	0	0	0	
1	0	0	0	0	507	448	1021	0	0	0	
2	0	0	0	0	511	453	1021	0	0	0	
3	0	0	0	0	517	459	1021	0	0	0	
4	0	0	0	0	524	464	1021	0	0	0	
5	0	0	0	0	527	469	1021	0	0	0	
6	0	0	0	0	532	473	1021	0	0	0	
7	0	0	0	0	535	476	1021	0	0	0	
8	0	0	0	0	536	476	1021	0	0	0	
9	0	0	0	0	536	476	1021	0	0	0	
10	0	0	0	0	533	475	1020	0	0	0	
11	0	0	0	0	531	472	1021	0	0	0	
12	0	0	0	0	527	468	1021	0	0	0	
13	0	0	0	0	524	465	1021	0	0	0	
14	0	0	0	0	523	463	1021	0	0	0	
15	0	0	0	0	521	462	1021	0	0	0	
0	0	0	0	0	522	462	1021	0	0	0	
1	0	0	0	0	523	463	1021	0	0	0	
2	0	0	0	0	526	465	1021	0	0	0	
3	0	0	0	0	529	468	1021	0	0	0	
4	0	0	0	0	531	472	1021	0	0	0	
5	0	0	0	0	535	476	1021	0	0	0	
6	0	0	0	0	537	479	1021	0	0	0	
7	0	0	0	0	539	482	1021	0	0	0	
8	0	0	0	0	540	483	1021	0	0	0	
9	0	0	0	0	540	484	1021	0	0	0	
10	0	0	0	0	540	484	1021	0	0	0	
11	0	0	0	0	537	482	1021	0	0	0	
12	0	0	0	0	535	480	1021	0	0	0	
13	0	0	0	0	531	476	1021	0	0	0	
14	0	0	0	0	526	471	1021	0	0	0	
15	0	0	0	0	521	465	1021	0	0	0	
0	0	0	0	0	516	460	1021	0	0	0	
1	0	0	0	0	512	456	1021	0	0	0	
2	0	0	0	0	510	454	1021	0	0	0	
3	0	0	0	0	509	453	1021	0	0	0	
4	0	0	0	0	511	455	1021	0	0	0	
5	0	0	0	0	514	457	1021	0	0	0	
6	0	0	0	0	519	462	1021	0	0	0	
7	0	0	0	0	525	468	1021	0	0	0	
8	0	0	0	0	531	473	1021	0	0	0	
9	0	0	0	0	536	479	1021	0	0	0	
10	0	0	0	0	539	481	1021	0	0	0	
11	0	0	0	0	541	484	1021	0	0	0	
12	0	0	0	0	541	485	1021	0	0	0	
13	0	0	0	0	540	483	1021	0	0	0	
14	0	0	0	0	537	482	1021	0	0	0	
15	0	0	0	0	532	479	1021	0	0	0	
0	0	0	0	0	527	474	1021	0	0	0	
1	0	0	0	0	521	469	1020	0	0	0	
2	0	0	0	0	517	464	1021	0	0	0	
3	0	0	0	0	513	461	1021	0	0	0	
4	0	0	0	0	510	457	1021	0	0	0	
5	0	0	0	0	507	454	1021	0	0	0	
6	0	0	0	0	505	450	1021	0	0	0	
7	0	0	0	0	503	447	1021	0	0	0	
8	0	0	0	0	501	444	1021	0	0	0	
9	0	0	0	0	500	443	1021	0	0	0	
10	0	0	0	0	500	441	1021	0	0	0	
11	0	0	0	0	501	442	1021	0	0	0	
12	0	0	0	0	503	444	1020	0	0	0	
13	0	0	0	0	506	447	1021	0	0	0	
14	0	0	0	0	510	451	1021	0	0	0	
15	0	0	0	0	515	455	1021	0	0	0	
0	0	0	0	0	519	460	1021	0	0	0	
1	0	0	0	0	524	463	1021	0	0	0	
2	0	0	0	0	527	466	1021	0	0	0	
3	0	0	0	0	529	467	1021	0	0	0	
4	0	0	0	0	529	468	1021	0	0	0	
5	0	0	0	0	528	467	1021	0	0	0	
6	0	0	0	0	525	464	1021	0	0	0	
7	0	0	0	0	521	461	1021	0	0	0	
8	0	0	0	0	516	456	1021	0	0	0	
9	0	0	0	0	510	451	1021	0	0	0	
10	0	0	0	0	504	446	1020	0	0	0	
11	0	0	0	0	499	441	1021	0	0	0	
12	0	0	0	0	495	439	1021	0	0	0	
13	0	0	0	0	494	439	1021	0	0	0	
14	0	0	0	0	495	440	1021	0	0	0	
15	0	0	0	0	500	445	1021	0	0	0	
0	0	0	0	0	508	452	1021	0	0	0	
1	0	0	0	0	519	463	1021	0	0	0	
2	0	0	0	0	532	474	1021	0	0	0	
3	0	0	0	0	545	486	1021	0	0	0	
4	0	0	0	0	558	496	1021	0	0	0	
5	0	0	0	0	569	505	1021	0	0	0	
6	0	0	0	0	578	512	1021	0	0	0	
7	0	0	0	0	582	516	1021	0	0	0	
8	0	0	0	0	583	515	1021	0	0	0	
9	0	0	0	0	579	512	1021	0	0	0	
10	0	0	0	0	570	503	1021	0	0	0	
11	0	0	0	0	558	492	1021	0	0	0	
12	0	0	0	0	542	479	1021	0	0	0	
13	0	0	0	0	524	464	1021	0	0	0	
14	0	0	0	0	507	450	1021	0	0	0	
15	0	0	0	0	489	438	1021	0	0	0	
0	0	0	0	0	476	428	1021	0	0	0	
1	0	0	0	0	468	422	1021	0	0	0	
2	0	0	0	0	464	420	1021	0	0	0	
3	0	0	0	0	466	423	1021	0	0	0	
4	0	0	0	0	473	430	1021	0	0	0	
5	0	0	0	0	484	440	1021	0	0	0	
6	0	0	0	0	499	451	1021	0	0	0	
7	0	0	0	0	514	463	1021	0	0	0	
8	0	0	0	0	531	475	1021	0	0	0	
9	0	0	0	0	545	484	1021	0	0	0	
10	0	0	0	0	558	492	1021	0	0	0	
11	0	0	0	0	566	496	1021	0	0	0	
12	0	0	0	0	568	496	1021	0	0	0	
13	0	0	0	0	566	493	1021	0	0	0	
14	0	0	0	0	560	486	1021	0	0	0	
15	0	0	0	0	551	478	1021	0	0	0	
0	0	0	0	0	539	470	1021	0	0	0	
1	0	0	0	0	526	461	1021	0	0	0	
2	0	0	0	0	515	453	1021	0	0	0	
3	0	0	0	0	505	446	1021	0	0	0	
4	0	0	0	0	497	443	1021	0	0	0	
5	0	0	0	0	492	440	1021	0	0	0	
6	0	0	0	0	489	440	1021	0	0	0	
7	0	0	0	0	489	441	1021	0	0	0	
8	0	0	0	0	491	444	1021	0	0	0	
9	0	0	0	0	495	447	1021	0	0	0	
10	0	0	0	0	497	449	1021	0	0	0	
11	0	0	0	0	500	451	1021	0	0	0	
12	0	0	0	0	503	452	1021	0	0	0	
13	0	0	0	0	505	452	1021	0	0	0	
14	0	0	0	0	507	451	1021	0	0	0	
15	0	0	0	0	507	450	1021	0	0	0	
0	0	0	0	0	506	448	1021	0	0	0	
1	0	0	0	0	507	447	1021	0	0	0	
2	0	0	0	0	506	445	1021	0	0	0	
3	0	0	0	0	507	445	1021	0	0	0	
4	0	0	0	0	508	446	1021	0	0	0	
5	0	0	0	0	510	448	1021	0	0	0	
6	0	0	0	0	513	452	1021	0	0	0	
7	0	0	0	0	516	455	1021	0	0	0	
8	0	0	0	0	521	461	1021	0	0	0	
9	0	0	0	0	525	467	1021	0	0	0	
10	0	0	0	0	531	472	1021	0	0	0	
11	0	0	0	0	535	478	1021	0	0	0	
12	0	0	0	0	539	482	1021	0	0	0	
13	0	0	0	0	543	487	1021	0	0	0	
14	0	0	0	0	545	489	1021	0	0	0	
15	0	0	0	0	546	491	1021	0	0	0	
0	0	0	0	0	546	492	1021	0	0	0	
1	0	0	0	0	543	489	1021	0	0	0	
2	0	0	0	0	540	486	1021	0	0	0	
3	0	0	0	0	534	480	1021	0	0	0	
4	0	0	0	0	526	473	1021	0	0	0	
5	0	0	0	0	518	464	1021	0	0	0	
6	0	0	0	0	509	455	1020	0	0	0	
7	0	0	0	0	501	447	1021	0	0	0	
8	0	0	0	0	494	440	1021	0	0	0	
9	0	0	0	0	490	436	1021	0	0	0	
10	0	0	0	0	489	435	1021	0	0	0	
11	0	0	0	0	492	436	1020	0	0	0	
12	0	0	0	0	497	441	1021	0	0	0	
13	0	0	0	0	506	448	1021	0	0	0	
14	0	0	0	0	515	456	1021	0	0	0	
15	0	0	0	0	526	465	1021	0	0	0	
0	0	0	0	0	536	473	1021	0	0	0	
1	0	0	0	0	545	481	1021	0	0	0	
2	0	0	0	0	552	487	1021	0	0	0	
3	0	0	0	0	556	491	1021	0	0	0	
4	0	0	0	0	559	494	1021	0	0	0	
5	0	0	0	0	559	495	1021	0	0	0	
6	0	0	0	0	557	494	1021	0	0	0	
7	0	0	0	0	553	492	1021	0	0	0	
8	0	0	0	0	548	488	1021	0	0	0	
9	0	0	0	0	542	483	1020	0	0	0	
10	0	0	0	0	535	477	1021	0	0	0	
11	0	0	0	0	527	471	1021	0	0	0	
12	0	0	0	0	520	465	1021	0	0	0	
13	0	0	0	0	513	460	1021	0	0	0	
14	0	0	0	0	509	455	1021	0	0	0	
15	0	0	0	0	505	451	1021	0	0	0	
0	0	0	0	0	504	449	1021	0	0	0	
1	0	0	0	0	503	448	1021	0	0	0	
2	0	0	0	0	503	447	1021	0	0	0	
3	0	0	0	0	505	449	1021	0	0	0	
4	0	0	0	0	508	451	1021	0	0	0	
5	0	0	0	0	511	455	1021	0	0	0	
6	0	0	0	0	515	459	1021	0	0	0	
7	0	0	0	0	519	463	1021	0	0	0	
8	0	0	0	0	523	467	1021	0	0	0	
9	0	0	0	0	524	469	1021	0	0	0	
10	0	0	0	0	525	471	1021	0	0	0	
11	0	0	0	0	524	470	1021	0	0	0	
12	0	0	0	0	521	467	1021	0	0	0	
13	0	0	0	0	517	463	1021	0	0	0	
14	0	0	0	0	511	457	1021	0	0	0	
15	0	0	0	0	504	450	1021	0	0	0	
0	0	0	0	0	497	444	1021	0	0	0	
1	0	0	0	0	491	438	1021	0	0	0	
2	0	0	0	0	487	432	1021	0	0	0	
3	0	0	0	0	484	429	1021	0	0	0	
4	0	0	0	0	486	429	1021	0	0	0	
5	0	0	0	0	489	432	1021	0	0	0	
6	0	0	0	0	495	437	1021	0	0	0	
7	0	0	0	0	503	443	1021	0	0	0	
8	0	0	0	0	511	450	1020	0	0	0	
9	0	0	0	0	519	456	1021	0	0	0	
10	0	0	0	0	526	462	1021	0	0	0	
11	0	0	0	0	530	467	1021	0	0	0	
12	0	0	0	0	533	469	1021	0	0	0	
13	0	0	0	0	533	470	1021	0	0	0	
14	0	0	0	0	532	470	1021	0	0	0	
15	0	0	0	0	529	468	1021	0	0	0	
0	0	0	0	0	526	465	1021	0	0	0	
1	0	0	0	0	522	463	1021	0	0	0	
2	0	0	0	0	520	461	1021	0	0	0	
3	0	0	0	0	519	461	1021	0	0	0	
4	0	0	0	0	520	462	1021	0	0	0	
5	0	0	0	0	524	465	1021	0	0	0	
6	0	0	0	0	529	469	1021	0	0	0	
7	0	0	0	0	535	473	1020	0	0	0	
8	0	0	0	0	542	479	1021	0	0	0	
9	0	0	0	0	547	483	1021	0	0	0	
10	0	0	0	0	551	487	1021	0	0	0	
11	0	0	0	0	552	488	1021	0	0	0	
12	0	0	0	0	551	487	1021	0	0	0	
13	0	0	0	0	548	485	1021	0	0	0	
14	0	0	0	0	543	482	1021	0	0	0	
15	0	0	0	0	536	478	1021	0	0	0	
0	0	0	0	0	529	473	1021	0	0	0	
1	0	0	0	0	522	468	1021	0	0	0	
2	0	0	0	0	516	464	1021	0	0	0	
3	0	0	0	0	510	459	1021	0	0	0	
4	0	0	0	0	504	455	1021	0	0	0	
5	0	0	0	0	499	449	1021	0	0	0	
6	0	0	0	0	494	444	1021	0	0	0	
7	0	0	0	0	489	440	1021	0	0	0	
8	0	0	0	0	485	435	1021	0	0	0	
9	0	0	0	0	483	431	1021	0	0	0	
10	0	0	0	0	482	429	1021	0	0	0	
11	0	0	0	0	483	427	1021	0	0	0	
12	0	0	0	0	486	428	1021	0	0	0	
13	0	0	0	0	489	430	1021	0	0	0	
14	0	0	0	0	493	433	1021	0	0	0	
15	0	0	0	0	498	437	1021	0	0	0	
0	0	0	0	0	503	442	1021	0	0	0	
1	0	0	0	0	508	447	1021	0	0	0	
2	0	0	0	0	512	452	1021	0	0	0	
3	0	0	0	0	515	456	1021	0	0	0	
4	0	0	0	0	518	460	1021	0	0	0	
5	0	0	0	0	519	461	1021	0	0	0	
6	0	0	0	0	519	463	1021	0	0	0	
7	0	0	0	0	518	463	1021	0	0	0	
8	0	0	0	0	515	461	1021	0	0	0	
9	0	0	0	0	512	459	1021	0	0	0	
10	0	0	0	0	510	455	1021	0	0	0	
11	0	0	0	0	508	454	1021	0	0	0	
12	0	0	0	0	509	454	1021	0	0	0	
13	0	0	0	0	511	454	1021	0	0	0	
14	0	0	0	0	515	456	1021	0	0	0	
15	0	0	0	0	523	461	1021	0	0	0	
0	0	0	0	0	533	468	1021	0	0	0	
1	0	0	0	0	543	476	1021	0	0	0	
2	0	0	0	0	553	483	1021	0	0	0	
3	0	0	0	0	562	490	1021	0	0	0	
4	0	0	0	0	568	495	1021	0	0	0	
5	0	0	0	0	571	497	1021	0	0	0	
6	0	0	0	0	568	498	1021	0	0	0	
7	0	0	0	0	563	496	1021	0	0	0	
8	0	0	0	0	556	492	1021	0	0	0	
9	0	0	0	0	545	486	1021	0	0	0	
10	0	0	0	0	535	480	1021	0	0	0	
11	0	0	0	0	524	472	1021	0	0	0	
12	0	0	0	0	513	465	1021	0	0	0	
13	0	0	0	0	503	457	1021	0	0	0	
14	0	0	0	0	496	451	1021	0	0	0	
15	0	0	0	0	490	446	1021	0	0	0	
0	0	0	0	0	488	442	1021	0	0	0	
1	0	0	0	0	488	440	1021	0	0	0	
2	0	0	0	0	490	440	1021	0	0	0	
3	0	0	0	0	494	440	1021	0	0	0	
4	0	0	0	0	499	441	1021	0	0	0	
5	0	0	0	0	504	444	1021	0	0	0	
6	0	0	0	0	511	448	1021	0	0	0	
7	0	0	0	0	516	451	1021	0	0	0	
8	0	0	0	0	520	455	1021	0	0	0	
9	0	0	0	0	524	459	1021	0	0	0	
10	0	0	0	0	527	463	1021	0	0	0	
11	0	0	0	0	527	465	1021	0	0	0	
12	0	0	0	0	527	467	1021	0	0	0	
13	0	0	0	0	525	468	1021	0	0	0	
14	0	0	0	0	523	469	1021	0	0	0	
15	0	0	0	0	519	468	1021	0	0	0	
0	0	0	0	0	515	465	1021	0	0	0	
1	0	0	0	0	511	462	1020	0	0	0	
2	0	0	0	0	506	458	1021	0	0	0	
3	0	0	0	0	501	454	1021	0	0	0	
4	0	0	0	0	497	449	1021	0	0	0	
5	0	0	0	0	493	445	1021	0	0	0	
6	0	0	0	0	491	441	1021	0	0	0	
7	0	0	0	0	489	438	1021	0	0	0	
8	0	0	0	0	489	438	1021	0	0	0	
9	0	0	0	0	492	438	1021	0	0	0	
10	0	0	0	0	496	440	1021	0	0	0	
11	0	0	0	0	502	444	1021	0	0	0	
12	0	0	0	0	508	449	1021	0	0	0	
13	0	0	0	0	515	455	1021	0	0	0	
14	0	0	0	0	522	460	1021	0	0	0	
15	0	0	0	0	528	466	1021	0	0	0	
0	0	0	0	0	535	471	1021	0	0	0	
1	0	0	0	0	539	475	1021	0	0	0	
2	0	0	0	0	541	479	1021	0	0	0	
3	0	0	0	0	542	480	1021	0	0	0	
4	0	0	0	0	541	480	1021	0	0	0	
5	0	0	0	0	539	478	1021	0	0	0	
6	0	0	0	0	535	476	1021	0	0	0	
7	0	0	0	0	531	473	1021	0	0	0	
8	0	0	0	0	527	470	1021	0	0	0	
9	0	0	0	0	521	465	1021	0	0	0	
10	0	0	0	0	516	461	1021	0	0	0	
11	0	0	0	0	511	456	1021	0	0	0	
12	0	0	0	0	508	454	1021	0	0	0	
13	0	0	0	0	504	451	1021	0	0	0	
14	0	0	0	0	501	449	1021	0	0	0	
15	0	0	0	0	500	448	1021	0	0	0	
0	0	0	0	0	501	449	1021	0	0	0	
1	0	0	0	0	503	452	1021	0	0	0	
2	0	0	0	0	507	455	1021	0	0	0	
3	0	0	0	0	510	458	1021	0	0	0	
4	0	0	0	0	515	461	1021	0	0	0	
5	0	0	0	0	519	463	1021	0	0	0	
6	0	0	0	0	522	466	1021	0	0	0	
7	0	0	0	0	524	467	1021	0	0	0	
8	0	0	0	0	525	467	1021	0	0	0	
9	0	0	0	0	525	467	1020	0	0	0	
10	0	0	0	0	526	465	1021	0	0	0	
11	0	0	0	0	526	465	1021	0	0	0	
12	0	0	0	0	526	465	1021	0	0	0	
13	0	0	0	0	527	465	1021	0	0	0	
14	0	0	0	0	529	467	1021	0	0	0	
15	0	0	0	0	533	469	1021	0	0	0	
0	0	0	0	0	538	473	1021	0	0	0	
1	0	0	0	0	544	479	1021	0	0	0	
2	0	0	0	0	550	483	1021	0	0	0	
3	0	0	0	0	555	489	1021	0	0	0	
4	0	0	0	0	558	492	1021	0	0	0	
5	0	0	0	0	559	494	1021	0	0	0	
6	0	0	0	0	557	494	1021	0	0	0	
7	0	0	0	0	553	492	1021	0	0	0	
8	0	0	0	0	547	487	1021	0	0	0	
9	0	0	0	0	537	481	1020	0	0	0	
10	0	0	0	0	527	473	1021	0	0	0	
11	0	0	0	0	516	464	1021	0	0	0	
12	0	0	0	0	504	454	1021	0	0	0	
13	0	0	0	0	492	444	1021	0	0	0	
14	0	0	0	0	481	435	1020	0	0	0	
15	0	0	0	0	473	427	1021	0	0	0	
0	0	0	0	0	467	421	1021	0	0	0	
1	0	0	0	0	463	416	1021	0	0	0	
2	0	0	0	0	463	414	1021	0	0	0	
3	0	0	0	0	464	414	1020	0	0	0	
4	0	0	0	0	471	417	1021	0	0	0	
5	0	0	0	0	479	423	1021	0	0	0	
6	0	0	0	0	489	431	1021	0	0	0	
7	0	0	0	0	502	440	1021	0	0	0	
8	0	0	0	0	515	449	1021	0	0	0	
9	0	0	0	0	527	459	1021	0	0	0	
10	0	0	0	0	537	467	1021	0	0	0	
11	0	0	0	0	544	474	1021	0	0	0	
12	0	0	0	0	549	477	1021	0	0	0	
13	0	0	0	0	548	478	1020	0	0	0	
14	0	0	0	0	545	476	1021	0	0	0	
15	0	0	0	0	537	472	1021	0	0	0	
0	0	0	0	0	527	465	1021	0	0	0	
1	0	0	0	0	517	457	1021	0	0	0	
2	0	0	0	0	505	449	1021	0	0	0	
3	0	0	0	0	496	442	1021	0	0	0	
4	0	0	0	0	488	436	1021	0	0	0	
5	0	0	0	0	483	432	1021	0	0	0	
6	0	0	0	0	481	430	1021	0	0	0	
7	0	0	0	0	480	430	1020	0	0	0	
8	0	0	0	0	484	431	1021	0	0	0	
9	0	0	0	0	489	435	1021	0	0	0	
10	0	0	0	0	496	440	1021	0	0	0	
11	0	0	0	0	504	445	1021	0	0	0	
12	0	0	0	0	511	451	1020	0	0	0	
13	0	0	0	0	519	457	1021	0	0	0	
14	0	0	0	0	526	463	1021	0	0	0	
15	0	0	0	0	532	468	1021	0	0	0	
0	0	0	0	0	537	473	1021	0	0	0	
1	0	0	0	0	540	476	1021	0	0	0	
2	0	0	0	0	543	479	1021	0	0	0	
3	0	0	0	0	543	480	1021	0	0	0	
4	0	0	0	0	541	479	1021	0	0	0	
5	0	0	0	0	538	476	1021	0	0	0	
6	0	0	0	0	532	472	1021	0	0	0	
7	0	0	0	0	527	468	1021	0	0	0	
8	0	0	0	0	521	463	1021	0	0	0	
9	0	0	0	0	516	458	1021	0	0	0	
10	0	0	0	0	512	454	1021	0	0	0	
11	0	0	0	0	509	452	1021	0	0	0	
12	0	0	0	0	509	451	1021	0	0	0	
13	0	0	0	0	511	453	1021	0	0	0	
14	0	0	0	0	513	455	1021	0	0	0	
15	0	0	0	0	518	458	1021	0	0	0	
0	0	0	0	0	521	462	1020	0	0	0	
1	0	0	0	0	526	466	1021	0	0	0	
2	0	0	0	0	530	470	1021	0	0	0	
3	0	0	0	0	534	473	1021	0	0	0	
4	0	0	0	0	536	477	1021	0	0	0	
5	0	0	0	0	539	479	1021	0	0	0	
6	0	0	0	0	541	481	1021	0	0	0	
7	0	0	0	0	541	481	1021	0	0	0	
8	0	0	0	0	541	481	1021	0	0	0	
9	0	0	0	0	539	478	1021	0	0	0	
10	0	0	0	0	534	474	1020	0	0	0	
11	0	0	0	0	529	469	1021	0	0	0	
12	0	0	0	0	523	463	1021	0	0	0	
13	0	0	0	0	517	457	1021	0	0	0	
14	0	0	0	0	511	452	1020	0	0	0	
15	0	0	0	0	506	448	1021	0	0	0	
0	0	0	0	0	503	445	1021	0	0	0	
1	0	0	0	0	502	445	1021	0	0	0	
2	0	0	0	0	504	447	1021	0	0	0	
3	0	0	0	0	508	451	1021	0	0	0	
4	0	0	0	0	514	456	1021	0	0	0	
5	0	0	0	0	520	463	1021	0	0	0	
6	0	0	0	0	528	470	1021	0	0	0	
7	0	0	0	0	535	476	1021	0	0	0	
8	0	0	0	0	540	481	1021	0	0	0	
9	0	0	0	0	543	484	1021	0	0	0	
10	0	0	0	0	544	484	1021	0	0	0	
11	0	0	0	0	543	483	1021	0	0	0	
12	0	0	0	0	539	480	1021	0	0	0	
13	0	0	0	0	533	476	1021	0	0	0	
14	0	0	0	0	526	469	1021	0	0	0	
15	0	0	0	0	519	463	1021	0	0	0	
0	0	0	0	0	512	458	1021	0	0	0	
1	0	0	0	0	506	453	1021	0	0	0	
2	0	0	0	0	501	449	1021	0	0	0	
3	0	0	0	0	498	445	1021	0	0	0	
4	0	0	0	0	496	443	1021	0	0	0	
5	0	0	0	0	495	441	1021	0	0	0	
6	0	0	0	0	495	441	1021	0	0	0	
7	0	0	0	0	497	443	1021	0	0	0	
8	0	0	0	0	500	444	1020	0	0	0	
9	0	0	0	0	505	448	1021	0	0	0	
10	0	0	0	0	509	451	1021	0	0	0	
11	0	0	0	0	514	455	1021	0	0	0	
12	0	0	0	0	519	460	1021	0	0	0	
13	0	0	0	0	524	464	1021	0	0	0	
14	0	0	0	0	529	468	1021	0	0	0	
15	0	0	0	0	533	472	1021	0	0	0	
0	0	0	0	0	536	474	1021	0	0	0	
1	0	0	0	0	537	475	1021	0	0	0	
2	0	0	0	0	536	473	1021	0	0	0	
3	0	0	0	0	533	471	1021	0	0	0	
4	0	0	0	0	528	466	1021	0	0	0	
5	0	0	0	0	521	460	1021	0	0	0	
6	0	0	0	0	515	454	1021	0	0	0	
7	0	0	0	0	507	447	1021	0	0	0	
8	0	0	0	0	500	442	1021	0	0	0	
9	0	0	0	0	495	439	1021	0	0	0	
10	0	0	0	0	492	436	1021	0	0	0	
11	0	0	0	0	492	438	1021	0	0	0	
12	0	0	0	0	495	440	1021	0	0	0	
13	0	0	0	0	500	446	1021	0	0	0	
14	0	0	0	0	508	453	1021	0	0	0	
15	0	0	0	0	517	461	1021	0	0	0	
0	0	0	0	0	528	470	1021	0	0	0	
1	0	0	0	0	537	477	1021	0	0	0	
2	0	0	0	0	545	484	1021	0	0	0	
3	0	0	0	0	552	488	1021	0	0	0	
4	0	0	0	0	554	489	1021	0	0	0	
5	0	0	0	0	553	487	1021	0	0	0	
6	0	0	0	0	549	482	1021	0	0	0	
7	0	0	0	0	542	476	1021	0	0	0	
8	0	0	0	0	532	467	1021	0	0	0	
9	0	0	0	0	520	458	1021	0	0	0	
10	0	0	0	0	508	448	1021	0	0	0	
11	0	0	0	0	495	438	1021	0	0	0	
12	0	0	0	0	482	428	1021	0	0	0	
13	0	0	0	0	470	419	1021	0	0	0	
14	0	0	0	0	460	411	1021	0	0	0	
15	0	0	0	0	451	404	1021	0	0	0	
0	0	0	0	0	442	397	1020	0	0	0	
1	0	0	0	0	434	390	1021	0	0	0	
2	0	0	0	0	425	382	1021	0	0	0	
3	0	0	0	0	415	372	1021	0	0	0	
4	0	0	0	0	404	360	1021	0	0	0	
5	0	0	0	0	390	345	1020	0	0	0	
6	0	0	0	0	374	328	1021	0	0	0	
7	0	0	0	0	355	309	1021	0	0	0	
8	0	0	0	0	334	288	1021	0	0	0	
9	0	0	0	0	313	266	1021	0	0	0	
10	0	0	0	0	292	244	1020	0	0	0	
11	0	0	0	0	275	226	1021	0	0	0	
12	0	0	0	0	261	211	1021	0	0	0	
13	0	0	0	0	253	201	1021	0	0	0	
14	0	0	0	0	252	197	1021	0	0	0	
15	0	0	0	0	256	199	1021	0	0	0	
0	0	0	0	0	271	209	1021	0	0	0	
1	0	0	0	0	291	227	1021	0	0	0	
2	0	0	0	0	319	250	1021	0	0	0	
3	0	0	0	0	353	278	1021	0	0	0	
4	0	0	0	0	390	311	1020	0	0	0	
5	0	0	0	0	430	346	1021	0	0	0	
6	0	0	0	0	469	382	1021	0	0	0	
7	0	0	0	0	507	417	1021	0	0	0	
8	0	0	0	0	540	449	1021	0	0	0	
9	0	0	0	0	569	476	1021	0	0	0	
10	0	0	0	0	591	500	1021	0	0	0	
11	0	0	0	0	605	516	1021	0	0	0	
12	0	0	0	0	611	525	1021	0	0	0	
13	0	0	0	0	609	527	1021	0	0	0	
14	0	0	0	0	600	524	1021	0	0	0	
15	0	0	0	0	587	515	1021	0	0	0	
0	0	0	0	0	569	504	1021	0	0	0	
1	0	0	0	0	551	490	1021	0	0	0	
2	0	0	0	0	531	476	1020	0	0	0	
3	0	0	0	0	514	463	1021	0	0	0	
4	0	0	0	0	499	452	1021	0	0	0	
5	0	0	0	0	488	443	1021	0	0	0	
6	0	0	0	0	480	436	1021	0	0	0	
7	0	0	0	0	476	432	1021	0	0	0	
8	0	0	0	0	476	431	1021	0	0	0	
9	0	0	0	0	478	432	1021	0	0	0	
10	0	0	0	0	483	435	1021	0	0	0	
11	0	0	0	0	489	440	1021	0	0	0	
12	0	0	0	0	497	445	1021	0	0	0	
13	0	0	0	0	505	450	1021	0	0	0	
14	0	0	0	0	512	455	1021	0	0	0	
15	0	0	0	0	519	460	1021	0	0	0	
0	0	0	0	0	523	463	1021	0	0	0	
1	0	0	0	0	526	464	1020	0	0	0	
2	0	0	0	0	527	464	1021	0	0	0	
3	0	0	0	0	528	464	1021	0	0	0	
4	0	0	0	0	527	464	1021	0	0	0	
5	0	0	0	0	525	463	1021	0	0	0	
6	0	0	0	0	524	463	1021	0	0	0	
7	0	0	0	0	524	463	1021	0	0	0	
8	0	0	0	0	524	464	1021	0	0	0	
9	0	0	0	0	526	467	1021	0	0	0	
10	0	0	0	0	529	470	1021	0	0	0	
11	0	0	0	0	534	474	1021	0	0	0	
12	0	0	0	0	538	479	1020	0	0	0	
13	0	0	0	0	544	484	1021	0	0	0	
14	0	0	0	0	549	489	1021	0	0	0	
15	0	0	0	0	553	493	1021	0	0	0	
0	0	0	0	0	558	497	1021	0	0	0	
1	0	0	0	0	560	500	1021	0	0	0	
2	0	0	0	0	563	503	1021	0	0	0	
3	0	0	0	0	564	503	1021	0	0	0	
4	0	0	0	0	564	504	1021	0	0	0	
5	0	0	0	0	563	502	1021	0	0	0	
6	0	0	0	0	560	499	1021	0	0	0	
7	0	0	0	0	558	497	1021	0	0	0	
8	0	0	0	0	555	494	1021	0	0	0	
9	0	0	0	0	551	491	1021	0	0	0	
10	0	0	0	0	548	489	1021	0	0	0	
11	0	0	0	0	545	486	1021	0	0	0	
12	0	0	0	0	543	484	1021	0	0	0	
