# OpenSignals Text File Format. Version 1
# {"": {"position": 0, "device": "", "device name": "", "device connection": "", "sampling rate": 1000, "resolution": [4, 1, 1, 1, 1, 10, 10, 10, 10, 6, 6], "firmware version": 1281, "comments": "", "keywords": "", "mode": 0, "sync interval": 2, "date": "", "time": "", "channels": [1, 2, 3, 4, 5, 6], "sensor": ["RAW", "RAW", "RAW", "RAW", "RAW", "RAW"], "label": ["A1", "A2", "A3", "A4", "A5", "A6"], "column": ["nSeq", "I1", "I2", "O1", "O2", "A1", "A2", "A3", "A4", "A5", "A6"], "special": [{}, {}, {}, {}, {}, {}], "digital IO": [0, 0, 1, 1], "convertedValues": 0}}
# EndOfHeader
0	0	0	0	0	526	357	0	586	0	0	
1	0	0	0	0	525	359	0	583	0	0	
2	0	0	0	0	525	371	0	566	0	0	
3	0	0	0	0	526	392	0	538	0	0	
4	0	0	0	0	527	420	0	502	0	0	
5	0	0	0	0	529	452	0	462	0	0	
6	0	0	0	0	532	486	0	420	0	0	
7	0	0	0	0	534	519	0	380	0	0	
8	0	0	0	0	537	548	0	344	0	0	
9	0	0	0	0	539	572	0	315	0	0	
10	0	0	0	0	542	588	0	297	0	0	
11	0	0	0	0	544	593	0	291	0	0	
12	0	0	0	0	546	588	0	300	0	0	
13	0	0	0	0	547	571	0	322	0	0	
14	0	0	0	0	548	543	0	357	0	0	
15	0	0	0	0	549	510	0	400	0	0	
0	0	0	0	0	549	472	0	447	0	0	
1	0	0	0	0	550	437	0	492	0	0	
2	0	0	0	0	549	408	0	531	0	0	
3	0	0	0	0	548	387	0	557	0	0	
4	0	0	0	0	547	375	0	571	0	0	
5	0	0	0	0	546	375	0	571	0	0	
6	0	0	0	0	545	385	0	557	0	0	
7	0	0	0	0	543	403	0	532	0	0	
8	0	0	0	0	541	428	0	499	0	0	
9	0	0	0	0	540	456	0	460	0	0	
10	0	0	0	0	537	486	0	419	0	0	
11	0	0	0	0	536	515	0	380	0	0	
12	0	0	0	0	535	542	0	345	0	0	
13	0	0	0	0	532	562	0	317	0	0	
14	0	0	0	0	531	574	0	299	0	0	
15	0	0	0	0	530	576	0	294	0	0	
0	0	0	0	0	529	568	0	304	0	0	
1	0	0	0	0	527	549	0	326	0	0	
2	0	0	0	0	527	521	0	360	0	0	
3	0	0	0	0	526	488	0	404	0	0	
4	0	0	0	0	525	453	0	451	0	0	
5	0	0	0	0	525	419	0	497	0	0	
6	0	0	0	0	525	391	0	536	0	0	
7	0	0	0	0	526	371	0	566	0	0	
8	0	0	0	0	527	361	0	582	0	0	
9	0	0	0	0	528	362	0	582	0	0	
10	0	0	0	0	530	372	0	568	0	0	
11	0	0	0	0	531	392	0	542	0	0	
12	0	0	0	0	533	419	0	506	0	0	
13	0	0	0	0	536	449	0	465	0	0	
14	0	0	0	0	536	480	0	422	0	0	
15	0	0	0	0	537	512	0	380	0	0	
0	0	0	0	0	538	539	0	340	0	0	
1	0	0	0	0	537	561	0	307	0	0	
2	0	0	0	0	537	576	0	285	0	0	
3	0	0	0	0	535	582	0	274	0	0	
4	0	0	0	0	533	576	0	278	0	0	
5	0	0	0	0	530	561	0	297	0	0	
6	0	0	0	0	527	535	0	329	0	0	
7	0	0	0	0	525	502	0	373	0	0	
8	0	0	0	0	522	465	0	423	0	0	
9	0	0	0	0	520	430	0	473	0	0	
10	0	0	0	0	519	399	0	519	0	0	
11	0	0	0	0	517	376	0	553	0	0	
12	0	0	0	0	517	363	0	575	0	0	
13	0	0	0	0	516	359	0	582	0	0	
14	0	0	0	0	516	367	0	572	0	0	
15	0	0	0	0	516	382	0	547	0	0	
0	0	0	0	0	517	404	0	513	0	0	
1	0	0	0	0	518	432	0	470	0	0	
2	0	0	0	0	518	460	0	424	0	0	
3	0	0	0	0	519	490	0	378	0	0	
4	0	0	0	0	519	516	0	336	0	0	
5	0	0	0	0	520	538	0	301	0	0	
6	0	0	0	0	522	553	0	279	0	0	
7	0	0	0	0	523	558	0	271	0	0	
8	0	0	0	0	525	553	0	279	0	0	
9	0	0	0	0	527	538	0	302	0	0	
10	0	0	0	0	529	514	0	339	0	0	
11	0	0	0	0	531	484	0	386	0	0	
12	0	0	0	0	533	452	0	438	0	0	
13	0	0	0	0	535	422	0	489	0	0	
14	0	0	0	0	535	396	0	534	0	0	
15	0	0	0	0	536	379	0	567	0	0	
0	0	0	0	0	536	370	0	585	0	0	
1	0	0	0	0	535	371	0	587	0	0	
2	0	0	0	0	534	381	0	573	0	0	
3	0	0	0	0	531	399	0	546	0	0	
4	0	0	0	0	530	422	0	508	0	0	
5	0	0	0	0	529	449	0	463	0	0	
6	0	0	0	0	527	478	0	416	0	0	
7	0	0	0	0	527	507	0	370	0	0	
8	0	0	0	0	526	532	0	329	0	0	
9	0	0	0	0	527	553	0	295	0	0	
10	0	0	0	0	527	567	0	274	0	0	
11	0	0	0	0	528	571	0	267	0	0	
12	0	0	0	0	529	565	0	276	0	0	
13	0	0	0	0	529	548	0	300	0	0	
14	0	0	0	0	531	524	0	339	0	0	
15	0	0	0	0	531	493	0	387	0	0	
0	0	0	0	0	532	460	0	439	0	0	
1	0	0	0	0	532	428	0	490	0	0	
2	0	0	0	0	532	402	0	534	0	0	
3	0	0	0	0	533	384	0	568	0	0	
4	0	0	0	0	533	375	0	585	0	0	
5	0	0	0	0	533	376	0	587	0	0	
6	0	0	0	0	534	386	0	573	0	0	
7	0	0	0	0	534	404	0	545	0	0	
8	0	0	0	0	535	428	0	508	0	0	
9	0	0	0	0	536	455	0	463	0	0	
10	0	0	0	0	536	484	0	415	0	0	
11	0	0	0	0	537	512	0	368	0	0	
12	0	0	0	0	537	537	0	326	0	0	
13	0	0	0	0	537	557	0	290	0	0	
14	0	0	0	0	537	571	0	265	0	0	
15	0	0	0	0	537	575	0	254	0	0	
0	0	0	0	0	537	571	0	259	0	0	
1	0	0	0	0	536	555	0	280	0	0	
2	0	0	0	0	537	531	0	315	0	0	
3	0	0	0	0	536	501	0	362	0	0	
4	0	0	0	0	536	468	0	415	0	0	
5	0	0	0	0	536	437	0	467	0	0	
6	0	0	0	0	536	411	0	515	0	0	
7	0	0	0	0	538	392	0	551	0	0	
8	0	0	0	0	538	384	0	572	0	0	
9	0	0	0	0	539	384	0	577	0	0	
10	0	0	0	0	539	394	0	567	0	0	
11	0	0	0	0	540	412	0	542	0	0	
12	0	0	0	0	540	435	0	507	0	0	
13	0	0	0	0	541	462	0	464	0	0	
14	0	0	0	0	540	490	0	417	0	0	
15	0	0	0	0	539	517	0	370	0	0	
0	0	0	0	0	538	540	0	326	0	0	
1	0	0	0	0	536	559	0	288	0	0	
2	0	0	0	0	534	570	0	260	0	0	
3	0	0	0	0	530	573	0	245	0	0	
4	0	0	0	0	527	568	0	244	0	0	
5	0	0	0	0	524	553	0	259	0	0	
6	0	0	0	0	521	532	0	288	0	0	
7	0	0	0	0	519	505	0	329	0	0	
8	0	0	0	0	518	475	0	379	0	0	
9	0	0	0	0	518	447	0	430	0	0	
10	0	0	0	0	517	422	0	479	0	0	
11	0	0	0	0	517	404	0	518	0	0	
12	0	0	0	0	518	394	0	545	0	0	
13	0	0	0	0	518	393	0	557	0	0	
14	0	0	0	0	519	399	0	553	0	0	
15	0	0	0	0	520	412	0	534	0	0	
0	0	0	0	0	520	431	0	503	0	0	
1	0	0	0	0	522	453	0	463	0	0	
2	0	0	0	0	523	476	0	419	0	0	
3	0	0	0	0	524	500	0	372	0	0	
4	0	0	0	0	524	521	0	328	0	0	
5	0	0	0	0	524	540	0	289	0	0	
6	0	0	0	0	525	553	0	259	0	0	
7	0	0	0	0	526	560	0	242	0	0	
8	0	0	0	0	526	559	0	240	0	0	
9	0	0	0	0	527	547	0	255	0	0	
10	0	0	0	0	527	529	0	285	0	0	
11	0	0	0	0	529	504	0	330	0	0	
12	0	0	0	0	529	473	0	384	0	0	
13	0	0	0	0	530	444	0	441	0	0	
14	0	0	0	0	530	417	0	496	0	0	
15	0	0	0	0	530	397	0	541	0	0	
0	0	0	0	0	531	385	0	573	0	0	
1	0	0	0	0	531	382	0	588	0	0	
2	0	0	0	0	531	387	0	585	0	0	
3	0	0	0	0	531	400	0	567	0	0	
4	0	0	0	0	531	420	0	534	0	0	
5	0	0	0	0	530	444	0	491	0	0	
6	0	0	0	0	530	470	0	442	0	0	
7	0	0	0	0	530	496	0	391	0	0	
8	0	0	0	0	530	521	0	343	0	0	
9	0	0	0	0	530	542	0	299	0	0	
10	0	0	0	0	530	558	0	266	0	0	
11	0	0	0	0	530	566	0	246	0	0	
12	0	0	0	0	529	565	0	242	0	0	
13	0	0	0	0	530	556	0	255	0	0	
14	0	0	0	0	530	538	0	284	0	0	
15	0	0	0	0	531	513	0	326	0	0	
0	0	0	0	0	532	485	0	377	0	0	
1	0	0	0	0	533	456	0	433	0	0	
2	0	0	0	0	535	431	0	485	0	0	
3	0	0	0	0	535	412	0	529	0	0	
4	0	0	0	0	537	400	0	561	0	0	
5	0	0	0	0	539	398	0	577	0	0	
6	0	0	0	0	540	404	0	575	0	0	
7	0	0	0	0	541	417	0	558	0	0	
8	0	0	0	0	542	436	0	527	0	0	
9	0	0	0	0	543	458	0	487	0	0	
10	0	0	0	0	543	483	0	440	0	0	
11	0	0	0	0	543	508	0	391	0	0	
12	0	0	0	0	543	531	0	345	0	0	
13	0	0	0	0	540	550	0	302	0	0	
14	0	0	0	0	540	564	0	268	0	0	
15	0	0	0	0	537	573	0	245	0	0	
0	0	0	0	0	536	574	0	236	0	0	
1	0	0	0	0	534	568	0	241	0	0	
2	0	0	0	0	532	553	0	263	0	0	
3	0	0	0	0	531	532	0	299	0	0	
4	0	0	0	0	529	507	0	345	0	0	
5	0	0	0	0	529	479	0	398	0	0	
6	0	0	0	0	529	454	0	451	0	0	
7	0	0	0	0	528	432	0	496	0	0	
8	0	0	0	0	529	417	0	532	0	0	
9	0	0	0	0	528	409	0	551	0	0	
10	0	0	0	0	527	408	0	554	0	0	
11	0	0	0	0	525	413	0	541	0	0	
12	0	0	0	0	523	424	0	513	0	0	
13	0	0	0	0	521	440	0	475	0	0	
14	0	0	0	0	518	457	0	430	0	0	
15	0	0	0	0	515	475	0	382	0	0	
0	0	0	0	0	512	493	0	334	0	0	
1	0	0	0	0	508	508	0	290	0	0	
2	0	0	0	0	507	521	0	255	0	0	
3	0	0	0	0	505	528	0	231	0	0	
4	0	0	0	0	504	530	0	222	0	0	
5	0	0	0	0	504	526	0	229	0	0	
6	0	0	0	0	504	514	0	253	0	0	
7	0	0	0	0	506	496	0	293	0	0	
8	0	0	0	0	507	475	0	344	0	0	
9	0	0	0	0	508	453	0	401	0	0	
10	0	0	0	0	510	432	0	459	0	0	
11	0	0	0	0	512	415	0	509	0	0	
12	0	0	0	0	515	405	0	548	0	0	
13	0	0	0	0	516	401	0	571	0	0	
14	0	0	0	0	518	404	0	575	0	0	
15	0	0	0	0	520	413	0	563	0	0	
0	0	0	0	0	522	428	0	535	0	0	
1	0	0	0	0	523	446	0	495	0	0	
2	0	0	0	0	524	466	0	448	0	0	
3	0	0	0	0	524	487	0	398	0	0	
4	0	0	0	0	525	508	0	348	0	0	
5	0	0	0	0	526	525	0	302	0	0	
6	0	0	0	0	527	540	0	265	0	0	
7	0	0	0	0	527	548	0	240	0	0	
8	0	0	0	0	528	550	0	230	0	0	
9	0	0	0	0	529	545	0	237	0	0	
10	0	0	0	0	529	531	0	262	0	0	
11	0	0	0	0	531	511	0	302	0	0	
12	0	0	0	0	532	486	0	355	0	0	
13	0	0	0	0	532	459	0	415	0	0	
14	0	0	0	0	532	434	0	474	0	0	
15	0	0	0	0	532	414	0	528	0	0	
0	0	0	0	0	534	399	0	572	0	0	
1	0	0	0	0	533	392	0	598	0	0	
2	0	0	0	0	532	393	0	606	0	0	
3	0	0	0	0	531	401	0	596	0	0	
4	0	0	0	0	530	415	0	569	0	0	
5	0	0	0	0	529	433	0	528	0	0	
6	0	0	0	0	527	455	0	479	0	0	
7	0	0	0	0	526	476	0	423	0	0	
8	0	0	0	0	524	497	0	369	0	0	
9	0	0	0	0	522	516	0	318	0	0	
10	0	0	0	0	520	531	0	276	0	0	
11	0	0	0	0	519	541	0	247	0	0	
12	0	0	0	0	519	543	0	235	0	0	
13	0	0	0	0	519	538	0	240	0	0	
14	0	0	0	0	520	526	0	263	0	0	
15	0	0	0	0	522	506	0	303	0	0	
0	0	0	0	0	524	482	0	356	0	0	
1	0	0	0	0	526	457	0	415	0	0	
2	0	0	0	0	528	434	0	475	0	0	
3	0	0	0	0	530	415	0	528	0	0	
4	0	0	0	0	531	402	0	570	0	0	
5	0	0	0	0	532	397	0	595	0	0	
6	0	0	0	0	534	399	0	601	0	0	
7	0	0	0	0	534	409	0	590	0	0	
8	0	0	0	0	535	425	0	562	0	0	
9	0	0	0	0	536	446	0	523	0	0	
10	0	0	0	0	536	468	0	475	0	0	
11	0	0	0	0	536	491	0	423	0	0	
12	0	0	0	0	535	513	0	371	0	0	
13	0	0	0	0	536	533	0	323	0	0	
14	0	0	0	0	536	550	0	284	0	0	
15	0	0	0	0	536	560	0	255	0	0	
0	0	0	0	0	536	564	0	240	0	0	
1	0	0	0	0	536	561	0	243	0	0	
2	0	0	0	0	537	548	0	263	0	0	
3	0	0	0	0	536	529	0	299	0	0	
4	0	0	0	0	536	503	0	348	0	0	
5	0	0	0	0	535	475	0	406	0	0	
6	0	0	0	0	533	448	0	465	0	0	
7	0	0	0	0	532	425	0	519	0	0	
8	0	0	0	0	531	408	0	563	0	0	
9	0	0	0	0	531	399	0	591	0	0	
10	0	0	0	0	530	398	0	600	0	0	
11	0	0	0	0	529	404	0	592	0	0	
12	0	0	0	0	529	417	0	567	0	0	
13	0	0	0	0	528	434	0	528	0	0	
14	0	0	0	0	526	454	0	480	0	0	
15	0	0	0	0	524	474	0	425	0	0	
0	0	0	0	0	520	494	0	370	0	0	
1	0	0	0	0	518	510	0	316	0	0	
2	0	0	0	0	513	523	0	270	0	0	
3	0	0	0	0	508	530	0	233	0	0	
4	0	0	0	0	502	531	0	212	0	0	
5	0	0	0	0	495	526	0	207	0	0	
6	0	0	0	0	488	513	0	221	0	0	
7	0	0	0	0	482	496	0	253	0	0	
8	0	0	0	0	476	475	0	299	0	0	
9	0	0	0	0	468	452	0	354	0	0	
10	0	0	0	0	461	430	0	412	0	0	
11	0	0	0	0	454	409	0	466	0	0	
12	0	0	0	0	447	391	0	508	0	0	
13	0	0	0	0	438	377	0	534	0	0	
14	0	0	0	0	429	366	0	538	0	0	
15	0	0	0	0	418	358	0	521	0	0	
0	0	0	0	0	408	353	0	484	0	0	
1	0	0	0	0	395	349	0	432	0	0	
2	0	0	0	0	382	347	0	367	0	0	
3	0	0	0	0	369	345	0	296	0	0	
4	0	0	0	0	355	344	0	224	0	0	
5	0	0	0	0	343	342	0	155	0	0	
6	0	0	0	0	331	340	0	92	0	0	
7	0	0	0	0	320	338	0	41	0	0	
8	0	0	0	0	312	335	0	7	0	0	
9	0	0	0	0	307	333	0	0	0	0	
10	0	0	0	0	304	332	0	0	0	0	
11	0	0	0	0	306	331	0	26	0	0	
12	0	0	0	0	312	332	0	71	0	0	
13	0	0	0	0	321	335	0	134	0	0	
14	0	0	0	0	333	339	0	206	0	0	
15	0	0	0	0	348	347	0	282	0	0	
0	0	0	0	0	367	357	0	355	0	0	
1	0	0	0	0	387	369	0	417	0	0	
2	0	0	0	0	408	385	0	465	0	0	
3	0	0	0	0	430	401	0	495	0	0	
4	0	0	0	0	453	421	0	506	0	0	
5	0	0	0	0	475	441	0	500	0	0	
6	0	0	0	0	495	461	0	480	0	0	
7	0	0	0	0	513	481	0	451	0	0	
8	0	0	0	0	530	500	0	414	0	0	
9	0	0	0	0	543	517	0	375	0	0	
10	0	0	0	0	553	531	0	340	0	0	
11	0	0	0	0	560	539	0	313	0	0	
12	0	0	0	0	564	542	0	299	0	0	
13	0	0	0	0	565	537	0	300	0	0	
14	0	0	0	0	563	526	0	317	0	0	
15	0	0	0	0	560	507	0	351	0	0	
0	0	0	0	0	556	485	0	396	0	0	
1	0	0	0	0	551	462	0	449	0	0	
2	0	0	0	0	545	440	0	503	0	0	
3	0	0	0	0	541	423	0	552	0	0	
4	0	0	0	0	536	412	0	590	0	0	
5	0	0	0	0	534	409	0	614	0	0	
6	0	0	0	0	532	412	0	620	0	0	
7	0	0	0	0	531	423	0	609	0	0	
8	0	0	0	0	532	440	0	583	0	0	
9	0	0	0	0	535	459	0	544	0	0	
10	0	0	0	0	538	481	0	497	0	0	
11	0	0	0	0	541	504	0	445	0	0	
12	0	0	0	0	545	526	0	393	0	0	
13	0	0	0	0	548	545	0	344	0	0	
14	0	0	0	0	552	560	0	302	0	0	
15	0	0	0	0	555	572	0	271	0	0	
0	0	0	0	0	558	577	0	255	0	0	
1	0	0	0	0	559	574	0	255	0	0	
2	0	0	0	0	560	563	0	274	0	0	
3	0	0	0	0	560	544	0	311	0	0	
4	0	0	0	0	559	518	0	361	0	0	
5	0	0	0	0	557	489	0	421	0	0	
6	0	0	0	0	555	462	0	484	0	0	
7	0	0	0	0	553	438	0	543	0	0	
8	0	0	0	0	551	420	0	591	0	0	
9	0	0	0	0	549	409	0	623	0	0	
10	0	0	0	0	547	407	0	636	0	0	
11	0	0	0	0	545	413	0	629	0	0	
12	0	0	0	0	543	425	0	605	0	0	
13	0	0	0	0	543	444	0	567	0	0	
14	0	0	0	0	543	465	0	518	0	0	
15	0	0	0	0	543	488	0	463	0	0	
0	0	0	0	0	543	511	0	407	0	0	
1	0	0	0	0	545	533	0	353	0	0	
2	0	0	0	0	546	551	0	307	0	0	
3	0	0	0	0	547	566	0	271	0	0	
4	0	0	0	0	548	574	0	249	0	0	
5	0	0	0	0	550	575	0	244	0	0	
6	0	0	0	0	551	567	0	257	0	0	
7	0	0	0	0	552	551	0	289	0	0	
8	0	0	0	0	552	529	0	336	0	0	
9	0	0	0	0	552	503	0	395	0	0	
10	0	0	0	0	552	476	0	457	0	0	
11	0	0	0	0	552	453	0	517	0	0	
12	0	0	0	0	551	435	0	568	0	0	
13	0	0	0	0	551	423	0	604	0	0	
14	0	0	0	0	550	419	0	622	0	0	
15	0	0	0	0	549	422	0	620	0	0	
0	0	0	0	0	549	432	0	602	0	0	
1	0	0	0	0	549	447	0	568	0	0	
2	0	0	0	0	549	467	0	524	0	0	
3	0	0	0	0	550	488	0	473	0	0	
4	0	0	0	0	550	510	0	420	0	0	
5	0	0	0	0	551	530	0	369	0	0	
6	0	0	0	0	552	548	0	324	0	0	
7	0	0	0	0	553	561	0	290	0	0	
8	0	0	0	0	553	568	0	271	0	0	
9	0	0	0	0	553	567	0	268	0	0	
10	0	0	0	0	553	558	0	283	0	0	
11	0	0	0	0	552	542	0	315	0	0	
12	0	0	0	0	551	519	0	361	0	0	
13	0	0	0	0	551	495	0	417	0	0	
14	0	0	0	0	549	470	0	476	0	0	
15	0	0	0	0	547	448	0	531	0	0	
0	0	0	0	0	547	433	0	576	0	0	
1	0	0	0	0	545	423	0	606	0	0	
2	0	0	0	0	544	422	0	619	0	0	
3	0	0	0	0	545	427	0	614	0	0	
4	0	0	0	0	544	439	0	591	0	0	
5	0	0	0	0	545	455	0	556	0	0	
6	0	0	0	0	546	475	0	510	0	0	
7	0	0	0	0	547	496	0	459	0	0	
8	0	0	0	0	548	517	0	407	0	0	
9	0	0	0	0	548	536	0	356	0	0	
10	0	0	0	0	548	551	0	312	0	0	
11	0	0	0	0	549	563	0	277	0	0	
12	0	0	0	0	548	570	0	254	0	0	
13	0	0	0	0	547	570	0	247	0	0	
14	0	0	0	0	547	563	0	257	0	0	
15	0	0	0	0	547	549	0	284	0	0	
0	0	0	0	0	546	529	0	327	0	0	
1	0	0	0	0	546	506	0	380	0	0	
2	0	0	0	0	544	483	0	438	0	0	
3	0	0	0	0	543	462	0	494	0	0	
4	0	0	0	0	541	445	0	542	0	0	
5	0	0	0	0	540	434	0	578	0	0	
6	0	0	0	0	537	429	0	596	0	0	
7	0	0	0	0	536	431	0	595	0	0	
8	0	0	0	0	534	438	0	579	0	0	
9	0	0	0	0	532	449	0	548	0	0	
10	0	0	0	0	531	464	0	506	0	0	
11	0	0	0	0	531	481	0	457	0	0	
12	0	0	0	0	531	499	0	406	0	0	
13	0	0	0	0	530	515	0	356	0	0	
14	0	0	0	0	531	531	0	311	0	0	
15	0	0	0	0	532	543	0	275	0	0	
0	0	0	0	0	534	551	0	251	0	0	
1	0	0	0	0	534	554	0	243	0	0	
2	0	0	0	0	536	551	0	251	0	0	
3	0	0	0	0	537	541	0	276	0	0	
4	0	0	0	0	538	526	0	318	0	0	
5	0	0	0	0	539	505	0	369	0	0	
6	0	0	0	0	539	485	0	429	0	0	
7	0	0	0	0	539	467	0	487	0	0	
8	0	0	0	0	539	451	0	537	0	0	
9	0	0	0	0	539	441	0	575	0	0	
10	0	0	0	0	538	437	0	595	0	0	
11	0	0	0	0	536	439	0	598	0	0	
12	0	0	0	0	536	445	0	584	0	0	
13	0	0	0	0	535	456	0	555	0	0	
14	0	0	0	0	534	471	0	515	0	0	
15	0	0	0	0	533	487	0	466	0	0	
0	0	0	0	0	532	503	0	416	0	0	
1	0	0	0	0	532	518	0	365	0	0	
2	0	0	0	0	532	532	0	320	0	0	
3	0	0	0	0	533	543	0	284	0	0	
4	0	0	0	0	534	548	0	262	0	0	
5	0	0	0	0	534	549	0	255	0	0	
6	0	0	0	0	536	543	0	265	0	0	
7	0	0	0	0	537	531	0	292	0	0	
8	0	0	0	0	539	513	0	335	0	0	
9	0	0	0	0	540	494	0	388	0	0	
10	0	0	0	0	541	474	0	446	0	0	
11	0	0	0	0	542	456	0	501	0	0	
12	0	0	0	0	542	444	0	549	0	0	
13	0	0	0	0	542	436	0	583	0	0	
14	0	0	0	0	541	434	0	600	0	0	
15	0	0	0	0	540	438	0	599	0	0	
0	0	0	0	0	540	446	0	580	0	0	
1	0	0	0	0	539	459	0	547	0	0	
2	0	0	0	0	539	473	0	503	0	0	
3	0	0	0	0	537	488	0	451	0	0	
4	0	0	0	0	536	504	0	397	0	0	
5	0	0	0	0	536	518	0	345	0	0	
6	0	0	0	0	535	530	0	298	0	0	
7	0	0	0	0	534	539	0	260	0	0	
8	0	0	0	0	533	543	0	236	0	0	
9	0	0	0	0	532	542	0	228	0	0	
10	0	0	0	0	532	535	0	238	0	0	
11	0	0	0	0	533	522	0	268	0	0	
12	0	0	0	0	533	504	0	313	0	0	
13	0	0	0	0	533	483	0	371	0	0	
14	0	0	0	0	533	463	0	434	0	0	
15	0	0	0	0	534	445	0	495	0	0	
0	0	0	0	0	533	432	0	548	0	0	
1	0	0	0	0	533	424	0	587	0	0	
2	0	0	0	0	532	422	0	607	0	0	
3	0	0	0	0	531	425	0	608	0	0	
4	0	0	0	0	531	434	0	590	0	0	
5	0	0	0	0	530	446	0	556	0	0	
6	0	0	0	0	528	461	0	510	0	0	
7	0	0	0	0	528	478	0	457	0	0	
8	0	0	0	0	527	495	0	401	0	0	
9	0	0	0	0	527	510	0	347	0	0	
10	0	0	0	0	527	524	0	299	0	0	
11	0	0	0	0	528	535	0	260	0	0	
12	0	0	0	0	529	542	0	236	0	0	
13	0	0	0	0	529	543	0	228	0	0	
14	0	0	0	0	530	539	0	238	0	0	
15	0	0	0	0	531	527	0	267	0	0	
0	0	0	0	0	533	512	0	312	0	0	
1	0	0	0	0	534	493	0	368	0	0	
2	0	0	0	0	536	475	0	430	0	0	
3	0	0	0	0	537	459	0	491	0	0	
4	0	0	0	0	540	446	0	543	0	0	
5	0	0	0	0	542	440	0	582	0	0	
6	0	0	0	0	543	438	0	603	0	0	
7	0	0	0	0	543	441	0	605	0	0	
8	0	0	0	0	545	451	0	590	0	0	
9	0	0	0	0	545	462	0	558	0	0	
10	0	0	0	0	545	477	0	516	0	0	
11	0	0	0	0	545	492	0	466	0	0	
12	0	0	0	0	544	508	0	413	0	0	
13	0	0	0	0	543	522	0	361	0	0	
14	0	0	0	0	542	534	0	313	0	0	
15	0	0	0	0	542	543	0	276	0	0	
0	0	0	0	0	541	548	0	251	0	0	
1	0	0	0	0	541	548	0	241	0	0	
2	0	0	0	0	540	543	0	249	0	0	
3	0	0	0	0	540	531	0	275	0	0	
4	0	0	0	0	541	516	0	316	0	0	
5	0	0	0	0	541	497	0	369	0	0	
6	0	0	0	0	540	480	0	428	0	0	
7	0	0	0	0	540	463	0	486	0	0	
8	0	0	0	0	540	450	0	536	0	0	
9	0	0	0	0	539	442	0	573	0	0	
10	0	0	0	0	539	439	0	592	0	0	
11	0	0	0	0	538	441	0	594	0	0	
12	0	0	0	0	536	448	0	578	0	0	
13	0	0	0	0	537	459	0	547	0	0	
14	0	0	0	0	536	473	0	506	0	0	
15	0	0	0	0	536	487	0	457	0	0	
0	0	0	0	0	536	503	0	406	0	0	
1	0	0	0	0	536	517	0	356	0	0	
2	0	0	0	0	537	530	0	311	0	0	
3	0	0	0	0	537	540	0	275	0	0	
4	0	0	0	0	538	545	0	251	0	0	
5	0	0	0	0	539	547	0	242	0	0	
6	0	0	0	0	540	543	0	251	0	0	
7	0	0	0	0	541	532	0	278	0	0	
8	0	0	0	0	542	516	0	319	0	0	
9	0	0	0	0	542	497	0	372	0	0	
10	0	0	0	0	543	479	0	431	0	0	
11	0	0	0	0	542	462	0	487	0	0	
12	0	0	0	0	542	449	0	535	0	0	
13	0	0	0	0	541	441	0	568	0	0	
14	0	0	0	0	540	438	0	584	0	0	
15	0	0	0	0	539	440	0	582	0	0	
0	0	0	0	0	539	446	0	565	0	0	
1	0	0	0	0	537	457	0	533	0	0	
2	0	0	0	0	536	469	0	491	0	0	
3	0	0	0	0	535	483	0	443	0	0	
4	0	0	0	0	535	497	0	392	0	0	
5	0	0	0	0	534	510	0	344	0	0	
6	0	0	0	0	534	522	0	300	0	0	
7	0	0	0	0	533	530	0	265	0	0	
8	0	0	0	0	533	535	0	242	0	0	
9	0	0	0	0	532	536	0	234	0	0	
10	0	0	0	0	531	530	0	243	0	0	
11	0	0	0	0	532	518	0	271	0	0	
12	0	0	0	0	531	501	0	315	0	0	
13	0	0	0	0	531	481	0	372	0	0	
14	0	0	0	0	531	460	0	435	0	0	
15	0	0	0	0	531	443	0	497	0	0	
0	0	0	0	0	532	429	0	551	0	0	
1	0	0	0	0	534	421	0	592	0	0	
2	0	0	0	0	534	418	0	615	0	0	
3	0	0	0	0	536	422	0	618	0	0	
4	0	0	0	0	536	431	0	603	0	0	
5	0	0	0	0	538	444	0	572	0	0	
6	0	0	0	0	539	460	0	528	0	0	
7	0	0	0	0	540	476	0	477	0	0	
8	0	0	0	0	540	494	0	421	0	0	
9	0	0	0	0	540	510	0	366	0	0	
10	0	0	0	0	541	524	0	315	0	0	
11	0	0	0	0	541	535	0	272	0	0	
12	0	0	0	0	540	543	0	239	0	0	
13	0	0	0	0	540	547	0	217	0	0	
14	0	0	0	0	540	548	0	210	0	0	
15	0	0	0	0	540	547	0	217	0	0	
0	0	0	0	0	539	542	0	237	0	0	
1	0	0	0	0	538	535	0	270	0	0	
2	0	0	0	0	537	526	0	311	0	0	
3	0	0	0	0	536	518	0	355	0	0	
4	0	0	0	0	535	510	0	398	0	0	
5	0	0	0	0	534	503	0	436	0	0	
6	0	0	0	0	532	497	0	463	0	0	
7	0	0	0	0	531	492	0	479	0	0	
8	0	0	0	0	529	489	0	481	0	0	
9	0	0	0	0	527	487	0	471	0	0	
10	0	0	0	0	524	487	0	451	0	0	
11	0	0	0	0	523	489	0	425	0	0	
12	0	0	0	0	521	491	0	396	0	0	
13	0	0	0	0	521	493	0	368	0	0	
14	0	0	0	0	521	494	0	348	0	0	
15	0	0	0	0	522	491	0	340	0	0	
0	0	0	0	0	524	484	0	346	0	0	
1	0	0	0	0	527	472	0	369	0	0	
2	0	0	0	0	529	453	0	407	0	0	
3	0	0	0	0	533	431	0	459	0	0	
4	0	0	0	0	536	407	0	519	0	0	
5	0	0	0	0	539	383	0	581	0	0	
6	0	0	0	0	542	362	0	640	0	0	
7	0	0	0	0	544	348	0	690	0	0	
8	0	0	0	0	546	342	0	726	0	0	
9	0	0	0	0	547	344	0	744	0	0	
10	0	0	0	0	547	355	0	742	0	0	
11	0	0	0	0	547	373	0	718	0	0	
12	0	0	0	0	547	398	0	675	0	0	
13	0	0	0	0	548	425	0	617	0	0	
14	0	0	0	0	547	455	0	549	0	0	
15	0	0	0	0	546	484	0	476	0	0	
0	0	0	0	0	546	510	0	404	0	0	
1	0	0	0	0	544	532	0	337	0	0	
2	0	0	0	0	543	548	0	280	0	0	
3	0	0	0	0	541	559	0	236	0	0	
4	0	0	0	0	538	562	0	208	0	0	
5	0	0	0	0	535	558	0	201	0	0	
6	0	0	0	0	531	547	0	215	0	0	
7	0	0	0	0	528	529	0	248	0	0	
8	0	0	0	0	526	506	0	300	0	0	
9	0	0	0	0	524	480	0	365	0	0	
10	0	0	0	0	521	456	0	436	0	0	
11	0	0	0	0	520	435	0	505	0	0	
12	0	0	0	0	521	419	0	565	0	0	
13	0	0	0	0	521	408	0	609	0	0	
14	0	0	0	0	522	405	0	633	0	0	
15	0	0	0	0	522	408	0	637	0	0	
0	0	0	0	0	523	415	0	620	0	0	
1	0	0	0	0	524	428	0	585	0	0	
2	0	0	0	0	525	443	0	537	0	0	
3	0	0	0	0	525	459	0	481	0	0	
4	0	0	0	0	525	475	0	422	0	0	
5	0	0	0	0	524	491	0	362	0	0	
6	0	0	0	0	524	503	0	308	0	0	
7	0	0	0	0	523	513	0	265	0	0	
8	0	0	0	0	522	519	0	236	0	0	
9	0	0	0	0	521	521	0	224	0	0	
10	0	0	0	0	519	516	0	231	0	0	
11	0	0	0	0	519	507	0	258	0	0	
12	0	0	0	0	519	493	0	302	0	0	
13	0	0	0	0	518	476	0	359	0	0	
14	0	0	0	0	518	460	0	424	0	0	
15	0	0	0	0	517	444	0	489	0	0	
0	0	0	0	0	518	432	0	548	0	0	
1	0	0	0	0	518	424	0	594	0	0	
2	0	0	0	0	519	421	0	622	0	0	
3	0	0	0	0	520	423	0	629	0	0	
4	0	0	0	0	522	428	0	618	0	0	
5	0	0	0	0	524	438	0	589	0	0	
6	0	0	0	0	526	450	0	546	0	0	
7	0	0	0	0	528	463	0	495	0	0	
8	0	0	0	0	530	477	0	438	0	0	
9	0	0	0	0	532	490	0	382	0	0	
10	0	0	0	0	534	501	0	332	0	0	
11	0	0	0	0	534	508	0	292	0	0	
12	0	0	0	0	534	512	0	269	0	0	
13	0	0	0	0	534	511	0	263	0	0	
14	0	0	0	0	532	503	0	277	0	0	
15	0	0	0	0	532	490	0	310	0	0	
0	0	0	0	0	531	473	0	359	0	0	
1	0	0	0	0	529	454	0	420	0	0	
2	0	0	0	0	529	436	0	485	0	0	
3	0	0	0	0	529	421	0	547	0	0	
4	0	0	0	0	529	410	0	600	0	0	
5	0	0	0	0	529	405	0	638	0	0	
6	0	0	0	0	530	406	0	656	0	0	
7	0	0	0	0	531	411	0	653	0	0	
8	0	0	0	0	531	420	0	632	0	0	
9	0	0	0	0	532	433	0	593	0	0	
10	0	0	0	0	533	448	0	542	0	0	
11	0	0	0	0	532	463	0	482	0	0	
12	0	0	0	0	531	477	0	420	0	0	
13	0	0	0	0	529	489	0	359	0	0	
14	0	0	0	0	527	500	0	305	0	0	
15	0	0	0	0	524	507	0	263	0	0	
0	0	0	0	0	523	511	0	235	0	0	
1	0	0	0	0	520	510	0	226	0	0	
2	0	0	0	0	519	504	0	236	0	0	
3	0	0	0	0	518	494	0	267	0	0	
4	0	0	0	0	518	480	0	315	0	0	
5	0	0	0	0	519	464	0	376	0	0	
6	0	0	0	0	521	448	0	444	0	0	
7	0	0	0	0	522	434	0	511	0	0	
8	0	0	0	0	525	424	0	571	0	0	
9	0	0	0	0	527	418	0	616	0	0	
10	0	0	0	0	530	417	0	642	0	0	
11	0	0	0	0	531	421	0	647	0	0	
12	0	0	0	0	533	430	0	632	0	0	
13	0	0	0	0	535	441	0	601	0	0	
14	0	0	0	0	536	455	0	555	0	0	
15	0	0	0	0	537	470	0	499	0	0	
0	0	0	0	0	539	486	0	440	0	0	
1	0	0	0	0	539	500	0	381	0	0	
2	0	0	0	0	540	512	0	329	0	0	
3	0	0	0	0	540	520	0	287	0	0	
4	0	0	0	0	539	525	0	261	0	0	
5	0	0	0	0	539	523	0	254	0	0	
6	0	0	0	0	537	515	0	267	0	0	
7	0	0	0	0	535	500	0	300	0	0	
8	0	0	0	0	532	481	0	351	0	0	
9	0	0	0	0	528	459	0	414	0	0	
10	0	0	0	0	524	437	0	483	0	0	
11	0	0	0	0	520	418	0	549	0	0	
12	0	0	0	0	516	403	0	606	0	0	
13	0	0	0	0	512	393	0	648	0	0	
14	0	0	0	0	508	390	0	670	0	0	
15	0	0	0	0	506	391	0	670	0	0	
0	0	0	0	0	504	400	0	649	0	0	
1	0	0	0	0	504	412	0	611	0	0	
2	0	0	0	0	504	428	0	558	0	0	
3	0	0	0	0	505	445	0	496	0	0	
4	0	0	0	0	508	462	0	430	0	0	
5	0	0	0	0	510	478	0	364	0	0	
6	0	0	0	0	513	492	0	306	0	0	
7	0	0	0	0	515	502	0	259	0	0	
8	0	0	0	0	518	508	0	228	0	0	
9	0	0	0	0	520	510	0	216	0	0	
10	0	0	0	0	523	505	0	225	0	0	
11	0	0	0	0	526	496	0	256	0	0	
12	0	0	0	0	528	481	0	306	0	0	
13	0	0	0	0	530	464	0	370	0	0	
14	0	0	0	0	531	447	0	442	0	0	
15	0	0	0	0	533	432	0	513	0	0	
0	0	0	0	0	535	420	0	577	0	0	
1	0	0	0	0	535	413	0	626	0	0	
2	0	0	0	0	534	411	0	655	0	0	
3	0	0	0	0	532	414	0	662	0	0	
4	0	0	0	0	530	421	0	648	0	0	
5	0	0	0	0	529	431	0	615	0	0	
6	0	0	0	0	527	444	0	567	0	0	
7	0	0	0	0	525	458	0	509	0	0	
8	0	0	0	0	523	472	0	446	0	0	
9	0	0	0	0	522	486	0	383	0	0	
10	0	0	0	0	522	499	0	327	0	0	
11	0	0	0	0	522	508	0	281	0	0	
12	0	0	0	0	523	514	0	250	0	0	
13	0	0	0	0	525	516	0	238	0	0	
14	0	0	0	0	528	512	0	248	0	0	
15	0	0	0	0	531	504	0	278	0	0	
0	0	0	0	0	535	490	0	325	0	0	
1	0	0	0	0	538	474	0	386	0	0	
2	0	0	0	0	541	457	0	454	0	0	
3	0	0	0	0	543	443	0	520	0	0	
4	0	0	0	0	544	432	0	581	0	0	
5	0	0	0	0	544	425	0	626	0	0	
6	0	0	0	0	543	422	0	653	0	0	
7	0	0	0	0	542	423	0	658	0	0	
8	0	0	0	0	538	429	0	642	0	0	
9	0	0	0	0	535	437	0	609	0	0	
10	0	0	0	0	529	447	0	561	0	0	
11	0	0	0	0	524	457	0	504	0	0	
12	0	0	0	0	519	468	0	441	0	0	
13	0	0	0	0	513	479	0	380	0	0	
14	0	0	0	0	511	488	0	325	0	0	
15	0	0	0	0	508	495	0	280	0	0	
0	0	0	0	0	508	500	0	249	0	0	
1	0	0	0	0	508	502	0	237	0	0	
2	0	0	0	0	509	499	0	244	0	0	
3	0	0	0	0	513	492	0	272	0	0	
4	0	0	0	0	516	481	0	318	0	0	
5	0	0	0	0	519	468	0	377	0	0	
6	0	0	0	0	523	455	0	443	0	0	
7	0	0	0	0	526	443	0	508	0	0	
8	0	0	0	0	528	434	0	567	0	0	
9	0	0	0	0	530	427	0	610	0	0	
10	0	0	0	0	530	425	0	636	0	0	
11	0	0	0	0	529	426	0	640	0	0	
12	0	0	0	0	528	430	0	625	0	0	
13	0	0	0	0	526	437	0	593	0	0	
14	0	0	0	0	523	446	0	547	0	0	
15	0	0	0	0	520	456	0	492	0	0	
0	0	0	0	0	518	467	0	432	0	0	
1	0	0	0	0	516	477	0	374	0	0	
2	0	0	0	0	515	486	0	320	0	0	
3	0	0	0	0	513	493	0	275	0	0	
4	0	0	0	0	513	498	0	243	0	0	
5	0	0	0	0	513	500	0	228	0	0	
6	0	0	0	0	513	499	0	231	0	0	
7	0	0	0	0	515	494	0	253	0	0	
8	0	0	0	0	517	485	0	294	0	0	
9	0	0	0	0	518	475	0	348	0	0	
10	0	0	0	0	519	463	0	410	0	0	
11	0	0	0	0	520	453	0	474	0	0	
12	0	0	0	0	521	444	0	531	0	0	
13	0	0	0	0	521	439	0	575	0	0	
14	0	0	0	0	521	436	0	602	0	0	
15	0	0	0	0	521	436	0	609	0	0	
0	0	0	0	0	520	439	0	598	0	0	
1	0	0	0	0	520	444	0	570	0	0	
2	0	0	0	0	520	452	0	529	0	0	
3	0	0	0	0	521	461	0	480	0	0	
4	0	0	0	0	522	471	0	427	0	0	
5	0	0	0	0	523	481	0	374	0	0	
6	0	0	0	0	526	490	0	325	0	0	
7	0	0	0	0	528	499	0	284	0	0	
8	0	0	0	0	531	505	0	255	0	0	
9	0	0	0	0	533	509	0	241	0	0	
10	0	0	0	0	534	510	0	242	0	0	
11	0	0	0	0	536	507	0	262	0	0	
12	0	0	0	0	536	499	0	297	0	0	
13	0	0	0	0	536	490	0	347	0	0	
14	0	0	0	0	535	479	0	404	0	0	
15	0	0	0	0	533	468	0	464	0	0	
0	0	0	0	0	530	459	0	519	0	0	
1	0	0	0	0	527	451	0	563	0	0	
2	0	0	0	0	524	447	0	590	0	0	
3	0	0	0	0	521	445	0	600	0	0	
4	0	0	0	0	518	446	0	590	0	0	
5	0	0	0	0	516	448	0	565	0	0	
6	0	0	0	0	513	453	0	526	0	0	
7	0	0	0	0	511	457	0	477	0	0	
8	0	0	0	0	510	463	0	423	0	0	
9	0	0	0	0	508	469	0	369	0	0	
10	0	0	0	0	508	474	0	318	0	0	
11	0	0	0	0	507	478	0	275	0	0	
12	0	0	0	0	507	481	0	244	0	0	
13	0	0	0	0	506	481	0	228	0	0	
14	0	0	0	0	507	479	0	230	0	0	
15	0	0	0	0	508	474	0	251	0	0	
0	0	0	0	0	509	467	0	290	0	0	
1	0	0	0	0	511	459	0	343	0	0	
2	0	0	0	0	512	450	0	403	0	0	
3	0	0	0	0	515	443	0	466	0	0	
4	0	0	0	0	518	439	0	523	0	0	
5	0	0	0	0	520	437	0	569	0	0	
6	0	0	0	0	524	439	0	598	0	0	
7	0	0	0	0	526	443	0	608	0	0	
8	0	0	0	0	530	450	0	600	0	0	
9	0	0	0	0	532	459	0	576	0	0	
10	0	0	0	0	535	468	0	538	0	0	
11	0	0	0	0	536	479	0	491	0	0	
12	0	0	0	0	536	487	0	439	0	0	
13	0	0	0	0	536	496	0	385	0	0	
14	0	0	0	0	534	502	0	336	0	0	
15	0	0	0	0	531	506	0	294	0	0	
0	0	0	0	0	528	508	0	264	0	0	
1	0	0	0	0	524	506	0	250	0	0	
2	0	0	0	0	521	501	0	254	0	0	
3	0	0	0	0	518	492	0	276	0	0	
4	0	0	0	0	515	479	0	317	0	0	
5	0	0	0	0	513	464	0	372	0	0	
6	0	0	0	0	512	450	0	436	0	0	
7	0	0	0	0	513	437	0	501	0	0	
8	0	0	0	0	514	428	0	560	0	0	
9	0	0	0	0	516	423	0	607	0	0	
10	0	0	0	0	519	422	0	636	0	0	
11	0	0	0	0	522	426	0	646	0	0	
12	0	0	0	0	526	433	0	635	0	0	
13	0	0	0	0	528	442	0	607	0	0	
14	0	0	0	0	529	453	0	563	0	0	
15	0	0	0	0	529	464	0	510	0	0	
0	0	0	0	0	528	474	0	450	0	0	
1	0	0	0	0	526	483	0	390	0	0	
2	0	0	0	0	523	491	0	334	0	0	
3	0	0	0	0	520	496	0	285	0	0	
4	0	0	0	0	516	499	0	248	0	0	
5	0	0	0	0	513	499	0	227	0	0	
6	0	0	0	0	512	497	0	223	0	0	
7	0	0	0	0	511	492	0	239	0	0	
8	0	0	0	0	510	484	0	272	0	0	
9	0	0	0	0	510	476	0	321	0	0	
10	0	0	0	0	512	467	0	379	0	0	
11	0	0	0	0	513	459	0	441	0	0	
12	0	0	0	0	515	452	0	499	0	0	
13	0	0	0	0	515	447	0	547	0	0	
14	0	0	0	0	517	445	0	579	0	0	
15	0	0	0	0	518	445	0	593	0	0	
0	0	0	0	0	518	448	0	589	0	0	
1	0	0	0	0	518	451	0	568	0	0	
2	0	0	0	0	517	456	0	533	0	0	
3	0	0	0	0	516	463	0	489	0	0	
4	0	0	0	0	515	469	0	440	0	0	
5	0	0	0	0	513	476	0	388	0	0	
6	0	0	0	0	512	481	0	340	0	0	
7	0	0	0	0	511	486	0	299	0	0	
8	0	0	0	0	511	490	0	271	0	0	
9	0	0	0	0	511	492	0	255	0	0	
10	0	0	0	0	512	492	0	257	0	0	
11	0	0	0	0	515	488	0	277	0	0	
12	0	0	0	0	518	481	0	314	0	0	
13	0	0	0	0	521	472	0	366	0	0	
14	0	0	0	0	524	462	0	426	0	0	
15	0	0	0	0	527	453	0	489	0	0	
0	0	0	0	0	530	445	0	547	0	0	
1	0	0	0	0	532	440	0	593	0	0	
2	0	0	0	0	533	438	0	622	0	0	
3	0	0	0	0	532	438	0	631	0	0	
4	0	0	0	0	529	440	0	620	0	0	
5	0	0	0	0	526	443	0	592	0	0	
6	0	0	0	0	521	447	0	548	0	0	
7	0	0	0	0	515	451	0	494	0	0	
8	0	0	0	0	507	455	0	433	0	0	
9	0	0	0	0	498	457	0	370	0	0	
10	0	0	0	0	489	457	0	309	0	0	
11	0	0	0	0	480	456	0	255	0	0	
12	0	0	0	0	470	453	0	209	0	0	
13	0	0	0	0	459	446	0	176	0	0	
14	0	0	0	0	449	438	0	159	0	0	
15	0	0	0	0	438	428	0	159	0	0	
0	0	0	0	0	428	416	0	176	0	0	
1	0	0	0	0	417	403	0	210	0	0	
2	0	0	0	0	406	388	0	255	0	0	
3	0	0	0	0	396	374	0	304	0	0	
4	0	0	0	0	385	359	0	351	0	0	
5	0	0	0	0	374	344	0	390	0	0	
6	0	0	0	0	363	329	0	414	0	0	
7	0	0	0	0	353	315	0	422	0	0	
8	0	0	0	0	343	303	0	411	0	0	
9	0	0	0	0	333	291	0	385	0	0	
10	0	0	0	0	324	282	0	345	0	0	
11	0	0	0	0	317	275	0	297	0	0	
12	0	0	0	0	312	271	0	246	0	0	
13	0	0	0	0	309	270	0	194	0	0	
14	0	0	0	0	310	272	0	146	0	0	
15	0	0	0	0	315	279	0	107	0	0	
0	0	0	0	0	322	288	0	79	0	0	
1	0	0	0	0	335	300	0	66	0	0	
2	0	0	0	0	350	316	0	70	0	0	
3	0	0	0	0	370	333	0	93	0	0	
4	0	0	0	0	392	351	0	138	0	0	
5	0	0	0	0	417	369	0	201	0	0	
6	0	0	0	0	442	388	0	276	0	0	
7	0	0	0	0	467	407	0	359	0	0	
8	0	0	0	0	493	425	0	443	0	0	
9	0	0	0	0	515	443	0	518	0	0	
10	0	0	0	0	535	459	0	578	0	0	
11	0	0	0	0	551	474	0	619	0	0	
12	0	0	0	0	561	487	0	637	0	0	
13	0	0	0	0	569	497	0	635	0	0	
14	0	0	0	0	572	504	0	612	0	0	
15	0	0	0	0	571	510	0	574	0	0	
0	0	0	0	0	566	512	0	525	0	0	
1	0	0	0	0	558	513	0	471	0	0	
2	0	0	0	0	550	511	0	417	0	0	
3	0	0	0	0	540	508	0	372	0	0	
4	0	0	0	0	530	501	0	341	0	0	
5	0	0	0	0	522	492	0	327	0	0	
6	0	0	0	0	515	481	0	332	0	0	
7	0	0	0	0	510	468	0	358	0	0	
8	0	0	0	0	507	454	0	400	0	0	
9	0	0	0	0	506	441	0	455	0	0	
10	0	0	0	0	508	430	0	516	0	0	
11	0	0	0	0	510	423	0	575	0	0	
12	0	0	0	0	515	420	0	627	0	0	
13	0	0	0	0	520	422	0	664	0	0	
14	0	0	0	0	526	427	0	683	0	0	
15	0	0	0	0	531	436	0	682	0	0	
0	0	0	0	0	536	448	0	662	0	0	
1	0	0	0	0	540	462	0	624	0	0	
2	0	0	0	0	543	475	0	574	0	0	
3	0	0	0	0	545	488	0	515	0	0	
4	0	0	0	0	547	499	0	453	0	0	
5	0	0	0	0	547	510	0	391	0	0	
6	0	0	0	0	547	518	0	337	0	0	
7	0	0	0	0	546	523	0	294	0	0	
8	0	0	0	0	545	525	0	267	0	0	
9	0	0	0	0	545	523	0	258	0	0	
10	0	0	0	0	543	517	0	270	0	0	
11	0	0	0	0	543	507	0	303	0	0	
12	0	0	0	0	543	493	0	355	0	0	
13	0	0	0	0	542	477	0	421	0	0	
14	0	0	0	0	541	461	0	494	0	0	
15	0	0	0	0	541	448	0	566	0	0	
0	0	0	0	0	540	437	0	631	0	0	
1	0	0	0	0	540	431	0	681	0	0	
2	0	0	0	0	541	430	0	711	0	0	
3	0	0	0	0	542	433	0	721	0	0	
4	0	0	0	0	543	441	0	707	0	0	
5	0	0	0	0	545	452	0	674	0	0	
6	0	0	0	0	546	466	0	624	0	0	
7	0	0	0	0	548	480	0	561	0	0	
8	0	0	0	0	549	494	0	493	0	0	
9	0	0	0	0	549	506	0	424	0	0	
10	0	0	0	0	550	516	0	360	0	0	
11	0	0	0	0	548	523	0	307	0	0	
12	0	0	0	0	547	527	0	270	0	0	
13	0	0	0	0	544	526	0	252	0	0	
14	0	0	0	0	541	521	0	255	0	0	
15	0	0	0	0	540	512	0	280	0	0	
0	0	0	0	0	537	499	0	325	0	0	
1	0	0	0	0	534	484	0	386	0	0	
2	0	0	0	0	531	470	0	455	0	0	
3	0	0	0	0	530	457	0	524	0	0	
4	0	0	0	0	530	448	0	588	0	0	
5	0	0	0	0	529	441	0	636	0	0	
6	0	0	0	0	530	440	0	665	0	0	
7	0	0	0	0	531	441	0	673	0	0	
8	0	0	0	0	532	447	0	660	0	0	
9	0	0	0	0	534	455	0	627	0	0	
10	0	0	0	0	536	465	0	579	0	0	
11	0	0	0	0	537	476	0	521	0	0	
12	0	0	0	0	539	487	0	457	0	0	
13	0	0	0	0	540	498	0	394	0	0	
14	0	0	0	0	542	508	0	335	0	0	
15	0	0	0	0	543	515	0	287	0	0	
0	0	0	0	0	544	520	0	252	0	0	
1	0	0	0	0	545	522	0	236	0	0	
2	0	0	0	0	545	520	0	239	0	0	
3	0	0	0	0	545	514	0	264	0	0	
4	0	0	0	0	545	504	0	308	0	0	
5	0	0	0	0	544	492	0	368	0	0	
6	0	0	0	0	543	480	0	436	0	0	
7	0	0	0	0	543	469	0	507	0	0	
8	0	0	0	0	543	460	0	572	0	0	
9	0	0	0	0	543	455	0	623	0	0	
10	0	0	0	0	542	453	0	656	0	0	
11	0	0	0	0	542	454	0	668	0	0	
12	0	0	0	0	540	457	0	657	0	0	
13	0	0	0	0	540	463	0	628	0	0	
14	0	0	0	0	539	471	0	581	0	0	
15	0	0	0	0	537	478	0	522	0	0	
0	0	0	0	0	534	484	0	456	0	0	
1	0	0	0	0	531	490	0	390	0	0	
2	0	0	0	0	529	495	0	327	0	0	
3	0	0	0	0	526	497	0	274	0	0	
4	0	0	0	0	524	499	0	237	0	0	
5	0	0	0	0	522	498	0	219	0	0	
6	0	0	0	0	523	495	0	222	0	0	
7	0	0	0	0	524	488	0	248	0	0	
8	0	0	0	0	526	479	0	295	0	0	
9	0	0	0	0	529	470	0	358	0	0	
10	0	0	0	0	532	460	0	430	0	0	
11	0	0	0	0	537	453	0	504	0	0	
12	0	0	0	0	542	449	0	574	0	0	
13	0	0	0	0	546	448	0	631	0	0	
14	0	0	0	0	550	450	0	669	0	0	
15	0	0	0	0	553	455	0	686	0	0	
0	0	0	0	0	556	463	0	680	0	0	
1	0	0	0	0	559	474	0	655	0	0	
2	0	0	0	0	561	486	0	611	0	0	
3	0	0	0	0	563	497	0	556	0	0	
4	0	0	0	0	564	508	0	493	0	0	
5	0	0	0	0	565	518	0	428	0	0	
6	0	0	0	0	564	526	0	369	0	0	
7	0	0	0	0	563	531	0	321	0	0	
8	0	0	0	0	562	531	0	291	0	0	
9	0	0	0	0	560	527	0	281	0	0	
10	0	0	0	0	559	518	0	292	0	0	
11	0	0	0	0	557	504	0	326	0	0	
12	0	0	0	0	554	487	0	377	0	0	
13	0	0	0	0	551	469	0	443	0	0	
14	0	0	0	0	547	451	0	514	0	0	
15	0	0	0	0	543	436	0	583	0	0	
0	0	0	0	0	537	423	0	644	0	0	
1	0	0	0	0	532	416	0	689	0	0	
2	0	0	0	0	527	413	0	713	0	0	
3	0	0	0	0	523	415	0	714	0	0	
4	0	0	0	0	519	421	0	692	0	0	
5	0	0	0	0	516	430	0	649	0	0	
6	0	0	0	0	514	441	0	590	0	0	
7	0	0	0	0	515	455	0	520	0	0	
8	0	0	0	0	515	468	0	445	0	0	
9	0	0	0	0	517	481	0	371	0	0	
10	0	0	0	0	520	493	0	305	0	0	
11	0	0	0	0	523	502	0	252	0	0	
12	0	0	0	0	527	507	0	218	0	0	
13	0	0	0	0	530	509	0	206	0	0	
14	0	0	0	0	532	506	0	218	0	0	
15	0	0	0	0	536	498	0	254	0	0	
0	0	0	0	0	537	486	0	311	0	0	
1	0	0	0	0	537	472	0	384	0	0	
2	0	0	0	0	536	457	0	466	0	0	
3	0	0	0	0	535	444	0	548	0	0	
4	0	0	0	0	534	434	0	624	0	0	
5	0	0	0	0	531	427	0	684	0	0	
6	0	0	0	0	529	424	0	723	0	0	
7	0	0	0	0	527	425	0	739	0	0	
8	0	0	0	0	525	430	0	728	0	0	
9	0	0	0	0	525	439	0	695	0	0	
10	0	0	0	0	524	449	0	640	0	0	
11	0	0	0	0	525	460	0	572	0	0	
12	0	0	0	0	525	472	0	495	0	0	
13	0	0	0	0	525	482	0	415	0	0	
14	0	0	0	0	526	492	0	343	0	0	
15	0	0	0	0	527	498	0	283	0	0	
0	0	0	0	0	527	501	0	242	0	0	
1	0	0	0	0	527	499	0	225	0	0	
2	0	0	0	0	527	493	0	232	0	0	
3	0	0	0	0	528	483	0	265	0	0	
4	0	0	0	0	528	470	0	319	0	0	
5	0	0	0	0	529	455	0	388	0	0	
6	0	0	0	0	529	443	0	466	0	0	
7	0	0	0	0	530	433	0	543	0	0	
8	0	0	0	0	531	426	0	612	0	0	
9	0	0	0	0	533	424	0	664	0	0	
10	0	0	0	0	534	426	0	694	0	0	
11	0	0	0	0	535	431	0	700	0	0	
12	0	0	0	0	535	439	0	681	0	0	
13	0	0	0	0	536	449	0	642	0	0	
14	0	0	0	0	536	460	0	586	0	0	
15	0	0	0	0	536	471	0	518	0	0	
0	0	0	0	0	536	482	0	444	0	0	
1	0	0	0	0	535	492	0	371	0	0	
2	0	0	0	0	536	499	0	304	0	0	
3	0	0	0	0	534	505	0	249	0	0	
4	0	0	0	0	535	509	0	210	0	0	
5	0	0	0	0	534	510	0	191	0	0	
6	0	0	0	0	534	507	0	193	0	0	
7	0	0	0	0	535	503	0	219	0	0	
8	0	0	0	0	536	496	0	265	0	0	
9	0	0	0	0	536	487	0	327	0	0	
10	0	0	0	0	536	479	0	398	0	0	
11	0	0	0	0	536	471	0	471	0	0	
12	0	0	0	0	536	465	0	539	0	0	
13	0	0	0	0	536	461	0	593	0	0	
14	0	0	0	0	535	460	0	627	0	0	
15	0	0	0	0	535	460	0	641	0	0	
0	0	0	0	0	534	463	0	632	0	0	
1	0	0	0	0	534	467	0	604	0	0	
2	0	0	0	0	535	473	0	560	0	0	
3	0	0	0	0	535	480	0	504	0	0	
4	0	0	0	0	536	487	0	443	0	0	
5	0	0	0	0	536	494	0	381	0	0	
6	0	0	0	0	539	500	0	323	0	0	
7	0	0	0	0	540	505	0	277	0	0	
8	0	0	0	0	541	508	0	247	0	0	
9	0	0	0	0	542	508	0	235	0	0	
10	0	0	0	0	543	504	0	245	0	0	
11	0	0	0	0	545	496	0	277	0	0	
12	0	0	0	0	546	486	0	329	0	0	
13	0	0	0	0	547	473	0	395	0	0	
14	0	0	0	0	547	461	0	468	0	0	
15	0	0	0	0	547	451	0	541	0	0	
0	0	0	0	0	548	444	0	607	0	0	
1	0	0	0	0	547	440	0	657	0	0	
2	0	0	0	0	547	440	0	688	0	0	
3	0	0	0	0	546	443	0	696	0	0	
4	0	0	0	0	545	449	0	680	0	0	
5	0	0	0	0	545	458	0	645	0	0	
6	0	0	0	0	544	468	0	593	0	0	
7	0	0	0	0	544	479	0	530	0	0	
8	0	0	0	0	543	489	0	461	0	0	
9	0	0	0	0	543	499	0	391	0	0	
10	0	0	0	0	543	507	0	327	0	0	
11	0	0	0	0	543	512	0	277	0	0	
12	0	0	0	0	542	515	0	244	0	0	
13	0	0	0	0	542	511	0	233	0	0	
14	0	0	0	0	542	503	0	247	0	0	
15	0	0	0	0	542	489	0	286	0	0	
0	0	0	0	0	541	471	0	345	0	0	
1	0	0	0	0	541	451	0	422	0	0	
2	0	0	0	0	541	431	0	505	0	0	
3	0	0	0	0	540	414	0	588	0	0	
4	0	0	0	0	541	402	0	664	0	0	
5	0	0	0	0	541	396	0	724	0	0	
6	0	0	0	0	542	396	0	763	0	0	
7	0	0	0	0	543	402	0	777	0	0	
8	0	0	0	0	544	413	0	766	0	0	
9	0	0	0	0	545	427	0	731	0	0	
10	0	0	0	0	546	444	0	675	0	0	
11	0	0	0	0	547	461	0	603	0	0	
12	0	0	0	0	546	478	0	521	0	0	
13	0	0	0	0	545	492	0	437	0	0	
14	0	0	0	0	543	504	0	358	0	0	
15	0	0	0	0	541	512	0	290	0	0	
0	0	0	0	0	539	517	0	240	0	0	
1	0	0	0	0	536	518	0	211	0	0	
2	0	0	0	0	535	515	0	207	0	0	
3	0	0	0	0	534	508	0	227	0	0	
4	0	0	0	0	533	498	0	270	0	0	
5	0	0	0	0	532	487	0	331	0	0	
6	0	0	0	0	532	475	0	403	0	0	
7	0	0	0	0	531	465	0	477	0	0	
8	0	0	0	0	531	457	0	545	0	0	
9	0	0	0	0	532	451	0	599	0	0	
10	0	0	0	0	532	449	0	633	0	0	
11	0	0	0	0	532	450	0	646	0	0	
12	0	0	0	0	531	452	0	635	0	0	
13	0	0	0	0	531	456	0	606	0	0	
14	0	0	0	0	529	462	0	560	0	0	
15	0	0	0	0	527	467	0	504	0	0	
0	0	0	0	0	526	473	0	441	0	0	
1	0	0	0	0	523	480	0	379	0	0	
2	0	0	0	0	522	485	0	320	0	0	
3	0	0	0	0	520	490	0	271	0	0	
4	0	0	0	0	519	493	0	236	0	0	
5	0	0	0	0	518	494	0	218	0	0	
6	0	0	0	0	515	492	0	220	0	0	
7	0	0	0	0	515	488	0	243	0	0	
8	0	0	0	0	513	481	0	285	0	0	
9	0	0	0	0	512	472	0	343	0	0	
10	0	0	0	0	510	463	0	409	0	0	
11	0	0	0	0	510	456	0	477	0	0	
12	0	0	0	0	511	450	0	539	0	0	
13	0	0	0	0	511	445	0	587	0	0	
14	0	0	0	0	512	443	0	616	0	0	
15	0	0	0	0	513	444	0	625	0	0	
0	0	0	0	0	516	447	0	614	0	0	
1	0	0	0	0	519	452	0	586	0	0	
2	0	0	0	0	523	459	0	543	0	0	
3	0	0	0	0	526	467	0	492	0	0	
4	0	0	0	0	529	475	0	435	0	0	
5	0	0	0	0	532	483	0	379	0	0	
6	0	0	0	0	536	491	0	326	0	0	
7	0	0	0	0	538	497	0	281	0	0	
8	0	0	0	0	539	502	0	247	0	0	
9	0	0	0	0	540	505	0	226	0	0	
10	0	0	0	0	540	506	0	220	0	0	
11	0	0	0	0	540	504	0	234	0	0	
12	0	0	0	0	539	499	0	265	0	0	
13	0	0	0	0	538	493	0	312	0	0	
14	0	0	0	0	536	486	0	369	0	0	
15	0	0	0	0	535	479	0	431	0	0	
0	0	0	0	0	534	473	0	490	0	0	
1	0	0	0	0	532	468	0	540	0	0	
2	0	0	0	0	531	465	0	575	0	0	
3	0	0	0	0	529	464	0	591	0	0	
4	0	0	0	0	529	466	0	590	0	0	
5	0	0	0	0	529	468	0	572	0	0	
6	0	0	0	0	528	472	0	539	0	0	
7	0	0	0	0	529	477	0	496	0	0	
8	0	0	0	0	529	483	0	448	0	0	
9	0	0	0	0	530	488	0	396	0	0	
10	0	0	0	0	531	493	0	348	0	0	
11	0	0	0	0	532	498	0	307	0	0	
12	0	0	0	0	533	501	0	277	0	0	
13	0	0	0	0	533	502	0	262	0	0	
14	0	0	0	0	534	502	0	264	0	0	
15	0	0	0	0	534	498	0	285	0	0	
0	0	0	0	0	535	492	0	323	0	0	
1	0	0	0	0	536	484	0	376	0	0	
2	0	0	0	0	536	476	0	437	0	0	
3	0	0	0	0	536	470	0	499	0	0	
4	0	0	0	0	536	464	0	557	0	0	
5	0	0	0	0	536	460	0	603	0	0	
6	0	0	0	0	535	458	0	631	0	0	
7	0	0	0	0	534	458	0	639	0	0	
8	0	0	0	0	533	460	0	629	0	0	
9	0	0	0	0	531	463	0	601	0	0	
10	0	0	0	0	529	467	0	559	0	0	
11	0	0	0	0	526	472	0	506	0	0	
12	0	0	0	0	524	478	0	448	0	0	
13	0	0	0	0	521	482	0	390	0	0	
14	0	0	0	0	520	486	0	335	0	0	
15	0	0	0	0	519	490	0	289	0	0	
0	0	0	0	0	518	493	0	255	0	0	
1	0	0	0	0	517	495	0	237	0	0	
2	0	0	0	0	516	494	0	239	0	0	
3	0	0	0	0	517	490	0	261	0	0	
4	0	0	0	0	518	485	0	301	0	0	
5	0	0	0	0	519	478	0	356	0	0	
6	0	0	0	0	521	471	0	420	0	0	
7	0	0	0	0	523	465	0	487	0	0	
8	0	0	0	0	524	460	0	547	0	0	
9	0	0	0	0	526	457	0	595	0	0	
10	0	0	0	0	527	455	0	624	0	0	
11	0	0	0	0	527	455	0	634	0	0	
12	0	0	0	0	528	459	0	624	0	0	
13	0	0	0	0	529	463	0	596	0	0	
14	0	0	0	0	530	468	0	555	0	0	
15	0	0	0	0	530	474	0	503	0	0	
0	0	0	0	0	529	480	0	446	0	0	
1	0	0	0	0	528	486	0	388	0	0	
2	0	0	0	0	528	490	0	334	0	0	
3	0	0	0	0	527	494	0	287	0	0	
4	0	0	0	0	526	497	0	250	0	0	
5	0	0	0	0	524	498	0	227	0	0	
6	0	0	0	0	523	497	0	220	0	0	
7	0	0	0	0	522	495	0	232	0	0	
8	0	0	0	0	521	491	0	262	0	0	
9	0	0	0	0	520	486	0	306	0	0	
10	0	0	0	0	518	480	0	362	0	0	
11	0	0	0	0	516	475	0	423	0	0	
12	0	0	0	0	516	470	0	481	0	0	
13	0	0	0	0	515	466	0	530	0	0	
14	0	0	0	0	513	463	0	564	0	0	
15	0	0	0	0	512	462	0	582	0	0	
0	0	0	0	0	512	462	0	581	0	0	
1	0	0	0	0	512	463	0	564	0	0	
2	0	0	0	0	512	466	0	533	0	0	
3	0	0	0	0	514	471	0	492	0	0	
4	0	0	0	0	515	476	0	446	0	0	
5	0	0	0	0	518	480	0	398	0	0	
6	0	0	0	0	520	486	0	352	0	0	
7	0	0	0	0	523	491	0	312	0	0	
8	0	0	0	0	526	495	0	283	0	0	
9	0	0	0	0	529	498	0	269	0	0	
10	0	0	0	0	532	499	0	271	0	0	
11	0	0	0	0	536	496	0	292	0	0	
12	0	0	0	0	538	491	0	332	0	0	
13	0	0	0	0	541	483	0	387	0	0	
14	0	0	0	0	543	475	0	450	0	0	
15	0	0	0	0	544	467	0	516	0	0	
0	0	0	0	0	545	462	0	577	0	0	
1	0	0	0	0	546	458	0	626	0	0	
2	0	0	0	0	546	457	0	657	0	0	
3	0	0	0	0	545	458	0	669	0	0	
4	0	0	0	0	543	460	0	659	0	0	
5	0	0	0	0	541	466	0	631	0	0	
6	0	0	0	0	537	471	0	587	0	0	
7	0	0	0	0	534	477	0	532	0	0	
8	0	0	0	0	530	483	0	470	0	0	
9	0	0	0	0	526	488	0	407	0	0	
10	0	0	0	0	523	493	0	348	0	0	
11	0	0	0	0	519	497	0	297	0	0	
12	0	0	0	0	516	499	0	259	0	0	
13	0	0	0	0	514	500	0	238	0	0	
14	0	0	0	0	513	499	0	236	0	0	
15	0	0	0	0	513	496	0	255	0	0	
0	0	0	0	0	513	491	0	293	0	0	
1	0	0	0	0	515	485	0	347	0	0	
2	0	0	0	0	517	479	0	410	0	0	
3	0	0	0	0	519	473	0	477	0	0	
4	0	0	0	0	522	469	0	540	0	0	
5	0	0	0	0	524	467	0	592	0	0	
6	0	0	0	0	526	466	0	627	0	0	
7	0	0	0	0	526	467	0	642	0	0	
8	0	0	0	0	527	470	0	637	0	0	
9	0	0	0	0	528	474	0	613	0	0	
10	0	0	0	0	527	479	0	574	0	0	
11	0	0	0	0	527	484	0	524	0	0	
12	0	0	0	0	527	489	0	468	0	0	
13	0	0	0	0	527	494	0	411	0	0	
14	0	0	0	0	528	499	0	357	0	0	
15	0	0	0	0	528	503	0	312	0	0	
0	0	0	0	0	530	507	0	281	0	0	
1	0	0	0	0	531	508	0	266	0	0	
2	0	0	0	0	534	507	0	271	0	0	
3	0	0	0	0	536	502	0	296	0	0	
4	0	0	0	0	537	495	0	340	0	0	
5	0	0	0	0	538	485	0	399	0	0	
6	0	0	0	0	539	475	0	465	0	0	
7	0	0	0	0	540	467	0	533	0	0	
8	0	0	0	0	540	460	0	594	0	0	
9	0	0	0	0	539	455	0	642	0	0	
10	0	0	0	0	538	453	0	671	0	0	
11	0	0	0	0	537	454	0	680	0	0	
12	0	0	0	0	534	456	0	667	0	0	
13	0	0	0	0	532	461	0	635	0	0	
14	0	0	0	0	530	467	0	587	0	0	
15	0	0	0	0	527	473	0	528	0	0	
0	0	0	0	0	524	479	0	464	0	0	
1	0	0	0	0	522	485	0	399	0	0	
2	0	0	0	0	520	491	0	339	0	0	
3	0	0	0	0	519	495	0	289	0	0	
4	0	0	0	0	519	499	0	253	0	0	
5	0	0	0	0	519	501	0	235	0	0	
6	0	0	0	0	520	500	0	236	0	0	
7	0	0	0	0	524	497	0	259	0	0	
8	0	0	0	0	527	491	0	303	0	0	
9	0	0	0	0	530	483	0	363	0	0	
10	0	0	0	0	534	476	0	432	0	0	
11	0	0	0	0	536	468	0	502	0	0	
12	0	0	0	0	539	463	0	567	0	0	
13	0	0	0	0	541	459	0	619	0	0	
14	0	0	0	0	542	457	0	653	0	0	
15	0	0	0	0	541	457	0	665	0	0	
0	0	0	0	0	540	460	0	656	0	0	
1	0	0	0	0	539	465	0	628	0	0	
2	0	0	0	0	537	471	0	584	0	0	
3	0	0	0	0	536	478	0	529	0	0	
4	0	0	0	0	534	484	0	468	0	0	
5	0	0	0	0	532	491	0	406	0	0	
6	0	0	0	0	531	497	0	348	0	0	
7	0	0	0	0	530	502	0	300	0	0	
8	0	0	0	0	529	505	0	265	0	0	
9	0	0	0	0	528	507	0	248	0	0	
10	0	0	0	0	529	506	0	252	0	0	
11	0	0	0	0	531	502	0	276	0	0	
12	0	0	0	0	532	495	0	320	0	0	
13	0	0	0	0	533	487	0	379	0	0	
14	0	0	0	0	535	478	0	447	0	0	
15	0	0	0	0	535	470	0	515	0	0	
0	0	0	0	0	536	463	0	579	0	0	
1	0	0	0	0	537	460	0	629	0	0	
2	0	0	0	0	537	458	0	662	0	0	
3	0	0	0	0	537	459	0	674	0	0	
4	0	0	0	0	536	462	0	664	0	0	
5	0	0	0	0	536	467	0	636	0	0	
6	0	0	0	0	535	473	0	591	0	0	
7	0	0	0	0	534	480	0	535	0	0	
8	0	0	0	0	531	486	0	473	0	0	
9	0	0	0	0	530	493	0	409	0	0	
10	0	0	0	0	529	498	0	350	0	0	
11	0	0	0	0	529	502	0	300	0	0	
12	0	0	0	0	528	505	0	264	0	0	
13	0	0	0	0	529	505	0	247	0	0	
14	0	0	0	0	530	503	0	250	0	0	
15	0	0	0	0	531	497	0	275	0	0	
0	0	0	0	0	533	490	0	319	0	0	
1	0	0	0	0	535	481	0	378	0	0	
2	0	0	0	0	537	472	0	447	0	0	
3	0	0	0	0	538	465	0	515	0	0	
4	0	0	0	0	540	460	0	579	0	0	
5	0	0	0	0	541	456	0	627	0	0	
6	0	0	0	0	542	455	0	657	0	0	
7	0	0	0	0	541	457	0	665	0	0	
8	0	0	0	0	541	460	0	652	0	0	
9	0	0	0	0	541	467	0	621	0	0	
10	0	0	0	0	540	473	0	574	0	0	
11	0	0	0	0	540	481	0	517	0	0	
12	0	0	0	0	538	488	0	455	0	0	
13	0	0	0	0	537	496	0	392	0	0	
14	0	0	0	0	536	502	0	332	0	0	
15	0	0	0	0	535	507	0	282	0	0	
0	0	0	0	0	534	510	0	242	0	0	
1	0	0	0	0	533	511	0	216	0	0	
2	0	0	0	0	532	510	0	209	0	0	
3	0	0	0	0	532	507	0	220	0	0	
4	0	0	0	0	532	501	0	251	0	0	
5	0	0	0	0	532	495	0	297	0	0	
6	0	0	0	0	532	487	0	357	0	0	
7	0	0	0	0	534	482	0	423	0	0	
8	0	0	0	0	536	477	0	487	0	0	
9	0	0	0	0	538	474	0	543	0	0	
10	0	0	0	0	540	473	0	585	0	0	
11	0	0	0	0	543	474	0	608	0	0	
12	0	0	0	0	544	476	0	612	0	0	
13	0	0	0	0	547	481	0	598	0	0	
14	0	0	0	0	548	486	0	567	0	0	
15	0	0	0	0	549	491	0	524	0	0	
0	0	0	0	0	549	496	0	472	0	0	
1	0	0	0	0	548	501	0	418	0	0	
2	0	0	0	0	548	505	0	365	0	0	
3	0	0	0	0	547	509	0	320	0	0	
4	0	0	0	0	546	511	0	287	0	0	
5	0	0	0	0	545	511	0	271	0	0	
6	0	0	0	0	544	508	0	273	0	0	
7	0	0	0	0	543	504	0	295	0	0	
8	0	0	0	0	541	496	0	336	0	0	
9	0	0	0	0	540	488	0	391	0	0	
10	0	0	0	0	538	479	0	453	0	0	
11	0	0	0	0	536	471	0	516	0	0	
12	0	0	0	0	536	465	0	574	0	0	
13	0	0	0	0	535	462	0	619	0	0	
14	0	0	0	0	534	460	0	647	0	0	
15	0	0	0	0	533	460	0	653	0	0	
0	0	0	0	0	533	463	0	639	0	0	
1	0	0	0	0	533	467	0	608	0	0	
2	0	0	0	0	533	472	0	561	0	0	
3	0	0	0	0	533	478	0	504	0	0	
4	0	0	0	0	534	484	0	443	0	0	
5	0	0	0	0	534	490	0	380	0	0	
6	0	0	0	0	534	495	0	323	0	0	
7	0	0	0	0	535	499	0	276	0	0	
8	0	0	0	0	534	500	0	244	0	0	
9	0	0	0	0	534	500	0	230	0	0	
10	0	0	0	0	534	496	0	236	0	0	
11	0	0	0	0	535	491	0	264	0	0	
12	0	0	0	0	535	483	0	312	0	0	
13	0	0	0	0	536	474	0	374	0	0	
14	0	0	0	0	537	466	0	444	0	0	
15	0	0	0	0	538	459	0	516	0	0	
0	0	0	0	0	539	455	0	581	0	0	
1	0	0	0	0	541	453	0	632	0	0	
2	0	0	0	0	543	453	0	663	0	0	
3	0	0	0	0	544	456	0	672	0	0	
4	0	0	0	0	546	462	0	659	0	0	
5	0	0	0	0	548	470	0	627	0	0	
6	0	0	0	0	550	477	0	579	0	0	
7	0	0	0	0	551	486	0	519	0	0	
8	0	0	0	0	552	493	0	454	0	0	
9	0	0	0	0	551	499	0	387	0	0	
10	0	0	0	0	551	504	0	325	0	0	
11	0	0	0	0	550	506	0	273	0	0	
12	0	0	0	0	547	506	0	235	0	0	
13	0	0	0	0	543	503	0	214	0	0	
14	0	0	0	0	537	497	0	213	0	0	
15	0	0	0	0	533	490	0	233	0	0	
0	0	0	0	0	526	480	0	275	0	0	
1	0	0	0	0	518	468	0	332	0	0	
2	0	0	0	0	509	456	0	399	0	0	
3	0	0	0	0	501	444	0	470	0	0	
4	0	0	0	0	492	432	0	534	0	0	
5	0	0	0	0	482	420	0	585	0	0	
6	0	0	0	0	472	409	0	616	0	0	
7	0	0	0	0	463	399	0	623	0	0	
8	0	0	0	0	452	391	0	605	0	0	
9	0	0	0	0	443	384	0	564	0	0	
10	0	0	0	0	433	376	0	504	0	0	
11	0	0	0	0	423	369	0	431	0	0	
12	0	0	0	0	413	361	0	349	0	0	
13	0	0	0	0	402	355	0	266	0	0	
14	0	0	0	0	392	347	0	185	0	0	
15	0	0	0	0	382	339	0	112	0	0	
0	0	0	0	0	373	330	0	55	0	0	
1	0	0	0	0	364	322	0	14	0	0	
2	0	0	0	0	356	314	0	0	0	0	
3	0	0	0	0	350	307	0	1	0	0	
4	0	0	0	0	345	300	0	28	0	0	
5	0	0	0	0	343	295	0	76	0	0	
6	0	0	0	0	342	292	0	140	0	0	
7	0	0	0	0	344	292	0	212	0	0	
8	0	0	0	0	350	295	0	285	0	0	
9	0	0	0	0	359	301	0	352	0	0	
10	0	0	0	0	372	311	0	407	0	0	
11	0	0	0	0	388	324	0	444	0	0	
12	0	0	0	0	406	340	0	463	0	0	
13	0	0	0	0	428	359	0	465	0	0	
14	0	0	0	0	450	379	0	450	0	0	
15	0	0	0	0	472	399	0	423	0	0	
0	0	0	0	0	494	420	0	387	0	0	
1	0	0	0	0	514	441	0	348	0	0	
2	0	0	0	0	534	460	0	309	0	0	
3	0	0	0	0	550	476	0	277	0	0	
4	0	0	0	0	562	489	0	256	0	0	
5	0	0	0	0	572	499	0	251	0	0	
6	0	0	0	0	577	503	0	265	0	0	
7	0	0	0	0	582	502	0	300	0	0	
8	0	0	0	0	583	496	0	353	0	0	
9	0	0	0	0	582	487	0	421	0	0	
10	0	0	0	0	579	476	0	496	0	0	
11	0	0	0	0	575	466	0	573	0	0	
12	0	0	0	0	572	458	0	642	0	0	
13	0	0	0	0	567	452	0	697	0	0	
14	0	0	0	0	563	449	0	732	0	0	
15	0	0	0	0	559	449	0	744	0	0	
0	0	0	0	0	555	452	0	731	0	0	
1	0	0	0	0	552	458	0	694	0	0	
2	0	0	0	0	550	465	0	639	0	0	
3	0	0	0	0	549	474	0	569	0	0	
4	0	0	0	0	548	482	0	491	0	0	
5	0	0	0	0	548	491	0	412	0	0	
6	0	0	0	0	548	497	0	336	0	0	
7	0	0	0	0	548	503	0	271	0	0	
8	0	0	0	0	548	506	0	221	0	0	
9	0	0	0	0	547	507	0	192	0	0	
10	0	0	0	0	547	506	0	185	0	0	
11	0	0	0	0	547	502	0	203	0	0	
12	0	0	0	0	546	496	0	244	0	0	
13	0	0	0	0	545	490	0	305	0	0	
14	0	0	0	0	545	483	0	378	0	0	
15	0	0	0	0	544	477	0	455	0	0	
0	0	0	0	0	545	473	0	529	0	0	
1	0	0	0	0	546	471	0	591	0	0	
2	0	0	0	0	547	470	0	634	0	0	
3	0	0	0	0	549	471	0	656	0	0	
4	0	0	0	0	550	474	0	655	0	0	
5	0	0	0	0	552	478	0	632	0	0	
6	0	0	0	0	555	483	0	591	0	0	
7	0	0	0	0	557	489	0	536	0	0	
8	0	0	0	0	559	495	0	472	0	0	
9	0	0	0	0	561	500	0	407	0	0	
10	0	0	0	0	564	505	0	344	0	0	
11	0	0	0	0	566	508	0	291	0	0	
12	0	0	0	0	568	511	0	253	0	0	
13	0	0	0	0	568	511	0	234	0	0	
14	0	0	0	0	568	510	0	238	0	0	
15	0	0	0	0	569	506	0	263	0	0	
0	0	0	0	0	568	500	0	308	0	0	
1	0	0	0	0	567	494	0	370	0	0	
2	0	0	0	0	565	488	0	441	0	0	
3	0	0	0	0	562	482	0	512	0	0	
4	0	0	0	0	559	477	0	579	0	0	
5	0	0	0	0	556	473	0	631	0	0	
6	0	0	0	0	552	471	0	663	0	0	
7	0	0	0	0	548	470	0	673	0	0	
8	0	0	0	0	545	470	0	659	0	0	
9	0	0	0	0	543	472	0	625	0	0	
10	0	0	0	0	541	474	0	574	0	0	
11	0	0	0	0	540	478	0	512	0	0	
12	0	0	0	0	540	481	0	443	0	0	
13	0	0	0	0	541	485	0	372	0	0	
14	0	0	0	0	543	489	0	306	0	0	
15	0	0	0	0	545	493	0	250	0	0	
0	0	0	0	0	547	496	0	208	0	0	
1	0	0	0	0	550	498	0	184	0	0	
2	0	0	0	0	553	499	0	181	0	0	
3	0	0	0	0	556	498	0	199	0	0	
4	0	0	0	0	558	497	0	240	0	0	
5	0	0	0	0	559	494	0	297	0	0	
6	0	0	0	0	560	491	0	368	0	0	
7	0	0	0	0	561	487	0	443	0	0	
8	0	0	0	0	563	486	0	515	0	0	
9	0	0	0	0	563	484	0	575	0	0	
10	0	0	0	0	563	483	0	618	0	0	
11	0	0	0	0	563	484	0	639	0	0	
12	0	0	0	0	563	486	0	638	0	0	
13	0	0	0	0	562	487	0	615	0	0	
14	0	0	0	0	560	488	0	573	0	0	
15	0	0	0	0	559	490	0	517	0	0	
0	0	0	0	0	556	491	0	453	0	0	
1	0	0	0	0	553	491	0	385	0	0	
2	0	0	0	0	551	492	0	321	0	0	
3	0	0	0	0	548	491	0	265	0	0	
4	0	0	0	0	545	490	0	223	0	0	
5	0	0	0	0	542	488	0	198	0	0	
6	0	0	0	0	540	485	0	194	0	0	
7	0	0	0	0	538	481	0	213	0	0	
8	0	0	0	0	536	477	0	254	0	0	
9	0	0	0	0	535	472	0	312	0	0	
10	0	0	0	0	533	467	0	382	0	0	
11	0	0	0	0	532	463	0	455	0	0	
12	0	0	0	0	531	459	0	525	0	0	
13	0	0	0	0	530	456	0	582	0	0	
14	0	0	0	0	529	455	0	620	0	0	
15	0	0	0	0	529	454	0	635	0	0	
0	0	0	0	0	530	455	0	628	0	0	
1	0	0	0	0	531	458	0	600	0	0	
2	0	0	0	0	532	461	0	554	0	0	
3	0	0	0	0	534	465	0	496	0	0	
4	0	0	0	0	536	470	0	431	0	0	
5	0	0	0	0	540	475	0	363	0	0	
6	0	0	0	0	543	480	0	300	0	0	
7	0	0	0	0	546	485	0	246	0	0	
8	0	0	0	0	550	489	0	206	0	0	
9	0	0	0	0	552	491	0	186	0	0	
10	0	0	0	0	555	492	0	187	0	0	
11	0	0	0	0	557	491	0	211	0	0	
12	0	0	0	0	558	488	0	257	0	0	
13	0	0	0	0	559	484	0	321	0	0	
14	0	0	0	0	558	480	0	396	0	0	
15	0	0	0	0	559	476	0	473	0	0	
0	0	0	0	0	557	472	0	545	0	0	
1	0	0	0	0	556	468	0	603	0	0	
2	0	0	0	0	554	466	0	641	0	0	
3	0	0	0	0	551	464	0	655	0	0	
4	0	0	0	0	549	464	0	645	0	0	
5	0	0	0	0	547	465	0	613	0	0	
6	0	0	0	0	544	466	0	563	0	0	
7	0	0	0	0	542	468	0	499	0	0	
8	0	0	0	0	540	471	0	428	0	0	
9	0	0	0	0	540	473	0	356	0	0	
10	0	0	0	0	540	476	0	288	0	0	
11	0	0	0	0	540	478	0	231	0	0	
12	0	0	0	0	541	480	0	188	0	0	
13	0	0	0	0	542	481	0	165	0	0	
14	0	0	0	0	545	482	0	164	0	0	
15	0	0	0	0	548	482	0	188	0	0	
0	0	0	0	0	551	481	0	233	0	0	
1	0	0	0	0	554	480	0	296	0	0	
2	0	0	0	0	556	478	0	371	0	0	
3	0	0	0	0	559	477	0	450	0	0	
4	0	0	0	0	561	476	0	525	0	0	
5	0	0	0	0	562	476	0	587	0	0	
6	0	0	0	0	563	476	0	629	0	0	
7	0	0	0	0	562	477	0	648	0	0	
8	0	0	0	0	561	478	0	642	0	0	
9	0	0	0	0	560	480	0	615	0	0	
10	0	0	0	0	559	480	0	568	0	0	
11	0	0	0	0	557	482	0	508	0	0	
12	0	0	0	0	555	483	0	440	0	0	
13	0	0	0	0	553	484	0	368	0	0	
14	0	0	0	0	550	485	0	300	0	0	
15	0	0	0	0	547	484	0	243	0	0	
0	0	0	0	0	544	482	0	200	0	0	
1	0	0	0	0	541	480	0	176	0	0	
2	0	0	0	0	538	476	0	174	0	0	
3	0	0	0	0	536	473	0	195	0	0	
4	0	0	0	0	534	469	0	237	0	0	
5	0	0	0	0	532	465	0	295	0	0	
6	0	0	0	0	531	462	0	363	0	0	
7	0	0	0	0	531	459	0	433	0	0	
8	0	0	0	0	533	457	0	499	0	0	
9	0	0	0	0	535	455	0	551	0	0	
10	0	0	0	0	536	455	0	584	0	0	
11	0	0	0	0	537	455	0	595	0	0	
12	0	0	0	0	539	455	0	584	0	0	
13	0	0	0	0	541	457	0	554	0	0	
14	0	0	0	0	543	459	0	507	0	0	
15	0	0	0	0	545	462	0	448	0	0	
0	0	0	0	0	546	464	0	384	0	0	
1	0	0	0	0	547	467	0	318	0	0	
2	0	0	0	0	549	470	0	257	0	0	
3	0	0	0	0	550	472	0	204	0	0	
4	0	0	0	0	551	474	0	164	0	0	
5	0	0	0	0	550	475	0	140	0	0	
6	0	0	0	0	550	476	0	135	0	0	
7	0	0	0	0	549	476	0	153	0	0	
8	0	0	0	0	547	475	0	191	0	0	
9	0	0	0	0	545	472	0	245	0	0	
10	0	0	0	0	542	470	0	311	0	0	
11	0	0	0	0	540	467	0	380	0	0	
12	0	0	0	0	537	465	0	447	0	0	
13	0	0	0	0	534	462	0	502	0	0	
14	0	0	0	0	531	460	0	540	0	0	
15	0	0	0	0	528	457	0	556	0	0	
0	0	0	0	0	527	456	0	551	0	0	
1	0	0	0	0	526	455	0	526	0	0	
2	0	0	0	0	526	454	0	485	0	0	
3	0	0	0	0	526	454	0	432	0	0	
4	0	0	0	0	526	455	0	373	0	0	
5	0	0	0	0	528	456	0	311	0	0	
6	0	0	0	0	530	457	0	253	0	0	
7	0	0	0	0	532	459	0	203	0	0	
8	0	0	0	0	535	461	0	164	0	0	
9	0	0	0	0	538	463	0	142	0	0	
10	0	0	0	0	540	465	0	138	0	0	
11	0	0	0	0	543	467	0	157	0	0	
12	0	0	0	0	544	468	0	195	0	0	
13	0	0	0	0	547	469	0	252	0	0	
14	0	0	0	0	547	470	0	320	0	0	
15	0	0	0	0	550	471	0	395	0	0	
0	0	0	0	0	551	471	0	466	0	0	
1	0	0	0	0	552	471	0	527	0	0	
2	0	0	0	0	552	471	0	569	0	0	
3	0	0	0	0	550	470	0	590	0	0	
4	0	0	0	0	550	469	0	587	0	0	
5	0	0	0	0	548	468	0	563	0	0	
6	0	0	0	0	546	467	0	519	0	0	
7	0	0	0	0	543	465	0	463	0	0	
8	0	0	0	0	541	465	0	399	0	0	
9	0	0	0	0	540	464	0	332	0	0	
10	0	0	0	0	539	464	0	269	0	0	
11	0	0	0	0	539	466	0	213	0	0	
12	0	0	0	0	540	467	0	168	0	0	
13	0	0	0	0	541	467	0	141	0	0	
14	0	0	0	0	543	469	0	132	0	0	
15	0	0	0	0	546	470	0	146	0	0	
0	0	0	0	0	549	472	0	181	0	0	
1	0	0	0	0	551	472	0	235	0	0	
2	0	0	0	0	554	472	0	301	0	0	
3	0	0	0	0	556	473	0	372	0	0	
4	0	0	0	0	558	472	0	441	0	0	
5	0	0	0	0	558	472	0	499	0	0	
6	0	0	0	0	558	471	0	540	0	0	
7	0	0	0	0	557	470	0	560	0	0	
8	0	0	0	0	555	469	0	560	0	0	
9	0	0	0	0	554	469	0	539	0	0	
10	0	0	0	0	552	468	0	501	0	0	
11	0	0	0	0	551	469	0	451	0	0	
12	0	0	0	0	551	470	0	395	0	0	
13	0	0	0	0	550	471	0	335	0	0	
14	0	0	0	0	552	473	0	278	0	0	
15	0	0	0	0	553	475	0	228	0	0	
0	0	0	0	0	554	476	0	189	0	0	
1	0	0	0	0	554	477	0	166	0	0	
2	0	0	0	0	555	476	0	163	0	0	
3	0	0	0	0	556	476	0	178	0	0	
4	0	0	0	0	555	474	0	214	0	0	
5	0	0	0	0	554	472	0	265	0	0	
6	0	0	0	0	553	469	0	328	0	0	
7	0	0	0	0	551	466	0	394	0	0	
8	0	0	0	0	549	463	0	457	0	0	
9	0	0	0	0	546	460	0	509	0	0	
10	0	0	0	0	543	457	0	544	0	0	
11	0	0	0	0	541	454	0	559	0	0	
12	0	0	0	0	537	451	0	551	0	0	
13	0	0	0	0	536	448	0	526	0	0	
14	0	0	0	0	534	447	0	483	0	0	
15	0	0	0	0	532	445	0	429	0	0	
0	0	0	0	0	531	445	0	368	0	0	
1	0	0	0	0	531	445	0	305	0	0	
2	0	0	0	0	532	446	0	246	0	0	
3	0	0	0	0	533	447	0	194	0	0	
4	0	0	0	0	535	449	0	154	0	0	
5	0	0	0	0	536	452	0	131	0	0	
6	0	0	0	0	540	454	0	127	0	0	
7	0	0	0	0	543	456	0	145	0	0	
8	0	0	0	0	544	457	0	185	0	0	
9	0	0	0	0	547	459	0	242	0	0	
10	0	0	0	0	548	460	0	312	0	0	
11	0	0	0	0	548	460	0	388	0	0	
12	0	0	0	0	548	459	0	461	0	0	
13	0	0	0	0	546	457	0	523	0	0	
14	0	0	0	0	543	455	0	567	0	0	
15	0	0	0	0	540	452	0	588	0	0	
0	0	0	0	0	537	450	0	585	0	0	
1	0	0	0	0	535	447	0	560	0	0	
2	0	0	0	0	532	445	0	516	0	0	
3	0	0	0	0	530	443	0	458	0	0	
4	0	0	0	0	529	441	0	392	0	0	
5	0	0	0	0	529	441	0	323	0	0	
6	0	0	0	0	531	442	0	257	0	0	
7	0	0	0	0	533	444	0	199	0	0	
8	0	0	0	0	536	445	0	156	0	0	
9	0	0	0	0	539	447	0	129	0	0	
10	0	0	0	0	541	449	0	124	0	0	
11	0	0	0	0	544	451	0	140	0	0	
12	0	0	0	0	545	452	0	180	0	0	
13	0	0	0	0	546	452	0	238	0	0	
14	0	0	0	0	545	451	0	307	0	0	
15	0	0	0	0	544	451	0	383	0	0	
0	0	0	0	0	543	449	0	455	0	0	
1	0	0	0	0	541	448	0	515	0	0	
2	0	0	0	0	537	446	0	558	0	0	
3	0	0	0	0	535	444	0	577	0	0	
4	0	0	0	0	534	443	0	574	0	0	
5	0	0	0	0	533	443	0	550	0	0	
6	0	0	0	0	533	444	0	507	0	0	
7	0	0	0	0	535	446	0	452	0	0	
8	0	0	0	0	538	449	0	390	0	0	
9	0	0	0	0	541	452	0	324	0	0	
10	0	0	0	0	544	455	0	262	0	0	
11	0	0	0	0	547	458	0	207	0	0	
12	0	0	0	0	549	460	0	167	0	0	
13	0	0	0	0	551	461	0	143	0	0	
14	0	0	0	0	551	460	0	143	0	0	
15	0	0	0	0	552	460	0	164	0	0	
0	0	0	0	0	551	458	0	208	0	0	
1	0	0	0	0	550	456	0	269	0	0	
2	0	0	0	0	547	454	0	343	0	0	
3	0	0	0	0	544	451	0	420	0	0	
4	0	0	0	0	542	448	0	493	0	0	
5	0	0	0	0	540	446	0	554	0	0	
6	0	0	0	0	538	444	0	595	0	0	
7	0	0	0	0	536	442	0	614	0	0	
8	0	0	0	0	535	441	0	607	0	0	
9	0	0	0	0	535	441	0	578	0	0	
10	0	0	0	0	535	441	0	531	0	0	
11	0	0	0	0	536	442	0	470	0	0	
12	0	0	0	0	536	443	0	400	0	0	
13	0	0	0	0	538	445	0	329	0	0	
14	0	0	0	0	540	447	0	261	0	0	
15	0	0	0	0	541	449	0	202	0	0	
0	0	0	0	0	543	451	0	157	0	0	
1	0	0	0	0	545	453	0	131	0	0	
2	0	0	0	0	546	454	0	126	0	0	
3	0	0	0	0	547	455	0	144	0	0	
4	0	0	0	0	548	455	0	186	0	0	
5	0	0	0	0	547	455	0	245	0	0	
6	0	0	0	0	547	454	0	317	0	0	
7	0	0	0	0	546	452	0	393	0	0	
8	0	0	0	0	544	451	0	466	0	0	
9	0	0	0	0	542	448	0	526	0	0	
10	0	0	0	0	540	446	0	567	0	0	
11	0	0	0	0	537	444	0	585	0	0	
12	0	0	0	0	535	441	0	579	0	0	
13	0	0	0	0	535	440	0	551	0	0	
14	0	0	0	0	534	440	0	506	0	0	
15	0	0	0	0	534	440	0	447	0	0	
0	0	0	0	0	534	441	0	381	0	0	
1	0	0	0	0	535	443	0	312	0	0	
2	0	0	0	0	537	445	0	248	0	0	
3	0	0	0	0	538	447	0	192	0	0	
4	0	0	0	0	539	449	0	150	0	0	
5	0	0	0	0	540	451	0	127	0	0	
6	0	0	0	0	542	453	0	126	0	0	
7	0	0	0	0	543	455	0	149	0	0	
8	0	0	0	0	544	455	0	194	0	0	
9	0	0	0	0	544	455	0	257	0	0	
10	0	0	0	0	545	455	0	332	0	0	
11	0	0	0	0	544	455	0	409	0	0	
12	0	0	0	0	543	453	0	483	0	0	
13	0	0	0	0	540	451	0	543	0	0	
14	0	0	0	0	538	448	0	583	0	0	
15	0	0	0	0	536	446	0	599	0	0	
0	0	0	0	0	534	443	0	590	0	0	
1	0	0	0	0	532	442	0	559	0	0	
2	0	0	0	0	532	441	0	511	0	0	
3	0	0	0	0	531	440	0	448	0	0	
4	0	0	0	0	531	440	0	380	0	0	
5	0	0	0	0	532	441	0	310	0	0	
6	0	0	0	0	534	443	0	242	0	0	
7	0	0	0	0	535	444	0	184	0	0	
8	0	0	0	0	537	446	0	138	0	0	
9	0	0	0	0	538	447	0	109	0	0	
10	0	0	0	0	539	448	0	101	0	0	
11	0	0	0	0	540	449	0	116	0	0	
12	0	0	0	0	541	449	0	154	0	0	
13	0	0	0	0	541	449	0	211	0	0	
14	0	0	0	0	542	448	0	282	0	0	
15	0	0	0	0	540	448	0	358	0	0	
0	0	0	0	0	541	447	0	432	0	0	
1	0	0	0	0	540	446	0	496	0	0	
2	0	0	0	0	539	445	0	544	0	0	
3	0	0	0	0	539	445	0	569	0	0	
4	0	0	0	0	537	444	0	572	0	0	
5	0	0	0	0	537	444	0	551	0	0	
6	0	0	0	0	537	444	0	513	0	0	
7	0	0	0	0	538	445	0	460	0	0	
8	0	0	0	0	539	446	0	397	0	0	
9	0	0	0	0	539	447	0	332	0	0	
10	0	0	0	0	540	448	0	268	0	0	
11	0	0	0	0	540	449	0	211	0	0	
12	0	0	0	0	541	451	0	168	0	0	
13	0	0	0	0	541	451	0	142	0	0	
14	0	0	0	0	541	451	0	137	0	0	
15	0	0	0	0	541	451	0	156	0	0	
0	0	0	0	0	541	451	0	196	0	0	
1	0	0	0	0	540	450	0	255	0	0	
2	0	0	0	0	539	448	0	327	0	0	
3	0	0	0	0	536	446	0	404	0	0	
4	0	0	0	0	535	443	0	478	0	0	
5	0	0	0	0	533	441	0	540	0	0	
6	0	0	0	0	531	439	0	584	0	0	
7	0	0	0	0	529	437	0	605	0	0	
8	0	0	0	0	527	435	0	601	0	0	
9	0	0	0	0	527	435	0	575	0	0	
10	0	0	0	0	527	435	0	530	0	0	
11	0	0	0	0	528	436	0	471	0	0	
12	0	0	0	0	530	438	0	403	0	0	
13	0	0	0	0	532	440	0	332	0	0	
14	0	0	0	0	535	443	0	263	0	0	
15	0	0	0	0	537	446	0	203	0	0	
0	0	0	0	0	541	449	0	156	0	0	
1	0	0	0	0	543	452	0	127	0	0	
2	0	0	0	0	545	455	0	119	0	0	
3	0	0	0	0	548	457	0	134	0	0	
4	0	0	0	0	550	458	0	172	0	0	
5	0	0	0	0	550	458	0	229	0	0	
6	0	0	0	0	549	457	0	300	0	0	
7	0	0	0	0	547	455	0	376	0	0	
8	0	0	0	0	546	454	0	450	0	0	
9	0	0	0	0	545	452	0	513	0	0	
10	0	0	0	0	543	450	0	558	0	0	
11	0	0	0	0	541	448	0	580	0	0	
12	0	0	0	0	540	447	0	579	0	0	
13	0	0	0	0	540	447	0	555	0	0	
14	0	0	0	0	538	446	0	512	0	0	
15	0	0	0	0	537	446	0	455	0	0	
0	0	0	0	0	536	446	0	390	0	0	
1	0	0	0	0	535	446	0	320	0	0	
2	0	0	0	0	534	446	0	254	0	0	
3	0	0	0	0	532	446	0	195	0	0	
4	0	0	0	0	531	446	0	147	0	0	
5	0	0	0	0	530	445	0	117	0	0	
6	0	0	0	0	529	445	0	107	0	0	
7	0	0	0	0	530	445	0	119	0	0	
8	0	0	0	0	530	445	0	156	0	0	
9	0	0	0	0	530	445	0	212	0	0	
10	0	0	0	0	531	445	0	282	0	0	
11	0	0	0	0	532	445	0	360	0	0	
12	0	0	0	0	533	445	0	436	0	0	
13	0	0	0	0	534	445	0	501	0	0	
14	0	0	0	0	534	444	0	548	0	0	
15	0	0	0	0	535	444	0	573	0	0	
0	0	0	0	0	534	443	0	574	0	0	
1	0	0	0	0	534	443	0	551	0	0	
2	0	0	0	0	534	443	0	510	0	0	
3	0	0	0	0	534	443	0	455	0	0	
4	0	0	0	0	534	443	0	390	0	0	
5	0	0	0	0	533	443	0	322	0	0	
6	0	0	0	0	534	444	0	257	0	0	
7	0	0	0	0	535	445	0	198	0	0	
8	0	0	0	0	535	445	0	153	0	0	
9	0	0	0	0	535	446	0	124	0	0	
10	0	0	0	0	537	447	0	116	0	0	
11	0	0	0	0	538	448	0	131	0	0	
12	0	0	0	0	539	448	0	169	0	0	
13	0	0	0	0	541	449	0	227	0	0	
14	0	0	0	0	542	450	0	299	0	0	
15	0	0	0	0	544	451	0	378	0	0	
0	0	0	0	0	545	451	0	455	0	0	
1	0	0	0	0	546	452	0	523	0	0	
2	0	0	0	0	547	453	0	572	0	0	
3	0	0	0	0	547	453	0	599	0	0	
4	0	0	0	0	547	454	0	601	0	0	
5	0	0	0	0	547	455	0	580	0	0	
6	0	0	0	0	546	454	0	538	0	0	
7	0	0	0	0	544	453	0	481	0	0	
8	0	0	0	0	542	452	0	414	0	0	
9	0	0	0	0	539	451	0	342	0	0	
10	0	0	0	0	536	449	0	272	0	0	
11	0	0	0	0	533	447	0	210	0	0	
12	0	0	0	0	530	444	0	162	0	0	
13	0	0	0	0	526	441	0	131	0	0	
14	0	0	0	0	524	440	0	121	0	0	
15	0	0	0	0	521	438	0	136	0	0	
0	0	0	0	0	520	436	0	174	0	0	
1	0	0	0	0	520	435	0	231	0	0	
2	0	0	0	0	520	434	0	302	0	0	
3	0	0	0	0	524	435	0	378	0	0	
4	0	0	0	0	527	437	0	453	0	0	
5	0	0	0	0	531	439	0	517	0	0	
6	0	0	0	0	535	442	0	563	0	0	
7	0	0	0	0	539	445	0	588	0	0	
8	0	0	0	0	543	448	0	588	0	0	
9	0	0	0	0	548	452	0	567	0	0	
10	0	0	0	0	552	455	0	526	0	0	
11	0	0	0	0	555	458	0	471	0	0	
12	0	0	0	0	557	460	0	407	0	0	
13	0	0	0	0	559	462	0	339	0	0	
14	0	0	0	0	559	463	0	273	0	0	
15	0	0	0	0	559	464	0	216	0	0	
0	0	0	0	0	557	463	0	171	0	0	
1	0	0	0	0	554	462	0	143	0	0	
2	0	0	0	0	551	460	0	136	0	0	
3	0	0	0	0	547	458	0	152	0	0	
4	0	0	0	0	543	455	0	190	0	0	
5	0	0	0	0	539	453	0	247	0	0	
6	0	0	0	0	535	449	0	317	0	0	
7	0	0	0	0	531	447	0	392	0	0	
8	0	0	0	0	529	445	0	465	0	0	
9	0	0	0	0	527	443	0	527	0	0	
10	0	0	0	0	526	441	0	570	0	0	
11	0	0	0	0	524	440	0	590	0	0	
12	0	0	0	0	524	439	0	588	0	0	
13	0	0	0	0	525	438	0	561	0	0	
14	0	0	0	0	526	438	0	517	0	0	
15	0	0	0	0	527	438	0	458	0	0	
0	0	0	0	0	528	439	0	390	0	0	
1	0	0	0	0	530	440	0	320	0	0	
2	0	0	0	0	532	441	0	252	0	0	
3	0	0	0	0	533	442	0	192	0	0	
4	0	0	0	0	534	443	0	144	0	0	
5	0	0	0	0	534	443	0	113	0	0	
6	0	0	0	0	534	444	0	102	0	0	
7	0	0	0	0	534	444	0	115	0	0	
8	0	0	0	0	533	444	0	151	0	0	
9	0	0	0	0	532	444	0	206	0	0	
10	0	0	0	0	531	442	0	275	0	0	
11	0	0	0	0	529	442	0	350	0	0	
12	0	0	0	0	529	441	0	424	0	0	
13	0	0	0	0	527	440	0	488	0	0	
14	0	0	0	0	527	439	0	535	0	0	
15	0	0	0	0	526	437	0	560	0	0	
0	0	0	0	0	525	436	0	561	0	0	
1	0	0	0	0	525	435	0	540	0	0	
2	0	0	0	0	526	435	0	501	0	0	
3	0	0	0	0	526	434	0	447	0	0	
4	0	0	0	0	526	434	0	384	0	0	
5	0	0	0	0	527	434	0	317	0	0	
6	0	0	0	0	527	435	0	253	0	0	
7	0	0	0	0	528	436	0	196	0	0	
8	0	0	0	0	530	438	0	153	0	0	
9	0	0	0	0	531	440	0	127	0	0	
10	0	0	0	0	533	443	0	124	0	0	
11	0	0	0	0	536	445	0	144	0	0	
12	0	0	0	0	538	448	0	188	0	0	
13	0	0	0	0	540	449	0	252	0	0	
14	0	0	0	0	541	451	0	331	0	0	
15	0	0	0	0	542	451	0	416	0	0	
0	0	0	0	0	543	451	0	503	0	0	
1	0	0	0	0	543	451	0	580	0	0	
2	0	0	0	0	543	450	0	639	0	0	
3	0	0	0	0	542	449	0	675	0	0	
4	0	0	0	0	541	448	0	683	0	0	
5	0	0	0	0	540	447	0	665	0	0	
6	0	0	0	0	540	446	0	623	0	0	
7	0	0	0	0	539	445	0	560	0	0	
8	0	0	0	0	539	444	0	483	0	0	
9	0	0	0	0	538	443	0	399	0	0	
10	0	0	0	0	538	443	0	315	0	0	
11	0	0	0	0	536	441	0	237	0	0	
12	0	0	0	0	535	440	0	172	0	0	
13	0	0	0	0	533	439	0	125	0	0	
14	0	0	0	0	530	436	0	101	0	0	
15	0	0	0	0	529	435	0	101	0	0	
0	0	0	0	0	527	433	0	128	0	0	
1	0	0	0	0	525	431	0	177	0	0	
2	0	0	0	0	523	429	0	243	0	0	
3	0	0	0	0	523	428	0	316	0	0	
4	0	0	0	0	524	428	0	391	0	0	
5	0	0	0	0	524	428	0	458	0	0	
6	0	0	0	0	525	428	0	507	0	0	
7	0	0	0	0	526	428	0	537	0	0	
8	0	0	0	0	527	429	0	543	0	0	
9	0	0	0	0	528	430	0	527	0	0	
10	0	0	0	0	529	431	0	491	0	0	
11	0	0	0	0	529	431	0	439	0	0	
12	0	0	0	0	528	430	0	377	0	0	
13	0	0	0	0	526	428	0	309	0	0	
14	0	0	0	0	523	425	0	243	0	0	
15	0	0	0	0	518	420	0	183	0	0	
0	0	0	0	0	511	414	0	134	0	0	
1	0	0	0	0	503	407	0	103	0	0	
2	0	0	0	0	494	398	0	93	0	0	
3	0	0	0	0	484	388	0	104	0	0	
4	0	0	0	0	472	377	0	136	0	0	
5	0	0	0	0	459	365	0	186	0	0	
6	0	0	0	0	446	352	0	246	0	0	
7	0	0	0	0	432	338	0	309	0	0	
8	0	0	0	0	418	324	0	368	0	0	
9	0	0	0	0	404	311	0	415	0	0	
10	0	0	0	0	390	297	0	444	0	0	
11	0	0	0	0	376	284	0	450	0	0	
12	0	0	0	0	364	271	0	432	0	0	
13	0	0	0	0	353	260	0	391	0	0	
14	0	0	0	0	343	250	0	331	0	0	
15	0	0	0	0	334	240	0	259	0	0	
0	0	0	0	0	327	233	0	180	0	0	
1	0	0	0	0	321	227	0	99	0	0	
2	0	0	0	0	319	224	0	21	0	0	
3	0	0	0	0	318	222	0	0	0	0	
4	0	0	0	0	319	222	0	0	0	0	
5	0	0	0	0	323	225	0	0	0	0	
6	0	0	0	0	330	230	0	0	0	0	
7	0	0	0	0	339	238	0	0	0	0	
8	0	0	0	0	350	247	0	0	0	0	
9	0	0	0	0	364	259	0	15	0	0	
10	0	0	0	0	380	273	0	57	0	0	
11	0	0	0	0	396	288	0	116	0	0	
12	0	0	0	0	415	305	0	183	0	0	
13	0	0	0	0	435	323	0	250	0	0	
14	0	0	0	0	453	341	0	310	0	0	
15	0	0	0	0	472	358	0	359	0	0	
0	0	0	0	0	487	375	0	390	0	0	
1	0	0	0	0	503	391	0	404	0	0	
2	0	0	0	0	515	405	0	401	0	0	
3	0	0	0	0	525	417	0	383	0	0	
4	0	0	0	0	533	427	0	352	0	0	
5	0	0	0	0	537	434	0	312	0	0	
6	0	0	0	0	542	440	0	269	0	0	
7	0	0	0	0	542	443	0	228	0	0	
8	0	0	0	0	542	445	0	196	0	0	
9	0	0	0	0	540	445	0	177	0	0	
10	0	0	0	0	537	444	0	176	0	0	
11	0	0	0	0	536	442	0	194	0	0	
12	0	0	0	0	533	440	0	232	0	0	
13	0	0	0	0	531	438	0	286	0	0	
14	0	0	0	0	530	435	0	352	0	0	
15	0	0	0	0	528	433	0	421	0	0	
0	0	0	0	0	528	432	0	488	0	0	
1	0	0	0	0	529	431	0	543	0	0	
2	0	0	0	0	530	432	0	580	0	0	
3	0	0	0	0	532	432	0	595	0	0	
4	0	0	0	0	534	433	0	586	0	0	
5	0	0	0	0	537	436	0	556	0	0	
6	0	0	0	0	540	438	0	507	0	0	
7	0	0	0	0	542	440	0	444	0	0	
8	0	0	0	0	544	441	0	372	0	0	
9	0	0	0	0	545	443	0	299	0	0	
10	0	0	0	0	546	444	0	227	0	0	
11	0	0	0	0	546	445	0	162	0	0	
12	0	0	0	0	545	445	0	110	0	0	
13	0	0	0	0	545	446	0	74	0	0	
14	0	0	0	0	543	446	0	57	0	0	
15	0	0	0	0	543	446	0	63	0	0	
0	0	0	0	0	542	446	0	92	0	0	
1	0	0	0	0	541	446	0	142	0	0	
2	0	0	0	0	540	444	0	209	0	0	
3	0	0	0	0	539	444	0	284	0	0	
4	0	0	0	0	539	444	0	359	0	0	
5	0	0	0	0	539	442	0	428	0	0	
6	0	0	0	0	539	441	0	481	0	0	
7	0	0	0	0	538	440	0	513	0	0	
8	0	0	0	0	538	439	0	521	0	0	
9	0	0	0	0	538	438	0	507	0	0	
10	0	0	0	0	538	438	0	472	0	0	
11	0	0	0	0	538	438	0	423	0	0	
12	0	0	0	0	539	438	0	363	0	0	
13	0	0	0	0	539	438	0	297	0	0	
14	0	0	0	0	540	440	0	232	0	0	
15	0	0	0	0	540	440	0	174	0	0	
0	0	0	0	0	542	442	0	127	0	0	
1	0	0	0	0	542	443	0	95	0	0	
2	0	0	0	0	543	444	0	84	0	0	
3	0	0	0	0	543	446	0	95	0	0	
4	0	0	0	0	543	446	0	129	0	0	
5	0	0	0	0	543	446	0	182	0	0	
6	0	0	0	0	542	446	0	249	0	0	
7	0	0	0	0	541	445	0	322	0	0	
8	0	0	0	0	540	444	0	396	0	0	
9	0	0	0	0	539	443	0	459	0	0	
10	0	0	0	0	539	442	0	505	0	0	
11	0	0	0	0	538	440	0	531	0	0	
12	0	0	0	0	536	439	0	531	0	0	
13	0	0	0	0	537	438	0	509	0	0	
14	0	0	0	0	536	436	0	468	0	0	
15	0	0	0	0	536	435	0	413	0	0	
0	0	0	0	0	536	434	0	348	0	0	
1	0	0	0	0	536	434	0	279	0	0	
2	0	0	0	0	536	433	0	211	0	0	
3	0	0	0	0	536	433	0	151	0	0	
4	0	0	0	0	536	433	0	102	0	0	
5	0	0	0	0	536	433	0	71	0	0	
6	0	0	0	0	536	434	0	60	0	0	
7	0	0	0	0	537	435	0	74	0	0	
8	0	0	0	0	538	436	0	112	0	0	
9	0	0	0	0	540	438	0	171	0	0	
10	0	0	0	0	540	439	0	245	0	0	
11	0	0	0	0	542	441	0	326	0	0	
12	0	0	0	0	544	442	0	407	0	0	
13	0	0	0	0	545	443	0	479	0	0	
14	0	0	0	0	546	444	0	533	0	0	
15	0	0	0	0	547	445	0	564	0	0	
0	0	0	0	0	547	447	0	571	0	0	
1	0	0	0	0	549	448	0	552	0	0	
2	0	0	0	0	550	450	0	513	0	0	
3	0	0	0	0	551	451	0	457	0	0	
4	0	0	0	0	551	452	0	390	0	0	
5	0	0	0	0	551	452	0	317	0	0	
6	0	0	0	0	552	452	0	245	0	0	
7	0	0	0	0	551	451	0	180	0	0	
8	0	0	0	0	549	448	0	128	0	0	
9	0	0	0	0	547	446	0	93	0	0	
10	0	0	0	0	544	442	0	81	0	0	
11	0	0	0	0	542	439	0	93	0	0	
12	0	0	0	0	539	436	0	129	0	0	
13	0	0	0	0	537	433	0	187	0	0	
14	0	0	0	0	535	431	0	259	0	0	
15	0	0	0	0	533	429	0	338	0	0	
0	0	0	0	0	533	428	0	417	0	0	
1	0	0	0	0	532	427	0	487	0	0	
2	0	0	0	0	532	427	0	540	0	0	
3	0	0	0	0	533	428	0	570	0	0	
4	0	0	0	0	534	428	0	575	0	0	
5	0	0	0	0	535	429	0	555	0	0	
6	0	0	0	0	535	429	0	514	0	0	
7	0	0	0	0	536	431	0	456	0	0	
8	0	0	0	0	537	432	0	387	0	0	
9	0	0	0	0	539	433	0	312	0	0	
10	0	0	0	0	540	435	0	240	0	0	
11	0	0	0	0	541	437	0	175	0	0	
12	0	0	0	0	542	438	0	122	0	0	
13	0	0	0	0	543	439	0	87	0	0	
14	0	0	0	0	541	439	0	75	0	0	
15	0	0	0	0	542	440	0	85	0	0	
0	0	0	0	0	540	439	0	120	0	0	
1	0	0	0	0	540	439	0	177	0	0	
2	0	0	0	0	538	438	0	248	0	0	
3	0	0	0	0	537	437	0	328	0	0	
4	0	0	0	0	537	436	0	409	0	0	
5	0	0	0	0	536	436	0	481	0	0	
6	0	0	0	0	536	435	0	536	0	0	
7	0	0	0	0	537	435	0	568	0	0	
8	0	0	0	0	536	435	0	575	0	0	
9	0	0	0	0	536	434	0	557	0	0	
10	0	0	0	0	537	434	0	516	0	0	
11	0	0	0	0	535	433	0	459	0	0	
12	0	0	0	0	535	431	0	389	0	0	
13	0	0	0	0	532	429	0	312	0	0	
14	0	0	0	0	530	427	0	238	0	0	
15	0	0	0	0	528	424	0	170	0	0	
0	0	0	0	0	526	422	0	115	0	0	
1	0	0	0	0	524	421	0	78	0	0	
2	0	0	0	0	523	419	0	66	0	0	
3	0	0	0	0	522	419	0	78	0	0	
4	0	0	0	0	522	418	0	114	0	0	
5	0	0	0	0	523	418	0	172	0	0	
6	0	0	0	0	524	419	0	244	0	0	
7	0	0	0	0	525	419	0	323	0	0	
8	0	0	0	0	527	421	0	402	0	0	
9	0	0	0	0	530	423	0	472	0	0	
10	0	0	0	0	533	425	0	525	0	0	
11	0	0	0	0	536	428	0	555	0	0	
12	0	0	0	0	539	431	0	561	0	0	
13	0	0	0	0	542	434	0	543	0	0	
14	0	0	0	0	545	437	0	504	0	0	
15	0	0	0	0	547	440	0	450	0	0	
0	0	0	0	0	548	442	0	385	0	0	
1	0	0	0	0	548	444	0	316	0	0	
2	0	0	0	0	549	446	0	247	0	0	
3	0	0	0	0	548	447	0	187	0	0	
4	0	0	0	0	547	447	0	140	0	0	
5	0	0	0	0	545	447	0	112	0	0	
6	0	0	0	0	543	446	0	105	0	0	
7	0	0	0	0	542	445	0	125	0	0	
8	0	0	0	0	539	443	0	167	0	0	
9	0	0	0	0	537	441	0	230	0	0	
10	0	0	0	0	535	439	0	305	0	0	
11	0	0	0	0	531	435	0	386	0	0	
12	0	0	0	0	530	433	0	463	0	0	
13	0	0	0	0	527	430	0	529	0	0	
14	0	0	0	0	526	428	0	576	0	0	
15	0	0	0	0	525	425	0	599	0	0	
0	0	0	0	0	524	423	0	597	0	0	
1	0	0	0	0	525	423	0	570	0	0	
2	0	0	0	0	526	422	0	522	0	0	
3	0	0	0	0	527	422	0	459	0	0	
4	0	0	0	0	527	423	0	385	0	0	
5	0	0	0	0	529	424	0	308	0	0	
6	0	0	0	0	531	426	0	234	0	0	
7	0	0	0	0	534	428	0	169	0	0	
8	0	0	0	0	536	431	0	118	0	0	
9	0	0	0	0	537	432	0	87	0	0	
10	0	0	0	0	538	434	0	78	0	0	
11	0	0	0	0	540	436	0	93	0	0	
12	0	0	0	0	540	437	0	133	0	0	
13	0	0	0	0	540	437	0	193	0	0	
14	0	0	0	0	539	436	0	268	0	0	
15	0	0	0	0	537	435	0	350	0	0	
0	0	0	0	0	536	434	0	431	0	0	
1	0	0	0	0	536	434	0	502	0	0	
2	0	0	0	0	535	432	0	556	0	0	
3	0	0	0	0	536	432	0	587	0	0	
4	0	0	0	0	536	432	0	592	0	0	
5	0	0	0	0	536	432	0	573	0	0	
6	0	0	0	0	537	432	0	531	0	0	
7	0	0	0	0	538	433	0	473	0	0	
8	0	0	0	0	539	433	0	404	0	0	
9	0	0	0	0	540	434	0	329	0	0	
10	0	0	0	0	540	435	0	256	0	0	
11	0	0	0	0	540	435	0	190	0	0	
12	0	0	0	0	541	436	0	139	0	0	
13	0	0	0	0	541	438	0	107	0	0	
14	0	0	0	0	541	438	0	98	0	0	
15	0	0	0	0	541	439	0	114	0	0	
0	0	0	0	0	542	440	0	155	0	0	
1	0	0	0	0	542	440	0	216	0	0	
2	0	0	0	0	542	440	0	292	0	0	
3	0	0	0	0	542	440	0	374	0	0	
4	0	0	0	0	542	440	0	454	0	0	
5	0	0	0	0	542	440	0	525	0	0	
6	0	0	0	0	542	439	0	577	0	0	
7	0	0	0	0	542	439	0	606	0	0	
8	0	0	0	0	541	438	0	609	0	0	
9	0	0	0	0	542	438	0	587	0	0	
10	0	0	0	0	541	438	0	543	0	0	
11	0	0	0	0	540	438	0	482	0	0	
12	0	0	0	0	540	438	0	411	0	0	
13	0	0	0	0	539	437	0	334	0	0	
14	0	0	0	0	539	438	0	258	0	0	
15	0	0	0	0	537	437	0	191	0	0	
0	0	0	0	0	537	437	0	136	0	0	
1	0	0	0	0	536	436	0	100	0	0	
2	0	0	0	0	536	436	0	86	0	0	
3	0	0	0	0	536	436	0	96	0	0	
4	0	0	0	0	536	436	0	129	0	0	
5	0	0	0	0	537	436	0	183	0	0	
6	0	0	0	0	538	435	0	251	0	0	
7	0	0	0	0	538	435	0	325	0	0	
8	0	0	0	0	540	436	0	399	0	0	
9	0	0	0	0	541	436	0	464	0	0	
10	0	0	0	0	541	436	0	513	0	0	
11	0	0	0	0	541	436	0	541	0	0	
12	0	0	0	0	542	437	0	545	0	0	
13	0	0	0	0	543	438	0	528	0	0	
14	0	0	0	0	543	439	0	491	0	0	
15	0	0	0	0	543	439	0	438	0	0	
0	0	0	0	0	543	440	0	376	0	0	
1	0	0	0	0	544	441	0	309	0	0	
2	0	0	0	0	544	441	0	244	0	0	
3	0	0	0	0	544	441	0	184	0	0	
4	0	0	0	0	543	440	0	137	0	0	
5	0	0	0	0	541	438	0	105	0	0	
6	0	0	0	0	539	436	0	94	0	0	
7	0	0	0	0	536	433	0	104	0	0	
8	0	0	0	0	533	430	0	137	0	0	
9	0	0	0	0	530	427	0	189	0	0	
10	0	0	0	0	527	423	0	254	0	0	
11	0	0	0	0	524	421	0	325	0	0	
12	0	0	0	0	523	418	0	396	0	0	
13	0	0	0	0	521	416	0	457	0	0	
14	0	0	0	0	520	415	0	503	0	0	
15	0	0	0	0	520	414	0	528	0	0	
0	0	0	0	0	520	414	0	529	0	0	
1	0	0	0	0	521	415	0	509	0	0	
2	0	0	0	0	521	415	0	469	0	0	
3	0	0	0	0	522	415	0	415	0	0	
4	0	0	0	0	522	416	0	351	0	0	
5	0	0	0	0	522	416	0	283	0	0	
6	0	0	0	0	523	417	0	217	0	0	
7	0	0	0	0	523	417	0	158	0	0	
8	0	0	0	0	523	418	0	110	0	0	
9	0	0	0	0	523	418	0	79	0	0	
10	0	0	0	0	524	419	0	68	0	0	
11	0	0	0	0	524	419	0	81	0	0	
12	0	0	0	0	525	420	0	116	0	0	
13	0	0	0	0	526	420	0	171	0	0	
14	0	0	0	0	527	420	0	240	0	0	
15	0	0	0	0	528	421	0	316	0	0	
0	0	0	0	0	529	421	0	394	0	0	
1	0	0	0	0	529	421	0	462	0	0	
2	0	0	0	0	529	420	0	514	0	0	
3	0	0	0	0	529	420	0	543	0	0	
4	0	0	0	0	528	420	0	548	0	0	
5	0	0	0	0	528	419	0	530	0	0	
6	0	0	0	0	527	419	0	491	0	0	
7	0	0	0	0	527	420	0	437	0	0	
8	0	0	0	0	526	420	0	371	0	0	
9	0	0	0	0	526	421	0	301	0	0	
10	0	0	0	0	527	423	0	233	0	0	
11	0	0	0	0	528	424	0	171	0	0	
12	0	0	0	0	530	426	0	121	0	0	
13	0	0	0	0	532	428	0	89	0	0	
14	0	0	0	0	535	431	0	77	0	0	
15	0	0	0	0	537	433	0	89	0	0	
0	0	0	0	0	540	435	0	125	0	0	
1	0	0	0	0	543	437	0	180	0	0	
2	0	0	0	0	544	438	0	250	0	0	
3	0	0	0	0	545	438	0	327	0	0	
4	0	0	0	0	545	437	0	405	0	0	
5	0	0	0	0	544	435	0	473	0	0	
6	0	0	0	0	542	433	0	525	0	0	
7	0	0	0	0	539	430	0	556	0	0	
8	0	0	0	0	535	427	0	561	0	0	
9	0	0	0	0	532	424	0	543	0	0	
10	0	0	0	0	528	421	0	504	0	0	
11	0	0	0	0	524	419	0	448	0	0	
12	0	0	0	0	521	417	0	382	0	0	
13	0	0	0	0	519	416	0	310	0	0	
14	0	0	0	0	517	416	0	239	0	0	
15	0	0	0	0	516	416	0	175	0	0	
0	0	0	0	0	516	416	0	123	0	0	
1	0	0	0	0	518	417	0	88	0	0	
2	0	0	0	0	519	419	0	73	0	0	
3	0	0	0	0	522	420	0	81	0	0	
4	0	0	0	0	525	421	0	112	0	0	
5	0	0	0	0	528	422	0	164	0	0	
6	0	0	0	0	530	423	0	230	0	0	
7	0	0	0	0	533	424	0	304	0	0	
8	0	0	0	0	535	424	0	380	0	0	
9	0	0	0	0	536	424	0	448	0	0	
10	0	0	0	0	537	424	0	502	0	0	
11	0	0	0	0	537	423	0	534	0	0	
12	0	0	0	0	536	423	0	542	0	0	
13	0	0	0	0	535	422	0	527	0	0	
14	0	0	0	0	532	420	0	491	0	0	
15	0	0	0	0	530	419	0	438	0	0	
0	0	0	0	0	527	417	0	373	0	0	
1	0	0	0	0	525	415	0	303	0	0	
2	0	0	0	0	523	415	0	233	0	0	
3	0	0	0	0	521	414	0	171	0	0	
4	0	0	0	0	520	414	0	119	0	0	
5	0	0	0	0	519	413	0	87	0	0	
6	0	0	0	0	519	415	0	74	0	0	
7	0	0	0	0	520	415	0	87	0	0	
8	0	0	0	0	521	416	0	122	0	0	
9	0	0	0	0	523	417	0	177	0	0	
10	0	0	0	0	524	419	0	246	0	0	
11	0	0	0	0	525	419	0	323	0	0	
12	0	0	0	0	527	420	0	399	0	0	
13	0	0	0	0	528	420	0	467	0	0	
14	0	0	0	0	528	420	0	519	0	0	
15	0	0	0	0	528	420	0	549	0	0	
0	0	0	0	0	528	420	0	556	0	0	
1	0	0	0	0	528	420	0	537	0	0	
2	0	0	0	0	527	419	0	498	0	0	
3	0	0	0	0	527	419	0	443	0	0	
4	0	0	0	0	527	419	0	375	0	0	
5	0	0	0	0	527	419	0	303	0	0	
6	0	0	0	0	527	419	0	231	0	0	
7	0	0	0	0	528	420	0	166	0	0	
8	0	0	0	0	528	421	0	112	0	0	
9	0	0	0	0	529	421	0	75	0	0	
10	0	0	0	0	529	422	0	57	0	0	
11	0	0	0	0	529	422	0	63	0	0	
12	0	0	0	0	528	422	0	92	0	0	
13	0	0	0	0	528	422	0	142	0	0	
14	0	0	0	0	528	422	0	208	0	0	
15	0	0	0	0	527	422	0	283	0	0	
0	0	0	0	0	527	422	0	360	0	0	
1	0	0	0	0	527	421	0	432	0	0	
2	0	0	0	0	527	421	0	489	0	0	
3	0	0	0	0	526	421	0	526	0	0	
4	0	0	0	0	526	421	0	539	0	0	
5	0	0	0	0	525	421	0	527	0	0	
6	0	0	0	0	525	420	0	495	0	0	
7	0	0	0	0	523	419	0	444	0	0	
8	0	0	0	0	522	418	0	381	0	0	
9	0	0	0	0	519	416	0	311	0	0	
10	0	0	0	0	518	416	0	240	0	0	
11	0	0	0	0	517	415	0	174	0	0	
12	0	0	0	0	515	414	0	118	0	0	
13	0	0	0	0	515	413	0	77	0	0	
14	0	0	0	0	514	413	0	56	0	0	
15	0	0	0	0	515	414	0	56	0	0	
0	0	0	0	0	516	415	0	81	0	0	
1	0	0	0	0	517	415	0	126	0	0	
2	0	0	0	0	519	417	0	188	0	0	
3	0	0	0	0	521	419	0	260	0	0	
4	0	0	0	0	523	420	0	334	0	0	
5	0	0	0	0	525	421	0	403	0	0	
6	0	0	0	0	526	422	0	457	0	0	
7	0	0	0	0	527	421	0	493	0	0	
8	0	0	0	0	527	422	0	505	0	0	
9	0	0	0	0	527	421	0	494	0	0	
10	0	0	0	0	526	420	0	462	0	0	
11	0	0	0	0	525	419	0	413	0	0	
12	0	0	0	0	524	417	0	353	0	0	
13	0	0	0	0	522	416	0	287	0	0	
14	0	0	0	0	521	415	0	220	0	0	
15	0	0	0	0	520	415	0	158	0	0	
0	0	0	0	0	519	415	0	104	0	0	
1	0	0	0	0	519	416	0	66	0	0	
2	0	0	0	0	519	417	0	46	0	0	
3	0	0	0	0	520	419	0	46	0	0	
4	0	0	0	0	520	420	0	68	0	0	
5	0	0	0	0	521	421	0	111	0	0	
6	0	0	0	0	521	422	0	169	0	0	
7	0	0	0	0	521	423	0	237	0	0	
8	0	0	0	0	522	423	0	308	0	0	
9	0	0	0	0	522	422	0	374	0	0	
10	0	0	0	0	523	422	0	428	0	0	
11	0	0	0	0	522	420	0	463	0	0	
12	0	0	0	0	522	419	0	477	0	0	
13	0	0	0	0	523	418	0	469	0	0	
14	0	0	0	0	523	417	0	442	0	0	
15	0	0	0	0	523	417	0	399	0	0	
0	0	0	0	0	524	417	0	345	0	0	
1	0	0	0	0	525	417	0	284	0	0	
2	0	0	0	0	527	419	0	223	0	0	
3	0	0	0	0	528	420	0	166	0	0	
4	0	0	0	0	530	422	0	115	0	0	
5	0	0	0	0	532	424	0	78	0	0	
6	0	0	0	0	533	427	0	56	0	0	
7	0	0	0	0	535	430	0	55	0	0	
8	0	0	0	0	537	432	0	76	0	0	
9	0	0	0	0	538	434	0	118	0	0	
10	0	0	0	0	540	436	0	177	0	0	
11	0	0	0	0	540	438	0	247	0	0	
12	0	0	0	0	542	439	0	322	0	0	
13	0	0	0	0	542	439	0	393	0	0	
14	0	0	0	0	542	439	0	454	0	0	
15	0	0	0	0	540	438	0	496	0	0	
0	0	0	0	0	539	436	0	516	0	0	
1	0	0	0	0	536	435	0	513	0	0	
2	0	0	0	0	534	432	0	487	0	0	
3	0	0	0	0	529	429	0	444	0	0	
4	0	0	0	0	524	425	0	386	0	0	
5	0	0	0	0	519	422	0	320	0	0	
6	0	0	0	0	515	417	0	253	0	0	
7	0	0	0	0	511	414	0	190	0	0	
8	0	0	0	0	507	411	0	139	0	0	
9	0	0	0	0	504	408	0	103	0	0	
10	0	0	0	0	502	406	0	88	0	0	
11	0	0	0	0	501	405	0	96	0	0	
12	0	0	0	0	501	405	0	127	0	0	
13	0	0	0	0	502	406	0	177	0	0	
14	0	0	0	0	504	407	0	243	0	0	
15	0	0	0	0	507	410	0	315	0	0	
0	0	0	0	0	512	414	0	387	0	0	
1	0	0	0	0	518	418	0	451	0	0	
2	0	0	0	0	522	422	0	498	0	0	
3	0	0	0	0	528	425	0	524	0	0	
4	0	0	0	0	531	428	0	527	0	0	
5	0	0	0	0	535	431	0	507	0	0	
6	0	0	0	0	537	432	0	467	0	0	
7	0	0	0	0	537	433	0	413	0	0	
8	0	0	0	0	536	432	0	348	0	0	
9	0	0	0	0	535	431	0	280	0	0	
10	0	0	0	0	533	430	0	211	0	0	
11	0	0	0	0	530	428	0	149	0	0	
12	0	0	0	0	527	425	0	96	0	0	
13	0	0	0	0	523	423	0	59	0	0	
14	0	0	0	0	521	422	0	40	0	0	
15	0	0	0	0	520	421	0	42	0	0	
0	0	0	0	0	519	420	0	66	0	0	
1	0	0	0	0	519	420	0	113	0	0	
2	0	0	0	0	519	420	0	176	0	0	
3	0	0	0	0	519	420	0	251	0	0	
4	0	0	0	0	521	422	0	329	0	0	
5	0	0	0	0	523	422	0	404	0	0	
6	0	0	0	0	525	423	0	465	0	0	
7	0	0	0	0	527	423	0	508	0	0	
8	0	0	0	0	529	424	0	528	0	0	
9	0	0	0	0	531	426	0	524	0	0	
10	0	0	0	0	534	428	0	499	0	0	
11	0	0	0	0	536	429	0	455	0	0	
12	0	0	0	0	537	430	0	398	0	0	
13	0	0	0	0	537	432	0	334	0	0	
14	0	0	0	0	538	433	0	267	0	0	
15	0	0	0	0	537	435	0	204	0	0	
0	0	0	0	0	536	435	0	150	0	0	
1	0	0	0	0	535	436	0	112	0	0	
2	0	0	0	0	532	436	0	96	0	0	
3	0	0	0	0	531	436	0	101	0	0	
4	0	0	0	0	528	435	0	130	0	0	
5	0	0	0	0	526	434	0	181	0	0	
6	0	0	0	0	524	432	0	248	0	0	
7	0	0	0	0	521	430	0	323	0	0	
8	0	0	0	0	520	428	0	402	0	0	
9	0	0	0	0	519	426	0	473	0	0	
10	0	0	0	0	516	424	0	530	0	0	
11	0	0	0	0	516	422	0	566	0	0	
12	0	0	0	0	515	420	0	577	0	0	
13	0	0	0	0	515	419	0	564	0	0	
14	0	0	0	0	516	419	0	529	0	0	
15	0	0	0	0	517	420	0	476	0	0	
0	0	0	0	0	518	421	0	411	0	0	
1	0	0	0	0	519	423	0	339	0	0	
2	0	0	0	0	521	425	0	266	0	0	
3	0	0	0	0	522	427	0	200	0	0	
4	0	0	0	0	522	428	0	146	0	0	
5	0	0	0	0	522	429	0	108	0	0	
6	0	0	0	0	521	428	0	92	0	0	
7	0	0	0	0	519	426	0	100	0	0	
8	0	0	0	0	516	423	0	132	0	0	
9	0	0	0	0	512	419	0	186	0	0	
10	0	0	0	0	508	415	0	255	0	0	
11	0	0	0	0	504	410	0	333	0	0	
12	0	0	0	0	501	407	0	412	0	0	
13	0	0	0	0	499	403	0	484	0	0	
14	0	0	0	0	497	401	0	540	0	0	
15	0	0	0	0	496	399	0	574	0	0	
0	0	0	0	0	497	398	0	582	0	0	
1	0	0	0	0	499	398	0	566	0	0	
2	0	0	0	0	500	399	0	527	0	0	
3	0	0	0	0	503	400	0	470	0	0	
4	0	0	0	0	505	401	0	400	0	0	
5	0	0	0	0	507	403	0	325	0	0	
6	0	0	0	0	509	405	0	250	0	0	
7	0	0	0	0	511	407	0	180	0	0	
8	0	0	0	0	512	408	0	124	0	0	
9	0	0	0	0	514	410	0	84	0	0	
10	0	0	0	0	514	411	0	67	0	0	
11	0	0	0	0	515	413	0	74	0	0	
12	0	0	0	0	515	414	0	108	0	0	
13	0	0	0	0	516	415	0	164	0	0	
14	0	0	0	0	516	416	0	239	0	0	
15	0	0	0	0	516	417	0	322	0	0	
0	0	0	0	0	517	418	0	409	0	0	
1	0	0	0	0	517	418	0	487	0	0	
2	0	0	0	0	517	419	0	551	0	0	
3	0	0	0	0	518	419	0	592	0	0	
4	0	0	0	0	517	419	0	607	0	0	
5	0	0	0	0	518	419	0	596	0	0	
6	0	0	0	0	518	419	0	561	0	0	
7	0	0	0	0	519	420	0	507	0	0	
8	0	0	0	0	519	420	0	439	0	0	
9	0	0	0	0	519	421	0	364	0	0	
10	0	0	0	0	520	422	0	289	0	0	
11	0	0	0	0	520	423	0	220	0	0	
12	0	0	0	0	521	423	0	163	0	0	
13	0	0	0	0	522	424	0	123	0	0	
14	0	0	0	0	522	424	0	103	0	0	
15	0	0	0	0	523	425	0	109	0	0	
0	0	0	0	0	524	426	0	139	0	0	
1	0	0	0	0	525	427	0	192	0	0	
2	0	0	0	0	526	427	0	261	0	0	
3	0	0	0	0	527	428	0	340	0	0	
4	0	0	0	0	528	429	0	422	0	0	
5	0	0	0	0	528	429	0	496	0	0	
6	0	0	0	0	528	429	0	555	0	0	
7	0	0	0	0	528	429	0	593	0	0	
8	0	0	0	0	528	428	0	605	0	0	
9	0	0	0	0	527	428	0	592	0	0	
10	0	0	0	0	527	428	0	556	0	0	
11	0	0	0	0	525	428	0	502	0	0	
12	0	0	0	0	525	428	0	434	0	0	
13	0	0	0	0	523	427	0	359	0	0	
14	0	0	0	0	522	427	0	284	0	0	
15	0	0	0	0	520	426	0	215	0	0	
0	0	0	0	0	519	426	0	158	0	0	
1	0	0	0	0	518	425	0	117	0	0	
2	0	0	0	0	518	425	0	97	0	0	
3	0	0	0	0	518	426	0	103	0	0	
4	0	0	0	0	519	427	0	133	0	0	
5	0	0	0	0	519	427	0	185	0	0	
6	0	0	0	0	521	428	0	255	0	0	
7	0	0	0	0	522	428	0	334	0	0	
8	0	0	0	0	524	429	0	415	0	0	
9	0	0	0	0	525	430	0	489	0	0	
10	0	0	0	0	526	429	0	548	0	0	
11	0	0	0	0	525	429	0	584	0	0	
12	0	0	0	0	524	427	0	596	0	0	
13	0	0	0	0	523	425	0	583	0	0	
14	0	0	0	0	519	422	0	545	0	0	
15	0	0	0	0	515	417	0	488	0	0	
0	0	0	0	0	510	412	0	417	0	0	
1	0	0	0	0	503	406	0	339	0	0	
2	0	0	0	0	496	400	0	259	0	0	
3	0	0	0	0	488	393	0	184	0	0	
4	0	0	0	0	480	386	0	119	0	0	
5	0	0	0	0	472	379	0	69	0	0	
6	0	0	0	0	463	371	0	39	0	0	
7	0	0	0	0	455	363	0	32	0	0	
8	0	0	0	0	447	355	0	51	0	0	
9	0	0	0	0	440	347	0	92	0	0	
10	0	0	0	0	432	338	0	152	0	0	
11	0	0	0	0	423	328	0	223	0	0	
12	0	0	0	0	415	319	0	295	0	0	
13	0	0	0	0	407	310	0	361	0	0	
14	0	0	0	0	397	299	0	413	0	0	
15	0	0	0	0	387	287	0	443	0	0	
0	0	0	0	0	375	276	0	447	0	0	
1	0	0	0	0	364	263	0	425	0	0	
2	0	0	0	0	351	250	0	379	0	0	
3	0	0	0	0	338	238	0	315	0	0	
4	0	0	0	0	325	226	0	238	0	0	
5	0	0	0	0	312	215	0	154	0	0	
6	0	0	0	0	302	207	0	70	0	0	
7	0	0	0	0	295	200	0	0	0	0	
8	0	0	0	0	290	197	0	0	0	0	
9	0	0	0	0	289	196	0	0	0	0	
10	0	0	0	0	291	199	0	0	0	0	
11	0	0	0	0	299	207	0	0	0	0	
12	0	0	0	0	311	218	0	0	0	0	
13	0	0	0	0	327	232	0	0	0	0	
14	0	0	0	0	347	249	0	11	0	0	
15	0	0	0	0	370	269	0	50	0	0	
0	0	0	0	0	396	291	0	104	0	0	
1	0	0	0	0	423	313	0	167	0	0	
2	0	0	0	0	449	337	0	230	0	0	
3	0	0	0	0	475	360	0	288	0	0	
4	0	0	0	0	500	382	0	336	0	0	
5	0	0	0	0	522	403	0	371	0	0	
6	0	0	0	0	541	422	0	391	0	0	
7	0	0	0	0	556	438	0	397	0	0	
8	0	0	0	0	566	451	0	388	0	0	
9	0	0	0	0	573	461	0	369	0	0	
10	0	0	0	0	576	467	0	342	0	0	
11	0	0	0	0	575	471	0	313	0	0	
12	0	0	0	0	572	472	0	287	0	0	
13	0	0	0	0	566	471	0	270	0	0	
14	0	0	0	0	558	468	0	266	0	0	
15	0	0	0	0	551	464	0	279	0	0	
0	0	0	0	0	543	458	0	310	0	0	
1	0	0	0	0	535	452	0	356	0	0	
2	0	0	0	0	527	446	0	414	0	0	
3	0	0	0	0	523	441	0	475	0	0	
4	0	0	0	0	519	437	0	534	0	0	
5	0	0	0	0	517	433	0	583	0	0	
6	0	0	0	0	517	432	0	617	0	0	
7	0	0	0	0	518	431	0	630	0	0	
8	0	0	0	0	520	432	0	620	0	0	
9	0	0	0	0	524	433	0	590	0	0	
10	0	0	0	0	527	435	0	541	0	0	
11	0	0	0	0	532	439	0	480	0	0	
12	0	0	0	0	536	442	0	412	0	0	
13	0	0	0	0	539	446	0	340	0	0	
14	0	0	0	0	543	450	0	273	0	0	
15	0	0	0	0	546	454	0	212	0	0	
0	0	0	0	0	548	457	0	162	0	0	
1	0	0	0	0	549	460	0	126	0	0	
2	0	0	0	0	550	462	0	108	0	0	
3	0	0	0	0	550	463	0	111	0	0	
4	0	0	0	0	550	464	0	136	0	0	
5	0	0	0	0	548	463	0	182	0	0	
6	0	0	0	0	546	463	0	245	0	0	
7	0	0	0	0	544	462	0	318	0	0	
8	0	0	0	0	543	460	0	395	0	0	
9	0	0	0	0	541	459	0	467	0	0	
10	0	0	0	0	540	457	0	526	0	0	
11	0	0	0	0	539	455	0	566	0	0	
12	0	0	0	0	538	455	0	583	0	0	
13	0	0	0	0	538	455	0	577	0	0	
14	0	0	0	0	538	454	0	551	0	0	
15	0	0	0	0	539	454	0	507	0	0	
0	0	0	0	0	539	454	0	451	0	0	
1	0	0	0	0	539	455	0	387	0	0	
2	0	0	0	0	540	455	0	322	0	0	
3	0	0	0	0	540	456	0	262	0	0	
4	0	0	0	0	540	457	0	212	0	0	
5	0	0	0	0	540	457	0	176	0	0	
6	0	0	0	0	541	459	0	160	0	0	
7	0	0	0	0	541	459	0	167	0	0	
8	0	0	0	0	542	460	0	196	0	0	
9	0	0	0	0	542	460	0	247	0	0	
10	0	0	0	0	542	460	0	314	0	0	
11	0	0	0	0	542	460	0	390	0	0	
12	0	0	0	0	542	459	0	468	0	0	
13	0	0	0	0	542	458	0	539	0	0	
14	0	0	0	0	541	456	0	594	0	0	
15	0	0	0	0	539	455	0	627	0	0	
0	0	0	0	0	539	454	0	637	0	0	
1	0	0	0	0	538	452	0	622	0	0	
2	0	0	0	0	538	452	0	585	0	0	
3	0	0	0	0	538	451	0	531	0	0	
4	0	0	0	0	537	451	0	464	0	0	
5	0	0	0	0	537	452	0	393	0	0	
6	0	0	0	0	537	453	0	320	0	0	
7	0	0	0	0	538	454	0	254	0	0	
8	0	0	0	0	538	455	0	197	0	0	
9	0	0	0	0	537	456	0	156	0	0	
10	0	0	0	0	538	457	0	133	0	0	
11	0	0	0	0	537	457	0	134	0	0	
12	0	0	0	0	537	457	0	158	0	0	
13	0	0	0	0	536	457	0	204	0	0	
14	0	0	0	0	536	456	0	269	0	0	
15	0	0	0	0	535	456	0	344	0	0	
0	0	0	0	0	536	455	0	423	0	0	
1	0	0	0	0	536	455	0	498	0	0	
2	0	0	0	0	535	455	0	558	0	0	
3	0	0	0	0	536	454	0	597	0	0	
4	0	0	0	0	536	454	0	612	0	0	
5	0	0	0	0	536	454	0	604	0	0	
6	0	0	0	0	536	453	0	573	0	0	
7	0	0	0	0	537	454	0	525	0	0	
8	0	0	0	0	537	454	0	464	0	0	
9	0	0	0	0	538	455	0	395	0	0	
10	0	0	0	0	538	455	0	326	0	0	
11	0	0	0	0	539	456	0	260	0	0	
12	0	0	0	0	540	457	0	203	0	0	
13	0	0	0	0	540	458	0	159	0	0	
14	0	0	0	0	540	458	0	133	0	0	
15	0	0	0	0	541	459	0	127	0	0	
0	0	0	0	0	541	460	0	146	0	0	
1	0	0	0	0	541	460	0	187	0	0	
2	0	0	0	0	541	459	0	246	0	0	
3	0	0	0	0	540	458	0	316	0	0	
4	0	0	0	0	539	457	0	392	0	0	
5	0	0	0	0	537	457	0	464	0	0	
6	0	0	0	0	536	455	0	523	0	0	
7	0	0	0	0	535	455	0	562	0	0	
8	0	0	0	0	533	454	0	580	0	0	
9	0	0	0	0	533	454	0	575	0	0	
10	0	0	0	0	532	453	0	548	0	0	
11	0	0	0	0	532	454	0	504	0	0	
12	0	0	0	0	533	454	0	449	0	0	
13	0	0	0	0	533	454	0	387	0	0	
14	0	0	0	0	534	455	0	322	0	0	
15	0	0	0	0	535	457	0	262	0	0	
0	0	0	0	0	536	458	0	208	0	0	
1	0	0	0	0	537	459	0	169	0	0	
2	0	0	0	0	537	460	0	147	0	0	
3	0	0	0	0	539	462	0	145	0	0	
4	0	0	0	0	538	462	0	165	0	0	
5	0	0	0	0	539	462	0	206	0	0	
6	0	0	0	0	537	462	0	263	0	0	
7	0	0	0	0	536	460	0	331	0	0	
8	0	0	0	0	536	459	0	403	0	0	
9	0	0	0	0	534	457	0	469	0	0	
10	0	0	0	0	532	455	0	522	0	0	
11	0	0	0	0	531	453	0	557	0	0	
12	0	0	0	0	529	451	0	569	0	0	
13	0	0	0	0	529	451	0	560	0	0	
14	0	0	0	0	528	449	0	531	0	0	
15	0	0	0	0	528	449	0	487	0	0	
0	0	0	0	0	528	449	0	432	0	0	
1	0	0	0	0	528	448	0	369	0	0	
2	0	0	0	0	528	449	0	305	0	0	
3	0	0	0	0	527	449	0	245	0	0	
4	0	0	0	0	527	449	0	192	0	0	
5	0	0	0	0	527	449	0	150	0	0	
6	0	0	0	0	526	448	0	121	0	0	
7	0	0	0	0	525	448	0	110	0	0	
8	0	0	0	0	525	448	0	120	0	0	
9	0	0	0	0	524	448	0	151	0	0	
10	0	0	0	0	525	449	0	200	0	0	
11	0	0	0	0	525	449	0	262	0	0	
12	0	0	0	0	527	450	0	329	0	0	
13	0	0	0	0	528	451	0	396	0	0	
14	0	0	0	0	529	452	0	455	0	0	
15	0	0	0	0	531	453	0	498	0	0	
0	0	0	0	0	532	455	0	522	0	0	
1	0	0	0	0	535	456	0	527	0	0	
2	0	0	0	0	536	458	0	511	0	0	
3	0	0	0	0	537	459	0	480	0	0	
4	0	0	0	0	538	461	0	437	0	0	
5	0	0	0	0	539	462	0	385	0	0	
6	0	0	0	0	539	463	0	330	0	0	
7	0	0	0	0	539	463	0	276	0	0	
8	0	0	0	0	539	464	0	229	0	0	
9	0	0	0	0	538	464	0	193	0	0	
10	0	0	0	0	537	464	0	171	0	0	
11	0	0	0	0	537	464	0	168	0	0	
12	0	0	0	0	537	463	0	187	0	0	
13	0	0	0	0	536	463	0	227	0	0	
14	0	0	0	0	536	462	0	283	0	0	
15	0	0	0	0	535	461	0	351	0	0	
0	0	0	0	0	536	460	0	423	0	0	
1	0	0	0	0	536	460	0	489	0	0	
2	0	0	0	0	536	459	0	543	0	0	
3	0	0	0	0	536	458	0	579	0	0	
4	0	0	0	0	536	457	0	592	0	0	
5	0	0	0	0	536	457	0	583	0	0	
6	0	0	0	0	536	457	0	554	0	0	
7	0	0	0	0	536	457	0	509	0	0	
8	0	0	0	0	536	458	0	452	0	0	
9	0	0	0	0	536	459	0	390	0	0	
10	0	0	0	0	536	460	0	326	0	0	
11	0	0	0	0	536	461	0	267	0	0	
12	0	0	0	0	537	462	0	216	0	0	
13	0	0	0	0	537	463	0	178	0	0	
14	0	0	0	0	537	463	0	157	0	0	
15	0	0	0	0	538	464	0	157	0	0	
0	0	0	0	0	537	464	0	180	0	0	
1	0	0	0	0	537	464	0	224	0	0	
2	0	0	0	0	537	463	0	287	0	0	
3	0	0	0	0	536	462	0	361	0	0	
4	0	0	0	0	536	461	0	438	0	0	
5	0	0	0	0	536	459	0	511	0	0	
6	0	0	0	0	536	459	0	571	0	0	
7	0	0	0	0	535	457	0	610	0	0	
8	0	0	0	0	536	457	0	627	0	0	
9	0	0	0	0	536	458	0	619	0	0	
10	0	0	0	0	537	458	0	589	0	0	
11	0	0	0	0	537	459	0	542	0	0	
12	0	0	0	0	538	459	0	480	0	0	
13	0	0	0	0	538	460	0	411	0	0	
14	0	0	0	0	539	460	0	340	0	0	
15	0	0	0	0	538	459	0	272	0	0	
0	0	0	0	0	537	459	0	214	0	0	
1	0	0	0	0	536	459	0	171	0	0	
2	0	0	0	0	535	459	0	146	0	0	
3	0	0	0	0	535	459	0	145	0	0	
4	0	0	0	0	534	459	0	169	0	0	
5	0	0	0	0	534	459	0	216	0	0	
6	0	0	0	0	534	459	0	281	0	0	
7	0	0	0	0	534	460	0	358	0	0	
8	0	0	0	0	535	460	0	439	0	0	
9	0	0	0	0	535	459	0	514	0	0	
10	0	0	0	0	535	459	0	575	0	0	
11	0	0	0	0	534	457	0	615	0	0	
12	0	0	0	0	533	457	0	630	0	0	
13	0	0	0	0	533	455	0	620	0	0	
14	0	0	0	0	532	455	0	588	0	0	
15	0	0	0	0	531	455	0	538	0	0	
0	0	0	0	0	531	455	0	475	0	0	
1	0	0	0	0	531	455	0	404	0	0	
2	0	0	0	0	531	457	0	333	0	0	
3	0	0	0	0	532	458	0	268	0	0	
4	0	0	0	0	533	460	0	213	0	0	
5	0	0	0	0	534	461	0	176	0	0	
6	0	0	0	0	535	463	0	159	0	0	
7	0	0	0	0	537	464	0	168	0	0	
8	0	0	0	0	538	465	0	201	0	0	
9	0	0	0	0	540	466	0	256	0	0	
10	0	0	0	0	541	466	0	329	0	0	
11	0	0	0	0	542	466	0	411	0	0	
12	0	0	0	0	543	466	0	496	0	0	
13	0	0	0	0	543	465	0	573	0	0	
14	0	0	0	0	543	464	0	634	0	0	
15	0	0	0	0	543	463	0	673	0	0	
0	0	0	0	0	542	461	0	685	0	0	
1	0	0	0	0	541	460	0	672	0	0	
2	0	0	0	0	540	459	0	635	0	0	
3	0	0	0	0	540	459	0	578	0	0	
4	0	0	0	0	540	459	0	508	0	0	
5	0	0	0	0	539	459	0	428	0	0	
6	0	0	0	0	539	460	0	348	0	0	
7	0	0	0	0	538	461	0	273	0	0	
8	0	0	0	0	538	462	0	209	0	0	
9	0	0	0	0	538	463	0	161	0	0	
10	0	0	0	0	537	463	0	133	0	0	
11	0	0	0	0	537	463	0	129	0	0	
12	0	0	0	0	536	463	0	150	0	0	
13	0	0	0	0	536	463	0	195	0	0	
14	0	0	0	0	536	463	0	258	0	0	
15	0	0	0	0	535	462	0	334	0	0	
0	0	0	0	0	535	461	0	413	0	0	
1	0	0	0	0	534	460	0	488	0	0	
2	0	0	0	0	534	460	0	549	0	0	
3	0	0	0	0	533	459	0	590	0	0	
4	0	0	0	0	532	458	0	606	0	0	
5	0	0	0	0	532	457	0	599	0	0	
6	0	0	0	0	531	456	0	569	0	0	
7	0	0	0	0	531	455	0	521	0	0	
8	0	0	0	0	529	454	0	460	0	0	
9	0	0	0	0	528	453	0	390	0	0	
10	0	0	0	0	527	452	0	319	0	0	
11	0	0	0	0	526	451	0	252	0	0	
12	0	0	0	0	524	450	0	195	0	0	
13	0	0	0	0	523	449	0	151	0	0	
14	0	0	0	0	523	449	0	125	0	0	
15	0	0	0	0	523	449	0	123	0	0	
0	0	0	0	0	524	450	0	144	0	0	
1	0	0	0	0	525	451	0	188	0	0	
2	0	0	0	0	526	452	0	249	0	0	
3	0	0	0	0	528	452	0	324	0	0	
4	0	0	0	0	531	454	0	402	0	0	
5	0	0	0	0	532	455	0	476	0	0	
6	0	0	0	0	535	455	0	537	0	0	
7	0	0	0	0	536	455	0	579	0	0	
8	0	0	0	0	536	455	0	596	0	0	
9	0	0	0	0	536	455	0	590	0	0	
10	0	0	0	0	536	454	0	561	0	0	
11	0	0	0	0	535	454	0	514	0	0	
12	0	0	0	0	533	452	0	454	0	0	
13	0	0	0	0	530	451	0	386	0	0	
14	0	0	0	0	529	451	0	316	0	0	
15	0	0	0	0	527	451	0	249	0	0	
0	0	0	0	0	526	451	0	191	0	0	
1	0	0	0	0	525	452	0	147	0	0	
2	0	0	0	0	525	454	0	120	0	0	
3	0	0	0	0	526	455	0	117	0	0	
4	0	0	0	0	527	457	0	137	0	0	
5	0	0	0	0	529	460	0	179	0	0	
6	0	0	0	0	531	462	0	240	0	0	
7	0	0	0	0	534	463	0	313	0	0	
8	0	0	0	0	536	464	0	391	0	0	
9	0	0	0	0	538	465	0	465	0	0	
10	0	0	0	0	540	466	0	527	0	0	
11	0	0	0	0	541	465	0	571	0	0	
12	0	0	0	0	542	465	0	591	0	0	
13	0	0	0	0	543	465	0	587	0	0	
14	0	0	0	0	543	465	0	561	0	0	
15	0	0	0	0	543	464	0	516	0	0	
0	0	0	0	0	543	463	0	459	0	0	
1	0	0	0	0	542	463	0	392	0	0	
2	0	0	0	0	542	462	0	323	0	0	
3	0	0	0	0	540	460	0	259	0	0	
4	0	0	0	0	537	459	0	203	0	0	
5	0	0	0	0	534	457	0	163	0	0	
6	0	0	0	0	531	456	0	141	0	0	
7	0	0	0	0	529	455	0	143	0	0	
8	0	0	0	0	526	454	0	169	0	0	
9	0	0	0	0	524	453	0	217	0	0	
10	0	0	0	0	522	451	0	282	0	0	
11	0	0	0	0	521	451	0	358	0	0	
12	0	0	0	0	521	451	0	435	0	0	
13	0	0	0	0	521	451	0	508	0	0	
14	0	0	0	0	521	451	0	566	0	0	
15	0	0	0	0	523	451	0	604	0	0	
0	0	0	0	0	524	451	0	617	0	0	
1	0	0	0	0	526	453	0	606	0	0	
2	0	0	0	0	528	454	0	573	0	0	
3	0	0	0	0	530	455	0	520	0	0	
4	0	0	0	0	531	455	0	455	0	0	
5	0	0	0	0	532	457	0	381	0	0	
6	0	0	0	0	534	457	0	306	0	0	
7	0	0	0	0	533	457	0	235	0	0	
8	0	0	0	0	533	457	0	174	0	0	
9	0	0	0	0	531	456	0	127	0	0	
10	0	0	0	0	530	456	0	100	0	0	
11	0	0	0	0	529	456	0	97	0	0	
12	0	0	0	0	528	455	0	119	0	0	
13	0	0	0	0	527	455	0	165	0	0	
14	0	0	0	0	526	454	0	231	0	0	
15	0	0	0	0	525	453	0	308	0	0	
0	0	0	0	0	524	452	0	391	0	0	
1	0	0	0	0	524	451	0	469	0	0	
2	0	0	0	0	523	450	0	534	0	0	
3	0	0	0	0	523	449	0	578	0	0	
4	0	0	0	0	522	447	0	596	0	0	
5	0	0	0	0	521	446	0	591	0	0	
6	0	0	0	0	521	445	0	561	0	0	
7	0	0	0	0	521	444	0	512	0	0	
8	0	0	0	0	521	444	0	448	0	0	
9	0	0	0	0	521	444	0	376	0	0	
10	0	0	0	0	523	446	0	302	0	0	
11	0	0	0	0	524	447	0	232	0	0	
12	0	0	0	0	525	448	0	172	0	0	
13	0	0	0	0	527	451	0	125	0	0	
14	0	0	0	0	529	454	0	98	0	0	
15	0	0	0	0	531	456	0	94	0	0	
0	0	0	0	0	533	459	0	114	0	0	
1	0	0	0	0	535	460	0	158	0	0	
2	0	0	0	0	536	461	0	221	0	0	
3	0	0	0	0	536	461	0	295	0	0	
4	0	0	0	0	536	461	0	375	0	0	
5	0	0	0	0	536	460	0	451	0	0	
6	0	0	0	0	534	457	0	513	0	0	
7	0	0	0	0	531	454	0	555	0	0	
8	0	0	0	0	527	450	0	573	0	0	
9	0	0	0	0	525	448	0	566	0	0	
10	0	0	0	0	521	445	0	536	0	0	
11	0	0	0	0	519	442	0	487	0	0	
12	0	0	0	0	515	439	0	425	0	0	
13	0	0	0	0	513	437	0	355	0	0	
14	0	0	0	0	511	436	0	283	0	0	
15	0	0	0	0	511	436	0	214	0	0	
0	0	0	0	0	511	435	0	152	0	0	
1	0	0	0	0	511	435	0	103	0	0	
2	0	0	0	0	511	435	0	73	0	0	
3	0	0	0	0	512	436	0	62	0	0	
4	0	0	0	0	513	436	0	75	0	0	
5	0	0	0	0	513	436	0	110	0	0	
6	0	0	0	0	514	436	0	164	0	0	
7	0	0	0	0	515	437	0	231	0	0	
8	0	0	0	0	516	437	0	305	0	0	
9	0	0	0	0	517	436	0	378	0	0	
10	0	0	0	0	517	436	0	441	0	0	
11	0	0	0	0	518	435	0	487	0	0	
12	0	0	0	0	518	435	0	510	0	0	
13	0	0	0	0	518	434	0	512	0	0	
14	0	0	0	0	517	433	0	492	0	0	
15	0	0	0	0	516	433	0	454	0	0	
0	0	0	0	0	517	433	0	402	0	0	
1	0	0	0	0	516	433	0	342	0	0	
2	0	0	0	0	517	434	0	279	0	0	
3	0	0	0	0	516	434	0	217	0	0	
4	0	0	0	0	517	435	0	162	0	0	
5	0	0	0	0	517	437	0	118	0	0	
6	0	0	0	0	517	438	0	90	0	0	
7	0	0	0	0	518	440	0	80	0	0	
8	0	0	0	0	519	441	0	94	0	0	
9	0	0	0	0	519	442	0	129	0	0	
10	0	0	0	0	519	443	0	182	0	0	
11	0	0	0	0	519	444	0	247	0	0	
12	0	0	0	0	520	444	0	318	0	0	
13	0	0	0	0	520	443	0	387	0	0	
14	0	0	0	0	520	442	0	445	0	0	
15	0	0	0	0	519	440	0	486	0	0	
0	0	0	0	0	519	440	0	506	0	0	
1	0	0	0	0	519	438	0	505	0	0	
2	0	0	0	0	519	437	0	483	0	0	
3	0	0	0	0	519	435	0	443	0	0	
4	0	0	0	0	518	434	0	391	0	0	
5	0	0	0	0	518	434	0	331	0	0	
6	0	0	0	0	519	433	0	268	0	0	
7	0	0	0	0	519	433	0	208	0	0	
8	0	0	0	0	519	434	0	156	0	0	
9	0	0	0	0	519	435	0	115	0	0	
10	0	0	0	0	520	436	0	91	0	0	
11	0	0	0	0	521	437	0	88	0	0	
12	0	0	0	0	521	438	0	107	0	0	
13	0	0	0	0	521	439	0	149	0	0	
14	0	0	0	0	521	438	0	209	0	0	
15	0	0	0	0	519	438	0	280	0	0	
0	0	0	0	0	519	437	0	356	0	0	
1	0	0	0	0	517	435	0	428	0	0	
2	0	0	0	0	515	433	0	487	0	0	
3	0	0	0	0	513	431	0	526	0	0	
4	0	0	0	0	512	430	0	541	0	0	
5	0	0	0	0	511	429	0	533	0	0	
6	0	0	0	0	510	428	0	504	0	0	
7	0	0	0	0	510	428	0	455	0	0	
8	0	0	0	0	510	427	0	395	0	0	
9	0	0	0	0	510	428	0	326	0	0	
10	0	0	0	0	511	428	0	257	0	0	
11	0	0	0	0	512	429	0	192	0	0	
12	0	0	0	0	513	431	0	135	0	0	
13	0	0	0	0	515	432	0	93	0	0	
14	0	0	0	0	516	434	0	69	0	0	
15	0	0	0	0	519	435	0	68	0	0	
0	0	0	0	0	521	436	0	92	0	0	
1	0	0	0	0	523	438	0	139	0	0	
2	0	0	0	0	524	438	0	204	0	0	
3	0	0	0	0	525	440	0	281	0	0	
4	0	0	0	0	527	441	0	364	0	0	
5	0	0	0	0	528	442	0	444	0	0	
6	0	0	0	0	529	443	0	510	0	0	
7	0	0	0	0	531	444	0	558	0	0	
8	0	0	0	0	531	445	0	581	0	0	
9	0	0	0	0	532	447	0	578	0	0	
10	0	0	0	0	532	447	0	552	0	0	
11	0	0	0	0	532	448	0	505	0	0	
12	0	0	0	0	531	448	0	443	0	0	
13	0	0	0	0	531	448	0	371	0	0	
14	0	0	0	0	530	448	0	297	0	0	
15	0	0	0	0	529	448	0	226	0	0	
0	0	0	0	0	528	448	0	163	0	0	
1	0	0	0	0	528	448	0	112	0	0	
2	0	0	0	0	527	448	0	80	0	0	
3	0	0	0	0	528	449	0	69	0	0	
4	0	0	0	0	527	449	0	82	0	0	
5	0	0	0	0	527	448	0	119	0	0	
6	0	0	0	0	527	448	0	174	0	0	
7	0	0	0	0	527	446	0	242	0	0	
8	0	0	0	0	526	445	0	317	0	0	
9	0	0	0	0	526	444	0	390	0	0	
10	0	0	0	0	526	443	0	453	0	0	
11	0	0	0	0	526	443	0	497	0	0	
12	0	0	0	0	527	443	0	520	0	0	
13	0	0	0	0	527	444	0	519	0	0	
14	0	0	0	0	527	444	0	495	0	0	
15	0	0	0	0	527	444	0	453	0	0	
0	0	0	0	0	525	443	0	396	0	0	
1	0	0	0	0	523	443	0	330	0	0	
2	0	0	0	0	521	442	0	262	0	0	
3	0	0	0	0	519	441	0	195	0	0	
4	0	0	0	0	517	441	0	136	0	0	
5	0	0	0	0	515	440	0	89	0	0	
6	0	0	0	0	513	439	0	58	0	0	
7	0	0	0	0	513	439	0	49	0	0	
8	0	0	0	0	513	439	0	63	0	0	
9	0	0	0	0	514	440	0	99	0	0	
10	0	0	0	0	515	440	0	155	0	0	
11	0	0	0	0	517	440	0	224	0	0	
12	0	0	0	0	519	442	0	298	0	0	
13	0	0	0	0	521	442	0	371	0	0	
14	0	0	0	0	523	442	0	434	0	0	
15	0	0	0	0	523	441	0	480	0	0	
0	0	0	0	0	523	440	0	503	0	0	
1	0	0	0	0	522	438	0	502	0	0	
2	0	0	0	0	521	436	0	479	0	0	
3	0	0	0	0	519	434	0	436	0	0	
4	0	0	0	0	515	431	0	379	0	0	
5	0	0	0	0	512	428	0	312	0	0	
6	0	0	0	0	509	426	0	243	0	0	
7	0	0	0	0	506	424	0	175	0	0	
8	0	0	0	0	503	422	0	114	0	0	
9	0	0	0	0	499	420	0	67	0	0	
10	0	0	0	0	498	419	0	37	0	0	
11	0	0	0	0	496	418	0	30	0	0	
12	0	0	0	0	496	418	0	46	0	0	
13	0	0	0	0	496	418	0	85	0	0	
14	0	0	0	0	498	419	0	143	0	0	
15	0	0	0	0	499	419	0	215	0	0	
0	0	0	0	0	502	421	0	290	0	0	
1	0	0	0	0	504	423	0	365	0	0	
2	0	0	0	0	508	424	0	429	0	0	
3	0	0	0	0	510	426	0	476	0	0	
4	0	0	0	0	512	426	0	500	0	0	
5	0	0	0	0	514	427	0	500	0	0	
6	0	0	0	0	515	428	0	478	0	0	
7	0	0	0	0	516	428	0	436	0	0	
8	0	0	0	0	517	428	0	380	0	0	
9	0	0	0	0	517	428	0	315	0	0	
10	0	0	0	0	517	429	0	247	0	0	
11	0	0	0	0	518	430	0	180	0	0	
12	0	0	0	0	518	432	0	121	0	0	
13	0	0	0	0	520	434	0	75	0	0	
14	0	0	0	0	522	437	0	45	0	0	
15	0	0	0	0	525	441	0	37	0	0	
0	0	0	0	0	529	445	0	53	0	0	
1	0	0	0	0	534	449	0	93	0	0	
2	0	0	0	0	538	454	0	153	0	0	
3	0	0	0	0	543	458	0	226	0	0	
4	0	0	0	0	548	462	0	307	0	0	
5	0	0	0	0	552	465	0	385	0	0	
6	0	0	0	0	555	467	0	453	0	0	
7	0	0	0	0	557	468	0	502	0	0	
8	0	0	0	0	556	468	0	526	0	0	
9	0	0	0	0	554	466	0	526	0	0	
10	0	0	0	0	550	461	0	500	0	0	
11	0	0	0	0	544	455	0	454	0	0	
12	0	0	0	0	536	448	0	390	0	0	
13	0	0	0	0	526	440	0	316	0	0	
14	0	0	0	0	516	431	0	238	0	0	
15	0	0	0	0	506	421	0	161	0	0	
0	0	0	0	0	496	412	0	93	0	0	
1	0	0	0	0	487	403	0	38	0	0	
2	0	0	0	0	480	396	0	3	0	0	
3	0	0	0	0	475	391	0	0	0	0	
4	0	0	0	0	471	388	0	7	0	0	
5	0	0	0	0	470	387	0	41	0	0	
6	0	0	0	0	472	387	0	97	0	0	
7	0	0	0	0	474	390	0	167	0	0	
8	0	0	0	0	479	392	0	244	0	0	
9	0	0	0	0	483	395	0	320	0	0	
10	0	0	0	0	488	399	0	386	0	0	
11	0	0	0	0	493	401	0	434	0	0	
12	0	0	0	0	497	403	0	460	0	0	
13	0	0	0	0	500	406	0	460	0	0	
14	0	0	0	0	502	407	0	439	0	0	
15	0	0	0	0	504	407	0	396	0	0	
0	0	0	0	0	504	408	0	340	0	0	
1	0	0	0	0	504	408	0	275	0	0	
2	0	0	0	0	504	408	0	205	0	0	
3	0	0	0	0	503	408	0	138	0	0	
4	0	0	0	0	502	409	0	78	0	0	
5	0	0	0	0	502	410	0	30	0	0	
6	0	0	0	0	502	411	0	0	0	0	
7	0	0	0	0	504	413	0	0	0	0	
8	0	0	0	0	504	414	0	8	0	0	
9	0	0	0	0	505	415	0	42	0	0	
10	0	0	0	0	506	416	0	95	0	0	
11	0	0	0	0	506	416	0	162	0	0	
12	0	0	0	0	507	416	0	236	0	0	
13	0	0	0	0	507	416	0	308	0	0	
14	0	0	0	0	507	416	0	371	0	0	
15	0	0	0	0	507	415	0	418	0	0	
0	0	0	0	0	505	414	0	443	0	0	
1	0	0	0	0	504	412	0	445	0	0	
2	0	0	0	0	502	411	0	424	0	0	
3	0	0	0	0	499	408	0	384	0	0	
4	0	0	0	0	497	407	0	330	0	0	
5	0	0	0	0	494	404	0	266	0	0	
6	0	0	0	0	492	403	0	198	0	0	
7	0	0	0	0	490	401	0	131	0	0	
8	0	0	0	0	489	401	0	71	0	0	
9	0	0	0	0	489	401	0	23	0	0	
10	0	0	0	0	490	401	0	0	0	0	
11	0	0	0	0	492	403	0	0	0	0	
12	0	0	0	0	495	404	0	3	0	0	
13	0	0	0	0	498	407	0	35	0	0	
14	0	0	0	0	502	409	0	85	0	0	
15	0	0	0	0	505	412	0	150	0	0	
0	0	0	0	0	509	414	0	221	0	0	
1	0	0	0	0	512	415	0	291	0	0	
2	0	0	0	0	515	417	0	354	0	0	
3	0	0	0	0	517	418	0	399	0	0	
4	0	0	0	0	518	419	0	423	0	0	
5	0	0	0	0	518	418	0	426	0	0	
6	0	0	0	0	516	417	0	406	0	0	
7	0	0	0	0	513	414	0	365	0	0	
8	0	0	0	0	509	411	0	309	0	0	
9	0	0	0	0	503	407	0	243	0	0	
10	0	0	0	0	496	401	0	173	0	0	
11	0	0	0	0	488	395	0	102	0	0	
12	0	0	0	0	479	388	0	37	0	0	
13	0	0	0	0	471	381	0	0	0	0	
14	0	0	0	0	461	373	0	0	0	0	
15	0	0	0	0	452	366	0	0	0	0	
0	0	0	0	0	444	357	0	0	0	0	
1	0	0	0	0	436	349	0	4	0	0	
2	0	0	0	0	429	340	0	34	0	0	
3	0	0	0	0	421	331	0	78	0	0	
4	0	0	0	0	414	323	0	127	0	0	
5	0	0	0	0	407	313	0	177	0	0	
6	0	0	0	0	400	303	0	217	0	0	
7	0	0	0	0	391	292	0	242	0	0	
8	0	0	0	0	382	281	0	248	0	0	
9	0	0	0	0	372	269	0	235	0	0	
10	0	0	0	0	362	257	0	203	0	0	
11	0	0	0	0	350	244	0	154	0	0	
12	0	0	0	0	338	231	0	94	0	0	
13	0	0	0	0	325	219	0	27	0	0	
14	0	0	0	0	313	208	0	0	0	0	
15	0	0	0	0	301	198	0	0	0	0	
0	0	0	0	0	291	189	0	0	0	0	
1	0	0	0	0	283	182	0	0	0	0	
2	0	0	0	0	278	178	0	0	0	0	
3	0	0	0	0	276	177	0	0	0	0	
4	0	0	0	0	278	180	0	0	0	0	
5	0	0	0	0	284	185	0	0	0	0	
6	0	0	0	0	293	193	0	0	0	0	
7	0	0	0	0	307	206	0	0	0	0	
8	0	0	0	0	325	221	0	0	0	0	
9	0	0	0	0	347	240	0	0	0	0	
10	0	0	0	0	371	261	0	0	0	0	
11	0	0	0	0	399	284	0	0	0	0	
12	0	0	0	0	428	310	0	6	0	0	
13	0	0	0	0	457	337	0	18	0	0	
14	0	0	0	0	486	363	0	33	0	0	
15	0	0	0	0	512	388	0	50	0	0	
0	0	0	0	0	535	411	0	66	0	0	
1	0	0	0	0	552	430	0	80	0	0	
2	0	0	0	0	567	446	0	92	0	0	
3	0	0	0	0	575	458	0	102	0	0	
4	0	0	0	0	580	466	0	110	0	0	
5	0	0	0	0	579	470	0	116	0	0	
6	0	0	0	0	575	470	0	124	0	0	
7	0	0	0	0	568	467	0	137	0	0	
8	0	0	0	0	558	460	0	157	0	0	
9	0	0	0	0	546	452	0	187	0	0	
10	0	0	0	0	534	442	0	224	0	0	
11	0	0	0	0	523	432	0	269	0	0	
12	0	0	0	0	513	423	0	314	0	0	
13	0	0	0	0	505	415	0	355	0	0	
14	0	0	0	0	501	410	0	388	0	0	
15	0	0	0	0	499	407	0	405	0	0	
0	0	0	0	0	500	406	0	405	0	0	
1	0	0	0	0	504	408	0	387	0	0	
2	0	0	0	0	509	411	0	354	0	0	
3	0	0	0	0	516	415	0	308	0	0	
4	0	0	0	0	523	420	0	255	0	0	
5	0	0	0	0	530	425	0	199	0	0	
6	0	0	0	0	537	431	0	141	0	0	
7	0	0	0	0	542	435	0	88	0	0	
8	0	0	0	0	546	439	0	41	0	0	
9	0	0	0	0	548	441	0	6	0	0	
10	0	0	0	0	548	442	0	0	0	0	
11	0	0	0	0	548	443	0	0	0	0	
12	0	0	0	0	547	442	0	6	0	0	
13	0	0	0	0	544	441	0	38	0	0	
14	0	0	0	0	542	440	0	87	0	0	
15	0	0	0	0	540	438	0	150	0	0	
0	0	0	0	0	537	436	0	222	0	0	
1	0	0	0	0	535	434	0	292	0	0	
2	0	0	0	0	533	432	0	356	0	0	
3	0	0	0	0	531	431	0	404	0	0	
4	0	0	0	0	529	429	0	433	0	0	
5	0	0	0	0	528	428	0	438	0	0	
6	0	0	0	0	528	428	0	422	0	0	
7	0	0	0	0	528	427	0	387	0	0	
8	0	0	0	0	528	428	0	336	0	0	
9	0	0	0	0	529	428	0	277	0	0	
10	0	0	0	0	531	430	0	211	0	0	
11	0	0	0	0	533	431	0	148	0	0	
12	0	0	0	0	534	432	0	90	0	0	
13	0	0	0	0	536	432	0	45	0	0	
14	0	0	0	0	536	432	0	18	0	0	
15	0	0	0	0	538	434	0	11	0	0	
0	0	0	0	0	539	434	0	30	0	0	
1	0	0	0	0	540	435	0	71	0	0	
2	0	0	0	0	540	435	0	132	0	0	
3	0	0	0	0	540	436	0	206	0	0	
4	0	0	0	0	541	436	0	286	0	0	
5	0	0	0	0	542	437	0	364	0	0	
6	0	0	0	0	542	436	0	431	0	0	
7	0	0	0	0	542	436	0	480	0	0	
8	0	0	0	0	542	436	0	505	0	0	
9	0	0	0	0	541	435	0	505	0	0	
10	0	0	0	0	540	434	0	479	0	0	
11	0	0	0	0	540	433	0	432	0	0	
12	0	0	0	0	538	431	0	368	0	0	
13	0	0	0	0	537	431	0	294	0	0	
14	0	0	0	0	537	431	0	216	0	0	
15	0	0	0	0	537	430	0	142	0	0	
0	0	0	0	0	537	431	0	75	0	0	
1	0	0	0	0	537	431	0	26	0	0	
2	0	0	0	0	537	432	0	0	0	0	
3	0	0	0	0	539	433	0	0	0	0	
4	0	0	0	0	539	434	0	18	0	0	
5	0	0	0	0	540	435	0	63	0	0	
6	0	0	0	0	541	436	0	130	0	0	
7	0	0	0	0	541	438	0	209	0	0	
8	0	0	0	0	543	439	0	294	0	0	
9	0	0	0	0	544	440	0	376	0	0	
10	0	0	0	0	545	440	0	446	0	0	
11	0	0	0	0	545	440	0	496	0	0	
12	0	0	0	0	545	441	0	519	0	0	
13	0	0	0	0	545	440	0	516	0	0	
14	0	0	0	0	543	439	0	487	0	0	
15	0	0	0	0	542	436	0	433	0	0	
0	0	0	0	0	539	435	0	362	0	0	
1	0	0	0	0	535	432	0	283	0	0	
2	0	0	0	0	531	429	0	199	0	0	
3	0	0	0	0	528	427	0	119	0	0	
4	0	0	0	0	524	424	0	50	0	0	
5	0	0	0	0	521	423	0	1	0	0	
6	0	0	0	0	518	422	0	0	0	0	
7	0	0	0	0	517	422	0	0	0	0	
8	0	0	0	0	517	423	0	18	0	0	
9	0	0	0	0	519	424	0	66	0	0	
10	0	0	0	0	521	425	0	135	0	0	
11	0	0	0	0	525	429	0	216	0	0	
12	0	0	0	0	529	432	0	303	0	0	
13	0	0	0	0	533	434	0	387	0	0	
14	0	0	0	0	537	436	0	456	0	0	
15	0	0	0	0	540	437	0	505	0	0	
0	0	0	0	0	542	436	0	528	0	0	
1	0	0	0	0	543	436	0	523	0	0	
2	0	0	0	0	544	436	0	491	0	0	
3	0	0	0	0	543	434	0	437	0	0	
4	0	0	0	0	543	433	0	366	0	0	
5	0	0	0	0	541	431	0	285	0	0	
6	0	0	0	0	540	431	0	200	0	0	
7	0	0	0	0	537	429	0	119	0	0	
8	0	0	0	0	535	428	0	47	0	0	
9	0	0	0	0	533	427	0	0	0	0	
10	0	0	0	0	531	425	0	0	0	0	
11	0	0	0	0	530	425	0	0	0	0	
12	0	0	0	0	530	425	0	5	0	0	
13	0	0	0	0	530	425	0	44	0	0	
14	0	0	0	0	530	424	0	105	0	0	
15	0	0	0	0	531	425	0	181	0	0	
0	0	0	0	0	532	425	0	263	0	0	
1	0	0	0	0	534	426	0	344	0	0	
2	0	0	0	0	536	427	0	414	0	0	
3	0	0	0	0	539	428	0	465	0	0	
4	0	0	0	0	540	430	0	492	0	0	
5	0	0	0	0	543	432	0	493	0	0	
6	0	0	0	0	544	433	0	468	0	0	
7	0	0	0	0	545	435	0	420	0	0	
8	0	0	0	0	545	435	0	355	0	0	
9	0	0	0	0	544	436	0	280	0	0	
10	0	0	0	0	543	436	0	199	0	0	
11	0	0	0	0	541	435	0	120	0	0	
12	0	0	0	0	538	433	0	49	0	0	
13	0	0	0	0	535	431	0	0	0	0	
14	0	0	0	0	532	429	0	0	0	0	
15	0	0	0	0	529	427	0	0	0	0	
0	0	0	0	0	526	425	0	0	0	0	
1	0	0	0	0	525	423	0	23	0	0	
2	0	0	0	0	524	423	0	70	0	0	
3	0	0	0	0	524	422	0	133	0	0	
4	0	0	0	0	525	423	0	204	0	0	
5	0	0	0	0	527	424	0	275	0	0	
6	0	0	0	0	529	426	0	337	0	0	
7	0	0	0	0	532	428	0	384	0	0	
8	0	0	0	0	535	429	0	410	0	0	
9	0	0	0	0	538	432	0	414	0	0	
10	0	0	0	0	540	432	0	394	0	0	
11	0	0	0	0	542	433	0	354	0	0	
12	0	0	0	0	542	432	0	298	0	0	
13	0	0	0	0	540	431	0	231	0	0	
14	0	0	0	0	539	428	0	159	0	0	
15	0	0	0	0	536	425	0	88	0	0	
0	0	0	0	0	531	421	0	22	0	0	
1	0	0	0	0	525	415	0	0	0	0	
2	0	0	0	0	519	411	0	0	0	0	
3	0	0	0	0	514	407	0	0	0	0	
4	0	0	0	0	510	403	0	0	0	0	
5	0	0	0	0	506	400	0	3	0	0	
6	0	0	0	0	504	398	0	36	0	0	
7	0	0	0	0	503	398	0	86	0	0	
8	0	0	0	0	504	398	0	146	0	0	
9	0	0	0	0	505	399	0	209	0	0	
10	0	0	0	0	508	400	0	267	0	0	
11	0	0	0	0	511	402	0	311	0	0	
12	0	0	0	0	515	406	0	338	0	0	
13	0	0	0	0	518	408	0	345	0	0	
14	0	0	0	0	521	410	0	333	0	0	
15	0	0	0	0	524	413	0	302	0	0	
0	0	0	0	0	525	414	0	257	0	0	
1	0	0	0	0	526	415	0	203	0	0	
2	0	0	0	0	526	416	0	143	0	0	
3	0	0	0	0	524	416	0	82	0	0	
4	0	0	0	0	523	415	0	27	0	0	
5	0	0	0	0	520	413	0	0	0	0	
6	0	0	0	0	518	412	0	0	0	0	
7	0	0	0	0	516	409	0	0	0	0	
8	0	0	0	0	515	407	0	0	0	0	
9	0	0	0	0	513	405	0	27	0	0	
10	0	0	0	0	513	403	0	74	0	0	
11	0	0	0	0	513	402	0	135	0	0	
12	0	0	0	0	514	401	0	202	0	0	
13	0	0	0	0	516	402	0	271	0	0	
14	0	0	0	0	519	403	0	331	0	0	
15	0	0	0	0	521	404	0	376	0	0	
0	0	0	0	0	524	408	0	401	0	0	
1	0	0	0	0	528	411	0	403	0	0	
2	0	0	0	0	531	414	0	383	0	0	
3	0	0	0	0	534	416	0	343	0	0	
4	0	0	0	0	537	419	0	288	0	0	
5	0	0	0	0	537	422	0	222	0	0	
6	0	0	0	0	539	423	0	152	0	0	
7	0	0	0	0	539	424	0	83	0	0	
8	0	0	0	0	538	424	0	22	0	0	
9	0	0	0	0	536	423	0	0	0	0	
10	0	0	0	0	533	422	0	0	0	0	
11	0	0	0	0	530	420	0	0	0	0	
12	0	0	0	0	527	417	0	0	0	0	
13	0	0	0	0	523	415	0	25	0	0	
14	0	0	0	0	520	412	0	72	0	0	
15	0	0	0	0	517	408	0	134	0	0	
0	0	0	0	0	515	406	0	203	0	0	
1	0	0	0	0	513	402	0	271	0	0	
2	0	0	0	0	512	400	0	331	0	0	
3	0	0	0	0	512	399	0	374	0	0	
4	0	0	0	0	513	398	0	395	0	0	
5	0	0	0	0	515	398	0	393	0	0	
6	0	0	0	0	517	399	0	369	0	0	
7	0	0	0	0	520	400	0	326	0	0	
8	0	0	0	0	523	402	0	268	0	0	
9	0	0	0	0	525	404	0	199	0	0	
10	0	0	0	0	528	407	0	128	0	0	
11	0	0	0	0	530	409	0	59	0	0	
12	0	0	0	0	531	411	0	0	0	0	
13	0	0	0	0	532	413	0	0	0	0	
14	0	0	0	0	531	414	0	0	0	0	
15	0	0	0	0	531	415	0	0	0	0	
0	0	0	0	0	529	414	0	0	0	0	
1	0	0	0	0	527	413	0	11	0	0	
2	0	0	0	0	525	412	0	50	0	0	
3	0	0	0	0	523	409	0	105	0	0	
4	0	0	0	0	520	408	0	169	0	0	
5	0	0	0	0	519	406	0	233	0	0	
6	0	0	0	0	518	404	0	291	0	0	
7	0	0	0	0	519	403	0	334	0	0	
8	0	0	0	0	519	401	0	357	0	0	
9	0	0	0	0	521	402	0	358	0	0	
10	0	0	0	0	523	403	0	339	0	0	
11	0	0	0	0	525	404	0	301	0	0	
12	0	0	0	0	528	406	0	249	0	0	
13	0	0	0	0	531	408	0	188	0	0	
14	0	0	0	0	533	411	0	122	0	0	
15	0	0	0	0	535	413	0	57	0	0	
0	0	0	0	0	535	414	0	0	0	0	
1	0	0	0	0	534	414	0	0	0	0	
2	0	0	0	0	531	412	0	0	0	0	
3	0	0	0	0	528	411	0	0	0	0	
4	0	0	0	0	523	408	0	0	0	0	
5	0	0	0	0	517	404	0	14	0	0	
6	0	0	0	0	511	399	0	54	0	0	
7	0	0	0	0	505	394	0	109	0	0	
8	0	0	0	0	500	390	0	172	0	0	
9	0	0	0	0	495	386	0	237	0	0	
10	0	0	0	0	491	382	0	293	0	0	
11	0	0	0	0	488	379	0	335	0	0	
12	0	0	0	0	487	376	0	356	0	0	
13	0	0	0	0	487	376	0	355	0	0	
14	0	0	0	0	490	376	0	333	0	0	
15	0	0	0	0	494	377	0	293	0	0	
0	0	0	0	0	499	380	0	239	0	0	
1	0	0	0	0	505	384	0	176	0	0	
2	0	0	0	0	511	389	0	109	0	0	
3	0	0	0	0	518	393	0	44	0	0	
4	0	0	0	0	524	398	0	0	0	0	
5	0	0	0	0	529	402	0	0	0	0	
6	0	0	0	0	533	406	0	0	0	0	
7	0	0	0	0	536	408	0	0	0	0	
8	0	0	0	0	537	409	0	0	0	0	
9	0	0	0	0	537	409	0	7	0	0	
10	0	0	0	0	536	408	0	43	0	0	
11	0	0	0	0	533	405	0	94	0	0	
12	0	0	0	0	530	403	0	154	0	0	
13	0	0	0	0	527	400	0	217	0	0	
14	0	0	0	0	524	397	0	274	0	0	
15	0	0	0	0	521	395	0	318	0	0	
0	0	0	0	0	519	393	0	343	0	0	
1	0	0	0	0	517	391	0	348	0	0	
2	0	0	0	0	516	390	0	332	0	0	
3	0	0	0	0	515	390	0	297	0	0	
4	0	0	0	0	515	390	0	247	0	0	
5	0	0	0	0	515	390	0	186	0	0	
6	0	0	0	0	516	391	0	121	0	0	
7	0	0	0	0	518	393	0	55	0	0	
8	0	0	0	0	518	394	0	0	0	0	
9	0	0	0	0	519	396	0	0	0	0	
10	0	0	0	0	519	395	0	0	0	0	
11	0	0	0	0	519	396	0	0	0	0	
12	0	0	0	0	519	396	0	0	0	0	
13	0	0	0	0	519	396	0	5	0	0	
14	0	0	0	0	519	396	0	39	0	0	
15	0	0	0	0	519	396	0	90	0	0	
0	0	0	0	0	520	395	0	150	0	0	
1	0	0	0	0	519	394	0	212	0	0	
2	0	0	0	0	519	393	0	270	0	0	
3	0	0	0	0	519	393	0	313	0	0	
4	0	0	0	0	519	392	0	339	0	0	
5	0	0	0	0	520	393	0	344	0	0	
6	0	0	0	0	521	393	0	328	0	0	
7	0	0	0	0	524	395	0	293	0	0	
8	0	0	0	0	526	397	0	243	0	0	
9	0	0	0	0	528	399	0	183	0	0	
10	0	0	0	0	530	401	0	118	0	0	
11	0	0	0	0	532	403	0	54	0	0	
12	0	0	0	0	533	404	0	0	0	0	
13	0	0	0	0	534	405	0	0	0	0	
14	0	0	0	0	533	405	0	0	0	0	
15	0	0	0	0	532	405	0	0	0	0	
0	0	0	0	0	530	403	0	7	0	0	
1	0	0	0	0	527	401	0	46	0	0	
2	0	0	0	0	524	397	0	103	0	0	
3	0	0	0	0	518	392	0	173	0	0	
4	0	0	0	0	513	388	0	247	0	0	
5	0	0	0	0	508	384	0	319	0	0	
6	0	0	0	0	503	379	0	380	0	0	
7	0	0	0	0	499	376	0	422	0	0	
8	0	0	0	0	495	373	0	440	0	0	
9	0	0	0	0	494	371	0	432	0	0	
10	0	0	0	0	493	371	0	399	0	0	
11	0	0	0	0	493	371	0	343	0	0	
12	0	0	0	0	494	371	0	272	0	0	
13	0	0	0	0	496	373	0	191	0	0	
14	0	0	0	0	498	374	0	106	0	0	
15	0	0	0	0	500	376	0	23	0	0	
0	0	0	0	0	504	378	0	0	0	0	
1	0	0	0	0	507	381	0	0	0	0	
2	0	0	0	0	510	383	0	0	0	0	
3	0	0	0	0	513	386	0	0	0	0	
4	0	0	0	0	517	388	0	0	0	0	
5	0	0	0	0	520	391	0	0	0	0	
6	0	0	0	0	524	393	0	9	0	0	
7	0	0	0	0	526	395	0	47	0	0	
8	0	0	0	0	528	396	0	96	0	0	
9	0	0	0	0	529	396	0	152	0	0	
10	0	0	0	0	529	396	0	203	0	0	
11	0	0	0	0	528	394	0	244	0	0	
12	0	0	0	0	526	391	0	270	0	0	
13	0	0	0	0	523	389	0	275	0	0	
14	0	0	0	0	519	385	0	263	0	0	
15	0	0	0	0	515	381	0	235	0	0	
0	0	0	0	0	511	378	0	192	0	0	
1	0	0	0	0	508	374	0	141	0	0	
2	0	0	0	0	504	372	0	83	0	0	
3	0	0	0	0	502	370	0	26	0	0	
4	0	0	0	0	500	370	0	0	0	0	
5	0	0	0	0	499	370	0	0	0	0	
6	0	0	0	0	499	372	0	0	0	0	
7	0	0	0	0	501	375	0	0	0	0	
8	0	0	0	0	504	378	0	0	0	0	
9	0	0	0	0	506	382	0	0	0	0	
10	0	0	0	0	509	384	0	18	0	0	
11	0	0	0	0	511	387	0	57	0	0	
12	0	0	0	0	513	388	0	108	0	0	
13	0	0	0	0	513	388	0	163	0	0	
14	0	0	0	0	513	387	0	214	0	0	
15	0	0	0	0	511	384	0	253	0	0	
0	0	0	0	0	508	380	0	276	0	0	
1	0	0	0	0	505	375	0	280	0	0	
2	0	0	0	0	500	370	0	264	0	0	
3	0	0	0	0	496	365	0	231	0	0	
4	0	0	0	0	493	360	0	184	0	0	
5	0	0	0	0	491	359	0	127	0	0	
6	0	0	0	0	491	358	0	66	0	0	
7	0	0	0	0	491	359	0	6	0	0	
8	0	0	0	0	493	361	0	0	0	0	
9	0	0	0	0	495	364	0	0	0	0	
10	0	0	0	0	498	368	0	0	0	0	
11	0	0	0	0	502	371	0	0	0	0	
12	0	0	0	0	505	375	0	0	0	0	
13	0	0	0	0	510	379	0	0	0	0	
14	0	0	0	0	512	383	0	14	0	0	
15	0	0	0	0	515	385	0	52	0	0	
0	0	0	0	0	517	387	0	102	0	0	
1	0	0	0	0	518	388	0	158	0	0	
2	0	0	0	0	518	388	0	210	0	0	
3	0	0	0	0	517	387	0	252	0	0	
4	0	0	0	0	515	385	0	278	0	0	
5	0	0	0	0	511	382	0	284	0	0	
6	0	0	0	0	506	377	0	270	0	0	
7	0	0	0	0	499	371	0	238	0	0	
8	0	0	0	0	492	365	0	191	0	0	
9	0	0	0	0	483	358	0	135	0	0	
10	0	0	0	0	477	352	0	73	0	0	
11	0	0	0	0	471	348	0	12	0	0	
12	0	0	0	0	467	345	0	0	0	0	
13	0	0	0	0	466	344	0	0	0	0	
14	0	0	0	0	467	345	0	0	0	0	
15	0	0	0	0	472	347	0	0	0	0	
0	0	0	0	0	477	351	0	0	0	0	
1	0	0	0	0	485	356	0	0	0	0	
2	0	0	0	0	492	360	0	28	0	0	
3	0	0	0	0	499	366	0	74	0	0	
4	0	0	0	0	506	370	0	131	0	0	
5	0	0	0	0	511	372	0	191	0	0	
6	0	0	0	0	514	375	0	246	0	0	
7	0	0	0	0	516	376	0	289	0	0	
8	0	0	0	0	515	376	0	315	0	0	
9	0	0	0	0	514	375	0	319	0	0	
10	0	0	0	0	511	373	0	304	0	0	
11	0	0	0	0	507	371	0	270	0	0	
12	0	0	0	0	503	369	0	221	0	0	
13	0	0	0	0	499	368	0	161	0	0	
14	0	0	0	0	496	367	0	96	0	0	
15	0	0	0	0	494	367	0	33	0	0	
0	0	0	0	0	494	369	0	0	0	0	
1	0	0	0	0	494	371	0	0	0	0	
2	0	0	0	0	496	373	0	0	0	0	
3	0	0	0	0	499	376	0	0	0	0	
4	0	0	0	0	502	380	0	0	0	0	
5	0	0	0	0	505	382	0	7	0	0	
6	0	0	0	0	508	384	0	43	0	0	
7	0	0	0	0	510	385	0	96	0	0	
8	0	0	0	0	511	385	0	159	0	0	
9	0	0	0	0	512	385	0	224	0	0	
10	0	0	0	0	511	384	0	282	0	0	
11	0	0	0	0	511	382	0	327	0	0	
12	0	0	0	0	510	380	0	352	0	0	
13	0	0	0	0	509	379	0	355	0	0	
14	0	0	0	0	508	378	0	335	0	0	
15	0	0	0	0	508	378	0	296	0	0	
0	0	0	0	0	509	378	0	243	0	0	
1	0	0	0	0	510	379	0	179	0	0	
2	0	0	0	0	511	380	0	109	0	0	
3	0	0	0	0	513	383	0	41	0	0	
4	0	0	0	0	515	385	0	0	0	0	
5	0	0	0	0	517	388	0	0	0	0	
6	0	0	0	0	521	391	0	0	0	0	
7	0	0	0	0	525	395	0	0	0	0	
8	0	0	0	0	529	399	0	0	0	0	
9	0	0	0	0	533	403	0	8	0	0	
10	0	0	0	0	538	408	0	47	0	0	
11	0	0	0	0	543	412	0	104	0	0	
12	0	0	0	0	547	417	0	171	0	0	
13	0	0	0	0	551	421	0	242	0	0	
14	0	0	0	0	555	425	0	307	0	0	
15	0	0	0	0	558	428	0	360	0	0	
0	0	0	0	0	558	430	0	393	0	0	
1	0	0	0	0	558	431	0	403	0	0	
2	0	0	0	0	555	429	0	389	0	0	
3	0	0	0	0	549	425	0	352	0	0	
4	0	0	0	0	541	419	0	296	0	0	
5	0	0	0	0	531	411	0	227	0	0	
6	0	0	0	0	519	401	0	152	0	0	
7	0	0	0	0	506	391	0	74	0	0	
8	0	0	0	0	493	380	0	5	0	0	
9	0	0	0	0	482	369	0	0	0	0	
10	0	0	0	0	471	359	0	0	0	0	
11	0	0	0	0	464	352	0	0	0	0	
12	0	0	0	0	459	345	0	0	0	0	
13	0	0	0	0	457	342	0	6	0	0	
14	0	0	0	0	459	340	0	42	0	0	
15	0	0	0	0	463	341	0	95	0	0	
0	0	0	0	0	470	343	0	158	0	0	
1	0	0	0	0	477	347	0	222	0	0	
2	0	0	0	0	487	352	0	281	0	0	
3	0	0	0	0	496	358	0	327	0	0	
4	0	0	0	0	504	364	0	353	0	0	
5	0	0	0	0	511	370	0	359	0	0	
6	0	0	0	0	517	375	0	342	0	0	
7	0	0	0	0	521	379	0	304	0	0	
8	0	0	0	0	522	382	0	251	0	0	
9	0	0	0	0	521	382	0	187	0	0	
10	0	0	0	0	519	383	0	116	0	0	
11	0	0	0	0	515	382	0	47	0	0	
12	0	0	0	0	510	380	0	0	0	0	
13	0	0	0	0	505	379	0	0	0	0	
14	0	0	0	0	500	376	0	0	0	0	
15	0	0	0	0	496	375	0	0	0	0	
0	0	0	0	0	493	372	0	0	0	0	
1	0	0	0	0	491	370	0	11	0	0	
2	0	0	0	0	488	368	0	54	0	0	
3	0	0	0	0	487	366	0	111	0	0	
4	0	0	0	0	487	365	0	178	0	0	
5	0	0	0	0	487	363	0	247	0	0	
6	0	0	0	0	487	362	0	308	0	0	
7	0	0	0	0	487	361	0	355	0	0	
8	0	0	0	0	489	360	0	380	0	0	
9	0	0	0	0	491	360	0	381	0	0	
10	0	0	0	0	492	360	0	360	0	0	
11	0	0	0	0	494	361	0	318	0	0	
12	0	0	0	0	496	364	0	260	0	0	
13	0	0	0	0	498	366	0	193	0	0	
14	0	0	0	0	501	370	0	120	0	0	
15	0	0	0	0	504	374	0	49	0	0	
0	0	0	0	0	507	378	0	0	0	0	
1	0	0	0	0	511	382	0	0	0	0	
2	0	0	0	0	513	385	0	0	0	0	
3	0	0	0	0	516	389	0	0	0	0	
4	0	0	0	0	518	392	0	0	0	0	
5	0	0	0	0	520	394	0	14	0	0	
6	0	0	0	0	519	395	0	58	0	0	
7	0	0	0	0	519	395	0	118	0	0	
8	0	0	0	0	518	395	0	187	0	0	
9	0	0	0	0	516	393	0	257	0	0	
10	0	0	0	0	514	391	0	321	0	0	
11	0	0	0	0	512	389	0	370	0	0	
12	0	0	0	0	510	386	0	399	0	0	
13	0	0	0	0	509	385	0	406	0	0	
14	0	0	0	0	508	384	0	389	0	0	
15	0	0	0	0	509	384	0	352	0	0	
0	0	0	0	0	511	384	0	298	0	0	
1	0	0	0	0	512	385	0	233	0	0	
2	0	0	0	0	515	387	0	163	0	0	
3	0	0	0	0	518	390	0	92	0	0	
4	0	0	0	0	521	392	0	28	0	0	
5	0	0	0	0	523	394	0	0	0	0	
6	0	0	0	0	524	396	0	0	0	0	
7	0	0	0	0	524	397	0	0	0	0	
8	0	0	0	0	524	397	0	0	0	0	
9	0	0	0	0	522	396	0	15	0	0	
10	0	0	0	0	519	393	0	56	0	0	
11	0	0	0	0	515	391	0	114	0	0	
12	0	0	0	0	511	387	0	180	0	0	
13	0	0	0	0	506	383	0	248	0	0	
14	0	0	0	0	500	379	0	308	0	0	
15	0	0	0	0	495	375	0	354	0	0	
0	0	0	0	0	491	371	0	380	0	0	
1	0	0	0	0	487	369	0	383	0	0	
2	0	0	0	0	486	367	0	364	0	0	
3	0	0	0	0	484	366	0	326	0	0	
4	0	0	0	0	484	366	0	273	0	0	
5	0	0	0	0	485	367	0	210	0	0	
6	0	0	0	0	487	368	0	142	0	0	
7	0	0	0	0	489	369	0	74	0	0	
8	0	0	0	0	492	371	0	13	0	0	
9	0	0	0	0	495	373	0	0	0	0	
10	0	0	0	0	497	375	0	0	0	0	
11	0	0	0	0	500	377	0	0	0	0	
12	0	0	0	0	503	378	0	0	0	0	
13	0	0	0	0	504	379	0	2	0	0	
14	0	0	0	0	506	380	0	34	0	0	
15	0	0	0	0	507	381	0	82	0	0	
0	0	0	0	0	508	382	0	142	0	0	
1	0	0	0	0	509	383	0	207	0	0	
2	0	0	0	0	510	384	0	267	0	0	
3	0	0	0	0	510	385	0	316	0	0	
4	0	0	0	0	510	387	0	349	0	0	
5	0	0	0	0	511	388	0	363	0	0	
6	0	0	0	0	512	390	0	356	0	0	
7	0	0	0	0	514	392	0	330	0	0	
8	0	0	0	0	515	394	0	289	0	0	
9	0	0	0	0	518	398	0	237	0	0	
10	0	0	0	0	521	402	0	179	0	0	
11	0	0	0	0	524	406	0	120	0	0	
12	0	0	0	0	527	409	0	67	0	0	
13	0	0	0	0	529	412	0	24	0	0	
14	0	0	0	0	529	415	0	0	0	0	
15	0	0	0	0	530	416	0	0	0	0	
0	0	0	0	0	529	415	0	12	0	0	
1	0	0	0	0	527	413	0	49	0	0	
2	0	0	0	0	522	409	0	105	0	0	
3	0	0	0	0	516	404	0	174	0	0	
4	0	0	0	0	510	397	0	249	0	0	
5	0	0	0	0	502	390	0	321	0	0	
6	0	0	0	0	494	382	0	383	0	0	
7	0	0	0	0	486	374	0	427	0	0	
8	0	0	0	0	479	368	0	447	0	0	
9	0	0	0	0	474	362	0	444	0	0	
10	0	0	0	0	470	359	0	417	0	0	
11	0	0	0	0	469	357	0	372	0	0	
12	0	0	0	0	470	358	0	312	0	0	
13	0	0	0	0	472	361	0	245	0	0	
14	0	0	0	0	479	367	0	175	0	0	
15	0	0	0	0	486	374	0	108	0	0	
0	0	0	0	0	494	382	0	48	0	0	
1	0	0	0	0	502	390	0	3	0	0	
2	0	0	0	0	509	398	0	0	0	0	
3	0	0	0	0	516	405	0	0	0	0	
4	0	0	0	0	521	410	0	5	0	0	
5	0	0	0	0	524	413	0	40	0	0	
6	0	0	0	0	524	413	0	95	0	0	
7	0	0	0	0	521	411	0	165	0	0	
8	0	0	0	0	518	406	0	241	0	0	
9	0	0	0	0	513	400	0	318	0	0	
10	0	0	0	0	508	394	0	386	0	0	
11	0	0	0	0	503	388	0	438	0	0	
12	0	0	0	0	498	382	0	466	0	0	
13	0	0	0	0	495	378	0	470	0	0	
14	0	0	0	0	492	375	0	450	0	0	
15	0	0	0	0	491	374	0	409	0	0	
0	0	0	0	0	491	374	0	351	0	0	
1	0	0	0	0	492	375	0	283	0	0	
2	0	0	0	0	494	377	0	210	0	0	
3	0	0	0	0	496	380	0	137	0	0	
4	0	0	0	0	499	384	0	71	0	0	
5	0	0	0	0	501	387	0	17	0	0	
6	0	0	0	0	503	391	0	0	0	0	
7	0	0	0	0	504	393	0	0	0	0	
8	0	0	0	0	506	395	0	0	0	0	
9	0	0	0	0	507	397	0	27	0	0	
10	0	0	0	0	507	398	0	77	0	0	
11	0	0	0	0	507	397	0	145	0	0	
12	0	0	0	0	507	397	0	221	0	0	
13	0	0	0	0	506	396	0	300	0	0	
14	0	0	0	0	506	395	0	374	0	0	
15	0	0	0	0	505	393	0	432	0	0	
0	0	0	0	0	504	391	0	468	0	0	
1	0	0	0	0	503	391	0	480	0	0	
2	0	0	0	0	502	390	0	468	0	0	
3	0	0	0	0	500	389	0	434	0	0	
4	0	0	0	0	500	389	0	381	0	0	
5	0	0	0	0	500	390	0	316	0	0	
6	0	0	0	0	500	391	0	245	0	0	
7	0	0	0	0	502	393	0	174	0	0	
8	0	0	0	0	503	395	0	108	0	0	
9	0	0	0	0	504	397	0	56	0	0	
10	0	0	0	0	506	399	0	23	0	0	
11	0	0	0	0	508	401	0	10	0	0	
12	0	0	0	0	510	402	0	24	0	0	
13	0	0	0	0	511	403	0	61	0	0	
14	0	0	0	0	512	403	0	119	0	0	
15	0	0	0	0	512	402	0	193	0	0	
0	0	0	0	0	512	401	0	273	0	0	
1	0	0	0	0	512	400	0	353	0	0	
2	0	0	0	0	512	398	0	423	0	0	
3	0	0	0	0	511	396	0	476	0	0	
4	0	0	0	0	508	393	0	504	0	0	
5	0	0	0	0	505	390	0	506	0	0	
6	0	0	0	0	500	385	0	481	0	0	
7	0	0	0	0	495	380	0	431	0	0	
8	0	0	0	0	486	373	0	362	0	0	
9	0	0	0	0	476	364	0	279	0	0	
10	0	0	0	0	463	354	0	189	0	0	
11	0	0	0	0	449	342	0	98	0	0	
12	0	0	0	0	432	328	0	13	0	0	
13	0	0	0	0	414	312	0	0	0	0	
14	0	0	0	0	396	295	0	0	0	0	
15	0	0	0	0	378	280	0	0	0	0	
0	0	0	0	0	360	263	0	0	0	0	
1	0	0	0	0	345	248	0	0	0	0	
2	0	0	0	0	331	234	0	0	0	0	
3	0	0	0	0	318	220	0	17	0	0	
4	0	0	0	0	306	207	0	49	0	0	
5	0	0	0	0	296	196	0	88	0	0	
6	0	0	0	0	288	187	0	124	0	0	
7	0	0	0	0	282	179	0	152	0	0	
8	0	0	0	0	279	174	0	167	0	0	
9	0	0	0	0	279	172	0	169	0	0	
10	0	0	0	0	281	173	0	158	0	0	
11	0	0	0	0	287	177	0	134	0	0	
12	0	0	0	0	296	185	0	101	0	0	
13	0	0	0	0	308	195	0	63	0	0	
14	0	0	0	0	322	208	0	23	0	0	
15	0	0	0	0	339	224	0	0	0	0	
0	0	0	0	0	359	243	0	0	0	0	
1	0	0	0	0	381	263	0	0	0	0	
2	0	0	0	0	404	286	0	0	0	0	
3	0	0	0	0	428	309	0	0	0	0	
4	0	0	0	0	452	332	0	0	0	0	
5	0	0	0	0	476	355	0	21	0	0	
6	0	0	0	0	497	377	0	66	0	0	
7	0	0	0	0	516	396	0	129	0	0	
8	0	0	0	0	532	413	0	203	0	0	
9	0	0	0	0	544	426	0	284	0	0	
10	0	0	0	0	552	435	0	360	0	0	
11	0	0	0	0	557	441	0	426	0	0	
12	0	0	0	0	558	444	0	472	0	0	
13	0	0	0	0	555	444	0	495	0	0	
14	0	0	0	0	550	441	0	495	0	0	
15	0	0	0	0	543	436	0	470	0	0	
0	0	0	0	0	535	430	0	426	0	0	
1	0	0	0	0	526	423	0	367	0	0	
2	0	0	0	0	518	417	0	300	0	0	
3	0	0	0	0	511	411	0	231	0	0	
4	0	0	0	0	505	406	0	166	0	0	
5	0	0	0	0	501	403	0	112	0	0	
6	0	0	0	0	498	400	0	76	0	0	
7	0	0	0	0	496	399	0	60	0	0	
8	0	0	0	0	496	397	0	67	0	0	
9	0	0	0	0	495	396	0	97	0	0	
10	0	0	0	0	495	395	0	147	0	0	
11	0	0	0	0	494	393	0	211	0	0	
12	0	0	0	0	494	393	0	280	0	0	
13	0	0	0	0	495	394	0	349	0	0	
14	0	0	0	0	497	396	0	411	0	0	
15	0	0	0	0	501	399	0	456	0	0	
0	0	0	0	0	505	404	0	480	0	0	
1	0	0	0	0	511	409	0	481	0	0	
2	0	0	0	0	517	415	0	461	0	0	
3	0	0	0	0	524	421	0	422	0	0	
4	0	0	0	0	530	427	0	369	0	0	
5	0	0	0	0	536	433	0	307	0	0	
6	0	0	0	0	542	438	0	243	0	0	
7	0	0	0	0	546	443	0	180	0	0	
8	0	0	0	0	550	447	0	124	0	0	
9	0	0	0	0	553	449	0	79	0	0	
10	0	0	0	0	554	450	0	51	0	0	
11	0	0	0	0	554	451	0	43	0	0	
12	0	0	0	0	551	449	0	57	0	0	
13	0	0	0	0	548	447	0	94	0	0	
14	0	0	0	0	542	442	0	151	0	0	
15	0	0	0	0	535	436	0	222	0	0	
0	0	0	0	0	528	431	0	300	0	0	
1	0	0	0	0	522	425	0	378	0	0	
2	0	0	0	0	516	420	0	447	0	0	
3	0	0	0	0	512	416	0	500	0	0	
4	0	0	0	0	508	414	0	529	0	0	
5	0	0	0	0	508	412	0	535	0	0	
6	0	0	0	0	508	412	0	515	0	0	
7	0	0	0	0	510	414	0	473	0	0	
8	0	0	0	0	513	415	0	415	0	0	
9	0	0	0	0	516	419	0	345	0	0	
10	0	0	0	0	521	422	0	271	0	0	
11	0	0	0	0	524	424	0	196	0	0	
12	0	0	0	0	526	426	0	127	0	0	
13	0	0	0	0	525	427	0	70	0	0	
14	0	0	0	0	523	426	0	30	0	0	
15	0	0	0	0	519	424	0	11	0	0	
0	0	0	0	0	513	422	0	16	0	0	
1	0	0	0	0	507	417	0	45	0	0	
2	0	0	0	0	499	413	0	97	0	0	
3	0	0	0	0	494	408	0	165	0	0	
4	0	0	0	0	488	405	0	242	0	0	
5	0	0	0	0	485	402	0	320	0	0	
6	0	0	0	0	483	401	0	392	0	0	
7	0	0	0	0	486	402	0	449	0	0	
8	0	0	0	0	491	405	0	485	0	0	
9	0	0	0	0	501	412	0	499	0	0	
10	0	0	0	0	514	421	0	489	0	0	
11	0	0	0	0	530	434	0	461	0	0	
12	0	0	0	0	549	449	0	417	0	0	
13	0	0	0	0	569	467	0	363	0	0	
14	0	0	0	0	591	484	0	304	0	0	
