# OpenSignals Text File Format. Version 1
# {"": {"position": 0, "device": "", "device name": "", "device connection": "", "sampling rate": 1000, "resolution": [4, 1, 1, 1, 1, 10, 10, 10, 10, 6, 6], "firmware version": 1281, "comments": "", "keywords": "", "mode": 0, "sync interval": 2, "date": "", "time": "", "channels": [1, 2, 3, 4, 5, 6], "sensor": ["RAW", "RAW", "RAW", "RAW", "RAW", "RAW"], "label": ["A1", "A2", "A3", "A4", "A5", "A6"], "column": ["nSeq", "I1", "I2", "O1", "O2", "A1", "A2", "A3", "A4", "A5", "A6"], "special": [{}, {}, {}, {}, {}, {}], "digital IO": [0, 0, 1, 1], "convertedValues": 0}}
# EndOfHeader
0	0	0	0	0	696	509	0	1020	0	0	
1	0	0	0	0	722	511	0	1021	0	0	
2	0	0	0	0	735	515	0	1021	0	0	
3	0	0	0	0	732	520	0	964	0	0	
4	0	0	0	0	715	526	0	848	0	0	
5	0	0	0	0	684	531	0	692	0	0	
6	0	0	0	0	642	536	0	516	0	0	
7	0	0	0	0	594	540	0	335	0	0	
8	0	0	0	0	543	543	0	170	0	0	
9	0	0	0	0	496	543	0	36	0	0	
10	0	0	0	0	455	541	0	0	0	0	
11	0	0	0	0	426	538	0	0	0	0	
12	0	0	0	0	411	532	0	0	0	0	
13	0	0	0	0	412	526	0	65	0	0	
14	0	0	0	0	428	517	0	190	0	0	
15	0	0	0	0	459	510	0	355	0	0	
0	0	0	0	0	500	502	0	546	0	0	
1	0	0	0	0	549	496	0	742	0	0	
2	0	0	0	0	600	492	0	921	0	0	
3	0	0	0	0	649	491	0	1021	0	0	
4	0	0	0	0	691	492	0	1020	0	0	
5	0	0	0	0	724	496	0	1021	0	0	
6	0	0	0	0	744	503	0	1021	0	0	
7	0	0	0	0	750	512	0	971	0	0	
8	0	0	0	0	742	521	0	856	0	0	
9	0	0	0	0	720	532	0	700	0	0	
10	0	0	0	0	687	542	0	519	0	0	
11	0	0	0	0	647	551	0	334	0	0	
12	0	0	0	0	604	557	0	163	0	0	
13	0	0	0	0	562	561	0	22	0	0	
14	0	0	0	0	524	562	0	0	0	0	
15	0	0	0	0	495	560	0	0	0	0	
0	0	0	0	0	477	555	0	0	0	0	
1	0	0	0	0	471	548	0	47	0	0	
2	0	0	0	0	479	539	0	163	0	0	
3	0	0	0	0	499	529	0	321	0	0	
4	0	0	0	0	529	520	0	508	0	0	
5	0	0	0	0	564	512	0	702	0	0	
6	0	0	0	0	603	505	0	882	0	0	
7	0	0	0	0	639	500	0	1020	0	0	
8	0	0	0	0	670	497	0	1020	0	0	
9	0	0	0	0	690	496	0	1021	0	0	
10	0	0	0	0	700	496	0	1021	0	0	
11	0	0	0	0	696	498	0	979	0	0	
12	0	0	0	0	679	500	0	868	0	0	
13	0	0	0	0	652	503	0	713	0	0	
14	0	0	0	0	615	507	0	533	0	0	
15	0	0	0	0	574	511	0	345	0	0	
0	0	0	0	0	534	515	0	169	0	0	
1	0	0	0	0	497	519	0	23	0	0	
2	0	0	0	0	469	523	0	0	0	0	
3	0	0	0	0	452	526	0	0	0	0	
4	0	0	0	0	449	528	0	0	0	0	
5	0	0	0	0	461	530	0	37	0	0	
6	0	0	0	0	487	530	0	148	0	0	
7	0	0	0	0	525	531	0	305	0	0	
8	0	0	0	0	572	532	0	492	0	0	
9	0	0	0	0	623	533	0	689	0	0	
10	0	0	0	0	675	535	0	875	0	0	
11	0	0	0	0	721	538	0	1020	0	0	
12	0	0	0	0	759	540	0	1020	0	0	
13	0	0	0	0	783	543	0	1021	0	0	
14	0	0	0	0	791	546	0	1021	0	0	
15	0	0	0	0	781	549	0	1002	0	0	
0	0	0	0	0	753	551	0	908	0	0	
1	0	0	0	0	711	553	0	768	0	0	
2	0	0	0	0	656	554	0	602	0	0	
3	0	0	0	0	595	554	0	424	0	0	
4	0	0	0	0	532	552	0	253	0	0	
5	0	0	0	0	475	550	0	109	0	0	
6	0	0	0	0	426	547	0	4	0	0	
7	0	0	0	0	392	543	0	0	0	0	
8	0	0	0	0	376	539	0	0	0	0	
9	0	0	0	0	379	535	0	48	0	0	
10	0	0	0	0	401	531	0	164	0	0	
11	0	0	0	0	441	527	0	324	0	0	
12	0	0	0	0	494	525	0	516	0	0	
13	0	0	0	0	554	524	0	718	0	0	
14	0	0	0	0	616	523	0	907	0	0	
15	0	0	0	0	675	524	0	1020	0	0	
0	0	0	0	0	724	524	0	1020	0	0	
1	0	0	0	0	761	526	0	1021	0	0	
2	0	0	0	0	780	528	0	1021	0	0	
3	0	0	0	0	782	531	0	1014	0	0	
4	0	0	0	0	766	535	0	928	0	0	
5	0	0	0	0	732	537	0	799	0	0	
6	0	0	0	0	686	541	0	640	0	0	
7	0	0	0	0	633	544	0	468	0	0	
8	0	0	0	0	576	546	0	300	0	0	
9	0	0	0	0	523	548	0	154	0	0	
10	0	0	0	0	478	547	0	44	0	0	
11	0	0	0	0	445	546	0	0	0	0	
12	0	0	0	0	428	544	0	0	0	0	
13	0	0	0	0	428	541	0	36	0	0	
14	0	0	0	0	447	536	0	137	0	0	
15	0	0	0	0	480	531	0	283	0	0	
0	0	0	0	0	525	527	0	459	0	0	
1	0	0	0	0	578	523	0	647	0	0	
2	0	0	0	0	633	520	0	826	0	0	
3	0	0	0	0	685	518	0	976	0	0	
4	0	0	0	0	730	517	0	1020	0	0	
5	0	0	0	0	763	518	0	1021	0	0	
6	0	0	0	0	781	520	0	1021	0	0	
7	0	0	0	0	783	525	0	986	0	0	
8	0	0	0	0	768	529	0	882	0	0	
9	0	0	0	0	738	534	0	736	0	0	
10	0	0	0	0	696	540	0	565	0	0	
11	0	0	0	0	646	544	0	385	0	0	
12	0	0	0	0	592	548	0	215	0	0	
13	0	0	0	0	541	550	0	72	0	0	
14	0	0	0	0	496	551	0	0	0	0	
15	0	0	0	0	463	550	0	0	0	0	
0	0	0	0	0	444	547	0	0	0	0	
1	0	0	0	0	441	543	0	39	0	0	
2	0	0	0	0	455	539	0	147	0	0	
3	0	0	0	0	482	533	0	297	0	0	
4	0	0	0	0	520	527	0	476	0	0	
5	0	0	0	0	564	522	0	664	0	0	
6	0	0	0	0	610	518	0	839	0	0	
7	0	0	0	0	654	515	0	985	0	0	
8	0	0	0	0	690	512	0	1020	0	0	
9	0	0	0	0	716	513	0	1021	0	0	
10	0	0	0	0	729	515	0	1021	0	0	
11	0	0	0	0	728	519	0	975	0	0	
12	0	0	0	0	713	524	0	864	0	0	
13	0	0	0	0	685	530	0	714	0	0	
14	0	0	0	0	647	536	0	540	0	0	
15	0	0	0	0	604	543	0	358	0	0	
0	0	0	0	0	559	548	0	189	0	0	
1	0	0	0	0	518	551	0	49	0	0	
2	0	0	0	0	484	554	0	0	0	0	
3	0	0	0	0	461	555	0	0	0	0	
4	0	0	0	0	450	552	0	0	0	0	
5	0	0	0	0	454	549	0	45	0	0	
6	0	0	0	0	471	543	0	155	0	0	
7	0	0	0	0	499	536	0	307	0	0	
8	0	0	0	0	537	529	0	487	0	0	
9	0	0	0	0	579	523	0	673	0	0	
10	0	0	0	0	622	517	0	847	0	0	
11	0	0	0	0	662	512	0	989	0	0	
12	0	0	0	0	696	509	0	1020	0	0	
13	0	0	0	0	719	508	0	1021	0	0	
14	0	0	0	0	731	510	0	1021	0	0	
15	0	0	0	0	729	514	0	968	0	0	
0	0	0	0	0	713	519	0	855	0	0	
1	0	0	0	0	686	526	0	702	0	0	
2	0	0	0	0	649	533	0	526	0	0	
3	0	0	0	0	608	540	0	345	0	0	
4	0	0	0	0	567	548	0	178	0	0	
5	0	0	0	0	531	555	0	42	0	0	
6	0	0	0	0	504	561	0	0	0	0	
7	0	0	0	0	487	565	0	0	0	0	
8	0	0	0	0	484	568	0	0	0	0	
9	0	0	0	0	495	568	0	47	0	0	
10	0	0	0	0	519	566	0	157	0	0	
11	0	0	0	0	553	561	0	306	0	0	
12	0	0	0	0	593	555	0	480	0	0	
13	0	0	0	0	634	547	0	659	0	0	
14	0	0	0	0	673	538	0	822	0	0	
15	0	0	0	0	706	530	0	953	0	0	
0	0	0	0	0	729	522	0	1020	0	0	
1	0	0	0	0	739	516	0	1021	0	0	
2	0	0	0	0	736	511	0	1009	0	0	
3	0	0	0	0	719	509	0	925	0	0	
4	0	0	0	0	688	508	0	792	0	0	
5	0	0	0	0	647	511	0	622	0	0	
6	0	0	0	0	600	514	0	433	0	0	
7	0	0	0	0	549	518	0	245	0	0	
8	0	0	0	0	501	523	0	77	0	0	
9	0	0	0	0	459	526	0	0	0	0	
10	0	0	0	0	427	530	0	0	0	0	
11	0	0	0	0	408	532	0	0	0	0	
12	0	0	0	0	406	534	0	0	0	0	
13	0	0	0	0	419	534	0	52	0	0	
14	0	0	0	0	447	533	0	170	0	0	
15	0	0	0	0	488	531	0	329	0	0	
0	0	0	0	0	539	529	0	515	0	0	
1	0	0	0	0	594	527	0	705	0	0	
2	0	0	0	0	648	525	0	880	0	0	
3	0	0	0	0	698	523	0	1020	0	0	
4	0	0	0	0	739	521	0	1020	0	0	
5	0	0	0	0	767	521	0	1021	0	0	
6	0	0	0	0	780	521	0	1021	0	0	
7	0	0	0	0	776	522	0	963	0	0	
8	0	0	0	0	755	524	0	842	0	0	
9	0	0	0	0	719	525	0	680	0	0	
10	0	0	0	0	673	527	0	496	0	0	
11	0	0	0	0	619	528	0	304	0	0	
12	0	0	0	0	565	530	0	129	0	0	
13	0	0	0	0	515	531	0	0	0	0	
14	0	0	0	0	475	532	0	0	0	0	
15	0	0	0	0	447	532	0	0	0	0	
0	0	0	0	0	436	531	0	0	0	0	
1	0	0	0	0	442	529	0	31	0	0	
2	0	0	0	0	465	526	0	137	0	0	
3	0	0	0	0	502	524	0	287	0	0	
4	0	0	0	0	550	520	0	465	0	0	
5	0	0	0	0	604	518	0	653	0	0	
6	0	0	0	0	658	517	0	830	0	0	
7	0	0	0	0	708	516	0	978	0	0	
8	0	0	0	0	751	517	0	1020	0	0	
9	0	0	0	0	780	519	0	1021	0	0	
10	0	0	0	0	793	522	0	1021	0	0	
11	0	0	0	0	790	526	0	975	0	0	
12	0	0	0	0	770	529	0	863	0	0	
13	0	0	0	0	735	533	0	711	0	0	
14	0	0	0	0	687	536	0	536	0	0	
15	0	0	0	0	632	539	0	353	0	0	
0	0	0	0	0	575	540	0	185	0	0	
1	0	0	0	0	522	541	0	46	0	0	
2	0	0	0	0	477	540	0	0	0	0	
3	0	0	0	0	444	539	0	0	0	0	
4	0	0	0	0	426	536	0	0	0	0	
5	0	0	0	0	425	533	0	54	0	0	
6	0	0	0	0	442	529	0	173	0	0	
7	0	0	0	0	472	524	0	335	0	0	
8	0	0	0	0	515	519	0	526	0	0	
9	0	0	0	0	565	515	0	723	0	0	
10	0	0	0	0	616	511	0	906	0	0	
11	0	0	0	0	666	509	0	1020	0	0	
12	0	0	0	0	710	509	0	1020	0	0	
13	0	0	0	0	743	511	0	1021	0	0	
14	0	0	0	0	762	515	0	1021	0	0	
15	0	0	0	0	766	520	0	991	0	0	
0	0	0	0	0	753	526	0	887	0	0	
1	0	0	0	0	726	533	0	742	0	0	
2	0	0	0	0	686	539	0	570	0	0	
3	0	0	0	0	636	543	0	388	0	0	
4	0	0	0	0	583	546	0	218	0	0	
5	0	0	0	0	530	547	0	74	0	0	
6	0	0	0	0	484	546	0	0	0	0	
7	0	0	0	0	448	543	0	0	0	0	
8	0	0	0	0	425	539	0	0	0	0	
9	0	0	0	0	419	534	0	40	0	0	
10	0	0	0	0	429	528	0	148	0	0	
11	0	0	0	0	454	521	0	300	0	0	
12	0	0	0	0	491	515	0	481	0	0	
13	0	0	0	0	535	509	0	671	0	0	
14	0	0	0	0	583	504	0	849	0	0	
15	0	0	0	0	629	502	0	996	0	0	
0	0	0	0	0	670	501	0	1020	0	0	
1	0	0	0	0	701	502	0	1021	0	0	
2	0	0	0	0	719	505	0	1021	0	0	
3	0	0	0	0	723	511	0	977	0	0	
4	0	0	0	0	712	518	0	866	0	0	
5	0	0	0	0	687	524	0	714	0	0	
6	0	0	0	0	649	531	0	537	0	0	
7	0	0	0	0	604	537	0	351	0	0	
8	0	0	0	0	556	542	0	178	0	0	
9	0	0	0	0	508	544	0	33	0	0	
10	0	0	0	0	466	544	0	0	0	0	
11	0	0	0	0	435	543	0	0	0	0	
12	0	0	0	0	417	540	0	0	0	0	
13	0	0	0	0	414	535	0	30	0	0	
14	0	0	0	0	427	529	0	133	0	0	
15	0	0	0	0	455	523	0	282	0	0	
0	0	0	0	0	494	518	0	463	0	0	
1	0	0	0	0	540	512	0	655	0	0	
2	0	0	0	0	588	509	0	840	0	0	
3	0	0	0	0	633	506	0	997	0	0	
4	0	0	0	0	672	504	0	1020	0	0	
5	0	0	0	0	700	505	0	1021	0	0	
6	0	0	0	0	715	507	0	1021	0	0	
7	0	0	0	0	716	510	0	1001	0	0	
8	0	0	0	0	703	514	0	906	0	0	
9	0	0	0	0	676	519	0	765	0	0	
10	0	0	0	0	640	524	0	595	0	0	
11	0	0	0	0	599	530	0	414	0	0	
12	0	0	0	0	556	535	0	237	0	0	
13	0	0	0	0	516	539	0	84	0	0	
14	0	0	0	0	483	541	0	0	0	0	
15	0	0	0	0	460	542	0	0	0	0	
0	0	0	0	0	449	541	0	0	0	0	
1	0	0	0	0	453	539	0	12	0	0	
2	0	0	0	0	471	536	0	99	0	0	
3	0	0	0	0	501	533	0	231	0	0	
4	0	0	0	0	541	529	0	396	0	0	
5	0	0	0	0	588	527	0	575	0	0	
6	0	0	0	0	635	526	0	749	0	0	
7	0	0	0	0	680	525	0	898	0	0	
8	0	0	0	0	718	526	0	1006	0	0	
9	0	0	0	0	744	528	0	1021	0	0	
10	0	0	0	0	757	532	0	1021	0	0	
11	0	0	0	0	753	536	0	975	0	0	
12	0	0	0	0	735	540	0	867	0	0	
13	0	0	0	0	702	543	0	716	0	0	
14	0	0	0	0	657	547	0	541	0	0	
15	0	0	0	0	604	549	0	357	0	0	
0	0	0	0	0	550	550	0	184	0	0	
1	0	0	0	0	499	550	0	39	0	0	
2	0	0	0	0	455	548	0	0	0	0	
3	0	0	0	0	423	545	0	0	0	0	
4	0	0	0	0	405	542	0	0	0	0	
5	0	0	0	0	404	537	0	26	0	0	
6	0	0	0	0	420	531	0	126	0	0	
7	0	0	0	0	451	526	0	267	0	0	
8	0	0	0	0	492	521	0	437	0	0	
9	0	0	0	0	540	516	0	616	0	0	
10	0	0	0	0	590	512	0	787	0	0	
11	0	0	0	0	637	508	0	930	0	0	
12	0	0	0	0	676	507	0	1020	0	0	
13	0	0	0	0	705	507	0	1021	0	0	
14	0	0	0	0	720	508	0	1020	0	0	
15	0	0	0	0	720	511	0	959	0	0	
0	0	0	0	0	706	516	0	841	0	0	
1	0	0	0	0	679	523	0	683	0	0	
2	0	0	0	0	643	530	0	504	0	0	
3	0	0	0	0	600	538	0	320	0	0	
4	0	0	0	0	554	544	0	152	0	0	
5	0	0	0	0	512	549	0	16	0	0	
6	0	0	0	0	476	552	0	0	0	0	
7	0	0	0	0	449	553	0	0	0	0	
8	0	0	0	0	434	551	0	0	0	0	
9	0	0	0	0	432	547	0	54	0	0	
10	0	0	0	0	445	540	0	172	0	0	
11	0	0	0	0	469	531	0	330	0	0	
12	0	0	0	0	502	522	0	513	0	0	
13	0	0	0	0	541	513	0	704	0	0	
14	0	0	0	0	582	506	0	879	0	0	
15	0	0	0	0	620	499	0	1020	0	0	
0	0	0	0	0	653	496	0	1020	0	0	
1	0	0	0	0	676	495	0	1021	0	0	
2	0	0	0	0	688	497	0	1021	0	0	
3	0	0	0	0	688	502	0	969	0	0	
4	0	0	0	0	675	508	0	854	0	0	
5	0	0	0	0	652	516	0	699	0	0	
6	0	0	0	0	620	525	0	520	0	0	
7	0	0	0	0	584	535	0	337	0	0	
8	0	0	0	0	546	544	0	167	0	0	
9	0	0	0	0	512	551	0	29	0	0	
10	0	0	0	0	483	557	0	0	0	0	
11	0	0	0	0	463	560	0	0	0	0	
12	0	0	0	0	455	559	0	0	0	0	
13	0	0	0	0	457	556	0	53	0	0	
14	0	0	0	0	472	549	0	172	0	0	
15	0	0	0	0	497	540	0	333	0	0	
0	0	0	0	0	531	531	0	522	0	0	
1	0	0	0	0	568	521	0	718	0	0	
2	0	0	0	0	607	512	0	899	0	0	
3	0	0	0	0	642	504	0	1020	0	0	
4	0	0	0	0	671	498	0	1020	0	0	
5	0	0	0	0	690	495	0	1021	0	0	
6	0	0	0	0	698	494	0	1021	0	0	
7	0	0	0	0	692	496	0	977	0	0	
8	0	0	0	0	674	499	0	862	0	0	
9	0	0	0	0	645	505	0	706	0	0	
10	0	0	0	0	608	513	0	525	0	0	
11	0	0	0	0	568	521	0	335	0	0	
12	0	0	0	0	528	529	0	158	0	0	
13	0	0	0	0	492	537	0	9	0	0	
14	0	0	0	0	465	542	0	0	0	0	
15	0	0	0	0	449	546	0	0	0	0	
0	0	0	0	0	446	548	0	0	0	0	
1	0	0	0	0	456	546	0	18	0	0	
2	0	0	0	0	479	543	0	112	0	0	
3	0	0	0	0	513	538	0	253	0	0	
4	0	0	0	0	554	532	0	424	0	0	
5	0	0	0	0	599	525	0	608	0	0	
6	0	0	0	0	642	519	0	783	0	0	
7	0	0	0	0	682	515	0	933	0	0	
8	0	0	0	0	713	511	0	1020	0	0	
9	0	0	0	0	733	509	0	1021	0	0	
10	0	0	0	0	741	510	0	1021	0	0	
11	0	0	0	0	733	512	0	976	0	0	
12	0	0	0	0	713	518	0	865	0	0	
13	0	0	0	0	679	522	0	712	0	0	
14	0	0	0	0	638	528	0	533	0	0	
15	0	0	0	0	590	534	0	344	0	0	
0	0	0	0	0	542	539	0	167	0	0	
1	0	0	0	0	496	543	0	18	0	0	
2	0	0	0	0	459	544	0	0	0	0	
3	0	0	0	0	433	543	0	0	0	0	
4	0	0	0	0	421	541	0	0	0	0	
5	0	0	0	0	423	537	0	17	0	0	
6	0	0	0	0	440	531	0	110	0	0	
7	0	0	0	0	471	525	0	247	0	0	
8	0	0	0	0	511	519	0	414	0	0	
9	0	0	0	0	557	515	0	593	0	0	
10	0	0	0	0	604	511	0	765	0	0	
11	0	0	0	0	648	509	0	911	0	0	
12	0	0	0	0	686	509	0	1016	0	0	
13	0	0	0	0	712	511	0	1020	0	0	
14	0	0	0	0	726	515	0	1021	0	0	
15	0	0	0	0	724	519	0	968	0	0	
0	0	0	0	0	707	523	0	856	0	0	
1	0	0	0	0	675	527	0	702	0	0	
2	0	0	0	0	632	530	0	524	0	0	
3	0	0	0	0	583	531	0	337	0	0	
4	0	0	0	0	531	531	0	164	0	0	
5	0	0	0	0	482	530	0	21	0	0	
6	0	0	0	0	441	527	0	0	0	0	
7	0	0	0	0	413	523	0	0	0	0	
8	0	0	0	0	399	519	0	0	0	0	
9	0	0	0	0	402	514	0	31	0	0	
10	0	0	0	0	422	509	0	133	0	0	
11	0	0	0	0	456	504	0	279	0	0	
12	0	0	0	0	501	500	0	454	0	0	
13	0	0	0	0	552	496	0	639	0	0	
14	0	0	0	0	605	494	0	813	0	0	
15	0	0	0	0	656	494	0	959	0	0	
0	0	0	0	0	700	496	0	1021	0	0	
1	0	0	0	0	734	499	0	1021	0	0	
2	0	0	0	0	754	505	0	1021	0	0	
3	0	0	0	0	759	512	0	970	0	0	
4	0	0	0	0	750	520	0	858	0	0	
5	0	0	0	0	727	530	0	704	0	0	
6	0	0	0	0	693	539	0	526	0	0	
7	0	0	0	0	652	547	0	341	0	0	
8	0	0	0	0	607	553	0	169	0	0	
9	0	0	0	0	563	557	0	28	0	0	
10	0	0	0	0	524	558	0	0	0	0	
11	0	0	0	0	494	556	0	0	0	0	
12	0	0	0	0	475	551	0	0	0	0	
13	0	0	0	0	468	544	0	40	0	0	
14	0	0	0	0	476	536	0	151	0	0	
15	0	0	0	0	497	527	0	305	0	0	
0	0	0	0	0	527	518	0	490	0	0	
1	0	0	0	0	563	509	0	685	0	0	
2	0	0	0	0	602	502	0	870	0	0	
3	0	0	0	0	638	496	0	1020	0	0	
4	0	0	0	0	670	492	0	1021	0	0	
5	0	0	0	0	693	492	0	1021	0	0	
6	0	0	0	0	704	492	0	1021	0	0	
7	0	0	0	0	703	495	0	1004	0	0	
8	0	0	0	0	688	499	0	912	0	0	
9	0	0	0	0	662	505	0	776	0	0	
10	0	0	0	0	627	511	0	612	0	0	
11	0	0	0	0	587	517	0	437	0	0	
12	0	0	0	0	544	523	0	268	0	0	
13	0	0	0	0	505	528	0	123	0	0	
14	0	0	0	0	473	531	0	18	0	0	
15	0	0	0	0	451	534	0	0	0	0	
0	0	0	0	0	441	535	0	0	0	0	
1	0	0	0	0	445	534	0	47	0	0	
2	0	0	0	0	461	531	0	159	0	0	
3	0	0	0	0	490	526	0	316	0	0	
4	0	0	0	0	527	520	0	504	0	0	
5	0	0	0	0	568	514	0	701	0	0	
6	0	0	0	0	611	508	0	888	0	0	
7	0	0	0	0	650	503	0	1020	0	0	
8	0	0	0	0	681	499	0	1021	0	0	
9	0	0	0	0	702	497	0	1021	0	0	
10	0	0	0	0	711	497	0	1021	0	0	
11	0	0	0	0	705	499	0	1007	0	0	
12	0	0	0	0	685	503	0	915	0	0	
13	0	0	0	0	654	507	0	780	0	0	
14	0	0	0	0	613	512	0	615	0	0	
15	0	0	0	0	568	517	0	438	0	0	
0	0	0	0	0	522	521	0	265	0	0	
1	0	0	0	0	482	524	0	117	0	0	
2	0	0	0	0	449	526	0	6	0	0	
3	0	0	0	0	428	526	0	0	0	0	
4	0	0	0	0	422	524	0	0	0	0	
5	0	0	0	0	431	521	0	26	0	0	
6	0	0	0	0	454	516	0	122	0	0	
7	0	0	0	0	489	511	0	263	0	0	
8	0	0	0	0	532	505	0	436	0	0	
9	0	0	0	0	579	499	0	620	0	0	
10	0	0	0	0	626	495	0	797	0	0	
11	0	0	0	0	668	491	0	947	0	0	
12	0	0	0	0	701	489	0	1020	0	0	
13	0	0	0	0	723	489	0	1021	0	0	
14	0	0	0	0	731	491	0	1021	0	0	
15	0	0	0	0	725	494	0	982	0	0	
0	0	0	0	0	705	499	0	876	0	0	
1	0	0	0	0	672	505	0	728	0	0	
2	0	0	0	0	631	511	0	554	0	0	
3	0	0	0	0	585	518	0	372	0	0	
4	0	0	0	0	539	523	0	202	0	0	
5	0	0	0	0	497	527	0	60	0	0	
6	0	0	0	0	464	531	0	0	0	0	
7	0	0	0	0	441	532	0	0	0	0	
8	0	0	0	0	432	531	0	0	0	0	
9	0	0	0	0	438	529	0	52	0	0	
10	0	0	0	0	458	525	0	171	0	0	
11	0	0	0	0	489	520	0	334	0	0	
12	0	0	0	0	530	514	0	526	0	0	
13	0	0	0	0	574	509	0	726	0	0	
14	0	0	0	0	619	504	0	911	0	0	
15	0	0	0	0	659	500	0	1020	0	0	
0	0	0	0	0	691	497	0	1021	0	0	
1	0	0	0	0	712	496	0	1021	0	0	
2	0	0	0	0	719	496	0	1021	0	0	
3	0	0	0	0	711	497	0	996	0	0	
4	0	0	0	0	690	500	0	896	0	0	
5	0	0	0	0	656	503	0	751	0	0	
6	0	0	0	0	614	507	0	579	0	0	
7	0	0	0	0	566	511	0	396	0	0	
8	0	0	0	0	517	515	0	220	0	0	
9	0	0	0	0	473	519	0	71	0	0	
10	0	0	0	0	438	520	0	0	0	0	
11	0	0	0	0	414	521	0	0	0	0	
12	0	0	0	0	403	521	0	0	0	0	
13	0	0	0	0	408	519	0	21	0	0	
14	0	0	0	0	428	515	0	115	0	0	
15	0	0	0	0	461	511	0	254	0	0	
0	0	0	0	0	504	508	0	424	0	0	
1	0	0	0	0	552	504	0	607	0	0	
2	0	0	0	0	601	500	0	784	0	0	
3	0	0	0	0	646	498	0	934	0	0	
4	0	0	0	0	683	496	0	1020	0	0	
5	0	0	0	0	708	496	0	1021	0	0	
6	0	0	0	0	721	498	0	1021	0	0	
7	0	0	0	0	717	501	0	985	0	0	
8	0	0	0	0	699	504	0	881	0	0	
9	0	0	0	0	668	509	0	734	0	0	
10	0	0	0	0	626	514	0	561	0	0	
11	0	0	0	0	579	518	0	377	0	0	
12	0	0	0	0	531	521	0	203	0	0	
13	0	0	0	0	485	522	0	56	0	0	
14	0	0	0	0	448	521	0	0	0	0	
15	0	0	0	0	422	519	0	0	0	0	
0	0	0	0	0	410	516	0	0	0	0	
1	0	0	0	0	413	512	0	24	0	0	
2	0	0	0	0	432	506	0	121	0	0	
3	0	0	0	0	465	502	0	264	0	0	
4	0	0	0	0	510	498	0	437	0	0	
5	0	0	0	0	560	496	0	622	0	0	
6	0	0	0	0	614	495	0	799	0	0	
7	0	0	0	0	664	496	0	947	0	0	
8	0	0	0	0	708	499	0	1020	0	0	
9	0	0	0	0	740	504	0	1021	0	0	
10	0	0	0	0	760	511	0	1021	0	0	
11	0	0	0	0	764	518	0	979	0	0	
12	0	0	0	0	752	526	0	870	0	0	
13	0	0	0	0	727	533	0	719	0	0	
14	0	0	0	0	688	540	0	541	0	0	
15	0	0	0	0	642	546	0	354	0	0	
0	0	0	0	0	593	550	0	177	0	0	
1	0	0	0	0	547	552	0	28	0	0	
2	0	0	0	0	505	552	0	0	0	0	
3	0	0	0	0	475	551	0	0	0	0	
4	0	0	0	0	457	546	0	0	0	0	
5	0	0	0	0	454	541	0	18	0	0	
6	0	0	0	0	465	534	0	113	0	0	
7	0	0	0	0	489	526	0	253	0	0	
8	0	0	0	0	522	517	0	425	0	0	
9	0	0	0	0	561	508	0	609	0	0	
10	0	0	0	0	602	500	0	789	0	0	
11	0	0	0	0	639	494	0	942	0	0	
12	0	0	0	0	671	490	0	1020	0	0	
13	0	0	0	0	692	488	0	1021	0	0	
14	0	0	0	0	702	489	0	1021	0	0	
15	0	0	0	0	696	492	0	990	0	0	
0	0	0	0	0	678	496	0	889	0	0	
1	0	0	0	0	646	501	0	745	0	0	
2	0	0	0	0	604	506	0	572	0	0	
3	0	0	0	0	555	511	0	390	0	0	
4	0	0	0	0	504	514	0	216	0	0	
5	0	0	0	0	455	516	0	68	0	0	
6	0	0	0	0	414	515	0	0	0	0	
7	0	0	0	0	383	514	0	0	0	0	
8	0	0	0	0	366	510	0	0	0	0	
9	0	0	0	0	364	505	0	25	0	0	
10	0	0	0	0	378	499	0	125	0	0	
11	0	0	0	0	408	493	0	270	0	0	
12	0	0	0	0	451	488	0	446	0	0	
13	0	0	0	0	502	484	0	633	0	0	
14	0	0	0	0	557	483	0	813	0	0	
15	0	0	0	0	612	484	0	965	0	0	
0	0	0	0	0	661	486	0	1020	0	0	
1	0	0	0	0	700	491	0	1021	0	0	
2	0	0	0	0	724	496	0	1021	0	0	
3	0	0	0	0	732	502	0	986	0	0	
4	0	0	0	0	723	508	0	880	0	0	
5	0	0	0	0	696	514	0	730	0	0	
6	0	0	0	0	656	519	0	553	0	0	
7	0	0	0	0	605	522	0	366	0	0	
8	0	0	0	0	550	524	0	188	0	0	
9	0	0	0	0	495	524	0	38	0	0	
10	0	0	0	0	445	522	0	0	0	0	
11	0	0	0	0	406	519	0	0	0	0	
12	0	0	0	0	380	514	0	0	0	0	
13	0	0	0	0	371	508	0	19	0	0	
14	0	0	0	0	379	501	0	114	0	0	
15	0	0	0	0	402	494	0	255	0	0	
0	0	0	0	0	439	488	0	428	0	0	
1	0	0	0	0	483	483	0	612	0	0	
2	0	0	0	0	532	479	0	790	0	0	
3	0	0	0	0	580	476	0	941	0	0	
4	0	0	0	0	622	476	0	1020	0	0	
5	0	0	0	0	654	478	0	1021	0	0	
6	0	0	0	0	673	481	0	1021	0	0	
7	0	0	0	0	679	486	0	976	0	0	
8	0	0	0	0	668	492	0	864	0	0	
9	0	0	0	0	644	498	0	709	0	0	
10	0	0	0	0	608	504	0	528	0	0	
11	0	0	0	0	564	510	0	339	0	0	
12	0	0	0	0	519	514	0	163	0	0	
13	0	0	0	0	473	517	0	15	0	0	
14	0	0	0	0	434	517	0	0	0	0	
15	0	0	0	0	403	515	0	0	0	0	
0	0	0	0	0	385	511	0	0	0	0	
1	0	0	0	0	379	504	0	24	0	0	
2	0	0	0	0	388	495	0	124	0	0	
3	0	0	0	0	408	484	0	268	0	0	
4	0	0	0	0	439	473	0	443	0	0	
5	0	0	0	0	476	462	0	627	0	0	
6	0	0	0	0	515	451	0	803	0	0	
7	0	0	0	0	552	440	0	952	0	0	
8	0	0	0	0	582	431	0	1020	0	0	
9	0	0	0	0	600	422	0	1021	0	0	
10	0	0	0	0	606	414	0	1021	0	0	
11	0	0	0	0	595	407	0	971	0	0	
12	0	0	0	0	569	401	0	854	0	0	
13	0	0	0	0	530	394	0	695	0	0	
14	0	0	0	0	480	388	0	510	0	0	
15	0	0	0	0	423	382	0	316	0	0	
0	0	0	0	0	365	375	0	135	0	0	
1	0	0	0	0	311	368	0	0	0	0	
2	0	0	0	0	264	359	0	0	0	0	
3	0	0	0	0	228	350	0	0	0	0	
4	0	0	0	0	206	340	0	0	0	0	
5	0	0	0	0	199	329	0	17	0	0	
6	0	0	0	0	209	318	0	115	0	0	
7	0	0	0	0	234	308	0	260	0	0	
8	0	0	0	0	272	299	0	438	0	0	
9	0	0	0	0	319	292	0	630	0	0	
10	0	0	0	0	371	287	0	816	0	0	
11	0	0	0	0	422	286	0	974	0	0	
12	0	0	0	0	468	286	0	1020	0	0	
13	0	0	0	0	504	289	0	1021	0	0	
14	0	0	0	0	527	295	0	1021	0	0	
15	0	0	0	0	535	304	0	999	0	0	
0	0	0	0	0	529	316	0	902	0	0	
1	0	0	0	0	510	330	0	758	0	0	
2	0	0	0	0	480	346	0	585	0	0	
3	0	0	0	0	445	363	0	399	0	0	
4	0	0	0	0	408	380	0	220	0	0	
5	0	0	0	0	374	396	0	64	0	0	
6	0	0	0	0	346	412	0	0	0	0	
7	0	0	0	0	328	426	0	0	0	0	
8	0	0	0	0	323	438	0	0	0	0	
9	0	0	0	0	332	446	0	1	0	0	
10	0	0	0	0	354	452	0	78	0	0	
11	0	0	0	0	390	455	0	203	0	0	
12	0	0	0	0	435	458	0	360	0	0	
13	0	0	0	0	485	459	0	534	0	0	
14	0	0	0	0	537	460	0	704	0	0	
15	0	0	0	0	586	462	0	853	0	0	
0	0	0	0	0	628	464	0	963	0	0	
1	0	0	0	0	659	468	0	1020	0	0	
2	0	0	0	0	677	474	0	1020	0	0	
3	0	0	0	0	680	482	0	967	0	0	
4	0	0	0	0	670	491	0	859	0	0	
5	0	0	0	0	645	501	0	706	0	0	
6	0	0	0	0	609	512	0	528	0	0	
7	0	0	0	0	568	522	0	340	0	0	
8	0	0	0	0	526	531	0	163	0	0	
9	0	0	0	0	486	539	0	13	0	0	
10	0	0	0	0	454	546	0	0	0	0	
11	0	0	0	0	432	550	0	0	0	0	
12	0	0	0	0	424	551	0	0	0	0	
13	0	0	0	0	429	550	0	16	0	0	
14	0	0	0	0	448	545	0	109	0	0	
15	0	0	0	0	478	539	0	247	0	0	
0	0	0	0	0	516	531	0	415	0	0	
1	0	0	0	0	559	523	0	595	0	0	
2	0	0	0	0	601	515	0	767	0	0	
3	0	0	0	0	641	509	0	912	0	0	
4	0	0	0	0	673	504	0	1016	0	0	
5	0	0	0	0	695	503	0	1021	0	0	
6	0	0	0	0	704	503	0	1021	0	0	
7	0	0	0	0	699	505	0	963	0	0	
8	0	0	0	0	679	509	0	846	0	0	
9	0	0	0	0	647	513	0	687	0	0	
10	0	0	0	0	605	519	0	504	0	0	
11	0	0	0	0	557	523	0	313	0	0	
12	0	0	0	0	507	526	0	136	0	0	
13	0	0	0	0	460	527	0	0	0	0	
14	0	0	0	0	419	527	0	0	0	0	
15	0	0	0	0	390	526	0	0	0	0	
0	0	0	0	0	375	523	0	0	0	0	
1	0	0	0	0	374	519	0	20	0	0	
2	0	0	0	0	390	514	0	115	0	0	
3	0	0	0	0	420	510	0	254	0	0	
4	0	0	0	0	462	506	0	423	0	0	
5	0	0	0	0	511	504	0	603	0	0	
6	0	0	0	0	563	503	0	775	0	0	
7	0	0	0	0	615	503	0	921	0	0	
8	0	0	0	0	661	507	0	1020	0	0	
9	0	0	0	0	696	511	0	1021	0	0	
10	0	0	0	0	719	518	0	1021	0	0	
11	0	0	0	0	727	524	0	969	0	0	
12	0	0	0	0	719	531	0	856	0	0	
13	0	0	0	0	695	537	0	701	0	0	
14	0	0	0	0	659	542	0	520	0	0	
15	0	0	0	0	613	544	0	331	0	0	
0	0	0	0	0	560	544	0	153	0	0	
1	0	0	0	0	508	540	0	5	0	0	
2	0	0	0	0	460	535	0	0	0	0	
3	0	0	0	0	420	526	0	0	0	0	
4	0	0	0	0	393	516	0	0	0	0	
5	0	0	0	0	381	506	0	14	0	0	
6	0	0	0	0	386	496	0	103	0	0	
7	0	0	0	0	407	487	0	239	0	0	
8	0	0	0	0	442	481	0	404	0	0	
9	0	0	0	0	488	478	0	583	0	0	
10	0	0	0	0	539	477	0	754	0	0	
11	0	0	0	0	591	479	0	899	0	0	
12	0	0	0	0	639	483	0	1004	0	0	
13	0	0	0	0	678	491	0	1021	0	0	
14	0	0	0	0	705	499	0	1021	0	0	
15	0	0	0	0	716	509	0	964	0	0	
0	0	0	0	0	712	519	0	850	0	0	
1	0	0	0	0	691	527	0	693	0	0	
2	0	0	0	0	656	535	0	512	0	0	
3	0	0	0	0	611	540	0	323	0	0	
4	0	0	0	0	560	543	0	148	0	0	
5	0	0	0	0	509	543	0	2	0	0	
6	0	0	0	0	462	540	0	0	0	0	
7	0	0	0	0	424	534	0	0	0	0	
8	0	0	0	0	399	527	0	0	0	0	
9	0	0	0	0	389	518	0	19	0	0	
10	0	0	0	0	397	509	0	113	0	0	
11	0	0	0	0	420	500	0	254	0	0	
12	0	0	0	0	456	493	0	424	0	0	
13	0	0	0	0	501	487	0	606	0	0	
14	0	0	0	0	550	484	0	780	0	0	
15	0	0	0	0	600	482	0	926	0	0	
0	0	0	0	0	644	483	0	1020	0	0	
1	0	0	0	0	679	486	0	1021	0	0	
2	0	0	0	0	702	492	0	1021	0	0	
3	0	0	0	0	713	499	0	961	0	0	
4	0	0	0	0	707	506	0	841	0	0	
5	0	0	0	0	689	515	0	680	0	0	
6	0	0	0	0	659	523	0	493	0	0	
7	0	0	0	0	620	530	0	299	0	0	
8	0	0	0	0	578	536	0	119	0	0	
9	0	0	0	0	536	539	0	0	0	0	
10	0	0	0	0	499	540	0	0	0	0	
11	0	0	0	0	468	538	0	0	0	0	
12	0	0	0	0	449	534	0	0	0	0	
13	0	0	0	0	442	528	0	8	0	0	
14	0	0	0	0	447	520	0	95	0	0	
15	0	0	0	0	465	512	0	227	0	0	
0	0	0	0	0	492	504	0	390	0	0	
1	0	0	0	0	526	498	0	567	0	0	
2	0	0	0	0	563	494	0	738	0	0	
3	0	0	0	0	599	492	0	883	0	0	
4	0	0	0	0	631	494	0	989	0	0	
5	0	0	0	0	655	498	0	1020	0	0	
6	0	0	0	0	669	505	0	1020	0	0	
7	0	0	0	0	671	513	0	963	0	0	
8	0	0	0	0	660	521	0	848	0	0	
9	0	0	0	0	636	530	0	691	0	0	
10	0	0	0	0	603	537	0	510	0	0	
11	0	0	0	0	562	542	0	319	0	0	
12	0	0	0	0	519	544	0	142	0	0	
13	0	0	0	0	477	543	0	0	0	0	
14	0	0	0	0	441	540	0	0	0	0	
15	0	0	0	0	414	535	0	0	0	0	
0	0	0	0	0	399	527	0	0	0	0	
1	0	0	0	0	399	519	0	16	0	0	
2	0	0	0	0	412	510	0	109	0	0	
3	0	0	0	0	439	500	0	246	0	0	
4	0	0	0	0	476	493	0	414	0	0	
5	0	0	0	0	521	486	0	594	0	0	
6	0	0	0	0	567	481	0	766	0	0	
7	0	0	0	0	612	478	0	912	0	0	
8	0	0	0	0	650	477	0	1015	0	0	
9	0	0	0	0	679	478	0	1021	0	0	
10	0	0	0	0	695	481	0	1020	0	0	
11	0	0	0	0	696	485	0	962	0	0	
12	0	0	0	0	684	490	0	844	0	0	
13	0	0	0	0	657	496	0	685	0	0	
14	0	0	0	0	620	503	0	502	0	0	
15	0	0	0	0	575	508	0	311	0	0	
0	0	0	0	0	529	514	0	134	0	0	
1	0	0	0	0	483	518	0	0	0	0	
2	0	0	0	0	444	520	0	0	0	0	
3	0	0	0	0	412	520	0	0	0	0	
4	0	0	0	0	394	517	0	0	0	0	
5	0	0	0	0	389	513	0	20	0	0	
6	0	0	0	0	399	506	0	116	0	0	
7	0	0	0	0	421	499	0	257	0	0	
8	0	0	0	0	453	492	0	428	0	0	
9	0	0	0	0	492	485	0	609	0	0	
10	0	0	0	0	533	479	0	782	0	0	
11	0	0	0	0	573	475	0	928	0	0	
12	0	0	0	0	607	472	0	1020	0	0	
13	0	0	0	0	633	473	0	1021	0	0	
14	0	0	0	0	647	475	0	1021	0	0	
15	0	0	0	0	647	480	0	968	0	0	
0	0	0	0	0	636	486	0	853	0	0	
1	0	0	0	0	612	493	0	696	0	0	
2	0	0	0	0	579	502	0	513	0	0	
3	0	0	0	0	540	509	0	322	0	0	
4	0	0	0	0	500	515	0	143	0	0	
5	0	0	0	0	461	520	0	0	0	0	
6	0	0	0	0	430	523	0	0	0	0	
7	0	0	0	0	408	523	0	0	0	0	
8	0	0	0	0	398	520	0	0	0	0	
9	0	0	0	0	402	516	0	10	0	0	
10	0	0	0	0	419	510	0	97	0	0	
11	0	0	0	0	449	503	0	231	0	0	
12	0	0	0	0	488	495	0	396	0	0	
13	0	0	0	0	532	489	0	575	0	0	
14	0	0	0	0	577	483	0	748	0	0	
15	0	0	0	0	618	479	0	896	0	0	
0	0	0	0	0	652	478	0	1001	0	0	
1	0	0	0	0	675	477	0	1020	0	0	
2	0	0	0	0	685	479	0	1021	0	0	
3	0	0	0	0	680	481	0	963	0	0	
4	0	0	0	0	661	485	0	847	0	0	
5	0	0	0	0	628	489	0	688	0	0	
6	0	0	0	0	585	494	0	504	0	0	
7	0	0	0	0	537	497	0	311	0	0	
8	0	0	0	0	487	500	0	132	0	0	
9	0	0	0	0	441	502	0	0	0	0	
10	0	0	0	0	403	503	0	0	0	0	
11	0	0	0	0	376	502	0	0	0	0	
12	0	0	0	0	362	499	0	0	0	0	
13	0	0	0	0	364	495	0	23	0	0	
14	0	0	0	0	380	490	0	124	0	0	
15	0	0	0	0	411	484	0	273	0	0	
0	0	0	0	0	452	480	0	452	0	0	
1	0	0	0	0	499	475	0	644	0	0	
2	0	0	0	0	547	473	0	826	0	0	
3	0	0	0	0	593	472	0	979	0	0	
4	0	0	0	0	631	472	0	1020	0	0	
5	0	0	0	0	658	475	0	1021	0	0	
6	0	0	0	0	671	479	0	1021	0	0	
7	0	0	0	0	668	484	0	978	0	0	
8	0	0	0	0	651	490	0	864	0	0	
9	0	0	0	0	620	496	0	707	0	0	
10	0	0	0	0	579	503	0	523	0	0	
11	0	0	0	0	532	508	0	330	0	0	
12	0	0	0	0	485	512	0	149	0	0	
13	0	0	0	0	441	515	0	0	0	0	
14	0	0	0	0	406	515	0	0	0	0	
15	0	0	0	0	381	512	0	0	0	0	
0	0	0	0	0	369	508	0	0	0	0	
1	0	0	0	0	371	502	0	17	0	0	
2	0	0	0	0	388	494	0	115	0	0	
3	0	0	0	0	419	486	0	259	0	0	
4	0	0	0	0	459	479	0	434	0	0	
5	0	0	0	0	504	473	0	622	0	0	
6	0	0	0	0	551	469	0	801	0	0	
7	0	0	0	0	596	466	0	954	0	0	
8	0	0	0	0	633	466	0	1020	0	0	
9	0	0	0	0	659	468	0	1021	0	0	
10	0	0	0	0	672	472	0	1021	0	0	
11	0	0	0	0	670	477	0	982	0	0	
12	0	0	0	0	652	484	0	873	0	0	
13	0	0	0	0	621	492	0	721	0	0	
14	0	0	0	0	579	499	0	541	0	0	
15	0	0	0	0	531	507	0	352	0	0	
0	0	0	0	0	479	512	0	174	0	0	
1	0	0	0	0	429	515	0	24	0	0	
2	0	0	0	0	385	515	0	0	0	0	
3	0	0	0	0	350	512	0	0	0	0	
4	0	0	0	0	328	506	0	0	0	0	
5	0	0	0	0	321	498	0	23	0	0	
6	0	0	0	0	330	488	0	121	0	0	
7	0	0	0	0	353	478	0	266	0	0	
8	0	0	0	0	388	467	0	442	0	0	
9	0	0	0	0	432	459	0	630	0	0	
10	0	0	0	0	480	451	0	810	0	0	
11	0	0	0	0	527	447	0	962	0	0	
12	0	0	0	0	568	445	0	1020	0	0	
13	0	0	0	0	600	446	0	1021	0	0	
14	0	0	0	0	620	448	0	1021	0	0	
15	0	0	0	0	624	453	0	981	0	0	
0	0	0	0	0	615	459	0	871	0	0	
1	0	0	0	0	591	467	0	717	0	0	
2	0	0	0	0	556	473	0	535	0	0	
3	0	0	0	0	515	480	0	343	0	0	
4	0	0	0	0	471	484	0	162	0	0	
5	0	0	0	0	428	487	0	8	0	0	
6	0	0	0	0	392	487	0	0	0	0	
7	0	0	0	0	364	486	0	0	0	0	
8	0	0	0	0	349	482	0	0	0	0	
9	0	0	0	0	347	476	0	4	0	0	
10	0	0	0	0	360	469	0	85	0	0	
11	0	0	0	0	385	462	0	212	0	0	
12	0	0	0	0	422	455	0	372	0	0	
13	0	0	0	0	465	449	0	546	0	0	
14	0	0	0	0	511	445	0	717	0	0	
15	0	0	0	0	555	444	0	863	0	0	
0	0	0	0	0	593	444	0	970	0	0	
1	0	0	0	0	620	447	0	1020	0	0	
2	0	0	0	0	636	451	0	1020	0	0	
3	0	0	0	0	636	457	0	961	0	0	
4	0	0	0	0	622	464	0	846	0	0	
5	0	0	0	0	596	472	0	689	0	0	
6	0	0	0	0	560	479	0	506	0	0	
7	0	0	0	0	519	485	0	314	0	0	
8	0	0	0	0	475	490	0	135	0	0	
9	0	0	0	0	435	493	0	0	0	0	
10	0	0	0	0	401	495	0	0	0	0	
11	0	0	0	0	377	496	0	0	0	0	
12	0	0	0	0	367	494	0	0	0	0	
13	0	0	0	0	369	491	0	12	0	0	
14	0	0	0	0	386	487	0	102	0	0	
15	0	0	0	0	416	481	0	239	0	0	
0	0	0	0	0	454	476	0	408	0	0	
1	0	0	0	0	498	471	0	590	0	0	
2	0	0	0	0	543	467	0	766	0	0	
3	0	0	0	0	585	463	0	916	0	0	
4	0	0	0	0	621	461	0	1020	0	0	
5	0	0	0	0	646	460	0	1021	0	0	
6	0	0	0	0	658	461	0	1021	0	0	
7	0	0	0	0	656	463	0	966	0	0	
8	0	0	0	0	640	467	0	847	0	0	
9	0	0	0	0	611	472	0	684	0	0	
10	0	0	0	0	571	476	0	493	0	0	
11	0	0	0	0	524	482	0	294	0	0	
12	0	0	0	0	477	487	0	108	0	0	
13	0	0	0	0	432	491	0	0	0	0	
14	0	0	0	0	394	493	0	0	0	0	
15	0	0	0	0	366	495	0	0	0	0	
0	0	0	0	0	351	494	0	0	0	0	
1	0	0	0	0	352	492	0	0	0	0	
2	0	0	0	0	367	490	0	78	0	0	
3	0	0	0	0	397	487	0	205	0	0	
4	0	0	0	0	438	483	0	365	0	0	
5	0	0	0	0	485	480	0	541	0	0	
6	0	0	0	0	535	478	0	714	0	0	
7	0	0	0	0	583	477	0	864	0	0	
8	0	0	0	0	624	476	0	973	0	0	
9	0	0	0	0	655	477	0	1021	0	0	
10	0	0	0	0	671	479	0	1020	0	0	
11	0	0	0	0	674	480	0	961	0	0	
12	0	0	0	0	660	483	0	844	0	0	
13	0	0	0	0	632	485	0	685	0	0	
14	0	0	0	0	591	487	0	498	0	0	
15	0	0	0	0	543	487	0	303	0	0	
0	0	0	0	0	489	486	0	120	0	0	
1	0	0	0	0	437	484	0	0	0	0	
2	0	0	0	0	390	480	0	0	0	0	
3	0	0	0	0	353	476	0	0	0	0	
4	0	0	0	0	329	471	0	0	0	0	
5	0	0	0	0	321	466	0	0	0	0	
6	0	0	0	0	330	462	0	74	0	0	
7	0	0	0	0	356	459	0	195	0	0	
8	0	0	0	0	398	458	0	348	0	0	
9	0	0	0	0	450	458	0	517	0	0	
10	0	0	0	0	509	461	0	682	0	0	
11	0	0	0	0	568	466	0	826	0	0	
12	0	0	0	0	624	472	0	932	0	0	
13	0	0	0	0	669	479	0	990	0	0	
14	0	0	0	0	701	487	0	990	0	0	
15	0	0	0	0	716	495	0	933	0	0	
0	0	0	0	0	713	502	0	822	0	0	
1	0	0	0	0	692	508	0	668	0	0	
2	0	0	0	0	656	512	0	489	0	0	
3	0	0	0	0	607	514	0	300	0	0	
4	0	0	0	0	551	513	0	122	0	0	
5	0	0	0	0	494	510	0	0	0	0	
6	0	0	0	0	440	505	0	0	0	0	
7	0	0	0	0	394	498	0	0	0	0	
8	0	0	0	0	361	489	0	0	0	0	
9	0	0	0	0	344	480	0	0	0	0	
10	0	0	0	0	343	470	0	74	0	0	
11	0	0	0	0	359	460	0	193	0	0	
12	0	0	0	0	390	452	0	344	0	0	
13	0	0	0	0	432	446	0	510	0	0	
14	0	0	0	0	479	442	0	672	0	0	
15	0	0	0	0	528	440	0	813	0	0	
0	0	0	0	0	573	441	0	915	0	0	
1	0	0	0	0	609	444	0	971	0	0	
2	0	0	0	0	632	449	0	969	0	0	
3	0	0	0	0	640	455	0	912	0	0	
4	0	0	0	0	633	462	0	801	0	0	
5	0	0	0	0	612	469	0	650	0	0	
6	0	0	0	0	578	476	0	475	0	0	
7	0	0	0	0	536	482	0	292	0	0	
8	0	0	0	0	489	486	0	123	0	0	
9	0	0	0	0	444	489	0	0	0	0	
10	0	0	0	0	403	489	0	0	0	0	
11	0	0	0	0	371	488	0	0	0	0	
12	0	0	0	0	352	485	0	0	0	0	
13	0	0	0	0	347	480	0	9	0	0	
14	0	0	0	0	357	475	0	91	0	0	
15	0	0	0	0	381	469	0	217	0	0	
0	0	0	0	0	417	463	0	373	0	0	
1	0	0	0	0	462	458	0	542	0	0	
2	0	0	0	0	509	454	0	705	0	0	
3	0	0	0	0	556	452	0	845	0	0	
4	0	0	0	0	597	452	0	945	0	0	
5	0	0	0	0	628	453	0	997	0	0	
6	0	0	0	0	647	455	0	992	0	0	
7	0	0	0	0	652	458	0	928	0	0	
8	0	0	0	0	641	462	0	813	0	0	
9	0	0	0	0	615	465	0	656	0	0	
10	0	0	0	0	579	469	0	476	0	0	
11	0	0	0	0	534	472	0	289	0	0	
12	0	0	0	0	487	475	0	117	0	0	
13	0	0	0	0	440	477	0	0	0	0	
14	0	0	0	0	399	478	0	0	0	0	
15	0	0	0	0	366	477	0	0	0	0	
0	0	0	0	0	346	476	0	0	0	0	
1	0	0	0	0	340	473	0	24	0	0	
2	0	0	0	0	348	468	0	123	0	0	
3	0	0	0	0	371	464	0	266	0	0	
4	0	0	0	0	405	460	0	439	0	0	
5	0	0	0	0	446	456	0	622	0	0	
6	0	0	0	0	492	454	0	796	0	0	
7	0	0	0	0	536	452	0	941	0	0	
8	0	0	0	0	575	451	0	1020	0	0	
9	0	0	0	0	605	451	0	1021	0	0	
10	0	0	0	0	622	454	0	1021	0	0	
11	0	0	0	0	625	456	0	965	0	0	
12	0	0	0	0	615	461	0	848	0	0	
13	0	0	0	0	591	466	0	689	0	0	
14	0	0	0	0	556	471	0	506	0	0	
15	0	0	0	0	515	476	0	316	0	0	
0	0	0	0	0	471	481	0	140	0	0	
1	0	0	0	0	429	484	0	0	0	0	
2	0	0	0	0	393	487	0	0	0	0	
3	0	0	0	0	367	487	0	0	0	0	
4	0	0	0	0	353	486	0	0	0	0	
5	0	0	0	0	352	484	0	28	0	0	
6	0	0	0	0	365	480	0	132	0	0	
7	0	0	0	0	390	475	0	280	0	0	
8	0	0	0	0	425	471	0	460	0	0	
9	0	0	0	0	465	466	0	651	0	0	
10	0	0	0	0	507	462	0	833	0	0	
11	0	0	0	0	545	459	0	988	0	0	
12	0	0	0	0	577	457	0	1020	0	0	
13	0	0	0	0	598	456	0	1021	0	0	
14	0	0	0	0	606	456	0	1021	0	0	
15	0	0	0	0	599	457	0	991	0	0	
0	0	0	0	0	580	459	0	887	0	0	
1	0	0	0	0	548	462	0	737	0	0	
2	0	0	0	0	508	464	0	561	0	0	
3	0	0	0	0	463	467	0	373	0	0	
4	0	0	0	0	418	469	0	195	0	0	
5	0	0	0	0	378	471	0	43	0	0	
6	0	0	0	0	345	472	0	0	0	0	
7	0	0	0	0	325	473	0	0	0	0	
8	0	0	0	0	317	472	0	0	0	0	
9	0	0	0	0	323	470	0	14	0	0	
10	0	0	0	0	344	466	0	105	0	0	
11	0	0	0	0	376	463	0	243	0	0	
12	0	0	0	0	419	459	0	415	0	0	
13	0	0	0	0	468	455	0	600	0	0	
14	0	0	0	0	517	452	0	780	0	0	
15	0	0	0	0	564	450	0	932	0	0	
0	0	0	0	0	602	449	0	1020	0	0	
1	0	0	0	0	628	449	0	1021	0	0	
2	0	0	0	0	641	450	0	1021	0	0	
3	0	0	0	0	637	452	0	979	0	0	
4	0	0	0	0	619	454	0	868	0	0	
5	0	0	0	0	587	457	0	714	0	0	
6	0	0	0	0	543	460	0	532	0	0	
7	0	0	0	0	496	463	0	341	0	0	
8	0	0	0	0	446	466	0	161	0	0	
9	0	0	0	0	401	467	0	8	0	0	
10	0	0	0	0	364	469	0	0	0	0	
11	0	0	0	0	339	470	0	0	0	0	
12	0	0	0	0	328	469	0	0	0	0	
13	0	0	0	0	331	466	0	15	0	0	
14	0	0	0	0	348	462	0	109	0	0	
15	0	0	0	0	379	456	0	249	0	0	
0	0	0	0	0	420	450	0	422	0	0	
1	0	0	0	0	467	444	0	608	0	0	
2	0	0	0	0	515	440	0	789	0	0	
3	0	0	0	0	562	437	0	943	0	0	
4	0	0	0	0	602	436	0	1020	0	0	
5	0	0	0	0	632	439	0	1021	0	0	
6	0	0	0	0	651	444	0	1021	0	0	
7	0	0	0	0	655	451	0	984	0	0	
8	0	0	0	0	646	459	0	876	0	0	
9	0	0	0	0	623	468	0	722	0	0	
10	0	0	0	0	590	476	0	539	0	0	
11	0	0	0	0	550	484	0	345	0	0	
12	0	0	0	0	507	489	0	160	0	0	
13	0	0	0	0	466	492	0	3	0	0	
14	0	0	0	0	430	494	0	0	0	0	
15	0	0	0	0	402	493	0	0	0	0	
0	0	0	0	0	387	490	0	0	0	0	
1	0	0	0	0	384	485	0	0	0	0	
2	0	0	0	0	393	478	0	74	0	0	
3	0	0	0	0	416	471	0	198	0	0	
4	0	0	0	0	448	463	0	354	0	0	
5	0	0	0	0	487	455	0	527	0	0	
6	0	0	0	0	528	449	0	698	0	0	
7	0	0	0	0	567	444	0	846	0	0	
8	0	0	0	0	600	441	0	957	0	0	
9	0	0	0	0	624	440	0	1018	0	0	
10	0	0	0	0	635	442	0	1020	0	0	
11	0	0	0	0	633	445	0	967	0	0	
12	0	0	0	0	616	449	0	859	0	0	
13	0	0	0	0	588	455	0	708	0	0	
14	0	0	0	0	548	460	0	531	0	0	
15	0	0	0	0	504	466	0	344	0	0	
0	0	0	0	0	457	472	0	168	0	0	
1	0	0	0	0	413	475	0	20	0	0	
2	0	0	0	0	377	478	0	0	0	0	
3	0	0	0	0	351	479	0	0	0	0	
4	0	0	0	0	339	479	0	0	0	0	
5	0	0	0	0	341	476	0	21	0	0	
6	0	0	0	0	359	472	0	117	0	0	
7	0	0	0	0	389	467	0	257	0	0	
8	0	0	0	0	430	462	0	426	0	0	
9	0	0	0	0	476	456	0	606	0	0	
10	0	0	0	0	524	451	0	776	0	0	
11	0	0	0	0	569	447	0	918	0	0	
12	0	0	0	0	607	444	0	1016	0	0	
13	0	0	0	0	635	444	0	1021	0	0	
14	0	0	0	0	649	446	0	1020	0	0	
15	0	0	0	0	648	449	0	949	0	0	
0	0	0	0	0	634	455	0	824	0	0	
1	0	0	0	0	607	462	0	659	0	0	
2	0	0	0	0	569	469	0	471	0	0	
3	0	0	0	0	524	476	0	279	0	0	
4	0	0	0	0	477	483	0	103	0	0	
5	0	0	0	0	433	487	0	0	0	0	
6	0	0	0	0	394	490	0	0	0	0	
7	0	0	0	0	366	491	0	0	0	0	
8	0	0	0	0	349	489	0	0	0	0	
9	0	0	0	0	347	486	0	36	0	0	
10	0	0	0	0	361	480	0	147	0	0	
11	0	0	0	0	387	474	0	304	0	0	
12	0	0	0	0	426	468	0	492	0	0	
13	0	0	0	0	472	462	0	689	0	0	
14	0	0	0	0	520	456	0	875	0	0	
15	0	0	0	0	567	452	0	1020	0	0	
0	0	0	0	0	607	450	0	1020	0	0	
1	0	0	0	0	636	448	0	1021	0	0	
2	0	0	0	0	652	449	0	1021	0	0	
3	0	0	0	0	652	449	0	992	0	0	
4	0	0	0	0	636	450	0	884	0	0	
5	0	0	0	0	605	452	0	732	0	0	
6	0	0	0	0	561	453	0	550	0	0	
7	0	0	0	0	511	454	0	356	0	0	
8	0	0	0	0	458	454	0	171	0	0	
9	0	0	0	0	407	454	0	12	0	0	
10	0	0	0	0	364	453	0	0	0	0	
11	0	0	0	0	334	451	0	0	0	0	
12	0	0	0	0	318	450	0	0	0	0	
13	0	0	0	0	319	448	0	0	0	0	
14	0	0	0	0	337	446	0	80	0	0	
15	0	0	0	0	372	444	0	207	0	0	
0	0	0	0	0	419	443	0	368	0	0	
1	0	0	0	0	475	443	0	544	0	0	
2	0	0	0	0	534	444	0	718	0	0	
3	0	0	0	0	590	446	0	866	0	0	
4	0	0	0	0	639	448	0	977	0	0	
5	0	0	0	0	676	452	0	1021	0	0	
6	0	0	0	0	698	456	0	1020	0	0	
7	0	0	0	0	703	462	0	964	0	0	
8	0	0	0	0	690	467	0	851	0	0	
9	0	0	0	0	661	472	0	691	0	0	
10	0	0	0	0	618	476	0	504	0	0	
11	0	0	0	0	567	480	0	307	0	0	
12	0	0	0	0	511	482	0	122	0	0	
13	0	0	0	0	457	483	0	0	0	0	
14	0	0	0	0	411	483	0	0	0	0	
15	0	0	0	0	375	480	0	0	0	0	
0	0	0	0	0	353	477	0	0	0	0	
1	0	0	0	0	347	472	0	0	0	0	
2	0	0	0	0	358	466	0	63	0	0	
3	0	0	0	0	384	460	0	182	0	0	
4	0	0	0	0	423	455	0	334	0	0	
5	0	0	0	0	471	450	0	504	0	0	
6	0	0	0	0	523	447	0	672	0	0	
7	0	0	0	0	574	446	0	820	0	0	
8	0	0	0	0	620	446	0	929	0	0	
9	0	0	0	0	655	448	0	991	0	0	
10	0	0	0	0	679	451	0	996	0	0	
11	0	0	0	0	687	455	0	943	0	0	
12	0	0	0	0	680	460	0	836	0	0	
13	0	0	0	0	657	465	0	686	0	0	
14	0	0	0	0	620	469	0	508	0	0	
15	0	0	0	0	575	472	0	321	0	0	
0	0	0	0	0	524	474	0	145	0	0	
1	0	0	0	0	474	475	0	0	0	0	
2	0	0	0	0	429	474	0	0	0	0	
3	0	0	0	0	392	471	0	0	0	0	
4	0	0	0	0	368	467	0	0	0	0	
5	0	0	0	0	358	461	0	5	0	0	
6	0	0	0	0	363	454	0	84	0	0	
7	0	0	0	0	383	446	0	207	0	0	
8	0	0	0	0	414	439	0	360	0	0	
9	0	0	0	0	455	434	0	527	0	0	
10	0	0	0	0	502	430	0	688	0	0	
11	0	0	0	0	547	428	0	824	0	0	
12	0	0	0	0	590	428	0	922	0	0	
13	0	0	0	0	624	432	0	972	0	0	
14	0	0	0	0	647	437	0	964	0	0	
15	0	0	0	0	657	445	0	900	0	0	
0	0	0	0	0	652	454	0	785	0	0	
1	0	0	0	0	634	463	0	630	0	0	
2	0	0	0	0	604	472	0	452	0	0	
3	0	0	0	0	566	480	0	268	0	0	
4	0	0	0	0	524	486	0	97	0	0	
5	0	0	0	0	482	490	0	0	0	0	
6	0	0	0	0	446	492	0	0	0	0	
7	0	0	0	0	417	490	0	0	0	0	
8	0	0	0	0	401	487	0	0	0	0	
9	0	0	0	0	398	480	0	0	0	0	
10	0	0	0	0	407	473	0	65	0	0	
11	0	0	0	0	429	464	0	176	0	0	
12	0	0	0	0	460	455	0	315	0	0	
13	0	0	0	0	497	447	0	468	0	0	
14	0	0	0	0	536	439	0	618	0	0	
15	0	0	0	0	573	434	0	747	0	0	
0	0	0	0	0	605	431	0	840	0	0	
1	0	0	0	0	628	430	0	889	0	0	
2	0	0	0	0	640	432	0	886	0	0	
3	0	0	0	0	639	436	0	831	0	0	
4	0	0	0	0	625	442	0	728	0	0	
5	0	0	0	0	599	449	0	590	0	0	
6	0	0	0	0	564	456	0	432	0	0	
7	0	0	0	0	523	462	0	269	0	0	
8	0	0	0	0	480	467	0	120	0	0	
9	0	0	0	0	439	471	0	0	0	0	
10	0	0	0	0	405	472	0	0	0	0	
11	0	0	0	0	380	471	0	0	0	0	
12	0	0	0	0	367	469	0	0	0	0	
13	0	0	0	0	369	466	0	31	0	0	
14	0	0	0	0	385	462	0	124	0	0	
15	0	0	0	0	414	457	0	255	0	0	
0	0	0	0	0	454	453	0	409	0	0	
1	0	0	0	0	499	449	0	570	0	0	
2	0	0	0	0	545	447	0	720	0	0	
3	0	0	0	0	591	446	0	841	0	0	
4	0	0	0	0	630	446	0	922	0	0	
5	0	0	0	0	657	447	0	953	0	0	
6	0	0	0	0	672	450	0	928	0	0	
7	0	0	0	0	672	454	0	849	0	0	
8	0	0	0	0	657	458	0	722	0	0	
9	0	0	0	0	629	463	0	561	0	0	
10	0	0	0	0	590	468	0	382	0	0	
11	0	0	0	0	543	472	0	204	0	0	
12	0	0	0	0	493	474	0	45	0	0	
13	0	0	0	0	444	475	0	0	0	0	
14	0	0	0	0	403	473	0	0	0	0	
15	0	0	0	0	371	470	0	0	0	0	
0	0	0	0	0	352	465	0	0	0	0	
1	0	0	0	0	347	457	0	31	0	0	
2	0	0	0	0	358	449	0	131	0	0	
3	0	0	0	0	383	441	0	271	0	0	
4	0	0	0	0	419	433	0	436	0	0	
5	0	0	0	0	462	426	0	609	0	0	
6	0	0	0	0	509	421	0	771	0	0	
7	0	0	0	0	555	418	0	903	0	0	
8	0	0	0	0	596	418	0	993	0	0	
9	0	0	0	0	628	421	0	1021	0	0	
10	0	0	0	0	648	427	0	1005	0	0	
11	0	0	0	0	654	435	0	923	0	0	
12	0	0	0	0	644	444	0	790	0	0	
13	0	0	0	0	623	453	0	617	0	0	
14	0	0	0	0	589	463	0	422	0	0	
15	0	0	0	0	547	470	0	223	0	0	
0	0	0	0	0	502	476	0	41	0	0	
1	0	0	0	0	458	480	0	0	0	0	
2	0	0	0	0	419	480	0	0	0	0	
3	0	0	0	0	388	478	0	0	0	0	
4	0	0	0	0	369	472	0	0	0	0	
5	0	0	0	0	363	464	0	4	0	0	
6	0	0	0	0	371	455	0	87	0	0	
7	0	0	0	0	392	444	0	216	0	0	
8	0	0	0	0	424	433	0	376	0	0	
9	0	0	0	0	462	422	0	550	0	0	
10	0	0	0	0	504	414	0	720	0	0	
11	0	0	0	0	545	409	0	866	0	0	
12	0	0	0	0	582	406	0	973	0	0	
13	0	0	0	0	609	407	0	1021	0	0	
14	0	0	0	0	625	410	0	1020	0	0	
15	0	0	0	0	627	416	0	958	0	0	
0	0	0	0	0	616	423	0	843	0	0	
1	0	0	0	0	591	432	0	682	0	0	
2	0	0	0	0	556	441	0	494	0	0	
3	0	0	0	0	514	450	0	296	0	0	
4	0	0	0	0	469	457	0	111	0	0	
5	0	0	0	0	427	462	0	0	0	0	
6	0	0	0	0	390	465	0	0	0	0	
7	0	0	0	0	362	466	0	0	0	0	
8	0	0	0	0	347	463	0	0	0	0	
9	0	0	0	0	345	459	0	0	0	0	
10	0	0	0	0	357	454	0	72	0	0	
11	0	0	0	0	382	446	0	194	0	0	
12	0	0	0	0	417	438	0	350	0	0	
13	0	0	0	0	457	431	0	521	0	0	
14	0	0	0	0	500	424	0	689	0	0	
15	0	0	0	0	543	420	0	833	0	0	
0	0	0	0	0	579	417	0	940	0	0	
1	0	0	0	0	606	416	0	997	0	0	
2	0	0	0	0	622	418	0	996	0	0	
3	0	0	0	0	624	423	0	935	0	0	
4	0	0	0	0	613	429	0	822	0	0	
5	0	0	0	0	591	436	0	666	0	0	
6	0	0	0	0	558	444	0	484	0	0	
7	0	0	0	0	520	453	0	295	0	0	
8	0	0	0	0	480	460	0	119	0	0	
9	0	0	0	0	443	466	0	0	0	0	
10	0	0	0	0	411	470	0	0	0	0	
11	0	0	0	0	387	471	0	0	0	0	
12	0	0	0	0	376	470	0	0	0	0	
13	0	0	0	0	378	467	0	10	0	0	
14	0	0	0	0	392	462	0	97	0	0	
15	0	0	0	0	420	456	0	229	0	0	
0	0	0	0	0	456	449	0	391	0	0	
1	0	0	0	0	499	443	0	568	0	0	
2	0	0	0	0	542	438	0	738	0	0	
3	0	0	0	0	583	433	0	882	0	0	
4	0	0	0	0	616	430	0	988	0	0	
5	0	0	0	0	639	430	0	1021	0	0	
6	0	0	0	0	650	432	0	1020	0	0	
7	0	0	0	0	647	435	0	961	0	0	
8	0	0	0	0	629	441	0	844	0	0	
9	0	0	0	0	600	448	0	684	0	0	
10	0	0	0	0	561	455	0	497	0	0	
11	0	0	0	0	516	462	0	302	0	0	
12	0	0	0	0	471	467	0	121	0	0	
13	0	0	0	0	427	471	0	0	0	0	
14	0	0	0	0	391	472	0	0	0	0	
15	0	0	0	0	365	472	0	0	0	0	
0	0	0	0	0	352	470	0	0	0	0	
1	0	0	0	0	354	465	0	11	0	0	
2	0	0	0	0	370	460	0	102	0	0	
3	0	0	0	0	401	455	0	240	0	0	
4	0	0	0	0	441	451	0	411	0	0	
5	0	0	0	0	489	447	0	595	0	0	
6	0	0	0	0	539	446	0	774	0	0	
7	0	0	0	0	586	446	0	927	0	0	
8	0	0	0	0	627	448	0	1020	0	0	
9	0	0	0	0	658	452	0	1021	0	0	
10	0	0	0	0	675	457	0	1021	0	0	
11	0	0	0	0	678	463	0	984	0	0	
12	0	0	0	0	665	471	0	877	0	0	
13	0	0	0	0	639	477	0	727	0	0	
14	0	0	0	0	601	484	0	549	0	0	
15	0	0	0	0	556	489	0	359	0	0	
0	0	0	0	0	507	492	0	180	0	0	
1	0	0	0	0	460	494	0	26	0	0	
2	0	0	0	0	418	493	0	0	0	0	
3	0	0	0	0	385	489	0	0	0	0	
4	0	0	0	0	366	483	0	0	0	0	
5	0	0	0	0	360	476	0	3	0	0	
6	0	0	0	0	368	467	0	84	0	0	
7	0	0	0	0	391	457	0	211	0	0	
8	0	0	0	0	423	448	0	370	0	0	
9	0	0	0	0	462	439	0	545	0	0	
10	0	0	0	0	504	431	0	716	0	0	
11	0	0	0	0	543	426	0	864	0	0	
12	0	0	0	0	578	423	0	974	0	0	
13	0	0	0	0	603	423	0	1021	0	0	
14	0	0	0	0	617	427	0	1020	0	0	
15	0	0	0	0	618	432	0	967	0	0	
0	0	0	0	0	607	440	0	854	0	0	
1	0	0	0	0	583	448	0	697	0	0	
2	0	0	0	0	550	457	0	514	0	0	
3	0	0	0	0	510	465	0	320	0	0	
4	0	0	0	0	468	471	0	138	0	0	
5	0	0	0	0	428	475	0	0	0	0	
6	0	0	0	0	392	477	0	0	0	0	
7	0	0	0	0	365	476	0	0	0	0	
8	0	0	0	0	350	473	0	0	0	0	
9	0	0	0	0	349	469	0	2	0	0	
10	0	0	0	0	361	463	0	81	0	0	
11	0	0	0	0	388	456	0	206	0	0	
12	0	0	0	0	426	450	0	363	0	0	
13	0	0	0	0	470	444	0	534	0	0	
14	0	0	0	0	516	440	0	701	0	0	
15	0	0	0	0	561	436	0	846	0	0	
0	0	0	0	0	600	436	0	951	0	0	
1	0	0	0	0	630	437	0	1007	0	0	
2	0	0	0	0	647	440	0	1005	0	0	
3	0	0	0	0	649	446	0	944	0	0	
4	0	0	0	0	637	452	0	827	0	0	
5	0	0	0	0	611	459	0	667	0	0	
6	0	0	0	0	575	465	0	480	0	0	
7	0	0	0	0	531	471	0	284	0	0	
8	0	0	0	0	484	476	0	99	0	0	
9	0	0	0	0	439	479	0	0	0	0	
10	0	0	0	0	400	479	0	0	0	0	
11	0	0	0	0	371	478	0	0	0	0	
12	0	0	0	0	354	475	0	0	0	0	
13	0	0	0	0	351	470	0	0	0	0	
14	0	0	0	0	364	463	0	74	0	0	
15	0	0	0	0	390	457	0	198	0	0	
0	0	0	0	0	428	450	0	354	0	0	
1	0	0	0	0	472	444	0	526	0	0	
2	0	0	0	0	519	440	0	695	0	0	
3	0	0	0	0	565	436	0	841	0	0	
4	0	0	0	0	605	435	0	947	0	0	
5	0	0	0	0	634	436	0	1006	0	0	
6	0	0	0	0	651	439	0	1007	0	0	
7	0	0	0	0	653	443	0	950	0	0	
8	0	0	0	0	640	448	0	839	0	0	
9	0	0	0	0	614	454	0	685	0	0	
10	0	0	0	0	578	460	0	504	0	0	
11	0	0	0	0	535	465	0	315	0	0	
12	0	0	0	0	489	470	0	137	0	0	
13	0	0	0	0	447	473	0	0	0	0	
14	0	0	0	0	411	475	0	0	0	0	
15	0	0	0	0	385	476	0	0	0	0	
0	0	0	0	0	371	473	0	0	0	0	
1	0	0	0	0	372	470	0	2	0	0	
2	0	0	0	0	388	464	0	80	0	0	
3	0	0	0	0	416	458	0	204	0	0	
4	0	0	0	0	455	451	0	359	0	0	
5	0	0	0	0	500	446	0	529	0	0	
6	0	0	0	0	547	441	0	696	0	0	
7	0	0	0	0	592	437	0	839	0	0	
8	0	0	0	0	630	436	0	944	0	0	
9	0	0	0	0	657	436	0	1000	0	0	
10	0	0	0	0	672	439	0	1000	0	0	
11	0	0	0	0	672	442	0	940	0	0	
12	0	0	0	0	657	447	0	825	0	0	
13	0	0	0	0	628	452	0	668	0	0	
14	0	0	0	0	588	458	0	484	0	0	
15	0	0	0	0	540	462	0	291	0	0	
0	0	0	0	0	489	465	0	112	0	0	
1	0	0	0	0	440	465	0	0	0	0	
2	0	0	0	0	395	464	0	0	0	0	
3	0	0	0	0	360	461	0	0	0	0	
4	0	0	0	0	337	456	0	0	0	0	
5	0	0	0	0	328	449	0	0	0	0	
6	0	0	0	0	335	441	0	78	0	0	
7	0	0	0	0	356	434	0	201	0	0	
8	0	0	0	0	390	427	0	356	0	0	
9	0	0	0	0	432	422	0	528	0	0	
10	0	0	0	0	479	420	0	697	0	0	
11	0	0	0	0	527	420	0	845	0	0	
12	0	0	0	0	571	423	0	953	0	0	
13	0	0	0	0	606	430	0	1015	0	0	
14	0	0	0	0	630	439	0	1017	0	0	
15	0	0	0	0	640	450	0	960	0	0	
0	0	0	0	0	638	463	0	849	0	0	
1	0	0	0	0	620	476	0	693	0	0	
2	0	0	0	0	591	488	0	509	0	0	
3	0	0	0	0	553	499	0	315	0	0	
4	0	0	0	0	511	507	0	131	0	0	
5	0	0	0	0	468	511	0	0	0	0	
6	0	0	0	0	428	512	0	0	0	0	
7	0	0	0	0	395	510	0	0	0	0	
8	0	0	0	0	373	504	0	0	0	0	
9	0	0	0	0	361	494	0	0	0	0	
10	0	0	0	0	361	482	0	56	0	0	
11	0	0	0	0	374	468	0	167	0	0	
12	0	0	0	0	396	454	0	312	0	0	
13	0	0	0	0	427	440	0	474	0	0	
14	0	0	0	0	461	428	0	635	0	0	
15	0	0	0	0	496	419	0	776	0	0	
0	0	0	0	0	528	412	0	882	0	0	
1	0	0	0	0	554	409	0	942	0	0	
2	0	0	0	0	572	409	0	947	0	0	
3	0	0	0	0	579	413	0	897	0	0	
4	0	0	0	0	576	420	0	794	0	0	
5	0	0	0	0	562	429	0	649	0	0	
6	0	0	0	0	539	439	0	479	0	0	
7	0	0	0	0	510	449	0	299	0	0	
8	0	0	0	0	478	457	0	129	0	0	
9	0	0	0	0	446	464	0	0	0	0	
10	0	0	0	0	419	470	0	0	0	0	
11	0	0	0	0	397	472	0	0	0	0	
12	0	0	0	0	385	471	0	0	0	0	
13	0	0	0	0	384	468	0	0	0	0	
14	0	0	0	0	393	464	0	62	0	0	
15	0	0	0	0	413	458	0	170	0	0	
0	0	0	0	0	441	451	0	307	0	0	
1	0	0	0	0	476	445	0	460	0	0	
2	0	0	0	0	511	440	0	608	0	0	
3	0	0	0	0	544	435	0	737	0	0	
4	0	0	0	0	573	432	0	832	0	0	
5	0	0	0	0	593	430	0	883	0	0	
6	0	0	0	0	602	430	0	883	0	0	
7	0	0	0	0	599	432	0	831	0	0	
8	0	0	0	0	585	434	0	732	0	0	
9	0	0	0	0	560	438	0	598	0	0	
10	0	0	0	0	528	443	0	443	0	0	
11	0	0	0	0	493	449	0	283	0	0	
12	0	0	0	0	457	455	0	134	0	0	
13	0	0	0	0	425	461	0	11	0	0	
14	0	0	0	0	400	466	0	0	0	0	
15	0	0	0	0	385	469	0	0	0	0	
0	0	0	0	0	380	471	0	0	0	0	
1	0	0	0	0	387	470	0	29	0	0	
2	0	0	0	0	406	468	0	121	0	0	
3	0	0	0	0	435	464	0	251	0	0	
4	0	0	0	0	470	459	0	406	0	0	
5	0	0	0	0	509	454	0	568	0	0	
6	0	0	0	0	547	448	0	719	0	0	
7	0	0	0	0	583	443	0	844	0	0	
8	0	0	0	0	611	440	0	926	0	0	
9	0	0	0	0	628	438	0	960	0	0	
10	0	0	0	0	635	439	0	938	0	0	
11	0	0	0	0	627	441	0	861	0	0	
12	0	0	0	0	606	445	0	736	0	0	
13	0	0	0	0	575	451	0	575	0	0	
14	0	0	0	0	534	456	0	395	0	0	
15	0	0	0	0	490	463	0	215	0	0	
0	0	0	0	0	445	468	0	52	0	0	
1	0	0	0	0	403	472	0	0	0	0	
2	0	0	0	0	369	474	0	0	0	0	
3	0	0	0	0	345	474	0	0	0	0	
4	0	0	0	0	335	472	0	0	0	0	
5	0	0	0	0	338	467	0	31	0	0	
6	0	0	0	0	356	461	0	131	0	0	
7	0	0	0	0	387	455	0	271	0	0	
8	0	0	0	0	429	448	0	436	0	0	
9	0	0	0	0	478	444	0	608	0	0	
10	0	0	0	0	529	440	0	768	0	0	
11	0	0	0	0	577	438	0	896	0	0	
12	0	0	0	0	620	439	0	984	0	0	
13	0	0	0	0	653	441	0	1018	0	0	
14	0	0	0	0	672	446	0	994	0	0	
15	0	0	0	0	676	452	0	911	0	0	
0	0	0	0	0	665	459	0	779	0	0	
1	0	0	0	0	639	467	0	608	0	0	
2	0	0	0	0	601	474	0	417	0	0	
3	0	0	0	0	556	481	0	225	0	0	
4	0	0	0	0	506	486	0	51	0	0	
5	0	0	0	0	458	488	0	0	0	0	
6	0	0	0	0	415	489	0	0	0	0	
7	0	0	0	0	382	488	0	0	0	0	
8	0	0	0	0	361	484	0	0	0	0	
9	0	0	0	0	355	479	0	32	0	0	
10	0	0	0	0	363	472	0	139	0	0	
11	0	0	0	0	386	465	0	291	0	0	
12	0	0	0	0	419	457	0	474	0	0	
13	0	0	0	0	460	450	0	666	0	0	
14	0	0	0	0	504	444	0	848	0	0	
15	0	0	0	0	545	440	0	1000	0	0	
0	0	0	0	0	581	437	0	1020	0	0	
1	0	0	0	0	607	437	0	1021	0	0	
2	0	0	0	0	620	438	0	1021	0	0	
3	0	0	0	0	620	440	0	984	0	0	
4	0	0	0	0	605	445	0	874	0	0	
5	0	0	0	0	579	450	0	720	0	0	
6	0	0	0	0	542	456	0	537	0	0	
7	0	0	0	0	499	461	0	343	0	0	
8	0	0	0	0	453	466	0	159	0	0	
9	0	0	0	0	411	470	0	3	0	0	
10	0	0	0	0	375	472	0	0	0	0	
11	0	0	0	0	349	473	0	0	0	0	
12	0	0	0	0	336	472	0	0	0	0	
13	0	0	0	0	338	470	0	1	0	0	
14	0	0	0	0	354	467	0	83	0	0	
15	0	0	0	0	383	462	0	214	0	0	
0	0	0	0	0	422	457	0	379	0	0	
1	0	0	0	0	467	451	0	562	0	0	
2	0	0	0	0	512	445	0	745	0	0	
3	0	0	0	0	553	440	0	904	0	0	
4	0	0	0	0	588	436	0	1020	0	0	
5	0	0	0	0	611	433	0	1021	0	0	
6	0	0	0	0	622	432	0	1021	0	0	
7	0	0	0	0	616	432	0	995	0	0	
8	0	0	0	0	598	434	0	894	0	0	
9	0	0	0	0	567	437	0	747	0	0	
10	0	0	0	0	525	441	0	568	0	0	
11	0	0	0	0	479	445	0	376	0	0	
12	0	0	0	0	431	449	0	188	0	0	
13	0	0	0	0	386	453	0	25	0	0	
14	0	0	0	0	349	455	0	0	0	0	
15	0	0	0	0	323	456	0	0	0	0	
0	0	0	0	0	307	455	0	0	0	0	
1	0	0	0	0	306	451	0	0	0	0	
2	0	0	0	0	318	446	0	49	0	0	
3	0	0	0	0	341	438	0	157	0	0	
4	0	0	0	0	373	428	0	300	0	0	
5	0	0	0	0	410	416	0	462	0	0	
6	0	0	0	0	447	405	0	625	0	0	
7	0	0	0	0	481	394	0	771	0	0	
8	0	0	0	0	509	383	0	883	0	0	
9	0	0	0	0	526	374	0	948	0	0	
10	0	0	0	0	529	364	0	960	0	0	
11	0	0	0	0	518	356	0	913	0	0	
12	0	0	0	0	492	349	0	814	0	0	
13	0	0	0	0	453	342	0	671	0	0	
14	0	0	0	0	404	335	0	500	0	0	
15	0	0	0	0	348	329	0	318	0	0	
0	0	0	0	0	291	323	0	147	0	0	
1	0	0	0	0	237	316	0	1	0	0	
2	0	0	0	0	190	309	0	0	0	0	
3	0	0	0	0	153	302	0	0	0	0	
4	0	0	0	0	130	295	0	0	0	0	
5	0	0	0	0	122	288	0	6	0	0	
6	0	0	0	0	131	280	0	87	0	0	
7	0	0	0	0	156	273	0	213	0	0	
8	0	0	0	0	195	268	0	370	0	0	
9	0	0	0	0	243	262	0	542	0	0	
10	0	0	0	0	296	259	0	708	0	0	
11	0	0	0	0	351	257	0	851	0	0	
12	0	0	0	0	399	258	0	955	0	0	
13	0	0	0	0	439	262	0	1009	0	0	
14	0	0	0	0	465	268	0	1004	0	0	
15	0	0	0	0	475	277	0	937	0	0	
0	0	0	0	0	470	289	0	816	0	0	
1	0	0	0	0	451	304	0	652	0	0	
2	0	0	0	0	420	321	0	460	0	0	
3	0	0	0	0	384	339	0	261	0	0	
4	0	0	0	0	345	358	0	76	0	0	
5	0	0	0	0	310	376	0	0	0	0	
6	0	0	0	0	282	393	0	0	0	0	
7	0	0	0	0	263	408	0	0	0	0	
8	0	0	0	0	257	419	0	0	0	0	
9	0	0	0	0	266	428	0	0	0	0	
10	0	0	0	0	288	432	0	62	0	0	
11	0	0	0	0	325	433	0	177	0	0	
12	0	0	0	0	371	432	0	326	0	0	
13	0	0	0	0	423	428	0	491	0	0	
14	0	0	0	0	477	424	0	653	0	0	
15	0	0	0	0	528	419	0	794	0	0	
0	0	0	0	0	572	416	0	897	0	0	
1	0	0	0	0	606	415	0	952	0	0	
2	0	0	0	0	626	415	0	951	0	0	
3	0	0	0	0	632	418	0	892	0	0	
4	0	0	0	0	624	424	0	781	0	0	
5	0	0	0	0	602	433	0	629	0	0	
6	0	0	0	0	570	444	0	453	0	0	
7	0	0	0	0	531	455	0	271	0	0	
8	0	0	0	0	491	468	0	102	0	0	
9	0	0	0	0	452	479	0	0	0	0	
10	0	0	0	0	419	489	0	0	0	0	
11	0	0	0	0	394	496	0	0	0	0	
12	0	0	0	0	380	501	0	0	0	0	
13	0	0	0	0	379	502	0	7	0	0	
14	0	0	0	0	390	499	0	87	0	0	
15	0	0	0	0	412	494	0	208	0	0	
0	0	0	0	0	444	487	0	358	0	0	
1	0	0	0	0	481	480	0	519	0	0	
2	0	0	0	0	521	473	0	672	0	0	
3	0	0	0	0	559	467	0	802	0	0	
4	0	0	0	0	593	462	0	893	0	0	
5	0	0	0	0	617	459	0	937	0	0	
6	0	0	0	0	630	457	0	925	0	0	
7	0	0	0	0	628	458	0	859	0	0	
8	0	0	0	0	615	461	0	743	0	0	
9	0	0	0	0	590	465	0	591	0	0	
10	0	0	0	0	556	471	0	419	0	0	
11	0	0	0	0	517	477	0	244	0	0	
12	0	0	0	0	476	483	0	86	0	0	
13	0	0	0	0	438	488	0	0	0	0	
14	0	0	0	0	407	492	0	0	0	0	
15	0	0	0	0	384	496	0	0	0	0	
0	0	0	0	0	375	497	0	0	0	0	
1	0	0	0	0	378	498	0	41	0	0	
2	0	0	0	0	395	497	0	150	0	0	
3	0	0	0	0	424	495	0	299	0	0	
4	0	0	0	0	463	493	0	476	0	0	
5	0	0	0	0	508	491	0	660	0	0	
6	0	0	0	0	554	489	0	833	0	0	
7	0	0	0	0	595	487	0	975	0	0	
8	0	0	0	0	631	484	0	1020	0	0	
9	0	0	0	0	654	482	0	1021	0	0	
10	0	0	0	0	665	481	0	1021	0	0	
11	0	0	0	0	662	481	0	957	0	0	
12	0	0	0	0	644	483	0	832	0	0	
13	0	0	0	0	615	486	0	667	0	0	
14	0	0	0	0	576	491	0	479	0	0	
15	0	0	0	0	531	496	0	285	0	0	
0	0	0	0	0	486	501	0	107	0	0	
1	0	0	0	0	444	505	0	0	0	0	
2	0	0	0	0	409	508	0	0	0	0	
3	0	0	0	0	384	509	0	0	0	0	
4	0	0	0	0	372	508	0	0	0	0	
5	0	0	0	0	375	506	0	31	0	0	
6	0	0	0	0	391	502	0	140	0	0	
7	0	0	0	0	421	496	0	294	0	0	
8	0	0	0	0	461	491	0	480	0	0	
9	0	0	0	0	507	485	0	679	0	0	
10	0	0	0	0	554	480	0	867	0	0	
11	0	0	0	0	599	477	0	1020	0	0	
12	0	0	0	0	638	476	0	1020	0	0	
13	0	0	0	0	666	476	0	1021	0	0	
14	0	0	0	0	681	476	0	1021	0	0	
15	0	0	0	0	682	479	0	1005	0	0	
0	0	0	0	0	669	482	0	908	0	0	
1	0	0	0	0	641	485	0	765	0	0	
2	0	0	0	0	604	489	0	590	0	0	
3	0	0	0	0	559	493	0	401	0	0	
4	0	0	0	0	513	496	0	217	0	0	
5	0	0	0	0	470	499	0	58	0	0	
6	0	0	0	0	435	501	0	0	0	0	
7	0	0	0	0	411	503	0	0	0	0	
8	0	0	0	0	400	503	0	0	0	0	
9	0	0	0	0	403	503	0	4	0	0	
10	0	0	0	0	422	501	0	88	0	0	
11	0	0	0	0	453	497	0	220	0	0	
12	0	0	0	0	492	494	0	388	0	0	
13	0	0	0	0	536	490	0	574	0	0	
14	0	0	0	0	582	486	0	758	0	0	
15	0	0	0	0	623	483	0	918	0	0	
0	0	0	0	0	658	481	0	1020	0	0	
1	0	0	0	0	682	481	0	1021	0	0	
2	0	0	0	0	693	482	0	1021	0	0	
3	0	0	0	0	691	483	0	1004	0	0	
4	0	0	0	0	673	486	0	911	0	0	
5	0	0	0	0	643	489	0	771	0	0	
6	0	0	0	0	602	492	0	598	0	0	
7	0	0	0	0	555	493	0	410	0	0	
8	0	0	0	0	504	494	0	225	0	0	
9	0	0	0	0	457	494	0	62	0	0	
10	0	0	0	0	416	491	0	0	0	0	
11	0	0	0	0	386	488	0	0	0	0	
12	0	0	0	0	368	485	0	0	0	0	
13	0	0	0	0	366	481	0	0	0	0	
14	0	0	0	0	379	476	0	66	0	0	
15	0	0	0	0	406	473	0	189	0	0	
0	0	0	0	0	445	470	0	348	0	0	
1	0	0	0	0	492	468	0	529	0	0	
2	0	0	0	0	541	467	0	711	0	0	
3	0	0	0	0	589	468	0	872	0	0	
4	0	0	0	0	632	470	0	998	0	0	
5	0	0	0	0	664	473	0	1021	0	0	
6	0	0	0	0	684	477	0	1021	0	0	
7	0	0	0	0	688	481	0	1003	0	0	
8	0	0	0	0	675	486	0	910	0	0	
9	0	0	0	0	649	491	0	771	0	0	
10	0	0	0	0	610	494	0	600	0	0	
11	0	0	0	0	563	496	0	412	0	0	
12	0	0	0	0	511	497	0	228	0	0	
13	0	0	0	0	461	496	0	67	0	0	
14	0	0	0	0	416	493	0	0	0	0	
15	0	0	0	0	382	488	0	0	0	0	
0	0	0	0	0	359	483	0	0	0	0	
1	0	0	0	0	353	478	0	0	0	0	
2	0	0	0	0	363	472	0	51	0	0	
3	0	0	0	0	389	468	0	160	0	0	
4	0	0	0	0	429	465	0	305	0	0	
5	0	0	0	0	478	464	0	472	0	0	
6	0	0	0	0	532	464	0	641	0	0	
7	0	0	0	0	587	468	0	793	0	0	
8	0	0	0	0	637	472	0	911	0	0	
9	0	0	0	0	676	479	0	983	0	0	
10	0	0	0	0	702	485	0	1001	0	0	
11	0	0	0	0	712	491	0	960	0	0	
12	0	0	0	0	703	497	0	864	0	0	
13	0	0	0	0	678	501	0	724	0	0	
14	0	0	0	0	638	505	0	552	0	0	
15	0	0	0	0	588	507	0	368	0	0	
0	0	0	0	0	532	508	0	190	0	0	
1	0	0	0	0	476	508	0	35	0	0	
2	0	0	0	0	427	505	0	0	0	0	
3	0	0	0	0	387	502	0	0	0	0	
4	0	0	0	0	361	497	0	0	0	0	
5	0	0	0	0	351	490	0	0	0	0	
6	0	0	0	0	358	483	0	68	0	0	
7	0	0	0	0	380	475	0	187	0	0	
8	0	0	0	0	415	468	0	339	0	0	
9	0	0	0	0	459	462	0	508	0	0	
10	0	0	0	0	507	458	0	677	0	0	
11	0	0	0	0	556	456	0	827	0	0	
12	0	0	0	0	601	456	0	939	0	0	
13	0	0	0	0	638	460	0	1006	0	0	
14	0	0	0	0	663	467	0	1016	0	0	
15	0	0	0	0	675	476	0	968	0	0	
0	0	0	0	0	673	487	0	866	0	0	
1	0	0	0	0	657	499	0	719	0	0	
2	0	0	0	0	630	511	0	543	0	0	
3	0	0	0	0	593	520	0	356	0	0	
4	0	0	0	0	551	527	0	177	0	0	
5	0	0	0	0	508	531	0	24	0	0	
6	0	0	0	0	467	531	0	0	0	0	
7	0	0	0	0	434	527	0	0	0	0	
8	0	0	0	0	409	519	0	0	0	0	
9	0	0	0	0	396	507	0	0	0	0	
10	0	0	0	0	398	494	0	76	0	0	
11	0	0	0	0	413	481	0	200	0	0	
12	0	0	0	0	440	468	0	358	0	0	
13	0	0	0	0	475	458	0	533	0	0	
14	0	0	0	0	515	451	0	708	0	0	
15	0	0	0	0	556	446	0	862	0	0	
0	0	0	0	0	592	444	0	978	0	0	
1	0	0	0	0	621	446	0	1021	0	0	
2	0	0	0	0	639	451	0	1021	0	0	
3	0	0	0	0	643	457	0	987	0	0	
4	0	0	0	0	635	464	0	886	0	0	
5	0	0	0	0	612	472	0	739	0	0	
6	0	0	0	0	578	480	0	561	0	0	
7	0	0	0	0	537	487	0	370	0	0	
8	0	0	0	0	494	492	0	187	0	0	
9	0	0	0	0	451	496	0	28	0	0	
10	0	0	0	0	413	497	0	0	0	0	
11	0	0	0	0	384	496	0	0	0	0	
12	0	0	0	0	367	493	0	0	0	0	
13	0	0	0	0	364	487	0	0	0	0	
14	0	0	0	0	375	481	0	79	0	0	
15	0	0	0	0	400	475	0	206	0	0	
0	0	0	0	0	436	470	0	367	0	0	
1	0	0	0	0	481	466	0	545	0	0	
2	0	0	0	0	529	463	0	720	0	0	
3	0	0	0	0	578	463	0	873	0	0	
4	0	0	0	0	622	466	0	986	0	0	
5	0	0	0	0	658	471	0	1021	0	0	
6	0	0	0	0	682	477	0	1021	0	0	
7	0	0	0	0	692	484	0	974	0	0	
8	0	0	0	0	688	492	0	863	0	0	
9	0	0	0	0	670	498	0	706	0	0	
10	0	0	0	0	639	504	0	521	0	0	
11	0	0	0	0	599	508	0	323	0	0	
12	0	0	0	0	553	511	0	135	0	0	
13	0	0	0	0	509	511	0	0	0	0	
14	0	0	0	0	469	510	0	0	0	0	
15	0	0	0	0	438	507	0	0	0	0	
0	0	0	0	0	419	502	0	0	0	0	
1	0	0	0	0	414	495	0	0	0	0	
2	0	0	0	0	425	487	0	45	0	0	
3	0	0	0	0	448	480	0	152	0	0	
4	0	0	0	0	483	472	0	295	0	0	
5	0	0	0	0	524	463	0	457	0	0	
6	0	0	0	0	568	455	0	619	0	0	
7	0	0	0	0	612	449	0	764	0	0	
8	0	0	0	0	649	445	0	874	0	0	
9	0	0	0	0	678	442	0	938	0	0	
10	0	0	0	0	694	441	0	947	0	0	
11	0	0	0	0	696	444	0	900	0	0	
12	0	0	0	0	684	448	0	800	0	0	
13	0	0	0	0	659	454	0	655	0	0	
14	0	0	0	0	623	461	0	484	0	0	
15	0	0	0	0	580	469	0	300	0	0	
0	0	0	0	0	534	476	0	126	0	0	
1	0	0	0	0	490	482	0	0	0	0	
2	0	0	0	0	452	487	0	0	0	0	
3	0	0	0	0	423	490	0	0	0	0	
4	0	0	0	0	408	492	0	0	0	0	
5	0	0	0	0	406	492	0	0	0	0	
6	0	0	0	0	419	491	0	48	0	0	
7	0	0	0	0	446	489	0	153	0	0	
8	0	0	0	0	483	487	0	289	0	0	
9	0	0	0	0	526	485	0	444	0	0	
10	0	0	0	0	573	484	0	598	0	0	
11	0	0	0	0	617	483	0	736	0	0	
12	0	0	0	0	655	482	0	839	0	0	
13	0	0	0	0	683	483	0	900	0	0	
14	0	0	0	0	698	483	0	908	0	0	
15	0	0	0	0	698	483	0	862	0	0	
0	0	0	0	0	683	484	0	766	0	0	
1	0	0	0	0	653	484	0	630	0	0	
2	0	0	0	0	613	484	0	469	0	0	
3	0	0	0	0	566	484	0	299	0	0	
4	0	0	0	0	516	483	0	140	0	0	
5	0	0	0	0	468	481	0	6	0	0	
6	0	0	0	0	428	480	0	0	0	0	
7	0	0	0	0	399	477	0	0	0	0	
8	0	0	0	0	381	473	0	0	0	0	
9	0	0	0	0	378	470	0	10	0	0	
10	0	0	0	0	390	465	0	91	0	0	
11	0	0	0	0	414	460	0	214	0	0	
12	0	0	0	0	449	455	0	366	0	0	
13	0	0	0	0	491	451	0	531	0	0	
14	0	0	0	0	536	449	0	692	0	0	
15	0	0	0	0	581	449	0	829	0	0	
0	0	0	0	0	621	451	0	927	0	0	
1	0	0	0	0	653	455	0	976	0	0	
2	0	0	0	0	673	460	0	970	0	0	
3	0	0	0	0	679	467	0	906	0	0	
4	0	0	0	0	673	476	0	791	0	0	
5	0	0	0	0	653	483	0	635	0	0	
6	0	0	0	0	623	492	0	455	0	0	
7	0	0	0	0	584	499	0	270	0	0	
8	0	0	0	0	541	504	0	99	0	0	
9	0	0	0	0	500	508	0	0	0	0	
10	0	0	0	0	463	510	0	0	0	0	
11	0	0	0	0	434	509	0	0	0	0	
12	0	0	0	0	415	505	0	0	0	0	
13	0	0	0	0	410	499	0	16	0	0	
14	0	0	0	0	418	492	0	108	0	0	
15	0	0	0	0	440	485	0	244	0	0	
0	0	0	0	0	473	478	0	411	0	0	
1	0	0	0	0	512	472	0	590	0	0	
2	0	0	0	0	556	467	0	761	0	0	
3	0	0	0	0	599	465	0	904	0	0	
4	0	0	0	0	637	465	0	1007	0	0	
5	0	0	0	0	666	467	0	1021	0	0	
6	0	0	0	0	684	472	0	1020	0	0	
7	0	0	0	0	689	479	0	956	0	0	
8	0	0	0	0	679	486	0	835	0	0	
9	0	0	0	0	657	494	0	671	0	0	
10	0	0	0	0	623	502	0	482	0	0	
11	0	0	0	0	582	508	0	286	0	0	
12	0	0	0	0	537	514	0	105	0	0	
13	0	0	0	0	494	517	0	0	0	0	
14	0	0	0	0	457	519	0	0	0	0	
15	0	0	0	0	428	518	0	0	0	0	
0	0	0	0	0	410	514	0	0	0	0	
1	0	0	0	0	406	508	0	6	0	0	
2	0	0	0	0	415	501	0	91	0	0	
3	0	0	0	0	437	494	0	222	0	0	
4	0	0	0	0	470	485	0	385	0	0	
5	0	0	0	0	510	477	0	562	0	0	
6	0	0	0	0	553	472	0	732	0	0	
7	0	0	0	0	596	467	0	877	0	0	
8	0	0	0	0	636	464	0	982	0	0	
9	0	0	0	0	668	465	0	1021	0	0	
10	0	0	0	0	688	468	0	1020	0	0	
11	0	0	0	0	697	473	0	954	0	0	
12	0	0	0	0	692	480	0	834	0	0	
13	0	0	0	0	675	489	0	671	0	0	
14	0	0	0	0	647	498	0	481	0	0	
15	0	0	0	0	611	507	0	284	0	0	
0	0	0	0	0	572	514	0	101	0	0	
1	0	0	0	0	532	519	0	0	0	0	
2	0	0	0	0	497	523	0	0	0	0	
3	0	0	0	0	468	524	0	0	0	0	
4	0	0	0	0	449	521	0	0	0	0	
5	0	0	0	0	443	517	0	7	0	0	
6	0	0	0	0	450	510	0	94	0	0	
7	0	0	0	0	468	502	0	227	0	0	
8	0	0	0	0	498	493	0	392	0	0	
9	0	0	0	0	533	484	0	571	0	0	
10	0	0	0	0	572	477	0	746	0	0	
11	0	0	0	0	610	471	0	896	0	0	
12	0	0	0	0	643	467	0	1006	0	0	
13	0	0	0	0	668	464	0	1021	0	0	
14	0	0	0	0	683	464	0	1021	0	0	
15	0	0	0	0	683	466	0	973	0	0	
0	0	0	0	0	671	470	0	861	0	0	
1	0	0	0	0	647	474	0	704	0	0	
2	0	0	0	0	612	479	0	520	0	0	
3	0	0	0	0	572	484	0	327	0	0	
4	0	0	0	0	530	489	0	145	0	0	
5	0	0	0	0	491	493	0	0	0	0	
6	0	0	0	0	459	495	0	0	0	0	
7	0	0	0	0	436	497	0	0	0	0	
8	0	0	0	0	427	497	0	0	0	0	
9	0	0	0	0	431	495	0	5	0	0	
10	0	0	0	0	449	493	0	89	0	0	
11	0	0	0	0	480	490	0	219	0	0	
12	0	0	0	0	520	487	0	383	0	0	
13	0	0	0	0	566	484	0	563	0	0	
14	0	0	0	0	612	482	0	738	0	0	
15	0	0	0	0	655	480	0	890	0	0	
0	0	0	0	0	692	480	0	1003	0	0	
1	0	0	0	0	718	481	0	1021	0	0	
2	0	0	0	0	732	483	0	1021	0	0	
3	0	0	0	0	731	485	0	980	0	0	
4	0	0	0	0	717	489	0	874	0	0	
5	0	0	0	0	689	494	0	724	0	0	
6	0	0	0	0	652	499	0	545	0	0	
7	0	0	0	0	608	504	0	357	0	0	
8	0	0	0	0	561	508	0	177	0	0	
9	0	0	0	0	518	511	0	24	0	0	
10	0	0	0	0	481	514	0	0	0	0	
11	0	0	0	0	454	515	0	0	0	0	
12	0	0	0	0	440	514	0	0	0	0	
13	0	0	0	0	440	512	0	6	0	0	
14	0	0	0	0	454	508	0	89	0	0	
15	0	0	0	0	481	503	0	219	0	0	
0	0	0	0	0	517	497	0	384	0	0	
1	0	0	0	0	559	491	0	565	0	0	
2	0	0	0	0	602	486	0	743	0	0	
3	0	0	0	0	642	481	0	897	0	0	
4	0	0	0	0	676	477	0	1014	0	0	
5	0	0	0	0	700	475	0	1021	0	0	
6	0	0	0	0	712	474	0	1021	0	0	
7	0	0	0	0	709	475	0	988	0	0	
8	0	0	0	0	692	478	0	883	0	0	
9	0	0	0	0	663	481	0	733	0	0	
10	0	0	0	0	623	487	0	552	0	0	
11	0	0	0	0	575	491	0	359	0	0	
12	0	0	0	0	527	496	0	174	0	0	
13	0	0	0	0	480	499	0	14	0	0	
14	0	0	0	0	441	501	0	0	0	0	
15	0	0	0	0	412	501	0	0	0	0	
0	0	0	0	0	398	500	0	0	0	0	
1	0	0	0	0	399	498	0	0	0	0	
2	0	0	0	0	415	494	0	64	0	0	
3	0	0	0	0	447	490	0	183	0	0	
4	0	0	0	0	489	487	0	336	0	0	
5	0	0	0	0	539	483	0	508	0	0	
6	0	0	0	0	591	480	0	679	0	0	
7	0	0	0	0	641	479	0	830	0	0	
8	0	0	0	0	684	479	0	944	0	0	
9	0	0	0	0	716	480	0	1010	0	0	
10	0	0	0	0	734	482	0	1019	0	0	
11	0	0	0	0	737	486	0	970	0	0	
12	0	0	0	0	725	490	0	865	0	0	
13	0	0	0	0	698	495	0	715	0	0	
14	0	0	0	0	659	499	0	536	0	0	
15	0	0	0	0	611	504	0	345	0	0	
0	0	0	0	0	560	507	0	164	0	0	
1	0	0	0	0	511	509	0	10	0	0	
2	0	0	0	0	465	509	0	0	0	0	
3	0	0	0	0	429	507	0	0	0	0	
4	0	0	0	0	406	503	0	0	0	0	
5	0	0	0	0	396	498	0	14	0	0	
6	0	0	0	0	402	492	0	108	0	0	
7	0	0	0	0	422	486	0	252	0	0	
8	0	0	0	0	454	479	0	430	0	0	
9	0	0	0	0	494	473	0	624	0	0	
10	0	0	0	0	537	468	0	814	0	0	
11	0	0	0	0	580	464	0	976	0	0	
12	0	0	0	0	618	462	0	1020	0	0	
13	0	0	0	0	648	461	0	1021	0	0	
14	0	0	0	0	668	463	0	1021	0	0	
15	0	0	0	0	675	467	0	1010	0	0	
0	0	0	0	0	671	474	0	918	0	0	
1	0	0	0	0	655	481	0	780	0	0	
2	0	0	0	0	629	490	0	610	0	0	
3	0	0	0	0	595	498	0	425	0	0	
4	0	0	0	0	559	505	0	243	0	0	
5	0	0	0	0	522	510	0	86	0	0	
6	0	0	0	0	489	512	0	0	0	0	
7	0	0	0	0	463	512	0	0	0	0	
8	0	0	0	0	447	508	0	0	0	0	
9	0	0	0	0	443	502	0	5	0	0	
10	0	0	0	0	450	494	0	88	0	0	
11	0	0	0	0	471	485	0	218	0	0	
12	0	0	0	0	502	477	0	384	0	0	
13	0	0	0	0	539	469	0	568	0	0	
14	0	0	0	0	580	463	0	748	0	0	
15	0	0	0	0	620	459	0	906	0	0	
0	0	0	0	0	656	457	0	1020	0	0	
1	0	0	0	0	684	458	0	1021	0	0	
2	0	0	0	0	700	462	0	1021	0	0	
3	0	0	0	0	704	467	0	997	0	0	
4	0	0	0	0	696	474	0	900	0	0	
5	0	0	0	0	674	483	0	759	0	0	
6	0	0	0	0	641	492	0	588	0	0	
7	0	0	0	0	602	499	0	406	0	0	
8	0	0	0	0	559	506	0	231	0	0	
9	0	0	0	0	515	511	0	83	0	0	
10	0	0	0	0	477	512	0	0	0	0	
11	0	0	0	0	447	512	0	0	0	0	
12	0	0	0	0	427	508	0	0	0	0	
13	0	0	0	0	421	502	0	36	0	0	
14	0	0	0	0	428	495	0	145	0	0	
15	0	0	0	0	448	487	0	302	0	0	
0	0	0	0	0	479	480	0	491	0	0	
1	0	0	0	0	518	473	0	694	0	0	
2	0	0	0	0	560	467	0	888	0	0	
3	0	0	0	0	601	464	0	1021	0	0	
4	0	0	0	0	638	463	0	1020	0	0	
5	0	0	0	0	665	464	0	1021	0	0	
6	0	0	0	0	681	468	0	1021	0	0	
7	0	0	0	0	684	474	0	1020	0	0	
8	0	0	0	0	673	481	0	953	0	0	
9	0	0	0	0	652	490	0	834	0	0	
10	0	0	0	0	619	499	0	682	0	0	
11	0	0	0	0	579	508	0	512	0	0	
12	0	0	0	0	536	514	0	343	0	0	
13	0	0	0	0	493	519	0	192	0	0	
14	0	0	0	0	457	520	0	73	0	0	
15	0	0	0	0	428	520	0	0	0	0	
0	0	0	0	0	412	517	0	0	0	0	
1	0	0	0	0	408	511	0	23	0	0	
2	0	0	0	0	419	505	0	111	0	0	
3	0	0	0	0	443	497	0	246	0	0	
4	0	0	0	0	478	490	0	415	0	0	
5	0	0	0	0	521	483	0	601	0	0	
6	0	0	0	0	568	477	0	784	0	0	
7	0	0	0	0	613	473	0	942	0	0	
8	0	0	0	0	654	471	0	1020	0	0	
9	0	0	0	0	686	472	0	1021	0	0	
10	0	0	0	0	706	473	0	1021	0	0	
11	0	0	0	0	711	477	0	1007	0	0	
12	0	0	0	0	702	482	0	919	0	0	
13	0	0	0	0	679	487	0	785	0	0	
14	0	0	0	0	642	493	0	622	0	0	
15	0	0	0	0	597	498	0	445	0	0	
0	0	0	0	0	547	502	0	272	0	0	
1	0	0	0	0	498	505	0	122	0	0	
2	0	0	0	0	453	505	0	8	0	0	
3	0	0	0	0	417	504	0	0	0	0	
4	0	0	0	0	394	501	0	0	0	0	
5	0	0	0	0	384	497	0	22	0	0	
6	0	0	0	0	391	491	0	117	0	0	
7	0	0	0	0	411	484	0	259	0	0	
8	0	0	0	0	444	478	0	435	0	0	
9	0	0	0	0	486	472	0	626	0	0	
10	0	0	0	0	531	467	0	811	0	0	
11	0	0	0	0	576	465	0	970	0	0	
12	0	0	0	0	618	464	0	1020	0	0	
13	0	0	0	0	651	466	0	1021	0	0	
14	0	0	0	0	673	470	0	1021	0	0	
15	0	0	0	0	681	475	0	1009	0	0	
0	0	0	0	0	675	482	0	920	0	0	
1	0	0	0	0	656	490	0	784	0	0	
2	0	0	0	0	624	497	0	617	0	0	
3	0	0	0	0	584	504	0	436	0	0	
4	0	0	0	0	539	508	0	257	0	0	
5	0	0	0	0	494	510	0	100	0	0	
6	0	0	0	0	452	510	0	0	0	0	
7	0	0	0	0	419	507	0	0	0	0	
8	0	0	0	0	396	503	0	0	0	0	
9	0	0	0	0	387	496	0	3	0	0	
10	0	0	0	0	391	488	0	82	0	0	
11	0	0	0	0	411	480	0	210	0	0	
12	0	0	0	0	442	472	0	373	0	0	
13	0	0	0	0	481	465	0	555	0	0	
14	0	0	0	0	524	460	0	736	0	0	
15	0	0	0	0	568	457	0	896	0	0	
0	0	0	0	0	607	457	0	1018	0	0	
1	0	0	0	0	637	458	0	1021	0	0	
2	0	0	0	0	658	463	0	1021	0	0	
3	0	0	0	0	666	469	0	1005	0	0	
4	0	0	0	0	660	477	0	913	0	0	
5	0	0	0	0	643	486	0	775	0	0	
6	0	0	0	0	615	495	0	607	0	0	
7	0	0	0	0	581	504	0	424	0	0	
8	0	0	0	0	544	512	0	246	0	0	
9	0	0	0	0	508	519	0	92	0	0	
10	0	0	0	0	477	524	0	0	0	0	
11	0	0	0	0	454	525	0	0	0	0	
12	0	0	0	0	440	523	0	0	0	0	
13	0	0	0	0	438	518	0	15	0	0	
14	0	0	0	0	448	510	0	108	0	0	
15	0	0	0	0	469	501	0	249	0	0	
0	0	0	0	0	499	491	0	426	0	0	
1	0	0	0	0	533	480	0	619	0	0	
2	0	0	0	0	570	471	0	808	0	0	
3	0	0	0	0	605	464	0	971	0	0	
4	0	0	0	0	636	458	0	1020	0	0	
5	0	0	0	0	658	455	0	1021	0	0	
6	0	0	0	0	670	456	0	1021	0	0	
7	0	0	0	0	670	459	0	1010	0	0	
8	0	0	0	0	656	464	0	920	0	0	
9	0	0	0	0	632	471	0	783	0	0	
10	0	0	0	0	599	479	0	615	0	0	
11	0	0	0	0	559	487	0	432	0	0	
12	0	0	0	0	516	494	0	252	0	0	
13	0	0	0	0	477	499	0	95	0	0	
14	0	0	0	0	443	502	0	0	0	0	
15	0	0	0	0	417	503	0	0	0	0	
0	0	0	0	0	404	502	0	0	0	0	
1	0	0	0	0	403	498	0	2	0	0	
2	0	0	0	0	416	492	0	80	0	0	
3	0	0	0	0	441	486	0	207	0	0	
4	0	0	0	0	477	479	0	370	0	0	
5	0	0	0	0	519	473	0	552	0	0	
6	0	0	0	0	564	468	0	733	0	0	
7	0	0	0	0	609	465	0	893	0	0	
8	0	0	0	0	647	463	0	1015	0	0	
9	0	0	0	0	679	464	0	1021	0	0	
10	0	0	0	0	699	467	0	1021	0	0	
11	0	0	0	0	704	472	0	1005	0	0	
12	0	0	0	0	696	477	0	915	0	0	
13	0	0	0	0	674	483	0	778	0	0	
14	0	0	0	0	639	489	0	609	0	0	
15	0	0	0	0	596	494	0	427	0	0	
0	0	0	0	0	548	497	0	247	0	0	
1	0	0	0	0	502	499	0	90	0	0	
2	0	0	0	0	460	500	0	0	0	0	
3	0	0	0	0	428	499	0	0	0	0	
4	0	0	0	0	408	497	0	0	0	0	
5	0	0	0	0	403	494	0	3	0	0	
6	0	0	0	0	414	490	0	83	0	0	
7	0	0	0	0	438	485	0	212	0	0	
8	0	0	0	0	474	481	0	377	0	0	
9	0	0	0	0	517	476	0	560	0	0	
10	0	0	0	0	563	473	0	743	0	0	
11	0	0	0	0	609	472	0	905	0	0	
12	0	0	0	0	650	471	0	1020	0	0	
13	0	0	0	0	681	472	0	1021	0	0	
14	0	0	0	0	701	475	0	1020	0	0	
15	0	0	0	0	705	478	0	1007	0	0	
0	0	0	0	0	697	483	0	918	0	0	
1	0	0	0	0	675	487	0	781	0	0	
2	0	0	0	0	640	492	0	613	0	0	
3	0	0	0	0	599	497	0	431	0	0	
4	0	0	0	0	553	500	0	253	0	0	
5	0	0	0	0	509	503	0	98	0	0	
6	0	0	0	0	470	505	0	0	0	0	
7	0	0	0	0	441	505	0	0	0	0	
8	0	0	0	0	423	504	0	0	0	0	
9	0	0	0	0	420	501	0	13	0	0	
10	0	0	0	0	432	497	0	101	0	0	
11	0	0	0	0	457	494	0	238	0	0	
12	0	0	0	0	494	490	0	410	0	0	
13	0	0	0	0	539	486	0	598	0	0	
14	0	0	0	0	587	483	0	783	0	0	
15	0	0	0	0	633	481	0	943	0	0	
0	0	0	0	0	673	480	0	1020	0	0	
1	0	0	0	0	703	479	0	1021	0	0	
2	0	0	0	0	719	479	0	1021	0	0	
3	0	0	0	0	720	478	0	1007	0	0	
4	0	0	0	0	705	479	0	914	0	0	
5	0	0	0	0	675	480	0	775	0	0	
6	0	0	0	0	633	481	0	604	0	0	
7	0	0	0	0	583	482	0	419	0	0	
8	0	0	0	0	529	483	0	237	0	0	
9	0	0	0	0	478	484	0	81	0	0	
10	0	0	0	0	433	484	0	0	0	0	
11	0	0	0	0	399	484	0	0	0	0	
12	0	0	0	0	379	485	0	0	0	0	
13	0	0	0	0	376	485	0	14	0	0	
14	0	0	0	0	390	485	0	108	0	0	
15	0	0	0	0	421	485	0	252	0	0	
0	0	0	0	0	463	484	0	432	0	0	
1	0	0	0	0	515	484	0	630	0	0	
2	0	0	0	0	571	484	0	827	0	0	
3	0	0	0	0	625	483	0	998	0	0	
4	0	0	0	0	672	483	0	1020	0	0	
5	0	0	0	0	708	483	0	1021	0	0	
6	0	0	0	0	731	484	0	1021	0	0	
7	0	0	0	0	736	485	0	1020	0	0	
8	0	0	0	0	726	487	0	954	0	0	
9	0	0	0	0	700	491	0	831	0	0	
10	0	0	0	0	662	495	0	674	0	0	
11	0	0	0	0	614	498	0	497	0	0	
12	0	0	0	0	563	501	0	319	0	0	
13	0	0	0	0	511	503	0	159	0	0	
14	0	0	0	0	466	504	0	31	0	0	
15	0	0	0	0	431	503	0	0	0	0	
0	0	0	0	0	408	500	0	0	0	0	
1	0	0	0	0	401	496	0	3	0	0	
2	0	0	0	0	409	492	0	81	0	0	
3	0	0	0	0	433	486	0	211	0	0	
4	0	0	0	0	469	480	0	378	0	0	
5	0	0	0	0	513	475	0	567	0	0	
6	0	0	0	0	562	471	0	757	0	0	
7	0	0	0	0	610	469	0	927	0	0	
8	0	0	0	0	653	468	0	1020	0	0	
9	0	0	0	0	688	470	0	1021	0	0	
10	0	0	0	0	710	473	0	1021	0	0	
11	0	0	0	0	718	477	0	1020	0	0	
12	0	0	0	0	710	482	0	951	0	0	
13	0	0	0	0	688	488	0	828	0	0	
14	0	0	0	0	654	493	0	671	0	0	
15	0	0	0	0	610	498	0	496	0	0	
0	0	0	0	0	562	502	0	319	0	0	
1	0	0	0	0	513	503	0	159	0	0	
2	0	0	0	0	469	503	0	33	0	0	
3	0	0	0	0	433	501	0	0	0	0	
4	0	0	0	0	408	497	0	0	0	0	
5	0	0	0	0	396	491	0	5	0	0	
6	0	0	0	0	399	484	0	84	0	0	
7	0	0	0	0	417	477	0	215	0	0	
8	0	0	0	0	447	471	0	384	0	0	
9	0	0	0	0	486	464	0	573	0	0	
10	0	0	0	0	529	460	0	763	0	0	
11	0	0	0	0	574	457	0	932	0	0	
12	0	0	0	0	615	456	0	1020	0	0	
13	0	0	0	0	648	457	0	1021	0	0	
14	0	0	0	0	670	459	0	1021	0	0	
15	0	0	0	0	678	463	0	1020	0	0	
0	0	0	0	0	671	468	0	947	0	0	
1	0	0	0	0	653	475	0	823	0	0	
2	0	0	0	0	623	481	0	663	0	0	
3	0	0	0	0	583	486	0	484	0	0	
4	0	0	0	0	541	491	0	307	0	0	
5	0	0	0	0	499	495	0	148	0	0	
6	0	0	0	0	462	496	0	23	0	0	
7	0	0	0	0	433	497	0	0	0	0	
8	0	0	0	0	416	495	0	0	0	0	
9	0	0	0	0	413	492	0	9	0	0	
10	0	0	0	0	425	487	0	93	0	0	
11	0	0	0	0	451	483	0	228	0	0	
12	0	0	0	0	489	478	0	399	0	0	
13	0	0	0	0	534	474	0	590	0	0	
14	0	0	0	0	582	471	0	781	0	0	
15	0	0	0	0	629	469	0	949	0	0	
0	0	0	0	0	671	469	0	1020	0	0	
1	0	0	0	0	703	471	0	1021	0	0	
2	0	0	0	0	721	475	0	1021	0	0	
3	0	0	0	0	726	480	0	1021	0	0	
4	0	0	0	0	714	486	0	951	0	0	
5	0	0	0	0	688	492	0	829	0	0	
6	0	0	0	0	647	497	0	672	0	0	
7	0	0	0	0	599	502	0	498	0	0	
8	0	0	0	0	546	505	0	322	0	0	
9	0	0	0	0	493	507	0	165	0	0	
10	0	0	0	0	446	508	0	40	0	0	
11	0	0	0	0	409	507	0	0	0	0	
12	0	0	0	0	385	503	0	0	0	0	
13	0	0	0	0	377	499	0	5	0	0	
14	0	0	0	0	386	493	0	81	0	0	
15	0	0	0	0	409	486	0	207	0	0	
0	0	0	0	0	446	478	0	370	0	0	
1	0	0	0	0	490	471	0	553	0	0	
2	0	0	0	0	538	464	0	736	0	0	
3	0	0	0	0	587	459	0	899	0	0	
4	0	0	0	0	631	456	0	1020	0	0	
5	0	0	0	0	665	456	0	1020	0	0	
6	0	0	0	0	688	458	0	1021	0	0	
7	0	0	0	0	697	462	0	1012	0	0	
8	0	0	0	0	691	467	0	927	0	0	
9	0	0	0	0	671	475	0	794	0	0	
10	0	0	0	0	639	481	0	628	0	0	
11	0	0	0	0	599	488	0	448	0	0	
12	0	0	0	0	555	494	0	269	0	0	
13	0	0	0	0	510	498	0	113	0	0	
14	0	0	0	0	470	500	0	0	0	0	
15	0	0	0	0	437	501	0	0	0	0	
0	0	0	0	0	416	500	0	0	0	0	
1	0	0	0	0	408	497	0	10	0	0	
2	0	0	0	0	415	494	0	97	0	0	
3	0	0	0	0	435	488	0	233	0	0	
4	0	0	0	0	467	483	0	405	0	0	
5	0	0	0	0	507	478	0	594	0	0	
6	0	0	0	0	549	473	0	780	0	0	
7	0	0	0	0	591	470	0	942	0	0	
8	0	0	0	0	628	467	0	1020	0	0	
9	0	0	0	0	657	467	0	1021	0	0	
10	0	0	0	0	675	468	0	1021	0	0	
11	0	0	0	0	680	471	0	1008	0	0	
12	0	0	0	0	671	475	0	916	0	0	
13	0	0	0	0	652	480	0	779	0	0	
14	0	0	0	0	622	486	0	610	0	0	
15	0	0	0	0	585	491	0	427	0	0	
0	0	0	0	0	546	497	0	247	0	0	
1	0	0	0	0	509	502	0	91	0	0	
2	0	0	0	0	478	505	0	0	0	0	
3	0	0	0	0	455	507	0	0	0	0	
4	0	0	0	0	443	506	0	0	0	0	
5	0	0	0	0	444	504	0	7	0	0	
6	0	0	0	0	457	499	0	91	0	0	
7	0	0	0	0	483	493	0	223	0	0	
8	0	0	0	0	517	487	0	390	0	0	
9	0	0	0	0	556	480	0	574	0	0	
10	0	0	0	0	596	474	0	754	0	0	
11	0	0	0	0	635	469	0	910	0	0	
12	0	0	0	0	667	465	0	1020	0	0	
13	0	0	0	0	687	462	0	1021	0	0	
14	0	0	0	0	697	460	0	1021	0	0	
15	0	0	0	0	692	460	0	991	0	0	
0	0	0	0	0	675	463	0	887	0	0	
1	0	0	0	0	644	466	0	739	0	0	
2	0	0	0	0	605	470	0	561	0	0	
3	0	0	0	0	560	474	0	372	0	0	
4	0	0	0	0	514	479	0	193	0	0	
5	0	0	0	0	472	484	0	39	0	0	
6	0	0	0	0	437	488	0	0	0	0	
7	0	0	0	0	414	491	0	0	0	0	
8	0	0	0	0	403	492	0	0	0	0	
9	0	0	0	0	407	492	0	10	0	0	
10	0	0	0	0	424	491	0	98	0	0	
11	0	0	0	0	455	488	0	232	0	0	
12	0	0	0	0	495	484	0	400	0	0	
13	0	0	0	0	539	480	0	584	0	0	
14	0	0	0	0	583	476	0	763	0	0	
15	0	0	0	0	625	472	0	916	0	0	
0	0	0	0	0	660	470	0	1020	0	0	
1	0	0	0	0	684	467	0	1021	0	0	
2	0	0	0	0	695	467	0	1021	0	0	
3	0	0	0	0	693	468	0	991	0	0	
4	0	0	0	0	675	470	0	887	0	0	
5	0	0	0	0	647	474	0	741	0	0	
6	0	0	0	0	608	479	0	565	0	0	
7	0	0	0	0	563	484	0	378	0	0	
8	0	0	0	0	516	488	0	199	0	0	
9	0	0	0	0	471	492	0	49	0	0	
10	0	0	0	0	432	493	0	0	0	0	
11	0	0	0	0	404	493	0	0	0	0	
12	0	0	0	0	388	490	0	0	0	0	
13	0	0	0	0	386	486	0	28	0	0	
14	0	0	0	0	397	480	0	131	0	0	
15	0	0	0	0	423	472	0	283	0	0	
0	0	0	0	0	460	465	0	468	0	0	
1	0	0	0	0	503	457	0	667	0	0	
2	0	0	0	0	548	451	0	857	0	0	
3	0	0	0	0	594	447	0	1019	0	0	
4	0	0	0	0	635	444	0	1021	0	0	
5	0	0	0	0	666	444	0	1021	0	0	
6	0	0	0	0	687	445	0	1021	0	0	
7	0	0	0	0	694	449	0	1010	0	0	
8	0	0	0	0	687	454	0	918	0	0	
9	0	0	0	0	668	461	0	779	0	0	
10	0	0	0	0	638	468	0	608	0	0	
11	0	0	0	0	600	476	0	423	0	0	
12	0	0	0	0	559	482	0	241	0	0	
13	0	0	0	0	518	487	0	82	0	0	
14	0	0	0	0	482	491	0	0	0	0	
15	0	0	0	0	454	493	0	0	0	0	
0	0	0	0	0	435	492	0	0	0	0	
1	0	0	0	0	430	489	0	1	0	0	
2	0	0	0	0	438	484	0	79	0	0	
3	0	0	0	0	457	477	0	206	0	0	
4	0	0	0	0	487	469	0	366	0	0	
5	0	0	0	0	522	460	0	544	0	0	
6	0	0	0	0	560	452	0	720	0	0	
7	0	0	0	0	598	444	0	876	0	0	
8	0	0	0	0	633	440	0	994	0	0	
9	0	0	0	0	659	438	0	1021	0	0	
10	0	0	0	0	676	438	0	1021	0	0	
11	0	0	0	0	681	442	0	997	0	0	
12	0	0	0	0	673	448	0	904	0	0	
13	0	0	0	0	655	457	0	766	0	0	
14	0	0	0	0	626	466	0	598	0	0	
15	0	0	0	0	591	476	0	415	0	0	
0	0	0	0	0	551	485	0	237	0	0	
1	0	0	0	0	512	493	0	82	0	0	
2	0	0	0	0	477	499	0	0	0	0	
3	0	0	0	0	450	502	0	0	0	0	
4	0	0	0	0	435	504	0	0	0	0	
5	0	0	0	0	432	502	0	13	0	0	
6	0	0	0	0	443	499	0	102	0	0	
7	0	0	0	0	468	496	0	239	0	0	
8	0	0	0	0	503	490	0	410	0	0	
9	0	0	0	0	545	484	0	596	0	0	
10	0	0	0	0	589	479	0	778	0	0	
11	0	0	0	0	633	474	0	935	0	0	
12	0	0	0	0	671	471	0	1020	0	0	
13	0	0	0	0	700	469	0	1021	0	0	
14	0	0	0	0	716	469	0	1021	0	0	
15	0	0	0	0	717	470	0	998	0	0	
0	0	0	0	0	703	472	0	900	0	0	
1	0	0	0	0	675	476	0	757	0	0	
2	0	0	0	0	635	480	0	583	0	0	
3	0	0	0	0	587	485	0	398	0	0	
4	0	0	0	0	536	489	0	218	0	0	
5	0	0	0	0	488	494	0	65	0	0	
6	0	0	0	0	446	497	0	0	0	0	
7	0	0	0	0	415	499	0	0	0	0	
8	0	0	0	0	397	499	0	0	0	0	
9	0	0	0	0	394	497	0	19	0	0	
10	0	0	0	0	407	494	0	116	0	0	
11	0	0	0	0	432	489	0	263	0	0	
12	0	0	0	0	467	483	0	445	0	0	
13	0	0	0	0	510	477	0	642	0	0	
14	0	0	0	0	554	472	0	835	0	0	
15	0	0	0	0	598	467	0	1000	0	0	
0	0	0	0	0	635	464	0	1020	0	0	
1	0	0	0	0	664	463	0	1021	0	0	
2	0	0	0	0	680	464	0	1021	0	0	
3	0	0	0	0	682	466	0	1017	0	0	
4	0	0	0	0	670	470	0	934	0	0	
5	0	0	0	0	645	474	0	803	0	0	
6	0	0	0	0	609	480	0	639	0	0	
7	0	0	0	0	566	484	0	460	0	0	
8	0	0	0	0	520	489	0	283	0	0	
9	0	0	0	0	476	492	0	126	0	0	
10	0	0	0	0	440	494	0	5	0	0	
11	0	0	0	0	413	495	0	0	0	0	
12	0	0	0	0	399	495	0	0	0	0	
13	0	0	0	0	400	494	0	7	0	0	
14	0	0	0	0	416	492	0	89	0	0	
15	0	0	0	0	446	489	0	219	0	0	
0	0	0	0	0	486	487	0	384	0	0	
1	0	0	0	0	531	486	0	567	0	0	
2	0	0	0	0	579	484	0	748	0	0	
3	0	0	0	0	623	482	0	907	0	0	
4	0	0	0	0	661	481	0	1020	0	0	
5	0	0	0	0	688	480	0	1021	0	0	
6	0	0	0	0	701	480	0	1021	0	0	
7	0	0	0	0	699	480	0	1002	0	0	
8	0	0	0	0	682	480	0	908	0	0	
9	0	0	0	0	652	481	0	768	0	0	
10	0	0	0	0	612	483	0	597	0	0	
11	0	0	0	0	565	486	0	412	0	0	
12	0	0	0	0	517	488	0	231	0	0	
13	0	0	0	0	471	490	0	75	0	0	
14	0	0	0	0	435	492	0	0	0	0	
15	0	0	0	0	408	492	0	0	0	0	
0	0	0	0	0	395	492	0	0	0	0	
1	0	0	0	0	396	490	0	9	0	0	
2	0	0	0	0	413	487	0	95	0	0	
3	0	0	0	0	442	483	0	232	0	0	
4	0	0	0	0	481	478	0	404	0	0	
5	0	0	0	0	527	473	0	595	0	0	
6	0	0	0	0	574	469	0	784	0	0	
7	0	0	0	0	618	464	0	950	0	0	
8	0	0	0	0	656	462	0	1020	0	0	
9	0	0	0	0	683	460	0	1021	0	0	
10	0	0	0	0	697	459	0	1021	0	0	
11	0	0	0	0	696	460	0	1017	0	0	
12	0	0	0	0	681	462	0	934	0	0	
13	0	0	0	0	652	466	0	803	0	0	
14	0	0	0	0	611	470	0	638	0	0	
15	0	0	0	0	564	474	0	457	0	0	
0	0	0	0	0	514	478	0	276	0	0	
1	0	0	0	0	466	480	0	117	0	0	
2	0	0	0	0	425	481	0	0	0	0	
3	0	0	0	0	393	479	0	0	0	0	
4	0	0	0	0	374	475	0	0	0	0	
5	0	0	0	0	369	468	0	3	0	0	
6	0	0	0	0	378	460	0	81	0	0	
7	0	0	0	0	399	449	0	210	0	0	
8	0	0	0	0	431	437	0	374	0	0	
9	0	0	0	0	468	423	0	558	0	0	
10	0	0	0	0	508	410	0	741	0	0	
11	0	0	0	0	543	397	0	902	0	0	
12	0	0	0	0	573	384	0	1020	0	0	
13	0	0	0	0	593	374	0	1021	0	0	
14	0	0	0	0	600	364	0	1021	0	0	
15	0	0	0	0	593	357	0	1004	0	0	
0	0	0	0	0	572	352	0	909	0	0	
1	0	0	0	0	539	347	0	766	0	0	
2	0	0	0	0	496	344	0	590	0	0	
3	0	0	0	0	447	341	0	397	0	0	
4	0	0	0	0	395	337	0	208	0	0	
5	0	0	0	0	344	333	0	43	0	0	
6	0	0	0	0	301	328	0	0	0	0	
7	0	0	0	0	267	322	0	0	0	0	
8	0	0	0	0	244	315	0	0	0	0	
9	0	0	0	0	235	306	0	0	0	0	
10	0	0	0	0	240	297	0	64	0	0	
11	0	0	0	0	260	288	0	189	0	0	
12	0	0	0	0	291	280	0	353	0	0	
13	0	0	0	0	330	273	0	542	0	0	
14	0	0	0	0	374	268	0	733	0	0	
15	0	0	0	0	419	266	0	905	0	0	
0	0	0	0	0	460	268	0	1020	0	0	
1	0	0	0	0	495	273	0	1021	0	0	
2	0	0	0	0	519	282	0	1021	0	0	
3	0	0	0	0	530	295	0	1019	0	0	
4	0	0	0	0	531	312	0	935	0	0	
5	0	0	0	0	519	331	0	800	0	0	
6	0	0	0	0	498	351	0	629	0	0	
7	0	0	0	0	471	372	0	440	0	0	
8	0	0	0	0	441	391	0	249	0	0	
9	0	0	0	0	415	409	0	79	0	0	
10	0	0	0	0	392	425	0	0	0	0	
11	0	0	0	0	379	437	0	0	0	0	
12	0	0	0	0	376	446	0	0	0	0	
13	0	0	0	0	386	451	0	0	0	0	
14	0	0	0	0	409	453	0	42	0	0	
15	0	0	0	0	443	452	0	151	0	0	
0	0	0	0	0	485	450	0	297	0	0	
1	0	0	0	0	532	447	0	467	0	0	
2	0	0	0	0	579	444	0	640	0	0	
3	0	0	0	0	622	441	0	798	0	0	
4	0	0	0	0	659	440	0	921	0	0	
5	0	0	0	0	684	439	0	1000	0	0	
6	0	0	0	0	697	440	0	1020	0	0	
7	0	0	0	0	696	443	0	988	0	0	
8	0	0	0	0	681	448	0	895	0	0	
9	0	0	0	0	653	454	0	755	0	0	
10	0	0	0	0	615	462	0	582	0	0	
11	0	0	0	0	571	469	0	393	0	0	
12	0	0	0	0	524	476	0	208	0	0	
13	0	0	0	0	482	483	0	46	0	0	
14	0	0	0	0	446	489	0	0	0	0	
15	0	0	0	0	419	494	0	0	0	0	
0	0	0	0	0	404	496	0	0	0	0	
1	0	0	0	0	403	496	0	0	0	0	
2	0	0	0	0	416	493	0	63	0	0	
3	0	0	0	0	441	489	0	185	0	0	
4	0	0	0	0	476	483	0	344	0	0	
5	0	0	0	0	516	478	0	524	0	0	
6	0	0	0	0	560	472	0	706	0	0	
7	0	0	0	0	604	468	0	870	0	0	
8	0	0	0	0	643	467	0	999	0	0	
9	0	0	0	0	674	467	0	1021	0	0	
10	0	0	0	0	695	469	0	1021	0	0	
11	0	0	0	0	702	474	0	1010	0	0	
12	0	0	0	0	697	481	0	923	0	0	
13	0	0	0	0	679	490	0	787	0	0	
14	0	0	0	0	649	499	0	619	0	0	
15	0	0	0	0	613	508	0	433	0	0	
0	0	0	0	0	573	518	0	249	0	0	
1	0	0	0	0	534	524	0	88	0	0	
2	0	0	0	0	498	529	0	0	0	0	
3	0	0	0	0	470	531	0	0	0	0	
4	0	0	0	0	451	530	0	0	0	0	
5	0	0	0	0	444	527	0	2	0	0	
6	0	0	0	0	449	521	0	84	0	0	
7	0	0	0	0	467	514	0	219	0	0	
8	0	0	0	0	494	506	0	390	0	0	
9	0	0	0	0	528	499	0	582	0	0	
10	0	0	0	0	566	491	0	774	0	0	
11	0	0	0	0	603	484	0	944	0	0	
12	0	0	0	0	636	480	0	1020	0	0	
13	0	0	0	0	662	477	0	1021	0	0	
14	0	0	0	0	677	476	0	1021	0	0	
15	0	0	0	0	681	478	0	1020	0	0	
0	0	0	0	0	672	482	0	940	0	0	
1	0	0	0	0	652	487	0	810	0	0	
2	0	0	0	0	620	494	0	644	0	0	
3	0	0	0	0	582	500	0	461	0	0	
4	0	0	0	0	541	505	0	278	0	0	
5	0	0	0	0	500	510	0	113	0	0	
6	0	0	0	0	465	513	0	0	0	0	
7	0	0	0	0	438	514	0	0	0	0	
8	0	0	0	0	423	514	0	0	0	0	
9	0	0	0	0	421	512	0	0	0	0	
10	0	0	0	0	433	510	0	77	0	0	
11	0	0	0	0	460	506	0	207	0	0	
12	0	0	0	0	496	502	0	377	0	0	
13	0	0	0	0	539	498	0	569	0	0	
14	0	0	0	0	585	494	0	763	0	0	
15	0	0	0	0	628	491	0	937	0	0	
0	0	0	0	0	665	489	0	1020	0	0	
1	0	0	0	0	691	487	0	1021	0	0	
2	0	0	0	0	704	487	0	1021	0	0	
3	0	0	0	0	703	487	0	1021	0	0	
4	0	0	0	0	684	487	0	955	0	0	
5	0	0	0	0	653	487	0	835	0	0	
6	0	0	0	0	609	487	0	677	0	0	
7	0	0	0	0	560	488	0	500	0	0	
8	0	0	0	0	508	489	0	322	0	0	
9	0	0	0	0	459	490	0	162	0	0	
10	0	0	0	0	419	491	0	35	0	0	
11	0	0	0	0	390	491	0	0	0	0	
12	0	0	0	0	376	492	0	0	0	0	
13	0	0	0	0	379	491	0	3	0	0	
14	0	0	0	0	400	491	0	80	0	0	
15	0	0	0	0	436	489	0	208	0	0	
0	0	0	0	0	484	489	0	374	0	0	
1	0	0	0	0	540	488	0	561	0	0	
2	0	0	0	0	598	488	0	749	0	0	
3	0	0	0	0	653	488	0	916	0	0	
4	0	0	0	0	701	489	0	1020	0	0	
5	0	0	0	0	736	491	0	1021	0	0	
6	0	0	0	0	758	493	0	1021	0	0	
7	0	0	0	0	761	496	0	1016	0	0	
8	0	0	0	0	748	499	0	929	0	0	
9	0	0	0	0	719	502	0	793	0	0	
10	0	0	0	0	675	504	0	623	0	0	
11	0	0	0	0	623	507	0	435	0	0	
12	0	0	0	0	567	509	0	247	0	0	
13	0	0	0	0	511	511	0	80	0	0	
14	0	0	0	0	462	511	0	0	0	0	
15	0	0	0	0	423	510	0	0	0	0	
0	0	0	0	0	400	508	0	0	0	0	
1	0	0	0	0	393	506	0	0	0	0	
2	0	0	0	0	404	503	0	57	0	0	
3	0	0	0	0	432	499	0	174	0	0	
4	0	0	0	0	473	496	0	329	0	0	
5	0	0	0	0	523	493	0	505	0	0	
6	0	0	0	0	577	491	0	684	0	0	
7	0	0	0	0	630	489	0	843	0	0	
8	0	0	0	0	677	488	0	967	0	0	
9	0	0	0	0	714	488	0	1020	0	0	
10	0	0	0	0	738	490	0	1021	0	0	
11	0	0	0	0	747	493	0	996	0	0	
12	0	0	0	0	739	497	0	898	0	0	
13	0	0	0	0	716	501	0	754	0	0	
14	0	0	0	0	680	505	0	577	0	0	
15	0	0	0	0	634	508	0	384	0	0	
0	0	0	0	0	583	511	0	196	0	0	
1	0	0	0	0	531	512	0	32	0	0	
2	0	0	0	0	486	512	0	0	0	0	
3	0	0	0	0	449	510	0	0	0	0	
4	0	0	0	0	424	506	0	0	0	0	
5	0	0	0	0	415	501	0	0	0	0	
6	0	0	0	0	421	495	0	67	0	0	
7	0	0	0	0	441	488	0	194	0	0	
8	0	0	0	0	475	482	0	359	0	0	
9	0	0	0	0	517	476	0	545	0	0	
10	0	0	0	0	563	471	0	734	0	0	
11	0	0	0	0	609	468	0	903	0	0	
12	0	0	0	0	652	467	0	1020	0	0	
13	0	0	0	0	686	468	0	1021	0	0	
14	0	0	0	0	708	472	0	1021	0	0	
15	0	0	0	0	717	476	0	1015	0	0	
0	0	0	0	0	712	483	0	928	0	0	
1	0	0	0	0	693	491	0	791	0	0	
2	0	0	0	0	662	499	0	617	0	0	
3	0	0	0	0	623	507	0	427	0	0	
4	0	0	0	0	579	514	0	237	0	0	
5	0	0	0	0	537	521	0	69	0	0	
6	0	0	0	0	499	526	0	0	0	0	
7	0	0	0	0	468	528	0	0	0	0	
8	0	0	0	0	449	529	0	0	0	0	
9	0	0	0	0	444	527	0	0	0	0	
10	0	0	0	0	453	523	0	66	0	0	
11	0	0	0	0	475	517	0	191	0	0	
12	0	0	0	0	508	510	0	353	0	0	
13	0	0	0	0	549	503	0	537	0	0	
14	0	0	0	0	592	496	0	723	0	0	
15	0	0	0	0	635	489	0	888	0	0	
0	0	0	0	0	672	483	0	1016	0	0	
1	0	0	0	0	700	479	0	1021	0	0	
2	0	0	0	0	715	476	0	1021	0	0	
3	0	0	0	0	716	474	0	1006	0	0	
4	0	0	0	0	702	474	0	912	0	0	
5	0	0	0	0	675	475	0	770	0	0	
6	0	0	0	0	635	477	0	593	0	0	
7	0	0	0	0	589	480	0	399	0	0	
8	0	0	0	0	538	483	0	209	0	0	
9	0	0	0	0	491	487	0	42	0	0	
10	0	0	0	0	449	490	0	0	0	0	
11	0	0	0	0	417	493	0	0	0	0	
12	0	0	0	0	399	495	0	0	0	0	
13	0	0	0	0	396	496	0	0	0	0	
14	0	0	0	0	408	496	0	68	0	0	
15	0	0	0	0	435	494	0	195	0	0	
0	0	0	0	0	473	491	0	360	0	0	
1	0	0	0	0	519	488	0	548	0	0	
2	0	0	0	0	569	485	0	739	0	0	
3	0	0	0	0	617	483	0	908	0	0	
4	0	0	0	0	660	481	0	1020	0	0	
5	0	0	0	0	693	481	0	1021	0	0	
6	0	0	0	0	715	482	0	1021	0	0	
7	0	0	0	0	721	483	0	1014	0	0	
8	0	0	0	0	712	486	0	926	0	0	
9	0	0	0	0	689	489	0	787	0	0	
10	0	0	0	0	653	492	0	612	0	0	
11	0	0	0	0	608	494	0	418	0	0	
12	0	0	0	0	559	495	0	224	0	0	
13	0	0	0	0	509	495	0	50	0	0	
14	0	0	0	0	464	494	0	0	0	0	
15	0	0	0	0	428	492	0	0	0	0	
0	0	0	0	0	404	488	0	0	0	0	
1	0	0	0	0	394	484	0	0	0	0	
2	0	0	0	0	399	480	0	36	0	0	
3	0	0	0	0	419	476	0	144	0	0	
4	0	0	0	0	452	473	0	295	0	0	
5	0	0	0	0	494	471	0	471	0	0	
6	0	0	0	0	540	470	0	655	0	0	
7	0	0	0	0	587	470	0	824	0	0	
8	0	0	0	0	630	472	0	961	0	0	
9	0	0	0	0	664	476	0	1021	0	0	
10	0	0	0	0	687	480	0	1021	0	0	
11	0	0	0	0	697	485	0	1016	0	0	
12	0	0	0	0	691	491	0	932	0	0	
13	0	0	0	0	672	496	0	798	0	0	
14	0	0	0	0	639	502	0	626	0	0	
15	0	0	0	0	596	505	0	433	0	0	
0	0	0	0	0	547	507	0	238	0	0	
1	0	0	0	0	497	507	0	63	0	0	
2	0	0	0	0	450	504	0	0	0	0	
3	0	0	0	0	411	501	0	0	0	0	
4	0	0	0	0	383	496	0	0	0	0	
5	0	0	0	0	369	490	0	0	0	0	
6	0	0	0	0	372	483	0	36	0	0	
7	0	0	0	0	391	478	0	145	0	0	
8	0	0	0	0	423	472	0	296	0	0	
9	0	0	0	0	465	467	0	473	0	0	
10	0	0	0	0	513	464	0	656	0	0	
11	0	0	0	0	562	463	0	825	0	0	
12	0	0	0	0	608	462	0	961	0	0	
13	0	0	0	0	646	464	0	1021	0	0	
14	0	0	0	0	673	467	0	1021	0	0	
15	0	0	0	0	685	471	0	1014	0	0	
0	0	0	0	0	682	476	0	931	0	0	
1	0	0	0	0	664	481	0	796	0	0	
2	0	0	0	0	632	486	0	623	0	0	
3	0	0	0	0	590	491	0	430	0	0	
4	0	0	0	0	543	494	0	234	0	0	
5	0	0	0	0	495	495	0	56	0	0	
6	0	0	0	0	450	495	0	0	0	0	
7	0	0	0	0	414	493	0	0	0	0	
8	0	0	0	0	390	490	0	0	0	0	
9	0	0	0	0	381	486	0	0	0	0	
10	0	0	0	0	387	481	0	14	0	0	
11	0	0	0	0	410	476	0	103	0	0	
12	0	0	0	0	445	471	0	234	0	0	
13	0	0	0	0	489	467	0	392	0	0	
14	0	0	0	0	538	463	0	560	0	0	
15	0	0	0	0	587	462	0	718	0	0	
0	0	0	0	0	632	462	0	848	0	0	
1	0	0	0	0	669	464	0	936	0	0	
2	0	0	0	0	695	469	0	973	0	0	
3	0	0	0	0	707	475	0	954	0	0	
4	0	0	0	0	704	482	0	877	0	0	
5	0	0	0	0	688	490	0	752	0	0	
6	0	0	0	0	659	497	0	591	0	0	
7	0	0	0	0	620	504	0	412	0	0	
8	0	0	0	0	576	509	0	232	0	0	
9	0	0	0	0	530	512	0	72	0	0	
10	0	0	0	0	488	514	0	0	0	0	
11	0	0	0	0	451	512	0	0	0	0	
12	0	0	0	0	424	507	0	0	0	0	
13	0	0	0	0	410	500	0	0	0	0	
14	0	0	0	0	409	492	0	30	0	0	
15	0	0	0	0	422	483	0	127	0	0	
0	0	0	0	0	448	475	0	263	0	0	
1	0	0	0	0	483	467	0	421	0	0	
2	0	0	0	0	525	461	0	585	0	0	
3	0	0	0	0	568	457	0	736	0	0	
4	0	0	0	0	609	456	0	856	0	0	
5	0	0	0	0	643	457	0	933	0	0	
6	0	0	0	0	666	459	0	958	0	0	
7	0	0	0	0	677	464	0	927	0	0	
8	0	0	0	0	674	470	0	840	0	0	
9	0	0	0	0	659	476	0	709	0	0	
10	0	0	0	0	632	483	0	546	0	0	
11	0	0	0	0	596	489	0	367	0	0	
12	0	0	0	0	556	495	0	193	0	0	
13	0	0	0	0	516	499	0	39	0	0	
14	0	0	0	0	481	502	0	0	0	0	
15	0	0	0	0	454	504	0	0	0	0	
0	0	0	0	0	437	504	0	0	0	0	
1	0	0	0	0	433	502	0	0	0	0	
2	0	0	0	0	444	499	0	45	0	0	
3	0	0	0	0	468	496	0	149	0	0	
4	0	0	0	0	502	491	0	288	0	0	
5	0	0	0	0	543	486	0	447	0	0	
6	0	0	0	0	588	482	0	607	0	0	
7	0	0	0	0	630	478	0	751	0	0	
8	0	0	0	0	668	476	0	861	0	0	
9	0	0	0	0	697	475	0	927	0	0	
10	0	0	0	0	716	476	0	941	0	0	
11	0	0	0	0	720	478	0	899	0	0	
12	0	0	0	0	711	481	0	806	0	0	
13	0	0	0	0	688	486	0	670	0	0	
14	0	0	0	0	654	490	0	505	0	0	
15	0	0	0	0	612	494	0	329	0	0	
0	0	0	0	0	566	496	0	160	0	0	
1	0	0	0	0	519	497	0	14	0	0	
2	0	0	0	0	479	498	0	0	0	0	
3	0	0	0	0	447	497	0	0	0	0	
4	0	0	0	0	428	495	0	0	0	0	
5	0	0	0	0	423	492	0	0	0	0	
6	0	0	0	0	434	489	0	48	0	0	
7	0	0	0	0	459	485	0	150	0	0	
8	0	0	0	0	497	483	0	284	0	0	
9	0	0	0	0	542	480	0	435	0	0	
10	0	0	0	0	591	478	0	588	0	0	
11	0	0	0	0	639	478	0	723	0	0	
12	0	0	0	0	684	480	0	827	0	0	
13	0	0	0	0	717	483	0	888	0	0	
14	0	0	0	0	739	488	0	897	0	0	
15	0	0	0	0	745	493	0	854	0	0	
0	0	0	0	0	736	500	0	761	0	0	
1	0	0	0	0	711	505	0	628	0	0	
2	0	0	0	0	674	512	0	469	0	0	
3	0	0	0	0	627	516	0	300	0	0	
4	0	0	0	0	575	519	0	141	0	0	
5	0	0	0	0	522	520	0	3	0	0	
6	0	0	0	0	474	519	0	0	0	0	
7	0	0	0	0	434	516	0	0	0	0	
8	0	0	0	0	406	511	0	0	0	0	
9	0	0	0	0	392	505	0	0	0	0	
10	0	0	0	0	396	499	0	63	0	0	
11	0	0	0	0	415	493	0	169	0	0	
12	0	0	0	0	448	487	0	307	0	0	
13	0	0	0	0	491	483	0	461	0	0	
14	0	0	0	0	540	480	0	612	0	0	
15	0	0	0	0	590	479	0	744	0	0	
0	0	0	0	0	636	480	0	843	0	0	
1	0	0	0	0	674	482	0	897	0	0	
2	0	0	0	0	700	486	0	901	0	0	
3	0	0	0	0	711	490	0	851	0	0	
4	0	0	0	0	707	495	0	752	0	0	
5	0	0	0	0	688	500	0	615	0	0	
6	0	0	0	0	655	505	0	454	0	0	
7	0	0	0	0	611	509	0	287	0	0	
8	0	0	0	0	563	511	0	132	0	0	
9	0	0	0	0	513	512	0	3	0	0	
10	0	0	0	0	468	512	0	0	0	0	
11	0	0	0	0	431	511	0	0	0	0	
12	0	0	0	0	406	508	0	0	0	0	
13	0	0	0	0	396	504	0	25	0	0	
14	0	0	0	0	401	499	0	120	0	0	
15	0	0	0	0	423	495	0	256	0	0	
0	0	0	0	0	456	489	0	421	0	0	
1	0	0	0	0	499	484	0	596	0	0	
2	0	0	0	0	547	480	0	767	0	0	
3	0	0	0	0	596	478	0	909	0	0	
4	0	0	0	0	642	478	0	1012	0	0	
5	0	0	0	0	679	479	0	1021	0	0	
6	0	0	0	0	705	481	0	1021	0	0	
7	0	0	0	0	716	483	0	962	0	0	
8	0	0	0	0	711	487	0	843	0	0	
9	0	0	0	0	695	492	0	683	0	0	
10	0	0	0	0	664	496	0	495	0	0	
11	0	0	0	0	623	500	0	299	0	0	
12	0	0	0	0	577	504	0	116	0	0	
13	0	0	0	0	531	507	0	0	0	0	
14	0	0	0	0	491	510	0	0	0	0	
15	0	0	0	0	457	511	0	0	0	0	
0	0	0	0	0	436	512	0	0	0	0	
1	0	0	0	0	428	511	0	0	0	0	
2	0	0	0	0	435	509	0	80	0	0	
3	0	0	0	0	455	506	0	206	0	0	
4	0	0	0	0	488	503	0	367	0	0	
5	0	0	0	0	529	499	0	543	0	0	
6	0	0	0	0	574	496	0	718	0	0	
7	0	0	0	0	620	495	0	870	0	0	
8	0	0	0	0	661	494	0	984	0	0	
9	0	0	0	0	694	493	0	1020	0	0	
10	0	0	0	0	715	494	0	1021	0	0	
11	0	0	0	0	723	496	0	979	0	0	
12	0	0	0	0	716	499	0	872	0	0	
13	0	0	0	0	694	502	0	720	0	0	
14	0	0	0	0	659	505	0	540	0	0	
15	0	0	0	0	616	508	0	349	0	0	
0	0	0	0	0	567	511	0	168	0	0	
1	0	0	0	0	519	513	0	15	0	0	
2	0	0	0	0	473	514	0	0	0	0	
3	0	0	0	0	435	512	0	0	0	0	
4	0	0	0	0	408	510	0	0	0	0	
5	0	0	0	0	395	505	0	15	0	0	
6	0	0	0	0	397	500	0	111	0	0	
7	0	0	0	0	414	494	0	256	0	0	
8	0	0	0	0	443	487	0	436	0	0	
9	0	0	0	0	482	481	0	633	0	0	
10	0	0	0	0	527	476	0	824	0	0	
11	0	0	0	0	574	472	0	990	0	0	
12	0	0	0	0	618	470	0	1020	0	0	
13	0	0	0	0	655	470	0	1021	0	0	
14	0	0	0	0	683	471	0	1021	0	0	
15	0	0	0	0	696	474	0	1014	0	0	
0	0	0	0	0	696	478	0	924	0	0	
1	0	0	0	0	681	483	0	786	0	0	
2	0	0	0	0	653	489	0	615	0	0	
3	0	0	0	0	615	494	0	428	0	0	
4	0	0	0	0	572	498	0	242	0	0	
5	0	0	0	0	527	501	0	80	0	0	
6	0	0	0	0	485	503	0	0	0	0	
7	0	0	0	0	450	504	0	0	0	0	
8	0	0	0	0	425	503	0	0	0	0	
9	0	0	0	0	414	500	0	0	0	0	
10	0	0	0	0	417	497	0	75	0	0	
11	0	0	0	0	435	493	0	205	0	0	
12	0	0	0	0	465	488	0	373	0	0	
13	0	0	0	0	504	484	0	563	0	0	
14	0	0	0	0	549	481	0	755	0	0	
15	0	0	0	0	595	479	0	927	0	0	
0	0	0	0	0	639	479	0	1020	0	0	
1	0	0	0	0	674	481	0	1021	0	0	
2	0	0	0	0	700	484	0	1021	0	0	
3	0	0	0	0	711	488	0	1020	0	0	
4	0	0	0	0	710	494	0	949	0	0	
5	0	0	0	0	694	499	0	824	0	0	
6	0	0	0	0	665	505	0	663	0	0	
7	0	0	0	0	627	510	0	482	0	0	
8	0	0	0	0	583	515	0	300	0	0	
9	0	0	0	0	540	518	0	136	0	0	
10	0	0	0	0	499	519	0	7	0	0	
11	0	0	0	0	466	519	0	0	0	0	
12	0	0	0	0	445	518	0	0	0	0	
13	0	0	0	0	435	514	0	0	0	0	
14	0	0	0	0	441	510	0	73	0	0	
15	0	0	0	0	459	504	0	200	0	0	
0	0	0	0	0	489	497	0	365	0	0	
1	0	0	0	0	525	489	0	551	0	0	
2	0	0	0	0	564	483	0	738	0	0	
3	0	0	0	0	603	476	0	907	0	0	
4	0	0	0	0	637	471	0	1020	0	0	
5	0	0	0	0	663	468	0	1021	0	0	
6	0	0	0	0	677	465	0	1021	0	0	
7	0	0	0	0	679	466	0	1017	0	0	
8	0	0	0	0	668	469	0	934	0	0	
9	0	0	0	0	644	473	0	803	0	0	
10	0	0	0	0	611	479	0	637	0	0	
11	0	0	0	0	571	486	0	454	0	0	
12	0	0	0	0	527	493	0	272	0	0	
13	0	0	0	0	486	499	0	111	0	0	
14	0	0	0	0	449	504	0	0	0	0	
15	0	0	0	0	421	508	0	0	0	0	
0	0	0	0	0	404	510	0	0	0	0	
1	0	0	0	0	400	510	0	3	0	0	
2	0	0	0	0	412	509	0	84	0	0	
3	0	0	0	0	437	506	0	216	0	0	
4	0	0	0	0	473	503	0	386	0	0	
5	0	0	0	0	518	500	0	576	0	0	
6	0	0	0	0	568	496	0	766	0	0	
7	0	0	0	0	617	495	0	935	0	0	
8	0	0	0	0	663	494	0	1020	0	0	
9	0	0	0	0	700	495	0	1021	0	0	
10	0	0	0	0	726	497	0	1021	0	0	
11	0	0	0	0	737	499	0	1019	0	0	
12	0	0	0	0	732	502	0	933	0	0	
13	0	0	0	0	714	505	0	800	0	0	
14	0	0	0	0	681	508	0	632	0	0	
15	0	0	0	0	638	511	0	446	0	0	
0	0	0	0	0	589	512	0	259	0	0	
1	0	0	0	0	538	512	0	94	0	0	
2	0	0	0	0	491	510	0	0	0	0	
3	0	0	0	0	451	507	0	0	0	0	
4	0	0	0	0	423	502	0	0	0	0	
5	0	0	0	0	408	496	0	0	0	0	
6	0	0	0	0	408	488	0	68	0	0	
7	0	0	0	0	424	481	0	194	0	0	
8	0	0	0	0	454	475	0	359	0	0	
9	0	0	0	0	492	469	0	546	0	0	
10	0	0	0	0	538	465	0	736	0	0	
11	0	0	0	0	584	464	0	907	0	0	
12	0	0	0	0	629	465	0	1020	0	0	
13	0	0	0	0	667	469	0	1021	0	0	
14	0	0	0	0	695	475	0	1021	0	0	
15	0	0	0	0	709	483	0	1020	0	0	
0	0	0	0	0	710	492	0	944	0	0	
1	0	0	0	0	696	499	0	815	0	0	
2	0	0	0	0	668	507	0	650	0	0	
3	0	0	0	0	630	512	0	465	0	0	
4	0	0	0	0	584	514	0	279	0	0	
5	0	0	0	0	536	515	0	111	0	0	
6	0	0	0	0	491	512	0	0	0	0	
7	0	0	0	0	452	508	0	0	0	0	
8	0	0	0	0	425	502	0	0	0	0	
9	0	0	0	0	411	495	0	0	0	0	
10	0	0	0	0	411	487	0	53	0	0	
11	0	0	0	0	428	480	0	169	0	0	
12	0	0	0	0	457	473	0	326	0	0	
13	0	0	0	0	496	467	0	507	0	0	
14	0	0	0	0	540	463	0	693	0	0	
15	0	0	0	0	585	461	0	863	0	0	
0	0	0	0	0	627	461	0	999	0	0	
1	0	0	0	0	661	462	0	1020	0	0	
2	0	0	0	0	684	466	0	1021	0	0	
3	0	0	0	0	694	471	0	1021	0	0	
4	0	0	0	0	689	476	0	940	0	0	
5	0	0	0	0	671	483	0	811	0	0	
6	0	0	0	0	642	490	0	642	0	0	
7	0	0	0	0	604	496	0	452	0	0	
8	0	0	0	0	561	502	0	260	0	0	
9	0	0	0	0	519	506	0	87	0	0	
10	0	0	0	0	481	509	0	0	0	0	
11	0	0	0	0	451	510	0	0	0	0	
12	0	0	0	0	431	508	0	0	0	0	
13	0	0	0	0	424	505	0	0	0	0	
14	0	0	0	0	430	500	0	22	0	0	
15	0	0	0	0	449	494	0	115	0	0	
0	0	0	0	0	480	488	0	249	0	0	
1	0	0	0	0	517	482	0	408	0	0	
2	0	0	0	0	559	477	0	575	0	0	
3	0	0	0	0	600	474	0	730	0	0	
4	0	0	0	0	639	473	0	856	0	0	
5	0	0	0	0	669	473	0	941	0	0	
6	0	0	0	0	688	476	0	975	0	0	
7	0	0	0	0	694	479	0	954	0	0	
8	0	0	0	0	686	483	0	877	0	0	
9	0	0	0	0	664	488	0	753	0	0	
10	0	0	0	0	631	493	0	594	0	0	
11	0	0	0	0	589	497	0	417	0	0	
12	0	0	0	0	543	500	0	240	0	0	
13	0	0	0	0	498	503	0	81	0	0	
14	0	0	0	0	459	505	0	0	0	0	
15	0	0	0	0	429	506	0	0	0	0	
0	0	0	0	0	412	506	0	0	0	0	
1	0	0	0	0	408	504	0	0	0	0	
2	0	0	0	0	421	502	0	51	0	0	
3	0	0	0	0	448	499	0	164	0	0	
4	0	0	0	0	486	496	0	314	0	0	
5	0	0	0	0	532	493	0	487	0	0	
6	0	0	0	0	582	491	0	662	0	0	
7	0	0	0	0	631	489	0	819	0	0	
8	0	0	0	0	675	489	0	943	0	0	
9	0	0	0	0	709	491	0	1020	0	0	
10	0	0	0	0	731	493	0	1021	0	0	
11	0	0	0	0	737	496	0	992	0	0	
12	0	0	0	0	727	499	0	896	0	0	
13	0	0	0	0	703	502	0	753	0	0	
14	0	0	0	0	666	505	0	576	0	0	
15	0	0	0	0	620	508	0	383	0	0	
0	0	0	0	0	569	508	0	194	0	0	
1	0	0	0	0	519	509	0	28	0	0	
2	0	0	0	0	475	508	0	0	0	0	
3	0	0	0	0	440	507	0	0	0	0	
4	0	0	0	0	419	505	0	0	0	0	
5	0	0	0	0	413	502	0	0	0	0	
6	0	0	0	0	424	500	0	48	0	0	
7	0	0	0	0	451	497	0	159	0	0	
8	0	0	0	0	492	495	0	307	0	0	
9	0	0	0	0	541	493	0	478	0	0	
10	0	0	0	0	594	491	0	651	0	0	
11	0	0	0	0	647	492	0	807	0	0	
12	0	0	0	0	694	493	0	930	0	0	
13	0	0	0	0	730	495	0	1008	0	0	
14	0	0	0	0	752	497	0	1020	0	0	
15	0	0	0	0	758	500	0	988	0	0	
0	0	0	0	0	745	503	0	892	0	0	
1	0	0	0	0	716	504	0	748	0	0	
2	0	0	0	0	671	506	0	569	0	0	
3	0	0	0	0	615	506	0	376	0	0	
4	0	0	0	0	554	504	0	186	0	0	
5	0	0	0	0	492	501	0	19	0	0	
6	0	0	0	0	436	496	0	0	0	0	
7	0	0	0	0	391	491	0	0	0	0	
8	0	0	0	0	359	485	0	0	0	0	
9	0	0	0	0	345	480	0	0	0	0	
10	0	0	0	0	351	475	0	38	0	0	
11	0	0	0	0	373	470	0	143	0	0	
12	0	0	0	0	411	467	0	287	0	0	
13	0	0	0	0	460	465	0	456	0	0	
14	0	0	0	0	514	465	0	631	0	0	
15	0	0	0	0	571	467	0	791	0	0	
0	0	0	0	0	622	470	0	922	0	0	
1	0	0	0	0	666	476	0	1008	0	0	
2	0	0	0	0	698	482	0	1021	0	0	
3	0	0	0	0	715	489	0	1005	0	0	
4	0	0	0	0	716	498	0	925	0	0	
5	0	0	0	0	703	506	0	794	0	0	
6	0	0	0	0	675	514	0	627	0	0	
7	0	0	0	0	635	519	0	441	0	0	
8	0	0	0	0	587	524	0	255	0	0	
9	0	0	0	0	539	527	0	87	0	0	
10	0	0	0	0	492	528	0	0	0	0	
11	0	0	0	0	451	526	0	0	0	0	
12	0	0	0	0	423	524	0	0	0	0	
13	0	0	0	0	408	519	0	0	0	0	
14	0	0	0	0	408	513	0	42	0	0	
15	0	0	0	0	424	507	0	149	0	0	
0	0	0	0	0	453	499	0	293	0	0	
1	0	0	0	0	491	492	0	462	0	0	
2	0	0	0	0	535	486	0	635	0	0	
3	0	0	0	0	579	480	0	792	0	0	
4	0	0	0	0	620	476	0	918	0	0	
5	0	0	0	0	654	475	0	999	0	0	
6	0	0	0	0	677	475	0	1020	0	0	
7	0	0	0	0	687	477	0	992	0	0	
8	0	0	0	0	683	481	0	902	0	0	
9	0	0	0	0	664	487	0	764	0	0	
10	0	0	0	0	634	492	0	591	0	0	
11	0	0	0	0	595	499	0	403	0	0	
12	0	0	0	0	552	504	0	216	0	0	
13	0	0	0	0	509	509	0	52	0	0	
14	0	0	0	0	471	512	0	0	0	0	
15	0	0	0	0	441	515	0	0	0	0	
0	0	0	0	0	423	515	0	0	0	0	
1	0	0	0	0	419	514	0	0	0	0	
2	0	0	0	0	431	512	0	55	0	0	
3	0	0	0	0	455	508	0	173	0	0	
4	0	0	0	0	491	504	0	330	0	0	
5	0	0	0	0	534	499	0	511	0	0	
6	0	0	0	0	580	494	0	696	0	0	
7	0	0	0	0	625	488	0	863	0	0	
8	0	0	0	0	664	483	0	995	0	0	
9	0	0	0	0	694	479	0	1020	0	0	
10	0	0	0	0	711	476	0	1021	0	0	
11	0	0	0	0	714	475	0	1014	0	0	
12	0	0	0	0	701	475	0	926	0	0	
13	0	0	0	0	675	477	0	791	0	0	
14	0	0	0	0	636	480	0	618	0	0	
15	0	0	0	0	589	484	0	427	0	0	
0	0	0	0	0	539	489	0	236	0	0	
1	0	0	0	0	489	493	0	68	0	0	
2	0	0	0	0	446	497	0	0	0	0	
3	0	0	0	0	412	499	0	0	0	0	
4	0	0	0	0	391	500	0	0	0	0	
5	0	0	0	0	385	500	0	0	0	0	
6	0	0	0	0	395	497	0	63	0	0	
7	0	0	0	0	420	495	0	189	0	0	
8	0	0	0	0	456	491	0	354	0	0	
9	0	0	0	0	502	486	0	543	0	0	
10	0	0	0	0	551	481	0	736	0	0	
11	0	0	0	0	599	478	0	910	0	0	
12	0	0	0	0	643	476	0	1020	0	0	
13	0	0	0	0	676	475	0	1021	0	0	
14	0	0	0	0	696	475	0	1021	0	0	
15	0	0	0	0	702	477	0	1020	0	0	
0	0	0	0	0	691	480	0	952	0	0	
1	0	0	0	0	666	484	0	827	0	0	
2	0	0	0	0	628	489	0	664	0	0	
3	0	0	0	0	581	495	0	480	0	0	
4	0	0	0	0	531	501	0	295	0	0	
5	0	0	0	0	483	505	0	127	0	0	
6	0	0	0	0	440	510	0	0	0	0	
7	0	0	0	0	409	513	0	0	0	0	
8	0	0	0	0	391	514	0	0	0	0	
9	0	0	0	0	388	514	0	0	0	0	
10	0	0	0	0	401	512	0	52	0	0	
11	0	0	0	0	429	508	0	169	0	0	
12	0	0	0	0	469	504	0	326	0	0	
13	0	0	0	0	516	499	0	508	0	0	
14	0	0	0	0	567	494	0	696	0	0	
15	0	0	0	0	615	489	0	867	0	0	
0	0	0	0	0	658	486	0	1004	0	0	
1	0	0	0	0	691	484	0	1021	0	0	
2	0	0	0	0	710	484	0	1021	0	0	
3	0	0	0	0	714	486	0	1020	0	0	
4	0	0	0	0	702	489	0	951	0	0	
5	0	0	0	0	675	493	0	829	0	0	
6	0	0	0	0	636	498	0	670	0	0	
7	0	0	0	0	587	502	0	492	0	0	
8	0	0	0	0	534	505	0	312	0	0	
9	0	0	0	0	481	507	0	150	0	0	
10	0	0	0	0	433	506	0	21	0	0	
11	0	0	0	0	394	504	0	0	0	0	
12	0	0	0	0	368	499	0	0	0	0	
13	0	0	0	0	356	492	0	0	0	0	
14	0	0	0	0	361	484	0	72	0	0	
15	0	0	0	0	383	476	0	197	0	0	
0	0	0	0	0	419	469	0	360	0	0	
1	0	0	0	0	464	462	0	545	0	0	
2	0	0	0	0	516	458	0	735	0	0	
3	0	0	0	0	569	455	0	904	0	0	
4	0	0	0	0	620	455	0	1020	0	0	
5	0	0	0	0	662	457	0	1021	0	0	
6	0	0	0	0	692	461	0	1021	0	0	
7	0	0	0	0	707	467	0	1020	0	0	
8	0	0	0	0	707	474	0	948	0	0	
9	0	0	0	0	692	482	0	823	0	0	
10	0	0	0	0	662	489	0	660	0	0	
11	0	0	0	0	620	496	0	477	0	0	
12	0	0	0	0	572	502	0	291	0	0	
13	0	0	0	0	522	505	0	123	0	0	
14	0	0	0	0	475	507	0	0	0	0	
15	0	0	0	0	435	507	0	0	0	0	
0	0	0	0	0	407	505	0	0	0	0	
1	0	0	0	0	391	500	0	0	0	0	
2	0	0	0	0	393	495	0	56	0	0	
3	0	0	0	0	409	488	0	176	0	0	
4	0	0	0	0	438	481	0	339	0	0	
5	0	0	0	0	477	475	0	528	0	0	
6	0	0	0	0	522	469	0	724	0	0	
7	0	0	0	0	567	464	0	905	0	0	
8	0	0	0	0	608	462	0	1020	0	0	
9	0	0	0	0	643	461	0	1021	0	0	
10	0	0	0	0	666	462	0	1021	0	0	
11	0	0	0	0	676	465	0	1020	0	0	
12	0	0	0	0	671	470	0	982	0	0	
13	0	0	0	0	654	476	0	875	0	0	
14	0	0	0	0	624	482	0	727	0	0	
15	0	0	0	0	584	487	0	554	0	0	
0	0	0	0	0	540	492	0	375	0	0	
1	0	0	0	0	496	496	0	206	0	0	
2	0	0	0	0	456	497	0	65	0	0	
3	0	0	0	0	424	498	0	0	0	0	
4	0	0	0	0	402	496	0	0	0	0	
5	0	0	0	0	394	492	0	0	0	0	
6	0	0	0	0	400	487	0	44	0	0	
7	0	0	0	0	420	482	0	153	0	0	
8	0	0	0	0	453	476	0	305	0	0	
9	0	0	0	0	494	472	0	483	0	0	
10	0	0	0	0	540	467	0	669	0	0	
11	0	0	0	0	587	465	0	841	0	0	
12	0	0	0	0	631	465	0	984	0	0	
13	0	0	0	0	667	467	0	1021	0	0	
14	0	0	0	0	692	470	0	1021	0	0	
15	0	0	0	0	703	474	0	1020	0	0	
0	0	0	0	0	699	480	0	963	0	0	
1	0	0	0	0	681	485	0	845	0	0	
2	0	0	0	0	649	491	0	688	0	0	
3	0	0	0	0	608	495	0	510	0	0	
4	0	0	0	0	561	499	0	327	0	0	
5	0	0	0	0	514	501	0	159	0	0	
6	0	0	0	0	470	502	0	23	0	0	
7	0	0	0	0	434	501	0	0	0	0	
8	0	0	0	0	410	499	0	0	0	0	
9	0	0	0	0	399	495	0	0	0	0	
10	0	0	0	0	403	491	0	52	0	0	
11	0	0	0	0	423	486	0	168	0	0	
12	0	0	0	0	455	482	0	325	0	0	
13	0	0	0	0	496	478	0	509	0	0	
14	0	0	0	0	541	476	0	699	0	0	
15	0	0	0	0	587	474	0	874	0	0	
0	0	0	0	0	629	474	0	1016	0	0	
1	0	0	0	0	663	475	0	1020	0	0	
2	0	0	0	0	684	478	0	1021	0	0	
3	0	0	0	0	691	481	0	1021	0	0	
4	0	0	0	0	683	485	0	967	0	0	
5	0	0	0	0	659	489	0	853	0	0	
6	0	0	0	0	623	493	0	700	0	0	
7	0	0	0	0	577	496	0	525	0	0	
8	0	0	0	0	526	498	0	346	0	0	
9	0	0	0	0	475	499	0	183	0	0	
10	0	0	0	0	431	499	0	51	0	0	
11	0	0	0	0	395	498	0	0	0	0	
12	0	0	0	0	372	496	0	0	0	0	
13	0	0	0	0	366	492	0	0	0	0	
14	0	0	0	0	376	489	0	75	0	0	
15	0	0	0	0	400	485	0	204	0	0	
0	0	0	0	0	439	480	0	372	0	0	
1	0	0	0	0	485	476	0	565	0	0	
2	0	0	0	0	535	472	0	762	0	0	
3	0	0	0	0	585	469	0	940	0	0	
4	0	0	0	0	631	467	0	1020	0	0	
5	0	0	0	0	667	466	0	1021	0	0	
6	0	0	0	0	691	467	0	1021	0	0	
7	0	0	0	0	700	470	0	1021	0	0	
8	0	0	0	0	695	473	0	971	0	0	
9	0	0	0	0	675	478	0	856	0	0	
10	0	0	0	0	642	483	0	701	0	0	
11	0	0	0	0	600	487	0	524	0	0	
12	0	0	0	0	553	492	0	341	0	0	
13	0	0	0	0	506	495	0	174	0	0	
14	0	0	0	0	463	497	0	38	0	0	
15	0	0	0	0	429	498	0	0	0	0	
0	0	0	0	0	405	497	0	0	0	0	
1	0	0	0	0	396	494	0	0	0	0	
2	0	0	0	0	401	490	0	60	0	0	
3	0	0	0	0	422	485	0	179	0	0	
4	0	0	0	0	455	479	0	337	0	0	
5	0	0	0	0	496	472	0	520	0	0	
6	0	0	0	0	541	465	0	708	0	0	
7	0	0	0	0	587	460	0	879	0	0	
8	0	0	0	0	627	456	0	1016	0	0	
9	0	0	0	0	659	453	0	1021	0	0	
10	0	0	0	0	680	453	0	1021	0	0	
11	0	0	0	0	688	455	0	1021	0	0	
12	0	0	0	0	682	459	0	954	0	0	
13	0	0	0	0	663	465	0	831	0	0	
14	0	0	0	0	632	473	0	670	0	0	
15	0	0	0	0	594	480	0	487	0	0	
0	0	0	0	0	551	488	0	300	0	0	
1	0	0	0	0	508	495	0	129	0	0	
2	0	0	0	0	470	499	0	0	0	0	
3	0	0	0	0	438	502	0	0	0	0	
4	0	0	0	0	417	502	0	0	0	0	
5	0	0	0	0	408	499	0	0	0	0	
6	0	0	0	0	412	495	0	40	0	0	
7	0	0	0	0	430	488	0	148	0	0	
8	0	0	0	0	459	481	0	297	0	0	
9	0	0	0	0	496	474	0	472	0	0	
10	0	0	0	0	538	467	0	654	0	0	
11	0	0	0	0	582	462	0	823	0	0	
12	0	0	0	0	622	459	0	959	0	0	
13	0	0	0	0	654	457	0	1021	0	0	
14	0	0	0	0	678	457	0	1020	0	0	
15	0	0	0	0	688	459	0	1016	0	0	
0	0	0	0	0	686	463	0	934	0	0	
1	0	0	0	0	669	467	0	800	0	0	
2	0	0	0	0	640	472	0	629	0	0	
3	0	0	0	0	603	476	0	438	0	0	
4	0	0	0	0	559	480	0	244	0	0	
5	0	0	0	0	516	483	0	71	0	0	
6	0	0	0	0	476	486	0	0	0	0	
7	0	0	0	0	443	487	0	0	0	0	
8	0	0	0	0	420	487	0	0	0	0	
9	0	0	0	0	410	484	0	0	0	0	
10	0	0	0	0	413	481	0	33	0	0	
11	0	0	0	0	431	478	0	137	0	0	
12	0	0	0	0	459	473	0	283	0	0	
13	0	0	0	0	497	470	0	454	0	0	
14	0	0	0	0	540	466	0	632	0	0	
15	0	0	0	0	583	465	0	796	0	0	
0	0	0	0	0	623	465	0	929	0	0	
1	0	0	0	0	657	466	0	1017	0	0	
2	0	0	0	0	681	470	0	1020	0	0	
3	0	0	0	0	693	475	0	1008	0	0	
4	0	0	0	0	691	481	0	927	0	0	
5	0	0	0	0	676	488	0	795	0	0	
6	0	0	0	0	649	495	0	626	0	0	
7	0	0	0	0	612	501	0	438	0	0	
8	0	0	0	0	570	506	0	250	0	0	
9	0	0	0	0	527	510	0	83	0	0	
10	0	0	0	0	489	511	0	0	0	0	
11	0	0	0	0	457	511	0	0	0	0	
12	0	0	0	0	437	510	0	0	0	0	
13	0	0	0	0	430	505	0	0	0	0	
14	0	0	0	0	437	500	0	59	0	0	
15	0	0	0	0	458	494	0	179	0	0	
0	0	0	0	0	491	486	0	340	0	0	
1	0	0	0	0	531	478	0	525	0	0	
2	0	0	0	0	575	471	0	715	0	0	
3	0	0	0	0	618	465	0	888	0	0	
4	0	0	0	0	657	461	0	1020	0	0	
5	0	0	0	0	687	459	0	1021	0	0	
6	0	0	0	0	706	459	0	1021	0	0	
7	0	0	0	0	711	461	0	1020	0	0	
8	0	0	0	0	703	465	0	949	0	0	
9	0	0	0	0	680	471	0	821	0	0	
10	0	0	0	0	646	477	0	656	0	0	
11	0	0	0	0	603	483	0	470	0	0	
12	0	0	0	0	556	488	0	281	0	0	
13	0	0	0	0	510	493	0	110	0	0	
14	0	0	0	0	469	497	0	0	0	0	
15	0	0	0	0	436	499	0	0	0	0	
0	0	0	0	0	417	500	0	0	0	0	
1	0	0	0	0	412	500	0	0	0	0	
2	0	0	0	0	421	499	0	55	0	0	
3	0	0	0	0	446	497	0	177	0	0	
4	0	0	0	0	482	494	0	340	0	0	
5	0	0	0	0	527	492	0	529	0	0	
6	0	0	0	0	576	488	0	724	0	0	
7	0	0	0	0	624	486	0	903	0	0	
8	0	0	0	0	669	485	0	1020	0	0	
9	0	0	0	0	704	484	0	1021	0	0	
10	0	0	0	0	727	485	0	1021	0	0	
11	0	0	0	0	736	487	0	1021	0	0	
12	0	0	0	0	728	490	0	973	0	0	
13	0	0	0	0	708	494	0	861	0	0	
14	0	0	0	0	674	498	0	710	0	0	
15	0	0	0	0	631	501	0	536	0	0	
0	0	0	0	0	583	504	0	358	0	0	
1	0	0	0	0	535	506	0	192	0	0	
2	0	0	0	0	492	507	0	56	0	0	
3	0	0	0	0	456	507	0	0	0	0	
4	0	0	0	0	433	504	0	0	0	0	
5	0	0	0	0	424	502	0	0	0	0	
6	0	0	0	0	431	499	0	50	0	0	
7	0	0	0	0	452	494	0	161	0	0	
8	0	0	0	0	487	491	0	313	0	0	
9	0	0	0	0	530	488	0	491	0	0	
10	0	0	0	0	580	486	0	674	0	0	
11	0	0	0	0	628	485	0	844	0	0	
12	0	0	0	0	674	486	0	982	0	0	
13	0	0	0	0	711	487	0	1021	0	0	
14	0	0	0	0	735	489	0	1021	0	0	
15	0	0	0	0	744	492	0	1020	0	0	
0	0	0	0	0	736	494	0	953	0	0	
1	0	0	0	0	712	496	0	830	0	0	
2	0	0	0	0	673	496	0	669	0	0	
3	0	0	0	0	622	496	0	486	0	0	
4	0	0	0	0	564	494	0	299	0	0	
5	0	0	0	0	505	490	0	129	0	0	
6	0	0	0	0	451	487	0	0	0	0	
7	0	0	0	0	406	483	0	0	0	0	
8	0	0	0	0	375	480	0	0	0	0	
9	0	0	0	0	360	478	0	0	0	0	
10	0	0	0	0	363	475	0	49	0	0	
11	0	0	0	0	384	473	0	164	0	0	
12	0	0	0	0	420	472	0	323	0	0	
13	0	0	0	0	467	472	0	508	0	0	
14	0	0	0	0	520	473	0	700	0	0	
15	0	0	0	0	574	476	0	875	0	0	
0	0	0	0	0	625	480	0	1017	0	0	
1	0	0	0	0	666	484	0	1020	0	0	
2	0	0	0	0	696	490	0	1021	0	0	
3	0	0	0	0	711	496	0	1021	0	0	
4	0	0	0	0	709	502	0	959	0	0	
5	0	0	0	0	691	508	0	836	0	0	
6	0	0	0	0	660	513	0	673	0	0	
7	0	0	0	0	619	517	0	488	0	0	
8	0	0	0	0	572	519	0	297	0	0	
9	0	0	0	0	524	519	0	124	0	0	
10	0	0	0	0	479	517	0	0	0	0	
11	0	0	0	0	442	512	0	0	0	0	
12	0	0	0	0	415	504	0	0	0	0	
13	0	0	0	0	400	493	0	0	0	0	
14	0	0	0	0	399	480	0	43	0	0	
15	0	0	0	0	411	467	0	156	0	0	
0	0	0	0	0	434	452	0	314	0	0	
1	0	0	0	0	465	437	0	501	0	0	
2	0	0	0	0	500	423	0	697	0	0	
3	0	0	0	0	533	409	0	879	0	0	
4	0	0	0	0	563	398	0	1020	0	0	
5	0	0	0	0	584	387	0	1021	0	0	
6	0	0	0	0	593	378	0	1021	0	0	
7	0	0	0	0	587	369	0	1020	0	0	
8	0	0	0	0	566	362	0	972	0	0	
9	0	0	0	0	531	355	0	852	0	0	
10	0	0	0	0	484	349	0	688	0	0	
11	0	0	0	0	430	343	0	497	0	0	
12	0	0	0	0	372	336	0	297	0	0	
13	0	0	0	0	316	330	0	111	0	0	
14	0	0	0	0	268	325	0	0	0	0	
15	0	0	0	0	229	320	0	0	0	0	
0	0	0	0	0	204	315	0	0	0	0	
1	0	0	0	0	195	311	0	0	0	0	
2	0	0	0	0	202	307	0	6	0	0	
3	0	0	0	0	227	304	0	92	0	0	
4	0	0	0	0	267	302	0	227	0	0	
5	0	0	0	0	317	301	0	393	0	0	
6	0	0	0	0	373	302	0	574	0	0	
7	0	0	0	0	430	304	0	748	0	0	
8	0	0	0	0	483	307	0	898	0	0	
9	0	0	0	0	527	312	0	1005	0	0	
10	0	0	0	0	559	319	0	1021	0	0	
11	0	0	0	0	576	327	0	1021	0	0	
12	0	0	0	0	575	335	0	960	0	0	
13	0	0	0	0	560	345	0	840	0	0	
14	0	0	0	0	532	356	0	677	0	0	
15	0	0	0	0	495	368	0	487	0	0	
0	0	0	0	0	453	380	0	291	0	0	
1	0	0	0	0	412	391	0	109	0	0	
2	0	0	0	0	377	403	0	0	0	0	
3	0	0	0	0	351	414	0	0	0	0	
4	0	0	0	0	337	423	0	0	0	0	
5	0	0	0	0	338	432	0	0	0	0	
6	0	0	0	0	352	438	0	6	0	0	
7	0	0	0	0	382	442	0	88	0	0	
8	0	0	0	0	422	446	0	216	0	0	
9	0	0	0	0	471	448	0	371	0	0	
10	0	0	0	0	522	449	0	540	0	0	
11	0	0	0	0	574	451	0	700	0	0	
12	0	0	0	0	622	455	0	836	0	0	
13	0	0	0	0	660	460	0	931	0	0	
14	0	0	0	0	688	465	0	976	0	0	
15	0	0	0	0	704	473	0	967	0	0	
0	0	0	0	0	705	481	0	901	0	0	
1	0	0	0	0	692	491	0	786	0	0	
2	0	0	0	0	668	500	0	634	0	0	
3	0	0	0	0	634	509	0	461	0	0	
4	0	0	0	0	594	517	0	286	0	0	
5	0	0	0	0	553	524	0	126	0	0	
6	0	0	0	0	516	528	0	0	0	0	
7	0	0	0	0	484	530	0	0	0	0	
8	0	0	0	0	463	529	0	0	0	0	
9	0	0	0	0	453	526	0	0	0	0	
10	0	0	0	0	456	522	0	38	0	0	
11	0	0	0	0	472	516	0	140	0	0	
12	0	0	0	0	500	511	0	280	0	0	
13	0	0	0	0	536	505	0	445	0	0	
14	0	0	0	0	577	500	0	615	0	0	
15	0	0	0	0	617	497	0	771	0	0	
0	0	0	0	0	655	496	0	898	0	0	
1	0	0	0	0	685	497	0	983	0	0	
2	0	0	0	0	705	500	0	1015	0	0	
3	0	0	0	0	713	505	0	990	0	0	
4	0	0	0	0	706	511	0	909	0	0	
5	0	0	0	0	687	518	0	780	0	0	
6	0	0	0	0	655	525	0	617	0	0	
7	0	0	0	0	614	531	0	437	0	0	
8	0	0	0	0	568	536	0	256	0	0	
9	0	0	0	0	521	539	0	95	0	0	
10	0	0	0	0	479	541	0	0	0	0	
11	0	0	0	0	444	541	0	0	0	0	
12	0	0	0	0	421	540	0	0	0	0	
13	0	0	0	0	411	536	0	0	0	0	
14	0	0	0	0	416	531	0	54	0	0	
15	0	0	0	0	436	525	0	168	0	0	
0	0	0	0	0	470	519	0	322	0	0	
1	0	0	0	0	512	513	0	499	0	0	
2	0	0	0	0	560	508	0	681	0	0	
3	0	0	0	0	609	505	0	847	0	0	
4	0	0	0	0	656	503	0	983	0	0	
5	0	0	0	0	695	503	0	1021	0	0	
6	0	0	0	0	722	504	0	1021	0	0	
7	0	0	0	0	737	507	0	1020	0	0	
8	0	0	0	0	736	510	0	945	0	0	
9	0	0	0	0	720	515	0	818	0	0	
10	0	0	0	0	690	519	0	653	0	0	
11	0	0	0	0	649	524	0	467	0	0	
12	0	0	0	0	602	527	0	278	0	0	
13	0	0	0	0	552	528	0	106	0	0	
14	0	0	0	0	506	528	0	0	0	0	
15	0	0	0	0	466	526	0	0	0	0	
0	0	0	0	0	438	523	0	0	0	0	
1	0	0	0	0	423	517	0	0	0	0	
2	0	0	0	0	423	511	0	37	0	0	
3	0	0	0	0	440	505	0	144	0	0	
4	0	0	0	0	471	499	0	294	0	0	
5	0	0	0	0	512	494	0	470	0	0	
6	0	0	0	0	558	489	0	654	0	0	
7	0	0	0	0	606	487	0	824	0	0	
8	0	0	0	0	652	486	0	963	0	0	
9	0	0	0	0	690	487	0	1020	0	0	
10	0	0	0	0	717	489	0	1021	0	0	
11	0	0	0	0	732	495	0	1020	0	0	
12	0	0	0	0	732	501	0	952	0	0	
13	0	0	0	0	718	508	0	830	0	0	
14	0	0	0	0	691	516	0	669	0	0	
15	0	0	0	0	654	524	0	486	0	0	
0	0	0	0	0	610	531	0	299	0	0	
1	0	0	0	0	566	537	0	128	0	0	
2	0	0	0	0	524	542	0	0	0	0	
3	0	0	0	0	490	544	0	0	0	0	
4	0	0	0	0	465	545	0	0	0	0	
5	0	0	0	0	453	543	0	0	0	0	
6	0	0	0	0	455	540	0	40	0	0	
7	0	0	0	0	471	535	0	150	0	0	
8	0	0	0	0	499	528	0	300	0	0	
9	0	0	0	0	536	522	0	476	0	0	
10	0	0	0	0	578	515	0	659	0	0	
11	0	0	0	0	620	510	0	828	0	0	
12	0	0	0	0	661	506	0	965	0	0	
13	0	0	0	0	694	504	0	1021	0	0	
14	0	0	0	0	718	504	0	1021	0	0	
15	0	0	0	0	728	505	0	1020	0	0	
0	0	0	0	0	725	508	0	946	0	0	
1	0	0	0	0	708	512	0	821	0	0	
2	0	0	0	0	679	516	0	659	0	0	
3	0	0	0	0	640	520	0	477	0	0	
4	0	0	0	0	596	524	0	292	0	0	
5	0	0	0	0	550	527	0	125	0	0	
6	0	0	0	0	508	528	0	0	0	0	
7	0	0	0	0	472	528	0	0	0	0	
8	0	0	0	0	448	526	0	0	0	0	
9	0	0	0	0	436	523	0	0	0	0	
10	0	0	0	0	438	518	0	53	0	0	
11	0	0	0	0	454	512	0	169	0	0	
12	0	0	0	0	483	506	0	326	0	0	
13	0	0	0	0	520	501	0	507	0	0	
14	0	0	0	0	564	496	0	696	0	0	
15	0	0	0	0	607	494	0	867	0	0	
0	0	0	0	0	648	492	0	1006	0	0	
1	0	0	0	0	682	492	0	1020	0	0	
2	0	0	0	0	704	495	0	1021	0	0	
3	0	0	0	0	713	497	0	1021	0	0	
4	0	0	0	0	707	502	0	949	0	0	
5	0	0	0	0	687	505	0	824	0	0	
6	0	0	0	0	654	510	0	659	0	0	
7	0	0	0	0	612	513	0	473	0	0	
8	0	0	0	0	565	515	0	283	0	0	
9	0	0	0	0	518	518	0	112	0	0	
10	0	0	0	0	476	519	0	0	0	0	
11	0	0	0	0	441	518	0	0	0	0	
12	0	0	0	0	419	516	0	0	0	0	
13	0	0	0	0	412	513	0	0	0	0	
14	0	0	0	0	418	509	0	40	0	0	
15	0	0	0	0	440	505	0	148	0	0	
0	0	0	0	0	474	500	0	299	0	0	
1	0	0	0	0	518	497	0	476	0	0	
2	0	0	0	0	566	493	0	660	0	0	
3	0	0	0	0	616	492	0	831	0	0	
4	0	0	0	0	663	492	0	970	0	0	
5	0	0	0	0	702	494	0	1021	0	0	
6	0	0	0	0	729	497	0	1021	0	0	
7	0	0	0	0	743	501	0	1020	0	0	
8	0	0	0	0	742	507	0	954	0	0	
9	0	0	0	0	726	513	0	831	0	0	
10	0	0	0	0	697	519	0	671	0	0	
11	0	0	0	0	657	525	0	488	0	0	
12	0	0	0	0	611	530	0	303	0	0	
13	0	0	0	0	563	534	0	134	0	0	
14	0	0	0	0	519	536	0	0	0	0	
15	0	0	0	0	480	537	0	0	0	0	
0	0	0	0	0	451	535	0	0	0	0	
1	0	0	0	0	436	531	0	0	0	0	
2	0	0	0	0	434	525	0	50	0	0	
3	0	0	0	0	446	518	0	165	0	0	
4	0	0	0	0	471	510	0	321	0	0	
5	0	0	0	0	504	501	0	503	0	0	
6	0	0	0	0	543	494	0	691	0	0	
7	0	0	0	0	585	487	0	865	0	0	
8	0	0	0	0	624	483	0	1006	0	0	
9	0	0	0	0	657	481	0	1021	0	0	
10	0	0	0	0	682	482	0	1021	0	0	
11	0	0	0	0	695	484	0	1020	0	0	
12	0	0	0	0	694	488	0	962	0	0	
13	0	0	0	0	682	494	0	844	0	0	
14	0	0	0	0	656	500	0	685	0	0	
15	0	0	0	0	622	507	0	502	0	0	
0	0	0	0	0	581	513	0	313	0	0	
1	0	0	0	0	537	518	0	137	0	0	
2	0	0	0	0	497	521	0	0	0	0	
3	0	0	0	0	462	522	0	0	0	0	
4	0	0	0	0	436	520	0	0	0	0	
5	0	0	0	0	422	517	0	0	0	0	
6	0	0	0	0	421	511	0	15	0	0	
7	0	0	0	0	433	503	0	106	0	0	
8	0	0	0	0	457	495	0	240	0	0	
9	0	0	0	0	491	486	0	404	0	0	
10	0	0	0	0	529	477	0	579	0	0	
11	0	0	0	0	570	471	0	749	0	0	
12	0	0	0	0	609	466	0	892	0	0	
13	0	0	0	0	642	463	0	994	0	0	
14	0	0	0	0	667	463	0	1021	0	0	
15	0	0	0	0	679	465	0	1020	0	0	
0	0	0	0	0	680	470	0	957	0	0	
1	0	0	0	0	668	476	0	841	0	0	
2	0	0	0	0	644	482	0	684	0	0	
3	0	0	0	0	611	488	0	502	0	0	
4	0	0	0	0	572	493	0	315	0	0	
5	0	0	0	0	532	498	0	140	0	0	
6	0	0	0	0	494	500	0	0	0	0	
7	0	0	0	0	462	501	0	0	0	0	
8	0	0	0	0	439	500	0	0	0	0	
9	0	0	0	0	428	497	0	0	0	0	
10	0	0	0	0	431	493	0	23	0	0	
11	0	0	0	0	446	487	0	120	0	0	
12	0	0	0	0	474	481	0	260	0	0	
13	0	0	0	0	510	475	0	429	0	0	
14	0	0	0	0	551	470	0	608	0	0	
15	0	0	0	0	594	465	0	776	0	0	
0	0	0	0	0	635	463	0	916	0	0	
1	0	0	0	0	670	463	0	1013	0	0	
2	0	0	0	0	695	464	0	1020	0	0	
3	0	0	0	0	707	467	0	1018	0	0	
4	0	0	0	0	708	473	0	944	0	0	
5	0	0	0	0	694	479	0	819	0	0	
6	0	0	0	0	668	485	0	653	0	0	
7	0	0	0	0	632	491	0	465	0	0	
8	0	0	0	0	590	496	0	273	0	0	
9	0	0	0	0	545	499	0	99	0	0	
10	0	0	0	0	503	501	0	0	0	0	
11	0	0	0	0	467	501	0	0	0	0	
12	0	0	0	0	441	498	0	0	0	0	
13	0	0	0	0	428	495	0	0	0	0	
14	0	0	0	0	430	490	0	37	0	0	
15	0	0	0	0	447	485	0	146	0	0	
0	0	0	0	0	477	481	0	298	0	0	
1	0	0	0	0	517	476	0	477	0	0	
2	0	0	0	0	562	473	0	664	0	0	
3	0	0	0	0	610	472	0	835	0	0	
4	0	0	0	0	655	471	0	975	0	0	
5	0	0	0	0	691	471	0	1021	0	0	
6	0	0	0	0	716	472	0	1021	0	0	
7	0	0	0	0	727	475	0	1020	0	0	
8	0	0	0	0	723	478	0	943	0	0	
9	0	0	0	0	703	480	0	814	0	0	
10	0	0	0	0	670	483	0	646	0	0	
11	0	0	0	0	626	486	0	456	0	0	
12	0	0	0	0	575	487	0	264	0	0	
13	0	0	0	0	522	489	0	90	0	0	
14	0	0	0	0	474	488	0	0	0	0	
15	0	0	0	0	432	487	0	0	0	0	
0	0	0	0	0	402	484	0	0	0	0	
1	0	0	0	0	387	480	0	0	0	0	
2	0	0	0	0	387	475	0	31	0	0	
3	0	0	0	0	403	469	0	137	0	0	
4	0	0	0	0	435	464	0	287	0	0	
5	0	0	0	0	477	460	0	466	0	0	
6	0	0	0	0	525	456	0	656	0	0	
7	0	0	0	0	576	456	0	835	0	0	
8	0	0	0	0	624	456	0	984	0	0	
9	0	0	0	0	665	458	0	1020	0	0	
10	0	0	0	0	694	462	0	1021	0	0	
11	0	0	0	0	708	466	0	1021	0	0	
12	0	0	0	0	707	471	0	979	0	0	
13	0	0	0	0	691	477	0	868	0	0	
14	0	0	0	0	659	482	0	715	0	0	
15	0	0	0	0	616	487	0	536	0	0	
0	0	0	0	0	566	489	0	349	0	0	
1	0	0	0	0	513	490	0	172	0	0	
2	0	0	0	0	462	490	0	25	0	0	
3	0	0	0	0	417	487	0	0	0	0	
4	0	0	0	0	384	482	0	0	0	0	
5	0	0	0	0	363	476	0	0	0	0	
6	0	0	0	0	359	469	0	22	0	0	
7	0	0	0	0	371	463	0	118	0	0	
8	0	0	0	0	400	457	0	259	0	0	
9	0	0	0	0	442	453	0	428	0	0	
10	0	0	0	0	493	451	0	609	0	0	
11	0	0	0	0	549	452	0	781	0	0	
12	0	0	0	0	605	455	0	924	0	0	
13	0	0	0	0	654	460	0	1020	0	0	
14	0	0	0	0	693	466	0	1021	0	0	
15	0	0	0	0	717	472	0	1020	0	0	
0	0	0	0	0	726	478	0	961	0	0	
1	0	0	0	0	716	483	0	844	0	0	
2	0	0	0	0	690	487	0	686	0	0	
3	0	0	0	0	651	490	0	504	0	0	
4	0	0	0	0	601	490	0	315	0	0	
5	0	0	0	0	547	490	0	141	0	0	
6	0	0	0	0	495	487	0	0	0	0	
7	0	0	0	0	449	483	0	0	0	0	
8	0	0	0	0	412	479	0	0	0	0	
9	0	0	0	0	391	473	0	0	0	0	
10	0	0	0	0	385	468	0	24	0	0	
11	0	0	0	0	396	463	0	123	0	0	
12	0	0	0	0	422	459	0	267	0	0	
13	0	0	0	0	460	457	0	441	0	0	
14	0	0	0	0	507	457	0	627	0	0	
15	0	0	0	0	557	459	0	806	0	0	
0	0	0	0	0	606	463	0	957	0	0	
1	0	0	0	0	648	468	0	1020	0	0	
2	0	0	0	0	681	475	0	1021	0	0	
3	0	0	0	0	700	482	0	1021	0	0	
4	0	0	0	0	704	490	0	988	0	0	
5	0	0	0	0	692	498	0	884	0	0	
6	0	0	0	0	666	504	0	737	0	0	
7	0	0	0	0	628	510	0	562	0	0	
8	0	0	0	0	582	513	0	376	0	0	
9	0	0	0	0	532	514	0	197	0	0	
10	0	0	0	0	484	513	0	44	0	0	
11	0	0	0	0	443	510	0	0	0	0	
12	0	0	0	0	411	506	0	0	0	0	
13	0	0	0	0	393	500	0	0	0	0	
14	0	0	0	0	391	494	0	3	0	0	
15	0	0	0	0	405	489	0	82	0	0	
0	0	0	0	0	433	483	0	205	0	0	
1	0	0	0	0	473	479	0	359	0	0	
2	0	0	0	0	520	476	0	527	0	0	
3	0	0	0	0	570	473	0	690	0	0	
4	0	0	0	0	618	474	0	830	0	0	
5	0	0	0	0	659	475	0	931	0	0	
6	0	0	0	0	691	479	0	984	0	0	
7	0	0	0	0	709	483	0	982	0	0	
8	0	0	0	0	712	488	0	924	0	0	
9	0	0	0	0	700	495	0	814	0	0	
10	0	0	0	0	673	500	0	666	0	0	
11	0	0	0	0	635	506	0	496	0	0	
12	0	0	0	0	588	510	0	320	0	0	
13	0	0	0	0	538	512	0	159	0	0	
14	0	0	0	0	491	514	0	27	0	0	
15	0	0	0	0	449	513	0	0	0	0	
0	0	0	0	0	417	511	0	0	0	0	
1	0	0	0	0	399	507	0	0	0	0	
2	0	0	0	0	395	502	0	48	0	0	
3	0	0	0	0	407	497	0	158	0	0	
4	0	0	0	0	433	491	0	308	0	0	
5	0	0	0	0	471	486	0	482	0	0	
6	0	0	0	0	515	481	0	662	0	0	
7	0	0	0	0	562	479	0	827	0	0	
8	0	0	0	0	607	478	0	960	0	0	
9	0	0	0	0	646	479	0	1021	0	0	
10	0	0	0	0	674	480	0	1021	0	0	
11	0	0	0	0	689	483	0	1016	0	0	
12	0	0	0	0	688	486	0	936	0	0	
13	0	0	0	0	672	489	0	807	0	0	
14	0	0	0	0	641	492	0	640	0	0	
15	0	0	0	0	601	494	0	454	0	0	
0	0	0	0	0	553	495	0	267	0	0	
1	0	0	0	0	505	497	0	99	0	0	
2	0	0	0	0	462	497	0	0	0	0	
3	0	0	0	0	426	498	0	0	0	0	
4	0	0	0	0	403	498	0	0	0	0	
5	0	0	0	0	394	497	0	0	0	0	
6	0	0	0	0	401	496	0	50	0	0	
7	0	0	0	0	424	496	0	166	0	0	
8	0	0	0	0	460	494	0	320	0	0	
9	0	0	0	0	506	494	0	500	0	0	
10	0	0	0	0	556	493	0	685	0	0	
11	0	0	0	0	606	492	0	854	0	0	
12	0	0	0	0	651	492	0	990	0	0	
13	0	0	0	0	687	492	0	1021	0	0	
14	0	0	0	0	711	493	0	1021	0	0	
15	0	0	0	0	720	494	0	1020	0	0	
0	0	0	0	0	713	495	0	941	0	0	
1	0	0	0	0	692	497	0	811	0	0	
2	0	0	0	0	657	499	0	643	0	0	
3	0	0	0	0	613	500	0	454	0	0	
4	0	0	0	0	564	501	0	263	0	0	
5	0	0	0	0	514	502	0	91	0	0	
6	0	0	0	0	469	503	0	0	0	0	
7	0	0	0	0	433	502	0	0	0	0	
8	0	0	0	0	409	500	0	0	0	0	
9	0	0	0	0	399	497	0	0	0	0	
10	0	0	0	0	405	493	0	39	0	0	
11	0	0	0	0	427	490	0	149	0	0	
12	0	0	0	0	462	487	0	302	0	0	
13	0	0	0	0	505	483	0	482	0	0	
14	0	0	0	0	555	481	0	670	0	0	
15	0	0	0	0	605	480	0	845	0	0	
0	0	0	0	0	651	479	0	990	0	0	
1	0	0	0	0	688	480	0	1021	0	0	
2	0	0	0	0	713	482	0	1021	0	0	
3	0	0	0	0	725	484	0	1020	0	0	
4	0	0	0	0	721	487	0	967	0	0	
5	0	0	0	0	703	492	0	849	0	0	
6	0	0	0	0	670	495	0	691	0	0	
7	0	0	0	0	627	497	0	509	0	0	
8	0	0	0	0	578	498	0	320	0	0	
9	0	0	0	0	526	498	0	145	0	0	
10	0	0	0	0	478	497	0	0	0	0	
11	0	0	0	0	437	495	0	0	0	0	
12	0	0	0	0	407	491	0	0	0	0	
13	0	0	0	0	390	487	0	0	0	0	
14	0	0	0	0	389	483	0	21	0	0	
15	0	0	0	0	404	479	0	115	0	0	
0	0	0	0	0	433	475	0	255	0	0	
1	0	0	0	0	473	472	0	423	0	0	
2	0	0	0	0	520	470	0	604	0	0	
3	0	0	0	0	569	470	0	776	0	0	
4	0	0	0	0	616	471	0	923	0	0	
5	0	0	0	0	658	473	0	1021	0	0	
6	0	0	0	0	689	477	0	1021	0	0	
7	0	0	0	0	708	483	0	1020	0	0	
8	0	0	0	0	711	488	0	972	0	0	
9	0	0	0	0	702	495	0	860	0	0	
10	0	0	0	0	677	501	0	708	0	0	
11	0	0	0	0	640	505	0	531	0	0	
12	0	0	0	0	596	508	0	347	0	0	
13	0	0	0	0	549	509	0	175	0	0	
14	0	0	0	0	504	509	0	32	0	0	
15	0	0	0	0	465	507	0	0	0	0	
0	0	0	0	0	436	503	0	0	0	0	
1	0	0	0	0	419	497	0	0	0	0	
2	0	0	0	0	418	491	0	42	0	0	
3	0	0	0	0	432	484	0	153	0	0	
4	0	0	0	0	460	477	0	307	0	0	
5	0	0	0	0	497	471	0	490	0	0	
6	0	0	0	0	542	466	0	680	0	0	
7	0	0	0	0	588	462	0	857	0	0	
8	0	0	0	0	631	460	0	1002	0	0	
9	0	0	0	0	668	461	0	1021	0	0	
10	0	0	0	0	695	463	0	1021	0	0	
11	0	0	0	0	709	467	0	1020	0	0	
12	0	0	0	0	708	472	0	970	0	0	
13	0	0	0	0	695	478	0	855	0	0	
14	0	0	0	0	667	484	0	699	0	0	
15	0	0	0	0	629	490	0	520	0	0	
0	0	0	0	0	585	496	0	334	0	0	
1	0	0	0	0	539	500	0	161	0	0	
2	0	0	0	0	496	503	0	18	0	0	
3	0	0	0	0	459	504	0	0	0	0	
4	0	0	0	0	433	504	0	0	0	0	
5	0	0	0	0	419	501	0	0	0	0	
6	0	0	0	0	419	496	0	30	0	0	
7	0	0	0	0	434	491	0	131	0	0	
8	0	0	0	0	460	485	0	277	0	0	
9	0	0	0	0	495	479	0	451	0	0	
10	0	0	0	0	535	473	0	635	0	0	
11	0	0	0	0	576	468	0	809	0	0	
12	0	0	0	0	614	464	0	954	0	0	
13	0	0	0	0	646	462	0	1021	0	0	
14	0	0	0	0	667	461	0	1021	0	0	
15	0	0	0	0	675	461	0	1021	0	0	
0	0	0	0	0	671	464	0	969	0	0	
1	0	0	0	0	652	468	0	854	0	0	
2	0	0	0	0	622	473	0	699	0	0	
3	0	0	0	0	582	478	0	518	0	0	
4	0	0	0	0	538	483	0	330	0	0	
5	0	0	0	0	493	487	0	156	0	0	
6	0	0	0	0	452	491	0	11	0	0	
7	0	0	0	0	419	494	0	0	0	0	
8	0	0	0	0	399	495	0	0	0	0	
9	0	0	0	0	392	496	0	0	0	0	
10	0	0	0	0	400	494	0	31	0	0	
11	0	0	0	0	423	492	0	135	0	0	
12	0	0	0	0	459	488	0	283	0	0	
13	0	0	0	0	503	484	0	460	0	0	
14	0	0	0	0	550	480	0	646	0	0	
15	0	0	0	0	597	476	0	820	0	0	
0	0	0	0	0	640	472	0	964	0	0	
1	0	0	0	0	673	469	0	1020	0	0	
2	0	0	0	0	694	467	0	1021	0	0	
3	0	0	0	0	702	467	0	1021	0	0	
4	0	0	0	0	694	469	0	956	0	0	
5	0	0	0	0	672	472	0	834	0	0	
6	0	0	0	0	639	476	0	671	0	0	
7	0	0	0	0	596	480	0	486	0	0	
8	0	0	0	0	550	485	0	295	0	0	
9	0	0	0	0	504	489	0	123	0	0	
10	0	0	0	0	464	495	0	0	0	0	
11	0	0	0	0	433	499	0	0	0	0	
12	0	0	0	0	414	502	0	0	0	0	
13	0	0	0	0	409	503	0	0	0	0	
14	0	0	0	0	420	504	0	38	0	0	
15	0	0	0	0	445	503	0	147	0	0	
0	0	0	0	0	481	501	0	300	0	0	
1	0	0	0	0	526	497	0	480	0	0	
2	0	0	0	0	573	492	0	671	0	0	
3	0	0	0	0	620	488	0	848	0	0	
4	0	0	0	0	661	484	0	996	0	0	
5	0	0	0	0	692	480	0	1021	0	0	
6	0	0	0	0	712	478	0	1021	0	0	
7	0	0	0	0	717	476	0	1021	0	0	
8	0	0	0	0	706	476	0	975	0	0	
9	0	0	0	0	682	479	0	862	0	0	
10	0	0	0	0	645	482	0	707	0	0	
11	0	0	0	0	599	487	0	527	0	0	
12	0	0	0	0	550	492	0	340	0	0	
13	0	0	0	0	500	496	0	167	0	0	
14	0	0	0	0	456	501	0	23	0	0	
15	0	0	0	0	420	504	0	0	0	0	
0	0	0	0	0	395	505	0	0	0	0	
1	0	0	0	0	384	504	0	0	0	0	
2	0	0	0	0	388	501	0	35	0	0	
3	0	0	0	0	407	497	0	141	0	0	
4	0	0	0	0	439	491	0	292	0	0	
5	0	0	0	0	480	485	0	472	0	0	
6	0	0	0	0	527	479	0	662	0	0	
7	0	0	0	0	575	474	0	839	0	0	
8	0	0	0	0	620	470	0	987	0	0	
9	0	0	0	0	658	467	0	1020	0	0	
10	0	0	0	0	685	467	0	1021	0	0	
11	0	0	0	0	699	469	0	1021	0	0	
12	0	0	0	0	697	472	0	972	0	0	
13	0	0	0	0	683	478	0	858	0	0	
14	0	0	0	0	654	485	0	702	0	0	
15	0	0	0	0	615	492	0	523	0	0	
0	0	0	0	0	570	498	0	336	0	0	
1	0	0	0	0	522	503	0	163	0	0	
2	0	0	0	0	477	507	0	19	0	0	
3	0	0	0	0	439	508	0	0	0	0	
4	0	0	0	0	410	507	0	0	0	0	
5	0	0	0	0	394	504	0	0	0	0	
6	0	0	0	0	392	498	0	33	0	0	
7	0	0	0	0	404	491	0	137	0	0	
8	0	0	0	0	431	482	0	284	0	0	
9	0	0	0	0	466	473	0	460	0	0	
10	0	0	0	0	509	465	0	646	0	0	
11	0	0	0	0	552	459	0	822	0	0	
12	0	0	0	0	593	453	0	967	0	0	
13	0	0	0	0	628	449	0	1021	0	0	
14	0	0	0	0	652	448	0	1021	0	0	
15	0	0	0	0	663	448	0	1020	0	0	
0	0	0	0	0	659	450	0	966	0	0	
1	0	0	0	0	643	453	0	847	0	0	
2	0	0	0	0	614	457	0	688	0	0	
3	0	0	0	0	576	463	0	503	0	0	
4	0	0	0	0	534	469	0	313	0	0	
5	0	0	0	0	493	476	0	137	0	0	
6	0	0	0	0	456	482	0	0	0	0	
7	0	0	0	0	428	488	0	0	0	0	
8	0	0	0	0	411	493	0	0	0	0	
9	0	0	0	0	408	496	0	0	0	0	
10	0	0	0	0	418	498	0	39	0	0	
11	0	0	0	0	443	498	0	150	0	0	
12	0	0	0	0	480	497	0	307	0	0	
13	0	0	0	0	524	496	0	493	0	0	
14	0	0	0	0	571	493	0	689	0	0	
15	0	0	0	0	617	491	0	871	0	0	
0	0	0	0	0	659	488	0	1020	0	0	
1	0	0	0	0	691	486	0	1021	0	0	
2	0	0	0	0	711	484	0	1021	0	0	
3	0	0	0	0	717	483	0	1021	0	0	
4	0	0	0	0	707	483	0	977	0	0	
5	0	0	0	0	683	483	0	862	0	0	
6	0	0	0	0	646	484	0	705	0	0	
7	0	0	0	0	600	487	0	522	0	0	
8	0	0	0	0	549	488	0	330	0	0	
9	0	0	0	0	499	490	0	151	0	0	
10	0	0	0	0	453	492	0	3	0	0	
11	0	0	0	0	416	493	0	0	0	0	
12	0	0	0	0	391	493	0	0	0	0	
13	0	0	0	0	381	492	0	0	0	0	
14	0	0	0	0	386	490	0	19	0	0	
15	0	0	0	0	407	487	0	115	0	0	
0	0	0	0	0	440	484	0	256	0	0	
1	0	0	0	0	484	481	0	430	0	0	
2	0	0	0	0	533	477	0	615	0	0	
3	0	0	0	0	583	474	0	792	0	0	
4	0	0	0	0	630	472	0	943	0	0	
5	0	0	0	0	669	471	0	1021	0	0	
6	0	0	0	0	696	471	0	1021	0	0	
7	0	0	0	0	710	472	0	1020	0	0	
8	0	0	0	0	708	475	0	979	0	0	
9	0	0	0	0	691	478	0	868	0	0	
10	0	0	0	0	660	481	0	716	0	0	
11	0	0	0	0	619	484	0	537	0	0	
12	0	0	0	0	570	487	0	350	0	0	
13	0	0	0	0	519	489	0	174	0	0	
14	0	0	0	0	472	490	0	28	0	0	
15	0	0	0	0	432	491	0	0	0	0	
0	0	0	0	0	403	490	0	0	0	0	
1	0	0	0	0	388	488	0	0	0	0	
2	0	0	0	0	389	486	0	28	0	0	
3	0	0	0	0	406	483	0	130	0	0	
4	0	0	0	0	436	479	0	276	0	0	
5	0	0	0	0	477	475	0	452	0	0	
6	0	0	0	0	524	471	0	639	0	0	
7	0	0	0	0	571	467	0	815	0	0	
8	0	0	0	0	615	463	0	962	0	0	
9	0	0	0	0	652	460	0	1021	0	0	
10	0	0	0	0	677	458	0	1021	0	0	
11	0	0	0	0	688	458	0	1020	0	0	
12	0	0	0	0	685	460	0	970	0	0	
13	0	0	0	0	667	462	0	855	0	0	
14	0	0	0	0	636	467	0	699	0	0	
15	0	0	0	0	595	472	0	517	0	0	
0	0	0	0	0	549	476	0	328	0	0	
1	0	0	0	0	503	481	0	152	0	0	
2	0	0	0	0	461	486	0	6	0	0	
3	0	0	0	0	427	489	0	0	0	0	
