# OpenSignals Text File Format. Version 1
# {"": {"position": 0, "device": "", "device name": "", "device connection": "", "sampling rate": 1000, "resolution": [4, 1, 1, 1, 1, 10, 10, 10, 10, 6, 6], "firmware version": 1281, "comments": "", "keywords": "", "mode": 0, "sync interval": 2, "date": "", "time": "", "channels": [1, 2, 3, 4, 5, 6], "sensor": ["RAW", "RAW", "RAW", "RAW", "RAW", "RAW"], "label": ["A1", "A2", "A3", "A4", "A5", "A6"], "column": ["nSeq", "I1", "I2", "O1", "O2", "A1", "A2", "A3", "A4", "A5", "A6"], "special": [{}, {}, {}, {}, {}, {}], "digital IO": [0, 0, 1, 1]}}
# EndOfHeader
0	0	0	0	0	1021	1021	1021	0	0	0	
1	0	0	0	0	1021	1021	1021	0	0	0	
2	0	0	0	0	1021	1021	1021	0	0	0	
3	0	0	0	0	1021	1021	1021	0	0	0	
4	0	0	0	0	1021	1021	1021	0	0	0	
5	0	0	0	0	1021	1021	1021	0	0	0	
6	0	0	0	0	1021	1021	1021	0	0	0	
7	0	0	0	0	1021	1021	1021	0	0	0	
8	0	0	0	0	1021	1021	1021	0	0	0	
9	0	0	0	0	1022	1021	1020	0	0	0	
10	0	0	0	0	1021	1021	1021	0	0	0	
11	0	0	0	0	1021	1021	1021	0	0	0	
12	0	0	0	0	1021	1021	1021	0	0	0	
13	0	0	0	0	1021	1021	1020	0	0	0	
14	0	0	0	0	1021	1021	1021	0	0	0	
15	0	0	0	0	1021	1021	1021	0	0	0	
0	0	0	0	0	1021	1021	1021	0	0	0	
1	0	0	0	0	1021	1021	1021	0	0	0	
2	0	0	0	0	1021	1021	1021	0	0	0	
3	0	0	0	0	1021	1021	1021	0	0	0	
4	0	0	0	0	1021	1021	1021	0	0	0	
5	0	0	0	0	1021	1021	1021	0	0	0	
6	0	0	0	0	1021	1021	1021	0	0	0	
7	0	0	0	0	1021	1021	1021	0	0	0	
8	0	0	0	0	1021	1021	1021	0	0	0	
9	0	0	0	0	1021	1021	1021	0	0	0	
10	0	0	0	0	1021	1021	1021	0	0	0	
11	0	0	0	0	1021	1021	1021	0	0	0	
12	0	0	0	0	1021	1021	1021	0	0	0	
13	0	0	0	0	1021	1021	1021	0	0	0	
14	0	0	0	0	1021	1021	1021	0	0	0	
15	0	0	0	0	1021	1021	1021	0	0	0	
0	0	0	0	0	1021	1021	1021	0	0	0	
1	0	0	0	0	1021	1022	1021	0	0	0	
2	0	0	0	0	1021	1021	1021	0	0	0	
3	0	0	0	0	1021	1021	1021	0	0	0	
4	0	0	0	0	1021	1021	1021	0	0	0	
5	0	0	0	0	1021	1021	1021	0	0	0	
6	0	0	0	0	1021	1021	1021	0	0	0	
7	0	0	0	0	1021	1021	1021	0	0	0	
8	0	0	0	0	1021	1021	1021	0	0	0	
9	0	0	0	0	1021	1021	1021	0	0	0	
10	0	0	0	0	1021	1021	1021	0	0	0	
11	0	0	0	0	1021	1021	1021	0	0	0	
12	0	0	0	0	1021	1021	1021	0	0	0	
13	0	0	0	0	1021	1021	1021	0	0	0	
14	0	0	0	0	1021	1021	1021	0	0	0	
15	0	0	0	0	1021	1021	1021	0	0	0	
0	0	0	0	0	1021	1021	1021	0	0	0	
1	0	0	0	0	1021	1021	1021	0	0	0	
2	0	0	0	0	1021	1021	1021	0	0	0	
3	0	0	0	0	1021	1021	1021	0	0	0	
4	0	0	0	0	1021	1021	1021	0	0	0	
5	0	0	0	0	1021	1021	1021	0	0	0	
6	0	0	0	0	1021	1021	1021	0	0	0	
7	0	0	0	0	1021	1021	1021	0	0	0	
8	0	0	0	0	1021	1021	1021	0	0	0	
9	0	0	0	0	1021	1021	1021	0	0	0	
10	0	0	0	0	1021	1021	1021	0	0	0	
11	0	0	0	0	1021	1021	1021	0	0	0	
12	0	0	0	0	1021	1021	1021	0	0	0	
13	0	0	0	0	1021	1021	1021	0	0	0	
14	0	0	0	0	1021	1021	1021	0	0	0	
15	0	0	0	0	1021	1021	1021	0	0	0	
0	0	0	0	0	1021	1021	1021	0	0	0	
1	0	0	0	0	1021	1021	1021	0	0	0	
2	0	0	0	0	1021	1021	1021	0	0	0	
3	0	0	0	0	1021	1021	1021	0	0	0	
4	0	0	0	0	1021	1021	1021	0	0	0	
5	0	0	0	0	1021	1021	1021	0	0	0	
6	0	0	0	0	1021	1021	1021	0	0	0	
7	0	0	0	0	1021	1021	1021	0	0	0	
8	0	0	0	0	1021	1021	1021	0	0	0	
9	0	0	0	0	1021	1021	1021	0	0	0	
10	0	0	0	0	1021	1021	1021	0	0	0	
11	0	0	0	0	1021	1021	1021	0	0	0	
12	0	0	0	0	1021	1021	1021	0	0	0	
13	0	0	0	0	1021	1021	1021	0	0	0	
14	0	0	0	0	1021	1021	1021	0	0	0	
15	0	0	0	0	1021	1021	1021	0	0	0	
0	0	0	0	0	1021	1021	1021	0	0	0	
1	0	0	0	0	1021	1021	1021	0	0	0	
2	0	0	0	0	1021	1021	1021	0	0	0	
3	0	0	0	0	1022	1021	1021	0	0	0	
4	0	0	0	0	1021	1021	1021	0	0	0	
5	0	0	0	0	1021	1021	1021	0	0	0	
6	0	0	0	0	1021	1021	1021	0	0	0	
7	0	0	0	0	1021	1021	1021	0	0	0	
8	0	0	0	0	1021	1022	1021	0	0	0	
9	0	0	0	0	1021	1021	1021	0	0	0	
10	0	0	0	0	1021	1021	1021	0	0	0	
11	0	0	0	0	1021	1021	1021	0	0	0	
12	0	0	0	0	1021	1021	1021	0	0	0	
13	0	0	0	0	1021	1021	1021	0	0	0	
14	0	0	0	0	1021	1021	1021	0	0	0	
15	0	0	0	0	1021	1021	1021	0	0	0	
0	0	0	0	0	1021	1021	1021	0	0	0	
1	0	0	0	0	1021	1021	1021	0	0	0	
2	0	0	0	0	1021	1021	1021	0	0	0	
3	0	0	0	0	1021	1021	1021	0	0	0	
4	0	0	0	0	1021	1021	1021	0	0	0	
5	0	0	0	0	1021	1021	1021	0	0	0	
6	0	0	0	0	1021	1021	1021	0	0	0	
7	0	0	0	0	1021	1022	1021	0	0	0	
8	0	0	0	0	1021	1021	1021	0	0	0	
9	0	0	0	0	1021	1021	1021	0	0	0	
10	0	0	0	0	1021	1021	1021	0	0	0	
11	0	0	0	0	1021	1021	1021	0	0	0	
12	0	0	0	0	1021	1021	1021	0	0	0	
13	0	0	0	0	1021	1021	1021	0	0	0	
14	0	0	0	0	1021	1021	1021	0	0	0	
15	0	0	0	0	1021	1021	1021	0	0	0	
0	0	0	0	0	1021	1021	1021	0	0	0	
1	0	0	0	0	1021	1021	1021	0	0	0	
2	0	0	0	0	1021	1021	1021	0	0	0	
3	0	0	0	0	1021	1021	1021	0	0	0	
4	0	0	0	0	1021	1021	1021	0	0	0	
5	0	0	0	0	1021	1022	1021	0	0	0	
6	0	0	0	0	1021	1021	1021	0	0	0	
7	0	0	0	0	1021	1021	1021	0	0	0	
8	0	0	0	0	1021	1021	1021	0	0	0	
9	0	0	0	0	1021	1021	1021	0	0	0	
10	0	0	0	0	1021	1021	1021	0	0	0	
11	0	0	0	0	1021	1021	1021	0	0	0	
12	0	0	0	0	1021	1021	1021	0	0	0	
13	0	0	0	0	1021	1021	1021	0	0	0	
14	0	0	0	0	1021	1021	1021	0	0	0	
15	0	0	0	0	1021	1021	1021	0	0	0	
0	0	0	0	0	1021	1021	1021	0	0	0	
1	0	0	0	0	1021	1021	1021	0	0	0	
2	0	0	0	0	1021	1021	1021	0	0	0	
3	0	0	0	0	1021	1021	1021	0	0	0	
4	0	0	0	0	1021	1021	1021	0	0	0	
5	0	0	0	0	1021	1022	1020	0	0	0	
6	0	0	0	0	1022	1021	1021	0	0	0	
7	0	0	0	0	1021	1021	1021	0	0	0	
8	0	0	0	0	1021	1021	1021	0	0	0	
9	0	0	0	0	1021	1021	1021	0	0	0	
10	0	0	0	0	1022	1021	1021	0	0	0	
11	0	0	0	0	1022	1021	1021	0	0	0	
12	0	0	0	0	1021	1021	1021	0	0	0	
13	0	0	0	0	1021	1021	1021	0	0	0	
14	0	0	0	0	1021	1021	1021	0	0	0	
15	0	0	0	0	1022	1021	1021	0	0	0	
0	0	0	0	0	1022	1021	1021	0	0	0	
1	0	0	0	0	1021	1021	1021	0	0	0	
2	0	0	0	0	1021	1021	1021	0	0	0	
3	0	0	0	0	1021	1021	1021	0	0	0	
4	0	0	0	0	1021	1021	1021	0	0	0	
5	0	0	0	0	1022	1021	1021	0	0	0	
6	0	0	0	0	1021	1021	1021	0	0	0	
7	0	0	0	0	1021	1021	1021	0	0	0	
8	0	0	0	0	1021	1021	1021	0	0	0	
9	0	0	0	0	1021	1021	1020	0	0	0	
10	0	0	0	0	1022	1021	1021	0	0	0	
11	0	0	0	0	1021	1021	1021	0	0	0	
12	0	0	0	0	1021	1021	1021	0	0	0	
13	0	0	0	0	1021	1021	1021	0	0	0	
14	0	0	0	0	1021	1021	1020	0	0	0	
15	0	0	0	0	1022	1021	1020	0	0	0	
0	0	0	0	0	1021	1021	1021	0	0	0	
1	0	0	0	0	1021	1021	1021	0	0	0	
2	0	0	0	0	1021	1021	1021	0	0	0	
3	0	0	0	0	1022	1022	1020	0	0	0	
4	0	0	0	0	1022	1021	1020	0	0	0	
5	0	0	0	0	1021	1021	1021	0	0	0	
6	0	0	0	0	1021	1021	1021	0	0	0	
7	0	0	0	0	1021	1021	1021	0	0	0	
8	0	0	0	0	1021	1021	1021	0	0	0	
9	0	0	0	0	1022	1021	1020	0	0	0	
10	0	0	0	0	1021	1021	1021	0	0	0	
11	0	0	0	0	1021	1021	1021	0	0	0	
12	0	0	0	0	1021	1021	1021	0	0	0	
13	0	0	0	0	1021	1021	1020	0	0	0	
14	0	0	0	0	1021	1021	1021	0	0	0	
15	0	0	0	0	1021	1021	1021	0	0	0	
0	0	0	0	0	1021	1021	1021	0	0	0	
1	0	0	0	0	1021	1021	1021	0	0	0	
2	0	0	0	0	1021	1021	1021	0	0	0	
3	0	0	0	0	1022	1021	1020	0	0	0	
4	0	0	0	0	1021	1021	1021	0	0	0	
5	0	0	0	0	1021	1021	1021	0	0	0	
6	0	0	0	0	1021	1021	1021	0	0	0	
7	0	0	0	0	1021	1022	1021	0	0	0	
8	0	0	0	0	1021	1021	1021	0	0	0	
9	0	0	0	0	1021	1021	1021	0	0	0	
10	0	0	0	0	1021	1021	1021	0	0	0	
11	0	0	0	0	1021	1021	1021	0	0	0	
12	0	0	0	0	1021	1021	1021	0	0	0	
13	0	0	0	0	1022	1021	1021	0	0	0	
14	0	0	0	0	1021	1021	1021	0	0	0	
15	0	0	0	0	1021	1021	1021	0	0	0	
0	0	0	0	0	1021	1021	1021	0	0	0	
1	0	0	0	0	1021	1021	1021	0	0	0	
2	0	0	0	0	1021	1021	1021	0	0	0	
3	0	0	0	0	1021	1021	1021	0	0	0	
4	0	0	0	0	1021	1021	1021	0	0	0	
5	0	0	0	0	1021	1021	1021	0	0	0	
6	0	0	0	0	1021	1021	1021	0	0	0	
7	0	0	0	0	1021	1021	1021	0	0	0	
8	0	0	0	0	1021	1021	1021	0	0	0	
9	0	0	0	0	1021	1021	1021	0	0	0	
10	0	0	0	0	1021	1021	1021	0	0	0	
11	0	0	0	0	1021	1021	1021	0	0	0	
12	0	0	0	0	1021	1021	1021	0	0	0	
13	0	0	0	0	1021	1021	1021	0	0	0	
14	0	0	0	0	1021	1021	1021	0	0	0	
15	0	0	0	0	1021	1021	1021	0	0	0	
0	0	0	0	0	1021	1021	1021	0	0	0	
1	0	0	0	0	1022	1021	1020	0	0	0	
2	0	0	0	0	1021	1021	1021	0	0	0	
3	0	0	0	0	1021	1021	1021	0	0	0	
4	0	0	0	0	1021	1021	1021	0	0	0	
5	0	0	0	0	1021	1021	1021	0	0	0	
6	0	0	0	0	1022	1021	1020	0	0	0	
7	0	0	0	0	1021	1021	1021	0	0	0	
8	0	0	0	0	1021	1021	1021	0	0	0	
9	0	0	0	0	1021	1021	1021	0	0	0	
10	0	0	0	0	1021	1021	1021	0	0	0	
11	0	0	0	0	1021	1021	1021	0	0	0	
12	0	0	0	0	1021	1021	1021	0	0	0	
13	0	0	0	0	1021	1021	1021	0	0	0	
14	0	0	0	0	1021	1021	1021	0	0	0	
15	0	0	0	0	1021	1022	1021	0	0	0	
0	0	0	0	0	1022	1021	1021	0	0	0	
1	0	0	0	0	1021	1021	1021	0	0	0	
2	0	0	0	0	1021	1021	1021	0	0	0	
3	0	0	0	0	1021	1021	1021	0	0	0	
4	0	0	0	0	1021	1022	1021	0	0	0	
5	0	0	0	0	1021	1021	1021	0	0	0	
6	0	0	0	0	1021	1021	1021	0	0	0	
7	0	0	0	0	1021	1021	1021	0	0	0	
8	0	0	0	0	1021	1021	1021	0	0	0	
9	0	0	0	0	1021	1021	1021	0	0	0	
10	0	0	0	0	1022	1021	1020	0	0	0	
11	0	0	0	0	1021	1021	1021	0	0	0	
12	0	0	0	0	1021	1021	1021	0	0	0	
13	0	0	0	0	1021	1021	1021	0	0	0	
14	0	0	0	0	1021	1021	1021	0	0	0	
15	0	0	0	0	1021	1021	1021	0	0	0	
0	0	0	0	0	1021	1021	1021	0	0	0	
1	0	0	0	0	1021	1021	1021	0	0	0	
2	0	0	0	0	1021	1021	1021	0	0	0	
3	0	0	0	0	1021	1021	1021	0	0	0	
4	0	0	0	0	1022	1021	1020	0	0	0	
5	0	0	0	0	1021	1021	1021	0	0	0	
6	0	0	0	0	1021	1021	1021	0	0	0	
7	0	0	0	0	1021	1021	1021	0	0	0	
8	0	0	0	0	1021	1021	1021	0	0	0	
9	0	0	0	0	1022	1022	1020	0	0	0	
10	0	0	0	0	1021	1021	1021	0	0	0	
11	0	0	0	0	1021	1021	1021	0	0	0	
12	0	0	0	0	1021	1021	1021	0	0	0	
13	0	0	0	0	1021	1022	1020	0	0	0	
14	0	0	0	0	1022	1021	1021	0	0	0	
15	0	0	0	0	1021	1021	1021	0	0	0	
0	0	0	0	0	1021	1021	1021	0	0	0	
1	0	0	0	0	1021	1021	1021	0	0	0	
2	0	0	0	0	1022	1022	1020	0	0	0	
3	0	0	0	0	1022	1021	1020	0	0	0	
4	0	0	0	0	1021	1021	1021	0	0	0	
5	0	0	0	0	1021	1022	1021	0	0	0	
6	0	0	0	0	1021	1021	1021	0	0	0	
7	0	0	0	0	1021	1022	1021	0	0	0	
8	0	0	0	0	1021	1021	1021	0	0	0	
9	0	0	0	0	1021	1021	1021	0	0	0	
10	0	0	0	0	1021	1021	1021	0	0	0	
11	0	0	0	0	1021	1021	1021	0	0	0	
12	0	0	0	0	1021	1021	1020	0	0	0	
13	0	0	0	0	1022	1021	1020	0	0	0	
14	0	0	0	0	1021	1021	1021	0	0	0	
15	0	0	0	0	1021	1021	1021	0	0	0	
0	0	0	0	0	1021	1021	1021	0	0	0	
1	0	0	0	0	1021	1022	1021	0	0	0	
2	0	0	0	0	1021	1021	1021	0	0	0	
3	0	0	0	0	1021	1021	1021	0	0	0	
4	0	0	0	0	1021	1021	1021	0	0	0	
5	0	0	0	0	1021	1021	1021	0	0	0	
6	0	0	0	0	1022	1021	1021	0	0	0	
7	0	0	0	0	1022	1021	1020	0	0	0	
8	0	0	0	0	1021	1021	1021	0	0	0	
9	0	0	0	0	1021	1021	1021	0	0	0	
10	0	0	0	0	1021	1021	1021	0	0	0	
11	0	0	0	0	1021	1022	1021	0	0	0	
12	0	0	0	0	1022	1021	1020	0	0	0	
13	0	0	0	0	1021	1021	1021	0	0	0	
14	0	0	0	0	1021	1021	1021	0	0	0	
15	0	0	0	0	1021	1021	1021	0	0	0	
0	0	0	0	0	1021	1022	1021	0	0	0	
1	0	0	0	0	1021	1021	1021	0	0	0	
2	0	0	0	0	1021	1021	1021	0	0	0	
3	0	0	0	0	1021	1021	1021	0	0	0	
4	0	0	0	0	1021	1021	1021	0	0	0	
5	0	0	0	0	1021	1021	1021	0	0	0	
6	0	0	0	0	1022	1021	1021	0	0	0	
7	0	0	0	0	1021	1021	1021	0	0	0	
8	0	0	0	0	1021	1021	1021	0	0	0	
9	0	0	0	0	1021	1021	1020	0	0	0	
10	0	0	0	0	1021	1022	1021	0	0	0	
11	0	0	0	0	1022	1021	1020	0	0	0	
12	0	0	0	0	1021	1021	1021	0	0	0	
13	0	0	0	0	1021	1021	1021	0	0	0	
14	0	0	0	0	1021	1021	1021	0	0	0	
15	0	0	0	0	1021	1022	1021	0	0	0	
0	0	0	0	0	1021	1021	1021	0	0	0	
1	0	0	0	0	1021	1021	1021	0	0	0	
2	0	0	0	0	1021	1021	1021	0	0	0	
3	0	0	0	0	1021	1021	1021	0	0	0	
4	0	0	0	0	1021	1021	1021	0	0	0	
5	0	0	0	0	1021	1021	1021	0	0	0	
6	0	0	0	0	1021	1021	1021	0	0	0	
7	0	0	0	0	1021	1021	1021	0	0	0	
8	0	0	0	0	1021	1021	1021	0	0	0	
9	0	0	0	0	1021	1022	1021	0	0	0	
10	0	0	0	0	1021	1021	1021	0	0	0	
11	0	0	0	0	1021	1021	1021	0	0	0	
12	0	0	0	0	1021	1021	1021	0	0	0	
13	0	0	0	0	1021	1021	1021	0	0	0	
14	0	0	0	0	1021	1022	1020	0	0	0	
15	0	0	0	0	1022	1021	1021	0	0	0	
0	0	0	0	0	1021	1021	1021	0	0	0	
1	0	0	0	0	1021	1021	1021	0	0	0	
2	0	0	0	0	1021	1021	1021	0	0	0	
3	0	0	0	0	1021	1022	1021	0	0	0	
4	0	0	0	0	1021	1021	1021	0	0	0	
5	0	0	0	0	1021	1021	1021	0	0	0	
6	0	0	0	0	1021	1021	1021	0	0	0	
7	0	0	0	0	1021	1021	1021	0	0	0	
8	0	0	0	0	1021	1022	1021	0	0	0	
9	0	0	0	0	1021	1021	1021	0	0	0	
10	0	0	0	0	1021	1021	1021	0	0	0	
11	0	0	0	0	1021	1021	1021	0	0	0	
12	0	0	0	0	1021	1021	1021	0	0	0	
13	0	0	0	0	1021	1022	1021	0	0	0	
14	0	0	0	0	1022	1021	1021	0	0	0	
15	0	0	0	0	1021	1021	1021	0	0	0	
0	0	0	0	0	1021	1021	1021	0	0	0	
1	0	0	0	0	1021	1021	1021	0	0	0	
2	0	0	0	0	1021	1021	1021	0	0	0	
3	0	0	0	0	1021	1021	1021	0	0	0	
4	0	0	0	0	1021	1021	1021	0	0	0	
5	0	0	0	0	1021	1021	1021	0	0	0	
6	0	0	0	0	1021	1021	1021	0	0	0	
7	0	0	0	0	1021	1021	1021	0	0	0	
8	0	0	0	0	1021	1021	1021	0	0	0	
9	0	0	0	0	1021	1021	1021	0	0	0	
10	0	0	0	0	1021	1021	1021	0	0	0	
11	0	0	0	0	1021	1021	1021	0	0	0	
12	0	0	0	0	1021	1021	1020	0	0	0	
13	0	0	0	0	1022	1021	1020	0	0	0	
14	0	0	0	0	1021	1021	1021	0	0	0	
15	0	0	0	0	1021	1021	1021	0	0	0	
0	0	0	0	0	1021	1021	1021	0	0	0	
1	0	0	0	0	1021	1021	1021	0	0	0	
2	0	0	0	0	1021	1021	1021	0	0	0	
3	0	0	0	0	1021	1021	1021	0	0	0	
4	0	0	0	0	1021	1021	1021	0	0	0	
5	0	0	0	0	1021	1021	1021	0	0	0	
6	0	0	0	0	1022	1021	1021	0	0	0	
7	0	0	0	0	1021	1021	1021	0	0	0	
8	0	0	0	0	1021	1021	1021	0	0	0	
9	0	0	0	0	1021	1021	1021	0	0	0	
10	0	0	0	0	1021	1021	1021	0	0	0	
11	0	0	0	0	1021	1021	1021	0	0	0	
12	0	0	0	0	1021	1021	1021	0	0	0	
13	0	0	0	0	1021	1021	1021	0	0	0	
14	0	0	0	0	1021	1021	1021	0	0	0	
15	0	0	0	0	1021	1021	1021	0	0	0	
0	0	0	0	0	1021	1021	1021	0	0	0	
1	0	0	0	0	1021	1021	1021	0	0	0	
2	0	0	0	0	1021	1021	1021	0	0	0	
3	0	0	0	0	1021	1021	1021	0	0	0	
4	0	0	0	0	1021	1021	1021	0	0	0	
5	0	0	0	0	1021	1021	1021	0	0	0	
6	0	0	0	0	1021	1021	1021	0	0	0	
7	0	0	0	0	1021	1021	1021	0	0	0	
8	0	0	0	0	1021	1021	1021	0	0	0	
9	0	0	0	0	1021	1021	1021	0	0	0	
10	0	0	0	0	1021	1021	1021	0	0	0	
11	0	0	0	0	1021	1021	1021	0	0	0	
12	0	0	0	0	1021	1021	1021	0	0	0	
13	0	0	0	0	1021	1021	1021	0	0	0	
14	0	0	0	0	1021	1021	1021	0	0	0	
15	0	0	0	0	1021	1021	1021	0	0	0	
0	0	0	0	0	1022	1021	1021	0	0	0	
1	0	0	0	0	1021	1021	1021	0	0	0	
2	0	0	0	0	1021	1021	1021	0	0	0	
3	0	0	0	0	1021	1021	1021	0	0	0	
4	0	0	0	0	1022	1021	1021	0	0	0	
5	0	0	0	0	1021	1021	1021	0	0	0	
6	0	0	0	0	1021	1021	1021	0	0	0	
7	0	0	0	0	1021	1021	1021	0	0	0	
8	0	0	0	0	1021	1021	1021	0	0	0	
9	0	0	0	0	1021	1021	1021	0	0	0	
10	0	0	0	0	1021	1021	1021	0	0	0	
11	0	0	0	0	1021	1021	1021	0	0	0	
12	0	0	0	0	1021	1021	1021	0	0	0	
13	0	0	0	0	1021	1021	1021	0	0	0	
14	0	0	0	0	1021	1021	1021	0	0	0	
15	0	0	0	0	1021	1021	1021	0	0	0	
0	0	0	0	0	1021	1021	1021	0	0	0	
1	0	0	0	0	1021	1021	1021	0	0	0	
2	0	0	0	0	1021	1021	1021	0	0	0	
3	0	0	0	0	1021	1022	1021	0	0	0	
4	0	0	0	0	1021	1021	1021	0	0	0	
5	0	0	0	0	1021	1021	1021	0	0	0	
6	0	0	0	0	1021	1021	1021	0	0	0	
7	0	0	0	0	1021	1021	1021	0	0	0	
8	0	0	0	0	1021	1021	1021	0	0	0	
9	0	0	0	0	1021	1021	1021	0	0	0	
10	0	0	0	0	1021	1021	1021	0	0	0	
11	0	0	0	0	1021	1021	1021	0	0	0	
12	0	0	0	0	1021	1021	1021	0	0	0	
13	0	0	0	0	1021	1021	1021	0	0	0	
14	0	0	0	0	1021	1021	1021	0	0	0	
15	0	0	0	0	1021	1021	1021	0	0	0	
0	0	0	0	0	1021	1021	1021	0	0	0	
1	0	0	0	0	1021	1021	1021	0	0	0	
2	0	0	0	0	1021	1021	1021	0	0	0	
3	0	0	0	0	1021	1021	1021	0	0	0	
4	0	0	0	0	1021	1021	1021	0	0	0	
5	0	0	0	0	1021	1021	1021	0	0	0	
6	0	0	0	0	1021	1021	1021	0	0	0	
7	0	0	0	0	1021	1021	1021	0	0	0	
8	0	0	0	0	1021	1021	1021	0	0	0	
9	0	0	0	0	1021	1021	1021	0	0	0	
10	0	0	0	0	1021	1021	1021	0	0	0	
11	0	0	0	0	1021	1021	1021	0	0	0	
12	0	0	0	0	1021	1021	1021	0	0	0	
13	0	0	0	0	1021	1021	1021	0	0	0	
14	0	0	0	0	1021	1021	1021	0	0	0	
15	0	0	0	0	1021	1021	1021	0	0	0	
0	0	0	0	0	1021	1021	1021	0	0	0	
1	0	0	0	0	1021	1021	1021	0	0	0	
2	0	0	0	0	1021	1021	1021	0	0	0	
3	0	0	0	0	1021	1021	1021	0	0	0	
4	0	0	0	0	1021	1021	1021	0	0	0	
5	0	0	0	0	1021	1021	1021	0	0	0	
6	0	0	0	0	1021	1021	1021	0	0	0	
7	0	0	0	0	1021	1021	1021	0	0	0	
8	0	0	0	0	1021	1021	1021	0	0	0	
9	0	0	0	0	1021	1021	1021	0	0	0	
10	0	0	0	0	1021	1021	1021	0	0	0	
11	0	0	0	0	1021	1021	1021	0	0	0	
12	0	0	0	0	1021	1021	1021	0	0	0	
13	0	0	0	0	1021	1021	1021	0	0	0	
14	0	0	0	0	1021	1021	1021	0	0	0	
15	0	0	0	0	1021	1021	1021	0	0	0	
0	0	0	0	0	1021	1021	1020	0	0	0	
1	0	0	0	0	1021	1021	1021	0	0	0	
2	0	0	0	0	1021	1021	1021	0	0	0	
3	0	0	0	0	1021	1021	1021	0	0	0	
4	0	0	0	0	1021	1021	1021	0	0	0	
5	0	0	0	0	1021	1022	1021	0	0	0	
6	0	0	0	0	1021	1021	1021	0	0	0	
7	0	0	0	0	1021	1021	1021	0	0	0	
8	0	0	0	0	1021	1021	1021	0	0	0	
9	0	0	0	0	1021	1021	1021	0	0	0	
10	0	0	0	0	1021	1022	1021	0	0	0	
11	0	0	0	0	1021	1021	1021	0	0	0	
12	0	0	0	0	1021	1021	1021	0	0	0	
13	0	0	0	0	1021	1021	1021	0	0	0	
14	0	0	0	0	1021	1021	1021	0	0	0	
15	0	0	0	0	1021	1022	1021	0	0	0	
0	0	0	0	0	1021	1022	1020	0	0	0	
1	0	0	0	0	1021	1021	1021	0	0	0	
2	0	0	0	0	1021	1021	1021	0	0	0	
3	0	0	0	0	1021	1021	1021	0	0	0	
4	0	0	0	0	1021	1021	1020	0	0	0	
5	0	0	0	0	1021	1021	1021	0	0	0	
6	0	0	0	0	1021	1021	1021	0	0	0	
7	0	0	0	0	1021	1021	1021	0	0	0	
8	0	0	0	0	1021	1021	1021	0	0	0	
9	0	0	0	0	1021	1021	1021	0	0	0	
10	0	0	0	0	1021	1021	1021	0	0	0	
11	0	0	0	0	1021	1021	1021	0	0	0	
12	0	0	0	0	1021	1021	1021	0	0	0	
13	0	0	0	0	1021	1021	1021	0	0	0	
14	0	0	0	0	1021	1021	1021	0	0	0	
15	0	0	0	0	1021	1021	1021	0	0	0	
0	0	0	0	0	1021	1021	1021	0	0	0	
1	0	0	0	0	1021	1021	1021	0	0	0	
2	0	0	0	0	1021	1021	1021	0	0	0	
3	0	0	0	0	1021	1021	1021	0	0	0	
4	0	0	0	0	1021	1021	1021	0	0	0	
5	0	0	0	0	1021	1021	1021	0	0	0	
6	0	0	0	0	1021	1021	1021	0	0	0	
7	0	0	0	0	1021	1021	1021	0	0	0	
8	0	0	0	0	1021	1021	1021	0	0	0	
9	0	0	0	0	1021	1021	1020	0	0	0	
10	0	0	0	0	1021	1021	1021	0	0	0	
11	0	0	0	0	1021	1021	1021	0	0	0	
12	0	0	0	0	1021	1021	1021	0	0	0	
13	0	0	0	0	1021	1021	1020	0	0	0	
14	0	0	0	0	1019	1021	1021	0	0	0	
15	0	0	0	0	1016	1021	1021	0	0	0	
0	0	0	0	0	1009	1021	1021	0	0	0	
1	0	0	0	0	1003	1019	1021	0	0	0	
2	0	0	0	0	993	1014	1020	0	0	0	
3	0	0	0	0	986	1008	1020	0	0	0	
4	0	0	0	0	980	1002	1021	0	0	0	
5	0	0	0	0	974	996	1021	0	0	0	
6	0	0	0	0	969	990	1021	0	0	0	
7	0	0	0	0	967	987	1021	0	0	0	
8	0	0	0	0	966	984	1021	0	0	0	
9	0	0	0	0	966	981	1021	0	0	0	
10	0	0	0	0	966	978	1021	0	0	0	
11	0	0	0	0	966	976	1020	0	0	0	
12	0	0	0	0	965	972	1021	0	0	0	
13	0	0	0	0	963	968	1020	0	0	0	
14	0	0	0	0	960	963	1021	0	0	0	
15	0	0	0	0	955	956	1021	0	0	0	
0	0	0	0	0	949	949	1021	0	0	0	
1	0	0	0	0	942	942	1021	0	0	0	
2	0	0	0	0	935	935	1021	0	0	0	
3	0	0	0	0	930	929	1021	0	0	0	
4	0	0	0	0	925	924	1021	0	0	0	
5	0	0	0	0	920	920	1021	0	0	0	
6	0	0	0	0	918	917	1021	0	0	0	
7	0	0	0	0	916	915	1021	0	0	0	
8	0	0	0	0	916	916	1021	0	0	0	
9	0	0	0	0	919	919	1021	0	0	0	
10	0	0	0	0	925	924	1021	0	0	0	
11	0	0	0	0	932	931	1020	0	0	0	
12	0	0	0	0	940	940	1020	0	0	0	
13	0	0	0	0	951	948	1021	0	0	0	
14	0	0	0	0	961	957	1021	0	0	0	
15	0	0	0	0	970	965	1021	0	0	0	
0	0	0	0	0	978	972	1021	0	0	0	
1	0	0	0	0	984	977	1021	0	0	0	
2	0	0	0	0	989	980	1021	0	0	0	
3	0	0	0	0	990	980	1021	0	0	0	
4	0	0	0	0	988	978	1021	0	0	0	
5	0	0	0	0	982	973	1021	0	0	0	
6	0	0	0	0	973	966	1021	0	0	0	
7	0	0	0	0	963	956	1021	0	0	0	
8	0	0	0	0	951	946	1021	0	0	0	
9	0	0	0	0	938	937	1021	0	0	0	
10	0	0	0	0	927	928	1021	0	0	0	
11	0	0	0	0	916	920	1021	0	0	0	
12	0	0	0	0	909	914	1021	0	0	0	
13	0	0	0	0	902	909	1021	0	0	0	
14	0	0	0	0	898	907	1021	0	0	0	
15	0	0	0	0	896	905	1021	0	0	0	
0	0	0	0	0	896	904	1021	0	0	0	
1	0	0	0	0	897	906	1021	0	0	0	
2	0	0	0	0	899	906	1021	0	0	0	
3	0	0	0	0	901	907	1021	0	0	0	
4	0	0	0	0	903	907	1021	0	0	0	
5	0	0	0	0	904	906	1021	0	0	0	
6	0	0	0	0	905	904	1021	0	0	0	
7	0	0	0	0	903	900	1021	0	0	0	
8	0	0	0	0	899	895	1021	0	0	0	
9	0	0	0	0	894	888	1021	0	0	0	
10	0	0	0	0	888	881	1020	0	0	0	
11	0	0	0	0	882	875	1021	0	0	0	
12	0	0	0	0	876	868	1021	0	0	0	
13	0	0	0	0	871	864	1021	0	0	0	
14	0	0	0	0	867	861	1021	0	0	0	
15	0	0	0	0	865	860	1021	0	0	0	
0	0	0	0	0	867	864	1021	0	0	0	
1	0	0	0	0	871	869	1021	0	0	0	
2	0	0	0	0	878	877	1021	0	0	0	
3	0	0	0	0	887	887	1021	0	0	0	
4	0	0	0	0	896	897	1020	0	0	0	
5	0	0	0	0	908	908	1021	0	0	0	
6	0	0	0	0	917	916	1021	0	0	0	
7	0	0	0	0	926	924	1021	0	0	0	
8	0	0	0	0	932	929	1020	0	0	0	
9	0	0	0	0	935	931	1020	0	0	0	
10	0	0	0	0	936	931	1021	0	0	0	
11	0	0	0	0	934	928	1021	0	0	0	
12	0	0	0	0	929	923	1021	0	0	0	
13	0	0	0	0	922	916	1021	0	0	0	
14	0	0	0	0	912	907	1020	0	0	0	
15	0	0	0	0	903	897	1021	0	0	0	
0	0	0	0	0	892	888	1021	0	0	0	
1	0	0	0	0	880	878	1021	0	0	0	
2	0	0	0	0	870	869	1021	0	0	0	
3	0	0	0	0	862	862	1021	0	0	0	
4	0	0	0	0	855	856	1021	0	0	0	
5	0	0	0	0	851	852	1021	0	0	0	
6	0	0	0	0	849	850	1021	0	0	0	
7	0	0	0	0	849	850	1021	0	0	0	
8	0	0	0	0	851	852	1020	0	0	0	
9	0	0	0	0	854	854	1021	0	0	0	
10	0	0	0	0	858	857	1021	0	0	0	
11	0	0	0	0	861	859	1021	0	0	0	
12	0	0	0	0	864	861	1020	0	0	0	
13	0	0	0	0	865	862	1020	0	0	0	
14	0	0	0	0	867	861	1021	0	0	0	
15	0	0	0	0	865	858	1021	0	0	0	
0	0	0	0	0	863	855	1021	0	0	0	
1	0	0	0	0	858	850	1020	0	0	0	
2	0	0	0	0	855	847	1020	0	0	0	
3	0	0	0	0	853	843	1021	0	0	0	
4	0	0	0	0	849	839	1021	0	0	0	
5	0	0	0	0	847	837	1021	0	0	0	
6	0	0	0	0	846	837	1021	0	0	0	
7	0	0	0	0	845	836	1021	0	0	0	
8	0	0	0	0	845	836	1021	0	0	0	
9	0	0	0	0	846	838	1021	0	0	0	
10	0	0	0	0	846	840	1021	0	0	0	
11	0	0	0	0	848	842	1021	0	0	0	
12	0	0	0	0	850	844	1021	0	0	0	
13	0	0	0	0	852	847	1021	0	0	0	
14	0	0	0	0	853	849	1021	0	0	0	
15	0	0	0	0	854	850	1021	0	0	0	
0	0	0	0	0	855	851	1020	0	0	0	
1	0	0	0	0	854	849	1021	0	0	0	
2	0	0	0	0	851	847	1021	0	0	0	
3	0	0	0	0	847	842	1021	0	0	0	
4	0	0	0	0	841	836	1021	0	0	0	
5	0	0	0	0	835	829	1021	0	0	0	
6	0	0	0	0	828	821	1021	0	0	0	
7	0	0	0	0	820	813	1021	0	0	0	
8	0	0	0	0	814	806	1021	0	0	0	
9	0	0	0	0	808	799	1021	0	0	0	
10	0	0	0	0	803	794	1020	0	0	0	
11	0	0	0	0	799	790	1020	0	0	0	
12	0	0	0	0	799	788	1021	0	0	0	
13	0	0	0	0	800	789	1021	0	0	0	
14	0	0	0	0	804	792	1021	0	0	0	
15	0	0	0	0	811	798	1021	0	0	0	
0	0	0	0	0	818	806	1020	0	0	0	
1	0	0	0	0	828	813	1021	0	0	0	
2	0	0	0	0	836	821	1021	0	0	0	
3	0	0	0	0	843	828	1021	0	0	0	
4	0	0	0	0	849	833	1021	0	0	0	
5	0	0	0	0	851	836	1020	0	0	0	
6	0	0	0	0	851	835	1021	0	0	0	
7	0	0	0	0	847	832	1021	0	0	0	
8	0	0	0	0	839	826	1021	0	0	0	
9	0	0	0	0	830	819	1021	0	0	0	
10	0	0	0	0	819	809	1021	0	0	0	
11	0	0	0	0	807	799	1021	0	0	0	
12	0	0	0	0	795	789	1021	0	0	0	
13	0	0	0	0	785	781	1021	0	0	0	
14	0	0	0	0	777	775	1021	0	0	0	
15	0	0	0	0	773	771	1021	0	0	0	
0	0	0	0	0	772	770	1021	0	0	0	
1	0	0	0	0	775	772	1021	0	0	0	
2	0	0	0	0	781	777	1021	0	0	0	
3	0	0	0	0	790	784	1020	0	0	0	
4	0	0	0	0	800	793	1020	0	0	0	
5	0	0	0	0	813	802	1021	0	0	0	
6	0	0	0	0	824	811	1021	0	0	0	
7	0	0	0	0	835	819	1021	0	0	0	
8	0	0	0	0	842	825	1021	0	0	0	
9	0	0	0	0	848	830	1021	0	0	0	
10	0	0	0	0	851	831	1021	0	0	0	
11	0	0	0	0	850	831	1021	0	0	0	
12	0	0	0	0	845	826	1021	0	0	0	
13	0	0	0	0	838	820	1021	0	0	0	
14	0	0	0	0	827	811	1021	0	0	0	
15	0	0	0	0	815	800	1021	0	0	0	
0	0	0	0	0	800	788	1021	0	0	0	
1	0	0	0	0	788	777	1021	0	0	0	
2	0	0	0	0	776	767	1020	0	0	0	
3	0	0	0	0	766	758	1020	0	0	0	
4	0	0	0	0	760	752	1021	0	0	0	
5	0	0	0	0	756	750	1021	0	0	0	
6	0	0	0	0	757	750	1021	0	0	0	
7	0	0	0	0	760	752	1021	0	0	0	
8	0	0	0	0	767	758	1020	0	0	0	
9	0	0	0	0	777	766	1021	0	0	0	
10	0	0	0	0	787	774	1021	0	0	0	
11	0	0	0	0	797	782	1021	0	0	0	
12	0	0	0	0	806	789	1021	0	0	0	
13	0	0	0	0	812	794	1021	0	0	0	
14	0	0	0	0	817	797	1021	0	0	0	
15	0	0	0	0	818	797	1021	0	0	0	
0	0	0	0	0	815	794	1021	0	0	0	
1	0	0	0	0	808	788	1020	0	0	0	
2	0	0	0	0	800	781	1020	0	0	0	
3	0	0	0	0	790	771	1021	0	0	0	
4	0	0	0	0	777	760	1021	0	0	0	
5	0	0	0	0	765	749	1021	0	0	0	
6	0	0	0	0	752	739	1021	0	0	0	
7	0	0	0	0	742	730	1021	0	0	0	
8	0	0	0	0	734	723	1021	0	0	0	
9	0	0	0	0	729	719	1021	0	0	0	
10	0	0	0	0	728	719	1021	0	0	0	
11	0	0	0	0	732	723	1021	0	0	0	
12	0	0	0	0	740	730	1021	0	0	0	
13	0	0	0	0	751	740	1021	0	0	0	
14	0	0	0	0	764	751	1021	0	0	0	
15	0	0	0	0	777	762	1021	0	0	0	
0	0	0	0	0	790	772	1021	0	0	0	
1	0	0	0	0	801	781	1021	0	0	0	
2	0	0	0	0	810	787	1021	0	0	0	
3	0	0	0	0	814	790	1021	0	0	0	
4	0	0	0	0	815	790	1021	0	0	0	
5	0	0	0	0	813	787	1021	0	0	0	
6	0	0	0	0	807	781	1021	0	0	0	
7	0	0	0	0	799	774	1021	0	0	0	
8	0	0	0	0	789	764	1021	0	0	0	
9	0	0	0	0	778	755	1021	0	0	0	
10	0	0	0	0	767	746	1021	0	0	0	
11	0	0	0	0	756	738	1020	0	0	0	
12	0	0	0	0	748	732	1021	0	0	0	
13	0	0	0	0	741	727	1021	0	0	0	
14	0	0	0	0	737	725	1021	0	0	0	
15	0	0	0	0	736	725	1021	0	0	0	
0	0	0	0	0	737	727	1021	0	0	0	
1	0	0	0	0	742	730	1021	0	0	0	
2	0	0	0	0	748	735	1021	0	0	0	
3	0	0	0	0	753	740	1021	0	0	0	
4	0	0	0	0	761	744	1021	0	0	0	
5	0	0	0	0	766	748	1020	0	0	0	
6	0	0	0	0	772	750	1021	0	0	0	
7	0	0	0	0	775	750	1021	0	0	0	
8	0	0	0	0	775	748	1021	0	0	0	
9	0	0	0	0	773	745	1021	0	0	0	
10	0	0	0	0	768	740	1021	0	0	0	
11	0	0	0	0	762	734	1021	0	0	0	
12	0	0	0	0	754	727	1021	0	0	0	
13	0	0	0	0	745	719	1021	0	0	0	
14	0	0	0	0	736	712	1021	0	0	0	
15	0	0	0	0	727	705	1020	0	0	0	
0	0	0	0	0	721	700	1021	0	0	0	
1	0	0	0	0	715	696	1021	0	0	0	
2	0	0	0	0	712	693	1021	0	0	0	
3	0	0	0	0	710	693	1020	0	0	0	
4	0	0	0	0	712	696	1020	0	0	0	
5	0	0	0	0	717	700	1021	0	0	0	
6	0	0	0	0	722	705	1021	0	0	0	
7	0	0	0	0	728	711	1021	0	0	0	
8	0	0	0	0	736	717	1021	0	0	0	
9	0	0	0	0	741	723	1020	0	0	0	
10	0	0	0	0	748	728	1021	0	0	0	
11	0	0	0	0	751	731	1021	0	0	0	
12	0	0	0	0	752	731	1021	0	0	0	
13	0	0	0	0	750	729	1021	0	0	0	
14	0	0	0	0	746	724	1021	0	0	0	
15	0	0	0	0	739	719	1021	0	0	0	
0	0	0	0	0	731	711	1021	0	0	0	
1	0	0	0	0	721	702	1021	0	0	0	
2	0	0	0	0	711	694	1021	0	0	0	
3	0	0	0	0	704	687	1021	0	0	0	
4	0	0	0	0	697	681	1021	0	0	0	
5	0	0	0	0	692	677	1021	0	0	0	
6	0	0	0	0	691	675	1021	0	0	0	
7	0	0	0	0	692	676	1021	0	0	0	
8	0	0	0	0	697	680	1021	0	0	0	
9	0	0	0	0	705	687	1021	0	0	0	
10	0	0	0	0	715	696	1021	0	0	0	
11	0	0	0	0	726	705	1021	0	0	0	
12	0	0	0	0	737	714	1021	0	0	0	
13	0	0	0	0	749	723	1021	0	0	0	
14	0	0	0	0	759	732	1021	0	0	0	
15	0	0	0	0	767	738	1021	0	0	0	
0	0	0	0	0	771	742	1021	0	0	0	
1	0	0	0	0	772	742	1021	0	0	0	
2	0	0	0	0	770	739	1021	0	0	0	
3	0	0	0	0	764	734	1021	0	0	0	
4	0	0	0	0	754	724	1021	0	0	0	
5	0	0	0	0	741	713	1021	0	0	0	
6	0	0	0	0	726	702	1021	0	0	0	
7	0	0	0	0	712	690	1021	0	0	0	
8	0	0	0	0	701	680	1021	0	0	0	
9	0	0	0	0	693	674	1021	0	0	0	
10	0	0	0	0	689	671	1021	0	0	0	
11	0	0	0	0	690	672	1021	0	0	0	
12	0	0	0	0	695	677	1021	0	0	0	
13	0	0	0	0	704	685	1021	0	0	0	
14	0	0	0	0	716	695	1021	0	0	0	
15	0	0	0	0	730	705	1021	0	0	0	
0	0	0	0	0	743	716	1021	0	0	0	
1	0	0	0	0	756	725	1021	0	0	0	
2	0	0	0	0	766	732	1021	0	0	0	
3	0	0	0	0	772	735	1021	0	0	0	
4	0	0	0	0	774	735	1021	0	0	0	
5	0	0	0	0	770	731	1021	0	0	0	
6	0	0	0	0	763	723	1021	0	0	0	
7	0	0	0	0	751	712	1021	0	0	0	
8	0	0	0	0	736	699	1021	0	0	0	
9	0	0	0	0	719	684	1021	0	0	0	
10	0	0	0	0	702	670	1021	0	0	0	
11	0	0	0	0	686	657	1021	0	0	0	
12	0	0	0	0	671	646	1021	0	0	0	
13	0	0	0	0	659	637	1021	0	0	0	
14	0	0	0	0	652	632	1021	0	0	0	
15	0	0	0	0	648	630	1021	0	0	0	
0	0	0	0	0	649	631	1021	0	0	0	
1	0	0	0	0	655	636	1021	0	0	0	
2	0	0	0	0	663	642	1021	0	0	0	
3	0	0	0	0	674	651	1021	0	0	0	
4	0	0	0	0	687	661	1021	0	0	0	
5	0	0	0	0	701	671	1021	0	0	0	
6	0	0	0	0	713	680	1021	0	0	0	
7	0	0	0	0	724	688	1021	0	0	0	
8	0	0	0	0	732	694	1021	0	0	0	
9	0	0	0	0	737	697	1021	0	0	0	
10	0	0	0	0	740	698	1021	0	0	0	
11	0	0	0	0	739	696	1021	0	0	0	
12	0	0	0	0	734	692	1021	0	0	0	
13	0	0	0	0	728	686	1021	0	0	0	
14	0	0	0	0	719	680	1021	0	0	0	
15	0	0	0	0	711	674	1021	0	0	0	
0	0	0	0	0	704	669	1021	0	0	0	
1	0	0	0	0	697	665	1021	0	0	0	
2	0	0	0	0	693	663	1021	0	0	0	
3	0	0	0	0	692	664	1021	0	0	0	
4	0	0	0	0	694	667	1021	0	0	0	
5	0	0	0	0	699	671	1021	0	0	0	
6	0	0	0	0	705	678	1021	0	0	0	
7	0	0	0	0	713	684	1021	0	0	0	
8	0	0	0	0	720	691	1021	0	0	0	
9	0	0	0	0	728	697	1021	0	0	0	
10	0	0	0	0	735	701	1021	0	0	0	
11	0	0	0	0	738	703	1021	0	0	0	
12	0	0	0	0	739	703	1021	0	0	0	
13	0	0	0	0	736	700	1021	0	0	0	
14	0	0	0	0	729	693	1021	0	0	0	
15	0	0	0	0	720	684	1021	0	0	0	
0	0	0	0	0	708	673	1021	0	0	0	
1	0	0	0	0	695	660	1021	0	0	0	
2	0	0	0	0	679	647	1020	0	0	0	
3	0	0	0	0	664	634	1021	0	0	0	
4	0	0	0	0	649	622	1021	0	0	0	
5	0	0	0	0	636	610	1021	0	0	0	
6	0	0	0	0	624	600	1021	0	0	0	
7	0	0	0	0	614	592	1021	0	0	0	
8	0	0	0	0	603	583	1020	0	0	0	
9	0	0	0	0	595	575	1021	0	0	0	
10	0	0	0	0	587	566	1021	0	0	0	
11	0	0	0	0	577	556	1021	0	0	0	
12	0	0	0	0	566	544	1021	0	0	0	
13	0	0	0	0	553	532	1020	0	0	0	
14	0	0	0	0	540	518	1021	0	0	0	
15	0	0	0	0	525	502	1021	0	0	0	
0	0	0	0	0	508	485	1021	0	0	0	
1	0	0	0	0	490	467	1021	0	0	0	
2	0	0	0	0	471	448	1020	0	0	0	
3	0	0	0	0	454	430	1021	0	0	0	
4	0	0	0	0	438	414	1021	0	0	0	
5	0	0	0	0	425	401	1021	0	0	0	
6	0	0	0	0	417	392	1020	0	0	0	
7	0	0	0	0	414	388	1021	0	0	0	
8	0	0	0	0	417	389	1021	0	0	0	
9	0	0	0	0	427	396	1021	0	0	0	
10	0	0	0	0	443	409	1021	0	0	0	
11	0	0	0	0	465	428	1021	0	0	0	
12	0	0	0	0	491	450	1021	0	0	0	
13	0	0	0	0	521	476	1021	0	0	0	
14	0	0	0	0	553	503	1021	0	0	0	
15	0	0	0	0	584	531	1021	0	0	0	
0	0	0	0	0	615	559	1021	0	0	0	
1	0	0	0	0	643	585	1020	0	0	0	
2	0	0	0	0	669	608	1021	0	0	0	
3	0	0	0	0	689	629	1021	0	0	0	
4	0	0	0	0	705	644	1021	0	0	0	
5	0	0	0	0	716	656	1021	0	0	0	
6	0	0	0	0	720	664	1020	0	0	0	
7	0	0	0	0	723	668	1021	0	0	0	
8	0	0	0	0	720	669	1021	0	0	0	
9	0	0	0	0	716	668	1021	0	0	0	
10	0	0	0	0	710	665	1021	0	0	0	
11	0	0	0	0	703	663	1021	0	0	0	
12	0	0	0	0	699	660	1021	0	0	0	
13	0	0	0	0	696	659	1021	0	0	0	
14	0	0	0	0	694	659	1021	0	0	0	
15	0	0	0	0	695	661	1021	0	0	0	
0	0	0	0	0	697	664	1020	0	0	0	
1	0	0	0	0	703	668	1021	0	0	0	
2	0	0	0	0	708	672	1021	0	0	0	
3	0	0	0	0	715	676	1021	0	0	0	
4	0	0	0	0	720	680	1021	0	0	0	
5	0	0	0	0	723	683	1020	0	0	0	
6	0	0	0	0	728	685	1021	0	0	0	
7	0	0	0	0	728	685	1021	0	0	0	
8	0	0	0	0	726	682	1021	0	0	0	
9	0	0	0	0	722	678	1021	0	0	0	
10	0	0	0	0	716	672	1020	0	0	0	
11	0	0	0	0	709	665	1021	0	0	0	
12	0	0	0	0	699	656	1021	0	0	0	
13	0	0	0	0	689	647	1021	0	0	0	
14	0	0	0	0	679	639	1021	0	0	0	
15	0	0	0	0	669	631	1021	0	0	0	
0	0	0	0	0	660	624	1021	0	0	0	
1	0	0	0	0	654	620	1021	0	0	0	
2	0	0	0	0	650	617	1021	0	0	0	
3	0	0	0	0	649	618	1020	0	0	0	
4	0	0	0	0	650	620	1020	0	0	0	
5	0	0	0	0	655	624	1021	0	0	0	
6	0	0	0	0	660	630	1021	0	0	0	
7	0	0	0	0	667	635	1021	0	0	0	
8	0	0	0	0	674	640	1021	0	0	0	
9	0	0	0	0	681	645	1021	0	0	0	
10	0	0	0	0	686	649	1021	0	0	0	
11	0	0	0	0	689	650	1021	0	0	0	
12	0	0	0	0	691	649	1021	0	0	0	
13	0	0	0	0	689	647	1021	0	0	0	
14	0	0	0	0	686	643	1021	0	0	0	
15	0	0	0	0	682	638	1021	0	0	0	
0	0	0	0	0	677	633	1021	0	0	0	
1	0	0	0	0	672	629	1021	0	0	0	
2	0	0	0	0	669	625	1021	0	0	0	
3	0	0	0	0	666	624	1020	0	0	0	
4	0	0	0	0	666	624	1021	0	0	0	
5	0	0	0	0	668	626	1021	0	0	0	
6	0	0	0	0	671	630	1021	0	0	0	
7	0	0	0	0	675	635	1021	0	0	0	
8	0	0	0	0	680	641	1021	0	0	0	
9	0	0	0	0	686	647	1021	0	0	0	
10	0	0	0	0	691	652	1021	0	0	0	
11	0	0	0	0	695	656	1021	0	0	0	
12	0	0	0	0	698	659	1021	0	0	0	
13	0	0	0	0	700	661	1021	0	0	0	
14	0	0	0	0	700	661	1021	0	0	0	
15	0	0	0	0	699	659	1021	0	0	0	
0	0	0	0	0	695	655	1021	0	0	0	
1	0	0	0	0	689	650	1020	0	0	0	
2	0	0	0	0	683	644	1020	0	0	0	
3	0	0	0	0	678	638	1021	0	0	0	
4	0	0	0	0	672	632	1021	0	0	0	
5	0	0	0	0	669	628	1021	0	0	0	
6	0	0	0	0	667	625	1021	0	0	0	
7	0	0	0	0	665	625	1021	0	0	0	
8	0	0	0	0	668	626	1021	0	0	0	
9	0	0	0	0	671	629	1021	0	0	0	
10	0	0	0	0	675	633	1021	0	0	0	
11	0	0	0	0	680	637	1021	0	0	0	
12	0	0	0	0	684	641	1020	0	0	0	
13	0	0	0	0	688	646	1021	0	0	0	
14	0	0	0	0	691	648	1021	0	0	0	
15	0	0	0	0	692	649	1021	0	0	0	
0	0	0	0	0	690	649	1021	0	0	0	
1	0	0	0	0	687	647	1021	0	0	0	
2	0	0	0	0	682	642	1021	0	0	0	
3	0	0	0	0	675	636	1021	0	0	0	
4	0	0	0	0	666	628	1021	0	0	0	
5	0	0	0	0	656	619	1021	0	0	0	
6	0	0	0	0	646	609	1021	0	0	0	
7	0	0	0	0	636	601	1021	0	0	0	
8	0	0	0	0	628	593	1021	0	0	0	
9	0	0	0	0	621	586	1020	0	0	0	
10	0	0	0	0	615	582	1021	0	0	0	
11	0	0	0	0	613	580	1020	0	0	0	
12	0	0	0	0	615	580	1021	0	0	0	
13	0	0	0	0	618	583	1021	0	0	0	
14	0	0	0	0	625	588	1021	0	0	0	
15	0	0	0	0	633	595	1021	0	0	0	
0	0	0	0	0	643	604	1020	0	0	0	
1	0	0	0	0	655	614	1021	0	0	0	
2	0	0	0	0	667	624	1021	0	0	0	
3	0	0	0	0	678	633	1021	0	0	0	
4	0	0	0	0	687	641	1021	0	0	0	
5	0	0	0	0	696	649	1020	0	0	0	
6	0	0	0	0	703	654	1021	0	0	0	
7	0	0	0	0	708	658	1021	0	0	0	
8	0	0	0	0	710	660	1021	0	0	0	
9	0	0	0	0	711	661	1021	0	0	0	
10	0	0	0	0	708	659	1021	0	0	0	
11	0	0	0	0	705	656	1021	0	0	0	
12	0	0	0	0	698	650	1021	0	0	0	
13	0	0	0	0	690	642	1021	0	0	0	
14	0	0	0	0	679	633	1021	0	0	0	
15	0	0	0	0	667	623	1021	0	0	0	
0	0	0	0	0	655	613	1021	0	0	0	
1	0	0	0	0	645	605	1021	0	0	0	
2	0	0	0	0	636	598	1021	0	0	0	
3	0	0	0	0	628	592	1021	0	0	0	
4	0	0	0	0	623	589	1020	0	0	0	
5	0	0	0	0	622	588	1021	0	0	0	
6	0	0	0	0	621	588	1021	0	0	0	
7	0	0	0	0	622	588	1021	0	0	0	
8	0	0	0	0	623	588	1020	0	0	0	
9	0	0	0	0	625	590	1020	0	0	0	
10	0	0	0	0	630	592	1021	0	0	0	
11	0	0	0	0	633	594	1021	0	0	0	
12	0	0	0	0	638	596	1020	0	0	0	
13	0	0	0	0	641	598	1021	0	0	0	
14	0	0	0	0	645	600	1021	0	0	0	
15	0	0	0	0	650	603	1021	0	0	0	
0	0	0	0	0	654	604	1021	0	0	0	
1	0	0	0	0	656	606	1021	0	0	0	
2	0	0	0	0	657	607	1021	0	0	0	
3	0	0	0	0	660	610	1021	0	0	0	
4	0	0	0	0	663	612	1021	0	0	0	
5	0	0	0	0	665	615	1021	0	0	0	
6	0	0	0	0	669	620	1021	0	0	0	
7	0	0	0	0	673	624	1021	0	0	0	
8	0	0	0	0	676	629	1021	0	0	0	
9	0	0	0	0	681	634	1021	0	0	0	
10	0	0	0	0	684	639	1021	0	0	0	
11	0	0	0	0	687	642	1021	0	0	0	
12	0	0	0	0	688	644	1021	0	0	0	
13	0	0	0	0	687	644	1021	0	0	0	
14	0	0	0	0	686	642	1021	0	0	0	
15	0	0	0	0	682	639	1021	0	0	0	
0	0	0	0	0	676	634	1021	0	0	0	
1	0	0	0	0	671	628	1021	0	0	0	
2	0	0	0	0	663	623	1020	0	0	0	
3	0	0	0	0	658	617	1021	0	0	0	
4	0	0	0	0	653	612	1021	0	0	0	
5	0	0	0	0	650	608	1021	0	0	0	
6	0	0	0	0	648	605	1021	0	0	0	
7	0	0	0	0	648	604	1021	0	0	0	
8	0	0	0	0	649	604	1021	0	0	0	
9	0	0	0	0	652	606	1021	0	0	0	
10	0	0	0	0	657	609	1021	0	0	0	
11	0	0	0	0	662	613	1021	0	0	0	
12	0	0	0	0	666	617	1021	0	0	0	
13	0	0	0	0	670	621	1021	0	0	0	
14	0	0	0	0	671	623	1021	0	0	0	
15	0	0	0	0	670	622	1021	0	0	0	
0	0	0	0	0	664	619	1021	0	0	0	
1	0	0	0	0	656	613	1021	0	0	0	
2	0	0	0	0	646	605	1021	0	0	0	
3	0	0	0	0	632	593	1021	0	0	0	
4	0	0	0	0	616	581	1021	0	0	0	
5	0	0	0	0	601	568	1021	0	0	0	
6	0	0	0	0	587	556	1021	0	0	0	
7	0	0	0	0	575	544	1021	0	0	0	
8	0	0	0	0	568	536	1021	0	0	0	
9	0	0	0	0	563	531	1021	0	0	0	
10	0	0	0	0	563	528	1021	0	0	0	
11	0	0	0	0	567	530	1020	0	0	0	
12	0	0	0	0	575	535	1021	0	0	0	
13	0	0	0	0	585	541	1021	0	0	0	
14	0	0	0	0	597	549	1021	0	0	0	
15	0	0	0	0	608	557	1021	0	0	0	
0	0	0	0	0	617	564	1021	0	0	0	
1	0	0	0	0	625	571	1021	0	0	0	
2	0	0	0	0	631	575	1021	0	0	0	
3	0	0	0	0	633	577	1021	0	0	0	
4	0	0	0	0	632	578	1021	0	0	0	
5	0	0	0	0	628	576	1020	0	0	0	
6	0	0	0	0	624	574	1021	0	0	0	
7	0	0	0	0	618	570	1021	0	0	0	
8	0	0	0	0	611	565	1021	0	0	0	
9	0	0	0	0	604	560	1021	0	0	0	
10	0	0	0	0	597	555	1021	0	0	0	
11	0	0	0	0	591	550	1021	0	0	0	
12	0	0	0	0	587	546	1021	0	0	0	
13	0	0	0	0	584	543	1021	0	0	0	
14	0	0	0	0	582	541	1020	0	0	0	
15	0	0	0	0	582	540	1021	0	0	0	
0	0	0	0	0	585	540	1021	0	0	0	
1	0	0	0	0	589	543	1021	0	0	0	
2	0	0	0	0	595	548	1021	0	0	0	
3	0	0	0	0	604	555	1021	0	0	0	
4	0	0	0	0	614	563	1020	0	0	0	
5	0	0	0	0	626	572	1021	0	0	0	
6	0	0	0	0	636	582	1021	0	0	0	
7	0	0	0	0	647	590	1021	0	0	0	
8	0	0	0	0	654	597	1021	0	0	0	
9	0	0	0	0	661	603	1021	0	0	0	
10	0	0	0	0	664	606	1021	0	0	0	
11	0	0	0	0	664	606	1021	0	0	0	
12	0	0	0	0	661	604	1021	0	0	0	
13	0	0	0	0	654	599	1020	0	0	0	
14	0	0	0	0	645	593	1021	0	0	0	
15	0	0	0	0	636	586	1021	0	0	0	
0	0	0	0	0	626	579	1021	0	0	0	
1	0	0	0	0	616	573	1021	0	0	0	
2	0	0	0	0	608	567	1021	0	0	0	
3	0	0	0	0	600	562	1020	0	0	0	
4	0	0	0	0	596	558	1021	0	0	0	
5	0	0	0	0	592	556	1021	0	0	0	
6	0	0	0	0	591	555	1021	0	0	0	
7	0	0	0	0	592	556	1021	0	0	0	
8	0	0	0	0	595	557	1021	0	0	0	
9	0	0	0	0	600	560	1021	0	0	0	
10	0	0	0	0	605	562	1021	0	0	0	
11	0	0	0	0	611	566	1021	0	0	0	
12	0	0	0	0	617	569	1021	0	0	0	
13	0	0	0	0	623	572	1021	0	0	0	
14	0	0	0	0	627	574	1021	0	0	0	
15	0	0	0	0	631	575	1021	0	0	0	
0	0	0	0	0	632	575	1021	0	0	0	
1	0	0	0	0	632	574	1021	0	0	0	
2	0	0	0	0	629	571	1020	0	0	0	
3	0	0	0	0	626	568	1021	0	0	0	
4	0	0	0	0	621	563	1021	0	0	0	
5	0	0	0	0	615	560	1021	0	0	0	
6	0	0	0	0	609	555	1021	0	0	0	
7	0	0	0	0	604	552	1021	0	0	0	
8	0	0	0	0	600	550	1021	0	0	0	
9	0	0	0	0	597	550	1021	0	0	0	
10	0	0	0	0	596	551	1021	0	0	0	
11	0	0	0	0	597	553	1021	0	0	0	
12	0	0	0	0	599	556	1021	0	0	0	
13	0	0	0	0	602	560	1021	0	0	0	
14	0	0	0	0	606	564	1021	0	0	0	
15	0	0	0	0	609	568	1021	0	0	0	
0	0	0	0	0	613	571	1021	0	0	0	
1	0	0	0	0	615	573	1020	0	0	0	
2	0	0	0	0	616	573	1021	0	0	0	
3	0	0	0	0	615	572	1021	0	0	0	
4	0	0	0	0	613	569	1021	0	0	0	
5	0	0	0	0	609	564	1021	0	0	0	
6	0	0	0	0	604	558	1020	0	0	0	
7	0	0	0	0	600	552	1021	0	0	0	
8	0	0	0	0	594	547	1021	0	0	0	
9	0	0	0	0	590	542	1021	0	0	0	
10	0	0	0	0	587	538	1021	0	0	0	
11	0	0	0	0	585	536	1020	0	0	0	
12	0	0	0	0	586	536	1021	0	0	0	
13	0	0	0	0	587	537	1021	0	0	0	
14	0	0	0	0	591	540	1021	0	0	0	
15	0	0	0	0	595	544	1021	0	0	0	
0	0	0	0	0	600	548	1021	0	0	0	
1	0	0	0	0	605	554	1021	0	0	0	
2	0	0	0	0	609	558	1021	0	0	0	
3	0	0	0	0	612	562	1021	0	0	0	
4	0	0	0	0	614	564	1021	0	0	0	
5	0	0	0	0	614	565	1020	0	0	0	
6	0	0	0	0	613	564	1021	0	0	0	
7	0	0	0	0	609	562	1021	0	0	0	
8	0	0	0	0	605	559	1021	0	0	0	
9	0	0	0	0	600	554	1021	0	0	0	
10	0	0	0	0	594	549	1021	0	0	0	
11	0	0	0	0	589	544	1021	0	0	0	
12	0	0	0	0	584	539	1021	0	0	0	
13	0	0	0	0	579	534	1021	0	0	0	
14	0	0	0	0	576	531	1020	0	0	0	
15	0	0	0	0	575	529	1020	0	0	0	
0	0	0	0	0	576	529	1021	0	0	0	
1	0	0	0	0	579	531	1021	0	0	0	
2	0	0	0	0	583	534	1021	0	0	0	
3	0	0	0	0	588	538	1021	0	0	0	
4	0	0	0	0	595	543	1021	0	0	0	
5	0	0	0	0	602	550	1021	0	0	0	
6	0	0	0	0	608	556	1021	0	0	0	
7	0	0	0	0	614	561	1021	0	0	0	
8	0	0	0	0	617	565	1021	0	0	0	
9	0	0	0	0	621	568	1021	0	0	0	
10	0	0	0	0	623	571	1021	0	0	0	
11	0	0	0	0	624	571	1021	0	0	0	
12	0	0	0	0	623	570	1021	0	0	0	
13	0	0	0	0	620	567	1021	0	0	0	
14	0	0	0	0	617	564	1021	0	0	0	
15	0	0	0	0	614	561	1021	0	0	0	
0	0	0	0	0	609	557	1021	0	0	0	
1	0	0	0	0	606	553	1021	0	0	0	
2	0	0	0	0	602	550	1021	0	0	0	
3	0	0	0	0	599	547	1021	0	0	0	
4	0	0	0	0	597	546	1021	0	0	0	
5	0	0	0	0	596	545	1021	0	0	0	
6	0	0	0	0	598	547	1021	0	0	0	
7	0	0	0	0	601	551	1021	0	0	0	
8	0	0	0	0	608	558	1021	0	0	0	
9	0	0	0	0	617	566	1021	0	0	0	
10	0	0	0	0	628	576	1021	0	0	0	
11	0	0	0	0	639	587	1021	0	0	0	
12	0	0	0	0	649	596	1021	0	0	0	
13	0	0	0	0	657	603	1021	0	0	0	
14	0	0	0	0	661	606	1021	0	0	0	
15	0	0	0	0	660	605	1021	0	0	0	
0	0	0	0	0	654	600	1021	0	0	0	
1	0	0	0	0	644	590	1021	0	0	0	
2	0	0	0	0	631	578	1021	0	0	0	
3	0	0	0	0	615	564	1021	0	0	0	
4	0	0	0	0	598	549	1021	0	0	0	
5	0	0	0	0	582	535	1021	0	0	0	
6	0	0	0	0	564	519	1021	0	0	0	
7	0	0	0	0	551	508	1021	0	0	0	
8	0	0	0	0	538	497	1021	0	0	0	
9	0	0	0	0	529	489	1021	0	0	0	
10	0	0	0	0	525	485	1021	0	0	0	
11	0	0	0	0	524	484	1021	0	0	0	
12	0	0	0	0	527	487	1021	0	0	0	
13	0	0	0	0	535	493	1021	0	0	0	
14	0	0	0	0	545	501	1021	0	0	0	
15	0	0	0	0	558	511	1021	0	0	0	
0	0	0	0	0	572	523	1021	0	0	0	
1	0	0	0	0	588	535	1021	0	0	0	
2	0	0	0	0	601	545	1021	0	0	0	
3	0	0	0	0	613	554	1021	0	0	0	
4	0	0	0	0	622	560	1021	0	0	0	
5	0	0	0	0	627	564	1021	0	0	0	
6	0	0	0	0	628	564	1021	0	0	0	
7	0	0	0	0	627	563	1021	0	0	0	
8	0	0	0	0	622	559	1021	0	0	0	
9	0	0	0	0	614	552	1021	0	0	0	
10	0	0	0	0	604	545	1020	0	0	0	
11	0	0	0	0	593	537	1021	0	0	0	
12	0	0	0	0	583	529	1021	0	0	0	
13	0	0	0	0	574	523	1021	0	0	0	
14	0	0	0	0	566	518	1021	0	0	0	
15	0	0	0	0	560	515	1021	0	0	0	
0	0	0	0	0	556	514	1021	0	0	0	
1	0	0	0	0	556	515	1021	0	0	0	
2	0	0	0	0	558	517	1021	0	0	0	
3	0	0	0	0	561	521	1021	0	0	0	
4	0	0	0	0	566	525	1020	0	0	0	
5	0	0	0	0	572	530	1020	0	0	0	
6	0	0	0	0	579	534	1021	0	0	0	
7	0	0	0	0	584	538	1021	0	0	0	
8	0	0	0	0	589	540	1021	0	0	0	
9	0	0	0	0	593	542	1021	0	0	0	
10	0	0	0	0	594	541	1021	0	0	0	
11	0	0	0	0	595	540	1021	0	0	0	
12	0	0	0	0	594	537	1021	0	0	0	
13	0	0	0	0	592	534	1021	0	0	0	
14	0	0	0	0	590	531	1021	0	0	0	
15	0	0	0	0	587	528	1021	0	0	0	
0	0	0	0	0	584	526	1021	0	0	0	
1	0	0	0	0	583	525	1021	0	0	0	
2	0	0	0	0	582	525	1021	0	0	0	
3	0	0	0	0	581	526	1021	0	0	0	
4	0	0	0	0	580	527	1021	0	0	0	
5	0	0	0	0	582	529	1021	0	0	0	
6	0	0	0	0	583	531	1021	0	0	0	
7	0	0	0	0	584	533	1021	0	0	0	
8	0	0	0	0	585	535	1021	0	0	0	
9	0	0	0	0	586	536	1021	0	0	0	
10	0	0	0	0	588	537	1021	0	0	0	
11	0	0	0	0	588	536	1021	0	0	0	
12	0	0	0	0	589	536	1021	0	0	0	
13	0	0	0	0	588	534	1021	0	0	0	
14	0	0	0	0	586	531	1021	0	0	0	
15	0	0	0	0	585	527	1021	0	0	0	
0	0	0	0	0	582	523	1021	0	0	0	
1	0	0	0	0	577	519	1021	0	0	0	
2	0	0	0	0	574	514	1021	0	0	0	
3	0	0	0	0	568	510	1021	0	0	0	
4	0	0	0	0	566	508	1021	0	0	0	
5	0	0	0	0	563	506	1021	0	0	0	
6	0	0	0	0	563	507	1021	0	0	0	
7	0	0	0	0	563	509	1021	0	0	0	
8	0	0	0	0	566	513	1020	0	0	0	
9	0	0	0	0	571	518	1021	0	0	0	
10	0	0	0	0	576	524	1021	0	0	0	
11	0	0	0	0	582	531	1021	0	0	0	
12	0	0	0	0	588	536	1021	0	0	0	
13	0	0	0	0	595	543	1021	0	0	0	
14	0	0	0	0	600	547	1021	0	0	0	
15	0	0	0	0	604	550	1021	0	0	0	
0	0	0	0	0	608	552	1021	0	0	0	
1	0	0	0	0	610	553	1021	0	0	0	
2	0	0	0	0	610	552	1021	0	0	0	
3	0	0	0	0	611	551	1021	0	0	0	
4	0	0	0	0	609	548	1021	0	0	0	
5	0	0	0	0	607	546	1021	0	0	0	
6	0	0	0	0	604	543	1021	0	0	0	
7	0	0	0	0	601	539	1021	0	0	0	
8	0	0	0	0	599	537	1021	0	0	0	
9	0	0	0	0	595	534	1021	0	0	0	
10	0	0	0	0	595	534	1021	0	0	0	
11	0	0	0	0	594	534	1021	0	0	0	
12	0	0	0	0	593	536	1020	0	0	0	
13	0	0	0	0	595	537	1021	0	0	0	
14	0	0	0	0	595	539	1021	0	0	0	
15	0	0	0	0	595	539	1021	0	0	0	
0	0	0	0	0	593	538	1021	0	0	0	
1	0	0	0	0	590	536	1020	0	0	0	
2	0	0	0	0	586	532	1021	0	0	0	
3	0	0	0	0	580	526	1021	0	0	0	
4	0	0	0	0	574	519	1021	0	0	0	
5	0	0	0	0	566	512	1021	0	0	0	
6	0	0	0	0	558	504	1020	0	0	0	
7	0	0	0	0	551	497	1021	0	0	0	
8	0	0	0	0	546	491	1021	0	0	0	
9	0	0	0	0	543	486	1021	0	0	0	
10	0	0	0	0	541	483	1020	0	0	0	
11	0	0	0	0	543	483	1020	0	0	0	
12	0	0	0	0	547	486	1021	0	0	0	
13	0	0	0	0	553	491	1021	0	0	0	
14	0	0	0	0	562	497	1021	0	0	0	
15	0	0	0	0	572	506	1021	0	0	0	
0	0	0	0	0	582	515	1021	0	0	0	
1	0	0	0	0	592	525	1021	0	0	0	
2	0	0	0	0	602	534	1021	0	0	0	
3	0	0	0	0	610	542	1021	0	0	0	
4	0	0	0	0	617	549	1021	0	0	0	
5	0	0	0	0	621	554	1021	0	0	0	
6	0	0	0	0	623	557	1021	0	0	0	
7	0	0	0	0	623	558	1021	0	0	0	
8	0	0	0	0	619	556	1021	0	0	0	
9	0	0	0	0	614	553	1021	0	0	0	
10	0	0	0	0	607	548	1021	0	0	0	
11	0	0	0	0	600	542	1021	0	0	0	
12	0	0	0	0	592	536	1021	0	0	0	
13	0	0	0	0	585	529	1021	0	0	0	
14	0	0	0	0	578	524	1020	0	0	0	
15	0	0	0	0	573	519	1021	0	0	0	
0	0	0	0	0	571	515	1021	0	0	0	
1	0	0	0	0	570	513	1021	0	0	0	
2	0	0	0	0	571	514	1021	0	0	0	
3	0	0	0	0	575	516	1021	0	0	0	
4	0	0	0	0	579	519	1021	0	0	0	
5	0	0	0	0	586	524	1021	0	0	0	
6	0	0	0	0	592	528	1021	0	0	0	
7	0	0	0	0	598	532	1021	0	0	0	
8	0	0	0	0	602	536	1021	0	0	0	
9	0	0	0	0	606	540	1021	0	0	0	
10	0	0	0	0	609	543	1021	0	0	0	
11	0	0	0	0	610	544	1021	0	0	0	
12	0	0	0	0	608	543	1021	0	0	0	
13	0	0	0	0	606	541	1021	0	0	0	
14	0	0	0	0	600	537	1021	0	0	0	
15	0	0	0	0	594	534	1021	0	0	0	
0	0	0	0	0	587	528	1021	0	0	0	
1	0	0	0	0	580	524	1021	0	0	0	
2	0	0	0	0	574	519	1021	0	0	0	
3	0	0	0	0	568	515	1020	0	0	0	
4	0	0	0	0	564	512	1021	0	0	0	
5	0	0	0	0	562	510	1021	0	0	0	
6	0	0	0	0	563	510	1021	0	0	0	
7	0	0	0	0	565	512	1021	0	0	0	
8	0	0	0	0	569	515	1020	0	0	0	
9	0	0	0	0	576	520	1021	0	0	0	
10	0	0	0	0	582	524	1021	0	0	0	
11	0	0	0	0	588	528	1021	0	0	0	
12	0	0	0	0	592	531	1021	0	0	0	
13	0	0	0	0	595	532	1021	0	0	0	
14	0	0	0	0	595	531	1021	0	0	0	
15	0	0	0	0	593	529	1021	0	0	0	
0	0	0	0	0	588	524	1021	0	0	0	
1	0	0	0	0	580	517	1021	0	0	0	
2	0	0	0	0	573	511	1020	0	0	0	
3	0	0	0	0	566	504	1021	0	0	0	
4	0	0	0	0	558	498	1021	0	0	0	
5	0	0	0	0	552	494	1021	0	0	0	
6	0	0	0	0	548	491	1021	0	0	0	
7	0	0	0	0	545	489	1021	0	0	0	
8	0	0	0	0	546	490	1021	0	0	0	
9	0	0	0	0	549	493	1021	0	0	0	
10	0	0	0	0	554	498	1021	0	0	0	
11	0	0	0	0	562	504	1021	0	0	0	
12	0	0	0	0	570	511	1021	0	0	0	
13	0	0	0	0	579	518	1021	0	0	0	
14	0	0	0	0	588	525	1021	0	0	0	
15	0	0	0	0	596	531	1021	0	0	0	
0	0	0	0	0	604	537	1021	0	0	0	
1	0	0	0	0	608	541	1021	0	0	0	
2	0	0	0	0	612	543	1021	0	0	0	
3	0	0	0	0	614	544	1021	0	0	0	
4	0	0	0	0	613	543	1021	0	0	0	
5	0	0	0	0	611	540	1021	0	0	0	
6	0	0	0	0	606	536	1020	0	0	0	
7	0	0	0	0	601	531	1021	0	0	0	
8	0	0	0	0	594	525	1021	0	0	0	
9	0	0	0	0	586	518	1021	0	0	0	
10	0	0	0	0	577	512	1020	0	0	0	
11	0	0	0	0	570	507	1020	0	0	0	
12	0	0	0	0	565	503	1021	0	0	0	
13	0	0	0	0	560	500	1021	0	0	0	
14	0	0	0	0	558	499	1021	0	0	0	
15	0	0	0	0	557	499	1021	0	0	0	
0	0	0	0	0	558	501	1021	0	0	0	
1	0	0	0	0	561	505	1021	0	0	0	
2	0	0	0	0	566	508	1021	0	0	0	
3	0	0	0	0	572	513	1021	0	0	0	
4	0	0	0	0	578	517	1021	0	0	0	
5	0	0	0	0	584	521	1021	0	0	0	
6	0	0	0	0	589	524	1021	0	0	0	
7	0	0	0	0	592	524	1021	0	0	0	
8	0	0	0	0	593	523	1021	0	0	0	
9	0	0	0	0	592	520	1021	0	0	0	
10	0	0	0	0	589	517	1021	0	0	0	
11	0	0	0	0	585	513	1021	0	0	0	
12	0	0	0	0	581	509	1021	0	0	0	
13	0	0	0	0	576	505	1021	0	0	0	
14	0	0	0	0	571	503	1021	0	0	0	
15	0	0	0	0	568	500	1020	0	0	0	
0	0	0	0	0	567	500	1021	0	0	0	
1	0	0	0	0	566	500	1021	0	0	0	
2	0	0	0	0	567	503	1021	0	0	0	
3	0	0	0	0	570	505	1021	0	0	0	
4	0	0	0	0	572	509	1020	0	0	0	
5	0	0	0	0	576	513	1021	0	0	0	
6	0	0	0	0	579	516	1021	0	0	0	
7	0	0	0	0	583	519	1021	0	0	0	
8	0	0	0	0	584	520	1021	0	0	0	
9	0	0	0	0	585	521	1021	0	0	0	
10	0	0	0	0	586	521	1021	0	0	0	
11	0	0	0	0	585	521	1021	0	0	0	
12	0	0	0	0	585	520	1021	0	0	0	
13	0	0	0	0	583	518	1021	0	0	0	
14	0	0	0	0	582	517	1021	0	0	0	
15	0	0	0	0	581	515	1021	0	0	0	
0	0	0	0	0	580	512	1021	0	0	0	
1	0	0	0	0	578	510	1021	0	0	0	
2	0	0	0	0	575	507	1021	0	0	0	
3	0	0	0	0	574	505	1021	0	0	0	
4	0	0	0	0	571	502	1021	0	0	0	
5	0	0	0	0	568	501	1021	0	0	0	
6	0	0	0	0	566	500	1021	0	0	0	
7	0	0	0	0	564	500	1021	0	0	0	
8	0	0	0	0	564	501	1021	0	0	0	
9	0	0	0	0	565	504	1021	0	0	0	
10	0	0	0	0	566	506	1021	0	0	0	
11	0	0	0	0	568	510	1021	0	0	0	
12	0	0	0	0	572	514	1021	0	0	0	
13	0	0	0	0	576	519	1021	0	0	0	
14	0	0	0	0	580	522	1021	0	0	0	
15	0	0	0	0	585	525	1021	0	0	0	
0	0	0	0	0	588	526	1021	0	0	0	
1	0	0	0	0	590	526	1021	0	0	0	
2	0	0	0	0	593	526	1021	0	0	0	
3	0	0	0	0	593	524	1021	0	0	0	
4	0	0	0	0	592	520	1021	0	0	0	
5	0	0	0	0	589	516	1021	0	0	0	
6	0	0	0	0	585	510	1021	0	0	0	
7	0	0	0	0	580	505	1021	0	0	0	
8	0	0	0	0	574	499	1021	0	0	0	
9	0	0	0	0	568	494	1021	0	0	0	
10	0	0	0	0	562	490	1021	0	0	0	
11	0	0	0	0	558	487	1021	0	0	0	
12	0	0	0	0	554	486	1021	0	0	0	
13	0	0	0	0	552	487	1021	0	0	0	
14	0	0	0	0	551	487	1021	0	0	0	
15	0	0	0	0	551	490	1021	0	0	0	
0	0	0	0	0	552	493	1021	0	0	0	
1	0	0	0	0	554	496	1021	0	0	0	
2	0	0	0	0	557	499	1021	0	0	0	
3	0	0	0	0	560	501	1021	0	0	0	
4	0	0	0	0	562	503	1021	0	0	0	
5	0	0	0	0	565	504	1021	0	0	0	
6	0	0	0	0	568	505	1020	0	0	0	
7	0	0	0	0	571	507	1021	0	0	0	
8	0	0	0	0	573	507	1021	0	0	0	
9	0	0	0	0	575	508	1021	0	0	0	
10	0	0	0	0	577	508	1021	0	0	0	
11	0	0	0	0	580	509	1021	0	0	0	
12	0	0	0	0	583	512	1021	0	0	0	
13	0	0	0	0	588	516	1021	0	0	0	
14	0	0	0	0	593	521	1021	0	0	0	
15	0	0	0	0	600	529	1021	0	0	0	
0	0	0	0	0	607	536	1020	0	0	0	
1	0	0	0	0	615	544	1021	0	0	0	
2	0	0	0	0	620	551	1021	0	0	0	
3	0	0	0	0	625	556	1021	0	0	0	
4	0	0	0	0	627	560	1021	0	0	0	
5	0	0	0	0	627	561	1020	0	0	0	
6	0	0	0	0	626	560	1021	0	0	0	
7	0	0	0	0	622	557	1021	0	0	0	
8	0	0	0	0	616	552	1021	0	0	0	
9	0	0	0	0	607	544	1021	0	0	0	
10	0	0	0	0	599	536	1020	0	0	0	
11	0	0	0	0	590	527	1021	0	0	0	
12	0	0	0	0	581	519	1021	0	0	0	
13	0	0	0	0	573	510	1021	0	0	0	
14	0	0	0	0	567	504	1021	0	0	0	
15	0	0	0	0	563	500	1021	0	0	0	
0	0	0	0	0	563	499	1021	0	0	0	
1	0	0	0	0	564	500	1021	0	0	0	
2	0	0	0	0	567	502	1021	0	0	0	
3	0	0	0	0	570	504	1021	0	0	0	
4	0	0	0	0	572	505	1020	0	0	0	
5	0	0	0	0	574	508	1021	0	0	0	
6	0	0	0	0	574	508	1021	0	0	0	
7	0	0	0	0	572	507	1021	0	0	0	
8	0	0	0	0	568	504	1021	0	0	0	
9	0	0	0	0	563	500	1021	0	0	0	
10	0	0	0	0	558	496	1021	0	0	0	
11	0	0	0	0	552	492	1021	0	0	0	
12	0	0	0	0	546	487	1021	0	0	0	
13	0	0	0	0	540	482	1020	0	0	0	
14	0	0	0	0	536	478	1021	0	0	0	
15	0	0	0	0	534	476	1021	0	0	0	
0	0	0	0	0	534	475	1021	0	0	0	
1	0	0	0	0	536	475	1021	0	0	0	
2	0	0	0	0	540	477	1021	0	0	0	
3	0	0	0	0	545	480	1020	0	0	0	
4	0	0	0	0	552	485	1021	0	0	0	
5	0	0	0	0	560	491	1021	0	0	0	
6	0	0	0	0	569	497	1021	0	0	0	
7	0	0	0	0	577	504	1021	0	0	0	
8	0	0	0	0	585	511	1021	0	0	0	
9	0	0	0	0	591	516	1021	0	0	0	
10	0	0	0	0	595	521	1021	0	0	0	
11	0	0	0	0	598	525	1021	0	0	0	
12	0	0	0	0	599	527	1021	0	0	0	
13	0	0	0	0	599	528	1021	0	0	0	
14	0	0	0	0	598	529	1021	0	0	0	
15	0	0	0	0	595	529	1021	0	0	0	
0	0	0	0	0	592	527	1021	0	0	0	
1	0	0	0	0	588	525	1021	0	0	0	
2	0	0	0	0	583	521	1021	0	0	0	
3	0	0	0	0	579	517	1021	0	0	0	
4	0	0	0	0	574	512	1021	0	0	0	
5	0	0	0	0	569	508	1021	0	0	0	
6	0	0	0	0	566	504	1021	0	0	0	
7	0	0	0	0	563	500	1021	0	0	0	
8	0	0	0	0	562	499	1021	0	0	0	
9	0	0	0	0	563	499	1021	0	0	0	
10	0	0	0	0	567	501	1021	0	0	0	
11	0	0	0	0	571	504	1021	0	0	0	
12	0	0	0	0	576	508	1021	0	0	0	
13	0	0	0	0	582	513	1021	0	0	0	
14	0	0	0	0	587	517	1021	0	0	0	
15	0	0	0	0	592	521	1021	0	0	0	
0	0	0	0	0	595	524	1021	0	0	0	
1	0	0	0	0	596	526	1021	0	0	0	
2	0	0	0	0	595	526	1021	0	0	0	
3	0	0	0	0	591	523	1021	0	0	0	
4	0	0	0	0	585	518	1021	0	0	0	
5	0	0	0	0	575	510	1021	0	0	0	
6	0	0	0	0	563	499	1021	0	0	0	
7	0	0	0	0	547	486	1021	0	0	0	
8	0	0	0	0	529	471	1021	0	0	0	
9	0	0	0	0	510	454	1021	0	0	0	
10	0	0	0	0	489	435	1021	0	0	0	
11	0	0	0	0	468	417	1021	0	0	0	
12	0	0	0	0	449	399	1021	0	0	0	
13	0	0	0	0	431	383	1021	0	0	0	
14	0	0	0	0	415	369	1021	0	0	0	
15	0	0	0	0	403	357	1021	0	0	0	
0	0	0	0	0	393	348	1021	0	0	0	
1	0	0	0	0	386	339	1021	0	0	0	
2	0	0	0	0	380	332	1021	0	0	0	
3	0	0	0	0	375	324	1021	0	0	0	
4	0	0	0	0	371	318	1021	0	0	0	
5	0	0	0	0	369	312	1021	0	0	0	
6	0	0	0	0	367	307	1021	0	0	0	
7	0	0	0	0	366	302	1021	0	0	0	
8	0	0	0	0	364	297	1021	0	0	0	
9	0	0	0	0	364	294	1021	0	0	0	
10	0	0	0	0	364	291	1021	0	0	0	
11	0	0	0	0	365	290	1021	0	0	0	
12	0	0	0	0	368	291	1021	0	0	0	
13	0	0	0	0	374	295	1021	0	0	0	
14	0	0	0	0	382	302	1021	0	0	0	
15	0	0	0	0	393	313	1021	0	0	0	
0	0	0	0	0	409	328	1021	0	0	0	
1	0	0	0	0	428	347	1021	0	0	0	
2	0	0	0	0	449	369	1021	0	0	0	
3	0	0	0	0	472	392	1021	0	0	0	
4	0	0	0	0	497	418	1021	0	0	0	
5	0	0	0	0	522	442	1021	0	0	0	
6	0	0	0	0	544	466	1021	0	0	0	
7	0	0	0	0	566	487	1021	0	0	0	
8	0	0	0	0	583	507	1021	0	0	0	
9	0	0	0	0	599	523	1021	0	0	0	
10	0	0	0	0	609	535	1021	0	0	0	
11	0	0	0	0	617	544	1021	0	0	0	
12	0	0	0	0	620	548	1021	0	0	0	
13	0	0	0	0	618	548	1021	0	0	0	
14	0	0	0	0	614	546	1021	0	0	0	
15	0	0	0	0	606	540	1021	0	0	0	
0	0	0	0	0	596	532	1021	0	0	0	
1	0	0	0	0	585	523	1021	0	0	0	
2	0	0	0	0	573	513	1020	0	0	0	
3	0	0	0	0	561	503	1021	0	0	0	
4	0	0	0	0	552	495	1021	0	0	0	
5	0	0	0	0	544	489	1021	0	0	0	
6	0	0	0	0	539	485	1021	0	0	0	
7	0	0	0	0	537	483	1021	0	0	0	
8	0	0	0	0	539	486	1021	0	0	0	
9	0	0	0	0	544	491	1021	0	0	0	
10	0	0	0	0	552	497	1021	0	0	0	
11	0	0	0	0	561	504	1021	0	0	0	
12	0	0	0	0	572	513	1020	0	0	0	
13	0	0	0	0	583	521	1021	0	0	0	
14	0	0	0	0	594	530	1021	0	0	0	
15	0	0	0	0	604	537	1021	0	0	0	
0	0	0	0	0	612	542	1021	0	0	0	
1	0	0	0	0	617	545	1021	0	0	0	
2	0	0	0	0	621	548	1021	0	0	0	
3	0	0	0	0	622	548	1021	0	0	0	
4	0	0	0	0	619	547	1021	0	0	0	
5	0	0	0	0	614	543	1021	0	0	0	
6	0	0	0	0	607	538	1021	0	0	0	
7	0	0	0	0	599	533	1020	0	0	0	
8	0	0	0	0	592	529	1021	0	0	0	
9	0	0	0	0	585	525	1021	0	0	0	
10	0	0	0	0	581	524	1021	0	0	0	
11	0	0	0	0	578	524	1021	0	0	0	
12	0	0	0	0	577	525	1020	0	0	0	
13	0	0	0	0	579	528	1021	0	0	0	
14	0	0	0	0	582	532	1021	0	0	0	
15	0	0	0	0	586	536	1021	0	0	0	
0	0	0	0	0	591	541	1021	0	0	0	
1	0	0	0	0	597	545	1021	0	0	0	
2	0	0	0	0	603	550	1021	0	0	0	
3	0	0	0	0	608	553	1021	0	0	0	
4	0	0	0	0	612	555	1021	0	0	0	
5	0	0	0	0	615	555	1021	0	0	0	
6	0	0	0	0	615	554	1021	0	0	0	
7	0	0	0	0	614	551	1021	0	0	0	
8	0	0	0	0	610	547	1021	0	0	0	
9	0	0	0	0	605	542	1021	0	0	0	
10	0	0	0	0	599	536	1021	0	0	0	
11	0	0	0	0	592	530	1021	0	0	0	
12	0	0	0	0	586	524	1021	0	0	0	
13	0	0	0	0	581	520	1021	0	0	0	
14	0	0	0	0	577	518	1021	0	0	0	
15	0	0	0	0	575	517	1021	0	0	0	
0	0	0	0	0	574	518	1020	0	0	0	
1	0	0	0	0	575	519	1021	0	0	0	
2	0	0	0	0	578	521	1021	0	0	0	
3	0	0	0	0	580	524	1021	0	0	0	
4	0	0	0	0	584	527	1021	0	0	0	
5	0	0	0	0	586	529	1021	0	0	0	
6	0	0	0	0	589	530	1021	0	0	0	
7	0	0	0	0	590	531	1021	0	0	0	
8	0	0	0	0	589	529	1021	0	0	0	
9	0	0	0	0	588	526	1021	0	0	0	
10	0	0	0	0	584	523	1020	0	0	0	
11	0	0	0	0	582	519	1021	0	0	0	
12	0	0	0	0	578	514	1021	0	0	0	
13	0	0	0	0	574	510	1021	0	0	0	
14	0	0	0	0	572	507	1021	0	0	0	
15	0	0	0	0	571	505	1021	0	0	0	
0	0	0	0	0	571	506	1021	0	0	0	
1	0	0	0	0	574	508	1021	0	0	0	
2	0	0	0	0	577	511	1021	0	0	0	
3	0	0	0	0	582	515	1021	0	0	0	
4	0	0	0	0	585	519	1020	0	0	0	
5	0	0	0	0	590	523	1021	0	0	0	
6	0	0	0	0	592	526	1021	0	0	0	
7	0	0	0	0	594	527	1021	0	0	0	
8	0	0	0	0	593	528	1021	0	0	0	
9	0	0	0	0	592	527	1021	0	0	0	
10	0	0	0	0	589	524	1021	0	0	0	
11	0	0	0	0	585	521	1021	0	0	0	
12	0	0	0	0	579	516	1021	0	0	0	
13	0	0	0	0	573	511	1020	0	0	0	
14	0	0	0	0	567	505	1021	0	0	0	
15	0	0	0	0	561	500	1021	0	0	0	
0	0	0	0	0	556	496	1021	0	0	0	
1	0	0	0	0	552	492	1021	0	0	0	
2	0	0	0	0	550	489	1021	0	0	0	
3	0	0	0	0	549	487	1020	0	0	0	
4	0	0	0	0	551	489	1021	0	0	0	
5	0	0	0	0	555	492	1021	0	0	0	
6	0	0	0	0	560	496	1021	0	0	0	
7	0	0	0	0	567	502	1021	0	0	0	
8	0	0	0	0	574	509	1021	0	0	0	
9	0	0	0	0	582	516	1021	0	0	0	
10	0	0	0	0	589	523	1021	0	0	0	
11	0	0	0	0	595	528	1021	0	0	0	
12	0	0	0	0	600	533	1021	0	0	0	
13	0	0	0	0	603	536	1021	0	0	0	
14	0	0	0	0	605	539	1021	0	0	0	
15	0	0	0	0	606	540	1021	0	0	0	
0	0	0	0	0	605	540	1021	0	0	0	
1	0	0	0	0	602	538	1021	0	0	0	
2	0	0	0	0	598	535	1020	0	0	0	
3	0	0	0	0	593	531	1021	0	0	0	
4	0	0	0	0	587	525	1021	0	0	0	
5	0	0	0	0	580	519	1021	0	0	0	
6	0	0	0	0	572	512	1021	0	0	0	
7	0	0	0	0	566	507	1021	0	0	0	
8	0	0	0	0	560	501	1021	0	0	0	
9	0	0	0	0	556	497	1021	0	0	0	
10	0	0	0	0	553	496	1021	0	0	0	
11	0	0	0	0	552	495	1021	0	0	0	
12	0	0	0	0	553	497	1021	0	0	0	
13	0	0	0	0	557	500	1021	0	0	0	
14	0	0	0	0	562	504	1021	0	0	0	
15	0	0	0	0	568	510	1021	0	0	0	
0	0	0	0	0	574	514	1021	0	0	0	
1	0	0	0	0	580	519	1021	0	0	0	
2	0	0	0	0	585	523	1021	0	0	0	
3	0	0	0	0	588	524	1021	0	0	0	
4	0	0	0	0	589	524	1021	0	0	0	
5	0	0	0	0	587	520	1021	0	0	0	
6	0	0	0	0	582	516	1021	0	0	0	
7	0	0	0	0	576	509	1021	0	0	0	
8	0	0	0	0	568	502	1021	0	0	0	
9	0	0	0	0	560	494	1021	0	0	0	
10	0	0	0	0	551	487	1021	0	0	0	
11	0	0	0	0	544	481	1021	0	0	0	
12	0	0	0	0	540	477	1021	0	0	0	
13	0	0	0	0	537	476	1021	0	0	0	
14	0	0	0	0	538	476	1021	0	0	0	
15	0	0	0	0	541	480	1021	0	0	0	
0	0	0	0	0	546	485	1021	0	0	0	
1	0	0	0	0	553	491	1021	0	0	0	
2	0	0	0	0	560	497	1021	0	0	0	
3	0	0	0	0	566	502	1021	0	0	0	
4	0	0	0	0	572	507	1021	0	0	0	
5	0	0	0	0	576	510	1021	0	0	0	
6	0	0	0	0	578	511	1021	0	0	0	
7	0	0	0	0	578	511	1021	0	0	0	
8	0	0	0	0	576	508	1021	0	0	0	
9	0	0	0	0	573	506	1021	0	0	0	
10	0	0	0	0	568	502	1021	0	0	0	
11	0	0	0	0	563	497	1021	0	0	0	
12	0	0	0	0	559	493	1021	0	0	0	
13	0	0	0	0	555	489	1020	0	0	0	
14	0	0	0	0	551	487	1021	0	0	0	
15	0	0	0	0	550	485	1021	0	0	0	
0	0	0	0	0	551	486	1021	0	0	0	
1	0	0	0	0	554	489	1021	0	0	0	
2	0	0	0	0	559	494	1021	0	0	0	
3	0	0	0	0	566	499	1021	0	0	0	
4	0	0	0	0	574	506	1021	0	0	0	
5	0	0	0	0	583	513	1021	0	0	0	
6	0	0	0	0	590	520	1021	0	0	0	
7	0	0	0	0	597	526	1021	0	0	0	
8	0	0	0	0	601	530	1020	0	0	0	
9	0	0	0	0	603	532	1021	0	0	0	
10	0	0	0	0	604	532	1021	0	0	0	
11	0	0	0	0	601	531	1021	0	0	0	
12	0	0	0	0	596	527	1021	0	0	0	
13	0	0	0	0	590	522	1021	0	0	0	
14	0	0	0	0	581	516	1020	0	0	0	
15	0	0	0	0	574	510	1021	0	0	0	
0	0	0	0	0	565	503	1021	0	0	0	
1	0	0	0	0	557	495	1021	0	0	0	
2	0	0	0	0	548	488	1021	0	0	0	
3	0	0	0	0	543	483	1021	0	0	0	
4	0	0	0	0	538	480	1021	0	0	0	
5	0	0	0	0	536	478	1021	0	0	0	
6	0	0	0	0	536	478	1021	0	0	0	
7	0	0	0	0	540	480	1021	0	0	0	
8	0	0	0	0	544	484	1021	0	0	0	
9	0	0	0	0	551	489	1021	0	0	0	
10	0	0	0	0	558	495	1021	0	0	0	
11	0	0	0	0	565	500	1020	0	0	0	
12	0	0	0	0	571	505	1021	0	0	0	
13	0	0	0	0	576	508	1020	0	0	0	
14	0	0	0	0	579	510	1021	0	0	0	
15	0	0	0	0	579	508	1021	0	0	0	
0	0	0	0	0	577	505	1021	0	0	0	
1	0	0	0	0	572	500	1021	0	0	0	
2	0	0	0	0	565	494	1021	0	0	0	
3	0	0	0	0	558	487	1021	0	0	0	
4	0	0	0	0	549	480	1021	0	0	0	
5	0	0	0	0	540	473	1021	0	0	0	
6	0	0	0	0	534	467	1021	0	0	0	
7	0	0	0	0	527	462	1021	0	0	0	
8	0	0	0	0	524	460	1021	0	0	0	
9	0	0	0	0	524	460	1021	0	0	0	
10	0	0	0	0	525	462	1021	0	0	0	
11	0	0	0	0	529	466	1021	0	0	0	
12	0	0	0	0	535	472	1020	0	0	0	
13	0	0	0	0	544	480	1021	0	0	0	
14	0	0	0	0	552	487	1021	0	0	0	
15	0	0	0	0	561	496	1021	0	0	0	
0	0	0	0	0	569	503	1021	0	0	0	
1	0	0	0	0	576	509	1021	0	0	0	
2	0	0	0	0	582	514	1021	0	0	0	
3	0	0	0	0	584	516	1021	0	0	0	
4	0	0	0	0	584	515	1021	0	0	0	
5	0	0	0	0	581	512	1021	0	0	0	
6	0	0	0	0	575	508	1021	0	0	0	
7	0	0	0	0	568	502	1021	0	0	0	
8	0	0	0	0	560	495	1021	0	0	0	
9	0	0	0	0	551	487	1021	0	0	0	
10	0	0	0	0	543	480	1021	0	0	0	
11	0	0	0	0	536	474	1021	0	0	0	
12	0	0	0	0	530	469	1021	0	0	0	
13	0	0	0	0	526	465	1021	0	0	0	
14	0	0	0	0	524	464	1021	0	0	0	
15	0	0	0	0	525	465	1021	0	0	0	
0	0	0	0	0	527	468	1021	0	0	0	
1	0	0	0	0	533	472	1021	0	0	0	
2	0	0	0	0	540	478	1021	0	0	0	
3	0	0	0	0	547	484	1021	0	0	0	
4	0	0	0	0	555	490	1021	0	0	0	
5	0	0	0	0	562	496	1021	0	0	0	
6	0	0	0	0	569	500	1021	0	0	0	
7	0	0	0	0	574	504	1021	0	0	0	
8	0	0	0	0	576	504	1021	0	0	0	
9	0	0	0	0	575	503	1021	0	0	0	
10	0	0	0	0	573	499	1021	0	0	0	
11	0	0	0	0	568	495	1021	0	0	0	
12	0	0	0	0	563	489	1021	0	0	0	
13	0	0	0	0	556	484	1021	0	0	0	
14	0	0	0	0	549	478	1021	0	0	0	
15	0	0	0	0	543	473	1020	0	0	0	
0	0	0	0	0	538	470	1021	0	0	0	
1	0	0	0	0	534	467	1021	0	0	0	
2	0	0	0	0	532	467	1021	0	0	0	
3	0	0	0	0	532	468	1021	0	0	0	
4	0	0	0	0	534	470	1020	0	0	0	
5	0	0	0	0	537	474	1021	0	0	0	
6	0	0	0	0	542	478	1021	0	0	0	
7	0	0	0	0	546	482	1021	0	0	0	
8	0	0	0	0	551	486	1021	0	0	0	
9	0	0	0	0	555	489	1021	0	0	0	
10	0	0	0	0	559	492	1021	0	0	0	
11	0	0	0	0	561	493	1021	0	0	0	
12	0	0	0	0	562	492	1021	0	0	0	
13	0	0	0	0	561	491	1020	0	0	0	
14	0	0	0	0	559	488	1021	0	0	0	
15	0	0	0	0	555	485	1021	0	0	0	
0	0	0	0	0	550	481	1021	0	0	0	
1	0	0	0	0	545	477	1020	0	0	0	
2	0	0	0	0	540	474	1021	0	0	0	
3	0	0	0	0	536	471	1020	0	0	0	
4	0	0	0	0	535	471	1021	0	0	0	
5	0	0	0	0	535	471	1021	0	0	0	
6	0	0	0	0	536	474	1021	0	0	0	
7	0	0	0	0	540	478	1021	0	0	0	
8	0	0	0	0	545	483	1021	0	0	0	
9	0	0	0	0	552	489	1021	0	0	0	
10	0	0	0	0	559	495	1021	0	0	0	
11	0	0	0	0	566	501	1021	0	0	0	
12	0	0	0	0	572	507	1021	0	0	0	
13	0	0	0	0	577	512	1021	0	0	0	
14	0	0	0	0	582	515	1021	0	0	0	
15	0	0	0	0	583	517	1021	0	0	0	
0	0	0	0	0	583	518	1021	0	0	0	
1	0	0	0	0	582	517	1021	0	0	0	
2	0	0	0	0	579	514	1021	0	0	0	
3	0	0	0	0	575	512	1021	0	0	0	
4	0	0	0	0	571	508	1021	0	0	0	
5	0	0	0	0	566	503	1021	0	0	0	
6	0	0	0	0	560	498	1021	0	0	0	
7	0	0	0	0	555	494	1021	0	0	0	
8	0	0	0	0	551	489	1021	0	0	0	
9	0	0	0	0	546	484	1021	0	0	0	
10	0	0	0	0	543	482	1021	0	0	0	
11	0	0	0	0	541	480	1021	0	0	0	
12	0	0	0	0	540	480	1021	0	0	0	
13	0	0	0	0	541	481	1021	0	0	0	
14	0	0	0	0	542	482	1021	0	0	0	
15	0	0	0	0	544	484	1021	0	0	0	
0	0	0	0	0	546	486	1020	0	0	0	
1	0	0	0	0	548	488	1021	0	0	0	
2	0	0	0	0	549	489	1021	0	0	0	
3	0	0	0	0	549	488	1021	0	0	0	
4	0	0	0	0	547	487	1021	0	0	0	
5	0	0	0	0	545	483	1021	0	0	0	
6	0	0	0	0	541	479	1021	0	0	0	
7	0	0	0	0	537	475	1021	0	0	0	
8	0	0	0	0	534	470	1021	0	0	0	
9	0	0	0	0	531	465	1021	0	0	0	
10	0	0	0	0	528	462	1021	0	0	0	
11	0	0	0	0	527	460	1021	0	0	0	
12	0	0	0	0	528	460	1021	0	0	0	
13	0	0	0	0	531	461	1021	0	0	0	
14	0	0	0	0	535	465	1021	0	0	0	
15	0	0	0	0	540	470	1021	0	0	0	
0	0	0	0	0	546	476	1021	0	0	0	
1	0	0	0	0	552	483	1021	0	0	0	
2	0	0	0	0	558	490	1021	0	0	0	
3	0	0	0	0	563	496	1021	0	0	0	
4	0	0	0	0	568	501	1021	0	0	0	
5	0	0	0	0	571	504	1021	0	0	0	
6	0	0	0	0	572	507	1021	0	0	0	
7	0	0	0	0	572	508	1021	0	0	0	
8	0	0	0	0	572	506	1021	0	0	0	
9	0	0	0	0	568	504	1021	0	0	0	
10	0	0	0	0	566	501	1021	0	0	0	
11	0	0	0	0	563	498	1021	0	0	0	
12	0	0	0	0	559	494	1021	0	0	0	
13	0	0	0	0	555	489	1021	0	0	0	
14	0	0	0	0	551	485	1021	0	0	0	
15	0	0	0	0	546	480	1021	0	0	0	
0	0	0	0	0	542	476	1021	0	0	0	
1	0	0	0	0	538	473	1021	0	0	0	
2	0	0	0	0	535	471	1021	0	0	0	
3	0	0	0	0	533	470	1021	0	0	0	
4	0	0	0	0	531	470	1021	0	0	0	
5	0	0	0	0	532	471	1021	0	0	0	
6	0	0	0	0	532	472	1021	0	0	0	
7	0	0	0	0	532	473	1021	0	0	0	
8	0	0	0	0	533	474	1021	0	0	0	
9	0	0	0	0	532	474	1021	0	0	0	
10	0	0	0	0	532	474	1021	0	0	0	
11	0	0	0	0	530	472	1021	0	0	0	
12	0	0	0	0	528	470	1021	0	0	0	
13	0	0	0	0	526	466	1021	0	0	0	
14	0	0	0	0	523	463	1021	0	0	0	
15	0	0	0	0	522	459	1021	0	0	0	
0	0	0	0	0	520	457	1021	0	0	0	
1	0	0	0	0	519	455	1021	0	0	0	
2	0	0	0	0	520	454	1021	0	0	0	
3	0	0	0	0	521	454	1021	0	0	0	
4	0	0	0	0	524	456	1021	0	0	0	
5	0	0	0	0	528	460	1021	0	0	0	
6	0	0	0	0	534	465	1021	0	0	0	
7	0	0	0	0	540	472	1021	0	0	0	
8	0	0	0	0	546	478	1021	0	0	0	
9	0	0	0	0	552	485	1021	0	0	0	
10	0	0	0	0	558	491	1021	0	0	0	
11	0	0	0	0	561	496	1021	0	0	0	
12	0	0	0	0	564	498	1021	0	0	0	
13	0	0	0	0	565	500	1021	0	0	0	
14	0	0	0	0	566	500	1021	0	0	0	
15	0	0	0	0	564	499	1021	0	0	0	
0	0	0	0	0	561	495	1021	0	0	0	
1	0	0	0	0	556	490	1021	0	0	0	
2	0	0	0	0	550	484	1021	0	0	0	
3	0	0	0	0	543	477	1021	0	0	0	
4	0	0	0	0	536	470	1021	0	0	0	
5	0	0	0	0	530	463	1021	0	0	0	
6	0	0	0	0	524	457	1021	0	0	0	
7	0	0	0	0	520	453	1021	0	0	0	
8	0	0	0	0	519	451	1021	0	0	0	
9	0	0	0	0	519	451	1021	0	0	0	
10	0	0	0	0	522	454	1021	0	0	0	
11	0	0	0	0	527	458	1021	0	0	0	
12	0	0	0	0	533	464	1021	0	0	0	
13	0	0	0	0	540	471	1021	0	0	0	
14	0	0	0	0	548	478	1021	0	0	0	
15	0	0	0	0	555	486	1021	0	0	0	
0	0	0	0	0	562	492	1021	0	0	0	
1	0	0	0	0	568	499	1021	0	0	0	
2	0	0	0	0	574	504	1021	0	0	0	
3	0	0	0	0	576	508	1021	0	0	0	
4	0	0	0	0	577	509	1021	0	0	0	
5	0	0	0	0	575	508	1021	0	0	0	
6	0	0	0	0	572	505	1021	0	0	0	
7	0	0	0	0	567	501	1021	0	0	0	
8	0	0	0	0	561	495	1021	0	0	0	
9	0	0	0	0	553	488	1021	0	0	0	
10	0	0	0	0	545	481	1021	0	0	0	
11	0	0	0	0	539	475	1021	0	0	0	
12	0	0	0	0	534	470	1021	0	0	0	
13	0	0	0	0	530	467	1021	0	0	0	
14	0	0	0	0	529	465	1021	0	0	0	
15	0	0	0	0	530	466	1021	0	0	0	
0	0	0	0	0	533	470	1021	0	0	0	
1	0	0	0	0	538	474	1021	0	0	0	
2	0	0	0	0	544	480	1021	0	0	0	
3	0	0	0	0	550	485	1021	0	0	0	
4	0	0	0	0	556	489	1021	0	0	0	
5	0	0	0	0	561	494	1021	0	0	0	
6	0	0	0	0	564	497	1021	0	0	0	
7	0	0	0	0	566	498	1021	0	0	0	
8	0	0	0	0	564	496	1021	0	0	0	
9	0	0	0	0	560	492	1021	0	0	0	
10	0	0	0	0	554	487	1021	0	0	0	
11	0	0	0	0	546	480	1021	0	0	0	
12	0	0	0	0	537	472	1021	0	0	0	
13	0	0	0	0	528	463	1021	0	0	0	
14	0	0	0	0	519	455	1021	0	0	0	
15	0	0	0	0	511	449	1021	0	0	0	
0	0	0	0	0	507	445	1021	0	0	0	
1	0	0	0	0	504	443	1021	0	0	0	
2	0	0	0	0	504	444	1021	0	0	0	
3	0	0	0	0	508	447	1021	0	0	0	
4	0	0	0	0	512	451	1021	0	0	0	
5	0	0	0	0	519	457	1021	0	0	0	
6	0	0	0	0	527	463	1021	0	0	0	
7	0	0	0	0	535	470	1021	0	0	0	
8	0	0	0	0	542	475	1021	0	0	0	
9	0	0	0	0	548	480	1021	0	0	0	
10	0	0	0	0	553	483	1021	0	0	0	
11	0	0	0	0	556	485	1021	0	0	0	
12	0	0	0	0	557	484	1021	0	0	0	
13	0	0	0	0	555	483	1020	0	0	0	
14	0	0	0	0	551	479	1021	0	0	0	
15	0	0	0	0	547	475	1021	0	0	0	
0	0	0	0	0	540	470	1021	0	0	0	
1	0	0	0	0	535	465	1021	0	0	0	
2	0	0	0	0	528	461	1021	0	0	0	
3	0	0	0	0	523	457	1020	0	0	0	
4	0	0	0	0	519	455	1021	0	0	0	
5	0	0	0	0	518	455	1021	0	0	0	
6	0	0	0	0	518	456	1021	0	0	0	
7	0	0	0	0	520	459	1021	0	0	0	
8	0	0	0	0	524	464	1021	0	0	0	
9	0	0	0	0	530	469	1021	0	0	0	
10	0	0	0	0	536	475	1021	0	0	0	
11	0	0	0	0	543	481	1021	0	0	0	
12	0	0	0	0	548	487	1021	0	0	0	
13	0	0	0	0	554	492	1021	0	0	0	
14	0	0	0	0	559	496	1021	0	0	0	
15	0	0	0	0	561	497	1021	0	0	0	
0	0	0	0	0	563	498	1021	0	0	0	
1	0	0	0	0	563	496	1021	0	0	0	
2	0	0	0	0	560	493	1021	0	0	0	
3	0	0	0	0	557	489	1021	0	0	0	
4	0	0	0	0	552	484	1021	0	0	0	
5	0	0	0	0	546	479	1021	0	0	0	
6	0	0	0	0	540	473	1021	0	0	0	
7	0	0	0	0	534	468	1021	0	0	0	
8	0	0	0	0	530	464	1021	0	0	0	
9	0	0	0	0	527	461	1021	0	0	0	
10	0	0	0	0	526	461	1021	0	0	0	
11	0	0	0	0	526	462	1021	0	0	0	
12	0	0	0	0	528	464	1021	0	0	0	
13	0	0	0	0	532	469	1021	0	0	0	
14	0	0	0	0	536	473	1021	0	0	0	
15	0	0	0	0	540	478	1021	0	0	0	
0	0	0	0	0	544	482	1021	0	0	0	
1	0	0	0	0	548	486	1021	0	0	0	
2	0	0	0	0	550	488	1021	0	0	0	
3	0	0	0	0	551	489	1021	0	0	0	
4	0	0	0	0	551	488	1021	0	0	0	
5	0	0	0	0	548	486	1021	0	0	0	
6	0	0	0	0	544	482	1021	0	0	0	
7	0	0	0	0	541	479	1021	0	0	0	
8	0	0	0	0	536	474	1021	0	0	0	
9	0	0	0	0	532	471	1021	0	0	0	
10	0	0	0	0	528	467	1021	0	0	0	
11	0	0	0	0	524	464	1021	0	0	0	
12	0	0	0	0	523	463	1021	0	0	0	
13	0	0	0	0	523	463	1021	0	0	0	
14	0	0	0	0	524	465	1021	0	0	0	
15	0	0	0	0	528	468	1021	0	0	0	
0	0	0	0	0	533	472	1021	0	0	0	
1	0	0	0	0	539	478	1021	0	0	0	
2	0	0	0	0	545	482	1021	0	0	0	
3	0	0	0	0	551	487	1021	0	0	0	
4	0	0	0	0	556	491	1021	0	0	0	
5	0	0	0	0	560	494	1021	0	0	0	
6	0	0	0	0	562	496	1021	0	0	0	
7	0	0	0	0	562	496	1021	0	0	0	
8	0	0	0	0	560	494	1021	0	0	0	
9	0	0	0	0	556	491	1021	0	0	0	
10	0	0	0	0	550	486	1021	0	0	0	
11	0	0	0	0	543	481	1021	0	0	0	
12	0	0	0	0	536	475	1021	0	0	0	
13	0	0	0	0	528	469	1021	0	0	0	
14	0	0	0	0	521	464	1021	0	0	0	
15	0	0	0	0	515	459	1021	0	0	0	
0	0	0	0	0	512	457	1021	0	0	0	
1	0	0	0	0	511	457	1021	0	0	0	
2	0	0	0	0	512	459	1021	0	0	0	
3	0	0	0	0	516	463	1021	0	0	0	
4	0	0	0	0	522	467	1021	0	0	0	
5	0	0	0	0	530	475	1021	0	0	0	
6	0	0	0	0	539	481	1021	0	0	0	
7	0	0	0	0	547	487	1021	0	0	0	
8	0	0	0	0	555	493	1020	0	0	0	
9	0	0	0	0	562	498	1021	0	0	0	
10	0	0	0	0	568	501	1021	0	0	0	
11	0	0	0	0	570	502	1021	0	0	0	
12	0	0	0	0	571	500	1021	0	0	0	
13	0	0	0	0	568	497	1021	0	0	0	
14	0	0	0	0	564	493	1021	0	0	0	
15	0	0	0	0	559	488	1021	0	0	0	
0	0	0	0	0	552	482	1021	0	0	0	
1	0	0	0	0	545	476	1021	0	0	0	
2	0	0	0	0	538	470	1021	0	0	0	
3	0	0	0	0	532	466	1021	0	0	0	
4	0	0	0	0	527	462	1021	0	0	0	
5	0	0	0	0	524	460	1021	0	0	0	
6	0	0	0	0	524	460	1021	0	0	0	
7	0	0	0	0	525	462	1021	0	0	0	
8	0	0	0	0	528	466	1021	0	0	0	
9	0	0	0	0	534	471	1021	0	0	0	
10	0	0	0	0	539	476	1021	0	0	0	
11	0	0	0	0	546	482	1021	0	0	0	
12	0	0	0	0	552	487	1021	0	0	0	
13	0	0	0	0	558	492	1021	0	0	0	
14	0	0	0	0	562	496	1021	0	0	0	
15	0	0	0	0	565	499	1021	0	0	0	
0	0	0	0	0	565	499	1021	0	0	0	
1	0	0	0	0	563	497	1021	0	0	0	
2	0	0	0	0	559	495	1021	0	0	0	
3	0	0	0	0	555	490	1021	0	0	0	
4	0	0	0	0	548	485	1021	0	0	0	
5	0	0	0	0	542	479	1021	0	0	0	
6	0	0	0	0	535	473	1021	0	0	0	
7	0	0	0	0	529	469	1021	0	0	0	
8	0	0	0	0	526	466	1021	0	0	0	
9	0	0	0	0	524	464	1021	0	0	0	
10	0	0	0	0	525	464	1021	0	0	0	
11	0	0	0	0	527	466	1021	0	0	0	
12	0	0	0	0	531	470	1021	0	0	0	
13	0	0	0	0	537	475	1021	0	0	0	
14	0	0	0	0	543	480	1021	0	0	0	
15	0	0	0	0	549	485	1021	0	0	0	
0	0	0	0	0	553	490	1020	0	0	0	
1	0	0	0	0	558	494	1020	0	0	0	
2	0	0	0	0	560	496	1021	0	0	0	
3	0	0	0	0	560	496	1021	0	0	0	
4	0	0	0	0	559	495	1021	0	0	0	
5	0	0	0	0	555	491	1020	0	0	0	
6	0	0	0	0	549	486	1021	0	0	0	
7	0	0	0	0	543	480	1021	0	0	0	
8	0	0	0	0	536	474	1021	0	0	0	
9	0	0	0	0	528	467	1021	0	0	0	
10	0	0	0	0	523	461	1021	0	0	0	
11	0	0	0	0	518	456	1020	0	0	0	
12	0	0	0	0	514	453	1021	0	0	0	
13	0	0	0	0	512	451	1021	0	0	0	
14	0	0	0	0	513	451	1021	0	0	0	
15	0	0	0	0	515	452	1021	0	0	0	
0	0	0	0	0	519	456	1021	0	0	0	
1	0	0	0	0	525	462	1021	0	0	0	
2	0	0	0	0	532	468	1021	0	0	0	
3	0	0	0	0	540	476	1021	0	0	0	
4	0	0	0	0	548	483	1021	0	0	0	
5	0	0	0	0	555	489	1021	0	0	0	
6	0	0	0	0	560	495	1021	0	0	0	
7	0	0	0	0	563	498	1021	0	0	0	
8	0	0	0	0	564	499	1021	0	0	0	
9	0	0	0	0	562	497	1021	0	0	0	
10	0	0	0	0	558	494	1021	0	0	0	
11	0	0	0	0	553	489	1021	0	0	0	
12	0	0	0	0	547	483	1021	0	0	0	
13	0	0	0	0	539	477	1021	0	0	0	
14	0	0	0	0	530	469	1021	0	0	0	
15	0	0	0	0	522	462	1021	0	0	0	
0	0	0	0	0	515	456	1021	0	0	0	
1	0	0	0	0	509	451	1021	0	0	0	
2	0	0	0	0	504	448	1021	0	0	0	
3	0	0	0	0	503	446	1021	0	0	0	
4	0	0	0	0	503	447	1021	0	0	0	
5	0	0	0	0	506	449	1021	0	0	0	
6	0	0	0	0	511	454	1021	0	0	0	
7	0	0	0	0	517	459	1021	0	0	0	
8	0	0	0	0	524	464	1021	0	0	0	
9	0	0	0	0	532	472	1021	0	0	0	
10	0	0	0	0	540	477	1021	0	0	0	
11	0	0	0	0	546	482	1021	0	0	0	
12	0	0	0	0	550	485	1021	0	0	0	
13	0	0	0	0	551	486	1021	0	0	0	
14	0	0	0	0	551	485	1021	0	0	0	
15	0	0	0	0	548	483	1021	0	0	0	
0	0	0	0	0	544	479	1021	0	0	0	
1	0	0	0	0	538	474	1020	0	0	0	
2	0	0	0	0	531	470	1021	0	0	0	
3	0	0	0	0	525	466	1021	0	0	0	
4	0	0	0	0	520	463	1021	0	0	0	
5	0	0	0	0	518	462	1021	0	0	0	
6	0	0	0	0	517	463	1021	0	0	0	
7	0	0	0	0	519	465	1021	0	0	0	
8	0	0	0	0	522	469	1020	0	0	0	
9	0	0	0	0	528	475	1021	0	0	0	
10	0	0	0	0	536	481	1021	0	0	0	
11	0	0	0	0	543	487	1021	0	0	0	
12	0	0	0	0	550	493	1021	0	0	0	
13	0	0	0	0	556	497	1021	0	0	0	
14	0	0	0	0	560	500	1021	0	0	0	
15	0	0	0	0	563	501	1021	0	0	0	
0	0	0	0	0	562	500	1021	0	0	0	
1	0	0	0	0	560	498	1021	0	0	0	
2	0	0	0	0	555	493	1021	0	0	0	
3	0	0	0	0	550	489	1021	0	0	0	
4	0	0	0	0	543	483	1021	0	0	0	
5	0	0	0	0	537	478	1021	0	0	0	
6	0	0	0	0	531	473	1021	0	0	0	
7	0	0	0	0	526	469	1021	0	0	0	
8	0	0	0	0	523	466	1021	0	0	0	
9	0	0	0	0	521	465	1021	0	0	0	
10	0	0	0	0	521	465	1021	0	0	0	
11	0	0	0	0	524	467	1021	0	0	0	
12	0	0	0	0	527	470	1021	0	0	0	
13	0	0	0	0	531	474	1021	0	0	0	
14	0	0	0	0	536	478	1021	0	0	0	
15	0	0	0	0	541	482	1021	0	0	0	
0	0	0	0	0	545	486	1020	0	0	0	
1	0	0	0	0	548	489	1021	0	0	0	
2	0	0	0	0	551	492	1021	0	0	0	
3	0	0	0	0	551	492	1021	0	0	0	
4	0	0	0	0	551	492	1021	0	0	0	
5	0	0	0	0	548	489	1021	0	0	0	
6	0	0	0	0	544	485	1021	0	0	0	
7	0	0	0	0	540	481	1021	0	0	0	
8	0	0	0	0	536	477	1021	0	0	0	
9	0	0	0	0	531	472	1021	0	0	0	
10	0	0	0	0	527	468	1021	0	0	0	
11	0	0	0	0	524	466	1021	0	0	0	
12	0	0	0	0	523	465	1021	0	0	0	
13	0	0	0	0	523	465	1021	0	0	0	
14	0	0	0	0	524	466	1021	0	0	0	
15	0	0	0	0	527	469	1021	0	0	0	
0	0	0	0	0	531	473	1021	0	0	0	
1	0	0	0	0	536	478	1021	0	0	0	
2	0	0	0	0	542	483	1021	0	0	0	
3	0	0	0	0	547	487	1021	0	0	0	
4	0	0	0	0	551	491	1021	0	0	0	
5	0	0	0	0	553	493	1021	0	0	0	
6	0	0	0	0	555	495	1021	0	0	0	
7	0	0	0	0	554	494	1021	0	0	0	
8	0	0	0	0	552	492	1021	0	0	0	
9	0	0	0	0	548	489	1021	0	0	0	
10	0	0	0	0	544	484	1021	0	0	0	
11	0	0	0	0	539	480	1021	0	0	0	
12	0	0	0	0	535	476	1021	0	0	0	
13	0	0	0	0	531	472	1021	0	0	0	
14	0	0	0	0	526	468	1020	0	0	0	
15	0	0	0	0	525	466	1021	0	0	0	
0	0	0	0	0	524	465	1021	0	0	0	
1	0	0	0	0	524	465	1021	0	0	0	
2	0	0	0	0	526	466	1021	0	0	0	
3	0	0	0	0	529	468	1021	0	0	0	
4	0	0	0	0	532	471	1021	0	0	0	
5	0	0	0	0	536	474	1021	0	0	0	
6	0	0	0	0	539	477	1021	0	0	0	
7	0	0	0	0	540	478	1021	0	0	0	
8	0	0	0	0	540	478	1021	0	0	0	
9	0	0	0	0	537	477	1021	0	0	0	
10	0	0	0	0	532	473	1021	0	0	0	
11	0	0	0	0	524	466	1021	0	0	0	
12	0	0	0	0	513	456	1021	0	0	0	
13	0	0	0	0	499	445	1021	0	0	0	
14	0	0	0	0	484	432	1021	0	0	0	
15	0	0	0	0	468	417	1021	0	0	0	
0	0	0	0	0	451	403	1021	0	0	0	
1	0	0	0	0	436	389	1021	0	0	0	
2	0	0	0	0	423	376	1021	0	0	0	
3	0	0	0	0	410	364	1021	0	0	0	
4	0	0	0	0	400	355	1021	0	0	0	
5	0	0	0	0	392	345	1021	0	0	0	
6	0	0	0	0	386	338	1021	0	0	0	
7	0	0	0	0	380	332	1021	0	0	0	
8	0	0	0	0	376	326	1021	0	0	0	
9	0	0	0	0	372	320	1021	0	0	0	
10	0	0	0	0	368	315	1021	0	0	0	
11	0	0	0	0	364	308	1020	0	0	0	
12	0	0	0	0	359	302	1021	0	0	0	
13	0	0	0	0	354	295	1021	0	0	0	
14	0	0	0	0	350	290	1021	0	0	0	
15	0	0	0	0	346	285	1021	0	0	0	
0	0	0	0	0	344	282	1021	0	0	0	
1	0	0	0	0	344	281	1021	0	0	0	
2	0	0	0	0	347	282	1021	0	0	0	
3	0	0	0	0	352	286	1021	0	0	0	
4	0	0	0	0	361	293	1021	0	0	0	
5	0	0	0	0	372	302	1021	0	0	0	
6	0	0	0	0	387	315	1021	0	0	0	
7	0	0	0	0	403	329	1021	0	0	0	
8	0	0	0	0	423	348	1021	0	0	0	
9	0	0	0	0	444	367	1021	0	0	0	
10	0	0	0	0	466	388	1021	0	0	0	
11	0	0	0	0	488	409	1021	0	0	0	
12	0	0	0	0	510	431	1021	0	0	0	
13	0	0	0	0	531	452	1021	0	0	0	
14	0	0	0	0	550	471	1021	0	0	0	
15	0	0	0	0	566	488	1021	0	0	0	
0	0	0	0	0	579	503	1021	0	0	0	
1	0	0	0	0	589	515	1021	0	0	0	
2	0	0	0	0	596	525	1021	0	0	0	
3	0	0	0	0	600	530	1021	0	0	0	
4	0	0	0	0	600	532	1021	0	0	0	
5	0	0	0	0	597	531	1021	0	0	0	
6	0	0	0	0	591	527	1021	0	0	0	
7	0	0	0	0	584	521	1021	0	0	0	
8	0	0	0	0	575	514	1021	0	0	0	
9	0	0	0	0	566	506	1021	0	0	0	
10	0	0	0	0	558	498	1021	0	0	0	
11	0	0	0	0	550	492	1021	0	0	0	
12	0	0	0	0	543	487	1021	0	0	0	
13	0	0	0	0	539	483	1021	0	0	0	
14	0	0	0	0	537	482	1021	0	0	0	
15	0	0	0	0	538	483	1021	0	0	0	
0	0	0	0	0	540	486	1021	0	0	0	
1	0	0	0	0	544	490	1021	0	0	0	
2	0	0	0	0	549	495	1021	0	0	0	
3	0	0	0	0	555	500	1021	0	0	0	
4	0	0	0	0	559	504	1021	0	0	0	
5	0	0	0	0	564	509	1021	0	0	0	
6	0	0	0	0	569	512	1021	0	0	0	
7	0	0	0	0	572	515	1021	0	0	0	
8	0	0	0	0	574	515	1021	0	0	0	
9	0	0	0	0	574	514	1021	0	0	0	
10	0	0	0	0	574	513	1021	0	0	0	
11	0	0	0	0	572	510	1021	0	0	0	
12	0	0	0	0	570	508	1021	0	0	0	
13	0	0	0	0	567	504	1021	0	0	0	
14	0	0	0	0	564	502	1021	0	0	0	
15	0	0	0	0	563	501	1021	0	0	0	
0	0	0	0	0	562	500	1021	0	0	0	
1	0	0	0	0	563	502	1021	0	0	0	
2	0	0	0	0	565	504	1021	0	0	0	
3	0	0	0	0	567	508	1021	0	0	0	
4	0	0	0	0	571	512	1021	0	0	0	
5	0	0	0	0	575	516	1021	0	0	0	
6	0	0	0	0	578	520	1021	0	0	0	
7	0	0	0	0	580	524	1021	0	0	0	
8	0	0	0	0	582	525	1021	0	0	0	
9	0	0	0	0	582	527	1021	0	0	0	
10	0	0	0	0	581	526	1021	0	0	0	
11	0	0	0	0	578	523	1021	0	0	0	
12	0	0	0	0	575	520	1021	0	0	0	
13	0	0	0	0	569	515	1021	0	0	0	
14	0	0	0	0	564	509	1021	0	0	0	
15	0	0	0	0	559	504	1021	0	0	0	
0	0	0	0	0	555	498	1021	0	0	0	
1	0	0	0	0	551	494	1021	0	0	0	
2	0	0	0	0	549	491	1021	0	0	0	
3	0	0	0	0	548	489	1021	0	0	0	
4	0	0	0	0	549	488	1021	0	0	0	
5	0	0	0	0	551	490	1021	0	0	0	
6	0	0	0	0	555	493	1021	0	0	0	
7	0	0	0	0	560	497	1021	0	0	0	
8	0	0	0	0	565	503	1021	0	0	0	
9	0	0	0	0	571	508	1021	0	0	0	
10	0	0	0	0	576	514	1021	0	0	0	
11	0	0	0	0	580	518	1021	0	0	0	
12	0	0	0	0	583	521	1021	0	0	0	
13	0	0	0	0	584	523	1021	0	0	0	
14	0	0	0	0	584	523	1021	0	0	0	
15	0	0	0	0	582	521	1021	0	0	0	
0	0	0	0	0	579	518	1021	0	0	0	
1	0	0	0	0	573	512	1021	0	0	0	
2	0	0	0	0	566	506	1021	0	0	0	
3	0	0	0	0	559	499	1021	0	0	0	
4	0	0	0	0	553	494	1021	0	0	0	
5	0	0	0	0	547	487	1021	0	0	0	
6	0	0	0	0	540	483	1020	0	0	0	
7	0	0	0	0	538	479	1021	0	0	0	
8	0	0	0	0	536	478	1021	0	0	0	
9	0	0	0	0	538	480	1021	0	0	0	
10	0	0	0	0	541	483	1021	0	0	0	
11	0	0	0	0	545	487	1020	0	0	0	
12	0	0	0	0	553	494	1021	0	0	0	
13	0	0	0	0	561	501	1021	0	0	0	
14	0	0	0	0	570	508	1021	0	0	0	
15	0	0	0	0	578	515	1021	0	0	0	
0	0	0	0	0	585	520	1021	0	0	0	
1	0	0	0	0	590	525	1020	0	0	0	
2	0	0	0	0	594	527	1021	0	0	0	
3	0	0	0	0	595	528	1021	0	0	0	
4	0	0	0	0	594	527	1021	0	0	0	
5	0	0	0	0	591	523	1021	0	0	0	
6	0	0	0	0	586	518	1021	0	0	0	
7	0	0	0	0	580	513	1021	0	0	0	
8	0	0	0	0	574	508	1021	0	0	0	
9	0	0	0	0	567	502	1021	0	0	0	
10	0	0	0	0	560	497	1021	0	0	0	
11	0	0	0	0	555	493	1021	0	0	0	
12	0	0	0	0	551	490	1021	0	0	0	
13	0	0	0	0	549	489	1021	0	0	0	
14	0	0	0	0	548	489	1021	0	0	0	
15	0	0	0	0	550	492	1020	0	0	0	
0	0	0	0	0	553	495	1021	0	0	0	
1	0	0	0	0	558	500	1021	0	0	0	
2	0	0	0	0	563	505	1021	0	0	0	
3	0	0	0	0	568	510	1021	0	0	0	
4	0	0	0	0	572	513	1021	0	0	0	
5	0	0	0	0	575	517	1021	0	0	0	
6	0	0	0	0	578	519	1021	0	0	0	
7	0	0	0	0	578	519	1021	0	0	0	
8	0	0	0	0	576	517	1021	0	0	0	
9	0	0	0	0	573	513	1021	0	0	0	
10	0	0	0	0	568	508	1021	0	0	0	
11	0	0	0	0	561	503	1021	0	0	0	
12	0	0	0	0	555	496	1021	0	0	0	
13	0	0	0	0	548	489	1021	0	0	0	
14	0	0	0	0	540	484	1020	0	0	0	
15	0	0	0	0	536	479	1021	0	0	0	
0	0	0	0	0	533	477	1021	0	0	0	
1	0	0	0	0	531	476	1021	0	0	0	
2	0	0	0	0	532	477	1021	0	0	0	
3	0	0	0	0	535	479	1021	0	0	0	
4	0	0	0	0	539	483	1021	0	0	0	
5	0	0	0	0	545	489	1021	0	0	0	
6	0	0	0	0	552	495	1021	0	0	0	
7	0	0	0	0	559	501	1021	0	0	0	
8	0	0	0	0	565	506	1021	0	0	0	
9	0	0	0	0	571	511	1021	0	0	0	
10	0	0	0	0	575	514	1021	0	0	0	
11	0	0	0	0	578	516	1021	0	0	0	
12	0	0	0	0	578	515	1021	0	0	0	
13	0	0	0	0	576	512	1021	0	0	0	
14	0	0	0	0	573	508	1021	0	0	0	
15	0	0	0	0	568	503	1021	0	0	0	
0	0	0	0	0	563	498	1021	0	0	0	
1	0	0	0	0	557	492	1021	0	0	0	
2	0	0	0	0	551	487	1021	0	0	0	
3	0	0	0	0	546	482	1021	0	0	0	
4	0	0	0	0	543	480	1021	0	0	0	
5	0	0	0	0	542	479	1021	0	0	0	
6	0	0	0	0	542	479	1021	0	0	0	
7	0	0	0	0	543	481	1021	0	0	0	
8	0	0	0	0	545	484	1021	0	0	0	
9	0	0	0	0	549	488	1021	0	0	0	
10	0	0	0	0	553	493	1021	0	0	0	
11	0	0	0	0	557	498	1021	0	0	0	
12	0	0	0	0	561	503	1021	0	0	0	
13	0	0	0	0	564	506	1020	0	0	0	
14	0	0	0	0	567	509	1021	0	0	0	
15	0	0	0	0	569	512	1021	0	0	0	
0	0	0	0	0	570	513	1021	0	0	0	
1	0	0	0	0	569	512	1020	0	0	0	
2	0	0	0	0	569	511	1021	0	0	0	
3	0	0	0	0	568	509	1021	0	0	0	
4	0	0	0	0	565	506	1021	0	0	0	
5	0	0	0	0	561	502	1021	0	0	0	
6	0	0	0	0	558	499	1021	0	0	0	
7	0	0	0	0	555	495	1021	0	0	0	
8	0	0	0	0	551	492	1021	0	0	0	
9	0	0	0	0	550	491	1021	0	0	0	
10	0	0	0	0	548	490	1021	0	0	0	
11	0	0	0	0	550	491	1021	0	0	0	
12	0	0	0	0	551	492	1021	0	0	0	
13	0	0	0	0	553	495	1021	0	0	0	
14	0	0	0	0	555	497	1021	0	0	0	
15	0	0	0	0	558	499	1021	0	0	0	
0	0	0	0	0	559	500	1021	0	0	0	
1	0	0	0	0	560	500	1021	0	0	0	
2	0	0	0	0	560	500	1021	0	0	0	
3	0	0	0	0	559	498	1021	0	0	0	
4	0	0	0	0	556	494	1021	0	0	0	
5	0	0	0	0	550	490	1020	0	0	0	
6	0	0	0	0	545	484	1021	0	0	0	
7	0	0	0	0	540	480	1021	0	0	0	
8	0	0	0	0	535	474	1021	0	0	0	
9	0	0	0	0	529	470	1021	0	0	0	
10	0	0	0	0	526	466	1021	0	0	0	
11	0	0	0	0	522	463	1021	0	0	0	
12	0	0	0	0	521	463	1021	0	0	0	
13	0	0	0	0	521	464	1021	0	0	0	
14	0	0	0	0	524	466	1021	0	0	0	
15	0	0	0	0	527	470	1021	0	0	0	
0	0	0	0	0	532	474	1021	0	0	0	
1	0	0	0	0	537	479	1021	0	0	0	
2	0	0	0	0	543	485	1021	0	0	0	
3	0	0	0	0	549	490	1021	0	0	0	
4	0	0	0	0	554	495	1021	0	0	0	
5	0	0	0	0	557	498	1021	0	0	0	
6	0	0	0	0	560	500	1021	0	0	0	
7	0	0	0	0	560	500	1021	0	0	0	
8	0	0	0	0	559	499	1021	0	0	0	
9	0	0	0	0	556	496	1021	0	0	0	
10	0	0	0	0	551	490	1021	0	0	0	
11	0	0	0	0	546	485	1021	0	0	0	
12	0	0	0	0	540	479	1021	0	0	0	
13	0	0	0	0	535	473	1021	0	0	0	
14	0	0	0	0	530	467	1021	0	0	0	
15	0	0	0	0	526	464	1021	0	0	0	
0	0	0	0	0	524	461	1021	0	0	0	
1	0	0	0	0	524	460	1021	0	0	0	
2	0	0	0	0	526	461	1021	0	0	0	
3	0	0	0	0	529	464	1021	0	0	0	
4	0	0	0	0	534	468	1021	0	0	0	
5	0	0	0	0	540	474	1021	0	0	0	
6	0	0	0	0	546	480	1021	0	0	0	
7	0	0	0	0	552	486	1021	0	0	0	
8	0	0	0	0	558	492	1020	0	0	0	
9	0	0	0	0	561	497	1021	0	0	0	
10	0	0	0	0	565	500	1021	0	0	0	
11	0	0	0	0	566	502	1021	0	0	0	
12	0	0	0	0	564	502	1021	0	0	0	
13	0	0	0	0	561	499	1021	0	0	0	
14	0	0	0	0	556	495	1021	0	0	0	
15	0	0	0	0	551	491	1021	0	0	0	
0	0	0	0	0	544	484	1021	0	0	0	
1	0	0	0	0	538	478	1021	0	0	0	
2	0	0	0	0	532	472	1021	0	0	0	
3	0	0	0	0	527	467	1021	0	0	0	
4	0	0	0	0	524	464	1021	0	0	0	
5	0	0	0	0	523	463	1021	0	0	0	
6	0	0	0	0	523	463	1021	0	0	0	
7	0	0	0	0	527	466	1021	0	0	0	
8	0	0	0	0	531	471	1021	0	0	0	
9	0	0	0	0	538	476	1021	0	0	0	
10	0	0	0	0	545	483	1021	0	0	0	
11	0	0	0	0	553	490	1021	0	0	0	
12	0	0	0	0	560	496	1021	0	0	0	
13	0	0	0	0	567	501	1021	0	0	0	
14	0	0	0	0	572	506	1021	0	0	0	
15	0	0	0	0	575	509	1021	0	0	0	
0	0	0	0	0	575	510	1021	0	0	0	
1	0	0	0	0	575	509	1021	0	0	0	
2	0	0	0	0	571	506	1021	0	0	0	
3	0	0	0	0	568	503	1021	0	0	0	
4	0	0	0	0	562	498	1021	0	0	0	
5	0	0	0	0	557	494	1021	0	0	0	
6	0	0	0	0	551	489	1021	0	0	0	
7	0	0	0	0	547	485	1021	0	0	0	
8	0	0	0	0	544	483	1021	0	0	0	
9	0	0	0	0	543	482	1021	0	0	0	
10	0	0	0	0	544	483	1021	0	0	0	
11	0	0	0	0	548	486	1021	0	0	0	
12	0	0	0	0	552	491	1021	0	0	0	
13	0	0	0	0	559	496	1021	0	0	0	
14	0	0	0	0	566	502	1021	0	0	0	
15	0	0	0	0	574	508	1021	0	0	0	
0	0	0	0	0	580	514	1021	0	0	0	
1	0	0	0	0	585	519	1021	0	0	0	
2	0	0	0	0	590	522	1021	0	0	0	
3	0	0	0	0	591	524	1021	0	0	0	
4	0	0	0	0	591	523	1021	0	0	0	
5	0	0	0	0	587	519	1021	0	0	0	
6	0	0	0	0	580	513	1021	0	0	0	
7	0	0	0	0	572	506	1021	0	0	0	
8	0	0	0	0	562	498	1021	0	0	0	
9	0	0	0	0	551	488	1021	0	0	0	
10	0	0	0	0	540	479	1021	0	0	0	
11	0	0	0	0	529	470	1021	0	0	0	
12	0	0	0	0	520	464	1021	0	0	0	
13	0	0	0	0	514	460	1021	0	0	0	
14	0	0	0	0	511	457	1021	0	0	0	
15	0	0	0	0	510	457	1021	0	0	0	
0	0	0	0	0	513	460	1021	0	0	0	
1	0	0	0	0	518	465	1021	0	0	0	
2	0	0	0	0	526	472	1021	0	0	0	
3	0	0	0	0	534	479	1021	0	0	0	
4	0	0	0	0	543	486	1021	0	0	0	
5	0	0	0	0	550	492	1021	0	0	0	
6	0	0	0	0	557	498	1021	0	0	0	
7	0	0	0	0	561	501	1021	0	0	0	
8	0	0	0	0	564	503	1021	0	0	0	
9	0	0	0	0	564	503	1021	0	0	0	
10	0	0	0	0	561	500	1021	0	0	0	
11	0	0	0	0	558	497	1021	0	0	0	
12	0	0	0	0	553	492	1021	0	0	0	
13	0	0	0	0	547	487	1021	0	0	0	
14	0	0	0	0	541	482	1021	0	0	0	
15	0	0	0	0	536	476	1021	0	0	0	
0	0	0	0	0	532	474	1021	0	0	0	
1	0	0	0	0	529	472	1021	0	0	0	
2	0	0	0	0	529	472	1021	0	0	0	
3	0	0	0	0	531	474	1021	0	0	0	
4	0	0	0	0	535	479	1021	0	0	0	
5	0	0	0	0	540	484	1021	0	0	0	
6	0	0	0	0	547	489	1021	0	0	0	
7	0	0	0	0	554	496	1021	0	0	0	
8	0	0	0	0	560	502	1021	0	0	0	
9	0	0	0	0	566	507	1021	0	0	0	
10	0	0	0	0	571	511	1021	0	0	0	
11	0	0	0	0	573	512	1021	0	0	0	
12	0	0	0	0	574	513	1021	0	0	0	
13	0	0	0	0	572	511	1021	0	0	0	
14	0	0	0	0	568	507	1021	0	0	0	
15	0	0	0	0	564	504	1021	0	0	0	
0	0	0	0	0	558	499	1021	0	0	0	
1	0	0	0	0	553	494	1021	0	0	0	
2	0	0	0	0	547	490	1021	0	0	0	
3	0	0	0	0	542	487	1021	0	0	0	
4	0	0	0	0	540	485	1021	0	0	0	
5	0	0	0	0	538	485	1021	0	0	0	
6	0	0	0	0	539	487	1021	0	0	0	
7	0	0	0	0	542	491	1021	0	0	0	
8	0	0	0	0	547	496	1021	0	0	0	
9	0	0	0	0	554	502	1021	0	0	0	
10	0	0	0	0	561	509	1021	0	0	0	
11	0	0	0	0	568	515	1021	0	0	0	
12	0	0	0	0	574	520	1021	0	0	0	
13	0	0	0	0	578	523	1021	0	0	0	
14	0	0	0	0	580	524	1021	0	0	0	
15	0	0	0	0	580	523	1021	0	0	0	
0	0	0	0	0	577	519	1021	0	0	0	
1	0	0	0	0	572	513	1021	0	0	0	
2	0	0	0	0	566	507	1020	0	0	0	
3	0	0	0	0	558	499	1021	0	0	0	
4	0	0	0	0	549	491	1021	0	0	0	
5	0	0	0	0	541	483	1021	0	0	0	
6	0	0	0	0	534	477	1021	0	0	0	
7	0	0	0	0	527	471	1021	0	0	0	
8	0	0	0	0	524	469	1021	0	0	0	
9	0	0	0	0	523	468	1021	0	0	0	
10	0	0	0	0	524	470	1021	0	0	0	
11	0	0	0	0	528	473	1021	0	0	0	
12	0	0	0	0	533	478	1021	0	0	0	
13	0	0	0	0	540	484	1021	0	0	0	
14	0	0	0	0	547	491	1021	0	0	0	
15	0	0	0	0	553	497	1021	0	0	0	
0	0	0	0	0	559	502	1021	0	0	0	
1	0	0	0	0	564	506	1021	0	0	0	
2	0	0	0	0	568	510	1021	0	0	0	
3	0	0	0	0	569	511	1021	0	0	0	
4	0	0	0	0	570	512	1021	0	0	0	
5	0	0	0	0	568	510	1021	0	0	0	
6	0	0	0	0	566	507	1021	0	0	0	
7	0	0	0	0	562	504	1021	0	0	0	
8	0	0	0	0	559	500	1021	0	0	0	
9	0	0	0	0	554	496	1021	0	0	0	
10	0	0	0	0	551	494	1021	0	0	0	
11	0	0	0	0	548	491	1020	0	0	0	
12	0	0	0	0	547	490	1021	0	0	0	
13	0	0	0	0	546	490	1021	0	0	0	
14	0	0	0	0	548	492	1021	0	0	0	
15	0	0	0	0	551	495	1021	0	0	0	
0	0	0	0	0	553	498	1021	0	0	0	
1	0	0	0	0	557	502	1021	0	0	0	
2	0	0	0	0	561	505	1021	0	0	0	
3	0	0	0	0	563	508	1021	0	0	0	
4	0	0	0	0	564	510	1021	0	0	0	
5	0	0	0	0	563	509	1021	0	0	0	
6	0	0	0	0	562	508	1021	0	0	0	
7	0	0	0	0	559	506	1021	0	0	0	
8	0	0	0	0	555	502	1021	0	0	0	
9	0	0	0	0	549	496	1021	0	0	0	
10	0	0	0	0	543	490	1021	0	0	0	
11	0	0	0	0	538	484	1021	0	0	0	
12	0	0	0	0	533	479	1021	0	0	0	
13	0	0	0	0	529	473	1021	0	0	0	
14	0	0	0	0	526	469	1021	0	0	0	
15	0	0	0	0	524	466	1021	0	0	0	
0	0	0	0	0	525	466	1021	0	0	0	
1	0	0	0	0	527	467	1021	0	0	0	
2	0	0	0	0	530	470	1021	0	0	0	
3	0	0	0	0	536	474	1021	0	0	0	
4	0	0	0	0	541	479	1021	0	0	0	
5	0	0	0	0	548	486	1021	0	0	0	
6	0	0	0	0	555	492	1021	0	0	0	
7	0	0	0	0	561	499	1021	0	0	0	
8	0	0	0	0	566	504	1021	0	0	0	
9	0	0	0	0	570	508	1021	0	0	0	
10	0	0	0	0	573	511	1021	0	0	0	
11	0	0	0	0	573	511	1021	0	0	0	
12	0	0	0	0	572	510	1021	0	0	0	
13	0	0	0	0	568	508	1021	0	0	0	
14	0	0	0	0	563	503	1021	0	0	0	
15	0	0	0	0	557	499	1021	0	0	0	
0	0	0	0	0	551	494	1021	0	0	0	
1	0	0	0	0	544	488	1020	0	0	0	
2	0	0	0	0	539	484	1021	0	0	0	
3	0	0	0	0	534	480	1021	0	0	0	
4	0	0	0	0	531	478	1021	0	0	0	
5	0	0	0	0	530	477	1021	0	0	0	
6	0	0	0	0	531	478	1021	0	0	0	
7	0	0	0	0	534	481	1021	0	0	0	
8	0	0	0	0	539	485	1021	0	0	0	
9	0	0	0	0	545	490	1021	0	0	0	
10	0	0	0	0	551	495	1021	0	0	0	
11	0	0	0	0	558	500	1021	0	0	0	
12	0	0	0	0	563	504	1021	0	0	0	
13	0	0	0	0	566	508	1021	0	0	0	
14	0	0	0	0	568	510	1021	0	0	0	
15	0	0	0	0	568	509	1021	0	0	0	
0	0	0	0	0	566	508	1021	0	0	0	
1	0	0	0	0	562	503	1021	0	0	0	
2	0	0	0	0	556	499	1021	0	0	0	
3	0	0	0	0	551	492	1021	0	0	0	
4	0	0	0	0	544	486	1021	0	0	0	
5	0	0	0	0	537	480	1021	0	0	0	
6	0	0	0	0	532	475	1021	0	0	0	
7	0	0	0	0	527	471	1021	0	0	0	
8	0	0	0	0	525	468	1021	0	0	0	
9	0	0	0	0	524	468	1021	0	0	0	
10	0	0	0	0	526	470	1021	0	0	0	
11	0	0	0	0	528	472	1021	0	0	0	
12	0	0	0	0	533	478	1021	0	0	0	
13	0	0	0	0	539	483	1021	0	0	0	
14	0	0	0	0	545	489	1021	0	0	0	
15	0	0	0	0	552	496	1021	0	0	0	
0	0	0	0	0	558	501	1021	0	0	0	
1	0	0	0	0	562	506	1021	0	0	0	
2	0	0	0	0	566	509	1021	0	0	0	
3	0	0	0	0	567	510	1021	0	0	0	
4	0	0	0	0	566	509	1021	0	0	0	
5	0	0	0	0	563	505	1021	0	0	0	
6	0	0	0	0	558	501	1021	0	0	0	
7	0	0	0	0	551	495	1021	0	0	0	
8	0	0	0	0	545	488	1021	0	0	0	
9	0	0	0	0	538	482	1021	0	0	0	
10	0	0	0	0	531	476	1021	0	0	0	
11	0	0	0	0	525	471	1021	0	0	0	
12	0	0	0	0	522	468	1021	0	0	0	
13	0	0	0	0	521	467	1021	0	0	0	
14	0	0	0	0	523	469	1021	0	0	0	
15	0	0	0	0	527	473	1021	0	0	0	
0	0	0	0	0	533	479	1021	0	0	0	
1	0	0	0	0	541	486	1021	0	0	0	
2	0	0	0	0	550	494	1021	0	0	0	
3	0	0	0	0	558	501	1021	0	0	0	
4	0	0	0	0	566	508	1021	0	0	0	
5	0	0	0	0	571	514	1021	0	0	0	
6	0	0	0	0	576	518	1021	0	0	0	
7	0	0	0	0	577	519	1021	0	0	0	
8	0	0	0	0	576	519	1021	0	0	0	
9	0	0	0	0	573	516	1021	0	0	0	
10	0	0	0	0	567	512	1021	0	0	0	
11	0	0	0	0	561	506	1021	0	0	0	
12	0	0	0	0	553	499	1021	0	0	0	
13	0	0	0	0	545	492	1021	0	0	0	
14	0	0	0	0	537	486	1021	0	0	0	
15	0	0	0	0	531	480	1021	0	0	0	
0	0	0	0	0	527	475	1021	0	0	0	
1	0	0	0	0	524	473	1021	0	0	0	
2	0	0	0	0	525	473	1021	0	0	0	
3	0	0	0	0	527	476	1020	0	0	0	
4	0	0	0	0	531	479	1020	0	0	0	
5	0	0	0	0	537	484	1021	0	0	0	
6	0	0	0	0	545	490	1021	0	0	0	
7	0	0	0	0	552	495	1021	0	0	0	
8	0	0	0	0	558	500	1020	0	0	0	
9	0	0	0	0	563	504	1021	0	0	0	
10	0	0	0	0	567	507	1021	0	0	0	
11	0	0	0	0	569	508	1021	0	0	0	
12	0	0	0	0	568	507	1021	0	0	0	
13	0	0	0	0	566	504	1021	0	0	0	
14	0	0	0	0	561	501	1021	0	0	0	
15	0	0	0	0	556	496	1021	0	0	0	
0	0	0	0	0	550	491	1021	0	0	0	
1	0	0	0	0	544	485	1021	0	0	0	
2	0	0	0	0	538	480	1021	0	0	0	
3	0	0	0	0	533	477	1021	0	0	0	
4	0	0	0	0	531	474	1021	0	0	0	
5	0	0	0	0	529	473	1021	0	0	0	
6	0	0	0	0	530	475	1021	0	0	0	
7	0	0	0	0	532	477	1021	0	0	0	
8	0	0	0	0	536	481	1021	0	0	0	
9	0	0	0	0	541	487	1021	0	0	0	
10	0	0	0	0	547	492	1021	0	0	0	
11	0	0	0	0	553	498	1021	0	0	0	
12	0	0	0	0	558	502	1021	0	0	0	
13	0	0	0	0	562	506	1021	0	0	0	
14	0	0	0	0	565	508	1021	0	0	0	
15	0	0	0	0	567	509	1021	0	0	0	
0	0	0	0	0	566	508	1021	0	0	0	
1	0	0	0	0	563	504	1021	0	0	0	
2	0	0	0	0	558	500	1021	0	0	0	
3	0	0	0	0	553	494	1021	0	0	0	
4	0	0	0	0	547	487	1021	0	0	0	
5	0	0	0	0	540	481	1021	0	0	0	
6	0	0	0	0	534	475	1021	0	0	0	
7	0	0	0	0	529	471	1021	0	0	0	
8	0	0	0	0	526	468	1021	0	0	0	
9	0	0	0	0	525	468	1021	0	0	0	
10	0	0	0	0	525	468	1021	0	0	0	
11	0	0	0	0	527	472	1020	0	0	0	
12	0	0	0	0	531	476	1021	0	0	0	
13	0	0	0	0	537	481	1021	0	0	0	
14	0	0	0	0	543	487	1021	0	0	0	
15	0	0	0	0	550	493	1021	0	0	0	
0	0	0	0	0	555	498	1020	0	0	0	
1	0	0	0	0	559	503	1020	0	0	0	
2	0	0	0	0	562	505	1021	0	0	0	
3	0	0	0	0	563	507	1021	0	0	0	
4	0	0	0	0	563	505	1021	0	0	0	
5	0	0	0	0	559	503	1021	0	0	0	
6	0	0	0	0	555	498	1021	0	0	0	
7	0	0	0	0	548	493	1021	0	0	0	
8	0	0	0	0	542	487	1021	0	0	0	
9	0	0	0	0	535	480	1021	0	0	0	
10	0	0	0	0	529	475	1021	0	0	0	
11	0	0	0	0	523	471	1021	0	0	0	
12	0	0	0	0	520	467	1021	0	0	0	
13	0	0	0	0	519	466	1021	0	0	0	
14	0	0	0	0	519	467	1021	0	0	0	
15	0	0	0	0	521	470	1021	0	0	0	
0	0	0	0	0	525	475	1021	0	0	0	
1	0	0	0	0	531	480	1021	0	0	0	
2	0	0	0	0	537	486	1021	0	0	0	
3	0	0	0	0	543	492	1021	0	0	0	
4	0	0	0	0	549	497	1021	0	0	0	
5	0	0	0	0	553	501	1021	0	0	0	
6	0	0	0	0	556	504	1021	0	0	0	
7	0	0	0	0	558	505	1021	0	0	0	
8	0	0	0	0	556	504	1021	0	0	0	
9	0	0	0	0	554	501	1021	0	0	0	
10	0	0	0	0	550	497	1021	0	0	0	
11	0	0	0	0	546	494	1021	0	0	0	
12	0	0	0	0	542	489	1021	0	0	0	
13	0	0	0	0	538	485	1021	0	0	0	
14	0	0	0	0	535	480	1021	0	0	0	
15	0	0	0	0	533	477	1021	0	0	0	
0	0	0	0	0	532	476	1021	0	0	0	
1	0	0	0	0	533	475	1021	0	0	0	
2	0	0	0	0	534	475	1021	0	0	0	
3	0	0	0	0	536	477	1021	0	0	0	
4	0	0	0	0	539	479	1021	0	0	0	
5	0	0	0	0	543	483	1021	0	0	0	
6	0	0	0	0	546	486	1021	0	0	0	
7	0	0	0	0	548	489	1021	0	0	0	
8	0	0	0	0	551	492	1021	0	0	0	
9	0	0	0	0	552	494	1021	0	0	0	
10	0	0	0	0	552	495	1021	0	0	0	
11	0	0	0	0	551	494	1021	0	0	0	
12	0	0	0	0	547	491	1021	0	0	0	
13	0	0	0	0	543	487	1021	0	0	0	
14	0	0	0	0	536	481	1021	0	0	0	
15	0	0	0	0	530	476	1021	0	0	0	
0	0	0	0	0	524	470	1021	0	0	0	
1	0	0	0	0	518	465	1021	0	0	0	
2	0	0	0	0	513	460	1021	0	0	0	
3	0	0	0	0	510	456	1021	0	0	0	
4	0	0	0	0	509	455	1021	0	0	0	
5	0	0	0	0	510	455	1021	0	0	0	
6	0	0	0	0	512	457	1021	0	0	0	
7	0	0	0	0	516	461	1021	0	0	0	
8	0	0	0	0	521	466	1021	0	0	0	
9	0	0	0	0	528	472	1021	0	0	0	
10	0	0	0	0	535	478	1021	0	0	0	
11	0	0	0	0	541	483	1021	0	0	0	
12	0	0	0	0	546	488	1021	0	0	0	
13	0	0	0	0	551	492	1021	0	0	0	
14	0	0	0	0	553	496	1021	0	0	0	
15	0	0	0	0	555	497	1021	0	0	0	
0	0	0	0	0	555	496	1021	0	0	0	
1	0	0	0	0	552	494	1021	0	0	0	
2	0	0	0	0	548	490	1021	0	0	0	
3	0	0	0	0	545	486	1021	0	0	0	
4	0	0	0	0	540	482	1021	0	0	0	
5	0	0	0	0	536	477	1021	0	0	0	
6	0	0	0	0	533	473	1021	0	0	0	
7	0	0	0	0	530	471	1021	0	0	0	
8	0	0	0	0	529	470	1021	0	0	0	
9	0	0	0	0	531	471	1021	0	0	0	
10	0	0	0	0	533	474	1021	0	0	0	
11	0	0	0	0	538	479	1021	0	0	0	
12	0	0	0	0	543	485	1021	0	0	0	
13	0	0	0	0	551	492	1021	0	0	0	
14	0	0	0	0	557	499	1021	0	0	0	
15	0	0	0	0	564	506	1021	0	0	0	
0	0	0	0	0	570	513	1021	0	0	0	
1	0	0	0	0	575	517	1021	0	0	0	
2	0	0	0	0	578	521	1021	0	0	0	
3	0	0	0	0	579	522	1021	0	0	0	
4	0	0	0	0	578	521	1021	0	0	0	
5	0	0	0	0	575	518	1021	0	0	0	
6	0	0	0	0	570	513	1021	0	0	0	
7	0	0	0	0	565	508	1021	0	0	0	
8	0	0	0	0	558	501	1021	0	0	0	
9	0	0	0	0	550	494	1021	0	0	0	
10	0	0	0	0	544	487	1021	0	0	0	
11	0	0	0	0	538	483	1021	0	0	0	
12	0	0	0	0	534	480	1021	0	0	0	
13	0	0	0	0	532	478	1021	0	0	0	
14	0	0	0	0	532	478	1021	0	0	0	
15	0	0	0	0	534	480	1021	0	0	0	
0	0	0	0	0	536	483	1021	0	0	0	
1	0	0	0	0	540	486	1021	0	0	0	
2	0	0	0	0	543	490	1021	0	0	0	
3	0	0	0	0	546	493	1021	0	0	0	
4	0	0	0	0	549	495	1021	0	0	0	
5	0	0	0	0	551	496	1021	0	0	0	
6	0	0	0	0	552	498	1021	0	0	0	
7	0	0	0	0	552	497	1021	0	0	0	
8	0	0	0	0	551	496	1021	0	0	0	
9	0	0	0	0	550	494	1021	0	0	0	
10	0	0	0	0	548	492	1021	0	0	0	
11	0	0	0	0	546	490	1021	0	0	0	
12	0	0	0	0	543	487	1021	0	0	0	
13	0	0	0	0	541	485	1021	0	0	0	
14	0	0	0	0	540	483	1021	0	0	0	
15	0	0	0	0	538	482	1021	0	0	0	
0	0	0	0	0	538	482	1021	0	0	0	
1	0	0	0	0	539	483	1021	0	0	0	
2	0	0	0	0	541	486	1021	0	0	0	
3	0	0	0	0	544	489	1021	0	0	0	
4	0	0	0	0	549	493	1021	0	0	0	
5	0	0	0	0	555	499	1021	0	0	0	
6	0	0	0	0	560	504	1021	0	0	0	
7	0	0	0	0	566	510	1021	0	0	0	
8	0	0	0	0	570	515	1021	0	0	0	
9	0	0	0	0	574	518	1021	0	0	0	
10	0	0	0	0	576	520	1021	0	0	0	
11	0	0	0	0	577	520	1021	0	0	0	
12	0	0	0	0	575	518	1021	0	0	0	
13	0	0	0	0	572	515	1021	0	0	0	
14	0	0	0	0	567	509	1021	0	0	0	
15	0	0	0	0	561	503	1021	0	0	0	
0	0	0	0	0	554	497	1021	0	0	0	
1	0	0	0	0	546	489	1021	0	0	0	
2	0	0	0	0	540	483	1021	0	0	0	
3	0	0	0	0	533	477	1021	0	0	0	
4	0	0	0	0	528	473	1021	0	0	0	
5	0	0	0	0	524	469	1021	0	0	0	
6	0	0	0	0	521	467	1021	0	0	0	
7	0	0	0	0	519	465	1021	0	0	0	
8	0	0	0	0	518	464	1021	0	0	0	
9	0	0	0	0	518	465	1021	0	0	0	
10	0	0	0	0	518	465	1021	0	0	0	
11	0	0	0	0	517	465	1021	0	0	0	
12	0	0	0	0	515	463	1021	0	0	0	
13	0	0	0	0	512	461	1021	0	0	0	
14	0	0	0	0	507	456	1021	0	0	0	
15	0	0	0	0	499	448	1021	0	0	0	
0	0	0	0	0	489	439	1021	0	0	0	
1	0	0	0	0	477	428	1021	0	0	0	
2	0	0	0	0	463	414	1021	0	0	0	
3	0	0	0	0	447	399	1021	0	0	0	
4	0	0	0	0	431	383	1021	0	0	0	
5	0	0	0	0	415	367	1021	0	0	0	
6	0	0	0	0	399	351	1021	0	0	0	
7	0	0	0	0	384	337	1021	0	0	0	
8	0	0	0	0	372	324	1021	0	0	0	
9	0	0	0	0	361	312	1021	0	0	0	
10	0	0	0	0	353	303	1021	0	0	0	
11	0	0	0	0	347	295	1021	0	0	0	
12	0	0	0	0	343	291	1021	0	0	0	
13	0	0	0	0	342	289	1021	0	0	0	
14	0	0	0	0	343	289	1021	0	0	0	
15	0	0	0	0	348	291	1021	0	0	0	
0	0	0	0	0	354	297	1020	0	0	0	
1	0	0	0	0	364	304	1021	0	0	0	
2	0	0	0	0	375	314	1021	0	0	0	
3	0	0	0	0	388	325	1021	0	0	0	
4	0	0	0	0	403	337	1021	0	0	0	
5	0	0	0	0	418	350	1021	0	0	0	
6	0	0	0	0	432	362	1021	0	0	0	
7	0	0	0	0	448	376	1021	0	0	0	
8	0	0	0	0	463	390	1021	0	0	0	
9	0	0	0	0	478	402	1021	0	0	0	
10	0	0	0	0	492	415	1021	0	0	0	
11	0	0	0	0	505	427	1021	0	0	0	
12	0	0	0	0	518	440	1021	0	0	0	
13	0	0	0	0	531	452	1021	0	0	0	
14	0	0	0	0	543	465	1021	0	0	0	
15	0	0	0	0	554	477	1021	0	0	0	
0	0	0	0	0	564	489	1021	0	0	0	
1	0	0	0	0	574	500	1021	0	0	0	
2	0	0	0	0	582	510	1021	0	0	0	
3	0	0	0	0	588	519	1021	0	0	0	
4	0	0	0	0	592	525	1021	0	0	0	
5	0	0	0	0	594	529	1021	0	0	0	
6	0	0	0	0	594	532	1021	0	0	0	
7	0	0	0	0	591	531	1021	0	0	0	
8	0	0	0	0	586	528	1021	0	0	0	
9	0	0	0	0	579	523	1021	0	0	0	
10	0	0	0	0	570	516	1021	0	0	0	
11	0	0	0	0	561	509	1021	0	0	0	
12	0	0	0	0	551	501	1021	0	0	0	
13	0	0	0	0	543	494	1021	0	0	0	
14	0	0	0	0	536	488	1021	0	0	0	
15	0	0	0	0	531	484	1021	0	0	0	
0	0	0	0	0	530	483	1021	0	0	0	
1	0	0	0	0	531	484	1021	0	0	0	
2	0	0	0	0	536	487	1021	0	0	0	
3	0	0	0	0	543	493	1021	0	0	0	
4	0	0	0	0	551	499	1021	0	0	0	
5	0	0	0	0	560	508	1021	0	0	0	
6	0	0	0	0	570	516	1021	0	0	0	
7	0	0	0	0	579	523	1021	0	0	0	
8	0	0	0	0	587	529	1021	0	0	0	
9	0	0	0	0	593	535	1021	0	0	0	
10	0	0	0	0	597	538	1021	0	0	0	
11	0	0	0	0	598	540	1021	0	0	0	
12	0	0	0	0	598	539	1021	0	0	0	
13	0	0	0	0	594	537	1021	0	0	0	
14	0	0	0	0	589	532	1021	0	0	0	
15	0	0	0	0	583	528	1021	0	0	0	
0	0	0	0	0	577	523	1021	0	0	0	
1	0	0	0	0	570	517	1020	0	0	0	
2	0	0	0	0	564	512	1021	0	0	0	
3	0	0	0	0	559	507	1021	0	0	0	
4	0	0	0	0	557	505	1021	0	0	0	
5	0	0	0	0	556	504	1021	0	0	0	
6	0	0	0	0	558	505	1021	0	0	0	
7	0	0	0	0	561	507	1021	0	0	0	
8	0	0	0	0	566	512	1021	0	0	0	
9	0	0	0	0	573	517	1021	0	0	0	
10	0	0	0	0	580	523	1021	0	0	0	
11	0	0	0	0	587	529	1021	0	0	0	
12	0	0	0	0	593	535	1021	0	0	0	
13	0	0	0	0	598	540	1021	0	0	0	
14	0	0	0	0	602	544	1021	0	0	0	
15	0	0	0	0	604	545	1021	0	0	0	
0	0	0	0	0	603	545	1021	0	0	0	
1	0	0	0	0	601	543	1021	0	0	0	
2	0	0	0	0	596	539	1021	0	0	0	
3	0	0	0	0	591	534	1021	0	0	0	
4	0	0	0	0	585	527	1021	0	0	0	
5	0	0	0	0	579	521	1021	0	0	0	
6	0	0	0	0	572	515	1021	0	0	0	
7	0	0	0	0	567	511	1021	0	0	0	
8	0	0	0	0	563	508	1021	0	0	0	
9	0	0	0	0	561	506	1021	0	0	0	
10	0	0	0	0	561	507	1021	0	0	0	
11	0	0	0	0	563	508	1021	0	0	0	
12	0	0	0	0	566	512	1021	0	0	0	
13	0	0	0	0	570	515	1021	0	0	0	
14	0	0	0	0	575	520	1021	0	0	0	
15	0	0	0	0	579	525	1021	0	0	0	
0	0	0	0	0	584	529	1021	0	0	0	
1	0	0	0	0	587	533	1021	0	0	0	
2	0	0	0	0	590	535	1021	0	0	0	
3	0	0	0	0	591	536	1021	0	0	0	
4	0	0	0	0	590	535	1021	0	0	0	
5	0	0	0	0	588	532	1021	0	0	0	
6	0	0	0	0	583	529	1021	0	0	0	
7	0	0	0	0	579	524	1021	0	0	0	
8	0	0	0	0	573	518	1021	0	0	0	
9	0	0	0	0	567	513	1021	0	0	0	
10	0	0	0	0	561	508	1020	0	0	0	
11	0	0	0	0	556	503	1021	0	0	0	
12	0	0	0	0	553	500	1021	0	0	0	
13	0	0	0	0	551	499	1021	0	0	0	
14	0	0	0	0	551	499	1021	0	0	0	
15	0	0	0	0	554	501	1021	0	0	0	
0	0	0	0	0	559	506	1021	0	0	0	
1	0	0	0	0	564	511	1021	0	0	0	
2	0	0	0	0	571	516	1021	0	0	0	
3	0	0	0	0	578	523	1021	0	0	0	
4	0	0	0	0	584	528	1021	0	0	0	
5	0	0	0	0	589	532	1021	0	0	0	
6	0	0	0	0	592	535	1021	0	0	0	
7	0	0	0	0	593	536	1021	0	0	0	
8	0	0	0	0	593	536	1021	0	0	0	
9	0	0	0	0	590	533	1021	0	0	0	
10	0	0	0	0	584	529	1021	0	0	0	
11	0	0	0	0	578	524	1021	0	0	0	
12	0	0	0	0	571	518	1021	0	0	0	
13	0	0	0	0	563	512	1021	0	0	0	
14	0	0	0	0	557	506	1021	0	0	0	
15	0	0	0	0	551	501	1021	0	0	0	
0	0	0	0	0	547	498	1021	0	0	0	
1	0	0	0	0	544	496	1021	0	0	0	
2	0	0	0	0	545	497	1021	0	0	0	
3	0	0	0	0	547	499	1021	0	0	0	
4	0	0	0	0	550	503	1021	0	0	0	
5	0	0	0	0	555	508	1021	0	0	0	
6	0	0	0	0	560	512	1021	0	0	0	
7	0	0	0	0	564	516	1021	0	0	0	
8	0	0	0	0	568	520	1021	0	0	0	
9	0	0	0	0	571	524	1021	0	0	0	
10	0	0	0	0	573	526	1021	0	0	0	
11	0	0	0	0	573	526	1021	0	0	0	
12	0	0	0	0	571	524	1021	0	0	0	
13	0	0	0	0	567	520	1021	0	0	0	
14	0	0	0	0	561	516	1021	0	0	0	
15	0	0	0	0	556	510	1021	0	0	0	
0	0	0	0	0	550	504	1021	0	0	0	
1	0	0	0	0	545	498	1021	0	0	0	
2	0	0	0	0	540	494	1021	0	0	0	
3	0	0	0	0	536	490	1021	0	0	0	
4	0	0	0	0	535	488	1021	0	0	0	
5	0	0	0	0	535	487	1021	0	0	0	
6	0	0	0	0	537	488	1021	0	0	0	
7	0	0	0	0	541	491	1021	0	0	0	
8	0	0	0	0	547	495	1021	0	0	0	
9	0	0	0	0	553	500	1021	0	0	0	
10	0	0	0	0	560	505	1021	0	0	0	
11	0	0	0	0	567	511	1021	0	0	0	
12	0	0	0	0	572	516	1021	0	0	0	
13	0	0	0	0	576	521	1021	0	0	0	
14	0	0	0	0	580	524	1021	0	0	0	
15	0	0	0	0	582	526	1021	0	0	0	
0	0	0	0	0	581	525	1021	0	0	0	
1	0	0	0	0	577	521	1021	0	0	0	
2	0	0	0	0	572	518	1021	0	0	0	
3	0	0	0	0	568	512	1021	0	0	0	
4	0	0	0	0	561	506	1021	0	0	0	
5	0	0	0	0	556	501	1021	0	0	0	
6	0	0	0	0	550	495	1021	0	0	0	
7	0	0	0	0	546	492	1021	0	0	0	
8	0	0	0	0	543	489	1021	0	0	0	
9	0	0	0	0	542	488	1021	0	0	0	
10	0	0	0	0	543	489	1021	0	0	0	
11	0	0	0	0	546	491	1021	0	0	0	
12	0	0	0	0	550	496	1021	0	0	0	
13	0	0	0	0	555	500	1021	0	0	0	
14	0	0	0	0	560	505	1021	0	0	0	
15	0	0	0	0	566	511	1021	0	0	0	
0	0	0	0	0	571	515	1021	0	0	0	
1	0	0	0	0	574	519	1021	0	0	0	
2	0	0	0	0	576	521	1021	0	0	0	
3	0	0	0	0	576	522	1021	0	0	0	
4	0	0	0	0	574	521	1021	0	0	0	
5	0	0	0	0	570	518	1021	0	0	0	
6	0	0	0	0	565	513	1021	0	0	0	
7	0	0	0	0	559	508	1021	0	0	0	
8	0	0	0	0	551	501	1021	0	0	0	
9	0	0	0	0	544	495	1021	0	0	0	
10	0	0	0	0	539	489	1021	0	0	0	
11	0	0	0	0	533	484	1021	0	0	0	
12	0	0	0	0	530	480	1021	0	0	0	
13	0	0	0	0	529	479	1021	0	0	0	
14	0	0	0	0	529	479	1021	0	0	0	
15	0	0	0	0	532	480	1021	0	0	0	
0	0	0	0	0	536	484	1021	0	0	0	
1	0	0	0	0	542	489	1021	0	0	0	
2	0	0	0	0	549	495	1021	0	0	0	
3	0	0	0	0	555	501	1021	0	0	0	
4	0	0	0	0	561	506	1021	0	0	0	
5	0	0	0	0	566	511	1021	0	0	0	
6	0	0	0	0	569	514	1021	0	0	0	
7	0	0	0	0	570	516	1021	0	0	0	
8	0	0	0	0	570	516	1021	0	0	0	
9	0	0	0	0	567	515	1020	0	0	0	
10	0	0	0	0	562	511	1021	0	0	0	
11	0	0	0	0	557	507	1021	0	0	0	
12	0	0	0	0	551	502	1021	0	0	0	
13	0	0	0	0	544	496	1021	0	0	0	
14	0	0	0	0	539	490	1021	0	0	0	
15	0	0	0	0	534	485	1021	0	0	0	
0	0	0	0	0	531	482	1021	0	0	0	
1	0	0	0	0	531	481	1021	0	0	0	
2	0	0	0	0	531	481	1021	0	0	0	
3	0	0	0	0	535	483	1021	0	0	0	
4	0	0	0	0	539	487	1021	0	0	0	
5	0	0	0	0	545	493	1021	0	0	0	
6	0	0	0	0	551	498	1021	0	0	0	
7	0	0	0	0	558	504	1021	0	0	0	
8	0	0	0	0	563	509	1021	0	0	0	
9	0	0	0	0	568	513	1021	0	0	0	
10	0	0	0	0	572	517	1021	0	0	0	
11	0	0	0	0	572	518	1021	0	0	0	
12	0	0	0	0	572	516	1021	0	0	0	
13	0	0	0	0	569	513	1021	0	0	0	
14	0	0	0	0	564	508	1021	0	0	0	
15	0	0	0	0	559	503	1021	0	0	0	
0	0	0	0	0	553	497	1021	0	0	0	
1	0	0	0	0	547	490	1021	0	0	0	
2	0	0	0	0	541	484	1021	0	0	0	
3	0	0	0	0	536	478	1021	0	0	0	
4	0	0	0	0	531	475	1021	0	0	0	
5	0	0	0	0	529	472	1021	0	0	0	
6	0	0	0	0	527	472	1021	0	0	0	
7	0	0	0	0	528	473	1021	0	0	0	
8	0	0	0	0	530	477	1021	0	0	0	
9	0	0	0	0	535	482	1021	0	0	0	
10	0	0	0	0	540	488	1021	0	0	0	
11	0	0	0	0	545	495	1021	0	0	0	
12	0	0	0	0	551	501	1021	0	0	0	
13	0	0	0	0	557	507	1021	0	0	0	
14	0	0	0	0	562	512	1021	0	0	0	
15	0	0	0	0	565	514	1021	0	0	0	
0	0	0	0	0	566	515	1021	0	0	0	
1	0	0	0	0	565	514	1021	0	0	0	
2	0	0	0	0	562	510	1021	0	0	0	
3	0	0	0	0	558	505	1021	0	0	0	
4	0	0	0	0	551	499	1021	0	0	0	
5	0	0	0	0	545	493	1021	0	0	0	
6	0	0	0	0	538	486	1021	0	0	0	
7	0	0	0	0	532	481	1021	0	0	0	
8	0	0	0	0	528	476	1021	0	0	0	
9	0	0	0	0	525	474	1021	0	0	0	
10	0	0	0	0	526	474	1021	0	0	0	
11	0	0	0	0	527	476	1021	0	0	0	
12	0	0	0	0	531	478	1021	0	0	0	
13	0	0	0	0	537	483	1021	0	0	0	
14	0	0	0	0	543	488	1021	0	0	0	
15	0	0	0	0	550	494	1021	0	0	0	
0	0	0	0	0	555	499	1021	0	0	0	
1	0	0	0	0	560	503	1021	0	0	0	
2	0	0	0	0	563	506	1021	0	0	0	
3	0	0	0	0	565	507	1021	0	0	0	
4	0	0	0	0	565	507	1021	0	0	0	
5	0	0	0	0	562	504	1021	0	0	0	
6	0	0	0	0	558	500	1021	0	0	0	
7	0	0	0	0	553	496	1021	0	0	0	
8	0	0	0	0	547	491	1021	0	0	0	
9	0	0	0	0	540	486	1021	0	0	0	
10	0	0	0	0	534	480	1021	0	0	0	
11	0	0	0	0	529	476	1021	0	0	0	
12	0	0	0	0	525	473	1021	0	0	0	
13	0	0	0	0	523	472	1021	0	0	0	
14	0	0	0	0	523	472	1021	0	0	0	
15	0	0	0	0	525	475	1021	0	0	0	
0	0	0	0	0	529	479	1021	0	0	0	
1	0	0	0	0	535	484	1021	0	0	0	
2	0	0	0	0	542	490	1021	0	0	0	
3	0	0	0	0	549	496	1021	0	0	0	
4	0	0	0	0	556	502	1021	0	0	0	
5	0	0	0	0	562	507	1021	0	0	0	
6	0	0	0	0	567	511	1021	0	0	0	
7	0	0	0	0	570	513	1021	0	0	0	
8	0	0	0	0	571	513	1021	0	0	0	
9	0	0	0	0	569	511	1021	0	0	0	
10	0	0	0	0	566	508	1021	0	0	0	
11	0	0	0	0	563	504	1021	0	0	0	
12	0	0	0	0	558	499	1021	0	0	0	
13	0	0	0	0	552	494	1021	0	0	0	
14	0	0	0	0	547	489	1021	0	0	0	
15	0	0	0	0	542	486	1021	0	0	0	
0	0	0	0	0	538	482	1021	0	0	0	
1	0	0	0	0	536	480	1021	0	0	0	
2	0	0	0	0	536	481	1021	0	0	0	
3	0	0	0	0	538	483	1021	0	0	0	
4	0	0	0	0	541	486	1021	0	0	0	
5	0	0	0	0	547	491	1021	0	0	0	
6	0	0	0	0	552	496	1021	0	0	0	
7	0	0	0	0	558	500	1021	0	0	0	
8	0	0	0	0	563	505	1020	0	0	0	
9	0	0	0	0	568	508	1021	0	0	0	
10	0	0	0	0	572	512	1021	0	0	0	
11	0	0	0	0	573	513	1021	0	0	0	
12	0	0	0	0	573	513	1021	0	0	0	
13	0	0	0	0	572	512	1021	0	0	0	
14	0	0	0	0	569	508	1021	0	0	0	
15	0	0	0	0	566	505	1021	0	0	0	
0	0	0	0	0	561	501	1021	0	0	0	
1	0	0	0	0	556	496	1021	0	0	0	
2	0	0	0	0	551	491	1021	0	0	0	
3	0	0	0	0	546	487	1021	0	0	0	
4	0	0	0	0	543	485	1021	0	0	0	
5	0	0	0	0	541	483	1021	0	0	0	
6	0	0	0	0	540	483	1021	0	0	0	
7	0	0	0	0	540	483	1021	0	0	0	
8	0	0	0	0	542	486	1021	0	0	0	
9	0	0	0	0	545	489	1021	0	0	0	
10	0	0	0	0	548	492	1021	0	0	0	
11	0	0	0	0	551	496	1021	0	0	0	
12	0	0	0	0	554	499	1021	0	0	0	
13	0	0	0	0	556	501	1021	0	0	0	
14	0	0	0	0	558	504	1021	0	0	0	
15	0	0	0	0	558	504	1021	0	0	0	
0	0	0	0	0	556	503	1021	0	0	0	
1	0	0	0	0	553	500	1021	0	0	0	
2	0	0	0	0	548	497	1021	0	0	0	
3	0	0	0	0	543	492	1021	0	0	0	
4	0	0	0	0	536	487	1021	0	0	0	
5	0	0	0	0	530	483	1021	0	0	0	
6	0	0	0	0	525	479	1021	0	0	0	
7	0	0	0	0	520	475	1021	0	0	0	
8	0	0	0	0	518	473	1021	0	0	0	
9	0	0	0	0	518	474	1021	0	0	0	
10	0	0	0	0	520	476	1021	0	0	0	
11	0	0	0	0	525	481	1021	0	0	0	
12	0	0	0	0	532	486	1021	0	0	0	
13	0	0	0	0	541	494	1021	0	0	0	
14	0	0	0	0	550	501	1021	0	0	0	
15	0	0	0	0	559	508	1021	0	0	0	
0	0	0	0	0	568	513	1021	0	0	0	
1	0	0	0	0	575	518	1021	0	0	0	
2	0	0	0	0	580	521	1021	0	0	0	
3	0	0	0	0	583	522	1021	0	0	0	
4	0	0	0	0	583	520	1021	0	0	0	
5	0	0	0	0	581	518	1021	0	0	0	
6	0	0	0	0	577	513	1021	0	0	0	
7	0	0	0	0	571	508	1021	0	0	0	
8	0	0	0	0	564	502	1021	0	0	0	
9	0	0	0	0	556	496	1021	0	0	0	
10	0	0	0	0	549	489	1021	0	0	0	
11	0	0	0	0	541	484	1020	0	0	0	
12	0	0	0	0	535	480	1021	0	0	0	
13	0	0	0	0	531	478	1021	0	0	0	
14	0	0	0	0	530	478	1021	0	0	0	
15	0	0	0	0	531	480	1021	0	0	0	
0	0	0	0	0	535	483	1021	0	0	0	
1	0	0	0	0	540	489	1021	0	0	0	
2	0	0	0	0	547	495	1021	0	0	0	
3	0	0	0	0	554	501	1021	0	0	0	
4	0	0	0	0	562	507	1021	0	0	0	
5	0	0	0	0	568	511	1021	0	0	0	
6	0	0	0	0	572	515	1021	0	0	0	
7	0	0	0	0	574	515	1021	0	0	0	
8	0	0	0	0	574	515	1021	0	0	0	
9	0	0	0	0	571	511	1021	0	0	0	
10	0	0	0	0	566	506	1021	0	0	0	
11	0	0	0	0	560	501	1021	0	0	0	
12	0	0	0	0	553	495	1021	0	0	0	
13	0	0	0	0	544	487	1021	0	0	0	
14	0	0	0	0	536	480	1021	0	0	0	
15	0	0	0	0	529	475	1021	0	0	0	
0	0	0	0	0	524	471	1021	0	0	0	
1	0	0	0	0	521	469	1021	0	0	0	
2	0	0	0	0	520	468	1021	0	0	0	
3	0	0	0	0	521	470	1021	0	0	0	
4	0	0	0	0	524	473	1021	0	0	0	
5	0	0	0	0	529	478	1021	0	0	0	
6	0	0	0	0	536	484	1021	0	0	0	
7	0	0	0	0	542	489	1021	0	0	0	
8	0	0	0	0	548	494	1021	0	0	0	
9	0	0	0	0	553	499	1021	0	0	0	
10	0	0	0	0	558	503	1021	0	0	0	
11	0	0	0	0	560	505	1021	0	0	0	
12	0	0	0	0	561	505	1021	0	0	0	
13	0	0	0	0	560	504	1021	0	0	0	
14	0	0	0	0	557	501	1021	0	0	0	
15	0	0	0	0	552	498	1021	0	0	0	
0	0	0	0	0	547	493	1021	0	0	0	
1	0	0	0	0	542	488	1021	0	0	0	
2	0	0	0	0	536	484	1021	0	0	0	
3	0	0	0	0	531	480	1021	0	0	0	
4	0	0	0	0	528	478	1021	0	0	0	
5	0	0	0	0	526	476	1021	0	0	0	
6	0	0	0	0	527	476	1021	0	0	0	
7	0	0	0	0	529	479	1021	0	0	0	
8	0	0	0	0	534	483	1020	0	0	0	
9	0	0	0	0	541	487	1021	0	0	0	
10	0	0	0	0	548	493	1021	0	0	0	
11	0	0	0	0	556	499	1021	0	0	0	
12	0	0	0	0	564	504	1021	0	0	0	
13	0	0	0	0	570	509	1021	0	0	0	
14	0	0	0	0	575	512	1021	0	0	0	
15	0	0	0	0	577	513	1021	0	0	0	
0	0	0	0	0	577	513	1021	0	0	0	
1	0	0	0	0	575	510	1021	0	0	0	
2	0	0	0	0	570	505	1021	0	0	0	
3	0	0	0	0	564	500	1021	0	0	0	
4	0	0	0	0	556	495	1021	0	0	0	
5	0	0	0	0	548	488	1021	0	0	0	
6	0	0	0	0	541	483	1021	0	0	0	
7	0	0	0	0	535	478	1021	0	0	0	
8	0	0	0	0	530	474	1021	0	0	0	
9	0	0	0	0	527	473	1021	0	0	0	
10	0	0	0	0	526	473	1021	0	0	0	
11	0	0	0	0	527	475	1021	0	0	0	
12	0	0	0	0	530	479	1021	0	0	0	
13	0	0	0	0	536	483	1021	0	0	0	
14	0	0	0	0	541	488	1021	0	0	0	
15	0	0	0	0	548	494	1021	0	0	0	
0	0	0	0	0	554	499	1021	0	0	0	
1	0	0	0	0	560	504	1021	0	0	0	
2	0	0	0	0	565	508	1021	0	0	0	
3	0	0	0	0	568	509	1021	0	0	0	
4	0	0	0	0	568	509	1021	0	0	0	
5	0	0	0	0	566	506	1021	0	0	0	
6	0	0	0	0	561	500	1021	0	0	0	
7	0	0	0	0	555	495	1021	0	0	0	
8	0	0	0	0	547	488	1021	0	0	0	
9	0	0	0	0	540	481	1021	0	0	0	
10	0	0	0	0	534	475	1021	0	0	0	
11	0	0	0	0	528	470	1021	0	0	0	
12	0	0	0	0	525	467	1021	0	0	0	
13	0	0	0	0	524	467	1021	0	0	0	
14	0	0	0	0	525	468	1021	0	0	0	
15	0	0	0	0	528	471	1021	0	0	0	
0	0	0	0	0	532	477	1021	0	0	0	
1	0	0	0	0	539	483	1021	0	0	0	
2	0	0	0	0	546	489	1021	0	0	0	
3	0	0	0	0	553	496	1021	0	0	0	
4	0	0	0	0	559	501	1021	0	0	0	
5	0	0	0	0	564	505	1021	0	0	0	
6	0	0	0	0	568	509	1021	0	0	0	
7	0	0	0	0	570	510	1021	0	0	0	
8	0	0	0	0	569	509	1021	0	0	0	
9	0	0	0	0	567	507	1021	0	0	0	
10	0	0	0	0	562	503	1021	0	0	0	
11	0	0	0	0	557	498	1021	0	0	0	
12	0	0	0	0	550	492	1021	0	0	0	
13	0	0	0	0	543	486	1021	0	0	0	
14	0	0	0	0	536	480	1021	0	0	0	
15	0	0	0	0	530	475	1021	0	0	0	
0	0	0	0	0	527	472	1021	0	0	0	
1	0	0	0	0	524	471	1021	0	0	0	
2	0	0	0	0	524	471	1021	0	0	0	
3	0	0	0	0	526	473	1021	0	0	0	
4	0	0	0	0	530	476	1021	0	0	0	
5	0	0	0	0	535	481	1021	0	0	0	
6	0	0	0	0	540	486	1021	0	0	0	
7	0	0	0	0	545	491	1021	0	0	0	
8	0	0	0	0	550	495	1021	0	0	0	
9	0	0	0	0	553	499	1020	0	0	0	
10	0	0	0	0	556	502	1021	0	0	0	
11	0	0	0	0	556	503	1021	0	0	0	
12	0	0	0	0	555	502	1021	0	0	0	
13	0	0	0	0	552	500	1021	0	0	0	
14	0	0	0	0	548	497	1021	0	0	0	
15	0	0	0	0	544	494	1021	0	0	0	
0	0	0	0	0	540	490	1021	0	0	0	
1	0	0	0	0	536	487	1021	0	0	0	
2	0	0	0	0	534	484	1021	0	0	0	
3	0	0	0	0	531	482	1021	0	0	0	
4	0	0	0	0	531	481	1021	0	0	0	
5	0	0	0	0	532	482	1021	0	0	0	
6	0	0	0	0	534	484	1021	0	0	0	
7	0	0	0	0	538	487	1021	0	0	0	
8	0	0	0	0	543	491	1021	0	0	0	
9	0	0	0	0	549	496	1021	0	0	0	
10	0	0	0	0	555	502	1021	0	0	0	
11	0	0	0	0	560	506	1021	0	0	0	
12	0	0	0	0	564	510	1021	0	0	0	
13	0	0	0	0	567	513	1021	0	0	0	
14	0	0	0	0	569	515	1021	0	0	0	
15	0	0	0	0	569	515	1021	0	0	0	
0	0	0	0	0	568	514	1021	0	0	0	
1	0	0	0	0	564	511	1021	0	0	0	
2	0	0	0	0	559	508	1021	0	0	0	
3	0	0	0	0	555	503	1021	0	0	0	
4	0	0	0	0	548	498	1021	0	0	0	
5	0	0	0	0	543	493	1021	0	0	0	
6	0	0	0	0	538	487	1021	0	0	0	
7	0	0	0	0	534	484	1021	0	0	0	
8	0	0	0	0	531	481	1021	0	0	0	
9	0	0	0	0	531	481	1021	0	0	0	
10	0	0	0	0	533	481	1021	0	0	0	
11	0	0	0	0	536	484	1021	0	0	0	
12	0	0	0	0	540	487	1021	0	0	0	
13	0	0	0	0	546	493	1021	0	0	0	
14	0	0	0	0	552	498	1021	0	0	0	
15	0	0	0	0	558	503	1021	0	0	0	
0	0	0	0	0	562	507	1021	0	0	0	
1	0	0	0	0	564	511	1021	0	0	0	
2	0	0	0	0	566	513	1021	0	0	0	
3	0	0	0	0	565	513	1021	0	0	0	
4	0	0	0	0	562	511	1021	0	0	0	
5	0	0	0	0	558	507	1021	0	0	0	
6	0	0	0	0	551	503	1021	0	0	0	
7	0	0	0	0	545	497	1021	0	0	0	
8	0	0	0	0	538	492	1021	0	0	0	
9	0	0	0	0	532	486	1021	0	0	0	
10	0	0	0	0	527	481	1021	0	0	0	
11	0	0	0	0	523	478	1021	0	0	0	
12	0	0	0	0	521	476	1021	0	0	0	
13	0	0	0	0	521	475	1021	0	0	0	
14	0	0	0	0	524	476	1021	0	0	0	
15	0	0	0	0	527	479	1021	0	0	0	
0	0	0	0	0	532	483	1021	0	0	0	
1	0	0	0	0	538	487	1021	0	0	0	
2	0	0	0	0	543	492	1021	0	0	0	
3	0	0	0	0	548	496	1021	0	0	0	
4	0	0	0	0	553	499	1021	0	0	0	
5	0	0	0	0	555	502	1021	0	0	0	
6	0	0	0	0	557	503	1021	0	0	0	
7	0	0	0	0	556	502	1021	0	0	0	
8	0	0	0	0	553	499	1021	0	0	0	
9	0	0	0	0	549	495	1021	0	0	0	
10	0	0	0	0	543	490	1021	0	0	0	
11	0	0	0	0	537	484	1021	0	0	0	
12	0	0	0	0	531	478	1021	0	0	0	
13	0	0	0	0	525	473	1021	0	0	0	
14	0	0	0	0	519	467	1021	0	0	0	
15	0	0	0	0	516	465	1021	0	0	0	
0	0	0	0	0	514	463	1021	0	0	0	
1	0	0	0	0	515	463	1021	0	0	0	
2	0	0	0	0	517	465	1021	0	0	0	
3	0	0	0	0	521	469	1021	0	0	0	
4	0	0	0	0	526	473	1021	0	0	0	
5	0	0	0	0	532	479	1021	0	0	0	
6	0	0	0	0	539	484	1021	0	0	0	
7	0	0	0	0	544	489	1021	0	0	0	
8	0	0	0	0	549	493	1021	0	0	0	
9	0	0	0	0	552	497	1021	0	0	0	
10	0	0	0	0	555	499	1021	0	0	0	
11	0	0	0	0	556	500	1021	0	0	0	
12	0	0	0	0	554	499	1021	0	0	0	
13	0	0	0	0	551	497	1021	0	0	0	
14	0	0	0	0	547	494	1021	0	0	0	
15	0	0	0	0	542	490	1021	0	0	0	
0	0	0	0	0	536	485	1021	0	0	0	
1	0	0	0	0	531	480	1021	0	0	0	
2	0	0	0	0	525	476	1021	0	0	0	
3	0	0	0	0	521	472	1021	0	0	0	
4	0	0	0	0	518	470	1021	0	0	0	
5	0	0	0	0	517	468	1021	0	0	0	
6	0	0	0	0	519	469	1021	0	0	0	
7	0	0	0	0	521	472	1021	0	0	0	
8	0	0	0	0	526	476	1021	0	0	0	
9	0	0	0	0	532	481	1021	0	0	0	
10	0	0	0	0	537	487	1021	0	0	0	
11	0	0	0	0	543	492	1021	0	0	0	
12	0	0	0	0	549	497	1021	0	0	0	
13	0	0	0	0	554	501	1021	0	0	0	
14	0	0	0	0	557	504	1021	0	0	0	
15	0	0	0	0	558	505	1021	0	0	0	
0	0	0	0	0	558	505	1021	0	0	0	
1	0	0	0	0	556	504	1021	0	0	0	
2	0	0	0	0	553	501	1021	0	0	0	
3	0	0	0	0	548	497	1021	0	0	0	
4	0	0	0	0	542	491	1021	0	0	0	
5	0	0	0	0	536	486	1021	0	0	0	
6	0	0	0	0	530	480	1021	0	0	0	
7	0	0	0	0	525	476	1021	0	0	0	
8	0	0	0	0	521	473	1021	0	0	0	
9	0	0	0	0	520	472	1021	0	0	0	
10	0	0	0	0	521	473	1021	0	0	0	
11	0	0	0	0	525	476	1021	0	0	0	
12	0	0	0	0	529	481	1021	0	0	0	
13	0	0	0	0	537	487	1021	0	0	0	
14	0	0	0	0	544	495	1021	0	0	0	
15	0	0	0	0	551	501	1021	0	0	0	
0	0	0	0	0	558	507	1021	0	0	0	
1	0	0	0	0	563	512	1021	0	0	0	
2	0	0	0	0	567	515	1021	0	0	0	
3	0	0	0	0	568	516	1021	0	0	0	
4	0	0	0	0	568	515	1021	0	0	0	
5	0	0	0	0	564	512	1021	0	0	0	
6	0	0	0	0	559	506	1021	0	0	0	
7	0	0	0	0	552	500	1021	0	0	0	
8	0	0	0	0	545	493	1021	0	0	0	
9	0	0	0	0	538	486	1021	0	0	0	
10	0	0	0	0	532	480	1021	0	0	0	
11	0	0	0	0	527	475	1021	0	0	0	
12	0	0	0	0	524	473	1021	0	0	0	
13	0	0	0	0	524	473	1021	0	0	0	
14	0	0	0	0	526	476	1021	0	0	0	
15	0	0	0	0	532	480	1021	0	0	0	
0	0	0	0	0	539	487	1021	0	0	0	
1	0	0	0	0	547	494	1021	0	0	0	
2	0	0	0	0	556	502	1021	0	0	0	
3	0	0	0	0	563	508	1021	0	0	0	
4	0	0	0	0	570	514	1021	0	0	0	
5	0	0	0	0	575	517	1021	0	0	0	
6	0	0	0	0	578	519	1021	0	0	0	
7	0	0	0	0	578	519	1021	0	0	0	
8	0	0	0	0	575	517	1021	0	0	0	
9	0	0	0	0	572	513	1021	0	0	0	
10	0	0	0	0	565	507	1021	0	0	0	
11	0	0	0	0	559	501	1021	0	0	0	
12	0	0	0	0	551	494	1021	0	0	0	
13	0	0	0	0	544	488	1021	0	0	0	
14	0	0	0	0	538	483	1021	0	0	0	
15	0	0	0	0	534	478	1021	0	0	0	
0	0	0	0	0	531	477	1021	0	0	0	
1	0	0	0	0	531	476	1021	0	0	0	
2	0	0	0	0	532	478	1021	0	0	0	
3	0	0	0	0	536	482	1021	0	0	0	
4	0	0	0	0	541	486	1021	0	0	0	
5	0	0	0	0	548	492	1021	0	0	0	
6	0	0	0	0	555	499	1021	0	0	0	
7	0	0	0	0	561	505	1021	0	0	0	
8	0	0	0	0	566	510	1021	0	0	0	
9	0	0	0	0	570	513	1021	0	0	0	
10	0	0	0	0	571	515	1021	0	0	0	
11	0	0	0	0	570	514	1021	0	0	0	
12	0	0	0	0	564	510	1021	0	0	0	
13	0	0	0	0	556	502	1021	0	0	0	
14	0	0	0	0	545	492	1021	0	0	0	
15	0	0	0	0	531	480	1021	0	0	0	
0	0	0	0	0	516	467	1021	0	0	0	
1	0	0	0	0	500	453	1021	0	0	0	
2	0	0	0	0	485	440	1021	0	0	0	
3	0	0	0	0	470	425	1021	0	0	0	
4	0	0	0	0	456	414	1021	0	0	0	
5	0	0	0	0	444	403	1021	0	0	0	
6	0	0	0	0	435	394	1021	0	0	0	
7	0	0	0	0	428	387	1021	0	0	0	
8	0	0	0	0	423	381	1021	0	0	0	
9	0	0	0	0	419	377	1021	0	0	0	
10	0	0	0	0	417	373	1021	0	0	0	
11	0	0	0	0	414	368	1021	0	0	0	
12	0	0	0	0	411	362	1021	0	0	0	
13	0	0	0	0	404	354	1020	0	0	0	
14	0	0	0	0	396	345	1021	0	0	0	
15	0	0	0	0	385	333	1021	0	0	0	
0	0	0	0	0	372	319	1021	0	0	0	
1	0	0	0	0	358	304	1020	0	0	0	
2	0	0	0	0	343	289	1021	0	0	0	
3	0	0	0	0	329	277	1021	0	0	0	
4	0	0	0	0	317	265	1021	0	0	0	
5	0	0	0	0	308	258	1021	0	0	0	
6	0	0	0	0	305	254	1021	0	0	0	
7	0	0	0	0	305	255	1021	0	0	0	
8	0	0	0	0	314	262	1021	0	0	0	
9	0	0	0	0	327	275	1021	0	0	0	
10	0	0	0	0	348	293	1021	0	0	0	
11	0	0	0	0	374	315	1021	0	0	0	
12	0	0	0	0	402	341	1020	0	0	0	
13	0	0	0	0	435	369	1021	0	0	0	
14	0	0	0	0	467	398	1021	0	0	0	
15	0	0	0	0	498	425	1021	0	0	0	
0	0	0	0	0	526	451	1021	0	0	0	
1	0	0	0	0	551	473	1021	0	0	0	
2	0	0	0	0	571	493	1021	0	0	0	
3	0	0	0	0	585	507	1021	0	0	0	
4	0	0	0	0	594	517	1021	0	0	0	
5	0	0	0	0	597	522	1021	0	0	0	
6	0	0	0	0	594	522	1021	0	0	0	
7	0	0	0	0	588	519	1021	0	0	0	
8	0	0	0	0	579	514	1021	0	0	0	
9	0	0	0	0	568	507	1021	0	0	0	
10	0	0	0	0	556	498	1021	0	0	0	
11	0	0	0	0	543	490	1020	0	0	0	
12	0	0	0	0	534	483	1021	0	0	0	
13	0	0	0	0	526	478	1021	0	0	0	
14	0	0	0	0	521	475	1021	0	0	0	
15	0	0	0	0	519	474	1021	0	0	0	
0	0	0	0	0	521	476	1021	0	0	0	
1	0	0	0	0	526	480	1021	0	0	0	
2	0	0	0	0	534	486	1021	0	0	0	
3	0	0	0	0	542	492	1021	0	0	0	
4	0	0	0	0	551	499	1021	0	0	0	
5	0	0	0	0	560	504	1021	0	0	0	
6	0	0	0	0	569	511	1021	0	0	0	
7	0	0	0	0	575	515	1021	0	0	0	
8	0	0	0	0	579	517	1021	0	0	0	
9	0	0	0	0	580	517	1020	0	0	0	
10	0	0	0	0	579	515	1021	0	0	0	
11	0	0	0	0	576	513	1021	0	0	0	
12	0	0	0	0	571	509	1021	0	0	0	
13	0	0	0	0	564	504	1021	0	0	0	
14	0	0	0	0	557	500	1021	0	0	0	
15	0	0	0	0	551	496	1021	0	0	0	
0	0	0	0	0	545	493	1021	0	0	0	
1	0	0	0	0	542	492	1021	0	0	0	
2	0	0	0	0	540	492	1021	0	0	0	
3	0	0	0	0	542	495	1021	0	0	0	
4	0	0	0	0	545	498	1021	0	0	0	
5	0	0	0	0	551	504	1021	0	0	0	
6	0	0	0	0	558	510	1021	0	0	0	
7	0	0	0	0	565	516	1021	0	0	0	
8	0	0	0	0	573	521	1021	0	0	0	
9	0	0	0	0	579	526	1021	0	0	0	
10	0	0	0	0	584	530	1021	0	0	0	
11	0	0	0	0	588	531	1021	0	0	0	
12	0	0	0	0	588	530	1021	0	0	0	
13	0	0	0	0	586	527	1021	0	0	0	
14	0	0	0	0	582	522	1021	0	0	0	
15	0	0	0	0	575	516	1021	0	0	0	
0	0	0	0	0	568	508	1021	0	0	0	
1	0	0	0	0	559	502	1021	0	0	0	
2	0	0	0	0	552	495	1021	0	0	0	
3	0	0	0	0	545	489	1021	0	0	0	
4	0	0	0	0	540	486	1021	0	0	0	
5	0	0	0	0	536	484	1021	0	0	0	
6	0	0	0	0	535	484	1021	0	0	0	
7	0	0	0	0	536	485	1021	0	0	0	
8	0	0	0	0	540	489	1021	0	0	0	
9	0	0	0	0	545	495	1021	0	0	0	
10	0	0	0	0	551	500	1021	0	0	0	
11	0	0	0	0	558	506	1021	0	0	0	
12	0	0	0	0	564	511	1021	0	0	0	
13	0	0	0	0	570	515	1021	0	0	0	
14	0	0	0	0	574	519	1021	0	0	0	
15	0	0	0	0	576	520	1021	0	0	0	
0	0	0	0	0	576	519	1021	0	0	0	
1	0	0	0	0	573	517	1020	0	0	0	
2	0	0	0	0	569	513	1021	0	0	0	
3	0	0	0	0	563	508	1021	0	0	0	
4	0	0	0	0	556	503	1021	0	0	0	
5	0	0	0	0	550	497	1021	0	0	0	
6	0	0	0	0	543	492	1021	0	0	0	
7	0	0	0	0	537	487	1021	0	0	0	
8	0	0	0	0	533	484	1021	0	0	0	
9	0	0	0	0	531	482	1021	0	0	0	
10	0	0	0	0	530	482	1021	0	0	0	
11	0	0	0	0	532	484	1021	0	0	0	
12	0	0	0	0	535	487	1021	0	0	0	
13	0	0	0	0	540	491	1021	0	0	0	
14	0	0	0	0	545	495	1021	0	0	0	
15	0	0	0	0	551	500	1021	0	0	0	
0	0	0	0	0	558	504	1021	0	0	0	
1	0	0	0	0	563	508	1021	0	0	0	
2	0	0	0	0	568	511	1021	0	0	0	
3	0	0	0	0	571	513	1021	0	0	0	
4	0	0	0	0	572	513	1021	0	0	0	
5	0	0	0	0	571	511	1021	0	0	0	
6	0	0	0	0	568	508	1021	0	0	0	
7	0	0	0	0	565	504	1021	0	0	0	
8	0	0	0	0	560	500	1021	0	0	0	
9	0	0	0	0	555	495	1021	0	0	0	
10	0	0	0	0	550	490	1021	0	0	0	
11	0	0	0	0	545	486	1021	0	0	0	
12	0	0	0	0	542	483	1021	0	0	0	
13	0	0	0	0	539	481	1021	0	0	0	
14	0	0	0	0	539	481	1021	0	0	0	
15	0	0	0	0	539	483	1021	0	0	0	
0	0	0	0	0	542	486	1021	0	0	0	
1	0	0	0	0	546	491	1021	0	0	0	
2	0	0	0	0	551	496	1021	0	0	0	
3	0	0	0	0	556	501	1021	0	0	0	
4	0	0	0	0	560	506	1021	0	0	0	
5	0	0	0	0	564	510	1021	0	0	0	
6	0	0	0	0	567	513	1021	0	0	0	
7	0	0	0	0	567	513	1021	0	0	0	
8	0	0	0	0	567	513	1021	0	0	0	
9	0	0	0	0	564	510	1021	0	0	0	
10	0	0	0	0	560	505	1021	0	0	0	
11	0	0	0	0	556	501	1021	0	0	0	
12	0	0	0	0	552	496	1021	0	0	0	
13	0	0	0	0	547	492	1021	0	0	0	
14	0	0	0	0	543	487	1021	0	0	0	
15	0	0	0	0	540	483	1021	0	0	0	
0	0	0	0	0	539	482	1021	0	0	0	
1	0	0	0	0	538	481	1021	0	0	0	
2	0	0	0	0	540	482	1021	0	0	0	
3	0	0	0	0	542	484	1021	0	0	0	
4	0	0	0	0	545	487	1021	0	0	0	
5	0	0	0	0	550	492	1021	0	0	0	
6	0	0	0	0	555	496	1021	0	0	0	
7	0	0	0	0	559	501	1021	0	0	0	
8	0	0	0	0	563	504	1021	0	0	0	
9	0	0	0	0	566	507	1021	0	0	0	
10	0	0	0	0	568	509	1021	0	0	0	
11	0	0	0	0	569	509	1021	0	0	0	
12	0	0	0	0	568	507	1021	0	0	0	
13	0	0	0	0	564	505	1021	0	0	0	
14	0	0	0	0	559	501	1021	0	0	0	
15	0	0	0	0	554	496	1021	0	0	0	
0	0	0	0	0	548	491	1021	0	0	0	
1	0	0	0	0	542	487	1021	0	0	0	
2	0	0	0	0	536	482	1021	0	0	0	
3	0	0	0	0	532	478	1021	0	0	0	
4	0	0	0	0	529	477	1021	0	0	0	
5	0	0	0	0	528	477	1021	0	0	0	
6	0	0	0	0	529	479	1021	0	0	0	
7	0	0	0	0	533	483	1021	0	0	0	
8	0	0	0	0	539	489	1020	0	0	0	
9	0	0	0	0	546	496	1021	0	0	0	
10	0	0	0	0	553	504	1021	0	0	0	
11	0	0	0	0	561	511	1021	0	0	0	
12	0	0	0	0	569	517	1021	0	0	0	
13	0	0	0	0	574	521	1021	0	0	0	
14	0	0	0	0	577	523	1021	0	0	0	
15	0	0	0	0	578	522	1021	0	0	0	
0	0	0	0	0	575	519	1021	0	0	0	
1	0	0	0	0	570	512	1021	0	0	0	
2	0	0	0	0	563	504	1021	0	0	0	
3	0	0	0	0	554	495	1021	0	0	0	
4	0	0	0	0	544	486	1021	0	0	0	
5	0	0	0	0	535	476	1021	0	0	0	
6	0	0	0	0	526	468	1021	0	0	0	
7	0	0	0	0	519	462	1021	0	0	0	
8	0	0	0	0	514	458	1021	0	0	0	
9	0	0	0	0	512	456	1021	0	0	0	
10	0	0	0	0	513	457	1021	0	0	0	
11	0	0	0	0	517	460	1021	0	0	0	
12	0	0	0	0	523	466	1021	0	0	0	
13	0	0	0	0	531	474	1021	0	0	0	
14	0	0	0	0	540	482	1021	0	0	0	
15	0	0	0	0	550	491	1021	0	0	0	
0	0	0	0	0	559	498	1021	0	0	0	
1	0	0	0	0	567	505	1021	0	0	0	
2	0	0	0	0	573	510	1021	0	0	0	
3	0	0	0	0	577	513	1021	0	0	0	
4	0	0	0	0	578	514	1021	0	0	0	
5	0	0	0	0	577	513	1021	0	0	0	
6	0	0	0	0	573	509	1021	0	0	0	
7	0	0	0	0	568	505	1021	0	0	0	
8	0	0	0	0	561	499	1021	0	0	0	
9	0	0	0	0	553	493	1021	0	0	0	
10	0	0	0	0	546	488	1021	0	0	0	
11	0	0	0	0	540	483	1020	0	0	0	
12	0	0	0	0	535	479	1021	0	0	0	
13	0	0	0	0	531	477	1021	0	0	0	
14	0	0	0	0	530	477	1021	0	0	0	
15	0	0	0	0	530	478	1021	0	0	0	
0	0	0	0	0	532	480	1021	0	0	0	
1	0	0	0	0	537	484	1021	0	0	0	
2	0	0	0	0	543	490	1021	0	0	0	
3	0	0	0	0	549	495	1021	0	0	0	
4	0	0	0	0	556	500	1021	0	0	0	
5	0	0	0	0	561	504	1021	0	0	0	
6	0	0	0	0	566	508	1021	0	0	0	
7	0	0	0	0	568	509	1021	0	0	0	
8	0	0	0	0	568	508	1021	0	0	0	
9	0	0	0	0	567	505	1021	0	0	0	
10	0	0	0	0	562	501	1021	0	0	0	
11	0	0	0	0	557	496	1021	0	0	0	
12	0	0	0	0	550	489	1021	0	0	0	
13	0	0	0	0	543	483	1021	0	0	0	
14	0	0	0	0	536	476	1021	0	0	0	
15	0	0	0	0	529	471	1021	0	0	0	
0	0	0	0	0	525	467	1021	0	0	0	
1	0	0	0	0	522	465	1021	0	0	0	
2	0	0	0	0	522	466	1021	0	0	0	
3	0	0	0	0	524	467	1021	0	0	0	
4	0	0	0	0	527	471	1021	0	0	0	
5	0	0	0	0	533	476	1021	0	0	0	
6	0	0	0	0	539	481	1021	0	0	0	
7	0	0	0	0	545	487	1021	0	0	0	
8	0	0	0	0	551	491	1021	0	0	0	
9	0	0	0	0	555	496	1021	0	0	0	
10	0	0	0	0	559	499	1021	0	0	0	
11	0	0	0	0	561	500	1021	0	0	0	
12	0	0	0	0	561	499	1021	0	0	0	
13	0	0	0	0	559	497	1021	0	0	0	
14	0	0	0	0	555	495	1021	0	0	0	
15	0	0	0	0	550	490	1021	0	0	0	
0	0	0	0	0	543	485	1021	0	0	0	
1	0	0	0	0	537	480	1021	0	0	0	
2	0	0	0	0	531	474	1021	0	0	0	
3	0	0	0	0	524	471	1021	0	0	0	
4	0	0	0	0	522	468	1021	0	0	0	
5	0	0	0	0	520	467	1021	0	0	0	
6	0	0	0	0	521	468	1021	0	0	0	
7	0	0	0	0	525	471	1021	0	0	0	
8	0	0	0	0	529	476	1021	0	0	0	
9	0	0	0	0	536	481	1021	0	0	0	
10	0	0	0	0	543	487	1021	0	0	0	
11	0	0	0	0	550	492	1021	0	0	0	
12	0	0	0	0	556	497	1021	0	0	0	
13	0	0	0	0	561	502	1021	0	0	0	
14	0	0	0	0	565	504	1021	0	0	0	
15	0	0	0	0	566	505	1021	0	0	0	
0	0	0	0	0	565	504	1021	0	0	0	
1	0	0	0	0	562	501	1021	0	0	0	
2	0	0	0	0	557	496	1021	0	0	0	
3	0	0	0	0	552	491	1021	0	0	0	
4	0	0	0	0	546	486	1021	0	0	0	
5	0	0	0	0	540	480	1021	0	0	0	
6	0	0	0	0	535	473	1021	0	0	0	
7	0	0	0	0	529	470	1021	0	0	0	
8	0	0	0	0	527	466	1021	0	0	0	
9	0	0	0	0	525	465	1021	0	0	0	
10	0	0	0	0	526	465	1021	0	0	0	
11	0	0	0	0	529	468	1021	0	0	0	
12	0	0	0	0	533	472	1021	0	0	0	
13	0	0	0	0	540	478	1021	0	0	0	
14	0	0	0	0	546	484	1021	0	0	0	
15	0	0	0	0	553	490	1021	0	0	0	
0	0	0	0	0	559	496	1021	0	0	0	
1	0	0	0	0	563	501	1021	0	0	0	
2	0	0	0	0	567	505	1021	0	0	0	
3	0	0	0	0	568	506	1021	0	0	0	
4	0	0	0	0	568	506	1021	0	0	0	
5	0	0	0	0	565	504	1021	0	0	0	
6	0	0	0	0	560	500	1021	0	0	0	
7	0	0	0	0	555	495	1021	0	0	0	
8	0	0	0	0	548	489	1021	0	0	0	
9	0	0	0	0	541	483	1021	0	0	0	
10	0	0	0	0	534	476	1021	0	0	0	
11	0	0	0	0	527	472	1021	0	0	0	
12	0	0	0	0	524	468	1021	0	0	0	
13	0	0	0	0	521	466	1021	0	0	0	
14	0	0	0	0	521	466	1021	0	0	0	
15	0	0	0	0	524	468	1021	0	0	0	
0	0	0	0	0	528	471	1021	0	0	0	
1	0	0	0	0	534	476	1021	0	0	0	
2	0	0	0	0	540	482	1021	0	0	0	
3	0	0	0	0	547	487	1021	0	0	0	
4	0	0	0	0	552	492	1021	0	0	0	
5	0	0	0	0	558	496	1021	0	0	0	
6	0	0	0	0	561	499	1021	0	0	0	
7	0	0	0	0	563	499	1021	0	0	0	
8	0	0	0	0	562	498	1021	0	0	0	
9	0	0	0	0	559	495	1020	0	0	0	
10	0	0	0	0	555	492	1020	0	0	0	
11	0	0	0	0	549	487	1021	0	0	0	
12	0	0	0	0	543	481	1021	0	0	0	
13	0	0	0	0	537	476	1021	0	0	0	
14	0	0	0	0	532	472	1021	0	0	0	
15	0	0	0	0	528	468	1021	0	0	0	
0	0	0	0	0	525	466	1021	0	0	0	
1	0	0	0	0	525	466	1021	0	0	0	
2	0	0	0	0	526	467	1021	0	0	0	
3	0	0	0	0	528	469	1021	0	0	0	
4	0	0	0	0	532	473	1021	0	0	0	
5	0	0	0	0	538	479	1021	0	0	0	
6	0	0	0	0	543	484	1021	0	0	0	
7	0	0	0	0	549	490	1021	0	0	0	
8	0	0	0	0	555	496	1021	0	0	0	
9	0	0	0	0	560	499	1021	0	0	0	
10	0	0	0	0	563	503	1021	0	0	0	
11	0	0	0	0	564	504	1021	0	0	0	
12	0	0	0	0	563	503	1021	0	0	0	
