# OpenSignals Text File Format. Version 1
# {"": {"position": 0, "device": "", "device name": "", "device connection": "", "sampling rate": 1000, "resolution": [4, 1, 1, 1, 1, 10, 10, 10, 10, 6, 6], "firmware version": 1281, "comments": "", "keywords": "", "mode": 0, "sync interval": 2, "date": "", "time": "", "channels": [1, 2, 3, 4, 5, 6], "sensor": ["RAW", "RAW", "RAW", "RAW", "RAW", "RAW"], "label": ["A1", "A2", "A3", "A4", "A5", "A6"], "column": ["nSeq", "I1", "I2", "O1", "O2", "A1", "A2", "A3", "A4", "A5", "A6"], "special": [{}, {}, {}, {}, {}, {}], "digital IO": [0, 0, 1, 1]}}
# EndOfHeader
0	0	0	0	0	558	502	1021	0	0	0	
1	0	0	0	0	554	498	1021	0	0	0	
2	0	0	0	0	551	496	1021	0	0	0	
3	0	0	0	0	551	495	1021	0	0	0	
4	0	0	0	0	553	496	1021	0	0	0	
5	0	0	0	0	556	498	1021	0	0	0	
6	0	0	0	0	561	502	1021	0	0	0	
7	0	0	0	0	567	507	1021	0	0	0	
8	0	0	0	0	574	513	1021	0	0	0	
9	0	0	0	0	581	519	1021	0	0	0	
10	0	0	0	0	587	525	1021	0	0	0	
11	0	0	0	0	592	529	1021	0	0	0	
12	0	0	0	0	596	533	1021	0	0	0	
13	0	0	0	0	599	535	1021	0	0	0	
14	0	0	0	0	599	535	1021	0	0	0	
15	0	0	0	0	596	533	1021	0	0	0	
0	0	0	0	0	591	529	1021	0	0	0	
1	0	0	0	0	585	524	1021	0	0	0	
2	0	0	0	0	579	518	1021	0	0	0	
3	0	0	0	0	571	511	1021	0	0	0	
4	0	0	0	0	564	505	1021	0	0	0	
5	0	0	0	0	558	499	1021	0	0	0	
6	0	0	0	0	553	496	1021	0	0	0	
7	0	0	0	0	551	493	1021	0	0	0	
8	0	0	0	0	551	494	1021	0	0	0	
9	0	0	0	0	554	496	1021	0	0	0	
10	0	0	0	0	559	502	1021	0	0	0	
11	0	0	0	0	565	508	1021	0	0	0	
12	0	0	0	0	573	515	1021	0	0	0	
13	0	0	0	0	581	523	1021	0	0	0	
14	0	0	0	0	588	530	1021	0	0	0	
15	0	0	0	0	592	535	1021	0	0	0	
0	0	0	0	0	595	537	1021	0	0	0	
1	0	0	0	0	595	537	1021	0	0	0	
2	0	0	0	0	593	536	1021	0	0	0	
3	0	0	0	0	588	531	1021	0	0	0	
4	0	0	0	0	580	524	1021	0	0	0	
5	0	0	0	0	572	516	1021	0	0	0	
6	0	0	0	0	563	507	1021	0	0	0	
7	0	0	0	0	553	499	1021	0	0	0	
8	0	0	0	0	545	491	1021	0	0	0	
9	0	0	0	0	539	485	1021	0	0	0	
10	0	0	0	0	535	481	1021	0	0	0	
11	0	0	0	0	535	480	1021	0	0	0	
12	0	0	0	0	537	482	1021	0	0	0	
13	0	0	0	0	542	486	1021	0	0	0	
14	0	0	0	0	549	492	1021	0	0	0	
15	0	0	0	0	558	501	1020	0	0	0	
0	0	0	0	0	570	511	1021	0	0	0	
1	0	0	0	0	581	521	1021	0	0	0	
2	0	0	0	0	591	529	1021	0	0	0	
3	0	0	0	0	599	537	1021	0	0	0	
4	0	0	0	0	604	542	1021	0	0	0	
5	0	0	0	0	606	544	1021	0	0	0	
6	0	0	0	0	605	543	1021	0	0	0	
7	0	0	0	0	599	539	1021	0	0	0	
8	0	0	0	0	590	531	1021	0	0	0	
9	0	0	0	0	579	522	1021	0	0	0	
10	0	0	0	0	566	511	1021	0	0	0	
11	0	0	0	0	553	500	1021	0	0	0	
12	0	0	0	0	540	490	1021	0	0	0	
13	0	0	0	0	530	482	1021	0	0	0	
14	0	0	0	0	522	475	1021	0	0	0	
15	0	0	0	0	518	472	1021	0	0	0	
0	0	0	0	0	518	471	1021	0	0	0	
1	0	0	0	0	520	472	1021	0	0	0	
2	0	0	0	0	526	477	1021	0	0	0	
3	0	0	0	0	535	483	1021	0	0	0	
4	0	0	0	0	544	491	1021	0	0	0	
5	0	0	0	0	555	499	1021	0	0	0	
6	0	0	0	0	564	507	1021	0	0	0	
7	0	0	0	0	573	514	1021	0	0	0	
8	0	0	0	0	579	519	1021	0	0	0	
9	0	0	0	0	583	522	1021	0	0	0	
10	0	0	0	0	583	523	1021	0	0	0	
11	0	0	0	0	581	521	1021	0	0	0	
12	0	0	0	0	577	519	1021	0	0	0	
13	0	0	0	0	571	513	1020	0	0	0	
14	0	0	0	0	563	508	1020	0	0	0	
15	0	0	0	0	555	501	1021	0	0	0	
0	0	0	0	0	547	494	1021	0	0	0	
1	0	0	0	0	541	488	1021	0	0	0	
2	0	0	0	0	536	484	1021	0	0	0	
3	0	0	0	0	533	481	1020	0	0	0	
4	0	0	0	0	532	480	1021	0	0	0	
5	0	0	0	0	534	481	1021	0	0	0	
6	0	0	0	0	536	483	1021	0	0	0	
7	0	0	0	0	541	487	1020	0	0	0	
8	0	0	0	0	546	492	1021	0	0	0	
9	0	0	0	0	551	497	1021	0	0	0	
10	0	0	0	0	557	502	1021	0	0	0	
11	0	0	0	0	562	507	1021	0	0	0	
12	0	0	0	0	565	510	1021	0	0	0	
13	0	0	0	0	567	512	1021	0	0	0	
14	0	0	0	0	568	513	1021	0	0	0	
15	0	0	0	0	566	511	1021	0	0	0	
0	0	0	0	0	563	509	1021	0	0	0	
1	0	0	0	0	558	505	1021	0	0	0	
2	0	0	0	0	553	500	1020	0	0	0	
3	0	0	0	0	548	495	1021	0	0	0	
4	0	0	0	0	543	490	1021	0	0	0	
5	0	0	0	0	539	486	1021	0	0	0	
6	0	0	0	0	535	482	1021	0	0	0	
7	0	0	0	0	534	480	1020	0	0	0	
8	0	0	0	0	535	480	1021	0	0	0	
9	0	0	0	0	537	481	1021	0	0	0	
10	0	0	0	0	541	485	1021	0	0	0	
11	0	0	0	0	546	490	1021	0	0	0	
12	0	0	0	0	552	496	1021	0	0	0	
13	0	0	0	0	560	502	1021	0	0	0	
14	0	0	0	0	566	508	1021	0	0	0	
15	0	0	0	0	572	513	1021	0	0	0	
0	0	0	0	0	576	518	1020	0	0	0	
1	0	0	0	0	579	521	1020	0	0	0	
2	0	0	0	0	580	522	1021	0	0	0	
3	0	0	0	0	579	521	1021	0	0	0	
4	0	0	0	0	575	518	1021	0	0	0	
5	0	0	0	0	570	513	1020	0	0	0	
6	0	0	0	0	563	508	1020	0	0	0	
7	0	0	0	0	556	500	1021	0	0	0	
8	0	0	0	0	547	493	1021	0	0	0	
9	0	0	0	0	539	486	1021	0	0	0	
10	0	0	0	0	532	481	1021	0	0	0	
11	0	0	0	0	527	477	1020	0	0	0	
12	0	0	0	0	525	474	1021	0	0	0	
13	0	0	0	0	525	474	1021	0	0	0	
14	0	0	0	0	528	477	1021	0	0	0	
15	0	0	0	0	533	481	1021	0	0	0	
0	0	0	0	0	540	487	1021	0	0	0	
1	0	0	0	0	547	494	1021	0	0	0	
2	0	0	0	0	556	500	1021	0	0	0	
3	0	0	0	0	563	506	1021	0	0	0	
4	0	0	0	0	569	511	1021	0	0	0	
5	0	0	0	0	572	514	1020	0	0	0	
6	0	0	0	0	575	515	1021	0	0	0	
7	0	0	0	0	573	513	1021	0	0	0	
8	0	0	0	0	569	510	1021	0	0	0	
9	0	0	0	0	563	504	1021	0	0	0	
10	0	0	0	0	556	499	1021	0	0	0	
11	0	0	0	0	548	493	1021	0	0	0	
12	0	0	0	0	541	487	1021	0	0	0	
13	0	0	0	0	534	481	1021	0	0	0	
14	0	0	0	0	529	477	1021	0	0	0	
15	0	0	0	0	526	475	1021	0	0	0	
0	0	0	0	0	525	475	1021	0	0	0	
1	0	0	0	0	527	477	1021	0	0	0	
2	0	0	0	0	532	481	1021	0	0	0	
3	0	0	0	0	539	487	1020	0	0	0	
4	0	0	0	0	547	496	1020	0	0	0	
5	0	0	0	0	558	504	1021	0	0	0	
6	0	0	0	0	568	512	1021	0	0	0	
7	0	0	0	0	576	519	1021	0	0	0	
8	0	0	0	0	583	525	1021	0	0	0	
9	0	0	0	0	587	529	1021	0	0	0	
10	0	0	0	0	590	530	1021	0	0	0	
11	0	0	0	0	589	529	1021	0	0	0	
12	0	0	0	0	586	527	1021	0	0	0	
13	0	0	0	0	580	522	1020	0	0	0	
14	0	0	0	0	573	516	1021	0	0	0	
15	0	0	0	0	566	509	1021	0	0	0	
0	0	0	0	0	558	502	1021	0	0	0	
1	0	0	0	0	550	495	1021	0	0	0	
2	0	0	0	0	542	489	1021	0	0	0	
3	0	0	0	0	536	483	1021	0	0	0	
4	0	0	0	0	531	480	1021	0	0	0	
5	0	0	0	0	529	478	1021	0	0	0	
6	0	0	0	0	528	478	1021	0	0	0	
7	0	0	0	0	529	480	1021	0	0	0	
8	0	0	0	0	532	482	1020	0	0	0	
9	0	0	0	0	537	486	1021	0	0	0	
10	0	0	0	0	542	489	1021	0	0	0	
11	0	0	0	0	547	494	1021	0	0	0	
12	0	0	0	0	552	498	1021	0	0	0	
13	0	0	0	0	556	502	1021	0	0	0	
14	0	0	0	0	560	504	1021	0	0	0	
15	0	0	0	0	562	504	1021	0	0	0	
0	0	0	0	0	563	505	1021	0	0	0	
1	0	0	0	0	562	504	1020	0	0	0	
2	0	0	0	0	560	503	1020	0	0	0	
3	0	0	0	0	559	500	1021	0	0	0	
4	0	0	0	0	556	499	1021	0	0	0	
5	0	0	0	0	554	496	1021	0	0	0	
6	0	0	0	0	551	494	1021	0	0	0	
7	0	0	0	0	549	493	1021	0	0	0	
8	0	0	0	0	548	492	1021	0	0	0	
9	0	0	0	0	549	493	1021	0	0	0	
10	0	0	0	0	550	495	1021	0	0	0	
11	0	0	0	0	552	497	1020	0	0	0	
12	0	0	0	0	555	500	1020	0	0	0	
13	0	0	0	0	558	504	1021	0	0	0	
14	0	0	0	0	560	507	1021	0	0	0	
15	0	0	0	0	562	509	1021	0	0	0	
0	0	0	0	0	563	511	1021	0	0	0	
1	0	0	0	0	562	511	1021	0	0	0	
2	0	0	0	0	561	510	1021	0	0	0	
3	0	0	0	0	558	508	1021	0	0	0	
4	0	0	0	0	554	504	1021	0	0	0	
5	0	0	0	0	549	499	1021	0	0	0	
6	0	0	0	0	544	494	1021	0	0	0	
7	0	0	0	0	540	489	1021	0	0	0	
8	0	0	0	0	535	485	1021	0	0	0	
9	0	0	0	0	532	481	1021	0	0	0	
10	0	0	0	0	531	479	1021	0	0	0	
11	0	0	0	0	531	478	1021	0	0	0	
12	0	0	0	0	533	480	1021	0	0	0	
13	0	0	0	0	537	482	1021	0	0	0	
14	0	0	0	0	543	487	1021	0	0	0	
15	0	0	0	0	548	492	1020	0	0	0	
0	0	0	0	0	556	498	1021	0	0	0	
1	0	0	0	0	562	504	1021	0	0	0	
2	0	0	0	0	567	510	1021	0	0	0	
3	0	0	0	0	572	515	1021	0	0	0	
4	0	0	0	0	575	519	1021	0	0	0	
5	0	0	0	0	576	520	1020	0	0	0	
6	0	0	0	0	576	520	1021	0	0	0	
7	0	0	0	0	574	519	1021	0	0	0	
8	0	0	0	0	569	515	1021	0	0	0	
9	0	0	0	0	563	511	1021	0	0	0	
10	0	0	0	0	557	505	1021	0	0	0	
11	0	0	0	0	550	499	1021	0	0	0	
12	0	0	0	0	543	493	1021	0	0	0	
13	0	0	0	0	536	487	1021	0	0	0	
14	0	0	0	0	531	481	1020	0	0	0	
15	0	0	0	0	527	478	1021	0	0	0	
0	0	0	0	0	524	475	1021	0	0	0	
1	0	0	0	0	525	474	1021	0	0	0	
2	0	0	0	0	526	475	1021	0	0	0	
3	0	0	0	0	530	478	1020	0	0	0	
4	0	0	0	0	535	482	1020	0	0	0	
5	0	0	0	0	542	487	1021	0	0	0	
6	0	0	0	0	548	492	1021	0	0	0	
7	0	0	0	0	555	498	1021	0	0	0	
8	0	0	0	0	560	503	1021	0	0	0	
9	0	0	0	0	564	507	1021	0	0	0	
10	0	0	0	0	567	509	1021	0	0	0	
11	0	0	0	0	567	510	1021	0	0	0	
12	0	0	0	0	566	509	1021	0	0	0	
13	0	0	0	0	563	506	1021	0	0	0	
14	0	0	0	0	559	503	1021	0	0	0	
15	0	0	0	0	555	499	1021	0	0	0	
0	0	0	0	0	550	495	1021	0	0	0	
1	0	0	0	0	547	492	1021	0	0	0	
2	0	0	0	0	544	490	1020	0	0	0	
3	0	0	0	0	543	488	1020	0	0	0	
4	0	0	0	0	544	488	1021	0	0	0	
5	0	0	0	0	546	489	1021	0	0	0	
6	0	0	0	0	549	492	1021	0	0	0	
7	0	0	0	0	553	496	1020	0	0	0	
8	0	0	0	0	558	499	1021	0	0	0	
9	0	0	0	0	563	504	1021	0	0	0	
10	0	0	0	0	567	508	1021	0	0	0	
11	0	0	0	0	571	512	1021	0	0	0	
12	0	0	0	0	574	515	1021	0	0	0	
13	0	0	0	0	575	516	1021	0	0	0	
14	0	0	0	0	575	517	1021	0	0	0	
15	0	0	0	0	574	516	1021	0	0	0	
0	0	0	0	0	571	514	1021	0	0	0	
1	0	0	0	0	566	510	1021	0	0	0	
2	0	0	0	0	560	506	1020	0	0	0	
3	0	0	0	0	556	501	1021	0	0	0	
4	0	0	0	0	550	496	1021	0	0	0	
5	0	0	0	0	544	492	1021	0	0	0	
6	0	0	0	0	540	489	1020	0	0	0	
7	0	0	0	0	536	486	1021	0	0	0	
8	0	0	0	0	534	484	1021	0	0	0	
9	0	0	0	0	532	484	1021	0	0	0	
10	0	0	0	0	532	485	1021	0	0	0	
11	0	0	0	0	534	487	1021	0	0	0	
12	0	0	0	0	537	489	1021	0	0	0	
13	0	0	0	0	540	493	1021	0	0	0	
14	0	0	0	0	544	497	1021	0	0	0	
15	0	0	0	0	548	500	1021	0	0	0	
0	0	0	0	0	553	504	1021	0	0	0	
1	0	0	0	0	556	506	1021	0	0	0	
2	0	0	0	0	560	508	1021	0	0	0	
3	0	0	0	0	561	507	1021	0	0	0	
4	0	0	0	0	561	505	1021	0	0	0	
5	0	0	0	0	559	502	1020	0	0	0	
6	0	0	0	0	556	498	1020	0	0	0	
7	0	0	0	0	553	493	1021	0	0	0	
8	0	0	0	0	549	489	1021	0	0	0	
9	0	0	0	0	545	484	1021	0	0	0	
10	0	0	0	0	541	480	1021	0	0	0	
11	0	0	0	0	537	478	1021	0	0	0	
12	0	0	0	0	535	477	1021	0	0	0	
13	0	0	0	0	534	477	1021	0	0	0	
14	0	0	0	0	534	479	1021	0	0	0	
15	0	0	0	0	536	482	1021	0	0	0	
0	0	0	0	0	538	486	1020	0	0	0	
1	0	0	0	0	542	490	1021	0	0	0	
2	0	0	0	0	545	494	1021	0	0	0	
3	0	0	0	0	549	498	1021	0	0	0	
4	0	0	0	0	551	502	1020	0	0	0	
5	0	0	0	0	553	504	1020	0	0	0	
6	0	0	0	0	555	505	1021	0	0	0	
7	0	0	0	0	556	505	1021	0	0	0	
8	0	0	0	0	555	504	1021	0	0	0	
9	0	0	0	0	553	502	1020	0	0	0	
10	0	0	0	0	551	500	1020	0	0	0	
11	0	0	0	0	551	497	1021	0	0	0	
12	0	0	0	0	548	494	1021	0	0	0	
13	0	0	0	0	547	492	1021	0	0	0	
14	0	0	0	0	545	489	1021	0	0	0	
15	0	0	0	0	544	488	1021	0	0	0	
0	0	0	0	0	544	487	1021	0	0	0	
1	0	0	0	0	545	488	1021	0	0	0	
2	0	0	0	0	547	491	1021	0	0	0	
3	0	0	0	0	550	494	1020	0	0	0	
4	0	0	0	0	553	499	1020	0	0	0	
5	0	0	0	0	559	504	1021	0	0	0	
6	0	0	0	0	563	509	1021	0	0	0	
7	0	0	0	0	568	513	1021	0	0	0	
8	0	0	0	0	572	517	1021	0	0	0	
9	0	0	0	0	574	519	1021	0	0	0	
10	0	0	0	0	575	520	1021	0	0	0	
11	0	0	0	0	574	519	1021	0	0	0	
12	0	0	0	0	570	516	1021	0	0	0	
13	0	0	0	0	566	512	1020	0	0	0	
14	0	0	0	0	560	508	1021	0	0	0	
15	0	0	0	0	555	502	1021	0	0	0	
0	0	0	0	0	550	498	1021	0	0	0	
1	0	0	0	0	546	495	1021	0	0	0	
2	0	0	0	0	542	492	1020	0	0	0	
3	0	0	0	0	540	492	1020	0	0	0	
4	0	0	0	0	540	492	1021	0	0	0	
5	0	0	0	0	541	493	1021	0	0	0	
6	0	0	0	0	543	496	1021	0	0	0	
7	0	0	0	0	545	499	1021	0	0	0	
8	0	0	0	0	550	502	1021	0	0	0	
9	0	0	0	0	552	505	1021	0	0	0	
10	0	0	0	0	555	508	1021	0	0	0	
11	0	0	0	0	556	509	1021	0	0	0	
12	0	0	0	0	557	509	1020	0	0	0	
13	0	0	0	0	557	509	1021	0	0	0	
14	0	0	0	0	556	507	1021	0	0	0	
15	0	0	0	0	553	504	1021	0	0	0	
0	0	0	0	0	550	499	1021	0	0	0	
1	0	0	0	0	545	495	1021	0	0	0	
2	0	0	0	0	542	490	1021	0	0	0	
3	0	0	0	0	539	486	1021	0	0	0	
4	0	0	0	0	536	483	1021	0	0	0	
5	0	0	0	0	534	481	1021	0	0	0	
6	0	0	0	0	534	481	1020	0	0	0	
7	0	0	0	0	535	482	1020	0	0	0	
8	0	0	0	0	539	484	1021	0	0	0	
9	0	0	0	0	543	488	1021	0	0	0	
10	0	0	0	0	549	494	1021	0	0	0	
11	0	0	0	0	556	500	1021	0	0	0	
12	0	0	0	0	562	507	1020	0	0	0	
13	0	0	0	0	570	513	1021	0	0	0	
14	0	0	0	0	576	519	1021	0	0	0	
15	0	0	0	0	582	524	1021	0	0	0	
0	0	0	0	0	585	527	1021	0	0	0	
1	0	0	0	0	587	529	1021	0	0	0	
2	0	0	0	0	586	529	1021	0	0	0	
3	0	0	0	0	583	527	1021	0	0	0	
4	0	0	0	0	578	522	1021	0	0	0	
5	0	0	0	0	571	516	1020	0	0	0	
6	0	0	0	0	562	509	1020	0	0	0	
7	0	0	0	0	554	501	1021	0	0	0	
8	0	0	0	0	546	494	1021	0	0	0	
9	0	0	0	0	539	487	1021	0	0	0	
10	0	0	0	0	533	481	1021	0	0	0	
11	0	0	0	0	529	478	1021	0	0	0	
12	0	0	0	0	528	476	1021	0	0	0	
13	0	0	0	0	529	476	1021	0	0	0	
14	0	0	0	0	531	479	1021	0	0	0	
15	0	0	0	0	536	483	1021	0	0	0	
0	0	0	0	0	542	487	1021	0	0	0	
1	0	0	0	0	548	494	1021	0	0	0	
2	0	0	0	0	555	499	1021	0	0	0	
3	0	0	0	0	560	505	1021	0	0	0	
4	0	0	0	0	564	510	1021	0	0	0	
5	0	0	0	0	568	513	1021	0	0	0	
6	0	0	0	0	569	515	1021	0	0	0	
7	0	0	0	0	567	514	1021	0	0	0	
8	0	0	0	0	564	512	1021	0	0	0	
9	0	0	0	0	559	508	1021	0	0	0	
10	0	0	0	0	554	503	1021	0	0	0	
11	0	0	0	0	548	498	1021	0	0	0	
12	0	0	0	0	543	493	1021	0	0	0	
13	0	0	0	0	539	489	1021	0	0	0	
14	0	0	0	0	536	486	1021	0	0	0	
15	0	0	0	0	536	484	1021	0	0	0	
0	0	0	0	0	537	484	1021	0	0	0	
1	0	0	0	0	540	486	1021	0	0	0	
2	0	0	0	0	545	489	1021	0	0	0	
3	0	0	0	0	551	495	1021	0	0	0	
4	0	0	0	0	557	500	1021	0	0	0	
5	0	0	0	0	564	506	1021	0	0	0	
6	0	0	0	0	570	511	1021	0	0	0	
7	0	0	0	0	575	516	1021	0	0	0	
8	0	0	0	0	577	519	1021	0	0	0	
9	0	0	0	0	579	521	1021	0	0	0	
10	0	0	0	0	579	521	1021	0	0	0	
11	0	0	0	0	576	519	1021	0	0	0	
12	0	0	0	0	572	516	1021	0	0	0	
13	0	0	0	0	566	511	1021	0	0	0	
14	0	0	0	0	560	505	1021	0	0	0	
15	0	0	0	0	553	500	1021	0	0	0	
0	0	0	0	0	547	494	1021	0	0	0	
1	0	0	0	0	541	490	1021	0	0	0	
2	0	0	0	0	536	487	1021	0	0	0	
3	0	0	0	0	534	484	1021	0	0	0	
4	0	0	0	0	534	485	1021	0	0	0	
5	0	0	0	0	535	487	1021	0	0	0	
6	0	0	0	0	538	491	1021	0	0	0	
7	0	0	0	0	543	495	1021	0	0	0	
8	0	0	0	0	548	499	1021	0	0	0	
9	0	0	0	0	553	504	1021	0	0	0	
10	0	0	0	0	558	508	1021	0	0	0	
11	0	0	0	0	562	512	1021	0	0	0	
12	0	0	0	0	564	513	1021	0	0	0	
13	0	0	0	0	566	515	1021	0	0	0	
14	0	0	0	0	565	513	1021	0	0	0	
15	0	0	0	0	562	511	1021	0	0	0	
0	0	0	0	0	559	507	1021	0	0	0	
1	0	0	0	0	553	502	1020	0	0	0	
2	0	0	0	0	549	498	1021	0	0	0	
3	0	0	0	0	544	493	1021	0	0	0	
4	0	0	0	0	541	489	1021	0	0	0	
5	0	0	0	0	537	486	1021	0	0	0	
6	0	0	0	0	535	484	1020	0	0	0	
7	0	0	0	0	534	483	1021	0	0	0	
8	0	0	0	0	536	484	1021	0	0	0	
9	0	0	0	0	539	487	1021	0	0	0	
10	0	0	0	0	542	491	1021	0	0	0	
11	0	0	0	0	548	496	1021	0	0	0	
12	0	0	0	0	553	502	1021	0	0	0	
13	0	0	0	0	560	507	1021	0	0	0	
14	0	0	0	0	566	513	1021	0	0	0	
15	0	0	0	0	571	518	1021	0	0	0	
0	0	0	0	0	575	521	1021	0	0	0	
1	0	0	0	0	578	524	1020	0	0	0	
2	0	0	0	0	579	524	1021	0	0	0	
3	0	0	0	0	578	523	1021	0	0	0	
4	0	0	0	0	576	520	1021	0	0	0	
5	0	0	0	0	572	516	1020	0	0	0	
6	0	0	0	0	565	511	1020	0	0	0	
7	0	0	0	0	559	504	1021	0	0	0	
8	0	0	0	0	552	499	1021	0	0	0	
9	0	0	0	0	546	493	1021	0	0	0	
10	0	0	0	0	540	487	1021	0	0	0	
11	0	0	0	0	536	484	1021	0	0	0	
12	0	0	0	0	534	483	1021	0	0	0	
13	0	0	0	0	533	483	1021	0	0	0	
14	0	0	0	0	534	485	1021	0	0	0	
15	0	0	0	0	537	489	1021	0	0	0	
0	0	0	0	0	541	493	1021	0	0	0	
1	0	0	0	0	546	497	1021	0	0	0	
2	0	0	0	0	550	502	1021	0	0	0	
3	0	0	0	0	553	504	1021	0	0	0	
4	0	0	0	0	556	507	1020	0	0	0	
5	0	0	0	0	556	507	1020	0	0	0	
6	0	0	0	0	557	507	1021	0	0	0	
7	0	0	0	0	555	504	1021	0	0	0	
8	0	0	0	0	552	501	1021	0	0	0	
9	0	0	0	0	549	496	1020	0	0	0	
10	0	0	0	0	545	491	1021	0	0	0	
11	0	0	0	0	540	486	1021	0	0	0	
12	0	0	0	0	536	481	1021	0	0	0	
13	0	0	0	0	531	476	1021	0	0	0	
14	0	0	0	0	527	472	1021	0	0	0	
15	0	0	0	0	524	470	1021	0	0	0	
0	0	0	0	0	524	470	1021	0	0	0	
1	0	0	0	0	525	470	1021	0	0	0	
2	0	0	0	0	527	473	1021	0	0	0	
3	0	0	0	0	532	478	1021	0	0	0	
4	0	0	0	0	536	483	1021	0	0	0	
5	0	0	0	0	543	489	1021	0	0	0	
6	0	0	0	0	549	496	1021	0	0	0	
7	0	0	0	0	555	502	1021	0	0	0	
8	0	0	0	0	560	507	1021	0	0	0	
9	0	0	0	0	564	511	1020	0	0	0	
10	0	0	0	0	568	514	1021	0	0	0	
11	0	0	0	0	569	515	1021	0	0	0	
12	0	0	0	0	568	515	1021	0	0	0	
13	0	0	0	0	566	512	1021	0	0	0	
14	0	0	0	0	563	508	1021	0	0	0	
15	0	0	0	0	558	503	1021	0	0	0	
0	0	0	0	0	552	498	1021	0	0	0	
1	0	0	0	0	547	493	1021	0	0	0	
2	0	0	0	0	542	489	1020	0	0	0	
3	0	0	0	0	539	485	1020	0	0	0	
4	0	0	0	0	537	483	1021	0	0	0	
5	0	0	0	0	536	483	1021	0	0	0	
6	0	0	0	0	537	483	1021	0	0	0	
7	0	0	0	0	540	486	1021	0	0	0	
8	0	0	0	0	543	490	1021	0	0	0	
9	0	0	0	0	548	495	1021	0	0	0	
10	0	0	0	0	553	500	1021	0	0	0	
11	0	0	0	0	559	506	1021	0	0	0	
12	0	0	0	0	563	511	1020	0	0	0	
13	0	0	0	0	568	516	1020	0	0	0	
14	0	0	0	0	572	519	1021	0	0	0	
15	0	0	0	0	573	520	1021	0	0	0	
0	0	0	0	0	573	520	1021	0	0	0	
1	0	0	0	0	572	519	1021	0	0	0	
2	0	0	0	0	569	516	1021	0	0	0	
3	0	0	0	0	566	513	1021	0	0	0	
4	0	0	0	0	563	510	1021	0	0	0	
5	0	0	0	0	560	506	1021	0	0	0	
6	0	0	0	0	556	503	1021	0	0	0	
7	0	0	0	0	555	501	1020	0	0	0	
8	0	0	0	0	555	499	1021	0	0	0	
9	0	0	0	0	555	500	1021	0	0	0	
10	0	0	0	0	557	502	1021	0	0	0	
11	0	0	0	0	560	506	1021	0	0	0	
12	0	0	0	0	564	510	1020	0	0	0	
13	0	0	0	0	570	515	1021	0	0	0	
14	0	0	0	0	575	520	1021	0	0	0	
15	0	0	0	0	580	525	1021	0	0	0	
0	0	0	0	0	583	529	1021	0	0	0	
1	0	0	0	0	587	531	1021	0	0	0	
2	0	0	0	0	588	533	1021	0	0	0	
3	0	0	0	0	587	532	1021	0	0	0	
4	0	0	0	0	584	529	1021	0	0	0	
5	0	0	0	0	580	526	1021	0	0	0	
6	0	0	0	0	575	521	1021	0	0	0	
7	0	0	0	0	568	514	1021	0	0	0	
8	0	0	0	0	561	508	1021	0	0	0	
9	0	0	0	0	555	501	1021	0	0	0	
10	0	0	0	0	547	495	1021	0	0	0	
11	0	0	0	0	543	491	1021	0	0	0	
12	0	0	0	0	539	487	1021	0	0	0	
13	0	0	0	0	537	487	1021	0	0	0	
14	0	0	0	0	538	489	1021	0	0	0	
15	0	0	0	0	540	492	1021	0	0	0	
0	0	0	0	0	545	497	1021	0	0	0	
1	0	0	0	0	550	504	1021	0	0	0	
2	0	0	0	0	556	510	1021	0	0	0	
3	0	0	0	0	563	516	1021	0	0	0	
4	0	0	0	0	569	522	1021	0	0	0	
5	0	0	0	0	574	527	1021	0	0	0	
6	0	0	0	0	578	529	1021	0	0	0	
7	0	0	0	0	580	531	1021	0	0	0	
8	0	0	0	0	580	530	1021	0	0	0	
9	0	0	0	0	578	528	1021	0	0	0	
10	0	0	0	0	576	524	1021	0	0	0	
11	0	0	0	0	572	520	1021	0	0	0	
12	0	0	0	0	568	515	1021	0	0	0	
13	0	0	0	0	564	510	1021	0	0	0	
14	0	0	0	0	560	507	1021	0	0	0	
15	0	0	0	0	558	504	1021	0	0	0	
0	0	0	0	0	557	504	1021	0	0	0	
1	0	0	0	0	558	505	1021	0	0	0	
2	0	0	0	0	560	508	1021	0	0	0	
3	0	0	0	0	564	512	1020	0	0	0	
4	0	0	0	0	569	518	1021	0	0	0	
5	0	0	0	0	575	523	1021	0	0	0	
6	0	0	0	0	579	528	1021	0	0	0	
7	0	0	0	0	583	531	1021	0	0	0	
8	0	0	0	0	583	532	1020	0	0	0	
9	0	0	0	0	582	531	1021	0	0	0	
10	0	0	0	0	576	525	1021	0	0	0	
11	0	0	0	0	568	518	1021	0	0	0	
12	0	0	0	0	556	507	1021	0	0	0	
13	0	0	0	0	542	494	1020	0	0	0	
14	0	0	0	0	526	480	1020	0	0	0	
15	0	0	0	0	510	465	1021	0	0	0	
0	0	0	0	0	495	451	1021	0	0	0	
1	0	0	0	0	479	436	1021	0	0	0	
2	0	0	0	0	465	424	1020	0	0	0	
3	0	0	0	0	454	414	1020	0	0	0	
4	0	0	0	0	445	404	1021	0	0	0	
5	0	0	0	0	437	396	1021	0	0	0	
6	0	0	0	0	432	390	1021	0	0	0	
7	0	0	0	0	427	385	1021	0	0	0	
8	0	0	0	0	423	380	1021	0	0	0	
9	0	0	0	0	420	375	1021	0	0	0	
10	0	0	0	0	416	370	1021	0	0	0	
11	0	0	0	0	412	364	1021	0	0	0	
12	0	0	0	0	405	357	1020	0	0	0	
13	0	0	0	0	397	348	1020	0	0	0	
14	0	0	0	0	388	338	1021	0	0	0	
15	0	0	0	0	377	327	1021	0	0	0	
0	0	0	0	0	366	316	1021	0	0	0	
1	0	0	0	0	355	304	1021	0	0	0	
2	0	0	0	0	346	295	1021	0	0	0	
3	0	0	0	0	340	290	1021	0	0	0	
4	0	0	0	0	337	287	1021	0	0	0	
5	0	0	0	0	338	288	1021	0	0	0	
6	0	0	0	0	345	295	1021	0	0	0	
7	0	0	0	0	358	305	1020	0	0	0	
8	0	0	0	0	376	322	1021	0	0	0	
9	0	0	0	0	400	343	1021	0	0	0	
10	0	0	0	0	428	368	1021	0	0	0	
11	0	0	0	0	458	395	1021	0	0	0	
12	0	0	0	0	489	423	1020	0	0	0	
13	0	0	0	0	521	451	1021	0	0	0	
14	0	0	0	0	549	476	1021	0	0	0	
15	0	0	0	0	573	498	1021	0	0	0	
0	0	0	0	0	593	517	1021	0	0	0	
1	0	0	0	0	606	531	1020	0	0	0	
2	0	0	0	0	615	541	1021	0	0	0	
3	0	0	0	0	617	546	1021	0	0	0	
4	0	0	0	0	615	547	1021	0	0	0	
5	0	0	0	0	609	544	1020	0	0	0	
6	0	0	0	0	600	540	1020	0	0	0	
7	0	0	0	0	590	533	1021	0	0	0	
8	0	0	0	0	579	526	1021	0	0	0	
9	0	0	0	0	568	519	1021	0	0	0	
10	0	0	0	0	559	513	1021	0	0	0	
11	0	0	0	0	553	509	1021	0	0	0	
12	0	0	0	0	551	508	1021	0	0	0	
13	0	0	0	0	551	510	1021	0	0	0	
14	0	0	0	0	556	513	1021	0	0	0	
15	0	0	0	0	563	519	1021	0	0	0	
0	0	0	0	0	572	527	1020	0	0	0	
1	0	0	0	0	583	535	1021	0	0	0	
2	0	0	0	0	592	543	1021	0	0	0	
3	0	0	0	0	602	550	1021	0	0	0	
4	0	0	0	0	609	556	1020	0	0	0	
5	0	0	0	0	614	560	1020	0	0	0	
6	0	0	0	0	616	562	1021	0	0	0	
7	0	0	0	0	615	561	1021	0	0	0	
8	0	0	0	0	611	557	1021	0	0	0	
9	0	0	0	0	604	551	1020	0	0	0	
10	0	0	0	0	598	545	1021	0	0	0	
11	0	0	0	0	589	538	1021	0	0	0	
12	0	0	0	0	580	531	1021	0	0	0	
13	0	0	0	0	572	524	1021	0	0	0	
14	0	0	0	0	566	519	1020	0	0	0	
15	0	0	0	0	561	515	1020	0	0	0	
0	0	0	0	0	560	514	1021	0	0	0	
1	0	0	0	0	560	514	1021	0	0	0	
2	0	0	0	0	563	516	1021	0	0	0	
3	0	0	0	0	566	519	1021	0	0	0	
4	0	0	0	0	570	523	1020	0	0	0	
5	0	0	0	0	575	527	1021	0	0	0	
6	0	0	0	0	579	530	1021	0	0	0	
7	0	0	0	0	583	533	1021	0	0	0	
8	0	0	0	0	584	536	1020	0	0	0	
9	0	0	0	0	586	536	1021	0	0	0	
10	0	0	0	0	585	536	1021	0	0	0	
11	0	0	0	0	583	534	1021	0	0	0	
12	0	0	0	0	579	531	1021	0	0	0	
13	0	0	0	0	575	527	1021	0	0	0	
14	0	0	0	0	571	523	1021	0	0	0	
15	0	0	0	0	566	519	1021	0	0	0	
0	0	0	0	0	562	515	1021	0	0	0	
1	0	0	0	0	559	512	1021	0	0	0	
2	0	0	0	0	556	510	1021	0	0	0	
3	0	0	0	0	556	510	1020	0	0	0	
4	0	0	0	0	559	511	1021	0	0	0	
5	0	0	0	0	563	513	1021	0	0	0	
6	0	0	0	0	568	518	1021	0	0	0	
7	0	0	0	0	573	522	1021	0	0	0	
8	0	0	0	0	579	528	1020	0	0	0	
9	0	0	0	0	586	533	1021	0	0	0	
10	0	0	0	0	591	537	1021	0	0	0	
11	0	0	0	0	594	541	1021	0	0	0	
12	0	0	0	0	595	543	1021	0	0	0	
13	0	0	0	0	596	544	1020	0	0	0	
14	0	0	0	0	595	543	1021	0	0	0	
15	0	0	0	0	591	540	1021	0	0	0	
0	0	0	0	0	586	536	1021	0	0	0	
1	0	0	0	0	580	531	1021	0	0	0	
2	0	0	0	0	574	525	1020	0	0	0	
3	0	0	0	0	568	519	1021	0	0	0	
4	0	0	0	0	563	514	1021	0	0	0	
5	0	0	0	0	560	510	1021	0	0	0	
6	0	0	0	0	558	507	1020	0	0	0	
7	0	0	0	0	558	507	1021	0	0	0	
8	0	0	0	0	560	508	1021	0	0	0	
9	0	0	0	0	565	512	1021	0	0	0	
10	0	0	0	0	572	517	1021	0	0	0	
11	0	0	0	0	579	524	1020	0	0	0	
12	0	0	0	0	587	531	1020	0	0	0	
13	0	0	0	0	595	539	1021	0	0	0	
14	0	0	0	0	602	546	1021	0	0	0	
15	0	0	0	0	607	551	1021	0	0	0	
0	0	0	0	0	609	554	1021	0	0	0	
1	0	0	0	0	609	555	1021	0	0	0	
2	0	0	0	0	606	552	1021	0	0	0	
3	0	0	0	0	600	548	1021	0	0	0	
4	0	0	0	0	592	542	1021	0	0	0	
5	0	0	0	0	583	534	1021	0	0	0	
6	0	0	0	0	573	525	1021	0	0	0	
7	0	0	0	0	563	517	1021	0	0	0	
8	0	0	0	0	553	509	1021	0	0	0	
9	0	0	0	0	545	502	1021	0	0	0	
10	0	0	0	0	538	496	1020	0	0	0	
11	0	0	0	0	534	492	1020	0	0	0	
12	0	0	0	0	533	490	1021	0	0	0	
13	0	0	0	0	534	490	1021	0	0	0	
14	0	0	0	0	537	492	1021	0	0	0	
15	0	0	0	0	543	496	1020	0	0	0	
0	0	0	0	0	550	501	1021	0	0	0	
1	0	0	0	0	557	507	1021	0	0	0	
2	0	0	0	0	564	512	1021	0	0	0	
3	0	0	0	0	571	517	1021	0	0	0	
4	0	0	0	0	575	521	1021	0	0	0	
5	0	0	0	0	579	523	1021	0	0	0	
6	0	0	0	0	580	525	1021	0	0	0	
7	0	0	0	0	580	524	1021	0	0	0	
8	0	0	0	0	577	522	1021	0	0	0	
9	0	0	0	0	574	519	1021	0	0	0	
10	0	0	0	0	569	515	1021	0	0	0	
11	0	0	0	0	564	511	1021	0	0	0	
12	0	0	0	0	560	508	1021	0	0	0	
13	0	0	0	0	556	505	1021	0	0	0	
14	0	0	0	0	554	504	1020	0	0	0	
15	0	0	0	0	553	504	1021	0	0	0	
0	0	0	0	0	554	505	1021	0	0	0	
1	0	0	0	0	557	507	1021	0	0	0	
2	0	0	0	0	560	511	1021	0	0	0	
3	0	0	0	0	564	515	1021	0	0	0	
4	0	0	0	0	568	519	1021	0	0	0	
5	0	0	0	0	572	522	1021	0	0	0	
6	0	0	0	0	574	525	1021	0	0	0	
7	0	0	0	0	575	526	1021	0	0	0	
8	0	0	0	0	574	526	1021	0	0	0	
9	0	0	0	0	572	524	1021	0	0	0	
10	0	0	0	0	568	521	1021	0	0	0	
11	0	0	0	0	563	516	1021	0	0	0	
12	0	0	0	0	557	511	1021	0	0	0	
13	0	0	0	0	550	505	1020	0	0	0	
14	0	0	0	0	543	499	1020	0	0	0	
15	0	0	0	0	539	494	1021	0	0	0	
0	0	0	0	0	534	490	1021	0	0	0	
1	0	0	0	0	531	487	1021	0	0	0	
2	0	0	0	0	530	485	1021	0	0	0	
3	0	0	0	0	531	485	1021	0	0	0	
4	0	0	0	0	534	487	1021	0	0	0	
5	0	0	0	0	538	490	1021	0	0	0	
6	0	0	0	0	543	494	1021	0	0	0	
7	0	0	0	0	550	499	1020	0	0	0	
8	0	0	0	0	556	504	1020	0	0	0	
9	0	0	0	0	561	508	1021	0	0	0	
10	0	0	0	0	565	511	1021	0	0	0	
11	0	0	0	0	568	513	1021	0	0	0	
12	0	0	0	0	569	515	1021	0	0	0	
13	0	0	0	0	568	514	1021	0	0	0	
14	0	0	0	0	566	513	1021	0	0	0	
15	0	0	0	0	562	510	1021	0	0	0	
0	0	0	0	0	557	506	1021	0	0	0	
1	0	0	0	0	551	502	1021	0	0	0	
2	0	0	0	0	546	498	1021	0	0	0	
3	0	0	0	0	541	494	1021	0	0	0	
4	0	0	0	0	537	490	1021	0	0	0	
5	0	0	0	0	534	487	1021	0	0	0	
6	0	0	0	0	532	486	1021	0	0	0	
7	0	0	0	0	533	485	1021	0	0	0	
8	0	0	0	0	535	487	1021	0	0	0	
9	0	0	0	0	538	489	1021	0	0	0	
10	0	0	0	0	543	492	1021	0	0	0	
11	0	0	0	0	547	496	1021	0	0	0	
12	0	0	0	0	552	500	1021	0	0	0	
13	0	0	0	0	557	504	1021	0	0	0	
14	0	0	0	0	561	507	1021	0	0	0	
15	0	0	0	0	564	510	1021	0	0	0	
0	0	0	0	0	566	511	1021	0	0	0	
1	0	0	0	0	566	511	1021	0	0	0	
2	0	0	0	0	566	511	1021	0	0	0	
3	0	0	0	0	563	510	1021	0	0	0	
4	0	0	0	0	560	507	1021	0	0	0	
5	0	0	0	0	556	504	1021	0	0	0	
6	0	0	0	0	551	500	1021	0	0	0	
7	0	0	0	0	547	496	1021	0	0	0	
8	0	0	0	0	542	492	1021	0	0	0	
9	0	0	0	0	538	489	1021	0	0	0	
10	0	0	0	0	535	486	1021	0	0	0	
11	0	0	0	0	534	485	1021	0	0	0	
12	0	0	0	0	535	486	1021	0	0	0	
13	0	0	0	0	537	488	1021	0	0	0	
14	0	0	0	0	540	492	1021	0	0	0	
15	0	0	0	0	545	496	1021	0	0	0	
0	0	0	0	0	550	500	1021	0	0	0	
1	0	0	0	0	555	504	1021	0	0	0	
2	0	0	0	0	558	507	1021	0	0	0	
3	0	0	0	0	560	509	1021	0	0	0	
4	0	0	0	0	560	509	1021	0	0	0	
5	0	0	0	0	560	508	1021	0	0	0	
6	0	0	0	0	557	505	1021	0	0	0	
7	0	0	0	0	552	501	1021	0	0	0	
8	0	0	0	0	547	496	1021	0	0	0	
9	0	0	0	0	542	491	1021	0	0	0	
10	0	0	0	0	537	486	1021	0	0	0	
11	0	0	0	0	533	482	1021	0	0	0	
12	0	0	0	0	530	479	1021	0	0	0	
13	0	0	0	0	528	476	1021	0	0	0	
14	0	0	0	0	527	475	1021	0	0	0	
15	0	0	0	0	528	476	1021	0	0	0	
0	0	0	0	0	531	477	1021	0	0	0	
1	0	0	0	0	535	480	1021	0	0	0	
2	0	0	0	0	539	484	1021	0	0	0	
3	0	0	0	0	544	488	1020	0	0	0	
4	0	0	0	0	549	493	1021	0	0	0	
5	0	0	0	0	553	497	1021	0	0	0	
6	0	0	0	0	557	501	1021	0	0	0	
7	0	0	0	0	560	504	1021	0	0	0	
8	0	0	0	0	560	506	1021	0	0	0	
9	0	0	0	0	561	506	1021	0	0	0	
10	0	0	0	0	559	505	1021	0	0	0	
11	0	0	0	0	556	503	1021	0	0	0	
12	0	0	0	0	552	500	1021	0	0	0	
13	0	0	0	0	547	496	1021	0	0	0	
14	0	0	0	0	542	491	1021	0	0	0	
15	0	0	0	0	537	487	1021	0	0	0	
0	0	0	0	0	532	483	1021	0	0	0	
1	0	0	0	0	529	480	1021	0	0	0	
2	0	0	0	0	527	479	1021	0	0	0	
3	0	0	0	0	527	479	1021	0	0	0	
4	0	0	0	0	529	481	1021	0	0	0	
5	0	0	0	0	532	484	1021	0	0	0	
6	0	0	0	0	537	488	1021	0	0	0	
7	0	0	0	0	542	493	1021	0	0	0	
8	0	0	0	0	548	497	1021	0	0	0	
9	0	0	0	0	553	502	1021	0	0	0	
10	0	0	0	0	557	505	1021	0	0	0	
11	0	0	0	0	560	508	1021	0	0	0	
12	0	0	0	0	560	508	1021	0	0	0	
13	0	0	0	0	559	507	1021	0	0	0	
14	0	0	0	0	555	504	1021	0	0	0	
15	0	0	0	0	550	499	1021	0	0	0	
0	0	0	0	0	543	494	1021	0	0	0	
1	0	0	0	0	536	488	1021	0	0	0	
2	0	0	0	0	527	482	1021	0	0	0	
3	0	0	0	0	521	476	1021	0	0	0	
4	0	0	0	0	516	472	1021	0	0	0	
5	0	0	0	0	513	469	1021	0	0	0	
6	0	0	0	0	511	467	1021	0	0	0	
7	0	0	0	0	512	468	1021	0	0	0	
8	0	0	0	0	515	471	1021	0	0	0	
9	0	0	0	0	521	475	1021	0	0	0	
10	0	0	0	0	529	481	1021	0	0	0	
11	0	0	0	0	537	488	1020	0	0	0	
12	0	0	0	0	547	496	1021	0	0	0	
13	0	0	0	0	556	503	1021	0	0	0	
14	0	0	0	0	564	510	1021	0	0	0	
15	0	0	0	0	570	515	1021	0	0	0	
0	0	0	0	0	574	518	1020	0	0	0	
1	0	0	0	0	576	520	1021	0	0	0	
2	0	0	0	0	576	519	1021	0	0	0	
3	0	0	0	0	573	516	1021	0	0	0	
4	0	0	0	0	567	511	1021	0	0	0	
5	0	0	0	0	559	504	1021	0	0	0	
6	0	0	0	0	549	496	1021	0	0	0	
7	0	0	0	0	539	487	1021	0	0	0	
8	0	0	0	0	528	478	1021	0	0	0	
9	0	0	0	0	519	470	1021	0	0	0	
10	0	0	0	0	511	463	1020	0	0	0	
11	0	0	0	0	504	457	1020	0	0	0	
12	0	0	0	0	501	454	1021	0	0	0	
13	0	0	0	0	501	454	1021	0	0	0	
14	0	0	0	0	503	455	1021	0	0	0	
15	0	0	0	0	508	460	1021	0	0	0	
0	0	0	0	0	514	465	1020	0	0	0	
1	0	0	0	0	523	472	1021	0	0	0	
2	0	0	0	0	531	480	1021	0	0	0	
3	0	0	0	0	540	487	1021	0	0	0	
4	0	0	0	0	547	494	1021	0	0	0	
5	0	0	0	0	553	499	1021	0	0	0	
6	0	0	0	0	558	503	1021	0	0	0	
7	0	0	0	0	561	504	1021	0	0	0	
8	0	0	0	0	561	504	1021	0	0	0	
9	0	0	0	0	558	502	1020	0	0	0	
10	0	0	0	0	555	499	1020	0	0	0	
11	0	0	0	0	551	496	1021	0	0	0	
12	0	0	0	0	546	492	1021	0	0	0	
13	0	0	0	0	542	487	1021	0	0	0	
14	0	0	0	0	537	484	1020	0	0	0	
15	0	0	0	0	534	482	1021	0	0	0	
0	0	0	0	0	533	481	1021	0	0	0	
1	0	0	0	0	533	483	1021	0	0	0	
2	0	0	0	0	535	485	1021	0	0	0	
3	0	0	0	0	538	488	1021	0	0	0	
4	0	0	0	0	542	492	1021	0	0	0	
5	0	0	0	0	547	497	1021	0	0	0	
6	0	0	0	0	551	501	1021	0	0	0	
7	0	0	0	0	555	505	1021	0	0	0	
8	0	0	0	0	558	508	1020	0	0	0	
9	0	0	0	0	559	508	1021	0	0	0	
10	0	0	0	0	558	508	1021	0	0	0	
11	0	0	0	0	556	505	1021	0	0	0	
12	0	0	0	0	551	501	1021	0	0	0	
13	0	0	0	0	547	496	1021	0	0	0	
14	0	0	0	0	541	491	1020	0	0	0	
15	0	0	0	0	537	486	1021	0	0	0	
0	0	0	0	0	532	481	1021	0	0	0	
1	0	0	0	0	528	478	1021	0	0	0	
2	0	0	0	0	526	476	1021	0	0	0	
3	0	0	0	0	525	475	1020	0	0	0	
4	0	0	0	0	526	476	1021	0	0	0	
5	0	0	0	0	529	479	1021	0	0	0	
6	0	0	0	0	533	483	1021	0	0	0	
7	0	0	0	0	538	487	1021	0	0	0	
8	0	0	0	0	543	493	1021	0	0	0	
9	0	0	0	0	548	499	1021	0	0	0	
10	0	0	0	0	552	503	1021	0	0	0	
11	0	0	0	0	556	507	1021	0	0	0	
12	0	0	0	0	557	508	1020	0	0	0	
13	0	0	0	0	556	508	1020	0	0	0	
14	0	0	0	0	555	507	1021	0	0	0	
15	0	0	0	0	551	504	1021	0	0	0	
0	0	0	0	0	547	501	1021	0	0	0	
1	0	0	0	0	542	496	1021	0	0	0	
2	0	0	0	0	536	491	1021	0	0	0	
3	0	0	0	0	532	487	1021	0	0	0	
4	0	0	0	0	528	483	1021	0	0	0	
5	0	0	0	0	526	479	1021	0	0	0	
6	0	0	0	0	524	478	1021	0	0	0	
7	0	0	0	0	524	476	1021	0	0	0	
8	0	0	0	0	525	477	1021	0	0	0	
9	0	0	0	0	528	479	1021	0	0	0	
10	0	0	0	0	531	482	1021	0	0	0	
11	0	0	0	0	536	486	1020	0	0	0	
12	0	0	0	0	540	491	1020	0	0	0	
13	0	0	0	0	545	495	1021	0	0	0	
14	0	0	0	0	550	498	1021	0	0	0	
15	0	0	0	0	553	501	1021	0	0	0	
0	0	0	0	0	556	503	1020	0	0	0	
1	0	0	0	0	556	503	1021	0	0	0	
2	0	0	0	0	556	503	1021	0	0	0	
3	0	0	0	0	554	500	1021	0	0	0	
4	0	0	0	0	551	497	1021	0	0	0	
5	0	0	0	0	547	494	1021	0	0	0	
6	0	0	0	0	543	490	1021	0	0	0	
7	0	0	0	0	539	487	1021	0	0	0	
8	0	0	0	0	535	483	1021	0	0	0	
9	0	0	0	0	532	481	1021	0	0	0	
10	0	0	0	0	531	479	1021	0	0	0	
11	0	0	0	0	529	478	1021	0	0	0	
12	0	0	0	0	530	479	1021	0	0	0	
13	0	0	0	0	531	481	1021	0	0	0	
14	0	0	0	0	533	483	1021	0	0	0	
15	0	0	0	0	536	486	1020	0	0	0	
0	0	0	0	0	540	490	1020	0	0	0	
1	0	0	0	0	544	494	1021	0	0	0	
2	0	0	0	0	547	497	1021	0	0	0	
3	0	0	0	0	550	500	1021	0	0	0	
4	0	0	0	0	551	502	1020	0	0	0	
5	0	0	0	0	551	502	1020	0	0	0	
6	0	0	0	0	550	500	1021	0	0	0	
7	0	0	0	0	547	497	1021	0	0	0	
8	0	0	0	0	544	493	1021	0	0	0	
9	0	0	0	0	540	488	1021	0	0	0	
10	0	0	0	0	535	483	1021	0	0	0	
11	0	0	0	0	530	478	1021	0	0	0	
12	0	0	0	0	526	473	1021	0	0	0	
13	0	0	0	0	523	470	1021	0	0	0	
14	0	0	0	0	520	468	1020	0	0	0	
15	0	0	0	0	519	467	1021	0	0	0	
0	0	0	0	0	521	468	1021	0	0	0	
1	0	0	0	0	524	472	1021	0	0	0	
2	0	0	0	0	528	477	1021	0	0	0	
3	0	0	0	0	534	483	1020	0	0	0	
4	0	0	0	0	540	489	1020	0	0	0	
5	0	0	0	0	546	496	1021	0	0	0	
6	0	0	0	0	551	502	1021	0	0	0	
7	0	0	0	0	555	506	1021	0	0	0	
8	0	0	0	0	556	509	1021	0	0	0	
9	0	0	0	0	556	510	1021	0	0	0	
10	0	0	0	0	554	508	1021	0	0	0	
11	0	0	0	0	549	504	1021	0	0	0	
12	0	0	0	0	543	497	1021	0	0	0	
13	0	0	0	0	535	491	1021	0	0	0	
14	0	0	0	0	527	483	1021	0	0	0	
15	0	0	0	0	520	476	1021	0	0	0	
0	0	0	0	0	513	468	1021	0	0	0	
1	0	0	0	0	508	463	1020	0	0	0	
2	0	0	0	0	504	459	1021	0	0	0	
3	0	0	0	0	503	456	1020	0	0	0	
4	0	0	0	0	505	457	1021	0	0	0	
5	0	0	0	0	508	459	1021	0	0	0	
6	0	0	0	0	513	463	1021	0	0	0	
7	0	0	0	0	519	469	1021	0	0	0	
8	0	0	0	0	527	476	1020	0	0	0	
9	0	0	0	0	536	484	1021	0	0	0	
10	0	0	0	0	543	491	1021	0	0	0	
11	0	0	0	0	550	497	1021	0	0	0	
12	0	0	0	0	555	502	1021	0	0	0	
13	0	0	0	0	557	505	1021	0	0	0	
14	0	0	0	0	558	506	1021	0	0	0	
15	0	0	0	0	557	505	1021	0	0	0	
0	0	0	0	0	553	503	1021	0	0	0	
1	0	0	0	0	548	499	1021	0	0	0	
2	0	0	0	0	542	494	1020	0	0	0	
3	0	0	0	0	536	488	1021	0	0	0	
4	0	0	0	0	530	483	1021	0	0	0	
5	0	0	0	0	524	478	1021	0	0	0	
6	0	0	0	0	519	474	1020	0	0	0	
7	0	0	0	0	516	472	1021	0	0	0	
8	0	0	0	0	516	471	1021	0	0	0	
9	0	0	0	0	518	472	1021	0	0	0	
10	0	0	0	0	520	475	1021	0	0	0	
11	0	0	0	0	524	478	1020	0	0	0	
12	0	0	0	0	528	482	1020	0	0	0	
13	0	0	0	0	534	486	1021	0	0	0	
14	0	0	0	0	539	490	1021	0	0	0	
15	0	0	0	0	543	494	1021	0	0	0	
0	0	0	0	0	546	496	1021	0	0	0	
1	0	0	0	0	548	497	1021	0	0	0	
2	0	0	0	0	550	497	1021	0	0	0	
3	0	0	0	0	549	496	1021	0	0	0	
4	0	0	0	0	547	493	1021	0	0	0	
5	0	0	0	0	543	489	1021	0	0	0	
6	0	0	0	0	540	485	1021	0	0	0	
7	0	0	0	0	535	481	1021	0	0	0	
8	0	0	0	0	530	477	1021	0	0	0	
9	0	0	0	0	526	473	1021	0	0	0	
10	0	0	0	0	523	471	1020	0	0	0	
11	0	0	0	0	519	470	1020	0	0	0	
12	0	0	0	0	519	471	1021	0	0	0	
13	0	0	0	0	520	473	1021	0	0	0	
14	0	0	0	0	523	476	1021	0	0	0	
15	0	0	0	0	526	481	1021	0	0	0	
0	0	0	0	0	531	486	1020	0	0	0	
1	0	0	0	0	536	491	1021	0	0	0	
2	0	0	0	0	541	495	1021	0	0	0	
3	0	0	0	0	545	498	1021	0	0	0	
4	0	0	0	0	548	500	1021	0	0	0	
5	0	0	0	0	550	500	1020	0	0	0	
6	0	0	0	0	549	498	1021	0	0	0	
7	0	0	0	0	547	495	1021	0	0	0	
8	0	0	0	0	544	491	1021	0	0	0	
9	0	0	0	0	539	485	1020	0	0	0	
10	0	0	0	0	534	480	1020	0	0	0	
11	0	0	0	0	529	474	1021	0	0	0	
12	0	0	0	0	524	469	1021	0	0	0	
13	0	0	0	0	520	465	1021	0	0	0	
14	0	0	0	0	517	463	1021	0	0	0	
15	0	0	0	0	517	462	1021	0	0	0	
0	0	0	0	0	517	463	1021	0	0	0	
1	0	0	0	0	519	466	1021	0	0	0	
2	0	0	0	0	524	471	1021	0	0	0	
3	0	0	0	0	528	477	1021	0	0	0	
4	0	0	0	0	534	483	1021	0	0	0	
5	0	0	0	0	540	489	1021	0	0	0	
6	0	0	0	0	544	495	1021	0	0	0	
7	0	0	0	0	548	499	1021	0	0	0	
8	0	0	0	0	551	503	1021	0	0	0	
9	0	0	0	0	552	504	1020	0	0	0	
10	0	0	0	0	552	503	1021	0	0	0	
11	0	0	0	0	549	501	1021	0	0	0	
12	0	0	0	0	545	497	1021	0	0	0	
13	0	0	0	0	540	492	1020	0	0	0	
14	0	0	0	0	534	486	1020	0	0	0	
15	0	0	0	0	530	481	1021	0	0	0	
0	0	0	0	0	526	476	1021	0	0	0	
1	0	0	0	0	523	472	1021	0	0	0	
2	0	0	0	0	520	470	1020	0	0	0	
3	0	0	0	0	521	470	1020	0	0	0	
4	0	0	0	0	523	471	1021	0	0	0	
5	0	0	0	0	525	473	1021	0	0	0	
6	0	0	0	0	529	476	1021	0	0	0	
7	0	0	0	0	532	480	1021	0	0	0	
8	0	0	0	0	536	483	1021	0	0	0	
9	0	0	0	0	539	487	1021	0	0	0	
10	0	0	0	0	540	489	1021	0	0	0	
11	0	0	0	0	540	491	1021	0	0	0	
12	0	0	0	0	539	491	1020	0	0	0	
13	0	0	0	0	535	488	1020	0	0	0	
14	0	0	0	0	531	485	1021	0	0	0	
15	0	0	0	0	526	481	1021	0	0	0	
0	0	0	0	0	521	476	1021	0	0	0	
1	0	0	0	0	515	470	1021	0	0	0	
2	0	0	0	0	510	465	1021	0	0	0	
3	0	0	0	0	506	460	1021	0	0	0	
4	0	0	0	0	503	456	1021	0	0	0	
5	0	0	0	0	502	454	1021	0	0	0	
6	0	0	0	0	503	454	1020	0	0	0	
7	0	0	0	0	505	454	1021	0	0	0	
8	0	0	0	0	509	455	1021	0	0	0	
9	0	0	0	0	514	459	1021	0	0	0	
10	0	0	0	0	520	463	1021	0	0	0	
11	0	0	0	0	527	469	1020	0	0	0	
12	0	0	0	0	532	475	1020	0	0	0	
13	0	0	0	0	539	480	1021	0	0	0	
14	0	0	0	0	543	484	1021	0	0	0	
15	0	0	0	0	545	488	1021	0	0	0	
0	0	0	0	0	547	490	1020	0	0	0	
1	0	0	0	0	546	491	1021	0	0	0	
2	0	0	0	0	544	490	1021	0	0	0	
3	0	0	0	0	541	487	1021	0	0	0	
4	0	0	0	0	537	483	1021	0	0	0	
5	0	0	0	0	531	479	1021	0	0	0	
6	0	0	0	0	526	474	1021	0	0	0	
7	0	0	0	0	520	469	1021	0	0	0	
8	0	0	0	0	515	464	1021	0	0	0	
9	0	0	0	0	510	460	1021	0	0	0	
10	0	0	0	0	507	456	1021	0	0	0	
11	0	0	0	0	504	454	1020	0	0	0	
12	0	0	0	0	504	454	1021	0	0	0	
13	0	0	0	0	505	455	1021	0	0	0	
14	0	0	0	0	508	457	1021	0	0	0	
15	0	0	0	0	512	460	1020	0	0	0	
0	0	0	0	0	517	465	1021	0	0	0	
1	0	0	0	0	523	470	1021	0	0	0	
2	0	0	0	0	528	475	1021	0	0	0	
3	0	0	0	0	534	480	1021	0	0	0	
4	0	0	0	0	539	483	1021	0	0	0	
5	0	0	0	0	542	486	1021	0	0	0	
6	0	0	0	0	543	487	1021	0	0	0	
7	0	0	0	0	542	486	1021	0	0	0	
8	0	0	0	0	540	484	1021	0	0	0	
9	0	0	0	0	536	481	1020	0	0	0	
10	0	0	0	0	529	476	1020	0	0	0	
11	0	0	0	0	524	471	1021	0	0	0	
12	0	0	0	0	518	466	1021	0	0	0	
13	0	0	0	0	512	462	1021	0	0	0	
14	0	0	0	0	507	457	1021	0	0	0	
15	0	0	0	0	505	455	1021	0	0	0	
0	0	0	0	0	503	454	1021	0	0	0	
1	0	0	0	0	504	454	1021	0	0	0	
2	0	0	0	0	506	456	1021	0	0	0	
3	0	0	0	0	509	460	1021	0	0	0	
4	0	0	0	0	514	464	1021	0	0	0	
5	0	0	0	0	519	468	1021	0	0	0	
6	0	0	0	0	524	473	1021	0	0	0	
7	0	0	0	0	529	477	1021	0	0	0	
8	0	0	0	0	532	480	1021	0	0	0	
9	0	0	0	0	535	481	1021	0	0	0	
10	0	0	0	0	535	481	1021	0	0	0	
11	0	0	0	0	534	480	1021	0	0	0	
12	0	0	0	0	531	477	1021	0	0	0	
13	0	0	0	0	527	472	1021	0	0	0	
14	0	0	0	0	523	468	1021	0	0	0	
15	0	0	0	0	518	463	1021	0	0	0	
0	0	0	0	0	513	459	1021	0	0	0	
1	0	0	0	0	509	455	1021	0	0	0	
2	0	0	0	0	505	452	1020	0	0	0	
3	0	0	0	0	505	453	1021	0	0	0	
4	0	0	0	0	505	454	1021	0	0	0	
5	0	0	0	0	508	458	1021	0	0	0	
6	0	0	0	0	512	463	1021	0	0	0	
7	0	0	0	0	518	468	1021	0	0	0	
8	0	0	0	0	526	475	1021	0	0	0	
9	0	0	0	0	532	482	1021	0	0	0	
10	0	0	0	0	540	488	1021	0	0	0	
11	0	0	0	0	546	494	1021	0	0	0	
12	0	0	0	0	551	498	1021	0	0	0	
13	0	0	0	0	555	501	1021	0	0	0	
14	0	0	0	0	556	502	1021	0	0	0	
15	0	0	0	0	556	501	1021	0	0	0	
0	0	0	0	0	552	498	1021	0	0	0	
1	0	0	0	0	547	493	1021	0	0	0	
2	0	0	0	0	541	487	1021	0	0	0	
3	0	0	0	0	533	481	1021	0	0	0	
4	0	0	0	0	525	474	1021	0	0	0	
5	0	0	0	0	517	467	1021	0	0	0	
6	0	0	0	0	509	461	1021	0	0	0	
7	0	0	0	0	504	456	1021	0	0	0	
8	0	0	0	0	500	453	1021	0	0	0	
9	0	0	0	0	499	452	1021	0	0	0	
10	0	0	0	0	499	452	1021	0	0	0	
11	0	0	0	0	501	455	1021	0	0	0	
12	0	0	0	0	505	457	1021	0	0	0	
13	0	0	0	0	510	462	1021	0	0	0	
14	0	0	0	0	514	465	1021	0	0	0	
15	0	0	0	0	519	469	1021	0	0	0	
0	0	0	0	0	522	472	1021	0	0	0	
1	0	0	0	0	524	473	1021	0	0	0	
2	0	0	0	0	524	473	1021	0	0	0	
3	0	0	0	0	523	471	1021	0	0	0	
4	0	0	0	0	520	468	1021	0	0	0	
5	0	0	0	0	516	464	1021	0	0	0	
6	0	0	0	0	512	459	1021	0	0	0	
7	0	0	0	0	507	454	1021	0	0	0	
8	0	0	0	0	503	449	1021	0	0	0	
9	0	0	0	0	499	446	1021	0	0	0	
10	0	0	0	0	496	443	1021	0	0	0	
11	0	0	0	0	495	442	1021	0	0	0	
12	0	0	0	0	496	443	1021	0	0	0	
13	0	0	0	0	498	446	1021	0	0	0	
14	0	0	0	0	502	450	1021	0	0	0	
15	0	0	0	0	508	455	1021	0	0	0	
0	0	0	0	0	513	462	1021	0	0	0	
1	0	0	0	0	519	467	1021	0	0	0	
2	0	0	0	0	524	472	1021	0	0	0	
3	0	0	0	0	528	476	1021	0	0	0	
4	0	0	0	0	530	479	1021	0	0	0	
5	0	0	0	0	532	480	1021	0	0	0	
6	0	0	0	0	531	479	1021	0	0	0	
7	0	0	0	0	529	476	1021	0	0	0	
8	0	0	0	0	525	473	1021	0	0	0	
9	0	0	0	0	520	468	1021	0	0	0	
10	0	0	0	0	515	463	1021	0	0	0	
11	0	0	0	0	510	458	1021	0	0	0	
12	0	0	0	0	505	453	1021	0	0	0	
13	0	0	0	0	501	449	1021	0	0	0	
14	0	0	0	0	497	446	1021	0	0	0	
15	0	0	0	0	496	444	1021	0	0	0	
0	0	0	0	0	496	444	1021	0	0	0	
1	0	0	0	0	497	446	1021	0	0	0	
2	0	0	0	0	501	449	1021	0	0	0	
3	0	0	0	0	505	454	1021	0	0	0	
4	0	0	0	0	511	459	1021	0	0	0	
5	0	0	0	0	517	465	1021	0	0	0	
6	0	0	0	0	523	471	1021	0	0	0	
7	0	0	0	0	528	476	1021	0	0	0	
8	0	0	0	0	533	481	1021	0	0	0	
9	0	0	0	0	536	483	1021	0	0	0	
10	0	0	0	0	537	484	1021	0	0	0	
11	0	0	0	0	536	483	1021	0	0	0	
12	0	0	0	0	535	481	1021	0	0	0	
13	0	0	0	0	531	478	1021	0	0	0	
14	0	0	0	0	527	473	1021	0	0	0	
15	0	0	0	0	523	468	1021	0	0	0	
0	0	0	0	0	518	463	1021	0	0	0	
1	0	0	0	0	514	459	1021	0	0	0	
2	0	0	0	0	511	455	1021	0	0	0	
3	0	0	0	0	508	454	1020	0	0	0	
4	0	0	0	0	509	454	1021	0	0	0	
5	0	0	0	0	510	455	1021	0	0	0	
6	0	0	0	0	514	459	1021	0	0	0	
7	0	0	0	0	518	464	1020	0	0	0	
8	0	0	0	0	523	469	1021	0	0	0	
9	0	0	0	0	527	474	1021	0	0	0	
10	0	0	0	0	531	480	1021	0	0	0	
11	0	0	0	0	535	484	1021	0	0	0	
12	0	0	0	0	537	487	1021	0	0	0	
13	0	0	0	0	538	488	1021	0	0	0	
14	0	0	0	0	537	488	1021	0	0	0	
15	0	0	0	0	535	486	1021	0	0	0	
0	0	0	0	0	533	484	1021	0	0	0	
1	0	0	0	0	529	480	1021	0	0	0	
2	0	0	0	0	524	476	1021	0	0	0	
3	0	0	0	0	520	472	1021	0	0	0	
4	0	0	0	0	516	467	1021	0	0	0	
5	0	0	0	0	513	464	1020	0	0	0	
6	0	0	0	0	511	461	1021	0	0	0	
7	0	0	0	0	510	460	1021	0	0	0	
8	0	0	0	0	511	460	1021	0	0	0	
9	0	0	0	0	514	463	1021	0	0	0	
10	0	0	0	0	517	467	1021	0	0	0	
11	0	0	0	0	522	471	1020	0	0	0	
12	0	0	0	0	527	476	1020	0	0	0	
13	0	0	0	0	532	481	1021	0	0	0	
14	0	0	0	0	537	486	1021	0	0	0	
15	0	0	0	0	540	489	1021	0	0	0	
0	0	0	0	0	542	491	1021	0	0	0	
1	0	0	0	0	542	492	1021	0	0	0	
2	0	0	0	0	541	491	1021	0	0	0	
3	0	0	0	0	538	488	1021	0	0	0	
4	0	0	0	0	534	484	1021	0	0	0	
5	0	0	0	0	529	480	1021	0	0	0	
6	0	0	0	0	525	476	1021	0	0	0	
7	0	0	0	0	520	471	1021	0	0	0	
8	0	0	0	0	517	467	1021	0	0	0	
9	0	0	0	0	513	463	1021	0	0	0	
10	0	0	0	0	512	460	1020	0	0	0	
11	0	0	0	0	511	460	1020	0	0	0	
12	0	0	0	0	513	460	1021	0	0	0	
13	0	0	0	0	516	462	1021	0	0	0	
14	0	0	0	0	521	466	1021	0	0	0	
15	0	0	0	0	527	472	1021	0	0	0	
0	0	0	0	0	533	478	1021	0	0	0	
1	0	0	0	0	540	484	1021	0	0	0	
2	0	0	0	0	546	491	1021	0	0	0	
3	0	0	0	0	551	496	1021	0	0	0	
4	0	0	0	0	554	500	1021	0	0	0	
5	0	0	0	0	556	502	1021	0	0	0	
6	0	0	0	0	556	502	1021	0	0	0	
7	0	0	0	0	552	500	1021	0	0	0	
8	0	0	0	0	548	496	1021	0	0	0	
9	0	0	0	0	542	491	1021	0	0	0	
10	0	0	0	0	534	483	1020	0	0	0	
11	0	0	0	0	526	476	1021	0	0	0	
12	0	0	0	0	517	467	1021	0	0	0	
13	0	0	0	0	508	459	1021	0	0	0	
14	0	0	0	0	500	450	1020	0	0	0	
15	0	0	0	0	492	443	1021	0	0	0	
0	0	0	0	0	485	436	1021	0	0	0	
1	0	0	0	0	479	431	1021	0	0	0	
2	0	0	0	0	474	427	1021	0	0	0	
3	0	0	0	0	470	424	1021	0	0	0	
4	0	0	0	0	466	420	1020	0	0	0	
5	0	0	0	0	463	417	1021	0	0	0	
6	0	0	0	0	458	413	1021	0	0	0	
7	0	0	0	0	453	408	1021	0	0	0	
8	0	0	0	0	447	401	1021	0	0	0	
9	0	0	0	0	439	392	1020	0	0	0	
10	0	0	0	0	430	383	1021	0	0	0	
11	0	0	0	0	419	371	1021	0	0	0	
12	0	0	0	0	406	358	1021	0	0	0	
13	0	0	0	0	392	343	1020	0	0	0	
14	0	0	0	0	377	327	1020	0	0	0	
15	0	0	0	0	363	312	1021	0	0	0	
0	0	0	0	0	347	297	1021	0	0	0	
1	0	0	0	0	332	281	1021	0	0	0	
2	0	0	0	0	318	268	1020	0	0	0	
3	0	0	0	0	307	258	1020	0	0	0	
4	0	0	0	0	300	252	1021	0	0	0	
5	0	0	0	0	297	249	1021	0	0	0	
6	0	0	0	0	300	252	1020	0	0	0	
7	0	0	0	0	307	259	1021	0	0	0	
8	0	0	0	0	319	270	1020	0	0	0	
9	0	0	0	0	335	285	1021	0	0	0	
10	0	0	0	0	355	303	1021	0	0	0	
11	0	0	0	0	378	322	1021	0	0	0	
12	0	0	0	0	402	343	1020	0	0	0	
13	0	0	0	0	425	364	1020	0	0	0	
14	0	0	0	0	449	384	1021	0	0	0	
15	0	0	0	0	470	402	1021	0	0	0	
0	0	0	0	0	489	418	1021	0	0	0	
1	0	0	0	0	504	433	1020	0	0	0	
2	0	0	0	0	517	444	1020	0	0	0	
3	0	0	0	0	528	454	1021	0	0	0	
4	0	0	0	0	536	462	1021	0	0	0	
5	0	0	0	0	541	469	1021	0	0	0	
6	0	0	0	0	544	474	1021	0	0	0	
7	0	0	0	0	547	480	1020	0	0	0	
8	0	0	0	0	550	484	1021	0	0	0	
9	0	0	0	0	552	490	1021	0	0	0	
10	0	0	0	0	554	496	1021	0	0	0	
11	0	0	0	0	557	501	1020	0	0	0	
12	0	0	0	0	559	505	1020	0	0	0	
13	0	0	0	0	561	510	1021	0	0	0	
14	0	0	0	0	563	513	1021	0	0	0	
15	0	0	0	0	564	515	1021	0	0	0	
0	0	0	0	0	563	515	1021	0	0	0	
1	0	0	0	0	561	514	1021	0	0	0	
2	0	0	0	0	560	512	1021	0	0	0	
3	0	0	0	0	558	509	1021	0	0	0	
4	0	0	0	0	554	505	1021	0	0	0	
5	0	0	0	0	551	500	1021	0	0	0	
6	0	0	0	0	546	496	1021	0	0	0	
7	0	0	0	0	543	492	1021	0	0	0	
8	0	0	0	0	539	487	1021	0	0	0	
9	0	0	0	0	536	484	1021	0	0	0	
10	0	0	0	0	533	482	1020	0	0	0	
11	0	0	0	0	531	481	1020	0	0	0	
12	0	0	0	0	532	481	1021	0	0	0	
13	0	0	0	0	534	484	1021	0	0	0	
14	0	0	0	0	537	487	1021	0	0	0	
15	0	0	0	0	541	492	1021	0	0	0	
0	0	0	0	0	547	497	1021	0	0	0	
1	0	0	0	0	551	502	1021	0	0	0	
2	0	0	0	0	556	507	1021	0	0	0	
3	0	0	0	0	559	510	1021	0	0	0	
4	0	0	0	0	561	512	1020	0	0	0	
5	0	0	0	0	561	512	1021	0	0	0	
6	0	0	0	0	559	510	1021	0	0	0	
7	0	0	0	0	555	507	1021	0	0	0	
8	0	0	0	0	550	502	1021	0	0	0	
9	0	0	0	0	543	495	1021	0	0	0	
10	0	0	0	0	536	488	1021	0	0	0	
11	0	0	0	0	528	480	1021	0	0	0	
12	0	0	0	0	521	474	1021	0	0	0	
13	0	0	0	0	516	469	1021	0	0	0	
14	0	0	0	0	513	465	1021	0	0	0	
15	0	0	0	0	511	463	1020	0	0	0	
0	0	0	0	0	511	464	1021	0	0	0	
1	0	0	0	0	515	467	1021	0	0	0	
2	0	0	0	0	519	471	1021	0	0	0	
3	0	0	0	0	526	477	1021	0	0	0	
4	0	0	0	0	534	483	1021	0	0	0	
5	0	0	0	0	542	491	1021	0	0	0	
6	0	0	0	0	549	497	1021	0	0	0	
7	0	0	0	0	556	503	1021	0	0	0	
8	0	0	0	0	560	507	1021	0	0	0	
9	0	0	0	0	563	509	1021	0	0	0	
10	0	0	0	0	565	510	1021	0	0	0	
11	0	0	0	0	564	508	1021	0	0	0	
12	0	0	0	0	561	505	1021	0	0	0	
13	0	0	0	0	557	500	1020	0	0	0	
14	0	0	0	0	550	495	1020	0	0	0	
15	0	0	0	0	544	488	1021	0	0	0	
0	0	0	0	0	537	483	1021	0	0	0	
1	0	0	0	0	531	478	1021	0	0	0	
2	0	0	0	0	526	473	1021	0	0	0	
3	0	0	0	0	522	471	1021	0	0	0	
4	0	0	0	0	520	471	1021	0	0	0	
5	0	0	0	0	521	472	1021	0	0	0	
6	0	0	0	0	523	475	1021	0	0	0	
7	0	0	0	0	527	480	1020	0	0	0	
8	0	0	0	0	532	485	1020	0	0	0	
9	0	0	0	0	539	491	1021	0	0	0	
10	0	0	0	0	545	497	1021	0	0	0	
11	0	0	0	0	551	502	1021	0	0	0	
12	0	0	0	0	555	505	1020	0	0	0	
13	0	0	0	0	558	508	1020	0	0	0	
14	0	0	0	0	559	508	1021	0	0	0	
15	0	0	0	0	559	507	1021	0	0	0	
0	0	0	0	0	556	504	1021	0	0	0	
1	0	0	0	0	551	499	1020	0	0	0	
2	0	0	0	0	547	495	1020	0	0	0	
3	0	0	0	0	542	489	1021	0	0	0	
4	0	0	0	0	536	484	1021	0	0	0	
5	0	0	0	0	531	480	1021	0	0	0	
6	0	0	0	0	527	477	1021	0	0	0	
7	0	0	0	0	526	476	1021	0	0	0	
8	0	0	0	0	526	477	1021	0	0	0	
9	0	0	0	0	528	480	1021	0	0	0	
10	0	0	0	0	531	483	1021	0	0	0	
11	0	0	0	0	536	488	1020	0	0	0	
12	0	0	0	0	541	494	1020	0	0	0	
13	0	0	0	0	547	499	1021	0	0	0	
14	0	0	0	0	552	503	1021	0	0	0	
15	0	0	0	0	556	506	1021	0	0	0	
0	0	0	0	0	558	507	1021	0	0	0	
1	0	0	0	0	558	507	1021	0	0	0	
2	0	0	0	0	555	504	1021	0	0	0	
3	0	0	0	0	551	500	1021	0	0	0	
4	0	0	0	0	545	495	1021	0	0	0	
5	0	0	0	0	538	488	1020	0	0	0	
6	0	0	0	0	530	482	1020	0	0	0	
7	0	0	0	0	524	477	1021	0	0	0	
8	0	0	0	0	519	472	1021	0	0	0	
9	0	0	0	0	515	468	1021	0	0	0	
10	0	0	0	0	513	467	1020	0	0	0	
11	0	0	0	0	513	466	1020	0	0	0	
12	0	0	0	0	516	468	1021	0	0	0	
13	0	0	0	0	520	472	1021	0	0	0	
14	0	0	0	0	527	477	1021	0	0	0	
15	0	0	0	0	533	482	1021	0	0	0	
0	0	0	0	0	540	488	1021	0	0	0	
1	0	0	0	0	548	494	1021	0	0	0	
2	0	0	0	0	554	498	1021	0	0	0	
3	0	0	0	0	558	502	1021	0	0	0	
4	0	0	0	0	561	503	1021	0	0	0	
5	0	0	0	0	561	503	1021	0	0	0	
6	0	0	0	0	560	502	1021	0	0	0	
7	0	0	0	0	556	498	1021	0	0	0	
8	0	0	0	0	550	493	1021	0	0	0	
9	0	0	0	0	543	487	1021	0	0	0	
10	0	0	0	0	535	480	1020	0	0	0	
11	0	0	0	0	527	474	1021	0	0	0	
12	0	0	0	0	520	468	1021	0	0	0	
13	0	0	0	0	513	463	1021	0	0	0	
14	0	0	0	0	509	459	1020	0	0	0	
15	0	0	0	0	507	458	1021	0	0	0	
0	0	0	0	0	508	459	1021	0	0	0	
1	0	0	0	0	511	462	1021	0	0	0	
2	0	0	0	0	517	467	1021	0	0	0	
3	0	0	0	0	524	473	1021	0	0	0	
4	0	0	0	0	532	480	1020	0	0	0	
5	0	0	0	0	541	487	1021	0	0	0	
6	0	0	0	0	549	493	1021	0	0	0	
7	0	0	0	0	555	497	1021	0	0	0	
8	0	0	0	0	558	501	1021	0	0	0	
9	0	0	0	0	559	502	1020	0	0	0	
10	0	0	0	0	558	500	1021	0	0	0	
11	0	0	0	0	554	497	1021	0	0	0	
12	0	0	0	0	548	493	1021	0	0	0	
13	0	0	0	0	541	487	1020	0	0	0	
14	0	0	0	0	532	480	1020	0	0	0	
15	0	0	0	0	525	474	1021	0	0	0	
0	0	0	0	0	518	469	1021	0	0	0	
1	0	0	0	0	512	464	1021	0	0	0	
2	0	0	0	0	507	460	1020	0	0	0	
3	0	0	0	0	505	459	1020	0	0	0	
4	0	0	0	0	507	459	1021	0	0	0	
5	0	0	0	0	509	461	1021	0	0	0	
6	0	0	0	0	513	464	1021	0	0	0	
7	0	0	0	0	519	469	1021	0	0	0	
8	0	0	0	0	527	475	1021	0	0	0	
9	0	0	0	0	534	481	1021	0	0	0	
10	0	0	0	0	541	487	1021	0	0	0	
11	0	0	0	0	547	491	1021	0	0	0	
12	0	0	0	0	551	495	1020	0	0	0	
13	0	0	0	0	552	496	1020	0	0	0	
14	0	0	0	0	553	496	1021	0	0	0	
15	0	0	0	0	550	494	1021	0	0	0	
0	0	0	0	0	546	491	1021	0	0	0	
1	0	0	0	0	540	486	1021	0	0	0	
2	0	0	0	0	534	482	1021	0	0	0	
3	0	0	0	0	528	477	1021	0	0	0	
4	0	0	0	0	523	473	1021	0	0	0	
5	0	0	0	0	519	468	1021	0	0	0	
6	0	0	0	0	515	466	1020	0	0	0	
7	0	0	0	0	513	465	1020	0	0	0	
8	0	0	0	0	515	465	1021	0	0	0	
9	0	0	0	0	517	467	1021	0	0	0	
10	0	0	0	0	521	470	1021	0	0	0	
11	0	0	0	0	526	474	1021	0	0	0	
12	0	0	0	0	532	479	1021	0	0	0	
13	0	0	0	0	538	484	1021	0	0	0	
14	0	0	0	0	543	489	1021	0	0	0	
15	0	0	0	0	548	493	1021	0	0	0	
0	0	0	0	0	551	496	1021	0	0	0	
1	0	0	0	0	553	498	1021	0	0	0	
2	0	0	0	0	554	498	1021	0	0	0	
3	0	0	0	0	552	496	1021	0	0	0	
4	0	0	0	0	548	493	1021	0	0	0	
5	0	0	0	0	543	488	1021	0	0	0	
6	0	0	0	0	536	482	1021	0	0	0	
7	0	0	0	0	529	475	1021	0	0	0	
8	0	0	0	0	521	468	1021	0	0	0	
9	0	0	0	0	514	462	1021	0	0	0	
10	0	0	0	0	507	455	1021	0	0	0	
11	0	0	0	0	502	451	1021	0	0	0	
12	0	0	0	0	499	449	1021	0	0	0	
13	0	0	0	0	498	448	1021	0	0	0	
14	0	0	0	0	499	450	1021	0	0	0	
15	0	0	0	0	503	453	1021	0	0	0	
0	0	0	0	0	507	457	1021	0	0	0	
1	0	0	0	0	513	463	1021	0	0	0	
2	0	0	0	0	519	468	1021	0	0	0	
3	0	0	0	0	526	473	1021	0	0	0	
4	0	0	0	0	531	478	1021	0	0	0	
5	0	0	0	0	536	481	1021	0	0	0	
6	0	0	0	0	539	483	1021	0	0	0	
7	0	0	0	0	540	483	1021	0	0	0	
8	0	0	0	0	540	482	1021	0	0	0	
9	0	0	0	0	537	479	1021	0	0	0	
10	0	0	0	0	535	475	1021	0	0	0	
11	0	0	0	0	530	472	1021	0	0	0	
12	0	0	0	0	526	467	1021	0	0	0	
13	0	0	0	0	522	463	1021	0	0	0	
14	0	0	0	0	518	460	1021	0	0	0	
15	0	0	0	0	515	459	1021	0	0	0	
0	0	0	0	0	514	458	1021	0	0	0	
1	0	0	0	0	515	460	1021	0	0	0	
2	0	0	0	0	516	462	1021	0	0	0	
3	0	0	0	0	519	466	1021	0	0	0	
4	0	0	0	0	524	470	1021	0	0	0	
5	0	0	0	0	528	475	1021	0	0	0	
6	0	0	0	0	532	479	1021	0	0	0	
7	0	0	0	0	536	483	1021	0	0	0	
8	0	0	0	0	539	485	1021	0	0	0	
9	0	0	0	0	539	485	1021	0	0	0	
10	0	0	0	0	539	484	1021	0	0	0	
11	0	0	0	0	537	481	1021	0	0	0	
12	0	0	0	0	533	476	1021	0	0	0	
13	0	0	0	0	527	471	1021	0	0	0	
14	0	0	0	0	522	466	1021	0	0	0	
15	0	0	0	0	517	461	1021	0	0	0	
0	0	0	0	0	513	457	1021	0	0	0	
1	0	0	0	0	510	454	1021	0	0	0	
2	0	0	0	0	508	453	1021	0	0	0	
3	0	0	0	0	509	454	1021	0	0	0	
4	0	0	0	0	512	457	1021	0	0	0	
5	0	0	0	0	518	462	1021	0	0	0	
6	0	0	0	0	524	469	1021	0	0	0	
7	0	0	0	0	533	476	1021	0	0	0	
8	0	0	0	0	541	484	1021	0	0	0	
9	0	0	0	0	550	493	1021	0	0	0	
10	0	0	0	0	558	500	1021	0	0	0	
11	0	0	0	0	565	506	1021	0	0	0	
12	0	0	0	0	569	510	1021	0	0	0	
13	0	0	0	0	571	512	1020	0	0	0	
14	0	0	0	0	571	512	1021	0	0	0	
15	0	0	0	0	567	508	1021	0	0	0	
0	0	0	0	0	561	503	1021	0	0	0	
1	0	0	0	0	553	496	1021	0	0	0	
2	0	0	0	0	543	488	1021	0	0	0	
3	0	0	0	0	534	480	1021	0	0	0	
4	0	0	0	0	525	472	1021	0	0	0	
5	0	0	0	0	516	465	1021	0	0	0	
6	0	0	0	0	509	460	1021	0	0	0	
7	0	0	0	0	505	455	1021	0	0	0	
8	0	0	0	0	504	454	1021	0	0	0	
9	0	0	0	0	505	455	1021	0	0	0	
10	0	0	0	0	510	459	1021	0	0	0	
11	0	0	0	0	515	464	1021	0	0	0	
12	0	0	0	0	524	471	1021	0	0	0	
13	0	0	0	0	532	478	1021	0	0	0	
14	0	0	0	0	540	484	1021	0	0	0	
15	0	0	0	0	547	491	1021	0	0	0	
0	0	0	0	0	553	495	1021	0	0	0	
1	0	0	0	0	556	497	1021	0	0	0	
2	0	0	0	0	556	497	1021	0	0	0	
3	0	0	0	0	553	495	1021	0	0	0	
4	0	0	0	0	548	492	1021	0	0	0	
5	0	0	0	0	543	487	1021	0	0	0	
6	0	0	0	0	536	481	1021	0	0	0	
7	0	0	0	0	528	475	1021	0	0	0	
8	0	0	0	0	522	470	1021	0	0	0	
9	0	0	0	0	516	465	1021	0	0	0	
10	0	0	0	0	512	462	1020	0	0	0	
11	0	0	0	0	509	460	1020	0	0	0	
12	0	0	0	0	509	460	1021	0	0	0	
13	0	0	0	0	511	463	1021	0	0	0	
14	0	0	0	0	515	467	1021	0	0	0	
15	0	0	0	0	520	472	1021	0	0	0	
0	0	0	0	0	527	478	1021	0	0	0	
1	0	0	0	0	534	484	1021	0	0	0	
2	0	0	0	0	541	490	1021	0	0	0	
3	0	0	0	0	547	496	1021	0	0	0	
4	0	0	0	0	553	500	1021	0	0	0	
5	0	0	0	0	556	503	1021	0	0	0	
6	0	0	0	0	558	504	1021	0	0	0	
7	0	0	0	0	558	503	1021	0	0	0	
8	0	0	0	0	556	500	1021	0	0	0	
9	0	0	0	0	553	496	1021	0	0	0	
10	0	0	0	0	547	490	1020	0	0	0	
11	0	0	0	0	543	484	1021	0	0	0	
12	0	0	0	0	537	478	1021	0	0	0	
13	0	0	0	0	532	473	1021	0	0	0	
14	0	0	0	0	527	469	1020	0	0	0	
15	0	0	0	0	524	467	1020	0	0	0	
0	0	0	0	0	523	466	1021	0	0	0	
1	0	0	0	0	524	468	1021	0	0	0	
2	0	0	0	0	526	471	1021	0	0	0	
3	0	0	0	0	529	474	1021	0	0	0	
4	0	0	0	0	534	480	1020	0	0	0	
5	0	0	0	0	539	486	1021	0	0	0	
6	0	0	0	0	543	491	1021	0	0	0	
7	0	0	0	0	547	495	1021	0	0	0	
8	0	0	0	0	550	498	1021	0	0	0	
9	0	0	0	0	550	499	1020	0	0	0	
10	0	0	0	0	550	499	1021	0	0	0	
11	0	0	0	0	547	497	1021	0	0	0	
12	0	0	0	0	544	493	1021	0	0	0	
13	0	0	0	0	539	488	1020	0	0	0	
14	0	0	0	0	534	483	1021	0	0	0	
15	0	0	0	0	528	477	1021	0	0	0	
0	0	0	0	0	523	471	1021	0	0	0	
1	0	0	0	0	518	466	1021	0	0	0	
2	0	0	0	0	515	462	1021	0	0	0	
3	0	0	0	0	512	459	1021	0	0	0	
4	0	0	0	0	511	458	1021	0	0	0	
5	0	0	0	0	512	458	1021	0	0	0	
6	0	0	0	0	514	460	1021	0	0	0	
7	0	0	0	0	518	463	1021	0	0	0	
8	0	0	0	0	522	468	1021	0	0	0	
9	0	0	0	0	528	473	1021	0	0	0	
10	0	0	0	0	534	478	1021	0	0	0	
11	0	0	0	0	539	483	1021	0	0	0	
12	0	0	0	0	543	487	1021	0	0	0	
13	0	0	0	0	545	489	1020	0	0	0	
14	0	0	0	0	547	490	1021	0	0	0	
15	0	0	0	0	546	489	1021	0	0	0	
0	0	0	0	0	543	486	1021	0	0	0	
1	0	0	0	0	539	481	1021	0	0	0	
2	0	0	0	0	534	476	1021	0	0	0	
3	0	0	0	0	529	472	1021	0	0	0	
4	0	0	0	0	525	467	1021	0	0	0	
5	0	0	0	0	520	463	1021	0	0	0	
6	0	0	0	0	517	460	1021	0	0	0	
7	0	0	0	0	515	459	1021	0	0	0	
8	0	0	0	0	516	460	1021	0	0	0	
9	0	0	0	0	518	462	1021	0	0	0	
10	0	0	0	0	521	466	1021	0	0	0	
11	0	0	0	0	526	471	1021	0	0	0	
12	0	0	0	0	530	476	1020	0	0	0	
13	0	0	0	0	536	481	1021	0	0	0	
14	0	0	0	0	540	485	1021	0	0	0	
15	0	0	0	0	543	489	1021	0	0	0	
0	0	0	0	0	545	491	1021	0	0	0	
1	0	0	0	0	547	492	1021	0	0	0	
2	0	0	0	0	546	492	1021	0	0	0	
3	0	0	0	0	544	490	1021	0	0	0	
4	0	0	0	0	541	486	1021	0	0	0	
5	0	0	0	0	537	482	1020	0	0	0	
6	0	0	0	0	531	477	1021	0	0	0	
7	0	0	0	0	527	472	1021	0	0	0	
8	0	0	0	0	523	468	1021	0	0	0	
9	0	0	0	0	519	464	1020	0	0	0	
10	0	0	0	0	516	461	1021	0	0	0	
11	0	0	0	0	514	460	1020	0	0	0	
12	0	0	0	0	515	461	1021	0	0	0	
13	0	0	0	0	517	463	1021	0	0	0	
14	0	0	0	0	520	467	1021	0	0	0	
15	0	0	0	0	524	472	1021	0	0	0	
0	0	0	0	0	529	477	1021	0	0	0	
1	0	0	0	0	535	483	1021	0	0	0	
2	0	0	0	0	540	488	1021	0	0	0	
3	0	0	0	0	545	493	1021	0	0	0	
4	0	0	0	0	548	496	1021	0	0	0	
5	0	0	0	0	551	498	1021	0	0	0	
6	0	0	0	0	551	497	1021	0	0	0	
7	0	0	0	0	548	495	1021	0	0	0	
8	0	0	0	0	543	491	1021	0	0	0	
9	0	0	0	0	537	485	1021	0	0	0	
10	0	0	0	0	529	479	1021	0	0	0	
11	0	0	0	0	522	472	1021	0	0	0	
12	0	0	0	0	515	467	1021	0	0	0	
13	0	0	0	0	509	462	1021	0	0	0	
14	0	0	0	0	505	457	1021	0	0	0	
15	0	0	0	0	503	455	1021	0	0	0	
0	0	0	0	0	503	455	1021	0	0	0	
1	0	0	0	0	505	457	1021	0	0	0	
2	0	0	0	0	510	461	1021	0	0	0	
3	0	0	0	0	515	465	1021	0	0	0	
4	0	0	0	0	522	471	1021	0	0	0	
5	0	0	0	0	528	476	1021	0	0	0	
6	0	0	0	0	534	481	1021	0	0	0	
7	0	0	0	0	538	484	1021	0	0	0	
8	0	0	0	0	541	487	1021	0	0	0	
9	0	0	0	0	542	488	1021	0	0	0	
10	0	0	0	0	541	487	1021	0	0	0	
11	0	0	0	0	538	485	1021	0	0	0	
12	0	0	0	0	534	481	1021	0	0	0	
13	0	0	0	0	529	478	1021	0	0	0	
14	0	0	0	0	524	473	1021	0	0	0	
15	0	0	0	0	520	470	1021	0	0	0	
0	0	0	0	0	516	467	1021	0	0	0	
1	0	0	0	0	513	464	1021	0	0	0	
2	0	0	0	0	513	464	1021	0	0	0	
3	0	0	0	0	513	464	1020	0	0	0	
4	0	0	0	0	516	467	1021	0	0	0	
5	0	0	0	0	520	470	1021	0	0	0	
6	0	0	0	0	526	474	1021	0	0	0	
7	0	0	0	0	531	479	1021	0	0	0	
8	0	0	0	0	538	484	1021	0	0	0	
9	0	0	0	0	544	489	1021	0	0	0	
10	0	0	0	0	550	494	1021	0	0	0	
11	0	0	0	0	553	497	1021	0	0	0	
12	0	0	0	0	556	499	1020	0	0	0	
13	0	0	0	0	555	499	1020	0	0	0	
14	0	0	0	0	554	497	1021	0	0	0	
15	0	0	0	0	550	494	1021	0	0	0	
0	0	0	0	0	544	489	1021	0	0	0	
1	0	0	0	0	538	483	1021	0	0	0	
2	0	0	0	0	531	477	1021	0	0	0	
3	0	0	0	0	524	471	1021	0	0	0	
4	0	0	0	0	518	465	1021	0	0	0	
5	0	0	0	0	513	460	1021	0	0	0	
6	0	0	0	0	509	457	1021	0	0	0	
7	0	0	0	0	507	455	1020	0	0	0	
8	0	0	0	0	507	455	1021	0	0	0	
9	0	0	0	0	509	456	1021	0	0	0	
10	0	0	0	0	512	459	1021	0	0	0	
11	0	0	0	0	516	463	1020	0	0	0	
12	0	0	0	0	523	468	1020	0	0	0	
13	0	0	0	0	530	475	1021	0	0	0	
14	0	0	0	0	536	480	1021	0	0	0	
15	0	0	0	0	542	486	1021	0	0	0	
0	0	0	0	0	547	491	1021	0	0	0	
1	0	0	0	0	550	494	1020	0	0	0	
2	0	0	0	0	551	495	1021	0	0	0	
3	0	0	0	0	551	495	1021	0	0	0	
4	0	0	0	0	548	492	1021	0	0	0	
5	0	0	0	0	544	488	1020	0	0	0	
6	0	0	0	0	539	483	1021	0	0	0	
7	0	0	0	0	532	477	1021	0	0	0	
8	0	0	0	0	525	471	1021	0	0	0	
9	0	0	0	0	519	464	1021	0	0	0	
10	0	0	0	0	514	460	1021	0	0	0	
11	0	0	0	0	510	455	1020	0	0	0	
12	0	0	0	0	509	454	1021	0	0	0	
13	0	0	0	0	510	455	1021	0	0	0	
14	0	0	0	0	512	457	1021	0	0	0	
15	0	0	0	0	517	461	1021	0	0	0	
0	0	0	0	0	522	466	1021	0	0	0	
1	0	0	0	0	528	472	1021	0	0	0	
2	0	0	0	0	535	478	1021	0	0	0	
3	0	0	0	0	541	484	1021	0	0	0	
4	0	0	0	0	546	488	1021	0	0	0	
5	0	0	0	0	549	492	1021	0	0	0	
6	0	0	0	0	550	493	1021	0	0	0	
7	0	0	0	0	549	492	1021	0	0	0	
8	0	0	0	0	547	489	1021	0	0	0	
9	0	0	0	0	542	486	1021	0	0	0	
10	0	0	0	0	536	480	1020	0	0	0	
11	0	0	0	0	532	476	1021	0	0	0	
12	0	0	0	0	527	472	1021	0	0	0	
13	0	0	0	0	524	468	1021	0	0	0	
14	0	0	0	0	522	467	1021	0	0	0	
15	0	0	0	0	521	467	1020	0	0	0	
0	0	0	0	0	524	469	1021	0	0	0	
1	0	0	0	0	527	472	1021	0	0	0	
2	0	0	0	0	531	477	1021	0	0	0	
3	0	0	0	0	536	482	1021	0	0	0	
4	0	0	0	0	541	487	1021	0	0	0	
5	0	0	0	0	547	493	1021	0	0	0	
6	0	0	0	0	551	498	1021	0	0	0	
7	0	0	0	0	555	501	1021	0	0	0	
8	0	0	0	0	558	504	1021	0	0	0	
9	0	0	0	0	559	504	1021	0	0	0	
10	0	0	0	0	559	504	1021	0	0	0	
11	0	0	0	0	556	501	1021	0	0	0	
12	0	0	0	0	552	496	1021	0	0	0	
13	0	0	0	0	547	491	1021	0	0	0	
14	0	0	0	0	541	485	1020	0	0	0	
15	0	0	0	0	536	479	1021	0	0	0	
0	0	0	0	0	530	473	1021	0	0	0	
1	0	0	0	0	525	468	1021	0	0	0	
2	0	0	0	0	519	463	1021	0	0	0	
3	0	0	0	0	516	460	1021	0	0	0	
4	0	0	0	0	514	458	1021	0	0	0	
5	0	0	0	0	513	458	1021	0	0	0	
6	0	0	0	0	514	460	1021	0	0	0	
7	0	0	0	0	516	462	1021	0	0	0	
8	0	0	0	0	519	466	1021	0	0	0	
9	0	0	0	0	524	471	1021	0	0	0	
10	0	0	0	0	529	476	1021	0	0	0	
11	0	0	0	0	534	481	1021	0	0	0	
12	0	0	0	0	539	485	1021	0	0	0	
13	0	0	0	0	542	488	1020	0	0	0	
14	0	0	0	0	545	490	1021	0	0	0	
15	0	0	0	0	545	489	1021	0	0	0	
0	0	0	0	0	544	487	1021	0	0	0	
1	0	0	0	0	542	484	1021	0	0	0	
2	0	0	0	0	538	480	1020	0	0	0	
3	0	0	0	0	534	476	1021	0	0	0	
4	0	0	0	0	530	471	1021	0	0	0	
5	0	0	0	0	526	467	1021	0	0	0	
6	0	0	0	0	523	464	1021	0	0	0	
7	0	0	0	0	520	463	1021	0	0	0	
8	0	0	0	0	520	463	1021	0	0	0	
9	0	0	0	0	521	465	1021	0	0	0	
10	0	0	0	0	524	469	1021	0	0	0	
11	0	0	0	0	528	473	1020	0	0	0	
12	0	0	0	0	533	479	1020	0	0	0	
13	0	0	0	0	539	485	1021	0	0	0	
14	0	0	0	0	543	490	1021	0	0	0	
15	0	0	0	0	548	495	1021	0	0	0	
0	0	0	0	0	551	497	1021	0	0	0	
1	0	0	0	0	551	498	1021	0	0	0	
2	0	0	0	0	551	497	1021	0	0	0	
3	0	0	0	0	547	494	1021	0	0	0	
4	0	0	0	0	542	488	1021	0	0	0	
5	0	0	0	0	535	481	1021	0	0	0	
6	0	0	0	0	528	475	1021	0	0	0	
7	0	0	0	0	520	467	1021	0	0	0	
8	0	0	0	0	513	460	1021	0	0	0	
9	0	0	0	0	508	455	1021	0	0	0	
10	0	0	0	0	505	451	1021	0	0	0	
11	0	0	0	0	504	449	1021	0	0	0	
12	0	0	0	0	505	450	1021	0	0	0	
13	0	0	0	0	510	454	1021	0	0	0	
14	0	0	0	0	516	460	1021	0	0	0	
15	0	0	0	0	523	467	1021	0	0	0	
0	0	0	0	0	532	476	1021	0	0	0	
1	0	0	0	0	540	484	1021	0	0	0	
2	0	0	0	0	548	492	1021	0	0	0	
3	0	0	0	0	555	499	1021	0	0	0	
4	0	0	0	0	559	503	1021	0	0	0	
5	0	0	0	0	562	505	1021	0	0	0	
6	0	0	0	0	562	505	1021	0	0	0	
7	0	0	0	0	559	503	1021	0	0	0	
8	0	0	0	0	555	498	1021	0	0	0	
9	0	0	0	0	549	492	1021	0	0	0	
10	0	0	0	0	542	487	1021	0	0	0	
11	0	0	0	0	536	480	1021	0	0	0	
12	0	0	0	0	530	475	1021	0	0	0	
13	0	0	0	0	525	471	1021	0	0	0	
14	0	0	0	0	520	467	1021	0	0	0	
15	0	0	0	0	519	466	1021	0	0	0	
0	0	0	0	0	519	466	1021	0	0	0	
1	0	0	0	0	521	468	1021	0	0	0	
2	0	0	0	0	524	472	1021	0	0	0	
3	0	0	0	0	529	476	1021	0	0	0	
4	0	0	0	0	535	482	1021	0	0	0	
5	0	0	0	0	540	487	1021	0	0	0	
6	0	0	0	0	545	492	1021	0	0	0	
7	0	0	0	0	548	495	1021	0	0	0	
8	0	0	0	0	550	496	1021	0	0	0	
9	0	0	0	0	549	496	1021	0	0	0	
10	0	0	0	0	547	493	1021	0	0	0	
11	0	0	0	0	542	488	1021	0	0	0	
12	0	0	0	0	535	482	1021	0	0	0	
13	0	0	0	0	527	474	1021	0	0	0	
14	0	0	0	0	519	467	1021	0	0	0	
15	0	0	0	0	511	459	1021	0	0	0	
0	0	0	0	0	505	452	1021	0	0	0	
1	0	0	0	0	500	447	1021	0	0	0	
2	0	0	0	0	497	443	1021	0	0	0	
3	0	0	0	0	498	442	1021	0	0	0	
4	0	0	0	0	501	444	1021	0	0	0	
5	0	0	0	0	507	448	1021	0	0	0	
6	0	0	0	0	514	453	1021	0	0	0	
7	0	0	0	0	522	460	1021	0	0	0	
8	0	0	0	0	531	467	1021	0	0	0	
9	0	0	0	0	539	474	1021	0	0	0	
10	0	0	0	0	544	480	1021	0	0	0	
11	0	0	0	0	548	484	1021	0	0	0	
12	0	0	0	0	549	487	1021	0	0	0	
13	0	0	0	0	548	488	1021	0	0	0	
14	0	0	0	0	544	487	1021	0	0	0	
15	0	0	0	0	539	483	1021	0	0	0	
0	0	0	0	0	531	479	1021	0	0	0	
1	0	0	0	0	523	473	1021	0	0	0	
2	0	0	0	0	515	467	1021	0	0	0	
3	0	0	0	0	508	462	1021	0	0	0	
4	0	0	0	0	503	456	1021	0	0	0	
5	0	0	0	0	499	453	1021	0	0	0	
6	0	0	0	0	496	450	1021	0	0	0	
7	0	0	0	0	497	449	1021	0	0	0	
8	0	0	0	0	499	450	1021	0	0	0	
9	0	0	0	0	504	453	1021	0	0	0	
10	0	0	0	0	510	457	1021	0	0	0	
11	0	0	0	0	516	462	1021	0	0	0	
12	0	0	0	0	523	467	1021	0	0	0	
13	0	0	0	0	530	473	1021	0	0	0	
14	0	0	0	0	535	478	1021	0	0	0	
15	0	0	0	0	539	482	1021	0	0	0	
0	0	0	0	0	541	484	1021	0	0	0	
1	0	0	0	0	541	485	1021	0	0	0	
2	0	0	0	0	539	483	1021	0	0	0	
3	0	0	0	0	535	481	1021	0	0	0	
4	0	0	0	0	530	477	1021	0	0	0	
5	0	0	0	0	523	471	1021	0	0	0	
6	0	0	0	0	518	466	1021	0	0	0	
7	0	0	0	0	512	461	1021	0	0	0	
8	0	0	0	0	507	457	1021	0	0	0	
9	0	0	0	0	504	453	1021	0	0	0	
10	0	0	0	0	503	452	1021	0	0	0	
11	0	0	0	0	504	452	1021	0	0	0	
12	0	0	0	0	508	455	1021	0	0	0	
13	0	0	0	0	514	460	1021	0	0	0	
14	0	0	0	0	522	467	1021	0	0	0	
15	0	0	0	0	531	475	1021	0	0	0	
0	0	0	0	0	541	483	1021	0	0	0	
1	0	0	0	0	550	492	1021	0	0	0	
2	0	0	0	0	558	499	1021	0	0	0	
3	0	0	0	0	564	505	1021	0	0	0	
4	0	0	0	0	568	508	1021	0	0	0	
5	0	0	0	0	569	509	1021	0	0	0	
6	0	0	0	0	567	508	1021	0	0	0	
7	0	0	0	0	562	504	1021	0	0	0	
8	0	0	0	0	556	499	1021	0	0	0	
9	0	0	0	0	548	492	1021	0	0	0	
10	0	0	0	0	539	485	1021	0	0	0	
11	0	0	0	0	531	479	1021	0	0	0	
12	0	0	0	0	524	472	1021	0	0	0	
13	0	0	0	0	518	467	1021	0	0	0	
14	0	0	0	0	515	463	1021	0	0	0	
15	0	0	0	0	513	462	1021	0	0	0	
0	0	0	0	0	514	462	1021	0	0	0	
1	0	0	0	0	517	463	1021	0	0	0	
2	0	0	0	0	522	467	1021	0	0	0	
3	0	0	0	0	528	472	1021	0	0	0	
4	0	0	0	0	535	478	1020	0	0	0	
5	0	0	0	0	543	485	1021	0	0	0	
6	0	0	0	0	550	491	1021	0	0	0	
7	0	0	0	0	557	497	1021	0	0	0	
8	0	0	0	0	563	502	1021	0	0	0	
9	0	0	0	0	566	505	1021	0	0	0	
10	0	0	0	0	568	507	1021	0	0	0	
11	0	0	0	0	567	506	1021	0	0	0	
12	0	0	0	0	563	503	1021	0	0	0	
13	0	0	0	0	558	499	1021	0	0	0	
14	0	0	0	0	551	492	1021	0	0	0	
15	0	0	0	0	543	485	1021	0	0	0	
0	0	0	0	0	534	477	1021	0	0	0	
1	0	0	0	0	525	469	1020	0	0	0	
2	0	0	0	0	517	462	1021	0	0	0	
3	0	0	0	0	511	457	1020	0	0	0	
4	0	0	0	0	508	454	1021	0	0	0	
5	0	0	0	0	506	454	1021	0	0	0	
6	0	0	0	0	508	455	1021	0	0	0	
7	0	0	0	0	511	459	1021	0	0	0	
8	0	0	0	0	515	463	1021	0	0	0	
9	0	0	0	0	523	470	1021	0	0	0	
10	0	0	0	0	529	475	1021	0	0	0	
11	0	0	0	0	536	481	1021	0	0	0	
12	0	0	0	0	540	485	1021	0	0	0	
13	0	0	0	0	544	488	1021	0	0	0	
14	0	0	0	0	547	490	1021	0	0	0	
15	0	0	0	0	547	490	1021	0	0	0	
0	0	0	0	0	545	488	1021	0	0	0	
1	0	0	0	0	542	485	1021	0	0	0	
2	0	0	0	0	537	481	1020	0	0	0	
3	0	0	0	0	533	478	1021	0	0	0	
4	0	0	0	0	528	473	1021	0	0	0	
5	0	0	0	0	525	471	1021	0	0	0	
6	0	0	0	0	523	469	1021	0	0	0	
7	0	0	0	0	523	470	1021	0	0	0	
8	0	0	0	0	526	472	1021	0	0	0	
9	0	0	0	0	530	476	1021	0	0	0	
10	0	0	0	0	535	480	1021	0	0	0	
11	0	0	0	0	541	485	1021	0	0	0	
12	0	0	0	0	546	489	1020	0	0	0	
13	0	0	0	0	550	492	1021	0	0	0	
14	0	0	0	0	551	493	1021	0	0	0	
15	0	0	0	0	551	491	1021	0	0	0	
0	0	0	0	0	546	487	1021	0	0	0	
1	0	0	0	0	538	480	1021	0	0	0	
2	0	0	0	0	528	471	1021	0	0	0	
3	0	0	0	0	515	460	1021	0	0	0	
4	0	0	0	0	500	446	1021	0	0	0	
5	0	0	0	0	483	431	1021	0	0	0	
6	0	0	0	0	466	415	1021	0	0	0	
7	0	0	0	0	449	400	1021	0	0	0	
8	0	0	0	0	433	386	1021	0	0	0	
9	0	0	0	0	419	372	1021	0	0	0	
10	0	0	0	0	406	360	1021	0	0	0	
11	0	0	0	0	395	351	1020	0	0	0	
12	0	0	0	0	387	344	1021	0	0	0	
13	0	0	0	0	382	338	1021	0	0	0	
14	0	0	0	0	378	334	1021	0	0	0	
15	0	0	0	0	376	330	1021	0	0	0	
0	0	0	0	0	374	326	1021	0	0	0	
1	0	0	0	0	372	322	1021	0	0	0	
2	0	0	0	0	369	318	1021	0	0	0	
3	0	0	0	0	366	313	1021	0	0	0	
4	0	0	0	0	363	307	1020	0	0	0	
5	0	0	0	0	358	302	1020	0	0	0	
6	0	0	0	0	354	296	1021	0	0	0	
7	0	0	0	0	350	292	1021	0	0	0	
8	0	0	0	0	349	289	1021	0	0	0	
9	0	0	0	0	349	289	1021	0	0	0	
10	0	0	0	0	352	291	1020	0	0	0	
11	0	0	0	0	359	296	1021	0	0	0	
12	0	0	0	0	369	305	1021	0	0	0	
13	0	0	0	0	382	316	1021	0	0	0	
14	0	0	0	0	399	331	1021	0	0	0	
15	0	0	0	0	417	348	1021	0	0	0	
0	0	0	0	0	439	367	1021	0	0	0	
1	0	0	0	0	462	388	1021	0	0	0	
2	0	0	0	0	485	410	1021	0	0	0	
3	0	0	0	0	508	432	1021	0	0	0	
4	0	0	0	0	529	453	1021	0	0	0	
5	0	0	0	0	550	473	1021	0	0	0	
6	0	0	0	0	567	491	1021	0	0	0	
7	0	0	0	0	580	505	1021	0	0	0	
8	0	0	0	0	591	518	1021	0	0	0	
9	0	0	0	0	597	526	1020	0	0	0	
10	0	0	0	0	600	531	1021	0	0	0	
11	0	0	0	0	599	532	1021	0	0	0	
12	0	0	0	0	594	531	1021	0	0	0	
13	0	0	0	0	586	526	1021	0	0	0	
14	0	0	0	0	576	519	1020	0	0	0	
15	0	0	0	0	566	511	1021	0	0	0	
0	0	0	0	0	556	503	1021	0	0	0	
1	0	0	0	0	546	494	1021	0	0	0	
2	0	0	0	0	537	487	1020	0	0	0	
3	0	0	0	0	532	483	1020	0	0	0	
4	0	0	0	0	530	481	1021	0	0	0	
5	0	0	0	0	530	481	1021	0	0	0	
6	0	0	0	0	533	483	1021	0	0	0	
7	0	0	0	0	538	487	1021	0	0	0	
8	0	0	0	0	545	492	1021	0	0	0	
9	0	0	0	0	552	499	1021	0	0	0	
10	0	0	0	0	560	505	1021	0	0	0	
11	0	0	0	0	568	511	1021	0	0	0	
12	0	0	0	0	574	516	1021	0	0	0	
13	0	0	0	0	578	519	1020	0	0	0	
14	0	0	0	0	582	521	1021	0	0	0	
15	0	0	0	0	582	521	1021	0	0	0	
0	0	0	0	0	581	519	1021	0	0	0	
1	0	0	0	0	578	516	1021	0	0	0	
2	0	0	0	0	575	513	1021	0	0	0	
3	0	0	0	0	571	510	1021	0	0	0	
4	0	0	0	0	567	507	1021	0	0	0	
5	0	0	0	0	564	504	1021	0	0	0	
6	0	0	0	0	561	503	1020	0	0	0	
7	0	0	0	0	561	502	1020	0	0	0	
8	0	0	0	0	561	503	1021	0	0	0	
9	0	0	0	0	563	505	1021	0	0	0	
10	0	0	0	0	566	508	1021	0	0	0	
11	0	0	0	0	568	511	1021	0	0	0	
12	0	0	0	0	571	515	1020	0	0	0	
13	0	0	0	0	575	519	1021	0	0	0	
14	0	0	0	0	578	521	1021	0	0	0	
15	0	0	0	0	579	523	1021	0	0	0	
0	0	0	0	0	579	523	1021	0	0	0	
1	0	0	0	0	578	522	1021	0	0	0	
2	0	0	0	0	575	519	1021	0	0	0	
3	0	0	0	0	571	515	1021	0	0	0	
4	0	0	0	0	565	509	1021	0	0	0	
5	0	0	0	0	558	504	1020	0	0	0	
6	0	0	0	0	552	498	1021	0	0	0	
7	0	0	0	0	546	492	1021	0	0	0	
8	0	0	0	0	542	488	1021	0	0	0	
9	0	0	0	0	539	486	1021	0	0	0	
10	0	0	0	0	539	484	1021	0	0	0	
11	0	0	0	0	540	485	1020	0	0	0	
12	0	0	0	0	543	487	1021	0	0	0	
13	0	0	0	0	548	492	1021	0	0	0	
14	0	0	0	0	553	497	1021	0	0	0	
15	0	0	0	0	559	503	1021	0	0	0	
0	0	0	0	0	565	508	1021	0	0	0	
1	0	0	0	0	571	514	1021	0	0	0	
2	0	0	0	0	574	518	1021	0	0	0	
3	0	0	0	0	576	521	1021	0	0	0	
4	0	0	0	0	577	522	1021	0	0	0	
5	0	0	0	0	576	522	1021	0	0	0	
6	0	0	0	0	574	519	1021	0	0	0	
7	0	0	0	0	569	515	1021	0	0	0	
8	0	0	0	0	563	510	1021	0	0	0	
9	0	0	0	0	556	503	1020	0	0	0	
10	0	0	0	0	550	497	1020	0	0	0	
11	0	0	0	0	545	491	1021	0	0	0	
12	0	0	0	0	541	486	1021	0	0	0	
13	0	0	0	0	537	482	1021	0	0	0	
14	0	0	0	0	536	480	1021	0	0	0	
15	0	0	0	0	536	479	1021	0	0	0	
0	0	0	0	0	539	481	1021	0	0	0	
1	0	0	0	0	544	485	1021	0	0	0	
2	0	0	0	0	550	491	1021	0	0	0	
3	0	0	0	0	556	497	1021	0	0	0	
4	0	0	0	0	564	504	1021	0	0	0	
5	0	0	0	0	571	511	1021	0	0	0	
6	0	0	0	0	576	518	1021	0	0	0	
7	0	0	0	0	581	523	1021	0	0	0	
8	0	0	0	0	583	526	1021	0	0	0	
9	0	0	0	0	585	528	1021	0	0	0	
10	0	0	0	0	584	528	1021	0	0	0	
11	0	0	0	0	582	526	1021	0	0	0	
12	0	0	0	0	578	523	1021	0	0	0	
13	0	0	0	0	573	518	1021	0	0	0	
14	0	0	0	0	568	514	1021	0	0	0	
15	0	0	0	0	563	509	1021	0	0	0	
0	0	0	0	0	559	504	1021	0	0	0	
1	0	0	0	0	555	499	1021	0	0	0	
2	0	0	0	0	551	496	1021	0	0	0	
3	0	0	0	0	551	495	1021	0	0	0	
4	0	0	0	0	551	494	1021	0	0	0	
5	0	0	0	0	552	495	1021	0	0	0	
6	0	0	0	0	556	498	1021	0	0	0	
7	0	0	0	0	559	501	1021	0	0	0	
8	0	0	0	0	564	505	1021	0	0	0	
9	0	0	0	0	568	510	1021	0	0	0	
10	0	0	0	0	572	514	1021	0	0	0	
11	0	0	0	0	575	517	1021	0	0	0	
12	0	0	0	0	575	519	1021	0	0	0	
13	0	0	0	0	575	519	1021	0	0	0	
14	0	0	0	0	573	518	1021	0	0	0	
15	0	0	0	0	570	515	1021	0	0	0	
0	0	0	0	0	565	510	1021	0	0	0	
1	0	0	0	0	559	505	1021	0	0	0	
2	0	0	0	0	555	501	1021	0	0	0	
3	0	0	0	0	550	497	1021	0	0	0	
4	0	0	0	0	545	493	1021	0	0	0	
5	0	0	0	0	542	490	1021	0	0	0	
6	0	0	0	0	540	488	1021	0	0	0	
7	0	0	0	0	539	487	1021	0	0	0	
8	0	0	0	0	541	488	1021	0	0	0	
9	0	0	0	0	544	491	1021	0	0	0	
10	0	0	0	0	548	495	1021	0	0	0	
11	0	0	0	0	553	499	1020	0	0	0	
12	0	0	0	0	560	505	1021	0	0	0	
13	0	0	0	0	566	511	1021	0	0	0	
14	0	0	0	0	571	516	1021	0	0	0	
15	0	0	0	0	575	520	1021	0	0	0	
0	0	0	0	0	578	523	1021	0	0	0	
1	0	0	0	0	579	524	1021	0	0	0	
2	0	0	0	0	578	523	1021	0	0	0	
3	0	0	0	0	575	521	1021	0	0	0	
4	0	0	0	0	570	516	1021	0	0	0	
5	0	0	0	0	564	511	1021	0	0	0	
6	0	0	0	0	558	505	1021	0	0	0	
7	0	0	0	0	551	500	1021	0	0	0	
8	0	0	0	0	546	495	1021	0	0	0	
9	0	0	0	0	542	491	1021	0	0	0	
10	0	0	0	0	539	488	1021	0	0	0	
11	0	0	0	0	537	486	1020	0	0	0	
12	0	0	0	0	539	487	1021	0	0	0	
13	0	0	0	0	541	488	1021	0	0	0	
14	0	0	0	0	544	491	1021	0	0	0	
15	0	0	0	0	548	494	1021	0	0	0	
0	0	0	0	0	552	497	1021	0	0	0	
1	0	0	0	0	556	500	1021	0	0	0	
2	0	0	0	0	560	503	1021	0	0	0	
3	0	0	0	0	563	505	1021	0	0	0	
4	0	0	0	0	565	506	1021	0	0	0	
5	0	0	0	0	565	505	1021	0	0	0	
6	0	0	0	0	563	504	1021	0	0	0	
7	0	0	0	0	561	501	1021	0	0	0	
8	0	0	0	0	557	497	1021	0	0	0	
9	0	0	0	0	553	493	1021	0	0	0	
10	0	0	0	0	547	488	1020	0	0	0	
11	0	0	0	0	543	484	1021	0	0	0	
12	0	0	0	0	539	481	1021	0	0	0	
13	0	0	0	0	536	479	1021	0	0	0	
14	0	0	0	0	535	478	1021	0	0	0	
15	0	0	0	0	535	479	1021	0	0	0	
0	0	0	0	0	536	481	1021	0	0	0	
1	0	0	0	0	540	485	1021	0	0	0	
2	0	0	0	0	544	490	1021	0	0	0	
3	0	0	0	0	550	496	1021	0	0	0	
4	0	0	0	0	557	503	1021	0	0	0	
5	0	0	0	0	564	509	1021	0	0	0	
6	0	0	0	0	570	515	1021	0	0	0	
7	0	0	0	0	575	519	1021	0	0	0	
8	0	0	0	0	580	523	1021	0	0	0	
9	0	0	0	0	582	524	1021	0	0	0	
10	0	0	0	0	582	524	1021	0	0	0	
11	0	0	0	0	579	520	1021	0	0	0	
12	0	0	0	0	574	515	1021	0	0	0	
13	0	0	0	0	568	508	1021	0	0	0	
14	0	0	0	0	560	501	1020	0	0	0	
15	0	0	0	0	552	494	1021	0	0	0	
0	0	0	0	0	545	486	1021	0	0	0	
1	0	0	0	0	539	481	1021	0	0	0	
2	0	0	0	0	534	476	1021	0	0	0	
3	0	0	0	0	532	475	1021	0	0	0	
4	0	0	0	0	532	476	1021	0	0	0	
5	0	0	0	0	536	480	1021	0	0	0	
6	0	0	0	0	540	484	1021	0	0	0	
7	0	0	0	0	547	491	1021	0	0	0	
8	0	0	0	0	553	499	1021	0	0	0	
9	0	0	0	0	561	505	1021	0	0	0	
10	0	0	0	0	568	513	1021	0	0	0	
11	0	0	0	0	572	518	1021	0	0	0	
12	0	0	0	0	576	521	1021	0	0	0	
13	0	0	0	0	577	524	1020	0	0	0	
14	0	0	0	0	578	523	1021	0	0	0	
15	0	0	0	0	575	521	1021	0	0	0	
0	0	0	0	0	571	516	1021	0	0	0	
1	0	0	0	0	564	510	1020	0	0	0	
2	0	0	0	0	559	504	1021	0	0	0	
3	0	0	0	0	552	497	1021	0	0	0	
4	0	0	0	0	545	490	1021	0	0	0	
5	0	0	0	0	540	485	1021	0	0	0	
6	0	0	0	0	536	481	1021	0	0	0	
7	0	0	0	0	535	479	1021	0	0	0	
8	0	0	0	0	536	479	1021	0	0	0	
9	0	0	0	0	539	481	1021	0	0	0	
10	0	0	0	0	543	484	1021	0	0	0	
11	0	0	0	0	547	488	1021	0	0	0	
12	0	0	0	0	551	492	1020	0	0	0	
13	0	0	0	0	557	497	1021	0	0	0	
14	0	0	0	0	561	501	1021	0	0	0	
15	0	0	0	0	564	504	1021	0	0	0	
0	0	0	0	0	565	505	1021	0	0	0	
1	0	0	0	0	564	504	1021	0	0	0	
2	0	0	0	0	561	503	1021	0	0	0	
3	0	0	0	0	556	498	1021	0	0	0	
4	0	0	0	0	550	493	1021	0	0	0	
5	0	0	0	0	543	486	1021	0	0	0	
6	0	0	0	0	536	480	1021	0	0	0	
7	0	0	0	0	531	473	1021	0	0	0	
8	0	0	0	0	526	468	1021	0	0	0	
9	0	0	0	0	522	464	1021	0	0	0	
10	0	0	0	0	521	461	1021	0	0	0	
11	0	0	0	0	522	461	1021	0	0	0	
12	0	0	0	0	525	464	1021	0	0	0	
13	0	0	0	0	531	469	1021	0	0	0	
14	0	0	0	0	539	476	1021	0	0	0	
15	0	0	0	0	547	483	1021	0	0	0	
0	0	0	0	0	557	493	1021	0	0	0	
1	0	0	0	0	566	502	1021	0	0	0	
2	0	0	0	0	574	510	1021	0	0	0	
3	0	0	0	0	580	516	1021	0	0	0	
4	0	0	0	0	583	520	1021	0	0	0	
5	0	0	0	0	585	522	1021	0	0	0	
6	0	0	0	0	583	521	1021	0	0	0	
7	0	0	0	0	578	518	1021	0	0	0	
8	0	0	0	0	571	512	1021	0	0	0	
9	0	0	0	0	562	505	1021	0	0	0	
10	0	0	0	0	553	498	1021	0	0	0	
11	0	0	0	0	544	491	1021	0	0	0	
12	0	0	0	0	536	484	1021	0	0	0	
13	0	0	0	0	530	479	1021	0	0	0	
14	0	0	0	0	525	475	1021	0	0	0	
15	0	0	0	0	524	474	1021	0	0	0	
0	0	0	0	0	526	475	1021	0	0	0	
1	0	0	0	0	530	478	1021	0	0	0	
2	0	0	0	0	536	483	1021	0	0	0	
3	0	0	0	0	544	490	1021	0	0	0	
4	0	0	0	0	553	497	1021	0	0	0	
5	0	0	0	0	563	504	1021	0	0	0	
6	0	0	0	0	571	511	1021	0	0	0	
7	0	0	0	0	579	517	1021	0	0	0	
8	0	0	0	0	583	521	1021	0	0	0	
9	0	0	0	0	587	524	1021	0	0	0	
10	0	0	0	0	587	523	1021	0	0	0	
11	0	0	0	0	584	520	1021	0	0	0	
12	0	0	0	0	579	515	1021	0	0	0	
13	0	0	0	0	571	509	1021	0	0	0	
14	0	0	0	0	563	503	1021	0	0	0	
15	0	0	0	0	555	496	1021	0	0	0	
0	0	0	0	0	547	489	1021	0	0	0	
1	0	0	0	0	540	483	1021	0	0	0	
2	0	0	0	0	535	479	1021	0	0	0	
3	0	0	0	0	533	477	1021	0	0	0	
4	0	0	0	0	532	477	1021	0	0	0	
5	0	0	0	0	535	480	1021	0	0	0	
6	0	0	0	0	539	483	1021	0	0	0	
7	0	0	0	0	544	489	1021	0	0	0	
8	0	0	0	0	552	495	1021	0	0	0	
9	0	0	0	0	559	502	1021	0	0	0	
10	0	0	0	0	567	508	1021	0	0	0	
11	0	0	0	0	573	514	1021	0	0	0	
12	0	0	0	0	578	518	1021	0	0	0	
13	0	0	0	0	580	519	1021	0	0	0	
14	0	0	0	0	582	520	1021	0	0	0	
15	0	0	0	0	579	518	1021	0	0	0	
0	0	0	0	0	575	515	1021	0	0	0	
1	0	0	0	0	571	510	1021	0	0	0	
2	0	0	0	0	564	504	1021	0	0	0	
3	0	0	0	0	557	499	1021	0	0	0	
4	0	0	0	0	550	493	1021	0	0	0	
5	0	0	0	0	543	488	1021	0	0	0	
6	0	0	0	0	539	485	1021	0	0	0	
7	0	0	0	0	536	483	1021	0	0	0	
8	0	0	0	0	536	484	1021	0	0	0	
9	0	0	0	0	538	486	1021	0	0	0	
10	0	0	0	0	542	490	1021	0	0	0	
11	0	0	0	0	548	495	1021	0	0	0	
12	0	0	0	0	554	500	1020	0	0	0	
13	0	0	0	0	562	507	1021	0	0	0	
14	0	0	0	0	568	513	1021	0	0	0	
15	0	0	0	0	575	518	1021	0	0	0	
0	0	0	0	0	579	522	1021	0	0	0	
1	0	0	0	0	583	524	1021	0	0	0	
2	0	0	0	0	584	526	1021	0	0	0	
3	0	0	0	0	584	525	1021	0	0	0	
4	0	0	0	0	582	522	1020	0	0	0	
5	0	0	0	0	578	519	1021	0	0	0	
6	0	0	0	0	572	515	1021	0	0	0	
7	0	0	0	0	567	511	1021	0	0	0	
8	0	0	0	0	562	508	1021	0	0	0	
9	0	0	0	0	558	505	1021	0	0	0	
10	0	0	0	0	556	503	1021	0	0	0	
11	0	0	0	0	554	503	1020	0	0	0	
12	0	0	0	0	555	504	1021	0	0	0	
13	0	0	0	0	558	508	1021	0	0	0	
14	0	0	0	0	562	511	1021	0	0	0	
15	0	0	0	0	566	515	1021	0	0	0	
0	0	0	0	0	571	519	1021	0	0	0	
1	0	0	0	0	576	523	1021	0	0	0	
2	0	0	0	0	580	525	1021	0	0	0	
3	0	0	0	0	582	527	1021	0	0	0	
4	0	0	0	0	583	527	1020	0	0	0	
5	0	0	0	0	582	525	1021	0	0	0	
6	0	0	0	0	579	521	1021	0	0	0	
7	0	0	0	0	574	516	1021	0	0	0	
8	0	0	0	0	566	509	1021	0	0	0	
9	0	0	0	0	558	501	1021	0	0	0	
10	0	0	0	0	548	492	1020	0	0	0	
11	0	0	0	0	539	484	1021	0	0	0	
12	0	0	0	0	531	476	1021	0	0	0	
13	0	0	0	0	524	471	1021	0	0	0	
14	0	0	0	0	519	467	1021	0	0	0	
15	0	0	0	0	518	465	1021	0	0	0	
0	0	0	0	0	520	466	1021	0	0	0	
1	0	0	0	0	524	470	1021	0	0	0	
2	0	0	0	0	530	475	1021	0	0	0	
3	0	0	0	0	538	481	1021	0	0	0	
4	0	0	0	0	546	488	1021	0	0	0	
5	0	0	0	0	555	495	1021	0	0	0	
6	0	0	0	0	562	501	1021	0	0	0	
7	0	0	0	0	568	506	1021	0	0	0	
8	0	0	0	0	573	510	1021	0	0	0	
9	0	0	0	0	575	512	1021	0	0	0	
10	0	0	0	0	575	513	1021	0	0	0	
11	0	0	0	0	574	511	1021	0	0	0	
12	0	0	0	0	570	509	1021	0	0	0	
13	0	0	0	0	565	505	1021	0	0	0	
14	0	0	0	0	559	500	1021	0	0	0	
15	0	0	0	0	553	495	1021	0	0	0	
0	0	0	0	0	547	491	1021	0	0	0	
1	0	0	0	0	542	486	1021	0	0	0	
2	0	0	0	0	538	482	1021	0	0	0	
3	0	0	0	0	535	480	1020	0	0	0	
4	0	0	0	0	535	479	1021	0	0	0	
5	0	0	0	0	536	480	1021	0	0	0	
6	0	0	0	0	538	482	1021	0	0	0	
7	0	0	0	0	541	485	1021	0	0	0	
8	0	0	0	0	546	489	1021	0	0	0	
9	0	0	0	0	551	494	1021	0	0	0	
10	0	0	0	0	556	498	1021	0	0	0	
11	0	0	0	0	561	502	1021	0	0	0	
12	0	0	0	0	565	506	1021	0	0	0	
13	0	0	0	0	567	508	1021	0	0	0	
14	0	0	0	0	567	508	1021	0	0	0	
15	0	0	0	0	566	508	1021	0	0	0	
0	0	0	0	0	563	505	1021	0	0	0	
1	0	0	0	0	559	501	1021	0	0	0	
2	0	0	0	0	554	497	1021	0	0	0	
3	0	0	0	0	548	492	1021	0	0	0	
4	0	0	0	0	543	487	1021	0	0	0	
5	0	0	0	0	538	482	1021	0	0	0	
6	0	0	0	0	534	478	1021	0	0	0	
7	0	0	0	0	531	476	1020	0	0	0	
8	0	0	0	0	531	476	1021	0	0	0	
9	0	0	0	0	531	476	1021	0	0	0	
10	0	0	0	0	535	478	1021	0	0	0	
11	0	0	0	0	538	481	1021	0	0	0	
12	0	0	0	0	541	485	1020	0	0	0	
13	0	0	0	0	546	489	1021	0	0	0	
14	0	0	0	0	551	493	1021	0	0	0	
15	0	0	0	0	554	496	1021	0	0	0	
0	0	0	0	0	557	499	1021	0	0	0	
1	0	0	0	0	558	499	1021	0	0	0	
2	0	0	0	0	559	500	1021	0	0	0	
3	0	0	0	0	557	499	1021	0	0	0	
4	0	0	0	0	555	496	1021	0	0	0	
5	0	0	0	0	551	493	1021	0	0	0	
6	0	0	0	0	547	489	1021	0	0	0	
7	0	0	0	0	544	486	1021	0	0	0	
8	0	0	0	0	541	483	1021	0	0	0	
9	0	0	0	0	538	481	1021	0	0	0	
10	0	0	0	0	536	479	1021	0	0	0	
11	0	0	0	0	535	478	1020	0	0	0	
12	0	0	0	0	536	480	1021	0	0	0	
13	0	0	0	0	538	482	1021	0	0	0	
14	0	0	0	0	541	485	1021	0	0	0	
15	0	0	0	0	544	489	1021	0	0	0	
0	0	0	0	0	550	494	1021	0	0	0	
1	0	0	0	0	555	499	1021	0	0	0	
2	0	0	0	0	561	505	1021	0	0	0	
3	0	0	0	0	565	509	1021	0	0	0	
4	0	0	0	0	569	512	1021	0	0	0	
5	0	0	0	0	571	515	1021	0	0	0	
6	0	0	0	0	572	515	1021	0	0	0	
7	0	0	0	0	570	513	1021	0	0	0	
8	0	0	0	0	567	510	1021	0	0	0	
9	0	0	0	0	562	506	1020	0	0	0	
10	0	0	0	0	558	501	1021	0	0	0	
11	0	0	0	0	554	497	1021	0	0	0	
12	0	0	0	0	550	493	1021	0	0	0	
13	0	0	0	0	547	490	1021	0	0	0	
14	0	0	0	0	545	487	1021	0	0	0	
15	0	0	0	0	543	486	1021	0	0	0	
0	0	0	0	0	544	486	1021	0	0	0	
1	0	0	0	0	546	488	1021	0	0	0	
2	0	0	0	0	548	491	1021	0	0	0	
3	0	0	0	0	552	495	1021	0	0	0	
4	0	0	0	0	556	499	1021	0	0	0	
5	0	0	0	0	559	503	1021	0	0	0	
6	0	0	0	0	562	506	1021	0	0	0	
7	0	0	0	0	564	509	1021	0	0	0	
8	0	0	0	0	565	510	1021	0	0	0	
9	0	0	0	0	564	510	1021	0	0	0	
10	0	0	0	0	563	509	1021	0	0	0	
11	0	0	0	0	560	507	1021	0	0	0	
12	0	0	0	0	556	503	1021	0	0	0	
13	0	0	0	0	551	499	1021	0	0	0	
14	0	0	0	0	547	494	1021	0	0	0	
15	0	0	0	0	543	489	1021	0	0	0	
0	0	0	0	0	539	485	1021	0	0	0	
1	0	0	0	0	536	481	1021	0	0	0	
2	0	0	0	0	535	479	1021	0	0	0	
3	0	0	0	0	535	478	1021	0	0	0	
4	0	0	0	0	537	479	1021	0	0	0	
5	0	0	0	0	541	482	1021	0	0	0	
6	0	0	0	0	546	486	1021	0	0	0	
7	0	0	0	0	551	491	1021	0	0	0	
8	0	0	0	0	556	496	1021	0	0	0	
9	0	0	0	0	561	500	1021	0	0	0	
10	0	0	0	0	565	504	1021	0	0	0	
11	0	0	0	0	568	507	1021	0	0	0	
12	0	0	0	0	569	510	1021	0	0	0	
13	0	0	0	0	569	510	1020	0	0	0	
14	0	0	0	0	568	509	1021	0	0	0	
15	0	0	0	0	566	507	1021	0	0	0	
0	0	0	0	0	562	504	1021	0	0	0	
1	0	0	0	0	558	500	1020	0	0	0	
2	0	0	0	0	555	496	1021	0	0	0	
3	0	0	0	0	552	494	1021	0	0	0	
4	0	0	0	0	550	491	1021	0	0	0	
5	0	0	0	0	549	489	1021	0	0	0	
6	0	0	0	0	550	489	1021	0	0	0	
7	0	0	0	0	551	491	1021	0	0	0	
8	0	0	0	0	554	494	1021	0	0	0	
9	0	0	0	0	558	497	1021	0	0	0	
10	0	0	0	0	561	502	1021	0	0	0	
11	0	0	0	0	565	505	1021	0	0	0	
12	0	0	0	0	568	509	1021	0	0	0	
13	0	0	0	0	570	513	1021	0	0	0	
14	0	0	0	0	572	515	1021	0	0	0	
15	0	0	0	0	572	518	1021	0	0	0	
0	0	0	0	0	571	517	1021	0	0	0	
1	0	0	0	0	569	516	1021	0	0	0	
2	0	0	0	0	566	513	1021	0	0	0	
3	0	0	0	0	562	509	1021	0	0	0	
4	0	0	0	0	556	504	1021	0	0	0	
5	0	0	0	0	551	498	1021	0	0	0	
6	0	0	0	0	546	492	1021	0	0	0	
7	0	0	0	0	542	487	1021	0	0	0	
8	0	0	0	0	538	483	1021	0	0	0	
9	0	0	0	0	536	480	1021	0	0	0	
10	0	0	0	0	536	478	1021	0	0	0	
11	0	0	0	0	537	479	1021	0	0	0	
12	0	0	0	0	540	481	1021	0	0	0	
13	0	0	0	0	544	484	1021	0	0	0	
14	0	0	0	0	549	489	1021	0	0	0	
15	0	0	0	0	554	494	1021	0	0	0	
0	0	0	0	0	560	499	1021	0	0	0	
1	0	0	0	0	565	505	1021	0	0	0	
2	0	0	0	0	569	509	1021	0	0	0	
3	0	0	0	0	572	512	1021	0	0	0	
4	0	0	0	0	573	514	1021	0	0	0	
5	0	0	0	0	574	515	1021	0	0	0	
6	0	0	0	0	572	513	1021	0	0	0	
7	0	0	0	0	568	511	1021	0	0	0	
8	0	0	0	0	564	507	1021	0	0	0	
9	0	0	0	0	559	502	1021	0	0	0	
10	0	0	0	0	553	497	1021	0	0	0	
11	0	0	0	0	548	492	1021	0	0	0	
12	0	0	0	0	544	487	1021	0	0	0	
13	0	0	0	0	541	484	1021	0	0	0	
14	0	0	0	0	539	482	1021	0	0	0	
15	0	0	0	0	540	482	1021	0	0	0	
0	0	0	0	0	542	484	1021	0	0	0	
1	0	0	0	0	547	487	1021	0	0	0	
2	0	0	0	0	552	492	1021	0	0	0	
3	0	0	0	0	559	497	1020	0	0	0	
4	0	0	0	0	565	503	1021	0	0	0	
5	0	0	0	0	572	509	1021	0	0	0	
6	0	0	0	0	577	513	1021	0	0	0	
7	0	0	0	0	581	517	1021	0	0	0	
8	0	0	0	0	583	519	1021	0	0	0	
9	0	0	0	0	583	520	1021	0	0	0	
10	0	0	0	0	583	519	1021	0	0	0	
11	0	0	0	0	581	517	1021	0	0	0	
12	0	0	0	0	577	513	1020	0	0	0	
13	0	0	0	0	573	510	1021	0	0	0	
14	0	0	0	0	568	505	1021	0	0	0	
15	0	0	0	0	564	502	1021	0	0	0	
0	0	0	0	0	560	499	1021	0	0	0	
1	0	0	0	0	557	497	1021	0	0	0	
2	0	0	0	0	556	496	1021	0	0	0	
3	0	0	0	0	556	497	1021	0	0	0	
4	0	0	0	0	559	499	1021	0	0	0	
5	0	0	0	0	562	503	1021	0	0	0	
6	0	0	0	0	567	507	1021	0	0	0	
7	0	0	0	0	572	512	1021	0	0	0	
8	0	0	0	0	576	516	1021	0	0	0	
9	0	0	0	0	580	520	1021	0	0	0	
10	0	0	0	0	583	523	1021	0	0	0	
11	0	0	0	0	585	524	1021	0	0	0	
12	0	0	0	0	584	524	1021	0	0	0	
13	0	0	0	0	583	523	1021	0	0	0	
14	0	0	0	0	579	519	1021	0	0	0	
15	0	0	0	0	574	515	1021	0	0	0	
0	0	0	0	0	568	509	1021	0	0	0	
1	0	0	0	0	561	503	1021	0	0	0	
2	0	0	0	0	556	497	1021	0	0	0	
3	0	0	0	0	550	491	1021	0	0	0	
4	0	0	0	0	545	486	1021	0	0	0	
5	0	0	0	0	540	482	1020	0	0	0	
6	0	0	0	0	538	480	1021	0	0	0	
7	0	0	0	0	537	480	1021	0	0	0	
8	0	0	0	0	539	481	1021	0	0	0	
9	0	0	0	0	542	484	1021	0	0	0	
10	0	0	0	0	546	489	1021	0	0	0	
11	0	0	0	0	552	495	1021	0	0	0	
12	0	0	0	0	559	501	1021	0	0	0	
13	0	0	0	0	566	508	1021	0	0	0	
14	0	0	0	0	572	514	1021	0	0	0	
15	0	0	0	0	578	518	1021	0	0	0	
0	0	0	0	0	582	521	1021	0	0	0	
1	0	0	0	0	583	522	1021	0	0	0	
2	0	0	0	0	584	522	1021	0	0	0	
3	0	0	0	0	582	519	1021	0	0	0	
4	0	0	0	0	578	515	1021	0	0	0	
5	0	0	0	0	573	510	1021	0	0	0	
6	0	0	0	0	568	503	1021	0	0	0	
7	0	0	0	0	561	497	1021	0	0	0	
8	0	0	0	0	556	492	1021	0	0	0	
9	0	0	0	0	551	487	1021	0	0	0	
10	0	0	0	0	548	485	1021	0	0	0	
11	0	0	0	0	545	483	1021	0	0	0	
12	0	0	0	0	546	485	1021	0	0	0	
13	0	0	0	0	548	488	1021	0	0	0	
14	0	0	0	0	551	492	1021	0	0	0	
15	0	0	0	0	556	497	1021	0	0	0	
0	0	0	0	0	560	504	1021	0	0	0	
1	0	0	0	0	566	509	1021	0	0	0	
2	0	0	0	0	570	514	1021	0	0	0	
3	0	0	0	0	574	518	1021	0	0	0	
4	0	0	0	0	576	521	1021	0	0	0	
5	0	0	0	0	577	521	1021	0	0	0	
6	0	0	0	0	576	520	1021	0	0	0	
7	0	0	0	0	573	518	1021	0	0	0	
8	0	0	0	0	569	513	1021	0	0	0	
9	0	0	0	0	563	508	1021	0	0	0	
10	0	0	0	0	556	500	1020	0	0	0	
11	0	0	0	0	551	495	1021	0	0	0	
12	0	0	0	0	545	488	1021	0	0	0	
13	0	0	0	0	540	483	1021	0	0	0	
14	0	0	0	0	537	479	1021	0	0	0	
15	0	0	0	0	535	476	1021	0	0	0	
0	0	0	0	0	535	476	1021	0	0	0	
1	0	0	0	0	536	478	1021	0	0	0	
2	0	0	0	0	539	480	1021	0	0	0	
3	0	0	0	0	543	483	1021	0	0	0	
4	0	0	0	0	547	488	1021	0	0	0	
5	0	0	0	0	553	494	1021	0	0	0	
6	0	0	0	0	557	499	1021	0	0	0	
7	0	0	0	0	561	503	1021	0	0	0	
8	0	0	0	0	564	506	1021	0	0	0	
9	0	0	0	0	565	508	1020	0	0	0	
10	0	0	0	0	566	508	1021	0	0	0	
11	0	0	0	0	564	507	1021	0	0	0	
12	0	0	0	0	562	504	1021	0	0	0	
13	0	0	0	0	558	499	1021	0	0	0	
14	0	0	0	0	552	495	1021	0	0	0	
15	0	0	0	0	548	490	1021	0	0	0	
0	0	0	0	0	543	485	1021	0	0	0	
1	0	0	0	0	539	481	1021	0	0	0	
2	0	0	0	0	536	479	1021	0	0	0	
3	0	0	0	0	536	479	1020	0	0	0	
4	0	0	0	0	537	480	1021	0	0	0	
5	0	0	0	0	540	483	1021	0	0	0	
6	0	0	0	0	545	488	1021	0	0	0	
7	0	0	0	0	551	494	1021	0	0	0	
8	0	0	0	0	557	500	1021	0	0	0	
9	0	0	0	0	564	507	1021	0	0	0	
10	0	0	0	0	571	513	1021	0	0	0	
11	0	0	0	0	576	518	1021	0	0	0	
12	0	0	0	0	580	521	1021	0	0	0	
13	0	0	0	0	582	524	1021	0	0	0	
14	0	0	0	0	583	524	1021	0	0	0	
15	0	0	0	0	582	522	1021	0	0	0	
0	0	0	0	0	578	519	1021	0	0	0	
1	0	0	0	0	574	515	1021	0	0	0	
2	0	0	0	0	568	510	1021	0	0	0	
3	0	0	0	0	563	505	1021	0	0	0	
4	0	0	0	0	558	500	1021	0	0	0	
5	0	0	0	0	554	496	1021	0	0	0	
6	0	0	0	0	551	492	1021	0	0	0	
7	0	0	0	0	549	491	1021	0	0	0	
8	0	0	0	0	548	490	1021	0	0	0	
9	0	0	0	0	550	491	1021	0	0	0	
10	0	0	0	0	552	493	1021	0	0	0	
11	0	0	0	0	554	495	1021	0	0	0	
12	0	0	0	0	558	499	1021	0	0	0	
13	0	0	0	0	560	502	1021	0	0	0	
14	0	0	0	0	562	504	1021	0	0	0	
15	0	0	0	0	564	505	1021	0	0	0	
0	0	0	0	0	564	506	1021	0	0	0	
1	0	0	0	0	563	505	1021	0	0	0	
2	0	0	0	0	561	503	1021	0	0	0	
3	0	0	0	0	558	500	1021	0	0	0	
4	0	0	0	0	553	496	1021	0	0	0	
5	0	0	0	0	548	491	1021	0	0	0	
6	0	0	0	0	544	487	1021	0	0	0	
7	0	0	0	0	540	482	1021	0	0	0	
8	0	0	0	0	537	478	1021	0	0	0	
9	0	0	0	0	536	476	1021	0	0	0	
10	0	0	0	0	535	475	1021	0	0	0	
11	0	0	0	0	536	476	1021	0	0	0	
12	0	0	0	0	539	478	1021	0	0	0	
13	0	0	0	0	543	482	1021	0	0	0	
14	0	0	0	0	548	487	1021	0	0	0	
15	0	0	0	0	554	493	1021	0	0	0	
0	0	0	0	0	560	500	1021	0	0	0	
1	0	0	0	0	566	505	1021	0	0	0	
2	0	0	0	0	571	510	1021	0	0	0	
3	0	0	0	0	574	513	1021	0	0	0	
4	0	0	0	0	575	515	1021	0	0	0	
5	0	0	0	0	575	515	1021	0	0	0	
6	0	0	0	0	574	513	1021	0	0	0	
7	0	0	0	0	570	510	1021	0	0	0	
8	0	0	0	0	565	506	1021	0	0	0	
9	0	0	0	0	559	500	1021	0	0	0	
10	0	0	0	0	553	496	1021	0	0	0	
11	0	0	0	0	549	491	1021	0	0	0	
12	0	0	0	0	544	486	1021	0	0	0	
13	0	0	0	0	542	484	1021	0	0	0	
14	0	0	0	0	540	482	1021	0	0	0	
15	0	0	0	0	540	482	1021	0	0	0	
0	0	0	0	0	542	483	1021	0	0	0	
1	0	0	0	0	544	486	1021	0	0	0	
2	0	0	0	0	548	489	1021	0	0	0	
3	0	0	0	0	551	492	1021	0	0	0	
4	0	0	0	0	555	495	1021	0	0	0	
5	0	0	0	0	558	498	1021	0	0	0	
6	0	0	0	0	559	499	1021	0	0	0	
7	0	0	0	0	558	499	1021	0	0	0	
8	0	0	0	0	555	497	1021	0	0	0	
9	0	0	0	0	549	493	1021	0	0	0	
10	0	0	0	0	541	487	1021	0	0	0	
11	0	0	0	0	530	478	1021	0	0	0	
12	0	0	0	0	519	467	1021	0	0	0	
13	0	0	0	0	505	455	1021	0	0	0	
14	0	0	0	0	491	442	1021	0	0	0	
15	0	0	0	0	477	428	1021	0	0	0	
0	0	0	0	0	463	415	1021	0	0	0	
1	0	0	0	0	450	402	1021	0	0	0	
2	0	0	0	0	438	390	1021	0	0	0	
3	0	0	0	0	428	379	1021	0	0	0	
4	0	0	0	0	419	371	1021	0	0	0	
5	0	0	0	0	412	364	1021	0	0	0	
6	0	0	0	0	407	358	1021	0	0	0	
7	0	0	0	0	402	352	1021	0	0	0	
8	0	0	0	0	398	348	1021	0	0	0	
9	0	0	0	0	393	342	1021	0	0	0	
10	0	0	0	0	388	337	1021	0	0	0	
11	0	0	0	0	382	330	1021	0	0	0	
12	0	0	0	0	375	323	1021	0	0	0	
13	0	0	0	0	366	314	1021	0	0	0	
14	0	0	0	0	358	306	1021	0	0	0	
15	0	0	0	0	350	298	1021	0	0	0	
0	0	0	0	0	344	291	1021	0	0	0	
1	0	0	0	0	340	287	1021	0	0	0	
2	0	0	0	0	339	286	1020	0	0	0	
3	0	0	0	0	342	287	1021	0	0	0	
4	0	0	0	0	349	293	1021	0	0	0	
5	0	0	0	0	361	303	1021	0	0	0	
6	0	0	0	0	377	317	1021	0	0	0	
7	0	0	0	0	398	334	1021	0	0	0	
8	0	0	0	0	422	356	1021	0	0	0	
9	0	0	0	0	449	380	1021	0	0	0	
10	0	0	0	0	478	406	1021	0	0	0	
11	0	0	0	0	507	431	1021	0	0	0	
12	0	0	0	0	534	457	1021	0	0	0	
13	0	0	0	0	560	481	1021	0	0	0	
14	0	0	0	0	583	503	1021	0	0	0	
15	0	0	0	0	600	520	1021	0	0	0	
0	0	0	0	0	615	535	1021	0	0	0	
1	0	0	0	0	623	544	1021	0	0	0	
2	0	0	0	0	627	550	1021	0	0	0	
3	0	0	0	0	627	551	1021	0	0	0	
4	0	0	0	0	623	550	1021	0	0	0	
5	0	0	0	0	615	545	1021	0	0	0	
6	0	0	0	0	605	540	1021	0	0	0	
7	0	0	0	0	595	532	1021	0	0	0	
8	0	0	0	0	584	524	1021	0	0	0	
9	0	0	0	0	574	517	1021	0	0	0	
10	0	0	0	0	565	511	1021	0	0	0	
11	0	0	0	0	558	506	1021	0	0	0	
12	0	0	0	0	555	504	1021	0	0	0	
13	0	0	0	0	553	503	1021	0	0	0	
14	0	0	0	0	554	504	1021	0	0	0	
15	0	0	0	0	557	507	1021	0	0	0	
0	0	0	0	0	561	511	1021	0	0	0	
1	0	0	0	0	567	514	1021	0	0	0	
2	0	0	0	0	572	518	1021	0	0	0	
3	0	0	0	0	577	521	1021	0	0	0	
4	0	0	0	0	581	524	1021	0	0	0	
5	0	0	0	0	583	524	1021	0	0	0	
6	0	0	0	0	583	523	1021	0	0	0	
7	0	0	0	0	582	521	1021	0	0	0	
8	0	0	0	0	579	517	1021	0	0	0	
9	0	0	0	0	575	513	1021	0	0	0	
10	0	0	0	0	569	508	1021	0	0	0	
11	0	0	0	0	565	503	1021	0	0	0	
12	0	0	0	0	560	499	1021	0	0	0	
13	0	0	0	0	556	496	1021	0	0	0	
14	0	0	0	0	553	493	1021	0	0	0	
15	0	0	0	0	552	493	1021	0	0	0	
0	0	0	0	0	553	494	1021	0	0	0	
1	0	0	0	0	556	497	1021	0	0	0	
2	0	0	0	0	560	501	1021	0	0	0	
3	0	0	0	0	566	505	1021	0	0	0	
4	0	0	0	0	572	511	1021	0	0	0	
5	0	0	0	0	578	516	1021	0	0	0	
6	0	0	0	0	583	521	1021	0	0	0	
7	0	0	0	0	588	525	1021	0	0	0	
8	0	0	0	0	591	527	1021	0	0	0	
9	0	0	0	0	592	529	1021	0	0	0	
10	0	0	0	0	592	528	1021	0	0	0	
11	0	0	0	0	589	526	1021	0	0	0	
12	0	0	0	0	585	523	1021	0	0	0	
13	0	0	0	0	580	518	1021	0	0	0	
14	0	0	0	0	575	513	1021	0	0	0	
15	0	0	0	0	570	509	1021	0	0	0	
0	0	0	0	0	565	505	1021	0	0	0	
1	0	0	0	0	561	502	1021	0	0	0	
2	0	0	0	0	559	500	1021	0	0	0	
3	0	0	0	0	558	500	1021	0	0	0	
4	0	0	0	0	560	503	1021	0	0	0	
5	0	0	0	0	563	506	1021	0	0	0	
6	0	0	0	0	568	511	1021	0	0	0	
7	0	0	0	0	572	516	1021	0	0	0	
8	0	0	0	0	578	521	1021	0	0	0	
9	0	0	0	0	583	526	1021	0	0	0	
10	0	0	0	0	587	529	1021	0	0	0	
11	0	0	0	0	589	531	1021	0	0	0	
12	0	0	0	0	589	531	1021	0	0	0	
13	0	0	0	0	587	528	1021	0	0	0	
14	0	0	0	0	584	525	1021	0	0	0	
15	0	0	0	0	579	519	1021	0	0	0	
0	0	0	0	0	573	513	1021	0	0	0	
1	0	0	0	0	566	506	1021	0	0	0	
2	0	0	0	0	559	500	1021	0	0	0	
3	0	0	0	0	553	494	1021	0	0	0	
4	0	0	0	0	549	490	1021	0	0	0	
5	0	0	0	0	546	487	1021	0	0	0	
6	0	0	0	0	545	486	1020	0	0	0	
7	0	0	0	0	547	487	1021	0	0	0	
8	0	0	0	0	551	491	1021	0	0	0	
9	0	0	0	0	555	496	1021	0	0	0	
10	0	0	0	0	561	501	1021	0	0	0	
11	0	0	0	0	568	507	1021	0	0	0	
12	0	0	0	0	574	512	1021	0	0	0	
13	0	0	0	0	580	519	1021	0	0	0	
14	0	0	0	0	585	523	1021	0	0	0	
15	0	0	0	0	589	526	1021	0	0	0	
0	0	0	0	0	590	527	1021	0	0	0	
1	0	0	0	0	590	527	1021	0	0	0	
2	0	0	0	0	588	524	1021	0	0	0	
3	0	0	0	0	585	520	1021	0	0	0	
4	0	0	0	0	579	515	1021	0	0	0	
5	0	0	0	0	574	510	1020	0	0	0	
6	0	0	0	0	568	504	1021	0	0	0	
7	0	0	0	0	562	499	1021	0	0	0	
8	0	0	0	0	558	495	1021	0	0	0	
9	0	0	0	0	554	492	1020	0	0	0	
10	0	0	0	0	552	490	1021	0	0	0	
11	0	0	0	0	551	489	1021	0	0	0	
12	0	0	0	0	552	492	1021	0	0	0	
13	0	0	0	0	555	495	1021	0	0	0	
14	0	0	0	0	559	499	1021	0	0	0	
15	0	0	0	0	563	504	1021	0	0	0	
0	0	0	0	0	568	510	1021	0	0	0	
1	0	0	0	0	573	515	1021	0	0	0	
2	0	0	0	0	577	519	1021	0	0	0	
3	0	0	0	0	580	523	1021	0	0	0	
4	0	0	0	0	582	524	1021	0	0	0	
5	0	0	0	0	583	525	1021	0	0	0	
6	0	0	0	0	582	524	1021	0	0	0	
7	0	0	0	0	579	521	1021	0	0	0	
8	0	0	0	0	575	517	1021	0	0	0	
9	0	0	0	0	569	512	1021	0	0	0	
10	0	0	0	0	564	506	1021	0	0	0	
11	0	0	0	0	558	501	1021	0	0	0	
12	0	0	0	0	553	495	1021	0	0	0	
13	0	0	0	0	550	491	1021	0	0	0	
14	0	0	0	0	547	488	1021	0	0	0	
15	0	0	0	0	547	487	1021	0	0	0	
0	0	0	0	0	548	488	1021	0	0	0	
1	0	0	0	0	552	492	1021	0	0	0	
2	0	0	0	0	556	496	1021	0	0	0	
3	0	0	0	0	563	502	1021	0	0	0	
4	0	0	0	0	569	508	1021	0	0	0	
5	0	0	0	0	575	513	1021	0	0	0	
6	0	0	0	0	581	519	1021	0	0	0	
7	0	0	0	0	585	524	1021	0	0	0	
8	0	0	0	0	588	526	1021	0	0	0	
9	0	0	0	0	588	527	1021	0	0	0	
10	0	0	0	0	586	525	1021	0	0	0	
11	0	0	0	0	582	521	1021	0	0	0	
12	0	0	0	0	576	516	1021	0	0	0	
13	0	0	0	0	569	510	1021	0	0	0	
14	0	0	0	0	562	503	1021	0	0	0	
15	0	0	0	0	555	496	1021	0	0	0	
0	0	0	0	0	549	491	1021	0	0	0	
1	0	0	0	0	544	487	1021	0	0	0	
2	0	0	0	0	542	484	1021	0	0	0	
3	0	0	0	0	541	483	1021	0	0	0	
4	0	0	0	0	543	486	1021	0	0	0	
5	0	0	0	0	547	489	1021	0	0	0	
6	0	0	0	0	554	495	1021	0	0	0	
7	0	0	0	0	561	501	1021	0	0	0	
8	0	0	0	0	568	508	1021	0	0	0	
9	0	0	0	0	575	514	1021	0	0	0	
10	0	0	0	0	582	519	1021	0	0	0	
11	0	0	0	0	586	524	1021	0	0	0	
12	0	0	0	0	589	526	1021	0	0	0	
13	0	0	0	0	589	527	1021	0	0	0	
14	0	0	0	0	587	525	1021	0	0	0	
15	0	0	0	0	583	521	1021	0	0	0	
0	0	0	0	0	576	515	1021	0	0	0	
1	0	0	0	0	568	508	1021	0	0	0	
2	0	0	0	0	560	501	1021	0	0	0	
3	0	0	0	0	552	494	1021	0	0	0	
4	0	0	0	0	545	487	1021	0	0	0	
5	0	0	0	0	540	482	1021	0	0	0	
6	0	0	0	0	537	479	1021	0	0	0	
7	0	0	0	0	535	478	1021	0	0	0	
8	0	0	0	0	537	479	1021	0	0	0	
9	0	0	0	0	540	481	1021	0	0	0	
10	0	0	0	0	545	485	1021	0	0	0	
11	0	0	0	0	551	490	1021	0	0	0	
12	0	0	0	0	558	496	1021	0	0	0	
13	0	0	0	0	566	502	1021	0	0	0	
14	0	0	0	0	572	508	1021	0	0	0	
15	0	0	0	0	577	512	1021	0	0	0	
0	0	0	0	0	581	515	1020	0	0	0	
1	0	0	0	0	582	517	1021	0	0	0	
2	0	0	0	0	582	517	1021	0	0	0	
3	0	0	0	0	580	515	1021	0	0	0	
4	0	0	0	0	576	513	1021	0	0	0	
5	0	0	0	0	572	509	1021	0	0	0	
6	0	0	0	0	565	504	1021	0	0	0	
7	0	0	0	0	560	499	1021	0	0	0	
8	0	0	0	0	553	495	1021	0	0	0	
9	0	0	0	0	548	490	1021	0	0	0	
10	0	0	0	0	543	486	1021	0	0	0	
11	0	0	0	0	540	484	1021	0	0	0	
12	0	0	0	0	540	484	1021	0	0	0	
13	0	0	0	0	540	485	1021	0	0	0	
14	0	0	0	0	543	487	1021	0	0	0	
15	0	0	0	0	547	491	1021	0	0	0	
0	0	0	0	0	551	495	1021	0	0	0	
1	0	0	0	0	557	500	1021	0	0	0	
2	0	0	0	0	561	504	1021	0	0	0	
3	0	0	0	0	566	508	1020	0	0	0	
4	0	0	0	0	568	510	1021	0	0	0	
5	0	0	0	0	570	511	1021	0	0	0	
6	0	0	0	0	571	511	1021	0	0	0	
7	0	0	0	0	569	509	1021	0	0	0	
8	0	0	0	0	565	505	1021	0	0	0	
9	0	0	0	0	560	499	1021	0	0	0	
10	0	0	0	0	555	494	1021	0	0	0	
11	0	0	0	0	550	489	1021	0	0	0	
12	0	0	0	0	545	484	1021	0	0	0	
13	0	0	0	0	540	480	1021	0	0	0	
14	0	0	0	0	538	477	1021	0	0	0	
15	0	0	0	0	537	476	1021	0	0	0	
0	0	0	0	0	538	478	1021	0	0	0	
1	0	0	0	0	541	480	1021	0	0	0	
2	0	0	0	0	546	485	1021	0	0	0	
3	0	0	0	0	552	490	1021	0	0	0	
4	0	0	0	0	558	496	1021	0	0	0	
5	0	0	0	0	564	503	1021	0	0	0	
6	0	0	0	0	570	508	1021	0	0	0	
7	0	0	0	0	574	512	1021	0	0	0	
8	0	0	0	0	577	513	1021	0	0	0	
9	0	0	0	0	577	514	1021	0	0	0	
10	0	0	0	0	575	512	1021	0	0	0	
11	0	0	0	0	572	508	1021	0	0	0	
12	0	0	0	0	566	503	1021	0	0	0	
13	0	0	0	0	560	497	1021	0	0	0	
14	0	0	0	0	553	491	1021	0	0	0	
15	0	0	0	0	547	485	1021	0	0	0	
0	0	0	0	0	542	479	1021	0	0	0	
1	0	0	0	0	538	476	1021	0	0	0	
2	0	0	0	0	536	473	1021	0	0	0	
3	0	0	0	0	535	472	1021	0	0	0	
4	0	0	0	0	537	474	1021	0	0	0	
5	0	0	0	0	541	477	1021	0	0	0	
6	0	0	0	0	546	482	1021	0	0	0	
7	0	0	0	0	553	487	1021	0	0	0	
8	0	0	0	0	560	493	1021	0	0	0	
9	0	0	0	0	566	499	1021	0	0	0	
10	0	0	0	0	572	505	1021	0	0	0	
11	0	0	0	0	576	509	1021	0	0	0	
12	0	0	0	0	580	512	1021	0	0	0	
13	0	0	0	0	580	514	1021	0	0	0	
14	0	0	0	0	580	514	1021	0	0	0	
15	0	0	0	0	577	512	1021	0	0	0	
0	0	0	0	0	572	508	1021	0	0	0	
1	0	0	0	0	567	504	1021	0	0	0	
2	0	0	0	0	560	499	1021	0	0	0	
3	0	0	0	0	553	494	1021	0	0	0	
4	0	0	0	0	547	489	1021	0	0	0	
5	0	0	0	0	542	485	1021	0	0	0	
6	0	0	0	0	539	481	1021	0	0	0	
7	0	0	0	0	536	480	1021	0	0	0	
8	0	0	0	0	536	480	1021	0	0	0	
9	0	0	0	0	539	482	1021	0	0	0	
10	0	0	0	0	543	485	1021	0	0	0	
11	0	0	0	0	549	490	1021	0	0	0	
12	0	0	0	0	555	495	1021	0	0	0	
13	0	0	0	0	562	501	1021	0	0	0	
14	0	0	0	0	568	506	1021	0	0	0	
15	0	0	0	0	573	511	1021	0	0	0	
0	0	0	0	0	577	514	1021	0	0	0	
1	0	0	0	0	579	516	1021	0	0	0	
2	0	0	0	0	579	516	1021	0	0	0	
3	0	0	0	0	577	515	1021	0	0	0	
4	0	0	0	0	573	512	1020	0	0	0	
5	0	0	0	0	568	507	1021	0	0	0	
6	0	0	0	0	562	502	1021	0	0	0	
7	0	0	0	0	556	497	1021	0	0	0	
8	0	0	0	0	551	493	1021	0	0	0	
9	0	0	0	0	546	489	1021	0	0	0	
10	0	0	0	0	543	486	1021	0	0	0	
11	0	0	0	0	542	484	1021	0	0	0	
12	0	0	0	0	543	486	1021	0	0	0	
13	0	0	0	0	545	487	1021	0	0	0	
14	0	0	0	0	549	491	1021	0	0	0	
15	0	0	0	0	554	495	1021	0	0	0	
0	0	0	0	0	560	500	1021	0	0	0	
1	0	0	0	0	566	505	1021	0	0	0	
2	0	0	0	0	572	511	1021	0	0	0	
3	0	0	0	0	575	515	1021	0	0	0	
4	0	0	0	0	579	518	1021	0	0	0	
5	0	0	0	0	580	519	1021	0	0	0	
6	0	0	0	0	579	519	1021	0	0	0	
7	0	0	0	0	577	515	1021	0	0	0	
8	0	0	0	0	572	512	1021	0	0	0	
9	0	0	0	0	566	506	1021	0	0	0	
10	0	0	0	0	559	500	1021	0	0	0	
11	0	0	0	0	552	494	1021	0	0	0	
12	0	0	0	0	545	488	1021	0	0	0	
13	0	0	0	0	540	483	1021	0	0	0	
14	0	0	0	0	536	479	1021	0	0	0	
15	0	0	0	0	534	478	1021	0	0	0	
0	0	0	0	0	535	478	1021	0	0	0	
1	0	0	0	0	537	480	1021	0	0	0	
2	0	0	0	0	542	484	1021	0	0	0	
3	0	0	0	0	547	489	1021	0	0	0	
4	0	0	0	0	555	495	1021	0	0	0	
5	0	0	0	0	563	501	1021	0	0	0	
6	0	0	0	0	569	507	1021	0	0	0	
7	0	0	0	0	576	512	1021	0	0	0	
8	0	0	0	0	580	516	1021	0	0	0	
9	0	0	0	0	583	519	1021	0	0	0	
10	0	0	0	0	585	519	1021	0	0	0	
11	0	0	0	0	584	518	1021	0	0	0	
12	0	0	0	0	581	515	1021	0	0	0	
13	0	0	0	0	577	511	1021	0	0	0	
14	0	0	0	0	573	507	1021	0	0	0	
15	0	0	0	0	568	502	1021	0	0	0	
0	0	0	0	0	563	497	1021	0	0	0	
1	0	0	0	0	558	494	1021	0	0	0	
2	0	0	0	0	554	491	1021	0	0	0	
3	0	0	0	0	552	491	1021	0	0	0	
4	0	0	0	0	553	492	1021	0	0	0	
5	0	0	0	0	555	494	1021	0	0	0	
6	0	0	0	0	559	498	1021	0	0	0	
7	0	0	0	0	563	503	1021	0	0	0	
8	0	0	0	0	568	510	1021	0	0	0	
9	0	0	0	0	574	515	1021	0	0	0	
10	0	0	0	0	579	520	1021	0	0	0	
11	0	0	0	0	583	523	1021	0	0	0	
12	0	0	0	0	584	525	1021	0	0	0	
13	0	0	0	0	584	525	1021	0	0	0	
14	0	0	0	0	583	523	1021	0	0	0	
15	0	0	0	0	580	519	1021	0	0	0	
0	0	0	0	0	575	514	1021	0	0	0	
1	0	0	0	0	569	508	1021	0	0	0	
2	0	0	0	0	563	502	1021	0	0	0	
3	0	0	0	0	558	496	1021	0	0	0	
4	0	0	0	0	553	490	1021	0	0	0	
5	0	0	0	0	548	486	1021	0	0	0	
6	0	0	0	0	545	482	1021	0	0	0	
7	0	0	0	0	545	481	1020	0	0	0	
8	0	0	0	0	545	481	1021	0	0	0	
9	0	0	0	0	548	484	1021	0	0	0	
10	0	0	0	0	552	487	1021	0	0	0	
11	0	0	0	0	556	492	1020	0	0	0	
12	0	0	0	0	562	496	1021	0	0	0	
13	0	0	0	0	567	502	1021	0	0	0	
14	0	0	0	0	571	506	1021	0	0	0	
15	0	0	0	0	574	510	1021	0	0	0	
0	0	0	0	0	574	512	1020	0	0	0	
1	0	0	0	0	575	512	1021	0	0	0	
2	0	0	0	0	574	512	1021	0	0	0	
3	0	0	0	0	571	510	1021	0	0	0	
4	0	0	0	0	568	506	1021	0	0	0	
5	0	0	0	0	563	501	1021	0	0	0	
6	0	0	0	0	559	496	1021	0	0	0	
7	0	0	0	0	555	492	1021	0	0	0	
8	0	0	0	0	551	488	1021	0	0	0	
9	0	0	0	0	548	486	1021	0	0	0	
10	0	0	0	0	548	484	1021	0	0	0	
11	0	0	0	0	548	484	1021	0	0	0	
12	0	0	0	0	551	487	1021	0	0	0	
13	0	0	0	0	553	490	1021	0	0	0	
14	0	0	0	0	558	495	1021	0	0	0	
15	0	0	0	0	562	499	1021	0	0	0	
0	0	0	0	0	567	504	1021	0	0	0	
1	0	0	0	0	572	509	1021	0	0	0	
2	0	0	0	0	576	514	1021	0	0	0	
3	0	0	0	0	578	517	1021	0	0	0	
4	0	0	0	0	580	519	1021	0	0	0	
5	0	0	0	0	580	519	1021	0	0	0	
6	0	0	0	0	579	517	1021	0	0	0	
7	0	0	0	0	575	513	1021	0	0	0	
8	0	0	0	0	571	509	1021	0	0	0	
9	0	0	0	0	565	503	1021	0	0	0	
10	0	0	0	0	559	497	1021	0	0	0	
11	0	0	0	0	554	493	1021	0	0	0	
12	0	0	0	0	549	488	1021	0	0	0	
13	0	0	0	0	545	485	1021	0	0	0	
14	0	0	0	0	543	483	1021	0	0	0	
15	0	0	0	0	541	482	1021	0	0	0	
0	0	0	0	0	541	483	1021	0	0	0	
1	0	0	0	0	543	487	1021	0	0	0	
2	0	0	0	0	546	490	1021	0	0	0	
3	0	0	0	0	551	496	1021	0	0	0	
4	0	0	0	0	555	500	1021	0	0	0	
5	0	0	0	0	560	506	1021	0	0	0	
6	0	0	0	0	563	510	1021	0	0	0	
7	0	0	0	0	567	513	1021	0	0	0	
8	0	0	0	0	568	514	1021	0	0	0	
9	0	0	0	0	569	513	1021	0	0	0	
10	0	0	0	0	568	512	1021	0	0	0	
11	0	0	0	0	566	509	1021	0	0	0	
12	0	0	0	0	561	504	1021	0	0	0	
13	0	0	0	0	556	499	1020	0	0	0	
14	0	0	0	0	552	493	1021	0	0	0	
15	0	0	0	0	548	488	1021	0	0	0	
0	0	0	0	0	545	484	1021	0	0	0	
1	0	0	0	0	542	481	1021	0	0	0	
2	0	0	0	0	540	479	1021	0	0	0	
3	0	0	0	0	540	479	1021	0	0	0	
4	0	0	0	0	542	481	1021	0	0	0	
5	0	0	0	0	545	484	1021	0	0	0	
6	0	0	0	0	550	489	1021	0	0	0	
7	0	0	0	0	555	494	1021	0	0	0	
8	0	0	0	0	560	500	1021	0	0	0	
9	0	0	0	0	566	505	1021	0	0	0	
10	0	0	0	0	571	511	1021	0	0	0	
11	0	0	0	0	575	515	1021	0	0	0	
12	0	0	0	0	578	518	1021	0	0	0	
13	0	0	0	0	579	519	1021	0	0	0	
14	0	0	0	0	579	518	1021	0	0	0	
15	0	0	0	0	577	515	1021	0	0	0	
0	0	0	0	0	573	512	1021	0	0	0	
1	0	0	0	0	568	507	1021	0	0	0	
2	0	0	0	0	561	500	1021	0	0	0	
3	0	0	0	0	556	495	1021	0	0	0	
4	0	0	0	0	550	489	1021	0	0	0	
5	0	0	0	0	545	485	1021	0	0	0	
6	0	0	0	0	542	482	1021	0	0	0	
7	0	0	0	0	540	482	1021	0	0	0	
8	0	0	0	0	542	483	1021	0	0	0	
9	0	0	0	0	545	486	1021	0	0	0	
10	0	0	0	0	550	491	1021	0	0	0	
11	0	0	0	0	556	496	1021	0	0	0	
12	0	0	0	0	562	502	1021	0	0	0	
13	0	0	0	0	569	508	1021	0	0	0	
14	0	0	0	0	574	513	1021	0	0	0	
15	0	0	0	0	578	517	1021	0	0	0	
0	0	0	0	0	580	519	1020	0	0	0	
1	0	0	0	0	581	519	1021	0	0	0	
2	0	0	0	0	579	518	1021	0	0	0	
3	0	0	0	0	576	515	1021	0	0	0	
4	0	0	0	0	571	510	1021	0	0	0	
5	0	0	0	0	565	505	1021	0	0	0	
6	0	0	0	0	559	499	1021	0	0	0	
7	0	0	0	0	553	494	1021	0	0	0	
8	0	0	0	0	547	489	1021	0	0	0	
9	0	0	0	0	543	486	1021	0	0	0	
10	0	0	0	0	540	483	1021	0	0	0	
11	0	0	0	0	540	482	1021	0	0	0	
12	0	0	0	0	542	483	1021	0	0	0	
13	0	0	0	0	546	487	1021	0	0	0	
14	0	0	0	0	551	492	1021	0	0	0	
15	0	0	0	0	557	497	1021	0	0	0	
0	0	0	0	0	563	504	1021	0	0	0	
1	0	0	0	0	570	510	1021	0	0	0	
2	0	0	0	0	575	515	1021	0	0	0	
3	0	0	0	0	580	519	1021	0	0	0	
4	0	0	0	0	582	522	1021	0	0	0	
5	0	0	0	0	583	524	1021	0	0	0	
6	0	0	0	0	583	523	1021	0	0	0	
7	0	0	0	0	579	520	1021	0	0	0	
8	0	0	0	0	575	516	1021	0	0	0	
9	0	0	0	0	569	510	1021	0	0	0	
10	0	0	0	0	562	505	1021	0	0	0	
11	0	0	0	0	556	499	1021	0	0	0	
12	0	0	0	0	550	495	1021	0	0	0	
13	0	0	0	0	545	490	1021	0	0	0	
14	0	0	0	0	541	487	1021	0	0	0	
15	0	0	0	0	539	485	1021	0	0	0	
0	0	0	0	0	540	485	1021	0	0	0	
1	0	0	0	0	542	487	1021	0	0	0	
2	0	0	0	0	546	491	1021	0	0	0	
3	0	0	0	0	551	495	1021	0	0	0	
4	0	0	0	0	558	500	1021	0	0	0	
5	0	0	0	0	564	507	1021	0	0	0	
6	0	0	0	0	571	512	1021	0	0	0	
7	0	0	0	0	576	517	1021	0	0	0	
8	0	0	0	0	579	520	1020	0	0	0	
9	0	0	0	0	581	521	1021	0	0	0	
10	0	0	0	0	582	522	1021	0	0	0	
11	0	0	0	0	580	520	1021	0	0	0	
12	0	0	0	0	577	516	1021	0	0	0	
13	0	0	0	0	572	512	1020	0	0	0	
14	0	0	0	0	566	507	1021	0	0	0	
15	0	0	0	0	560	501	1021	0	0	0	
0	0	0	0	0	554	496	1021	0	0	0	
1	0	0	0	0	548	490	1021	0	0	0	
2	0	0	0	0	543	487	1020	0	0	0	
3	0	0	0	0	542	485	1021	0	0	0	
4	0	0	0	0	542	486	1021	0	0	0	
5	0	0	0	0	544	488	1021	0	0	0	
6	0	0	0	0	547	492	1021	0	0	0	
7	0	0	0	0	552	496	1021	0	0	0	
8	0	0	0	0	558	501	1021	0	0	0	
9	0	0	0	0	565	507	1021	0	0	0	
10	0	0	0	0	571	512	1021	0	0	0	
11	0	0	0	0	575	515	1021	0	0	0	
12	0	0	0	0	579	518	1021	0	0	0	
13	0	0	0	0	581	519	1021	0	0	0	
14	0	0	0	0	581	519	1021	0	0	0	
15	0	0	0	0	579	516	1021	0	0	0	
0	0	0	0	0	575	512	1021	0	0	0	
1	0	0	0	0	571	508	1021	0	0	0	
2	0	0	0	0	564	502	1021	0	0	0	
3	0	0	0	0	558	496	1021	0	0	0	
4	0	0	0	0	552	491	1021	0	0	0	
5	0	0	0	0	547	487	1021	0	0	0	
6	0	0	0	0	543	483	1021	0	0	0	
7	0	0	0	0	542	483	1021	0	0	0	
8	0	0	0	0	542	484	1021	0	0	0	
9	0	0	0	0	544	486	1021	0	0	0	
10	0	0	0	0	549	491	1021	0	0	0	
11	0	0	0	0	555	497	1021	0	0	0	
12	0	0	0	0	560	502	1021	0	0	0	
13	0	0	0	0	568	510	1021	0	0	0	
14	0	0	0	0	574	515	1021	0	0	0	
15	0	0	0	0	579	520	1021	0	0	0	
0	0	0	0	0	583	524	1020	0	0	0	
1	0	0	0	0	584	524	1021	0	0	0	
2	0	0	0	0	584	524	1021	0	0	0	
3	0	0	0	0	582	521	1021	0	0	0	
4	0	0	0	0	577	516	1021	0	0	0	
5	0	0	0	0	572	510	1021	0	0	0	
6	0	0	0	0	565	504	1021	0	0	0	
7	0	0	0	0	559	498	1021	0	0	0	
8	0	0	0	0	552	492	1021	0	0	0	
9	0	0	0	0	547	487	1021	0	0	0	
10	0	0	0	0	543	484	1021	0	0	0	
11	0	0	0	0	541	483	1021	0	0	0	
12	0	0	0	0	541	484	1021	0	0	0	
13	0	0	0	0	543	487	1021	0	0	0	
14	0	0	0	0	548	491	1021	0	0	0	
15	0	0	0	0	553	496	1021	0	0	0	
0	0	0	0	0	559	502	1021	0	0	0	
1	0	0	0	0	566	508	1021	0	0	0	
2	0	0	0	0	572	513	1021	0	0	0	
3	0	0	0	0	576	518	1020	0	0	0	
4	0	0	0	0	579	520	1021	0	0	0	
5	0	0	0	0	581	521	1021	0	0	0	
6	0	0	0	0	580	521	1021	0	0	0	
7	0	0	0	0	578	518	1021	0	0	0	
8	0	0	0	0	574	513	1021	0	0	0	
9	0	0	0	0	568	507	1021	0	0	0	
10	0	0	0	0	561	500	1021	0	0	0	
11	0	0	0	0	554	495	1021	0	0	0	
12	0	0	0	0	548	489	1021	0	0	0	
13	0	0	0	0	542	484	1021	0	0	0	
14	0	0	0	0	538	480	1021	0	0	0	
15	0	0	0	0	536	478	1021	0	0	0	
0	0	0	0	0	536	478	1021	0	0	0	
1	0	0	0	0	539	480	1021	0	0	0	
2	0	0	0	0	542	483	1021	0	0	0	
3	0	0	0	0	548	488	1021	0	0	0	
4	0	0	0	0	553	492	1021	0	0	0	
5	0	0	0	0	559	497	1021	0	0	0	
6	0	0	0	0	564	501	1021	0	0	0	
7	0	0	0	0	567	504	1021	0	0	0	
8	0	0	0	0	569	505	1021	0	0	0	
9	0	0	0	0	569	505	1021	0	0	0	
10	0	0	0	0	567	504	1021	0	0	0	
11	0	0	0	0	563	500	1021	0	0	0	
12	0	0	0	0	559	496	1021	0	0	0	
13	0	0	0	0	553	490	1021	0	0	0	
14	0	0	0	0	546	484	1021	0	0	0	
15	0	0	0	0	541	480	1021	0	0	0	
0	0	0	0	0	536	475	1021	0	0	0	
1	0	0	0	0	532	472	1021	0	0	0	
2	0	0	0	0	531	471	1021	0	0	0	
3	0	0	0	0	531	472	1021	0	0	0	
4	0	0	0	0	534	474	1021	0	0	0	
5	0	0	0	0	539	478	1021	0	0	0	
6	0	0	0	0	544	484	1021	0	0	0	
7	0	0	0	0	551	490	1021	0	0	0	
8	0	0	0	0	557	496	1021	0	0	0	
9	0	0	0	0	563	502	1021	0	0	0	
10	0	0	0	0	568	506	1021	0	0	0	
11	0	0	0	0	572	509	1021	0	0	0	
12	0	0	0	0	574	512	1021	0	0	0	
13	0	0	0	0	574	511	1021	0	0	0	
14	0	0	0	0	572	510	1021	0	0	0	
15	0	0	0	0	568	506	1021	0	0	0	
0	0	0	0	0	564	500	1021	0	0	0	
1	0	0	0	0	557	495	1020	0	0	0	
2	0	0	0	0	552	490	1021	0	0	0	
3	0	0	0	0	547	484	1021	0	0	0	
4	0	0	0	0	542	480	1021	0	0	0	
5	0	0	0	0	539	477	1021	0	0	0	
6	0	0	0	0	538	476	1021	0	0	0	
7	0	0	0	0	538	476	1021	0	0	0	
8	0	0	0	0	541	480	1021	0	0	0	
9	0	0	0	0	546	484	1021	0	0	0	
10	0	0	0	0	552	491	1021	0	0	0	
11	0	0	0	0	559	497	1021	0	0	0	
12	0	0	0	0	566	504	1021	0	0	0	
13	0	0	0	0	573	511	1021	0	0	0	
14	0	0	0	0	579	516	1021	0	0	0	
15	0	0	0	0	583	520	1021	0	0	0	
0	0	0	0	0	585	522	1021	0	0	0	
1	0	0	0	0	585	522	1021	0	0	0	
2	0	0	0	0	583	519	1021	0	0	0	
3	0	0	0	0	579	515	1021	0	0	0	
4	0	0	0	0	573	510	1020	0	0	0	
5	0	0	0	0	566	503	1021	0	0	0	
6	0	0	0	0	558	496	1021	0	0	0	
7	0	0	0	0	551	489	1021	0	0	0	
8	0	0	0	0	544	483	1021	0	0	0	
9	0	0	0	0	539	478	1021	0	0	0	
10	0	0	0	0	536	475	1021	0	0	0	
11	0	0	0	0	535	474	1021	0	0	0	
12	0	0	0	0	537	476	1021	0	0	0	
13	0	0	0	0	540	479	1021	0	0	0	
14	0	0	0	0	545	483	1021	0	0	0	
15	0	0	0	0	551	489	1021	0	0	0	
0	0	0	0	0	558	495	1021	0	0	0	
1	0	0	0	0	566	502	1021	0	0	0	
2	0	0	0	0	572	508	1021	0	0	0	
3	0	0	0	0	576	513	1021	0	0	0	
4	0	0	0	0	580	516	1021	0	0	0	
5	0	0	0	0	580	517	1021	0	0	0	
6	0	0	0	0	580	516	1021	0	0	0	
7	0	0	0	0	576	513	1021	0	0	0	
8	0	0	0	0	572	508	1021	0	0	0	
9	0	0	0	0	566	502	1021	0	0	0	
10	0	0	0	0	558	495	1021	0	0	0	
11	0	0	0	0	550	488	1021	0	0	0	
12	0	0	0	0	543	481	1021	0	0	0	
13	0	0	0	0	537	476	1021	0	0	0	
14	0	0	0	0	532	472	1021	0	0	0	
15	0	0	0	0	529	470	1021	0	0	0	
0	0	0	0	0	529	470	1021	0	0	0	
1	0	0	0	0	531	471	1021	0	0	0	
2	0	0	0	0	536	476	1021	0	0	0	
3	0	0	0	0	541	481	1021	0	0	0	
4	0	0	0	0	547	487	1020	0	0	0	
5	0	0	0	0	553	493	1021	0	0	0	
6	0	0	0	0	560	499	1021	0	0	0	
7	0	0	0	0	564	503	1021	0	0	0	
8	0	0	0	0	568	505	1020	0	0	0	
9	0	0	0	0	569	506	1021	0	0	0	
10	0	0	0	0	568	505	1021	0	0	0	
11	0	0	0	0	565	502	1021	0	0	0	
12	0	0	0	0	561	496	1021	0	0	0	
13	0	0	0	0	555	491	1021	0	0	0	
14	0	0	0	0	548	484	1021	0	0	0	
15	0	0	0	0	542	478	1021	0	0	0	
0	0	0	0	0	536	471	1021	0	0	0	
1	0	0	0	0	529	465	1021	0	0	0	
2	0	0	0	0	524	460	1021	0	0	0	
3	0	0	0	0	519	456	1021	0	0	0	
4	0	0	0	0	516	454	1021	0	0	0	
5	0	0	0	0	513	451	1021	0	0	0	
6	0	0	0	0	511	450	1021	0	0	0	
7	0	0	0	0	509	448	1021	0	0	0	
8	0	0	0	0	506	447	1021	0	0	0	
9	0	0	0	0	504	444	1021	0	0	0	
10	0	0	0	0	499	441	1021	0	0	0	
11	0	0	0	0	494	436	1021	0	0	0	
12	0	0	0	0	487	430	1021	0	0	0	
13	0	0	0	0	477	420	1021	0	0	0	
14	0	0	0	0	466	409	1021	0	0	0	
15	0	0	0	0	452	395	1021	0	0	0	
0	0	0	0	0	436	380	1021	0	0	0	
1	0	0	0	0	419	363	1021	0	0	0	
2	0	0	0	0	399	345	1021	0	0	0	
3	0	0	0	0	381	327	1021	0	0	0	
4	0	0	0	0	363	310	1021	0	0	0	
5	0	0	0	0	345	293	1021	0	0	0	
6	0	0	0	0	329	279	1020	0	0	0	
7	0	0	0	0	318	268	1020	0	0	0	
8	0	0	0	0	309	260	1021	0	0	0	
9	0	0	0	0	306	257	1021	0	0	0	
10	0	0	0	0	309	258	1021	0	0	0	
11	0	0	0	0	317	263	1021	0	0	0	
12	0	0	0	0	330	274	1021	0	0	0	
13	0	0	0	0	348	287	1021	0	0	0	
14	0	0	0	0	370	304	1021	0	0	0	
15	0	0	0	0	395	323	1021	0	0	0	
0	0	0	0	0	421	344	1021	0	0	0	
1	0	0	0	0	446	365	1021	0	0	0	
2	0	0	0	0	472	385	1021	0	0	0	
3	0	0	0	0	494	403	1021	0	0	0	
4	0	0	0	0	513	420	1021	0	0	0	
5	0	0	0	0	529	435	1021	0	0	0	
6	0	0	0	0	541	448	1021	0	0	0	
7	0	0	0	0	551	459	1021	0	0	0	
8	0	0	0	0	558	468	1021	0	0	0	
9	0	0	0	0	563	477	1021	0	0	0	
10	0	0	0	0	566	484	1021	0	0	0	
11	0	0	0	0	568	492	1021	0	0	0	
12	0	0	0	0	571	499	1021	0	0	0	
13	0	0	0	0	574	505	1021	0	0	0	
14	0	0	0	0	576	512	1021	0	0	0	
15	0	0	0	0	579	518	1021	0	0	0	
0	0	0	0	0	582	524	1021	0	0	0	
1	0	0	0	0	585	527	1021	0	0	0	
2	0	0	0	0	587	530	1021	0	0	0	
3	0	0	0	0	587	531	1021	0	0	0	
4	0	0	0	0	586	529	1021	0	0	0	
5	0	0	0	0	583	527	1021	0	0	0	
6	0	0	0	0	580	522	1021	0	0	0	
7	0	0	0	0	575	516	1021	0	0	0	
8	0	0	0	0	569	509	1021	0	0	0	
9	0	0	0	0	563	501	1021	0	0	0	
10	0	0	0	0	556	495	1021	0	0	0	
11	0	0	0	0	551	489	1021	0	0	0	
12	0	0	0	0	547	484	1021	0	0	0	
13	0	0	0	0	544	481	1021	0	0	0	
14	0	0	0	0	543	480	1021	0	0	0	
15	0	0	0	0	545	483	1021	0	0	0	
0	0	0	0	0	548	487	1021	0	0	0	
1	0	0	0	0	553	492	1021	0	0	0	
2	0	0	0	0	560	498	1021	0	0	0	
3	0	0	0	0	567	505	1021	0	0	0	
4	0	0	0	0	573	513	1021	0	0	0	
5	0	0	0	0	580	519	1021	0	0	0	
6	0	0	0	0	585	524	1021	0	0	0	
7	0	0	0	0	589	527	1021	0	0	0	
8	0	0	0	0	590	528	1021	0	0	0	
9	0	0	0	0	590	528	1021	0	0	0	
10	0	0	0	0	589	526	1021	0	0	0	
11	0	0	0	0	585	523	1021	0	0	0	
12	0	0	0	0	581	518	1021	0	0	0	
13	0	0	0	0	575	512	1021	0	0	0	
14	0	0	0	0	570	508	1021	0	0	0	
15	0	0	0	0	566	503	1021	0	0	0	
0	0	0	0	0	562	499	1021	0	0	0	
1	0	0	0	0	560	496	1021	0	0	0	
2	0	0	0	0	558	494	1021	0	0	0	
3	0	0	0	0	558	495	1021	0	0	0	
4	0	0	0	0	560	497	1021	0	0	0	
5	0	0	0	0	564	500	1021	0	0	0	
6	0	0	0	0	569	504	1021	0	0	0	
7	0	0	0	0	574	509	1021	0	0	0	
8	0	0	0	0	580	516	1021	0	0	0	
9	0	0	0	0	587	521	1021	0	0	0	
10	0	0	0	0	591	526	1021	0	0	0	
11	0	0	0	0	595	528	1021	0	0	0	
12	0	0	0	0	596	529	1021	0	0	0	
13	0	0	0	0	595	529	1021	0	0	0	
14	0	0	0	0	592	527	1021	0	0	0	
15	0	0	0	0	587	522	1021	0	0	0	
0	0	0	0	0	580	516	1021	0	0	0	
1	0	0	0	0	572	510	1021	0	0	0	
2	0	0	0	0	563	504	1021	0	0	0	
3	0	0	0	0	556	497	1021	0	0	0	
4	0	0	0	0	549	491	1021	0	0	0	
5	0	0	0	0	543	486	1021	0	0	0	
6	0	0	0	0	539	483	1020	0	0	0	
7	0	0	0	0	537	482	1021	0	0	0	
8	0	0	0	0	538	483	1021	0	0	0	
9	0	0	0	0	541	485	1021	0	0	0	
10	0	0	0	0	547	489	1021	0	0	0	
11	0	0	0	0	553	494	1021	0	0	0	
12	0	0	0	0	560	499	1021	0	0	0	
13	0	0	0	0	568	505	1021	0	0	0	
14	0	0	0	0	575	511	1021	0	0	0	
15	0	0	0	0	582	515	1021	0	0	0	
0	0	0	0	0	584	517	1020	0	0	0	
1	0	0	0	0	587	518	1021	0	0	0	
2	0	0	0	0	587	517	1021	0	0	0	
3	0	0	0	0	585	515	1021	0	0	0	
4	0	0	0	0	581	510	1021	0	0	0	
5	0	0	0	0	574	504	1020	0	0	0	
6	0	0	0	0	567	498	1021	0	0	0	
7	0	0	0	0	559	492	1021	0	0	0	
8	0	0	0	0	551	486	1021	0	0	0	
9	0	0	0	0	545	480	1021	0	0	0	
10	0	0	0	0	540	476	1020	0	0	0	
11	0	0	0	0	537	475	1021	0	0	0	
12	0	0	0	0	537	475	1021	0	0	0	
13	0	0	0	0	539	477	1021	0	0	0	
14	0	0	0	0	543	481	1021	0	0	0	
15	0	0	0	0	549	486	1021	0	0	0	
0	0	0	0	0	556	492	1021	0	0	0	
1	0	0	0	0	563	499	1021	0	0	0	
2	0	0	0	0	570	504	1021	0	0	0	
3	0	0	0	0	576	509	1021	0	0	0	
4	0	0	0	0	580	512	1021	0	0	0	
5	0	0	0	0	583	514	1021	0	0	0	
6	0	0	0	0	583	514	1021	0	0	0	
7	0	0	0	0	581	512	1021	0	0	0	
8	0	0	0	0	577	508	1021	0	0	0	
9	0	0	0	0	572	504	1020	0	0	0	
10	0	0	0	0	566	499	1021	0	0	0	
11	0	0	0	0	560	495	1021	0	0	0	
12	0	0	0	0	555	490	1021	0	0	0	
13	0	0	0	0	549	486	1021	0	0	0	
14	0	0	0	0	545	483	1021	0	0	0	
15	0	0	0	0	543	481	1021	0	0	0	
0	0	0	0	0	543	481	1021	0	0	0	
1	0	0	0	0	545	483	1021	0	0	0	
2	0	0	0	0	549	486	1021	0	0	0	
3	0	0	0	0	554	490	1021	0	0	0	
4	0	0	0	0	559	494	1021	0	0	0	
5	0	0	0	0	564	499	1021	0	0	0	
6	0	0	0	0	569	502	1021	0	0	0	
7	0	0	0	0	574	505	1021	0	0	0	
8	0	0	0	0	576	507	1021	0	0	0	
9	0	0	0	0	576	508	1021	0	0	0	
10	0	0	0	0	575	506	1021	0	0	0	
11	0	0	0	0	571	503	1021	0	0	0	
12	0	0	0	0	566	498	1021	0	0	0	
13	0	0	0	0	560	493	1021	0	0	0	
14	0	0	0	0	553	487	1021	0	0	0	
15	0	0	0	0	546	483	1021	0	0	0	
0	0	0	0	0	540	478	1021	0	0	0	
1	0	0	0	0	535	474	1021	0	0	0	
2	0	0	0	0	532	472	1021	0	0	0	
3	0	0	0	0	529	471	1021	0	0	0	
4	0	0	0	0	529	472	1021	0	0	0	
5	0	0	0	0	531	473	1021	0	0	0	
6	0	0	0	0	534	477	1021	0	0	0	
7	0	0	0	0	538	480	1021	0	0	0	
8	0	0	0	0	543	484	1021	0	0	0	
9	0	0	0	0	548	489	1021	0	0	0	
10	0	0	0	0	553	493	1021	0	0	0	
11	0	0	0	0	557	496	1021	0	0	0	
12	0	0	0	0	560	497	1021	0	0	0	
13	0	0	0	0	560	498	1021	0	0	0	
14	0	0	0	0	560	497	1021	0	0	0	
15	0	0	0	0	559	495	1021	0	0	0	
0	0	0	0	0	555	492	1021	0	0	0	
1	0	0	0	0	552	488	1021	0	0	0	
2	0	0	0	0	548	484	1021	0	0	0	
3	0	0	0	0	544	481	1021	0	0	0	
4	0	0	0	0	541	478	1021	0	0	0	
5	0	0	0	0	540	477	1021	0	0	0	
6	0	0	0	0	539	477	1021	0	0	0	
7	0	0	0	0	540	478	1021	0	0	0	
8	0	0	0	0	543	481	1021	0	0	0	
9	0	0	0	0	547	485	1021	0	0	0	
10	0	0	0	0	551	489	1021	0	0	0	
11	0	0	0	0	555	493	1021	0	0	0	
12	0	0	0	0	560	498	1021	0	0	0	
13	0	0	0	0	563	503	1021	0	0	0	
14	0	0	0	0	566	506	1021	0	0	0	
15	0	0	0	0	567	507	1021	0	0	0	
0	0	0	0	0	567	508	1021	0	0	0	
1	0	0	0	0	565	505	1021	0	0	0	
2	0	0	0	0	561	503	1021	0	0	0	
3	0	0	0	0	556	498	1021	0	0	0	
4	0	0	0	0	550	492	1021	0	0	0	
5	0	0	0	0	543	486	1021	0	0	0	
6	0	0	0	0	536	479	1021	0	0	0	
7	0	0	0	0	530	473	1021	0	0	0	
8	0	0	0	0	525	468	1021	0	0	0	
9	0	0	0	0	522	464	1021	0	0	0	
10	0	0	0	0	520	463	1021	0	0	0	
11	0	0	0	0	520	462	1021	0	0	0	
12	0	0	0	0	523	464	1021	0	0	0	
13	0	0	0	0	527	467	1021	0	0	0	
14	0	0	0	0	533	472	1021	0	0	0	
15	0	0	0	0	540	478	1021	0	0	0	
0	0	0	0	0	546	485	1021	0	0	0	
1	0	0	0	0	555	491	1021	0	0	0	
2	0	0	0	0	561	497	1021	0	0	0	
3	0	0	0	0	568	503	1021	0	0	0	
4	0	0	0	0	572	506	1021	0	0	0	
5	0	0	0	0	574	508	1020	0	0	0	
6	0	0	0	0	573	507	1021	0	0	0	
7	0	0	0	0	570	504	1021	0	0	0	
8	0	0	0	0	563	498	1021	0	0	0	
9	0	0	0	0	557	492	1021	0	0	0	
10	0	0	0	0	548	484	1021	0	0	0	
11	0	0	0	0	540	477	1021	0	0	0	
12	0	0	0	0	532	470	1021	0	0	0	
13	0	0	0	0	525	464	1021	0	0	0	
14	0	0	0	0	520	460	1021	0	0	0	
15	0	0	0	0	518	457	1021	0	0	0	
0	0	0	0	0	518	458	1021	0	0	0	
1	0	0	0	0	521	460	1021	0	0	0	
2	0	0	0	0	524	463	1021	0	0	0	
3	0	0	0	0	530	468	1021	0	0	0	
4	0	0	0	0	536	472	1021	0	0	0	
5	0	0	0	0	542	478	1021	0	0	0	
6	0	0	0	0	548	482	1021	0	0	0	
7	0	0	0	0	552	486	1021	0	0	0	
8	0	0	0	0	556	487	1021	0	0	0	
9	0	0	0	0	556	488	1021	0	0	0	
10	0	0	0	0	556	487	1021	0	0	0	
11	0	0	0	0	553	485	1021	0	0	0	
12	0	0	0	0	548	481	1021	0	0	0	
13	0	0	0	0	543	477	1021	0	0	0	
14	0	0	0	0	537	472	1021	0	0	0	
15	0	0	0	0	531	467	1021	0	0	0	
0	0	0	0	0	526	462	1021	0	0	0	
1	0	0	0	0	522	459	1020	0	0	0	
2	0	0	0	0	519	457	1021	0	0	0	
3	0	0	0	0	519	457	1021	0	0	0	
4	0	0	0	0	521	460	1021	0	0	0	
5	0	0	0	0	525	463	1021	0	0	0	
6	0	0	0	0	530	468	1021	0	0	0	
7	0	0	0	0	536	474	1021	0	0	0	
8	0	0	0	0	543	480	1021	0	0	0	
9	0	0	0	0	550	487	1021	0	0	0	
10	0	0	0	0	556	492	1021	0	0	0	
11	0	0	0	0	561	496	1021	0	0	0	
12	0	0	0	0	563	499	1021	0	0	0	
13	0	0	0	0	564	499	1021	0	0	0	
14	0	0	0	0	563	498	1021	0	0	0	
15	0	0	0	0	560	495	1021	0	0	0	
0	0	0	0	0	555	490	1021	0	0	0	
1	0	0	0	0	548	484	1020	0	0	0	
2	0	0	0	0	541	478	1021	0	0	0	
3	0	0	0	0	535	472	1021	0	0	0	
4	0	0	0	0	529	467	1021	0	0	0	
5	0	0	0	0	526	463	1021	0	0	0	
6	0	0	0	0	523	461	1021	0	0	0	
7	0	0	0	0	524	460	1021	0	0	0	
8	0	0	0	0	526	463	1021	0	0	0	
9	0	0	0	0	531	467	1021	0	0	0	
10	0	0	0	0	537	473	1021	0	0	0	
11	0	0	0	0	545	480	1021	0	0	0	
12	0	0	0	0	553	488	1021	0	0	0	
13	0	0	0	0	561	497	1021	0	0	0	
14	0	0	0	0	568	504	1021	0	0	0	
15	0	0	0	0	574	511	1021	0	0	0	
0	0	0	0	0	577	515	1021	0	0	0	
1	0	0	0	0	579	516	1021	0	0	0	
2	0	0	0	0	577	516	1021	0	0	0	
3	0	0	0	0	573	513	1021	0	0	0	
4	0	0	0	0	567	507	1021	0	0	0	
5	0	0	0	0	560	500	1021	0	0	0	
6	0	0	0	0	550	492	1021	0	0	0	
7	0	0	0	0	542	483	1021	0	0	0	
8	0	0	0	0	534	474	1021	0	0	0	
9	0	0	0	0	527	467	1021	0	0	0	
10	0	0	0	0	521	462	1021	0	0	0	
11	0	0	0	0	518	457	1021	0	0	0	
12	0	0	0	0	517	457	1021	0	0	0	
13	0	0	0	0	519	458	1021	0	0	0	
14	0	0	0	0	522	461	1021	0	0	0	
15	0	0	0	0	527	466	1021	0	0	0	
0	0	0	0	0	533	473	1021	0	0	0	
1	0	0	0	0	541	480	1021	0	0	0	
2	0	0	0	0	547	486	1021	0	0	0	
3	0	0	0	0	553	492	1021	0	0	0	
4	0	0	0	0	558	496	1021	0	0	0	
5	0	0	0	0	560	498	1021	0	0	0	
6	0	0	0	0	560	498	1021	0	0	0	
7	0	0	0	0	559	496	1021	0	0	0	
8	0	0	0	0	554	492	1021	0	0	0	
9	0	0	0	0	550	487	1021	0	0	0	
10	0	0	0	0	543	480	1021	0	0	0	
11	0	0	0	0	537	475	1021	0	0	0	
12	0	0	0	0	531	469	1021	0	0	0	
13	0	0	0	0	526	464	1021	0	0	0	
14	0	0	0	0	523	460	1021	0	0	0	
15	0	0	0	0	521	459	1021	0	0	0	
0	0	0	0	0	523	460	1021	0	0	0	
1	0	0	0	0	526	463	1021	0	0	0	
2	0	0	0	0	531	467	1021	0	0	0	
3	0	0	0	0	537	473	1021	0	0	0	
4	0	0	0	0	544	480	1021	0	0	0	
5	0	0	0	0	552	486	1021	0	0	0	
6	0	0	0	0	559	492	1021	0	0	0	
7	0	0	0	0	565	498	1021	0	0	0	
8	0	0	0	0	569	502	1021	0	0	0	
9	0	0	0	0	572	505	1021	0	0	0	
10	0	0	0	0	572	506	1021	0	0	0	
11	0	0	0	0	571	505	1021	0	0	0	
12	0	0	0	0	568	503	1021	0	0	0	
13	0	0	0	0	563	499	1021	0	0	0	
14	0	0	0	0	557	493	1021	0	0	0	
15	0	0	0	0	550	487	1021	0	0	0	
0	0	0	0	0	543	482	1021	0	0	0	
1	0	0	0	0	536	476	1021	0	0	0	
2	0	0	0	0	530	471	1021	0	0	0	
3	0	0	0	0	526	467	1021	0	0	0	
4	0	0	0	0	524	466	1021	0	0	0	
5	0	0	0	0	524	467	1021	0	0	0	
6	0	0	0	0	526	468	1021	0	0	0	
7	0	0	0	0	529	471	1021	0	0	0	
8	0	0	0	0	534	475	1021	0	0	0	
9	0	0	0	0	540	480	1021	0	0	0	
10	0	0	0	0	545	485	1021	0	0	0	
11	0	0	0	0	551	489	1021	0	0	0	
12	0	0	0	0	556	493	1021	0	0	0	
13	0	0	0	0	559	495	1021	0	0	0	
14	0	0	0	0	561	496	1021	0	0	0	
15	0	0	0	0	560	495	1021	0	0	0	
0	0	0	0	0	558	492	1021	0	0	0	
1	0	0	0	0	555	488	1021	0	0	0	
2	0	0	0	0	550	483	1021	0	0	0	
3	0	0	0	0	544	478	1021	0	0	0	
4	0	0	0	0	539	473	1021	0	0	0	
5	0	0	0	0	533	469	1021	0	0	0	
6	0	0	0	0	529	466	1021	0	0	0	
7	0	0	0	0	526	463	1021	0	0	0	
8	0	0	0	0	525	463	1021	0	0	0	
9	0	0	0	0	526	465	1021	0	0	0	
10	0	0	0	0	528	467	1021	0	0	0	
11	0	0	0	0	531	470	1021	0	0	0	
12	0	0	0	0	536	475	1021	0	0	0	
13	0	0	0	0	541	480	1021	0	0	0	
14	0	0	0	0	545	483	1021	0	0	0	
15	0	0	0	0	548	486	1021	0	0	0	
0	0	0	0	0	551	488	1021	0	0	0	
1	0	0	0	0	552	488	1021	0	0	0	
2	0	0	0	0	552	487	1021	0	0	0	
3	0	0	0	0	551	485	1021	0	0	0	
4	0	0	0	0	548	482	1021	0	0	0	
5	0	0	0	0	544	478	1021	0	0	0	
6	0	0	0	0	540	475	1021	0	0	0	
7	0	0	0	0	537	471	1021	0	0	0	
8	0	0	0	0	535	468	1021	0	0	0	
9	0	0	0	0	533	467	1021	0	0	0	
10	0	0	0	0	532	466	1021	0	0	0	
11	0	0	0	0	532	467	1021	0	0	0	
12	0	0	0	0	535	469	1021	0	0	0	
13	0	0	0	0	537	472	1021	0	0	0	
14	0	0	0	0	540	475	1021	0	0	0	
15	0	0	0	0	543	479	1021	0	0	0	
0	0	0	0	0	545	482	1021	0	0	0	
1	0	0	0	0	547	484	1021	0	0	0	
2	0	0	0	0	548	486	1021	0	0	0	
3	0	0	0	0	548	487	1021	0	0	0	
4	0	0	0	0	547	487	1021	0	0	0	
5	0	0	0	0	545	486	1021	0	0	0	
6	0	0	0	0	542	483	1021	0	0	0	
7	0	0	0	0	538	479	1021	0	0	0	
8	0	0	0	0	534	475	1021	0	0	0	
9	0	0	0	0	528	469	1021	0	0	0	
10	0	0	0	0	523	463	1021	0	0	0	
11	0	0	0	0	519	459	1021	0	0	0	
12	0	0	0	0	516	455	1021	0	0	0	
13	0	0	0	0	515	452	1021	0	0	0	
14	0	0	0	0	515	451	1021	0	0	0	
15	0	0	0	0	516	452	1021	0	0	0	
0	0	0	0	0	521	456	1021	0	0	0	
1	0	0	0	0	526	461	1021	0	0	0	
2	0	0	0	0	533	467	1021	0	0	0	
3	0	0	0	0	540	473	1021	0	0	0	
4	0	0	0	0	546	480	1021	0	0	0	
5	0	0	0	0	552	487	1021	0	0	0	
6	0	0	0	0	557	493	1021	0	0	0	
7	0	0	0	0	560	497	1021	0	0	0	
8	0	0	0	0	561	498	1021	0	0	0	
9	0	0	0	0	560	498	1021	0	0	0	
10	0	0	0	0	558	496	1021	0	0	0	
11	0	0	0	0	552	491	1021	0	0	0	
12	0	0	0	0	545	485	1021	0	0	0	
13	0	0	0	0	538	477	1021	0	0	0	
14	0	0	0	0	530	470	1021	0	0	0	
15	0	0	0	0	524	463	1021	0	0	0	
0	0	0	0	0	517	457	1021	0	0	0	
1	0	0	0	0	512	452	1021	0	0	0	
2	0	0	0	0	510	450	1021	0	0	0	
3	0	0	0	0	509	450	1021	0	0	0	
4	0	0	0	0	511	451	1021	0	0	0	
5	0	0	0	0	515	455	1021	0	0	0	
6	0	0	0	0	521	461	1021	0	0	0	
7	0	0	0	0	528	467	1021	0	0	0	
8	0	0	0	0	536	473	1021	0	0	0	
9	0	0	0	0	543	480	1021	0	0	0	
10	0	0	0	0	550	486	1021	0	0	0	
11	0	0	0	0	556	490	1021	0	0	0	
12	0	0	0	0	560	493	1021	0	0	0	
13	0	0	0	0	561	495	1021	0	0	0	
14	0	0	0	0	561	494	1021	0	0	0	
15	0	0	0	0	560	492	1021	0	0	0	
0	0	0	0	0	556	489	1021	0	0	0	
1	0	0	0	0	552	485	1021	0	0	0	
2	0	0	0	0	546	481	1021	0	0	0	
3	0	0	0	0	542	477	1021	0	0	0	
4	0	0	0	0	536	472	1021	0	0	0	
5	0	0	0	0	531	468	1021	0	0	0	
6	0	0	0	0	526	464	1021	0	0	0	
7	0	0	0	0	523	463	1021	0	0	0	
8	0	0	0	0	521	461	1021	0	0	0	
9	0	0	0	0	520	461	1021	0	0	0	
10	0	0	0	0	521	462	1021	0	0	0	
11	0	0	0	0	523	463	1021	0	0	0	
12	0	0	0	0	525	466	1021	0	0	0	
13	0	0	0	0	529	469	1021	0	0	0	
14	0	0	0	0	532	472	1021	0	0	0	
15	0	0	0	0	536	474	1021	0	0	0	
0	0	0	0	0	537	475	1020	0	0	0	
1	0	0	0	0	538	476	1021	0	0	0	
2	0	0	0	0	538	475	1021	0	0	0	
3	0	0	0	0	536	472	1021	0	0	0	
4	0	0	0	0	534	470	1021	0	0	0	
5	0	0	0	0	530	465	1021	0	0	0	
6	0	0	0	0	526	462	1020	0	0	0	
7	0	0	0	0	523	459	1021	0	0	0	
8	0	0	0	0	519	456	1021	0	0	0	
9	0	0	0	0	518	454	1021	0	0	0	
10	0	0	0	0	516	453	1021	0	0	0	
11	0	0	0	0	516	455	1021	0	0	0	
12	0	0	0	0	519	457	1021	0	0	0	
13	0	0	0	0	522	461	1021	0	0	0	
14	0	0	0	0	526	465	1021	0	0	0	
15	0	0	0	0	531	470	1021	0	0	0	
0	0	0	0	0	535	476	1021	0	0	0	
1	0	0	0	0	540	480	1021	0	0	0	
2	0	0	0	0	544	483	1021	0	0	0	
3	0	0	0	0	547	486	1021	0	0	0	
4	0	0	0	0	548	486	1021	0	0	0	
5	0	0	0	0	548	486	1021	0	0	0	
6	0	0	0	0	547	484	1021	0	0	0	
7	0	0	0	0	543	480	1021	0	0	0	
8	0	0	0	0	538	476	1021	0	0	0	
9	0	0	0	0	532	471	1021	0	0	0	
10	0	0	0	0	526	465	1021	0	0	0	
11	0	0	0	0	520	460	1021	0	0	0	
12	0	0	0	0	514	455	1021	0	0	0	
13	0	0	0	0	510	452	1021	0	0	0	
14	0	0	0	0	507	449	1021	0	0	0	
15	0	0	0	0	506	449	1021	0	0	0	
0	0	0	0	0	508	450	1021	0	0	0	
1	0	0	0	0	511	453	1021	0	0	0	
2	0	0	0	0	516	456	1021	0	0	0	
3	0	0	0	0	522	461	1020	0	0	0	
4	0	0	0	0	529	466	1021	0	0	0	
5	0	0	0	0	536	471	1021	0	0	0	
6	0	0	0	0	542	476	1021	0	0	0	
7	0	0	0	0	547	480	1021	0	0	0	
8	0	0	0	0	551	483	1020	0	0	0	
9	0	0	0	0	552	484	1021	0	0	0	
10	0	0	0	0	551	484	1021	0	0	0	
11	0	0	0	0	550	482	1021	0	0	0	
12	0	0	0	0	545	479	1021	0	0	0	
13	0	0	0	0	540	475	1020	0	0	0	
14	0	0	0	0	535	471	1021	0	0	0	
15	0	0	0	0	529	467	1021	0	0	0	
0	0	0	0	0	524	464	1021	0	0	0	
1	0	0	0	0	519	460	1021	0	0	0	
2	0	0	0	0	516	458	1021	0	0	0	
3	0	0	0	0	515	458	1021	0	0	0	
4	0	0	0	0	516	460	1021	0	0	0	
5	0	0	0	0	519	462	1021	0	0	0	
6	0	0	0	0	524	465	1021	0	0	0	
7	0	0	0	0	528	469	1021	0	0	0	
8	0	0	0	0	534	474	1021	0	0	0	
9	0	0	0	0	540	479	1021	0	0	0	
10	0	0	0	0	545	483	1021	0	0	0	
11	0	0	0	0	550	486	1021	0	0	0	
12	0	0	0	0	552	487	1021	0	0	0	
13	0	0	0	0	553	488	1021	0	0	0	
14	0	0	0	0	553	488	1021	0	0	0	
15	0	0	0	0	550	486	1021	0	0	0	
0	0	0	0	0	546	482	1021	0	0	0	
1	0	0	0	0	541	478	1021	0	0	0	
2	0	0	0	0	535	473	1021	0	0	0	
3	0	0	0	0	530	468	1021	0	0	0	
4	0	0	0	0	525	463	1021	0	0	0	
5	0	0	0	0	520	460	1021	0	0	0	
6	0	0	0	0	518	457	1021	0	0	0	
7	0	0	0	0	517	457	1021	0	0	0	
8	0	0	0	0	519	458	1021	0	0	0	
9	0	0	0	0	521	460	1021	0	0	0	
10	0	0	0	0	527	465	1021	0	0	0	
11	0	0	0	0	533	471	1021	0	0	0	
12	0	0	0	0	539	476	1021	0	0	0	
13	0	0	0	0	546	483	1021	0	0	0	
14	0	0	0	0	551	488	1021	0	0	0	
15	0	0	0	0	555	492	1021	0	0	0	
0	0	0	0	0	557	494	1020	0	0	0	
1	0	0	0	0	556	494	1021	0	0	0	
2	0	0	0	0	553	492	1021	0	0	0	
3	0	0	0	0	547	487	1021	0	0	0	
4	0	0	0	0	541	482	1021	0	0	0	
5	0	0	0	0	533	475	1021	0	0	0	
6	0	0	0	0	525	468	1021	0	0	0	
7	0	0	0	0	519	462	1021	0	0	0	
8	0	0	0	0	513	457	1021	0	0	0	
9	0	0	0	0	510	453	1021	0	0	0	
10	0	0	0	0	508	451	1021	0	0	0	
11	0	0	0	0	509	451	1021	0	0	0	
12	0	0	0	0	513	454	1021	0	0	0	
