# OpenSignals Text File Format. Version 1
# {"": {"position": 0, "device": "", "device name": "", "device connection": "", "sampling rate": 1000, "resolution": [4, 1, 1, 1, 1, 10, 10, 10, 10, 6, 6], "firmware version": 1281, "comments": "", "keywords": "", "mode": 0, "sync interval": 2, "date": "", "time": "", "channels": [1, 2, 3, 4, 5, 6], "sensor": ["RAW", "RAW", "RAW", "RAW", "RAW", "RAW"], "label": ["A1", "A2", "A3", "A4", "A5", "A6"], "column": ["nSeq", "I1", "I2", "O1", "O2", "A1", "A2", "A3", "A4", "A5", "A6"], "special": [{}, {}, {}, {}, {}, {}], "digital IO": [0, 0, 1, 1]}}
# EndOfHeader
0	0	0	0	0	519	361	0	0	0	0	
1	0	0	0	0	521	368	0	0	0	0	
2	0	0	0	0	526	381	0	0	0	0	
3	0	0	0	0	532	400	0	0	0	0	
4	0	0	0	0	540	422	0	0	0	0	
5	0	0	0	0	548	446	0	0	0	0	
6	0	0	0	0	556	468	0	199	0	0	
7	0	0	0	0	562	487	0	951	0	0	
8	0	0	0	0	567	501	0	1020	0	0	
9	0	0	0	0	570	509	0	1020	0	0	
10	0	0	0	0	570	508	0	1020	0	0	
11	0	0	0	0	567	502	0	1020	0	0	
12	0	0	0	0	563	488	0	1020	0	0	
13	0	0	0	0	557	469	0	1021	0	0	
14	0	0	0	0	550	447	0	1021	0	0	
15	0	0	0	0	543	424	0	1019	0	0	
0	0	0	0	0	536	402	0	391	0	0	
1	0	0	0	0	531	383	0	0	0	0	
2	0	0	0	0	528	370	0	0	0	0	
3	0	0	0	0	527	363	0	0	0	0	
4	0	0	0	0	529	363	0	0	0	0	
5	0	0	0	0	534	371	0	0	0	0	
6	0	0	0	0	540	384	0	0	0	0	
7	0	0	0	0	548	402	0	0	0	0	
8	0	0	0	0	557	424	0	0	0	0	
9	0	0	0	0	566	447	0	0	0	0	
10	0	0	0	0	575	470	0	0	0	0	
11	0	0	0	0	583	488	0	617	0	0	
12	0	0	0	0	589	502	0	1020	0	0	
13	0	0	0	0	591	509	0	1020	0	0	
14	0	0	0	0	591	510	0	1020	0	0	
15	0	0	0	0	588	502	0	1020	0	0	
0	0	0	0	0	582	488	0	1020	0	0	
1	0	0	0	0	573	469	0	1021	0	0	
2	0	0	0	0	563	447	0	740	0	0	
3	0	0	0	0	551	423	0	1	0	0	
4	0	0	0	0	540	399	0	0	0	0	
5	0	0	0	0	530	378	0	0	0	0	
6	0	0	0	0	521	362	0	0	0	0	
7	0	0	0	0	515	353	0	0	0	0	
8	0	0	0	0	512	351	0	0	0	0	
9	0	0	0	0	512	356	0	0	0	0	
10	0	0	0	0	515	368	0	0	0	0	
11	0	0	0	0	520	387	0	0	0	0	
12	0	0	0	0	528	409	0	0	0	0	
13	0	0	0	0	537	435	0	0	0	0	
14	0	0	0	0	547	460	0	0	0	0	
15	0	0	0	0	558	483	0	0	0	0	
0	0	0	0	0	568	502	0	545	0	0	
1	0	0	0	0	576	515	0	1019	0	0	
2	0	0	0	0	583	522	0	1020	0	0	
3	0	0	0	0	587	522	0	1020	0	0	
4	0	0	0	0	590	516	0	1020	0	0	
5	0	0	0	0	589	504	0	733	0	0	
6	0	0	0	0	585	488	0	1	0	0	
7	0	0	0	0	580	471	0	0	0	0	
8	0	0	0	0	574	453	0	0	0	0	
9	0	0	0	0	567	437	0	0	0	0	
10	0	0	0	0	560	424	0	0	0	0	
11	0	0	0	0	554	417	0	0	0	0	
12	0	0	0	0	550	415	0	0	0	0	
13	0	0	0	0	549	421	0	0	0	0	
14	0	0	0	0	550	432	0	0	0	0	
15	0	0	0	0	553	448	0	0	0	0	
0	0	0	0	0	559	468	0	0	0	0	
1	0	0	0	0	567	489	0	0	0	0	
2	0	0	0	0	575	510	0	0	0	0	
3	0	0	0	0	584	528	0	171	0	0	
4	0	0	0	0	592	543	0	908	0	0	
5	0	0	0	0	599	551	0	1020	0	0	
6	0	0	0	0	604	553	0	1020	0	0	
7	0	0	0	0	607	548	0	1020	0	0	
8	0	0	0	0	607	537	0	1020	0	0	
9	0	0	0	0	604	521	0	1020	0	0	
10	0	0	0	0	599	501	0	1020	0	0	
11	0	0	0	0	592	480	0	928	0	0	
12	0	0	0	0	584	458	0	249	0	0	
13	0	0	0	0	576	439	0	0	0	0	
14	0	0	0	0	568	423	0	0	0	0	
15	0	0	0	0	562	414	0	0	0	0	
0	0	0	0	0	558	412	0	0	0	0	
1	0	0	0	0	557	415	0	0	0	0	
2	0	0	0	0	559	426	0	0	0	0	
3	0	0	0	0	563	441	0	0	0	0	
4	0	0	0	0	570	461	0	0	0	0	
5	0	0	0	0	579	483	0	0	0	0	
6	0	0	0	0	589	504	0	512	0	0	
7	0	0	0	0	599	524	0	1020	0	0	
8	0	0	0	0	608	539	0	1020	0	0	
9	0	0	0	0	616	550	0	1021	0	0	
10	0	0	0	0	622	553	0	1020	0	0	
11	0	0	0	0	624	550	0	1020	0	0	
12	0	0	0	0	624	540	0	1020	0	0	
13	0	0	0	0	619	524	0	1020	0	0	
14	0	0	0	0	612	505	0	1021	0	0	
15	0	0	0	0	604	483	0	1020	0	0	
0	0	0	0	0	593	461	0	1021	0	0	
1	0	0	0	0	582	441	0	712	0	0	
2	0	0	0	0	572	424	0	1	0	0	
3	0	0	0	0	564	415	0	0	0	0	
4	0	0	0	0	559	411	0	0	0	0	
5	0	0	0	0	557	415	0	0	0	0	
6	0	0	0	0	559	425	0	0	0	0	
7	0	0	0	0	563	440	0	0	0	0	
8	0	0	0	0	570	460	0	0	0	0	
9	0	0	0	0	578	482	0	504	0	0	
10	0	0	0	0	588	504	0	1020	0	0	
11	0	0	0	0	597	523	0	1021	0	0	
12	0	0	0	0	605	538	0	1021	0	0	
13	0	0	0	0	612	548	0	1021	0	0	
14	0	0	0	0	616	551	0	1021	0	0	
15	0	0	0	0	618	548	0	1020	0	0	
0	0	0	0	0	617	539	0	1020	0	0	
1	0	0	0	0	614	523	0	1020	0	0	
2	0	0	0	0	608	504	0	1020	0	0	
3	0	0	0	0	601	484	0	1021	0	0	
4	0	0	0	0	592	463	0	1021	0	0	
5	0	0	0	0	583	445	0	976	0	0	
6	0	0	0	0	575	430	0	318	0	0	
7	0	0	0	0	569	421	0	1	0	0	
8	0	0	0	0	566	419	0	1	0	0	
9	0	0	0	0	564	423	0	0	0	0	
10	0	0	0	0	567	433	0	0	0	0	
11	0	0	0	0	572	449	0	0	0	0	
12	0	0	0	0	579	468	0	15	0	0	
13	0	0	0	0	587	489	0	639	0	0	
14	0	0	0	0	596	509	0	1020	0	0	
15	0	0	0	0	605	527	0	1021	0	0	
0	0	0	0	0	613	541	0	1021	0	0	
1	0	0	0	0	618	550	0	1021	0	0	
2	0	0	0	0	622	552	0	1020	0	0	
3	0	0	0	0	622	548	0	1020	0	0	
4	0	0	0	0	620	537	0	1020	0	0	
5	0	0	0	0	616	523	0	1020	0	0	
6	0	0	0	0	609	504	0	1020	0	0	
7	0	0	0	0	602	484	0	1021	0	0	
8	0	0	0	0	593	465	0	1021	0	0	
9	0	0	0	0	585	448	0	899	0	0	
10	0	0	0	0	579	435	0	194	0	0	
11	0	0	0	0	574	428	0	0	0	0	
12	0	0	0	0	571	428	0	0	0	0	
13	0	0	0	0	571	433	0	0	0	0	
14	0	0	0	0	575	445	0	0	0	0	
15	0	0	0	0	580	461	0	0	0	0	
0	0	0	0	0	588	480	0	0	0	0	
1	0	0	0	0	598	500	0	437	0	0	
2	0	0	0	0	607	520	0	1020	0	0	
3	0	0	0	0	616	536	0	1020	0	0	
4	0	0	0	0	624	548	0	1021	0	0	
5	0	0	0	0	630	554	0	1020	0	0	
6	0	0	0	0	632	553	0	1020	0	0	
7	0	0	0	0	631	546	0	1020	0	0	
8	0	0	0	0	626	533	0	1020	0	0	
9	0	0	0	0	619	515	0	1020	0	0	
10	0	0	0	0	608	493	0	1020	0	0	
11	0	0	0	0	596	471	0	1021	0	0	
12	0	0	0	0	584	449	0	1021	0	0	
13	0	0	0	0	571	430	0	665	0	0	
14	0	0	0	0	560	416	0	1	0	0	
15	0	0	0	0	551	407	0	0	0	0	
0	0	0	0	0	545	406	0	0	0	0	
1	0	0	0	0	542	411	0	0	0	0	
2	0	0	0	0	543	422	0	0	0	0	
3	0	0	0	0	547	439	0	0	0	0	
4	0	0	0	0	554	459	0	0	0	0	
5	0	0	0	0	562	481	0	155	0	0	
6	0	0	0	0	572	503	0	879	0	0	
7	0	0	0	0	582	523	0	1020	0	0	
8	0	0	0	0	590	537	0	1021	0	0	
9	0	0	0	0	596	547	0	1021	0	0	
10	0	0	0	0	600	550	0	1020	0	0	
11	0	0	0	0	601	547	0	1020	0	0	
12	0	0	0	0	600	538	0	1020	0	0	
13	0	0	0	0	594	524	0	1020	0	0	
14	0	0	0	0	588	506	0	1020	0	0	
15	0	0	0	0	579	487	0	1021	0	0	
0	0	0	0	0	571	470	0	1021	0	0	
1	0	0	0	0	563	455	0	406	0	0	
2	0	0	0	0	556	444	0	0	0	0	
3	0	0	0	0	551	439	0	0	0	0	
4	0	0	0	0	548	440	0	0	0	0	
5	0	0	0	0	548	448	0	0	0	0	
6	0	0	0	0	552	462	0	0	0	0	
7	0	0	0	0	557	480	0	0	0	0	
8	0	0	0	0	564	501	0	0	0	0	
9	0	0	0	0	573	524	0	12	0	0	
10	0	0	0	0	582	545	0	647	0	0	
11	0	0	0	0	590	563	0	1020	0	0	
12	0	0	0	0	597	577	0	1020	0	0	
13	0	0	0	0	603	585	0	1020	0	0	
14	0	0	0	0	606	586	0	1020	0	0	
15	0	0	0	0	605	581	0	1020	0	0	
0	0	0	0	0	602	569	0	1020	0	0	
1	0	0	0	0	596	552	0	1021	0	0	
2	0	0	0	0	588	532	0	1021	0	0	
3	0	0	0	0	578	511	0	1021	0	0	
4	0	0	0	0	568	490	0	871	0	0	
5	0	0	0	0	558	472	0	152	0	0	
6	0	0	0	0	550	460	0	0	0	0	
7	0	0	0	0	543	453	0	0	0	0	
8	0	0	0	0	540	453	0	0	0	0	
9	0	0	0	0	540	460	0	0	0	0	
10	0	0	0	0	542	473	0	0	0	0	
11	0	0	0	0	547	492	0	0	0	0	
12	0	0	0	0	555	513	0	0	0	0	
13	0	0	0	0	563	535	0	0	0	0	
14	0	0	0	0	573	556	0	84	0	0	
15	0	0	0	0	582	575	0	769	0	0	
0	0	0	0	0	589	588	0	1020	0	0	
1	0	0	0	0	594	596	0	1020	0	0	
2	0	0	0	0	597	597	0	1020	0	0	
3	0	0	0	0	598	592	0	1020	0	0	
4	0	0	0	0	595	580	0	1020	0	0	
5	0	0	0	0	591	563	0	1021	0	0	
6	0	0	0	0	583	544	0	984	0	0	
7	0	0	0	0	576	523	0	344	0	0	
8	0	0	0	0	568	503	0	0	0	0	
9	0	0	0	0	560	486	0	0	0	0	
10	0	0	0	0	555	473	0	0	0	0	
11	0	0	0	0	551	466	0	0	0	0	
12	0	0	0	0	549	466	0	0	0	0	
13	0	0	0	0	551	472	0	0	0	0	
14	0	0	0	0	555	485	0	0	0	0	
15	0	0	0	0	560	501	0	0	0	0	
0	0	0	0	0	567	521	0	0	0	0	
1	0	0	0	0	574	542	0	0	0	0	
2	0	0	0	0	582	562	0	0	0	0	
3	0	0	0	0	590	580	0	279	0	0	
4	0	0	0	0	595	593	0	1020	0	0	
5	0	0	0	0	600	601	0	1020	0	0	
6	0	0	0	0	601	603	0	1020	0	0	
7	0	0	0	0	601	598	0	1020	0	0	
8	0	0	0	0	598	587	0	1020	0	0	
9	0	0	0	0	593	571	0	1021	0	0	
10	0	0	0	0	586	551	0	1021	0	0	
11	0	0	0	0	579	531	0	601	0	0	
12	0	0	0	0	571	510	0	1	0	0	
13	0	0	0	0	563	492	0	0	0	0	
14	0	0	0	0	556	479	0	0	0	0	
15	0	0	0	0	550	470	0	0	0	0	
0	0	0	0	0	546	468	0	0	0	0	
1	0	0	0	0	544	472	0	0	0	0	
2	0	0	0	0	544	481	0	0	0	0	
3	0	0	0	0	547	494	0	0	0	0	
4	0	0	0	0	551	511	0	0	0	0	
5	0	0	0	0	556	529	0	0	0	0	
6	0	0	0	0	562	547	0	0	0	0	
7	0	0	0	0	569	563	0	590	0	0	
8	0	0	0	0	575	575	0	1020	0	0	
9	0	0	0	0	580	583	0	1020	0	0	
10	0	0	0	0	585	585	0	1020	0	0	
11	0	0	0	0	588	583	0	1020	0	0	
12	0	0	0	0	590	575	0	1020	0	0	
13	0	0	0	0	590	563	0	1021	0	0	
14	0	0	0	0	588	548	0	1020	0	0	
15	0	0	0	0	585	532	0	926	0	0	
0	0	0	0	0	581	516	0	241	0	0	
1	0	0	0	0	575	502	0	0	0	0	
2	0	0	0	0	572	492	0	0	0	0	
3	0	0	0	0	567	485	0	0	0	0	
4	0	0	0	0	563	484	0	0	0	0	
5	0	0	0	0	561	488	0	0	0	0	
6	0	0	0	0	560	497	0	0	0	0	
7	0	0	0	0	561	511	0	0	0	0	
8	0	0	0	0	562	527	0	0	0	0	
9	0	0	0	0	566	545	0	0	0	0	
10	0	0	0	0	571	563	0	103	0	0	
11	0	0	0	0	575	578	0	801	0	0	
12	0	0	0	0	580	590	0	1020	0	0	
13	0	0	0	0	584	596	0	1020	0	0	
14	0	0	0	0	587	596	0	1020	0	0	
15	0	0	0	0	588	591	0	1020	0	0	
0	0	0	0	0	587	580	0	1020	0	0	
1	0	0	0	0	584	564	0	1020	0	0	
2	0	0	0	0	580	545	0	1020	0	0	
3	0	0	0	0	575	526	0	1021	0	0	
4	0	0	0	0	569	506	0	639	0	0	
5	0	0	0	0	563	488	0	0	0	0	
6	0	0	0	0	556	474	0	0	0	0	
7	0	0	0	0	550	466	0	0	0	0	
8	0	0	0	0	545	464	0	0	0	0	
9	0	0	0	0	543	468	0	0	0	0	
10	0	0	0	0	543	479	0	1	0	0	
11	0	0	0	0	546	495	0	0	0	0	
12	0	0	0	0	551	514	0	0	0	0	
13	0	0	0	0	559	535	0	0	0	0	
14	0	0	0	0	567	556	0	383	0	0	
15	0	0	0	0	576	575	0	1020	0	0	
0	0	0	0	0	584	590	0	1020	0	0	
1	0	0	0	0	591	600	0	1020	0	0	
2	0	0	0	0	596	603	0	1020	0	0	
3	0	0	0	0	598	599	0	1020	0	0	
4	0	0	0	0	598	588	0	1020	0	0	
5	0	0	0	0	594	572	0	1020	0	0	
6	0	0	0	0	588	551	0	1020	0	0	
7	0	0	0	0	579	529	0	1021	0	0	
8	0	0	0	0	569	506	0	718	0	0	
9	0	0	0	0	558	485	0	1	0	0	
10	0	0	0	0	547	468	0	0	0	0	
11	0	0	0	0	537	456	0	0	0	0	
12	0	0	0	0	529	451	0	0	0	0	
13	0	0	0	0	524	452	0	0	0	0	
14	0	0	0	0	522	460	0	0	0	0	
15	0	0	0	0	524	473	0	0	0	0	
0	0	0	0	0	527	491	0	0	0	0	
1	0	0	0	0	535	511	0	0	0	0	
2	0	0	0	0	543	532	0	60	0	0	
3	0	0	0	0	554	551	0	732	0	0	
4	0	0	0	0	564	567	0	1020	0	0	
5	0	0	0	0	574	579	0	1020	0	0	
6	0	0	0	0	583	583	0	1020	0	0	
7	0	0	0	0	589	583	0	1020	0	0	
8	0	0	0	0	593	576	0	1020	0	0	
9	0	0	0	0	595	564	0	1021	0	0	
10	0	0	0	0	593	548	0	1020	0	0	
11	0	0	0	0	590	530	0	400	0	0	
12	0	0	0	0	585	511	0	0	0	0	
13	0	0	0	0	579	495	0	0	0	0	
14	0	0	0	0	572	480	0	0	0	0	
15	0	0	0	0	564	471	0	0	0	0	
0	0	0	0	0	558	467	0	0	0	0	
1	0	0	0	0	552	468	0	0	0	0	
2	0	0	0	0	549	476	0	0	0	0	
3	0	0	0	0	547	487	0	0	0	0	
4	0	0	0	0	547	502	0	0	0	0	
5	0	0	0	0	549	518	0	0	0	0	
6	0	0	0	0	552	535	0	0	0	0	
7	0	0	0	0	556	550	0	194	0	0	
8	0	0	0	0	561	561	0	944	0	0	
9	0	0	0	0	565	568	0	1020	0	0	
10	0	0	0	0	568	570	0	1020	0	0	
11	0	0	0	0	570	566	0	1020	0	0	
12	0	0	0	0	570	556	0	1020	0	0	
13	0	0	0	0	569	541	0	1021	0	0	
14	0	0	0	0	567	523	0	859	0	0	
15	0	0	0	0	564	504	0	146	0	0	
0	0	0	0	0	560	485	0	0	0	0	
1	0	0	0	0	556	469	0	0	0	0	
2	0	0	0	0	553	456	0	0	0	0	
3	0	0	0	0	551	449	0	0	0	0	
4	0	0	0	0	550	449	0	0	0	0	
5	0	0	0	0	551	455	0	0	0	0	
6	0	0	0	0	554	467	0	0	0	0	
7	0	0	0	0	558	483	0	0	0	0	
8	0	0	0	0	563	502	0	0	0	0	
9	0	0	0	0	568	522	0	0	0	0	
10	0	0	0	0	572	542	0	0	0	0	
11	0	0	0	0	576	558	0	385	0	0	
12	0	0	0	0	578	569	0	1020	0	0	
13	0	0	0	0	578	575	0	1020	0	0	
14	0	0	0	0	576	574	0	1020	0	0	
15	0	0	0	0	572	566	0	1020	0	0	
0	0	0	0	0	566	553	0	1020	0	0	
1	0	0	0	0	559	535	0	1021	0	0	
2	0	0	0	0	550	513	0	1021	0	0	
3	0	0	0	0	542	491	0	1020	0	0	
4	0	0	0	0	535	470	0	402	0	0	
5	0	0	0	0	528	451	0	0	0	0	
6	0	0	0	0	523	438	0	0	0	0	
7	0	0	0	0	521	430	0	0	0	0	
8	0	0	0	0	521	430	0	0	0	0	
9	0	0	0	0	524	436	0	0	0	0	
10	0	0	0	0	530	449	0	0	0	0	
11	0	0	0	0	538	467	0	0	0	0	
12	0	0	0	0	547	489	0	0	0	0	
13	0	0	0	0	558	513	0	0	0	0	
14	0	0	0	0	569	536	0	250	0	0	
15	0	0	0	0	578	557	0	1019	0	0	
0	0	0	0	0	585	572	0	1020	0	0	
1	0	0	0	0	589	582	0	1020	0	0	
2	0	0	0	0	590	583	0	1020	0	0	
3	0	0	0	0	588	579	0	1020	0	0	
4	0	0	0	0	583	567	0	1020	0	0	
5	0	0	0	0	574	549	0	1020	0	0	
6	0	0	0	0	564	527	0	1021	0	0	
7	0	0	0	0	552	504	0	1020	0	0	
8	0	0	0	0	541	481	0	784	0	0	
9	0	0	0	0	530	461	0	20	0	0	
10	0	0	0	0	521	445	0	0	0	0	
11	0	0	0	0	515	435	0	0	0	0	
12	0	0	0	0	512	433	0	0	0	0	
13	0	0	0	0	513	439	0	0	0	0	
14	0	0	0	0	518	451	0	0	0	0	
15	0	0	0	0	525	468	0	0	0	0	
0	0	0	0	0	535	489	0	0	0	0	
1	0	0	0	0	547	513	0	0	0	0	
2	0	0	0	0	559	537	0	206	0	0	
3	0	0	0	0	571	558	0	961	0	0	
4	0	0	0	0	582	575	0	1020	0	0	
5	0	0	0	0	590	586	0	1020	0	0	
6	0	0	0	0	595	590	0	1020	0	0	
7	0	0	0	0	597	587	0	1020	0	0	
8	0	0	0	0	595	576	0	1020	0	0	
9	0	0	0	0	591	560	0	1021	0	0	
10	0	0	0	0	583	539	0	1021	0	0	
11	0	0	0	0	573	515	0	887	0	0	
12	0	0	0	0	562	492	0	179	0	0	
13	0	0	0	0	551	470	0	0	0	0	
14	0	0	0	0	542	453	0	0	0	0	
15	0	0	0	0	534	441	0	0	0	0	
0	0	0	0	0	528	436	0	0	0	0	
1	0	0	0	0	526	439	0	0	0	0	
2	0	0	0	0	526	447	0	0	0	0	
3	0	0	0	0	530	461	0	0	0	0	
4	0	0	0	0	535	479	0	0	0	0	
5	0	0	0	0	542	499	0	0	0	0	
6	0	0	0	0	551	520	0	0	0	0	
7	0	0	0	0	559	539	0	552	0	0	
8	0	0	0	0	568	554	0	1020	0	0	
9	0	0	0	0	574	563	0	1020	0	0	
10	0	0	0	0	579	567	0	1020	0	0	
11	0	0	0	0	582	565	0	1020	0	0	
12	0	0	0	0	583	557	0	1020	0	0	
13	0	0	0	0	581	544	0	1021	0	0	
14	0	0	0	0	579	528	0	1020	0	0	
15	0	0	0	0	575	511	0	723	0	0	
0	0	0	0	0	570	494	0	1	0	0	
1	0	0	0	0	564	480	0	0	0	0	
2	0	0	0	0	559	469	0	0	0	0	
3	0	0	0	0	555	464	0	0	0	0	
4	0	0	0	0	552	465	0	0	0	0	
5	0	0	0	0	551	472	0	0	0	0	
6	0	0	0	0	551	483	0	0	0	0	
7	0	0	0	0	552	499	0	0	0	0	
8	0	0	0	0	555	518	0	0	0	0	
9	0	0	0	0	558	537	0	0	0	0	
10	0	0	0	0	562	555	0	0	0	0	
11	0	0	0	0	566	571	0	632	0	0	
12	0	0	0	0	568	582	0	1020	0	0	
13	0	0	0	0	569	587	0	1020	0	0	
14	0	0	0	0	569	586	0	1020	0	0	
15	0	0	0	0	568	579	0	1020	0	0	
0	0	0	0	0	564	566	0	1020	0	0	
1	0	0	0	0	559	547	0	1020	0	0	
2	0	0	0	0	552	527	0	1021	0	0	
3	0	0	0	0	545	504	0	1021	0	0	
4	0	0	0	0	539	483	0	676	0	0	
5	0	0	0	0	532	465	0	1	0	0	
6	0	0	0	0	527	451	0	0	0	0	
7	0	0	0	0	523	444	0	0	0	0	
8	0	0	0	0	521	442	0	0	0	0	
9	0	0	0	0	522	448	0	0	0	0	
10	0	0	0	0	524	459	0	0	0	0	
11	0	0	0	0	529	476	0	0	0	0	
12	0	0	0	0	536	497	0	0	0	0	
13	0	0	0	0	544	519	0	0	0	0	
14	0	0	0	0	553	541	0	472	0	0	
15	0	0	0	0	563	561	0	1020	0	0	
0	0	0	0	0	570	576	0	1020	0	0	
1	0	0	0	0	576	585	0	1021	0	0	
2	0	0	0	0	580	588	0	1020	0	0	
3	0	0	0	0	581	583	0	1020	0	0	
4	0	0	0	0	578	572	0	1020	0	0	
5	0	0	0	0	573	555	0	1020	0	0	
6	0	0	0	0	565	534	0	1021	0	0	
7	0	0	0	0	556	512	0	1020	0	0	
8	0	0	0	0	546	489	0	1021	0	0	
9	0	0	0	0	536	470	0	492	0	0	
10	0	0	0	0	528	454	0	1	0	0	
11	0	0	0	0	521	444	0	0	0	0	
12	0	0	0	0	518	441	0	0	0	0	
13	0	0	0	0	518	445	0	0	0	0	
14	0	0	0	0	521	455	0	0	0	0	
15	0	0	0	0	527	472	0	0	0	0	
0	0	0	0	0	536	492	0	0	0	0	
1	0	0	0	0	547	515	0	203	0	0	
2	0	0	0	0	560	538	0	952	0	0	
3	0	0	0	0	572	559	0	1020	0	0	
4	0	0	0	0	583	576	0	1020	0	0	
5	0	0	0	0	593	589	0	1021	0	0	
6	0	0	0	0	600	594	0	1020	0	0	
7	0	0	0	0	603	592	0	1020	0	0	
8	0	0	0	0	602	583	0	1020	0	0	
9	0	0	0	0	597	569	0	1020	0	0	
10	0	0	0	0	590	550	0	1020	0	0	
11	0	0	0	0	580	529	0	1021	0	0	
12	0	0	0	0	570	508	0	1021	0	0	
13	0	0	0	0	558	489	0	942	0	0	
14	0	0	0	0	547	473	0	263	0	0	
15	0	0	0	0	538	463	0	0	0	0	
0	0	0	0	0	531	458	0	1	0	0	
1	0	0	0	0	526	459	0	0	0	0	
2	0	0	0	0	523	465	0	0	0	0	
3	0	0	0	0	523	477	0	0	0	0	
4	0	0	0	0	526	492	0	14	0	0	
5	0	0	0	0	530	508	0	639	0	0	
6	0	0	0	0	536	526	0	1020	0	0	
7	0	0	0	0	543	541	0	1020	0	0	
8	0	0	0	0	550	553	0	1020	0	0	
9	0	0	0	0	556	561	0	1021	0	0	
10	0	0	0	0	561	563	0	1021	0	0	
11	0	0	0	0	565	561	0	1020	0	0	
12	0	0	0	0	567	553	0	1020	0	0	
13	0	0	0	0	567	540	0	1020	0	0	
14	0	0	0	0	565	526	0	1020	0	0	
15	0	0	0	0	561	509	0	1020	0	0	
0	0	0	0	0	557	492	0	1021	0	0	
1	0	0	0	0	551	478	0	1021	0	0	
2	0	0	0	0	547	467	0	624	0	0	
3	0	0	0	0	543	461	0	1	0	0	
4	0	0	0	0	541	462	0	1	0	0	
5	0	0	0	0	541	468	0	0	0	0	
6	0	0	0	0	543	480	0	0	0	0	
7	0	0	0	0	546	496	0	0	0	0	
8	0	0	0	0	552	516	0	112	0	0	
9	0	0	0	0	559	536	0	799	0	0	
10	0	0	0	0	566	556	0	1020	0	0	
11	0	0	0	0	573	573	0	1021	0	0	
12	0	0	0	0	579	585	0	1020	0	0	
13	0	0	0	0	584	593	0	1021	0	0	
14	0	0	0	0	587	594	0	1020	0	0	
15	0	0	0	0	588	588	0	1020	0	0	
0	0	0	0	0	585	576	0	1020	0	0	
1	0	0	0	0	579	559	0	1020	0	0	
2	0	0	0	0	572	537	0	1020	0	0	
3	0	0	0	0	562	514	0	1021	0	0	
4	0	0	0	0	551	491	0	1021	0	0	
5	0	0	0	0	540	470	0	1021	0	0	
6	0	0	0	0	529	453	0	527	0	0	
7	0	0	0	0	519	441	0	1	0	0	
8	0	0	0	0	513	437	0	1	0	0	
9	0	0	0	0	509	439	0	0	0	0	
10	0	0	0	0	508	448	0	0	0	0	
11	0	0	0	0	511	463	0	0	0	0	
12	0	0	0	0	515	481	0	0	0	0	
13	0	0	0	0	523	503	0	371	0	0	
14	0	0	0	0	533	524	0	1020	0	0	
15	0	0	0	0	543	544	0	1020	0	0	
0	0	0	0	0	553	560	0	1021	0	0	
1	0	0	0	0	562	571	0	1021	0	0	
2	0	0	0	0	569	575	0	1020	0	0	
3	0	0	0	0	573	573	0	1020	0	0	
4	0	0	0	0	574	564	0	1020	0	0	
5	0	0	0	0	573	550	0	1020	0	0	
6	0	0	0	0	568	532	0	1021	0	0	
7	0	0	0	0	560	511	0	1021	0	0	
8	0	0	0	0	550	491	0	1021	0	0	
9	0	0	0	0	540	472	0	514	0	0	
10	0	0	0	0	529	457	0	0	0	0	
11	0	0	0	0	521	448	0	0	0	0	
12	0	0	0	0	515	445	0	0	0	0	
13	0	0	0	0	511	449	0	0	0	0	
14	0	0	0	0	510	460	0	0	0	0	
15	0	0	0	0	512	475	0	0	0	0	
0	0	0	0	0	517	495	0	0	0	0	
1	0	0	0	0	525	517	0	0	0	0	
2	0	0	0	0	534	539	0	367	0	0	
3	0	0	0	0	543	559	0	1020	0	0	
4	0	0	0	0	552	575	0	1020	0	0	
5	0	0	0	0	560	586	0	1020	0	0	
6	0	0	0	0	566	591	0	1020	0	0	
7	0	0	0	0	570	589	0	1020	0	0	
8	0	0	0	0	571	582	0	1020	0	0	
9	0	0	0	0	568	568	0	1020	0	0	
10	0	0	0	0	564	551	0	1021	0	0	
11	0	0	0	0	556	531	0	1021	0	0	
12	0	0	0	0	548	512	0	635	0	0	
13	0	0	0	0	539	495	0	1	0	0	
14	0	0	0	0	531	481	0	0	0	0	
15	0	0	0	0	524	473	0	0	0	0	
0	0	0	0	0	519	472	0	0	0	0	
1	0	0	0	0	518	477	0	0	0	0	
2	0	0	0	0	519	489	0	0	0	0	
3	0	0	0	0	523	505	0	0	0	0	
4	0	0	0	0	530	526	0	0	0	0	
5	0	0	0	0	539	548	0	0	0	0	
6	0	0	0	0	549	570	0	82	0	0	
7	0	0	0	0	559	590	0	768	0	0	
8	0	0	0	0	569	604	0	1020	0	0	
9	0	0	0	0	577	614	0	1020	0	0	
10	0	0	0	0	582	617	0	1020	0	0	
11	0	0	0	0	585	613	0	1020	0	0	
12	0	0	0	0	585	602	0	1020	0	0	
13	0	0	0	0	582	586	0	1021	0	0	
14	0	0	0	0	576	566	0	1021	0	0	
15	0	0	0	0	569	544	0	978	0	0	
0	0	0	0	0	561	523	0	327	0	0	
1	0	0	0	0	553	503	0	0	0	0	
2	0	0	0	0	546	487	0	0	0	0	
3	0	0	0	0	540	478	0	0	0	0	
4	0	0	0	0	535	474	0	0	0	0	
5	0	0	0	0	534	478	0	0	0	0	
6	0	0	0	0	535	487	0	0	0	0	
7	0	0	0	0	538	502	0	0	0	0	
8	0	0	0	0	543	520	0	0	0	0	
9	0	0	0	0	550	540	0	0	0	0	
10	0	0	0	0	558	560	0	0	0	0	
11	0	0	0	0	566	579	0	371	0	0	
12	0	0	0	0	574	594	0	1020	0	0	
13	0	0	0	0	581	604	0	1020	0	0	
14	0	0	0	0	586	609	0	1020	0	0	
15	0	0	0	0	589	607	0	1020	0	0	
0	0	0	0	0	590	599	0	1020	0	0	
1	0	0	0	0	588	585	0	1021	0	0	
2	0	0	0	0	583	568	0	1021	0	0	
3	0	0	0	0	577	547	0	440	0	0	
4	0	0	0	0	568	526	0	0	0	0	
5	0	0	0	0	558	505	0	0	0	0	
6	0	0	0	0	547	488	0	0	0	0	
7	0	0	0	0	537	475	0	0	0	0	
8	0	0	0	0	528	467	0	0	0	0	
9	0	0	0	0	521	466	0	0	0	0	
10	0	0	0	0	517	471	0	0	0	0	
11	0	0	0	0	516	482	0	0	0	0	
12	0	0	0	0	516	496	0	0	0	0	
13	0	0	0	0	520	514	0	0	0	0	
14	0	0	0	0	526	532	0	0	0	0	
15	0	0	0	0	533	549	0	234	0	0	
0	0	0	0	0	540	563	0	1004	0	0	
1	0	0	0	0	547	573	0	1020	0	0	
2	0	0	0	0	554	577	0	1020	0	0	
3	0	0	0	0	558	575	0	1020	0	0	
4	0	0	0	0	560	568	0	1020	0	0	
5	0	0	0	0	562	556	0	1021	0	0	
6	0	0	0	0	560	540	0	1020	0	0	
7	0	0	0	0	558	523	0	513	0	0	
8	0	0	0	0	554	505	0	0	0	0	
9	0	0	0	0	550	490	0	0	0	0	
10	0	0	0	0	547	479	0	0	0	0	
11	0	0	0	0	544	473	0	0	0	0	
12	0	0	0	0	543	473	0	0	0	0	
13	0	0	0	0	543	479	0	0	0	0	
14	0	0	0	0	545	491	0	0	0	0	
15	0	0	0	0	548	506	0	0	0	0	
0	0	0	0	0	553	525	0	0	0	0	
1	0	0	0	0	559	545	0	0	0	0	
2	0	0	0	0	565	565	0	0	0	0	
3	0	0	0	0	572	582	0	299	0	0	
4	0	0	0	0	577	595	0	1020	0	0	
5	0	0	0	0	582	603	0	1020	0	0	
6	0	0	0	0	585	604	0	1020	0	0	
7	0	0	0	0	586	600	0	1020	0	0	
8	0	0	0	0	584	588	0	1020	0	0	
9	0	0	0	0	580	572	0	1021	0	0	
10	0	0	0	0	575	553	0	1020	0	0	
11	0	0	0	0	568	532	0	780	0	0	
12	0	0	0	0	561	511	0	17	0	0	
13	0	0	0	0	554	494	0	0	0	0	
14	0	0	0	0	548	481	0	0	0	0	
15	0	0	0	0	543	473	0	0	0	0	
0	0	0	0	0	541	472	0	0	0	0	
1	0	0	0	0	542	478	0	0	0	0	
2	0	0	0	0	544	489	0	0	0	0	
3	0	0	0	0	549	505	0	0	0	0	
4	0	0	0	0	555	524	0	0	0	0	
5	0	0	0	0	562	545	0	0	0	0	
6	0	0	0	0	570	564	0	0	0	0	
7	0	0	0	0	577	582	0	426	0	0	
8	0	0	0	0	582	594	0	1020	0	0	
9	0	0	0	0	584	600	0	1020	0	0	
10	0	0	0	0	584	600	0	1020	0	0	
11	0	0	0	0	580	591	0	1020	0	0	
12	0	0	0	0	572	575	0	1020	0	0	
13	0	0	0	0	561	552	0	1021	0	0	
14	0	0	0	0	546	525	0	1020	0	0	
15	0	0	0	0	528	495	0	798	0	0	
0	0	0	0	0	508	463	0	44	0	0	
1	0	0	0	0	488	433	0	0	0	0	
2	0	0	0	0	468	407	0	0	0	0	
3	0	0	0	0	448	384	0	0	0	0	
4	0	0	0	0	432	369	0	0	0	0	
5	0	0	0	0	418	360	0	0	0	0	
6	0	0	0	0	408	358	0	0	0	0	
7	0	0	0	0	401	362	0	0	0	0	
8	0	0	0	0	398	372	0	0	0	0	
9	0	0	0	0	399	385	0	0	0	0	
10	0	0	0	0	404	401	0	0	0	0	
11	0	0	0	0	412	418	0	492	0	0	
12	0	0	0	0	424	434	0	1020	0	0	
13	0	0	0	0	437	447	0	1020	0	0	
14	0	0	0	0	452	457	0	1020	0	0	
15	0	0	0	0	468	464	0	1020	0	0	
0	0	0	0	0	483	467	0	1020	0	0	
1	0	0	0	0	499	467	0	1021	0	0	
2	0	0	0	0	513	465	0	1020	0	0	
3	0	0	0	0	526	462	0	1015	0	0	
4	0	0	0	0	538	459	0	388	0	0	
5	0	0	0	0	549	458	0	0	0	0	
6	0	0	0	0	559	460	0	0	0	0	
7	0	0	0	0	567	466	0	0	0	0	
8	0	0	0	0	574	476	0	0	0	0	
9	0	0	0	0	581	490	0	0	0	0	
10	0	0	0	0	587	508	0	0	0	0	
11	0	0	0	0	591	527	0	0	0	0	
12	0	0	0	0	596	548	0	0	0	0	
13	0	0	0	0	599	569	0	0	0	0	
14	0	0	0	0	601	587	0	62	0	0	
15	0	0	0	0	601	601	0	735	0	0	
0	0	0	0	0	600	611	0	1020	0	0	
1	0	0	0	0	597	614	0	1020	0	0	
2	0	0	0	0	592	611	0	1020	0	0	
3	0	0	0	0	586	601	0	1020	0	0	
4	0	0	0	0	577	585	0	1020	0	0	
5	0	0	0	0	568	565	0	1020	0	0	
6	0	0	0	0	558	541	0	1020	0	0	
7	0	0	0	0	547	517	0	1021	0	0	
8	0	0	0	0	538	494	0	611	0	0	
9	0	0	0	0	530	474	0	1	0	0	
10	0	0	0	0	524	460	0	0	0	0	
11	0	0	0	0	521	453	0	0	0	0	
12	0	0	0	0	521	453	0	0	0	0	
13	0	0	0	0	524	461	0	0	0	0	
14	0	0	0	0	529	475	0	0	0	0	
15	0	0	0	0	537	494	0	0	0	0	
0	0	0	0	0	547	517	0	0	0	0	
1	0	0	0	0	557	541	0	0	0	0	
2	0	0	0	0	568	564	0	192	0	0	
3	0	0	0	0	577	584	0	940	0	0	
4	0	0	0	0	584	600	0	1020	0	0	
5	0	0	0	0	590	609	0	1020	0	0	
6	0	0	0	0	593	612	0	1020	0	0	
7	0	0	0	0	592	608	0	1020	0	0	
8	0	0	0	0	590	598	0	1020	0	0	
9	0	0	0	0	585	583	0	1020	0	0	
10	0	0	0	0	579	564	0	1020	0	0	
11	0	0	0	0	572	545	0	1021	0	0	
12	0	0	0	0	564	525	0	792	0	0	
13	0	0	0	0	558	508	0	32	0	0	
14	0	0	0	0	553	496	0	0	0	0	
15	0	0	0	0	548	488	0	0	0	0	
0	0	0	0	0	547	487	0	0	0	0	
1	0	0	0	0	547	491	0	0	0	0	
2	0	0	0	0	550	502	0	0	0	0	
3	0	0	0	0	553	515	0	0	0	0	
4	0	0	0	0	558	532	0	0	0	0	
5	0	0	0	0	564	551	0	0	0	0	
6	0	0	0	0	569	568	0	303	0	0	
7	0	0	0	0	575	583	0	1020	0	0	
8	0	0	0	0	579	595	0	1021	0	0	
9	0	0	0	0	582	601	0	1020	0	0	
10	0	0	0	0	583	601	0	1020	0	0	
11	0	0	0	0	582	596	0	1020	0	0	
12	0	0	0	0	579	585	0	1020	0	0	
13	0	0	0	0	575	570	0	1020	0	0	
14	0	0	0	0	570	551	0	1021	0	0	
15	0	0	0	0	563	531	0	1020	0	0	
0	0	0	0	0	556	511	0	928	0	0	
1	0	0	0	0	548	494	0	242	0	0	
2	0	0	0	0	542	480	0	0	0	0	
3	0	0	0	0	537	471	0	0	0	0	
4	0	0	0	0	534	469	0	0	0	0	
5	0	0	0	0	534	474	0	0	0	0	
6	0	0	0	0	536	484	0	0	0	0	
7	0	0	0	0	540	499	0	0	0	0	
8	0	0	0	0	546	519	0	0	0	0	
9	0	0	0	0	554	540	0	0	0	0	
10	0	0	0	0	563	562	0	274	0	0	
11	0	0	0	0	571	582	0	1019	0	0	
12	0	0	0	0	578	596	0	1020	0	0	
13	0	0	0	0	583	606	0	1020	0	0	
14	0	0	0	0	586	609	0	1020	0	0	
15	0	0	0	0	587	606	0	1020	0	0	
0	0	0	0	0	584	596	0	1020	0	0	
1	0	0	0	0	579	581	0	1020	0	0	
2	0	0	0	0	573	563	0	1020	0	0	
3	0	0	0	0	565	542	0	1021	0	0	
4	0	0	0	0	556	522	0	648	0	0	
5	0	0	0	0	548	504	0	1	0	0	
6	0	0	0	0	540	489	0	0	0	0	
7	0	0	0	0	533	479	0	0	0	0	
8	0	0	0	0	529	476	0	0	0	0	
9	0	0	0	0	527	478	0	0	0	0	
10	0	0	0	0	527	487	0	0	0	0	
11	0	0	0	0	529	499	0	0	0	0	
12	0	0	0	0	534	516	0	0	0	0	
13	0	0	0	0	539	535	0	0	0	0	
14	0	0	0	0	546	553	0	157	0	0	
15	0	0	0	0	552	570	0	887	0	0	
0	0	0	0	0	558	583	0	1020	0	0	
1	0	0	0	0	563	590	0	1020	0	0	
2	0	0	0	0	565	592	0	1020	0	0	
3	0	0	0	0	566	588	0	1020	0	0	
4	0	0	0	0	564	578	0	1020	0	0	
5	0	0	0	0	561	563	0	1021	0	0	
6	0	0	0	0	557	545	0	1021	0	0	
7	0	0	0	0	551	526	0	1020	0	0	
8	0	0	0	0	545	507	0	860	0	0	
9	0	0	0	0	540	491	0	135	0	0	
10	0	0	0	0	536	479	0	0	0	0	
11	0	0	0	0	533	472	0	0	0	0	
12	0	0	0	0	532	472	0	0	0	0	
13	0	0	0	0	534	479	0	0	0	0	
14	0	0	0	0	538	491	0	0	0	0	
15	0	0	0	0	544	507	0	0	0	0	
0	0	0	0	0	550	526	0	0	0	0	
1	0	0	0	0	558	546	0	0	0	0	
2	0	0	0	0	566	566	0	388	0	0	
3	0	0	0	0	573	583	0	1020	0	0	
4	0	0	0	0	579	595	0	1020	0	0	
5	0	0	0	0	583	603	0	1021	0	0	
6	0	0	0	0	585	604	0	1020	0	0	
7	0	0	0	0	585	598	0	1020	0	0	
8	0	0	0	0	581	586	0	1020	0	0	
9	0	0	0	0	576	569	0	1020	0	0	
10	0	0	0	0	568	548	0	1020	0	0	
11	0	0	0	0	560	525	0	1021	0	0	
12	0	0	0	0	551	503	0	1021	0	0	
13	0	0	0	0	542	483	0	453	0	0	
14	0	0	0	0	534	467	0	1	0	0	
15	0	0	0	0	528	458	0	0	0	0	
0	0	0	0	0	524	455	0	0	0	0	
1	0	0	0	0	522	459	0	0	0	0	
2	0	0	0	0	523	469	0	0	0	0	
3	0	0	0	0	526	485	0	0	0	0	
4	0	0	0	0	531	504	0	0	0	0	
5	0	0	0	0	537	525	0	0	0	0	
6	0	0	0	0	543	546	0	588	0	0	
7	0	0	0	0	550	565	0	1020	0	0	
8	0	0	0	0	556	579	0	1020	0	0	
9	0	0	0	0	560	587	0	1021	0	0	
10	0	0	0	0	562	590	0	1020	0	0	
11	0	0	0	0	561	585	0	1020	0	0	
12	0	0	0	0	559	574	0	1020	0	0	
13	0	0	0	0	554	558	0	1020	0	0	
14	0	0	0	0	547	538	0	1021	0	0	
15	0	0	0	0	539	517	0	1020	0	0	
0	0	0	0	0	530	496	0	1021	0	0	
1	0	0	0	0	521	477	0	496	0	0	
2	0	0	0	0	514	462	0	1	0	0	
3	0	0	0	0	509	453	0	0	0	0	
4	0	0	0	0	506	450	0	0	0	0	
5	0	0	0	0	505	454	0	0	0	0	
6	0	0	0	0	507	463	0	0	0	0	
7	0	0	0	0	511	478	0	0	0	0	
8	0	0	0	0	517	496	0	0	0	0	
9	0	0	0	0	525	517	0	0	0	0	
10	0	0	0	0	534	537	0	354	0	0	
11	0	0	0	0	543	556	0	1020	0	0	
12	0	0	0	0	550	570	0	1020	0	0	
13	0	0	0	0	556	578	0	1020	0	0	
14	0	0	0	0	558	580	0	1020	0	0	
15	0	0	0	0	558	576	0	1020	0	0	
0	0	0	0	0	556	565	0	1020	0	0	
1	0	0	0	0	550	549	0	1020	0	0	
2	0	0	0	0	542	529	0	1021	0	0	
3	0	0	0	0	533	508	0	1021	0	0	
4	0	0	0	0	523	486	0	516	0	0	
5	0	0	0	0	514	467	0	0	0	0	
6	0	0	0	0	506	451	0	0	0	0	
7	0	0	0	0	499	441	0	0	0	0	
8	0	0	0	0	496	438	0	0	0	0	
9	0	0	0	0	495	441	0	0	0	0	
10	0	0	0	0	497	450	0	0	0	0	
11	0	0	0	0	502	465	0	0	0	0	
12	0	0	0	0	510	483	0	0	0	0	
13	0	0	0	0	519	504	0	0	0	0	
14	0	0	0	0	528	525	0	0	0	0	
15	0	0	0	0	539	544	0	519	0	0	
0	0	0	0	0	547	559	0	1020	0	0	
1	0	0	0	0	552	568	0	1020	0	0	
2	0	0	0	0	556	571	0	1020	0	0	
3	0	0	0	0	556	567	0	1020	0	0	
4	0	0	0	0	553	556	0	1020	0	0	
5	0	0	0	0	547	540	0	1020	0	0	
6	0	0	0	0	538	520	0	1021	0	0	
7	0	0	0	0	528	499	0	772	0	0	
8	0	0	0	0	517	477	0	7	0	0	
9	0	0	0	0	506	457	0	0	0	0	
10	0	0	0	0	497	442	0	0	0	0	
11	0	0	0	0	489	432	0	0	0	0	
12	0	0	0	0	486	430	0	0	0	0	
13	0	0	0	0	486	433	0	0	0	0	
14	0	0	0	0	489	443	0	0	0	0	
15	0	0	0	0	496	458	0	0	0	0	
0	0	0	0	0	505	477	0	0	0	0	
1	0	0	0	0	516	498	0	0	0	0	
2	0	0	0	0	528	519	0	0	0	0	
3	0	0	0	0	540	537	0	93	0	0	
4	0	0	0	0	551	552	0	781	0	0	
5	0	0	0	0	559	562	0	1020	0	0	
6	0	0	0	0	564	565	0	1020	0	0	
7	0	0	0	0	568	561	0	1020	0	0	
8	0	0	0	0	567	551	0	1021	0	0	
9	0	0	0	0	564	536	0	976	0	0	
10	0	0	0	0	558	518	0	350	0	0	
11	0	0	0	0	551	497	0	0	0	0	
12	0	0	0	0	542	477	0	0	0	0	
13	0	0	0	0	532	458	0	0	0	0	
14	0	0	0	0	524	443	0	0	0	0	
15	0	0	0	0	517	433	0	0	0	0	
0	0	0	0	0	512	430	0	0	0	0	
1	0	0	0	0	509	432	0	0	0	0	
2	0	0	0	0	509	441	0	0	0	0	
3	0	0	0	0	511	455	0	0	0	0	
4	0	0	0	0	517	473	0	0	0	0	
5	0	0	0	0	524	494	0	0	0	0	
6	0	0	0	0	532	515	0	0	0	0	
7	0	0	0	0	542	534	0	0	0	0	
8	0	0	0	0	550	550	0	18	0	0	
9	0	0	0	0	557	561	0	465	0	0	
10	0	0	0	0	562	566	0	844	0	0	
11	0	0	0	0	565	565	0	910	0	0	
12	0	0	0	0	564	559	0	572	0	0	
13	0	0	0	0	561	546	0	1	0	0	
14	0	0	0	0	556	531	0	0	0	0	
15	0	0	0	0	549	513	0	0	0	0	
0	0	0	0	0	541	496	0	0	0	0	
1	0	0	0	0	533	480	0	0	0	0	
2	0	0	0	0	526	469	0	0	0	0	
3	0	0	0	0	521	462	0	0	0	0	
4	0	0	0	0	518	462	0	0	0	0	
5	0	0	0	0	518	467	0	0	0	0	
6	0	0	0	0	521	479	0	0	0	0	
7	0	0	0	0	527	495	0	0	0	0	
8	0	0	0	0	535	515	0	0	0	0	
9	0	0	0	0	544	536	0	0	0	0	
10	0	0	0	0	555	556	0	0	0	0	
11	0	0	0	0	566	574	0	0	0	0	
12	0	0	0	0	575	588	0	156	0	0	
13	0	0	0	0	582	596	0	862	0	0	
14	0	0	0	0	587	598	0	1020	0	0	
15	0	0	0	0	589	593	0	1020	0	0	
0	0	0	0	0	589	582	0	1020	0	0	
1	0	0	0	0	586	566	0	1020	0	0	
2	0	0	0	0	580	547	0	705	0	0	
3	0	0	0	0	574	527	0	1	0	0	
4	0	0	0	0	566	507	0	0	0	0	
5	0	0	0	0	559	490	0	0	0	0	
6	0	0	0	0	553	478	0	0	0	0	
7	0	0	0	0	547	470	0	0	0	0	
8	0	0	0	0	545	470	0	0	0	0	
9	0	0	0	0	545	476	0	0	0	0	
10	0	0	0	0	547	489	0	0	0	0	
11	0	0	0	0	552	506	0	0	0	0	
12	0	0	0	0	560	527	0	0	0	0	
13	0	0	0	0	569	550	0	0	0	0	
14	0	0	0	0	578	572	0	0	0	0	
15	0	0	0	0	588	591	0	527	0	0	
0	0	0	0	0	596	607	0	1020	0	0	
1	0	0	0	0	603	617	0	1020	0	0	
2	0	0	0	0	607	620	0	1020	0	0	
3	0	0	0	0	608	617	0	1020	0	0	
4	0	0	0	0	605	608	0	1020	0	0	
5	0	0	0	0	600	592	0	1020	0	0	
6	0	0	0	0	591	572	0	1021	0	0	
7	0	0	0	0	580	549	0	1021	0	0	
8	0	0	0	0	567	526	0	1021	0	0	
9	0	0	0	0	554	504	0	579	0	0	
10	0	0	0	0	542	486	0	0	0	0	
11	0	0	0	0	530	474	0	0	0	0	
12	0	0	0	0	522	469	0	0	0	0	
13	0	0	0	0	517	471	0	0	0	0	
14	0	0	0	0	516	480	0	0	0	0	
15	0	0	0	0	519	495	0	0	0	0	
0	0	0	0	0	525	514	0	0	0	0	
1	0	0	0	0	534	536	0	171	0	0	
2	0	0	0	0	545	559	0	903	0	0	
3	0	0	0	0	558	581	0	1020	0	0	
4	0	0	0	0	569	598	0	1021	0	0	
5	0	0	0	0	580	611	0	1021	0	0	
6	0	0	0	0	590	619	0	1020	0	0	
7	0	0	0	0	595	619	0	1020	0	0	
8	0	0	0	0	598	612	0	1020	0	0	
9	0	0	0	0	597	600	0	1020	0	0	
10	0	0	0	0	593	583	0	1020	0	0	
11	0	0	0	0	586	564	0	1021	0	0	
12	0	0	0	0	577	543	0	1021	0	0	
13	0	0	0	0	567	523	0	689	0	0	
14	0	0	0	0	557	507	0	1	0	0	
15	0	0	0	0	548	495	0	0	0	0	
0	0	0	0	0	541	489	0	0	0	0	
1	0	0	0	0	537	490	0	0	0	0	
2	0	0	0	0	536	497	0	0	0	0	
3	0	0	0	0	538	508	0	0	0	0	
4	0	0	0	0	543	525	0	0	0	0	
5	0	0	0	0	550	543	0	4	0	0	
6	0	0	0	0	559	562	0	636	0	0	
7	0	0	0	0	568	580	0	1020	0	0	
8	0	0	0	0	575	593	0	1020	0	0	
9	0	0	0	0	582	603	0	1021	0	0	
10	0	0	0	0	587	607	0	1020	0	0	
11	0	0	0	0	588	604	0	1020	0	0	
12	0	0	0	0	588	596	0	1020	0	0	
13	0	0	0	0	585	583	0	1020	0	0	
14	0	0	0	0	580	567	0	1021	0	0	
15	0	0	0	0	573	548	0	1021	0	0	
0	0	0	0	0	565	529	0	1021	0	0	
1	0	0	0	0	556	512	0	404	0	0	
2	0	0	0	0	548	498	0	0	0	0	
3	0	0	0	0	542	488	0	0	0	0	
4	0	0	0	0	537	484	0	0	0	0	
5	0	0	0	0	535	486	0	0	0	0	
6	0	0	0	0	536	494	0	0	0	0	
7	0	0	0	0	539	505	0	0	0	0	
8	0	0	0	0	544	519	0	0	0	0	
9	0	0	0	0	552	536	0	0	0	0	
10	0	0	0	0	560	553	0	624	0	0	
11	0	0	0	0	569	568	0	1020	0	0	
12	0	0	0	0	576	579	0	1021	0	0	
13	0	0	0	0	583	587	0	1020	0	0	
14	0	0	0	0	587	589	0	1021	0	0	
15	0	0	0	0	590	585	0	1020	0	0	
0	0	0	0	0	590	577	0	1020	0	0	
1	0	0	0	0	588	564	0	1020	0	0	
2	0	0	0	0	583	549	0	1020	0	0	
3	0	0	0	0	578	532	0	1021	0	0	
4	0	0	0	0	571	515	0	1021	0	0	
5	0	0	0	0	564	499	0	920	0	0	
6	0	0	0	0	557	486	0	228	0	0	
7	0	0	0	0	551	477	0	1	0	0	
8	0	0	0	0	546	474	0	0	0	0	
9	0	0	0	0	543	476	0	0	0	0	
10	0	0	0	0	543	483	0	0	0	0	
11	0	0	0	0	544	494	0	0	0	0	
12	0	0	0	0	548	508	0	0	0	0	
13	0	0	0	0	553	524	0	587	0	0	
14	0	0	0	0	560	540	0	1020	0	0	
15	0	0	0	0	566	553	0	1021	0	0	
0	0	0	0	0	572	564	0	1021	0	0	
1	0	0	0	0	577	571	0	1021	0	0	
2	0	0	0	0	581	573	0	1021	0	0	
3	0	0	0	0	582	569	0	1020	0	0	
4	0	0	0	0	581	560	0	1020	0	0	
5	0	0	0	0	578	547	0	1020	0	0	
6	0	0	0	0	573	531	0	1020	0	0	
7	0	0	0	0	566	514	0	1020	0	0	
8	0	0	0	0	558	497	0	1021	0	0	
9	0	0	0	0	550	482	0	1021	0	0	
10	0	0	0	0	543	471	0	815	0	0	
11	0	0	0	0	537	464	0	71	0	0	
12	0	0	0	0	535	464	0	1	0	0	
13	0	0	0	0	534	470	0	0	0	0	
14	0	0	0	0	536	481	0	0	0	0	
15	0	0	0	0	542	496	0	0	0	0	
0	0	0	0	0	550	515	0	188	0	0	
1	0	0	0	0	559	535	0	914	0	0	
2	0	0	0	0	568	553	0	1020	0	0	
3	0	0	0	0	577	570	0	1021	0	0	
4	0	0	0	0	584	582	0	1021	0	0	
5	0	0	0	0	589	589	0	1021	0	0	
6	0	0	0	0	592	590	0	1021	0	0	
7	0	0	0	0	591	585	0	1020	0	0	
8	0	0	0	0	589	575	0	1020	0	0	
9	0	0	0	0	583	560	0	1020	0	0	
10	0	0	0	0	576	543	0	1020	0	0	
11	0	0	0	0	568	524	0	1021	0	0	
12	0	0	0	0	559	506	0	1021	0	0	
13	0	0	0	0	550	490	0	1021	0	0	
14	0	0	0	0	542	478	0	601	0	0	
15	0	0	0	0	535	469	0	1	0	0	
0	0	0	0	0	531	467	0	1	0	0	
1	0	0	0	0	530	471	0	0	0	0	
2	0	0	0	0	531	479	0	0	0	0	
3	0	0	0	0	537	492	0	0	0	0	
4	0	0	0	0	544	508	0	0	0	0	
5	0	0	0	0	554	526	0	392	0	0	
6	0	0	0	0	565	543	0	1020	0	0	
7	0	0	0	0	575	559	0	1020	0	0	
8	0	0	0	0	586	571	0	1021	0	0	
9	0	0	0	0	594	577	0	1021	0	0	
10	0	0	0	0	600	579	0	1021	0	0	
11	0	0	0	0	604	575	0	1020	0	0	
12	0	0	0	0	604	566	0	1020	0	0	
13	0	0	0	0	601	552	0	1020	0	0	
14	0	0	0	0	595	535	0	1020	0	0	
15	0	0	0	0	587	517	0	1020	0	0	
0	0	0	0	0	577	499	0	1021	0	0	
1	0	0	0	0	566	483	0	799	0	0	
2	0	0	0	0	555	469	0	41	0	0	
3	0	0	0	0	545	461	0	0	0	0	
4	0	0	0	0	538	457	0	0	0	0	
5	0	0	0	0	532	460	0	0	0	0	
6	0	0	0	0	530	468	0	0	0	0	
7	0	0	0	0	531	480	0	0	0	0	
8	0	0	0	0	536	495	0	0	0	0	
9	0	0	0	0	542	513	0	110	0	0	
10	0	0	0	0	551	531	0	807	0	0	
11	0	0	0	0	560	547	0	1020	0	0	
12	0	0	0	0	570	561	0	1021	0	0	
13	0	0	0	0	577	570	0	1020	0	0	
14	0	0	0	0	583	574	0	1021	0	0	
15	0	0	0	0	587	572	0	1020	0	0	
0	0	0	0	0	587	565	0	1020	0	0	
1	0	0	0	0	584	553	0	1020	0	0	
2	0	0	0	0	578	537	0	1020	0	0	
3	0	0	0	0	569	520	0	1021	0	0	
4	0	0	0	0	560	502	0	1021	0	0	
5	0	0	0	0	549	485	0	828	0	0	
6	0	0	0	0	540	472	0	83	0	0	
7	0	0	0	0	532	464	0	0	0	0	
8	0	0	0	0	527	462	0	0	0	0	
9	0	0	0	0	526	466	0	0	0	0	
10	0	0	0	0	528	476	0	0	0	0	
11	0	0	0	0	533	490	0	0	0	0	
12	0	0	0	0	541	508	0	0	0	0	
13	0	0	0	0	550	526	0	21	0	0	
14	0	0	0	0	560	545	0	659	0	0	
15	0	0	0	0	570	561	0	1020	0	0	
0	0	0	0	0	577	572	0	1021	0	0	
1	0	0	0	0	583	579	0	1021	0	0	
2	0	0	0	0	586	581	0	1020	0	0	
3	0	0	0	0	585	576	0	1020	0	0	
4	0	0	0	0	582	566	0	1020	0	0	
5	0	0	0	0	575	551	0	1020	0	0	
6	0	0	0	0	566	533	0	1020	0	0	
7	0	0	0	0	555	513	0	1021	0	0	
8	0	0	0	0	543	494	0	984	0	0	
9	0	0	0	0	532	477	0	335	0	0	
10	0	0	0	0	523	464	0	0	0	0	
11	0	0	0	0	515	455	0	0	0	0	
12	0	0	0	0	511	454	0	0	0	0	
13	0	0	0	0	510	458	0	0	0	0	
14	0	0	0	0	513	469	0	0	0	0	
15	0	0	0	0	520	484	0	0	0	0	
0	0	0	0	0	530	504	0	0	0	0	
1	0	0	0	0	543	526	0	0	0	0	
2	0	0	0	0	559	548	0	321	0	0	
3	0	0	0	0	575	569	0	1020	0	0	
4	0	0	0	0	590	586	0	1020	0	0	
5	0	0	0	0	603	598	0	1020	0	0	
6	0	0	0	0	612	604	0	1020	0	0	
7	0	0	0	0	618	604	0	1020	0	0	
8	0	0	0	0	620	597	0	1020	0	0	
9	0	0	0	0	618	585	0	1020	0	0	
10	0	0	0	0	612	569	0	1020	0	0	
11	0	0	0	0	603	551	0	1021	0	0	
12	0	0	0	0	591	532	0	1021	0	0	
13	0	0	0	0	579	514	0	502	0	0	
14	0	0	0	0	566	499	0	1	0	0	
15	0	0	0	0	554	488	0	0	0	0	
0	0	0	0	0	544	483	0	0	0	0	
1	0	0	0	0	538	483	0	0	0	0	
2	0	0	0	0	535	490	0	0	0	0	
3	0	0	0	0	535	501	0	0	0	0	
4	0	0	0	0	540	516	0	0	0	0	
5	0	0	0	0	548	534	0	0	0	0	
6	0	0	0	0	559	552	0	467	0	0	
7	0	0	0	0	571	570	0	1020	0	0	
8	0	0	0	0	583	584	0	1020	0	0	
9	0	0	0	0	594	594	0	1021	0	0	
10	0	0	0	0	603	598	0	1020	0	0	
11	0	0	0	0	609	596	0	1020	0	0	
12	0	0	0	0	612	589	0	1020	0	0	
13	0	0	0	0	611	576	0	1020	0	0	
14	0	0	0	0	607	560	0	1021	0	0	
15	0	0	0	0	600	542	0	1020	0	0	
0	0	0	0	0	591	523	0	947	0	0	
1	0	0	0	0	580	506	0	273	0	0	
2	0	0	0	0	569	491	0	0	0	0	
3	0	0	0	0	559	481	0	0	0	0	
4	0	0	0	0	551	477	0	0	0	0	
5	0	0	0	0	544	478	0	0	0	0	
6	0	0	0	0	541	484	0	0	0	0	
7	0	0	0	0	541	495	0	0	0	0	
8	0	0	0	0	543	508	0	0	0	0	
9	0	0	0	0	548	524	0	0	0	0	
10	0	0	0	0	555	540	0	62	0	0	
11	0	0	0	0	562	554	0	734	0	0	
12	0	0	0	0	569	565	0	1020	0	0	
13	0	0	0	0	575	572	0	1020	0	0	
14	0	0	0	0	579	572	0	1020	0	0	
15	0	0	0	0	581	568	0	1020	0	0	
0	0	0	0	0	579	558	0	1020	0	0	
1	0	0	0	0	577	545	0	1021	0	0	
2	0	0	0	0	571	528	0	1021	0	0	
3	0	0	0	0	564	511	0	935	0	0	
4	0	0	0	0	556	494	0	257	0	0	
5	0	0	0	0	549	479	0	0	0	0	
6	0	0	0	0	542	468	0	0	0	0	
7	0	0	0	0	537	462	0	0	0	0	
8	0	0	0	0	534	461	0	0	0	0	
9	0	0	0	0	534	466	0	0	0	0	
10	0	0	0	0	536	477	0	0	0	0	
11	0	0	0	0	542	492	0	0	0	0	
12	0	0	0	0	550	511	0	0	0	0	
13	0	0	0	0	559	532	0	0	0	0	
14	0	0	0	0	569	552	0	0	0	0	
15	0	0	0	0	579	570	0	450	0	0	
0	0	0	0	0	588	583	0	1020	0	0	
1	0	0	0	0	594	592	0	1020	0	0	
2	0	0	0	0	597	594	0	1020	0	0	
3	0	0	0	0	598	590	0	1020	0	0	
4	0	0	0	0	594	580	0	1020	0	0	
5	0	0	0	0	588	566	0	1020	0	0	
6	0	0	0	0	579	548	0	1021	0	0	
7	0	0	0	0	568	529	0	1006	0	0	
8	0	0	0	0	557	510	0	376	0	0	
9	0	0	0	0	546	494	0	0	0	0	
10	0	0	0	0	537	482	0	0	0	0	
11	0	0	0	0	531	475	0	0	0	0	
12	0	0	0	0	528	474	0	0	0	0	
13	0	0	0	0	528	480	0	0	0	0	
14	0	0	0	0	532	491	0	0	0	0	
15	0	0	0	0	539	506	0	0	0	0	
0	0	0	0	0	548	524	0	0	0	0	
1	0	0	0	0	559	544	0	0	0	0	
2	0	0	0	0	571	564	0	0	0	0	
3	0	0	0	0	583	581	0	637	0	0	
4	0	0	0	0	592	595	0	1020	0	0	
5	0	0	0	0	600	604	0	1020	0	0	
6	0	0	0	0	605	608	0	1020	0	0	
7	0	0	0	0	606	605	0	1020	0	0	
8	0	0	0	0	604	597	0	1020	0	0	
9	0	0	0	0	599	585	0	1020	0	0	
10	0	0	0	0	591	569	0	1020	0	0	
11	0	0	0	0	581	551	0	1021	0	0	
12	0	0	0	0	570	534	0	728	0	0	
13	0	0	0	0	559	519	0	1	0	0	
14	0	0	0	0	550	507	0	0	0	0	
15	0	0	0	0	543	500	0	0	0	0	
0	0	0	0	0	539	499	0	0	0	0	
1	0	0	0	0	538	504	0	0	0	0	
2	0	0	0	0	540	513	0	0	0	0	
3	0	0	0	0	545	527	0	0	0	0	
4	0	0	0	0	553	543	0	0	0	0	
5	0	0	0	0	562	560	0	0	0	0	
6	0	0	0	0	572	577	0	44	0	0	
7	0	0	0	0	580	591	0	704	0	0	
8	0	0	0	0	588	601	0	1020	0	0	
9	0	0	0	0	594	607	0	1020	0	0	
10	0	0	0	0	597	607	0	1020	0	0	
11	0	0	0	0	597	601	0	1020	0	0	
12	0	0	0	0	595	591	0	1020	0	0	
13	0	0	0	0	589	575	0	1020	0	0	
14	0	0	0	0	582	557	0	1021	0	0	
15	0	0	0	0	572	537	0	1020	0	0	
0	0	0	0	0	562	517	0	412	0	0	
1	0	0	0	0	552	500	0	0	0	0	
2	0	0	0	0	543	486	0	0	0	0	
3	0	0	0	0	535	477	0	0	0	0	
4	0	0	0	0	529	473	0	0	0	0	
5	0	0	0	0	526	476	0	0	0	0	
6	0	0	0	0	525	483	0	0	0	0	
7	0	0	0	0	526	495	0	0	0	0	
8	0	0	0	0	530	510	0	0	0	0	
9	0	0	0	0	536	526	0	0	0	0	
10	0	0	0	0	543	543	0	0	0	0	
11	0	0	0	0	550	560	0	361	0	0	
12	0	0	0	0	558	573	0	1020	0	0	
13	0	0	0	0	565	582	0	1020	0	0	
14	0	0	0	0	570	586	0	1020	0	0	
15	0	0	0	0	573	585	0	1020	0	0	
0	0	0	0	0	574	578	0	1020	0	0	
1	0	0	0	0	571	566	0	1021	0	0	
2	0	0	0	0	567	551	0	1021	0	0	
3	0	0	0	0	560	533	0	793	0	0	
4	0	0	0	0	552	515	0	38	0	0	
5	0	0	0	0	544	498	0	0	0	0	
6	0	0	0	0	536	484	0	0	0	0	
7	0	0	0	0	529	474	0	0	0	0	
8	0	0	0	0	525	470	0	0	0	0	
9	0	0	0	0	523	472	0	0	0	0	
10	0	0	0	0	524	478	0	1	0	0	
11	0	0	0	0	529	492	0	0	0	0	
12	0	0	0	0	536	508	0	0	0	0	
13	0	0	0	0	545	527	0	0	0	0	
14	0	0	0	0	555	546	0	0	0	0	
15	0	0	0	0	566	563	0	442	0	0	
0	0	0	0	0	575	578	0	1020	0	0	
1	0	0	0	0	583	588	0	1020	0	0	
2	0	0	0	0	588	591	0	1020	0	0	
3	0	0	0	0	590	588	0	1020	0	0	
4	0	0	0	0	588	579	0	1020	0	0	
5	0	0	0	0	583	566	0	1020	0	0	
6	0	0	0	0	575	548	0	1021	0	0	
7	0	0	0	0	565	528	0	1021	0	0	
8	0	0	0	0	555	509	0	677	0	0	
9	0	0	0	0	543	492	0	1	0	0	
10	0	0	0	0	535	478	0	0	0	0	
11	0	0	0	0	527	470	0	0	0	0	
12	0	0	0	0	523	467	0	0	0	0	
13	0	0	0	0	521	471	0	0	0	0	
14	0	0	0	0	523	480	0	0	0	0	
15	0	0	0	0	528	494	0	0	0	0	
0	0	0	0	0	535	511	0	0	0	0	
1	0	0	0	0	544	529	0	0	0	0	
2	0	0	0	0	554	549	0	279	0	0	
3	0	0	0	0	564	566	0	1020	0	0	
4	0	0	0	0	573	580	0	1020	0	0	
5	0	0	0	0	581	589	0	1020	0	0	
6	0	0	0	0	587	593	0	1020	0	0	
7	0	0	0	0	590	592	0	1020	0	0	
8	0	0	0	0	590	584	0	1020	0	0	
9	0	0	0	0	587	573	0	1020	0	0	
10	0	0	0	0	580	557	0	1020	0	0	
11	0	0	0	0	572	540	0	1021	0	0	
12	0	0	0	0	562	521	0	1021	0	0	
13	0	0	0	0	551	504	0	676	0	0	
14	0	0	0	0	541	491	0	0	0	0	
15	0	0	0	0	532	483	0	0	0	0	
0	0	0	0	0	527	480	0	0	0	0	
1	0	0	0	0	524	484	0	0	0	0	
2	0	0	0	0	525	493	0	0	0	0	
3	0	0	0	0	530	507	0	0	0	0	
4	0	0	0	0	538	525	0	0	0	0	
5	0	0	0	0	548	545	0	85	0	0	
6	0	0	0	0	560	565	0	768	0	0	
7	0	0	0	0	573	583	0	1020	0	0	
8	0	0	0	0	584	597	0	1021	0	0	
9	0	0	0	0	593	606	0	1021	0	0	
10	0	0	0	0	599	609	0	1021	0	0	
11	0	0	0	0	601	605	0	1020	0	0	
12	0	0	0	0	599	595	0	1020	0	0	
13	0	0	0	0	593	579	0	1020	0	0	
14	0	0	0	0	583	558	0	1020	0	0	
15	0	0	0	0	572	536	0	1021	0	0	
0	0	0	0	0	558	513	0	1021	0	0	
1	0	0	0	0	544	493	0	1021	0	0	
2	0	0	0	0	531	475	0	404	0	0	
3	0	0	0	0	519	463	0	1	0	0	
4	0	0	0	0	510	456	0	0	0	0	
5	0	0	0	0	505	457	0	0	0	0	
6	0	0	0	0	504	463	0	0	0	0	
7	0	0	0	0	505	474	0	0	0	0	
8	0	0	0	0	511	489	0	0	0	0	
9	0	0	0	0	519	508	0	456	0	0	
10	0	0	0	0	530	526	0	1020	0	0	
11	0	0	0	0	542	544	0	1021	0	0	
12	0	0	0	0	555	560	0	1021	0	0	
13	0	0	0	0	567	572	0	1021	0	0	
14	0	0	0	0	577	579	0	1021	0	0	
15	0	0	0	0	586	580	0	1020	0	0	
0	0	0	0	0	591	576	0	1020	0	0	
1	0	0	0	0	594	568	0	1020	0	0	
2	0	0	0	0	593	556	0	1020	0	0	
3	0	0	0	0	590	541	0	1020	0	0	
4	0	0	0	0	584	526	0	1021	0	0	
5	0	0	0	0	577	512	0	1021	0	0	
6	0	0	0	0	569	499	0	812	0	0	
7	0	0	0	0	560	491	0	64	0	0	
8	0	0	0	0	553	487	0	1	0	0	
9	0	0	0	0	547	488	0	0	0	0	
10	0	0	0	0	543	495	0	0	0	0	
11	0	0	0	0	542	504	0	0	0	0	
12	0	0	0	0	543	518	0	137	0	0	
13	0	0	0	0	545	533	0	836	0	0	
14	0	0	0	0	549	547	0	1020	0	0	
15	0	0	0	0	553	560	0	1021	0	0	
0	0	0	0	0	557	569	0	1021	0	0	
1	0	0	0	0	559	574	0	1021	0	0	
2	0	0	0	0	560	573	0	1021	0	0	
3	0	0	0	0	558	566	0	1020	0	0	
4	0	0	0	0	553	555	0	1020	0	0	
5	0	0	0	0	547	538	0	1020	0	0	
6	0	0	0	0	540	520	0	1020	0	0	
7	0	0	0	0	531	500	0	1020	0	0	
8	0	0	0	0	523	482	0	1021	0	0	
9	0	0	0	0	515	467	0	1021	0	0	
10	0	0	0	0	510	455	0	881	0	0	
11	0	0	0	0	506	449	0	168	0	0	
12	0	0	0	0	506	450	0	1	0	0	
13	0	0	0	0	508	456	0	0	0	0	
14	0	0	0	0	513	469	0	0	0	0	
15	0	0	0	0	520	486	0	0	0	0	
0	0	0	0	0	530	506	0	76	0	0	
1	0	0	0	0	541	528	0	734	0	0	
2	0	0	0	0	553	549	0	1020	0	0	
3	0	0	0	0	564	569	0	1020	0	0	
4	0	0	0	0	575	585	0	1021	0	0	
5	0	0	0	0	582	596	0	1021	0	0	
6	0	0	0	0	588	601	0	1021	0	0	
7	0	0	0	0	590	599	0	1020	0	0	
8	0	0	0	0	588	591	0	1020	0	0	
9	0	0	0	0	583	577	0	1020	0	0	
10	0	0	0	0	575	560	0	1020	0	0	
11	0	0	0	0	564	540	0	1021	0	0	
12	0	0	0	0	553	519	0	1021	0	0	
13	0	0	0	0	542	499	0	1020	0	0	
14	0	0	0	0	531	484	0	530	0	0	
15	0	0	0	0	521	472	0	0	0	0	
0	0	0	0	0	515	466	0	0	0	0	
1	0	0	0	0	511	466	0	0	0	0	
2	0	0	0	0	510	471	0	0	0	0	
3	0	0	0	0	512	481	0	0	0	0	
4	0	0	0	0	517	495	0	0	0	0	
5	0	0	0	0	524	511	0	0	0	0	
6	0	0	0	0	532	528	0	624	0	0	
7	0	0	0	0	540	543	0	1020	0	0	
8	0	0	0	0	547	555	0	1020	0	0	
9	0	0	0	0	553	562	0	1021	0	0	
10	0	0	0	0	556	564	0	1020	0	0	
11	0	0	0	0	558	561	0	1020	0	0	
12	0	0	0	0	556	552	0	1020	0	0	
13	0	0	0	0	551	539	0	1021	0	0	
14	0	0	0	0	544	522	0	1021	0	0	
15	0	0	0	0	536	504	0	1021	0	0	
0	0	0	0	0	527	484	0	789	0	0	
1	0	0	0	0	519	468	0	28	0	0	
2	0	0	0	0	510	455	0	0	0	0	
3	0	0	0	0	503	446	0	0	0	0	
4	0	0	0	0	498	443	0	0	0	0	
5	0	0	0	0	496	447	0	0	0	0	
6	0	0	0	0	497	456	0	0	0	0	
7	0	0	0	0	500	470	0	0	0	0	
8	0	0	0	0	507	487	0	0	0	0	
9	0	0	0	0	515	508	0	0	0	0	
10	0	0	0	0	524	527	0	0	0	0	
11	0	0	0	0	534	546	0	615	0	0	
12	0	0	0	0	543	561	0	1020	0	0	
13	0	0	0	0	552	572	0	1020	0	0	
14	0	0	0	0	558	576	0	1020	0	0	
15	0	0	0	0	562	575	0	1020	0	0	
0	0	0	0	0	563	567	0	1020	0	0	
1	0	0	0	0	560	554	0	1020	0	0	
2	0	0	0	0	554	536	0	1021	0	0	
3	0	0	0	0	546	517	0	1021	0	0	
4	0	0	0	0	536	497	0	780	0	0	
5	0	0	0	0	525	477	0	14	0	0	
6	0	0	0	0	515	462	0	0	0	0	
7	0	0	0	0	505	451	0	0	0	0	
8	0	0	0	0	497	445	0	0	0	0	
9	0	0	0	0	492	445	0	0	0	0	
10	0	0	0	0	489	451	0	0	0	0	
11	0	0	0	0	489	462	0	0	0	0	
12	0	0	0	0	493	477	0	0	0	0	
13	0	0	0	0	498	494	0	0	0	0	
14	0	0	0	0	505	511	0	112	0	0	
15	0	0	0	0	513	527	0	816	0	0	
0	0	0	0	0	520	540	0	1020	0	0	
1	0	0	0	0	527	548	0	1021	0	0	
2	0	0	0	0	532	552	0	1020	0	0	
3	0	0	0	0	536	550	0	1020	0	0	
4	0	0	0	0	536	543	0	1020	0	0	
5	0	0	0	0	535	531	0	1020	0	0	
6	0	0	0	0	531	515	0	1021	0	0	
7	0	0	0	0	526	499	0	1021	0	0	
8	0	0	0	0	520	482	0	798	0	0	
9	0	0	0	0	514	467	0	41	0	0	
10	0	0	0	0	509	455	0	0	0	0	
11	0	0	0	0	506	449	0	0	0	0	
12	0	0	0	0	505	448	0	0	0	0	
13	0	0	0	0	506	453	0	0	0	0	
14	0	0	0	0	510	463	0	0	0	0	
15	0	0	0	0	516	478	0	0	0	0	
0	0	0	0	0	524	496	0	0	0	0	
1	0	0	0	0	532	515	0	0	0	0	
2	0	0	0	0	541	533	0	0	0	0	
3	0	0	0	0	550	550	0	547	0	0	
4	0	0	0	0	558	562	0	1020	0	0	
5	0	0	0	0	563	569	0	1020	0	0	
6	0	0	0	0	566	571	0	1020	0	0	
7	0	0	0	0	566	566	0	1020	0	0	
8	0	0	0	0	563	555	0	1020	0	0	
9	0	0	0	0	557	540	0	1021	0	0	
10	0	0	0	0	549	521	0	1021	0	0	
11	0	0	0	0	540	501	0	776	0	0	
12	0	0	0	0	531	481	0	12	0	0	
13	0	0	0	0	521	464	0	0	0	0	
14	0	0	0	0	513	451	0	0	0	0	
15	0	0	0	0	506	441	0	0	0	0	
0	0	0	0	0	502	438	0	0	0	0	
1	0	0	0	0	499	440	0	0	0	0	
2	0	0	0	0	499	448	0	0	0	0	
3	0	0	0	0	501	460	0	0	0	0	
4	0	0	0	0	505	476	0	0	0	0	
5	0	0	0	0	511	494	0	0	0	0	
6	0	0	0	0	517	511	0	0	0	0	
7	0	0	0	0	524	527	0	0	0	0	
8	0	0	0	0	531	540	0	599	0	0	
9	0	0	0	0	537	548	0	1020	0	0	
10	0	0	0	0	542	551	0	1020	0	0	
11	0	0	0	0	544	547	0	1020	0	0	
12	0	0	0	0	544	539	0	1020	0	0	
13	0	0	0	0	543	527	0	1021	0	0	
14	0	0	0	0	540	511	0	719	0	0	
15	0	0	0	0	534	493	0	1	0	0	
0	0	0	0	0	528	475	0	0	0	0	
1	0	0	0	0	521	460	0	0	0	0	
2	0	0	0	0	515	448	0	0	0	0	
3	0	0	0	0	509	440	0	0	0	0	
4	0	0	0	0	506	439	0	0	0	0	
5	0	0	0	0	504	443	0	0	0	0	
6	0	0	0	0	505	454	0	0	0	0	
7	0	0	0	0	509	467	0	0	0	0	
8	0	0	0	0	514	486	0	0	0	0	
9	0	0	0	0	521	505	0	0	0	0	
10	0	0	0	0	530	526	0	0	0	0	
11	0	0	0	0	538	543	0	0	0	0	
12	0	0	0	0	546	559	0	600	0	0	
13	0	0	0	0	553	568	0	1020	0	0	
14	0	0	0	0	557	572	0	1020	0	0	
15	0	0	0	0	559	569	0	1020	0	0	
0	0	0	0	0	556	560	0	1020	0	0	
1	0	0	0	0	551	545	0	1020	0	0	
2	0	0	0	0	543	527	0	1021	0	0	
3	0	0	0	0	532	505	0	771	0	0	
4	0	0	0	0	520	483	0	9	0	0	
5	0	0	0	0	507	463	0	0	0	0	
6	0	0	0	0	495	445	0	0	0	0	
7	0	0	0	0	484	432	0	0	0	0	
8	0	0	0	0	476	426	0	0	0	0	
9	0	0	0	0	472	426	0	0	0	0	
10	0	0	0	0	471	432	0	0	0	0	
11	0	0	0	0	474	445	0	0	0	0	
12	0	0	0	0	480	461	0	0	0	0	
13	0	0	0	0	491	481	0	0	0	0	
14	0	0	0	0	502	502	0	0	0	0	
15	0	0	0	0	515	521	0	437	0	0	
0	0	0	0	0	527	538	0	1020	0	0	
1	0	0	0	0	539	550	0	1020	0	0	
2	0	0	0	0	548	556	0	1020	0	0	
3	0	0	0	0	553	557	0	1020	0	0	
4	0	0	0	0	556	551	0	1020	0	0	
5	0	0	0	0	555	540	0	1020	0	0	
6	0	0	0	0	550	525	0	1021	0	0	
7	0	0	0	0	542	507	0	1021	0	0	
8	0	0	0	0	532	488	0	839	0	0	
9	0	0	0	0	522	470	0	104	0	0	
10	0	0	0	0	512	455	0	0	0	0	
11	0	0	0	0	504	445	0	0	0	0	
12	0	0	0	0	497	440	0	0	0	0	
13	0	0	0	0	494	442	0	0	0	0	
14	0	0	0	0	495	449	0	0	0	0	
15	0	0	0	0	499	462	0	0	0	0	
0	0	0	0	0	506	479	0	0	0	0	
1	0	0	0	0	515	498	0	0	0	0	
2	0	0	0	0	526	517	0	166	0	0	
3	0	0	0	0	537	534	0	900	0	0	
4	0	0	0	0	547	547	0	1020	0	0	
5	0	0	0	0	553	555	0	1020	0	0	
6	0	0	0	0	556	556	0	1020	0	0	
7	0	0	0	0	555	549	0	1020	0	0	
8	0	0	0	0	549	535	0	1020	0	0	
9	0	0	0	0	538	515	0	1020	0	0	
10	0	0	0	0	523	490	0	1020	0	0	
11	0	0	0	0	504	462	0	1021	0	0	
12	0	0	0	0	482	432	0	1002	0	0	
13	0	0	0	0	459	402	0	364	0	0	
14	0	0	0	0	435	375	0	0	0	0	
15	0	0	0	0	411	351	0	0	0	0	
0	0	0	0	0	390	333	0	0	0	0	
1	0	0	0	0	372	321	0	0	0	0	
2	0	0	0	0	358	315	0	0	0	0	
3	0	0	0	0	349	316	0	0	0	0	
4	0	0	0	0	345	322	0	0	0	0	
5	0	0	0	0	347	334	0	0	0	0	
6	0	0	0	0	353	350	0	476	0	0	
7	0	0	0	0	364	367	0	1020	0	0	
8	0	0	0	0	379	386	0	1020	0	0	
9	0	0	0	0	397	404	0	1021	0	0	
10	0	0	0	0	417	420	0	1021	0	0	
11	0	0	0	0	437	432	0	1020	0	0	
12	0	0	0	0	456	442	0	1020	0	0	
13	0	0	0	0	474	447	0	1020	0	0	
14	0	0	0	0	489	449	0	1020	0	0	
15	0	0	0	0	502	449	0	1020	0	0	
0	0	0	0	0	511	447	0	1021	0	0	
1	0	0	0	0	518	445	0	1021	0	0	
2	0	0	0	0	522	444	0	504	0	0	
3	0	0	0	0	524	447	0	1	0	0	
4	0	0	0	0	526	452	0	0	0	0	
5	0	0	0	0	527	462	0	0	0	0	
6	0	0	0	0	529	474	0	0	0	0	
7	0	0	0	0	531	489	0	0	0	0	
8	0	0	0	0	533	507	0	0	0	0	
9	0	0	0	0	537	525	0	421	0	0	
10	0	0	0	0	542	542	0	1020	0	0	
11	0	0	0	0	546	557	0	1020	0	0	
12	0	0	0	0	550	568	0	1021	0	0	
13	0	0	0	0	554	575	0	1021	0	0	
14	0	0	0	0	556	575	0	1021	0	0	
15	0	0	0	0	557	570	0	1020	0	0	
0	0	0	0	0	556	560	0	1020	0	0	
1	0	0	0	0	552	544	0	1020	0	0	
2	0	0	0	0	547	526	0	1020	0	0	
3	0	0	0	0	540	507	0	1021	0	0	
4	0	0	0	0	533	487	0	1021	0	0	
5	0	0	0	0	525	470	0	1021	0	0	
6	0	0	0	0	518	456	0	488	0	0	
7	0	0	0	0	512	448	0	1	0	0	
8	0	0	0	0	507	445	0	0	0	0	
9	0	0	0	0	504	448	0	0	0	0	
10	0	0	0	0	503	455	0	0	0	0	
11	0	0	0	0	504	468	0	0	0	0	
12	0	0	0	0	507	484	0	0	0	0	
13	0	0	0	0	510	501	0	21	0	0	
14	0	0	0	0	515	519	0	656	0	0	
15	0	0	0	0	521	535	0	1020	0	0	
0	0	0	0	0	526	547	0	1020	0	0	
1	0	0	0	0	531	555	0	1021	0	0	
2	0	0	0	0	534	558	0	1020	0	0	
3	0	0	0	0	536	555	0	1020	0	0	
4	0	0	0	0	535	547	0	1020	0	0	
5	0	0	0	0	533	534	0	1020	0	0	
6	0	0	0	0	529	518	0	1020	0	0	
7	0	0	0	0	525	501	0	1021	0	0	
8	0	0	0	0	519	483	0	1021	0	0	
9	0	0	0	0	514	468	0	466	0	0	
10	0	0	0	0	509	456	0	1	0	0	
11	0	0	0	0	506	449	0	0	0	0	
12	0	0	0	0	505	447	0	0	0	0	
13	0	0	0	0	506	450	0	0	0	0	
14	0	0	0	0	509	459	0	0	0	0	
15	0	0	0	0	514	471	0	0	0	0	
0	0	0	0	0	521	487	0	0	0	0	
1	0	0	0	0	529	503	0	0	0	0	
2	0	0	0	0	538	519	0	76	0	0	
3	0	0	0	0	545	534	0	756	0	0	
4	0	0	0	0	552	544	0	1020	0	0	
5	0	0	0	0	557	551	0	1020	0	0	
6	0	0	0	0	559	551	0	1020	0	0	
7	0	0	0	0	560	547	0	1020	0	0	
8	0	0	0	0	558	537	0	1020	0	0	
9	0	0	0	0	554	522	0	1020	0	0	
10	0	0	0	0	548	505	0	1020	0	0	
11	0	0	0	0	541	487	0	1021	0	0	
12	0	0	0	0	534	468	0	802	0	0	
13	0	0	0	0	526	451	0	48	0	0	
14	0	0	0	0	519	439	0	0	0	0	
15	0	0	0	0	513	430	0	0	0	0	
0	0	0	0	0	510	427	0	0	0	0	
1	0	0	0	0	508	430	0	0	0	0	
2	0	0	0	0	509	438	0	0	0	0	
3	0	0	0	0	513	450	0	0	0	0	
4	0	0	0	0	518	465	0	0	0	0	
5	0	0	0	0	524	482	0	0	0	0	
6	0	0	0	0	532	499	0	10	0	0	
7	0	0	0	0	540	514	0	646	0	0	
8	0	0	0	0	548	526	0	1020	0	0	
9	0	0	0	0	554	533	0	1020	0	0	
10	0	0	0	0	559	536	0	1020	0	0	
11	0	0	0	0	561	532	0	1020	0	0	
12	0	0	0	0	560	523	0	1020	0	0	
13	0	0	0	0	558	510	0	1021	0	0	
14	0	0	0	0	553	493	0	1021	0	0	
15	0	0	0	0	547	475	0	1021	0	0	
0	0	0	0	0	540	457	0	612	0	0	
1	0	0	0	0	532	441	0	0	0	0	
2	0	0	0	0	525	428	0	0	0	0	
3	0	0	0	0	520	420	0	0	0	0	
4	0	0	0	0	517	419	0	0	0	0	
5	0	0	0	0	517	423	0	0	0	0	
6	0	0	0	0	519	433	0	1	0	0	
7	0	0	0	0	525	449	0	0	0	0	
8	0	0	0	0	531	467	0	0	0	0	
9	0	0	0	0	540	488	0	0	0	0	
10	0	0	0	0	548	508	0	0	0	0	
11	0	0	0	0	556	527	0	428	0	0	
12	0	0	0	0	564	541	0	1020	0	0	
13	0	0	0	0	569	550	0	1020	0	0	
14	0	0	0	0	572	553	0	1020	0	0	
15	0	0	0	0	572	550	0	1020	0	0	
0	0	0	0	0	570	541	0	1020	0	0	
1	0	0	0	0	566	527	0	1020	0	0	
2	0	0	0	0	559	508	0	1021	0	0	
3	0	0	0	0	550	489	0	1021	0	0	
4	0	0	0	0	540	469	0	509	0	0	
5	0	0	0	0	531	451	0	0	0	0	
6	0	0	0	0	522	437	0	0	0	0	
7	0	0	0	0	515	428	0	0	0	0	
8	0	0	0	0	510	424	0	0	0	0	
9	0	0	0	0	507	427	0	0	0	0	
10	0	0	0	0	507	435	0	1	0	0	
11	0	0	0	0	510	448	0	0	0	0	
12	0	0	0	0	515	465	0	0	0	0	
13	0	0	0	0	521	484	0	0	0	0	
14	0	0	0	0	529	504	0	0	0	0	
15	0	0	0	0	538	522	0	536	0	0	
0	0	0	0	0	545	537	0	1020	0	0	
1	0	0	0	0	552	547	0	1020	0	0	
2	0	0	0	0	557	552	0	1020	0	0	
3	0	0	0	0	560	552	0	1020	0	0	
4	0	0	0	0	560	545	0	1020	0	0	
5	0	0	0	0	558	534	0	1020	0	0	
6	0	0	0	0	553	519	0	1021	0	0	
7	0	0	0	0	547	502	0	1021	0	0	
8	0	0	0	0	539	484	0	821	0	0	
9	0	0	0	0	531	468	0	76	0	0	
10	0	0	0	0	523	455	0	0	0	0	
11	0	0	0	0	515	446	0	0	0	0	
12	0	0	0	0	511	443	0	0	0	0	
13	0	0	0	0	507	444	0	0	0	0	
14	0	0	0	0	507	452	0	0	0	0	
15	0	0	0	0	508	464	0	0	0	0	
0	0	0	0	0	512	479	0	0	0	0	
1	0	0	0	0	518	496	0	0	0	0	
2	0	0	0	0	525	514	0	0	0	0	
3	0	0	0	0	534	531	0	515	0	0	
4	0	0	0	0	542	544	0	1020	0	0	
5	0	0	0	0	549	554	0	1020	0	0	
6	0	0	0	0	554	557	0	1020	0	0	
7	0	0	0	0	558	555	0	1020	0	0	
8	0	0	0	0	558	547	0	1020	0	0	
9	0	0	0	0	556	533	0	1020	0	0	
10	0	0	0	0	551	516	0	1021	0	0	
11	0	0	0	0	544	497	0	841	0	0	
12	0	0	0	0	536	478	0	109	0	0	
13	0	0	0	0	527	461	0	0	0	0	
14	0	0	0	0	519	447	0	0	0	0	
15	0	0	0	0	512	438	0	0	0	0	
0	0	0	0	0	507	435	0	0	0	0	
1	0	0	0	0	504	437	0	0	0	0	
2	0	0	0	0	502	445	0	0	0	0	
3	0	0	0	0	504	459	0	0	0	0	
4	0	0	0	0	508	475	0	0	0	0	
5	0	0	0	0	513	494	0	0	0	0	
6	0	0	0	0	520	512	0	0	0	0	
7	0	0	0	0	528	529	0	0	0	0	
8	0	0	0	0	536	543	0	507	0	0	
9	0	0	0	0	544	553	0	1020	0	0	
10	0	0	0	0	550	557	0	1020	0	0	
11	0	0	0	0	554	555	0	1020	0	0	
12	0	0	0	0	556	545	0	1020	0	0	
13	0	0	0	0	553	531	0	1020	0	0	
14	0	0	0	0	549	511	0	691	0	0	
15	0	0	0	0	542	489	0	1	0	0	
0	0	0	0	0	534	466	0	0	0	0	
1	0	0	0	0	524	444	0	0	0	0	
2	0	0	0	0	515	424	0	0	0	0	
3	0	0	0	0	507	408	0	0	0	0	
4	0	0	0	0	501	399	0	0	0	0	
5	0	0	0	0	498	397	0	0	0	0	
6	0	0	0	0	498	400	0	0	0	0	
7	0	0	0	0	500	410	0	0	0	0	
8	0	0	0	0	506	424	0	0	0	0	
9	0	0	0	0	514	441	0	0	0	0	
10	0	0	0	0	523	460	0	0	0	0	
11	0	0	0	0	534	477	0	0	0	0	
12	0	0	0	0	543	491	0	507	0	0	
13	0	0	0	0	551	500	0	1020	0	0	
14	0	0	0	0	556	504	0	1020	0	0	
15	0	0	0	0	559	501	0	1020	0	0	
0	0	0	0	0	559	492	0	1020	0	0	
1	0	0	0	0	555	478	0	1021	0	0	
2	0	0	0	0	548	459	0	1021	0	0	
3	0	0	0	0	540	438	0	742	0	0	
4	0	0	0	0	529	417	0	1	0	0	
5	0	0	0	0	519	398	0	0	0	0	
6	0	0	0	0	509	383	0	0	0	0	
7	0	0	0	0	501	372	0	0	0	0	
8	0	0	0	0	496	368	0	0	0	0	
9	0	0	0	0	493	370	0	0	0	0	
10	0	0	0	0	494	379	0	0	0	0	
11	0	0	0	0	498	393	0	0	0	0	
12	0	0	0	0	504	410	0	0	0	0	
13	0	0	0	0	512	431	0	0	0	0	
14	0	0	0	0	522	451	0	0	0	0	
15	0	0	0	0	532	470	0	45	0	0	
0	0	0	0	0	542	486	0	707	0	0	
1	0	0	0	0	550	496	0	1020	0	0	
2	0	0	0	0	556	500	0	1020	0	0	
3	0	0	0	0	559	498	0	1020	0	0	
4	0	0	0	0	559	489	0	1020	0	0	
5	0	0	0	0	556	476	0	1021	0	0	
6	0	0	0	0	551	457	0	684	0	0	
7	0	0	0	0	542	436	0	1	0	0	
8	0	0	0	0	532	415	0	0	0	0	
9	0	0	0	0	522	395	0	0	0	0	
10	0	0	0	0	512	378	0	0	0	0	
11	0	0	0	0	503	366	0	0	0	0	
12	0	0	0	0	496	361	0	0	0	0	
13	0	0	0	0	491	361	0	0	0	0	
14	0	0	0	0	490	369	0	0	0	0	
15	0	0	0	0	492	382	0	0	0	0	
0	0	0	0	0	496	400	0	0	0	0	
1	0	0	0	0	504	421	0	0	0	0	
2	0	0	0	0	514	443	0	0	0	0	
3	0	0	0	0	525	464	0	0	0	0	
4	0	0	0	0	536	482	0	71	0	0	
5	0	0	0	0	546	496	0	664	0	0	
6	0	0	0	0	556	504	0	1019	0	0	
7	0	0	0	0	562	506	0	1020	0	0	
8	0	0	0	0	567	502	0	1020	0	0	
9	0	0	0	0	568	492	0	694	0	0	
10	0	0	0	0	567	478	0	1	0	0	
11	0	0	0	0	563	462	0	0	0	0	
12	0	0	0	0	558	444	0	0	0	0	
13	0	0	0	0	551	428	0	0	0	0	
14	0	0	0	0	545	414	0	0	0	0	
15	0	0	0	0	540	406	0	0	0	0	
0	0	0	0	0	535	402	0	0	0	0	
1	0	0	0	0	533	405	0	0	0	0	
2	0	0	0	0	533	414	0	0	0	0	
3	0	0	0	0	535	428	0	1	0	0	
4	0	0	0	0	540	446	0	0	0	0	
5	0	0	0	0	547	466	0	0	0	0	
6	0	0	0	0	555	487	0	0	0	0	
7	0	0	0	0	563	507	0	0	0	0	
8	0	0	0	0	572	523	0	358	0	0	
9	0	0	0	0	579	535	0	1019	0	0	
10	0	0	0	0	584	541	0	1020	0	0	
11	0	0	0	0	588	541	0	1020	0	0	
12	0	0	0	0	589	534	0	1020	0	0	
13	0	0	0	0	587	522	0	1020	0	0	
14	0	0	0	0	583	506	0	1020	0	0	
15	0	0	0	0	576	488	0	714	0	0	
0	0	0	0	0	568	469	0	1	0	0	
1	0	0	0	0	558	451	0	0	0	0	
2	0	0	0	0	549	437	0	0	0	0	
3	0	0	0	0	540	426	0	0	0	0	
4	0	0	0	0	533	423	0	0	0	0	
5	0	0	0	0	528	425	0	0	0	0	
6	0	0	0	0	526	434	0	0	0	0	
7	0	0	0	0	528	449	0	0	0	0	
8	0	0	0	0	532	467	0	0	0	0	
9	0	0	0	0	540	489	0	0	0	0	
10	0	0	0	0	548	512	0	0	0	0	
11	0	0	0	0	558	532	0	480	0	0	
12	0	0	0	0	568	550	0	1020	0	0	
13	0	0	0	0	577	563	0	1020	0	0	
14	0	0	0	0	585	570	0	1020	0	0	
15	0	0	0	0	590	570	0	1020	0	0	
0	0	0	0	0	591	564	0	1020	0	0	
1	0	0	0	0	590	553	0	1020	0	0	
2	0	0	0	0	587	538	0	1020	0	0	
3	0	0	0	0	581	521	0	1021	0	0	
4	0	0	0	0	575	504	0	1021	0	0	
5	0	0	0	0	567	488	0	558	0	0	
6	0	0	0	0	559	476	0	0	0	0	
7	0	0	0	0	553	469	0	0	0	0	
8	0	0	0	0	549	467	0	0	0	0	
9	0	0	0	0	547	472	0	0	0	0	
10	0	0	0	0	548	483	0	1	0	0	
11	0	0	0	0	551	498	0	0	0	0	
12	0	0	0	0	556	516	0	0	0	0	
13	0	0	0	0	562	536	0	0	0	0	
14	0	0	0	0	569	556	0	555	0	0	
15	0	0	0	0	575	573	0	1020	0	0	
0	0	0	0	0	580	586	0	1020	0	0	
1	0	0	0	0	584	595	0	1021	0	0	
2	0	0	0	0	587	598	0	1021	0	0	
3	0	0	0	0	586	594	0	1020	0	0	
4	0	0	0	0	583	585	0	1020	0	0	
5	0	0	0	0	577	570	0	1020	0	0	
6	0	0	0	0	570	552	0	1020	0	0	
7	0	0	0	0	561	532	0	1021	0	0	
8	0	0	0	0	551	512	0	1021	0	0	
9	0	0	0	0	543	494	0	840	0	0	
10	0	0	0	0	535	479	0	103	0	0	
11	0	0	0	0	528	470	0	0	0	0	
12	0	0	0	0	524	466	0	0	0	0	
13	0	0	0	0	521	469	0	0	0	0	
14	0	0	0	0	521	478	0	0	0	0	
15	0	0	0	0	524	491	0	0	0	0	
0	0	0	0	0	528	507	0	0	0	0	
1	0	0	0	0	535	526	0	0	0	0	
2	0	0	0	0	543	545	0	487	0	0	
3	0	0	0	0	551	562	0	1020	0	0	
4	0	0	0	0	559	576	0	1021	0	0	
5	0	0	0	0	566	585	0	1021	0	0	
6	0	0	0	0	571	590	0	1020	0	0	
7	0	0	0	0	575	590	0	1020	0	0	
8	0	0	0	0	576	583	0	1020	0	0	
9	0	0	0	0	575	573	0	1020	0	0	
10	0	0	0	0	571	559	0	1020	0	0	
11	0	0	0	0	566	544	0	1021	0	0	
12	0	0	0	0	560	528	0	1021	0	0	
13	0	0	0	0	553	513	0	470	0	0	
14	0	0	0	0	547	502	0	0	0	0	
15	0	0	0	0	542	495	0	0	0	0	
0	0	0	0	0	538	494	0	0	0	0	
1	0	0	0	0	537	499	0	0	0	0	
2	0	0	0	0	538	508	0	0	0	0	
3	0	0	0	0	541	523	0	0	0	0	
4	0	0	0	0	547	541	0	0	0	0	
5	0	0	0	0	553	561	0	0	0	0	
6	0	0	0	0	561	581	0	232	0	0	
7	0	0	0	0	569	599	0	998	0	0	
8	0	0	0	0	577	613	0	1020	0	0	
9	0	0	0	0	583	623	0	1020	0	0	
10	0	0	0	0	587	626	0	1020	0	0	
11	0	0	0	0	590	623	0	1020	0	0	
12	0	0	0	0	588	615	0	1020	0	0	
13	0	0	0	0	584	600	0	1020	0	0	
14	0	0	0	0	579	583	0	1020	0	0	
15	0	0	0	0	570	563	0	1021	0	0	
0	0	0	0	0	561	543	0	1021	0	0	
1	0	0	0	0	551	524	0	662	0	0	
2	0	0	0	0	541	509	0	1	0	0	
3	0	0	0	0	533	499	0	0	0	0	
4	0	0	0	0	527	495	0	0	0	0	
5	0	0	0	0	523	496	0	0	0	0	
6	0	0	0	0	521	504	0	0	0	0	
7	0	0	0	0	523	518	0	0	0	0	
8	0	0	0	0	527	535	0	0	0	0	
9	0	0	0	0	532	554	0	0	0	0	
10	0	0	0	0	540	574	0	488	0	0	
11	0	0	0	0	548	593	0	1020	0	0	
12	0	0	0	0	557	608	0	1021	0	0	
13	0	0	0	0	565	619	0	1021	0	0	
14	0	0	0	0	571	624	0	1021	0	0	
15	0	0	0	0	575	623	0	1020	0	0	
0	0	0	0	0	575	615	0	1020	0	0	
1	0	0	0	0	574	603	0	1020	0	0	
2	0	0	0	0	571	587	0	1020	0	0	
3	0	0	0	0	566	569	0	1021	0	0	
4	0	0	0	0	561	551	0	1021	0	0	
5	0	0	0	0	555	535	0	852	0	0	
6	0	0	0	0	550	523	0	122	0	0	
7	0	0	0	0	547	516	0	0	0	0	
8	0	0	0	0	546	515	0	0	0	0	
9	0	0	0	0	547	521	0	0	0	0	
10	0	0	0	0	551	532	0	1	0	0	
11	0	0	0	0	556	548	0	0	0	0	
12	0	0	0	0	563	567	0	0	0	0	
13	0	0	0	0	570	587	0	0	0	0	
14	0	0	0	0	577	607	0	541	0	0	
15	0	0	0	0	584	623	0	1020	0	0	
0	0	0	0	0	588	635	0	1020	0	0	
1	0	0	0	0	591	642	0	1021	0	0	
2	0	0	0	0	591	642	0	1020	0	0	
3	0	0	0	0	588	636	0	1020	0	0	
4	0	0	0	0	583	624	0	1020	0	0	
5	0	0	0	0	576	607	0	1020	0	0	
6	0	0	0	0	568	587	0	1020	0	0	
7	0	0	0	0	559	566	0	1021	0	0	
8	0	0	0	0	550	546	0	1021	0	0	
9	0	0	0	0	541	528	0	559	0	0	
10	0	0	0	0	534	514	0	0	0	0	
11	0	0	0	0	529	507	0	0	0	0	
12	0	0	0	0	527	506	0	0	0	0	
13	0	0	0	0	527	511	0	0	0	0	
14	0	0	0	0	529	522	0	0	0	0	
15	0	0	0	0	534	538	0	0	0	0	
0	0	0	0	0	542	558	0	0	0	0	
1	0	0	0	0	550	580	0	0	0	0	
2	0	0	0	0	560	603	0	127	0	0	
3	0	0	0	0	570	623	0	838	0	0	
4	0	0	0	0	579	640	0	1020	0	0	
5	0	0	0	0	588	652	0	1020	0	0	
6	0	0	0	0	594	659	0	1020	0	0	
7	0	0	0	0	597	659	0	1020	0	0	
8	0	0	0	0	599	653	0	1020	0	0	
9	0	0	0	0	598	642	0	1020	0	0	
10	0	0	0	0	595	627	0	1020	0	0	
11	0	0	0	0	590	609	0	1021	0	0	
12	0	0	0	0	583	590	0	874	0	0	
13	0	0	0	0	576	573	0	157	0	0	
14	0	0	0	0	569	558	0	0	0	0	
15	0	0	0	0	562	548	0	0	0	0	
0	0	0	0	0	556	543	0	0	0	0	
1	0	0	0	0	553	544	0	0	0	0	
2	0	0	0	0	551	552	0	0	0	0	
3	0	0	0	0	552	564	0	0	0	0	
4	0	0	0	0	555	580	0	0	0	0	
5	0	0	0	0	560	599	0	0	0	0	
6	0	0	0	0	565	618	0	0	0	0	
7	0	0	0	0	572	635	0	589	0	0	
8	0	0	0	0	578	650	0	1020	0	0	
9	0	0	0	0	584	660	0	1020	0	0	
10	0	0	0	0	589	664	0	1020	0	0	
11	0	0	0	0	591	662	0	1020	0	0	
12	0	0	0	0	592	655	0	1020	0	0	
13	0	0	0	0	591	641	0	1020	0	0	
14	0	0	0	0	588	625	0	1021	0	0	
15	0	0	0	0	582	606	0	1021	0	0	
0	0	0	0	0	575	587	0	624	0	0	
1	0	0	0	0	568	568	0	1	0	0	
2	0	0	0	0	560	554	0	0	0	0	
3	0	0	0	0	554	544	0	0	0	0	
4	0	0	0	0	549	541	0	0	0	0	
5	0	0	0	0	546	543	0	0	0	0	
6	0	0	0	0	545	552	0	0	0	0	
7	0	0	0	0	547	566	0	0	0	0	
8	0	0	0	0	551	584	0	0	0	0	
9	0	0	0	0	556	604	0	0	0	0	
10	0	0	0	0	563	625	0	0	0	0	
11	0	0	0	0	571	646	0	173	0	0	
12	0	0	0	0	579	662	0	912	0	0	
13	0	0	0	0	585	675	0	1020	0	0	
14	0	0	0	0	590	680	0	1020	0	0	
15	0	0	0	0	593	680	0	1020	0	0	
0	0	0	0	0	593	674	0	1020	0	0	
1	0	0	0	0	591	662	0	1021	0	0	
2	0	0	0	0	586	644	0	1021	0	0	
3	0	0	0	0	578	624	0	505	0	0	
4	0	0	0	0	569	603	0	0	0	0	
5	0	0	0	0	559	583	0	0	0	0	
6	0	0	0	0	549	566	0	0	0	0	
7	0	0	0	0	540	554	0	0	0	0	
8	0	0	0	0	533	548	0	0	0	0	
9	0	0	0	0	529	549	0	0	0	0	
10	0	0	0	0	527	556	0	0	0	0	
11	0	0	0	0	529	568	0	0	0	0	
12	0	0	0	0	534	585	0	0	0	0	
13	0	0	0	0	540	605	0	0	0	0	
14	0	0	0	0	549	625	0	0	0	0	
15	0	0	0	0	559	645	0	0	0	0	
0	0	0	0	0	568	661	0	629	0	0	
1	0	0	0	0	577	673	0	1020	0	0	
2	0	0	0	0	584	679	0	1020	0	0	
3	0	0	0	0	590	680	0	1020	0	0	
4	0	0	0	0	592	674	0	1020	0	0	
5	0	0	0	0	592	663	0	1021	0	0	
6	0	0	0	0	590	647	0	1021	0	0	
7	0	0	0	0	585	630	0	792	0	0	
8	0	0	0	0	579	611	0	39	0	0	
9	0	0	0	0	571	594	0	0	0	0	
10	0	0	0	0	564	579	0	0	0	0	
11	0	0	0	0	558	570	0	0	0	0	
12	0	0	0	0	552	566	0	0	0	0	
13	0	0	0	0	550	568	0	0	0	0	
14	0	0	0	0	549	575	0	0	0	0	
15	0	0	0	0	551	589	0	0	0	0	
0	0	0	0	0	556	606	0	0	0	0	
1	0	0	0	0	563	625	0	0	0	0	
2	0	0	0	0	572	646	0	0	0	0	
3	0	0	0	0	580	664	0	203	0	0	
4	0	0	0	0	588	679	0	958	0	0	
5	0	0	0	0	594	690	0	1020	0	0	
6	0	0	0	0	599	694	0	1020	0	0	
7	0	0	0	0	600	692	0	1020	0	0	
8	0	0	0	0	599	684	0	1020	0	0	
9	0	0	0	0	595	671	0	1021	0	0	
10	0	0	0	0	589	653	0	1020	0	0	
11	0	0	0	0	581	633	0	1021	0	0	
12	0	0	0	0	572	613	0	455	0	0	
13	0	0	0	0	563	594	0	0	0	0	
14	0	0	0	0	555	580	0	0	0	0	
15	0	0	0	0	548	569	0	0	0	0	
0	0	0	0	0	543	566	0	0	0	0	
1	0	0	0	0	541	568	0	0	0	0	
2	0	0	0	0	542	577	0	0	0	0	
3	0	0	0	0	546	593	0	0	0	0	
4	0	0	0	0	553	611	0	0	0	0	
5	0	0	0	0	560	633	0	0	0	0	
6	0	0	0	0	569	654	0	0	0	0	
7	0	0	0	0	576	674	0	135	0	0	
8	0	0	0	0	583	689	0	854	0	0	
9	0	0	0	0	589	700	0	1020	0	0	
10	0	0	0	0	591	703	0	1020	0	0	
11	0	0	0	0	592	700	0	1020	0	0	
12	0	0	0	0	590	689	0	1020	0	0	
13	0	0	0	0	585	673	0	1021	0	0	
14	0	0	0	0	579	653	0	951	0	0	
15	0	0	0	0	572	630	0	292	0	0	
0	0	0	0	0	565	608	0	0	0	0	
1	0	0	0	0	558	587	0	0	0	0	
2	0	0	0	0	553	570	0	0	0	0	
3	0	0	0	0	549	559	0	0	0	0	
4	0	0	0	0	548	555	0	0	0	0	
5	0	0	0	0	548	557	0	0	0	0	
6	0	0	0	0	551	567	0	0	0	0	
7	0	0	0	0	556	582	0	0	0	0	
8	0	0	0	0	562	600	0	0	0	0	
9	0	0	0	0	570	622	0	0	0	0	
10	0	0	0	0	577	644	0	0	0	0	
11	0	0	0	0	585	665	0	0	0	0	
12	0	0	0	0	592	683	0	396	0	0	
13	0	0	0	0	597	695	0	1019	0	0	
14	0	0	0	0	600	702	0	1020	0	0	
15	0	0	0	0	600	701	0	1020	0	0	
0	0	0	0	0	599	693	0	1020	0	0	
1	0	0	0	0	595	679	0	1021	0	0	
2	0	0	0	0	588	662	0	1021	0	0	
3	0	0	0	0	580	639	0	437	0	0	
4	0	0	0	0	571	617	0	0	0	0	
5	0	0	0	0	561	595	0	0	0	0	
6	0	0	0	0	553	577	0	0	0	0	
7	0	0	0	0	545	564	0	0	0	0	
8	0	0	0	0	541	558	0	0	0	0	
9	0	0	0	0	538	559	0	0	0	0	
10	0	0	0	0	539	567	0	0	0	0	
11	0	0	0	0	543	582	0	0	0	0	
12	0	0	0	0	550	601	0	0	0	0	
13	0	0	0	0	559	624	0	0	0	0	
14	0	0	0	0	568	647	0	0	0	0	
15	0	0	0	0	578	669	0	129	0	0	
0	0	0	0	0	588	688	0	844	0	0	
1	0	0	0	0	595	701	0	1020	0	0	
2	0	0	0	0	601	708	0	1020	0	0	
3	0	0	0	0	604	709	0	1020	0	0	
4	0	0	0	0	604	703	0	1020	0	0	
5	0	0	0	0	603	691	0	1020	0	0	
6	0	0	0	0	599	674	0	1021	0	0	
7	0	0	0	0	592	655	0	1021	0	0	
8	0	0	0	0	586	635	0	583	0	0	
9	0	0	0	0	578	615	0	0	0	0	
10	0	0	0	0	570	598	0	0	0	0	
11	0	0	0	0	564	586	0	0	0	0	
12	0	0	0	0	559	579	0	0	0	0	
13	0	0	0	0	557	579	0	0	0	0	
14	0	0	0	0	557	587	0	0	0	0	
15	0	0	0	0	560	599	0	0	0	0	
0	0	0	0	0	565	616	0	0	0	0	
1	0	0	0	0	572	636	0	0	0	0	
2	0	0	0	0	579	656	0	0	0	0	
3	0	0	0	0	588	675	0	499	0	0	
4	0	0	0	0	595	692	0	1020	0	0	
5	0	0	0	0	602	704	0	1020	0	0	
6	0	0	0	0	607	710	0	1020	0	0	
7	0	0	0	0	609	710	0	1020	0	0	
8	0	0	0	0	609	704	0	1020	0	0	
9	0	0	0	0	607	691	0	1021	0	0	
10	0	0	0	0	601	675	0	1021	0	0	
11	0	0	0	0	593	655	0	1021	0	0	
12	0	0	0	0	584	633	0	593	0	0	
13	0	0	0	0	574	613	0	0	0	0	
14	0	0	0	0	565	595	0	0	0	0	
15	0	0	0	0	556	583	0	0	0	0	
0	0	0	0	0	550	576	0	0	0	0	
1	0	0	0	0	545	575	0	0	0	0	
2	0	0	0	0	544	582	0	0	0	0	
3	0	0	0	0	546	594	0	0	0	0	
4	0	0	0	0	550	611	0	0	0	0	
5	0	0	0	0	556	630	0	0	0	0	
6	0	0	0	0	564	651	0	0	0	0	
7	0	0	0	0	573	670	0	193	0	0	
8	0	0	0	0	582	686	0	943	0	0	
9	0	0	0	0	589	697	0	1020	0	0	
10	0	0	0	0	595	703	0	1020	0	0	
11	0	0	0	0	598	701	0	1020	0	0	
12	0	0	0	0	599	694	0	1020	0	0	
13	0	0	0	0	597	680	0	1021	0	0	
14	0	0	0	0	592	662	0	1021	0	0	
15	0	0	0	0	586	641	0	602	0	0	
0	0	0	0	0	578	620	0	1	0	0	
1	0	0	0	0	570	601	0	0	0	0	
2	0	0	0	0	563	585	0	0	0	0	
3	0	0	0	0	557	575	0	0	0	0	
4	0	0	0	0	552	571	0	0	0	0	
5	0	0	0	0	551	574	0	0	0	0	
6	0	0	0	0	551	584	0	0	0	0	
7	0	0	0	0	555	600	0	0	0	0	
8	0	0	0	0	560	619	0	0	0	0	
9	0	0	0	0	567	641	0	0	0	0	
10	0	0	0	0	575	663	0	0	0	0	
11	0	0	0	0	583	684	0	145	0	0	
12	0	0	0	0	590	700	0	870	0	0	
13	0	0	0	0	596	712	0	1020	0	0	
14	0	0	0	0	601	718	0	1020	0	0	
15	0	0	0	0	603	716	0	1020	0	0	
0	0	0	0	0	603	708	0	1020	0	0	
1	0	0	0	0	600	695	0	1020	0	0	
2	0	0	0	0	595	675	0	1021	0	0	
3	0	0	0	0	590	654	0	1021	0	0	
4	0	0	0	0	582	632	0	611	0	0	
5	0	0	0	0	574	610	0	1	0	0	
6	0	0	0	0	567	592	0	0	0	0	
7	0	0	0	0	560	580	0	0	0	0	
8	0	0	0	0	556	573	0	0	0	0	
9	0	0	0	0	554	574	0	0	0	0	
10	0	0	0	0	555	581	0	0	0	0	
11	0	0	0	0	558	595	0	0	0	0	
12	0	0	0	0	564	613	0	0	0	0	
13	0	0	0	0	572	635	0	0	0	0	
14	0	0	0	0	581	657	0	0	0	0	
15	0	0	0	0	591	679	0	632	0	0	
0	0	0	0	0	600	697	0	1020	0	0	
1	0	0	0	0	608	711	0	1020	0	0	
2	0	0	0	0	614	719	0	1020	0	0	
3	0	0	0	0	617	719	0	1020	0	0	
4	0	0	0	0	617	713	0	1020	0	0	
5	0	0	0	0	614	701	0	1020	0	0	
6	0	0	0	0	607	683	0	1020	0	0	
7	0	0	0	0	598	663	0	1021	0	0	
8	0	0	0	0	588	640	0	1021	0	0	
9	0	0	0	0	576	618	0	492	0	0	
10	0	0	0	0	566	600	0	0	0	0	
11	0	0	0	0	557	585	0	0	0	0	
12	0	0	0	0	550	577	0	0	0	0	
13	0	0	0	0	546	575	0	0	0	0	
14	0	0	0	0	545	581	0	0	0	0	
15	0	0	0	0	548	591	0	0	0	0	
0	0	0	0	0	553	607	0	0	0	0	
1	0	0	0	0	561	626	0	0	0	0	
2	0	0	0	0	571	647	0	335	0	0	
3	0	0	0	0	581	666	0	1019	0	0	
4	0	0	0	0	590	683	0	1020	0	0	
5	0	0	0	0	599	695	0	1021	0	0	
6	0	0	0	0	605	700	0	1021	0	0	
7	0	0	0	0	608	700	0	1020	0	0	
8	0	0	0	0	608	692	0	1020	0	0	
9	0	0	0	0	606	679	0	1020	0	0	
10	0	0	0	0	601	661	0	1020	0	0	
11	0	0	0	0	594	641	0	1021	0	0	
12	0	0	0	0	586	620	0	1021	0	0	
13	0	0	0	0	579	602	0	766	0	0	
14	0	0	0	0	572	586	0	1	0	0	
15	0	0	0	0	567	576	0	0	0	0	
0	0	0	0	0	563	572	0	0	0	0	
1	0	0	0	0	563	575	0	0	0	0	
2	0	0	0	0	565	585	0	1	0	0	
3	0	0	0	0	570	600	0	0	0	0	
4	0	0	0	0	577	620	0	0	0	0	
5	0	0	0	0	585	641	0	0	0	0	
6	0	0	0	0	595	663	0	475	0	0	
7	0	0	0	0	604	684	0	1020	0	0	
8	0	0	0	0	611	700	0	1021	0	0	
9	0	0	0	0	618	711	0	1020	0	0	
10	0	0	0	0	621	715	0	1021	0	0	
11	0	0	0	0	622	712	0	1020	0	0	
12	0	0	0	0	619	704	0	1020	0	0	
13	0	0	0	0	613	687	0	1020	0	0	
14	0	0	0	0	605	668	0	1020	0	0	
15	0	0	0	0	594	644	0	1021	0	0	
0	0	0	0	0	583	621	0	1021	0	0	
1	0	0	0	0	572	599	0	776	0	0	
2	0	0	0	0	561	580	0	8	0	0	
3	0	0	0	0	553	567	0	0	0	0	
4	0	0	0	0	548	560	0	0	0	0	
5	0	0	0	0	545	561	0	0	0	0	
6	0	0	0	0	545	568	0	0	0	0	
7	0	0	0	0	549	581	0	0	0	0	
8	0	0	0	0	556	599	0	0	0	0	
9	0	0	0	0	564	620	0	0	0	0	
10	0	0	0	0	574	642	0	418	0	0	
11	0	0	0	0	584	663	0	1020	0	0	
12	0	0	0	0	594	680	0	1020	0	0	
13	0	0	0	0	603	692	0	1021	0	0	
14	0	0	0	0	609	699	0	1021	0	0	
15	0	0	0	0	612	698	0	1020	0	0	
0	0	0	0	0	613	691	0	1020	0	0	
1	0	0	0	0	611	678	0	1020	0	0	
2	0	0	0	0	607	660	0	1020	0	0	
3	0	0	0	0	600	640	0	1021	0	0	
4	0	0	0	0	593	619	0	1021	0	0	
5	0	0	0	0	584	599	0	660	0	0	
6	0	0	0	0	575	582	0	1	0	0	
7	0	0	0	0	568	570	0	0	0	0	
8	0	0	0	0	562	563	0	0	0	0	
9	0	0	0	0	559	563	0	0	0	0	
10	0	0	0	0	557	570	0	1	0	0	
11	0	0	0	0	558	582	0	0	0	0	
12	0	0	0	0	561	598	0	0	0	0	
13	0	0	0	0	566	617	0	0	0	0	
14	0	0	0	0	571	636	0	273	0	0	
15	0	0	0	0	577	654	0	1019	0	0	
0	0	0	0	0	582	668	0	1020	0	0	
1	0	0	0	0	586	678	0	1020	0	0	
2	0	0	0	0	588	681	0	1020	0	0	
3	0	0	0	0	588	679	0	1020	0	0	
4	0	0	0	0	586	669	0	1020	0	0	
5	0	0	0	0	582	654	0	1020	0	0	
6	0	0	0	0	576	635	0	1021	0	0	
7	0	0	0	0	569	613	0	1021	0	0	
8	0	0	0	0	561	591	0	1021	0	0	
9	0	0	0	0	552	570	0	422	0	0	
10	0	0	0	0	544	553	0	0	0	0	
11	0	0	0	0	538	541	0	0	0	0	
12	0	0	0	0	534	536	0	0	0	0	
13	0	0	0	0	531	537	0	0	0	0	
14	0	0	0	0	531	544	0	0	0	0	
15	0	0	0	0	534	556	0	0	0	0	
0	0	0	0	0	538	573	0	0	0	0	
1	0	0	0	0	544	591	0	0	0	0	
2	0	0	0	0	551	611	0	83	0	0	
3	0	0	0	0	558	630	0	768	0	0	
4	0	0	0	0	566	646	0	1020	0	0	
5	0	0	0	0	572	656	0	1021	0	0	
6	0	0	0	0	576	662	0	1020	0	0	
7	0	0	0	0	579	661	0	1020	0	0	
8	0	0	0	0	579	654	0	1020	0	0	
9	0	0	0	0	577	642	0	1020	0	0	
10	0	0	0	0	573	625	0	1021	0	0	
11	0	0	0	0	567	607	0	1021	0	0	
12	0	0	0	0	560	587	0	835	0	0	
13	0	0	0	0	553	569	0	97	0	0	
14	0	0	0	0	547	554	0	0	0	0	
15	0	0	0	0	541	543	0	0	0	0	
0	0	0	0	0	537	539	0	0	0	0	
1	0	0	0	0	536	540	0	0	0	0	
2	0	0	0	0	537	547	0	0	0	0	
3	0	0	0	0	540	561	0	0	0	0	
4	0	0	0	0	545	577	0	0	0	0	
5	0	0	0	0	552	597	0	0	0	0	
6	0	0	0	0	560	617	0	0	0	0	
7	0	0	0	0	568	636	0	460	0	0	
8	0	0	0	0	575	651	0	1020	0	0	
9	0	0	0	0	580	660	0	1020	0	0	
10	0	0	0	0	584	665	0	1020	0	0	
11	0	0	0	0	585	662	0	1020	0	0	
12	0	0	0	0	584	654	0	1020	0	0	
13	0	0	0	0	581	640	0	1021	0	0	
14	0	0	0	0	576	622	0	1020	0	0	
15	0	0	0	0	569	603	0	1021	0	0	
0	0	0	0	0	561	582	0	527	0	0	
1	0	0	0	0	553	564	0	0	0	0	
2	0	0	0	0	546	549	0	0	0	0	
3	0	0	0	0	541	540	0	0	0	0	
4	0	0	0	0	537	536	0	0	0	0	
5	0	0	0	0	535	539	0	0	0	0	
6	0	0	0	0	536	547	0	0	0	0	
7	0	0	0	0	540	561	0	0	0	0	
8	0	0	0	0	545	578	0	0	0	0	
9	0	0	0	0	551	598	0	0	0	0	
10	0	0	0	0	560	617	0	0	0	0	
11	0	0	0	0	568	635	0	228	0	0	
12	0	0	0	0	575	649	0	995	0	0	
13	0	0	0	0	582	658	0	1020	0	0	
14	0	0	0	0	586	662	0	1020	0	0	
15	0	0	0	0	589	659	0	1020	0	0	
0	0	0	0	0	589	651	0	1020	0	0	
1	0	0	0	0	588	638	0	1020	0	0	
2	0	0	0	0	585	622	0	1021	0	0	
3	0	0	0	0	580	604	0	902	0	0	
4	0	0	0	0	575	586	0	206	0	0	
5	0	0	0	0	568	569	0	0	0	0	
6	0	0	0	0	563	555	0	0	0	0	
7	0	0	0	0	557	546	0	0	0	0	
8	0	0	0	0	553	542	0	0	0	0	
9	0	0	0	0	551	544	0	0	0	0	
10	0	0	0	0	551	553	0	0	0	0	
11	0	0	0	0	555	566	0	0	0	0	
12	0	0	0	0	559	584	0	0	0	0	
13	0	0	0	0	566	603	0	0	0	0	
14	0	0	0	0	574	623	0	0	0	0	
15	0	0	0	0	581	641	0	47	0	0	
0	0	0	0	0	588	655	0	712	0	0	
1	0	0	0	0	594	664	0	1020	0	0	
2	0	0	0	0	597	666	0	1020	0	0	
3	0	0	0	0	597	661	0	1020	0	0	
4	0	0	0	0	594	649	0	1020	0	0	
5	0	0	0	0	588	631	0	1020	0	0	
6	0	0	0	0	579	609	0	1020	0	0	
7	0	0	0	0	568	584	0	763	0	0	
8	0	0	0	0	555	559	0	1	0	0	
9	0	0	0	0	543	536	0	0	0	0	
10	0	0	0	0	532	517	0	0	0	0	
11	0	0	0	0	523	504	0	0	0	0	
12	0	0	0	0	517	499	0	0	0	0	
13	0	0	0	0	515	501	0	0	0	0	
14	0	0	0	0	516	511	0	0	0	0	
15	0	0	0	0	520	526	0	0	0	0	
0	0	0	0	0	527	546	0	0	0	0	
1	0	0	0	0	537	569	0	0	0	0	
2	0	0	0	0	548	592	0	0	0	0	
3	0	0	0	0	559	614	0	100	0	0	
4	0	0	0	0	569	631	0	799	0	0	
5	0	0	0	0	579	644	0	1020	0	0	
6	0	0	0	0	586	651	0	1020	0	0	
7	0	0	0	0	591	651	0	1020	0	0	
8	0	0	0	0	593	644	0	1020	0	0	
9	0	0	0	0	593	631	0	1020	0	0	
10	0	0	0	0	590	615	0	1021	0	0	
11	0	0	0	0	585	595	0	969	0	0	
12	0	0	0	0	578	574	0	318	0	0	
13	0	0	0	0	570	554	0	0	0	0	
14	0	0	0	0	561	538	0	0	0	0	
15	0	0	0	0	554	527	0	0	0	0	
0	0	0	0	0	548	521	0	0	0	0	
1	0	0	0	0	545	523	0	0	0	0	
2	0	0	0	0	544	530	0	0	0	0	
3	0	0	0	0	545	544	0	0	0	0	
4	0	0	0	0	550	562	0	0	0	0	
5	0	0	0	0	557	583	0	0	0	0	
6	0	0	0	0	565	605	0	0	0	0	
7	0	0	0	0	574	624	0	139	0	0	
8	0	0	0	0	583	641	0	860	0	0	
9	0	0	0	0	590	653	0	1020	0	0	
10	0	0	0	0	596	658	0	1020	0	0	
11	0	0	0	0	599	656	0	1020	0	0	
12	0	0	0	0	599	647	0	1020	0	0	
13	0	0	0	0	598	632	0	1021	0	0	
14	0	0	0	0	593	612	0	1021	0	0	
15	0	0	0	0	585	590	0	704	0	0	
0	0	0	0	0	577	567	0	1	0	0	
1	0	0	0	0	567	544	0	0	0	0	
2	0	0	0	0	557	525	0	0	0	0	
3	0	0	0	0	548	511	0	0	0	0	
4	0	0	0	0	541	504	0	0	0	0	
5	0	0	0	0	536	504	0	0	0	0	
6	0	0	0	0	534	510	0	0	0	0	
7	0	0	0	0	535	523	0	0	0	0	
8	0	0	0	0	539	541	0	0	0	0	
9	0	0	0	0	545	563	0	0	0	0	
10	0	0	0	0	553	585	0	0	0	0	
11	0	0	0	0	563	606	0	44	0	0	
12	0	0	0	0	572	625	0	708	0	0	
13	0	0	0	0	582	639	0	1020	0	0	
14	0	0	0	0	590	646	0	1020	0	0	
15	0	0	0	0	595	647	0	1020	0	0	
0	0	0	0	0	598	641	0	1020	0	0	
1	0	0	0	0	599	631	0	1021	0	0	
2	0	0	0	0	597	615	0	1021	0	0	
3	0	0	0	0	593	596	0	836	0	0	
4	0	0	0	0	588	577	0	104	0	0	
5	0	0	0	0	581	559	0	0	0	0	
6	0	0	0	0	574	544	0	0	0	0	
7	0	0	0	0	569	534	0	0	0	0	
8	0	0	0	0	564	530	0	0	0	0	
9	0	0	0	0	560	531	0	0	0	0	
10	0	0	0	0	558	539	0	0	0	0	
11	0	0	0	0	558	551	0	0	0	0	
12	0	0	0	0	558	566	0	0	0	0	
13	0	0	0	0	558	581	0	0	0	0	
14	0	0	0	0	558	596	0	0	0	0	
15	0	0	0	0	556	607	0	154	0	0	
0	0	0	0	0	553	614	0	882	0	0	
1	0	0	0	0	547	614	0	1020	0	0	
2	0	0	0	0	537	607	0	1020	0	0	
3	0	0	0	0	526	591	0	1020	0	0	
4	0	0	0	0	511	569	0	1020	0	0	
5	0	0	0	0	494	542	0	1020	0	0	
6	0	0	0	0	475	510	0	1021	0	0	
7	0	0	0	0	455	476	0	1021	0	0	
8	0	0	0	0	436	443	0	498	0	0	
9	0	0	0	0	419	413	0	0	0	0	
10	0	0	0	0	405	388	0	0	0	0	
11	0	0	0	0	396	371	0	0	0	0	
12	0	0	0	0	391	363	0	0	0	0	
13	0	0	0	0	393	365	0	0	0	0	
14	0	0	0	0	401	377	0	0	0	0	
15	0	0	0	0	416	399	0	0	0	0	
0	0	0	0	0	436	428	0	0	0	0	
1	0	0	0	0	460	463	0	0	0	0	
2	0	0	0	0	487	500	0	0	0	0	
3	0	0	0	0	515	537	0	489	0	0	
4	0	0	0	0	543	572	0	1020	0	0	
5	0	0	0	0	569	601	0	1020	0	0	
6	0	0	0	0	591	624	0	1020	0	0	
7	0	0	0	0	609	638	0	1020	0	0	
8	0	0	0	0	621	643	0	1020	0	0	
9	0	0	0	0	627	639	0	1020	0	0	
10	0	0	0	0	628	629	0	1020	0	0	
11	0	0	0	0	624	613	0	1021	0	0	
12	0	0	0	0	616	594	0	893	0	0	
13	0	0	0	0	605	574	0	187	0	0	
14	0	0	0	0	593	556	0	0	0	0	
15	0	0	0	0	581	541	0	0	0	0	
0	0	0	0	0	571	531	0	0	0	0	
1	0	0	0	0	562	528	0	0	0	0	
2	0	0	0	0	557	532	0	0	0	0	
3	0	0	0	0	556	541	0	0	0	0	
4	0	0	0	0	558	555	0	0	0	0	
5	0	0	0	0	563	573	0	0	0	0	
6	0	0	0	0	571	591	0	129	0	0	
7	0	0	0	0	580	609	0	843	0	0	
8	0	0	0	0	589	624	0	1020	0	0	
9	0	0	0	0	597	636	0	1020	0	0	
10	0	0	0	0	604	641	0	1021	0	0	
11	0	0	0	0	607	640	0	1020	0	0	
12	0	0	0	0	608	632	0	1020	0	0	
13	0	0	0	0	604	619	0	1020	0	0	
14	0	0	0	0	599	601	0	1020	0	0	
15	0	0	0	0	590	580	0	1021	0	0	
0	0	0	0	0	579	559	0	1021	0	0	
1	0	0	0	0	568	538	0	664	0	0	
2	0	0	0	0	556	522	0	1	0	0	
3	0	0	0	0	547	511	0	0	0	0	
4	0	0	0	0	539	506	0	0	0	0	
5	0	0	0	0	535	508	0	0	0	0	
6	0	0	0	0	533	516	0	0	0	0	
7	0	0	0	0	535	531	0	0	0	0	
8	0	0	0	0	540	548	0	0	0	0	
9	0	0	0	0	547	569	0	0	0	0	
10	0	0	0	0	556	591	0	344	0	0	
11	0	0	0	0	566	609	0	1020	0	0	
12	0	0	0	0	574	625	0	1020	0	0	
13	0	0	0	0	581	636	0	1021	0	0	
14	0	0	0	0	586	641	0	1021	0	0	
15	0	0	0	0	589	639	0	1020	0	0	
0	0	0	0	0	589	630	0	1020	0	0	
1	0	0	0	0	585	615	0	1020	0	0	
2	0	0	0	0	580	597	0	1020	0	0	
3	0	0	0	0	573	576	0	1021	0	0	
4	0	0	0	0	565	554	0	1021	0	0	
5	0	0	0	0	556	534	0	701	0	0	
6	0	0	0	0	547	516	0	1	0	0	
7	0	0	0	0	541	504	0	0	0	0	
8	0	0	0	0	536	498	0	0	0	0	
9	0	0	0	0	532	498	0	0	0	0	
10	0	0	0	0	532	504	0	0	0	0	
11	0	0	0	0	534	516	0	0	0	0	
12	0	0	0	0	539	532	0	0	0	0	
13	0	0	0	0	546	551	0	0	0	0	
14	0	0	0	0	554	572	0	340	0	0	
15	0	0	0	0	563	591	0	1020	0	0	
0	0	0	0	0	572	607	0	1021	0	0	
1	0	0	0	0	580	619	0	1021	0	0	
2	0	0	0	0	587	625	0	1020	0	0	
3	0	0	0	0	591	626	0	1020	0	0	
4	0	0	0	0	592	620	0	1020	0	0	
5	0	0	0	0	591	608	0	1020	0	0	
6	0	0	0	0	587	592	0	1021	0	0	
7	0	0	0	0	581	574	0	1021	0	0	
8	0	0	0	0	574	554	0	1021	0	0	
9	0	0	0	0	566	535	0	575	0	0	
10	0	0	0	0	558	519	0	0	0	0	
11	0	0	0	0	550	506	0	0	0	0	
12	0	0	0	0	544	500	0	0	0	0	
13	0	0	0	0	539	499	0	0	0	0	
14	0	0	0	0	537	504	0	0	0	0	
15	0	0	0	0	537	513	0	0	0	0	
0	0	0	0	0	539	527	0	0	0	0	
1	0	0	0	0	542	543	0	0	0	0	
2	0	0	0	0	547	559	0	104	0	0	
3	0	0	0	0	551	575	0	802	0	0	
4	0	0	0	0	556	587	0	1020	0	0	
5	0	0	0	0	560	595	0	1020	0	0	
6	0	0	0	0	563	597	0	1020	0	0	
7	0	0	0	0	563	593	0	1020	0	0	
8	0	0	0	0	561	584	0	1020	0	0	
9	0	0	0	0	558	569	0	1020	0	0	
10	0	0	0	0	552	551	0	1020	0	0	
11	0	0	0	0	546	530	0	1021	0	0	
12	0	0	0	0	539	509	0	896	0	0	
13	0	0	0	0	532	490	0	191	0	0	
14	0	0	0	0	527	475	0	0	0	0	
15	0	0	0	0	523	465	0	0	0	0	
0	0	0	0	0	521	462	0	0	0	0	
1	0	0	0	0	522	464	0	0	0	0	
2	0	0	0	0	525	473	0	0	0	0	
3	0	0	0	0	531	488	0	0	0	0	
4	0	0	0	0	539	507	0	0	0	0	
5	0	0	0	0	548	527	0	0	0	0	
6	0	0	0	0	557	548	0	40	0	0	
7	0	0	0	0	567	568	0	698	0	0	
8	0	0	0	0	575	583	0	1020	0	0	
9	0	0	0	0	582	595	0	1020	0	0	
10	0	0	0	0	586	600	0	1020	0	0	
11	0	0	0	0	587	598	0	1020	0	0	
12	0	0	0	0	585	590	0	1020	0	0	
13	0	0	0	0	580	575	0	1020	0	0	
14	0	0	0	0	574	557	0	1021	0	0	
15	0	0	0	0	564	535	0	1021	0	0	
0	0	0	0	0	554	512	0	994	0	0	
1	0	0	0	0	543	491	0	353	0	0	
2	0	0	0	0	532	473	0	0	0	0	
3	0	0	0	0	524	460	0	0	0	0	
4	0	0	0	0	517	454	0	0	0	0	
5	0	0	0	0	514	454	0	0	0	0	
6	0	0	0	0	514	460	0	0	0	0	
7	0	0	0	0	517	474	0	0	0	0	
8	0	0	0	0	524	492	0	0	0	0	
9	0	0	0	0	534	514	0	0	0	0	
10	0	0	0	0	545	536	0	109	0	0	
11	0	0	0	0	558	558	0	810	0	0	
12	0	0	0	0	571	577	0	1020	0	0	
13	0	0	0	0	583	591	0	1021	0	0	
14	0	0	0	0	592	600	0	1021	0	0	
15	0	0	0	0	598	601	0	1020	0	0	
0	0	0	0	0	601	596	0	1020	0	0	
1	0	0	0	0	600	585	0	1020	0	0	
2	0	0	0	0	595	569	0	1021	0	0	
3	0	0	0	0	588	551	0	1021	0	0	
4	0	0	0	0	578	531	0	1008	0	0	
5	0	0	0	0	567	511	0	376	0	0	
6	0	0	0	0	556	495	0	0	0	0	
7	0	0	0	0	545	483	0	0	0	0	
8	0	0	0	0	536	476	0	0	0	0	
9	0	0	0	0	530	476	0	0	0	0	
10	0	0	0	0	527	482	0	0	0	0	
11	0	0	0	0	527	494	0	0	0	0	
12	0	0	0	0	531	509	0	0	0	0	
13	0	0	0	0	538	528	0	0	0	0	
14	0	0	0	0	547	547	0	32	0	0	
15	0	0	0	0	557	565	0	683	0	0	
0	0	0	0	0	567	581	0	1020	0	0	
1	0	0	0	0	576	591	0	1021	0	0	
2	0	0	0	0	583	595	0	1020	0	0	
3	0	0	0	0	587	593	0	1020	0	0	
4	0	0	0	0	587	584	0	1020	0	0	
5	0	0	0	0	584	571	0	1020	0	0	
6	0	0	0	0	579	553	0	1021	0	0	
7	0	0	0	0	571	532	0	1021	0	0	
8	0	0	0	0	561	511	0	838	0	0	
9	0	0	0	0	550	492	0	102	0	0	
10	0	0	0	0	540	475	0	0	0	0	
11	0	0	0	0	530	463	0	0	0	0	
12	0	0	0	0	522	457	0	0	0	0	
13	0	0	0	0	517	457	0	0	0	0	
14	0	0	0	0	515	464	0	0	0	0	
15	0	0	0	0	515	476	0	0	0	0	
0	0	0	0	0	519	491	0	0	0	0	
1	0	0	0	0	526	510	0	0	0	0	
2	0	0	0	0	534	529	0	0	0	0	
3	0	0	0	0	543	547	0	274	0	0	
4	0	0	0	0	552	562	0	1020	0	0	
5	0	0	0	0	561	572	0	1020	0	0	
6	0	0	0	0	568	577	0	1020	0	0	
7	0	0	0	0	572	575	0	1020	0	0	
8	0	0	0	0	574	568	0	1020	0	0	
9	0	0	0	0	572	554	0	1021	0	0	
10	0	0	0	0	568	537	0	1020	0	0	
11	0	0	0	0	562	517	0	992	0	0	
12	0	0	0	0	554	496	0	353	0	0	
13	0	0	0	0	545	477	0	0	0	0	
14	0	0	0	0	536	461	0	0	0	0	
15	0	0	0	0	528	450	0	0	0	0	
0	0	0	0	0	523	445	0	0	0	0	
1	0	0	0	0	519	446	0	0	0	0	
2	0	0	0	0	518	453	0	0	0	0	
3	0	0	0	0	520	466	0	0	0	0	
4	0	0	0	0	525	482	0	0	0	0	
5	0	0	0	0	531	502	0	0	0	0	
6	0	0	0	0	539	521	0	0	0	0	
7	0	0	0	0	547	539	0	299	0	0	
8	0	0	0	0	555	554	0	1020	0	0	
9	0	0	0	0	561	563	0	1020	0	0	
10	0	0	0	0	565	567	0	1020	0	0	
11	0	0	0	0	567	564	0	1020	0	0	
12	0	0	0	0	566	556	0	1020	0	0	
13	0	0	0	0	563	541	0	1021	0	0	
14	0	0	0	0	557	522	0	1021	0	0	
15	0	0	0	0	549	502	0	1021	0	0	
0	0	0	0	0	540	480	0	530	0	0	
1	0	0	0	0	530	460	0	0	0	0	
2	0	0	0	0	521	444	0	0	0	0	
3	0	0	0	0	513	432	0	0	0	0	
4	0	0	0	0	507	427	0	0	0	0	
5	0	0	0	0	502	428	0	0	0	0	
6	0	0	0	0	501	435	0	1	0	0	
7	0	0	0	0	503	448	0	0	0	0	
8	0	0	0	0	507	466	0	0	0	0	
9	0	0	0	0	515	487	0	0	0	0	
10	0	0	0	0	524	508	0	0	0	0	
11	0	0	0	0	533	529	0	54	0	0	
12	0	0	0	0	543	548	0	723	0	0	
13	0	0	0	0	552	561	0	1020	0	0	
14	0	0	0	0	560	570	0	1020	0	0	
15	0	0	0	0	566	572	0	1020	0	0	
0	0	0	0	0	569	568	0	1020	0	0	
1	0	0	0	0	570	558	0	1021	0	0	
2	0	0	0	0	568	543	0	807	0	0	
3	0	0	0	0	564	527	0	66	0	0	
4	0	0	0	0	559	509	0	0	0	0	
5	0	0	0	0	553	492	0	0	0	0	
6	0	0	0	0	547	479	0	0	0	0	
7	0	0	0	0	542	470	0	0	0	0	
8	0	0	0	0	538	466	0	0	0	0	
9	0	0	0	0	536	467	0	0	0	0	
10	0	0	0	0	536	474	0	0	0	0	
11	0	0	0	0	539	486	0	0	0	0	
12	0	0	0	0	543	502	0	0	0	0	
13	0	0	0	0	549	519	0	0	0	0	
14	0	0	0	0	555	537	0	0	0	0	
15	0	0	0	0	562	554	0	0	0	0	
0	0	0	0	0	568	567	0	117	0	0	
1	0	0	0	0	572	575	0	769	0	0	
2	0	0	0	0	575	578	0	1020	0	0	
3	0	0	0	0	576	575	0	1020	0	0	
4	0	0	0	0	575	566	0	1020	0	0	
5	0	0	0	0	571	553	0	924	0	0	
6	0	0	0	0	565	536	0	286	0	0	
7	0	0	0	0	558	516	0	0	0	0	
8	0	0	0	0	551	497	0	0	0	0	
9	0	0	0	0	543	480	0	0	0	0	
10	0	0	0	0	537	467	0	0	0	0	
11	0	0	0	0	532	459	0	0	0	0	
12	0	0	0	0	530	457	0	0	0	0	
13	0	0	0	0	531	463	0	0	0	0	
14	0	0	0	0	536	475	0	0	0	0	
15	0	0	0	0	542	493	0	0	0	0	
0	0	0	0	0	551	514	0	0	0	0	
1	0	0	0	0	561	538	0	0	0	0	
2	0	0	0	0	572	561	0	0	0	0	
3	0	0	0	0	584	583	0	0	0	0	
4	0	0	0	0	594	600	0	339	0	0	
5	0	0	0	0	603	612	0	1020	0	0	
6	0	0	0	0	610	618	0	1020	0	0	
7	0	0	0	0	614	617	0	1020	0	0	
8	0	0	0	0	615	609	0	1020	0	0	
9	0	0	0	0	612	595	0	1020	0	0	
10	0	0	0	0	607	577	0	1020	0	0	
11	0	0	0	0	599	557	0	1021	0	0	
12	0	0	0	0	590	536	0	412	0	0	
13	0	0	0	0	580	516	0	0	0	0	
14	0	0	0	0	571	501	0	0	0	0	
15	0	0	0	0	563	491	0	0	0	0	
0	0	0	0	0	558	487	0	0	0	0	
1	0	0	0	0	555	490	0	0	0	0	
2	0	0	0	0	556	499	0	0	0	0	
3	0	0	0	0	559	515	0	0	0	0	
4	0	0	0	0	566	534	0	0	0	0	
5	0	0	0	0	574	555	0	0	0	0	
6	0	0	0	0	583	577	0	133	0	0	
7	0	0	0	0	593	598	0	849	0	0	
8	0	0	0	0	603	615	0	1020	0	0	
9	0	0	0	0	611	628	0	1021	0	0	
10	0	0	0	0	616	635	0	1021	0	0	
11	0	0	0	0	620	635	0	1020	0	0	
12	0	0	0	0	620	627	0	1020	0	0	
13	0	0	0	0	615	614	0	1020	0	0	
14	0	0	0	0	608	595	0	1020	0	0	
15	0	0	0	0	598	572	0	1021	0	0	
0	0	0	0	0	587	550	0	1021	0	0	
1	0	0	0	0	574	527	0	1021	0	0	
2	0	0	0	0	561	507	0	552	0	0	
3	0	0	0	0	550	493	0	1	0	0	
4	0	0	0	0	541	485	0	0	0	0	
5	0	0	0	0	534	483	0	0	0	0	
6	0	0	0	0	531	488	0	0	0	0	
7	0	0	0	0	532	499	0	0	0	0	
8	0	0	0	0	536	515	0	0	0	0	
9	0	0	0	0	542	534	0	276	0	0	
10	0	0	0	0	551	554	0	1019	0	0	
11	0	0	0	0	560	574	0	1020	0	0	
12	0	0	0	0	570	590	0	1021	0	0	
13	0	0	0	0	578	603	0	1020	0	0	
14	0	0	0	0	585	610	0	1021	0	0	
15	0	0	0	0	589	611	0	1020	0	0	
0	0	0	0	0	590	606	0	1020	0	0	
1	0	0	0	0	589	595	0	1020	0	0	
2	0	0	0	0	584	581	0	1020	0	0	
3	0	0	0	0	578	564	0	1021	0	0	
4	0	0	0	0	571	547	0	1021	0	0	
5	0	0	0	0	563	531	0	1021	0	0	
6	0	0	0	0	556	518	0	464	0	0	
7	0	0	0	0	549	508	0	0	0	0	
8	0	0	0	0	544	505	0	0	0	0	
9	0	0	0	0	542	508	0	0	0	0	
10	0	0	0	0	541	516	0	0	0	0	
11	0	0	0	0	542	529	0	0	0	0	
12	0	0	0	0	546	545	0	0	0	0	
13	0	0	0	0	552	564	0	0	0	0	
14	0	0	0	0	559	583	0	560	0	0	
15	0	0	0	0	566	600	0	1020	0	0	
0	0	0	0	0	572	613	0	1020	0	0	
1	0	0	0	0	578	623	0	1020	0	0	
2	0	0	0	0	582	626	0	1021	0	0	
3	0	0	0	0	583	623	0	1020	0	0	
4	0	0	0	0	582	614	0	1020	0	0	
5	0	0	0	0	578	600	0	1020	0	0	
6	0	0	0	0	572	581	0	1020	0	0	
7	0	0	0	0	564	559	0	1021	0	0	
8	0	0	0	0	555	537	0	1021	0	0	
9	0	0	0	0	544	516	0	648	0	0	
10	0	0	0	0	535	497	0	1	0	0	
11	0	0	0	0	526	484	0	0	0	0	
12	0	0	0	0	519	477	0	0	0	0	
13	0	0	0	0	515	476	0	0	0	0	
14	0	0	0	0	513	482	0	0	0	0	
15	0	0	0	0	516	493	0	0	0	0	
0	0	0	0	0	521	510	0	0	0	0	
1	0	0	0	0	529	529	0	0	0	0	
2	0	0	0	0	539	549	0	216	0	0	
3	0	0	0	0	549	569	0	975	0	0	
4	0	0	0	0	560	585	0	1020	0	0	
5	0	0	0	0	570	598	0	1021	0	0	
6	0	0	0	0	578	605	0	1021	0	0	
7	0	0	0	0	583	606	0	1020	0	0	
8	0	0	0	0	587	600	0	1020	0	0	
9	0	0	0	0	586	590	0	1020	0	0	
10	0	0	0	0	583	575	0	1021	0	0	
11	0	0	0	0	577	556	0	1021	0	0	
12	0	0	0	0	570	537	0	1021	0	0	
13	0	0	0	0	561	518	0	704	0	0	
14	0	0	0	0	551	503	0	1	0	0	
15	0	0	0	0	543	491	0	0	0	0	
0	0	0	0	0	535	485	0	0	0	0	
1	0	0	0	0	529	484	0	0	0	0	
2	0	0	0	0	526	490	0	0	0	0	
3	0	0	0	0	526	500	0	0	0	0	
4	0	0	0	0	527	515	0	0	0	0	
5	0	0	0	0	531	531	0	0	0	0	
6	0	0	0	0	536	549	0	354	0	0	
7	0	0	0	0	543	566	0	1020	0	0	
8	0	0	0	0	549	579	0	1020	0	0	
9	0	0	0	0	554	588	0	1021	0	0	
10	0	0	0	0	559	592	0	1021	0	0	
11	0	0	0	0	561	590	0	1020	0	0	
12	0	0	0	0	561	583	0	1020	0	0	
13	0	0	0	0	559	571	0	1020	0	0	
14	0	0	0	0	555	555	0	1020	0	0	
15	0	0	0	0	550	537	0	1021	0	0	
0	0	0	0	0	543	519	0	1021	0	0	
1	0	0	0	0	536	502	0	920	0	0	
2	0	0	0	0	529	488	0	229	0	0	
3	0	0	0	0	524	479	0	0	0	0	
4	0	0	0	0	521	475	0	0	0	0	
5	0	0	0	0	519	477	0	0	0	0	
6	0	0	0	0	520	485	0	0	0	0	
7	0	0	0	0	524	498	0	0	0	0	
8	0	0	0	0	531	514	0	0	0	0	
9	0	0	0	0	540	534	0	0	0	0	
10	0	0	0	0	549	553	0	450	0	0	
11	0	0	0	0	559	572	0	1020	0	0	
12	0	0	0	0	569	587	0	1020	0	0	
13	0	0	0	0	577	597	0	1021	0	0	
14	0	0	0	0	583	602	0	1021	0	0	
15	0	0	0	0	586	600	0	1020	0	0	
0	0	0	0	0	585	593	0	1020	0	0	
1	0	0	0	0	582	580	0	1020	0	0	
2	0	0	0	0	575	563	0	1021	0	0	
3	0	0	0	0	567	543	0	1021	0	0	
4	0	0	0	0	557	524	0	1021	0	0	
5	0	0	0	0	547	504	0	642	0	0	
6	0	0	0	0	537	488	0	1	0	0	
7	0	0	0	0	529	477	0	0	0	0	
8	0	0	0	0	523	472	0	0	0	0	
9	0	0	0	0	519	472	0	0	0	0	
10	0	0	0	0	519	479	0	0	0	0	
11	0	0	0	0	521	492	0	0	0	0	
12	0	0	0	0	526	508	0	0	0	0	
13	0	0	0	0	534	528	0	0	0	0	
14	0	0	0	0	543	549	0	81	0	0	
15	0	0	0	0	554	569	0	764	0	0	
0	0	0	0	0	563	586	0	1020	0	0	
1	0	0	0	0	573	600	0	1021	0	0	
2	0	0	0	0	579	607	0	1020	0	0	
3	0	0	0	0	584	609	0	1020	0	0	
4	0	0	0	0	586	604	0	1020	0	0	
5	0	0	0	0	583	593	0	1020	0	0	
6	0	0	0	0	579	578	0	1021	0	0	
7	0	0	0	0	571	559	0	1021	0	0	
8	0	0	0	0	561	539	0	805	0	0	
9	0	0	0	0	550	518	0	51	0	0	
10	0	0	0	0	539	500	0	0	0	0	
11	0	0	0	0	529	487	0	0	0	0	
12	0	0	0	0	521	480	0	0	0	0	
13	0	0	0	0	517	479	0	0	0	0	
14	0	0	0	0	515	484	0	0	0	0	
15	0	0	0	0	517	496	0	0	0	0	
0	0	0	0	0	523	511	0	0	0	0	
1	0	0	0	0	530	528	0	0	0	0	
2	0	0	0	0	540	547	0	0	0	0	
3	0	0	0	0	550	566	0	162	0	0	
4	0	0	0	0	560	581	0	894	0	0	
5	0	0	0	0	570	592	0	1020	0	0	
6	0	0	0	0	577	598	0	1020	0	0	
7	0	0	0	0	582	598	0	1020	0	0	
8	0	0	0	0	584	591	0	1020	0	0	
9	0	0	0	0	583	579	0	1021	0	0	
10	0	0	0	0	579	564	0	1021	0	0	
11	0	0	0	0	572	545	0	621	0	0	
12	0	0	0	0	563	526	0	1	0	0	
13	0	0	0	0	554	508	0	0	0	0	
14	0	0	0	0	545	492	0	0	0	0	
15	0	0	0	0	537	481	0	0	0	0	
0	0	0	0	0	531	477	0	0	0	0	
1	0	0	0	0	528	477	0	0	0	0	
2	0	0	0	0	528	484	0	0	0	0	
3	0	0	0	0	530	496	0	0	0	0	
4	0	0	0	0	535	512	0	0	0	0	
5	0	0	0	0	542	530	0	0	0	0	
6	0	0	0	0	550	549	0	0	0	0	
7	0	0	0	0	559	566	0	29	0	0	
8	0	0	0	0	567	581	0	683	0	0	
9	0	0	0	0	575	591	0	1020	0	0	
10	0	0	0	0	580	595	0	1020	0	0	
11	0	0	0	0	583	593	0	1020	0	0	
12	0	0	0	0	583	586	0	1020	0	0	
13	0	0	0	0	581	574	0	1020	0	0	
14	0	0	0	0	577	557	0	1021	0	0	
15	0	0	0	0	570	538	0	971	0	0	
0	0	0	0	0	562	519	0	320	0	0	
1	0	0	0	0	553	501	0	0	0	0	
2	0	0	0	0	545	487	0	0	0	0	
3	0	0	0	0	537	477	0	0	0	0	
4	0	0	0	0	532	473	0	0	0	0	
5	0	0	0	0	528	475	0	0	0	0	
6	0	0	0	0	528	482	0	0	0	0	
7	0	0	0	0	531	495	0	0	0	0	
8	0	0	0	0	536	512	0	0	0	0	
9	0	0	0	0	543	531	0	0	0	0	
10	0	0	0	0	552	551	0	0	0	0	
11	0	0	0	0	562	570	0	415	0	0	
12	0	0	0	0	571	585	0	1020	0	0	
13	0	0	0	0	578	595	0	1020	0	0	
14	0	0	0	0	583	600	0	1021	0	0	
15	0	0	0	0	585	598	0	1020	0	0	
0	0	0	0	0	583	589	0	1020	0	0	
1	0	0	0	0	578	574	0	1020	0	0	
2	0	0	0	0	571	556	0	1021	0	0	
3	0	0	0	0	560	535	0	1021	0	0	
4	0	0	0	0	550	514	0	1021	0	0	
5	0	0	0	0	538	495	0	449	0	0	
6	0	0	0	0	529	480	0	0	0	0	
7	0	0	0	0	521	472	0	0	0	0	
8	0	0	0	0	517	469	0	0	0	0	
9	0	0	0	0	517	474	0	0	0	0	
10	0	0	0	0	520	485	0	0	0	0	
11	0	0	0	0	526	502	0	0	0	0	
12	0	0	0	0	536	524	0	0	0	0	
13	0	0	0	0	548	547	0	0	0	0	
14	0	0	0	0	561	571	0	44	0	0	
15	0	0	0	0	575	592	0	704	0	0	
0	0	0	0	0	587	611	0	1020	0	0	
1	0	0	0	0	596	622	0	1020	0	0	
2	0	0	0	0	603	627	0	1020	0	0	
3	0	0	0	0	607	626	0	1020	0	0	
4	0	0	0	0	606	616	0	1020	0	0	
5	0	0	0	0	602	601	0	1020	0	0	
6	0	0	0	0	595	582	0	1021	0	0	
7	0	0	0	0	584	559	0	1021	0	0	
8	0	0	0	0	572	535	0	653	0	0	
9	0	0	0	0	560	513	0	1	0	0	
10	0	0	0	0	548	495	0	0	0	0	
11	0	0	0	0	537	481	0	0	0	0	
12	0	0	0	0	530	475	0	0	0	0	
13	0	0	0	0	525	474	0	0	0	0	
14	0	0	0	0	523	481	0	0	0	0	
15	0	0	0	0	525	493	0	0	0	0	
0	0	0	0	0	530	510	0	0	0	0	
1	0	0	0	0	539	530	0	0	0	0	
2	0	0	0	0	548	551	0	0	0	0	
3	0	0	0	0	560	572	0	304	0	0	
4	0	0	0	0	572	589	0	1020	0	0	
5	0	0	0	0	583	602	0	1020	0	0	
6	0	0	0	0	592	610	0	1020	0	0	
7	0	0	0	0	599	611	0	1020	0	0	
8	0	0	0	0	601	606	0	1020	0	0	
9	0	0	0	0	601	595	0	1020	0	0	
10	0	0	0	0	598	579	0	1021	0	0	
11	0	0	0	0	590	558	0	1021	0	0	
12	0	0	0	0	580	537	0	711	0	0	
13	0	0	0	0	569	515	0	1	0	0	
14	0	0	0	0	556	497	0	0	0	0	
15	0	0	0	0	545	482	0	0	0	0	
0	0	0	0	0	536	474	0	0	0	0	
1	0	0	0	0	529	473	0	0	0	0	
2	0	0	0	0	526	479	0	0	0	0	
3	0	0	0	0	527	492	0	0	0	0	
4	0	0	0	0	532	509	0	0	0	0	
5	0	0	0	0	539	531	0	0	0	0	
6	0	0	0	0	549	553	0	0	0	0	
7	0	0	0	0	559	575	0	527	0	0	
8	0	0	0	0	569	593	0	1020	0	0	
9	0	0	0	0	578	607	0	1020	0	0	
10	0	0	0	0	585	615	0	1021	0	0	
11	0	0	0	0	588	617	0	1020	0	0	
12	0	0	0	0	589	612	0	1020	0	0	
13	0	0	0	0	585	601	0	1020	0	0	
14	0	0	0	0	580	585	0	1020	0	0	
15	0	0	0	0	571	567	0	1021	0	0	
0	0	0	0	0	561	547	0	1021	0	0	
1	0	0	0	0	551	528	0	553	0	0	
2	0	0	0	0	542	513	0	0	0	0	
3	0	0	0	0	534	502	0	0	0	0	
4	0	0	0	0	529	497	0	0	0	0	
5	0	0	0	0	527	498	0	0	0	0	
6	0	0	0	0	527	505	0	0	0	0	
7	0	0	0	0	532	517	0	0	0	0	
8	0	0	0	0	539	533	0	0	0	0	
9	0	0	0	0	547	551	0	0	0	0	
10	0	0	0	0	558	570	0	272	0	0	
11	0	0	0	0	568	588	0	1019	0	0	
12	0	0	0	0	576	601	0	1020	0	0	
13	0	0	0	0	584	611	0	1021	0	0	
14	0	0	0	0	589	615	0	1021	0	0	
15	0	0	0	0	591	611	0	1020	0	0	
0	0	0	0	0	590	602	0	1020	0	0	
1	0	0	0	0	585	588	0	1020	0	0	
2	0	0	0	0	578	570	0	1020	0	0	
3	0	0	0	0	569	549	0	1021	0	0	
4	0	0	0	0	559	528	0	1021	0	0	
5	0	0	0	0	548	509	0	787	0	0	
6	0	0	0	0	538	493	0	24	0	0	
7	0	0	0	0	531	483	0	0	0	0	
8	0	0	0	0	525	479	0	0	0	0	
9	0	0	0	0	523	481	0	0	0	0	
10	0	0	0	0	524	489	0	0	0	0	
11	0	0	0	0	527	503	0	0	0	0	
12	0	0	0	0	534	521	0	0	0	0	
13	0	0	0	0	543	541	0	0	0	0	
14	0	0	0	0	553	562	0	350	0	0	
15	0	0	0	0	564	581	0	1020	0	0	
0	0	0	0	0	574	598	0	1020	0	0	
1	0	0	0	0	583	609	0	1021	0	0	
2	0	0	0	0	589	615	0	1020	0	0	
3	0	0	0	0	593	615	0	1020	0	0	
4	0	0	0	0	593	608	0	1020	0	0	
5	0	0	0	0	590	596	0	1020	0	0	
6	0	0	0	0	584	580	0	1021	0	0	
7	0	0	0	0	576	561	0	1021	0	0	
8	0	0	0	0	566	541	0	1021	0	0	
9	0	0	0	0	556	522	0	606	0	0	
10	0	0	0	0	545	505	0	0	0	0	
11	0	0	0	0	537	493	0	0	0	0	
12	0	0	0	0	531	487	0	0	0	0	
13	0	0	0	0	527	487	0	0	0	0	
14	0	0	0	0	527	494	0	0	0	0	
15	0	0	0	0	529	505	0	0	0	0	
0	0	0	0	0	535	521	0	0	0	0	
1	0	0	0	0	543	540	0	0	0	0	
2	0	0	0	0	551	559	0	147	0	0	
3	0	0	0	0	561	576	0	869	0	0	
4	0	0	0	0	570	591	0	1020	0	0	
5	0	0	0	0	577	600	0	1021	0	0	
6	0	0	0	0	583	604	0	1021	0	0	
7	0	0	0	0	585	601	0	1020	0	0	
8	0	0	0	0	585	592	0	1020	0	0	
9	0	0	0	0	581	578	0	1020	0	0	
10	0	0	0	0	575	560	0	1020	0	0	
11	0	0	0	0	567	540	0	1021	0	0	
12	0	0	0	0	558	519	0	1021	0	0	
13	0	0	0	0	547	499	0	530	0	0	
14	0	0	0	0	538	484	0	0	0	0	
15	0	0	0	0	531	473	0	0	0	0	
0	0	0	0	0	526	470	0	0	0	0	
1	0	0	0	0	524	472	0	0	0	0	
2	0	0	0	0	525	481	0	0	0	0	
3	0	0	0	0	529	496	0	0	0	0	
4	0	0	0	0	537	514	0	0	0	0	
5	0	0	0	0	546	534	0	0	0	0	
6	0	0	0	0	557	555	0	201	0	0	
7	0	0	0	0	568	573	0	952	0	0	
8	0	0	0	0	577	588	0	1020	0	0	
9	0	0	0	0	586	597	0	1021	0	0	
10	0	0	0	0	590	600	0	1021	0	0	
11	0	0	0	0	591	596	0	1020	0	0	
12	0	0	0	0	590	587	0	1020	0	0	
13	0	0	0	0	584	572	0	1020	0	0	
14	0	0	0	0	575	553	0	1020	0	0	
15	0	0	0	0	565	533	0	1021	0	0	
0	0	0	0	0	553	512	0	1021	0	0	
1	0	0	0	0	542	493	0	871	0	0	
2	0	0	0	0	530	478	0	150	0	0	
3	0	0	0	0	521	467	0	0	0	0	
4	0	0	0	0	514	462	0	0	0	0	
5	0	0	0	0	511	463	0	0	0	0	
6	0	0	0	0	510	470	0	0	0	0	
7	0	0	0	0	513	482	0	0	0	0	
8	0	0	0	0	520	498	0	0	0	0	
9	0	0	0	0	529	517	0	0	0	0	
10	0	0	0	0	539	537	0	540	0	0	
11	0	0	0	0	550	555	0	1020	0	0	
12	0	0	0	0	560	570	0	1021	0	0	
13	0	0	0	0	569	581	0	1021	0	0	
14	0	0	0	0	575	586	0	1021	0	0	
15	0	0	0	0	579	585	0	1020	0	0	
0	0	0	0	0	578	578	0	1020	0	0	
1	0	0	0	0	575	565	0	1020	0	0	
2	0	0	0	0	569	548	0	1020	0	0	
3	0	0	0	0	560	529	0	1021	0	0	
4	0	0	0	0	550	509	0	1021	0	0	
5	0	0	0	0	540	490	0	911	0	0	
6	0	0	0	0	530	474	0	212	0	0	
7	0	0	0	0	521	463	0	0	0	0	
8	0	0	0	0	515	457	0	0	0	0	
9	0	0	0	0	512	458	0	0	0	0	
10	0	0	0	0	512	464	0	0	0	0	
11	0	0	0	0	516	476	0	0	0	0	
12	0	0	0	0	523	492	0	0	0	0	
13	0	0	0	0	532	510	0	0	0	0	
14	0	0	0	0	543	529	0	209	0	0	
15	0	0	0	0	555	547	0	962	0	0	
0	0	0	0	0	566	561	0	1020	0	0	
1	0	0	0	0	575	572	0	1020	0	0	
2	0	0	0	0	582	576	0	1020	0	0	
3	0	0	0	0	585	575	0	1020	0	0	
4	0	0	0	0	586	567	0	1020	0	0	
5	0	0	0	0	584	555	0	1020	0	0	
6	0	0	0	0	579	540	0	1021	0	0	
7	0	0	0	0	572	521	0	1021	0	0	
8	0	0	0	0	563	503	0	852	0	0	
9	0	0	0	0	553	486	0	123	0	0	
10	0	0	0	0	545	472	0	0	0	0	
11	0	0	0	0	537	463	0	0	0	0	
12	0	0	0	0	531	459	0	0	0	0	
13	0	0	0	0	528	461	0	0	0	0	
14	0	0	0	0	528	468	0	0	0	0	
15	0	0	0	0	531	480	0	0	0	0	
0	0	0	0	0	536	496	0	0	0	0	
1	0	0	0	0	544	515	0	0	0	0	
2	0	0	0	0	553	534	0	0	0	0	
3	0	0	0	0	563	551	0	263	0	0	
4	0	0	0	0	572	566	0	1019	0	0	
5	0	0	0	0	580	576	0	1020	0	0	
6	0	0	0	0	586	580	0	1020	0	0	
7	0	0	0	0	589	579	0	1020	0	0	
8	0	0	0	0	589	571	0	1020	0	0	
9	0	0	0	0	586	558	0	1021	0	0	
10	0	0	0	0	580	540	0	1020	0	0	
11	0	0	0	0	571	521	0	1021	0	0	
12	0	0	0	0	561	501	0	468	0	0	
13	0	0	0	0	550	482	0	0	0	0	
14	0	0	0	0	540	466	0	0	0	0	
15	0	0	0	0	530	455	0	0	0	0	
0	0	0	0	0	523	449	0	0	0	0	
1	0	0	0	0	518	449	0	0	0	0	
2	0	0	0	0	515	456	0	0	0	0	
3	0	0	0	0	517	467	0	0	0	0	
4	0	0	0	0	522	484	0	0	0	0	
5	0	0	0	0	529	503	0	0	0	0	
6	0	0	0	0	538	523	0	0	0	0	
7	0	0	0	0	547	542	0	335	0	0	
8	0	0	0	0	558	558	0	1020	0	0	
9	0	0	0	0	566	569	0	1020	0	0	
10	0	0	0	0	572	575	0	1021	0	0	
11	0	0	0	0	575	574	0	1020	0	0	
12	0	0	0	0	575	567	0	1020	0	0	
13	0	0	0	0	573	554	0	1020	0	0	
14	0	0	0	0	567	537	0	1020	0	0	
15	0	0	0	0	559	518	0	1021	0	0	
0	0	0	0	0	550	498	0	1021	0	0	
1	0	0	0	0	540	479	0	489	0	0	
2	0	0	0	0	531	463	0	1	0	0	
3	0	0	0	0	524	452	0	0	0	0	
4	0	0	0	0	519	447	0	0	0	0	
5	0	0	0	0	517	448	0	0	0	0	
6	0	0	0	0	519	455	0	0	0	0	
7	0	0	0	0	524	468	0	0	0	0	
8	0	0	0	0	531	486	0	0	0	0	
9	0	0	0	0	540	505	0	0	0	0	
10	0	0	0	0	551	526	0	227	0	0	
11	0	0	0	0	561	545	0	990	0	0	
12	0	0	0	0	571	561	0	1020	0	0	
13	0	0	0	0	579	573	0	1020	0	0	
14	0	0	0	0	585	580	0	1021	0	0	
15	0	0	0	0	588	579	0	1020	0	0	
0	0	0	0	0	587	573	0	1020	0	0	
1	0	0	0	0	583	560	0	1020	0	0	
2	0	0	0	0	576	543	0	1020	0	0	
3	0	0	0	0	567	523	0	1021	0	0	
4	0	0	0	0	557	502	0	1021	0	0	
5	0	0	0	0	546	482	0	847	0	0	
6	0	0	0	0	536	465	0	112	0	0	
7	0	0	0	0	527	453	0	0	0	0	
8	0	0	0	0	522	446	0	0	0	0	
9	0	0	0	0	518	446	0	0	0	0	
10	0	0	0	0	518	452	0	0	0	0	
11	0	0	0	0	521	463	0	0	0	0	
12	0	0	0	0	526	479	0	0	0	0	
13	0	0	0	0	534	499	0	0	0	0	
14	0	0	0	0	543	519	0	250	0	0	
15	0	0	0	0	552	539	0	1019	0	0	
0	0	0	0	0	561	556	0	1020	0	0	
1	0	0	0	0	569	569	0	1021	0	0	
2	0	0	0	0	575	577	0	1020	0	0	
3	0	0	0	0	579	579	0	1020	0	0	
4	0	0	0	0	579	575	0	1020	0	0	
5	0	0	0	0	577	566	0	1020	0	0	
6	0	0	0	0	572	552	0	1021	0	0	
7	0	0	0	0	565	536	0	1021	0	0	
8	0	0	0	0	556	518	0	1020	0	0	
9	0	0	0	0	547	500	0	397	0	0	
10	0	0	0	0	537	486	0	0	0	0	
11	0	0	0	0	530	474	0	0	0	0	
12	0	0	0	0	524	468	0	0	0	0	
13	0	0	0	0	519	468	0	0	0	0	
14	0	0	0	0	519	473	0	0	0	0	
15	0	0	0	0	520	483	0	0	0	0	
0	0	0	0	0	524	496	0	0	0	0	
1	0	0	0	0	530	511	0	0	0	0	
2	0	0	0	0	537	527	0	0	0	0	
3	0	0	0	0	545	541	0	541	0	0	
4	0	0	0	0	553	553	0	1020	0	0	
5	0	0	0	0	560	561	0	1020	0	0	
6	0	0	0	0	565	563	0	1021	0	0	
7	0	0	0	0	568	560	0	1020	0	0	
8	0	0	0	0	568	553	0	1020	0	0	
9	0	0	0	0	565	539	0	1020	0	0	
10	0	0	0	0	560	523	0	1020	0	0	
11	0	0	0	0	553	505	0	1021	0	0	
12	0	0	0	0	545	487	0	715	0	0	
13	0	0	0	0	537	471	0	1	0	0	
14	0	0	0	0	529	459	0	0	0	0	
15	0	0	0	0	525	451	0	0	0	0	
0	0	0	0	0	522	449	0	0	0	0	
1	0	0	0	0	522	454	0	0	0	0	
2	0	0	0	0	525	464	0	0	0	0	
3	0	0	0	0	529	479	0	0	0	0	
4	0	0	0	0	536	496	0	0	0	0	
5	0	0	0	0	543	516	0	0	0	0	
6	0	0	0	0	552	536	0	0	0	0	
7	0	0	0	0	561	553	0	188	0	0	
8	0	0	0	0	569	568	0	935	0	0	
9	0	0	0	0	576	577	0	1020	0	0	
10	0	0	0	0	581	582	0	1020	0	0	
11	0	0	0	0	583	580	0	1020	0	0	
12	0	0	0	0	582	574	0	1020	0	0	
13	0	0	0	0	578	561	0	1021	0	0	
14	0	0	0	0	572	545	0	1021	0	0	
15	0	0	0	0	564	527	0	959	0	0	
0	0	0	0	0	554	508	0	299	0	0	
1	0	0	0	0	544	489	0	0	0	0	
2	0	0	0	0	535	475	0	0	0	0	
3	0	0	0	0	527	464	0	0	0	0	
4	0	0	0	0	520	459	0	0	0	0	
5	0	0	0	0	517	460	0	0	0	0	
6	0	0	0	0	517	467	0	0	0	0	
7	0	0	0	0	519	479	0	0	0	0	
8	0	0	0	0	524	495	0	0	0	0	
9	0	0	0	0	531	513	0	0	0	0	
10	0	0	0	0	540	531	0	0	0	0	
11	0	0	0	0	548	548	0	169	0	0	
12	0	0	0	0	556	561	0	907	0	0	
13	0	0	0	0	562	571	0	1020	0	0	
14	0	0	0	0	567	576	0	1020	0	0	
15	0	0	0	0	570	575	0	1020	0	0	
0	0	0	0	0	571	569	0	1020	0	0	
1	0	0	0	0	569	558	0	1020	0	0	
2	0	0	0	0	566	543	0	1021	0	0	
3	0	0	0	0	560	526	0	1021	0	0	
4	0	0	0	0	553	508	0	701	0	0	
5	0	0	0	0	546	492	0	1	0	0	
6	0	0	0	0	538	479	0	0	0	0	
7	0	0	0	0	532	468	0	0	0	0	
8	0	0	0	0	527	464	0	0	0	0	
9	0	0	0	0	524	464	0	0	0	0	
10	0	0	0	0	522	470	0	0	0	0	
11	0	0	0	0	523	480	0	0	0	0	
12	0	0	0	0	527	494	0	0	0	0	
13	0	0	0	0	532	510	0	0	0	0	
14	0	0	0	0	538	526	0	0	0	0	
15	0	0	0	0	545	541	0	499	0	0	
0	0	0	0	0	551	554	0	1020	0	0	
1	0	0	0	0	556	562	0	1020	0	0	
2	0	0	0	0	560	565	0	1021	0	0	
3	0	0	0	0	561	562	0	1020	0	0	
4	0	0	0	0	560	553	0	1020	0	0	
5	0	0	0	0	556	540	0	1020	0	0	
6	0	0	0	0	550	523	0	1020	0	0	
7	0	0	0	0	541	504	0	1021	0	0	
8	0	0	0	0	531	484	0	1021	0	0	
9	0	0	0	0	522	466	0	479	0	0	
10	0	0	0	0	513	451	0	0	0	0	
11	0	0	0	0	507	443	0	0	0	0	
12	0	0	0	0	504	440	0	0	0	0	
13	0	0	0	0	504	444	0	0	0	0	
14	0	0	0	0	508	455	0	0	0	0	
15	0	0	0	0	515	471	0	0	0	0	
0	0	0	0	0	526	491	0	0	0	0	
1	0	0	0	0	539	514	0	0	0	0	
2	0	0	0	0	553	538	0	150	0	0	
3	0	0	0	0	568	560	0	875	0	0	
4	0	0	0	0	580	579	0	1020	0	0	
5	0	0	0	0	591	592	0	1021	0	0	
6	0	0	0	0	600	599	0	1021	0	0	
7	0	0	0	0	604	600	0	1020	0	0	
8	0	0	0	0	603	592	0	1020	0	0	
9	0	0	0	0	598	579	0	1020	0	0	
10	0	0	0	0	589	560	0	1020	0	0	
11	0	0	0	0	575	537	0	1021	0	0	
12	0	0	0	0	558	512	0	1021	0	0	
13	0	0	0	0	539	487	0	707	0	0	
14	0	0	0	0	519	462	0	1	0	0	
15	0	0	0	0	498	440	0	0	0	0	
0	0	0	0	0	478	423	0	0	0	0	
1	0	0	0	0	460	411	0	0	0	0	
2	0	0	0	0	444	404	0	0	0	0	
3	0	0	0	0	430	402	0	0	0	0	
4	0	0	0	0	420	404	0	0	0	0	
5	0	0	0	0	414	410	0	0	0	0	
6	0	0	0	0	410	417	0	359	0	0	
7	0	0	0	0	409	425	0	1020	0	0	
8	0	0	0	0	409	431	0	1020	0	0	
9	0	0	0	0	412	433	0	1021	0	0	
10	0	0	0	0	415	433	0	1021	0	0	
11	0	0	0	0	418	430	0	1020	0	0	
12	0	0	0	0	422	423	0	1020	0	0	
13	0	0	0	0	427	414	0	1020	0	0	
14	0	0	0	0	432	404	0	1020	0	0	
15	0	0	0	0	439	396	0	1021	0	0	
0	0	0	0	0	446	389	0	1021	0	0	
1	0	0	0	0	456	387	0	1021	0	0	
2	0	0	0	0	467	388	0	396	0	0	
3	0	0	0	0	481	396	0	0	0	0	
4	0	0	0	0	496	410	0	0	0	0	
5	0	0	0	0	512	430	0	0	0	0	
6	0	0	0	0	530	454	0	0	0	0	
7	0	0	0	0	547	481	0	0	0	0	
8	0	0	0	0	564	510	0	0	0	0	
9	0	0	0	0	580	539	0	0	0	0	
10	0	0	0	0	594	566	0	445	0	0	
11	0	0	0	0	606	589	0	1020	0	0	
12	0	0	0	0	615	607	0	1020	0	0	
13	0	0	0	0	622	618	0	1021	0	0	
14	0	0	0	0	624	622	0	1021	0	0	
15	0	0	0	0	622	619	0	1020	0	0	
0	0	0	0	0	617	608	0	1020	0	0	
1	0	0	0	0	608	592	0	1020	0	0	
2	0	0	0	0	596	571	0	1020	0	0	
3	0	0	0	0	583	549	0	1021	0	0	
4	0	0	0	0	569	526	0	1021	0	0	
5	0	0	0	0	554	505	0	738	0	0	
6	0	0	0	0	541	487	0	1	0	0	
7	0	0	0	0	531	475	0	0	0	0	
8	0	0	0	0	523	469	0	0	0	0	
9	0	0	0	0	519	469	0	0	0	0	
10	0	0	0	0	518	475	0	1	0	0	
11	0	0	0	0	520	486	0	0	0	0	
12	0	0	0	0	525	500	0	0	0	0	
13	0	0	0	0	532	516	0	0	0	0	
14	0	0	0	0	540	532	0	57	0	0	
15	0	0	0	0	549	547	0	723	0	0	
0	0	0	0	0	557	560	0	1020	0	0	
1	0	0	0	0	564	567	0	1020	0	0	
2	0	0	0	0	568	569	0	1021	0	0	
3	0	0	0	0	570	566	0	1020	0	0	
4	0	0	0	0	568	556	0	1020	0	0	
5	0	0	0	0	564	542	0	1020	0	0	
6	0	0	0	0	557	523	0	1021	0	0	
7	0	0	0	0	548	503	0	1021	0	0	
8	0	0	0	0	537	483	0	866	0	0	
9	0	0	0	0	527	463	0	145	0	0	
10	0	0	0	0	517	448	0	0	0	0	
11	0	0	0	0	510	438	0	0	0	0	
12	0	0	0	0	505	433	0	0	0	0	
13	0	0	0	0	504	435	0	0	0	0	
14	0	0	0	0	505	443	0	0	0	0	
15	0	0	0	0	509	455	0	0	0	0	
0	0	0	0	0	517	472	0	0	0	0	
1	0	0	0	0	526	491	0	0	0	0	
2	0	0	0	0	537	510	0	0	0	0	
3	0	0	0	0	549	528	0	433	0	0	
4	0	0	0	0	560	543	0	1020	0	0	
5	0	0	0	0	570	555	0	1020	0	0	
6	0	0	0	0	577	560	0	1021	0	0	
7	0	0	0	0	582	560	0	1020	0	0	
8	0	0	0	0	583	555	0	1020	0	0	
9	0	0	0	0	581	543	0	1020	0	0	
10	0	0	0	0	576	529	0	1021	0	0	
11	0	0	0	0	568	511	0	1021	0	0	
12	0	0	0	0	557	493	0	1001	0	0	
13	0	0	0	0	546	475	0	364	0	0	
14	0	0	0	0	534	461	0	0	0	0	
15	0	0	0	0	524	450	0	0	0	0	
0	0	0	0	0	516	445	0	0	0	0	
1	0	0	0	0	511	446	0	0	0	0	
2	0	0	0	0	508	452	0	0	0	0	
3	0	0	0	0	509	464	0	0	0	0	
4	0	0	0	0	514	481	0	0	0	0	
5	0	0	0	0	521	500	0	0	0	0	
6	0	0	0	0	531	519	0	3	0	0	
7	0	0	0	0	542	539	0	639	0	0	
8	0	0	0	0	552	555	0	1020	0	0	
9	0	0	0	0	563	567	0	1020	0	0	
10	0	0	0	0	571	574	0	1021	0	0	
11	0	0	0	0	577	574	0	1020	0	0	
12	0	0	0	0	579	569	0	1020	0	0	
13	0	0	0	0	579	558	0	1020	0	0	
14	0	0	0	0	575	543	0	1021	0	0	
15	0	0	0	0	568	524	0	1021	0	0	
0	0	0	0	0	559	505	0	887	0	0	
1	0	0	0	0	549	487	0	177	0	0	
2	0	0	0	0	539	472	0	0	0	0	
3	0	0	0	0	529	460	0	0	0	0	
4	0	0	0	0	522	455	0	0	0	0	
5	0	0	0	0	517	455	0	0	0	0	
6	0	0	0	0	515	460	0	0	0	0	
7	0	0	0	0	516	471	0	0	0	0	
8	0	0	0	0	521	485	0	0	0	0	
9	0	0	0	0	527	502	0	0	0	0	
10	0	0	0	0	536	519	0	0	0	0	
11	0	0	0	0	545	535	0	239	0	0	
12	0	0	0	0	553	549	0	1009	0	0	
13	0	0	0	0	561	558	0	1020	0	0	
14	0	0	0	0	567	561	0	1020	0	0	
15	0	0	0	0	570	559	0	1020	0	0	
0	0	0	0	0	571	551	0	1020	0	0	
1	0	0	0	0	569	539	0	1020	0	0	
2	0	0	0	0	565	523	0	1021	0	0	
3	0	0	0	0	560	506	0	952	0	0	
4	0	0	0	0	553	489	0	286	0	0	
5	0	0	0	0	545	474	0	0	0	0	
6	0	0	0	0	538	463	0	0	0	0	
7	0	0	0	0	532	455	0	0	0	0	
8	0	0	0	0	528	454	0	0	0	0	
9	0	0	0	0	526	457	0	0	0	0	
10	0	0	0	0	526	466	0	0	0	0	
11	0	0	0	0	527	480	0	0	0	0	
12	0	0	0	0	533	496	0	0	0	0	
13	0	0	0	0	539	514	0	0	0	0	
14	0	0	0	0	546	532	0	0	0	0	
15	0	0	0	0	553	548	0	40	0	0	
0	0	0	0	0	561	561	0	700	0	0	
1	0	0	0	0	567	569	0	1020	0	0	
2	0	0	0	0	570	571	0	1020	0	0	
3	0	0	0	0	571	568	0	1020	0	0	
4	0	0	0	0	569	558	0	1020	0	0	
5	0	0	0	0	564	543	0	1020	0	0	
6	0	0	0	0	557	524	0	1021	0	0	
7	0	0	0	0	546	504	0	982	0	0	
8	0	0	0	0	535	483	0	338	0	0	
9	0	0	0	0	522	464	0	0	0	0	
10	0	0	0	0	510	448	0	0	0	0	
11	0	0	0	0	500	437	0	0	0	0	
12	0	0	0	0	491	431	0	0	0	0	
13	0	0	0	0	486	432	0	0	0	0	
14	0	0	0	0	483	438	0	0	0	0	
15	0	0	0	0	485	451	0	0	0	0	
0	0	0	0	0	491	466	0	0	0	0	
1	0	0	0	0	499	486	0	0	0	0	
2	0	0	0	0	509	505	0	0	0	0	
3	0	0	0	0	520	526	0	133	0	0	
4	0	0	0	0	531	542	0	850	0	0	
5	0	0	0	0	542	555	0	1020	0	0	
6	0	0	0	0	550	562	0	1020	0	0	
7	0	0	0	0	555	563	0	1020	0	0	
8	0	0	0	0	557	558	0	1020	0	0	
9	0	0	0	0	556	548	0	1020	0	0	
10	0	0	0	0	551	534	0	1021	0	0	
11	0	0	0	0	544	517	0	970	0	0	
12	0	0	0	0	536	499	0	318	0	0	
13	0	0	0	0	526	483	0	0	0	0	
14	0	0	0	0	517	468	0	0	0	0	
15	0	0	0	0	509	458	0	0	0	0	
0	0	0	0	0	503	453	0	0	0	0	
1	0	0	0	0	499	453	0	0	0	0	
2	0	0	0	0	499	459	0	0	0	0	
3	0	0	0	0	501	470	0	0	0	0	
4	0	0	0	0	507	484	0	0	0	0	
5	0	0	0	0	515	501	0	0	0	0	
6	0	0	0	0	525	519	0	0	0	0	
7	0	0	0	0	535	536	0	19	0	0	
8	0	0	0	0	545	550	0	664	0	0	
9	0	0	0	0	554	560	0	1020	0	0	
10	0	0	0	0	560	564	0	1020	0	0	
11	0	0	0	0	564	563	0	1020	0	0	
12	0	0	0	0	565	556	0	1020	0	0	
13	0	0	0	0	562	543	0	1021	0	0	
14	0	0	0	0	556	527	0	1020	0	0	
15	0	0	0	0	547	509	0	850	0	0	
0	0	0	0	0	535	488	0	126	0	0	
1	0	0	0	0	522	470	0	0	0	0	
2	0	0	0	0	510	454	0	0	0	0	
3	0	0	0	0	499	443	0	0	0	0	
4	0	0	0	0	489	436	0	0	0	0	
5	0	0	0	0	483	436	0	0	0	0	
6	0	0	0	0	480	442	0	0	0	0	
7	0	0	0	0	481	454	0	0	0	0	
8	0	0	0	0	486	470	0	0	0	0	
9	0	0	0	0	493	488	0	0	0	0	
10	0	0	0	0	503	508	0	0	0	0	
11	0	0	0	0	513	527	0	107	0	0	
12	0	0	0	0	525	543	0	809	0	0	
13	0	0	0	0	535	555	0	1020	0	0	
14	0	0	0	0	543	560	0	1020	0	0	
15	0	0	0	0	548	560	0	1020	0	0	
0	0	0	0	0	550	554	0	1020	0	0	
1	0	0	0	0	548	542	0	1020	0	0	
2	0	0	0	0	543	525	0	1020	0	0	
3	0	0	0	0	536	506	0	1021	0	0	
4	0	0	0	0	526	487	0	668	0	0	
5	0	0	0	0	515	467	0	1	0	0	
6	0	0	0	0	504	452	0	0	0	0	
7	0	0	0	0	494	440	0	0	0	0	
8	0	0	0	0	485	434	0	0	0	0	
9	0	0	0	0	479	434	0	0	0	0	
10	0	0	0	0	475	439	0	0	0	0	
11	0	0	0	0	475	450	0	0	0	0	
12	0	0	0	0	479	465	0	0	0	0	
13	0	0	0	0	485	483	0	0	0	0	
14	0	0	0	0	493	501	0	0	0	0	
15	0	0	0	0	503	519	0	426	0	0	
0	0	0	0	0	513	534	0	1020	0	0	
1	0	0	0	0	523	544	0	1020	0	0	
2	0	0	0	0	531	549	0	1021	0	0	
3	0	0	0	0	536	548	0	1020	0	0	
4	0	0	0	0	538	541	0	1020	0	0	
5	0	0	0	0	538	529	0	1020	0	0	
6	0	0	0	0	534	512	0	1020	0	0	
7	0	0	0	0	527	494	0	1021	0	0	
8	0	0	0	0	517	473	0	891	0	0	
9	0	0	0	0	507	454	0	185	0	0	
10	0	0	0	0	496	438	0	0	0	0	
11	0	0	0	0	486	425	0	0	0	0	
12	0	0	0	0	477	419	0	0	0	0	
13	0	0	0	0	472	418	0	0	0	0	
14	0	0	0	0	469	423	0	0	0	0	
15	0	0	0	0	469	435	0	0	0	0	
0	0	0	0	0	473	450	0	0	0	0	
1	0	0	0	0	480	468	0	0	0	0	
2	0	0	0	0	488	487	0	0	0	0	
3	0	0	0	0	498	506	0	223	0	0	
4	0	0	0	0	507	522	0	986	0	0	
5	0	0	0	0	516	534	0	1020	0	0	
6	0	0	0	0	524	541	0	1020	0	0	
7	0	0	0	0	529	542	0	1020	0	0	
8	0	0	0	0	532	537	0	1020	0	0	
9	0	0	0	0	531	528	0	1021	0	0	
10	0	0	0	0	529	514	0	1021	0	0	
11	0	0	0	0	524	498	0	601	0	0	
12	0	0	0	0	517	481	0	1	0	0	
13	0	0	0	0	509	465	0	0	0	0	
14	0	0	0	0	502	452	0	0	0	0	
15	0	0	0	0	495	443	0	0	0	0	
0	0	0	0	0	489	438	0	0	0	0	
1	0	0	0	0	487	440	0	0	0	0	
2	0	0	0	0	486	446	0	0	0	0	
3	0	0	0	0	489	458	0	0	0	0	
4	0	0	0	0	495	474	0	0	0	0	
5	0	0	0	0	502	492	0	0	0	0	
6	0	0	0	0	511	511	0	0	0	0	
7	0	0	0	0	520	528	0	0	0	0	
8	0	0	0	0	529	543	0	330	0	0	
9	0	0	0	0	536	553	0	1019	0	0	
10	0	0	0	0	543	558	0	1020	0	0	
11	0	0	0	0	545	557	0	1020	0	0	
12	0	0	0	0	545	550	0	1020	0	0	
13	0	0	0	0	542	538	0	1021	0	0	
14	0	0	0	0	536	523	0	1021	0	0	
15	0	0	0	0	529	505	0	518	0	0	
0	0	0	0	0	520	488	0	0	0	0	
1	0	0	0	0	512	473	0	0	0	0	
2	0	0	0	0	505	461	0	0	0	0	
3	0	0	0	0	500	454	0	0	0	0	
4	0	0	0	0	497	453	0	0	0	0	
5	0	0	0	0	498	458	0	0	0	0	
6	0	0	0	0	502	469	0	0	0	0	
7	0	0	0	0	508	485	0	0	0	0	
8	0	0	0	0	518	504	0	0	0	0	
9	0	0	0	0	528	524	0	0	0	0	
10	0	0	0	0	540	544	0	0	0	0	
11	0	0	0	0	551	562	0	188	0	0	
12	0	0	0	0	560	576	0	935	0	0	
13	0	0	0	0	569	584	0	1020	0	0	
14	0	0	0	0	574	587	0	1021	0	0	
15	0	0	0	0	576	583	0	1020	0	0	
0	0	0	0	0	575	574	0	1020	0	0	
1	0	0	0	0	569	559	0	1020	0	0	
2	0	0	0	0	562	540	0	1020	0	0	
3	0	0	0	0	553	520	0	1021	0	0	
4	0	0	0	0	543	500	0	1021	0	0	
5	0	0	0	0	532	482	0	773	0	0	
6	0	0	0	0	523	467	0	6	0	0	
7	0	0	0	0	516	458	0	0	0	0	
8	0	0	0	0	511	455	0	0	0	0	
9	0	0	0	0	510	459	0	0	0	0	
10	0	0	0	0	511	467	0	0	0	0	
11	0	0	0	0	514	482	0	0	0	0	
12	0	0	0	0	521	499	0	0	0	0	
13	0	0	0	0	529	519	0	13	0	0	
14	0	0	0	0	537	539	0	646	0	0	
15	0	0	0	0	544	556	0	1020	0	0	
0	0	0	0	0	551	569	0	1020	0	0	
1	0	0	0	0	556	577	0	1021	0	0	
2	0	0	0	0	558	580	0	1021	0	0	
3	0	0	0	0	558	577	0	1020	0	0	
4	0	0	0	0	554	568	0	1020	0	0	
5	0	0	0	0	548	554	0	1020	0	0	
6	0	0	0	0	542	537	0	1020	0	0	
7	0	0	0	0	533	518	0	1021	0	0	
8	0	0	0	0	524	499	0	1021	0	0	
9	0	0	0	0	515	481	0	1021	0	0	
10	0	0	0	0	507	467	0	942	0	0	
11	0	0	0	0	502	459	0	264	0	0	
12	0	0	0	0	499	455	0	0	0	0	
13	0	0	0	0	498	457	0	0	0	0	
14	0	0	0	0	500	465	0	0	0	0	
15	0	0	0	0	505	479	0	0	0	0	
0	0	0	0	0	513	495	0	0	0	0	
1	0	0	0	0	523	514	0	600	0	0	
2	0	0	0	0	533	533	0	1020	0	0	
3	0	0	0	0	543	550	0	1020	0	0	
4	0	0	0	0	552	565	0	1021	0	0	
5	0	0	0	0	560	575	0	1021	0	0	
6	0	0	0	0	565	579	0	1021	0	0	
7	0	0	0	0	568	577	0	1021	0	0	
8	0	0	0	0	567	570	0	1020	0	0	
9	0	0	0	0	563	557	0	1020	0	0	
10	0	0	0	0	557	540	0	1020	0	0	
11	0	0	0	0	548	521	0	1021	0	0	
12	0	0	0	0	539	501	0	1021	0	0	
13	0	0	0	0	528	482	0	1021	0	0	
14	0	0	0	0	519	466	0	939	0	0	
15	0	0	0	0	510	455	0	256	0	0	
0	0	0	0	0	504	449	0	0	0	0	
1	0	0	0	0	502	451	0	0	0	0	
2	0	0	0	0	502	458	0	0	0	0	
3	0	0	0	0	505	471	0	0	0	0	
4	0	0	0	0	511	487	0	0	0	0	
5	0	0	0	0	519	506	0	265	0	0	
6	0	0	0	0	529	526	0	1019	0	0	
7	0	0	0	0	538	544	0	1020	0	0	
8	0	0	0	0	546	560	0	1021	0	0	
9	0	0	0	0	553	570	0	1021	0	0	
10	0	0	0	0	556	574	0	1021	0	0	
11	0	0	0	0	557	573	0	1020	0	0	
12	0	0	0	0	555	565	0	1020	0	0	
13	0	0	0	0	549	551	0	1020	0	0	
14	0	0	0	0	540	535	0	1020	0	0	
15	0	0	0	0	530	515	0	1021	0	0	
0	0	0	0	0	519	496	0	1021	0	0	
1	0	0	0	0	508	478	0	1021	0	0	
2	0	0	0	0	497	463	0	710	0	0	
3	0	0	0	0	490	454	0	1	0	0	
4	0	0	0	0	485	451	0	0	0	0	
5	0	0	0	0	483	455	0	0	0	0	
6	0	0	0	0	486	464	0	0	0	0	
7	0	0	0	0	491	478	0	0	0	0	
8	0	0	0	0	499	496	0	0	0	0	
9	0	0	0	0	509	516	0	102	0	0	
10	0	0	0	0	521	536	0	791	0	0	
11	0	0	0	0	533	555	0	1020	0	0	
12	0	0	0	0	543	569	0	1021	0	0	
13	0	0	0	0	553	579	0	1021	0	0	
14	0	0	0	0	560	584	0	1021	0	0	
15	0	0	0	0	563	582	0	1020	0	0	
0	0	0	0	0	564	575	0	1020	0	0	
1	0	0	0	0	561	563	0	1020	0	0	
2	0	0	0	0	556	546	0	1020	0	0	
3	0	0	0	0	547	528	0	1021	0	0	
4	0	0	0	0	537	509	0	1021	0	0	
5	0	0	0	0	527	491	0	1021	0	0	
6	0	0	0	0	516	476	0	411	0	0	
7	0	0	0	0	507	466	0	0	0	0	
8	0	0	0	0	499	461	0	0	0	0	
9	0	0	0	0	495	462	0	0	0	0	
10	0	0	0	0	493	468	0	0	0	0	
11	0	0	0	0	494	480	0	0	0	0	
12	0	0	0	0	497	495	0	0	0	0	
13	0	0	0	0	504	512	0	0	0	0	
14	0	0	0	0	511	530	0	239	0	0	
15	0	0	0	0	519	546	0	1006	0	0	
0	0	0	0	0	526	558	0	1020	0	0	
1	0	0	0	0	532	566	0	1021	0	0	
2	0	0	0	0	536	568	0	1020	0	0	
3	0	0	0	0	536	564	0	1020	0	0	
4	0	0	0	0	535	554	0	1020	0	0	
5	0	0	0	0	529	539	0	1020	0	0	
6	0	0	0	0	523	521	0	1021	0	0	
7	0	0	0	0	515	501	0	1021	0	0	
8	0	0	0	0	505	481	0	866	0	0	
9	0	0	0	0	496	462	0	144	0	0	
10	0	0	0	0	487	448	0	0	0	0	
11	0	0	0	0	482	439	0	0	0	0	
12	0	0	0	0	480	435	0	0	0	0	
13	0	0	0	0	481	439	0	0	0	0	
14	0	0	0	0	487	450	0	0	0	0	
15	0	0	0	0	495	466	0	0	0	0	
0	0	0	0	0	508	487	0	0	0	0	
1	0	0	0	0	521	510	0	0	0	0	
2	0	0	0	0	536	533	0	0	0	0	
3	0	0	0	0	550	555	0	123	0	0	
4	0	0	0	0	563	573	0	834	0	0	
5	0	0	0	0	572	585	0	1020	0	0	
6	0	0	0	0	578	591	0	1020	0	0	
7	0	0	0	0	579	591	0	1020	0	0	
8	0	0	0	0	576	583	0	1020	0	0	
9	0	0	0	0	568	569	0	1021	0	0	
10	0	0	0	0	558	551	0	1021	0	0	
11	0	0	0	0	544	529	0	750	0	0	
12	0	0	0	0	529	506	0	1	0	0	
13	0	0	0	0	514	485	0	0	0	0	
14	0	0	0	0	499	467	0	0	0	0	
15	0	0	0	0	487	454	0	0	0	0	
0	0	0	0	0	478	447	0	0	0	0	
1	0	0	0	0	472	446	0	0	0	0	
2	0	0	0	0	470	452	0	0	0	0	
3	0	0	0	0	472	463	0	0	0	0	
4	0	0	0	0	479	480	0	0	0	0	
5	0	0	0	0	489	499	0	0	0	0	
6	0	0	0	0	501	520	0	0	0	0	
7	0	0	0	0	514	540	0	0	0	0	
8	0	0	0	0	526	557	0	311	0	0	
9	0	0	0	0	537	568	0	1019	0	0	
10	0	0	0	0	547	575	0	1020	0	0	
11	0	0	0	0	553	574	0	1020	0	0	
12	0	0	0	0	556	568	0	1020	0	0	
13	0	0	0	0	555	556	0	1021	0	0	
14	0	0	0	0	552	540	0	889	0	0	
15	0	0	0	0	546	521	0	200	0	0	
0	0	0	0	0	539	502	0	0	0	0	
1	0	0	0	0	531	483	0	0	0	0	
2	0	0	0	0	523	468	0	0	0	0	
3	0	0	0	0	518	457	0	0	0	0	
4	0	0	0	0	513	452	0	0	0	0	
5	0	0	0	0	511	453	0	0	0	0	
6	0	0	0	0	511	459	0	0	0	0	
7	0	0	0	0	515	470	0	0	0	0	
8	0	0	0	0	520	485	0	0	0	0	
9	0	0	0	0	528	503	0	0	0	0	
10	0	0	0	0	537	520	0	0	0	0	
11	0	0	0	0	547	537	0	0	0	0	
12	0	0	0	0	556	550	0	137	0	0	
13	0	0	0	0	564	558	0	851	0	0	
14	0	0	0	0	569	560	0	1020	0	0	
15	0	0	0	0	572	555	0	1020	0	0	
0	0	0	0	0	571	544	0	1020	0	0	
1	0	0	0	0	566	529	0	1021	0	0	
2	0	0	0	0	560	510	0	954	0	0	
3	0	0	0	0	551	488	0	311	0	0	
4	0	0	0	0	540	467	0	0	0	0	
5	0	0	0	0	530	448	0	0	0	0	
6	0	0	0	0	520	433	0	0	0	0	
7	0	0	0	0	513	423	0	0	0	0	
8	0	0	0	0	508	419	0	0	0	0	
9	0	0	0	0	505	421	0	0	0	0	
10	0	0	0	0	507	430	0	0	0	0	
11	0	0	0	0	510	444	0	0	0	0	
12	0	0	0	0	516	461	0	0	0	0	
13	0	0	0	0	524	481	0	0	0	0	
14	0	0	0	0	534	502	0	0	0	0	
15	0	0	0	0	544	521	0	0	0	0	
0	0	0	0	0	553	538	0	357	0	0	
1	0	0	0	0	561	549	0	1020	0	0	
2	0	0	0	0	567	554	0	1020	0	0	
3	0	0	0	0	569	553	0	1020	0	0	
4	0	0	0	0	569	547	0	1020	0	0	
5	0	0	0	0	566	535	0	1020	0	0	
6	0	0	0	0	560	519	0	1021	0	0	
7	0	0	0	0	552	502	0	825	0	0	
8	0	0	0	0	543	485	0	91	0	0	
9	0	0	0	0	534	468	0	0	0	0	
10	0	0	0	0	524	456	0	0	0	0	
11	0	0	0	0	518	448	0	0	0	0	
12	0	0	0	0	512	445	0	0	0	0	
13	0	0	0	0	510	448	0	0	0	0	
14	0	0	0	0	511	455	0	0	0	0	
15	0	0	0	0	513	468	0	0	0	0	
0	0	0	0	0	518	483	0	0	0	0	
1	0	0	0	0	525	501	0	0	0	0	
2	0	0	0	0	533	518	0	0	0	0	
3	0	0	0	0	540	534	0	0	0	0	
4	0	0	0	0	549	546	0	504	0	0	
5	0	0	0	0	556	555	0	1020	0	0	
6	0	0	0	0	561	558	0	1020	0	0	
7	0	0	0	0	564	556	0	1020	0	0	
8	0	0	0	0	564	548	0	1020	0	0	
9	0	0	0	0	563	536	0	1021	0	0	
10	0	0	0	0	559	520	0	988	0	0	
11	0	0	0	0	553	503	0	361	0	0	
12	0	0	0	0	545	485	0	0	0	0	
13	0	0	0	0	537	468	0	0	0	0	
14	0	0	0	0	529	454	0	0	0	0	
15	0	0	0	0	522	444	0	0	0	0	
0	0	0	0	0	517	440	0	0	0	0	
1	0	0	0	0	514	440	0	0	0	0	
2	0	0	0	0	513	447	0	0	0	0	
3	0	0	0	0	516	458	0	0	0	0	
4	0	0	0	0	520	472	0	0	0	0	
5	0	0	0	0	527	489	0	0	0	0	
6	0	0	0	0	535	505	0	0	0	0	
7	0	0	0	0	542	521	0	0	0	0	
8	0	0	0	0	550	534	0	109	0	0	
9	0	0	0	0	556	542	0	787	0	0	
10	0	0	0	0	560	544	0	1020	0	0	
11	0	0	0	0	561	540	0	1020	0	0	
12	0	0	0	0	560	531	0	1020	0	0	
13	0	0	0	0	554	516	0	1021	0	0	
14	0	0	0	0	547	497	0	611	0	0	
15	0	0	0	0	538	476	0	0	0	0	
0	0	0	0	0	528	455	0	0	0	0	
1	0	0	0	0	517	435	0	0	0	0	
2	0	0	0	0	508	418	0	0	0	0	
3	0	0	0	0	500	407	0	0	0	0	
4	0	0	0	0	495	402	0	0	0	0	
5	0	0	0	0	493	403	0	0	0	0	
6	0	0	0	0	495	412	0	0	0	0	
7	0	0	0	0	500	425	0	0	0	0	
8	0	0	0	0	509	445	0	0	0	0	
9	0	0	0	0	520	467	0	0	0	0	
10	0	0	0	0	534	491	0	0	0	0	
11	0	0	0	0	548	514	0	0	0	0	
12	0	0	0	0	561	534	0	304	0	0	
13	0	0	0	0	574	550	0	1019	0	0	
14	0	0	0	0	583	559	0	1020	0	0	
15	0	0	0	0	588	562	0	1020	0	0	
0	0	0	0	0	590	558	0	1020	0	0	
1	0	0	0	0	587	548	0	1020	0	0	
2	0	0	0	0	581	533	0	1021	0	0	
3	0	0	0	0	572	515	0	934	0	0	
4	0	0	0	0	560	495	0	263	0	0	
5	0	0	0	0	548	476	0	0	0	0	
6	0	0	0	0	535	459	0	0	0	0	
7	0	0	0	0	524	445	0	0	0	0	
8	0	0	0	0	515	438	0	0	0	0	
9	0	0	0	0	508	436	0	0	0	0	
10	0	0	0	0	505	440	0	0	0	0	
11	0	0	0	0	507	450	0	0	0	0	
12	0	0	0	0	511	465	0	0	0	0	
13	0	0	0	0	519	482	0	0	0	0	
14	0	0	0	0	528	500	0	0	0	0	
15	0	0	0	0	539	518	0	400	0	0	
0	0	0	0	0	550	533	0	1020	0	0	
1	0	0	0	0	559	544	0	1020	0	0	
2	0	0	0	0	566	549	0	1021	0	0	
3	0	0	0	0	571	549	0	1020	0	0	
4	0	0	0	0	572	542	0	1020	0	0	
5	0	0	0	0	570	531	0	1020	0	0	
6	0	0	0	0	564	516	0	1020	0	0	
7	0	0	0	0	557	499	0	1021	0	0	
8	0	0	0	0	547	480	0	1021	0	0	
9	0	0	0	0	535	463	0	620	0	0	
10	0	0	0	0	524	449	0	0	0	0	
11	0	0	0	0	513	440	0	0	0	0	
12	0	0	0	0	504	435	0	0	0	0	
13	0	0	0	0	498	438	0	0	0	0	
14	0	0	0	0	496	446	0	0	0	0	
15	0	0	0	0	497	459	0	0	0	0	
0	0	0	0	0	501	476	0	0	0	0	
1	0	0	0	0	508	496	0	0	0	0	
2	0	0	0	0	517	516	0	146	0	0	
3	0	0	0	0	527	536	0	868	0	0	
4	0	0	0	0	539	551	0	1020	0	0	
5	0	0	0	0	548	563	0	1021	0	0	
6	0	0	0	0	556	568	0	1021	0	0	
7	0	0	0	0	560	568	0	1020	0	0	
8	0	0	0	0	562	561	0	1020	0	0	
9	0	0	0	0	560	548	0	1020	0	0	
10	0	0	0	0	556	531	0	1020	0	0	
11	0	0	0	0	548	512	0	1021	0	0	
12	0	0	0	0	540	492	0	1021	0	0	
13	0	0	0	0	530	472	0	418	0	0	
14	0	0	0	0	520	456	0	0	0	0	
15	0	0	0	0	512	444	0	0	0	0	
0	0	0	0	0	506	438	0	0	0	0	
1	0	0	0	0	502	437	0	0	0	0	
2	0	0	0	0	501	442	0	0	0	0	
3	0	0	0	0	503	452	0	0	0	0	
4	0	0	0	0	508	466	0	0	0	0	
5	0	0	0	0	515	483	0	0	0	0	
6	0	0	0	0	524	500	0	0	0	0	
7	0	0	0	0	533	517	0	529	0	0	
8	0	0	0	0	543	531	0	1020	0	0	
9	0	0	0	0	551	542	0	1020	0	0	
10	0	0	0	0	559	546	0	1020	0	0	
11	0	0	0	0	563	546	0	1020	0	0	
12	0	0	0	0	563	539	0	1020	0	0	
13	0	0	0	0	561	527	0	1020	0	0	
14	0	0	0	0	556	511	0	1020	0	0	
15	0	0	0	0	548	492	0	1021	0	0	
0	0	0	0	0	539	473	0	879	0	0	
1	0	0	0	0	528	455	0	166	0	0	
2	0	0	0	0	518	440	0	0	0	0	
3	0	0	0	0	510	430	0	0	0	0	
4	0	0	0	0	504	425	0	0	0	0	
5	0	0	0	0	502	427	0	0	0	0	
6	0	0	0	0	502	434	0	0	0	0	
7	0	0	0	0	505	448	0	0	0	0	
8	0	0	0	0	511	466	0	0	0	0	
9	0	0	0	0	520	487	0	0	0	0	
10	0	0	0	0	529	508	0	0	0	0	
11	0	0	0	0	539	528	0	430	0	0	
12	0	0	0	0	549	545	0	1020	0	0	
13	0	0	0	0	557	558	0	1020	0	0	
14	0	0	0	0	563	564	0	1021	0	0	
15	0	0	0	0	566	563	0	1020	0	0	
0	0	0	0	0	565	556	0	1020	0	0	
1	0	0	0	0	563	544	0	1020	0	0	
2	0	0	0	0	557	527	0	1020	0	0	
3	0	0	0	0	549	508	0	1021	0	0	
4	0	0	0	0	539	487	0	928	0	0	
5	0	0	0	0	528	467	0	243	0	0	
6	0	0	0	0	517	449	0	0	0	0	
7	0	0	0	0	508	436	0	0	0	0	
8	0	0	0	0	500	428	0	0	0	0	
9	0	0	0	0	495	426	0	0	0	0	
10	0	0	0	0	492	430	0	0	0	0	
11	0	0	0	0	492	440	0	0	0	0	
12	0	0	0	0	496	454	0	0	0	0	
13	0	0	0	0	503	471	0	0	0	0	
14	0	0	0	0	511	489	0	0	0	0	
15	0	0	0	0	521	508	0	504	0	0	
0	0	0	0	0	531	523	0	1020	0	0	
1	0	0	0	0	541	535	0	1020	0	0	
2	0	0	0	0	549	542	0	1020	0	0	
3	0	0	0	0	555	543	0	1020	0	0	
4	0	0	0	0	559	539	0	1020	0	0	
5	0	0	0	0	560	529	0	1020	0	0	
6	0	0	0	0	557	515	0	1020	0	0	
7	0	0	0	0	553	498	0	1021	0	0	
8	0	0	0	0	545	480	0	847	0	0	
9	0	0	0	0	537	464	0	115	0	0	
10	0	0	0	0	529	449	0	0	0	0	
11	0	0	0	0	521	437	0	0	0	0	
12	0	0	0	0	514	431	0	0	0	0	
13	0	0	0	0	508	430	0	0	0	0	
14	0	0	0	0	505	434	0	0	0	0	
15	0	0	0	0	504	444	0	0	0	0	
0	0	0	0	0	505	456	0	0	0	0	
1	0	0	0	0	509	472	0	0	0	0	
2	0	0	0	0	514	487	0	0	0	0	
3	0	0	0	0	519	502	0	511	0	0	
4	0	0	0	0	526	515	0	1020	0	0	
5	0	0	0	0	532	524	0	1020	0	0	
6	0	0	0	0	536	527	0	1021	0	0	
7	0	0	0	0	539	524	0	1020	0	0	
8	0	0	0	0	539	516	0	1020	0	0	
9	0	0	0	0	538	504	0	1020	0	0	
10	0	0	0	0	535	487	0	1021	0	0	
11	0	0	0	0	530	470	0	1021	0	0	
12	0	0	0	0	524	452	0	1021	0	0	
13	0	0	0	0	518	435	0	499	0	0	
14	0	0	0	0	511	422	0	0	0	0	
15	0	0	0	0	508	413	0	0	0	0	
0	0	0	0	0	505	411	0	0	0	0	
1	0	0	0	0	504	414	0	0	0	0	
2	0	0	0	0	506	423	0	0	0	0	
3	0	0	0	0	511	437	0	0	0	0	
4	0	0	0	0	517	455	0	0	0	0	
5	0	0	0	0	526	476	0	0	0	0	
6	0	0	0	0	534	496	0	68	0	0	
7	0	0	0	0	543	516	0	744	0	0	
8	0	0	0	0	551	532	0	1020	0	0	
9	0	0	0	0	558	543	0	1021	0	0	
10	0	0	0	0	562	549	0	1021	0	0	
11	0	0	0	0	564	548	0	1020	0	0	
12	0	0	0	0	564	542	0	1020	0	0	
13	0	0	0	0	562	531	0	1020	0	0	
14	0	0	0	0	557	515	0	1020	0	0	
15	0	0	0	0	550	496	0	1021	0	0	
0	0	0	0	0	542	477	0	1021	0	0	
1	0	0	0	0	532	459	0	527	0	0	
2	0	0	0	0	523	442	0	0	0	0	
3	0	0	0	0	515	431	0	0	0	0	
4	0	0	0	0	508	424	0	0	0	0	
5	0	0	0	0	503	423	0	0	0	0	
6	0	0	0	0	501	428	0	1	0	0	
7	0	0	0	0	502	439	0	0	0	0	
8	0	0	0	0	506	454	0	0	0	0	
9	0	0	0	0	512	472	0	0	0	0	
10	0	0	0	0	520	491	0	70	0	0	
11	0	0	0	0	530	509	0	746	0	0	
12	0	0	0	0	539	526	0	1020	0	0	
13	0	0	0	0	548	538	0	1020	0	0	
14	0	0	0	0	555	545	0	1021	0	0	
15	0	0	0	0	560	546	0	1020	0	0	
0	0	0	0	0	562	542	0	1020	0	0	
1	0	0	0	0	561	533	0	1020	0	0	
2	0	0	0	0	558	519	0	1021	0	0	
3	0	0	0	0	552	504	0	1021	0	0	
4	0	0	0	0	545	487	0	1021	0	0	
5	0	0	0	0	537	471	0	597	0	0	
6	0	0	0	0	527	457	0	1	0	0	
7	0	0	0	0	520	448	0	0	0	0	
8	0	0	0	0	514	443	0	0	0	0	
9	0	0	0	0	510	443	0	0	0	0	
10	0	0	0	0	509	449	0	0	0	0	
11	0	0	0	0	511	460	0	0	0	0	
12	0	0	0	0	515	475	0	0	0	0	
13	0	0	0	0	522	493	0	0	0	0	
14	0	0	0	0	531	511	0	56	0	0	
15	0	0	0	0	540	528	0	722	0	0	
0	0	0	0	0	549	542	0	1020	0	0	
1	0	0	0	0	557	552	0	1020	0	0	
2	0	0	0	0	563	557	0	1021	0	0	
3	0	0	0	0	566	556	0	1020	0	0	
4	0	0	0	0	566	549	0	1020	0	0	
5	0	0	0	0	562	537	0	1020	0	0	
6	0	0	0	0	556	522	0	1021	0	0	
7	0	0	0	0	547	504	0	1021	0	0	
8	0	0	0	0	537	485	0	1020	0	0	
9	0	0	0	0	525	467	0	403	0	0	
10	0	0	0	0	514	453	0	0	0	0	
11	0	0	0	0	505	442	0	0	0	0	
12	0	0	0	0	497	438	0	0	0	0	
13	0	0	0	0	492	439	0	0	0	0	
14	0	0	0	0	491	446	0	0	0	0	
15	0	0	0	0	493	457	0	0	0	0	
0	0	0	0	0	498	474	0	0	0	0	
1	0	0	0	0	506	493	0	0	0	0	
2	0	0	0	0	516	513	0	0	0	0	
3	0	0	0	0	527	531	0	468	0	0	
4	0	0	0	0	538	548	0	1020	0	0	
5	0	0	0	0	548	560	0	1020	0	0	
6	0	0	0	0	556	566	0	1020	0	0	
7	0	0	0	0	561	567	0	1020	0	0	
8	0	0	0	0	564	561	0	1020	0	0	
9	0	0	0	0	563	551	0	1020	0	0	
10	0	0	0	0	560	536	0	1021	0	0	
11	0	0	0	0	553	519	0	1021	0	0	
12	0	0	0	0	546	502	0	807	0	0	
13	0	0	0	0	537	485	0	54	0	0	
14	0	0	0	0	529	471	0	0	0	0	
15	0	0	0	0	521	462	0	0	0	0	
0	0	0	0	0	516	457	0	0	0	0	
1	0	0	0	0	513	459	0	0	0	0	
2	0	0	0	0	512	465	0	0	0	0	
3	0	0	0	0	514	476	0	0	0	0	
4	0	0	0	0	519	491	0	0	0	0	
5	0	0	0	0	526	508	0	0	0	0	
6	0	0	0	0	534	525	0	0	0	0	
7	0	0	0	0	542	541	0	418	0	0	
8	0	0	0	0	550	554	0	1020	0	0	
9	0	0	0	0	557	563	0	1020	0	0	
10	0	0	0	0	562	566	0	1021	0	0	
11	0	0	0	0	565	564	0	1020	0	0	
12	0	0	0	0	565	556	0	1020	0	0	
13	0	0	0	0	563	544	0	1020	0	0	
14	0	0	0	0	557	529	0	1021	0	0	
15	0	0	0	0	550	511	0	1021	0	0	
0	0	0	0	0	541	492	0	1021	0	0	
1	0	0	0	0	531	475	0	453	0	0	
2	0	0	0	0	522	460	0	0	0	0	
3	0	0	0	0	515	451	0	0	0	0	
4	0	0	0	0	510	446	0	0	0	0	
5	0	0	0	0	507	447	0	0	0	0	
6	0	0	0	0	508	454	0	0	0	0	
7	0	0	0	0	510	466	0	0	0	0	
8	0	0	0	0	517	482	0	0	0	0	
9	0	0	0	0	525	501	0	0	0	0	
10	0	0	0	0	536	521	0	84	0	0	
11	0	0	0	0	546	539	0	770	0	0	
12	0	0	0	0	556	555	0	1020	0	0	
13	0	0	0	0	565	567	0	1021	0	0	
14	0	0	0	0	572	573	0	1021	0	0	
15	0	0	0	0	577	572	0	1020	0	0	
0	0	0	0	0	578	566	0	1020	0	0	
1	0	0	0	0	576	555	0	1020	0	0	
2	0	0	0	0	573	540	0	1020	0	0	
3	0	0	0	0	567	523	0	1021	0	0	
4	0	0	0	0	559	504	0	1021	0	0	
5	0	0	0	0	551	487	0	669	0	0	
6	0	0	0	0	541	473	0	1	0	0	
7	0	0	0	0	533	462	0	0	0	0	
8	0	0	0	0	526	456	0	0	0	0	
9	0	0	0	0	520	455	0	0	0	0	
10	0	0	0	0	516	459	0	0	0	0	
11	0	0	0	0	514	466	0	0	0	0	
12	0	0	0	0	513	476	0	0	0	0	
13	0	0	0	0	513	488	0	0	0	0	
14	0	0	0	0	513	499	0	92	0	0	
15	0	0	0	0	512	508	0	784	0	0	
0	0	0	0	0	511	512	0	1020	0	0	
1	0	0	0	0	507	511	0	1021	0	0	
2	0	0	0	0	500	503	0	1021	0	0	
3	0	0	0	0	490	489	0	1020	0	0	
4	0	0	0	0	478	470	0	1020	0	0	
5	0	0	0	0	462	446	0	1020	0	0	
6	0	0	0	0	446	418	0	1021	0	0	
7	0	0	0	0	428	389	0	1021	0	0	
8	0	0	0	0	410	361	0	1021	0	0	
9	0	0	0	0	394	336	0	492	0	0	
10	0	0	0	0	380	316	0	0	0	0	
11	0	0	0	0	372	304	0	0	0	0	
12	0	0	0	0	369	300	0	0	0	0	
13	0	0	0	0	373	306	0	0	0	0	
14	0	0	0	0	383	321	0	1	0	0	
15	0	0	0	0	400	346	0	0	0	0	
0	0	0	0	0	423	377	0	0	0	0	
1	0	0	0	0	451	414	0	0	0	0	
2	0	0	0	0	481	453	0	0	0	0	
3	0	0	0	0	514	492	0	534	0	0	
4	0	0	0	0	545	529	0	1020	0	0	
5	0	0	0	0	574	559	0	1020	0	0	
6	0	0	0	0	598	582	0	1020	0	0	
7	0	0	0	0	617	595	0	1020	0	0	
8	0	0	0	0	629	600	0	1020	0	0	
9	0	0	0	0	634	596	0	1020	0	0	
10	0	0	0	0	633	585	0	1021	0	0	
11	0	0	0	0	626	568	0	1021	0	0	
