# OpenSignals Text File Format. Version 1
# {"": {"position": 0, "device": "", "device name": "", "device connection": "", "sampling rate": 1000, "resolution": [4, 1, 1, 1, 1, 10, 10, 10, 10, 6, 6], "firmware version": 1281, "comments": "", "keywords": "", "mode": 0, "sync interval": 2, "date": "", "time": "", "channels": [1, 2, 3, 4, 5, 6], "sensor": ["RAW", "RAW", "RAW", "RAW", "RAW", "RAW"], "label": ["A1", "A2", "A3", "A4", "A5", "A6"], "column": ["nSeq", "I1", "I2", "O1", "O2", "A1", "A2", "A3", "A4", "A5", "A6"], "special": [{}, {}, {}, {}, {}, {}], "digital IO": [0, 0, 1, 1]}}
# EndOfHeader
0	0	0	0	0	523	467	1021	0	0	0	
1	0	0	0	0	519	465	1021	0	0	0	
2	0	0	0	0	518	464	1021	0	0	0	
3	0	0	0	0	517	464	1021	0	0	0	
4	0	0	0	0	520	467	1021	0	0	0	
5	0	0	0	0	524	471	1021	0	0	0	
6	0	0	0	0	528	476	1021	0	0	0	
7	0	0	0	0	535	483	1021	0	0	0	
8	0	0	0	0	543	492	1020	0	0	0	
9	0	0	0	0	550	499	1021	0	0	0	
10	0	0	0	0	557	506	1021	0	0	0	
11	0	0	0	0	563	513	1021	0	0	0	
12	0	0	0	0	567	519	1021	0	0	0	
13	0	0	0	0	569	523	1021	0	0	0	
14	0	0	0	0	569	526	1021	0	0	0	
15	0	0	0	0	569	527	1021	0	0	0	
0	0	0	0	0	565	526	1021	0	0	0	
1	0	0	0	0	560	523	1021	0	0	0	
2	0	0	0	0	552	518	1021	0	0	0	
3	0	0	0	0	546	511	1020	0	0	0	
4	0	0	0	0	540	504	1021	0	0	0	
5	0	0	0	0	537	497	1021	0	0	0	
6	0	0	0	0	535	490	1021	0	0	0	
7	0	0	0	0	536	484	1021	0	0	0	
8	0	0	0	0	538	480	1021	0	0	0	
9	0	0	0	0	542	478	1021	0	0	0	
10	0	0	0	0	547	476	1021	0	0	0	
11	0	0	0	0	552	476	1021	0	0	0	
12	0	0	0	0	557	478	1020	0	0	0	
13	0	0	0	0	560	479	1020	0	0	0	
14	0	0	0	0	563	480	1021	0	0	0	
15	0	0	0	0	563	482	1021	0	0	0	
0	0	0	0	0	562	483	1021	0	0	0	
1	0	0	0	0	559	483	1021	0	0	0	
2	0	0	0	0	555	483	1021	0	0	0	
3	0	0	0	0	549	482	1021	0	0	0	
4	0	0	0	0	543	481	1021	0	0	0	
5	0	0	0	0	536	478	1021	0	0	0	
6	0	0	0	0	530	476	1021	0	0	0	
7	0	0	0	0	525	473	1020	0	0	0	
8	0	0	0	0	523	472	1021	0	0	0	
9	0	0	0	0	522	472	1021	0	0	0	
10	0	0	0	0	524	473	1021	0	0	0	
11	0	0	0	0	528	476	1020	0	0	0	
12	0	0	0	0	533	480	1020	0	0	0	
13	0	0	0	0	540	485	1021	0	0	0	
14	0	0	0	0	547	491	1021	0	0	0	
15	0	0	0	0	555	497	1021	0	0	0	
0	0	0	0	0	561	503	1021	0	0	0	
1	0	0	0	0	568	507	1021	0	0	0	
2	0	0	0	0	572	511	1021	0	0	0	
3	0	0	0	0	575	513	1021	0	0	0	
4	0	0	0	0	577	515	1021	0	0	0	
5	0	0	0	0	579	515	1021	0	0	0	
6	0	0	0	0	579	516	1021	0	0	0	
7	0	0	0	0	579	516	1021	0	0	0	
8	0	0	0	0	579	517	1021	0	0	0	
9	0	0	0	0	579	518	1021	0	0	0	
10	0	0	0	0	579	518	1020	0	0	0	
11	0	0	0	0	577	519	1020	0	0	0	
12	0	0	0	0	577	519	1021	0	0	0	
13	0	0	0	0	574	518	1021	0	0	0	
14	0	0	0	0	571	516	1021	0	0	0	
15	0	0	0	0	566	513	1021	0	0	0	
0	0	0	0	0	560	509	1021	0	0	0	
1	0	0	0	0	554	504	1021	0	0	0	
2	0	0	0	0	547	499	1021	0	0	0	
3	0	0	0	0	540	493	1021	0	0	0	
4	0	0	0	0	532	487	1021	0	0	0	
5	0	0	0	0	526	480	1021	0	0	0	
6	0	0	0	0	519	474	1021	0	0	0	
7	0	0	0	0	514	468	1021	0	0	0	
8	0	0	0	0	510	463	1021	0	0	0	
9	0	0	0	0	506	458	1021	0	0	0	
10	0	0	0	0	505	454	1021	0	0	0	
11	0	0	0	0	505	452	1021	0	0	0	
12	0	0	0	0	507	451	1021	0	0	0	
13	0	0	0	0	510	451	1021	0	0	0	
14	0	0	0	0	513	452	1021	0	0	0	
15	0	0	0	0	518	455	1021	0	0	0	
0	0	0	0	0	524	460	1021	0	0	0	
1	0	0	0	0	530	465	1021	0	0	0	
2	0	0	0	0	537	473	1021	0	0	0	
3	0	0	0	0	545	482	1021	0	0	0	
4	0	0	0	0	554	492	1021	0	0	0	
5	0	0	0	0	561	501	1021	0	0	0	
6	0	0	0	0	569	510	1021	0	0	0	
7	0	0	0	0	575	518	1021	0	0	0	
8	0	0	0	0	580	524	1021	0	0	0	
9	0	0	0	0	583	527	1021	0	0	0	
10	0	0	0	0	584	529	1021	0	0	0	
11	0	0	0	0	582	529	1021	0	0	0	
12	0	0	0	0	578	527	1021	0	0	0	
13	0	0	0	0	572	523	1021	0	0	0	
14	0	0	0	0	565	519	1021	0	0	0	
15	0	0	0	0	558	514	1021	0	0	0	
0	0	0	0	0	550	509	1021	0	0	0	
1	0	0	0	0	543	504	1021	0	0	0	
2	0	0	0	0	536	499	1021	0	0	0	
3	0	0	0	0	531	496	1021	0	0	0	
4	0	0	0	0	529	492	1021	0	0	0	
5	0	0	0	0	527	489	1021	0	0	0	
6	0	0	0	0	528	487	1021	0	0	0	
7	0	0	0	0	531	484	1021	0	0	0	
8	0	0	0	0	534	482	1021	0	0	0	
9	0	0	0	0	537	480	1021	0	0	0	
10	0	0	0	0	541	477	1021	0	0	0	
11	0	0	0	0	543	475	1021	0	0	0	
12	0	0	0	0	545	473	1021	0	0	0	
13	0	0	0	0	547	472	1021	0	0	0	
14	0	0	0	0	548	471	1021	0	0	0	
15	0	0	0	0	548	471	1021	0	0	0	
0	0	0	0	0	547	472	1021	0	0	0	
1	0	0	0	0	547	472	1021	0	0	0	
2	0	0	0	0	545	474	1020	0	0	0	
3	0	0	0	0	546	476	1021	0	0	0	
4	0	0	0	0	546	479	1021	0	0	0	
5	0	0	0	0	547	481	1021	0	0	0	
6	0	0	0	0	547	485	1020	0	0	0	
7	0	0	0	0	550	489	1021	0	0	0	
8	0	0	0	0	552	494	1021	0	0	0	
9	0	0	0	0	555	498	1021	0	0	0	
10	0	0	0	0	557	502	1021	0	0	0	
11	0	0	0	0	558	504	1021	0	0	0	
12	0	0	0	0	557	504	1020	0	0	0	
13	0	0	0	0	556	502	1021	0	0	0	
14	0	0	0	0	552	499	1021	0	0	0	
15	0	0	0	0	548	494	1021	0	0	0	
0	0	0	0	0	543	490	1021	0	0	0	
1	0	0	0	0	538	485	1020	0	0	0	
2	0	0	0	0	535	480	1021	0	0	0	
3	0	0	0	0	530	476	1021	0	0	0	
4	0	0	0	0	527	471	1021	0	0	0	
5	0	0	0	0	523	467	1020	0	0	0	
6	0	0	0	0	519	463	1020	0	0	0	
7	0	0	0	0	518	460	1021	0	0	0	
8	0	0	0	0	516	457	1021	0	0	0	
9	0	0	0	0	516	455	1021	0	0	0	
10	0	0	0	0	516	455	1021	0	0	0	
11	0	0	0	0	518	457	1021	0	0	0	
12	0	0	0	0	521	459	1021	0	0	0	
13	0	0	0	0	525	464	1021	0	0	0	
14	0	0	0	0	529	469	1021	0	0	0	
15	0	0	0	0	534	475	1021	0	0	0	
0	0	0	0	0	539	481	1020	0	0	0	
1	0	0	0	0	544	487	1021	0	0	0	
2	0	0	0	0	547	493	1021	0	0	0	
3	0	0	0	0	551	498	1021	0	0	0	
4	0	0	0	0	553	502	1020	0	0	0	
5	0	0	0	0	554	504	1020	0	0	0	
6	0	0	0	0	556	505	1021	0	0	0	
7	0	0	0	0	556	505	1021	0	0	0	
8	0	0	0	0	554	502	1021	0	0	0	
9	0	0	0	0	551	498	1020	0	0	0	
10	0	0	0	0	550	494	1020	0	0	0	
11	0	0	0	0	548	488	1021	0	0	0	
12	0	0	0	0	546	484	1021	0	0	0	
13	0	0	0	0	545	480	1021	0	0	0	
14	0	0	0	0	544	478	1020	0	0	0	
15	0	0	0	0	543	476	1020	0	0	0	
0	0	0	0	0	544	475	1021	0	0	0	
1	0	0	0	0	545	477	1021	0	0	0	
2	0	0	0	0	545	479	1021	0	0	0	
3	0	0	0	0	547	483	1021	0	0	0	
4	0	0	0	0	549	487	1021	0	0	0	
5	0	0	0	0	551	492	1021	0	0	0	
6	0	0	0	0	552	496	1021	0	0	0	
7	0	0	0	0	553	500	1021	0	0	0	
8	0	0	0	0	553	503	1020	0	0	0	
9	0	0	0	0	553	504	1021	0	0	0	
10	0	0	0	0	553	504	1021	0	0	0	
11	0	0	0	0	551	502	1021	0	0	0	
12	0	0	0	0	549	499	1021	0	0	0	
13	0	0	0	0	547	495	1021	0	0	0	
14	0	0	0	0	543	491	1021	0	0	0	
15	0	0	0	0	541	486	1021	0	0	0	
0	0	0	0	0	539	483	1021	0	0	0	
1	0	0	0	0	537	481	1021	0	0	0	
2	0	0	0	0	537	480	1020	0	0	0	
3	0	0	0	0	537	481	1020	0	0	0	
4	0	0	0	0	540	485	1021	0	0	0	
5	0	0	0	0	543	490	1021	0	0	0	
6	0	0	0	0	548	497	1021	0	0	0	
7	0	0	0	0	553	504	1021	0	0	0	
8	0	0	0	0	559	511	1020	0	0	0	
9	0	0	0	0	563	517	1021	0	0	0	
10	0	0	0	0	567	522	1021	0	0	0	
11	0	0	0	0	567	524	1021	0	0	0	
12	0	0	0	0	565	523	1021	0	0	0	
13	0	0	0	0	561	519	1021	0	0	0	
14	0	0	0	0	556	511	1021	0	0	0	
15	0	0	0	0	548	501	1021	0	0	0	
0	0	0	0	0	539	488	1021	0	0	0	
1	0	0	0	0	528	475	1021	0	0	0	
2	0	0	0	0	519	461	1021	0	0	0	
3	0	0	0	0	510	448	1021	0	0	0	
4	0	0	0	0	503	438	1021	0	0	0	
5	0	0	0	0	498	431	1021	0	0	0	
6	0	0	0	0	496	427	1021	0	0	0	
7	0	0	0	0	497	426	1021	0	0	0	
8	0	0	0	0	502	430	1021	0	0	0	
9	0	0	0	0	510	438	1021	0	0	0	
10	0	0	0	0	521	448	1021	0	0	0	
11	0	0	0	0	533	461	1021	0	0	0	
12	0	0	0	0	547	475	1021	0	0	0	
13	0	0	0	0	560	488	1021	0	0	0	
14	0	0	0	0	572	501	1021	0	0	0	
15	0	0	0	0	582	513	1021	0	0	0	
0	0	0	0	0	589	521	1021	0	0	0	
1	0	0	0	0	593	527	1021	0	0	0	
2	0	0	0	0	594	529	1021	0	0	0	
3	0	0	0	0	590	528	1021	0	0	0	
4	0	0	0	0	582	523	1021	0	0	0	
5	0	0	0	0	571	515	1021	0	0	0	
6	0	0	0	0	559	506	1021	0	0	0	
7	0	0	0	0	545	495	1021	0	0	0	
8	0	0	0	0	531	484	1021	0	0	0	
9	0	0	0	0	518	473	1021	0	0	0	
10	0	0	0	0	507	464	1021	0	0	0	
11	0	0	0	0	499	457	1021	0	0	0	
12	0	0	0	0	494	452	1021	0	0	0	
13	0	0	0	0	492	450	1021	0	0	0	
14	0	0	0	0	494	450	1021	0	0	0	
15	0	0	0	0	499	452	1021	0	0	0	
0	0	0	0	0	506	455	1021	0	0	0	
1	0	0	0	0	514	461	1021	0	0	0	
2	0	0	0	0	524	466	1021	0	0	0	
3	0	0	0	0	533	472	1021	0	0	0	
4	0	0	0	0	542	478	1021	0	0	0	
5	0	0	0	0	550	483	1021	0	0	0	
6	0	0	0	0	556	486	1021	0	0	0	
7	0	0	0	0	560	488	1021	0	0	0	
8	0	0	0	0	561	489	1021	0	0	0	
9	0	0	0	0	560	487	1020	0	0	0	
10	0	0	0	0	556	484	1020	0	0	0	
11	0	0	0	0	551	481	1021	0	0	0	
12	0	0	0	0	544	476	1021	0	0	0	
13	0	0	0	0	537	471	1021	0	0	0	
14	0	0	0	0	529	466	1021	0	0	0	
15	0	0	0	0	522	462	1021	0	0	0	
0	0	0	0	0	516	457	1021	0	0	0	
1	0	0	0	0	512	455	1021	0	0	0	
2	0	0	0	0	509	455	1021	0	0	0	
3	0	0	0	0	509	456	1020	0	0	0	
4	0	0	0	0	510	459	1020	0	0	0	
5	0	0	0	0	514	462	1021	0	0	0	
6	0	0	0	0	518	465	1021	0	0	0	
7	0	0	0	0	521	468	1021	0	0	0	
8	0	0	0	0	525	472	1021	0	0	0	
9	0	0	0	0	527	474	1021	0	0	0	
10	0	0	0	0	528	474	1021	0	0	0	
11	0	0	0	0	528	474	1021	0	0	0	
12	0	0	0	0	527	472	1021	0	0	0	
13	0	0	0	0	524	469	1021	0	0	0	
14	0	0	0	0	522	466	1021	0	0	0	
15	0	0	0	0	520	464	1021	0	0	0	
0	0	0	0	0	519	463	1021	0	0	0	
1	0	0	0	0	520	462	1021	0	0	0	
2	0	0	0	0	522	463	1020	0	0	0	
3	0	0	0	0	525	464	1020	0	0	0	
4	0	0	0	0	531	468	1021	0	0	0	
5	0	0	0	0	539	473	1021	0	0	0	
6	0	0	0	0	547	480	1021	0	0	0	
7	0	0	0	0	558	488	1021	0	0	0	
8	0	0	0	0	568	496	1021	0	0	0	
9	0	0	0	0	577	505	1021	0	0	0	
10	0	0	0	0	585	512	1021	0	0	0	
11	0	0	0	0	590	519	1021	0	0	0	
12	0	0	0	0	591	524	1021	0	0	0	
13	0	0	0	0	591	527	1021	0	0	0	
14	0	0	0	0	587	530	1021	0	0	0	
15	0	0	0	0	581	529	1021	0	0	0	
0	0	0	0	0	573	527	1021	0	0	0	
1	0	0	0	0	562	523	1021	0	0	0	
2	0	0	0	0	553	518	1021	0	0	0	
3	0	0	0	0	544	512	1021	0	0	0	
4	0	0	0	0	537	505	1021	0	0	0	
5	0	0	0	0	531	499	1021	0	0	0	
6	0	0	0	0	527	492	1021	0	0	0	
7	0	0	0	0	525	485	1021	0	0	0	
8	0	0	0	0	523	479	1021	0	0	0	
9	0	0	0	0	522	472	1021	0	0	0	
10	0	0	0	0	521	466	1021	0	0	0	
11	0	0	0	0	520	460	1020	0	0	0	
12	0	0	0	0	519	456	1021	0	0	0	
13	0	0	0	0	518	452	1021	0	0	0	
14	0	0	0	0	516	449	1021	0	0	0	
15	0	0	0	0	514	447	1021	0	0	0	
0	0	0	0	0	511	445	1021	0	0	0	
1	0	0	0	0	510	444	1021	0	0	0	
2	0	0	0	0	508	444	1021	0	0	0	
3	0	0	0	0	505	444	1021	0	0	0	
4	0	0	0	0	504	445	1021	0	0	0	
5	0	0	0	0	501	444	1021	0	0	0	
6	0	0	0	0	499	444	1021	0	0	0	
7	0	0	0	0	499	444	1021	0	0	0	
8	0	0	0	0	499	443	1021	0	0	0	
9	0	0	0	0	499	443	1021	0	0	0	
10	0	0	0	0	502	443	1021	0	0	0	
11	0	0	0	0	506	445	1021	0	0	0	
12	0	0	0	0	512	448	1021	0	0	0	
13	0	0	0	0	519	453	1021	0	0	0	
14	0	0	0	0	529	460	1021	0	0	0	
15	0	0	0	0	539	467	1021	0	0	0	
0	0	0	0	0	550	476	1021	0	0	0	
1	0	0	0	0	560	485	1021	0	0	0	
2	0	0	0	0	568	493	1021	0	0	0	
3	0	0	0	0	574	499	1021	0	0	0	
4	0	0	0	0	577	504	1020	0	0	0	
5	0	0	0	0	577	504	1021	0	0	0	
6	0	0	0	0	573	503	1021	0	0	0	
7	0	0	0	0	566	498	1021	0	0	0	
8	0	0	0	0	556	490	1021	0	0	0	
9	0	0	0	0	543	480	1021	0	0	0	
10	0	0	0	0	529	470	1021	0	0	0	
11	0	0	0	0	516	459	1021	0	0	0	
12	0	0	0	0	503	448	1021	0	0	0	
13	0	0	0	0	492	440	1021	0	0	0	
14	0	0	0	0	485	433	1021	0	0	0	
15	0	0	0	0	480	428	1021	0	0	0	
0	0	0	0	0	480	428	1021	0	0	0	
1	0	0	0	0	483	430	1021	0	0	0	
2	0	0	0	0	491	435	1021	0	0	0	
3	0	0	0	0	502	444	1021	0	0	0	
4	0	0	0	0	514	454	1021	0	0	0	
5	0	0	0	0	529	465	1021	0	0	0	
6	0	0	0	0	542	476	1021	0	0	0	
7	0	0	0	0	555	487	1021	0	0	0	
8	0	0	0	0	564	496	1021	0	0	0	
9	0	0	0	0	571	502	1021	0	0	0	
10	0	0	0	0	574	505	1021	0	0	0	
11	0	0	0	0	573	505	1021	0	0	0	
12	0	0	0	0	568	502	1021	0	0	0	
13	0	0	0	0	560	497	1020	0	0	0	
14	0	0	0	0	550	489	1020	0	0	0	
15	0	0	0	0	540	482	1021	0	0	0	
0	0	0	0	0	530	475	1021	0	0	0	
1	0	0	0	0	521	468	1021	0	0	0	
2	0	0	0	0	515	464	1021	0	0	0	
3	0	0	0	0	511	462	1021	0	0	0	
4	0	0	0	0	511	463	1021	0	0	0	
5	0	0	0	0	514	465	1021	0	0	0	
6	0	0	0	0	519	470	1021	0	0	0	
7	0	0	0	0	528	476	1021	0	0	0	
8	0	0	0	0	537	483	1020	0	0	0	
9	0	0	0	0	547	490	1021	0	0	0	
10	0	0	0	0	555	495	1021	0	0	0	
11	0	0	0	0	561	499	1021	0	0	0	
12	0	0	0	0	565	502	1021	0	0	0	
13	0	0	0	0	564	501	1020	0	0	0	
14	0	0	0	0	562	498	1021	0	0	0	
15	0	0	0	0	555	493	1021	0	0	0	
0	0	0	0	0	546	485	1021	0	0	0	
1	0	0	0	0	534	476	1021	0	0	0	
2	0	0	0	0	521	467	1021	0	0	0	
3	0	0	0	0	510	457	1021	0	0	0	
4	0	0	0	0	499	449	1021	0	0	0	
5	0	0	0	0	490	442	1021	0	0	0	
6	0	0	0	0	484	437	1020	0	0	0	
7	0	0	0	0	481	435	1021	0	0	0	
8	0	0	0	0	483	435	1021	0	0	0	
9	0	0	0	0	489	439	1021	0	0	0	
10	0	0	0	0	497	444	1021	0	0	0	
11	0	0	0	0	508	450	1020	0	0	0	
12	0	0	0	0	518	457	1020	0	0	0	
13	0	0	0	0	529	465	1021	0	0	0	
14	0	0	0	0	539	472	1021	0	0	0	
15	0	0	0	0	545	478	1021	0	0	0	
0	0	0	0	0	549	482	1021	0	0	0	
1	0	0	0	0	549	484	1020	0	0	0	
2	0	0	0	0	545	484	1021	0	0	0	
3	0	0	0	0	539	481	1021	0	0	0	
4	0	0	0	0	529	476	1021	0	0	0	
5	0	0	0	0	519	470	1021	0	0	0	
6	0	0	0	0	509	462	1021	0	0	0	
7	0	0	0	0	502	455	1021	0	0	0	
8	0	0	0	0	496	448	1021	0	0	0	
9	0	0	0	0	494	441	1020	0	0	0	
10	0	0	0	0	493	437	1021	0	0	0	
11	0	0	0	0	496	434	1020	0	0	0	
12	0	0	0	0	502	434	1021	0	0	0	
13	0	0	0	0	508	435	1021	0	0	0	
14	0	0	0	0	516	439	1021	0	0	0	
15	0	0	0	0	522	443	1021	0	0	0	
0	0	0	0	0	528	447	1020	0	0	0	
1	0	0	0	0	533	451	1021	0	0	0	
2	0	0	0	0	535	454	1021	0	0	0	
3	0	0	0	0	534	457	1021	0	0	0	
4	0	0	0	0	532	459	1021	0	0	0	
5	0	0	0	0	529	460	1021	0	0	0	
6	0	0	0	0	526	460	1021	0	0	0	
7	0	0	0	0	521	460	1021	0	0	0	
8	0	0	0	0	516	459	1021	0	0	0	
9	0	0	0	0	512	456	1021	0	0	0	
10	0	0	0	0	507	454	1020	0	0	0	
11	0	0	0	0	504	451	1021	0	0	0	
12	0	0	0	0	502	448	1021	0	0	0	
13	0	0	0	0	499	446	1021	0	0	0	
14	0	0	0	0	498	444	1021	0	0	0	
15	0	0	0	0	499	443	1021	0	0	0	
0	0	0	0	0	500	444	1021	0	0	0	
1	0	0	0	0	503	447	1021	0	0	0	
2	0	0	0	0	507	451	1021	0	0	0	
3	0	0	0	0	512	456	1021	0	0	0	
4	0	0	0	0	518	463	1021	0	0	0	
5	0	0	0	0	525	469	1021	0	0	0	
6	0	0	0	0	532	476	1021	0	0	0	
7	0	0	0	0	537	481	1021	0	0	0	
8	0	0	0	0	543	485	1021	0	0	0	
9	0	0	0	0	545	487	1020	0	0	0	
10	0	0	0	0	546	487	1021	0	0	0	
11	0	0	0	0	545	485	1021	0	0	0	
12	0	0	0	0	542	482	1021	0	0	0	
13	0	0	0	0	537	477	1020	0	0	0	
14	0	0	0	0	531	471	1021	0	0	0	
15	0	0	0	0	524	466	1021	0	0	0	
0	0	0	0	0	518	460	1021	0	0	0	
1	0	0	0	0	512	455	1021	0	0	0	
2	0	0	0	0	506	451	1021	0	0	0	
3	0	0	0	0	503	447	1021	0	0	0	
4	0	0	0	0	499	445	1021	0	0	0	
5	0	0	0	0	497	444	1021	0	0	0	
6	0	0	0	0	497	444	1021	0	0	0	
7	0	0	0	0	500	447	1021	0	0	0	
8	0	0	0	0	504	451	1021	0	0	0	
9	0	0	0	0	511	456	1021	0	0	0	
10	0	0	0	0	518	462	1021	0	0	0	
11	0	0	0	0	526	467	1020	0	0	0	
12	0	0	0	0	532	471	1021	0	0	0	
13	0	0	0	0	538	474	1020	0	0	0	
14	0	0	0	0	542	475	1021	0	0	0	
15	0	0	0	0	543	475	1021	0	0	0	
0	0	0	0	0	542	473	1021	0	0	0	
1	0	0	0	0	539	470	1021	0	0	0	
2	0	0	0	0	534	465	1021	0	0	0	
3	0	0	0	0	528	460	1021	0	0	0	
4	0	0	0	0	521	454	1021	0	0	0	
5	0	0	0	0	513	448	1021	0	0	0	
6	0	0	0	0	506	442	1021	0	0	0	
7	0	0	0	0	500	438	1021	0	0	0	
8	0	0	0	0	496	436	1021	0	0	0	
9	0	0	0	0	495	436	1021	0	0	0	
10	0	0	0	0	496	439	1021	0	0	0	
11	0	0	0	0	500	444	1021	0	0	0	
12	0	0	0	0	507	451	1021	0	0	0	
13	0	0	0	0	516	460	1021	0	0	0	
14	0	0	0	0	527	470	1021	0	0	0	
15	0	0	0	0	537	480	1021	0	0	0	
0	0	0	0	0	548	490	1020	0	0	0	
1	0	0	0	0	557	497	1021	0	0	0	
2	0	0	0	0	565	504	1021	0	0	0	
3	0	0	0	0	569	507	1021	0	0	0	
4	0	0	0	0	572	508	1021	0	0	0	
5	0	0	0	0	571	506	1021	0	0	0	
6	0	0	0	0	567	502	1021	0	0	0	
7	0	0	0	0	561	496	1021	0	0	0	
8	0	0	0	0	553	490	1021	0	0	0	
9	0	0	0	0	543	483	1020	0	0	0	
10	0	0	0	0	534	476	1021	0	0	0	
11	0	0	0	0	524	472	1020	0	0	0	
12	0	0	0	0	518	468	1021	0	0	0	
13	0	0	0	0	513	468	1021	0	0	0	
14	0	0	0	0	510	470	1021	0	0	0	
15	0	0	0	0	509	472	1021	0	0	0	
0	0	0	0	0	511	476	1020	0	0	0	
1	0	0	0	0	514	479	1021	0	0	0	
2	0	0	0	0	518	481	1021	0	0	0	
3	0	0	0	0	522	482	1021	0	0	0	
4	0	0	0	0	526	481	1021	0	0	0	
5	0	0	0	0	529	479	1021	0	0	0	
6	0	0	0	0	532	475	1021	0	0	0	
7	0	0	0	0	534	469	1021	0	0	0	
8	0	0	0	0	532	461	1021	0	0	0	
9	0	0	0	0	528	452	1021	0	0	0	
10	0	0	0	0	523	443	1020	0	0	0	
11	0	0	0	0	517	434	1021	0	0	0	
12	0	0	0	0	509	424	1021	0	0	0	
13	0	0	0	0	500	415	1021	0	0	0	
14	0	0	0	0	492	408	1021	0	0	0	
15	0	0	0	0	483	401	1021	0	0	0	
0	0	0	0	0	477	397	1021	0	0	0	
1	0	0	0	0	472	395	1021	0	0	0	
2	0	0	0	0	468	395	1021	0	0	0	
3	0	0	0	0	467	396	1020	0	0	0	
4	0	0	0	0	464	398	1020	0	0	0	
5	0	0	0	0	463	399	1021	0	0	0	
6	0	0	0	0	460	398	1021	0	0	0	
7	0	0	0	0	454	394	1021	0	0	0	
8	0	0	0	0	446	387	1021	0	0	0	
9	0	0	0	0	435	377	1020	0	0	0	
10	0	0	0	0	422	364	1021	0	0	0	
11	0	0	0	0	406	349	1021	0	0	0	
12	0	0	0	0	388	332	1021	0	0	0	
13	0	0	0	0	371	313	1021	0	0	0	
14	0	0	0	0	353	295	1021	0	0	0	
15	0	0	0	0	337	279	1021	0	0	0	
0	0	0	0	0	323	264	1021	0	0	0	
1	0	0	0	0	313	253	1021	0	0	0	
2	0	0	0	0	307	247	1020	0	0	0	
3	0	0	0	0	307	246	1020	0	0	0	
4	0	0	0	0	312	251	1021	0	0	0	
5	0	0	0	0	324	261	1021	0	0	0	
6	0	0	0	0	341	277	1021	0	0	0	
7	0	0	0	0	362	297	1021	0	0	0	
8	0	0	0	0	387	320	1021	0	0	0	
9	0	0	0	0	414	345	1021	0	0	0	
10	0	0	0	0	441	370	1021	0	0	0	
11	0	0	0	0	467	395	1021	0	0	0	
12	0	0	0	0	491	417	1021	0	0	0	
13	0	0	0	0	512	437	1021	0	0	0	
14	0	0	0	0	527	452	1021	0	0	0	
15	0	0	0	0	538	464	1021	0	0	0	
0	0	0	0	0	544	471	1021	0	0	0	
1	0	0	0	0	546	475	1021	0	0	0	
2	0	0	0	0	545	475	1021	0	0	0	
3	0	0	0	0	541	473	1021	0	0	0	
4	0	0	0	0	536	469	1021	0	0	0	
5	0	0	0	0	529	463	1021	0	0	0	
6	0	0	0	0	522	457	1020	0	0	0	
7	0	0	0	0	515	451	1021	0	0	0	
8	0	0	0	0	512	446	1021	0	0	0	
9	0	0	0	0	511	444	1021	0	0	0	
10	0	0	0	0	514	445	1021	0	0	0	
11	0	0	0	0	520	448	1021	0	0	0	
12	0	0	0	0	528	454	1021	0	0	0	
13	0	0	0	0	537	462	1021	0	0	0	
14	0	0	0	0	547	470	1021	0	0	0	
15	0	0	0	0	555	478	1021	0	0	0	
0	0	0	0	0	562	486	1020	0	0	0	
1	0	0	0	0	567	492	1021	0	0	0	
2	0	0	0	0	570	497	1021	0	0	0	
3	0	0	0	0	569	499	1021	0	0	0	
4	0	0	0	0	566	499	1021	0	0	0	
5	0	0	0	0	561	498	1021	0	0	0	
6	0	0	0	0	552	495	1021	0	0	0	
7	0	0	0	0	544	490	1021	0	0	0	
8	0	0	0	0	534	484	1021	0	0	0	
9	0	0	0	0	525	478	1021	0	0	0	
10	0	0	0	0	516	472	1020	0	0	0	
11	0	0	0	0	507	466	1020	0	0	0	
12	0	0	0	0	501	462	1021	0	0	0	
13	0	0	0	0	496	457	1021	0	0	0	
14	0	0	0	0	492	455	1021	0	0	0	
15	0	0	0	0	491	453	1021	0	0	0	
0	0	0	0	0	491	452	1021	0	0	0	
1	0	0	0	0	495	452	1021	0	0	0	
2	0	0	0	0	500	454	1021	0	0	0	
3	0	0	0	0	507	455	1021	0	0	0	
4	0	0	0	0	514	455	1020	0	0	0	
5	0	0	0	0	520	457	1020	0	0	0	
6	0	0	0	0	527	457	1021	0	0	0	
7	0	0	0	0	531	457	1021	0	0	0	
8	0	0	0	0	536	457	1021	0	0	0	
9	0	0	0	0	537	457	1021	0	0	0	
10	0	0	0	0	539	458	1021	0	0	0	
11	0	0	0	0	541	460	1021	0	0	0	
12	0	0	0	0	542	463	1021	0	0	0	
13	0	0	0	0	543	466	1021	0	0	0	
14	0	0	0	0	544	470	1020	0	0	0	
15	0	0	0	0	545	474	1020	0	0	0	
0	0	0	0	0	547	478	1021	0	0	0	
1	0	0	0	0	550	482	1021	0	0	0	
2	0	0	0	0	552	486	1021	0	0	0	
3	0	0	0	0	553	488	1020	0	0	0	
4	0	0	0	0	555	491	1020	0	0	0	
5	0	0	0	0	556	492	1021	0	0	0	
6	0	0	0	0	557	492	1021	0	0	0	
7	0	0	0	0	556	492	1021	0	0	0	
8	0	0	0	0	556	492	1021	0	0	0	
9	0	0	0	0	554	490	1020	0	0	0	
10	0	0	0	0	552	487	1021	0	0	0	
11	0	0	0	0	548	483	1021	0	0	0	
12	0	0	0	0	544	479	1021	0	0	0	
13	0	0	0	0	540	473	1020	0	0	0	
14	0	0	0	0	536	469	1021	0	0	0	
15	0	0	0	0	531	464	1021	0	0	0	
0	0	0	0	0	528	460	1021	0	0	0	
1	0	0	0	0	526	458	1021	0	0	0	
2	0	0	0	0	525	456	1021	0	0	0	
3	0	0	0	0	525	457	1020	0	0	0	
4	0	0	0	0	527	459	1021	0	0	0	
5	0	0	0	0	530	462	1021	0	0	0	
6	0	0	0	0	533	466	1021	0	0	0	
7	0	0	0	0	537	471	1021	0	0	0	
8	0	0	0	0	540	476	1021	0	0	0	
9	0	0	0	0	543	480	1021	0	0	0	
10	0	0	0	0	544	483	1021	0	0	0	
11	0	0	0	0	545	485	1021	0	0	0	
12	0	0	0	0	544	486	1021	0	0	0	
13	0	0	0	0	543	486	1021	0	0	0	
14	0	0	0	0	541	486	1021	0	0	0	
15	0	0	0	0	539	484	1021	0	0	0	
0	0	0	0	0	538	483	1021	0	0	0	
1	0	0	0	0	536	481	1020	0	0	0	
2	0	0	0	0	535	479	1020	0	0	0	
3	0	0	0	0	535	477	1021	0	0	0	
4	0	0	0	0	533	475	1021	0	0	0	
5	0	0	0	0	533	472	1021	0	0	0	
6	0	0	0	0	532	470	1021	0	0	0	
7	0	0	0	0	531	469	1020	0	0	0	
8	0	0	0	0	533	469	1021	0	0	0	
9	0	0	0	0	534	469	1021	0	0	0	
10	0	0	0	0	535	470	1021	0	0	0	
11	0	0	0	0	536	470	1021	0	0	0	
12	0	0	0	0	537	472	1021	0	0	0	
13	0	0	0	0	537	472	1021	0	0	0	
14	0	0	0	0	538	474	1021	0	0	0	
15	0	0	0	0	538	475	1021	0	0	0	
0	0	0	0	0	539	476	1021	0	0	0	
1	0	0	0	0	539	477	1020	0	0	0	
2	0	0	0	0	539	477	1021	0	0	0	
3	0	0	0	0	538	477	1021	0	0	0	
4	0	0	0	0	536	475	1021	0	0	0	
5	0	0	0	0	533	472	1021	0	0	0	
6	0	0	0	0	529	468	1020	0	0	0	
7	0	0	0	0	526	465	1021	0	0	0	
8	0	0	0	0	523	461	1021	0	0	0	
9	0	0	0	0	519	457	1021	0	0	0	
10	0	0	0	0	517	455	1021	0	0	0	
11	0	0	0	0	516	453	1021	0	0	0	
12	0	0	0	0	517	454	1021	0	0	0	
13	0	0	0	0	519	456	1021	0	0	0	
14	0	0	0	0	523	462	1021	0	0	0	
15	0	0	0	0	530	468	1021	0	0	0	
0	0	0	0	0	537	477	1021	0	0	0	
1	0	0	0	0	545	486	1021	0	0	0	
2	0	0	0	0	553	496	1021	0	0	0	
3	0	0	0	0	559	504	1021	0	0	0	
4	0	0	0	0	563	510	1021	0	0	0	
5	0	0	0	0	565	513	1021	0	0	0	
6	0	0	0	0	564	513	1021	0	0	0	
7	0	0	0	0	561	510	1021	0	0	0	
8	0	0	0	0	556	504	1021	0	0	0	
9	0	0	0	0	550	495	1021	0	0	0	
10	0	0	0	0	544	486	1021	0	0	0	
11	0	0	0	0	538	475	1021	0	0	0	
12	0	0	0	0	533	465	1021	0	0	0	
13	0	0	0	0	529	457	1021	0	0	0	
14	0	0	0	0	526	451	1021	0	0	0	
15	0	0	0	0	526	447	1021	0	0	0	
0	0	0	0	0	526	445	1021	0	0	0	
1	0	0	0	0	527	445	1021	0	0	0	
2	0	0	0	0	530	447	1021	0	0	0	
3	0	0	0	0	532	450	1021	0	0	0	
4	0	0	0	0	534	454	1021	0	0	0	
5	0	0	0	0	536	459	1021	0	0	0	
6	0	0	0	0	536	462	1021	0	0	0	
7	0	0	0	0	535	465	1021	0	0	0	
8	0	0	0	0	532	466	1021	0	0	0	
9	0	0	0	0	528	466	1020	0	0	0	
10	0	0	0	0	524	465	1021	0	0	0	
11	0	0	0	0	519	463	1021	0	0	0	
12	0	0	0	0	514	460	1021	0	0	0	
13	0	0	0	0	509	456	1021	0	0	0	
14	0	0	0	0	505	452	1021	0	0	0	
15	0	0	0	0	501	449	1021	0	0	0	
0	0	0	0	0	498	445	1021	0	0	0	
1	0	0	0	0	495	442	1021	0	0	0	
2	0	0	0	0	493	439	1021	0	0	0	
3	0	0	0	0	493	437	1021	0	0	0	
4	0	0	0	0	493	435	1021	0	0	0	
5	0	0	0	0	494	435	1021	0	0	0	
6	0	0	0	0	497	435	1021	0	0	0	
7	0	0	0	0	500	437	1021	0	0	0	
8	0	0	0	0	505	440	1021	0	0	0	
9	0	0	0	0	511	444	1021	0	0	0	
10	0	0	0	0	517	449	1021	0	0	0	
11	0	0	0	0	523	454	1021	0	0	0	
12	0	0	0	0	529	459	1021	0	0	0	
13	0	0	0	0	536	464	1021	0	0	0	
14	0	0	0	0	540	467	1021	0	0	0	
15	0	0	0	0	542	469	1021	0	0	0	
0	0	0	0	0	543	468	1021	0	0	0	
1	0	0	0	0	540	466	1021	0	0	0	
2	0	0	0	0	536	462	1021	0	0	0	
3	0	0	0	0	530	455	1021	0	0	0	
4	0	0	0	0	524	450	1021	0	0	0	
5	0	0	0	0	516	443	1021	0	0	0	
6	0	0	0	0	509	438	1021	0	0	0	
7	0	0	0	0	503	435	1021	0	0	0	
8	0	0	0	0	500	434	1021	0	0	0	
9	0	0	0	0	499	436	1021	0	0	0	
10	0	0	0	0	502	440	1021	0	0	0	
11	0	0	0	0	507	447	1020	0	0	0	
12	0	0	0	0	513	455	1021	0	0	0	
13	0	0	0	0	521	464	1021	0	0	0	
14	0	0	0	0	529	473	1021	0	0	0	
15	0	0	0	0	536	481	1021	0	0	0	
0	0	0	0	0	542	487	1021	0	0	0	
1	0	0	0	0	547	492	1021	0	0	0	
2	0	0	0	0	550	494	1021	0	0	0	
3	0	0	0	0	551	494	1021	0	0	0	
4	0	0	0	0	550	492	1021	0	0	0	
5	0	0	0	0	547	487	1021	0	0	0	
6	0	0	0	0	543	481	1021	0	0	0	
7	0	0	0	0	539	474	1021	0	0	0	
8	0	0	0	0	534	467	1021	0	0	0	
9	0	0	0	0	529	460	1021	0	0	0	
10	0	0	0	0	525	454	1021	0	0	0	
11	0	0	0	0	521	450	1020	0	0	0	
12	0	0	0	0	520	448	1021	0	0	0	
13	0	0	0	0	521	449	1021	0	0	0	
14	0	0	0	0	523	452	1021	0	0	0	
15	0	0	0	0	527	457	1021	0	0	0	
0	0	0	0	0	531	463	1021	0	0	0	
1	0	0	0	0	537	470	1021	0	0	0	
2	0	0	0	0	542	477	1021	0	0	0	
3	0	0	0	0	547	484	1021	0	0	0	
4	0	0	0	0	550	489	1020	0	0	0	
5	0	0	0	0	551	491	1020	0	0	0	
6	0	0	0	0	551	491	1021	0	0	0	
7	0	0	0	0	547	489	1021	0	0	0	
8	0	0	0	0	543	484	1021	0	0	0	
9	0	0	0	0	538	479	1021	0	0	0	
10	0	0	0	0	533	474	1021	0	0	0	
11	0	0	0	0	528	469	1021	0	0	0	
12	0	0	0	0	524	465	1021	0	0	0	
13	0	0	0	0	520	462	1021	0	0	0	
14	0	0	0	0	516	459	1020	0	0	0	
15	0	0	0	0	513	457	1020	0	0	0	
0	0	0	0	0	511	456	1021	0	0	0	
1	0	0	0	0	507	455	1021	0	0	0	
2	0	0	0	0	505	455	1021	0	0	0	
3	0	0	0	0	501	453	1021	0	0	0	
4	0	0	0	0	499	452	1021	0	0	0	
5	0	0	0	0	498	450	1021	0	0	0	
6	0	0	0	0	498	449	1021	0	0	0	
7	0	0	0	0	499	447	1021	0	0	0	
8	0	0	0	0	501	445	1021	0	0	0	
9	0	0	0	0	503	444	1020	0	0	0	
10	0	0	0	0	507	442	1021	0	0	0	
11	0	0	0	0	510	441	1021	0	0	0	
12	0	0	0	0	513	440	1021	0	0	0	
13	0	0	0	0	516	439	1021	0	0	0	
14	0	0	0	0	519	439	1021	0	0	0	
15	0	0	0	0	521	438	1021	0	0	0	
0	0	0	0	0	523	437	1021	0	0	0	
1	0	0	0	0	523	436	1021	0	0	0	
2	0	0	0	0	522	436	1020	0	0	0	
3	0	0	0	0	520	436	1020	0	0	0	
4	0	0	0	0	519	437	1021	0	0	0	
5	0	0	0	0	519	439	1021	0	0	0	
6	0	0	0	0	518	442	1021	0	0	0	
7	0	0	0	0	519	446	1021	0	0	0	
8	0	0	0	0	519	451	1020	0	0	0	
9	0	0	0	0	522	455	1021	0	0	0	
10	0	0	0	0	524	460	1021	0	0	0	
11	0	0	0	0	527	464	1021	0	0	0	
12	0	0	0	0	529	466	1020	0	0	0	
13	0	0	0	0	529	467	1020	0	0	0	
14	0	0	0	0	529	466	1021	0	0	0	
15	0	0	0	0	527	464	1021	0	0	0	
0	0	0	0	0	525	460	1021	0	0	0	
1	0	0	0	0	522	456	1021	0	0	0	
2	0	0	0	0	518	451	1020	0	0	0	
3	0	0	0	0	514	446	1021	0	0	0	
4	0	0	0	0	510	441	1021	0	0	0	
5	0	0	0	0	506	438	1021	0	0	0	
6	0	0	0	0	504	435	1021	0	0	0	
7	0	0	0	0	501	433	1020	0	0	0	
8	0	0	0	0	501	433	1021	0	0	0	
9	0	0	0	0	501	433	1021	0	0	0	
10	0	0	0	0	503	435	1021	0	0	0	
11	0	0	0	0	504	437	1021	0	0	0	
12	0	0	0	0	504	439	1020	0	0	0	
13	0	0	0	0	506	441	1021	0	0	0	
14	0	0	0	0	506	442	1021	0	0	0	
15	0	0	0	0	505	443	1021	0	0	0	
0	0	0	0	0	504	444	1021	0	0	0	
1	0	0	0	0	502	444	1021	0	0	0	
2	0	0	0	0	500	443	1021	0	0	0	
3	0	0	0	0	498	442	1021	0	0	0	
4	0	0	0	0	496	441	1021	0	0	0	
5	0	0	0	0	494	440	1020	0	0	0	
6	0	0	0	0	492	438	1021	0	0	0	
7	0	0	0	0	492	436	1021	0	0	0	
8	0	0	0	0	492	436	1021	0	0	0	
9	0	0	0	0	494	436	1021	0	0	0	
10	0	0	0	0	499	438	1021	0	0	0	
11	0	0	0	0	503	441	1020	0	0	0	
12	0	0	0	0	511	446	1021	0	0	0	
13	0	0	0	0	519	451	1021	0	0	0	
14	0	0	0	0	527	457	1021	0	0	0	
15	0	0	0	0	535	463	1021	0	0	0	
0	0	0	0	0	542	469	1021	0	0	0	
1	0	0	0	0	548	474	1021	0	0	0	
2	0	0	0	0	554	479	1021	0	0	0	
3	0	0	0	0	558	483	1021	0	0	0	
4	0	0	0	0	561	486	1021	0	0	0	
5	0	0	0	0	563	487	1021	0	0	0	
6	0	0	0	0	562	488	1021	0	0	0	
7	0	0	0	0	560	487	1021	0	0	0	
8	0	0	0	0	557	485	1021	0	0	0	
9	0	0	0	0	552	481	1021	0	0	0	
10	0	0	0	0	545	476	1020	0	0	0	
11	0	0	0	0	538	468	1021	0	0	0	
12	0	0	0	0	528	460	1021	0	0	0	
13	0	0	0	0	518	451	1021	0	0	0	
14	0	0	0	0	507	442	1021	0	0	0	
15	0	0	0	0	497	433	1021	0	0	0	
0	0	0	0	0	487	426	1021	0	0	0	
1	0	0	0	0	480	420	1021	0	0	0	
2	0	0	0	0	477	418	1021	0	0	0	
3	0	0	0	0	476	418	1021	0	0	0	
4	0	0	0	0	478	421	1020	0	0	0	
5	0	0	0	0	485	427	1021	0	0	0	
6	0	0	0	0	494	435	1021	0	0	0	
7	0	0	0	0	504	444	1021	0	0	0	
8	0	0	0	0	515	452	1021	0	0	0	
9	0	0	0	0	524	460	1020	0	0	0	
10	0	0	0	0	533	466	1021	0	0	0	
11	0	0	0	0	538	470	1021	0	0	0	
12	0	0	0	0	540	470	1021	0	0	0	
13	0	0	0	0	539	468	1020	0	0	0	
14	0	0	0	0	535	464	1020	0	0	0	
15	0	0	0	0	529	459	1021	0	0	0	
0	0	0	0	0	522	453	1021	0	0	0	
1	0	0	0	0	513	446	1021	0	0	0	
2	0	0	0	0	505	440	1020	0	0	0	
3	0	0	0	0	499	437	1020	0	0	0	
4	0	0	0	0	494	435	1021	0	0	0	
5	0	0	0	0	490	434	1021	0	0	0	
6	0	0	0	0	489	436	1021	0	0	0	
7	0	0	0	0	490	440	1021	0	0	0	
8	0	0	0	0	492	444	1021	0	0	0	
9	0	0	0	0	496	451	1021	0	0	0	
10	0	0	0	0	500	457	1021	0	0	0	
11	0	0	0	0	506	464	1021	0	0	0	
12	0	0	0	0	512	469	1021	0	0	0	
13	0	0	0	0	518	473	1021	0	0	0	
14	0	0	0	0	524	476	1021	0	0	0	
15	0	0	0	0	530	477	1021	0	0	0	
0	0	0	0	0	535	476	1021	0	0	0	
1	0	0	0	0	538	473	1021	0	0	0	
2	0	0	0	0	540	469	1021	0	0	0	
3	0	0	0	0	539	463	1021	0	0	0	
4	0	0	0	0	535	455	1021	0	0	0	
5	0	0	0	0	529	447	1021	0	0	0	
6	0	0	0	0	521	438	1021	0	0	0	
7	0	0	0	0	514	431	1021	0	0	0	
8	0	0	0	0	506	425	1021	0	0	0	
9	0	0	0	0	499	421	1021	0	0	0	
10	0	0	0	0	495	419	1021	0	0	0	
11	0	0	0	0	491	419	1021	0	0	0	
12	0	0	0	0	490	422	1021	0	0	0	
13	0	0	0	0	491	427	1021	0	0	0	
14	0	0	0	0	493	432	1021	0	0	0	
15	0	0	0	0	497	438	1021	0	0	0	
0	0	0	0	0	502	444	1021	0	0	0	
1	0	0	0	0	508	450	1021	0	0	0	
2	0	0	0	0	514	455	1021	0	0	0	
3	0	0	0	0	520	460	1021	0	0	0	
4	0	0	0	0	526	463	1021	0	0	0	
5	0	0	0	0	531	465	1021	0	0	0	
6	0	0	0	0	536	467	1021	0	0	0	
7	0	0	0	0	540	468	1021	0	0	0	
8	0	0	0	0	543	469	1021	0	0	0	
9	0	0	0	0	546	469	1021	0	0	0	
10	0	0	0	0	547	468	1021	0	0	0	
11	0	0	0	0	547	469	1021	0	0	0	
12	0	0	0	0	548	469	1021	0	0	0	
13	0	0	0	0	549	471	1021	0	0	0	
14	0	0	0	0	550	473	1021	0	0	0	
15	0	0	0	0	550	475	1021	0	0	0	
0	0	0	0	0	550	477	1021	0	0	0	
1	0	0	0	0	550	479	1021	0	0	0	
2	0	0	0	0	548	481	1021	0	0	0	
3	0	0	0	0	545	481	1021	0	0	0	
4	0	0	0	0	541	479	1020	0	0	0	
5	0	0	0	0	535	476	1021	0	0	0	
6	0	0	0	0	527	471	1021	0	0	0	
7	0	0	0	0	519	464	1021	0	0	0	
8	0	0	0	0	510	456	1021	0	0	0	
9	0	0	0	0	502	447	1021	0	0	0	
10	0	0	0	0	494	439	1020	0	0	0	
11	0	0	0	0	488	432	1021	0	0	0	
12	0	0	0	0	484	425	1021	0	0	0	
13	0	0	0	0	482	421	1021	0	0	0	
14	0	0	0	0	481	418	1021	0	0	0	
15	0	0	0	0	483	417	1021	0	0	0	
0	0	0	0	0	487	418	1021	0	0	0	
1	0	0	0	0	494	420	1021	0	0	0	
2	0	0	0	0	500	424	1021	0	0	0	
3	0	0	0	0	508	430	1021	0	0	0	
4	0	0	0	0	515	435	1021	0	0	0	
5	0	0	0	0	521	440	1021	0	0	0	
6	0	0	0	0	526	445	1021	0	0	0	
7	0	0	0	0	529	449	1021	0	0	0	
8	0	0	0	0	530	452	1021	0	0	0	
9	0	0	0	0	529	454	1021	0	0	0	
10	0	0	0	0	527	454	1021	0	0	0	
11	0	0	0	0	523	454	1021	0	0	0	
12	0	0	0	0	519	453	1021	0	0	0	
13	0	0	0	0	515	452	1021	0	0	0	
14	0	0	0	0	511	451	1020	0	0	0	
15	0	0	0	0	509	451	1021	0	0	0	
0	0	0	0	0	506	449	1021	0	0	0	
1	0	0	0	0	504	448	1021	0	0	0	
2	0	0	0	0	502	448	1020	0	0	0	
3	0	0	0	0	502	447	1021	0	0	0	
4	0	0	0	0	503	448	1021	0	0	0	
5	0	0	0	0	504	449	1021	0	0	0	
6	0	0	0	0	507	451	1021	0	0	0	
7	0	0	0	0	509	454	1021	0	0	0	
8	0	0	0	0	512	458	1021	0	0	0	
9	0	0	0	0	515	463	1021	0	0	0	
10	0	0	0	0	518	468	1021	0	0	0	
11	0	0	0	0	519	472	1021	0	0	0	
12	0	0	0	0	521	476	1021	0	0	0	
13	0	0	0	0	521	479	1020	0	0	0	
14	0	0	0	0	523	481	1021	0	0	0	
15	0	0	0	0	524	481	1021	0	0	0	
0	0	0	0	0	524	479	1021	0	0	0	
1	0	0	0	0	525	476	1021	0	0	0	
2	0	0	0	0	525	471	1021	0	0	0	
3	0	0	0	0	526	465	1021	0	0	0	
4	0	0	0	0	526	460	1021	0	0	0	
5	0	0	0	0	525	452	1021	0	0	0	
6	0	0	0	0	524	447	1020	0	0	0	
7	0	0	0	0	524	443	1021	0	0	0	
8	0	0	0	0	524	440	1021	0	0	0	
9	0	0	0	0	525	440	1021	0	0	0	
10	0	0	0	0	527	441	1021	0	0	0	
11	0	0	0	0	529	446	1021	0	0	0	
12	0	0	0	0	531	451	1020	0	0	0	
13	0	0	0	0	536	459	1021	0	0	0	
14	0	0	0	0	540	466	1021	0	0	0	
15	0	0	0	0	543	472	1021	0	0	0	
0	0	0	0	0	546	478	1021	0	0	0	
1	0	0	0	0	547	482	1021	0	0	0	
2	0	0	0	0	547	484	1021	0	0	0	
3	0	0	0	0	545	483	1021	0	0	0	
4	0	0	0	0	540	480	1021	0	0	0	
5	0	0	0	0	534	473	1021	0	0	0	
6	0	0	0	0	525	465	1021	0	0	0	
7	0	0	0	0	516	456	1021	0	0	0	
8	0	0	0	0	507	447	1021	0	0	0	
9	0	0	0	0	499	439	1021	0	0	0	
10	0	0	0	0	493	433	1021	0	0	0	
11	0	0	0	0	489	429	1020	0	0	0	
12	0	0	0	0	491	430	1021	0	0	0	
13	0	0	0	0	496	434	1021	0	0	0	
14	0	0	0	0	504	441	1021	0	0	0	
15	0	0	0	0	515	451	1021	0	0	0	
0	0	0	0	0	527	462	1021	0	0	0	
1	0	0	0	0	540	473	1021	0	0	0	
2	0	0	0	0	551	483	1021	0	0	0	
3	0	0	0	0	561	492	1021	0	0	0	
4	0	0	0	0	568	499	1021	0	0	0	
5	0	0	0	0	572	502	1021	0	0	0	
6	0	0	0	0	571	502	1021	0	0	0	
7	0	0	0	0	567	499	1021	0	0	0	
8	0	0	0	0	560	493	1021	0	0	0	
9	0	0	0	0	551	486	1021	0	0	0	
10	0	0	0	0	540	477	1020	0	0	0	
11	0	0	0	0	531	469	1021	0	0	0	
12	0	0	0	0	521	461	1021	0	0	0	
13	0	0	0	0	512	455	1021	0	0	0	
14	0	0	0	0	505	448	1021	0	0	0	
15	0	0	0	0	500	444	1021	0	0	0	
0	0	0	0	0	499	442	1021	0	0	0	
1	0	0	0	0	499	443	1021	0	0	0	
2	0	0	0	0	502	445	1021	0	0	0	
3	0	0	0	0	509	450	1021	0	0	0	
4	0	0	0	0	516	457	1020	0	0	0	
5	0	0	0	0	526	465	1021	0	0	0	
6	0	0	0	0	535	474	1021	0	0	0	
7	0	0	0	0	543	481	1021	0	0	0	
8	0	0	0	0	550	487	1021	0	0	0	
9	0	0	0	0	554	490	1021	0	0	0	
10	0	0	0	0	556	491	1021	0	0	0	
11	0	0	0	0	556	489	1021	0	0	0	
12	0	0	0	0	553	484	1021	0	0	0	
13	0	0	0	0	548	477	1021	0	0	0	
14	0	0	0	0	542	469	1021	0	0	0	
15	0	0	0	0	535	461	1021	0	0	0	
0	0	0	0	0	527	452	1021	0	0	0	
1	0	0	0	0	520	444	1020	0	0	0	
2	0	0	0	0	513	439	1021	0	0	0	
3	0	0	0	0	508	435	1020	0	0	0	
4	0	0	0	0	506	434	1021	0	0	0	
5	0	0	0	0	506	435	1021	0	0	0	
6	0	0	0	0	509	440	1021	0	0	0	
7	0	0	0	0	513	447	1021	0	0	0	
8	0	0	0	0	519	455	1020	0	0	0	
9	0	0	0	0	528	464	1021	0	0	0	
10	0	0	0	0	536	473	1021	0	0	0	
11	0	0	0	0	544	482	1021	0	0	0	
12	0	0	0	0	551	489	1021	0	0	0	
13	0	0	0	0	555	495	1021	0	0	0	
14	0	0	0	0	557	497	1021	0	0	0	
15	0	0	0	0	556	497	1021	0	0	0	
0	0	0	0	0	550	494	1021	0	0	0	
1	0	0	0	0	540	487	1021	0	0	0	
2	0	0	0	0	528	479	1020	0	0	0	
3	0	0	0	0	515	470	1021	0	0	0	
4	0	0	0	0	501	459	1021	0	0	0	
5	0	0	0	0	488	449	1021	0	0	0	
6	0	0	0	0	476	439	1021	0	0	0	
7	0	0	0	0	469	431	1021	0	0	0	
8	0	0	0	0	465	425	1021	0	0	0	
9	0	0	0	0	467	423	1021	0	0	0	
10	0	0	0	0	474	423	1021	0	0	0	
11	0	0	0	0	484	426	1021	0	0	0	
12	0	0	0	0	498	432	1021	0	0	0	
13	0	0	0	0	513	439	1021	0	0	0	
14	0	0	0	0	528	446	1021	0	0	0	
15	0	0	0	0	543	454	1021	0	0	0	
0	0	0	0	0	555	461	1021	0	0	0	
1	0	0	0	0	565	467	1021	0	0	0	
2	0	0	0	0	571	471	1021	0	0	0	
3	0	0	0	0	573	474	1021	0	0	0	
4	0	0	0	0	572	475	1021	0	0	0	
5	0	0	0	0	567	473	1021	0	0	0	
6	0	0	0	0	559	471	1021	0	0	0	
7	0	0	0	0	549	467	1021	0	0	0	
8	0	0	0	0	538	461	1021	0	0	0	
9	0	0	0	0	525	455	1021	0	0	0	
10	0	0	0	0	512	449	1021	0	0	0	
11	0	0	0	0	502	444	1021	0	0	0	
12	0	0	0	0	494	440	1021	0	0	0	
13	0	0	0	0	489	439	1021	0	0	0	
14	0	0	0	0	488	440	1021	0	0	0	
15	0	0	0	0	490	443	1021	0	0	0	
0	0	0	0	0	496	448	1021	0	0	0	
1	0	0	0	0	504	454	1021	0	0	0	
2	0	0	0	0	513	462	1021	0	0	0	
3	0	0	0	0	524	469	1021	0	0	0	
4	0	0	0	0	533	476	1020	0	0	0	
5	0	0	0	0	542	481	1021	0	0	0	
6	0	0	0	0	547	483	1021	0	0	0	
7	0	0	0	0	549	483	1021	0	0	0	
8	0	0	0	0	547	479	1021	0	0	0	
9	0	0	0	0	542	473	1021	0	0	0	
10	0	0	0	0	535	465	1021	0	0	0	
11	0	0	0	0	526	457	1021	0	0	0	
12	0	0	0	0	516	448	1021	0	0	0	
13	0	0	0	0	507	440	1021	0	0	0	
14	0	0	0	0	499	434	1021	0	0	0	
15	0	0	0	0	494	431	1021	0	0	0	
0	0	0	0	0	492	430	1021	0	0	0	
1	0	0	0	0	493	432	1021	0	0	0	
2	0	0	0	0	497	436	1021	0	0	0	
3	0	0	0	0	504	443	1021	0	0	0	
4	0	0	0	0	512	451	1021	0	0	0	
5	0	0	0	0	523	460	1021	0	0	0	
6	0	0	0	0	534	470	1021	0	0	0	
7	0	0	0	0	543	478	1021	0	0	0	
8	0	0	0	0	553	485	1021	0	0	0	
9	0	0	0	0	559	490	1021	0	0	0	
10	0	0	0	0	563	493	1021	0	0	0	
11	0	0	0	0	565	494	1021	0	0	0	
12	0	0	0	0	563	493	1021	0	0	0	
13	0	0	0	0	560	492	1021	0	0	0	
14	0	0	0	0	556	488	1021	0	0	0	
15	0	0	0	0	550	485	1021	0	0	0	
0	0	0	0	0	543	481	1021	0	0	0	
1	0	0	0	0	537	477	1021	0	0	0	
2	0	0	0	0	531	473	1021	0	0	0	
3	0	0	0	0	526	469	1021	0	0	0	
4	0	0	0	0	523	467	1021	0	0	0	
5	0	0	0	0	520	465	1021	0	0	0	
6	0	0	0	0	520	465	1021	0	0	0	
7	0	0	0	0	520	465	1021	0	0	0	
8	0	0	0	0	522	467	1021	0	0	0	
9	0	0	0	0	525	468	1021	0	0	0	
10	0	0	0	0	528	470	1021	0	0	0	
11	0	0	0	0	531	472	1021	0	0	0	
12	0	0	0	0	534	472	1021	0	0	0	
13	0	0	0	0	534	473	1021	0	0	0	
14	0	0	0	0	536	473	1021	0	0	0	
15	0	0	0	0	536	472	1021	0	0	0	
0	0	0	0	0	535	470	1021	0	0	0	
1	0	0	0	0	532	467	1021	0	0	0	
2	0	0	0	0	529	463	1021	0	0	0	
3	0	0	0	0	525	460	1021	0	0	0	
4	0	0	0	0	521	456	1021	0	0	0	
5	0	0	0	0	518	453	1021	0	0	0	
6	0	0	0	0	515	452	1020	0	0	0	
7	0	0	0	0	516	452	1020	0	0	0	
8	0	0	0	0	518	454	1021	0	0	0	
9	0	0	0	0	521	457	1021	0	0	0	
10	0	0	0	0	525	460	1021	0	0	0	
11	0	0	0	0	530	464	1021	0	0	0	
12	0	0	0	0	533	468	1020	0	0	0	
13	0	0	0	0	538	472	1021	0	0	0	
14	0	0	0	0	542	477	1021	0	0	0	
15	0	0	0	0	547	482	1021	0	0	0	
0	0	0	0	0	550	487	1021	0	0	0	
1	0	0	0	0	554	492	1021	0	0	0	
2	0	0	0	0	558	497	1021	0	0	0	
3	0	0	0	0	560	502	1021	0	0	0	
4	0	0	0	0	562	506	1021	0	0	0	
5	0	0	0	0	563	510	1020	0	0	0	
6	0	0	0	0	563	512	1021	0	0	0	
7	0	0	0	0	563	513	1021	0	0	0	
8	0	0	0	0	562	512	1021	0	0	0	
9	0	0	0	0	558	509	1021	0	0	0	
10	0	0	0	0	554	503	1021	0	0	0	
11	0	0	0	0	547	495	1021	0	0	0	
12	0	0	0	0	543	487	1021	0	0	0	
13	0	0	0	0	537	478	1021	0	0	0	
14	0	0	0	0	533	469	1021	0	0	0	
15	0	0	0	0	528	460	1021	0	0	0	
0	0	0	0	0	524	453	1021	0	0	0	
1	0	0	0	0	520	445	1021	0	0	0	
2	0	0	0	0	515	438	1021	0	0	0	
3	0	0	0	0	510	431	1021	0	0	0	
4	0	0	0	0	504	423	1021	0	0	0	
5	0	0	0	0	496	417	1021	0	0	0	
6	0	0	0	0	487	409	1021	0	0	0	
7	0	0	0	0	476	400	1021	0	0	0	
8	0	0	0	0	465	391	1021	0	0	0	
9	0	0	0	0	452	381	1021	0	0	0	
10	0	0	0	0	438	371	1021	0	0	0	
11	0	0	0	0	424	361	1021	0	0	0	
12	0	0	0	0	412	352	1021	0	0	0	
13	0	0	0	0	399	343	1021	0	0	0	
14	0	0	0	0	388	335	1021	0	0	0	
15	0	0	0	0	377	327	1021	0	0	0	
0	0	0	0	0	369	321	1021	0	0	0	
1	0	0	0	0	361	315	1021	0	0	0	
2	0	0	0	0	357	311	1021	0	0	0	
3	0	0	0	0	354	308	1021	0	0	0	
4	0	0	0	0	352	306	1020	0	0	0	
5	0	0	0	0	354	306	1021	0	0	0	
6	0	0	0	0	357	307	1021	0	0	0	
7	0	0	0	0	362	308	1021	0	0	0	
8	0	0	0	0	368	311	1021	0	0	0	
9	0	0	0	0	376	313	1020	0	0	0	
10	0	0	0	0	385	317	1021	0	0	0	
11	0	0	0	0	395	322	1021	0	0	0	
12	0	0	0	0	404	327	1021	0	0	0	
13	0	0	0	0	414	334	1021	0	0	0	
14	0	0	0	0	425	343	1021	0	0	0	
15	0	0	0	0	437	352	1021	0	0	0	
0	0	0	0	0	449	363	1021	0	0	0	
1	0	0	0	0	462	376	1021	0	0	0	
2	0	0	0	0	475	389	1021	0	0	0	
3	0	0	0	0	488	403	1021	0	0	0	
4	0	0	0	0	502	418	1021	0	0	0	
5	0	0	0	0	515	433	1021	0	0	0	
6	0	0	0	0	528	448	1021	0	0	0	
7	0	0	0	0	542	463	1021	0	0	0	
8	0	0	0	0	553	477	1021	0	0	0	
9	0	0	0	0	566	490	1021	0	0	0	
10	0	0	0	0	577	502	1021	0	0	0	
11	0	0	0	0	585	512	1021	0	0	0	
12	0	0	0	0	592	519	1020	0	0	0	
13	0	0	0	0	595	524	1020	0	0	0	
14	0	0	0	0	597	527	1021	0	0	0	
15	0	0	0	0	595	526	1021	0	0	0	
0	0	0	0	0	591	523	1021	0	0	0	
1	0	0	0	0	583	517	1021	0	0	0	
2	0	0	0	0	574	510	1021	0	0	0	
3	0	0	0	0	565	501	1021	0	0	0	
4	0	0	0	0	554	492	1021	0	0	0	
5	0	0	0	0	543	483	1021	0	0	0	
6	0	0	0	0	534	474	1020	0	0	0	
7	0	0	0	0	527	467	1020	0	0	0	
8	0	0	0	0	523	463	1021	0	0	0	
9	0	0	0	0	521	460	1021	0	0	0	
10	0	0	0	0	522	460	1021	0	0	0	
11	0	0	0	0	525	462	1021	0	0	0	
12	0	0	0	0	529	466	1020	0	0	0	
13	0	0	0	0	536	471	1021	0	0	0	
14	0	0	0	0	544	477	1021	0	0	0	
15	0	0	0	0	552	484	1021	0	0	0	
0	0	0	0	0	560	491	1021	0	0	0	
1	0	0	0	0	568	498	1021	0	0	0	
2	0	0	0	0	575	504	1021	0	0	0	
3	0	0	0	0	580	509	1021	0	0	0	
4	0	0	0	0	584	512	1021	0	0	0	
5	0	0	0	0	587	515	1020	0	0	0	
6	0	0	0	0	587	516	1021	0	0	0	
7	0	0	0	0	588	518	1021	0	0	0	
8	0	0	0	0	588	519	1021	0	0	0	
9	0	0	0	0	589	520	1020	0	0	0	
10	0	0	0	0	589	521	1021	0	0	0	
11	0	0	0	0	588	521	1020	0	0	0	
12	0	0	0	0	586	521	1021	0	0	0	
13	0	0	0	0	583	519	1021	0	0	0	
14	0	0	0	0	578	517	1021	0	0	0	
15	0	0	0	0	572	513	1021	0	0	0	
0	0	0	0	0	565	509	1021	0	0	0	
1	0	0	0	0	558	504	1021	0	0	0	
2	0	0	0	0	548	496	1021	0	0	0	
3	0	0	0	0	540	489	1021	0	0	0	
4	0	0	0	0	531	481	1021	0	0	0	
5	0	0	0	0	524	474	1021	0	0	0	
6	0	0	0	0	518	467	1021	0	0	0	
7	0	0	0	0	513	462	1021	0	0	0	
8	0	0	0	0	511	458	1021	0	0	0	
9	0	0	0	0	510	456	1021	0	0	0	
10	0	0	0	0	510	455	1021	0	0	0	
11	0	0	0	0	512	457	1021	0	0	0	
12	0	0	0	0	516	460	1021	0	0	0	
13	0	0	0	0	521	465	1021	0	0	0	
14	0	0	0	0	526	470	1021	0	0	0	
15	0	0	0	0	531	476	1021	0	0	0	
0	0	0	0	0	538	483	1021	0	0	0	
1	0	0	0	0	544	489	1021	0	0	0	
2	0	0	0	0	550	494	1021	0	0	0	
3	0	0	0	0	555	498	1021	0	0	0	
4	0	0	0	0	559	500	1021	0	0	0	
5	0	0	0	0	563	502	1021	0	0	0	
6	0	0	0	0	567	502	1021	0	0	0	
7	0	0	0	0	568	502	1021	0	0	0	
8	0	0	0	0	568	499	1021	0	0	0	
9	0	0	0	0	568	497	1021	0	0	0	
10	0	0	0	0	566	494	1021	0	0	0	
11	0	0	0	0	562	489	1021	0	0	0	
12	0	0	0	0	557	485	1021	0	0	0	
13	0	0	0	0	551	480	1020	0	0	0	
14	0	0	0	0	545	476	1020	0	0	0	
15	0	0	0	0	540	472	1021	0	0	0	
0	0	0	0	0	536	469	1021	0	0	0	
1	0	0	0	0	533	467	1021	0	0	0	
2	0	0	0	0	532	467	1021	0	0	0	
3	0	0	0	0	532	468	1021	0	0	0	
4	0	0	0	0	534	471	1021	0	0	0	
5	0	0	0	0	538	475	1021	0	0	0	
6	0	0	0	0	543	479	1021	0	0	0	
7	0	0	0	0	549	485	1020	0	0	0	
8	0	0	0	0	556	491	1020	0	0	0	
9	0	0	0	0	562	497	1021	0	0	0	
10	0	0	0	0	568	502	1021	0	0	0	
11	0	0	0	0	572	506	1021	0	0	0	
12	0	0	0	0	574	509	1021	0	0	0	
13	0	0	0	0	574	510	1020	0	0	0	
14	0	0	0	0	573	510	1021	0	0	0	
15	0	0	0	0	570	508	1021	0	0	0	
0	0	0	0	0	566	504	1021	0	0	0	
1	0	0	0	0	560	500	1021	0	0	0	
2	0	0	0	0	557	496	1021	0	0	0	
3	0	0	0	0	554	493	1021	0	0	0	
4	0	0	0	0	551	490	1021	0	0	0	
5	0	0	0	0	550	487	1020	0	0	0	
6	0	0	0	0	550	487	1021	1	0	0	
7	0	0	0	0	550	485	1021	0	0	0	
8	0	0	0	0	552	486	1021	0	0	0	
9	0	0	0	0	555	487	1021	0	0	0	
10	0	0	0	0	558	489	1021	0	0	0	
11	0	0	0	0	563	492	1021	0	0	0	
12	0	0	0	0	568	496	1020	0	0	0	
13	0	0	0	0	574	502	1021	0	0	0	
14	0	0	0	0	578	506	1021	0	0	0	
15	0	0	0	0	583	510	1021	0	0	0	
0	0	0	0	0	584	513	1021	0	0	0	
1	0	0	0	0	584	515	1021	0	0	0	
2	0	0	0	0	583	515	1021	0	0	0	
3	0	0	0	0	579	513	1021	0	0	0	
4	0	0	0	0	575	509	1021	0	0	0	
5	0	0	0	0	568	505	1021	0	0	0	
6	0	0	0	0	561	498	1020	0	0	0	
7	0	0	0	0	555	492	1021	0	0	0	
8	0	0	0	0	547	484	1021	0	0	0	
9	0	0	0	0	541	478	1021	0	0	0	
10	0	0	0	0	536	472	1021	0	0	0	
11	0	0	0	0	531	467	1020	0	0	0	
12	0	0	0	0	530	465	1021	0	0	0	
13	0	0	0	0	530	465	1021	0	0	0	
14	0	0	0	0	531	467	1021	0	0	0	
15	0	0	0	0	533	468	1021	0	0	0	
0	0	0	0	0	536	472	1021	0	0	0	
1	0	0	0	0	539	475	1021	0	0	0	
2	0	0	0	0	542	478	1021	0	0	0	
3	0	0	0	0	543	481	1021	0	0	0	
4	0	0	0	0	544	482	1020	0	0	0	
5	0	0	0	0	545	483	1021	0	0	0	
6	0	0	0	0	545	482	1021	0	0	0	
7	0	0	0	0	544	481	1021	0	0	0	
8	0	0	0	0	543	479	1020	0	0	0	
9	0	0	0	0	543	477	1021	0	0	0	
10	0	0	0	0	542	475	1020	0	0	0	
11	0	0	0	0	543	473	1021	0	0	0	
12	0	0	0	0	542	471	1021	0	0	0	
13	0	0	0	0	542	470	1021	0	0	0	
14	0	0	0	0	542	469	1021	0	0	0	
15	0	0	0	0	542	470	1021	0	0	0	
0	0	0	0	0	542	472	1021	0	0	0	
1	0	0	0	0	543	475	1021	0	0	0	
2	0	0	0	0	544	478	1021	0	0	0	
3	0	0	0	0	544	482	1021	0	0	0	
4	0	0	0	0	543	486	1021	0	0	0	
5	0	0	0	0	541	488	1021	0	0	0	
6	0	0	0	0	538	489	1021	0	0	0	
7	0	0	0	0	535	489	1021	0	0	0	
8	0	0	0	0	530	487	1021	0	0	0	
9	0	0	0	0	526	482	1021	0	0	0	
10	0	0	0	0	522	476	1021	0	0	0	
11	0	0	0	0	519	470	1021	0	0	0	
12	0	0	0	0	518	463	1021	0	0	0	
13	0	0	0	0	518	458	1021	0	0	0	
14	0	0	0	0	519	454	1020	0	0	0	
15	0	0	0	0	523	451	1021	0	0	0	
0	0	0	0	0	527	450	1021	0	0	0	
1	0	0	0	0	531	450	1021	0	0	0	
2	0	0	0	0	536	452	1021	0	0	0	
3	0	0	0	0	540	456	1021	0	0	0	
4	0	0	0	0	545	461	1021	0	0	0	
5	0	0	0	0	551	468	1021	0	0	0	
6	0	0	0	0	556	476	1021	0	0	0	
7	0	0	0	0	561	484	1021	0	0	0	
8	0	0	0	0	566	492	1021	0	0	0	
9	0	0	0	0	571	500	1021	0	0	0	
10	0	0	0	0	575	508	1021	0	0	0	
11	0	0	0	0	577	513	1021	0	0	0	
12	0	0	0	0	579	518	1021	0	0	0	
13	0	0	0	0	578	520	1020	0	0	0	
14	0	0	0	0	578	521	1021	0	0	0	
15	0	0	0	0	575	519	1021	0	0	0	
0	0	0	0	0	571	515	1021	0	0	0	
1	0	0	0	0	567	511	1021	0	0	0	
2	0	0	0	0	562	505	1020	0	0	0	
3	0	0	0	0	559	501	1021	0	0	0	
4	0	0	0	0	556	496	1021	0	0	0	
5	0	0	0	0	553	491	1021	0	0	0	
6	0	0	0	0	551	487	1021	0	0	0	
7	0	0	0	0	547	482	1021	0	0	0	
8	0	0	0	0	545	478	1021	0	0	0	
9	0	0	0	0	543	475	1021	0	0	0	
10	0	0	0	0	540	472	1021	0	0	0	
11	0	0	0	0	536	469	1021	0	0	0	
12	0	0	0	0	532	466	1020	0	0	0	
13	0	0	0	0	529	464	1021	0	0	0	
14	0	0	0	0	525	462	1021	0	0	0	
15	0	0	0	0	521	460	1021	0	0	0	
0	0	0	0	0	518	458	1021	0	0	0	
1	0	0	0	0	514	455	1021	0	0	0	
2	0	0	0	0	511	454	1021	0	0	0	
3	0	0	0	0	508	451	1021	0	0	0	
4	0	0	0	0	506	448	1021	0	0	0	
5	0	0	0	0	504	447	1020	0	0	0	
6	0	0	0	0	505	445	1021	0	0	0	
7	0	0	0	0	506	445	1021	0	0	0	
8	0	0	0	0	510	447	1021	0	0	0	
9	0	0	0	0	515	450	1021	0	0	0	
10	0	0	0	0	521	455	1021	0	0	0	
11	0	0	0	0	528	460	1020	0	0	0	
12	0	0	0	0	538	467	1021	0	0	0	
13	0	0	0	0	546	474	1021	0	0	0	
14	0	0	0	0	554	480	1021	0	0	0	
15	0	0	0	0	560	486	1021	0	0	0	
0	0	0	0	0	565	491	1021	0	0	0	
1	0	0	0	0	568	494	1021	0	0	0	
2	0	0	0	0	569	496	1021	0	0	0	
3	0	0	0	0	569	496	1021	0	0	0	
4	0	0	0	0	566	496	1021	0	0	0	
5	0	0	0	0	563	495	1021	0	0	0	
6	0	0	0	0	559	492	1021	0	0	0	
7	0	0	0	0	553	489	1021	0	0	0	
8	0	0	0	0	548	485	1021	0	0	0	
9	0	0	0	0	542	482	1021	0	0	0	
10	0	0	0	0	539	479	1021	0	0	0	
11	0	0	0	0	536	476	1021	0	0	0	
12	0	0	0	0	534	475	1021	0	0	0	
13	0	0	0	0	534	473	1021	0	0	0	
14	0	0	0	0	534	473	1021	0	0	0	
15	0	0	0	0	536	473	1021	0	0	0	
0	0	0	0	0	537	475	1021	0	0	0	
1	0	0	0	0	539	476	1021	0	0	0	
2	0	0	0	0	540	477	1021	0	0	0	
3	0	0	0	0	541	478	1021	0	0	0	
4	0	0	0	0	542	479	1021	0	0	0	
5	0	0	0	0	543	481	1021	0	0	0	
6	0	0	0	0	544	483	1021	0	0	0	
7	0	0	0	0	544	484	1021	0	0	0	
8	0	0	0	0	545	486	1021	0	0	0	
9	0	0	0	0	545	487	1021	0	0	0	
10	0	0	0	0	545	487	1021	0	0	0	
11	0	0	0	0	546	488	1021	0	0	0	
12	0	0	0	0	546	487	1021	0	0	0	
13	0	0	0	0	545	487	1021	0	0	0	
14	0	0	0	0	546	487	1021	0	0	0	
15	0	0	0	0	546	486	1021	0	0	0	
0	0	0	0	0	545	484	1021	0	0	0	
1	0	0	0	0	542	480	1021	0	0	0	
2	0	0	0	0	538	476	1021	0	0	0	
3	0	0	0	0	534	472	1021	0	0	0	
4	0	0	0	0	528	469	1021	0	0	0	
5	0	0	0	0	524	467	1021	0	0	0	
6	0	0	0	0	521	467	1021	0	0	0	
7	0	0	0	0	518	467	1021	0	0	0	
8	0	0	0	0	516	468	1021	0	0	0	
9	0	0	0	0	515	470	1021	0	0	0	
10	0	0	0	0	515	472	1021	0	0	0	
11	0	0	0	0	515	473	1021	0	0	0	
12	0	0	0	0	516	473	1021	0	0	0	
13	0	0	0	0	520	474	1021	0	0	0	
14	0	0	0	0	523	473	1021	0	0	0	
15	0	0	0	0	527	470	1021	0	0	0	
0	0	0	0	0	530	467	1021	0	0	0	
1	0	0	0	0	532	462	1021	0	0	0	
2	0	0	0	0	534	458	1021	0	0	0	
3	0	0	0	0	535	454	1021	0	0	0	
4	0	0	0	0	535	450	1021	0	0	0	
5	0	0	0	0	535	448	1021	0	0	0	
6	0	0	0	0	534	447	1021	0	0	0	
7	0	0	0	0	536	448	1021	0	0	0	
8	0	0	0	0	536	450	1021	0	0	0	
9	0	0	0	0	537	454	1021	0	0	0	
10	0	0	0	0	539	459	1021	0	0	0	
11	0	0	0	0	540	465	1021	0	0	0	
12	0	0	0	0	543	472	1021	0	0	0	
13	0	0	0	0	546	478	1021	0	0	0	
14	0	0	0	0	547	484	1021	0	0	0	
15	0	0	0	0	550	491	1021	0	0	0	
0	0	0	0	0	551	495	1021	0	0	0	
1	0	0	0	0	552	498	1021	0	0	0	
2	0	0	0	0	552	499	1021	0	0	0	
3	0	0	0	0	549	497	1021	0	0	0	
4	0	0	0	0	544	492	1021	0	0	0	
5	0	0	0	0	537	485	1021	0	0	0	
6	0	0	0	0	529	476	1021	0	0	0	
7	0	0	0	0	519	464	1021	0	0	0	
8	0	0	0	0	509	452	1021	0	0	0	
9	0	0	0	0	499	440	1021	0	0	0	
10	0	0	0	0	489	430	1021	0	0	0	
11	0	0	0	0	482	422	1021	0	0	0	
12	0	0	0	0	479	417	1021	0	0	0	
13	0	0	0	0	478	415	1021	0	0	0	
14	0	0	0	0	480	417	1021	0	0	0	
15	0	0	0	0	485	422	1021	0	0	0	
0	0	0	0	0	493	429	1021	0	0	0	
1	0	0	0	0	503	438	1021	0	0	0	
2	0	0	0	0	514	448	1021	0	0	0	
3	0	0	0	0	525	457	1021	0	0	0	
4	0	0	0	0	536	467	1021	0	0	0	
5	0	0	0	0	544	474	1021	0	0	0	
6	0	0	0	0	551	480	1021	0	0	0	
7	0	0	0	0	556	483	1021	0	0	0	
8	0	0	0	0	558	484	1021	0	0	0	
9	0	0	0	0	557	484	1021	0	0	0	
10	0	0	0	0	554	483	1021	0	0	0	
11	0	0	0	0	551	481	1021	0	0	0	
12	0	0	0	0	547	480	1021	0	0	0	
13	0	0	0	0	545	480	1021	0	0	0	
14	0	0	0	0	544	482	1021	0	0	0	
15	0	0	0	0	545	484	1021	0	0	0	
0	0	0	0	0	548	489	1021	0	0	0	
1	0	0	0	0	553	495	1021	0	0	0	
2	0	0	0	0	559	502	1021	0	0	0	
3	0	0	0	0	566	508	1021	0	0	0	
4	0	0	0	0	571	512	1021	0	0	0	
5	0	0	0	0	575	515	1021	0	0	0	
6	0	0	0	0	577	516	1021	0	0	0	
7	0	0	0	0	577	514	1021	0	0	0	
8	0	0	0	0	574	510	1021	0	0	0	
9	0	0	0	0	568	503	1020	0	0	0	
10	0	0	0	0	560	496	1021	0	0	0	
11	0	0	0	0	551	487	1021	0	0	0	
12	0	0	0	0	543	479	1021	0	0	0	
13	0	0	0	0	533	470	1021	0	0	0	
14	0	0	0	0	524	463	1020	0	0	0	
15	0	0	0	0	517	456	1021	0	0	0	
0	0	0	0	0	510	449	1021	0	0	0	
1	0	0	0	0	504	444	1021	0	0	0	
2	0	0	0	0	499	441	1021	0	0	0	
3	0	0	0	0	496	439	1021	0	0	0	
4	0	0	0	0	497	439	1021	0	0	0	
5	0	0	0	0	499	441	1021	0	0	0	
6	0	0	0	0	504	446	1021	0	0	0	
7	0	0	0	0	510	452	1021	0	0	0	
8	0	0	0	0	517	459	1021	0	0	0	
9	0	0	0	0	526	466	1021	0	0	0	
10	0	0	0	0	535	473	1021	0	0	0	
11	0	0	0	0	542	479	1021	0	0	0	
12	0	0	0	0	547	483	1021	0	0	0	
13	0	0	0	0	552	486	1021	0	0	0	
14	0	0	0	0	554	487	1021	0	0	0	
15	0	0	0	0	554	486	1021	0	0	0	
0	0	0	0	0	553	484	1021	0	0	0	
1	0	0	0	0	552	481	1021	0	0	0	
2	0	0	0	0	551	480	1021	0	0	0	
3	0	0	0	0	549	478	1021	0	0	0	
4	0	0	0	0	547	477	1021	0	0	0	
5	0	0	0	0	546	476	1021	0	0	0	
6	0	0	0	0	544	476	1021	0	0	0	
7	0	0	0	0	544	478	1021	0	0	0	
8	0	0	0	0	543	479	1021	0	0	0	
9	0	0	0	0	542	480	1021	0	0	0	
10	0	0	0	0	541	482	1021	0	0	0	
11	0	0	0	0	539	482	1021	0	0	0	
12	0	0	0	0	537	483	1021	0	0	0	
13	0	0	0	0	535	484	1021	0	0	0	
14	0	0	0	0	532	483	1021	0	0	0	
15	0	0	0	0	530	483	1021	0	0	0	
0	0	0	0	0	527	482	1021	0	0	0	
1	0	0	0	0	525	481	1021	0	0	0	
2	0	0	0	0	523	480	1021	0	0	0	
3	0	0	0	0	520	477	1021	0	0	0	
4	0	0	0	0	517	472	1021	0	0	0	
5	0	0	0	0	514	467	1021	0	0	0	
6	0	0	0	0	511	462	1021	0	0	0	
7	0	0	0	0	510	456	1021	0	0	0	
8	0	0	0	0	510	450	1021	0	0	0	
9	0	0	0	0	511	446	1021	0	0	0	
10	0	0	0	0	513	443	1021	0	0	0	
11	0	0	0	0	517	441	1021	0	0	0	
12	0	0	0	0	523	442	1021	0	0	0	
13	0	0	0	0	529	445	1021	0	0	0	
14	0	0	0	0	536	450	1021	0	0	0	
15	0	0	0	0	542	455	1021	0	0	0	
0	0	0	0	0	547	461	1021	0	0	0	
1	0	0	0	0	551	467	1021	0	0	0	
2	0	0	0	0	553	472	1021	0	0	0	
3	0	0	0	0	553	475	1021	0	0	0	
4	0	0	0	0	551	477	1021	0	0	0	
5	0	0	0	0	548	478	1020	0	0	0	
6	0	0	0	0	545	479	1021	0	0	0	
7	0	0	0	0	541	479	1021	0	0	0	
8	0	0	0	0	537	479	1021	0	0	0	
9	0	0	0	0	534	478	1021	0	0	0	
10	0	0	0	0	532	477	1021	0	0	0	
11	0	0	0	0	531	477	1021	0	0	0	
12	0	0	0	0	531	476	1021	0	0	0	
13	0	0	0	0	532	475	1021	0	0	0	
14	0	0	0	0	532	474	1020	0	0	0	
15	0	0	0	0	535	474	1021	0	0	0	
0	0	0	0	0	536	474	1021	0	0	0	
1	0	0	0	0	537	474	1021	0	0	0	
2	0	0	0	0	539	475	1021	0	0	0	
3	0	0	0	0	540	476	1021	0	0	0	
4	0	0	0	0	540	476	1020	0	0	0	
5	0	0	0	0	541	478	1021	0	0	0	
6	0	0	0	0	543	480	1021	0	0	0	
7	0	0	0	0	543	482	1021	0	0	0	
8	0	0	0	0	544	483	1021	0	0	0	
9	0	0	0	0	544	484	1021	0	0	0	
10	0	0	0	0	544	483	1021	0	0	0	
11	0	0	0	0	543	483	1021	0	0	0	
12	0	0	0	0	542	481	1021	0	0	0	
13	0	0	0	0	540	479	1021	0	0	0	
14	0	0	0	0	538	476	1021	0	0	0	
15	0	0	0	0	536	473	1021	0	0	0	
0	0	0	0	0	534	470	1021	0	0	0	
1	0	0	0	0	532	466	1021	0	0	0	
2	0	0	0	0	530	463	1021	0	0	0	
3	0	0	0	0	528	461	1020	0	0	0	
4	0	0	0	0	527	460	1021	0	0	0	
5	0	0	0	0	527	459	1021	0	0	0	
6	0	0	0	0	527	459	1021	0	0	0	
7	0	0	0	0	527	459	1021	0	0	0	
8	0	0	0	0	527	460	1021	0	0	0	
9	0	0	0	0	528	462	1021	0	0	0	
10	0	0	0	0	529	463	1021	0	0	0	
11	0	0	0	0	530	465	1021	0	0	0	
12	0	0	0	0	531	466	1021	0	0	0	
13	0	0	0	0	531	467	1021	0	0	0	
14	0	0	0	0	532	468	1021	0	0	0	
15	0	0	0	0	533	468	1021	0	0	0	
0	0	0	0	0	533	468	1020	0	0	0	
1	0	0	0	0	533	468	1021	0	0	0	
2	0	0	0	0	534	468	1021	0	0	0	
3	0	0	0	0	535	469	1021	0	0	0	
4	0	0	0	0	536	469	1021	0	0	0	
5	0	0	0	0	536	470	1021	0	0	0	
6	0	0	0	0	536	470	1021	0	0	0	
7	0	0	0	0	536	470	1021	0	0	0	
8	0	0	0	0	537	471	1021	0	0	0	
9	0	0	0	0	536	472	1021	0	0	0	
10	0	0	0	0	536	473	1021	0	0	0	
11	0	0	0	0	536	474	1021	0	0	0	
12	0	0	0	0	536	476	1021	0	0	0	
13	0	0	0	0	536	478	1021	0	0	0	
14	0	0	0	0	536	480	1021	0	0	0	
15	0	0	0	0	537	482	1021	0	0	0	
0	0	0	0	0	538	485	1021	0	0	0	
1	0	0	0	0	540	487	1020	0	0	0	
2	0	0	0	0	543	489	1021	0	0	0	
3	0	0	0	0	546	491	1021	0	0	0	
4	0	0	0	0	549	492	1021	0	0	0	
5	0	0	0	0	552	492	1021	0	0	0	
6	0	0	0	0	554	491	1021	0	0	0	
7	0	0	0	0	555	488	1021	0	0	0	
8	0	0	0	0	554	484	1021	0	0	0	
9	0	0	0	0	552	480	1021	0	0	0	
10	0	0	0	0	550	475	1021	0	0	0	
11	0	0	0	0	545	470	1020	0	0	0	
12	0	0	0	0	541	467	1021	0	0	0	
13	0	0	0	0	536	463	1021	0	0	0	
14	0	0	0	0	532	462	1021	0	0	0	
15	0	0	0	0	529	460	1021	0	0	0	
0	0	0	0	0	527	462	1021	0	0	0	
1	0	0	0	0	526	463	1021	0	0	0	
2	0	0	0	0	526	465	1021	0	0	0	
3	0	0	0	0	527	468	1021	0	0	0	
4	0	0	0	0	528	472	1021	0	0	0	
5	0	0	0	0	530	474	1021	0	0	0	
6	0	0	0	0	531	476	1021	0	0	0	
7	0	0	0	0	532	478	1021	0	0	0	
8	0	0	0	0	532	478	1021	0	0	0	
9	0	0	0	0	533	479	1021	0	0	0	
10	0	0	0	0	532	479	1020	0	0	0	
11	0	0	0	0	533	480	1021	0	0	0	
12	0	0	0	0	534	481	1021	0	0	0	
13	0	0	0	0	535	482	1021	0	0	0	
14	0	0	0	0	536	484	1021	0	0	0	
15	0	0	0	0	539	487	1021	0	0	0	
0	0	0	0	0	543	490	1021	0	0	0	
1	0	0	0	0	549	493	1021	0	0	0	
2	0	0	0	0	554	496	1021	0	0	0	
3	0	0	0	0	561	498	1021	0	0	0	
4	0	0	0	0	566	500	1020	0	0	0	
5	0	0	0	0	572	502	1021	0	0	0	
6	0	0	0	0	577	502	1021	0	0	0	
7	0	0	0	0	581	503	1021	0	0	0	
8	0	0	0	0	582	501	1021	0	0	0	
9	0	0	0	0	580	498	1021	0	0	0	
10	0	0	0	0	576	494	1021	0	0	0	
11	0	0	0	0	569	487	1021	0	0	0	
12	0	0	0	0	558	479	1021	0	0	0	
13	0	0	0	0	547	471	1021	0	0	0	
14	0	0	0	0	536	463	1021	0	0	0	
15	0	0	0	0	525	457	1021	0	0	0	
0	0	0	0	0	516	451	1021	0	0	0	
1	0	0	0	0	509	447	1021	0	0	0	
2	0	0	0	0	504	444	1021	0	0	0	
3	0	0	0	0	503	444	1021	0	0	0	
4	0	0	0	0	504	446	1021	0	0	0	
5	0	0	0	0	509	449	1021	0	0	0	
6	0	0	0	0	516	455	1021	0	0	0	
7	0	0	0	0	525	462	1021	0	0	0	
8	0	0	0	0	535	469	1021	0	0	0	
9	0	0	0	0	545	476	1021	0	0	0	
10	0	0	0	0	553	481	1021	0	0	0	
11	0	0	0	0	560	486	1021	0	0	0	
12	0	0	0	0	565	489	1021	0	0	0	
13	0	0	0	0	566	489	1021	0	0	0	
14	0	0	0	0	565	488	1021	0	0	0	
15	0	0	0	0	561	485	1021	0	0	0	
0	0	0	0	0	554	480	1021	0	0	0	
1	0	0	0	0	545	473	1021	0	0	0	
2	0	0	0	0	536	467	1020	0	0	0	
3	0	0	0	0	527	461	1021	0	0	0	
4	0	0	0	0	518	455	1021	0	0	0	
5	0	0	0	0	510	451	1021	0	0	0	
6	0	0	0	0	505	449	1021	0	0	0	
7	0	0	0	0	503	449	1021	0	0	0	
8	0	0	0	0	504	450	1021	0	0	0	
9	0	0	0	0	506	453	1021	0	0	0	
10	0	0	0	0	510	456	1021	0	0	0	
11	0	0	0	0	514	460	1021	0	0	0	
12	0	0	0	0	518	463	1020	0	0	0	
13	0	0	0	0	524	466	1021	0	0	0	
14	0	0	0	0	527	469	1021	0	0	0	
15	0	0	0	0	531	471	1021	0	0	0	
0	0	0	0	0	533	471	1021	0	0	0	
1	0	0	0	0	534	470	1021	0	0	0	
2	0	0	0	0	534	469	1021	0	0	0	
3	0	0	0	0	532	467	1021	0	0	0	
4	0	0	0	0	530	463	1021	0	0	0	
5	0	0	0	0	528	460	1021	0	0	0	
6	0	0	0	0	525	457	1021	0	0	0	
7	0	0	0	0	523	455	1021	0	0	0	
8	0	0	0	0	521	452	1021	0	0	0	
9	0	0	0	0	520	451	1021	0	0	0	
10	0	0	0	0	519	451	1021	0	0	0	
11	0	0	0	0	520	451	1020	0	0	0	
12	0	0	0	0	524	454	1021	0	0	0	
13	0	0	0	0	528	458	1021	0	0	0	
14	0	0	0	0	534	464	1021	0	0	0	
15	0	0	0	0	541	470	1021	0	0	0	
0	0	0	0	0	548	478	1020	0	0	0	
1	0	0	0	0	557	486	1021	0	0	0	
2	0	0	0	0	564	493	1021	0	0	0	
3	0	0	0	0	570	499	1021	0	0	0	
4	0	0	0	0	573	502	1021	0	0	0	
5	0	0	0	0	574	504	1021	0	0	0	
6	0	0	0	0	571	502	1021	0	0	0	
7	0	0	0	0	566	497	1021	0	0	0	
8	0	0	0	0	557	490	1021	0	0	0	
9	0	0	0	0	546	481	1020	0	0	0	
10	0	0	0	0	534	471	1021	0	0	0	
11	0	0	0	0	523	461	1021	0	0	0	
12	0	0	0	0	513	452	1021	0	0	0	
13	0	0	0	0	504	445	1021	0	0	0	
14	0	0	0	0	499	441	1020	0	0	0	
15	0	0	0	0	498	441	1020	0	0	0	
0	0	0	0	0	502	444	1021	0	0	0	
1	0	0	0	0	508	451	1021	0	0	0	
2	0	0	0	0	518	461	1021	0	0	0	
3	0	0	0	0	529	472	1021	0	0	0	
4	0	0	0	0	540	484	1020	0	0	0	
5	0	0	0	0	551	496	1021	0	0	0	
6	0	0	0	0	559	505	1021	0	0	0	
7	0	0	0	0	564	512	1021	0	0	0	
8	0	0	0	0	565	516	1021	0	0	0	
9	0	0	0	0	562	515	1021	0	0	0	
10	0	0	0	0	556	510	1021	0	0	0	
11	0	0	0	0	547	502	1021	0	0	0	
12	0	0	0	0	537	492	1021	0	0	0	
13	0	0	0	0	528	480	1021	0	0	0	
14	0	0	0	0	519	468	1021	0	0	0	
15	0	0	0	0	513	458	1021	0	0	0	
0	0	0	0	0	509	448	1021	0	0	0	
1	0	0	0	0	508	442	1021	0	0	0	
2	0	0	0	0	509	438	1021	0	0	0	
3	0	0	0	0	512	436	1020	0	0	0	
4	0	0	0	0	519	439	1021	0	0	0	
5	0	0	0	0	528	443	1021	0	0	0	
6	0	0	0	0	538	450	1021	0	0	0	
7	0	0	0	0	548	458	1021	0	0	0	
8	0	0	0	0	558	467	1021	0	0	0	
9	0	0	0	0	568	477	1021	0	0	0	
10	0	0	0	0	576	487	1021	0	0	0	
11	0	0	0	0	583	496	1021	0	0	0	
12	0	0	0	0	589	504	1021	0	0	0	
13	0	0	0	0	592	510	1021	0	0	0	
14	0	0	0	0	593	515	1021	0	0	0	
15	0	0	0	0	591	516	1021	0	0	0	
0	0	0	0	0	585	514	1021	0	0	0	
1	0	0	0	0	575	508	1021	0	0	0	
2	0	0	0	0	563	498	1021	0	0	0	
3	0	0	0	0	547	486	1021	0	0	0	
4	0	0	0	0	529	472	1021	0	0	0	
5	0	0	0	0	512	458	1021	0	0	0	
6	0	0	0	0	495	444	1020	0	0	0	
7	0	0	0	0	481	433	1021	0	0	0	
8	0	0	0	0	472	426	1021	0	0	0	
9	0	0	0	0	468	422	1021	0	0	0	
10	0	0	0	0	469	423	1021	0	0	0	
11	0	0	0	0	474	427	1021	0	0	0	
12	0	0	0	0	483	434	1020	0	0	0	
13	0	0	0	0	496	444	1021	0	0	0	
14	0	0	0	0	510	454	1021	0	0	0	
15	0	0	0	0	524	465	1021	0	0	0	
0	0	0	0	0	537	474	1021	0	0	0	
1	0	0	0	0	549	483	1021	0	0	0	
2	0	0	0	0	559	488	1021	0	0	0	
3	0	0	0	0	565	492	1021	0	0	0	
4	0	0	0	0	568	493	1021	0	0	0	
5	0	0	0	0	568	492	1021	0	0	0	
6	0	0	0	0	566	489	1021	0	0	0	
7	0	0	0	0	562	486	1021	0	0	0	
8	0	0	0	0	556	481	1021	0	0	0	
9	0	0	0	0	549	476	1021	0	0	0	
10	0	0	0	0	541	470	1021	0	0	0	
11	0	0	0	0	533	465	1021	0	0	0	
12	0	0	0	0	526	460	1021	0	0	0	
13	0	0	0	0	520	457	1021	0	0	0	
14	0	0	0	0	516	455	1021	0	0	0	
15	0	0	0	0	513	455	1021	0	0	0	
0	0	0	0	0	513	456	1021	0	0	0	
1	0	0	0	0	514	459	1021	0	0	0	
2	0	0	0	0	517	461	1021	0	0	0	
3	0	0	0	0	520	464	1021	0	0	0	
4	0	0	0	0	523	466	1021	0	0	0	
5	0	0	0	0	526	467	1021	0	0	0	
6	0	0	0	0	528	466	1021	0	0	0	
7	0	0	0	0	527	463	1021	0	0	0	
8	0	0	0	0	523	457	1021	0	0	0	
9	0	0	0	0	517	449	1020	0	0	0	
10	0	0	0	0	509	441	1021	0	0	0	
11	0	0	0	0	500	432	1021	0	0	0	
12	0	0	0	0	490	422	1021	0	0	0	
13	0	0	0	0	480	412	1021	0	0	0	
14	0	0	0	0	470	403	1021	0	0	0	
15	0	0	0	0	462	396	1021	0	0	0	
0	0	0	0	0	454	389	1021	0	0	0	
1	0	0	0	0	448	384	1021	0	0	0	
2	0	0	0	0	442	378	1021	0	0	0	
3	0	0	0	0	435	372	1021	0	0	0	
4	0	0	0	0	429	367	1021	0	0	0	
5	0	0	0	0	420	359	1021	0	0	0	
6	0	0	0	0	410	350	1021	0	0	0	
7	0	0	0	0	399	339	1021	0	0	0	
8	0	0	0	0	385	327	1021	0	0	0	
9	0	0	0	0	371	316	1021	0	0	0	
10	0	0	0	0	357	303	1021	0	0	0	
11	0	0	0	0	344	291	1021	0	0	0	
12	0	0	0	0	332	281	1021	0	0	0	
13	0	0	0	0	324	272	1021	0	0	0	
14	0	0	0	0	319	268	1021	0	0	0	
15	0	0	0	0	319	266	1021	0	0	0	
0	0	0	0	0	325	269	1021	0	0	0	
1	0	0	0	0	336	277	1021	0	0	0	
2	0	0	0	0	352	291	1020	0	0	0	
3	0	0	0	0	375	309	1021	0	0	0	
4	0	0	0	0	402	333	1021	0	0	0	
5	0	0	0	0	433	361	1021	0	0	0	
6	0	0	0	0	464	390	1021	0	0	0	
7	0	0	0	0	494	419	1020	0	0	0	
8	0	0	0	0	522	447	1021	0	0	0	
9	0	0	0	0	545	471	1021	0	0	0	
10	0	0	0	0	562	490	1021	0	0	0	
11	0	0	0	0	573	504	1021	0	0	0	
12	0	0	0	0	577	512	1020	0	0	0	
13	0	0	0	0	576	515	1021	0	0	0	
14	0	0	0	0	571	514	1021	0	0	0	
15	0	0	0	0	564	508	1021	0	0	0	
0	0	0	0	0	556	499	1021	0	0	0	
1	0	0	0	0	547	489	1020	0	0	0	
2	0	0	0	0	539	479	1021	0	0	0	
3	0	0	0	0	532	469	1021	0	0	0	
4	0	0	0	0	528	461	1021	0	0	0	
5	0	0	0	0	525	454	1021	0	0	0	
6	0	0	0	0	524	450	1021	0	0	0	
7	0	0	0	0	525	448	1021	0	0	0	
8	0	0	0	0	527	449	1021	0	0	0	
9	0	0	0	0	531	452	1021	0	0	0	
10	0	0	0	0	535	456	1021	0	0	0	
11	0	0	0	0	538	462	1021	0	0	0	
12	0	0	0	0	540	467	1020	0	0	0	
13	0	0	0	0	543	472	1021	0	0	0	
14	0	0	0	0	543	476	1021	0	0	0	
15	0	0	0	0	543	479	1021	0	0	0	
0	0	0	0	0	542	479	1021	0	0	0	
1	0	0	0	0	539	478	1021	0	0	0	
2	0	0	0	0	535	475	1021	0	0	0	
3	0	0	0	0	530	471	1021	0	0	0	
4	0	0	0	0	525	465	1020	0	0	0	
5	0	0	0	0	521	460	1021	0	0	0	
6	0	0	0	0	517	454	1021	0	0	0	
7	0	0	0	0	515	450	1021	0	0	0	
8	0	0	0	0	514	448	1021	0	0	0	
9	0	0	0	0	514	446	1021	0	0	0	
10	0	0	0	0	517	447	1021	0	0	0	
11	0	0	0	0	521	449	1021	0	0	0	
12	0	0	0	0	528	454	1021	0	0	0	
13	0	0	0	0	536	460	1021	0	0	0	
14	0	0	0	0	544	467	1021	0	0	0	
15	0	0	0	0	552	474	1021	0	0	0	
0	0	0	0	0	560	481	1021	0	0	0	
1	0	0	0	0	566	488	1021	0	0	0	
2	0	0	0	0	572	494	1021	0	0	0	
3	0	0	0	0	575	499	1021	0	0	0	
4	0	0	0	0	577	502	1021	0	0	0	
5	0	0	0	0	577	504	1021	0	0	0	
6	0	0	0	0	577	505	1021	0	0	0	
7	0	0	0	0	574	504	1021	0	0	0	
8	0	0	0	0	570	502	1021	0	0	0	
9	0	0	0	0	566	500	1021	0	0	0	
10	0	0	0	0	560	497	1021	0	0	0	
11	0	0	0	0	556	494	1021	0	0	0	
12	0	0	0	0	551	491	1021	0	0	0	
13	0	0	0	0	547	487	1021	0	0	0	
14	0	0	0	0	543	485	1021	0	0	0	
15	0	0	0	0	540	483	1021	0	0	0	
0	0	0	0	0	538	481	1021	0	0	0	
1	0	0	0	0	538	481	1021	0	0	0	
2	0	0	0	0	540	483	1021	0	0	0	
3	0	0	0	0	543	484	1021	0	0	0	
4	0	0	0	0	548	487	1020	0	0	0	
5	0	0	0	0	553	489	1021	0	0	0	
6	0	0	0	0	558	491	1021	0	0	0	
7	0	0	0	0	561	491	1021	0	0	0	
8	0	0	0	0	562	490	1020	0	0	0	
9	0	0	0	0	560	486	1021	0	0	0	
10	0	0	0	0	557	483	1021	0	0	0	
11	0	0	0	0	551	476	1021	0	0	0	
12	0	0	0	0	543	470	1021	0	0	0	
13	0	0	0	0	535	462	1021	0	0	0	
14	0	0	0	0	525	455	1020	0	0	0	
15	0	0	0	0	516	448	1021	0	0	0	
0	0	0	0	0	508	442	1021	0	0	0	
1	0	0	0	0	502	438	1021	0	0	0	
2	0	0	0	0	497	435	1021	0	0	0	
3	0	0	0	0	498	438	1021	0	0	0	
4	0	0	0	0	503	443	1021	0	0	0	
5	0	0	0	0	510	451	1021	0	0	0	
6	0	0	0	0	520	460	1021	0	0	0	
7	0	0	0	0	531	470	1021	0	0	0	
8	0	0	0	0	542	479	1021	0	0	0	
9	0	0	0	0	551	487	1021	0	0	0	
10	0	0	0	0	558	493	1021	0	0	0	
11	0	0	0	0	562	496	1021	0	0	0	
12	0	0	0	0	562	496	1021	0	0	0	
13	0	0	0	0	559	492	1021	0	0	0	
14	0	0	0	0	552	487	1021	0	0	0	
15	0	0	0	0	543	479	1021	0	0	0	
0	0	0	0	0	532	470	1021	0	0	0	
1	0	0	0	0	521	460	1021	0	0	0	
2	0	0	0	0	511	450	1021	0	0	0	
3	0	0	0	0	502	443	1021	0	0	0	
4	0	0	0	0	496	438	1021	0	0	0	
5	0	0	0	0	494	435	1021	0	0	0	
6	0	0	0	0	494	437	1021	0	0	0	
7	0	0	0	0	498	441	1021	0	0	0	
8	0	0	0	0	506	449	1021	0	0	0	
9	0	0	0	0	516	459	1021	0	0	0	
10	0	0	0	0	527	471	1021	0	0	0	
11	0	0	0	0	538	483	1021	0	0	0	
12	0	0	0	0	548	493	1021	0	0	0	
13	0	0	0	0	558	504	1021	0	0	0	
14	0	0	0	0	566	512	1021	0	0	0	
15	0	0	0	0	571	517	1021	0	0	0	
0	0	0	0	0	574	519	1021	0	0	0	
1	0	0	0	0	574	516	1021	0	0	0	
2	0	0	0	0	573	512	1021	0	0	0	
3	0	0	0	0	568	504	1021	0	0	0	
4	0	0	0	0	563	494	1021	0	0	0	
5	0	0	0	0	556	483	1021	0	0	0	
6	0	0	0	0	548	472	1021	0	0	0	
7	0	0	0	0	542	462	1021	0	0	0	
8	0	0	0	0	537	454	1021	0	0	0	
9	0	0	0	0	532	447	1021	0	0	0	
10	0	0	0	0	528	443	1021	0	0	0	
11	0	0	0	0	527	440	1021	0	0	0	
12	0	0	0	0	526	441	1021	0	0	0	
13	0	0	0	0	526	443	1021	0	0	0	
14	0	0	0	0	527	446	1021	0	0	0	
15	0	0	0	0	528	449	1021	0	0	0	
0	0	0	0	0	530	454	1021	0	0	0	
1	0	0	0	0	532	460	1021	0	0	0	
2	0	0	0	0	535	465	1021	0	0	0	
3	0	0	0	0	536	468	1020	0	0	0	
4	0	0	0	0	536	471	1021	0	0	0	
5	0	0	0	0	536	472	1021	0	0	0	
6	0	0	0	0	535	472	1021	0	0	0	
7	0	0	0	0	533	470	1021	0	0	0	
8	0	0	0	0	530	467	1021	0	0	0	
9	0	0	0	0	526	463	1021	0	0	0	
10	0	0	0	0	521	459	1021	0	0	0	
11	0	0	0	0	518	455	1021	0	0	0	
12	0	0	0	0	514	451	1021	0	0	0	
13	0	0	0	0	510	447	1021	0	0	0	
14	0	0	0	0	508	445	1021	0	0	0	
15	0	0	0	0	507	444	1021	0	0	0	
0	0	0	0	0	508	445	1021	0	0	0	
1	0	0	0	0	509	446	1021	0	0	0	
2	0	0	0	0	511	448	1021	0	0	0	
3	0	0	0	0	514	451	1021	0	0	0	
4	0	0	0	0	517	454	1020	0	0	0	
5	0	0	0	0	520	456	1021	0	0	0	
6	0	0	0	0	522	459	1021	0	0	0	
7	0	0	0	0	525	461	1021	0	0	0	
8	0	0	0	0	527	462	1021	0	0	0	
9	0	0	0	0	528	463	1021	0	0	0	
10	0	0	0	0	530	464	1021	0	0	0	
11	0	0	0	0	531	464	1021	0	0	0	
12	0	0	0	0	530	463	1021	0	0	0	
13	0	0	0	0	529	460	1021	0	0	0	
14	0	0	0	0	526	457	1021	0	0	0	
15	0	0	0	0	524	453	1021	0	0	0	
0	0	0	0	0	521	449	1021	0	0	0	
1	0	0	0	0	518	446	1021	0	0	0	
2	0	0	0	0	515	443	1021	0	0	0	
3	0	0	0	0	512	441	1021	0	0	0	
4	0	0	0	0	511	441	1021	0	0	0	
5	0	0	0	0	511	442	1021	0	0	0	
6	0	0	0	0	512	446	1021	0	0	0	
7	0	0	0	0	515	449	1021	0	0	0	
8	0	0	0	0	519	455	1021	0	0	0	
9	0	0	0	0	524	461	1021	0	0	0	
10	0	0	0	0	529	467	1021	0	0	0	
11	0	0	0	0	535	473	1021	0	0	0	
12	0	0	0	0	541	479	1021	0	0	0	
13	0	0	0	0	545	483	1021	0	0	0	
14	0	0	0	0	550	487	1021	0	0	0	
15	0	0	0	0	552	488	1021	0	0	0	
0	0	0	0	0	553	488	1021	0	0	0	
1	0	0	0	0	553	487	1021	0	0	0	
2	0	0	0	0	551	485	1021	0	0	0	
3	0	0	0	0	548	482	1021	0	0	0	
4	0	0	0	0	543	477	1021	0	0	0	
5	0	0	0	0	538	472	1021	0	0	0	
6	0	0	0	0	531	467	1020	0	0	0	
7	0	0	0	0	526	462	1021	0	0	0	
8	0	0	0	0	521	459	1021	0	0	0	
9	0	0	0	0	519	456	1021	0	0	0	
10	0	0	0	0	518	456	1021	0	0	0	
11	0	0	0	0	519	457	1021	0	0	0	
12	0	0	0	0	523	460	1021	0	0	0	
13	0	0	0	0	530	466	1021	0	0	0	
14	0	0	0	0	538	473	1021	0	0	0	
15	0	0	0	0	547	480	1021	0	0	0	
0	0	0	0	0	555	487	1021	0	0	0	
1	0	0	0	0	562	493	1021	0	0	0	
2	0	0	0	0	567	496	1021	0	0	0	
3	0	0	0	0	568	497	1021	0	0	0	
4	0	0	0	0	567	495	1021	0	0	0	
5	0	0	0	0	562	491	1020	0	0	0	
6	0	0	0	0	555	485	1021	0	0	0	
7	0	0	0	0	546	478	1021	0	0	0	
8	0	0	0	0	537	470	1021	0	0	0	
9	0	0	0	0	527	462	1020	0	0	0	
10	0	0	0	0	517	454	1021	0	0	0	
11	0	0	0	0	508	446	1021	0	0	0	
12	0	0	0	0	500	441	1021	0	0	0	
13	0	0	0	0	496	438	1021	0	0	0	
14	0	0	0	0	492	437	1021	0	0	0	
15	0	0	0	0	492	438	1021	0	0	0	
0	0	0	0	0	494	441	1021	0	0	0	
1	0	0	0	0	499	446	1021	0	0	0	
2	0	0	0	0	504	451	1021	0	0	0	
3	0	0	0	0	511	457	1021	0	0	0	
4	0	0	0	0	517	461	1021	0	0	0	
5	0	0	0	0	521	464	1021	0	0	0	
6	0	0	0	0	524	465	1021	0	0	0	
7	0	0	0	0	524	463	1021	0	0	0	
8	0	0	0	0	523	459	1021	0	0	0	
9	0	0	0	0	521	454	1021	0	0	0	
10	0	0	0	0	519	449	1021	0	0	0	
11	0	0	0	0	518	444	1021	0	0	0	
12	0	0	0	0	517	441	1021	0	0	0	
13	0	0	0	0	517	438	1021	0	0	0	
14	0	0	0	0	518	437	1021	0	0	0	
15	0	0	0	0	520	438	1021	0	0	0	
0	0	0	0	0	523	440	1021	0	0	0	
1	0	0	0	0	526	443	1021	0	0	0	
2	0	0	0	0	530	448	1021	0	0	0	
3	0	0	0	0	534	453	1021	0	0	0	
4	0	0	0	0	536	458	1021	0	0	0	
5	0	0	0	0	540	464	1021	0	0	0	
6	0	0	0	0	542	468	1021	0	0	0	
7	0	0	0	0	543	472	1021	0	0	0	
8	0	0	0	0	543	473	1021	0	0	0	
9	0	0	0	0	540	474	1021	0	0	0	
10	0	0	0	0	537	472	1021	0	0	0	
11	0	0	0	0	532	469	1021	0	0	0	
12	0	0	0	0	526	463	1021	0	0	0	
13	0	0	0	0	519	457	1021	0	0	0	
14	0	0	0	0	511	450	1021	0	0	0	
15	0	0	0	0	504	443	1021	0	0	0	
0	0	0	0	0	497	436	1021	0	0	0	
1	0	0	0	0	492	431	1021	0	0	0	
2	0	0	0	0	488	427	1021	0	0	0	
3	0	0	0	0	487	424	1021	0	0	0	
4	0	0	0	0	488	426	1021	0	0	0	
5	0	0	0	0	492	429	1021	0	0	0	
6	0	0	0	0	497	433	1021	0	0	0	
7	0	0	0	0	504	440	1021	0	0	0	
8	0	0	0	0	513	447	1021	0	0	0	
9	0	0	0	0	522	456	1021	0	0	0	
10	0	0	0	0	532	465	1021	0	0	0	
11	0	0	0	0	542	474	1021	0	0	0	
12	0	0	0	0	552	482	1021	0	0	0	
13	0	0	0	0	561	491	1021	0	0	0	
14	0	0	0	0	569	496	1021	0	0	0	
15	0	0	0	0	574	500	1021	0	0	0	
0	0	0	0	0	575	502	1021	0	0	0	
1	0	0	0	0	574	500	1021	0	0	0	
2	0	0	0	0	570	496	1021	0	0	0	
3	0	0	0	0	565	492	1021	0	0	0	
4	0	0	0	0	558	487	1021	0	0	0	
5	0	0	0	0	550	481	1021	0	0	0	
6	0	0	0	0	543	475	1021	0	0	0	
7	0	0	0	0	536	472	1021	0	0	0	
8	0	0	0	0	532	468	1021	0	0	0	
9	0	0	0	0	527	465	1021	0	0	0	
10	0	0	0	0	524	463	1021	0	0	0	
11	0	0	0	0	521	461	1021	0	0	0	
12	0	0	0	0	518	459	1021	0	0	0	
13	0	0	0	0	515	457	1021	0	0	0	
14	0	0	0	0	513	455	1021	0	0	0	
15	0	0	0	0	511	454	1021	0	0	0	
0	0	0	0	0	508	452	1021	0	0	0	
1	0	0	0	0	504	449	1021	0	0	0	
2	0	0	0	0	500	445	1021	0	0	0	
3	0	0	0	0	495	440	1021	0	0	0	
4	0	0	0	0	491	435	1021	0	0	0	
5	0	0	0	0	487	431	1021	0	0	0	
6	0	0	0	0	483	427	1021	0	0	0	
7	0	0	0	0	483	425	1021	0	0	0	
8	0	0	0	0	483	423	1021	0	0	0	
9	0	0	0	0	485	424	1021	0	0	0	
10	0	0	0	0	489	425	1021	0	0	0	
11	0	0	0	0	494	428	1021	0	0	0	
12	0	0	0	0	500	434	1021	0	0	0	
13	0	0	0	0	508	440	1021	0	0	0	
14	0	0	0	0	515	448	1021	0	0	0	
15	0	0	0	0	524	455	1021	0	0	0	
0	0	0	0	0	531	464	1021	0	0	0	
1	0	0	0	0	537	471	1021	0	0	0	
2	0	0	0	0	542	477	1021	0	0	0	
3	0	0	0	0	545	481	1021	0	0	0	
4	0	0	0	0	546	483	1021	0	0	0	
5	0	0	0	0	544	483	1021	0	0	0	
6	0	0	0	0	540	480	1021	0	0	0	
7	0	0	0	0	534	475	1021	0	0	0	
8	0	0	0	0	526	468	1021	0	0	0	
9	0	0	0	0	519	461	1021	0	0	0	
10	0	0	0	0	512	455	1021	0	0	0	
11	0	0	0	0	508	451	1021	0	0	0	
12	0	0	0	0	505	448	1021	0	0	0	
13	0	0	0	0	505	448	1021	0	0	0	
14	0	0	0	0	508	450	1021	0	0	0	
15	0	0	0	0	513	454	1021	0	0	0	
0	0	0	0	0	521	461	1021	0	0	0	
1	0	0	0	0	529	470	1021	0	0	0	
2	0	0	0	0	537	478	1021	0	0	0	
3	0	0	0	0	544	487	1021	0	0	0	
4	0	0	0	0	550	495	1021	0	0	0	
5	0	0	0	0	553	500	1021	0	0	0	
6	0	0	0	0	553	502	1021	0	0	0	
7	0	0	0	0	550	500	1021	0	0	0	
8	0	0	0	0	545	496	1021	0	0	0	
9	0	0	0	0	537	488	1021	0	0	0	
10	0	0	0	0	530	479	1021	0	0	0	
11	0	0	0	0	523	468	1021	0	0	0	
12	0	0	0	0	516	458	1021	0	0	0	
13	0	0	0	0	511	448	1021	0	0	0	
14	0	0	0	0	508	438	1021	0	0	0	
15	0	0	0	0	506	432	1021	0	0	0	
0	0	0	0	0	505	426	1021	0	0	0	
1	0	0	0	0	505	422	1021	0	0	0	
2	0	0	0	0	505	421	1021	0	0	0	
3	0	0	0	0	507	422	1021	0	0	0	
4	0	0	0	0	510	425	1021	0	0	0	
5	0	0	0	0	514	430	1021	0	0	0	
6	0	0	0	0	518	437	1021	0	0	0	
7	0	0	0	0	523	444	1021	0	0	0	
8	0	0	0	0	527	453	1021	0	0	0	
9	0	0	0	0	534	461	1021	0	0	0	
10	0	0	0	0	539	468	1021	0	0	0	
11	0	0	0	0	544	475	1021	0	0	0	
12	0	0	0	0	548	478	1021	0	0	0	
13	0	0	0	0	550	480	1021	0	0	0	
14	0	0	0	0	549	478	1021	0	0	0	
15	0	0	0	0	544	472	1021	0	0	0	
0	0	0	0	0	537	464	1021	0	0	0	
1	0	0	0	0	528	455	1021	0	0	0	
2	0	0	0	0	519	445	1021	0	0	0	
3	0	0	0	0	509	435	1021	0	0	0	
4	0	0	0	0	500	427	1021	0	0	0	
5	0	0	0	0	492	419	1021	0	0	0	
6	0	0	0	0	485	414	1021	0	0	0	
7	0	0	0	0	480	412	1021	0	0	0	
8	0	0	0	0	478	411	1021	0	0	0	
9	0	0	0	0	479	413	1021	0	0	0	
10	0	0	0	0	482	417	1021	0	0	0	
11	0	0	0	0	486	423	1021	0	0	0	
12	0	0	0	0	493	430	1020	0	0	0	
13	0	0	0	0	499	436	1021	0	0	0	
14	0	0	0	0	506	443	1021	0	0	0	
15	0	0	0	0	512	449	1021	0	0	0	
0	0	0	0	0	516	454	1021	0	0	0	
1	0	0	0	0	520	459	1021	0	0	0	
2	0	0	0	0	523	462	1021	0	0	0	
3	0	0	0	0	523	463	1021	0	0	0	
4	0	0	0	0	521	463	1021	0	0	0	
5	0	0	0	0	519	461	1021	0	0	0	
6	0	0	0	0	515	459	1021	0	0	0	
7	0	0	0	0	512	456	1021	0	0	0	
8	0	0	0	0	508	453	1021	0	0	0	
9	0	0	0	0	505	449	1021	0	0	0	
10	0	0	0	0	503	447	1021	0	0	0	
11	0	0	0	0	502	445	1021	0	0	0	
12	0	0	0	0	504	445	1021	0	0	0	
13	0	0	0	0	508	446	1021	0	0	0	
14	0	0	0	0	514	449	1021	0	0	0	
15	0	0	0	0	522	454	1021	0	0	0	
0	0	0	0	0	530	460	1021	0	0	0	
1	0	0	0	0	540	467	1021	0	0	0	
2	0	0	0	0	548	472	1021	0	0	0	
3	0	0	0	0	554	477	1021	0	0	0	
4	0	0	0	0	556	478	1021	0	0	0	
5	0	0	0	0	555	476	1021	0	0	0	
6	0	0	0	0	550	472	1021	0	0	0	
7	0	0	0	0	542	466	1021	0	0	0	
8	0	0	0	0	531	457	1021	0	0	0	
9	0	0	0	0	518	448	1021	0	0	0	
10	0	0	0	0	506	438	1021	0	0	0	
11	0	0	0	0	494	428	1021	0	0	0	
12	0	0	0	0	483	420	1021	0	0	0	
13	0	0	0	0	474	413	1021	0	0	0	
14	0	0	0	0	468	408	1021	0	0	0	
15	0	0	0	0	464	407	1021	0	0	0	
0	0	0	0	0	465	408	1021	0	0	0	
1	0	0	0	0	468	411	1021	0	0	0	
2	0	0	0	0	474	417	1021	0	0	0	
3	0	0	0	0	482	423	1021	0	0	0	
4	0	0	0	0	490	431	1021	0	0	0	
5	0	0	0	0	499	439	1021	0	0	0	
6	0	0	0	0	508	446	1021	0	0	0	
7	0	0	0	0	516	453	1021	0	0	0	
8	0	0	0	0	523	458	1021	0	0	0	
9	0	0	0	0	529	463	1021	0	0	0	
10	0	0	0	0	534	467	1021	0	0	0	
11	0	0	0	0	537	469	1021	0	0	0	
12	0	0	0	0	540	470	1021	0	0	0	
13	0	0	0	0	541	470	1021	0	0	0	
14	0	0	0	0	542	469	1021	0	0	0	
15	0	0	0	0	541	467	1021	0	0	0	
0	0	0	0	0	540	465	1021	0	0	0	
1	0	0	0	0	539	463	1021	0	0	0	
2	0	0	0	0	536	460	1021	0	0	0	
3	0	0	0	0	534	458	1021	0	0	0	
4	0	0	0	0	532	457	1021	0	0	0	
5	0	0	0	0	529	455	1021	0	0	0	
6	0	0	0	0	525	453	1021	0	0	0	
7	0	0	0	0	520	450	1021	0	0	0	
8	0	0	0	0	514	447	1021	0	0	0	
9	0	0	0	0	508	444	1021	0	0	0	
10	0	0	0	0	501	440	1021	0	0	0	
11	0	0	0	0	494	436	1021	0	0	0	
12	0	0	0	0	486	432	1021	0	0	0	
13	0	0	0	0	478	429	1021	0	0	0	
14	0	0	0	0	472	427	1021	0	0	0	
15	0	0	0	0	467	425	1021	0	0	0	
0	0	0	0	0	464	424	1021	0	0	0	
1	0	0	0	0	463	425	1020	0	0	0	
2	0	0	0	0	466	427	1021	0	0	0	
3	0	0	0	0	470	430	1021	0	0	0	
4	0	0	0	0	478	434	1021	0	0	0	
5	0	0	0	0	487	439	1021	0	0	0	
6	0	0	0	0	500	444	1021	0	0	0	
7	0	0	0	0	513	449	1021	0	0	0	
8	0	0	0	0	527	455	1021	0	0	0	
9	0	0	0	0	541	460	1021	0	0	0	
10	0	0	0	0	554	466	1021	0	0	0	
11	0	0	0	0	564	471	1021	0	0	0	
12	0	0	0	0	572	475	1021	0	0	0	
13	0	0	0	0	577	478	1021	0	0	0	
14	0	0	0	0	578	479	1021	0	0	0	
15	0	0	0	0	575	479	1021	0	0	0	
0	0	0	0	0	571	477	1021	0	0	0	
1	0	0	0	0	563	474	1021	0	0	0	
2	0	0	0	0	555	470	1021	0	0	0	
3	0	0	0	0	544	465	1021	0	0	0	
4	0	0	0	0	534	460	1021	0	0	0	
5	0	0	0	0	523	455	1021	0	0	0	
6	0	0	0	0	514	450	1021	0	0	0	
7	0	0	0	0	507	447	1021	0	0	0	
8	0	0	0	0	502	444	1021	0	0	0	
9	0	0	0	0	499	443	1021	0	0	0	
10	0	0	0	0	499	443	1021	0	0	0	
11	0	0	0	0	500	444	1021	0	0	0	
12	0	0	0	0	505	447	1021	0	0	0	
13	0	0	0	0	511	451	1021	0	0	0	
14	0	0	0	0	518	456	1021	0	0	0	
15	0	0	0	0	525	462	1021	0	0	0	
0	0	0	0	0	532	467	1021	0	0	0	
1	0	0	0	0	539	472	1021	0	0	0	
2	0	0	0	0	543	475	1021	0	0	0	
3	0	0	0	0	547	477	1020	0	0	0	
4	0	0	0	0	547	476	1021	0	0	0	
5	0	0	0	0	543	473	1021	0	0	0	
6	0	0	0	0	538	469	1021	0	0	0	
7	0	0	0	0	531	463	1021	0	0	0	
8	0	0	0	0	522	455	1021	0	0	0	
9	0	0	0	0	512	446	1021	0	0	0	
10	0	0	0	0	502	438	1021	0	0	0	
11	0	0	0	0	494	432	1021	0	0	0	
12	0	0	0	0	487	426	1021	0	0	0	
13	0	0	0	0	483	422	1021	0	0	0	
14	0	0	0	0	482	422	1021	0	0	0	
15	0	0	0	0	484	423	1021	0	0	0	
0	0	0	0	0	491	428	1021	0	0	0	
1	0	0	0	0	499	434	1021	0	0	0	
2	0	0	0	0	510	443	1021	0	0	0	
3	0	0	0	0	522	451	1021	0	0	0	
4	0	0	0	0	534	460	1021	0	0	0	
5	0	0	0	0	546	469	1021	0	0	0	
6	0	0	0	0	556	477	1021	0	0	0	
7	0	0	0	0	564	483	1021	0	0	0	
8	0	0	0	0	570	487	1021	0	0	0	
9	0	0	0	0	573	489	1021	0	0	0	
10	0	0	0	0	573	491	1021	0	0	0	
11	0	0	0	0	569	489	1021	0	0	0	
12	0	0	0	0	563	486	1021	0	0	0	
13	0	0	0	0	555	481	1021	0	0	0	
14	0	0	0	0	544	474	1021	0	0	0	
15	0	0	0	0	534	468	1021	0	0	0	
0	0	0	0	0	523	462	1021	0	0	0	
1	0	0	0	0	512	455	1021	0	0	0	
2	0	0	0	0	503	449	1021	0	0	0	
3	0	0	0	0	495	445	1021	0	0	0	
4	0	0	0	0	490	441	1021	0	0	0	
5	0	0	0	0	487	439	1021	0	0	0	
6	0	0	0	0	485	438	1021	0	0	0	
7	0	0	0	0	485	438	1021	0	0	0	
8	0	0	0	0	487	440	1021	0	0	0	
9	0	0	0	0	491	442	1021	0	0	0	
10	0	0	0	0	496	445	1021	0	0	0	
11	0	0	0	0	502	448	1021	0	0	0	
12	0	0	0	0	507	451	1021	0	0	0	
13	0	0	0	0	511	454	1021	0	0	0	
14	0	0	0	0	516	457	1021	0	0	0	
15	0	0	0	0	520	460	1021	0	0	0	
0	0	0	0	0	523	463	1021	0	0	0	
1	0	0	0	0	527	467	1021	0	0	0	
2	0	0	0	0	530	469	1021	0	0	0	
3	0	0	0	0	534	473	1021	0	0	0	
4	0	0	0	0	537	477	1021	0	0	0	
5	0	0	0	0	540	480	1021	0	0	0	
6	0	0	0	0	543	484	1021	0	0	0	
7	0	0	0	0	545	487	1021	0	0	0	
8	0	0	0	0	547	490	1021	0	0	0	
9	0	0	0	0	547	492	1021	0	0	0	
10	0	0	0	0	547	493	1021	0	0	0	
11	0	0	0	0	544	492	1021	0	0	0	
12	0	0	0	0	540	490	1021	0	0	0	
13	0	0	0	0	535	486	1021	0	0	0	
14	0	0	0	0	529	480	1021	0	0	0	
15	0	0	0	0	523	473	1021	0	0	0	
0	0	0	0	0	516	465	1021	0	0	0	
1	0	0	0	0	511	456	1021	0	0	0	
2	0	0	0	0	508	448	1021	0	0	0	
3	0	0	0	0	504	440	1021	0	0	0	
4	0	0	0	0	503	433	1021	0	0	0	
5	0	0	0	0	502	427	1021	0	0	0	
6	0	0	0	0	502	423	1021	0	0	0	
7	0	0	0	0	504	422	1021	0	0	0	
8	0	0	0	0	507	422	1021	0	0	0	
9	0	0	0	0	511	423	1021	0	0	0	
10	0	0	0	0	516	428	1021	0	0	0	
11	0	0	0	0	521	433	1021	0	0	0	
12	0	0	0	0	528	441	1021	0	0	0	
13	0	0	0	0	536	449	1021	0	0	0	
14	0	0	0	0	542	457	1021	0	0	0	
15	0	0	0	0	546	464	1020	0	0	0	
0	0	0	0	0	549	471	1021	0	0	0	
1	0	0	0	0	550	474	1021	0	0	0	
2	0	0	0	0	548	476	1021	0	0	0	
3	0	0	0	0	544	476	1021	0	0	0	
4	0	0	0	0	540	474	1021	0	0	0	
5	0	0	0	0	533	470	1021	0	0	0	
6	0	0	0	0	526	465	1021	0	0	0	
7	0	0	0	0	518	458	1021	0	0	0	
8	0	0	0	0	510	451	1021	0	0	0	
9	0	0	0	0	502	443	1021	0	0	0	
10	0	0	0	0	495	435	1021	0	0	0	
11	0	0	0	0	489	429	1021	0	0	0	
12	0	0	0	0	486	423	1021	0	0	0	
13	0	0	0	0	484	421	1021	0	0	0	
14	0	0	0	0	485	420	1021	0	0	0	
15	0	0	0	0	487	422	1021	0	0	0	
0	0	0	0	0	493	425	1021	0	0	0	
1	0	0	0	0	499	430	1021	0	0	0	
2	0	0	0	0	507	436	1021	0	0	0	
3	0	0	0	0	515	443	1021	0	0	0	
4	0	0	0	0	521	449	1021	0	0	0	
5	0	0	0	0	528	457	1021	0	0	0	
6	0	0	0	0	534	462	1021	0	0	0	
7	0	0	0	0	539	466	1021	0	0	0	
8	0	0	0	0	541	468	1021	0	0	0	
9	0	0	0	0	541	469	1021	0	0	0	
10	0	0	0	0	539	467	1021	0	0	0	
11	0	0	0	0	533	463	1021	0	0	0	
12	0	0	0	0	526	457	1021	0	0	0	
13	0	0	0	0	517	450	1021	0	0	0	
14	0	0	0	0	506	441	1021	0	0	0	
15	0	0	0	0	497	433	1021	0	0	0	
0	0	0	0	0	487	426	1021	0	0	0	
1	0	0	0	0	480	420	1021	0	0	0	
2	0	0	0	0	475	415	1021	0	0	0	
3	0	0	0	0	472	412	1021	0	0	0	
4	0	0	0	0	472	413	1021	0	0	0	
5	0	0	0	0	476	416	1021	0	0	0	
6	0	0	0	0	481	422	1021	0	0	0	
7	0	0	0	0	489	429	1021	0	0	0	
8	0	0	0	0	499	438	1021	0	0	0	
9	0	0	0	0	510	447	1021	0	0	0	
10	0	0	0	0	520	456	1021	0	0	0	
11	0	0	0	0	531	465	1021	0	0	0	
12	0	0	0	0	541	474	1021	0	0	0	
13	0	0	0	0	548	480	1021	0	0	0	
14	0	0	0	0	554	485	1021	0	0	0	
15	0	0	0	0	558	487	1021	0	0	0	
0	0	0	0	0	558	487	1021	0	0	0	
1	0	0	0	0	557	486	1021	0	0	0	
2	0	0	0	0	553	483	1021	0	0	0	
3	0	0	0	0	548	478	1021	0	0	0	
4	0	0	0	0	542	472	1021	0	0	0	
5	0	0	0	0	535	467	1021	0	0	0	
6	0	0	0	0	527	461	1021	0	0	0	
7	0	0	0	0	521	457	1021	0	0	0	
8	0	0	0	0	517	454	1021	0	0	0	
9	0	0	0	0	514	453	1021	0	0	0	
10	0	0	0	0	513	454	1021	0	0	0	
11	0	0	0	0	513	456	1021	0	0	0	
12	0	0	0	0	515	459	1021	0	0	0	
13	0	0	0	0	517	463	1021	0	0	0	
14	0	0	0	0	519	467	1021	0	0	0	
15	0	0	0	0	520	470	1021	0	0	0	
0	0	0	0	0	520	472	1021	0	0	0	
1	0	0	0	0	519	472	1021	0	0	0	
2	0	0	0	0	518	472	1021	0	0	0	
3	0	0	0	0	515	470	1021	0	0	0	
4	0	0	0	0	513	465	1021	0	0	0	
5	0	0	0	0	511	460	1021	0	0	0	
6	0	0	0	0	510	455	1021	0	0	0	
7	0	0	0	0	511	451	1021	0	0	0	
8	0	0	0	0	513	447	1021	0	0	0	
9	0	0	0	0	517	444	1021	0	0	0	
10	0	0	0	0	522	442	1021	0	0	0	
11	0	0	0	0	530	444	1021	0	0	0	
12	0	0	0	0	539	448	1021	0	0	0	
13	0	0	0	0	548	454	1021	0	0	0	
14	0	0	0	0	556	459	1021	0	0	0	
15	0	0	0	0	561	464	1021	0	0	0	
0	0	0	0	0	564	468	1021	0	0	0	
1	0	0	0	0	564	471	1021	0	0	0	
2	0	0	0	0	560	472	1021	0	0	0	
3	0	0	0	0	554	472	1021	0	0	0	
4	0	0	0	0	546	472	1021	0	0	0	
5	0	0	0	0	537	470	1021	0	0	0	
6	0	0	0	0	527	468	1021	0	0	0	
7	0	0	0	0	518	464	1021	0	0	0	
8	0	0	0	0	509	460	1021	0	0	0	
9	0	0	0	0	501	455	1021	0	0	0	
10	0	0	0	0	494	449	1021	0	0	0	
11	0	0	0	0	489	444	1021	0	0	0	
12	0	0	0	0	486	439	1021	0	0	0	
13	0	0	0	0	485	435	1021	0	0	0	
14	0	0	0	0	487	433	1021	0	0	0	
15	0	0	0	0	492	433	1021	0	0	0	
0	0	0	0	0	498	435	1021	0	0	0	
1	0	0	0	0	505	438	1021	0	0	0	
2	0	0	0	0	514	443	1021	0	0	0	
3	0	0	0	0	522	448	1021	0	0	0	
4	0	0	0	0	529	452	1021	0	0	0	
5	0	0	0	0	536	459	1021	0	0	0	
6	0	0	0	0	541	464	1021	0	0	0	
7	0	0	0	0	544	468	1021	0	0	0	
8	0	0	0	0	545	471	1020	0	0	0	
9	0	0	0	0	543	472	1021	0	0	0	
10	0	0	0	0	539	469	1021	0	0	0	
11	0	0	0	0	531	463	1021	0	0	0	
12	0	0	0	0	521	455	1021	0	0	0	
13	0	0	0	0	509	444	1021	0	0	0	
14	0	0	0	0	495	432	1021	0	0	0	
15	0	0	0	0	481	419	1021	0	0	0	
0	0	0	0	0	465	404	1021	0	0	0	
1	0	0	0	0	451	391	1021	0	0	0	
2	0	0	0	0	436	378	1021	0	0	0	
3	0	0	0	0	424	367	1020	0	0	0	
4	0	0	0	0	414	358	1021	0	0	0	
5	0	0	0	0	407	351	1021	0	0	0	
6	0	0	0	0	402	346	1021	0	0	0	
7	0	0	0	0	399	342	1021	0	0	0	
8	0	0	0	0	396	338	1021	0	0	0	
9	0	0	0	0	394	335	1021	0	0	0	
10	0	0	0	0	391	331	1021	0	0	0	
11	0	0	0	0	386	325	1021	0	0	0	
12	0	0	0	0	380	317	1021	0	0	0	
13	0	0	0	0	371	307	1021	0	0	0	
14	0	0	0	0	362	297	1021	0	0	0	
15	0	0	0	0	352	286	1021	0	0	0	
0	0	0	0	0	342	276	1021	0	0	0	
1	0	0	0	0	334	268	1021	0	0	0	
2	0	0	0	0	328	261	1021	0	0	0	
3	0	0	0	0	326	259	1021	0	0	0	
4	0	0	0	0	328	261	1021	0	0	0	
5	0	0	0	0	335	267	1021	0	0	0	
6	0	0	0	0	348	278	1021	0	0	0	
7	0	0	0	0	367	294	1021	0	0	0	
8	0	0	0	0	390	316	1021	0	0	0	
9	0	0	0	0	418	341	1021	0	0	0	
10	0	0	0	0	448	368	1021	0	0	0	
11	0	0	0	0	479	396	1021	0	0	0	
12	0	0	0	0	508	422	1021	0	0	0	
13	0	0	0	0	534	447	1021	0	0	0	
14	0	0	0	0	556	467	1021	0	0	0	
15	0	0	0	0	572	483	1021	0	0	0	
0	0	0	0	0	583	494	1021	0	0	0	
1	0	0	0	0	588	500	1021	0	0	0	
2	0	0	0	0	588	503	1021	0	0	0	
3	0	0	0	0	583	503	1021	0	0	0	
4	0	0	0	0	575	500	1021	0	0	0	
5	0	0	0	0	566	496	1021	0	0	0	
6	0	0	0	0	556	491	1021	0	0	0	
7	0	0	0	0	545	486	1021	0	0	0	
8	0	0	0	0	536	480	1021	0	0	0	
9	0	0	0	0	527	475	1021	0	0	0	
10	0	0	0	0	520	471	1021	0	0	0	
11	0	0	0	0	516	467	1021	0	0	0	
12	0	0	0	0	517	467	1020	0	0	0	
13	0	0	0	0	521	468	1021	0	0	0	
14	0	0	0	0	527	470	1021	0	0	0	
15	0	0	0	0	536	473	1021	0	0	0	
0	0	0	0	0	544	477	1021	0	0	0	
1	0	0	0	0	553	481	1021	0	0	0	
2	0	0	0	0	561	485	1021	0	0	0	
3	0	0	0	0	568	488	1021	0	0	0	
4	0	0	0	0	572	490	1021	0	0	0	
5	0	0	0	0	574	492	1021	0	0	0	
6	0	0	0	0	575	493	1021	0	0	0	
7	0	0	0	0	574	493	1021	0	0	0	
8	0	0	0	0	570	492	1021	0	0	0	
9	0	0	0	0	564	488	1021	0	0	0	
10	0	0	0	0	557	485	1021	0	0	0	
11	0	0	0	0	549	479	1021	0	0	0	
12	0	0	0	0	540	473	1021	0	0	0	
13	0	0	0	0	531	467	1021	0	0	0	
14	0	0	0	0	524	461	1021	0	0	0	
15	0	0	0	0	518	457	1021	0	0	0	
0	0	0	0	0	515	453	1021	0	0	0	
1	0	0	0	0	515	452	1021	0	0	0	
2	0	0	0	0	518	452	1021	0	0	0	
3	0	0	0	0	523	455	1021	0	0	0	
4	0	0	0	0	530	461	1021	0	0	0	
5	0	0	0	0	540	467	1021	0	0	0	
6	0	0	0	0	551	476	1021	0	0	0	
7	0	0	0	0	562	483	1021	0	0	0	
8	0	0	0	0	572	491	1021	0	0	0	
9	0	0	0	0	579	497	1021	0	0	0	
10	0	0	0	0	583	501	1021	0	0	0	
11	0	0	0	0	583	503	1021	0	0	0	
12	0	0	0	0	582	502	1021	0	0	0	
13	0	0	0	0	575	499	1021	0	0	0	
14	0	0	0	0	567	494	1021	0	0	0	
15	0	0	0	0	557	486	1021	0	0	0	
0	0	0	0	0	545	477	1021	0	0	0	
1	0	0	0	0	532	468	1021	0	0	0	
2	0	0	0	0	521	458	1021	0	0	0	
3	0	0	0	0	511	451	1021	0	0	0	
4	0	0	0	0	505	446	1021	0	0	0	
5	0	0	0	0	502	443	1021	0	0	0	
6	0	0	0	0	503	443	1021	0	0	0	
7	0	0	0	0	508	447	1021	0	0	0	
8	0	0	0	0	516	454	1021	0	0	0	
9	0	0	0	0	527	463	1021	0	0	0	
10	0	0	0	0	540	473	1021	0	0	0	
11	0	0	0	0	553	483	1021	0	0	0	
12	0	0	0	0	566	492	1021	0	0	0	
13	0	0	0	0	576	500	1021	0	0	0	
14	0	0	0	0	583	505	1021	0	0	0	
15	0	0	0	0	588	508	1021	0	0	0	
0	0	0	0	0	587	507	1021	0	0	0	
1	0	0	0	0	583	503	1021	0	0	0	
2	0	0	0	0	575	497	1021	0	0	0	
3	0	0	0	0	566	489	1021	0	0	0	
4	0	0	0	0	556	482	1021	0	0	0	
5	0	0	0	0	545	475	1021	0	0	0	
6	0	0	0	0	536	470	1021	0	0	0	
7	0	0	0	0	531	468	1021	0	0	0	
8	0	0	0	0	528	470	1021	0	0	0	
9	0	0	0	0	530	475	1021	0	0	0	
10	0	0	0	0	534	480	1021	0	0	0	
11	0	0	0	0	539	487	1020	0	0	0	
12	0	0	0	0	545	493	1021	0	0	0	
13	0	0	0	0	550	497	1021	0	0	0	
14	0	0	0	0	554	499	1021	0	0	0	
15	0	0	0	0	556	498	1021	0	0	0	
0	0	0	0	0	556	495	1020	0	0	0	
1	0	0	0	0	552	488	1021	0	0	0	
2	0	0	0	0	548	480	1021	0	0	0	
3	0	0	0	0	541	471	1021	0	0	0	
4	0	0	0	0	532	460	1021	0	0	0	
5	0	0	0	0	522	449	1021	0	0	0	
6	0	0	0	0	512	441	1020	0	0	0	
7	0	0	0	0	503	433	1021	0	0	0	
8	0	0	0	0	495	428	1021	0	0	0	
9	0	0	0	0	489	425	1021	0	0	0	
10	0	0	0	0	486	425	1021	0	0	0	
11	0	0	0	0	486	429	1021	0	0	0	
12	0	0	0	0	489	436	1021	0	0	0	
13	0	0	0	0	496	446	1021	0	0	0	
14	0	0	0	0	504	456	1021	0	0	0	
15	0	0	0	0	513	466	1021	0	0	0	
0	0	0	0	0	523	476	1021	0	0	0	
1	0	0	0	0	533	484	1021	0	0	0	
2	0	0	0	0	543	491	1021	0	0	0	
3	0	0	0	0	551	495	1021	0	0	0	
4	0	0	0	0	559	497	1021	0	0	0	
5	0	0	0	0	562	495	1021	0	0	0	
6	0	0	0	0	563	490	1021	0	0	0	
7	0	0	0	0	561	483	1021	0	0	0	
8	0	0	0	0	557	474	1021	0	0	0	
9	0	0	0	0	550	465	1021	0	0	0	
10	0	0	0	0	543	456	1021	0	0	0	
11	0	0	0	0	536	449	1021	0	0	0	
12	0	0	0	0	529	444	1021	0	0	0	
13	0	0	0	0	524	441	1021	0	0	0	
14	0	0	0	0	522	440	1021	0	0	0	
15	0	0	0	0	521	443	1021	0	0	0	
0	0	0	0	0	525	449	1021	0	0	0	
1	0	0	0	0	531	456	1021	0	0	0	
2	0	0	0	0	539	467	1021	0	0	0	
3	0	0	0	0	547	476	1021	0	0	0	
4	0	0	0	0	555	486	1021	0	0	0	
5	0	0	0	0	563	494	1021	0	0	0	
6	0	0	0	0	569	500	1021	0	0	0	
7	0	0	0	0	573	504	1021	0	0	0	
8	0	0	0	0	574	504	1020	0	0	0	
9	0	0	0	0	572	503	1021	0	0	0	
10	0	0	0	0	568	499	1021	0	0	0	
11	0	0	0	0	561	492	1021	0	0	0	
12	0	0	0	0	553	485	1021	0	0	0	
13	0	0	0	0	544	476	1021	0	0	0	
14	0	0	0	0	535	467	1021	0	0	0	
15	0	0	0	0	526	460	1021	0	0	0	
0	0	0	0	0	519	453	1021	0	0	0	
1	0	0	0	0	514	448	1021	0	0	0	
2	0	0	0	0	511	444	1021	1	0	0	
3	0	0	0	0	511	444	1021	0	0	0	
4	0	0	0	0	513	448	1021	0	0	0	
5	0	0	0	0	519	452	1021	0	0	0	
6	0	0	0	0	527	460	1021	0	0	0	
7	0	0	0	0	536	468	1021	0	0	0	
8	0	0	0	0	545	478	1021	0	0	0	
9	0	0	0	0	554	487	1021	0	0	0	
10	0	0	0	0	563	495	1021	0	0	0	
11	0	0	0	0	569	502	1021	0	0	0	
12	0	0	0	0	575	506	1021	0	0	0	
13	0	0	0	0	577	508	1021	0	0	0	
14	0	0	0	0	577	508	1021	0	0	0	
15	0	0	0	0	574	504	1021	0	0	0	
0	0	0	0	0	567	496	1021	0	0	0	
1	0	0	0	0	556	486	1021	0	0	0	
2	0	0	0	0	543	472	1021	0	0	0	
3	0	0	0	0	529	460	1021	0	0	0	
4	0	0	0	0	514	446	1021	0	0	0	
5	0	0	0	0	501	435	1021	0	0	0	
6	0	0	0	0	490	426	1020	0	0	0	
7	0	0	0	0	485	421	1021	0	0	0	
8	0	0	0	0	483	421	1021	0	0	0	
9	0	0	0	0	486	423	1021	0	0	0	
10	0	0	0	0	492	430	1021	0	0	0	
11	0	0	0	0	502	439	1021	0	0	0	
12	0	0	0	0	513	449	1021	0	0	0	
13	0	0	0	0	527	460	1021	0	0	0	
14	0	0	0	0	540	471	1021	0	0	0	
15	0	0	0	0	552	481	1021	0	0	0	
0	0	0	0	0	562	488	1021	0	0	0	
1	0	0	0	0	568	494	1021	0	0	0	
2	0	0	0	0	572	495	1021	0	0	0	
3	0	0	0	0	572	494	1021	0	0	0	
4	0	0	0	0	568	491	1021	0	0	0	
5	0	0	0	0	561	485	1021	0	0	0	
6	0	0	0	0	551	478	1021	0	0	0	
7	0	0	0	0	541	470	1021	0	0	0	
8	0	0	0	0	530	462	1021	0	0	0	
9	0	0	0	0	519	455	1020	0	0	0	
10	0	0	0	0	511	449	1021	0	0	0	
11	0	0	0	0	505	447	1021	0	0	0	
12	0	0	0	0	504	448	1021	0	0	0	
13	0	0	0	0	507	452	1021	0	0	0	
14	0	0	0	0	514	459	1021	0	0	0	
15	0	0	0	0	524	467	1021	0	0	0	
0	0	0	0	0	536	478	1021	0	0	0	
1	0	0	0	0	549	487	1021	0	0	0	
2	0	0	0	0	561	495	1021	0	0	0	
3	0	0	0	0	570	502	1021	0	0	0	
4	0	0	0	0	576	505	1021	0	0	0	
5	0	0	0	0	579	507	1021	0	0	0	
6	0	0	0	0	579	506	1021	0	0	0	
7	0	0	0	0	575	503	1021	0	0	0	
8	0	0	0	0	568	499	1021	0	0	0	
9	0	0	0	0	559	493	1021	0	0	0	
10	0	0	0	0	549	487	1021	0	0	0	
11	0	0	0	0	539	481	1021	0	0	0	
12	0	0	0	0	529	476	1021	0	0	0	
13	0	0	0	0	521	471	1021	0	0	0	
14	0	0	0	0	515	467	1021	0	0	0	
15	0	0	0	0	513	467	1021	0	0	0	
0	0	0	0	0	515	467	1021	0	0	0	
1	0	0	0	0	521	468	1021	0	0	0	
2	0	0	0	0	531	471	1021	0	0	0	
3	0	0	0	0	542	474	1021	0	0	0	
4	0	0	0	0	553	479	1021	0	0	0	
5	0	0	0	0	565	482	1021	0	0	0	
6	0	0	0	0	574	485	1021	0	0	0	
7	0	0	0	0	580	485	1021	0	0	0	
8	0	0	0	0	581	483	1021	0	0	0	
9	0	0	0	0	578	479	1021	0	0	0	
10	0	0	0	0	571	473	1021	0	0	0	
11	0	0	0	0	560	466	1021	0	0	0	
12	0	0	0	0	547	458	1021	0	0	0	
13	0	0	0	0	532	448	1021	0	0	0	
14	0	0	0	0	517	441	1021	0	0	0	
15	0	0	0	0	504	434	1021	0	0	0	
0	0	0	0	0	495	431	1021	0	0	0	
1	0	0	0	0	488	429	1021	0	0	0	
2	0	0	0	0	487	431	1021	0	0	0	
3	0	0	0	0	491	436	1021	0	0	0	
4	0	0	0	0	499	446	1021	0	0	0	
5	0	0	0	0	512	457	1021	0	0	0	
6	0	0	0	0	526	470	1021	0	0	0	
7	0	0	0	0	541	482	1021	0	0	0	
8	0	0	0	0	554	492	1021	0	0	0	
9	0	0	0	0	565	500	1021	0	0	0	
10	0	0	0	0	572	504	1021	0	0	0	
11	0	0	0	0	576	505	1021	0	0	0	
12	0	0	0	0	575	502	1021	0	0	0	
13	0	0	0	0	571	496	1021	0	0	0	
14	0	0	0	0	563	489	1021	0	0	0	
15	0	0	0	0	554	480	1021	0	0	0	
0	0	0	0	0	543	470	1021	0	0	0	
1	0	0	0	0	535	462	1021	0	0	0	
2	0	0	0	0	526	454	1021	0	0	0	
3	0	0	0	0	519	450	1021	0	0	0	
4	0	0	0	0	515	447	1021	0	0	0	
5	0	0	0	0	514	448	1021	0	0	0	
6	0	0	0	0	515	449	1021	0	0	0	
7	0	0	0	0	518	453	1021	0	0	0	
8	0	0	0	0	523	458	1021	0	0	0	
9	0	0	0	0	528	464	1021	0	0	0	
10	0	0	0	0	534	470	1021	0	0	0	
11	0	0	0	0	538	475	1021	0	0	0	
12	0	0	0	0	543	480	1021	0	0	0	
13	0	0	0	0	546	484	1021	0	0	0	
14	0	0	0	0	547	486	1021	0	0	0	
15	0	0	0	0	548	487	1021	0	0	0	
0	0	0	0	0	548	488	1021	0	0	0	
1	0	0	0	0	547	487	1021	0	0	0	
2	0	0	0	0	546	486	1021	0	0	0	
3	0	0	0	0	545	483	1021	0	0	0	
4	0	0	0	0	543	481	1021	0	0	0	
5	0	0	0	0	542	478	1021	0	0	0	
6	0	0	0	0	540	475	1021	0	0	0	
7	0	0	0	0	540	471	1021	0	0	0	
8	0	0	0	0	538	467	1021	0	0	0	
9	0	0	0	0	537	464	1021	0	0	0	
10	0	0	0	0	536	462	1021	0	0	0	
11	0	0	0	0	535	460	1021	0	0	0	
12	0	0	0	0	535	461	1021	0	0	0	
13	0	0	0	0	536	463	1021	0	0	0	
14	0	0	0	0	537	465	1021	0	0	0	
15	0	0	0	0	540	468	1021	0	0	0	
0	0	0	0	0	541	472	1021	0	0	0	
1	0	0	0	0	543	476	1021	0	0	0	
2	0	0	0	0	544	478	1021	0	0	0	
3	0	0	0	0	545	480	1021	0	0	0	
4	0	0	0	0	544	480	1021	0	0	0	
5	0	0	0	0	542	478	1021	0	0	0	
6	0	0	0	0	540	476	1021	0	0	0	
7	0	0	0	0	537	472	1021	0	0	0	
8	0	0	0	0	534	468	1020	0	0	0	
9	0	0	0	0	531	463	1021	0	0	0	
10	0	0	0	0	527	459	1021	0	0	0	
11	0	0	0	0	526	456	1021	0	0	0	
12	0	0	0	0	524	454	1021	0	0	0	
13	0	0	0	0	524	453	1021	0	0	0	
14	0	0	0	0	524	454	1021	0	0	0	
15	0	0	0	0	524	455	1021	0	0	0	
0	0	0	0	0	526	458	1021	0	0	0	
1	0	0	0	0	527	462	1021	0	0	0	
2	0	0	0	0	529	467	1021	0	0	0	
3	0	0	0	0	531	472	1021	0	0	0	
4	0	0	0	0	533	479	1021	0	0	0	
5	0	0	0	0	536	483	1021	0	0	0	
6	0	0	0	0	538	487	1021	0	0	0	
7	0	0	0	0	540	490	1021	0	0	0	
8	0	0	0	0	542	490	1021	0	0	0	
9	0	0	0	0	542	488	1021	0	0	0	
10	0	0	0	0	542	484	1021	0	0	0	
11	0	0	0	0	540	478	1021	0	0	0	
12	0	0	0	0	537	471	1021	0	0	0	
13	0	0	0	0	535	464	1021	0	0	0	
14	0	0	0	0	533	458	1021	0	0	0	
15	0	0	0	0	531	453	1021	0	0	0	
0	0	0	0	0	530	449	1021	0	0	0	
1	0	0	0	0	529	446	1021	0	0	0	
2	0	0	0	0	529	445	1021	0	0	0	
3	0	0	0	0	529	444	1021	0	0	0	
4	0	0	0	0	531	447	1021	0	0	0	
5	0	0	0	0	533	449	1021	0	0	0	
6	0	0	0	0	535	453	1021	0	0	0	
7	0	0	0	0	538	457	1021	0	0	0	
8	0	0	0	0	541	462	1021	0	0	0	
9	0	0	0	0	545	468	1021	0	0	0	
10	0	0	0	0	547	472	1021	0	0	0	
11	0	0	0	0	549	476	1021	0	0	0	
12	0	0	0	0	549	478	1021	0	0	0	
13	0	0	0	0	548	479	1021	0	0	0	
14	0	0	0	0	545	477	1021	0	0	0	
15	0	0	0	0	540	474	1021	0	0	0	
0	0	0	0	0	534	468	1021	0	0	0	
1	0	0	0	0	527	463	1021	0	0	0	
2	0	0	0	0	519	456	1021	0	0	0	
3	0	0	0	0	513	450	1021	0	0	0	
4	0	0	0	0	508	446	1021	0	0	0	
5	0	0	0	0	506	444	1021	0	0	0	
6	0	0	0	0	506	444	1021	0	0	0	
7	0	0	0	0	509	447	1021	0	0	0	
8	0	0	0	0	516	453	1021	0	0	0	
9	0	0	0	0	525	460	1021	0	0	0	
10	0	0	0	0	535	468	1021	0	0	0	
11	0	0	0	0	545	476	1021	0	0	0	
12	0	0	0	0	555	483	1021	0	0	0	
13	0	0	0	0	564	489	1021	0	0	0	
14	0	0	0	0	571	493	1021	0	0	0	
15	0	0	0	0	575	495	1021	0	0	0	
0	0	0	0	0	576	493	1021	0	0	0	
1	0	0	0	0	574	490	1021	0	0	0	
2	0	0	0	0	569	485	1021	0	0	0	
3	0	0	0	0	562	479	1021	0	0	0	
4	0	0	0	0	553	472	1021	0	0	0	
5	0	0	0	0	543	465	1021	0	0	0	
6	0	0	0	0	533	459	1021	0	0	0	
7	0	0	0	0	523	451	1021	0	0	0	
8	0	0	0	0	512	445	1021	0	0	0	
9	0	0	0	0	503	440	1021	0	0	0	
10	0	0	0	0	495	435	1021	0	0	0	
11	0	0	0	0	489	432	1021	0	0	0	
12	0	0	0	0	486	431	1021	0	0	0	
13	0	0	0	0	485	432	1021	0	0	0	
14	0	0	0	0	487	436	1021	0	0	0	
15	0	0	0	0	492	442	1021	0	0	0	
0	0	0	0	0	499	449	1021	0	0	0	
1	0	0	0	0	508	457	1021	0	0	0	
2	0	0	0	0	515	464	1021	0	0	0	
3	0	0	0	0	523	470	1021	0	0	0	
4	0	0	0	0	529	474	1021	0	0	0	
5	0	0	0	0	532	476	1021	0	0	0	
6	0	0	0	0	534	477	1021	0	0	0	
7	0	0	0	0	534	476	1021	0	0	0	
8	0	0	0	0	532	472	1021	0	0	0	
9	0	0	0	0	529	467	1020	0	0	0	
10	0	0	0	0	527	463	1021	0	0	0	
11	0	0	0	0	525	459	1021	0	0	0	
12	0	0	0	0	524	456	1021	0	0	0	
13	0	0	0	0	524	453	1021	0	0	0	
14	0	0	0	0	524	451	1021	0	0	0	
15	0	0	0	0	525	450	1021	0	0	0	
0	0	0	0	0	527	451	1021	0	0	0	
1	0	0	0	0	530	454	1021	0	0	0	
2	0	0	0	0	533	457	1021	0	0	0	
3	0	0	0	0	537	463	1021	0	0	0	
4	0	0	0	0	542	470	1021	0	0	0	
5	0	0	0	0	546	476	1021	0	0	0	
6	0	0	0	0	548	482	1021	0	0	0	
7	0	0	0	0	550	487	1021	0	0	0	
8	0	0	0	0	548	491	1021	0	0	0	
9	0	0	0	0	545	492	1021	0	0	0	
10	0	0	0	0	540	491	1021	0	0	0	
11	0	0	0	0	533	487	1021	0	0	0	
12	0	0	0	0	526	482	1021	0	0	0	
13	0	0	0	0	519	476	1021	0	0	0	
14	0	0	0	0	512	469	1021	0	0	0	
15	0	0	0	0	507	462	1021	0	0	0	
0	0	0	0	0	504	455	1021	0	0	0	
1	0	0	0	0	502	448	1021	0	0	0	
2	0	0	0	0	504	442	1021	0	0	0	
3	0	0	0	0	506	437	1021	0	0	0	
4	0	0	0	0	511	436	1021	0	0	0	
5	0	0	0	0	517	436	1021	0	0	0	
6	0	0	0	0	524	438	1021	0	0	0	
7	0	0	0	0	531	442	1021	0	0	0	
8	0	0	0	0	539	448	1021	0	0	0	
9	0	0	0	0	547	455	1021	0	0	0	
10	0	0	0	0	553	462	1021	0	0	0	
11	0	0	0	0	558	470	1021	0	0	0	
12	0	0	0	0	562	476	1021	0	0	0	
13	0	0	0	0	562	481	1021	0	0	0	
14	0	0	0	0	561	485	1021	0	0	0	
15	0	0	0	0	558	486	1021	0	0	0	
0	0	0	0	0	551	484	1021	0	0	0	
1	0	0	0	0	542	479	1021	0	0	0	
2	0	0	0	0	531	473	1021	0	0	0	
3	0	0	0	0	521	466	1021	0	0	0	
4	0	0	0	0	511	458	1021	0	0	0	
5	0	0	0	0	504	451	1021	0	0	0	
6	0	0	0	0	498	445	1021	0	0	0	
7	0	0	0	0	495	442	1021	0	0	0	
8	0	0	0	0	496	440	1021	0	0	0	
9	0	0	0	0	501	441	1021	0	0	0	
10	0	0	0	0	508	444	1021	0	0	0	
11	0	0	0	0	516	449	1021	0	0	0	
12	0	0	0	0	526	455	1021	0	0	0	
13	0	0	0	0	536	461	1021	0	0	0	
14	0	0	0	0	544	465	1021	0	0	0	
15	0	0	0	0	550	469	1021	0	0	0	
0	0	0	0	0	553	470	1021	0	0	0	
1	0	0	0	0	552	470	1021	0	0	0	
2	0	0	0	0	549	467	1021	0	0	0	
3	0	0	0	0	543	463	1021	0	0	0	
4	0	0	0	0	536	457	1021	0	0	0	
5	0	0	0	0	527	451	1021	0	0	0	
6	0	0	0	0	518	446	1021	0	0	0	
7	0	0	0	0	510	440	1021	0	0	0	
8	0	0	0	0	504	436	1021	0	0	0	
9	0	0	0	0	500	435	1021	0	0	0	
10	0	0	0	0	499	435	1021	0	0	0	
11	0	0	0	0	503	440	1021	0	0	0	
12	0	0	0	0	511	447	1021	0	0	0	
13	0	0	0	0	522	457	1021	0	0	0	
14	0	0	0	0	536	468	1021	0	0	0	
15	0	0	0	0	551	480	1021	0	0	0	
0	0	0	0	0	565	493	1021	0	0	0	
1	0	0	0	0	579	504	1021	0	0	0	
2	0	0	0	0	590	512	1021	0	0	0	
3	0	0	0	0	597	518	1021	0	0	0	
4	0	0	0	0	600	519	1021	0	0	0	
5	0	0	0	0	598	518	1021	0	0	0	
6	0	0	0	0	592	512	1021	0	0	0	
7	0	0	0	0	582	503	1021	0	0	0	
8	0	0	0	0	568	491	1021	0	0	0	
9	0	0	0	0	552	478	1020	0	0	0	
10	0	0	0	0	536	464	1021	0	0	0	
11	0	0	0	0	520	453	1021	0	0	0	
12	0	0	0	0	508	444	1021	0	0	0	
13	0	0	0	0	499	437	1021	0	0	0	
14	0	0	0	0	493	434	1020	0	0	0	
15	0	0	0	0	492	434	1021	0	0	0	
0	0	0	0	0	495	439	1021	0	0	0	
1	0	0	0	0	503	446	1021	0	0	0	
2	0	0	0	0	513	455	1021	0	0	0	
3	0	0	0	0	525	466	1021	0	0	0	
4	0	0	0	0	537	476	1021	0	0	0	
5	0	0	0	0	550	486	1021	0	0	0	
6	0	0	0	0	560	493	1021	0	0	0	
7	0	0	0	0	566	497	1021	0	0	0	
8	0	0	0	0	569	498	1021	0	0	0	
9	0	0	0	0	567	495	1021	0	0	0	
10	0	0	0	0	562	490	1021	0	0	0	
11	0	0	0	0	554	483	1021	0	0	0	
12	0	0	0	0	543	474	1021	0	0	0	
13	0	0	0	0	534	465	1021	0	0	0	
14	0	0	0	0	524	457	1021	0	0	0	
15	0	0	0	0	516	451	1021	0	0	0	
0	0	0	0	0	510	447	1021	0	0	0	
1	0	0	0	0	507	445	1021	0	0	0	
2	0	0	0	0	507	444	1021	0	0	0	
3	0	0	0	0	508	446	1021	0	0	0	
4	0	0	0	0	512	450	1021	0	0	0	
5	0	0	0	0	516	455	1021	0	0	0	
6	0	0	0	0	520	460	1021	0	0	0	
7	0	0	0	0	525	464	1021	0	0	0	
8	0	0	0	0	528	470	1021	0	0	0	
9	0	0	0	0	531	475	1021	0	0	0	
10	0	0	0	0	533	478	1021	0	0	0	
11	0	0	0	0	532	480	1021	0	0	0	
12	0	0	0	0	531	479	1021	0	0	0	
13	0	0	0	0	528	477	1021	0	0	0	
14	0	0	0	0	525	473	1021	0	0	0	
15	0	0	0	0	522	468	1021	0	0	0	
0	0	0	0	0	519	463	1021	0	0	0	
1	0	0	0	0	517	458	1021	0	0	0	
2	0	0	0	0	516	454	1021	0	0	0	
3	0	0	0	0	517	451	1021	0	0	0	
4	0	0	0	0	520	449	1021	0	0	0	
5	0	0	0	0	524	450	1021	0	0	0	
6	0	0	0	0	531	452	1021	0	0	0	
7	0	0	0	0	538	455	1021	0	0	0	
8	0	0	0	0	547	462	1021	0	0	0	
9	0	0	0	0	556	468	1021	0	0	0	
10	0	0	0	0	565	476	1021	0	0	0	
11	0	0	0	0	572	482	1021	0	0	0	
12	0	0	0	0	578	487	1021	0	0	0	
13	0	0	0	0	582	492	1021	0	0	0	
14	0	0	0	0	582	495	1021	0	0	0	
15	0	0	0	0	579	495	1021	0	0	0	
0	0	0	0	0	574	493	1021	0	0	0	
1	0	0	0	0	566	489	1021	0	0	0	
2	0	0	0	0	557	484	1021	0	0	0	
3	0	0	0	0	547	479	1021	0	0	0	
4	0	0	0	0	538	473	1021	0	0	0	
5	0	0	0	0	530	467	1021	0	0	0	
6	0	0	0	0	523	463	1021	0	0	0	
7	0	0	0	0	519	459	1021	0	0	0	
8	0	0	0	0	516	457	1021	0	0	0	
9	0	0	0	0	516	456	1021	0	0	0	
10	0	0	0	0	518	457	1021	0	0	0	
11	0	0	0	0	521	460	1021	0	0	0	
12	0	0	0	0	526	462	1021	0	0	0	
13	0	0	0	0	531	465	1021	0	0	0	
14	0	0	0	0	536	469	1021	0	0	0	
15	0	0	0	0	540	473	1021	0	0	0	
0	0	0	0	0	545	476	1021	0	0	0	
1	0	0	0	0	548	480	1021	0	0	0	
2	0	0	0	0	551	482	1021	0	0	0	
3	0	0	0	0	553	484	1021	0	0	0	
4	0	0	0	0	553	483	1021	0	0	0	
5	0	0	0	0	551	481	1021	0	0	0	
6	0	0	0	0	549	479	1021	0	0	0	
7	0	0	0	0	545	476	1021	0	0	0	
8	0	0	0	0	542	472	1021	0	0	0	
9	0	0	0	0	538	468	1021	0	0	0	
10	0	0	0	0	535	466	1021	0	0	0	
11	0	0	0	0	534	464	1021	0	0	0	
12	0	0	0	0	532	464	1021	0	0	0	
13	0	0	0	0	532	463	1021	0	0	0	
14	0	0	0	0	532	464	1021	0	0	0	
15	0	0	0	0	534	466	1021	0	0	0	
0	0	0	0	0	535	468	1021	0	0	0	
1	0	0	0	0	536	469	1021	0	0	0	
2	0	0	0	0	536	470	1021	0	0	0	
3	0	0	0	0	536	469	1021	0	0	0	
4	0	0	0	0	534	467	1021	0	0	0	
5	0	0	0	0	531	465	1021	0	0	0	
6	0	0	0	0	528	462	1021	0	0	0	
7	0	0	0	0	524	458	1021	0	0	0	
8	0	0	0	0	520	454	1021	0	0	0	
9	0	0	0	0	515	449	1021	0	0	0	
10	0	0	0	0	511	444	1021	0	0	0	
11	0	0	0	0	506	440	1021	0	0	0	
12	0	0	0	0	501	435	1021	0	0	0	
13	0	0	0	0	497	430	1021	0	0	0	
14	0	0	0	0	494	427	1021	0	0	0	
15	0	0	0	0	493	425	1021	0	0	0	
0	0	0	0	0	493	424	1021	0	0	0	
1	0	0	0	0	496	427	1021	0	0	0	
2	0	0	0	0	500	430	1021	0	0	0	
3	0	0	0	0	506	435	1021	0	0	0	
4	0	0	0	0	514	443	1021	0	0	0	
5	0	0	0	0	523	450	1021	0	0	0	
6	0	0	0	0	532	459	1021	0	0	0	
7	0	0	0	0	541	467	1021	0	0	0	
8	0	0	0	0	550	474	1021	0	0	0	
9	0	0	0	0	557	481	1021	0	0	0	
10	0	0	0	0	563	487	1021	0	0	0	
11	0	0	0	0	567	492	1021	0	0	0	
12	0	0	0	0	568	494	1021	0	0	0	
13	0	0	0	0	567	494	1021	0	0	0	
14	0	0	0	0	562	493	1021	0	0	0	
15	0	0	0	0	555	489	1021	0	0	0	
0	0	0	0	0	546	484	1021	0	0	0	
1	0	0	0	0	536	478	1021	0	0	0	
2	0	0	0	0	526	472	1021	0	0	0	
3	0	0	0	0	517	466	1021	0	0	0	
4	0	0	0	0	510	460	1021	0	0	0	
5	0	0	0	0	507	456	1021	0	0	0	
6	0	0	0	0	507	454	1021	0	0	0	
7	0	0	0	0	512	454	1021	0	0	0	
8	0	0	0	0	520	456	1021	0	0	0	
9	0	0	0	0	530	459	1021	0	0	0	
10	0	0	0	0	542	463	1021	0	0	0	
11	0	0	0	0	553	469	1021	0	0	0	
12	0	0	0	0	564	474	1021	0	0	0	
13	0	0	0	0	574	481	1021	0	0	0	
14	0	0	0	0	582	486	1021	0	0	0	
15	0	0	0	0	586	491	1021	0	0	0	
0	0	0	0	0	587	493	1021	0	0	0	
1	0	0	0	0	584	495	1021	0	0	0	
2	0	0	0	0	579	493	1021	0	0	0	
3	0	0	0	0	571	489	1021	0	0	0	
4	0	0	0	0	560	484	1021	0	0	0	
5	0	0	0	0	547	477	1021	0	0	0	
6	0	0	0	0	536	471	1021	0	0	0	
7	0	0	0	0	524	464	1021	0	0	0	
8	0	0	0	0	515	459	1021	0	0	0	
9	0	0	0	0	507	454	1021	0	0	0	
10	0	0	0	0	503	452	1021	0	0	0	
11	0	0	0	0	502	451	1021	0	0	0	
12	0	0	0	0	505	453	1021	0	0	0	
13	0	0	0	0	510	456	1021	0	0	0	
14	0	0	0	0	518	461	1021	0	0	0	
15	0	0	0	0	526	467	1021	0	0	0	
0	0	0	0	0	536	472	1021	0	0	0	
1	0	0	0	0	544	479	1021	0	0	0	
2	0	0	0	0	552	483	1021	0	0	0	
3	0	0	0	0	557	486	1021	0	0	0	
4	0	0	0	0	559	487	1021	0	0	0	
5	0	0	0	0	558	487	1021	0	0	0	
6	0	0	0	0	556	483	1021	0	0	0	
7	0	0	0	0	552	479	1021	0	0	0	
8	0	0	0	0	546	473	1021	0	0	0	
9	0	0	0	0	540	468	1021	0	0	0	
10	0	0	0	0	534	461	1021	0	0	0	
11	0	0	0	0	528	457	1021	0	0	0	
12	0	0	0	0	523	452	1021	0	0	0	
13	0	0	0	0	519	449	1021	0	0	0	
14	0	0	0	0	517	448	1021	0	0	0	
15	0	0	0	0	516	449	1021	0	0	0	
0	0	0	0	0	519	452	1021	0	0	0	
1	0	0	0	0	523	457	1021	0	0	0	
2	0	0	0	0	529	464	1021	0	0	0	
3	0	0	0	0	536	472	1021	0	0	0	
4	0	0	0	0	544	480	1021	0	0	0	
5	0	0	0	0	553	487	1021	0	0	0	
6	0	0	0	0	560	495	1021	0	0	0	
7	0	0	0	0	567	501	1021	0	0	0	
8	0	0	0	0	571	505	1021	0	0	0	
9	0	0	0	0	572	506	1021	0	0	0	
10	0	0	0	0	571	507	1021	0	0	0	
11	0	0	0	0	567	504	1021	0	0	0	
12	0	0	0	0	561	500	1021	0	0	0	
13	0	0	0	0	555	496	1021	0	0	0	
14	0	0	0	0	547	489	1021	0	0	0	
15	0	0	0	0	541	485	1021	0	0	0	
0	0	0	0	0	536	480	1021	0	0	0	
1	0	0	0	0	531	475	1021	0	0	0	
2	0	0	0	0	527	470	1021	0	0	0	
3	0	0	0	0	525	466	1021	0	0	0	
4	0	0	0	0	524	463	1021	0	0	0	
5	0	0	0	0	523	460	1021	0	0	0	
6	0	0	0	0	523	459	1021	0	0	0	
7	0	0	0	0	524	458	1021	0	0	0	
8	0	0	0	0	525	458	1021	0	0	0	
9	0	0	0	0	527	458	1021	0	0	0	
10	0	0	0	0	528	458	1021	0	0	0	
11	0	0	0	0	529	457	1021	0	0	0	
12	0	0	0	0	528	455	1021	0	0	0	
13	0	0	0	0	524	449	1021	0	0	0	
14	0	0	0	0	519	443	1021	0	0	0	
15	0	0	0	0	509	433	1021	0	0	0	
0	0	0	0	0	496	421	1021	0	0	0	
1	0	0	0	0	479	406	1021	0	0	0	
2	0	0	0	0	460	390	1021	0	0	0	
3	0	0	0	0	440	373	1021	0	0	0	
4	0	0	0	0	420	356	1021	0	0	0	
5	0	0	0	0	401	340	1021	0	0	0	
6	0	0	0	0	384	326	1021	0	0	0	
7	0	0	0	0	369	313	1021	0	0	0	
8	0	0	0	0	357	304	1021	0	0	0	
9	0	0	0	0	348	296	1021	0	0	0	
10	0	0	0	0	343	291	1021	0	0	0	
11	0	0	0	0	341	290	1021	0	0	0	
12	0	0	0	0	343	291	1021	0	0	0	
13	0	0	0	0	348	295	1021	0	0	0	
14	0	0	0	0	357	303	1021	0	0	0	
15	0	0	0	0	367	312	1021	0	0	0	
0	0	0	0	0	380	323	1021	0	0	0	
1	0	0	0	0	392	334	1021	0	0	0	
2	0	0	0	0	406	344	1021	0	0	0	
3	0	0	0	0	419	353	1021	0	0	0	
4	0	0	0	0	432	361	1021	0	0	0	
5	0	0	0	0	444	368	1021	0	0	0	
6	0	0	0	0	455	375	1021	0	0	0	
7	0	0	0	0	467	382	1021	0	0	0	
8	0	0	0	0	479	389	1021	0	0	0	
9	0	0	0	0	491	397	1021	0	0	0	
10	0	0	0	0	504	407	1021	0	0	0	
11	0	0	0	0	516	417	1021	0	0	0	
12	0	0	0	0	530	431	1020	0	0	0	
13	0	0	0	0	543	444	1021	0	0	0	
14	0	0	0	0	556	459	1021	0	0	0	
15	0	0	0	0	568	473	1021	0	0	0	
0	0	0	0	0	577	487	1021	0	0	0	
1	0	0	0	0	587	499	1021	0	0	0	
2	0	0	0	0	592	509	1021	0	0	0	
3	0	0	0	0	596	517	1021	0	0	0	
4	0	0	0	0	597	521	1021	0	0	0	
5	0	0	0	0	594	524	1021	0	0	0	
6	0	0	0	0	591	522	1021	0	0	0	
7	0	0	0	0	583	518	1021	0	0	0	
8	0	0	0	0	574	511	1021	0	0	0	
9	0	0	0	0	564	502	1021	0	0	0	
10	0	0	0	0	552	491	1021	0	0	0	
11	0	0	0	0	541	481	1021	0	0	0	
12	0	0	0	0	530	471	1021	0	0	0	
13	0	0	0	0	521	462	1021	0	0	0	
14	0	0	0	0	515	455	1021	0	0	0	
15	0	0	0	0	511	451	1021	0	0	0	
0	0	0	0	0	511	450	1021	0	0	0	
1	0	0	0	0	515	452	1021	0	0	0	
2	0	0	0	0	520	456	1021	0	0	0	
3	0	0	0	0	529	463	1021	0	0	0	
4	0	0	0	0	538	471	1021	0	0	0	
5	0	0	0	0	549	479	1021	0	0	0	
6	0	0	0	0	559	487	1021	0	0	0	
7	0	0	0	0	568	494	1021	0	0	0	
8	0	0	0	0	574	499	1021	0	0	0	
9	0	0	0	0	578	504	1021	0	0	0	
10	0	0	0	0	581	507	1021	0	0	0	
11	0	0	0	0	581	508	1021	0	0	0	
12	0	0	0	0	581	508	1021	0	0	0	
13	0	0	0	0	579	508	1021	0	0	0	
14	0	0	0	0	578	508	1021	0	0	0	
15	0	0	0	0	577	510	1021	0	0	0	
0	0	0	0	0	576	511	1021	0	0	0	
1	0	0	0	0	576	512	1021	0	0	0	
2	0	0	0	0	577	514	1021	0	0	0	
3	0	0	0	0	580	516	1021	0	0	0	
4	0	0	0	0	583	519	1021	0	0	0	
5	0	0	0	0	588	523	1021	0	0	0	
6	0	0	0	0	591	525	1021	0	0	0	
7	0	0	0	0	595	527	1021	0	0	0	
8	0	0	0	0	597	528	1021	0	0	0	
9	0	0	0	0	599	529	1021	0	0	0	
10	0	0	0	0	599	528	1021	0	0	0	
11	0	0	0	0	596	526	1021	0	0	0	
12	0	0	0	0	592	522	1021	0	0	0	
13	0	0	0	0	585	515	1021	0	0	0	
14	0	0	0	0	576	507	1021	0	0	0	
15	0	0	0	0	565	497	1021	0	0	0	
0	0	0	0	0	554	487	1021	0	0	0	
1	0	0	0	0	543	476	1021	0	0	0	
2	0	0	0	0	533	467	1021	0	0	0	
3	0	0	0	0	527	460	1021	0	0	0	
4	0	0	0	0	523	455	1021	0	0	0	
5	0	0	0	0	522	453	1021	0	0	0	
6	0	0	0	0	525	454	1021	0	0	0	
7	0	0	0	0	531	458	1021	0	0	0	
8	0	0	0	0	542	466	1021	0	0	0	
9	0	0	0	0	554	476	1021	0	0	0	
10	0	0	0	0	567	488	1021	0	0	0	
11	0	0	0	0	580	502	1021	0	0	0	
12	0	0	0	0	592	513	1021	0	0	0	
13	0	0	0	0	601	525	1021	0	0	0	
14	0	0	0	0	607	533	1021	0	0	0	
15	0	0	0	0	607	537	1021	0	0	0	
0	0	0	0	0	603	537	1021	0	0	0	
1	0	0	0	0	593	534	1021	0	0	0	
2	0	0	0	0	582	527	1021	0	0	0	
3	0	0	0	0	569	518	1021	0	0	0	
4	0	0	0	0	555	508	1021	0	0	0	
5	0	0	0	0	542	499	1021	0	0	0	
6	0	0	0	0	532	490	1021	0	0	0	
7	0	0	0	0	524	483	1021	0	0	0	
8	0	0	0	0	519	479	1021	0	0	0	
9	0	0	0	0	519	477	1021	0	0	0	
10	0	0	0	0	521	478	1021	0	0	0	
11	0	0	0	0	527	481	1021	0	0	0	
12	0	0	0	0	537	487	1021	0	0	0	
13	0	0	0	0	549	495	1021	0	0	0	
14	0	0	0	0	563	504	1021	0	0	0	
15	0	0	0	0	576	512	1021	0	0	0	
0	0	0	0	0	589	519	1021	0	0	0	
1	0	0	0	0	601	526	1021	0	0	0	
2	0	0	0	0	609	530	1021	0	0	0	
3	0	0	0	0	613	531	1021	0	0	0	
4	0	0	0	0	614	531	1021	0	0	0	
5	0	0	0	0	611	527	1021	0	0	0	
6	0	0	0	0	604	522	1021	0	0	0	
7	0	0	0	0	593	514	1021	0	0	0	
8	0	0	0	0	580	504	1021	0	0	0	
9	0	0	0	0	567	493	1021	0	0	0	
10	0	0	0	0	552	481	1021	0	0	0	
11	0	0	0	0	538	470	1021	0	0	0	
12	0	0	0	0	526	460	1021	0	0	0	
13	0	0	0	0	515	451	1021	0	0	0	
14	0	0	0	0	508	445	1021	0	0	0	
15	0	0	0	0	505	442	1021	0	0	0	
0	0	0	0	0	507	443	1021	0	0	0	
1	0	0	0	0	512	448	1021	0	0	0	
2	0	0	0	0	520	455	1021	0	0	0	
3	0	0	0	0	532	463	1021	0	0	0	
4	0	0	0	0	543	474	1021	0	0	0	
5	0	0	0	0	557	485	1021	0	0	0	
6	0	0	0	0	569	495	1021	0	0	0	
7	0	0	0	0	580	504	1021	0	0	0	
8	0	0	0	0	588	510	1021	0	0	0	
9	0	0	0	0	592	515	1021	0	0	0	
10	0	0	0	0	595	516	1021	0	0	0	
11	0	0	0	0	593	515	1021	0	0	0	
12	0	0	0	0	589	511	1021	0	0	0	
13	0	0	0	0	583	505	1021	0	0	0	
14	0	0	0	0	575	500	1021	0	0	0	
15	0	0	0	0	568	495	1021	0	0	0	
0	0	0	0	0	561	491	1021	0	0	0	
1	0	0	0	0	556	487	1021	0	0	0	
2	0	0	0	0	553	486	1021	0	0	0	
3	0	0	0	0	552	487	1021	0	0	0	
4	0	0	0	0	555	491	1021	0	0	0	
5	0	0	0	0	560	496	1021	0	0	0	
6	0	0	0	0	566	502	1021	0	0	0	
7	0	0	0	0	573	507	1021	0	0	0	
8	0	0	0	0	579	513	1021	0	0	0	
9	0	0	0	0	586	518	1021	0	0	0	
10	0	0	0	0	591	521	1021	0	0	0	
11	0	0	0	0	595	524	1021	0	0	0	
12	0	0	0	0	596	524	1021	0	0	0	
13	0	0	0	0	595	523	1021	0	0	0	
14	0	0	0	0	593	520	1021	0	0	0	
15	0	0	0	0	589	516	1021	0	0	0	
0	0	0	0	0	582	510	1021	0	0	0	
1	0	0	0	0	573	503	1021	0	0	0	
2	0	0	0	0	562	496	1021	0	0	0	
3	0	0	0	0	553	489	1021	0	0	0	
4	0	0	0	0	543	482	1021	0	0	0	
5	0	0	0	0	536	476	1021	0	0	0	
6	0	0	0	0	531	472	1021	0	0	0	
7	0	0	0	0	528	472	1021	0	0	0	
8	0	0	0	0	530	472	1021	0	0	0	
9	0	0	0	0	533	475	1021	0	0	0	
10	0	0	0	0	539	479	1021	0	0	0	
11	0	0	0	0	545	483	1021	0	0	0	
12	0	0	0	0	551	487	1021	0	0	0	
13	0	0	0	0	556	492	1021	0	0	0	
14	0	0	0	0	561	496	1021	0	0	0	
15	0	0	0	0	564	498	1021	0	0	0	
0	0	0	0	0	566	499	1021	0	0	0	
1	0	0	0	0	565	499	1021	0	0	0	
2	0	0	0	0	563	497	1021	0	0	0	
3	0	0	0	0	560	494	1021	0	0	0	
4	0	0	0	0	556	489	1021	0	0	0	
5	0	0	0	0	551	484	1021	0	0	0	
6	0	0	0	0	546	479	1021	0	0	0	
7	0	0	0	0	542	474	1021	0	0	0	
8	0	0	0	0	539	469	1021	0	0	0	
9	0	0	0	0	536	466	1021	0	0	0	
10	0	0	0	0	536	464	1021	0	0	0	
11	0	0	0	0	537	465	1021	0	0	0	
12	0	0	0	0	541	468	1021	0	0	0	
13	0	0	0	0	548	474	1021	0	0	0	
14	0	0	0	0	557	483	1021	0	0	0	
15	0	0	0	0	568	495	1021	0	0	0	
0	0	0	0	0	580	507	1021	0	0	0	
1	0	0	0	0	592	520	1021	0	0	0	
2	0	0	0	0	604	533	1021	0	0	0	
3	0	0	0	0	612	544	1021	0	0	0	
4	0	0	0	0	620	554	1021	0	0	0	
5	0	0	0	0	623	560	1021	0	0	0	
6	0	0	0	0	623	563	1021	0	0	0	
7	0	0	0	0	618	561	1021	0	0	0	
8	0	0	0	0	609	556	1021	0	0	0	
9	0	0	0	0	599	547	1021	0	0	0	
10	0	0	0	0	585	536	1021	0	0	0	
11	0	0	0	0	572	524	1021	0	0	0	
12	0	0	0	0	560	510	1021	0	0	0	
13	0	0	0	0	548	497	1021	0	0	0	
14	0	0	0	0	539	485	1021	0	0	0	
15	0	0	0	0	533	476	1021	0	0	0	
0	0	0	0	0	531	471	1021	0	0	0	
1	0	0	0	0	533	469	1021	0	0	0	
2	0	0	0	0	538	471	1021	0	0	0	
3	0	0	0	0	546	475	1021	0	0	0	
4	0	0	0	0	556	481	1020	0	0	0	
5	0	0	0	0	566	487	1021	0	0	0	
6	0	0	0	0	575	493	1021	0	0	0	
7	0	0	0	0	580	496	1021	0	0	0	
8	0	0	0	0	583	498	1020	0	0	0	
9	0	0	0	0	582	496	1021	0	0	0	
10	0	0	0	0	578	494	1021	0	0	0	
11	0	0	0	0	571	488	1021	0	0	0	
12	0	0	0	0	563	483	1021	0	0	0	
13	0	0	0	0	554	476	1021	0	0	0	
14	0	0	0	0	546	471	1021	0	0	0	
15	0	0	0	0	539	467	1021	0	0	0	
0	0	0	0	0	534	463	1021	0	0	0	
1	0	0	0	0	531	462	1021	0	0	0	
2	0	0	0	0	531	463	1021	0	0	0	
3	0	0	0	0	536	467	1021	0	0	0	
4	0	0	0	0	543	475	1021	0	0	0	
5	0	0	0	0	553	484	1021	0	0	0	
6	0	0	0	0	564	494	1021	0	0	0	
7	0	0	0	0	576	504	1021	0	0	0	
8	0	0	0	0	587	515	1021	0	0	0	
9	0	0	0	0	597	524	1021	0	0	0	
10	0	0	0	0	605	531	1021	0	0	0	
11	0	0	0	0	611	537	1021	0	0	0	
12	0	0	0	0	615	541	1021	0	0	0	
13	0	0	0	0	615	541	1021	0	0	0	
14	0	0	0	0	612	540	1021	0	0	0	
15	0	0	0	0	606	535	1021	0	0	0	
0	0	0	0	0	596	527	1021	0	0	0	
1	0	0	0	0	584	516	1021	0	0	0	
2	0	0	0	0	570	504	1021	0	0	0	
3	0	0	0	0	556	493	1021	0	0	0	
4	0	0	0	0	543	481	1021	0	0	0	
5	0	0	0	0	531	472	1021	0	0	0	
6	0	0	0	0	522	464	1021	0	0	0	
7	0	0	0	0	518	460	1021	0	0	0	
8	0	0	0	0	516	460	1021	0	0	0	
9	0	0	0	0	518	463	1021	0	0	0	
10	0	0	0	0	524	468	1021	0	0	0	
11	0	0	0	0	531	474	1021	0	0	0	
12	0	0	0	0	540	481	1021	0	0	0	
13	0	0	0	0	550	489	1021	0	0	0	
14	0	0	0	0	560	497	1021	0	0	0	
15	0	0	0	0	569	504	1021	0	0	0	
0	0	0	0	0	577	508	1021	0	0	0	
1	0	0	0	0	582	510	1021	0	0	0	
2	0	0	0	0	587	510	1021	0	0	0	
3	0	0	0	0	588	508	1021	0	0	0	
4	0	0	0	0	587	505	1021	0	0	0	
5	0	0	0	0	584	501	1021	0	0	0	
6	0	0	0	0	579	496	1021	0	0	0	
7	0	0	0	0	574	491	1021	0	0	0	
8	0	0	0	0	568	487	1021	0	0	0	
9	0	0	0	0	563	483	1021	0	0	0	
10	0	0	0	0	559	482	1021	0	0	0	
11	0	0	0	0	557	482	1021	0	0	0	
12	0	0	0	0	557	486	1021	0	0	0	
13	0	0	0	0	559	489	1021	0	0	0	
14	0	0	0	0	561	495	1021	0	0	0	
15	0	0	0	0	565	500	1021	0	0	0	
0	0	0	0	0	569	506	1021	0	0	0	
1	0	0	0	0	574	512	1021	0	0	0	
2	0	0	0	0	577	517	1021	0	0	0	
3	0	0	0	0	579	519	1021	0	0	0	
4	0	0	0	0	580	520	1021	0	0	0	
5	0	0	0	0	579	519	1021	0	0	0	
6	0	0	0	0	577	516	1021	0	0	0	
7	0	0	0	0	572	510	1021	0	0	0	
8	0	0	0	0	564	503	1021	0	0	0	
9	0	0	0	0	556	493	1021	0	0	0	
10	0	0	0	0	547	484	1021	0	0	0	
11	0	0	0	0	539	475	1021	0	0	0	
12	0	0	0	0	531	467	1021	0	0	0	
13	0	0	0	0	525	459	1021	0	0	0	
14	0	0	0	0	519	453	1021	0	0	0	
15	0	0	0	0	515	449	1021	0	0	0	
0	0	0	0	0	514	448	1021	0	0	0	
1	0	0	0	0	514	449	1021	0	0	0	
2	0	0	0	0	516	451	1021	0	0	0	
3	0	0	0	0	521	456	1021	0	0	0	
4	0	0	0	0	527	462	1021	0	0	0	
5	0	0	0	0	534	470	1021	0	0	0	
6	0	0	0	0	542	478	1021	0	0	0	
7	0	0	0	0	549	486	1021	0	0	0	
8	0	0	0	0	556	492	1021	0	0	0	
9	0	0	0	0	560	497	1021	0	0	0	
10	0	0	0	0	564	500	1021	0	0	0	
11	0	0	0	0	566	503	1021	0	0	0	
12	0	0	0	0	567	504	1021	0	0	0	
13	0	0	0	0	565	503	1021	0	0	0	
14	0	0	0	0	563	502	1021	0	0	0	
15	0	0	0	0	560	501	1021	0	0	0	
0	0	0	0	0	556	499	1021	0	0	0	
1	0	0	0	0	554	497	1021	0	0	0	
2	0	0	0	0	553	495	1021	0	0	0	
3	0	0	0	0	554	495	1021	0	0	0	
4	0	0	0	0	558	496	1021	0	0	0	
5	0	0	0	0	565	498	1021	0	0	0	
6	0	0	0	0	573	502	1021	0	0	0	
7	0	0	0	0	583	507	1021	0	0	0	
8	0	0	0	0	594	513	1021	0	0	0	
9	0	0	0	0	606	519	1021	0	0	0	
10	0	0	0	0	616	524	1021	0	0	0	
11	0	0	0	0	624	529	1021	0	0	0	
12	0	0	0	0	629	531	1021	0	0	0	
13	0	0	0	0	631	533	1020	0	0	0	
14	0	0	0	0	631	533	1021	0	0	0	
15	0	0	0	0	626	531	1021	0	0	0	
0	0	0	0	0	620	528	1021	0	0	0	
1	0	0	0	0	611	524	1021	0	0	0	
2	0	0	0	0	600	521	1021	0	0	0	
3	0	0	0	0	590	516	1021	0	0	0	
4	0	0	0	0	579	513	1021	0	0	0	
5	0	0	0	0	571	511	1021	0	0	0	
6	0	0	0	0	564	509	1021	0	0	0	
7	0	0	0	0	559	509	1021	0	0	0	
8	0	0	0	0	558	510	1021	0	0	0	
9	0	0	0	0	559	512	1021	0	0	0	
10	0	0	0	0	560	514	1021	0	0	0	
11	0	0	0	0	563	515	1021	0	0	0	
12	0	0	0	0	566	517	1021	0	0	0	
13	0	0	0	0	570	517	1021	0	0	0	
14	0	0	0	0	572	517	1021	0	0	0	
15	0	0	0	0	574	516	1021	0	0	0	
0	0	0	0	0	574	513	1021	0	0	0	
1	0	0	0	0	571	509	1021	0	0	0	
2	0	0	0	0	568	504	1021	0	0	0	
3	0	0	0	0	564	498	1021	0	0	0	
4	0	0	0	0	559	492	1021	0	0	0	
5	0	0	0	0	553	487	1021	0	0	0	
6	0	0	0	0	548	481	1021	0	0	0	
7	0	0	0	0	544	476	1021	0	0	0	
8	0	0	0	0	539	472	1021	0	0	0	
9	0	0	0	0	535	468	1021	0	0	0	
10	0	0	0	0	532	465	1021	0	0	0	
11	0	0	0	0	530	465	1021	0	0	0	
12	0	0	0	0	531	467	1021	0	0	0	
13	0	0	0	0	534	471	1021	0	0	0	
14	0	0	0	0	540	477	1021	0	0	0	
15	0	0	0	0	547	484	1021	0	0	0	
0	0	0	0	0	557	493	1021	0	0	0	
1	0	0	0	0	568	504	1021	0	0	0	
2	0	0	0	0	580	514	1021	0	0	0	
3	0	0	0	0	591	523	1021	0	0	0	
4	0	0	0	0	602	531	1021	0	0	0	
5	0	0	0	0	609	535	1021	0	0	0	
6	0	0	0	0	613	537	1021	0	0	0	
7	0	0	0	0	612	534	1021	0	0	0	
8	0	0	0	0	607	527	1021	0	0	0	
9	0	0	0	0	598	518	1021	0	0	0	
10	0	0	0	0	586	507	1021	0	0	0	
11	0	0	0	0	574	496	1021	0	0	0	
12	0	0	0	0	560	484	1021	0	0	0	
13	0	0	0	0	548	475	1021	0	0	0	
14	0	0	0	0	538	467	1021	0	0	0	
15	0	0	0	0	531	463	1021	0	0	0	
0	0	0	0	0	529	463	1021	0	0	0	
1	0	0	0	0	529	465	1021	0	0	0	
2	0	0	0	0	532	470	1021	0	0	0	
3	0	0	0	0	538	476	1021	0	0	0	
4	0	0	0	0	545	483	1021	0	0	0	
5	0	0	0	0	553	492	1021	0	0	0	
6	0	0	0	0	561	499	1021	0	0	0	
7	0	0	0	0	568	505	1021	0	0	0	
8	0	0	0	0	574	509	1021	0	0	0	
9	0	0	0	0	578	511	1021	0	0	0	
10	0	0	0	0	579	512	1021	0	0	0	
11	0	0	0	0	579	511	1021	0	0	0	
12	0	0	0	0	577	508	1021	0	0	0	
13	0	0	0	0	573	503	1021	0	0	0	
14	0	0	0	0	568	496	1021	0	0	0	
15	0	0	0	0	562	492	1021	0	0	0	
0	0	0	0	0	557	486	1021	0	0	0	
1	0	0	0	0	553	483	1021	0	0	0	
2	0	0	0	0	550	481	1021	0	0	0	
3	0	0	0	0	548	481	1021	0	0	0	
4	0	0	0	0	551	484	1021	0	0	0	
5	0	0	0	0	554	489	1021	0	0	0	
6	0	0	0	0	559	496	1021	0	0	0	
7	0	0	0	0	566	504	1021	0	0	0	
8	0	0	0	0	574	513	1021	0	0	0	
9	0	0	0	0	582	523	1021	0	0	0	
10	0	0	0	0	590	532	1021	0	0	0	
11	0	0	0	0	597	541	1021	0	0	0	
12	0	0	0	0	603	547	1021	0	0	0	
13	0	0	0	0	606	551	1021	0	0	0	
14	0	0	0	0	606	553	1021	0	0	0	
15	0	0	0	0	602	551	1021	0	0	0	
0	0	0	0	0	595	546	1021	0	0	0	
1	0	0	0	0	585	537	1021	0	0	0	
2	0	0	0	0	574	527	1021	0	0	0	
3	0	0	0	0	563	515	1021	0	0	0	
4	0	0	0	0	552	503	1021	0	0	0	
5	0	0	0	0	544	491	1021	0	0	0	
6	0	0	0	0	539	480	1021	0	0	0	
7	0	0	0	0	538	472	1021	0	0	0	
8	0	0	0	0	540	468	1021	0	0	0	
9	0	0	0	0	544	467	1021	0	0	0	
10	0	0	0	0	551	468	1021	0	0	0	
11	0	0	0	0	560	471	1021	0	0	0	
12	0	0	0	0	568	476	1021	0	0	0	
13	0	0	0	0	576	483	1021	0	0	0	
14	0	0	0	0	584	490	1021	0	0	0	
15	0	0	0	0	590	497	1021	0	0	0	
0	0	0	0	0	594	503	1021	0	0	0	
1	0	0	0	0	595	509	1021	0	0	0	
2	0	0	0	0	596	513	1021	0	0	0	
3	0	0	0	0	595	515	1021	0	0	0	
4	0	0	0	0	593	517	1021	0	0	0	
5	0	0	0	0	590	517	1021	0	0	0	
6	0	0	0	0	586	515	1021	0	0	0	
7	0	0	0	0	581	514	1021	0	0	0	
8	0	0	0	0	576	511	1021	0	0	0	
9	0	0	0	0	571	508	1021	0	0	0	
10	0	0	0	0	566	505	1021	0	0	0	
11	0	0	0	0	561	502	1021	0	0	0	
12	0	0	0	0	556	499	1021	0	0	0	
13	0	0	0	0	552	497	1021	0	0	0	
14	0	0	0	0	550	497	1021	0	0	0	
15	0	0	0	0	548	496	1021	0	0	0	
0	0	0	0	0	549	497	1021	0	0	0	
1	0	0	0	0	552	500	1021	0	0	0	
2	0	0	0	0	558	503	1021	0	0	0	
3	0	0	0	0	564	506	1021	0	0	0	
4	0	0	0	0	572	510	1021	0	0	0	
5	0	0	0	0	579	512	1021	0	0	0	
6	0	0	0	0	586	514	1021	0	0	0	
7	0	0	0	0	591	515	1021	0	0	0	
8	0	0	0	0	593	513	1021	0	0	0	
9	0	0	0	0	593	511	1021	0	0	0	
10	0	0	0	0	591	508	1021	0	0	0	
11	0	0	0	0	588	505	1021	0	0	0	
12	0	0	0	0	583	501	1021	0	0	0	
13	0	0	0	0	577	497	1021	0	0	0	
14	0	0	0	0	571	494	1021	0	0	0	
15	0	0	0	0	565	492	1021	0	0	0	
0	0	0	0	0	561	491	1021	0	0	0	
1	0	0	0	0	557	491	1021	0	0	0	
2	0	0	0	0	556	492	1021	0	0	0	
3	0	0	0	0	555	495	1021	0	0	0	
4	0	0	0	0	556	497	1021	0	0	0	
5	0	0	0	0	559	503	1021	0	0	0	
6	0	0	0	0	563	507	1021	0	0	0	
7	0	0	0	0	569	512	1021	0	0	0	
8	0	0	0	0	574	516	1021	0	0	0	
9	0	0	0	0	579	519	1021	0	0	0	
10	0	0	0	0	584	523	1021	0	0	0	
11	0	0	0	0	588	523	1021	0	0	0	
12	0	0	0	0	589	523	1021	0	0	0	
13	0	0	0	0	590	521	1021	0	0	0	
14	0	0	0	0	589	517	1021	0	0	0	
15	0	0	0	0	587	514	1021	0	0	0	
0	0	0	0	0	583	509	1021	0	0	0	
1	0	0	0	0	580	504	1021	0	0	0	
2	0	0	0	0	576	500	1021	0	0	0	
3	0	0	0	0	573	497	1021	0	0	0	
4	0	0	0	0	571	497	1021	0	0	0	
5	0	0	0	0	570	496	1021	0	0	0	
6	0	0	0	0	569	497	1021	0	0	0	
7	0	0	0	0	569	499	1021	0	0	0	
8	0	0	0	0	569	500	1021	0	0	0	
9	0	0	0	0	571	503	1021	0	0	0	
10	0	0	0	0	573	505	1021	0	0	0	
11	0	0	0	0	575	508	1021	0	0	0	
12	0	0	0	0	579	511	1021	0	0	0	
13	0	0	0	0	583	514	1021	0	0	0	
14	0	0	0	0	588	519	1021	0	0	0	
15	0	0	0	0	594	522	1021	0	0	0	
0	0	0	0	0	599	524	1021	0	0	0	
1	0	0	0	0	601	525	1021	0	0	0	
2	0	0	0	0	603	525	1021	0	0	0	
3	0	0	0	0	604	524	1021	0	0	0	
4	0	0	0	0	602	523	1021	0	0	0	
5	0	0	0	0	599	521	1021	0	0	0	
6	0	0	0	0	595	519	1021	0	0	0	
7	0	0	0	0	592	520	1021	0	0	0	
8	0	0	0	0	589	521	1021	0	0	0	
9	0	0	0	0	586	523	1021	0	0	0	
10	0	0	0	0	583	524	1021	0	0	0	
11	0	0	0	0	579	525	1021	0	0	0	
12	0	0	0	0	575	527	1021	0	0	0	
13	0	0	0	0	574	527	1021	0	0	0	
14	0	0	0	0	573	527	1021	0	0	0	
15	0	0	0	0	572	526	1021	0	0	0	
0	0	0	0	0	573	523	1021	0	0	0	
1	0	0	0	0	573	520	1021	0	0	0	
2	0	0	0	0	575	515	1021	0	0	0	
3	0	0	0	0	574	509	1021	0	0	0	
4	0	0	0	0	572	502	1021	0	0	0	
5	0	0	0	0	569	492	1021	0	0	0	
6	0	0	0	0	563	484	1021	0	0	0	
7	0	0	0	0	558	475	1021	0	0	0	
8	0	0	0	0	551	467	1021	0	0	0	
9	0	0	0	0	546	462	1021	0	0	0	
10	0	0	0	0	542	459	1021	0	0	0	
11	0	0	0	0	540	460	1021	0	0	0	
12	0	0	0	0	543	465	1021	0	0	0	
13	0	0	0	0	548	473	1021	0	0	0	
14	0	0	0	0	557	484	1021	0	0	0	
15	0	0	0	0	567	496	1021	0	0	0	
0	0	0	0	0	578	508	1021	0	0	0	
1	0	0	0	0	590	520	1021	0	0	0	
2	0	0	0	0	601	531	1021	0	0	0	
3	0	0	0	0	611	540	1021	0	0	0	
4	0	0	0	0	620	547	1021	0	0	0	
5	0	0	0	0	625	552	1021	0	0	0	
6	0	0	0	0	630	554	1021	0	0	0	
7	0	0	0	0	630	552	1021	0	0	0	
8	0	0	0	0	627	547	1021	0	0	0	
9	0	0	0	0	620	539	1021	0	0	0	
10	0	0	0	0	610	530	1021	0	0	0	
11	0	0	0	0	599	519	1021	0	0	0	
12	0	0	0	0	587	508	1021	0	0	0	
13	0	0	0	0	574	499	1021	0	0	0	
14	0	0	0	0	564	491	1021	0	0	0	
15	0	0	0	0	556	488	1021	0	0	0	
0	0	0	0	0	553	489	1021	0	0	0	
1	0	0	0	0	554	493	1021	0	0	0	
2	0	0	0	0	557	499	1021	0	0	0	
3	0	0	0	0	563	507	1021	0	0	0	
4	0	0	0	0	570	516	1021	0	0	0	
5	0	0	0	0	579	526	1021	0	0	0	
6	0	0	0	0	589	536	1021	0	0	0	
7	0	0	0	0	600	546	1021	0	0	0	
8	0	0	0	0	611	554	1021	0	0	0	
9	0	0	0	0	620	561	1021	0	0	0	
10	0	0	0	0	630	566	1021	0	0	0	
11	0	0	0	0	635	567	1021	0	0	0	
12	0	0	0	0	637	565	1021	0	0	0	
13	0	0	0	0	636	559	1021	0	0	0	
14	0	0	0	0	629	551	1020	0	0	0	
15	0	0	0	0	620	540	1021	0	0	0	
0	0	0	0	0	608	528	1021	0	0	0	
1	0	0	0	0	595	516	1021	0	0	0	
2	0	0	0	0	582	506	1021	0	0	0	
3	0	0	0	0	569	497	1021	0	0	0	
4	0	0	0	0	560	492	1021	0	0	0	
5	0	0	0	0	551	488	1021	0	0	0	
6	0	0	0	0	547	487	1021	0	0	0	
7	0	0	0	0	545	489	1021	0	0	0	
8	0	0	0	0	546	492	1021	0	0	0	
9	0	0	0	0	550	497	1021	0	0	0	
10	0	0	0	0	555	502	1021	0	0	0	
11	0	0	0	0	561	506	1021	0	0	0	
12	0	0	0	0	567	510	1021	0	0	0	
13	0	0	0	0	572	511	1021	0	0	0	
14	0	0	0	0	575	511	1021	0	0	0	
15	0	0	0	0	577	508	1021	0	0	0	
0	0	0	0	0	576	505	1021	0	0	0	
1	0	0	0	0	573	499	1021	0	0	0	
2	0	0	0	0	568	491	1021	0	0	0	
3	0	0	0	0	561	483	1021	0	0	0	
4	0	0	0	0	553	475	1021	0	0	0	
5	0	0	0	0	544	467	1021	1	0	0	
6	0	0	0	0	536	460	1021	0	0	0	
7	0	0	0	0	529	456	1021	0	0	0	
8	0	0	0	0	524	455	1021	0	0	0	
9	0	0	0	0	521	457	1021	0	0	0	
10	0	0	0	0	520	460	1021	0	0	0	
11	0	0	0	0	520	466	1021	0	0	0	
12	0	0	0	0	522	471	1021	0	0	0	
13	0	0	0	0	525	479	1021	0	0	0	
14	0	0	0	0	529	485	1021	0	0	0	
15	0	0	0	0	533	491	1021	0	0	0	
0	0	0	0	0	537	494	1021	0	0	0	
1	0	0	0	0	540	495	1021	0	0	0	
2	0	0	0	0	543	494	1021	0	0	0	
3	0	0	0	0	546	491	1021	0	0	0	
4	0	0	0	0	548	485	1021	0	0	0	
5	0	0	0	0	549	478	1021	0	0	0	
6	0	0	0	0	549	470	1021	0	0	0	
7	0	0	0	0	548	463	1021	0	0	0	
8	0	0	0	0	547	455	1021	0	0	0	
9	0	0	0	0	546	450	1021	0	0	0	
10	0	0	0	0	545	446	1021	0	0	0	
11	0	0	0	0	545	444	1021	0	0	0	
12	0	0	0	0	547	447	1021	0	0	0	
13	0	0	0	0	549	452	1021	0	0	0	
14	0	0	0	0	553	460	1021	0	0	0	
15	0	0	0	0	559	469	1021	0	0	0	
0	0	0	0	0	563	479	1021	0	0	0	
1	0	0	0	0	569	489	1021	0	0	0	
2	0	0	0	0	574	497	1021	0	0	0	
3	0	0	0	0	577	504	1021	0	0	0	
4	0	0	0	0	578	508	1021	0	0	0	
5	0	0	0	0	577	509	1021	0	0	0	
6	0	0	0	0	575	509	1021	0	0	0	
7	0	0	0	0	572	506	1021	0	0	0	
8	0	0	0	0	567	502	1021	0	0	0	
9	0	0	0	0	561	496	1020	0	0	0	
10	0	0	0	0	556	490	1020	0	0	0	
11	0	0	0	0	552	486	1021	0	0	0	
12	0	0	0	0	551	482	1021	0	0	0	
13	0	0	0	0	551	481	1021	0	0	0	
14	0	0	0	0	556	483	1021	0	0	0	
15	0	0	0	0	562	487	1021	0	0	0	
0	0	0	0	0	571	494	1021	0	0	0	
1	0	0	0	0	581	502	1021	0	0	0	
2	0	0	0	0	591	510	1021	0	0	0	
3	0	0	0	0	601	519	1021	0	0	0	
4	0	0	0	0	611	527	1021	0	0	0	
5	0	0	0	0	620	536	1021	0	0	0	
6	0	0	0	0	626	543	1021	0	0	0	
7	0	0	0	0	630	549	1021	0	0	0	
8	0	0	0	0	631	551	1021	0	0	0	
9	0	0	0	0	629	552	1021	0	0	0	
10	0	0	0	0	624	551	1021	0	0	0	
11	0	0	0	0	616	547	1021	0	0	0	
12	0	0	0	0	606	540	1021	0	0	0	
13	0	0	0	0	595	531	1021	0	0	0	
14	0	0	0	0	582	521	1021	0	0	0	
15	0	0	0	0	569	511	1021	0	0	0	
0	0	0	0	0	558	502	1021	0	0	0	
1	0	0	0	0	548	493	1021	0	0	0	
2	0	0	0	0	542	487	1021	0	0	0	
3	0	0	0	0	539	484	1021	0	0	0	
4	0	0	0	0	541	483	1021	0	0	0	
5	0	0	0	0	546	486	1021	0	0	0	
6	0	0	0	0	552	489	1021	0	0	0	
7	0	0	0	0	560	494	1021	0	0	0	
8	0	0	0	0	566	497	1021	0	0	0	
9	0	0	0	0	572	500	1021	0	0	0	
10	0	0	0	0	577	504	1021	0	0	0	
11	0	0	0	0	580	505	1021	0	0	0	
12	0	0	0	0	582	507	1021	0	0	0	
13	0	0	0	0	582	507	1021	0	0	0	
14	0	0	0	0	580	507	1021	0	0	0	
15	0	0	0	0	577	506	1021	0	0	0	
0	0	0	0	0	574	504	1021	0	0	0	
1	0	0	0	0	570	503	1021	0	0	0	
2	0	0	0	0	566	502	1021	0	0	0	
3	0	0	0	0	563	502	1021	0	0	0	
4	0	0	0	0	561	502	1021	0	0	0	
5	0	0	0	0	560	503	1021	0	0	0	
6	0	0	0	0	560	504	1021	0	0	0	
7	0	0	0	0	562	507	1021	0	0	0	
8	0	0	0	0	566	510	1021	0	0	0	
9	0	0	0	0	570	514	1021	0	0	0	
10	0	0	0	0	574	516	1021	0	0	0	
11	0	0	0	0	578	519	1021	0	0	0	
12	0	0	0	0	582	520	1021	0	0	0	
13	0	0	0	0	585	521	1021	0	0	0	
14	0	0	0	0	587	521	1021	0	0	0	
15	0	0	0	0	588	521	1021	0	0	0	
0	0	0	0	0	589	519	1021	0	0	0	
1	0	0	0	0	589	517	1021	0	0	0	
2	0	0	0	0	588	515	1021	0	0	0	
3	0	0	0	0	587	512	1021	0	0	0	
4	0	0	0	0	585	509	1021	0	0	0	
5	0	0	0	0	583	505	1021	0	0	0	
6	0	0	0	0	580	502	1021	0	0	0	
7	0	0	0	0	579	499	1021	0	0	0	
8	0	0	0	0	576	496	1021	0	0	0	
9	0	0	0	0	574	495	1021	0	0	0	
10	0	0	0	0	573	494	1021	0	0	0	
11	0	0	0	0	572	494	1021	0	0	0	
12	0	0	0	0	573	497	1021	0	0	0	
13	0	0	0	0	574	499	1021	0	0	0	
14	0	0	0	0	575	503	1021	0	0	0	
15	0	0	0	0	577	507	1021	0	0	0	
0	0	0	0	0	578	511	1021	0	0	0	
1	0	0	0	0	581	517	1021	0	0	0	
2	0	0	0	0	583	522	1021	0	0	0	
3	0	0	0	0	586	528	1021	0	0	0	
4	0	0	0	0	588	533	1021	0	0	0	
5	0	0	0	0	588	536	1021	0	0	0	
6	0	0	0	0	588	538	1021	0	0	0	
7	0	0	0	0	585	538	1021	0	0	0	
8	0	0	0	0	579	534	1021	0	0	0	
9	0	0	0	0	573	528	1021	0	0	0	
10	0	0	0	0	565	519	1021	0	0	0	
11	0	0	0	0	557	509	1021	0	0	0	
12	0	0	0	0	550	498	1021	0	0	0	
13	0	0	0	0	544	488	1021	0	0	0	
14	0	0	0	0	541	479	1021	0	0	0	
15	0	0	0	0	539	472	1021	0	0	0	
0	0	0	0	0	540	466	1021	0	0	0	
1	0	0	0	0	542	461	1021	0	0	0	
2	0	0	0	0	543	458	1021	0	0	0	
3	0	0	0	0	545	455	1021	0	0	0	
4	0	0	0	0	544	452	1021	0	0	0	
5	0	0	0	0	542	448	1021	0	0	0	
6	0	0	0	0	537	443	1021	0	0	0	
7	0	0	0	0	528	436	1021	0	0	0	
8	0	0	0	0	518	428	1021	0	0	0	
9	0	0	0	0	505	420	1021	0	0	0	
10	0	0	0	0	494	411	1021	0	0	0	
11	0	0	0	0	481	403	1021	0	0	0	
12	0	0	0	0	470	395	1021	0	0	0	
13	0	0	0	0	459	387	1020	0	0	0	
14	0	0	0	0	450	380	1021	0	0	0	
15	0	0	0	0	441	374	1021	0	0	0	
0	0	0	0	0	435	368	1021	0	0	0	
1	0	0	0	0	429	363	1021	0	0	0	
2	0	0	0	0	426	359	1021	0	0	0	
3	0	0	0	0	425	355	1021	0	0	0	
4	0	0	0	0	426	355	1021	0	0	0	
5	0	0	0	0	430	357	1021	0	0	0	
6	0	0	0	0	435	360	1021	0	0	0	
7	0	0	0	0	441	364	1021	0	0	0	
8	0	0	0	0	448	368	1021	0	0	0	
9	0	0	0	0	455	374	1021	0	0	0	
10	0	0	0	0	462	381	1021	0	0	0	
11	0	0	0	0	469	387	1021	0	0	0	
12	0	0	0	0	476	394	1021	0	0	0	
13	0	0	0	0	483	401	1021	0	0	0	
14	0	0	0	0	489	408	1021	0	0	0	
15	0	0	0	0	495	415	1021	0	0	0	
0	0	0	0	0	502	423	1021	0	0	0	
1	0	0	0	0	510	432	1021	0	0	0	
2	0	0	0	0	518	440	1020	0	0	0	
3	0	0	0	0	527	449	1021	0	0	0	
4	0	0	0	0	536	457	1021	0	0	0	
5	0	0	0	0	546	466	1021	0	0	0	
6	0	0	0	0	557	476	1021	0	0	0	
7	0	0	0	0	569	487	1021	0	0	0	
8	0	0	0	0	583	500	1021	0	0	0	
9	0	0	0	0	599	515	1021	0	0	0	
10	0	0	0	0	614	529	1021	0	0	0	
11	0	0	0	0	627	543	1021	0	0	0	
12	0	0	0	0	639	554	1021	0	0	0	
