# OpenSignals Text File Format. Version 1
# {"": {"position": 0, "device": "", "device name": "", "device connection": "", "sampling rate": 1000, "resolution": [4, 1, 1, 1, 1, 10, 10, 10, 10, 6, 6], "firmware version": 1281, "comments": "", "keywords": "", "mode": 0, "sync interval": 2, "date": "", "time": "", "channels": [1, 2, 3, 4, 5, 6], "sensor": ["RAW", "RAW", "RAW", "RAW", "RAW", "RAW"], "label": ["A1", "A2", "A3", "A4", "A5", "A6"], "column": ["nSeq", "I1", "I2", "O1", "O2", "A1", "A2", "A3", "A4", "A5", "A6"], "special": [{}, {}, {}, {}, {}, {}], "digital IO": [0, 0, 1, 1]}}
# EndOfHeader
0	0	0	0	0	556	446	1021	0	0	0	
1	0	0	0	0	574	462	1021	0	0	0	
2	0	0	0	0	594	479	1021	0	0	0	
3	0	0	0	0	615	496	1021	0	0	0	
4	0	0	0	0	634	511	1021	0	0	0	
5	0	0	0	0	651	524	1021	0	0	0	
6	0	0	0	0	663	531	1021	0	0	0	
7	0	0	0	0	669	535	1021	0	0	0	
8	0	0	0	0	669	533	1021	0	0	0	
9	0	0	0	0	663	528	1020	0	0	0	
10	0	0	0	0	652	519	1021	0	0	0	
11	0	0	0	0	638	508	1021	0	0	0	
12	0	0	0	0	621	497	1021	0	0	0	
13	0	0	0	0	605	486	1020	0	0	0	
14	0	0	0	0	591	477	1021	0	0	0	
15	0	0	0	0	579	471	1021	0	0	0	
0	0	0	0	0	572	467	1021	0	0	0	
1	0	0	0	0	571	467	1021	0	0	0	
2	0	0	0	0	573	470	1021	0	0	0	
3	0	0	0	0	579	475	1020	0	0	0	
4	0	0	0	0	589	482	1021	0	0	0	
5	0	0	0	0	600	489	1021	0	0	0	
6	0	0	0	0	612	496	1021	0	0	0	
7	0	0	0	0	622	502	1020	0	0	0	
8	0	0	0	0	629	505	1021	0	0	0	
9	0	0	0	0	633	505	1021	0	0	0	
10	0	0	0	0	632	501	1021	0	0	0	
11	0	0	0	0	626	495	1021	0	0	0	
12	0	0	0	0	617	486	1021	0	0	0	
13	0	0	0	0	606	475	1021	0	0	0	
14	0	0	0	0	592	465	1021	0	0	0	
15	0	0	0	0	579	455	1021	0	0	0	
0	0	0	0	0	568	448	1021	0	0	0	
1	0	0	0	0	559	444	1021	0	0	0	
2	0	0	0	0	552	442	1021	0	0	0	
3	0	0	0	0	551	443	1021	0	0	0	
4	0	0	0	0	554	448	1021	0	0	0	
5	0	0	0	0	561	456	1021	0	0	0	
6	0	0	0	0	571	466	1020	0	0	0	
7	0	0	0	0	584	478	1020	0	0	0	
8	0	0	0	0	599	490	1021	0	0	0	
9	0	0	0	0	613	501	1021	0	0	0	
10	0	0	0	0	626	510	1021	0	0	0	
11	0	0	0	0	636	515	1021	0	0	0	
12	0	0	0	0	641	517	1020	0	0	0	
13	0	0	0	0	642	514	1021	0	0	0	
14	0	0	0	0	636	505	1021	0	0	0	
15	0	0	0	0	623	494	1021	0	0	0	
0	0	0	0	0	606	478	1021	0	0	0	
1	0	0	0	0	584	460	1020	0	0	0	
2	0	0	0	0	562	442	1021	0	0	0	
3	0	0	0	0	538	424	1021	0	0	0	
4	0	0	0	0	515	409	1021	0	0	0	
5	0	0	0	0	496	397	1020	0	0	0	
6	0	0	0	0	482	388	1021	0	0	0	
7	0	0	0	0	472	384	1021	0	0	0	
8	0	0	0	0	468	384	1021	0	0	0	
9	0	0	0	0	471	387	1021	0	0	0	
10	0	0	0	0	478	394	1021	0	0	0	
11	0	0	0	0	490	404	1020	0	0	0	
12	0	0	0	0	508	417	1021	0	0	0	
13	0	0	0	0	528	432	1021	0	0	0	
14	0	0	0	0	551	448	1021	0	0	0	
15	0	0	0	0	575	464	1020	0	0	0	
0	0	0	0	0	597	479	1021	0	0	0	
1	0	0	0	0	615	492	1021	0	0	0	
2	0	0	0	0	630	502	1021	0	0	0	
3	0	0	0	0	640	509	1021	0	0	0	
4	0	0	0	0	644	512	1021	0	0	0	
5	0	0	0	0	644	512	1021	0	0	0	
6	0	0	0	0	641	510	1021	0	0	0	
7	0	0	0	0	633	505	1021	0	0	0	
8	0	0	0	0	625	499	1021	0	0	0	
9	0	0	0	0	615	492	1020	0	0	0	
10	0	0	0	0	603	483	1020	0	0	0	
11	0	0	0	0	593	475	1021	0	0	0	
12	0	0	0	0	583	466	1021	0	0	0	
13	0	0	0	0	575	459	1021	0	0	0	
14	0	0	0	0	567	453	1021	0	0	0	
15	0	0	0	0	560	448	1020	0	0	0	
0	0	0	0	0	554	444	1021	0	0	0	
1	0	0	0	0	549	442	1021	0	0	0	
2	0	0	0	0	546	442	1021	0	0	0	
3	0	0	0	0	545	443	1021	0	0	0	
4	0	0	0	0	545	446	1021	0	0	0	
5	0	0	0	0	547	448	1021	0	0	0	
6	0	0	0	0	551	452	1021	0	0	0	
7	0	0	0	0	553	454	1021	0	0	0	
8	0	0	0	0	556	456	1021	0	0	0	
9	0	0	0	0	558	457	1020	0	0	0	
10	0	0	0	0	560	456	1021	0	0	0	
11	0	0	0	0	561	455	1021	0	0	0	
12	0	0	0	0	563	453	1021	0	0	0	
13	0	0	0	0	566	452	1020	0	0	0	
14	0	0	0	0	570	452	1020	0	0	0	
15	0	0	0	0	576	453	1021	0	0	0	
0	0	0	0	0	582	455	1021	0	0	0	
1	0	0	0	0	587	457	1021	0	0	0	
2	0	0	0	0	591	460	1020	0	0	0	
3	0	0	0	0	596	464	1020	0	0	0	
4	0	0	0	0	601	469	1021	0	0	0	
5	0	0	0	0	606	475	1021	0	0	0	
6	0	0	0	0	612	482	1021	0	0	0	
7	0	0	0	0	617	490	1021	0	0	0	
8	0	0	0	0	623	498	1021	0	0	0	
9	0	0	0	0	629	508	1021	0	0	0	
10	0	0	0	0	635	516	1021	0	0	0	
11	0	0	0	0	640	524	1021	0	0	0	
12	0	0	0	0	645	530	1020	0	0	0	
13	0	0	0	0	648	534	1020	0	0	0	
14	0	0	0	0	650	534	1021	0	0	0	
15	0	0	0	0	647	531	1021	0	0	0	
0	0	0	0	0	640	524	1021	0	0	0	
1	0	0	0	0	629	512	1021	0	0	0	
2	0	0	0	0	614	498	1021	0	0	0	
3	0	0	0	0	595	481	1021	0	0	0	
4	0	0	0	0	574	463	1021	0	0	0	
5	0	0	0	0	551	444	1021	0	0	0	
6	0	0	0	0	530	427	1020	0	0	0	
7	0	0	0	0	512	412	1020	0	0	0	
8	0	0	0	0	499	399	1021	0	0	0	
9	0	0	0	0	490	391	1021	0	0	0	
10	0	0	0	0	487	387	1021	0	0	0	
11	0	0	0	0	488	387	1020	0	0	0	
12	0	0	0	0	494	391	1020	0	0	0	
13	0	0	0	0	503	398	1021	0	0	0	
14	0	0	0	0	513	408	1021	0	0	0	
15	0	0	0	0	524	418	1021	0	0	0	
0	0	0	0	0	533	429	1021	0	0	0	
1	0	0	0	0	542	439	1021	0	0	0	
2	0	0	0	0	548	448	1021	0	0	0	
3	0	0	0	0	553	456	1021	0	0	0	
4	0	0	0	0	556	462	1021	0	0	0	
5	0	0	0	0	559	468	1021	0	0	0	
6	0	0	0	0	563	474	1021	0	0	0	
7	0	0	0	0	567	480	1021	0	0	0	
8	0	0	0	0	574	485	1021	0	0	0	
9	0	0	0	0	581	491	1021	0	0	0	
10	0	0	0	0	589	496	1021	0	0	0	
11	0	0	0	0	597	500	1020	0	0	0	
12	0	0	0	0	605	504	1021	0	0	0	
13	0	0	0	0	613	507	1021	0	0	0	
14	0	0	0	0	619	509	1021	0	0	0	
15	0	0	0	0	624	511	1020	0	0	0	
0	0	0	0	0	626	510	1020	0	0	0	
1	0	0	0	0	627	507	1021	0	0	0	
2	0	0	0	0	624	502	1021	0	0	0	
3	0	0	0	0	619	495	1021	0	0	0	
4	0	0	0	0	611	486	1021	0	0	0	
5	0	0	0	0	601	477	1021	0	0	0	
6	0	0	0	0	591	466	1021	0	0	0	
7	0	0	0	0	578	456	1021	0	0	0	
8	0	0	0	0	565	447	1021	0	0	0	
9	0	0	0	0	553	438	1020	0	0	0	
10	0	0	0	0	541	432	1020	0	0	0	
11	0	0	0	0	534	428	1021	0	0	0	
12	0	0	0	0	529	427	1021	0	0	0	
13	0	0	0	0	530	430	1021	0	0	0	
14	0	0	0	0	534	435	1021	0	0	0	
15	0	0	0	0	543	443	1021	0	0	0	
0	0	0	0	0	555	452	1021	0	0	0	
1	0	0	0	0	568	462	1021	0	0	0	
2	0	0	0	0	582	472	1021	0	0	0	
3	0	0	0	0	593	482	1021	0	0	0	
4	0	0	0	0	601	490	1020	0	0	0	
5	0	0	0	0	606	494	1021	0	0	0	
6	0	0	0	0	605	495	1021	0	0	0	
7	0	0	0	0	598	492	1021	0	0	0	
8	0	0	0	0	588	484	1020	0	0	0	
9	0	0	0	0	573	473	1021	0	0	0	
10	0	0	0	0	556	460	1021	0	0	0	
11	0	0	0	0	537	445	1021	0	0	0	
12	0	0	0	0	518	429	1021	0	0	0	
13	0	0	0	0	502	413	1021	0	0	0	
14	0	0	0	0	487	398	1021	0	0	0	
15	0	0	0	0	475	385	1021	0	0	0	
0	0	0	0	0	467	375	1021	0	0	0	
1	0	0	0	0	461	366	1021	0	0	0	
2	0	0	0	0	458	359	1020	0	0	0	
3	0	0	0	0	456	355	1020	0	0	0	
4	0	0	0	0	457	352	1021	0	0	0	
5	0	0	0	0	457	349	1021	0	0	0	
6	0	0	0	0	457	347	1021	0	0	0	
7	0	0	0	0	456	344	1021	0	0	0	
8	0	0	0	0	453	340	1021	0	0	0	
9	0	0	0	0	447	335	1021	0	0	0	
10	0	0	0	0	440	327	1021	0	0	0	
11	0	0	0	0	429	317	1021	0	0	0	
12	0	0	0	0	417	305	1021	0	0	0	
13	0	0	0	0	403	292	1021	0	0	0	
14	0	0	0	0	389	280	1021	0	0	0	
15	0	0	0	0	375	267	1021	0	0	0	
0	0	0	0	0	363	257	1021	0	0	0	
1	0	0	0	0	356	250	1021	0	0	0	
2	0	0	0	0	354	247	1020	0	0	0	
3	0	0	0	0	359	249	1021	0	0	0	
4	0	0	0	0	371	256	1021	0	0	0	
5	0	0	0	0	390	268	1021	0	0	0	
6	0	0	0	0	413	286	1020	0	0	0	
7	0	0	0	0	439	307	1020	0	0	0	
8	0	0	0	0	468	333	1021	0	0	0	
9	0	0	0	0	496	361	1021	0	0	0	
10	0	0	0	0	521	388	1021	0	0	0	
11	0	0	0	0	543	415	1021	0	0	0	
12	0	0	0	0	563	440	1020	0	0	0	
13	0	0	0	0	579	462	1021	0	0	0	
14	0	0	0	0	589	479	1021	0	0	0	
15	0	0	0	0	595	492	1021	0	0	0	
0	0	0	0	0	595	500	1021	0	0	0	
1	0	0	0	0	593	504	1021	0	0	0	
2	0	0	0	0	587	505	1021	0	0	0	
3	0	0	0	0	579	502	1021	0	0	0	
4	0	0	0	0	568	495	1021	0	0	0	
5	0	0	0	0	558	487	1020	0	0	0	
6	0	0	0	0	548	478	1021	0	0	0	
7	0	0	0	0	542	470	1021	0	0	0	
8	0	0	0	0	538	463	1021	0	0	0	
9	0	0	0	0	539	459	1021	0	0	0	
10	0	0	0	0	543	457	1021	0	0	0	
11	0	0	0	0	551	457	1021	0	0	0	
12	0	0	0	0	562	460	1021	0	0	0	
13	0	0	0	0	576	466	1021	0	0	0	
14	0	0	0	0	591	473	1021	0	0	0	
15	0	0	0	0	604	480	1020	0	0	0	
0	0	0	0	0	615	487	1021	0	0	0	
1	0	0	0	0	623	492	1021	0	0	0	
2	0	0	0	0	626	495	1021	0	0	0	
3	0	0	0	0	624	496	1021	0	0	0	
4	0	0	0	0	617	495	1021	0	0	0	
5	0	0	0	0	606	491	1020	0	0	0	
6	0	0	0	0	593	486	1021	0	0	0	
7	0	0	0	0	579	482	1021	0	0	0	
8	0	0	0	0	567	478	1021	0	0	0	
9	0	0	0	0	559	477	1020	0	0	0	
10	0	0	0	0	557	478	1020	0	0	0	
11	0	0	0	0	562	482	1021	0	0	0	
12	0	0	0	0	572	488	1021	0	0	0	
13	0	0	0	0	587	497	1021	0	0	0	
14	0	0	0	0	604	506	1020	0	0	0	
15	0	0	0	0	623	516	1021	0	0	0	
0	0	0	0	0	640	524	1021	0	0	0	
1	0	0	0	0	655	531	1021	0	0	0	
2	0	0	0	0	664	536	1021	0	0	0	
3	0	0	0	0	666	537	1021	0	0	0	
4	0	0	0	0	664	537	1021	0	0	0	
5	0	0	0	0	656	533	1021	0	0	0	
6	0	0	0	0	643	528	1021	0	0	0	
7	0	0	0	0	625	521	1021	0	0	0	
8	0	0	0	0	607	513	1021	0	0	0	
9	0	0	0	0	587	505	1021	0	0	0	
10	0	0	0	0	570	497	1021	0	0	0	
11	0	0	0	0	556	490	1021	0	0	0	
12	0	0	0	0	546	484	1021	0	0	0	
13	0	0	0	0	541	479	1020	0	0	0	
14	0	0	0	0	541	476	1021	0	0	0	
15	0	0	0	0	546	476	1021	0	0	0	
0	0	0	0	0	554	476	1021	0	0	0	
1	0	0	0	0	566	478	1021	0	0	0	
2	0	0	0	0	578	481	1021	0	0	0	
3	0	0	0	0	591	485	1021	0	0	0	
4	0	0	0	0	601	488	1021	0	0	0	
5	0	0	0	0	608	490	1021	0	0	0	
6	0	0	0	0	612	492	1021	0	0	0	
7	0	0	0	0	614	492	1021	0	0	0	
8	0	0	0	0	611	491	1021	0	0	0	
9	0	0	0	0	607	489	1021	0	0	0	
10	0	0	0	0	601	487	1021	0	0	0	
11	0	0	0	0	593	485	1021	0	0	0	
12	0	0	0	0	584	481	1020	0	0	0	
13	0	0	0	0	574	477	1020	0	0	0	
14	0	0	0	0	565	473	1021	0	0	0	
15	0	0	0	0	556	469	1021	0	0	0	
0	0	0	0	0	550	466	1021	0	0	0	
1	0	0	0	0	545	462	1021	0	0	0	
2	0	0	0	0	543	460	1021	0	0	0	
3	0	0	0	0	545	458	1021	0	0	0	
4	0	0	0	0	550	457	1021	0	0	0	
5	0	0	0	0	556	457	1021	0	0	0	
6	0	0	0	0	566	460	1020	0	0	0	
7	0	0	0	0	578	463	1020	0	0	0	
8	0	0	0	0	591	468	1021	0	0	0	
9	0	0	0	0	603	475	1021	0	0	0	
10	0	0	0	0	614	482	1021	0	0	0	
11	0	0	0	0	621	488	1020	0	0	0	
12	0	0	0	0	624	495	1020	0	0	0	
13	0	0	0	0	626	502	1021	0	0	0	
14	0	0	0	0	625	508	1021	0	0	0	
15	0	0	0	0	624	514	1021	0	0	0	
0	0	0	0	0	622	519	1020	0	0	0	
1	0	0	0	0	621	524	1021	0	0	0	
2	0	0	0	0	620	527	1021	0	0	0	
3	0	0	0	0	620	530	1021	0	0	0	
4	0	0	0	0	620	532	1021	0	0	0	
5	0	0	0	0	622	532	1021	0	0	0	
6	0	0	0	0	623	532	1021	0	0	0	
7	0	0	0	0	623	529	1021	0	0	0	
8	0	0	0	0	622	525	1021	0	0	0	
9	0	0	0	0	620	519	1021	0	0	0	
10	0	0	0	0	615	512	1021	0	0	0	
11	0	0	0	0	607	504	1020	0	0	0	
12	0	0	0	0	599	496	1021	0	0	0	
13	0	0	0	0	589	487	1021	0	0	0	
14	0	0	0	0	579	480	1021	0	0	0	
15	0	0	0	0	569	473	1021	0	0	0	
0	0	0	0	0	560	467	1021	0	0	0	
1	0	0	0	0	552	463	1021	0	0	0	
2	0	0	0	0	546	459	1021	0	0	0	
3	0	0	0	0	541	457	1021	0	0	0	
4	0	0	0	0	539	456	1021	0	0	0	
5	0	0	0	0	537	455	1021	0	0	0	
6	0	0	0	0	537	455	1021	0	0	0	
7	0	0	0	0	538	454	1021	0	0	0	
8	0	0	0	0	540	454	1021	0	0	0	
9	0	0	0	0	541	452	1021	0	0	0	
10	0	0	0	0	544	452	1021	0	0	0	
11	0	0	0	0	546	451	1021	0	0	0	
12	0	0	0	0	548	450	1021	0	0	0	
13	0	0	0	0	550	451	1021	0	0	0	
14	0	0	0	0	551	452	1021	0	0	0	
15	0	0	0	0	556	455	1021	0	0	0	
0	0	0	0	0	560	459	1021	0	0	0	
1	0	0	0	0	566	466	1021	0	0	0	
2	0	0	0	0	573	473	1021	0	0	0	
3	0	0	0	0	580	482	1021	0	0	0	
4	0	0	0	0	589	492	1021	0	0	0	
5	0	0	0	0	596	501	1021	0	0	0	
6	0	0	0	0	603	509	1021	0	0	0	
7	0	0	0	0	608	514	1021	0	0	0	
8	0	0	0	0	611	516	1021	0	0	0	
9	0	0	0	0	613	516	1021	0	0	0	
10	0	0	0	0	613	513	1021	0	0	0	
11	0	0	0	0	611	508	1021	0	0	0	
12	0	0	0	0	607	501	1021	0	0	0	
13	0	0	0	0	601	493	1021	0	0	0	
14	0	0	0	0	594	486	1021	0	0	0	
15	0	0	0	0	584	478	1021	0	0	0	
0	0	0	0	0	574	471	1021	0	0	0	
1	0	0	0	0	561	464	1021	0	0	0	
2	0	0	0	0	548	458	1021	0	0	0	
3	0	0	0	0	537	454	1021	0	0	0	
4	0	0	0	0	527	452	1021	0	0	0	
5	0	0	0	0	520	453	1021	0	0	0	
6	0	0	0	0	517	455	1021	0	0	0	
7	0	0	0	0	517	460	1021	0	0	0	
8	0	0	0	0	521	465	1021	0	0	0	
9	0	0	0	0	528	472	1021	0	0	0	
10	0	0	0	0	537	479	1021	0	0	0	
11	0	0	0	0	547	485	1021	0	0	0	
12	0	0	0	0	557	489	1021	0	0	0	
13	0	0	0	0	567	493	1021	0	0	0	
14	0	0	0	0	575	494	1021	0	0	0	
15	0	0	0	0	581	494	1021	0	0	0	
0	0	0	0	0	585	493	1021	0	0	0	
1	0	0	0	0	588	490	1021	0	0	0	
2	0	0	0	0	591	487	1021	0	0	0	
3	0	0	0	0	593	484	1021	0	0	0	
4	0	0	0	0	593	481	1021	0	0	0	
5	0	0	0	0	593	478	1021	0	0	0	
6	0	0	0	0	591	475	1021	0	0	0	
7	0	0	0	0	591	473	1021	0	0	0	
8	0	0	0	0	590	472	1021	0	0	0	
9	0	0	0	0	589	473	1021	0	0	0	
10	0	0	0	0	590	476	1021	0	0	0	
11	0	0	0	0	592	481	1021	0	0	0	
12	0	0	0	0	597	487	1021	0	0	0	
13	0	0	0	0	604	495	1021	0	0	0	
14	0	0	0	0	611	501	1021	0	0	0	
15	0	0	0	0	618	508	1021	0	0	0	
0	0	0	0	0	623	512	1021	0	0	0	
1	0	0	0	0	625	515	1021	0	0	0	
2	0	0	0	0	625	515	1021	0	0	0	
3	0	0	0	0	619	511	1021	0	0	0	
4	0	0	0	0	610	506	1021	0	0	0	
5	0	0	0	0	598	499	1021	0	0	0	
6	0	0	0	0	583	491	1021	0	0	0	
7	0	0	0	0	568	484	1021	0	0	0	
8	0	0	0	0	552	477	1021	0	0	0	
9	0	0	0	0	538	472	1021	0	0	0	
10	0	0	0	0	528	470	1021	0	0	0	
11	0	0	0	0	521	469	1021	0	0	0	
12	0	0	0	0	519	470	1021	0	0	0	
13	0	0	0	0	520	473	1021	0	0	0	
14	0	0	0	0	526	477	1021	0	0	0	
15	0	0	0	0	536	481	1021	0	0	0	
0	0	0	0	0	548	487	1020	0	0	0	
1	0	0	0	0	562	493	1021	0	0	0	
2	0	0	0	0	575	498	1021	0	0	0	
3	0	0	0	0	588	502	1021	0	0	0	
4	0	0	0	0	599	504	1020	0	0	0	
5	0	0	0	0	606	504	1020	0	0	0	
6	0	0	0	0	609	502	1021	0	0	0	
7	0	0	0	0	608	496	1021	0	0	0	
8	0	0	0	0	602	488	1021	0	0	0	
9	0	0	0	0	593	479	1021	0	0	0	
10	0	0	0	0	580	468	1020	0	0	0	
11	0	0	0	0	567	456	1021	0	0	0	
12	0	0	0	0	551	444	1021	0	0	0	
13	0	0	0	0	536	432	1021	0	0	0	
14	0	0	0	0	523	423	1020	0	0	0	
15	0	0	0	0	512	416	1020	0	0	0	
0	0	0	0	0	505	412	1021	0	0	0	
1	0	0	0	0	503	413	1021	0	0	0	
2	0	0	0	0	505	417	1021	0	0	0	
3	0	0	0	0	511	425	1020	0	0	0	
4	0	0	0	0	520	435	1020	0	0	0	
5	0	0	0	0	532	446	1021	0	0	0	
6	0	0	0	0	545	459	1021	0	0	0	
7	0	0	0	0	558	471	1021	0	0	0	
8	0	0	0	0	570	483	1021	0	0	0	
9	0	0	0	0	580	494	1021	0	0	0	
10	0	0	0	0	590	503	1021	0	0	0	
11	0	0	0	0	596	511	1021	0	0	0	
12	0	0	0	0	600	516	1021	0	0	0	
13	0	0	0	0	603	518	1021	0	0	0	
14	0	0	0	0	602	519	1021	0	0	0	
15	0	0	0	0	601	518	1021	0	0	0	
0	0	0	0	0	599	515	1021	0	0	0	
1	0	0	0	0	596	513	1021	0	0	0	
2	0	0	0	0	594	510	1021	0	0	0	
3	0	0	0	0	594	508	1021	0	0	0	
4	0	0	0	0	594	507	1021	0	0	0	
5	0	0	0	0	595	507	1021	0	0	0	
6	0	0	0	0	598	507	1021	0	0	0	
7	0	0	0	0	600	508	1021	0	0	0	
8	0	0	0	0	605	509	1021	0	0	0	
9	0	0	0	0	609	510	1021	0	0	0	
10	0	0	0	0	614	511	1021	0	0	0	
11	0	0	0	0	619	512	1021	0	0	0	
12	0	0	0	0	623	512	1021	0	0	0	
13	0	0	0	0	625	511	1021	0	0	0	
14	0	0	0	0	623	508	1021	0	0	0	
15	0	0	0	0	617	504	1021	0	0	0	
0	0	0	0	0	607	497	1021	0	0	0	
1	0	0	0	0	595	489	1021	0	0	0	
2	0	0	0	0	582	482	1021	0	0	0	
3	0	0	0	0	569	475	1021	0	0	0	
4	0	0	0	0	557	469	1021	0	0	0	
5	0	0	0	0	547	465	1021	0	0	0	
6	0	0	0	0	538	463	1021	0	0	0	
7	0	0	0	0	534	463	1021	0	0	0	
8	0	0	0	0	531	465	1021	0	0	0	
9	0	0	0	0	533	469	1021	0	0	0	
10	0	0	0	0	537	474	1021	0	0	0	
11	0	0	0	0	542	479	1020	0	0	0	
12	0	0	0	0	548	484	1021	0	0	0	
13	0	0	0	0	555	488	1021	0	0	0	
14	0	0	0	0	560	492	1021	0	0	0	
15	0	0	0	0	564	494	1021	0	0	0	
0	0	0	0	0	566	493	1021	0	0	0	
1	0	0	0	0	566	492	1021	0	0	0	
2	0	0	0	0	565	488	1021	0	0	0	
3	0	0	0	0	563	484	1021	0	0	0	
4	0	0	0	0	559	478	1021	0	0	0	
5	0	0	0	0	553	472	1021	0	0	0	
6	0	0	0	0	548	465	1021	0	0	0	
7	0	0	0	0	543	459	1021	0	0	0	
8	0	0	0	0	538	453	1021	0	0	0	
9	0	0	0	0	535	449	1021	0	0	0	
10	0	0	0	0	532	446	1021	0	0	0	
11	0	0	0	0	532	446	1020	0	0	0	
12	0	0	0	0	536	447	1021	0	0	0	
13	0	0	0	0	540	451	1021	0	0	0	
14	0	0	0	0	548	456	1021	0	0	0	
15	0	0	0	0	556	462	1021	0	0	0	
0	0	0	0	0	564	469	1020	0	0	0	
1	0	0	0	0	573	475	1021	0	0	0	
2	0	0	0	0	579	480	1021	0	0	0	
3	0	0	0	0	584	483	1021	0	0	0	
4	0	0	0	0	587	485	1021	0	0	0	
5	0	0	0	0	588	486	1020	0	0	0	
6	0	0	0	0	587	484	1021	0	0	0	
7	0	0	0	0	582	479	1021	0	0	0	
8	0	0	0	0	575	474	1021	0	0	0	
9	0	0	0	0	567	468	1021	0	0	0	
10	0	0	0	0	558	462	1021	0	0	0	
11	0	0	0	0	548	455	1021	0	0	0	
12	0	0	0	0	538	450	1021	0	0	0	
13	0	0	0	0	530	446	1021	0	0	0	
14	0	0	0	0	524	444	1020	0	0	0	
15	0	0	0	0	522	445	1020	0	0	0	
0	0	0	0	0	527	450	1021	0	0	0	
1	0	0	0	0	538	460	1021	0	0	0	
2	0	0	0	0	554	472	1021	0	0	0	
3	0	0	0	0	574	488	1020	0	0	0	
4	0	0	0	0	595	503	1020	0	0	0	
5	0	0	0	0	615	517	1021	0	0	0	
6	0	0	0	0	631	528	1021	0	0	0	
7	0	0	0	0	641	536	1021	0	0	0	
8	0	0	0	0	646	539	1021	0	0	0	
9	0	0	0	0	643	538	1020	0	0	0	
10	0	0	0	0	635	533	1021	0	0	0	
11	0	0	0	0	621	523	1021	0	0	0	
12	0	0	0	0	603	511	1021	0	0	0	
13	0	0	0	0	583	497	1020	0	0	0	
14	0	0	0	0	562	483	1021	0	0	0	
15	0	0	0	0	544	470	1021	0	0	0	
0	0	0	0	0	529	460	1021	0	0	0	
1	0	0	0	0	519	453	1021	0	0	0	
2	0	0	0	0	515	449	1021	0	0	0	
3	0	0	0	0	515	450	1020	0	0	0	
4	0	0	0	0	521	454	1021	0	0	0	
5	0	0	0	0	532	461	1021	0	0	0	
6	0	0	0	0	546	471	1021	0	0	0	
7	0	0	0	0	563	481	1020	0	0	0	
8	0	0	0	0	579	492	1021	0	0	0	
9	0	0	0	0	595	502	1021	0	0	0	
10	0	0	0	0	608	510	1021	0	0	0	
11	0	0	0	0	620	516	1021	0	0	0	
12	0	0	0	0	627	519	1021	0	0	0	
13	0	0	0	0	629	519	1021	0	0	0	
14	0	0	0	0	628	517	1021	0	0	0	
15	0	0	0	0	624	512	1021	0	0	0	
0	0	0	0	0	617	507	1021	0	0	0	
1	0	0	0	0	607	501	1020	0	0	0	
2	0	0	0	0	595	494	1020	0	0	0	
3	0	0	0	0	581	486	1021	0	0	0	
4	0	0	0	0	566	478	1021	0	0	0	
5	0	0	0	0	550	469	1021	0	0	0	
6	0	0	0	0	535	461	1021	0	0	0	
7	0	0	0	0	522	455	1020	0	0	0	
8	0	0	0	0	514	451	1021	0	0	0	
9	0	0	0	0	510	451	1021	0	0	0	
10	0	0	0	0	509	452	1021	0	0	0	
11	0	0	0	0	511	455	1021	0	0	0	
12	0	0	0	0	515	460	1021	0	0	0	
13	0	0	0	0	521	464	1021	0	0	0	
14	0	0	0	0	528	469	1021	0	0	0	
15	0	0	0	0	534	472	1021	0	0	0	
0	0	0	0	0	540	472	1021	0	0	0	
1	0	0	0	0	543	471	1020	0	0	0	
2	0	0	0	0	547	467	1021	0	0	0	
3	0	0	0	0	548	461	1021	0	0	0	
4	0	0	0	0	549	454	1021	0	0	0	
5	0	0	0	0	549	446	1020	0	0	0	
6	0	0	0	0	547	438	1020	0	0	0	
7	0	0	0	0	545	431	1021	0	0	0	
8	0	0	0	0	541	425	1021	0	0	0	
9	0	0	0	0	537	420	1021	0	0	0	
10	0	0	0	0	532	417	1020	0	0	0	
11	0	0	0	0	528	417	1020	0	0	0	
12	0	0	0	0	527	420	1021	0	0	0	
13	0	0	0	0	527	426	1021	0	0	0	
14	0	0	0	0	530	435	1021	0	0	0	
15	0	0	0	0	535	446	1021	0	0	0	
0	0	0	0	0	543	458	1021	0	0	0	
1	0	0	0	0	553	470	1021	0	0	0	
2	0	0	0	0	563	482	1021	0	0	0	
3	0	0	0	0	572	492	1021	0	0	0	
4	0	0	0	0	579	499	1021	0	0	0	
5	0	0	0	0	585	504	1021	0	0	0	
6	0	0	0	0	588	505	1021	0	0	0	
7	0	0	0	0	590	505	1021	0	0	0	
8	0	0	0	0	590	504	1021	0	0	0	
9	0	0	0	0	590	501	1021	0	0	0	
10	0	0	0	0	590	499	1021	0	0	0	
11	0	0	0	0	590	496	1021	0	0	0	
12	0	0	0	0	590	494	1021	0	0	0	
13	0	0	0	0	592	494	1021	0	0	0	
14	0	0	0	0	595	495	1021	0	0	0	
15	0	0	0	0	601	499	1021	0	0	0	
0	0	0	0	0	608	506	1021	0	0	0	
1	0	0	0	0	617	515	1021	0	0	0	
2	0	0	0	0	625	526	1021	0	0	0	
3	0	0	0	0	632	536	1021	0	0	0	
4	0	0	0	0	638	547	1021	0	0	0	
5	0	0	0	0	642	557	1021	0	0	0	
6	0	0	0	0	644	566	1021	0	0	0	
7	0	0	0	0	645	572	1021	0	0	0	
8	0	0	0	0	642	576	1021	0	0	0	
9	0	0	0	0	637	575	1021	0	0	0	
10	0	0	0	0	627	570	1021	0	0	0	
11	0	0	0	0	614	560	1021	0	0	0	
12	0	0	0	0	597	546	1021	0	0	0	
13	0	0	0	0	579	528	1021	0	0	0	
14	0	0	0	0	560	508	1021	0	0	0	
15	0	0	0	0	542	487	1021	0	0	0	
0	0	0	0	0	526	467	1021	0	0	0	
1	0	0	0	0	512	448	1021	0	0	0	
2	0	0	0	0	502	432	1021	0	0	0	
3	0	0	0	0	495	419	1021	0	0	0	
4	0	0	0	0	493	412	1021	0	0	0	
5	0	0	0	0	493	407	1021	0	0	0	
6	0	0	0	0	497	407	1021	0	0	0	
7	0	0	0	0	504	410	1021	0	0	0	
8	0	0	0	0	512	416	1021	0	0	0	
9	0	0	0	0	522	423	1021	0	0	0	
10	0	0	0	0	532	432	1021	0	0	0	
11	0	0	0	0	542	441	1021	0	0	0	
12	0	0	0	0	551	450	1020	0	0	0	
13	0	0	0	0	556	458	1020	0	0	0	
14	0	0	0	0	561	465	1021	0	0	0	
15	0	0	0	0	563	471	1021	0	0	0	
0	0	0	0	0	563	474	1021	0	0	0	
1	0	0	0	0	560	476	1021	0	0	0	
2	0	0	0	0	555	477	1021	0	0	0	
3	0	0	0	0	550	476	1021	0	0	0	
4	0	0	0	0	543	475	1021	0	0	0	
5	0	0	0	0	535	472	1021	0	0	0	
6	0	0	0	0	528	469	1020	0	0	0	
7	0	0	0	0	523	467	1020	0	0	0	
8	0	0	0	0	521	466	1021	0	0	0	
9	0	0	0	0	521	466	1021	0	0	0	
10	0	0	0	0	525	468	1021	0	0	0	
11	0	0	0	0	532	471	1021	0	0	0	
12	0	0	0	0	540	475	1020	0	0	0	
13	0	0	0	0	551	480	1021	0	0	0	
14	0	0	0	0	561	484	1021	0	0	0	
15	0	0	0	0	572	488	1021	0	0	0	
0	0	0	0	0	580	491	1021	0	0	0	
1	0	0	0	0	584	491	1021	0	0	0	
2	0	0	0	0	585	489	1021	0	0	0	
3	0	0	0	0	582	485	1021	0	0	0	
4	0	0	0	0	574	478	1021	0	0	0	
5	0	0	0	0	563	470	1021	0	0	0	
6	0	0	0	0	550	461	1021	0	0	0	
7	0	0	0	0	534	451	1021	0	0	0	
8	0	0	0	0	519	443	1021	0	0	0	
9	0	0	0	0	505	435	1021	0	0	0	
10	0	0	0	0	494	431	1021	0	0	0	
11	0	0	0	0	487	430	1020	0	0	0	
12	0	0	0	0	487	434	1021	0	0	0	
13	0	0	0	0	493	441	1021	0	0	0	
14	0	0	0	0	505	453	1021	0	0	0	
15	0	0	0	0	523	467	1021	0	0	0	
0	0	0	0	0	544	482	1021	0	0	0	
1	0	0	0	0	568	497	1021	0	0	0	
2	0	0	0	0	590	511	1021	0	0	0	
3	0	0	0	0	610	523	1021	0	0	0	
4	0	0	0	0	627	532	1021	0	0	0	
5	0	0	0	0	640	539	1020	0	0	0	
6	0	0	0	0	650	543	1021	0	0	0	
7	0	0	0	0	654	544	1021	0	0	0	
8	0	0	0	0	653	543	1021	0	0	0	
9	0	0	0	0	648	540	1021	0	0	0	
10	0	0	0	0	640	536	1021	0	0	0	
11	0	0	0	0	629	531	1021	0	0	0	
12	0	0	0	0	617	525	1021	0	0	0	
13	0	0	0	0	604	519	1021	0	0	0	
14	0	0	0	0	591	513	1020	0	0	0	
15	0	0	0	0	579	507	1020	0	0	0	
0	0	0	0	0	570	502	1021	0	0	0	
1	0	0	0	0	561	497	1021	0	0	0	
2	0	0	0	0	556	494	1021	0	0	0	
3	0	0	0	0	553	491	1020	0	0	0	
4	0	0	0	0	551	488	1020	0	0	0	
5	0	0	0	0	553	487	1021	0	0	0	
6	0	0	0	0	557	486	1021	0	0	0	
7	0	0	0	0	561	487	1021	0	0	0	
8	0	0	0	0	566	487	1021	0	0	0	
9	0	0	0	0	572	489	1021	0	0	0	
10	0	0	0	0	576	490	1021	0	0	0	
11	0	0	0	0	580	491	1021	0	0	0	
12	0	0	0	0	582	492	1021	0	0	0	
13	0	0	0	0	581	491	1020	0	0	0	
14	0	0	0	0	579	490	1021	0	0	0	
15	0	0	0	0	576	488	1021	0	0	0	
0	0	0	0	0	571	484	1021	0	0	0	
1	0	0	0	0	563	479	1021	0	0	0	
2	0	0	0	0	556	472	1021	0	0	0	
3	0	0	0	0	547	464	1020	0	0	0	
4	0	0	0	0	539	457	1021	0	0	0	
5	0	0	0	0	531	449	1021	0	0	0	
6	0	0	0	0	526	444	1021	0	0	0	
7	0	0	0	0	521	439	1021	0	0	0	
8	0	0	0	0	516	436	1021	0	0	0	
9	0	0	0	0	514	435	1021	0	0	0	
10	0	0	0	0	513	437	1021	0	0	0	
11	0	0	0	0	514	440	1021	0	0	0	
12	0	0	0	0	516	444	1021	0	0	0	
13	0	0	0	0	520	449	1021	0	0	0	
14	0	0	0	0	526	454	1021	0	0	0	
15	0	0	0	0	531	458	1021	0	0	0	
0	0	0	0	0	537	461	1021	0	0	0	
1	0	0	0	0	542	464	1021	0	0	0	
2	0	0	0	0	547	466	1021	0	0	0	
3	0	0	0	0	551	467	1021	0	0	0	
4	0	0	0	0	553	467	1021	0	0	0	
5	0	0	0	0	553	466	1021	0	0	0	
6	0	0	0	0	552	465	1021	0	0	0	
7	0	0	0	0	551	465	1021	0	0	0	
8	0	0	0	0	549	465	1021	0	0	0	
9	0	0	0	0	547	465	1021	0	0	0	
10	0	0	0	0	545	466	1021	0	0	0	
11	0	0	0	0	543	468	1021	0	0	0	
12	0	0	0	0	543	472	1021	0	0	0	
13	0	0	0	0	543	476	1021	0	0	0	
14	0	0	0	0	545	480	1021	0	0	0	
15	0	0	0	0	547	486	1021	0	0	0	
0	0	0	0	0	551	493	1021	0	0	0	
1	0	0	0	0	557	499	1021	0	0	0	
2	0	0	0	0	562	505	1021	0	0	0	
3	0	0	0	0	567	510	1021	0	0	0	
4	0	0	0	0	571	513	1021	0	0	0	
5	0	0	0	0	574	514	1021	0	0	0	
6	0	0	0	0	575	514	1021	0	0	0	
7	0	0	0	0	575	513	1021	0	0	0	
8	0	0	0	0	575	510	1021	0	0	0	
9	0	0	0	0	574	507	1021	0	0	0	
10	0	0	0	0	572	504	1021	0	0	0	
11	0	0	0	0	573	502	1021	0	0	0	
12	0	0	0	0	574	501	1021	0	0	0	
13	0	0	0	0	576	501	1021	0	0	0	
14	0	0	0	0	580	502	1021	0	0	0	
15	0	0	0	0	583	503	1021	0	0	0	
0	0	0	0	0	590	505	1021	0	0	0	
1	0	0	0	0	595	508	1021	0	0	0	
2	0	0	0	0	600	511	1021	0	0	0	
3	0	0	0	0	605	512	1021	0	0	0	
4	0	0	0	0	606	512	1021	0	0	0	
5	0	0	0	0	607	511	1021	0	0	0	
6	0	0	0	0	604	508	1021	0	0	0	
7	0	0	0	0	598	503	1021	0	0	0	
8	0	0	0	0	588	496	1021	0	0	0	
9	0	0	0	0	575	487	1021	0	0	0	
10	0	0	0	0	563	479	1021	0	0	0	
11	0	0	0	0	550	471	1021	0	0	0	
12	0	0	0	0	537	464	1021	0	0	0	
13	0	0	0	0	527	459	1021	0	0	0	
14	0	0	0	0	519	455	1021	0	0	0	
15	0	0	0	0	515	454	1021	0	0	0	
0	0	0	0	0	515	455	1021	0	0	0	
1	0	0	0	0	518	459	1021	0	0	0	
2	0	0	0	0	524	464	1021	0	0	0	
3	0	0	0	0	533	471	1021	0	0	0	
4	0	0	0	0	544	479	1021	0	0	0	
5	0	0	0	0	557	486	1021	0	0	0	
6	0	0	0	0	568	492	1021	0	0	0	
7	0	0	0	0	577	496	1021	0	0	0	
8	0	0	0	0	583	498	1020	0	0	0	
9	0	0	0	0	584	497	1021	0	0	0	
10	0	0	0	0	582	494	1021	0	0	0	
11	0	0	0	0	575	488	1021	0	0	0	
12	0	0	0	0	564	481	1021	0	0	0	
13	0	0	0	0	552	475	1020	0	0	0	
14	0	0	0	0	540	468	1021	0	0	0	
15	0	0	0	0	529	462	1021	0	0	0	
0	0	0	0	0	520	458	1021	0	0	0	
1	0	0	0	0	514	456	1021	0	0	0	
2	0	0	0	0	512	457	1021	0	0	0	
3	0	0	0	0	514	460	1021	0	0	0	
4	0	0	0	0	521	466	1021	0	0	0	
5	0	0	0	0	531	474	1021	0	0	0	
6	0	0	0	0	545	484	1021	0	0	0	
7	0	0	0	0	560	495	1020	0	0	0	
8	0	0	0	0	576	506	1021	0	0	0	
9	0	0	0	0	592	516	1021	0	0	0	
10	0	0	0	0	604	523	1021	0	0	0	
11	0	0	0	0	613	526	1021	0	0	0	
12	0	0	0	0	616	526	1021	0	0	0	
13	0	0	0	0	614	523	1020	0	0	0	
14	0	0	0	0	607	516	1021	0	0	0	
15	0	0	0	0	595	507	1021	0	0	0	
0	0	0	0	0	580	496	1021	0	0	0	
1	0	0	0	0	563	483	1020	0	0	0	
2	0	0	0	0	546	471	1021	0	0	0	
3	0	0	0	0	530	460	1021	0	0	0	
4	0	0	0	0	515	448	1021	0	0	0	
5	0	0	0	0	503	438	1021	0	0	0	
6	0	0	0	0	493	430	1021	0	0	0	
7	0	0	0	0	486	424	1021	0	0	0	
8	0	0	0	0	483	421	1021	0	0	0	
9	0	0	0	0	483	420	1021	0	0	0	
10	0	0	0	0	485	421	1021	0	0	0	
11	0	0	0	0	490	423	1021	0	0	0	
12	0	0	0	0	495	425	1021	0	0	0	
13	0	0	0	0	499	427	1021	0	0	0	
14	0	0	0	0	501	427	1021	0	0	0	
15	0	0	0	0	500	424	1021	0	0	0	
0	0	0	0	0	495	418	1021	0	0	0	
1	0	0	0	0	485	408	1021	0	0	0	
2	0	0	0	0	472	396	1021	0	0	0	
3	0	0	0	0	455	379	1021	0	0	0	
4	0	0	0	0	435	361	1021	0	0	0	
5	0	0	0	0	414	342	1021	0	0	0	
6	0	0	0	0	393	322	1021	0	0	0	
7	0	0	0	0	373	303	1021	0	0	0	
8	0	0	0	0	355	286	1021	0	0	0	
9	0	0	0	0	340	272	1021	0	0	0	
10	0	0	0	0	329	262	1021	0	0	0	
11	0	0	0	0	322	256	1020	0	0	0	
12	0	0	0	0	321	254	1021	0	0	0	
13	0	0	0	0	324	257	1021	0	0	0	
14	0	0	0	0	332	263	1021	0	0	0	
15	0	0	0	0	345	274	1021	0	0	0	
0	0	0	0	0	362	288	1021	0	0	0	
1	0	0	0	0	383	304	1021	0	0	0	
2	0	0	0	0	404	323	1021	0	0	0	
3	0	0	0	0	429	344	1021	0	0	0	
4	0	0	0	0	452	364	1021	0	0	0	
5	0	0	0	0	475	384	1021	0	0	0	
6	0	0	0	0	497	402	1021	0	0	0	
7	0	0	0	0	515	419	1021	0	0	0	
8	0	0	0	0	531	433	1021	0	0	0	
9	0	0	0	0	543	445	1021	0	0	0	
10	0	0	0	0	552	455	1021	0	0	0	
11	0	0	0	0	560	463	1021	0	0	0	
12	0	0	0	0	565	469	1021	0	0	0	
13	0	0	0	0	568	474	1021	0	0	0	
14	0	0	0	0	570	478	1020	0	0	0	
15	0	0	0	0	571	482	1020	0	0	0	
0	0	0	0	0	573	486	1021	0	0	0	
1	0	0	0	0	575	490	1021	0	0	0	
2	0	0	0	0	579	495	1021	0	0	0	
3	0	0	0	0	583	499	1021	0	0	0	
4	0	0	0	0	588	505	1021	0	0	0	
5	0	0	0	0	592	511	1021	0	0	0	
6	0	0	0	0	597	515	1021	0	0	0	
7	0	0	0	0	600	520	1021	0	0	0	
8	0	0	0	0	602	524	1021	0	0	0	
9	0	0	0	0	603	528	1021	0	0	0	
10	0	0	0	0	602	530	1021	0	0	0	
11	0	0	0	0	600	530	1021	0	0	0	
12	0	0	0	0	596	529	1021	0	0	0	
13	0	0	0	0	590	526	1021	0	0	0	
14	0	0	0	0	583	520	1021	0	0	0	
15	0	0	0	0	575	513	1021	0	0	0	
0	0	0	0	0	565	505	1021	0	0	0	
1	0	0	0	0	555	497	1021	0	0	0	
2	0	0	0	0	547	489	1021	0	0	0	
3	0	0	0	0	539	483	1021	0	0	0	
4	0	0	0	0	535	478	1021	0	0	0	
5	0	0	0	0	532	476	1021	0	0	0	
6	0	0	0	0	530	474	1021	0	0	0	
7	0	0	0	0	530	476	1020	0	0	0	
8	0	0	0	0	532	478	1021	0	0	0	
9	0	0	0	0	537	483	1021	0	0	0	
10	0	0	0	0	544	489	1021	0	0	0	
11	0	0	0	0	555	497	1021	0	0	0	
12	0	0	0	0	569	506	1021	0	0	0	
13	0	0	0	0	585	516	1021	0	0	0	
14	0	0	0	0	602	526	1021	0	0	0	
15	0	0	0	0	617	534	1021	0	0	0	
0	0	0	0	0	632	540	1021	0	0	0	
1	0	0	0	0	642	542	1021	0	0	0	
2	0	0	0	0	648	541	1020	0	0	0	
3	0	0	0	0	651	538	1021	0	0	0	
4	0	0	0	0	646	531	1021	0	0	0	
5	0	0	0	0	636	521	1021	0	0	0	
6	0	0	0	0	622	511	1021	0	0	0	
7	0	0	0	0	604	499	1021	0	0	0	
8	0	0	0	0	585	489	1021	0	0	0	
9	0	0	0	0	567	481	1021	0	0	0	
10	0	0	0	0	550	475	1021	0	0	0	
11	0	0	0	0	535	471	1021	0	0	0	
12	0	0	0	0	522	469	1021	0	0	0	
13	0	0	0	0	514	471	1021	0	0	0	
14	0	0	0	0	510	473	1021	0	0	0	
15	0	0	0	0	510	478	1021	0	0	0	
0	0	0	0	0	515	485	1021	0	0	0	
1	0	0	0	0	524	492	1020	0	0	0	
2	0	0	0	0	537	501	1021	0	0	0	
3	0	0	0	0	553	510	1021	0	0	0	
4	0	0	0	0	569	518	1021	0	0	0	
5	0	0	0	0	586	527	1021	0	0	0	
6	0	0	0	0	601	535	1020	0	0	0	
7	0	0	0	0	616	542	1021	0	0	0	
8	0	0	0	0	628	547	1021	0	0	0	
9	0	0	0	0	637	550	1021	0	0	0	
10	0	0	0	0	641	551	1020	0	0	0	
11	0	0	0	0	642	550	1020	0	0	0	
12	0	0	0	0	639	546	1021	0	0	0	
13	0	0	0	0	632	540	1021	0	0	0	
14	0	0	0	0	622	534	1021	0	0	0	
15	0	0	0	0	609	526	1021	0	0	0	
0	0	0	0	0	596	519	1021	0	0	0	
1	0	0	0	0	583	513	1021	0	0	0	
2	0	0	0	0	572	508	1021	0	0	0	
3	0	0	0	0	562	505	1021	0	0	0	
4	0	0	0	0	556	504	1021	0	0	0	
5	0	0	0	0	551	503	1021	0	0	0	
6	0	0	0	0	549	503	1021	0	0	0	
7	0	0	0	0	548	503	1021	0	0	0	
8	0	0	0	0	549	503	1021	0	0	0	
9	0	0	0	0	551	503	1021	0	0	0	
10	0	0	0	0	554	504	1021	0	0	0	
11	0	0	0	0	559	505	1021	0	0	0	
12	0	0	0	0	564	506	1021	0	0	0	
13	0	0	0	0	570	507	1021	0	0	0	
14	0	0	0	0	575	508	1020	0	0	0	
15	0	0	0	0	580	508	1021	0	0	0	
0	0	0	0	0	584	508	1021	0	0	0	
1	0	0	0	0	588	507	1021	0	0	0	
2	0	0	0	0	592	507	1021	0	0	0	
3	0	0	0	0	596	507	1021	0	0	0	
4	0	0	0	0	600	506	1021	0	0	0	
5	0	0	0	0	606	506	1021	0	0	0	
6	0	0	0	0	609	506	1021	0	0	0	
7	0	0	0	0	611	505	1021	0	0	0	
8	0	0	0	0	610	504	1021	0	0	0	
9	0	0	0	0	605	503	1020	0	0	0	
10	0	0	0	0	598	501	1021	0	0	0	
11	0	0	0	0	588	499	1021	0	0	0	
12	0	0	0	0	576	496	1021	0	0	0	
13	0	0	0	0	563	493	1021	0	0	0	
14	0	0	0	0	549	490	1020	0	0	0	
15	0	0	0	0	537	488	1021	0	0	0	
0	0	0	0	0	528	488	1021	0	0	0	
1	0	0	0	0	523	489	1021	0	0	0	
2	0	0	0	0	521	492	1021	0	0	0	
3	0	0	0	0	525	497	1021	0	0	0	
4	0	0	0	0	534	504	1021	0	0	0	
5	0	0	0	0	546	511	1021	0	0	0	
6	0	0	0	0	561	520	1021	0	0	0	
7	0	0	0	0	580	529	1021	0	0	0	
8	0	0	0	0	599	538	1021	0	0	0	
9	0	0	0	0	618	547	1021	0	0	0	
10	0	0	0	0	636	555	1021	0	0	0	
11	0	0	0	0	649	560	1021	0	0	0	
12	0	0	0	0	656	562	1021	0	0	0	
13	0	0	0	0	658	561	1020	0	0	0	
14	0	0	0	0	654	556	1021	0	0	0	
15	0	0	0	0	641	547	1021	0	0	0	
0	0	0	0	0	624	534	1021	0	0	0	
1	0	0	0	0	601	519	1021	0	0	0	
2	0	0	0	0	576	502	1020	0	0	0	
3	0	0	0	0	551	485	1021	0	0	0	
4	0	0	0	0	526	470	1021	0	0	0	
5	0	0	0	0	505	456	1021	0	0	0	
6	0	0	0	0	489	446	1021	0	0	0	
7	0	0	0	0	479	440	1021	0	0	0	
8	0	0	0	0	475	438	1021	0	0	0	
9	0	0	0	0	477	440	1021	0	0	0	
10	0	0	0	0	486	445	1021	0	0	0	
11	0	0	0	0	499	452	1021	0	0	0	
12	0	0	0	0	516	461	1021	0	0	0	
13	0	0	0	0	534	471	1021	0	0	0	
14	0	0	0	0	553	480	1021	0	0	0	
15	0	0	0	0	570	488	1021	0	0	0	
0	0	0	0	0	585	496	1021	0	0	0	
1	0	0	0	0	598	503	1020	0	0	0	
2	0	0	0	0	608	509	1021	0	0	0	
3	0	0	0	0	615	513	1021	0	0	0	
4	0	0	0	0	620	516	1021	0	0	0	
5	0	0	0	0	620	518	1021	0	0	0	
6	0	0	0	0	617	519	1020	0	0	0	
7	0	0	0	0	613	519	1021	0	0	0	
8	0	0	0	0	605	518	1021	0	0	0	
9	0	0	0	0	595	515	1021	0	0	0	
10	0	0	0	0	583	512	1021	0	0	0	
11	0	0	0	0	572	509	1020	0	0	0	
12	0	0	0	0	560	506	1021	0	0	0	
13	0	0	0	0	548	504	1021	0	0	0	
14	0	0	0	0	538	502	1021	0	0	0	
15	0	0	0	0	531	500	1021	0	0	0	
0	0	0	0	0	526	501	1021	0	0	0	
1	0	0	0	0	527	503	1021	0	0	0	
2	0	0	0	0	531	505	1021	0	0	0	
3	0	0	0	0	539	508	1021	0	0	0	
4	0	0	0	0	550	511	1021	0	0	0	
5	0	0	0	0	561	512	1021	0	0	0	
6	0	0	0	0	575	513	1021	0	0	0	
7	0	0	0	0	587	512	1021	0	0	0	
8	0	0	0	0	596	510	1021	0	0	0	
9	0	0	0	0	603	507	1021	0	0	0	
10	0	0	0	0	605	503	1021	0	0	0	
11	0	0	0	0	603	499	1021	0	0	0	
12	0	0	0	0	598	495	1021	0	0	0	
13	0	0	0	0	589	490	1021	0	0	0	
14	0	0	0	0	578	487	1020	0	0	0	
15	0	0	0	0	568	485	1020	0	0	0	
0	0	0	0	0	559	484	1021	0	0	0	
1	0	0	0	0	551	484	1021	0	0	0	
2	0	0	0	0	545	485	1021	0	0	0	
3	0	0	0	0	541	487	1021	0	0	0	
4	0	0	0	0	540	490	1020	0	0	0	
5	0	0	0	0	541	494	1021	0	0	0	
6	0	0	0	0	545	498	1021	0	0	0	
7	0	0	0	0	550	502	1021	0	0	0	
8	0	0	0	0	555	505	1021	0	0	0	
9	0	0	0	0	560	508	1021	0	0	0	
10	0	0	0	0	563	508	1021	0	0	0	
11	0	0	0	0	566	507	1021	0	0	0	
12	0	0	0	0	566	504	1021	0	0	0	
13	0	0	0	0	564	499	1020	0	0	0	
14	0	0	0	0	560	495	1021	0	0	0	
15	0	0	0	0	557	491	1021	0	0	0	
0	0	0	0	0	553	489	1021	0	0	0	
1	0	0	0	0	550	488	1021	0	0	0	
2	0	0	0	0	550	490	1021	0	0	0	
3	0	0	0	0	551	494	1021	0	0	0	
4	0	0	0	0	556	500	1021	0	0	0	
5	0	0	0	0	564	508	1021	0	0	0	
6	0	0	0	0	575	518	1021	0	0	0	
7	0	0	0	0	586	527	1021	0	0	0	
8	0	0	0	0	600	537	1021	0	0	0	
9	0	0	0	0	614	545	1021	0	0	0	
10	0	0	0	0	626	551	1021	0	0	0	
11	0	0	0	0	636	556	1021	0	0	0	
12	0	0	0	0	646	559	1021	0	0	0	
13	0	0	0	0	653	560	1021	0	0	0	
14	0	0	0	0	657	560	1021	0	0	0	
15	0	0	0	0	658	556	1021	0	0	0	
0	0	0	0	0	656	551	1021	0	0	0	
1	0	0	0	0	649	542	1021	0	0	0	
2	0	0	0	0	639	532	1020	0	0	0	
3	0	0	0	0	625	520	1021	0	0	0	
4	0	0	0	0	609	508	1021	0	0	0	
5	0	0	0	0	590	497	1021	0	0	0	
6	0	0	0	0	569	486	1021	0	0	0	
7	0	0	0	0	549	476	1020	0	0	0	
8	0	0	0	0	530	470	1021	0	0	0	
9	0	0	0	0	513	465	1021	0	0	0	
10	0	0	0	0	499	464	1021	0	0	0	
11	0	0	0	0	489	466	1021	0	0	0	
12	0	0	0	0	485	471	1021	0	0	0	
13	0	0	0	0	488	478	1021	0	0	0	
14	0	0	0	0	496	487	1021	0	0	0	
15	0	0	0	0	509	498	1021	0	0	0	
0	0	0	0	0	526	508	1021	0	0	0	
1	0	0	0	0	545	518	1020	0	0	0	
2	0	0	0	0	566	526	1021	0	0	0	
3	0	0	0	0	584	531	1021	0	0	0	
4	0	0	0	0	601	534	1021	0	0	0	
5	0	0	0	0	613	534	1021	0	0	0	
6	0	0	0	0	620	531	1020	0	0	0	
7	0	0	0	0	622	525	1021	0	0	0	
8	0	0	0	0	617	516	1021	0	0	0	
9	0	0	0	0	608	505	1021	0	0	0	
10	0	0	0	0	594	494	1020	0	0	0	
11	0	0	0	0	579	484	1020	0	0	0	
12	0	0	0	0	563	475	1021	0	0	0	
13	0	0	0	0	549	468	1021	0	0	0	
14	0	0	0	0	537	464	1021	0	0	0	
15	0	0	0	0	529	464	1021	0	0	0	
0	0	0	0	0	525	466	1021	0	0	0	
1	0	0	0	0	525	472	1021	0	0	0	
2	0	0	0	0	529	479	1021	0	0	0	
3	0	0	0	0	537	487	1021	0	0	0	
4	0	0	0	0	547	495	1021	0	0	0	
5	0	0	0	0	556	502	1020	0	0	0	
6	0	0	0	0	565	509	1021	0	0	0	
7	0	0	0	0	572	514	1021	0	0	0	
8	0	0	0	0	577	517	1021	0	0	0	
9	0	0	0	0	581	518	1021	0	0	0	
10	0	0	0	0	583	518	1021	0	0	0	
11	0	0	0	0	583	516	1021	0	0	0	
12	0	0	0	0	581	512	1021	0	0	0	
13	0	0	0	0	576	507	1021	0	0	0	
14	0	0	0	0	570	502	1020	0	0	0	
15	0	0	0	0	564	497	1021	0	0	0	
0	0	0	0	0	559	494	1021	0	0	0	
1	0	0	0	0	556	493	1021	0	0	0	
2	0	0	0	0	557	494	1021	0	0	0	
3	0	0	0	0	560	496	1021	0	0	0	
4	0	0	0	0	567	501	1021	0	0	0	
5	0	0	0	0	576	508	1021	0	0	0	
6	0	0	0	0	588	514	1021	0	0	0	
7	0	0	0	0	598	521	1021	0	0	0	
8	0	0	0	0	606	526	1021	0	0	0	
9	0	0	0	0	611	528	1021	0	0	0	
10	0	0	0	0	611	528	1021	0	0	0	
11	0	0	0	0	607	525	1021	0	0	0	
12	0	0	0	0	597	519	1021	0	0	0	
13	0	0	0	0	583	511	1021	0	0	0	
14	0	0	0	0	568	502	1021	0	0	0	
15	0	0	0	0	551	493	1021	0	0	0	
0	0	0	0	0	537	486	1021	0	0	0	
1	0	0	0	0	526	480	1021	0	0	0	
2	0	0	0	0	519	477	1021	0	0	0	
3	0	0	0	0	517	478	1021	0	0	0	
4	0	0	0	0	520	481	1021	0	0	0	
5	0	0	0	0	528	487	1021	0	0	0	
6	0	0	0	0	540	495	1021	0	0	0	
7	0	0	0	0	556	504	1021	0	0	0	
8	0	0	0	0	574	516	1021	0	0	0	
9	0	0	0	0	593	528	1021	0	0	0	
10	0	0	0	0	613	540	1021	0	0	0	
11	0	0	0	0	632	551	1021	0	0	0	
12	0	0	0	0	647	560	1021	0	0	0	
13	0	0	0	0	660	567	1021	0	0	0	
14	0	0	0	0	665	569	1021	0	0	0	
15	0	0	0	0	663	566	1021	0	0	0	
0	0	0	0	0	653	557	1021	0	0	0	
1	0	0	0	0	633	543	1021	0	0	0	
2	0	0	0	0	609	525	1021	0	0	0	
3	0	0	0	0	581	505	1021	0	0	0	
4	0	0	0	0	551	484	1021	0	0	0	
5	0	0	0	0	524	465	1021	0	0	0	
6	0	0	0	0	501	449	1021	0	0	0	
7	0	0	0	0	485	438	1020	0	0	0	
8	0	0	0	0	478	432	1021	0	0	0	
9	0	0	0	0	478	432	1021	0	0	0	
10	0	0	0	0	485	437	1021	0	0	0	
11	0	0	0	0	497	446	1020	0	0	0	
12	0	0	0	0	514	458	1021	0	0	0	
13	0	0	0	0	532	472	1021	0	0	0	
14	0	0	0	0	551	486	1021	0	0	0	
15	0	0	0	0	568	499	1021	0	0	0	
0	0	0	0	0	580	510	1021	0	0	0	
1	0	0	0	0	590	518	1021	0	0	0	
2	0	0	0	0	595	522	1021	0	0	0	
3	0	0	0	0	594	523	1021	0	0	0	
4	0	0	0	0	591	521	1021	0	0	0	
5	0	0	0	0	584	518	1021	0	0	0	
6	0	0	0	0	575	513	1021	0	0	0	
7	0	0	0	0	567	508	1021	0	0	0	
8	0	0	0	0	558	504	1021	0	0	0	
9	0	0	0	0	551	501	1021	0	0	0	
10	0	0	0	0	546	500	1021	0	0	0	
11	0	0	0	0	545	501	1021	0	0	0	
12	0	0	0	0	547	504	1021	0	0	0	
13	0	0	0	0	553	509	1021	0	0	0	
14	0	0	0	0	561	515	1021	0	0	0	
15	0	0	0	0	570	522	1021	0	0	0	
0	0	0	0	0	579	529	1020	0	0	0	
1	0	0	0	0	589	535	1021	0	0	0	
2	0	0	0	0	595	539	1021	0	0	0	
3	0	0	0	0	600	541	1021	0	0	0	
4	0	0	0	0	601	541	1021	0	0	0	
5	0	0	0	0	599	538	1020	0	0	0	
6	0	0	0	0	595	532	1021	0	0	0	
7	0	0	0	0	589	525	1021	0	0	0	
8	0	0	0	0	582	515	1021	0	0	0	
9	0	0	0	0	575	506	1021	0	0	0	
10	0	0	0	0	569	496	1020	0	0	0	
11	0	0	0	0	564	487	1021	0	0	0	
12	0	0	0	0	560	478	1021	0	0	0	
13	0	0	0	0	557	471	1021	0	0	0	
14	0	0	0	0	554	465	1021	0	0	0	
15	0	0	0	0	550	462	1021	0	0	0	
0	0	0	0	0	547	460	1021	0	0	0	
1	0	0	0	0	542	460	1021	0	0	0	
2	0	0	0	0	538	460	1021	0	0	0	
3	0	0	0	0	534	461	1021	0	0	0	
4	0	0	0	0	531	463	1020	0	0	0	
5	0	0	0	0	531	467	1021	0	0	0	
6	0	0	0	0	531	472	1021	0	0	0	
7	0	0	0	0	533	476	1021	0	0	0	
8	0	0	0	0	535	480	1021	0	0	0	
9	0	0	0	0	537	483	1021	0	0	0	
10	0	0	0	0	538	486	1021	0	0	0	
11	0	0	0	0	540	488	1021	0	0	0	
12	0	0	0	0	543	491	1021	0	0	0	
13	0	0	0	0	547	493	1021	0	0	0	
14	0	0	0	0	551	495	1021	0	0	0	
15	0	0	0	0	556	497	1021	0	0	0	
0	0	0	0	0	562	498	1021	0	0	0	
1	0	0	0	0	568	500	1021	0	0	0	
2	0	0	0	0	575	501	1021	0	0	0	
3	0	0	0	0	579	503	1020	0	0	0	
4	0	0	0	0	584	505	1021	0	0	0	
5	0	0	0	0	587	507	1021	0	0	0	
6	0	0	0	0	588	509	1021	0	0	0	
7	0	0	0	0	588	510	1021	0	0	0	
8	0	0	0	0	587	512	1021	0	0	0	
9	0	0	0	0	586	513	1021	0	0	0	
10	0	0	0	0	584	513	1021	0	0	0	
11	0	0	0	0	582	512	1020	0	0	0	
12	0	0	0	0	579	510	1021	0	0	0	
13	0	0	0	0	577	507	1020	0	0	0	
14	0	0	0	0	576	504	1021	0	0	0	
15	0	0	0	0	574	500	1021	0	0	0	
0	0	0	0	0	572	496	1021	0	0	0	
1	0	0	0	0	568	491	1021	0	0	0	
2	0	0	0	0	564	487	1021	0	0	0	
3	0	0	0	0	560	482	1021	0	0	0	
4	0	0	0	0	553	479	1021	0	0	0	
5	0	0	0	0	545	476	1021	0	0	0	
6	0	0	0	0	538	474	1021	0	0	0	
7	0	0	0	0	531	474	1021	0	0	0	
8	0	0	0	0	527	477	1021	0	0	0	
9	0	0	0	0	526	481	1021	0	0	0	
10	0	0	0	0	528	487	1021	0	0	0	
11	0	0	0	0	534	496	1021	0	0	0	
12	0	0	0	0	542	504	1020	0	0	0	
13	0	0	0	0	553	513	1021	0	0	0	
14	0	0	0	0	566	522	1021	0	0	0	
15	0	0	0	0	579	529	1021	0	0	0	
0	0	0	0	0	590	534	1021	0	0	0	
1	0	0	0	0	598	537	1021	0	0	0	
2	0	0	0	0	604	539	1021	0	0	0	
3	0	0	0	0	606	538	1021	0	0	0	
4	0	0	0	0	606	536	1021	0	0	0	
5	0	0	0	0	603	533	1021	0	0	0	
6	0	0	0	0	596	529	1021	0	0	0	
7	0	0	0	0	589	525	1021	0	0	0	
8	0	0	0	0	580	520	1021	0	0	0	
9	0	0	0	0	571	516	1021	0	0	0	
10	0	0	0	0	562	511	1021	0	0	0	
11	0	0	0	0	555	507	1021	0	0	0	
12	0	0	0	0	548	504	1021	0	0	0	
13	0	0	0	0	543	500	1021	0	0	0	
14	0	0	0	0	541	498	1021	0	0	0	
15	0	0	0	0	540	495	1021	0	0	0	
0	0	0	0	0	541	494	1021	0	0	0	
1	0	0	0	0	542	491	1021	0	0	0	
2	0	0	0	0	544	489	1021	0	0	0	
3	0	0	0	0	547	487	1021	0	0	0	
4	0	0	0	0	547	483	1021	0	0	0	
5	0	0	0	0	548	481	1021	0	0	0	
6	0	0	0	0	548	479	1021	0	0	0	
7	0	0	0	0	547	477	1021	0	0	0	
8	0	0	0	0	544	475	1021	0	0	0	
9	0	0	0	0	540	473	1021	0	0	0	
10	0	0	0	0	537	473	1021	0	0	0	
11	0	0	0	0	534	473	1021	0	0	0	
12	0	0	0	0	532	475	1021	0	0	0	
13	0	0	0	0	532	478	1021	0	0	0	
14	0	0	0	0	534	481	1021	0	0	0	
15	0	0	0	0	539	487	1021	0	0	0	
0	0	0	0	0	545	493	1021	0	0	0	
1	0	0	0	0	554	499	1021	0	0	0	
2	0	0	0	0	563	505	1021	0	0	0	
3	0	0	0	0	571	510	1021	0	0	0	
4	0	0	0	0	578	515	1021	0	0	0	
5	0	0	0	0	583	518	1021	0	0	0	
6	0	0	0	0	587	519	1021	0	0	0	
7	0	0	0	0	588	519	1021	0	0	0	
8	0	0	0	0	585	516	1021	0	0	0	
9	0	0	0	0	582	513	1021	0	0	0	
10	0	0	0	0	576	508	1021	0	0	0	
11	0	0	0	0	569	502	1021	0	0	0	
12	0	0	0	0	562	496	1021	0	0	0	
13	0	0	0	0	556	492	1020	0	0	0	
14	0	0	0	0	553	489	1021	0	0	0	
15	0	0	0	0	551	488	1021	0	0	0	
0	0	0	0	0	551	489	1021	0	0	0	
1	0	0	0	0	553	492	1021	0	0	0	
2	0	0	0	0	556	495	1021	0	0	0	
3	0	0	0	0	560	499	1021	0	0	0	
4	0	0	0	0	566	505	1021	0	0	0	
5	0	0	0	0	571	510	1021	0	0	0	
6	0	0	0	0	576	515	1021	0	0	0	
7	0	0	0	0	580	520	1020	0	0	0	
8	0	0	0	0	586	524	1021	0	0	0	
9	0	0	0	0	590	528	1021	0	0	0	
10	0	0	0	0	594	531	1021	0	0	0	
11	0	0	0	0	596	533	1021	0	0	0	
12	0	0	0	0	598	534	1021	0	0	0	
13	0	0	0	0	596	532	1021	0	0	0	
14	0	0	0	0	592	529	1021	0	0	0	
15	0	0	0	0	587	526	1021	0	0	0	
0	0	0	0	0	580	520	1021	0	0	0	
1	0	0	0	0	574	515	1021	0	0	0	
2	0	0	0	0	567	511	1021	0	0	0	
3	0	0	0	0	562	508	1021	0	0	0	
4	0	0	0	0	557	505	1021	0	0	0	
5	0	0	0	0	553	502	1021	0	0	0	
6	0	0	0	0	550	501	1021	0	0	0	
7	0	0	0	0	548	501	1021	0	0	0	
8	0	0	0	0	548	502	1021	0	0	0	
9	0	0	0	0	551	504	1021	0	0	0	
10	0	0	0	0	554	506	1021	0	0	0	
11	0	0	0	0	558	510	1020	0	0	0	
12	0	0	0	0	564	514	1021	0	0	0	
13	0	0	0	0	572	518	1021	0	0	0	
14	0	0	0	0	578	522	1021	0	0	0	
15	0	0	0	0	584	526	1021	0	0	0	
0	0	0	0	0	589	527	1021	0	0	0	
1	0	0	0	0	591	527	1020	0	0	0	
2	0	0	0	0	591	525	1021	0	0	0	
3	0	0	0	0	588	519	1021	0	0	0	
4	0	0	0	0	583	512	1021	0	0	0	
5	0	0	0	0	576	504	1021	0	0	0	
6	0	0	0	0	568	495	1021	0	0	0	
7	0	0	0	0	559	485	1021	0	0	0	
8	0	0	0	0	551	476	1021	0	0	0	
9	0	0	0	0	543	470	1021	0	0	0	
10	0	0	0	0	539	465	1021	0	0	0	
11	0	0	0	0	536	463	1020	0	0	0	
12	0	0	0	0	536	463	1021	0	0	0	
13	0	0	0	0	538	466	1021	0	0	0	
14	0	0	0	0	542	469	1021	0	0	0	
15	0	0	0	0	546	473	1021	0	0	0	
0	0	0	0	0	552	477	1021	0	0	0	
1	0	0	0	0	559	482	1021	0	0	0	
2	0	0	0	0	566	486	1021	0	0	0	
3	0	0	0	0	571	491	1021	0	0	0	
4	0	0	0	0	574	495	1021	0	0	0	
5	0	0	0	0	574	497	1021	0	0	0	
6	0	0	0	0	573	500	1021	0	0	0	
7	0	0	0	0	569	502	1021	0	0	0	
8	0	0	0	0	563	501	1021	0	0	0	
9	0	0	0	0	555	499	1021	0	0	0	
10	0	0	0	0	546	494	1021	0	0	0	
11	0	0	0	0	536	488	1021	0	0	0	
12	0	0	0	0	526	481	1021	0	0	0	
13	0	0	0	0	516	473	1021	0	0	0	
14	0	0	0	0	508	467	1021	0	0	0	
15	0	0	0	0	502	462	1021	0	0	0	
0	0	0	0	0	498	459	1021	0	0	0	
1	0	0	0	0	496	459	1021	0	0	0	
2	0	0	0	0	498	460	1021	0	0	0	
3	0	0	0	0	502	464	1021	0	0	0	
4	0	0	0	0	507	469	1020	0	0	0	
5	0	0	0	0	515	475	1021	0	0	0	
6	0	0	0	0	525	482	1021	0	0	0	
7	0	0	0	0	536	489	1021	0	0	0	
8	0	0	0	0	546	496	1020	0	0	0	
9	0	0	0	0	556	501	1020	0	0	0	
10	0	0	0	0	566	505	1021	0	0	0	
11	0	0	0	0	574	508	1021	0	0	0	
12	0	0	0	0	581	509	1021	0	0	0	
13	0	0	0	0	586	509	1021	0	0	0	
14	0	0	0	0	590	508	1021	0	0	0	
15	0	0	0	0	593	508	1021	0	0	0	
0	0	0	0	0	597	509	1021	0	0	0	
1	0	0	0	0	601	511	1021	0	0	0	
2	0	0	0	0	604	514	1021	0	0	0	
3	0	0	0	0	604	515	1021	0	0	0	
4	0	0	0	0	602	515	1021	0	0	0	
5	0	0	0	0	595	513	1021	0	0	0	
6	0	0	0	0	584	509	1021	0	0	0	
7	0	0	0	0	569	503	1021	0	0	0	
8	0	0	0	0	550	494	1020	0	0	0	
9	0	0	0	0	531	485	1021	0	0	0	
10	0	0	0	0	512	477	1021	0	0	0	
11	0	0	0	0	497	471	1021	0	0	0	
12	0	0	0	0	486	467	1021	0	0	0	
13	0	0	0	0	480	466	1020	0	0	0	
14	0	0	0	0	481	469	1021	0	0	0	
15	0	0	0	0	488	475	1021	0	0	0	
0	0	0	0	0	500	483	1021	0	0	0	
1	0	0	0	0	517	492	1021	0	0	0	
2	0	0	0	0	536	502	1021	0	0	0	
3	0	0	0	0	555	513	1021	0	0	0	
4	0	0	0	0	574	521	1021	0	0	0	
5	0	0	0	0	589	528	1021	0	0	0	
6	0	0	0	0	600	532	1021	0	0	0	
7	0	0	0	0	607	534	1021	0	0	0	
8	0	0	0	0	610	534	1021	0	0	0	
9	0	0	0	0	609	532	1021	0	0	0	
10	0	0	0	0	606	529	1021	0	0	0	
11	0	0	0	0	600	526	1021	0	0	0	
12	0	0	0	0	591	521	1020	0	0	0	
13	0	0	0	0	584	518	1021	0	0	0	
14	0	0	0	0	575	513	1021	0	0	0	
15	0	0	0	0	567	510	1021	0	0	0	
0	0	0	0	0	560	507	1021	0	0	0	
1	0	0	0	0	554	504	1021	0	0	0	
2	0	0	0	0	550	503	1021	0	0	0	
3	0	0	0	0	548	503	1021	0	0	0	
4	0	0	0	0	548	502	1021	0	0	0	
5	0	0	0	0	547	502	1021	0	0	0	
6	0	0	0	0	547	501	1021	0	0	0	
7	0	0	0	0	548	500	1021	0	0	0	
8	0	0	0	0	548	499	1021	0	0	0	
9	0	0	0	0	551	499	1021	0	0	0	
10	0	0	0	0	554	501	1021	0	0	0	
11	0	0	0	0	559	504	1020	0	0	0	
12	0	0	0	0	565	508	1021	0	0	0	
13	0	0	0	0	572	512	1021	0	0	0	
14	0	0	0	0	579	518	1021	0	0	0	
15	0	0	0	0	585	523	1021	0	0	0	
0	0	0	0	0	591	527	1021	0	0	0	
1	0	0	0	0	595	531	1021	0	0	0	
2	0	0	0	0	598	533	1021	0	0	0	
3	0	0	0	0	600	535	1021	0	0	0	
4	0	0	0	0	599	534	1021	0	0	0	
5	0	0	0	0	598	531	1021	0	0	0	
6	0	0	0	0	594	527	1021	0	0	0	
7	0	0	0	0	589	520	1021	0	0	0	
8	0	0	0	0	582	512	1021	0	0	0	
9	0	0	0	0	573	503	1021	0	0	0	
10	0	0	0	0	562	492	1020	0	0	0	
11	0	0	0	0	551	480	1021	0	0	0	
12	0	0	0	0	540	470	1021	0	0	0	
13	0	0	0	0	529	461	1021	0	0	0	
14	0	0	0	0	519	453	1021	0	0	0	
15	0	0	0	0	510	448	1021	0	0	0	
0	0	0	0	0	503	444	1021	0	0	0	
1	0	0	0	0	497	441	1021	0	0	0	
2	0	0	0	0	492	440	1021	0	0	0	
3	0	0	0	0	487	438	1021	0	0	0	
4	0	0	0	0	482	436	1020	0	0	0	
5	0	0	0	0	479	434	1021	0	0	0	
6	0	0	0	0	476	431	1021	0	0	0	
7	0	0	0	0	473	426	1021	0	0	0	
8	0	0	0	0	470	420	1020	0	0	0	
9	0	0	0	0	467	412	1020	0	0	0	
10	0	0	0	0	463	403	1021	0	0	0	
11	0	0	0	0	457	391	1021	0	0	0	
12	0	0	0	0	449	377	1021	0	0	0	
13	0	0	0	0	440	361	1021	0	0	0	
14	0	0	0	0	427	344	1020	0	0	0	
15	0	0	0	0	412	326	1021	0	0	0	
0	0	0	0	0	395	307	1021	0	0	0	
1	0	0	0	0	375	287	1021	0	0	0	
2	0	0	0	0	355	270	1021	0	0	0	
3	0	0	0	0	335	254	1021	0	0	0	
4	0	0	0	0	317	241	1021	0	0	0	
5	0	0	0	0	301	233	1021	0	0	0	
6	0	0	0	0	289	228	1021	0	0	0	
7	0	0	0	0	281	228	1021	0	0	0	
8	0	0	0	0	279	234	1021	0	0	0	
9	0	0	0	0	284	246	1021	0	0	0	
10	0	0	0	0	295	262	1021	0	0	0	
11	0	0	0	0	315	283	1021	0	0	0	
12	0	0	0	0	340	308	1021	0	0	0	
13	0	0	0	0	372	337	1020	0	0	0	
14	0	0	0	0	408	368	1021	0	0	0	
15	0	0	0	0	447	399	1021	0	0	0	
0	0	0	0	0	487	429	1021	0	0	0	
1	0	0	0	0	525	457	1021	0	0	0	
2	0	0	0	0	560	482	1020	0	0	0	
3	0	0	0	0	591	503	1021	0	0	0	
4	0	0	0	0	616	520	1021	0	0	0	
5	0	0	0	0	635	533	1021	0	0	0	
6	0	0	0	0	646	542	1021	0	0	0	
7	0	0	0	0	652	547	1021	0	0	0	
8	0	0	0	0	652	551	1021	0	0	0	
9	0	0	0	0	647	551	1021	0	0	0	
10	0	0	0	0	639	550	1021	0	0	0	
11	0	0	0	0	628	547	1021	0	0	0	
12	0	0	0	0	615	543	1021	0	0	0	
13	0	0	0	0	603	539	1021	0	0	0	
14	0	0	0	0	591	533	1021	0	0	0	
15	0	0	0	0	580	527	1021	0	0	0	
0	0	0	0	0	570	520	1021	0	0	0	
1	0	0	0	0	563	514	1021	0	0	0	
2	0	0	0	0	558	508	1021	0	0	0	
3	0	0	0	0	556	504	1021	0	0	0	
4	0	0	0	0	557	502	1021	0	0	0	
5	0	0	0	0	561	502	1021	0	0	0	
6	0	0	0	0	568	504	1021	0	0	0	
7	0	0	0	0	577	508	1021	0	0	0	
8	0	0	0	0	588	513	1021	0	0	0	
9	0	0	0	0	600	519	1021	0	0	0	
10	0	0	0	0	611	526	1021	0	0	0	
11	0	0	0	0	623	534	1021	0	0	0	
12	0	0	0	0	632	540	1021	0	0	0	
13	0	0	0	0	636	544	1021	0	0	0	
14	0	0	0	0	634	546	1021	0	0	0	
15	0	0	0	0	626	544	1021	0	0	0	
0	0	0	0	0	612	540	1021	0	0	0	
1	0	0	0	0	595	532	1021	0	0	0	
2	0	0	0	0	575	523	1021	0	0	0	
3	0	0	0	0	554	512	1021	0	0	0	
4	0	0	0	0	534	502	1021	0	0	0	
5	0	0	0	0	519	493	1021	0	0	0	
6	0	0	0	0	509	486	1021	0	0	0	
7	0	0	0	0	504	481	1021	0	0	0	
8	0	0	0	0	506	480	1021	0	0	0	
9	0	0	0	0	513	481	1021	0	0	0	
10	0	0	0	0	526	487	1021	0	0	0	
11	0	0	0	0	543	496	1021	0	0	0	
12	0	0	0	0	563	507	1021	0	0	0	
13	0	0	0	0	585	520	1021	0	0	0	
14	0	0	0	0	607	535	1021	0	0	0	
15	0	0	0	0	628	550	1021	0	0	0	
0	0	0	0	0	648	564	1021	0	0	0	
1	0	0	0	0	664	575	1021	0	0	0	
2	0	0	0	0	675	585	1021	0	0	0	
3	0	0	0	0	680	592	1021	0	0	0	
4	0	0	0	0	682	596	1021	0	0	0	
5	0	0	0	0	679	598	1021	0	0	0	
6	0	0	0	0	670	595	1021	0	0	0	
7	0	0	0	0	657	590	1021	0	0	0	
8	0	0	0	0	639	580	1021	0	0	0	
9	0	0	0	0	620	569	1021	0	0	0	
10	0	0	0	0	600	556	1021	0	0	0	
11	0	0	0	0	579	541	1021	0	0	0	
12	0	0	0	0	560	526	1021	0	0	0	
13	0	0	0	0	544	512	1021	0	0	0	
14	0	0	0	0	531	499	1021	0	0	0	
15	0	0	0	0	523	487	1021	0	0	0	
0	0	0	0	0	517	479	1021	0	0	0	
1	0	0	0	0	515	473	1021	0	0	0	
2	0	0	0	0	517	470	1021	0	0	0	
3	0	0	0	0	521	471	1021	0	0	0	
4	0	0	0	0	528	475	1021	0	0	0	
5	0	0	0	0	537	480	1021	0	0	0	
6	0	0	0	0	547	487	1021	0	0	0	
7	0	0	0	0	556	495	1021	0	0	0	
8	0	0	0	0	565	502	1021	0	0	0	
9	0	0	0	0	572	508	1021	0	0	0	
10	0	0	0	0	577	512	1021	0	0	0	
11	0	0	0	0	581	515	1021	0	0	0	
12	0	0	0	0	582	517	1021	0	0	0	
13	0	0	0	0	581	516	1021	0	0	0	
14	0	0	0	0	579	516	1021	0	0	0	
15	0	0	0	0	575	513	1021	0	0	0	
0	0	0	0	0	572	511	1021	0	0	0	
1	0	0	0	0	568	508	1021	0	0	0	
2	0	0	0	0	566	506	1021	0	0	0	
3	0	0	0	0	563	504	1021	0	0	0	
4	0	0	0	0	562	502	1021	0	0	0	
5	0	0	0	0	561	500	1021	0	0	0	
6	0	0	0	0	560	498	1021	0	0	0	
7	0	0	0	0	559	497	1021	0	0	0	
8	0	0	0	0	560	497	1021	0	0	0	
9	0	0	0	0	560	497	1021	0	0	0	
10	0	0	0	0	563	499	1021	0	0	0	
11	0	0	0	0	566	503	1021	0	0	0	
12	0	0	0	0	571	508	1021	0	0	0	
13	0	0	0	0	577	514	1021	0	0	0	
14	0	0	0	0	585	521	1021	0	0	0	
15	0	0	0	0	593	529	1021	0	0	0	
0	0	0	0	0	603	537	1021	0	0	0	
1	0	0	0	0	611	544	1021	0	0	0	
2	0	0	0	0	621	551	1021	0	0	0	
3	0	0	0	0	628	556	1021	0	0	0	
4	0	0	0	0	634	558	1021	0	0	0	
5	0	0	0	0	636	558	1021	0	0	0	
6	0	0	0	0	635	554	1021	0	0	0	
7	0	0	0	0	629	546	1021	0	0	0	
8	0	0	0	0	619	536	1021	0	0	0	
9	0	0	0	0	606	525	1021	0	0	0	
10	0	0	0	0	591	513	1021	0	0	0	
11	0	0	0	0	576	504	1021	0	0	0	
12	0	0	0	0	563	496	1021	0	0	0	
13	0	0	0	0	551	492	1021	0	0	0	
14	0	0	0	0	544	492	1021	0	0	0	
15	0	0	0	0	541	495	1021	0	0	0	
0	0	0	0	0	542	501	1021	0	0	0	
1	0	0	0	0	547	509	1021	0	0	0	
2	0	0	0	0	554	518	1021	0	0	0	
3	0	0	0	0	562	525	1021	0	0	0	
4	0	0	0	0	570	532	1021	0	0	0	
5	0	0	0	0	577	536	1021	0	0	0	
6	0	0	0	0	583	538	1021	0	0	0	
7	0	0	0	0	586	537	1021	0	0	0	
8	0	0	0	0	587	533	1021	0	0	0	
9	0	0	0	0	585	528	1021	0	0	0	
10	0	0	0	0	580	520	1021	0	0	0	
11	0	0	0	0	576	512	1021	0	0	0	
12	0	0	0	0	570	504	1021	0	0	0	
13	0	0	0	0	565	496	1021	0	0	0	
14	0	0	0	0	561	490	1021	0	0	0	
15	0	0	0	0	559	487	1021	0	0	0	
0	0	0	0	0	561	487	1021	0	0	0	
1	0	0	0	0	567	490	1021	0	0	0	
2	0	0	0	0	575	496	1021	0	0	0	
3	0	0	0	0	588	503	1021	0	0	0	
4	0	0	0	0	598	510	1020	0	0	0	
5	0	0	0	0	607	516	1021	0	0	0	
6	0	0	0	0	611	519	1021	0	0	0	
7	0	0	0	0	611	520	1021	0	0	0	
8	0	0	0	0	604	518	1021	0	0	0	
9	0	0	0	0	593	514	1021	0	0	0	
10	0	0	0	0	579	508	1021	0	0	0	
11	0	0	0	0	562	501	1021	0	0	0	
12	0	0	0	0	545	494	1021	0	0	0	
13	0	0	0	0	527	487	1020	0	0	0	
14	0	0	0	0	513	481	1021	0	0	0	
15	0	0	0	0	501	477	1021	0	0	0	
0	0	0	0	0	494	474	1021	0	0	0	
1	0	0	0	0	492	474	1021	0	0	0	
2	0	0	0	0	495	475	1021	0	0	0	
3	0	0	0	0	504	479	1020	0	0	0	
4	0	0	0	0	518	485	1021	0	0	0	
5	0	0	0	0	535	493	1021	0	0	0	
6	0	0	0	0	553	502	1021	0	0	0	
7	0	0	0	0	572	511	1021	0	0	0	
8	0	0	0	0	590	520	1021	0	0	0	
9	0	0	0	0	606	528	1021	0	0	0	
10	0	0	0	0	617	535	1021	0	0	0	
11	0	0	0	0	624	540	1021	0	0	0	
12	0	0	0	0	626	541	1021	0	0	0	
13	0	0	0	0	624	541	1021	0	0	0	
14	0	0	0	0	619	540	1021	0	0	0	
15	0	0	0	0	611	536	1021	0	0	0	
0	0	0	0	0	603	532	1021	0	0	0	
1	0	0	0	0	595	528	1021	0	0	0	
2	0	0	0	0	587	524	1021	0	0	0	
3	0	0	0	0	582	520	1021	0	0	0	
4	0	0	0	0	578	518	1021	0	0	0	
5	0	0	0	0	575	515	1021	0	0	0	
6	0	0	0	0	574	513	1021	0	0	0	
7	0	0	0	0	573	512	1021	0	0	0	
8	0	0	0	0	573	512	1021	0	0	0	
9	0	0	0	0	573	513	1021	0	0	0	
10	0	0	0	0	573	514	1021	0	0	0	
11	0	0	0	0	573	515	1021	0	0	0	
12	0	0	0	0	574	515	1020	0	0	0	
13	0	0	0	0	574	515	1021	0	0	0	
14	0	0	0	0	573	515	1021	0	0	0	
15	0	0	0	0	572	514	1021	0	0	0	
0	0	0	0	0	571	513	1020	0	0	0	
1	0	0	0	0	569	511	1020	0	0	0	
2	0	0	0	0	568	510	1021	0	0	0	
3	0	0	0	0	566	508	1021	0	0	0	
4	0	0	0	0	563	505	1021	0	0	0	
5	0	0	0	0	559	502	1021	0	0	0	
6	0	0	0	0	555	498	1021	0	0	0	
7	0	0	0	0	551	495	1021	0	0	0	
8	0	0	0	0	547	492	1021	0	0	0	
9	0	0	0	0	543	488	1021	0	0	0	
10	0	0	0	0	539	484	1021	0	0	0	
11	0	0	0	0	537	483	1021	0	0	0	
12	0	0	0	0	538	483	1021	0	0	0	
13	0	0	0	0	540	485	1021	0	0	0	
14	0	0	0	0	545	487	1021	0	0	0	
15	0	0	0	0	552	491	1021	0	0	0	
0	0	0	0	0	560	495	1021	0	0	0	
1	0	0	0	0	567	498	1021	0	0	0	
2	0	0	0	0	574	501	1021	0	0	0	
3	0	0	0	0	577	503	1021	0	0	0	
4	0	0	0	0	579	503	1021	0	0	0	
5	0	0	0	0	575	500	1021	0	0	0	
6	0	0	0	0	572	497	1021	0	0	0	
7	0	0	0	0	564	493	1021	0	0	0	
8	0	0	0	0	556	488	1021	0	0	0	
9	0	0	0	0	548	484	1021	0	0	0	
10	0	0	0	0	540	481	1021	0	0	0	
11	0	0	0	0	536	481	1021	0	0	0	
12	0	0	0	0	535	483	1021	0	0	0	
13	0	0	0	0	536	487	1021	0	0	0	
14	0	0	0	0	539	494	1020	0	0	0	
15	0	0	0	0	545	500	1021	0	0	0	
0	0	0	0	0	554	508	1021	0	0	0	
1	0	0	0	0	563	515	1021	0	0	0	
2	0	0	0	0	572	521	1021	0	0	0	
3	0	0	0	0	580	525	1021	0	0	0	
4	0	0	0	0	586	527	1021	0	0	0	
5	0	0	0	0	591	527	1021	0	0	0	
6	0	0	0	0	595	526	1021	0	0	0	
7	0	0	0	0	596	522	1021	0	0	0	
8	0	0	0	0	594	516	1021	0	0	0	
9	0	0	0	0	590	508	1021	0	0	0	
10	0	0	0	0	584	499	1021	0	0	0	
11	0	0	0	0	575	489	1021	0	0	0	
12	0	0	0	0	564	480	1021	0	0	0	
13	0	0	0	0	553	471	1020	0	0	0	
14	0	0	0	0	542	463	1021	0	0	0	
15	0	0	0	0	531	457	1021	0	0	0	
0	0	0	0	0	522	453	1021	0	0	0	
1	0	0	0	0	515	451	1021	0	0	0	
2	0	0	0	0	508	450	1021	0	0	0	
3	0	0	0	0	502	451	1021	0	0	0	
4	0	0	0	0	498	454	1021	0	0	0	
5	0	0	0	0	496	458	1021	0	0	0	
6	0	0	0	0	495	463	1021	0	0	0	
7	0	0	0	0	497	469	1021	0	0	0	
8	0	0	0	0	502	476	1021	0	0	0	
9	0	0	0	0	510	483	1021	0	0	0	
10	0	0	0	0	521	491	1021	0	0	0	
11	0	0	0	0	535	497	1020	0	0	0	
12	0	0	0	0	550	504	1021	0	0	0	
13	0	0	0	0	564	509	1021	0	0	0	
14	0	0	0	0	578	513	1021	0	0	0	
15	0	0	0	0	589	515	1021	0	0	0	
0	0	0	0	0	597	516	1021	0	0	0	
1	0	0	0	0	601	514	1021	0	0	0	
2	0	0	0	0	602	511	1021	0	0	0	
3	0	0	0	0	600	507	1021	0	0	0	
4	0	0	0	0	595	502	1021	0	0	0	
5	0	0	0	0	587	496	1021	0	0	0	
6	0	0	0	0	577	490	1021	0	0	0	
7	0	0	0	0	567	486	1021	0	0	0	
8	0	0	0	0	558	483	1021	0	0	0	
9	0	0	0	0	551	483	1021	0	0	0	
10	0	0	0	0	546	486	1021	0	0	0	
11	0	0	0	0	544	489	1021	0	0	0	
12	0	0	0	0	544	496	1021	0	0	0	
13	0	0	0	0	548	503	1021	0	0	0	
14	0	0	0	0	553	510	1021	0	0	0	
15	0	0	0	0	558	517	1021	0	0	0	
0	0	0	0	0	563	523	1021	0	0	0	
1	0	0	0	0	566	527	1021	0	0	0	
2	0	0	0	0	569	529	1021	0	0	0	
3	0	0	0	0	571	529	1021	0	0	0	
4	0	0	0	0	572	527	1021	0	0	0	
5	0	0	0	0	572	525	1021	0	0	0	
6	0	0	0	0	570	521	1021	0	0	0	
7	0	0	0	0	568	518	1021	0	0	0	
8	0	0	0	0	565	513	1021	0	0	0	
9	0	0	0	0	561	509	1021	0	0	0	
10	0	0	0	0	559	506	1021	0	0	0	
11	0	0	0	0	558	504	1021	0	0	0	
12	0	0	0	0	559	503	1021	0	0	0	
13	0	0	0	0	562	504	1021	0	0	0	
14	0	0	0	0	568	507	1021	0	0	0	
15	0	0	0	0	575	510	1021	0	0	0	
0	0	0	0	0	583	515	1021	0	0	0	
1	0	0	0	0	593	519	1021	0	0	0	
2	0	0	0	0	601	523	1021	0	0	0	
3	0	0	0	0	607	526	1021	0	0	0	
4	0	0	0	0	610	527	1021	0	0	0	
5	0	0	0	0	608	525	1021	0	0	0	
6	0	0	0	0	602	519	1021	0	0	0	
7	0	0	0	0	592	511	1021	0	0	0	
8	0	0	0	0	578	500	1021	0	0	0	
9	0	0	0	0	563	489	1021	0	0	0	
10	0	0	0	0	547	477	1021	0	0	0	
11	0	0	0	0	533	467	1021	0	0	0	
12	0	0	0	0	521	458	1021	0	0	0	
13	0	0	0	0	513	451	1021	0	0	0	
14	0	0	0	0	509	448	1021	0	0	0	
15	0	0	0	0	508	447	1021	0	0	0	
0	0	0	0	0	512	451	1021	0	0	0	
1	0	0	0	0	519	457	1021	0	0	0	
2	0	0	0	0	529	466	1021	0	0	0	
3	0	0	0	0	543	478	1021	0	0	0	
4	0	0	0	0	556	490	1021	0	0	0	
5	0	0	0	0	569	502	1021	0	0	0	
6	0	0	0	0	580	513	1021	0	0	0	
7	0	0	0	0	588	521	1021	0	0	0	
8	0	0	0	0	590	526	1021	0	0	0	
9	0	0	0	0	588	527	1021	0	0	0	
10	0	0	0	0	583	525	1021	0	0	0	
11	0	0	0	0	573	519	1021	0	0	0	
12	0	0	0	0	560	511	1021	0	0	0	
13	0	0	0	0	546	502	1021	0	0	0	
14	0	0	0	0	533	492	1021	0	0	0	
15	0	0	0	0	522	482	1021	0	0	0	
0	0	0	0	0	512	473	1021	0	0	0	
1	0	0	0	0	506	466	1021	0	0	0	
2	0	0	0	0	504	461	1021	0	0	0	
3	0	0	0	0	505	460	1021	0	0	0	
4	0	0	0	0	512	462	1021	0	0	0	
5	0	0	0	0	523	465	1021	0	0	0	
6	0	0	0	0	535	471	1021	0	0	0	
7	0	0	0	0	546	476	1021	0	0	0	
8	0	0	0	0	556	481	1021	0	0	0	
9	0	0	0	0	563	483	1021	0	0	0	
10	0	0	0	0	565	485	1021	0	0	0	
11	0	0	0	0	564	485	1021	0	0	0	
12	0	0	0	0	560	483	1021	0	0	0	
13	0	0	0	0	556	481	1021	0	0	0	
14	0	0	0	0	554	480	1021	0	0	0	
15	0	0	0	0	552	478	1021	0	0	0	
0	0	0	0	0	552	478	1021	0	0	0	
1	0	0	0	0	555	478	1021	0	0	0	
2	0	0	0	0	559	481	1021	0	0	0	
3	0	0	0	0	563	484	1021	0	0	0	
4	0	0	0	0	568	487	1021	0	0	0	
5	0	0	0	0	573	491	1021	0	0	0	
6	0	0	0	0	576	495	1021	0	0	0	
7	0	0	0	0	579	499	1021	0	0	0	
8	0	0	0	0	579	502	1021	0	0	0	
9	0	0	0	0	577	504	1021	0	0	0	
10	0	0	0	0	574	507	1021	0	0	0	
11	0	0	0	0	568	508	1021	0	0	0	
12	0	0	0	0	563	510	1021	0	0	0	
13	0	0	0	0	558	512	1021	0	0	0	
14	0	0	0	0	553	514	1021	0	0	0	
15	0	0	0	0	551	516	1021	0	0	0	
0	0	0	0	0	551	519	1021	0	0	0	
1	0	0	0	0	553	521	1021	0	0	0	
2	0	0	0	0	556	522	1021	0	0	0	
3	0	0	0	0	558	520	1021	0	0	0	
4	0	0	0	0	558	516	1021	0	0	0	
5	0	0	0	0	556	509	1021	0	0	0	
6	0	0	0	0	551	500	1021	0	0	0	
7	0	0	0	0	544	491	1021	0	0	0	
8	0	0	0	0	536	480	1021	0	0	0	
9	0	0	0	0	527	471	1021	0	0	0	
10	0	0	0	0	518	462	1021	0	0	0	
11	0	0	0	0	511	455	1021	0	0	0	
12	0	0	0	0	507	452	1021	0	0	0	
13	0	0	0	0	505	452	1021	0	0	0	
14	0	0	0	0	507	455	1021	0	0	0	
15	0	0	0	0	511	461	1021	0	0	0	
0	0	0	0	0	519	469	1021	0	0	0	
1	0	0	0	0	528	478	1021	0	0	0	
2	0	0	0	0	538	487	1021	0	0	0	
3	0	0	0	0	549	496	1021	0	0	0	
4	0	0	0	0	559	504	1021	0	0	0	
5	0	0	0	0	567	509	1021	0	0	0	
6	0	0	0	0	574	513	1021	0	0	0	
7	0	0	0	0	578	515	1021	0	0	0	
8	0	0	0	0	580	514	1021	0	0	0	
9	0	0	0	0	580	512	1021	0	0	0	
10	0	0	0	0	578	509	1021	0	0	0	
11	0	0	0	0	575	504	1021	0	0	0	
12	0	0	0	0	572	500	1021	0	0	0	
13	0	0	0	0	571	497	1021	0	0	0	
14	0	0	0	0	569	494	1021	0	0	0	
15	0	0	0	0	568	493	1021	0	0	0	
0	0	0	0	0	568	493	1021	0	0	0	
1	0	0	0	0	566	493	1021	0	0	0	
2	0	0	0	0	564	495	1021	0	0	0	
3	0	0	0	0	561	496	1021	0	0	0	
4	0	0	0	0	558	498	1021	0	0	0	
5	0	0	0	0	556	500	1021	0	0	0	
6	0	0	0	0	555	502	1021	0	0	0	
7	0	0	0	0	553	502	1021	0	0	0	
8	0	0	0	0	549	500	1020	0	0	0	
9	0	0	0	0	543	495	1021	0	0	0	
10	0	0	0	0	536	489	1021	0	0	0	
11	0	0	0	0	527	480	1021	0	0	0	
12	0	0	0	0	517	469	1021	0	0	0	
13	0	0	0	0	506	457	1021	0	0	0	
14	0	0	0	0	496	448	1021	0	0	0	
15	0	0	0	0	489	440	1021	0	0	0	
0	0	0	0	0	485	434	1021	0	0	0	
1	0	0	0	0	484	432	1021	0	0	0	
2	0	0	0	0	488	433	1021	0	0	0	
3	0	0	0	0	496	439	1021	0	0	0	
4	0	0	0	0	508	447	1021	0	0	0	
5	0	0	0	0	523	457	1021	0	0	0	
6	0	0	0	0	538	468	1021	0	0	0	
7	0	0	0	0	553	478	1021	0	0	0	
8	0	0	0	0	567	489	1021	0	0	0	
9	0	0	0	0	579	496	1021	0	0	0	
10	0	0	0	0	590	502	1021	0	0	0	
11	0	0	0	0	600	504	1021	0	0	0	
12	0	0	0	0	606	504	1021	0	0	0	
13	0	0	0	0	608	500	1021	0	0	0	
14	0	0	0	0	606	494	1021	0	0	0	
15	0	0	0	0	598	486	1021	0	0	0	
0	0	0	0	0	585	477	1021	0	0	0	
1	0	0	0	0	569	468	1021	0	0	0	
2	0	0	0	0	551	460	1021	0	0	0	
3	0	0	0	0	535	454	1021	0	0	0	
4	0	0	0	0	519	450	1021	0	0	0	
5	0	0	0	0	507	449	1021	0	0	0	
6	0	0	0	0	499	450	1021	0	0	0	
7	0	0	0	0	495	454	1021	0	0	0	
8	0	0	0	0	495	459	1021	0	0	0	
9	0	0	0	0	500	466	1021	0	0	0	
10	0	0	0	0	509	475	1021	0	0	0	
11	0	0	0	0	522	483	1021	0	0	0	
12	0	0	0	0	536	493	1021	0	0	0	
13	0	0	0	0	551	501	1021	0	0	0	
14	0	0	0	0	564	509	1021	0	0	0	
15	0	0	0	0	576	516	1021	0	0	0	
0	0	0	0	0	585	522	1021	0	0	0	
1	0	0	0	0	591	527	1021	0	0	0	
2	0	0	0	0	595	531	1021	0	0	0	
3	0	0	0	0	595	533	1021	0	0	0	
4	0	0	0	0	591	534	1021	0	0	0	
5	0	0	0	0	587	533	1021	0	0	0	
6	0	0	0	0	582	532	1021	0	0	0	
7	0	0	0	0	576	531	1021	0	0	0	
8	0	0	0	0	572	527	1021	0	0	0	
9	0	0	0	0	567	523	1021	0	0	0	
10	0	0	0	0	563	518	1021	0	0	0	
11	0	0	0	0	559	512	1021	0	0	0	
12	0	0	0	0	555	506	1021	0	0	0	
13	0	0	0	0	551	500	1021	0	0	0	
14	0	0	0	0	547	494	1021	0	0	0	
15	0	0	0	0	543	489	1021	0	0	0	
0	0	0	0	0	540	486	1021	0	0	0	
1	0	0	0	0	538	482	1021	0	0	0	
2	0	0	0	0	536	481	1021	0	0	0	
3	0	0	0	0	534	480	1021	0	0	0	
4	0	0	0	0	531	480	1021	0	0	0	
5	0	0	0	0	530	481	1021	0	0	0	
6	0	0	0	0	530	483	1021	0	0	0	
7	0	0	0	0	531	485	1021	0	0	0	
8	0	0	0	0	533	486	1021	0	0	0	
9	0	0	0	0	535	486	1021	0	0	0	
10	0	0	0	0	538	486	1021	0	0	0	
11	0	0	0	0	542	485	1021	0	0	0	
12	0	0	0	0	544	484	1021	0	0	0	
13	0	0	0	0	547	484	1021	0	0	0	
14	0	0	0	0	550	486	1021	0	0	0	
15	0	0	0	0	552	490	1021	0	0	0	
0	0	0	0	0	555	495	1021	0	0	0	
1	0	0	0	0	558	502	1021	0	0	0	
2	0	0	0	0	561	509	1021	0	0	0	
3	0	0	0	0	565	518	1021	0	0	0	
4	0	0	0	0	570	527	1021	0	0	0	
5	0	0	0	0	575	534	1021	0	0	0	
6	0	0	0	0	580	540	1021	0	0	0	
7	0	0	0	0	582	542	1021	0	0	0	
8	0	0	0	0	582	540	1021	0	0	0	
9	0	0	0	0	579	535	1021	0	0	0	
10	0	0	0	0	572	524	1021	0	0	0	
11	0	0	0	0	561	509	1021	0	0	0	
12	0	0	0	0	547	491	1021	0	0	0	
13	0	0	0	0	531	472	1021	0	0	0	
14	0	0	0	0	514	452	1021	0	0	0	
15	0	0	0	0	498	435	1021	0	0	0	
0	0	0	0	0	484	420	1021	0	0	0	
1	0	0	0	0	472	408	1021	0	0	0	
2	0	0	0	0	463	399	1021	0	0	0	
3	0	0	0	0	457	396	1021	0	0	0	
4	0	0	0	0	455	398	1021	0	0	0	
5	0	0	0	0	459	403	1021	0	0	0	
6	0	0	0	0	465	412	1021	0	0	0	
7	0	0	0	0	474	423	1020	0	0	0	
8	0	0	0	0	487	437	1021	0	0	0	
9	0	0	0	0	502	452	1021	0	0	0	
10	0	0	0	0	518	467	1021	0	0	0	
11	0	0	0	0	532	481	1021	0	0	0	
12	0	0	0	0	544	494	1020	0	0	0	
13	0	0	0	0	555	503	1021	0	0	0	
14	0	0	0	0	561	509	1021	0	0	0	
15	0	0	0	0	563	512	1021	0	0	0	
0	0	0	0	0	563	511	1021	0	0	0	
1	0	0	0	0	560	510	1020	0	0	0	
2	0	0	0	0	557	507	1021	0	0	0	
3	0	0	0	0	555	504	1021	0	0	0	
4	0	0	0	0	554	503	1021	0	0	0	
5	0	0	0	0	553	501	1021	0	0	0	
6	0	0	0	0	553	500	1020	0	0	0	
7	0	0	0	0	554	499	1021	0	0	0	
8	0	0	0	0	555	499	1021	0	0	0	
9	0	0	0	0	555	499	1021	0	0	0	
10	0	0	0	0	554	499	1021	0	0	0	
11	0	0	0	0	553	499	1021	0	0	0	
12	0	0	0	0	551	497	1021	0	0	0	
13	0	0	0	0	550	496	1021	0	0	0	
14	0	0	0	0	548	495	1021	0	0	0	
15	0	0	0	0	545	491	1021	0	0	0	
0	0	0	0	0	542	486	1021	0	0	0	
1	0	0	0	0	539	480	1021	0	0	0	
2	0	0	0	0	534	474	1021	0	0	0	
3	0	0	0	0	528	467	1021	0	0	0	
4	0	0	0	0	522	460	1021	0	0	0	
5	0	0	0	0	516	453	1021	0	0	0	
6	0	0	0	0	509	448	1021	0	0	0	
7	0	0	0	0	504	444	1021	0	0	0	
8	0	0	0	0	500	441	1021	0	0	0	
9	0	0	0	0	499	441	1021	0	0	0	
10	0	0	0	0	500	444	1021	0	0	0	
11	0	0	0	0	504	449	1021	0	0	0	
12	0	0	0	0	511	456	1021	0	0	0	
13	0	0	0	0	520	464	1021	0	0	0	
14	0	0	0	0	531	475	1021	0	0	0	
15	0	0	0	0	545	486	1021	0	0	0	
0	0	0	0	0	560	497	1021	0	0	0	
1	0	0	0	0	575	508	1021	0	0	0	
2	0	0	0	0	588	518	1021	0	0	0	
3	0	0	0	0	599	526	1021	0	0	0	
4	0	0	0	0	606	530	1021	0	0	0	
5	0	0	0	0	608	530	1021	0	0	0	
6	0	0	0	0	607	529	1021	0	0	0	
7	0	0	0	0	601	524	1021	0	0	0	
8	0	0	0	0	592	516	1021	0	0	0	
9	0	0	0	0	581	507	1021	0	0	0	
10	0	0	0	0	568	497	1021	0	0	0	
11	0	0	0	0	556	488	1021	0	0	0	
12	0	0	0	0	544	480	1021	0	0	0	
13	0	0	0	0	535	473	1021	0	0	0	
14	0	0	0	0	527	470	1020	0	0	0	
15	0	0	0	0	525	468	1021	0	0	0	
0	0	0	0	0	525	470	1021	0	0	0	
1	0	0	0	0	527	473	1021	0	0	0	
2	0	0	0	0	531	477	1021	0	0	0	
3	0	0	0	0	536	481	1021	0	0	0	
4	0	0	0	0	539	485	1021	0	0	0	
5	0	0	0	0	540	487	1021	0	0	0	
6	0	0	0	0	539	488	1021	0	0	0	
7	0	0	0	0	536	486	1021	0	0	0	
8	0	0	0	0	530	482	1021	0	0	0	
9	0	0	0	0	523	476	1021	0	0	0	
10	0	0	0	0	514	467	1021	0	0	0	
11	0	0	0	0	504	458	1021	0	0	0	
12	0	0	0	0	494	447	1021	0	0	0	
13	0	0	0	0	483	436	1021	0	0	0	
14	0	0	0	0	473	426	1021	0	0	0	
15	0	0	0	0	465	418	1021	0	0	0	
0	0	0	0	0	459	412	1021	0	0	0	
1	0	0	0	0	455	409	1021	0	0	0	
2	0	0	0	0	457	411	1021	0	0	0	
3	0	0	0	0	462	416	1021	0	0	0	
4	0	0	0	0	473	427	1021	0	0	0	
5	0	0	0	0	489	441	1021	0	0	0	
6	0	0	0	0	510	459	1021	0	0	0	
7	0	0	0	0	532	478	1021	0	0	0	
8	0	0	0	0	557	498	1021	0	0	0	
9	0	0	0	0	582	518	1021	0	0	0	
10	0	0	0	0	604	535	1021	0	0	0	
11	0	0	0	0	622	549	1021	0	0	0	
12	0	0	0	0	637	559	1021	0	0	0	
13	0	0	0	0	647	566	1021	0	0	0	
14	0	0	0	0	652	567	1021	0	0	0	
15	0	0	0	0	650	563	1021	0	0	0	
0	0	0	0	0	643	556	1021	0	0	0	
1	0	0	0	0	631	545	1021	0	0	0	
2	0	0	0	0	614	532	1021	0	0	0	
3	0	0	0	0	594	517	1021	0	0	0	
4	0	0	0	0	572	501	1021	0	0	0	
5	0	0	0	0	550	485	1021	0	0	0	
6	0	0	0	0	529	470	1021	0	0	0	
7	0	0	0	0	512	458	1021	0	0	0	
8	0	0	0	0	500	449	1021	0	0	0	
9	0	0	0	0	493	442	1021	0	0	0	
10	0	0	0	0	490	437	1021	0	0	0	
11	0	0	0	0	491	434	1021	0	0	0	
12	0	0	0	0	493	432	1021	0	0	0	
13	0	0	0	0	497	432	1021	0	0	0	
14	0	0	0	0	500	432	1021	0	0	0	
15	0	0	0	0	502	432	1021	0	0	0	
0	0	0	0	0	499	429	1021	0	0	0	
1	0	0	0	0	494	426	1021	0	0	0	
2	0	0	0	0	485	421	1021	0	0	0	
3	0	0	0	0	475	415	1021	0	0	0	
4	0	0	0	0	462	408	1021	0	0	0	
5	0	0	0	0	448	399	1020	0	0	0	
6	0	0	0	0	434	390	1021	0	0	0	
7	0	0	0	0	419	380	1021	0	0	0	
8	0	0	0	0	405	369	1021	0	0	0	
9	0	0	0	0	391	358	1021	0	0	0	
10	0	0	0	0	377	345	1021	0	0	0	
11	0	0	0	0	364	332	1021	0	0	0	
12	0	0	0	0	352	319	1021	0	0	0	
13	0	0	0	0	340	306	1021	0	0	0	
14	0	0	0	0	328	294	1021	0	0	0	
15	0	0	0	0	319	283	1021	0	0	0	
0	0	0	0	0	312	275	1021	0	0	0	
1	0	0	0	0	309	268	1021	0	0	0	
2	0	0	0	0	308	265	1021	0	0	0	
3	0	0	0	0	313	265	1021	0	0	0	
4	0	0	0	0	321	268	1021	0	0	0	
5	0	0	0	0	331	272	1021	0	0	0	
6	0	0	0	0	345	280	1021	0	0	0	
7	0	0	0	0	360	288	1021	0	0	0	
8	0	0	0	0	377	297	1021	0	0	0	
9	0	0	0	0	393	308	1020	0	0	0	
10	0	0	0	0	411	319	1021	0	0	0	
11	0	0	0	0	428	332	1021	0	0	0	
12	0	0	0	0	446	345	1021	0	0	0	
13	0	0	0	0	463	359	1021	0	0	0	
14	0	0	0	0	481	375	1021	0	0	0	
15	0	0	0	0	498	392	1021	0	0	0	
0	0	0	0	0	516	411	1021	0	0	0	
1	0	0	0	0	534	430	1021	0	0	0	
2	0	0	0	0	551	450	1021	0	0	0	
3	0	0	0	0	569	470	1021	0	0	0	
4	0	0	0	0	583	487	1021	0	0	0	
5	0	0	0	0	596	503	1021	0	0	0	
6	0	0	0	0	603	514	1021	0	0	0	
7	0	0	0	0	603	520	1021	0	0	0	
8	0	0	0	0	596	520	1021	0	0	0	
9	0	0	0	0	584	516	1021	0	0	0	
10	0	0	0	0	567	507	1021	0	0	0	
11	0	0	0	0	547	495	1021	0	0	0	
12	0	0	0	0	525	481	1021	0	0	0	
13	0	0	0	0	507	468	1021	0	0	0	
14	0	0	0	0	493	456	1021	0	0	0	
15	0	0	0	0	484	449	1021	0	0	0	
0	0	0	0	0	482	446	1021	0	0	0	
1	0	0	0	0	486	448	1021	0	0	0	
2	0	0	0	0	496	453	1021	0	0	0	
3	0	0	0	0	510	462	1021	0	0	0	
4	0	0	0	0	527	474	1021	0	0	0	
5	0	0	0	0	547	487	1021	0	0	0	
6	0	0	0	0	566	499	1021	0	0	0	
7	0	0	0	0	584	511	1021	0	0	0	
8	0	0	0	0	599	520	1021	0	0	0	
9	0	0	0	0	610	527	1021	0	0	0	
10	0	0	0	0	617	532	1021	0	0	0	
11	0	0	0	0	620	535	1021	0	0	0	
12	0	0	0	0	619	535	1021	0	0	0	
13	0	0	0	0	613	533	1021	0	0	0	
14	0	0	0	0	604	528	1021	0	0	0	
15	0	0	0	0	593	522	1021	0	0	0	
0	0	0	0	0	580	515	1021	0	0	0	
1	0	0	0	0	566	507	1021	0	0	0	
2	0	0	0	0	552	499	1021	0	0	0	
3	0	0	0	0	539	491	1021	0	0	0	
4	0	0	0	0	527	483	1021	0	0	0	
5	0	0	0	0	519	477	1021	0	0	0	
6	0	0	0	0	513	472	1021	0	0	0	
7	0	0	0	0	510	469	1021	0	0	0	
8	0	0	0	0	511	468	1021	0	0	0	
9	0	0	0	0	513	468	1021	0	0	0	
10	0	0	0	0	518	470	1021	0	0	0	
11	0	0	0	0	524	472	1021	0	0	0	
12	0	0	0	0	531	476	1021	0	0	0	
13	0	0	0	0	537	479	1021	0	0	0	
14	0	0	0	0	543	482	1021	0	0	0	
15	0	0	0	0	548	485	1021	0	0	0	
0	0	0	0	0	552	488	1021	0	0	0	
1	0	0	0	0	555	490	1021	0	0	0	
2	0	0	0	0	558	492	1021	0	0	0	
3	0	0	0	0	560	493	1021	0	0	0	
4	0	0	0	0	561	494	1021	0	0	0	
5	0	0	0	0	563	495	1021	0	0	0	
6	0	0	0	0	564	494	1021	0	0	0	
7	0	0	0	0	567	495	1021	0	0	0	
8	0	0	0	0	569	496	1021	0	0	0	
9	0	0	0	0	572	496	1021	0	0	0	
10	0	0	0	0	575	498	1021	0	0	0	
11	0	0	0	0	578	500	1021	0	0	0	
12	0	0	0	0	580	504	1021	0	0	0	
13	0	0	0	0	583	507	1021	0	0	0	
14	0	0	0	0	584	510	1021	0	0	0	
15	0	0	0	0	585	514	1021	0	0	0	
0	0	0	0	0	584	516	1021	0	0	0	
1	0	0	0	0	583	518	1021	0	0	0	
2	0	0	0	0	580	519	1021	0	0	0	
3	0	0	0	0	576	518	1021	0	0	0	
4	0	0	0	0	570	515	1021	0	0	0	
5	0	0	0	0	561	511	1021	0	0	0	
6	0	0	0	0	552	503	1021	0	0	0	
7	0	0	0	0	541	494	1021	0	0	0	
8	0	0	0	0	528	482	1021	0	0	0	
9	0	0	0	0	515	469	1021	0	0	0	
10	0	0	0	0	503	457	1021	0	0	0	
11	0	0	0	0	493	446	1021	0	0	0	
12	0	0	0	0	484	437	1021	0	0	0	
13	0	0	0	0	479	431	1021	0	0	0	
14	0	0	0	0	477	428	1021	0	0	0	
15	0	0	0	0	479	429	1021	0	0	0	
0	0	0	0	0	486	434	1021	0	0	0	
1	0	0	0	0	496	442	1021	0	0	0	
2	0	0	0	0	509	454	1021	0	0	0	
3	0	0	0	0	524	466	1021	0	0	0	
4	0	0	0	0	540	479	1021	0	0	0	
5	0	0	0	0	556	492	1021	0	0	0	
6	0	0	0	0	570	503	1021	0	0	0	
7	0	0	0	0	582	511	1021	0	0	0	
8	0	0	0	0	589	517	1021	0	0	0	
9	0	0	0	0	593	520	1021	0	0	0	
10	0	0	0	0	593	521	1021	0	0	0	
11	0	0	0	0	590	519	1021	0	0	0	
12	0	0	0	0	584	515	1021	0	0	0	
13	0	0	0	0	576	510	1021	0	0	0	
14	0	0	0	0	568	505	1021	0	0	0	
15	0	0	0	0	561	501	1021	0	0	0	
0	0	0	0	0	556	499	1021	0	0	0	
1	0	0	0	0	553	497	1021	0	0	0	
2	0	0	0	0	553	499	1021	0	0	0	
3	0	0	0	0	559	503	1021	0	0	0	
4	0	0	0	0	568	508	1021	0	0	0	
5	0	0	0	0	577	514	1021	0	0	0	
6	0	0	0	0	587	519	1021	0	0	0	
7	0	0	0	0	595	521	1021	0	0	0	
8	0	0	0	0	599	521	1021	0	0	0	
9	0	0	0	0	599	519	1021	0	0	0	
10	0	0	0	0	594	513	1021	0	0	0	
11	0	0	0	0	584	504	1020	0	0	0	
12	0	0	0	0	569	493	1021	0	0	0	
13	0	0	0	0	550	480	1021	0	0	0	
14	0	0	0	0	529	466	1021	0	0	0	
15	0	0	0	0	507	451	1021	0	0	0	
0	0	0	0	0	485	439	1021	0	0	0	
1	0	0	0	0	467	428	1021	0	0	0	
2	0	0	0	0	454	422	1021	0	0	0	
3	0	0	0	0	448	419	1021	0	0	0	
4	0	0	0	0	448	422	1021	0	0	0	
5	0	0	0	0	456	428	1021	0	0	0	
6	0	0	0	0	472	439	1021	0	0	0	
7	0	0	0	0	492	452	1021	0	0	0	
8	0	0	0	0	515	467	1021	0	0	0	
9	0	0	0	0	540	482	1021	0	0	0	
10	0	0	0	0	564	496	1021	0	0	0	
11	0	0	0	0	586	507	1021	0	0	0	
12	0	0	0	0	603	516	1021	0	0	0	
13	0	0	0	0	616	523	1021	0	0	0	
14	0	0	0	0	624	526	1021	0	0	0	
15	0	0	0	0	625	527	1021	0	0	0	
0	0	0	0	0	622	524	1021	0	0	0	
1	0	0	0	0	613	519	1021	0	0	0	
2	0	0	0	0	601	513	1021	0	0	0	
3	0	0	0	0	586	504	1021	0	0	0	
4	0	0	0	0	570	496	1021	0	0	0	
5	0	0	0	0	556	489	1021	0	0	0	
6	0	0	0	0	545	483	1021	0	0	0	
7	0	0	0	0	539	480	1021	0	0	0	
8	0	0	0	0	538	480	1021	0	0	0	
9	0	0	0	0	540	482	1021	0	0	0	
10	0	0	0	0	547	486	1021	0	0	0	
11	0	0	0	0	554	492	1021	0	0	0	
12	0	0	0	0	562	497	1021	0	0	0	
13	0	0	0	0	568	503	1021	0	0	0	
14	0	0	0	0	571	507	1021	0	0	0	
15	0	0	0	0	571	509	1021	0	0	0	
0	0	0	0	0	569	510	1021	0	0	0	
1	0	0	0	0	564	508	1021	0	0	0	
2	0	0	0	0	557	504	1021	0	0	0	
3	0	0	0	0	550	500	1021	0	0	0	
4	0	0	0	0	541	493	1021	0	0	0	
5	0	0	0	0	532	486	1021	0	0	0	
6	0	0	0	0	523	476	1021	0	0	0	
7	0	0	0	0	513	466	1021	0	0	0	
8	0	0	0	0	503	455	1021	0	0	0	
9	0	0	0	0	493	445	1021	0	0	0	
10	0	0	0	0	483	436	1021	0	0	0	
11	0	0	0	0	475	427	1021	0	0	0	
12	0	0	0	0	468	420	1021	0	0	0	
13	0	0	0	0	464	416	1021	0	0	0	
14	0	0	0	0	463	414	1021	0	0	0	
15	0	0	0	0	465	416	1021	0	0	0	
0	0	0	0	0	471	420	1021	0	0	0	
1	0	0	0	0	478	427	1021	0	0	0	
2	0	0	0	0	487	434	1021	0	0	0	
3	0	0	0	0	498	442	1021	0	0	0	
4	0	0	0	0	509	451	1021	0	0	0	
5	0	0	0	0	520	459	1021	0	0	0	
6	0	0	0	0	531	464	1021	0	0	0	
7	0	0	0	0	540	468	1021	0	0	0	
8	0	0	0	0	547	470	1021	0	0	0	
9	0	0	0	0	551	470	1021	0	0	0	
10	0	0	0	0	555	469	1021	0	0	0	
11	0	0	0	0	558	467	1021	0	0	0	
12	0	0	0	0	560	466	1021	0	0	0	
13	0	0	0	0	562	466	1021	0	0	0	
14	0	0	0	0	564	467	1021	0	0	0	
15	0	0	0	0	564	468	1021	0	0	0	
0	0	0	0	0	563	470	1021	0	0	0	
1	0	0	0	0	560	471	1021	0	0	0	
2	0	0	0	0	555	472	1021	0	0	0	
3	0	0	0	0	548	475	1021	0	0	0	
4	0	0	0	0	542	478	1021	0	0	0	
5	0	0	0	0	537	481	1021	0	0	0	
6	0	0	0	0	534	487	1021	0	0	0	
7	0	0	0	0	533	492	1021	0	0	0	
8	0	0	0	0	533	496	1021	0	0	0	
9	0	0	0	0	535	499	1021	0	0	0	
10	0	0	0	0	537	500	1021	0	0	0	
11	0	0	0	0	539	499	1021	0	0	0	
12	0	0	0	0	539	495	1021	0	0	0	
13	0	0	0	0	540	489	1021	0	0	0	
14	0	0	0	0	540	481	1021	0	0	0	
15	0	0	0	0	540	471	1021	0	0	0	
0	0	0	0	0	539	460	1021	0	0	0	
1	0	0	0	0	538	448	1021	0	0	0	
2	0	0	0	0	536	438	1021	0	0	0	
3	0	0	0	0	533	430	1021	0	0	0	
4	0	0	0	0	529	423	1021	0	0	0	
5	0	0	0	0	524	419	1021	0	0	0	
6	0	0	0	0	518	417	1020	0	0	0	
7	0	0	0	0	514	419	1020	0	0	0	
8	0	0	0	0	508	423	1021	0	0	0	
9	0	0	0	0	504	430	1021	0	0	0	
10	0	0	0	0	499	439	1021	0	0	0	
11	0	0	0	0	495	449	1020	0	0	0	
12	0	0	0	0	494	460	1021	0	0	0	
13	0	0	0	0	494	472	1021	0	0	0	
14	0	0	0	0	497	484	1021	0	0	0	
15	0	0	0	0	504	495	1021	0	0	0	
0	0	0	0	0	512	505	1021	0	0	0	
1	0	0	0	0	523	513	1020	0	0	0	
2	0	0	0	0	536	519	1021	0	0	0	
3	0	0	0	0	548	523	1021	0	0	0	
4	0	0	0	0	561	524	1021	0	0	0	
5	0	0	0	0	572	524	1021	0	0	0	
6	0	0	0	0	581	521	1021	0	0	0	
7	0	0	0	0	588	519	1021	0	0	0	
8	0	0	0	0	591	515	1021	0	0	0	
9	0	0	0	0	590	509	1021	0	0	0	
10	0	0	0	0	585	501	1021	0	0	0	
11	0	0	0	0	576	493	1021	0	0	0	
12	0	0	0	0	564	485	1021	0	0	0	
13	0	0	0	0	551	477	1021	0	0	0	
14	0	0	0	0	536	470	1021	0	0	0	
15	0	0	0	0	520	463	1020	0	0	0	
0	0	0	0	0	505	458	1021	0	0	0	
1	0	0	0	0	492	454	1021	0	0	0	
2	0	0	0	0	482	451	1021	0	0	0	
3	0	0	0	0	476	449	1021	0	0	0	
4	0	0	0	0	474	449	1021	0	0	0	
5	0	0	0	0	476	450	1021	0	0	0	
6	0	0	0	0	483	453	1021	0	0	0	
7	0	0	0	0	493	456	1021	0	0	0	
8	0	0	0	0	505	460	1020	0	0	0	
9	0	0	0	0	519	465	1021	0	0	0	
10	0	0	0	0	533	470	1021	0	0	0	
11	0	0	0	0	547	474	1021	0	0	0	
12	0	0	0	0	557	478	1021	0	0	0	
13	0	0	0	0	564	480	1021	0	0	0	
14	0	0	0	0	568	483	1021	0	0	0	
15	0	0	0	0	570	484	1021	0	0	0	
0	0	0	0	0	571	487	1021	0	0	0	
1	0	0	0	0	570	489	1021	0	0	0	
2	0	0	0	0	568	492	1021	0	0	0	
3	0	0	0	0	564	494	1021	0	0	0	
4	0	0	0	0	561	497	1021	0	0	0	
5	0	0	0	0	557	498	1021	0	0	0	
6	0	0	0	0	552	498	1021	0	0	0	
7	0	0	0	0	545	496	1021	0	0	0	
8	0	0	0	0	537	490	1021	0	0	0	
9	0	0	0	0	527	483	1021	0	0	0	
10	0	0	0	0	518	473	1021	0	0	0	
11	0	0	0	0	508	463	1021	0	0	0	
12	0	0	0	0	499	452	1021	0	0	0	
13	0	0	0	0	492	443	1021	0	0	0	
14	0	0	0	0	488	435	1021	0	0	0	
15	0	0	0	0	488	432	1021	0	0	0	
0	0	0	0	0	492	431	1021	0	0	0	
1	0	0	0	0	499	433	1021	0	0	0	
2	0	0	0	0	508	438	1021	0	0	0	
3	0	0	0	0	519	445	1021	0	0	0	
4	0	0	0	0	531	454	1021	0	0	0	
5	0	0	0	0	543	463	1021	0	0	0	
6	0	0	0	0	554	472	1021	0	0	0	
7	0	0	0	0	562	479	1020	0	0	0	
8	0	0	0	0	568	485	1021	0	0	0	
9	0	0	0	0	569	488	1021	0	0	0	
10	0	0	0	0	568	489	1021	0	0	0	
11	0	0	0	0	563	487	1021	0	0	0	
12	0	0	0	0	556	483	1021	0	0	0	
13	0	0	0	0	548	478	1021	0	0	0	
14	0	0	0	0	539	472	1021	0	0	0	
15	0	0	0	0	529	465	1021	0	0	0	
0	0	0	0	0	520	459	1021	0	0	0	
1	0	0	0	0	511	452	1021	0	0	0	
2	0	0	0	0	504	447	1021	0	0	0	
3	0	0	0	0	499	444	1021	0	0	0	
4	0	0	0	0	495	442	1021	0	0	0	
5	0	0	0	0	492	441	1021	0	0	0	
6	0	0	0	0	490	442	1020	0	0	0	
7	0	0	0	0	491	444	1021	0	0	0	
8	0	0	0	0	493	448	1021	0	0	0	
9	0	0	0	0	497	452	1021	0	0	0	
10	0	0	0	0	502	456	1021	0	0	0	
11	0	0	0	0	507	460	1021	0	0	0	
12	0	0	0	0	513	464	1021	0	0	0	
13	0	0	0	0	520	467	1021	0	0	0	
14	0	0	0	0	527	470	1021	0	0	0	
15	0	0	0	0	536	472	1021	0	0	0	
0	0	0	0	0	542	472	1021	0	0	0	
1	0	0	0	0	549	473	1021	0	0	0	
2	0	0	0	0	556	473	1021	0	0	0	
3	0	0	0	0	560	473	1021	0	0	0	
4	0	0	0	0	563	472	1021	0	0	0	
5	0	0	0	0	564	471	1020	0	0	0	
6	0	0	0	0	562	468	1021	0	0	0	
7	0	0	0	0	557	465	1021	0	0	0	
8	0	0	0	0	551	461	1021	0	0	0	
9	0	0	0	0	543	457	1021	0	0	0	
10	0	0	0	0	537	455	1021	0	0	0	
11	0	0	0	0	531	454	1021	0	0	0	
12	0	0	0	0	527	452	1021	0	0	0	
13	0	0	0	0	525	453	1021	0	0	0	
14	0	0	0	0	524	454	1021	0	0	0	
15	0	0	0	0	523	455	1021	0	0	0	
0	0	0	0	0	521	456	1021	0	0	0	
1	0	0	0	0	519	456	1021	0	0	0	
2	0	0	0	0	517	455	1021	0	0	0	
3	0	0	0	0	514	453	1021	0	0	0	
4	0	0	0	0	511	451	1021	0	0	0	
5	0	0	0	0	509	448	1021	0	0	0	
6	0	0	0	0	508	446	1021	0	0	0	
7	0	0	0	0	510	445	1021	0	0	0	
8	0	0	0	0	513	445	1021	0	0	0	
9	0	0	0	0	518	446	1021	0	0	0	
10	0	0	0	0	524	448	1021	0	0	0	
11	0	0	0	0	532	452	1021	0	0	0	
12	0	0	0	0	540	458	1021	0	0	0	
13	0	0	0	0	550	464	1021	0	0	0	
14	0	0	0	0	557	472	1021	0	0	0	
15	0	0	0	0	564	480	1021	0	0	0	
0	0	0	0	0	570	488	1021	0	0	0	
1	0	0	0	0	574	496	1021	0	0	0	
2	0	0	0	0	574	501	1021	0	0	0	
3	0	0	0	0	571	505	1021	0	0	0	
4	0	0	0	0	565	506	1021	0	0	0	
5	0	0	0	0	557	507	1021	0	0	0	
6	0	0	0	0	547	504	1021	0	0	0	
7	0	0	0	0	537	501	1021	0	0	0	
8	0	0	0	0	527	496	1021	0	0	0	
9	0	0	0	0	518	489	1021	0	0	0	
10	0	0	0	0	510	482	1021	0	0	0	
11	0	0	0	0	504	475	1021	0	0	0	
12	0	0	0	0	500	468	1021	0	0	0	
13	0	0	0	0	499	463	1021	0	0	0	
14	0	0	0	0	500	458	1021	0	0	0	
15	0	0	0	0	506	457	1021	0	0	0	
0	0	0	0	0	515	458	1021	0	0	0	
1	0	0	0	0	526	461	1021	0	0	0	
2	0	0	0	0	538	466	1021	0	0	0	
3	0	0	0	0	549	472	1021	0	0	0	
4	0	0	0	0	558	478	1021	0	0	0	
5	0	0	0	0	563	483	1021	0	0	0	
6	0	0	0	0	565	487	1021	0	0	0	
7	0	0	0	0	563	489	1021	0	0	0	
8	0	0	0	0	559	491	1021	0	0	0	
9	0	0	0	0	552	491	1021	0	0	0	
10	0	0	0	0	544	489	1021	0	0	0	
11	0	0	0	0	536	487	1021	0	0	0	
12	0	0	0	0	526	483	1021	0	0	0	
13	0	0	0	0	515	477	1021	0	0	0	
14	0	0	0	0	506	470	1021	0	0	0	
15	0	0	0	0	497	462	1021	0	0	0	
0	0	0	0	0	491	454	1021	0	0	0	
1	0	0	0	0	485	446	1020	0	0	0	
2	0	0	0	0	483	440	1021	0	0	0	
3	0	0	0	0	483	435	1021	0	0	0	
4	0	0	0	0	484	431	1021	0	0	0	
5	0	0	0	0	487	429	1021	0	0	0	
6	0	0	0	0	492	429	1021	0	0	0	
7	0	0	0	0	499	431	1021	0	0	0	
8	0	0	0	0	505	434	1021	0	0	0	
9	0	0	0	0	512	437	1021	0	0	0	
10	0	0	0	0	517	439	1021	0	0	0	
11	0	0	0	0	521	440	1021	0	0	0	
12	0	0	0	0	523	441	1021	0	0	0	
13	0	0	0	0	524	440	1021	0	0	0	
14	0	0	0	0	522	439	1021	0	0	0	
15	0	0	0	0	519	437	1021	0	0	0	
0	0	0	0	0	513	434	1021	0	0	0	
1	0	0	0	0	507	431	1021	0	0	0	
2	0	0	0	0	501	427	1021	0	0	0	
3	0	0	0	0	494	423	1021	0	0	0	
4	0	0	0	0	488	421	1021	0	0	0	
5	0	0	0	0	483	420	1021	0	0	0	
6	0	0	0	0	479	420	1021	0	0	0	
7	0	0	0	0	477	423	1021	0	0	0	
8	0	0	0	0	478	430	1021	0	0	0	
9	0	0	0	0	483	439	1021	0	0	0	
10	0	0	0	0	492	451	1021	0	0	0	
11	0	0	0	0	504	465	1021	0	0	0	
12	0	0	0	0	519	481	1021	0	0	0	
13	0	0	0	0	536	496	1021	0	0	0	
14	0	0	0	0	553	511	1021	0	0	0	
15	0	0	0	0	569	522	1021	0	0	0	
0	0	0	0	0	582	531	1021	0	0	0	
1	0	0	0	0	592	536	1021	0	0	0	
2	0	0	0	0	598	538	1021	0	0	0	
3	0	0	0	0	599	535	1021	0	0	0	
4	0	0	0	0	595	527	1021	0	0	0	
5	0	0	0	0	588	517	1021	0	0	0	
6	0	0	0	0	577	505	1021	0	0	0	
7	0	0	0	0	565	491	1021	0	0	0	
8	0	0	0	0	551	475	1021	0	0	0	
9	0	0	0	0	535	459	1020	0	0	0	
10	0	0	0	0	521	443	1021	0	0	0	
11	0	0	0	0	508	428	1021	0	0	0	
12	0	0	0	0	496	416	1021	0	0	0	
13	0	0	0	0	488	407	1021	0	0	0	
14	0	0	0	0	483	403	1021	0	0	0	
15	0	0	0	0	482	403	1021	0	0	0	
0	0	0	0	0	485	408	1021	0	0	0	
1	0	0	0	0	491	417	1021	0	0	0	
2	0	0	0	0	501	431	1021	0	0	0	
3	0	0	0	0	513	447	1021	0	0	0	
4	0	0	0	0	527	464	1021	0	0	0	
5	0	0	0	0	541	482	1021	0	0	0	
6	0	0	0	0	554	498	1021	0	0	0	
7	0	0	0	0	564	510	1021	0	0	0	
8	0	0	0	0	572	518	1021	0	0	0	
9	0	0	0	0	574	521	1021	0	0	0	
10	0	0	0	0	573	520	1021	0	0	0	
11	0	0	0	0	567	515	1021	0	0	0	
12	0	0	0	0	556	505	1021	0	0	0	
13	0	0	0	0	542	492	1021	0	0	0	
14	0	0	0	0	525	478	1021	0	0	0	
15	0	0	0	0	507	463	1021	0	0	0	
0	0	0	0	0	489	448	1021	0	0	0	
1	0	0	0	0	473	436	1021	0	0	0	
2	0	0	0	0	460	427	1021	0	0	0	
3	0	0	0	0	451	421	1021	0	0	0	
4	0	0	0	0	449	421	1021	0	0	0	
5	0	0	0	0	451	424	1021	0	0	0	
6	0	0	0	0	457	430	1021	0	0	0	
7	0	0	0	0	467	439	1020	0	0	0	
8	0	0	0	0	480	448	1021	0	0	0	
9	0	0	0	0	496	459	1021	0	0	0	
10	0	0	0	0	512	468	1021	0	0	0	
11	0	0	0	0	530	477	1020	0	0	0	
12	0	0	0	0	547	484	1021	0	0	0	
13	0	0	0	0	563	491	1021	0	0	0	
14	0	0	0	0	577	496	1021	0	0	0	
15	0	0	0	0	589	499	1021	0	0	0	
0	0	0	0	0	598	500	1021	0	0	0	
1	0	0	0	0	604	499	1021	0	0	0	
2	0	0	0	0	605	496	1021	0	0	0	
3	0	0	0	0	602	492	1021	0	0	0	
4	0	0	0	0	593	484	1021	0	0	0	
5	0	0	0	0	580	474	1021	0	0	0	
6	0	0	0	0	563	462	1021	0	0	0	
7	0	0	0	0	543	449	1021	0	0	0	
8	0	0	0	0	524	437	1021	0	0	0	
9	0	0	0	0	504	425	1021	0	0	0	
10	0	0	0	0	487	415	1021	0	0	0	
11	0	0	0	0	471	408	1020	0	0	0	
12	0	0	0	0	460	403	1021	0	0	0	
13	0	0	0	0	453	401	1021	0	0	0	
14	0	0	0	0	450	403	1021	0	0	0	
15	0	0	0	0	452	408	1021	0	0	0	
0	0	0	0	0	458	415	1021	0	0	0	
1	0	0	0	0	467	424	1021	0	0	0	
2	0	0	0	0	479	436	1021	0	0	0	
3	0	0	0	0	492	448	1021	0	0	0	
4	0	0	0	0	507	460	1021	0	0	0	
5	0	0	0	0	521	472	1021	0	0	0	
6	0	0	0	0	535	483	1021	0	0	0	
7	0	0	0	0	549	493	1021	0	0	0	
8	0	0	0	0	560	501	1021	0	0	0	
9	0	0	0	0	569	508	1021	0	0	0	
10	0	0	0	0	575	512	1021	0	0	0	
11	0	0	0	0	579	515	1021	0	0	0	
12	0	0	0	0	579	516	1021	0	0	0	
13	0	0	0	0	575	513	1021	0	0	0	
14	0	0	0	0	568	509	1021	0	0	0	
15	0	0	0	0	558	503	1021	0	0	0	
0	0	0	0	0	547	496	1021	0	0	0	
1	0	0	0	0	535	487	1021	0	0	0	
2	0	0	0	0	522	479	1021	0	0	0	
3	0	0	0	0	510	471	1021	0	0	0	
4	0	0	0	0	499	463	1021	0	0	0	
5	0	0	0	0	491	457	1021	0	0	0	
6	0	0	0	0	487	452	1021	0	0	0	
7	0	0	0	0	487	449	1021	0	0	0	
8	0	0	0	0	492	448	1021	0	0	0	
9	0	0	0	0	500	448	1021	0	0	0	
10	0	0	0	0	511	451	1021	0	0	0	
11	0	0	0	0	524	453	1021	0	0	0	
12	0	0	0	0	539	457	1021	0	0	0	
13	0	0	0	0	555	461	1021	0	0	0	
14	0	0	0	0	569	465	1021	0	0	0	
15	0	0	0	0	581	470	1021	0	0	0	
0	0	0	0	0	590	473	1021	0	0	0	
1	0	0	0	0	594	474	1021	0	0	0	
2	0	0	0	0	594	474	1021	0	0	0	
3	0	0	0	0	589	472	1021	0	0	0	
4	0	0	0	0	579	470	1021	0	0	0	
5	0	0	0	0	567	466	1021	0	0	0	
6	0	0	0	0	552	461	1021	0	0	0	
7	0	0	0	0	536	456	1021	0	0	0	
8	0	0	0	0	519	451	1021	0	0	0	
9	0	0	0	0	502	445	1021	0	0	0	
10	0	0	0	0	485	439	1021	0	0	0	
11	0	0	0	0	470	432	1021	0	0	0	
12	0	0	0	0	457	425	1021	0	0	0	
13	0	0	0	0	447	419	1021	0	0	0	
14	0	0	0	0	439	414	1021	0	0	0	
15	0	0	0	0	434	408	1021	0	0	0	
0	0	0	0	0	432	404	1021	0	0	0	
1	0	0	0	0	432	402	1021	0	0	0	
2	0	0	0	0	437	403	1021	0	0	0	
3	0	0	0	0	444	406	1021	0	0	0	
4	0	0	0	0	456	411	1021	0	0	0	
5	0	0	0	0	470	419	1021	0	0	0	
6	0	0	0	0	485	428	1021	0	0	0	
7	0	0	0	0	502	440	1021	0	0	0	
8	0	0	0	0	519	452	1021	0	0	0	
9	0	0	0	0	536	465	1021	0	0	0	
10	0	0	0	0	552	477	1021	0	0	0	
11	0	0	0	0	568	488	1021	0	0	0	
12	0	0	0	0	581	498	1021	0	0	0	
13	0	0	0	0	591	505	1021	0	0	0	
14	0	0	0	0	600	509	1021	0	0	0	
15	0	0	0	0	604	510	1021	0	0	0	
0	0	0	0	0	604	508	1021	0	0	0	
1	0	0	0	0	599	503	1021	0	0	0	
2	0	0	0	0	588	497	1021	0	0	0	
3	0	0	0	0	575	489	1021	0	0	0	
4	0	0	0	0	559	481	1021	0	0	0	
5	0	0	0	0	541	473	1021	0	0	0	
6	0	0	0	0	524	465	1021	0	0	0	
7	0	0	0	0	508	460	1021	0	0	0	
8	0	0	0	0	496	456	1021	0	0	0	
9	0	0	0	0	488	454	1021	0	0	0	
10	0	0	0	0	484	454	1021	0	0	0	
11	0	0	0	0	484	454	1021	0	0	0	
12	0	0	0	0	487	457	1021	0	0	0	
13	0	0	0	0	494	459	1021	0	0	0	
14	0	0	0	0	500	461	1021	0	0	0	
15	0	0	0	0	506	462	1021	0	0	0	
0	0	0	0	0	509	461	1021	0	0	0	
1	0	0	0	0	510	459	1021	0	0	0	
2	0	0	0	0	508	454	1021	0	0	0	
3	0	0	0	0	504	448	1021	0	0	0	
4	0	0	0	0	499	443	1021	0	0	0	
5	0	0	0	0	494	438	1021	0	0	0	
6	0	0	0	0	491	437	1021	0	0	0	
7	0	0	0	0	492	438	1021	0	0	0	
8	0	0	0	0	496	443	1021	0	0	0	
9	0	0	0	0	503	451	1021	0	0	0	
10	0	0	0	0	511	460	1021	0	0	0	
11	0	0	0	0	522	471	1021	0	0	0	
12	0	0	0	0	534	481	1021	0	0	0	
13	0	0	0	0	543	490	1021	0	0	0	
14	0	0	0	0	553	497	1021	0	0	0	
15	0	0	0	0	560	501	1021	0	0	0	
0	0	0	0	0	564	504	1021	0	0	0	
1	0	0	0	0	567	503	1021	0	0	0	
2	0	0	0	0	566	500	1021	0	0	0	
3	0	0	0	0	562	495	1021	0	0	0	
4	0	0	0	0	555	488	1021	0	0	0	
5	0	0	0	0	546	482	1021	0	0	0	
6	0	0	0	0	538	475	1021	0	0	0	
7	0	0	0	0	529	468	1021	0	0	0	
8	0	0	0	0	524	463	1021	0	0	0	
9	0	0	0	0	520	460	1021	0	0	0	
10	0	0	0	0	520	459	1021	0	0	0	
11	0	0	0	0	524	460	1021	0	0	0	
12	0	0	0	0	530	461	1021	0	0	0	
13	0	0	0	0	536	465	1021	0	0	0	
14	0	0	0	0	543	468	1021	0	0	0	
15	0	0	0	0	549	474	1021	0	0	0	
0	0	0	0	0	554	479	1021	0	0	0	
1	0	0	0	0	557	483	1021	0	0	0	
2	0	0	0	0	558	487	1021	0	0	0	
3	0	0	0	0	557	489	1021	0	0	0	
4	0	0	0	0	553	490	1021	0	0	0	
5	0	0	0	0	548	490	1021	0	0	0	
6	0	0	0	0	542	487	1021	0	0	0	
7	0	0	0	0	535	485	1021	0	0	0	
8	0	0	0	0	527	480	1021	0	0	0	
9	0	0	0	0	519	475	1021	0	0	0	
10	0	0	0	0	512	468	1021	0	0	0	
11	0	0	0	0	507	460	1021	0	0	0	
12	0	0	0	0	501	451	1021	0	0	0	
13	0	0	0	0	495	441	1020	0	0	0	
14	0	0	0	0	487	430	1021	0	0	0	
15	0	0	0	0	479	417	1021	0	0	0	
0	0	0	0	0	467	403	1021	0	0	0	
1	0	0	0	0	455	390	1021	0	0	0	
2	0	0	0	0	440	376	1020	0	0	0	
3	0	0	0	0	427	364	1021	0	0	0	
4	0	0	0	0	412	354	1021	0	0	0	
5	0	0	0	0	401	346	1021	0	0	0	
6	0	0	0	0	391	341	1021	0	0	0	
7	0	0	0	0	385	338	1020	0	0	0	
8	0	0	0	0	382	337	1021	0	0	0	
9	0	0	0	0	380	337	1021	0	0	0	
10	0	0	0	0	381	337	1021	0	0	0	
11	0	0	0	0	380	334	1021	0	0	0	
12	0	0	0	0	378	328	1020	0	0	0	
13	0	0	0	0	374	318	1021	0	0	0	
14	0	0	0	0	365	305	1021	0	0	0	
15	0	0	0	0	352	289	1021	0	0	0	
0	0	0	0	0	337	269	1021	0	0	0	
1	0	0	0	0	318	249	1021	0	0	0	
2	0	0	0	0	300	231	1021	0	0	0	
3	0	0	0	0	284	216	1021	0	0	0	
4	0	0	0	0	273	207	1021	0	0	0	
5	0	0	0	0	268	203	1021	0	0	0	
6	0	0	0	0	270	206	1020	0	0	0	
7	0	0	0	0	280	216	1021	0	0	0	
8	0	0	0	0	298	234	1021	0	0	0	
9	0	0	0	0	324	259	1021	0	0	0	
10	0	0	0	0	355	287	1021	0	0	0	
11	0	0	0	0	390	318	1021	0	0	0	
12	0	0	0	0	425	350	1021	0	0	0	
13	0	0	0	0	460	381	1021	0	0	0	
14	0	0	0	0	492	409	1021	0	0	0	
15	0	0	0	0	520	433	1021	0	0	0	
0	0	0	0	0	543	451	1021	0	0	0	
1	0	0	0	0	560	463	1021	0	0	0	
2	0	0	0	0	570	470	1021	0	0	0	
3	0	0	0	0	574	472	1021	0	0	0	
4	0	0	0	0	570	468	1021	0	0	0	
5	0	0	0	0	562	463	1020	0	0	0	
6	0	0	0	0	552	456	1021	0	0	0	
7	0	0	0	0	540	450	1021	0	0	0	
8	0	0	0	0	527	444	1021	0	0	0	
9	0	0	0	0	513	440	1021	0	0	0	
10	0	0	0	0	501	436	1021	0	0	0	
11	0	0	0	0	491	435	1021	0	0	0	
12	0	0	0	0	483	436	1021	0	0	0	
13	0	0	0	0	478	440	1021	0	0	0	
14	0	0	0	0	476	444	1021	0	0	0	
15	0	0	0	0	477	450	1021	0	0	0	
0	0	0	0	0	480	456	1021	0	0	0	
1	0	0	0	0	486	462	1021	0	0	0	
2	0	0	0	0	494	468	1021	0	0	0	
3	0	0	0	0	502	472	1021	0	0	0	
4	0	0	0	0	512	476	1021	0	0	0	
5	0	0	0	0	521	479	1021	0	0	0	
6	0	0	0	0	532	482	1021	0	0	0	
7	0	0	0	0	542	484	1021	0	0	0	
8	0	0	0	0	553	487	1021	0	0	0	
9	0	0	0	0	563	489	1021	0	0	0	
10	0	0	0	0	571	491	1021	0	0	0	
11	0	0	0	0	580	494	1021	0	0	0	
12	0	0	0	0	588	497	1021	0	0	0	
13	0	0	0	0	595	501	1021	0	0	0	
14	0	0	0	0	603	504	1021	0	0	0	
15	0	0	0	0	608	508	1021	0	0	0	
0	0	0	0	0	614	511	1021	0	0	0	
1	0	0	0	0	617	513	1021	0	0	0	
2	0	0	0	0	617	514	1021	0	0	0	
3	0	0	0	0	615	513	1021	0	0	0	
4	0	0	0	0	610	511	1021	0	0	0	
5	0	0	0	0	602	507	1021	0	0	0	
6	0	0	0	0	591	501	1021	0	0	0	
7	0	0	0	0	576	493	1021	0	0	0	
8	0	0	0	0	560	484	1021	0	0	0	
9	0	0	0	0	543	474	1021	0	0	0	
10	0	0	0	0	528	465	1021	0	0	0	
11	0	0	0	0	515	456	1021	0	0	0	
12	0	0	0	0	505	449	1021	0	0	0	
13	0	0	0	0	500	443	1021	0	0	0	
14	0	0	0	0	500	437	1021	0	0	0	
15	0	0	0	0	504	435	1021	0	0	0	
0	0	0	0	0	508	432	1021	0	0	0	
1	0	0	0	0	513	432	1021	0	0	0	
2	0	0	0	0	516	433	1021	0	0	0	
3	0	0	0	0	517	435	1021	0	0	0	
4	0	0	0	0	516	441	1021	0	0	0	
5	0	0	0	0	516	449	1021	0	0	0	
6	0	0	0	0	516	460	1021	0	0	0	
7	0	0	0	0	517	472	1020	0	0	0	
8	0	0	0	0	519	486	1021	0	0	0	
9	0	0	0	0	524	499	1021	0	0	0	
10	0	0	0	0	529	510	1021	0	0	0	
11	0	0	0	0	532	518	1021	0	0	0	
12	0	0	0	0	536	523	1021	0	0	0	
13	0	0	0	0	537	524	1021	0	0	0	
14	0	0	0	0	538	522	1021	0	0	0	
15	0	0	0	0	537	518	1021	0	0	0	
0	0	0	0	0	537	513	1021	0	0	0	
1	0	0	0	0	536	507	1021	0	0	0	
2	0	0	0	0	534	500	1021	0	0	0	
3	0	0	0	0	532	495	1021	0	0	0	
4	0	0	0	0	531	490	1021	0	0	0	
5	0	0	0	0	531	487	1021	0	0	0	
6	0	0	0	0	532	485	1021	0	0	0	
7	0	0	0	0	535	486	1021	0	0	0	
8	0	0	0	0	542	489	1021	0	0	0	
9	0	0	0	0	551	495	1021	0	0	0	
10	0	0	0	0	561	502	1021	0	0	0	
11	0	0	0	0	573	509	1021	0	0	0	
12	0	0	0	0	584	516	1020	0	0	0	
13	0	0	0	0	595	523	1021	0	0	0	
14	0	0	0	0	603	526	1021	0	0	0	
15	0	0	0	0	607	527	1021	0	0	0	
0	0	0	0	0	606	524	1020	0	0	0	
1	0	0	0	0	600	516	1021	0	0	0	
2	0	0	0	0	591	507	1021	0	0	0	
3	0	0	0	0	576	494	1021	0	0	0	
4	0	0	0	0	559	479	1021	0	0	0	
5	0	0	0	0	539	462	1021	0	0	0	
6	0	0	0	0	517	445	1021	0	0	0	
7	0	0	0	0	496	430	1021	0	0	0	
8	0	0	0	0	474	415	1021	0	0	0	
9	0	0	0	0	455	403	1021	0	0	0	
10	0	0	0	0	440	395	1021	0	0	0	
11	0	0	0	0	429	392	1021	0	0	0	
12	0	0	0	0	425	395	1021	0	0	0	
13	0	0	0	0	427	401	1021	0	0	0	
14	0	0	0	0	435	413	1021	0	0	0	
15	0	0	0	0	450	428	1021	0	0	0	
0	0	0	0	0	469	446	1021	0	0	0	
1	0	0	0	0	492	465	1021	0	0	0	
2	0	0	0	0	516	484	1021	0	0	0	
3	0	0	0	0	541	502	1021	0	0	0	
4	0	0	0	0	565	516	1021	0	0	0	
5	0	0	0	0	585	526	1021	0	0	0	
6	0	0	0	0	602	534	1021	0	0	0	
7	0	0	0	0	614	536	1021	0	0	0	
8	0	0	0	0	622	536	1021	0	0	0	
9	0	0	0	0	624	531	1021	0	0	0	
10	0	0	0	0	623	525	1021	0	0	0	
11	0	0	0	0	617	517	1021	0	0	0	
12	0	0	0	0	608	508	1021	0	0	0	
13	0	0	0	0	595	498	1021	0	0	0	
14	0	0	0	0	582	489	1021	0	0	0	
15	0	0	0	0	566	481	1021	0	0	0	
0	0	0	0	0	551	474	1021	0	0	0	
1	0	0	0	0	538	469	1021	0	0	0	
2	0	0	0	0	527	466	1021	0	0	0	
3	0	0	0	0	520	464	1021	0	0	0	
4	0	0	0	0	518	464	1021	0	0	0	
5	0	0	0	0	518	465	1021	0	0	0	
6	0	0	0	0	520	465	1021	0	0	0	
7	0	0	0	0	524	464	1021	0	0	0	
8	0	0	0	0	527	462	1021	0	0	0	
9	0	0	0	0	528	456	1021	0	0	0	
10	0	0	0	0	527	449	1021	0	0	0	
11	0	0	0	0	522	440	1021	0	0	0	
12	0	0	0	0	514	430	1021	0	0	0	
13	0	0	0	0	504	420	1021	0	0	0	
14	0	0	0	0	494	412	1021	0	0	0	
15	0	0	0	0	484	407	1021	0	0	0	
0	0	0	0	0	476	404	1021	0	0	0	
1	0	0	0	0	471	407	1021	0	0	0	
2	0	0	0	0	470	413	1021	0	0	0	
3	0	0	0	0	472	423	1021	0	0	0	
4	0	0	0	0	480	436	1021	0	0	0	
5	0	0	0	0	490	451	1021	0	0	0	
6	0	0	0	0	503	467	1021	0	0	0	
7	0	0	0	0	516	482	1020	0	0	0	
8	0	0	0	0	531	496	1021	0	0	0	
9	0	0	0	0	543	507	1021	0	0	0	
10	0	0	0	0	555	515	1021	0	0	0	
11	0	0	0	0	563	519	1021	0	0	0	
12	0	0	0	0	568	520	1021	0	0	0	
13	0	0	0	0	571	518	1021	0	0	0	
14	0	0	0	0	571	515	1021	0	0	0	
15	0	0	0	0	568	510	1021	0	0	0	
0	0	0	0	0	566	504	1021	0	0	0	
1	0	0	0	0	562	500	1021	0	0	0	
2	0	0	0	0	559	496	1021	0	0	0	
3	0	0	0	0	556	494	1021	0	0	0	
4	0	0	0	0	556	493	1021	0	0	0	
5	0	0	0	0	556	493	1021	0	0	0	
6	0	0	0	0	559	495	1021	0	0	0	
7	0	0	0	0	563	497	1021	0	0	0	
8	0	0	0	0	568	499	1021	0	0	0	
9	0	0	0	0	572	501	1021	0	0	0	
10	0	0	0	0	574	501	1021	0	0	0	
11	0	0	0	0	575	500	1021	0	0	0	
12	0	0	0	0	574	497	1021	0	0	0	
13	0	0	0	0	571	493	1021	0	0	0	
14	0	0	0	0	564	487	1021	0	0	0	
15	0	0	0	0	556	480	1021	0	0	0	
0	0	0	0	0	545	471	1021	0	0	0	
1	0	0	0	0	531	461	1021	0	0	0	
2	0	0	0	0	516	450	1021	0	0	0	
3	0	0	0	0	500	439	1021	0	0	0	
4	0	0	0	0	484	428	1021	0	0	0	
5	0	0	0	0	470	420	1021	0	0	0	
6	0	0	0	0	457	413	1021	0	0	0	
7	0	0	0	0	448	408	1021	0	0	0	
8	0	0	0	0	442	406	1021	0	0	0	
9	0	0	0	0	441	407	1020	0	0	0	
10	0	0	0	0	444	410	1021	0	0	0	
11	0	0	0	0	450	416	1021	0	0	0	
12	0	0	0	0	460	425	1021	0	0	0	
13	0	0	0	0	473	436	1021	0	0	0	
14	0	0	0	0	488	447	1021	0	0	0	
15	0	0	0	0	504	459	1021	0	0	0	
0	0	0	0	0	521	471	1021	0	0	0	
1	0	0	0	0	538	482	1021	0	0	0	
2	0	0	0	0	552	492	1021	0	0	0	
3	0	0	0	0	564	499	1021	0	0	0	
4	0	0	0	0	573	503	1021	0	0	0	
5	0	0	0	0	577	504	1021	0	0	0	
6	0	0	0	0	577	503	1021	0	0	0	
7	0	0	0	0	573	498	1021	0	0	0	
8	0	0	0	0	566	489	1021	0	0	0	
9	0	0	0	0	554	480	1020	0	0	0	
10	0	0	0	0	541	468	1021	0	0	0	
11	0	0	0	0	527	458	1021	0	0	0	
12	0	0	0	0	512	447	1021	0	0	0	
13	0	0	0	0	500	439	1021	0	0	0	
14	0	0	0	0	490	433	1021	0	0	0	
15	0	0	0	0	484	431	1021	0	0	0	
0	0	0	0	0	482	432	1021	0	0	0	
1	0	0	0	0	484	436	1021	0	0	0	
2	0	0	0	0	488	442	1021	0	0	0	
3	0	0	0	0	496	450	1021	0	0	0	
4	0	0	0	0	505	457	1021	0	0	0	
5	0	0	0	0	516	466	1021	0	0	0	
6	0	0	0	0	527	474	1021	0	0	0	
7	0	0	0	0	538	480	1021	0	0	0	
8	0	0	0	0	547	485	1021	0	0	0	
9	0	0	0	0	555	487	1021	0	0	0	
10	0	0	0	0	558	488	1021	0	0	0	
11	0	0	0	0	558	487	1021	0	0	0	
12	0	0	0	0	553	483	1021	0	0	0	
13	0	0	0	0	547	478	1021	0	0	0	
14	0	0	0	0	538	472	1021	0	0	0	
15	0	0	0	0	529	467	1021	0	0	0	
0	0	0	0	0	522	463	1021	0	0	0	
1	0	0	0	0	516	461	1021	0	0	0	
2	0	0	0	0	515	460	1021	0	0	0	
3	0	0	0	0	515	461	1021	0	0	0	
4	0	0	0	0	519	463	1021	0	0	0	
5	0	0	0	0	524	465	1021	0	0	0	
6	0	0	0	0	529	467	1021	0	0	0	
7	0	0	0	0	534	469	1021	0	0	0	
8	0	0	0	0	539	470	1021	0	0	0	
9	0	0	0	0	542	472	1021	0	0	0	
10	0	0	0	0	545	472	1021	0	0	0	
11	0	0	0	0	547	472	1021	0	0	0	
12	0	0	0	0	549	472	1021	0	0	0	
13	0	0	0	0	551	472	1021	0	0	0	
14	0	0	0	0	553	472	1021	0	0	0	
15	0	0	0	0	555	473	1021	0	0	0	
0	0	0	0	0	556	472	1021	0	0	0	
1	0	0	0	0	555	471	1020	0	0	0	
2	0	0	0	0	551	468	1021	0	0	0	
3	0	0	0	0	544	465	1021	0	0	0	
4	0	0	0	0	535	461	1021	0	0	0	
5	0	0	0	0	524	457	1021	0	0	0	
6	0	0	0	0	512	453	1021	0	0	0	
7	0	0	0	0	500	449	1021	0	0	0	
8	0	0	0	0	489	448	1021	0	0	0	
9	0	0	0	0	482	447	1021	0	0	0	
10	0	0	0	0	476	447	1021	0	0	0	
11	0	0	0	0	474	449	1021	0	0	0	
12	0	0	0	0	475	451	1020	0	0	0	
13	0	0	0	0	479	454	1021	0	0	0	
14	0	0	0	0	486	457	1021	0	0	0	
15	0	0	0	0	495	462	1021	0	0	0	
0	0	0	0	0	505	465	1021	0	0	0	
1	0	0	0	0	515	468	1021	0	0	0	
2	0	0	0	0	525	470	1021	0	0	0	
3	0	0	0	0	535	472	1021	0	0	0	
4	0	0	0	0	543	472	1021	0	0	0	
5	0	0	0	0	549	472	1021	0	0	0	
6	0	0	0	0	552	471	1021	0	0	0	
7	0	0	0	0	553	470	1021	0	0	0	
8	0	0	0	0	551	468	1021	0	0	0	
9	0	0	0	0	546	464	1021	0	0	0	
10	0	0	0	0	539	460	1021	0	0	0	
11	0	0	0	0	529	454	1021	0	0	0	
12	0	0	0	0	519	448	1021	0	0	0	
13	0	0	0	0	509	441	1021	0	0	0	
14	0	0	0	0	500	434	1021	0	0	0	
15	0	0	0	0	492	428	1021	0	0	0	
0	0	0	0	0	486	421	1021	0	0	0	
1	0	0	0	0	480	415	1021	0	0	0	
2	0	0	0	0	474	410	1021	0	0	0	
3	0	0	0	0	470	405	1021	0	0	0	
4	0	0	0	0	465	401	1021	0	0	0	
5	0	0	0	0	462	398	1021	0	0	0	
6	0	0	0	0	459	398	1021	0	0	0	
7	0	0	0	0	460	401	1021	0	0	0	
8	0	0	0	0	463	407	1021	0	0	0	
9	0	0	0	0	471	417	1021	0	0	0	
10	0	0	0	0	482	430	1021	0	0	0	
11	0	0	0	0	498	445	1021	0	0	0	
12	0	0	0	0	516	461	1021	0	0	0	
13	0	0	0	0	535	477	1021	0	0	0	
14	0	0	0	0	553	492	1021	0	0	0	
15	0	0	0	0	568	505	1021	0	0	0	
0	0	0	0	0	582	515	1021	0	0	0	
1	0	0	0	0	592	521	1021	0	0	0	
2	0	0	0	0	597	524	1021	0	0	0	
3	0	0	0	0	596	522	1021	0	0	0	
4	0	0	0	0	591	517	1021	0	0	0	
5	0	0	0	0	581	508	1021	0	0	0	
6	0	0	0	0	567	496	1021	0	0	0	
7	0	0	0	0	551	483	1021	0	0	0	
8	0	0	0	0	534	469	1021	0	0	0	
9	0	0	0	0	517	457	1021	0	0	0	
10	0	0	0	0	504	445	1021	0	0	0	
11	0	0	0	0	492	436	1021	0	0	0	
12	0	0	0	0	484	429	1021	0	0	0	
13	0	0	0	0	480	423	1021	0	0	0	
14	0	0	0	0	479	422	1021	0	0	0	
15	0	0	0	0	483	421	1021	0	0	0	
0	0	0	0	0	489	423	1021	0	0	0	
1	0	0	0	0	499	426	1021	0	0	0	
2	0	0	0	0	508	430	1020	0	0	0	
3	0	0	0	0	519	436	1021	0	0	0	
4	0	0	0	0	529	442	1021	0	0	0	
5	0	0	0	0	537	448	1021	0	0	0	
6	0	0	0	0	545	454	1021	0	0	0	
7	0	0	0	0	553	460	1021	0	0	0	
8	0	0	0	0	560	467	1021	0	0	0	
9	0	0	0	0	568	474	1021	0	0	0	
10	0	0	0	0	574	481	1021	0	0	0	
11	0	0	0	0	578	487	1021	0	0	0	
12	0	0	0	0	579	491	1021	0	0	0	
13	0	0	0	0	575	494	1021	0	0	0	
14	0	0	0	0	568	493	1021	0	0	0	
15	0	0	0	0	556	491	1021	0	0	0	
0	0	0	0	0	543	487	1021	0	0	0	
1	0	0	0	0	529	481	1021	0	0	0	
2	0	0	0	0	515	476	1021	0	0	0	
3	0	0	0	0	504	469	1021	0	0	0	
4	0	0	0	0	493	463	1021	0	0	0	
5	0	0	0	0	484	457	1021	0	0	0	
6	0	0	0	0	478	451	1021	0	0	0	
7	0	0	0	0	473	448	1021	0	0	0	
8	0	0	0	0	473	446	1021	0	0	0	
9	0	0	0	0	476	446	1021	0	0	0	
10	0	0	0	0	481	448	1021	0	0	0	
11	0	0	0	0	490	452	1021	0	0	0	
12	0	0	0	0	500	458	1021	0	0	0	
13	0	0	0	0	513	464	1021	0	0	0	
14	0	0	0	0	524	469	1021	0	0	0	
15	0	0	0	0	535	474	1021	0	0	0	
0	0	0	0	0	543	476	1021	0	0	0	
1	0	0	0	0	547	478	1021	0	0	0	
2	0	0	0	0	551	477	1021	0	0	0	
3	0	0	0	0	550	475	1021	0	0	0	
4	0	0	0	0	547	472	1021	0	0	0	
5	0	0	0	0	542	467	1021	0	0	0	
6	0	0	0	0	534	462	1021	0	0	0	
7	0	0	0	0	527	456	1021	0	0	0	
8	0	0	0	0	518	452	1021	0	0	0	
9	0	0	0	0	511	448	1021	0	0	0	
10	0	0	0	0	504	446	1021	0	0	0	
11	0	0	0	0	500	445	1021	0	0	0	
12	0	0	0	0	498	446	1021	0	0	0	
13	0	0	0	0	497	448	1021	0	0	0	
14	0	0	0	0	499	451	1021	0	0	0	
15	0	0	0	0	502	454	1021	0	0	0	
0	0	0	0	0	504	455	1021	0	0	0	
1	0	0	0	0	507	457	1021	0	0	0	
2	0	0	0	0	509	457	1021	0	0	0	
3	0	0	0	0	509	455	1021	0	0	0	
4	0	0	0	0	507	451	1021	0	0	0	
5	0	0	0	0	502	446	1021	0	0	0	
6	0	0	0	0	496	438	1021	0	0	0	
7	0	0	0	0	488	430	1021	0	0	0	
8	0	0	0	0	481	421	1021	0	0	0	
9	0	0	0	0	476	414	1021	0	0	0	
10	0	0	0	0	471	408	1021	0	0	0	
11	0	0	0	0	469	406	1021	0	0	0	
12	0	0	0	0	470	407	1021	0	0	0	
13	0	0	0	0	473	412	1021	0	0	0	
14	0	0	0	0	481	420	1021	0	0	0	
15	0	0	0	0	490	431	1021	0	0	0	
0	0	0	0	0	503	445	1021	0	0	0	
1	0	0	0	0	516	459	1021	0	0	0	
2	0	0	0	0	529	474	1021	0	0	0	
3	0	0	0	0	542	488	1021	0	0	0	
4	0	0	0	0	553	500	1021	0	0	0	
5	0	0	0	0	562	509	1021	0	0	0	
6	0	0	0	0	569	515	1021	0	0	0	
7	0	0	0	0	572	517	1021	0	0	0	
8	0	0	0	0	573	515	1021	0	0	0	
9	0	0	0	0	570	509	1021	0	0	0	
10	0	0	0	0	564	500	1021	0	0	0	
11	0	0	0	0	555	488	1021	0	0	0	
12	0	0	0	0	544	475	1021	0	0	0	
13	0	0	0	0	531	460	1021	0	0	0	
14	0	0	0	0	519	447	1021	0	0	0	
15	0	0	0	0	507	434	1021	0	0	0	
0	0	0	0	0	496	424	1021	0	0	0	
1	0	0	0	0	487	416	1021	0	0	0	
2	0	0	0	0	479	410	1021	0	0	0	
3	0	0	0	0	473	408	1021	0	0	0	
4	0	0	0	0	470	408	1021	0	0	0	
5	0	0	0	0	468	410	1021	0	0	0	
6	0	0	0	0	468	414	1021	0	0	0	
7	0	0	0	0	470	419	1021	0	0	0	
8	0	0	0	0	473	427	1021	0	0	0	
9	0	0	0	0	480	434	1021	0	0	0	
10	0	0	0	0	488	443	1021	0	0	0	
11	0	0	0	0	499	452	1021	0	0	0	
12	0	0	0	0	511	460	1021	0	0	0	
13	0	0	0	0	523	469	1021	0	0	0	
14	0	0	0	0	535	476	1021	0	0	0	
15	0	0	0	0	547	483	1021	0	0	0	
0	0	0	0	0	559	487	1021	0	0	0	
1	0	0	0	0	570	491	1021	0	0	0	
2	0	0	0	0	581	495	1021	0	0	0	
3	0	0	0	0	592	497	1021	0	0	0	
4	0	0	0	0	600	498	1021	0	0	0	
5	0	0	0	0	604	498	1021	0	0	0	
6	0	0	0	0	603	496	1021	0	0	0	
7	0	0	0	0	596	494	1021	0	0	0	
8	0	0	0	0	587	492	1021	0	0	0	
9	0	0	0	0	575	490	1021	0	0	0	
10	0	0	0	0	560	488	1021	0	0	0	
11	0	0	0	0	547	487	1021	0	0	0	
12	0	0	0	0	534	486	1021	0	0	0	
13	0	0	0	0	525	484	1021	0	0	0	
14	0	0	0	0	518	483	1021	0	0	0	
15	0	0	0	0	512	479	1021	0	0	0	
0	0	0	0	0	508	473	1021	0	0	0	
1	0	0	0	0	504	466	1021	0	0	0	
2	0	0	0	0	499	457	1021	0	0	0	
3	0	0	0	0	495	447	1021	0	0	0	
4	0	0	0	0	490	435	1021	0	0	0	
5	0	0	0	0	484	424	1020	0	0	0	
6	0	0	0	0	479	414	1021	0	0	0	
7	0	0	0	0	475	407	1021	0	0	0	
8	0	0	0	0	471	401	1021	0	0	0	
9	0	0	0	0	469	398	1021	0	0	0	
10	0	0	0	0	467	398	1020	0	0	0	
11	0	0	0	0	466	401	1020	0	0	0	
12	0	0	0	0	467	408	1021	0	0	0	
13	0	0	0	0	472	418	1021	0	0	0	
14	0	0	0	0	479	430	1021	0	0	0	
15	0	0	0	0	488	441	1021	0	0	0	
0	0	0	0	0	500	454	1021	0	0	0	
1	0	0	0	0	513	466	1021	0	0	0	
2	0	0	0	0	526	477	1021	0	0	0	
3	0	0	0	0	540	486	1021	0	0	0	
4	0	0	0	0	551	493	1021	0	0	0	
5	0	0	0	0	561	496	1021	0	0	0	
6	0	0	0	0	568	498	1021	0	0	0	
7	0	0	0	0	572	496	1021	0	0	0	
8	0	0	0	0	573	493	1021	0	0	0	
9	0	0	0	0	571	487	1020	0	0	0	
10	0	0	0	0	566	482	1021	0	0	0	
11	0	0	0	0	560	476	1021	0	0	0	
12	0	0	0	0	552	470	1021	0	0	0	
13	0	0	0	0	543	464	1021	0	0	0	
14	0	0	0	0	536	460	1021	0	0	0	
15	0	0	0	0	528	456	1021	0	0	0	
0	0	0	0	0	523	455	1020	0	0	0	
1	0	0	0	0	516	453	1021	0	0	0	
2	0	0	0	0	511	452	1021	0	0	0	
3	0	0	0	0	506	451	1021	0	0	0	
4	0	0	0	0	503	450	1021	0	0	0	
5	0	0	0	0	500	451	1021	0	0	0	
6	0	0	0	0	499	451	1021	0	0	0	
7	0	0	0	0	499	451	1021	0	0	0	
8	0	0	0	0	500	451	1021	0	0	0	
9	0	0	0	0	500	451	1021	0	0	0	
10	0	0	0	0	503	450	1021	0	0	0	
11	0	0	0	0	506	451	1021	0	0	0	
12	0	0	0	0	511	451	1021	0	0	0	
13	0	0	0	0	516	451	1021	0	0	0	
14	0	0	0	0	522	452	1021	0	0	0	
15	0	0	0	0	527	454	1021	0	0	0	
0	0	0	0	0	532	455	1021	0	0	0	
1	0	0	0	0	535	456	1021	0	0	0	
2	0	0	0	0	537	458	1021	0	0	0	
3	0	0	0	0	537	459	1021	0	0	0	
4	0	0	0	0	536	461	1021	0	0	0	
5	0	0	0	0	533	463	1021	0	0	0	
6	0	0	0	0	528	465	1021	0	0	0	
7	0	0	0	0	523	466	1021	0	0	0	
8	0	0	0	0	518	468	1021	0	0	0	
9	0	0	0	0	514	470	1021	0	0	0	
10	0	0	0	0	511	472	1021	0	0	0	
11	0	0	0	0	510	474	1021	0	0	0	
12	0	0	0	0	511	475	1021	0	0	0	
13	0	0	0	0	512	476	1021	0	0	0	
14	0	0	0	0	516	475	1021	0	0	0	
15	0	0	0	0	520	474	1021	0	0	0	
0	0	0	0	0	525	473	1021	0	0	0	
1	0	0	0	0	529	472	1021	0	0	0	
2	0	0	0	0	535	472	1021	0	0	0	
3	0	0	0	0	540	473	1021	0	0	0	
4	0	0	0	0	545	476	1021	0	0	0	
5	0	0	0	0	551	479	1021	0	0	0	
6	0	0	0	0	556	482	1021	0	0	0	
7	0	0	0	0	561	487	1021	0	0	0	
8	0	0	0	0	567	492	1021	0	0	0	
9	0	0	0	0	569	495	1021	0	0	0	
10	0	0	0	0	569	496	1021	0	0	0	
11	0	0	0	0	566	495	1021	0	0	0	
12	0	0	0	0	558	491	1021	0	0	0	
13	0	0	0	0	547	485	1021	0	0	0	
14	0	0	0	0	532	477	1021	0	0	0	
15	0	0	0	0	517	468	1021	0	0	0	
0	0	0	0	0	502	457	1021	0	0	0	
1	0	0	0	0	488	446	1021	0	0	0	
2	0	0	0	0	475	435	1021	0	0	0	
3	0	0	0	0	466	426	1021	0	0	0	
4	0	0	0	0	458	418	1021	0	0	0	
5	0	0	0	0	453	412	1020	0	0	0	
6	0	0	0	0	452	408	1021	0	0	0	
7	0	0	0	0	455	408	1021	0	0	0	
8	0	0	0	0	462	410	1021	0	0	0	
9	0	0	0	0	472	416	1021	0	0	0	
10	0	0	0	0	485	423	1021	0	0	0	
11	0	0	0	0	499	432	1021	0	0	0	
12	0	0	0	0	514	442	1021	0	0	0	
13	0	0	0	0	527	452	1021	0	0	0	
14	0	0	0	0	540	462	1021	0	0	0	
15	0	0	0	0	550	470	1021	0	0	0	
0	0	0	0	0	556	477	1021	0	0	0	
1	0	0	0	0	560	482	1021	0	0	0	
2	0	0	0	0	561	484	1021	0	0	0	
3	0	0	0	0	557	483	1021	0	0	0	
4	0	0	0	0	550	480	1021	0	0	0	
5	0	0	0	0	540	476	1021	0	0	0	
6	0	0	0	0	530	469	1021	0	0	0	
7	0	0	0	0	518	462	1021	0	0	0	
8	0	0	0	0	507	454	1021	0	0	0	
9	0	0	0	0	496	447	1021	0	0	0	
10	0	0	0	0	487	441	1021	0	0	0	
11	0	0	0	0	480	435	1021	0	0	0	
12	0	0	0	0	476	431	1021	0	0	0	
13	0	0	0	0	475	430	1021	0	0	0	
14	0	0	0	0	478	430	1021	0	0	0	
15	0	0	0	0	483	434	1021	0	0	0	
0	0	0	0	0	495	440	1021	0	0	0	
1	0	0	0	0	510	449	1021	0	0	0	
2	0	0	0	0	527	460	1021	0	0	0	
3	0	0	0	0	544	470	1021	0	0	0	
4	0	0	0	0	560	481	1021	0	0	0	
5	0	0	0	0	575	491	1021	0	0	0	
6	0	0	0	0	585	498	1021	0	0	0	
7	0	0	0	0	591	502	1021	0	0	0	
8	0	0	0	0	592	503	1021	0	0	0	
9	0	0	0	0	589	500	1021	0	0	0	
10	0	0	0	0	583	496	1021	0	0	0	
11	0	0	0	0	573	488	1021	0	0	0	
12	0	0	0	0	563	481	1021	0	0	0	
13	0	0	0	0	552	472	1021	0	0	0	
14	0	0	0	0	541	464	1021	0	0	0	
15	0	0	0	0	531	457	1021	0	0	0	
0	0	0	0	0	523	451	1021	0	0	0	
1	0	0	0	0	515	447	1021	0	0	0	
2	0	0	0	0	510	444	1021	0	0	0	
3	0	0	0	0	507	444	1021	0	0	0	
4	0	0	0	0	508	446	1021	0	0	0	
5	0	0	0	0	510	449	1021	0	0	0	
6	0	0	0	0	514	454	1021	0	0	0	
7	0	0	0	0	519	459	1021	0	0	0	
8	0	0	0	0	525	465	1021	0	0	0	
9	0	0	0	0	531	470	1021	0	0	0	
10	0	0	0	0	536	474	1021	0	0	0	
11	0	0	0	0	540	477	1021	0	0	0	
12	0	0	0	0	542	478	1021	0	0	0	
13	0	0	0	0	541	476	1021	0	0	0	
14	0	0	0	0	540	475	1021	0	0	0	
15	0	0	0	0	536	471	1021	0	0	0	
0	0	0	0	0	533	467	1021	0	0	0	
1	0	0	0	0	530	464	1020	0	0	0	
2	0	0	0	0	528	460	1021	0	0	0	
3	0	0	0	0	528	459	1021	0	0	0	
4	0	0	0	0	529	457	1021	0	0	0	
5	0	0	0	0	532	457	1021	0	0	0	
6	0	0	0	0	537	459	1021	0	0	0	
7	0	0	0	0	542	462	1021	0	0	0	
8	0	0	0	0	547	466	1021	0	0	0	
9	0	0	0	0	555	471	1021	0	0	0	
10	0	0	0	0	561	476	1021	0	0	0	
11	0	0	0	0	568	483	1021	0	0	0	
12	0	0	0	0	573	488	1021	0	0	0	
13	0	0	0	0	576	493	1021	0	0	0	
14	0	0	0	0	577	497	1021	0	0	0	
15	0	0	0	0	578	499	1021	0	0	0	
0	0	0	0	0	576	500	1020	0	0	0	
1	0	0	0	0	574	499	1021	0	0	0	
2	0	0	0	0	569	497	1021	0	0	0	
3	0	0	0	0	563	492	1021	0	0	0	
4	0	0	0	0	556	486	1021	0	0	0	
5	0	0	0	0	548	480	1021	0	0	0	
6	0	0	0	0	539	471	1021	0	0	0	
7	0	0	0	0	528	462	1021	0	0	0	
8	0	0	0	0	516	452	1020	0	0	0	
9	0	0	0	0	503	441	1021	0	0	0	
10	0	0	0	0	487	429	1021	0	0	0	
11	0	0	0	0	472	417	1021	0	0	0	
12	0	0	0	0	455	406	1021	0	0	0	
13	0	0	0	0	439	394	1021	0	0	0	
14	0	0	0	0	423	382	1021	0	0	0	
15	0	0	0	0	408	369	1021	0	0	0	
0	0	0	0	0	395	357	1021	0	0	0	
1	0	0	0	0	383	346	1021	0	0	0	
2	0	0	0	0	373	335	1021	0	0	0	
3	0	0	0	0	366	325	1021	0	0	0	
4	0	0	0	0	359	315	1021	0	0	0	
5	0	0	0	0	355	305	1021	0	0	0	
6	0	0	0	0	352	297	1021	0	0	0	
7	0	0	0	0	351	289	1021	0	0	0	
8	0	0	0	0	351	283	1021	0	0	0	
9	0	0	0	0	351	277	1021	0	0	0	
10	0	0	0	0	350	272	1021	0	0	0	
11	0	0	0	0	349	267	1021	0	0	0	
12	0	0	0	0	346	263	1021	0	0	0	
13	0	0	0	0	344	261	1021	0	0	0	
14	0	0	0	0	344	262	1021	0	0	0	
15	0	0	0	0	344	264	1021	0	0	0	
0	0	0	0	0	349	271	1021	0	0	0	
1	0	0	0	0	357	281	1021	0	0	0	
2	0	0	0	0	368	294	1021	0	0	0	
3	0	0	0	0	383	309	1021	0	0	0	
4	0	0	0	0	399	325	1021	0	0	0	
5	0	0	0	0	417	341	1021	0	0	0	
6	0	0	0	0	434	356	1021	0	0	0	
7	0	0	0	0	450	369	1021	0	0	0	
8	0	0	0	0	465	380	1021	0	0	0	
9	0	0	0	0	476	386	1021	0	0	0	
10	0	0	0	0	483	390	1021	0	0	0	
11	0	0	0	0	487	391	1021	0	0	0	
12	0	0	0	0	488	388	1021	0	0	0	
13	0	0	0	0	486	384	1021	0	0	0	
14	0	0	0	0	483	380	1021	0	0	0	
15	0	0	0	0	480	377	1021	0	0	0	
0	0	0	0	0	478	378	1021	0	0	0	
1	0	0	0	0	477	382	1021	0	0	0	
2	0	0	0	0	479	390	1021	0	0	0	
3	0	0	0	0	482	402	1021	0	0	0	
4	0	0	0	0	488	419	1021	0	0	0	
5	0	0	0	0	498	438	1021	0	0	0	
6	0	0	0	0	511	461	1021	0	0	0	
7	0	0	0	0	527	483	1021	0	0	0	
8	0	0	0	0	545	506	1021	0	0	0	
9	0	0	0	0	566	527	1021	0	0	0	
10	0	0	0	0	586	543	1021	0	0	0	
11	0	0	0	0	605	556	1021	0	0	0	
12	0	0	0	0	620	562	1021	0	0	0	
13	0	0	0	0	630	563	1021	0	0	0	
14	0	0	0	0	637	559	1021	0	0	0	
15	0	0	0	0	636	550	1021	0	0	0	
0	0	0	0	0	630	537	1021	0	0	0	
1	0	0	0	0	619	523	1021	0	0	0	
2	0	0	0	0	604	509	1021	0	0	0	
3	0	0	0	0	588	496	1021	0	0	0	
4	0	0	0	0	571	485	1021	0	0	0	
5	0	0	0	0	555	477	1021	0	0	0	
6	0	0	0	0	541	472	1021	0	0	0	
7	0	0	0	0	529	470	1021	0	0	0	
8	0	0	0	0	521	472	1021	0	0	0	
9	0	0	0	0	516	475	1021	0	0	0	
10	0	0	0	0	516	482	1021	0	0	0	
11	0	0	0	0	518	491	1021	0	0	0	
12	0	0	0	0	522	499	1021	0	0	0	
13	0	0	0	0	529	508	1021	0	0	0	
14	0	0	0	0	537	515	1021	0	0	0	
15	0	0	0	0	545	521	1021	0	0	0	
0	0	0	0	0	554	524	1021	0	0	0	
1	0	0	0	0	563	526	1021	0	0	0	
2	0	0	0	0	573	524	1021	0	0	0	
3	0	0	0	0	581	520	1021	0	0	0	
4	0	0	0	0	588	515	1021	0	0	0	
5	0	0	0	0	591	506	1021	0	0	0	
6	0	0	0	0	592	498	1021	0	0	0	
7	0	0	0	0	591	489	1021	0	0	0	
8	0	0	0	0	587	481	1021	0	0	0	
9	0	0	0	0	580	474	1021	0	0	0	
10	0	0	0	0	572	469	1021	0	0	0	
11	0	0	0	0	563	467	1021	0	0	0	
12	0	0	0	0	555	467	1021	0	0	0	
13	0	0	0	0	548	471	1021	0	0	0	
14	0	0	0	0	543	476	1021	0	0	0	
15	0	0	0	0	540	482	1021	0	0	0	
0	0	0	0	0	538	489	1021	0	0	0	
1	0	0	0	0	540	497	1021	0	0	0	
2	0	0	0	0	544	504	1021	0	0	0	
3	0	0	0	0	551	510	1021	0	0	0	
4	0	0	0	0	557	513	1021	0	0	0	
5	0	0	0	0	563	515	1021	0	0	0	
6	0	0	0	0	569	514	1021	0	0	0	
7	0	0	0	0	573	512	1021	0	0	0	
8	0	0	0	0	575	508	1021	0	0	0	
9	0	0	0	0	576	503	1021	0	0	0	
10	0	0	0	0	575	499	1021	0	0	0	
11	0	0	0	0	575	495	1021	0	0	0	
12	0	0	0	0	573	492	1021	0	0	0	
13	0	0	0	0	571	489	1021	0	0	0	
14	0	0	0	0	568	487	1021	0	0	0	
15	0	0	0	0	566	489	1021	0	0	0	
0	0	0	0	0	565	491	1021	0	0	0	
1	0	0	0	0	566	495	1021	0	0	0	
2	0	0	0	0	567	499	1021	0	0	0	
3	0	0	0	0	570	503	1021	0	0	0	
4	0	0	0	0	574	508	1021	0	0	0	
5	0	0	0	0	579	511	1021	0	0	0	
6	0	0	0	0	583	513	1021	0	0	0	
7	0	0	0	0	586	512	1021	0	0	0	
8	0	0	0	0	586	509	1020	0	0	0	
9	0	0	0	0	583	504	1021	0	0	0	
10	0	0	0	0	576	495	1021	0	0	0	
11	0	0	0	0	565	484	1021	0	0	0	
12	0	0	0	0	550	470	1021	0	0	0	
13	0	0	0	0	529	454	1021	0	0	0	
14	0	0	0	0	509	440	1021	0	0	0	
15	0	0	0	0	490	427	1021	0	0	0	
0	0	0	0	0	472	415	1021	0	0	0	
1	0	0	0	0	458	408	1021	0	0	0	
2	0	0	0	0	450	406	1021	0	0	0	
3	0	0	0	0	450	409	1021	0	0	0	
4	0	0	0	0	456	418	1021	0	0	0	
5	0	0	0	0	471	432	1021	0	0	0	
6	0	0	0	0	491	449	1021	0	0	0	
7	0	0	0	0	516	470	1021	0	0	0	
8	0	0	0	0	546	493	1021	0	0	0	
9	0	0	0	0	577	516	1021	0	0	0	
10	0	0	0	0	607	537	1021	0	0	0	
11	0	0	0	0	634	555	1021	0	0	0	
12	0	0	0	0	655	568	1021	0	0	0	
13	0	0	0	0	669	573	1021	0	0	0	
14	0	0	0	0	674	572	1021	0	0	0	
15	0	0	0	0	669	563	1021	0	0	0	
0	0	0	0	0	655	548	1021	0	0	0	
1	0	0	0	0	634	527	1021	0	0	0	
2	0	0	0	0	608	503	1021	0	0	0	
3	0	0	0	0	581	479	1021	0	0	0	
4	0	0	0	0	555	456	1021	0	0	0	
5	0	0	0	0	532	435	1021	0	0	0	
6	0	0	0	0	513	419	1020	0	0	0	
7	0	0	0	0	499	409	1021	0	0	0	
8	0	0	0	0	489	405	1021	0	0	0	
9	0	0	0	0	482	405	1021	0	0	0	
10	0	0	0	0	478	412	1021	0	0	0	
11	0	0	0	0	478	422	1021	0	0	0	
12	0	0	0	0	482	436	1021	0	0	0	
13	0	0	0	0	490	454	1021	0	0	0	
14	0	0	0	0	501	473	1021	0	0	0	
15	0	0	0	0	515	492	1021	0	0	0	
0	0	0	0	0	531	509	1021	0	0	0	
1	0	0	0	0	547	523	1021	0	0	0	
2	0	0	0	0	562	533	1021	0	0	0	
3	0	0	0	0	575	539	1021	0	0	0	
4	0	0	0	0	584	540	1021	0	0	0	
5	0	0	0	0	591	537	1021	0	0	0	
6	0	0	0	0	594	532	1021	0	0	0	
7	0	0	0	0	594	524	1021	0	0	0	
8	0	0	0	0	591	514	1021	0	0	0	
9	0	0	0	0	585	504	1021	0	0	0	
10	0	0	0	0	577	494	1021	0	0	0	
11	0	0	0	0	568	484	1021	0	0	0	
12	0	0	0	0	558	477	1021	0	0	0	
13	0	0	0	0	549	471	1021	0	0	0	
14	0	0	0	0	541	467	1021	0	0	0	
15	0	0	0	0	535	465	1021	0	0	0	
0	0	0	0	0	529	465	1021	0	0	0	
1	0	0	0	0	527	466	1021	0	0	0	
2	0	0	0	0	524	468	1021	0	0	0	
3	0	0	0	0	524	472	1021	0	0	0	
4	0	0	0	0	524	473	1021	0	0	0	
5	0	0	0	0	524	475	1021	0	0	0	
6	0	0	0	0	525	477	1021	0	0	0	
7	0	0	0	0	528	478	1021	0	0	0	
8	0	0	0	0	532	479	1021	0	0	0	
9	0	0	0	0	537	480	1021	0	0	0	
10	0	0	0	0	543	482	1021	0	0	0	
11	0	0	0	0	548	483	1021	0	0	0	
12	0	0	0	0	553	485	1021	0	0	0	
13	0	0	0	0	557	487	1021	0	0	0	
14	0	0	0	0	560	490	1021	0	0	0	
15	0	0	0	0	563	494	1021	0	0	0	
0	0	0	0	0	565	498	1021	0	0	0	
1	0	0	0	0	567	501	1021	0	0	0	
2	0	0	0	0	567	504	1021	0	0	0	
3	0	0	0	0	568	506	1021	0	0	0	
4	0	0	0	0	568	507	1021	0	0	0	
5	0	0	0	0	569	508	1021	0	0	0	
6	0	0	0	0	569	508	1021	0	0	0	
7	0	0	0	0	569	506	1021	0	0	0	
8	0	0	0	0	568	503	1021	0	0	0	
9	0	0	0	0	564	499	1021	0	0	0	
10	0	0	0	0	559	492	1021	0	0	0	
11	0	0	0	0	551	484	1021	0	0	0	
12	0	0	0	0	542	476	1021	0	0	0	
13	0	0	0	0	532	467	1021	0	0	0	
14	0	0	0	0	524	459	1021	0	0	0	
15	0	0	0	0	516	452	1021	0	0	0	
0	0	0	0	0	510	447	1021	0	0	0	
1	0	0	0	0	504	443	1021	0	0	0	
2	0	0	0	0	501	441	1021	0	0	0	
3	0	0	0	0	497	440	1021	0	0	0	
4	0	0	0	0	496	443	1021	0	0	0	
5	0	0	0	0	496	446	1021	0	0	0	
6	0	0	0	0	496	450	1021	0	0	0	
7	0	0	0	0	498	454	1021	0	0	0	
8	0	0	0	0	499	459	1021	0	0	0	
9	0	0	0	0	502	464	1021	0	0	0	
10	0	0	0	0	505	468	1021	0	0	0	
11	0	0	0	0	508	472	1021	0	0	0	
12	0	0	0	0	512	474	1021	0	0	0	
13	0	0	0	0	516	477	1021	0	0	0	
14	0	0	0	0	524	480	1021	0	0	0	
15	0	0	0	0	532	483	1021	0	0	0	
0	0	0	0	0	543	487	1021	0	0	0	
1	0	0	0	0	556	492	1021	0	0	0	
2	0	0	0	0	568	497	1021	0	0	0	
3	0	0	0	0	579	502	1021	0	0	0	
4	0	0	0	0	589	505	1021	0	0	0	
5	0	0	0	0	595	506	1021	0	0	0	
6	0	0	0	0	598	506	1021	0	0	0	
7	0	0	0	0	598	504	1021	0	0	0	
8	0	0	0	0	594	501	1021	0	0	0	
9	0	0	0	0	588	497	1021	0	0	0	
10	0	0	0	0	578	491	1021	0	0	0	
11	0	0	0	0	568	485	1021	0	0	0	
12	0	0	0	0	558	478	1021	0	0	0	
13	0	0	0	0	548	473	1021	0	0	0	
14	0	0	0	0	540	468	1021	0	0	0	
15	0	0	0	0	533	465	1021	0	0	0	
0	0	0	0	0	528	462	1021	0	0	0	
1	0	0	0	0	526	461	1021	0	0	0	
2	0	0	0	0	525	462	1021	0	0	0	
3	0	0	0	0	526	463	1021	0	0	0	
4	0	0	0	0	529	465	1021	0	0	0	
5	0	0	0	0	534	469	1021	0	0	0	
6	0	0	0	0	539	474	1021	0	0	0	
7	0	0	0	0	546	479	1021	0	0	0	
8	0	0	0	0	554	486	1021	0	0	0	
9	0	0	0	0	562	493	1021	0	0	0	
10	0	0	0	0	570	500	1021	0	0	0	
11	0	0	0	0	575	508	1021	0	0	0	
12	0	0	0	0	581	514	1021	0	0	0	
13	0	0	0	0	584	520	1021	0	0	0	
14	0	0	0	0	585	524	1021	0	0	0	
15	0	0	0	0	584	527	1021	0	0	0	
0	0	0	0	0	581	528	1021	0	0	0	
1	0	0	0	0	577	527	1021	0	0	0	
2	0	0	0	0	571	524	1021	0	0	0	
3	0	0	0	0	562	518	1021	0	0	0	
4	0	0	0	0	553	510	1021	0	0	0	
5	0	0	0	0	542	500	1021	0	0	0	
6	0	0	0	0	531	489	1021	0	0	0	
7	0	0	0	0	521	479	1021	0	0	0	
8	0	0	0	0	512	468	1021	0	0	0	
9	0	0	0	0	506	459	1021	0	0	0	
10	0	0	0	0	501	451	1021	0	0	0	
11	0	0	0	0	498	444	1021	0	0	0	
12	0	0	0	0	496	439	1021	0	0	0	
13	0	0	0	0	496	435	1021	0	0	0	
14	0	0	0	0	497	432	1021	0	0	0	
15	0	0	0	0	499	431	1021	0	0	0	
0	0	0	0	0	504	432	1021	0	0	0	
1	0	0	0	0	510	435	1021	0	0	0	
2	0	0	0	0	515	438	1021	0	0	0	
3	0	0	0	0	522	443	1021	0	0	0	
4	0	0	0	0	528	448	1021	0	0	0	
5	0	0	0	0	535	455	1021	0	0	0	
6	0	0	0	0	540	462	1021	0	0	0	
7	0	0	0	0	543	468	1021	0	0	0	
8	0	0	0	0	548	476	1021	0	0	0	
9	0	0	0	0	551	483	1021	0	0	0	
10	0	0	0	0	554	489	1021	0	0	0	
11	0	0	0	0	558	495	1021	0	0	0	
12	0	0	0	0	560	499	1021	0	0	0	
13	0	0	0	0	562	503	1021	0	0	0	
14	0	0	0	0	563	504	1021	0	0	0	
15	0	0	0	0	563	503	1021	0	0	0	
0	0	0	0	0	562	500	1021	0	0	0	
1	0	0	0	0	561	498	1021	0	0	0	
2	0	0	0	0	560	496	1021	0	0	0	
3	0	0	0	0	560	494	1021	0	0	0	
4	0	0	0	0	562	494	1021	0	0	0	
5	0	0	0	0	564	495	1021	0	0	0	
6	0	0	0	0	568	497	1021	0	0	0	
7	0	0	0	0	572	500	1021	0	0	0	
8	0	0	0	0	575	502	1021	0	0	0	
9	0	0	0	0	579	504	1021	0	0	0	
10	0	0	0	0	580	504	1021	0	0	0	
11	0	0	0	0	581	503	1021	0	0	0	
12	0	0	0	0	579	498	1021	0	0	0	
13	0	0	0	0	575	492	1021	0	0	0	
14	0	0	0	0	569	486	1021	0	0	0	
15	0	0	0	0	560	478	1021	0	0	0	
0	0	0	0	0	549	468	1021	0	0	0	
1	0	0	0	0	536	459	1020	0	0	0	
2	0	0	0	0	523	450	1021	0	0	0	
3	0	0	0	0	510	443	1021	0	0	0	
4	0	0	0	0	499	437	1021	0	0	0	
5	0	0	0	0	491	433	1021	0	0	0	
6	0	0	0	0	487	433	1021	0	0	0	
7	0	0	0	0	488	437	1021	0	0	0	
8	0	0	0	0	495	445	1021	0	0	0	
9	0	0	0	0	506	455	1021	0	0	0	
10	0	0	0	0	521	468	1021	0	0	0	
11	0	0	0	0	539	482	1021	0	0	0	
12	0	0	0	0	557	496	1021	0	0	0	
13	0	0	0	0	576	508	1021	0	0	0	
14	0	0	0	0	593	518	1021	0	0	0	
15	0	0	0	0	608	526	1021	0	0	0	
0	0	0	0	0	621	531	1021	0	0	0	
1	0	0	0	0	631	533	1021	0	0	0	
2	0	0	0	0	636	532	1021	0	0	0	
3	0	0	0	0	636	528	1021	0	0	0	
4	0	0	0	0	629	521	1021	0	0	0	
5	0	0	0	0	616	512	1021	0	0	0	
6	0	0	0	0	599	500	1021	0	0	0	
7	0	0	0	0	578	489	1021	0	0	0	
8	0	0	0	0	556	478	1021	0	0	0	
9	0	0	0	0	535	469	1021	0	0	0	
10	0	0	0	0	517	462	1021	0	0	0	
11	0	0	0	0	503	458	1021	0	0	0	
12	0	0	0	0	493	458	1021	0	0	0	
13	0	0	0	0	487	460	1021	0	0	0	
14	0	0	0	0	486	463	1021	0	0	0	
15	0	0	0	0	488	468	1021	0	0	0	
0	0	0	0	0	493	474	1021	0	0	0	
1	0	0	0	0	501	480	1021	0	0	0	
2	0	0	0	0	509	485	1021	0	0	0	
3	0	0	0	0	518	489	1021	0	0	0	
4	0	0	0	0	527	491	1021	0	0	0	
5	0	0	0	0	535	491	1021	0	0	0	
6	0	0	0	0	542	490	1021	0	0	0	
7	0	0	0	0	548	487	1021	0	0	0	
8	0	0	0	0	553	484	1021	0	0	0	
9	0	0	0	0	558	480	1021	0	0	0	
10	0	0	0	0	563	478	1021	0	0	0	
11	0	0	0	0	569	478	1021	0	0	0	
12	0	0	0	0	575	478	1021	0	0	0	
13	0	0	0	0	579	480	1021	0	0	0	
14	0	0	0	0	582	483	1021	0	0	0	
15	0	0	0	0	583	487	1021	0	0	0	
0	0	0	0	0	583	492	1021	0	0	0	
1	0	0	0	0	580	496	1021	0	0	0	
2	0	0	0	0	575	499	1021	0	0	0	
3	0	0	0	0	571	502	1021	0	0	0	
4	0	0	0	0	564	502	1021	0	0	0	
5	0	0	0	0	558	503	1021	0	0	0	
6	0	0	0	0	552	502	1021	0	0	0	
7	0	0	0	0	547	500	1021	0	0	0	
8	0	0	0	0	542	497	1021	0	0	0	
9	0	0	0	0	539	493	1021	0	0	0	
10	0	0	0	0	536	489	1021	0	0	0	
11	0	0	0	0	536	485	1021	0	0	0	
12	0	0	0	0	536	481	1021	0	0	0	
13	0	0	0	0	538	479	1021	0	0	0	
14	0	0	0	0	540	476	1021	0	0	0	
15	0	0	0	0	542	475	1021	0	0	0	
0	0	0	0	0	543	473	1021	0	0	0	
1	0	0	0	0	544	472	1021	0	0	0	
2	0	0	0	0	544	472	1021	0	0	0	
3	0	0	0	0	544	473	1021	0	0	0	
4	0	0	0	0	548	475	1021	0	0	0	
5	0	0	0	0	552	479	1021	0	0	0	
6	0	0	0	0	558	483	1021	0	0	0	
7	0	0	0	0	564	489	1021	0	0	0	
8	0	0	0	0	570	496	1021	0	0	0	
9	0	0	0	0	575	503	1021	0	0	0	
10	0	0	0	0	579	509	1021	0	0	0	
11	0	0	0	0	580	513	1021	0	0	0	
12	0	0	0	0	579	516	1021	0	0	0	
13	0	0	0	0	576	517	1021	0	0	0	
14	0	0	0	0	572	516	1021	0	0	0	
15	0	0	0	0	566	513	1021	0	0	0	
0	0	0	0	0	558	508	1021	0	0	0	
1	0	0	0	0	548	502	1021	0	0	0	
2	0	0	0	0	537	492	1021	0	0	0	
3	0	0	0	0	527	483	1021	0	0	0	
4	0	0	0	0	517	473	1021	0	0	0	
5	0	0	0	0	508	465	1021	0	0	0	
6	0	0	0	0	504	459	1021	0	0	0	
7	0	0	0	0	501	454	1020	0	0	0	
8	0	0	0	0	504	453	1021	0	0	0	
9	0	0	0	0	508	455	1021	0	0	0	
10	0	0	0	0	516	460	1021	0	0	0	
11	0	0	0	0	527	467	1021	0	0	0	
12	0	0	0	0	541	477	1021	0	0	0	
13	0	0	0	0	557	488	1021	0	0	0	
14	0	0	0	0	572	500	1021	0	0	0	
15	0	0	0	0	587	510	1021	0	0	0	
0	0	0	0	0	597	517	1021	0	0	0	
1	0	0	0	0	603	519	1021	0	0	0	
2	0	0	0	0	603	519	1021	0	0	0	
3	0	0	0	0	597	512	1021	0	0	0	
4	0	0	0	0	586	503	1021	0	0	0	
5	0	0	0	0	572	491	1021	0	0	0	
6	0	0	0	0	555	477	1021	0	0	0	
7	0	0	0	0	538	464	1021	0	0	0	
8	0	0	0	0	522	453	1021	0	0	0	
9	0	0	0	0	510	444	1021	0	0	0	
10	0	0	0	0	500	439	1021	0	0	0	
11	0	0	0	0	496	439	1021	0	0	0	
12	0	0	0	0	497	443	1021	0	0	0	
13	0	0	0	0	501	449	1021	0	0	0	
14	0	0	0	0	508	458	1021	0	0	0	
15	0	0	0	0	519	468	1021	0	0	0	
0	0	0	0	0	530	479	1021	0	0	0	
1	0	0	0	0	543	491	1021	0	0	0	
2	0	0	0	0	555	500	1021	0	0	0	
3	0	0	0	0	566	508	1021	0	0	0	
4	0	0	0	0	575	513	1021	0	0	0	
5	0	0	0	0	581	513	1021	0	0	0	
6	0	0	0	0	585	512	1021	0	0	0	
7	0	0	0	0	585	507	1021	0	0	0	
8	0	0	0	0	583	499	1021	0	0	0	
9	0	0	0	0	577	489	1021	0	0	0	
10	0	0	0	0	569	478	1021	0	0	0	
11	0	0	0	0	560	467	1021	0	0	0	
12	0	0	0	0	551	458	1021	0	0	0	
13	0	0	0	0	543	452	1021	0	0	0	
14	0	0	0	0	537	448	1021	1	0	0	
15	0	0	0	0	534	450	1021	0	0	0	
0	0	0	0	0	533	454	1021	0	0	0	
1	0	0	0	0	534	461	1021	0	0	0	
2	0	0	0	0	537	470	1021	0	0	0	
3	0	0	0	0	543	479	1021	0	0	0	
4	0	0	0	0	550	489	1021	0	0	0	
5	0	0	0	0	558	499	1021	0	0	0	
6	0	0	0	0	566	508	1021	0	0	0	
7	0	0	0	0	575	515	1021	0	0	0	
8	0	0	0	0	582	519	1021	0	0	0	
9	0	0	0	0	588	521	1021	0	0	0	
10	0	0	0	0	591	521	1021	0	0	0	
11	0	0	0	0	592	519	1021	0	0	0	
12	0	0	0	0	591	515	1021	0	0	0	
13	0	0	0	0	587	509	1021	0	0	0	
14	0	0	0	0	581	504	1021	0	0	0	
15	0	0	0	0	575	500	1021	0	0	0	
0	0	0	0	0	569	496	1021	0	0	0	
1	0	0	0	0	564	494	1021	0	0	0	
2	0	0	0	0	560	493	1021	0	0	0	
3	0	0	0	0	557	495	1021	0	0	0	
4	0	0	0	0	559	499	1021	0	0	0	
5	0	0	0	0	561	504	1021	0	0	0	
6	0	0	0	0	567	511	1021	0	0	0	
7	0	0	0	0	575	517	1021	0	0	0	
8	0	0	0	0	584	524	1021	0	0	0	
9	0	0	0	0	594	530	1021	0	0	0	
10	0	0	0	0	602	534	1021	0	0	0	
11	0	0	0	0	607	534	1021	0	0	0	
12	0	0	0	0	608	531	1021	0	0	0	
13	0	0	0	0	603	525	1021	0	0	0	
14	0	0	0	0	595	516	1021	0	0	0	
15	0	0	0	0	582	504	1021	0	0	0	
0	0	0	0	0	566	489	1021	0	0	0	
1	0	0	0	0	548	475	1021	0	0	0	
2	0	0	0	0	529	460	1021	0	0	0	
3	0	0	0	0	511	448	1021	0	0	0	
4	0	0	0	0	497	439	1021	0	0	0	
5	0	0	0	0	487	432	1021	0	0	0	
6	0	0	0	0	482	431	1020	0	0	0	
7	0	0	0	0	484	435	1021	0	0	0	
8	0	0	0	0	492	442	1021	0	0	0	
9	0	0	0	0	503	453	1021	0	0	0	
10	0	0	0	0	518	465	1021	0	0	0	
11	0	0	0	0	535	478	1021	0	0	0	
12	0	0	0	0	551	491	1021	0	0	0	
13	0	0	0	0	567	501	1021	0	0	0	
14	0	0	0	0	580	509	1021	0	0	0	
15	0	0	0	0	589	514	1021	0	0	0	
0	0	0	0	0	593	514	1021	0	0	0	
1	0	0	0	0	593	511	1021	0	0	0	
2	0	0	0	0	591	504	1021	0	0	0	
3	0	0	0	0	584	496	1021	0	0	0	
4	0	0	0	0	575	486	1021	0	0	0	
5	0	0	0	0	564	475	1021	0	0	0	
6	0	0	0	0	551	465	1021	0	0	0	
7	0	0	0	0	539	455	1021	0	0	0	
8	0	0	0	0	526	446	1021	0	0	0	
9	0	0	0	0	515	440	1021	0	0	0	
10	0	0	0	0	508	435	1021	0	0	0	
11	0	0	0	0	502	435	1020	0	0	0	
12	0	0	0	0	502	438	1021	0	0	0	
13	0	0	0	0	504	443	1021	0	0	0	
14	0	0	0	0	510	451	1021	0	0	0	
15	0	0	0	0	518	460	1021	0	0	0	
0	0	0	0	0	527	470	1021	0	0	0	
1	0	0	0	0	536	481	1021	0	0	0	
2	0	0	0	0	544	490	1021	0	0	0	
3	0	0	0	0	551	498	1021	0	0	0	
4	0	0	0	0	555	503	1021	0	0	0	
5	0	0	0	0	555	505	1021	0	0	0	
6	0	0	0	0	555	505	1021	0	0	0	
7	0	0	0	0	551	503	1021	0	0	0	
8	0	0	0	0	547	500	1021	0	0	0	
9	0	0	0	0	543	496	1021	0	0	0	
10	0	0	0	0	540	492	1021	0	0	0	
11	0	0	0	0	539	488	1021	0	0	0	
12	0	0	0	0	540	486	1021	0	0	0	
13	0	0	0	0	544	485	1021	0	0	0	
14	0	0	0	0	551	486	1021	0	0	0	
15	0	0	0	0	560	489	1021	0	0	0	
0	0	0	0	0	571	493	1021	0	0	0	
1	0	0	0	0	581	497	1021	0	0	0	
2	0	0	0	0	591	500	1021	0	0	0	
3	0	0	0	0	596	504	1021	0	0	0	
4	0	0	0	0	598	505	1021	0	0	0	
5	0	0	0	0	597	506	1021	0	0	0	
6	0	0	0	0	591	505	1021	0	0	0	
7	0	0	0	0	585	504	1021	0	0	0	
8	0	0	0	0	576	501	1021	0	0	0	
9	0	0	0	0	567	499	1021	0	0	0	
10	0	0	0	0	558	496	1021	0	0	0	
11	0	0	0	0	551	493	1021	0	0	0	
12	0	0	0	0	544	491	1021	0	0	0	
13	0	0	0	0	540	489	1021	1	0	0	
14	0	0	0	0	539	489	1021	0	0	0	
15	0	0	0	0	540	491	1021	0	0	0	
0	0	0	0	0	544	494	1021	0	0	0	
1	0	0	0	0	551	497	1021	0	0	0	
2	0	0	0	0	559	503	1021	0	0	0	
3	0	0	0	0	567	505	1021	0	0	0	
4	0	0	0	0	574	509	1021	0	0	0	
5	0	0	0	0	578	510	1021	0	0	0	
6	0	0	0	0	581	509	1021	0	0	0	
7	0	0	0	0	581	507	1021	0	0	0	
8	0	0	0	0	579	504	1021	0	0	0	
9	0	0	0	0	574	500	1021	0	0	0	
10	0	0	0	0	568	497	1021	0	0	0	
11	0	0	0	0	560	494	1021	0	0	0	
12	0	0	0	0	553	491	1021	0	0	0	
13	0	0	0	0	547	490	1021	0	0	0	
14	0	0	0	0	544	489	1021	0	0	0	
15	0	0	0	0	542	489	1021	0	0	0	
0	0	0	0	0	543	490	1021	0	0	0	
1	0	0	0	0	547	492	1021	0	0	0	
2	0	0	0	0	551	493	1021	0	0	0	
3	0	0	0	0	558	495	1021	0	0	0	
4	0	0	0	0	564	496	1021	0	0	0	
5	0	0	0	0	569	497	1021	0	0	0	
6	0	0	0	0	572	498	1021	0	0	0	
7	0	0	0	0	575	498	1021	0	0	0	
8	0	0	0	0	576	499	1021	0	0	0	
9	0	0	0	0	576	498	1021	0	0	0	
10	0	0	0	0	576	498	1021	0	0	0	
11	0	0	0	0	575	498	1021	0	0	0	
12	0	0	0	0	573	498	1021	0	0	0	
13	0	0	0	0	572	499	1021	0	0	0	
14	0	0	0	0	569	499	1021	0	0	0	
15	0	0	0	0	565	499	1021	0	0	0	
0	0	0	0	0	561	498	1021	0	0	0	
1	0	0	0	0	555	496	1021	0	0	0	
2	0	0	0	0	547	494	1021	0	0	0	
3	0	0	0	0	541	491	1021	0	0	0	
4	0	0	0	0	534	487	1021	0	0	0	
5	0	0	0	0	529	484	1021	0	0	0	
6	0	0	0	0	526	482	1021	0	0	0	
7	0	0	0	0	526	481	1021	0	0	0	
8	0	0	0	0	529	482	1021	0	0	0	
9	0	0	0	0	536	484	1021	0	0	0	
10	0	0	0	0	545	487	1021	0	0	0	
11	0	0	0	0	557	490	1021	0	0	0	
12	0	0	0	0	569	495	1021	0	0	0	
13	0	0	0	0	581	499	1021	0	0	0	
14	0	0	0	0	592	504	1021	0	0	0	
15	0	0	0	0	601	508	1021	0	0	0	
0	0	0	0	0	607	511	1020	0	0	0	
1	0	0	0	0	610	512	1021	0	0	0	
2	0	0	0	0	608	510	1021	0	0	0	
3	0	0	0	0	601	507	1021	0	0	0	
4	0	0	0	0	592	500	1021	0	0	0	
5	0	0	0	0	579	494	1021	0	0	0	
6	0	0	0	0	566	486	1021	0	0	0	
7	0	0	0	0	551	479	1021	0	0	0	
8	0	0	0	0	539	472	1021	0	0	0	
9	0	0	0	0	527	466	1021	0	0	0	
10	0	0	0	0	517	461	1021	0	0	0	
11	0	0	0	0	510	458	1021	0	0	0	
12	0	0	0	0	506	456	1021	0	0	0	
13	0	0	0	0	504	456	1021	0	0	0	
14	0	0	0	0	505	457	1021	0	0	0	
15	0	0	0	0	509	460	1021	0	0	0	
0	0	0	0	0	515	464	1021	0	0	0	
1	0	0	0	0	521	468	1021	0	0	0	
2	0	0	0	0	527	472	1021	0	0	0	
3	0	0	0	0	534	476	1021	0	0	0	
4	0	0	0	0	539	479	1020	0	0	0	
5	0	0	0	0	544	481	1021	0	0	0	
6	0	0	0	0	547	482	1021	0	0	0	
7	0	0	0	0	548	481	1021	0	0	0	
8	0	0	0	0	546	478	1021	0	0	0	
9	0	0	0	0	541	472	1021	0	0	0	
10	0	0	0	0	533	463	1021	0	0	0	
11	0	0	0	0	520	450	1021	0	0	0	
12	0	0	0	0	504	434	1021	0	0	0	
13	0	0	0	0	485	415	1021	0	0	0	
14	0	0	0	0	463	394	1021	0	0	0	
15	0	0	0	0	440	371	1021	0	0	0	
0	0	0	0	0	414	348	1021	0	0	0	
1	0	0	0	0	390	325	1021	0	0	0	
2	0	0	0	0	365	304	1021	0	0	0	
3	0	0	0	0	342	284	1021	0	0	0	
4	0	0	0	0	323	268	1021	0	0	0	
5	0	0	0	0	308	256	1021	0	0	0	
6	0	0	0	0	299	249	1021	0	0	0	
7	0	0	0	0	296	247	1021	0	0	0	
8	0	0	0	0	300	248	1021	0	0	0	
9	0	0	0	0	310	255	1021	0	0	0	
10	0	0	0	0	324	266	1021	0	0	0	
11	0	0	0	0	342	279	1021	0	0	0	
12	0	0	0	0	361	294	1021	0	0	0	
13	0	0	0	0	383	310	1021	0	0	0	
14	0	0	0	0	405	328	1021	0	0	0	
15	0	0	0	0	427	347	1021	0	0	0	
0	0	0	0	0	448	367	1021	0	0	0	
1	0	0	0	0	468	386	1021	0	0	0	
2	0	0	0	0	488	407	1020	0	0	0	
3	0	0	0	0	508	428	1021	0	0	0	
4	0	0	0	0	526	448	1021	0	0	0	
5	0	0	0	0	545	468	1021	0	0	0	
6	0	0	0	0	563	487	1020	0	0	0	
7	0	0	0	0	581	505	1021	0	0	0	
8	0	0	0	0	596	521	1021	0	0	0	
9	0	0	0	0	610	535	1021	0	0	0	
10	0	0	0	0	622	546	1021	0	0	0	
11	0	0	0	0	630	554	1021	0	0	0	
12	0	0	0	0	634	559	1021	0	0	0	
