# OpenSignals Text File Format. Version 1
# {"": {"position": 0, "device": "", "device name": "", "device connection": "", "sampling rate": 1000, "resolution": [4, 1, 1, 1, 1, 10, 10, 10, 10, 6, 6], "firmware version": 1281, "comments": "", "keywords": "", "mode": 0, "sync interval": 2, "date": "", "time": "", "channels": [1, 2, 3, 4, 5, 6], "sensor": ["RAW", "RAW", "RAW", "RAW", "RAW", "RAW"], "label": ["A1", "A2", "A3", "A4", "A5", "A6"], "column": ["nSeq", "I1", "I2", "O1", "O2", "A1", "A2", "A3", "A4", "A5", "A6"], "special": [{}, {}, {}, {}, {}, {}], "digital IO": [0, 0, 1, 1]}}
# EndOfHeader
0	0	0	0	0	565	522	1021	0	0	0	
1	0	0	0	0	555	514	1021	0	0	0	
2	0	0	0	0	542	504	1021	0	0	0	
3	0	0	0	0	528	494	1021	0	0	0	
4	0	0	0	0	515	484	1021	0	0	0	
5	0	0	0	0	504	474	1021	0	0	0	
6	0	0	0	0	497	469	1021	0	0	0	
7	0	0	0	0	494	466	1021	0	0	0	
8	0	0	0	0	496	467	1021	0	0	0	
9	0	0	0	0	503	472	1021	0	0	0	
10	0	0	0	0	514	480	1021	0	0	0	
11	0	0	0	0	530	492	1021	0	0	0	
12	0	0	0	0	548	505	1021	0	0	0	
13	0	0	0	0	567	519	1021	0	0	0	
14	0	0	0	0	585	532	1021	0	0	0	
15	0	0	0	0	599	542	1021	0	0	0	
0	0	0	0	0	610	550	1021	0	0	0	
1	0	0	0	0	615	552	1021	0	0	0	
2	0	0	0	0	615	551	1021	0	0	0	
3	0	0	0	0	609	547	1021	0	0	0	
4	0	0	0	0	599	538	1021	0	0	0	
5	0	0	0	0	587	529	1021	0	0	0	
6	0	0	0	0	572	519	1021	0	0	0	
7	0	0	0	0	557	509	1021	0	0	0	
8	0	0	0	0	544	501	1021	0	0	0	
9	0	0	0	0	533	494	1021	0	0	0	
10	0	0	0	0	526	491	1021	0	0	0	
11	0	0	0	0	523	490	1021	0	0	0	
12	0	0	0	0	524	493	1021	0	0	0	
13	0	0	0	0	530	499	1021	0	0	0	
14	0	0	0	0	538	507	1021	0	0	0	
15	0	0	0	0	550	517	1021	0	0	0	
0	0	0	0	0	560	526	1021	0	0	0	
1	0	0	0	0	571	535	1021	0	0	0	
2	0	0	0	0	581	542	1021	0	0	0	
3	0	0	0	0	588	547	1021	0	0	0	
4	0	0	0	0	591	550	1021	0	0	0	
5	0	0	0	0	591	547	1021	0	0	0	
6	0	0	0	0	588	543	1021	0	0	0	
7	0	0	0	0	580	536	1021	0	0	0	
8	0	0	0	0	571	526	1021	0	0	0	
9	0	0	0	0	560	516	1021	0	0	0	
10	0	0	0	0	547	505	1021	0	0	0	
11	0	0	0	0	536	495	1021	0	0	0	
12	0	0	0	0	527	487	1021	0	0	0	
13	0	0	0	0	520	483	1021	0	0	0	
14	0	0	0	0	519	483	1021	0	0	0	
15	0	0	0	0	523	488	1021	0	0	0	
0	0	0	0	0	534	498	1021	0	0	0	
1	0	0	0	0	547	511	1021	0	0	0	
2	0	0	0	0	563	526	1021	0	0	0	
3	0	0	0	0	581	542	1021	0	0	0	
4	0	0	0	0	594	553	1021	0	0	0	
5	0	0	0	0	603	561	1021	0	0	0	
6	0	0	0	0	607	563	1021	0	0	0	
7	0	0	0	0	603	558	1021	0	0	0	
8	0	0	0	0	593	548	1021	0	0	0	
9	0	0	0	0	576	533	1021	0	0	0	
10	0	0	0	0	556	515	1021	0	0	0	
11	0	0	0	0	535	496	1021	0	0	0	
12	0	0	0	0	513	476	1021	0	0	0	
13	0	0	0	0	494	460	1021	0	0	0	
14	0	0	0	0	478	446	1021	0	0	0	
15	0	0	0	0	467	437	1021	0	0	0	
0	0	0	0	0	463	432	1021	0	0	0	
1	0	0	0	0	464	433	1021	0	0	0	
2	0	0	0	0	471	438	1021	0	0	0	
3	0	0	0	0	482	447	1020	0	0	0	
4	0	0	0	0	498	459	1021	0	0	0	
5	0	0	0	0	515	472	1021	0	0	0	
6	0	0	0	0	535	488	1021	0	0	0	
7	0	0	0	0	553	503	1021	0	0	0	
8	0	0	0	0	569	516	1021	0	0	0	
9	0	0	0	0	582	527	1021	0	0	0	
10	0	0	0	0	590	534	1021	0	0	0	
11	0	0	0	0	593	538	1021	0	0	0	
12	0	0	0	0	592	538	1021	0	0	0	
13	0	0	0	0	586	534	1021	0	0	0	
14	0	0	0	0	576	527	1021	0	0	0	
15	0	0	0	0	565	520	1021	0	0	0	
0	0	0	0	0	552	510	1021	0	0	0	
1	0	0	0	0	541	503	1021	0	0	0	
2	0	0	0	0	533	498	1021	0	0	0	
3	0	0	0	0	529	495	1021	0	0	0	
4	0	0	0	0	528	495	1021	0	0	0	
5	0	0	0	0	532	498	1021	0	0	0	
6	0	0	0	0	540	504	1021	0	0	0	
7	0	0	0	0	549	510	1021	0	0	0	
8	0	0	0	0	560	517	1021	0	0	0	
9	0	0	0	0	569	523	1021	0	0	0	
10	0	0	0	0	577	527	1021	0	0	0	
11	0	0	0	0	582	530	1021	0	0	0	
12	0	0	0	0	583	531	1021	0	0	0	
13	0	0	0	0	582	531	1021	0	0	0	
14	0	0	0	0	579	529	1021	0	0	0	
15	0	0	0	0	576	528	1021	0	0	0	
0	0	0	0	0	572	527	1021	0	0	0	
1	0	0	0	0	569	527	1021	0	0	0	
2	0	0	0	0	566	527	1021	0	0	0	
3	0	0	0	0	564	527	1021	0	0	0	
4	0	0	0	0	562	527	1021	0	0	0	
5	0	0	0	0	561	526	1021	0	0	0	
6	0	0	0	0	559	523	1021	0	0	0	
7	0	0	0	0	555	518	1021	0	0	0	
8	0	0	0	0	550	512	1021	0	0	0	
9	0	0	0	0	543	505	1021	0	0	0	
10	0	0	0	0	537	498	1021	0	0	0	
11	0	0	0	0	530	491	1021	0	0	0	
12	0	0	0	0	523	483	1021	0	0	0	
13	0	0	0	0	516	478	1021	0	0	0	
14	0	0	0	0	512	474	1021	0	0	0	
15	0	0	0	0	509	473	1021	0	0	0	
0	0	0	0	0	508	473	1021	0	0	0	
1	0	0	0	0	509	475	1021	0	0	0	
2	0	0	0	0	511	477	1021	0	0	0	
3	0	0	0	0	515	480	1021	0	0	0	
4	0	0	0	0	519	484	1021	0	0	0	
5	0	0	0	0	522	487	1021	0	0	0	
6	0	0	0	0	525	488	1021	0	0	0	
7	0	0	0	0	528	489	1021	0	0	0	
8	0	0	0	0	530	489	1021	0	0	0	
9	0	0	0	0	532	490	1021	0	0	0	
10	0	0	0	0	533	489	1021	0	0	0	
11	0	0	0	0	534	489	1021	0	0	0	
12	0	0	0	0	536	489	1021	0	0	0	
13	0	0	0	0	538	490	1021	0	0	0	
14	0	0	0	0	541	493	1021	0	0	0	
15	0	0	0	0	544	496	1021	0	0	0	
0	0	0	0	0	548	500	1021	0	0	0	
1	0	0	0	0	553	505	1021	0	0	0	
2	0	0	0	0	558	510	1021	0	0	0	
3	0	0	0	0	563	516	1021	0	0	0	
4	0	0	0	0	567	521	1021	0	0	0	
5	0	0	0	0	571	526	1021	0	0	0	
6	0	0	0	0	574	529	1021	0	0	0	
7	0	0	0	0	576	532	1021	0	0	0	
8	0	0	0	0	578	534	1021	0	0	0	
9	0	0	0	0	577	533	1020	0	0	0	
10	0	0	0	0	577	532	1021	0	0	0	
11	0	0	0	0	578	532	1021	0	0	0	
12	0	0	0	0	580	533	1021	0	0	0	
13	0	0	0	0	583	534	1021	0	0	0	
14	0	0	0	0	585	535	1021	0	0	0	
15	0	0	0	0	587	536	1021	0	0	0	
0	0	0	0	0	588	536	1021	0	0	0	
1	0	0	0	0	587	534	1021	0	0	0	
2	0	0	0	0	585	532	1021	0	0	0	
3	0	0	0	0	579	528	1021	0	0	0	
4	0	0	0	0	573	523	1021	0	0	0	
5	0	0	0	0	565	518	1021	0	0	0	
6	0	0	0	0	555	511	1021	0	0	0	
7	0	0	0	0	545	504	1021	0	0	0	
8	0	0	0	0	536	498	1021	0	0	0	
9	0	0	0	0	527	492	1021	0	0	0	
10	0	0	0	0	519	487	1021	0	0	0	
11	0	0	0	0	514	483	1021	0	0	0	
12	0	0	0	0	511	480	1021	0	0	0	
13	0	0	0	0	508	477	1021	0	0	0	
14	0	0	0	0	508	475	1021	0	0	0	
15	0	0	0	0	510	475	1021	0	0	0	
0	0	0	0	0	513	476	1021	0	0	0	
1	0	0	0	0	518	478	1021	0	0	0	
2	0	0	0	0	524	482	1021	0	0	0	
3	0	0	0	0	532	487	1021	0	0	0	
4	0	0	0	0	541	493	1021	0	0	0	
5	0	0	0	0	548	498	1021	0	0	0	
6	0	0	0	0	556	504	1021	0	0	0	
7	0	0	0	0	563	511	1021	0	0	0	
8	0	0	0	0	569	516	1021	0	0	0	
9	0	0	0	0	575	523	1021	0	0	0	
10	0	0	0	0	578	527	1021	0	0	0	
11	0	0	0	0	581	532	1021	0	0	0	
12	0	0	0	0	584	536	1021	0	0	0	
13	0	0	0	0	588	540	1021	0	0	0	
14	0	0	0	0	591	544	1021	0	0	0	
15	0	0	0	0	593	547	1021	0	0	0	
0	0	0	0	0	595	549	1021	0	0	0	
1	0	0	0	0	593	547	1021	0	0	0	
2	0	0	0	0	588	542	1021	0	0	0	
3	0	0	0	0	580	534	1021	0	0	0	
4	0	0	0	0	568	523	1021	0	0	0	
5	0	0	0	0	555	512	1021	0	0	0	
6	0	0	0	0	539	498	1021	0	0	0	
7	0	0	0	0	523	485	1021	0	0	0	
8	0	0	0	0	509	473	1021	0	0	0	
9	0	0	0	0	496	463	1021	0	0	0	
10	0	0	0	0	488	457	1021	0	0	0	
11	0	0	0	0	483	454	1021	0	0	0	
12	0	0	0	0	484	455	1021	0	0	0	
13	0	0	0	0	488	459	1021	0	0	0	
14	0	0	0	0	497	466	1021	0	0	0	
15	0	0	0	0	509	475	1021	0	0	0	
0	0	0	0	0	522	485	1021	0	0	0	
1	0	0	0	0	536	496	1021	0	0	0	
2	0	0	0	0	549	506	1021	0	0	0	
3	0	0	0	0	561	514	1021	0	0	0	
4	0	0	0	0	571	522	1021	0	0	0	
5	0	0	0	0	577	527	1021	0	0	0	
6	0	0	0	0	580	529	1021	0	0	0	
7	0	0	0	0	581	530	1021	0	0	0	
8	0	0	0	0	579	529	1021	0	0	0	
9	0	0	0	0	575	527	1021	0	0	0	
10	0	0	0	0	568	522	1021	0	0	0	
11	0	0	0	0	559	517	1021	0	0	0	
12	0	0	0	0	550	511	1021	0	0	0	
13	0	0	0	0	540	504	1021	0	0	0	
14	0	0	0	0	530	497	1021	0	0	0	
15	0	0	0	0	523	493	1021	0	0	0	
0	0	0	0	0	518	490	1021	0	0	0	
1	0	0	0	0	516	489	1021	0	0	0	
2	0	0	0	0	518	491	1021	0	0	0	
3	0	0	0	0	523	496	1021	0	0	0	
4	0	0	0	0	530	500	1021	0	0	0	
5	0	0	0	0	539	507	1021	0	0	0	
6	0	0	0	0	551	515	1021	0	0	0	
7	0	0	0	0	562	523	1021	0	0	0	
8	0	0	0	0	575	531	1021	0	0	0	
9	0	0	0	0	585	538	1021	0	0	0	
10	0	0	0	0	593	543	1021	0	0	0	
11	0	0	0	0	601	547	1021	0	0	0	
12	0	0	0	0	605	549	1021	0	0	0	
13	0	0	0	0	608	550	1021	0	0	0	
14	0	0	0	0	609	550	1021	0	0	0	
15	0	0	0	0	609	550	1021	0	0	0	
0	0	0	0	0	608	550	1021	0	0	0	
1	0	0	0	0	607	549	1021	0	0	0	
2	0	0	0	0	603	547	1021	0	0	0	
3	0	0	0	0	596	544	1020	0	0	0	
4	0	0	0	0	588	540	1021	0	0	0	
5	0	0	0	0	576	534	1021	0	0	0	
6	0	0	0	0	563	526	1021	0	0	0	
7	0	0	0	0	549	517	1021	0	0	0	
8	0	0	0	0	534	507	1021	0	0	0	
9	0	0	0	0	520	497	1021	0	0	0	
10	0	0	0	0	509	489	1021	0	0	0	
11	0	0	0	0	500	481	1021	0	0	0	
12	0	0	0	0	495	477	1021	0	0	0	
13	0	0	0	0	493	474	1021	0	0	0	
14	0	0	0	0	495	473	1021	0	0	0	
15	0	0	0	0	501	475	1021	0	0	0	
0	0	0	0	0	509	478	1021	0	0	0	
1	0	0	0	0	519	483	1021	0	0	0	
2	0	0	0	0	531	489	1021	0	0	0	
3	0	0	0	0	543	496	1021	0	0	0	
4	0	0	0	0	556	505	1021	0	0	0	
5	0	0	0	0	566	511	1021	0	0	0	
6	0	0	0	0	576	519	1021	0	0	0	
7	0	0	0	0	583	525	1021	0	0	0	
8	0	0	0	0	588	531	1021	0	0	0	
9	0	0	0	0	592	536	1021	0	0	0	
10	0	0	0	0	593	539	1021	0	0	0	
11	0	0	0	0	594	542	1021	0	0	0	
12	0	0	0	0	592	544	1021	0	0	0	
13	0	0	0	0	591	547	1021	0	0	0	
14	0	0	0	0	590	548	1021	0	0	0	
15	0	0	0	0	588	548	1021	0	0	0	
0	0	0	0	0	587	550	1021	0	0	0	
1	0	0	0	0	584	548	1021	0	0	0	
2	0	0	0	0	581	545	1021	0	0	0	
3	0	0	0	0	577	541	1021	0	0	0	
4	0	0	0	0	572	535	1021	0	0	0	
5	0	0	0	0	567	529	1021	0	0	0	
6	0	0	0	0	561	522	1021	0	0	0	
7	0	0	0	0	554	515	1021	0	0	0	
8	0	0	0	0	548	508	1021	0	0	0	
9	0	0	0	0	542	501	1021	0	0	0	
10	0	0	0	0	537	497	1021	0	0	0	
11	0	0	0	0	532	494	1021	0	0	0	
12	0	0	0	0	529	492	1021	0	0	0	
13	0	0	0	0	529	492	1021	0	0	0	
14	0	0	0	0	529	493	1021	0	0	0	
15	0	0	0	0	531	496	1021	0	0	0	
0	0	0	0	0	532	497	1021	0	0	0	
1	0	0	0	0	535	499	1021	0	0	0	
2	0	0	0	0	537	502	1021	0	0	0	
3	0	0	0	0	539	502	1021	0	0	0	
4	0	0	0	0	539	502	1021	0	0	0	
5	0	0	0	0	538	501	1021	0	0	0	
6	0	0	0	0	536	498	1021	0	0	0	
7	0	0	0	0	533	494	1021	0	0	0	
8	0	0	0	0	528	489	1021	0	0	0	
9	0	0	0	0	523	484	1021	0	0	0	
10	0	0	0	0	518	479	1021	0	0	0	
11	0	0	0	0	513	475	1021	0	0	0	
12	0	0	0	0	510	472	1021	0	0	0	
13	0	0	0	0	508	470	1021	0	0	0	
14	0	0	0	0	510	472	1021	0	0	0	
15	0	0	0	0	513	475	1021	0	0	0	
0	0	0	0	0	519	480	1021	0	0	0	
1	0	0	0	0	528	488	1021	0	0	0	
2	0	0	0	0	539	497	1021	0	0	0	
3	0	0	0	0	551	507	1021	0	0	0	
4	0	0	0	0	561	516	1021	0	0	0	
5	0	0	0	0	571	524	1021	0	0	0	
6	0	0	0	0	579	531	1021	0	0	0	
7	0	0	0	0	583	535	1021	0	0	0	
8	0	0	0	0	585	537	1021	0	0	0	
9	0	0	0	0	583	536	1021	0	0	0	
10	0	0	0	0	580	534	1021	0	0	0	
11	0	0	0	0	577	531	1021	0	0	0	
12	0	0	0	0	572	527	1021	0	0	0	
13	0	0	0	0	566	523	1021	0	0	0	
14	0	0	0	0	561	519	1021	0	0	0	
15	0	0	0	0	556	515	1021	0	0	0	
0	0	0	0	0	552	512	1021	0	0	0	
1	0	0	0	0	550	511	1021	0	0	0	
2	0	0	0	0	548	510	1021	0	0	0	
3	0	0	0	0	549	511	1021	0	0	0	
4	0	0	0	0	551	514	1021	0	0	0	
5	0	0	0	0	555	518	1020	0	0	0	
6	0	0	0	0	560	523	1021	0	0	0	
7	0	0	0	0	566	527	1021	0	0	0	
8	0	0	0	0	571	532	1021	0	0	0	
9	0	0	0	0	574	536	1021	0	0	0	
10	0	0	0	0	576	537	1020	0	0	0	
11	0	0	0	0	576	537	1021	0	0	0	
12	0	0	0	0	574	536	1021	0	0	0	
13	0	0	0	0	569	532	1021	0	0	0	
14	0	0	0	0	563	527	1021	0	0	0	
15	0	0	0	0	555	520	1020	0	0	0	
0	0	0	0	0	547	514	1021	0	0	0	
1	0	0	0	0	539	507	1021	0	0	0	
2	0	0	0	0	532	500	1021	0	0	0	
3	0	0	0	0	526	494	1021	0	0	0	
4	0	0	0	0	520	488	1021	0	0	0	
5	0	0	0	0	515	482	1021	0	0	0	
6	0	0	0	0	513	479	1021	0	0	0	
7	0	0	0	0	511	476	1021	0	0	0	
8	0	0	0	0	512	475	1021	0	0	0	
9	0	0	0	0	513	476	1021	0	0	0	
10	0	0	0	0	518	478	1021	0	0	0	
11	0	0	0	0	523	482	1021	0	0	0	
12	0	0	0	0	529	487	1021	0	0	0	
13	0	0	0	0	536	493	1021	0	0	0	
14	0	0	0	0	544	500	1021	0	0	0	
15	0	0	0	0	554	508	1021	0	0	0	
0	0	0	0	0	563	517	1021	0	0	0	
1	0	0	0	0	572	524	1021	0	0	0	
2	0	0	0	0	581	532	1021	0	0	0	
3	0	0	0	0	590	540	1021	0	0	0	
4	0	0	0	0	599	547	1021	0	0	0	
5	0	0	0	0	607	553	1021	0	0	0	
6	0	0	0	0	611	557	1021	0	0	0	
7	0	0	0	0	614	559	1021	0	0	0	
8	0	0	0	0	614	559	1021	0	0	0	
9	0	0	0	0	611	557	1021	0	0	0	
10	0	0	0	0	607	554	1021	0	0	0	
11	0	0	0	0	601	550	1021	0	0	0	
12	0	0	0	0	594	547	1021	0	0	0	
13	0	0	0	0	588	545	1021	0	0	0	
14	0	0	0	0	584	544	1021	0	0	0	
15	0	0	0	0	582	545	1021	0	0	0	
0	0	0	0	0	580	547	1021	0	0	0	
1	0	0	0	0	580	549	1021	0	0	0	
2	0	0	0	0	580	550	1020	0	0	0	
3	0	0	0	0	578	548	1021	0	0	0	
4	0	0	0	0	573	542	1021	0	0	0	
5	0	0	0	0	563	532	1020	0	0	0	
6	0	0	0	0	550	518	1021	0	0	0	
7	0	0	0	0	533	501	1021	0	0	0	
8	0	0	0	0	515	482	1021	0	0	0	
9	0	0	0	0	496	463	1021	0	0	0	
10	0	0	0	0	476	445	1021	0	0	0	
11	0	0	0	0	460	430	1021	0	0	0	
12	0	0	0	0	447	417	1021	0	0	0	
13	0	0	0	0	439	410	1021	0	0	0	
14	0	0	0	0	436	408	1021	0	0	0	
15	0	0	0	0	440	411	1021	0	0	0	
0	0	0	0	0	449	419	1021	0	0	0	
1	0	0	0	0	464	432	1021	0	0	0	
2	0	0	0	0	483	448	1021	0	0	0	
3	0	0	0	0	506	467	1021	0	0	0	
4	0	0	0	0	529	487	1021	0	0	0	
5	0	0	0	0	553	507	1021	0	0	0	
6	0	0	0	0	575	525	1021	0	0	0	
7	0	0	0	0	593	540	1021	0	0	0	
8	0	0	0	0	607	551	1021	0	0	0	
9	0	0	0	0	614	557	1021	0	0	0	
10	0	0	0	0	615	558	1021	0	0	0	
11	0	0	0	0	611	555	1021	0	0	0	
12	0	0	0	0	603	548	1021	0	0	0	
13	0	0	0	0	592	540	1021	0	0	0	
14	0	0	0	0	578	529	1021	0	0	0	
15	0	0	0	0	563	518	1021	0	0	0	
0	0	0	0	0	551	509	1021	0	0	0	
1	0	0	0	0	539	500	1021	0	0	0	
2	0	0	0	0	531	495	1021	0	0	0	
3	0	0	0	0	526	493	1021	0	0	0	
4	0	0	0	0	525	493	1021	0	0	0	
5	0	0	0	0	527	497	1021	0	0	0	
6	0	0	0	0	532	502	1021	0	0	0	
7	0	0	0	0	540	509	1021	0	0	0	
8	0	0	0	0	548	515	1021	0	0	0	
9	0	0	0	0	556	521	1021	0	0	0	
10	0	0	0	0	563	526	1021	0	0	0	
11	0	0	0	0	568	528	1021	0	0	0	
12	0	0	0	0	571	529	1021	0	0	0	
13	0	0	0	0	571	527	1021	0	0	0	
14	0	0	0	0	567	522	1021	0	0	0	
15	0	0	0	0	562	516	1021	0	0	0	
0	0	0	0	0	556	510	1021	0	0	0	
1	0	0	0	0	550	503	1021	0	0	0	
2	0	0	0	0	545	498	1021	0	0	0	
3	0	0	0	0	542	495	1021	0	0	0	
4	0	0	0	0	540	494	1021	0	0	0	
5	0	0	0	0	542	496	1021	0	0	0	
6	0	0	0	0	547	502	1021	0	0	0	
7	0	0	0	0	555	510	1021	0	0	0	
8	0	0	0	0	565	520	1021	0	0	0	
9	0	0	0	0	579	532	1021	0	0	0	
10	0	0	0	0	592	545	1021	0	0	0	
11	0	0	0	0	605	556	1021	0	0	0	
12	0	0	0	0	615	566	1021	0	0	0	
13	0	0	0	0	622	572	1021	0	0	0	
14	0	0	0	0	624	573	1021	0	0	0	
15	0	0	0	0	620	569	1021	0	0	0	
0	0	0	0	0	611	562	1021	0	0	0	
1	0	0	0	0	599	551	1021	0	0	0	
2	0	0	0	0	582	537	1021	0	0	0	
3	0	0	0	0	565	522	1021	0	0	0	
4	0	0	0	0	548	508	1021	0	0	0	
5	0	0	0	0	533	496	1021	0	0	0	
6	0	0	0	0	520	484	1021	0	0	0	
7	0	0	0	0	510	476	1021	0	0	0	
8	0	0	0	0	504	470	1021	0	0	0	
9	0	0	0	0	500	466	1021	0	0	0	
10	0	0	0	0	500	465	1021	0	0	0	
11	0	0	0	0	501	465	1021	0	0	0	
12	0	0	0	0	504	467	1021	0	0	0	
13	0	0	0	0	508	471	1021	0	0	0	
14	0	0	0	0	515	475	1021	0	0	0	
15	0	0	0	0	521	480	1021	0	0	0	
0	0	0	0	0	528	486	1021	0	0	0	
1	0	0	0	0	536	492	1021	0	0	0	
2	0	0	0	0	543	498	1021	0	0	0	
3	0	0	0	0	549	503	1021	0	0	0	
4	0	0	0	0	556	509	1021	0	0	0	
5	0	0	0	0	563	514	1021	0	0	0	
6	0	0	0	0	567	517	1021	0	0	0	
7	0	0	0	0	571	520	1021	0	0	0	
8	0	0	0	0	573	521	1021	0	0	0	
9	0	0	0	0	574	522	1021	0	0	0	
10	0	0	0	0	572	519	1021	0	0	0	
11	0	0	0	0	568	517	1021	0	0	0	
12	0	0	0	0	563	514	1021	0	0	0	
13	0	0	0	0	559	511	1021	0	0	0	
14	0	0	0	0	555	508	1021	0	0	0	
15	0	0	0	0	551	507	1020	0	0	0	
0	0	0	0	0	551	507	1021	0	0	0	
1	0	0	0	0	551	508	1021	0	0	0	
2	0	0	0	0	552	510	1021	0	0	0	
3	0	0	0	0	555	514	1021	0	0	0	
4	0	0	0	0	559	518	1021	0	0	0	
5	0	0	0	0	562	522	1021	0	0	0	
6	0	0	0	0	565	525	1021	0	0	0	
7	0	0	0	0	567	527	1021	0	0	0	
8	0	0	0	0	566	526	1021	0	0	0	
9	0	0	0	0	563	524	1021	0	0	0	
10	0	0	0	0	559	519	1021	0	0	0	
11	0	0	0	0	551	511	1021	0	0	0	
12	0	0	0	0	542	503	1021	0	0	0	
13	0	0	0	0	533	494	1021	0	0	0	
14	0	0	0	0	523	484	1021	0	0	0	
15	0	0	0	0	514	475	1021	0	0	0	
0	0	0	0	0	508	469	1021	0	0	0	
1	0	0	0	0	503	464	1021	0	0	0	
2	0	0	0	0	502	463	1021	0	0	0	
3	0	0	0	0	504	465	1021	0	0	0	
4	0	0	0	0	510	470	1021	0	0	0	
5	0	0	0	0	518	476	1021	0	0	0	
6	0	0	0	0	527	484	1021	0	0	0	
7	0	0	0	0	539	494	1021	0	0	0	
8	0	0	0	0	550	503	1021	0	0	0	
9	0	0	0	0	561	511	1021	0	0	0	
10	0	0	0	0	571	519	1021	0	0	0	
11	0	0	0	0	579	526	1021	0	0	0	
12	0	0	0	0	585	531	1021	0	0	0	
13	0	0	0	0	587	532	1021	0	0	0	
14	0	0	0	0	585	531	1021	0	0	0	
15	0	0	0	0	580	527	1021	0	0	0	
0	0	0	0	0	574	522	1021	0	0	0	
1	0	0	0	0	567	518	1021	0	0	0	
2	0	0	0	0	559	512	1021	0	0	0	
3	0	0	0	0	553	508	1021	0	0	0	
4	0	0	0	0	549	505	1021	0	0	0	
5	0	0	0	0	548	505	1021	0	0	0	
6	0	0	0	0	552	510	1021	0	0	0	
7	0	0	0	0	560	517	1021	0	0	0	
8	0	0	0	0	573	527	1021	0	0	0	
9	0	0	0	0	589	541	1021	0	0	0	
10	0	0	0	0	608	556	1021	0	0	0	
11	0	0	0	0	628	573	1021	0	0	0	
12	0	0	0	0	646	587	1021	0	0	0	
13	0	0	0	0	660	598	1021	0	0	0	
14	0	0	0	0	666	602	1021	0	0	0	
15	0	0	0	0	665	600	1021	0	0	0	
0	0	0	0	0	655	591	1021	0	0	0	
1	0	0	0	0	637	576	1021	0	0	0	
2	0	0	0	0	611	556	1021	0	0	0	
3	0	0	0	0	582	533	1021	0	0	0	
4	0	0	0	0	549	508	1021	0	0	0	
5	0	0	0	0	518	485	1021	0	0	0	
6	0	0	0	0	491	463	1021	0	0	0	
7	0	0	0	0	468	446	1021	0	0	0	
8	0	0	0	0	453	434	1021	0	0	0	
9	0	0	0	0	445	428	1021	0	0	0	
10	0	0	0	0	444	427	1021	0	0	0	
11	0	0	0	0	450	429	1021	0	0	0	
12	0	0	0	0	460	434	1021	0	0	0	
13	0	0	0	0	471	440	1021	0	0	0	
14	0	0	0	0	483	446	1021	0	0	0	
15	0	0	0	0	492	449	1021	0	0	0	
0	0	0	0	0	497	449	1021	0	0	0	
1	0	0	0	0	496	444	1021	0	0	0	
2	0	0	0	0	489	435	1021	0	0	0	
3	0	0	0	0	475	421	1021	0	0	0	
4	0	0	0	0	455	403	1021	0	0	0	
5	0	0	0	0	430	380	1021	0	0	0	
6	0	0	0	0	400	355	1021	0	0	0	
7	0	0	0	0	369	329	1021	0	0	0	
8	0	0	0	0	338	303	1021	0	0	0	
9	0	0	0	0	309	280	1021	0	0	0	
10	0	0	0	0	284	259	1021	0	0	0	
11	0	0	0	0	264	242	1021	0	0	0	
12	0	0	0	0	252	231	1021	0	0	0	
13	0	0	0	0	247	226	1021	0	0	0	
14	0	0	0	0	251	228	1021	0	0	0	
15	0	0	0	0	263	237	1021	0	0	0	
0	0	0	0	0	284	253	1021	0	0	0	
1	0	0	0	0	313	276	1020	0	0	0	
2	0	0	0	0	350	304	1021	0	0	0	
3	0	0	0	0	392	338	1021	0	0	0	
4	0	0	0	0	438	375	1021	0	0	0	
5	0	0	0	0	486	415	1021	0	0	0	
6	0	0	0	0	532	453	1021	0	0	0	
7	0	0	0	0	574	488	1021	0	0	0	
8	0	0	0	0	610	520	1021	0	0	0	
9	0	0	0	0	636	543	1020	0	0	0	
10	0	0	0	0	655	561	1021	0	0	0	
11	0	0	0	0	662	571	1021	0	0	0	
12	0	0	0	0	660	573	1021	0	0	0	
13	0	0	0	0	649	569	1021	0	0	0	
14	0	0	0	0	630	558	1021	0	0	0	
15	0	0	0	0	604	542	1021	0	0	0	
0	0	0	0	0	576	524	1021	0	0	0	
1	0	0	0	0	547	506	1021	0	0	0	
2	0	0	0	0	519	489	1021	0	0	0	
3	0	0	0	0	497	474	1021	0	0	0	
4	0	0	0	0	480	464	1021	0	0	0	
5	0	0	0	0	471	459	1021	0	0	0	
6	0	0	0	0	469	458	1021	0	0	0	
7	0	0	0	0	475	462	1021	0	0	0	
8	0	0	0	0	487	471	1021	0	0	0	
9	0	0	0	0	504	482	1021	0	0	0	
10	0	0	0	0	524	495	1021	0	0	0	
11	0	0	0	0	545	508	1021	0	0	0	
12	0	0	0	0	564	519	1021	0	0	0	
13	0	0	0	0	579	527	1021	0	0	0	
14	0	0	0	0	591	532	1021	0	0	0	
15	0	0	0	0	598	534	1021	0	0	0	
0	0	0	0	0	600	533	1021	0	0	0	
1	0	0	0	0	599	530	1021	0	0	0	
2	0	0	0	0	594	526	1021	0	0	0	
3	0	0	0	0	588	520	1021	0	0	0	
4	0	0	0	0	581	516	1021	0	0	0	
5	0	0	0	0	575	514	1021	0	0	0	
6	0	0	0	0	573	515	1021	0	0	0	
7	0	0	0	0	572	518	1021	0	0	0	
8	0	0	0	0	576	524	1021	0	0	0	
9	0	0	0	0	584	534	1021	0	0	0	
10	0	0	0	0	595	546	1021	0	0	0	
11	0	0	0	0	609	560	1021	0	0	0	
12	0	0	0	0	625	575	1021	0	0	0	
13	0	0	0	0	641	589	1021	0	0	0	
14	0	0	0	0	655	601	1021	0	0	0	
15	0	0	0	0	667	611	1021	0	0	0	
0	0	0	0	0	677	620	1021	0	0	0	
1	0	0	0	0	681	622	1021	0	0	0	
2	0	0	0	0	679	620	1021	0	0	0	
3	0	0	0	0	673	614	1021	0	0	0	
4	0	0	0	0	661	603	1021	0	0	0	
5	0	0	0	0	643	588	1021	0	0	0	
6	0	0	0	0	619	568	1021	0	0	0	
7	0	0	0	0	591	546	1021	0	0	0	
8	0	0	0	0	563	524	1021	0	0	0	
9	0	0	0	0	535	503	1021	0	0	0	
10	0	0	0	0	511	485	1021	0	0	0	
11	0	0	0	0	492	471	1021	0	0	0	
12	0	0	0	0	478	461	1021	0	0	0	
13	0	0	0	0	471	457	1021	0	0	0	
14	0	0	0	0	471	458	1021	0	0	0	
15	0	0	0	0	477	463	1021	0	0	0	
0	0	0	0	0	488	471	1021	0	0	0	
1	0	0	0	0	503	482	1021	0	0	0	
2	0	0	0	0	520	494	1021	0	0	0	
3	0	0	0	0	539	506	1021	0	0	0	
4	0	0	0	0	558	518	1021	0	0	0	
5	0	0	0	0	575	528	1021	0	0	0	
6	0	0	0	0	589	536	1021	0	0	0	
7	0	0	0	0	599	541	1021	0	0	0	
8	0	0	0	0	606	543	1021	0	0	0	
9	0	0	0	0	608	543	1021	0	0	0	
10	0	0	0	0	606	540	1021	0	0	0	
11	0	0	0	0	599	534	1021	0	0	0	
12	0	0	0	0	589	526	1021	0	0	0	
13	0	0	0	0	576	517	1021	0	0	0	
14	0	0	0	0	563	509	1021	0	0	0	
15	0	0	0	0	550	501	1021	0	0	0	
0	0	0	0	0	539	495	1021	0	0	0	
1	0	0	0	0	529	491	1021	0	0	0	
2	0	0	0	0	524	489	1021	0	0	0	
3	0	0	0	0	522	490	1021	0	0	0	
4	0	0	0	0	524	493	1021	0	0	0	
5	0	0	0	0	528	497	1021	0	0	0	
6	0	0	0	0	536	503	1021	0	0	0	
7	0	0	0	0	544	509	1021	0	0	0	
8	0	0	0	0	556	517	1021	0	0	0	
9	0	0	0	0	567	524	1021	0	0	0	
10	0	0	0	0	579	530	1021	0	0	0	
11	0	0	0	0	590	537	1020	0	0	0	
12	0	0	0	0	600	541	1021	0	0	0	
13	0	0	0	0	607	545	1021	0	0	0	
14	0	0	0	0	611	545	1021	0	0	0	
15	0	0	0	0	610	543	1021	0	0	0	
0	0	0	0	0	606	538	1021	0	0	0	
1	0	0	0	0	596	530	1021	0	0	0	
2	0	0	0	0	585	523	1021	0	0	0	
3	0	0	0	0	572	513	1021	0	0	0	
4	0	0	0	0	558	505	1021	0	0	0	
5	0	0	0	0	545	499	1021	0	0	0	
6	0	0	0	0	536	494	1021	0	0	0	
7	0	0	0	0	529	492	1021	0	0	0	
8	0	0	0	0	524	492	1021	0	0	0	
9	0	0	0	0	524	493	1021	0	0	0	
10	0	0	0	0	527	497	1021	0	0	0	
11	0	0	0	0	532	502	1021	0	0	0	
12	0	0	0	0	540	508	1021	0	0	0	
13	0	0	0	0	548	512	1021	0	0	0	
14	0	0	0	0	557	517	1021	0	0	0	
15	0	0	0	0	564	521	1021	0	0	0	
0	0	0	0	0	571	523	1021	0	0	0	
1	0	0	0	0	575	524	1021	0	0	0	
2	0	0	0	0	577	524	1021	0	0	0	
3	0	0	0	0	578	523	1021	0	0	0	
4	0	0	0	0	579	522	1021	0	0	0	
5	0	0	0	0	579	523	1021	0	0	0	
6	0	0	0	0	580	525	1021	0	0	0	
7	0	0	0	0	583	528	1021	0	0	0	
8	0	0	0	0	586	533	1021	0	0	0	
9	0	0	0	0	591	539	1021	0	0	0	
10	0	0	0	0	595	544	1021	0	0	0	
11	0	0	0	0	600	551	1021	0	0	0	
12	0	0	0	0	605	557	1021	0	0	0	
13	0	0	0	0	610	562	1021	0	0	0	
14	0	0	0	0	615	566	1021	0	0	0	
15	0	0	0	0	618	568	1021	0	0	0	
0	0	0	0	0	620	570	1021	0	0	0	
1	0	0	0	0	620	568	1021	0	0	0	
2	0	0	0	0	617	565	1021	0	0	0	
3	0	0	0	0	613	560	1021	0	0	0	
4	0	0	0	0	607	553	1021	0	0	0	
5	0	0	0	0	600	547	1021	0	0	0	
6	0	0	0	0	591	538	1021	0	0	0	
7	0	0	0	0	581	529	1021	0	0	0	
8	0	0	0	0	571	521	1021	0	0	0	
9	0	0	0	0	560	512	1021	0	0	0	
10	0	0	0	0	551	505	1021	0	0	0	
11	0	0	0	0	542	498	1021	0	0	0	
12	0	0	0	0	535	493	1021	0	0	0	
13	0	0	0	0	529	489	1020	0	0	0	
14	0	0	0	0	524	486	1021	0	0	0	
15	0	0	0	0	519	483	1021	0	0	0	
0	0	0	0	0	517	482	1021	0	0	0	
1	0	0	0	0	516	481	1021	0	0	0	
2	0	0	0	0	516	480	1021	0	0	0	
3	0	0	0	0	516	480	1021	0	0	0	
4	0	0	0	0	518	480	1021	0	0	0	
5	0	0	0	0	519	479	1021	0	0	0	
6	0	0	0	0	522	479	1021	0	0	0	
7	0	0	0	0	525	479	1021	0	0	0	
8	0	0	0	0	528	479	1021	0	0	0	
9	0	0	0	0	531	481	1021	0	0	0	
10	0	0	0	0	536	483	1021	0	0	0	
11	0	0	0	0	542	487	1021	0	0	0	
12	0	0	0	0	548	493	1021	0	0	0	
13	0	0	0	0	557	500	1021	0	0	0	
14	0	0	0	0	566	508	1021	0	0	0	
15	0	0	0	0	576	518	1021	0	0	0	
0	0	0	0	0	585	527	1021	0	0	0	
1	0	0	0	0	595	537	1021	0	0	0	
2	0	0	0	0	601	544	1021	0	0	0	
3	0	0	0	0	607	550	1021	0	0	0	
4	0	0	0	0	609	554	1021	0	0	0	
5	0	0	0	0	608	555	1021	0	0	0	
6	0	0	0	0	605	553	1021	0	0	0	
7	0	0	0	0	601	551	1021	0	0	0	
8	0	0	0	0	596	548	1021	0	0	0	
9	0	0	0	0	590	542	1021	0	0	0	
10	0	0	0	0	581	535	1021	0	0	0	
11	0	0	0	0	570	524	1020	0	0	0	
12	0	0	0	0	557	512	1021	0	0	0	
13	0	0	0	0	543	499	1021	0	0	0	
14	0	0	0	0	529	487	1021	0	0	0	
15	0	0	0	0	517	475	1021	0	0	0	
0	0	0	0	0	508	465	1021	0	0	0	
1	0	0	0	0	503	460	1021	0	0	0	
2	0	0	0	0	502	459	1021	0	0	0	
3	0	0	0	0	508	463	1021	0	0	0	
4	0	0	0	0	518	470	1020	0	0	0	
5	0	0	0	0	531	480	1021	0	0	0	
6	0	0	0	0	545	492	1021	0	0	0	
7	0	0	0	0	559	503	1021	0	0	0	
8	0	0	0	0	571	512	1021	0	0	0	
9	0	0	0	0	578	519	1021	0	0	0	
10	0	0	0	0	582	523	1021	0	0	0	
11	0	0	0	0	582	524	1021	0	0	0	
12	0	0	0	0	577	521	1021	0	0	0	
13	0	0	0	0	569	516	1021	0	0	0	
14	0	0	0	0	558	509	1021	0	0	0	
15	0	0	0	0	545	501	1020	0	0	0	
0	0	0	0	0	532	492	1021	0	0	0	
1	0	0	0	0	521	483	1021	0	0	0	
2	0	0	0	0	511	475	1021	0	0	0	
3	0	0	0	0	504	469	1021	0	0	0	
4	0	0	0	0	501	466	1021	0	0	0	
5	0	0	0	0	503	467	1021	0	0	0	
6	0	0	0	0	510	471	1021	0	0	0	
7	0	0	0	0	520	478	1021	0	0	0	
8	0	0	0	0	535	488	1021	0	0	0	
9	0	0	0	0	551	500	1021	0	0	0	
10	0	0	0	0	570	514	1021	0	0	0	
11	0	0	0	0	588	527	1021	0	0	0	
12	0	0	0	0	602	538	1020	0	0	0	
13	0	0	0	0	614	546	1021	0	0	0	
14	0	0	0	0	620	550	1021	0	0	0	
15	0	0	0	0	620	550	1021	0	0	0	
0	0	0	0	0	615	547	1021	0	0	0	
1	0	0	0	0	604	539	1021	0	0	0	
2	0	0	0	0	590	528	1021	0	0	0	
3	0	0	0	0	574	517	1021	0	0	0	
4	0	0	0	0	559	507	1021	0	0	0	
5	0	0	0	0	545	499	1021	0	0	0	
6	0	0	0	0	535	493	1021	0	0	0	
7	0	0	0	0	529	490	1021	0	0	0	
8	0	0	0	0	528	491	1021	0	0	0	
9	0	0	0	0	532	496	1021	0	0	0	
10	0	0	0	0	541	504	1021	0	0	0	
11	0	0	0	0	553	513	1021	0	0	0	
12	0	0	0	0	568	525	1021	0	0	0	
13	0	0	0	0	582	536	1021	0	0	0	
14	0	0	0	0	596	547	1021	0	0	0	
15	0	0	0	0	609	556	1021	0	0	0	
0	0	0	0	0	619	563	1021	0	0	0	
1	0	0	0	0	624	567	1021	0	0	0	
2	0	0	0	0	625	567	1021	0	0	0	
3	0	0	0	0	622	563	1021	0	0	0	
4	0	0	0	0	613	556	1021	0	0	0	
5	0	0	0	0	600	544	1021	0	0	0	
6	0	0	0	0	583	531	1021	0	0	0	
7	0	0	0	0	565	516	1021	0	0	0	
8	0	0	0	0	547	501	1021	0	0	0	
9	0	0	0	0	529	487	1021	0	0	0	
10	0	0	0	0	515	476	1021	0	0	0	
11	0	0	0	0	505	467	1021	0	0	0	
12	0	0	0	0	498	461	1021	0	0	0	
13	0	0	0	0	496	458	1021	0	0	0	
14	0	0	0	0	498	459	1021	0	0	0	
15	0	0	0	0	502	460	1021	0	0	0	
0	0	0	0	0	508	465	1021	0	0	0	
1	0	0	0	0	515	470	1021	0	0	0	
2	0	0	0	0	523	476	1021	0	0	0	
3	0	0	0	0	529	481	1021	0	0	0	
4	0	0	0	0	536	486	1021	0	0	0	
5	0	0	0	0	541	490	1021	0	0	0	
6	0	0	0	0	545	494	1021	0	0	0	
7	0	0	0	0	550	497	1021	0	0	0	
8	0	0	0	0	554	501	1021	0	0	0	
9	0	0	0	0	557	503	1021	0	0	0	
10	0	0	0	0	560	506	1021	0	0	0	
11	0	0	0	0	564	508	1021	0	0	0	
12	0	0	0	0	568	510	1021	0	0	0	
13	0	0	0	0	571	512	1021	0	0	0	
14	0	0	0	0	573	512	1021	0	0	0	
15	0	0	0	0	573	512	1021	0	0	0	
0	0	0	0	0	573	511	1021	0	0	0	
1	0	0	0	0	571	510	1021	0	0	0	
2	0	0	0	0	569	509	1021	0	0	0	
3	0	0	0	0	566	508	1021	0	0	0	
4	0	0	0	0	562	507	1021	0	0	0	
5	0	0	0	0	559	507	1021	0	0	0	
6	0	0	0	0	556	507	1021	0	0	0	
7	0	0	0	0	555	508	1021	0	0	0	
8	0	0	0	0	553	509	1021	0	0	0	
9	0	0	0	0	553	511	1021	0	0	0	
10	0	0	0	0	553	513	1020	0	0	0	
11	0	0	0	0	554	514	1020	0	0	0	
12	0	0	0	0	555	515	1021	0	0	0	
13	0	0	0	0	554	513	1020	0	0	0	
14	0	0	0	0	552	510	1021	0	0	0	
15	0	0	0	0	549	505	1021	0	0	0	
0	0	0	0	0	544	499	1021	0	0	0	
1	0	0	0	0	540	493	1021	0	0	0	
2	0	0	0	0	535	487	1021	0	0	0	
3	0	0	0	0	530	481	1021	0	0	0	
4	0	0	0	0	526	476	1020	0	0	0	
5	0	0	0	0	523	472	1021	0	0	0	
6	0	0	0	0	521	470	1021	0	0	0	
7	0	0	0	0	522	470	1021	0	0	0	
8	0	0	0	0	526	473	1021	0	0	0	
9	0	0	0	0	532	478	1021	0	0	0	
10	0	0	0	0	541	487	1021	0	0	0	
11	0	0	0	0	553	497	1021	0	0	0	
12	0	0	0	0	566	508	1021	0	0	0	
13	0	0	0	0	578	520	1021	0	0	0	
14	0	0	0	0	590	531	1021	0	0	0	
15	0	0	0	0	600	540	1021	0	0	0	
0	0	0	0	0	607	547	1021	0	0	0	
1	0	0	0	0	610	551	1021	0	0	0	
2	0	0	0	0	610	552	1021	0	0	0	
3	0	0	0	0	604	550	1021	0	0	0	
4	0	0	0	0	596	544	1021	0	0	0	
5	0	0	0	0	585	537	1021	0	0	0	
6	0	0	0	0	573	528	1021	0	0	0	
7	0	0	0	0	560	518	1021	0	0	0	
8	0	0	0	0	548	509	1020	0	0	0	
9	0	0	0	0	537	501	1021	0	0	0	
10	0	0	0	0	529	494	1021	0	0	0	
11	0	0	0	0	525	491	1021	0	0	0	
12	0	0	0	0	524	490	1021	0	0	0	
13	0	0	0	0	527	493	1021	0	0	0	
14	0	0	0	0	534	497	1021	0	0	0	
15	0	0	0	0	542	504	1021	0	0	0	
0	0	0	0	0	552	510	1021	0	0	0	
1	0	0	0	0	560	515	1021	0	0	0	
2	0	0	0	0	566	518	1020	0	0	0	
3	0	0	0	0	568	517	1021	0	0	0	
4	0	0	0	0	567	514	1021	0	0	0	
5	0	0	0	0	561	507	1021	0	0	0	
6	0	0	0	0	553	497	1021	0	0	0	
7	0	0	0	0	543	488	1020	0	0	0	
8	0	0	0	0	531	478	1021	0	0	0	
9	0	0	0	0	521	469	1021	0	0	0	
10	0	0	0	0	512	461	1021	0	0	0	
11	0	0	0	0	505	456	1020	0	0	0	
12	0	0	0	0	502	453	1021	0	0	0	
13	0	0	0	0	499	452	1020	0	0	0	
14	0	0	0	0	502	454	1021	0	0	0	
15	0	0	0	0	505	456	1021	0	0	0	
0	0	0	0	0	510	461	1021	0	0	0	
1	0	0	0	0	517	466	1020	0	0	0	
2	0	0	0	0	524	473	1021	0	0	0	
3	0	0	0	0	532	480	1021	0	0	0	
4	0	0	0	0	540	486	1021	0	0	0	
5	0	0	0	0	546	491	1021	0	0	0	
6	0	0	0	0	552	497	1021	0	0	0	
7	0	0	0	0	557	501	1021	0	0	0	
8	0	0	0	0	561	505	1021	0	0	0	
9	0	0	0	0	564	508	1021	0	0	0	
10	0	0	0	0	566	510	1021	0	0	0	
11	0	0	0	0	565	510	1021	0	0	0	
12	0	0	0	0	563	508	1021	0	0	0	
13	0	0	0	0	560	507	1021	0	0	0	
14	0	0	0	0	557	505	1021	0	0	0	
15	0	0	0	0	552	502	1021	0	0	0	
0	0	0	0	0	547	499	1021	0	0	0	
1	0	0	0	0	543	496	1021	0	0	0	
2	0	0	0	0	540	494	1021	0	0	0	
3	0	0	0	0	537	492	1021	0	0	0	
4	0	0	0	0	536	492	1021	0	0	0	
5	0	0	0	0	536	494	1021	0	0	0	
6	0	0	0	0	540	497	1021	0	0	0	
7	0	0	0	0	545	502	1021	0	0	0	
8	0	0	0	0	550	507	1021	0	0	0	
9	0	0	0	0	556	512	1021	0	0	0	
10	0	0	0	0	560	516	1021	0	0	0	
11	0	0	0	0	564	519	1021	0	0	0	
12	0	0	0	0	565	520	1021	0	0	0	
13	0	0	0	0	564	518	1021	0	0	0	
14	0	0	0	0	560	514	1021	0	0	0	
15	0	0	0	0	553	508	1021	0	0	0	
0	0	0	0	0	546	501	1021	0	0	0	
1	0	0	0	0	538	494	1021	0	0	0	
2	0	0	0	0	530	486	1021	0	0	0	
3	0	0	0	0	525	481	1021	0	0	0	
4	0	0	0	0	523	479	1021	0	0	0	
5	0	0	0	0	526	480	1021	0	0	0	
6	0	0	0	0	534	487	1021	0	0	0	
7	0	0	0	0	546	495	1021	0	0	0	
8	0	0	0	0	561	508	1021	0	0	0	
9	0	0	0	0	579	521	1020	0	0	0	
10	0	0	0	0	596	535	1021	0	0	0	
11	0	0	0	0	612	548	1021	0	0	0	
12	0	0	0	0	624	558	1021	0	0	0	
13	0	0	0	0	632	565	1021	0	0	0	
14	0	0	0	0	635	568	1021	0	0	0	
15	0	0	0	0	631	566	1021	0	0	0	
0	0	0	0	0	621	559	1021	0	0	0	
1	0	0	0	0	608	551	1021	0	0	0	
2	0	0	0	0	592	540	1021	0	0	0	
3	0	0	0	0	575	527	1021	0	0	0	
4	0	0	0	0	557	515	1021	0	0	0	
5	0	0	0	0	540	502	1021	0	0	0	
6	0	0	0	0	525	490	1021	0	0	0	
7	0	0	0	0	511	478	1021	0	0	0	
8	0	0	0	0	499	467	1020	0	0	0	
9	0	0	0	0	489	457	1021	0	0	0	
10	0	0	0	0	481	449	1021	0	0	0	
11	0	0	0	0	476	444	1021	0	0	0	
12	0	0	0	0	474	440	1021	0	0	0	
13	0	0	0	0	475	440	1021	0	0	0	
14	0	0	0	0	478	442	1021	0	0	0	
15	0	0	0	0	486	448	1021	0	0	0	
0	0	0	0	0	495	454	1021	0	0	0	
1	0	0	0	0	507	463	1021	0	0	0	
2	0	0	0	0	520	475	1021	0	0	0	
3	0	0	0	0	535	487	1021	0	0	0	
4	0	0	0	0	549	498	1021	0	0	0	
5	0	0	0	0	561	508	1021	0	0	0	
6	0	0	0	0	572	517	1021	0	0	0	
7	0	0	0	0	579	523	1021	0	0	0	
8	0	0	0	0	584	526	1021	0	0	0	
9	0	0	0	0	585	527	1021	0	0	0	
10	0	0	0	0	581	523	1021	0	0	0	
11	0	0	0	0	574	517	1021	0	0	0	
12	0	0	0	0	563	509	1021	0	0	0	
13	0	0	0	0	552	500	1021	0	0	0	
14	0	0	0	0	541	492	1021	0	0	0	
15	0	0	0	0	531	483	1021	0	0	0	
0	0	0	0	0	523	478	1021	0	0	0	
1	0	0	0	0	517	474	1021	0	0	0	
2	0	0	0	0	515	473	1020	0	0	0	
3	0	0	0	0	515	474	1021	0	0	0	
4	0	0	0	0	519	476	1021	0	0	0	
5	0	0	0	0	525	480	1021	0	0	0	
6	0	0	0	0	532	485	1021	0	0	0	
7	0	0	0	0	539	489	1021	0	0	0	
8	0	0	0	0	544	492	1021	0	0	0	
9	0	0	0	0	547	492	1021	0	0	0	
10	0	0	0	0	547	491	1021	0	0	0	
11	0	0	0	0	546	488	1020	0	0	0	
12	0	0	0	0	543	486	1021	0	0	0	
13	0	0	0	0	541	483	1021	0	0	0	
14	0	0	0	0	537	481	1021	0	0	0	
15	0	0	0	0	536	482	1020	0	0	0	
0	0	0	0	0	535	483	1021	0	0	0	
1	0	0	0	0	537	486	1021	0	0	0	
2	0	0	0	0	540	491	1021	0	0	0	
3	0	0	0	0	543	496	1021	0	0	0	
4	0	0	0	0	548	501	1021	0	0	0	
5	0	0	0	0	553	507	1021	0	0	0	
6	0	0	0	0	559	512	1021	0	0	0	
7	0	0	0	0	564	518	1021	0	0	0	
8	0	0	0	0	569	522	1021	0	0	0	
9	0	0	0	0	573	525	1021	0	0	0	
10	0	0	0	0	576	527	1021	0	0	0	
11	0	0	0	0	577	526	1021	0	0	0	
12	0	0	0	0	576	523	1021	0	0	0	
13	0	0	0	0	571	518	1020	0	0	0	
14	0	0	0	0	566	510	1021	0	0	0	
15	0	0	0	0	558	502	1021	0	0	0	
0	0	0	0	0	548	492	1021	0	0	0	
1	0	0	0	0	540	483	1021	0	0	0	
2	0	0	0	0	531	475	1021	0	0	0	
3	0	0	0	0	524	468	1021	0	0	0	
4	0	0	0	0	519	465	1021	0	0	0	
5	0	0	0	0	517	464	1021	0	0	0	
6	0	0	0	0	518	466	1021	0	0	0	
7	0	0	0	0	521	469	1021	0	0	0	
8	0	0	0	0	526	474	1021	0	0	0	
9	0	0	0	0	531	480	1021	0	0	0	
10	0	0	0	0	538	486	1021	0	0	0	
11	0	0	0	0	545	494	1021	0	0	0	
12	0	0	0	0	553	500	1021	0	0	0	
13	0	0	0	0	561	508	1021	0	0	0	
14	0	0	0	0	569	515	1020	0	0	0	
15	0	0	0	0	576	521	1021	0	0	0	
0	0	0	0	0	584	527	1021	0	0	0	
1	0	0	0	0	590	531	1021	0	0	0	
2	0	0	0	0	596	536	1021	0	0	0	
3	0	0	0	0	603	540	1020	0	0	0	
4	0	0	0	0	607	543	1021	0	0	0	
5	0	0	0	0	609	544	1021	0	0	0	
6	0	0	0	0	609	543	1021	0	0	0	
7	0	0	0	0	605	540	1021	0	0	0	
8	0	0	0	0	598	533	1021	0	0	0	
9	0	0	0	0	586	524	1021	0	0	0	
10	0	0	0	0	572	515	1021	0	0	0	
11	0	0	0	0	557	504	1021	0	0	0	
12	0	0	0	0	542	493	1021	0	0	0	
13	0	0	0	0	528	485	1020	0	0	0	
14	0	0	0	0	516	477	1021	0	0	0	
15	0	0	0	0	508	472	1021	0	0	0	
0	0	0	0	0	501	467	1021	0	0	0	
1	0	0	0	0	497	464	1021	0	0	0	
2	0	0	0	0	495	463	1020	0	0	0	
3	0	0	0	0	495	462	1021	0	0	0	
4	0	0	0	0	495	461	1021	0	0	0	
5	0	0	0	0	495	458	1021	0	0	0	
6	0	0	0	0	494	454	1021	0	0	0	
7	0	0	0	0	494	450	1020	0	0	0	
8	0	0	0	0	492	445	1021	0	0	0	
9	0	0	0	0	492	441	1021	0	0	0	
10	0	0	0	0	492	438	1021	0	0	0	
11	0	0	0	0	492	436	1021	0	0	0	
12	0	0	0	0	493	436	1020	0	0	0	
13	0	0	0	0	496	436	1021	0	0	0	
14	0	0	0	0	500	441	1021	0	0	0	
15	0	0	0	0	505	445	1021	0	0	0	
0	0	0	0	0	512	452	1021	0	0	0	
1	0	0	0	0	519	460	1020	0	0	0	
2	0	0	0	0	527	467	1021	0	0	0	
3	0	0	0	0	534	475	1021	0	0	0	
4	0	0	0	0	540	482	1021	0	0	0	
5	0	0	0	0	546	488	1021	0	0	0	
6	0	0	0	0	551	493	1020	0	0	0	
7	0	0	0	0	553	496	1021	0	0	0	
8	0	0	0	0	553	497	1021	0	0	0	
9	0	0	0	0	552	496	1021	0	0	0	
10	0	0	0	0	549	494	1021	0	0	0	
11	0	0	0	0	547	492	1020	0	0	0	
12	0	0	0	0	543	488	1021	0	0	0	
13	0	0	0	0	541	486	1021	0	0	0	
14	0	0	0	0	538	483	1021	0	0	0	
15	0	0	0	0	536	481	1021	0	0	0	
0	0	0	0	0	536	480	1021	0	0	0	
1	0	0	0	0	538	481	1021	0	0	0	
2	0	0	0	0	543	485	1021	0	0	0	
3	0	0	0	0	550	491	1021	0	0	0	
4	0	0	0	0	560	499	1021	0	0	0	
5	0	0	0	0	572	510	1021	0	0	0	
6	0	0	0	0	583	519	1021	0	0	0	
7	0	0	0	0	593	529	1021	0	0	0	
8	0	0	0	0	600	534	1021	0	0	0	
9	0	0	0	0	600	535	1021	0	0	0	
10	0	0	0	0	596	533	1021	0	0	0	
11	0	0	0	0	588	527	1021	0	0	0	
12	0	0	0	0	576	519	1021	0	0	0	
13	0	0	0	0	561	508	1021	0	0	0	
14	0	0	0	0	546	496	1021	0	0	0	
15	0	0	0	0	532	485	1021	0	0	0	
0	0	0	0	0	520	476	1021	0	0	0	
1	0	0	0	0	513	470	1021	0	0	0	
2	0	0	0	0	509	466	1021	0	0	0	
3	0	0	0	0	508	464	1021	0	0	0	
4	0	0	0	0	512	466	1021	0	0	0	
5	0	0	0	0	519	470	1021	0	0	0	
6	0	0	0	0	527	476	1021	0	0	0	
7	0	0	0	0	538	482	1021	0	0	0	
8	0	0	0	0	549	489	1021	0	0	0	
9	0	0	0	0	560	498	1020	0	0	0	
10	0	0	0	0	571	505	1021	0	0	0	
11	0	0	0	0	580	513	1021	0	0	0	
12	0	0	0	0	588	519	1021	0	0	0	
13	0	0	0	0	594	525	1021	0	0	0	
14	0	0	0	0	599	530	1020	0	0	0	
15	0	0	0	0	600	532	1021	0	0	0	
0	0	0	0	0	601	536	1021	0	0	0	
1	0	0	0	0	598	535	1021	0	0	0	
2	0	0	0	0	593	533	1021	0	0	0	
3	0	0	0	0	586	528	1020	0	0	0	
4	0	0	0	0	575	521	1021	0	0	0	
5	0	0	0	0	563	512	1021	0	0	0	
6	0	0	0	0	550	500	1021	0	0	0	
7	0	0	0	0	536	488	1021	0	0	0	
8	0	0	0	0	523	477	1021	0	0	0	
9	0	0	0	0	512	468	1021	0	0	0	
10	0	0	0	0	507	462	1021	0	0	0	
11	0	0	0	0	505	460	1021	0	0	0	
12	0	0	0	0	507	461	1021	0	0	0	
13	0	0	0	0	515	467	1020	0	0	0	
14	0	0	0	0	525	474	1021	0	0	0	
15	0	0	0	0	538	484	1021	0	0	0	
0	0	0	0	0	552	496	1021	0	0	0	
1	0	0	0	0	566	506	1021	0	0	0	
2	0	0	0	0	577	515	1021	0	0	0	
3	0	0	0	0	585	521	1021	0	0	0	
4	0	0	0	0	588	523	1021	0	0	0	
5	0	0	0	0	587	521	1021	0	0	0	
6	0	0	0	0	579	515	1021	0	0	0	
7	0	0	0	0	567	504	1021	0	0	0	
8	0	0	0	0	551	491	1021	0	0	0	
9	0	0	0	0	531	475	1021	0	0	0	
10	0	0	0	0	509	457	1021	0	0	0	
11	0	0	0	0	486	439	1021	0	0	0	
12	0	0	0	0	463	421	1021	0	0	0	
13	0	0	0	0	444	404	1021	0	0	0	
14	0	0	0	0	427	391	1021	0	0	0	
15	0	0	0	0	414	379	1021	0	0	0	
0	0	0	0	0	405	371	1021	0	0	0	
1	0	0	0	0	399	365	1021	0	0	0	
2	0	0	0	0	397	361	1020	0	0	0	
3	0	0	0	0	397	359	1021	0	0	0	
4	0	0	0	0	398	356	1021	0	0	0	
5	0	0	0	0	400	354	1021	0	0	0	
6	0	0	0	0	401	351	1021	0	0	0	
7	0	0	0	0	401	347	1021	0	0	0	
8	0	0	0	0	398	342	1021	0	0	0	
9	0	0	0	0	391	332	1021	0	0	0	
10	0	0	0	0	381	321	1021	0	0	0	
11	0	0	0	0	370	308	1021	0	0	0	
12	0	0	0	0	357	296	1020	0	0	0	
13	0	0	0	0	344	284	1021	0	0	0	
14	0	0	0	0	334	275	1021	0	0	0	
15	0	0	0	0	327	269	1020	0	0	0	
0	0	0	0	0	324	267	1021	0	0	0	
1	0	0	0	0	327	271	1020	0	0	0	
2	0	0	0	0	337	280	1021	0	0	0	
3	0	0	0	0	352	294	1021	0	0	0	
4	0	0	0	0	372	312	1021	0	0	0	
5	0	0	0	0	396	333	1021	0	0	0	
6	0	0	0	0	421	355	1021	0	0	0	
7	0	0	0	0	447	379	1021	0	0	0	
8	0	0	0	0	472	401	1021	0	0	0	
9	0	0	0	0	495	423	1021	0	0	0	
10	0	0	0	0	515	442	1020	0	0	0	
11	0	0	0	0	532	458	1020	0	0	0	
12	0	0	0	0	544	470	1021	0	0	0	
13	0	0	0	0	552	479	1020	0	0	0	
14	0	0	0	0	558	485	1021	0	0	0	
15	0	0	0	0	559	489	1021	0	0	0	
0	0	0	0	0	560	493	1021	0	0	0	
1	0	0	0	0	561	496	1021	0	0	0	
2	0	0	0	0	563	500	1021	0	0	0	
3	0	0	0	0	566	505	1021	0	0	0	
4	0	0	0	0	570	511	1021	0	0	0	
5	0	0	0	0	576	518	1021	0	0	0	
6	0	0	0	0	583	525	1021	0	0	0	
7	0	0	0	0	590	531	1021	0	0	0	
8	0	0	0	0	596	537	1021	0	0	0	
9	0	0	0	0	602	542	1021	0	0	0	
10	0	0	0	0	606	546	1021	0	0	0	
11	0	0	0	0	607	548	1021	0	0	0	
12	0	0	0	0	606	547	1021	0	0	0	
13	0	0	0	0	600	544	1021	0	0	0	
14	0	0	0	0	592	538	1021	0	0	0	
15	0	0	0	0	582	530	1021	0	0	0	
0	0	0	0	0	571	522	1021	0	0	0	
1	0	0	0	0	559	512	1021	0	0	0	
2	0	0	0	0	548	503	1021	0	0	0	
3	0	0	0	0	538	495	1021	0	0	0	
4	0	0	0	0	530	488	1021	0	0	0	
5	0	0	0	0	524	483	1021	0	0	0	
6	0	0	0	0	519	477	1021	0	0	0	
7	0	0	0	0	515	473	1021	0	0	0	
8	0	0	0	0	515	472	1020	0	0	0	
9	0	0	0	0	518	471	1021	0	0	0	
10	0	0	0	0	523	475	1021	0	0	0	
11	0	0	0	0	531	480	1021	0	0	0	
12	0	0	0	0	542	487	1021	0	0	0	
13	0	0	0	0	555	498	1021	0	0	0	
14	0	0	0	0	571	511	1021	0	0	0	
15	0	0	0	0	588	525	1021	0	0	0	
0	0	0	0	0	605	540	1021	0	0	0	
1	0	0	0	0	620	554	1021	0	0	0	
2	0	0	0	0	633	566	1021	0	0	0	
3	0	0	0	0	641	573	1021	0	0	0	
4	0	0	0	0	643	576	1021	0	0	0	
5	0	0	0	0	638	572	1021	0	0	0	
6	0	0	0	0	626	563	1021	0	0	0	
7	0	0	0	0	609	551	1021	0	0	0	
8	0	0	0	0	588	534	1021	0	0	0	
9	0	0	0	0	565	516	1021	0	0	0	
10	0	0	0	0	540	497	1021	0	0	0	
11	0	0	0	0	518	480	1021	0	0	0	
12	0	0	0	0	500	466	1020	0	0	0	
13	0	0	0	0	487	455	1021	0	0	0	
14	0	0	0	0	481	451	1021	0	0	0	
15	0	0	0	0	482	451	1021	0	0	0	
0	0	0	0	0	492	457	1021	0	0	0	
1	0	0	0	0	507	468	1021	0	0	0	
2	0	0	0	0	527	481	1021	0	0	0	
3	0	0	0	0	549	498	1021	0	0	0	
4	0	0	0	0	571	513	1021	0	0	0	
5	0	0	0	0	590	526	1021	0	0	0	
6	0	0	0	0	605	536	1021	0	0	0	
7	0	0	0	0	614	542	1021	0	0	0	
8	0	0	0	0	616	543	1021	0	0	0	
9	0	0	0	0	611	540	1021	0	0	0	
10	0	0	0	0	601	532	1021	0	0	0	
11	0	0	0	0	586	522	1021	0	0	0	
12	0	0	0	0	569	510	1021	0	0	0	
13	0	0	0	0	551	498	1021	0	0	0	
14	0	0	0	0	534	486	1021	0	0	0	
15	0	0	0	0	518	476	1021	0	0	0	
0	0	0	0	0	507	469	1021	0	0	0	
1	0	0	0	0	499	464	1021	0	0	0	
2	0	0	0	0	497	463	1021	0	0	0	
3	0	0	0	0	498	465	1021	0	0	0	
4	0	0	0	0	504	469	1021	0	0	0	
5	0	0	0	0	514	476	1021	0	0	0	
6	0	0	0	0	527	486	1021	0	0	0	
7	0	0	0	0	542	496	1021	0	0	0	
8	0	0	0	0	558	507	1021	0	0	0	
9	0	0	0	0	573	518	1021	0	0	0	
10	0	0	0	0	588	528	1021	0	0	0	
11	0	0	0	0	600	536	1021	0	0	0	
12	0	0	0	0	608	543	1021	0	0	0	
13	0	0	0	0	613	546	1021	0	0	0	
14	0	0	0	0	614	547	1021	0	0	0	
15	0	0	0	0	611	544	1021	0	0	0	
0	0	0	0	0	605	540	1021	0	0	0	
1	0	0	0	0	597	534	1021	0	0	0	
2	0	0	0	0	588	527	1021	0	0	0	
3	0	0	0	0	579	520	1021	0	0	0	
4	0	0	0	0	571	516	1021	0	0	0	
5	0	0	0	0	567	514	1021	0	0	0	
6	0	0	0	0	566	515	1021	0	0	0	
7	0	0	0	0	568	519	1021	0	0	0	
8	0	0	0	0	574	525	1021	0	0	0	
9	0	0	0	0	582	533	1020	0	0	0	
10	0	0	0	0	591	541	1021	0	0	0	
11	0	0	0	0	599	548	1021	0	0	0	
12	0	0	0	0	603	551	1021	0	0	0	
13	0	0	0	0	605	553	1021	0	0	0	
14	0	0	0	0	603	551	1021	0	0	0	
15	0	0	0	0	598	545	1021	0	0	0	
0	0	0	0	0	590	539	1021	0	0	0	
1	0	0	0	0	579	530	1021	0	0	0	
2	0	0	0	0	568	520	1021	0	0	0	
3	0	0	0	0	554	508	1021	0	0	0	
4	0	0	0	0	540	496	1021	0	0	0	
5	0	0	0	0	527	485	1021	0	0	0	
6	0	0	0	0	514	475	1021	0	0	0	
7	0	0	0	0	505	466	1021	0	0	0	
8	0	0	0	0	499	460	1021	0	0	0	
9	0	0	0	0	496	457	1021	0	0	0	
10	0	0	0	0	497	457	1021	0	0	0	
11	0	0	0	0	500	460	1021	0	0	0	
12	0	0	0	0	507	464	1021	0	0	0	
13	0	0	0	0	516	471	1021	0	0	0	
14	0	0	0	0	528	479	1021	0	0	0	
15	0	0	0	0	540	487	1021	0	0	0	
0	0	0	0	0	551	496	1021	0	0	0	
1	0	0	0	0	562	503	1021	0	0	0	
2	0	0	0	0	570	509	1021	0	0	0	
3	0	0	0	0	575	513	1021	0	0	0	
4	0	0	0	0	577	515	1021	0	0	0	
5	0	0	0	0	575	513	1021	0	0	0	
6	0	0	0	0	571	509	1021	0	0	0	
7	0	0	0	0	563	504	1021	0	0	0	
8	0	0	0	0	556	498	1021	0	0	0	
9	0	0	0	0	548	493	1021	0	0	0	
10	0	0	0	0	542	488	1021	0	0	0	
11	0	0	0	0	536	484	1021	0	0	0	
12	0	0	0	0	533	483	1021	0	0	0	
13	0	0	0	0	533	483	1021	0	0	0	
14	0	0	0	0	534	484	1021	0	0	0	
15	0	0	0	0	537	487	1021	0	0	0	
0	0	0	0	0	541	491	1021	0	0	0	
1	0	0	0	0	547	496	1020	0	0	0	
2	0	0	0	0	552	500	1021	0	0	0	
3	0	0	0	0	557	505	1021	0	0	0	
4	0	0	0	0	561	508	1021	0	0	0	
5	0	0	0	0	563	510	1021	0	0	0	
6	0	0	0	0	564	511	1021	0	0	0	
7	0	0	0	0	564	511	1021	0	0	0	
8	0	0	0	0	562	509	1021	0	0	0	
9	0	0	0	0	559	506	1021	0	0	0	
10	0	0	0	0	554	501	1021	0	0	0	
11	0	0	0	0	546	494	1021	0	0	0	
12	0	0	0	0	540	487	1021	0	0	0	
13	0	0	0	0	532	480	1021	0	0	0	
14	0	0	0	0	526	474	1021	0	0	0	
15	0	0	0	0	521	469	1021	0	0	0	
0	0	0	0	0	519	467	1020	0	0	0	
1	0	0	0	0	519	465	1021	0	0	0	
2	0	0	0	0	519	465	1021	0	0	0	
3	0	0	0	0	521	467	1021	0	0	0	
4	0	0	0	0	524	470	1021	0	0	0	
5	0	0	0	0	527	473	1021	0	0	0	
6	0	0	0	0	531	476	1021	0	0	0	
7	0	0	0	0	535	481	1021	0	0	0	
8	0	0	0	0	538	484	1021	0	0	0	
9	0	0	0	0	541	487	1021	0	0	0	
10	0	0	0	0	545	491	1021	0	0	0	
11	0	0	0	0	548	494	1021	0	0	0	
12	0	0	0	0	552	498	1021	0	0	0	
13	0	0	0	0	556	500	1021	0	0	0	
14	0	0	0	0	558	502	1021	0	0	0	
15	0	0	0	0	560	503	1021	0	0	0	
0	0	0	0	0	561	504	1021	0	0	0	
1	0	0	0	0	561	504	1021	0	0	0	
2	0	0	0	0	561	503	1021	0	0	0	
3	0	0	0	0	560	502	1021	0	0	0	
4	0	0	0	0	560	501	1020	0	0	0	
5	0	0	0	0	558	500	1021	0	0	0	
6	0	0	0	0	558	500	1021	0	0	0	
7	0	0	0	0	558	501	1021	0	0	0	
8	0	0	0	0	559	503	1021	0	0	0	
9	0	0	0	0	562	506	1020	0	0	0	
10	0	0	0	0	566	509	1021	0	0	0	
11	0	0	0	0	570	514	1021	0	0	0	
12	0	0	0	0	574	518	1021	0	0	0	
13	0	0	0	0	578	522	1021	0	0	0	
14	0	0	0	0	583	526	1020	0	0	0	
15	0	0	0	0	587	529	1021	0	0	0	
0	0	0	0	0	591	533	1021	0	0	0	
1	0	0	0	0	593	534	1021	0	0	0	
2	0	0	0	0	595	536	1021	0	0	0	
3	0	0	0	0	596	536	1020	0	0	0	
4	0	0	0	0	596	535	1021	0	0	0	
5	0	0	0	0	595	534	1021	0	0	0	
6	0	0	0	0	591	530	1021	0	0	0	
7	0	0	0	0	586	524	1021	0	0	0	
8	0	0	0	0	577	517	1021	0	0	0	
9	0	0	0	0	567	507	1021	0	0	0	
10	0	0	0	0	554	497	1021	0	0	0	
11	0	0	0	0	540	486	1021	0	0	0	
12	0	0	0	0	527	476	1021	0	0	0	
13	0	0	0	0	515	466	1020	0	0	0	
14	0	0	0	0	504	459	1021	0	0	0	
15	0	0	0	0	496	453	1021	0	0	0	
0	0	0	0	0	491	449	1021	0	0	0	
1	0	0	0	0	487	446	1021	0	0	0	
2	0	0	0	0	486	446	1020	0	0	0	
3	0	0	0	0	487	445	1021	0	0	0	
4	0	0	0	0	489	447	1021	0	0	0	
5	0	0	0	0	493	448	1021	0	0	0	
6	0	0	0	0	498	449	1021	0	0	0	
7	0	0	0	0	502	451	1020	0	0	0	
8	0	0	0	0	507	452	1021	0	0	0	
9	0	0	0	0	511	454	1021	0	0	0	
10	0	0	0	0	515	456	1021	0	0	0	
11	0	0	0	0	520	458	1021	0	0	0	
12	0	0	0	0	524	461	1021	0	0	0	
13	0	0	0	0	529	465	1020	0	0	0	
14	0	0	0	0	534	469	1021	0	0	0	
15	0	0	0	0	539	475	1021	0	0	0	
0	0	0	0	0	545	481	1021	0	0	0	
1	0	0	0	0	550	487	1020	0	0	0	
2	0	0	0	0	555	492	1020	0	0	0	
3	0	0	0	0	559	497	1021	0	0	0	
4	0	0	0	0	561	501	1021	0	0	0	
5	0	0	0	0	562	504	1021	0	0	0	
6	0	0	0	0	560	504	1021	0	0	0	
7	0	0	0	0	558	503	1021	0	0	0	
8	0	0	0	0	555	502	1021	0	0	0	
9	0	0	0	0	551	499	1021	0	0	0	
10	0	0	0	0	549	496	1021	0	0	0	
11	0	0	0	0	547	494	1020	0	0	0	
12	0	0	0	0	547	492	1021	0	0	0	
13	0	0	0	0	549	492	1021	0	0	0	
14	0	0	0	0	553	492	1021	0	0	0	
15	0	0	0	0	559	496	1021	0	0	0	
0	0	0	0	0	566	500	1020	0	0	0	
1	0	0	0	0	572	504	1021	0	0	0	
2	0	0	0	0	577	508	1021	0	0	0	
3	0	0	0	0	580	511	1021	0	0	0	
4	0	0	0	0	579	511	1021	0	0	0	
5	0	0	0	0	575	510	1020	0	0	0	
6	0	0	0	0	568	507	1021	0	0	0	
7	0	0	0	0	559	503	1021	0	0	0	
8	0	0	0	0	548	497	1021	0	0	0	
9	0	0	0	0	538	491	1021	0	0	0	
10	0	0	0	0	528	486	1020	0	0	0	
11	0	0	0	0	519	479	1021	0	0	0	
12	0	0	0	0	510	473	1021	0	0	0	
13	0	0	0	0	503	466	1021	0	0	0	
14	0	0	0	0	496	460	1021	0	0	0	
15	0	0	0	0	492	454	1020	0	0	0	
0	0	0	0	0	489	449	1021	0	0	0	
1	0	0	0	0	489	446	1021	0	0	0	
2	0	0	0	0	490	443	1021	0	0	0	
3	0	0	0	0	492	441	1021	0	0	0	
4	0	0	0	0	497	442	1021	0	0	0	
5	0	0	0	0	503	445	1021	0	0	0	
6	0	0	0	0	511	450	1021	0	0	0	
7	0	0	0	0	519	456	1021	0	0	0	
8	0	0	0	0	529	464	1021	0	0	0	
9	0	0	0	0	540	474	1020	0	0	0	
10	0	0	0	0	550	484	1021	0	0	0	
11	0	0	0	0	560	494	1021	0	0	0	
12	0	0	0	0	569	504	1021	0	0	0	
13	0	0	0	0	578	514	1021	0	0	0	
14	0	0	0	0	586	523	1020	0	0	0	
15	0	0	0	0	593	530	1021	0	0	0	
0	0	0	0	0	599	537	1021	0	0	0	
1	0	0	0	0	603	541	1021	0	0	0	
2	0	0	0	0	606	544	1021	0	0	0	
3	0	0	0	0	608	547	1020	0	0	0	
4	0	0	0	0	609	546	1021	0	0	0	
5	0	0	0	0	608	545	1021	0	0	0	
6	0	0	0	0	604	540	1021	0	0	0	
7	0	0	0	0	596	533	1021	0	0	0	
8	0	0	0	0	585	524	1020	0	0	0	
9	0	0	0	0	572	512	1021	0	0	0	
10	0	0	0	0	559	502	1021	0	0	0	
11	0	0	0	0	545	492	1021	0	0	0	
12	0	0	0	0	533	482	1021	0	0	0	
13	0	0	0	0	521	474	1021	0	0	0	
14	0	0	0	0	512	467	1021	0	0	0	
15	0	0	0	0	505	463	1021	0	0	0	
0	0	0	0	0	500	459	1021	0	0	0	
1	0	0	0	0	498	457	1021	0	0	0	
2	0	0	0	0	499	456	1020	0	0	0	
3	0	0	0	0	501	457	1021	0	0	0	
4	0	0	0	0	504	459	1021	0	0	0	
5	0	0	0	0	509	460	1021	0	0	0	
6	0	0	0	0	513	461	1021	0	0	0	
7	0	0	0	0	518	463	1020	0	0	0	
8	0	0	0	0	523	464	1021	0	0	0	
9	0	0	0	0	527	466	1021	0	0	0	
10	0	0	0	0	532	469	1021	0	0	0	
11	0	0	0	0	536	471	1021	0	0	0	
12	0	0	0	0	541	473	1020	0	0	0	
13	0	0	0	0	546	476	1021	0	0	0	
14	0	0	0	0	550	480	1021	0	0	0	
15	0	0	0	0	553	483	1021	0	0	0	
0	0	0	0	0	556	486	1021	0	0	0	
1	0	0	0	0	558	488	1021	0	0	0	
2	0	0	0	0	559	491	1020	0	0	0	
3	0	0	0	0	560	494	1021	0	0	0	
4	0	0	0	0	560	496	1021	0	0	0	
5	0	0	0	0	559	498	1021	0	0	0	
6	0	0	0	0	557	499	1021	0	0	0	
7	0	0	0	0	555	500	1021	0	0	0	
8	0	0	0	0	551	499	1021	0	0	0	
9	0	0	0	0	548	498	1021	0	0	0	
10	0	0	0	0	546	496	1021	0	0	0	
11	0	0	0	0	542	493	1021	0	0	0	
12	0	0	0	0	540	491	1020	0	0	0	
13	0	0	0	0	539	488	1021	0	0	0	
14	0	0	0	0	538	485	1021	0	0	0	
15	0	0	0	0	537	481	1021	0	0	0	
0	0	0	0	0	534	477	1020	0	0	0	
1	0	0	0	0	531	473	1021	0	0	0	
2	0	0	0	0	527	469	1021	0	0	0	
3	0	0	0	0	524	466	1021	0	0	0	
4	0	0	0	0	521	464	1021	0	0	0	
5	0	0	0	0	519	465	1021	0	0	0	
6	0	0	0	0	519	467	1021	0	0	0	
7	0	0	0	0	520	470	1021	0	0	0	
8	0	0	0	0	523	474	1021	0	0	0	
9	0	0	0	0	527	479	1021	0	0	0	
10	0	0	0	0	530	483	1020	0	0	0	
11	0	0	0	0	535	487	1020	0	0	0	
12	0	0	0	0	538	490	1021	0	0	0	
13	0	0	0	0	540	491	1021	0	0	0	
14	0	0	0	0	542	491	1021	0	0	0	
15	0	0	0	0	543	491	1020	0	0	0	
0	0	0	0	0	542	488	1020	0	0	0	
1	0	0	0	0	539	484	1021	0	0	0	
2	0	0	0	0	536	480	1021	0	0	0	
3	0	0	0	0	531	475	1021	0	0	0	
4	0	0	0	0	524	468	1021	0	0	0	
5	0	0	0	0	519	464	1021	0	0	0	
6	0	0	0	0	514	461	1021	0	0	0	
7	0	0	0	0	511	459	1021	0	0	0	
8	0	0	0	0	511	460	1021	0	0	0	
9	0	0	0	0	513	463	1021	0	0	0	
10	0	0	0	0	519	469	1020	0	0	0	
11	0	0	0	0	527	477	1021	0	0	0	
12	0	0	0	0	537	485	1021	0	0	0	
13	0	0	0	0	546	493	1021	0	0	0	
14	0	0	0	0	556	501	1021	0	0	0	
15	0	0	0	0	563	507	1021	0	0	0	
0	0	0	0	0	569	512	1021	0	0	0	
1	0	0	0	0	571	511	1021	0	0	0	
2	0	0	0	0	569	509	1021	0	0	0	
3	0	0	0	0	565	504	1021	0	0	0	
4	0	0	0	0	559	497	1020	0	0	0	
5	0	0	0	0	551	490	1021	0	0	0	
6	0	0	0	0	543	482	1021	0	0	0	
7	0	0	0	0	534	475	1021	0	0	0	
8	0	0	0	0	526	468	1021	0	0	0	
9	0	0	0	0	518	462	1021	0	0	0	
10	0	0	0	0	510	458	1021	0	0	0	
11	0	0	0	0	503	454	1020	0	0	0	
12	0	0	0	0	498	451	1021	0	0	0	
13	0	0	0	0	494	449	1021	0	0	0	
14	0	0	0	0	492	449	1021	0	0	0	
15	0	0	0	0	493	451	1021	0	0	0	
0	0	0	0	0	496	454	1021	0	0	0	
1	0	0	0	0	500	458	1021	0	0	0	
2	0	0	0	0	507	463	1021	0	0	0	
3	0	0	0	0	515	470	1021	0	0	0	
4	0	0	0	0	525	477	1021	0	0	0	
5	0	0	0	0	535	483	1021	0	0	0	
6	0	0	0	0	544	488	1021	0	0	0	
7	0	0	0	0	553	493	1020	0	0	0	
8	0	0	0	0	559	496	1021	0	0	0	
9	0	0	0	0	564	498	1021	0	0	0	
10	0	0	0	0	567	498	1021	0	0	0	
11	0	0	0	0	566	497	1021	0	0	0	
12	0	0	0	0	564	495	1021	0	0	0	
13	0	0	0	0	561	494	1020	0	0	0	
14	0	0	0	0	558	492	1021	0	0	0	
15	0	0	0	0	554	491	1021	0	0	0	
0	0	0	0	0	550	491	1021	0	0	0	
1	0	0	0	0	546	491	1021	0	0	0	
2	0	0	0	0	543	491	1020	0	0	0	
3	0	0	0	0	540	491	1021	0	0	0	
4	0	0	0	0	536	489	1021	0	0	0	
5	0	0	0	0	532	487	1021	0	0	0	
6	0	0	0	0	528	486	1021	0	0	0	
7	0	0	0	0	524	483	1021	0	0	0	
8	0	0	0	0	520	479	1021	0	0	0	
9	0	0	0	0	515	473	1021	0	0	0	
10	0	0	0	0	510	468	1021	0	0	0	
11	0	0	0	0	505	462	1021	0	0	0	
12	0	0	0	0	501	456	1021	0	0	0	
13	0	0	0	0	497	452	1021	0	0	0	
14	0	0	0	0	496	448	1021	0	0	0	
15	0	0	0	0	496	446	1021	0	0	0	
0	0	0	0	0	499	447	1021	0	0	0	
1	0	0	0	0	504	450	1021	0	0	0	
2	0	0	0	0	511	456	1021	0	0	0	
3	0	0	0	0	520	462	1021	0	0	0	
4	0	0	0	0	529	470	1021	0	0	0	
5	0	0	0	0	539	478	1021	0	0	0	
6	0	0	0	0	547	484	1020	0	0	0	
7	0	0	0	0	553	491	1021	0	0	0	
8	0	0	0	0	556	494	1021	0	0	0	
9	0	0	0	0	556	496	1021	0	0	0	
10	0	0	0	0	554	496	1021	0	0	0	
11	0	0	0	0	549	493	1021	0	0	0	
12	0	0	0	0	543	489	1021	0	0	0	
13	0	0	0	0	534	482	1021	0	0	0	
14	0	0	0	0	525	475	1021	0	0	0	
15	0	0	0	0	516	468	1021	0	0	0	
0	0	0	0	0	509	462	1021	0	0	0	
1	0	0	0	0	504	458	1021	0	0	0	
2	0	0	0	0	502	454	1021	0	0	0	
3	0	0	0	0	502	452	1021	0	0	0	
4	0	0	0	0	504	454	1021	0	0	0	
5	0	0	0	0	509	457	1021	0	0	0	
6	0	0	0	0	516	462	1021	0	0	0	
7	0	0	0	0	525	468	1021	0	0	0	
8	0	0	0	0	535	476	1021	0	0	0	
9	0	0	0	0	544	485	1020	0	0	0	
10	0	0	0	0	554	493	1021	0	0	0	
11	0	0	0	0	563	502	1021	0	0	0	
12	0	0	0	0	571	510	1021	0	0	0	
13	0	0	0	0	577	517	1021	0	0	0	
14	0	0	0	0	583	524	1021	0	0	0	
15	0	0	0	0	589	529	1021	0	0	0	
0	0	0	0	0	592	533	1021	0	0	0	
1	0	0	0	0	593	535	1021	0	0	0	
2	0	0	0	0	592	534	1021	0	0	0	
3	0	0	0	0	589	530	1021	0	0	0	
4	0	0	0	0	584	525	1020	0	0	0	
5	0	0	0	0	577	518	1021	0	0	0	
6	0	0	0	0	568	508	1021	0	0	0	
7	0	0	0	0	558	497	1021	0	0	0	
8	0	0	0	0	546	487	1021	0	0	0	
9	0	0	0	0	535	476	1021	0	0	0	
10	0	0	0	0	524	467	1021	0	0	0	
11	0	0	0	0	515	460	1021	0	0	0	
12	0	0	0	0	510	456	1021	0	0	0	
13	0	0	0	0	508	456	1021	0	0	0	
14	0	0	0	0	509	459	1021	0	0	0	
15	0	0	0	0	513	464	1021	0	0	0	
0	0	0	0	0	518	469	1021	0	0	0	
1	0	0	0	0	524	475	1021	0	0	0	
2	0	0	0	0	531	480	1021	0	0	0	
3	0	0	0	0	536	485	1020	0	0	0	
4	0	0	0	0	540	488	1021	0	0	0	
5	0	0	0	0	542	488	1021	0	0	0	
6	0	0	0	0	541	486	1021	0	0	0	
7	0	0	0	0	538	482	1021	0	0	0	
8	0	0	0	0	534	478	1021	0	0	0	
9	0	0	0	0	529	473	1021	0	0	0	
10	0	0	0	0	524	467	1021	0	0	0	
11	0	0	0	0	519	463	1021	0	0	0	
12	0	0	0	0	515	459	1021	0	0	0	
13	0	0	0	0	513	458	1021	0	0	0	
14	0	0	0	0	513	459	1021	0	0	0	
15	0	0	0	0	516	462	1021	0	0	0	
0	0	0	0	0	521	467	1021	0	0	0	
1	0	0	0	0	528	473	1021	0	0	0	
2	0	0	0	0	536	480	1020	0	0	0	
3	0	0	0	0	543	487	1021	0	0	0	
4	0	0	0	0	548	492	1021	0	0	0	
5	0	0	0	0	551	494	1021	0	0	0	
6	0	0	0	0	551	495	1021	0	0	0	
7	0	0	0	0	548	492	1020	0	0	0	
8	0	0	0	0	542	488	1021	0	0	0	
9	0	0	0	0	535	481	1021	0	0	0	
10	0	0	0	0	527	475	1021	0	0	0	
11	0	0	0	0	520	469	1020	0	0	0	
12	0	0	0	0	515	463	1020	0	0	0	
13	0	0	0	0	511	459	1021	0	0	0	
14	0	0	0	0	508	455	1021	0	0	0	
15	0	0	0	0	505	452	1020	0	0	0	
0	0	0	0	0	504	450	1021	0	0	0	
1	0	0	0	0	505	449	1020	0	0	0	
2	0	0	0	0	507	450	1021	0	0	0	
3	0	0	0	0	510	452	1021	0	0	0	
4	0	0	0	0	514	455	1021	0	0	0	
5	0	0	0	0	519	460	1021	0	0	0	
6	0	0	0	0	526	465	1021	0	0	0	
7	0	0	0	0	532	472	1021	0	0	0	
8	0	0	0	0	537	477	1021	0	0	0	
9	0	0	0	0	543	483	1021	0	0	0	
10	0	0	0	0	549	489	1021	0	0	0	
11	0	0	0	0	554	494	1021	0	0	0	
12	0	0	0	0	558	499	1021	0	0	0	
13	0	0	0	0	560	500	1021	0	0	0	
14	0	0	0	0	560	500	1021	0	0	0	
15	0	0	0	0	557	497	1021	0	0	0	
0	0	0	0	0	552	493	1020	0	0	0	
1	0	0	0	0	546	487	1021	0	0	0	
2	0	0	0	0	539	480	1021	0	0	0	
3	0	0	0	0	533	474	1021	0	0	0	
4	0	0	0	0	526	468	1021	0	0	0	
5	0	0	0	0	521	463	1020	0	0	0	
6	0	0	0	0	517	461	1021	0	0	0	
7	0	0	0	0	515	460	1021	0	0	0	
8	0	0	0	0	515	461	1021	0	0	0	
9	0	0	0	0	516	463	1021	0	0	0	
10	0	0	0	0	520	468	1020	0	0	0	
11	0	0	0	0	524	473	1021	0	0	0	
12	0	0	0	0	529	478	1021	0	0	0	
13	0	0	0	0	533	481	1021	0	0	0	
14	0	0	0	0	536	484	1021	0	0	0	
15	0	0	0	0	539	486	1021	0	0	0	
0	0	0	0	0	539	486	1021	0	0	0	
1	0	0	0	0	539	484	1021	0	0	0	
2	0	0	0	0	537	482	1021	0	0	0	
3	0	0	0	0	534	478	1021	0	0	0	
4	0	0	0	0	532	476	1020	0	0	0	
5	0	0	0	0	531	473	1021	0	0	0	
6	0	0	0	0	529	471	1021	0	0	0	
7	0	0	0	0	529	469	1021	0	0	0	
8	0	0	0	0	530	470	1020	0	0	0	
9	0	0	0	0	533	472	1020	0	0	0	
10	0	0	0	0	539	477	1021	0	0	0	
11	0	0	0	0	547	484	1021	0	0	0	
12	0	0	0	0	557	493	1021	0	0	0	
13	0	0	0	0	568	504	1021	0	0	0	
14	0	0	0	0	580	516	1021	0	0	0	
15	0	0	0	0	591	527	1021	0	0	0	
0	0	0	0	0	600	537	1021	0	0	0	
1	0	0	0	0	606	543	1021	0	0	0	
2	0	0	0	0	608	547	1021	0	0	0	
3	0	0	0	0	605	545	1020	0	0	0	
4	0	0	0	0	597	540	1021	0	0	0	
5	0	0	0	0	585	529	1021	0	0	0	
6	0	0	0	0	569	515	1021	0	0	0	
7	0	0	0	0	551	500	1020	0	0	0	
8	0	0	0	0	532	484	1021	0	0	0	
9	0	0	0	0	515	469	1021	0	0	0	
10	0	0	0	0	499	455	1021	0	0	0	
11	0	0	0	0	487	444	1021	0	0	0	
12	0	0	0	0	479	436	1021	0	0	0	
13	0	0	0	0	474	432	1021	0	0	0	
14	0	0	0	0	474	432	1021	0	0	0	
15	0	0	0	0	479	435	1021	0	0	0	
0	0	0	0	0	487	441	1021	0	0	0	
1	0	0	0	0	497	450	1021	0	0	0	
2	0	0	0	0	511	462	1020	0	0	0	
3	0	0	0	0	526	474	1021	0	0	0	
4	0	0	0	0	541	486	1021	0	0	0	
5	0	0	0	0	555	497	1021	0	0	0	
6	0	0	0	0	566	506	1021	0	0	0	
7	0	0	0	0	576	513	1021	0	0	0	
8	0	0	0	0	582	518	1021	0	0	0	
9	0	0	0	0	583	519	1021	0	0	0	
10	0	0	0	0	582	517	1021	0	0	0	
11	0	0	0	0	576	512	1021	0	0	0	
12	0	0	0	0	568	506	1021	0	0	0	
13	0	0	0	0	559	500	1021	0	0	0	
14	0	0	0	0	549	492	1021	0	0	0	
15	0	0	0	0	540	486	1020	0	0	0	
0	0	0	0	0	532	481	1021	0	0	0	
1	0	0	0	0	527	476	1020	0	0	0	
2	0	0	0	0	524	475	1021	0	0	0	
3	0	0	0	0	524	474	1021	0	0	0	
4	0	0	0	0	524	474	1021	0	0	0	
5	0	0	0	0	525	474	1021	0	0	0	
6	0	0	0	0	525	474	1020	0	0	0	
7	0	0	0	0	524	472	1021	0	0	0	
8	0	0	0	0	520	468	1021	0	0	0	
9	0	0	0	0	513	462	1021	0	0	0	
10	0	0	0	0	503	452	1020	0	0	0	
11	0	0	0	0	489	440	1021	0	0	0	
12	0	0	0	0	473	425	1021	0	0	0	
13	0	0	0	0	454	407	1021	0	0	0	
14	0	0	0	0	433	389	1021	0	0	0	
15	0	0	0	0	412	369	1021	0	0	0	
0	0	0	0	0	390	349	1021	0	0	0	
1	0	0	0	0	368	329	1021	0	0	0	
2	0	0	0	0	348	310	1021	0	0	0	
3	0	0	0	0	329	291	1021	0	0	0	
4	0	0	0	0	312	274	1021	0	0	0	
5	0	0	0	0	299	260	1020	0	0	0	
6	0	0	0	0	287	248	1021	0	0	0	
7	0	0	0	0	280	239	1021	0	0	0	
8	0	0	0	0	275	234	1021	0	0	0	
9	0	0	0	0	275	232	1021	0	0	0	
10	0	0	0	0	280	235	1021	0	0	0	
11	0	0	0	0	289	242	1021	0	0	0	
12	0	0	0	0	302	252	1021	0	0	0	
13	0	0	0	0	319	267	1021	0	0	0	
14	0	0	0	0	339	284	1021	0	0	0	
15	0	0	0	0	362	304	1020	0	0	0	
0	0	0	0	0	387	327	1021	0	0	0	
1	0	0	0	0	414	350	1021	0	0	0	
2	0	0	0	0	441	374	1021	0	0	0	
3	0	0	0	0	467	397	1020	0	0	0	
4	0	0	0	0	494	419	1020	0	0	0	
5	0	0	0	0	518	440	1021	0	0	0	
6	0	0	0	0	539	458	1021	0	0	0	
7	0	0	0	0	556	472	1021	0	0	0	
8	0	0	0	0	570	485	1021	0	0	0	
9	0	0	0	0	578	494	1021	0	0	0	
10	0	0	0	0	583	500	1021	0	0	0	
11	0	0	0	0	583	503	1021	0	0	0	
12	0	0	0	0	580	504	1021	0	0	0	
13	0	0	0	0	576	505	1020	0	0	0	
14	0	0	0	0	571	505	1021	0	0	0	
15	0	0	0	0	567	507	1021	0	0	0	
0	0	0	0	0	562	507	1021	0	0	0	
1	0	0	0	0	560	508	1021	0	0	0	
2	0	0	0	0	558	511	1020	0	0	0	
3	0	0	0	0	559	513	1021	0	0	0	
4	0	0	0	0	560	516	1021	0	0	0	
5	0	0	0	0	563	519	1021	0	0	0	
6	0	0	0	0	566	520	1021	0	0	0	
7	0	0	0	0	569	521	1020	0	0	0	
8	0	0	0	0	571	521	1021	0	0	0	
9	0	0	0	0	574	522	1021	0	0	0	
10	0	0	0	0	575	521	1021	0	0	0	
11	0	0	0	0	576	520	1021	0	0	0	
12	0	0	0	0	575	519	1020	0	0	0	
13	0	0	0	0	572	515	1021	0	0	0	
14	0	0	0	0	567	511	1021	0	0	0	
15	0	0	0	0	561	504	1021	0	0	0	
0	0	0	0	0	554	499	1021	0	0	0	
1	0	0	0	0	547	494	1020	0	0	0	
2	0	0	0	0	541	490	1021	0	0	0	
3	0	0	0	0	536	487	1021	0	0	0	
4	0	0	0	0	534	486	1021	0	0	0	
5	0	0	0	0	533	487	1021	0	0	0	
6	0	0	0	0	535	489	1021	0	0	0	
7	0	0	0	0	539	493	1021	0	0	0	
8	0	0	0	0	544	497	1021	0	0	0	
9	0	0	0	0	550	501	1021	0	0	0	
10	0	0	0	0	557	505	1021	0	0	0	
11	0	0	0	0	564	510	1020	0	0	0	
12	0	0	0	0	571	513	1021	0	0	0	
13	0	0	0	0	577	517	1021	0	0	0	
14	0	0	0	0	580	518	1021	0	0	0	
15	0	0	0	0	581	517	1021	0	0	0	
0	0	0	0	0	579	516	1020	0	0	0	
1	0	0	0	0	575	512	1021	0	0	0	
2	0	0	0	0	571	510	1021	0	0	0	
3	0	0	0	0	566	507	1021	0	0	0	
4	0	0	0	0	562	505	1021	0	0	0	
5	0	0	0	0	559	505	1020	0	0	0	
6	0	0	0	0	558	505	1021	0	0	0	
7	0	0	0	0	559	508	1021	0	0	0	
8	0	0	0	0	560	510	1021	0	0	0	
9	0	0	0	0	561	511	1021	0	0	0	
10	0	0	0	0	562	513	1020	0	0	0	
11	0	0	0	0	561	512	1021	0	0	0	
12	0	0	0	0	559	511	1021	0	0	0	
13	0	0	0	0	556	507	1021	0	0	0	
14	0	0	0	0	551	502	1021	0	0	0	
15	0	0	0	0	545	496	1021	0	0	0	
0	0	0	0	0	539	491	1021	0	0	0	
1	0	0	0	0	534	486	1021	0	0	0	
2	0	0	0	0	530	481	1021	0	0	0	
3	0	0	0	0	528	479	1021	0	0	0	
4	0	0	0	0	529	479	1021	0	0	0	
5	0	0	0	0	532	480	1021	0	0	0	
6	0	0	0	0	538	484	1021	0	0	0	
7	0	0	0	0	545	489	1021	0	0	0	
8	0	0	0	0	553	496	1021	0	0	0	
9	0	0	0	0	561	503	1021	0	0	0	
10	0	0	0	0	569	510	1021	0	0	0	
11	0	0	0	0	575	516	1021	0	0	0	
12	0	0	0	0	581	521	1021	0	0	0	
13	0	0	0	0	584	526	1020	0	0	0	
14	0	0	0	0	588	529	1021	0	0	0	
15	0	0	0	0	591	531	1021	0	0	0	
0	0	0	0	0	592	534	1021	0	0	0	
1	0	0	0	0	592	534	1021	0	0	0	
2	0	0	0	0	591	532	1021	0	0	0	
3	0	0	0	0	588	530	1021	0	0	0	
4	0	0	0	0	583	526	1020	0	0	0	
5	0	0	0	0	577	521	1021	0	0	0	
6	0	0	0	0	569	515	1021	0	0	0	
7	0	0	0	0	561	508	1021	0	0	0	
8	0	0	0	0	551	500	1021	0	0	0	
9	0	0	0	0	543	493	1021	0	0	0	
10	0	0	0	0	535	488	1021	0	0	0	
11	0	0	0	0	528	483	1021	0	0	0	
12	0	0	0	0	524	480	1021	0	0	0	
13	0	0	0	0	522	480	1021	0	0	0	
14	0	0	0	0	522	480	1021	0	0	0	
15	0	0	0	0	524	483	1021	0	0	0	
0	0	0	0	0	528	486	1021	0	0	0	
1	0	0	0	0	533	491	1021	0	0	0	
2	0	0	0	0	540	495	1021	0	0	0	
3	0	0	0	0	547	500	1021	0	0	0	
4	0	0	0	0	554	505	1021	0	0	0	
5	0	0	0	0	560	508	1021	0	0	0	
6	0	0	0	0	566	511	1021	0	0	0	
7	0	0	0	0	571	513	1021	0	0	0	
8	0	0	0	0	573	513	1021	0	0	0	
9	0	0	0	0	574	513	1021	0	0	0	
10	0	0	0	0	574	512	1021	0	0	0	
11	0	0	0	0	573	511	1021	0	0	0	
12	0	0	0	0	573	511	1021	0	0	0	
13	0	0	0	0	574	513	1020	0	0	0	
14	0	0	0	0	576	518	1021	0	0	0	
15	0	0	0	0	580	523	1021	0	0	0	
0	0	0	0	0	585	529	1021	0	0	0	
1	0	0	0	0	591	536	1021	0	0	0	
2	0	0	0	0	596	542	1021	0	0	0	
3	0	0	0	0	600	546	1021	0	0	0	
4	0	0	0	0	600	547	1021	0	0	0	
5	0	0	0	0	598	545	1021	0	0	0	
6	0	0	0	0	592	540	1021	0	0	0	
7	0	0	0	0	584	533	1020	0	0	0	
8	0	0	0	0	574	524	1021	0	0	0	
9	0	0	0	0	561	512	1020	0	0	0	
10	0	0	0	0	550	500	1021	0	0	0	
11	0	0	0	0	537	487	1021	0	0	0	
12	0	0	0	0	526	477	1020	0	0	0	
13	0	0	0	0	518	468	1021	0	0	0	
14	0	0	0	0	511	461	1021	0	0	0	
15	0	0	0	0	507	456	1021	0	0	0	
0	0	0	0	0	506	454	1021	0	0	0	
1	0	0	0	0	508	455	1021	0	0	0	
2	0	0	0	0	511	457	1021	0	0	0	
3	0	0	0	0	516	461	1021	0	0	0	
4	0	0	0	0	521	466	1021	0	0	0	
5	0	0	0	0	527	471	1021	0	0	0	
6	0	0	0	0	532	476	1021	0	0	0	
7	0	0	0	0	537	481	1021	0	0	0	
8	0	0	0	0	541	484	1021	0	0	0	
9	0	0	0	0	544	487	1021	0	0	0	
10	0	0	0	0	546	490	1021	0	0	0	
11	0	0	0	0	546	491	1020	0	0	0	
12	0	0	0	0	545	491	1021	0	0	0	
13	0	0	0	0	542	488	1021	0	0	0	
14	0	0	0	0	539	484	1021	0	0	0	
15	0	0	0	0	534	480	1021	0	0	0	
0	0	0	0	0	529	476	1021	0	0	0	
1	0	0	0	0	526	472	1021	0	0	0	
2	0	0	0	0	523	469	1021	0	0	0	
3	0	0	0	0	524	468	1021	0	0	0	
4	0	0	0	0	527	470	1021	0	0	0	
5	0	0	0	0	534	476	1020	0	0	0	
6	0	0	0	0	544	485	1021	0	0	0	
7	0	0	0	0	557	496	1021	0	0	0	
8	0	0	0	0	572	509	1021	0	0	0	
9	0	0	0	0	587	522	1021	0	0	0	
10	0	0	0	0	598	534	1021	0	0	0	
11	0	0	0	0	607	542	1021	0	0	0	
12	0	0	0	0	609	545	1021	0	0	0	
13	0	0	0	0	606	543	1021	0	0	0	
14	0	0	0	0	598	537	1021	0	0	0	
15	0	0	0	0	584	527	1021	0	0	0	
0	0	0	0	0	567	513	1021	0	0	0	
1	0	0	0	0	546	497	1021	0	0	0	
2	0	0	0	0	526	480	1021	0	0	0	
3	0	0	0	0	505	463	1021	0	0	0	
4	0	0	0	0	487	448	1020	0	0	0	
5	0	0	0	0	473	436	1021	0	0	0	
6	0	0	0	0	463	427	1021	0	0	0	
7	0	0	0	0	458	421	1021	0	0	0	
8	0	0	0	0	458	420	1020	0	0	0	
9	0	0	0	0	463	422	1020	0	0	0	
10	0	0	0	0	473	428	1021	0	0	0	
11	0	0	0	0	486	437	1021	0	0	0	
12	0	0	0	0	502	448	1021	0	0	0	
13	0	0	0	0	519	461	1021	0	0	0	
14	0	0	0	0	536	473	1021	0	0	0	
15	0	0	0	0	552	486	1021	0	0	0	
0	0	0	0	0	566	497	1021	0	0	0	
1	0	0	0	0	577	506	1021	0	0	0	
2	0	0	0	0	584	512	1021	0	0	0	
3	0	0	0	0	588	516	1020	0	0	0	
4	0	0	0	0	588	517	1021	0	0	0	
5	0	0	0	0	583	514	1021	0	0	0	
6	0	0	0	0	574	508	1021	0	0	0	
7	0	0	0	0	563	502	1020	0	0	0	
8	0	0	0	0	551	492	1021	0	0	0	
9	0	0	0	0	538	483	1021	0	0	0	
10	0	0	0	0	526	473	1021	0	0	0	
11	0	0	0	0	517	466	1021	0	0	0	
12	0	0	0	0	511	462	1021	0	0	0	
13	0	0	0	0	512	463	1021	0	0	0	
14	0	0	0	0	519	470	1021	0	0	0	
15	0	0	0	0	532	480	1021	0	0	0	
0	0	0	0	0	549	494	1021	0	0	0	
1	0	0	0	0	568	510	1021	0	0	0	
2	0	0	0	0	588	525	1020	0	0	0	
3	0	0	0	0	606	539	1021	0	0	0	
4	0	0	0	0	620	549	1021	0	0	0	
5	0	0	0	0	628	554	1021	0	0	0	
6	0	0	0	0	630	555	1021	0	0	0	
7	0	0	0	0	625	550	1021	0	0	0	
8	0	0	0	0	614	541	1021	0	0	0	
9	0	0	0	0	598	528	1021	0	0	0	
10	0	0	0	0	580	513	1021	0	0	0	
11	0	0	0	0	561	499	1020	0	0	0	
12	0	0	0	0	542	485	1021	0	0	0	
13	0	0	0	0	526	473	1021	0	0	0	
14	0	0	0	0	513	464	1021	0	0	0	
15	0	0	0	0	505	458	1021	0	0	0	
0	0	0	0	0	499	455	1021	0	0	0	
1	0	0	0	0	497	453	1021	0	0	0	
2	0	0	0	0	499	455	1021	0	0	0	
3	0	0	0	0	504	459	1021	0	0	0	
4	0	0	0	0	511	464	1021	0	0	0	
5	0	0	0	0	519	470	1021	0	0	0	
6	0	0	0	0	529	477	1020	0	0	0	
7	0	0	0	0	539	484	1021	0	0	0	
8	0	0	0	0	550	492	1021	0	0	0	
9	0	0	0	0	559	498	1021	0	0	0	
10	0	0	0	0	567	504	1021	0	0	0	
11	0	0	0	0	572	507	1021	0	0	0	
12	0	0	0	0	575	510	1021	0	0	0	
13	0	0	0	0	575	510	1021	0	0	0	
14	0	0	0	0	574	509	1021	0	0	0	
15	0	0	0	0	572	508	1021	0	0	0	
0	0	0	0	0	569	506	1020	0	0	0	
1	0	0	0	0	565	504	1021	0	0	0	
2	0	0	0	0	560	501	1021	0	0	0	
3	0	0	0	0	555	497	1021	0	0	0	
4	0	0	0	0	549	493	1020	0	0	0	
5	0	0	0	0	544	489	1021	0	0	0	
6	0	0	0	0	540	486	1021	0	0	0	
7	0	0	0	0	537	484	1021	0	0	0	
8	0	0	0	0	537	484	1021	0	0	0	
9	0	0	0	0	539	486	1020	0	0	0	
10	0	0	0	0	542	488	1021	0	0	0	
11	0	0	0	0	547	492	1021	0	0	0	
12	0	0	0	0	554	497	1021	0	0	0	
13	0	0	0	0	561	502	1021	0	0	0	
14	0	0	0	0	568	507	1020	0	0	0	
15	0	0	0	0	573	510	1021	0	0	0	
0	0	0	0	0	577	512	1021	0	0	0	
1	0	0	0	0	579	512	1021	0	0	0	
2	0	0	0	0	578	510	1021	0	0	0	
3	0	0	0	0	575	506	1020	0	0	0	
4	0	0	0	0	569	499	1021	0	0	0	
5	0	0	0	0	561	493	1021	0	0	0	
6	0	0	0	0	553	486	1021	0	0	0	
7	0	0	0	0	545	480	1021	0	0	0	
8	0	0	0	0	538	476	1020	0	0	0	
9	0	0	0	0	532	471	1021	0	0	0	
10	0	0	0	0	528	470	1021	0	0	0	
11	0	0	0	0	526	469	1021	0	0	0	
12	0	0	0	0	526	471	1021	0	0	0	
13	0	0	0	0	527	473	1021	0	0	0	
14	0	0	0	0	530	477	1021	0	0	0	
15	0	0	0	0	533	482	1020	0	0	0	
0	0	0	0	0	536	486	1021	0	0	0	
1	0	0	0	0	539	489	1021	0	0	0	
2	0	0	0	0	541	492	1021	0	0	0	
3	0	0	0	0	542	492	1021	0	0	0	
4	0	0	0	0	542	492	1021	0	0	0	
5	0	0	0	0	540	490	1021	0	0	0	
6	0	0	0	0	537	487	1021	0	0	0	
7	0	0	0	0	535	484	1020	0	0	0	
8	0	0	0	0	534	482	1021	0	0	0	
9	0	0	0	0	534	482	1021	0	0	0	
10	0	0	0	0	534	481	1021	0	0	0	
11	0	0	0	0	536	480	1021	0	0	0	
12	0	0	0	0	536	480	1021	0	0	0	
13	0	0	0	0	537	479	1020	0	0	0	
14	0	0	0	0	536	479	1021	0	0	0	
15	0	0	0	0	536	478	1021	0	0	0	
0	0	0	0	0	535	476	1021	0	0	0	
1	0	0	0	0	534	476	1021	0	0	0	
2	0	0	0	0	533	476	1020	0	0	0	
3	0	0	0	0	533	476	1021	0	0	0	
4	0	0	0	0	533	476	1021	0	0	0	
5	0	0	0	0	534	477	1021	0	0	0	
6	0	0	0	0	535	478	1021	0	0	0	
7	0	0	0	0	537	479	1021	0	0	0	
8	0	0	0	0	539	480	1021	0	0	0	
9	0	0	0	0	540	480	1021	0	0	0	
10	0	0	0	0	542	480	1021	0	0	0	
11	0	0	0	0	543	480	1021	0	0	0	
12	0	0	0	0	546	481	1021	0	0	0	
13	0	0	0	0	550	483	1021	0	0	0	
14	0	0	0	0	553	485	1021	0	0	0	
15	0	0	0	0	557	487	1021	0	0	0	
0	0	0	0	0	560	489	1021	1	0	0	
1	0	0	0	0	564	492	1021	0	0	0	
2	0	0	0	0	567	496	1021	0	0	0	
3	0	0	0	0	569	499	1021	0	0	0	
4	0	0	0	0	571	502	1021	0	0	0	
5	0	0	0	0	572	505	1021	0	0	0	
6	0	0	0	0	573	508	1020	0	0	0	
7	0	0	0	0	573	510	1021	0	0	0	
8	0	0	0	0	572	512	1021	0	0	0	
9	0	0	0	0	570	512	1021	0	0	0	
10	0	0	0	0	568	512	1021	0	0	0	
11	0	0	0	0	564	511	1020	0	0	0	
12	0	0	0	0	560	509	1021	0	0	0	
13	0	0	0	0	555	505	1021	0	0	0	
14	0	0	0	0	550	499	1021	0	0	0	
15	0	0	0	0	544	494	1021	0	0	0	
0	0	0	0	0	540	489	1021	0	0	0	
1	0	0	0	0	536	485	1021	0	0	0	
2	0	0	0	0	534	481	1021	0	0	0	
3	0	0	0	0	533	477	1021	0	0	0	
4	0	0	0	0	531	474	1021	0	0	0	
5	0	0	0	0	530	471	1021	0	0	0	
6	0	0	0	0	529	468	1021	0	0	0	
7	0	0	0	0	527	465	1021	0	0	0	
8	0	0	0	0	525	463	1021	0	0	0	
9	0	0	0	0	523	460	1021	0	0	0	
10	0	0	0	0	519	458	1021	0	0	0	
11	0	0	0	0	517	457	1021	0	0	0	
12	0	0	0	0	515	457	1021	0	0	0	
13	0	0	0	0	515	459	1021	0	0	0	
14	0	0	0	0	516	461	1021	0	0	0	
15	0	0	0	0	519	465	1021	0	0	0	
0	0	0	0	0	522	469	1021	0	0	0	
1	0	0	0	0	526	473	1021	0	0	0	
2	0	0	0	0	530	476	1021	0	0	0	
3	0	0	0	0	534	479	1021	0	0	0	
4	0	0	0	0	539	481	1020	0	0	0	
5	0	0	0	0	543	484	1021	0	0	0	
6	0	0	0	0	547	486	1021	0	0	0	
7	0	0	0	0	551	487	1021	0	0	0	
8	0	0	0	0	555	490	1021	0	0	0	
9	0	0	0	0	561	495	1021	0	0	0	
10	0	0	0	0	568	501	1021	0	0	0	
11	0	0	0	0	575	508	1021	0	0	0	
12	0	0	0	0	584	516	1021	0	0	0	
13	0	0	0	0	591	524	1021	0	0	0	
14	0	0	0	0	597	529	1021	0	0	0	
15	0	0	0	0	601	535	1021	0	0	0	
0	0	0	0	0	601	536	1021	0	0	0	
1	0	0	0	0	597	534	1021	0	0	0	
2	0	0	0	0	590	529	1021	0	0	0	
3	0	0	0	0	579	521	1021	0	0	0	
4	0	0	0	0	565	510	1021	0	0	0	
5	0	0	0	0	549	496	1021	0	0	0	
6	0	0	0	0	531	481	1021	0	0	0	
7	0	0	0	0	513	465	1021	0	0	0	
8	0	0	0	0	496	450	1021	0	0	0	
9	0	0	0	0	480	437	1021	0	0	0	
10	0	0	0	0	468	425	1021	0	0	0	
11	0	0	0	0	458	415	1021	0	0	0	
12	0	0	0	0	453	410	1020	0	0	0	
13	0	0	0	0	452	408	1021	0	0	0	
14	0	0	0	0	456	412	1021	0	0	0	
15	0	0	0	0	465	418	1021	0	0	0	
0	0	0	0	0	477	427	1021	0	0	0	
1	0	0	0	0	492	440	1020	0	0	0	
2	0	0	0	0	508	454	1021	0	0	0	
3	0	0	0	0	524	467	1021	0	0	0	
4	0	0	0	0	540	481	1021	0	0	0	
5	0	0	0	0	555	494	1021	0	0	0	
6	0	0	0	0	567	505	1021	0	0	0	
7	0	0	0	0	577	514	1021	0	0	0	
8	0	0	0	0	586	522	1020	0	0	0	
9	0	0	0	0	591	526	1021	0	0	0	
10	0	0	0	0	593	527	1021	0	0	0	
11	0	0	0	0	593	527	1021	0	0	0	
12	0	0	0	0	592	524	1021	0	0	0	
13	0	0	0	0	590	521	1021	0	0	0	
14	0	0	0	0	585	516	1021	0	0	0	
15	0	0	0	0	580	511	1021	0	0	0	
0	0	0	0	0	574	505	1020	0	0	0	
1	0	0	0	0	568	498	1021	0	0	0	
2	0	0	0	0	559	492	1021	0	0	0	
3	0	0	0	0	550	485	1021	0	0	0	
4	0	0	0	0	540	479	1020	0	0	0	
5	0	0	0	0	532	474	1021	0	0	0	
6	0	0	0	0	524	470	1021	0	0	0	
7	0	0	0	0	518	467	1020	0	0	0	
8	0	0	0	0	513	465	1021	0	0	0	
9	0	0	0	0	509	463	1021	0	0	0	
10	0	0	0	0	506	462	1020	0	0	0	
11	0	0	0	0	504	460	1021	0	0	0	
12	0	0	0	0	503	459	1021	0	0	0	
13	0	0	0	0	503	457	1021	0	0	0	
14	0	0	0	0	503	455	1021	0	0	0	
15	0	0	0	0	504	455	1020	0	0	0	
0	0	0	0	0	506	454	1021	0	0	0	
1	0	0	0	0	509	455	1021	0	0	0	
2	0	0	0	0	513	455	1021	0	0	0	
3	0	0	0	0	517	457	1021	0	0	0	
4	0	0	0	0	522	460	1020	0	0	0	
5	0	0	0	0	528	463	1021	0	0	0	
6	0	0	0	0	535	469	1020	0	0	0	
7	0	0	0	0	542	474	1021	0	0	0	
8	0	0	0	0	550	481	1021	0	0	0	
9	0	0	0	0	559	490	1020	0	0	0	
10	0	0	0	0	568	498	1021	0	0	0	
11	0	0	0	0	576	507	1021	0	0	0	
12	0	0	0	0	583	513	1021	0	0	0	
13	0	0	0	0	587	518	1021	0	0	0	
14	0	0	0	0	588	522	1020	0	0	0	
15	0	0	0	0	587	522	1021	0	0	0	
0	0	0	0	0	583	521	1021	0	0	0	
1	0	0	0	0	575	516	1021	0	0	0	
2	0	0	0	0	566	508	1021	0	0	0	
3	0	0	0	0	552	498	1021	0	0	0	
4	0	0	0	0	538	486	1021	0	0	0	
5	0	0	0	0	523	474	1021	0	0	0	
6	0	0	0	0	508	461	1021	0	0	0	
7	0	0	0	0	496	449	1021	0	0	0	
8	0	0	0	0	485	440	1020	0	0	0	
9	0	0	0	0	479	434	1021	0	0	0	
10	0	0	0	0	478	432	1021	0	0	0	
11	0	0	0	0	482	434	1021	0	0	0	
12	0	0	0	0	490	439	1021	0	0	0	
13	0	0	0	0	502	447	1021	0	0	0	
14	0	0	0	0	515	456	1021	0	0	0	
15	0	0	0	0	529	467	1020	0	0	0	
0	0	0	0	0	543	476	1021	0	0	0	
1	0	0	0	0	556	486	1021	0	0	0	
2	0	0	0	0	566	494	1020	0	0	0	
3	0	0	0	0	572	500	1021	0	0	0	
4	0	0	0	0	575	504	1021	0	0	0	
5	0	0	0	0	575	504	1021	0	0	0	
6	0	0	0	0	572	502	1021	0	0	0	
7	0	0	0	0	565	498	1020	0	0	0	
8	0	0	0	0	557	493	1021	0	0	0	
9	0	0	0	0	547	487	1021	0	0	0	
10	0	0	0	0	538	480	1021	0	0	0	
11	0	0	0	0	529	473	1021	0	0	0	
12	0	0	0	0	521	469	1020	0	0	0	
13	0	0	0	0	516	465	1021	0	0	0	
14	0	0	0	0	514	465	1020	0	0	0	
15	0	0	0	0	515	466	1021	0	0	0	
0	0	0	0	0	520	470	1021	0	0	0	
1	0	0	0	0	527	476	1021	0	0	0	
2	0	0	0	0	535	483	1021	0	0	0	
3	0	0	0	0	543	491	1021	0	0	0	
4	0	0	0	0	553	498	1021	0	0	0	
5	0	0	0	0	561	504	1021	0	0	0	
6	0	0	0	0	567	510	1020	0	0	0	
7	0	0	0	0	571	512	1021	0	0	0	
8	0	0	0	0	572	512	1020	0	0	0	
9	0	0	0	0	571	509	1021	0	0	0	
10	0	0	0	0	567	504	1021	0	0	0	
11	0	0	0	0	560	499	1020	0	0	0	
12	0	0	0	0	553	492	1021	0	0	0	
13	0	0	0	0	546	486	1021	0	0	0	
14	0	0	0	0	540	480	1021	0	0	0	
15	0	0	0	0	536	476	1021	0	0	0	
0	0	0	0	0	532	474	1020	0	0	0	
1	0	0	0	0	532	473	1021	0	0	0	
2	0	0	0	0	533	475	1021	0	0	0	
3	0	0	0	0	537	478	1021	0	0	0	
4	0	0	0	0	542	483	1021	0	0	0	
5	0	0	0	0	548	489	1021	0	0	0	
6	0	0	0	0	555	495	1021	0	0	0	
7	0	0	0	0	562	502	1020	0	0	0	
8	0	0	0	0	567	506	1021	0	0	0	
9	0	0	0	0	571	511	1020	0	0	0	
10	0	0	0	0	575	514	1021	0	0	0	
11	0	0	0	0	578	517	1021	0	0	0	
12	0	0	0	0	581	520	1021	0	0	0	
13	0	0	0	0	582	520	1021	0	0	0	
14	0	0	0	0	582	519	1021	0	0	0	
15	0	0	0	0	578	517	1021	0	0	0	
0	0	0	0	0	573	511	1021	0	0	0	
1	0	0	0	0	565	505	1021	0	0	0	
2	0	0	0	0	555	496	1021	0	0	0	
3	0	0	0	0	545	487	1021	0	0	0	
4	0	0	0	0	535	480	1020	0	0	0	
5	0	0	0	0	526	473	1021	0	0	0	
6	0	0	0	0	520	468	1021	0	0	0	
7	0	0	0	0	516	465	1021	0	0	0	
8	0	0	0	0	515	464	1020	0	0	0	
9	0	0	0	0	518	467	1021	0	0	0	
10	0	0	0	0	523	472	1021	0	0	0	
11	0	0	0	0	530	478	1021	0	0	0	
12	0	0	0	0	537	483	1021	0	0	0	
13	0	0	0	0	543	488	1021	0	0	0	
14	0	0	0	0	548	492	1021	0	0	0	
15	0	0	0	0	551	493	1021	0	0	0	
0	0	0	0	0	551	493	1021	0	0	0	
1	0	0	0	0	550	490	1021	0	0	0	
2	0	0	0	0	544	484	1021	0	0	0	
3	0	0	0	0	538	478	1021	0	0	0	
4	0	0	0	0	530	469	1021	0	0	0	
5	0	0	0	0	521	460	1021	0	0	0	
6	0	0	0	0	511	450	1021	0	0	0	
7	0	0	0	0	501	441	1021	0	0	0	
8	0	0	0	0	492	434	1021	0	0	0	
9	0	0	0	0	485	428	1021	0	0	0	
10	0	0	0	0	480	425	1021	0	0	0	
11	0	0	0	0	478	425	1021	0	0	0	
12	0	0	0	0	480	428	1021	0	0	0	
13	0	0	0	0	484	433	1021	0	0	0	
14	0	0	0	0	492	441	1020	0	0	0	
15	0	0	0	0	501	450	1021	0	0	0	
0	0	0	0	0	511	459	1021	0	0	0	
1	0	0	0	0	523	468	1021	0	0	0	
2	0	0	0	0	532	476	1021	0	0	0	
3	0	0	0	0	541	482	1021	0	0	0	
4	0	0	0	0	548	487	1021	0	0	0	
5	0	0	0	0	551	487	1021	0	0	0	
6	0	0	0	0	553	487	1021	0	0	0	
7	0	0	0	0	552	485	1021	0	0	0	
8	0	0	0	0	550	482	1021	0	0	0	
9	0	0	0	0	547	479	1021	0	0	0	
10	0	0	0	0	543	476	1020	0	0	0	
11	0	0	0	0	541	473	1021	0	0	0	
12	0	0	0	0	537	471	1021	0	0	0	
13	0	0	0	0	535	469	1020	0	0	0	
14	0	0	0	0	533	468	1021	0	0	0	
15	0	0	0	0	531	468	1021	0	0	0	
0	0	0	0	0	531	468	1021	0	0	0	
1	0	0	0	0	530	470	1021	0	0	0	
2	0	0	0	0	531	473	1021	0	0	0	
3	0	0	0	0	534	478	1021	0	0	0	
4	0	0	0	0	537	481	1021	0	0	0	
5	0	0	0	0	540	486	1021	0	0	0	
6	0	0	0	0	543	489	1021	0	0	0	
7	0	0	0	0	547	493	1020	0	0	0	
8	0	0	0	0	550	496	1021	0	0	0	
9	0	0	0	0	552	498	1021	0	0	0	
10	0	0	0	0	555	499	1021	0	0	0	
11	0	0	0	0	556	499	1021	0	0	0	
12	0	0	0	0	558	499	1020	0	0	0	
13	0	0	0	0	559	499	1021	0	0	0	
14	0	0	0	0	559	497	1021	0	0	0	
15	0	0	0	0	560	496	1021	0	0	0	
0	0	0	0	0	560	495	1020	0	0	0	
1	0	0	0	0	560	494	1020	0	0	0	
2	0	0	0	0	561	495	1021	0	0	0	
3	0	0	0	0	563	497	1021	0	0	0	
4	0	0	0	0	566	500	1021	0	0	0	
5	0	0	0	0	569	504	1021	0	0	0	
6	0	0	0	0	572	508	1021	0	0	0	
7	0	0	0	0	575	513	1020	0	0	0	
8	0	0	0	0	577	517	1021	0	0	0	
9	0	0	0	0	579	520	1021	0	0	0	
10	0	0	0	0	579	522	1020	0	0	0	
11	0	0	0	0	577	521	1020	0	0	0	
12	0	0	0	0	573	519	1021	0	0	0	
13	0	0	0	0	568	514	1021	0	0	0	
14	0	0	0	0	561	508	1021	0	0	0	
15	0	0	0	0	553	501	1020	0	0	0	
0	0	0	0	0	547	493	1020	0	0	0	
1	0	0	0	0	540	486	1021	0	0	0	
2	0	0	0	0	535	480	1021	0	0	0	
3	0	0	0	0	530	474	1021	0	0	0	
4	0	0	0	0	526	469	1021	0	0	0	
5	0	0	0	0	524	466	1020	0	0	0	
6	0	0	0	0	523	464	1021	0	0	0	
7	0	0	0	0	524	463	1021	0	0	0	
8	0	0	0	0	527	466	1021	0	0	0	
9	0	0	0	0	531	470	1021	0	0	0	
10	0	0	0	0	539	477	1020	0	0	0	
11	0	0	0	0	548	487	1021	0	0	0	
12	0	0	0	0	559	496	1021	0	0	0	
13	0	0	0	0	569	506	1021	0	0	0	
14	0	0	0	0	579	516	1021	0	0	0	
15	0	0	0	0	589	525	1021	0	0	0	
0	0	0	0	0	596	531	1021	0	0	0	
1	0	0	0	0	600	534	1021	0	0	0	
2	0	0	0	0	600	533	1021	0	0	0	
3	0	0	0	0	595	528	1021	0	0	0	
4	0	0	0	0	585	519	1020	0	0	0	
5	0	0	0	0	572	507	1021	0	0	0	
6	0	0	0	0	555	492	1021	0	0	0	
7	0	0	0	0	537	476	1021	0	0	0	
8	0	0	0	0	519	461	1021	0	0	0	
9	0	0	0	0	502	448	1020	0	0	0	
10	0	0	0	0	488	436	1021	0	0	0	
11	0	0	0	0	476	427	1021	0	0	0	
12	0	0	0	0	468	419	1021	0	0	0	
13	0	0	0	0	461	414	1020	0	0	0	
14	0	0	0	0	455	409	1021	0	0	0	
15	0	0	0	0	450	404	1021	0	0	0	
0	0	0	0	0	445	398	1021	0	0	0	
1	0	0	0	0	438	391	1021	0	0	0	
2	0	0	0	0	430	383	1020	0	0	0	
3	0	0	0	0	423	374	1020	0	0	0	
4	0	0	0	0	414	364	1021	0	0	0	
5	0	0	0	0	406	354	1021	0	0	0	
6	0	0	0	0	398	344	1021	0	0	0	
7	0	0	0	0	390	334	1021	0	0	0	
8	0	0	0	0	384	325	1020	0	0	0	
9	0	0	0	0	378	317	1021	0	0	0	
10	0	0	0	0	374	310	1021	0	0	0	
11	0	0	0	0	370	303	1021	0	0	0	
12	0	0	0	0	365	296	1021	0	0	0	
13	0	0	0	0	359	289	1020	0	0	0	
14	0	0	0	0	352	283	1021	0	0	0	
15	0	0	0	0	345	277	1021	0	0	0	
0	0	0	0	0	340	273	1021	0	0	0	
1	0	0	0	0	335	271	1021	0	0	0	
2	0	0	0	0	333	272	1020	0	0	0	
3	0	0	0	0	334	276	1021	0	0	0	
4	0	0	0	0	339	283	1021	0	0	0	
5	0	0	0	0	347	292	1021	0	0	0	
6	0	0	0	0	359	305	1021	0	0	0	
7	0	0	0	0	374	320	1021	0	0	0	
8	0	0	0	0	392	337	1020	0	0	0	
9	0	0	0	0	414	355	1021	0	0	0	
10	0	0	0	0	436	374	1021	0	0	0	
11	0	0	0	0	459	392	1021	0	0	0	
12	0	0	0	0	480	410	1021	0	0	0	
13	0	0	0	0	501	426	1021	0	0	0	
14	0	0	0	0	519	440	1021	0	0	0	
15	0	0	0	0	534	452	1021	0	0	0	
0	0	0	0	0	546	463	1021	0	0	0	
1	0	0	0	0	555	473	1020	0	0	0	
2	0	0	0	0	563	481	1021	0	0	0	
3	0	0	0	0	568	489	1021	0	0	0	
4	0	0	0	0	572	496	1021	0	0	0	
5	0	0	0	0	576	503	1021	0	0	0	
6	0	0	0	0	580	511	1020	0	0	0	
7	0	0	0	0	584	519	1021	0	0	0	
8	0	0	0	0	589	526	1021	0	0	0	
9	0	0	0	0	593	533	1021	0	0	0	
10	0	0	0	0	597	538	1020	0	0	0	
11	0	0	0	0	600	541	1020	0	0	0	
12	0	0	0	0	600	541	1021	0	0	0	
13	0	0	0	0	597	538	1021	0	0	0	
14	0	0	0	0	591	531	1021	0	0	0	
15	0	0	0	0	584	524	1021	0	0	0	
0	0	0	0	0	575	514	1021	0	0	0	
1	0	0	0	0	565	504	1021	0	0	0	
2	0	0	0	0	555	494	1021	0	0	0	
3	0	0	0	0	547	486	1021	0	0	0	
4	0	0	0	0	540	479	1021	0	0	0	
5	0	0	0	0	536	476	1021	0	0	0	
6	0	0	0	0	536	475	1021	0	0	0	
7	0	0	0	0	538	478	1021	0	0	0	
8	0	0	0	0	544	483	1021	0	0	0	
9	0	0	0	0	552	491	1020	0	0	0	
10	0	0	0	0	561	500	1021	0	0	0	
11	0	0	0	0	572	510	1021	0	0	0	
12	0	0	0	0	580	518	1021	0	0	0	
13	0	0	0	0	588	525	1021	0	0	0	
14	0	0	0	0	592	531	1020	0	0	0	
15	0	0	0	0	593	531	1021	0	0	0	
0	0	0	0	0	590	530	1020	0	0	0	
1	0	0	0	0	584	524	1021	0	0	0	
2	0	0	0	0	575	516	1021	0	0	0	
3	0	0	0	0	563	507	1020	0	0	0	
4	0	0	0	0	553	497	1021	0	0	0	
5	0	0	0	0	543	489	1021	0	0	0	
6	0	0	0	0	535	481	1021	0	0	0	
7	0	0	0	0	530	476	1021	0	0	0	
8	0	0	0	0	527	473	1020	0	0	0	
9	0	0	0	0	527	472	1021	0	0	0	
10	0	0	0	0	531	474	1021	0	0	0	
11	0	0	0	0	538	479	1021	0	0	0	
12	0	0	0	0	547	487	1021	0	0	0	
13	0	0	0	0	560	498	1020	0	0	0	
14	0	0	0	0	573	509	1021	0	0	0	
15	0	0	0	0	586	521	1020	0	0	0	
0	0	0	0	0	599	532	1021	0	0	0	
1	0	0	0	0	609	542	1021	0	0	0	
2	0	0	0	0	617	550	1020	0	0	0	
3	0	0	0	0	622	554	1020	0	0	0	
4	0	0	0	0	622	554	1021	0	0	0	
5	0	0	0	0	617	551	1021	0	0	0	
6	0	0	0	0	607	543	1021	0	0	0	
7	0	0	0	0	593	532	1021	0	0	0	
8	0	0	0	0	578	519	1021	0	0	0	
9	0	0	0	0	561	505	1021	0	0	0	
10	0	0	0	0	545	491	1021	0	0	0	
11	0	0	0	0	530	479	1021	0	0	0	
12	0	0	0	0	518	468	1021	0	0	0	
13	0	0	0	0	511	462	1020	0	0	0	
14	0	0	0	0	508	460	1021	0	0	0	
15	0	0	0	0	512	462	1021	0	0	0	
0	0	0	0	0	521	469	1021	0	0	0	
1	0	0	0	0	534	480	1021	0	0	0	
2	0	0	0	0	551	494	1021	0	0	0	
3	0	0	0	0	570	509	1021	0	0	0	
4	0	0	0	0	588	523	1021	0	0	0	
5	0	0	0	0	602	534	1021	0	0	0	
6	0	0	0	0	612	542	1020	0	0	0	
7	0	0	0	0	617	544	1021	0	0	0	
8	0	0	0	0	614	542	1021	0	0	0	
9	0	0	0	0	605	533	1021	0	0	0	
10	0	0	0	0	590	521	1021	0	0	0	
11	0	0	0	0	572	507	1021	0	0	0	
12	0	0	0	0	552	491	1020	0	0	0	
13	0	0	0	0	532	475	1021	0	0	0	
14	0	0	0	0	513	461	1021	0	0	0	
15	0	0	0	0	497	450	1020	0	0	0	
0	0	0	0	0	487	442	1021	0	0	0	
1	0	0	0	0	481	439	1020	0	0	0	
2	0	0	0	0	481	440	1021	0	0	0	
3	0	0	0	0	486	444	1021	0	0	0	
4	0	0	0	0	496	452	1021	0	0	0	
5	0	0	0	0	509	463	1021	0	0	0	
6	0	0	0	0	526	476	1021	0	0	0	
7	0	0	0	0	543	488	1021	0	0	0	
8	0	0	0	0	560	500	1021	0	0	0	
9	0	0	0	0	575	510	1021	0	0	0	
10	0	0	0	0	587	519	1021	0	0	0	
11	0	0	0	0	596	525	1021	0	0	0	
12	0	0	0	0	603	529	1021	0	0	0	
13	0	0	0	0	606	531	1021	0	0	0	
14	0	0	0	0	606	530	1021	0	0	0	
15	0	0	0	0	603	528	1021	0	0	0	
0	0	0	0	0	599	526	1020	0	0	0	
1	0	0	0	0	592	521	1021	0	0	0	
2	0	0	0	0	584	515	1021	0	0	0	
3	0	0	0	0	575	509	1021	0	0	0	
4	0	0	0	0	564	502	1021	0	0	0	
5	0	0	0	0	556	496	1020	0	0	0	
6	0	0	0	0	548	492	1021	0	0	0	
7	0	0	0	0	543	489	1021	0	0	0	
8	0	0	0	0	541	488	1021	0	0	0	
9	0	0	0	0	542	490	1021	0	0	0	
10	0	0	0	0	545	493	1020	0	0	0	
11	0	0	0	0	549	497	1021	0	0	0	
12	0	0	0	0	553	500	1021	0	0	0	
13	0	0	0	0	558	503	1021	0	0	0	
14	0	0	0	0	560	504	1021	0	0	0	
15	0	0	0	0	563	504	1020	0	0	0	
0	0	0	0	0	563	503	1021	0	0	0	
1	0	0	0	0	562	500	1021	0	0	0	
2	0	0	0	0	560	497	1021	0	0	0	
3	0	0	0	0	558	493	1021	0	0	0	
4	0	0	0	0	556	490	1020	0	0	0	
5	0	0	0	0	555	488	1021	0	0	0	
6	0	0	0	0	554	487	1021	0	0	0	
7	0	0	0	0	555	487	1021	0	0	0	
8	0	0	0	0	556	488	1020	0	0	0	
9	0	0	0	0	558	490	1020	0	0	0	
10	0	0	0	0	560	492	1021	0	0	0	
11	0	0	0	0	563	495	1021	0	0	0	
12	0	0	0	0	566	498	1021	0	0	0	
13	0	0	0	0	567	501	1021	0	0	0	
14	0	0	0	0	568	503	1021	0	0	0	
15	0	0	0	0	568	504	1021	0	0	0	
0	0	0	0	0	566	504	1021	0	0	0	
1	0	0	0	0	563	501	1021	0	0	0	
2	0	0	0	0	558	498	1021	0	0	0	
3	0	0	0	0	552	494	1020	0	0	0	
4	0	0	0	0	547	489	1021	0	0	0	
5	0	0	0	0	540	483	1021	0	0	0	
6	0	0	0	0	534	477	1021	0	0	0	
7	0	0	0	0	527	471	1021	0	0	0	
8	0	0	0	0	523	466	1021	0	0	0	
9	0	0	0	0	519	462	1021	0	0	0	
10	0	0	0	0	517	458	1021	0	0	0	
11	0	0	0	0	516	455	1021	0	0	0	
12	0	0	0	0	517	455	1020	0	0	0	
13	0	0	0	0	519	455	1021	0	0	0	
14	0	0	0	0	523	459	1020	0	0	0	
15	0	0	0	0	529	463	1021	0	0	0	
0	0	0	0	0	536	469	1021	0	0	0	
1	0	0	0	0	544	477	1020	0	0	0	
2	0	0	0	0	553	486	1021	0	0	0	
3	0	0	0	0	563	496	1021	0	0	0	
4	0	0	0	0	573	504	1021	0	0	0	
5	0	0	0	0	582	513	1021	0	0	0	
6	0	0	0	0	590	521	1020	0	0	0	
7	0	0	0	0	595	526	1021	0	0	0	
8	0	0	0	0	599	529	1021	0	0	0	
9	0	0	0	0	599	529	1021	0	0	0	
10	0	0	0	0	595	526	1021	0	0	0	
11	0	0	0	0	589	521	1020	0	0	0	
12	0	0	0	0	580	513	1021	0	0	0	
13	0	0	0	0	569	505	1021	0	0	0	
14	0	0	0	0	558	496	1021	0	0	0	
15	0	0	0	0	547	487	1021	0	0	0	
0	0	0	0	0	537	480	1021	0	0	0	
1	0	0	0	0	530	475	1021	0	0	0	
2	0	0	0	0	525	472	1021	0	0	0	
3	0	0	0	0	523	471	1021	0	0	0	
4	0	0	0	0	524	473	1021	0	0	0	
5	0	0	0	0	527	476	1020	0	0	0	
6	0	0	0	0	532	480	1021	0	0	0	
7	0	0	0	0	537	486	1020	0	0	0	
8	0	0	0	0	542	489	1021	0	0	0	
9	0	0	0	0	546	492	1021	0	0	0	
10	0	0	0	0	547	492	1020	0	0	0	
11	0	0	0	0	547	490	1021	0	0	0	
12	0	0	0	0	543	486	1021	0	0	0	
13	0	0	0	0	538	479	1021	0	0	0	
14	0	0	0	0	530	471	1021	0	0	0	
15	0	0	0	0	521	463	1020	0	0	0	
0	0	0	0	0	513	455	1021	0	0	0	
1	0	0	0	0	506	449	1021	0	0	0	
2	0	0	0	0	501	444	1021	0	0	0	
3	0	0	0	0	497	440	1021	0	0	0	
4	0	0	0	0	497	440	1021	0	0	0	
5	0	0	0	0	499	442	1021	0	0	0	
6	0	0	0	0	506	448	1020	0	0	0	
7	0	0	0	0	515	455	1021	0	0	0	
8	0	0	0	0	527	466	1021	0	0	0	
9	0	0	0	0	541	478	1020	0	0	0	
10	0	0	0	0	556	491	1021	0	0	0	
11	0	0	0	0	571	503	1021	0	0	0	
12	0	0	0	0	583	513	1021	0	0	0	
13	0	0	0	0	593	521	1021	0	0	0	
14	0	0	0	0	599	526	1020	0	0	0	
15	0	0	0	0	600	527	1021	0	0	0	
0	0	0	0	0	597	524	1020	0	0	0	
1	0	0	0	0	590	518	1021	0	0	0	
2	0	0	0	0	579	509	1021	0	0	0	
3	0	0	0	0	567	499	1020	0	0	0	
4	0	0	0	0	553	488	1021	0	0	0	
5	0	0	0	0	540	479	1021	0	0	0	
6	0	0	0	0	528	469	1021	0	0	0	
7	0	0	0	0	519	463	1021	0	0	0	
8	0	0	0	0	515	460	1021	0	0	0	
9	0	0	0	0	513	459	1021	0	0	0	
10	0	0	0	0	516	462	1021	0	0	0	
11	0	0	0	0	521	466	1021	0	0	0	
12	0	0	0	0	530	473	1021	0	0	0	
13	0	0	0	0	539	481	1021	0	0	0	
14	0	0	0	0	548	488	1021	0	0	0	
15	0	0	0	0	557	496	1021	0	0	0	
0	0	0	0	0	564	501	1021	0	0	0	
1	0	0	0	0	571	507	1021	0	0	0	
2	0	0	0	0	576	510	1021	0	0	0	
3	0	0	0	0	578	512	1021	0	0	0	
4	0	0	0	0	579	512	1021	0	0	0	
5	0	0	0	0	575	508	1021	0	0	0	
6	0	0	0	0	570	504	1020	0	0	0	
7	0	0	0	0	564	497	1021	0	0	0	
8	0	0	0	0	557	491	1021	0	0	0	
9	0	0	0	0	550	485	1021	0	0	0	
10	0	0	0	0	543	479	1021	0	0	0	
11	0	0	0	0	539	474	1021	0	0	0	
12	0	0	0	0	535	471	1021	0	0	0	
13	0	0	0	0	534	470	1020	0	0	0	
14	0	0	0	0	535	470	1021	0	0	0	
15	0	0	0	0	537	472	1021	0	0	0	
0	0	0	0	0	542	476	1021	0	0	0	
1	0	0	0	0	548	481	1021	0	0	0	
2	0	0	0	0	555	487	1020	0	0	0	
3	0	0	0	0	562	494	1021	0	0	0	
4	0	0	0	0	568	499	1021	0	0	0	
5	0	0	0	0	573	502	1021	0	0	0	
6	0	0	0	0	575	504	1021	0	0	0	
7	0	0	0	0	575	504	1021	0	0	0	
8	0	0	0	0	572	502	1021	0	0	0	
9	0	0	0	0	567	497	1021	0	0	0	
10	0	0	0	0	560	492	1021	0	0	0	
11	0	0	0	0	552	487	1020	0	0	0	
12	0	0	0	0	544	480	1021	0	0	0	
13	0	0	0	0	538	476	1021	0	0	0	
14	0	0	0	0	533	473	1021	0	0	0	
15	0	0	0	0	531	472	1021	0	0	0	
0	0	0	0	0	530	473	1021	0	0	0	
1	0	0	0	0	532	475	1021	0	0	0	
2	0	0	0	0	537	479	1021	0	0	0	
3	0	0	0	0	543	484	1021	0	0	0	
4	0	0	0	0	550	489	1021	0	0	0	
5	0	0	0	0	556	496	1021	0	0	0	
6	0	0	0	0	563	501	1020	0	0	0	
7	0	0	0	0	567	505	1020	0	0	0	
8	0	0	0	0	568	506	1021	0	0	0	
9	0	0	0	0	567	505	1021	0	0	0	
10	0	0	0	0	564	501	1021	0	0	0	
11	0	0	0	0	557	495	1020	0	0	0	
12	0	0	0	0	548	487	1020	0	0	0	
13	0	0	0	0	536	476	1020	0	0	0	
14	0	0	0	0	524	465	1021	0	0	0	
15	0	0	0	0	512	453	1021	0	0	0	
0	0	0	0	0	501	443	1021	0	0	0	
1	0	0	0	0	493	435	1021	0	0	0	
2	0	0	0	0	487	430	1021	0	0	0	
3	0	0	0	0	486	427	1021	0	0	0	
4	0	0	0	0	487	429	1020	0	0	0	
5	0	0	0	0	492	433	1021	0	0	0	
6	0	0	0	0	500	440	1021	0	0	0	
7	0	0	0	0	509	447	1021	0	0	0	
8	0	0	0	0	519	455	1021	0	0	0	
9	0	0	0	0	529	464	1020	0	0	0	
10	0	0	0	0	539	472	1021	0	0	0	
11	0	0	0	0	547	479	1021	0	0	0	
12	0	0	0	0	552	484	1021	0	0	0	
13	0	0	0	0	555	487	1021	0	0	0	
14	0	0	0	0	555	487	1020	0	0	0	
15	0	0	0	0	551	485	1021	0	0	0	
0	0	0	0	0	545	481	1020	0	0	0	
1	0	0	0	0	537	474	1021	0	0	0	
2	0	0	0	0	528	467	1021	0	0	0	
3	0	0	0	0	519	460	1020	0	0	0	
4	0	0	0	0	511	452	1021	0	0	0	
5	0	0	0	0	504	447	1021	0	0	0	
6	0	0	0	0	500	442	1021	0	0	0	
7	0	0	0	0	497	439	1021	0	0	0	
8	0	0	0	0	497	438	1021	0	0	0	
9	0	0	0	0	499	439	1021	0	0	0	
10	0	0	0	0	504	443	1021	0	0	0	
11	0	0	0	0	511	447	1021	0	0	0	
12	0	0	0	0	519	454	1021	0	0	0	
13	0	0	0	0	529	462	1020	0	0	0	
14	0	0	0	0	539	471	1021	0	0	0	
15	0	0	0	0	548	479	1020	0	0	0	
0	0	0	0	0	557	487	1021	0	0	0	
1	0	0	0	0	565	494	1021	0	0	0	
2	0	0	0	0	571	500	1020	0	0	0	
3	0	0	0	0	574	504	1021	0	0	0	
4	0	0	0	0	575	507	1021	0	0	0	
5	0	0	0	0	575	508	1021	0	0	0	
6	0	0	0	0	575	508	1021	0	0	0	
7	0	0	0	0	574	509	1021	0	0	0	
8	0	0	0	0	573	510	1021	0	0	0	
9	0	0	0	0	574	512	1021	0	0	0	
10	0	0	0	0	575	513	1021	0	0	0	
11	0	0	0	0	577	516	1020	0	0	0	
12	0	0	0	0	581	519	1021	0	0	0	
13	0	0	0	0	583	520	1021	0	0	0	
14	0	0	0	0	585	522	1020	0	0	0	
15	0	0	0	0	587	521	1021	0	0	0	
0	0	0	0	0	587	520	1021	0	0	0	
1	0	0	0	0	583	517	1021	0	0	0	
2	0	0	0	0	579	512	1021	0	0	0	
3	0	0	0	0	572	507	1021	0	0	0	
4	0	0	0	0	565	500	1021	0	0	0	
5	0	0	0	0	557	494	1021	0	0	0	
6	0	0	0	0	547	487	1021	0	0	0	
7	0	0	0	0	539	480	1020	0	0	0	
8	0	0	0	0	530	473	1021	0	0	0	
9	0	0	0	0	519	464	1021	0	0	0	
10	0	0	0	0	510	456	1021	0	0	0	
11	0	0	0	0	501	448	1021	0	0	0	
12	0	0	0	0	494	441	1021	0	0	0	
13	0	0	0	0	489	436	1021	0	0	0	
14	0	0	0	0	487	433	1021	0	0	0	
15	0	0	0	0	488	432	1021	0	0	0	
0	0	0	0	0	492	435	1021	0	0	0	
1	0	0	0	0	499	440	1020	0	0	0	
2	0	0	0	0	509	448	1020	0	0	0	
3	0	0	0	0	521	457	1021	0	0	0	
4	0	0	0	0	535	468	1021	0	0	0	
5	0	0	0	0	547	478	1021	0	0	0	
6	0	0	0	0	558	487	1020	0	0	0	
7	0	0	0	0	566	495	1021	0	0	0	
8	0	0	0	0	572	500	1021	0	0	0	
9	0	0	0	0	575	504	1021	0	0	0	
10	0	0	0	0	574	505	1020	0	0	0	
11	0	0	0	0	572	504	1020	0	0	0	
12	0	0	0	0	567	501	1021	0	0	0	
13	0	0	0	0	559	496	1021	0	0	0	
14	0	0	0	0	550	488	1021	0	0	0	
15	0	0	0	0	540	481	1021	0	0	0	
0	0	0	0	0	530	473	1021	0	0	0	
1	0	0	0	0	522	466	1021	0	0	0	
2	0	0	0	0	515	460	1021	0	0	0	
3	0	0	0	0	512	456	1021	0	0	0	
4	0	0	0	0	512	456	1021	0	0	0	
5	0	0	0	0	516	459	1020	0	0	0	
6	0	0	0	0	523	464	1020	0	0	0	
7	0	0	0	0	531	471	1021	0	0	0	
8	0	0	0	0	542	479	1021	0	0	0	
9	0	0	0	0	553	488	1021	0	0	0	
10	0	0	0	0	564	497	1021	0	0	0	
11	0	0	0	0	574	505	1021	0	0	0	
12	0	0	0	0	581	511	1021	0	0	0	
13	0	0	0	0	585	514	1021	0	0	0	
14	0	0	0	0	585	514	1021	0	0	0	
15	0	0	0	0	581	511	1021	0	0	0	
0	0	0	0	0	573	505	1021	0	0	0	
1	0	0	0	0	563	497	1021	0	0	0	
2	0	0	0	0	551	488	1021	0	0	0	
3	0	0	0	0	538	478	1021	0	0	0	
4	0	0	0	0	525	469	1020	0	0	0	
5	0	0	0	0	513	460	1021	0	0	0	
6	0	0	0	0	503	451	1021	0	0	0	
7	0	0	0	0	495	444	1021	0	0	0	
8	0	0	0	0	489	439	1021	0	0	0	
9	0	0	0	0	487	436	1021	0	0	0	
10	0	0	0	0	488	437	1021	0	0	0	
11	0	0	0	0	493	440	1021	0	0	0	
12	0	0	0	0	502	445	1021	0	0	0	
13	0	0	0	0	513	453	1021	0	0	0	
14	0	0	0	0	526	463	1020	0	0	0	
15	0	0	0	0	541	473	1021	0	0	0	
0	0	0	0	0	555	484	1021	0	0	0	
1	0	0	0	0	568	494	1021	0	0	0	
2	0	0	0	0	576	501	1020	0	0	0	
3	0	0	0	0	581	504	1020	0	0	0	
4	0	0	0	0	582	505	1021	0	0	0	
5	0	0	0	0	578	503	1021	0	0	0	
6	0	0	0	0	571	497	1021	0	0	0	
7	0	0	0	0	561	491	1021	0	0	0	
8	0	0	0	0	550	483	1021	0	0	0	
9	0	0	0	0	539	475	1021	0	0	0	
10	0	0	0	0	529	468	1021	0	0	0	
11	0	0	0	0	521	463	1021	0	0	0	
12	0	0	0	0	517	462	1021	0	0	0	
13	0	0	0	0	517	462	1020	0	0	0	
14	0	0	0	0	520	467	1021	0	0	0	
15	0	0	0	0	527	473	1021	0	0	0	
0	0	0	0	0	536	481	1020	0	0	0	
1	0	0	0	0	547	491	1020	0	0	0	
2	0	0	0	0	558	500	1021	0	0	0	
3	0	0	0	0	569	510	1021	0	0	0	
4	0	0	0	0	579	518	1021	0	0	0	
5	0	0	0	0	587	523	1021	0	0	0	
6	0	0	0	0	591	526	1021	0	0	0	
7	0	0	0	0	592	526	1021	0	0	0	
8	0	0	0	0	588	522	1021	0	0	0	
9	0	0	0	0	580	514	1021	0	0	0	
10	0	0	0	0	569	504	1020	0	0	0	
11	0	0	0	0	555	492	1021	0	0	0	
12	0	0	0	0	540	480	1020	0	0	0	
13	0	0	0	0	527	468	1021	0	0	0	
14	0	0	0	0	514	458	1021	0	0	0	
15	0	0	0	0	504	449	1021	0	0	0	
0	0	0	0	0	495	444	1020	0	0	0	
1	0	0	0	0	491	441	1020	0	0	0	
2	0	0	0	0	490	440	1021	0	0	0	
3	0	0	0	0	492	442	1021	0	0	0	
4	0	0	0	0	497	446	1020	0	0	0	
5	0	0	0	0	503	450	1021	0	0	0	
6	0	0	0	0	511	456	1021	0	0	0	
7	0	0	0	0	519	464	1020	0	0	0	
8	0	0	0	0	529	471	1021	0	0	0	
9	0	0	0	0	540	478	1021	0	0	0	
10	0	0	0	0	548	486	1021	0	0	0	
11	0	0	0	0	557	493	1021	0	0	0	
12	0	0	0	0	564	499	1021	0	0	0	
13	0	0	0	0	570	503	1021	0	0	0	
14	0	0	0	0	574	506	1021	0	0	0	
15	0	0	0	0	574	505	1021	0	0	0	
0	0	0	0	0	572	503	1021	0	0	0	
1	0	0	0	0	566	499	1021	0	0	0	
2	0	0	0	0	558	492	1021	0	0	0	
3	0	0	0	0	550	485	1021	0	0	0	
4	0	0	0	0	540	478	1021	0	0	0	
5	0	0	0	0	531	472	1020	0	0	0	
6	0	0	0	0	524	467	1021	0	0	0	
7	0	0	0	0	519	466	1021	0	0	0	
8	0	0	0	0	519	468	1021	0	0	0	
9	0	0	0	0	523	472	1021	0	0	0	
10	0	0	0	0	531	480	1020	0	0	0	
11	0	0	0	0	543	490	1020	0	0	0	
12	0	0	0	0	555	500	1021	0	0	0	
13	0	0	0	0	567	509	1021	0	0	0	
14	0	0	0	0	575	516	1020	0	0	0	
15	0	0	0	0	580	518	1021	0	0	0	
0	0	0	0	0	579	516	1021	0	0	0	
1	0	0	0	0	573	510	1021	0	0	0	
2	0	0	0	0	563	500	1020	0	0	0	
3	0	0	0	0	548	486	1021	0	0	0	
4	0	0	0	0	531	472	1020	0	0	0	
5	0	0	0	0	514	457	1021	0	0	0	
6	0	0	0	0	499	444	1021	0	0	0	
7	0	0	0	0	486	432	1021	0	0	0	
8	0	0	0	0	477	426	1020	0	0	0	
9	0	0	0	0	473	423	1020	0	0	0	
10	0	0	0	0	475	424	1021	0	0	0	
11	0	0	0	0	483	431	1021	0	0	0	
12	0	0	0	0	496	441	1021	0	0	0	
13	0	0	0	0	511	454	1021	0	0	0	
14	0	0	0	0	529	468	1021	0	0	0	
15	0	0	0	0	547	483	1021	0	0	0	
0	0	0	0	0	563	496	1021	0	0	0	
1	0	0	0	0	575	505	1021	0	0	0	
2	0	0	0	0	583	512	1021	0	0	0	
3	0	0	0	0	586	514	1020	0	0	0	
4	0	0	0	0	583	512	1021	0	0	0	
5	0	0	0	0	576	507	1021	0	0	0	
6	0	0	0	0	566	499	1021	0	0	0	
7	0	0	0	0	554	490	1021	0	0	0	
8	0	0	0	0	542	481	1021	0	0	0	
9	0	0	0	0	531	474	1021	0	0	0	
10	0	0	0	0	522	467	1021	0	0	0	
11	0	0	0	0	515	462	1021	0	0	0	
12	0	0	0	0	511	459	1021	0	0	0	
13	0	0	0	0	510	457	1021	0	0	0	
14	0	0	0	0	511	460	1020	0	0	0	
15	0	0	0	0	516	463	1021	0	0	0	
0	0	0	0	0	524	469	1020	0	0	0	
1	0	0	0	0	533	475	1021	0	0	0	
2	0	0	0	0	544	483	1020	0	0	0	
3	0	0	0	0	554	491	1021	0	0	0	
4	0	0	0	0	563	497	1021	0	0	0	
5	0	0	0	0	570	502	1021	0	0	0	
6	0	0	0	0	574	505	1021	0	0	0	
7	0	0	0	0	574	505	1021	0	0	0	
8	0	0	0	0	570	502	1020	0	0	0	
9	0	0	0	0	561	495	1021	0	0	0	
10	0	0	0	0	551	485	1021	0	0	0	
11	0	0	0	0	538	475	1021	0	0	0	
12	0	0	0	0	525	465	1021	0	0	0	
13	0	0	0	0	512	455	1021	0	0	0	
14	0	0	0	0	502	446	1021	0	0	0	
15	0	0	0	0	492	439	1021	0	0	0	
0	0	0	0	0	485	433	1021	0	0	0	
1	0	0	0	0	481	430	1020	0	0	0	
2	0	0	0	0	480	430	1021	0	0	0	
3	0	0	0	0	483	433	1021	0	0	0	
4	0	0	0	0	490	439	1021	0	0	0	
5	0	0	0	0	500	448	1021	0	0	0	
6	0	0	0	0	513	460	1020	0	0	0	
7	0	0	0	0	528	472	1021	0	0	0	
8	0	0	0	0	543	485	1021	0	0	0	
9	0	0	0	0	558	496	1021	0	0	0	
10	0	0	0	0	568	504	1020	0	0	0	
11	0	0	0	0	574	508	1020	0	0	0	
12	0	0	0	0	575	508	1021	0	0	0	
13	0	0	0	0	571	504	1021	0	0	0	
14	0	0	0	0	563	496	1021	0	0	0	
15	0	0	0	0	551	486	1020	0	0	0	
0	0	0	0	0	537	473	1021	0	0	0	
1	0	0	0	0	523	462	1021	0	0	0	
2	0	0	0	0	510	451	1021	0	0	0	
3	0	0	0	0	499	442	1020	0	0	0	
4	0	0	0	0	490	435	1021	0	0	0	
5	0	0	0	0	485	432	1020	0	0	0	
6	0	0	0	0	484	433	1021	0	0	0	
7	0	0	0	0	488	436	1021	0	0	0	
8	0	0	0	0	495	444	1021	0	0	0	
9	0	0	0	0	507	454	1020	0	0	0	
10	0	0	0	0	520	465	1021	0	0	0	
11	0	0	0	0	536	478	1021	0	0	0	
12	0	0	0	0	554	492	1021	0	0	0	
13	0	0	0	0	572	507	1021	0	0	0	
14	0	0	0	0	590	522	1020	0	0	0	
15	0	0	0	0	607	534	1021	0	0	0	
0	0	0	0	0	620	545	1020	0	0	0	
1	0	0	0	0	628	550	1021	0	0	0	
2	0	0	0	0	630	550	1021	0	0	0	
3	0	0	0	0	624	543	1020	0	0	0	
4	0	0	0	0	611	532	1021	0	0	0	
5	0	0	0	0	593	518	1021	0	0	0	
6	0	0	0	0	570	500	1021	0	0	0	
7	0	0	0	0	546	483	1021	0	0	0	
8	0	0	0	0	523	466	1020	0	0	0	
9	0	0	0	0	501	451	1021	0	0	0	
10	0	0	0	0	483	439	1021	0	0	0	
11	0	0	0	0	471	431	1021	0	0	0	
12	0	0	0	0	463	426	1021	0	0	0	
13	0	0	0	0	460	425	1020	0	0	0	
14	0	0	0	0	462	428	1021	0	0	0	
15	0	0	0	0	468	433	1020	0	0	0	
0	0	0	0	0	479	440	1021	0	0	0	
1	0	0	0	0	491	448	1021	0	0	0	
2	0	0	0	0	505	456	1020	0	0	0	
3	0	0	0	0	519	464	1021	0	0	0	
4	0	0	0	0	530	471	1021	0	0	0	
5	0	0	0	0	541	476	1021	0	0	0	
6	0	0	0	0	549	479	1021	0	0	0	
7	0	0	0	0	555	482	1020	0	0	0	
8	0	0	0	0	560	483	1021	0	0	0	
9	0	0	0	0	563	485	1021	0	0	0	
10	0	0	0	0	567	487	1021	0	0	0	
11	0	0	0	0	571	491	1021	0	0	0	
12	0	0	0	0	574	496	1020	0	0	0	
13	0	0	0	0	579	502	1021	0	0	0	
14	0	0	0	0	584	509	1020	0	0	0	
15	0	0	0	0	588	515	1021	0	0	0	
0	0	0	0	0	589	519	1021	0	0	0	
1	0	0	0	0	587	521	1020	0	0	0	
2	0	0	0	0	583	520	1021	0	0	0	
3	0	0	0	0	576	518	1021	0	0	0	
4	0	0	0	0	568	512	1021	0	0	0	
5	0	0	0	0	556	505	1020	0	0	0	
6	0	0	0	0	546	497	1021	0	0	0	
7	0	0	0	0	533	487	1021	0	0	0	
8	0	0	0	0	519	476	1020	0	0	0	
9	0	0	0	0	506	463	1021	0	0	0	
10	0	0	0	0	494	451	1021	0	0	0	
11	0	0	0	0	483	439	1021	0	0	0	
12	0	0	0	0	473	428	1021	0	0	0	
13	0	0	0	0	467	420	1021	0	0	0	
14	0	0	0	0	463	413	1021	0	0	0	
15	0	0	0	0	461	408	1021	0	0	0	
0	0	0	0	0	462	407	1021	0	0	0	
1	0	0	0	0	465	407	1021	0	0	0	
2	0	0	0	0	471	410	1020	0	0	0	
3	0	0	0	0	479	415	1021	0	0	0	
4	0	0	0	0	488	422	1021	0	0	0	
5	0	0	0	0	498	431	1021	0	0	0	
6	0	0	0	0	509	441	1020	0	0	0	
7	0	0	0	0	520	451	1021	0	0	0	
8	0	0	0	0	531	462	1021	0	0	0	
9	0	0	0	0	542	473	1021	0	0	0	
10	0	0	0	0	552	483	1021	0	0	0	
11	0	0	0	0	561	492	1021	0	0	0	
12	0	0	0	0	568	500	1021	0	0	0	
13	0	0	0	0	574	506	1021	0	0	0	
14	0	0	0	0	579	510	1021	0	0	0	
15	0	0	0	0	581	513	1021	0	0	0	
0	0	0	0	0	583	516	1020	0	0	0	
1	0	0	0	0	584	516	1021	0	0	0	
2	0	0	0	0	584	517	1021	0	0	0	
3	0	0	0	0	583	515	1020	0	0	0	
4	0	0	0	0	580	512	1021	0	0	0	
5	0	0	0	0	576	509	1020	0	0	0	
6	0	0	0	0	571	504	1021	0	0	0	
7	0	0	0	0	564	498	1021	0	0	0	
8	0	0	0	0	556	491	1021	0	0	0	
9	0	0	0	0	546	482	1021	0	0	0	
10	0	0	0	0	535	473	1020	0	0	0	
11	0	0	0	0	522	463	1021	0	0	0	
12	0	0	0	0	508	451	1021	0	0	0	
13	0	0	0	0	494	439	1021	0	0	0	
14	0	0	0	0	479	426	1021	0	0	0	
15	0	0	0	0	463	413	1021	0	0	0	
0	0	0	0	0	449	400	1021	0	0	0	
1	0	0	0	0	435	387	1021	0	0	0	
2	0	0	0	0	421	374	1020	0	0	0	
3	0	0	0	0	408	360	1021	0	0	0	
4	0	0	0	0	396	348	1020	0	0	0	
5	0	0	0	0	385	335	1021	0	0	0	
6	0	0	0	0	376	323	1021	0	0	0	
7	0	0	0	0	368	312	1021	0	0	0	
8	0	0	0	0	361	302	1020	0	0	0	
9	0	0	0	0	355	293	1020	0	0	0	
10	0	0	0	0	349	285	1021	0	0	0	
11	0	0	0	0	344	278	1021	0	0	0	
12	0	0	0	0	338	271	1021	0	0	0	
13	0	0	0	0	332	265	1020	0	0	0	
14	0	0	0	0	327	260	1021	0	0	0	
15	0	0	0	0	323	258	1021	0	0	0	
0	0	0	0	0	323	259	1021	0	0	0	
1	0	0	0	0	324	263	1020	0	0	0	
2	0	0	0	0	330	270	1021	0	0	0	
3	0	0	0	0	339	280	1020	0	0	0	
4	0	0	0	0	352	292	1021	0	0	0	
5	0	0	0	0	368	307	1021	0	0	0	
6	0	0	0	0	387	323	1021	0	0	0	
7	0	0	0	0	406	341	1021	0	0	0	
8	0	0	0	0	427	359	1021	0	0	0	
9	0	0	0	0	448	376	1021	0	0	0	
10	0	0	0	0	469	395	1021	0	0	0	
11	0	0	0	0	490	413	1020	0	0	0	
12	0	0	0	0	510	430	1021	0	0	0	
13	0	0	0	0	529	447	1020	0	0	0	
14	0	0	0	0	546	463	1021	0	0	0	
15	0	0	0	0	560	477	1021	0	0	0	
0	0	0	0	0	571	491	1021	0	0	0	
1	0	0	0	0	580	500	1021	0	0	0	
2	0	0	0	0	586	509	1020	0	0	0	
3	0	0	0	0	589	516	1021	0	0	0	
4	0	0	0	0	589	519	1021	0	0	0	
5	0	0	0	0	586	520	1021	0	0	0	
6	0	0	0	0	581	519	1021	0	0	0	
7	0	0	0	0	574	515	1021	0	0	0	
8	0	0	0	0	565	509	1020	0	0	0	
9	0	0	0	0	554	500	1021	0	0	0	
10	0	0	0	0	542	489	1021	0	0	0	
11	0	0	0	0	529	478	1021	0	0	0	
12	0	0	0	0	516	466	1021	0	0	0	
13	0	0	0	0	504	455	1021	0	0	0	
14	0	0	0	0	493	444	1021	0	0	0	
15	0	0	0	0	486	435	1021	0	0	0	
0	0	0	0	0	480	430	1021	0	0	0	
1	0	0	0	0	479	428	1020	0	0	0	
2	0	0	0	0	482	429	1020	0	0	0	
3	0	0	0	0	488	433	1021	0	0	0	
4	0	0	0	0	498	439	1021	0	0	0	
5	0	0	0	0	508	447	1021	0	0	0	
6	0	0	0	0	519	457	1020	0	0	0	
7	0	0	0	0	531	467	1021	0	0	0	
8	0	0	0	0	542	476	1021	0	0	0	
9	0	0	0	0	551	484	1021	0	0	0	
10	0	0	0	0	559	491	1020	0	0	0	
11	0	0	0	0	564	497	1020	0	0	0	
12	0	0	0	0	568	502	1021	0	0	0	
13	0	0	0	0	571	505	1021	0	0	0	
14	0	0	0	0	572	507	1021	0	0	0	
15	0	0	0	0	572	508	1021	0	0	0	
0	0	0	0	0	572	510	1021	0	0	0	
1	0	0	0	0	572	511	1021	0	0	0	
2	0	0	0	0	574	512	1021	0	0	0	
3	0	0	0	0	575	513	1021	0	0	0	
4	0	0	0	0	575	513	1021	0	0	0	
5	0	0	0	0	575	513	1020	0	0	0	
6	0	0	0	0	574	511	1021	0	0	0	
7	0	0	0	0	571	508	1021	0	0	0	
8	0	0	0	0	568	505	1021	0	0	0	
9	0	0	0	0	563	501	1021	0	0	0	
10	0	0	0	0	559	497	1021	0	0	0	
11	0	0	0	0	556	495	1021	0	0	0	
12	0	0	0	0	552	493	1021	0	0	0	
13	0	0	0	0	550	491	1021	0	0	0	
14	0	0	0	0	548	490	1020	0	0	0	
15	0	0	0	0	546	489	1021	0	0	0	
0	0	0	0	0	544	488	1021	0	0	0	
1	0	0	0	0	543	486	1021	0	0	0	
2	0	0	0	0	541	484	1021	0	0	0	
3	0	0	0	0	540	483	1021	0	0	0	
4	0	0	0	0	540	483	1020	0	0	0	
5	0	0	0	0	540	483	1021	0	0	0	
6	0	0	0	0	540	482	1021	0	0	0	
7	0	0	0	0	541	483	1021	0	0	0	
8	0	0	0	0	543	484	1021	0	0	0	
9	0	0	0	0	547	487	1021	0	0	0	
10	0	0	0	0	554	493	1021	0	0	0	
11	0	0	0	0	563	500	1021	0	0	0	
12	0	0	0	0	575	510	1021	0	0	0	
13	0	0	0	0	588	522	1021	0	0	0	
14	0	0	0	0	603	535	1021	0	0	0	
15	0	0	0	0	620	550	1021	0	0	0	
0	0	0	0	0	636	563	1021	0	0	0	
1	0	0	0	0	647	573	1021	0	0	0	
2	0	0	0	0	653	577	1021	0	0	0	
3	0	0	0	0	651	576	1020	0	0	0	
4	0	0	0	0	640	567	1021	0	0	0	
5	0	0	0	0	620	551	1021	0	0	0	
6	0	0	0	0	594	529	1021	0	0	0	
7	0	0	0	0	563	505	1021	0	0	0	
8	0	0	0	0	531	479	1021	0	0	0	
9	0	0	0	0	498	455	1021	0	0	0	
10	0	0	0	0	469	431	1021	0	0	0	
11	0	0	0	0	445	412	1021	0	0	0	
12	0	0	0	0	427	397	1020	0	0	0	
13	0	0	0	0	415	388	1021	0	0	0	
14	0	0	0	0	413	385	1021	0	0	0	
15	0	0	0	0	419	388	1021	0	0	0	
0	0	0	0	0	432	397	1021	0	0	0	
1	0	0	0	0	451	411	1020	0	0	0	
2	0	0	0	0	476	428	1021	0	0	0	
3	0	0	0	0	504	448	1021	0	0	0	
4	0	0	0	0	534	468	1021	0	0	0	
5	0	0	0	0	561	487	1021	0	0	0	
6	0	0	0	0	584	503	1021	0	0	0	
7	0	0	0	0	601	515	1021	0	0	0	
8	0	0	0	0	611	522	1020	0	0	0	
9	0	0	0	0	614	523	1021	0	0	0	
10	0	0	0	0	609	520	1021	0	0	0	
11	0	0	0	0	600	513	1021	0	0	0	
12	0	0	0	0	587	505	1021	0	0	0	
13	0	0	0	0	572	497	1021	0	0	0	
14	0	0	0	0	558	490	1021	0	0	0	
15	0	0	0	0	547	483	1021	0	0	0	
0	0	0	0	0	538	480	1021	0	0	0	
1	0	0	0	0	533	479	1021	0	0	0	
2	0	0	0	0	532	481	1021	0	0	0	
3	0	0	0	0	534	484	1021	0	0	0	
4	0	0	0	0	539	488	1021	0	0	0	
5	0	0	0	0	545	493	1021	0	0	0	
6	0	0	0	0	553	500	1021	0	0	0	
7	0	0	0	0	562	506	1021	0	0	0	
8	0	0	0	0	571	513	1021	0	0	0	
9	0	0	0	0	579	519	1020	0	0	0	
10	0	0	0	0	585	524	1021	0	0	0	
11	0	0	0	0	591	527	1021	0	0	0	
12	0	0	0	0	592	528	1021	0	0	0	
13	0	0	0	0	590	526	1021	0	0	0	
14	0	0	0	0	584	519	1021	0	0	0	
15	0	0	0	0	574	510	1021	0	0	0	
0	0	0	0	0	560	499	1021	0	0	0	
1	0	0	0	0	543	485	1021	0	0	0	
2	0	0	0	0	526	470	1021	0	0	0	
3	0	0	0	0	510	455	1021	0	0	0	
4	0	0	0	0	494	443	1021	0	0	0	
5	0	0	0	0	480	432	1020	0	0	0	
6	0	0	0	0	471	423	1021	0	0	0	
7	0	0	0	0	465	419	1021	0	0	0	
8	0	0	0	0	465	419	1020	0	0	0	
9	0	0	0	0	468	422	1021	0	0	0	
10	0	0	0	0	476	428	1020	0	0	0	
11	0	0	0	0	487	437	1020	0	0	0	
12	0	0	0	0	500	446	1021	0	0	0	
13	0	0	0	0	513	456	1021	0	0	0	
14	0	0	0	0	526	466	1020	0	0	0	
15	0	0	0	0	538	473	1021	0	0	0	
0	0	0	0	0	547	479	1021	0	0	0	
1	0	0	0	0	553	482	1021	0	0	0	
2	0	0	0	0	556	484	1020	0	0	0	
3	0	0	0	0	557	482	1021	0	0	0	
4	0	0	0	0	555	480	1020	0	0	0	
5	0	0	0	0	553	478	1021	0	0	0	
6	0	0	0	0	550	476	1021	0	0	0	
7	0	0	0	0	548	475	1021	0	0	0	
8	0	0	0	0	548	477	1020	0	0	0	
9	0	0	0	0	551	481	1021	0	0	0	
10	0	0	0	0	555	487	1021	0	0	0	
11	0	0	0	0	563	496	1021	0	0	0	
12	0	0	0	0	571	505	1021	0	0	0	
13	0	0	0	0	580	514	1021	0	0	0	
14	0	0	0	0	588	522	1021	0	0	0	
15	0	0	0	0	593	527	1021	0	0	0	
0	0	0	0	0	593	527	1021	0	0	0	
1	0	0	0	0	590	524	1021	0	0	0	
2	0	0	0	0	582	519	1021	0	0	0	
3	0	0	0	0	573	511	1021	0	0	0	
4	0	0	0	0	562	503	1021	0	0	0	
5	0	0	0	0	551	494	1021	0	0	0	
6	0	0	0	0	540	486	1021	0	0	0	
7	0	0	0	0	531	478	1021	0	0	0	
8	0	0	0	0	524	472	1021	0	0	0	
9	0	0	0	0	518	467	1021	0	0	0	
10	0	0	0	0	515	463	1021	0	0	0	
11	0	0	0	0	513	460	1021	0	0	0	
12	0	0	0	0	513	458	1021	0	0	0	
13	0	0	0	0	513	457	1021	0	0	0	
14	0	0	0	0	517	459	1020	0	0	0	
15	0	0	0	0	521	461	1021	0	0	0	
0	0	0	0	0	527	466	1020	0	0	0	
1	0	0	0	0	536	471	1021	0	0	0	
2	0	0	0	0	544	478	1021	0	0	0	
3	0	0	0	0	553	485	1021	0	0	0	
4	0	0	0	0	562	492	1021	0	0	0	
5	0	0	0	0	570	499	1021	0	0	0	
6	0	0	0	0	577	505	1021	0	0	0	
7	0	0	0	0	583	510	1021	0	0	0	
8	0	0	0	0	587	514	1020	0	0	0	
9	0	0	0	0	588	514	1021	0	0	0	
10	0	0	0	0	586	512	1021	0	0	0	
11	0	0	0	0	580	507	1021	0	0	0	
12	0	0	0	0	572	500	1021	0	0	0	
13	0	0	0	0	560	491	1021	0	0	0	
14	0	0	0	0	545	478	1021	0	0	0	
15	0	0	0	0	530	466	1021	0	0	0	
0	0	0	0	0	513	453	1021	0	0	0	
1	0	0	0	0	498	441	1021	0	0	0	
2	0	0	0	0	486	433	1021	0	0	0	
3	0	0	0	0	476	426	1021	0	0	0	
4	0	0	0	0	471	423	1021	0	0	0	
5	0	0	0	0	470	422	1021	0	0	0	
6	0	0	0	0	472	425	1020	0	0	0	
7	0	0	0	0	478	430	1021	0	0	0	
8	0	0	0	0	487	436	1021	0	0	0	
9	0	0	0	0	497	444	1021	0	0	0	
10	0	0	0	0	510	451	1021	0	0	0	
11	0	0	0	0	522	460	1020	0	0	0	
12	0	0	0	0	534	467	1021	0	0	0	
13	0	0	0	0	544	473	1021	0	0	0	
14	0	0	0	0	553	478	1021	0	0	0	
15	0	0	0	0	560	482	1020	0	0	0	
0	0	0	0	0	565	484	1021	0	0	0	
1	0	0	0	0	568	486	1021	0	0	0	
2	0	0	0	0	568	487	1021	0	0	0	
3	0	0	0	0	568	486	1021	0	0	0	
4	0	0	0	0	564	485	1021	0	0	0	
5	0	0	0	0	560	484	1020	0	0	0	
6	0	0	0	0	556	482	1021	0	0	0	
7	0	0	0	0	551	481	1021	0	0	0	
8	0	0	0	0	546	481	1020	0	0	0	
9	0	0	0	0	542	480	1021	0	0	0	
10	0	0	0	0	538	480	1021	0	0	0	
11	0	0	0	0	536	480	1021	0	0	0	
12	0	0	0	0	535	481	1021	0	0	0	
13	0	0	0	0	535	481	1021	0	0	0	
14	0	0	0	0	534	480	1021	0	0	0	
15	0	0	0	0	532	478	1021	0	0	0	
0	0	0	0	0	530	475	1021	0	0	0	
1	0	0	0	0	527	471	1021	0	0	0	
2	0	0	0	0	524	466	1020	0	0	0	
3	0	0	0	0	521	461	1021	0	0	0	
4	0	0	0	0	518	457	1020	0	0	0	
5	0	0	0	0	516	454	1020	0	0	0	
6	0	0	0	0	514	451	1021	0	0	0	
7	0	0	0	0	513	448	1021	0	0	0	
8	0	0	0	0	513	448	1020	0	0	0	
9	0	0	0	0	514	449	1021	0	0	0	
10	0	0	0	0	518	453	1021	0	0	0	
11	0	0	0	0	523	459	1021	0	0	0	
12	0	0	0	0	531	466	1021	0	0	0	
13	0	0	0	0	538	475	1021	0	0	0	
14	0	0	0	0	547	484	1021	0	0	0	
15	0	0	0	0	557	494	1021	0	0	0	
0	0	0	0	0	567	502	1021	0	0	0	
1	0	0	0	0	575	509	1021	0	0	0	
2	0	0	0	0	579	513	1021	0	0	0	
3	0	0	0	0	581	514	1021	0	0	0	
4	0	0	0	0	579	511	1021	0	0	0	
5	0	0	0	0	574	505	1021	0	0	0	
6	0	0	0	0	565	496	1021	0	0	0	
7	0	0	0	0	553	486	1020	0	0	0	
8	0	0	0	0	541	474	1021	0	0	0	
9	0	0	0	0	528	463	1021	0	0	0	
10	0	0	0	0	516	453	1021	0	0	0	
11	0	0	0	0	506	445	1021	0	0	0	
12	0	0	0	0	499	440	1021	1	0	0	
13	0	0	0	0	495	438	1021	0	0	0	
14	0	0	0	0	495	438	1021	0	0	0	
15	0	0	0	0	498	441	1021	0	0	0	
0	0	0	0	0	504	447	1021	0	0	0	
1	0	0	0	0	513	454	1021	0	0	0	
2	0	0	0	0	525	464	1020	0	0	0	
3	0	0	0	0	537	474	1021	0	0	0	
4	0	0	0	0	551	483	1021	0	0	0	
5	0	0	0	0	562	491	1021	0	0	0	
6	0	0	0	0	569	496	1021	0	0	0	
7	0	0	0	0	574	499	1021	0	0	0	
8	0	0	0	0	574	498	1021	0	0	0	
9	0	0	0	0	569	493	1021	0	0	0	
10	0	0	0	0	560	486	1021	0	0	0	
11	0	0	0	0	548	476	1020	0	0	0	
12	0	0	0	0	534	464	1021	0	0	0	
13	0	0	0	0	519	452	1021	0	0	0	
14	0	0	0	0	504	441	1021	0	0	0	
15	0	0	0	0	492	432	1021	0	0	0	
0	0	0	0	0	482	425	1020	0	0	0	
1	0	0	0	0	476	421	1021	0	0	0	
2	0	0	0	0	476	421	1021	0	0	0	
3	0	0	0	0	480	425	1021	0	0	0	
4	0	0	0	0	489	432	1021	0	0	0	
5	0	0	0	0	500	442	1020	0	0	0	
6	0	0	0	0	515	453	1021	0	0	0	
7	0	0	0	0	531	466	1020	0	0	0	
8	0	0	0	0	546	477	1021	0	0	0	
9	0	0	0	0	559	487	1021	0	0	0	
10	0	0	0	0	569	495	1020	0	0	0	
11	0	0	0	0	575	498	1021	0	0	0	
12	0	0	0	0	576	499	1021	0	0	0	
13	0	0	0	0	573	496	1021	0	0	0	
14	0	0	0	0	566	490	1021	0	0	0	
15	0	0	0	0	556	482	1021	0	0	0	
0	0	0	0	0	544	474	1021	0	0	0	
1	0	0	0	0	531	465	1021	0	0	0	
2	0	0	0	0	519	455	1021	0	0	0	
3	0	0	0	0	509	448	1021	0	0	0	
4	0	0	0	0	500	442	1020	0	0	0	
5	0	0	0	0	495	439	1021	0	0	0	
6	0	0	0	0	493	438	1020	0	0	0	
7	0	0	0	0	494	439	1021	0	0	0	
8	0	0	0	0	497	441	1021	0	0	0	
9	0	0	0	0	502	446	1020	0	0	0	
10	0	0	0	0	509	452	1021	0	0	0	
11	0	0	0	0	517	459	1021	0	0	0	
12	0	0	0	0	524	464	1021	0	0	0	
13	0	0	0	0	531	470	1021	0	0	0	
14	0	0	0	0	537	474	1020	0	0	0	
15	0	0	0	0	543	478	1021	0	0	0	
0	0	0	0	0	546	480	1020	0	0	0	
1	0	0	0	0	548	481	1021	0	0	0	
2	0	0	0	0	548	480	1021	0	0	0	
3	0	0	0	0	546	479	1020	0	0	0	
4	0	0	0	0	543	476	1021	0	0	0	
5	0	0	0	0	538	471	1021	0	0	0	
6	0	0	0	0	531	466	1021	0	0	0	
7	0	0	0	0	524	460	1021	0	0	0	
8	0	0	0	0	516	454	1020	0	0	0	
9	0	0	0	0	510	449	1021	0	0	0	
10	0	0	0	0	505	445	1020	0	0	0	
11	0	0	0	0	502	443	1021	0	0	0	
12	0	0	0	0	500	442	1021	0	0	0	
13	0	0	0	0	501	443	1020	0	0	0	
14	0	0	0	0	504	446	1021	0	0	0	
15	0	0	0	0	510	451	1020	0	0	0	
0	0	0	0	0	517	457	1021	0	0	0	
1	0	0	0	0	526	464	1021	0	0	0	
2	0	0	0	0	535	472	1021	0	0	0	
3	0	0	0	0	544	479	1021	0	0	0	
4	0	0	0	0	554	486	1021	0	0	0	
5	0	0	0	0	562	492	1021	0	0	0	
6	0	0	0	0	568	497	1021	0	0	0	
7	0	0	0	0	572	499	1020	0	0	0	
8	0	0	0	0	574	500	1021	0	0	0	
9	0	0	0	0	573	499	1021	0	0	0	
10	0	0	0	0	570	496	1021	0	0	0	
11	0	0	0	0	566	493	1021	0	0	0	
12	0	0	0	0	559	489	1020	0	0	0	
13	0	0	0	0	554	485	1021	0	0	0	
14	0	0	0	0	548	483	1020	0	0	0	
15	0	0	0	0	545	481	1021	0	0	0	
0	0	0	0	0	543	481	1021	0	0	0	
1	0	0	0	0	542	482	1020	0	0	0	
2	0	0	0	0	543	484	1021	0	0	0	
3	0	0	0	0	545	486	1020	0	0	0	
4	0	0	0	0	546	487	1021	0	0	0	
5	0	0	0	0	546	487	1021	0	0	0	
6	0	0	0	0	545	486	1020	0	0	0	
7	0	0	0	0	543	483	1021	0	0	0	
8	0	0	0	0	538	479	1021	0	0	0	
9	0	0	0	0	533	474	1021	0	0	0	
10	0	0	0	0	527	468	1021	0	0	0	
11	0	0	0	0	521	462	1021	0	0	0	
12	0	0	0	0	516	457	1020	0	0	0	
13	0	0	0	0	514	455	1021	0	0	0	
14	0	0	0	0	515	454	1021	0	0	0	
15	0	0	0	0	518	456	1021	0	0	0	
0	0	0	0	0	524	460	1021	0	0	0	
1	0	0	0	0	532	467	1020	0	0	0	
2	0	0	0	0	542	475	1021	0	0	0	
3	0	0	0	0	553	484	1021	0	0	0	
4	0	0	0	0	563	492	1021	0	0	0	
5	0	0	0	0	572	499	1021	0	0	0	
6	0	0	0	0	578	504	1020	0	0	0	
7	0	0	0	0	581	506	1021	0	0	0	
8	0	0	0	0	579	505	1021	0	0	0	
9	0	0	0	0	574	502	1021	0	0	0	
10	0	0	0	0	563	495	1020	0	0	0	
11	0	0	0	0	550	485	1020	0	0	0	
12	0	0	0	0	534	473	1021	0	0	0	
13	0	0	0	0	517	462	1021	0	0	0	
14	0	0	0	0	501	450	1021	0	0	0	
15	0	0	0	0	486	440	1021	0	0	0	
0	0	0	0	0	475	432	1021	0	0	0	
1	0	0	0	0	468	427	1021	0	0	0	
2	0	0	0	0	466	426	1021	0	0	0	
3	0	0	0	0	468	428	1020	0	0	0	
4	0	0	0	0	476	432	1021	0	0	0	
5	0	0	0	0	487	439	1020	0	0	0	
6	0	0	0	0	501	448	1021	0	0	0	
7	0	0	0	0	515	457	1021	0	0	0	
8	0	0	0	0	530	466	1021	0	0	0	
9	0	0	0	0	542	474	1021	0	0	0	
10	0	0	0	0	551	479	1020	0	0	0	
11	0	0	0	0	556	482	1021	0	0	0	
12	0	0	0	0	556	482	1021	0	0	0	
13	0	0	0	0	553	480	1021	0	0	0	
14	0	0	0	0	547	475	1020	0	0	0	
15	0	0	0	0	537	469	1020	0	0	0	
0	0	0	0	0	526	461	1021	0	0	0	
1	0	0	0	0	513	453	1021	0	0	0	
2	0	0	0	0	501	445	1020	0	0	0	
3	0	0	0	0	489	436	1021	0	0	0	
4	0	0	0	0	480	429	1020	0	0	0	
5	0	0	0	0	472	424	1021	0	0	0	
6	0	0	0	0	469	421	1021	0	0	0	
7	0	0	0	0	469	421	1021	0	0	0	
8	0	0	0	0	472	423	1020	0	0	0	
9	0	0	0	0	480	428	1020	0	0	0	
10	0	0	0	0	491	436	1021	0	0	0	
11	0	0	0	0	504	446	1021	0	0	0	
12	0	0	0	0	519	456	1021	0	0	0	
13	0	0	0	0	534	468	1021	0	0	0	
14	0	0	0	0	550	480	1021	0	0	0	
15	0	0	0	0	563	492	1021	0	0	0	
0	0	0	0	0	574	500	1021	0	0	0	
1	0	0	0	0	582	507	1021	0	0	0	
2	0	0	0	0	585	511	1021	0	0	0	
3	0	0	0	0	586	512	1020	0	0	0	
4	0	0	0	0	584	511	1021	0	0	0	
5	0	0	0	0	580	509	1021	0	0	0	
6	0	0	0	0	575	505	1021	0	0	0	
7	0	0	0	0	569	503	1020	0	0	0	
8	0	0	0	0	564	500	1021	0	0	0	
9	0	0	0	0	561	498	1021	0	0	0	
10	0	0	0	0	558	496	1021	0	0	0	
11	0	0	0	0	556	493	1021	0	0	0	
12	0	0	0	0	553	491	1021	0	0	0	
13	0	0	0	0	551	489	1020	0	0	0	
14	0	0	0	0	550	488	1021	0	0	0	
15	0	0	0	0	548	487	1021	0	0	0	
0	0	0	0	0	546	485	1021	0	0	0	
1	0	0	0	0	544	483	1021	0	0	0	
2	0	0	0	0	542	483	1020	0	0	0	
3	0	0	0	0	540	481	1021	0	0	0	
4	0	0	0	0	538	480	1021	0	0	0	
5	0	0	0	0	537	480	1021	0	0	0	
6	0	0	0	0	536	480	1020	0	0	0	
7	0	0	0	0	536	480	1021	0	0	0	
8	0	0	0	0	536	480	1021	0	0	0	
9	0	0	0	0	536	479	1021	0	0	0	
10	0	0	0	0	535	476	1021	0	0	0	
11	0	0	0	0	532	473	1020	0	0	0	
12	0	0	0	0	528	468	1020	0	0	0	
13	0	0	0	0	523	462	1021	0	0	0	
14	0	0	0	0	517	455	1021	0	0	0	
15	0	0	0	0	510	448	1021	0	0	0	
0	0	0	0	0	503	441	1021	0	0	0	
1	0	0	0	0	497	435	1020	0	0	0	
2	0	0	0	0	493	432	1021	0	0	0	
3	0	0	0	0	491	431	1021	0	0	0	
4	0	0	0	0	492	432	1021	0	0	0	
5	0	0	0	0	495	436	1021	0	0	0	
6	0	0	0	0	500	442	1020	0	0	0	
7	0	0	0	0	507	449	1021	0	0	0	
8	0	0	0	0	515	457	1021	0	0	0	
9	0	0	0	0	523	464	1021	0	0	0	
10	0	0	0	0	531	472	1020	0	0	0	
11	0	0	0	0	540	480	1020	0	0	0	
12	0	0	0	0	549	487	1021	0	0	0	
13	0	0	0	0	557	493	1021	0	0	0	
14	0	0	0	0	566	499	1021	0	0	0	
15	0	0	0	0	572	503	1021	0	0	0	
0	0	0	0	0	576	505	1021	0	0	0	
1	0	0	0	0	579	506	1021	0	0	0	
2	0	0	0	0	580	505	1021	0	0	0	
3	0	0	0	0	579	502	1021	0	0	0	
4	0	0	0	0	575	499	1021	0	0	0	
5	0	0	0	0	571	496	1020	0	0	0	
6	0	0	0	0	568	493	1021	0	0	0	
7	0	0	0	0	565	492	1021	0	0	0	
8	0	0	0	0	565	493	1021	0	0	0	
9	0	0	0	0	565	495	1021	0	0	0	
10	0	0	0	0	566	497	1021	0	0	0	
11	0	0	0	0	565	499	1021	0	0	0	
12	0	0	0	0	564	499	1021	0	0	0	
13	0	0	0	0	560	498	1021	0	0	0	
14	0	0	0	0	554	494	1020	0	0	0	
15	0	0	0	0	545	489	1021	0	0	0	
0	0	0	0	0	535	481	1021	0	0	0	
1	0	0	0	0	523	472	1021	0	0	0	
2	0	0	0	0	511	462	1021	0	0	0	
3	0	0	0	0	498	451	1021	0	0	0	
4	0	0	0	0	486	441	1020	0	0	0	
5	0	0	0	0	476	432	1021	0	0	0	
6	0	0	0	0	468	423	1021	0	0	0	
7	0	0	0	0	463	417	1021	0	0	0	
8	0	0	0	0	462	415	1020	0	0	0	
9	0	0	0	0	464	414	1021	0	0	0	
10	0	0	0	0	470	416	1021	0	0	0	
11	0	0	0	0	479	422	1021	0	0	0	
12	0	0	0	0	490	429	1021	0	0	0	
13	0	0	0	0	503	439	1021	0	0	0	
14	0	0	0	0	516	449	1021	0	0	0	
15	0	0	0	0	530	460	1021	0	0	0	
0	0	0	0	0	542	470	1021	0	0	0	
1	0	0	0	0	552	479	1021	0	0	0	
2	0	0	0	0	560	485	1021	0	0	0	
3	0	0	0	0	563	489	1020	0	0	0	
4	0	0	0	0	564	491	1021	0	0	0	
5	0	0	0	0	561	489	1021	0	0	0	
6	0	0	0	0	555	485	1021	0	0	0	
7	0	0	0	0	547	479	1021	0	0	0	
8	0	0	0	0	537	473	1021	0	0	0	
9	0	0	0	0	527	465	1021	0	0	0	
10	0	0	0	0	518	459	1021	0	0	0	
11	0	0	0	0	511	454	1021	0	0	0	
12	0	0	0	0	506	450	1021	0	0	0	
13	0	0	0	0	505	450	1020	0	0	0	
14	0	0	0	0	507	452	1021	0	0	0	
15	0	0	0	0	512	457	1021	0	0	0	
0	0	0	0	0	521	465	1020	0	0	0	
1	0	0	0	0	531	473	1021	0	0	0	
2	0	0	0	0	543	482	1020	0	0	0	
3	0	0	0	0	554	491	1021	0	0	0	
4	0	0	0	0	564	498	1021	0	0	0	
5	0	0	0	0	572	504	1021	0	0	0	
6	0	0	0	0	577	508	1020	0	0	0	
7	0	0	0	0	581	509	1021	0	0	0	
8	0	0	0	0	582	509	1021	0	0	0	
9	0	0	0	0	580	507	1021	0	0	0	
10	0	0	0	0	575	503	1020	0	0	0	
11	0	0	0	0	569	497	1021	0	0	0	
12	0	0	0	0	560	491	1021	0	0	0	
13	0	0	0	0	551	484	1021	0	0	0	
14	0	0	0	0	541	477	1021	0	0	0	
15	0	0	0	0	533	471	1021	0	0	0	
0	0	0	0	0	527	466	1021	0	0	0	
1	0	0	0	0	524	465	1020	0	0	0	
2	0	0	0	0	525	467	1021	0	0	0	
3	0	0	0	0	530	472	1021	0	0	0	
4	0	0	0	0	537	478	1021	0	0	0	
5	0	0	0	0	547	485	1021	0	0	0	
6	0	0	0	0	556	493	1021	0	0	0	
7	0	0	0	0	564	499	1021	0	0	0	
8	0	0	0	0	569	501	1021	0	0	0	
9	0	0	0	0	569	500	1021	0	0	0	
10	0	0	0	0	564	495	1021	0	0	0	
11	0	0	0	0	555	487	1021	0	0	0	
12	0	0	0	0	541	475	1021	0	0	0	
13	0	0	0	0	525	462	1021	0	0	0	
14	0	0	0	0	508	447	1021	0	0	0	
15	0	0	0	0	491	434	1020	0	0	0	
0	0	0	0	0	476	422	1021	0	0	0	
1	0	0	0	0	464	413	1020	0	0	0	
2	0	0	0	0	457	407	1021	0	0	0	
3	0	0	0	0	455	404	1021	0	0	0	
4	0	0	0	0	457	406	1021	0	0	0	
5	0	0	0	0	464	411	1021	0	0	0	
6	0	0	0	0	475	419	1021	0	0	0	
7	0	0	0	0	491	431	1021	0	0	0	
8	0	0	0	0	508	444	1020	0	0	0	
9	0	0	0	0	526	459	1020	0	0	0	
10	0	0	0	0	543	472	1021	0	0	0	
11	0	0	0	0	559	484	1021	0	0	0	
12	0	0	0	0	571	494	1021	0	0	0	
13	0	0	0	0	579	499	1021	0	0	0	
14	0	0	0	0	582	502	1021	0	0	0	
15	0	0	0	0	579	501	1021	0	0	0	
0	0	0	0	0	573	496	1021	0	0	0	
1	0	0	0	0	562	488	1021	0	0	0	
2	0	0	0	0	550	479	1021	0	0	0	
3	0	0	0	0	536	469	1021	0	0	0	
4	0	0	0	0	524	461	1020	0	0	0	
5	0	0	0	0	514	454	1021	0	0	0	
6	0	0	0	0	506	449	1021	0	0	0	
7	0	0	0	0	500	445	1021	0	0	0	
8	0	0	0	0	497	443	1021	0	0	0	
9	0	0	0	0	497	443	1021	0	0	0	
10	0	0	0	0	499	445	1021	0	0	0	
11	0	0	0	0	503	448	1021	0	0	0	
12	0	0	0	0	509	452	1021	0	0	0	
13	0	0	0	0	515	457	1021	0	0	0	
14	0	0	0	0	522	463	1021	0	0	0	
15	0	0	0	0	528	468	1021	0	0	0	
0	0	0	0	0	534	472	1021	0	0	0	
1	0	0	0	0	539	475	1021	0	0	0	
2	0	0	0	0	541	476	1020	0	0	0	
3	0	0	0	0	542	477	1021	0	0	0	
4	0	0	0	0	541	475	1021	0	0	0	
5	0	0	0	0	539	472	1021	0	0	0	
6	0	0	0	0	535	468	1021	0	0	0	
7	0	0	0	0	531	465	1021	0	0	0	
8	0	0	0	0	526	461	1021	0	0	0	
9	0	0	0	0	523	458	1021	0	0	0	
10	0	0	0	0	520	456	1021	0	0	0	
11	0	0	0	0	520	456	1021	0	0	0	
12	0	0	0	0	521	459	1020	0	0	0	
13	0	0	0	0	525	463	1020	0	0	0	
14	0	0	0	0	530	468	1021	0	0	0	
15	0	0	0	0	536	475	1021	0	0	0	
0	0	0	0	0	543	481	1021	0	0	0	
1	0	0	0	0	547	487	1020	0	0	0	
2	0	0	0	0	551	492	1021	0	0	0	
3	0	0	0	0	553	495	1021	0	0	0	
4	0	0	0	0	554	496	1021	0	0	0	
5	0	0	0	0	553	497	1020	0	0	0	
6	0	0	0	0	551	495	1021	0	0	0	
7	0	0	0	0	548	492	1021	0	0	0	
8	0	0	0	0	544	489	1020	0	0	0	
9	0	0	0	0	542	486	1021	0	0	0	
10	0	0	0	0	541	483	1021	0	0	0	
11	0	0	0	0	541	483	1021	0	0	0	
12	0	0	0	0	544	483	1021	0	0	0	
13	0	0	0	0	549	486	1021	0	0	0	
14	0	0	0	0	556	489	1021	0	0	0	
15	0	0	0	0	564	494	1021	0	0	0	
0	0	0	0	0	572	499	1021	0	0	0	
1	0	0	0	0	579	503	1021	0	0	0	
2	0	0	0	0	585	507	1021	0	0	0	
3	0	0	0	0	588	509	1021	0	0	0	
4	0	0	0	0	588	509	1021	0	0	0	
5	0	0	0	0	584	507	1021	0	0	0	
6	0	0	0	0	577	504	1021	0	0	0	
7	0	0	0	0	568	499	1021	0	0	0	
8	0	0	0	0	557	494	1021	0	0	0	
9	0	0	0	0	545	487	1020	0	0	0	
10	0	0	0	0	533	480	1021	0	0	0	
11	0	0	0	0	521	474	1021	0	0	0	
12	0	0	0	0	512	468	1020	0	0	0	
13	0	0	0	0	504	462	1021	0	0	0	
14	0	0	0	0	497	457	1021	0	0	0	
15	0	0	0	0	493	453	1021	0	0	0	
0	0	0	0	0	491	450	1021	0	0	0	
1	0	0	0	0	490	448	1021	0	0	0	
2	0	0	0	0	492	447	1021	0	0	0	
3	0	0	0	0	495	446	1020	0	0	0	
4	0	0	0	0	499	446	1021	0	0	0	
5	0	0	0	0	504	448	1021	0	0	0	
6	0	0	0	0	511	451	1021	0	0	0	
7	0	0	0	0	519	456	1021	0	0	0	
8	0	0	0	0	527	461	1021	0	0	0	
9	0	0	0	0	534	467	1020	0	0	0	
10	0	0	0	0	540	472	1021	0	0	0	
11	0	0	0	0	545	476	1021	0	0	0	
12	0	0	0	0	548	480	1021	0	0	0	
13	0	0	0	0	549	482	1021	0	0	0	
14	0	0	0	0	546	483	1020	0	0	0	
15	0	0	0	0	542	481	1021	0	0	0	
0	0	0	0	0	535	477	1021	0	0	0	
1	0	0	0	0	527	471	1021	0	0	0	
2	0	0	0	0	517	463	1021	0	0	0	
3	0	0	0	0	506	454	1021	0	0	0	
4	0	0	0	0	494	444	1021	0	0	0	
5	0	0	0	0	483	434	1021	0	0	0	
6	0	0	0	0	472	423	1021	0	0	0	
7	0	0	0	0	462	413	1021	0	0	0	
8	0	0	0	0	452	403	1020	0	0	0	
9	0	0	0	0	444	394	1021	0	0	0	
10	0	0	0	0	438	387	1021	0	0	0	
11	0	0	0	0	433	381	1021	0	0	0	
12	0	0	0	0	431	377	1021	0	0	0	
13	0	0	0	0	430	376	1020	0	0	0	
14	0	0	0	0	432	376	1021	0	0	0	
15	0	0	0	0	434	376	1020	0	0	0	
0	0	0	0	0	434	375	1021	0	0	0	
1	0	0	0	0	431	370	1021	0	0	0	
2	0	0	0	0	422	361	1020	0	0	0	
3	0	0	0	0	408	348	1021	0	0	0	
4	0	0	0	0	390	329	1020	0	0	0	
5	0	0	0	0	366	308	1021	0	0	0	
6	0	0	0	0	341	286	1021	0	0	0	
7	0	0	0	0	316	264	1020	0	0	0	
8	0	0	0	0	294	244	1021	0	0	0	
9	0	0	0	0	276	229	1021	0	0	0	
10	0	0	0	0	266	220	1021	0	0	0	
11	0	0	0	0	262	217	1021	0	0	0	
12	0	0	0	0	267	220	1020	0	0	0	
13	0	0	0	0	280	231	1021	0	0	0	
14	0	0	0	0	301	248	1020	0	0	0	
15	0	0	0	0	329	271	1021	0	0	0	
0	0	0	0	0	363	299	1021	0	0	0	
1	0	0	0	0	400	329	1020	0	0	0	
2	0	0	0	0	439	361	1021	0	0	0	
3	0	0	0	0	476	392	1021	0	0	0	
4	0	0	0	0	512	423	1021	0	0	0	
5	0	0	0	0	543	451	1021	0	0	0	
6	0	0	0	0	571	475	1020	0	0	0	
7	0	0	0	0	591	494	1021	0	0	0	
8	0	0	0	0	605	510	1020	0	0	0	
9	0	0	0	0	613	519	1021	0	0	0	
10	0	0	0	0	615	525	1021	0	0	0	
11	0	0	0	0	612	527	1020	0	0	0	
12	0	0	0	0	606	526	1021	0	0	0	
13	0	0	0	0	598	523	1021	0	0	0	
14	0	0	0	0	588	519	1021	0	0	0	
15	0	0	0	0	579	515	1021	0	0	0	
0	0	0	0	0	570	511	1020	0	0	0	
1	0	0	0	0	563	507	1021	0	0	0	
2	0	0	0	0	558	504	1021	0	0	0	
3	0	0	0	0	555	503	1021	0	0	0	
4	0	0	0	0	555	503	1021	0	0	0	
5	0	0	0	0	556	504	1020	0	0	0	
6	0	0	0	0	559	505	1021	0	0	0	
7	0	0	0	0	562	507	1021	0	0	0	
8	0	0	0	0	564	508	1021	0	0	0	
9	0	0	0	0	566	508	1021	0	0	0	
10	0	0	0	0	565	507	1020	0	0	0	
11	0	0	0	0	563	504	1021	0	0	0	
12	0	0	0	0	561	501	1021	0	0	0	
13	0	0	0	0	558	498	1021	0	0	0	
14	0	0	0	0	553	494	1021	0	0	0	
15	0	0	0	0	549	490	1021	0	0	0	
0	0	0	0	0	546	487	1021	0	0	0	
1	0	0	0	0	543	484	1021	0	0	0	
2	0	0	0	0	542	482	1021	0	0	0	
3	0	0	0	0	542	482	1021	0	0	0	
4	0	0	0	0	543	483	1021	0	0	0	
5	0	0	0	0	546	486	1021	0	0	0	
6	0	0	0	0	551	489	1020	0	0	0	
7	0	0	0	0	556	495	1021	0	0	0	
8	0	0	0	0	563	502	1021	0	0	0	
9	0	0	0	0	571	509	1020	0	0	0	
10	0	0	0	0	578	517	1021	0	0	0	
11	0	0	0	0	585	524	1021	0	0	0	
12	0	0	0	0	591	531	1021	0	0	0	
13	0	0	0	0	595	535	1021	0	0	0	
14	0	0	0	0	596	538	1020	0	0	0	
15	0	0	0	0	597	539	1021	0	0	0	
0	0	0	0	0	595	538	1020	0	0	0	
1	0	0	0	0	591	534	1021	0	0	0	
2	0	0	0	0	584	528	1021	0	0	0	
3	0	0	0	0	574	519	1020	0	0	0	
4	0	0	0	0	562	508	1021	0	0	0	
5	0	0	0	0	549	496	1021	0	0	0	
6	0	0	0	0	535	483	1021	0	0	0	
7	0	0	0	0	521	470	1021	0	0	0	
8	0	0	0	0	509	459	1021	0	0	0	
9	0	0	0	0	500	451	1021	0	0	0	
10	0	0	0	0	496	445	1020	0	0	0	
11	0	0	0	0	493	442	1021	0	0	0	
12	0	0	0	0	495	443	1021	0	0	0	
13	0	0	0	0	498	445	1020	0	0	0	
14	0	0	0	0	504	449	1021	0	0	0	
15	0	0	0	0	511	455	1021	0	0	0	
0	0	0	0	0	519	462	1021	0	0	0	
1	0	0	0	0	527	469	1021	0	0	0	
2	0	0	0	0	535	476	1021	0	0	0	
3	0	0	0	0	541	481	1021	0	0	0	
4	0	0	0	0	546	486	1021	0	0	0	
5	0	0	0	0	550	488	1021	0	0	0	
6	0	0	0	0	551	490	1021	0	0	0	
7	0	0	0	0	551	490	1020	0	0	0	
8	0	0	0	0	551	489	1021	0	0	0	
9	0	0	0	0	550	488	1021	0	0	0	
10	0	0	0	0	549	487	1021	0	0	0	
11	0	0	0	0	549	486	1021	0	0	0	
12	0	0	0	0	549	486	1020	0	0	0	
13	0	0	0	0	551	487	1021	0	0	0	
14	0	0	0	0	555	489	1021	0	0	0	
15	0	0	0	0	559	495	1021	0	0	0	
0	0	0	0	0	566	500	1021	0	0	0	
1	0	0	0	0	572	507	1021	0	0	0	
2	0	0	0	0	579	514	1021	0	0	0	
3	0	0	0	0	586	521	1021	0	0	0	
4	0	0	0	0	591	527	1021	0	0	0	
5	0	0	0	0	595	531	1021	0	0	0	
6	0	0	0	0	596	532	1020	0	0	0	
7	0	0	0	0	595	532	1021	0	0	0	
8	0	0	0	0	591	529	1021	0	0	0	
9	0	0	0	0	583	523	1021	0	0	0	
10	0	0	0	0	573	513	1021	0	0	0	
11	0	0	0	0	560	503	1021	0	0	0	
12	0	0	0	0	546	491	1021	0	0	0	
13	0	0	0	0	531	478	1021	0	0	0	
14	0	0	0	0	517	466	1021	0	0	0	
15	0	0	0	0	505	454	1021	0	0	0	
0	0	0	0	0	493	445	1020	0	0	0	
1	0	0	0	0	485	437	1021	0	0	0	
2	0	0	0	0	480	433	1021	0	0	0	
3	0	0	0	0	480	432	1021	0	0	0	
4	0	0	0	0	483	433	1021	0	0	0	
5	0	0	0	0	489	439	1021	0	0	0	
6	0	0	0	0	501	447	1021	0	0	0	
7	0	0	0	0	516	459	1021	0	0	0	
8	0	0	0	0	534	473	1021	0	0	0	
9	0	0	0	0	554	488	1021	0	0	0	
10	0	0	0	0	573	503	1020	0	0	0	
11	0	0	0	0	589	514	1021	0	0	0	
12	0	0	0	0	600	523	1021	0	0	0	
13	0	0	0	0	606	527	1021	0	0	0	
14	0	0	0	0	607	527	1021	0	0	0	
15	0	0	0	0	602	524	1021	0	0	0	
0	0	0	0	0	593	518	1021	0	0	0	
1	0	0	0	0	581	510	1021	0	0	0	
2	0	0	0	0	568	500	1021	0	0	0	
3	0	0	0	0	554	491	1021	0	0	0	
4	0	0	0	0	540	482	1021	0	0	0	
5	0	0	0	0	528	475	1021	0	0	0	
6	0	0	0	0	519	469	1021	0	0	0	
7	0	0	0	0	513	465	1021	0	0	0	
8	0	0	0	0	510	464	1021	0	0	0	
9	0	0	0	0	509	463	1021	0	0	0	
10	0	0	0	0	511	465	1020	0	0	0	
11	0	0	0	0	515	468	1020	0	0	0	
12	0	0	0	0	521	473	1021	0	0	0	
13	0	0	0	0	530	479	1021	0	0	0	
14	0	0	0	0	537	484	1021	0	0	0	
15	0	0	0	0	545	489	1021	0	0	0	
0	0	0	0	0	553	494	1020	0	0	0	
1	0	0	0	0	559	496	1021	0	0	0	
2	0	0	0	0	563	497	1021	0	0	0	
3	0	0	0	0	564	496	1021	0	0	0	
4	0	0	0	0	563	494	1021	0	0	0	
5	0	0	0	0	560	491	1021	0	0	0	
6	0	0	0	0	555	486	1021	0	0	0	
7	0	0	0	0	549	480	1021	0	0	0	
8	0	0	0	0	543	475	1021	0	0	0	
9	0	0	0	0	537	472	1021	0	0	0	
10	0	0	0	0	534	471	1021	0	0	0	
11	0	0	0	0	533	472	1021	0	0	0	
12	0	0	0	0	536	476	1021	0	0	0	
13	0	0	0	0	540	483	1020	0	0	0	
14	0	0	0	0	549	492	1021	0	0	0	
15	0	0	0	0	559	501	1021	0	0	0	
0	0	0	0	0	569	510	1021	0	0	0	
1	0	0	0	0	578	518	1021	0	0	0	
2	0	0	0	0	586	523	1021	0	0	0	
3	0	0	0	0	590	526	1021	0	0	0	
4	0	0	0	0	590	525	1021	0	0	0	
5	0	0	0	0	588	521	1021	0	0	0	
6	0	0	0	0	583	515	1021	0	0	0	
7	0	0	0	0	575	508	1021	0	0	0	
8	0	0	0	0	566	499	1021	0	0	0	
9	0	0	0	0	557	491	1021	0	0	0	
10	0	0	0	0	549	483	1021	0	0	0	
11	0	0	0	0	541	475	1021	0	0	0	
12	0	0	0	0	534	468	1021	0	0	0	
13	0	0	0	0	527	463	1020	0	0	0	
14	0	0	0	0	521	459	1021	0	0	0	
15	0	0	0	0	516	455	1021	0	0	0	
0	0	0	0	0	512	451	1021	0	0	0	
1	0	0	0	0	508	449	1021	0	0	0	
2	0	0	0	0	506	448	1021	0	0	0	
3	0	0	0	0	505	449	1021	0	0	0	
4	0	0	0	0	505	451	1021	0	0	0	
5	0	0	0	0	507	452	1021	0	0	0	
6	0	0	0	0	508	453	1020	0	0	0	
7	0	0	0	0	509	455	1021	0	0	0	
8	0	0	0	0	510	455	1021	0	0	0	
9	0	0	0	0	509	453	1021	0	0	0	
10	0	0	0	0	509	452	1021	0	0	0	
11	0	0	0	0	508	449	1021	0	0	0	
12	0	0	0	0	505	446	1020	0	0	0	
13	0	0	0	0	504	444	1020	0	0	0	
14	0	0	0	0	502	441	1021	0	0	0	
15	0	0	0	0	500	439	1021	0	0	0	
0	0	0	0	0	500	438	1020	0	0	0	
1	0	0	0	0	500	439	1021	0	0	0	
2	0	0	0	0	502	440	1021	0	0	0	
3	0	0	0	0	505	443	1021	0	0	0	
4	0	0	0	0	509	448	1020	0	0	0	
5	0	0	0	0	514	452	1021	0	0	0	
6	0	0	0	0	519	458	1021	0	0	0	
7	0	0	0	0	526	464	1020	0	0	0	
8	0	0	0	0	531	470	1021	0	0	0	
9	0	0	0	0	538	475	1021	0	0	0	
10	0	0	0	0	543	480	1021	0	0	0	
11	0	0	0	0	549	485	1020	0	0	0	
12	0	0	0	0	555	489	1021	0	0	0	
13	0	0	0	0	560	494	1021	0	0	0	
14	0	0	0	0	564	496	1021	0	0	0	
15	0	0	0	0	567	497	1021	0	0	0	
0	0	0	0	0	567	497	1021	0	0	0	
1	0	0	0	0	564	494	1021	0	0	0	
2	0	0	0	0	559	489	1021	0	0	0	
3	0	0	0	0	551	481	1021	0	0	0	
4	0	0	0	0	541	473	1021	0	0	0	
5	0	0	0	0	531	465	1021	0	0	0	
6	0	0	0	0	522	458	1020	0	0	0	
7	0	0	0	0	515	452	1021	0	0	0	
8	0	0	0	0	510	450	1020	0	0	0	
9	0	0	0	0	510	449	1021	0	0	0	
10	0	0	0	0	510	451	1021	0	0	0	
11	0	0	0	0	513	454	1021	0	0	0	
12	0	0	0	0	518	457	1021	0	0	0	
13	0	0	0	0	523	461	1021	0	0	0	
14	0	0	0	0	526	464	1021	0	0	0	
15	0	0	0	0	529	467	1020	0	0	0	
0	0	0	0	0	532	468	1021	0	0	0	
1	0	0	0	0	533	468	1021	0	0	0	
2	0	0	0	0	533	468	1021	0	0	0	
3	0	0	0	0	532	467	1020	0	0	0	
4	0	0	0	0	531	466	1020	0	0	0	
5	0	0	0	0	529	464	1021	0	0	0	
6	0	0	0	0	529	463	1021	0	0	0	
7	0	0	0	0	529	463	1021	0	0	0	
8	0	0	0	0	531	465	1021	0	0	0	
9	0	0	0	0	535	468	1021	0	0	0	
10	0	0	0	0	540	473	1021	0	0	0	
11	0	0	0	0	546	480	1021	0	0	0	
12	0	0	0	0	556	488	1021	0	0	0	
13	0	0	0	0	566	499	1021	0	0	0	
14	0	0	0	0	579	511	1021	0	0	0	
15	0	0	0	0	593	524	1021	0	0	0	
0	0	0	0	0	605	535	1021	0	0	0	
1	0	0	0	0	615	542	1021	0	0	0	
2	0	0	0	0	620	546	1021	0	0	0	
3	0	0	0	0	619	545	1020	0	0	0	
4	0	0	0	0	613	540	1021	0	0	0	
5	0	0	0	0	602	530	1021	0	0	0	
6	0	0	0	0	588	518	1021	0	0	0	
7	0	0	0	0	571	504	1021	0	0	0	
8	0	0	0	0	551	488	1021	0	0	0	
9	0	0	0	0	533	472	1021	0	0	0	
10	0	0	0	0	515	457	1021	0	0	0	
11	0	0	0	0	498	444	1021	0	0	0	
12	0	0	0	0	483	433	1020	0	0	0	
