# OpenSignals Text File Format. Version 1
# {"": {"position": 0, "device": "", "device name": "", "device connection": "", "sampling rate": 1000, "resolution": [4, 1, 1, 1, 1, 10, 10, 10, 10, 6, 6], "firmware version": 1281, "comments": "", "keywords": "", "mode": 0, "sync interval": 2, "date": "", "time": "", "channels": [1, 2, 3, 4, 5, 6], "sensor": ["RAW", "RAW", "RAW", "RAW", "RAW", "RAW"], "label": ["A1", "A2", "A3", "A4", "A5", "A6"], "column": ["nSeq", "I1", "I2", "O1", "O2", "A1", "A2", "A3", "A4", "A5", "A6"], "special": [{}, {}, {}, {}, {}, {}], "digital IO": [0, 0, 1, 1]}}
# EndOfHeader
0	0	0	0	0	487	395	0	489	0	0	
1	0	0	0	0	478	330	0	521	0	0	
2	0	0	0	0	476	279	0	547	0	0	
3	0	0	0	0	477	246	0	566	0	0	
4	0	0	0	0	484	233	0	573	0	0	
5	0	0	0	0	496	242	0	568	0	0	
6	0	0	0	0	510	273	0	554	0	0	
7	0	0	0	0	526	321	0	529	0	0	
8	0	0	0	0	543	384	0	497	0	0	
9	0	0	0	0	558	454	0	462	0	0	
10	0	0	0	0	569	524	0	425	0	0	
11	0	0	0	0	577	588	0	392	0	0	
12	0	0	0	0	580	640	0	365	0	0	
13	0	0	0	0	578	674	0	347	0	0	
14	0	0	0	0	571	686	0	340	0	0	
15	0	0	0	0	560	677	0	344	0	0	
0	0	0	0	0	546	646	0	360	0	0	
1	0	0	0	0	531	597	0	386	0	0	
2	0	0	0	0	515	535	0	419	0	0	
3	0	0	0	0	501	466	0	454	0	0	
4	0	0	0	0	489	396	0	491	0	0	
5	0	0	0	0	482	333	0	526	0	0	
6	0	0	0	0	480	282	0	553	0	0	
7	0	0	0	0	482	249	0	571	0	0	
8	0	0	0	0	489	236	0	579	0	0	
9	0	0	0	0	501	246	0	575	0	0	
10	0	0	0	0	515	276	0	560	0	0	
11	0	0	0	0	531	325	0	535	0	0	
12	0	0	0	0	546	387	0	503	0	0	
13	0	0	0	0	561	456	0	466	0	0	
14	0	0	0	0	572	527	0	428	0	0	
15	0	0	0	0	578	591	0	393	0	0	
0	0	0	0	0	580	642	0	365	0	0	
1	0	0	0	0	576	676	0	347	0	0	
2	0	0	0	0	568	688	0	339	0	0	
3	0	0	0	0	557	678	0	344	0	0	
4	0	0	0	0	543	647	0	359	0	0	
5	0	0	0	0	527	597	0	384	0	0	
6	0	0	0	0	511	536	0	416	0	0	
7	0	0	0	0	497	466	0	452	0	0	
8	0	0	0	0	486	396	0	488	0	0	
9	0	0	0	0	479	333	0	523	0	0	
10	0	0	0	0	477	282	0	550	0	0	
11	0	0	0	0	479	248	0	568	0	0	
12	0	0	0	0	487	236	0	575	0	0	
13	0	0	0	0	498	245	0	571	0	0	
14	0	0	0	0	512	275	0	556	0	0	
15	0	0	0	0	528	323	0	531	0	0	
0	0	0	0	0	544	385	0	499	0	0	
1	0	0	0	0	559	454	0	462	0	0	
2	0	0	0	0	570	524	0	425	0	0	
3	0	0	0	0	577	588	0	391	0	0	
4	0	0	0	0	579	638	0	363	0	0	
5	0	0	0	0	576	670	0	345	0	0	
6	0	0	0	0	568	683	0	337	0	0	
7	0	0	0	0	556	671	0	341	0	0	
8	0	0	0	0	542	639	0	356	0	0	
9	0	0	0	0	525	588	0	380	0	0	
10	0	0	0	0	509	526	0	412	0	0	
11	0	0	0	0	493	455	0	448	0	0	
12	0	0	0	0	481	386	0	484	0	0	
13	0	0	0	0	473	322	0	518	0	0	
14	0	0	0	0	470	271	0	545	0	0	
15	0	0	0	0	473	239	0	564	0	0	
0	0	0	0	0	480	227	0	572	0	0	
1	0	0	0	0	492	237	0	568	0	0	
2	0	0	0	0	506	268	0	555	0	0	
3	0	0	0	0	523	318	0	530	0	0	
4	0	0	0	0	539	381	0	499	0	0	
5	0	0	0	0	553	451	0	463	0	0	
6	0	0	0	0	565	523	0	426	0	0	
7	0	0	0	0	572	588	0	392	0	0	
8	0	0	0	0	573	640	0	363	0	0	
9	0	0	0	0	570	674	0	343	0	0	
10	0	0	0	0	561	686	0	335	0	0	
11	0	0	0	0	550	676	0	337	0	0	
12	0	0	0	0	535	645	0	351	0	0	
13	0	0	0	0	519	595	0	374	0	0	
14	0	0	0	0	504	532	0	405	0	0	
15	0	0	0	0	490	463	0	441	0	0	
0	0	0	0	0	479	393	0	477	0	0	
1	0	0	0	0	473	329	0	512	0	0	
2	0	0	0	0	472	279	0	540	0	0	
3	0	0	0	0	476	246	0	560	0	0	
4	0	0	0	0	484	233	0	569	0	0	
5	0	0	0	0	497	243	0	568	0	0	
6	0	0	0	0	512	274	0	555	0	0	
7	0	0	0	0	529	323	0	532	0	0	
8	0	0	0	0	545	385	0	502	0	0	
9	0	0	0	0	559	454	0	467	0	0	
10	0	0	0	0	571	525	0	430	0	0	
11	0	0	0	0	577	590	0	396	0	0	
12	0	0	0	0	579	642	0	368	0	0	
13	0	0	0	0	575	675	0	350	0	0	
14	0	0	0	0	568	689	0	342	0	0	
15	0	0	0	0	556	678	0	344	0	0	
0	0	0	0	0	542	647	0	359	0	0	
1	0	0	0	0	526	598	0	382	0	0	
2	0	0	0	0	510	535	0	413	0	0	
3	0	0	0	0	496	465	0	448	0	0	
4	0	0	0	0	484	395	0	484	0	0	
5	0	0	0	0	478	331	0	518	0	0	
6	0	0	0	0	476	280	0	546	0	0	
7	0	0	0	0	479	247	0	565	0	0	
8	0	0	0	0	487	235	0	574	0	0	
9	0	0	0	0	499	244	0	572	0	0	
10	0	0	0	0	513	275	0	559	0	0	
11	0	0	0	0	530	323	0	536	0	0	
12	0	0	0	0	546	386	0	505	0	0	
13	0	0	0	0	561	456	0	470	0	0	
14	0	0	0	0	573	526	0	434	0	0	
15	0	0	0	0	580	591	0	401	0	0	
0	0	0	0	0	583	644	0	373	0	0	
1	0	0	0	0	580	679	0	355	0	0	
2	0	0	0	0	572	692	0	347	0	0	
3	0	0	0	0	560	682	0	349	0	0	
4	0	0	0	0	546	652	0	364	0	0	
5	0	0	0	0	530	602	0	387	0	0	
6	0	0	0	0	514	540	0	418	0	0	
7	0	0	0	0	500	471	0	453	0	0	
8	0	0	0	0	488	400	0	489	0	0	
9	0	0	0	0	480	335	0	523	0	0	
10	0	0	0	0	478	284	0	550	0	0	
11	0	0	0	0	481	249	0	569	0	0	
12	0	0	0	0	488	236	0	577	0	0	
13	0	0	0	0	500	243	0	575	0	0	
14	0	0	0	0	514	274	0	562	0	0	
15	0	0	0	0	530	322	0	538	0	0	
0	0	0	0	0	546	384	0	508	0	0	
1	0	0	0	0	561	454	0	473	0	0	
2	0	0	0	0	574	526	0	437	0	0	
3	0	0	0	0	582	592	0	404	0	0	
4	0	0	0	0	584	646	0	377	0	0	
5	0	0	0	0	583	680	0	359	0	0	
6	0	0	0	0	576	696	0	352	0	0	
7	0	0	0	0	566	687	0	356	0	0	
8	0	0	0	0	553	657	0	372	0	0	
9	0	0	0	0	537	609	0	396	0	0	
10	0	0	0	0	523	547	0	428	0	0	
11	0	0	0	0	509	478	0	464	0	0	
12	0	0	0	0	498	409	0	501	0	0	
13	0	0	0	0	491	345	0	535	0	0	
14	0	0	0	0	487	292	0	562	0	0	
15	0	0	0	0	489	258	0	579	0	0	
0	0	0	0	0	495	243	0	586	0	0	
1	0	0	0	0	503	248	0	580	0	0	
2	0	0	0	0	513	275	0	563	0	0	
3	0	0	0	0	525	319	0	534	0	0	
4	0	0	0	0	535	375	0	497	0	0	
5	0	0	0	0	542	439	0	455	0	0	
6	0	0	0	0	546	502	0	411	0	0	
7	0	0	0	0	544	559	0	368	0	0	
8	0	0	0	0	537	602	0	331	0	0	
9	0	0	0	0	525	628	0	302	0	0	
10	0	0	0	0	508	632	0	283	0	0	
11	0	0	0	0	486	613	0	275	0	0	
12	0	0	0	0	462	573	0	278	0	0	
13	0	0	0	0	436	515	0	290	0	0	
14	0	0	0	0	410	444	0	310	0	0	
15	0	0	0	0	386	365	0	335	0	0	
0	0	0	0	0	363	284	0	361	0	0	
1	0	0	0	0	344	210	0	386	0	0	
2	0	0	0	0	331	147	0	404	0	0	
3	0	0	0	0	322	101	0	413	0	0	
4	0	0	0	0	319	74	0	412	0	0	
5	0	0	0	0	319	69	0	399	0	0	
6	0	0	0	0	323	85	0	376	0	0	
7	0	0	0	0	331	120	0	343	0	0	
8	0	0	0	0	339	172	0	304	0	0	
9	0	0	0	0	348	233	0	262	0	0	
10	0	0	0	0	356	300	0	220	0	0	
11	0	0	0	0	363	364	0	184	0	0	
12	0	0	0	0	368	421	0	155	0	0	
13	0	0	0	0	370	463	0	137	0	0	
14	0	0	0	0	371	487	0	134	0	0	
15	0	0	0	0	372	492	0	146	0	0	
0	0	0	0	0	372	477	0	172	0	0	
1	0	0	0	0	374	447	0	212	0	0	
2	0	0	0	0	376	404	0	263	0	0	
3	0	0	0	0	382	355	0	320	0	0	
4	0	0	0	0	391	304	0	382	0	0	
5	0	0	0	0	406	261	0	443	0	0	
6	0	0	0	0	423	228	0	496	0	0	
7	0	0	0	0	446	212	0	539	0	0	
8	0	0	0	0	472	215	0	570	0	0	
9	0	0	0	0	499	237	0	585	0	0	
10	0	0	0	0	527	279	0	587	0	0	
11	0	0	0	0	555	336	0	573	0	0	
12	0	0	0	0	579	406	0	548	0	0	
13	0	0	0	0	599	480	0	515	0	0	
14	0	0	0	0	614	554	0	479	0	0	
15	0	0	0	0	622	621	0	443	0	0	
0	0	0	0	0	623	674	0	411	0	0	
1	0	0	0	0	617	709	0	387	0	0	
2	0	0	0	0	606	722	0	373	0	0	
3	0	0	0	0	589	711	0	371	0	0	
4	0	0	0	0	569	679	0	380	0	0	
5	0	0	0	0	547	627	0	397	0	0	
6	0	0	0	0	525	562	0	424	0	0	
7	0	0	0	0	506	489	0	455	0	0	
8	0	0	0	0	489	415	0	489	0	0	
9	0	0	0	0	479	347	0	521	0	0	
10	0	0	0	0	475	292	0	548	0	0	
11	0	0	0	0	476	255	0	568	0	0	
12	0	0	0	0	484	240	0	579	0	0	
13	0	0	0	0	497	248	0	577	0	0	
14	0	0	0	0	514	277	0	567	0	0	
15	0	0	0	0	532	326	0	545	0	0	
0	0	0	0	0	552	389	0	517	0	0	
1	0	0	0	0	570	461	0	484	0	0	
2	0	0	0	0	585	534	0	450	0	0	
3	0	0	0	0	596	602	0	418	0	0	
4	0	0	0	0	601	658	0	391	0	0	
5	0	0	0	0	600	696	0	373	0	0	
6	0	0	0	0	595	712	0	365	0	0	
7	0	0	0	0	584	706	0	369	0	0	
8	0	0	0	0	571	679	0	384	0	0	
9	0	0	0	0	555	632	0	407	0	0	
10	0	0	0	0	538	572	0	437	0	0	
11	0	0	0	0	522	503	0	472	0	0	
12	0	0	0	0	509	432	0	507	0	0	
13	0	0	0	0	500	367	0	540	0	0	
14	0	0	0	0	496	313	0	567	0	0	
15	0	0	0	0	497	277	0	585	0	0	
0	0	0	0	0	503	260	0	594	0	0	
1	0	0	0	0	513	266	0	590	0	0	
2	0	0	0	0	527	293	0	577	0	0	
3	0	0	0	0	543	339	0	553	0	0	
4	0	0	0	0	559	399	0	522	0	0	
5	0	0	0	0	575	467	0	487	0	0	
6	0	0	0	0	587	537	0	451	0	0	
7	0	0	0	0	596	603	0	419	0	0	
8	0	0	0	0	600	657	0	391	0	0	
9	0	0	0	0	598	694	0	372	0	0	
10	0	0	0	0	592	710	0	364	0	0	
11	0	0	0	0	582	704	0	367	0	0	
12	0	0	0	0	568	676	0	381	0	0	
13	0	0	0	0	552	630	0	404	0	0	
14	0	0	0	0	536	570	0	435	0	0	
15	0	0	0	0	521	502	0	470	0	0	
0	0	0	0	0	509	432	0	505	0	0	
1	0	0	0	0	500	367	0	539	0	0	
2	0	0	0	0	496	314	0	567	0	0	
3	0	0	0	0	497	278	0	586	0	0	
4	0	0	0	0	504	262	0	594	0	0	
5	0	0	0	0	514	268	0	591	0	0	
6	0	0	0	0	527	295	0	578	0	0	
7	0	0	0	0	542	340	0	553	0	0	
8	0	0	0	0	557	400	0	522	0	0	
9	0	0	0	0	572	467	0	487	0	0	
10	0	0	0	0	583	537	0	450	0	0	
11	0	0	0	0	591	602	0	416	0	0	
12	0	0	0	0	594	655	0	388	0	0	
13	0	0	0	0	592	692	0	370	0	0	
14	0	0	0	0	587	707	0	362	0	0	
15	0	0	0	0	577	701	0	366	0	0	
0	0	0	0	0	564	673	0	380	0	0	
1	0	0	0	0	550	627	0	404	0	0	
2	0	0	0	0	536	568	0	435	0	0	
3	0	0	0	0	522	499	0	471	0	0	
4	0	0	0	0	510	431	0	507	0	0	
5	0	0	0	0	503	366	0	541	0	0	
6	0	0	0	0	499	313	0	568	0	0	
7	0	0	0	0	500	278	0	588	0	0	
8	0	0	0	0	506	262	0	596	0	0	
9	0	0	0	0	515	268	0	593	0	0	
10	0	0	0	0	527	295	0	579	0	0	
11	0	0	0	0	542	341	0	555	0	0	
12	0	0	0	0	556	401	0	524	0	0	
13	0	0	0	0	569	468	0	488	0	0	
14	0	0	0	0	580	539	0	451	0	0	
15	0	0	0	0	587	603	0	417	0	0	
0	0	0	0	0	590	656	0	389	0	0	
1	0	0	0	0	588	693	0	370	0	0	
2	0	0	0	0	582	708	0	361	0	0	
3	0	0	0	0	572	700	0	364	0	0	
4	0	0	0	0	559	672	0	378	0	0	
5	0	0	0	0	545	625	0	402	0	0	
6	0	0	0	0	529	566	0	432	0	0	
7	0	0	0	0	516	497	0	467	0	0	
8	0	0	0	0	505	428	0	503	0	0	
9	0	0	0	0	498	363	0	537	0	0	
10	0	0	0	0	496	310	0	566	0	0	
11	0	0	0	0	499	275	0	585	0	0	
12	0	0	0	0	507	259	0	594	0	0	
13	0	0	0	0	518	267	0	592	0	0	
14	0	0	0	0	532	295	0	579	0	0	
15	0	0	0	0	548	342	0	556	0	0	
0	0	0	0	0	564	403	0	525	0	0	
1	0	0	0	0	579	472	0	490	0	0	
2	0	0	0	0	590	543	0	454	0	0	
3	0	0	0	0	597	608	0	419	0	0	
4	0	0	0	0	599	663	0	390	0	0	
5	0	0	0	0	596	699	0	369	0	0	
6	0	0	0	0	588	714	0	360	0	0	
7	0	0	0	0	576	707	0	362	0	0	
8	0	0	0	0	561	679	0	375	0	0	
9	0	0	0	0	545	632	0	398	0	0	
10	0	0	0	0	528	571	0	428	0	0	
11	0	0	0	0	512	502	0	464	0	0	
12	0	0	0	0	500	431	0	501	0	0	
13	0	0	0	0	492	365	0	536	0	0	
14	0	0	0	0	489	311	0	564	0	0	
15	0	0	0	0	491	275	0	584	0	0	
0	0	0	0	0	498	259	0	593	0	0	
1	0	0	0	0	510	263	0	592	0	0	
2	0	0	0	0	524	291	0	579	0	0	
3	0	0	0	0	540	336	0	556	0	0	
4	0	0	0	0	557	397	0	525	0	0	
5	0	0	0	0	573	466	0	489	0	0	
6	0	0	0	0	585	536	0	452	0	0	
7	0	0	0	0	593	603	0	418	0	0	
8	0	0	0	0	597	657	0	390	0	0	
9	0	0	0	0	595	695	0	370	0	0	
10	0	0	0	0	588	711	0	361	0	0	
11	0	0	0	0	576	704	0	363	0	0	
12	0	0	0	0	562	676	0	377	0	0	
13	0	0	0	0	546	630	0	400	0	0	
14	0	0	0	0	529	569	0	431	0	0	
15	0	0	0	0	515	500	0	466	0	0	
0	0	0	0	0	503	430	0	502	0	0	
1	0	0	0	0	495	365	0	536	0	0	
2	0	0	0	0	492	311	0	564	0	0	
3	0	0	0	0	494	275	0	584	0	0	
4	0	0	0	0	502	259	0	593	0	0	
5	0	0	0	0	512	265	0	591	0	0	
6	0	0	0	0	526	292	0	579	0	0	
7	0	0	0	0	541	337	0	555	0	0	
8	0	0	0	0	556	397	0	524	0	0	
9	0	0	0	0	570	465	0	488	0	0	
10	0	0	0	0	580	535	0	451	0	0	
11	0	0	0	0	587	600	0	416	0	0	
12	0	0	0	0	589	653	0	386	0	0	
13	0	0	0	0	586	689	0	364	0	0	
14	0	0	0	0	578	704	0	354	0	0	
15	0	0	0	0	566	697	0	355	0	0	
0	0	0	0	0	551	668	0	368	0	0	
1	0	0	0	0	536	622	0	391	0	0	
2	0	0	0	0	519	561	0	420	0	0	
3	0	0	0	0	505	492	0	456	0	0	
4	0	0	0	0	493	421	0	492	0	0	
5	0	0	0	0	485	355	0	526	0	0	
6	0	0	0	0	483	301	0	556	0	0	
7	0	0	0	0	485	265	0	576	0	0	
8	0	0	0	0	493	248	0	587	0	0	
9	0	0	0	0	504	254	0	585	0	0	
10	0	0	0	0	519	281	0	574	0	0	
11	0	0	0	0	536	327	0	552	0	0	
12	0	0	0	0	552	387	0	521	0	0	
13	0	0	0	0	567	456	0	487	0	0	
14	0	0	0	0	579	526	0	450	0	0	
15	0	0	0	0	587	592	0	415	0	0	
0	0	0	0	0	589	647	0	386	0	0	
1	0	0	0	0	586	684	0	364	0	0	
2	0	0	0	0	579	700	0	354	0	0	
3	0	0	0	0	567	694	0	355	0	0	
4	0	0	0	0	552	666	0	367	0	0	
5	0	0	0	0	535	618	0	388	0	0	
6	0	0	0	0	518	558	0	417	0	0	
7	0	0	0	0	503	489	0	451	0	0	
8	0	0	0	0	490	417	0	487	0	0	
9	0	0	0	0	482	351	0	521	0	0	
10	0	0	0	0	478	296	0	548	0	0	
11	0	0	0	0	480	259	0	569	0	0	
12	0	0	0	0	488	242	0	580	0	0	
13	0	0	0	0	499	248	0	578	0	0	
14	0	0	0	0	514	275	0	567	0	0	
15	0	0	0	0	531	321	0	545	0	0	
0	0	0	0	0	548	381	0	516	0	0	
1	0	0	0	0	564	451	0	483	0	0	
2	0	0	0	0	578	523	0	447	0	0	
3	0	0	0	0	587	590	0	414	0	0	
4	0	0	0	0	591	646	0	386	0	0	
5	0	0	0	0	589	684	0	367	0	0	
6	0	0	0	0	583	701	0	358	0	0	
7	0	0	0	0	573	696	0	359	0	0	
8	0	0	0	0	559	670	0	373	0	0	
9	0	0	0	0	543	624	0	395	0	0	
10	0	0	0	0	527	564	0	423	0	0	
11	0	0	0	0	512	496	0	458	0	0	
12	0	0	0	0	499	426	0	493	0	0	
13	0	0	0	0	491	360	0	526	0	0	
14	0	0	0	0	487	307	0	554	0	0	
15	0	0	0	0	488	269	0	573	0	0	
0	0	0	0	0	495	252	0	583	0	0	
1	0	0	0	0	505	257	0	581	0	0	
2	0	0	0	0	519	283	0	568	0	0	
3	0	0	0	0	535	329	0	547	0	0	
4	0	0	0	0	551	389	0	517	0	0	
5	0	0	0	0	567	457	0	483	0	0	
6	0	0	0	0	579	529	0	448	0	0	
7	0	0	0	0	588	595	0	414	0	0	
8	0	0	0	0	591	651	0	385	0	0	
9	0	0	0	0	590	689	0	365	0	0	
10	0	0	0	0	583	706	0	355	0	0	
11	0	0	0	0	573	702	0	356	0	0	
12	0	0	0	0	559	675	0	368	0	0	
13	0	0	0	0	543	630	0	391	0	0	
14	0	0	0	0	527	571	0	421	0	0	
15	0	0	0	0	512	503	0	455	0	0	
0	0	0	0	0	500	433	0	492	0	0	
1	0	0	0	0	492	368	0	527	0	0	
2	0	0	0	0	489	314	0	556	0	0	
3	0	0	0	0	492	278	0	577	0	0	
4	0	0	0	0	500	262	0	588	0	0	
5	0	0	0	0	513	267	0	588	0	0	
6	0	0	0	0	528	294	0	577	0	0	
7	0	0	0	0	546	340	0	556	0	0	
8	0	0	0	0	563	400	0	527	0	0	
9	0	0	0	0	579	469	0	493	0	0	
10	0	0	0	0	592	540	0	457	0	0	
11	0	0	0	0	601	606	0	423	0	0	
12	0	0	0	0	604	660	0	394	0	0	
13	0	0	0	0	602	698	0	373	0	0	
14	0	0	0	0	594	713	0	363	0	0	
15	0	0	0	0	582	707	0	363	0	0	
0	0	0	0	0	567	680	0	374	0	0	
1	0	0	0	0	549	633	0	395	0	0	
2	0	0	0	0	531	572	0	423	0	0	
3	0	0	0	0	515	503	0	457	0	0	
4	0	0	0	0	501	432	0	492	0	0	
5	0	0	0	0	491	365	0	526	0	0	
6	0	0	0	0	487	310	0	554	0	0	
7	0	0	0	0	488	272	0	575	0	0	
8	0	0	0	0	495	255	0	585	0	0	
9	0	0	0	0	506	260	0	585	0	0	
10	0	0	0	0	520	287	0	574	0	0	
11	0	0	0	0	537	332	0	552	0	0	
12	0	0	0	0	555	393	0	523	0	0	
13	0	0	0	0	572	462	0	490	0	0	
14	0	0	0	0	585	534	0	454	0	0	
15	0	0	0	0	595	602	0	421	0	0	
0	0	0	0	0	601	659	0	393	0	0	
1	0	0	0	0	601	699	0	374	0	0	
2	0	0	0	0	596	716	0	364	0	0	
3	0	0	0	0	587	712	0	367	0	0	
4	0	0	0	0	574	686	0	380	0	0	
5	0	0	0	0	558	640	0	401	0	0	
6	0	0	0	0	542	580	0	430	0	0	
7	0	0	0	0	525	511	0	463	0	0	
8	0	0	0	0	511	440	0	499	0	0	
9	0	0	0	0	501	373	0	532	0	0	
10	0	0	0	0	496	318	0	560	0	0	
11	0	0	0	0	496	280	0	579	0	0	
12	0	0	0	0	502	263	0	590	0	0	
13	0	0	0	0	512	267	0	589	0	0	
14	0	0	0	0	527	294	0	578	0	0	
15	0	0	0	0	543	339	0	557	0	0	
0	0	0	0	0	560	400	0	528	0	0	
1	0	0	0	0	577	470	0	495	0	0	
2	0	0	0	0	592	542	0	460	0	0	
3	0	0	0	0	603	610	0	426	0	0	
4	0	0	0	0	608	666	0	398	0	0	
5	0	0	0	0	608	705	0	378	0	0	
6	0	0	0	0	604	724	0	368	0	0	
7	0	0	0	0	595	720	0	369	0	0	
8	0	0	0	0	582	694	0	383	0	0	
9	0	0	0	0	567	649	0	404	0	0	
10	0	0	0	0	551	590	0	433	0	0	
11	0	0	0	0	535	521	0	468	0	0	
12	0	0	0	0	521	450	0	504	0	0	
13	0	0	0	0	512	384	0	538	0	0	
14	0	0	0	0	507	328	0	567	0	0	
15	0	0	0	0	507	289	0	587	0	0	
0	0	0	0	0	513	271	0	596	0	0	
1	0	0	0	0	522	274	0	595	0	0	
2	0	0	0	0	536	299	0	583	0	0	
3	0	0	0	0	551	343	0	560	0	0	
4	0	0	0	0	567	402	0	530	0	0	
5	0	0	0	0	582	469	0	496	0	0	
6	0	0	0	0	595	540	0	460	0	0	
7	0	0	0	0	605	607	0	425	0	0	
8	0	0	0	0	609	663	0	396	0	0	
9	0	0	0	0	609	701	0	376	0	0	
10	0	0	0	0	604	720	0	366	0	0	
11	0	0	0	0	594	716	0	367	0	0	
12	0	0	0	0	582	690	0	380	0	0	
13	0	0	0	0	566	645	0	402	0	0	
14	0	0	0	0	550	586	0	432	0	0	
15	0	0	0	0	534	518	0	466	0	0	
0	0	0	0	0	520	447	0	502	0	0	
1	0	0	0	0	510	381	0	536	0	0	
2	0	0	0	0	505	326	0	564	0	0	
3	0	0	0	0	505	287	0	584	0	0	
4	0	0	0	0	509	269	0	594	0	0	
5	0	0	0	0	519	272	0	593	0	0	
6	0	0	0	0	532	297	0	582	0	0	
7	0	0	0	0	547	342	0	560	0	0	
8	0	0	0	0	564	401	0	531	0	0	
9	0	0	0	0	580	470	0	496	0	0	
10	0	0	0	0	593	541	0	461	0	0	
11	0	0	0	0	604	609	0	427	0	0	
12	0	0	0	0	609	665	0	398	0	0	
13	0	0	0	0	609	705	0	377	0	0	
14	0	0	0	0	604	723	0	367	0	0	
15	0	0	0	0	594	720	0	368	0	0	
0	0	0	0	0	580	694	0	380	0	0	
1	0	0	0	0	564	649	0	400	0	0	
2	0	0	0	0	547	589	0	430	0	0	
3	0	0	0	0	530	521	0	463	0	0	
4	0	0	0	0	515	449	0	499	0	0	
5	0	0	0	0	504	381	0	533	0	0	
6	0	0	0	0	498	325	0	561	0	0	
7	0	0	0	0	497	285	0	582	0	0	
8	0	0	0	0	502	266	0	591	0	0	
9	0	0	0	0	511	268	0	591	0	0	
10	0	0	0	0	524	292	0	579	0	0	
11	0	0	0	0	539	336	0	558	0	0	
12	0	0	0	0	556	396	0	529	0	0	
13	0	0	0	0	572	464	0	494	0	0	
14	0	0	0	0	586	535	0	459	0	0	
15	0	0	0	0	597	602	0	425	0	0	
0	0	0	0	0	603	658	0	396	0	0	
1	0	0	0	0	603	696	0	375	0	0	
2	0	0	0	0	599	716	0	364	0	0	
3	0	0	0	0	590	713	0	364	0	0	
4	0	0	0	0	577	688	0	376	0	0	
5	0	0	0	0	562	643	0	397	0	0	
6	0	0	0	0	545	584	0	425	0	0	
7	0	0	0	0	530	515	0	460	0	0	
8	0	0	0	0	516	445	0	495	0	0	
9	0	0	0	0	507	378	0	529	0	0	
10	0	0	0	0	502	323	0	557	0	0	
11	0	0	0	0	502	284	0	578	0	0	
12	0	0	0	0	507	267	0	588	0	0	
13	0	0	0	0	517	270	0	588	0	0	
14	0	0	0	0	530	295	0	577	0	0	
15	0	0	0	0	545	339	0	555	0	0	
0	0	0	0	0	561	397	0	526	0	0	
1	0	0	0	0	577	466	0	492	0	0	
2	0	0	0	0	590	537	0	455	0	0	
3	0	0	0	0	599	603	0	422	0	0	
4	0	0	0	0	603	659	0	392	0	0	
5	0	0	0	0	603	697	0	371	0	0	
6	0	0	0	0	597	715	0	359	0	0	
7	0	0	0	0	587	710	0	359	0	0	
8	0	0	0	0	574	684	0	371	0	0	
9	0	0	0	0	558	638	0	391	0	0	
10	0	0	0	0	541	577	0	419	0	0	
11	0	0	0	0	525	508	0	453	0	0	
12	0	0	0	0	511	436	0	487	0	0	
13	0	0	0	0	502	369	0	521	0	0	
14	0	0	0	0	497	313	0	549	0	0	
15	0	0	0	0	497	274	0	569	0	0	
0	0	0	0	0	503	255	0	579	0	0	
1	0	0	0	0	512	259	0	579	0	0	
2	0	0	0	0	525	284	0	569	0	0	
3	0	0	0	0	540	329	0	547	0	0	
4	0	0	0	0	556	389	0	518	0	0	
5	0	0	0	0	571	458	0	484	0	0	
6	0	0	0	0	584	529	0	449	0	0	
7	0	0	0	0	593	597	0	415	0	0	
8	0	0	0	0	596	654	0	385	0	0	
9	0	0	0	0	595	694	0	364	0	0	
10	0	0	0	0	589	712	0	354	0	0	
11	0	0	0	0	579	708	0	354	0	0	
12	0	0	0	0	565	683	0	366	0	0	
13	0	0	0	0	549	638	0	387	0	0	
14	0	0	0	0	531	578	0	415	0	0	
15	0	0	0	0	516	509	0	449	0	0	
0	0	0	0	0	502	438	0	485	0	0	
1	0	0	0	0	493	370	0	519	0	0	
2	0	0	0	0	488	314	0	549	0	0	
3	0	0	0	0	489	275	0	571	0	0	
4	0	0	0	0	496	255	0	583	0	0	
5	0	0	0	0	507	258	0	583	0	0	
6	0	0	0	0	521	283	0	573	0	0	
7	0	0	0	0	538	326	0	552	0	0	
8	0	0	0	0	556	386	0	523	0	0	
9	0	0	0	0	572	454	0	490	0	0	
10	0	0	0	0	586	525	0	454	0	0	
11	0	0	0	0	595	592	0	419	0	0	
12	0	0	0	0	600	649	0	389	0	0	
13	0	0	0	0	600	690	0	368	0	0	
14	0	0	0	0	594	710	0	356	0	0	
15	0	0	0	0	584	707	0	356	0	0	
0	0	0	0	0	570	683	0	368	0	0	
1	0	0	0	0	555	639	0	390	0	0	
2	0	0	0	0	538	581	0	419	0	0	
3	0	0	0	0	522	513	0	454	0	0	
4	0	0	0	0	508	443	0	490	0	0	
5	0	0	0	0	499	376	0	526	0	0	
6	0	0	0	0	495	321	0	555	0	0	
7	0	0	0	0	495	281	0	576	0	0	
8	0	0	0	0	501	262	0	587	0	0	
9	0	0	0	0	511	264	0	587	0	0	
10	0	0	0	0	525	289	0	576	0	0	
11	0	0	0	0	541	332	0	555	0	0	
12	0	0	0	0	557	391	0	525	0	0	
13	0	0	0	0	572	459	0	490	0	0	
14	0	0	0	0	585	528	0	454	0	0	
15	0	0	0	0	593	595	0	419	0	0	
0	0	0	0	0	597	651	0	389	0	0	
1	0	0	0	0	595	691	0	367	0	0	
2	0	0	0	0	589	709	0	356	0	0	
3	0	0	0	0	579	706	0	356	0	0	
4	0	0	0	0	565	681	0	367	0	0	
5	0	0	0	0	549	636	0	388	0	0	
6	0	0	0	0	532	577	0	418	0	0	
7	0	0	0	0	516	508	0	452	0	0	
8	0	0	0	0	504	438	0	489	0	0	
9	0	0	0	0	494	371	0	524	0	0	
10	0	0	0	0	490	315	0	554	0	0	
11	0	0	0	0	491	275	0	576	0	0	
12	0	0	0	0	497	256	0	589	0	0	
13	0	0	0	0	508	259	0	589	0	0	
14	0	0	0	0	522	284	0	579	0	0	
15	0	0	0	0	539	327	0	559	0	0	
0	0	0	0	0	556	387	0	530	0	0	
1	0	0	0	0	571	455	0	496	0	0	
2	0	0	0	0	584	526	0	460	0	0	
3	0	0	0	0	593	594	0	424	0	0	
4	0	0	0	0	597	651	0	393	0	0	
5	0	0	0	0	595	690	0	370	0	0	
6	0	0	0	0	589	709	0	358	0	0	
7	0	0	0	0	578	705	0	356	0	0	
8	0	0	0	0	563	679	0	365	0	0	
9	0	0	0	0	547	634	0	384	0	0	
10	0	0	0	0	529	574	0	411	0	0	
11	0	0	0	0	513	504	0	444	0	0	
12	0	0	0	0	499	432	0	479	0	0	
13	0	0	0	0	490	365	0	513	0	0	
14	0	0	0	0	485	308	0	543	0	0	
15	0	0	0	0	486	269	0	564	0	0	
0	0	0	0	0	493	249	0	577	0	0	
1	0	0	0	0	504	252	0	578	0	0	
2	0	0	0	0	519	276	0	569	0	0	
3	0	0	0	0	536	320	0	549	0	0	
4	0	0	0	0	553	380	0	521	0	0	
5	0	0	0	0	570	449	0	488	0	0	
6	0	0	0	0	583	521	0	452	0	0	
7	0	0	0	0	593	590	0	419	0	0	
8	0	0	0	0	598	648	0	389	0	0	
9	0	0	0	0	596	689	0	367	0	0	
10	0	0	0	0	591	708	0	356	0	0	
11	0	0	0	0	580	706	0	355	0	0	
12	0	0	0	0	566	681	0	365	0	0	
13	0	0	0	0	550	637	0	385	0	0	
14	0	0	0	0	532	577	0	413	0	0	
15	0	0	0	0	515	508	0	447	0	0	
0	0	0	0	0	501	437	0	482	0	0	
1	0	0	0	0	490	368	0	516	0	0	
2	0	0	0	0	484	312	0	545	0	0	
3	0	0	0	0	484	271	0	566	0	0	
4	0	0	0	0	489	249	0	577	0	0	
5	0	0	0	0	499	251	0	578	0	0	
6	0	0	0	0	512	274	0	567	0	0	
7	0	0	0	0	528	317	0	547	0	0	
8	0	0	0	0	545	375	0	518	0	0	
9	0	0	0	0	561	443	0	484	0	0	
10	0	0	0	0	575	515	0	448	0	0	
11	0	0	0	0	585	583	0	414	0	0	
12	0	0	0	0	591	640	0	385	0	0	
13	0	0	0	0	591	683	0	365	0	0	
14	0	0	0	0	586	704	0	355	0	0	
15	0	0	0	0	577	703	0	355	0	0	
0	0	0	0	0	564	679	0	367	0	0	
1	0	0	0	0	548	637	0	389	0	0	
2	0	0	0	0	532	579	0	417	0	0	
3	0	0	0	0	516	512	0	451	0	0	
4	0	0	0	0	503	441	0	487	0	0	
5	0	0	0	0	492	374	0	521	0	0	
6	0	0	0	0	487	317	0	550	0	0	
7	0	0	0	0	486	276	0	570	0	0	
8	0	0	0	0	491	256	0	581	0	0	
9	0	0	0	0	501	256	0	581	0	0	
10	0	0	0	0	514	279	0	571	0	0	
11	0	0	0	0	529	321	0	549	0	0	
12	0	0	0	0	546	379	0	519	0	0	
13	0	0	0	0	561	447	0	485	0	0	
14	0	0	0	0	575	518	0	449	0	0	
15	0	0	0	0	584	585	0	415	0	0	
0	0	0	0	0	589	643	0	384	0	0	
1	0	0	0	0	588	683	0	364	0	0	
2	0	0	0	0	583	706	0	352	0	0	
3	0	0	0	0	574	704	0	351	0	0	
4	0	0	0	0	561	681	0	363	0	0	
5	0	0	0	0	546	638	0	384	0	0	
6	0	0	0	0	530	581	0	412	0	0	
7	0	0	0	0	514	513	0	446	0	0	
8	0	0	0	0	501	443	0	482	0	0	
9	0	0	0	0	491	376	0	517	0	0	
10	0	0	0	0	487	319	0	546	0	0	
11	0	0	0	0	487	279	0	568	0	0	
12	0	0	0	0	493	259	0	579	0	0	
13	0	0	0	0	503	259	0	580	0	0	
14	0	0	0	0	517	282	0	571	0	0	
15	0	0	0	0	533	324	0	550	0	0	
0	0	0	0	0	550	381	0	521	0	0	
1	0	0	0	0	567	449	0	487	0	0	
2	0	0	0	0	580	519	0	451	0	0	
3	0	0	0	0	591	588	0	417	0	0	
4	0	0	0	0	596	646	0	387	0	0	
5	0	0	0	0	595	687	0	365	0	0	
6	0	0	0	0	590	708	0	353	0	0	
7	0	0	0	0	580	707	0	353	0	0	
8	0	0	0	0	567	684	0	364	0	0	
9	0	0	0	0	551	641	0	385	0	0	
10	0	0	0	0	533	583	0	413	0	0	
11	0	0	0	0	516	516	0	447	0	0	
12	0	0	0	0	503	445	0	483	0	0	
13	0	0	0	0	492	377	0	519	0	0	
14	0	0	0	0	487	320	0	548	0	0	
15	0	0	0	0	487	279	0	570	0	0	
0	0	0	0	0	493	257	0	583	0	0	
1	0	0	0	0	503	258	0	583	0	0	
2	0	0	0	0	516	280	0	573	0	0	
3	0	0	0	0	532	321	0	551	0	0	
4	0	0	0	0	548	378	0	522	0	0	
5	0	0	0	0	564	444	0	487	0	0	
6	0	0	0	0	577	515	0	449	0	0	
7	0	0	0	0	586	581	0	413	0	0	
8	0	0	0	0	589	637	0	382	0	0	
9	0	0	0	0	588	678	0	359	0	0	
10	0	0	0	0	580	698	0	345	0	0	
11	0	0	0	0	569	695	0	344	0	0	
12	0	0	0	0	555	671	0	353	0	0	
13	0	0	0	0	538	627	0	372	0	0	
14	0	0	0	0	520	569	0	400	0	0	
15	0	0	0	0	504	500	0	433	0	0	
0	0	0	0	0	490	429	0	468	0	0	
1	0	0	0	0	480	361	0	502	0	0	
2	0	0	0	0	476	304	0	532	0	0	
3	0	0	0	0	476	263	0	554	0	0	
4	0	0	0	0	481	242	0	566	0	0	
5	0	0	0	0	492	243	0	567	0	0	
6	0	0	0	0	505	267	0	558	0	0	
7	0	0	0	0	521	308	0	537	0	0	
8	0	0	0	0	538	366	0	510	0	0	
9	0	0	0	0	554	436	0	476	0	0	
10	0	0	0	0	568	507	0	441	0	0	
11	0	0	0	0	578	576	0	407	0	0	
12	0	0	0	0	583	635	0	377	0	0	
13	0	0	0	0	583	677	0	356	0	0	
14	0	0	0	0	578	700	0	344	0	0	
15	0	0	0	0	569	699	0	343	0	0	
0	0	0	0	0	556	676	0	354	0	0	
1	0	0	0	0	541	634	0	375	0	0	
2	0	0	0	0	525	576	0	404	0	0	
3	0	0	0	0	510	510	0	437	0	0	
4	0	0	0	0	497	438	0	473	0	0	
5	0	0	0	0	487	371	0	508	0	0	
6	0	0	0	0	482	313	0	538	0	0	
7	0	0	0	0	482	272	0	560	0	0	
8	0	0	0	0	487	250	0	573	0	0	
9	0	0	0	0	497	251	0	574	0	0	
10	0	0	0	0	510	273	0	564	0	0	
11	0	0	0	0	526	315	0	544	0	0	
12	0	0	0	0	542	372	0	516	0	0	
13	0	0	0	0	558	440	0	483	0	0	
14	0	0	0	0	572	511	0	447	0	0	
15	0	0	0	0	581	579	0	412	0	0	
0	0	0	0	0	586	638	0	382	0	0	
1	0	0	0	0	586	679	0	361	0	0	
2	0	0	0	0	582	702	0	350	0	0	
3	0	0	0	0	573	701	0	350	0	0	
4	0	0	0	0	560	679	0	360	0	0	
5	0	0	0	0	545	637	0	381	0	0	
6	0	0	0	0	530	579	0	410	0	0	
7	0	0	0	0	515	512	0	443	0	0	
8	0	0	0	0	503	441	0	479	0	0	
9	0	0	0	0	494	373	0	513	0	0	
10	0	0	0	0	489	315	0	543	0	0	
11	0	0	0	0	490	273	0	564	0	0	
12	0	0	0	0	496	251	0	576	0	0	
13	0	0	0	0	506	251	0	577	0	0	
14	0	0	0	0	520	272	0	567	0	0	
15	0	0	0	0	535	313	0	546	0	0	
0	0	0	0	0	551	371	0	518	0	0	
1	0	0	0	0	568	439	0	484	0	0	
2	0	0	0	0	581	510	0	448	0	0	
3	0	0	0	0	590	579	0	414	0	0	
4	0	0	0	0	595	638	0	385	0	0	
5	0	0	0	0	594	681	0	363	0	0	
6	0	0	0	0	588	704	0	352	0	0	
7	0	0	0	0	579	704	0	353	0	0	
8	0	0	0	0	565	682	0	364	0	0	
9	0	0	0	0	548	639	0	384	0	0	
10	0	0	0	0	531	583	0	412	0	0	
11	0	0	0	0	515	515	0	446	0	0	
12	0	0	0	0	501	443	0	481	0	0	
13	0	0	0	0	490	375	0	515	0	0	
14	0	0	0	0	484	316	0	544	0	0	
15	0	0	0	0	484	274	0	566	0	0	
0	0	0	0	0	488	251	0	577	0	0	
1	0	0	0	0	498	250	0	577	0	0	
2	0	0	0	0	510	271	0	567	0	0	
3	0	0	0	0	526	311	0	546	0	0	
4	0	0	0	0	542	368	0	518	0	0	
5	0	0	0	0	558	435	0	483	0	0	
6	0	0	0	0	572	506	0	447	0	0	
7	0	0	0	0	582	575	0	412	0	0	
8	0	0	0	0	588	633	0	382	0	0	
9	0	0	0	0	588	675	0	359	0	0	
10	0	0	0	0	582	697	0	346	0	0	
11	0	0	0	0	572	696	0	343	0	0	
12	0	0	0	0	558	671	0	351	0	0	
13	0	0	0	0	539	626	0	368	0	0	
14	0	0	0	0	519	565	0	391	0	0	
15	0	0	0	0	497	492	0	420	0	0	
0	0	0	0	0	477	415	0	450	0	0	
1	0	0	0	0	460	340	0	478	0	0	
2	0	0	0	0	445	274	0	500	0	0	
3	0	0	0	0	436	223	0	513	0	0	
4	0	0	0	0	430	191	0	516	0	0	
5	0	0	0	0	429	179	0	508	0	0	
6	0	0	0	0	431	190	0	488	0	0	
7	0	0	0	0	436	219	0	457	0	0	
8	0	0	0	0	441	265	0	417	0	0	
9	0	0	0	0	447	320	0	372	0	0	
10	0	0	0	0	450	382	0	325	0	0	
11	0	0	0	0	450	440	0	279	0	0	
12	0	0	0	0	445	488	0	237	0	0	
13	0	0	0	0	434	521	0	202	0	0	
14	0	0	0	0	419	534	0	176	0	0	
15	0	0	0	0	399	523	0	162	0	0	
0	0	0	0	0	375	491	0	159	0	0	
1	0	0	0	0	349	439	0	167	0	0	
2	0	0	0	0	322	372	0	184	0	0	
3	0	0	0	0	297	296	0	211	0	0	
4	0	0	0	0	276	219	0	242	0	0	
5	0	0	0	0	260	147	0	275	0	0	
6	0	0	0	0	253	88	0	308	0	0	
7	0	0	0	0	254	46	0	336	0	0	
8	0	0	0	0	264	25	0	359	0	0	
9	0	0	0	0	284	30	0	374	0	0	
10	0	0	0	0	312	61	0	380	0	0	
11	0	0	0	0	346	115	0	378	0	0	
12	0	0	0	0	385	189	0	369	0	0	
13	0	0	0	0	425	276	0	356	0	0	
14	0	0	0	0	466	371	0	341	0	0	
15	0	0	0	0	503	466	0	326	0	0	
0	0	0	0	0	534	551	0	316	0	0	
1	0	0	0	0	557	621	0	311	0	0	
2	0	0	0	0	573	668	0	316	0	0	
3	0	0	0	0	580	689	0	329	0	0	
4	0	0	0	0	580	685	0	351	0	0	
5	0	0	0	0	574	656	0	380	0	0	
6	0	0	0	0	563	608	0	416	0	0	
7	0	0	0	0	548	547	0	455	0	0	
8	0	0	0	0	534	477	0	494	0	0	
9	0	0	0	0	520	408	0	532	0	0	
10	0	0	0	0	511	347	0	563	0	0	
11	0	0	0	0	505	299	0	585	0	0	
12	0	0	0	0	504	271	0	596	0	0	
13	0	0	0	0	508	263	0	596	0	0	
14	0	0	0	0	516	278	0	584	0	0	
15	0	0	0	0	527	313	0	561	0	0	
0	0	0	0	0	540	364	0	530	0	0	
1	0	0	0	0	553	429	0	492	0	0	
2	0	0	0	0	567	497	0	452	0	0	
3	0	0	0	0	576	564	0	414	0	0	
4	0	0	0	0	583	623	0	381	0	0	
5	0	0	0	0	584	667	0	355	0	0	
6	0	0	0	0	581	691	0	341	0	0	
7	0	0	0	0	574	694	0	339	0	0	
8	0	0	0	0	563	675	0	349	0	0	
9	0	0	0	0	550	636	0	369	0	0	
10	0	0	0	0	535	582	0	398	0	0	
11	0	0	0	0	520	516	0	433	0	0	
12	0	0	0	0	508	447	0	471	0	0	
13	0	0	0	0	498	380	0	508	0	0	
14	0	0	0	0	492	322	0	540	0	0	
15	0	0	0	0	491	280	0	565	0	0	
0	0	0	0	0	496	256	0	579	0	0	
1	0	0	0	0	504	254	0	582	0	0	
2	0	0	0	0	516	273	0	574	0	0	
3	0	0	0	0	531	312	0	555	0	0	
4	0	0	0	0	546	368	0	526	0	0	
5	0	0	0	0	561	434	0	493	0	0	
6	0	0	0	0	575	504	0	457	0	0	
7	0	0	0	0	585	572	0	422	0	0	
8	0	0	0	0	590	632	0	390	0	0	
9	0	0	0	0	590	676	0	367	0	0	
10	0	0	0	0	587	700	0	354	0	0	
11	0	0	0	0	578	702	0	352	0	0	
12	0	0	0	0	567	683	0	362	0	0	
13	0	0	0	0	553	643	0	382	0	0	
14	0	0	0	0	538	589	0	411	0	0	
15	0	0	0	0	524	524	0	445	0	0	
0	0	0	0	0	512	454	0	482	0	0	
1	0	0	0	0	504	387	0	518	0	0	
2	0	0	0	0	500	329	0	550	0	0	
3	0	0	0	0	501	287	0	573	0	0	
4	0	0	0	0	507	264	0	587	0	0	
5	0	0	0	0	517	262	0	589	0	0	
6	0	0	0	0	530	281	0	580	0	0	
7	0	0	0	0	545	320	0	560	0	0	
8	0	0	0	0	560	375	0	532	0	0	
9	0	0	0	0	575	440	0	498	0	0	
10	0	0	0	0	588	510	0	461	0	0	
11	0	0	0	0	595	577	0	425	0	0	
12	0	0	0	0	599	635	0	393	0	0	
13	0	0	0	0	597	678	0	369	0	0	
14	0	0	0	0	590	700	0	355	0	0	
15	0	0	0	0	579	701	0	353	0	0	
0	0	0	0	0	564	680	0	361	0	0	
1	0	0	0	0	547	639	0	380	0	0	
2	0	0	0	0	529	583	0	408	0	0	
3	0	0	0	0	513	517	0	441	0	0	
4	0	0	0	0	500	447	0	476	0	0	
5	0	0	0	0	490	379	0	512	0	0	
6	0	0	0	0	485	321	0	542	0	0	
7	0	0	0	0	486	278	0	565	0	0	
8	0	0	0	0	492	255	0	579	0	0	
9	0	0	0	0	502	252	0	581	0	0	
10	0	0	0	0	515	273	0	573	0	0	
11	0	0	0	0	531	312	0	554	0	0	
12	0	0	0	0	548	369	0	527	0	0	
13	0	0	0	0	565	435	0	494	0	0	
14	0	0	0	0	578	506	0	458	0	0	
15	0	0	0	0	588	575	0	423	0	0	
0	0	0	0	0	593	634	0	392	0	0	
1	0	0	0	0	593	678	0	369	0	0	
2	0	0	0	0	588	701	0	357	0	0	
3	0	0	0	0	579	703	0	354	0	0	
4	0	0	0	0	566	683	0	363	0	0	
5	0	0	0	0	551	642	0	382	0	0	
6	0	0	0	0	534	586	0	409	0	0	
7	0	0	0	0	518	518	0	443	0	0	
8	0	0	0	0	503	447	0	477	0	0	
9	0	0	0	0	492	379	0	512	0	0	
10	0	0	0	0	486	319	0	542	0	0	
11	0	0	0	0	485	275	0	564	0	0	
12	0	0	0	0	488	251	0	576	0	0	
13	0	0	0	0	497	248	0	577	0	0	
14	0	0	0	0	510	267	0	568	0	0	
15	0	0	0	0	525	306	0	548	0	0	
0	0	0	0	0	541	361	0	520	0	0	
1	0	0	0	0	557	429	0	485	0	0	
2	0	0	0	0	571	499	0	449	0	0	
3	0	0	0	0	581	569	0	413	0	0	
4	0	0	0	0	587	629	0	382	0	0	
5	0	0	0	0	587	674	0	357	0	0	
6	0	0	0	0	582	698	0	344	0	0	
7	0	0	0	0	573	700	0	341	0	0	
8	0	0	0	0	560	680	0	350	0	0	
9	0	0	0	0	545	640	0	369	0	0	
10	0	0	0	0	528	584	0	396	0	0	
11	0	0	0	0	513	518	0	431	0	0	
12	0	0	0	0	500	447	0	467	0	0	
13	0	0	0	0	490	378	0	504	0	0	
14	0	0	0	0	485	319	0	535	0	0	
15	0	0	0	0	484	275	0	560	0	0	
0	0	0	0	0	489	250	0	575	0	0	
1	0	0	0	0	499	247	0	578	0	0	
2	0	0	0	0	512	267	0	571	0	0	
3	0	0	0	0	527	305	0	551	0	0	
4	0	0	0	0	543	360	0	524	0	0	
5	0	0	0	0	559	427	0	491	0	0	
6	0	0	0	0	573	497	0	454	0	0	
7	0	0	0	0	582	566	0	418	0	0	
8	0	0	0	0	586	625	0	385	0	0	
9	0	0	0	0	585	670	0	360	0	0	
10	0	0	0	0	579	695	0	345	0	0	
11	0	0	0	0	570	697	0	342	0	0	
12	0	0	0	0	556	677	0	350	0	0	
13	0	0	0	0	540	637	0	368	0	0	
14	0	0	0	0	523	581	0	394	0	0	
15	0	0	0	0	506	514	0	428	0	0	
0	0	0	0	0	492	444	0	463	0	0	
1	0	0	0	0	481	375	0	499	0	0	
2	0	0	0	0	476	316	0	529	0	0	
3	0	0	0	0	476	272	0	553	0	0	
4	0	0	0	0	481	247	0	568	0	0	
5	0	0	0	0	491	244	0	572	0	0	
6	0	0	0	0	505	263	0	564	0	0	
7	0	0	0	0	521	302	0	545	0	0	
8	0	0	0	0	539	357	0	519	0	0	
9	0	0	0	0	556	423	0	487	0	0	
10	0	0	0	0	571	494	0	451	0	0	
11	0	0	0	0	582	563	0	416	0	0	
12	0	0	0	0	587	623	0	384	0	0	
13	0	0	0	0	587	668	0	360	0	0	
14	0	0	0	0	581	693	0	347	0	0	
15	0	0	0	0	571	696	0	343	0	0	
0	0	0	0	0	557	676	0	351	0	0	
1	0	0	0	0	540	636	0	368	0	0	
2	0	0	0	0	521	579	0	395	0	0	
3	0	0	0	0	504	512	0	428	0	0	
4	0	0	0	0	489	441	0	462	0	0	
5	0	0	0	0	477	372	0	497	0	0	
6	0	0	0	0	470	312	0	527	0	0	
7	0	0	0	0	468	268	0	551	0	0	
8	0	0	0	0	472	241	0	565	0	0	
9	0	0	0	0	481	238	0	567	0	0	
10	0	0	0	0	494	256	0	560	0	0	
11	0	0	0	0	509	294	0	540	0	0	
12	0	0	0	0	527	350	0	513	0	0	
13	0	0	0	0	543	415	0	480	0	0	
14	0	0	0	0	558	487	0	444	0	0	
15	0	0	0	0	569	556	0	409	0	0	
0	0	0	0	0	575	615	0	377	0	0	
1	0	0	0	0	576	661	0	353	0	0	
2	0	0	0	0	572	686	0	339	0	0	
3	0	0	0	0	563	689	0	335	0	0	
4	0	0	0	0	551	669	0	344	0	0	
5	0	0	0	0	536	630	0	361	0	0	
6	0	0	0	0	519	574	0	389	0	0	
7	0	0	0	0	504	507	0	422	0	0	
8	0	0	0	0	489	436	0	457	0	0	
9	0	0	0	0	479	367	0	493	0	0	
10	0	0	0	0	473	307	0	524	0	0	
11	0	0	0	0	472	262	0	548	0	0	
12	0	0	0	0	476	236	0	563	0	0	
13	0	0	0	0	486	232	0	567	0	0	
14	0	0	0	0	499	251	0	560	0	0	
15	0	0	0	0	515	289	0	542	0	0	
0	0	0	0	0	532	344	0	515	0	0	
1	0	0	0	0	549	412	0	483	0	0	
2	0	0	0	0	564	484	0	448	0	0	
3	0	0	0	0	575	555	0	414	0	0	
4	0	0	0	0	582	616	0	382	0	0	
5	0	0	0	0	584	663	0	359	0	0	
6	0	0	0	0	580	690	0	345	0	0	
7	0	0	0	0	572	695	0	342	0	0	
8	0	0	0	0	559	677	0	350	0	0	
9	0	0	0	0	543	638	0	368	0	0	
10	0	0	0	0	526	583	0	395	0	0	
11	0	0	0	0	509	515	0	428	0	0	
12	0	0	0	0	494	444	0	462	0	0	
13	0	0	0	0	481	374	0	497	0	0	
14	0	0	0	0	473	313	0	527	0	0	
15	0	0	0	0	470	266	0	550	0	0	
0	0	0	0	0	473	239	0	563	0	0	
1	0	0	0	0	480	233	0	566	0	0	
2	0	0	0	0	492	249	0	557	0	0	
3	0	0	0	0	506	286	0	538	0	0	
4	0	0	0	0	522	339	0	511	0	0	
5	0	0	0	0	538	404	0	478	0	0	
6	0	0	0	0	552	475	0	441	0	0	
7	0	0	0	0	564	545	0	407	0	0	
8	0	0	0	0	571	606	0	376	0	0	
9	0	0	0	0	573	653	0	352	0	0	
10	0	0	0	0	570	680	0	339	0	0	
11	0	0	0	0	563	684	0	337	0	0	
12	0	0	0	0	552	667	0	346	0	0	
13	0	0	0	0	539	629	0	365	0	0	
14	0	0	0	0	524	575	0	392	0	0	
15	0	0	0	0	508	510	0	426	0	0	
0	0	0	0	0	494	439	0	462	0	0	
1	0	0	0	0	483	371	0	497	0	0	
2	0	0	0	0	477	310	0	528	0	0	
3	0	0	0	0	475	265	0	552	0	0	
4	0	0	0	0	479	239	0	565	0	0	
5	0	0	0	0	487	234	0	569	0	0	
6	0	0	0	0	500	252	0	562	0	0	
7	0	0	0	0	515	289	0	544	0	0	
8	0	0	0	0	532	344	0	518	0	0	
9	0	0	0	0	550	411	0	486	0	0	
10	0	0	0	0	565	482	0	451	0	0	
11	0	0	0	0	577	553	0	418	0	0	
12	0	0	0	0	584	614	0	387	0	0	
13	0	0	0	0	585	661	0	363	0	0	
14	0	0	0	0	583	688	0	350	0	0	
15	0	0	0	0	575	692	0	345	0	0	
0	0	0	0	0	562	674	0	352	0	0	
1	0	0	0	0	547	635	0	369	0	0	
2	0	0	0	0	529	579	0	395	0	0	
3	0	0	0	0	512	511	0	426	0	0	
4	0	0	0	0	496	440	0	460	0	0	
5	0	0	0	0	484	369	0	494	0	0	
6	0	0	0	0	476	308	0	524	0	0	
7	0	0	0	0	474	262	0	547	0	0	
8	0	0	0	0	477	235	0	561	0	0	
9	0	0	0	0	486	230	0	564	0	0	
10	0	0	0	0	497	246	0	557	0	0	
11	0	0	0	0	512	284	0	539	0	0	
12	0	0	0	0	529	339	0	513	0	0	
13	0	0	0	0	545	405	0	481	0	0	
14	0	0	0	0	560	477	0	446	0	0	
15	0	0	0	0	571	547	0	412	0	0	
0	0	0	0	0	577	609	0	381	0	0	
1	0	0	0	0	579	656	0	357	0	0	
2	0	0	0	0	575	684	0	343	0	0	
3	0	0	0	0	567	689	0	339	0	0	
4	0	0	0	0	556	672	0	347	0	0	
5	0	0	0	0	541	634	0	366	0	0	
6	0	0	0	0	526	580	0	392	0	0	
7	0	0	0	0	510	514	0	426	0	0	
8	0	0	0	0	497	444	0	462	0	0	
9	0	0	0	0	487	376	0	497	0	0	
10	0	0	0	0	481	316	0	529	0	0	
11	0	0	0	0	480	271	0	555	0	0	
12	0	0	0	0	485	246	0	570	0	0	
13	0	0	0	0	495	241	0	574	0	0	
14	0	0	0	0	508	259	0	568	0	0	
15	0	0	0	0	523	295	0	550	0	0	
0	0	0	0	0	540	350	0	525	0	0	
1	0	0	0	0	556	416	0	492	0	0	
2	0	0	0	0	570	486	0	456	0	0	
3	0	0	0	0	580	555	0	421	0	0	
4	0	0	0	0	586	615	0	388	0	0	
5	0	0	0	0	586	661	0	363	0	0	
6	0	0	0	0	581	687	0	347	0	0	
7	0	0	0	0	571	690	0	343	0	0	
8	0	0	0	0	557	672	0	349	0	0	
9	0	0	0	0	541	633	0	365	0	0	
10	0	0	0	0	523	578	0	391	0	0	
11	0	0	0	0	507	512	0	423	0	0	
12	0	0	0	0	493	442	0	459	0	0	
13	0	0	0	0	482	374	0	495	0	0	
14	0	0	0	0	477	314	0	527	0	0	
15	0	0	0	0	478	270	0	553	0	0	
0	0	0	0	0	483	244	0	570	0	0	
1	0	0	0	0	494	241	0	575	0	0	
2	0	0	0	0	508	259	0	570	0	0	
3	0	0	0	0	524	297	0	554	0	0	
4	0	0	0	0	542	353	0	528	0	0	
5	0	0	0	0	558	419	0	496	0	0	
6	0	0	0	0	573	491	0	462	0	0	
7	0	0	0	0	583	561	0	426	0	0	
8	0	0	0	0	588	622	0	394	0	0	
9	0	0	0	0	588	669	0	369	0	0	
10	0	0	0	0	583	696	0	355	0	0	
11	0	0	0	0	573	700	0	350	0	0	
12	0	0	0	0	560	683	0	357	0	0	
13	0	0	0	0	544	645	0	375	0	0	
14	0	0	0	0	528	591	0	400	0	0	
15	0	0	0	0	512	525	0	433	0	0	
0	0	0	0	0	498	454	0	469	0	0	
1	0	0	0	0	488	385	0	504	0	0	
2	0	0	0	0	483	324	0	536	0	0	
3	0	0	0	0	483	278	0	561	0	0	
4	0	0	0	0	487	251	0	576	0	0	
5	0	0	0	0	497	245	0	580	0	0	
6	0	0	0	0	510	262	0	574	0	0	
7	0	0	0	0	525	298	0	556	0	0	
8	0	0	0	0	541	351	0	528	0	0	
9	0	0	0	0	557	416	0	495	0	0	
10	0	0	0	0	570	486	0	459	0	0	
11	0	0	0	0	579	555	0	422	0	0	
12	0	0	0	0	584	616	0	389	0	0	
13	0	0	0	0	584	663	0	362	0	0	
14	0	0	0	0	579	690	0	346	0	0	
15	0	0	0	0	569	695	0	341	0	0	
0	0	0	0	0	556	678	0	348	0	0	
1	0	0	0	0	540	640	0	365	0	0	
2	0	0	0	0	524	585	0	391	0	0	
3	0	0	0	0	508	519	0	425	0	0	
4	0	0	0	0	494	448	0	461	0	0	
5	0	0	0	0	483	379	0	498	0	0	
6	0	0	0	0	477	317	0	530	0	0	
7	0	0	0	0	476	270	0	555	0	0	
8	0	0	0	0	480	241	0	571	0	0	
9	0	0	0	0	488	234	0	575	0	0	
10	0	0	0	0	500	249	0	567	0	0	
11	0	0	0	0	514	285	0	548	0	0	
12	0	0	0	0	530	338	0	521	0	0	
13	0	0	0	0	544	403	0	487	0	0	
14	0	0	0	0	558	473	0	450	0	0	
15	0	0	0	0	567	543	0	413	0	0	
0	0	0	0	0	572	604	0	380	0	0	
1	0	0	0	0	573	651	0	355	0	0	
2	0	0	0	0	568	680	0	339	0	0	
3	0	0	0	0	559	686	0	335	0	0	
4	0	0	0	0	546	669	0	343	0	0	
5	0	0	0	0	532	632	0	361	0	0	
6	0	0	0	0	516	580	0	388	0	0	
7	0	0	0	0	502	515	0	422	0	0	
8	0	0	0	0	489	446	0	458	0	0	
9	0	0	0	0	480	378	0	495	0	0	
10	0	0	0	0	476	318	0	527	0	0	
11	0	0	0	0	476	273	0	553	0	0	
12	0	0	0	0	481	246	0	568	0	0	
13	0	0	0	0	491	239	0	573	0	0	
14	0	0	0	0	504	255	0	566	0	0	
15	0	0	0	0	518	291	0	547	0	0	
0	0	0	0	0	534	343	0	520	0	0	
1	0	0	0	0	549	407	0	487	0	0	
2	0	0	0	0	562	476	0	449	0	0	
3	0	0	0	0	571	544	0	412	0	0	
4	0	0	0	0	576	604	0	379	0	0	
5	0	0	0	0	575	650	0	353	0	0	
6	0	0	0	0	571	676	0	338	0	0	
7	0	0	0	0	561	682	0	333	0	0	
8	0	0	0	0	548	665	0	341	0	0	
9	0	0	0	0	534	628	0	359	0	0	
10	0	0	0	0	518	575	0	386	0	0	
11	0	0	0	0	502	510	0	420	0	0	
12	0	0	0	0	489	441	0	456	0	0	
13	0	0	0	0	479	373	0	493	0	0	
14	0	0	0	0	473	313	0	526	0	0	
15	0	0	0	0	472	268	0	551	0	0	
0	0	0	0	0	476	240	0	568	0	0	
1	0	0	0	0	486	234	0	573	0	0	
2	0	0	0	0	497	250	0	567	0	0	
3	0	0	0	0	512	286	0	549	0	0	
4	0	0	0	0	528	339	0	523	0	0	
5	0	0	0	0	544	404	0	490	0	0	
6	0	0	0	0	559	475	0	455	0	0	
7	0	0	0	0	569	544	0	419	0	0	
8	0	0	0	0	576	606	0	385	0	0	
9	0	0	0	0	577	654	0	359	0	0	
10	0	0	0	0	574	681	0	344	0	0	
11	0	0	0	0	566	688	0	338	0	0	
12	0	0	0	0	554	671	0	344	0	0	
13	0	0	0	0	539	635	0	361	0	0	
14	0	0	0	0	523	581	0	386	0	0	
15	0	0	0	0	506	515	0	418	0	0	
0	0	0	0	0	491	444	0	453	0	0	
1	0	0	0	0	479	375	0	488	0	0	
2	0	0	0	0	471	313	0	519	0	0	
3	0	0	0	0	468	266	0	544	0	0	
4	0	0	0	0	471	237	0	560	0	0	
5	0	0	0	0	478	229	0	564	0	0	
6	0	0	0	0	489	243	0	559	0	0	
7	0	0	0	0	504	278	0	541	0	0	
8	0	0	0	0	519	330	0	515	0	0	
9	0	0	0	0	535	393	0	483	0	0	
10	0	0	0	0	550	464	0	448	0	0	
11	0	0	0	0	560	534	0	412	0	0	
12	0	0	0	0	567	596	0	380	0	0	
13	0	0	0	0	568	645	0	355	0	0	
14	0	0	0	0	565	674	0	339	0	0	
15	0	0	0	0	558	681	0	335	0	0	
0	0	0	0	0	546	665	0	342	0	0	
1	0	0	0	0	532	630	0	359	0	0	
2	0	0	0	0	516	577	0	385	0	0	
3	0	0	0	0	501	513	0	418	0	0	
4	0	0	0	0	487	443	0	454	0	0	
5	0	0	0	0	476	374	0	489	0	0	
6	0	0	0	0	470	312	0	521	0	0	
7	0	0	0	0	468	264	0	545	0	0	
8	0	0	0	0	471	235	0	561	0	0	
9	0	0	0	0	480	227	0	566	0	0	
10	0	0	0	0	492	242	0	560	0	0	
11	0	0	0	0	507	277	0	543	0	0	
12	0	0	0	0	523	329	0	518	0	0	
13	0	0	0	0	540	395	0	486	0	0	
14	0	0	0	0	555	465	0	450	0	0	
15	0	0	0	0	567	536	0	416	0	0	
0	0	0	0	0	574	599	0	384	0	0	
1	0	0	0	0	576	647	0	359	0	0	
2	0	0	0	0	573	676	0	344	0	0	
3	0	0	0	0	566	684	0	340	0	0	
4	0	0	0	0	554	669	0	347	0	0	
5	0	0	0	0	539	633	0	364	0	0	
6	0	0	0	0	523	580	0	389	0	0	
7	0	0	0	0	507	515	0	422	0	0	
8	0	0	0	0	492	445	0	457	0	0	
9	0	0	0	0	480	376	0	493	0	0	
10	0	0	0	0	472	314	0	525	0	0	
11	0	0	0	0	470	267	0	550	0	0	
12	0	0	0	0	472	238	0	567	0	0	
13	0	0	0	0	480	230	0	572	0	0	
14	0	0	0	0	491	244	0	565	0	0	
15	0	0	0	0	506	280	0	548	0	0	
0	0	0	0	0	521	332	0	523	0	0	
1	0	0	0	0	537	396	0	490	0	0	
2	0	0	0	0	552	467	0	454	0	0	
3	0	0	0	0	563	537	0	419	0	0	
4	0	0	0	0	570	599	0	386	0	0	
5	0	0	0	0	572	648	0	360	0	0	
6	0	0	0	0	569	678	0	344	0	0	
7	0	0	0	0	562	685	0	339	0	0	
8	0	0	0	0	551	670	0	345	0	0	
9	0	0	0	0	537	634	0	363	0	0	
10	0	0	0	0	521	582	0	390	0	0	
11	0	0	0	0	505	517	0	422	0	0	
12	0	0	0	0	492	447	0	459	0	0	
13	0	0	0	0	480	377	0	495	0	0	
14	0	0	0	0	473	315	0	527	0	0	
15	0	0	0	0	471	268	0	553	0	0	
0	0	0	0	0	474	238	0	569	0	0	
1	0	0	0	0	481	229	0	574	0	0	
2	0	0	0	0	492	242	0	568	0	0	
3	0	0	0	0	506	276	0	550	0	0	
4	0	0	0	0	521	327	0	524	0	0	
5	0	0	0	0	536	390	0	491	0	0	
6	0	0	0	0	550	460	0	454	0	0	
7	0	0	0	0	560	529	0	418	0	0	
8	0	0	0	0	567	591	0	384	0	0	
9	0	0	0	0	568	638	0	358	0	0	
10	0	0	0	0	566	669	0	341	0	0	
11	0	0	0	0	559	676	0	335	0	0	
12	0	0	0	0	547	662	0	342	0	0	
13	0	0	0	0	534	627	0	358	0	0	
14	0	0	0	0	519	575	0	384	0	0	
15	0	0	0	0	503	512	0	417	0	0	
0	0	0	0	0	490	442	0	454	0	0	
1	0	0	0	0	480	374	0	491	0	0	
2	0	0	0	0	473	312	0	524	0	0	
3	0	0	0	0	472	265	0	551	0	0	
4	0	0	0	0	475	235	0	568	0	0	
5	0	0	0	0	483	227	0	574	0	0	
6	0	0	0	0	495	241	0	569	0	0	
7	0	0	0	0	509	275	0	552	0	0	
8	0	0	0	0	524	326	0	527	0	0	
9	0	0	0	0	540	390	0	495	0	0	
10	0	0	0	0	554	460	0	459	0	0	
11	0	0	0	0	564	529	0	422	0	0	
12	0	0	0	0	569	591	0	388	0	0	
13	0	0	0	0	569	639	0	360	0	0	
14	0	0	0	0	565	670	0	343	0	0	
15	0	0	0	0	556	676	0	335	0	0	
0	0	0	0	0	543	662	0	340	0	0	
1	0	0	0	0	527	626	0	354	0	0	
2	0	0	0	0	511	574	0	379	0	0	
3	0	0	0	0	495	510	0	410	0	0	
4	0	0	0	0	480	440	0	446	0	0	
5	0	0	0	0	469	371	0	482	0	0	
6	0	0	0	0	463	309	0	515	0	0	
7	0	0	0	0	463	262	0	542	0	0	
8	0	0	0	0	468	233	0	561	0	0	
9	0	0	0	0	478	227	0	569	0	0	
10	0	0	0	0	492	242	0	566	0	0	
11	0	0	0	0	510	278	0	552	0	0	
12	0	0	0	0	528	332	0	529	0	0	
13	0	0	0	0	546	398	0	499	0	0	
14	0	0	0	0	563	469	0	466	0	0	
15	0	0	0	0	575	541	0	432	0	0	
0	0	0	0	0	583	604	0	400	0	0	
1	0	0	0	0	584	654	0	374	0	0	
2	0	0	0	0	581	684	0	357	0	0	
3	0	0	0	0	573	692	0	351	0	0	
4	0	0	0	0	560	678	0	355	0	0	
5	0	0	0	0	544	642	0	371	0	0	
6	0	0	0	0	528	590	0	395	0	0	
7	0	0	0	0	511	524	0	427	0	0	
8	0	0	0	0	496	454	0	461	0	0	
9	0	0	0	0	484	384	0	497	0	0	
10	0	0	0	0	476	321	0	529	0	0	
11	0	0	0	0	474	273	0	555	0	0	
12	0	0	0	0	477	243	0	572	0	0	
13	0	0	0	0	485	234	0	579	0	0	
14	0	0	0	0	497	247	0	575	0	0	
15	0	0	0	0	511	281	0	559	0	0	
0	0	0	0	0	527	332	0	535	0	0	
1	0	0	0	0	543	395	0	503	0	0	
2	0	0	0	0	558	465	0	468	0	0	
3	0	0	0	0	568	535	0	432	0	0	
4	0	0	0	0	575	597	0	399	0	0	
5	0	0	0	0	575	646	0	372	0	0	
6	0	0	0	0	572	675	0	354	0	0	
7	0	0	0	0	564	683	0	348	0	0	
8	0	0	0	0	551	669	0	352	0	0	
9	0	0	0	0	536	634	0	368	0	0	
10	0	0	0	0	519	582	0	392	0	0	
11	0	0	0	0	504	517	0	424	0	0	
12	0	0	0	0	489	447	0	460	0	0	
13	0	0	0	0	478	377	0	496	0	0	
14	0	0	0	0	470	314	0	528	0	0	
15	0	0	0	0	467	265	0	555	0	0	
0	0	0	0	0	471	235	0	573	0	0	
1	0	0	0	0	479	226	0	579	0	0	
2	0	0	0	0	491	240	0	575	0	0	
3	0	0	0	0	505	274	0	560	0	0	
4	0	0	0	0	522	325	0	536	0	0	
5	0	0	0	0	539	389	0	505	0	0	
6	0	0	0	0	554	460	0	470	0	0	
7	0	0	0	0	566	531	0	435	0	0	
8	0	0	0	0	574	595	0	403	0	0	
9	0	0	0	0	576	646	0	377	0	0	
10	0	0	0	0	575	676	0	360	0	0	
11	0	0	0	0	568	686	0	354	0	0	
12	0	0	0	0	556	673	0	359	0	0	
13	0	0	0	0	542	638	0	374	0	0	
14	0	0	0	0	525	586	0	397	0	0	
15	0	0	0	0	509	521	0	428	0	0	
0	0	0	0	0	493	451	0	462	0	0	
1	0	0	0	0	480	380	0	496	0	0	
2	0	0	0	0	472	316	0	527	0	0	
3	0	0	0	0	468	267	0	551	0	0	
4	0	0	0	0	471	236	0	569	0	0	
5	0	0	0	0	479	226	0	574	0	0	
6	0	0	0	0	490	239	0	570	0	0	
7	0	0	0	0	505	272	0	555	0	0	
8	0	0	0	0	522	323	0	532	0	0	
9	0	0	0	0	540	388	0	502	0	0	
10	0	0	0	0	556	459	0	469	0	0	
11	0	0	0	0	568	531	0	435	0	0	
12	0	0	0	0	577	595	0	405	0	0	
13	0	0	0	0	579	646	0	380	0	0	
14	0	0	0	0	578	678	0	365	0	0	
15	0	0	0	0	571	688	0	359	0	0	
0	0	0	0	0	559	676	0	365	0	0	
1	0	0	0	0	543	641	0	380	0	0	
2	0	0	0	0	526	590	0	404	0	0	
3	0	0	0	0	509	525	0	435	0	0	
4	0	0	0	0	492	454	0	469	0	0	
5	0	0	0	0	479	383	0	503	0	0	
6	0	0	0	0	469	318	0	534	0	0	
7	0	0	0	0	464	268	0	559	0	0	
8	0	0	0	0	465	235	0	575	0	0	
9	0	0	0	0	471	223	0	579	0	0	
10	0	0	0	0	481	234	0	574	0	0	
11	0	0	0	0	494	265	0	557	0	0	
12	0	0	0	0	508	313	0	531	0	0	
13	0	0	0	0	523	375	0	499	0	0	
14	0	0	0	0	536	444	0	463	0	0	
15	0	0	0	0	546	512	0	426	0	0	
0	0	0	0	0	552	574	0	392	0	0	
1	0	0	0	0	552	623	0	365	0	0	
2	0	0	0	0	548	652	0	348	0	0	
3	0	0	0	0	539	660	0	342	0	0	
4	0	0	0	0	526	646	0	348	0	0	
5	0	0	0	0	510	610	0	364	0	0	
6	0	0	0	0	492	557	0	391	0	0	
7	0	0	0	0	475	492	0	425	0	0	
8	0	0	0	0	460	421	0	463	0	0	
9	0	0	0	0	448	350	0	503	0	0	
10	0	0	0	0	440	287	0	539	0	0	
11	0	0	0	0	438	239	0	568	0	0	
12	0	0	0	0	443	208	0	588	0	0	
13	0	0	0	0	453	200	0	596	0	0	
14	0	0	0	0	467	214	0	592	0	0	
15	0	0	0	0	484	249	0	576	0	0	
0	0	0	0	0	504	302	0	551	0	0	
1	0	0	0	0	524	368	0	518	0	0	
2	0	0	0	0	543	443	0	480	0	0	
3	0	0	0	0	558	516	0	442	0	0	
4	0	0	0	0	569	583	0	407	0	0	
5	0	0	0	0	574	638	0	377	0	0	
6	0	0	0	0	573	671	0	357	0	0	
7	0	0	0	0	567	684	0	348	0	0	
8	0	0	0	0	555	672	0	351	0	0	
9	0	0	0	0	541	639	0	365	0	0	
10	0	0	0	0	523	588	0	389	0	0	
11	0	0	0	0	505	523	0	421	0	0	
12	0	0	0	0	489	452	0	457	0	0	
13	0	0	0	0	475	380	0	494	0	0	
14	0	0	0	0	465	315	0	528	0	0	
15	0	0	0	0	461	263	0	557	0	0	
0	0	0	0	0	462	230	0	576	0	0	
1	0	0	0	0	469	218	0	584	0	0	
2	0	0	0	0	480	228	0	582	0	0	
3	0	0	0	0	495	260	0	568	0	0	
4	0	0	0	0	511	310	0	544	0	0	
5	0	0	0	0	528	373	0	513	0	0	
6	0	0	0	0	544	444	0	478	0	0	
7	0	0	0	0	557	515	0	442	0	0	
8	0	0	0	0	566	580	0	409	0	0	
9	0	0	0	0	569	632	0	382	0	0	
10	0	0	0	0	567	664	0	364	0	0	
11	0	0	0	0	560	675	0	357	0	0	
12	0	0	0	0	548	663	0	360	0	0	
13	0	0	0	0	534	630	0	374	0	0	
14	0	0	0	0	516	578	0	397	0	0	
15	0	0	0	0	499	513	0	428	0	0	
0	0	0	0	0	482	443	0	463	0	0	
1	0	0	0	0	469	371	0	498	0	0	
2	0	0	0	0	460	307	0	531	0	0	
3	0	0	0	0	455	256	0	557	0	0	
4	0	0	0	0	457	223	0	575	0	0	
5	0	0	0	0	464	211	0	583	0	0	
6	0	0	0	0	476	221	0	579	0	0	
7	0	0	0	0	490	252	0	564	0	0	
8	0	0	0	0	507	300	0	540	0	0	
9	0	0	0	0	523	363	0	510	0	0	
10	0	0	0	0	540	433	0	475	0	0	
11	0	0	0	0	551	504	0	440	0	0	
12	0	0	0	0	560	568	0	408	0	0	
13	0	0	0	0	563	620	0	383	0	0	
14	0	0	0	0	560	652	0	366	0	0	
15	0	0	0	0	553	664	0	360	0	0	
0	0	0	0	0	542	653	0	367	0	0	
1	0	0	0	0	527	621	0	383	0	0	
2	0	0	0	0	512	571	0	408	0	0	
3	0	0	0	0	496	509	0	441	0	0	
4	0	0	0	0	483	441	0	478	0	0	
5	0	0	0	0	472	372	0	515	0	0	
6	0	0	0	0	465	311	0	551	0	0	
7	0	0	0	0	464	262	0	578	0	0	
8	0	0	0	0	468	231	0	597	0	0	
9	0	0	0	0	477	220	0	605	0	0	
10	0	0	0	0	488	231	0	601	0	0	
11	0	0	0	0	502	262	0	585	0	0	
12	0	0	0	0	516	309	0	559	0	0	
13	0	0	0	0	529	368	0	524	0	0	
14	0	0	0	0	540	433	0	484	0	0	
15	0	0	0	0	545	497	0	443	0	0	
0	0	0	0	0	545	554	0	403	0	0	
1	0	0	0	0	538	596	0	368	0	0	
2	0	0	0	0	526	620	0	341	0	0	
3	0	0	0	0	508	620	0	323	0	0	
4	0	0	0	0	486	599	0	317	0	0	
5	0	0	0	0	460	555	0	321	0	0	
6	0	0	0	0	432	494	0	334	0	0	
7	0	0	0	0	404	420	0	354	0	0	
8	0	0	0	0	379	340	0	379	0	0	
9	0	0	0	0	355	260	0	405	0	0	
10	0	0	0	0	336	187	0	428	0	0	
11	0	0	0	0	323	126	0	446	0	0	
12	0	0	0	0	314	82	0	455	0	0	
13	0	0	0	0	312	59	0	454	0	0	
14	0	0	0	0	314	57	0	441	0	0	
15	0	0	0	0	319	76	0	417	0	0	
0	0	0	0	0	327	113	0	385	0	0	
1	0	0	0	0	335	166	0	345	0	0	
2	0	0	0	0	344	226	0	302	0	0	
3	0	0	0	0	349	289	0	259	0	0	
4	0	0	0	0	352	349	0	219	0	0	
5	0	0	0	0	352	399	0	187	0	0	
6	0	0	0	0	348	432	0	165	0	0	
7	0	0	0	0	343	446	0	156	0	0	
8	0	0	0	0	336	441	0	162	0	0	
9	0	0	0	0	329	417	0	182	0	0	
10	0	0	0	0	324	378	0	215	0	0	
11	0	0	0	0	321	328	0	259	0	0	
12	0	0	0	0	322	275	0	312	0	0	
13	0	0	0	0	329	223	0	369	0	0	
14	0	0	0	0	341	179	0	426	0	0	
15	0	0	0	0	360	150	0	479	0	0	
0	0	0	0	0	385	137	0	522	0	0	
1	0	0	0	0	415	146	0	555	0	0	
2	0	0	0	0	449	176	0	574	0	0	
3	0	0	0	0	483	226	0	579	0	0	
4	0	0	0	0	517	291	0	572	0	0	
5	0	0	0	0	549	368	0	555	0	0	
6	0	0	0	0	576	449	0	529	0	0	
7	0	0	0	0	596	529	0	499	0	0	
8	0	0	0	0	608	600	0	468	0	0	
9	0	0	0	0	612	655	0	441	0	0	
10	0	0	0	0	609	690	0	421	0	0	
11	0	0	0	0	598	701	0	409	0	0	
12	0	0	0	0	580	688	0	408	0	0	
13	0	0	0	0	558	652	0	417	0	0	
14	0	0	0	0	534	596	0	435	0	0	
15	0	0	0	0	509	527	0	460	0	0	
0	0	0	0	0	487	452	0	491	0	0	
1	0	0	0	0	468	377	0	523	0	0	
2	0	0	0	0	455	310	0	553	0	0	
3	0	0	0	0	450	256	0	579	0	0	
4	0	0	0	0	451	222	0	598	0	0	
5	0	0	0	0	460	209	0	608	0	0	
6	0	0	0	0	474	220	0	608	0	0	
7	0	0	0	0	493	252	0	596	0	0	
8	0	0	0	0	513	303	0	577	0	0	
9	0	0	0	0	535	368	0	551	0	0	
10	0	0	0	0	555	441	0	519	0	0	
11	0	0	0	0	572	514	0	487	0	0	
12	0	0	0	0	583	582	0	457	0	0	
13	0	0	0	0	588	636	0	432	0	0	
14	0	0	0	0	588	671	0	415	0	0	
15	0	0	0	0	582	684	0	407	0	0	
0	0	0	0	0	571	675	0	410	0	0	
1	0	0	0	0	556	644	0	423	0	0	
2	0	0	0	0	539	595	0	444	0	0	
3	0	0	0	0	521	534	0	473	0	0	
4	0	0	0	0	505	465	0	507	0	0	
5	0	0	0	0	491	396	0	542	0	0	
6	0	0	0	0	483	333	0	574	0	0	
7	0	0	0	0	479	283	0	601	0	0	
8	0	0	0	0	482	252	0	621	0	0	
9	0	0	0	0	490	240	0	631	0	0	
10	0	0	0	0	503	252	0	630	0	0	
11	0	0	0	0	519	284	0	619	0	0	
12	0	0	0	0	536	334	0	598	0	0	
13	0	0	0	0	555	397	0	570	0	0	
14	0	0	0	0	572	467	0	537	0	0	
15	0	0	0	0	585	537	0	502	0	0	
0	0	0	0	0	593	600	0	470	0	0	
1	0	0	0	0	597	651	0	442	0	0	
2	0	0	0	0	594	681	0	422	0	0	
3	0	0	0	0	587	692	0	412	0	0	
4	0	0	0	0	574	680	0	413	0	0	
5	0	0	0	0	558	646	0	425	0	0	
6	0	0	0	0	540	595	0	445	0	0	
7	0	0	0	0	522	531	0	472	0	0	
8	0	0	0	0	505	461	0	504	0	0	
9	0	0	0	0	491	391	0	538	0	0	
10	0	0	0	0	481	327	0	569	0	0	
11	0	0	0	0	477	276	0	594	0	0	
12	0	0	0	0	480	244	0	612	0	0	
13	0	0	0	0	487	232	0	620	0	0	
14	0	0	0	0	498	243	0	618	0	0	
15	0	0	0	0	513	274	0	605	0	0	
0	0	0	0	0	530	323	0	584	0	0	
1	0	0	0	0	546	385	0	554	0	0	
2	0	0	0	0	562	453	0	522	0	0	
3	0	0	0	0	574	523	0	488	0	0	
4	0	0	0	0	582	586	0	456	0	0	
5	0	0	0	0	584	636	0	430	0	0	
6	0	0	0	0	581	667	0	412	0	0	
7	0	0	0	0	573	677	0	403	0	0	
8	0	0	0	0	560	665	0	406	0	0	
9	0	0	0	0	545	632	0	419	0	0	
10	0	0	0	0	527	582	0	442	0	0	
11	0	0	0	0	511	520	0	471	0	0	
12	0	0	0	0	496	451	0	504	0	0	
13	0	0	0	0	483	383	0	539	0	0	
14	0	0	0	0	476	321	0	571	0	0	
15	0	0	0	0	474	272	0	598	0	0	
0	0	0	0	0	478	241	0	616	0	0	
1	0	0	0	0	487	231	0	624	0	0	
2	0	0	0	0	499	241	0	622	0	0	
3	0	0	0	0	515	273	0	609	0	0	
4	0	0	0	0	533	321	0	588	0	0	
5	0	0	0	0	550	383	0	559	0	0	
6	0	0	0	0	566	451	0	527	0	0	
7	0	0	0	0	577	520	0	492	0	0	
8	0	0	0	0	585	582	0	461	0	0	
9	0	0	0	0	587	632	0	435	0	0	
10	0	0	0	0	583	663	0	417	0	0	
11	0	0	0	0	575	672	0	409	0	0	
12	0	0	0	0	561	660	0	413	0	0	
13	0	0	0	0	545	627	0	426	0	0	
14	0	0	0	0	527	577	0	448	0	0	
15	0	0	0	0	510	515	0	478	0	0	
0	0	0	0	0	494	446	0	511	0	0	
1	0	0	0	0	481	377	0	546	0	0	
2	0	0	0	0	472	315	0	578	0	0	
3	0	0	0	0	470	267	0	604	0	0	
4	0	0	0	0	472	236	0	622	0	0	
5	0	0	0	0	480	225	0	630	0	0	
6	0	0	0	0	493	237	0	628	0	0	
7	0	0	0	0	508	268	0	615	0	0	
8	0	0	0	0	525	317	0	593	0	0	
9	0	0	0	0	542	379	0	564	0	0	
10	0	0	0	0	559	447	0	532	0	0	
11	0	0	0	0	571	515	0	499	0	0	
12	0	0	0	0	579	577	0	467	0	0	
13	0	0	0	0	582	627	0	441	0	0	
14	0	0	0	0	579	658	0	424	0	0	
15	0	0	0	0	572	668	0	418	0	0	
0	0	0	0	0	559	656	0	422	0	0	
1	0	0	0	0	544	624	0	435	0	0	
2	0	0	0	0	526	575	0	458	0	0	
3	0	0	0	0	509	513	0	487	0	0	
4	0	0	0	0	494	444	0	520	0	0	
5	0	0	0	0	480	377	0	554	0	0	
6	0	0	0	0	472	316	0	585	0	0	
7	0	0	0	0	468	267	0	610	0	0	
8	0	0	0	0	470	236	0	627	0	0	
9	0	0	0	0	478	226	0	635	0	0	
10	0	0	0	0	489	237	0	632	0	0	
11	0	0	0	0	504	268	0	619	0	0	
12	0	0	0	0	520	316	0	597	0	0	
13	0	0	0	0	537	377	0	569	0	0	
14	0	0	0	0	553	445	0	537	0	0	
15	0	0	0	0	565	512	0	504	0	0	
0	0	0	0	0	573	574	0	473	0	0	
1	0	0	0	0	576	623	0	448	0	0	
2	0	0	0	0	574	654	0	432	0	0	
3	0	0	0	0	567	664	0	426	0	0	
4	0	0	0	0	556	653	0	430	0	0	
5	0	0	0	0	541	622	0	444	0	0	
6	0	0	0	0	526	574	0	467	0	0	
7	0	0	0	0	509	513	0	496	0	0	
8	0	0	0	0	495	446	0	529	0	0	
9	0	0	0	0	482	380	0	563	0	0	
10	0	0	0	0	474	319	0	593	0	0	
11	0	0	0	0	471	272	0	618	0	0	
12	0	0	0	0	473	241	0	636	0	0	
13	0	0	0	0	480	231	0	643	0	0	
14	0	0	0	0	492	241	0	640	0	0	
15	0	0	0	0	506	272	0	626	0	0	
0	0	0	0	0	522	318	0	604	0	0	
1	0	0	0	0	539	377	0	576	0	0	
2	0	0	0	0	554	443	0	543	0	0	
3	0	0	0	0	566	508	0	509	0	0	
4	0	0	0	0	574	568	0	478	0	0	
5	0	0	0	0	576	615	0	452	0	0	
6	0	0	0	0	574	644	0	435	0	0	
7	0	0	0	0	567	653	0	427	0	0	
8	0	0	0	0	556	641	0	431	0	0	
9	0	0	0	0	541	610	0	444	0	0	
10	0	0	0	0	525	563	0	466	0	0	
11	0	0	0	0	510	504	0	495	0	0	
12	0	0	0	0	495	440	0	528	0	0	
13	0	0	0	0	484	376	0	562	0	0	
14	0	0	0	0	477	318	0	592	0	0	
15	0	0	0	0	474	273	0	617	0	0	
0	0	0	0	0	477	245	0	635	0	0	
1	0	0	0	0	484	236	0	642	0	0	
2	0	0	0	0	496	248	0	638	0	0	
3	0	0	0	0	509	279	0	626	0	0	
4	0	0	0	0	525	324	0	604	0	0	
5	0	0	0	0	540	382	0	575	0	0	
6	0	0	0	0	554	446	0	543	0	0	
7	0	0	0	0	563	509	0	510	0	0	
8	0	0	0	0	569	566	0	479	0	0	
9	0	0	0	0	570	609	0	453	0	0	
10	0	0	0	0	566	636	0	436	0	0	
11	0	0	0	0	557	643	0	428	0	0	
12	0	0	0	0	544	628	0	431	0	0	
13	0	0	0	0	529	596	0	444	0	0	
14	0	0	0	0	512	548	0	465	0	0	
15	0	0	0	0	496	491	0	492	0	0	
0	0	0	0	0	483	428	0	525	0	0	
1	0	0	0	0	473	366	0	558	0	0	
2	0	0	0	0	468	312	0	588	0	0	
3	0	0	0	0	468	271	0	614	0	0	
4	0	0	0	0	473	247	0	631	0	0	
5	0	0	0	0	483	242	0	639	0	0	
6	0	0	0	0	496	258	0	636	0	0	
7	0	0	0	0	512	290	0	624	0	0	
8	0	0	0	0	529	339	0	603	0	0	
9	0	0	0	0	545	397	0	575	0	0	
10	0	0	0	0	560	460	0	543	0	0	
11	0	0	0	0	569	522	0	510	0	0	
12	0	0	0	0	574	576	0	479	0	0	
13	0	0	0	0	573	618	0	452	0	0	
14	0	0	0	0	568	642	0	434	0	0	
15	0	0	0	0	556	647	0	424	0	0	
0	0	0	0	0	542	631	0	425	0	0	
1	0	0	0	0	525	598	0	435	0	0	
2	0	0	0	0	507	550	0	454	0	0	
3	0	0	0	0	491	492	0	479	0	0	
4	0	0	0	0	476	430	0	508	0	0	
5	0	0	0	0	465	370	0	540	0	0	
6	0	0	0	0	460	317	0	569	0	0	
7	0	0	0	0	460	277	0	593	0	0	
8	0	0	0	0	466	255	0	611	0	0	
9	0	0	0	0	477	251	0	619	0	0	
10	0	0	0	0	493	268	0	619	0	0	
11	0	0	0	0	511	302	0	609	0	0	
12	0	0	0	0	531	352	0	592	0	0	
13	0	0	0	0	551	412	0	569	0	0	
14	0	0	0	0	568	476	0	542	0	0	
15	0	0	0	0	582	540	0	513	0	0	
0	0	0	0	0	591	595	0	487	0	0	
1	0	0	0	0	593	638	0	465	0	0	
2	0	0	0	0	591	663	0	451	0	0	
3	0	0	0	0	582	669	0	445	0	0	
4	0	0	0	0	568	654	0	448	0	0	
5	0	0	0	0	551	621	0	459	0	0	
6	0	0	0	0	533	573	0	478	0	0	
7	0	0	0	0	515	514	0	503	0	0	
8	0	0	0	0	498	451	0	531	0	0	
9	0	0	0	0	484	390	0	559	0	0	
10	0	0	0	0	475	335	0	585	0	0	
11	0	0	0	0	472	293	0	606	0	0	
12	0	0	0	0	475	268	0	620	0	0	
13	0	0	0	0	483	262	0	625	0	0	
14	0	0	0	0	496	275	0	622	0	0	
15	0	0	0	0	511	307	0	608	0	0	
0	0	0	0	0	528	353	0	588	0	0	
1	0	0	0	0	546	410	0	562	0	0	
2	0	0	0	0	562	472	0	531	0	0	
3	0	0	0	0	574	532	0	501	0	0	
4	0	0	0	0	580	585	0	472	0	0	
5	0	0	0	0	581	626	0	448	0	0	
6	0	0	0	0	576	649	0	432	0	0	
7	0	0	0	0	568	655	0	426	0	0	
8	0	0	0	0	554	639	0	429	0	0	
9	0	0	0	0	539	608	0	442	0	0	
10	0	0	0	0	522	562	0	463	0	0	
11	0	0	0	0	506	506	0	490	0	0	
12	0	0	0	0	493	447	0	520	0	0	
13	0	0	0	0	483	388	0	552	0	0	
14	0	0	0	0	478	338	0	582	0	0	
15	0	0	0	0	478	300	0	606	0	0	
0	0	0	0	0	483	278	0	623	0	0	
1	0	0	0	0	493	274	0	630	0	0	
2	0	0	0	0	507	289	0	627	0	0	
3	0	0	0	0	523	322	0	616	0	0	
4	0	0	0	0	540	369	0	596	0	0	
5	0	0	0	0	556	425	0	570	0	0	
6	0	0	0	0	571	487	0	540	0	0	
7	0	0	0	0	581	546	0	509	0	0	
8	0	0	0	0	587	599	0	481	0	0	
9	0	0	0	0	588	639	0	457	0	0	
10	0	0	0	0	583	662	0	440	0	0	
11	0	0	0	0	575	665	0	433	0	0	
12	0	0	0	0	561	649	0	436	0	0	
13	0	0	0	0	546	616	0	448	0	0	
14	0	0	0	0	530	570	0	468	0	0	
15	0	0	0	0	514	514	0	494	0	0	
0	0	0	0	0	502	454	0	525	0	0	
1	0	0	0	0	492	396	0	556	0	0	
2	0	0	0	0	486	344	0	584	0	0	
3	0	0	0	0	487	306	0	608	0	0	
4	0	0	0	0	492	283	0	624	0	0	
5	0	0	0	0	503	279	0	632	0	0	
6	0	0	0	0	516	294	0	630	0	0	
7	0	0	0	0	532	326	0	618	0	0	
8	0	0	0	0	548	372	0	598	0	0	
9	0	0	0	0	564	428	0	572	0	0	
10	0	0	0	0	578	488	0	542	0	0	
11	0	0	0	0	588	547	0	512	0	0	
12	0	0	0	0	592	598	0	482	0	0	
13	0	0	0	0	592	638	0	458	0	0	
14	0	0	0	0	586	660	0	441	0	0	
15	0	0	0	0	575	664	0	433	0	0	
0	0	0	0	0	561	648	0	435	0	0	
1	0	0	0	0	544	616	0	446	0	0	
2	0	0	0	0	527	569	0	465	0	0	
3	0	0	0	0	510	513	0	490	0	0	
4	0	0	0	0	495	452	0	519	0	0	
5	0	0	0	0	484	393	0	548	0	0	
6	0	0	0	0	478	342	0	575	0	0	
7	0	0	0	0	477	302	0	597	0	0	
8	0	0	0	0	482	279	0	612	0	0	
9	0	0	0	0	492	274	0	619	0	0	
10	0	0	0	0	507	288	0	616	0	0	
11	0	0	0	0	523	319	0	603	0	0	
12	0	0	0	0	540	365	0	583	0	0	
13	0	0	0	0	557	421	0	556	0	0	
14	0	0	0	0	572	481	0	527	0	0	
15	0	0	0	0	583	540	0	497	0	0	
0	0	0	0	0	589	593	0	468	0	0	
1	0	0	0	0	590	632	0	445	0	0	
2	0	0	0	0	585	657	0	428	0	0	
3	0	0	0	0	576	662	0	422	0	0	
4	0	0	0	0	563	648	0	425	0	0	
5	0	0	0	0	548	616	0	438	0	0	
6	0	0	0	0	532	571	0	458	0	0	
7	0	0	0	0	515	516	0	484	0	0	
8	0	0	0	0	501	455	0	514	0	0	
9	0	0	0	0	491	397	0	545	0	0	
10	0	0	0	0	484	345	0	574	0	0	
11	0	0	0	0	483	305	0	598	0	0	
12	0	0	0	0	487	281	0	614	0	0	
13	0	0	0	0	498	276	0	622	0	0	
14	0	0	0	0	511	291	0	621	0	0	
15	0	0	0	0	527	322	0	609	0	0	
0	0	0	0	0	545	369	0	590	0	0	
1	0	0	0	0	562	425	0	565	0	0	
2	0	0	0	0	578	486	0	536	0	0	
3	0	0	0	0	589	547	0	506	0	0	
4	0	0	0	0	596	601	0	478	0	0	
5	0	0	0	0	597	642	0	455	0	0	
6	0	0	0	0	593	667	0	439	0	0	
7	0	0	0	0	584	672	0	432	0	0	
8	0	0	0	0	571	658	0	435	0	0	
9	0	0	0	0	556	627	0	447	0	0	
10	0	0	0	0	538	581	0	466	0	0	
11	0	0	0	0	521	524	0	492	0	0	
12	0	0	0	0	507	464	0	520	0	0	
13	0	0	0	0	495	404	0	550	0	0	
14	0	0	0	0	488	352	0	577	0	0	
15	0	0	0	0	486	311	0	599	0	0	
0	0	0	0	0	489	286	0	614	0	0	
1	0	0	0	0	499	281	0	620	0	0	
2	0	0	0	0	511	294	0	617	0	0	
3	0	0	0	0	526	324	0	605	0	0	
4	0	0	0	0	543	369	0	585	0	0	
5	0	0	0	0	558	424	0	558	0	0	
6	0	0	0	0	572	483	0	528	0	0	
7	0	0	0	0	582	542	0	498	0	0	
8	0	0	0	0	588	595	0	470	0	0	
9	0	0	0	0	588	635	0	447	0	0	
10	0	0	0	0	582	658	0	431	0	0	
11	0	0	0	0	572	662	0	424	0	0	
12	0	0	0	0	558	647	0	427	0	0	
13	0	0	0	0	542	615	0	440	0	0	
14	0	0	0	0	525	568	0	460	0	0	
15	0	0	0	0	509	513	0	486	0	0	
0	0	0	0	0	495	452	0	516	0	0	
1	0	0	0	0	485	393	0	546	0	0	
2	0	0	0	0	479	342	0	574	0	0	
3	0	0	0	0	479	301	0	596	0	0	
4	0	0	0	0	484	278	0	611	0	0	
5	0	0	0	0	495	273	0	616	0	0	
6	0	0	0	0	508	287	0	612	0	0	
7	0	0	0	0	524	318	0	599	0	0	
8	0	0	0	0	542	364	0	577	0	0	
9	0	0	0	0	559	419	0	551	0	0	
10	0	0	0	0	574	480	0	520	0	0	
11	0	0	0	0	584	539	0	490	0	0	
12	0	0	0	0	590	592	0	461	0	0	
13	0	0	0	0	590	632	0	438	0	0	
14	0	0	0	0	584	657	0	422	0	0	
15	0	0	0	0	574	661	0	415	0	0	
0	0	0	0	0	560	647	0	418	0	0	
1	0	0	0	0	543	615	0	430	0	0	
2	0	0	0	0	525	568	0	450	0	0	
3	0	0	0	0	507	512	0	476	0	0	
4	0	0	0	0	493	450	0	505	0	0	
5	0	0	0	0	481	391	0	536	0	0	
6	0	0	0	0	475	337	0	564	0	0	
7	0	0	0	0	473	296	0	588	0	0	
8	0	0	0	0	478	272	0	603	0	0	
9	0	0	0	0	488	266	0	611	0	0	
10	0	0	0	0	503	280	0	609	0	0	
11	0	0	0	0	520	312	0	599	0	0	
12	0	0	0	0	539	358	0	579	0	0	
13	0	0	0	0	557	415	0	555	0	0	
14	0	0	0	0	574	477	0	526	0	0	
15	0	0	0	0	586	538	0	497	0	0	
0	0	0	0	0	593	593	0	469	0	0	
1	0	0	0	0	595	635	0	447	0	0	
2	0	0	0	0	591	660	0	431	0	0	
3	0	0	0	0	581	667	0	423	0	0	
4	0	0	0	0	568	654	0	426	0	0	
5	0	0	0	0	551	622	0	438	0	0	
6	0	0	0	0	532	576	0	456	0	0	
7	0	0	0	0	514	519	0	481	0	0	
8	0	0	0	0	499	457	0	511	0	0	
9	0	0	0	0	486	396	0	540	0	0	
10	0	0	0	0	476	341	0	567	0	0	
11	0	0	0	0	473	298	0	589	0	0	
12	0	0	0	0	476	272	0	604	0	0	
13	0	0	0	0	484	263	0	611	0	0	
14	0	0	0	0	495	275	0	607	0	0	
15	0	0	0	0	510	305	0	595	0	0	
0	0	0	0	0	527	350	0	576	0	0	
1	0	0	0	0	543	408	0	550	0	0	
2	0	0	0	0	560	470	0	522	0	0	
3	0	0	0	0	574	533	0	493	0	0	
4	0	0	0	0	583	591	0	466	0	0	
5	0	0	0	0	588	636	0	444	0	0	
6	0	0	0	0	588	664	0	431	0	0	
7	0	0	0	0	583	674	0	425	0	0	
8	0	0	0	0	574	664	0	430	0	0	
9	0	0	0	0	561	635	0	444	0	0	
10	0	0	0	0	547	591	0	465	0	0	
11	0	0	0	0	531	535	0	491	0	0	
12	0	0	0	0	518	473	0	521	0	0	
13	0	0	0	0	507	412	0	551	0	0	
14	0	0	0	0	499	357	0	578	0	0	
15	0	0	0	0	496	313	0	600	0	0	
0	0	0	0	0	498	286	0	614	0	0	
1	0	0	0	0	504	278	0	619	0	0	
2	0	0	0	0	515	289	0	614	0	0	
3	0	0	0	0	528	319	0	600	0	0	
4	0	0	0	0	543	364	0	579	0	0	
5	0	0	0	0	559	421	0	551	0	0	
6	0	0	0	0	574	483	0	521	0	0	
7	0	0	0	0	584	545	0	490	0	0	
8	0	0	0	0	591	601	0	463	0	0	
9	0	0	0	0	592	644	0	441	0	0	
10	0	0	0	0	588	671	0	428	0	0	
11	0	0	0	0	580	678	0	425	0	0	
12	0	0	0	0	568	664	0	431	0	0	
13	0	0	0	0	552	632	0	446	0	0	
14	0	0	0	0	535	584	0	467	0	0	
15	0	0	0	0	519	525	0	496	0	0	
0	0	0	0	0	504	462	0	526	0	0	
1	0	0	0	0	492	399	0	556	0	0	
2	0	0	0	0	485	343	0	583	0	0	
3	0	0	0	0	483	299	0	604	0	0	
4	0	0	0	0	487	273	0	618	0	0	
5	0	0	0	0	497	267	0	622	0	0	
6	0	0	0	0	510	281	0	616	0	0	
7	0	0	0	0	527	314	0	602	0	0	
8	0	0	0	0	546	363	0	580	0	0	
9	0	0	0	0	564	423	0	551	0	0	
10	0	0	0	0	581	489	0	520	0	0	
11	0	0	0	0	594	555	0	488	0	0	
12	0	0	0	0	603	614	0	462	0	0	
13	0	0	0	0	606	660	0	444	0	0	
14	0	0	0	0	603	687	0	438	0	0	
15	0	0	0	0	595	693	0	440	0	0	
0	0	0	0	0	582	678	0	452	0	0	
1	0	0	0	0	566	643	0	472	0	0	
2	0	0	0	0	547	592	0	497	0	0	
3	0	0	0	0	527	530	0	526	0	0	
4	0	0	0	0	510	463	0	555	0	0	
5	0	0	0	0	494	396	0	583	0	0	
6	0	0	0	0	483	335	0	607	0	0	
7	0	0	0	0	478	285	0	625	0	0	
8	0	0	0	0	479	252	0	637	0	0	
9	0	0	0	0	486	239	0	639	0	0	
10	0	0	0	0	498	249	0	632	0	0	
11	0	0	0	0	514	280	0	615	0	0	
12	0	0	0	0	534	328	0	591	0	0	
13	0	0	0	0	553	391	0	560	0	0	
14	0	0	0	0	572	461	0	527	0	0	
15	0	0	0	0	588	533	0	494	0	0	
0	0	0	0	0	600	598	0	469	0	0	
1	0	0	0	0	606	647	0	458	0	0	
2	0	0	0	0	607	679	0	462	0	0	
3	0	0	0	0	602	688	0	478	0	0	
4	0	0	0	0	592	675	0	504	0	0	
5	0	0	0	0	578	641	0	536	0	0	
6	0	0	0	0	561	591	0	571	0	0	
7	0	0	0	0	544	530	0	606	0	0	
8	0	0	0	0	527	464	0	638	0	0	
9	0	0	0	0	513	399	0	664	0	0	
10	0	0	0	0	504	339	0	684	0	0	
11	0	0	0	0	499	287	0	698	0	0	
12	0	0	0	0	500	250	0	705	0	0	
13	0	0	0	0	507	232	0	703	0	0	
14	0	0	0	0	518	236	0	689	0	0	
15	0	0	0	0	533	261	0	666	0	0	
0	0	0	0	0	550	306	0	634	0	0	
1	0	0	0	0	568	367	0	596	0	0	
2	0	0	0	0	585	438	0	554	0	0	
3	0	0	0	0	599	512	0	512	0	0	
4	0	0	0	0	608	579	0	481	0	0	
5	0	0	0	0	612	630	0	470	0	0	
6	0	0	0	0	610	660	0	480	0	0	
7	0	0	0	0	603	667	0	507	0	0	
8	0	0	0	0	590	651	0	546	0	0	
9	0	0	0	0	574	615	0	590	0	0	
10	0	0	0	0	555	563	0	637	0	0	
11	0	0	0	0	535	501	0	680	0	0	
12	0	0	0	0	517	434	0	717	0	0	
13	0	0	0	0	502	369	0	745	0	0	
14	0	0	0	0	491	310	0	762	0	0	
15	0	0	0	0	486	256	0	772	0	0	
0	0	0	0	0	487	215	0	776	0	0	
1	0	0	0	0	495	192	0	768	0	0	
2	0	0	0	0	507	192	0	748	0	0	
3	0	0	0	0	523	214	0	717	0	0	
4	0	0	0	0	541	258	0	676	0	0	
5	0	0	0	0	560	319	0	629	0	0	
6	0	0	0	0	579	393	0	577	0	0	
7	0	0	0	0	594	473	0	525	0	0	
8	0	0	0	0	605	547	0	485	0	0	
9	0	0	0	0	610	604	0	469	0	0	
10	0	0	0	0	609	640	0	477	0	0	
11	0	0	0	0	602	653	0	505	0	0	
12	0	0	0	0	590	642	0	548	0	0	
13	0	0	0	0	574	609	0	599	0	0	
14	0	0	0	0	555	560	0	652	0	0	
15	0	0	0	0	535	499	0	702	0	0	
0	0	0	0	0	517	433	0	744	0	0	
1	0	0	0	0	502	368	0	775	0	0	
2	0	0	0	0	491	308	0	796	0	0	
3	0	0	0	0	485	249	0	812	0	0	
4	0	0	0	0	486	196	0	824	0	0	
5	0	0	0	0	493	159	0	824	0	0	
6	0	0	0	0	504	142	0	814	0	0	
7	0	0	0	0	520	149	0	788	0	0	
8	0	0	0	0	539	181	0	751	0	0	
9	0	0	0	0	558	235	0	704	0	0	
10	0	0	0	0	576	307	0	649	0	0	
11	0	0	0	0	591	389	0	591	0	0	
12	0	0	0	0	602	471	0	542	0	0	
13	0	0	0	0	608	536	0	522	0	0	
14	0	0	0	0	608	580	0	529	0	0	
15	0	0	0	0	602	599	0	561	0	0	
0	0	0	0	0	591	595	0	611	0	0	
1	0	0	0	0	575	568	0	670	0	0	
2	0	0	0	0	556	524	0	730	0	0	
3	0	0	0	0	537	469	0	786	0	0	
4	0	0	0	0	519	408	0	831	0	0	
5	0	0	0	0	503	348	0	862	0	0	
6	0	0	0	0	491	292	0	879	0	0	
7	0	0	0	0	484	234	0	891	0	0	
8	0	0	0	0	484	181	0	895	0	0	
9	0	0	0	0	490	141	0	888	0	0	
10	0	0	0	0	501	121	0	869	0	0	
11	0	0	0	0	515	124	0	834	0	0	
12	0	0	0	0	533	151	0	787	0	0	
13	0	0	0	0	551	202	0	729	0	0	
14	0	0	0	0	568	271	0	664	0	0	
15	0	0	0	0	583	354	0	596	0	0	
0	0	0	0	0	593	436	0	539	0	0	
1	0	0	0	0	598	504	0	511	0	0	
2	0	0	0	0	596	551	0	513	0	0	
3	0	0	0	0	590	575	0	543	0	0	
4	0	0	0	0	578	574	0	592	0	0	
5	0	0	0	0	561	551	0	652	0	0	
6	0	0	0	0	542	512	0	714	0	0	
7	0	0	0	0	522	460	0	771	0	0	
8	0	0	0	0	504	401	0	820	0	0	
9	0	0	0	0	487	344	0	853	0	0	
10	0	0	0	0	476	290	0	873	0	0	
11	0	0	0	0	471	230	0	889	0	0	
12	0	0	0	0	472	170	0	901	0	0	
13	0	0	0	0	480	118	0	905	0	0	
14	0	0	0	0	493	85	0	897	0	0	
15	0	0	0	0	511	74	0	874	0	0	
0	0	0	0	0	530	89	0	835	0	0	
1	0	0	0	0	552	131	0	784	0	0	
2	0	0	0	0	573	195	0	721	0	0	
3	0	0	0	0	590	276	0	653	0	0	
4	0	0	0	0	603	362	0	592	0	0	
5	0	0	0	0	610	435	0	561	0	0	
6	0	0	0	0	611	488	0	562	0	0	
7	0	0	0	0	605	518	0	593	0	0	
8	0	0	0	0	594	524	0	645	0	0	
9	0	0	0	0	579	508	0	707	0	0	
10	0	0	0	0	560	475	0	772	0	0	
11	0	0	0	0	540	430	0	833	0	0	
12	0	0	0	0	522	379	0	882	0	0	
13	0	0	0	0	505	329	0	915	0	0	
14	0	0	0	0	493	281	0	931	0	0	
15	0	0	0	0	487	225	0	946	0	0	
0	0	0	0	0	487	165	0	957	0	0	
1	0	0	0	0	493	111	0	959	0	0	
2	0	0	0	0	504	71	0	950	0	0	
3	0	0	0	0	520	54	0	926	0	0	
4	0	0	0	0	539	62	0	886	0	0	
5	0	0	0	0	559	98	0	831	0	0	
6	0	0	0	0	579	158	0	764	0	0	
7	0	0	0	0	595	238	0	690	0	0	
8	0	0	0	0	607	323	0	623	0	0	
9	0	0	0	0	614	397	0	587	0	0	
10	0	0	0	0	615	451	0	585	0	0	
11	0	0	0	0	609	483	0	614	0	0	
12	0	0	0	0	598	492	0	667	0	0	
13	0	0	0	0	583	480	0	732	0	0	
14	0	0	0	0	565	450	0	800	0	0	
15	0	0	0	0	546	408	0	864	0	0	
0	0	0	0	0	527	362	0	914	0	0	
1	0	0	0	0	511	316	0	947	0	0	
2	0	0	0	0	499	271	0	964	0	0	
3	0	0	0	0	492	217	0	978	0	0	
4	0	0	0	0	492	154	0	991	0	0	
5	0	0	0	0	498	93	0	995	0	0	
6	0	0	0	0	508	46	0	990	0	0	
7	0	0	0	0	524	19	0	967	0	0	
8	0	0	0	0	541	19	0	930	0	0	
9	0	0	0	0	561	46	0	876	0	0	
10	0	0	0	0	579	101	0	807	0	0	
11	0	0	0	0	594	178	0	729	0	0	
12	0	0	0	0	606	265	0	657	0	0	
13	0	0	0	0	612	342	0	616	0	0	
14	0	0	0	0	613	401	0	610	0	0	
15	0	0	0	0	608	439	0	637	0	0	
0	0	0	0	0	599	454	0	689	0	0	
1	0	0	0	0	584	448	0	753	0	0	
2	0	0	0	0	567	425	0	821	0	0	
3	0	0	0	0	548	391	0	884	0	0	
4	0	0	0	0	531	350	0	932	0	0	
5	0	0	0	0	515	310	0	963	0	0	
6	0	0	0	0	503	271	0	977	0	0	
7	0	0	0	0	496	218	0	991	0	0	
8	0	0	0	0	495	149	0	1008	0	0	
9	0	0	0	0	500	78	0	1020	0	0	
10	0	0	0	0	510	15	0	1021	0	0	
11	0	0	0	0	524	0	0	1016	0	0	
12	0	0	0	0	540	0	0	990	0	0	
13	0	0	0	0	558	0	0	946	0	0	
14	0	0	0	0	575	31	0	884	0	0	
15	0	0	0	0	590	93	0	808	0	0	
0	0	0	0	0	600	168	0	734	0	0	
1	0	0	0	0	605	239	0	688	0	0	
2	0	0	0	0	606	295	0	678	0	0	
3	0	0	0	0	602	334	0	700	0	0	
4	0	0	0	0	592	354	0	748	0	0	
5	0	0	0	0	579	356	0	807	0	0	
6	0	0	0	0	563	345	0	871	0	0	
7	0	0	0	0	546	324	0	929	0	0	
8	0	0	0	0	530	298	0	972	0	0	
9	0	0	0	0	516	274	0	997	0	0	
10	0	0	0	0	506	250	0	1004	0	0	
11	0	0	0	0	502	210	0	1011	0	0	
12	0	0	0	0	501	151	0	1021	0	0	
13	0	0	0	0	506	84	0	1020	0	0	
14	0	0	0	0	515	24	0	1021	0	0	
15	0	0	0	0	526	0	0	1014	0	0	
0	0	0	0	0	539	0	0	986	0	0	
1	0	0	0	0	553	0	0	940	0	0	
2	0	0	0	0	565	23	0	874	0	0	
3	0	0	0	0	573	78	0	793	0	0	
4	0	0	0	0	575	146	0	712	0	0	
5	0	0	0	0	572	206	0	661	0	0	
6	0	0	0	0	563	251	0	645	0	0	
7	0	0	0	0	547	277	0	664	0	0	
8	0	0	0	0	527	284	0	707	0	0	
9	0	0	0	0	503	273	0	763	0	0	
10	0	0	0	0	475	249	0	820	0	0	
11	0	0	0	0	447	217	0	870	0	0	
12	0	0	0	0	420	182	0	904	0	0	
13	0	0	0	0	396	148	0	915	0	0	
14	0	0	0	0	375	115	0	907	0	0	
15	0	0	0	0	359	63	0	904	0	0	
0	0	0	0	0	348	0	0	912	0	0	
1	0	0	0	0	344	0	0	923	0	0	
2	0	0	0	0	344	0	0	932	0	0	
3	0	0	0	0	349	0	0	929	0	0	
4	0	0	0	0	357	0	0	909	0	0	
5	0	0	0	0	367	0	0	866	0	0	
6	0	0	0	0	378	0	0	801	0	0	
7	0	0	0	0	387	0	0	717	0	0	
8	0	0	0	0	394	0	0	632	0	0	
9	0	0	0	0	398	0	0	578	0	0	
10	0	0	0	0	398	0	0	564	0	0	
11	0	0	0	0	396	0	0	590	0	0	
12	0	0	0	0	392	0	0	645	0	0	
13	0	0	0	0	387	0	0	716	0	0	
14	0	0	0	0	382	0	0	791	0	0	
15	0	0	0	0	379	0	0	860	0	0	
0	0	0	0	0	378	0	0	913	0	0	
1	0	0	0	0	382	0	0	944	0	0	
2	0	0	0	0	392	0	0	958	0	0	
3	0	0	0	0	408	0	0	977	0	0	
4	0	0	0	0	429	0	0	1007	0	0	
5	0	0	0	0	456	0	0	1020	0	0	
6	0	0	0	0	487	0	0	1021	0	0	
7	0	0	0	0	519	0	0	1021	0	0	
8	0	0	0	0	553	0	0	1021	0	0	
9	0	0	0	0	585	0	0	1021	0	0	
10	0	0	0	0	613	0	0	995	0	0	
11	0	0	0	0	635	24	0	943	0	0	
12	0	0	0	0	650	76	0	883	0	0	
13	0	0	0	0	657	123	0	850	0	0	
14	0	0	0	0	656	158	0	851	0	0	
15	0	0	0	0	647	177	0	880	0	0	
0	0	0	0	0	631	183	0	933	0	0	
1	0	0	0	0	609	178	0	992	0	0	
2	0	0	0	0	583	167	0	1021	0	0	
3	0	0	0	0	557	155	0	1021	0	0	
4	0	0	0	0	532	145	0	1021	0	0	
5	0	0	0	0	511	145	0	1021	0	0	
6	0	0	0	0	495	147	0	1021	0	0	
7	0	0	0	0	487	118	0	1021	0	0	
8	0	0	0	0	486	46	0	1021	0	0	
9	0	0	0	0	492	0	0	1021	0	0	
10	0	0	0	0	505	0	0	1021	0	0	
11	0	0	0	0	523	0	0	1021	0	0	
12	0	0	0	0	544	0	0	1021	0	0	
13	0	0	0	0	566	0	0	1021	0	0	
14	0	0	0	0	588	0	0	1020	0	0	
15	0	0	0	0	607	0	0	1021	0	0	
0	0	0	0	0	621	0	0	1021	0	0	
1	0	0	0	0	628	0	0	1021	0	0	
2	0	0	0	0	630	0	0	1021	0	0	
3	0	0	0	0	626	0	0	1021	0	0	
4	0	0	0	0	614	0	0	1021	0	0	
5	0	0	0	0	600	0	0	1021	0	0	
6	0	0	0	0	581	0	0	1021	0	0	
7	0	0	0	0	560	0	0	1021	0	0	
8	0	0	0	0	541	0	0	1021	0	0	
9	0	0	0	0	524	0	0	1021	0	0	
10	0	0	0	0	511	0	0	1021	0	0	
11	0	0	0	0	504	0	0	1021	0	0	
12	0	0	0	0	503	0	0	1021	0	0	
13	0	0	0	0	510	0	0	1021	0	0	
14	0	0	0	0	521	0	0	1021	0	0	
15	0	0	0	0	537	0	0	1021	0	0	
0	0	0	0	0	557	0	0	1021	0	0	
1	0	0	0	0	577	0	0	1021	0	0	
2	0	0	0	0	597	0	0	1020	0	0	
3	0	0	0	0	614	0	0	1021	0	0	
4	0	0	0	0	627	0	0	1021	0	0	
5	0	0	0	0	634	0	0	1021	0	0	
6	0	0	0	0	636	0	0	1021	0	0	
7	0	0	0	0	631	0	0	1020	0	0	
8	0	0	0	0	620	0	0	1021	0	0	
9	0	0	0	0	604	0	0	1021	0	0	
10	0	0	0	0	584	0	0	1021	0	0	
11	0	0	0	0	563	0	0	1021	0	0	
12	0	0	0	0	543	0	0	1021	0	0	
13	0	0	0	0	524	0	0	1021	0	0	
14	0	0	0	0	509	0	0	1021	0	0	
15	0	0	0	0	501	0	0	1021	0	0	
0	0	0	0	0	499	0	0	1021	0	0	
1	0	0	0	0	503	0	0	1020	0	0	
2	0	0	0	0	513	0	0	1021	0	0	
3	0	0	0	0	528	0	0	1021	0	0	
4	0	0	0	0	545	0	0	1021	0	0	
5	0	0	0	0	565	0	0	1021	0	0	
6	0	0	0	0	585	0	0	1021	0	0	
7	0	0	0	0	601	0	0	1021	0	0	
8	0	0	0	0	615	0	0	1021	0	0	
9	0	0	0	0	623	0	0	1021	0	0	
10	0	0	0	0	624	0	0	1021	0	0	
11	0	0	0	0	621	0	0	1021	0	0	
12	0	0	0	0	611	0	0	1021	0	0	
13	0	0	0	0	597	0	0	1021	0	0	
14	0	0	0	0	580	0	0	1021	0	0	
15	0	0	0	0	560	0	0	1021	0	0	
0	0	0	0	0	543	0	0	1020	0	0	
1	0	0	0	0	526	0	0	1021	0	0	
2	0	0	0	0	513	0	0	1021	0	0	
3	0	0	0	0	506	0	0	1021	0	0	
4	0	0	0	0	505	0	0	1021	0	0	
5	0	0	0	0	510	0	0	1021	0	0	
6	0	0	0	0	520	0	0	1021	0	0	
7	0	0	0	0	534	0	0	1021	0	0	
8	0	0	0	0	551	0	0	1021	0	0	
9	0	0	0	0	570	0	0	1021	0	0	
10	0	0	0	0	588	0	0	1021	0	0	
11	0	0	0	0	604	0	0	1021	0	0	
12	0	0	0	0	615	0	0	1021	0	0	
13	0	0	0	0	621	0	0	1021	0	0	
14	0	0	0	0	622	0	0	1021	0	0	
15	0	0	0	0	616	0	0	1021	0	0	
0	0	0	0	0	605	0	0	1021	0	0	
1	0	0	0	0	591	0	0	1021	0	0	
2	0	0	0	0	573	0	0	1021	0	0	
3	0	0	0	0	553	0	0	1021	0	0	
4	0	0	0	0	534	0	0	1020	0	0	
5	0	0	0	0	517	0	0	1021	0	0	
6	0	0	0	0	504	0	0	1021	0	0	
7	0	0	0	0	496	0	0	1021	0	0	
8	0	0	0	0	494	0	0	1021	0	0	
9	0	0	0	0	498	0	0	1021	0	0	
10	0	0	0	0	508	0	0	1021	0	0	
11	0	0	0	0	522	0	0	1021	0	0	
12	0	0	0	0	540	0	0	1021	0	0	
13	0	0	0	0	558	0	0	1021	0	0	
14	0	0	0	0	578	0	0	1021	0	0	
15	0	0	0	0	594	0	0	1021	0	0	
0	0	0	0	0	607	0	0	1021	0	0	
1	0	0	0	0	614	0	0	1021	0	0	
2	0	0	0	0	616	0	0	1021	0	0	
3	0	0	0	0	613	0	0	1021	0	0	
4	0	0	0	0	604	0	0	1021	0	0	
5	0	0	0	0	591	0	0	1021	0	0	
6	0	0	0	0	574	0	0	1021	0	0	
7	0	0	0	0	556	0	0	1021	0	0	
8	0	0	0	0	539	0	0	1020	0	0	
9	0	0	0	0	523	0	0	1021	0	0	
10	0	0	0	0	511	0	0	1021	0	0	
11	0	0	0	0	503	0	0	1021	0	0	
12	0	0	0	0	502	0	0	1021	0	0	
13	0	0	0	0	507	0	0	1020	0	0	
14	0	0	0	0	516	0	0	1021	0	0	
15	0	0	0	0	530	0	0	1021	0	0	
0	0	0	0	0	546	0	0	1021	0	0	
1	0	0	0	0	565	0	0	1021	0	0	
2	0	0	0	0	583	0	0	1020	0	0	
3	0	0	0	0	599	0	0	1021	0	0	
4	0	0	0	0	611	0	0	1021	0	0	
5	0	0	0	0	617	0	0	1021	0	0	
6	0	0	0	0	620	0	0	1021	0	0	
7	0	0	0	0	616	0	0	1021	0	0	
8	0	0	0	0	606	0	0	1021	0	0	
9	0	0	0	0	593	0	0	1021	0	0	
10	0	0	0	0	575	0	0	1021	0	0	
11	0	0	0	0	557	0	0	1021	0	0	
12	0	0	0	0	539	0	0	1020	0	0	
13	0	0	0	0	523	0	0	1021	0	0	
14	0	0	0	0	510	0	0	1021	0	0	
15	0	0	0	0	503	0	0	1021	0	0	
0	0	0	0	0	502	0	0	1021	0	0	
1	0	0	0	0	507	0	0	1021	0	0	
2	0	0	0	0	516	0	0	1021	0	0	
3	0	0	0	0	530	0	0	1021	0	0	
4	0	0	0	0	547	0	0	1021	0	0	
5	0	0	0	0	566	0	0	1021	0	0	
6	0	0	0	0	585	0	0	1021	0	0	
7	0	0	0	0	601	0	0	1021	0	0	
8	0	0	0	0	614	0	0	1021	0	0	
9	0	0	0	0	622	0	0	1021	0	0	
10	0	0	0	0	624	0	0	1021	0	0	
11	0	0	0	0	622	0	0	1021	0	0	
12	0	0	0	0	612	0	0	1021	0	0	
13	0	0	0	0	600	0	0	1021	0	0	
14	0	0	0	0	583	0	0	1021	0	0	
15	0	0	0	0	563	0	0	1021	0	0	
0	0	0	0	0	544	0	0	1021	0	0	
1	0	0	0	0	526	0	0	1021	0	0	
2	0	0	0	0	512	0	0	1021	0	0	
3	0	0	0	0	502	0	0	1021	0	0	
4	0	0	0	0	499	0	0	1021	0	0	
5	0	0	0	0	501	0	0	1020	0	0	
6	0	0	0	0	509	0	0	1021	0	0	
7	0	0	0	0	521	0	0	1021	0	0	
8	0	0	0	0	537	0	0	1021	0	0	
9	0	0	0	0	556	0	0	1021	0	0	
10	0	0	0	0	576	0	0	1021	0	0	
11	0	0	0	0	593	0	0	1021	0	0	
12	0	0	0	0	608	0	0	1021	0	0	
13	0	0	0	0	617	0	0	1021	0	0	
14	0	0	0	0	620	0	0	1021	0	0	
15	0	0	0	0	618	0	0	1021	0	0	
0	0	0	0	0	609	0	0	1021	0	0	
1	0	0	0	0	596	0	0	1021	0	0	
2	0	0	0	0	578	0	0	1021	0	0	
3	0	0	0	0	558	0	0	1021	0	0	
4	0	0	0	0	539	0	0	1021	0	0	
5	0	0	0	0	520	0	0	1021	0	0	
6	0	0	0	0	506	0	0	1021	0	0	
7	0	0	0	0	496	0	0	1021	0	0	
8	0	0	0	0	493	0	0	1021	0	0	
9	0	0	0	0	496	0	0	1021	0	0	
10	0	0	0	0	504	0	0	1021	0	0	
11	0	0	0	0	517	0	0	1021	0	0	
12	0	0	0	0	534	0	0	1021	0	0	
13	0	0	0	0	553	0	0	1021	0	0	
14	0	0	0	0	572	0	0	1021	0	0	
15	0	0	0	0	590	0	0	1021	0	0	
0	0	0	0	0	604	0	0	1021	0	0	
1	0	0	0	0	612	0	0	1021	0	0	
2	0	0	0	0	615	0	0	1021	0	0	
3	0	0	0	0	613	0	0	1021	0	0	
4	0	0	0	0	604	0	0	1021	0	0	
5	0	0	0	0	591	0	0	1021	0	0	
6	0	0	0	0	575	0	0	1021	0	0	
7	0	0	0	0	556	0	0	1021	0	0	
8	0	0	0	0	537	0	0	1020	0	0	
9	0	0	0	0	520	0	0	1021	0	0	
10	0	0	0	0	506	0	0	1021	0	0	
11	0	0	0	0	496	0	0	1021	0	0	
12	0	0	0	0	494	0	0	1021	0	0	
13	0	0	0	0	498	0	0	1021	0	0	
14	0	0	0	0	506	0	0	1021	0	0	
15	0	0	0	0	519	0	0	1021	0	0	
0	0	0	0	0	537	0	0	1020	0	0	
1	0	0	0	0	556	0	0	1021	0	0	
2	0	0	0	0	575	0	0	1021	0	0	
3	0	0	0	0	593	0	0	1021	0	0	
4	0	0	0	0	608	0	0	986	0	0	
5	0	0	0	0	617	0	0	944	0	0	
6	0	0	0	0	622	0	0	933	0	0	
7	0	0	0	0	620	0	0	947	0	0	
8	0	0	0	0	612	0	0	977	0	0	
9	0	0	0	0	600	0	0	1010	0	0	
10	0	0	0	0	583	0	0	1020	0	0	
11	0	0	0	0	565	0	0	1020	0	0	
12	0	0	0	0	546	6	0	987	0	0	
13	0	0	0	0	529	56	0	917	0	0	
14	0	0	0	0	515	130	0	819	0	0	
15	0	0	0	0	507	185	0	738	0	0	
0	0	0	0	0	504	191	0	703	0	0	
1	0	0	0	0	507	149	0	710	0	0	
2	0	0	0	0	516	76	0	748	0	0	
3	0	0	0	0	530	0	0	799	0	0	
4	0	0	0	0	547	0	0	843	0	0	
5	0	0	0	0	567	0	0	863	0	0	
6	0	0	0	0	587	0	0	848	0	0	
7	0	0	0	0	604	17	0	794	0	0	
8	0	0	0	0	618	88	0	711	0	0	
9	0	0	0	0	627	167	0	643	0	0	
10	0	0	0	0	630	237	0	607	0	0	
11	0	0	0	0	627	294	0	604	0	0	
12	0	0	0	0	619	338	0	625	0	0	
13	0	0	0	0	606	372	0	655	0	0	
14	0	0	0	0	589	401	0	684	0	0	
15	0	0	0	0	571	429	0	697	0	0	
0	0	0	0	0	553	459	0	689	0	0	
1	0	0	0	0	536	495	0	653	0	0	
2	0	0	0	0	523	536	0	592	0	0	
3	0	0	0	0	514	556	0	539	0	0	
4	0	0	0	0	512	537	0	508	0	0	
5	0	0	0	0	516	484	0	499	0	0	
6	0	0	0	0	525	416	0	503	0	0	
7	0	0	0	0	538	348	0	507	0	0	
8	0	0	0	0	555	299	0	503	0	0	
9	0	0	0	0	572	279	0	479	0	0	
10	0	0	0	0	591	295	0	434	0	0	
11	0	0	0	0	607	350	0	366	0	0	
12	0	0	0	0	619	434	0	284	0	0	
13	0	0	0	0	627	526	0	217	0	0	
14	0	0	0	0	629	612	0	176	0	0	
15	0	0	0	0	627	688	0	162	0	0	
0	0	0	0	0	618	750	0	168	0	0	
1	0	0	0	0	605	798	0	189	0	0	
2	0	0	0	0	589	832	1	216	0	0	
3	0	0	0	0	572	854	0	239	0	0	
4	0	0	0	0	555	867	0	253	0	0	
5	0	0	0	0	539	873	0	253	0	0	
6	0	0	0	0	527	876	0	239	0	0	
7	0	0	0	0	519	863	0	222	0	0	
8	0	0	0	0	518	832	0	208	0	0	
9	0	0	0	0	523	793	0	195	0	0	
10	0	0	0	0	532	755	0	175	0	0	
11	0	0	0	0	546	729	0	147	0	0	
12	0	0	0	0	562	722	0	107	0	0	
13	0	0	0	0	580	736	0	56	0	0	
14	0	0	0	0	598	774	0	0	0	0	
15	0	0	0	0	613	831	0	0	0	0	
0	0	0	0	0	625	901	0	0	0	0	
1	0	0	0	0	632	970	0	0	0	0	
2	0	0	0	0	634	1021	0	0	0	0	
3	0	0	0	0	630	1021	0	0	0	0	
4	0	0	0	0	620	1021	0	0	0	0	
5	0	0	0	0	607	1021	0	0	0	0	
6	0	0	0	0	590	1021	0	0	0	0	
7	0	0	0	0	572	1021	0	0	0	0	
8	0	0	0	0	554	1021	0	0	0	0	
9	0	0	0	0	538	1021	0	0	0	0	
10	0	0	0	0	526	1019	0	0	0	0	
11	0	0	0	0	518	1005	0	0	0	0	
12	0	0	0	0	518	984	0	0	0	0	
13	0	0	0	0	522	966	0	0	0	0	
14	0	0	0	0	531	954	0	0	0	0	
15	0	0	0	0	545	955	0	0	0	0	
0	0	0	0	0	561	969	0	0	0	0	
1	0	0	0	0	580	996	0	0	0	0	
2	0	0	0	0	597	1021	0	0	0	0	
3	0	0	0	0	612	1021	0	0	0	0	
4	0	0	0	0	624	1021	0	0	0	0	
5	0	0	0	0	630	1021	0	0	0	0	
6	0	0	0	0	632	1021	0	0	0	0	
7	0	0	0	0	628	1021	0	0	0	0	
8	0	0	0	0	619	1021	0	0	0	0	
9	0	0	0	0	606	1021	0	0	0	0	
10	0	0	0	0	589	1021	0	0	0	0	
11	0	0	0	0	572	1021	0	0	0	0	
12	0	0	0	0	555	1021	0	0	0	0	
13	0	0	0	0	539	1021	0	0	0	0	
14	0	0	0	0	527	1021	0	0	0	0	
15	0	0	0	0	520	1022	0	0	0	0	
0	0	0	0	0	521	1021	0	0	0	0	
1	0	0	0	0	526	1021	0	0	0	0	
2	0	0	0	0	536	1021	0	0	0	0	
3	0	0	0	0	551	1021	0	0	0	0	
4	0	0	0	0	568	1021	0	0	0	0	
5	0	0	0	0	586	1021	0	0	0	0	
6	0	0	0	0	603	1021	0	0	0	0	
7	0	0	0	0	618	1021	0	0	0	0	
8	0	0	0	0	628	1021	0	0	0	0	
9	0	0	0	0	634	1021	0	0	0	0	
10	0	0	0	0	634	1021	0	0	0	0	
11	0	0	0	0	628	1021	0	0	0	0	
12	0	0	0	0	617	1021	0	0	0	0	
13	0	0	0	0	602	1021	0	0	0	0	
14	0	0	0	0	584	1021	0	0	0	0	
15	0	0	0	0	565	1021	0	0	0	0	
0	0	0	0	0	547	1021	0	0	0	0	
1	0	0	0	0	530	1021	0	0	0	0	
2	0	0	0	0	518	1021	0	0	0	0	
3	0	0	0	0	511	1021	0	0	0	0	
4	0	0	0	0	510	1021	0	0	0	0	
5	0	0	0	0	515	1021	0	0	0	0	
6	0	0	0	0	524	1021	0	0	0	0	
7	0	0	0	0	537	1021	0	0	0	0	
8	0	0	0	0	553	1021	0	0	0	0	
9	0	0	0	0	571	1021	0	0	0	0	
10	0	0	0	0	587	1021	0	0	0	0	
11	0	0	0	0	601	1021	0	0	0	0	
12	0	0	0	0	612	1021	0	0	0	0	
13	0	0	0	0	618	1021	0	0	0	0	
14	0	0	0	0	619	1021	0	0	0	0	
15	0	0	0	0	614	1021	0	0	0	0	
0	0	0	0	0	604	1021	0	0	0	0	
1	0	0	0	0	591	1021	0	0	0	0	
2	0	0	0	0	575	1021	0	0	0	0	
3	0	0	0	0	558	1021	0	0	0	0	
4	0	0	0	0	542	1021	0	0	0	0	
5	0	0	0	0	527	1021	0	0	0	0	
6	0	0	0	0	517	1021	0	0	0	0	
7	0	0	0	0	511	1021	0	0	0	0	
8	0	0	0	0	511	1021	0	0	0	0	
9	0	0	0	0	516	1021	0	0	0	0	
10	0	0	0	0	525	1021	0	0	0	0	
11	0	0	0	0	539	1021	0	0	0	0	
12	0	0	0	0	554	1021	0	0	0	0	
13	0	0	0	0	570	1021	0	0	0	0	
14	0	0	0	0	586	1021	0	0	0	0	
15	0	0	0	0	599	1021	0	0	0	0	
0	0	0	0	0	609	1021	0	0	0	0	
1	0	0	0	0	614	1021	0	0	0	0	
2	0	0	0	0	613	1021	0	0	0	0	
3	0	0	0	0	609	1021	0	0	0	0	
4	0	0	0	0	599	1021	0	0	0	0	
5	0	0	0	0	586	1021	0	0	0	0	
6	0	0	0	0	570	1021	0	0	0	0	
7	0	0	0	0	553	1021	0	0	0	0	
8	0	0	0	0	537	1021	0	0	0	0	
9	0	0	0	0	523	1021	0	0	0	0	
10	0	0	0	0	513	1011	0	0	0	0	
11	0	0	0	0	508	995	0	0	0	0	
12	0	0	0	0	508	977	0	0	0	0	
13	0	0	0	0	514	963	0	0	0	0	
14	0	0	0	0	525	956	0	0	0	0	
15	0	0	0	0	539	959	0	0	0	0	
0	0	0	0	0	556	972	0	0	0	0	
1	0	0	0	0	573	992	0	0	0	0	
2	0	0	0	0	590	1021	0	0	0	0	
3	0	0	0	0	604	1021	0	0	0	0	
4	0	0	0	0	614	1021	0	0	0	0	
5	0	0	0	0	620	1021	0	0	0	0	
6	0	0	0	0	620	1021	0	0	0	0	
7	0	0	0	0	615	1021	0	0	0	0	
8	0	0	0	0	605	1021	0	0	0	0	
9	0	0	0	0	591	1021	0	0	0	0	
10	0	0	0	0	575	1021	0	0	0	0	
11	0	0	0	0	559	1021	0	0	0	0	
12	0	0	0	0	543	1012	0	0	0	0	
13	0	0	0	0	529	989	0	0	0	0	
14	0	0	0	0	519	960	0	0	0	0	
15	0	0	0	0	513	930	0	0	0	0	
0	0	0	0	0	513	903	0	0	0	0	
1	0	0	0	0	518	885	0	0	0	0	
2	0	0	0	0	527	878	0	0	0	0	
3	0	0	0	0	540	883	0	0	0	0	
4	0	0	0	0	556	902	0	0	0	0	
5	0	0	0	0	572	932	0	0	0	0	
6	0	0	0	0	588	970	0	0	0	0	
7	0	0	0	0	601	1012	0	0	0	0	
8	0	0	0	0	611	1021	0	0	0	0	
9	0	0	0	0	615	1021	0	0	0	0	
10	0	0	0	0	614	1021	0	0	0	0	
11	0	0	0	0	609	1021	0	0	0	0	
12	0	0	0	0	599	1021	0	0	0	0	
13	0	0	0	0	585	1021	0	0	0	0	
14	0	0	0	0	569	1021	0	0	0	0	
15	0	0	0	0	552	1014	0	0	0	0	
0	0	0	0	0	536	990	0	0	0	0	
1	0	0	0	0	521	956	0	0	0	0	
2	0	0	0	0	510	918	0	0	0	0	
3	0	0	0	0	504	881	0	0	0	0	
4	0	0	0	0	503	849	0	0	0	0	
5	0	0	0	0	508	828	0	0	0	0	
6	0	0	0	0	517	819	0	0	0	0	
7	0	0	0	0	530	826	0	0	0	0	
8	0	0	0	0	546	847	0	0	0	0	
9	0	0	0	0	563	880	0	0	0	0	
10	0	0	0	0	579	924	0	0	0	0	
11	0	0	0	0	593	971	0	0	0	0	
12	0	0	0	0	604	1019	0	0	0	0	
13	0	0	0	0	610	1021	0	0	0	0	
14	0	0	0	0	610	1021	0	0	0	0	
15	0	0	0	0	606	1021	0	0	0	0	
0	0	0	0	0	596	1021	0	0	0	0	
1	0	0	0	0	583	1021	0	0	0	0	
2	0	0	0	0	567	1019	0	0	0	0	
3	0	0	0	0	550	995	0	0	0	0	
4	0	0	0	0	533	960	0	0	0	0	
5	0	0	0	0	519	918	0	0	0	0	
6	0	0	0	0	508	872	0	0	0	0	
7	0	0	0	0	501	829	0	7	0	0	
8	0	0	0	0	500	793	0	17	0	0	
9	0	0	0	0	505	771	0	28	0	0	
10	0	0	0	0	514	763	0	37	0	0	
11	0	0	0	0	527	772	0	43	0	0	
12	0	0	0	0	543	797	0	43	0	0	
13	0	0	0	0	560	835	0	39	0	0	
14	0	0	0	0	578	883	0	30	0	0	
15	0	0	0	0	592	936	0	17	0	0	
0	0	0	0	0	603	989	0	3	0	0	
1	0	0	0	0	609	1020	0	0	0	0	
2	0	0	0	0	610	1021	0	0	0	0	
3	0	0	0	0	607	1021	0	0	0	0	
4	0	0	0	0	598	1021	0	0	0	0	
5	0	0	0	0	584	1021	0	0	0	0	
6	0	0	0	0	568	1011	0	7	0	0	
7	0	0	0	0	551	980	0	20	0	0	
8	0	0	0	0	534	937	0	39	0	0	
9	0	0	0	0	519	888	0	62	0	0	
10	0	0	0	0	507	837	0	86	0	0	
11	0	0	0	0	500	789	0	109	0	0	
12	0	0	0	0	498	750	0	127	0	0	
13	0	0	0	0	503	725	0	140	0	0	
14	0	0	0	0	511	716	0	145	0	0	
15	0	0	0	0	525	726	0	142	0	0	
0	0	0	0	0	540	752	0	132	0	0	
1	0	0	0	0	558	793	0	114	0	0	
2	0	0	0	0	575	844	0	90	0	0	
3	0	0	0	0	591	901	0	64	0	0	
4	0	0	0	0	603	958	0	39	0	0	
5	0	0	0	0	610	1008	0	15	0	0	
6	0	0	0	0	612	1021	0	0	0	0	
7	0	0	0	0	609	1021	0	0	0	0	
8	0	0	0	0	601	1021	0	0	0	0	
9	0	0	0	0	589	1021	0	3	0	0	
10	0	0	0	0	573	1001	0	17	0	0	
11	0	0	0	0	557	964	0	39	0	0	
12	0	0	0	0	540	916	0	67	0	0	
13	0	0	0	0	524	862	0	98	0	0	
14	0	0	0	0	512	805	0	130	0	0	
15	0	0	0	0	505	753	0	159	0	0	
0	0	0	0	0	503	711	0	182	0	0	
1	0	0	0	0	507	685	0	198	0	0	
2	0	0	0	0	515	676	0	204	0	0	
3	0	0	0	0	527	687	0	201	0	0	
4	0	0	0	0	542	714	0	188	0	0	
5	0	0	0	0	559	757	0	167	0	0	
6	0	0	0	0	575	811	0	140	0	0	
7	0	0	0	0	591	869	0	108	0	0	
8	0	0	0	0	602	928	0	78	0	0	
9	0	0	0	0	608	980	0	50	0	0	
10	0	0	0	0	611	1020	0	28	0	0	
11	0	0	0	0	608	1021	0	14	0	0	
12	0	0	0	0	599	1021	0	10	0	0	
13	0	0	0	0	587	1017	0	17	0	0	
14	0	0	0	0	571	988	0	34	0	0	
15	0	0	0	0	555	943	0	59	0	0	
0	0	0	0	0	539	889	0	91	0	0	
1	0	0	0	0	524	828	0	126	0	0	
2	0	0	0	0	513	766	0	162	0	0	
3	0	0	0	0	506	711	0	195	0	0	
4	0	0	0	0	504	667	0	222	0	0	
5	0	0	0	0	509	640	0	241	0	0	
6	0	0	0	0	517	632	0	249	0	0	
7	0	0	0	0	529	645	0	248	0	0	
8	0	0	0	0	544	676	0	235	0	0	
9	0	0	0	0	561	723	0	214	0	0	
10	0	0	0	0	578	781	0	185	0	0	
11	0	0	0	0	592	844	0	153	0	0	
12	0	0	0	0	604	906	0	120	0	0	
13	0	0	0	0	610	962	0	88	0	0	
14	0	0	0	0	611	1004	0	63	0	0	
15	0	0	0	0	608	1021	0	47	0	0	
0	0	0	0	0	599	1021	0	41	0	0	
1	0	0	0	0	587	1011	0	46	0	0	
2	0	0	0	0	571	979	0	61	0	0	
3	0	0	0	0	553	930	0	85	0	0	
4	0	0	0	0	537	870	0	116	0	0	
5	0	0	0	0	522	803	0	152	0	0	
6	0	0	0	0	510	736	0	188	0	0	
7	0	0	0	0	503	676	0	221	0	0	
8	0	0	0	0	501	628	0	248	0	0	
9	0	0	0	0	504	599	0	268	0	0	
10	0	0	0	0	512	590	0	275	0	0	
11	0	0	0	0	525	603	0	273	0	0	
12	0	0	0	0	540	635	0	260	0	0	
13	0	0	0	0	556	684	0	237	0	0	
14	0	0	0	0	573	743	0	207	0	0	
15	0	0	0	0	588	808	0	174	0	0	
0	0	0	0	0	598	873	0	140	0	0	
1	0	0	0	0	605	931	0	108	0	0	
2	0	0	0	0	607	974	0	82	0	0	
3	0	0	0	0	603	1002	0	65	0	0	
4	0	0	0	0	595	1008	0	59	0	0	
5	0	0	0	0	583	993	0	64	0	0	
6	0	0	0	0	568	958	0	80	0	0	
7	0	0	0	0	551	907	0	105	0	0	
8	0	0	0	0	535	844	0	137	0	0	
9	0	0	0	0	520	775	0	174	0	0	
10	0	0	0	0	509	706	0	211	0	0	
11	0	0	0	0	501	645	0	246	0	0	
12	0	0	0	0	500	596	0	274	0	0	
13	0	0	0	0	503	566	0	294	0	0	
14	0	0	0	0	511	558	0	303	0	0	
15	0	0	0	0	523	571	0	302	0	0	
0	0	0	0	0	537	604	0	289	0	0	
1	0	0	0	0	554	654	0	268	0	0	
2	0	0	0	0	571	716	0	240	0	0	
3	0	0	0	0	585	783	0	207	0	0	
4	0	0	0	0	596	850	0	174	0	0	
5	0	0	0	0	603	910	0	143	0	0	
6	0	0	0	0	604	955	0	118	0	0	
7	0	0	0	0	601	983	0	101	0	0	
8	0	0	0	0	592	990	0	94	0	0	
9	0	0	0	0	579	975	0	98	0	0	
10	0	0	0	0	564	940	0	113	0	0	
11	0	0	0	0	547	888	0	137	0	0	
12	0	0	0	0	531	824	0	168	0	0	
13	0	0	0	0	516	753	0	204	0	0	
14	0	0	0	0	504	683	0	240	0	0	
15	0	0	0	0	498	620	0	275	0	0	
0	0	0	0	0	496	571	0	303	0	0	
1	0	0	0	0	500	540	0	323	0	0	
2	0	0	0	0	509	531	0	332	0	0	
3	0	0	0	0	522	544	0	331	0	0	
4	0	0	0	0	538	577	0	319	0	0	
5	0	0	0	0	555	628	0	297	0	0	
6	0	0	0	0	572	690	0	268	0	0	
7	0	0	0	0	586	758	0	236	0	0	
8	0	0	0	0	597	824	0	201	0	0	
9	0	0	0	0	604	885	0	171	0	0	
10	0	0	0	0	605	931	0	146	0	0	
11	0	0	0	0	602	960	0	129	0	0	
12	0	0	0	0	594	968	0	123	0	0	
13	0	0	0	0	582	955	0	128	0	0	
14	0	0	0	0	567	922	0	143	0	0	
15	0	0	0	0	551	871	0	168	0	0	
0	0	0	0	0	535	809	0	200	0	0	
1	0	0	0	0	520	740	0	235	0	0	
2	0	0	0	0	510	671	0	272	0	0	
3	0	0	0	0	503	609	0	307	0	0	
4	0	0	0	0	502	560	0	335	0	0	
5	0	0	0	0	506	531	0	354	0	0	
6	0	0	0	0	514	522	0	363	0	0	
7	0	0	0	0	527	535	0	361	0	0	
8	0	0	0	0	542	568	0	348	0	0	
9	0	0	0	0	559	618	0	325	0	0	
10	0	0	0	0	575	680	0	296	0	0	
11	0	0	0	0	589	747	0	263	0	0	
12	0	0	0	0	600	814	0	228	0	0	
13	0	0	0	0	606	873	0	197	0	0	
14	0	0	0	0	607	919	0	171	0	0	
15	0	0	0	0	604	947	0	154	0	0	
0	0	0	0	0	595	954	0	147	0	0	
1	0	0	0	0	582	940	0	151	0	0	
2	0	0	0	0	567	906	0	166	0	0	
3	0	0	0	0	550	855	0	190	0	0	
4	0	0	0	0	534	792	0	221	0	0	
5	0	0	0	0	519	722	0	256	0	0	
6	0	0	0	0	508	652	0	292	0	0	
7	0	0	0	0	500	589	0	326	0	0	
8	0	0	0	0	498	539	0	353	0	0	
9	0	0	0	0	501	508	0	372	0	0	
10	0	0	0	0	510	498	0	381	0	0	
11	0	0	0	0	521	510	0	379	0	0	
12	0	0	0	0	536	542	0	366	0	0	
13	0	0	0	0	553	591	0	344	0	0	
14	0	0	0	0	570	653	0	316	0	0	
15	0	0	0	0	584	721	0	283	0	0	
0	0	0	0	0	596	788	0	250	0	0	
1	0	0	0	0	604	847	0	221	0	0	
2	0	0	0	0	606	896	0	196	0	0	
3	0	0	0	0	604	926	0	180	0	0	
4	0	0	0	0	598	935	0	175	0	0	
5	0	0	0	0	588	923	0	180	0	0	
6	0	0	0	0	574	892	0	195	0	0	
7	0	0	0	0	558	842	0	220	0	0	
8	0	0	0	0	543	780	0	251	0	0	
9	0	0	0	0	528	712	0	286	0	0	
10	0	0	0	0	515	643	0	321	0	0	
11	0	0	0	0	507	580	0	353	0	0	
12	0	0	0	0	502	529	0	379	0	0	
13	0	0	0	0	503	496	0	395	0	0	
14	0	0	0	0	506	482	0	400	0	0	
15	0	0	0	0	513	490	0	392	0	0	
0	0	0	0	0	521	516	0	374	0	0	
1	0	0	0	0	530	559	0	345	0	0	
2	0	0	0	0	539	611	0	308	0	0	
3	0	0	0	0	545	670	0	267	0	0	
4	0	0	0	0	547	726	0	224	0	0	
5	0	0	0	0	544	775	0	182	0	0	
6	0	0	0	0	535	812	0	147	0	0	
7	0	0	0	0	522	829	0	118	0	0	
8	0	0	0	0	504	826	0	100	0	0	
9	0	0	0	0	481	802	0	92	0	0	
10	0	0	0	0	456	758	0	96	0	0	
11	0	0	0	0	429	697	0	108	0	0	
12	0	0	0	0	403	624	0	128	0	0	
13	0	0	0	0	376	545	0	152	0	0	
14	0	0	0	0	352	467	0	176	0	0	
15	0	0	0	0	332	395	0	199	0	0	
0	0	0	0	0	318	336	0	215	0	0	
1	0	0	0	0	308	295	0	223	0	0	
2	0	0	0	0	305	275	0	221	0	0	
3	0	0	0	0	306	276	0	210	0	0	
4	0	0	0	0	312	298	0	189	0	0	
5	0	0	0	0	323	339	0	160	0	0	
6	0	0	0	0	336	394	0	127	0	0	
7	0	0	0	0	351	458	0	93	0	0	
8	0	0	0	0	367	525	0	60	0	0	
9	0	0	0	0	381	588	0	33	0	0	
10	0	0	0	0	394	641	0	15	0	0	
11	0	0	0	0	405	680	0	9	0	0	
12	0	0	0	0	414	701	0	15	0	0	
13	0	0	0	0	421	704	0	36	0	0	
14	0	0	0	0	427	689	0	69	0	0	
15	0	0	0	0	433	660	0	113	0	0	
0	0	0	0	0	438	621	0	167	0	0	
1	0	0	0	0	444	576	0	224	0	0	
2	0	0	0	0	454	531	0	284	0	0	
3	0	0	0	0	465	494	0	341	0	0	
4	0	0	0	0	481	468	0	391	0	0	
5	0	0	0	0	499	458	0	430	0	0	
6	0	0	0	0	520	466	0	457	0	0	
7	0	0	0	0	543	493	0	468	0	0	
8	0	0	0	0	566	536	0	466	0	0	
9	0	0	0	0	588	591	0	450	0	0	
10	0	0	0	0	608	655	0	423	0	0	
11	0	0	0	0	623	722	0	389	0	0	
12	0	0	0	0	633	786	0	352	0	0	
13	0	0	0	0	637	841	0	315	0	0	
14	0	0	0	0	636	883	0	282	0	0	
15	0	0	0	0	628	908	0	258	0	0	
0	0	0	0	0	615	912	0	244	0	0	
1	0	0	0	0	599	895	0	241	0	0	
2	0	0	0	0	579	858	0	250	0	0	
3	0	0	0	0	559	806	0	270	0	0	
4	0	0	0	0	541	740	0	297	0	0	
5	0	0	0	0	525	671	0	331	0	0	
6	0	0	0	0	512	600	0	367	0	0	
7	0	0	0	0	505	538	0	402	0	0	
8	0	0	0	0	505	489	0	431	0	0	
9	0	0	0	0	510	460	0	453	0	0	
10	0	0	0	0	520	452	0	465	0	0	
11	0	0	0	0	534	466	0	466	0	0	
12	0	0	0	0	551	500	0	456	0	0	
13	0	0	0	0	572	551	0	437	0	0	
14	0	0	0	0	590	614	0	410	0	0	
15	0	0	0	0	607	683	0	379	0	0	
0	0	0	0	0	620	751	0	345	0	0	
1	0	0	0	0	628	811	0	315	0	0	
2	0	0	0	0	632	859	0	289	0	0	
3	0	0	0	0	629	889	0	271	0	0	
4	0	0	0	0	621	899	0	263	0	0	
5	0	0	0	0	609	887	0	266	0	0	
6	0	0	0	0	593	854	0	279	0	0	
7	0	0	0	0	577	804	0	301	0	0	
8	0	0	0	0	560	743	0	331	0	0	
9	0	0	0	0	544	673	0	364	0	0	
10	0	0	0	0	531	604	0	400	0	0	
11	0	0	0	0	524	542	0	433	0	0	
12	0	0	0	0	521	493	0	460	0	0	
13	0	0	0	0	525	462	0	479	0	0	
14	0	0	0	0	532	452	0	487	0	0	
15	0	0	0	0	545	464	0	486	0	0	
0	0	0	0	0	560	496	0	474	0	0	
1	0	0	0	0	576	545	0	452	0	0	
2	0	0	0	0	593	606	0	424	0	0	
3	0	0	0	0	608	673	0	392	0	0	
4	0	0	0	0	620	739	0	359	0	0	
5	0	0	0	0	627	799	0	328	0	0	
6	0	0	0	0	629	846	0	303	0	0	
7	0	0	0	0	627	877	0	286	0	0	
8	0	0	0	0	619	886	0	278	0	0	
9	0	0	0	0	607	874	0	281	0	0	
10	0	0	0	0	592	843	0	295	0	0	
11	0	0	0	0	575	793	0	317	0	0	
12	0	0	0	0	559	731	0	346	0	0	
13	0	0	0	0	542	663	0	379	0	0	
14	0	0	0	0	529	594	0	414	0	0	
15	0	0	0	0	520	531	0	445	0	0	
0	0	0	0	0	517	481	0	471	0	0	
1	0	0	0	0	519	450	0	488	0	0	
2	0	0	0	0	526	440	0	496	0	0	
3	0	0	0	0	537	451	0	492	0	0	
4	0	0	0	0	551	482	0	479	0	0	
5	0	0	0	0	568	530	0	457	0	0	
6	0	0	0	0	585	591	0	428	0	0	
7	0	0	0	0	600	657	0	396	0	0	
8	0	0	0	0	612	723	0	363	0	0	
9	0	0	0	0	620	783	0	332	0	0	
10	0	0	0	0	623	831	0	307	0	0	
11	0	0	0	0	622	861	0	290	0	0	
12	0	0	0	0	615	871	0	284	0	0	
13	0	0	0	0	604	860	0	287	0	0	
14	0	0	0	0	589	828	0	301	0	0	
15	0	0	0	0	571	779	0	323	0	0	
0	0	0	0	0	555	716	0	352	0	0	
1	0	0	0	0	538	648	0	386	0	0	
2	0	0	0	0	525	579	0	420	0	0	
3	0	0	0	0	516	516	0	452	0	0	
4	0	0	0	0	512	466	0	477	0	0	
5	0	0	0	0	515	433	0	494	0	0	
6	0	0	0	0	522	422	0	501	0	0	
7	0	0	0	0	533	432	0	497	0	0	
8	0	0	0	0	547	463	0	484	0	0	
9	0	0	0	0	563	510	0	461	0	0	
10	0	0	0	0	580	570	0	432	0	0	
11	0	0	0	0	595	636	0	399	0	0	
12	0	0	0	0	608	702	0	366	0	0	
13	0	0	0	0	615	763	0	335	0	0	
14	0	0	0	0	617	810	0	310	0	0	
15	0	0	0	0	615	840	0	294	0	0	
0	0	0	0	0	608	851	0	287	0	0	
1	0	0	0	0	596	840	0	291	0	0	
2	0	0	0	0	581	810	1	305	0	0	
3	0	0	0	0	565	763	0	329	0	0	
4	0	0	0	0	549	703	0	359	0	0	
5	0	0	0	0	532	636	0	393	0	0	
6	0	0	0	0	520	568	0	428	0	0	
7	0	0	0	0	512	507	0	459	0	0	
8	0	0	0	0	509	458	0	485	0	0	
9	0	0	0	0	511	427	0	502	0	0	
10	0	0	0	0	519	417	0	509	0	0	
11	0	0	0	0	531	428	0	506	0	0	
12	0	0	0	0	546	460	0	492	0	0	
13	0	0	0	0	563	508	0	469	0	0	
14	0	0	0	0	581	568	0	441	0	0	
15	0	0	0	0	597	634	0	408	0	0	
0	0	0	0	0	609	700	0	375	0	0	
1	0	0	0	0	618	760	0	344	0	0	
2	0	0	0	0	620	807	0	319	0	0	
3	0	0	0	0	619	838	0	304	0	0	
4	0	0	0	0	611	847	0	297	0	0	
5	0	0	0	0	599	836	0	301	0	0	
6	0	0	0	0	583	806	0	316	0	0	
7	0	0	0	0	566	757	0	339	0	0	
8	0	0	0	0	550	697	0	369	0	0	
9	0	0	0	0	534	630	0	403	0	0	
10	0	0	0	0	521	563	0	438	0	0	
11	0	0	0	0	512	502	0	469	0	0	
12	0	0	0	0	511	453	0	495	0	0	
13	0	0	0	0	513	423	0	512	0	0	
14	0	0	0	0	521	412	0	519	0	0	
15	0	0	0	0	534	423	0	516	0	0	
0	0	0	0	0	549	454	0	504	0	0	
1	0	0	0	0	566	501	0	481	0	0	
2	0	0	0	0	583	561	0	452	0	0	
3	0	0	0	0	598	626	0	419	0	0	
4	0	0	0	0	610	691	0	386	0	0	
5	0	0	0	0	617	750	0	355	0	0	
6	0	0	0	0	620	796	0	329	0	0	
7	0	0	0	0	617	826	0	312	0	0	
8	0	0	0	0	609	835	0	305	0	0	
9	0	0	0	0	596	823	0	308	0	0	
10	0	0	0	0	581	791	0	322	0	0	
11	0	0	0	0	564	742	0	344	0	0	
12	0	0	0	0	547	682	0	374	0	0	
13	0	0	0	0	531	614	0	408	0	0	
14	0	0	0	0	518	546	0	442	0	0	
15	0	0	0	0	508	485	0	473	0	0	
0	0	0	0	0	506	437	0	499	0	0	
1	0	0	0	0	508	406	0	516	0	0	
2	0	0	0	0	514	396	0	524	0	0	
3	0	0	0	0	525	407	0	520	0	0	
4	0	0	0	0	540	439	0	507	0	0	
5	0	0	0	0	556	487	0	484	0	0	
6	0	0	0	0	573	547	0	455	0	0	
7	0	0	0	0	588	614	0	423	0	0	
8	0	0	0	0	600	680	0	389	0	0	
9	0	0	0	0	609	741	0	358	0	0	
10	0	0	0	0	612	788	0	333	0	0	
11	0	0	0	0	611	818	0	316	0	0	
12	0	0	0	0	604	828	0	310	0	0	
13	0	0	0	0	594	816	0	314	0	0	
14	0	0	0	0	579	785	0	328	0	0	
15	0	0	0	0	563	736	0	351	0	0	
0	0	0	0	0	547	674	0	380	0	0	
1	0	0	0	0	532	606	0	414	0	0	
2	0	0	0	0	519	538	0	448	0	0	
3	0	0	0	0	510	475	0	479	0	0	
4	0	0	0	0	506	426	0	504	0	0	
5	0	0	0	0	507	395	0	521	0	0	
6	0	0	0	0	513	384	0	528	0	0	
7	0	0	0	0	524	395	0	525	0	0	
8	0	0	0	0	538	427	0	512	0	0	
9	0	0	0	0	554	475	0	490	0	0	
10	0	0	0	0	571	536	0	462	0	0	
11	0	0	0	0	587	603	0	430	0	0	
12	0	0	0	0	599	670	0	397	0	0	
13	0	0	0	0	609	731	0	367	0	0	
14	0	0	0	0	612	780	0	342	0	0	
15	0	0	0	0	612	810	0	325	0	0	
0	0	0	0	0	606	820	0	319	0	0	
1	0	0	0	0	595	809	0	323	0	0	
2	0	0	0	0	583	778	0	337	0	0	
3	0	0	0	0	566	730	0	359	0	0	
4	0	0	0	0	551	669	0	389	0	0	
5	0	0	0	0	535	601	0	423	0	0	
6	0	0	0	0	522	533	0	457	0	0	
7	0	0	0	0	513	472	0	488	0	0	
8	0	0	0	0	509	423	0	514	0	0	
9	0	0	0	0	511	391	0	532	0	0	
10	0	0	0	0	517	381	0	540	0	0	
11	0	0	0	0	527	392	0	537	0	0	
12	0	0	0	0	541	424	0	524	0	0	
13	0	0	0	0	556	472	0	502	0	0	
14	0	0	0	0	573	532	0	475	0	0	
15	0	0	0	0	588	600	0	442	0	0	
0	0	0	0	0	600	667	0	409	0	0	
1	0	0	0	0	609	727	0	378	0	0	
2	0	0	0	0	612	775	0	352	0	0	
3	0	0	0	0	611	807	0	336	0	0	
4	0	0	0	0	605	817	0	329	0	0	
5	0	0	0	0	595	806	0	332	0	0	
6	0	0	0	0	581	776	0	346	0	0	
7	0	0	0	0	565	728	0	368	0	0	
8	0	0	0	0	550	667	0	397	0	0	
9	0	0	0	0	534	599	0	430	0	0	
10	0	0	0	0	521	531	0	464	0	0	
11	0	0	0	0	512	469	0	495	0	0	
12	0	0	0	0	508	420	0	521	0	0	
13	0	0	0	0	511	388	0	539	0	0	
14	0	0	0	0	516	376	0	546	0	0	
15	0	0	0	0	526	387	0	543	0	0	
0	0	0	0	0	540	417	0	530	0	0	
1	0	0	0	0	555	464	0	508	0	0	
2	0	0	0	0	572	524	0	480	0	0	
3	0	0	0	0	586	589	0	448	0	0	
4	0	0	0	0	598	655	0	415	0	0	
5	0	0	0	0	606	716	0	383	0	0	
6	0	0	0	0	609	763	0	358	0	0	
7	0	0	0	0	608	793	0	340	0	0	
8	0	0	0	0	601	804	0	332	0	0	
9	0	0	0	0	591	793	0	335	0	0	
10	0	0	0	0	577	763	0	348	0	0	
11	0	0	0	0	561	715	0	370	0	0	
12	0	0	0	0	547	655	0	399	0	0	
13	0	0	0	0	532	588	0	432	0	0	
14	0	0	0	0	520	520	0	467	0	0	
15	0	0	0	0	512	460	0	498	0	0	
0	0	0	0	0	509	410	0	524	0	0	
1	0	0	0	0	511	379	0	542	0	0	
2	0	0	0	0	517	368	0	551	0	0	
3	0	0	0	0	527	378	0	548	0	0	
4	0	0	0	0	541	408	0	536	0	0	
5	0	0	0	0	558	455	0	515	0	0	
6	0	0	0	0	574	515	0	487	0	0	
7	0	0	0	0	588	581	0	455	0	0	
8	0	0	0	0	600	648	0	423	0	0	
9	0	0	0	0	609	709	0	393	0	0	
10	0	0	0	0	612	757	0	368	0	0	
11	0	0	0	0	611	789	0	351	0	0	
12	0	0	0	0	605	800	0	344	0	0	
13	0	0	0	0	596	792	0	348	0	0	
14	0	0	0	0	582	761	0	362	0	0	
15	0	0	0	0	568	716	0	384	0	0	
0	0	0	0	0	553	656	0	414	0	0	
1	0	0	0	0	538	590	0	447	0	0	
2	0	0	0	0	527	523	0	481	0	0	
3	0	0	0	0	519	462	0	512	0	0	
4	0	0	0	0	515	414	0	538	0	0	
5	0	0	0	0	518	382	0	556	0	0	
6	0	0	0	0	524	371	0	564	0	0	
7	0	0	0	0	535	380	0	561	0	0	
8	0	0	0	0	549	410	0	548	0	0	
9	0	0	0	0	565	456	0	527	0	0	
10	0	0	0	0	582	515	0	499	0	0	
11	0	0	0	0	597	581	0	467	0	0	
12	0	0	0	0	609	647	0	434	0	0	
13	0	0	0	0	617	707	0	403	0	0	
14	0	0	0	0	620	756	0	378	0	0	
15	0	0	0	0	619	786	0	360	0	0	
0	0	0	0	0	613	798	0	353	0	0	
1	0	0	0	0	603	789	0	356	0	0	
2	0	0	0	0	590	760	0	369	0	0	
3	0	0	0	0	575	713	0	392	0	0	
4	0	0	0	0	559	654	0	421	0	0	
5	0	0	0	0	543	588	0	454	0	0	
6	0	0	0	0	531	521	0	487	0	0	
7	0	0	0	0	524	461	0	519	0	0	
8	0	0	0	0	520	412	0	545	0	0	
9	0	0	0	0	522	380	0	563	0	0	
10	0	0	0	0	529	369	0	572	0	0	
11	0	0	0	0	540	379	0	570	0	0	
12	0	0	0	0	553	408	0	558	0	0	
13	0	0	0	0	568	455	0	537	0	0	
14	0	0	0	0	584	514	0	510	0	0	
15	0	0	0	0	599	580	0	478	0	0	
0	0	0	0	0	611	647	0	446	0	0	
1	0	0	0	0	619	707	0	415	0	0	
2	0	0	0	0	622	756	0	390	0	0	
3	0	0	0	0	621	788	0	373	0	0	
4	0	0	0	0	615	800	0	366	0	0	
5	0	0	0	0	605	791	0	368	0	0	
6	0	0	0	0	591	762	0	382	0	0	
7	0	0	0	0	575	716	0	403	0	0	
8	0	0	0	0	560	656	0	431	0	0	
9	0	0	0	0	545	590	0	464	0	0	
10	0	0	0	0	532	522	0	496	0	0	
11	0	0	0	0	524	462	0	527	0	0	
12	0	0	0	0	519	412	0	552	0	0	
13	0	0	0	0	521	378	0	570	0	0	
14	0	0	0	0	527	366	0	577	0	0	
15	0	0	0	0	537	374	0	574	0	0	
0	0	0	0	0	551	403	0	560	0	0	
1	0	0	0	0	566	448	0	538	0	0	
2	0	0	0	0	582	506	0	509	0	0	
3	0	0	0	0	596	570	0	476	0	0	
4	0	0	0	0	608	636	0	441	0	0	
5	0	0	0	0	617	696	0	410	0	0	
6	0	0	0	0	620	744	0	384	0	0	
7	0	0	0	0	619	776	0	366	0	0	
8	0	0	0	0	613	787	0	359	0	0	
9	0	0	0	0	603	779	0	362	0	0	
10	0	0	0	0	589	751	0	376	0	0	
11	0	0	0	0	574	704	0	399	0	0	
12	0	0	0	0	559	646	0	429	0	0	
13	0	0	0	0	544	580	0	463	0	0	
14	0	0	0	0	532	514	0	498	0	0	
15	0	0	0	0	524	454	0	531	0	0	
0	0	0	0	0	520	405	0	558	0	0	
1	0	0	0	0	523	374	0	576	0	0	
2	0	0	0	0	529	362	0	584	0	0	
3	0	0	0	0	540	372	0	582	0	0	
4	0	0	0	0	553	401	0	569	0	0	
5	0	0	0	0	568	448	0	547	0	0	
6	0	0	0	0	585	506	0	519	0	0	
7	0	0	0	0	600	572	0	486	0	0	
8	0	0	0	0	611	637	0	451	0	0	
9	0	0	0	0	619	697	0	419	0	0	
10	0	0	0	0	622	745	0	392	0	0	
11	0	0	0	0	619	775	0	374	0	0	
12	0	0	0	0	612	787	0	364	0	0	
13	0	0	0	0	600	777	0	366	0	0	
14	0	0	0	0	585	748	0	377	0	0	
15	0	0	0	0	568	700	0	399	0	0	
0	0	0	0	0	552	640	0	427	0	0	
1	0	0	0	0	536	574	0	459	0	0	
2	0	0	0	0	523	507	0	492	0	0	
3	0	0	0	0	513	445	0	523	0	0	
4	0	0	0	0	509	395	0	548	0	0	
5	0	0	0	0	511	362	0	566	0	0	
6	0	0	0	0	517	350	0	575	0	0	
7	0	0	0	0	527	358	0	572	0	0	
8	0	0	0	0	542	387	0	560	0	0	
9	0	0	0	0	558	433	0	539	0	0	
10	0	0	0	0	575	491	0	511	0	0	
11	0	0	0	0	591	556	0	479	0	0	
12	0	0	0	0	604	623	0	447	0	0	
13	0	0	0	0	613	684	0	416	0	0	
14	0	0	0	0	617	733	0	390	0	0	
15	0	0	0	0	615	765	0	372	0	0	
0	0	0	0	0	609	777	0	364	0	0	
1	0	0	0	0	599	768	0	366	0	0	
2	0	0	0	0	584	738	0	379	0	0	
3	0	0	0	0	568	692	0	400	0	0	
4	0	0	0	0	552	632	0	428	0	0	
5	0	0	0	0	536	566	0	461	0	0	
6	0	0	0	0	523	499	0	494	0	0	
7	0	0	0	0	513	438	0	526	0	0	
8	0	0	0	0	510	388	0	551	0	0	
9	0	0	0	0	511	356	0	570	0	0	
10	0	0	0	0	518	344	0	578	0	0	
11	0	0	0	0	528	353	0	576	0	0	
12	0	0	0	0	543	383	0	564	0	0	
13	0	0	0	0	560	429	0	542	0	0	
14	0	0	0	0	577	488	0	514	0	0	
15	0	0	0	0	593	554	0	482	0	0	
0	0	0	0	0	606	621	0	448	0	0	
1	0	0	0	0	614	682	0	417	0	0	
2	0	0	0	0	617	732	0	391	0	0	
3	0	0	0	0	616	764	0	373	0	0	
4	0	0	0	0	608	776	0	364	0	0	
5	0	0	0	0	597	767	0	366	0	0	
6	0	0	0	0	582	738	0	378	0	0	
7	0	0	0	0	564	692	0	399	0	0	
8	0	0	0	0	547	633	0	427	0	0	
9	0	0	0	0	531	566	0	459	0	0	
10	0	0	0	0	517	499	0	492	0	0	
11	0	0	0	0	507	438	0	523	0	0	
12	0	0	0	0	504	388	0	548	0	0	
13	0	0	0	0	505	355	0	566	0	0	
14	0	0	0	0	511	342	0	574	0	0	
15	0	0	0	0	523	350	0	571	0	0	
0	0	0	0	0	536	379	0	559	0	0	
1	0	0	0	0	554	424	0	537	0	0	
2	0	0	0	0	571	482	0	509	0	0	
3	0	0	0	0	586	547	0	477	0	0	
4	0	0	0	0	599	613	0	444	0	0	
5	0	0	0	0	607	673	0	412	0	0	
6	0	0	0	0	611	722	0	386	0	0	
7	0	0	0	0	609	754	0	369	0	0	
8	0	0	0	0	603	766	0	360	0	0	
9	0	0	0	0	592	757	0	363	0	0	
10	0	0	0	0	577	728	0	376	0	0	
11	0	0	0	0	561	681	0	397	0	0	
12	0	0	0	0	544	622	0	425	0	0	
13	0	0	0	0	528	555	0	457	0	0	
14	0	0	0	0	514	487	0	491	0	0	
15	0	0	0	0	504	426	0	522	0	0	
0	0	0	0	0	500	376	0	547	0	0	
1	0	0	0	0	502	343	0	565	0	0	
2	0	0	0	0	507	330	0	574	0	0	
3	0	0	0	0	518	339	0	571	0	0	
4	0	0	0	0	532	368	0	559	0	0	
5	0	0	0	0	549	415	0	538	0	0	
6	0	0	0	0	566	474	0	510	0	0	
7	0	0	0	0	582	540	0	478	0	0	
8	0	0	0	0	595	608	0	444	0	0	
9	0	0	0	0	604	669	0	413	0	0	
10	0	0	0	0	609	719	0	387	0	0	
11	0	0	0	0	609	753	0	368	0	0	
12	0	0	0	0	603	766	0	359	0	0	
13	0	0	0	0	593	758	0	362	0	0	
14	0	0	0	0	579	729	0	374	0	0	
15	0	0	0	0	564	684	0	395	0	0	
0	0	0	0	0	547	625	0	423	0	0	
1	0	0	0	0	531	558	0	456	0	0	
2	0	0	0	0	519	491	0	490	0	0	
3	0	0	0	0	509	429	0	522	0	0	
4	0	0	0	0	505	379	0	549	0	0	
5	0	0	0	0	506	345	0	567	0	0	
6	0	0	0	0	512	332	0	576	0	0	
7	0	0	0	0	523	340	0	574	0	0	
8	0	0	0	0	536	368	0	563	0	0	
9	0	0	0	0	552	414	0	542	0	0	
10	0	0	0	0	568	472	0	514	0	0	
11	0	0	0	0	584	538	0	482	0	0	
12	0	0	0	0	597	605	0	449	0	0	
13	0	0	0	0	606	667	0	418	0	0	
14	0	0	0	0	611	717	0	391	0	0	
15	0	0	0	0	610	751	0	373	0	0	
0	0	0	0	0	604	764	0	364	0	0	
1	0	0	0	0	594	755	0	366	0	0	
2	0	0	0	0	580	727	0	377	0	0	
3	0	0	0	0	565	680	0	398	0	0	
4	0	0	0	0	548	622	0	425	0	0	
5	0	0	0	0	531	555	0	457	0	0	
6	0	0	0	0	518	487	0	490	0	0	
7	0	0	0	0	508	424	0	521	0	0	
8	0	0	0	0	503	374	0	547	0	0	
9	0	0	0	0	504	340	0	566	0	0	
10	0	0	0	0	508	326	0	574	0	0	
11	0	0	0	0	518	333	0	572	0	0	
12	0	0	0	0	531	361	0	559	0	0	
13	0	0	0	0	546	406	0	539	0	0	
14	0	0	0	0	563	464	0	511	0	0	
15	0	0	0	0	579	529	0	479	0	0	
0	0	0	0	0	592	596	0	446	0	0	
1	0	0	0	0	601	659	0	414	0	0	
2	0	0	0	0	606	709	0	388	0	0	
3	0	0	0	0	606	743	0	371	0	0	
4	0	0	0	0	601	757	0	363	0	0	
5	0	0	0	0	592	750	0	366	0	0	
6	0	0	0	0	579	722	0	378	0	0	
7	0	0	0	0	564	678	0	400	0	0	
8	0	0	0	0	549	620	0	429	0	0	
9	0	0	0	0	534	554	0	462	0	0	
10	0	0	0	0	521	487	0	496	0	0	
11	0	0	0	0	512	425	0	526	0	0	
12	0	0	0	0	508	375	0	553	0	0	
13	0	0	0	0	508	341	0	572	0	0	
14	0	0	0	0	514	327	0	580	0	0	
15	0	0	0	0	523	334	0	578	0	0	
0	0	0	0	0	536	361	0	566	0	0	
1	0	0	0	0	551	407	0	544	0	0	
2	0	0	0	0	568	464	0	516	0	0	
3	0	0	0	0	583	529	0	484	0	0	
4	0	0	0	0	595	596	0	451	0	0	
5	0	0	0	0	604	658	0	419	0	0	
6	0	0	0	0	608	707	0	393	0	0	
7	0	0	0	0	607	741	0	375	0	0	
8	0	0	0	0	601	755	0	366	0	0	
9	0	0	0	0	591	748	0	367	0	0	
10	0	0	0	0	577	721	0	379	0	0	
11	0	0	0	0	562	675	0	400	0	0	
12	0	0	0	0	547	617	0	429	0	0	
13	0	0	0	0	531	552	0	461	0	0	
14	0	0	0	0	519	485	0	495	0	0	
15	0	0	0	0	510	423	0	527	0	0	
0	0	0	0	0	506	373	0	553	0	0	
1	0	0	0	0	508	339	0	572	0	0	
2	0	0	0	0	514	325	0	581	0	0	
3	0	0	0	0	524	332	0	580	0	0	
4	0	0	0	0	537	359	0	568	0	0	
5	0	0	0	0	552	403	0	546	0	0	
6	0	0	0	0	569	461	0	518	0	0	
7	0	0	0	0	583	526	0	485	0	0	
8	0	0	0	0	595	592	0	451	0	0	
9	0	0	0	0	604	654	0	420	0	0	
10	0	0	0	0	606	704	0	392	0	0	
11	0	0	0	0	606	737	0	374	0	0	
12	0	0	0	0	599	750	0	364	0	0	
13	0	0	0	0	589	743	0	367	0	0	
14	0	0	0	0	576	716	0	379	0	0	
15	0	0	0	0	561	670	0	400	0	0	
0	0	0	0	0	545	612	0	429	0	0	
1	0	0	0	0	530	546	0	462	0	0	
2	0	0	0	0	519	479	0	496	0	0	
3	0	0	0	0	510	417	0	528	0	0	
4	0	0	0	0	505	365	0	554	0	0	
5	0	0	0	0	508	331	0	573	0	0	
6	0	0	0	0	513	316	0	581	0	0	
7	0	0	0	0	523	322	0	579	0	0	
8	0	0	0	0	536	348	0	566	0	0	
9	0	0	0	0	550	392	0	544	0	0	
10	0	0	0	0	566	449	0	516	0	0	
11	0	0	0	0	579	513	0	483	0	0	
12	0	0	0	0	590	579	0	448	0	0	
13	0	0	0	0	597	640	0	415	0	0	
14	0	0	0	0	599	690	0	388	0	0	
15	0	0	0	0	597	723	0	368	0	0	
0	0	0	0	0	589	737	0	358	0	0	
1	0	0	0	0	578	730	0	358	0	0	
2	0	0	0	0	564	703	0	369	0	0	
3	0	0	0	0	548	658	0	389	0	0	
4	0	0	0	0	532	600	0	416	0	0	
5	0	0	0	0	517	534	0	448	0	0	
6	0	0	0	0	504	467	0	482	0	0	
7	0	0	0	0	495	404	0	513	0	0	
8	0	0	0	0	491	353	0	540	0	0	
9	0	0	0	0	491	318	0	559	0	0	
10	0	0	0	0	496	302	0	568	0	0	
11	0	0	0	0	505	308	0	566	0	0	
12	0	0	0	0	518	333	0	555	0	0	
13	0	0	0	0	532	376	0	534	0	0	
14	0	0	0	0	547	432	0	506	0	0	
15	0	0	0	0	562	496	0	473	0	0	
0	0	0	0	0	573	563	0	440	0	0	
1	0	0	0	0	582	624	0	408	0	0	
2	0	0	0	0	585	675	0	380	0	0	
3	0	0	0	0	584	709	0	360	0	0	
4	0	0	0	0	578	724	0	351	0	0	
5	0	0	0	0	568	718	0	352	0	0	
6	0	0	0	0	556	692	0	363	0	0	
7	0	0	0	0	541	648	0	383	0	0	
8	0	0	0	0	526	591	0	411	0	0	
9	0	0	0	0	511	526	0	443	0	0	
10	0	0	0	0	500	460	0	476	0	0	
11	0	0	0	0	492	398	0	509	0	0	
12	0	0	0	0	487	348	0	535	0	0	
13	0	0	0	0	489	313	0	555	0	0	
14	0	0	0	0	496	298	0	565	0	0	
15	0	0	0	0	506	304	0	565	0	0	
0	0	0	0	0	520	331	0	554	0	0	
1	0	0	0	0	536	374	0	535	0	0	
2	0	0	0	0	553	432	0	508	0	0	
3	0	0	0	0	568	496	0	477	0	0	
4	0	0	0	0	581	563	0	444	0	0	
5	0	0	0	0	590	626	0	413	0	0	
6	0	0	0	0	593	677	0	386	0	0	
7	0	0	0	0	592	712	0	367	0	0	
8	0	0	0	0	586	727	0	358	0	0	
9	0	0	0	0	575	721	0	358	0	0	
10	0	0	0	0	561	695	0	370	0	0	
11	0	0	0	0	546	652	0	391	0	0	
12	0	0	0	0	531	594	0	419	0	0	
13	0	0	0	0	516	529	0	451	0	0	
14	0	0	0	0	503	463	0	484	0	0	
15	0	0	0	0	495	401	0	516	0	0	
0	0	0	0	0	491	350	0	543	0	0	
1	0	0	0	0	493	315	0	562	0	0	
2	0	0	0	0	499	299	0	572	0	0	
3	0	0	0	0	510	304	0	570	0	0	
4	0	0	0	0	523	331	0	560	0	0	
5	0	0	0	0	538	374	0	539	0	0	
6	0	0	0	0	555	431	0	512	0	0	
7	0	0	0	0	570	495	0	479	0	0	
8	0	0	0	0	582	562	0	445	0	0	
9	0	0	0	0	590	624	0	413	0	0	
10	0	0	0	0	592	675	0	385	0	0	
11	0	0	0	0	591	709	0	365	0	0	
12	0	0	0	0	584	724	0	355	0	0	
13	0	0	0	0	574	718	0	356	0	0	
14	0	0	0	0	560	692	0	367	0	0	
15	0	0	0	0	543	647	0	387	0	0	
0	0	0	0	0	528	590	0	415	0	0	
1	0	0	0	0	512	525	0	447	0	0	
2	0	0	0	0	500	459	0	481	0	0	
3	0	0	0	0	491	397	0	514	0	0	
4	0	0	0	0	487	345	0	540	0	0	
5	0	0	0	0	488	310	0	560	0	0	
6	0	0	0	0	495	295	0	570	0	0	
7	0	0	0	0	505	300	0	569	0	0	
8	0	0	0	0	518	325	0	558	0	0	
9	0	0	0	0	534	368	0	538	0	0	
10	0	0	0	0	551	425	0	512	0	0	
11	0	0	0	0	566	489	0	480	0	0	
12	0	0	0	0	579	556	0	447	0	0	
13	0	0	0	0	588	618	0	415	0	0	
14	0	0	0	0	593	670	0	388	0	0	
15	0	0	0	0	593	706	0	368	0	0	
0	0	0	0	0	587	722	0	359	0	0	
1	0	0	0	0	578	717	0	359	0	0	
2	0	0	0	0	564	692	0	371	0	0	
3	0	0	0	0	550	649	0	391	0	0	
4	0	0	0	0	536	593	0	419	0	0	
5	0	0	0	0	521	528	0	451	0	0	
6	0	0	0	0	509	463	0	486	0	0	
7	0	0	0	0	501	401	0	518	0	0	
8	0	0	0	0	497	349	0	545	0	0	
9	0	0	0	0	497	314	0	564	0	0	
10	0	0	0	0	502	297	0	574	0	0	
11	0	0	0	0	511	300	0	571	0	0	
12	0	0	0	0	521	323	0	558	0	0	
13	0	0	0	0	532	362	0	534	0	0	
14	0	0	0	0	544	414	0	502	0	0	
15	0	0	0	0	553	473	0	464	0	0	
0	0	0	0	0	559	533	0	424	0	0	
1	0	0	0	0	559	588	0	384	0	0	
2	0	0	0	0	555	630	0	348	0	0	
3	0	0	0	0	545	657	0	319	0	0	
4	0	0	0	0	529	662	0	299	0	0	
5	0	0	0	0	510	647	0	289	0	0	
6	0	0	0	0	486	610	0	289	0	0	
7	0	0	0	0	461	556	0	298	0	0	
8	0	0	0	0	435	488	0	315	0	0	
9	0	0	0	0	409	412	0	336	0	0	
10	0	0	0	0	385	335	0	359	0	0	
11	0	0	0	0	365	262	0	381	0	0	
12	0	0	0	0	348	199	0	397	0	0	
13	0	0	0	0	337	152	0	406	0	0	
14	0	0	0	0	330	123	0	404	0	0	
15	0	0	0	0	327	113	0	392	0	0	
0	0	0	0	0	327	123	0	370	0	0	
1	0	0	0	0	331	152	0	339	0	0	
2	0	0	0	0	336	196	0	300	0	0	
3	0	0	0	0	343	251	0	259	0	0	
4	0	0	0	0	348	310	0	217	0	0	
5	0	0	0	0	352	369	0	178	0	0	
6	0	0	0	0	354	419	0	146	0	0	
7	0	0	0	0	354	457	0	124	0	0	
8	0	0	0	0	353	479	0	115	0	0	
9	0	0	0	0	351	483	0	120	0	0	
10	0	0	0	0	350	468	0	140	0	0	
11	0	0	0	0	348	440	0	173	0	0	
12	0	0	0	0	351	400	0	218	0	0	
13	0	0	0	0	356	354	0	272	0	0	
14	0	0	0	0	366	308	0	331	0	0	
15	0	0	0	0	381	268	0	391	0	0	
0	0	0	0	0	401	240	0	447	0	0	
1	0	0	0	0	427	227	0	496	0	0	
2	0	0	0	0	456	232	0	534	0	0	
3	0	0	0	0	489	258	0	559	0	0	
4	0	0	0	0	523	302	0	570	0	0	
5	0	0	0	0	556	361	0	567	0	0	
6	0	0	0	0	587	432	0	552	0	0	
7	0	0	0	0	612	507	0	528	0	0	
8	0	0	0	0	632	582	0	498	0	0	
9	0	0	0	0	644	649	0	466	0	0	
10	0	0	0	0	647	704	0	435	0	0	
11	0	0	0	0	644	740	0	410	0	0	
12	0	0	0	0	633	755	0	392	0	0	
13	0	0	0	0	615	746	0	384	0	0	
14	0	0	0	0	593	716	0	387	0	0	
15	0	0	0	0	568	667	0	398	0	0	
0	0	0	0	0	543	604	0	419	0	0	
1	0	0	0	0	519	532	0	446	0	0	
2	0	0	0	0	500	460	0	475	0	0	
3	0	0	0	0	485	392	0	505	0	0	
4	0	0	0	0	478	336	0	531	0	0	
5	0	0	0	0	478	297	0	551	0	0	
6	0	0	0	0	484	280	0	564	0	0	
7	0	0	0	0	496	285	0	567	0	0	
8	0	0	0	0	513	310	0	560	0	0	
9	0	0	0	0	532	355	0	543	0	0	
10	0	0	0	0	553	414	0	521	0	0	
11	0	0	0	0	573	481	0	492	0	0	
12	0	0	0	0	590	551	0	462	0	0	
13	0	0	0	0	603	617	0	433	0	0	
14	0	0	0	0	610	672	0	408	0	0	
15	0	0	0	0	612	710	0	389	0	0	
0	0	0	0	0	608	728	0	379	0	0	
1	0	0	0	0	599	724	0	379	0	0	
2	0	0	0	0	585	700	0	389	0	0	
3	0	0	0	0	569	656	0	407	0	0	
4	0	0	0	0	551	600	0	433	0	0	
5	0	0	0	0	535	534	0	463	0	0	
6	0	0	0	0	520	467	0	496	0	0	
7	0	0	0	0	509	404	0	527	0	0	
8	0	0	0	0	504	351	0	554	0	0	
9	0	0	0	0	503	315	0	574	0	0	
10	0	0	0	0	508	298	0	584	0	0	
11	0	0	0	0	517	303	0	584	0	0	
12	0	0	0	0	530	327	0	575	0	0	
13	0	0	0	0	545	370	0	556	0	0	
14	0	0	0	0	561	427	0	529	0	0	
15	0	0	0	0	577	491	0	498	0	0	
0	0	0	0	0	590	558	0	465	0	0	
1	0	0	0	0	600	620	0	433	0	0	
2	0	0	0	0	605	671	0	406	0	0	
3	0	0	0	0	605	707	0	385	0	0	
4	0	0	0	0	600	723	0	375	0	0	
5	0	0	0	0	591	718	0	374	0	0	
6	0	0	0	0	578	693	0	384	0	0	
7	0	0	0	0	563	649	0	402	0	0	
8	0	0	0	0	547	592	0	428	0	0	
9	0	0	0	0	531	527	0	459	0	0	
10	0	0	0	0	518	460	0	492	0	0	
11	0	0	0	0	507	397	0	523	0	0	
12	0	0	0	0	503	345	0	549	0	0	
13	0	0	0	0	503	310	0	569	0	0	
14	0	0	0	0	507	294	0	579	0	0	
15	0	0	0	0	516	298	0	579	0	0	
0	0	0	0	0	529	323	0	569	0	0	
1	0	0	0	0	543	365	0	550	0	0	
2	0	0	0	0	560	422	0	524	0	0	
3	0	0	0	0	575	486	0	492	0	0	
4	0	0	0	0	588	552	0	459	0	0	
5	0	0	0	0	597	614	0	427	0	0	
6	0	0	0	0	600	665	0	399	0	0	
7	0	0	0	0	600	700	0	379	0	0	
8	0	0	0	0	595	715	0	368	0	0	
9	0	0	0	0	585	709	0	367	0	0	
10	0	0	0	0	571	683	0	377	0	0	
11	0	0	0	0	556	639	0	396	0	0	
12	0	0	0	0	541	582	0	423	0	0	
13	0	0	0	0	526	517	0	455	0	0	
14	0	0	0	0	513	451	0	488	0	0	
15	0	0	0	0	504	388	0	520	0	0	
0	0	0	0	0	500	337	0	548	0	0	
1	0	0	0	0	502	303	0	569	0	0	
2	0	0	0	0	508	288	0	580	0	0	
3	0	0	0	0	519	294	0	581	0	0	
4	0	0	0	0	532	320	0	573	0	0	
5	0	0	0	0	547	364	0	555	0	0	
6	0	0	0	0	564	422	0	529	0	0	
7	0	0	0	0	580	488	0	499	0	0	
8	0	0	0	0	592	556	0	466	0	0	
9	0	0	0	0	600	618	0	434	0	0	
10	0	0	0	0	604	671	0	407	0	0	
11	0	0	0	0	604	706	0	386	0	0	
12	0	0	0	0	598	721	0	374	0	0	
13	0	0	0	0	587	716	0	373	0	0	
14	0	0	0	0	574	689	0	382	0	0	
15	0	0	0	0	558	645	0	400	0	0	
0	0	0	0	0	542	588	0	426	0	0	
1	0	0	0	0	526	521	0	457	0	0	
2	0	0	0	0	513	454	0	489	0	0	
3	0	0	0	0	504	390	0	520	0	0	
4	0	0	0	0	499	338	0	547	0	0	
5	0	0	0	0	501	301	0	567	0	0	
6	0	0	0	0	507	284	0	578	0	0	
7	0	0	0	0	516	289	0	579	0	0	
8	0	0	0	0	530	313	0	569	0	0	
9	0	0	0	0	545	356	0	550	0	0	
10	0	0	0	0	561	413	0	524	0	0	
11	0	0	0	0	576	478	0	493	0	0	
12	0	0	0	0	589	545	0	459	0	0	
13	0	0	0	0	597	608	0	427	0	0	
14	0	0	0	0	601	661	0	398	0	0	
15	0	0	0	0	600	698	0	377	0	0	
0	0	0	0	0	593	714	0	365	0	0	
1	0	0	0	0	583	710	0	364	0	0	
2	0	0	0	0	568	684	0	372	0	0	
3	0	0	0	0	553	641	0	391	0	0	
4	0	0	0	0	537	584	0	417	0	0	
5	0	0	0	0	521	519	0	448	0	0	
6	0	0	0	0	508	451	0	481	0	0	
7	0	0	0	0	498	388	0	514	0	0	
8	0	0	0	0	495	336	0	542	0	0	
9	0	0	0	0	495	299	0	562	0	0	
10	0	0	0	0	501	283	0	573	0	0	
11	0	0	0	0	511	286	0	574	0	0	
12	0	0	0	0	524	310	0	564	0	0	
13	0	0	0	0	540	352	0	545	0	0	
14	0	0	0	0	556	409	0	519	0	0	
15	0	0	0	0	571	473	0	487	0	0	
0	0	0	0	0	583	540	0	455	0	0	
1	0	0	0	0	591	603	0	423	0	0	
2	0	0	0	0	596	655	0	395	0	0	
3	0	0	0	0	595	691	0	374	0	0	
4	0	0	0	0	589	707	0	363	0	0	
5	0	0	0	0	579	703	0	362	0	0	
6	0	0	0	0	564	676	0	371	0	0	
7	0	0	0	0	549	632	0	390	0	0	
8	0	0	0	0	532	575	0	416	0	0	
9	0	0	0	0	515	509	0	447	0	0	
10	0	0	0	0	502	441	0	480	0	0	
11	0	0	0	0	491	377	0	511	0	0	
12	0	0	0	0	487	323	0	538	0	0	
13	0	0	0	0	486	286	0	558	0	0	
14	0	0	0	0	492	269	0	569	0	0	
15	0	0	0	0	502	273	0	569	0	0	
0	0	0	0	0	515	297	0	560	0	0	
1	0	0	0	0	532	340	0	542	0	0	
2	0	0	0	0	550	398	0	516	0	0	
3	0	0	0	0	567	463	0	486	0	0	
4	0	0	0	0	582	532	0	454	0	0	
5	0	0	0	0	591	597	0	423	0	0	
6	0	0	0	0	599	652	0	396	0	0	
7	0	0	0	0	599	691	0	377	0	0	
8	0	0	0	0	595	710	0	367	0	0	
9	0	0	0	0	586	708	0	368	0	0	
10	0	0	0	0	573	684	0	378	0	0	
11	0	0	0	0	558	643	0	397	0	0	
12	0	0	0	0	542	587	0	424	0	0	
13	0	0	0	0	526	523	0	455	0	0	
14	0	0	0	0	512	455	0	488	0	0	
15	0	0	0	0	501	391	0	519	0	0	
0	0	0	0	0	497	339	0	547	0	0	
1	0	0	0	0	496	300	0	566	0	0	
2	0	0	0	0	502	282	0	576	0	0	
3	0	0	0	0	511	284	0	576	0	0	
4	0	0	0	0	524	307	0	566	0	0	
5	0	0	0	0	539	347	0	546	0	0	
6	0	0	0	0	555	401	0	519	0	0	
7	0	0	0	0	569	464	0	488	0	0	
8	0	0	0	0	582	530	0	454	0	0	
9	0	0	0	0	590	592	0	422	0	0	
10	0	0	0	0	594	644	0	393	0	0	
11	0	0	0	0	593	681	0	372	0	0	
12	0	0	0	0	588	699	0	360	0	0	
13	0	0	0	0	577	696	0	359	0	0	
14	0	0	0	0	564	672	0	368	0	0	
15	0	0	0	0	550	630	0	387	0	0	
0	0	0	0	0	534	575	0	414	0	0	
1	0	0	0	0	518	511	0	445	0	0	
2	0	0	0	0	505	445	0	479	0	0	
3	0	0	0	0	496	383	0	511	0	0	
4	0	0	0	0	492	331	0	539	0	0	
5	0	0	0	0	492	294	0	559	0	0	
6	0	0	0	0	497	276	0	571	0	0	
7	0	0	0	0	507	280	0	572	0	0	
8	0	0	0	0	520	303	0	562	0	0	
9	0	0	0	0	535	345	0	544	0	0	
10	0	0	0	0	552	401	0	518	0	0	
11	0	0	0	0	567	466	0	487	0	0	
12	0	0	0	0	580	533	0	454	0	0	
13	0	0	0	0	590	596	0	422	0	0	
14	0	0	0	0	595	650	0	394	0	0	
15	0	0	0	0	596	688	0	374	0	0	
0	0	0	0	0	591	705	0	363	0	0	
1	0	0	0	0	583	703	0	363	0	0	
2	0	0	0	0	571	679	0	372	0	0	
3	0	0	0	0	557	638	0	391	0	0	
4	0	0	0	0	542	582	0	417	0	0	
5	0	0	0	0	526	518	0	449	0	0	
6	0	0	0	0	513	451	0	482	0	0	
7	0	0	0	0	504	388	0	514	0	0	
8	0	0	0	0	498	335	0	541	0	0	
9	0	0	0	0	498	297	0	561	0	0	
10	0	0	0	0	502	279	0	571	0	0	
11	0	0	0	0	510	281	0	571	0	0	
12	0	0	0	0	522	303	0	561	0	0	
13	0	0	0	0	536	344	0	541	0	0	
14	0	0	0	0	551	399	0	515	0	0	
15	0	0	0	0	566	462	0	483	0	0	
0	0	0	0	0	578	528	0	449	0	0	
1	0	0	0	0	587	591	0	417	0	0	
2	0	0	0	0	591	643	0	389	0	0	
3	0	0	0	0	591	682	0	369	0	0	
4	0	0	0	0	586	700	0	358	0	0	
5	0	0	0	0	577	697	0	356	0	0	
6	0	0	0	0	564	675	0	367	0	0	
7	0	0	0	0	549	633	0	385	0	0	
8	0	0	0	0	534	578	0	412	0	0	
9	0	0	0	0	519	515	0	443	0	0	
10	0	0	0	0	507	448	0	476	0	0	
11	0	0	0	0	498	385	0	508	0	0	
12	0	0	0	0	493	332	0	536	0	0	
13	0	0	0	0	494	295	0	556	0	0	
14	0	0	0	0	499	277	0	568	0	0	
15	0	0	0	0	509	279	0	568	0	0	
0	0	0	0	0	521	301	0	559	0	0	
1	0	0	0	0	536	342	0	540	0	0	
2	0	0	0	0	552	396	0	514	0	0	
3	0	0	0	0	568	460	0	483	0	0	
4	0	0	0	0	580	526	0	450	0	0	
5	0	0	0	0	589	589	0	417	0	0	
6	0	0	0	0	593	642	0	390	0	0	
7	0	0	0	0	593	679	0	369	0	0	
8	0	0	0	0	588	698	0	357	0	0	
9	0	0	0	0	579	696	0	356	0	0	
10	0	0	0	0	566	673	0	365	0	0	
11	0	0	0	0	551	632	0	383	0	0	
12	0	0	0	0	536	577	0	409	0	0	
13	0	0	0	0	520	514	0	440	0	0	
14	0	0	0	0	508	448	0	473	0	0	
15	0	0	0	0	497	386	0	506	0	0	
0	0	0	0	0	493	334	0	534	0	0	
1	0	0	0	0	494	296	0	556	0	0	
2	0	0	0	0	499	278	0	568	0	0	
3	0	0	0	0	508	280	0	571	0	0	
4	0	0	0	0	521	302	0	562	0	0	
5	0	0	0	0	537	343	0	546	0	0	
6	0	0	0	0	554	398	0	521	0	0	
7	0	0	0	0	570	463	0	492	0	0	
8	0	0	0	0	584	529	0	460	0	0	
9	0	0	0	0	593	593	0	429	0	0	
10	0	0	0	0	599	647	0	402	0	0	
11	0	0	0	0	600	686	0	382	0	0	
12	0	0	0	0	596	705	0	371	0	0	
13	0	0	0	0	587	704	0	371	0	0	
14	0	0	0	0	575	681	0	380	0	0	
15	0	0	0	0	560	641	0	399	0	0	
0	0	0	0	0	546	586	0	425	0	0	
1	0	0	0	0	531	522	0	455	0	0	
2	0	0	0	0	518	455	0	488	0	0	
3	0	0	0	0	508	392	0	520	0	0	
4	0	0	0	0	503	339	0	547	0	0	
5	0	0	0	0	504	302	0	567	0	0	
6	0	0	0	0	508	283	0	577	0	0	
7	0	0	0	0	517	285	0	577	0	0	
8	0	0	0	0	529	307	0	568	0	0	
9	0	0	0	0	543	346	0	548	0	0	
10	0	0	0	0	558	401	0	521	0	0	
11	0	0	0	0	572	464	0	490	0	0	
12	0	0	0	0	584	530	0	457	0	0	
13	0	0	0	0	592	592	0	424	0	0	
14	0	0	0	0	595	646	0	396	0	0	
15	0	0	0	0	595	684	0	375	0	0	
0	0	0	0	0	590	703	0	364	0	0	
1	0	0	0	0	581	701	0	363	0	0	
2	0	0	0	0	568	679	0	371	0	0	
3	0	0	0	0	553	638	0	389	0	0	
4	0	0	0	0	539	583	0	415	0	0	
5	0	0	0	0	523	520	0	446	0	0	
6	0	0	0	0	511	454	0	478	0	0	
7	0	0	0	0	502	391	0	510	0	0	
8	0	0	0	0	498	338	0	536	0	0	
9	0	0	0	0	499	300	0	557	0	0	
10	0	0	0	0	504	280	0	568	0	0	
11	0	0	0	0	513	281	0	568	0	0	
12	0	0	0	0	526	302	0	559	0	0	
13	0	0	0	0	540	342	0	540	0	0	
14	0	0	0	0	556	395	0	515	0	0	
15	0	0	0	0	571	458	0	484	0	0	
0	0	0	0	0	583	524	0	451	0	0	
1	0	0	0	0	592	586	0	419	0	0	
2	0	0	0	0	596	639	0	391	0	0	
3	0	0	0	0	596	679	0	370	0	0	
4	0	0	0	0	591	697	0	358	0	0	
5	0	0	0	0	581	697	0	356	0	0	
6	0	0	0	0	568	675	0	365	0	0	
7	0	0	0	0	552	636	0	382	0	0	
8	0	0	0	0	536	582	0	408	0	0	
9	0	0	0	0	521	519	0	440	0	0	
10	0	0	0	0	509	455	0	473	0	0	
11	0	0	0	0	500	392	0	505	0	0	
12	0	0	0	0	495	340	0	534	0	0	
13	0	0	0	0	497	303	0	556	0	0	
14	0	0	0	0	503	284	0	568	0	0	
15	0	0	0	0	513	285	0	570	0	0	
0	0	0	0	0	526	306	0	562	0	0	
1	0	0	0	0	541	345	0	544	0	0	
2	0	0	0	0	558	398	0	519	0	0	
3	0	0	0	0	573	460	0	488	0	0	
4	0	0	0	0	585	525	0	455	0	0	
5	0	0	0	0	593	587	0	422	0	0	
6	0	0	0	0	597	639	0	393	0	0	
7	0	0	0	0	595	677	0	371	0	0	
8	0	0	0	0	588	695	0	357	0	0	
9	0	0	0	0	577	693	0	354	0	0	
10	0	0	0	0	564	671	0	361	0	0	
11	0	0	0	0	547	631	0	379	0	0	
12	0	0	0	0	531	576	0	403	0	0	
13	0	0	0	0	515	513	0	434	0	0	
14	0	0	0	0	502	447	0	467	0	0	
15	0	0	0	0	492	384	0	499	0	0	
0	0	0	0	0	486	331	0	528	0	0	
1	0	0	0	0	487	292	0	550	0	0	
2	0	0	0	0	492	273	0	562	0	0	
3	0	0	0	0	502	275	0	565	0	0	
4	0	0	0	0	515	295	0	557	0	0	
5	0	0	0	0	531	335	0	539	0	0	
6	0	0	0	0	548	390	0	514	0	0	
7	0	0	0	0	565	453	0	483	0	0	
8	0	0	0	0	579	519	0	451	0	0	
9	0	0	0	0	588	583	0	418	0	0	
10	0	0	0	0	592	637	0	389	0	0	
11	0	0	0	0	593	676	0	367	0	0	
12	0	0	0	0	588	696	0	355	0	0	
13	0	0	0	0	577	695	0	352	0	0	
14	0	0	0	0	564	673	0	360	0	0	
15	0	0	0	0	548	633	0	377	0	0	
0	0	0	0	0	532	579	0	403	0	0	
1	0	0	0	0	516	516	0	434	0	0	
2	0	0	0	0	503	450	0	467	0	0	
3	0	0	0	0	493	387	0	500	0	0	
4	0	0	0	0	487	333	0	528	0	0	
5	0	0	0	0	487	295	0	550	0	0	
6	0	0	0	0	492	275	0	561	0	0	
7	0	0	0	0	502	275	0	563	0	0	
8	0	0	0	0	515	295	0	555	0	0	
9	0	0	0	0	529	334	0	536	0	0	
10	0	0	0	0	546	387	0	510	0	0	
11	0	0	0	0	561	449	0	479	0	0	
12	0	0	0	0	573	514	0	445	0	0	
13	0	0	0	0	583	577	0	412	0	0	
14	0	0	0	0	587	631	0	383	0	0	
15	0	0	0	0	588	670	0	361	0	0	
0	0	0	0	0	582	689	0	349	0	0	
1	0	0	0	0	573	688	0	347	0	0	
2	0	0	0	0	560	667	0	355	0	0	
3	0	0	0	0	544	628	0	373	0	0	
4	0	0	0	0	529	575	0	399	0	0	
5	0	0	0	0	513	512	0	430	0	0	
6	0	0	0	0	500	447	0	463	0	0	
7	0	0	0	0	490	384	0	496	0	0	
8	0	0	0	0	484	331	0	525	0	0	
9	0	0	0	0	484	291	0	547	0	0	
10	0	0	0	0	489	271	0	559	0	0	
11	0	0	0	0	498	271	0	562	0	0	
12	0	0	0	0	510	291	0	554	0	0	
13	0	0	0	0	524	328	0	536	0	0	
14	0	0	0	0	540	381	0	512	0	0	
15	0	0	0	0	556	444	0	481	0	0	
0	0	0	0	0	569	509	0	448	0	0	
1	0	0	0	0	578	572	0	416	0	0	
2	0	0	0	0	583	626	0	388	0	0	
3	0	0	0	0	585	666	0	367	0	0	
4	0	0	0	0	580	686	0	354	0	0	
5	0	0	0	0	572	687	0	352	0	0	
6	0	0	0	0	560	666	0	360	0	0	
7	0	0	0	0	545	628	0	378	0	0	
8	0	0	0	0	530	575	0	403	0	0	
9	0	0	0	0	515	513	0	434	0	0	
10	0	0	0	0	502	448	0	467	0	0	
11	0	0	0	0	493	385	0	500	0	0	
12	0	0	0	0	487	332	0	528	0	0	
13	0	0	0	0	488	293	0	550	0	0	
14	0	0	0	0	493	272	0	562	0	0	
15	0	0	0	0	503	272	0	564	0	0	
0	0	0	0	0	514	291	0	556	0	0	
1	0	0	0	0	528	329	0	537	0	0	
2	0	0	0	0	544	381	0	511	0	0	
3	0	0	0	0	558	443	0	480	0	0	
4	0	0	0	0	569	508	0	446	0	0	
5	0	0	0	0	578	571	0	413	0	0	
6	0	0	0	0	581	624	0	383	0	0	
7	0	0	0	0	580	663	0	361	0	0	
8	0	0	0	0	575	683	0	348	0	0	
9	0	0	0	0	565	683	0	345	0	0	
10	0	0	0	0	552	662	0	353	0	0	
11	0	0	0	0	537	624	0	371	0	0	
12	0	0	0	0	523	571	0	396	0	0	
13	0	0	0	0	509	510	0	428	0	0	
14	0	0	0	0	497	444	0	461	0	0	
15	0	0	0	0	488	382	0	494	0	0	
0	0	0	0	0	484	329	0	523	0	0	
1	0	0	0	0	485	291	0	545	0	0	
2	0	0	0	0	491	271	0	559	0	0	
3	0	0	0	0	501	270	1	560	0	0	
4	0	0	0	0	513	289	0	554	0	0	
5	0	0	0	0	528	327	0	536	0	0	
6	0	0	0	0	544	380	0	511	0	0	
7	0	0	0	0	559	441	0	480	0	0	
8	0	0	0	0	571	507	0	448	0	0	
9	0	0	0	0	580	570	0	415	0	0	
10	0	0	0	0	585	624	0	386	0	0	
11	0	0	0	0	585	664	0	365	0	0	
12	0	0	0	0	581	686	0	352	0	0	
13	0	0	0	0	572	687	0	350	0	0	
14	0	0	0	0	560	668	0	358	0	0	
15	0	0	0	0	544	630	0	375	0	0	
0	0	0	0	0	530	577	0	400	0	0	
1	0	0	0	0	514	515	0	431	0	0	
2	0	0	0	0	501	450	0	464	0	0	
3	0	0	0	0	491	387	0	496	0	0	
4	0	0	0	0	485	333	0	524	0	0	
5	0	0	0	0	485	293	0	544	0	0	
6	0	0	0	0	489	272	0	556	0	0	
7	0	0	0	0	497	270	0	558	0	0	
8	0	0	0	0	508	289	0	549	0	0	
9	0	0	0	0	522	326	0	532	0	0	
10	0	0	0	0	537	378	0	507	0	0	
11	0	0	0	0	553	440	0	478	0	0	
12	0	0	0	0	566	506	0	446	0	0	
13	0	0	0	0	576	569	0	415	0	0	
14	0	0	0	0	581	624	0	387	0	0	
15	0	0	0	0	582	664	0	367	0	0	
0	0	0	0	0	578	686	0	355	0	0	
1	0	0	0	0	569	688	0	353	0	0	
2	0	0	0	0	558	668	0	363	0	0	
3	0	0	0	0	543	631	0	380	0	0	
4	0	0	0	0	529	579	0	406	0	0	
5	0	0	0	0	515	517	0	437	0	0	
6	0	0	0	0	502	452	0	470	0	0	
7	0	0	0	0	492	388	0	502	0	0	
8	0	0	0	0	487	335	0	529	0	0	
9	0	0	0	0	487	295	0	551	0	0	
10	0	0	0	0	492	273	0	563	0	0	
11	0	0	0	0	500	272	0	565	0	0	
12	0	0	0	0	512	291	0	557	0	0	
13	0	0	0	0	527	327	0	540	0	0	
14	0	0	0	0	543	380	0	515	0	0	
15	0	0	0	0	559	442	0	485	0	0	
0	0	0	0	0	572	508	0	452	0	0	
1	0	0	0	0	582	572	0	420	0	0	
2	0	0	0	0	587	627	0	393	0	0	
3	0	0	0	0	588	668	0	371	0	0	
4	0	0	0	0	583	690	0	359	0	0	
5	0	0	0	0	575	691	0	357	0	0	
6	0	0	0	0	563	672	0	366	0	0	
7	0	0	0	0	547	635	0	383	0	0	
8	0	0	0	0	532	582	0	408	0	0	
9	0	0	0	0	517	520	0	439	0	0	
10	0	0	0	0	504	454	0	472	0	0	
11	0	0	0	0	493	391	0	504	0	0	
12	0	0	0	0	487	335	0	531	0	0	
13	0	0	0	0	486	295	0	552	0	0	
14	0	0	0	0	490	273	0	563	0	0	
15	0	0	0	0	498	271	0	565	0	0	
0	0	0	0	0	509	288	0	556	0	0	
1	0	0	0	0	523	326	0	538	0	0	
2	0	0	0	0	540	377	0	512	0	0	
3	0	0	0	0	555	440	0	482	0	0	
4	0	0	0	0	568	505	0	449	0	0	
5	0	0	0	0	579	569	0	417	0	0	
6	0	0	0	0	586	625	0	389	0	0	
7	0	0	0	0	588	666	0	368	0	0	
8	0	0	0	0	583	688	0	356	0	0	
9	0	0	0	0	577	691	0	355	0	0	
10	0	0	0	0	565	671	0	364	0	0	
11	0	0	0	0	552	635	0	383	0	0	
12	0	0	0	0	537	583	0	409	0	0	
13	0	0	0	0	522	521	0	440	0	0	
14	0	0	0	0	509	455	0	473	0	0	
15	0	0	0	0	498	392	0	506	0	0	
0	0	0	0	0	493	338	0	534	0	0	
1	0	0	0	0	492	298	0	556	0	0	
2	0	0	0	0	496	276	0	568	0	0	
3	0	0	0	0	504	275	0	571	0	0	
4	0	0	0	0	515	293	0	563	0	0	
5	0	0	0	0	530	330	0	544	0	0	
6	0	0	0	0	545	382	0	519	0	0	
7	0	0	0	0	560	444	0	487	0	0	
8	0	0	0	0	573	509	0	454	0	0	
9	0	0	0	0	581	572	0	420	0	0	
10	0	0	0	0	586	625	0	389	0	0	
11	0	0	0	0	585	665	0	366	0	0	
12	0	0	0	0	580	685	0	351	0	0	
13	0	0	0	0	569	685	0	346	0	0	
14	0	0	0	0	555	664	0	351	0	0	
15	0	0	0	0	539	624	0	366	0	0	
0	0	0	0	0	521	570	0	389	0	0	
1	0	0	0	0	504	506	0	418	0	0	
2	0	0	0	0	489	439	0	449	0	0	
3	0	0	0	0	477	374	0	480	0	0	
4	0	0	0	0	471	319	0	508	0	0	
5	0	0	0	0	469	278	0	528	0	0	
6	0	0	0	0	473	255	0	541	0	0	
7	0	0	0	0	481	252	0	543	0	0	
8	0	0	0	0	494	271	0	536	0	0	
9	0	0	0	0	509	307	0	519	0	0	
10	0	0	0	0	526	359	0	496	0	0	
11	0	0	0	0	542	422	0	466	0	0	
12	0	0	0	0	556	489	0	434	0	0	
13	0	0	0	0	567	553	0	403	0	0	
14	0	0	0	0	574	610	0	375	0	0	
15	0	0	0	0	575	653	0	355	0	0	
0	0	0	0	0	571	676	0	343	0	0	
1	0	0	0	0	563	679	0	341	0	0	
2	0	0	0	0	550	661	0	349	0	0	
3	0	0	0	0	536	625	0	366	0	0	
4	0	0	0	0	520	573	0	391	0	0	
5	0	0	0	0	505	512	0	423	0	0	
6	0	0	0	0	492	446	0	456	0	0	
7	0	0	0	0	482	383	0	489	0	0	
8	0	0	0	0	477	328	0	518	0	0	
9	0	0	0	0	476	288	0	540	0	0	
10	0	0	0	0	481	266	0	553	0	0	
11	0	0	0	0	491	265	0	557	0	0	
