# OpenSignals Text File Format. Version 1
# {"": {"position": 0, "device": "", "device name": "", "device connection": "", "sampling rate": 1000, "resolution": [4, 1, 1, 1, 1, 10, 10, 10, 10, 6, 6], "firmware version": 1281, "comments": "", "keywords": "", "mode": 0, "sync interval": 2, "date": "", "time": "", "channels": [1, 2, 3, 4, 5, 6], "sensor": ["RAW", "RAW", "RAW", "RAW", "RAW", "RAW"], "label": ["A1", "A2", "A3", "A4", "A5", "A6"], "column": ["nSeq", "I1", "I2", "O1", "O2", "A1", "A2", "A3", "A4", "A5", "A6"], "special": [{}, {}, {}, {}, {}, {}], "digital IO": [0, 0, 1, 1]}}
# EndOfHeader
0	0	0	0	0	433	432	0	0	0	0	
1	0	0	0	0	440	432	0	0	0	0	
2	0	0	0	0	440	429	0	0	0	0	
3	0	0	0	0	433	424	0	0	0	0	
4	0	0	0	0	422	418	0	0	0	0	
5	0	0	0	0	406	412	0	0	0	0	
6	0	0	0	0	388	406	0	0	0	0	
7	0	0	0	0	370	400	0	0	0	0	
8	0	0	0	0	353	397	0	0	0	0	
9	0	0	0	0	339	396	0	0	0	0	
10	0	0	0	0	329	396	0	0	0	0	
11	0	0	0	0	325	399	0	0	0	0	
12	0	0	0	0	325	403	0	0	0	0	
13	0	0	0	0	331	408	0	0	0	0	
14	0	0	0	0	341	415	0	0	0	0	
15	0	0	0	0	356	423	0	0	0	0	
0	0	0	0	0	373	431	0	0	0	0	
1	0	0	0	0	393	440	0	0	0	0	
2	0	0	0	0	411	446	0	0	0	0	
3	0	0	0	0	426	450	0	0	0	0	
4	0	0	0	0	437	451	0	0	0	0	
5	0	0	0	0	440	449	0	0	0	0	
6	0	0	0	0	438	444	0	0	0	0	
7	0	0	0	0	429	435	0	0	0	0	
8	0	0	0	0	416	427	0	0	0	0	
9	0	0	0	0	400	419	0	0	0	0	
10	0	0	0	0	383	411	0	0	0	0	
11	0	0	0	0	368	406	0	0	0	0	
12	0	0	0	0	354	403	0	0	0	0	
13	0	0	0	0	344	403	0	0	0	0	
14	0	0	0	0	339	405	0	0	0	0	
15	0	0	0	0	338	409	0	0	0	0	
0	0	0	0	0	341	413	0	0	0	0	
1	0	0	0	0	348	417	0	0	0	0	
2	0	0	0	0	358	421	0	0	0	0	
3	0	0	0	0	367	423	0	0	0	0	
4	0	0	0	0	377	423	0	0	0	0	
5	0	0	0	0	387	423	0	0	0	0	
6	0	0	0	0	396	422	0	0	0	0	
7	0	0	0	0	405	422	0	0	0	0	
8	0	0	0	0	413	422	0	0	0	0	
9	0	0	0	0	420	424	0	0	0	0	
10	0	0	0	0	427	428	0	0	0	0	
11	0	0	0	0	431	431	0	0	0	0	
12	0	0	0	0	432	434	0	0	0	0	
13	0	0	0	0	430	437	0	0	0	0	
14	0	0	0	0	423	437	0	0	0	0	
15	0	0	0	0	410	434	0	0	0	0	
0	0	0	0	0	393	427	0	0	0	0	
1	0	0	0	0	370	415	0	0	0	0	
2	0	0	0	0	345	399	0	0	0	0	
3	0	0	0	0	316	381	0	0	0	0	
4	0	0	0	0	288	360	0	0	0	0	
5	0	0	0	0	259	338	0	0	0	0	
6	0	0	0	0	234	315	0	0	0	0	
7	0	0	0	0	211	293	0	0	0	0	
8	0	0	0	0	192	272	0	0	0	0	
9	0	0	0	0	175	251	0	0	0	0	
10	0	0	0	0	163	231	0	0	0	0	
11	0	0	0	0	153	214	0	0	0	0	
12	0	0	0	0	145	198	0	0	0	0	
13	0	0	0	0	140	183	0	0	0	0	
14	0	0	0	0	135	170	0	0	0	0	
15	0	0	0	0	131	160	0	0	0	0	
0	0	0	0	0	129	154	0	0	0	0	
1	0	0	0	0	127	151	0	0	0	0	
2	0	0	0	0	128	152	0	0	0	0	
3	0	0	0	0	132	156	0	0	0	0	
4	0	0	0	0	138	166	0	0	0	0	
5	0	0	0	0	149	181	0	0	0	0	
6	0	0	0	0	164	199	0	0	0	0	
7	0	0	0	0	184	221	0	0	0	0	
8	0	0	0	0	207	245	0	0	0	0	
9	0	0	0	0	234	271	0	0	0	0	
10	0	0	0	0	264	296	0	0	0	0	
11	0	0	0	0	294	322	0	0	0	0	
12	0	0	0	0	325	345	0	0	0	0	
13	0	0	0	0	354	367	0	0	0	0	
14	0	0	0	0	380	385	0	0	0	0	
15	0	0	0	0	404	401	0	0	0	0	
0	0	0	0	0	422	414	0	0	0	0	
1	0	0	0	0	435	423	0	0	0	0	
2	0	0	0	0	443	428	0	0	0	0	
3	0	0	0	0	444	431	0	0	0	0	
4	0	0	0	0	440	431	0	0	0	0	
5	0	0	0	0	431	430	0	0	0	0	
6	0	0	0	0	419	427	0	0	0	0	
7	0	0	0	0	406	424	0	0	0	0	
8	0	0	0	0	392	422	0	0	0	0	
9	0	0	0	0	381	420	0	0	0	0	
10	0	0	0	0	374	421	0	0	0	0	
11	0	0	0	0	370	423	0	0	0	0	
12	0	0	0	0	371	427	0	0	0	0	
13	0	0	0	0	376	432	0	0	0	0	
14	0	0	0	0	385	438	0	0	0	0	
15	0	0	0	0	396	443	0	0	0	0	
0	0	0	0	0	410	449	0	0	0	0	
1	0	0	0	0	424	454	0	0	0	0	
2	0	0	0	0	438	458	0	0	0	0	
3	0	0	0	0	450	462	0	0	0	0	
4	0	0	0	0	460	465	0	0	0	0	
5	0	0	0	0	465	466	0	0	0	0	
6	0	0	0	0	466	466	0	0	0	0	
7	0	0	0	0	462	464	0	0	0	0	
8	0	0	0	0	454	461	0	0	0	0	
9	0	0	0	0	441	455	0	0	0	0	
10	0	0	0	0	425	449	0	0	0	0	
11	0	0	0	0	407	443	0	0	0	0	
12	0	0	0	0	388	436	0	0	0	0	
13	0	0	0	0	372	430	0	0	0	0	
14	0	0	0	0	360	427	0	0	0	0	
15	0	0	0	0	353	425	0	0	0	0	
0	0	0	0	0	351	427	0	0	0	0	
1	0	0	0	0	355	430	0	0	0	0	
2	0	0	0	0	365	436	0	0	0	0	
3	0	0	0	0	380	443	0	0	0	0	
4	0	0	0	0	398	451	0	0	0	0	
5	0	0	0	0	417	458	0	0	0	0	
6	0	0	0	0	435	463	0	0	0	0	
7	0	0	0	0	451	467	0	0	0	0	
8	0	0	0	0	463	468	0	0	0	0	
9	0	0	0	0	470	467	0	0	0	0	
10	0	0	0	0	470	463	0	0	0	0	
11	0	0	0	0	464	456	0	0	0	0	
12	0	0	0	0	454	449	0	0	0	0	
13	0	0	0	0	441	443	0	0	0	0	
14	0	0	0	0	425	436	0	0	0	0	
15	0	0	0	0	410	433	0	0	0	0	
0	0	0	0	0	396	431	0	0	0	0	
1	0	0	0	0	387	433	0	0	0	0	
2	0	0	0	0	380	437	0	0	0	0	
3	0	0	0	0	378	442	0	0	0	0	
4	0	0	0	0	380	448	0	0	0	0	
5	0	0	0	0	385	454	0	0	0	0	
6	0	0	0	0	393	459	0	0	0	0	
7	0	0	0	0	402	461	0	0	0	0	
8	0	0	0	0	410	460	0	0	0	0	
9	0	0	0	0	417	457	0	0	0	0	
10	0	0	0	0	422	451	0	0	0	0	
11	0	0	0	0	423	443	0	0	0	0	
12	0	0	0	0	422	434	0	0	0	0	
13	0	0	0	0	417	425	0	0	0	0	
14	0	0	0	0	412	417	0	0	0	0	
15	0	0	0	0	404	410	0	0	0	0	
0	0	0	0	0	396	404	0	0	0	0	
1	0	0	0	0	388	402	0	0	0	0	
2	0	0	0	0	381	401	0	0	0	0	
3	0	0	0	0	376	403	0	0	0	0	
4	0	0	0	0	371	407	0	0	0	0	
5	0	0	0	0	369	412	0	0	0	0	
6	0	0	0	0	369	417	0	0	0	0	
7	0	0	0	0	371	423	0	0	0	0	
8	0	0	0	0	375	428	0	0	0	0	
9	0	0	0	0	382	433	0	0	0	0	
10	0	0	0	0	388	437	0	0	0	0	
11	0	0	0	0	397	440	0	0	0	0	
12	0	0	0	0	405	442	0	0	0	0	
13	0	0	0	0	412	443	0	0	0	0	
14	0	0	0	0	419	442	0	0	0	0	
15	0	0	0	0	423	440	0	0	0	0	
0	0	0	0	0	425	438	0	0	0	0	
1	0	0	0	0	424	435	0	0	0	0	
2	0	0	0	0	422	432	0	0	0	0	
3	0	0	0	0	417	429	0	0	0	0	
4	0	0	0	0	411	426	0	0	0	0	
5	0	0	0	0	403	425	0	0	0	0	
6	0	0	0	0	396	424	0	0	0	0	
7	0	0	0	0	388	424	0	0	0	0	
8	0	0	0	0	381	425	0	0	0	0	
9	0	0	0	0	376	427	0	0	0	0	
10	0	0	0	0	372	430	0	0	0	0	
11	0	0	0	0	371	432	0	0	0	0	
12	0	0	0	0	372	435	0	0	0	0	
13	0	0	0	0	376	438	0	0	0	0	
14	0	0	0	0	380	440	0	0	0	0	
15	0	0	0	0	388	443	0	0	0	0	
0	0	0	0	0	396	445	0	0	0	0	
1	0	0	0	0	406	446	0	0	0	0	
2	0	0	0	0	415	448	0	0	0	0	
3	0	0	0	0	423	449	0	0	0	0	
4	0	0	0	0	430	449	0	0	0	0	
5	0	0	0	0	434	449	0	0	0	0	
6	0	0	0	0	435	447	0	0	0	0	
7	0	0	0	0	432	445	0	0	0	0	
8	0	0	0	0	428	442	0	0	0	0	
9	0	0	0	0	420	439	0	0	0	0	
10	0	0	0	0	411	436	0	0	0	0	
11	0	0	0	0	401	433	0	0	0	0	
12	0	0	0	0	392	432	0	0	0	0	
13	0	0	0	0	384	432	0	0	0	0	
14	0	0	0	0	380	435	0	0	0	0	
15	0	0	0	0	381	441	0	0	0	0	
0	0	0	0	0	388	450	0	0	0	0	
1	0	0	0	0	400	462	0	0	0	0	
2	0	0	0	0	417	476	0	0	0	0	
3	0	0	0	0	438	490	0	0	0	0	
4	0	0	0	0	459	503	0	0	0	0	
5	0	0	0	0	478	512	0	0	0	0	
6	0	0	0	0	493	518	0	0	0	0	
7	0	0	0	0	502	518	0	0	0	0	
8	0	0	0	0	503	513	0	0	0	0	
9	0	0	0	0	496	503	0	0	0	0	
10	0	0	0	0	481	488	0	0	0	0	
11	0	0	0	0	460	471	0	0	0	0	
12	0	0	0	0	434	452	0	0	0	0	
13	0	0	0	0	404	432	0	0	0	0	
14	0	0	0	0	373	412	0	0	0	0	
15	0	0	0	0	343	393	0	0	0	0	
0	0	0	0	0	316	377	0	0	0	0	
1	0	0	0	0	295	367	0	0	0	0	
2	0	0	0	0	282	361	0	0	0	0	
3	0	0	0	0	277	360	0	0	0	0	
4	0	0	0	0	280	364	0	0	0	0	
5	0	0	0	0	291	371	0	0	0	0	
6	0	0	0	0	309	382	0	0	0	0	
7	0	0	0	0	331	395	0	0	0	0	
8	0	0	0	0	356	408	0	0	0	0	
9	0	0	0	0	381	420	0	0	0	0	
10	0	0	0	0	404	430	0	0	0	0	
11	0	0	0	0	423	438	0	0	0	0	
12	0	0	0	0	438	444	0	0	0	0	
13	0	0	0	0	447	447	0	0	0	0	
14	0	0	0	0	450	447	0	0	0	0	
15	0	0	0	0	448	446	0	0	0	0	
0	0	0	0	0	441	443	0	0	0	0	
1	0	0	0	0	430	439	0	0	0	0	
2	0	0	0	0	417	435	0	0	0	0	
3	0	0	0	0	402	432	0	0	0	0	
4	0	0	0	0	388	430	0	0	0	0	
5	0	0	0	0	377	428	0	0	0	0	
6	0	0	0	0	371	430	0	0	0	0	
7	0	0	0	0	368	433	0	0	0	0	
8	0	0	0	0	370	438	0	0	0	0	
9	0	0	0	0	376	443	0	0	0	0	
10	0	0	0	0	384	448	0	0	0	0	
11	0	0	0	0	395	451	0	0	0	0	
12	0	0	0	0	406	454	0	0	0	0	
13	0	0	0	0	415	454	0	0	0	0	
14	0	0	0	0	423	452	0	0	0	0	
15	0	0	0	0	427	448	0	0	0	0	
0	0	0	0	0	427	442	0	0	0	0	
1	0	0	0	0	423	434	0	0	0	0	
2	0	0	0	0	416	426	0	0	0	0	
3	0	0	0	0	405	417	0	0	0	0	
4	0	0	0	0	391	408	0	0	0	0	
5	0	0	0	0	378	401	0	0	0	0	
6	0	0	0	0	364	395	0	0	0	0	
7	0	0	0	0	351	391	0	0	0	0	
8	0	0	0	0	342	389	0	0	0	0	
9	0	0	0	0	337	391	0	0	0	0	
10	0	0	0	0	339	397	0	0	0	0	
11	0	0	0	0	345	406	0	0	0	0	
12	0	0	0	0	356	417	0	0	0	0	
13	0	0	0	0	372	429	0	0	0	0	
14	0	0	0	0	391	442	0	0	0	0	
15	0	0	0	0	412	454	0	0	0	0	
0	0	0	0	0	432	464	0	0	0	0	
1	0	0	0	0	449	472	0	0	0	0	
2	0	0	0	0	464	478	0	0	0	0	
3	0	0	0	0	474	480	0	0	0	0	
4	0	0	0	0	479	478	0	0	0	0	
5	0	0	0	0	477	473	0	0	0	0	
6	0	0	0	0	469	465	0	0	0	0	
7	0	0	0	0	455	454	0	0	0	0	
8	0	0	0	0	435	442	0	0	0	0	
9	0	0	0	0	413	429	0	0	0	0	
10	0	0	0	0	390	417	0	0	0	0	
11	0	0	0	0	367	406	0	0	0	0	
12	0	0	0	0	347	398	0	0	0	0	
13	0	0	0	0	331	393	0	0	0	0	
14	0	0	0	0	323	392	0	0	0	0	
15	0	0	0	0	321	396	0	0	0	0	
0	0	0	0	0	326	402	0	0	0	0	
1	0	0	0	0	337	411	0	0	0	0	
2	0	0	0	0	355	422	0	0	0	0	
3	0	0	0	0	377	434	0	0	0	0	
4	0	0	0	0	400	446	0	0	0	0	
5	0	0	0	0	423	455	0	0	0	0	
6	0	0	0	0	443	462	0	0	0	0	
7	0	0	0	0	458	467	0	0	0	0	
8	0	0	0	0	469	469	0	0	0	0	
9	0	0	0	0	474	468	0	0	0	0	
10	0	0	0	0	473	465	0	0	0	0	
11	0	0	0	0	466	461	0	0	0	0	
12	0	0	0	0	454	455	0	0	0	0	
13	0	0	0	0	439	448	0	0	0	0	
14	0	0	0	0	420	441	0	0	0	0	
15	0	0	0	0	401	434	0	0	0	0	
0	0	0	0	0	382	429	0	0	0	0	
1	0	0	0	0	367	425	0	0	0	0	
2	0	0	0	0	354	423	0	0	0	0	
3	0	0	0	0	344	420	0	0	0	0	
4	0	0	0	0	337	418	0	0	0	0	
5	0	0	0	0	334	415	0	0	0	0	
6	0	0	0	0	332	410	0	0	0	0	
7	0	0	0	0	334	406	0	0	0	0	
8	0	0	0	0	336	400	0	0	0	0	
9	0	0	0	0	340	393	0	0	0	0	
10	0	0	0	0	346	387	0	0	0	0	
11	0	0	0	0	351	381	0	0	0	0	
12	0	0	0	0	357	376	0	0	0	0	
13	0	0	0	0	362	373	0	0	0	0	
14	0	0	0	0	366	371	0	0	0	0	
15	0	0	0	0	369	371	0	0	0	0	
0	0	0	0	0	370	374	0	0	0	0	
1	0	0	0	0	369	376	0	0	0	0	
2	0	0	0	0	367	380	0	0	0	0	
3	0	0	0	0	365	384	0	0	0	0	
4	0	0	0	0	362	390	0	0	0	0	
5	0	0	0	0	359	396	0	0	0	0	
6	0	0	0	0	359	403	0	0	0	0	
7	0	0	0	0	361	411	0	0	0	0	
8	0	0	0	0	366	418	0	0	0	0	
9	0	0	0	0	373	426	0	0	0	0	
10	0	0	0	0	382	433	0	0	0	0	
11	0	0	0	0	393	440	0	0	0	0	
12	0	0	0	0	405	444	0	0	0	0	
13	0	0	0	0	414	447	0	0	0	0	
14	0	0	0	0	422	447	0	0	0	0	
15	0	0	0	0	426	444	0	0	0	0	
0	0	0	0	0	428	440	0	0	0	0	
1	0	0	0	0	425	434	0	0	0	0	
2	0	0	0	0	419	427	0	0	0	0	
3	0	0	0	0	411	420	0	0	0	0	
4	0	0	0	0	400	413	0	0	0	0	
5	0	0	0	0	388	407	0	0	0	0	
6	0	0	0	0	376	402	0	0	0	0	
7	0	0	0	0	364	399	0	0	0	0	
8	0	0	0	0	352	396	0	0	0	0	
9	0	0	0	0	342	395	0	0	0	0	
10	0	0	0	0	334	395	0	0	0	0	
11	0	0	0	0	330	396	0	0	0	0	
12	0	0	0	0	328	397	0	0	0	0	
13	0	0	0	0	330	399	0	0	0	0	
14	0	0	0	0	336	402	0	0	0	0	
15	0	0	0	0	345	406	0	0	0	0	
0	0	0	0	0	355	408	0	0	0	0	
1	0	0	0	0	365	409	0	0	0	0	
2	0	0	0	0	375	409	0	0	0	0	
3	0	0	0	0	383	408	0	0	0	0	
4	0	0	0	0	390	407	0	0	0	0	
5	0	0	0	0	394	406	0	0	0	0	
6	0	0	0	0	397	405	0	0	0	0	
7	0	0	0	0	398	405	0	0	0	0	
8	0	0	0	0	397	407	0	0	0	0	
9	0	0	0	0	396	411	0	0	0	0	
10	0	0	0	0	396	416	0	0	0	0	
11	0	0	0	0	397	424	0	0	0	0	
12	0	0	0	0	399	432	0	0	0	0	
13	0	0	0	0	401	442	0	0	0	0	
14	0	0	0	0	406	451	0	0	0	0	
15	0	0	0	0	410	459	0	0	0	0	
0	0	0	0	0	416	466	0	0	0	0	
1	0	0	0	0	422	471	0	0	0	0	
2	0	0	0	0	427	473	0	0	0	0	
3	0	0	0	0	432	474	0	0	0	0	
4	0	0	0	0	436	472	0	0	0	0	
5	0	0	0	0	437	467	0	0	0	0	
6	0	0	0	0	435	458	0	0	0	0	
7	0	0	0	0	428	447	0	0	0	0	
8	0	0	0	0	417	434	0	0	0	0	
9	0	0	0	0	403	419	0	0	0	0	
10	0	0	0	0	387	403	0	0	0	0	
11	0	0	0	0	369	389	0	0	0	0	
12	0	0	0	0	351	377	0	0	0	0	
13	0	0	0	0	336	368	0	0	0	0	
14	0	0	0	0	323	362	0	0	0	0	
15	0	0	0	0	315	361	0	0	0	0	
0	0	0	0	0	311	363	0	0	0	0	
1	0	0	0	0	313	370	0	0	0	0	
2	0	0	0	0	321	381	0	0	0	0	
3	0	0	0	0	335	396	0	0	0	0	
4	0	0	0	0	355	412	0	0	0	0	
5	0	0	0	0	377	430	0	0	0	0	
6	0	0	0	0	401	448	0	0	0	0	
7	0	0	0	0	426	464	0	0	0	0	
8	0	0	0	0	448	477	0	0	0	0	
9	0	0	0	0	466	485	0	0	0	0	
10	0	0	0	0	477	487	0	0	0	0	
11	0	0	0	0	480	485	0	0	0	0	
12	0	0	0	0	476	476	0	0	0	0	
13	0	0	0	0	463	463	0	0	0	0	
14	0	0	0	0	444	446	0	0	0	0	
15	0	0	0	0	419	427	0	0	0	0	
0	0	0	0	0	390	408	0	0	0	0	
1	0	0	0	0	360	389	0	0	0	0	
2	0	0	0	0	332	373	0	0	0	0	
3	0	0	0	0	306	360	0	0	0	0	
4	0	0	0	0	285	352	0	0	0	0	
5	0	0	0	0	271	348	0	0	0	0	
6	0	0	0	0	264	349	0	0	0	0	
7	0	0	0	0	266	355	0	0	0	0	
8	0	0	0	0	277	367	0	0	0	0	
9	0	0	0	0	295	382	0	0	0	0	
10	0	0	0	0	321	400	0	0	0	0	
11	0	0	0	0	352	419	0	0	0	0	
12	0	0	0	0	385	436	0	0	0	0	
13	0	0	0	0	417	452	0	0	0	0	
14	0	0	0	0	445	464	0	0	0	0	
15	0	0	0	0	468	473	0	0	0	0	
0	0	0	0	0	484	478	0	0	0	0	
1	0	0	0	0	493	478	0	0	0	0	
2	0	0	0	0	494	475	0	0	0	0	
3	0	0	0	0	486	469	0	0	0	0	
4	0	0	0	0	471	460	0	0	0	0	
5	0	0	0	0	451	448	0	0	0	0	
6	0	0	0	0	427	437	0	0	0	0	
7	0	0	0	0	401	425	0	0	0	0	
8	0	0	0	0	375	413	0	0	0	0	
9	0	0	0	0	352	404	0	0	0	0	
10	0	0	0	0	335	398	0	0	0	0	
11	0	0	0	0	324	395	0	0	0	0	
12	0	0	0	0	319	395	0	0	0	0	
13	0	0	0	0	322	397	0	0	0	0	
14	0	0	0	0	332	403	0	0	0	0	
15	0	0	0	0	347	410	0	0	0	0	
0	0	0	0	0	366	418	0	0	0	0	
1	0	0	0	0	387	426	0	0	0	0	
2	0	0	0	0	408	433	0	0	0	0	
3	0	0	0	0	424	438	0	0	0	0	
4	0	0	0	0	438	441	0	0	0	0	
5	0	0	0	0	446	441	0	0	0	0	
6	0	0	0	0	449	440	0	0	0	0	
7	0	0	0	0	445	438	0	0	0	0	
8	0	0	0	0	436	433	0	0	0	0	
9	0	0	0	0	424	428	0	0	0	0	
10	0	0	0	0	408	423	0	0	0	0	
11	0	0	0	0	391	418	0	0	0	0	
12	0	0	0	0	376	414	0	0	0	0	
13	0	0	0	0	363	413	0	0	0	0	
14	0	0	0	0	356	415	0	0	0	0	
15	0	0	0	0	355	420	0	0	0	0	
0	0	0	0	0	360	428	0	0	0	0	
1	0	0	0	0	370	437	0	0	0	0	
2	0	0	0	0	386	448	0	0	0	0	
3	0	0	0	0	404	458	0	0	0	0	
4	0	0	0	0	425	468	0	0	0	0	
5	0	0	0	0	444	475	0	0	0	0	
6	0	0	0	0	460	480	0	0	0	0	
7	0	0	0	0	472	481	0	0	0	0	
8	0	0	0	0	477	478	0	0	0	0	
9	0	0	0	0	477	473	0	0	0	0	
10	0	0	0	0	470	465	0	0	0	0	
11	0	0	0	0	457	455	0	0	0	0	
12	0	0	0	0	441	446	0	0	0	0	
13	0	0	0	0	420	435	0	0	0	0	
14	0	0	0	0	398	424	0	0	0	0	
15	0	0	0	0	374	414	0	0	0	0	
0	0	0	0	0	352	406	0	0	0	0	
1	0	0	0	0	332	400	0	0	0	0	
2	0	0	0	0	319	397	0	0	0	0	
3	0	0	0	0	311	398	0	0	0	0	
4	0	0	0	0	310	401	0	0	0	0	
5	0	0	0	0	316	407	0	0	0	0	
6	0	0	0	0	327	414	0	0	0	0	
7	0	0	0	0	344	422	0	0	0	0	
8	0	0	0	0	364	431	0	0	0	0	
9	0	0	0	0	384	438	0	0	0	0	
10	0	0	0	0	406	444	0	0	0	0	
11	0	0	0	0	424	449	0	0	0	0	
12	0	0	0	0	440	453	0	0	0	0	
13	0	0	0	0	452	454	0	0	0	0	
14	0	0	0	0	457	454	0	0	0	0	
15	0	0	0	0	457	451	0	0	0	0	
0	0	0	0	0	450	446	0	0	0	0	
1	0	0	0	0	438	439	0	0	0	0	
2	0	0	0	0	420	431	0	0	0	0	
3	0	0	0	0	401	422	0	0	0	0	
4	0	0	0	0	380	413	0	0	0	0	
5	0	0	0	0	360	406	0	0	0	0	
6	0	0	0	0	344	401	0	0	0	0	
7	0	0	0	0	333	399	0	0	0	0	
8	0	0	0	0	327	399	0	0	0	0	
9	0	0	0	0	329	403	0	0	0	0	
10	0	0	0	0	339	410	0	0	0	0	
11	0	0	0	0	353	419	0	0	0	0	
12	0	0	0	0	373	430	0	0	0	0	
13	0	0	0	0	395	440	0	0	0	0	
14	0	0	0	0	416	449	0	0	0	0	
15	0	0	0	0	435	455	0	0	0	0	
0	0	0	0	0	448	456	0	0	0	0	
1	0	0	0	0	454	454	0	0	0	0	
2	0	0	0	0	453	448	0	0	0	0	
3	0	0	0	0	444	438	0	0	0	0	
4	0	0	0	0	430	427	0	0	0	0	
5	0	0	0	0	412	416	0	0	0	0	
6	0	0	0	0	391	406	0	0	0	0	
7	0	0	0	0	371	398	0	0	0	0	
8	0	0	0	0	354	393	0	0	0	0	
9	0	0	0	0	342	393	0	0	0	0	
10	0	0	0	0	335	396	0	0	0	0	
11	0	0	0	0	335	404	0	0	0	0	
12	0	0	0	0	343	416	0	0	0	0	
13	0	0	0	0	358	430	0	0	0	0	
14	0	0	0	0	380	446	0	0	0	0	
15	0	0	0	0	405	462	0	0	0	0	
0	0	0	0	0	432	477	0	0	0	0	
1	0	0	0	0	457	488	0	0	0	0	
2	0	0	0	0	478	496	0	0	0	0	
3	0	0	0	0	494	500	0	0	0	0	
4	0	0	0	0	502	497	0	0	0	0	
5	0	0	0	0	502	491	0	0	0	0	
6	0	0	0	0	493	480	0	0	0	0	
7	0	0	0	0	478	466	0	0	0	0	
8	0	0	0	0	458	451	0	0	0	0	
9	0	0	0	0	434	436	0	0	0	0	
10	0	0	0	0	407	420	0	0	0	0	
11	0	0	0	0	380	405	0	0	0	0	
12	0	0	0	0	353	393	0	0	0	0	
13	0	0	0	0	331	383	0	0	0	0	
14	0	0	0	0	314	377	0	0	0	0	
15	0	0	0	0	306	377	0	0	0	0	
0	0	0	0	0	306	382	0	0	0	0	
1	0	0	0	0	316	391	0	0	0	0	
2	0	0	0	0	334	404	0	0	0	0	
3	0	0	0	0	358	419	0	0	0	0	
4	0	0	0	0	385	434	0	0	0	0	
5	0	0	0	0	412	446	0	0	0	0	
6	0	0	0	0	437	455	0	0	0	0	
7	0	0	0	0	457	461	0	0	0	0	
8	0	0	0	0	472	463	0	0	0	0	
9	0	0	0	0	478	461	0	0	0	0	
10	0	0	0	0	477	455	0	0	0	0	
11	0	0	0	0	468	446	0	0	0	0	
12	0	0	0	0	452	436	0	0	0	0	
13	0	0	0	0	433	427	0	0	0	0	
14	0	0	0	0	411	417	0	0	0	0	
15	0	0	0	0	388	408	0	0	0	0	
0	0	0	0	0	366	402	0	0	0	0	
1	0	0	0	0	348	399	0	0	0	0	
2	0	0	0	0	334	398	0	0	0	0	
3	0	0	0	0	327	400	0	0	0	0	
4	0	0	0	0	325	405	0	0	0	0	
5	0	0	0	0	330	411	0	0	0	0	
6	0	0	0	0	340	417	0	0	0	0	
7	0	0	0	0	355	425	0	0	0	0	
8	0	0	0	0	373	432	0	0	0	0	
9	0	0	0	0	392	439	0	0	0	0	
10	0	0	0	0	411	444	0	0	0	0	
11	0	0	0	0	427	447	0	0	0	0	
12	0	0	0	0	440	447	0	0	0	0	
13	0	0	0	0	447	446	0	0	0	0	
14	0	0	0	0	449	444	0	0	0	0	
15	0	0	0	0	447	440	0	0	0	0	
0	0	0	0	0	438	435	0	0	0	0	
1	0	0	0	0	428	430	0	0	0	0	
2	0	0	0	0	415	426	0	0	0	0	
3	0	0	0	0	401	423	0	0	0	0	
4	0	0	0	0	388	420	0	0	0	0	
5	0	0	0	0	376	419	0	0	0	0	
6	0	0	0	0	367	419	0	0	0	0	
7	0	0	0	0	361	420	0	0	0	0	
8	0	0	0	0	359	422	0	0	0	0	
9	0	0	0	0	360	424	0	0	0	0	
10	0	0	0	0	365	426	0	0	0	0	
11	0	0	0	0	373	428	0	0	0	0	
12	0	0	0	0	383	429	0	0	0	0	
13	0	0	0	0	393	430	0	0	0	0	
14	0	0	0	0	403	430	0	0	0	0	
15	0	0	0	0	411	428	0	0	0	0	
0	0	0	0	0	416	425	0	0	0	0	
1	0	0	0	0	417	420	0	0	0	0	
2	0	0	0	0	412	414	0	0	0	0	
3	0	0	0	0	404	406	0	0	0	0	
4	0	0	0	0	392	398	0	0	0	0	
5	0	0	0	0	379	391	0	0	0	0	
6	0	0	0	0	364	386	0	0	0	0	
7	0	0	0	0	351	382	0	0	0	0	
8	0	0	0	0	339	381	0	0	0	0	
9	0	0	0	0	332	383	0	0	0	0	
10	0	0	0	0	329	387	0	0	0	0	
11	0	0	0	0	331	395	0	0	0	0	
12	0	0	0	0	338	404	0	0	0	0	
13	0	0	0	0	349	413	0	0	0	0	
14	0	0	0	0	361	421	0	0	0	0	
15	0	0	0	0	376	428	0	0	0	0	
0	0	0	0	0	389	432	0	0	0	0	
1	0	0	0	0	401	433	0	0	0	0	
2	0	0	0	0	410	433	0	0	0	0	
3	0	0	0	0	417	431	0	0	0	0	
4	0	0	0	0	421	428	0	0	0	0	
5	0	0	0	0	422	424	0	0	0	0	
6	0	0	0	0	419	421	0	0	0	0	
7	0	0	0	0	415	417	0	0	0	0	
8	0	0	0	0	408	415	0	0	0	0	
9	0	0	0	0	401	413	0	0	0	0	
10	0	0	0	0	393	414	0	0	0	0	
11	0	0	0	0	386	415	0	0	0	0	
12	0	0	0	0	380	417	0	0	0	0	
13	0	0	0	0	376	421	0	0	0	0	
14	0	0	0	0	374	425	0	0	0	0	
15	0	0	0	0	374	431	0	0	0	0	
0	0	0	0	0	379	438	0	0	0	0	
1	0	0	0	0	386	444	0	0	0	0	
2	0	0	0	0	396	451	0	0	0	0	
3	0	0	0	0	408	457	0	0	0	0	
4	0	0	0	0	421	462	0	0	0	0	
5	0	0	0	0	433	464	0	0	0	0	
6	0	0	0	0	442	464	0	0	0	0	
7	0	0	0	0	448	462	0	0	0	0	
8	0	0	0	0	449	456	0	0	0	0	
9	0	0	0	0	446	448	0	0	0	0	
10	0	0	0	0	438	439	0	0	0	0	
11	0	0	0	0	426	428	0	0	0	0	
12	0	0	0	0	410	415	0	0	0	0	
13	0	0	0	0	392	404	0	0	0	0	
14	0	0	0	0	373	394	0	0	0	0	
15	0	0	0	0	354	385	0	0	0	0	
0	0	0	0	0	338	379	0	0	0	0	
1	0	0	0	0	325	376	0	0	0	0	
2	0	0	0	0	318	377	0	0	0	0	
3	0	0	0	0	317	381	0	0	0	0	
4	0	0	0	0	321	387	0	0	0	0	
5	0	0	0	0	332	395	0	0	0	0	
6	0	0	0	0	348	406	0	0	0	0	
7	0	0	0	0	367	416	0	0	0	0	
8	0	0	0	0	389	427	0	0	0	0	
9	0	0	0	0	411	436	0	0	0	0	
10	0	0	0	0	431	444	0	0	0	0	
11	0	0	0	0	448	449	0	0	0	0	
12	0	0	0	0	460	452	0	0	0	0	
13	0	0	0	0	467	453	0	0	0	0	
14	0	0	0	0	467	451	0	0	0	0	
15	0	0	0	0	462	448	0	0	0	0	
0	0	0	0	0	449	441	0	0	0	0	
1	0	0	0	0	432	433	0	0	0	0	
2	0	0	0	0	410	422	0	0	0	0	
3	0	0	0	0	385	409	0	0	0	0	
4	0	0	0	0	359	396	0	0	0	0	
5	0	0	0	0	335	383	0	0	0	0	
6	0	0	0	0	313	372	0	0	0	0	
7	0	0	0	0	296	362	0	0	0	0	
8	0	0	0	0	284	353	0	0	0	0	
9	0	0	0	0	276	345	0	0	0	0	
10	0	0	0	0	272	339	0	0	0	0	
11	0	0	0	0	273	334	0	0	0	0	
12	0	0	0	0	276	328	0	0	0	0	
13	0	0	0	0	280	323	0	0	0	0	
14	0	0	0	0	284	317	0	0	0	0	
15	0	0	0	0	287	310	0	0	0	0	
0	0	0	0	0	286	302	0	0	0	0	
1	0	0	0	0	282	292	0	0	0	0	
2	0	0	0	0	273	280	0	0	0	0	
3	0	0	0	0	260	266	0	0	0	0	
4	0	0	0	0	243	252	0	0	0	0	
5	0	0	0	0	224	236	0	0	0	0	
6	0	0	0	0	202	222	0	0	0	0	
7	0	0	0	0	181	208	0	0	0	0	
8	0	0	0	0	161	197	0	0	0	0	
9	0	0	0	0	144	189	0	0	0	0	
10	0	0	0	0	132	184	0	0	0	0	
11	0	0	0	0	126	183	0	0	0	0	
12	0	0	0	0	128	186	0	0	0	0	
13	0	0	0	0	136	192	0	0	0	0	
14	0	0	0	0	151	202	0	0	0	0	
15	0	0	0	0	172	214	0	0	0	0	
0	0	0	0	0	197	229	0	0	0	0	
1	0	0	0	0	225	245	0	0	0	0	
2	0	0	0	0	255	262	0	0	0	0	
3	0	0	0	0	284	280	0	0	0	0	
4	0	0	0	0	312	297	0	0	0	0	
5	0	0	0	0	338	315	0	0	0	0	
6	0	0	0	0	360	332	0	0	0	0	
7	0	0	0	0	379	349	0	0	0	0	
8	0	0	0	0	393	367	0	0	0	0	
9	0	0	0	0	404	384	0	0	0	0	
10	0	0	0	0	412	400	0	0	0	0	
11	0	0	0	0	417	416	0	0	0	0	
12	0	0	0	0	420	431	0	0	0	0	
13	0	0	0	0	421	444	0	0	0	0	
14	0	0	0	0	423	456	0	0	0	0	
15	0	0	0	0	423	466	0	0	0	0	
0	0	0	0	0	425	474	0	0	0	0	
1	0	0	0	0	428	480	0	0	0	0	
2	0	0	0	0	432	483	0	0	0	0	
3	0	0	0	0	437	485	0	0	0	0	
4	0	0	0	0	444	486	0	0	0	0	
5	0	0	0	0	453	487	0	0	0	0	
6	0	0	0	0	463	487	0	0	0	0	
7	0	0	0	0	472	487	0	0	0	0	
8	0	0	0	0	481	488	0	0	0	0	
9	0	0	0	0	488	488	0	0	0	0	
10	0	0	0	0	492	487	0	0	0	0	
11	0	0	0	0	492	487	0	0	0	0	
12	0	0	0	0	488	484	0	0	0	0	
13	0	0	0	0	481	481	0	0	0	0	
14	0	0	0	0	470	476	0	0	0	0	
15	0	0	0	0	456	471	0	0	0	0	
0	0	0	0	0	440	463	0	0	0	0	
1	0	0	0	0	421	455	0	0	0	0	
2	0	0	0	0	404	446	0	0	0	0	
3	0	0	0	0	388	438	0	0	0	0	
4	0	0	0	0	376	432	0	0	0	0	
5	0	0	0	0	369	428	0	0	0	0	
6	0	0	0	0	369	427	0	0	0	0	
7	0	0	0	0	374	428	0	0	0	0	
8	0	0	0	0	384	432	0	0	0	0	
9	0	0	0	0	398	439	0	0	0	0	
10	0	0	0	0	414	446	0	0	0	0	
11	0	0	0	0	429	453	0	0	0	0	
12	0	0	0	0	444	460	0	0	0	0	
13	0	0	0	0	455	464	0	0	0	0	
14	0	0	0	0	462	467	0	0	0	0	
15	0	0	0	0	463	468	0	0	0	0	
0	0	0	0	0	461	468	0	0	0	0	
1	0	0	0	0	455	466	0	0	0	0	
2	0	0	0	0	444	463	0	0	0	0	
3	0	0	0	0	432	458	0	0	0	0	
4	0	0	0	0	418	452	0	0	0	0	
5	0	0	0	0	404	447	0	0	0	0	
6	0	0	0	0	392	442	0	0	0	0	
7	0	0	0	0	383	438	0	0	0	0	
8	0	0	0	0	377	435	0	0	0	0	
9	0	0	0	0	374	433	0	0	0	0	
10	0	0	0	0	375	433	0	0	0	0	
11	0	0	0	0	379	433	0	0	0	0	
12	0	0	0	0	387	435	0	0	0	0	
13	0	0	0	0	395	435	0	0	0	0	
14	0	0	0	0	404	436	0	0	0	0	
15	0	0	0	0	412	435	0	0	0	0	
0	0	0	0	0	417	434	0	0	0	0	
1	0	0	0	0	419	431	0	0	0	0	
2	0	0	0	0	418	427	0	0	0	0	
3	0	0	0	0	414	422	0	0	0	0	
4	0	0	0	0	407	417	0	0	0	0	
5	0	0	0	0	398	413	0	0	0	0	
6	0	0	0	0	390	411	0	0	0	0	
7	0	0	0	0	381	409	0	0	0	0	
8	0	0	0	0	374	410	0	0	0	0	
9	0	0	0	0	370	413	0	0	0	0	
10	0	0	0	0	371	419	0	0	0	0	
11	0	0	0	0	376	428	0	0	0	0	
12	0	0	0	0	386	438	0	0	0	0	
13	0	0	0	0	400	449	0	0	0	0	
14	0	0	0	0	416	460	0	0	0	0	
15	0	0	0	0	433	470	0	0	0	0	
0	0	0	0	0	449	478	0	0	0	0	
1	0	0	0	0	462	481	0	0	0	0	
2	0	0	0	0	469	480	0	0	0	0	
3	0	0	0	0	471	475	0	0	0	0	
4	0	0	0	0	468	466	0	0	0	0	
5	0	0	0	0	458	453	0	0	0	0	
6	0	0	0	0	444	440	0	0	0	0	
7	0	0	0	0	426	426	0	0	0	0	
8	0	0	0	0	406	413	0	0	0	0	
9	0	0	0	0	388	403	0	0	0	0	
10	0	0	0	0	372	396	0	0	0	0	
11	0	0	0	0	361	394	0	0	0	0	
12	0	0	0	0	354	396	0	0	0	0	
13	0	0	0	0	353	402	0	0	0	0	
14	0	0	0	0	359	412	0	0	0	0	
15	0	0	0	0	370	424	0	0	0	0	
0	0	0	0	0	384	437	0	0	0	0	
1	0	0	0	0	401	449	0	0	0	0	
2	0	0	0	0	419	460	0	0	0	0	
3	0	0	0	0	436	468	0	0	0	0	
4	0	0	0	0	451	473	0	0	0	0	
5	0	0	0	0	461	474	0	0	0	0	
6	0	0	0	0	467	472	0	0	0	0	
7	0	0	0	0	470	467	0	0	0	0	
8	0	0	0	0	468	460	0	0	0	0	
9	0	0	0	0	462	452	0	0	0	0	
10	0	0	0	0	452	443	0	0	0	0	
11	0	0	0	0	440	435	0	0	0	0	
12	0	0	0	0	427	429	0	0	0	0	
13	0	0	0	0	414	426	0	0	0	0	
14	0	0	0	0	403	425	0	0	0	0	
15	0	0	0	0	393	426	0	0	0	0	
0	0	0	0	0	386	429	0	0	0	0	
1	0	0	0	0	383	434	0	0	0	0	
2	0	0	0	0	383	441	0	0	0	0	
3	0	0	0	0	388	449	0	0	0	0	
4	0	0	0	0	396	457	0	0	0	0	
5	0	0	0	0	407	464	0	0	0	0	
6	0	0	0	0	419	471	0	0	0	0	
7	0	0	0	0	432	476	0	0	0	0	
8	0	0	0	0	445	479	0	0	0	0	
9	0	0	0	0	456	480	0	0	0	0	
10	0	0	0	0	465	479	0	0	0	0	
11	0	0	0	0	469	475	0	0	0	0	
12	0	0	0	0	469	468	0	0	0	0	
13	0	0	0	0	464	460	0	0	0	0	
14	0	0	0	0	455	450	0	0	0	0	
15	0	0	0	0	443	440	0	0	0	0	
0	0	0	0	0	428	431	0	0	0	0	
1	0	0	0	0	413	423	0	0	0	0	
2	0	0	0	0	398	418	0	0	0	0	
3	0	0	0	0	384	414	0	0	0	0	
4	0	0	0	0	372	412	0	0	0	0	
5	0	0	0	0	364	413	0	0	0	0	
6	0	0	0	0	358	414	0	0	0	0	
7	0	0	0	0	355	416	0	0	0	0	
8	0	0	0	0	357	421	0	0	0	0	
9	0	0	0	0	362	425	0	0	0	0	
10	0	0	0	0	371	430	0	0	0	0	
11	0	0	0	0	383	436	0	0	0	0	
12	0	0	0	0	398	442	0	0	0	0	
13	0	0	0	0	413	447	0	0	0	0	
14	0	0	0	0	427	451	0	0	0	0	
15	0	0	0	0	439	453	0	0	0	0	
0	0	0	0	0	448	454	0	0	0	0	
1	0	0	0	0	453	454	0	0	0	0	
2	0	0	0	0	454	451	0	0	0	0	
3	0	0	0	0	449	448	0	0	0	0	
4	0	0	0	0	441	443	0	0	0	0	
5	0	0	0	0	430	438	0	0	0	0	
6	0	0	0	0	416	433	0	0	0	0	
7	0	0	0	0	402	428	0	0	0	0	
8	0	0	0	0	388	425	0	0	0	0	
9	0	0	0	0	376	423	0	0	0	0	
10	0	0	0	0	368	423	0	0	0	0	
11	0	0	0	0	363	424	0	0	0	0	
12	0	0	0	0	361	427	0	0	0	0	
13	0	0	0	0	365	431	0	0	0	0	
14	0	0	0	0	372	435	0	0	0	0	
15	0	0	0	0	385	441	0	0	0	0	
0	0	0	0	0	400	448	0	0	0	0	
1	0	0	0	0	417	455	0	0	0	0	
2	0	0	0	0	435	461	0	0	0	0	
3	0	0	0	0	451	466	0	0	0	0	
4	0	0	0	0	463	469	0	0	0	0	
5	0	0	0	0	471	469	0	0	0	0	
6	0	0	0	0	475	468	0	0	0	0	
7	0	0	0	0	473	466	0	0	0	0	
8	0	0	0	0	467	462	0	0	0	0	
9	0	0	0	0	458	458	0	0	0	0	
10	0	0	0	0	446	453	0	0	0	0	
11	0	0	0	0	431	447	0	0	0	0	
12	0	0	0	0	415	441	0	0	0	0	
13	0	0	0	0	400	436	0	0	0	0	
14	0	0	0	0	387	431	0	0	0	0	
15	0	0	0	0	377	427	0	0	0	0	
0	0	0	0	0	371	424	0	0	0	0	
1	0	0	0	0	367	422	0	0	0	0	
2	0	0	0	0	368	420	0	0	0	0	
3	0	0	0	0	372	419	0	0	0	0	
4	0	0	0	0	379	419	0	0	0	0	
5	0	0	0	0	388	419	0	0	0	0	
6	0	0	0	0	399	420	0	0	0	0	
7	0	0	0	0	411	422	0	0	0	0	
8	0	0	0	0	422	425	0	0	0	0	
9	0	0	0	0	433	429	0	0	0	0	
10	0	0	0	0	443	433	0	0	0	0	
11	0	0	0	0	449	437	0	0	0	0	
12	0	0	0	0	452	441	0	0	0	0	
13	0	0	0	0	450	443	0	0	0	0	
14	0	0	0	0	444	443	0	0	0	0	
15	0	0	0	0	434	441	0	0	0	0	
0	0	0	0	0	422	439	0	0	0	0	
1	0	0	0	0	408	436	0	0	0	0	
2	0	0	0	0	395	433	0	0	0	0	
3	0	0	0	0	384	430	0	0	0	0	
4	0	0	0	0	375	428	0	0	0	0	
5	0	0	0	0	371	427	0	0	0	0	
6	0	0	0	0	371	428	0	0	0	0	
7	0	0	0	0	376	430	0	0	0	0	
8	0	0	0	0	385	434	0	0	0	0	
9	0	0	0	0	396	438	0	0	0	0	
10	0	0	0	0	409	442	0	0	0	0	
11	0	0	0	0	421	446	0	0	0	0	
12	0	0	0	0	431	448	0	0	0	0	
13	0	0	0	0	438	448	0	0	0	0	
14	0	0	0	0	441	448	0	0	0	0	
15	0	0	0	0	441	447	0	0	0	0	
0	0	0	0	0	440	446	0	0	0	0	
1	0	0	0	0	435	446	0	0	0	0	
2	0	0	0	0	430	446	0	0	0	0	
3	0	0	0	0	424	447	0	0	0	0	
4	0	0	0	0	417	448	0	0	0	0	
5	0	0	0	0	412	450	0	0	0	0	
6	0	0	0	0	408	451	0	0	0	0	
7	0	0	0	0	405	453	0	0	0	0	
8	0	0	0	0	403	454	0	0	0	0	
9	0	0	0	0	401	453	0	0	0	0	
10	0	0	0	0	402	451	0	0	0	0	
11	0	0	0	0	402	448	0	0	0	0	
12	0	0	0	0	403	444	0	0	0	0	
13	0	0	0	0	403	437	0	0	0	0	
14	0	0	0	0	402	430	0	0	0	0	
15	0	0	0	0	399	422	0	0	0	0	
0	0	0	0	0	396	414	0	0	0	0	
1	0	0	0	0	391	406	0	0	0	0	
2	0	0	0	0	386	398	0	0	0	0	
3	0	0	0	0	380	392	0	0	0	0	
4	0	0	0	0	373	388	0	0	0	0	
5	0	0	0	0	368	386	0	0	0	0	
6	0	0	0	0	363	387	0	0	0	0	
7	0	0	0	0	361	390	0	0	0	0	
8	0	0	0	0	361	395	0	0	0	0	
9	0	0	0	0	364	404	0	0	0	0	
10	0	0	0	0	370	413	0	0	0	0	
11	0	0	0	0	379	423	0	0	0	0	
12	0	0	0	0	389	433	0	0	0	0	
13	0	0	0	0	401	442	0	0	0	0	
14	0	0	0	0	414	451	0	0	0	0	
15	0	0	0	0	426	458	0	0	0	0	
0	0	0	0	0	439	463	0	0	0	0	
1	0	0	0	0	449	467	0	0	0	0	
2	0	0	0	0	458	469	0	0	0	0	
3	0	0	0	0	465	471	0	0	0	0	
4	0	0	0	0	470	472	0	0	0	0	
5	0	0	0	0	471	470	0	0	0	0	
6	0	0	0	0	468	469	0	0	0	0	
7	0	0	0	0	463	465	0	0	0	0	
8	0	0	0	0	453	460	0	0	0	0	
9	0	0	0	0	440	455	0	0	0	0	
10	0	0	0	0	425	448	0	0	0	0	
11	0	0	0	0	410	441	0	0	0	0	
12	0	0	0	0	396	437	0	0	0	0	
13	0	0	0	0	384	433	0	0	0	0	
14	0	0	0	0	377	433	0	0	0	0	
15	0	0	0	0	374	434	0	0	0	0	
0	0	0	0	0	376	437	0	0	0	0	
1	0	0	0	0	382	442	0	0	0	0	
2	0	0	0	0	392	447	0	0	0	0	
3	0	0	0	0	406	453	0	0	0	0	
4	0	0	0	0	420	457	0	0	0	0	
5	0	0	0	0	435	462	0	0	0	0	
6	0	0	0	0	448	463	0	0	0	0	
7	0	0	0	0	459	464	0	0	0	0	
8	0	0	0	0	465	463	0	0	0	0	
9	0	0	0	0	468	460	0	0	0	0	
10	0	0	0	0	466	455	0	0	0	0	
11	0	0	0	0	459	451	0	0	0	0	
12	0	0	0	0	449	446	0	0	0	0	
13	0	0	0	0	436	441	0	0	0	0	
14	0	0	0	0	421	435	0	0	0	0	
15	0	0	0	0	404	428	0	0	0	0	
0	0	0	0	0	386	422	0	0	0	0	
1	0	0	0	0	370	417	0	0	0	0	
2	0	0	0	0	356	412	0	0	0	0	
3	0	0	0	0	347	409	0	0	0	0	
4	0	0	0	0	342	408	0	0	0	0	
5	0	0	0	0	343	409	0	0	0	0	
6	0	0	0	0	350	413	0	0	0	0	
7	0	0	0	0	361	418	0	0	0	0	
8	0	0	0	0	377	425	0	0	0	0	
9	0	0	0	0	395	432	0	0	0	0	
10	0	0	0	0	414	438	0	0	0	0	
11	0	0	0	0	431	444	0	0	0	0	
12	0	0	0	0	446	450	0	0	0	0	
13	0	0	0	0	458	455	0	0	0	0	
14	0	0	0	0	467	459	0	0	0	0	
15	0	0	0	0	472	463	0	0	0	0	
0	0	0	0	0	473	466	0	0	0	0	
1	0	0	0	0	471	468	0	0	0	0	
2	0	0	0	0	464	469	0	0	0	0	
3	0	0	0	0	454	467	0	0	0	0	
4	0	0	0	0	440	462	0	0	0	0	
5	0	0	0	0	423	456	0	0	0	0	
6	0	0	0	0	407	448	0	0	0	0	
7	0	0	0	0	391	440	0	0	0	0	
8	0	0	0	0	379	434	0	0	0	0	
9	0	0	0	0	370	428	0	0	0	0	
10	0	0	0	0	366	424	0	0	0	0	
11	0	0	0	0	366	423	0	0	0	0	
12	0	0	0	0	371	422	0	0	0	0	
13	0	0	0	0	380	423	0	0	0	0	
14	0	0	0	0	391	424	0	0	0	0	
15	0	0	0	0	401	426	0	0	0	0	
0	0	0	0	0	412	427	0	0	0	0	
1	0	0	0	0	420	427	0	0	0	0	
2	0	0	0	0	425	427	0	0	0	0	
3	0	0	0	0	427	426	0	0	0	0	
4	0	0	0	0	425	424	0	0	0	0	
5	0	0	0	0	422	423	0	0	0	0	
6	0	0	0	0	415	422	0	0	0	0	
7	0	0	0	0	408	422	0	0	0	0	
8	0	0	0	0	401	423	0	0	0	0	
9	0	0	0	0	396	425	0	0	0	0	
10	0	0	0	0	393	431	0	0	0	0	
11	0	0	0	0	395	437	0	0	0	0	
12	0	0	0	0	400	445	0	0	0	0	
13	0	0	0	0	407	452	0	0	0	0	
14	0	0	0	0	415	459	0	0	0	0	
15	0	0	0	0	425	464	0	0	0	0	
0	0	0	0	0	434	468	0	0	0	0	
1	0	0	0	0	442	469	0	0	0	0	
2	0	0	0	0	448	468	0	0	0	0	
3	0	0	0	0	452	466	0	0	0	0	
4	0	0	0	0	454	463	0	0	0	0	
5	0	0	0	0	452	458	0	0	0	0	
6	0	0	0	0	449	453	0	0	0	0	
7	0	0	0	0	443	449	0	0	0	0	
8	0	0	0	0	436	446	0	0	0	0	
9	0	0	0	0	429	444	0	0	0	0	
10	0	0	0	0	422	443	0	0	0	0	
11	0	0	0	0	414	443	0	0	0	0	
12	0	0	0	0	408	444	0	0	0	0	
13	0	0	0	0	402	445	0	0	0	0	
14	0	0	0	0	399	447	0	0	0	0	
15	0	0	0	0	399	450	0	0	0	0	
0	0	0	0	0	403	455	0	0	0	0	
1	0	0	0	0	410	460	0	0	0	0	
2	0	0	0	0	420	467	0	0	0	0	
3	0	0	0	0	434	475	0	0	0	0	
4	0	0	0	0	449	482	0	0	0	0	
5	0	0	0	0	464	489	0	0	0	0	
6	0	0	0	0	476	493	0	0	0	0	
7	0	0	0	0	485	494	0	0	0	0	
8	0	0	0	0	488	491	0	0	0	0	
9	0	0	0	0	484	483	0	0	0	0	
10	0	0	0	0	473	472	0	0	0	0	
11	0	0	0	0	455	457	0	0	0	0	
12	0	0	0	0	433	441	0	0	0	0	
13	0	0	0	0	410	425	0	0	0	0	
14	0	0	0	0	386	412	0	0	0	0	
15	0	0	0	0	365	400	0	0	0	0	
0	0	0	0	0	348	393	0	0	0	0	
1	0	0	0	0	338	392	0	0	0	0	
2	0	0	0	0	335	395	0	0	0	0	
3	0	0	0	0	340	401	0	0	0	0	
4	0	0	0	0	351	411	0	0	0	0	
5	0	0	0	0	367	423	0	0	0	0	
6	0	0	0	0	387	436	0	0	0	0	
7	0	0	0	0	408	448	0	0	0	0	
8	0	0	0	0	431	460	0	0	0	0	
9	0	0	0	0	452	468	0	0	0	0	
10	0	0	0	0	470	476	0	0	0	0	
11	0	0	0	0	482	480	0	0	0	0	
12	0	0	0	0	491	482	0	0	0	0	
13	0	0	0	0	494	481	0	0	0	0	
14	0	0	0	0	490	478	0	0	0	0	
15	0	0	0	0	481	473	0	0	0	0	
0	0	0	0	0	466	466	0	0	0	0	
1	0	0	0	0	448	458	0	0	0	0	
2	0	0	0	0	428	450	0	0	0	0	
3	0	0	0	0	408	443	0	0	0	0	
4	0	0	0	0	390	438	0	0	0	0	
5	0	0	0	0	376	435	0	0	0	0	
6	0	0	0	0	367	435	0	0	0	0	
7	0	0	0	0	365	439	0	0	0	0	
8	0	0	0	0	368	444	0	0	0	0	
9	0	0	0	0	376	450	0	0	0	0	
10	0	0	0	0	387	455	0	0	0	0	
11	0	0	0	0	400	461	0	0	0	0	
12	0	0	0	0	414	465	0	0	0	0	
13	0	0	0	0	427	467	0	0	0	0	
14	0	0	0	0	438	467	0	0	0	0	
15	0	0	0	0	446	467	0	0	0	0	
0	0	0	0	0	453	465	0	0	0	0	
1	0	0	0	0	456	464	0	0	0	0	
2	0	0	0	0	458	463	0	0	0	0	
3	0	0	0	0	456	463	0	0	0	0	
4	0	0	0	0	452	462	0	0	0	0	
5	0	0	0	0	447	463	0	0	0	0	
6	0	0	0	0	439	462	0	0	0	0	
7	0	0	0	0	430	462	0	0	0	0	
8	0	0	0	0	421	460	0	0	0	0	
9	0	0	0	0	412	459	0	0	0	0	
10	0	0	0	0	403	457	0	0	0	0	
11	0	0	0	0	396	455	0	0	0	0	
12	0	0	0	0	391	452	0	0	0	0	
13	0	0	0	0	389	450	0	0	0	0	
14	0	0	0	0	390	448	0	0	0	0	
15	0	0	0	0	395	447	0	0	0	0	
0	0	0	0	0	403	448	0	0	0	0	
1	0	0	0	0	413	449	0	0	0	0	
2	0	0	0	0	426	452	0	0	0	0	
3	0	0	0	0	440	456	0	0	0	0	
4	0	0	0	0	455	463	0	0	0	0	
5	0	0	0	0	469	468	0	0	0	0	
6	0	0	0	0	480	476	0	0	0	0	
7	0	0	0	0	487	481	0	0	0	0	
8	0	0	0	0	490	484	0	0	0	0	
9	0	0	0	0	487	486	0	0	0	0	
10	0	0	0	0	479	485	0	0	0	0	
11	0	0	0	0	467	482	0	0	0	0	
12	0	0	0	0	452	477	0	0	0	0	
13	0	0	0	0	436	472	0	0	0	0	
14	0	0	0	0	422	467	0	0	0	0	
15	0	0	0	0	409	464	0	0	0	0	
0	0	0	0	0	401	461	0	0	0	0	
1	0	0	0	0	396	460	0	0	0	0	
2	0	0	0	0	396	459	0	0	0	0	
3	0	0	0	0	399	459	0	0	0	0	
4	0	0	0	0	405	458	0	0	0	0	
5	0	0	0	0	412	457	0	0	0	0	
6	0	0	0	0	419	454	0	0	0	0	
7	0	0	0	0	425	451	0	0	0	0	
8	0	0	0	0	431	448	0	0	0	0	
9	0	0	0	0	434	444	0	0	0	0	
10	0	0	0	0	435	440	0	0	0	0	
11	0	0	0	0	433	435	0	0	0	0	
12	0	0	0	0	429	431	0	0	0	0	
13	0	0	0	0	424	428	0	0	0	0	
14	0	0	0	0	419	426	0	0	0	0	
15	0	0	0	0	413	427	0	0	0	0	
0	0	0	0	0	409	428	0	0	0	0	
1	0	0	0	0	408	432	0	0	0	0	
2	0	0	0	0	408	439	0	0	0	0	
3	0	0	0	0	412	446	0	0	0	0	
4	0	0	0	0	417	452	0	0	0	0	
5	0	0	0	0	423	459	0	0	0	0	
6	0	0	0	0	430	463	0	0	0	0	
7	0	0	0	0	438	467	0	0	0	0	
8	0	0	0	0	444	468	0	0	0	0	
9	0	0	0	0	449	468	0	0	0	0	
10	0	0	0	0	453	466	0	0	0	0	
11	0	0	0	0	454	462	0	0	0	0	
12	0	0	0	0	454	457	0	0	0	0	
13	0	0	0	0	451	451	0	0	0	0	
14	0	0	0	0	446	445	0	0	0	0	
15	0	0	0	0	439	439	0	0	0	0	
0	0	0	0	0	431	435	0	0	0	0	
1	0	0	0	0	424	432	0	0	0	0	
2	0	0	0	0	418	432	0	0	0	0	
3	0	0	0	0	414	433	0	0	0	0	
4	0	0	0	0	412	439	0	0	0	0	
5	0	0	0	0	415	446	0	0	0	0	
6	0	0	0	0	421	456	0	0	0	0	
7	0	0	0	0	430	467	0	0	0	0	
8	0	0	0	0	443	480	0	0	0	0	
9	0	0	0	0	457	492	0	0	0	0	
10	0	0	0	0	472	502	0	0	0	0	
11	0	0	0	0	486	510	0	0	0	0	
12	0	0	0	0	497	515	0	0	0	0	
13	0	0	0	0	505	516	0	0	0	0	
14	0	0	0	0	508	513	0	0	0	0	
15	0	0	0	0	506	506	0	0	0	0	
0	0	0	0	0	499	496	0	0	0	0	
1	0	0	0	0	487	483	0	0	0	0	
2	0	0	0	0	471	470	0	0	0	0	
3	0	0	0	0	451	456	0	0	0	0	
4	0	0	0	0	432	444	0	0	0	0	
5	0	0	0	0	412	435	0	0	0	0	
6	0	0	0	0	396	428	0	0	0	0	
7	0	0	0	0	383	425	0	0	0	0	
8	0	0	0	0	375	426	0	0	0	0	
9	0	0	0	0	371	430	0	0	0	0	
10	0	0	0	0	374	436	0	0	0	0	
11	0	0	0	0	382	444	0	0	0	0	
12	0	0	0	0	393	454	0	0	0	0	
13	0	0	0	0	409	463	0	0	0	0	
14	0	0	0	0	426	471	0	0	0	0	
15	0	0	0	0	443	478	0	0	0	0	
0	0	0	0	0	458	481	0	0	0	0	
1	0	0	0	0	471	483	0	0	0	0	
2	0	0	0	0	479	481	0	0	0	0	
3	0	0	0	0	481	476	0	0	0	0	
4	0	0	0	0	480	469	0	0	0	0	
5	0	0	0	0	472	460	0	0	0	0	
6	0	0	0	0	461	450	0	0	0	0	
7	0	0	0	0	447	440	0	0	0	0	
8	0	0	0	0	432	433	0	0	0	0	
9	0	0	0	0	421	431	0	0	0	0	
10	0	0	0	0	413	432	0	0	0	0	
11	0	0	0	0	410	439	0	0	0	0	
12	0	0	0	0	411	448	0	0	0	0	
13	0	0	0	0	415	459	0	0	0	0	
14	0	0	0	0	422	470	0	0	0	0	
15	0	0	0	0	428	477	0	0	0	0	
0	0	0	0	0	434	483	0	0	0	0	
1	0	0	0	0	439	486	0	0	0	0	
2	0	0	0	0	444	486	0	0	0	0	
3	0	0	0	0	449	486	0	0	0	0	
4	0	0	0	0	454	483	0	0	0	0	
5	0	0	0	0	455	478	0	0	0	0	
6	0	0	0	0	454	472	0	0	0	0	
7	0	0	0	0	450	463	0	0	0	0	
8	0	0	0	0	443	452	0	0	0	0	
9	0	0	0	0	433	440	0	0	0	0	
10	0	0	0	0	420	429	0	0	0	0	
11	0	0	0	0	407	418	0	0	0	0	
12	0	0	0	0	393	409	0	0	0	0	
13	0	0	0	0	380	402	0	0	0	0	
14	0	0	0	0	369	397	0	0	0	0	
15	0	0	0	0	360	394	0	0	0	0	
0	0	0	0	0	355	394	0	0	0	0	
1	0	0	0	0	353	398	0	0	0	0	
2	0	0	0	0	356	403	0	0	0	0	
3	0	0	0	0	363	411	0	0	0	0	
4	0	0	0	0	373	419	0	0	0	0	
5	0	0	0	0	386	428	0	0	0	0	
6	0	0	0	0	401	438	0	0	0	0	
7	0	0	0	0	417	446	0	0	0	0	
8	0	0	0	0	432	453	0	0	0	0	
9	0	0	0	0	446	457	0	0	0	0	
10	0	0	0	0	457	460	0	0	0	0	
11	0	0	0	0	465	460	0	0	0	0	
12	0	0	0	0	469	459	0	0	0	0	
13	0	0	0	0	469	456	0	0	0	0	
14	0	0	0	0	465	451	0	0	0	0	
15	0	0	0	0	457	446	0	0	0	0	
0	0	0	0	0	448	441	0	0	0	0	
1	0	0	0	0	436	437	0	0	0	0	
2	0	0	0	0	424	434	0	0	0	0	
3	0	0	0	0	412	432	0	0	0	0	
4	0	0	0	0	400	430	0	0	0	0	
5	0	0	0	0	392	431	0	0	0	0	
6	0	0	0	0	386	432	0	0	0	0	
7	0	0	0	0	384	435	0	0	0	0	
8	0	0	0	0	386	439	0	0	0	0	
9	0	0	0	0	391	443	0	0	0	0	
10	0	0	0	0	398	447	0	0	0	0	
11	0	0	0	0	408	450	0	0	0	0	
12	0	0	0	0	419	453	0	0	0	0	
13	0	0	0	0	431	455	0	0	0	0	
14	0	0	0	0	441	455	0	0	0	0	
15	0	0	0	0	450	456	0	0	0	0	
0	0	0	0	0	456	455	0	0	0	0	
1	0	0	0	0	461	455	0	0	0	0	
2	0	0	0	0	462	454	0	0	0	0	
3	0	0	0	0	460	453	0	0	0	0	
4	0	0	0	0	456	453	0	0	0	0	
5	0	0	0	0	451	454	0	0	0	0	
6	0	0	0	0	446	456	0	0	0	0	
7	0	0	0	0	441	460	0	0	0	0	
8	0	0	0	0	438	464	0	0	0	0	
9	0	0	0	0	435	470	0	0	0	0	
10	0	0	0	0	434	473	0	0	0	0	
11	0	0	0	0	432	475	0	0	0	0	
12	0	0	0	0	429	472	0	0	0	0	
13	0	0	0	0	424	466	0	0	0	0	
14	0	0	0	0	416	455	0	0	0	0	
15	0	0	0	0	407	440	0	0	0	0	
0	0	0	0	0	394	423	0	0	0	0	
1	0	0	0	0	380	402	0	0	0	0	
2	0	0	0	0	364	380	0	0	0	0	
3	0	0	0	0	348	359	0	0	0	0	
4	0	0	0	0	330	337	0	0	0	0	
5	0	0	0	0	312	316	0	0	0	0	
6	0	0	0	0	294	296	0	0	0	0	
7	0	0	0	0	274	278	0	0	0	0	
8	0	0	0	0	254	262	0	0	0	0	
9	0	0	0	0	236	247	0	0	0	0	
10	0	0	0	0	217	235	0	0	0	0	
11	0	0	0	0	202	226	0	0	0	0	
12	0	0	0	0	188	220	0	0	0	0	
13	0	0	0	0	178	217	0	0	0	0	
14	0	0	0	0	173	216	0	0	0	0	
15	0	0	0	0	173	220	0	0	0	0	
0	0	0	0	0	179	226	0	0	0	0	
1	0	0	0	0	191	236	0	0	0	0	
2	0	0	0	0	208	249	0	0	0	0	
3	0	0	0	0	231	264	0	0	0	0	
4	0	0	0	0	260	282	0	0	0	0	
5	0	0	0	0	291	302	0	0	0	0	
6	0	0	0	0	323	323	0	0	0	0	
7	0	0	0	0	353	343	0	0	0	0	
8	0	0	0	0	382	361	0	0	0	0	
9	0	0	0	0	405	377	0	0	0	0	
10	0	0	0	0	423	392	0	0	0	0	
11	0	0	0	0	435	403	0	0	0	0	
12	0	0	0	0	438	411	0	0	0	0	
13	0	0	0	0	435	415	0	0	0	0	
14	0	0	0	0	425	415	0	0	0	0	
15	0	0	0	0	411	413	0	0	0	0	
0	0	0	0	0	394	409	0	0	0	0	
1	0	0	0	0	378	406	0	0	0	0	
2	0	0	0	0	364	403	0	0	0	0	
3	0	0	0	0	355	403	0	0	0	0	
4	0	0	0	0	352	405	0	0	0	0	
5	0	0	0	0	354	409	0	0	0	0	
6	0	0	0	0	362	415	0	0	0	0	
7	0	0	0	0	377	424	0	0	0	0	
8	0	0	0	0	396	434	0	0	0	0	
9	0	0	0	0	417	444	0	0	0	0	
10	0	0	0	0	440	455	0	0	0	0	
11	0	0	0	0	461	463	0	0	0	0	
12	0	0	0	0	478	470	0	0	0	0	
13	0	0	0	0	491	474	0	0	0	0	
14	0	0	0	0	499	476	0	0	0	0	
15	0	0	0	0	499	474	0	0	0	0	
0	0	0	0	0	494	471	0	0	0	0	
1	0	0	0	0	484	466	0	0	0	0	
2	0	0	0	0	470	460	0	0	0	0	
3	0	0	0	0	452	454	0	0	0	0	
4	0	0	0	0	435	448	0	0	0	0	
5	0	0	0	0	419	442	0	0	0	0	
6	0	0	0	0	406	440	0	0	0	0	
7	0	0	0	0	396	438	0	0	0	0	
8	0	0	0	0	391	438	0	0	0	0	
9	0	0	0	0	392	440	0	0	0	0	
10	0	0	0	0	397	442	0	0	0	0	
11	0	0	0	0	407	447	0	0	0	0	
12	0	0	0	0	419	451	0	0	0	0	
13	0	0	0	0	434	455	0	0	0	0	
14	0	0	0	0	449	460	0	0	0	0	
15	0	0	0	0	464	464	0	0	0	0	
0	0	0	0	0	476	468	0	0	0	0	
1	0	0	0	0	485	470	0	0	0	0	
2	0	0	0	0	489	470	0	0	0	0	
3	0	0	0	0	489	470	0	0	0	0	
4	0	0	0	0	485	468	0	0	0	0	
5	0	0	0	0	476	465	0	0	0	0	
6	0	0	0	0	464	462	0	0	0	0	
7	0	0	0	0	449	457	0	0	0	0	
8	0	0	0	0	434	453	0	0	0	0	
9	0	0	0	0	419	449	0	0	0	0	
10	0	0	0	0	407	446	0	0	0	0	
11	0	0	0	0	398	444	0	0	0	0	
12	0	0	0	0	392	443	0	0	0	0	
13	0	0	0	0	391	443	0	0	0	0	
14	0	0	0	0	393	443	0	0	0	0	
15	0	0	0	0	399	444	0	0	0	0	
0	0	0	0	0	409	447	0	0	0	0	
1	0	0	0	0	422	451	0	0	0	0	
2	0	0	0	0	435	454	0	0	0	0	
3	0	0	0	0	447	455	0	0	0	0	
4	0	0	0	0	457	456	0	0	0	0	
5	0	0	0	0	462	455	0	0	0	0	
6	0	0	0	0	463	451	0	0	0	0	
7	0	0	0	0	459	446	0	0	0	0	
8	0	0	0	0	451	441	0	0	0	0	
9	0	0	0	0	442	436	0	0	0	0	
10	0	0	0	0	431	432	0	0	0	0	
11	0	0	0	0	420	431	0	0	0	0	
12	0	0	0	0	412	431	0	0	0	0	
13	0	0	0	0	407	435	0	0	0	0	
14	0	0	0	0	407	443	0	0	0	0	
15	0	0	0	0	412	453	0	0	0	0	
0	0	0	0	0	424	466	0	0	0	0	
1	0	0	0	0	440	481	0	0	0	0	
2	0	0	0	0	460	497	0	0	0	0	
3	0	0	0	0	482	512	0	0	0	0	
4	0	0	0	0	503	525	0	0	0	0	
5	0	0	0	0	521	534	0	0	0	0	
6	0	0	0	0	536	540	0	0	0	0	
7	0	0	0	0	544	540	0	0	0	0	
8	0	0	0	0	548	538	0	0	0	0	
9	0	0	0	0	545	532	0	0	0	0	
10	0	0	0	0	537	523	0	0	0	0	
11	0	0	0	0	524	511	0	0	0	0	
12	0	0	0	0	507	499	0	0	0	0	
13	0	0	0	0	487	487	0	0	0	0	
14	0	0	0	0	465	474	0	0	0	0	
15	0	0	0	0	444	463	0	0	0	0	
0	0	0	0	0	425	453	0	0	0	0	
1	0	0	0	0	408	444	0	0	0	0	
2	0	0	0	0	393	438	0	0	0	0	
3	0	0	0	0	383	432	0	0	0	0	
4	0	0	0	0	376	428	0	0	0	0	
5	0	0	0	0	374	425	0	0	0	0	
6	0	0	0	0	376	423	0	0	0	0	
7	0	0	0	0	381	423	0	0	0	0	
8	0	0	0	0	389	423	0	0	0	0	
9	0	0	0	0	399	424	0	0	0	0	
10	0	0	0	0	409	424	0	0	0	0	
11	0	0	0	0	419	425	0	0	0	0	
12	0	0	0	0	428	425	0	0	0	0	
13	0	0	0	0	435	425	0	0	0	0	
14	0	0	0	0	439	424	0	0	0	0	
15	0	0	0	0	440	424	0	0	0	0	
0	0	0	0	0	440	425	0	0	0	0	
1	0	0	0	0	437	426	0	0	0	0	
2	0	0	0	0	433	428	0	0	0	0	
3	0	0	0	0	428	430	0	0	0	0	
4	0	0	0	0	423	433	0	0	0	0	
5	0	0	0	0	419	438	0	0	0	0	
6	0	0	0	0	415	443	0	0	0	0	
7	0	0	0	0	415	448	0	0	0	0	
8	0	0	0	0	415	454	0	0	0	0	
9	0	0	0	0	418	458	0	0	0	0	
10	0	0	0	0	423	462	0	0	0	0	
11	0	0	0	0	430	465	0	0	0	0	
12	0	0	0	0	437	467	0	0	0	0	
13	0	0	0	0	444	467	0	0	0	0	
14	0	0	0	0	449	466	0	0	0	0	
15	0	0	0	0	453	463	0	0	0	0	
0	0	0	0	0	455	459	0	0	0	0	
1	0	0	0	0	454	454	0	0	0	0	
2	0	0	0	0	450	448	0	0	0	0	
3	0	0	0	0	443	443	0	0	0	0	
4	0	0	0	0	436	439	0	0	0	0	
5	0	0	0	0	428	436	0	0	0	0	
6	0	0	0	0	421	435	0	0	0	0	
7	0	0	0	0	414	435	0	0	0	0	
8	0	0	0	0	408	436	0	0	0	0	
9	0	0	0	0	404	439	0	0	0	0	
10	0	0	0	0	402	442	0	0	0	0	
11	0	0	0	0	403	447	0	0	0	0	
12	0	0	0	0	406	451	0	0	0	0	
13	0	0	0	0	412	455	0	0	0	0	
14	0	0	0	0	420	459	0	0	0	0	
15	0	0	0	0	431	463	0	0	0	0	
0	0	0	0	0	443	467	0	0	0	0	
1	0	0	0	0	455	471	0	0	0	0	
2	0	0	0	0	467	473	0	0	0	0	
3	0	0	0	0	477	475	0	0	0	0	
4	0	0	0	0	483	474	0	0	0	0	
5	0	0	0	0	485	470	0	0	0	0	
6	0	0	0	0	480	463	0	0	0	0	
7	0	0	0	0	471	455	0	0	0	0	
8	0	0	0	0	455	445	0	0	0	0	
9	0	0	0	0	438	435	0	0	0	0	
10	0	0	0	0	418	424	0	0	0	0	
11	0	0	0	0	399	416	0	0	0	0	
12	0	0	0	0	383	411	0	0	0	0	
13	0	0	0	0	369	407	0	0	0	0	
14	0	0	0	0	361	407	0	0	0	0	
15	0	0	0	0	358	409	0	0	0	0	
0	0	0	0	0	359	414	0	0	0	0	
1	0	0	0	0	367	419	0	0	0	0	
2	0	0	0	0	377	425	0	0	0	0	
3	0	0	0	0	390	431	0	0	0	0	
4	0	0	0	0	405	436	0	0	0	0	
5	0	0	0	0	421	440	0	0	0	0	
6	0	0	0	0	435	443	0	0	0	0	
7	0	0	0	0	447	444	0	0	0	0	
8	0	0	0	0	455	445	0	0	0	0	
9	0	0	0	0	461	445	0	0	0	0	
10	0	0	0	0	463	444	0	0	0	0	
11	0	0	0	0	462	444	0	0	0	0	
12	0	0	0	0	456	443	0	0	0	0	
13	0	0	0	0	449	444	0	0	0	0	
14	0	0	0	0	440	444	0	0	0	0	
15	0	0	0	0	431	444	0	0	0	0	
0	0	0	0	0	420	444	0	0	0	0	
1	0	0	0	0	411	446	0	0	0	0	
2	0	0	0	0	404	447	0	0	0	0	
3	0	0	0	0	400	449	0	0	0	0	
4	0	0	0	0	399	451	0	0	0	0	
5	0	0	0	0	401	454	0	0	0	0	
6	0	0	0	0	406	456	0	0	0	0	
7	0	0	0	0	414	458	0	0	0	0	
8	0	0	0	0	423	459	0	0	0	0	
9	0	0	0	0	432	459	0	0	0	0	
10	0	0	0	0	440	457	0	0	0	0	
11	0	0	0	0	446	453	0	0	0	0	
12	0	0	0	0	449	448	0	0	0	0	
13	0	0	0	0	448	441	0	0	0	0	
14	0	0	0	0	445	435	0	0	0	0	
15	0	0	0	0	439	428	0	0	0	0	
0	0	0	0	0	431	423	0	0	0	0	
1	0	0	0	0	423	419	0	0	0	0	
2	0	0	0	0	415	417	0	0	0	0	
3	0	0	0	0	407	417	0	0	0	0	
4	0	0	0	0	401	419	0	0	0	0	
5	0	0	0	0	397	423	0	0	0	0	
6	0	0	0	0	395	428	0	0	0	0	
7	0	0	0	0	395	433	0	0	0	0	
8	0	0	0	0	397	438	0	0	0	0	
9	0	0	0	0	400	441	0	0	0	0	
10	0	0	0	0	403	442	0	0	0	0	
11	0	0	0	0	407	441	0	0	0	0	
12	0	0	0	0	411	440	0	0	0	0	
13	0	0	0	0	415	436	0	0	0	0	
14	0	0	0	0	419	432	0	0	0	0	
15	0	0	0	0	423	430	0	0	0	0	
0	0	0	0	0	427	427	0	0	0	0	
1	0	0	0	0	431	426	0	0	0	0	
2	0	0	0	0	435	427	0	0	0	0	
3	0	0	0	0	438	429	0	0	0	0	
4	0	0	0	0	439	432	0	0	0	0	
5	0	0	0	0	439	434	0	0	0	0	
6	0	0	0	0	435	435	0	0	0	0	
7	0	0	0	0	428	435	0	0	0	0	
8	0	0	0	0	420	434	0	0	0	0	
9	0	0	0	0	411	432	0	0	0	0	
10	0	0	0	0	401	430	0	0	0	0	
11	0	0	0	0	393	428	0	0	0	0	
12	0	0	0	0	387	425	0	0	0	0	
13	0	0	0	0	383	424	0	0	0	0	
14	0	0	0	0	383	423	0	0	0	0	
15	0	0	0	0	388	425	0	0	0	0	
0	0	0	0	0	396	429	0	0	0	0	
1	0	0	0	0	408	433	0	0	0	0	
2	0	0	0	0	421	438	0	0	0	0	
3	0	0	0	0	433	440	0	0	0	0	
4	0	0	0	0	442	441	0	0	0	0	
5	0	0	0	0	447	440	0	0	0	0	
6	0	0	0	0	447	436	0	0	0	0	
7	0	0	0	0	443	431	0	0	0	0	
8	0	0	0	0	434	424	0	0	0	0	
9	0	0	0	0	422	417	0	0	0	0	
10	0	0	0	0	407	410	0	0	0	0	
11	0	0	0	0	392	403	0	0	0	0	
12	0	0	0	0	377	398	0	0	0	0	
13	0	0	0	0	364	393	0	0	0	0	
14	0	0	0	0	354	391	0	0	0	0	
15	0	0	0	0	348	391	0	0	0	0	
0	0	0	0	0	347	392	0	0	0	0	
1	0	0	0	0	350	395	0	0	0	0	
2	0	0	0	0	356	398	0	0	0	0	
3	0	0	0	0	365	401	0	0	0	0	
4	0	0	0	0	376	404	0	0	0	0	
5	0	0	0	0	387	407	0	0	0	0	
6	0	0	0	0	398	408	0	0	0	0	
7	0	0	0	0	406	409	0	0	0	0	
8	0	0	0	0	414	409	0	0	0	0	
9	0	0	0	0	419	409	0	0	0	0	
10	0	0	0	0	422	409	0	0	0	0	
11	0	0	0	0	422	410	0	0	0	0	
12	0	0	0	0	422	414	0	0	0	0	
13	0	0	0	0	423	418	0	0	0	0	
14	0	0	0	0	423	425	0	0	0	0	
15	0	0	0	0	425	434	0	0	0	0	
0	0	0	0	0	427	443	0	0	0	0	
1	0	0	0	0	430	453	0	0	0	0	
2	0	0	0	0	433	461	0	0	0	0	
3	0	0	0	0	437	468	0	0	0	0	
4	0	0	0	0	440	473	0	0	0	0	
5	0	0	0	0	443	475	0	0	0	0	
6	0	0	0	0	446	477	0	0	0	0	
7	0	0	0	0	449	477	0	0	0	0	
8	0	0	0	0	453	476	0	0	0	0	
9	0	0	0	0	456	474	0	0	0	0	
10	0	0	0	0	458	470	0	0	0	0	
11	0	0	0	0	459	466	0	0	0	0	
12	0	0	0	0	457	460	0	0	0	0	
13	0	0	0	0	451	451	0	0	0	0	
14	0	0	0	0	443	441	0	0	0	0	
15	0	0	0	0	431	429	0	0	0	0	
0	0	0	0	0	415	417	0	0	0	0	
1	0	0	0	0	399	405	0	0	0	0	
2	0	0	0	0	382	394	0	0	0	0	
3	0	0	0	0	367	385	0	0	0	0	
4	0	0	0	0	354	379	0	0	0	0	
5	0	0	0	0	345	376	0	0	0	0	
6	0	0	0	0	342	376	0	0	0	0	
7	0	0	0	0	344	380	0	0	0	0	
8	0	0	0	0	350	387	0	0	0	0	
9	0	0	0	0	361	396	0	0	0	0	
10	0	0	0	0	378	406	0	0	0	0	
11	0	0	0	0	397	418	0	0	0	0	
12	0	0	0	0	419	430	0	0	0	0	
13	0	0	0	0	440	441	0	0	0	0	
14	0	0	0	0	460	451	0	0	0	0	
15	0	0	0	0	476	460	0	0	0	0	
0	0	0	0	0	489	467	0	0	0	0	
1	0	0	0	0	497	471	0	0	0	0	
2	0	0	0	0	499	473	0	0	0	0	
3	0	0	0	0	496	473	0	0	0	0	
4	0	0	0	0	488	472	0	0	0	0	
5	0	0	0	0	476	469	0	0	0	0	
6	0	0	0	0	460	463	0	0	0	0	
7	0	0	0	0	442	456	0	0	0	0	
8	0	0	0	0	423	448	0	0	0	0	
9	0	0	0	0	406	440	0	0	0	0	
10	0	0	0	0	391	433	0	0	0	0	
11	0	0	0	0	380	428	0	0	0	0	
12	0	0	0	0	373	425	0	0	0	0	
13	0	0	0	0	372	423	0	0	0	0	
14	0	0	0	0	376	424	0	0	0	0	
15	0	0	0	0	384	426	0	0	0	0	
0	0	0	0	0	395	429	0	0	0	0	
1	0	0	0	0	408	433	0	0	0	0	
2	0	0	0	0	423	436	0	0	0	0	
3	0	0	0	0	435	438	0	0	0	0	
4	0	0	0	0	444	438	0	0	0	0	
5	0	0	0	0	448	435	0	0	0	0	
6	0	0	0	0	445	428	0	0	0	0	
7	0	0	0	0	437	420	0	0	0	0	
8	0	0	0	0	423	409	0	0	0	0	
9	0	0	0	0	407	399	0	0	0	0	
10	0	0	0	0	389	390	0	0	0	0	
11	0	0	0	0	371	381	0	0	0	0	
12	0	0	0	0	356	376	0	0	0	0	
13	0	0	0	0	345	375	0	0	0	0	
14	0	0	0	0	341	379	0	0	0	0	
15	0	0	0	0	343	386	0	0	0	0	
0	0	0	0	0	352	396	0	0	0	0	
1	0	0	0	0	365	408	0	0	0	0	
2	0	0	0	0	384	421	0	0	0	0	
3	0	0	0	0	404	434	0	0	0	0	
4	0	0	0	0	424	444	0	0	0	0	
5	0	0	0	0	443	452	0	0	0	0	
6	0	0	0	0	458	457	0	0	0	0	
7	0	0	0	0	468	457	0	0	0	0	
8	0	0	0	0	472	455	0	0	0	0	
9	0	0	0	0	470	448	0	0	0	0	
10	0	0	0	0	461	439	0	0	0	0	
11	0	0	0	0	448	428	0	0	0	0	
12	0	0	0	0	431	418	0	0	0	0	
13	0	0	0	0	412	407	0	0	0	0	
14	0	0	0	0	391	398	0	0	0	0	
15	0	0	0	0	373	391	0	0	0	0	
0	0	0	0	0	358	387	0	0	0	0	
1	0	0	0	0	348	387	0	0	0	0	
2	0	0	0	0	344	391	0	0	0	0	
3	0	0	0	0	346	397	0	0	0	0	
4	0	0	0	0	355	407	0	0	0	0	
5	0	0	0	0	368	417	0	0	0	0	
6	0	0	0	0	386	429	0	0	0	0	
7	0	0	0	0	408	440	0	0	0	0	
8	0	0	0	0	429	451	0	0	0	0	
9	0	0	0	0	449	459	0	0	0	0	
10	0	0	0	0	465	463	0	0	0	0	
11	0	0	0	0	476	464	0	0	0	0	
12	0	0	0	0	480	462	0	0	0	0	
13	0	0	0	0	478	455	0	0	0	0	
14	0	0	0	0	469	447	0	0	0	0	
15	0	0	0	0	455	436	0	0	0	0	
0	0	0	0	0	439	428	0	0	0	0	
1	0	0	0	0	421	419	0	0	0	0	
2	0	0	0	0	404	412	0	0	0	0	
3	0	0	0	0	389	409	0	0	0	0	
4	0	0	0	0	377	409	0	0	0	0	
5	0	0	0	0	371	414	0	0	0	0	
6	0	0	0	0	371	421	0	0	0	0	
7	0	0	0	0	377	431	0	0	0	0	
8	0	0	0	0	387	441	0	0	0	0	
9	0	0	0	0	401	452	0	0	0	0	
10	0	0	0	0	417	463	0	0	0	0	
11	0	0	0	0	435	472	0	0	0	0	
12	0	0	0	0	451	477	0	0	0	0	
13	0	0	0	0	463	478	0	0	0	0	
14	0	0	0	0	470	475	0	0	0	0	
15	0	0	0	0	472	469	0	0	0	0	
0	0	0	0	0	469	460	0	0	0	0	
1	0	0	0	0	462	449	0	0	0	0	
2	0	0	0	0	451	439	0	0	0	0	
3	0	0	0	0	438	428	0	0	0	0	
4	0	0	0	0	423	421	0	0	0	0	
5	0	0	0	0	409	414	0	0	0	0	
6	0	0	0	0	396	409	0	0	0	0	
7	0	0	0	0	383	407	0	0	0	0	
8	0	0	0	0	372	406	0	0	0	0	
9	0	0	0	0	366	407	0	0	0	0	
10	0	0	0	0	364	411	0	0	0	0	
11	0	0	0	0	366	417	0	0	0	0	
12	0	0	0	0	372	423	0	0	0	0	
13	0	0	0	0	382	431	0	0	0	0	
14	0	0	0	0	394	439	0	0	0	0	
15	0	0	0	0	409	447	0	0	0	0	
0	0	0	0	0	425	455	0	0	0	0	
1	0	0	0	0	441	462	0	0	0	0	
2	0	0	0	0	456	467	0	0	0	0	
3	0	0	0	0	468	472	0	0	0	0	
4	0	0	0	0	477	475	0	0	0	0	
5	0	0	0	0	481	475	0	0	0	0	
6	0	0	0	0	479	471	0	0	0	0	
7	0	0	0	0	471	464	0	0	0	0	
8	0	0	0	0	459	455	0	0	0	0	
9	0	0	0	0	441	445	0	0	0	0	
10	0	0	0	0	422	433	0	0	0	0	
11	0	0	0	0	400	421	0	0	0	0	
12	0	0	0	0	380	409	0	0	0	0	
13	0	0	0	0	361	399	0	0	0	0	
14	0	0	0	0	347	393	0	0	0	0	
15	0	0	0	0	338	388	0	0	0	0	
0	0	0	0	0	334	387	0	0	0	0	
1	0	0	0	0	335	388	0	0	0	0	
2	0	0	0	0	344	393	0	0	0	0	
3	0	0	0	0	356	399	0	0	0	0	
4	0	0	0	0	371	407	0	0	0	0	
5	0	0	0	0	389	415	0	0	0	0	
6	0	0	0	0	406	423	0	0	0	0	
7	0	0	0	0	422	430	0	0	0	0	
8	0	0	0	0	435	435	0	0	0	0	
9	0	0	0	0	445	438	0	0	0	0	
10	0	0	0	0	449	440	0	0	0	0	
11	0	0	0	0	450	439	0	0	0	0	
12	0	0	0	0	446	438	0	0	0	0	
13	0	0	0	0	440	437	0	0	0	0	
14	0	0	0	0	431	435	0	0	0	0	
15	0	0	0	0	419	432	0	0	0	0	
0	0	0	0	0	408	430	0	0	0	0	
1	0	0	0	0	396	428	0	0	0	0	
2	0	0	0	0	387	427	0	0	0	0	
3	0	0	0	0	382	428	0	0	0	0	
4	0	0	0	0	381	431	0	0	0	0	
5	0	0	0	0	385	436	0	0	0	0	
6	0	0	0	0	394	444	0	0	0	0	
7	0	0	0	0	408	453	0	0	0	0	
8	0	0	0	0	425	463	0	0	0	0	
9	0	0	0	0	442	471	0	0	0	0	
10	0	0	0	0	458	477	0	0	0	0	
11	0	0	0	0	469	478	0	0	0	0	
12	0	0	0	0	475	476	0	0	0	0	
13	0	0	0	0	473	469	0	0	0	0	
14	0	0	0	0	466	458	0	0	0	0	
15	0	0	0	0	452	444	0	0	0	0	
0	0	0	0	0	435	430	0	0	0	0	
1	0	0	0	0	415	416	0	0	0	0	
2	0	0	0	0	393	403	0	0	0	0	
3	0	0	0	0	373	392	0	0	0	0	
4	0	0	0	0	355	384	0	0	0	0	
5	0	0	0	0	342	380	0	0	0	0	
6	0	0	0	0	333	380	0	0	0	0	
7	0	0	0	0	332	384	0	0	0	0	
8	0	0	0	0	336	391	0	0	0	0	
9	0	0	0	0	348	403	0	0	0	0	
10	0	0	0	0	367	416	0	0	0	0	
11	0	0	0	0	391	432	0	0	0	0	
12	0	0	0	0	417	448	0	0	0	0	
13	0	0	0	0	444	463	0	0	0	0	
14	0	0	0	0	468	475	0	0	0	0	
15	0	0	0	0	487	481	0	0	0	0	
0	0	0	0	0	498	483	0	0	0	0	
1	0	0	0	0	501	479	0	0	0	0	
2	0	0	0	0	496	471	0	0	0	0	
3	0	0	0	0	482	459	0	0	0	0	
4	0	0	0	0	463	445	0	0	0	0	
5	0	0	0	0	441	431	0	0	0	0	
6	0	0	0	0	416	416	0	0	0	0	
7	0	0	0	0	393	405	0	0	0	0	
8	0	0	0	0	371	397	0	0	0	0	
9	0	0	0	0	355	392	0	0	0	0	
10	0	0	0	0	345	393	0	0	0	0	
11	0	0	0	0	343	397	0	0	0	0	
12	0	0	0	0	346	404	0	0	0	0	
13	0	0	0	0	356	414	0	0	0	0	
14	0	0	0	0	371	423	0	0	0	0	
15	0	0	0	0	388	434	0	0	0	0	
0	0	0	0	0	407	442	0	0	0	0	
1	0	0	0	0	426	449	0	0	0	0	
2	0	0	0	0	443	454	0	0	0	0	
3	0	0	0	0	456	456	0	0	0	0	
4	0	0	0	0	465	455	0	0	0	0	
5	0	0	0	0	469	453	0	0	0	0	
6	0	0	0	0	468	449	0	0	0	0	
7	0	0	0	0	463	444	0	0	0	0	
8	0	0	0	0	455	440	0	0	0	0	
9	0	0	0	0	447	438	0	0	0	0	
10	0	0	0	0	436	435	0	0	0	0	
11	0	0	0	0	425	433	0	0	0	0	
12	0	0	0	0	414	431	0	0	0	0	
13	0	0	0	0	402	428	0	0	0	0	
14	0	0	0	0	391	425	0	0	0	0	
15	0	0	0	0	382	421	0	0	0	0	
0	0	0	0	0	374	416	0	0	0	0	
1	0	0	0	0	367	410	0	0	0	0	
2	0	0	0	0	363	404	0	0	0	0	
3	0	0	0	0	361	399	0	0	0	0	
4	0	0	0	0	362	394	0	0	0	0	
5	0	0	0	0	366	390	0	0	0	0	
6	0	0	0	0	371	387	0	0	0	0	
7	0	0	0	0	377	384	0	0	0	0	
8	0	0	0	0	382	383	0	0	0	0	
9	0	0	0	0	388	382	0	0	0	0	
10	0	0	0	0	391	381	0	0	0	0	
11	0	0	0	0	394	381	0	0	0	0	
12	0	0	0	0	395	381	0	0	0	0	
13	0	0	0	0	394	383	0	0	0	0	
14	0	0	0	0	392	385	0	0	0	0	
15	0	0	0	0	390	388	0	0	0	0	
0	0	0	0	0	387	391	0	0	0	0	
1	0	0	0	0	385	394	0	0	0	0	
2	0	0	0	0	384	399	0	0	0	0	
3	0	0	0	0	386	404	0	0	0	0	
4	0	0	0	0	389	409	0	0	0	0	
5	0	0	0	0	394	414	0	0	0	0	
6	0	0	0	0	402	419	0	0	0	0	
7	0	0	0	0	411	424	0	0	0	0	
8	0	0	0	0	422	429	0	0	0	0	
9	0	0	0	0	433	433	0	0	0	0	
10	0	0	0	0	445	438	0	0	0	0	
11	0	0	0	0	455	441	0	0	0	0	
12	0	0	0	0	463	443	0	0	0	0	
13	0	0	0	0	467	444	0	0	0	0	
14	0	0	0	0	467	443	0	0	0	0	
15	0	0	0	0	462	440	0	0	0	0	
0	0	0	0	0	452	435	0	0	0	0	
1	0	0	0	0	439	429	0	0	0	0	
2	0	0	0	0	424	423	0	0	0	0	
3	0	0	0	0	409	416	0	0	0	0	
4	0	0	0	0	395	412	0	0	0	0	
5	0	0	0	0	384	409	0	0	0	0	
6	0	0	0	0	376	408	0	0	0	0	
7	0	0	0	0	373	408	0	0	0	0	
8	0	0	0	0	374	411	0	0	0	0	
9	0	0	0	0	378	414	0	0	0	0	
10	0	0	0	0	384	416	0	0	0	0	
11	0	0	0	0	393	419	0	0	0	0	
12	0	0	0	0	403	420	0	0	0	0	
13	0	0	0	0	410	419	0	0	0	0	
14	0	0	0	0	416	416	0	0	0	0	
15	0	0	0	0	418	411	0	0	0	0	
0	0	0	0	0	417	404	0	0	0	0	
1	0	0	0	0	413	395	0	0	0	0	
2	0	0	0	0	405	386	0	0	0	0	
3	0	0	0	0	395	377	0	0	0	0	
4	0	0	0	0	383	368	0	0	0	0	
5	0	0	0	0	370	361	0	0	0	0	
6	0	0	0	0	359	357	0	0	0	0	
7	0	0	0	0	350	354	0	0	0	0	
8	0	0	0	0	344	355	0	0	0	0	
9	0	0	0	0	342	359	0	0	0	0	
10	0	0	0	0	344	365	0	0	0	0	
11	0	0	0	0	349	373	0	0	0	0	
12	0	0	0	0	359	382	0	0	0	0	
13	0	0	0	0	371	392	0	0	0	0	
14	0	0	0	0	386	402	0	0	0	0	
15	0	0	0	0	403	413	0	0	0	0	
0	0	0	0	0	419	421	0	0	0	0	
1	0	0	0	0	434	428	0	0	0	0	
2	0	0	0	0	446	432	0	0	0	0	
3	0	0	0	0	453	432	0	0	0	0	
4	0	0	0	0	455	428	0	0	0	0	
5	0	0	0	0	451	422	0	0	0	0	
6	0	0	0	0	442	414	0	0	0	0	
7	0	0	0	0	430	404	0	0	0	0	
8	0	0	0	0	414	395	0	0	0	0	
9	0	0	0	0	399	386	0	0	0	0	
10	0	0	0	0	383	379	0	0	0	0	
11	0	0	0	0	369	374	0	0	0	0	
12	0	0	0	0	357	370	0	0	0	0	
13	0	0	0	0	347	368	0	0	0	0	
14	0	0	0	0	341	367	0	0	0	0	
15	0	0	0	0	338	367	0	0	0	0	
0	0	0	0	0	339	368	0	0	0	0	
1	0	0	0	0	343	368	0	0	0	0	
2	0	0	0	0	349	369	0	0	0	0	
3	0	0	0	0	356	368	0	0	0	0	
4	0	0	0	0	364	366	0	0	0	0	
5	0	0	0	0	368	360	0	0	0	0	
6	0	0	0	0	367	351	0	0	0	0	
7	0	0	0	0	360	337	0	0	0	0	
8	0	0	0	0	346	318	0	0	0	0	
9	0	0	0	0	325	295	0	0	0	0	
10	0	0	0	0	298	269	0	0	0	0	
11	0	0	0	0	265	240	0	0	0	0	
12	0	0	0	0	229	210	0	0	0	0	
13	0	0	0	0	191	182	0	0	0	0	
14	0	0	0	0	154	156	0	0	0	0	
15	0	0	0	0	120	134	0	0	0	0	
0	0	0	0	0	93	118	0	0	0	0	
1	0	0	0	0	75	110	0	0	0	0	
2	0	0	0	0	68	110	0	0	0	0	
3	0	0	0	0	75	120	0	0	0	0	
4	0	0	0	0	93	137	0	0	0	0	
5	0	0	0	0	124	162	0	0	0	0	
6	0	0	0	0	165	193	0	0	0	0	
7	0	0	0	0	214	230	0	0	0	0	
8	0	0	0	0	269	269	0	0	0	0	
9	0	0	0	0	326	308	0	0	0	0	
10	0	0	0	0	382	346	0	0	0	0	
11	0	0	0	0	435	383	0	0	0	0	
12	0	0	0	0	481	417	0	0	0	0	
13	0	0	0	0	519	445	0	0	0	0	
14	0	0	0	0	545	467	0	0	0	0	
15	0	0	0	0	561	483	0	0	0	0	
0	0	0	0	0	565	494	0	0	0	0	
1	0	0	0	0	559	499	0	0	0	0	
2	0	0	0	0	544	497	0	0	0	0	
3	0	0	0	0	520	490	0	0	0	0	
4	0	0	0	0	493	479	0	0	0	0	
5	0	0	0	0	463	466	0	0	0	0	
6	0	0	0	0	434	452	0	0	0	0	
7	0	0	0	0	408	438	0	0	0	0	
8	0	0	0	0	385	425	0	0	0	0	
9	0	0	0	0	368	412	0	0	0	0	
10	0	0	0	0	358	403	0	0	0	0	
11	0	0	0	0	355	397	0	0	0	0	
12	0	0	0	0	359	394	0	0	0	0	
13	0	0	0	0	368	393	0	0	0	0	
14	0	0	0	0	382	395	0	0	0	0	
15	0	0	0	0	398	399	0	0	0	0	
0	0	0	0	0	415	404	0	0	0	0	
1	0	0	0	0	432	410	0	0	0	0	
2	0	0	0	0	445	415	0	0	0	0	
3	0	0	0	0	454	419	0	0	0	0	
4	0	0	0	0	458	422	0	0	0	0	
5	0	0	0	0	458	424	0	0	0	0	
6	0	0	0	0	454	426	0	0	0	0	
7	0	0	0	0	447	427	0	0	0	0	
8	0	0	0	0	438	428	0	0	0	0	
9	0	0	0	0	429	430	0	0	0	0	
10	0	0	0	0	422	433	0	0	0	0	
11	0	0	0	0	417	437	0	0	0	0	
12	0	0	0	0	416	441	0	0	0	0	
13	0	0	0	0	418	446	0	0	0	0	
14	0	0	0	0	423	450	0	0	0	0	
15	0	0	0	0	431	455	0	0	0	0	
0	0	0	0	0	441	459	0	0	0	0	
1	0	0	0	0	453	463	0	0	0	0	
2	0	0	0	0	467	467	0	0	0	0	
3	0	0	0	0	479	471	0	0	0	0	
4	0	0	0	0	489	473	0	0	0	0	
5	0	0	0	0	496	473	0	0	0	0	
6	0	0	0	0	498	472	0	0	0	0	
7	0	0	0	0	496	468	0	0	0	0	
8	0	0	0	0	489	464	0	0	0	0	
9	0	0	0	0	480	459	0	0	0	0	
10	0	0	0	0	467	452	0	0	0	0	
11	0	0	0	0	451	444	0	0	0	0	
12	0	0	0	0	435	437	0	0	0	0	
13	0	0	0	0	418	429	0	0	0	0	
14	0	0	0	0	403	423	0	0	0	0	
15	0	0	0	0	392	418	0	0	0	0	
0	0	0	0	0	384	415	0	0	0	0	
1	0	0	0	0	381	413	0	0	0	0	
2	0	0	0	0	383	414	0	0	0	0	
3	0	0	0	0	391	417	0	0	0	0	
4	0	0	0	0	402	421	0	0	0	0	
5	0	0	0	0	416	427	0	0	0	0	
6	0	0	0	0	432	433	0	0	0	0	
7	0	0	0	0	448	439	0	0	0	0	
8	0	0	0	0	463	445	0	0	0	0	
9	0	0	0	0	475	451	0	0	0	0	
10	0	0	0	0	483	454	0	0	0	0	
11	0	0	0	0	485	455	0	0	0	0	
12	0	0	0	0	481	455	0	0	0	0	
13	0	0	0	0	473	451	0	0	0	0	
14	0	0	0	0	459	446	0	0	0	0	
15	0	0	0	0	441	438	0	0	0	0	
0	0	0	0	0	421	428	0	0	0	0	
1	0	0	0	0	400	419	0	0	0	0	
2	0	0	0	0	382	410	0	0	0	0	
3	0	0	0	0	367	403	0	0	0	0	
4	0	0	0	0	357	397	0	0	0	0	
5	0	0	0	0	353	395	0	0	0	0	
6	0	0	0	0	356	396	0	0	0	0	
7	0	0	0	0	365	399	0	0	0	0	
8	0	0	0	0	380	405	0	0	0	0	
9	0	0	0	0	398	413	0	0	0	0	
10	0	0	0	0	419	421	0	0	0	0	
11	0	0	0	0	438	428	0	0	0	0	
12	0	0	0	0	456	436	0	0	0	0	
13	0	0	0	0	471	442	0	0	0	0	
14	0	0	0	0	480	446	0	0	0	0	
15	0	0	0	0	483	447	0	0	0	0	
0	0	0	0	0	481	447	0	0	0	0	
1	0	0	0	0	475	446	0	0	0	0	
2	0	0	0	0	464	443	0	0	0	0	
3	0	0	0	0	452	440	0	0	0	0	
4	0	0	0	0	438	437	0	0	0	0	
5	0	0	0	0	425	434	0	0	0	0	
6	0	0	0	0	415	433	0	0	0	0	
7	0	0	0	0	408	435	0	0	0	0	
8	0	0	0	0	406	438	0	0	0	0	
9	0	0	0	0	409	442	0	0	0	0	
10	0	0	0	0	415	447	0	0	0	0	
11	0	0	0	0	425	453	0	0	0	0	
12	0	0	0	0	437	459	0	0	0	0	
13	0	0	0	0	450	463	0	0	0	0	
14	0	0	0	0	462	467	0	0	0	0	
15	0	0	0	0	473	469	0	0	0	0	
0	0	0	0	0	482	471	0	0	0	0	
1	0	0	0	0	487	470	0	0	0	0	
2	0	0	0	0	487	466	0	0	0	0	
3	0	0	0	0	483	462	0	0	0	0	
4	0	0	0	0	475	456	0	0	0	0	
5	0	0	0	0	464	451	0	0	0	0	
6	0	0	0	0	451	445	0	0	0	0	
7	0	0	0	0	437	440	0	0	0	0	
8	0	0	0	0	423	436	0	0	0	0	
9	0	0	0	0	410	434	0	0	0	0	
10	0	0	0	0	402	434	0	0	0	0	
11	0	0	0	0	399	437	0	0	0	0	
12	0	0	0	0	401	443	0	0	0	0	
13	0	0	0	0	411	451	0	0	0	0	
14	0	0	0	0	425	463	0	0	0	0	
15	0	0	0	0	445	474	0	0	0	0	
0	0	0	0	0	466	486	0	0	0	0	
1	0	0	0	0	488	496	0	0	0	0	
2	0	0	0	0	510	505	0	0	0	0	
3	0	0	0	0	528	514	0	0	0	0	
4	0	0	0	0	543	519	0	0	0	0	
5	0	0	0	0	552	521	0	0	0	0	
6	0	0	0	0	551	517	0	0	0	0	
7	0	0	0	0	541	507	0	0	0	0	
8	0	0	0	0	522	493	0	0	0	0	
9	0	0	0	0	496	474	0	0	0	0	
10	0	0	0	0	464	453	0	0	0	0	
11	0	0	0	0	430	432	0	0	0	0	
12	0	0	0	0	397	412	0	0	0	0	
13	0	0	0	0	368	395	0	0	0	0	
14	0	0	0	0	345	384	0	0	0	0	
15	0	0	0	0	332	379	0	0	0	0	
0	0	0	0	0	328	380	0	0	0	0	
1	0	0	0	0	332	384	0	0	0	0	
2	0	0	0	0	343	391	0	0	0	0	
3	0	0	0	0	359	400	0	0	0	0	
4	0	0	0	0	378	408	0	0	0	0	
5	0	0	0	0	398	416	0	0	0	0	
6	0	0	0	0	417	421	0	0	0	0	
7	0	0	0	0	433	425	0	0	0	0	
8	0	0	0	0	445	425	0	0	0	0	
9	0	0	0	0	452	423	0	0	0	0	
10	0	0	0	0	454	419	0	0	0	0	
11	0	0	0	0	449	413	0	0	0	0	
12	0	0	0	0	441	408	0	0	0	0	
13	0	0	0	0	431	402	0	0	0	0	
14	0	0	0	0	419	397	0	0	0	0	
15	0	0	0	0	407	395	0	0	0	0	
0	0	0	0	0	398	395	0	0	0	0	
1	0	0	0	0	391	399	0	0	0	0	
2	0	0	0	0	390	405	0	0	0	0	
3	0	0	0	0	393	414	0	0	0	0	
4	0	0	0	0	400	424	0	0	0	0	
5	0	0	0	0	412	436	0	0	0	0	
6	0	0	0	0	427	449	0	0	0	0	
7	0	0	0	0	444	460	0	0	0	0	
8	0	0	0	0	460	471	0	0	0	0	
9	0	0	0	0	476	478	0	0	0	0	
10	0	0	0	0	489	483	0	0	0	0	
11	0	0	0	0	499	487	0	0	0	0	
12	0	0	0	0	506	487	0	0	0	0	
13	0	0	0	0	507	484	0	0	0	0	
14	0	0	0	0	504	480	0	0	0	0	
15	0	0	0	0	496	474	0	0	0	0	
0	0	0	0	0	483	466	0	0	0	0	
1	0	0	0	0	468	457	0	0	0	0	
2	0	0	0	0	451	448	0	0	0	0	
3	0	0	0	0	435	441	0	0	0	0	
4	0	0	0	0	419	435	0	0	0	0	
5	0	0	0	0	406	431	0	0	0	0	
6	0	0	0	0	397	429	0	0	0	0	
7	0	0	0	0	393	430	0	0	0	0	
8	0	0	0	0	396	434	0	0	0	0	
9	0	0	0	0	403	440	0	0	0	0	
10	0	0	0	0	417	449	0	0	0	0	
11	0	0	0	0	435	459	0	0	0	0	
12	0	0	0	0	455	470	0	0	0	0	
13	0	0	0	0	479	482	0	0	0	0	
14	0	0	0	0	503	495	0	0	0	0	
15	0	0	0	0	525	507	0	0	0	0	
0	0	0	0	0	546	519	0	0	0	0	
1	0	0	0	0	563	529	0	0	0	0	
2	0	0	0	0	574	537	0	0	0	0	
3	0	0	0	0	579	542	0	0	0	0	
4	0	0	0	0	574	540	0	0	0	0	
5	0	0	0	0	562	535	0	0	0	0	
6	0	0	0	0	543	524	0	0	0	0	
7	0	0	0	0	517	509	0	0	0	0	
8	0	0	0	0	488	492	0	0	0	0	
9	0	0	0	0	459	475	0	0	0	0	
10	0	0	0	0	432	458	0	0	0	0	
11	0	0	0	0	410	445	0	0	0	0	
12	0	0	0	0	395	435	0	0	0	0	
13	0	0	0	0	387	430	0	0	0	0	
14	0	0	0	0	388	428	0	0	0	0	
15	0	0	0	0	396	431	0	0	0	0	
0	0	0	0	0	410	436	0	0	0	0	
1	0	0	0	0	427	442	0	0	0	0	
2	0	0	0	0	445	448	0	0	0	0	
3	0	0	0	0	462	452	0	0	0	0	
4	0	0	0	0	475	454	0	0	0	0	
5	0	0	0	0	482	453	0	0	0	0	
6	0	0	0	0	483	448	0	0	0	0	
7	0	0	0	0	478	440	0	0	0	0	
8	0	0	0	0	466	430	0	0	0	0	
9	0	0	0	0	451	420	0	0	0	0	
10	0	0	0	0	432	409	0	0	0	0	
11	0	0	0	0	412	400	0	0	0	0	
12	0	0	0	0	393	392	0	0	0	0	
13	0	0	0	0	378	387	0	0	0	0	
14	0	0	0	0	367	387	0	0	0	0	
15	0	0	0	0	363	390	0	0	0	0	
0	0	0	0	0	364	396	0	0	0	0	
1	0	0	0	0	371	404	0	0	0	0	
2	0	0	0	0	383	414	0	0	0	0	
3	0	0	0	0	398	424	0	0	0	0	
4	0	0	0	0	415	433	0	0	0	0	
5	0	0	0	0	433	441	0	0	0	0	
6	0	0	0	0	448	446	0	0	0	0	
7	0	0	0	0	460	448	0	0	0	0	
8	0	0	0	0	469	449	0	0	0	0	
9	0	0	0	0	475	449	0	0	0	0	
10	0	0	0	0	476	448	0	0	0	0	
11	0	0	0	0	476	447	0	0	0	0	
12	0	0	0	0	474	447	0	0	0	0	
13	0	0	0	0	471	450	0	0	0	0	
14	0	0	0	0	469	454	0	0	0	0	
15	0	0	0	0	467	459	0	0	0	0	
0	0	0	0	0	464	463	0	0	0	0	
1	0	0	0	0	463	468	0	0	0	0	
2	0	0	0	0	460	472	0	0	0	0	
3	0	0	0	0	459	475	0	0	0	0	
4	0	0	0	0	457	476	0	0	0	0	
5	0	0	0	0	457	478	0	0	0	0	
6	0	0	0	0	460	480	0	0	0	0	
7	0	0	0	0	465	483	0	0	0	0	
8	0	0	0	0	473	487	0	0	0	0	
9	0	0	0	0	483	492	0	0	0	0	
10	0	0	0	0	495	498	0	0	0	0	
11	0	0	0	0	505	503	0	0	0	0	
12	0	0	0	0	512	505	0	0	0	0	
13	0	0	0	0	516	505	0	0	0	0	
14	0	0	0	0	513	500	0	0	0	0	
15	0	0	0	0	504	492	0	0	0	0	
0	0	0	0	0	488	479	0	0	0	0	
1	0	0	0	0	468	463	0	0	0	0	
2	0	0	0	0	443	445	0	0	0	0	
3	0	0	0	0	417	427	0	0	0	0	
4	0	0	0	0	391	409	0	0	0	0	
5	0	0	0	0	368	395	0	0	0	0	
6	0	0	0	0	349	384	0	0	0	0	
7	0	0	0	0	337	377	0	0	0	0	
8	0	0	0	0	333	375	0	0	0	0	
9	0	0	0	0	335	377	0	0	0	0	
10	0	0	0	0	345	383	0	0	0	0	
11	0	0	0	0	361	391	0	0	0	0	
12	0	0	0	0	382	403	0	0	0	0	
13	0	0	0	0	406	415	0	0	0	0	
14	0	0	0	0	431	427	0	0	0	0	
15	0	0	0	0	454	439	0	0	0	0	
0	0	0	0	0	476	450	0	0	0	0	
1	0	0	0	0	495	460	0	0	0	0	
2	0	0	0	0	507	466	0	0	0	0	
3	0	0	0	0	513	470	0	0	0	0	
4	0	0	0	0	511	471	0	0	0	0	
5	0	0	0	0	504	470	0	0	0	0	
6	0	0	0	0	492	466	0	0	0	0	
7	0	0	0	0	476	460	0	0	0	0	
8	0	0	0	0	459	454	0	0	0	0	
9	0	0	0	0	443	448	0	0	0	0	
10	0	0	0	0	431	446	0	0	0	0	
11	0	0	0	0	423	446	0	0	0	0	
12	0	0	0	0	422	448	0	0	0	0	
13	0	0	0	0	428	454	0	0	0	0	
14	0	0	0	0	438	462	0	0	0	0	
15	0	0	0	0	455	471	0	0	0	0	
0	0	0	0	0	473	480	0	0	0	0	
1	0	0	0	0	492	487	0	0	0	0	
2	0	0	0	0	507	492	0	0	0	0	
3	0	0	0	0	516	492	0	0	0	0	
4	0	0	0	0	520	487	0	0	0	0	
5	0	0	0	0	516	478	0	0	0	0	
6	0	0	0	0	506	466	0	0	0	0	
7	0	0	0	0	490	453	0	0	0	0	
8	0	0	0	0	471	440	0	0	0	0	
9	0	0	0	0	451	428	0	0	0	0	
10	0	0	0	0	432	420	0	0	0	0	
11	0	0	0	0	416	416	0	0	0	0	
12	0	0	0	0	406	418	0	0	0	0	
13	0	0	0	0	403	424	0	0	0	0	
14	0	0	0	0	408	437	0	0	0	0	
15	0	0	0	0	419	452	0	0	0	0	
0	0	0	0	0	437	470	0	0	0	0	
1	0	0	0	0	458	488	0	0	0	0	
2	0	0	0	0	481	504	0	0	0	0	
3	0	0	0	0	503	518	0	0	0	0	
4	0	0	0	0	523	528	0	0	0	0	
5	0	0	0	0	538	532	0	0	0	0	
6	0	0	0	0	546	532	0	0	0	0	
7	0	0	0	0	548	527	0	0	0	0	
8	0	0	0	0	543	518	0	0	0	0	
9	0	0	0	0	532	504	0	0	0	0	
10	0	0	0	0	515	489	0	0	0	0	
11	0	0	0	0	496	473	0	0	0	0	
12	0	0	0	0	474	460	0	0	0	0	
13	0	0	0	0	454	448	0	0	0	0	
14	0	0	0	0	435	438	0	0	0	0	
15	0	0	0	0	420	433	0	0	0	0	
0	0	0	0	0	411	432	0	0	0	0	
1	0	0	0	0	408	437	0	0	0	0	
2	0	0	0	0	412	444	0	0	0	0	
3	0	0	0	0	420	454	0	0	0	0	
4	0	0	0	0	432	464	0	0	0	0	
5	0	0	0	0	445	473	0	0	0	0	
6	0	0	0	0	459	481	0	0	0	0	
7	0	0	0	0	472	486	0	0	0	0	
8	0	0	0	0	483	488	0	0	0	0	
9	0	0	0	0	492	488	0	0	0	0	
10	0	0	0	0	496	486	0	0	0	0	
11	0	0	0	0	498	483	0	0	0	0	
12	0	0	0	0	496	478	0	0	0	0	
13	0	0	0	0	490	470	0	0	0	0	
14	0	0	0	0	479	461	0	0	0	0	
15	0	0	0	0	463	451	0	0	0	0	
0	0	0	0	0	446	440	0	0	0	0	
1	0	0	0	0	427	431	0	0	0	0	
2	0	0	0	0	409	423	0	0	0	0	
3	0	0	0	0	394	417	0	0	0	0	
4	0	0	0	0	381	415	0	0	0	0	
5	0	0	0	0	375	415	0	0	0	0	
6	0	0	0	0	373	419	0	0	0	0	
7	0	0	0	0	378	425	0	0	0	0	
8	0	0	0	0	387	432	0	0	0	0	
9	0	0	0	0	398	439	0	0	0	0	
10	0	0	0	0	412	446	0	0	0	0	
11	0	0	0	0	427	451	0	0	0	0	
12	0	0	0	0	440	453	0	0	0	0	
13	0	0	0	0	451	453	0	0	0	0	
14	0	0	0	0	459	451	0	0	0	0	
15	0	0	0	0	464	446	0	0	0	0	
0	0	0	0	0	465	442	0	0	0	0	
1	0	0	0	0	464	437	0	0	0	0	
2	0	0	0	0	461	433	0	0	0	0	
3	0	0	0	0	457	431	0	0	0	0	
4	0	0	0	0	451	431	0	0	0	0	
5	0	0	0	0	447	435	0	0	0	0	
6	0	0	0	0	444	440	0	0	0	0	
7	0	0	0	0	440	447	0	0	0	0	
8	0	0	0	0	438	455	0	0	0	0	
9	0	0	0	0	436	462	0	0	0	0	
10	0	0	0	0	435	469	0	0	0	0	
11	0	0	0	0	435	475	0	0	0	0	
12	0	0	0	0	435	479	0	0	0	0	
13	0	0	0	0	436	480	0	0	0	0	
14	0	0	0	0	437	479	0	0	0	0	
15	0	0	0	0	439	477	0	0	0	0	
0	0	0	0	0	441	473	0	0	0	0	
1	0	0	0	0	444	469	0	0	0	0	
2	0	0	0	0	447	464	0	0	0	0	
3	0	0	0	0	449	460	0	0	0	0	
4	0	0	0	0	453	456	0	0	0	0	
5	0	0	0	0	455	454	0	0	0	0	
6	0	0	0	0	459	454	0	0	0	0	
7	0	0	0	0	462	455	0	0	0	0	
8	0	0	0	0	463	458	0	0	0	0	
9	0	0	0	0	463	462	0	0	0	0	
10	0	0	0	0	462	466	0	0	0	0	
11	0	0	0	0	458	469	0	0	0	0	
12	0	0	0	0	454	472	0	0	0	0	
13	0	0	0	0	448	473	0	0	0	0	
14	0	0	0	0	442	475	0	0	0	0	
15	0	0	0	0	436	475	0	0	0	0	
0	0	0	0	0	432	474	0	0	0	0	
1	0	0	0	0	428	472	0	0	0	0	
2	0	0	0	0	427	470	0	0	0	0	
3	0	0	0	0	429	468	0	0	0	0	
4	0	0	0	0	432	467	0	0	0	0	
5	0	0	0	0	438	466	0	0	0	0	
6	0	0	0	0	443	465	0	0	0	0	
7	0	0	0	0	449	464	0	0	0	0	
8	0	0	0	0	453	463	0	0	0	0	
9	0	0	0	0	457	463	0	0	0	0	
10	0	0	0	0	458	463	0	0	0	0	
11	0	0	0	0	459	463	0	0	0	0	
12	0	0	0	0	457	464	0	0	0	0	
13	0	0	0	0	455	467	0	0	0	0	
14	0	0	0	0	452	469	0	0	0	0	
15	0	0	0	0	448	472	0	0	0	0	
0	0	0	0	0	444	474	0	0	0	0	
1	0	0	0	0	440	476	0	0	0	0	
2	0	0	0	0	436	479	0	0	0	0	
3	0	0	0	0	436	482	0	0	0	0	
4	0	0	0	0	439	486	0	0	0	0	
5	0	0	0	0	446	492	0	0	0	0	
6	0	0	0	0	456	499	0	0	0	0	
7	0	0	0	0	469	506	0	0	0	0	
8	0	0	0	0	482	512	0	0	0	0	
9	0	0	0	0	495	516	0	0	0	0	
10	0	0	0	0	504	516	0	0	0	0	
11	0	0	0	0	508	513	0	0	0	0	
12	0	0	0	0	508	507	0	0	0	0	
13	0	0	0	0	502	497	0	0	0	0	
14	0	0	0	0	492	486	0	0	0	0	
15	0	0	0	0	477	473	0	0	0	0	
0	0	0	0	0	458	461	0	0	0	0	
1	0	0	0	0	438	447	0	0	0	0	
2	0	0	0	0	416	434	0	0	0	0	
3	0	0	0	0	395	422	0	0	0	0	
4	0	0	0	0	377	413	0	0	0	0	
5	0	0	0	0	363	408	0	0	0	0	
6	0	0	0	0	355	406	0	0	0	0	
7	0	0	0	0	352	408	0	0	0	0	
8	0	0	0	0	358	414	0	0	0	0	
9	0	0	0	0	368	422	0	0	0	0	
10	0	0	0	0	384	432	0	0	0	0	
11	0	0	0	0	403	443	0	0	0	0	
12	0	0	0	0	424	452	0	0	0	0	
13	0	0	0	0	444	460	0	0	0	0	
14	0	0	0	0	461	464	0	0	0	0	
15	0	0	0	0	472	465	0	0	0	0	
0	0	0	0	0	478	461	0	0	0	0	
1	0	0	0	0	478	455	0	0	0	0	
2	0	0	0	0	473	448	0	0	0	0	
3	0	0	0	0	464	441	0	0	0	0	
4	0	0	0	0	453	435	0	0	0	0	
5	0	0	0	0	441	431	0	0	0	0	
6	0	0	0	0	429	429	0	0	0	0	
7	0	0	0	0	419	430	0	0	0	0	
8	0	0	0	0	412	434	0	0	0	0	
9	0	0	0	0	407	440	0	0	0	0	
10	0	0	0	0	406	448	0	0	0	0	
11	0	0	0	0	408	456	0	0	0	0	
12	0	0	0	0	414	464	0	0	0	0	
13	0	0	0	0	421	470	0	0	0	0	
14	0	0	0	0	428	473	0	0	0	0	
15	0	0	0	0	435	474	0	0	0	0	
0	0	0	0	0	440	470	0	0	0	0	
1	0	0	0	0	441	462	0	0	0	0	
2	0	0	0	0	439	451	0	0	0	0	
3	0	0	0	0	434	438	0	0	0	0	
4	0	0	0	0	426	423	0	0	0	0	
5	0	0	0	0	415	409	0	0	0	0	
6	0	0	0	0	404	396	0	0	0	0	
7	0	0	0	0	391	384	0	0	0	0	
8	0	0	0	0	379	375	0	0	0	0	
9	0	0	0	0	368	369	0	0	0	0	
10	0	0	0	0	359	366	0	0	0	0	
11	0	0	0	0	354	368	0	0	0	0	
12	0	0	0	0	352	372	0	0	0	0	
13	0	0	0	0	354	380	0	0	0	0	
14	0	0	0	0	360	391	0	0	0	0	
15	0	0	0	0	370	404	0	0	0	0	
0	0	0	0	0	383	417	0	0	0	0	
1	0	0	0	0	396	429	0	0	0	0	
2	0	0	0	0	411	439	0	0	0	0	
3	0	0	0	0	425	447	0	0	0	0	
4	0	0	0	0	437	451	0	0	0	0	
5	0	0	0	0	447	453	0	0	0	0	
6	0	0	0	0	454	452	0	0	0	0	
7	0	0	0	0	457	448	0	0	0	0	
8	0	0	0	0	457	443	0	0	0	0	
9	0	0	0	0	453	435	0	0	0	0	
10	0	0	0	0	446	427	0	0	0	0	
11	0	0	0	0	439	420	0	0	0	0	
12	0	0	0	0	430	414	0	0	0	0	
13	0	0	0	0	423	412	0	0	0	0	
14	0	0	0	0	417	411	0	0	0	0	
15	0	0	0	0	412	413	0	0	0	0	
0	0	0	0	0	410	417	0	0	0	0	
1	0	0	0	0	409	423	0	0	0	0	
2	0	0	0	0	411	429	0	0	0	0	
3	0	0	0	0	414	436	0	0	0	0	
4	0	0	0	0	419	442	0	0	0	0	
5	0	0	0	0	425	448	0	0	0	0	
6	0	0	0	0	431	453	0	0	0	0	
7	0	0	0	0	438	456	0	0	0	0	
8	0	0	0	0	445	458	0	0	0	0	
9	0	0	0	0	451	457	0	0	0	0	
10	0	0	0	0	455	455	0	0	0	0	
11	0	0	0	0	456	452	0	0	0	0	
12	0	0	0	0	457	448	0	0	0	0	
13	0	0	0	0	456	444	0	0	0	0	
14	0	0	0	0	454	441	0	0	0	0	
15	0	0	0	0	451	440	0	0	0	0	
0	0	0	0	0	448	440	0	0	0	0	
1	0	0	0	0	446	440	0	0	0	0	
2	0	0	0	0	444	442	0	0	0	0	
3	0	0	0	0	441	445	0	0	0	0	
4	0	0	0	0	439	448	0	0	0	0	
5	0	0	0	0	437	452	0	0	0	0	
6	0	0	0	0	436	455	0	0	0	0	
7	0	0	0	0	436	458	0	0	0	0	
8	0	0	0	0	437	461	0	0	0	0	
9	0	0	0	0	440	463	0	0	0	0	
10	0	0	0	0	443	465	0	0	0	0	
11	0	0	0	0	448	465	0	0	0	0	
12	0	0	0	0	450	462	0	0	0	0	
13	0	0	0	0	450	455	0	0	0	0	
14	0	0	0	0	446	444	0	0	0	0	
15	0	0	0	0	438	432	0	0	0	0	
0	0	0	0	0	428	416	0	0	0	0	
1	0	0	0	0	414	401	0	0	0	0	
2	0	0	0	0	399	385	0	0	0	0	
3	0	0	0	0	383	371	0	0	0	0	
4	0	0	0	0	366	359	0	0	0	0	
5	0	0	0	0	350	348	0	0	0	0	
6	0	0	0	0	335	341	0	0	0	0	
7	0	0	0	0	324	336	0	0	0	0	
8	0	0	0	0	316	335	0	0	0	0	
9	0	0	0	0	312	338	0	0	0	0	
10	0	0	0	0	314	343	0	0	0	0	
11	0	0	0	0	320	350	0	0	0	0	
12	0	0	0	0	331	359	0	0	0	0	
13	0	0	0	0	345	369	0	0	0	0	
14	0	0	0	0	362	379	0	0	0	0	
15	0	0	0	0	381	390	0	0	0	0	
0	0	0	0	0	401	399	0	0	0	0	
1	0	0	0	0	420	408	0	0	0	0	
2	0	0	0	0	438	415	0	0	0	0	
3	0	0	0	0	452	422	0	0	0	0	
4	0	0	0	0	463	425	0	0	0	0	
5	0	0	0	0	468	428	0	0	0	0	
6	0	0	0	0	468	428	0	0	0	0	
7	0	0	0	0	464	425	0	0	0	0	
8	0	0	0	0	455	423	0	0	0	0	
9	0	0	0	0	443	419	0	0	0	0	
10	0	0	0	0	429	415	0	0	0	0	
11	0	0	0	0	415	411	0	0	0	0	
12	0	0	0	0	401	408	0	0	0	0	
13	0	0	0	0	390	405	0	0	0	0	
14	0	0	0	0	381	403	0	0	0	0	
15	0	0	0	0	375	402	0	0	0	0	
0	0	0	0	0	371	400	0	0	0	0	
1	0	0	0	0	369	398	0	0	0	0	
2	0	0	0	0	369	395	0	0	0	0	
3	0	0	0	0	371	391	0	0	0	0	
4	0	0	0	0	374	385	0	0	0	0	
5	0	0	0	0	377	379	0	0	0	0	
6	0	0	0	0	378	371	0	0	0	0	
7	0	0	0	0	378	363	0	0	0	0	
8	0	0	0	0	376	353	0	0	0	0	
9	0	0	0	0	370	342	0	0	0	0	
10	0	0	0	0	361	331	0	0	0	0	
11	0	0	0	0	348	319	0	0	0	0	
12	0	0	0	0	333	307	0	0	0	0	
13	0	0	0	0	315	295	0	0	0	0	
14	0	0	0	0	295	283	0	0	0	0	
15	0	0	0	0	275	273	0	0	0	0	
0	0	0	0	0	256	263	0	0	0	0	
1	0	0	0	0	239	256	0	0	0	0	
2	0	0	0	0	224	251	0	0	0	0	
3	0	0	0	0	214	247	0	0	0	0	
4	0	0	0	0	208	245	0	0	0	0	
5	0	0	0	0	207	246	0	0	0	0	
6	0	0	0	0	211	247	0	0	0	0	
7	0	0	0	0	220	251	0	0	0	0	
8	0	0	0	0	232	255	0	0	0	0	
9	0	0	0	0	247	258	0	0	0	0	
10	0	0	0	0	261	261	0	0	0	0	
11	0	0	0	0	275	263	0	0	0	0	
12	0	0	0	0	288	265	0	0	0	0	
13	0	0	0	0	300	268	0	0	0	0	
14	0	0	0	0	310	272	0	0	0	0	
15	0	0	0	0	318	279	0	0	0	0	
0	0	0	0	0	326	287	0	0	0	0	
1	0	0	0	0	334	299	0	0	0	0	
2	0	0	0	0	344	314	0	0	0	0	
3	0	0	0	0	353	332	0	0	0	0	
4	0	0	0	0	365	352	0	0	0	0	
5	0	0	0	0	378	374	0	0	0	0	
6	0	0	0	0	393	397	0	0	0	0	
7	0	0	0	0	409	420	0	0	0	0	
8	0	0	0	0	426	441	0	0	0	0	
9	0	0	0	0	442	459	0	0	0	0	
10	0	0	0	0	457	473	0	0	0	0	
11	0	0	0	0	469	482	0	0	0	0	
12	0	0	0	0	477	484	0	0	0	0	
13	0	0	0	0	481	482	0	0	0	0	
14	0	0	0	0	480	475	0	0	0	0	
15	0	0	0	0	474	463	0	0	0	0	
0	0	0	0	0	465	450	0	0	0	0	
1	0	0	0	0	453	436	0	0	0	0	
2	0	0	0	0	439	421	0	0	0	0	
3	0	0	0	0	423	408	0	0	0	0	
4	0	0	0	0	408	396	0	0	0	0	
5	0	0	0	0	393	387	0	0	0	0	
6	0	0	0	0	379	380	0	0	0	0	
7	0	0	0	0	368	376	0	0	0	0	
8	0	0	0	0	359	375	0	0	0	0	
9	0	0	0	0	353	377	0	0	0	0	
10	0	0	0	0	352	380	0	0	0	0	
11	0	0	0	0	354	386	0	0	0	0	
12	0	0	0	0	360	393	0	0	0	0	
13	0	0	0	0	371	402	0	0	0	0	
14	0	0	0	0	384	411	0	0	0	0	
15	0	0	0	0	400	420	0	0	0	0	
0	0	0	0	0	418	430	0	0	0	0	
1	0	0	0	0	435	437	0	0	0	0	
2	0	0	0	0	451	444	0	0	0	0	
3	0	0	0	0	464	448	0	0	0	0	
4	0	0	0	0	472	450	0	0	0	0	
5	0	0	0	0	476	449	0	0	0	0	
6	0	0	0	0	475	446	0	0	0	0	
7	0	0	0	0	468	441	0	0	0	0	
8	0	0	0	0	457	434	0	0	0	0	
9	0	0	0	0	443	427	0	0	0	0	
10	0	0	0	0	426	420	0	0	0	0	
11	0	0	0	0	408	414	0	0	0	0	
12	0	0	0	0	392	408	0	0	0	0	
13	0	0	0	0	379	405	0	0	0	0	
14	0	0	0	0	369	405	0	0	0	0	
15	0	0	0	0	364	408	0	0	0	0	
0	0	0	0	0	366	412	0	0	0	0	
1	0	0	0	0	375	421	0	0	0	0	
2	0	0	0	0	389	431	0	0	0	0	
3	0	0	0	0	408	444	0	0	0	0	
4	0	0	0	0	432	457	0	0	0	0	
5	0	0	0	0	458	472	0	0	0	0	
6	0	0	0	0	485	486	0	0	0	0	
7	0	0	0	0	511	499	0	0	0	0	
8	0	0	0	0	534	512	0	0	0	0	
9	0	0	0	0	552	522	0	0	0	0	
10	0	0	0	0	564	529	0	0	0	0	
11	0	0	0	0	567	531	0	0	0	0	
12	0	0	0	0	560	527	0	0	0	0	
13	0	0	0	0	545	519	0	0	0	0	
14	0	0	0	0	522	506	0	0	0	0	
15	0	0	0	0	494	490	0	0	0	0	
0	0	0	0	0	465	475	0	0	0	0	
1	0	0	0	0	436	460	0	0	0	0	
2	0	0	0	0	412	449	0	0	0	0	
3	0	0	0	0	393	440	0	0	0	0	
4	0	0	0	0	382	435	0	0	0	0	
5	0	0	0	0	377	433	0	0	0	0	
6	0	0	0	0	379	434	0	0	0	0	
7	0	0	0	0	389	438	0	0	0	0	
8	0	0	0	0	403	443	0	0	0	0	
9	0	0	0	0	422	451	0	0	0	0	
10	0	0	0	0	441	458	0	0	0	0	
11	0	0	0	0	461	464	0	0	0	0	
12	0	0	0	0	478	470	0	0	0	0	
13	0	0	0	0	491	473	0	0	0	0	
14	0	0	0	0	499	475	0	0	0	0	
15	0	0	0	0	500	473	0	0	0	0	
0	0	0	0	0	495	470	0	0	0	0	
1	0	0	0	0	487	465	0	0	0	0	
2	0	0	0	0	476	461	0	0	0	0	
3	0	0	0	0	463	457	0	0	0	0	
4	0	0	0	0	451	455	0	0	0	0	
5	0	0	0	0	440	454	0	0	0	0	
6	0	0	0	0	430	454	0	0	0	0	
7	0	0	0	0	423	453	0	0	0	0	
8	0	0	0	0	417	453	0	0	0	0	
9	0	0	0	0	415	452	0	0	0	0	
10	0	0	0	0	413	450	0	0	0	0	
11	0	0	0	0	413	447	0	0	0	0	
12	0	0	0	0	413	442	0	0	0	0	
13	0	0	0	0	413	436	0	0	0	0	
14	0	0	0	0	412	428	0	0	0	0	
15	0	0	0	0	411	420	0	0	0	0	
0	0	0	0	0	409	412	0	0	0	0	
1	0	0	0	0	407	406	0	0	0	0	
2	0	0	0	0	404	400	0	0	0	0	
3	0	0	0	0	400	395	0	0	0	0	
4	0	0	0	0	396	392	0	0	0	0	
5	0	0	0	0	391	391	0	0	0	0	
6	0	0	0	0	388	393	0	0	0	0	
7	0	0	0	0	385	395	0	0	0	0	
8	0	0	0	0	383	400	0	0	0	0	
9	0	0	0	0	383	405	0	0	0	0	
10	0	0	0	0	385	413	0	0	0	0	
11	0	0	0	0	389	420	0	0	0	0	
12	0	0	0	0	395	428	0	0	0	0	
13	0	0	0	0	403	435	0	0	0	0	
14	0	0	0	0	412	441	0	0	0	0	
15	0	0	0	0	422	446	0	0	0	0	
0	0	0	0	0	432	449	0	0	0	0	
1	0	0	0	0	440	449	0	0	0	0	
2	0	0	0	0	446	448	0	0	0	0	
3	0	0	0	0	449	445	0	0	0	0	
4	0	0	0	0	450	441	0	0	0	0	
5	0	0	0	0	448	435	0	0	0	0	
6	0	0	0	0	443	429	0	0	0	0	
7	0	0	0	0	435	423	0	0	0	0	
8	0	0	0	0	428	419	0	0	0	0	
9	0	0	0	0	420	417	0	0	0	0	
10	0	0	0	0	413	416	0	0	0	0	
11	0	0	0	0	407	418	0	0	0	0	
12	0	0	0	0	404	422	0	0	0	0	
13	0	0	0	0	403	428	0	0	0	0	
14	0	0	0	0	407	436	0	0	0	0	
15	0	0	0	0	414	446	0	0	0	0	
0	0	0	0	0	423	457	0	0	0	0	
1	0	0	0	0	436	468	0	0	0	0	
2	0	0	0	0	451	480	0	0	0	0	
3	0	0	0	0	468	492	0	0	0	0	
4	0	0	0	0	486	503	0	0	0	0	
5	0	0	0	0	503	512	0	0	0	0	
6	0	0	0	0	517	519	0	0	0	0	
7	0	0	0	0	529	524	0	0	0	0	
8	0	0	0	0	535	526	0	0	0	0	
9	0	0	0	0	536	524	0	0	0	0	
10	0	0	0	0	531	518	0	0	0	0	
11	0	0	0	0	521	510	0	0	0	0	
12	0	0	0	0	508	500	0	0	0	0	
13	0	0	0	0	490	489	0	0	0	0	
14	0	0	0	0	470	477	0	0	0	0	
15	0	0	0	0	448	464	0	0	0	0	
0	0	0	0	0	427	451	0	0	0	0	
1	0	0	0	0	405	440	0	0	0	0	
2	0	0	0	0	387	429	0	0	0	0	
3	0	0	0	0	371	419	0	0	0	0	
4	0	0	0	0	359	411	0	0	0	0	
5	0	0	0	0	352	405	0	0	0	0	
6	0	0	0	0	350	401	0	0	0	0	
7	0	0	0	0	353	400	0	0	0	0	
8	0	0	0	0	362	401	0	0	0	0	
9	0	0	0	0	375	403	0	0	0	0	
10	0	0	0	0	390	408	0	0	0	0	
11	0	0	0	0	406	413	0	0	0	0	
12	0	0	0	0	423	420	0	0	0	0	
13	0	0	0	0	438	427	0	0	0	0	
14	0	0	0	0	450	434	0	0	0	0	
15	0	0	0	0	460	441	0	0	0	0	
0	0	0	0	0	466	448	0	0	0	0	
1	0	0	0	0	469	454	0	0	0	0	
2	0	0	0	0	468	458	0	0	0	0	
3	0	0	0	0	463	461	0	0	0	0	
4	0	0	0	0	456	462	0	0	0	0	
5	0	0	0	0	448	463	0	0	0	0	
6	0	0	0	0	439	463	0	0	0	0	
7	0	0	0	0	430	461	0	0	0	0	
8	0	0	0	0	423	459	0	0	0	0	
9	0	0	0	0	417	456	0	0	0	0	
10	0	0	0	0	413	453	0	0	0	0	
11	0	0	0	0	412	450	0	0	0	0	
12	0	0	0	0	412	447	0	0	0	0	
13	0	0	0	0	415	444	0	0	0	0	
14	0	0	0	0	420	440	0	0	0	0	
15	0	0	0	0	425	436	0	0	0	0	
0	0	0	0	0	429	433	0	0	0	0	
1	0	0	0	0	432	428	0	0	0	0	
2	0	0	0	0	433	424	0	0	0	0	
3	0	0	0	0	432	420	0	0	0	0	
4	0	0	0	0	428	416	0	0	0	0	
5	0	0	0	0	423	413	0	0	0	0	
6	0	0	0	0	417	412	0	0	0	0	
7	0	0	0	0	412	412	0	0	0	0	
8	0	0	0	0	407	414	0	0	0	0	
9	0	0	0	0	403	419	0	0	0	0	
10	0	0	0	0	403	425	0	0	0	0	
11	0	0	0	0	404	433	0	0	0	0	
12	0	0	0	0	410	443	0	0	0	0	
13	0	0	0	0	417	451	0	0	0	0	
14	0	0	0	0	424	457	0	0	0	0	
15	0	0	0	0	431	460	0	0	0	0	
0	0	0	0	0	437	461	0	0	0	0	
1	0	0	0	0	440	458	0	0	0	0	
2	0	0	0	0	443	453	0	0	0	0	
3	0	0	0	0	443	446	0	0	0	0	
4	0	0	0	0	443	440	0	0	0	0	
5	0	0	0	0	442	435	0	0	0	0	
6	0	0	0	0	440	430	0	0	0	0	
7	0	0	0	0	438	427	0	0	0	0	
8	0	0	0	0	435	425	0	0	0	0	
9	0	0	0	0	431	425	0	0	0	0	
10	0	0	0	0	426	425	0	0	0	0	
11	0	0	0	0	418	423	0	0	0	0	
12	0	0	0	0	409	420	0	0	0	0	
13	0	0	0	0	398	414	0	0	0	0	
14	0	0	0	0	386	408	0	0	0	0	
15	0	0	0	0	375	402	0	0	0	0	
0	0	0	0	0	366	396	0	0	0	0	
1	0	0	0	0	361	391	0	0	0	0	
2	0	0	0	0	359	387	0	0	0	0	
3	0	0	0	0	361	386	0	0	0	0	
4	0	0	0	0	367	387	0	0	0	0	
5	0	0	0	0	376	389	0	0	0	0	
6	0	0	0	0	387	391	0	0	0	0	
7	0	0	0	0	397	395	0	0	0	0	
8	0	0	0	0	408	398	0	0	0	0	
9	0	0	0	0	416	401	0	0	0	0	
10	0	0	0	0	422	403	0	0	0	0	
11	0	0	0	0	423	403	0	0	0	0	
12	0	0	0	0	421	403	0	0	0	0	
13	0	0	0	0	416	403	0	0	0	0	
14	0	0	0	0	408	401	0	0	0	0	
15	0	0	0	0	399	399	0	0	0	0	
0	0	0	0	0	390	399	0	0	0	0	
1	0	0	0	0	380	398	0	0	0	0	
2	0	0	0	0	373	399	0	0	0	0	
3	0	0	0	0	368	401	0	0	0	0	
4	0	0	0	0	368	403	0	0	0	0	
5	0	0	0	0	371	407	0	0	0	0	
6	0	0	0	0	377	413	0	0	0	0	
7	0	0	0	0	388	419	0	0	0	0	
8	0	0	0	0	402	425	0	0	0	0	
9	0	0	0	0	416	431	0	0	0	0	
10	0	0	0	0	430	435	0	0	0	0	
11	0	0	0	0	441	439	0	0	0	0	
12	0	0	0	0	449	440	0	0	0	0	
13	0	0	0	0	454	439	0	0	0	0	
14	0	0	0	0	454	437	0	0	0	0	
15	0	0	0	0	451	433	0	0	0	0	
0	0	0	0	0	443	430	0	0	0	0	
1	0	0	0	0	433	427	0	0	0	0	
2	0	0	0	0	423	423	0	0	0	0	
3	0	0	0	0	412	423	0	0	0	0	
4	0	0	0	0	403	423	0	0	0	0	
5	0	0	0	0	396	427	0	0	0	0	
6	0	0	0	0	395	432	0	0	0	0	
7	0	0	0	0	396	439	0	0	0	0	
8	0	0	0	0	403	448	0	0	0	0	
9	0	0	0	0	412	457	0	0	0	0	
10	0	0	0	0	425	467	0	0	0	0	
11	0	0	0	0	442	478	0	0	0	0	
12	0	0	0	0	459	487	0	0	0	0	
13	0	0	0	0	476	496	0	0	0	0	
14	0	0	0	0	492	503	0	0	0	0	
15	0	0	0	0	504	508	0	0	0	0	
0	0	0	0	0	511	508	0	0	0	0	
1	0	0	0	0	512	504	0	0	0	0	
2	0	0	0	0	506	496	0	0	0	0	
3	0	0	0	0	494	484	0	0	0	0	
4	0	0	0	0	477	471	0	0	0	0	
5	0	0	0	0	457	456	0	0	0	0	
6	0	0	0	0	437	443	0	0	0	0	
7	0	0	0	0	417	431	0	0	0	0	
8	0	0	0	0	398	422	0	0	0	0	
9	0	0	0	0	383	414	0	0	0	0	
10	0	0	0	0	371	409	0	0	0	0	
11	0	0	0	0	364	408	0	0	0	0	
12	0	0	0	0	360	407	0	0	0	0	
13	0	0	0	0	361	408	0	0	0	0	
14	0	0	0	0	366	410	0	0	0	0	
15	0	0	0	0	375	415	0	0	0	0	
0	0	0	0	0	386	419	0	0	0	0	
1	0	0	0	0	399	423	0	0	0	0	
2	0	0	0	0	412	427	0	0	0	0	
3	0	0	0	0	425	431	0	0	0	0	
4	0	0	0	0	436	433	0	0	0	0	
5	0	0	0	0	445	435	0	0	0	0	
6	0	0	0	0	450	436	0	0	0	0	
7	0	0	0	0	452	436	0	0	0	0	
8	0	0	0	0	451	435	0	0	0	0	
9	0	0	0	0	446	434	0	0	0	0	
10	0	0	0	0	438	433	0	0	0	0	
11	0	0	0	0	430	432	0	0	0	0	
12	0	0	0	0	421	431	0	0	0	0	
13	0	0	0	0	412	432	0	0	0	0	
14	0	0	0	0	406	432	0	0	0	0	
15	0	0	0	0	401	432	0	0	0	0	
0	0	0	0	0	396	431	0	0	0	0	
1	0	0	0	0	393	428	0	0	0	0	
2	0	0	0	0	391	425	0	0	0	0	
3	0	0	0	0	389	420	0	0	0	0	
4	0	0	0	0	388	414	0	0	0	0	
5	0	0	0	0	388	407	0	0	0	0	
6	0	0	0	0	390	401	0	0	0	0	
7	0	0	0	0	392	397	0	0	0	0	
8	0	0	0	0	395	394	0	0	0	0	
9	0	0	0	0	398	392	0	0	0	0	
10	0	0	0	0	401	391	0	0	0	0	
11	0	0	0	0	403	392	0	0	0	0	
12	0	0	0	0	405	396	0	0	0	0	
13	0	0	0	0	408	400	0	0	0	0	
14	0	0	0	0	410	407	0	0	0	0	
15	0	0	0	0	412	413	0	0	0	0	
0	0	0	0	0	412	419	0	0	0	0	
1	0	0	0	0	412	424	0	0	0	0	
2	0	0	0	0	412	428	0	0	0	0	
3	0	0	0	0	411	430	0	0	0	0	
4	0	0	0	0	412	431	0	0	0	0	
5	0	0	0	0	412	431	0	0	0	0	
6	0	0	0	0	413	431	0	0	0	0	
7	0	0	0	0	415	428	0	0	0	0	
8	0	0	0	0	416	425	0	0	0	0	
9	0	0	0	0	418	421	0	0	0	0	
10	0	0	0	0	419	416	0	0	0	0	
11	0	0	0	0	418	411	0	0	0	0	
12	0	0	0	0	416	404	0	0	0	0	
13	0	0	0	0	412	398	0	0	0	0	
14	0	0	0	0	406	391	0	0	0	0	
15	0	0	0	0	398	384	0	0	0	0	
0	0	0	0	0	389	378	0	0	0	0	
1	0	0	0	0	380	373	0	0	0	0	
2	0	0	0	0	372	371	0	0	0	0	
3	0	0	0	0	365	371	0	0	0	0	
4	0	0	0	0	360	372	0	0	0	0	
5	0	0	0	0	357	376	0	0	0	0	
6	0	0	0	0	358	381	0	0	0	0	
7	0	0	0	0	361	388	0	0	0	0	
8	0	0	0	0	367	394	0	0	0	0	
9	0	0	0	0	374	399	0	0	0	0	
10	0	0	0	0	382	405	0	0	0	0	
11	0	0	0	0	391	409	0	0	0	0	
12	0	0	0	0	401	412	0	0	0	0	
13	0	0	0	0	411	415	0	0	0	0	
14	0	0	0	0	419	417	0	0	0	0	
15	0	0	0	0	427	419	0	0	0	0	
0	0	0	0	0	433	420	0	0	0	0	
1	0	0	0	0	437	422	0	0	0	0	
2	0	0	0	0	439	423	0	0	0	0	
3	0	0	0	0	438	424	0	0	0	0	
4	0	0	0	0	432	423	0	0	0	0	
5	0	0	0	0	424	420	0	0	0	0	
6	0	0	0	0	413	417	0	0	0	0	
7	0	0	0	0	401	412	0	0	0	0	
8	0	0	0	0	387	407	0	0	0	0	
9	0	0	0	0	374	402	0	0	0	0	
10	0	0	0	0	363	397	0	0	0	0	
11	0	0	0	0	353	393	0	0	0	0	
12	0	0	0	0	348	391	0	0	0	0	
13	0	0	0	0	347	389	0	0	0	0	
14	0	0	0	0	349	388	0	0	0	0	
15	0	0	0	0	354	388	0	0	0	0	
0	0	0	0	0	361	388	0	0	0	0	
1	0	0	0	0	371	389	0	0	0	0	
2	0	0	0	0	381	390	0	0	0	0	
3	0	0	0	0	391	392	0	0	0	0	
4	0	0	0	0	403	396	0	0	0	0	
5	0	0	0	0	414	402	0	0	0	0	
6	0	0	0	0	425	409	0	0	0	0	
7	0	0	0	0	435	417	0	0	0	0	
8	0	0	0	0	442	427	0	0	0	0	
9	0	0	0	0	447	435	0	0	0	0	
10	0	0	0	0	448	443	0	0	0	0	
11	0	0	0	0	447	449	0	0	0	0	
12	0	0	0	0	443	453	0	0	0	0	
13	0	0	0	0	436	455	0	0	0	0	
14	0	0	0	0	429	456	0	0	0	0	
15	0	0	0	0	422	455	0	0	0	0	
0	0	0	0	0	414	452	0	0	0	0	
1	0	0	0	0	408	448	0	0	0	0	
2	0	0	0	0	402	442	0	0	0	0	
3	0	0	0	0	399	435	0	0	0	0	
4	0	0	0	0	396	427	0	0	0	0	
5	0	0	0	0	393	417	0	0	0	0	
6	0	0	0	0	390	407	0	0	0	0	
7	0	0	0	0	385	396	0	0	0	0	
8	0	0	0	0	380	384	0	0	0	0	
9	0	0	0	0	374	374	0	0	0	0	
10	0	0	0	0	368	364	0	0	0	0	
11	0	0	0	0	361	356	0	0	0	0	
12	0	0	0	0	354	352	0	0	0	0	
13	0	0	0	0	349	350	0	0	0	0	
14	0	0	0	0	344	349	0	0	0	0	
15	0	0	0	0	340	352	0	0	0	0	
0	0	0	0	0	339	356	0	0	0	0	
1	0	0	0	0	340	364	0	0	0	0	
2	0	0	0	0	347	374	0	0	0	0	
3	0	0	0	0	356	385	0	0	0	0	
4	0	0	0	0	370	399	0	0	0	0	
5	0	0	0	0	386	412	0	0	0	0	
6	0	0	0	0	403	424	0	0	0	0	
7	0	0	0	0	421	435	0	0	0	0	
8	0	0	0	0	438	444	0	0	0	0	
9	0	0	0	0	451	449	0	0	0	0	
10	0	0	0	0	460	449	0	0	0	0	
11	0	0	0	0	463	447	0	0	0	0	
12	0	0	0	0	461	441	0	0	0	0	
13	0	0	0	0	453	432	0	0	0	0	
14	0	0	0	0	440	420	0	0	0	0	
15	0	0	0	0	424	408	0	0	0	0	
0	0	0	0	0	404	395	0	0	0	0	
1	0	0	0	0	383	383	0	0	0	0	
2	0	0	0	0	362	372	0	0	0	0	
3	0	0	0	0	342	362	0	0	0	0	
4	0	0	0	0	325	354	0	0	0	0	
5	0	0	0	0	312	350	0	0	0	0	
6	0	0	0	0	305	350	0	0	0	0	
7	0	0	0	0	305	353	0	0	0	0	
8	0	0	0	0	311	359	0	0	0	0	
9	0	0	0	0	322	368	0	0	0	0	
10	0	0	0	0	339	379	0	0	0	0	
11	0	0	0	0	358	390	0	0	0	0	
12	0	0	0	0	377	399	0	0	0	0	
13	0	0	0	0	395	405	0	0	0	0	
14	0	0	0	0	409	408	0	0	0	0	
15	0	0	0	0	418	409	0	0	0	0	
0	0	0	0	0	422	406	0	0	0	0	
1	0	0	0	0	420	400	0	0	0	0	
2	0	0	0	0	414	393	0	0	0	0	
3	0	0	0	0	405	387	0	0	0	0	
4	0	0	0	0	394	382	0	0	0	0	
5	0	0	0	0	384	381	0	0	0	0	
6	0	0	0	0	377	383	0	0	0	0	
7	0	0	0	0	375	390	0	0	0	0	
8	0	0	0	0	377	400	0	0	0	0	
9	0	0	0	0	383	413	0	0	0	0	
10	0	0	0	0	392	426	0	0	0	0	
11	0	0	0	0	402	437	0	0	0	0	
12	0	0	0	0	411	444	0	0	0	0	
13	0	0	0	0	417	447	0	0	0	0	
14	0	0	0	0	423	446	0	0	0	0	
15	0	0	0	0	425	441	0	0	0	0	
0	0	0	0	0	424	432	0	0	0	0	
1	0	0	0	0	420	420	0	0	0	0	
2	0	0	0	0	412	406	0	0	0	0	
3	0	0	0	0	401	390	0	0	0	0	
4	0	0	0	0	388	374	0	0	0	0	
5	0	0	0	0	374	358	0	0	0	0	
6	0	0	0	0	358	343	0	0	0	0	
7	0	0	0	0	343	331	0	0	0	0	
8	0	0	0	0	327	321	0	0	0	0	
9	0	0	0	0	315	315	0	0	0	0	
10	0	0	0	0	305	312	0	0	0	0	
11	0	0	0	0	298	313	0	0	0	0	
12	0	0	0	0	295	318	0	0	0	0	
13	0	0	0	0	297	325	0	0	0	0	
14	0	0	0	0	304	336	0	0	0	0	
15	0	0	0	0	315	349	0	0	0	0	
0	0	0	0	0	332	364	0	0	0	0	
1	0	0	0	0	351	380	0	0	0	0	
2	0	0	0	0	373	394	0	0	0	0	
3	0	0	0	0	396	409	0	0	0	0	
4	0	0	0	0	418	422	0	0	0	0	
5	0	0	0	0	438	431	0	0	0	0	
6	0	0	0	0	454	438	0	0	0	0	
7	0	0	0	0	464	440	0	0	0	0	
8	0	0	0	0	470	440	0	0	0	0	
9	0	0	0	0	468	435	0	0	0	0	
10	0	0	0	0	461	428	0	0	0	0	
11	0	0	0	0	449	420	0	0	0	0	
12	0	0	0	0	433	410	0	0	0	0	
13	0	0	0	0	415	402	0	0	0	0	
14	0	0	0	0	397	395	0	0	0	0	
15	0	0	0	0	381	390	0	0	0	0	
0	0	0	0	0	368	389	0	0	0	0	
1	0	0	0	0	361	392	0	0	0	0	
2	0	0	0	0	360	399	0	0	0	0	
3	0	0	0	0	366	408	0	0	0	0	
4	0	0	0	0	375	419	0	0	0	0	
5	0	0	0	0	388	431	0	0	0	0	
6	0	0	0	0	403	440	0	0	0	0	
7	0	0	0	0	416	447	0	0	0	0	
8	0	0	0	0	429	451	0	0	0	0	
9	0	0	0	0	438	451	0	0	0	0	
10	0	0	0	0	443	447	0	0	0	0	
11	0	0	0	0	442	438	0	0	0	0	
12	0	0	0	0	435	426	0	0	0	0	
13	0	0	0	0	422	410	0	0	0	0	
14	0	0	0	0	403	391	0	0	0	0	
15	0	0	0	0	381	373	0	0	0	0	
0	0	0	0	0	357	355	0	0	0	0	
1	0	0	0	0	333	340	0	0	0	0	
2	0	0	0	0	311	327	0	0	0	0	
3	0	0	0	0	291	318	0	0	0	0	
4	0	0	0	0	277	313	0	0	0	0	
5	0	0	0	0	269	311	0	0	0	0	
6	0	0	0	0	267	315	0	0	0	0	
7	0	0	0	0	271	322	0	0	0	0	
8	0	0	0	0	283	333	0	0	0	0	
9	0	0	0	0	299	344	0	0	0	0	
10	0	0	0	0	318	356	0	0	0	0	
11	0	0	0	0	338	367	0	0	0	0	
12	0	0	0	0	358	377	0	0	0	0	
13	0	0	0	0	375	384	0	0	0	0	
14	0	0	0	0	390	388	0	0	0	0	
15	0	0	0	0	399	390	0	0	0	0	
0	0	0	0	0	406	390	0	0	0	0	
1	0	0	0	0	408	389	0	0	0	0	
2	0	0	0	0	409	388	0	0	0	0	
3	0	0	0	0	406	387	0	0	0	0	
4	0	0	0	0	400	385	0	0	0	0	
5	0	0	0	0	393	384	0	0	0	0	
6	0	0	0	0	385	384	0	0	0	0	
7	0	0	0	0	376	383	0	0	0	0	
8	0	0	0	0	368	384	0	0	0	0	
9	0	0	0	0	362	385	0	0	0	0	
10	0	0	0	0	358	388	0	0	0	0	
11	0	0	0	0	356	391	0	0	0	0	
12	0	0	0	0	356	393	0	0	0	0	
13	0	0	0	0	357	393	0	0	0	0	
14	0	0	0	0	359	391	0	0	0	0	
15	0	0	0	0	359	387	0	0	0	0	
0	0	0	0	0	360	381	0	0	0	0	
1	0	0	0	0	360	373	0	0	0	0	
2	0	0	0	0	358	364	0	0	0	0	
3	0	0	0	0	355	354	0	0	0	0	
4	0	0	0	0	352	345	0	0	0	0	
5	0	0	0	0	348	337	0	0	0	0	
6	0	0	0	0	343	331	0	0	0	0	
7	0	0	0	0	340	327	0	0	0	0	
8	0	0	0	0	338	327	0	0	0	0	
9	0	0	0	0	337	330	0	0	0	0	
10	0	0	0	0	336	334	0	0	0	0	
11	0	0	0	0	334	337	0	0	0	0	
12	0	0	0	0	329	339	0	0	0	0	
13	0	0	0	0	321	336	0	0	0	0	
14	0	0	0	0	307	330	0	0	0	0	
15	0	0	0	0	289	318	0	0	0	0	
0	0	0	0	0	267	301	0	0	0	0	
1	0	0	0	0	242	280	0	0	0	0	
2	0	0	0	0	215	257	0	0	0	0	
3	0	0	0	0	190	232	0	0	0	0	
4	0	0	0	0	167	209	0	0	0	0	
5	0	0	0	0	147	187	0	0	0	0	
6	0	0	0	0	131	167	0	0	0	0	
7	0	0	0	0	120	151	0	0	0	0	
8	0	0	0	0	113	138	0	0	0	0	
9	0	0	0	0	111	130	0	0	0	0	
10	0	0	0	0	112	125	0	0	0	0	
11	0	0	0	0	118	125	0	0	0	0	
12	0	0	0	0	127	130	0	0	0	0	
13	0	0	0	0	140	140	0	0	0	0	
14	0	0	0	0	156	156	0	0	0	0	
15	0	0	0	0	176	175	0	0	0	0	
0	0	0	0	0	198	198	0	0	0	0	
1	0	0	0	0	222	224	0	0	0	0	
2	0	0	0	0	249	252	0	0	0	0	
3	0	0	0	0	279	283	0	0	0	0	
4	0	0	0	0	311	313	0	0	0	0	
5	0	0	0	0	344	345	0	0	0	0	
6	0	0	0	0	377	374	0	0	0	0	
7	0	0	0	0	408	400	0	0	0	0	
8	0	0	0	0	437	423	0	0	0	0	
9	0	0	0	0	461	440	0	0	0	0	
10	0	0	0	0	478	451	0	0	0	0	
11	0	0	0	0	487	454	0	0	0	0	
12	0	0	0	0	488	452	0	0	0	0	
13	0	0	0	0	482	444	0	0	0	0	
14	0	0	0	0	470	433	0	0	0	0	
15	0	0	0	0	452	419	0	0	0	0	
0	0	0	0	0	432	405	0	0	0	0	
1	0	0	0	0	411	392	0	0	0	0	
2	0	0	0	0	391	381	0	0	0	0	
3	0	0	0	0	371	372	0	0	0	0	
4	0	0	0	0	355	367	0	0	0	0	
5	0	0	0	0	343	364	0	0	0	0	
6	0	0	0	0	335	364	0	0	0	0	
7	0	0	0	0	331	367	0	0	0	0	
8	0	0	0	0	334	372	0	0	0	0	
9	0	0	0	0	340	380	0	0	0	0	
10	0	0	0	0	352	387	0	0	0	0	
11	0	0	0	0	366	396	0	0	0	0	
12	0	0	0	0	381	403	0	0	0	0	
13	0	0	0	0	396	408	0	0	0	0	
14	0	0	0	0	411	412	0	0	0	0	
15	0	0	0	0	422	413	0	0	0	0	
0	0	0	0	0	432	413	0	0	0	0	
1	0	0	0	0	436	411	0	0	0	0	
2	0	0	0	0	438	408	0	0	0	0	
3	0	0	0	0	435	404	0	0	0	0	
4	0	0	0	0	429	400	0	0	0	0	
5	0	0	0	0	421	398	0	0	0	0	
6	0	0	0	0	412	396	0	0	0	0	
7	0	0	0	0	402	395	0	0	0	0	
8	0	0	0	0	393	396	0	0	0	0	
9	0	0	0	0	387	399	0	0	0	0	
10	0	0	0	0	384	404	0	0	0	0	
11	0	0	0	0	384	410	0	0	0	0	
12	0	0	0	0	386	416	0	0	0	0	
13	0	0	0	0	392	422	0	0	0	0	
14	0	0	0	0	401	428	0	0	0	0	
15	0	0	0	0	412	433	0	0	0	0	
0	0	0	0	0	423	438	0	0	0	0	
1	0	0	0	0	435	440	0	0	0	0	
2	0	0	0	0	445	440	0	0	0	0	
3	0	0	0	0	452	440	0	0	0	0	
4	0	0	0	0	457	438	0	0	0	0	
5	0	0	0	0	458	433	0	0	0	0	
6	0	0	0	0	454	428	0	0	0	0	
7	0	0	0	0	447	421	0	0	0	0	
8	0	0	0	0	438	415	0	0	0	0	
9	0	0	0	0	427	409	0	0	0	0	
10	0	0	0	0	414	404	0	0	0	0	
11	0	0	0	0	401	400	0	0	0	0	
12	0	0	0	0	390	398	0	0	0	0	
13	0	0	0	0	380	396	0	0	0	0	
14	0	0	0	0	372	396	0	0	0	0	
15	0	0	0	0	368	397	0	0	0	0	
0	0	0	0	0	367	399	0	0	0	0	
1	0	0	0	0	369	402	0	0	0	0	
2	0	0	0	0	375	404	0	0	0	0	
3	0	0	0	0	382	406	0	0	0	0	
4	0	0	0	0	390	407	0	0	0	0	
5	0	0	0	0	398	407	0	0	0	0	
6	0	0	0	0	404	404	0	0	0	0	
7	0	0	0	0	409	401	0	0	0	0	
8	0	0	0	0	412	399	0	0	0	0	
9	0	0	0	0	414	395	0	0	0	0	
10	0	0	0	0	413	391	0	0	0	0	
11	0	0	0	0	410	388	0	0	0	0	
12	0	0	0	0	405	385	0	0	0	0	
13	0	0	0	0	399	384	0	0	0	0	
14	0	0	0	0	391	383	0	0	0	0	
15	0	0	0	0	384	384	0	0	0	0	
0	0	0	0	0	379	385	0	0	0	0	
1	0	0	0	0	375	390	0	0	0	0	
2	0	0	0	0	376	395	0	0	0	0	
3	0	0	0	0	380	404	0	0	0	0	
4	0	0	0	0	389	414	0	0	0	0	
5	0	0	0	0	401	425	0	0	0	0	
6	0	0	0	0	416	436	0	0	0	0	
7	0	0	0	0	429	444	0	0	0	0	
8	0	0	0	0	440	449	0	0	0	0	
9	0	0	0	0	447	449	0	0	0	0	
10	0	0	0	0	449	444	0	0	0	0	
11	0	0	0	0	447	436	0	0	0	0	
12	0	0	0	0	440	426	0	0	0	0	
13	0	0	0	0	429	413	0	0	0	0	
14	0	0	0	0	415	399	0	0	0	0	
15	0	0	0	0	399	385	0	0	0	0	
0	0	0	0	0	381	371	0	0	0	0	
1	0	0	0	0	363	359	0	0	0	0	
2	0	0	0	0	347	350	0	0	0	0	
3	0	0	0	0	332	343	0	0	0	0	
4	0	0	0	0	322	340	0	0	0	0	
5	0	0	0	0	316	340	0	0	0	0	
6	0	0	0	0	316	345	0	0	0	0	
7	0	0	0	0	321	353	0	0	0	0	
8	0	0	0	0	333	364	0	0	0	0	
9	0	0	0	0	351	379	0	0	0	0	
10	0	0	0	0	374	397	0	0	0	0	
11	0	0	0	0	403	416	0	0	0	0	
12	0	0	0	0	433	436	0	0	0	0	
13	0	0	0	0	463	455	0	0	0	0	
14	0	0	0	0	489	469	0	0	0	0	
15	0	0	0	0	508	478	0	0	0	0	
0	0	0	0	0	518	480	0	0	0	0	
1	0	0	0	0	518	475	0	0	0	0	
2	0	0	0	0	508	464	0	0	0	0	
3	0	0	0	0	489	448	0	0	0	0	
4	0	0	0	0	462	429	0	0	0	0	
5	0	0	0	0	433	409	0	0	0	0	
6	0	0	0	0	401	390	0	0	0	0	
7	0	0	0	0	371	374	0	0	0	0	
8	0	0	0	0	346	361	0	0	0	0	
9	0	0	0	0	326	353	0	0	0	0	
10	0	0	0	0	315	350	0	0	0	0	
11	0	0	0	0	312	353	0	0	0	0	
12	0	0	0	0	318	360	0	0	0	0	
13	0	0	0	0	332	371	0	0	0	0	
14	0	0	0	0	352	386	0	0	0	0	
15	0	0	0	0	379	401	0	0	0	0	
0	0	0	0	0	408	417	0	0	0	0	
1	0	0	0	0	436	432	0	0	0	0	
2	0	0	0	0	463	443	0	0	0	0	
3	0	0	0	0	485	452	0	0	0	0	
4	0	0	0	0	501	458	0	0	0	0	
5	0	0	0	0	510	460	0	0	0	0	
6	0	0	0	0	510	457	0	0	0	0	
7	0	0	0	0	503	451	0	0	0	0	
8	0	0	0	0	488	444	0	0	0	0	
9	0	0	0	0	469	435	0	0	0	0	
10	0	0	0	0	447	426	0	0	0	0	
11	0	0	0	0	423	417	0	0	0	0	
12	0	0	0	0	401	409	0	0	0	0	
13	0	0	0	0	381	404	0	0	0	0	
14	0	0	0	0	367	400	0	0	0	0	
15	0	0	0	0	358	400	0	0	0	0	
0	0	0	0	0	355	402	0	0	0	0	
1	0	0	0	0	359	406	0	0	0	0	
2	0	0	0	0	368	412	0	0	0	0	
3	0	0	0	0	383	418	0	0	0	0	
4	0	0	0	0	400	423	0	0	0	0	
5	0	0	0	0	417	428	0	0	0	0	
6	0	0	0	0	432	430	0	0	0	0	
7	0	0	0	0	444	431	0	0	0	0	
8	0	0	0	0	453	429	0	0	0	0	
9	0	0	0	0	457	425	0	0	0	0	
10	0	0	0	0	457	422	0	0	0	0	
11	0	0	0	0	454	418	0	0	0	0	
12	0	0	0	0	448	416	0	0	0	0	
13	0	0	0	0	441	415	0	0	0	0	
14	0	0	0	0	434	416	0	0	0	0	
15	0	0	0	0	425	417	0	0	0	0	
0	0	0	0	0	416	417	0	0	0	0	
1	0	0	0	0	407	418	0	0	0	0	
2	0	0	0	0	399	418	0	0	0	0	
3	0	0	0	0	394	418	0	0	0	0	
4	0	0	0	0	391	417	0	0	0	0	
5	0	0	0	0	392	417	0	0	0	0	
6	0	0	0	0	396	418	0	0	0	0	
7	0	0	0	0	402	418	0	0	0	0	
8	0	0	0	0	411	418	0	0	0	0	
9	0	0	0	0	420	417	0	0	0	0	
10	0	0	0	0	430	416	0	0	0	0	
11	0	0	0	0	438	415	0	0	0	0	
12	0	0	0	0	445	413	0	0	0	0	
13	0	0	0	0	450	412	0	0	0	0	
14	0	0	0	0	453	410	0	0	0	0	
15	0	0	0	0	453	409	0	0	0	0	
0	0	0	0	0	452	409	0	0	0	0	
1	0	0	0	0	448	409	0	0	0	0	
2	0	0	0	0	442	409	0	0	0	0	
3	0	0	0	0	434	409	0	0	0	0	
4	0	0	0	0	425	408	0	0	0	0	
5	0	0	0	0	415	407	0	0	0	0	
6	0	0	0	0	405	404	0	0	0	0	
7	0	0	0	0	396	402	0	0	0	0	
8	0	0	0	0	389	399	0	0	0	0	
9	0	0	0	0	386	398	0	0	0	0	
10	0	0	0	0	386	396	0	0	0	0	
11	0	0	0	0	390	397	0	0	0	0	
12	0	0	0	0	398	399	0	0	0	0	
13	0	0	0	0	409	402	0	0	0	0	
14	0	0	0	0	423	407	0	0	0	0	
15	0	0	0	0	438	412	0	0	0	0	
0	0	0	0	0	452	417	0	0	0	0	
1	0	0	0	0	465	422	0	0	0	0	
2	0	0	0	0	475	427	0	0	0	0	
3	0	0	0	0	480	430	0	0	0	0	
4	0	0	0	0	482	432	0	0	0	0	
5	0	0	0	0	480	432	0	0	0	0	
6	0	0	0	0	473	432	0	0	0	0	
7	0	0	0	0	464	429	0	0	0	0	
8	0	0	0	0	451	425	0	0	0	0	
9	0	0	0	0	438	420	0	0	0	0	
10	0	0	0	0	425	416	0	0	0	0	
11	0	0	0	0	414	412	0	0	0	0	
12	0	0	0	0	405	409	0	0	0	0	
13	0	0	0	0	402	408	0	0	0	0	
14	0	0	0	0	403	409	0	0	0	0	
15	0	0	0	0	411	414	0	0	0	0	
0	0	0	0	0	424	422	0	0	0	0	
1	0	0	0	0	442	431	0	0	0	0	
2	0	0	0	0	462	441	0	0	0	0	
3	0	0	0	0	482	451	0	0	0	0	
4	0	0	0	0	500	460	0	0	0	0	
5	0	0	0	0	514	466	0	0	0	0	
6	0	0	0	0	521	468	0	0	0	0	
7	0	0	0	0	521	466	0	0	0	0	
8	0	0	0	0	514	460	0	0	0	0	
9	0	0	0	0	499	449	0	0	0	0	
10	0	0	0	0	478	435	0	0	0	0	
11	0	0	0	0	452	420	0	0	0	0	
12	0	0	0	0	426	406	0	0	0	0	
13	0	0	0	0	401	392	0	0	0	0	
14	0	0	0	0	379	383	0	0	0	0	
15	0	0	0	0	362	376	0	0	0	0	
0	0	0	0	0	351	372	0	0	0	0	
1	0	0	0	0	346	372	0	0	0	0	
2	0	0	0	0	348	375	0	0	0	0	
3	0	0	0	0	356	380	0	0	0	0	
4	0	0	0	0	368	386	0	0	0	0	
5	0	0	0	0	384	393	0	0	0	0	
6	0	0	0	0	401	399	0	0	0	0	
7	0	0	0	0	419	406	0	0	0	0	
8	0	0	0	0	435	412	0	0	0	0	
9	0	0	0	0	448	417	0	0	0	0	
10	0	0	0	0	460	421	0	0	0	0	
11	0	0	0	0	467	424	0	0	0	0	
12	0	0	0	0	469	425	0	0	0	0	
13	0	0	0	0	468	426	0	0	0	0	
14	0	0	0	0	462	425	0	0	0	0	
15	0	0	0	0	453	423	0	0	0	0	
0	0	0	0	0	443	421	0	0	0	0	
1	0	0	0	0	430	419	0	0	0	0	
2	0	0	0	0	419	416	0	0	0	0	
3	0	0	0	0	409	415	0	0	0	0	
4	0	0	0	0	402	414	0	0	0	0	
5	0	0	0	0	399	415	0	0	0	0	
6	0	0	0	0	401	416	0	0	0	0	
7	0	0	0	0	406	419	0	0	0	0	
8	0	0	0	0	415	423	0	0	0	0	
9	0	0	0	0	427	427	0	0	0	0	
10	0	0	0	0	438	431	0	0	0	0	
11	0	0	0	0	448	432	0	0	0	0	
12	0	0	0	0	456	432	0	0	0	0	
13	0	0	0	0	460	430	0	0	0	0	
14	0	0	0	0	460	425	0	0	0	0	
15	0	0	0	0	456	419	0	0	0	0	
0	0	0	0	0	447	412	0	0	0	0	
1	0	0	0	0	436	404	0	0	0	0	
2	0	0	0	0	422	396	0	0	0	0	
3	0	0	0	0	406	389	0	0	0	0	
4	0	0	0	0	391	384	0	0	0	0	
5	0	0	0	0	379	382	0	0	0	0	
6	0	0	0	0	372	383	0	0	0	0	
7	0	0	0	0	369	388	0	0	0	0	
8	0	0	0	0	373	396	0	0	0	0	
9	0	0	0	0	381	405	0	0	0	0	
10	0	0	0	0	392	415	0	0	0	0	
11	0	0	0	0	407	424	0	0	0	0	
12	0	0	0	0	422	432	0	0	0	0	
13	0	0	0	0	438	439	0	0	0	0	
14	0	0	0	0	452	444	0	0	0	0	
15	0	0	0	0	464	447	0	0	0	0	
0	0	0	0	0	475	450	0	0	0	0	
1	0	0	0	0	482	452	0	0	0	0	
2	0	0	0	0	485	452	0	0	0	0	
3	0	0	0	0	485	451	0	0	0	0	
4	0	0	0	0	480	449	0	0	0	0	
5	0	0	0	0	471	445	0	0	0	0	
6	0	0	0	0	458	440	0	0	0	0	
7	0	0	0	0	443	435	0	0	0	0	
8	0	0	0	0	427	430	0	0	0	0	
9	0	0	0	0	411	425	0	0	0	0	
10	0	0	0	0	397	421	0	0	0	0	
11	0	0	0	0	386	419	0	0	0	0	
12	0	0	0	0	379	419	0	0	0	0	
13	0	0	0	0	377	419	0	0	0	0	
14	0	0	0	0	379	421	0	0	0	0	
15	0	0	0	0	384	424	0	0	0	0	
0	0	0	0	0	393	427	0	0	0	0	
1	0	0	0	0	405	431	0	0	0	0	
2	0	0	0	0	419	436	0	0	0	0	
3	0	0	0	0	433	440	0	0	0	0	
4	0	0	0	0	447	446	0	0	0	0	
5	0	0	0	0	459	450	0	0	0	0	
6	0	0	0	0	468	454	0	0	0	0	
7	0	0	0	0	473	457	0	0	0	0	
8	0	0	0	0	476	460	0	0	0	0	
9	0	0	0	0	474	462	0	0	0	0	
10	0	0	0	0	470	464	0	0	0	0	
11	0	0	0	0	463	465	0	0	0	0	
12	0	0	0	0	455	465	0	0	0	0	
13	0	0	0	0	445	464	0	0	0	0	
14	0	0	0	0	435	463	0	0	0	0	
15	0	0	0	0	425	461	0	0	0	0	
0	0	0	0	0	418	459	0	0	0	0	
1	0	0	0	0	412	456	0	0	0	0	
2	0	0	0	0	409	454	0	0	0	0	
3	0	0	0	0	410	452	0	0	0	0	
4	0	0	0	0	413	451	0	0	0	0	
5	0	0	0	0	420	451	0	0	0	0	
6	0	0	0	0	429	453	0	0	0	0	
7	0	0	0	0	440	454	0	0	0	0	
8	0	0	0	0	451	457	0	0	0	0	
9	0	0	0	0	461	461	0	0	0	0	
10	0	0	0	0	471	465	0	0	0	0	
11	0	0	0	0	477	469	0	0	0	0	
12	0	0	0	0	482	475	0	0	0	0	
13	0	0	0	0	485	481	0	0	0	0	
14	0	0	0	0	485	486	0	0	0	0	
15	0	0	0	0	484	492	0	0	0	0	
0	0	0	0	0	481	498	0	0	0	0	
1	0	0	0	0	478	503	0	0	0	0	
2	0	0	0	0	475	509	0	0	0	0	
3	0	0	0	0	473	513	0	0	0	0	
4	0	0	0	0	472	516	0	0	0	0	
5	0	0	0	0	471	517	0	0	0	0	
6	0	0	0	0	470	516	0	0	0	0	
7	0	0	0	0	468	511	0	0	0	0	
8	0	0	0	0	464	502	0	0	0	0	
9	0	0	0	0	458	489	0	0	0	0	
10	0	0	0	0	448	473	0	0	0	0	
11	0	0	0	0	435	454	0	0	0	0	
12	0	0	0	0	419	433	0	0	0	0	
13	0	0	0	0	400	411	0	0	0	0	
14	0	0	0	0	380	390	0	0	0	0	
15	0	0	0	0	359	370	0	0	0	0	
0	0	0	0	0	339	354	0	0	0	0	
1	0	0	0	0	322	342	0	0	0	0	
2	0	0	0	0	308	335	0	0	0	0	
3	0	0	0	0	301	335	0	0	0	0	
4	0	0	0	0	299	339	0	0	0	0	
5	0	0	0	0	304	350	0	0	0	0	
6	0	0	0	0	317	366	0	0	0	0	
7	0	0	0	0	336	385	0	0	0	0	
8	0	0	0	0	360	407	0	0	0	0	
9	0	0	0	0	388	430	0	0	0	0	
10	0	0	0	0	419	452	0	0	0	0	
11	0	0	0	0	448	472	0	0	0	0	
12	0	0	0	0	474	487	0	0	0	0	
13	0	0	0	0	494	496	0	0	0	0	
14	0	0	0	0	505	498	0	0	0	0	
15	0	0	0	0	509	494	0	0	0	0	
0	0	0	0	0	504	485	0	0	0	0	
1	0	0	0	0	491	471	0	0	0	0	
2	0	0	0	0	472	453	0	0	0	0	
3	0	0	0	0	447	433	0	0	0	0	
4	0	0	0	0	419	414	0	0	0	0	
5	0	0	0	0	391	396	0	0	0	0	
6	0	0	0	0	364	380	0	0	0	0	
7	0	0	0	0	341	368	0	0	0	0	
8	0	0	0	0	323	361	0	0	0	0	
9	0	0	0	0	312	359	0	0	0	0	
10	0	0	0	0	307	361	0	0	0	0	
11	0	0	0	0	310	367	0	0	0	0	
12	0	0	0	0	319	376	0	0	0	0	
13	0	0	0	0	335	388	0	0	0	0	
14	0	0	0	0	356	401	0	0	0	0	
15	0	0	0	0	380	416	0	0	0	0	
0	0	0	0	0	406	430	0	0	0	0	
1	0	0	0	0	431	441	0	0	0	0	
2	0	0	0	0	452	451	0	0	0	0	
3	0	0	0	0	469	456	0	0	0	0	
4	0	0	0	0	480	460	0	0	0	0	
5	0	0	0	0	485	459	0	0	0	0	
6	0	0	0	0	483	456	0	0	0	0	
7	0	0	0	0	476	451	0	0	0	0	
8	0	0	0	0	464	446	0	0	0	0	
9	0	0	0	0	451	442	0	0	0	0	
10	0	0	0	0	437	439	0	0	0	0	
11	0	0	0	0	425	439	0	0	0	0	
12	0	0	0	0	415	441	0	0	0	0	
13	0	0	0	0	410	446	0	0	0	0	
14	0	0	0	0	408	453	0	0	0	0	
15	0	0	0	0	411	461	0	0	0	0	
0	0	0	0	0	416	468	0	0	0	0	
1	0	0	0	0	423	475	0	0	0	0	
2	0	0	0	0	432	480	0	0	0	0	
3	0	0	0	0	442	483	0	0	0	0	
4	0	0	0	0	450	484	0	0	0	0	
5	0	0	0	0	457	483	0	0	0	0	
6	0	0	0	0	462	479	0	0	0	0	
7	0	0	0	0	464	473	0	0	0	0	
8	0	0	0	0	463	467	0	0	0	0	
9	0	0	0	0	460	460	0	0	0	0	
10	0	0	0	0	454	452	0	0	0	0	
11	0	0	0	0	446	445	0	0	0	0	
12	0	0	0	0	437	439	0	0	0	0	
13	0	0	0	0	428	435	0	0	0	0	
14	0	0	0	0	419	433	0	0	0	0	
15	0	0	0	0	413	434	0	0	0	0	
0	0	0	0	0	410	438	0	0	0	0	
1	0	0	0	0	410	444	0	0	0	0	
2	0	0	0	0	414	453	0	0	0	0	
3	0	0	0	0	420	462	0	0	0	0	
4	0	0	0	0	428	472	0	0	0	0	
5	0	0	0	0	438	480	0	0	0	0	
6	0	0	0	0	448	487	0	0	0	0	
7	0	0	0	0	460	492	0	0	0	0	
8	0	0	0	0	469	495	0	0	0	0	
9	0	0	0	0	479	496	0	0	0	0	
10	0	0	0	0	484	494	0	0	0	0	
11	0	0	0	0	486	488	0	0	0	0	
12	0	0	0	0	483	480	0	0	0	0	
13	0	0	0	0	476	468	0	0	0	0	
14	0	0	0	0	464	455	0	0	0	0	
15	0	0	0	0	449	441	0	0	0	0	
0	0	0	0	0	432	427	0	0	0	0	
1	0	0	0	0	414	415	0	0	0	0	
2	0	0	0	0	396	404	0	0	0	0	
3	0	0	0	0	380	396	0	0	0	0	
4	0	0	0	0	368	392	0	0	0	0	
5	0	0	0	0	359	390	0	0	0	0	
6	0	0	0	0	356	392	0	0	0	0	
7	0	0	0	0	356	396	0	0	0	0	
8	0	0	0	0	363	403	0	0	0	0	
9	0	0	0	0	373	412	0	0	0	0	
10	0	0	0	0	388	422	0	0	0	0	
11	0	0	0	0	407	433	0	0	0	0	
12	0	0	0	0	428	444	0	0	0	0	
13	0	0	0	0	449	455	0	0	0	0	
14	0	0	0	0	470	465	0	0	0	0	
15	0	0	0	0	487	472	0	0	0	0	
0	0	0	0	0	500	478	0	0	0	0	
1	0	0	0	0	507	479	0	0	0	0	
2	0	0	0	0	507	477	0	0	0	0	
3	0	0	0	0	502	472	0	0	0	0	
4	0	0	0	0	491	466	0	0	0	0	
5	0	0	0	0	478	459	0	0	0	0	
6	0	0	0	0	462	451	0	0	0	0	
7	0	0	0	0	447	445	0	0	0	0	
8	0	0	0	0	433	441	0	0	0	0	
9	0	0	0	0	421	438	0	0	0	0	
10	0	0	0	0	414	438	0	0	0	0	
11	0	0	0	0	410	439	0	0	0	0	
12	0	0	0	0	411	441	0	0	0	0	
13	0	0	0	0	414	445	0	0	0	0	
14	0	0	0	0	420	449	0	0	0	0	
15	0	0	0	0	429	454	0	0	0	0	
0	0	0	0	0	441	458	0	0	0	0	
1	0	0	0	0	454	463	0	0	0	0	
2	0	0	0	0	466	466	0	0	0	0	
3	0	0	0	0	476	467	0	0	0	0	
4	0	0	0	0	484	468	0	0	0	0	
5	0	0	0	0	489	467	0	0	0	0	
6	0	0	0	0	490	464	0	0	0	0	
7	0	0	0	0	487	461	0	0	0	0	
8	0	0	0	0	481	456	0	0	0	0	
9	0	0	0	0	472	452	0	0	0	0	
10	0	0	0	0	461	448	0	0	0	0	
11	0	0	0	0	449	444	0	0	0	0	
12	0	0	0	0	437	440	0	0	0	0	
13	0	0	0	0	425	436	0	0	0	0	
14	0	0	0	0	415	433	0	0	0	0	
15	0	0	0	0	407	431	0	0	0	0	
0	0	0	0	0	403	430	0	0	0	0	
1	0	0	0	0	401	430	0	0	0	0	
2	0	0	0	0	406	431	0	0	0	0	
3	0	0	0	0	414	434	0	0	0	0	
4	0	0	0	0	425	439	0	0	0	0	
5	0	0	0	0	440	445	0	0	0	0	
6	0	0	0	0	455	451	0	0	0	0	
7	0	0	0	0	471	457	0	0	0	0	
8	0	0	0	0	485	463	0	0	0	0	
9	0	0	0	0	495	466	0	0	0	0	
10	0	0	0	0	499	466	0	0	0	0	
11	0	0	0	0	498	463	0	0	0	0	
12	0	0	0	0	491	459	0	0	0	0	
13	0	0	0	0	480	453	0	0	0	0	
14	0	0	0	0	466	446	0	0	0	0	
15	0	0	0	0	451	440	0	0	0	0	
0	0	0	0	0	437	435	0	0	0	0	
1	0	0	0	0	423	432	0	0	0	0	
2	0	0	0	0	415	430	0	0	0	0	
3	0	0	0	0	409	431	0	0	0	0	
4	0	0	0	0	409	433	0	0	0	0	
5	0	0	0	0	413	438	0	0	0	0	
6	0	0	0	0	422	444	0	0	0	0	
7	0	0	0	0	435	450	0	0	0	0	
8	0	0	0	0	449	457	0	0	0	0	
9	0	0	0	0	465	463	0	0	0	0	
10	0	0	0	0	480	468	0	0	0	0	
11	0	0	0	0	493	473	0	0	0	0	
12	0	0	0	0	504	476	0	0	0	0	
13	0	0	0	0	510	476	0	0	0	0	
14	0	0	0	0	511	475	0	0	0	0	
15	0	0	0	0	508	472	0	0	0	0	
0	0	0	0	0	499	469	0	0	0	0	
1	0	0	0	0	488	463	0	0	0	0	
2	0	0	0	0	473	457	0	0	0	0	
3	0	0	0	0	457	451	0	0	0	0	
4	0	0	0	0	440	444	0	0	0	0	
5	0	0	0	0	425	439	0	0	0	0	
6	0	0	0	0	413	434	0	0	0	0	
7	0	0	0	0	404	431	0	0	0	0	
8	0	0	0	0	400	430	0	0	0	0	
9	0	0	0	0	400	430	0	0	0	0	
10	0	0	0	0	404	432	0	0	0	0	
11	0	0	0	0	414	435	0	0	0	0	
12	0	0	0	0	425	439	0	0	0	0	
13	0	0	0	0	439	442	0	0	0	0	
14	0	0	0	0	452	444	0	0	0	0	
15	0	0	0	0	462	446	0	0	0	0	
0	0	0	0	0	471	444	0	0	0	0	
1	0	0	0	0	474	441	0	0	0	0	
2	0	0	0	0	471	434	0	0	0	0	
3	0	0	0	0	462	423	0	0	0	0	
4	0	0	0	0	443	408	0	0	0	0	
5	0	0	0	0	419	390	0	0	0	0	
6	0	0	0	0	389	369	0	0	0	0	
7	0	0	0	0	355	346	0	0	0	0	
8	0	0	0	0	320	322	0	0	0	0	
9	0	0	0	0	284	299	0	0	0	0	
10	0	0	0	0	251	277	0	0	0	0	
11	0	0	0	0	221	256	0	0	0	0	
12	0	0	0	0	197	239	0	0	0	0	
13	0	0	0	0	179	224	0	0	0	0	
14	0	0	0	0	166	212	0	0	0	0	
15	0	0	0	0	162	203	0	0	0	0	
0	0	0	0	0	164	198	0	0	0	0	
1	0	0	0	0	172	196	0	0	0	0	
2	0	0	0	0	185	196	0	0	0	0	
3	0	0	0	0	199	199	0	0	0	0	
4	0	0	0	0	214	201	0	0	0	0	
5	0	0	0	0	228	205	0	0	0	0	
6	0	0	0	0	241	209	0	0	0	0	
7	0	0	0	0	252	214	0	0	0	0	
8	0	0	0	0	259	220	0	0	0	0	
9	0	0	0	0	267	228	0	0	0	0	
10	0	0	0	0	273	239	0	0	0	0	
11	0	0	0	0	281	252	0	0	0	0	
12	0	0	0	0	290	269	0	0	0	0	
13	0	0	0	0	302	289	0	0	0	0	
14	0	0	0	0	319	313	0	0	0	0	
15	0	0	0	0	339	339	0	0	0	0	
0	0	0	0	0	361	367	0	0	0	0	
1	0	0	0	0	387	395	0	0	0	0	
2	0	0	0	0	414	422	0	0	0	0	
3	0	0	0	0	442	448	0	0	0	0	
4	0	0	0	0	469	470	0	0	0	0	
5	0	0	0	0	493	488	0	0	0	0	
6	0	0	0	0	513	503	0	0	0	0	
7	0	0	0	0	528	511	0	0	0	0	
8	0	0	0	0	536	515	0	0	0	0	
9	0	0	0	0	539	515	0	0	0	0	
10	0	0	0	0	534	511	0	0	0	0	
11	0	0	0	0	523	503	0	0	0	0	
12	0	0	0	0	507	493	0	0	0	0	
13	0	0	0	0	488	482	0	0	0	0	
14	0	0	0	0	466	470	0	0	0	0	
15	0	0	0	0	445	460	0	0	0	0	
0	0	0	0	0	425	451	0	0	0	0	
1	0	0	0	0	408	445	0	0	0	0	
2	0	0	0	0	397	443	0	0	0	0	
3	0	0	0	0	391	443	0	0	0	0	
4	0	0	0	0	392	446	0	0	0	0	
5	0	0	0	0	399	452	0	0	0	0	
6	0	0	0	0	412	461	0	0	0	0	
7	0	0	0	0	430	472	0	0	0	0	
8	0	0	0	0	451	483	0	0	0	0	
9	0	0	0	0	472	494	0	0	0	0	
10	0	0	0	0	492	503	0	0	0	0	
11	0	0	0	0	509	511	0	0	0	0	
12	0	0	0	0	523	516	0	0	0	0	
13	0	0	0	0	531	519	0	0	0	0	
14	0	0	0	0	533	519	0	0	0	0	
15	0	0	0	0	529	516	0	0	0	0	
0	0	0	0	0	520	511	0	0	0	0	
1	0	0	0	0	506	504	0	0	0	0	
2	0	0	0	0	488	495	0	0	0	0	
3	0	0	0	0	468	486	0	0	0	0	
4	0	0	0	0	447	476	0	0	0	0	
5	0	0	0	0	427	465	0	0	0	0	
6	0	0	0	0	410	458	0	0	0	0	
7	0	0	0	0	398	453	0	0	0	0	
8	0	0	0	0	391	451	0	0	0	0	
9	0	0	0	0	391	451	0	0	0	0	
10	0	0	0	0	395	452	0	0	0	0	
11	0	0	0	0	401	454	0	0	0	0	
12	0	0	0	0	409	454	0	0	0	0	
13	0	0	0	0	417	453	0	0	0	0	
14	0	0	0	0	425	451	0	0	0	0	
15	0	0	0	0	430	447	0	0	0	0	
0	0	0	0	0	433	443	0	0	0	0	
1	0	0	0	0	434	439	0	0	0	0	
2	0	0	0	0	433	434	0	0	0	0	
3	0	0	0	0	431	431	0	0	0	0	
4	0	0	0	0	427	430	0	0	0	0	
5	0	0	0	0	423	429	0	0	0	0	
6	0	0	0	0	420	431	0	0	0	0	
7	0	0	0	0	417	434	0	0	0	0	
8	0	0	0	0	416	439	0	0	0	0	
9	0	0	0	0	417	446	0	0	0	0	
10	0	0	0	0	420	455	0	0	0	0	
11	0	0	0	0	424	463	0	0	0	0	
12	0	0	0	0	430	470	0	0	0	0	
13	0	0	0	0	437	476	0	0	0	0	
14	0	0	0	0	443	480	0	0	0	0	
15	0	0	0	0	450	484	0	0	0	0	
0	0	0	0	0	456	485	0	0	0	0	
1	0	0	0	0	461	484	0	0	0	0	
2	0	0	0	0	463	481	0	0	0	0	
3	0	0	0	0	463	476	0	0	0	0	
4	0	0	0	0	462	468	0	0	0	0	
5	0	0	0	0	456	460	0	0	0	0	
6	0	0	0	0	449	451	0	0	0	0	
7	0	0	0	0	441	443	0	0	0	0	
8	0	0	0	0	432	435	0	0	0	0	
9	0	0	0	0	421	429	0	0	0	0	
10	0	0	0	0	412	425	0	0	0	0	
11	0	0	0	0	403	422	0	0	0	0	
12	0	0	0	0	396	422	0	0	0	0	
13	0	0	0	0	391	423	0	0	0	0	
14	0	0	0	0	390	427	0	0	0	0	
15	0	0	0	0	392	432	0	0	0	0	
0	0	0	0	0	398	438	0	0	0	0	
1	0	0	0	0	408	446	0	0	0	0	
2	0	0	0	0	421	456	0	0	0	0	
3	0	0	0	0	438	467	0	0	0	0	
4	0	0	0	0	457	479	0	0	0	0	
5	0	0	0	0	476	490	0	0	0	0	
6	0	0	0	0	495	500	0	0	0	0	
7	0	0	0	0	511	509	0	0	0	0	
8	0	0	0	0	523	515	0	0	0	0	
9	0	0	0	0	529	518	0	0	0	0	
10	0	0	0	0	527	517	0	0	0	0	
11	0	0	0	0	519	510	0	0	0	0	
12	0	0	0	0	504	500	0	0	0	0	
13	0	0	0	0	483	487	0	0	0	0	
14	0	0	0	0	458	472	0	0	0	0	
15	0	0	0	0	432	456	0	0	0	0	
0	0	0	0	0	408	442	0	0	0	0	
1	0	0	0	0	386	430	0	0	0	0	
2	0	0	0	0	371	423	0	0	0	0	
3	0	0	0	0	363	419	0	0	0	0	
4	0	0	0	0	362	420	0	0	0	0	
5	0	0	0	0	369	425	0	0	0	0	
6	0	0	0	0	384	433	0	0	0	0	
7	0	0	0	0	403	444	0	0	0	0	
8	0	0	0	0	426	455	0	0	0	0	
9	0	0	0	0	450	467	0	0	0	0	
10	0	0	0	0	473	479	0	0	0	0	
11	0	0	0	0	494	488	0	0	0	0	
12	0	0	0	0	510	496	0	0	0	0	
13	0	0	0	0	520	500	0	0	0	0	
14	0	0	0	0	524	501	0	0	0	0	
15	0	0	0	0	520	499	0	0	0	0	
0	0	0	0	0	511	494	0	0	0	0	
1	0	0	0	0	496	487	0	0	0	0	
2	0	0	0	0	480	480	0	0	0	0	
3	0	0	0	0	462	473	0	0	0	0	
4	0	0	0	0	446	467	0	0	0	0	
5	0	0	0	0	432	463	0	0	0	0	
6	0	0	0	0	423	461	0	0	0	0	
7	0	0	0	0	416	460	0	0	0	0	
8	0	0	0	0	412	459	0	0	0	0	
9	0	0	0	0	412	458	0	0	0	0	
10	0	0	0	0	413	455	0	0	0	0	
11	0	0	0	0	415	452	0	0	0	0	
12	0	0	0	0	418	448	0	0	0	0	
13	0	0	0	0	420	442	0	0	0	0	
14	0	0	0	0	423	436	0	0	0	0	
15	0	0	0	0	423	429	0	0	0	0	
0	0	0	0	0	423	422	0	0	0	0	
1	0	0	0	0	420	415	0	0	0	0	
2	0	0	0	0	416	409	0	0	0	0	
3	0	0	0	0	410	403	0	0	0	0	
4	0	0	0	0	404	399	0	0	0	0	
5	0	0	0	0	399	399	0	0	0	0	
6	0	0	0	0	394	399	0	0	0	0	
7	0	0	0	0	391	402	0	0	0	0	
8	0	0	0	0	390	407	0	0	0	0	
9	0	0	0	0	391	413	0	0	0	0	
10	0	0	0	0	394	421	0	0	0	0	
11	0	0	0	0	401	429	0	0	0	0	
12	0	0	0	0	410	438	0	0	0	0	
13	0	0	0	0	422	446	0	0	0	0	
14	0	0	0	0	435	454	0	0	0	0	
15	0	0	0	0	449	461	0	0	0	0	
0	0	0	0	0	462	465	0	0	0	0	
1	0	0	0	0	473	467	0	0	0	0	
2	0	0	0	0	482	467	0	0	0	0	
3	0	0	0	0	486	464	0	0	0	0	
4	0	0	0	0	487	460	0	0	0	0	
5	0	0	0	0	483	453	0	0	0	0	
6	0	0	0	0	474	445	0	0	0	0	
7	0	0	0	0	463	438	0	0	0	0	
8	0	0	0	0	451	430	0	0	0	0	
9	0	0	0	0	438	424	0	0	0	0	
10	0	0	0	0	426	421	0	0	0	0	
11	0	0	0	0	417	421	0	0	0	0	
12	0	0	0	0	412	424	0	0	0	0	
13	0	0	0	0	413	430	0	0	0	0	
14	0	0	0	0	420	441	0	0	0	0	
15	0	0	0	0	431	453	0	0	0	0	
0	0	0	0	0	447	467	0	0	0	0	
1	0	0	0	0	465	480	0	0	0	0	
2	0	0	0	0	483	491	0	0	0	0	
3	0	0	0	0	501	500	0	0	0	0	
4	0	0	0	0	514	504	0	0	0	0	
5	0	0	0	0	522	503	0	0	0	0	
6	0	0	0	0	524	497	0	0	0	0	
7	0	0	0	0	520	489	0	0	0	0	
8	0	0	0	0	511	478	0	0	0	0	
9	0	0	0	0	497	463	0	0	0	0	
10	0	0	0	0	479	448	0	0	0	0	
11	0	0	0	0	458	431	0	0	0	0	
12	0	0	0	0	435	414	0	0	0	0	
13	0	0	0	0	412	398	0	0	0	0	
14	0	0	0	0	390	384	0	0	0	0	
15	0	0	0	0	370	374	0	0	0	0	
0	0	0	0	0	355	367	0	0	0	0	
1	0	0	0	0	346	364	0	0	0	0	
2	0	0	0	0	344	366	0	0	0	0	
3	0	0	0	0	349	372	0	0	0	0	
4	0	0	0	0	359	380	0	0	0	0	
5	0	0	0	0	374	391	0	0	0	0	
6	0	0	0	0	393	402	0	0	0	0	
7	0	0	0	0	416	415	0	0	0	0	
8	0	0	0	0	440	428	0	0	0	0	
9	0	0	0	0	465	441	0	0	0	0	
10	0	0	0	0	489	454	0	0	0	0	
11	0	0	0	0	511	464	0	0	0	0	
12	0	0	0	0	528	474	0	0	0	0	
13	0	0	0	0	540	480	0	0	0	0	
14	0	0	0	0	544	482	0	0	0	0	
15	0	0	0	0	540	480	0	0	0	0	
0	0	0	0	0	528	472	0	0	0	0	
1	0	0	0	0	508	460	0	0	0	0	
2	0	0	0	0	484	446	0	0	0	0	
3	0	0	0	0	456	430	0	0	0	0	
4	0	0	0	0	428	414	0	0	0	0	
5	0	0	0	0	403	400	0	0	0	0	
6	0	0	0	0	383	390	0	0	0	0	
7	0	0	0	0	369	385	0	0	0	0	
8	0	0	0	0	366	385	0	0	0	0	
9	0	0	0	0	370	389	0	0	0	0	
10	0	0	0	0	382	396	0	0	0	0	
11	0	0	0	0	400	407	0	0	0	0	
12	0	0	0	0	421	418	0	0	0	0	
13	0	0	0	0	444	428	0	0	0	0	
14	0	0	0	0	466	437	0	0	0	0	
15	0	0	0	0	485	444	0	0	0	0	
0	0	0	0	0	500	449	0	0	0	0	
1	0	0	0	0	509	451	0	0	0	0	
2	0	0	0	0	511	449	0	0	0	0	
3	0	0	0	0	507	444	0	0	0	0	
4	0	0	0	0	493	435	0	0	0	0	
5	0	0	0	0	475	422	0	0	0	0	
6	0	0	0	0	451	408	0	0	0	0	
7	0	0	0	0	424	393	0	0	0	0	
8	0	0	0	0	398	379	0	0	0	0	
9	0	0	0	0	374	367	0	0	0	0	
10	0	0	0	0	355	359	0	0	0	0	
11	0	0	0	0	342	354	0	0	0	0	
12	0	0	0	0	336	353	0	0	0	0	
13	0	0	0	0	339	356	0	0	0	0	
14	0	0	0	0	350	363	0	0	0	0	
15	0	0	0	0	368	374	0	0	0	0	
0	0	0	0	0	391	387	0	0	0	0	
1	0	0	0	0	418	401	0	0	0	0	
2	0	0	0	0	445	415	0	0	0	0	
3	0	0	0	0	470	427	0	0	0	0	
4	0	0	0	0	492	437	0	0	0	0	
5	0	0	0	0	508	445	0	0	0	0	
6	0	0	0	0	518	450	0	0	0	0	
7	0	0	0	0	521	453	0	0	0	0	
8	0	0	0	0	518	453	0	0	0	0	
9	0	0	0	0	511	454	0	0	0	0	
10	0	0	0	0	500	454	0	0	0	0	
11	0	0	0	0	487	453	0	0	0	0	
12	0	0	0	0	474	452	0	0	0	0	
13	0	0	0	0	459	451	0	0	0	0	
14	0	0	0	0	446	448	0	0	0	0	
15	0	0	0	0	432	443	0	0	0	0	
0	0	0	0	0	420	436	0	0	0	0	
1	0	0	0	0	410	428	0	0	0	0	
2	0	0	0	0	402	422	0	0	0	0	
3	0	0	0	0	399	415	0	0	0	0	
4	0	0	0	0	400	409	0	0	0	0	
5	0	0	0	0	404	405	0	0	0	0	
6	0	0	0	0	412	403	0	0	0	0	
7	0	0	0	0	420	402	0	0	0	0	
8	0	0	0	0	431	402	0	0	0	0	
9	0	0	0	0	441	404	0	0	0	0	
10	0	0	0	0	450	408	0	0	0	0	
11	0	0	0	0	459	415	0	0	0	0	
12	0	0	0	0	468	423	0	0	0	0	
13	0	0	0	0	476	434	0	0	0	0	
14	0	0	0	0	484	446	0	0	0	0	
15	0	0	0	0	489	457	0	0	0	0	
0	0	0	0	0	493	468	0	0	0	0	
1	0	0	0	0	494	476	0	0	0	0	
2	0	0	0	0	493	483	0	0	0	0	
3	0	0	0	0	491	487	0	0	0	0	
4	0	0	0	0	486	487	0	0	0	0	
5	0	0	0	0	481	484	0	0	0	0	
6	0	0	0	0	474	478	0	0	0	0	
7	0	0	0	0	467	469	0	0	0	0	
8	0	0	0	0	459	459	0	0	0	0	
9	0	0	0	0	451	446	0	0	0	0	
10	0	0	0	0	443	433	0	0	0	0	
11	0	0	0	0	436	422	0	0	0	0	
12	0	0	0	0	431	412	0	0	0	0	
13	0	0	0	0	426	404	0	0	0	0	
14	0	0	0	0	424	400	0	0	0	0	
15	0	0	0	0	424	399	0	0	0	0	
0	0	0	0	0	427	404	0	0	0	0	
1	0	0	0	0	434	413	0	0	0	0	
2	0	0	0	0	443	426	0	0	0	0	
3	0	0	0	0	455	442	0	0	0	0	
4	0	0	0	0	468	460	0	0	0	0	
5	0	0	0	0	481	478	0	0	0	0	
6	0	0	0	0	494	495	0	0	0	0	
7	0	0	0	0	502	507	0	0	0	0	
8	0	0	0	0	506	514	0	0	0	0	
9	0	0	0	0	505	514	0	0	0	0	
10	0	0	0	0	499	510	0	0	0	0	
11	0	0	0	0	490	499	0	0	0	0	
12	0	0	0	0	477	486	0	0	0	0	
13	0	0	0	0	462	469	0	0	0	0	
14	0	0	0	0	447	451	0	0	0	0	
15	0	0	0	0	432	434	0	0	0	0	
0	0	0	0	0	418	419	0	0	0	0	
1	0	0	0	0	406	405	0	0	0	0	
2	0	0	0	0	394	393	0	0	0	0	
3	0	0	0	0	385	386	0	0	0	0	
4	0	0	0	0	380	382	0	0	0	0	
5	0	0	0	0	378	383	0	0	0	0	
6	0	0	0	0	381	388	0	0	0	0	
7	0	0	0	0	387	398	0	0	0	0	
8	0	0	0	0	397	409	0	0	0	0	
9	0	0	0	0	408	423	0	0	0	0	
10	0	0	0	0	421	438	0	0	0	0	
11	0	0	0	0	435	451	0	0	0	0	
12	0	0	0	0	447	463	0	0	0	0	
13	0	0	0	0	459	473	0	0	0	0	
14	0	0	0	0	468	481	0	0	0	0	
15	0	0	0	0	475	483	0	0	0	0	
0	0	0	0	0	477	481	0	0	0	0	
1	0	0	0	0	475	476	0	0	0	0	
2	0	0	0	0	470	468	0	0	0	0	
3	0	0	0	0	462	459	0	0	0	0	
4	0	0	0	0	452	448	0	0	0	0	
5	0	0	0	0	440	437	0	0	0	0	
6	0	0	0	0	428	426	0	0	0	0	
7	0	0	0	0	414	415	0	0	0	0	
8	0	0	0	0	400	406	0	0	0	0	
9	0	0	0	0	386	398	0	0	0	0	
10	0	0	0	0	374	392	0	0	0	0	
11	0	0	0	0	363	388	0	0	0	0	
12	0	0	0	0	355	387	0	0	0	0	
13	0	0	0	0	351	388	0	0	0	0	
14	0	0	0	0	353	393	0	0	0	0	
15	0	0	0	0	359	402	0	0	0	0	
0	0	0	0	0	371	413	0	0	0	0	
1	0	0	0	0	388	425	0	0	0	0	
2	0	0	0	0	407	439	0	0	0	0	
3	0	0	0	0	430	453	0	0	0	0	
4	0	0	0	0	452	466	0	0	0	0	
5	0	0	0	0	473	478	0	0	0	0	
6	0	0	0	0	492	487	0	0	0	0	
7	0	0	0	0	505	494	0	0	0	0	
8	0	0	0	0	515	498	0	0	0	0	
9	0	0	0	0	519	500	0	0	0	0	
10	0	0	0	0	519	501	0	0	0	0	
11	0	0	0	0	516	500	0	0	0	0	
12	0	0	0	0	508	499	0	0	0	0	
13	0	0	0	0	499	498	0	0	0	0	
14	0	0	0	0	487	496	0	0	0	0	
15	0	0	0	0	475	494	0	0	0	0	
0	0	0	0	0	462	490	0	0	0	0	
1	0	0	0	0	448	486	0	0	0	0	
2	0	0	0	0	437	481	0	0	0	0	
3	0	0	0	0	427	475	0	0	0	0	
4	0	0	0	0	418	468	0	0	0	0	
5	0	0	0	0	413	461	0	0	0	0	
6	0	0	0	0	409	455	0	0	0	0	
7	0	0	0	0	409	449	0	0	0	0	
8	0	0	0	0	412	445	0	0	0	0	
9	0	0	0	0	417	441	0	0	0	0	
10	0	0	0	0	423	439	0	0	0	0	
11	0	0	0	0	430	437	0	0	0	0	
12	0	0	0	0	436	436	0	0	0	0	
13	0	0	0	0	441	436	0	0	0	0	
14	0	0	0	0	444	437	0	0	0	0	
15	0	0	0	0	446	437	0	0	0	0	
0	0	0	0	0	445	439	0	0	0	0	
1	0	0	0	0	443	441	0	0	0	0	
2	0	0	0	0	440	444	0	0	0	0	
3	0	0	0	0	436	448	0	0	0	0	
4	0	0	0	0	432	452	0	0	0	0	
5	0	0	0	0	431	457	0	0	0	0	
6	0	0	0	0	430	464	0	0	0	0	
7	0	0	0	0	433	472	0	0	0	0	
8	0	0	0	0	438	480	0	0	0	0	
9	0	0	0	0	445	487	0	0	0	0	
10	0	0	0	0	454	494	0	0	0	0	
11	0	0	0	0	464	500	0	0	0	0	
12	0	0	0	0	475	505	0	0	0	0	
13	0	0	0	0	485	508	0	0	0	0	
14	0	0	0	0	494	510	0	0	0	0	
15	0	0	0	0	502	510	0	0	0	0	
0	0	0	0	0	508	511	0	0	0	0	
1	0	0	0	0	512	511	0	0	0	0	
2	0	0	0	0	514	510	0	0	0	0	
3	0	0	0	0	511	507	0	0	0	0	
4	0	0	0	0	505	503	0	0	0	0	
5	0	0	0	0	493	496	0	0	0	0	
6	0	0	0	0	476	487	0	0	0	0	
7	0	0	0	0	457	476	0	0	0	0	
8	0	0	0	0	436	465	0	0	0	0	
9	0	0	0	0	415	455	0	0	0	0	
10	0	0	0	0	398	447	0	0	0	0	
11	0	0	0	0	384	441	0	0	0	0	
12	0	0	0	0	377	439	0	0	0	0	
13	0	0	0	0	376	440	0	0	0	0	
14	0	0	0	0	383	444	0	0	0	0	
15	0	0	0	0	396	452	0	0	0	0	
0	0	0	0	0	415	463	0	0	0	0	
1	0	0	0	0	437	475	0	0	0	0	
2	0	0	0	0	460	487	0	0	0	0	
3	0	0	0	0	483	497	0	0	0	0	
4	0	0	0	0	502	506	0	0	0	0	
5	0	0	0	0	516	512	0	0	0	0	
6	0	0	0	0	525	515	0	0	0	0	
7	0	0	0	0	527	516	0	0	0	0	
8	0	0	0	0	522	513	0	0	0	0	
9	0	0	0	0	513	510	0	0	0	0	
10	0	0	0	0	500	507	0	0	0	0	
11	0	0	0	0	486	503	0	0	0	0	
12	0	0	0	0	471	500	0	0	0	0	
13	0	0	0	0	459	499	0	0	0	0	
14	0	0	0	0	451	501	0	0	0	0	
15	0	0	0	0	448	505	0	0	0	0	
0	0	0	0	0	450	512	0	0	0	0	
1	0	0	0	0	455	518	0	0	0	0	
2	0	0	0	0	464	524	0	0	0	0	
3	0	0	0	0	476	531	0	0	0	0	
4	0	0	0	0	488	536	0	0	0	0	
5	0	0	0	0	500	539	0	0	0	0	
6	0	0	0	0	510	539	0	0	0	0	
7	0	0	0	0	517	538	0	0	0	0	
8	0	0	0	0	519	535	0	0	0	0	
9	0	0	0	0	517	528	0	0	0	0	
10	0	0	0	0	511	521	0	0	0	0	
11	0	0	0	0	502	512	0	0	0	0	
12	0	0	0	0	489	502	0	0	0	0	
13	0	0	0	0	475	493	0	0	0	0	
14	0	0	0	0	459	484	0	0	0	0	
15	0	0	0	0	443	475	0	0	0	0	
0	0	0	0	0	428	468	0	0	0	0	
1	0	0	0	0	415	463	0	0	0	0	
2	0	0	0	0	407	460	0	0	0	0	
3	0	0	0	0	401	459	0	0	0	0	
4	0	0	0	0	399	459	0	0	0	0	
5	0	0	0	0	402	462	0	0	0	0	
6	0	0	0	0	408	464	0	0	0	0	
7	0	0	0	0	419	468	0	0	0	0	
8	0	0	0	0	430	473	0	0	0	0	
9	0	0	0	0	442	477	0	0	0	0	
10	0	0	0	0	454	479	0	0	0	0	
11	0	0	0	0	464	481	0	0	0	0	
12	0	0	0	0	472	482	0	0	0	0	
13	0	0	0	0	478	483	0	0	0	0	
14	0	0	0	0	480	482	0	0	0	0	
15	0	0	0	0	480	481	0	0	0	0	
0	0	0	0	0	476	479	0	0	0	0	
1	0	0	0	0	467	475	0	0	0	0	
2	0	0	0	0	456	470	0	0	0	0	
3	0	0	0	0	443	464	0	0	0	0	
4	0	0	0	0	427	456	0	0	0	0	
5	0	0	0	0	410	449	0	0	0	0	
6	0	0	0	0	396	442	0	0	0	0	
7	0	0	0	0	385	436	0	0	0	0	
8	0	0	0	0	378	432	0	0	0	0	
9	0	0	0	0	377	430	0	0	0	0	
10	0	0	0	0	380	431	0	0	0	0	
11	0	0	0	0	392	435	0	0	0	0	
12	0	0	0	0	408	442	0	0	0	0	
13	0	0	0	0	430	451	0	0	0	0	
14	0	0	0	0	453	461	0	0	0	0	
15	0	0	0	0	474	470	0	0	0	0	
0	0	0	0	0	492	477	0	0	0	0	
1	0	0	0	0	504	480	0	0	0	0	
2	0	0	0	0	508	480	0	0	0	0	
3	0	0	0	0	505	476	0	0	0	0	
4	0	0	0	0	495	468	0	0	0	0	
5	0	0	0	0	478	459	0	0	0	0	
6	0	0	0	0	458	448	0	0	0	0	
7	0	0	0	0	434	436	0	0	0	0	
8	0	0	0	0	410	424	0	0	0	0	
9	0	0	0	0	389	416	0	0	0	0	
10	0	0	0	0	372	409	0	0	0	0	
11	0	0	0	0	361	407	0	0	0	0	
12	0	0	0	0	355	406	0	0	0	0	
13	0	0	0	0	357	408	0	0	0	0	
14	0	0	0	0	364	411	0	0	0	0	
15	0	0	0	0	376	416	0	0	0	0	
0	0	0	0	0	391	421	0	0	0	0	
1	0	0	0	0	407	425	0	0	0	0	
2	0	0	0	0	423	427	0	0	0	0	
3	0	0	0	0	438	430	0	0	0	0	
4	0	0	0	0	450	431	0	0	0	0	
5	0	0	0	0	459	430	0	0	0	0	
6	0	0	0	0	464	430	0	0	0	0	
7	0	0	0	0	464	428	0	0	0	0	
8	0	0	0	0	461	426	0	0	0	0	
9	0	0	0	0	455	425	0	0	0	0	
10	0	0	0	0	447	423	0	0	0	0	
11	0	0	0	0	438	423	0	0	0	0	
12	0	0	0	0	429	424	0	0	0	0	
13	0	0	0	0	421	425	0	0	0	0	
14	0	0	0	0	415	428	0	0	0	0	
15	0	0	0	0	412	432	0	0	0	0	
0	0	0	0	0	413	436	0	0	0	0	
1	0	0	0	0	417	441	0	0	0	0	
2	0	0	0	0	426	448	0	0	0	0	
3	0	0	0	0	439	455	0	0	0	0	
4	0	0	0	0	454	464	0	0	0	0	
5	0	0	0	0	471	472	0	0	0	0	
6	0	0	0	0	488	479	0	0	0	0	
7	0	0	0	0	505	487	0	0	0	0	
8	0	0	0	0	519	492	0	0	0	0	
9	0	0	0	0	528	496	0	0	0	0	
10	0	0	0	0	532	495	0	0	0	0	
11	0	0	0	0	529	492	0	0	0	0	
12	0	0	0	0	521	485	0	0	0	0	
13	0	0	0	0	507	476	0	0	0	0	
14	0	0	0	0	487	465	0	0	0	0	
15	0	0	0	0	465	452	0	0	0	0	
0	0	0	0	0	442	440	0	0	0	0	
1	0	0	0	0	419	428	0	0	0	0	
2	0	0	0	0	399	418	0	0	0	0	
3	0	0	0	0	385	412	0	0	0	0	
4	0	0	0	0	376	407	0	0	0	0	
5	0	0	0	0	371	405	0	0	0	0	
6	0	0	0	0	374	405	0	0	0	0	
7	0	0	0	0	382	407	0	0	0	0	
8	0	0	0	0	394	411	0	0	0	0	
9	0	0	0	0	408	415	0	0	0	0	
10	0	0	0	0	423	419	0	0	0	0	
11	0	0	0	0	438	420	0	0	0	0	
12	0	0	0	0	448	422	0	0	0	0	
13	0	0	0	0	454	420	0	0	0	0	
14	0	0	0	0	452	415	0	0	0	0	
15	0	0	0	0	444	407	0	0	0	0	
0	0	0	0	0	429	395	0	0	0	0	
1	0	0	0	0	407	380	0	0	0	0	
2	0	0	0	0	380	363	0	0	0	0	
3	0	0	0	0	350	344	0	0	0	0	
4	0	0	0	0	318	323	0	0	0	0	
5	0	0	0	0	286	302	0	0	0	0	
6	0	0	0	0	257	282	0	0	0	0	
7	0	0	0	0	230	262	0	0	0	0	
8	0	0	0	0	209	244	0	0	0	0	
9	0	0	0	0	193	230	0	0	0	0	
10	0	0	0	0	184	216	0	0	0	0	
11	0	0	0	0	182	207	0	0	0	0	
12	0	0	0	0	187	203	0	0	0	0	
13	0	0	0	0	199	203	0	0	0	0	
14	0	0	0	0	215	206	0	0	0	0	
15	0	0	0	0	234	212	0	0	0	0	
0	0	0	0	0	255	219	0	0	0	0	
1	0	0	0	0	273	227	0	0	0	0	
2	0	0	0	0	290	235	0	0	0	0	
3	0	0	0	0	303	244	0	0	0	0	
4	0	0	0	0	313	253	0	0	0	0	
5	0	0	0	0	322	264	0	0	0	0	
6	0	0	0	0	329	277	0	0	0	0	
7	0	0	0	0	336	292	0	0	0	0	
8	0	0	0	0	344	310	0	0	0	0	
9	0	0	0	0	355	331	0	0	0	0	
10	0	0	0	0	369	354	0	0	0	0	
11	0	0	0	0	386	379	0	0	0	0	
12	0	0	0	0	406	404	0	0	0	0	
13	0	0	0	0	427	428	0	0	0	0	
14	0	0	0	0	448	449	0	0	0	0	
15	0	0	0	0	469	467	0	0	0	0	
0	0	0	0	0	488	481	0	0	0	0	
1	0	0	0	0	505	491	0	0	0	0	
2	0	0	0	0	518	496	0	0	0	0	
3	0	0	0	0	529	499	0	0	0	0	
4	0	0	0	0	535	500	0	0	0	0	
5	0	0	0	0	537	497	0	0	0	0	
6	0	0	0	0	534	492	0	0	0	0	
7	0	0	0	0	526	484	0	0	0	0	
8	0	0	0	0	512	475	0	0	0	0	
9	0	0	0	0	494	462	0	0	0	0	
10	0	0	0	0	471	448	0	0	0	0	
11	0	0	0	0	447	433	0	0	0	0	
12	0	0	0	0	422	419	0	0	0	0	
13	0	0	0	0	399	406	0	0	0	0	
14	0	0	0	0	379	396	0	0	0	0	
15	0	0	0	0	366	389	0	0	0	0	
0	0	0	0	0	358	386	0	0	0	0	
1	0	0	0	0	357	386	0	0	0	0	
2	0	0	0	0	362	390	0	0	0	0	
3	0	0	0	0	374	396	0	0	0	0	
4	0	0	0	0	390	405	0	0	0	0	
5	0	0	0	0	410	415	0	0	0	0	
6	0	0	0	0	431	425	0	0	0	0	
7	0	0	0	0	451	436	0	0	0	0	
8	0	0	0	0	470	445	0	0	0	0	
9	0	0	0	0	484	453	0	0	0	0	
10	0	0	0	0	496	460	0	0	0	0	
11	0	0	0	0	504	465	0	0	0	0	
12	0	0	0	0	505	470	0	0	0	0	
13	0	0	0	0	504	472	0	0	0	0	
14	0	0	0	0	497	473	0	0	0	0	
15	0	0	0	0	486	471	0	0	0	0	
0	0	0	0	0	472	466	0	0	0	0	
1	0	0	0	0	456	462	0	0	0	0	
2	0	0	0	0	441	455	0	0	0	0	
3	0	0	0	0	428	451	0	0	0	0	
4	0	0	0	0	418	446	0	0	0	0	
5	0	0	0	0	412	442	0	0	0	0	
6	0	0	0	0	408	440	0	0	0	0	
7	0	0	0	0	411	439	0	0	0	0	
8	0	0	0	0	417	439	0	0	0	0	
9	0	0	0	0	425	439	0	0	0	0	
10	0	0	0	0	436	440	0	0	0	0	
11	0	0	0	0	445	440	0	0	0	0	
12	0	0	0	0	455	440	0	0	0	0	
13	0	0	0	0	460	439	0	0	0	0	
14	0	0	0	0	463	437	0	0	0	0	
15	0	0	0	0	463	435	0	0	0	0	
0	0	0	0	0	459	433	0	0	0	0	
1	0	0	0	0	452	431	0	0	0	0	
2	0	0	0	0	444	430	0	0	0	0	
3	0	0	0	0	435	429	0	0	0	0	
4	0	0	0	0	427	430	0	0	0	0	
5	0	0	0	0	420	432	0	0	0	0	
6	0	0	0	0	416	437	0	0	0	0	
7	0	0	0	0	417	443	0	0	0	0	
8	0	0	0	0	420	450	0	0	0	0	
9	0	0	0	0	428	457	0	0	0	0	
10	0	0	0	0	438	466	0	0	0	0	
11	0	0	0	0	451	474	0	0	0	0	
12	0	0	0	0	466	482	0	0	0	0	
13	0	0	0	0	482	490	0	0	0	0	
14	0	0	0	0	499	497	0	0	0	0	
15	0	0	0	0	513	504	0	0	0	0	
0	0	0	0	0	527	509	0	0	0	0	
1	0	0	0	0	536	513	0	0	0	0	
2	0	0	0	0	539	513	0	0	0	0	
3	0	0	0	0	537	510	0	0	0	0	
4	0	0	0	0	528	504	0	0	0	0	
5	0	0	0	0	515	497	0	0	0	0	
6	0	0	0	0	498	487	0	0	0	0	
7	0	0	0	0	478	477	0	0	0	0	
8	0	0	0	0	459	467	0	0	0	0	
9	0	0	0	0	440	457	0	0	0	0	
10	0	0	0	0	424	451	0	0	0	0	
11	0	0	0	0	413	447	0	0	0	0	
12	0	0	0	0	407	445	0	0	0	0	
13	0	0	0	0	409	448	0	0	0	0	
14	0	0	0	0	417	455	0	0	0	0	
15	0	0	0	0	432	464	0	0	0	0	
0	0	0	0	0	451	476	0	0	0	0	
1	0	0	0	0	475	489	0	0	0	0	
2	0	0	0	0	500	501	0	0	0	0	
3	0	0	0	0	523	512	0	0	0	0	
4	0	0	0	0	542	521	0	0	0	0	
5	0	0	0	0	554	524	0	0	0	0	
6	0	0	0	0	558	522	0	0	0	0	
7	0	0	0	0	554	514	0	0	0	0	
8	0	0	0	0	541	503	0	0	0	0	
9	0	0	0	0	521	489	0	0	0	0	
10	0	0	0	0	496	472	0	0	0	0	
11	0	0	0	0	468	455	0	0	0	0	
12	0	0	0	0	440	439	0	0	0	0	
13	0	0	0	0	414	424	0	0	0	0	
14	0	0	0	0	391	413	0	0	0	0	
15	0	0	0	0	374	406	0	0	0	0	
0	0	0	0	0	364	402	0	0	0	0	
1	0	0	0	0	360	401	0	0	0	0	
2	0	0	0	0	364	403	0	0	0	0	
3	0	0	0	0	374	408	0	0	0	0	
4	0	0	0	0	389	415	0	0	0	0	
5	0	0	0	0	407	422	0	0	0	0	
6	0	0	0	0	426	429	0	0	0	0	
7	0	0	0	0	445	435	0	0	0	0	
8	0	0	0	0	461	440	0	0	0	0	
9	0	0	0	0	474	444	0	0	0	0	
10	0	0	0	0	481	446	0	0	0	0	
11	0	0	0	0	484	447	0	0	0	0	
12	0	0	0	0	481	445	0	0	0	0	
13	0	0	0	0	473	443	0	0	0	0	
14	0	0	0	0	462	439	0	0	0	0	
15	0	0	0	0	450	436	0	0	0	0	
0	0	0	0	0	438	433	0	0	0	0	
1	0	0	0	0	427	433	0	0	0	0	
2	0	0	0	0	418	433	0	0	0	0	
3	0	0	0	0	413	435	0	0	0	0	
4	0	0	0	0	411	438	0	0	0	0	
5	0	0	0	0	413	442	0	0	0	0	
6	0	0	0	0	419	446	0	0	0	0	
7	0	0	0	0	427	450	0	0	0	0	
8	0	0	0	0	437	454	0	0	0	0	
9	0	0	0	0	449	457	0	0	0	0	
10	0	0	0	0	461	460	0	0	0	0	
11	0	0	0	0	472	464	0	0	0	0	
12	0	0	0	0	483	467	0	0	0	0	
13	0	0	0	0	492	469	0	0	0	0	
14	0	0	0	0	497	472	0	0	0	0	
15	0	0	0	0	501	473	0	0	0	0	
0	0	0	0	0	501	476	0	0	0	0	
1	0	0	0	0	499	478	0	0	0	0	
2	0	0	0	0	494	480	0	0	0	0	
3	0	0	0	0	488	482	0	0	0	0	
4	0	0	0	0	482	483	0	0	0	0	
5	0	0	0	0	475	486	0	0	0	0	
6	0	0	0	0	471	488	0	0	0	0	
7	0	0	0	0	468	491	0	0	0	0	
8	0	0	0	0	467	493	0	0	0	0	
9	0	0	0	0	468	495	0	0	0	0	
10	0	0	0	0	472	497	0	0	0	0	
11	0	0	0	0	478	498	0	0	0	0	
12	0	0	0	0	484	499	0	0	0	0	
13	0	0	0	0	492	499	0	0	0	0	
14	0	0	0	0	499	499	0	0	0	0	
15	0	0	0	0	505	498	0	0	0	0	
0	0	0	0	0	510	497	0	0	0	0	
1	0	0	0	0	513	496	0	0	0	0	
2	0	0	0	0	513	496	0	0	0	0	
3	0	0	0	0	512	495	0	0	0	0	
4	0	0	0	0	508	495	0	0	0	0	
5	0	0	0	0	503	494	0	0	0	0	
6	0	0	0	0	495	494	0	0	0	0	
7	0	0	0	0	487	493	0	0	0	0	
8	0	0	0	0	478	491	0	0	0	0	
9	0	0	0	0	469	490	0	0	0	0	
10	0	0	0	0	462	488	0	0	0	0	
11	0	0	0	0	456	486	0	0	0	0	
12	0	0	0	0	451	483	0	0	0	0	
13	0	0	0	0	448	479	0	0	0	0	
14	0	0	0	0	445	474	0	0	0	0	
15	0	0	0	0	444	467	0	0	0	0	
0	0	0	0	0	441	460	0	0	0	0	
1	0	0	0	0	438	449	0	0	0	0	
2	0	0	0	0	433	438	0	0	0	0	
3	0	0	0	0	427	426	0	0	0	0	
4	0	0	0	0	421	414	0	0	0	0	
5	0	0	0	0	415	404	0	0	0	0	
6	0	0	0	0	409	396	0	0	0	0	
7	0	0	0	0	404	391	0	0	0	0	
8	0	0	0	0	400	388	0	0	0	0	
9	0	0	0	0	396	387	0	0	0	0	
10	0	0	0	0	393	388	0	0	0	0	
11	0	0	0	0	391	391	0	0	0	0	
12	0	0	0	0	391	396	0	0	0	0	
13	0	0	0	0	393	403	0	0	0	0	
14	0	0	0	0	399	412	0	0	0	0	
15	0	0	0	0	409	423	0	0	0	0	
0	0	0	0	0	422	436	0	0	0	0	
1	0	0	0	0	438	449	0	0	0	0	
2	0	0	0	0	455	463	0	0	0	0	
3	0	0	0	0	473	476	0	0	0	0	
4	0	0	0	0	491	487	0	0	0	0	
5	0	0	0	0	506	495	0	0	0	0	
6	0	0	0	0	516	499	0	0	0	0	
7	0	0	0	0	520	497	0	0	0	0	
8	0	0	0	0	518	490	0	0	0	0	
9	0	0	0	0	508	479	0	0	0	0	
10	0	0	0	0	492	463	0	0	0	0	
11	0	0	0	0	472	446	0	0	0	0	
12	0	0	0	0	448	428	0	0	0	0	
13	0	0	0	0	424	410	0	0	0	0	
14	0	0	0	0	401	395	0	0	0	0	
