# OpenSignals Text File Format. Version 1
# {"": {"position": 0, "device": "", "device name": "", "device connection": "", "sampling rate": 1000, "resolution": [4, 1, 1, 1, 1, 10, 10, 10, 10, 6, 6], "firmware version": 1281, "comments": "", "keywords": "", "mode": 0, "sync interval": 2, "date": "", "time": "", "channels": [1, 2, 3, 4, 5, 6], "sensor": ["RAW", "RAW", "RAW", "RAW", "RAW", "RAW"], "label": ["A1", "A2", "A3", "A4", "A5", "A6"], "column": ["nSeq", "I1", "I2", "O1", "O2", "A1", "A2", "A3", "A4", "A5", "A6"], "special": [{}, {}, {}, {}, {}, {}], "digital IO": [0, 0, 1, 1], "convertedValues": 0}}
# EndOfHeader
0	0	0	0	0	534	340	0	532	0	0	
1	0	0	0	0	547	389	0	511	0	0	
2	0	0	0	0	560	447	0	484	0	0	
3	0	0	0	0	571	509	0	454	0	0	
4	0	0	0	0	579	568	0	424	0	0	
5	0	0	0	0	583	620	0	398	0	0	
6	0	0	0	0	582	658	0	377	0	0	
7	0	0	0	0	576	679	0	364	0	0	
8	0	0	0	0	568	680	0	360	0	0	
9	0	0	0	0	556	663	0	366	0	0	
10	0	0	0	0	543	627	0	380	0	0	
11	0	0	0	0	530	579	0	403	0	0	
12	0	0	0	0	517	520	0	430	0	0	
13	0	0	0	0	506	459	0	460	0	0	
14	0	0	0	0	499	400	0	490	0	0	
15	0	0	0	0	495	349	0	518	0	0	
0	0	0	0	0	495	311	0	538	0	0	
1	0	0	0	0	500	291	0	551	0	0	
2	0	0	0	0	508	289	0	556	0	0	
3	0	0	0	0	519	306	0	550	0	0	
4	0	0	0	0	531	341	0	535	0	0	
5	0	0	0	0	544	390	0	513	0	0	
6	0	0	0	0	556	448	0	486	0	0	
7	0	0	0	0	566	509	0	455	0	0	
8	0	0	0	0	572	569	0	425	0	0	
9	0	0	0	0	575	621	0	398	0	0	
10	0	0	0	0	573	658	0	377	0	0	
11	0	0	0	0	568	679	0	364	0	0	
12	0	0	0	0	559	681	0	359	0	0	
13	0	0	0	0	546	663	0	364	0	0	
14	0	0	0	0	534	627	0	379	0	0	
15	0	0	0	0	521	578	0	400	0	0	
0	0	0	0	0	509	520	0	428	0	0	
1	0	0	0	0	498	458	0	457	0	0	
2	0	0	0	0	491	398	0	487	0	0	
3	0	0	0	0	487	347	0	513	0	0	
4	0	0	0	0	489	309	0	534	0	0	
5	0	0	0	0	494	287	0	547	0	0	
6	0	0	0	0	502	286	0	550	0	0	
7	0	0	0	0	514	304	0	544	0	0	
8	0	0	0	0	528	339	0	530	0	0	
9	0	0	0	0	542	389	0	508	0	0	
10	0	0	0	0	556	447	0	482	0	0	
11	0	0	0	0	567	510	0	452	0	0	
12	0	0	0	0	575	570	0	422	0	0	
13	0	0	0	0	579	622	0	395	0	0	
14	0	0	0	0	579	660	0	374	0	0	
15	0	0	0	0	574	681	0	361	0	0	
0	0	0	0	0	565	682	0	357	0	0	
1	0	0	0	0	555	664	0	363	0	0	
2	0	0	0	0	541	629	0	377	0	0	
3	0	0	0	0	527	579	0	400	0	0	
4	0	0	0	0	513	520	0	427	0	0	
5	0	0	0	0	501	459	0	457	0	0	
6	0	0	0	0	492	399	0	487	0	0	
7	0	0	0	0	487	348	0	513	0	0	
8	0	0	0	0	487	310	0	535	0	0	
9	0	0	0	0	491	289	0	547	0	0	
10	0	0	0	0	500	288	0	551	0	0	
11	0	0	0	0	511	306	0	545	0	0	
12	0	0	0	0	525	341	0	531	0	0	
13	0	0	0	0	540	391	0	510	0	0	
14	0	0	0	0	554	450	0	483	0	0	
15	0	0	0	0	566	512	0	454	0	0	
0	0	0	0	0	575	573	0	424	0	0	
1	0	0	0	0	581	624	0	398	0	0	
2	0	0	0	0	582	664	0	377	0	0	
3	0	0	0	0	578	684	0	365	0	0	
4	0	0	0	0	570	685	0	361	0	0	
5	0	0	0	0	559	667	0	367	0	0	
6	0	0	0	0	546	631	0	382	0	0	
7	0	0	0	0	532	582	0	403	0	0	
8	0	0	0	0	518	523	0	431	0	0	
9	0	0	0	0	506	461	0	461	0	0	
10	0	0	0	0	496	401	0	490	0	0	
11	0	0	0	0	492	350	0	516	0	0	
12	0	0	0	0	491	312	0	537	0	0	
13	0	0	0	0	495	291	0	550	0	0	
14	0	0	0	0	502	290	0	554	0	0	
15	0	0	0	0	513	308	0	548	0	0	
0	0	0	0	0	527	343	0	535	0	0	
1	0	0	0	0	541	393	0	513	0	0	
2	0	0	0	0	555	452	0	487	0	0	
3	0	0	0	0	566	514	0	457	0	0	
4	0	0	0	0	575	575	0	428	0	0	
5	0	0	0	0	580	627	0	401	0	0	
6	0	0	0	0	580	666	0	380	0	0	
7	0	0	0	0	575	687	0	367	0	0	
8	0	0	0	0	568	688	0	363	0	0	
9	0	0	0	0	558	669	0	368	0	0	
10	0	0	0	0	545	633	0	382	0	0	
11	0	0	0	0	531	583	0	403	0	0	
12	0	0	0	0	519	524	0	430	0	0	
13	0	0	0	0	507	462	0	459	0	0	
14	0	0	0	0	499	401	0	488	0	0	
15	0	0	0	0	495	350	0	514	0	0	
0	0	0	0	0	494	312	0	534	0	0	
1	0	0	0	0	498	290	0	546	0	0	
2	0	0	0	0	505	288	0	550	0	0	
3	0	0	0	0	517	306	0	544	0	0	
4	0	0	0	0	529	342	0	529	0	0	
5	0	0	0	0	543	391	0	508	0	0	
6	0	0	0	0	557	450	0	482	0	0	
7	0	0	0	0	568	513	0	454	0	0	
8	0	0	0	0	578	573	0	425	0	0	
9	0	0	0	0	583	627	0	399	0	0	
10	0	0	0	0	584	665	0	380	0	0	
11	0	0	0	0	580	687	0	368	0	0	
12	0	0	0	0	571	688	0	364	0	0	
13	0	0	0	0	560	668	0	368	0	0	
14	0	0	0	0	545	631	0	382	0	0	
15	0	0	0	0	528	579	0	400	0	0	
0	0	0	0	0	511	515	0	423	0	0	
1	0	0	0	0	493	447	0	447	0	0	
2	0	0	0	0	478	380	0	469	0	0	
3	0	0	0	0	465	320	0	486	0	0	
4	0	0	0	0	455	272	0	497	0	0	
5	0	0	0	0	449	241	0	499	0	0	
6	0	0	0	0	445	227	0	491	0	0	
7	0	0	0	0	444	232	0	473	0	0	
8	0	0	0	0	444	254	0	446	0	0	
9	0	0	0	0	445	291	0	412	0	0	
10	0	0	0	0	445	336	0	372	0	0	
11	0	0	0	0	443	386	0	329	0	0	
12	0	0	0	0	438	434	0	287	0	0	
13	0	0	0	0	430	474	0	248	0	0	
14	0	0	0	0	417	500	0	214	0	0	
15	0	0	0	0	401	510	0	188	0	0	
0	0	0	0	0	380	499	0	170	0	0	
1	0	0	0	0	357	469	0	162	0	0	
2	0	0	0	0	333	423	0	163	0	0	
3	0	0	0	0	308	363	0	174	0	0	
4	0	0	0	0	286	295	0	192	0	0	
5	0	0	0	0	266	226	0	214	0	0	
6	0	0	0	0	251	160	0	240	0	0	
7	0	0	0	0	243	105	0	266	0	0	
8	0	0	0	0	243	65	0	290	0	0	
9	0	0	0	0	251	46	0	310	0	0	
10	0	0	0	0	267	47	0	324	0	0	
11	0	0	0	0	291	72	0	332	0	0	
12	0	0	0	0	321	119	0	335	0	0	
13	0	0	0	0	355	184	0	332	0	0	
14	0	0	0	0	393	263	0	326	0	0	
15	0	0	0	0	431	350	0	318	0	0	
0	0	0	0	0	467	438	0	310	0	0	
1	0	0	0	0	499	519	0	305	0	0	
2	0	0	0	0	525	587	0	306	0	0	
3	0	0	0	0	545	635	0	313	0	0	
4	0	0	0	0	557	661	0	328	0	0	
5	0	0	0	0	565	665	0	350	0	0	
6	0	0	0	0	566	647	0	378	0	0	
7	0	0	0	0	562	610	0	411	0	0	
8	0	0	0	0	555	560	0	448	0	0	
9	0	0	0	0	547	503	0	485	0	0	
10	0	0	0	0	540	444	0	519	0	0	
11	0	0	0	0	534	391	0	549	0	0	
12	0	0	0	0	530	350	0	571	0	0	
13	0	0	0	0	531	324	0	583	0	0	
14	0	0	0	0	533	316	0	585	0	0	
15	0	0	0	0	540	327	0	577	0	0	
0	0	0	0	0	548	356	0	558	0	0	
1	0	0	0	0	557	399	0	532	0	0	
2	0	0	0	0	567	453	0	500	0	0	
3	0	0	0	0	574	511	0	466	0	0	
4	0	0	0	0	581	568	0	432	0	0	
5	0	0	0	0	584	618	0	402	0	0	
6	0	0	0	0	583	656	0	378	0	0	
7	0	0	0	0	580	678	0	364	0	0	
8	0	0	0	0	573	681	0	359	0	0	
9	0	0	0	0	565	665	0	364	0	0	
10	0	0	0	0	555	632	0	380	0	0	
11	0	0	0	0	543	585	0	403	0	0	
12	0	0	0	0	533	529	0	432	0	0	
13	0	0	0	0	524	470	0	465	0	0	
14	0	0	0	0	517	412	0	497	0	0	
15	0	0	0	0	515	362	0	526	0	0	
0	0	0	0	0	515	326	0	549	0	0	
1	0	0	0	0	520	305	0	564	0	0	
2	0	0	0	0	528	304	0	568	0	0	
3	0	0	0	0	539	321	0	565	0	0	
4	0	0	0	0	551	356	0	551	0	0	
5	0	0	0	0	563	405	0	531	0	0	
6	0	0	0	0	575	463	0	504	0	0	
7	0	0	0	0	586	525	0	474	0	0	
8	0	0	0	0	592	586	0	445	0	0	
9	0	0	0	0	596	638	0	418	0	0	
10	0	0	0	0	595	676	0	397	0	0	
11	0	0	0	0	591	697	0	384	0	0	
12	0	0	0	0	583	700	0	380	0	0	
13	0	0	0	0	571	682	0	385	0	0	
14	0	0	0	0	559	647	0	399	0	0	
15	0	0	0	0	545	598	0	421	0	0	
0	0	0	0	0	532	540	0	448	0	0	
1	0	0	0	0	520	477	0	477	0	0	
2	0	0	0	0	512	418	0	506	0	0	
3	0	0	0	0	509	366	0	532	0	0	
4	0	0	0	0	509	327	0	553	0	0	
5	0	0	0	0	514	306	0	566	0	0	
6	0	0	0	0	523	304	0	570	0	0	
7	0	0	0	0	534	321	0	564	0	0	
8	0	0	0	0	547	356	0	551	0	0	
9	0	0	0	0	561	406	0	529	0	0	
10	0	0	0	0	575	464	0	503	0	0	
11	0	0	0	0	585	527	0	474	0	0	
12	0	0	0	0	593	587	0	444	0	0	
13	0	0	0	0	598	639	0	418	0	0	
14	0	0	0	0	597	679	0	396	0	0	
15	0	0	0	0	592	700	0	384	0	0	
0	0	0	0	0	583	702	0	379	0	0	
1	0	0	0	0	572	684	0	384	0	0	
2	0	0	0	0	559	649	0	397	0	0	
3	0	0	0	0	545	599	0	418	0	0	
4	0	0	0	0	531	539	0	444	0	0	
5	0	0	0	0	519	476	0	473	0	0	
6	0	0	0	0	511	415	0	502	0	0	
7	0	0	0	0	507	363	0	528	0	0	
8	0	0	0	0	506	323	0	548	0	0	
9	0	0	0	0	511	301	0	561	0	0	
10	0	0	0	0	519	297	0	566	0	0	
11	0	0	0	0	529	314	0	560	0	0	
12	0	0	0	0	543	348	0	547	0	0	
13	0	0	0	0	556	397	0	526	0	0	
14	0	0	0	0	569	455	0	499	0	0	
15	0	0	0	0	581	518	0	470	0	0	
0	0	0	0	0	589	579	0	440	0	0	
1	0	0	0	0	592	632	0	414	0	0	
2	0	0	0	0	592	671	0	392	0	0	
3	0	0	0	0	587	694	0	379	0	0	
4	0	0	0	0	579	696	0	375	0	0	
5	0	0	0	0	568	679	0	379	0	0	
6	0	0	0	0	554	644	0	393	0	0	
7	0	0	0	0	540	595	0	414	0	0	
8	0	0	0	0	527	537	0	440	0	0	
9	0	0	0	0	515	475	0	469	0	0	
10	0	0	0	0	506	415	0	498	0	0	
11	0	0	0	0	502	362	0	524	0	0	
12	0	0	0	0	502	323	0	544	0	0	
13	0	0	0	0	506	301	0	556	0	0	
14	0	0	0	0	515	299	0	561	0	0	
15	0	0	0	0	526	316	0	556	0	0	
0	0	0	0	0	540	350	0	542	0	0	
1	0	0	0	0	555	399	0	521	0	0	
2	0	0	0	0	568	456	0	495	0	0	
3	0	0	0	0	580	518	0	466	0	0	
4	0	0	0	0	588	578	0	437	0	0	
5	0	0	0	0	593	631	0	411	0	0	
6	0	0	0	0	593	669	0	390	0	0	
7	0	0	0	0	588	690	0	377	0	0	
8	0	0	0	0	579	692	0	373	0	0	
9	0	0	0	0	568	675	0	378	0	0	
10	0	0	0	0	555	639	0	391	0	0	
11	0	0	0	0	541	590	0	413	0	0	
12	0	0	0	0	527	531	0	440	0	0	
13	0	0	0	0	516	470	0	468	0	0	
14	0	0	0	0	508	410	0	497	0	0	
15	0	0	0	0	504	359	0	524	0	0	
0	0	0	0	0	505	321	0	544	0	0	
1	0	0	0	0	511	300	0	557	0	0	
2	0	0	0	0	519	298	0	560	0	0	
3	0	0	0	0	531	316	0	555	0	0	
4	0	0	0	0	545	351	0	540	0	0	
5	0	0	0	0	559	400	0	519	0	0	
6	0	0	0	0	572	460	0	493	0	0	
7	0	0	0	0	583	522	0	463	0	0	
8	0	0	0	0	591	582	0	434	0	0	
9	0	0	0	0	594	635	0	408	0	0	
10	0	0	0	0	593	673	0	387	0	0	
11	0	0	0	0	588	694	0	375	0	0	
12	0	0	0	0	578	696	0	371	0	0	
13	0	0	0	0	566	677	0	376	0	0	
14	0	0	0	0	552	642	0	390	0	0	
15	0	0	0	0	538	592	0	412	0	0	
0	0	0	0	0	524	533	0	439	0	0	
1	0	0	0	0	512	470	0	467	0	0	
2	0	0	0	0	503	410	0	496	0	0	
3	0	0	0	0	499	358	0	523	0	0	
4	0	0	0	0	499	319	0	543	0	0	
5	0	0	0	0	503	297	0	556	0	0	
6	0	0	0	0	511	294	0	559	0	0	
7	0	0	0	0	522	311	0	552	0	0	
8	0	0	0	0	536	345	0	538	0	0	
9	0	0	0	0	550	394	0	516	0	0	
10	0	0	0	0	564	452	0	489	0	0	
11	0	0	0	0	575	513	0	460	0	0	
12	0	0	0	0	583	575	0	430	0	0	
13	0	0	0	0	589	627	0	403	0	0	
14	0	0	0	0	588	667	0	382	0	0	
15	0	0	0	0	583	688	0	369	0	0	
0	0	0	0	0	576	691	0	366	0	0	
1	0	0	0	0	564	674	0	371	0	0	
2	0	0	0	0	551	639	0	386	0	0	
3	0	0	0	0	537	589	0	408	0	0	
4	0	0	0	0	523	531	0	435	0	0	
5	0	0	0	0	511	468	0	465	0	0	
6	0	0	0	0	503	408	0	495	0	0	
7	0	0	0	0	498	355	0	521	0	0	
8	0	0	0	0	497	316	0	542	0	0	
9	0	0	0	0	502	294	0	555	0	0	
10	0	0	0	0	511	291	0	559	0	0	
11	0	0	0	0	522	308	0	553	0	0	
12	0	0	0	0	536	343	0	539	0	0	
13	0	0	0	0	551	391	0	517	0	0	
14	0	0	0	0	565	450	0	490	0	0	
15	0	0	0	0	577	513	0	461	0	0	
0	0	0	0	0	585	574	0	431	0	0	
1	0	0	0	0	591	627	0	404	0	0	
2	0	0	0	0	591	668	0	384	0	0	
3	0	0	0	0	587	690	0	371	0	0	
4	0	0	0	0	579	694	0	367	0	0	
5	0	0	0	0	568	677	0	372	0	0	
6	0	0	0	0	555	643	0	386	0	0	
7	0	0	0	0	540	594	0	408	0	0	
8	0	0	0	0	526	536	0	435	0	0	
9	0	0	0	0	514	473	0	464	0	0	
10	0	0	0	0	504	413	0	494	0	0	
11	0	0	0	0	500	359	0	520	0	0	
12	0	0	0	0	499	320	0	541	0	0	
13	0	0	0	0	503	297	0	555	0	0	
14	0	0	0	0	511	293	0	559	0	0	
15	0	0	0	0	521	309	0	554	0	0	
0	0	0	0	0	534	343	0	540	0	0	
1	0	0	0	0	549	391	0	519	0	0	
2	0	0	0	0	562	449	0	494	0	0	
3	0	0	0	0	575	512	0	464	0	0	
4	0	0	0	0	583	573	0	435	0	0	
5	0	0	0	0	588	626	0	409	0	0	
6	0	0	0	0	589	666	0	388	0	0	
7	0	0	0	0	586	689	0	375	0	0	
8	0	0	0	0	578	693	0	371	0	0	
9	0	0	0	0	567	677	0	376	0	0	
10	0	0	0	0	556	643	0	390	0	0	
11	0	0	0	0	543	595	0	412	0	0	
12	0	0	0	0	530	537	0	439	0	0	
13	0	0	0	0	518	476	0	468	0	0	
14	0	0	0	0	511	416	0	498	0	0	
15	0	0	0	0	506	363	0	525	0	0	
0	0	0	0	0	507	325	0	547	0	0	
1	0	0	0	0	511	303	0	560	0	0	
2	0	0	0	0	519	300	0	565	0	0	
3	0	0	0	0	530	317	0	560	0	0	
4	0	0	0	0	544	352	0	547	0	0	
5	0	0	0	0	558	401	0	527	0	0	
6	0	0	0	0	571	460	0	500	0	0	
7	0	0	0	0	582	522	0	472	0	0	
8	0	0	0	0	590	583	0	442	0	0	
9	0	0	0	0	595	636	0	416	0	0	
10	0	0	0	0	595	676	0	395	0	0	
11	0	0	0	0	591	698	0	382	0	0	
12	0	0	0	0	584	702	0	378	0	0	
13	0	0	0	0	572	685	0	382	0	0	
14	0	0	0	0	560	650	0	396	0	0	
15	0	0	0	0	546	601	0	417	0	0	
0	0	0	0	0	532	543	0	443	0	0	
1	0	0	0	0	520	481	0	472	0	0	
2	0	0	0	0	511	420	0	501	0	0	
3	0	0	0	0	507	368	0	527	0	0	
4	0	0	0	0	507	328	0	548	0	0	
5	0	0	0	0	511	306	0	561	0	0	
6	0	0	0	0	519	303	0	565	0	0	
7	0	0	0	0	529	320	0	560	0	0	
8	0	0	0	0	542	354	0	547	0	0	
9	0	0	0	0	556	403	0	526	0	0	
10	0	0	0	0	570	461	0	499	0	0	
11	0	0	0	0	581	523	0	470	0	0	
12	0	0	0	0	589	583	0	441	0	0	
13	0	0	0	0	593	636	0	414	0	0	
14	0	0	0	0	593	674	0	392	0	0	
15	0	0	0	0	588	696	0	379	0	0	
0	0	0	0	0	580	698	0	374	0	0	
1	0	0	0	0	568	680	0	378	0	0	
2	0	0	0	0	556	644	0	391	0	0	
3	0	0	0	0	543	595	0	412	0	0	
4	0	0	0	0	529	536	0	439	0	0	
5	0	0	0	0	518	473	0	467	0	0	
6	0	0	0	0	509	413	0	496	0	0	
7	0	0	0	0	505	360	0	523	0	0	
8	0	0	0	0	505	322	0	544	0	0	
9	0	0	0	0	510	300	0	557	0	0	
10	0	0	0	0	518	297	0	561	0	0	
11	0	0	0	0	529	315	0	556	0	0	
12	0	0	0	0	542	349	0	543	0	0	
13	0	0	0	0	556	398	0	522	0	0	
14	0	0	0	0	569	456	0	495	0	0	
15	0	0	0	0	580	519	0	467	0	0	
0	0	0	0	0	588	580	0	437	0	0	
1	0	0	0	0	591	633	0	410	0	0	
2	0	0	0	0	591	672	0	388	0	0	
3	0	0	0	0	586	694	0	375	0	0	
4	0	0	0	0	577	697	0	370	0	0	
5	0	0	0	0	566	679	0	374	0	0	
6	0	0	0	0	553	645	0	387	0	0	
7	0	0	0	0	539	596	0	408	0	0	
8	0	0	0	0	526	537	0	434	0	0	
9	0	0	0	0	514	475	0	463	0	0	
10	0	0	0	0	506	415	0	492	0	0	
11	0	0	0	0	503	362	0	519	0	0	
12	0	0	0	0	504	323	0	540	0	0	
13	0	0	0	0	509	300	0	554	0	0	
14	0	0	0	0	517	297	0	559	0	0	
15	0	0	0	0	529	313	0	555	0	0	
0	0	0	0	0	543	347	0	541	0	0	
1	0	0	0	0	558	396	0	521	0	0	
2	0	0	0	0	572	454	0	494	0	0	
3	0	0	0	0	583	516	0	466	0	0	
4	0	0	0	0	591	576	0	437	0	0	
5	0	0	0	0	595	629	0	410	0	0	
6	0	0	0	0	595	668	0	389	0	0	
7	0	0	0	0	590	690	0	375	0	0	
8	0	0	0	0	582	693	0	371	0	0	
9	0	0	0	0	570	676	0	375	0	0	
10	0	0	0	0	556	641	0	389	0	0	
11	0	0	0	0	542	593	0	410	0	0	
12	0	0	0	0	527	535	0	437	0	0	
13	0	0	0	0	515	473	0	467	0	0	
14	0	0	0	0	506	413	0	496	0	0	
15	0	0	0	0	502	361	0	523	0	0	
0	0	0	0	0	502	322	0	544	0	0	
1	0	0	0	0	505	300	0	558	0	0	
2	0	0	0	0	514	297	0	563	0	0	
3	0	0	0	0	525	313	0	558	0	0	
4	0	0	0	0	539	347	0	545	0	0	
5	0	0	0	0	554	396	0	524	0	0	
6	0	0	0	0	568	454	0	497	0	0	
7	0	0	0	0	579	516	0	468	0	0	
8	0	0	0	0	587	578	0	438	0	0	
9	0	0	0	0	593	631	0	411	0	0	
10	0	0	0	0	592	671	0	389	0	0	
11	0	0	0	0	588	694	0	375	0	0	
12	0	0	0	0	578	696	0	369	0	0	
13	0	0	0	0	566	679	0	372	0	0	
14	0	0	0	0	552	645	0	384	0	0	
15	0	0	0	0	537	596	0	404	0	0	
0	0	0	0	0	523	537	0	430	0	0	
1	0	0	0	0	510	475	0	458	0	0	
2	0	0	0	0	502	415	0	486	0	0	
3	0	0	0	0	497	361	0	513	0	0	
4	0	0	0	0	497	322	0	534	0	0	
5	0	0	0	0	502	300	0	547	0	0	
6	0	0	0	0	511	296	0	552	0	0	
7	0	0	0	0	522	313	0	548	0	0	
8	0	0	0	0	537	347	0	536	0	0	
9	0	0	0	0	552	396	0	515	0	0	
10	0	0	0	0	567	455	0	490	0	0	
11	0	0	0	0	580	518	0	462	0	0	
12	0	0	0	0	589	579	0	433	0	0	
13	0	0	0	0	595	633	0	407	0	0	
14	0	0	0	0	595	673	0	386	0	0	
15	0	0	0	0	591	696	0	373	0	0	
0	0	0	0	0	582	699	0	368	0	0	
1	0	0	0	0	571	682	0	372	0	0	
2	0	0	0	0	557	648	0	386	0	0	
3	0	0	0	0	543	599	0	406	0	0	
4	0	0	0	0	528	540	0	432	0	0	
5	0	0	0	0	515	477	0	461	0	0	
6	0	0	0	0	506	415	0	489	0	0	
7	0	0	0	0	500	361	0	515	0	0	
8	0	0	0	0	499	321	0	536	0	0	
9	0	0	0	0	503	297	0	548	0	0	
10	0	0	0	0	511	293	0	552	0	0	
11	0	0	0	0	521	308	0	547	0	0	
12	0	0	0	0	535	341	0	534	0	0	
13	0	0	0	0	548	389	0	513	0	0	
14	0	0	0	0	562	446	0	487	0	0	
15	0	0	0	0	573	508	0	458	0	0	
0	0	0	0	0	582	568	0	428	0	0	
1	0	0	0	0	586	622	0	402	0	0	
2	0	0	0	0	587	662	0	381	0	0	
3	0	0	0	0	583	684	0	368	0	0	
4	0	0	0	0	575	688	0	362	0	0	
5	0	0	0	0	564	672	0	367	0	0	
6	0	0	0	0	551	639	0	381	0	0	
7	0	0	0	0	538	591	0	401	0	0	
8	0	0	0	0	525	534	0	428	0	0	
9	0	0	0	0	513	472	0	456	0	0	
10	0	0	0	0	505	412	0	485	0	0	
11	0	0	0	0	499	359	0	511	0	0	
12	0	0	0	0	499	320	0	531	0	0	
13	0	0	0	0	503	298	0	544	0	0	
14	0	0	0	0	510	294	0	549	0	0	
15	0	0	0	0	521	310	0	544	0	0	
0	0	0	0	0	534	343	0	530	0	0	
1	0	0	0	0	548	391	0	509	0	0	
2	0	0	0	0	561	448	0	483	0	0	
3	0	0	0	0	572	510	0	455	0	0	
4	0	0	0	0	582	571	0	425	0	0	
5	0	0	0	0	586	624	0	398	0	0	
6	0	0	0	0	587	664	0	377	0	0	
7	0	0	0	0	582	686	0	364	0	0	
8	0	0	0	0	574	690	0	359	0	0	
9	0	0	0	0	563	673	0	364	0	0	
10	0	0	0	0	550	638	0	377	0	0	
11	0	0	0	0	536	589	0	399	0	0	
12	0	0	0	0	521	530	0	425	0	0	
13	0	0	0	0	510	467	0	455	0	0	
14	0	0	0	0	500	406	0	483	0	0	
15	0	0	0	0	496	352	0	510	0	0	
0	0	0	0	0	495	312	0	531	0	0	
1	0	0	0	0	499	289	0	544	0	0	
2	0	0	0	0	508	285	0	549	0	0	
3	0	0	0	0	519	301	0	544	0	0	
4	0	0	0	0	532	335	0	531	0	0	
5	0	0	0	0	547	384	0	510	0	0	
6	0	0	0	0	560	443	0	485	0	0	
7	0	0	0	0	573	506	0	456	0	0	
8	0	0	0	0	582	568	0	426	0	0	
9	0	0	0	0	587	622	0	400	0	0	
10	0	0	0	0	587	663	0	379	0	0	
11	0	0	0	0	583	686	0	365	0	0	
12	0	0	0	0	575	690	0	360	0	0	
13	0	0	0	0	563	674	0	365	0	0	
14	0	0	0	0	551	639	0	379	0	0	
15	0	0	0	0	536	591	0	400	0	0	
0	0	0	0	0	523	532	0	427	0	0	
1	0	0	0	0	512	470	0	456	0	0	
2	0	0	0	0	503	409	0	486	0	0	
3	0	0	0	0	499	356	0	513	0	0	
4	0	0	0	0	499	317	0	535	0	0	
5	0	0	0	0	504	294	0	548	0	0	
6	0	0	0	0	512	291	0	553	0	0	
7	0	0	0	0	523	307	0	548	0	0	
8	0	0	0	0	536	341	0	535	0	0	
9	0	0	0	0	550	389	0	514	0	0	
10	0	0	0	0	563	447	0	487	0	0	
11	0	0	0	0	574	509	0	457	0	0	
12	0	0	0	0	581	570	0	428	0	0	
13	0	0	0	0	584	622	0	400	0	0	
14	0	0	0	0	583	662	0	378	0	0	
15	0	0	0	0	578	684	0	364	0	0	
0	0	0	0	0	569	687	0	358	0	0	
1	0	0	0	0	557	671	0	363	0	0	
2	0	0	0	0	545	636	0	376	0	0	
3	0	0	0	0	530	587	0	396	0	0	
4	0	0	0	0	518	529	0	423	0	0	
5	0	0	0	0	506	467	0	452	0	0	
6	0	0	0	0	497	406	0	481	0	0	
7	0	0	0	0	494	353	0	509	0	0	
8	0	0	0	0	494	313	0	530	0	0	
9	0	0	0	0	499	291	0	544	0	0	
10	0	0	0	0	507	287	0	550	0	0	
11	0	0	0	0	519	303	0	545	0	0	
12	0	0	0	0	533	338	0	533	0	0	
13	0	0	0	0	547	386	0	512	0	0	
14	0	0	0	0	561	445	0	487	0	0	
15	0	0	0	0	573	508	0	458	0	0	
0	0	0	0	0	582	569	0	428	0	0	
1	0	0	0	0	587	623	0	401	0	0	
2	0	0	0	0	588	664	0	380	0	0	
3	0	0	0	0	583	687	0	366	0	0	
4	0	0	0	0	575	691	0	362	0	0	
5	0	0	0	0	563	675	0	366	0	0	
6	0	0	0	0	551	641	0	380	0	0	
7	0	0	0	0	536	592	0	400	0	0	
8	0	0	0	0	523	534	0	427	0	0	
9	0	0	0	0	511	472	0	457	0	0	
10	0	0	0	0	502	411	0	486	0	0	
11	0	0	0	0	498	357	0	513	0	0	
12	0	0	0	0	497	317	0	535	0	0	
13	0	0	0	0	501	294	0	549	0	0	
14	0	0	0	0	509	290	0	554	0	0	
15	0	0	0	0	520	306	0	549	0	0	
0	0	0	0	0	533	339	0	536	0	0	
1	0	0	0	0	547	387	0	515	0	0	
2	0	0	0	0	560	446	0	490	0	0	
3	0	0	0	0	572	508	0	460	0	0	
4	0	0	0	0	581	570	0	431	0	0	
5	0	0	0	0	586	624	0	404	0	0	
6	0	0	0	0	587	664	0	383	0	0	
7	0	0	0	0	583	688	0	369	0	0	
8	0	0	0	0	575	691	0	364	0	0	
9	0	0	0	0	564	676	0	369	0	0	
10	0	0	0	0	552	642	0	383	0	0	
11	0	0	0	0	538	593	0	404	0	0	
12	0	0	0	0	524	536	0	430	0	0	
13	0	0	0	0	512	473	0	460	0	0	
14	0	0	0	0	504	412	0	489	0	0	
15	0	0	0	0	498	359	0	515	0	0	
0	0	0	0	0	498	319	0	537	0	0	
1	0	0	0	0	502	295	0	551	0	0	
2	0	0	0	0	509	291	0	556	0	0	
3	0	0	0	0	521	307	0	551	0	0	
4	0	0	0	0	534	341	0	539	0	0	
5	0	0	0	0	548	389	0	519	0	0	
6	0	0	0	0	563	447	0	493	0	0	
7	0	0	0	0	574	509	0	465	0	0	
8	0	0	0	0	584	571	0	436	0	0	
9	0	0	0	0	590	625	0	409	0	0	
10	0	0	0	0	590	665	0	388	0	0	
11	0	0	0	0	587	689	0	375	0	0	
12	0	0	0	0	579	692	0	370	0	0	
13	0	0	0	0	568	677	0	374	0	0	
14	0	0	0	0	556	643	0	387	0	0	
15	0	0	0	0	542	595	0	408	0	0	
0	0	0	0	0	528	537	0	433	0	0	
1	0	0	0	0	515	475	0	462	0	0	
2	0	0	0	0	507	415	0	490	0	0	
3	0	0	0	0	502	362	0	516	0	0	
4	0	0	0	0	501	322	0	537	0	0	
5	0	0	0	0	505	300	0	551	0	0	
6	0	0	0	0	512	296	0	555	0	0	
7	0	0	0	0	524	312	0	551	0	0	
8	0	0	0	0	537	347	0	537	0	0	
9	0	0	0	0	552	396	0	518	0	0	
10	0	0	0	0	566	454	0	492	0	0	
11	0	0	0	0	578	516	0	464	0	0	
12	0	0	0	0	586	577	0	436	0	0	
13	0	0	0	0	591	631	0	411	0	0	
14	0	0	0	0	592	671	0	390	0	0	
15	0	0	0	0	589	695	0	377	0	0	
0	0	0	0	0	580	699	0	373	0	0	
1	0	0	0	0	570	682	0	377	0	0	
2	0	0	0	0	557	648	0	391	0	0	
3	0	0	0	0	543	600	0	411	0	0	
4	0	0	0	0	530	541	0	437	0	0	
5	0	0	0	0	518	479	0	464	0	0	
6	0	0	0	0	508	418	0	493	0	0	
7	0	0	0	0	504	364	0	519	0	0	
8	0	0	0	0	503	324	0	538	0	0	
9	0	0	0	0	505	300	0	550	0	0	
10	0	0	0	0	513	294	0	553	0	0	
11	0	0	0	0	523	308	0	547	0	0	
12	0	0	0	0	535	340	0	532	0	0	
13	0	0	0	0	547	387	0	511	0	0	
14	0	0	0	0	560	443	0	484	0	0	
15	0	0	0	0	571	504	0	454	0	0	
0	0	0	0	0	577	564	0	423	0	0	
1	0	0	0	0	582	616	0	396	0	0	
2	0	0	0	0	581	656	0	375	0	0	
3	0	0	0	0	576	679	0	361	0	0	
4	0	0	0	0	568	683	0	356	0	0	
5	0	0	0	0	556	666	0	360	0	0	
6	0	0	0	0	543	633	0	374	0	0	
7	0	0	0	0	529	585	0	396	0	0	
8	0	0	0	0	516	527	0	423	0	0	
9	0	0	0	0	504	465	0	453	0	0	
10	0	0	0	0	495	405	0	483	0	0	
11	0	0	0	0	491	352	0	510	0	0	
12	0	0	0	0	491	313	0	531	0	0	
13	0	0	0	0	496	291	0	545	0	0	
14	0	0	0	0	504	287	0	550	0	0	
15	0	0	0	0	515	303	0	545	0	0	
0	0	0	0	0	530	337	0	532	0	0	
1	0	0	0	0	545	386	0	511	0	0	
2	0	0	0	0	560	444	0	485	0	0	
3	0	0	0	0	572	507	0	456	0	0	
4	0	0	0	0	583	569	0	427	0	0	
5	0	0	0	0	589	623	0	400	0	0	
6	0	0	0	0	590	664	0	380	0	0	
7	0	0	0	0	587	687	0	366	0	0	
8	0	0	0	0	580	691	0	361	0	0	
9	0	0	0	0	569	676	0	367	0	0	
10	0	0	0	0	557	642	0	381	0	0	
11	0	0	0	0	543	594	0	402	0	0	
12	0	0	0	0	529	536	0	428	0	0	
13	0	0	0	0	517	474	0	459	0	0	
14	0	0	0	0	508	413	0	487	0	0	
15	0	0	0	0	503	361	0	515	0	0	
0	0	0	0	0	501	321	0	536	0	0	
1	0	0	0	0	504	297	0	550	0	0	
2	0	0	0	0	511	293	0	555	0	0	
3	0	0	0	0	521	309	0	550	0	0	
4	0	0	0	0	534	342	0	537	0	0	
5	0	0	0	0	547	390	0	516	0	0	
6	0	0	0	0	561	447	0	489	0	0	
7	0	0	0	0	572	509	0	460	0	0	
8	0	0	0	0	579	569	0	430	0	0	
9	0	0	0	0	585	622	0	402	0	0	
10	0	0	0	0	585	663	0	380	0	0	
11	0	0	0	0	582	686	0	367	0	0	
12	0	0	0	0	574	689	0	361	0	0	
13	0	0	0	0	563	673	0	366	0	0	
14	0	0	0	0	551	639	0	379	0	0	
15	0	0	0	0	537	591	0	400	0	0	
0	0	0	0	0	524	533	0	426	0	0	
1	0	0	0	0	512	471	0	456	0	0	
2	0	0	0	0	503	410	0	485	0	0	
3	0	0	0	0	499	357	0	512	0	0	
4	0	0	0	0	499	317	0	533	0	0	
5	0	0	0	0	503	294	0	547	0	0	
6	0	0	0	0	511	289	0	551	0	0	
7	0	0	0	0	522	305	0	546	0	0	
8	0	0	0	0	535	338	0	532	0	0	
9	0	0	0	0	549	385	0	511	0	0	
10	0	0	0	0	563	443	0	485	0	0	
11	0	0	0	0	574	505	0	455	0	0	
12	0	0	0	0	582	567	0	425	0	0	
13	0	0	0	0	587	621	0	399	0	0	
14	0	0	0	0	587	662	0	377	0	0	
15	0	0	0	0	583	686	0	364	0	0	
0	0	0	0	0	575	691	0	359	0	0	
1	0	0	0	0	564	676	0	365	0	0	
2	0	0	0	0	553	644	0	380	0	0	
3	0	0	0	0	540	597	0	402	0	0	
4	0	0	0	0	528	540	0	430	0	0	
5	0	0	0	0	518	480	0	460	0	0	
6	0	0	0	0	510	420	0	491	0	0	
7	0	0	0	0	506	367	0	518	0	0	
8	0	0	0	0	505	327	0	540	0	0	
9	0	0	0	0	508	302	0	552	0	0	
10	0	0	0	0	513	295	0	554	0	0	
11	0	0	0	0	521	307	0	546	0	0	
12	0	0	0	0	530	335	0	528	0	0	
13	0	0	0	0	539	377	0	502	0	0	
14	0	0	0	0	545	427	0	468	0	0	
15	0	0	0	0	547	481	0	431	0	0	
0	0	0	0	0	546	532	0	391	0	0	
1	0	0	0	0	540	575	0	354	0	0	
2	0	0	0	0	529	605	0	322	0	0	
3	0	0	0	0	513	617	0	297	0	0	
4	0	0	0	0	494	609	0	280	0	0	
5	0	0	0	0	471	582	0	272	0	0	
6	0	0	0	0	447	536	0	273	0	0	
7	0	0	0	0	421	477	0	282	0	0	
8	0	0	0	0	395	407	0	296	0	0	
9	0	0	0	0	371	333	0	314	0	0	
10	0	0	0	0	349	260	0	332	0	0	
11	0	0	0	0	331	195	0	348	0	0	
12	0	0	0	0	317	142	0	358	0	0	
13	0	0	0	0	307	104	0	359	0	0	
14	0	0	0	0	302	85	0	354	0	0	
15	0	0	0	0	300	85	0	339	0	0	
0	0	0	0	0	303	104	0	315	0	0	
1	0	0	0	0	308	140	0	286	0	0	
2	0	0	0	0	315	188	0	252	0	0	
3	0	0	0	0	322	244	0	217	0	0	
4	0	0	0	0	329	303	0	184	0	0	
5	0	0	0	0	337	359	0	155	0	0	
6	0	0	0	0	343	407	0	135	0	0	
7	0	0	0	0	348	441	0	127	0	0	
8	0	0	0	0	352	459	0	131	0	0	
9	0	0	0	0	358	461	0	148	0	0	
10	0	0	0	0	364	447	0	178	0	0	
11	0	0	0	0	371	420	0	220	0	0	
12	0	0	0	0	381	385	0	271	0	0	
13	0	0	0	0	393	346	0	327	0	0	
14	0	0	0	0	409	309	0	385	0	0	
15	0	0	0	0	428	279	0	441	0	0	
0	0	0	0	0	452	261	0	491	0	0	
1	0	0	0	0	478	259	0	531	0	0	
2	0	0	0	0	506	273	0	559	0	0	
3	0	0	0	0	534	304	0	574	0	0	
4	0	0	0	0	562	351	0	575	0	0	
5	0	0	0	0	587	410	0	564	0	0	
6	0	0	0	0	609	476	0	544	0	0	
7	0	0	0	0	626	543	0	516	0	0	
8	0	0	0	0	637	607	0	484	0	0	
9	0	0	0	0	641	662	0	452	0	0	
10	0	0	0	0	638	703	0	424	0	0	
11	0	0	0	0	629	724	0	402	0	0	
12	0	0	0	0	615	726	0	388	0	0	
13	0	0	0	0	597	707	0	384	0	0	
14	0	0	0	0	576	669	0	389	0	0	
15	0	0	0	0	555	616	0	404	0	0	
0	0	0	0	0	535	553	0	426	0	0	
1	0	0	0	0	517	487	0	453	0	0	
2	0	0	0	0	504	423	0	481	0	0	
3	0	0	0	0	497	367	0	509	0	0	
4	0	0	0	0	496	324	0	534	0	0	
5	0	0	0	0	500	299	0	551	0	0	
6	0	0	0	0	509	294	0	560	0	0	
7	0	0	0	0	522	310	0	560	0	0	
8	0	0	0	0	539	344	0	551	0	0	
9	0	0	0	0	556	393	0	535	0	0	
10	0	0	0	0	574	453	0	512	0	0	
11	0	0	0	0	588	517	0	485	0	0	
12	0	0	0	0	600	581	0	456	0	0	
13	0	0	0	0	608	637	0	430	0	0	
14	0	0	0	0	610	680	0	408	0	0	
15	0	0	0	0	608	705	0	393	0	0	
0	0	0	0	0	601	711	0	387	0	0	
1	0	0	0	0	591	698	0	390	0	0	
2	0	0	0	0	578	665	0	402	0	0	
3	0	0	0	0	563	618	0	422	0	0	
4	0	0	0	0	549	560	0	447	0	0	
5	0	0	0	0	537	497	0	476	0	0	
6	0	0	0	0	527	436	0	504	0	0	
7	0	0	0	0	521	382	0	531	0	0	
8	0	0	0	0	521	342	0	552	0	0	
9	0	0	0	0	524	317	0	567	0	0	
10	0	0	0	0	533	312	0	572	0	0	
11	0	0	0	0	544	327	0	568	0	0	
12	0	0	0	0	558	360	0	556	0	0	
13	0	0	0	0	573	408	0	537	0	0	
14	0	0	0	0	588	466	0	512	0	0	
15	0	0	0	0	600	529	0	484	0	0	
0	0	0	0	0	609	591	0	456	0	0	
1	0	0	0	0	615	646	0	430	0	0	
2	0	0	0	0	616	688	0	409	0	0	
3	0	0	0	0	613	713	0	396	0	0	
4	0	0	0	0	605	718	0	391	0	0	
5	0	0	0	0	594	703	0	394	0	0	
6	0	0	0	0	581	670	0	407	0	0	
7	0	0	0	0	567	622	0	428	0	0	
8	0	0	0	0	552	563	0	453	0	0	
9	0	0	0	0	539	500	0	481	0	0	
10	0	0	0	0	528	438	0	510	0	0	
11	0	0	0	0	522	383	0	536	0	0	
12	0	0	0	0	520	341	0	556	0	0	
13	0	0	0	0	522	316	0	569	0	0	
14	0	0	0	0	528	310	0	573	0	0	
15	0	0	0	0	538	323	0	568	0	0	
0	0	0	0	0	550	355	0	554	0	0	
1	0	0	0	0	563	403	0	533	0	0	
2	0	0	0	0	576	460	0	507	0	0	
3	0	0	0	0	587	522	0	478	0	0	
4	0	0	0	0	596	583	0	448	0	0	
5	0	0	0	0	601	638	0	422	0	0	
6	0	0	0	0	601	679	0	400	0	0	
7	0	0	0	0	598	703	0	387	0	0	
8	0	0	0	0	591	707	0	382	0	0	
9	0	0	0	0	582	693	0	387	0	0	
10	0	0	0	0	570	660	0	400	0	0	
11	0	0	0	0	558	612	0	421	0	0	
12	0	0	0	0	545	555	0	447	0	0	
13	0	0	0	0	533	493	0	476	0	0	
14	0	0	0	0	526	433	0	506	0	0	
15	0	0	0	0	521	380	0	533	0	0	
0	0	0	0	0	521	340	0	555	0	0	
1	0	0	0	0	524	316	0	568	0	0	
2	0	0	0	0	530	312	0	573	0	0	
3	0	0	0	0	540	327	0	568	0	0	
4	0	0	0	0	552	359	0	555	0	0	
5	0	0	0	0	564	407	0	533	0	0	
6	0	0	0	0	576	463	0	506	0	0	
7	0	0	0	0	586	524	0	477	0	0	
8	0	0	0	0	594	585	0	446	0	0	
9	0	0	0	0	598	638	0	419	0	0	
10	0	0	0	0	598	678	0	396	0	0	
11	0	0	0	0	593	701	0	382	0	0	
12	0	0	0	0	585	704	0	377	0	0	
13	0	0	0	0	576	689	0	380	0	0	
14	0	0	0	0	564	655	0	393	0	0	
15	0	0	0	0	551	607	0	415	0	0	
0	0	0	0	0	538	548	0	441	0	0	
1	0	0	0	0	527	486	0	471	0	0	
2	0	0	0	0	519	425	0	500	0	0	
3	0	0	0	0	514	371	0	528	0	0	
4	0	0	0	0	514	330	0	550	0	0	
5	0	0	0	0	518	305	0	564	0	0	
6	0	0	0	0	525	300	0	570	0	0	
7	0	0	0	0	536	316	0	565	0	0	
8	0	0	0	0	549	348	0	552	0	0	
9	0	0	0	0	563	396	0	532	0	0	
10	0	0	0	0	575	453	0	505	0	0	
11	0	0	0	0	586	515	0	476	0	0	
12	0	0	0	0	594	576	0	446	0	0	
13	0	0	0	0	599	630	0	419	0	0	
14	0	0	0	0	598	670	0	397	0	0	
15	0	0	0	0	594	693	0	383	0	0	
0	0	0	0	0	585	697	0	377	0	0	
1	0	0	0	0	575	681	0	380	0	0	
2	0	0	0	0	562	647	0	393	0	0	
3	0	0	0	0	548	599	0	414	0	0	
4	0	0	0	0	534	540	0	440	0	0	
5	0	0	0	0	521	477	0	469	0	0	
6	0	0	0	0	513	416	0	498	0	0	
7	0	0	0	0	508	362	0	525	0	0	
8	0	0	0	0	507	321	0	546	0	0	
9	0	0	0	0	511	297	0	560	0	0	
10	0	0	0	0	518	292	0	564	0	0	
11	0	0	0	0	528	307	0	560	0	0	
12	0	0	0	0	542	340	0	546	0	0	
13	0	0	0	0	555	387	0	525	0	0	
14	0	0	0	0	568	446	0	499	0	0	
15	0	0	0	0	580	508	0	470	0	0	
0	0	0	0	0	589	569	0	440	0	0	
1	0	0	0	0	594	624	0	413	0	0	
2	0	0	0	0	595	664	0	391	0	0	
3	0	0	0	0	590	688	0	377	0	0	
4	0	0	0	0	583	692	0	372	0	0	
5	0	0	0	0	572	676	0	376	0	0	
6	0	0	0	0	560	643	0	389	0	0	
7	0	0	0	0	546	594	0	410	0	0	
8	0	0	0	0	532	536	0	437	0	0	
9	0	0	0	0	521	473	0	466	0	0	
10	0	0	0	0	512	412	0	496	0	0	
11	0	0	0	0	507	358	0	523	0	0	
12	0	0	0	0	506	316	0	544	0	0	
13	0	0	0	0	510	293	0	559	0	0	
14	0	0	0	0	516	287	0	564	0	0	
15	0	0	0	0	527	302	0	559	0	0	
0	0	0	0	0	539	335	0	546	0	0	
1	0	0	0	0	552	383	0	526	0	0	
2	0	0	0	0	566	441	0	500	0	0	
3	0	0	0	0	577	503	0	471	0	0	
4	0	0	0	0	585	564	0	441	0	0	
5	0	0	0	0	590	619	0	414	0	0	
6	0	0	0	0	591	660	0	391	0	0	
7	0	0	0	0	587	685	0	377	0	0	
8	0	0	0	0	580	689	0	372	0	0	
9	0	0	0	0	569	675	0	375	0	0	
10	0	0	0	0	558	642	0	388	0	0	
11	0	0	0	0	545	594	0	408	0	0	
12	0	0	0	0	532	537	0	434	0	0	
13	0	0	0	0	521	475	0	463	0	0	
14	0	0	0	0	512	414	0	492	0	0	
15	0	0	0	0	507	360	0	519	0	0	
0	0	0	0	0	507	319	0	541	0	0	
1	0	0	0	0	511	295	0	555	0	0	
2	0	0	0	0	518	290	0	560	0	0	
3	0	0	0	0	528	304	0	556	0	0	
4	0	0	0	0	542	337	0	543	0	0	
5	0	0	0	0	556	384	0	523	0	0	
6	0	0	0	0	569	441	0	497	0	0	
7	0	0	0	0	581	503	0	468	0	0	
8	0	0	0	0	590	564	0	438	0	0	
9	0	0	0	0	595	618	0	412	0	0	
10	0	0	0	0	595	659	0	390	0	0	
11	0	0	0	0	591	684	0	376	0	0	
12	0	0	0	0	583	688	0	372	0	0	
13	0	0	0	0	572	674	0	376	0	0	
14	0	0	0	0	559	641	0	390	0	0	
15	0	0	0	0	545	594	0	412	0	0	
0	0	0	0	0	532	537	0	439	0	0	
1	0	0	0	0	521	475	0	470	0	0	
2	0	0	0	0	512	415	0	500	0	0	
3	0	0	0	0	508	363	0	528	0	0	
4	0	0	0	0	508	322	0	551	0	0	
5	0	0	0	0	512	299	0	565	0	0	
6	0	0	0	0	519	294	0	571	0	0	
7	0	0	0	0	531	309	0	567	0	0	
8	0	0	0	0	544	342	0	553	0	0	
9	0	0	0	0	558	390	0	533	0	0	
10	0	0	0	0	571	447	0	506	0	0	
11	0	0	0	0	583	509	0	477	0	0	
12	0	0	0	0	591	570	0	446	0	0	
13	0	0	0	0	596	624	0	419	0	0	
14	0	0	0	0	596	665	0	397	0	0	
15	0	0	0	0	593	689	0	383	0	0	
0	0	0	0	0	585	694	0	377	0	0	
1	0	0	0	0	575	679	0	382	0	0	
2	0	0	0	0	563	646	0	395	0	0	
3	0	0	0	0	550	599	0	416	0	0	
4	0	0	0	0	536	541	0	443	0	0	
5	0	0	0	0	525	479	0	473	0	0	
6	0	0	0	0	516	419	0	503	0	0	
7	0	0	0	0	512	365	0	530	0	0	
8	0	0	0	0	512	324	0	552	0	0	
9	0	0	0	0	515	300	0	565	0	0	
10	0	0	0	0	523	295	0	571	0	0	
11	0	0	0	0	534	310	0	566	0	0	
12	0	0	0	0	547	342	0	553	0	0	
13	0	0	0	0	560	389	0	532	0	0	
14	0	0	0	0	574	446	0	505	0	0	
15	0	0	0	0	584	508	0	475	0	0	
0	0	0	0	0	592	568	0	444	0	0	
1	0	0	0	0	597	622	0	416	0	0	
2	0	0	0	0	597	663	0	393	0	0	
3	0	0	0	0	592	687	0	378	0	0	
4	0	0	0	0	584	691	0	372	0	0	
5	0	0	0	0	572	675	0	376	0	0	
6	0	0	0	0	560	642	0	388	0	0	
7	0	0	0	0	546	595	0	409	0	0	
8	0	0	0	0	532	536	0	435	0	0	
9	0	0	0	0	521	475	0	464	0	0	
10	0	0	0	0	512	414	0	494	0	0	
11	0	0	0	0	508	361	0	522	0	0	
12	0	0	0	0	508	320	0	544	0	0	
13	0	0	0	0	513	296	0	559	0	0	
14	0	0	0	0	521	292	0	565	0	0	
15	0	0	0	0	532	307	0	561	0	0	
0	0	0	0	0	546	340	0	548	0	0	
1	0	0	0	0	561	388	0	528	0	0	
2	0	0	0	0	574	446	0	502	0	0	
3	0	0	0	0	586	508	0	473	0	0	
4	0	0	0	0	593	568	0	444	0	0	
5	0	0	0	0	598	622	0	417	0	0	
6	0	0	0	0	598	663	0	395	0	0	
7	0	0	0	0	593	687	0	380	0	0	
8	0	0	0	0	584	691	0	375	0	0	
9	0	0	0	0	572	676	0	379	0	0	
10	0	0	0	0	559	642	0	392	0	0	
11	0	0	0	0	545	594	0	413	0	0	
12	0	0	0	0	531	536	0	439	0	0	
13	0	0	0	0	519	473	0	468	0	0	
14	0	0	0	0	510	412	0	498	0	0	
15	0	0	0	0	505	359	0	525	0	0	
0	0	0	0	0	504	318	0	546	0	0	
1	0	0	0	0	508	294	0	560	0	0	
2	0	0	0	0	516	288	0	565	0	0	
3	0	0	0	0	527	303	0	560	0	0	
4	0	0	0	0	540	335	0	547	0	0	
5	0	0	0	0	554	383	0	526	0	0	
6	0	0	0	0	568	441	0	500	0	0	
7	0	0	0	0	580	504	0	471	0	0	
8	0	0	0	0	589	566	0	441	0	0	
9	0	0	0	0	594	620	0	414	0	0	
10	0	0	0	0	594	662	0	392	0	0	
11	0	0	0	0	590	687	0	378	0	0	
12	0	0	0	0	583	692	0	373	0	0	
13	0	0	0	0	572	678	0	377	0	0	
14	0	0	0	0	559	646	0	391	0	0	
15	0	0	0	0	544	598	0	412	0	0	
0	0	0	0	0	531	540	0	438	0	0	
1	0	0	0	0	519	478	0	467	0	0	
2	0	0	0	0	509	416	0	496	0	0	
3	0	0	0	0	504	362	0	524	0	0	
4	0	0	0	0	504	321	0	545	0	0	
5	0	0	0	0	508	296	0	559	0	0	
6	0	0	0	0	515	290	0	564	0	0	
7	0	0	0	0	526	304	0	560	0	0	
8	0	0	0	0	540	336	0	547	0	0	
9	0	0	0	0	554	383	0	527	0	0	
10	0	0	0	0	568	441	0	500	0	0	
11	0	0	0	0	581	503	0	471	0	0	
12	0	0	0	0	589	564	0	441	0	0	
13	0	0	0	0	595	619	0	414	0	0	
14	0	0	0	0	595	659	0	391	0	0	
15	0	0	0	0	592	685	0	377	0	0	
0	0	0	0	0	585	690	0	372	0	0	
1	0	0	0	0	575	675	0	376	0	0	
2	0	0	0	0	562	643	0	389	0	0	
3	0	0	0	0	548	596	0	410	0	0	
4	0	0	0	0	534	539	0	437	0	0	
5	0	0	0	0	522	477	0	466	0	0	
6	0	0	0	0	511	416	0	496	0	0	
7	0	0	0	0	507	363	0	523	0	0	
8	0	0	0	0	505	321	0	544	0	0	
9	0	0	0	0	508	296	0	559	0	0	
10	0	0	0	0	515	290	0	563	0	0	
11	0	0	0	0	525	303	0	559	0	0	
12	0	0	0	0	539	335	0	545	0	0	
13	0	0	0	0	552	380	0	524	0	0	
14	0	0	0	0	566	437	0	497	0	0	
15	0	0	0	0	578	498	0	468	0	0	
0	0	0	0	0	587	559	0	437	0	0	
1	0	0	0	0	592	612	0	410	0	0	
2	0	0	0	0	592	653	0	387	0	0	
3	0	0	0	0	588	678	0	372	0	0	
4	0	0	0	0	582	683	0	367	0	0	
5	0	0	0	0	570	669	0	371	0	0	
6	0	0	0	0	558	636	0	383	0	0	
7	0	0	0	0	543	590	0	404	0	0	
8	0	0	0	0	529	532	0	430	0	0	
9	0	0	0	0	518	471	0	460	0	0	
10	0	0	0	0	508	411	0	489	0	0	
11	0	0	0	0	502	357	0	517	0	0	
12	0	0	0	0	501	316	0	539	0	0	
13	0	0	0	0	504	292	0	553	0	0	
14	0	0	0	0	512	287	0	559	0	0	
15	0	0	0	0	521	300	0	555	0	0	
0	0	0	0	0	535	333	0	542	0	0	
1	0	0	0	0	549	380	0	521	0	0	
2	0	0	0	0	562	436	0	495	0	0	
3	0	0	0	0	574	497	0	466	0	0	
4	0	0	0	0	582	559	0	436	0	0	
5	0	0	0	0	588	613	0	408	0	0	
6	0	0	0	0	588	654	0	386	0	0	
7	0	0	0	0	584	678	0	371	0	0	
8	0	0	0	0	577	684	0	365	0	0	
9	0	0	0	0	565	669	0	369	0	0	
10	0	0	0	0	552	636	0	381	0	0	
11	0	0	0	0	538	588	0	402	0	0	
12	0	0	0	0	524	531	0	428	0	0	
13	0	0	0	0	511	468	0	457	0	0	
14	0	0	0	0	502	408	0	487	0	0	
15	0	0	0	0	496	353	0	514	0	0	
0	0	0	0	0	496	312	0	536	0	0	
1	0	0	0	0	499	287	0	551	0	0	
2	0	0	0	0	507	283	0	557	0	0	
3	0	0	0	0	518	296	0	552	0	0	
4	0	0	0	0	532	329	0	540	0	0	
5	0	0	0	0	546	376	0	519	0	0	
6	0	0	0	0	560	434	0	494	0	0	
7	0	0	0	0	572	496	0	464	0	0	
8	0	0	0	0	581	558	0	433	0	0	
9	0	0	0	0	586	612	0	405	0	0	
10	0	0	0	0	586	654	0	382	0	0	
11	0	0	0	0	582	678	0	366	0	0	
12	0	0	0	0	573	682	0	360	0	0	
13	0	0	0	0	561	668	0	363	0	0	
14	0	0	0	0	548	635	0	375	0	0	
15	0	0	0	0	534	588	0	394	0	0	
0	0	0	0	0	519	530	0	420	0	0	
1	0	0	0	0	508	468	0	450	0	0	
2	0	0	0	0	497	407	0	480	0	0	
3	0	0	0	0	493	353	0	507	0	0	
4	0	0	0	0	492	311	0	530	0	0	
5	0	0	0	0	496	287	0	545	0	0	
6	0	0	0	0	504	280	0	551	0	0	
7	0	0	0	0	515	294	0	547	0	0	
8	0	0	0	0	529	326	0	535	0	0	
9	0	0	0	0	543	372	0	515	0	0	
10	0	0	0	0	558	429	0	489	0	0	
11	0	0	0	0	569	491	0	460	0	0	
12	0	0	0	0	579	551	0	430	0	0	
13	0	0	0	0	583	606	0	403	0	0	
14	0	0	0	0	584	647	0	380	0	0	
15	0	0	0	0	581	672	0	366	0	0	
0	0	0	0	0	573	678	0	359	0	0	
1	0	0	0	0	563	664	0	363	0	0	
2	0	0	0	0	551	632	0	376	0	0	
3	0	0	0	0	537	585	0	396	0	0	
4	0	0	0	0	524	529	0	422	0	0	
5	0	0	0	0	512	468	0	451	0	0	
6	0	0	0	0	502	408	0	481	0	0	
7	0	0	0	0	498	355	0	509	0	0	
8	0	0	0	0	497	314	0	531	0	0	
9	0	0	0	0	500	290	0	546	0	0	
10	0	0	0	0	508	285	0	552	0	0	
11	0	0	0	0	519	299	0	548	0	0	
12	0	0	0	0	532	331	0	536	0	0	
13	0	0	0	0	547	378	0	516	0	0	
14	0	0	0	0	561	435	0	490	0	0	
15	0	0	0	0	574	497	0	461	0	0	
0	0	0	0	0	582	559	0	432	0	0	
1	0	0	0	0	588	613	0	404	0	0	
2	0	0	0	0	589	655	0	382	0	0	
3	0	0	0	0	585	680	0	368	0	0	
4	0	0	0	0	579	686	0	363	0	0	
5	0	0	0	0	568	672	0	366	0	0	
6	0	0	0	0	555	640	0	379	0	0	
7	0	0	0	0	540	593	0	399	0	0	
8	0	0	0	0	526	535	0	425	0	0	
9	0	0	0	0	513	473	0	454	0	0	
10	0	0	0	0	502	411	0	483	0	0	
11	0	0	0	0	497	357	0	510	0	0	
12	0	0	0	0	495	315	0	532	0	0	
13	0	0	0	0	498	289	0	546	0	0	
14	0	0	0	0	505	282	0	551	0	0	
15	0	0	0	0	515	295	0	548	0	0	
0	0	0	0	0	528	326	0	535	0	0	
1	0	0	0	0	543	372	0	515	0	0	
2	0	0	0	0	556	429	0	489	0	0	
3	0	0	0	0	569	491	0	460	0	0	
4	0	0	0	0	578	553	0	431	0	0	
5	0	0	0	0	585	608	0	404	0	0	
6	0	0	0	0	586	650	0	382	0	0	
7	0	0	0	0	583	676	0	368	0	0	
8	0	0	0	0	576	683	0	363	0	0	
9	0	0	0	0	565	669	0	366	0	0	
10	0	0	0	0	553	637	0	379	0	0	
11	0	0	0	0	539	591	0	399	0	0	
12	0	0	0	0	525	533	0	425	0	0	
13	0	0	0	0	512	470	0	454	0	0	
14	0	0	0	0	503	408	0	482	0	0	
15	0	0	0	0	496	353	0	509	0	0	
0	0	0	0	0	494	310	0	530	0	0	
1	0	0	0	0	497	284	0	544	0	0	
2	0	0	0	0	504	277	0	549	0	0	
3	0	0	0	0	514	289	0	544	0	0	
4	0	0	0	0	527	321	0	532	0	0	
5	0	0	0	0	542	367	0	512	0	0	
6	0	0	0	0	556	425	0	487	0	0	
7	0	0	0	0	568	487	0	458	0	0	
8	0	0	0	0	578	548	0	429	0	0	
9	0	0	0	0	584	604	0	402	0	0	
10	0	0	0	0	586	647	0	381	0	0	
11	0	0	0	0	583	672	0	367	0	0	
12	0	0	0	0	575	678	0	361	0	0	
13	0	0	0	0	564	665	0	366	0	0	
14	0	0	0	0	551	633	0	378	0	0	
15	0	0	0	0	537	587	0	399	0	0	
0	0	0	0	0	523	529	0	424	0	0	
1	0	0	0	0	510	467	0	454	0	0	
2	0	0	0	0	500	406	0	483	0	0	
3	0	0	0	0	495	352	0	511	0	0	
4	0	0	0	0	494	311	0	532	0	0	
5	0	0	0	0	497	286	0	547	0	0	
6	0	0	0	0	504	280	0	553	0	0	
7	0	0	0	0	515	293	0	550	0	0	
8	0	0	0	0	529	325	0	537	0	0	
9	0	0	0	0	543	372	0	517	0	0	
10	0	0	0	0	558	430	0	492	0	0	
11	0	0	0	0	572	492	0	463	0	0	
12	0	0	0	0	581	554	0	433	0	0	
13	0	0	0	0	587	609	0	406	0	0	
14	0	0	0	0	588	651	0	384	0	0	
15	0	0	0	0	585	676	0	369	0	0	
0	0	0	0	0	577	683	0	364	0	0	
1	0	0	0	0	566	669	0	367	0	0	
2	0	0	0	0	553	637	0	379	0	0	
3	0	0	0	0	540	591	0	399	0	0	
4	0	0	0	0	526	533	0	424	0	0	
5	0	0	0	0	513	471	0	453	0	0	
6	0	0	0	0	504	411	0	482	0	0	
7	0	0	0	0	498	356	0	509	0	0	
8	0	0	0	0	497	314	0	531	0	0	
9	0	0	0	0	500	289	0	545	0	0	
10	0	0	0	0	508	283	0	551	0	0	
11	0	0	0	0	519	296	0	547	0	0	
12	0	0	0	0	532	327	0	534	0	0	
13	0	0	0	0	546	374	0	514	0	0	
14	0	0	0	0	560	431	0	489	0	0	
15	0	0	0	0	572	492	0	460	0	0	
0	0	0	0	0	582	554	0	431	0	0	
1	0	0	0	0	588	609	0	404	0	0	
2	0	0	0	0	588	651	0	382	0	0	
3	0	0	0	0	585	676	0	368	0	0	
4	0	0	0	0	577	682	0	363	0	0	
5	0	0	0	0	567	669	0	367	0	0	
6	0	0	0	0	555	637	0	380	0	0	
7	0	0	0	0	541	591	0	400	0	0	
8	0	0	0	0	527	533	0	427	0	0	
9	0	0	0	0	514	471	0	456	0	0	
10	0	0	0	0	506	409	0	486	0	0	
11	0	0	0	0	500	355	0	513	0	0	
12	0	0	0	0	499	312	0	535	0	0	
13	0	0	0	0	502	287	0	549	0	0	
14	0	0	0	0	509	280	0	554	0	0	
15	0	0	0	0	519	293	0	550	0	0	
0	0	0	0	0	531	323	0	537	0	0	
1	0	0	0	0	545	369	0	516	0	0	
2	0	0	0	0	558	426	0	490	0	0	
3	0	0	0	0	569	487	0	460	0	0	
4	0	0	0	0	577	548	0	430	0	0	
5	0	0	0	0	583	603	0	401	0	0	
6	0	0	0	0	583	644	0	379	0	0	
7	0	0	0	0	579	670	0	363	0	0	
8	0	0	0	0	571	675	0	356	0	0	
9	0	0	0	0	560	661	0	359	0	0	
10	0	0	0	0	547	629	0	370	0	0	
11	0	0	0	0	533	581	0	390	0	0	
12	0	0	0	0	519	524	0	415	0	0	
13	0	0	0	0	507	462	0	444	0	0	
14	0	0	0	0	498	401	0	473	0	0	
15	0	0	0	0	492	346	0	500	0	0	
0	0	0	0	0	492	304	0	522	0	0	
1	0	0	0	0	495	279	0	537	0	0	
2	0	0	0	0	502	272	0	543	0	0	
3	0	0	0	0	512	286	0	539	0	0	
4	0	0	0	0	525	316	0	527	0	0	
5	0	0	0	0	539	362	0	507	0	0	
6	0	0	0	0	552	419	0	481	0	0	
7	0	0	0	0	563	481	0	452	0	0	
8	0	0	0	0	573	542	0	423	0	0	
9	0	0	0	0	578	597	0	396	0	0	
10	0	0	0	0	579	639	0	374	0	0	
11	0	0	0	0	575	664	0	359	0	0	
12	0	0	0	0	568	671	0	354	0	0	
13	0	0	0	0	558	657	0	358	0	0	
14	0	0	0	0	545	625	0	371	0	0	
15	0	0	0	0	532	579	0	391	0	0	
0	0	0	0	0	519	522	0	418	0	0	
1	0	0	0	0	507	460	0	448	0	0	
2	0	0	0	0	498	399	0	477	0	0	
3	0	0	0	0	493	345	0	505	0	0	
4	0	0	0	0	492	303	0	527	0	0	
5	0	0	0	0	495	278	0	542	0	0	
6	0	0	0	0	503	272	0	548	0	0	
7	0	0	0	0	513	285	0	544	0	0	
8	0	0	0	0	526	316	0	532	0	0	
9	0	0	0	0	540	362	0	512	0	0	
10	0	0	0	0	555	420	0	487	0	0	
11	0	0	0	0	567	482	0	458	0	0	
12	0	0	0	0	575	543	0	428	0	0	
13	0	0	0	0	582	599	0	401	0	0	
14	0	0	0	0	583	642	0	379	0	0	
15	0	0	0	0	579	668	0	364	0	0	
0	0	0	0	0	572	675	0	359	0	0	
1	0	0	0	0	562	662	0	362	0	0	
2	0	0	0	0	550	630	0	374	0	0	
3	0	0	0	0	536	583	0	395	0	0	
4	0	0	0	0	523	526	0	421	0	0	
5	0	0	0	0	511	464	0	451	0	0	
6	0	0	0	0	502	403	0	480	0	0	
7	0	0	0	0	496	349	0	508	0	0	
8	0	0	0	0	496	307	0	529	0	0	
9	0	0	0	0	499	281	0	543	0	0	
10	0	0	0	0	505	275	0	550	0	0	
11	0	0	0	0	515	287	0	546	0	0	
12	0	0	0	0	529	319	0	534	0	0	
13	0	0	0	0	543	366	0	514	0	0	
14	0	0	0	0	556	423	0	488	0	0	
15	0	0	0	0	568	485	0	459	0	0	
0	0	0	0	0	576	547	0	428	0	0	
1	0	0	0	0	582	602	0	401	0	0	
2	0	0	0	0	583	644	0	378	0	0	
3	0	0	0	0	579	670	0	363	0	0	
4	0	0	0	0	572	675	0	356	0	0	
5	0	0	0	0	561	662	0	359	0	0	
6	0	0	0	0	549	630	0	371	0	0	
7	0	0	0	0	536	583	0	391	0	0	
8	0	0	0	0	522	526	0	417	0	0	
9	0	0	0	0	510	463	0	445	0	0	
10	0	0	0	0	500	403	0	475	0	0	
11	0	0	0	0	495	348	0	503	0	0	
12	0	0	0	0	494	306	0	525	0	0	
13	0	0	0	0	496	281	0	540	0	0	
14	0	0	0	0	504	275	0	546	0	0	
15	0	0	0	0	513	287	0	542	0	0	
0	0	0	0	0	526	319	0	529	0	0	
1	0	0	0	0	540	366	0	509	0	0	
2	0	0	0	0	553	423	0	483	0	0	
3	0	0	0	0	566	485	0	455	0	0	
4	0	0	0	0	574	546	0	424	0	0	
5	0	0	0	0	581	602	0	397	0	0	
6	0	0	0	0	582	644	0	376	0	0	
7	0	0	0	0	580	670	0	361	0	0	
8	0	0	0	0	573	677	0	356	0	0	
9	0	0	0	0	563	664	0	359	0	0	
10	0	0	0	0	553	633	0	373	0	0	
11	0	0	0	0	541	588	0	395	0	0	
12	0	0	0	0	528	532	0	422	0	0	
13	0	0	0	0	518	472	0	453	0	0	
14	0	0	0	0	509	411	0	483	0	0	
15	0	0	0	0	504	358	0	511	0	0	
0	0	0	0	0	503	316	0	533	0	0	
1	0	0	0	0	505	289	0	547	0	0	
2	0	0	0	0	510	281	0	551	0	0	
3	0	0	0	0	516	291	0	543	0	0	
4	0	0	0	0	525	317	0	526	0	0	
5	0	0	0	0	533	358	0	500	0	0	
6	0	0	0	0	539	408	0	467	0	0	
7	0	0	0	0	543	461	0	429	0	0	
8	0	0	0	0	541	513	0	388	0	0	
9	0	0	0	0	536	557	0	350	0	0	
10	0	0	0	0	525	588	0	316	0	0	
11	0	0	0	0	509	601	0	289	0	0	
12	0	0	0	0	489	595	0	270	0	0	
13	0	0	0	0	465	568	0	260	0	0	
14	0	0	0	0	440	524	0	259	0	0	
15	0	0	0	0	414	465	0	266	0	0	
0	0	0	0	0	387	396	0	280	0	0	
1	0	0	0	0	362	321	0	296	0	0	
2	0	0	0	0	338	247	0	314	0	0	
3	0	0	0	0	319	180	0	330	0	0	
4	0	0	0	0	304	126	0	341	0	0	
5	0	0	0	0	295	86	0	345	0	0	
6	0	0	0	0	289	64	0	340	0	0	
7	0	0	0	0	287	62	0	326	0	0	
8	0	0	0	0	289	78	0	303	0	0	
9	0	0	0	0	293	111	0	274	0	0	
10	0	0	0	0	300	159	0	240	0	0	
11	0	0	0	0	308	215	0	204	0	0	
12	0	0	0	0	315	274	0	170	0	0	
13	0	0	0	0	323	331	0	140	0	0	
14	0	0	0	0	329	381	0	119	0	0	
15	0	0	0	0	335	417	0	108	0	0	
0	0	0	0	0	340	439	0	110	0	0	
1	0	0	0	0	346	443	0	126	0	0	
2	0	0	0	0	353	433	0	156	0	0	
3	0	0	0	0	362	408	0	197	0	0	
4	0	0	0	0	374	375	0	249	0	0	
5	0	0	0	0	388	337	0	307	0	0	
6	0	0	0	0	405	300	0	367	0	0	
7	0	0	0	0	427	271	0	427	0	0	
8	0	0	0	0	452	252	0	481	0	0	
9	0	0	0	0	480	247	0	525	0	0	
10	0	0	0	0	508	260	0	558	0	0	
11	0	0	0	0	538	289	0	576	0	0	
12	0	0	0	0	567	335	0	581	0	0	
13	0	0	0	0	592	392	0	573	0	0	
14	0	0	0	0	613	456	1	552	0	0	
15	0	0	0	0	628	524	0	526	0	0	
0	0	0	0	0	637	588	0	493	0	0	
1	0	0	0	0	639	643	0	460	0	0	
2	0	0	0	0	634	685	0	429	0	0	
3	0	0	0	0	623	708	0	404	0	0	
4	0	0	0	0	607	711	0	388	0	0	
5	0	0	0	0	586	692	0	380	0	0	
6	0	0	0	0	565	656	0	384	0	0	
7	0	0	0	0	542	604	0	396	0	0	
8	0	0	0	0	523	542	0	416	0	0	
9	0	0	0	0	506	475	0	443	0	0	
10	0	0	0	0	493	409	0	471	0	0	
11	0	0	0	0	488	352	0	499	0	0	
12	0	0	0	0	488	308	0	524	0	0	
13	0	0	0	0	495	282	0	542	0	0	
14	0	0	0	0	506	276	0	553	0	0	
15	0	0	0	0	520	289	0	554	0	0	
0	0	0	0	0	539	323	0	547	0	0	
1	0	0	0	0	557	371	0	532	0	0	
2	0	0	0	0	575	431	0	510	0	0	
3	0	0	0	0	591	497	0	484	0	0	
4	0	0	0	0	601	561	0	456	0	0	
5	0	0	0	0	609	619	0	431	0	0	
6	0	0	0	0	611	664	0	408	0	0	
7	0	0	0	0	608	692	0	393	0	0	
8	0	0	0	0	600	700	0	387	0	0	
9	0	0	0	0	589	688	0	388	0	0	
10	0	0	0	0	575	657	0	399	0	0	
11	0	0	0	0	560	611	0	418	0	0	
12	0	0	0	0	546	554	0	443	0	0	
13	0	0	0	0	533	491	0	472	0	0	
14	0	0	0	0	522	430	0	501	0	0	
15	0	0	0	0	516	374	0	528	0	0	
0	0	0	0	0	515	332	0	551	0	0	
1	0	0	0	0	519	306	0	566	0	0	
2	0	0	0	0	526	298	0	573	0	0	
3	0	0	0	0	536	311	0	570	0	0	
4	0	0	0	0	551	342	0	559	0	0	
5	0	0	0	0	565	388	0	539	0	0	
6	0	0	0	0	579	445	0	515	0	0	
7	0	0	0	0	591	506	0	486	0	0	
8	0	0	0	0	600	568	0	456	0	0	
9	0	0	0	0	606	624	0	429	0	0	
10	0	0	0	0	607	666	0	406	0	0	
11	0	0	0	0	603	692	0	391	0	0	
12	0	0	0	0	595	699	0	384	0	0	
13	0	0	0	0	584	686	0	386	0	0	
14	0	0	0	0	572	655	0	398	0	0	
15	0	0	0	0	557	608	0	416	0	0	
0	0	0	0	0	543	551	0	442	0	0	
1	0	0	0	0	530	489	0	470	0	0	
2	0	0	0	0	520	427	0	498	0	0	
3	0	0	0	0	515	372	0	525	0	0	
4	0	0	0	0	513	329	0	547	0	0	
5	0	0	0	0	516	303	0	562	0	0	
6	0	0	0	0	523	295	0	568	0	0	
7	0	0	0	0	534	307	0	564	0	0	
8	0	0	0	0	547	338	0	552	0	0	
9	0	0	0	0	561	384	0	533	0	0	
10	0	0	0	0	575	440	0	508	0	0	
11	0	0	0	0	587	502	0	480	0	0	
12	0	0	0	0	595	564	0	451	0	0	
13	0	0	0	0	601	620	0	423	0	0	
14	0	0	0	0	602	662	0	401	0	0	
15	0	0	0	0	599	688	0	386	0	0	
0	0	0	0	0	591	695	0	380	0	0	
1	0	0	0	0	580	682	0	382	0	0	
2	0	0	0	0	568	651	0	394	0	0	
3	0	0	0	0	553	604	0	413	0	0	
4	0	0	0	0	539	548	0	439	0	0	
5	0	0	0	0	526	486	0	468	0	0	
6	0	0	0	0	516	424	0	497	0	0	
7	0	0	0	0	510	370	0	525	0	0	
8	0	0	0	0	509	328	0	547	0	0	
9	0	0	0	0	512	302	0	563	0	0	
10	0	0	0	0	519	295	0	569	0	0	
11	0	0	0	0	531	309	0	566	0	0	
12	0	0	0	0	544	340	0	554	0	0	
13	0	0	0	0	558	386	0	535	0	0	
14	0	0	0	0	572	443	0	508	0	0	
15	0	0	0	0	584	504	0	479	0	0	
0	0	0	0	0	593	566	0	448	0	0	
1	0	0	0	0	599	621	0	420	0	0	
2	0	0	0	0	600	664	0	396	0	0	
3	0	0	0	0	597	689	0	380	0	0	
4	0	0	0	0	590	696	0	373	0	0	
5	0	0	0	0	580	684	0	375	0	0	
6	0	0	0	0	568	653	0	387	0	0	
7	0	0	0	0	553	606	0	406	0	0	
8	0	0	0	0	540	549	0	432	0	0	
9	0	0	0	0	526	486	0	461	0	0	
10	0	0	0	0	516	425	0	491	0	0	
11	0	0	0	0	511	370	0	519	0	0	
12	0	0	0	0	509	327	0	541	0	0	
13	0	0	0	0	512	300	0	557	0	0	
14	0	0	0	0	518	292	0	563	0	0	
15	0	0	0	0	528	305	0	560	0	0	
0	0	0	0	0	541	335	0	548	0	0	
1	0	0	0	0	555	380	0	528	0	0	
2	0	0	0	0	569	437	0	502	0	0	
3	0	0	0	0	580	498	0	473	0	0	
4	0	0	0	0	589	559	0	443	0	0	
5	0	0	0	0	595	614	0	415	0	0	
6	0	0	0	0	595	656	0	392	0	0	
7	0	0	0	0	591	682	0	377	0	0	
8	0	0	0	0	583	688	0	370	0	0	
9	0	0	0	0	573	675	0	372	0	0	
10	0	0	0	0	560	643	0	384	0	0	
11	0	0	0	0	546	597	0	404	0	0	
12	0	0	0	0	533	540	0	429	0	0	
13	0	0	0	0	521	478	0	458	0	0	
14	0	0	0	0	511	417	0	487	0	0	
15	0	0	0	0	506	362	0	515	0	0	
0	0	0	0	0	505	319	0	536	0	0	
1	0	0	0	0	508	294	0	551	0	0	
2	0	0	0	0	516	287	0	558	0	0	
3	0	0	0	0	526	299	0	554	0	0	
4	0	0	0	0	539	330	0	542	0	0	
5	0	0	0	0	552	376	0	523	0	0	
6	0	0	0	0	566	432	0	497	0	0	
7	0	0	0	0	578	495	0	469	0	0	
8	0	0	0	0	587	556	0	440	0	0	
9	0	0	0	0	591	611	0	413	0	0	
10	0	0	0	0	592	655	0	391	0	0	
11	0	0	0	0	588	681	0	376	0	0	
12	0	0	0	0	580	688	0	371	0	0	
13	0	0	0	0	569	675	0	374	0	0	
14	0	0	0	0	556	644	0	387	0	0	
15	0	0	0	0	543	598	0	407	0	0	
0	0	0	0	0	529	542	0	432	0	0	
1	0	0	0	0	517	480	0	462	0	0	
2	0	0	0	0	508	418	0	491	0	0	
3	0	0	0	0	503	364	0	518	0	0	
4	0	0	0	0	501	321	0	540	0	0	
5	0	0	0	0	504	294	0	554	0	0	
6	0	0	0	0	511	286	0	560	0	0	
7	0	0	0	0	521	298	0	556	0	0	
8	0	0	0	0	534	327	0	543	0	0	
9	0	0	0	0	547	372	0	523	0	0	
10	0	0	0	0	560	428	0	497	0	0	
11	0	0	0	0	572	489	0	468	0	0	
12	0	0	0	0	580	551	0	438	0	0	
13	0	0	0	0	586	606	0	410	0	0	
14	0	0	0	0	587	649	0	387	0	0	
15	0	0	0	0	583	675	0	372	0	0	
0	0	0	0	0	577	683	0	366	0	0	
1	0	0	0	0	566	671	0	369	0	0	
2	0	0	0	0	555	641	0	381	0	0	
3	0	0	0	0	542	596	0	401	0	0	
4	0	0	0	0	528	540	0	426	0	0	
5	0	0	0	0	516	478	0	455	0	0	
6	0	0	0	0	508	417	0	485	0	0	
7	0	0	0	0	502	363	0	512	0	0	
8	0	0	0	0	501	320	0	534	0	0	
9	0	0	0	0	504	294	0	549	0	0	
10	0	0	0	0	511	286	0	555	0	0	
11	0	0	0	0	521	298	0	551	0	0	
12	0	0	0	0	535	329	0	540	0	0	
13	0	0	0	0	548	375	0	520	0	0	
14	0	0	0	0	563	432	0	495	0	0	
15	0	0	0	0	574	493	0	467	0	0	
0	0	0	0	0	583	556	0	438	0	0	
1	0	0	0	0	590	612	0	411	0	0	
2	0	0	0	0	591	656	0	389	0	0	
3	0	0	0	0	588	684	0	375	0	0	
4	0	0	0	0	582	692	0	370	0	0	
5	0	0	0	0	571	680	0	374	0	0	
6	0	0	0	0	560	650	0	387	0	0	
7	0	0	0	0	547	604	0	407	0	0	
8	0	0	0	0	534	548	0	434	0	0	
9	0	0	0	0	523	487	0	463	0	0	
10	0	0	0	0	513	426	0	494	0	0	
11	0	0	0	0	508	371	0	521	0	0	
12	0	0	0	0	507	328	0	544	0	0	
13	0	0	0	0	511	302	0	559	0	0	
14	0	0	0	0	518	295	0	566	0	0	
15	0	0	0	0	528	307	0	562	0	0	
0	0	0	0	0	542	337	0	549	0	0	
1	0	0	0	0	555	383	0	529	0	0	
2	0	0	0	0	569	439	0	503	0	0	
3	0	0	0	0	581	501	0	473	0	0	
4	0	0	0	0	590	562	0	443	0	0	
5	0	0	0	0	595	617	0	415	0	0	
6	0	0	0	0	595	660	0	391	0	0	
7	0	0	0	0	592	686	0	376	0	0	
8	0	0	0	0	585	694	0	369	0	0	
9	0	0	0	0	575	681	0	371	0	0	
10	0	0	0	0	563	651	0	384	0	0	
11	0	0	0	0	550	605	0	403	0	0	
12	0	0	0	0	536	548	0	430	0	0	
13	0	0	0	0	525	487	0	459	0	0	
14	0	0	0	0	515	425	0	489	0	0	
15	0	0	0	0	511	371	0	516	0	0	
0	0	0	0	0	510	329	0	539	0	0	
1	0	0	0	0	514	303	0	555	0	0	
2	0	0	0	0	521	296	0	561	0	0	
3	0	0	0	0	531	308	0	558	0	0	
4	0	0	0	0	545	340	0	547	0	0	
5	0	0	0	0	559	386	0	527	0	0	
6	0	0	0	0	573	443	0	502	0	0	
7	0	0	0	0	585	505	0	474	0	0	
8	0	0	0	0	594	568	0	444	0	0	
9	0	0	0	0	600	624	0	417	0	0	
10	0	0	0	0	601	668	0	394	0	0	
11	0	0	0	0	598	695	0	380	0	0	
12	0	0	0	0	590	703	0	373	0	0	
13	0	0	0	0	580	691	0	376	0	0	
14	0	0	0	0	568	661	0	388	0	0	
15	0	0	0	0	555	615	0	408	0	0	
0	0	0	0	0	542	559	0	433	0	0	
1	0	0	0	0	529	497	0	462	0	0	
2	0	0	0	0	520	436	0	492	0	0	
3	0	0	0	0	515	380	0	519	0	0	
4	0	0	0	0	514	337	0	541	0	0	
5	0	0	0	0	517	310	0	556	0	0	
6	0	0	0	0	523	302	0	562	0	0	
7	0	0	0	0	532	313	0	558	0	0	
8	0	0	0	0	544	343	0	546	0	0	
9	0	0	0	0	557	388	0	525	0	0	
10	0	0	0	0	569	444	0	499	0	0	
11	0	0	0	0	579	504	0	469	0	0	
12	0	0	0	0	588	567	0	438	0	0	
13	0	0	0	0	592	622	0	410	0	0	
14	0	0	0	0	592	665	0	386	0	0	
15	0	0	0	0	589	691	0	370	0	0	
0	0	0	0	0	581	699	0	363	0	0	
1	0	0	0	0	571	687	0	365	0	0	
2	0	0	0	0	559	657	0	377	0	0	
3	0	0	0	0	545	611	0	397	0	0	
4	0	0	0	0	532	555	0	423	0	0	
5	0	0	0	0	519	492	0	453	0	0	
6	0	0	0	0	511	432	0	483	0	0	
7	0	0	0	0	505	376	0	511	0	0	
8	0	0	0	0	505	333	0	534	0	0	
9	0	0	0	0	509	306	0	550	0	0	
10	0	0	0	0	515	297	0	557	0	0	
11	0	0	0	0	527	310	0	553	0	0	
12	0	0	0	0	540	339	0	542	0	0	
13	0	0	0	0	555	384	0	523	0	0	
14	0	0	0	0	569	440	0	497	0	0	
15	0	0	0	0	581	502	0	468	0	0	
0	0	0	0	0	591	564	0	438	0	0	
1	0	0	0	0	596	620	0	411	0	0	
2	0	0	0	0	598	663	0	388	0	0	
3	0	0	0	0	594	690	0	372	0	0	
4	0	0	0	0	586	697	0	366	0	0	
5	0	0	0	0	575	685	0	368	0	0	
6	0	0	0	0	563	655	0	380	0	0	
7	0	0	0	0	548	608	0	399	0	0	
8	0	0	0	0	534	551	0	425	0	0	
9	0	0	0	0	521	489	0	455	0	0	
10	0	0	0	0	511	427	0	483	0	0	
11	0	0	0	0	505	372	0	511	0	0	
12	0	0	0	0	504	329	0	534	0	0	
13	0	0	0	0	507	302	0	549	0	0	
14	0	0	0	0	513	294	0	556	0	0	
15	0	0	0	0	524	306	0	553	0	0	
0	0	0	0	0	538	337	0	542	0	0	
1	0	0	0	0	553	383	0	522	0	0	
2	0	0	0	0	568	440	0	496	0	0	
3	0	0	0	0	579	503	0	467	0	0	
4	0	0	0	0	589	564	0	438	0	0	
5	0	0	0	0	595	620	0	409	0	0	
6	0	0	0	0	596	664	0	387	0	0	
7	0	0	0	0	592	691	0	371	0	0	
8	0	0	0	0	583	699	1	364	0	0	
9	0	0	0	0	572	686	0	367	0	0	
10	0	0	0	0	560	656	0	379	0	0	
11	0	0	0	0	545	610	0	398	0	0	
12	0	0	0	0	531	553	0	424	0	0	
13	0	0	0	0	518	491	0	454	0	0	
14	0	0	0	0	507	429	0	483	0	0	
15	0	0	0	0	502	374	0	510	0	0	
0	0	0	0	0	500	331	0	533	0	0	
1	0	0	0	0	504	303	0	547	0	0	
2	0	0	0	0	511	294	0	555	0	0	
3	0	0	0	0	520	304	0	551	0	0	
4	0	0	0	0	534	334	0	540	0	0	
5	0	0	0	0	548	379	0	520	0	0	
6	0	0	0	0	561	434	0	494	0	0	
7	0	0	0	0	574	495	0	465	0	0	
8	0	0	0	0	582	557	0	434	0	0	
9	0	0	0	0	588	612	0	405	0	0	
10	0	0	0	0	588	655	0	381	0	0	
11	0	0	0	0	585	683	0	365	0	0	
12	0	0	0	0	577	690	0	358	0	0	
13	0	0	0	0	567	679	0	359	0	0	
14	0	0	0	0	553	649	0	370	0	0	
15	0	0	0	0	539	603	0	389	0	0	
0	0	0	0	0	525	547	0	415	0	0	
1	0	0	0	0	512	484	0	444	0	0	
2	0	0	0	0	501	423	0	473	0	0	
3	0	0	0	0	495	368	0	501	0	0	
4	0	0	0	0	493	324	0	524	0	0	
5	0	0	0	0	496	297	0	540	0	0	
6	0	0	0	0	503	288	0	547	0	0	
7	0	0	0	0	512	299	0	545	0	0	
8	0	0	0	0	526	329	0	534	0	0	
9	0	0	0	0	540	375	0	515	0	0	
10	0	0	0	0	554	431	0	490	0	0	
11	0	0	0	0	567	492	0	462	0	0	
12	0	0	0	0	577	554	0	432	0	0	
13	0	0	0	0	583	610	0	404	0	0	
14	0	0	0	0	585	653	0	382	0	0	
15	0	0	0	0	582	679	0	366	0	0	
0	0	0	0	0	575	686	0	359	0	0	
1	0	0	0	0	564	674	0	361	0	0	
2	0	0	0	0	551	643	0	371	0	0	
3	0	0	0	0	537	597	0	390	0	0	
4	0	0	0	0	523	540	0	415	0	0	
5	0	0	0	0	510	477	0	444	0	0	
6	0	0	0	0	499	415	0	472	0	0	
7	0	0	0	0	493	359	0	499	0	0	
8	0	0	0	0	491	315	0	522	0	0	
9	0	0	0	0	494	287	0	537	0	0	
10	0	0	0	0	500	280	0	544	0	0	
11	0	0	0	0	509	291	0	541	0	0	
12	0	0	0	0	522	321	0	529	0	0	
13	0	0	0	0	536	366	0	510	0	0	
14	0	0	0	0	550	422	0	485	0	0	
15	0	0	0	0	561	484	0	456	0	0	
0	0	0	0	0	571	546	0	427	0	0	
1	0	0	0	0	577	603	0	399	0	0	
2	0	0	0	0	579	647	0	376	0	0	
3	0	0	0	0	576	674	0	360	0	0	
4	0	0	0	0	570	683	0	354	0	0	
5	0	0	0	0	559	671	0	356	0	0	
6	0	0	0	0	548	641	0	368	0	0	
7	0	0	0	0	535	596	0	388	0	0	
8	0	0	0	0	523	540	0	413	0	0	
9	0	0	0	0	511	478	0	442	0	0	
10	0	0	0	0	502	417	0	472	0	0	
11	0	0	0	0	496	362	0	499	0	0	
12	0	0	0	0	495	319	0	522	0	0	
13	0	0	0	0	498	292	0	537	0	0	
14	0	0	0	0	504	285	0	543	0	0	
15	0	0	0	0	513	296	0	541	0	0	
0	0	0	0	0	526	327	0	529	0	0	
1	0	0	0	0	539	372	0	510	0	0	
2	0	0	0	0	551	428	0	484	0	0	
3	0	0	0	0	563	489	0	455	0	0	
4	0	0	0	0	571	551	0	424	0	0	
5	0	0	0	0	575	606	0	396	0	0	
6	0	0	0	0	576	648	0	372	0	0	
7	0	0	0	0	572	675	0	356	0	0	
8	0	0	0	0	563	682	0	349	0	0	
9	0	0	0	0	553	670	0	351	0	0	
10	0	0	0	0	541	639	0	362	0	0	
11	0	0	0	0	527	593	0	381	0	0	
12	0	0	0	0	513	536	0	407	0	0	
13	0	0	0	0	500	474	0	435	0	0	
14	0	0	0	0	491	412	0	465	0	0	
15	0	0	0	0	485	357	0	493	0	0	
0	0	0	0	0	484	314	0	516	0	0	
1	0	0	0	0	487	287	0	531	0	0	
2	0	0	0	0	494	279	0	537	0	0	
3	0	0	0	0	504	291	0	534	0	0	
4	0	0	0	0	517	320	0	523	0	0	
5	0	0	0	0	531	365	0	504	0	0	
6	0	0	0	0	545	422	0	478	0	0	
7	0	0	0	0	558	483	0	449	0	0	
8	0	0	0	0	568	545	0	419	0	0	
9	0	0	0	0	573	601	0	391	0	0	
10	0	0	0	0	575	644	0	369	0	0	
11	0	0	0	0	572	672	0	353	0	0	
12	0	0	0	0	565	679	0	347	0	0	
13	0	0	0	0	555	668	0	349	0	0	
14	0	0	0	0	543	639	0	361	0	0	
15	0	0	0	0	529	593	0	381	0	0	
0	0	0	0	0	515	536	0	407	0	0	
1	0	0	0	0	502	474	0	436	0	0	
2	0	0	0	0	492	412	0	467	0	0	
3	0	0	0	0	486	357	0	494	0	0	
4	0	0	0	0	484	313	0	517	0	0	
5	0	0	0	0	487	286	0	533	0	0	
6	0	0	0	0	494	278	0	540	0	0	
7	0	0	0	0	504	288	0	537	0	0	
8	0	0	0	0	517	318	0	526	0	0	
9	0	0	0	0	531	363	0	507	0	0	
10	0	0	0	0	546	419	0	482	0	0	
11	0	0	0	0	559	481	0	454	0	0	
12	0	0	0	0	569	543	0	425	0	0	
13	0	0	0	0	576	600	0	398	0	0	
14	0	0	0	0	579	644	0	376	0	0	
15	0	0	0	0	577	672	0	361	0	0	
0	0	0	0	0	571	681	0	354	0	0	
1	0	0	0	0	561	670	0	356	0	0	
2	0	0	0	0	550	640	0	368	0	0	
3	0	0	0	0	536	594	0	387	0	0	
4	0	0	0	0	522	537	0	412	0	0	
5	0	0	0	0	509	475	0	441	0	0	
6	0	0	0	0	498	413	0	470	0	0	
7	0	0	0	0	492	357	0	497	0	0	
8	0	0	0	0	490	313	0	519	0	0	
9	0	0	0	0	492	286	0	534	0	0	
10	0	0	0	0	498	276	0	540	0	0	
11	0	0	0	0	508	287	0	536	0	0	
12	0	0	0	0	520	316	0	525	0	0	
13	0	0	0	0	534	360	0	505	0	0	
14	0	0	0	0	548	416	0	480	0	0	
15	0	0	0	0	561	478	0	451	0	0	
0	0	0	0	0	570	540	0	421	0	0	
1	0	0	0	0	577	595	0	393	0	0	
2	0	0	0	0	579	639	0	370	0	0	
3	0	0	0	0	576	667	0	355	0	0	
4	0	0	0	0	570	676	0	348	0	0	
5	0	0	0	0	560	664	0	351	0	0	
6	0	0	0	0	547	635	0	363	0	0	
7	0	0	0	0	534	590	0	382	0	0	
8	0	0	0	0	520	535	0	408	0	0	
9	0	0	0	0	508	473	0	437	0	0	
10	0	0	0	0	497	412	0	467	0	0	
11	0	0	0	0	492	357	0	495	0	0	
12	0	0	0	0	491	314	0	518	0	0	
13	0	0	0	0	494	287	0	534	0	0	
14	0	0	0	0	500	278	0	542	0	0	
15	0	0	0	0	511	289	0	540	0	0	
0	0	0	0	0	524	319	0	529	0	0	
1	0	0	0	0	537	363	0	510	0	0	
2	0	0	0	0	551	419	0	485	0	0	
3	0	0	0	0	563	480	0	457	0	0	
4	0	0	0	0	572	542	0	428	0	0	
5	0	0	0	0	577	598	0	399	0	0	
6	0	0	0	0	578	641	0	377	0	0	
7	0	0	0	0	574	669	0	361	0	0	
8	0	0	0	0	566	677	0	353	0	0	
9	0	0	0	0	556	666	0	355	0	0	
10	0	0	0	0	543	636	0	366	0	0	
11	0	0	0	0	528	591	0	385	0	0	
12	0	0	0	0	515	535	0	409	0	0	
13	0	0	0	0	502	473	0	438	0	0	
14	0	0	0	0	492	412	0	467	0	0	
15	0	0	0	0	487	357	0	495	0	0	
0	0	0	0	0	486	314	0	518	0	0	
1	0	0	0	0	489	286	0	532	0	0	
2	0	0	0	0	496	278	0	541	0	0	
3	0	0	0	0	507	288	0	539	0	0	
4	0	0	0	0	520	318	0	527	0	0	
5	0	0	0	0	534	363	0	509	0	0	
6	0	0	0	0	549	419	0	485	0	0	
7	0	0	0	0	562	480	0	457	0	0	
8	0	0	0	0	572	542	0	428	0	0	
9	0	0	0	0	578	599	0	401	0	0	
10	0	0	0	0	580	643	0	379	0	0	
11	0	0	0	0	578	671	0	364	0	0	
12	0	0	0	0	571	679	0	357	0	0	
13	0	0	0	0	561	669	0	359	0	0	
14	0	0	0	0	550	640	0	371	0	0	
15	0	0	0	0	536	594	0	390	0	0	
0	0	0	0	0	523	539	0	415	0	0	
1	0	0	0	0	511	477	0	444	0	0	
2	0	0	0	0	501	415	0	473	0	0	
3	0	0	0	0	496	359	0	501	0	0	
4	0	0	0	0	494	316	0	524	0	0	
5	0	0	0	0	496	289	0	539	0	0	
6	0	0	0	0	502	280	0	546	0	0	
7	0	0	0	0	511	290	0	543	0	0	
8	0	0	0	0	523	319	0	531	0	0	
9	0	0	0	0	536	364	0	512	0	0	
10	0	0	0	0	549	419	0	487	0	0	
11	0	0	0	0	560	480	0	459	0	0	
12	0	0	0	0	569	542	0	428	0	0	
13	0	0	0	0	574	597	0	400	0	0	
14	0	0	0	0	575	641	0	377	0	0	
15	0	0	0	0	571	668	0	360	0	0	
0	0	0	0	0	563	674	0	353	0	0	
1	0	0	0	0	552	663	0	354	0	0	
2	0	0	0	0	540	632	0	364	0	0	
3	0	0	0	0	526	586	0	383	0	0	
4	0	0	0	0	512	529	0	407	0	0	
5	0	0	0	0	499	466	0	435	0	0	
6	0	0	0	0	489	403	0	463	0	0	
7	0	0	0	0	483	347	0	490	0	0	
8	0	0	0	0	481	303	0	512	0	0	
9	0	0	0	0	483	275	0	527	0	0	
10	0	0	0	0	489	267	0	533	0	0	
11	0	0	0	0	498	277	0	530	0	0	
12	0	0	0	0	510	306	0	518	0	0	
13	0	0	0	0	523	351	0	498	0	0	
14	0	0	0	0	536	407	0	473	0	0	
15	0	0	0	0	548	469	0	444	0	0	
0	0	0	0	0	558	531	0	414	0	0	
1	0	0	0	0	563	587	0	385	0	0	
2	0	0	0	0	564	631	0	362	0	0	
3	0	0	0	0	561	658	0	346	0	0	
4	0	0	0	0	555	667	0	339	0	0	
5	0	0	0	0	544	655	0	342	0	0	
6	0	0	0	0	532	625	0	352	0	0	
7	0	0	0	0	519	579	0	372	0	0	
8	0	0	0	0	505	523	0	398	0	0	
9	0	0	0	0	493	460	0	428	0	0	
10	0	0	0	0	483	399	0	457	0	0	
11	0	0	0	0	478	343	0	486	0	0	
12	0	0	0	0	476	300	0	510	0	0	
13	0	0	0	0	480	273	0	526	0	0	
14	0	0	0	0	486	265	0	534	0	0	
15	0	0	0	0	497	276	0	533	0	0	
0	0	0	0	0	511	307	0	523	0	0	
1	0	0	0	0	526	352	0	505	0	0	
2	0	0	0	0	541	409	0	481	0	0	
3	0	0	0	0	554	472	0	453	0	0	
4	0	0	0	0	563	534	0	423	0	0	
5	0	0	0	0	571	591	0	396	0	0	
6	0	0	0	0	573	636	0	373	0	0	
7	0	0	0	0	571	664	0	357	0	0	
8	0	0	0	0	564	672	0	350	0	0	
9	0	0	0	0	555	662	0	352	0	0	
10	0	0	0	0	543	632	0	363	0	0	
11	0	0	0	0	529	587	0	382	0	0	
12	0	0	0	0	515	530	0	407	0	0	
13	0	0	0	0	503	469	0	436	0	0	
14	0	0	0	0	494	408	0	466	0	0	
15	0	0	0	0	488	352	0	494	0	0	
0	0	0	0	0	487	308	0	518	0	0	
1	0	0	0	0	490	281	0	535	0	0	
2	0	0	0	0	497	272	0	542	0	0	
3	0	0	0	0	507	283	0	540	0	0	
4	0	0	0	0	520	312	0	530	0	0	
5	0	0	0	0	534	357	0	511	0	0	
6	0	0	0	0	547	414	0	486	0	0	
7	0	0	0	0	559	475	0	457	0	0	
8	0	0	0	0	568	538	0	427	0	0	
9	0	0	0	0	574	595	0	399	0	0	
10	0	0	0	0	574	639	0	375	0	0	
11	0	0	0	0	571	667	0	359	0	0	
12	0	0	0	0	563	676	0	351	0	0	
13	0	0	0	0	552	665	0	352	0	0	
14	0	0	0	0	540	636	0	362	0	0	
15	0	0	0	0	526	591	0	380	0	0	
0	0	0	0	0	513	535	0	405	0	0	
1	0	0	0	0	500	473	0	433	0	0	
2	0	0	0	0	492	412	0	462	0	0	
3	0	0	0	0	487	356	0	490	0	0	
4	0	0	0	0	486	312	0	513	0	0	
5	0	0	0	0	489	285	0	529	0	0	
6	0	0	0	0	496	275	0	537	0	0	
7	0	0	0	0	507	285	0	536	0	0	
8	0	0	0	0	520	314	0	525	0	0	
9	0	0	0	0	535	359	0	507	0	0	
10	0	0	0	0	548	415	0	482	0	0	
11	0	0	0	0	560	476	0	453	0	0	
12	0	0	0	0	569	538	0	424	0	0	
13	0	0	0	0	575	595	0	396	0	0	
14	0	0	0	0	576	639	0	373	0	0	
15	0	0	0	0	573	667	0	357	0	0	
0	0	0	0	0	565	675	0	350	0	0	
1	0	0	0	0	554	665	0	352	0	0	
2	0	0	0	0	542	636	0	363	0	0	
3	0	0	0	0	528	591	0	382	0	0	
4	0	0	0	0	514	535	0	408	0	0	
5	0	0	0	0	503	474	0	437	0	0	
6	0	0	0	0	494	412	0	467	0	0	
7	0	0	0	0	489	358	0	496	0	0	
8	0	0	0	0	489	315	0	521	0	0	
9	0	0	0	0	494	288	0	538	0	0	
10	0	0	0	0	501	280	0	546	0	0	
11	0	0	0	0	512	291	0	545	0	0	
12	0	0	0	0	526	320	0	534	0	0	
13	0	0	0	0	540	364	0	515	0	0	
14	0	0	0	0	552	419	0	488	0	0	
15	0	0	0	0	562	479	0	457	0	0	
0	0	0	0	0	568	538	0	423	0	0	
1	0	0	0	0	568	590	0	390	0	0	
2	0	0	0	0	562	628	0	360	0	0	
3	0	0	0	0	551	649	0	336	0	0	
4	0	0	0	0	535	650	0	320	0	0	
5	0	0	0	0	513	630	0	312	0	0	
6	0	0	0	0	490	590	0	311	0	0	
7	0	0	0	0	465	534	0	318	0	0	
8	0	0	0	0	439	466	0	331	0	0	
9	0	0	0	0	414	391	0	348	0	0	
10	0	0	0	0	391	317	0	364	0	0	
11	0	0	0	0	372	248	0	380	0	0	
12	0	0	0	0	358	191	0	391	0	0	
13	0	0	0	0	347	149	0	394	0	0	
14	0	0	0	0	340	124	0	388	0	0	
15	0	0	0	0	336	119	0	372	0	0	
0	0	0	0	0	336	131	0	349	0	0	
1	0	0	0	0	337	159	0	316	0	0	
2	0	0	0	0	339	200	0	279	0	0	
3	0	0	0	0	339	248	0	237	0	0	
4	0	0	0	0	338	299	0	195	0	0	
5	0	0	0	0	334	345	0	154	0	0	
6	0	0	0	0	327	383	0	120	0	0	
7	0	0	0	0	318	406	0	94	0	0	
8	0	0	0	0	306	412	0	79	0	0	
9	0	0	0	0	295	401	0	76	0	0	
10	0	0	0	0	284	375	0	88	0	0	
11	0	0	0	0	275	336	0	112	0	0	
12	0	0	0	0	270	289	0	147	0	0	
13	0	0	0	0	270	240	0	192	0	0	
14	0	0	0	0	276	194	0	241	0	0	
15	0	0	0	0	290	156	0	293	0	0	
0	0	0	0	0	312	133	0	344	0	0	
1	0	0	0	0	340	127	0	391	0	0	
2	0	0	0	0	375	140	0	430	0	0	
3	0	0	0	0	414	175	0	458	0	0	
4	0	0	0	0	455	227	0	476	0	0	
5	0	0	0	0	497	295	0	483	0	0	
6	0	0	0	0	536	374	0	481	0	0	
7	0	0	0	0	572	457	0	471	0	0	
8	0	0	0	0	600	539	0	455	0	0	
9	0	0	0	0	621	612	0	437	0	0	
10	0	0	0	0	632	671	0	420	0	0	
11	0	0	0	0	635	710	0	407	0	0	
12	0	0	0	0	629	725	0	399	0	0	
13	0	0	0	0	616	718	0	398	0	0	
14	0	0	0	0	599	689	0	405	0	0	
15	0	0	0	0	576	641	0	419	0	0	
0	0	0	0	0	553	579	0	437	0	0	
1	0	0	0	0	530	509	0	460	0	0	
2	0	0	0	0	511	441	0	483	0	0	
3	0	0	0	0	496	377	0	505	0	0	
4	0	0	0	0	487	325	0	524	0	0	
5	0	0	0	0	484	290	0	537	0	0	
6	0	0	0	0	488	276	0	543	0	0	
7	0	0	0	0	497	282	0	541	0	0	
8	0	0	0	0	511	309	0	531	0	0	
9	0	0	0	0	527	353	0	514	0	0	
10	0	0	0	0	545	409	0	491	0	0	
11	0	0	0	0	561	474	0	465	0	0	
12	0	0	0	0	575	539	0	439	0	0	
13	0	0	0	0	585	599	0	414	0	0	
14	0	0	0	0	591	648	0	393	0	0	
15	0	0	0	0	591	680	0	380	0	0	
0	0	0	0	0	587	693	0	374	0	0	
1	0	0	0	0	578	685	0	377	0	0	
2	0	0	0	0	567	658	0	388	0	0	
3	0	0	0	0	553	615	0	408	0	0	
4	0	0	0	0	540	560	0	433	0	0	
5	0	0	0	0	526	497	0	462	0	0	
6	0	0	0	0	515	436	0	491	0	0	
7	0	0	0	0	508	380	0	518	0	0	
8	0	0	0	0	506	335	0	540	0	0	
9	0	0	0	0	508	306	0	556	0	0	
10	0	0	0	0	514	295	0	563	0	0	
11	0	0	0	0	524	305	0	561	0	0	
12	0	0	0	0	537	334	0	550	0	0	
13	0	0	0	0	551	378	0	531	0	0	
14	0	0	0	0	565	433	0	507	0	0	
15	0	0	0	0	577	494	0	479	0	0	
0	0	0	0	0	587	556	0	449	0	0	
1	0	0	0	0	593	612	0	421	0	0	
2	0	0	0	0	594	657	0	398	0	0	
3	0	0	0	0	591	685	0	382	0	0	
4	0	0	0	0	584	694	0	374	0	0	
5	0	0	0	0	574	684	0	375	0	0	
6	0	0	0	0	562	655	0	385	0	0	
7	0	0	0	0	548	610	0	403	0	0	
8	0	0	0	0	534	555	0	428	0	0	
9	0	0	0	0	522	493	0	455	0	0	
10	0	0	0	0	512	432	0	484	0	0	
11	0	0	0	0	506	376	0	512	0	0	
12	0	0	0	0	505	332	0	535	0	0	
13	0	0	0	0	508	303	0	551	0	0	
14	0	0	0	0	515	293	0	558	0	0	
15	0	0	0	0	524	303	0	556	0	0	
0	0	0	0	0	537	331	0	545	0	0	
1	0	0	0	0	551	375	0	527	0	0	
2	0	0	0	0	565	430	0	502	0	0	
3	0	0	0	0	576	491	0	474	0	0	
4	0	0	0	0	585	552	0	445	0	0	
5	0	0	0	0	591	608	0	417	0	0	
6	0	0	0	0	591	652	0	394	0	0	
7	0	0	0	0	588	680	0	378	0	0	
8	0	0	0	0	580	690	0	371	0	0	
9	0	0	0	0	569	679	0	373	0	0	
10	0	0	0	0	556	651	0	384	0	0	
11	0	0	0	0	542	606	0	403	0	0	
12	0	0	0	0	527	551	0	428	0	0	
13	0	0	0	0	515	489	0	456	0	0	
14	0	0	0	0	504	428	0	485	0	0	
15	0	0	0	0	498	373	0	512	0	0	
0	0	0	0	0	496	329	0	534	0	0	
1	0	0	0	0	499	301	0	550	0	0	
2	0	0	0	0	506	292	0	556	0	0	
3	0	0	0	0	516	302	0	553	0	0	
4	0	0	0	0	529	331	0	542	0	0	
5	0	0	0	0	543	375	0	523	0	0	
6	0	0	0	0	557	430	0	497	0	0	
7	0	0	0	0	569	491	0	468	0	0	
8	0	0	0	0	579	552	0	439	0	0	
9	0	0	0	0	586	608	0	411	0	0	
10	0	0	0	0	588	652	0	388	0	0	
11	0	0	0	0	585	679	0	371	0	0	
12	0	0	0	0	578	687	0	364	0	0	
13	0	0	0	0	568	676	0	366	0	0	
14	0	0	0	0	556	647	0	376	0	0	
15	0	0	0	0	542	602	0	396	0	0	
0	0	0	0	0	528	545	0	420	0	0	
1	0	0	0	0	515	483	0	450	0	0	
2	0	0	0	0	504	422	0	479	0	0	
3	0	0	0	0	498	367	0	506	0	0	
4	0	0	0	0	496	322	0	529	0	0	
5	0	0	0	0	499	294	0	545	0	0	
6	0	0	0	0	505	284	0	552	0	0	
7	0	0	0	0	514	293	0	550	0	0	
8	0	0	0	0	527	322	0	539	0	0	
9	0	0	0	0	541	366	0	520	0	0	
10	0	0	0	0	555	422	0	495	0	0	
11	0	0	0	0	567	483	0	466	0	0	
12	0	0	0	0	577	545	0	437	0	0	
13	0	0	0	0	584	602	0	408	0	0	
14	0	0	0	0	586	647	0	385	0	0	
15	0	0	0	0	583	676	0	369	0	0	
0	0	0	0	0	577	686	0	361	0	0	
1	0	0	0	0	567	676	0	364	0	0	
2	0	0	0	0	555	648	0	374	0	0	
3	0	0	0	0	541	604	0	393	0	0	
4	0	0	0	0	527	549	0	419	0	0	
5	0	0	0	0	514	487	0	448	0	0	
6	0	0	0	0	503	425	0	477	0	0	
7	0	0	0	0	497	369	0	504	0	0	
8	0	0	0	0	494	323	0	527	0	0	
9	0	0	0	0	496	294	0	543	0	0	
10	0	0	0	0	503	284	0	549	0	0	
11	0	0	0	0	512	291	0	547	0	0	
12	0	0	0	0	525	319	0	535	0	0	
13	0	0	0	0	539	361	0	516	0	0	
14	0	0	0	0	553	416	0	491	0	0	
15	0	0	0	0	566	477	0	462	0	0	
0	0	0	0	0	575	539	0	431	0	0	
1	0	0	0	0	581	595	0	403	0	0	
2	0	0	0	0	582	639	0	380	0	0	
3	0	0	0	0	579	668	0	364	0	0	
4	0	0	0	0	571	678	0	357	0	0	
5	0	0	0	0	560	669	0	358	0	0	
6	0	0	0	0	547	641	0	369	0	0	
7	0	0	0	0	532	597	0	388	0	0	
8	0	0	0	0	518	542	0	414	0	0	
9	0	0	0	0	504	480	0	443	0	0	
10	0	0	0	0	494	419	0	472	0	0	
11	0	0	0	0	487	363	0	500	0	0	
12	0	0	0	0	486	318	0	524	0	0	
13	0	0	0	0	488	289	0	540	0	0	
14	0	0	0	0	495	279	0	547	0	0	
15	0	0	0	0	505	289	0	545	0	0	
0	0	0	0	0	518	317	0	534	0	0	
1	0	0	0	0	533	361	0	515	0	0	
2	0	0	0	0	547	416	0	491	0	0	
3	0	0	0	0	560	478	0	462	0	0	
4	0	0	0	0	570	541	0	432	0	0	
5	0	0	0	0	577	598	0	403	0	0	
6	0	0	0	0	579	643	0	380	0	0	
7	0	0	0	0	576	672	0	364	0	0	
8	0	0	0	0	569	682	0	356	0	0	
9	0	0	0	0	559	672	0	358	0	0	
10	0	0	0	0	547	643	0	368	0	0	
11	0	0	0	0	533	599	0	387	0	0	
12	0	0	0	0	519	542	0	412	0	0	
13	0	0	0	0	506	480	0	440	0	0	
14	0	0	0	0	496	418	0	471	0	0	
15	0	0	0	0	490	361	0	498	0	0	
0	0	0	0	0	488	316	0	521	0	0	
1	0	0	0	0	491	287	0	537	0	0	
2	0	0	0	0	497	277	0	543	0	0	
3	0	0	0	0	508	286	0	543	0	0	
4	0	0	0	0	520	314	0	531	0	0	
5	0	0	0	0	534	358	0	512	0	0	
6	0	0	0	0	547	413	0	487	0	0	
7	0	0	0	0	560	474	0	458	0	0	
8	0	0	0	0	569	536	0	429	0	0	
9	0	0	0	0	575	593	0	401	0	0	
10	0	0	0	0	577	638	0	379	0	0	
11	0	0	0	0	575	668	0	363	0	0	
12	0	0	0	0	568	679	0	355	0	0	
13	0	0	0	0	558	669	0	357	0	0	
14	0	0	0	0	545	642	0	368	0	0	
15	0	0	0	0	532	599	0	387	0	0	
0	0	0	0	0	518	543	0	412	0	0	
1	0	0	0	0	506	482	0	441	0	0	
2	0	0	0	0	496	422	0	471	0	0	
3	0	0	0	0	490	367	0	499	0	0	
4	0	0	0	0	489	323	0	523	0	0	
5	0	0	0	0	492	295	0	540	0	0	
6	0	0	0	0	500	285	0	548	0	0	
7	0	0	0	0	510	294	0	546	0	0	
8	0	0	0	0	524	322	0	536	0	0	
9	0	0	0	0	539	366	0	517	0	0	
10	0	0	0	0	554	422	0	492	0	0	
11	0	0	0	0	567	482	0	464	0	0	
12	0	0	0	0	577	544	0	433	0	0	
13	0	0	0	0	584	600	0	406	0	0	
14	0	0	0	0	586	645	0	382	0	0	
15	0	0	0	0	583	673	0	365	0	0	
0	0	0	0	0	576	683	0	357	0	0	
1	0	0	0	0	565	673	0	359	0	0	
2	0	0	0	0	553	645	0	369	0	0	
3	0	0	0	0	539	601	0	388	0	0	
4	0	0	0	0	524	546	0	414	0	0	
5	0	0	0	0	511	485	0	443	0	0	
6	0	0	0	0	501	423	0	473	0	0	
7	0	0	0	0	495	368	0	502	0	0	
8	0	0	0	0	492	324	0	526	0	0	
9	0	0	0	0	495	295	0	542	0	0	
10	0	0	0	0	501	284	0	550	0	0	
11	0	0	0	0	512	294	0	548	0	0	
12	0	0	0	0	525	322	0	537	0	0	
13	0	0	0	0	539	366	0	519	0	0	
14	0	0	0	0	553	421	0	493	0	0	
15	0	0	0	0	566	482	0	464	0	0	
0	0	0	0	0	575	544	0	433	0	0	
1	0	0	0	0	582	601	0	405	0	0	
2	0	0	0	0	584	646	0	381	0	0	
3	0	0	0	0	582	674	0	364	0	0	
4	0	0	0	0	575	684	0	355	0	0	
5	0	0	0	0	565	674	0	356	0	0	
6	0	0	0	0	553	646	0	366	0	0	
7	0	0	0	0	539	602	0	384	0	0	
8	0	0	0	0	525	546	0	409	0	0	
9	0	0	0	0	512	485	0	438	0	0	
10	0	0	0	0	502	423	0	467	0	0	
11	0	0	0	0	496	368	0	496	0	0	
12	0	0	0	0	494	323	0	519	0	0	
13	0	0	0	0	496	295	0	536	0	0	
14	0	0	0	0	502	284	0	544	0	0	
15	0	0	0	0	512	294	0	543	0	0	
0	0	0	0	0	525	322	0	533	0	0	
1	0	0	0	0	539	366	0	514	0	0	
2	0	0	0	0	553	421	0	489	0	0	
3	0	0	0	0	566	482	0	461	0	0	
4	0	0	0	0	575	543	0	431	0	0	
5	0	0	0	0	582	600	0	403	0	0	
6	0	0	0	0	583	645	0	380	0	0	
7	0	0	0	0	581	673	0	363	0	0	
8	0	0	0	0	574	683	0	355	0	0	
9	0	0	0	0	563	673	0	357	0	0	
10	0	0	0	0	551	644	0	368	0	0	
11	0	0	0	0	537	600	0	387	0	0	
12	0	0	0	0	523	544	0	412	0	0	
13	0	0	0	0	510	483	0	442	0	0	
14	0	0	0	0	499	421	0	473	0	0	
15	0	0	0	0	493	366	0	501	0	0	
0	0	0	0	0	492	321	0	525	0	0	
1	0	0	0	0	494	293	0	542	0	0	
2	0	0	0	0	502	284	0	550	0	0	
3	0	0	0	0	511	293	0	547	0	0	
4	0	0	0	0	524	322	0	537	0	0	
5	0	0	0	0	539	367	0	518	0	0	
6	0	0	0	0	553	422	0	493	0	0	
7	0	0	0	0	566	484	0	464	0	0	
8	0	0	0	0	575	546	0	434	0	0	
9	0	0	0	0	580	603	0	405	0	0	
10	0	0	0	0	582	648	0	381	0	0	
11	0	0	0	0	579	677	0	364	0	0	
12	0	0	0	0	572	687	0	356	0	0	
13	0	0	0	0	562	677	0	356	0	0	
14	0	0	0	0	550	648	0	368	0	0	
15	0	0	0	0	536	604	0	386	0	0	
0	0	0	0	0	524	548	0	411	0	0	
1	0	0	0	0	511	487	0	441	0	0	
2	0	0	0	0	502	425	0	471	0	0	
3	0	0	0	0	497	369	0	500	0	0	
4	0	0	0	0	496	325	0	524	0	0	
5	0	0	0	0	500	296	0	541	0	0	
6	0	0	0	0	507	286	0	550	0	0	
7	0	0	0	0	518	295	0	549	0	0	
8	0	0	0	0	531	323	0	539	0	0	
9	0	0	0	0	545	368	0	522	0	0	
10	0	0	0	0	558	423	0	498	0	0	
11	0	0	0	0	571	485	0	470	0	0	
12	0	0	0	0	580	547	0	440	0	0	
13	0	0	0	0	586	604	0	412	0	0	
14	0	0	0	0	588	649	0	389	0	0	
15	0	0	0	0	584	679	0	372	0	0	
0	0	0	0	0	576	688	0	364	0	0	
1	0	0	0	0	566	678	0	365	0	0	
2	0	0	0	0	553	650	0	375	0	0	
3	0	0	0	0	539	606	0	393	0	0	
4	0	0	0	0	524	551	0	417	0	0	
5	0	0	0	0	511	489	0	445	0	0	
6	0	0	0	0	501	428	0	474	0	0	
7	0	0	0	0	494	372	0	502	0	0	
8	0	0	0	0	492	327	0	525	0	0	
9	0	0	0	0	495	299	0	541	0	0	
10	0	0	0	0	502	289	0	548	0	0	
11	0	0	0	0	511	298	0	547	0	0	
12	0	0	0	0	525	327	0	536	0	0	
13	0	0	0	0	539	371	0	518	0	0	
14	0	0	0	0	553	425	0	494	0	0	
15	0	0	0	0	567	487	0	466	0	0	
0	0	0	0	0	576	548	0	436	0	0	
1	0	0	0	0	583	604	0	408	0	0	
2	0	0	0	0	584	649	0	385	0	0	
3	0	0	0	0	582	677	0	369	0	0	
4	0	0	0	0	575	686	0	361	0	0	
5	0	0	0	0	564	676	0	363	0	0	
6	0	0	0	0	551	647	0	374	0	0	
7	0	0	0	0	537	603	0	392	0	0	
8	0	0	0	0	524	547	0	417	0	0	
9	0	0	0	0	511	486	0	446	0	0	
10	0	0	0	0	500	424	0	475	0	0	
11	0	0	0	0	495	368	0	502	0	0	
12	0	0	0	0	492	324	0	526	0	0	
13	0	0	0	0	495	295	0	541	0	0	
14	0	0	0	0	501	284	0	548	0	0	
15	0	0	0	0	510	294	0	546	0	0	
0	0	0	0	0	523	321	0	535	0	0	
1	0	0	0	0	536	364	0	515	0	0	
2	0	0	0	0	549	418	0	490	0	0	
3	0	0	0	0	561	479	0	460	0	0	
4	0	0	0	0	569	540	0	430	0	0	
5	0	0	0	0	575	596	0	401	0	0	
6	0	0	0	0	576	641	0	377	0	0	
7	0	0	0	0	574	669	0	360	0	0	
8	0	0	0	0	567	679	0	352	0	0	
9	0	0	0	0	557	669	0	354	0	0	
10	0	0	0	0	545	641	0	364	0	0	
11	0	0	0	0	532	597	0	384	0	0	
12	0	0	0	0	519	541	0	408	0	0	
13	0	0	0	0	507	480	0	438	0	0	
14	0	0	0	0	497	418	0	467	0	0	
15	0	0	0	0	492	363	0	496	0	0	
0	0	0	0	0	490	318	0	519	0	0	
1	0	0	0	0	493	289	0	536	0	0	
2	0	0	0	0	498	279	0	543	0	0	
3	0	0	0	0	508	288	0	542	0	0	
4	0	0	0	0	520	317	0	531	0	0	
5	0	0	0	0	533	360	0	512	0	0	
6	0	0	0	0	546	416	0	487	0	0	
7	0	0	0	0	559	477	0	459	0	0	
8	0	0	0	0	567	539	0	428	0	0	
9	0	0	0	0	572	595	0	399	0	0	
10	0	0	0	0	574	640	0	375	0	0	
11	0	0	0	0	571	669	0	358	0	0	
12	0	0	0	0	564	679	0	350	0	0	
13	0	0	0	0	554	669	0	351	0	0	
14	0	0	0	0	542	640	0	361	0	0	
15	0	0	0	0	528	596	0	379	0	0	
0	0	0	0	0	515	540	0	404	0	0	
1	0	0	0	0	503	478	0	433	0	0	
2	0	0	0	0	492	415	0	463	0	0	
3	0	0	0	0	486	358	0	491	0	0	
4	0	0	0	0	483	312	0	514	0	0	
5	0	0	0	0	485	282	0	531	0	0	
6	0	0	0	0	491	271	0	538	0	0	
7	0	0	0	0	500	279	0	536	0	0	
8	0	0	0	0	512	305	0	525	0	0	
9	0	0	0	0	525	348	0	505	0	0	
10	0	0	0	0	538	403	0	480	0	0	
11	0	0	0	0	550	464	0	451	0	0	
12	0	0	0	0	559	527	0	420	0	0	
13	0	0	0	0	566	585	0	391	0	0	
14	0	0	0	0	568	631	0	367	0	0	
15	0	0	0	0	565	661	0	350	0	0	
0	0	0	0	0	559	672	0	342	0	0	
1	0	0	0	0	550	664	0	343	0	0	
2	0	0	0	0	539	637	0	354	0	0	
3	0	0	0	0	526	593	0	373	0	0	
4	0	0	0	0	513	539	0	399	0	0	
5	0	0	0	0	501	477	0	428	0	0	
6	0	0	0	0	492	416	0	459	0	0	
7	0	0	0	0	486	359	0	487	0	0	
8	0	0	0	0	484	315	0	511	0	0	
9	0	0	0	0	487	285	0	528	0	0	
10	0	0	0	0	494	274	0	536	0	0	
11	0	0	0	0	503	283	0	535	0	0	
12	0	0	0	0	516	310	0	524	0	0	
13	0	0	0	0	529	352	0	506	0	0	
14	0	0	0	0	543	407	0	481	0	0	
15	0	0	0	0	554	467	0	452	0	0	
0	0	0	0	0	563	530	0	422	0	0	
1	0	0	0	0	568	586	0	392	0	0	
2	0	0	0	0	569	632	0	368	0	0	
3	0	0	0	0	566	661	0	351	0	0	
4	0	0	0	0	559	671	0	342	0	0	
5	0	0	0	0	548	663	0	342	0	0	
6	0	0	0	0	536	635	0	352	0	0	
7	0	0	0	0	522	592	0	370	0	0	
8	0	0	0	0	508	537	0	395	0	0	
9	0	0	0	0	496	476	0	424	0	0	
10	0	0	0	0	486	415	0	454	0	0	
11	0	0	0	0	480	359	0	483	0	0	
12	0	0	0	0	478	315	0	508	0	0	
13	0	0	0	0	480	286	0	525	0	0	
14	0	0	0	0	487	275	0	534	0	0	
15	0	0	0	0	497	285	0	533	0	0	
0	0	0	0	0	511	312	0	524	0	0	
1	0	0	0	0	526	356	0	506	0	0	
2	0	0	0	0	541	411	0	482	0	0	
3	0	0	0	0	555	472	0	454	0	0	
4	0	0	0	0	566	536	0	424	0	0	
5	0	0	0	0	574	592	0	396	0	0	
6	0	0	0	0	577	638	0	373	0	0	
7	0	0	0	0	576	668	0	357	0	0	
8	0	0	0	0	571	679	1	349	0	0	
9	0	0	0	0	561	670	0	351	0	0	
10	0	0	0	0	550	643	0	362	0	0	
11	0	0	0	0	536	600	0	381	0	0	
12	0	0	0	0	522	545	0	406	0	0	
13	0	0	0	0	509	484	0	435	0	0	
14	0	0	0	0	498	422	0	465	0	0	
15	0	0	0	0	492	366	0	494	0	0	
0	0	0	0	0	488	320	0	518	0	0	
1	0	0	0	0	490	291	0	535	0	0	
2	0	0	0	0	496	280	0	543	0	0	
3	0	0	0	0	505	288	0	541	0	0	
4	0	0	0	0	517	316	0	531	0	0	
5	0	0	0	0	530	358	0	512	0	0	
6	0	0	0	0	544	413	0	487	0	0	
7	0	0	0	0	557	474	0	458	0	0	
8	0	0	0	0	567	536	0	428	0	0	
9	0	0	0	0	574	592	0	399	0	0	
10	0	0	0	0	576	637	0	375	0	0	
11	0	0	0	0	574	667	0	358	0	0	
12	0	0	0	0	568	677	0	350	0	0	
13	0	0	0	0	558	668	0	350	0	0	
14	0	0	0	0	546	640	0	360	0	0	
15	0	0	0	0	532	596	0	379	0	0	
0	0	0	0	0	518	541	0	404	0	0	
1	0	0	0	0	505	480	0	432	0	0	
2	0	0	0	0	494	417	0	462	0	0	
3	0	0	0	0	488	362	0	490	0	0	
4	0	0	0	0	485	317	0	514	0	0	
5	0	0	0	0	487	287	0	531	0	0	
6	0	0	0	0	493	277	0	540	0	0	
7	0	0	0	0	502	286	0	538	0	0	
8	0	0	0	0	515	313	0	528	0	0	
9	0	0	0	0	529	357	0	510	0	0	
10	0	0	0	0	543	412	0	485	0	0	
11	0	0	0	0	555	474	0	456	0	0	
12	0	0	0	0	566	536	0	427	0	0	
13	0	0	0	0	573	593	0	398	0	0	
14	0	0	0	0	575	639	0	374	0	0	
15	0	0	0	0	574	669	0	357	0	0	
0	0	0	0	0	568	680	0	349	0	0	
1	0	0	0	0	559	671	0	350	0	0	
2	0	0	0	0	547	644	0	360	0	0	
3	0	0	0	0	534	600	0	379	0	0	
4	0	0	0	0	520	545	0	404	0	0	
5	0	0	0	0	507	483	0	434	0	0	
6	0	0	0	0	496	422	0	463	0	0	
7	0	0	0	0	490	364	0	492	0	0	
8	0	0	0	0	487	318	0	515	0	0	
9	0	0	0	0	489	288	0	532	0	0	
10	0	0	0	0	495	277	0	540	0	0	
11	0	0	0	0	504	285	0	538	0	0	
12	0	0	0	0	516	312	0	528	0	0	
13	0	0	0	0	529	355	0	510	0	0	
14	0	0	0	0	543	410	0	485	0	0	
15	0	0	0	0	555	471	0	456	0	0	
0	0	0	0	0	565	535	0	426	0	0	
1	0	0	0	0	572	592	0	397	0	0	
2	0	0	0	0	575	638	0	373	0	0	
3	0	0	0	0	573	668	0	356	0	0	
4	0	0	0	0	568	679	0	348	0	0	
5	0	0	0	0	559	672	0	349	0	0	
6	0	0	0	0	547	644	0	359	0	0	
7	0	0	0	0	535	601	0	378	0	0	
8	0	0	0	0	521	547	0	403	0	0	
9	0	0	0	0	509	485	0	433	0	0	
10	0	0	0	0	499	424	0	463	0	0	
11	0	0	0	0	492	368	0	492	0	0	
12	0	0	0	0	490	323	0	516	0	0	
13	0	0	0	0	492	294	0	533	0	0	
14	0	0	0	0	498	284	0	541	0	0	
15	0	0	0	0	508	291	0	541	0	0	
0	0	0	0	0	519	319	0	531	0	0	
1	0	0	0	0	534	363	0	512	0	0	
2	0	0	0	0	547	417	0	488	0	0	
3	0	0	0	0	560	479	0	460	0	0	
4	0	0	0	0	570	541	0	429	0	0	
5	0	0	0	0	577	599	0	400	0	0	
6	0	0	0	0	579	644	0	376	0	0	
7	0	0	0	0	576	674	0	358	0	0	
8	0	0	0	0	570	685	0	350	0	0	
9	0	0	0	0	560	676	0	351	0	0	
10	0	0	0	0	548	649	0	360	0	0	
11	0	0	0	0	534	605	0	379	0	0	
12	0	0	0	0	519	549	0	403	0	0	
13	0	0	0	0	507	487	0	432	0	0	
14	0	0	0	0	496	425	0	462	0	0	
15	0	0	0	0	489	367	0	490	0	0	
0	0	0	0	0	486	321	0	514	0	0	
1	0	0	0	0	488	291	0	530	0	0	
2	0	0	0	0	494	278	0	539	0	0	
3	0	0	0	0	503	285	0	537	0	0	
4	0	0	0	0	515	312	0	526	0	0	
5	0	0	0	0	528	355	0	507	0	0	
6	0	0	0	0	542	409	0	481	0	0	
7	0	0	0	0	553	469	0	452	0	0	
8	0	0	0	0	563	531	0	421	0	0	
9	0	0	0	0	569	589	0	391	0	0	
10	0	0	0	0	571	635	0	367	0	0	
11	0	0	0	0	568	664	0	348	0	0	
12	0	0	0	0	561	675	0	339	0	0	
13	0	0	0	0	551	667	0	339	0	0	
14	0	0	0	0	538	639	0	349	0	0	
15	0	0	0	0	524	595	0	367	0	0	
0	0	0	0	0	510	540	0	392	0	0	
1	0	0	0	0	497	478	0	421	0	0	
2	0	0	0	0	487	416	0	451	0	0	
3	0	0	0	0	480	359	0	479	0	0	
4	0	0	0	0	478	313	0	504	0	0	
5	0	0	0	0	481	283	0	521	0	0	
6	0	0	0	0	488	272	0	531	0	0	
7	0	0	0	0	499	280	0	530	0	0	
8	0	0	0	0	513	307	0	521	0	0	
9	0	0	0	0	528	351	0	504	0	0	
10	0	0	0	0	543	406	0	481	0	0	
11	0	0	0	0	556	468	0	454	0	0	
12	0	0	0	0	567	531	0	424	0	0	
13	0	0	0	0	575	590	0	396	0	0	
14	0	0	0	0	576	635	0	372	0	0	
15	0	0	0	0	574	666	0	355	0	0	
0	0	0	0	0	567	677	0	346	0	0	
1	0	0	0	0	556	669	0	346	0	0	
2	0	0	0	0	544	642	0	355	0	0	
3	0	0	0	0	531	599	0	373	0	0	
4	0	0	0	0	516	544	0	397	0	0	
5	0	0	0	0	505	483	0	426	0	0	
6	0	0	0	0	495	422	0	455	0	0	
7	0	0	0	0	489	366	0	484	0	0	
8	0	0	0	0	487	321	0	508	0	0	
9	0	0	0	0	491	292	0	526	0	0	
10	0	0	0	0	498	282	0	536	0	0	
11	0	0	0	0	508	290	0	536	0	0	
12	0	0	0	0	522	318	0	527	0	0	
13	0	0	0	0	536	362	0	510	0	0	
14	0	0	0	0	550	417	0	487	0	0	
15	0	0	0	0	563	479	0	460	0	0	
0	0	0	0	0	573	542	0	430	0	0	
1	0	0	0	0	579	600	0	403	0	0	
2	0	0	0	0	581	646	0	379	0	0	
3	0	0	0	0	578	676	0	362	0	0	
4	0	0	0	0	572	687	0	354	0	0	
5	0	0	0	0	561	677	0	355	0	0	
6	0	0	0	0	550	650	0	364	0	0	
7	0	0	0	0	536	606	0	382	0	0	
8	0	0	0	0	522	551	0	406	0	0	
9	0	0	0	0	510	488	0	434	0	0	
10	0	0	0	0	499	425	0	463	0	0	
11	0	0	0	0	493	368	0	491	0	0	
12	0	0	0	0	492	322	0	514	0	0	
13	0	0	0	0	494	291	0	530	0	0	
14	0	0	0	0	499	278	0	537	0	0	
15	0	0	0	0	509	286	0	537	0	0	
0	0	0	0	0	521	313	0	526	0	0	
1	0	0	0	0	535	356	0	508	0	0	
2	0	0	0	0	548	411	0	483	0	0	
3	0	0	0	0	560	472	0	455	0	0	
4	0	0	0	0	569	535	0	425	0	0	
5	0	0	0	0	575	593	0	397	0	0	
6	0	0	0	0	577	640	0	374	0	0	
7	0	0	0	0	574	671	0	357	0	0	
8	0	0	0	0	568	683	0	349	0	0	
9	0	0	0	0	558	675	0	350	0	0	
10	0	0	0	0	547	649	0	360	0	0	
11	0	0	0	0	534	606	0	380	0	0	
12	0	0	0	0	520	550	0	404	0	0	
13	0	0	0	0	508	489	0	433	0	0	
14	0	0	0	0	498	426	0	463	0	0	
15	0	0	0	0	492	369	0	491	0	0	
0	0	0	0	0	490	323	0	515	0	0	
1	0	0	0	0	492	292	0	531	0	0	
2	0	0	0	0	499	281	0	540	0	0	
3	0	0	0	0	509	288	0	539	0	0	
4	0	0	0	0	522	316	0	529	0	0	
5	0	0	0	0	537	359	0	512	0	0	
6	0	0	0	0	552	415	0	487	0	0	
7	0	0	0	0	565	477	0	460	0	0	
8	0	0	0	0	576	541	0	432	0	0	
9	0	0	0	0	584	600	0	404	0	0	
10	0	0	0	0	587	648	0	381	0	0	
11	0	0	0	0	584	679	0	364	0	0	
12	0	0	0	0	578	691	0	355	0	0	
13	0	0	0	0	567	682	0	354	0	0	
14	0	0	0	0	551	654	0	362	0	0	
15	0	0	0	0	534	607	0	377	0	0	
0	0	0	0	0	514	546	0	396	0	0	
1	0	0	0	0	494	478	0	418	0	0	
2	0	0	0	0	476	408	0	440	0	0	
3	0	0	0	0	460	342	0	459	0	0	
4	0	0	0	0	447	285	0	472	0	0	
5	0	0	0	0	438	243	0	477	0	0	
6	0	0	0	0	432	219	0	473	0	0	
7	0	0	0	0	429	212	0	460	0	0	
8	0	0	0	0	428	225	0	436	0	0	
9	0	0	0	0	430	254	0	405	0	0	
10	0	0	0	0	431	295	0	367	0	0	
11	0	0	0	0	432	343	0	327	0	0	
12	0	0	0	0	429	393	0	284	0	0	
13	0	0	0	0	423	439	0	242	0	0	
14	0	0	0	0	414	473	0	205	0	0	
15	0	0	0	0	399	492	0	175	0	0	
0	0	0	0	0	380	492	0	152	0	0	
1	0	0	0	0	358	472	0	139	0	0	
2	0	0	0	0	333	433	0	135	0	0	
3	0	0	0	0	307	379	0	141	0	0	
4	0	0	0	0	281	313	0	155	0	0	
5	0	0	0	0	258	243	0	176	0	0	
6	0	0	0	0	239	173	0	199	0	0	
7	0	0	0	0	226	111	0	225	0	0	
8	0	0	0	0	220	61	0	250	0	0	
9	0	0	0	0	224	30	0	273	0	0	
10	0	0	0	0	236	19	0	290	0	0	
11	0	0	0	0	257	32	0	301	0	0	
12	0	0	0	0	285	68	0	308	0	0	
13	0	0	0	0	320	125	0	309	0	0	
14	0	0	0	0	359	199	0	306	0	0	
15	0	0	0	0	400	285	0	301	0	0	
0	0	0	0	0	440	376	0	295	0	0	
1	0	0	0	0	478	465	0	292	0	0	
2	0	0	0	0	511	545	0	293	0	0	
3	0	0	0	0	537	608	0	300	0	0	
4	0	0	0	0	559	651	0	315	0	0	
5	0	0	0	0	571	670	0	336	0	0	
6	0	0	0	0	578	668	0	364	0	0	
7	0	0	0	0	579	643	0	398	0	0	
8	0	0	0	0	574	601	0	435	0	0	
9	0	0	0	0	566	548	0	472	0	0	
10	0	0	0	0	556	489	0	511	0	0	
11	0	0	0	0	548	433	0	543	0	0	
12	0	0	0	0	540	384	0	568	0	0	
13	0	0	0	0	536	347	0	584	0	0	
14	0	0	0	0	534	327	0	590	0	0	
15	0	0	0	0	535	326	0	584	0	0	
0	0	0	0	0	539	344	0	568	0	0	
1	0	0	0	0	546	378	0	543	0	0	
2	0	0	0	0	553	424	0	511	0	0	
3	0	0	0	0	562	480	0	476	0	0	
4	0	0	0	0	569	536	0	441	0	0	
5	0	0	0	0	575	592	0	408	0	0	
6	0	0	0	0	578	637	0	380	0	0	
7	0	0	0	0	578	668	0	361	0	0	
8	0	0	0	0	574	682	0	352	0	0	
9	0	0	0	0	568	677	0	354	0	0	
10	0	0	0	0	560	654	0	365	0	0	
11	0	0	0	0	551	615	0	387	0	0	
12	0	0	0	0	540	565	0	414	0	0	
13	0	0	0	0	531	508	0	447	0	0	
14	0	0	0	0	523	449	0	480	0	0	
15	0	0	0	0	518	396	0	512	0	0	
0	0	0	0	0	517	352	0	540	0	0	
1	0	0	0	0	519	323	0	559	0	0	
2	0	0	0	0	525	312	0	571	0	0	
3	0	0	0	0	534	319	0	571	0	0	
4	0	0	0	0	546	345	0	562	0	0	
5	0	0	0	0	558	387	0	544	0	0	
6	0	0	0	0	571	440	0	519	0	0	
7	0	0	0	0	583	500	0	490	0	0	
8	0	0	0	0	591	561	0	458	0	0	
9	0	0	0	0	597	617	0	428	0	0	
10	0	0	0	0	599	663	0	402	0	0	
11	0	0	0	0	596	692	0	383	0	0	
12	0	0	0	0	590	704	0	373	0	0	
13	0	0	0	0	580	696	0	372	0	0	
14	0	0	0	0	569	670	0	381	0	0	
15	0	0	0	0	556	627	0	399	0	0	
0	0	0	0	0	543	573	0	423	0	0	
1	0	0	0	0	531	513	0	452	0	0	
2	0	0	0	0	521	451	0	483	0	0	
3	0	0	0	0	516	397	0	513	0	0	
4	0	0	0	0	515	352	0	538	0	0	
5	0	0	0	0	518	322	0	556	0	0	
6	0	0	0	0	525	311	0	567	0	0	
7	0	0	0	0	535	320	0	567	0	0	
8	0	0	0	0	548	347	0	558	0	0	
9	0	0	0	0	562	389	0	541	0	0	
10	0	0	0	0	576	444	0	517	0	0	
11	0	0	0	0	588	504	0	488	0	0	
12	0	0	0	0	598	565	0	457	0	0	
13	0	0	0	0	604	622	0	430	0	0	
14	0	0	0	0	605	668	0	405	0	0	
15	0	0	0	0	603	697	0	387	0	0	
0	0	0	0	0	595	708	0	377	0	0	
1	0	0	0	0	585	700	0	377	0	0	
2	0	0	0	0	574	673	0	386	0	0	
3	0	0	0	0	560	631	0	404	0	0	
4	0	0	0	0	546	576	0	428	0	0	
5	0	0	0	0	534	515	0	457	0	0	
6	0	0	0	0	524	452	0	487	0	0	
7	0	0	0	0	518	397	0	515	0	0	
8	0	0	0	0	516	351	0	540	0	0	
9	0	0	0	0	518	320	0	557	0	0	
10	0	0	0	0	524	307	0	566	0	0	
11	0	0	0	0	535	315	0	566	0	0	
12	0	0	0	0	547	342	0	556	0	0	
13	0	0	0	0	560	384	0	538	0	0	
14	0	0	0	0	574	438	0	514	0	0	
15	0	0	0	0	587	498	0	486	0	0	
0	0	0	0	0	595	560	0	455	0	0	
1	0	0	0	0	602	617	0	427	0	0	
2	0	0	0	0	603	663	0	402	0	0	
3	0	0	0	0	600	694	0	384	0	0	
4	0	0	0	0	594	706	0	375	0	0	
5	0	0	0	0	583	697	0	375	0	0	
6	0	0	0	0	571	672	0	384	0	0	
7	0	0	0	0	557	629	0	402	0	0	
8	0	0	0	0	542	575	0	426	0	0	
9	0	0	0	0	529	513	0	455	0	0	
10	0	0	0	0	518	451	0	484	0	0	
11	0	0	0	0	511	394	0	512	0	0	
12	0	0	0	0	509	348	0	536	0	0	
13	0	0	0	0	511	317	0	553	0	0	
14	0	0	0	0	516	304	0	561	0	0	
15	0	0	0	0	527	312	0	561	0	0	
0	0	0	0	0	540	338	0	551	0	0	
1	0	0	0	0	554	381	0	534	0	0	
2	0	0	0	0	568	435	0	510	0	0	
3	0	0	0	0	581	496	0	481	0	0	
4	0	0	0	0	591	558	0	451	0	0	
5	0	0	0	0	598	616	0	423	0	0	
6	0	0	0	0	601	663	0	399	0	0	
7	0	0	0	0	599	694	0	382	0	0	
8	0	0	0	0	592	705	0	373	0	0	
9	0	0	0	0	583	699	0	373	0	0	
10	0	0	0	0	571	672	0	383	0	0	
11	0	0	0	0	557	629	0	401	0	0	
12	0	0	0	0	543	575	0	426	0	0	
13	0	0	0	0	529	513	0	454	0	0	
14	0	0	0	0	519	451	0	483	0	0	
15	0	0	0	0	512	393	0	512	0	0	
0	0	0	0	0	509	346	0	535	0	0	
1	0	0	0	0	511	314	0	552	0	0	
2	0	0	0	0	516	301	0	560	0	0	
3	0	0	0	0	526	307	0	559	0	0	
4	0	0	0	0	538	332	0	549	0	0	
5	0	0	0	0	551	373	0	531	0	0	
6	0	0	0	0	564	427	0	506	0	0	
7	0	0	0	0	576	486	0	478	0	0	
8	0	0	0	0	586	548	0	448	0	0	
9	0	0	0	0	592	605	0	419	0	0	
10	0	0	0	0	594	651	0	395	0	0	
11	0	0	0	0	591	682	0	378	0	0	
12	0	0	0	0	585	694	0	369	0	0	
13	0	0	0	0	575	688	0	369	0	0	
14	0	0	0	0	563	662	0	379	0	0	
15	0	0	0	0	549	620	0	397	0	0	
0	0	0	0	0	536	566	0	421	0	0	
1	0	0	0	0	523	505	0	450	0	0	
2	0	0	0	0	512	445	0	480	0	0	
3	0	0	0	0	507	389	0	508	0	0	
4	0	0	0	0	505	344	0	532	0	0	
5	0	0	0	0	508	314	0	550	0	0	
6	0	0	0	0	515	302	0	560	0	0	
7	0	0	0	0	525	310	0	559	0	0	
8	0	0	0	0	538	336	0	550	0	0	
9	0	0	0	0	552	378	0	533	0	0	
10	0	0	0	0	567	432	0	509	0	0	
11	0	0	0	0	580	492	0	481	0	0	
12	0	0	0	0	590	554	0	450	0	0	
13	0	0	0	0	596	611	0	422	0	0	
14	0	0	0	0	598	656	0	396	0	0	
15	0	0	0	0	595	687	0	378	0	0	
0	0	0	0	0	588	697	0	368	0	0	
1	0	0	0	0	577	690	0	368	0	0	
2	0	0	0	0	565	663	0	376	0	0	
3	0	0	0	0	550	619	0	393	0	0	
4	0	0	0	0	535	563	0	417	0	0	
5	0	0	0	0	521	501	0	445	0	0	
6	0	0	0	0	510	439	0	475	0	0	
7	0	0	0	0	503	381	0	503	0	0	
8	0	0	0	0	500	334	0	527	0	0	
9	0	0	0	0	503	303	0	544	0	0	
10	0	0	0	0	508	290	0	553	0	0	
11	0	0	0	0	518	296	0	553	0	0	
12	0	0	0	0	531	322	0	543	0	0	
13	0	0	0	0	545	364	0	526	0	0	
14	0	0	0	0	559	419	0	502	0	0	
15	0	0	0	0	572	480	0	474	0	0	
0	0	0	0	0	583	543	0	444	0	0	
1	0	0	0	0	590	601	0	416	0	0	
2	0	0	0	0	593	649	0	392	0	0	
3	0	0	0	0	591	681	0	375	0	0	
4	0	0	0	0	585	695	0	366	0	0	
5	0	0	0	0	575	689	0	366	0	0	
6	0	0	0	0	564	663	0	376	0	0	
7	0	0	0	0	551	621	0	394	0	0	
8	0	0	0	0	537	567	0	418	0	0	
9	0	0	0	0	524	505	0	447	0	0	
10	0	0	0	0	513	444	0	477	0	0	
11	0	0	0	0	506	386	0	506	0	0	
12	0	0	0	0	504	339	0	531	0	0	
13	0	0	0	0	506	307	0	549	0	0	
14	0	0	0	0	512	294	0	559	0	0	
15	0	0	0	0	521	300	0	559	0	0	
0	0	0	0	0	534	325	0	550	0	0	
1	0	0	0	0	548	367	0	533	0	0	
2	0	0	0	0	563	420	0	509	0	0	
3	0	0	0	0	576	481	0	481	0	0	
4	0	0	0	0	587	544	0	451	0	0	
5	0	0	0	0	595	603	0	423	0	0	
6	0	0	0	0	598	650	0	399	0	0	
7	0	0	0	0	596	683	0	381	0	0	
8	0	0	0	0	590	696	0	371	0	0	
9	0	0	0	0	581	691	0	371	0	0	
10	0	0	0	0	570	667	0	380	0	0	
11	0	0	0	0	556	626	0	398	0	0	
12	0	0	0	0	543	573	0	423	0	0	
13	0	0	0	0	529	513	0	451	0	0	
14	0	0	0	0	519	452	0	481	0	0	
15	0	0	0	0	513	396	0	510	0	0	
0	0	0	0	0	511	350	0	535	0	0	
1	0	0	0	0	513	319	0	553	0	0	
2	0	0	0	0	519	306	0	563	0	0	
3	0	0	0	0	530	313	0	563	0	0	
4	0	0	0	0	543	339	0	555	0	0	
5	0	0	0	0	557	380	0	539	0	0	
6	0	0	0	0	571	435	0	516	0	0	
7	0	0	0	0	584	496	0	489	0	0	
8	0	0	0	0	595	558	0	459	0	0	
9	0	0	0	0	601	617	0	432	0	0	
10	0	0	0	0	604	664	0	408	0	0	
11	0	0	0	0	602	696	0	391	0	0	
12	0	0	0	0	595	710	0	383	0	0	
13	0	0	0	0	586	704	0	383	0	0	
14	0	0	0	0	575	679	0	392	0	0	
15	0	0	0	0	561	638	0	410	0	0	
0	0	0	0	0	548	584	0	435	0	0	
1	0	0	0	0	536	524	0	463	0	0	
2	0	0	0	0	526	462	0	492	0	0	
3	0	0	0	0	521	404	0	521	0	0	
4	0	0	0	0	519	357	0	544	0	0	
5	0	0	0	0	522	325	0	562	0	0	
6	0	0	0	0	529	311	0	571	0	0	
7	0	0	0	0	539	316	0	570	0	0	
8	0	0	0	0	552	342	0	560	0	0	
9	0	0	0	0	566	382	0	543	0	0	
10	0	0	0	0	579	435	0	519	0	0	
11	0	0	0	0	591	496	0	490	0	0	
12	0	0	0	0	600	558	0	460	0	0	
13	0	0	0	0	606	615	0	431	0	0	
14	0	0	0	0	607	662	0	407	0	0	
15	0	0	0	0	604	693	0	388	0	0	
0	0	0	0	0	596	706	0	378	0	0	
1	0	0	0	0	585	699	0	379	0	0	
2	0	0	0	0	573	675	0	387	0	0	
3	0	0	0	0	559	632	0	404	0	0	
4	0	0	0	0	545	579	0	428	0	0	
5	0	0	0	0	531	518	0	456	0	0	
6	0	0	0	0	521	455	0	485	0	0	
7	0	0	0	0	514	397	0	512	0	0	
8	0	0	0	0	512	350	0	536	0	0	
9	0	0	0	0	514	317	0	553	0	0	
10	0	0	0	0	520	302	0	563	0	0	
11	0	0	0	0	530	308	0	562	0	0	
12	0	0	0	0	543	333	0	552	0	0	
13	0	0	0	0	557	374	0	536	0	0	
14	0	0	0	0	572	427	0	512	0	0	
15	0	0	0	0	585	487	0	484	0	0	
0	0	0	0	0	595	549	0	454	0	0	
1	0	0	0	0	603	608	0	425	0	0	
2	0	0	0	0	605	654	0	401	0	0	
3	0	0	0	0	603	687	0	383	0	0	
4	0	0	0	0	597	700	0	374	0	0	
5	0	0	0	0	587	694	0	374	0	0	
6	0	0	0	0	575	670	0	382	0	0	
7	0	0	0	0	561	628	0	399	0	0	
8	0	0	0	0	547	575	0	423	0	0	
9	0	0	0	0	534	515	0	452	0	0	
10	0	0	0	0	522	454	0	481	0	0	
11	0	0	0	0	515	397	0	509	0	0	
12	0	0	0	0	512	351	0	534	0	0	
13	0	0	0	0	514	319	0	551	0	0	
14	0	0	0	0	519	306	0	560	0	0	
15	0	0	0	0	529	312	0	560	0	0	
0	0	0	0	0	543	338	0	551	0	0	
1	0	0	0	0	557	380	0	534	0	0	
2	0	0	0	0	572	433	0	511	0	0	
3	0	0	0	0	586	494	0	483	0	0	
4	0	0	0	0	596	556	0	454	0	0	
5	0	0	0	0	604	614	0	426	0	0	
6	0	0	0	0	607	662	0	403	0	0	
7	0	0	0	0	606	694	0	385	0	0	
8	0	0	0	0	600	707	0	376	0	0	
9	0	0	0	0	591	702	0	376	0	0	
10	0	0	0	0	579	677	0	386	0	0	
11	0	0	0	0	565	635	0	403	0	0	
12	0	0	0	0	551	582	0	428	0	0	
13	0	0	0	0	537	521	0	455	0	0	
14	0	0	0	0	526	459	0	486	0	0	
15	0	0	0	0	519	401	0	513	0	0	
0	0	0	0	0	516	355	0	537	0	0	
1	0	0	0	0	517	322	0	555	0	0	
2	0	0	0	0	524	308	0	564	0	0	
3	0	0	0	0	532	313	0	563	0	0	
4	0	0	0	0	545	338	0	553	0	0	
5	0	0	0	0	559	379	0	536	0	0	
6	0	0	0	0	572	431	0	512	0	0	
7	0	0	0	0	585	491	0	483	0	0	
8	0	0	0	0	595	552	0	453	0	0	
9	0	0	0	0	601	610	0	424	0	0	
10	0	0	0	0	604	657	0	399	0	0	
11	0	0	0	0	600	688	0	381	0	0	
12	0	0	0	0	594	702	0	371	0	0	
13	0	0	0	0	584	696	0	370	0	0	
14	0	0	0	0	572	671	0	379	0	0	
15	0	0	0	0	557	629	0	396	0	0	
0	0	0	0	0	543	575	0	420	0	0	
1	0	0	0	0	529	515	0	448	0	0	
2	0	0	0	0	518	452	0	478	0	0	
3	0	0	0	0	511	395	0	507	0	0	
4	0	0	0	0	508	348	0	531	0	0	
5	0	0	0	0	510	316	0	549	0	0	
6	0	0	0	0	515	301	0	559	0	0	
7	0	0	0	0	525	306	0	559	0	0	
8	0	0	0	0	537	331	0	550	0	0	
9	0	0	0	0	552	372	0	532	0	0	
10	0	0	0	0	566	425	0	508	0	0	
11	0	0	0	0	579	485	0	480	0	0	
12	0	0	0	0	590	547	0	450	0	0	
13	0	0	0	0	597	605	0	421	0	0	
14	0	0	0	0	600	652	0	396	0	0	
15	0	0	0	0	598	684	0	377	0	0	
0	0	0	0	0	591	697	0	367	0	0	
1	0	0	0	0	582	692	0	366	0	0	
2	0	0	0	0	569	668	0	375	0	0	
3	0	0	0	0	555	626	0	391	0	0	
4	0	0	0	0	540	572	0	415	0	0	
5	0	0	0	0	526	511	0	443	0	0	
6	0	0	0	0	515	448	0	472	0	0	
7	0	0	0	0	507	390	0	500	0	0	
8	0	0	0	0	503	342	0	524	0	0	
9	0	0	0	0	504	310	0	542	0	0	
10	0	0	0	0	510	295	0	551	0	0	
11	0	0	0	0	519	300	0	551	0	0	
12	0	0	0	0	531	324	0	542	0	0	
13	0	0	0	0	545	364	0	524	0	0	
14	0	0	0	0	560	418	0	501	0	0	
15	0	0	0	0	574	478	0	473	0	0	
0	0	0	0	0	585	540	0	443	0	0	
1	0	0	0	0	593	599	0	414	0	0	
2	0	0	0	0	596	647	0	390	0	0	
3	0	0	0	0	595	679	0	371	0	0	
4	0	0	0	0	590	694	0	362	0	0	
5	0	0	0	0	580	688	0	362	0	0	
6	0	0	0	0	568	664	0	371	0	0	
7	0	0	0	0	554	623	0	388	0	0	
8	0	0	0	0	540	569	0	413	0	0	
9	0	0	0	0	526	508	0	441	0	0	
10	0	0	0	0	514	446	0	471	0	0	
11	0	0	0	0	506	388	0	500	0	0	
12	0	0	0	0	503	340	0	524	0	0	
13	0	0	0	0	504	307	0	542	0	0	
14	0	0	0	0	509	291	0	551	0	0	
15	0	0	0	0	518	296	0	551	0	0	
0	0	0	0	0	529	320	0	542	0	0	
1	0	0	0	0	543	360	0	524	0	0	
2	0	0	0	0	557	413	0	500	0	0	
3	0	0	0	0	569	473	0	472	0	0	
4	0	0	0	0	579	534	0	442	0	0	
5	0	0	0	0	587	593	0	413	0	0	
6	0	0	0	0	590	641	0	388	0	0	
7	0	0	0	0	588	674	0	371	0	0	
8	0	0	0	0	582	688	0	361	0	0	
9	0	0	0	0	572	683	0	360	0	0	
10	0	0	0	0	561	659	0	369	0	0	
11	0	0	0	0	547	618	0	387	0	0	
12	0	0	0	0	533	564	0	411	0	0	
13	0	0	0	0	519	504	0	439	0	0	
14	0	0	0	0	509	442	0	469	0	0	
15	0	0	0	0	502	384	0	498	0	0	
0	0	0	0	0	499	337	0	523	0	0	
1	0	0	0	0	502	304	0	540	0	0	
2	0	0	0	0	508	290	0	551	0	0	
3	0	0	0	0	517	295	0	551	0	0	
4	0	0	0	0	530	319	0	542	0	0	
5	0	0	0	0	544	360	0	525	0	0	
6	0	0	0	0	559	414	0	502	0	0	
7	0	0	0	0	572	475	0	474	0	0	
8	0	0	0	0	583	538	0	444	0	0	
9	0	0	0	0	590	596	0	415	0	0	
10	0	0	0	0	593	645	0	391	0	0	
11	0	0	0	0	591	678	0	373	0	0	
12	0	0	0	0	585	692	0	364	0	0	
13	0	0	0	0	575	688	0	364	0	0	
14	0	0	0	0	564	664	0	373	0	0	
15	0	0	0	0	550	623	0	391	0	0	
0	0	0	0	0	536	570	0	415	0	0	
1	0	0	0	0	522	509	0	443	0	0	
2	0	0	0	0	511	447	0	473	0	0	
3	0	0	0	0	504	389	0	502	0	0	
4	0	0	0	0	500	341	0	526	0	0	
5	0	0	0	0	502	308	0	544	0	0	
6	0	0	0	0	508	293	0	554	0	0	
7	0	0	0	0	516	297	0	553	0	0	
8	0	0	0	0	528	321	0	544	0	0	
9	0	0	0	0	542	362	0	527	0	0	
10	0	0	0	0	556	415	0	502	0	0	
11	0	0	0	0	569	475	0	474	0	0	
12	0	0	0	0	579	537	0	443	0	0	
13	0	0	0	0	586	595	0	413	0	0	
14	0	0	0	0	588	643	0	388	0	0	
15	0	0	0	0	587	675	0	369	0	0	
0	0	0	0	0	580	690	0	359	0	0	
1	0	0	0	0	571	685	0	357	0	0	
2	0	0	0	0	559	660	0	366	0	0	
3	0	0	0	0	546	619	0	383	0	0	
4	0	0	0	0	532	566	0	407	0	0	
5	0	0	0	0	519	505	0	435	0	0	
6	0	0	0	0	509	443	0	466	0	0	
7	0	0	0	0	503	386	0	495	0	0	
8	0	0	0	0	500	339	0	520	0	0	
9	0	0	0	0	503	307	0	540	0	0	
10	0	0	0	0	509	292	0	550	0	0	
11	0	0	0	0	519	297	0	551	0	0	
12	0	0	0	0	532	322	0	543	0	0	
13	0	0	0	0	546	363	0	527	0	0	
14	0	0	0	0	561	416	0	503	0	0	
15	0	0	0	0	574	477	0	475	0	0	
0	0	0	0	0	584	540	0	445	0	0	
1	0	0	0	0	591	599	0	416	0	0	
2	0	0	0	0	594	647	0	391	0	0	
3	0	0	0	0	592	681	0	373	0	0	
4	0	0	0	0	586	696	0	363	0	0	
5	0	0	0	0	575	691	0	362	0	0	
6	0	0	0	0	564	667	0	371	0	0	
7	0	0	0	0	550	625	0	389	0	0	
8	0	0	0	0	536	572	0	413	0	0	
9	0	0	0	0	523	511	0	442	0	0	
10	0	0	0	0	511	449	0	472	0	0	
11	0	0	0	0	504	391	0	501	0	0	
12	0	0	0	0	502	342	0	526	0	0	
13	0	0	0	0	503	309	0	544	0	0	
14	0	0	0	0	508	294	0	554	0	0	
15	0	0	0	0	518	298	0	555	0	0	
0	0	0	0	0	531	322	0	546	0	0	
1	0	0	0	0	545	362	0	529	0	0	
2	0	0	0	0	559	415	0	506	0	0	
3	0	0	0	0	572	476	0	478	0	0	
4	0	0	0	0	583	538	0	448	0	0	
5	0	0	0	0	591	597	0	420	0	0	
6	0	0	0	0	593	646	0	395	0	0	
7	0	0	0	0	592	679	0	377	0	0	
8	0	0	0	0	587	694	0	368	0	0	
9	0	0	0	0	577	690	0	367	0	0	
10	0	0	0	0	566	667	0	376	0	0	
11	0	0	0	0	552	627	0	393	0	0	
12	0	0	0	0	539	574	0	416	0	0	
13	0	0	0	0	525	513	0	444	0	0	
14	0	0	0	0	515	451	0	475	0	0	
15	0	0	0	0	508	394	0	503	0	0	
0	0	0	0	0	505	347	0	528	0	0	
1	0	0	0	0	507	314	0	547	0	0	
2	0	0	0	0	513	299	0	557	0	0	
3	0	0	0	0	523	303	0	558	0	0	
4	0	0	0	0	536	327	0	549	0	0	
5	0	0	0	0	550	367	0	532	0	0	
6	0	0	0	0	565	419	0	509	0	0	
7	0	0	0	0	578	479	0	481	0	0	
8	0	0	0	0	588	541	0	451	0	0	
9	0	0	0	0	596	599	0	422	0	0	
10	0	0	0	0	599	647	0	397	0	0	
11	0	0	0	0	596	681	0	379	0	0	
12	0	0	0	0	591	696	0	368	0	0	
13	0	0	0	0	580	692	0	367	0	0	
14	0	0	0	0	568	670	0	376	0	0	
15	0	0	0	0	554	629	0	392	0	0	
0	0	0	0	0	540	577	0	416	0	0	
1	0	0	0	0	526	517	0	443	0	0	
2	0	0	0	0	515	455	0	474	0	0	
3	0	0	0	0	509	398	0	503	0	0	
4	0	0	0	0	506	350	0	527	0	0	
5	0	0	0	0	508	317	0	546	0	0	
6	0	0	0	0	514	302	0	557	0	0	
7	0	0	0	0	524	306	0	558	0	0	
8	0	0	0	0	536	329	0	550	0	0	
9	0	0	0	0	551	370	0	533	0	0	
10	0	0	0	0	564	422	0	511	0	0	
11	0	0	0	0	579	483	0	483	0	0	
12	0	0	0	0	589	544	0	454	0	0	
13	0	0	0	0	596	603	0	425	0	0	
14	0	0	0	0	600	651	0	400	0	0	
15	0	0	0	0	598	685	0	382	0	0	
0	0	0	0	0	592	699	0	372	0	0	
1	0	0	0	0	583	694	0	371	0	0	
2	0	0	0	0	572	671	0	380	0	0	
3	0	0	0	0	558	630	0	396	0	0	
4	0	0	0	0	543	577	0	420	0	0	
5	0	0	0	0	530	516	0	448	0	0	
6	0	0	0	0	518	454	0	477	0	0	
7	0	0	0	0	510	396	0	506	0	0	
8	0	0	0	0	507	348	0	531	0	0	
9	0	0	0	0	507	315	0	548	0	0	
10	0	0	0	0	512	300	0	558	0	0	
11	0	0	0	0	520	304	0	558	0	0	
12	0	0	0	0	532	328	0	549	0	0	
13	0	0	0	0	546	368	0	532	0	0	
14	0	0	0	0	560	420	0	508	0	0	
15	0	0	0	0	573	480	0	480	0	0	
0	0	0	0	0	583	543	0	449	0	0	
1	0	0	0	0	590	601	0	420	0	0	
2	0	0	0	0	592	649	0	395	0	0	
3	0	0	0	0	591	681	0	375	0	0	
4	0	0	0	0	585	696	0	364	0	0	
5	0	0	0	0	575	691	0	362	0	0	
6	0	0	0	0	564	667	0	370	0	0	
7	0	0	0	0	550	625	0	386	0	0	
8	0	0	0	0	536	572	0	409	0	0	
9	0	0	0	0	523	510	0	436	0	0	
10	0	0	0	0	511	448	0	465	0	0	
11	0	0	0	0	504	389	0	493	0	0	
12	0	0	0	0	501	340	0	517	0	0	
13	0	0	0	0	502	307	0	535	0	0	
14	0	0	0	0	507	291	0	544	0	0	
15	0	0	0	0	515	295	0	544	0	0	
0	0	0	0	0	527	319	0	536	0	0	
1	0	0	0	0	540	359	0	519	0	0	
2	0	0	0	0	554	412	0	496	0	0	
3	0	0	0	0	567	472	0	468	0	0	
4	0	0	0	0	577	535	0	439	0	0	
5	0	0	0	0	585	593	0	410	0	0	
6	0	0	0	0	588	642	0	386	0	0	
7	0	0	0	0	587	676	0	368	0	0	
8	0	0	0	0	582	691	0	359	0	0	
9	0	0	0	0	572	687	0	359	0	0	
10	0	0	0	0	562	664	0	368	0	0	
11	0	0	0	0	549	624	0	386	0	0	
12	0	0	0	0	536	572	0	411	0	0	
13	0	0	0	0	524	511	0	440	0	0	
14	0	0	0	0	513	451	0	471	0	0	
15	0	0	0	0	507	393	0	500	0	0	
0	0	0	0	0	504	345	0	526	0	0	
1	0	0	0	0	506	312	0	545	0	0	
2	0	0	0	0	511	297	0	555	0	0	
3	0	0	0	0	519	302	0	555	0	0	
4	0	0	0	0	531	324	0	547	0	0	
5	0	0	0	0	544	364	0	530	0	0	
6	0	0	0	0	558	416	0	506	0	0	
7	0	0	0	0	571	476	0	479	0	0	
8	0	0	0	0	582	537	0	448	0	0	
9	0	0	0	0	589	596	0	420	0	0	
10	0	0	0	0	592	644	0	395	0	0	
11	0	0	0	0	591	678	0	377	0	0	
12	0	0	0	0	587	694	0	367	0	0	
13	0	0	0	0	579	689	0	366	0	0	
14	0	0	0	0	569	666	0	375	0	0	
15	0	0	0	0	556	626	0	391	0	0	
0	0	0	0	0	543	574	0	415	0	0	
1	0	0	0	0	531	515	0	444	0	0	
2	0	0	0	0	521	453	0	473	0	0	
3	0	0	0	0	515	396	0	502	0	0	
4	0	0	0	0	512	348	0	527	0	0	
5	0	0	0	0	513	314	0	545	0	0	
6	0	0	0	0	518	299	0	556	0	0	
7	0	0	0	0	526	302	0	556	0	0	
8	0	0	0	0	537	326	0	548	0	0	
9	0	0	0	0	550	364	0	531	0	0	
10	0	0	0	0	563	417	0	509	0	0	
11	0	0	0	0	575	476	0	481	0	0	
12	0	0	0	0	584	538	0	451	0	0	
13	0	0	0	0	591	596	0	423	0	0	
14	0	0	0	0	593	644	0	398	0	0	
15	0	0	0	0	591	678	0	379	0	0	
0	0	0	0	0	585	694	0	368	0	0	
1	0	0	0	0	576	689	0	367	0	0	
2	0	0	0	0	565	667	0	374	0	0	
3	0	0	0	0	551	627	0	391	0	0	
4	0	0	0	0	538	575	0	414	0	0	
5	0	0	0	0	526	515	0	441	0	0	
6	0	0	0	0	515	453	0	470	0	0	
7	0	0	0	0	508	396	0	498	0	0	
8	0	0	0	0	506	347	0	523	0	0	
9	0	0	0	0	507	313	0	540	0	0	
10	0	0	0	0	512	297	0	551	0	0	
11	0	0	0	0	521	300	0	551	0	0	
12	0	0	0	0	533	323	0	543	0	0	
13	0	0	0	0	546	362	0	526	0	0	
14	0	0	0	0	559	414	0	503	0	0	
15	0	0	0	0	571	473	0	476	0	0	
0	0	0	0	0	581	534	0	446	0	0	
1	0	0	0	0	588	593	0	417	0	0	
2	0	0	0	0	590	641	0	393	0	0	
3	0	0	0	0	588	675	0	375	0	0	
4	0	0	0	0	583	691	0	365	0	0	
5	0	0	0	0	574	687	0	364	0	0	
6	0	0	0	0	563	665	0	373	0	0	
7	0	0	0	0	551	626	0	390	0	0	
8	0	0	0	0	539	575	0	414	0	0	
9	0	0	0	0	527	515	0	442	0	0	
10	0	0	0	0	518	454	0	472	0	0	
11	0	0	0	0	511	396	0	500	0	0	
12	0	0	0	0	509	347	0	525	0	0	
13	0	0	0	0	510	312	0	542	0	0	
14	0	0	0	0	513	294	0	551	0	0	
15	0	0	0	0	520	295	0	548	0	0	
0	0	0	0	0	528	314	0	536	0	0	
1	0	0	0	0	536	348	0	513	0	0	
2	0	0	0	0	543	394	0	483	0	0	
3	0	0	0	0	547	447	0	448	0	0	
4	0	0	0	0	547	500	0	409	0	0	
5	0	0	0	0	543	549	0	369	0	0	
6	0	0	0	0	533	587	0	333	0	0	
7	0	0	0	0	519	609	0	302	0	0	
8	0	0	0	0	500	612	0	280	0	0	
9	0	0	0	0	478	596	0	265	0	0	
10	0	0	0	0	454	560	0	260	0	0	
11	0	0	0	0	428	507	0	263	0	0	
12	0	0	0	0	401	442	0	273	0	0	
13	0	0	0	0	375	368	0	288	0	0	
14	0	0	0	0	351	293	0	305	0	0	
15	0	0	0	0	331	222	0	322	0	0	
0	0	0	0	0	315	160	0	335	0	0	
1	0	0	0	0	303	111	0	342	0	0	
2	0	0	0	0	296	80	0	340	0	0	
3	0	0	0	0	292	68	0	329	0	0	
4	0	0	0	0	293	76	0	311	0	0	
5	0	0	0	0	297	102	0	285	0	0	
6	0	0	0	0	303	143	0	254	0	0	
7	0	0	0	0	311	196	0	220	0	0	
8	0	0	0	0	319	256	0	186	0	0	
9	0	0	0	0	328	317	0	156	0	0	
10	0	0	0	0	336	373	0	132	0	0	
11	0	0	0	0	344	418	0	118	0	0	
12	0	0	0	0	351	449	0	116	0	0	
13	0	0	0	0	358	464	0	127	0	0	
14	0	0	0	0	366	461	0	152	0	0	
15	0	0	0	0	374	444	0	189	0	0	
0	0	0	0	0	384	415	0	237	0	0	
1	0	0	0	0	397	379	0	292	0	0	
2	0	0	0	0	411	341	0	351	0	0	
3	0	0	0	0	430	306	0	410	0	0	
4	0	0	0	0	451	281	0	465	0	0	
5	0	0	0	0	476	268	0	512	0	0	
6	0	0	0	0	503	271	0	548	0	0	
7	0	0	0	0	531	292	0	571	0	0	
8	0	0	0	0	558	329	0	579	0	0	
9	0	0	0	0	583	381	0	575	0	0	
10	0	0	0	0	606	442	0	559	0	0	
11	0	0	0	0	624	508	0	534	0	0	
12	0	0	0	0	636	573	0	503	0	0	
13	0	0	0	0	641	633	0	469	0	0	
14	0	0	0	0	640	681	0	437	0	0	
15	0	0	0	0	633	713	0	410	0	0	
0	0	0	0	0	620	726	0	391	0	0	
1	0	0	0	0	601	718	0	380	0	0	
2	0	0	0	0	582	691	0	380	0	0	
3	0	0	0	0	560	645	0	389	0	0	
4	0	0	0	0	540	588	0	407	0	0	
5	0	0	0	0	522	523	0	432	0	0	
6	0	0	0	0	508	456	0	459	0	0	
7	0	0	0	0	499	395	0	487	0	0	
8	0	0	0	0	496	344	0	514	0	0	
9	0	0	0	0	500	308	0	536	0	0	
10	0	0	0	0	509	292	0	549	0	0	
11	0	0	0	0	522	296	0	554	0	0	
12	0	0	0	0	538	321	0	551	0	0	
13	0	0	0	0	556	363	0	539	0	0	
14	0	0	0	0	575	419	0	519	0	0	
15	0	0	0	0	591	482	0	496	0	0	
0	0	0	0	0	605	547	0	468	0	0	
1	0	0	0	0	614	610	0	441	0	0	
2	0	0	0	0	618	663	0	417	0	0	
3	0	0	0	0	616	700	0	399	0	0	
4	0	0	0	0	611	718	0	389	0	0	
5	0	0	0	0	600	715	0	387	0	0	
6	0	0	0	0	587	694	0	394	0	0	
7	0	0	0	0	572	654	0	409	0	0	
8	0	0	0	0	556	601	0	432	0	0	
9	0	0	0	0	541	540	0	458	0	0	
10	0	0	0	0	529	476	0	488	0	0	
11	0	0	0	0	521	417	0	516	0	0	
12	0	0	0	0	518	367	0	541	0	0	
13	0	0	0	0	520	331	0	560	0	0	
14	0	0	0	0	526	314	0	572	0	0	
15	0	0	0	0	536	316	0	573	0	0	
0	0	0	0	0	550	339	0	566	0	0	
1	0	0	0	0	565	377	0	551	0	0	
2	0	0	0	0	579	430	0	528	0	0	
3	0	0	0	0	594	490	0	502	0	0	
4	0	0	0	0	606	552	0	472	0	0	
5	0	0	0	0	614	612	0	443	0	0	
6	0	0	0	0	617	662	0	418	0	0	
7	0	0	0	0	616	697	0	398	0	0	
8	0	0	0	0	610	713	0	387	0	0	
9	0	0	0	0	600	710	0	385	0	0	
10	0	0	0	0	588	688	0	391	0	0	
11	0	0	0	0	574	649	0	408	0	0	
12	0	0	0	0	559	597	0	430	0	0	
13	0	0	0	0	545	537	0	457	0	0	
14	0	0	0	0	533	475	0	487	0	0	
15	0	0	0	0	525	417	0	515	0	0	
0	0	0	0	0	521	368	0	541	0	0	
1	0	0	0	0	522	334	0	560	0	0	
2	0	0	0	0	527	317	0	572	0	0	
3	0	0	0	0	536	320	0	575	0	0	
4	0	0	0	0	548	343	0	568	0	0	
5	0	0	0	0	562	382	0	552	0	0	
6	0	0	0	0	577	433	0	530	0	0	
7	0	0	0	0	591	493	0	504	0	0	
8	0	0	0	0	601	556	0	474	0	0	
9	0	0	0	0	609	614	0	445	0	0	
10	0	0	0	0	613	664	0	420	0	0	
11	0	0	0	0	612	698	0	401	0	0	
12	0	0	0	0	607	715	0	390	0	0	
13	0	0	0	0	598	711	0	387	0	0	
14	0	0	0	0	586	689	0	394	0	0	
15	0	0	0	0	572	650	0	409	0	0	
0	0	0	0	0	558	599	0	432	0	0	
1	0	0	0	0	545	539	0	459	0	0	
2	0	0	0	0	534	477	0	488	0	0	
3	0	0	0	0	527	420	0	516	0	0	
4	0	0	0	0	524	371	0	541	0	0	
5	0	0	0	0	526	337	0	560	0	0	
6	0	0	0	0	532	321	0	571	0	0	
7	0	0	0	0	540	324	0	572	0	0	
8	0	0	0	0	553	345	0	565	0	0	
9	0	0	0	0	567	384	0	549	0	0	
10	0	0	0	0	581	435	0	526	0	0	
11	0	0	0	0	594	494	0	499	0	0	
12	0	0	0	0	604	555	0	469	0	0	
13	0	0	0	0	611	613	0	440	0	0	
14	0	0	0	0	614	661	0	415	0	0	
15	0	0	0	0	612	696	0	396	0	0	
0	0	0	0	0	606	712	0	385	0	0	
1	0	0	0	0	597	709	0	383	0	0	
2	0	0	0	0	585	687	0	390	0	0	
3	0	0	0	0	571	648	0	406	0	0	
4	0	0	0	0	557	596	0	429	0	0	
5	0	0	0	0	544	536	0	457	0	0	
6	0	0	0	0	532	474	0	486	0	0	
7	0	0	0	0	525	416	0	515	0	0	
8	0	0	0	0	522	367	0	540	0	0	
9	0	0	0	0	523	332	0	558	0	0	
10	0	0	0	0	529	316	0	568	0	0	
11	0	0	0	0	537	318	0	570	0	0	
12	0	0	0	0	550	340	0	562	0	0	
13	0	0	0	0	563	379	0	546	0	0	
14	0	0	0	0	577	430	0	523	0	0	
15	0	0	0	0	590	489	0	496	0	0	
0	0	0	0	0	599	552	0	466	0	0	
1	0	0	0	0	607	611	0	438	0	0	
2	0	0	0	0	609	659	0	412	0	0	
3	0	0	0	0	607	695	0	393	0	0	
4	0	0	0	0	601	711	0	383	0	0	
5	0	0	0	0	591	707	0	381	0	0	
6	0	0	0	0	580	685	0	388	0	0	
7	0	0	0	0	567	645	0	405	0	0	
8	0	0	0	0	553	593	0	427	0	0	
9	0	0	0	0	540	533	0	454	0	0	
10	0	0	0	0	529	470	0	484	0	0	
11	0	0	0	0	523	412	0	512	0	0	
12	0	0	0	0	519	362	0	536	0	0	
13	0	0	0	0	520	327	0	555	0	0	
14	0	0	0	0	525	310	0	564	0	0	
15	0	0	0	0	534	312	0	564	0	0	
0	0	0	0	0	545	333	0	556	0	0	
1	0	0	0	0	558	371	0	540	0	0	
2	0	0	0	0	571	422	0	516	0	0	
3	0	0	0	0	583	481	0	489	0	0	
4	0	0	0	0	593	542	0	459	0	0	
5	0	0	0	0	600	601	0	430	0	0	
6	0	0	0	0	603	650	0	404	0	0	
7	0	0	0	0	601	685	0	386	0	0	
8	0	0	0	0	596	702	0	376	0	0	
9	0	0	0	0	587	699	0	374	0	0	
10	0	0	0	0	576	677	0	383	0	0	
11	0	0	0	0	563	638	0	399	0	0	
12	0	0	0	0	549	587	0	423	0	0	
13	0	0	0	0	537	527	0	452	0	0	
14	0	0	0	0	526	465	0	482	0	0	
15	0	0	0	0	519	407	0	510	0	0	
0	0	0	0	0	517	358	0	536	0	0	
1	0	0	0	0	518	323	0	555	0	0	
2	0	0	0	0	525	307	0	565	0	0	
3	0	0	0	0	534	308	0	566	0	0	
4	0	0	0	0	547	331	0	557	0	0	
5	0	0	0	0	560	369	0	540	0	0	
6	0	0	0	0	573	420	0	516	0	0	
7	0	0	0	0	585	478	0	488	0	0	
8	0	0	0	0	595	540	0	458	0	0	
9	0	0	0	0	602	599	0	428	0	0	
10	0	0	0	0	605	648	0	403	0	0	
11	0	0	0	0	602	683	0	384	0	0	
12	0	0	0	0	597	700	0	373	0	0	
13	0	0	0	0	587	697	0	371	0	0	
14	0	0	0	0	575	675	0	379	0	0	
15	0	0	0	0	561	636	0	395	0	0	
0	0	0	0	0	547	583	0	419	0	0	
1	0	0	0	0	533	523	0	445	0	0	
2	0	0	0	0	522	460	0	476	0	0	
3	0	0	0	0	515	402	0	505	0	0	
4	0	0	0	0	511	352	0	530	0	0	
5	0	0	0	0	513	317	0	549	0	0	
6	0	0	0	0	518	300	0	559	0	0	
7	0	0	0	0	527	301	0	560	0	0	
8	0	0	0	0	539	323	0	552	0	0	
9	0	0	0	0	553	362	0	536	0	0	
10	0	0	0	0	567	414	0	514	0	0	
11	0	0	0	0	580	474	0	487	0	0	
12	0	0	0	0	591	536	0	459	0	0	
13	0	0	0	0	599	597	0	430	0	0	
14	0	0	0	0	602	647	0	406	0	0	
15	0	0	0	0	601	684	0	388	0	0	
0	0	0	0	0	596	701	0	378	0	0	
1	0	0	0	0	588	700	0	377	0	0	
2	0	0	0	0	578	679	0	386	0	0	
3	0	0	0	0	566	641	0	403	0	0	
4	0	0	0	0	552	589	0	427	0	0	
5	0	0	0	0	540	530	0	455	0	0	
6	0	0	0	0	529	468	0	484	0	0	
7	0	0	0	0	523	409	0	513	0	0	
8	0	0	0	0	519	359	0	538	0	0	
9	0	0	0	0	520	324	0	556	0	0	
10	0	0	0	0	525	307	0	566	0	0	
11	0	0	0	0	533	308	0	567	0	0	
12	0	0	0	0	545	330	0	558	0	0	
13	0	0	0	0	558	368	0	542	0	0	
14	0	0	0	0	571	420	0	518	0	0	
15	0	0	0	0	584	480	0	490	0	0	
0	0	0	0	0	594	542	0	461	0	0	
1	0	0	0	0	602	602	0	432	0	0	
2	0	0	0	0	606	652	0	408	0	0	
3	0	0	0	0	605	688	0	389	0	0	
4	0	0	0	0	600	706	0	379	0	0	
5	0	0	0	0	592	705	0	378	0	0	
6	0	0	0	0	582	684	0	387	0	0	
7	0	0	0	0	569	646	0	404	0	0	
8	0	0	0	0	557	595	0	428	0	0	
9	0	0	0	0	544	536	0	456	0	0	
10	0	0	0	0	533	475	0	486	0	0	
11	0	0	0	0	527	416	0	515	0	0	
12	0	0	0	0	523	367	0	541	0	0	
13	0	0	0	0	524	332	0	560	0	0	
14	0	0	0	0	529	314	0	570	0	0	
15	0	0	0	0	537	317	0	571	0	0	
0	0	0	0	0	549	337	0	563	0	0	
1	0	0	0	0	563	376	0	547	0	0	
2	0	0	0	0	576	427	0	524	0	0	
3	0	0	0	0	589	486	0	496	0	0	
4	0	0	0	0	599	548	0	465	0	0	
5	0	0	0	0	607	607	0	436	0	0	
6	0	0	0	0	611	657	0	410	0	0	
7	0	0	0	0	609	692	0	390	0	0	
8	0	0	0	0	604	709	0	378	0	0	
9	0	0	0	0	595	707	0	375	0	0	
10	0	0	0	0	583	686	0	382	0	0	
11	0	0	0	0	570	647	0	398	0	0	
12	0	0	0	0	556	595	0	420	0	0	
13	0	0	0	0	542	534	0	448	0	0	
14	0	0	0	0	530	472	0	478	0	0	
15	0	0	0	0	522	412	0	507	0	0	
0	0	0	0	0	519	362	0	533	0	0	
1	0	0	0	0	519	326	0	551	0	0	
2	0	0	0	0	523	307	0	561	0	0	
3	0	0	0	0	531	308	0	565	0	0	
4	0	0	0	0	543	329	0	556	0	0	
5	0	0	0	0	556	366	0	541	0	0	
6	0	0	0	0	569	417	0	518	0	0	
7	0	0	0	0	582	476	0	490	0	0	
8	0	0	0	0	591	538	0	460	0	0	
9	0	0	0	0	600	597	0	431	0	0	
10	0	0	0	0	603	647	0	406	0	0	
11	0	0	0	0	601	682	0	386	0	0	
12	0	0	0	0	596	699	0	374	0	0	
13	0	0	0	0	587	698	0	371	0	0	
14	0	0	0	0	576	677	0	379	0	0	
15	0	0	0	0	563	639	0	394	0	0	
0	0	0	0	0	549	588	0	416	0	0	
1	0	0	0	0	536	527	0	443	0	0	
2	0	0	0	0	524	466	0	472	0	0	
3	0	0	0	0	516	407	0	501	0	0	
4	0	0	0	0	512	357	0	527	0	0	
5	0	0	0	0	513	321	0	546	0	0	
6	0	0	0	0	518	303	0	558	0	0	
7	0	0	0	0	526	305	0	560	0	0	
8	0	0	0	0	538	326	0	553	0	0	
9	0	0	0	0	551	364	0	538	0	0	
10	0	0	0	0	566	415	0	515	0	0	
11	0	0	0	0	579	473	0	487	0	0	
12	0	0	0	0	590	536	0	458	0	0	
13	0	0	0	0	599	596	0	429	0	0	
14	0	0	0	0	602	646	0	403	0	0	
15	0	0	0	0	603	682	0	384	0	0	
0	0	0	0	0	596	700	0	372	0	0	
1	0	0	0	0	589	699	0	370	0	0	
2	0	0	0	0	579	679	0	377	0	0	
3	0	0	0	0	566	640	0	393	0	0	
4	0	0	0	0	551	590	0	417	0	0	
5	0	0	0	0	539	530	0	444	0	0	
6	0	0	0	0	527	469	0	474	0	0	
7	0	0	0	0	519	410	0	503	0	0	
8	0	0	0	0	515	360	0	528	0	0	
9	0	0	0	0	516	324	0	547	0	0	
10	0	0	0	0	520	305	0	559	0	0	
11	0	0	0	0	528	307	0	560	0	0	
12	0	0	0	0	540	327	0	553	0	0	
13	0	0	0	0	553	364	0	537	0	0	
14	0	0	0	0	567	415	0	515	0	0	
15	0	0	0	0	580	473	0	487	0	0	
0	0	0	0	0	590	536	0	457	0	0	
1	0	0	0	0	598	595	0	428	0	0	
2	0	0	0	0	601	645	0	402	0	0	
3	0	0	0	0	600	681	0	383	0	0	
4	0	0	0	0	596	699	0	371	0	0	
5	0	0	0	0	587	699	0	369	0	0	
6	0	0	0	0	576	678	0	376	0	0	
7	0	0	0	0	563	640	0	392	0	0	
8	0	0	0	0	550	590	0	415	0	0	
9	0	0	0	0	537	530	0	443	0	0	
10	0	0	0	0	525	469	0	473	0	0	
11	0	0	0	0	518	410	0	503	0	0	
12	0	0	0	0	515	359	0	528	0	0	
13	0	0	0	0	516	323	0	548	0	0	
14	0	0	0	0	521	306	0	560	0	0	
15	0	0	0	0	530	307	0	563	0	0	
0	0	0	0	0	542	327	0	556	0	0	
1	0	0	0	0	556	365	0	541	0	0	
2	0	0	0	0	570	416	0	519	0	0	
3	0	0	0	0	583	476	0	492	0	0	
4	0	0	0	0	594	538	0	463	0	0	
5	0	0	0	0	601	599	0	433	0	0	
6	0	0	0	0	605	649	0	408	0	0	
7	0	0	0	0	604	686	0	388	0	0	
8	0	0	0	0	598	703	0	376	0	0	
9	0	0	0	0	589	702	0	373	0	0	
10	0	0	0	0	577	682	0	379	0	0	
11	0	0	0	0	563	643	0	393	0	0	
12	0	0	0	0	549	592	0	415	0	0	
13	0	0	0	0	534	531	0	442	0	0	
14	0	0	0	0	523	468	0	471	0	0	
15	0	0	0	0	514	408	0	499	0	0	
0	0	0	0	0	510	357	0	524	0	0	
1	0	0	0	0	510	319	0	543	0	0	
2	0	0	0	0	514	300	0	554	0	0	
3	0	0	0	0	523	300	0	556	0	0	
4	0	0	0	0	534	319	0	549	0	0	
5	0	0	0	0	547	356	0	534	0	0	
6	0	0	0	0	561	407	0	512	0	0	
7	0	0	0	0	574	466	0	485	0	0	
8	0	0	0	0	585	528	0	455	0	0	
9	0	0	0	0	593	589	0	426	0	0	
10	0	0	0	0	597	640	0	400	0	0	
11	0	0	0	0	596	677	0	381	0	0	
12	0	0	0	0	592	696	0	369	0	0	
13	0	0	0	0	584	695	0	366	0	0	
14	0	0	0	0	573	675	0	372	0	0	
15	0	0	0	0	560	638	0	387	0	0	
0	0	0	0	0	547	587	0	410	0	0	
1	0	0	0	0	534	527	0	437	0	0	
2	0	0	0	0	523	464	0	467	0	0	
3	0	0	0	0	515	405	0	496	0	0	
4	0	0	0	0	511	353	0	521	0	0	
5	0	0	0	0	511	317	0	540	0	0	
6	0	0	0	0	516	297	0	551	0	0	
7	0	0	0	0	524	297	0	553	0	0	
8	0	0	0	0	534	317	0	546	0	0	
9	0	0	0	0	547	354	0	530	0	0	
10	0	0	0	0	560	404	0	508	0	0	
11	0	0	0	0	573	464	0	480	0	0	
12	0	0	0	0	583	526	0	450	0	0	
13	0	0	0	0	590	587	0	420	0	0	
14	0	0	0	0	593	637	0	395	0	0	
15	0	0	0	0	591	674	0	375	0	0	
0	0	0	0	0	586	692	0	364	0	0	
1	0	0	0	0	577	691	0	361	0	0	
2	0	0	0	0	566	671	0	368	0	0	
3	0	0	0	0	553	633	0	384	0	0	
4	0	0	0	0	539	583	0	407	0	0	
5	0	0	0	0	525	522	0	435	0	0	
6	0	0	0	0	515	459	0	465	0	0	
7	0	0	0	0	508	400	0	495	0	0	
8	0	0	0	0	505	349	0	520	0	0	
9	0	0	0	0	506	312	0	540	0	0	
10	0	0	0	0	511	294	0	552	0	0	
11	0	0	0	0	520	294	0	555	0	0	
12	0	0	0	0	533	314	0	547	0	0	
13	0	0	0	0	547	352	0	532	0	0	
14	0	0	0	0	561	403	0	509	0	0	
15	0	0	0	0	575	463	0	481	0	0	
0	0	0	0	0	586	526	0	451	0	0	
1	0	0	0	0	594	586	0	421	0	0	
2	0	0	0	0	598	638	0	395	0	0	
3	0	0	0	0	597	675	0	375	0	0	
4	0	0	0	0	591	694	0	363	0	0	
5	0	0	0	0	582	693	0	360	0	0	
6	0	0	0	0	570	673	0	367	0	0	
7	0	0	0	0	556	635	0	383	0	0	
8	0	0	0	0	542	584	0	407	0	0	
9	0	0	0	0	528	525	0	435	0	0	
10	0	0	0	0	517	462	0	465	0	0	
11	0	0	0	0	509	402	0	495	0	0	
12	0	0	0	0	505	351	0	521	0	0	
13	0	0	0	0	505	314	0	541	0	0	
14	0	0	0	0	510	294	0	553	0	0	
15	0	0	0	0	518	295	0	555	0	0	
0	0	0	0	0	531	313	0	547	0	0	
1	0	0	0	0	543	350	0	531	0	0	
2	0	0	0	0	558	401	0	508	0	0	
3	0	0	0	0	571	460	0	480	0	0	
4	0	0	0	0	582	523	0	450	0	0	
5	0	0	0	0	590	583	0	419	0	0	
6	0	0	0	0	594	635	0	393	0	0	
7	0	0	0	0	593	672	0	372	0	0	
8	0	0	0	0	588	691	0	360	0	0	
9	0	0	0	0	579	691	0	358	0	0	
10	0	0	0	0	568	672	0	365	0	0	
11	0	0	0	0	555	634	0	381	0	0	
12	0	0	0	0	541	584	0	404	0	0	
13	0	0	0	0	527	524	0	433	0	0	
14	0	0	0	0	515	461	0	464	0	0	
15	0	0	0	0	508	402	0	494	0	0	
0	0	0	0	0	504	351	0	521	0	0	
1	0	0	0	0	504	314	0	542	0	0	
2	0	0	0	0	510	294	0	554	0	0	
3	0	0	0	0	518	294	0	556	0	0	
4	0	0	0	0	530	314	0	549	0	0	
5	0	0	0	0	544	351	0	534	0	0	
6	0	0	0	0	559	401	0	511	0	0	
7	0	0	0	0	572	461	0	482	0	0	
8	0	0	0	0	583	524	0	453	0	0	
9	0	0	0	0	592	584	0	423	0	0	
10	0	0	0	0	595	636	0	396	0	0	
11	0	0	0	0	595	673	0	375	0	0	
12	0	0	0	0	591	693	0	363	0	0	
13	0	0	0	0	582	691	0	360	0	0	
14	0	0	0	0	571	672	0	367	0	0	
15	0	0	0	0	558	635	0	382	0	0	
0	0	0	0	0	544	584	0	405	0	0	
1	0	0	0	0	530	524	0	433	0	0	
2	0	0	0	0	519	461	0	464	0	0	
3	0	0	0	0	511	402	0	493	0	0	
4	0	0	0	0	507	351	0	520	0	0	
5	0	0	0	0	507	313	0	540	0	0	
6	0	0	0	0	511	294	0	553	0	0	
7	0	0	0	0	519	294	0	556	0	0	
8	0	0	0	0	531	313	0	550	0	0	
9	0	0	0	0	544	350	0	535	0	0	
10	0	0	0	0	558	401	0	513	0	0	
11	0	0	0	0	572	461	0	486	0	0	
12	0	0	0	0	583	524	0	455	0	0	
13	0	0	0	0	591	584	0	425	0	0	
14	0	0	0	0	595	636	0	399	0	0	
15	0	0	0	0	594	674	0	378	0	0	
0	0	0	0	0	590	694	0	366	0	0	
1	0	0	0	0	581	694	0	362	0	0	
2	0	0	0	0	570	675	0	368	0	0	
3	0	0	0	0	557	638	0	384	0	0	
4	0	0	0	0	543	586	0	406	0	0	
5	0	0	0	0	530	526	0	433	0	0	
6	0	0	0	0	518	462	0	463	0	0	
7	0	0	0	0	510	402	0	493	0	0	
8	0	0	0	0	506	350	0	519	0	0	
9	0	0	0	0	507	312	0	539	0	0	
10	0	0	0	0	511	292	0	551	0	0	
11	0	0	0	0	519	292	0	553	0	0	
12	0	0	0	0	531	311	0	547	0	0	
13	0	0	0	0	544	348	0	532	0	0	
14	0	0	0	0	559	399	0	509	0	0	
15	0	0	0	0	571	459	0	481	0	0	
0	0	0	0	0	583	523	0	452	0	0	
1	0	0	0	0	591	584	0	422	0	0	
2	0	0	0	0	596	638	0	395	0	0	
3	0	0	0	0	595	675	0	375	0	0	
4	0	0	0	0	591	696	0	363	0	0	
5	0	0	0	0	583	696	0	360	0	0	
6	0	0	0	0	572	677	0	366	0	0	
7	0	0	0	0	560	639	0	381	0	0	
8	0	0	0	0	546	588	0	403	0	0	
9	0	0	0	0	532	527	0	431	0	0	
10	0	0	0	0	521	463	0	461	0	0	
11	0	0	0	0	512	402	0	489	0	0	
12	0	0	0	0	508	349	0	516	0	0	
13	0	0	0	0	508	311	0	536	0	0	
14	0	0	0	0	512	290	0	548	0	0	
15	0	0	0	0	520	289	0	550	0	0	
0	0	0	0	0	531	308	0	544	0	0	
1	0	0	0	0	545	345	0	529	0	0	
2	0	0	0	0	559	397	0	508	0	0	
3	0	0	0	0	573	457	0	482	0	0	
4	0	0	0	0	584	521	0	453	0	0	
5	0	0	0	0	593	584	0	423	0	0	
6	0	0	0	0	598	637	0	398	0	0	
7	0	0	0	0	598	677	0	378	0	0	
8	0	0	0	0	594	698	0	367	0	0	
9	0	0	0	0	586	699	0	364	0	0	
10	0	0	0	0	575	681	0	370	0	0	
11	0	0	0	0	562	643	0	385	0	0	
12	0	0	0	0	548	592	0	407	0	0	
13	0	0	0	0	534	532	0	435	0	0	
14	0	0	0	0	522	468	0	463	0	0	
15	0	0	0	0	514	407	0	493	0	0	
0	0	0	0	0	508	353	0	518	0	0	
1	0	0	0	0	508	315	0	539	0	0	
2	0	0	0	0	512	294	0	550	0	0	
3	0	0	0	0	519	291	0	553	0	0	
4	0	0	0	0	529	310	0	546	0	0	
5	0	0	0	0	542	345	0	531	0	0	
6	0	0	0	0	555	395	0	509	0	0	
7	0	0	0	0	567	454	0	483	0	0	
8	0	0	0	0	577	517	0	452	0	0	
9	0	0	0	0	585	579	0	423	0	0	
10	0	0	0	0	588	631	0	398	0	0	
11	0	0	0	0	588	669	0	377	0	0	
12	0	0	0	0	583	689	0	365	0	0	
13	0	0	0	0	574	689	0	363	0	0	
14	0	0	0	0	563	671	0	368	0	0	
15	0	0	0	0	550	633	0	384	0	0	
0	0	0	0	0	536	582	0	406	0	0	
1	0	0	0	0	522	521	0	433	0	0	
2	0	0	0	0	510	457	0	462	0	0	
3	0	0	0	0	501	396	0	490	0	0	
4	0	0	0	0	496	344	0	516	0	0	
5	0	0	0	0	496	305	0	535	0	0	
6	0	0	0	0	500	284	0	546	0	0	
7	0	0	0	0	508	282	0	547	0	0	
8	0	0	0	0	519	300	0	541	0	0	
9	0	0	0	0	532	336	0	525	0	0	
10	0	0	0	0	545	387	0	502	0	0	
11	0	0	0	0	559	447	0	474	0	0	
12	0	0	0	0	569	509	0	444	0	0	
13	0	0	0	0	578	571	0	413	0	0	
14	0	0	0	0	582	624	0	386	0	0	
15	0	0	0	0	581	662	0	366	0	0	
0	0	0	0	0	576	683	0	353	0	0	
1	0	0	0	0	568	684	0	350	0	0	
2	0	0	0	0	557	664	0	356	0	0	
3	0	0	0	0	543	627	0	371	0	0	
4	0	0	0	0	529	576	0	394	0	0	
5	0	0	0	0	516	516	0	422	0	0	
6	0	0	0	0	504	451	0	452	0	0	
7	0	0	0	0	496	391	0	481	0	0	
8	0	0	0	0	492	338	0	508	0	0	
9	0	0	0	0	492	298	0	528	0	0	
10	0	0	0	0	496	277	0	541	0	0	
11	0	0	0	0	504	276	0	543	0	0	
12	0	0	0	0	516	293	0	537	0	0	
13	0	0	0	0	529	329	0	522	0	0	
14	0	0	0	0	543	380	0	500	0	0	
15	0	0	0	0	556	440	0	473	0	0	
0	0	0	0	0	566	504	0	442	0	0	
1	0	0	0	0	575	566	0	412	0	0	
2	0	0	0	0	578	619	0	386	0	0	
3	0	0	0	0	578	659	0	365	0	0	
4	0	0	0	0	574	682	0	353	0	0	
5	0	0	0	0	566	684	0	350	0	0	
6	0	0	0	0	555	667	0	356	0	0	
7	0	0	0	0	543	632	0	371	0	0	
8	0	0	0	0	529	582	0	394	0	0	
9	0	0	0	0	517	523	0	422	0	0	
10	0	0	0	0	506	459	0	454	0	0	
11	0	0	0	0	499	399	0	484	0	0	
12	0	0	0	0	496	346	0	512	0	0	
13	0	0	0	0	497	307	0	533	0	0	
14	0	0	0	0	502	286	0	546	0	0	
15	0	0	0	0	511	283	0	550	0	0	
0	0	0	0	0	523	302	0	544	0	0	
1	0	0	0	0	537	337	0	529	0	0	
2	0	0	0	0	551	388	0	507	0	0	
3	0	0	0	0	566	448	0	480	0	0	
4	0	0	0	0	576	511	0	449	0	0	
5	0	0	0	0	585	574	0	419	0	0	
6	0	0	0	0	590	627	0	392	0	0	
7	0	0	0	0	590	667	0	372	0	0	
8	0	0	0	0	585	688	0	359	0	0	
9	0	0	0	0	576	690	0	355	0	0	
10	0	0	0	0	565	672	0	361	0	0	
11	0	0	0	0	552	636	0	377	0	0	
12	0	0	0	0	537	585	0	400	0	0	
13	0	0	0	0	524	525	0	429	0	0	
14	0	0	0	0	512	462	0	459	0	0	
15	0	0	0	0	504	401	0	489	0	0	
0	0	0	0	0	499	348	0	516	0	0	
1	0	0	0	0	499	310	0	538	0	0	
2	0	0	0	0	503	289	0	551	0	0	
3	0	0	0	0	510	287	0	554	0	0	
4	0	0	0	0	522	306	0	547	0	0	
5	0	0	0	0	535	342	0	532	0	0	
6	0	0	0	0	549	392	0	510	0	0	
7	0	0	0	0	562	452	0	482	0	0	
8	0	0	0	0	574	515	0	451	0	0	
9	0	0	0	0	582	577	0	420	0	0	
10	0	0	0	0	586	630	0	392	0	0	
11	0	0	0	0	586	668	0	371	0	0	
12	0	0	0	0	582	688	0	357	0	0	
13	0	0	0	0	573	688	0	353	0	0	
14	0	0	0	0	563	670	0	359	0	0	
15	0	0	0	0	550	633	0	374	0	0	
0	0	0	0	0	536	582	0	396	0	0	
1	0	0	0	0	523	523	0	424	0	0	
2	0	0	0	0	511	458	0	455	0	0	
3	0	0	0	0	503	398	0	484	0	0	
4	0	0	0	0	497	345	0	512	0	0	
5	0	0	0	0	497	306	0	532	0	0	
6	0	0	0	0	501	284	0	545	0	0	
7	0	0	0	0	508	282	0	548	0	0	
8	0	0	0	0	519	300	0	542	0	0	
9	0	0	0	0	531	336	0	526	0	0	
10	0	0	0	0	544	386	0	504	0	0	
11	0	0	0	0	557	446	0	475	0	0	
12	0	0	0	0	568	511	0	444	0	0	
13	0	0	0	0	576	573	0	414	0	0	
14	0	0	0	0	580	627	0	387	0	0	
15	0	0	0	0	580	667	0	366	0	0	
0	0	0	0	0	576	690	0	354	0	0	
1	0	0	0	0	568	693	0	350	0	0	
2	0	0	0	0	559	675	0	356	0	0	
3	0	0	0	0	547	640	0	372	0	0	
4	0	0	0	0	534	591	0	395	0	0	
5	0	0	0	0	521	531	0	422	0	0	
6	0	0	0	0	510	467	0	452	0	0	
7	0	0	0	0	501	405	0	481	0	0	
8	0	0	0	0	496	350	0	507	0	0	
9	0	0	0	0	493	308	0	525	0	0	
10	0	0	0	0	494	282	0	535	0	0	
11	0	0	0	0	497	274	0	534	0	0	
12	0	0	0	0	503	286	0	522	0	0	
13	0	0	0	0	509	313	0	500	0	0	
14	0	0	0	0	515	355	0	471	0	0	
15	0	0	0	0	519	405	0	434	0	0	
0	0	0	0	0	519	458	0	393	0	0	
1	0	0	0	0	516	509	0	352	0	0	
2	0	0	0	0	509	551	0	313	0	0	
3	0	0	0	0	496	579	0	280	0	0	
4	0	0	0	0	480	588	0	254	0	0	
5	0	0	0	0	459	577	0	238	0	0	
6	0	0	0	0	435	548	0	229	0	0	
7	0	0	0	0	409	500	0	231	0	0	
8	0	0	0	0	382	438	0	240	0	0	
9	0	0	0	0	355	365	0	254	0	0	
10	0	0	0	0	329	290	0	271	0	0	
11	0	0	0	0	307	216	0	289	0	0	
12	0	0	0	0	288	151	0	304	0	0	
13	0	0	0	0	274	98	0	313	0	0	
14	0	0	0	0	264	62	0	316	0	0	
15	0	0	0	0	258	45	0	309	0	0	
0	0	0	0	0	259	48	0	294	0	0	
1	0	0	0	0	263	72	0	272	0	0	
2	0	0	0	0	271	113	0	244	0	0	
3	0	0	0	0	283	168	0	214	0	0	
4	0	0	0	0	296	232	0	184	0	0	
5	0	0	0	0	312	299	0	156	0	0	
6	0	0	0	0	327	364	0	136	0	0	
7	0	0	0	0	343	419	0	124	0	0	
8	0	0	0	0	358	460	0	124	0	0	
9	0	0	0	0	371	485	0	137	0	0	
10	0	0	0	0	385	492	0	163	0	0	
11	0	0	0	0	399	481	0	201	0	0	
12	0	0	0	0	412	457	0	249	0	0	
13	0	0	0	0	425	422	0	304	0	0	
14	0	0	0	0	440	383	0	363	0	0	
15	0	0	0	0	455	344	0	423	0	0	
0	0	0	0	0	473	311	0	477	0	0	
1	0	0	0	0	493	290	0	523	0	0	
2	0	0	0	0	513	284	0	558	0	0	
3	0	0	0	0	534	295	0	578	0	0	
4	0	0	0	0	555	322	0	584	0	0	
5	0	0	0	0	575	365	0	577	0	0	
6	0	0	0	0	591	419	0	558	0	0	
7	0	0	0	0	605	480	0	529	0	0	
8	0	0	0	0	614	544	0	494	0	0	
9	0	0	0	0	618	604	0	457	0	0	
10	0	0	0	0	616	655	0	422	0	0	
11	0	0	0	0	609	691	0	391	0	0	
12	0	0	0	0	597	709	0	368	0	0	
13	0	0	0	0	582	708	0	355	0	0	
14	0	0	0	0	566	687	0	354	0	0	
15	0	0	0	0	547	648	0	364	0	0	
0	0	0	0	0	529	595	0	383	0	0	
1	0	0	0	0	514	533	0	409	0	0	
2	0	0	0	0	501	468	0	440	0	0	
3	0	0	0	0	494	406	0	472	0	0	
4	0	0	0	0	491	352	0	503	0	0	
5	0	0	0	0	494	313	0	528	0	0	
6	0	0	0	0	501	291	0	547	0	0	
7	0	0	0	0	512	289	0	555	0	0	
8	0	0	0	0	527	308	0	554	0	0	
9	0	0	0	0	543	345	0	543	0	0	
10	0	0	0	0	560	397	0	524	0	0	
11	0	0	0	0	575	459	0	498	0	0	
12	0	0	0	0	588	524	0	470	0	0	
13	0	0	0	0	598	588	0	439	0	0	
14	0	0	0	0	603	644	0	412	0	0	
15	0	0	0	0	603	685	0	389	0	0	
0	0	0	0	0	598	708	0	374	0	0	
1	0	0	0	0	589	711	0	368	0	0	
2	0	0	0	0	577	694	0	371	0	0	
3	0	0	0	0	563	658	0	385	0	0	
4	0	0	0	0	549	607	0	405	0	0	
5	0	0	0	0	534	546	0	432	0	0	
6	0	0	0	0	522	482	0	462	0	0	
7	0	0	0	0	512	419	0	492	0	0	
8	0	0	0	0	508	365	0	519	0	0	
9	0	0	0	0	507	324	0	541	0	0	
10	0	0	0	0	511	301	0	554	0	0	
11	0	0	0	0	519	297	0	560	0	0	
12	0	0	0	0	531	314	0	556	0	0	
13	0	0	0	0	545	350	0	543	0	0	
14	0	0	0	0	560	400	0	522	0	0	
15	0	0	0	0	575	460	0	497	0	0	
0	0	0	0	0	587	524	0	467	0	0	
1	0	0	0	0	596	588	0	438	0	0	
2	0	0	0	0	601	642	0	412	0	0	
3	0	0	0	0	602	683	0	391	0	0	
4	0	0	0	0	598	706	0	377	0	0	
5	0	0	0	0	590	708	0	372	0	0	
6	0	0	0	0	579	692	0	376	0	0	
7	0	0	0	0	565	656	0	390	0	0	
8	0	0	0	0	551	606	0	410	0	0	
9	0	0	0	0	536	546	0	436	0	0	
10	0	0	0	0	523	482	0	465	0	0	
11	0	0	0	0	514	420	0	494	0	0	
12	0	0	0	0	508	365	0	520	0	0	
13	0	0	0	0	508	324	0	542	0	0	
14	0	0	0	0	511	301	0	555	0	0	
15	0	0	0	0	519	297	0	559	0	0	
0	0	0	0	0	530	313	0	554	0	0	
1	0	0	0	0	543	348	0	540	0	0	
2	0	0	0	0	558	398	0	519	0	0	
3	0	0	0	0	572	457	0	492	0	0	
4	0	0	0	0	583	519	0	462	0	0	
5	0	0	0	0	592	583	0	432	0	0	
6	0	0	0	0	596	636	0	404	0	0	
7	0	0	0	0	596	677	0	383	0	0	
8	0	0	0	0	591	699	0	369	0	0	
9	0	0	0	0	583	702	0	364	0	0	
10	0	0	0	0	572	685	0	369	0	0	
11	0	0	0	0	559	649	0	383	0	0	
12	0	0	0	0	545	599	0	405	0	0	
13	0	0	0	0	532	539	0	432	0	0	
14	0	0	0	0	520	475	0	462	0	0	
15	0	0	0	0	511	414	0	492	0	0	
0	0	0	0	0	507	360	0	519	0	0	
1	0	0	0	0	507	319	0	540	0	0	
2	0	0	0	0	511	296	0	555	0	0	
3	0	0	0	0	519	292	0	559	0	0	
4	0	0	0	0	530	308	0	554	0	0	
5	0	0	0	0	543	343	0	540	0	0	
6	0	0	0	0	556	392	0	518	0	0	
7	0	0	0	0	569	451	0	491	0	0	
8	0	0	0	0	579	513	0	461	0	0	
9	0	0	0	0	587	575	0	430	0	0	
10	0	0	0	0	591	630	0	402	0	0	
11	0	0	0	0	590	670	0	379	0	0	
12	0	0	0	0	585	693	0	365	0	0	
13	0	0	0	0	575	694	0	359	0	0	
14	0	0	0	0	564	678	0	363	0	0	
15	0	0	0	0	550	642	0	376	0	0	
0	0	0	0	0	536	592	0	398	0	0	
1	0	0	0	0	522	532	0	424	0	0	
2	0	0	0	0	510	467	0	454	0	0	
3	0	0	0	0	501	406	0	483	0	0	
4	0	0	0	0	496	351	0	510	0	0	
5	0	0	0	0	496	310	0	531	0	0	
6	0	0	0	0	499	286	0	544	0	0	
7	0	0	0	0	507	281	0	547	0	0	
8	0	0	0	0	518	297	0	542	0	0	
9	0	0	0	0	530	331	0	527	0	0	
10	0	0	0	0	544	380	0	505	0	0	
11	0	0	0	0	558	439	0	478	0	0	
12	0	0	0	0	569	501	0	448	0	0	
13	0	0	0	0	578	564	0	418	0	0	
14	0	0	0	0	583	618	0	391	0	0	
15	0	0	0	0	582	659	0	369	0	0	
0	0	0	0	0	578	683	0	356	0	0	
1	0	0	0	0	570	686	0	351	0	0	
2	0	0	0	0	559	670	0	356	0	0	
3	0	0	0	0	546	635	0	371	0	0	
4	0	0	0	0	532	585	0	393	0	0	
5	0	0	0	0	519	524	0	420	0	0	
6	0	0	0	0	507	462	0	450	0	0	
7	0	0	0	0	498	399	0	480	0	0	
8	0	0	0	0	493	345	0	507	0	0	
9	0	0	0	0	492	304	0	527	0	0	
10	0	0	0	0	495	280	0	540	0	0	
11	0	0	0	0	504	276	0	544	0	0	
12	0	0	0	0	514	292	0	538	0	0	
13	0	0	0	0	527	326	0	523	0	0	
14	0	0	0	0	541	376	0	502	0	0	
15	0	0	0	0	555	435	0	475	0	0	
0	0	0	0	0	566	499	0	444	0	0	
1	0	0	0	0	575	562	0	414	0	0	
2	0	0	0	0	579	617	0	387	0	0	
3	0	0	0	0	579	659	0	366	0	0	
4	0	0	0	0	575	684	0	353	0	0	
5	0	0	0	0	568	687	0	350	0	0	
6	0	0	0	0	557	673	0	355	0	0	
7	0	0	0	0	544	639	0	371	0	0	
8	0	0	0	0	530	590	0	393	0	0	
9	0	0	0	0	518	531	0	421	0	0	
10	0	0	0	0	506	467	0	451	0	0	
11	0	0	0	0	497	406	0	482	0	0	
12	0	0	0	0	492	352	0	510	0	0	
13	0	0	0	0	492	311	0	531	0	0	
14	0	0	0	0	496	287	0	545	0	0	
15	0	0	0	0	503	281	0	549	0	0	
0	0	0	0	0	514	297	0	543	0	0	
1	0	0	0	0	527	331	0	528	0	0	
2	0	0	0	0	542	379	0	506	0	0	
3	0	0	0	0	555	437	0	479	0	0	
4	0	0	0	0	567	500	0	448	0	0	
5	0	0	0	0	575	563	0	416	0	0	
6	0	0	0	0	579	617	0	389	0	0	
7	0	0	0	0	579	658	0	367	0	0	
8	0	0	0	0	576	682	0	353	0	0	
9	0	0	0	0	568	685	0	349	0	0	
