# OpenSignals Text File Format. Version 1
# {"": {"position": 0, "device": "", "device name": "", "device connection": "", "sampling rate": 1000, "resolution": [4, 1, 1, 1, 1, 10, 10, 10, 10, 6, 6], "firmware version": 1281, "comments": "", "keywords": "", "mode": 0, "sync interval": 2, "date": "", "time": "", "channels": [1, 2, 3, 4, 5, 6], "sensor": ["RAW", "RAW", "RAW", "RAW", "RAW", "RAW"], "label": ["A1", "A2", "A3", "A4", "A5", "A6"], "column": ["nSeq", "I1", "I2", "O1", "O2", "A1", "A2", "A3", "A4", "A5", "A6"], "special": [{}, {}, {}, {}, {}, {}], "digital IO": [0, 0, 1, 1]}}
# EndOfHeader
0	0	0	0	0	493	438	0	0	0	0	
1	0	0	0	0	499	441	0	0	0	0	
2	0	0	0	0	504	446	0	0	0	0	
3	0	0	0	0	509	450	0	0	0	0	
4	0	0	0	0	513	455	0	0	0	0	
5	0	0	0	0	517	460	0	0	0	0	
6	0	0	0	0	519	465	0	0	0	0	
7	0	0	0	0	522	469	0	0	0	0	
8	0	0	0	0	523	473	0	0	0	0	
9	0	0	0	0	524	476	0	0	0	0	
10	0	0	0	0	524	478	0	0	0	0	
11	0	0	0	0	524	480	0	0	0	0	
12	0	0	0	0	525	481	0	0	0	0	
13	0	0	0	0	526	483	0	0	0	0	
14	0	0	0	0	529	485	0	0	0	0	
15	0	0	0	0	532	487	0	0	0	0	
0	0	0	0	0	537	491	0	0	0	0	
1	0	0	0	0	543	494	0	0	0	0	
2	0	0	0	0	549	499	0	0	0	0	
3	0	0	0	0	555	502	0	0	0	0	
4	0	0	0	0	561	506	0	0	0	0	
5	0	0	0	0	565	509	0	0	0	0	
6	0	0	0	0	567	510	0	0	0	0	
7	0	0	0	0	567	509	0	0	0	0	
8	0	0	0	0	563	508	0	0	0	0	
9	0	0	0	0	556	502	0	0	0	0	
10	0	0	0	0	547	496	0	0	0	0	
11	0	0	0	0	536	488	0	0	0	0	
12	0	0	0	0	524	480	0	0	0	0	
13	0	0	0	0	513	473	0	0	0	0	
14	0	0	0	0	505	466	0	0	0	0	
15	0	0	0	0	498	462	0	0	0	0	
0	0	0	0	0	495	459	0	0	0	0	
1	0	0	0	0	494	459	0	0	0	0	
2	0	0	0	0	497	460	0	0	0	0	
3	0	0	0	0	502	463	0	0	0	0	
4	0	0	0	0	509	468	0	0	0	0	
5	0	0	0	0	517	473	0	0	0	0	
6	0	0	0	0	525	478	0	0	0	0	
7	0	0	0	0	531	482	0	0	0	0	
8	0	0	0	0	535	484	0	0	0	0	
9	0	0	0	0	536	484	0	0	0	0	
10	0	0	0	0	534	482	0	0	0	0	
11	0	0	0	0	528	477	0	0	0	0	
12	0	0	0	0	521	472	0	0	0	0	
13	0	0	0	0	512	464	0	0	0	0	
14	0	0	0	0	502	456	0	0	0	0	
15	0	0	0	0	493	449	0	0	0	0	
0	0	0	0	0	485	444	0	0	0	0	
1	0	0	0	0	480	440	0	0	0	0	
2	0	0	0	0	478	439	0	0	0	0	
3	0	0	0	0	480	441	0	0	0	0	
4	0	0	0	0	486	446	0	0	0	0	
5	0	0	0	0	495	453	0	0	0	0	
6	0	0	0	0	506	463	0	0	0	0	
7	0	0	0	0	520	473	0	0	0	0	
8	0	0	0	0	535	484	0	0	0	0	
9	0	0	0	0	550	496	0	0	0	0	
10	0	0	0	0	563	506	0	0	0	0	
11	0	0	0	0	573	515	0	0	0	0	
12	0	0	0	0	581	521	0	0	0	0	
13	0	0	0	0	585	524	0	0	0	0	
14	0	0	0	0	584	524	0	0	0	0	
15	0	0	0	0	580	521	0	0	0	0	
0	0	0	0	0	573	517	0	0	0	0	
1	0	0	0	0	563	510	0	0	0	0	
2	0	0	0	0	553	504	0	0	0	0	
3	0	0	0	0	542	498	0	0	0	0	
4	0	0	0	0	532	492	0	0	0	0	
5	0	0	0	0	524	488	0	0	0	0	
6	0	0	0	0	519	486	0	0	0	0	
7	0	0	0	0	516	486	0	0	0	0	
8	0	0	0	0	518	487	0	0	0	0	
9	0	0	0	0	521	489	0	0	0	0	
10	0	0	0	0	528	493	0	0	0	0	
11	0	0	0	0	536	496	0	0	0	0	
12	0	0	0	0	544	499	0	0	0	0	
13	0	0	0	0	551	501	0	0	0	0	
14	0	0	0	0	556	502	0	0	0	0	
15	0	0	0	0	557	499	0	0	0	0	
0	0	0	0	0	555	496	0	0	0	0	
1	0	0	0	0	549	489	0	0	0	0	
2	0	0	0	0	540	482	0	0	0	0	
3	0	0	0	0	529	474	0	0	0	0	
4	0	0	0	0	515	466	0	0	0	0	
5	0	0	0	0	503	456	0	0	0	0	
6	0	0	0	0	490	449	0	0	0	0	
7	0	0	0	0	479	443	0	0	0	0	
8	0	0	0	0	471	438	0	0	0	0	
9	0	0	0	0	465	435	0	0	0	0	
10	0	0	0	0	463	434	0	0	0	0	
11	0	0	0	0	466	436	0	0	0	0	
12	0	0	0	0	472	440	0	0	0	0	
13	0	0	0	0	482	446	0	0	0	0	
14	0	0	0	0	495	454	0	0	0	0	
15	0	0	0	0	509	462	0	0	0	0	
0	0	0	0	0	523	471	0	0	0	0	
1	0	0	0	0	536	478	0	0	0	0	
2	0	0	0	0	546	484	0	0	0	0	
3	0	0	0	0	555	488	0	0	0	0	
4	0	0	0	0	560	491	0	0	0	0	
5	0	0	0	0	561	492	0	0	0	0	
6	0	0	0	0	561	492	0	0	0	0	
7	0	0	0	0	558	492	0	0	0	0	
8	0	0	0	0	553	490	0	0	0	0	
9	0	0	0	0	548	488	0	0	0	0	
10	0	0	0	0	543	487	0	0	0	0	
11	0	0	0	0	537	485	0	0	0	0	
12	0	0	0	0	532	483	0	0	0	0	
13	0	0	0	0	528	482	0	0	0	0	
14	0	0	0	0	525	480	0	0	0	0	
15	0	0	0	0	523	478	0	0	0	0	
0	0	0	0	0	522	477	0	0	0	0	
1	0	0	0	0	523	477	0	0	0	0	
2	0	0	0	0	525	477	0	0	0	0	
3	0	0	0	0	528	478	0	0	0	0	
4	0	0	0	0	531	478	0	0	0	0	
5	0	0	0	0	534	478	0	0	0	0	
6	0	0	0	0	535	476	0	0	0	0	
7	0	0	0	0	534	473	0	0	0	0	
8	0	0	0	0	531	470	0	0	0	0	
9	0	0	0	0	527	465	0	0	0	0	
10	0	0	0	0	521	460	0	0	0	0	
11	0	0	0	0	514	455	0	0	0	0	
12	0	0	0	0	507	452	0	0	0	0	
13	0	0	0	0	501	448	0	0	0	0	
14	0	0	0	0	496	446	0	0	0	0	
15	0	0	0	0	492	445	0	0	0	0	
0	0	0	0	0	491	446	0	0	0	0	
1	0	0	0	0	492	450	0	0	0	0	
2	0	0	0	0	496	455	0	0	0	0	
3	0	0	0	0	502	461	0	0	0	0	
4	0	0	0	0	511	470	0	0	0	0	
5	0	0	0	0	521	479	0	0	0	0	
6	0	0	0	0	534	489	0	0	0	0	
7	0	0	0	0	548	498	0	0	0	0	
8	0	0	0	0	560	507	0	0	0	0	
9	0	0	0	0	571	513	0	0	0	0	
10	0	0	0	0	578	517	0	0	0	0	
11	0	0	0	0	582	517	0	0	0	0	
12	0	0	0	0	581	514	0	0	0	0	
13	0	0	0	0	575	508	0	0	0	0	
14	0	0	0	0	564	497	0	0	0	0	
15	0	0	0	0	551	486	0	0	0	0	
0	0	0	0	0	534	473	0	0	0	0	
1	0	0	0	0	517	460	0	0	0	0	
2	0	0	0	0	502	449	0	0	0	0	
3	0	0	0	0	487	441	0	0	0	0	
4	0	0	0	0	477	435	0	0	0	0	
5	0	0	0	0	472	433	0	0	0	0	
6	0	0	0	0	471	434	0	0	0	0	
7	0	0	0	0	475	439	0	0	0	0	
8	0	0	0	0	484	447	0	0	0	0	
9	0	0	0	0	496	457	0	0	0	0	
10	0	0	0	0	511	467	0	0	0	0	
11	0	0	0	0	527	478	0	0	0	0	
12	0	0	0	0	542	489	0	0	0	0	
13	0	0	0	0	558	499	0	0	0	0	
14	0	0	0	0	571	508	0	0	0	0	
15	0	0	0	0	580	514	0	0	0	0	
0	0	0	0	0	586	517	0	0	0	0	
1	0	0	0	0	588	518	0	0	0	0	
2	0	0	0	0	585	516	0	0	0	0	
3	0	0	0	0	578	512	0	0	0	0	
4	0	0	0	0	568	504	0	0	0	0	
5	0	0	0	0	554	496	0	0	0	0	
6	0	0	0	0	539	487	0	0	0	0	
7	0	0	0	0	524	478	0	0	0	0	
8	0	0	0	0	508	468	0	0	0	0	
9	0	0	0	0	496	460	0	0	0	0	
10	0	0	0	0	485	454	0	0	0	0	
11	0	0	0	0	478	449	0	0	0	0	
12	0	0	0	0	475	446	0	0	0	0	
13	0	0	0	0	476	446	0	0	0	0	
14	0	0	0	0	480	447	0	0	0	0	
15	0	0	0	0	487	450	0	0	0	0	
0	0	0	0	0	496	454	0	0	0	0	
1	0	0	0	0	506	457	0	0	0	0	
2	0	0	0	0	514	461	0	0	0	0	
3	0	0	0	0	523	464	0	0	0	0	
4	0	0	0	0	529	467	0	0	0	0	
5	0	0	0	0	534	469	0	0	0	0	
6	0	0	0	0	536	470	0	0	0	0	
7	0	0	0	0	536	470	0	0	0	0	
8	0	0	0	0	533	469	0	0	0	0	
9	0	0	0	0	527	466	0	0	0	0	
10	0	0	0	0	520	463	0	0	0	0	
11	0	0	0	0	512	458	0	0	0	0	
12	0	0	0	0	503	454	0	0	0	0	
13	0	0	0	0	495	449	0	0	0	0	
14	0	0	0	0	488	445	0	0	0	0	
15	0	0	0	0	484	443	0	0	0	0	
0	0	0	0	0	482	441	0	0	0	0	
1	0	0	0	0	482	441	0	0	0	0	
2	0	0	0	0	484	441	0	0	0	0	
3	0	0	0	0	488	443	0	0	0	0	
4	0	0	0	0	493	445	0	0	0	0	
5	0	0	0	0	499	448	0	0	0	0	
6	0	0	0	0	505	450	0	0	0	0	
7	0	0	0	0	511	452	0	0	0	0	
8	0	0	0	0	517	456	0	0	0	0	
9	0	0	0	0	523	460	0	0	0	0	
10	0	0	0	0	529	464	0	0	0	0	
11	0	0	0	0	533	468	0	0	0	0	
12	0	0	0	0	537	472	0	0	0	0	
13	0	0	0	0	539	475	0	0	0	0	
14	0	0	0	0	539	478	0	0	0	0	
15	0	0	0	0	538	479	0	0	0	0	
0	0	0	0	0	536	480	0	0	0	0	
1	0	0	0	0	535	481	0	0	0	0	
2	0	0	0	0	534	483	0	0	0	0	
3	0	0	0	0	534	484	0	0	0	0	
4	0	0	0	0	536	487	0	0	0	0	
5	0	0	0	0	537	490	0	0	0	0	
6	0	0	0	0	540	493	0	0	0	0	
7	0	0	0	0	544	496	0	0	0	0	
8	0	0	0	0	547	499	0	0	0	0	
9	0	0	0	0	551	501	0	0	0	0	
10	0	0	0	0	553	502	0	0	0	0	
11	0	0	0	0	553	502	0	0	0	0	
12	0	0	0	0	552	500	0	0	0	0	
13	0	0	0	0	550	498	0	0	0	0	
14	0	0	0	0	546	495	0	0	0	0	
15	0	0	0	0	541	491	0	0	0	0	
0	0	0	0	0	534	486	0	0	0	0	
1	0	0	0	0	527	480	0	0	0	0	
2	0	0	0	0	518	474	0	0	0	0	
3	0	0	0	0	511	470	0	0	0	0	
4	0	0	0	0	506	467	0	0	0	0	
5	0	0	0	0	502	465	0	0	0	0	
6	0	0	0	0	500	465	0	0	0	0	
7	0	0	0	0	500	466	0	0	0	0	
8	0	0	0	0	502	468	0	0	0	0	
9	0	0	0	0	505	470	0	0	0	0	
10	0	0	0	0	508	471	0	0	0	0	
11	0	0	0	0	512	472	0	0	0	0	
12	0	0	0	0	515	473	0	0	0	0	
13	0	0	0	0	519	473	0	0	0	0	
14	0	0	0	0	520	472	0	0	0	0	
15	0	0	0	0	520	469	0	0	0	0	
0	0	0	0	0	519	464	0	0	0	0	
1	0	0	0	0	513	459	0	0	0	0	
2	0	0	0	0	506	451	0	0	0	0	
3	0	0	0	0	497	444	0	0	0	0	
4	0	0	0	0	487	436	0	0	0	0	
5	0	0	0	0	477	428	0	0	0	0	
6	0	0	0	0	466	420	0	0	0	0	
7	0	0	0	0	455	413	0	0	0	0	
8	0	0	0	0	447	407	0	0	0	0	
9	0	0	0	0	440	403	0	0	0	0	
10	0	0	0	0	435	399	0	0	0	0	
11	0	0	0	0	432	398	0	0	0	0	
12	0	0	0	0	431	396	0	0	0	0	
13	0	0	0	0	430	396	0	0	0	0	
14	0	0	0	0	430	394	0	0	0	0	
15	0	0	0	0	428	390	0	0	0	0	
0	0	0	0	0	424	384	0	0	0	0	
1	0	0	0	0	415	373	0	0	0	0	
2	0	0	0	0	400	358	0	0	0	0	
3	0	0	0	0	381	339	0	0	0	0	
4	0	0	0	0	359	316	0	0	0	0	
5	0	0	0	0	334	294	0	0	0	0	
6	0	0	0	0	310	273	0	0	0	0	
7	0	0	0	0	287	254	0	0	0	0	
8	0	0	0	0	270	240	0	0	0	0	
9	0	0	0	0	259	232	0	0	0	0	
10	0	0	0	0	255	231	0	0	0	0	
11	0	0	0	0	261	237	0	0	0	0	
12	0	0	0	0	275	250	0	0	0	0	
13	0	0	0	0	296	269	0	0	0	0	
14	0	0	0	0	323	292	0	0	0	0	
15	0	0	0	0	355	317	0	0	0	0	
0	0	0	0	0	389	345	0	0	0	0	
1	0	0	0	0	423	371	0	0	0	0	
2	0	0	0	0	456	397	0	0	0	0	
3	0	0	0	0	485	418	0	0	0	0	
4	0	0	0	0	508	435	0	0	0	0	
5	0	0	0	0	524	446	0	0	0	0	
6	0	0	0	0	533	452	0	0	0	0	
7	0	0	0	0	536	454	0	0	0	0	
8	0	0	0	0	533	454	0	0	0	0	
9	0	0	0	0	526	450	0	0	0	0	
10	0	0	0	0	517	446	0	0	0	0	
11	0	0	0	0	507	442	0	0	0	0	
12	0	0	0	0	497	439	0	0	0	0	
13	0	0	0	0	488	436	0	0	0	0	
14	0	0	0	0	483	437	0	0	0	0	
15	0	0	0	0	480	439	0	0	0	0	
0	0	0	0	0	482	444	0	0	0	0	
1	0	0	0	0	486	451	0	0	0	0	
2	0	0	0	0	495	459	0	0	0	0	
3	0	0	0	0	504	468	0	0	0	0	
4	0	0	0	0	515	477	0	0	0	0	
5	0	0	0	0	526	485	0	0	0	0	
6	0	0	0	0	536	492	0	0	0	0	
7	0	0	0	0	545	497	0	0	0	0	
8	0	0	0	0	553	501	0	0	0	0	
9	0	0	0	0	558	503	0	0	0	0	
10	0	0	0	0	561	504	0	0	0	0	
11	0	0	0	0	563	504	0	0	0	0	
12	0	0	0	0	562	501	0	0	0	0	
13	0	0	0	0	559	499	0	0	0	0	
14	0	0	0	0	556	496	0	0	0	0	
15	0	0	0	0	551	494	0	0	0	0	
0	0	0	0	0	546	491	0	0	0	0	
1	0	0	0	0	540	489	0	0	0	0	
2	0	0	0	0	535	488	0	0	0	0	
3	0	0	0	0	531	488	0	0	0	0	
4	0	0	0	0	528	489	0	0	0	0	
5	0	0	0	0	528	491	0	0	0	0	
6	0	0	0	0	529	494	0	0	0	0	
7	0	0	0	0	532	498	0	0	0	0	
8	0	0	0	0	537	503	0	0	0	0	
9	0	0	0	0	543	508	0	0	0	0	
10	0	0	0	0	552	513	0	0	0	0	
11	0	0	0	0	561	519	0	0	0	0	
12	0	0	0	0	571	525	0	0	0	0	
13	0	0	0	0	580	531	0	0	0	0	
14	0	0	0	0	589	536	0	0	0	0	
15	0	0	0	0	596	540	0	0	0	0	
0	0	0	0	0	600	542	0	0	0	0	
1	0	0	0	0	602	543	0	0	0	0	
2	0	0	0	0	601	542	0	0	0	0	
3	0	0	0	0	597	539	0	0	0	0	
4	0	0	0	0	590	533	0	0	0	0	
5	0	0	0	0	580	527	0	0	0	0	
6	0	0	0	0	568	518	0	0	0	0	
7	0	0	0	0	553	508	0	0	0	0	
8	0	0	0	0	537	498	0	0	0	0	
9	0	0	0	0	522	487	0	0	0	0	
10	0	0	0	0	508	478	0	0	0	0	
11	0	0	0	0	496	469	0	0	0	0	
12	0	0	0	0	488	463	0	0	0	0	
13	0	0	0	0	484	460	0	0	0	0	
14	0	0	0	0	484	460	0	0	0	0	
15	0	0	0	0	490	462	0	0	0	0	
0	0	0	0	0	499	467	0	0	0	0	
1	0	0	0	0	511	474	0	0	0	0	
2	0	0	0	0	525	482	0	0	0	0	
3	0	0	0	0	539	490	0	0	0	0	
4	0	0	0	0	553	497	0	0	0	0	
5	0	0	0	0	566	504	0	0	0	0	
6	0	0	0	0	575	509	0	0	0	0	
7	0	0	0	0	581	512	0	0	0	0	
8	0	0	0	0	583	513	0	0	0	0	
9	0	0	0	0	583	512	0	0	0	0	
10	0	0	0	0	579	510	0	0	0	0	
11	0	0	0	0	573	508	0	0	0	0	
12	0	0	0	0	566	505	0	0	0	0	
13	0	0	0	0	558	502	0	0	0	0	
14	0	0	0	0	549	497	0	0	0	0	
15	0	0	0	0	540	493	0	0	0	0	
0	0	0	0	0	531	487	0	0	0	0	
1	0	0	0	0	521	482	0	0	0	0	
2	0	0	0	0	512	475	0	0	0	0	
3	0	0	0	0	504	469	0	0	0	0	
4	0	0	0	0	497	462	0	0	0	0	
5	0	0	0	0	491	456	0	0	0	0	
6	0	0	0	0	487	451	0	0	0	0	
7	0	0	0	0	484	447	0	0	0	0	
8	0	0	0	0	484	444	0	0	0	0	
9	0	0	0	0	486	442	0	0	0	0	
10	0	0	0	0	490	444	0	0	0	0	
11	0	0	0	0	496	446	0	0	0	0	
12	0	0	0	0	504	451	0	0	0	0	
13	0	0	0	0	512	458	0	0	0	0	
14	0	0	0	0	520	465	0	0	0	0	
15	0	0	0	0	528	472	0	0	0	0	
0	0	0	0	0	535	480	0	0	0	0	
1	0	0	0	0	540	486	0	0	0	0	
2	0	0	0	0	544	492	0	0	0	0	
3	0	0	0	0	547	496	0	0	0	0	
4	0	0	0	0	547	498	0	0	0	0	
5	0	0	0	0	547	499	0	0	0	0	
6	0	0	0	0	545	498	0	0	0	0	
7	0	0	0	0	542	496	0	0	0	0	
8	0	0	0	0	538	492	0	0	0	0	
9	0	0	0	0	535	488	0	0	0	0	
10	0	0	0	0	530	484	0	0	0	0	
11	0	0	0	0	527	480	0	0	0	0	
12	0	0	0	0	524	476	0	0	0	0	
13	0	0	0	0	521	472	0	0	0	0	
14	0	0	0	0	519	470	0	0	0	0	
15	0	0	0	0	518	467	0	0	0	0	
0	0	0	0	0	516	466	0	0	0	0	
1	0	0	0	0	515	465	0	0	0	0	
2	0	0	0	0	515	466	0	0	0	0	
3	0	0	0	0	517	468	0	0	0	0	
4	0	0	0	0	520	472	0	0	0	0	
5	0	0	0	0	526	479	0	0	0	0	
6	0	0	0	0	534	487	0	0	0	0	
7	0	0	0	0	543	497	0	0	0	0	
8	0	0	0	0	554	508	0	0	0	0	
9	0	0	0	0	565	519	0	0	0	0	
10	0	0	0	0	577	529	0	0	0	0	
11	0	0	0	0	588	540	0	0	0	0	
12	0	0	0	0	599	549	0	0	0	0	
13	0	0	0	0	608	556	0	0	0	0	
14	0	0	0	0	614	561	0	0	0	0	
15	0	0	0	0	616	560	0	0	0	0	
0	0	0	0	0	614	557	0	0	0	0	
1	0	0	0	0	607	549	0	0	0	0	
2	0	0	0	0	598	539	0	0	0	0	
3	0	0	0	0	584	526	0	0	0	0	
4	0	0	0	0	568	512	0	0	0	0	
5	0	0	0	0	551	497	0	0	0	0	
6	0	0	0	0	532	482	0	0	0	0	
7	0	0	0	0	514	467	0	0	0	0	
8	0	0	0	0	497	455	0	0	0	0	
9	0	0	0	0	482	444	0	0	0	0	
10	0	0	0	0	470	435	0	0	0	0	
11	0	0	0	0	462	429	0	0	0	0	
12	0	0	0	0	457	425	0	0	0	0	
13	0	0	0	0	455	424	0	0	0	0	
14	0	0	0	0	457	424	0	0	0	0	
15	0	0	0	0	462	427	0	0	0	0	
0	0	0	0	0	469	430	0	0	0	0	
1	0	0	0	0	478	435	0	0	0	0	
2	0	0	0	0	487	440	0	0	0	0	
3	0	0	0	0	496	445	0	0	0	0	
4	0	0	0	0	505	450	0	0	0	0	
5	0	0	0	0	513	455	0	0	0	0	
6	0	0	0	0	520	460	0	0	0	0	
7	0	0	0	0	526	463	0	0	0	0	
8	0	0	0	0	530	466	0	0	0	0	
9	0	0	0	0	533	469	0	0	0	0	
10	0	0	0	0	534	472	0	0	0	0	
11	0	0	0	0	536	475	0	0	0	0	
12	0	0	0	0	536	478	0	0	0	0	
13	0	0	0	0	537	482	0	0	0	0	
14	0	0	0	0	539	487	0	0	0	0	
15	0	0	0	0	542	493	0	0	0	0	
0	0	0	0	0	547	499	0	0	0	0	
1	0	0	0	0	553	506	0	0	0	0	
2	0	0	0	0	560	512	0	0	0	0	
3	0	0	0	0	566	518	0	0	0	0	
4	0	0	0	0	572	521	0	0	0	0	
5	0	0	0	0	575	523	0	0	0	0	
6	0	0	0	0	577	522	0	0	0	0	
7	0	0	0	0	575	518	0	0	0	0	
8	0	0	0	0	571	512	0	0	0	0	
9	0	0	0	0	562	503	0	0	0	0	
10	0	0	0	0	551	492	0	0	0	0	
11	0	0	0	0	537	480	0	0	0	0	
12	0	0	0	0	521	468	0	0	0	0	
13	0	0	0	0	507	456	0	0	0	0	
14	0	0	0	0	493	447	0	0	0	0	
15	0	0	0	0	481	439	0	0	0	0	
0	0	0	0	0	474	435	0	0	0	0	
1	0	0	0	0	472	435	0	0	0	0	
2	0	0	0	0	473	438	0	0	0	0	
3	0	0	0	0	479	444	0	0	0	0	
4	0	0	0	0	488	452	0	0	0	0	
5	0	0	0	0	499	461	0	0	0	0	
6	0	0	0	0	510	470	0	0	0	0	
7	0	0	0	0	522	479	0	0	0	0	
8	0	0	0	0	533	487	0	0	0	0	
9	0	0	0	0	542	494	0	0	0	0	
10	0	0	0	0	548	498	0	0	0	0	
11	0	0	0	0	551	499	0	0	0	0	
12	0	0	0	0	552	499	0	0	0	0	
13	0	0	0	0	550	495	0	0	0	0	
14	0	0	0	0	544	490	0	0	0	0	
15	0	0	0	0	536	483	0	0	0	0	
0	0	0	0	0	528	476	0	0	0	0	
1	0	0	0	0	519	470	0	0	0	0	
2	0	0	0	0	511	463	0	0	0	0	
3	0	0	0	0	504	459	0	0	0	0	
4	0	0	0	0	499	456	0	0	0	0	
5	0	0	0	0	497	456	0	0	0	0	
6	0	0	0	0	497	456	0	0	0	0	
7	0	0	0	0	500	460	0	0	0	0	
8	0	0	0	0	505	463	0	0	0	0	
9	0	0	0	0	512	468	0	0	0	0	
10	0	0	0	0	519	472	0	0	0	0	
11	0	0	0	0	526	476	0	0	0	0	
12	0	0	0	0	533	480	0	0	0	0	
13	0	0	0	0	538	482	0	0	0	0	
14	0	0	0	0	541	484	0	0	0	0	
15	0	0	0	0	542	483	0	0	0	0	
0	0	0	0	0	540	482	0	0	0	0	
1	0	0	0	0	536	479	0	0	0	0	
2	0	0	0	0	530	476	0	0	0	0	
3	0	0	0	0	523	472	0	0	0	0	
4	0	0	0	0	515	467	0	0	0	0	
5	0	0	0	0	508	462	0	0	0	0	
6	0	0	0	0	501	457	0	0	0	0	
7	0	0	0	0	494	452	0	0	0	0	
8	0	0	0	0	488	447	0	0	0	0	
9	0	0	0	0	483	442	0	0	0	0	
10	0	0	0	0	479	438	0	0	0	0	
11	0	0	0	0	478	435	0	0	0	0	
12	0	0	0	0	478	433	0	0	0	0	
13	0	0	0	0	481	434	0	0	0	0	
14	0	0	0	0	487	437	0	0	0	0	
15	0	0	0	0	495	441	0	0	0	0	
0	0	0	0	0	505	447	0	0	0	0	
1	0	0	0	0	515	454	0	0	0	0	
2	0	0	0	0	524	461	0	0	0	0	
3	0	0	0	0	534	467	0	0	0	0	
4	0	0	0	0	543	473	0	0	0	0	
5	0	0	0	0	549	478	0	0	0	0	
6	0	0	0	0	551	480	0	0	0	0	
7	0	0	0	0	548	479	0	0	0	0	
8	0	0	0	0	540	474	0	0	0	0	
9	0	0	0	0	529	467	0	0	0	0	
10	0	0	0	0	515	459	0	0	0	0	
11	0	0	0	0	499	450	0	0	0	0	
12	0	0	0	0	483	442	0	0	0	0	
13	0	0	0	0	471	436	0	0	0	0	
14	0	0	0	0	462	432	0	0	0	0	
15	0	0	0	0	459	433	0	0	0	0	
0	0	0	0	0	461	436	0	0	0	0	
1	0	0	0	0	467	443	0	0	0	0	
2	0	0	0	0	477	450	0	0	0	0	
3	0	0	0	0	491	459	0	0	0	0	
4	0	0	0	0	506	467	0	0	0	0	
5	0	0	0	0	521	476	0	0	0	0	
6	0	0	0	0	535	483	0	0	0	0	
7	0	0	0	0	546	487	0	0	0	0	
8	0	0	0	0	555	490	0	0	0	0	
9	0	0	0	0	558	489	0	0	0	0	
10	0	0	0	0	557	486	0	0	0	0	
11	0	0	0	0	551	481	0	0	0	0	
12	0	0	0	0	543	474	0	0	0	0	
13	0	0	0	0	532	467	0	0	0	0	
14	0	0	0	0	520	460	0	0	0	0	
15	0	0	0	0	508	453	0	0	0	0	
0	0	0	0	0	496	448	0	0	0	0	
1	0	0	0	0	487	444	0	0	0	0	
2	0	0	0	0	480	441	0	0	0	0	
3	0	0	0	0	477	441	0	0	0	0	
4	0	0	0	0	477	442	0	0	0	0	
5	0	0	0	0	480	445	0	0	0	0	
6	0	0	0	0	486	448	0	0	0	0	
7	0	0	0	0	494	452	0	0	0	0	
8	0	0	0	0	502	456	0	0	0	0	
9	0	0	0	0	511	460	0	0	0	0	
10	0	0	0	0	519	463	0	0	0	0	
11	0	0	0	0	526	466	0	0	0	0	
12	0	0	0	0	532	469	0	0	0	0	
13	0	0	0	0	536	472	0	0	0	0	
14	0	0	0	0	539	473	0	0	0	0	
15	0	0	0	0	541	476	0	0	0	0	
0	0	0	0	0	542	479	0	0	0	0	
1	0	0	0	0	543	482	0	0	0	0	
2	0	0	0	0	544	486	0	0	0	0	
3	0	0	0	0	544	489	0	0	0	0	
4	0	0	0	0	543	492	0	0	0	0	
5	0	0	0	0	542	494	0	0	0	0	
6	0	0	0	0	538	493	0	0	0	0	
7	0	0	0	0	534	491	0	0	0	0	
8	0	0	0	0	527	487	0	0	0	0	
9	0	0	0	0	520	481	0	0	0	0	
10	0	0	0	0	514	475	0	0	0	0	
11	0	0	0	0	508	470	0	0	0	0	
12	0	0	0	0	504	466	0	0	0	0	
13	0	0	0	0	503	464	0	0	0	0	
14	0	0	0	0	504	464	0	0	0	0	
15	0	0	0	0	507	466	0	0	0	0	
0	0	0	0	0	511	467	0	0	0	0	
1	0	0	0	0	513	469	0	0	0	0	
2	0	0	0	0	514	468	0	0	0	0	
3	0	0	0	0	511	464	0	0	0	0	
4	0	0	0	0	507	458	0	0	0	0	
5	0	0	0	0	499	451	0	0	0	0	
6	0	0	0	0	492	444	0	0	0	0	
7	0	0	0	0	484	438	0	0	0	0	
8	0	0	0	0	477	432	0	0	0	0	
9	0	0	0	0	472	427	0	0	0	0	
10	0	0	0	0	467	423	0	0	0	0	
11	0	0	0	0	464	422	0	0	0	0	
12	0	0	0	0	464	421	0	0	0	0	
13	0	0	0	0	464	422	0	0	0	0	
14	0	0	0	0	467	423	0	0	0	0	
15	0	0	0	0	470	425	0	0	0	0	
0	0	0	0	0	474	429	0	0	0	0	
1	0	0	0	0	480	433	0	0	0	0	
2	0	0	0	0	487	439	0	0	0	0	
3	0	0	0	0	495	445	0	0	0	0	
4	0	0	0	0	505	452	0	0	0	0	
5	0	0	0	0	513	459	0	0	0	0	
6	0	0	0	0	520	464	0	0	0	0	
7	0	0	0	0	524	467	0	0	0	0	
8	0	0	0	0	525	467	0	0	0	0	
9	0	0	0	0	523	466	0	0	0	0	
10	0	0	0	0	519	463	0	0	0	0	
11	0	0	0	0	513	461	0	0	0	0	
12	0	0	0	0	508	459	0	0	0	0	
13	0	0	0	0	505	459	0	0	0	0	
14	0	0	0	0	504	461	0	0	0	0	
15	0	0	0	0	505	465	0	0	0	0	
0	0	0	0	0	508	469	0	0	0	0	
1	0	0	0	0	511	473	0	0	0	0	
2	0	0	0	0	515	476	0	0	0	0	
3	0	0	0	0	519	478	0	0	0	0	
4	0	0	0	0	521	479	0	0	0	0	
5	0	0	0	0	522	478	0	0	0	0	
6	0	0	0	0	521	476	0	0	0	0	
7	0	0	0	0	519	472	0	0	0	0	
8	0	0	0	0	515	467	0	0	0	0	
9	0	0	0	0	510	460	0	0	0	0	
10	0	0	0	0	503	454	0	0	0	0	
11	0	0	0	0	495	447	0	0	0	0	
12	0	0	0	0	487	440	0	0	0	0	
13	0	0	0	0	480	434	0	0	0	0	
14	0	0	0	0	472	430	0	0	0	0	
15	0	0	0	0	466	425	0	0	0	0	
0	0	0	0	0	461	423	0	0	0	0	
1	0	0	0	0	459	422	0	0	0	0	
2	0	0	0	0	459	423	0	0	0	0	
3	0	0	0	0	461	425	0	0	0	0	
4	0	0	0	0	465	429	0	0	0	0	
5	0	0	0	0	472	434	0	0	0	0	
6	0	0	0	0	482	441	0	0	0	0	
7	0	0	0	0	493	448	0	0	0	0	
8	0	0	0	0	505	456	0	0	0	0	
9	0	0	0	0	516	464	0	0	0	0	
10	0	0	0	0	526	471	0	0	0	0	
11	0	0	0	0	535	476	0	0	0	0	
12	0	0	0	0	541	480	0	0	0	0	
13	0	0	0	0	543	481	0	0	0	0	
14	0	0	0	0	542	480	0	0	0	0	
15	0	0	0	0	536	476	0	0	0	0	
0	0	0	0	0	529	471	0	0	0	0	
1	0	0	0	0	520	465	0	0	0	0	
2	0	0	0	0	512	460	0	0	0	0	
3	0	0	0	0	505	458	0	0	0	0	
4	0	0	0	0	502	458	0	0	0	0	
5	0	0	0	0	503	461	0	0	0	0	
6	0	0	0	0	507	467	0	0	0	0	
7	0	0	0	0	514	476	0	0	0	0	
8	0	0	0	0	524	485	0	0	0	0	
9	0	0	0	0	535	495	0	0	0	0	
10	0	0	0	0	545	502	0	0	0	0	
11	0	0	0	0	554	508	0	0	0	0	
12	0	0	0	0	559	510	0	0	0	0	
13	0	0	0	0	561	508	0	0	0	0	
14	0	0	0	0	558	504	0	0	0	0	
15	0	0	0	0	552	496	0	0	0	0	
0	0	0	0	0	543	487	0	0	0	0	
1	0	0	0	0	532	477	0	0	0	0	
2	0	0	0	0	521	467	0	0	0	0	
3	0	0	0	0	510	460	0	0	0	0	
4	0	0	0	0	500	454	0	0	0	0	
5	0	0	0	0	494	451	0	0	0	0	
6	0	0	0	0	490	451	0	0	0	0	
7	0	0	0	0	488	452	0	0	0	0	
8	0	0	0	0	487	454	0	0	0	0	
9	0	0	0	0	487	455	0	0	0	0	
10	0	0	0	0	488	457	0	0	0	0	
11	0	0	0	0	489	457	0	0	0	0	
12	0	0	0	0	491	458	0	0	0	0	
13	0	0	0	0	492	457	0	0	0	0	
14	0	0	0	0	494	457	0	0	0	0	
15	0	0	0	0	497	457	0	0	0	0	
0	0	0	0	0	502	458	0	0	0	0	
1	0	0	0	0	507	460	0	0	0	0	
2	0	0	0	0	513	462	0	0	0	0	
3	0	0	0	0	519	464	0	0	0	0	
4	0	0	0	0	524	467	0	0	0	0	
5	0	0	0	0	528	468	0	0	0	0	
6	0	0	0	0	531	470	0	0	0	0	
7	0	0	0	0	531	470	0	0	0	0	
8	0	0	0	0	529	469	0	0	0	0	
9	0	0	0	0	526	468	0	0	0	0	
10	0	0	0	0	520	466	0	0	0	0	
11	0	0	0	0	515	464	0	0	0	0	
12	0	0	0	0	510	462	0	0	0	0	
13	0	0	0	0	505	461	0	0	0	0	
14	0	0	0	0	501	459	0	0	0	0	
15	0	0	0	0	499	457	0	0	0	0	
0	0	0	0	0	497	456	0	0	0	0	
1	0	0	0	0	495	455	0	0	0	0	
2	0	0	0	0	493	452	0	0	0	0	
3	0	0	0	0	492	449	0	0	0	0	
4	0	0	0	0	492	446	0	0	0	0	
5	0	0	0	0	491	444	0	0	0	0	
6	0	0	0	0	492	443	0	0	0	0	
7	0	0	0	0	496	444	0	0	0	0	
8	0	0	0	0	501	446	0	0	0	0	
9	0	0	0	0	507	450	0	0	0	0	
10	0	0	0	0	515	456	0	0	0	0	
11	0	0	0	0	522	463	0	0	0	0	
12	0	0	0	0	529	470	0	0	0	0	
13	0	0	0	0	534	475	0	0	0	0	
14	0	0	0	0	537	479	0	0	0	0	
15	0	0	0	0	537	481	0	0	0	0	
0	0	0	0	0	536	481	0	0	0	0	
1	0	0	0	0	531	480	0	0	0	0	
2	0	0	0	0	526	477	0	0	0	0	
3	0	0	0	0	519	473	0	0	0	0	
4	0	0	0	0	512	468	0	0	0	0	
5	0	0	0	0	505	463	0	0	0	0	
6	0	0	0	0	498	457	0	0	0	0	
7	0	0	0	0	493	452	0	0	0	0	
8	0	0	0	0	489	448	0	0	0	0	
9	0	0	0	0	486	444	0	0	0	0	
10	0	0	0	0	483	440	0	0	0	0	
11	0	0	0	0	482	438	0	0	0	0	
12	0	0	0	0	482	436	0	0	0	0	
13	0	0	0	0	483	435	0	0	0	0	
14	0	0	0	0	484	435	0	0	0	0	
15	0	0	0	0	487	436	0	0	0	0	
0	0	0	0	0	491	439	0	0	0	0	
1	0	0	0	0	496	443	0	0	0	0	
2	0	0	0	0	503	448	0	0	0	0	
3	0	0	0	0	511	455	0	0	0	0	
4	0	0	0	0	519	463	0	0	0	0	
5	0	0	0	0	527	472	0	0	0	0	
6	0	0	0	0	535	479	0	0	0	0	
7	0	0	0	0	540	484	0	0	0	0	
8	0	0	0	0	542	486	0	0	0	0	
9	0	0	0	0	541	487	0	0	0	0	
10	0	0	0	0	540	486	0	0	0	0	
11	0	0	0	0	536	482	0	0	0	0	
12	0	0	0	0	530	477	0	0	0	0	
13	0	0	0	0	524	472	0	0	0	0	
14	0	0	0	0	518	466	0	0	0	0	
15	0	0	0	0	511	460	0	0	0	0	
0	0	0	0	0	504	453	0	0	0	0	
1	0	0	0	0	498	446	0	0	0	0	
2	0	0	0	0	491	440	0	0	0	0	
3	0	0	0	0	483	432	0	0	0	0	
4	0	0	0	0	475	425	0	0	0	0	
5	0	0	0	0	468	418	0	0	0	0	
6	0	0	0	0	462	413	0	0	0	0	
7	0	0	0	0	458	410	0	0	0	0	
8	0	0	0	0	456	409	0	0	0	0	
9	0	0	0	0	458	411	0	0	0	0	
10	0	0	0	0	463	416	0	0	0	0	
11	0	0	0	0	471	423	0	0	0	0	
12	0	0	0	0	482	432	0	0	0	0	
13	0	0	0	0	494	443	0	0	0	0	
14	0	0	0	0	507	453	0	0	0	0	
15	0	0	0	0	519	463	0	0	0	0	
0	0	0	0	0	531	472	0	0	0	0	
1	0	0	0	0	540	480	0	0	0	0	
2	0	0	0	0	547	486	0	0	0	0	
3	0	0	0	0	551	489	0	0	0	0	
4	0	0	0	0	554	491	0	0	0	0	
5	0	0	0	0	552	490	0	0	0	0	
6	0	0	0	0	547	487	0	0	0	0	
7	0	0	0	0	539	482	0	0	0	0	
8	0	0	0	0	529	475	0	0	0	0	
9	0	0	0	0	516	466	0	0	0	0	
10	0	0	0	0	504	458	0	0	0	0	
11	0	0	0	0	491	450	0	0	0	0	
12	0	0	0	0	480	444	0	0	0	0	
13	0	0	0	0	474	440	0	0	0	0	
14	0	0	0	0	471	438	0	0	0	0	
15	0	0	0	0	471	439	0	0	0	0	
0	0	0	0	0	476	442	0	0	0	0	
1	0	0	0	0	483	447	0	0	0	0	
2	0	0	0	0	493	452	0	0	0	0	
3	0	0	0	0	505	459	0	0	0	0	
4	0	0	0	0	518	466	0	0	0	0	
5	0	0	0	0	531	472	0	0	0	0	
6	0	0	0	0	542	478	0	0	0	0	
7	0	0	0	0	550	482	0	0	0	0	
8	0	0	0	0	555	483	0	0	0	0	
9	0	0	0	0	556	483	0	0	0	0	
10	0	0	0	0	554	481	0	0	0	0	
11	0	0	0	0	548	478	0	0	0	0	
12	0	0	0	0	539	472	0	0	0	0	
13	0	0	0	0	528	466	0	0	0	0	
14	0	0	0	0	515	459	0	0	0	0	
15	0	0	0	0	504	452	0	0	0	0	
0	0	0	0	0	493	447	0	0	0	0	
1	0	0	0	0	483	441	0	0	0	0	
2	0	0	0	0	475	437	0	0	0	0	
3	0	0	0	0	469	434	0	0	0	0	
4	0	0	0	0	464	430	0	0	0	0	
5	0	0	0	0	461	428	0	0	0	0	
6	0	0	0	0	460	425	0	0	0	0	
7	0	0	0	0	460	423	0	0	0	0	
8	0	0	0	0	462	422	0	0	0	0	
9	0	0	0	0	464	421	0	0	0	0	
10	0	0	0	0	466	420	0	0	0	0	
11	0	0	0	0	467	418	0	0	0	0	
12	0	0	0	0	468	416	0	0	0	0	
13	0	0	0	0	468	414	0	0	0	0	
14	0	0	0	0	468	412	0	0	0	0	
15	0	0	0	0	468	412	0	0	0	0	
0	0	0	0	0	470	412	0	0	0	0	
1	0	0	0	0	471	414	0	0	0	0	
2	0	0	0	0	475	419	0	0	0	0	
3	0	0	0	0	479	424	0	0	0	0	
4	0	0	0	0	484	431	0	0	0	0	
5	0	0	0	0	491	438	0	0	0	0	
6	0	0	0	0	497	446	0	0	0	0	
7	0	0	0	0	504	453	0	0	0	0	
8	0	0	0	0	512	460	0	0	0	0	
9	0	0	0	0	519	467	0	0	0	0	
10	0	0	0	0	527	473	0	0	0	0	
11	0	0	0	0	533	477	0	0	0	0	
12	0	0	0	0	538	480	0	0	0	0	
13	0	0	0	0	540	480	0	0	0	0	
14	0	0	0	0	540	479	0	0	0	0	
15	0	0	0	0	536	474	0	0	0	0	
0	0	0	0	0	528	465	0	0	0	0	
1	0	0	0	0	515	452	0	0	0	0	
2	0	0	0	0	498	437	0	0	0	0	
3	0	0	0	0	477	418	0	0	0	0	
4	0	0	0	0	453	398	0	0	0	0	
5	0	0	0	0	429	377	0	0	0	0	
6	0	0	0	0	405	358	0	0	0	0	
7	0	0	0	0	382	339	0	0	0	0	
8	0	0	0	0	361	323	0	0	0	0	
9	0	0	0	0	344	309	0	0	0	0	
10	0	0	0	0	331	297	0	0	0	0	
11	0	0	0	0	321	289	0	0	0	0	
12	0	0	0	0	315	282	0	0	0	0	
13	0	0	0	0	311	277	0	0	0	0	
14	0	0	0	0	309	273	0	0	0	0	
15	0	0	0	0	309	270	0	0	0	0	
0	0	0	0	0	310	266	0	0	0	0	
1	0	0	0	0	309	260	0	0	0	0	
2	0	0	0	0	307	255	0	0	0	0	
3	0	0	0	0	305	247	0	0	0	0	
4	0	0	0	0	300	239	0	0	0	0	
5	0	0	0	0	295	231	0	0	0	0	
6	0	0	0	0	290	225	0	0	0	0	
7	0	0	0	0	286	220	0	0	0	0	
8	0	0	0	0	283	218	0	0	0	0	
9	0	0	0	0	284	220	0	0	0	0	
10	0	0	0	0	290	228	0	0	0	0	
11	0	0	0	0	301	241	0	0	0	0	
12	0	0	0	0	317	259	0	0	0	0	
13	0	0	0	0	339	282	0	0	0	0	
14	0	0	0	0	366	308	0	0	0	0	
15	0	0	0	0	396	337	0	0	0	0	
0	0	0	0	0	430	368	0	0	0	0	
1	0	0	0	0	464	400	0	0	0	0	
2	0	0	0	0	498	431	0	0	0	0	
3	0	0	0	0	530	459	0	0	0	0	
4	0	0	0	0	557	482	0	0	0	0	
5	0	0	0	0	578	500	0	0	0	0	
6	0	0	0	0	593	514	0	0	0	0	
7	0	0	0	0	600	521	0	0	0	0	
8	0	0	0	0	601	522	0	0	0	0	
9	0	0	0	0	595	518	0	0	0	0	
10	0	0	0	0	583	510	0	0	0	0	
11	0	0	0	0	566	499	0	0	0	0	
12	0	0	0	0	545	485	0	0	0	0	
13	0	0	0	0	524	470	0	0	0	0	
14	0	0	0	0	502	455	0	0	0	0	
15	0	0	0	0	482	442	0	0	0	0	
0	0	0	0	0	464	431	0	0	0	0	
1	0	0	0	0	451	421	0	0	0	0	
2	0	0	0	0	443	415	0	0	0	0	
3	0	0	0	0	439	412	0	0	0	0	
4	0	0	0	0	440	411	0	0	0	0	
5	0	0	0	0	447	414	0	0	0	0	
6	0	0	0	0	457	420	0	0	0	0	
7	0	0	0	0	472	428	0	0	0	0	
8	0	0	0	0	488	438	0	0	0	0	
9	0	0	0	0	506	449	0	0	0	0	
10	0	0	0	0	523	461	0	0	0	0	
11	0	0	0	0	538	472	0	0	0	0	
12	0	0	0	0	551	480	0	0	0	0	
13	0	0	0	0	560	487	0	0	0	0	
14	0	0	0	0	564	492	0	0	0	0	
15	0	0	0	0	564	493	0	0	0	0	
0	0	0	0	0	559	492	0	0	0	0	
1	0	0	0	0	551	488	0	0	0	0	
2	0	0	0	0	541	484	0	0	0	0	
3	0	0	0	0	529	479	0	0	0	0	
4	0	0	0	0	519	475	0	0	0	0	
5	0	0	0	0	510	472	0	0	0	0	
6	0	0	0	0	504	470	0	0	0	0	
7	0	0	0	0	502	469	0	0	0	0	
8	0	0	0	0	503	470	0	0	0	0	
9	0	0	0	0	507	472	0	0	0	0	
10	0	0	0	0	513	475	0	0	0	0	
11	0	0	0	0	521	477	0	0	0	0	
12	0	0	0	0	529	480	0	0	0	0	
13	0	0	0	0	535	480	0	0	0	0	
14	0	0	0	0	537	478	0	0	0	0	
15	0	0	0	0	538	474	0	0	0	0	
0	0	0	0	0	534	468	0	0	0	0	
1	0	0	0	0	527	460	0	0	0	0	
2	0	0	0	0	516	451	0	0	0	0	
3	0	0	0	0	504	441	0	0	0	0	
4	0	0	0	0	490	432	0	0	0	0	
5	0	0	0	0	478	423	0	0	0	0	
6	0	0	0	0	466	417	0	0	0	0	
7	0	0	0	0	457	413	0	0	0	0	
8	0	0	0	0	451	412	0	0	0	0	
9	0	0	0	0	449	412	0	0	0	0	
10	0	0	0	0	450	415	0	0	0	0	
11	0	0	0	0	454	420	0	0	0	0	
12	0	0	0	0	460	426	0	0	0	0	
13	0	0	0	0	468	431	0	0	0	0	
14	0	0	0	0	476	436	0	0	0	0	
15	0	0	0	0	484	440	0	0	0	0	
0	0	0	0	0	491	443	0	0	0	0	
1	0	0	0	0	498	444	0	0	0	0	
2	0	0	0	0	504	446	0	0	0	0	
3	0	0	0	0	508	448	0	0	0	0	
4	0	0	0	0	513	449	0	0	0	0	
5	0	0	0	0	516	451	0	0	0	0	
6	0	0	0	0	519	453	0	0	0	0	
7	0	0	0	0	521	455	0	0	0	0	
8	0	0	0	0	523	458	0	0	0	0	
9	0	0	0	0	523	460	0	0	0	0	
10	0	0	0	0	523	463	0	0	0	0	
11	0	0	0	0	522	464	0	0	0	0	
12	0	0	0	0	520	465	0	0	0	0	
13	0	0	0	0	519	465	0	0	0	0	
14	0	0	0	0	517	466	0	0	0	0	
15	0	0	0	0	516	465	0	0	0	0	
0	0	0	0	0	515	465	0	0	0	0	
1	0	0	0	0	515	465	0	0	0	0	
2	0	0	0	0	515	464	0	0	0	0	
3	0	0	0	0	516	464	0	0	0	0	
4	0	0	0	0	517	464	0	0	0	0	
5	0	0	0	0	519	464	0	0	0	0	
6	0	0	0	0	520	464	0	0	0	0	
7	0	0	0	0	522	465	0	0	0	0	
8	0	0	0	0	524	467	0	0	0	0	
9	0	0	0	0	527	469	0	0	0	0	
10	0	0	0	0	531	472	0	0	0	0	
11	0	0	0	0	534	476	0	0	0	0	
12	0	0	0	0	539	481	0	0	0	0	
13	0	0	0	0	543	486	0	0	0	0	
14	0	0	0	0	547	490	0	0	0	0	
15	0	0	0	0	550	494	0	0	0	0	
0	0	0	0	0	551	496	0	0	0	0	
1	0	0	0	0	550	496	0	0	0	0	
2	0	0	0	0	547	494	0	0	0	0	
3	0	0	0	0	542	491	0	0	0	0	
4	0	0	0	0	536	485	0	0	0	0	
5	0	0	0	0	530	480	0	0	0	0	
6	0	0	0	0	524	474	0	0	0	0	
7	0	0	0	0	519	469	0	0	0	0	
8	0	0	0	0	515	465	0	0	0	0	
9	0	0	0	0	512	462	0	0	0	0	
10	0	0	0	0	509	460	0	0	0	0	
11	0	0	0	0	508	458	0	0	0	0	
12	0	0	0	0	506	456	0	0	0	0	
13	0	0	0	0	504	455	0	0	0	0	
14	0	0	0	0	501	453	0	0	0	0	
15	0	0	0	0	499	452	0	0	0	0	
0	0	0	0	0	499	451	0	0	0	0	
1	0	0	0	0	499	452	0	0	0	0	
2	0	0	0	0	502	454	0	0	0	0	
3	0	0	0	0	504	456	0	0	0	0	
4	0	0	0	0	508	459	0	0	0	0	
5	0	0	0	0	511	460	0	0	0	0	
6	0	0	0	0	513	462	0	0	0	0	
7	0	0	0	0	515	463	0	0	0	0	
8	0	0	0	0	517	463	0	0	0	0	
9	0	0	0	0	518	463	0	0	0	0	
10	0	0	0	0	519	463	0	0	0	0	
11	0	0	0	0	520	463	0	0	0	0	
12	0	0	0	0	521	463	0	0	0	0	
13	0	0	0	0	521	461	0	0	0	0	
14	0	0	0	0	520	460	0	0	0	0	
15	0	0	0	0	519	457	0	0	0	0	
0	0	0	0	0	515	455	0	0	0	0	
1	0	0	0	0	512	452	0	0	0	0	
2	0	0	0	0	508	449	0	0	0	0	
3	0	0	0	0	504	447	0	0	0	0	
4	0	0	0	0	501	445	0	0	0	0	
5	0	0	0	0	498	444	0	0	0	0	
6	0	0	0	0	496	444	0	0	0	0	
7	0	0	0	0	494	444	0	0	0	0	
8	0	0	0	0	492	445	0	0	0	0	
9	0	0	0	0	490	445	0	0	0	0	
10	0	0	0	0	487	445	0	0	0	0	
11	0	0	0	0	485	444	0	0	0	0	
12	0	0	0	0	481	441	0	0	0	0	
13	0	0	0	0	478	438	0	0	0	0	
14	0	0	0	0	475	435	0	0	0	0	
15	0	0	0	0	475	433	0	0	0	0	
0	0	0	0	0	477	432	0	0	0	0	
1	0	0	0	0	480	433	0	0	0	0	
2	0	0	0	0	485	434	0	0	0	0	
3	0	0	0	0	491	435	0	0	0	0	
4	0	0	0	0	496	436	0	0	0	0	
5	0	0	0	0	500	438	0	0	0	0	
6	0	0	0	0	503	438	0	0	0	0	
7	0	0	0	0	503	437	0	0	0	0	
8	0	0	0	0	503	436	0	0	0	0	
9	0	0	0	0	501	436	0	0	0	0	
10	0	0	0	0	499	435	0	0	0	0	
11	0	0	0	0	497	436	0	0	0	0	
12	0	0	0	0	496	439	0	0	0	0	
13	0	0	0	0	496	443	0	0	0	0	
14	0	0	0	0	499	447	0	0	0	0	
15	0	0	0	0	503	454	0	0	0	0	
0	0	0	0	0	508	461	0	0	0	0	
1	0	0	0	0	515	469	0	0	0	0	
2	0	0	0	0	523	476	0	0	0	0	
3	0	0	0	0	530	483	0	0	0	0	
4	0	0	0	0	537	488	0	0	0	0	
5	0	0	0	0	541	491	0	0	0	0	
6	0	0	0	0	543	491	0	0	0	0	
7	0	0	0	0	543	488	0	0	0	0	
8	0	0	0	0	540	483	0	0	0	0	
9	0	0	0	0	534	476	0	0	0	0	
10	0	0	0	0	526	468	0	0	0	0	
11	0	0	0	0	517	460	0	0	0	0	
12	0	0	0	0	508	452	0	0	0	0	
13	0	0	0	0	500	446	0	0	0	0	
14	0	0	0	0	494	443	0	0	0	0	
15	0	0	0	0	492	443	0	0	0	0	
0	0	0	0	0	493	447	0	0	0	0	
1	0	0	0	0	498	454	0	0	0	0	
2	0	0	0	0	507	463	0	0	0	0	
3	0	0	0	0	519	474	0	0	0	0	
4	0	0	0	0	531	485	0	0	0	0	
5	0	0	0	0	542	495	0	0	0	0	
6	0	0	0	0	551	501	0	0	0	0	
7	0	0	0	0	559	505	0	0	0	0	
8	0	0	0	0	562	505	0	0	0	0	
9	0	0	0	0	562	503	0	0	0	0	
10	0	0	0	0	558	497	0	0	0	0	
11	0	0	0	0	549	488	0	0	0	0	
12	0	0	0	0	539	478	0	0	0	0	
13	0	0	0	0	525	466	0	0	0	0	
14	0	0	0	0	510	454	0	0	0	0	
15	0	0	0	0	494	441	0	0	0	0	
0	0	0	0	0	479	431	0	0	0	0	
1	0	0	0	0	465	422	0	0	0	0	
2	0	0	0	0	455	415	0	0	0	0	
3	0	0	0	0	450	413	0	0	0	0	
4	0	0	0	0	449	415	0	0	0	0	
5	0	0	0	0	456	423	0	0	0	0	
6	0	0	0	0	470	435	0	0	0	0	
7	0	0	0	0	490	452	0	0	0	0	
8	0	0	0	0	515	474	0	0	0	0	
9	0	0	0	0	544	497	0	0	0	0	
10	0	0	0	0	572	518	0	0	0	0	
11	0	0	0	0	596	535	0	0	0	0	
12	0	0	0	0	614	546	0	0	0	0	
13	0	0	0	0	623	549	0	0	0	0	
14	0	0	0	0	622	544	0	0	0	0	
15	0	0	0	0	612	532	0	0	0	0	
0	0	0	0	0	593	515	0	0	0	0	
1	0	0	0	0	568	494	0	0	0	0	
2	0	0	0	0	540	471	0	0	0	0	
3	0	0	0	0	509	448	0	0	0	0	
4	0	0	0	0	480	428	0	0	0	0	
5	0	0	0	0	454	410	0	0	0	0	
6	0	0	0	0	433	396	0	0	0	0	
7	0	0	0	0	418	388	0	0	0	0	
8	0	0	0	0	409	384	0	0	0	0	
9	0	0	0	0	408	384	0	0	0	0	
10	0	0	0	0	412	388	0	0	0	0	
11	0	0	0	0	423	396	0	0	0	0	
12	0	0	0	0	438	408	0	0	0	0	
13	0	0	0	0	456	420	0	0	0	0	
14	0	0	0	0	476	433	0	0	0	0	
15	0	0	0	0	496	445	0	0	0	0	
0	0	0	0	0	513	455	0	0	0	0	
1	0	0	0	0	528	464	0	0	0	0	
2	0	0	0	0	540	470	0	0	0	0	
3	0	0	0	0	547	475	0	0	0	0	
4	0	0	0	0	552	477	0	0	0	0	
5	0	0	0	0	553	478	0	0	0	0	
6	0	0	0	0	549	477	0	0	0	0	
7	0	0	0	0	542	473	0	0	0	0	
8	0	0	0	0	532	468	0	0	0	0	
9	0	0	0	0	519	461	0	0	0	0	
10	0	0	0	0	504	453	0	0	0	0	
11	0	0	0	0	488	444	0	0	0	0	
12	0	0	0	0	472	435	0	0	0	0	
13	0	0	0	0	458	426	0	0	0	0	
14	0	0	0	0	447	419	0	0	0	0	
15	0	0	0	0	440	414	0	0	0	0	
0	0	0	0	0	438	412	0	0	0	0	
1	0	0	0	0	442	414	0	0	0	0	
2	0	0	0	0	450	418	0	0	0	0	
3	0	0	0	0	462	425	0	0	0	0	
4	0	0	0	0	477	433	0	0	0	0	
5	0	0	0	0	494	442	0	0	0	0	
6	0	0	0	0	510	451	0	0	0	0	
7	0	0	0	0	524	458	0	0	0	0	
8	0	0	0	0	537	464	0	0	0	0	
9	0	0	0	0	545	468	0	0	0	0	
10	0	0	0	0	549	470	0	0	0	0	
11	0	0	0	0	548	470	0	0	0	0	
12	0	0	0	0	545	469	0	0	0	0	
13	0	0	0	0	540	467	0	0	0	0	
14	0	0	0	0	531	464	0	0	0	0	
15	0	0	0	0	524	463	0	0	0	0	
0	0	0	0	0	518	463	0	0	0	0	
1	0	0	0	0	514	465	0	0	0	0	
2	0	0	0	0	513	468	0	0	0	0	
3	0	0	0	0	514	472	0	0	0	0	
4	0	0	0	0	516	477	0	0	0	0	
5	0	0	0	0	520	481	0	0	0	0	
6	0	0	0	0	525	484	0	0	0	0	
7	0	0	0	0	529	487	0	0	0	0	
8	0	0	0	0	534	489	0	0	0	0	
9	0	0	0	0	537	490	0	0	0	0	
10	0	0	0	0	538	489	0	0	0	0	
11	0	0	0	0	537	487	0	0	0	0	
12	0	0	0	0	536	483	0	0	0	0	
13	0	0	0	0	532	479	0	0	0	0	
14	0	0	0	0	527	474	0	0	0	0	
15	0	0	0	0	523	470	0	0	0	0	
0	0	0	0	0	519	467	0	0	0	0	
1	0	0	0	0	517	465	0	0	0	0	
2	0	0	0	0	515	464	0	0	0	0	
3	0	0	0	0	514	463	0	0	0	0	
4	0	0	0	0	513	463	0	0	0	0	
5	0	0	0	0	512	463	0	0	0	0	
6	0	0	0	0	512	463	0	0	0	0	
7	0	0	0	0	511	463	0	0	0	0	
8	0	0	0	0	510	462	0	0	0	0	
9	0	0	0	0	508	460	0	0	0	0	
10	0	0	0	0	504	457	0	0	0	0	
11	0	0	0	0	500	453	0	0	0	0	
12	0	0	0	0	496	448	0	0	0	0	
13	0	0	0	0	490	442	0	0	0	0	
14	0	0	0	0	484	436	0	0	0	0	
15	0	0	0	0	479	431	0	0	0	0	
0	0	0	0	0	475	425	0	0	0	0	
1	0	0	0	0	471	422	0	0	0	0	
2	0	0	0	0	467	419	0	0	0	0	
3	0	0	0	0	466	418	0	0	0	0	
4	0	0	0	0	467	419	0	0	0	0	
5	0	0	0	0	469	422	0	0	0	0	
6	0	0	0	0	473	427	0	0	0	0	
7	0	0	0	0	480	435	0	0	0	0	
8	0	0	0	0	489	444	0	0	0	0	
9	0	0	0	0	500	455	0	0	0	0	
10	0	0	0	0	512	467	0	0	0	0	
11	0	0	0	0	526	480	0	0	0	0	
12	0	0	0	0	540	493	0	0	0	0	
13	0	0	0	0	553	504	0	0	0	0	
14	0	0	0	0	563	513	0	0	0	0	
15	0	0	0	0	571	519	0	0	0	0	
0	0	0	0	0	574	521	0	0	0	0	
1	0	0	0	0	573	519	0	0	0	0	
2	0	0	0	0	568	515	0	0	0	0	
3	0	0	0	0	560	507	0	0	0	0	
4	0	0	0	0	549	496	0	0	0	0	
5	0	0	0	0	534	483	0	0	0	0	
6	0	0	0	0	519	471	0	0	0	0	
7	0	0	0	0	505	458	0	0	0	0	
8	0	0	0	0	492	448	0	0	0	0	
9	0	0	0	0	482	440	0	0	0	0	
10	0	0	0	0	476	436	0	0	0	0	
11	0	0	0	0	473	435	0	0	0	0	
12	0	0	0	0	475	437	0	0	0	0	
13	0	0	0	0	479	440	0	0	0	0	
14	0	0	0	0	485	444	0	0	0	0	
15	0	0	0	0	493	450	0	0	0	0	
0	0	0	0	0	501	455	0	0	0	0	
1	0	0	0	0	509	459	0	0	0	0	
2	0	0	0	0	515	462	0	0	0	0	
3	0	0	0	0	519	463	0	0	0	0	
4	0	0	0	0	521	462	0	0	0	0	
5	0	0	0	0	521	459	0	0	0	0	
6	0	0	0	0	519	456	0	0	0	0	
7	0	0	0	0	515	451	0	0	0	0	
8	0	0	0	0	510	446	0	0	0	0	
9	0	0	0	0	503	441	0	0	0	0	
10	0	0	0	0	496	436	0	0	0	0	
11	0	0	0	0	488	432	0	0	0	0	
12	0	0	0	0	482	430	0	0	0	0	
13	0	0	0	0	479	429	0	0	0	0	
14	0	0	0	0	476	430	0	0	0	0	
15	0	0	0	0	476	432	0	0	0	0	
0	0	0	0	0	479	437	0	0	0	0	
1	0	0	0	0	486	444	0	0	0	0	
2	0	0	0	0	494	453	0	0	0	0	
3	0	0	0	0	505	463	0	0	0	0	
4	0	0	0	0	517	473	0	0	0	0	
5	0	0	0	0	530	482	0	0	0	0	
6	0	0	0	0	541	490	0	0	0	0	
7	0	0	0	0	551	496	0	0	0	0	
8	0	0	0	0	558	500	0	0	0	0	
9	0	0	0	0	563	502	0	0	0	0	
10	0	0	0	0	567	504	0	0	0	0	
11	0	0	0	0	568	504	0	0	0	0	
12	0	0	0	0	569	504	0	0	0	0	
13	0	0	0	0	566	502	0	0	0	0	
14	0	0	0	0	560	498	0	0	0	0	
15	0	0	0	0	552	493	0	0	0	0	
0	0	0	0	0	541	485	0	0	0	0	
1	0	0	0	0	527	476	0	0	0	0	
2	0	0	0	0	512	465	0	0	0	0	
3	0	0	0	0	497	455	0	0	0	0	
4	0	0	0	0	483	446	0	0	0	0	
5	0	0	0	0	474	438	0	0	0	0	
6	0	0	0	0	467	433	0	0	0	0	
7	0	0	0	0	465	431	0	0	0	0	
8	0	0	0	0	468	432	0	0	0	0	
9	0	0	0	0	473	435	0	0	0	0	
10	0	0	0	0	482	440	0	0	0	0	
11	0	0	0	0	493	445	0	0	0	0	
12	0	0	0	0	504	451	0	0	0	0	
13	0	0	0	0	515	457	0	0	0	0	
14	0	0	0	0	524	462	0	0	0	0	
15	0	0	0	0	531	466	0	0	0	0	
0	0	0	0	0	535	468	0	0	0	0	
1	0	0	0	0	536	470	0	0	0	0	
2	0	0	0	0	534	469	0	0	0	0	
3	0	0	0	0	529	466	0	0	0	0	
4	0	0	0	0	522	462	0	0	0	0	
5	0	0	0	0	513	458	0	0	0	0	
6	0	0	0	0	504	454	0	0	0	0	
7	0	0	0	0	496	449	0	0	0	0	
8	0	0	0	0	489	447	0	0	0	0	
9	0	0	0	0	486	446	0	0	0	0	
10	0	0	0	0	485	447	0	0	0	0	
11	0	0	0	0	487	449	0	0	0	0	
12	0	0	0	0	492	452	0	0	0	0	
13	0	0	0	0	498	456	0	0	0	0	
14	0	0	0	0	505	460	0	0	0	0	
15	0	0	0	0	514	464	0	0	0	0	
0	0	0	0	0	521	468	0	0	0	0	
1	0	0	0	0	528	471	0	0	0	0	
2	0	0	0	0	534	473	0	0	0	0	
3	0	0	0	0	537	474	0	0	0	0	
4	0	0	0	0	539	474	0	0	0	0	
5	0	0	0	0	537	473	0	0	0	0	
6	0	0	0	0	533	471	0	0	0	0	
7	0	0	0	0	527	467	0	0	0	0	
8	0	0	0	0	519	463	0	0	0	0	
9	0	0	0	0	508	457	0	0	0	0	
10	0	0	0	0	497	451	0	0	0	0	
11	0	0	0	0	486	445	0	0	0	0	
12	0	0	0	0	476	439	0	0	0	0	
13	0	0	0	0	467	435	0	0	0	0	
14	0	0	0	0	464	433	0	0	0	0	
15	0	0	0	0	463	433	0	0	0	0	
0	0	0	0	0	465	435	0	0	0	0	
1	0	0	0	0	471	440	0	0	0	0	
2	0	0	0	0	481	446	0	0	0	0	
3	0	0	0	0	496	454	0	0	0	0	
4	0	0	0	0	511	464	0	0	0	0	
5	0	0	0	0	528	475	0	0	0	0	
6	0	0	0	0	545	485	0	0	0	0	
7	0	0	0	0	560	494	0	0	0	0	
8	0	0	0	0	572	502	0	0	0	0	
9	0	0	0	0	579	505	0	0	0	0	
10	0	0	0	0	581	506	0	0	0	0	
11	0	0	0	0	578	504	0	0	0	0	
12	0	0	0	0	571	499	0	0	0	0	
13	0	0	0	0	559	491	0	0	0	0	
14	0	0	0	0	544	483	0	0	0	0	
15	0	0	0	0	527	472	0	0	0	0	
0	0	0	0	0	508	462	0	0	0	0	
1	0	0	0	0	491	451	0	0	0	0	
2	0	0	0	0	475	441	0	0	0	0	
3	0	0	0	0	463	434	0	0	0	0	
4	0	0	0	0	455	430	0	0	0	0	
5	0	0	0	0	452	428	0	0	0	0	
6	0	0	0	0	455	428	0	0	0	0	
7	0	0	0	0	460	431	0	0	0	0	
8	0	0	0	0	467	433	0	0	0	0	
9	0	0	0	0	476	436	0	0	0	0	
10	0	0	0	0	484	438	0	0	0	0	
11	0	0	0	0	491	438	0	0	0	0	
12	0	0	0	0	495	437	0	0	0	0	
13	0	0	0	0	497	435	0	0	0	0	
14	0	0	0	0	497	432	0	0	0	0	
15	0	0	0	0	495	428	0	0	0	0	
0	0	0	0	0	492	425	0	0	0	0	
1	0	0	0	0	489	424	0	0	0	0	
2	0	0	0	0	487	423	0	0	0	0	
3	0	0	0	0	486	425	0	0	0	0	
4	0	0	0	0	486	429	0	0	0	0	
5	0	0	0	0	488	435	0	0	0	0	
6	0	0	0	0	493	443	0	0	0	0	
7	0	0	0	0	500	452	0	0	0	0	
8	0	0	0	0	510	463	0	0	0	0	
9	0	0	0	0	520	474	0	0	0	0	
10	0	0	0	0	531	484	0	0	0	0	
11	0	0	0	0	543	494	0	0	0	0	
12	0	0	0	0	552	502	0	0	0	0	
13	0	0	0	0	559	507	0	0	0	0	
14	0	0	0	0	563	509	0	0	0	0	
15	0	0	0	0	564	508	0	0	0	0	
0	0	0	0	0	561	504	0	0	0	0	
1	0	0	0	0	555	498	0	0	0	0	
2	0	0	0	0	547	491	0	0	0	0	
3	0	0	0	0	535	482	0	0	0	0	
4	0	0	0	0	522	472	0	0	0	0	
5	0	0	0	0	508	461	0	0	0	0	
6	0	0	0	0	493	451	0	0	0	0	
7	0	0	0	0	479	440	0	0	0	0	
8	0	0	0	0	466	431	0	0	0	0	
9	0	0	0	0	456	423	0	0	0	0	
10	0	0	0	0	449	419	0	0	0	0	
11	0	0	0	0	447	417	0	0	0	0	
12	0	0	0	0	448	417	0	0	0	0	
13	0	0	0	0	452	420	0	0	0	0	
14	0	0	0	0	462	424	0	0	0	0	
15	0	0	0	0	473	432	0	0	0	0	
0	0	0	0	0	486	439	0	0	0	0	
1	0	0	0	0	500	448	0	0	0	0	
2	0	0	0	0	513	456	0	0	0	0	
3	0	0	0	0	525	463	0	0	0	0	
4	0	0	0	0	532	466	0	0	0	0	
5	0	0	0	0	534	467	0	0	0	0	
6	0	0	0	0	530	463	0	0	0	0	
7	0	0	0	0	520	456	0	0	0	0	
8	0	0	0	0	507	446	0	0	0	0	
9	0	0	0	0	491	436	0	0	0	0	
10	0	0	0	0	474	427	0	0	0	0	
11	0	0	0	0	460	419	0	0	0	0	
12	0	0	0	0	449	414	0	0	0	0	
13	0	0	0	0	443	412	0	0	0	0	
14	0	0	0	0	442	414	0	0	0	0	
15	0	0	0	0	447	419	0	0	0	0	
0	0	0	0	0	456	427	0	0	0	0	
1	0	0	0	0	470	436	0	0	0	0	
2	0	0	0	0	487	448	0	0	0	0	
3	0	0	0	0	507	460	0	0	0	0	
4	0	0	0	0	527	473	0	0	0	0	
5	0	0	0	0	547	485	0	0	0	0	
6	0	0	0	0	563	496	0	0	0	0	
7	0	0	0	0	576	503	0	0	0	0	
8	0	0	0	0	583	508	0	0	0	0	
9	0	0	0	0	585	508	0	0	0	0	
10	0	0	0	0	582	506	0	0	0	0	
11	0	0	0	0	574	502	0	0	0	0	
12	0	0	0	0	563	496	0	0	0	0	
13	0	0	0	0	550	489	0	0	0	0	
14	0	0	0	0	535	481	0	0	0	0	
15	0	0	0	0	521	474	0	0	0	0	
0	0	0	0	0	508	467	0	0	0	0	
1	0	0	0	0	499	463	0	0	0	0	
2	0	0	0	0	492	460	0	0	0	0	
3	0	0	0	0	489	459	0	0	0	0	
4	0	0	0	0	489	458	0	0	0	0	
5	0	0	0	0	491	459	0	0	0	0	
6	0	0	0	0	496	462	0	0	0	0	
7	0	0	0	0	501	463	0	0	0	0	
8	0	0	0	0	506	464	0	0	0	0	
9	0	0	0	0	510	463	0	0	0	0	
10	0	0	0	0	512	463	0	0	0	0	
11	0	0	0	0	513	461	0	0	0	0	
12	0	0	0	0	513	458	0	0	0	0	
13	0	0	0	0	510	454	0	0	0	0	
14	0	0	0	0	505	448	0	0	0	0	
15	0	0	0	0	498	442	0	0	0	0	
0	0	0	0	0	489	435	0	0	0	0	
1	0	0	0	0	479	427	0	0	0	0	
2	0	0	0	0	470	419	0	0	0	0	
3	0	0	0	0	460	412	0	0	0	0	
4	0	0	0	0	452	407	0	0	0	0	
5	0	0	0	0	446	403	0	0	0	0	
6	0	0	0	0	443	402	0	0	0	0	
7	0	0	0	0	443	404	0	0	0	0	
8	0	0	0	0	448	408	0	0	0	0	
9	0	0	0	0	456	416	0	0	0	0	
10	0	0	0	0	469	427	0	0	0	0	
11	0	0	0	0	484	439	0	0	0	0	
12	0	0	0	0	502	452	0	0	0	0	
13	0	0	0	0	519	465	0	0	0	0	
14	0	0	0	0	536	477	0	0	0	0	
15	0	0	0	0	551	487	0	0	0	0	
0	0	0	0	0	562	495	0	0	0	0	
1	0	0	0	0	567	498	0	0	0	0	
2	0	0	0	0	568	498	0	0	0	0	
3	0	0	0	0	561	493	0	0	0	0	
4	0	0	0	0	548	483	0	0	0	0	
5	0	0	0	0	531	470	0	0	0	0	
6	0	0	0	0	509	454	0	0	0	0	
7	0	0	0	0	483	435	0	0	0	0	
8	0	0	0	0	458	416	0	0	0	0	
9	0	0	0	0	433	398	0	0	0	0	
10	0	0	0	0	411	382	0	0	0	0	
11	0	0	0	0	392	367	0	0	0	0	
12	0	0	0	0	376	353	0	0	0	0	
13	0	0	0	0	362	340	0	0	0	0	
14	0	0	0	0	352	327	0	0	0	0	
15	0	0	0	0	343	316	0	0	0	0	
0	0	0	0	0	335	303	0	0	0	0	
1	0	0	0	0	328	290	0	0	0	0	
2	0	0	0	0	319	276	0	0	0	0	
3	0	0	0	0	310	261	0	0	0	0	
4	0	0	0	0	298	245	0	0	0	0	
5	0	0	0	0	287	231	0	0	0	0	
6	0	0	0	0	277	218	0	0	0	0	
7	0	0	0	0	269	209	0	0	0	0	
8	0	0	0	0	265	204	0	0	0	0	
9	0	0	0	0	266	205	0	0	0	0	
10	0	0	0	0	272	212	0	0	0	0	
11	0	0	0	0	283	223	0	0	0	0	
12	0	0	0	0	299	239	0	0	0	0	
13	0	0	0	0	319	259	0	0	0	0	
14	0	0	0	0	343	281	0	0	0	0	
15	0	0	0	0	369	305	0	0	0	0	
0	0	0	0	0	396	330	0	0	0	0	
1	0	0	0	0	423	354	0	0	0	0	
2	0	0	0	0	448	377	0	0	0	0	
3	0	0	0	0	471	400	0	0	0	0	
4	0	0	0	0	492	420	0	0	0	0	
5	0	0	0	0	511	440	0	0	0	0	
6	0	0	0	0	528	458	0	0	0	0	
7	0	0	0	0	544	475	0	0	0	0	
8	0	0	0	0	558	489	0	0	0	0	
9	0	0	0	0	569	502	0	0	0	0	
10	0	0	0	0	577	512	0	0	0	0	
11	0	0	0	0	583	520	0	0	0	0	
12	0	0	0	0	587	526	0	0	0	0	
13	0	0	0	0	587	527	0	0	0	0	
14	0	0	0	0	583	526	0	0	0	0	
15	0	0	0	0	575	520	0	0	0	0	
0	0	0	0	0	563	512	0	0	0	0	
1	0	0	0	0	550	500	0	0	0	0	
2	0	0	0	0	534	487	0	0	0	0	
3	0	0	0	0	518	474	0	0	0	0	
4	0	0	0	0	503	461	0	0	0	0	
5	0	0	0	0	489	449	0	0	0	0	
6	0	0	0	0	478	439	0	0	0	0	
7	0	0	0	0	470	431	0	0	0	0	
8	0	0	0	0	465	427	0	0	0	0	
9	0	0	0	0	465	425	0	0	0	0	
10	0	0	0	0	469	427	0	0	0	0	
11	0	0	0	0	475	431	0	0	0	0	
12	0	0	0	0	485	437	0	0	0	0	
13	0	0	0	0	495	444	0	0	0	0	
14	0	0	0	0	504	451	0	0	0	0	
15	0	0	0	0	511	457	0	0	0	0	
0	0	0	0	0	518	463	0	0	0	0	
1	0	0	0	0	522	467	0	0	0	0	
2	0	0	0	0	525	471	0	0	0	0	
3	0	0	0	0	526	474	0	0	0	0	
4	0	0	0	0	527	476	0	0	0	0	
5	0	0	0	0	527	479	0	0	0	0	
6	0	0	0	0	530	484	0	0	0	0	
7	0	0	0	0	535	489	0	0	0	0	
8	0	0	0	0	540	495	0	0	0	0	
9	0	0	0	0	545	501	0	0	0	0	
10	0	0	0	0	551	506	0	0	0	0	
11	0	0	0	0	558	511	0	0	0	0	
12	0	0	0	0	564	515	0	0	0	0	
13	0	0	0	0	568	517	0	0	0	0	
14	0	0	0	0	572	519	0	0	0	0	
15	0	0	0	0	575	520	0	0	0	0	
0	0	0	0	0	577	520	0	0	0	0	
1	0	0	0	0	577	519	0	0	0	0	
2	0	0	0	0	575	517	0	0	0	0	
3	0	0	0	0	570	512	0	0	0	0	
4	0	0	0	0	561	505	0	0	0	0	
5	0	0	0	0	550	496	0	0	0	0	
6	0	0	0	0	537	486	0	0	0	0	
7	0	0	0	0	524	476	0	0	0	0	
8	0	0	0	0	511	467	0	0	0	0	
9	0	0	0	0	502	460	0	0	0	0	
10	0	0	0	0	495	456	0	0	0	0	
11	0	0	0	0	492	454	0	0	0	0	
12	0	0	0	0	491	454	0	0	0	0	
13	0	0	0	0	494	455	0	0	0	0	
14	0	0	0	0	499	457	0	0	0	0	
15	0	0	0	0	505	461	0	0	0	0	
0	0	0	0	0	512	464	0	0	0	0	
1	0	0	0	0	519	466	0	0	0	0	
2	0	0	0	0	524	468	0	0	0	0	
3	0	0	0	0	526	468	0	0	0	0	
4	0	0	0	0	527	467	0	0	0	0	
5	0	0	0	0	526	465	0	0	0	0	
6	0	0	0	0	524	463	0	0	0	0	
7	0	0	0	0	520	461	0	0	0	0	
8	0	0	0	0	516	460	0	0	0	0	
9	0	0	0	0	513	459	0	0	0	0	
10	0	0	0	0	511	460	0	0	0	0	
11	0	0	0	0	511	462	0	0	0	0	
12	0	0	0	0	512	464	0	0	0	0	
13	0	0	0	0	515	469	0	0	0	0	
14	0	0	0	0	522	475	0	0	0	0	
15	0	0	0	0	530	481	0	0	0	0	
0	0	0	0	0	540	489	0	0	0	0	
1	0	0	0	0	550	497	0	0	0	0	
2	0	0	0	0	561	504	0	0	0	0	
3	0	0	0	0	571	511	0	0	0	0	
4	0	0	0	0	580	517	0	0	0	0	
5	0	0	0	0	588	521	0	0	0	0	
6	0	0	0	0	594	526	0	0	0	0	
7	0	0	0	0	597	527	0	0	0	0	
8	0	0	0	0	597	527	0	0	0	0	
9	0	0	0	0	595	525	0	0	0	0	
10	0	0	0	0	590	522	0	0	0	0	
11	0	0	0	0	582	517	0	0	0	0	
12	0	0	0	0	571	510	0	0	0	0	
13	0	0	0	0	558	502	0	0	0	0	
14	0	0	0	0	544	493	0	0	0	0	
15	0	0	0	0	529	483	0	0	0	0	
0	0	0	0	0	517	474	0	0	0	0	
1	0	0	0	0	506	468	0	0	0	0	
2	0	0	0	0	499	463	0	0	0	0	
3	0	0	0	0	496	461	0	0	0	0	
4	0	0	0	0	496	461	0	0	0	0	
5	0	0	0	0	499	463	0	0	0	0	
6	0	0	0	0	506	467	0	0	0	0	
7	0	0	0	0	515	471	0	0	0	0	
8	0	0	0	0	524	475	0	0	0	0	
9	0	0	0	0	532	479	0	0	0	0	
10	0	0	0	0	538	481	0	0	0	0	
11	0	0	0	0	543	481	0	0	0	0	
12	0	0	0	0	545	480	0	0	0	0	
13	0	0	0	0	545	479	0	0	0	0	
14	0	0	0	0	543	477	0	0	0	0	
15	0	0	0	0	540	475	0	0	0	0	
0	0	0	0	0	537	474	0	0	0	0	
1	0	0	0	0	535	474	0	0	0	0	
2	0	0	0	0	532	475	0	0	0	0	
3	0	0	0	0	530	477	0	0	0	0	
4	0	0	0	0	529	479	0	0	0	0	
5	0	0	0	0	527	483	0	0	0	0	
6	0	0	0	0	528	485	0	0	0	0	
7	0	0	0	0	528	488	0	0	0	0	
8	0	0	0	0	530	492	0	0	0	0	
9	0	0	0	0	533	496	0	0	0	0	
10	0	0	0	0	538	501	0	0	0	0	
11	0	0	0	0	546	507	0	0	0	0	
12	0	0	0	0	555	514	0	0	0	0	
13	0	0	0	0	565	521	0	0	0	0	
14	0	0	0	0	575	527	0	0	0	0	
15	0	0	0	0	583	530	0	0	0	0	
0	0	0	0	0	588	532	0	0	0	0	
1	0	0	0	0	590	531	0	0	0	0	
2	0	0	0	0	588	527	0	0	0	0	
3	0	0	0	0	583	521	0	0	0	0	
4	0	0	0	0	574	512	0	0	0	0	
5	0	0	0	0	563	504	0	0	0	0	
6	0	0	0	0	551	496	0	0	0	0	
7	0	0	0	0	540	489	0	0	0	0	
8	0	0	0	0	530	483	0	0	0	0	
9	0	0	0	0	521	479	0	0	0	0	
10	0	0	0	0	515	475	0	0	0	0	
11	0	0	0	0	509	472	0	0	0	0	
12	0	0	0	0	506	470	0	0	0	0	
13	0	0	0	0	504	468	0	0	0	0	
14	0	0	0	0	504	466	0	0	0	0	
15	0	0	0	0	506	465	0	0	0	0	
0	0	0	0	0	507	463	0	0	0	0	
1	0	0	0	0	508	461	0	0	0	0	
2	0	0	0	0	509	459	0	0	0	0	
3	0	0	0	0	509	457	0	0	0	0	
4	0	0	0	0	510	455	0	0	0	0	
5	0	0	0	0	511	455	0	0	0	0	
6	0	0	0	0	513	457	0	0	0	0	
7	0	0	0	0	515	460	0	0	0	0	
8	0	0	0	0	519	464	0	0	0	0	
9	0	0	0	0	522	470	0	0	0	0	
10	0	0	0	0	525	474	0	0	0	0	
11	0	0	0	0	527	478	0	0	0	0	
12	0	0	0	0	528	481	0	0	0	0	
13	0	0	0	0	528	483	0	0	0	0	
14	0	0	0	0	528	483	0	0	0	0	
15	0	0	0	0	528	483	0	0	0	0	
0	0	0	0	0	527	483	0	0	0	0	
1	0	0	0	0	527	481	0	0	0	0	
2	0	0	0	0	527	481	0	0	0	0	
3	0	0	0	0	529	481	0	0	0	0	
4	0	0	0	0	533	483	0	0	0	0	
5	0	0	0	0	537	486	0	0	0	0	
6	0	0	0	0	543	491	0	0	0	0	
7	0	0	0	0	550	495	0	0	0	0	
8	0	0	0	0	556	498	0	0	0	0	
9	0	0	0	0	560	500	0	0	0	0	
10	0	0	0	0	561	500	0	0	0	0	
11	0	0	0	0	560	499	0	0	0	0	
12	0	0	0	0	555	495	0	0	0	0	
13	0	0	0	0	549	491	0	0	0	0	
14	0	0	0	0	541	486	0	0	0	0	
15	0	0	0	0	534	482	0	0	0	0	
0	0	0	0	0	526	479	0	0	0	0	
1	0	0	0	0	522	477	0	0	0	0	
2	0	0	0	0	520	478	0	0	0	0	
3	0	0	0	0	520	480	0	0	0	0	
4	0	0	0	0	523	482	0	0	0	0	
5	0	0	0	0	527	486	0	0	0	0	
6	0	0	0	0	531	489	0	0	0	0	
7	0	0	0	0	536	492	0	0	0	0	
8	0	0	0	0	540	493	0	0	0	0	
9	0	0	0	0	542	494	0	0	0	0	
10	0	0	0	0	542	492	0	0	0	0	
11	0	0	0	0	540	488	0	0	0	0	
12	0	0	0	0	536	482	0	0	0	0	
13	0	0	0	0	529	476	0	0	0	0	
14	0	0	0	0	521	468	0	0	0	0	
15	0	0	0	0	512	461	0	0	0	0	
0	0	0	0	0	504	455	0	0	0	0	
1	0	0	0	0	496	449	0	0	0	0	
2	0	0	0	0	490	445	0	0	0	0	
3	0	0	0	0	486	443	0	0	0	0	
4	0	0	0	0	483	443	0	0	0	0	
5	0	0	0	0	485	445	0	0	0	0	
6	0	0	0	0	489	449	0	0	0	0	
7	0	0	0	0	496	455	0	0	0	0	
8	0	0	0	0	505	462	0	0	0	0	
9	0	0	0	0	513	469	0	0	0	0	
10	0	0	0	0	523	475	0	0	0	0	
11	0	0	0	0	531	480	0	0	0	0	
12	0	0	0	0	537	483	0	0	0	0	
13	0	0	0	0	541	485	0	0	0	0	
14	0	0	0	0	542	485	0	0	0	0	
15	0	0	0	0	541	483	0	0	0	0	
0	0	0	0	0	538	480	0	0	0	0	
1	0	0	0	0	535	477	0	0	0	0	
2	0	0	0	0	531	475	0	0	0	0	
3	0	0	0	0	528	474	0	0	0	0	
4	0	0	0	0	528	475	0	0	0	0	
5	0	0	0	0	531	480	0	0	0	0	
6	0	0	0	0	536	487	0	0	0	0	
7	0	0	0	0	543	495	0	0	0	0	
8	0	0	0	0	551	503	0	0	0	0	
9	0	0	0	0	558	511	0	0	0	0	
10	0	0	0	0	565	518	0	0	0	0	
11	0	0	0	0	571	523	0	0	0	0	
12	0	0	0	0	576	527	0	0	0	0	
13	0	0	0	0	579	529	0	0	0	0	
14	0	0	0	0	580	529	0	0	0	0	
15	0	0	0	0	579	527	0	0	0	0	
0	0	0	0	0	575	521	0	0	0	0	
1	0	0	0	0	568	514	0	0	0	0	
2	0	0	0	0	559	504	0	0	0	0	
3	0	0	0	0	547	492	0	0	0	0	
4	0	0	0	0	535	479	0	0	0	0	
5	0	0	0	0	520	464	0	0	0	0	
6	0	0	0	0	504	450	0	0	0	0	
7	0	0	0	0	488	435	0	0	0	0	
8	0	0	0	0	473	424	0	0	0	0	
9	0	0	0	0	461	414	0	0	0	0	
10	0	0	0	0	451	407	0	0	0	0	
11	0	0	0	0	444	402	0	0	0	0	
12	0	0	0	0	440	401	0	0	0	0	
13	0	0	0	0	440	403	0	0	0	0	
14	0	0	0	0	445	407	0	0	0	0	
15	0	0	0	0	453	415	0	0	0	0	
0	0	0	0	0	464	424	0	0	0	0	
1	0	0	0	0	478	434	0	0	0	0	
2	0	0	0	0	493	446	0	0	0	0	
3	0	0	0	0	508	456	0	0	0	0	
4	0	0	0	0	521	465	0	0	0	0	
5	0	0	0	0	532	472	0	0	0	0	
6	0	0	0	0	540	477	0	0	0	0	
7	0	0	0	0	545	480	0	0	0	0	
8	0	0	0	0	547	481	0	0	0	0	
9	0	0	0	0	546	480	0	0	0	0	
10	0	0	0	0	543	478	0	0	0	0	
11	0	0	0	0	536	475	0	0	0	0	
12	0	0	0	0	530	472	0	0	0	0	
13	0	0	0	0	523	469	0	0	0	0	
14	0	0	0	0	515	467	0	0	0	0	
15	0	0	0	0	508	464	0	0	0	0	
0	0	0	0	0	503	463	0	0	0	0	
1	0	0	0	0	499	462	0	0	0	0	
2	0	0	0	0	496	462	0	0	0	0	
3	0	0	0	0	496	463	0	0	0	0	
4	0	0	0	0	498	465	0	0	0	0	
5	0	0	0	0	501	468	0	0	0	0	
6	0	0	0	0	507	472	0	0	0	0	
7	0	0	0	0	514	476	0	0	0	0	
8	0	0	0	0	523	482	0	0	0	0	
9	0	0	0	0	533	489	0	0	0	0	
10	0	0	0	0	545	497	0	0	0	0	
11	0	0	0	0	558	505	0	0	0	0	
12	0	0	0	0	569	513	0	0	0	0	
13	0	0	0	0	579	520	0	0	0	0	
14	0	0	0	0	587	526	0	0	0	0	
15	0	0	0	0	591	529	0	0	0	0	
0	0	0	0	0	593	530	0	0	0	0	
1	0	0	0	0	591	529	0	0	0	0	
2	0	0	0	0	584	525	0	0	0	0	
3	0	0	0	0	575	519	0	0	0	0	
4	0	0	0	0	563	511	0	0	0	0	
5	0	0	0	0	550	502	0	0	0	0	
6	0	0	0	0	535	492	0	0	0	0	
7	0	0	0	0	520	481	0	0	0	0	
8	0	0	0	0	506	471	0	0	0	0	
9	0	0	0	0	493	461	0	0	0	0	
10	0	0	0	0	483	452	0	0	0	0	
11	0	0	0	0	475	445	0	0	0	0	
12	0	0	0	0	471	440	0	0	0	0	
13	0	0	0	0	470	436	0	0	0	0	
14	0	0	0	0	472	436	0	0	0	0	
15	0	0	0	0	480	438	0	0	0	0	
0	0	0	0	0	491	444	0	0	0	0	
1	0	0	0	0	504	452	0	0	0	0	
2	0	0	0	0	520	463	0	0	0	0	
3	0	0	0	0	537	475	0	0	0	0	
4	0	0	0	0	553	486	0	0	0	0	
5	0	0	0	0	566	496	0	0	0	0	
6	0	0	0	0	575	504	0	0	0	0	
7	0	0	0	0	579	508	0	0	0	0	
8	0	0	0	0	579	509	0	0	0	0	
9	0	0	0	0	573	507	0	0	0	0	
10	0	0	0	0	563	501	0	0	0	0	
11	0	0	0	0	550	493	0	0	0	0	
12	0	0	0	0	536	484	0	0	0	0	
13	0	0	0	0	522	475	0	0	0	0	
14	0	0	0	0	509	466	0	0	0	0	
15	0	0	0	0	498	458	0	0	0	0	
0	0	0	0	0	490	451	0	0	0	0	
1	0	0	0	0	485	446	0	0	0	0	
2	0	0	0	0	483	444	0	0	0	0	
3	0	0	0	0	485	443	0	0	0	0	
4	0	0	0	0	489	444	0	0	0	0	
5	0	0	0	0	495	446	0	0	0	0	
6	0	0	0	0	501	449	0	0	0	0	
7	0	0	0	0	508	453	0	0	0	0	
8	0	0	0	0	514	456	0	0	0	0	
9	0	0	0	0	519	460	0	0	0	0	
10	0	0	0	0	522	463	0	0	0	0	
11	0	0	0	0	524	464	0	0	0	0	
12	0	0	0	0	523	465	0	0	0	0	
13	0	0	0	0	520	465	0	0	0	0	
14	0	0	0	0	519	464	0	0	0	0	
15	0	0	0	0	516	463	0	0	0	0	
0	0	0	0	0	515	463	0	0	0	0	
1	0	0	0	0	514	463	0	0	0	0	
2	0	0	0	0	515	464	0	0	0	0	
3	0	0	0	0	519	466	0	0	0	0	
4	0	0	0	0	523	468	0	0	0	0	
5	0	0	0	0	527	471	0	0	0	0	
6	0	0	0	0	531	474	0	0	0	0	
7	0	0	0	0	536	476	0	0	0	0	
8	0	0	0	0	541	479	0	0	0	0	
9	0	0	0	0	543	481	0	0	0	0	
10	0	0	0	0	544	482	0	0	0	0	
11	0	0	0	0	543	482	0	0	0	0	
12	0	0	0	0	541	482	0	0	0	0	
13	0	0	0	0	539	482	0	0	0	0	
14	0	0	0	0	536	482	0	0	0	0	
15	0	0	0	0	534	482	0	0	0	0	
0	0	0	0	0	531	483	0	0	0	0	
1	0	0	0	0	529	482	0	0	0	0	
2	0	0	0	0	526	481	0	0	0	0	
3	0	0	0	0	523	480	0	0	0	0	
4	0	0	0	0	520	478	0	0	0	0	
5	0	0	0	0	518	476	0	0	0	0	
6	0	0	0	0	517	474	0	0	0	0	
7	0	0	0	0	516	471	0	0	0	0	
8	0	0	0	0	516	470	0	0	0	0	
9	0	0	0	0	516	468	0	0	0	0	
10	0	0	0	0	518	468	0	0	0	0	
11	0	0	0	0	519	469	0	0	0	0	
12	0	0	0	0	523	471	0	0	0	0	
13	0	0	0	0	527	475	0	0	0	0	
14	0	0	0	0	532	479	0	0	0	0	
15	0	0	0	0	537	485	0	0	0	0	
0	0	0	0	0	543	491	0	0	0	0	
1	0	0	0	0	548	496	0	0	0	0	
2	0	0	0	0	551	499	0	0	0	0	
3	0	0	0	0	550	500	0	0	0	0	
4	0	0	0	0	547	497	0	0	0	0	
5	0	0	0	0	540	492	0	0	0	0	
6	0	0	0	0	531	485	0	0	0	0	
7	0	0	0	0	521	477	0	0	0	0	
8	0	0	0	0	511	467	0	0	0	0	
9	0	0	0	0	501	459	0	0	0	0	
10	0	0	0	0	493	451	0	0	0	0	
11	0	0	0	0	487	444	0	0	0	0	
12	0	0	0	0	482	439	0	0	0	0	
13	0	0	0	0	480	435	0	0	0	0	
14	0	0	0	0	481	433	0	0	0	0	
15	0	0	0	0	483	434	0	0	0	0	
0	0	0	0	0	489	436	0	0	0	0	
1	0	0	0	0	497	441	0	0	0	0	
2	0	0	0	0	506	448	0	0	0	0	
3	0	0	0	0	517	457	0	0	0	0	
4	0	0	0	0	527	467	0	0	0	0	
5	0	0	0	0	539	477	0	0	0	0	
6	0	0	0	0	548	487	0	0	0	0	
7	0	0	0	0	557	496	0	0	0	0	
8	0	0	0	0	562	502	0	0	0	0	
9	0	0	0	0	563	506	0	0	0	0	
10	0	0	0	0	561	505	0	0	0	0	
11	0	0	0	0	556	501	0	0	0	0	
12	0	0	0	0	547	494	0	0	0	0	
13	0	0	0	0	536	483	0	0	0	0	
14	0	0	0	0	524	472	0	0	0	0	
15	0	0	0	0	512	460	0	0	0	0	
0	0	0	0	0	502	449	0	0	0	0	
1	0	0	0	0	494	440	0	0	0	0	
2	0	0	0	0	488	433	0	0	0	0	
3	0	0	0	0	486	429	0	0	0	0	
4	0	0	0	0	487	426	0	0	0	0	
5	0	0	0	0	488	427	0	0	0	0	
6	0	0	0	0	493	429	0	0	0	0	
7	0	0	0	0	497	433	0	0	0	0	
8	0	0	0	0	502	438	0	0	0	0	
9	0	0	0	0	508	444	0	0	0	0	
10	0	0	0	0	512	450	0	0	0	0	
11	0	0	0	0	515	455	0	0	0	0	
12	0	0	0	0	518	460	0	0	0	0	
13	0	0	0	0	520	464	0	0	0	0	
14	0	0	0	0	522	467	0	0	0	0	
15	0	0	0	0	524	471	0	0	0	0	
0	0	0	0	0	527	475	0	0	0	0	
1	0	0	0	0	531	478	0	0	0	0	
2	0	0	0	0	536	483	0	0	0	0	
3	0	0	0	0	543	487	0	0	0	0	
4	0	0	0	0	550	491	0	0	0	0	
5	0	0	0	0	556	494	0	0	0	0	
6	0	0	0	0	560	497	0	0	0	0	
7	0	0	0	0	562	497	0	0	0	0	
8	0	0	0	0	562	495	0	0	0	0	
9	0	0	0	0	559	492	0	0	0	0	
10	0	0	0	0	554	488	0	0	0	0	
11	0	0	0	0	548	484	0	0	0	0	
12	0	0	0	0	542	481	0	0	0	0	
13	0	0	0	0	537	478	0	0	0	0	
14	0	0	0	0	533	476	0	0	0	0	
15	0	0	0	0	531	476	0	0	0	0	
0	0	0	0	0	528	477	0	0	0	0	
1	0	0	0	0	529	478	0	0	0	0	
2	0	0	0	0	529	480	0	0	0	0	
3	0	0	0	0	531	482	0	0	0	0	
4	0	0	0	0	531	483	0	0	0	0	
5	0	0	0	0	533	484	0	0	0	0	
6	0	0	0	0	534	483	0	0	0	0	
7	0	0	0	0	534	481	0	0	0	0	
8	0	0	0	0	533	478	0	0	0	0	
9	0	0	0	0	531	474	0	0	0	0	
10	0	0	0	0	529	470	0	0	0	0	
11	0	0	0	0	524	464	0	0	0	0	
12	0	0	0	0	519	458	0	0	0	0	
13	0	0	0	0	513	452	0	0	0	0	
14	0	0	0	0	505	445	0	0	0	0	
15	0	0	0	0	497	439	0	0	0	0	
0	0	0	0	0	489	433	0	0	0	0	
1	0	0	0	0	482	430	0	0	0	0	
2	0	0	0	0	477	428	0	0	0	0	
3	0	0	0	0	474	428	0	0	0	0	
4	0	0	0	0	474	430	0	0	0	0	
5	0	0	0	0	477	435	0	0	0	0	
6	0	0	0	0	483	442	0	0	0	0	
7	0	0	0	0	490	449	0	0	0	0	
8	0	0	0	0	500	459	0	0	0	0	
9	0	0	0	0	511	467	0	0	0	0	
10	0	0	0	0	521	476	0	0	0	0	
11	0	0	0	0	532	483	0	0	0	0	
12	0	0	0	0	542	490	0	0	0	0	
13	0	0	0	0	551	496	0	0	0	0	
14	0	0	0	0	559	501	0	0	0	0	
15	0	0	0	0	565	505	0	0	0	0	
0	0	0	0	0	569	508	0	0	0	0	
1	0	0	0	0	571	509	0	0	0	0	
2	0	0	0	0	568	508	0	0	0	0	
3	0	0	0	0	562	503	0	0	0	0	
4	0	0	0	0	551	496	0	0	0	0	
5	0	0	0	0	538	486	0	0	0	0	
6	0	0	0	0	522	474	0	0	0	0	
7	0	0	0	0	506	462	0	0	0	0	
8	0	0	0	0	491	450	0	0	0	0	
9	0	0	0	0	479	440	0	0	0	0	
10	0	0	0	0	469	431	0	0	0	0	
11	0	0	0	0	462	424	0	0	0	0	
12	0	0	0	0	460	421	0	0	0	0	
13	0	0	0	0	462	420	0	0	0	0	
14	0	0	0	0	468	423	0	0	0	0	
15	0	0	0	0	477	427	0	0	0	0	
0	0	0	0	0	489	434	0	0	0	0	
1	0	0	0	0	502	442	0	0	0	0	
2	0	0	0	0	515	451	0	0	0	0	
3	0	0	0	0	527	459	0	0	0	0	
4	0	0	0	0	537	466	0	0	0	0	
5	0	0	0	0	545	472	0	0	0	0	
6	0	0	0	0	549	475	0	0	0	0	
7	0	0	0	0	549	477	0	0	0	0	
8	0	0	0	0	547	477	0	0	0	0	
9	0	0	0	0	543	476	0	0	0	0	
10	0	0	0	0	538	474	0	0	0	0	
11	0	0	0	0	532	472	0	0	0	0	
12	0	0	0	0	527	471	0	0	0	0	
13	0	0	0	0	523	471	0	0	0	0	
14	0	0	0	0	521	472	0	0	0	0	
15	0	0	0	0	520	473	0	0	0	0	
0	0	0	0	0	521	476	0	0	0	0	
1	0	0	0	0	524	478	0	0	0	0	
2	0	0	0	0	526	480	0	0	0	0	
3	0	0	0	0	529	482	0	0	0	0	
4	0	0	0	0	533	484	0	0	0	0	
5	0	0	0	0	537	486	0	0	0	0	
6	0	0	0	0	540	487	0	0	0	0	
7	0	0	0	0	544	487	0	0	0	0	
8	0	0	0	0	546	488	0	0	0	0	
9	0	0	0	0	547	487	0	0	0	0	
10	0	0	0	0	547	486	0	0	0	0	
11	0	0	0	0	543	482	0	0	0	0	
12	0	0	0	0	537	477	0	0	0	0	
13	0	0	0	0	528	470	0	0	0	0	
14	0	0	0	0	517	462	0	0	0	0	
15	0	0	0	0	506	453	0	0	0	0	
0	0	0	0	0	496	446	0	0	0	0	
1	0	0	0	0	488	440	0	0	0	0	
2	0	0	0	0	483	436	0	0	0	0	
3	0	0	0	0	481	435	0	0	0	0	
4	0	0	0	0	484	437	0	0	0	0	
5	0	0	0	0	490	441	0	0	0	0	
6	0	0	0	0	499	447	0	0	0	0	
7	0	0	0	0	509	454	0	0	0	0	
8	0	0	0	0	519	460	0	0	0	0	
9	0	0	0	0	529	465	0	0	0	0	
10	0	0	0	0	536	469	0	0	0	0	
11	0	0	0	0	542	472	0	0	0	0	
12	0	0	0	0	544	473	0	0	0	0	
13	0	0	0	0	544	472	0	0	0	0	
14	0	0	0	0	541	470	0	0	0	0	
15	0	0	0	0	536	467	0	0	0	0	
0	0	0	0	0	528	464	0	0	0	0	
1	0	0	0	0	521	460	0	0	0	0	
2	0	0	0	0	513	457	0	0	0	0	
3	0	0	0	0	505	454	0	0	0	0	
4	0	0	0	0	499	451	0	0	0	0	
5	0	0	0	0	493	449	0	0	0	0	
6	0	0	0	0	488	448	0	0	0	0	
7	0	0	0	0	486	447	0	0	0	0	
8	0	0	0	0	486	448	0	0	0	0	
9	0	0	0	0	489	450	0	0	0	0	
10	0	0	0	0	494	453	0	0	0	0	
11	0	0	0	0	501	456	0	0	0	0	
12	0	0	0	0	508	460	0	0	0	0	
13	0	0	0	0	515	463	0	0	0	0	
14	0	0	0	0	521	464	0	0	0	0	
15	0	0	0	0	525	464	0	0	0	0	
0	0	0	0	0	527	462	0	0	0	0	
1	0	0	0	0	524	458	0	0	0	0	
2	0	0	0	0	518	452	0	0	0	0	
3	0	0	0	0	508	443	0	0	0	0	
4	0	0	0	0	494	432	0	0	0	0	
5	0	0	0	0	478	419	0	0	0	0	
6	0	0	0	0	459	406	0	0	0	0	
7	0	0	0	0	439	391	0	0	0	0	
8	0	0	0	0	419	376	0	0	0	0	
9	0	0	0	0	400	363	0	0	0	0	
10	0	0	0	0	383	350	0	0	0	0	
11	0	0	0	0	368	339	0	0	0	0	
12	0	0	0	0	359	332	0	0	0	0	
13	0	0	0	0	356	329	0	0	0	0	
14	0	0	0	0	358	328	0	0	0	0	
15	0	0	0	0	363	328	0	0	0	0	
0	0	0	0	0	370	329	0	0	0	0	
1	0	0	0	0	376	328	0	0	0	0	
2	0	0	0	0	379	324	0	0	0	0	
3	0	0	0	0	379	317	0	0	0	0	
4	0	0	0	0	373	307	0	0	0	0	
5	0	0	0	0	364	294	0	0	0	0	
6	0	0	0	0	351	281	0	0	0	0	
7	0	0	0	0	338	269	0	0	0	0	
8	0	0	0	0	326	259	0	0	0	0	
9	0	0	0	0	315	252	0	0	0	0	
10	0	0	0	0	308	248	0	0	0	0	
11	0	0	0	0	305	248	0	0	0	0	
12	0	0	0	0	307	254	0	0	0	0	
13	0	0	0	0	313	263	0	0	0	0	
14	0	0	0	0	326	276	0	0	0	0	
15	0	0	0	0	343	294	0	0	0	0	
0	0	0	0	0	364	314	0	0	0	0	
1	0	0	0	0	389	338	0	0	0	0	
2	0	0	0	0	416	361	0	0	0	0	
3	0	0	0	0	445	386	0	0	0	0	
4	0	0	0	0	474	410	0	0	0	0	
5	0	0	0	0	501	433	0	0	0	0	
6	0	0	0	0	527	454	0	0	0	0	
7	0	0	0	0	549	473	0	0	0	0	
8	0	0	0	0	569	490	0	0	0	0	
9	0	0	0	0	585	505	0	0	0	0	
10	0	0	0	0	598	519	0	0	0	0	
11	0	0	0	0	608	529	0	0	0	0	
12	0	0	0	0	613	538	0	0	0	0	
13	0	0	0	0	616	544	0	0	0	0	
14	0	0	0	0	616	549	0	0	0	0	
15	0	0	0	0	613	551	0	0	0	0	
0	0	0	0	0	608	551	0	0	0	0	
1	0	0	0	0	601	551	0	0	0	0	
2	0	0	0	0	594	547	0	0	0	0	
3	0	0	0	0	587	543	0	0	0	0	
4	0	0	0	0	577	536	0	0	0	0	
5	0	0	0	0	568	528	0	0	0	0	
6	0	0	0	0	560	520	0	0	0	0	
7	0	0	0	0	552	513	0	0	0	0	
8	0	0	0	0	546	505	0	0	0	0	
9	0	0	0	0	541	499	0	0	0	0	
10	0	0	0	0	536	493	0	0	0	0	
11	0	0	0	0	532	487	0	0	0	0	
12	0	0	0	0	529	483	0	0	0	0	
13	0	0	0	0	526	478	0	0	0	0	
14	0	0	0	0	523	473	0	0	0	0	
15	0	0	0	0	519	469	0	0	0	0	
0	0	0	0	0	513	463	0	0	0	0	
1	0	0	0	0	507	457	0	0	0	0	
2	0	0	0	0	500	451	0	0	0	0	
3	0	0	0	0	493	446	0	0	0	0	
4	0	0	0	0	487	442	0	0	0	0	
5	0	0	0	0	483	440	0	0	0	0	
6	0	0	0	0	482	441	0	0	0	0	
7	0	0	0	0	483	444	0	0	0	0	
8	0	0	0	0	489	450	0	0	0	0	
9	0	0	0	0	497	458	0	0	0	0	
10	0	0	0	0	507	467	0	0	0	0	
11	0	0	0	0	518	477	0	0	0	0	
12	0	0	0	0	529	486	0	0	0	0	
13	0	0	0	0	539	494	0	0	0	0	
14	0	0	0	0	547	499	0	0	0	0	
15	0	0	0	0	551	501	0	0	0	0	
0	0	0	0	0	553	501	0	0	0	0	
1	0	0	0	0	551	498	0	0	0	0	
2	0	0	0	0	548	493	0	0	0	0	
3	0	0	0	0	542	487	0	0	0	0	
4	0	0	0	0	537	481	0	0	0	0	
5	0	0	0	0	531	477	0	0	0	0	
6	0	0	0	0	527	473	0	0	0	0	
7	0	0	0	0	525	472	0	0	0	0	
8	0	0	0	0	524	472	0	0	0	0	
9	0	0	0	0	526	474	0	0	0	0	
10	0	0	0	0	529	478	0	0	0	0	
11	0	0	0	0	534	483	0	0	0	0	
12	0	0	0	0	541	489	0	0	0	0	
13	0	0	0	0	548	496	0	0	0	0	
14	0	0	0	0	557	504	0	0	0	0	
15	0	0	0	0	566	512	0	0	0	0	
0	0	0	0	0	574	518	0	0	0	0	
1	0	0	0	0	580	523	0	0	0	0	
2	0	0	0	0	583	526	0	0	0	0	
3	0	0	0	0	585	525	0	0	0	0	
4	0	0	0	0	583	523	0	0	0	0	
5	0	0	0	0	577	518	0	0	0	0	
6	0	0	0	0	569	512	0	0	0	0	
7	0	0	0	0	560	504	0	0	0	0	
8	0	0	0	0	551	498	0	0	0	0	
9	0	0	0	0	542	492	0	0	0	0	
10	0	0	0	0	534	487	0	0	0	0	
11	0	0	0	0	529	486	0	0	0	0	
12	0	0	0	0	527	486	0	0	0	0	
13	0	0	0	0	528	488	0	0	0	0	
14	0	0	0	0	531	492	0	0	0	0	
15	0	0	0	0	537	497	0	0	0	0	
0	0	0	0	0	543	501	0	0	0	0	
1	0	0	0	0	547	504	0	0	0	0	
2	0	0	0	0	552	506	0	0	0	0	
3	0	0	0	0	554	507	0	0	0	0	
4	0	0	0	0	555	507	0	0	0	0	
5	0	0	0	0	553	504	0	0	0	0	
6	0	0	0	0	550	501	0	0	0	0	
7	0	0	0	0	545	496	0	0	0	0	
8	0	0	0	0	539	490	0	0	0	0	
9	0	0	0	0	530	483	0	0	0	0	
10	0	0	0	0	520	475	0	0	0	0	
11	0	0	0	0	509	467	0	0	0	0	
12	0	0	0	0	499	459	0	0	0	0	
13	0	0	0	0	489	451	0	0	0	0	
14	0	0	0	0	480	445	0	0	0	0	
15	0	0	0	0	474	441	0	0	0	0	
0	0	0	0	0	470	439	0	0	0	0	
1	0	0	0	0	471	441	0	0	0	0	
2	0	0	0	0	476	446	0	0	0	0	
3	0	0	0	0	485	454	0	0	0	0	
4	0	0	0	0	499	464	0	0	0	0	
5	0	0	0	0	515	478	0	0	0	0	
6	0	0	0	0	536	493	0	0	0	0	
7	0	0	0	0	558	509	0	0	0	0	
8	0	0	0	0	581	526	0	0	0	0	
9	0	0	0	0	603	542	0	0	0	0	
10	0	0	0	0	623	555	0	0	0	0	
11	0	0	0	0	638	564	0	0	0	0	
12	0	0	0	0	645	569	0	0	0	0	
13	0	0	0	0	644	567	0	0	0	0	
14	0	0	0	0	635	559	0	0	0	0	
15	0	0	0	0	618	545	0	0	0	0	
0	0	0	0	0	595	529	0	0	0	0	
1	0	0	0	0	570	511	0	0	0	0	
2	0	0	0	0	543	494	0	0	0	0	
3	0	0	0	0	518	477	0	0	0	0	
4	0	0	0	0	494	461	0	0	0	0	
5	0	0	0	0	474	448	0	0	0	0	
6	0	0	0	0	457	436	0	0	0	0	
7	0	0	0	0	446	427	0	0	0	0	
8	0	0	0	0	439	420	0	0	0	0	
9	0	0	0	0	437	418	0	0	0	0	
10	0	0	0	0	441	418	0	0	0	0	
11	0	0	0	0	451	422	0	0	0	0	
12	0	0	0	0	463	428	0	0	0	0	
13	0	0	0	0	478	435	0	0	0	0	
14	0	0	0	0	493	444	0	0	0	0	
15	0	0	0	0	509	452	0	0	0	0	
0	0	0	0	0	521	460	0	0	0	0	
1	0	0	0	0	532	467	0	0	0	0	
2	0	0	0	0	538	471	0	0	0	0	
3	0	0	0	0	541	474	0	0	0	0	
4	0	0	0	0	539	475	0	0	0	0	
5	0	0	0	0	536	474	0	0	0	0	
6	0	0	0	0	530	472	0	0	0	0	
7	0	0	0	0	523	470	0	0	0	0	
8	0	0	0	0	516	468	0	0	0	0	
9	0	0	0	0	510	467	0	0	0	0	
10	0	0	0	0	507	466	0	0	0	0	
11	0	0	0	0	505	467	0	0	0	0	
12	0	0	0	0	507	469	0	0	0	0	
13	0	0	0	0	509	471	0	0	0	0	
14	0	0	0	0	513	474	0	0	0	0	
15	0	0	0	0	519	477	0	0	0	0	
0	0	0	0	0	525	480	0	0	0	0	
1	0	0	0	0	530	481	0	0	0	0	
2	0	0	0	0	535	483	0	0	0	0	
3	0	0	0	0	537	483	0	0	0	0	
4	0	0	0	0	540	483	0	0	0	0	
5	0	0	0	0	539	481	0	0	0	0	
6	0	0	0	0	538	480	0	0	0	0	
7	0	0	0	0	535	477	0	0	0	0	
8	0	0	0	0	531	475	0	0	0	0	
9	0	0	0	0	527	473	0	0	0	0	
10	0	0	0	0	522	472	0	0	0	0	
11	0	0	0	0	518	471	0	0	0	0	
12	0	0	0	0	514	471	0	0	0	0	
13	0	0	0	0	512	471	0	0	0	0	
14	0	0	0	0	511	472	0	0	0	0	
15	0	0	0	0	512	474	0	0	0	0	
0	0	0	0	0	514	477	0	0	0	0	
1	0	0	0	0	518	480	0	0	0	0	
2	0	0	0	0	523	483	0	0	0	0	
3	0	0	0	0	529	487	0	0	0	0	
4	0	0	0	0	535	492	0	0	0	0	
5	0	0	0	0	542	495	0	0	0	0	
6	0	0	0	0	548	499	0	0	0	0	
7	0	0	0	0	553	502	0	0	0	0	
8	0	0	0	0	558	504	0	0	0	0	
9	0	0	0	0	562	506	0	0	0	0	
10	0	0	0	0	565	508	0	0	0	0	
11	0	0	0	0	568	512	0	0	0	0	
12	0	0	0	0	570	515	0	0	0	0	
13	0	0	0	0	574	519	0	0	0	0	
14	0	0	0	0	576	523	0	0	0	0	
15	0	0	0	0	578	527	0	0	0	0	
0	0	0	0	0	578	530	0	0	0	0	
1	0	0	0	0	579	532	0	0	0	0	
2	0	0	0	0	577	533	0	0	0	0	
3	0	0	0	0	575	532	0	0	0	0	
4	0	0	0	0	571	529	0	0	0	0	
5	0	0	0	0	564	524	0	0	0	0	
6	0	0	0	0	556	517	0	0	0	0	
7	0	0	0	0	548	508	0	0	0	0	
8	0	0	0	0	540	499	0	0	0	0	
9	0	0	0	0	531	490	0	0	0	0	
10	0	0	0	0	524	481	0	0	0	0	
11	0	0	0	0	516	473	0	0	0	0	
12	0	0	0	0	511	465	0	0	0	0	
13	0	0	0	0	507	460	0	0	0	0	
14	0	0	0	0	505	456	0	0	0	0	
15	0	0	0	0	504	455	0	0	0	0	
0	0	0	0	0	507	456	0	0	0	0	
1	0	0	0	0	512	462	0	0	0	0	
2	0	0	0	0	521	470	0	0	0	0	
3	0	0	0	0	532	481	0	0	0	0	
4	0	0	0	0	544	494	0	0	0	0	
5	0	0	0	0	559	507	0	0	0	0	
6	0	0	0	0	573	519	0	0	0	0	
7	0	0	0	0	585	530	0	0	0	0	
8	0	0	0	0	593	537	0	0	0	0	
9	0	0	0	0	597	539	0	0	0	0	
10	0	0	0	0	595	535	0	0	0	0	
11	0	0	0	0	588	527	0	0	0	0	
12	0	0	0	0	576	516	0	0	0	0	
13	0	0	0	0	561	502	0	0	0	0	
14	0	0	0	0	544	487	0	0	0	0	
15	0	0	0	0	526	472	0	0	0	0	
0	0	0	0	0	509	457	0	0	0	0	
1	0	0	0	0	495	446	0	0	0	0	
2	0	0	0	0	484	438	0	0	0	0	
3	0	0	0	0	478	433	0	0	0	0	
4	0	0	0	0	476	431	0	0	0	0	
5	0	0	0	0	476	433	0	0	0	0	
6	0	0	0	0	481	436	0	0	0	0	
7	0	0	0	0	487	442	0	0	0	0	
8	0	0	0	0	495	448	0	0	0	0	
9	0	0	0	0	504	455	0	0	0	0	
10	0	0	0	0	512	462	0	0	0	0	
11	0	0	0	0	520	468	0	0	0	0	
12	0	0	0	0	527	472	0	0	0	0	
13	0	0	0	0	531	474	0	0	0	0	
14	0	0	0	0	533	475	0	0	0	0	
15	0	0	0	0	533	473	0	0	0	0	
0	0	0	0	0	531	470	0	0	0	0	
1	0	0	0	0	527	466	0	0	0	0	
2	0	0	0	0	522	462	0	0	0	0	
3	0	0	0	0	518	458	0	0	0	0	
4	0	0	0	0	513	455	0	0	0	0	
5	0	0	0	0	510	452	0	0	0	0	
6	0	0	0	0	508	450	0	0	0	0	
7	0	0	0	0	506	450	0	0	0	0	
8	0	0	0	0	505	451	0	0	0	0	
9	0	0	0	0	505	451	0	0	0	0	
10	0	0	0	0	504	452	0	0	0	0	
11	0	0	0	0	504	454	0	0	0	0	
12	0	0	0	0	504	455	0	0	0	0	
13	0	0	0	0	504	458	0	0	0	0	
14	0	0	0	0	508	463	0	0	0	0	
15	0	0	0	0	513	469	0	0	0	0	
0	0	0	0	0	521	477	0	0	0	0	
1	0	0	0	0	531	487	0	0	0	0	
2	0	0	0	0	545	499	0	0	0	0	
3	0	0	0	0	560	511	0	0	0	0	
4	0	0	0	0	572	521	0	0	0	0	
5	0	0	0	0	582	528	0	0	0	0	
6	0	0	0	0	588	530	0	0	0	0	
7	0	0	0	0	588	527	0	0	0	0	
8	0	0	0	0	583	520	0	0	0	0	
9	0	0	0	0	573	510	0	0	0	0	
10	0	0	0	0	559	496	0	0	0	0	
11	0	0	0	0	542	481	0	0	0	0	
12	0	0	0	0	524	466	0	0	0	0	
13	0	0	0	0	507	451	0	0	0	0	
14	0	0	0	0	491	438	0	0	0	0	
15	0	0	0	0	478	428	0	0	0	0	
0	0	0	0	0	469	422	0	0	0	0	
1	0	0	0	0	464	419	0	0	0	0	
2	0	0	0	0	464	420	0	0	0	0	
3	0	0	0	0	468	424	0	0	0	0	
4	0	0	0	0	476	431	0	0	0	0	
5	0	0	0	0	487	440	0	0	0	0	
6	0	0	0	0	502	452	0	0	0	0	
7	0	0	0	0	518	464	0	0	0	0	
8	0	0	0	0	536	478	0	0	0	0	
9	0	0	0	0	554	491	0	0	0	0	
10	0	0	0	0	571	503	0	0	0	0	
11	0	0	0	0	585	514	0	0	0	0	
12	0	0	0	0	597	523	0	0	0	0	
13	0	0	0	0	604	528	0	0	0	0	
14	0	0	0	0	606	531	0	0	0	0	
15	0	0	0	0	603	529	0	0	0	0	
0	0	0	0	0	595	524	0	0	0	0	
1	0	0	0	0	582	515	0	0	0	0	
2	0	0	0	0	566	504	0	0	0	0	
3	0	0	0	0	549	492	0	0	0	0	
4	0	0	0	0	532	481	0	0	0	0	
5	0	0	0	0	518	471	0	0	0	0	
6	0	0	0	0	508	464	0	0	0	0	
7	0	0	0	0	502	459	0	0	0	0	
8	0	0	0	0	500	457	0	0	0	0	
9	0	0	0	0	503	459	0	0	0	0	
10	0	0	0	0	509	463	0	0	0	0	
11	0	0	0	0	519	469	0	0	0	0	
12	0	0	0	0	530	476	0	0	0	0	
13	0	0	0	0	541	483	0	0	0	0	
14	0	0	0	0	551	489	0	0	0	0	
15	0	0	0	0	558	493	0	0	0	0	
0	0	0	0	0	562	495	0	0	0	0	
1	0	0	0	0	563	494	0	0	0	0	
2	0	0	0	0	560	492	0	0	0	0	
3	0	0	0	0	555	488	0	0	0	0	
4	0	0	0	0	547	484	0	0	0	0	
5	0	0	0	0	539	479	0	0	0	0	
6	0	0	0	0	530	474	0	0	0	0	
7	0	0	0	0	521	469	0	0	0	0	
8	0	0	0	0	513	465	0	0	0	0	
9	0	0	0	0	507	462	0	0	0	0	
10	0	0	0	0	503	458	0	0	0	0	
11	0	0	0	0	499	456	0	0	0	0	
12	0	0	0	0	497	454	0	0	0	0	
13	0	0	0	0	497	453	0	0	0	0	
14	0	0	0	0	498	452	0	0	0	0	
15	0	0	0	0	501	452	0	0	0	0	
0	0	0	0	0	504	452	0	0	0	0	
1	0	0	0	0	508	451	0	0	0	0	
2	0	0	0	0	511	452	0	0	0	0	
3	0	0	0	0	515	452	0	0	0	0	
4	0	0	0	0	520	454	0	0	0	0	
5	0	0	0	0	523	455	0	0	0	0	
6	0	0	0	0	527	457	0	0	0	0	
7	0	0	0	0	531	460	0	0	0	0	
8	0	0	0	0	534	463	0	0	0	0	
9	0	0	0	0	537	468	0	0	0	0	
10	0	0	0	0	540	473	0	0	0	0	
11	0	0	0	0	543	479	0	0	0	0	
12	0	0	0	0	546	485	0	0	0	0	
13	0	0	0	0	548	491	0	0	0	0	
14	0	0	0	0	551	496	0	0	0	0	
15	0	0	0	0	553	500	0	0	0	0	
0	0	0	0	0	553	502	0	0	0	0	
1	0	0	0	0	551	501	0	0	0	0	
2	0	0	0	0	547	498	0	0	0	0	
3	0	0	0	0	543	494	0	0	0	0	
4	0	0	0	0	536	487	0	0	0	0	
5	0	0	0	0	528	479	0	0	0	0	
6	0	0	0	0	521	472	0	0	0	0	
7	0	0	0	0	515	467	0	0	0	0	
8	0	0	0	0	513	463	0	0	0	0	
9	0	0	0	0	512	462	0	0	0	0	
10	0	0	0	0	512	462	0	0	0	0	
11	0	0	0	0	513	464	0	0	0	0	
12	0	0	0	0	515	466	0	0	0	0	
13	0	0	0	0	518	468	0	0	0	0	
14	0	0	0	0	519	470	0	0	0	0	
15	0	0	0	0	520	471	0	0	0	0	
0	0	0	0	0	520	471	0	0	0	0	
1	0	0	0	0	519	469	0	0	0	0	
2	0	0	0	0	518	467	0	0	0	0	
3	0	0	0	0	516	465	0	0	0	0	
4	0	0	0	0	515	463	0	0	0	0	
5	0	0	0	0	515	462	0	0	0	0	
6	0	0	0	0	516	462	0	0	0	0	
7	0	0	0	0	518	462	0	0	0	0	
8	0	0	0	0	521	463	0	0	0	0	
9	0	0	0	0	524	465	0	0	0	0	
10	0	0	0	0	528	468	0	0	0	0	
11	0	0	0	0	531	470	0	0	0	0	
12	0	0	0	0	533	472	0	0	0	0	
13	0	0	0	0	534	472	0	0	0	0	
14	0	0	0	0	533	473	0	0	0	0	
15	0	0	0	0	531	472	0	0	0	0	
0	0	0	0	0	527	470	0	0	0	0	
1	0	0	0	0	521	466	0	0	0	0	
2	0	0	0	0	515	463	0	0	0	0	
3	0	0	0	0	508	459	0	0	0	0	
4	0	0	0	0	502	455	0	0	0	0	
5	0	0	0	0	498	452	0	0	0	0	
6	0	0	0	0	495	451	0	0	0	0	
7	0	0	0	0	495	451	0	0	0	0	
8	0	0	0	0	497	452	0	0	0	0	
9	0	0	0	0	501	454	0	0	0	0	
10	0	0	0	0	507	457	0	0	0	0	
11	0	0	0	0	515	462	0	0	0	0	
12	0	0	0	0	524	467	0	0	0	0	
13	0	0	0	0	534	473	0	0	0	0	
14	0	0	0	0	543	480	0	0	0	0	
15	0	0	0	0	553	487	0	0	0	0	
0	0	0	0	0	561	492	0	0	0	0	
1	0	0	0	0	568	498	0	0	0	0	
2	0	0	0	0	573	504	0	0	0	0	
3	0	0	0	0	576	507	0	0	0	0	
4	0	0	0	0	577	510	0	0	0	0	
5	0	0	0	0	574	511	0	0	0	0	
6	0	0	0	0	570	510	0	0	0	0	
7	0	0	0	0	563	508	0	0	0	0	
8	0	0	0	0	555	504	0	0	0	0	
9	0	0	0	0	545	498	0	0	0	0	
10	0	0	0	0	536	492	0	0	0	0	
11	0	0	0	0	526	484	0	0	0	0	
12	0	0	0	0	517	476	0	0	0	0	
13	0	0	0	0	509	468	0	0	0	0	
14	0	0	0	0	503	461	0	0	0	0	
15	0	0	0	0	500	455	0	0	0	0	
0	0	0	0	0	498	451	0	0	0	0	
1	0	0	0	0	499	448	0	0	0	0	
2	0	0	0	0	502	448	0	0	0	0	
3	0	0	0	0	506	449	0	0	0	0	
4	0	0	0	0	513	454	0	0	0	0	
5	0	0	0	0	522	460	0	0	0	0	
6	0	0	0	0	531	468	0	0	0	0	
7	0	0	0	0	540	476	0	0	0	0	
8	0	0	0	0	548	484	0	0	0	0	
9	0	0	0	0	556	492	0	0	0	0	
10	0	0	0	0	560	497	0	0	0	0	
11	0	0	0	0	563	501	0	0	0	0	
12	0	0	0	0	563	503	0	0	0	0	
13	0	0	0	0	560	503	0	0	0	0	
14	0	0	0	0	557	500	0	0	0	0	
15	0	0	0	0	551	497	0	0	0	0	
0	0	0	0	0	545	493	0	0	0	0	
1	0	0	0	0	538	489	0	0	0	0	
2	0	0	0	0	532	484	0	0	0	0	
3	0	0	0	0	527	480	0	0	0	0	
4	0	0	0	0	522	476	0	0	0	0	
5	0	0	0	0	520	473	0	0	0	0	
6	0	0	0	0	519	472	0	0	0	0	
7	0	0	0	0	521	473	0	0	0	0	
8	0	0	0	0	525	476	0	0	0	0	
9	0	0	0	0	532	481	0	0	0	0	
10	0	0	0	0	541	489	0	0	0	0	
11	0	0	0	0	551	497	0	0	0	0	
12	0	0	0	0	561	507	0	0	0	0	
13	0	0	0	0	572	515	0	0	0	0	
14	0	0	0	0	581	523	0	0	0	0	
15	0	0	0	0	586	527	0	0	0	0	
0	0	0	0	0	588	528	0	0	0	0	
1	0	0	0	0	584	526	0	0	0	0	
2	0	0	0	0	578	521	0	0	0	0	
3	0	0	0	0	567	513	0	0	0	0	
4	0	0	0	0	553	503	0	0	0	0	
5	0	0	0	0	537	490	0	0	0	0	
6	0	0	0	0	522	478	0	0	0	0	
7	0	0	0	0	507	466	0	0	0	0	
8	0	0	0	0	495	455	0	0	0	0	
9	0	0	0	0	486	447	0	0	0	0	
10	0	0	0	0	479	440	0	0	0	0	
11	0	0	0	0	476	435	0	0	0	0	
12	0	0	0	0	476	432	0	0	0	0	
13	0	0	0	0	477	431	0	0	0	0	
14	0	0	0	0	480	432	0	0	0	0	
15	0	0	0	0	484	433	0	0	0	0	
0	0	0	0	0	490	436	0	0	0	0	
1	0	0	0	0	495	440	0	0	0	0	
2	0	0	0	0	500	444	0	0	0	0	
3	0	0	0	0	505	448	0	0	0	0	
4	0	0	0	0	508	451	0	0	0	0	
5	0	0	0	0	511	454	0	0	0	0	
6	0	0	0	0	513	457	0	0	0	0	
7	0	0	0	0	515	460	0	0	0	0	
8	0	0	0	0	517	463	0	0	0	0	
9	0	0	0	0	519	466	0	0	0	0	
10	0	0	0	0	522	470	0	0	0	0	
11	0	0	0	0	526	472	0	0	0	0	
12	0	0	0	0	530	475	0	0	0	0	
13	0	0	0	0	533	476	0	0	0	0	
14	0	0	0	0	535	476	0	0	0	0	
15	0	0	0	0	536	475	0	0	0	0	
0	0	0	0	0	535	472	0	0	0	0	
1	0	0	0	0	532	468	0	0	0	0	
2	0	0	0	0	528	463	0	0	0	0	
3	0	0	0	0	524	460	0	0	0	0	
4	0	0	0	0	520	457	0	0	0	0	
5	0	0	0	0	518	456	0	0	0	0	
6	0	0	0	0	517	458	0	0	0	0	
7	0	0	0	0	518	461	0	0	0	0	
8	0	0	0	0	522	467	0	0	0	0	
9	0	0	0	0	529	476	0	0	0	0	
10	0	0	0	0	537	486	0	0	0	0	
11	0	0	0	0	546	496	0	0	0	0	
12	0	0	0	0	556	505	0	0	0	0	
13	0	0	0	0	564	512	0	0	0	0	
14	0	0	0	0	573	519	0	0	0	0	
15	0	0	0	0	579	522	0	0	0	0	
0	0	0	0	0	583	523	0	0	0	0	
1	0	0	0	0	584	521	0	0	0	0	
2	0	0	0	0	583	518	0	0	0	0	
3	0	0	0	0	580	512	0	0	0	0	
4	0	0	0	0	576	505	0	0	0	0	
5	0	0	0	0	570	498	0	0	0	0	
6	0	0	0	0	562	491	0	0	0	0	
7	0	0	0	0	553	483	0	0	0	0	
8	0	0	0	0	543	476	0	0	0	0	
9	0	0	0	0	532	468	0	0	0	0	
10	0	0	0	0	521	462	0	0	0	0	
11	0	0	0	0	511	456	0	0	0	0	
12	0	0	0	0	502	451	0	0	0	0	
13	0	0	0	0	495	448	0	0	0	0	
14	0	0	0	0	492	448	0	0	0	0	
15	0	0	0	0	491	448	0	0	0	0	
0	0	0	0	0	492	449	0	0	0	0	
1	0	0	0	0	495	451	0	0	0	0	
2	0	0	0	0	499	453	0	0	0	0	
3	0	0	0	0	504	455	0	0	0	0	
4	0	0	0	0	509	457	0	0	0	0	
5	0	0	0	0	514	459	0	0	0	0	
6	0	0	0	0	519	460	0	0	0	0	
7	0	0	0	0	521	461	0	0	0	0	
8	0	0	0	0	524	461	0	0	0	0	
9	0	0	0	0	524	460	0	0	0	0	
10	0	0	0	0	523	458	0	0	0	0	
11	0	0	0	0	520	455	0	0	0	0	
12	0	0	0	0	516	452	0	0	0	0	
13	0	0	0	0	512	449	0	0	0	0	
14	0	0	0	0	508	447	0	0	0	0	
15	0	0	0	0	504	444	0	0	0	0	
0	0	0	0	0	502	444	0	0	0	0	
1	0	0	0	0	501	444	0	0	0	0	
2	0	0	0	0	503	448	0	0	0	0	
3	0	0	0	0	507	452	0	0	0	0	
4	0	0	0	0	514	459	0	0	0	0	
5	0	0	0	0	524	468	0	0	0	0	
6	0	0	0	0	535	477	0	0	0	0	
7	0	0	0	0	547	487	0	0	0	0	
8	0	0	0	0	559	496	0	0	0	0	
9	0	0	0	0	570	504	0	0	0	0	
10	0	0	0	0	577	510	0	0	0	0	
11	0	0	0	0	583	514	0	0	0	0	
12	0	0	0	0	584	515	0	0	0	0	
13	0	0	0	0	580	512	0	0	0	0	
14	0	0	0	0	572	506	0	0	0	0	
15	0	0	0	0	559	497	0	0	0	0	
0	0	0	0	0	543	487	0	0	0	0	
1	0	0	0	0	527	476	0	0	0	0	
2	0	0	0	0	510	464	0	0	0	0	
3	0	0	0	0	494	452	0	0	0	0	
4	0	0	0	0	479	442	0	0	0	0	
5	0	0	0	0	466	432	0	0	0	0	
6	0	0	0	0	456	423	0	0	0	0	
7	0	0	0	0	449	417	0	0	0	0	
8	0	0	0	0	446	412	0	0	0	0	
9	0	0	0	0	445	408	0	0	0	0	
10	0	0	0	0	447	407	0	0	0	0	
11	0	0	0	0	452	407	0	0	0	0	
12	0	0	0	0	457	408	0	0	0	0	
13	0	0	0	0	463	408	0	0	0	0	
14	0	0	0	0	465	407	0	0	0	0	
15	0	0	0	0	466	404	0	0	0	0	
0	0	0	0	0	463	399	0	0	0	0	
1	0	0	0	0	455	390	0	0	0	0	
2	0	0	0	0	444	379	0	0	0	0	
3	0	0	0	0	427	364	0	0	0	0	
4	0	0	0	0	407	347	0	0	0	0	
5	0	0	0	0	384	328	0	0	0	0	
6	0	0	0	0	360	309	0	0	0	0	
7	0	0	0	0	338	291	0	0	0	0	
8	0	0	0	0	318	276	0	0	0	0	
9	0	0	0	0	303	265	0	0	0	0	
10	0	0	0	0	294	259	0	0	0	0	
11	0	0	0	0	291	257	0	0	0	0	
12	0	0	0	0	294	260	0	0	0	0	
13	0	0	0	0	303	267	0	0	0	0	
14	0	0	0	0	317	278	0	0	0	0	
15	0	0	0	0	336	291	0	0	0	0	
0	0	0	0	0	358	307	0	0	0	0	
1	0	0	0	0	384	326	0	0	0	0	
2	0	0	0	0	409	345	0	0	0	0	
3	0	0	0	0	435	364	0	0	0	0	
4	0	0	0	0	461	385	0	0	0	0	
5	0	0	0	0	485	404	0	0	0	0	
6	0	0	0	0	506	423	0	0	0	0	
7	0	0	0	0	524	439	0	0	0	0	
8	0	0	0	0	537	454	0	0	0	0	
9	0	0	0	0	545	464	0	0	0	0	
10	0	0	0	0	550	473	0	0	0	0	
11	0	0	0	0	551	479	0	0	0	0	
12	0	0	0	0	550	482	0	0	0	0	
13	0	0	0	0	547	484	0	0	0	0	
14	0	0	0	0	545	486	0	0	0	0	
15	0	0	0	0	542	487	0	0	0	0	
0	0	0	0	0	541	488	0	0	0	0	
1	0	0	0	0	541	490	0	0	0	0	
2	0	0	0	0	543	492	0	0	0	0	
3	0	0	0	0	547	495	0	0	0	0	
4	0	0	0	0	551	497	0	0	0	0	
5	0	0	0	0	556	500	0	0	0	0	
6	0	0	0	0	560	502	0	0	0	0	
7	0	0	0	0	566	504	0	0	0	0	
8	0	0	0	0	569	505	0	0	0	0	
9	0	0	0	0	572	506	0	0	0	0	
10	0	0	0	0	572	506	0	0	0	0	
11	0	0	0	0	570	505	0	0	0	0	
12	0	0	0	0	568	503	0	0	0	0	
13	0	0	0	0	561	500	0	0	0	0	
14	0	0	0	0	555	497	0	0	0	0	
15	0	0	0	0	547	493	0	0	0	0	
0	0	0	0	0	540	490	0	0	0	0	
1	0	0	0	0	535	488	0	0	0	0	
2	0	0	0	0	531	487	0	0	0	0	
3	0	0	0	0	528	488	0	0	0	0	
4	0	0	0	0	528	489	0	0	0	0	
5	0	0	0	0	529	490	0	0	0	0	
6	0	0	0	0	532	491	0	0	0	0	
7	0	0	0	0	534	491	0	0	0	0	
8	0	0	0	0	537	490	0	0	0	0	
9	0	0	0	0	539	488	0	0	0	0	
10	0	0	0	0	539	485	0	0	0	0	
11	0	0	0	0	540	481	0	0	0	0	
12	0	0	0	0	539	477	0	0	0	0	
13	0	0	0	0	536	473	0	0	0	0	
14	0	0	0	0	534	469	0	0	0	0	
15	0	0	0	0	531	465	0	0	0	0	
0	0	0	0	0	527	463	0	0	0	0	
1	0	0	0	0	526	463	0	0	0	0	
2	0	0	0	0	524	464	0	0	0	0	
3	0	0	0	0	524	468	0	0	0	0	
4	0	0	0	0	527	473	0	0	0	0	
5	0	0	0	0	530	480	0	0	0	0	
6	0	0	0	0	535	487	0	0	0	0	
7	0	0	0	0	541	495	0	0	0	0	
8	0	0	0	0	547	503	0	0	0	0	
9	0	0	0	0	555	510	0	0	0	0	
10	0	0	0	0	561	515	0	0	0	0	
11	0	0	0	0	567	520	0	0	0	0	
12	0	0	0	0	573	523	0	0	0	0	
13	0	0	0	0	578	526	0	0	0	0	
14	0	0	0	0	580	526	0	0	0	0	
15	0	0	0	0	583	526	0	0	0	0	
0	0	0	0	0	583	524	0	0	0	0	
1	0	0	0	0	582	521	0	0	0	0	
2	0	0	0	0	579	519	0	0	0	0	
3	0	0	0	0	576	517	0	0	0	0	
4	0	0	0	0	573	516	0	0	0	0	
5	0	0	0	0	572	516	0	0	0	0	
6	0	0	0	0	571	518	0	0	0	0	
7	0	0	0	0	571	521	0	0	0	0	
8	0	0	0	0	572	524	0	0	0	0	
9	0	0	0	0	574	526	0	0	0	0	
10	0	0	0	0	575	528	0	0	0	0	
11	0	0	0	0	575	528	0	0	0	0	
12	0	0	0	0	575	527	0	0	0	0	
13	0	0	0	0	573	525	0	0	0	0	
14	0	0	0	0	571	523	0	0	0	0	
15	0	0	0	0	570	520	0	0	0	0	
0	0	0	0	0	569	518	0	0	0	0	
1	0	0	0	0	567	515	0	0	0	0	
2	0	0	0	0	564	512	0	0	0	0	
3	0	0	0	0	561	509	0	0	0	0	
4	0	0	0	0	559	505	0	0	0	0	
5	0	0	0	0	554	500	0	0	0	0	
6	0	0	0	0	551	496	0	0	0	0	
7	0	0	0	0	547	492	0	0	0	0	
8	0	0	0	0	544	489	0	0	0	0	
9	0	0	0	0	542	487	0	0	0	0	
10	0	0	0	0	541	485	0	0	0	0	
11	0	0	0	0	540	484	0	0	0	0	
12	0	0	0	0	541	483	0	0	0	0	
13	0	0	0	0	540	483	0	0	0	0	
14	0	0	0	0	540	482	0	0	0	0	
15	0	0	0	0	539	481	0	0	0	0	
0	0	0	0	0	537	479	0	0	0	0	
1	0	0	0	0	535	477	0	0	0	0	
2	0	0	0	0	534	476	0	0	0	0	
3	0	0	0	0	533	476	0	0	0	0	
4	0	0	0	0	533	476	0	0	0	0	
5	0	0	0	0	534	478	0	0	0	0	
6	0	0	0	0	536	480	0	0	0	0	
7	0	0	0	0	537	482	0	0	0	0	
8	0	0	0	0	539	483	0	0	0	0	
9	0	0	0	0	540	484	0	0	0	0	
10	0	0	0	0	539	484	0	0	0	0	
11	0	0	0	0	539	484	0	0	0	0	
12	0	0	0	0	537	484	0	0	0	0	
13	0	0	0	0	537	484	0	0	0	0	
14	0	0	0	0	537	486	0	0	0	0	
15	0	0	0	0	537	488	0	0	0	0	
0	0	0	0	0	538	491	0	0	0	0	
1	0	0	0	0	540	494	0	0	0	0	
2	0	0	0	0	543	496	0	0	0	0	
3	0	0	0	0	546	499	0	0	0	0	
4	0	0	0	0	548	500	0	0	0	0	
5	0	0	0	0	550	501	0	0	0	0	
6	0	0	0	0	551	500	0	0	0	0	
7	0	0	0	0	551	499	0	0	0	0	
8	0	0	0	0	550	495	0	0	0	0	
9	0	0	0	0	548	490	0	0	0	0	
10	0	0	0	0	544	484	0	0	0	0	
11	0	0	0	0	539	477	0	0	0	0	
12	0	0	0	0	533	470	0	0	0	0	
13	0	0	0	0	526	463	0	0	0	0	
14	0	0	0	0	519	455	0	0	0	0	
15	0	0	0	0	512	449	0	0	0	0	
0	0	0	0	0	506	445	0	0	0	0	
1	0	0	0	0	502	442	0	0	0	0	
2	0	0	0	0	499	441	0	0	0	0	
3	0	0	0	0	499	443	0	0	0	0	
4	0	0	0	0	500	446	0	0	0	0	
5	0	0	0	0	504	450	0	0	0	0	
6	0	0	0	0	509	455	0	0	0	0	
7	0	0	0	0	516	463	0	0	0	0	
8	0	0	0	0	524	470	0	0	0	0	
9	0	0	0	0	531	477	0	0	0	0	
10	0	0	0	0	540	484	0	0	0	0	
11	0	0	0	0	549	491	0	0	0	0	
12	0	0	0	0	558	498	0	0	0	0	
13	0	0	0	0	567	505	0	0	0	0	
14	0	0	0	0	574	511	0	0	0	0	
15	0	0	0	0	579	515	0	0	0	0	
0	0	0	0	0	582	516	0	0	0	0	
1	0	0	0	0	582	516	0	0	0	0	
2	0	0	0	0	577	512	0	0	0	0	
3	0	0	0	0	569	505	0	0	0	0	
4	0	0	0	0	559	496	0	0	0	0	
5	0	0	0	0	546	486	0	0	0	0	
6	0	0	0	0	533	476	0	0	0	0	
7	0	0	0	0	521	467	0	0	0	0	
8	0	0	0	0	511	460	0	0	0	0	
9	0	0	0	0	505	456	0	0	0	0	
10	0	0	0	0	503	455	0	0	0	0	
11	0	0	0	0	505	458	0	0	0	0	
12	0	0	0	0	511	463	0	0	0	0	
13	0	0	0	0	521	472	0	0	0	0	
14	0	0	0	0	534	482	0	0	0	0	
15	0	0	0	0	550	493	0	0	0	0	
0	0	0	0	0	566	505	0	0	0	0	
1	0	0	0	0	582	515	0	0	0	0	
2	0	0	0	0	595	525	0	0	0	0	
3	0	0	0	0	605	531	0	0	0	0	
4	0	0	0	0	612	535	0	0	0	0	
5	0	0	0	0	615	537	0	0	0	0	
6	0	0	0	0	614	535	0	0	0	0	
7	0	0	0	0	608	531	0	0	0	0	
8	0	0	0	0	600	526	0	0	0	0	
9	0	0	0	0	590	519	0	0	0	0	
10	0	0	0	0	577	512	0	0	0	0	
11	0	0	0	0	565	505	0	0	0	0	
12	0	0	0	0	553	499	0	0	0	0	
13	0	0	0	0	542	494	0	0	0	0	
14	0	0	0	0	534	489	0	0	0	0	
15	0	0	0	0	526	485	0	0	0	0	
0	0	0	0	0	520	481	0	0	0	0	
1	0	0	0	0	516	478	0	0	0	0	
2	0	0	0	0	514	475	0	0	0	0	
3	0	0	0	0	514	472	0	0	0	0	
4	0	0	0	0	515	471	0	0	0	0	
5	0	0	0	0	517	468	0	0	0	0	
6	0	0	0	0	518	467	0	0	0	0	
7	0	0	0	0	520	465	0	0	0	0	
8	0	0	0	0	522	463	0	0	0	0	
9	0	0	0	0	522	461	0	0	0	0	
10	0	0	0	0	521	458	0	0	0	0	
11	0	0	0	0	519	455	0	0	0	0	
12	0	0	0	0	517	454	0	0	0	0	
13	0	0	0	0	516	454	0	0	0	0	
14	0	0	0	0	517	455	0	0	0	0	
15	0	0	0	0	519	458	0	0	0	0	
0	0	0	0	0	523	464	0	0	0	0	
1	0	0	0	0	531	473	0	0	0	0	
2	0	0	0	0	540	483	0	0	0	0	
3	0	0	0	0	551	495	0	0	0	0	
4	0	0	0	0	563	506	0	0	0	0	
5	0	0	0	0	574	516	0	0	0	0	
6	0	0	0	0	582	523	0	0	0	0	
7	0	0	0	0	586	525	0	0	0	0	
8	0	0	0	0	587	524	0	0	0	0	
9	0	0	0	0	583	519	0	0	0	0	
10	0	0	0	0	577	512	0	0	0	0	
11	0	0	0	0	567	503	0	0	0	0	
12	0	0	0	0	556	492	0	0	0	0	
13	0	0	0	0	544	481	0	0	0	0	
14	0	0	0	0	531	470	0	0	0	0	
15	0	0	0	0	517	460	0	0	0	0	
0	0	0	0	0	504	450	0	0	0	0	
1	0	0	0	0	494	443	0	0	0	0	
2	0	0	0	0	486	438	0	0	0	0	
3	0	0	0	0	480	435	0	0	0	0	
4	0	0	0	0	479	435	0	0	0	0	
5	0	0	0	0	481	438	0	0	0	0	
6	0	0	0	0	487	443	0	0	0	0	
7	0	0	0	0	496	449	0	0	0	0	
8	0	0	0	0	506	458	0	0	0	0	
9	0	0	0	0	518	468	0	0	0	0	
10	0	0	0	0	531	477	0	0	0	0	
11	0	0	0	0	544	486	0	0	0	0	
12	0	0	0	0	554	492	0	0	0	0	
13	0	0	0	0	561	497	0	0	0	0	
14	0	0	0	0	564	499	0	0	0	0	
15	0	0	0	0	564	499	0	0	0	0	
0	0	0	0	0	563	497	0	0	0	0	
1	0	0	0	0	557	494	0	0	0	0	
2	0	0	0	0	550	489	0	0	0	0	
3	0	0	0	0	541	483	0	0	0	0	
4	0	0	0	0	532	477	0	0	0	0	
5	0	0	0	0	524	470	0	0	0	0	
6	0	0	0	0	514	463	0	0	0	0	
7	0	0	0	0	505	457	0	0	0	0	
8	0	0	0	0	499	452	0	0	0	0	
9	0	0	0	0	494	448	0	0	0	0	
10	0	0	0	0	492	447	0	0	0	0	
11	0	0	0	0	492	447	0	0	0	0	
12	0	0	0	0	495	448	0	0	0	0	
13	0	0	0	0	501	452	0	0	0	0	
14	0	0	0	0	509	457	0	0	0	0	
15	0	0	0	0	518	463	0	0	0	0	
0	0	0	0	0	528	470	0	0	0	0	
1	0	0	0	0	539	477	0	0	0	0	
2	0	0	0	0	549	484	0	0	0	0	
3	0	0	0	0	558	490	0	0	0	0	
4	0	0	0	0	566	495	0	0	0	0	
5	0	0	0	0	569	498	0	0	0	0	
6	0	0	0	0	570	499	0	0	0	0	
7	0	0	0	0	567	498	0	0	0	0	
8	0	0	0	0	562	495	0	0	0	0	
9	0	0	0	0	554	491	0	0	0	0	
10	0	0	0	0	545	487	0	0	0	0	
11	0	0	0	0	536	483	0	0	0	0	
12	0	0	0	0	528	480	0	0	0	0	
13	0	0	0	0	523	480	0	0	0	0	
14	0	0	0	0	522	483	0	0	0	0	
15	0	0	0	0	526	488	0	0	0	0	
0	0	0	0	0	533	496	0	0	0	0	
1	0	0	0	0	543	505	0	0	0	0	
2	0	0	0	0	558	516	0	0	0	0	
3	0	0	0	0	573	527	0	0	0	0	
4	0	0	0	0	587	536	0	0	0	0	
5	0	0	0	0	598	542	0	0	0	0	
6	0	0	0	0	605	545	0	0	0	0	
7	0	0	0	0	608	544	0	0	0	0	
8	0	0	0	0	605	540	0	0	0	0	
9	0	0	0	0	597	531	0	0	0	0	
10	0	0	0	0	585	521	0	0	0	0	
11	0	0	0	0	571	509	0	0	0	0	
12	0	0	0	0	555	498	0	0	0	0	
13	0	0	0	0	540	487	0	0	0	0	
14	0	0	0	0	527	480	0	0	0	0	
15	0	0	0	0	517	474	0	0	0	0	
0	0	0	0	0	510	471	0	0	0	0	
1	0	0	0	0	508	471	0	0	0	0	
2	0	0	0	0	510	474	0	0	0	0	
3	0	0	0	0	515	480	0	0	0	0	
4	0	0	0	0	523	486	0	0	0	0	
5	0	0	0	0	531	493	0	0	0	0	
6	0	0	0	0	542	499	0	0	0	0	
7	0	0	0	0	550	505	0	0	0	0	
8	0	0	0	0	556	507	0	0	0	0	
9	0	0	0	0	559	507	0	0	0	0	
10	0	0	0	0	558	502	0	0	0	0	
11	0	0	0	0	552	495	0	0	0	0	
12	0	0	0	0	543	485	0	0	0	0	
13	0	0	0	0	531	473	0	0	0	0	
14	0	0	0	0	519	462	0	0	0	0	
15	0	0	0	0	507	451	0	0	0	0	
0	0	0	0	0	497	443	0	0	0	0	
1	0	0	0	0	489	438	0	0	0	0	
2	0	0	0	0	486	436	0	0	0	0	
3	0	0	0	0	486	438	0	0	0	0	
4	0	0	0	0	489	443	0	0	0	0	
5	0	0	0	0	497	450	0	0	0	0	
6	0	0	0	0	506	459	0	0	0	0	
7	0	0	0	0	517	469	0	0	0	0	
8	0	0	0	0	528	479	0	0	0	0	
9	0	0	0	0	539	488	0	0	0	0	
10	0	0	0	0	550	496	0	0	0	0	
11	0	0	0	0	560	503	0	0	0	0	
12	0	0	0	0	567	508	0	0	0	0	
13	0	0	0	0	571	511	0	0	0	0	
14	0	0	0	0	572	510	0	0	0	0	
15	0	0	0	0	567	507	0	0	0	0	
0	0	0	0	0	558	500	0	0	0	0	
1	0	0	0	0	545	490	0	0	0	0	
2	0	0	0	0	529	479	0	0	0	0	
3	0	0	0	0	514	467	0	0	0	0	
4	0	0	0	0	499	457	0	0	0	0	
5	0	0	0	0	487	448	0	0	0	0	
6	0	0	0	0	479	443	0	0	0	0	
7	0	0	0	0	475	440	0	0	0	0	
8	0	0	0	0	476	441	0	0	0	0	
9	0	0	0	0	482	444	0	0	0	0	
10	0	0	0	0	491	450	0	0	0	0	
11	0	0	0	0	501	456	0	0	0	0	
12	0	0	0	0	512	463	0	0	0	0	
13	0	0	0	0	523	468	0	0	0	0	
14	0	0	0	0	533	473	0	0	0	0	
15	0	0	0	0	540	477	0	0	0	0	
0	0	0	0	0	545	478	0	0	0	0	
1	0	0	0	0	547	478	0	0	0	0	
2	0	0	0	0	546	475	0	0	0	0	
3	0	0	0	0	542	472	0	0	0	0	
4	0	0	0	0	536	467	0	0	0	0	
5	0	0	0	0	529	462	0	0	0	0	
6	0	0	0	0	522	458	0	0	0	0	
7	0	0	0	0	514	453	0	0	0	0	
8	0	0	0	0	507	450	0	0	0	0	
9	0	0	0	0	501	447	0	0	0	0	
10	0	0	0	0	496	446	0	0	0	0	
11	0	0	0	0	494	445	0	0	0	0	
12	0	0	0	0	494	446	0	0	0	0	
13	0	0	0	0	495	448	0	0	0	0	
14	0	0	0	0	500	452	0	0	0	0	
15	0	0	0	0	506	458	0	0	0	0	
0	0	0	0	0	514	464	0	0	0	0	
1	0	0	0	0	523	471	0	0	0	0	
2	0	0	0	0	533	478	0	0	0	0	
3	0	0	0	0	542	484	0	0	0	0	
4	0	0	0	0	550	490	0	0	0	0	
5	0	0	0	0	557	495	0	0	0	0	
6	0	0	0	0	561	498	0	0	0	0	
7	0	0	0	0	563	499	0	0	0	0	
8	0	0	0	0	561	497	0	0	0	0	
9	0	0	0	0	556	494	0	0	0	0	
10	0	0	0	0	548	489	0	0	0	0	
11	0	0	0	0	539	483	0	0	0	0	
12	0	0	0	0	529	477	0	0	0	0	
13	0	0	0	0	520	473	0	0	0	0	
14	0	0	0	0	514	470	0	0	0	0	
15	0	0	0	0	510	470	0	0	0	0	
0	0	0	0	0	511	473	0	0	0	0	
1	0	0	0	0	513	477	0	0	0	0	
2	0	0	0	0	519	483	0	0	0	0	
3	0	0	0	0	526	488	0	0	0	0	
4	0	0	0	0	534	493	0	0	0	0	
5	0	0	0	0	540	497	0	0	0	0	
6	0	0	0	0	546	499	0	0	0	0	
7	0	0	0	0	550	499	0	0	0	0	
8	0	0	0	0	551	497	0	0	0	0	
9	0	0	0	0	549	492	0	0	0	0	
10	0	0	0	0	542	486	0	0	0	0	
11	0	0	0	0	534	477	0	0	0	0	
12	0	0	0	0	523	467	0	0	0	0	
13	0	0	0	0	509	455	0	0	0	0	
14	0	0	0	0	496	445	0	0	0	0	
15	0	0	0	0	482	436	0	0	0	0	
0	0	0	0	0	472	429	0	0	0	0	
1	0	0	0	0	465	425	0	0	0	0	
2	0	0	0	0	463	425	0	0	0	0	
3	0	0	0	0	466	429	0	0	0	0	
4	0	0	0	0	474	438	0	0	0	0	
5	0	0	0	0	488	451	0	0	0	0	
6	0	0	0	0	506	466	0	0	0	0	
7	0	0	0	0	526	483	0	0	0	0	
8	0	0	0	0	546	499	0	0	0	0	
9	0	0	0	0	564	512	0	0	0	0	
10	0	0	0	0	580	523	0	0	0	0	
11	0	0	0	0	590	529	0	0	0	0	
12	0	0	0	0	595	531	0	0	0	0	
13	0	0	0	0	595	529	0	0	0	0	
14	0	0	0	0	590	524	0	0	0	0	
15	0	0	0	0	582	515	0	0	0	0	
0	0	0	0	0	571	506	0	0	0	0	
1	0	0	0	0	559	496	0	0	0	0	
2	0	0	0	0	545	486	0	0	0	0	
3	0	0	0	0	531	475	0	0	0	0	
4	0	0	0	0	519	466	0	0	0	0	
5	0	0	0	0	509	459	0	0	0	0	
6	0	0	0	0	501	454	0	0	0	0	
7	0	0	0	0	496	452	0	0	0	0	
8	0	0	0	0	493	451	0	0	0	0	
9	0	0	0	0	493	451	0	0	0	0	
10	0	0	0	0	494	452	0	0	0	0	
11	0	0	0	0	496	454	0	0	0	0	
12	0	0	0	0	500	455	0	0	0	0	
13	0	0	0	0	504	457	0	0	0	0	
14	0	0	0	0	508	458	0	0	0	0	
15	0	0	0	0	512	460	0	0	0	0	
0	0	0	0	0	516	461	0	0	0	0	
1	0	0	0	0	519	462	0	0	0	0	
2	0	0	0	0	521	462	0	0	0	0	
3	0	0	0	0	522	462	0	0	0	0	
4	0	0	0	0	521	460	0	0	0	0	
5	0	0	0	0	519	459	0	0	0	0	
6	0	0	0	0	516	456	0	0	0	0	
7	0	0	0	0	512	453	0	0	0	0	
8	0	0	0	0	507	451	0	0	0	0	
9	0	0	0	0	504	450	0	0	0	0	
10	0	0	0	0	500	449	0	0	0	0	
11	0	0	0	0	499	450	0	0	0	0	
12	0	0	0	0	499	451	0	0	0	0	
13	0	0	0	0	500	454	0	0	0	0	
14	0	0	0	0	504	459	0	0	0	0	
15	0	0	0	0	508	463	0	0	0	0	
0	0	0	0	0	514	468	0	0	0	0	
1	0	0	0	0	519	472	0	0	0	0	
2	0	0	0	0	525	476	0	0	0	0	
3	0	0	0	0	530	479	0	0	0	0	
4	0	0	0	0	534	480	0	0	0	0	
5	0	0	0	0	537	481	0	0	0	0	
6	0	0	0	0	539	481	0	0	0	0	
7	0	0	0	0	540	481	0	0	0	0	
8	0	0	0	0	541	481	0	0	0	0	
9	0	0	0	0	542	481	0	0	0	0	
10	0	0	0	0	543	483	0	0	0	0	
11	0	0	0	0	544	485	0	0	0	0	
12	0	0	0	0	546	488	0	0	0	0	
13	0	0	0	0	549	493	0	0	0	0	
14	0	0	0	0	552	498	0	0	0	0	
15	0	0	0	0	557	504	0	0	0	0	
0	0	0	0	0	561	510	0	0	0	0	
1	0	0	0	0	567	518	0	0	0	0	
2	0	0	0	0	573	524	0	0	0	0	
3	0	0	0	0	579	531	0	0	0	0	
4	0	0	0	0	583	536	0	0	0	0	
5	0	0	0	0	585	538	0	0	0	0	
6	0	0	0	0	585	538	0	0	0	0	
7	0	0	0	0	583	535	0	0	0	0	
8	0	0	0	0	577	529	0	0	0	0	
9	0	0	0	0	571	521	0	0	0	0	
10	0	0	0	0	562	513	0	0	0	0	
11	0	0	0	0	552	504	0	0	0	0	
12	0	0	0	0	544	497	0	0	0	0	
13	0	0	0	0	536	489	0	0	0	0	
14	0	0	0	0	526	481	0	0	0	0	
15	0	0	0	0	515	473	0	0	0	0	
0	0	0	0	0	505	464	0	0	0	0	
1	0	0	0	0	494	454	0	0	0	0	
2	0	0	0	0	483	444	0	0	0	0	
3	0	0	0	0	473	434	0	0	0	0	
4	0	0	0	0	464	425	0	0	0	0	
5	0	0	0	0	457	419	0	0	0	0	
6	0	0	0	0	452	413	0	0	0	0	
7	0	0	0	0	451	410	0	0	0	0	
8	0	0	0	0	452	409	0	0	0	0	
9	0	0	0	0	455	411	0	0	0	0	
10	0	0	0	0	463	415	0	0	0	0	
11	0	0	0	0	474	423	0	0	0	0	
12	0	0	0	0	487	433	0	0	0	0	
13	0	0	0	0	501	444	0	0	0	0	
14	0	0	0	0	514	455	0	0	0	0	
15	0	0	0	0	527	465	0	0	0	0	
0	0	0	0	0	537	473	0	0	0	0	
1	0	0	0	0	543	478	0	0	0	0	
2	0	0	0	0	545	481	0	0	0	0	
3	0	0	0	0	543	481	0	0	0	0	
4	0	0	0	0	539	478	0	0	0	0	
5	0	0	0	0	531	473	0	0	0	0	
6	0	0	0	0	520	466	0	0	0	0	
7	0	0	0	0	509	459	0	0	0	0	
8	0	0	0	0	499	452	0	0	0	0	
9	0	0	0	0	490	448	0	0	0	0	
10	0	0	0	0	486	445	0	0	0	0	
11	0	0	0	0	484	445	0	0	0	0	
12	0	0	0	0	487	448	0	0	0	0	
13	0	0	0	0	493	454	0	0	0	0	
14	0	0	0	0	503	461	0	0	0	0	
15	0	0	0	0	514	469	0	0	0	0	
0	0	0	0	0	525	476	0	0	0	0	
1	0	0	0	0	536	482	0	0	0	0	
2	0	0	0	0	544	486	0	0	0	0	
3	0	0	0	0	548	487	0	0	0	0	
4	0	0	0	0	551	486	0	0	0	0	
5	0	0	0	0	549	482	0	0	0	0	
6	0	0	0	0	543	476	0	0	0	0	
7	0	0	0	0	535	469	0	0	0	0	
8	0	0	0	0	525	462	0	0	0	0	
9	0	0	0	0	514	454	0	0	0	0	
10	0	0	0	0	503	446	0	0	0	0	
11	0	0	0	0	494	441	0	0	0	0	
12	0	0	0	0	487	438	0	0	0	0	
13	0	0	0	0	481	436	0	0	0	0	
14	0	0	0	0	480	437	0	0	0	0	
15	0	0	0	0	483	441	0	0	0	0	
0	0	0	0	0	490	448	0	0	0	0	
1	0	0	0	0	500	455	0	0	0	0	
2	0	0	0	0	512	465	0	0	0	0	
3	0	0	0	0	526	476	0	0	0	0	
4	0	0	0	0	540	486	0	0	0	0	
5	0	0	0	0	554	496	0	0	0	0	
6	0	0	0	0	564	503	0	0	0	0	
7	0	0	0	0	570	506	0	0	0	0	
8	0	0	0	0	573	507	0	0	0	0	
9	0	0	0	0	571	505	0	0	0	0	
10	0	0	0	0	566	500	0	0	0	0	
11	0	0	0	0	556	494	0	0	0	0	
12	0	0	0	0	544	487	0	0	0	0	
13	0	0	0	0	533	480	0	0	0	0	
14	0	0	0	0	521	473	0	0	0	0	
15	0	0	0	0	510	468	0	0	0	0	
0	0	0	0	0	503	464	0	0	0	0	
1	0	0	0	0	496	462	0	0	0	0	
2	0	0	0	0	495	462	0	0	0	0	
3	0	0	0	0	495	463	0	0	0	0	
4	0	0	0	0	498	465	0	0	0	0	
5	0	0	0	0	503	466	0	0	0	0	
6	0	0	0	0	508	467	0	0	0	0	
7	0	0	0	0	511	465	0	0	0	0	
8	0	0	0	0	512	461	0	0	0	0	
9	0	0	0	0	510	454	0	0	0	0	
10	0	0	0	0	504	443	0	0	0	0	
11	0	0	0	0	492	430	0	0	0	0	
12	0	0	0	0	478	414	0	0	0	0	
13	0	0	0	0	460	396	0	0	0	0	
14	0	0	0	0	439	377	0	0	0	0	
15	0	0	0	0	415	358	0	0	0	0	
0	0	0	0	0	390	339	0	0	0	0	
1	0	0	0	0	365	320	0	0	0	0	
2	0	0	0	0	342	304	0	0	0	0	
3	0	0	0	0	323	292	0	0	0	0	
4	0	0	0	0	309	284	0	0	0	0	
5	0	0	0	0	301	280	0	0	0	0	
6	0	0	0	0	297	278	0	0	0	0	
7	0	0	0	0	296	276	0	0	0	0	
8	0	0	0	0	297	274	0	0	0	0	
9	0	0	0	0	300	271	0	0	0	0	
10	0	0	0	0	302	267	0	0	0	0	
11	0	0	0	0	305	263	0	0	0	0	
12	0	0	0	0	308	259	0	0	0	0	
13	0	0	0	0	311	255	0	0	0	0	
14	0	0	0	0	316	252	0	0	0	0	
15	0	0	0	0	322	254	0	0	0	0	
0	0	0	0	0	331	258	0	0	0	0	
1	0	0	0	0	344	267	0	0	0	0	
2	0	0	0	0	359	280	0	0	0	0	
3	0	0	0	0	376	296	0	0	0	0	
4	0	0	0	0	396	316	0	0	0	0	
5	0	0	0	0	419	339	0	0	0	0	
6	0	0	0	0	443	364	0	0	0	0	
7	0	0	0	0	467	390	0	0	0	0	
8	0	0	0	0	492	417	0	0	0	0	
9	0	0	0	0	515	444	0	0	0	0	
10	0	0	0	0	540	470	0	0	0	0	
11	0	0	0	0	561	493	0	0	0	0	
12	0	0	0	0	579	514	0	0	0	0	
13	0	0	0	0	593	530	0	0	0	0	
14	0	0	0	0	602	540	0	0	0	0	
15	0	0	0	0	605	545	0	0	0	0	
0	0	0	0	0	602	543	0	0	0	0	
1	0	0	0	0	595	537	0	0	0	0	
2	0	0	0	0	583	527	0	0	0	0	
3	0	0	0	0	568	513	0	0	0	0	
4	0	0	0	0	552	499	0	0	0	0	
5	0	0	0	0	536	485	0	0	0	0	
6	0	0	0	0	522	473	0	0	0	0	
7	0	0	0	0	512	463	0	0	0	0	
8	0	0	0	0	504	457	0	0	0	0	
9	0	0	0	0	500	454	0	0	0	0	
10	0	0	0	0	500	453	0	0	0	0	
11	0	0	0	0	502	454	0	0	0	0	
12	0	0	0	0	506	457	0	0	0	0	
13	0	0	0	0	512	463	0	0	0	0	
14	0	0	0	0	521	470	0	0	0	0	
15	0	0	0	0	531	478	0	0	0	0	
0	0	0	0	0	540	486	0	0	0	0	
1	0	0	0	0	550	493	0	0	0	0	
2	0	0	0	0	558	499	0	0	0	0	
3	0	0	0	0	566	505	0	0	0	0	
4	0	0	0	0	572	509	0	0	0	0	
5	0	0	0	0	575	511	0	0	0	0	
6	0	0	0	0	575	510	0	0	0	0	
7	0	0	0	0	573	508	0	0	0	0	
8	0	0	0	0	568	504	0	0	0	0	
9	0	0	0	0	559	497	0	0	0	0	
10	0	0	0	0	548	490	0	0	0	0	
11	0	0	0	0	537	482	0	0	0	0	
12	0	0	0	0	524	475	0	0	0	0	
13	0	0	0	0	514	469	0	0	0	0	
14	0	0	0	0	505	464	0	0	0	0	
15	0	0	0	0	499	462	0	0	0	0	
0	0	0	0	0	497	462	0	0	0	0	
1	0	0	0	0	497	463	0	0	0	0	
2	0	0	0	0	503	467	0	0	0	0	
3	0	0	0	0	511	473	0	0	0	0	
4	0	0	0	0	521	481	0	0	0	0	
5	0	0	0	0	534	489	0	0	0	0	
6	0	0	0	0	546	498	0	0	0	0	
7	0	0	0	0	559	505	0	0	0	0	
8	0	0	0	0	570	512	0	0	0	0	
9	0	0	0	0	579	518	0	0	0	0	
10	0	0	0	0	587	523	0	0	0	0	
11	0	0	0	0	592	527	0	0	0	0	
12	0	0	0	0	600	534	0	0	0	0	
13	0	0	0	0	607	541	0	0	0	0	
14	0	0	0	0	615	551	0	0	0	0	
15	0	0	0	0	624	561	0	0	0	0	
0	0	0	0	0	632	571	0	0	0	0	
1	0	0	0	0	637	578	0	0	0	0	
2	0	0	0	0	636	580	0	0	0	0	
3	0	0	0	0	628	576	0	0	0	0	
4	0	0	0	0	614	566	0	0	0	0	
5	0	0	0	0	596	551	0	0	0	0	
6	0	0	0	0	574	533	0	0	0	0	
7	0	0	0	0	550	512	0	0	0	0	
8	0	0	0	0	526	491	0	0	0	0	
9	0	0	0	0	504	471	0	0	0	0	
10	0	0	0	0	486	452	0	0	0	0	
11	0	0	0	0	471	437	0	0	0	0	
12	0	0	0	0	461	425	0	0	0	0	
13	0	0	0	0	455	415	0	0	0	0	
14	0	0	0	0	452	410	0	0	0	0	
15	0	0	0	0	455	408	0	0	0	0	
0	0	0	0	0	460	409	0	0	0	0	
1	0	0	0	0	468	414	0	0	0	0	
2	0	0	0	0	478	421	0	0	0	0	
3	0	0	0	0	487	429	0	0	0	0	
4	0	0	0	0	499	439	0	0	0	0	
5	0	0	0	0	509	448	0	0	0	0	
6	0	0	0	0	518	457	0	0	0	0	
7	0	0	0	0	525	465	0	0	0	0	
8	0	0	0	0	531	472	0	0	0	0	
9	0	0	0	0	535	478	0	0	0	0	
10	0	0	0	0	539	483	0	0	0	0	
11	0	0	0	0	541	486	0	0	0	0	
12	0	0	0	0	544	489	0	0	0	0	
13	0	0	0	0	546	492	0	0	0	0	
14	0	0	0	0	550	495	0	0	0	0	
15	0	0	0	0	553	498	0	0	0	0	
0	0	0	0	0	557	501	0	0	0	0	
1	0	0	0	0	561	504	0	0	0	0	
2	0	0	0	0	563	505	0	0	0	0	
3	0	0	0	0	566	506	0	0	0	0	
4	0	0	0	0	566	505	0	0	0	0	
5	0	0	0	0	562	502	0	0	0	0	
6	0	0	0	0	556	497	0	0	0	0	
7	0	0	0	0	546	489	0	0	0	0	
8	0	0	0	0	536	481	0	0	0	0	
9	0	0	0	0	524	473	0	0	0	0	
10	0	0	0	0	513	465	0	0	0	0	
11	0	0	0	0	504	460	0	0	0	0	
12	0	0	0	0	498	456	0	0	0	0	
13	0	0	0	0	495	455	0	0	0	0	
14	0	0	0	0	495	456	0	0	0	0	
15	0	0	0	0	497	459	0	0	0	0	
0	0	0	0	0	502	462	0	0	0	0	
1	0	0	0	0	509	465	0	0	0	0	
2	0	0	0	0	516	470	0	0	0	0	
3	0	0	0	0	524	473	0	0	0	0	
4	0	0	0	0	531	477	0	0	0	0	
5	0	0	0	0	538	480	0	0	0	0	
6	0	0	0	0	543	481	0	0	0	0	
7	0	0	0	0	547	483	0	0	0	0	
8	0	0	0	0	549	484	0	0	0	0	
9	0	0	0	0	551	487	0	0	0	0	
10	0	0	0	0	553	489	0	0	0	0	
11	0	0	0	0	553	491	0	0	0	0	
12	0	0	0	0	552	493	0	0	0	0	
13	0	0	0	0	550	493	0	0	0	0	
14	0	0	0	0	546	492	0	0	0	0	
15	0	0	0	0	541	490	0	0	0	0	
0	0	0	0	0	534	487	0	0	0	0	
1	0	0	0	0	528	483	0	0	0	0	
2	0	0	0	0	521	479	0	0	0	0	
3	0	0	0	0	515	474	0	0	0	0	
4	0	0	0	0	511	470	0	0	0	0	
5	0	0	0	0	507	466	0	0	0	0	
6	0	0	0	0	507	464	0	0	0	0	
7	0	0	0	0	509	464	0	0	0	0	
8	0	0	0	0	514	466	0	0	0	0	
9	0	0	0	0	520	469	0	0	0	0	
10	0	0	0	0	528	474	0	0	0	0	
11	0	0	0	0	537	480	0	0	0	0	
12	0	0	0	0	547	487	0	0	0	0	
13	0	0	0	0	556	494	0	0	0	0	
14	0	0	0	0	563	500	0	0	0	0	
15	0	0	0	0	568	505	0	0	0	0	
0	0	0	0	0	572	510	0	0	0	0	
1	0	0	0	0	573	513	0	0	0	0	
2	0	0	0	0	573	516	0	0	0	0	
3	0	0	0	0	572	518	0	0	0	0	
4	0	0	0	0	571	521	0	0	0	0	
5	0	0	0	0	570	523	0	0	0	0	
6	0	0	0	0	570	526	0	0	0	0	
7	0	0	0	0	571	529	0	0	0	0	
8	0	0	0	0	571	531	0	0	0	0	
9	0	0	0	0	570	532	0	0	0	0	
10	0	0	0	0	568	530	0	0	0	0	
11	0	0	0	0	566	526	0	0	0	0	
12	0	0	0	0	561	520	0	0	0	0	
13	0	0	0	0	556	513	0	0	0	0	
14	0	0	0	0	548	504	0	0	0	0	
15	0	0	0	0	539	493	0	0	0	0	
0	0	0	0	0	528	481	0	0	0	0	
1	0	0	0	0	517	470	0	0	0	0	
2	0	0	0	0	505	457	0	0	0	0	
3	0	0	0	0	493	446	0	0	0	0	
4	0	0	0	0	481	436	0	0	0	0	
5	0	0	0	0	472	428	0	0	0	0	
6	0	0	0	0	466	424	0	0	0	0	
7	0	0	0	0	463	422	0	0	0	0	
8	0	0	0	0	464	424	0	0	0	0	
9	0	0	0	0	469	429	0	0	0	0	
10	0	0	0	0	478	436	0	0	0	0	
11	0	0	0	0	488	446	0	0	0	0	
12	0	0	0	0	500	455	0	0	0	0	
13	0	0	0	0	513	464	0	0	0	0	
14	0	0	0	0	524	472	0	0	0	0	
15	0	0	0	0	535	478	0	0	0	0	
0	0	0	0	0	543	482	0	0	0	0	
1	0	0	0	0	549	483	0	0	0	0	
2	0	0	0	0	551	483	0	0	0	0	
3	0	0	0	0	552	481	0	0	0	0	
4	0	0	0	0	551	478	0	0	0	0	
5	0	0	0	0	547	475	0	0	0	0	
6	0	0	0	0	543	472	0	0	0	0	
7	0	0	0	0	539	470	0	0	0	0	
8	0	0	0	0	534	469	0	0	0	0	
9	0	0	0	0	529	469	0	0	0	0	
10	0	0	0	0	524	470	0	0	0	0	
11	0	0	0	0	521	470	0	0	0	0	
12	0	0	0	0	518	472	0	0	0	0	
13	0	0	0	0	515	473	0	0	0	0	
14	0	0	0	0	515	475	0	0	0	0	
15	0	0	0	0	516	478	0	0	0	0	
0	0	0	0	0	519	481	0	0	0	0	
1	0	0	0	0	523	485	0	0	0	0	
2	0	0	0	0	529	489	0	0	0	0	
3	0	0	0	0	535	493	0	0	0	0	
4	0	0	0	0	542	497	0	0	0	0	
5	0	0	0	0	548	500	0	0	0	0	
6	0	0	0	0	553	503	0	0	0	0	
7	0	0	0	0	556	504	0	0	0	0	
8	0	0	0	0	558	504	0	0	0	0	
9	0	0	0	0	558	503	0	0	0	0	
10	0	0	0	0	555	500	0	0	0	0	
11	0	0	0	0	550	497	0	0	0	0	
12	0	0	0	0	542	492	0	0	0	0	
13	0	0	0	0	532	487	0	0	0	0	
14	0	0	0	0	521	480	0	0	0	0	
15	0	0	0	0	510	472	0	0	0	0	
0	0	0	0	0	498	465	0	0	0	0	
1	0	0	0	0	489	459	0	0	0	0	
2	0	0	0	0	484	454	0	0	0	0	
3	0	0	0	0	481	451	0	0	0	0	
4	0	0	0	0	482	450	0	0	0	0	
5	0	0	0	0	486	452	0	0	0	0	
6	0	0	0	0	494	455	0	0	0	0	
7	0	0	0	0	504	460	0	0	0	0	
8	0	0	0	0	515	466	0	0	0	0	
9	0	0	0	0	526	472	0	0	0	0	
10	0	0	0	0	536	476	0	0	0	0	
11	0	0	0	0	543	480	0	0	0	0	
12	0	0	0	0	548	482	0	0	0	0	
13	0	0	0	0	551	483	0	0	0	0	
14	0	0	0	0	551	482	0	0	0	0	
15	0	0	0	0	548	481	0	0	0	0	
0	0	0	0	0	543	479	0	0	0	0	
1	0	0	0	0	537	476	0	0	0	0	
2	0	0	0	0	529	472	0	0	0	0	
3	0	0	0	0	520	468	0	0	0	0	
4	0	0	0	0	511	464	0	0	0	0	
5	0	0	0	0	504	462	0	0	0	0	
6	0	0	0	0	500	462	0	0	0	0	
7	0	0	0	0	499	463	0	0	0	0	
8	0	0	0	0	501	466	0	0	0	0	
9	0	0	0	0	506	470	0	0	0	0	
10	0	0	0	0	513	475	0	0	0	0	
11	0	0	0	0	522	481	0	0	0	0	
12	0	0	0	0	531	486	0	0	0	0	
13	0	0	0	0	538	489	0	0	0	0	
14	0	0	0	0	543	489	0	0	0	0	
15	0	0	0	0	544	488	0	0	0	0	
0	0	0	0	0	542	483	0	0	0	0	
1	0	0	0	0	537	477	0	0	0	0	
2	0	0	0	0	529	470	0	0	0	0	
3	0	0	0	0	519	461	0	0	0	0	
4	0	0	0	0	509	453	0	0	0	0	
5	0	0	0	0	499	446	0	0	0	0	
6	0	0	0	0	490	441	0	0	0	0	
7	0	0	0	0	483	437	0	0	0	0	
8	0	0	0	0	479	435	0	0	0	0	
9	0	0	0	0	478	436	0	0	0	0	
10	0	0	0	0	480	438	0	0	0	0	
11	0	0	0	0	484	441	0	0	0	0	
12	0	0	0	0	489	446	0	0	0	0	
13	0	0	0	0	498	452	0	0	0	0	
14	0	0	0	0	506	458	0	0	0	0	
15	0	0	0	0	516	465	0	0	0	0	
0	0	0	0	0	525	471	0	0	0	0	
1	0	0	0	0	535	477	0	0	0	0	
2	0	0	0	0	543	483	0	0	0	0	
3	0	0	0	0	550	487	0	0	0	0	
4	0	0	0	0	556	491	0	0	0	0	
5	0	0	0	0	560	495	0	0	0	0	
6	0	0	0	0	562	497	0	0	0	0	
7	0	0	0	0	562	498	0	0	0	0	
8	0	0	0	0	560	498	0	0	0	0	
9	0	0	0	0	556	497	0	0	0	0	
10	0	0	0	0	551	495	0	0	0	0	
11	0	0	0	0	544	493	0	0	0	0	
12	0	0	0	0	537	490	0	0	0	0	
13	0	0	0	0	529	486	0	0	0	0	
14	0	0	0	0	522	481	0	0	0	0	
15	0	0	0	0	515	476	0	0	0	0	
0	0	0	0	0	509	471	0	0	0	0	
1	0	0	0	0	505	466	0	0	0	0	
2	0	0	0	0	501	460	0	0	0	0	
3	0	0	0	0	498	455	0	0	0	0	
4	0	0	0	0	497	449	0	0	0	0	
5	0	0	0	0	496	444	0	0	0	0	
6	0	0	0	0	495	440	0	0	0	0	
7	0	0	0	0	496	436	0	0	0	0	
8	0	0	0	0	498	435	0	0	0	0	
9	0	0	0	0	501	435	0	0	0	0	
10	0	0	0	0	504	437	0	0	0	0	
11	0	0	0	0	508	440	0	0	0	0	
12	0	0	0	0	511	445	0	0	0	0	
13	0	0	0	0	515	450	0	0	0	0	
14	0	0	0	0	517	454	0	0	0	0	
15	0	0	0	0	518	458	0	0	0	0	
0	0	0	0	0	519	462	0	0	0	0	
1	0	0	0	0	519	464	0	0	0	0	
2	0	0	0	0	520	467	0	0	0	0	
3	0	0	0	0	521	469	0	0	0	0	
4	0	0	0	0	524	472	0	0	0	0	
5	0	0	0	0	528	475	0	0	0	0	
6	0	0	0	0	533	479	0	0	0	0	
7	0	0	0	0	539	483	0	0	0	0	
8	0	0	0	0	545	486	0	0	0	0	
9	0	0	0	0	549	487	0	0	0	0	
10	0	0	0	0	551	487	0	0	0	0	
11	0	0	0	0	551	487	0	0	0	0	
12	0	0	0	0	550	484	0	0	0	0	
13	0	0	0	0	546	481	0	0	0	0	
14	0	0	0	0	543	479	0	0	0	0	
15	0	0	0	0	539	478	0	0	0	0	
0	0	0	0	0	536	478	0	0	0	0	
1	0	0	0	0	535	480	0	0	0	0	
2	0	0	0	0	536	483	0	0	0	0	
3	0	0	0	0	539	487	0	0	0	0	
4	0	0	0	0	541	491	0	0	0	0	
5	0	0	0	0	543	494	0	0	0	0	
6	0	0	0	0	545	496	0	0	0	0	
7	0	0	0	0	546	496	0	0	0	0	
8	0	0	0	0	545	495	0	0	0	0	
9	0	0	0	0	543	491	0	0	0	0	
10	0	0	0	0	539	486	0	0	0	0	
11	0	0	0	0	535	481	0	0	0	0	
12	0	0	0	0	530	475	0	0	0	0	
13	0	0	0	0	524	467	0	0	0	0	
14	0	0	0	0	517	460	0	0	0	0	
15	0	0	0	0	510	453	0	0	0	0	
0	0	0	0	0	504	446	0	0	0	0	
1	0	0	0	0	496	440	0	0	0	0	
2	0	0	0	0	490	435	0	0	0	0	
3	0	0	0	0	483	430	0	0	0	0	
4	0	0	0	0	479	427	0	0	0	0	
5	0	0	0	0	477	426	0	0	0	0	
6	0	0	0	0	477	427	0	0	0	0	
7	0	0	0	0	479	430	0	0	0	0	
8	0	0	0	0	483	435	0	0	0	0	
9	0	0	0	0	489	441	0	0	0	0	
10	0	0	0	0	499	449	0	0	0	0	
11	0	0	0	0	509	458	0	0	0	0	
12	0	0	0	0	521	468	0	0	0	0	
13	0	0	0	0	535	478	0	0	0	0	
14	0	0	0	0	548	489	0	0	0	0	
15	0	0	0	0	561	499	0	0	0	0	
0	0	0	0	0	572	507	0	0	0	0	
1	0	0	0	0	579	511	0	0	0	0	
2	0	0	0	0	582	512	0	0	0	0	
3	0	0	0	0	579	510	0	0	0	0	
4	0	0	0	0	572	504	0	0	0	0	
5	0	0	0	0	560	493	0	0	0	0	
6	0	0	0	0	544	481	0	0	0	0	
7	0	0	0	0	526	467	0	0	0	0	
8	0	0	0	0	507	453	0	0	0	0	
9	0	0	0	0	489	440	0	0	0	0	
10	0	0	0	0	474	429	0	0	0	0	
11	0	0	0	0	462	421	0	0	0	0	
12	0	0	0	0	455	415	0	0	0	0	
13	0	0	0	0	452	414	0	0	0	0	
14	0	0	0	0	454	415	0	0	0	0	
15	0	0	0	0	459	418	0	0	0	0	
0	0	0	0	0	466	423	0	0	0	0	
1	0	0	0	0	475	428	0	0	0	0	
2	0	0	0	0	485	435	0	0	0	0	
3	0	0	0	0	496	441	0	0	0	0	
4	0	0	0	0	506	446	0	0	0	0	
5	0	0	0	0	514	451	0	0	0	0	
6	0	0	0	0	521	455	0	0	0	0	
7	0	0	0	0	525	458	0	0	0	0	
8	0	0	0	0	528	460	0	0	0	0	
9	0	0	0	0	529	461	0	0	0	0	
10	0	0	0	0	528	462	0	0	0	0	
11	0	0	0	0	527	463	0	0	0	0	
12	0	0	0	0	524	465	0	0	0	0	
13	0	0	0	0	523	468	0	0	0	0	
14	0	0	0	0	522	471	0	0	0	0	
15	0	0	0	0	523	475	0	0	0	0	
0	0	0	0	0	523	479	0	0	0	0	
1	0	0	0	0	524	481	0	0	0	0	
2	0	0	0	0	524	481	0	0	0	0	
3	0	0	0	0	523	480	0	0	0	0	
4	0	0	0	0	521	477	0	0	0	0	
5	0	0	0	0	519	473	0	0	0	0	
6	0	0	0	0	517	467	0	0	0	0	
7	0	0	0	0	515	462	0	0	0	0	
8	0	0	0	0	512	456	0	0	0	0	
9	0	0	0	0	510	451	0	0	0	0	
10	0	0	0	0	509	446	0	0	0	0	
11	0	0	0	0	507	442	0	0	0	0	
12	0	0	0	0	507	440	0	0	0	0	
13	0	0	0	0	507	439	0	0	0	0	
14	0	0	0	0	508	438	0	0	0	0	
15	0	0	0	0	509	440	0	0	0	0	
0	0	0	0	0	511	442	0	0	0	0	
1	0	0	0	0	512	445	0	0	0	0	
2	0	0	0	0	515	449	0	0	0	0	
3	0	0	0	0	517	454	0	0	0	0	
4	0	0	0	0	519	458	0	0	0	0	
5	0	0	0	0	521	463	0	0	0	0	
6	0	0	0	0	524	467	0	0	0	0	
7	0	0	0	0	526	471	0	0	0	0	
8	0	0	0	0	529	475	0	0	0	0	
9	0	0	0	0	531	478	0	0	0	0	
10	0	0	0	0	534	481	0	0	0	0	
11	0	0	0	0	538	483	0	0	0	0	
12	0	0	0	0	542	486	0	0	0	0	
13	0	0	0	0	545	488	0	0	0	0	
14	0	0	0	0	549	491	0	0	0	0	
15	0	0	0	0	551	493	0	0	0	0	
0	0	0	0	0	554	496	0	0	0	0	
1	0	0	0	0	556	499	0	0	0	0	
2	0	0	0	0	557	503	0	0	0	0	
3	0	0	0	0	558	506	0	0	0	0	
4	0	0	0	0	556	508	0	0	0	0	
5	0	0	0	0	554	508	0	0	0	0	
6	0	0	0	0	550	507	0	0	0	0	
7	0	0	0	0	546	505	0	0	0	0	
8	0	0	0	0	541	503	0	0	0	0	
9	0	0	0	0	536	499	0	0	0	0	
10	0	0	0	0	532	495	0	0	0	0	
11	0	0	0	0	529	489	0	0	0	0	
12	0	0	0	0	526	485	0	0	0	0	
13	0	0	0	0	525	480	0	0	0	0	
14	0	0	0	0	525	476	0	0	0	0	
15	0	0	0	0	525	472	0	0	0	0	
0	0	0	0	0	524	466	0	0	0	0	
1	0	0	0	0	521	460	0	0	0	0	
2	0	0	0	0	518	454	0	0	0	0	
3	0	0	0	0	512	447	0	0	0	0	
4	0	0	0	0	507	441	0	0	0	0	
5	0	0	0	0	501	435	0	0	0	0	
6	0	0	0	0	494	430	0	0	0	0	
7	0	0	0	0	487	425	0	0	0	0	
8	0	0	0	0	481	422	0	0	0	0	
9	0	0	0	0	476	420	0	0	0	0	
10	0	0	0	0	472	420	0	0	0	0	
11	0	0	0	0	470	421	0	0	0	0	
12	0	0	0	0	470	423	0	0	0	0	
13	0	0	0	0	473	428	0	0	0	0	
14	0	0	0	0	480	434	0	0	0	0	
15	0	0	0	0	487	440	0	0	0	0	
0	0	0	0	0	498	448	0	0	0	0	
1	0	0	0	0	509	456	0	0	0	0	
2	0	0	0	0	519	463	0	0	0	0	
3	0	0	0	0	530	470	0	0	0	0	
4	0	0	0	0	538	474	0	0	0	0	
5	0	0	0	0	543	477	0	0	0	0	
6	0	0	0	0	546	478	0	0	0	0	
7	0	0	0	0	547	477	0	0	0	0	
8	0	0	0	0	545	475	0	0	0	0	
9	0	0	0	0	540	471	0	0	0	0	
10	0	0	0	0	535	467	0	0	0	0	
11	0	0	0	0	527	463	0	0	0	0	
12	0	0	0	0	520	459	0	0	0	0	
13	0	0	0	0	513	455	0	0	0	0	
14	0	0	0	0	507	452	0	0	0	0	
15	0	0	0	0	501	450	0	0	0	0	
0	0	0	0	0	496	448	0	0	0	0	
1	0	0	0	0	496	449	0	0	0	0	
2	0	0	0	0	497	451	0	0	0	0	
3	0	0	0	0	500	455	0	0	0	0	
4	0	0	0	0	507	460	0	0	0	0	
5	0	0	0	0	515	465	0	0	0	0	
6	0	0	0	0	525	472	0	0	0	0	
7	0	0	0	0	536	478	0	0	0	0	
8	0	0	0	0	546	484	0	0	0	0	
9	0	0	0	0	555	488	0	0	0	0	
10	0	0	0	0	561	491	0	0	0	0	
11	0	0	0	0	565	491	0	0	0	0	
12	0	0	0	0	564	488	0	0	0	0	
13	0	0	0	0	558	482	0	0	0	0	
14	0	0	0	0	549	474	0	0	0	0	
15	0	0	0	0	536	464	0	0	0	0	
0	0	0	0	0	522	454	0	0	0	0	
1	0	0	0	0	506	444	0	0	0	0	
2	0	0	0	0	491	434	0	0	0	0	
3	0	0	0	0	477	425	0	0	0	0	
4	0	0	0	0	465	419	0	0	0	0	
5	0	0	0	0	457	415	0	0	0	0	
6	0	0	0	0	454	415	0	0	0	0	
7	0	0	0	0	454	416	0	0	0	0	
8	0	0	0	0	459	420	0	0	0	0	
9	0	0	0	0	466	426	0	0	0	0	
10	0	0	0	0	477	434	0	0	0	0	
11	0	0	0	0	490	441	0	0	0	0	
12	0	0	0	0	502	449	0	0	0	0	
13	0	0	0	0	514	455	0	0	0	0	
14	0	0	0	0	524	460	0	0	0	0	
15	0	0	0	0	531	464	0	0	0	0	
0	0	0	0	0	535	466	0	0	0	0	
1	0	0	0	0	536	466	0	0	0	0	
2	0	0	0	0	535	465	0	0	0	0	
3	0	0	0	0	531	463	0	0	0	0	
4	0	0	0	0	526	462	0	0	0	0	
5	0	0	0	0	522	461	0	0	0	0	
6	0	0	0	0	518	461	0	0	0	0	
7	0	0	0	0	515	462	0	0	0	0	
8	0	0	0	0	513	463	0	0	0	0	
9	0	0	0	0	513	466	0	0	0	0	
10	0	0	0	0	514	470	0	0	0	0	
11	0	0	0	0	517	474	0	0	0	0	
12	0	0	0	0	520	478	0	0	0	0	
13	0	0	0	0	524	482	0	0	0	0	
14	0	0	0	0	530	487	0	0	0	0	
15	0	0	0	0	536	491	0	0	0	0	
0	0	0	0	0	542	495	0	0	0	0	
1	0	0	0	0	547	498	0	0	0	0	
2	0	0	0	0	551	499	0	0	0	0	
3	0	0	0	0	554	499	0	0	0	0	
4	0	0	0	0	555	497	0	0	0	0	
5	0	0	0	0	552	493	0	0	0	0	
6	0	0	0	0	548	487	0	0	0	0	
7	0	0	0	0	540	479	0	0	0	0	
8	0	0	0	0	530	470	0	0	0	0	
9	0	0	0	0	519	460	0	0	0	0	
10	0	0	0	0	507	451	0	0	0	0	
11	0	0	0	0	495	442	0	0	0	0	
12	0	0	0	0	484	435	0	0	0	0	
13	0	0	0	0	476	430	0	0	0	0	
14	0	0	0	0	472	429	0	0	0	0	
15	0	0	0	0	472	431	0	0	0	0	
0	0	0	0	0	478	437	0	0	0	0	
1	0	0	0	0	487	446	0	0	0	0	
2	0	0	0	0	502	458	0	0	0	0	
3	0	0	0	0	521	473	0	0	0	0	
4	0	0	0	0	542	489	0	0	0	0	
5	0	0	0	0	563	505	0	0	0	0	
6	0	0	0	0	582	519	0	0	0	0	
7	0	0	0	0	599	531	0	0	0	0	
8	0	0	0	0	611	538	0	0	0	0	
9	0	0	0	0	616	541	0	0	0	0	
10	0	0	0	0	615	539	0	0	0	0	
11	0	0	0	0	605	531	0	0	0	0	
12	0	0	0	0	588	517	0	0	0	0	
13	0	0	0	0	564	498	0	0	0	0	
14	0	0	0	0	535	475	0	0	0	0	
15	0	0	0	0	503	450	0	0	0	0	
0	0	0	0	0	467	423	0	0	0	0	
1	0	0	0	0	432	395	0	0	0	0	
2	0	0	0	0	398	366	0	0	0	0	
3	0	0	0	0	366	339	0	0	0	0	
4	0	0	0	0	335	312	0	0	0	0	
5	0	0	0	0	309	287	0	0	0	0	
6	0	0	0	0	287	265	0	0	0	0	
7	0	0	0	0	270	245	0	0	0	0	
8	0	0	0	0	258	229	0	0	0	0	
9	0	0	0	0	249	215	0	0	0	0	
10	0	0	0	0	244	204	0	0	0	0	
11	0	0	0	0	242	195	0	0	0	0	
12	0	0	0	0	243	190	0	0	0	0	
13	0	0	0	0	246	187	0	0	0	0	
14	0	0	0	0	251	187	0	0	0	0	
15	0	0	0	0	258	189	0	0	0	0	
0	0	0	0	0	266	195	0	0	0	0	
1	0	0	0	0	278	204	0	0	0	0	
2	0	0	0	0	291	217	0	0	0	0	
3	0	0	0	0	307	233	0	0	0	0	
4	0	0	0	0	326	253	0	0	0	0	
5	0	0	0	0	348	277	0	0	0	0	
6	0	0	0	0	373	302	0	0	0	0	
7	0	0	0	0	399	328	0	0	0	0	
8	0	0	0	0	425	356	0	0	0	0	
9	0	0	0	0	451	381	0	0	0	0	
10	0	0	0	0	476	406	0	0	0	0	
11	0	0	0	0	499	428	0	0	0	0	
12	0	0	0	0	519	447	0	0	0	0	
13	0	0	0	0	536	462	0	0	0	0	
14	0	0	0	0	548	473	0	0	0	0	
15	0	0	0	0	557	482	0	0	0	0	
0	0	0	0	0	563	488	0	0	0	0	
1	0	0	0	0	566	491	0	0	0	0	
2	0	0	0	0	565	492	0	0	0	0	
3	0	0	0	0	563	492	0	0	0	0	
4	0	0	0	0	558	489	0	0	0	0	
5	0	0	0	0	551	486	0	0	0	0	
6	0	0	0	0	543	480	0	0	0	0	
7	0	0	0	0	534	475	0	0	0	0	
8	0	0	0	0	524	468	0	0	0	0	
9	0	0	0	0	515	463	0	0	0	0	
10	0	0	0	0	508	458	0	0	0	0	
11	0	0	0	0	503	455	0	0	0	0	
12	0	0	0	0	501	453	0	0	0	0	
13	0	0	0	0	501	452	0	0	0	0	
14	0	0	0	0	504	455	0	0	0	0	
15	0	0	0	0	511	459	0	0	0	0	
0	0	0	0	0	519	464	0	0	0	0	
1	0	0	0	0	528	471	0	0	0	0	
2	0	0	0	0	538	477	0	0	0	0	
3	0	0	0	0	546	483	0	0	0	0	
4	0	0	0	0	553	488	0	0	0	0	
5	0	0	0	0	557	491	0	0	0	0	
6	0	0	0	0	558	491	0	0	0	0	
7	0	0	0	0	555	489	0	0	0	0	
8	0	0	0	0	551	487	0	0	0	0	
9	0	0	0	0	544	483	0	0	0	0	
10	0	0	0	0	537	479	0	0	0	0	
11	0	0	0	0	530	476	0	0	0	0	
12	0	0	0	0	524	473	0	0	0	0	
13	0	0	0	0	519	472	0	0	0	0	
14	0	0	0	0	519	472	0	0	0	0	
15	0	0	0	0	519	473	0	0	0	0	
0	0	0	0	0	523	476	0	0	0	0	
1	0	0	0	0	527	480	0	0	0	0	
2	0	0	0	0	533	483	0	0	0	0	
3	0	0	0	0	540	487	0	0	0	0	
4	0	0	0	0	547	492	0	0	0	0	
5	0	0	0	0	555	497	0	0	0	0	
6	0	0	0	0	563	502	0	0	0	0	
7	0	0	0	0	569	507	0	0	0	0	
8	0	0	0	0	575	511	0	0	0	0	
9	0	0	0	0	578	514	0	0	0	0	
10	0	0	0	0	579	515	0	0	0	0	
11	0	0	0	0	577	515	0	0	0	0	
12	0	0	0	0	573	514	0	0	0	0	
13	0	0	0	0	569	511	0	0	0	0	
14	0	0	0	0	563	508	0	0	0	0	
15	0	0	0	0	557	505	0	0	0	0	
0	0	0	0	0	553	503	0	0	0	0	
1	0	0	0	0	550	502	0	0	0	0	
2	0	0	0	0	551	503	0	0	0	0	
3	0	0	0	0	554	506	0	0	0	0	
4	0	0	0	0	561	511	0	0	0	0	
5	0	0	0	0	569	517	0	0	0	0	
6	0	0	0	0	579	524	0	0	0	0	
7	0	0	0	0	588	529	0	0	0	0	
8	0	0	0	0	595	534	0	0	0	0	
9	0	0	0	0	599	535	0	0	0	0	
10	0	0	0	0	599	533	0	0	0	0	
11	0	0	0	0	594	528	0	0	0	0	
12	0	0	0	0	586	521	0	0	0	0	
13	0	0	0	0	574	511	0	0	0	0	
14	0	0	0	0	559	499	0	0	0	0	
15	0	0	0	0	540	485	0	0	0	0	
0	0	0	0	0	521	471	0	0	0	0	
1	0	0	0	0	503	456	0	0	0	0	
2	0	0	0	0	485	443	0	0	0	0	
3	0	0	0	0	471	432	0	0	0	0	
4	0	0	0	0	460	424	0	0	0	0	
5	0	0	0	0	454	420	0	0	0	0	
6	0	0	0	0	454	420	0	0	0	0	
7	0	0	0	0	458	423	0	0	0	0	
8	0	0	0	0	468	431	0	0	0	0	
9	0	0	0	0	482	441	0	0	0	0	
10	0	0	0	0	499	453	0	0	0	0	
11	0	0	0	0	517	466	0	0	0	0	
12	0	0	0	0	534	479	0	0	0	0	
13	0	0	0	0	549	489	0	0	0	0	
14	0	0	0	0	560	497	0	0	0	0	
15	0	0	0	0	567	502	0	0	0	0	
0	0	0	0	0	571	504	0	0	0	0	
1	0	0	0	0	569	503	0	0	0	0	
2	0	0	0	0	565	500	0	0	0	0	
3	0	0	0	0	558	495	0	0	0	0	
4	0	0	0	0	550	490	0	0	0	0	
5	0	0	0	0	541	485	0	0	0	0	
6	0	0	0	0	533	481	0	0	0	0	
7	0	0	0	0	526	477	0	0	0	0	
8	0	0	0	0	519	474	0	0	0	0	
9	0	0	0	0	515	472	0	0	0	0	
10	0	0	0	0	513	472	0	0	0	0	
11	0	0	0	0	513	472	0	0	0	0	
12	0	0	0	0	515	474	0	0	0	0	
13	0	0	0	0	520	477	0	0	0	0	
14	0	0	0	0	526	481	0	0	0	0	
15	0	0	0	0	534	486	0	0	0	0	
0	0	0	0	0	541	489	0	0	0	0	
1	0	0	0	0	547	492	0	0	0	0	
2	0	0	0	0	552	494	0	0	0	0	
3	0	0	0	0	555	495	0	0	0	0	
4	0	0	0	0	556	495	0	0	0	0	
5	0	0	0	0	553	492	0	0	0	0	
6	0	0	0	0	549	487	0	0	0	0	
7	0	0	0	0	543	483	0	0	0	0	
8	0	0	0	0	535	477	0	0	0	0	
9	0	0	0	0	528	473	0	0	0	0	
10	0	0	0	0	523	470	0	0	0	0	
11	0	0	0	0	519	469	0	0	0	0	
12	0	0	0	0	516	468	0	0	0	0	
13	0	0	0	0	516	469	0	0	0	0	
14	0	0	0	0	519	472	0	0	0	0	
15	0	0	0	0	523	475	0	0	0	0	
0	0	0	0	0	529	480	0	0	0	0	
1	0	0	0	0	537	484	0	0	0	0	
2	0	0	0	0	545	489	0	0	0	0	
3	0	0	0	0	555	495	0	0	0	0	
4	0	0	0	0	563	500	0	0	0	0	
5	0	0	0	0	571	505	0	0	0	0	
6	0	0	0	0	576	509	0	0	0	0	
7	0	0	0	0	580	512	0	0	0	0	
8	0	0	0	0	583	513	0	0	0	0	
9	0	0	0	0	582	514	0	0	0	0	
10	0	0	0	0	579	514	0	0	0	0	
11	0	0	0	0	575	512	0	0	0	0	
12	0	0	0	0	568	509	0	0	0	0	
13	0	0	0	0	560	505	0	0	0	0	
14	0	0	0	0	550	499	0	0	0	0	
15	0	0	0	0	540	494	0	0	0	0	
0	0	0	0	0	530	487	0	0	0	0	
1	0	0	0	0	523	483	0	0	0	0	
2	0	0	0	0	519	481	0	0	0	0	
3	0	0	0	0	518	481	0	0	0	0	
4	0	0	0	0	522	484	0	0	0	0	
5	0	0	0	0	528	488	0	0	0	0	
6	0	0	0	0	538	495	0	0	0	0	
7	0	0	0	0	549	501	0	0	0	0	
8	0	0	0	0	560	508	0	0	0	0	
9	0	0	0	0	569	512	0	0	0	0	
10	0	0	0	0	575	514	0	0	0	0	
11	0	0	0	0	577	513	0	0	0	0	
12	0	0	0	0	575	510	0	0	0	0	
13	0	0	0	0	569	504	0	0	0	0	
14	0	0	0	0	560	497	0	0	0	0	
15	0	0	0	0	548	488	0	0	0	0	
0	0	0	0	0	533	479	0	0	0	0	
1	0	0	0	0	518	468	0	0	0	0	
2	0	0	0	0	503	459	0	0	0	0	
3	0	0	0	0	488	450	0	0	0	0	
4	0	0	0	0	477	443	0	0	0	0	
5	0	0	0	0	468	438	0	0	0	0	
6	0	0	0	0	463	435	0	0	0	0	
7	0	0	0	0	463	434	0	0	0	0	
8	0	0	0	0	465	435	0	0	0	0	
9	0	0	0	0	470	436	0	0	0	0	
10	0	0	0	0	478	440	0	0	0	0	
11	0	0	0	0	488	444	0	0	0	0	
12	0	0	0	0	499	450	0	0	0	0	
13	0	0	0	0	511	455	0	0	0	0	
14	0	0	0	0	522	461	0	0	0	0	
15	0	0	0	0	534	467	0	0	0	0	
0	0	0	0	0	544	474	0	0	0	0	
1	0	0	0	0	552	480	0	0	0	0	
2	0	0	0	0	559	485	0	0	0	0	
3	0	0	0	0	563	489	0	0	0	0	
4	0	0	0	0	564	492	0	0	0	0	
5	0	0	0	0	563	494	0	0	0	0	
6	0	0	0	0	559	494	0	0	0	0	
7	0	0	0	0	553	492	0	0	0	0	
8	0	0	0	0	546	490	0	0	0	0	
9	0	0	0	0	539	487	0	0	0	0	
10	0	0	0	0	532	485	0	0	0	0	
11	0	0	0	0	528	483	0	0	0	0	
12	0	0	0	0	526	482	0	0	0	0	
13	0	0	0	0	525	481	0	0	0	0	
14	0	0	0	0	527	481	0	0	0	0	
15	0	0	0	0	529	482	0	0	0	0	
0	0	0	0	0	533	482	0	0	0	0	
1	0	0	0	0	536	482	0	0	0	0	
2	0	0	0	0	539	482	0	0	0	0	
3	0	0	0	0	540	480	0	0	0	0	
4	0	0	0	0	540	478	0	0	0	0	
5	0	0	0	0	537	475	0	0	0	0	
6	0	0	0	0	532	472	0	0	0	0	
7	0	0	0	0	525	467	0	0	0	0	
8	0	0	0	0	517	463	0	0	0	0	
9	0	0	0	0	510	459	0	0	0	0	
10	0	0	0	0	503	455	0	0	0	0	
11	0	0	0	0	497	454	0	0	0	0	
12	0	0	0	0	495	455	0	0	0	0	
13	0	0	0	0	495	457	0	0	0	0	
14	0	0	0	0	499	462	0	0	0	0	
15	0	0	0	0	508	469	0	0	0	0	
0	0	0	0	0	519	479	0	0	0	0	
1	0	0	0	0	534	489	0	0	0	0	
2	0	0	0	0	550	500	0	0	0	0	
3	0	0	0	0	566	511	0	0	0	0	
4	0	0	0	0	579	519	0	0	0	0	
5	0	0	0	0	590	524	0	0	0	0	
6	0	0	0	0	595	526	0	0	0	0	
7	0	0	0	0	596	525	0	0	0	0	
8	0	0	0	0	592	520	0	0	0	0	
9	0	0	0	0	584	514	0	0	0	0	
10	0	0	0	0	574	506	0	0	0	0	
11	0	0	0	0	561	498	0	0	0	0	
12	0	0	0	0	550	491	0	0	0	0	
13	0	0	0	0	540	487	0	0	0	0	
14	0	0	0	0	535	487	0	0	0	0	
15	0	0	0	0	535	492	0	0	0	0	
0	0	0	0	0	539	500	0	0	0	0	
1	0	0	0	0	547	510	0	0	0	0	
2	0	0	0	0	557	520	0	0	0	0	
3	0	0	0	0	567	529	0	0	0	0	
4	0	0	0	0	577	536	0	0	0	0	
5	0	0	0	0	585	541	0	0	0	0	
6	0	0	0	0	591	544	0	0	0	0	
7	0	0	0	0	594	544	0	0	0	0	
8	0	0	0	0	593	539	0	0	0	0	
9	0	0	0	0	587	530	0	0	0	0	
10	0	0	0	0	575	518	0	0	0	0	
11	0	0	0	0	562	504	0	0	0	0	
12	0	0	0	0	544	488	0	0	0	0	
13	0	0	0	0	526	472	0	0	0	0	
14	0	0	0	0	507	456	0	0	0	0	
15	0	0	0	0	489	441	0	0	0	0	
0	0	0	0	0	472	428	0	0	0	0	
1	0	0	0	0	457	418	0	0	0	0	
2	0	0	0	0	445	409	0	0	0	0	
3	0	0	0	0	437	404	0	0	0	0	
4	0	0	0	0	433	402	0	0	0	0	
5	0	0	0	0	432	402	0	0	0	0	
6	0	0	0	0	436	406	0	0	0	0	
7	0	0	0	0	444	411	0	0	0	0	
8	0	0	0	0	453	417	0	0	0	0	
9	0	0	0	0	463	424	0	0	0	0	
10	0	0	0	0	474	430	0	0	0	0	
11	0	0	0	0	485	436	0	0	0	0	
12	0	0	0	0	494	441	0	0	0	0	
13	0	0	0	0	502	445	0	0	0	0	
14	0	0	0	0	508	448	0	0	0	0	
15	0	0	0	0	513	451	0	0	0	0	
0	0	0	0	0	518	454	0	0	0	0	
1	0	0	0	0	521	457	0	0	0	0	
2	0	0	0	0	525	461	0	0	0	0	
3	0	0	0	0	529	466	0	0	0	0	
4	0	0	0	0	534	472	0	0	0	0	
5	0	0	0	0	539	479	0	0	0	0	
6	0	0	0	0	543	485	0	0	0	0	
7	0	0	0	0	549	492	0	0	0	0	
8	0	0	0	0	553	498	0	0	0	0	
9	0	0	0	0	559	504	0	0	0	0	
10	0	0	0	0	563	509	0	0	0	0	
11	0	0	0	0	566	512	0	0	0	0	
12	0	0	0	0	567	513	0	0	0	0	
13	0	0	0	0	567	512	0	0	0	0	
14	0	0	0	0	566	511	0	0	0	0	
15	0	0	0	0	564	508	0	0	0	0	
0	0	0	0	0	562	505	0	0	0	0	
1	0	0	0	0	559	502	0	0	0	0	
2	0	0	0	0	556	498	0	0	0	0	
3	0	0	0	0	553	495	0	0	0	0	
4	0	0	0	0	550	492	0	0	0	0	
5	0	0	0	0	547	488	0	0	0	0	
6	0	0	0	0	543	486	0	0	0	0	
7	0	0	0	0	538	482	0	0	0	0	
8	0	0	0	0	534	479	0	0	0	0	
9	0	0	0	0	528	476	0	0	0	0	
10	0	0	0	0	523	472	0	0	0	0	
11	0	0	0	0	517	468	0	0	0	0	
12	0	0	0	0	511	464	0	0	0	0	
13	0	0	0	0	505	461	0	0	0	0	
14	0	0	0	0	500	457	0	0	0	0	
15	0	0	0	0	497	455	0	0	0	0	
0	0	0	0	0	496	454	0	0	0	0	
1	0	0	0	0	496	454	0	0	0	0	
2	0	0	0	0	499	456	0	0	0	0	
3	0	0	0	0	506	462	0	0	0	0	
4	0	0	0	0	515	469	0	0	0	0	
5	0	0	0	0	527	478	0	0	0	0	
6	0	0	0	0	541	488	0	0	0	0	
7	0	0	0	0	556	499	0	0	0	0	
8	0	0	0	0	570	511	0	0	0	0	
9	0	0	0	0	583	520	0	0	0	0	
10	0	0	0	0	593	527	0	0	0	0	
11	0	0	0	0	599	532	0	0	0	0	
12	0	0	0	0	601	534	0	0	0	0	
13	0	0	0	0	599	532	0	0	0	0	
14	0	0	0	0	592	527	0	0	0	0	
15	0	0	0	0	583	521	0	0	0	0	
0	0	0	0	0	572	514	0	0	0	0	
1	0	0	0	0	562	509	0	0	0	0	
2	0	0	0	0	555	505	0	0	0	0	
3	0	0	0	0	551	504	0	0	0	0	
4	0	0	0	0	551	505	0	0	0	0	
5	0	0	0	0	553	508	0	0	0	0	
6	0	0	0	0	557	511	0	0	0	0	
7	0	0	0	0	561	513	0	0	0	0	
8	0	0	0	0	564	514	0	0	0	0	
9	0	0	0	0	567	514	0	0	0	0	
10	0	0	0	0	566	511	0	0	0	0	
11	0	0	0	0	563	507	0	0	0	0	
12	0	0	0	0	558	501	0	0	0	0	
13	0	0	0	0	552	495	0	0	0	0	
14	0	0	0	0	544	488	0	0	0	0	
15	0	0	0	0	536	482	0	0	0	0	
0	0	0	0	0	527	476	0	0	0	0	
1	0	0	0	0	520	471	0	0	0	0	
2	0	0	0	0	514	468	0	0	0	0	
3	0	0	0	0	510	467	0	0	0	0	
4	0	0	0	0	509	467	0	0	0	0	
5	0	0	0	0	509	469	0	0	0	0	
6	0	0	0	0	513	472	0	0	0	0	
7	0	0	0	0	516	475	0	0	0	0	
8	0	0	0	0	521	478	0	0	0	0	
9	0	0	0	0	525	480	0	0	0	0	
10	0	0	0	0	529	483	0	0	0	0	
11	0	0	0	0	534	485	0	0	0	0	
12	0	0	0	0	537	486	0	0	0	0	
13	0	0	0	0	539	486	0	0	0	0	
14	0	0	0	0	539	484	0	0	0	0	
15	0	0	0	0	536	481	0	0	0	0	
0	0	0	0	0	532	476	0	0	0	0	
1	0	0	0	0	525	469	0	0	0	0	
2	0	0	0	0	516	462	0	0	0	0	
3	0	0	0	0	506	454	0	0	0	0	
4	0	0	0	0	496	445	0	0	0	0	
5	0	0	0	0	486	438	0	0	0	0	
6	0	0	0	0	476	431	0	0	0	0	
7	0	0	0	0	468	426	0	0	0	0	
8	0	0	0	0	463	423	0	0	0	0	
9	0	0	0	0	461	423	0	0	0	0	
10	0	0	0	0	463	425	0	0	0	0	
11	0	0	0	0	468	430	0	0	0	0	
12	0	0	0	0	477	438	0	0	0	0	
13	0	0	0	0	489	447	0	0	0	0	
14	0	0	0	0	503	457	0	0	0	0	
15	0	0	0	0	518	468	0	0	0	0	
0	0	0	0	0	533	478	0	0	0	0	
1	0	0	0	0	546	487	0	0	0	0	
2	0	0	0	0	557	494	0	0	0	0	
3	0	0	0	0	565	499	0	0	0	0	
4	0	0	0	0	571	503	0	0	0	0	
5	0	0	0	0	573	505	0	0	0	0	
6	0	0	0	0	571	504	0	0	0	0	
7	0	0	0	0	566	502	0	0	0	0	
8	0	0	0	0	559	498	0	0	0	0	
9	0	0	0	0	549	493	0	0	0	0	
10	0	0	0	0	539	487	0	0	0	0	
11	0	0	0	0	528	481	0	0	0	0	
12	0	0	0	0	519	476	0	0	0	0	
13	0	0	0	0	510	471	0	0	0	0	
14	0	0	0	0	504	467	0	0	0	0	
15	0	0	0	0	500	464	0	0	0	0	
0	0	0	0	0	499	463	0	0	0	0	
1	0	0	0	0	500	463	0	0	0	0	
2	0	0	0	0	504	464	0	0	0	0	
3	0	0	0	0	511	468	0	0	0	0	
4	0	0	0	0	519	472	0	0	0	0	
5	0	0	0	0	528	477	0	0	0	0	
6	0	0	0	0	538	483	0	0	0	0	
7	0	0	0	0	548	489	0	0	0	0	
8	0	0	0	0	558	496	0	0	0	0	
9	0	0	0	0	567	504	0	0	0	0	
10	0	0	0	0	575	511	0	0	0	0	
11	0	0	0	0	582	519	0	0	0	0	
12	0	0	0	0	588	526	0	0	0	0	
13	0	0	0	0	591	531	0	0	0	0	
14	0	0	0	0	593	534	0	0	0	0	
15	0	0	0	0	591	534	0	0	0	0	
0	0	0	0	0	585	531	0	0	0	0	
1	0	0	0	0	579	526	0	0	0	0	
2	0	0	0	0	571	519	0	0	0	0	
3	0	0	0	0	561	511	0	0	0	0	
4	0	0	0	0	553	503	0	0	0	0	
5	0	0	0	0	545	496	0	0	0	0	
6	0	0	0	0	540	490	0	0	0	0	
7	0	0	0	0	538	487	0	0	0	0	
8	0	0	0	0	537	485	0	0	0	0	
9	0	0	0	0	538	484	0	0	0	0	
10	0	0	0	0	541	485	0	0	0	0	
11	0	0	0	0	544	486	0	0	0	0	
12	0	0	0	0	549	489	0	0	0	0	
13	0	0	0	0	555	494	0	0	0	0	
14	0	0	0	0	560	499	0	0	0	0	
15	0	0	0	0	565	504	0	0	0	0	
0	0	0	0	0	569	510	0	0	0	0	
1	0	0	0	0	572	513	0	0	0	0	
2	0	0	0	0	572	516	0	0	0	0	
3	0	0	0	0	569	517	0	0	0	0	
4	0	0	0	0	566	517	0	0	0	0	
5	0	0	0	0	560	515	0	0	0	0	
6	0	0	0	0	555	512	0	0	0	0	
7	0	0	0	0	549	509	0	0	0	0	
8	0	0	0	0	545	505	0	0	0	0	
9	0	0	0	0	541	501	0	0	0	0	
10	0	0	0	0	538	497	0	0	0	0	
11	0	0	0	0	537	495	0	0	0	0	
12	0	0	0	0	538	492	0	0	0	0	
13	0	0	0	0	540	491	0	0	0	0	
14	0	0	0	0	543	490	0	0	0	0	
15	0	0	0	0	545	490	0	0	0	0	
0	0	0	0	0	549	491	0	0	0	0	
1	0	0	0	0	551	491	0	0	0	0	
2	0	0	0	0	553	490	0	0	0	0	
3	0	0	0	0	553	489	0	0	0	0	
4	0	0	0	0	551	487	0	0	0	0	
5	0	0	0	0	548	486	0	0	0	0	
6	0	0	0	0	542	483	0	0	0	0	
7	0	0	0	0	535	479	0	0	0	0	
8	0	0	0	0	527	474	0	0	0	0	
9	0	0	0	0	518	470	0	0	0	0	
10	0	0	0	0	511	466	0	0	0	0	
11	0	0	0	0	504	463	0	0	0	0	
12	0	0	0	0	499	460	0	0	0	0	
13	0	0	0	0	496	459	0	0	0	0	
14	0	0	0	0	495	459	0	0	0	0	
15	0	0	0	0	498	460	0	0	0	0	
0	0	0	0	0	503	462	0	0	0	0	
1	0	0	0	0	509	465	0	0	0	0	
2	0	0	0	0	515	468	0	0	0	0	
3	0	0	0	0	523	472	0	0	0	0	
4	0	0	0	0	531	476	0	0	0	0	
5	0	0	0	0	536	478	0	0	0	0	
6	0	0	0	0	540	480	0	0	0	0	
7	0	0	0	0	542	481	0	0	0	0	
8	0	0	0	0	542	481	0	0	0	0	
9	0	0	0	0	539	480	0	0	0	0	
10	0	0	0	0	535	477	0	0	0	0	
11	0	0	0	0	529	474	0	0	0	0	
12	0	0	0	0	523	471	0	0	0	0	
13	0	0	0	0	517	467	0	0	0	0	
14	0	0	0	0	512	465	0	0	0	0	
15	0	0	0	0	509	463	0	0	0	0	
0	0	0	0	0	507	462	0	0	0	0	
1	0	0	0	0	506	462	0	0	0	0	
2	0	0	0	0	507	461	0	0	0	0	
3	0	0	0	0	508	461	0	0	0	0	
4	0	0	0	0	509	460	0	0	0	0	
5	0	0	0	0	509	458	0	0	0	0	
6	0	0	0	0	508	455	0	0	0	0	
7	0	0	0	0	506	452	0	0	0	0	
8	0	0	0	0	503	449	0	0	0	0	
9	0	0	0	0	500	447	0	0	0	0	
10	0	0	0	0	498	447	0	0	0	0	
11	0	0	0	0	498	449	0	0	0	0	
12	0	0	0	0	499	453	0	0	0	0	
13	0	0	0	0	505	460	0	0	0	0	
14	0	0	0	0	513	470	0	0	0	0	
15	0	0	0	0	525	482	0	0	0	0	
0	0	0	0	0	537	494	0	0	0	0	
1	0	0	0	0	551	506	0	0	0	0	
2	0	0	0	0	563	516	0	0	0	0	
3	0	0	0	0	573	523	0	0	0	0	
4	0	0	0	0	579	526	0	0	0	0	
5	0	0	0	0	581	524	0	0	0	0	
6	0	0	0	0	579	518	0	0	0	0	
7	0	0	0	0	572	508	0	0	0	0	
8	0	0	0	0	561	495	0	0	0	0	
9	0	0	0	0	548	481	0	0	0	0	
10	0	0	0	0	533	466	0	0	0	0	
11	0	0	0	0	518	452	0	0	0	0	
12	0	0	0	0	505	440	0	0	0	0	
13	0	0	0	0	494	432	0	0	0	0	
14	0	0	0	0	487	426	0	0	0	0	
15	0	0	0	0	483	424	0	0	0	0	
0	0	0	0	0	483	427	0	0	0	0	
1	0	0	0	0	488	433	0	0	0	0	
2	0	0	0	0	497	443	0	0	0	0	
3	0	0	0	0	508	455	0	0	0	0	
4	0	0	0	0	522	468	0	0	0	0	
5	0	0	0	0	536	481	0	0	0	0	
6	0	0	0	0	550	494	0	0	0	0	
7	0	0	0	0	563	505	0	0	0	0	
8	0	0	0	0	572	513	0	0	0	0	
9	0	0	0	0	578	518	0	0	0	0	
10	0	0	0	0	580	519	0	0	0	0	
11	0	0	0	0	579	517	0	0	0	0	
12	0	0	0	0	573	511	0	0	0	0	
13	0	0	0	0	564	503	0	0	0	0	
14	0	0	0	0	553	492	0	0	0	0	
15	0	0	0	0	541	482	0	0	0	0	
0	0	0	0	0	529	472	0	0	0	0	
1	0	0	0	0	518	463	0	0	0	0	
2	0	0	0	0	508	456	0	0	0	0	
3	0	0	0	0	503	452	0	0	0	0	
4	0	0	0	0	499	451	0	0	0	0	
5	0	0	0	0	499	452	0	0	0	0	
6	0	0	0	0	503	456	0	0	0	0	
7	0	0	0	0	508	462	0	0	0	0	
8	0	0	0	0	517	470	0	0	0	0	
9	0	0	0	0	527	479	0	0	0	0	
10	0	0	0	0	538	487	0	0	0	0	
11	0	0	0	0	549	496	0	0	0	0	
12	0	0	0	0	558	502	0	0	0	0	
13	0	0	0	0	565	507	0	0	0	0	
14	0	0	0	0	568	507	0	0	0	0	
15	0	0	0	0	567	504	0	0	0	0	
0	0	0	0	0	563	499	0	0	0	0	
1	0	0	0	0	555	492	0	0	0	0	
2	0	0	0	0	545	483	0	0	0	0	
3	0	0	0	0	533	472	0	0	0	0	
4	0	0	0	0	521	462	0	0	0	0	
5	0	0	0	0	509	452	0	0	0	0	
6	0	0	0	0	497	443	0	0	0	0	
7	0	0	0	0	487	436	0	0	0	0	
8	0	0	0	0	480	431	0	0	0	0	
9	0	0	0	0	477	430	0	0	0	0	
10	0	0	0	0	477	431	0	0	0	0	
11	0	0	0	0	480	435	0	0	0	0	
12	0	0	0	0	487	441	0	0	0	0	
13	0	0	0	0	496	449	0	0	0	0	
14	0	0	0	0	507	457	0	0	0	0	
15	0	0	0	0	516	464	0	0	0	0	
0	0	0	0	0	526	472	0	0	0	0	
1	0	0	0	0	535	478	0	0	0	0	
2	0	0	0	0	540	481	0	0	0	0	
3	0	0	0	0	545	484	0	0	0	0	
4	0	0	0	0	547	485	0	0	0	0	
5	0	0	0	0	547	484	0	0	0	0	
6	0	0	0	0	543	481	0	0	0	0	
7	0	0	0	0	537	476	0	0	0	0	
8	0	0	0	0	529	470	0	0	0	0	
9	0	0	0	0	518	461	0	0	0	0	
10	0	0	0	0	505	451	0	0	0	0	
11	0	0	0	0	491	441	0	0	0	0	
12	0	0	0	0	476	430	0	0	0	0	
13	0	0	0	0	462	421	0	0	0	0	
14	0	0	0	0	450	413	0	0	0	0	
15	0	0	0	0	441	406	0	0	0	0	
0	0	0	0	0	433	401	0	0	0	0	
1	0	0	0	0	427	395	0	0	0	0	
2	0	0	0	0	422	390	0	0	0	0	
3	0	0	0	0	417	384	0	0	0	0	
4	0	0	0	0	414	378	0	0	0	0	
5	0	0	0	0	409	371	0	0	0	0	
6	0	0	0	0	404	361	0	0	0	0	
7	0	0	0	0	397	351	0	0	0	0	
8	0	0	0	0	390	339	0	0	0	0	
9	0	0	0	0	380	326	0	0	0	0	
10	0	0	0	0	370	312	0	0	0	0	
11	0	0	0	0	359	298	0	0	0	0	
12	0	0	0	0	347	285	0	0	0	0	
13	0	0	0	0	335	272	0	0	0	0	
14	0	0	0	0	323	260	0	0	0	0	
15	0	0	0	0	313	249	0	0	0	0	
0	0	0	0	0	304	242	0	0	0	0	
1	0	0	0	0	299	237	0	0	0	0	
2	0	0	0	0	297	236	0	0	0	0	
3	0	0	0	0	299	239	0	0	0	0	
4	0	0	0	0	305	246	0	0	0	0	
5	0	0	0	0	315	256	0	0	0	0	
6	0	0	0	0	330	270	0	0	0	0	
7	0	0	0	0	348	287	0	0	0	0	
8	0	0	0	0	370	307	0	0	0	0	
9	0	0	0	0	394	328	0	0	0	0	
10	0	0	0	0	420	351	0	0	0	0	
11	0	0	0	0	447	374	0	0	0	0	
12	0	0	0	0	473	397	0	0	0	0	
13	0	0	0	0	497	419	0	0	0	0	
14	0	0	0	0	519	439	0	0	0	0	
15	0	0	0	0	537	456	0	0	0	0	
0	0	0	0	0	551	471	0	0	0	0	
1	0	0	0	0	561	481	0	0	0	0	
2	0	0	0	0	567	488	0	0	0	0	
3	0	0	0	0	568	492	0	0	0	0	
4	0	0	0	0	567	494	0	0	0	0	
5	0	0	0	0	563	494	0	0	0	0	
6	0	0	0	0	558	492	0	0	0	0	
7	0	0	0	0	551	489	0	0	0	0	
8	0	0	0	0	545	487	0	0	0	0	
9	0	0	0	0	540	483	0	0	0	0	
10	0	0	0	0	535	481	0	0	0	0	
11	0	0	0	0	531	479	0	0	0	0	
12	0	0	0	0	531	478	0	0	0	0	
13	0	0	0	0	531	478	0	0	0	0	
14	0	0	0	0	535	479	0	0	0	0	
15	0	0	0	0	539	481	0	0	0	0	
0	0	0	0	0	546	485	0	0	0	0	
1	0	0	0	0	552	488	0	0	0	0	
2	0	0	0	0	559	491	0	0	0	0	
3	0	0	0	0	564	495	0	0	0	0	
4	0	0	0	0	569	497	0	0	0	0	
5	0	0	0	0	573	499	0	0	0	0	
6	0	0	0	0	575	502	0	0	0	0	
7	0	0	0	0	577	504	0	0	0	0	
8	0	0	0	0	579	508	0	0	0	0	
9	0	0	0	0	582	513	0	0	0	0	
10	0	0	0	0	586	519	0	0	0	0	
11	0	0	0	0	591	527	0	0	0	0	
12	0	0	0	0	598	535	0	0	0	0	
13	0	0	0	0	604	544	0	0	0	0	
14	0	0	0	0	613	553	0	0	0	0	
15	0	0	0	0	620	560	0	0	0	0	
0	0	0	0	0	624	563	0	0	0	0	
1	0	0	0	0	623	563	0	0	0	0	
2	0	0	0	0	620	560	0	0	0	0	
3	0	0	0	0	612	553	0	0	0	0	
4	0	0	0	0	600	543	0	0	0	0	
5	0	0	0	0	585	529	0	0	0	0	
6	0	0	0	0	568	514	0	0	0	0	
7	0	0	0	0	547	498	0	0	0	0	
8	0	0	0	0	528	482	0	0	0	0	
9	0	0	0	0	511	468	0	0	0	0	
10	0	0	0	0	496	457	0	0	0	0	
11	0	0	0	0	486	448	0	0	0	0	
12	0	0	0	0	479	444	0	0	0	0	
13	0	0	0	0	479	444	0	0	0	0	
14	0	0	0	0	483	448	0	0	0	0	
