# OpenSignals Text File Format. Version 1
# {"": {"position": 0, "device": "", "device name": "", "device connection": "", "sampling rate": 1000, "resolution": [4, 1, 1, 1, 1, 10, 10, 10, 10, 6, 6], "firmware version": 1281, "comments": "", "keywords": "", "mode": 0, "sync interval": 2, "date": "", "time": "", "channels": [1, 2, 3, 4, 5, 6], "sensor": ["RAW", "RAW", "RAW", "RAW", "RAW", "RAW"], "label": ["A1", "A2", "A3", "A4", "A5", "A6"], "column": ["nSeq", "I1", "I2", "O1", "O2", "A1", "A2", "A3", "A4", "A5", "A6"], "special": [{}, {}, {}, {}, {}, {}], "digital IO": [0, 0, 1, 1], "convertedValues": 0}}
# EndOfHeader
0	0	0	0	0	600	0	0	892	0	0	
1	0	0	0	0	593	0	0	928	0	0	
2	0	0	0	0	583	15	0	896	0	0	
3	0	0	0	0	573	163	0	780	0	0	
4	0	0	0	0	563	448	0	585	0	0	
5	0	0	0	0	553	872	0	322	0	0	
6	0	0	0	0	545	1020	0	39	0	0	
7	0	0	0	0	540	1021	0	0	0	0	
8	0	0	0	0	539	1021	0	0	0	0	
9	0	0	0	0	539	1021	0	0	0	0	
10	0	0	0	0	542	1021	0	0	0	0	
11	0	0	0	0	546	831	0	55	0	0	
12	0	0	0	0	551	517	0	167	0	0	
13	0	0	0	0	556	203	0	287	0	0	
14	0	0	0	0	560	0	0	390	0	0	
15	0	0	0	0	560	0	0	454	0	0	
0	0	0	0	0	558	0	0	499	0	0	
1	0	0	0	0	551	31	0	569	0	0	
2	0	0	0	0	542	25	0	663	0	0	
3	0	0	0	0	528	0	0	760	0	0	
4	0	0	0	0	511	0	0	831	0	0	
5	0	0	0	0	492	0	0	855	0	0	
6	0	0	0	0	470	0	0	806	0	0	
7	0	0	0	0	448	94	0	675	0	0	
8	0	0	0	0	427	345	0	463	0	0	
9	0	0	0	0	406	737	0	185	0	0	
10	0	0	0	0	387	1020	0	0	0	0	
11	0	0	0	0	372	1021	0	0	0	0	
12	0	0	0	0	359	1021	0	0	0	0	
13	0	0	0	0	352	1021	0	0	0	0	
14	0	0	0	0	347	1001	0	0	0	0	
15	0	0	0	0	345	729	0	0	0	0	
0	0	0	0	0	347	370	0	45	0	0	
1	0	0	0	0	351	18	0	116	0	0	
2	0	0	0	0	358	0	0	178	0	0	
3	0	0	0	0	367	0	0	211	0	0	
4	0	0	0	0	377	0	0	238	0	0	
5	0	0	0	0	387	0	0	301	0	0	
6	0	0	0	0	398	0	0	401	0	0	
7	0	0	0	0	408	0	0	519	0	0	
8	0	0	0	0	418	0	0	622	0	0	
9	0	0	0	0	428	0	0	683	0	0	
10	0	0	0	0	438	0	0	678	0	0	
11	0	0	0	0	448	81	0	597	0	0	
12	0	0	0	0	459	337	0	439	0	0	
13	0	0	0	0	471	742	0	214	0	0	
14	0	0	0	0	484	1020	0	0	0	0	
15	0	0	0	0	499	1021	0	0	0	0	
0	0	0	0	0	516	1020	0	0	0	0	
1	0	0	0	0	534	1021	0	0	0	0	
2	0	0	0	0	553	1021	0	0	0	0	
3	0	0	0	0	571	847	0	75	0	0	
4	0	0	0	0	589	548	0	194	0	0	
5	0	0	0	0	605	246	0	320	0	0	
6	0	0	0	0	620	30	0	430	0	0	
7	0	0	0	0	631	0	0	499	0	0	
8	0	0	0	0	637	24	0	549	0	0	
9	0	0	0	0	639	90	0	622	0	0	
10	0	0	0	0	636	110	0	719	0	0	
11	0	0	0	0	630	73	0	823	0	0	
12	0	0	0	0	620	8	0	904	0	0	
13	0	0	0	0	606	0	0	938	0	0	
14	0	0	0	0	591	15	0	904	0	0	
15	0	0	0	0	576	154	0	791	0	0	
0	0	0	0	0	562	430	0	597	0	0	
1	0	0	0	0	550	845	0	335	0	0	
2	0	0	0	0	541	1020	0	50	0	0	
3	0	0	0	0	536	1021	0	0	0	0	
4	0	0	0	0	536	1021	0	0	0	0	
5	0	0	0	0	540	1021	0	0	0	0	
6	0	0	0	0	547	1021	0	0	0	0	
7	0	0	0	0	558	849	0	51	0	0	
8	0	0	0	0	572	542	0	165	0	0	
9	0	0	0	0	585	230	0	291	0	0	
10	0	0	0	0	600	4	0	403	0	0	
11	0	0	0	0	612	0	0	479	0	0	
12	0	0	0	0	622	5	0	536	0	0	
13	0	0	0	0	628	60	0	615	0	0	
14	0	0	0	0	630	72	0	721	0	0	
15	0	0	0	0	630	30	0	834	0	0	
0	0	0	0	0	624	0	0	924	0	0	
1	0	0	0	0	615	0	0	967	0	0	
2	0	0	0	0	603	0	0	940	0	0	
3	0	0	0	0	591	129	0	831	0	0	
4	0	0	0	0	577	397	0	639	0	0	
5	0	0	0	0	564	807	0	377	0	0	
6	0	0	0	0	555	1020	0	87	0	0	
7	0	0	0	0	548	1020	0	0	0	0	
8	0	0	0	0	546	1021	0	0	0	0	
9	0	0	0	0	548	1021	0	0	0	0	
10	0	0	0	0	554	1021	0	0	0	0	
11	0	0	0	0	563	839	0	54	0	0	
12	0	0	0	0	574	523	0	172	0	0	
13	0	0	0	0	587	200	0	301	0	0	
14	0	0	0	0	599	0	0	418	0	0	
15	0	0	0	0	610	0	0	497	0	0	
0	0	0	0	0	619	0	0	554	0	0	
1	0	0	0	0	625	44	0	631	0	0	
2	0	0	0	0	627	60	0	729	0	0	
3	0	0	0	0	626	24	0	832	0	0	
4	0	0	0	0	621	0	0	911	0	0	
5	0	0	0	0	614	0	0	942	0	0	
6	0	0	0	0	604	16	0	904	0	0	
7	0	0	0	0	591	162	0	784	0	0	
8	0	0	0	0	580	444	0	586	0	0	
9	0	0	0	0	568	864	0	319	0	0	
10	0	0	0	0	559	1020	0	28	0	0	
11	0	0	0	0	551	1021	0	0	0	0	
12	0	0	0	0	550	1021	0	0	0	0	
13	0	0	0	0	551	1021	0	0	0	0	
14	0	0	0	0	556	1021	0	0	0	0	
15	0	0	0	0	564	884	0	40	0	0	
0	0	0	0	0	575	590	0	150	0	0	
1	0	0	0	0	586	283	0	275	0	0	
2	0	0	0	0	599	53	0	387	0	0	
3	0	0	0	0	609	0	0	465	0	0	
4	0	0	0	0	618	14	0	523	0	0	
5	0	0	0	0	624	72	0	601	0	0	
6	0	0	0	0	627	92	0	705	0	0	
7	0	0	0	0	625	55	0	816	0	0	
8	0	0	0	0	620	0	0	904	0	0	
9	0	0	0	0	612	0	0	945	0	0	
10	0	0	0	0	601	10	0	918	0	0	
11	0	0	0	0	588	144	0	807	0	0	
12	0	0	0	0	576	416	0	616	0	0	
13	0	0	0	0	563	828	0	355	0	0	
14	0	0	0	0	553	1020	0	64	0	0	
15	0	0	0	0	546	1021	0	1	0	0	
0	0	0	0	0	542	1021	0	0	0	0	
1	0	0	0	0	542	1021	0	0	0	0	
2	0	0	0	0	545	1021	0	0	0	0	
3	0	0	0	0	551	881	0	38	0	0	
4	0	0	0	0	560	585	0	146	0	0	
5	0	0	0	0	570	275	0	269	0	0	
6	0	0	0	0	581	42	0	380	0	0	
7	0	0	0	0	591	0	0	457	0	0	
8	0	0	0	0	600	7	0	512	0	0	
9	0	0	0	0	605	66	0	589	0	0	
10	0	0	0	0	607	85	0	691	0	0	
11	0	0	0	0	608	50	0	801	0	0	
12	0	0	0	0	604	0	0	891	0	0	
13	0	0	0	0	597	0	0	932	0	0	
14	0	0	0	0	588	7	0	908	0	0	
15	0	0	0	0	579	139	0	802	0	0	
0	0	0	0	0	569	407	0	614	0	0	
1	0	0	0	0	560	815	0	357	0	0	
2	0	0	0	0	553	1020	0	70	0	0	
3	0	0	0	0	548	1021	0	0	0	0	
4	0	0	0	0	548	1021	0	0	0	0	
5	0	0	0	0	551	1021	0	0	0	0	
6	0	0	0	0	556	1021	0	0	0	0	
7	0	0	0	0	564	889	0	41	0	0	
8	0	0	0	0	573	596	0	151	0	0	
9	0	0	0	0	583	290	0	275	0	0	
10	0	0	0	0	593	60	0	388	0	0	
11	0	0	0	0	601	0	0	466	0	0	
12	0	0	0	0	607	18	0	520	0	0	
13	0	0	0	0	610	84	0	595	0	0	
14	0	0	0	0	610	112	0	694	0	0	
15	0	0	0	0	607	85	0	800	0	0	
0	0	0	0	0	600	28	0	885	0	0	
1	0	0	0	0	591	0	0	925	0	0	
2	0	0	0	0	582	24	0	897	0	0	
3	0	0	0	0	570	162	0	788	0	0	
4	0	0	0	0	559	434	0	600	0	0	
5	0	0	0	0	548	844	0	342	0	0	
6	0	0	0	0	540	1020	0	54	0	0	
7	0	0	0	0	536	1021	0	1	0	0	
8	0	0	0	0	535	1021	0	0	0	0	
9	0	0	0	0	537	1021	0	0	0	0	
10	0	0	0	0	543	1021	0	0	0	0	
11	0	0	0	0	551	893	0	39	0	0	
12	0	0	0	0	562	597	0	149	0	0	
13	0	0	0	0	573	285	0	274	0	0	
14	0	0	0	0	584	46	0	388	0	0	
15	0	0	0	0	593	0	0	467	0	0	
0	0	0	0	0	600	3	0	521	0	0	
1	0	0	0	0	604	62	0	592	0	0	
2	0	0	0	0	604	86	0	689	0	0	
3	0	0	0	0	601	57	0	792	0	0	
4	0	0	0	0	595	1	0	874	0	0	
5	0	0	0	0	587	0	0	910	0	0	
6	0	0	0	0	576	15	0	880	0	0	
7	0	0	0	0	566	151	0	771	0	0	
8	0	0	0	0	554	420	0	583	0	0	
9	0	0	0	0	544	829	0	326	0	0	
10	0	0	0	0	536	1020	0	39	0	0	
11	0	0	0	0	532	1021	0	1	0	0	
12	0	0	0	0	530	1021	0	0	0	0	
13	0	0	0	0	533	1021	0	0	0	0	
14	0	0	0	0	538	1021	0	0	0	0	
15	0	0	0	0	546	900	0	35	0	0	
0	0	0	0	0	557	608	0	143	0	0	
1	0	0	0	0	568	295	0	267	0	0	
2	0	0	0	0	579	54	0	381	0	0	
3	0	0	0	0	590	0	0	462	0	0	
4	0	0	0	0	598	2	0	517	0	0	
5	0	0	0	0	603	60	0	590	0	0	
6	0	0	0	0	605	83	0	688	0	0	
7	0	0	0	0	604	52	0	793	0	0	
8	0	0	0	0	600	0	0	879	0	0	
9	0	0	0	0	593	0	0	919	0	0	
10	0	0	0	0	583	7	0	894	0	0	
11	0	0	0	0	573	135	0	787	0	0	
12	0	0	0	0	562	397	0	601	0	0	
13	0	0	0	0	551	799	0	345	0	0	
14	0	0	0	0	543	1020	0	56	0	0	
15	0	0	0	0	537	1021	0	1	0	0	
0	0	0	0	0	534	1021	0	0	0	0	
1	0	0	0	0	535	1021	0	0	0	0	
2	0	0	0	0	539	1021	0	0	0	0	
3	0	0	0	0	545	899	0	30	0	0	
4	0	0	0	0	553	602	0	136	0	0	
5	0	0	0	0	563	286	0	259	0	0	
6	0	0	0	0	573	39	0	372	0	0	
7	0	0	0	0	582	0	0	452	0	0	
8	0	0	0	0	589	0	0	506	0	0	
9	0	0	0	0	593	54	0	578	0	0	
10	0	0	0	0	595	79	0	676	0	0	
11	0	0	0	0	595	51	0	782	0	0	
12	0	0	0	0	591	0	0	867	0	0	
13	0	0	0	0	584	0	0	908	0	0	
14	0	0	0	0	575	10	0	883	0	0	
15	0	0	0	0	566	140	0	780	0	0	
0	0	0	0	0	555	403	0	595	0	0	
1	0	0	0	0	545	805	0	341	0	0	
2	0	0	0	0	537	1020	0	54	0	0	
3	0	0	0	0	531	1021	0	0	0	0	
4	0	0	0	0	529	1020	0	0	0	0	
5	0	0	0	0	531	1021	0	0	0	0	
6	0	0	0	0	536	1021	0	0	0	0	
7	0	0	0	0	543	909	0	34	0	0	
8	0	0	0	0	551	617	0	143	0	0	
9	0	0	0	0	563	303	0	270	0	0	
10	0	0	0	0	574	54	0	386	0	0	
11	0	0	0	0	583	0	0	469	0	0	
12	0	0	0	0	591	0	0	524	0	0	
13	0	0	0	0	596	51	0	595	0	0	
14	0	0	0	0	599	74	0	691	0	0	
15	0	0	0	0	598	43	0	796	0	0	
0	0	0	0	0	593	0	0	881	0	0	
1	0	0	0	0	587	0	0	922	0	0	
2	0	0	0	0	577	0	0	897	0	0	
3	0	0	0	0	566	118	0	792	0	0	
4	0	0	0	0	555	371	0	606	0	0	
5	0	0	0	0	544	764	0	350	0	0	
6	0	0	0	0	536	1020	0	60	0	0	
7	0	0	0	0	530	1021	0	0	0	0	
8	0	0	0	0	528	1021	0	0	0	0	
9	0	0	0	0	531	1021	0	0	0	0	
10	0	0	0	0	535	1021	0	0	0	0	
11	0	0	0	0	543	902	0	33	0	0	
12	0	0	0	0	553	603	0	143	0	0	
13	0	0	0	0	564	280	0	270	0	0	
14	0	0	0	0	577	24	0	388	0	0	
15	0	0	0	0	588	0	0	473	0	0	
0	0	0	0	0	597	0	0	529	0	0	
1	0	0	0	0	603	36	0	601	0	0	
2	0	0	0	0	605	56	0	698	0	0	
3	0	0	0	0	605	24	0	803	0	0	
4	0	0	0	0	600	0	0	891	0	0	
5	0	0	0	0	593	0	0	935	0	0	
6	0	0	0	0	583	0	0	914	0	0	
7	0	0	0	0	572	110	0	813	0	0	
8	0	0	0	0	561	359	0	630	0	0	
9	0	0	0	0	550	750	0	376	0	0	
10	0	0	0	0	541	1020	0	86	0	0	
11	0	0	0	0	536	1021	0	0	0	0	
12	0	0	0	0	533	1020	0	0	0	0	
13	0	0	0	0	535	1021	0	0	0	0	
14	0	0	0	0	540	1021	0	0	0	0	
15	0	0	0	0	547	908	0	30	0	0	
0	0	0	0	0	557	613	0	139	0	0	
1	0	0	0	0	568	291	0	266	0	0	
2	0	0	0	0	580	34	0	385	0	0	
3	0	0	0	0	590	0	0	471	0	0	
4	0	0	0	0	598	0	0	527	0	0	
5	0	0	0	0	603	34	0	600	0	0	
6	0	0	0	0	606	51	0	701	0	0	
7	0	0	0	0	605	12	0	814	0	0	
8	0	0	0	0	600	0	0	910	0	0	
9	0	0	0	0	593	0	0	962	0	0	
10	0	0	0	0	583	0	0	950	0	0	
11	0	0	0	0	572	77	0	857	0	0	
12	0	0	0	0	561	308	0	680	0	0	
13	0	0	0	0	551	684	0	429	0	0	
14	0	0	0	0	542	1020	0	136	0	0	
15	0	0	0	0	537	1021	0	0	0	0	
0	0	0	0	0	536	1021	0	0	0	0	
1	0	0	0	0	538	1021	0	0	0	0	
2	0	0	0	0	543	1021	0	0	0	0	
3	0	0	0	0	551	899	0	28	0	0	
4	0	0	0	0	562	599	0	134	0	0	
5	0	0	0	0	573	272	0	261	0	0	
6	0	0	0	0	586	11	0	380	0	0	
7	0	0	0	0	596	0	0	467	0	0	
8	0	0	0	0	605	0	0	524	0	0	
9	0	0	0	0	610	31	0	596	0	0	
10	0	0	0	0	613	53	0	696	0	0	
11	0	0	0	0	613	21	0	807	0	0	
12	0	0	0	0	609	0	0	902	0	0	
13	0	0	0	0	603	0	0	952	0	0	
14	0	0	0	0	593	0	0	941	0	0	
15	0	0	0	0	583	91	0	848	0	0	
0	0	0	0	0	572	328	0	672	0	0	
1	0	0	0	0	561	709	0	422	0	0	
2	0	0	0	0	552	1020	0	129	0	0	
3	0	0	0	0	546	1021	0	1	0	0	
4	0	0	0	0	542	1021	0	0	0	0	
5	0	0	0	0	543	1021	0	0	0	0	
6	0	0	0	0	546	1021	0	0	0	0	
7	0	0	0	0	552	917	0	24	0	0	
8	0	0	0	0	560	624	0	129	0	0	
9	0	0	0	0	569	301	0	254	0	0	
10	0	0	0	0	579	39	0	372	0	0	
11	0	0	0	0	588	0	0	459	0	0	
12	0	0	0	0	595	0	0	515	0	0	
13	0	0	0	0	600	35	0	585	0	0	
14	0	0	0	0	602	57	0	684	0	0	
15	0	0	0	0	600	24	0	796	0	0	
0	0	0	0	0	596	0	0	892	0	0	
1	0	0	0	0	590	0	0	947	0	0	
2	0	0	0	0	581	0	0	938	0	0	
3	0	0	0	0	571	78	0	849	0	0	
4	0	0	0	0	562	307	0	677	0	0	
5	0	0	0	0	553	680	0	431	0	0	
6	0	0	0	0	547	1020	0	140	0	0	
7	0	0	0	0	542	1021	0	1	0	0	
8	0	0	0	0	541	1020	0	0	0	0	
9	0	0	0	0	543	1021	0	0	0	0	
10	0	0	0	0	549	1021	0	0	0	0	
11	0	0	0	0	557	920	0	20	0	0	
12	0	0	0	0	566	627	0	121	0	0	
13	0	0	0	0	577	304	0	244	0	0	
14	0	0	0	0	588	40	0	361	0	0	
15	0	0	0	0	597	0	0	447	0	0	
0	0	0	0	0	604	0	0	504	0	0	
1	0	0	0	0	608	34	0	576	0	0	
2	0	0	0	0	610	56	0	678	0	0	
3	0	0	0	0	609	22	0	795	0	0	
4	0	0	0	0	605	0	0	899	0	0	
5	0	0	0	0	598	0	0	961	0	0	
6	0	0	0	0	588	0	0	960	0	0	
7	0	0	0	0	578	64	0	879	0	0	
8	0	0	0	0	567	283	0	712	0	0	
9	0	0	0	0	557	648	0	470	0	0	
10	0	0	0	0	549	1020	0	179	0	0	
11	0	0	0	0	543	1021	0	0	0	0	
12	0	0	0	0	542	1020	0	0	0	0	
13	0	0	0	0	544	1021	0	0	0	0	
14	0	0	0	0	549	1021	0	0	0	0	
15	0	0	0	0	556	908	0	27	0	0	
0	0	0	0	0	565	606	0	135	0	0	
1	0	0	0	0	575	275	0	264	0	0	
2	0	0	0	0	587	5	0	387	0	0	
3	0	0	0	0	596	0	0	476	0	0	
4	0	0	0	0	604	0	0	533	0	0	
5	0	0	0	0	609	25	0	600	0	0	
6	0	0	0	0	611	52	0	693	0	0	
7	0	0	0	0	611	27	0	798	0	0	
8	0	0	0	0	607	0	0	887	0	0	
9	0	0	0	0	600	0	0	935	0	0	
10	0	0	0	0	591	0	0	921	0	0	
11	0	0	0	0	580	99	0	828	0	0	
12	0	0	0	0	569	336	0	654	0	0	
13	0	0	0	0	559	716	0	406	0	0	
14	0	0	0	0	549	1020	0	115	0	0	
15	0	0	0	0	543	1021	0	0	0	0	
0	0	0	0	0	539	1020	0	0	0	0	
1	0	0	0	0	540	1021	0	0	0	0	
2	0	0	0	0	543	1021	0	0	0	0	
3	0	0	0	0	550	944	0	18	0	0	
4	0	0	0	0	558	661	0	120	0	0	
5	0	0	0	0	568	342	0	244	0	0	
6	0	0	0	0	579	75	0	364	0	0	
7	0	0	0	0	589	0	0	452	0	0	
8	0	0	0	0	597	0	0	508	0	0	
9	0	0	0	0	602	37	0	577	0	0	
10	0	0	0	0	604	62	0	677	0	0	
11	0	0	0	0	604	30	0	792	0	0	
12	0	0	0	0	600	0	0	895	0	0	
13	0	0	0	0	592	0	0	959	0	0	
14	0	0	0	0	583	0	0	960	0	0	
15	0	0	0	0	573	57	0	881	0	0	
0	0	0	0	0	562	269	0	718	0	0	
1	0	0	0	0	551	626	0	478	0	0	
2	0	0	0	0	542	1020	0	187	0	0	
3	0	0	0	0	536	1021	0	0	0	0	
4	0	0	0	0	532	1021	0	0	0	0	
5	0	0	0	0	533	1021	0	0	0	0	
6	0	0	0	0	537	1021	0	0	0	0	
7	0	0	0	0	544	916	0	19	0	0	
8	0	0	0	0	552	617	0	123	0	0	
9	0	0	0	0	563	283	0	249	0	0	
10	0	0	0	0	575	7	0	370	0	0	
11	0	0	0	0	586	0	0	461	0	0	
12	0	0	0	0	595	0	0	518	0	0	
13	0	0	0	0	600	18	0	585	0	0	
14	0	0	0	0	604	41	0	682	0	0	
15	0	0	0	0	604	11	0	792	0	0	
0	0	0	0	0	601	0	0	891	0	0	
1	0	0	0	0	595	0	0	950	0	0	
2	0	0	0	0	587	0	0	947	0	0	
3	0	0	0	0	577	64	0	864	0	0	
4	0	0	0	0	567	281	0	699	0	0	
5	0	0	0	0	557	643	0	457	0	0	
6	0	0	0	0	548	1020	0	166	0	0	
7	0	0	0	0	543	1021	0	0	0	0	
8	0	0	0	0	540	1021	0	0	0	0	
9	0	0	0	0	540	1021	0	0	0	0	
10	0	0	0	0	543	1021	0	0	0	0	
11	0	0	0	0	550	937	0	18	0	0	
12	0	0	0	0	558	650	0	121	0	0	
13	0	0	0	0	567	324	0	248	0	0	
14	0	0	0	0	578	49	0	370	0	0	
15	0	0	0	0	587	0	0	462	0	0	
0	0	0	0	0	595	0	0	520	0	0	
1	0	0	0	0	601	31	0	588	0	0	
2	0	0	0	0	604	63	0	683	0	0	
3	0	0	0	0	603	41	0	792	0	0	
4	0	0	0	0	600	0	0	888	0	0	
5	0	0	0	0	593	0	0	946	0	0	
6	0	0	0	0	584	0	0	942	0	0	
7	0	0	0	0	573	82	0	860	0	0	
8	0	0	0	0	563	306	0	693	0	0	
9	0	0	0	0	552	673	0	451	0	0	
10	0	0	0	0	543	1020	0	160	0	0	
11	0	0	0	0	537	1021	0	1	0	0	
12	0	0	0	0	534	1021	0	0	0	0	
13	0	0	0	0	535	1021	0	0	0	0	
14	0	0	0	0	539	1021	0	0	0	0	
15	0	0	0	0	545	951	0	14	0	0	
0	0	0	0	0	553	670	0	115	0	0	
1	0	0	0	0	563	346	0	241	0	0	
2	0	0	0	0	575	72	0	363	0	0	
3	0	0	0	0	585	0	0	456	0	0	
4	0	0	0	0	594	0	0	515	0	0	
5	0	0	0	0	600	34	0	582	0	0	
6	0	0	0	0	603	70	0	675	0	0	
7	0	0	0	0	603	54	0	780	0	0	
8	0	0	0	0	600	3	0	873	0	0	
9	0	0	0	0	594	0	0	927	0	0	
10	0	0	0	0	585	0	0	920	0	0	
11	0	0	0	0	575	99	0	835	0	0	
12	0	0	0	0	567	331	0	669	0	0	
13	0	0	0	0	556	702	0	428	0	0	
14	0	0	0	0	548	1020	0	138	0	0	
15	0	0	0	0	542	1021	0	0	0	0	
0	0	0	0	0	539	1021	0	0	0	0	
1	0	0	0	0	540	1021	0	0	0	0	
2	0	0	0	0	545	1021	0	0	0	0	
3	0	0	0	0	551	968	0	14	0	0	
4	0	0	0	0	562	697	0	117	0	0	
5	0	0	0	0	572	380	0	244	0	0	
6	0	0	0	0	584	108	0	368	0	0	
7	0	0	0	0	594	0	0	462	0	0	
8	0	0	0	0	603	0	0	522	0	0	
9	0	0	0	0	607	39	0	590	0	0	
10	0	0	0	0	609	70	0	688	0	0	
11	0	0	0	0	609	45	0	803	0	0	
12	0	0	0	0	604	0	0	908	0	0	
13	0	0	0	0	597	0	0	975	0	0	
14	0	0	0	0	587	0	0	981	0	0	
15	0	0	0	0	576	48	0	909	0	0	
0	0	0	0	0	565	248	0	751	0	0	
1	0	0	0	0	554	594	0	513	0	0	
2	0	0	0	0	545	1020	0	222	0	0	
3	0	0	0	0	538	1021	0	1	0	0	
4	0	0	0	0	535	1021	0	0	0	0	
5	0	0	0	0	536	1021	0	0	0	0	
6	0	0	0	0	538	1021	0	0	0	0	
7	0	0	0	0	544	947	0	9	0	0	
8	0	0	0	0	553	663	0	107	0	0	
9	0	0	0	0	563	334	0	230	0	0	
10	0	0	0	0	575	52	0	352	0	0	
11	0	0	0	0	585	0	0	446	0	0	
12	0	0	0	0	594	0	0	504	0	0	
13	0	0	0	0	600	20	0	571	0	0	
14	0	0	0	0	604	50	0	666	0	0	
15	0	0	0	0	605	27	0	779	0	0	
0	0	0	0	0	602	0	0	882	0	0	
1	0	0	0	0	597	0	0	949	0	0	
2	0	0	0	0	588	0	0	955	0	0	
3	0	0	0	0	579	50	0	885	0	0	
4	0	0	0	0	569	253	0	729	0	0	
5	0	0	0	0	560	600	0	497	0	0	
6	0	0	0	0	551	1020	0	210	0	0	
7	0	0	0	0	545	1020	0	0	0	0	
8	0	0	0	0	543	1021	0	0	0	0	
9	0	0	0	0	543	1021	0	0	0	0	
10	0	0	0	0	547	1021	0	0	0	0	
11	0	0	0	0	553	946	0	22	0	0	
12	0	0	0	0	562	658	0	132	0	0	
13	0	0	0	0	571	324	0	266	0	0	
14	0	0	0	0	583	39	0	397	0	0	
15	0	0	0	0	592	0	0	498	0	0	
0	0	0	0	0	600	0	0	561	0	0	
1	0	0	0	0	606	18	0	628	0	0	
2	0	0	0	0	609	48	0	723	0	0	
3	0	0	0	0	609	25	0	834	0	0	
4	0	0	0	0	605	0	0	935	0	0	
5	0	0	0	0	598	0	0	1000	0	0	
6	0	0	0	0	589	0	0	1004	0	0	
7	0	0	0	0	578	44	0	930	0	0	
8	0	0	0	0	567	242	0	770	0	0	
9	0	0	0	0	556	584	0	533	0	0	
10	0	0	0	0	547	1020	0	240	0	0	
11	0	0	0	0	540	1021	0	1	0	0	
12	0	0	0	0	538	1020	0	0	0	0	
13	0	0	0	0	539	1021	0	0	0	0	
14	0	0	0	0	543	1021	0	0	0	0	
15	0	0	0	0	550	961	0	8	0	0	
0	0	0	0	0	559	685	0	107	0	0	
1	0	0	0	0	570	360	0	232	0	0	
2	0	0	0	0	582	78	0	358	0	0	
3	0	0	0	0	592	0	0	455	0	0	
4	0	0	0	0	601	0	0	517	0	0	
5	0	0	0	0	608	29	0	584	0	0	
6	0	0	0	0	611	67	0	679	0	0	
7	0	0	0	0	612	54	0	789	0	0	
8	0	0	0	0	609	1	0	890	0	0	
9	0	0	0	0	604	0	0	953	0	0	
10	0	0	0	0	595	0	0	956	0	0	
11	0	0	0	0	585	76	0	883	0	0	
12	0	0	0	0	575	291	0	726	0	0	
13	0	0	0	0	565	647	0	492	0	0	
14	0	0	0	0	556	1020	0	203	0	0	
15	0	0	0	0	550	1021	0	0	0	0	
0	0	0	0	0	547	1021	0	0	0	0	
1	0	0	0	0	547	1021	0	0	0	0	
2	0	0	0	0	550	1021	0	0	0	0	
3	0	0	0	0	556	988	0	5	0	0	
4	0	0	0	0	564	727	0	101	0	0	
5	0	0	0	0	574	413	0	225	0	0	
6	0	0	0	0	584	136	0	348	0	0	
7	0	0	0	0	595	0	0	445	0	0	
8	0	0	0	0	603	0	0	507	0	0	
9	0	0	0	0	609	44	0	574	0	0	
10	0	0	0	0	613	87	0	669	0	0	
11	0	0	0	0	614	75	0	783	0	0	
12	0	0	0	0	612	20	0	888	0	0	
13	0	0	0	0	607	0	0	957	0	0	
14	0	0	0	0	599	0	0	967	0	0	
15	0	0	0	0	590	69	0	902	0	0	
0	0	0	0	0	581	276	0	752	0	0	
1	0	0	0	0	571	625	0	523	0	0	
2	0	0	0	0	563	1020	0	237	0	0	
3	0	0	0	0	557	1021	0	1	0	0	
4	0	0	0	0	553	1021	0	0	0	0	
5	0	0	0	0	553	1021	0	0	0	0	
6	0	0	0	0	556	1021	0	0	0	0	
7	0	0	0	0	562	984	0	12	0	0	
8	0	0	0	0	568	716	0	115	0	0	
9	0	0	0	0	577	395	0	245	0	0	
10	0	0	0	0	587	107	0	375	0	0	
11	0	0	0	0	595	0	0	477	0	0	
12	0	0	0	0	603	0	0	540	0	0	
13	0	0	0	0	608	18	0	606	0	0	
14	0	0	0	0	609	47	0	702	0	0	
15	0	0	0	0	609	22	0	814	0	0	
0	0	0	0	0	605	0	0	921	0	0	
1	0	0	0	0	599	0	0	992	0	0	
2	0	0	0	0	591	0	0	1005	0	0	
3	0	0	0	0	579	25	0	939	0	0	
4	0	0	0	0	570	207	0	789	0	0	
5	0	0	0	0	560	534	0	558	0	0	
6	0	0	0	0	551	989	0	268	0	0	
7	0	0	0	0	544	1021	0	1	0	0	
8	0	0	0	0	541	1021	0	0	0	0	
9	0	0	0	0	541	1021	0	0	0	0	
10	0	0	0	0	545	1021	0	0	0	0	
11	0	0	0	0	551	972	0	0	0	0	
12	0	0	0	0	559	700	0	94	0	0	
13	0	0	0	0	569	374	0	216	0	0	
14	0	0	0	0	581	86	0	339	0	0	
15	0	0	0	0	591	0	0	438	0	0	
0	0	0	0	0	600	0	0	500	0	0	
1	0	0	0	0	607	22	0	566	0	0	
2	0	0	0	0	611	61	0	661	0	0	
3	0	0	0	0	611	45	0	777	0	0	
4	0	0	0	0	608	0	0	887	0	0	
5	0	0	0	0	603	0	0	963	0	0	
6	0	0	0	0	593	0	0	981	0	0	
7	0	0	0	0	583	36	0	921	0	0	
8	0	0	0	0	571	220	0	777	0	0	
9	0	0	0	0	560	548	0	552	0	0	
10	0	0	0	0	550	1003	0	267	0	0	
11	0	0	0	0	542	1021	0	1	0	0	
12	0	0	0	0	537	1020	0	0	0	0	
13	0	0	0	0	537	1021	0	0	0	0	
14	0	0	0	0	540	1021	0	0	0	0	
15	0	0	0	0	546	979	0	2	0	0	
0	0	0	0	0	554	709	0	97	0	0	
1	0	0	0	0	565	383	0	221	0	0	
2	0	0	0	0	576	90	0	347	0	0	
3	0	0	0	0	588	0	0	447	0	0	
4	0	0	0	0	597	0	0	510	0	0	
5	0	0	0	0	603	14	0	575	0	0	
6	0	0	0	0	607	47	0	670	0	0	
7	0	0	0	0	608	24	0	786	0	0	
8	0	0	0	0	605	0	0	897	0	0	
9	0	0	0	0	599	0	0	976	0	0	
10	0	0	0	0	590	0	0	998	0	0	
11	0	0	0	0	580	16	0	941	0	0	
12	0	0	0	0	568	185	0	799	0	0	
13	0	0	0	0	557	500	0	575	0	0	
14	0	0	0	0	547	946	0	290	0	0	
15	0	0	0	0	540	1021	0	8	0	0	
0	0	0	0	0	536	1021	0	0	0	0	
1	0	0	0	0	536	1021	0	0	0	0	
2	0	0	0	0	540	1021	0	0	0	0	
3	0	0	0	0	547	975	0	0	0	0	
4	0	0	0	0	556	703	0	92	0	0	
5	0	0	0	0	567	375	0	215	0	0	
6	0	0	0	0	579	82	0	341	0	0	
7	0	0	0	0	590	0	0	443	0	0	
8	0	0	0	0	600	0	0	506	0	0	
9	0	0	0	0	608	18	0	570	0	0	
10	0	0	0	0	612	59	0	665	0	0	
11	0	0	0	0	614	47	0	781	0	0	
12	0	0	0	0	611	0	0	893	0	0	
13	0	0	0	0	607	0	0	972	0	0	
14	0	0	0	0	599	0	0	995	0	0	
15	0	0	0	0	588	33	0	941	0	0	
0	0	0	0	0	578	214	0	803	0	0	
1	0	0	0	0	567	538	0	583	0	0	
2	0	0	0	0	558	990	0	300	0	0	
3	0	0	0	0	550	1021	1	20	0	0	
4	0	0	0	0	546	1021	0	1	0	0	
5	0	0	0	0	547	1021	0	0	0	0	
6	0	0	0	0	549	1021	0	0	0	0	
7	0	0	0	0	555	991	0	7	0	0	
8	0	0	0	0	563	728	0	106	0	0	
9	0	0	0	0	572	403	0	236	0	0	
10	0	0	0	0	583	108	0	368	0	0	
11	0	0	0	0	593	0	0	473	0	0	
12	0	0	0	0	601	0	0	540	0	0	
13	0	0	0	0	608	13	0	603	0	0	
14	0	0	0	0	609	49	0	694	0	0	
15	0	0	0	0	610	34	0	804	0	0	
0	0	0	0	0	607	0	0	909	0	0	
1	0	0	0	0	600	0	0	982	0	0	
2	0	0	0	0	591	0	0	997	0	0	
3	0	0	0	0	580	27	0	936	0	0	
4	0	0	0	0	569	204	0	791	0	0	
5	0	0	0	0	558	524	0	565	0	0	
6	0	0	0	0	549	975	0	278	0	0	
7	0	0	0	0	543	1020	0	1	0	0	
8	0	0	0	0	540	1021	0	0	0	0	
9	0	0	0	0	541	1021	0	0	0	0	
10	0	0	0	0	545	1021	0	0	0	0	
11	0	0	0	0	552	987	0	4	0	0	
12	0	0	0	0	562	717	0	105	0	0	
13	0	0	0	0	572	385	0	237	0	0	
14	0	0	0	0	585	84	0	371	0	0	
15	0	0	0	0	596	0	0	480	0	0	
0	0	0	0	0	605	0	0	548	0	0	
1	0	0	0	0	612	7	0	612	0	0	
2	0	0	0	0	617	46	0	701	0	0	
3	0	0	0	0	618	37	0	807	0	0	
4	0	0	0	0	615	0	0	906	0	0	
5	0	0	0	0	610	0	0	971	0	0	
6	0	0	0	0	600	0	0	978	0	0	
7	0	0	0	0	590	46	0	910	0	0	
8	0	0	0	0	577	235	0	756	0	0	
9	0	0	0	0	562	562	0	523	0	0	
10	0	0	0	0	548	1015	0	229	0	0	
11	0	0	0	0	535	1021	0	1	0	0	
12	0	0	0	0	523	1021	0	0	0	0	
13	0	0	0	0	514	1021	0	0	0	0	
14	0	0	0	0	507	1021	0	0	0	0	
15	0	0	0	0	502	997	0	0	0	0	
0	0	0	0	0	499	731	0	58	0	0	
1	0	0	0	0	497	398	0	164	0	0	
2	0	0	0	0	496	87	0	273	0	0	
3	0	0	0	0	496	0	0	359	0	0	
4	0	0	0	0	494	0	0	409	0	0	
5	0	0	0	0	489	0	0	458	0	0	
6	0	0	0	0	483	0	0	538	0	0	
7	0	0	0	0	474	0	0	644	0	0	
8	0	0	0	0	462	0	0	750	0	0	
9	0	0	0	0	447	0	0	824	0	0	
10	0	0	0	0	429	0	0	842	0	0	
11	0	0	0	0	408	0	0	783	0	0	
12	0	0	0	0	387	96	0	638	0	0	
13	0	0	0	0	366	362	0	411	0	0	
14	0	0	0	0	346	765	0	120	0	0	
15	0	0	0	0	331	1020	0	0	0	0	
0	0	0	0	0	319	1021	0	0	0	0	
1	0	0	0	0	314	1021	0	0	0	0	
2	0	0	0	0	316	1021	0	0	0	0	
3	0	0	0	0	323	881	0	0	0	0	
4	0	0	0	0	337	538	0	35	0	0	
5	0	0	0	0	357	138	0	131	0	0	
6	0	0	0	0	382	0	0	236	0	0	
7	0	0	0	0	409	0	0	323	0	0	
8	0	0	0	0	438	0	0	379	0	0	
9	0	0	0	0	467	0	0	436	0	0	
10	0	0	0	0	494	0	0	529	0	0	
11	0	0	0	0	518	0	0	652	0	0	
12	0	0	0	0	538	0	0	776	0	0	
13	0	0	0	0	555	0	0	873	0	0	
14	0	0	0	0	566	0	0	918	0	0	
15	0	0	0	0	573	0	0	887	0	0	
0	0	0	0	0	578	107	0	774	0	0	
1	0	0	0	0	579	393	0	577	0	0	
2	0	0	0	0	578	827	0	313	0	0	
3	0	0	0	0	576	1021	0	45	0	0	
4	0	0	0	0	575	1020	0	0	0	0	
5	0	0	0	0	576	1021	0	0	0	0	
6	0	0	0	0	577	1021	0	0	0	0	
7	0	0	0	0	579	1012	0	5	0	0	
8	0	0	0	0	583	768	0	101	0	0	
9	0	0	0	0	588	456	0	228	0	0	
10	0	0	0	0	593	166	0	357	0	0	
11	0	0	0	0	599	0	0	462	0	0	
12	0	0	0	0	604	0	0	526	0	0	
13	0	0	0	0	607	35	0	582	0	0	
14	0	0	0	0	608	92	0	664	0	0	
15	0	0	0	0	609	96	0	768	0	0	
0	0	0	0	0	607	50	0	871	0	0	
1	0	0	0	0	603	0	0	944	0	0	
2	0	0	0	0	596	0	0	963	0	0	
3	0	0	0	0	589	49	0	909	0	0	
4	0	0	0	0	581	229	0	772	0	0	
5	0	0	0	0	573	548	0	556	0	0	
6	0	0	0	0	566	998	0	277	0	0	
7	0	0	0	0	560	1021	0	1	0	0	
8	0	0	0	0	558	1020	0	0	0	0	
9	0	0	0	0	558	1021	0	0	0	0	
10	0	0	0	0	561	1021	0	0	0	0	
11	0	0	0	0	567	1021	0	0	0	0	
12	0	0	0	0	574	794	0	87	0	0	
13	0	0	0	0	584	486	0	212	0	0	
14	0	0	0	0	595	195	0	342	0	0	
15	0	0	0	0	605	6	0	450	0	0	
0	0	0	0	0	614	0	0	519	0	0	
1	0	0	0	0	621	36	0	580	0	0	
2	0	0	0	0	625	92	0	667	0	0	
3	0	0	0	0	626	96	0	775	0	0	
4	0	0	0	0	624	51	0	882	0	0	
5	0	0	0	0	619	0	0	958	0	0	
6	0	0	0	0	610	0	0	980	0	0	
7	0	0	0	0	600	51	0	927	0	0	
8	0	0	0	0	589	232	0	791	0	0	
9	0	0	0	0	577	552	0	574	0	0	
10	0	0	0	0	567	1002	0	292	0	0	
11	0	0	0	0	559	1021	0	6	0	0	
12	0	0	0	0	553	1020	0	0	0	0	
13	0	0	0	0	552	1021	0	0	0	0	
14	0	0	0	0	554	1021	0	0	0	0	
15	0	0	0	0	559	1021	0	0	0	0	
0	0	0	0	0	567	777	0	97	0	0	
1	0	0	0	0	577	457	0	229	0	0	
2	0	0	0	0	588	153	0	367	0	0	
3	0	0	0	0	600	0	0	481	0	0	
4	0	0	0	0	609	0	0	553	0	0	
5	0	0	0	0	616	11	0	614	0	0	
6	0	0	0	0	622	59	0	700	0	0	
7	0	0	0	0	624	58	0	806	0	0	
8	0	0	0	0	622	10	0	910	0	0	
9	0	0	0	0	618	0	0	983	0	0	
10	0	0	0	0	609	0	0	1000	0	0	
11	0	0	0	0	601	33	0	945	0	0	
12	0	0	0	0	590	205	0	806	0	0	
13	0	0	0	0	580	518	0	585	0	0	
14	0	0	0	0	571	964	0	299	0	0	
15	0	0	0	0	563	1020	0	6	0	0	
0	0	0	0	0	558	1021	0	0	0	0	
1	0	0	0	0	556	1021	0	0	0	0	
2	0	0	0	0	559	1021	0	0	0	0	
3	0	0	0	0	563	1021	0	0	0	0	
4	0	0	0	0	571	796	0	72	0	0	
5	0	0	0	0	579	482	0	194	0	0	
6	0	0	0	0	590	183	0	323	0	0	
7	0	0	0	0	600	0	0	432	0	0	
8	0	0	0	0	609	0	0	503	0	0	
9	0	0	0	0	617	19	0	565	0	0	
10	0	0	0	0	622	70	0	653	0	0	
11	0	0	0	0	624	72	0	763	0	0	
12	0	0	0	0	623	26	0	871	0	0	
13	0	0	0	0	619	0	0	951	0	0	
14	0	0	0	0	612	0	0	977	0	0	
15	0	0	0	0	603	37	0	929	0	0	
0	0	0	0	0	593	209	0	796	0	0	
1	0	0	0	0	582	520	0	583	0	0	
2	0	0	0	0	572	964	0	302	0	0	
3	0	0	0	0	563	1021	0	12	0	0	
4	0	0	0	0	558	1020	0	0	0	0	
5	0	0	0	0	556	1021	0	0	0	0	
6	0	0	0	0	556	1021	0	0	0	0	
7	0	0	0	0	561	1021	0	0	0	0	
8	0	0	0	0	567	807	0	69	0	0	
9	0	0	0	0	575	497	0	188	0	0	
10	0	0	0	0	585	198	0	315	0	0	
11	0	0	0	0	595	0	0	422	0	0	
12	0	0	0	0	603	0	0	492	0	0	
13	0	0	0	0	610	20	0	552	0	0	
14	0	0	0	0	614	70	0	640	0	0	
15	0	0	0	0	615	70	0	752	0	0	
0	0	0	0	0	613	19	0	866	0	0	
1	0	0	0	0	609	0	0	952	0	0	
2	0	0	0	0	602	0	0	986	0	0	
3	0	0	0	0	593	19	0	945	0	0	
4	0	0	0	0	583	177	0	822	0	0	
5	0	0	0	0	574	476	0	615	0	0	
6	0	0	0	0	566	912	0	341	0	0	
7	0	0	0	0	560	1021	0	53	0	0	
8	0	0	0	0	556	1021	0	1	0	0	
9	0	0	0	0	556	1021	0	0	0	0	
10	0	0	0	0	558	1021	0	0	0	0	
11	0	0	0	0	562	1021	0	0	0	0	
12	0	0	0	0	569	800	0	71	0	0	
13	0	0	0	0	577	484	0	192	0	0	
14	0	0	0	0	586	179	0	319	0	0	
15	0	0	0	0	595	0	0	428	0	0	
0	0	0	0	0	603	0	0	497	0	0	
1	0	0	0	0	608	8	0	556	0	0	
2	0	0	0	0	611	57	0	639	0	0	
3	0	0	0	0	612	60	0	746	0	0	
4	0	0	0	0	609	16	0	851	0	0	
5	0	0	0	0	604	0	0	930	0	0	
6	0	0	0	0	597	0	0	956	0	0	
7	0	0	0	0	588	33	0	910	0	0	
8	0	0	0	0	578	203	0	780	0	0	
9	0	0	0	0	568	511	0	569	0	0	
10	0	0	0	0	560	953	0	292	0	0	
11	0	0	0	0	553	1020	0	4	0	0	
12	0	0	0	0	549	1020	0	0	0	0	
13	0	0	0	0	548	1021	0	0	0	0	
14	0	0	0	0	551	1021	0	0	0	0	
15	0	0	0	0	556	1021	0	0	0	0	
0	0	0	0	0	564	820	0	67	0	0	
1	0	0	0	0	573	511	0	186	0	0	
2	0	0	0	0	584	208	0	313	0	0	
3	0	0	0	0	594	1	0	423	0	0	
4	0	0	0	0	602	0	0	493	0	0	
5	0	0	0	0	609	16	0	550	0	0	
6	0	0	0	0	612	68	0	633	0	0	
7	0	0	0	0	614	75	0	738	0	0	
8	0	0	0	0	611	32	0	844	0	0	
9	0	0	0	0	606	0	0	923	0	0	
10	0	0	0	0	596	0	0	948	0	0	
11	0	0	0	0	586	30	0	904	0	0	
12	0	0	0	0	575	195	0	776	0	0	
13	0	0	0	0	564	498	0	567	0	0	
14	0	0	0	0	553	935	0	291	0	0	
15	0	0	0	0	545	1020	0	4	0	0	
0	0	0	0	0	540	1021	0	0	0	0	
1	0	0	0	0	539	1021	0	0	0	0	
2	0	0	0	0	540	1021	0	0	0	0	
3	0	0	0	0	545	1021	0	0	0	0	
4	0	0	0	0	553	819	0	69	0	0	
5	0	0	0	0	562	505	0	192	0	0	
6	0	0	0	0	573	200	0	322	0	0	
7	0	0	0	0	584	0	0	435	0	0	
8	0	0	0	0	594	0	0	508	0	0	
9	0	0	0	0	602	12	0	566	0	0	
10	0	0	0	0	607	65	0	648	0	0	
11	0	0	0	0	609	75	0	753	0	0	
12	0	0	0	0	607	35	0	857	0	0	
13	0	0	0	0	603	0	0	935	0	0	
14	0	0	0	0	594	0	0	960	0	0	
15	0	0	0	0	584	33	0	914	0	0	
0	0	0	0	0	573	196	0	785	0	0	
1	0	0	0	0	561	497	0	574	0	0	
2	0	0	0	0	550	932	0	295	0	0	
3	0	0	0	0	541	1021	0	3	0	0	
4	0	0	0	0	535	1021	0	0	0	0	
5	0	0	0	0	533	1021	0	0	0	0	
6	0	0	0	0	534	1021	0	0	0	0	
7	0	0	0	0	538	1021	0	0	0	0	
8	0	0	0	0	546	828	0	54	0	0	
9	0	0	0	0	555	518	0	167	0	0	
10	0	0	0	0	566	210	0	291	0	0	
11	0	0	0	0	577	0	0	399	0	0	
12	0	0	0	0	587	0	0	468	0	0	
13	0	0	0	0	594	8	0	524	0	0	
14	0	0	0	0	599	59	0	607	0	0	
15	0	0	0	0	601	64	0	716	0	0	
0	0	0	0	0	600	17	0	830	0	0	
1	0	0	0	0	595	0	0	921	0	0	
2	0	0	0	0	589	0	0	962	0	0	
3	0	0	0	0	580	9	0	932	0	0	
4	0	0	0	0	571	155	0	818	0	0	
5	0	0	0	0	561	440	0	621	0	0	
6	0	0	0	0	553	863	0	355	0	0	
7	0	0	0	0	546	1020	0	67	0	0	
8	0	0	0	0	542	1021	0	1	0	0	
9	0	0	0	0	542	1021	0	0	0	0	
10	0	0	0	0	544	1021	0	0	0	0	
11	0	0	0	0	549	1021	0	0	0	0	
12	0	0	0	0	556	816	0	79	0	0	
13	0	0	0	0	564	499	0	207	0	0	
14	0	0	0	0	574	185	0	344	0	0	
15	0	0	0	0	583	0	0	463	0	0	
0	0	0	0	0	592	0	0	541	0	0	
1	0	0	0	0	599	0	0	600	0	0	
2	0	0	0	0	603	47	0	680	0	0	
3	0	0	0	0	605	53	0	783	0	0	
4	0	0	0	0	603	9	0	887	0	0	
5	0	0	0	0	599	0	0	965	0	0	
6	0	0	0	0	593	0	0	993	0	0	
7	0	0	0	0	584	15	0	950	0	0	
8	0	0	0	0	575	165	0	824	0	0	
9	0	0	0	0	566	453	0	617	0	0	
10	0	0	0	0	557	879	0	343	0	0	
11	0	0	0	0	551	1021	0	48	0	0	
12	0	0	0	0	546	1020	0	0	0	0	
13	0	0	0	0	545	1021	0	0	0	0	
14	0	0	0	0	546	1021	0	0	0	0	
15	0	0	0	0	550	1021	0	0	0	0	
0	0	0	0	0	556	826	0	65	0	0	
1	0	0	0	0	564	510	0	188	0	0	
2	0	0	0	0	573	195	0	322	0	0	
3	0	0	0	0	582	0	0	440	0	0	
4	0	0	0	0	590	0	0	519	0	0	
5	0	0	0	0	596	0	0	580	0	0	
6	0	0	0	0	600	39	0	666	0	0	
7	0	0	0	0	603	39	0	777	0	0	
8	0	0	0	0	601	0	0	893	0	0	
9	0	0	0	0	598	0	0	983	0	0	
10	0	0	0	0	591	0	0	1020	0	0	
11	0	0	0	0	583	0	0	992	0	0	
12	0	0	0	0	575	128	0	878	0	0	
13	0	0	0	0	565	400	0	679	0	0	
14	0	0	0	0	557	814	0	408	0	0	
15	0	0	0	0	550	1020	0	112	0	0	
0	0	0	0	0	546	1020	0	0	0	0	
1	0	0	0	0	545	1021	0	0	0	0	
2	0	0	0	0	547	1021	0	0	0	0	
3	0	0	0	0	551	1021	0	0	0	0	
4	0	0	0	0	558	819	0	65	0	0	
5	0	0	0	0	566	500	0	189	0	0	
6	0	0	0	0	575	180	0	324	0	0	
7	0	0	0	0	583	0	0	443	0	0	
8	0	0	0	0	591	0	0	524	0	0	
9	0	0	0	0	597	0	0	585	0	0	
10	0	0	0	0	600	31	0	669	0	0	
11	0	0	0	0	601	33	0	778	0	0	
12	0	0	0	0	599	0	0	890	0	0	
13	0	0	0	0	595	0	0	979	0	0	
14	0	0	0	0	588	0	0	1019	0	0	
15	0	0	0	0	580	0	0	988	0	0	
0	0	0	0	0	572	127	0	874	0	0	
1	0	0	0	0	562	398	0	675	0	0	
2	0	0	0	0	555	811	0	405	0	0	
3	0	0	0	0	550	1020	0	108	0	0	
4	0	0	0	0	547	1021	0	1	0	0	
5	0	0	0	0	548	1021	0	0	0	0	
6	0	0	0	0	551	1021	0	0	0	0	
7	0	0	0	0	558	1021	0	0	0	0	
8	0	0	0	0	566	844	0	62	0	0	
9	0	0	0	0	575	534	0	185	0	0	
10	0	0	0	0	585	221	0	320	0	0	
11	0	0	0	0	594	0	0	441	0	0	
12	0	0	0	0	603	0	0	523	0	0	
13	0	0	0	0	609	0	0	586	0	0	
14	0	0	0	0	612	53	0	668	0	0	
15	0	0	0	0	614	66	0	775	0	0	
0	0	0	0	0	611	27	0	886	0	0	
1	0	0	0	0	606	0	0	973	0	0	
2	0	0	0	0	599	0	0	1011	0	0	
3	0	0	0	0	590	13	0	977	0	0	
4	0	0	0	0	579	156	0	860	0	0	
5	0	0	0	0	569	436	0	660	0	0	
6	0	0	0	0	560	855	0	390	0	0	
7	0	0	0	0	552	1020	0	92	0	0	
8	0	0	0	0	547	1021	0	1	0	0	
9	0	0	0	0	546	1021	0	0	0	0	
10	0	0	0	0	548	1021	0	0	0	0	
11	0	0	0	0	552	1021	0	0	0	0	
12	0	0	0	0	559	847	0	67	0	0	
13	0	0	0	0	568	533	0	194	0	0	
14	0	0	0	0	578	213	0	334	0	0	
15	0	0	0	0	588	0	0	460	0	0	
0	0	0	0	0	598	0	0	545	0	0	
1	0	0	0	0	605	0	0	609	0	0	
2	0	0	0	0	610	30	0	691	0	0	
3	0	0	0	0	612	34	0	798	0	0	
4	0	0	0	0	611	0	0	909	0	0	
5	0	0	0	0	608	0	0	995	0	0	
6	0	0	0	0	601	0	0	1020	0	0	
7	0	0	0	0	592	0	0	996	0	0	
8	0	0	0	0	582	126	0	881	0	0	
9	0	0	0	0	572	395	0	683	0	0	
10	0	0	0	0	562	807	0	414	0	0	
11	0	0	0	0	556	1020	0	115	0	0	
12	0	0	0	0	551	1020	0	0	0	0	
13	0	0	0	0	551	1021	0	0	0	0	
14	0	0	0	0	553	1021	0	0	0	0	
15	0	0	0	0	558	1021	0	0	0	0	
0	0	0	0	0	566	855	0	67	0	0	
1	0	0	0	0	575	546	0	195	0	0	
2	0	0	0	0	585	228	0	335	0	0	
3	0	0	0	0	595	0	0	461	0	0	
4	0	0	0	0	603	0	0	547	0	0	
5	0	0	0	0	609	0	0	608	0	0	
6	0	0	0	0	612	40	0	689	0	0	
7	0	0	0	0	612	46	0	796	0	0	
8	0	0	0	0	608	0	0	908	0	0	
9	0	0	0	0	602	0	0	997	0	0	
10	0	0	0	0	593	0	0	1020	0	0	
11	0	0	0	0	582	0	0	1002	0	0	
12	0	0	0	0	571	103	0	891	0	0	
13	0	0	0	0	559	358	0	695	0	0	
14	0	0	0	0	549	756	0	425	0	0	
15	0	0	0	0	542	1020	0	124	0	0	
0	0	0	0	0	537	1021	0	1	0	0	
1	0	0	0	0	536	1021	0	0	0	0	
2	0	0	0	0	539	1021	0	0	0	0	
3	0	0	0	0	545	1021	0	0	0	0	
4	0	0	0	0	555	835	0	53	0	0	
5	0	0	0	0	565	514	0	174	0	0	
6	0	0	0	0	577	185	0	308	0	0	
7	0	0	0	0	589	0	0	430	0	0	
8	0	0	0	0	600	0	0	514	0	0	
9	0	0	0	0	608	0	0	575	0	0	
10	0	0	0	0	614	20	0	654	0	0	
11	0	0	0	0	617	27	0	758	0	0	
12	0	0	0	0	616	0	0	867	0	0	
13	0	0	0	0	612	0	0	953	0	0	
14	0	0	0	0	604	0	0	992	0	0	
15	0	0	0	0	594	0	0	961	0	0	
0	0	0	0	0	583	131	0	847	0	0	
1	0	0	0	0	571	399	0	650	0	0	
2	0	0	0	0	559	808	0	381	0	0	
3	0	0	0	0	550	1020	0	82	0	0	
4	0	0	0	0	542	1021	0	1	0	0	
5	0	0	0	0	539	1021	0	0	0	0	
6	0	0	0	0	538	1021	0	0	0	0	
7	0	0	0	0	541	1021	0	0	0	0	
8	0	0	0	0	547	865	0	44	0	0	
9	0	0	0	0	556	557	0	159	0	0	
10	0	0	0	0	566	237	0	290	0	0	
11	0	0	0	0	576	0	0	409	0	0	
12	0	0	0	0	586	0	0	491	0	0	
13	0	0	0	0	594	0	0	548	0	0	
14	0	0	0	0	599	39	0	627	0	0	
15	0	0	0	0	602	52	0	734	0	0	
0	0	0	0	0	602	12	0	847	0	0	
1	0	0	0	0	599	0	0	942	0	0	
2	0	0	0	0	593	0	0	989	0	0	
3	0	0	0	0	584	0	0	968	0	0	
4	0	0	0	0	576	119	0	865	0	0	
5	0	0	0	0	566	378	0	676	0	0	
6	0	0	0	0	557	780	0	415	0	0	
7	0	0	0	0	549	1021	0	118	0	0	
8	0	0	0	0	544	1021	0	0	0	0	
9	0	0	0	0	543	1021	0	0	0	0	
10	0	0	0	0	544	1021	0	0	0	0	
11	0	0	0	0	549	1021	0	0	0	0	
12	0	0	0	0	556	866	0	46	0	0	
13	0	0	0	0	565	557	0	160	0	0	
14	0	0	0	0	575	234	0	291	0	0	
15	0	0	0	0	585	0	0	410	0	0	
0	0	0	0	0	594	0	0	492	0	0	
1	0	0	0	0	599	0	0	548	0	0	
2	0	0	0	0	603	31	0	624	0	0	
3	0	0	0	0	604	43	0	726	0	0	
4	0	0	0	0	601	4	0	836	0	0	
5	0	0	0	0	595	0	0	925	0	0	
6	0	0	0	0	587	0	0	969	0	0	
7	0	0	0	0	576	0	0	944	0	0	
8	0	0	0	0	565	122	0	839	0	0	
9	0	0	0	0	554	383	0	649	0	0	
10	0	0	0	0	543	785	0	387	0	0	
11	0	0	0	0	536	1020	0	91	0	0	
12	0	0	0	0	530	1021	0	1	0	0	
13	0	0	0	0	529	1021	0	0	0	0	
14	0	0	0	0	531	1021	0	0	0	0	
15	0	0	0	0	537	1021	0	0	0	0	
0	0	0	0	0	546	878	0	43	0	0	
1	0	0	0	0	557	575	0	158	0	0	
2	0	0	0	0	569	255	0	289	0	0	
3	0	0	0	0	582	11	0	410	0	0	
4	0	0	0	0	593	0	0	494	0	0	
5	0	0	0	0	601	0	0	553	0	0	
6	0	0	0	0	608	42	0	632	0	0	
7	0	0	0	0	610	55	0	739	0	0	
8	0	0	0	0	610	14	0	856	0	0	
9	0	0	0	0	606	0	0	955	0	0	
10	0	0	0	0	598	0	0	1008	0	0	
11	0	0	0	0	588	0	0	994	0	0	
12	0	0	0	0	577	93	0	896	0	0	
13	0	0	0	0	565	336	0	712	0	0	
14	0	0	0	0	554	724	0	454	0	0	
15	0	0	0	0	544	1020	0	156	0	0	
0	0	0	0	0	539	1020	0	0	0	0	
1	0	0	0	0	536	1021	0	0	0	0	
2	0	0	0	0	538	1021	0	0	0	0	
3	0	0	0	0	542	1021	0	0	0	0	
4	0	0	0	0	550	855	0	48	0	0	
5	0	0	0	0	560	535	0	168	0	0	
6	0	0	0	0	571	199	0	305	0	0	
7	0	0	0	0	582	0	0	431	0	0	
8	0	0	0	0	592	0	0	519	0	0	
9	0	0	0	0	600	0	0	580	0	0	
10	0	0	0	0	605	14	0	657	0	0	
11	0	0	0	0	608	21	0	762	0	0	
12	0	0	0	0	606	0	0	874	0	0	
13	0	0	0	0	601	0	0	967	0	0	
14	0	0	0	0	593	0	0	1015	0	0	
15	0	0	0	0	583	0	0	996	0	0	
0	0	0	0	0	572	93	0	894	0	0	
1	0	0	0	0	561	339	0	707	0	0	
2	0	0	0	0	550	728	0	444	0	0	
3	0	0	0	0	540	1020	0	143	0	0	
4	0	0	0	0	534	1020	0	0	0	0	
5	0	0	0	0	532	1021	0	0	0	0	
6	0	0	0	0	532	1021	0	0	0	0	
7	0	0	0	0	537	1021	0	0	0	0	
8	0	0	0	0	545	883	0	36	0	0	
9	0	0	0	0	555	580	0	150	0	0	
10	0	0	0	0	567	255	0	282	0	0	
11	0	0	0	0	578	3	0	405	0	0	
12	0	0	0	0	590	0	0	493	0	0	
13	0	0	0	0	599	0	0	553	0	0	
14	0	0	0	0	606	36	0	630	0	0	
15	0	0	0	0	609	57	0	734	0	0	
0	0	0	0	0	609	29	0	845	0	0	
1	0	0	0	0	606	0	0	937	0	0	
2	0	0	0	0	599	0	0	984	0	0	
3	0	0	0	0	590	7	0	964	0	0	
4	0	0	0	0	579	136	0	864	0	0	
5	0	0	0	0	567	398	0	679	0	0	
6	0	0	0	0	556	799	0	420	0	0	
7	0	0	0	0	547	1020	0	123	0	0	
8	0	0	0	0	541	1021	0	0	0	0	
9	0	0	0	0	539	1021	0	0	0	0	
10	0	0	0	0	539	1021	0	0	0	0	
11	0	0	0	0	544	1021	0	0	0	0	
12	0	0	0	0	551	907	0	46	0	0	
13	0	0	0	0	560	610	0	166	0	0	
14	0	0	0	0	571	288	0	303	0	0	
15	0	0	0	0	581	31	0	430	0	0	
0	0	0	0	0	591	0	0	521	0	0	
1	0	0	0	0	600	0	0	582	0	0	
2	0	0	0	0	605	30	0	658	0	0	
3	0	0	0	0	608	43	0	761	0	0	
4	0	0	0	0	607	2	0	875	0	0	
5	0	0	0	0	603	0	0	971	0	0	
6	0	0	0	0	596	0	0	1021	0	0	
7	0	0	0	0	587	0	0	1007	0	0	
8	0	0	0	0	576	80	0	911	0	0	
9	0	0	0	0	565	314	0	729	0	0	
10	0	0	0	0	555	694	0	472	0	0	
11	0	0	0	0	546	1020	0	172	0	0	
12	0	0	0	0	539	1020	0	0	0	0	
13	0	0	0	0	537	1021	0	0	0	0	
14	0	0	0	0	537	1021	0	0	0	0	
15	0	0	0	0	541	1021	0	0	0	0	
0	0	0	0	0	547	890	0	36	0	0	
1	0	0	0	0	556	588	0	150	0	0	
2	0	0	0	0	568	263	0	283	0	0	
3	0	0	0	0	578	5	0	407	0	0	
4	0	0	0	0	589	0	0	496	0	0	
5	0	0	0	0	598	0	0	556	0	0	
6	0	0	0	0	603	32	0	631	0	0	
7	0	0	0	0	606	50	0	736	0	0	
8	0	0	0	0	604	12	0	851	0	0	
9	0	0	0	0	600	0	0	952	0	0	
10	0	0	0	0	593	0	0	1010	0	0	
11	0	0	0	0	582	0	0	1000	0	0	
12	0	0	0	0	571	76	0	910	0	0	
13	0	0	0	0	559	306	0	733	0	0	
14	0	0	0	0	548	681	0	479	0	0	
15	0	0	0	0	539	1020	0	181	0	0	
0	0	0	0	0	533	1020	0	0	0	0	
1	0	0	0	0	531	1021	0	0	0	0	
2	0	0	0	0	531	1021	0	0	0	0	
3	0	0	0	0	536	1021	0	0	0	0	
4	0	0	0	0	543	887	0	37	0	0	
5	0	0	0	0	552	581	0	151	0	0	
6	0	0	0	0	563	251	0	285	0	0	
7	0	0	0	0	575	0	0	410	0	0	
8	0	0	0	0	585	0	0	501	0	0	
9	0	0	0	0	595	0	0	561	0	0	
10	0	0	0	0	600	23	0	636	0	0	
11	0	0	0	0	604	37	0	740	0	0	
12	0	0	0	0	603	0	0	858	0	0	
13	0	0	0	0	599	0	0	960	0	0	
14	0	0	0	0	591	0	0	1020	0	0	
15	0	0	0	0	581	0	0	1013	0	0	
0	0	0	0	0	571	58	0	926	0	0	
1	0	0	0	0	558	276	0	751	0	0	
2	0	0	0	0	547	642	0	498	0	0	
3	0	0	0	0	538	1020	0	198	0	0	
4	0	0	0	0	531	1021	0	1	0	0	
5	0	0	0	0	529	1020	0	0	0	0	
6	0	0	0	0	530	1021	0	0	0	0	
7	0	0	0	0	535	1021	0	0	0	0	
8	0	0	0	0	542	886	0	28	0	0	
9	0	0	0	0	551	577	0	137	0	0	
10	0	0	0	0	563	244	0	268	0	0	
11	0	0	0	0	574	0	0	391	0	0	
12	0	0	0	0	585	0	0	480	0	0	
13	0	0	0	0	595	0	0	539	0	0	
14	0	0	0	0	601	25	0	610	0	0	
15	0	0	0	0	605	48	0	710	0	0	
0	0	0	0	0	605	20	0	823	0	0	
1	0	0	0	0	601	0	0	921	0	0	
2	0	0	0	0	596	0	0	977	0	0	
3	0	0	0	0	587	0	0	968	0	0	
4	0	0	0	0	577	96	0	879	0	0	
5	0	0	0	0	566	334	0	704	0	0	
6	0	0	0	0	555	715	0	454	0	0	
7	0	0	0	0	545	1020	0	158	0	0	
8	0	0	0	0	537	1020	0	0	0	0	
9	0	0	0	0	534	1021	0	0	0	0	
10	0	0	0	0	533	1021	0	0	0	0	
11	0	0	0	0	536	1021	0	0	0	0	
12	0	0	0	0	541	923	0	27	0	0	
13	0	0	0	0	548	635	0	136	0	0	
14	0	0	0	0	559	313	0	266	0	0	
15	0	0	0	0	569	52	0	388	0	0	
0	0	0	0	0	579	0	0	477	0	0	
1	0	0	0	0	586	0	0	535	0	0	
2	0	0	0	0	592	39	0	605	0	0	
3	0	0	0	0	596	63	0	706	0	0	
4	0	0	0	0	596	31	0	820	0	0	
5	0	0	0	0	594	0	0	920	0	0	
6	0	0	0	0	589	0	0	979	0	0	
7	0	0	0	0	581	0	0	974	0	0	
8	0	0	0	0	573	73	0	889	0	0	
9	0	0	0	0	564	298	0	718	0	0	
10	0	0	0	0	555	667	0	471	0	0	
11	0	0	0	0	548	1020	0	176	0	0	
12	0	0	0	0	543	1020	0	0	0	0	
13	0	0	0	0	542	1021	0	0	0	0	
14	0	0	0	0	543	1021	0	0	0	0	
15	0	0	0	0	547	1021	0	0	0	0	
0	0	0	0	0	554	917	0	29	0	0	
1	0	0	0	0	562	625	0	140	0	0	
2	0	0	0	0	572	299	0	271	0	0	
3	0	0	0	0	582	34	0	396	0	0	
4	0	0	0	0	591	0	0	487	0	0	
5	0	0	0	0	598	0	0	545	0	0	
6	0	0	0	0	603	34	0	615	0	0	
7	0	0	0	0	606	60	0	715	0	0	
8	0	0	0	0	604	31	0	828	0	0	
9	0	0	0	0	601	0	0	928	0	0	
10	0	0	0	0	594	0	0	988	0	0	
11	0	0	0	0	585	0	0	984	0	0	
12	0	0	0	0	575	74	0	898	0	0	
13	0	0	0	0	565	297	0	727	0	0	
14	0	0	0	0	555	664	0	477	0	0	
15	0	0	0	0	546	1020	0	179	0	0	
0	0	0	0	0	540	1021	0	0	0	0	
1	0	0	0	0	537	1021	0	0	0	0	
2	0	0	0	0	537	1021	0	0	0	0	
3	0	0	0	0	540	1021	0	0	0	0	
4	0	0	0	0	546	923	0	20	0	0	
5	0	0	0	0	554	630	0	126	0	0	
6	0	0	0	0	564	304	0	254	0	0	
7	0	0	0	0	574	34	0	376	0	0	
8	0	0	0	0	584	0	0	467	0	0	
9	0	0	0	0	591	0	0	526	0	0	
10	0	0	0	0	597	29	0	596	0	0	
11	0	0	0	0	601	56	0	696	0	0	
12	0	0	0	0	601	30	0	809	0	0	
13	0	0	0	0	599	0	0	909	0	0	
14	0	0	0	0	593	0	0	969	0	0	
15	0	0	0	0	586	0	0	965	0	0	
0	0	0	0	0	577	87	0	881	0	0	
1	0	0	0	0	568	317	0	711	0	0	
2	0	0	0	0	558	690	0	465	0	0	
3	0	0	0	0	550	1020	0	169	0	0	
4	0	0	0	0	544	1021	0	1	0	0	
5	0	0	0	0	542	1021	0	0	0	0	
6	0	0	0	0	542	1021	0	0	0	0	
7	0	0	0	0	544	1021	0	0	0	0	
8	0	0	0	0	549	945	0	16	0	0	
9	0	0	0	0	556	666	0	118	0	0	
10	0	0	0	0	564	349	0	243	0	0	
11	0	0	0	0	574	85	0	362	0	0	
12	0	0	0	0	582	0	0	451	0	0	
13	0	0	0	0	589	0	0	507	0	0	
14	0	0	0	0	594	46	0	575	0	0	
15	0	0	0	0	597	77	0	675	0	0	
0	0	0	0	0	597	52	0	792	0	0	
1	0	0	0	0	594	0	0	897	0	0	
2	0	0	0	0	589	0	0	965	0	0	
3	0	0	0	0	580	0	0	968	0	0	
4	0	0	0	0	572	69	0	893	0	0	
5	0	0	0	0	561	286	0	731	0	0	
6	0	0	0	0	551	647	0	489	0	0	
7	0	0	0	0	543	1020	0	196	0	0	
8	0	0	0	0	537	1021	0	1	0	0	
9	0	0	0	0	534	1021	0	0	0	0	
10	0	0	0	0	534	1021	0	0	0	0	
11	0	0	0	0	538	1021	0	0	0	0	
12	0	0	0	0	543	927	0	18	0	0	
13	0	0	0	0	551	634	0	122	0	0	
14	0	0	0	0	561	303	0	249	0	0	
15	0	0	0	0	572	28	0	372	0	0	
0	0	0	0	0	582	0	0	463	0	0	
1	0	0	0	0	588	0	0	519	0	0	
2	0	0	0	0	593	23	0	586	0	0	
3	0	0	0	0	595	49	0	684	0	0	
4	0	0	0	0	594	21	0	798	0	0	
5	0	0	0	0	590	0	0	903	0	0	
6	0	0	0	0	583	0	0	969	0	0	
7	0	0	0	0	575	0	0	974	0	0	
8	0	0	0	0	566	57	0	899	0	0	
9	0	0	0	0	556	268	0	738	0	0	
10	0	0	0	0	546	623	0	497	0	0	
11	0	0	0	0	539	1020	0	204	0	0	
12	0	0	0	0	533	1020	0	0	0	0	
13	0	0	0	0	531	1021	0	0	0	0	
14	0	0	0	0	531	1021	0	0	0	0	
15	0	0	0	0	535	1021	0	0	0	0	
0	0	0	0	0	541	942	0	9	0	0	
1	0	0	0	0	548	657	0	103	0	0	
2	0	0	0	0	559	332	0	223	0	0	
3	0	0	0	0	569	58	0	339	0	0	
4	0	0	0	0	578	0	0	426	0	0	
5	0	0	0	0	586	0	0	480	0	0	
6	0	0	0	0	591	28	0	546	0	0	
7	0	0	0	0	595	60	0	643	0	0	
8	0	0	0	0	596	37	0	759	0	0	
9	0	0	0	0	593	0	0	864	0	0	
10	0	0	0	0	589	0	0	934	0	0	
11	0	0	0	0	582	0	0	940	0	0	
12	0	0	0	0	573	71	0	870	0	0	
13	0	0	0	0	564	289	0	713	0	0	
14	0	0	0	0	555	649	0	479	0	0	
15	0	0	0	0	547	1020	0	191	0	0	
0	0	0	0	0	542	1021	0	0	0	0	
1	0	0	0	0	539	1021	0	0	0	0	
2	0	0	0	0	540	1021	0	0	0	0	
3	0	0	0	0	543	1021	0	0	0	0	
4	0	0	0	0	550	957	0	15	0	0	
5	0	0	0	0	557	679	0	115	0	0	
6	0	0	0	0	568	359	0	239	0	0	
7	0	0	0	0	577	85	0	360	0	0	
8	0	0	0	0	588	0	0	451	0	0	
9	0	0	0	0	595	0	0	507	0	0	
10	0	0	0	0	601	36	0	569	0	0	
11	0	0	0	0	604	71	0	665	0	0	
12	0	0	0	0	604	53	0	776	0	0	
13	0	0	0	0	601	0	0	878	0	0	
14	0	0	0	0	596	0	0	944	0	0	
15	0	0	0	0	588	0	0	947	0	0	
0	0	0	0	0	580	76	0	875	0	0	
1	0	0	0	0	571	294	0	718	0	0	
2	0	0	0	0	562	654	0	484	0	0	
3	0	0	0	0	555	1021	0	197	0	0	
4	0	0	0	0	551	1021	0	1	0	0	
5	0	0	0	0	550	1021	0	0	0	0	
6	0	0	0	0	551	1021	0	0	0	0	
7	0	0	0	0	555	1021	0	0	0	0	
8	0	0	0	0	561	972	0	16	0	0	
9	0	0	0	0	568	703	0	120	0	0	
10	0	0	0	0	577	389	0	247	0	0	
11	0	0	0	0	586	116	0	371	0	0	
12	0	0	0	0	594	0	0	465	0	0	
13	0	0	0	0	600	0	0	523	0	0	
14	0	0	0	0	603	43	0	585	0	0	
15	0	0	0	0	604	82	0	677	0	0	
0	0	0	0	0	602	68	0	785	0	0	
1	0	0	0	0	597	13	0	884	0	0	
2	0	0	0	0	590	0	0	947	0	0	
3	0	0	0	0	581	0	0	948	0	0	
4	0	0	0	0	572	83	0	873	0	0	
5	0	0	0	0	562	301	0	714	0	0	
6	0	0	0	0	553	659	0	477	0	0	
7	0	0	0	0	546	1020	0	187	0	0	
8	0	0	0	0	541	1021	0	0	0	0	
9	0	0	0	0	539	1021	0	0	0	0	
10	0	0	0	0	540	1021	0	0	0	0	
11	0	0	0	0	543	1021	0	0	0	0	
12	0	0	0	0	550	972	0	12	0	0	
13	0	0	0	0	558	701	0	113	0	0	
14	0	0	0	0	567	381	0	240	0	0	
15	0	0	0	0	576	103	0	365	0	0	
0	0	0	0	0	586	0	0	460	0	0	
1	0	0	0	0	593	0	0	519	0	0	
2	0	0	0	0	599	33	0	584	0	0	
3	0	0	0	0	602	71	0	678	0	0	
4	0	0	0	0	603	57	0	788	0	0	
5	0	0	0	0	601	3	0	891	0	0	
6	0	0	0	0	596	0	0	957	0	0	
7	0	0	0	0	589	0	0	962	0	0	
8	0	0	0	0	580	77	0	890	0	0	
9	0	0	0	0	571	292	0	733	0	0	
10	0	0	0	0	561	647	0	496	0	0	
11	0	0	0	0	552	1020	0	204	0	0	
12	0	0	0	0	543	1021	0	1	0	0	
13	0	0	0	0	538	1021	0	0	0	0	
14	0	0	0	0	534	1021	0	0	0	0	
15	0	0	0	0	531	1021	0	0	0	0	
0	0	0	0	0	529	963	0	5	0	0	
1	0	0	0	0	529	683	0	100	0	0	
2	0	0	0	0	529	350	0	220	0	0	
3	0	0	0	0	529	57	0	336	0	0	
4	0	0	0	0	527	0	0	423	0	0	
5	0	0	0	0	523	0	0	470	0	0	
6	0	0	0	0	518	0	0	521	0	0	
7	0	0	0	0	509	19	0	600	0	0	
8	0	0	0	0	498	0	0	696	0	0	
9	0	0	0	0	483	0	0	781	0	0	
10	0	0	0	0	467	0	0	831	0	0	
11	0	0	0	0	448	0	0	820	0	0	
12	0	0	0	0	428	41	0	732	0	0	
13	0	0	0	0	407	231	0	559	0	0	
14	0	0	0	0	386	561	0	310	0	0	
15	0	0	0	0	366	1007	0	11	0	0	
0	0	0	0	0	348	1021	0	1	0	0	
1	0	0	0	0	334	1021	0	0	0	0	
2	0	0	0	0	324	1021	0	0	0	0	
3	0	0	0	0	319	1021	0	0	0	0	
4	0	0	0	0	318	913	0	0	0	0	
5	0	0	0	0	322	601	0	7	0	0	
6	0	0	0	0	331	243	0	74	0	0	
7	0	0	0	0	344	0	0	148	0	0	
8	0	0	0	0	362	0	0	203	0	0	
9	0	0	0	0	381	0	0	235	0	0	
10	0	0	0	0	402	0	0	284	0	0	
11	0	0	0	0	423	0	0	379	0	0	
12	0	0	0	0	445	0	0	508	0	0	
13	0	0	0	0	465	0	0	642	0	0	
14	0	0	0	0	482	0	0	749	0	0	
15	0	0	0	0	499	0	0	801	0	0	
0	0	0	0	0	513	15	0	779	0	0	
1	0	0	0	0	525	196	0	673	0	0	
2	0	0	0	0	535	525	0	486	0	0	
3	0	0	0	0	544	985	0	239	0	0	
4	0	0	0	0	553	1021	0	1	0	0	
5	0	0	0	0	563	1021	0	0	0	0	
6	0	0	0	0	572	1021	0	0	0	0	
7	0	0	0	0	581	1021	0	0	0	0	
8	0	0	0	0	589	987	0	38	0	0	
9	0	0	0	0	598	732	0	152	0	0	
10	0	0	0	0	606	424	0	288	0	0	
11	0	0	0	0	612	151	0	418	0	0	
12	0	0	0	0	617	0	0	514	0	0	
13	0	0	0	0	619	0	0	568	0	0	
14	0	0	0	0	619	59	0	622	0	0	
15	0	0	0	0	616	111	0	702	0	0	
0	0	0	0	0	611	106	0	803	0	0	
1	0	0	0	0	604	54	0	896	0	0	
2	0	0	0	0	594	0	0	958	0	0	
3	0	0	0	0	583	0	0	963	0	0	
4	0	0	0	0	574	70	0	894	0	0	
5	0	0	0	0	563	270	0	742	0	0	
6	0	0	0	0	555	611	0	513	0	0	
7	0	0	0	0	548	1020	0	227	0	0	
8	0	0	0	0	544	1020	0	0	0	0	
9	0	0	0	0	545	1021	0	0	0	0	
10	0	0	0	0	548	1021	0	0	0	0	
11	0	0	0	0	554	1021	0	0	0	0	
12	0	0	0	0	562	988	0	7	0	0	
13	0	0	0	0	572	727	0	106	0	0	
14	0	0	0	0	583	407	0	233	0	0	
15	0	0	0	0	594	121	0	361	0	0	
0	0	0	0	0	603	0	0	460	0	0	
1	0	0	0	0	611	0	0	522	0	0	
2	0	0	0	0	615	27	0	583	0	0	
3	0	0	0	0	618	67	0	673	0	0	
4	0	0	0	0	616	58	0	782	0	0	
5	0	0	0	0	611	6	0	884	0	0	
6	0	0	0	0	604	0	0	953	0	0	
7	0	0	0	0	596	0	0	963	0	0	
8	0	0	0	0	586	66	0	897	0	0	
9	0	0	0	0	575	271	0	748	0	0	
10	0	0	0	0	566	615	0	519	0	0	
11	0	0	0	0	558	1020	0	231	0	0	
12	0	0	0	0	552	1020	0	0	0	0	
13	0	0	0	0	550	1020	0	0	0	0	
14	0	0	0	0	551	1021	0	0	0	0	
15	0	0	0	0	556	1021	0	0	0	0	
0	0	0	0	0	564	1005	0	2	0	0	
1	0	0	0	0	573	757	0	99	0	0	
2	0	0	0	0	585	448	0	224	0	0	
3	0	0	0	0	596	169	0	351	0	0	
4	0	0	0	0	608	2	0	452	0	0	
5	0	0	0	0	616	0	0	516	0	0	
6	0	0	0	0	623	52	0	578	0	0	
7	0	0	0	0	626	103	0	671	0	0	
8	0	0	0	0	625	103	0	782	0	0	
9	0	0	0	0	622	57	0	887	0	0	
10	0	0	0	0	614	5	0	959	0	0	
11	0	0	0	0	604	0	0	972	0	0	
12	0	0	0	0	593	81	0	910	0	0	
13	0	0	0	0	580	284	0	762	0	0	
14	0	0	0	0	568	625	0	533	0	0	
15	0	0	0	0	558	1020	0	245	0	0	
0	0	0	0	0	549	1021	0	1	0	0	
1	0	0	0	0	544	1021	0	0	0	0	
2	0	0	0	0	543	1021	0	0	0	0	
3	0	0	0	0	545	1021	0	0	0	0	
4	0	0	0	0	550	999	0	3	0	0	
5	0	0	0	0	557	743	0	102	0	0	
6	0	0	0	0	568	422	0	231	0	0	
7	0	0	0	0	578	128	0	361	0	0	
8	0	0	0	0	589	0	0	465	0	0	
9	0	0	0	0	598	0	0	530	0	0	
10	0	0	0	0	606	14	0	593	0	0	
11	0	0	0	0	611	47	0	686	0	0	
12	0	0	0	0	612	29	0	799	0	0	
13	0	0	0	0	611	0	0	908	0	0	
14	0	0	0	0	606	0	0	985	0	0	
15	0	0	0	0	599	0	0	1003	0	0	
0	0	0	0	0	590	25	0	945	0	0	
1	0	0	0	0	579	200	0	802	0	0	
2	0	0	0	0	569	519	0	575	0	0	
3	0	0	0	0	560	967	0	287	0	0	
4	0	0	0	0	552	1020	0	1	0	0	
5	0	0	0	0	548	1020	0	0	0	0	
6	0	0	0	0	547	1021	0	0	0	0	
7	0	0	0	0	548	1021	0	0	0	0	
8	0	0	0	0	552	983	0	2	0	0	
9	0	0	0	0	558	713	0	100	0	0	
10	0	0	0	0	567	382	0	229	0	0	
11	0	0	0	0	575	81	0	359	0	0	
12	0	0	0	0	585	0	0	464	0	0	
13	0	0	0	0	592	0	0	529	0	0	
14	0	0	0	0	598	3	0	591	0	0	
15	0	0	0	0	603	35	0	685	0	0	
0	0	0	0	0	604	15	0	800	0	0	
1	0	0	0	0	602	0	0	912	0	0	
2	0	0	0	0	597	0	0	992	0	0	
3	0	0	0	0	590	0	0	1017	0	0	
4	0	0	0	0	581	11	0	963	0	0	
5	0	0	0	0	571	174	0	824	0	0	
6	0	0	0	0	560	481	0	599	0	0	
7	0	0	0	0	551	921	0	310	0	0	
8	0	0	0	0	543	1021	0	19	0	0	
9	0	0	0	0	539	1021	0	0	0	0	
10	0	0	0	0	538	1021	0	0	0	0	
11	0	0	0	0	540	1021	0	0	0	0	
12	0	0	0	0	544	978	0	0	0	0	
13	0	0	0	0	553	704	0	90	0	0	
14	0	0	0	0	562	366	0	216	0	0	
15	0	0	0	0	572	58	0	345	0	0	
0	0	0	0	0	583	0	0	449	0	0	
1	0	0	0	0	590	0	0	515	0	0	
2	0	0	0	0	598	0	0	578	0	0	
3	0	0	0	0	601	17	0	672	0	0	
4	0	0	0	0	602	0	0	788	0	0	
5	0	0	0	0	599	0	0	901	0	0	
6	0	0	0	0	593	0	0	982	0	0	
7	0	0	0	0	583	0	0	1007	0	0	
8	0	0	0	0	573	7	0	956	0	0	
9	0	0	0	0	561	167	0	817	0	0	
10	0	0	0	0	548	472	0	594	0	0	
11	0	0	0	0	539	911	0	305	0	0	
12	0	0	0	0	531	1021	0	13	0	0	
13	0	0	0	0	527	1020	0	0	0	0	
14	0	0	0	0	526	1021	0	0	0	0	
15	0	0	0	0	529	1021	0	0	0	0	
0	0	0	0	0	535	982	0	0	0	0	
1	0	0	0	0	543	709	0	82	0	0	
2	0	0	0	0	554	371	0	204	0	0	
3	0	0	0	0	566	61	0	331	0	0	
4	0	0	0	0	577	0	0	434	0	0	
5	0	0	0	0	586	0	0	499	0	0	
6	0	0	0	0	593	0	0	561	0	0	
7	0	0	0	0	598	21	0	653	0	0	
8	0	0	0	0	598	0	0	769	0	0	
9	0	0	0	0	595	0	0	884	0	0	
10	0	0	0	0	588	0	0	970	0	0	
11	0	0	0	0	579	0	0	999	0	0	
12	0	0	0	0	568	1	0	952	0	0	
13	0	0	0	0	555	155	0	819	0	0	
14	0	0	0	0	543	451	0	600	0	0	
15	0	0	0	0	532	884	0	313	0	0	
0	0	0	0	0	524	1020	0	21	0	0	
1	0	0	0	0	519	1020	0	0	0	0	
2	0	0	0	0	516	1021	0	0	0	0	
3	0	0	0	0	518	1021	0	0	0	0	
4	0	0	0	0	523	982	0	0	0	0	
5	0	0	0	0	530	705	0	76	0	0	
6	0	0	0	0	540	362	0	197	0	0	
7	0	0	0	0	550	44	0	321	0	0	
8	0	0	0	0	561	0	0	424	0	0	
9	0	0	0	0	571	0	0	488	0	0	
10	0	0	0	0	578	0	0	547	0	0	
11	0	0	0	0	583	6	0	636	0	0	
12	0	0	0	0	585	0	0	748	0	0	
13	0	0	0	0	583	0	0	858	0	0	
14	0	0	0	0	579	0	0	940	0	0	
15	0	0	0	0	572	0	0	964	0	0	
0	0	0	0	0	564	8	0	915	0	0	
1	0	0	0	0	554	167	0	780	0	0	
2	0	0	0	0	544	472	0	562	0	0	
3	0	0	0	0	536	912	0	279	0	0	
4	0	0	0	0	529	1021	0	1	0	0	
5	0	0	0	0	525	1021	0	0	0	0	
6	0	0	0	0	524	1021	0	0	0	0	
7	0	0	0	0	526	1021	0	0	0	0	
8	0	0	0	0	530	999	0	0	0	0	
9	0	0	0	0	536	733	0	90	0	0	
10	0	0	0	0	544	396	0	217	0	0	
11	0	0	0	0	552	78	0	348	0	0	
12	0	0	0	0	561	0	0	455	0	0	
13	0	0	0	0	569	0	0	522	0	0	
14	0	0	0	0	574	0	0	581	0	0	
15	0	0	0	0	578	4	0	670	0	0	
0	0	0	0	0	579	0	0	783	0	0	
1	0	0	0	0	577	0	0	896	0	0	
2	0	0	0	0	573	0	0	981	0	0	
3	0	0	0	0	566	0	0	1010	0	0	
4	0	0	0	0	558	0	0	964	0	0	
5	0	0	0	0	548	115	0	831	0	0	
6	0	0	0	0	539	393	0	612	0	0	
7	0	0	0	0	530	813	0	326	0	0	
8	0	0	0	0	523	1021	0	30	0	0	
9	0	0	0	0	519	1021	0	0	0	0	
10	0	0	0	0	518	1021	0	0	0	0	
11	0	0	0	0	519	1021	0	0	0	0	
12	0	0	0	0	524	979	0	0	0	0	
13	0	0	0	0	531	699	0	79	0	0	
14	0	0	0	0	540	348	0	203	0	0	
15	0	0	0	0	549	20	0	331	0	0	
0	0	0	0	0	559	0	0	438	0	0	
1	0	0	0	0	567	0	0	504	0	0	
2	0	0	0	0	573	0	0	562	0	0	
3	0	0	0	0	577	0	0	647	0	0	
4	0	0	0	0	579	0	0	755	0	0	
5	0	0	0	0	577	0	0	862	0	0	
6	0	0	0	0	573	0	0	940	0	0	
7	0	0	0	0	566	0	0	962	0	0	
8	0	0	0	0	558	0	0	912	0	0	
9	0	0	0	0	548	149	0	775	0	0	
10	0	0	0	0	538	444	0	556	0	0	
11	0	0	0	0	529	878	0	271	0	0	
12	0	0	0	0	522	1021	0	1	0	0	
13	0	0	0	0	518	1021	0	0	0	0	
14	0	0	0	0	516	1021	0	0	0	0	
15	0	0	0	0	518	1021	0	0	0	0	
0	0	0	0	0	523	1007	0	0	0	0	
1	0	0	0	0	529	747	0	78	0	0	
2	0	0	0	0	539	411	0	202	0	0	
3	0	0	0	0	548	91	0	331	0	0	
4	0	0	0	0	558	0	0	439	0	0	
5	0	0	0	0	566	0	0	505	0	0	
6	0	0	0	0	572	0	0	563	0	0	
7	0	0	0	0	576	8	0	648	0	0	
8	0	0	0	0	577	0	0	758	0	0	
9	0	0	0	0	575	0	0	868	0	0	
10	0	0	0	0	570	0	0	950	0	0	
11	0	0	0	0	563	0	0	978	0	0	
12	0	0	0	0	555	0	0	932	0	0	
13	0	0	0	0	546	141	0	799	0	0	
14	0	0	0	0	537	430	0	583	0	0	
15	0	0	0	0	529	859	0	298	0	0	
0	0	0	0	0	523	1021	0	6	0	0	
1	0	0	0	0	520	1021	0	0	0	0	
2	0	0	0	0	520	1021	0	0	0	0	
3	0	0	0	0	524	1021	0	0	0	0	
4	0	0	0	0	529	1006	0	0	0	0	
5	0	0	0	0	537	743	0	83	0	0	
6	0	0	0	0	547	405	0	209	0	0	
7	0	0	0	0	558	84	0	344	0	0	
8	0	0	0	0	568	0	0	455	0	0	
9	0	0	0	0	577	0	0	527	0	0	
10	0	0	0	0	583	0	0	586	0	0	
11	0	0	0	0	588	13	0	675	0	0	
12	0	0	0	0	588	0	0	790	0	0	
13	0	0	0	0	585	0	0	907	0	0	
14	0	0	0	0	579	0	0	996	0	0	
15	0	0	0	0	571	0	0	1021	0	0	
0	0	0	0	0	560	0	0	988	0	0	
1	0	0	0	0	550	110	0	862	0	0	
2	0	0	0	0	539	382	0	649	0	0	
3	0	0	0	0	530	797	0	366	0	0	
4	0	0	0	0	523	1021	0	64	0	0	
5	0	0	0	0	521	1021	0	0	0	0	
6	0	0	0	0	521	1021	0	0	0	0	
7	0	0	0	0	525	1021	0	0	0	0	
8	0	0	0	0	531	1004	1	0	0	0	
9	0	0	0	0	540	740	0	68	0	0	
10	0	0	0	0	550	401	0	187	0	0	
11	0	0	0	0	561	76	0	314	0	0	
12	0	0	0	0	571	0	0	422	0	0	
13	0	0	0	0	580	0	0	489	0	0	
14	0	0	0	0	585	0	0	547	0	0	
15	0	0	0	0	589	5	0	634	0	0	
0	0	0	0	0	588	0	0	749	0	0	
1	0	0	0	0	585	0	0	867	0	0	
2	0	0	0	0	578	0	0	959	0	0	
3	0	0	0	0	569	0	0	998	0	0	
4	0	0	0	0	559	0	0	963	0	0	
5	0	0	0	0	547	108	0	841	0	0	
6	0	0	0	0	536	379	0	632	0	0	
7	0	0	0	0	527	794	0	352	0	0	
8	0	0	0	0	519	1021	0	52	0	0	
9	0	0	0	0	515	1021	0	0	0	0	
10	0	0	0	0	515	1021	0	0	0	0	
11	0	0	0	0	518	1021	0	0	0	0	
12	0	0	0	0	524	1010	0	0	0	0	
13	0	0	0	0	532	751	0	61	0	0	
14	0	0	0	0	543	410	0	179	0	0	
15	0	0	0	0	554	81	0	304	0	0	
0	0	0	0	0	565	0	0	411	0	0	
1	0	0	0	0	575	0	0	478	0	0	
2	0	0	0	0	583	0	0	534	0	0	
3	0	0	0	0	588	0	0	620	0	0	
4	0	0	0	0	590	0	0	735	0	0	
5	0	0	0	0	588	0	0	856	0	0	
6	0	0	0	0	584	0	0	952	0	0	
7	0	0	0	0	577	0	0	995	0	0	
8	0	0	0	0	570	0	0	967	0	0	
9	0	0	0	0	560	96	0	851	0	0	
10	0	0	0	0	551	360	0	649	0	0	
11	0	0	0	0	542	771	0	374	0	0	
12	0	0	0	0	535	1021	0	78	0	0	
13	0	0	0	0	531	1021	0	0	0	0	
14	0	0	0	0	529	1021	0	0	0	0	
15	0	0	0	0	531	1021	0	0	0	0	
0	0	0	0	0	536	1016	0	0	0	0	
1	0	0	0	0	542	760	0	62	0	0	
2	0	0	0	0	551	422	0	178	0	0	
3	0	0	0	0	560	93	0	302	0	0	
4	0	0	0	0	569	0	0	408	0	0	
5	0	0	0	0	577	0	0	474	0	0	
6	0	0	0	0	582	0	0	527	0	0	
7	0	0	0	0	585	1	0	610	0	0	
8	0	0	0	0	585	0	0	723	0	0	
9	0	0	0	0	582	0	0	841	0	0	
10	0	0	0	0	575	0	0	935	0	0	
11	0	0	0	0	568	0	0	979	0	0	
12	0	0	0	0	559	0	0	950	0	0	
13	0	0	0	0	549	95	0	835	0	0	
14	0	0	0	0	539	358	0	634	0	0	
15	0	0	0	0	530	766	0	361	0	0	
0	0	0	0	0	523	1020	0	65	0	0	
1	0	0	0	0	519	1021	0	0	0	0	
2	0	0	0	0	519	1021	0	0	0	0	
3	0	0	0	0	520	1021	0	0	0	0	
4	0	0	0	0	526	1015	0	0	0	0	
5	0	0	0	0	533	754	0	79	0	0	
6	0	0	0	0	543	411	0	206	0	0	
7	0	0	0	0	553	76	0	342	0	0	
8	0	0	0	0	564	0	0	458	0	0	
9	0	0	0	0	574	0	0	532	0	0	
10	0	0	0	0	581	0	0	588	0	0	
11	0	0	0	0	586	0	0	671	0	0	
12	0	0	0	0	588	0	0	780	0	0	
13	0	0	0	0	587	0	0	892	0	0	
14	0	0	0	0	581	0	0	979	0	0	
15	0	0	0	0	575	0	0	1016	0	0	
0	0	0	0	0	565	0	0	979	0	0	
1	0	0	0	0	554	85	0	856	0	0	
2	0	0	0	0	543	341	0	646	0	0	
3	0	0	0	0	532	745	0	364	0	0	
4	0	0	0	0	523	1021	0	59	0	0	
5	0	0	0	0	518	1020	0	0	0	0	
6	0	0	0	0	515	1021	0	0	0	0	
7	0	0	0	0	516	1021	0	0	0	0	
8	0	0	0	0	521	1014	0	0	0	0	
9	0	0	0	0	527	753	0	68	0	0	
10	0	0	0	0	537	406	0	193	0	0	
11	0	0	0	0	548	66	0	329	0	0	
12	0	0	0	0	559	0	0	446	0	0	
13	0	0	0	0	568	0	0	520	0	0	
14	0	0	0	0	576	0	0	579	0	0	
15	0	0	0	0	581	0	0	660	0	0	
0	0	0	0	0	583	0	0	769	0	0	
1	0	0	0	0	582	0	0	880	0	0	
2	0	0	0	0	577	0	0	969	0	0	
3	0	0	0	0	570	0	0	1004	0	0	
4	0	0	0	0	562	0	0	969	0	0	
5	0	0	0	0	551	102	0	846	0	0	
6	0	0	0	0	541	368	0	638	0	0	
7	0	0	0	0	532	780	0	357	0	0	
8	0	0	0	0	525	1020	0	54	0	0	
9	0	0	0	0	521	1021	0	0	0	0	
10	0	0	0	0	520	1021	0	0	0	0	
11	0	0	0	0	523	1021	0	0	0	0	
12	0	0	0	0	528	1021	0	0	0	0	
13	0	0	0	0	536	789	0	63	0	0	
14	0	0	0	0	545	456	0	185	0	0	
15	0	0	0	0	555	124	0	317	0	0	
0	0	0	0	0	564	0	0	431	0	0	
1	0	0	0	0	572	0	0	504	0	0	
2	0	0	0	0	577	0	0	560	0	0	
3	0	0	0	0	581	1	0	642	0	0	
4	0	0	0	0	582	0	0	754	0	0	
5	0	0	0	0	579	0	0	873	0	0	
6	0	0	0	0	575	0	0	971	0	0	
7	0	0	0	0	567	0	0	1018	0	0	
8	0	0	0	0	558	0	0	994	0	0	
9	0	0	0	0	548	76	0	883	0	0	
10	0	0	0	0	537	324	0	684	0	0	
11	0	0	0	0	529	721	0	409	0	0	
12	0	0	0	0	522	1020	0	106	0	0	
13	0	0	0	0	519	1020	0	0	0	0	
14	0	0	0	0	518	1021	0	0	0	0	
15	0	0	0	0	521	1021	0	0	0	0	
0	0	0	0	0	527	1021	0	0	0	0	
1	0	0	0	0	534	771	0	62	0	0	
2	0	0	0	0	544	430	0	184	0	0	
3	0	0	0	0	555	91	0	317	0	0	
4	0	0	0	0	565	0	0	433	0	0	
5	0	0	0	0	575	0	0	509	0	0	
6	0	0	0	0	583	0	0	567	0	0	
7	0	0	0	0	588	0	0	650	0	0	
8	0	0	0	0	590	0	0	763	0	0	
9	0	0	0	0	589	0	0	882	0	0	
10	0	0	0	0	585	0	0	980	0	0	
11	0	0	0	0	577	0	0	1020	0	0	
12	0	0	0	0	568	0	0	999	0	0	
13	0	0	0	0	556	87	0	886	0	0	
14	0	0	0	0	545	340	0	686	0	0	
15	0	0	0	0	534	741	0	409	0	0	
0	0	0	0	0	526	1020	0	102	0	0	
1	0	0	0	0	520	1020	0	0	0	0	
2	0	0	0	0	518	1021	0	0	0	0	
3	0	0	0	0	519	1021	0	0	0	0	
4	0	0	0	0	524	1021	0	0	0	0	
5	0	0	0	0	531	796	0	50	0	0	
6	0	0	0	0	541	460	0	167	0	0	
7	0	0	0	0	552	123	0	297	0	0	
8	0	0	0	0	563	0	0	411	0	0	
9	0	0	0	0	573	0	0	486	0	0	
10	0	0	0	0	581	0	0	542	0	0	
11	0	0	0	0	588	0	0	624	0	0	
12	0	0	0	0	591	0	0	735	0	0	
13	0	0	0	0	590	0	0	851	0	0	
14	0	0	0	0	587	0	0	947	0	0	
15	0	0	0	0	580	0	0	993	0	0	
0	0	0	0	0	573	0	0	969	0	0	
1	0	0	0	0	563	99	0	860	0	0	
2	0	0	0	0	553	359	0	663	0	0	
3	0	0	0	0	543	766	0	391	0	0	
4	0	0	0	0	536	1020	0	89	0	0	
5	0	0	0	0	531	1020	0	0	0	0	
6	0	0	0	0	528	1021	0	0	0	0	
7	0	0	0	0	529	1021	0	0	0	0	
8	0	0	0	0	533	1021	0	0	0	0	
9	0	0	0	0	539	822	0	56	0	0	
10	0	0	0	0	548	496	0	176	0	0	
11	0	0	0	0	558	165	0	309	0	0	
12	0	0	0	0	569	0	0	427	0	0	
13	0	0	0	0	579	0	0	504	0	0	
14	0	0	0	0	587	0	0	561	0	0	
15	0	0	0	0	593	6	0	643	0	0	
0	0	0	0	0	596	0	0	753	0	0	
1	0	0	0	0	596	0	0	871	0	0	
2	0	0	0	0	592	0	0	968	0	0	
3	0	0	0	0	586	0	0	1016	0	0	
4	0	0	0	0	578	0	0	993	0	0	
5	0	0	0	0	568	92	0	885	0	0	
6	0	0	0	0	558	345	0	688	0	0	
7	0	0	0	0	547	745	0	416	0	0	
8	0	0	0	0	539	1020	0	112	0	0	
9	0	0	0	0	534	1021	0	0	0	0	
10	0	0	0	0	532	1021	0	0	0	0	
11	0	0	0	0	533	1021	0	0	0	0	
12	0	0	0	0	537	1021	0	0	0	0	
13	0	0	0	0	544	814	0	63	0	0	
14	0	0	0	0	553	481	0	190	0	0	
15	0	0	0	0	564	142	0	329	0	0	
0	0	0	0	0	575	0	0	452	0	0	
1	0	0	0	0	583	0	0	534	0	0	
2	0	0	0	0	591	0	0	591	0	0	
3	0	0	0	0	596	0	0	671	0	0	
4	0	0	0	0	598	0	0	777	0	0	
5	0	0	0	0	596	0	0	891	0	0	
6	0	0	0	0	591	0	0	983	0	0	
7	0	0	0	0	583	0	0	1021	0	0	
8	0	0	0	0	574	0	0	998	0	0	
9	0	0	0	0	564	84	0	886	0	0	
10	0	0	0	0	553	334	0	688	0	0	
11	0	0	0	0	543	732	0	413	0	0	
12	0	0	0	0	534	1020	0	105	0	0	
13	0	0	0	0	529	1020	0	0	0	0	
14	0	0	0	0	527	1021	0	0	0	0	
15	0	0	0	0	529	1021	0	0	0	0	
0	0	0	0	0	533	1021	0	0	0	0	
1	0	0	0	0	540	826	0	54	0	0	
2	0	0	0	0	549	497	0	177	0	0	
3	0	0	0	0	560	160	0	313	0	0	
4	0	0	0	0	571	0	0	435	0	0	
5	0	0	0	0	581	0	0	516	0	0	
6	0	0	0	0	588	0	0	574	0	0	
7	0	0	0	0	595	0	0	655	0	0	
8	0	0	0	0	597	0	0	767	0	0	
9	0	0	0	0	596	0	0	888	0	0	
10	0	0	0	0	592	0	0	990	0	0	
11	0	0	0	0	586	0	0	1020	0	0	
12	0	0	0	0	578	0	0	1015	0	0	
13	0	0	0	0	569	53	0	917	0	0	
14	0	0	0	0	559	281	0	729	0	0	
15	0	0	0	0	550	661	0	464	0	0	
0	0	0	0	0	543	1020	0	161	0	0	
1	0	0	0	0	539	1020	0	0	0	0	
2	0	0	0	0	538	1021	0	0	0	0	
3	0	0	0	0	540	1021	0	0	0	0	
4	0	0	0	0	545	1021	0	0	0	0	
5	0	0	0	0	552	799	0	70	0	0	
6	0	0	0	0	561	459	0	201	0	0	
7	0	0	0	0	572	110	0	345	0	0	
8	0	0	0	0	581	0	0	472	0	0	
9	0	0	0	0	589	0	0	556	0	0	
10	0	0	0	0	595	0	0	614	0	0	
11	0	0	0	0	599	0	0	688	0	0	
12	0	0	0	0	599	0	0	790	0	0	
13	0	0	0	0	596	0	0	899	0	0	
14	0	0	0	0	591	0	0	988	0	0	
15	0	0	0	0	584	0	0	1020	0	0	
0	0	0	0	0	575	0	0	999	0	0	
1	0	0	0	0	566	70	0	888	0	0	
2	0	0	0	0	557	311	0	691	0	0	
3	0	0	0	0	549	703	0	420	0	0	
4	0	0	0	0	543	1021	0	113	0	0	
5	0	0	0	0	540	1021	0	0	0	0	
6	0	0	0	0	539	1021	0	0	0	0	
7	0	0	0	0	541	1021	0	0	0	0	
8	0	0	0	0	544	1022	0	0	0	0	
9	0	0	0	0	550	845	0	56	0	0	
10	0	0	0	0	558	525	0	180	0	0	
11	0	0	0	0	566	191	0	319	0	0	
12	0	0	0	0	574	0	0	444	0	0	
13	0	0	0	0	580	0	0	528	0	0	
14	0	0	0	0	586	0	0	588	0	0	
15	0	0	0	0	590	4	0	668	0	0	
0	0	0	0	0	590	0	0	779	0	0	
1	0	0	0	0	588	0	0	902	0	0	
2	0	0	0	0	583	0	0	1006	0	0	
3	0	0	0	0	577	0	0	1020	0	0	
4	0	0	0	0	569	0	0	1020	0	0	
5	0	0	0	0	560	47	0	935	0	0	
6	0	0	0	0	552	269	0	755	0	0	
7	0	0	0	0	543	643	0	497	0	0	
8	0	0	0	0	539	1020	0	198	0	0	
9	0	0	0	0	536	1021	0	0	0	0	
10	0	0	0	0	536	1021	0	0	0	0	
11	0	0	0	0	539	1021	0	0	0	0	
12	0	0	0	0	544	1021	0	0	0	0	
13	0	0	0	0	551	815	0	72	0	0	
14	0	0	0	0	560	480	0	205	0	0	
15	0	0	0	0	570	133	0	352	0	0	
0	0	0	0	0	580	0	0	484	0	0	
1	0	0	0	0	589	0	0	574	0	0	
2	0	0	0	0	595	0	0	634	0	0	
3	0	0	0	0	600	0	0	710	0	0	
4	0	0	0	0	601	0	0	813	0	0	
5	0	0	0	0	600	0	0	923	0	0	
6	0	0	0	0	594	0	0	1013	0	0	
7	0	0	0	0	587	0	0	1020	0	0	
8	0	0	0	0	578	0	0	1010	0	0	
9	0	0	0	0	567	74	0	903	0	0	
10	0	0	0	0	556	315	0	710	0	0	
11	0	0	0	0	546	703	0	442	0	0	
12	0	0	0	0	537	1021	0	135	0	0	
13	0	0	0	0	532	1020	0	0	0	0	
14	0	0	0	0	529	1021	0	0	0	0	
15	0	0	0	0	530	1021	0	0	0	0	
0	0	0	0	0	535	1021	0	0	0	0	
1	0	0	0	0	540	856	0	54	0	0	
2	0	0	0	0	550	535	0	181	0	0	
3	0	0	0	0	560	198	0	323	0	0	
4	0	0	0	0	572	0	0	453	0	0	
5	0	0	0	0	582	0	0	543	0	0	
6	0	0	0	0	591	0	0	605	0	0	
7	0	0	0	0	597	4	0	686	0	0	
8	0	0	0	0	600	0	0	795	0	0	
9	0	0	0	0	600	0	0	915	0	0	
10	0	0	0	0	596	0	0	1017	0	0	
11	0	0	0	0	590	0	0	1021	0	0	
12	0	0	0	0	583	0	0	1020	0	0	
13	0	0	0	0	573	59	0	935	0	0	
14	0	0	0	0	564	287	0	757	0	0	
15	0	0	0	0	555	664	0	500	0	0	
0	0	0	0	0	547	1020	0	200	0	0	
1	0	0	0	0	541	1021	0	0	0	0	
2	0	0	0	0	538	1021	0	0	0	0	
3	0	0	0	0	538	1021	0	0	0	0	
4	0	0	0	0	541	1021	0	0	0	0	
5	0	0	0	0	547	850	0	64	0	0	
6	0	0	0	0	556	528	0	195	0	0	
7	0	0	0	0	565	190	0	342	0	0	
8	0	0	0	0	575	0	0	475	0	0	
9	0	0	0	0	586	0	0	568	0	0	
10	0	0	0	0	594	0	0	630	0	0	
11	0	0	0	0	600	5	0	710	0	0	
12	0	0	0	0	603	2	0	820	0	0	
13	0	0	0	0	602	0	0	942	0	0	
14	0	0	0	0	598	0	0	1020	0	0	
15	0	0	0	0	591	0	0	1021	0	0	
0	0	0	0	0	582	0	0	1020	0	0	
1	0	0	0	0	571	35	0	952	0	0	
2	0	0	0	0	559	245	0	781	0	0	
3	0	0	0	0	547	606	0	531	0	0	
4	0	0	0	0	538	1020	0	234	0	0	
5	0	0	0	0	532	1020	0	0	0	0	
6	0	0	0	0	528	1021	0	0	0	0	
7	0	0	0	0	529	1021	0	0	0	0	
8	0	0	0	0	532	1021	0	0	0	0	
9	0	0	0	0	539	817	0	76	0	0	
10	0	0	0	0	548	474	0	215	0	0	
11	0	0	0	0	559	115	0	369	0	0	
12	0	0	0	0	569	0	0	507	0	0	
13	0	0	0	0	579	0	0	603	0	0	
14	0	0	0	0	587	0	0	664	0	0	
15	0	0	0	0	593	0	0	738	0	0	
0	0	0	0	0	595	0	0	838	0	0	
1	0	0	0	0	594	0	0	947	0	0	
2	0	0	0	0	590	0	0	1020	0	0	
3	0	0	0	0	583	0	0	1020	0	0	
4	0	0	0	0	575	0	0	1020	0	0	
5	0	0	0	0	564	39	0	924	0	0	
6	0	0	0	0	553	253	0	740	0	0	
7	0	0	0	0	544	622	0	479	0	0	
8	0	0	0	0	536	1020	0	176	0	0	
9	0	0	0	0	531	1020	0	0	0	0	
10	0	0	0	0	529	1021	0	0	0	0	
11	0	0	0	0	530	1021	0	0	0	0	
12	0	0	0	0	534	1021	0	0	0	0	
13	0	0	0	0	540	861	0	56	0	0	
14	0	0	0	0	548	542	0	184	0	0	
15	0	0	0	0	556	201	0	328	0	0	
0	0	0	0	0	566	0	0	459	0	0	
1	0	0	0	0	572	0	0	551	0	0	
2	0	0	0	0	579	0	0	610	0	0	
3	0	0	0	0	583	3	0	684	0	0	
4	0	0	0	0	583	4	0	789	0	0	
5	0	0	0	0	582	0	0	907	0	0	
6	0	0	0	0	578	0	0	1010	0	0	
7	0	0	0	0	572	0	0	1020	0	0	
8	0	0	0	0	564	0	0	1020	0	0	
9	0	0	0	0	556	44	0	941	0	0	
10	0	0	0	0	547	259	0	767	0	0	
11	0	0	0	0	540	624	0	513	0	0	
12	0	0	0	0	534	1020	0	213	0	0	
13	0	0	0	0	531	1020	0	0	0	0	
14	0	0	0	0	531	1021	0	0	0	0	
15	0	0	0	0	534	1021	0	0	0	0	
0	0	0	0	0	539	1021	0	0	0	0	
1	0	0	0	0	546	876	0	44	0	0	
2	0	0	0	0	555	564	0	164	0	0	
3	0	0	0	0	564	228	0	302	0	0	
4	0	0	0	0	574	0	0	428	0	0	
5	0	0	0	0	583	0	0	518	0	0	
6	0	0	0	0	590	0	0	575	0	0	
7	0	0	0	0	594	10	0	649	0	0	
8	0	0	0	0	596	17	0	755	0	0	
9	0	0	0	0	595	0	0	875	0	0	
10	0	0	0	0	591	0	0	982	0	0	
11	0	0	0	0	584	0	0	1020	0	0	
12	0	0	0	0	576	0	0	1020	0	0	
13	0	0	0	0	567	57	0	942	0	0	
14	0	0	0	0	557	279	0	770	0	0	
15	0	0	0	0	548	650	0	519	0	0	
0	0	0	0	0	541	1020	0	219	0	0	
1	0	0	0	0	538	1020	0	0	0	0	
2	0	0	0	0	537	1021	0	0	0	0	
3	0	0	0	0	540	1021	0	0	0	0	
4	0	0	0	0	546	1021	0	0	0	0	
5	0	0	0	0	554	897	0	46	0	0	
6	0	0	0	0	564	596	0	167	0	0	
7	0	0	0	0	575	268	0	307	0	0	
8	0	0	0	0	585	7	0	438	0	0	
9	0	0	0	0	595	0	0	530	0	0	
10	0	0	0	0	602	0	0	589	0	0	
11	0	0	0	0	607	32	0	663	0	0	
12	0	0	0	0	609	54	0	766	0	0	
13	0	0	0	0	608	23	0	882	0	0	
14	0	0	0	0	602	0	0	983	0	0	
15	0	0	0	0	595	0	0	1020	0	0	
0	0	0	0	0	585	0	0	1019	0	0	
1	0	0	0	0	574	99	0	929	0	0	
2	0	0	0	0	562	341	0	751	0	0	
3	0	0	0	0	551	727	0	494	0	0	
4	0	0	0	0	541	1021	0	188	0	0	
5	0	0	0	0	535	1020	0	0	0	0	
6	0	0	0	0	531	1021	0	0	0	0	
7	0	0	0	0	532	1021	0	0	0	0	
8	0	0	0	0	536	1021	0	0	0	0	
9	0	0	0	0	543	924	0	29	0	0	
10	0	0	0	0	552	634	0	140	0	0	
11	0	0	0	0	563	313	0	272	0	0	
12	0	0	0	0	575	51	0	395	0	0	
13	0	0	0	0	584	0	0	484	0	0	
14	0	0	0	0	593	0	0	541	0	0	
15	0	0	0	0	599	36	0	611	0	0	
0	0	0	0	0	602	60	0	713	0	0	
1	0	0	0	0	602	32	0	826	0	0	
2	0	0	0	0	597	0	0	925	0	0	
3	0	0	0	0	591	0	0	983	0	0	
4	0	0	0	0	583	0	0	974	0	0	
5	0	0	0	0	572	109	0	883	0	0	
6	0	0	0	0	560	355	0	705	0	0	
7	0	0	0	0	550	743	0	449	0	0	
8	0	0	0	0	540	1021	0	147	0	0	
9	0	0	0	0	534	1021	0	0	0	0	
10	0	0	0	0	531	1021	0	0	0	0	
11	0	0	0	0	532	1021	0	0	0	0	
12	0	0	0	0	535	1021	0	0	0	0	
13	0	0	0	0	542	938	0	27	0	0	
14	0	0	0	0	551	656	0	137	0	0	
15	0	0	0	0	562	339	0	270	0	0	
0	0	0	0	0	573	78	0	394	0	0	
1	0	0	0	0	585	0	0	484	0	0	
2	0	0	0	0	594	0	0	542	0	0	
3	0	0	0	0	601	43	0	614	0	0	
4	0	0	0	0	604	68	0	718	0	0	
5	0	0	0	0	604	36	0	838	0	0	
6	0	0	0	0	600	0	0	944	0	0	
7	0	0	0	0	592	0	0	1010	0	0	
8	0	0	0	0	581	0	0	1010	0	0	
9	0	0	0	0	568	75	0	926	0	0	
10	0	0	0	0	551	297	0	751	0	0	
11	0	0	0	0	536	665	0	494	0	0	
12	0	0	0	0	521	1020	0	184	0	0	
13	0	0	0	0	508	1020	0	0	0	0	
14	0	0	0	0	496	1021	0	0	0	0	
15	0	0	0	0	487	1021	0	0	0	0	
0	0	0	0	0	481	1021	0	0	0	0	
1	0	0	0	0	477	906	0	0	0	0	
2	0	0	0	0	476	601	0	86	0	0	
3	0	0	0	0	475	262	0	192	0	0	
4	0	0	0	0	475	0	0	290	0	0	
5	0	0	0	0	475	0	0	356	0	0	
6	0	0	0	0	472	0	0	392	0	0	
7	0	0	0	0	469	0	0	445	0	0	
8	0	0	0	0	463	0	0	537	0	0	
9	0	0	0	0	453	0	0	650	0	0	
10	0	0	0	0	440	0	0	755	0	0	
11	0	0	0	0	424	0	0	819	0	0	
12	0	0	0	0	406	0	0	820	0	0	
13	0	0	0	0	385	4	0	738	0	0	
14	0	0	0	0	364	175	0	566	0	0	
15	0	0	0	0	344	496	0	313	0	0	
0	0	0	0	0	327	935	0	12	0	0	
1	0	0	0	0	315	1020	0	0	0	0	
2	0	0	0	0	309	1021	0	0	0	0	
3	0	0	0	0	309	1021	0	0	0	0	
4	0	0	0	0	316	1021	0	0	0	0	
5	0	0	0	0	331	833	0	0	0	0	
6	0	0	0	0	351	497	0	38	0	0	
7	0	0	0	0	377	135	0	123	0	0	
8	0	0	0	0	407	0	0	207	0	0	
9	0	0	0	0	438	0	0	268	0	0	
10	0	0	0	0	469	0	0	305	0	0	
11	0	0	0	0	500	0	0	368	0	0	
12	0	0	0	0	527	0	0	476	0	0	
13	0	0	0	0	550	0	0	612	0	0	
14	0	0	0	0	568	0	0	745	0	0	
15	0	0	0	0	581	0	0	842	0	0	
0	0	0	0	0	589	0	0	879	0	0	
1	0	0	0	0	592	57	0	835	0	0	
2	0	0	0	0	591	275	0	704	0	0	
3	0	0	0	0	587	640	0	489	0	0	
4	0	0	0	0	581	1020	0	218	0	0	
5	0	0	0	0	577	1020	0	0	0	0	
6	0	0	0	0	573	1021	0	0	0	0	
7	0	0	0	0	570	1021	0	0	0	0	
8	0	0	0	0	569	1021	0	0	0	0	
9	0	0	0	0	571	950	0	49	0	0	
10	0	0	0	0	575	676	0	169	0	0	
11	0	0	0	0	581	364	0	307	0	0	
12	0	0	0	0	587	101	0	433	0	0	
13	0	0	0	0	593	0	0	521	0	0	
14	0	0	0	0	599	0	0	572	0	0	
15	0	0	0	0	603	55	0	628	0	0	
0	0	0	0	0	604	92	0	714	0	0	
1	0	0	0	0	603	73	0	816	0	0	
2	0	0	0	0	599	18	0	908	0	0	
3	0	0	0	0	592	0	0	960	0	0	
4	0	0	0	0	585	0	0	951	0	0	
5	0	0	0	0	575	103	0	863	0	0	
6	0	0	0	0	565	336	0	690	0	0	
7	0	0	0	0	556	710	0	440	0	0	
8	0	0	0	0	548	1021	0	140	0	0	
9	0	0	0	0	543	1020	0	0	0	0	
10	0	0	0	0	542	1021	0	0	0	0	
11	0	0	0	0	543	1021	0	0	0	0	
12	0	0	0	0	549	1021	0	0	0	0	
13	0	0	0	0	556	958	0	13	0	0	
14	0	0	0	0	566	683	0	114	0	0	
15	0	0	0	0	576	364	0	238	0	0	
0	0	0	0	0	587	93	0	357	0	0	
1	0	0	0	0	597	0	0	444	0	0	
2	0	0	0	0	604	0	0	496	0	0	
3	0	0	0	0	610	35	0	560	0	0	
4	0	0	0	0	613	62	0	660	0	0	
5	0	0	0	0	612	35	0	779	0	0	
6	0	0	0	0	608	0	0	890	0	0	
7	0	0	0	0	601	0	0	964	0	0	
8	0	0	0	0	594	0	0	978	0	0	
9	0	0	0	0	584	64	0	911	0	0	
10	0	0	0	0	575	279	0	756	0	0	
11	0	0	0	0	565	638	0	519	0	0	
12	0	0	0	0	557	1020	0	225	0	0	
13	0	0	0	0	553	1020	0	0	0	0	
14	0	0	0	0	551	1021	0	0	0	0	
15	0	0	0	0	553	1021	0	0	0	0	
0	0	0	0	0	557	1021	0	0	0	0	
1	0	0	0	0	563	956	0	15	0	0	
2	0	0	0	0	572	680	0	117	0	0	
3	0	0	0	0	581	361	0	242	0	0	
4	0	0	0	0	591	90	0	360	0	0	
5	0	0	0	0	599	0	0	447	0	0	
6	0	0	0	0	606	0	0	498	0	0	
7	0	0	0	0	611	38	0	560	0	0	
8	0	0	0	0	613	73	0	655	0	0	
9	0	0	0	0	612	53	0	768	0	0	
10	0	0	0	0	608	0	0	873	0	0	
11	0	0	0	0	601	0	0	941	0	0	
12	0	0	0	0	594	0	0	949	0	0	
13	0	0	0	0	584	82	0	878	0	0	
14	0	0	0	0	575	304	0	719	0	0	
15	0	0	0	0	566	668	0	480	0	0	
0	0	0	0	0	559	1020	0	187	0	0	
1	0	0	0	0	555	1021	0	0	0	0	
2	0	0	0	0	553	1021	0	0	0	0	
3	0	0	0	0	555	1021	0	0	0	0	
4	0	0	0	0	558	1021	0	0	0	0	
5	0	0	0	0	564	963	0	18	0	0	
6	0	0	0	0	572	689	0	123	0	0	
7	0	0	0	0	580	370	0	251	0	0	
8	0	0	0	0	589	96	0	374	0	0	
9	0	0	0	0	596	0	0	464	0	0	
10	0	0	0	0	603	0	0	517	0	0	
11	0	0	0	0	608	35	0	579	0	0	
12	0	0	0	0	609	67	0	673	0	0	
13	0	0	0	0	609	46	0	788	0	0	
14	0	0	0	0	606	0	0	894	0	0	
15	0	0	0	0	600	0	0	964	0	0	
0	0	0	0	0	593	0	0	973	0	0	
1	0	0	0	0	583	68	0	901	0	0	
2	0	0	0	0	574	281	0	741	0	0	
3	0	0	0	0	564	637	0	499	0	0	
4	0	0	0	0	556	1020	0	200	0	0	
5	0	0	0	0	550	1020	0	0	0	0	
6	0	0	0	0	546	1021	0	0	0	0	
7	0	0	0	0	546	1021	0	0	0	0	
8	0	0	0	0	547	1022	0	0	0	0	
9	0	0	0	0	552	954	0	8	0	0	
10	0	0	0	0	559	673	0	106	0	0	
11	0	0	0	0	567	345	0	230	0	0	
12	0	0	0	0	575	61	0	349	0	0	
13	0	0	0	0	583	0	0	439	0	0	
14	0	0	0	0	590	0	0	492	0	0	
15	0	0	0	0	595	14	0	555	0	0	
0	0	0	0	0	598	38	0	652	0	0	
1	0	0	0	0	598	8	0	771	0	0	
2	0	0	0	0	595	0	0	881	0	0	
3	0	0	0	0	589	0	0	960	0	0	
4	0	0	0	0	582	0	0	975	0	0	
5	0	0	0	0	573	48	0	911	0	0	
6	0	0	0	0	563	249	0	758	0	0	
7	0	0	0	0	555	596	0	523	0	0	
8	0	0	0	0	546	1020	0	227	0	0	
9	0	0	0	0	542	1020	0	0	0	0	
10	0	0	0	0	540	1021	0	0	0	0	
11	0	0	0	0	541	1021	0	0	0	0	
12	0	0	0	0	545	1021	0	0	0	0	
13	0	0	0	0	551	957	0	11	0	0	
14	0	0	0	0	560	679	0	112	0	0	
15	0	0	0	0	569	352	0	238	0	0	
0	0	0	0	0	579	71	0	360	0	0	
1	0	0	0	0	588	0	0	452	0	0	
2	0	0	0	0	595	0	0	507	0	0	
3	0	0	0	0	601	23	0	568	0	0	
4	0	0	0	0	603	56	0	664	0	0	
5	0	0	0	0	603	35	0	780	0	0	
6	0	0	0	0	600	0	0	892	0	0	
7	0	0	0	0	593	0	0	967	0	0	
8	0	0	0	0	586	0	0	983	0	0	
9	0	0	0	0	576	54	0	920	0	0	
10	0	0	0	0	567	257	0	768	0	0	
11	0	0	0	0	558	604	0	533	0	0	
12	0	0	0	0	550	1020	0	239	0	0	
13	0	0	0	0	544	1020	0	0	0	0	
14	0	0	0	0	542	1021	0	0	0	0	
15	0	0	0	0	543	1021	0	0	0	0	
0	0	0	0	0	546	1021	0	0	0	0	
1	0	0	0	0	553	958	0	17	0	0	
2	0	0	0	0	562	677	0	124	0	0	
3	0	0	0	0	572	346	0	256	0	0	
4	0	0	0	0	583	57	0	385	0	0	
5	0	0	0	0	592	0	0	482	0	0	
6	0	0	0	0	600	0	0	540	0	0	
7	0	0	0	0	605	9	0	603	0	0	
8	0	0	0	0	606	31	0	699	0	0	
9	0	0	0	0	605	0	0	816	0	0	
10	0	0	0	0	600	0	0	929	0	0	
11	0	0	0	0	591	0	0	1006	0	0	
12	0	0	0	0	582	0	0	1020	0	0	
13	0	0	0	0	569	24	0	958	0	0	
14	0	0	0	0	557	207	0	806	0	0	
15	0	0	0	0	546	536	0	569	0	0	
0	0	0	0	0	536	992	0	269	0	0	
1	0	0	0	0	529	1020	0	0	0	0	
2	0	0	0	0	527	1021	0	0	0	0	
3	0	0	0	0	527	1021	0	0	0	0	
4	0	0	0	0	531	1021	0	0	0	0	
5	0	0	0	0	537	945	0	7	0	0	
6	0	0	0	0	547	656	0	107	0	0	
7	0	0	0	0	557	316	0	235	0	0	
8	0	0	0	0	568	21	0	360	0	0	
9	0	0	0	0	579	0	0	456	0	0	
10	0	0	0	0	588	0	0	513	0	0	
11	0	0	0	0	595	1	0	575	0	0	
12	0	0	0	0	599	26	0	669	0	0	
13	0	0	0	0	600	2	0	783	0	0	
14	0	0	0	0	595	0	0	890	0	0	
15	0	0	0	0	590	0	0	963	0	0	
0	0	0	0	0	581	0	0	975	0	0	
1	0	0	0	0	570	52	0	908	0	0	
2	0	0	0	0	558	254	0	754	0	0	
3	0	0	0	0	547	599	0	518	0	0	
4	0	0	0	0	536	1020	0	220	0	0	
5	0	0	0	0	529	1020	0	0	0	0	
6	0	0	0	0	525	1021	0	0	0	0	
7	0	0	0	0	524	1021	0	0	0	0	
8	0	0	0	0	526	1021	0	0	0	0	
9	0	0	0	0	531	970	0	9	0	0	
10	0	0	0	0	540	693	0	112	0	0	
11	0	0	0	0	550	363	0	244	0	0	
12	0	0	0	0	561	71	0	372	0	0	
13	0	0	0	0	571	0	0	470	0	0	
14	0	0	0	0	579	0	0	529	0	0	
15	0	0	0	0	586	7	0	591	0	0	
0	0	0	0	0	590	33	0	686	0	0	
1	0	0	0	0	590	5	0	803	0	0	
2	0	0	0	0	588	0	0	916	0	0	
3	0	0	0	0	582	0	0	994	0	0	
4	0	0	0	0	575	0	0	1014	0	0	
5	0	0	0	0	567	21	0	953	0	0	
6	0	0	0	0	557	199	0	804	0	0	
7	0	0	0	0	548	521	0	571	0	0	
8	0	0	0	0	541	974	0	274	0	0	
9	0	0	0	0	536	1020	0	0	0	0	
10	0	0	0	0	535	1021	0	0	0	0	
11	0	0	0	0	536	1021	0	0	0	0	
12	0	0	0	0	540	1021	0	0	0	0	
13	0	0	0	0	545	954	0	7	0	0	
14	0	0	0	0	554	667	0	109	0	0	
15	0	0	0	0	563	325	0	240	0	0	
0	0	0	0	0	571	24	0	368	0	0	
1	0	0	0	0	580	0	0	467	0	0	
2	0	0	0	0	587	0	0	527	0	0	
3	0	0	0	0	591	0	0	586	0	0	
4	0	0	0	0	593	18	0	676	0	0	
5	0	0	0	0	592	0	0	787	0	0	
6	0	0	0	0	588	0	0	894	0	0	
7	0	0	0	0	581	0	0	965	0	0	
8	0	0	0	0	573	0	0	979	0	0	
9	0	0	0	0	563	41	0	914	0	0	
10	0	0	0	0	553	237	0	761	0	0	
11	0	0	0	0	544	575	0	527	0	0	
12	0	0	0	0	537	1020	0	233	0	0	
13	0	0	0	0	534	1020	0	0	0	0	
14	0	0	0	0	532	1021	0	0	0	0	
15	0	0	0	0	535	1021	0	0	0	0	
0	0	0	0	0	541	1021	0	0	0	0	
1	0	0	0	0	549	984	0	8	0	0	
2	0	0	0	0	560	715	0	113	0	0	
3	0	0	0	0	572	386	0	247	0	0	
4	0	0	0	0	583	90	0	379	0	0	
5	0	0	0	0	593	0	0	481	0	0	
6	0	0	0	0	600	0	0	543	0	0	
7	0	0	0	0	605	6	0	603	0	0	
8	0	0	0	0	606	31	0	696	0	0	
9	0	0	0	0	604	6	0	812	0	0	
10	0	0	0	0	599	0	0	924	0	0	
11	0	0	0	0	590	0	0	1002	0	0	
12	0	0	0	0	580	0	0	1020	0	0	
13	0	0	0	0	568	16	0	965	0	0	
14	0	0	0	0	557	187	0	819	0	0	
15	0	0	0	0	546	504	0	588	0	0	
0	0	0	0	0	537	951	0	292	0	0	
1	0	0	0	0	531	1020	0	1	0	0	
2	0	0	0	0	529	1021	0	0	0	0	
3	0	0	0	0	530	1021	0	0	0	0	
4	0	0	0	0	534	1021	0	0	0	0	
5	0	0	0	0	540	956	0	11	0	0	
6	0	0	0	0	549	668	0	118	0	0	
7	0	0	0	0	559	322	0	255	0	0	
8	0	0	0	0	569	13	0	391	0	0	
9	0	0	0	0	579	0	0	497	0	0	
10	0	0	0	0	588	0	0	563	0	0	
11	0	0	0	0	593	0	0	624	0	0	
12	0	0	0	0	596	9	0	717	0	0	
13	0	0	0	0	596	0	0	831	0	0	
14	0	0	0	0	593	0	0	941	0	0	
15	0	0	0	0	587	0	0	1019	0	0	
0	0	0	0	0	579	0	0	1020	0	0	
1	0	0	0	0	569	9	0	972	0	0	
2	0	0	0	0	559	174	0	827	0	0	
3	0	0	0	0	550	487	0	598	0	0	
4	0	0	0	0	542	931	0	303	0	0	
5	0	0	0	0	538	1020	0	11	0	0	
6	0	0	0	0	536	1021	0	0	0	0	
7	0	0	0	0	536	1021	0	0	0	0	
8	0	0	0	0	540	1021	0	0	0	0	
9	0	0	0	0	547	966	0	11	0	0	
10	0	0	0	0	556	684	0	118	0	0	
11	0	0	0	0	566	342	0	257	0	0	
12	0	0	0	0	576	35	0	396	0	0	
13	0	0	0	0	586	0	0	505	0	0	
14	0	0	0	0	595	0	0	573	0	0	
15	0	0	0	0	602	0	0	637	0	0	
0	0	0	0	0	605	17	0	731	0	0	
1	0	0	0	0	607	0	0	845	0	0	
2	0	0	0	0	604	0	0	956	0	0	
3	0	0	0	0	600	0	0	1020	0	0	
4	0	0	0	0	592	0	0	1020	0	0	
5	0	0	0	0	583	24	0	977	0	0	
6	0	0	0	0	574	202	0	834	0	0	
7	0	0	0	0	563	524	0	608	0	0	
8	0	0	0	0	554	978	0	316	0	0	
9	0	0	0	0	548	1020	0	25	0	0	
10	0	0	0	0	544	1021	0	0	0	0	
11	0	0	0	0	543	1021	0	0	0	0	
12	0	0	0	0	544	1021	0	0	0	0	
13	0	0	0	0	549	988	0	14	0	0	
14	0	0	0	0	556	718	0	127	0	0	
15	0	0	0	0	563	383	0	270	0	0	
0	0	0	0	0	572	77	0	414	0	0	
1	0	0	0	0	582	0	0	529	0	0	
2	0	0	0	0	589	0	0	601	0	0	
3	0	0	0	0	595	0	0	667	0	0	
4	0	0	0	0	599	20	0	761	0	0	
5	0	0	0	0	600	0	0	876	0	0	
6	0	0	0	0	598	0	0	988	0	0	
7	0	0	0	0	593	0	0	1021	0	0	
8	0	0	0	0	587	0	0	1021	0	0	
9	0	0	0	0	579	12	0	991	0	0	
10	0	0	0	0	569	178	0	855	0	0	
11	0	0	0	0	561	490	0	636	0	0	
12	0	0	0	0	553	936	0	349	0	0	
13	0	0	0	0	547	1020	0	61	0	0	
14	0	0	0	0	544	1021	0	0	0	0	
15	0	0	0	0	544	1021	0	0	0	0	
0	0	0	0	0	546	1021	0	0	0	0	
1	0	0	0	0	550	985	0	21	0	0	
2	0	0	0	0	557	717	0	137	0	0	
3	0	0	0	0	565	383	0	285	0	0	
4	0	0	0	0	574	79	0	433	0	0	
5	0	0	0	0	583	0	0	551	0	0	
6	0	0	0	0	590	0	0	624	0	0	
7	0	0	0	0	596	0	0	690	0	0	
8	0	0	0	0	600	31	0	784	0	0	
9	0	0	0	0	600	11	0	899	0	0	
10	0	0	0	0	598	0	0	1010	0	0	
11	0	0	0	0	593	0	0	1020	0	0	
12	0	0	0	0	585	0	0	1020	0	0	
13	0	0	0	0	576	10	0	998	0	0	
14	0	0	0	0	565	171	0	866	0	0	
15	0	0	0	0	554	477	0	650	0	0	
0	0	0	0	0	545	917	0	366	0	0	
1	0	0	0	0	537	1020	0	78	0	0	
2	0	0	0	0	532	1021	0	0	0	0	
3	0	0	0	0	531	1021	0	0	0	0	
4	0	0	0	0	533	1021	0	0	0	0	
5	0	0	0	0	537	980	0	24	0	0	
6	0	0	0	0	544	704	0	143	0	0	
7	0	0	0	0	553	361	0	294	0	0	
8	0	0	0	0	563	46	0	445	0	0	
9	0	0	0	0	572	0	0	567	0	0	
10	0	0	0	0	580	0	0	641	0	0	
11	0	0	0	0	587	0	0	706	0	0	
12	0	0	0	0	591	7	0	795	0	0	
13	0	0	0	0	591	0	0	903	0	0	
14	0	0	0	0	590	0	0	1007	0	0	
15	0	0	0	0	585	0	0	1020	0	0	
0	0	0	0	0	579	0	0	1020	0	0	
1	0	0	0	0	570	14	0	985	0	0	
2	0	0	0	0	560	182	0	846	0	0	
3	0	0	0	0	551	494	0	624	0	0	
4	0	0	0	0	542	940	0	338	0	0	
5	0	0	0	0	537	1020	0	47	0	0	
6	0	0	0	0	534	1021	0	0	0	0	
7	0	0	0	0	534	1021	0	0	0	0	
8	0	0	0	0	537	1021	0	0	0	0	
9	0	0	0	0	543	998	0	22	0	0	
10	0	0	0	0	551	734	0	141	0	0	
11	0	0	0	0	560	398	0	293	0	0	
12	0	0	0	0	569	86	0	446	0	0	
13	0	0	0	0	577	0	0	569	0	0	
14	0	0	0	0	584	0	0	646	0	0	
15	0	0	0	0	589	0	0	711	0	0	
0	0	0	0	0	591	11	0	803	0	0	
1	0	0	0	0	589	0	0	918	0	0	
2	0	0	0	0	584	0	0	1020	0	0	
3	0	0	0	0	577	0	0	1020	0	0	
4	0	0	0	0	568	0	0	1020	0	0	
5	0	0	0	0	558	0	0	1008	0	0	
6	0	0	0	0	547	130	0	886	0	0	
7	0	0	0	0	537	417	0	679	0	0	
8	0	0	0	0	529	846	0	402	0	0	
9	0	0	0	0	524	1020	0	116	0	0	
10	0	0	0	0	522	1021	0	0	0	0	
11	0	0	0	0	523	1021	0	0	0	0	
12	0	0	0	0	527	1021	0	0	0	0	
13	0	0	0	0	532	987	0	21	0	0	
14	0	0	0	0	542	717	0	137	0	0	
15	0	0	0	0	552	377	0	286	0	0	
0	0	0	0	0	563	63	0	436	0	0	
1	0	0	0	0	573	0	0	556	0	0	
2	0	0	0	0	581	0	0	630	0	0	
3	0	0	0	0	589	0	0	694	0	0	
4	0	0	0	0	592	15	0	783	0	0	
5	0	0	0	0	593	0	0	895	0	0	
6	0	0	0	0	591	0	0	1005	0	0	
7	0	0	0	0	585	0	0	1021	0	0	
8	0	0	0	0	577	0	0	1020	0	0	
9	0	0	0	0	567	0	0	1002	0	0	
10	0	0	0	0	556	146	0	876	0	0	
11	0	0	0	0	546	440	0	666	0	0	
12	0	0	0	0	536	873	0	387	0	0	
13	0	0	0	0	529	1020	0	97	0	0	
14	0	0	0	0	525	1021	0	0	0	0	
15	0	0	0	0	524	1021	0	0	0	0	
0	0	0	0	0	527	1021	0	0	0	0	
1	0	0	0	0	531	999	0	15	0	0	
2	0	0	0	0	540	737	0	128	0	0	
3	0	0	0	0	549	403	0	274	0	0	
4	0	0	0	0	558	91	0	422	0	0	
5	0	0	0	0	568	0	0	540	0	0	
6	0	0	0	0	575	0	0	613	0	0	
7	0	0	0	0	579	0	0	673	0	0	
8	0	0	0	0	582	19	0	761	0	0	
9	0	0	0	0	581	0	0	873	0	0	
10	0	0	0	0	577	0	0	987	0	0	
11	0	0	0	0	571	0	0	1020	0	0	
12	0	0	0	0	564	0	0	1021	0	0	
13	0	0	0	0	556	0	0	1006	0	0	
14	0	0	0	0	547	131	0	885	0	0	
15	0	0	0	0	539	417	0	680	0	0	
0	0	0	0	0	532	844	0	404	0	0	
1	0	0	0	0	528	1020	0	116	0	0	
2	0	0	0	0	527	1021	0	0	0	0	
3	0	0	0	0	529	1021	0	0	0	0	
4	0	0	0	0	534	1021	0	0	0	0	
5	0	0	0	0	540	998	0	18	0	0	
6	0	0	0	0	548	736	0	132	0	0	
7	0	0	0	0	557	399	0	280	0	0	
8	0	0	0	0	566	84	0	429	0	0	
9	0	0	0	0	574	0	0	550	0	0	
10	0	0	0	0	579	0	0	624	0	0	
11	0	0	0	0	583	0	0	684	0	0	
12	0	0	0	0	584	22	0	771	0	0	
13	0	0	0	0	582	5	0	880	0	0	
14	0	0	0	0	578	0	0	991	0	0	
15	0	0	0	0	571	0	0	1020	0	0	
0	0	0	0	0	563	0	0	1020	0	0	
1	0	0	0	0	554	0	0	1004	0	0	
2	0	0	0	0	544	149	0	881	0	0	
3	0	0	0	0	536	441	0	674	0	0	
4	0	0	0	0	529	874	0	398	0	0	
5	0	0	0	0	526	1020	0	108	0	0	
6	0	0	0	0	526	1021	0	0	0	0	
7	0	0	0	0	528	1021	0	0	0	0	
8	0	0	0	0	534	1021	0	0	0	0	
9	0	0	0	0	541	1015	0	12	0	0	
10	0	0	0	0	551	762	0	124	0	0	
11	0	0	0	0	561	434	0	270	0	0	
12	0	0	0	0	571	121	0	418	0	0	
13	0	0	0	0	580	0	0	540	0	0	
14	0	0	0	0	587	0	0	615	0	0	
15	0	0	0	0	592	0	0	675	0	0	
0	0	0	0	0	593	28	0	760	0	0	
1	0	0	0	0	592	18	0	864	0	0	
2	0	0	0	0	588	0	0	968	0	0	
3	0	0	0	0	581	0	0	1020	0	0	
4	0	0	0	0	574	0	0	1020	0	0	
5	0	0	0	0	565	17	0	986	0	0	
6	0	0	0	0	555	180	0	853	0	0	
7	0	0	0	0	546	484	0	636	0	0	
8	0	0	0	0	537	924	0	352	0	0	
9	0	0	0	0	532	1020	0	56	0	0	
10	0	0	0	0	528	1021	0	0	0	0	
11	0	0	0	0	528	1021	0	0	0	0	
12	0	0	0	0	530	1021	1	0	0	0	
13	0	0	0	0	534	1021	0	2	0	0	
14	0	0	0	0	541	789	0	109	0	0	
15	0	0	0	0	548	470	0	251	0	0	
0	0	0	0	0	557	163	0	397	0	0	
1	0	0	0	0	565	0	0	518	0	0	
2	0	0	0	0	571	0	0	594	0	0	
3	0	0	0	0	577	4	0	655	0	0	
4	0	0	0	0	580	48	0	740	0	0	
5	0	0	0	0	580	44	0	850	0	0	
6	0	0	0	0	578	0	0	960	0	0	
7	0	0	0	0	573	0	0	1021	0	0	
8	0	0	0	0	567	0	0	1020	0	0	
9	0	0	0	0	560	13	0	997	0	0	
10	0	0	0	0	552	168	0	871	0	0	
11	0	0	0	0	544	463	0	659	0	0	
12	0	0	0	0	537	897	0	376	0	0	
13	0	0	0	0	534	1020	0	76	0	0	
14	0	0	0	0	531	1021	0	0	0	0	
15	0	0	0	0	532	1021	0	0	0	0	
0	0	0	0	0	535	1021	0	0	0	0	
1	0	0	0	0	540	1021	0	0	0	0	
2	0	0	0	0	548	793	0	83	0	0	
3	0	0	0	0	556	474	0	212	0	0	
4	0	0	0	0	566	167	0	348	0	0	
5	0	0	0	0	574	0	0	460	0	0	
6	0	0	0	0	581	0	0	530	0	0	
7	0	0	0	0	587	5	0	587	0	0	
8	0	0	0	0	588	51	0	671	0	0	
9	0	0	0	0	588	52	0	780	0	0	
10	0	0	0	0	584	5	0	892	0	0	
11	0	0	0	0	578	0	0	978	0	0	
12	0	0	0	0	570	0	0	1011	0	0	
13	0	0	0	0	560	23	0	970	0	0	
14	0	0	0	0	549	184	0	843	0	0	
15	0	0	0	0	540	484	0	630	0	0	
0	0	0	0	0	530	920	0	345	0	0	
1	0	0	0	0	524	1020	0	43	0	0	
2	0	0	0	0	519	1021	0	0	0	0	
3	0	0	0	0	519	1021	0	0	0	0	
4	0	0	0	0	522	1021	0	0	0	0	
5	0	0	0	0	527	1021	0	0	0	0	
6	0	0	0	0	536	810	0	70	0	0	
7	0	0	0	0	545	497	0	194	0	0	
8	0	0	0	0	556	193	0	326	0	0	
9	0	0	0	0	567	0	0	438	0	0	
10	0	0	0	0	577	0	0	508	0	0	
11	0	0	0	0	585	12	0	566	0	0	
12	0	0	0	0	590	63	0	654	0	0	
13	0	0	0	0	592	65	0	769	0	0	
14	0	0	0	0	591	16	0	889	0	0	
15	0	0	0	0	587	0	0	985	0	0	
0	0	0	0	0	580	0	0	1020	0	0	
1	0	0	0	0	572	11	0	996	0	0	
2	0	0	0	0	561	159	0	878	0	0	
3	0	0	0	0	550	446	0	673	0	0	
4	0	0	0	0	540	871	0	394	0	0	
5	0	0	0	0	533	1020	0	92	0	0	
6	0	0	0	0	528	1021	0	0	0	0	
7	0	0	0	0	526	1021	0	0	0	0	
8	0	0	0	0	527	1021	0	0	0	0	
9	0	0	0	0	531	1021	0	0	0	0	
10	0	0	0	0	539	808	0	68	0	0	
11	0	0	0	0	547	494	0	191	0	0	
12	0	0	0	0	557	187	0	322	0	0	
13	0	0	0	0	566	0	0	433	0	0	
14	0	0	0	0	574	0	0	502	0	0	
15	0	0	0	0	580	7	0	555	0	0	
0	0	0	0	0	583	60	0	633	0	0	
1	0	0	0	0	584	71	0	737	0	0	
2	0	0	0	0	582	36	0	844	0	0	
3	0	0	0	0	577	0	0	926	0	0	
4	0	0	0	0	571	0	0	956	0	0	
5	0	0	0	0	563	48	0	915	0	0	
6	0	0	0	0	553	222	0	791	0	0	
7	0	0	0	0	545	531	0	583	0	0	
8	0	0	0	0	536	973	0	305	0	0	
9	0	0	0	0	531	1020	0	12	0	0	
10	0	0	0	0	527	1021	0	0	0	0	
11	0	0	0	0	526	1021	0	0	0	0	
12	0	0	0	0	529	1021	0	0	0	0	
13	0	0	0	0	533	1021	0	0	0	0	
14	0	0	0	0	540	852	0	71	0	0	
15	0	0	0	0	548	552	0	195	0	0	
0	0	0	0	0	556	254	0	326	0	0	
1	0	0	0	0	564	41	0	438	0	0	
2	0	0	0	0	571	0	0	508	0	0	
3	0	0	0	0	576	18	0	563	0	0	
4	0	0	0	0	579	66	0	645	0	0	
5	0	0	0	0	578	65	0	758	0	0	
6	0	0	0	0	574	11	0	876	0	0	
7	0	0	0	0	568	0	0	972	0	0	
8	0	0	0	0	560	0	0	1018	0	0	
9	0	0	0	0	550	0	0	992	0	0	
10	0	0	0	0	541	136	0	879	0	0	
11	0	0	0	0	532	412	0	679	0	0	
12	0	0	0	0	525	829	0	406	0	0	
13	0	0	0	0	520	1020	0	105	0	0	
14	0	0	0	0	519	1020	0	0	0	0	
15	0	0	0	0	521	1021	0	0	0	0	
0	0	0	0	0	526	1021	0	0	0	0	
1	0	0	0	0	532	1021	0	0	0	0	
2	0	0	0	0	542	814	0	70	0	0	
3	0	0	0	0	552	498	0	195	0	0	
4	0	0	0	0	563	187	0	327	0	0	
5	0	0	0	0	572	0	0	440	0	0	
6	0	0	0	0	578	0	0	512	0	0	
7	0	0	0	0	583	0	0	566	0	0	
8	0	0	0	0	584	46	0	647	0	0	
9	0	0	0	0	583	50	0	756	0	0	
10	0	0	0	0	578	3	0	870	0	0	
11	0	0	0	0	571	0	0	961	0	0	
12	0	0	0	0	563	0	0	1004	0	0	
13	0	0	0	0	553	9	0	974	0	0	
14	0	0	0	0	543	154	0	859	0	0	
15	0	0	0	0	535	438	0	657	0	0	
0	0	0	0	0	527	858	0	382	0	0	
1	0	0	0	0	523	1020	0	82	0	0	
2	0	0	0	0	521	1021	0	0	0	0	
3	0	0	0	0	523	1021	0	0	0	0	
4	0	0	0	0	528	1021	0	0	0	0	
5	0	0	0	0	535	1021	0	0	0	0	
6	0	0	0	0	544	831	0	67	0	0	
7	0	0	0	0	554	519	0	192	0	0	
8	0	0	0	0	565	209	0	325	0	0	
9	0	0	0	0	575	0	0	440	0	0	
10	0	0	0	0	583	0	0	516	0	0	
11	0	0	0	0	590	1	0	572	0	0	
12	0	0	0	0	592	51	0	654	0	0	
13	0	0	0	0	591	59	0	761	0	0	
14	0	0	0	0	587	18	0	873	0	0	
15	0	0	0	0	580	0	0	961	0	0	
0	0	0	0	0	570	0	0	999	0	0	
1	0	0	0	0	559	21	0	966	0	0	
2	0	0	0	0	546	174	0	847	0	0	
3	0	0	0	0	535	463	0	643	0	0	
4	0	0	0	0	525	889	0	366	0	0	
5	0	0	0	0	518	1020	0	64	0	0	
6	0	0	0	0	513	1021	0	0	0	0	
7	0	0	0	0	513	1021	0	0	0	0	
8	0	0	0	0	515	1021	0	0	0	0	
9	0	0	0	0	520	1021	0	0	0	0	
10	0	0	0	0	527	847	0	58	0	0	
11	0	0	0	0	537	542	0	179	0	0	
12	0	0	0	0	547	233	0	309	0	0	
13	0	0	0	0	557	8	0	422	0	0	
14	0	0	0	0	565	0	0	496	0	0	
15	0	0	0	0	572	1	0	552	0	0	
0	0	0	0	0	575	46	0	636	0	0	
1	0	0	0	0	576	47	0	749	0	0	
2	0	0	0	0	574	0	0	870	0	0	
3	0	0	0	0	569	0	0	969	0	0	
4	0	0	0	0	562	0	0	1020	0	0	
5	0	0	0	0	554	0	0	999	0	0	
6	0	0	0	0	545	120	0	892	0	0	
7	0	0	0	0	536	386	0	697	0	0	
8	0	0	0	0	528	793	0	428	0	0	
9	0	0	0	0	523	1020	0	126	0	0	
10	0	0	0	0	520	1021	0	0	0	0	
11	0	0	0	0	520	1021	0	0	0	0	
12	0	0	0	0	523	1021	0	0	0	0	
13	0	0	0	0	528	1021	0	0	0	0	
14	0	0	0	0	536	824	0	65	0	0	
15	0	0	0	0	545	507	0	190	0	0	
0	0	0	0	0	555	189	0	325	0	0	
1	0	0	0	0	564	0	0	443	0	0	
2	0	0	0	0	572	0	0	521	0	0	
3	0	0	0	0	579	0	0	577	0	0	
4	0	0	0	0	582	37	0	658	0	0	
5	0	0	0	0	583	42	0	766	0	0	
6	0	0	0	0	580	0	0	880	0	0	
7	0	0	0	0	575	0	0	972	0	0	
8	0	0	0	0	568	0	0	1014	0	0	
9	0	0	0	0	558	7	0	986	0	0	
10	0	0	0	0	548	147	0	873	0	0	
11	0	0	0	0	539	425	0	674	0	0	
12	0	0	0	0	529	841	0	400	0	0	
13	0	0	0	0	524	1020	0	99	0	0	
14	0	0	0	0	520	1020	0	0	0	0	
15	0	0	0	0	519	1021	0	0	0	0	
0	0	0	0	0	523	1021	0	0	0	0	
1	0	0	0	0	528	1021	0	0	0	0	
2	0	0	0	0	538	841	0	75	0	0	
3	0	0	0	0	548	529	0	207	0	0	
4	0	0	0	0	559	212	0	351	0	0	
5	0	0	0	0	570	0	0	476	0	0	
6	0	0	0	0	579	0	0	560	0	0	
7	0	0	0	0	586	0	0	620	0	0	
8	0	0	0	0	590	38	0	701	0	0	
9	0	0	0	0	590	44	0	808	0	0	
10	0	0	0	0	588	3	0	919	0	0	
11	0	0	0	0	582	0	0	1008	0	0	
12	0	0	0	0	573	0	0	1020	0	0	
13	0	0	0	0	563	8	0	1001	0	0	
14	0	0	0	0	551	149	0	886	0	0	
15	0	0	0	0	541	425	0	686	0	0	
0	0	0	0	0	531	840	0	411	0	0	
1	0	0	0	0	523	1020	0	106	0	0	
2	0	0	0	0	519	1021	0	0	0	0	
3	0	0	0	0	518	1021	0	0	0	0	
4	0	0	0	0	520	1021	0	0	0	0	
5	0	0	0	0	524	1021	0	0	0	0	
6	0	0	0	0	532	852	0	70	0	0	
7	0	0	0	0	541	542	0	200	0	0	
8	0	0	0	0	551	224	0	342	0	0	
9	0	0	0	0	560	0	0	466	0	0	
10	0	0	0	0	568	0	0	549	0	0	
11	0	0	0	0	575	0	0	608	0	0	
12	0	0	0	0	579	28	0	688	0	0	
13	0	0	0	0	580	30	0	795	0	0	
14	0	0	0	0	579	0	0	908	0	0	
15	0	0	0	0	575	0	0	999	0	0	
0	0	0	0	0	569	0	0	1020	0	0	
1	0	0	0	0	562	0	0	1004	0	0	
2	0	0	0	0	553	119	0	895	0	0	
3	0	0	0	0	545	382	0	699	0	0	
4	0	0	0	0	538	788	0	428	0	0	
5	0	0	0	0	533	1020	0	126	0	0	
6	0	0	0	0	530	1021	0	0	0	0	
7	0	0	0	0	530	1021	0	0	0	0	
8	0	0	0	0	532	1021	0	0	0	0	
9	0	0	0	0	536	1021	0	0	0	0	
10	0	0	0	0	544	844	0	70	0	0	
11	0	0	0	0	552	529	0	200	0	0	
12	0	0	0	0	561	207	0	342	0	0	
13	0	0	0	0	569	0	0	467	0	0	
14	0	0	0	0	575	0	0	551	0	0	
15	0	0	0	0	580	0	0	610	0	0	
0	0	0	0	0	582	24	0	690	0	0	
1	0	0	0	0	580	24	0	798	0	0	
2	0	0	0	0	575	0	0	912	0	0	
3	0	0	0	0	567	0	0	1009	0	0	
4	0	0	0	0	555	0	0	1020	0	0	
5	0	0	0	0	542	0	0	1011	0	0	
6	0	0	0	0	527	89	0	903	0	0	
7	0	0	0	0	512	334	0	706	0	0	
8	0	0	0	0	497	719	0	434	0	0	
9	0	0	0	0	483	1020	0	124	0	0	
10	0	0	0	0	471	1021	0	0	0	0	
11	0	0	0	0	462	1021	0	0	0	0	
12	0	0	0	0	455	1020	0	0	0	0	
13	0	0	0	0	450	1021	0	0	0	0	
14	0	0	0	0	447	798	0	31	0	0	
15	0	0	0	0	447	457	0	136	0	0	
0	0	0	0	0	447	108	0	252	0	0	
1	0	0	0	0	447	0	0	353	0	0	
2	0	0	0	0	444	0	0	414	0	0	
3	0	0	0	0	441	0	0	451	0	0	
4	0	0	0	0	434	0	0	513	0	0	
5	0	0	0	0	424	0	0	607	0	0	
6	0	0	0	0	411	0	0	713	0	0	
7	0	0	0	0	395	0	0	800	0	0	
8	0	0	0	0	377	0	0	843	0	0	
9	0	0	0	0	358	0	0	816	0	0	
10	0	0	0	0	339	17	0	706	0	0	
11	0	0	0	0	323	215	0	512	0	0	
12	0	0	0	0	309	564	0	243	0	0	
13	0	0	0	0	301	1011	0	0	0	0	
14	0	0	0	0	298	1020	0	0	0	0	
15	0	0	0	0	303	1021	0	0	0	0	
0	0	0	0	0	315	1021	0	0	0	0	
1	0	0	0	0	332	1005	0	0	0	0	
2	0	0	0	0	356	739	0	15	0	0	
3	0	0	0	0	385	382	0	112	0	0	
4	0	0	0	0	417	25	0	226	0	0	
5	0	0	0	0	451	0	0	330	0	0	
6	0	0	0	0	483	0	0	403	0	0	
7	0	0	0	0	514	0	0	457	0	0	
8	0	0	0	0	540	0	0	541	0	0	
9	0	0	0	0	562	0	0	660	0	0	
10	0	0	0	0	578	0	0	793	0	0	
11	0	0	0	0	588	0	0	910	0	0	
12	0	0	0	0	592	0	0	984	0	0	
13	0	0	0	0	592	0	0	989	0	0	
14	0	0	0	0	588	83	0	910	0	0	
15	0	0	0	0	580	330	0	743	0	0	
0	0	0	0	0	571	723	0	496	0	0	
1	0	0	0	0	563	1020	0	207	0	0	
2	0	0	0	0	556	1021	0	0	0	0	
3	0	0	0	0	551	1021	0	0	0	0	
4	0	0	0	0	547	1021	0	0	0	0	
5	0	0	0	0	547	1021	0	0	0	0	
6	0	0	0	0	550	873	0	81	0	0	
7	0	0	0	0	555	572	0	217	0	0	
8	0	0	0	0	561	254	0	364	0	0	
9	0	0	0	0	568	11	0	494	0	0	
10	0	0	0	0	575	0	0	583	0	0	
11	0	0	0	0	581	0	0	642	0	0	
12	0	0	0	0	585	37	0	719	0	0	
13	0	0	0	0	588	45	0	827	0	0	
14	0	0	0	0	589	0	0	944	0	0	
15	0	0	0	0	587	0	0	1020	0	0	
0	0	0	0	0	583	0	0	1020	0	0	
1	0	0	0	0	577	0	0	1020	0	0	
2	0	0	0	0	570	85	0	940	0	0	
3	0	0	0	0	563	325	0	765	0	0	
4	0	0	0	0	556	710	0	511	0	0	
5	0	0	0	0	551	1020	0	217	0	0	
6	0	0	0	0	548	1021	0	0	0	0	
7	0	0	0	0	547	1021	0	0	0	0	
8	0	0	0	0	549	1021	0	0	0	0	
9	0	0	0	0	553	1021	0	0	0	0	
10	0	0	0	0	559	852	0	86	0	0	
11	0	0	0	0	566	536	0	227	0	0	
12	0	0	0	0	574	204	0	380	0	0	
13	0	0	0	0	580	0	0	516	0	0	
14	0	0	0	0	586	0	0	608	0	0	
15	0	0	0	0	591	0	0	669	0	0	
0	0	0	0	0	594	10	0	746	0	0	
1	0	0	0	0	595	8	0	850	0	0	
2	0	0	0	0	593	0	0	965	0	0	
3	0	0	0	0	589	0	0	1020	0	0	
4	0	0	0	0	584	0	0	1021	0	0	
5	0	0	0	0	577	0	0	1020	0	0	
6	0	0	0	0	569	67	0	940	0	0	
7	0	0	0	0	562	297	0	766	0	0	
8	0	0	0	0	556	676	0	513	0	0	
9	0	0	0	0	551	1020	0	220	0	0	
10	0	0	0	0	549	1021	0	0	0	0	
11	0	0	0	0	550	1021	0	0	0	0	
12	0	0	0	0	553	1021	0	0	0	0	
13	0	0	0	0	558	1021	0	0	0	0	
14	0	0	0	0	566	857	0	87	0	0	
15	0	0	0	0	574	542	0	228	0	0	
0	0	0	0	0	582	211	0	382	0	0	
1	0	0	0	0	589	0	0	519	0	0	
2	0	0	0	0	596	0	0	613	0	0	
3	0	0	0	0	601	0	0	674	0	0	
4	0	0	0	0	603	16	0	750	0	0	
5	0	0	0	0	603	21	0	852	0	0	
6	0	0	0	0	600	0	0	963	0	0	
7	0	0	0	0	595	0	0	1020	0	0	
8	0	0	0	0	590	0	0	1021	0	0	
9	0	0	0	0	583	0	0	1020	0	0	
10	0	0	0	0	574	82	0	932	0	0	
11	0	0	0	0	565	320	0	753	0	0	
12	0	0	0	0	557	702	0	497	0	0	
13	0	0	0	0	551	1020	0	199	0	0	
14	0	0	0	0	547	1020	0	0	0	0	
15	0	0	0	0	545	1021	0	0	0	0	
0	0	0	0	0	546	1021	0	0	0	0	
1	0	0	0	0	548	1021	0	0	0	0	
2	0	0	0	0	554	873	0	65	0	0	
3	0	0	0	0	561	564	0	196	0	0	
4	0	0	0	0	568	237	0	342	0	0	
5	0	0	0	0	577	0	0	473	0	0	
6	0	0	0	0	583	0	0	564	0	0	
7	0	0	0	0	589	0	0	624	0	0	
8	0	0	0	0	592	23	0	700	0	0	
9	0	0	0	0	593	34	0	803	0	0	
10	0	0	0	0	591	0	0	916	0	0	
11	0	0	0	0	587	0	0	1011	0	0	
12	0	0	0	0	582	0	0	1020	0	0	
13	0	0	0	0	574	0	0	1019	0	0	
14	0	0	0	0	566	109	0	923	0	0	
15	0	0	0	0	558	360	0	740	0	0	
0	0	0	0	0	549	753	0	481	0	0	
1	0	0	0	0	543	1020	0	179	0	0	
2	0	0	0	0	540	1021	0	0	0	0	
3	0	0	0	0	539	1021	0	0	0	0	
4	0	0	0	0	541	1021	1	0	0	0	
5	0	0	0	0	545	1021	0	0	0	0	
6	0	0	0	0	553	897	0	61	0	0	
7	0	0	0	0	562	598	0	192	0	0	
8	0	0	0	0	572	276	0	339	0	0	
9	0	0	0	0	581	20	0	473	0	0	
10	0	0	0	0	588	0	0	566	0	0	
11	0	0	0	0	595	0	0	628	0	0	
12	0	0	0	0	598	28	0	703	0	0	
13	0	0	0	0	599	42	0	805	0	0	
14	0	0	0	0	596	6	0	915	0	0	
15	0	0	0	0	591	0	0	1008	0	0	
0	0	0	0	0	583	0	0	1020	0	0	
1	0	0	0	0	574	0	0	1016	0	0	
2	0	0	0	0	564	108	0	917	0	0	
3	0	0	0	0	553	357	0	732	0	0	
4	0	0	0	0	543	748	0	471	0	0	
5	0	0	0	0	537	1020	0	167	0	0	
6	0	0	0	0	532	1021	0	0	0	0	
7	0	0	0	0	531	1021	0	0	0	0	
8	0	0	0	0	533	1021	0	0	0	0	
9	0	0	0	0	537	1021	0	0	0	0	
10	0	0	0	0	545	902	0	52	0	0	
11	0	0	0	0	554	605	0	179	0	0	
12	0	0	0	0	564	283	0	323	0	0	
13	0	0	0	0	575	26	0	455	0	0	
14	0	0	0	0	584	0	0	548	0	0	
15	0	0	0	0	593	0	0	610	0	0	
0	0	0	0	0	597	27	0	687	0	0	
1	0	0	0	0	600	40	0	792	0	0	
2	0	0	0	0	598	0	0	910	0	0	
3	0	0	0	0	592	0	0	1010	0	0	
4	0	0	0	0	586	0	0	1020	0	0	
5	0	0	0	0	576	0	0	1020	0	0	
6	0	0	0	0	567	80	0	938	0	0	
7	0	0	0	0	556	313	0	764	0	0	
8	0	0	0	0	546	689	0	510	0	0	
9	0	0	0	0	538	1020	0	211	0	0	
10	0	0	0	0	533	1021	0	0	0	0	
11	0	0	0	0	531	1021	0	0	0	0	
12	0	0	0	0	532	1021	0	0	0	0	
13	0	0	0	0	536	1021	0	0	0	0	
14	0	0	0	0	543	891	0	51	0	0	
15	0	0	0	0	551	587	0	177	0	0	
0	0	0	0	0	560	258	0	320	0	0	
1	0	0	0	0	570	0	0	451	0	0	
2	0	0	0	0	578	0	0	545	0	0	
3	0	0	0	0	585	0	0	604	0	0	
4	0	0	0	0	590	16	0	678	0	0	
5	0	0	0	0	591	27	0	780	0	0	
6	0	0	0	0	590	0	0	893	0	0	
7	0	0	0	0	585	0	0	991	0	0	
8	0	0	0	0	579	0	0	1020	0	0	
9	0	0	0	0	570	0	0	1018	0	0	
10	0	0	0	0	561	89	0	926	0	0	
11	0	0	0	0	550	327	0	747	0	0	
12	0	0	0	0	541	708	0	491	0	0	
13	0	0	0	0	535	1020	0	190	0	0	
14	0	0	0	0	530	1021	0	0	0	0	
15	0	0	0	0	528	1021	0	0	0	0	
0	0	0	0	0	529	1021	0	0	0	0	
1	0	0	0	0	533	1021	0	0	0	0	
2	0	0	0	0	539	902	0	53	0	0	
3	0	0	0	0	547	600	0	182	0	0	
4	0	0	0	0	556	271	0	329	0	0	
5	0	0	0	0	565	6	0	465	0	0	
6	0	0	0	0	573	0	0	561	0	0	
7	0	0	0	0	580	0	0	623	0	0	
8	0	0	0	0	584	16	0	696	0	0	
9	0	0	0	0	586	28	0	798	0	0	
10	0	0	0	0	585	0	0	910	0	0	
11	0	0	0	0	580	0	0	1007	0	0	
12	0	0	0	0	575	0	0	1020	0	0	
13	0	0	0	0	567	0	0	1020	0	0	
14	0	0	0	0	558	79	0	932	0	0	
15	0	0	0	0	548	308	0	756	0	0	
0	0	0	0	0	539	682	0	500	0	0	
1	0	0	0	0	534	1020	0	198	0	0	
2	0	0	0	0	529	1020	0	0	0	0	
3	0	0	0	0	528	1021	0	0	0	0	
4	0	0	0	0	530	1021	0	0	0	0	
5	0	0	0	0	534	1021	0	0	0	0	
6	0	0	0	0	541	916	0	37	0	0	
7	0	0	0	0	550	625	0	155	0	0	
8	0	0	0	0	559	305	0	292	0	0	
9	0	0	0	0	568	46	0	419	0	0	
10	0	0	0	0	575	0	0	512	0	0	
11	0	0	0	0	582	0	0	572	0	0	
12	0	0	0	0	585	33	0	647	0	0	
13	0	0	0	0	586	51	0	754	0	0	
14	0	0	0	0	585	12	0	878	0	0	
15	0	0	0	0	580	0	0	989	0	0	
0	0	0	0	0	574	0	0	1020	0	0	
1	0	0	0	0	567	0	0	1020	0	0	
2	0	0	0	0	558	59	0	960	0	0	
3	0	0	0	0	549	274	0	799	0	0	
4	0	0	0	0	541	633	0	557	0	0	
5	0	0	0	0	536	1020	0	262	0	0	
6	0	0	0	0	531	1021	0	1	0	0	
7	0	0	0	0	530	1021	0	0	0	0	
8	0	0	0	0	532	1021	0	0	0	0	
9	0	0	0	0	536	1021	0	0	0	0	
10	0	0	0	0	542	897	0	47	0	0	
11	0	0	0	0	550	595	0	171	0	0	
12	0	0	0	0	559	265	0	312	0	0	
13	0	0	0	0	568	1	0	444	0	0	
14	0	0	0	0	576	0	0	538	0	0	
15	0	0	0	0	583	0	0	598	0	0	
0	0	0	0	0	587	18	0	670	0	0	
1	0	0	0	0	588	37	0	770	0	0	
2	0	0	0	0	586	5	0	882	0	0	
3	0	0	0	0	580	0	0	982	0	0	
4	0	0	0	0	573	0	0	1020	0	0	
5	0	0	0	0	563	0	0	1018	0	0	
6	0	0	0	0	553	90	0	930	0	0	
7	0	0	0	0	543	324	0	755	0	0	
8	0	0	0	0	532	699	0	500	0	0	
9	0	0	0	0	526	1020	0	198	0	0	
10	0	0	0	0	521	1021	0	0	0	0	
11	0	0	0	0	520	1021	0	0	0	0	
12	0	0	0	0	523	1021	0	0	0	0	
13	0	0	0	0	527	1021	0	0	0	0	
14	0	0	0	0	536	926	0	36	0	0	
15	0	0	0	0	545	636	0	155	0	0	
0	0	0	0	0	555	311	0	295	0	0	
1	0	0	0	0	567	43	0	427	0	0	
2	0	0	0	0	576	0	0	523	0	0	
3	0	0	0	0	585	0	0	583	0	0	
4	0	0	0	0	590	21	0	656	0	0	
5	0	0	0	0	591	37	0	760	0	0	
6	0	0	0	0	590	0	0	879	0	0	
7	0	0	0	0	585	0	0	985	0	0	
8	0	0	0	0	578	0	0	1020	0	0	
9	0	0	0	0	568	0	0	1020	0	0	
10	0	0	0	0	557	55	0	952	0	0	
11	0	0	0	0	546	266	0	787	0	0	
12	0	0	0	0	535	622	0	540	0	0	
13	0	0	0	0	527	1020	0	241	0	0	
14	0	0	0	0	521	1020	0	0	0	0	
15	0	0	0	0	519	1021	0	0	0	0	
0	0	0	0	0	520	1021	0	0	0	0	
1	0	0	0	0	525	1021	0	0	0	0	
2	0	0	0	0	532	910	0	34	0	0	
3	0	0	0	0	542	610	0	150	0	0	
4	0	0	0	0	553	278	0	288	0	0	
5	0	0	0	0	564	5	0	418	0	0	
6	0	0	0	0	575	0	0	513	0	0	
7	0	0	0	0	584	0	0	572	0	0	
8	0	0	0	0	590	11	0	643	0	0	
9	0	0	0	0	593	27	0	744	0	0	
10	0	0	0	0	592	0	0	860	0	0	
11	0	0	0	0	588	0	0	963	0	0	
12	0	0	0	0	582	0	0	1020	0	0	
13	0	0	0	0	573	0	0	1019	0	0	
14	0	0	0	0	564	69	0	937	0	0	
15	0	0	0	0	553	290	0	768	0	0	
0	0	0	0	0	543	655	0	519	0	0	
1	0	0	0	0	536	1020	0	218	0	0	
2	0	0	0	0	530	1021	0	0	0	0	
3	0	0	0	0	528	1021	0	0	0	0	
4	0	0	0	0	530	1021	0	0	0	0	
5	0	0	0	0	535	1021	0	0	0	0	
6	0	0	0	0	543	931	0	34	0	0	
7	0	0	0	0	552	642	0	152	0	0	
8	0	0	0	0	563	315	0	292	0	0	
9	0	0	0	0	574	41	0	424	0	0	
10	0	0	0	0	583	0	0	522	0	0	
11	0	0	0	0	592	0	0	583	0	0	
12	0	0	0	0	598	19	0	653	0	0	
13	0	0	0	0	601	41	0	752	0	0	
14	0	0	0	0	600	13	0	864	0	0	
15	0	0	0	0	597	0	0	965	0	0	
0	0	0	0	0	591	0	0	1020	0	0	
1	0	0	0	0	583	0	0	1018	0	0	
2	0	0	0	0	572	86	0	935	0	0	
3	0	0	0	0	562	314	0	766	0	0	
4	0	0	0	0	551	683	0	517	0	0	
5	0	0	0	0	543	1020	0	215	0	0	
6	0	0	0	0	536	1021	0	0	0	0	
7	0	0	0	0	533	1021	0	0	0	0	
8	0	0	0	0	533	1021	0	0	0	0	
9	0	0	0	0	535	1021	0	0	0	0	
10	0	0	0	0	542	940	0	33	0	0	
11	0	0	0	0	551	652	0	154	0	0	
12	0	0	0	0	561	325	0	296	0	0	
13	0	0	0	0	572	48	0	432	0	0	
14	0	0	0	0	582	0	0	531	0	0	
15	0	0	0	0	591	0	0	595	0	0	
0	0	0	0	0	597	14	0	667	0	0	
1	0	0	0	0	601	32	0	768	0	0	
2	0	0	0	0	601	0	0	883	0	0	
3	0	0	0	0	599	0	0	988	0	0	
4	0	0	0	0	594	0	0	1020	0	0	
5	0	0	0	0	586	0	0	1020	0	0	
6	0	0	0	0	577	64	0	950	0	0	
7	0	0	0	0	568	280	0	786	0	0	
8	0	0	0	0	558	640	0	540	0	0	
9	0	0	0	0	550	1020	0	240	0	0	
10	0	0	0	0	543	1021	0	0	0	0	
11	0	0	0	0	540	1021	0	0	0	0	
12	0	0	0	0	540	1021	0	0	0	0	
13	0	0	0	0	540	1021	0	0	0	0	
14	0	0	0	0	545	938	0	31	0	0	
15	0	0	0	0	552	650	0	149	0	0	
0	0	0	0	0	560	321	0	289	0	0	
1	0	0	0	0	568	43	0	422	0	0	
2	0	0	0	0	575	0	0	521	0	0	
3	0	0	0	0	582	0	0	582	0	0	
4	0	0	0	0	587	14	0	653	0	0	
5	0	0	0	0	589	33	0	755	0	0	
6	0	0	0	0	590	0	0	874	0	0	
7	0	0	0	0	587	0	0	983	0	0	
8	0	0	0	0	583	0	0	1020	0	0	
9	0	0	0	0	576	0	0	1020	0	0	
10	0	0	0	0	569	49	0	965	0	0	
11	0	0	0	0	561	253	0	809	0	0	
12	0	0	0	0	552	603	0	570	0	0	
13	0	0	0	0	546	1020	0	274	0	0	
14	0	0	0	0	542	1020	0	1	0	0	
15	0	0	0	0	539	1021	0	0	0	0	
0	0	0	0	0	540	1021	0	0	0	0	
1	0	0	0	0	542	1021	0	0	0	0	
2	0	0	0	0	547	926	0	39	0	0	
3	0	0	0	0	553	629	0	161	0	0	
4	0	0	0	0	560	294	0	305	0	0	
5	0	0	0	0	568	12	0	441	0	0	
6	0	0	0	0	575	0	0	541	0	0	
7	0	0	0	0	582	0	0	601	0	0	
8	0	0	0	0	585	9	0	666	0	0	
9	0	0	0	0	587	30	0	760	0	0	
10	0	0	0	0	587	1	0	870	0	0	
11	0	0	0	0	583	0	0	970	0	0	
12	0	0	0	0	579	0	0	1020	0	0	
13	0	0	0	0	573	0	0	1020	0	0	
14	0	0	0	0	566	61	0	943	0	0	
15	0	0	0	0	558	272	0	777	0	0	
0	0	0	0	0	551	627	0	529	0	0	
1	0	0	0	0	545	1020	0	226	0	0	
2	0	0	0	0	541	1020	0	0	0	0	
3	0	0	0	0	540	1021	0	0	0	0	
4	0	0	0	0	542	1021	0	0	0	0	
5	0	0	0	0	545	1021	0	0	0	0	
6	0	0	0	0	551	945	0	19	0	0	
7	0	0	0	0	558	659	0	127	0	0	
8	0	0	0	0	567	329	0	260	0	0	
9	0	0	0	0	575	46	0	388	0	0	
10	0	0	0	0	582	0	0	483	0	0	
11	0	0	0	0	588	0	0	540	0	0	
12	0	0	0	0	591	11	0	604	0	0	
13	0	0	0	0	591	31	0	700	0	0	
14	0	0	0	0	590	2	0	816	0	0	
15	0	0	0	0	584	0	0	923	0	0	
0	0	0	0	0	577	0	0	993	0	0	
1	0	0	0	0	568	0	0	1003	0	0	
2	0	0	0	0	558	48	0	931	0	0	
3	0	0	0	0	547	249	0	770	0	0	
4	0	0	0	0	538	593	0	527	0	0	
5	0	0	0	0	530	1020	0	225	0	0	
6	0	0	0	0	525	1020	0	0	0	0	
7	0	0	0	0	523	1021	0	0	0	0	
8	0	0	0	0	523	1021	0	0	0	0	
9	0	0	0	0	527	1021	0	0	0	0	
10	0	0	0	0	534	940	0	8	0	0	
11	0	0	0	0	543	649	0	108	0	0	
12	0	0	0	0	552	317	0	233	0	0	
13	0	0	0	0	563	32	0	355	0	0	
14	0	0	0	0	572	0	0	446	0	0	
15	0	0	0	0	581	0	0	499	0	0	
0	0	0	0	0	587	9	0	564	0	0	
1	0	0	0	0	590	30	0	664	0	0	
2	0	0	0	0	590	0	0	787	0	0	
3	0	0	0	0	588	0	0	904	0	0	
4	0	0	0	0	583	0	0	986	0	0	
5	0	0	0	0	575	0	0	1008	0	0	
6	0	0	0	0	567	33	0	948	0	0	
7	0	0	0	0	557	224	0	799	0	0	
8	0	0	0	0	548	559	0	564	0	0	
9	0	0	0	0	540	1016	0	267	0	0	
10	0	0	0	0	535	1020	0	1	0	0	
11	0	0	0	0	531	1021	0	0	0	0	
12	0	0	0	0	532	1021	0	0	0	0	
13	0	0	0	0	535	1021	0	0	0	0	
14	0	0	0	0	541	933	0	15	0	0	
15	0	0	0	0	548	637	0	120	0	0	
0	0	0	0	0	557	296	0	251	0	0	
1	0	0	0	0	566	4	0	375	0	0	
2	0	0	0	0	574	0	0	468	0	0	
3	0	0	0	0	581	0	0	522	0	0	
4	0	0	0	0	585	0	0	582	0	0	
5	0	0	0	0	587	15	0	673	0	0	
6	0	0	0	0	585	0	0	783	0	0	
7	0	0	0	0	582	0	0	887	0	0	
8	0	0	0	0	575	0	0	955	0	0	
9	0	0	0	0	568	0	0	962	0	0	
10	0	0	0	0	559	54	0	890	0	0	
11	0	0	0	0	549	259	0	731	0	0	
12	0	0	0	0	540	608	0	490	0	0	
13	0	0	0	0	533	1020	0	190	0	0	
14	0	0	0	0	528	1021	0	0	0	0	
15	0	0	0	0	526	1021	0	0	0	0	
0	0	0	0	0	527	1021	0	0	0	0	
1	0	0	0	0	530	1021	0	0	0	0	
2	0	0	0	0	537	960	0	9	0	0	
3	0	0	0	0	545	679	0	112	0	0	
4	0	0	0	0	555	349	0	240	0	0	
5	0	0	0	0	564	60	0	363	0	0	
6	0	0	0	0	572	0	0	456	0	0	
7	0	0	0	0	580	0	0	510	0	0	
8	0	0	0	0	584	7	0	570	0	0	
9	0	0	0	0	586	29	0	664	0	0	
10	0	0	0	0	585	0	0	779	0	0	
11	0	0	0	0	582	0	0	888	0	0	
12	0	0	0	0	575	0	0	963	0	0	
13	0	0	0	0	568	0	0	978	0	0	
14	0	0	0	0	558	34	0	913	0	0	
15	0	0	0	0	549	224	0	760	0	0	
0	0	0	0	0	540	558	0	523	0	0	
1	0	0	0	0	534	1015	0	225	0	0	
2	0	0	0	0	529	1020	0	0	0	0	
3	0	0	0	0	528	1021	0	0	0	0	
4	0	0	0	0	529	1021	0	0	0	0	
5	0	0	0	0	534	1021	0	0	0	0	
6	0	0	0	0	540	947	0	8	0	0	
7	0	0	0	0	548	657	0	109	0	0	
8	0	0	0	0	557	319	0	235	0	0	
9	0	0	0	0	566	24	0	358	0	0	
10	0	0	0	0	575	0	0	450	0	0	
11	0	0	0	0	582	0	0	503	0	0	
12	0	0	0	0	587	0	0	561	0	0	
13	0	0	0	0	589	19	0	654	0	0	
14	0	0	0	0	588	0	0	769	0	0	
15	0	0	0	0	585	0	0	880	0	0	
0	0	0	0	0	580	0	0	960	0	0	
1	0	0	0	0	573	0	0	979	0	0	
2	0	0	0	0	565	31	0	920	0	0	
3	0	0	0	0	557	218	0	771	0	0	
4	0	0	0	0	549	550	0	538	0	0	
5	0	0	0	0	543	1007	0	242	0	0	
6	0	0	0	0	538	1020	0	0	0	0	
7	0	0	0	0	536	1021	0	0	0	0	
8	0	0	0	0	537	1021	0	0	0	0	
9	0	0	0	0	540	1021	0	0	0	0	
10	0	0	0	0	546	961	0	3	0	0	
11	0	0	0	0	553	683	0	100	0	0	
12	0	0	0	0	561	354	0	222	0	0	
13	0	0	0	0	569	65	0	342	0	0	
14	0	0	0	0	576	0	0	432	0	0	
15	0	0	0	0	582	0	0	483	0	0	
0	0	0	0	0	585	12	0	538	0	0	
1	0	0	0	0	587	44	0	626	0	0	
2	0	0	0	0	585	27	0	736	0	0	
3	0	0	0	0	580	0	0	842	0	0	
4	0	0	0	0	574	0	0	915	0	0	
5	0	0	0	0	566	0	0	928	0	0	
6	0	0	0	0	557	65	0	864	0	0	
7	0	0	0	0	548	272	0	713	0	0	
8	0	0	0	0	539	620	0	480	0	0	
9	0	0	0	0	533	1020	0	186	0	0	
10	0	0	0	0	528	1020	0	0	0	0	
11	0	0	0	0	527	1021	0	0	0	0	
12	0	0	0	0	528	1021	0	0	0	0	
13	0	0	0	0	531	1021	0	0	0	0	
14	0	0	0	0	539	984	0	0	0	0	
15	0	0	0	0	547	719	0	95	0	0	
0	0	0	0	0	556	399	0	216	0	0	
1	0	0	0	0	567	115	0	335	0	0	
2	0	0	0	0	575	0	0	425	0	0	
3	0	0	0	0	584	0	0	477	0	0	
4	0	0	0	0	590	26	0	535	0	0	
5	0	0	0	0	593	63	0	626	0	0	
6	0	0	0	0	594	49	0	742	0	0	
7	0	0	0	0	591	0	0	854	0	0	
8	0	0	0	0	588	0	0	935	0	0	
9	0	0	0	0	580	0	0	956	0	0	
10	0	0	0	0	573	63	0	899	0	0	
11	0	0	0	0	563	266	0	753	0	0	
12	0	0	0	0	555	611	0	524	0	0	
13	0	0	0	0	547	1020	0	232	0	0	
14	0	0	0	0	542	1020	0	0	0	0	
15	0	0	0	0	540	1021	0	0	0	0	
0	0	0	0	0	540	1021	0	0	0	0	
1	0	0	0	0	541	1021	0	0	0	0	
2	0	0	0	0	546	991	0	0	0	0	
3	0	0	0	0	552	731	0	89	0	0	
4	0	0	0	0	559	414	0	206	0	0	
5	0	0	0	0	566	129	0	322	0	0	
6	0	0	0	0	572	0	0	408	0	0	
7	0	0	0	0	578	0	0	457	0	0	
8	0	0	0	0	580	26	0	510	0	0	
9	0	0	0	0	581	64	0	595	0	0	
10	0	0	0	0	579	53	0	705	0	0	
11	0	0	0	0	575	1	0	812	0	0	
12	0	0	0	0	571	0	0	888	0	0	
13	0	0	0	0	564	0	0	906	0	0	
14	0	0	0	0	558	69	0	848	0	0	
15	0	0	0	0	551	275	0	704	0	0	
0	0	0	0	0	544	620	0	477	0	0	
1	0	0	0	0	540	1020	0	189	0	0	
2	0	0	0	0	538	1020	0	0	0	0	
3	0	0	0	0	539	1021	0	0	0	0	
4	0	0	0	0	542	1020	0	0	0	0	
5	0	0	0	0	547	1021	0	0	0	0	
6	0	0	0	0	553	993	0	0	0	0	
7	0	0	0	0	562	734	0	95	0	0	
8	0	0	0	0	571	416	0	215	0	0	
9	0	0	0	0	579	128	0	334	0	0	
10	0	0	0	0	587	0	0	424	0	0	
11	0	0	0	0	593	0	0	474	0	0	
12	0	0	0	0	597	21	0	527	0	0	
13	0	0	0	0	598	56	0	615	0	0	
14	0	0	0	0	596	39	0	728	0	0	
15	0	0	0	0	591	0	0	840	0	0	
0	0	0	0	0	585	0	0	920	0	0	
1	0	0	0	0	576	0	0	943	0	0	
2	0	0	0	0	567	47	0	890	0	0	
3	0	0	0	0	556	239	0	748	0	0	
4	0	0	0	0	547	574	0	522	0	0	
5	0	0	0	0	540	1020	0	232	0	0	
6	0	0	0	0	536	1020	0	0	0	0	
7	0	0	0	0	535	1021	0	0	0	0	
8	0	0	0	0	536	1021	0	0	0	0	
9	0	0	0	0	541	1021	0	0	0	0	
10	0	0	0	0	547	993	0	0	0	0	
11	0	0	0	0	556	735	0	95	0	0	
12	0	0	0	0	565	415	0	217	0	0	
13	0	0	0	0	574	127	0	338	0	0	
14	0	0	0	0	582	0	0	430	0	0	
15	0	0	0	0	590	0	0	482	0	0	
0	0	0	0	0	594	22	0	535	0	0	
1	0	0	0	0	596	61	0	622	0	0	
2	0	0	0	0	595	50	0	732	0	0	
3	0	0	0	0	592	0	0	842	0	0	
4	0	0	0	0	587	0	0	921	0	0	
5	0	0	0	0	579	0	0	942	0	0	
6	0	0	0	0	571	54	0	887	0	0	
7	0	0	0	0	561	248	0	744	0	0	
8	0	0	0	0	553	583	0	517	0	0	
9	0	0	0	0	546	1020	0	226	0	0	
10	0	0	0	0	541	1020	0	0	0	0	
11	0	0	0	0	539	1021	0	0	0	0	
12	0	0	0	0	540	1021	0	0	0	0	
13	0	0	0	0	543	1021	0	0	0	0	
14	0	0	0	0	549	998	0	0	0	0	
15	0	0	0	0	557	742	0	86	0	0	
0	0	0	0	0	565	426	0	205	0	0	
1	0	0	0	0	574	139	0	324	0	0	
2	0	0	0	0	582	0	0	415	0	0	
3	0	0	0	0	589	0	0	467	0	0	
4	0	0	0	0	592	27	0	518	0	0	
5	0	0	0	0	592	71	0	601	0	0	
6	0	0	0	0	590	65	0	711	0	0	
7	0	0	0	0	584	15	0	819	0	0	
8	0	0	0	0	576	0	0	896	0	0	
9	0	0	0	0	567	0	0	916	0	0	
10	0	0	0	0	555	59	0	861	0	0	
11	0	0	0	0	543	254	0	719	0	0	
12	0	0	0	0	533	586	0	492	0	0	
13	0	0	0	0	524	1020	0	201	0	0	
14	0	0	0	0	517	1020	0	0	0	0	
15	0	0	0	0	514	1021	0	0	0	0	
0	0	0	0	0	514	1021	0	0	0	0	
1	0	0	0	0	517	1021	0	0	0	0	
2	0	0	0	0	524	995	0	0	0	0	
3	0	0	0	0	532	734	0	80	0	0	
4	0	0	0	0	542	411	0	197	0	0	
5	0	0	0	0	552	116	0	313	0	0	
6	0	0	0	0	561	0	0	403	0	0	
7	0	0	0	0	570	0	0	454	0	0	
8	0	0	0	0	575	9	0	505	0	0	
9	0	0	0	0	577	43	0	591	0	0	
10	0	0	0	0	577	26	0	706	0	0	
11	0	0	0	0	574	0	0	823	0	0	
12	0	0	0	0	569	0	0	910	0	0	
13	0	0	0	0	561	0	0	942	0	0	
14	0	0	0	0	552	28	0	898	0	0	
15	0	0	0	0	543	203	0	765	0	0	
0	0	0	0	0	535	521	0	546	0	0	
1	0	0	0	0	529	968	0	260	0	0	
2	0	0	0	0	524	1020	0	0	0	0	
3	0	0	0	0	524	1020	0	0	0	0	
4	0	0	0	0	524	1020	0	0	0	0	
5	0	0	0	0	528	1021	0	0	0	0	
6	0	0	0	0	534	990	0	0	0	0	
7	0	0	0	0	542	726	0	79	0	0	
8	0	0	0	0	549	398	0	196	0	0	
9	0	0	0	0	558	97	0	312	0	0	
10	0	0	0	0	565	0	0	401	0	0	
11	0	0	0	0	572	0	0	451	0	0	
12	0	0	0	0	575	1	0	499	0	0	
13	0	0	0	0	576	32	0	583	0	0	
14	0	0	0	0	575	15	0	694	0	0	
15	0	0	0	0	570	0	0	806	0	0	
0	0	0	0	0	564	0	0	889	0	0	
1	0	0	0	0	556	0	0	918	0	0	
2	0	0	0	0	547	29	0	871	0	0	
3	0	0	0	0	538	207	0	738	0	0	
4	0	0	0	0	531	526	0	519	0	0	
5	0	0	0	0	525	975	0	235	0	0	
6	0	0	0	0	520	1020	0	0	0	0	
7	0	0	0	0	520	1021	0	0	0	0	
8	0	0	0	0	522	1021	0	0	0	0	
9	0	0	0	0	527	1021	0	0	0	0	
10	0	0	0	0	535	999	0	0	0	0	
11	0	0	0	0	543	741	0	82	0	0	
12	0	0	0	0	553	418	0	200	0	0	
13	0	0	0	0	563	120	0	318	0	0	
14	0	0	0	0	572	0	0	410	0	0	
15	0	0	0	0	580	0	0	462	0	0	
0	0	0	0	0	584	8	0	511	0	0	
1	0	0	0	0	586	44	0	595	0	0	
2	0	0	0	0	585	31	0	707	0	0	
3	0	0	0	0	581	0	0	822	0	0	
4	0	0	0	0	575	0	0	907	0	0	
5	0	0	0	0	566	0	0	937	0	0	
6	0	0	0	0	556	32	0	891	0	0	
7	0	0	0	0	544	209	0	757	0	0	
8	0	0	0	0	534	527	0	537	0	0	
9	0	0	0	0	525	975	0	249	0	0	
10	0	0	0	0	518	1020	0	0	0	0	
11	0	0	0	0	514	1020	0	1	0	0	
12	0	0	0	0	513	1021	0	0	0	0	
13	0	0	0	0	515	1021	0	0	0	0	
14	0	0	0	0	521	994	0	0	0	0	
15	0	0	0	0	528	729	0	81	0	0	
0	0	0	0	0	537	398	0	200	0	0	
1	0	0	0	0	547	93	0	321	0	0	
2	0	0	0	0	556	0	0	416	0	0	
3	0	0	0	0	565	0	0	469	0	0	
4	0	0	0	0	571	0	0	519	0	0	
5	0	0	0	0	575	31	0	603	0	0	
6	0	0	0	0	575	16	0	713	0	0	
7	0	0	0	0	573	0	0	828	0	0	
8	0	0	0	0	568	0	0	913	0	0	
9	0	0	0	0	561	0	0	944	0	0	
10	0	0	0	0	552	28	0	899	0	0	
11	0	0	0	0	543	204	0	766	0	0	
12	0	0	0	0	534	519	0	547	0	0	
13	0	0	0	0	527	966	0	259	0	0	
14	0	0	0	0	522	1020	0	0	0	0	
15	0	0	0	0	519	1021	0	0	0	0	
0	0	0	0	0	520	1021	0	0	0	0	
1	0	0	0	0	523	1021	0	0	0	0	
2	0	0	0	0	529	1005	0	0	0	0	
3	0	0	0	0	537	749	0	79	0	0	
4	0	0	0	0	546	423	0	199	0	0	
5	0	0	0	0	556	120	0	319	0	0	
6	0	0	0	0	564	0	0	415	0	0	
7	0	0	0	0	571	0	0	469	0	0	
8	0	0	0	0	576	1	0	518	0	0	
9	0	0	0	0	577	34	0	600	0	0	
10	0	0	0	0	574	22	0	708	0	0	
11	0	0	0	0	568	0	0	818	0	0	
12	0	0	0	0	558	0	0	899	0	0	
13	0	0	0	0	545	0	0	924	0	0	
14	0	0	0	0	529	26	0	871	0	0	
15	0	0	0	0	511	195	0	729	0	0	
0	0	0	0	0	492	502	0	500	0	0	
1	0	0	0	0	473	939	0	200	0	0	
2	0	0	0	0	455	1020	0	0	0	0	
3	0	0	0	0	440	1021	0	0	0	0	
4	0	0	0	0	427	1021	0	0	0	0	
5	0	0	0	0	416	1021	0	0	0	0	
6	0	0	0	0	409	986	0	0	0	0	
7	0	0	0	0	403	711	0	16	0	0	
8	0	0	0	0	400	366	0	93	0	0	
9	0	0	0	0	398	42	0	174	0	0	
10	0	0	0	0	396	0	0	232	0	0	
11	0	0	0	0	395	0	0	255	0	0	
12	0	0	0	0	391	0	0	279	0	0	
13	0	0	0	0	387	0	0	345	0	0	
14	0	0	0	0	380	0	0	449	0	0	
15	0	0	0	0	372	0	0	564	0	0	
0	0	0	0	0	363	0	0	658	0	0	
1	0	0	0	0	352	0	0	700	0	0	
2	0	0	0	0	343	0	0	670	0	0	
3	0	0	0	0	335	89	0	555	0	0	
4	0	0	0	0	329	352	0	355	0	0	
5	0	0	0	0	328	758	0	89	0	0	
6	0	0	0	0	332	1020	0	0	0	0	
7	0	0	0	0	342	1021	0	0	0	0	
8	0	0	0	0	358	1021	0	0	0	0	
9	0	0	0	0	377	1021	0	0	0	0	
10	0	0	0	0	402	958	0	0	0	0	
11	0	0	0	0	430	673	0	44	0	0	
12	0	0	0	0	460	325	0	143	0	0	
13	0	0	0	0	489	9	0	246	0	0	
14	0	0	0	0	519	0	0	327	0	0	
15	0	0	0	0	545	0	0	373	0	0	
0	0	0	0	0	567	0	0	419	0	0	
1	0	0	0	0	585	21	0	504	0	0	
2	0	0	0	0	597	11	0	624	0	0	
3	0	0	0	0	604	0	0	752	0	0	
4	0	0	0	0	606	0	0	856	0	0	
5	0	0	0	0	602	0	0	908	0	0	
6	0	0	0	0	594	29	0	885	0	0	
7	0	0	0	0	583	202	0	775	0	0	
8	0	0	0	0	571	515	0	576	0	0	
9	0	0	0	0	559	959	0	304	0	0	
10	0	0	0	0	546	1020	0	20	0	0	
11	0	0	0	0	537	1021	0	0	0	0	
12	0	0	0	0	531	1021	0	0	0	0	
13	0	0	0	0	527	1021	0	0	0	0	
14	0	0	0	0	529	1021	0	0	0	0	
15	0	0	0	0	532	771	0	88	0	0	
0	0	0	0	0	539	450	0	212	0	0	
1	0	0	0	0	547	144	0	338	0	0	
2	0	0	0	0	557	0	0	438	0	0	
3	0	0	0	0	567	0	0	495	0	0	
4	0	0	0	0	575	0	0	543	0	0	
5	0	0	0	0	580	34	0	624	0	0	
6	0	0	0	0	583	20	0	735	0	0	
7	0	0	0	0	583	0	0	849	0	0	
8	0	0	0	0	580	0	0	939	0	0	
9	0	0	0	0	575	0	0	975	0	0	
10	0	0	0	0	568	14	0	937	0	0	
11	0	0	0	0	559	175	0	811	0	0	
12	0	0	0	0	550	476	0	596	0	0	
13	0	0	0	0	543	913	0	311	0	0	
14	0	0	0	0	536	1020	0	13	0	0	
15	0	0	0	0	532	1021	0	0	0	0	
0	0	0	0	0	531	1021	0	0	0	0	
1	0	0	0	0	532	1021	0	0	0	0	
2	0	0	0	0	536	1010	0	0	0	0	
3	0	0	0	0	541	752	0	82	0	0	
4	0	0	0	0	548	422	0	207	0	0	
5	0	0	0	0	557	108	0	335	0	0	
6	0	0	0	0	565	0	0	440	0	0	
7	0	0	0	0	573	0	0	499	0	0	
8	0	0	0	0	578	0	0	550	0	0	
9	0	0	0	0	582	24	0	632	0	0	
10	0	0	0	0	582	9	0	743	0	0	
11	0	0	0	0	580	0	0	857	0	0	
12	0	0	0	0	577	0	0	947	0	0	
13	0	0	0	0	571	0	0	984	0	0	
14	0	0	0	0	563	5	0	945	0	0	
15	0	0	0	0	555	155	0	818	0	0	
0	0	0	0	0	546	446	0	603	0	0	
1	0	0	0	0	539	875	0	315	0	0	
2	0	0	0	0	534	1020	0	13	0	0	
3	0	0	0	0	531	1021	0	0	0	0	
4	0	0	0	0	531	1021	0	0	0	0	
5	0	0	0	0	533	1021	0	0	0	0	
6	0	0	0	0	539	1011	0	0	0	0	
7	0	0	0	0	546	756	0	69	0	0	
8	0	0	0	0	554	428	0	189	0	0	
9	0	0	0	0	564	117	0	312	0	0	
10	0	0	0	0	572	0	0	414	0	0	
11	0	0	0	0	581	0	0	473	0	0	
12	0	0	0	0	587	0	0	522	0	0	
13	0	0	0	0	590	35	0	603	0	0	
14	0	0	0	0	589	30	0	712	0	0	
15	0	0	0	0	586	0	0	825	0	0	
0	0	0	0	0	580	0	0	914	0	0	
1	0	0	0	0	572	0	0	950	0	0	
2	0	0	0	0	562	25	0	910	0	0	
3	0	0	0	0	551	192	0	785	0	0	
4	0	0	0	0	541	496	0	571	0	0	
5	0	0	0	0	532	935	0	286	0	0	
6	0	0	0	0	525	1020	0	0	0	0	
7	0	0	0	0	522	1021	0	0	0	0	
8	0	0	0	0	521	1021	0	0	0	0	
9	0	0	0	0	524	1021	0	0	0	0	
10	0	0	0	0	529	1019	0	0	0	0	
11	0	0	0	0	536	762	0	86	0	0	
12	0	0	0	0	545	428	0	216	0	0	
13	0	0	0	0	556	106	0	350	0	0	
14	0	0	0	0	565	0	0	460	0	0	
15	0	0	0	0	573	0	0	524	0	0	
0	0	0	0	0	580	0	0	576	0	0	
1	0	0	0	0	583	7	0	657	0	0	
2	0	0	0	0	584	0	0	768	0	0	
3	0	0	0	0	582	0	0	882	0	0	
4	0	0	0	0	577	0	0	971	0	0	
5	0	0	0	0	569	0	0	1007	0	0	
6	0	0	0	0	560	0	0	968	0	0	
7	0	0	0	0	549	131	0	840	0	0	
8	0	0	0	0	539	412	0	622	0	0	
9	0	0	0	0	529	834	0	331	0	0	
10	0	0	0	0	522	1020	0	22	0	0	
11	0	0	0	0	518	1020	0	1	0	0	
12	0	0	0	0	517	1021	0	0	0	0	
13	0	0	0	0	519	1021	0	0	0	0	
14	0	0	0	0	525	1017	0	0	0	0	
15	0	0	0	0	532	766	0	54	0	0	
0	0	0	0	0	541	438	0	167	0	0	
1	0	0	0	0	551	124	0	287	0	0	
2	0	0	0	0	560	0	0	387	0	0	
3	0	0	0	0	569	0	0	446	0	0	
4	0	0	0	0	576	0	0	496	0	0	
5	0	0	0	0	580	30	0	579	0	0	
6	0	0	0	0	581	24	0	694	0	0	
7	0	0	0	0	579	0	0	816	0	0	
8	0	0	0	0	575	0	0	913	0	0	
9	0	0	0	0	568	0	0	960	0	0	
10	0	0	0	0	560	14	0	932	0	0	
11	0	0	0	0	550	168	0	816	0	0	
12	0	0	0	0	541	463	0	611	0	0	
13	0	0	0	0	534	894	0	331	0	0	
14	0	0	0	0	527	1020	0	31	0	0	
15	0	0	0	0	523	1021	0	0	0	0	
0	0	0	0	0	523	1021	0	0	0	0	
1	0	0	0	0	524	1021	0	0	0	0	
2	0	0	0	0	529	1021	0	0	0	0	
3	0	0	0	0	536	776	0	73	0	0	
4	0	0	0	0	543	445	0	196	0	0	
5	0	0	0	0	552	124	0	323	0	0	
6	0	0	0	0	561	0	0	429	0	0	
7	0	0	0	0	569	0	0	491	0	0	
8	0	0	0	0	575	0	0	539	0	0	
9	0	0	0	0	578	11	0	617	0	0	
10	0	0	0	0	578	0	0	727	0	0	
11	0	0	0	0	575	0	0	841	0	0	
12	0	0	0	0	571	0	0	934	0	0	
13	0	0	0	0	563	0	0	976	0	0	
14	0	0	0	0	554	0	0	944	0	0	
15	0	0	0	0	544	137	0	824	0	0	
0	0	0	0	0	535	420	0	615	0	0	
1	0	0	0	0	527	842	0	332	0	0	
2	0	0	0	0	520	1020	0	29	0	0	
3	0	0	0	0	518	1021	0	0	0	0	
4	0	0	0	0	518	1021	0	0	0	0	
5	0	0	0	0	520	1021	0	0	0	0	
6	0	0	0	0	527	1021	0	0	0	0	
7	0	0	0	0	535	779	0	65	0	0	
8	0	0	0	0	543	448	0	185	0	0	
9	0	0	0	0	553	126	0	310	0	0	
10	0	0	0	0	561	0	0	413	0	0	
11	0	0	0	0	569	0	0	475	0	0	
12	0	0	0	0	573	0	0	521	0	0	
13	0	0	0	0	575	10	0	598	0	0	
14	0	0	0	0	574	0	0	705	0	0	
15	0	0	0	0	570	0	0	819	0	0	
0	0	0	0	0	563	0	0	908	0	0	
1	0	0	0	0	556	0	0	947	0	0	
2	0	0	0	0	545	3	0	913	0	0	
3	0	0	0	0	536	150	0	792	0	0	
4	0	0	0	0	525	437	0	583	0	0	
5	0	0	0	0	518	863	0	302	0	0	
6	0	0	0	0	512	1020	0	2	0	0	
7	0	0	0	0	510	1021	0	0	0	0	
8	0	0	0	0	512	1021	0	0	0	0	
9	0	0	0	0	515	1021	0	0	0	0	
10	0	0	0	0	523	1021	0	0	0	0	
11	0	0	0	0	531	806	0	57	0	0	
12	0	0	0	0	542	487	0	172	0	0	
13	0	0	0	0	552	174	0	295	0	0	
14	0	0	0	0	560	0	0	395	0	0	
15	0	0	0	0	569	0	0	455	0	0	
0	0	0	0	0	573	0	0	500	0	0	
1	0	0	0	0	575	30	0	577	0	0	
2	0	0	0	0	574	22	0	687	0	0	
3	0	0	0	0	568	0	0	807	0	0	
4	0	0	0	0	562	0	0	905	0	0	
5	0	0	0	0	552	0	0	953	0	0	
6	0	0	0	0	542	0	0	929	0	0	
7	0	0	0	0	531	134	0	818	0	0	
8	0	0	0	0	519	409	0	616	0	0	
9	0	0	0	0	511	825	0	339	0	0	
10	0	0	0	0	505	1020	0	39	0	0	
11	0	0	0	0	502	1021	0	0	0	0	
12	0	0	0	0	502	1021	0	0	0	0	
13	0	0	0	0	504	1021	0	0	0	0	
14	0	0	0	0	510	1012	0	0	0	0	
15	0	0	0	0	518	748	0	85	0	0	
0	0	0	0	0	527	398	0	217	0	0	
1	0	0	0	0	536	56	0	355	0	0	
2	0	0	0	0	546	0	0	470	0	0	
3	0	0	0	0	553	0	0	536	0	0	
4	0	0	0	0	560	0	0	584	0	0	
5	0	0	0	0	563	0	0	658	0	0	
6	0	0	0	0	563	0	0	759	0	0	
7	0	0	0	0	560	0	0	867	0	0	
8	0	0	0	0	555	0	0	950	0	0	
9	0	0	0	0	548	0	0	984	0	0	
10	0	0	0	0	540	0	0	944	0	0	
11	0	0	0	0	531	108	0	818	0	0	
12	0	0	0	0	522	378	0	604	0	0	
13	0	0	0	0	514	792	0	315	0	0	
14	0	0	0	0	509	1020	0	5	0	0	
15	0	0	0	0	507	1020	0	0	0	0	
0	0	0	0	0	506	1020	0	0	0	0	
1	0	0	0	0	510	1021	0	0	0	0	
2	0	0	0	0	515	1021	0	0	0	0	
3	0	0	0	0	523	807	0	44	0	0	
4	0	0	0	0	532	487	0	154	0	0	
5	0	0	0	0	542	170	0	272	0	0	
6	0	0	0	0	551	0	0	373	0	0	
7	0	0	0	0	559	0	0	434	0	0	
8	0	0	0	0	564	0	0	481	0	0	
9	0	0	0	0	568	24	0	560	0	0	
10	0	0	0	0	568	16	0	673	0	0	
11	0	0	0	0	566	0	0	799	0	0	
12	0	0	0	0	561	0	0	905	0	0	
13	0	0	0	0	554	0	0	961	0	0	
14	0	0	0	0	546	0	0	946	0	0	
15	0	0	0	0	538	121	0	843	0	0	
0	0	0	0	0	529	391	0	647	0	0	
1	0	0	0	0	523	803	0	374	0	0	
2	0	0	0	0	518	1020	0	72	0	0	
3	0	0	0	0	515	1021	0	0	0	0	
4	0	0	0	0	516	1021	0	0	0	0	
5	0	0	0	0	518	1021	0	0	0	0	
6	0	0	0	0	524	1021	0	0	0	0	
7	0	0	0	0	530	799	0	58	0	0	
8	0	0	0	0	539	473	0	175	0	0	
9	0	0	0	0	547	150	0	300	0	0	
10	0	0	0	0	556	0	0	404	0	0	
11	0	0	0	0	563	0	0	467	0	0	
12	0	0	0	0	568	0	0	513	0	0	
13	0	0	0	0	571	14	0	589	0	0	
14	0	0	0	0	572	4	0	700	0	0	
15	0	0	0	0	569	0	0	824	0	0	
0	0	0	0	0	564	0	0	927	0	0	
1	0	0	0	0	558	0	0	983	0	0	
2	0	0	0	0	551	0	0	966	0	0	
3	0	0	0	0	542	105	0	863	0	0	
4	0	0	0	0	534	366	0	667	0	0	
5	0	0	0	0	527	771	0	391	0	0	
6	0	0	0	0	521	1020	0	86	0	0	
7	0	0	0	0	519	1021	0	0	0	0	
8	0	0	0	0	519	1021	0	0	0	0	
9	0	0	0	0	521	1021	0	0	0	0	
10	0	0	0	0	526	1021	0	0	0	0	
11	0	0	0	0	533	793	0	57	0	0	
12	0	0	0	0	541	463	0	174	0	0	
13	0	0	0	0	550	135	0	300	0	0	
14	0	0	0	0	558	0	0	406	0	0	
15	0	0	0	0	566	0	0	471	0	0	
0	0	0	0	0	571	0	0	518	0	0	
1	0	0	0	0	575	9	0	595	0	0	
2	0	0	0	0	576	0	0	709	0	0	
3	0	0	0	0	575	0	0	834	0	0	
4	0	0	0	0	572	0	0	940	0	0	
5	0	0	0	0	567	0	0	999	0	0	
6	0	0	0	0	560	0	0	985	0	0	
7	0	0	0	0	551	99	0	884	0	0	
8	0	0	0	0	543	357	0	690	0	0	
9	0	0	0	0	537	761	0	416	0	0	
10	0	0	0	0	532	1020	0	109	0	0	
11	0	0	0	0	528	1021	0	0	0	0	
12	0	0	0	0	528	1021	0	0	0	0	
13	0	0	0	0	529	1021	0	0	0	0	
14	0	0	0	0	535	1021	0	0	0	0	
15	0	0	0	0	540	809	0	50	0	0	
0	0	0	0	0	548	487	0	163	0	0	
1	0	0	0	0	556	164	0	287	0	0	
2	0	0	0	0	563	0	0	391	0	0	
3	0	0	0	0	571	0	0	455	0	0	
4	0	0	0	0	575	0	0	501	0	0	
5	0	0	0	0	579	28	0	575	0	0	
6	0	0	0	0	579	31	0	682	0	0	
7	0	0	0	0	577	0	0	800	0	0	
8	0	0	0	0	574	0	0	899	0	0	
9	0	0	0	0	568	0	0	950	0	0	
10	0	0	0	0	560	9	0	930	0	0	
11	0	0	0	0	552	153	0	823	0	0	
12	0	0	0	0	543	433	0	626	0	0	
13	0	0	0	0	536	852	0	352	0	0	
14	0	0	0	0	530	1020	0	48	0	0	
15	0	0	0	0	527	1021	0	0	0	0	
0	0	0	0	0	527	1021	0	0	0	0	
1	0	0	0	0	529	1021	0	0	0	0	
2	0	0	0	0	535	1021	0	0	0	0	
3	0	0	0	0	542	851	0	48	0	0	
4	0	0	0	0	551	543	0	163	0	0	
5	0	0	0	0	561	230	0	288	0	0	
6	0	0	0	0	570	1	0	395	0	0	
7	0	0	0	0	578	0	0	462	0	0	
8	0	0	0	0	584	0	0	509	0	0	
9	0	0	0	0	588	37	0	586	0	0	
10	0	0	0	0	589	36	0	699	0	0	
11	0	0	0	0	587	0	0	825	0	0	
12	0	0	0	0	583	0	0	934	0	0	
13	0	0	0	0	575	0	0	997	0	0	
14	0	0	0	0	567	0	0	988	0	0	
15	0	0	0	0	557	103	0	892	0	0	
0	0	0	0	0	547	358	0	702	0	0	
1	0	0	0	0	539	757	0	432	0	0	
2	0	0	0	0	532	1020	0	125	0	0	
3	0	0	0	0	527	1021	0	0	0	0	
4	0	0	0	0	527	1021	0	0	0	0	
5	0	0	0	0	528	1021	0	0	0	0	
6	0	0	0	0	533	1021	0	0	0	0	
7	0	0	0	0	539	816	0	54	0	0	
8	0	0	0	0	547	493	0	173	0	0	
9	0	0	0	0	557	167	0	301	0	0	
10	0	0	0	0	566	0	0	412	0	0	
11	0	0	0	0	573	0	0	480	0	0	
12	0	0	0	0	579	0	0	526	0	0	
13	0	0	0	0	582	16	0	601	0	0	
14	0	0	0	0	582	11	0	711	0	0	
15	0	0	0	0	579	0	0	834	0	0	
0	0	0	0	0	575	0	0	941	0	0	
1	0	0	0	0	568	0	0	1001	0	0	
2	0	0	0	0	560	0	0	991	0	0	
3	0	0	0	0	551	94	0	894	0	0	
4	0	0	0	0	542	345	0	703	0	0	
5	0	0	0	0	535	743	0	432	0	0	
6	0	0	0	0	529	1020	0	123	0	0	
7	0	0	0	0	526	1021	0	0	0	0	
8	0	0	0	0	527	1020	0	0	0	0	
9	0	0	0	0	529	1021	0	0	0	0	
10	0	0	0	0	534	1021	0	0	0	0	
11	0	0	0	0	541	829	0	49	0	0	
12	0	0	0	0	550	511	0	164	0	0	
13	0	0	0	0	558	186	0	292	0	0	
14	0	0	0	0	568	0	0	402	0	0	
15	0	0	0	0	575	0	0	471	0	0	
0	0	0	0	0	580	0	0	517	0	0	
1	0	0	0	0	583	22	0	591	0	0	
2	0	0	0	0	583	22	0	700	0	0	
3	0	0	0	0	579	0	0	821	0	0	
4	0	0	0	0	574	0	0	925	0	0	
5	0	0	0	0	567	0	0	983	0	0	
6	0	0	0	0	558	0	0	971	0	0	
7	0	0	0	0	548	110	0	872	0	0	
8	0	0	0	0	539	368	0	680	0	0	
9	0	0	0	0	531	769	0	410	0	0	
10	0	0	0	0	525	1020	0	102	0	0	
11	0	0	0	0	521	1020	0	0	0	0	
12	0	0	0	0	520	1021	0	0	0	0	
13	0	0	0	0	522	1021	0	0	0	0	
14	0	0	0	0	527	1021	0	0	0	0	
15	0	0	0	0	533	837	0	47	0	0	
0	0	0	0	0	541	519	0	164	0	0	
1	0	0	0	0	551	193	0	291	0	0	
2	0	0	0	0	560	0	0	402	0	0	
3	0	0	0	0	568	0	0	472	0	0	
4	0	0	0	0	575	0	0	518	0	0	
5	0	0	0	0	579	19	0	591	0	0	
6	0	0	0	0	582	19	0	699	0	0	
7	0	0	0	0	580	0	0	819	0	0	
8	0	0	0	0	577	0	0	925	0	0	
9	0	0	0	0	571	0	0	984	0	0	
10	0	0	0	0	563	0	0	972	0	0	
11	0	0	0	0	553	105	0	874	0	0	
12	0	0	0	0	544	360	0	684	0	0	
13	0	0	0	0	536	758	0	415	0	0	
14	0	0	0	0	528	1020	0	107	0	0	
15	0	0	0	0	524	1020	0	0	0	0	
0	0	0	0	0	521	1021	0	1	0	0	
1	0	0	0	0	521	1021	0	0	0	0	
2	0	0	0	0	524	1021	0	0	0	0	
3	0	0	0	0	529	840	0	45	0	0	
4	0	0	0	0	536	523	0	161	0	0	
5	0	0	0	0	543	196	0	288	0	0	
6	0	0	0	0	551	0	0	399	0	0	
7	0	0	0	0	560	0	0	468	0	0	
8	0	0	0	0	566	0	0	514	0	0	
9	0	0	0	0	571	20	0	587	0	0	
10	0	0	0	0	573	22	0	695	0	0	
11	0	0	0	0	573	0	0	818	0	0	
12	0	0	0	0	571	0	0	925	0	0	
13	0	0	0	0	566	0	0	988	0	0	
14	0	0	0	0	559	0	0	980	0	0	
15	0	0	0	0	551	104	0	886	0	0	
0	0	0	0	0	543	358	0	699	0	0	
1	0	0	0	0	536	757	0	431	0	0	
2	0	0	0	0	529	1020	0	122	0	0	
3	0	0	0	0	525	1021	0	0	0	0	
4	0	0	0	0	524	1021	0	0	0	0	
5	0	0	0	0	525	1021	0	0	0	0	
6	0	0	0	0	529	1021	0	0	0	0	
7	0	0	0	0	534	857	0	43	0	0	
8	0	0	0	0	541	548	0	158	0	0	
9	0	0	0	0	549	227	0	284	0	0	
10	0	0	0	0	557	0	0	394	0	0	
11	0	0	0	0	565	0	0	464	0	0	
12	0	0	0	0	570	0	0	509	0	0	
13	0	0	0	0	573	30	0	577	0	0	
14	0	0	0	0	573	38	0	681	0	0	
15	0	0	0	0	571	0	0	798	0	0	
0	0	0	0	0	567	0	0	900	0	0	
1	0	0	0	0	560	0	0	958	0	0	
2	0	0	0	0	552	0	0	947	0	0	
3	0	0	0	0	543	112	0	850	0	0	
4	0	0	0	0	534	367	0	662	0	0	
5	0	0	0	0	526	765	0	395	0	0	
6	0	0	0	0	520	1020	0	88	0	0	
7	0	0	0	0	517	1021	0	0	0	0	
8	0	0	0	0	517	1021	0	0	0	0	
9	0	0	0	0	519	1021	0	0	0	0	
10	0	0	0	0	525	1021	0	0	0	0	
11	0	0	0	0	532	870	0	36	0	0	
12	0	0	0	0	541	567	0	147	0	0	
13	0	0	0	0	551	251	0	270	0	0	
14	0	0	0	0	560	9	0	379	0	0	
15	0	0	0	0	569	0	0	448	0	0	
0	0	0	0	0	575	0	0	492	0	0	
1	0	0	0	0	578	41	0	562	0	0	
2	0	0	0	0	579	54	0	668	0	0	
3	0	0	0	0	576	15	0	790	0	0	
4	0	0	0	0	571	0	0	897	0	0	
5	0	0	0	0	564	0	0	959	0	0	
6	0	0	0	0	556	0	0	953	0	0	
7	0	0	0	0	546	126	0	862	0	0	
8	0	0	0	0	537	387	0	679	0	0	
9	0	0	0	0	529	789	0	416	0	0	
10	0	0	0	0	523	1020	0	111	0	0	
11	0	0	0	0	519	1020	0	1	0	0	
12	0	0	0	0	518	1020	0	0	0	0	
13	0	0	0	0	519	1021	0	0	0	0	
14	0	0	0	0	524	1021	0	0	0	0	
15	0	0	0	0	531	874	0	45	0	0	
0	0	0	0	0	539	568	0	162	0	0	
1	0	0	0	0	548	245	0	292	0	0	
2	0	0	0	0	556	0	0	407	0	0	
3	0	0	0	0	565	0	0	480	0	0	
4	0	0	0	0	571	0	0	526	0	0	
5	0	0	0	0	575	29	0	594	0	0	
6	0	0	0	0	576	38	0	697	0	0	
7	0	0	0	0	575	0	0	815	0	0	
8	0	0	0	0	572	0	0	920	0	0	
9	0	0	0	0	565	0	0	979	0	0	
10	0	0	0	0	558	0	0	972	0	0	
11	0	0	0	0	550	114	0	878	0	0	
12	0	0	0	0	541	370	0	694	0	0	
13	0	0	0	0	535	768	0	428	0	0	
14	0	0	0	0	529	1020	0	120	0	0	
15	0	0	0	0	526	1021	0	0	0	0	
0	0	0	0	0	526	1021	0	0	0	0	
1	0	0	0	0	529	1021	0	0	0	0	
2	0	0	0	0	534	1021	0	0	0	0	
3	0	0	0	0	541	894	0	31	0	0	
4	0	0	0	0	549	601	0	139	0	0	
5	0	0	0	0	558	291	0	262	0	0	
6	0	0	0	0	567	51	0	371	0	0	
7	0	0	0	0	574	0	0	440	0	0	
8	0	0	0	0	579	2	0	484	0	0	
9	0	0	0	0	581	59	0	553	0	0	
10	0	0	0	0	580	79	0	659	0	0	
11	0	0	0	0	575	45	0	781	0	0	
12	0	0	0	0	569	0	0	892	0	0	
13	0	0	0	0	560	0	0	958	0	0	
14	0	0	0	0	550	0	0	956	0	0	
15	0	0	0	0	539	122	0	870	0	0	
0	0	0	0	0	528	376	0	691	0	0	
1	0	0	0	0	520	771	0	431	0	0	
2	0	0	0	0	514	1020	0	126	0	0	
3	0	0	0	0	510	1021	0	0	0	0	
4	0	0	0	0	511	1021	0	0	0	0	
5	0	0	0	0	514	1021	0	0	0	0	
6	0	0	0	0	521	1021	0	0	0	0	
7	0	0	0	0	529	889	0	35	0	0	
8	0	0	0	0	539	591	0	146	0	0	
9	0	0	0	0	549	273	0	272	0	0	
10	0	0	0	0	559	25	0	385	0	0	
11	0	0	0	0	568	0	0	457	0	0	
12	0	0	0	0	575	0	0	502	0	0	
13	0	0	0	0	579	40	0	569	0	0	
14	0	0	0	0	580	57	0	672	0	0	
15	0	0	0	0	578	23	0	792	0	0	
0	0	0	0	0	574	0	0	897	0	0	
1	0	0	0	0	568	0	0	960	0	0	
2	0	0	0	0	560	0	0	955	0	0	
3	0	0	0	0	551	125	0	867	0	0	
4	0	0	0	0	542	382	0	687	0	0	
5	0	0	0	0	534	780	0	425	0	0	
6	0	0	0	0	528	1020	0	119	0	0	
7	0	0	0	0	524	1021	0	0	0	0	
8	0	0	0	0	524	1021	0	0	0	0	
9	0	0	0	0	526	1021	0	0	0	0	
10	0	0	0	0	531	1021	0	0	0	0	
11	0	0	0	0	539	898	0	36	0	0	
12	0	0	0	0	547	602	0	149	0	0	
13	0	0	0	0	557	286	0	277	0	0	
14	0	0	0	0	566	37	0	391	0	0	
15	0	0	0	0	575	0	0	467	0	0	
0	0	0	0	0	582	0	0	513	0	0	
1	0	0	0	0	584	45	0	580	0	0	
2	0	0	0	0	585	64	0	684	0	0	
3	0	0	0	0	582	31	0	804	0	0	
4	0	0	0	0	577	0	0	912	0	0	
5	0	0	0	0	570	0	0	977	0	0	
6	0	0	0	0	561	0	0	975	0	0	
7	0	0	0	0	552	116	0	888	0	0	
8	0	0	0	0	542	367	0	711	0	0	
9	0	0	0	0	533	760	0	450	0	0	
10	0	0	0	0	527	1020	0	143	0	0	
11	0	0	0	0	523	1021	0	0	0	0	
12	0	0	0	0	523	1021	0	0	0	0	
13	0	0	0	0	525	1021	0	0	0	0	
14	0	0	0	0	529	1021	0	0	0	0	
15	0	0	0	0	536	910	0	28	0	0	
0	0	0	0	0	544	622	0	134	0	0	
1	0	0	0	0	554	310	0	256	0	0	
2	0	0	0	0	561	63	0	366	0	0	
3	0	0	0	0	569	0	0	438	0	0	
4	0	0	0	0	574	0	0	482	0	0	
5	0	0	0	0	577	55	0	547	0	0	
6	0	0	0	0	577	80	0	647	0	0	
7	0	0	0	0	573	53	0	764	0	0	
8	0	0	0	0	568	0	0	870	0	0	
9	0	0	0	0	560	0	0	933	0	0	
10	0	0	0	0	551	12	0	930	0	0	
11	0	0	0	0	542	142	0	844	0	0	
12	0	0	0	0	531	401	0	667	0	0	
13	0	0	0	0	523	800	0	409	0	0	
14	0	0	0	0	516	1020	0	107	0	0	
15	0	0	0	0	513	1021	0	0	0	0	
0	0	0	0	0	512	1021	0	0	0	0	
1	0	0	0	0	514	1021	0	0	0	0	
2	0	0	0	0	519	1021	0	0	0	0	
3	0	0	0	0	527	918	0	32	0	0	
4	0	0	0	0	536	629	0	143	0	0	
5	0	0	0	0	546	315	0	271	0	0	
6	0	0	0	0	556	63	0	385	0	0	
7	0	0	0	0	565	0	0	461	0	0	
8	0	0	0	0	572	0	0	506	0	0	
9	0	0	0	0	576	46	0	570	0	0	
10	0	0	0	0	579	67	0	670	0	0	
11	0	0	0	0	576	36	0	785	0	0	
12	0	0	0	0	574	0	0	891	0	0	
13	0	0	0	0	567	0	0	954	0	0	
14	0	0	0	0	559	0	0	951	0	0	
15	0	0	0	0	549	115	0	864	0	0	
0	0	0	0	0	538	363	0	687	0	0	
1	0	0	0	0	530	752	0	430	0	0	
2	0	0	0	0	521	1020	0	124	0	0	
3	0	0	0	0	516	1021	0	0	0	0	
4	0	0	0	0	514	1021	0	0	0	0	
5	0	0	0	0	513	1021	0	0	0	0	
6	0	0	0	0	518	1021	0	0	0	0	
7	0	0	0	0	522	914	0	26	0	0	
8	0	0	0	0	529	625	0	132	0	0	
9	0	0	0	0	539	309	0	256	0	0	
10	0	0	0	0	547	56	0	367	0	0	
11	0	0	0	0	556	0	0	442	0	0	
12	0	0	0	0	563	0	0	486	0	0	
13	0	0	0	0	568	44	0	550	0	0	
14	0	0	0	0	571	68	0	649	0	0	
