# OpenSignals Text File Format. Version 1
# {"": {"position": 0, "device": "", "device name": "", "device connection": "", "sampling rate": 1000, "resolution": [4, 1, 1, 1, 1, 10, 10, 10, 10, 6, 6], "firmware version": 1281, "comments": "", "keywords": "", "mode": 0, "sync interval": 2, "date": "", "time": "", "channels": [1, 2, 3, 4, 5, 6], "sensor": ["RAW", "RAW", "RAW", "RAW", "RAW", "RAW"], "label": ["A1", "A2", "A3", "A4", "A5", "A6"], "column": ["nSeq", "I1", "I2", "O1", "O2", "A1", "A2", "A3", "A4", "A5", "A6"], "special": [{}, {}, {}, {}, {}, {}], "digital IO": [0, 0, 1, 1], "convertedValues": 0}}
# EndOfHeader
0	0	0	0	0	542	514	0	0	0	0	
1	0	0	0	0	543	517	0	0	0	0	
2	0	0	0	0	544	522	0	0	0	0	
3	0	0	0	0	545	529	0	0	0	0	
4	0	0	0	0	548	540	0	0	0	0	
5	0	0	0	0	550	545	0	0	0	0	
6	0	0	0	0	551	527	0	0	0	0	
7	0	0	0	0	553	490	0	0	0	0	
8	0	0	0	0	555	443	0	0	0	0	
9	0	0	0	0	556	396	0	0	0	0	
10	0	0	0	0	557	359	0	0	0	0	
11	0	0	0	0	557	337	0	0	0	0	
12	0	0	0	0	557	334	0	0	0	0	
13	0	0	0	0	556	352	0	0	0	0	
14	0	0	0	0	556	390	0	0	0	0	
15	0	0	0	0	553	433	0	0	0	0	
0	0	0	0	0	551	469	0	0	0	0	
1	0	0	0	0	550	495	0	0	0	0	
2	0	0	0	0	548	512	0	0	0	0	
3	0	0	0	0	547	522	0	0	0	0	
4	0	0	0	0	546	527	0	0	0	0	
5	0	0	0	0	546	530	0	0	0	0	
6	0	0	0	0	546	535	0	0	0	0	
7	0	0	0	0	546	541	0	0	0	0	
8	0	0	0	0	547	551	0	0	0	0	
9	0	0	0	0	548	555	0	0	0	0	
10	0	0	0	0	549	537	0	0	0	0	
11	0	0	0	0	551	500	0	0	0	0	
12	0	0	0	0	551	455	0	0	0	0	
13	0	0	0	0	551	409	0	0	0	0	
14	0	0	0	0	551	372	0	0	0	0	
15	0	0	0	0	551	351	0	0	0	0	
0	0	0	0	0	550	349	0	0	0	0	
1	0	0	0	0	549	367	0	0	0	0	
2	0	0	0	0	547	404	0	0	0	0	
3	0	0	0	0	546	446	0	0	0	0	
4	0	0	0	0	544	479	0	0	0	0	
5	0	0	0	0	542	501	0	0	0	0	
6	0	0	0	0	541	513	0	0	0	0	
7	0	0	0	0	541	516	0	0	0	0	
8	0	0	0	0	540	516	0	0	0	0	
9	0	0	0	0	540	514	0	0	0	0	
10	0	0	0	0	540	514	0	0	0	0	
11	0	0	0	0	540	518	0	0	0	0	
12	0	0	0	0	540	526	0	0	0	0	
13	0	0	0	0	542	529	0	0	0	0	
14	0	0	0	0	543	511	0	0	0	0	
15	0	0	0	0	543	472	0	0	0	0	
0	0	0	0	0	543	423	0	0	0	0	
1	0	0	0	0	543	376	0	0	0	0	
2	0	0	0	0	543	337	0	0	0	0	
3	0	0	0	0	543	315	0	0	0	0	
4	0	0	0	0	543	312	0	0	0	0	
5	0	0	0	0	542	331	0	0	0	0	
6	0	0	0	0	541	370	0	0	0	0	
7	0	0	0	0	541	415	0	0	0	0	
8	0	0	0	0	542	453	0	0	0	0	
9	0	0	0	0	542	480	0	0	0	0	
10	0	0	0	0	543	497	0	0	0	0	
11	0	0	0	0	546	506	0	0	0	0	
12	0	0	0	0	549	511	0	0	0	0	
13	0	0	0	0	551	514	0	0	0	0	
14	0	0	0	0	554	519	0	0	0	0	
15	0	0	0	0	557	527	0	0	0	0	
0	0	0	0	0	559	539	0	0	0	0	
1	0	0	0	0	560	545	0	0	0	0	
2	0	0	0	0	561	529	0	0	0	0	
3	0	0	0	0	561	493	0	0	0	0	
4	0	0	0	0	559	445	0	0	0	0	
5	0	0	0	0	557	397	0	0	0	0	
6	0	0	0	0	554	357	0	0	0	0	
7	0	0	0	0	550	332	0	0	0	0	
8	0	0	0	0	545	326	0	0	0	0	
9	0	0	0	0	540	340	0	0	0	0	
10	0	0	0	0	536	376	0	0	0	0	
11	0	0	0	0	532	416	0	0	0	0	
12	0	0	0	0	530	451	0	0	0	0	
13	0	0	0	0	528	475	0	0	0	0	
14	0	0	0	0	527	490	0	0	0	0	
15	0	0	0	0	527	499	0	0	0	0	
0	0	0	0	0	530	504	0	0	0	0	
1	0	0	0	0	532	508	0	0	0	0	
2	0	0	0	0	535	514	0	0	0	0	
3	0	0	0	0	539	523	0	0	0	0	
4	0	0	0	0	542	536	0	0	0	0	
5	0	0	0	0	547	543	0	0	0	0	
6	0	0	0	0	550	527	0	0	0	0	
7	0	0	0	0	552	490	0	0	0	0	
8	0	0	0	0	553	443	0	0	0	0	
9	0	0	0	0	554	394	0	0	0	0	
10	0	0	0	0	554	353	0	0	0	0	
11	0	0	0	0	552	327	0	0	0	0	
12	0	0	0	0	551	322	0	0	0	0	
13	0	0	0	0	547	337	0	0	0	0	
14	0	0	0	0	544	373	0	0	0	0	
15	0	0	0	0	542	415	0	0	0	0	
0	0	0	0	0	540	450	0	0	0	0	
1	0	0	0	0	538	475	0	0	0	0	
2	0	0	0	0	536	490	0	0	0	0	
3	0	0	0	0	537	498	0	0	0	0	
4	0	0	0	0	539	502	0	0	0	0	
5	0	0	0	0	540	506	0	0	0	0	
6	0	0	0	0	542	511	0	0	0	0	
7	0	0	0	0	544	520	0	0	0	0	
8	0	0	0	0	547	533	0	0	0	0	
9	0	0	0	0	549	541	0	0	0	0	
10	0	0	0	0	551	525	0	0	0	0	
11	0	0	0	0	552	487	0	0	0	0	
12	0	0	0	0	552	438	0	0	0	0	
13	0	0	0	0	552	387	0	0	0	0	
14	0	0	0	0	553	344	0	0	0	0	
15	0	0	0	0	552	318	0	0	0	0	
0	0	0	0	0	551	312	0	0	0	0	
1	0	0	0	0	550	327	0	0	0	0	
2	0	0	0	0	549	364	0	0	0	0	
3	0	0	0	0	548	408	0	0	0	0	
4	0	0	0	0	547	445	0	0	0	0	
5	0	0	0	0	546	470	0	0	0	0	
6	0	0	0	0	546	486	0	0	0	0	
7	0	0	0	0	546	495	0	0	0	0	
8	0	0	0	0	547	498	0	0	0	0	
9	0	0	0	0	547	501	0	0	0	0	
10	0	0	0	0	548	505	0	0	0	0	
11	0	0	0	0	550	513	0	0	0	0	
12	0	0	0	0	550	526	0	0	0	0	
13	0	0	0	0	552	533	0	0	0	0	
14	0	0	0	0	552	518	0	0	0	0	
15	0	0	0	0	553	483	0	0	0	0	
0	0	0	0	0	552	438	0	0	0	0	
1	0	0	0	0	552	391	0	0	0	0	
2	0	0	0	0	551	354	0	0	0	0	
3	0	0	0	0	550	332	0	0	0	0	
4	0	0	0	0	547	329	0	0	0	0	
5	0	0	0	0	545	348	0	0	0	0	
6	0	0	0	0	543	386	0	0	0	0	
7	0	0	0	0	541	429	0	0	0	0	
8	0	0	0	0	539	464	0	0	0	0	
9	0	0	0	0	537	487	0	0	0	0	
10	0	0	0	0	537	500	0	0	0	0	
11	0	0	0	0	537	505	0	0	0	0	
12	0	0	0	0	537	505	0	0	0	0	
13	0	0	0	0	538	504	0	0	0	0	
14	0	0	0	0	540	505	0	0	0	0	
15	0	0	0	0	541	511	0	0	0	0	
0	0	0	0	0	543	522	0	0	0	0	
1	0	0	0	0	545	529	0	0	0	0	
2	0	0	0	0	547	515	0	0	0	0	
3	0	0	0	0	550	480	0	0	0	0	
4	0	0	0	0	551	435	0	0	0	0	
5	0	0	0	0	553	390	0	0	0	0	
6	0	0	0	0	554	353	0	0	0	0	
7	0	0	0	0	555	332	0	0	0	0	
8	0	0	0	0	555	331	0	0	0	0	
9	0	0	0	0	553	350	0	0	0	0	
10	0	0	0	0	552	388	0	0	0	0	
11	0	0	0	0	551	433	0	0	0	0	
12	0	0	0	0	548	469	0	0	0	0	
13	0	0	0	0	546	494	0	0	0	0	
14	0	0	0	0	544	507	0	0	0	0	
15	0	0	0	0	544	512	0	0	0	0	
0	0	0	0	0	544	513	0	0	0	0	
1	0	0	0	0	544	513	0	0	0	0	
2	0	0	0	0	545	515	0	0	0	0	
3	0	0	0	0	546	520	0	0	0	0	
4	0	0	0	0	548	531	0	0	0	0	
5	0	0	0	0	550	536	0	0	0	0	
6	0	0	0	0	551	520	0	0	0	0	
7	0	0	0	0	552	483	0	0	0	0	
8	0	0	0	0	553	434	0	0	0	0	
9	0	0	0	0	553	384	0	0	0	0	
10	0	0	0	0	553	344	0	0	0	0	
11	0	0	0	0	552	319	0	0	0	0	
12	0	0	0	0	551	315	0	0	0	0	
13	0	0	0	0	550	332	0	0	0	0	
14	0	0	0	0	550	371	0	0	0	0	
15	0	0	0	0	549	417	0	0	0	0	
0	0	0	0	0	548	456	0	0	0	0	
1	0	0	0	0	548	485	0	0	0	0	
2	0	0	0	0	548	504	0	0	0	0	
3	0	0	0	0	549	515	0	0	0	0	
4	0	0	0	0	550	521	0	0	0	0	
5	0	0	0	0	550	524	0	0	0	0	
6	0	0	0	0	551	529	0	0	0	0	
7	0	0	0	0	551	536	0	0	0	0	
8	0	0	0	0	552	547	0	0	0	0	
9	0	0	0	0	553	555	0	0	0	0	
10	0	0	0	0	553	540	0	0	0	0	
11	0	0	0	0	554	506	0	0	0	0	
12	0	0	0	0	555	462	0	0	0	0	
13	0	0	0	0	556	417	0	0	0	0	
14	0	0	0	0	556	381	0	0	0	0	
15	0	0	0	0	556	360	0	0	0	0	
0	0	0	0	0	557	358	0	0	0	0	
1	0	0	0	0	557	377	0	0	0	0	
2	0	0	0	0	557	415	0	0	0	0	
3	0	0	0	0	558	459	0	0	0	0	
4	0	0	0	0	558	495	0	0	0	0	
5	0	0	0	0	558	520	0	0	0	0	
6	0	0	0	0	558	534	0	0	0	0	
7	0	0	0	0	558	540	0	0	0	0	
8	0	0	0	0	558	542	0	0	0	0	
9	0	0	0	0	558	541	0	0	0	0	
10	0	0	0	0	556	541	0	0	0	0	
11	0	0	0	0	555	544	0	0	0	0	
12	0	0	0	0	553	551	0	0	0	0	
13	0	0	0	0	551	555	0	0	0	0	
14	0	0	0	0	548	537	0	0	0	0	
15	0	0	0	0	545	500	0	0	0	0	
0	0	0	0	0	542	452	0	0	0	0	
1	0	0	0	0	540	405	0	0	0	0	
2	0	0	0	0	537	367	0	0	0	0	
3	0	0	0	0	535	345	0	0	0	0	
4	0	0	0	0	534	342	0	0	0	0	
5	0	0	0	0	533	361	0	0	0	0	
6	0	0	0	0	534	399	0	0	0	0	
7	0	0	0	0	535	444	0	0	0	0	
8	0	0	0	0	536	480	0	0	0	0	
9	0	0	0	0	538	503	0	0	0	0	
10	0	0	0	0	540	516	0	0	0	0	
11	0	0	0	0	542	519	0	0	0	0	
12	0	0	0	0	544	519	0	0	0	0	
13	0	0	0	0	545	515	0	0	0	0	
14	0	0	0	0	546	514	0	0	0	0	
15	0	0	0	0	546	517	0	0	0	0	
0	0	0	0	0	547	524	0	0	0	0	
1	0	0	0	0	546	530	0	0	0	0	
2	0	0	0	0	546	515	0	0	0	0	
3	0	0	0	0	546	481	0	0	0	0	
4	0	0	0	0	546	438	0	0	0	0	
5	0	0	0	0	545	395	0	0	0	0	
6	0	0	0	0	546	361	0	0	0	0	
7	0	0	0	0	545	343	0	0	0	0	
8	0	0	0	0	545	344	0	0	0	0	
9	0	0	0	0	545	366	0	0	0	0	
10	0	0	0	0	544	406	0	0	0	0	
11	0	0	0	0	544	453	0	0	0	0	
12	0	0	0	0	543	490	0	0	0	0	
13	0	0	0	0	543	516	0	0	0	0	
14	0	0	0	0	543	530	0	0	0	0	
15	0	0	0	0	542	536	0	0	0	0	
0	0	0	0	0	542	536	0	0	0	0	
1	0	0	0	0	542	534	0	0	0	0	
2	0	0	0	0	541	534	0	0	0	0	
3	0	0	0	0	541	537	0	0	0	0	
4	0	0	0	0	542	544	0	0	0	0	
5	0	0	0	0	543	548	0	0	0	0	
6	0	0	0	0	543	529	0	0	0	0	
7	0	0	0	0	544	489	0	0	0	0	
8	0	0	0	0	545	437	0	0	0	0	
9	0	0	0	0	545	383	0	0	0	0	
10	0	0	0	0	545	339	0	0	0	0	
11	0	0	0	0	544	310	0	0	0	0	
12	0	0	0	0	544	303	0	0	0	0	
13	0	0	0	0	544	318	0	0	0	0	
14	0	0	0	0	543	355	0	0	0	0	
15	0	0	0	0	543	403	0	0	0	0	
0	0	0	0	0	543	444	0	0	0	0	
1	0	0	0	0	543	477	0	0	0	0	
2	0	0	0	0	544	501	0	0	0	0	
3	0	0	0	0	545	517	0	0	0	0	
4	0	0	0	0	547	527	0	0	0	0	
5	0	0	0	0	547	536	0	0	0	0	
6	0	0	0	0	548	543	0	0	0	0	
7	0	0	0	0	548	553	0	0	0	0	
8	0	0	0	0	548	566	0	0	0	0	
9	0	0	0	0	548	572	0	0	0	0	
10	0	0	0	0	548	556	0	0	0	0	
11	0	0	0	0	547	517	0	0	0	0	
12	0	0	0	0	546	465	0	0	0	0	
13	0	0	0	0	546	412	0	0	0	0	
14	0	0	0	0	544	367	0	0	0	0	
15	0	0	0	0	543	338	0	0	0	0	
0	0	0	0	0	541	328	0	0	0	0	
1	0	0	0	0	540	341	0	0	0	0	
2	0	0	0	0	538	375	0	0	0	0	
3	0	0	0	0	537	419	0	0	0	0	
4	0	0	0	0	535	456	0	0	0	0	
5	0	0	0	0	535	485	0	0	0	0	
6	0	0	0	0	534	505	0	0	0	0	
7	0	0	0	0	534	519	0	0	0	0	
8	0	0	0	0	536	527	0	0	0	0	
9	0	0	0	0	537	534	0	0	0	0	
10	0	0	0	0	540	541	0	0	0	0	
11	0	0	0	0	542	551	0	0	0	0	
12	0	0	0	0	544	563	0	0	0	0	
13	0	0	0	0	547	572	0	0	0	0	
14	0	0	0	0	549	556	0	0	0	0	
15	0	0	0	0	551	518	0	0	0	0	
0	0	0	0	0	552	468	0	0	0	0	
1	0	0	0	0	553	415	0	0	0	0	
2	0	0	0	0	552	371	0	0	0	0	
3	0	0	0	0	551	341	0	0	0	0	
4	0	0	0	0	549	332	0	0	0	0	
5	0	0	0	0	548	345	0	0	0	0	
6	0	0	0	0	545	380	0	0	0	0	
7	0	0	0	0	543	423	0	0	0	0	
8	0	0	0	0	541	460	0	0	0	0	
9	0	0	0	0	540	487	0	0	0	0	
10	0	0	0	0	539	504	0	0	0	0	
11	0	0	0	0	538	514	0	0	0	0	
12	0	0	0	0	538	519	0	0	0	0	
13	0	0	0	0	538	523	0	0	0	0	
14	0	0	0	0	539	528	0	0	0	0	
15	0	0	0	0	540	536	0	0	0	0	
0	0	0	0	0	542	548	0	0	0	0	
1	0	0	0	0	544	557	0	0	0	0	
2	0	0	0	0	546	544	0	0	0	0	
3	0	0	0	0	548	508	0	0	0	0	
4	0	0	0	0	549	462	0	0	0	0	
5	0	0	0	0	551	414	0	0	0	0	
6	0	0	0	0	551	373	0	0	0	0	
7	0	0	0	0	551	348	0	0	0	0	
8	0	0	0	0	551	343	0	0	0	0	
9	0	0	0	0	550	358	0	0	0	0	
10	0	0	0	0	549	395	0	0	0	0	
11	0	0	0	0	549	440	0	0	0	0	
12	0	0	0	0	548	480	0	0	0	0	
13	0	0	0	0	548	509	0	0	0	0	
14	0	0	0	0	549	529	0	0	0	0	
15	0	0	0	0	551	540	0	0	0	0	
0	0	0	0	0	552	547	0	0	0	0	
1	0	0	0	0	553	552	0	0	0	0	
2	0	0	0	0	554	558	0	0	0	0	
3	0	0	0	0	555	565	0	0	0	0	
4	0	0	0	0	556	576	0	0	0	0	
5	0	0	0	0	558	583	0	0	0	0	
6	0	0	0	0	559	566	0	0	0	0	
7	0	0	0	0	559	526	0	0	0	0	
8	0	0	0	0	559	474	0	0	0	0	
9	0	0	0	0	559	421	0	0	0	0	
10	0	0	0	0	559	375	0	0	0	0	
11	0	0	0	0	558	345	0	0	0	0	
12	0	0	0	0	557	335	0	0	0	0	
13	0	0	0	0	556	348	0	0	0	0	
14	0	0	0	0	553	382	0	0	0	0	
15	0	0	0	0	552	425	0	0	0	0	
0	0	0	0	0	550	463	0	0	0	0	
1	0	0	0	0	548	491	0	0	0	0	
2	0	0	0	0	546	510	0	0	0	0	
3	0	0	0	0	545	522	0	0	0	0	
4	0	0	0	0	545	529	0	0	0	0	
5	0	0	0	0	544	535	0	0	0	0	
6	0	0	0	0	544	540	0	0	0	0	
7	0	0	0	0	545	550	0	0	0	0	
8	0	0	0	0	547	563	0	0	0	0	
9	0	0	0	0	548	572	0	0	0	0	
10	0	0	0	0	551	560	0	0	0	0	
11	0	0	0	0	552	526	0	0	0	0	
12	0	0	0	0	554	480	0	0	0	0	
13	0	0	0	0	555	433	0	0	0	0	
14	0	0	0	0	556	393	0	0	0	0	
15	0	0	0	0	557	368	0	0	0	0	
0	0	0	0	0	557	361	0	0	0	0	
1	0	0	0	0	556	376	0	0	0	0	
2	0	0	0	0	555	412	0	0	0	0	
3	0	0	0	0	553	454	0	0	0	0	
4	0	0	0	0	552	491	0	0	0	0	
5	0	0	0	0	550	517	0	0	0	0	
6	0	0	0	0	548	533	0	0	0	0	
7	0	0	0	0	545	541	0	0	0	0	
8	0	0	0	0	543	544	0	0	0	0	
9	0	0	0	0	541	545	0	0	0	0	
10	0	0	0	0	539	547	0	0	0	0	
11	0	0	0	0	537	552	0	0	0	0	
12	0	0	0	0	535	561	0	0	0	0	
13	0	0	0	0	535	566	0	0	0	0	
14	0	0	0	0	535	550	0	0	0	0	
15	0	0	0	0	535	511	0	0	0	0	
0	0	0	0	0	535	461	0	0	0	0	
1	0	0	0	0	535	408	0	0	0	0	
2	0	0	0	0	536	365	0	0	0	0	
3	0	0	0	0	537	337	0	0	0	0	
4	0	0	0	0	537	329	0	0	0	0	
5	0	0	0	0	538	343	0	0	0	0	
6	0	0	0	0	538	379	0	0	0	0	
7	0	0	0	0	538	424	0	0	0	0	
8	0	0	0	0	538	464	0	0	0	0	
9	0	0	0	0	539	494	0	0	0	0	
10	0	0	0	0	539	515	0	0	0	0	
11	0	0	0	0	539	527	0	0	0	0	
12	0	0	0	0	540	536	0	0	0	0	
13	0	0	0	0	540	542	0	0	0	0	
14	0	0	0	0	540	548	0	0	0	0	
15	0	0	0	0	541	557	0	0	0	0	
0	0	0	0	0	542	568	0	0	0	0	
1	0	0	0	0	543	576	0	0	0	0	
2	0	0	0	0	543	560	0	0	0	0	
3	0	0	0	0	543	520	0	0	0	0	
4	0	0	0	0	544	467	0	0	0	0	
5	0	0	0	0	544	412	0	0	0	0	
6	0	0	0	0	545	363	0	0	0	0	
7	0	0	0	0	545	331	0	0	0	0	
8	0	0	0	0	545	319	0	0	0	0	
9	0	0	0	0	545	332	0	0	0	0	
10	0	0	0	0	545	366	0	0	0	0	
11	0	0	0	0	545	412	0	0	0	0	
12	0	0	0	0	546	452	0	0	0	0	
13	0	0	0	0	546	485	0	0	0	0	
14	0	0	0	0	547	509	0	0	0	0	
15	0	0	0	0	549	526	0	0	0	0	
0	0	0	0	0	550	537	0	0	0	0	
1	0	0	0	0	552	547	0	0	0	0	
2	0	0	0	0	553	556	0	0	0	0	
3	0	0	0	0	555	568	0	0	0	0	
4	0	0	0	0	555	582	0	0	0	0	
5	0	0	0	0	557	592	0	0	0	0	
6	0	0	0	0	558	578	0	0	0	0	
7	0	0	0	0	558	540	0	0	0	0	
8	0	0	0	0	556	488	0	0	0	0	
9	0	0	0	0	555	433	0	0	0	0	
10	0	0	0	0	553	384	0	0	0	0	
11	0	0	0	0	551	351	0	0	0	0	
12	0	0	0	0	548	338	0	0	0	0	
13	0	0	0	0	546	347	0	0	0	0	
14	0	0	0	0	543	379	0	0	0	0	
15	0	0	0	0	542	422	0	0	0	0	
0	0	0	0	0	540	459	0	0	0	0	
1	0	0	0	0	540	486	0	0	0	0	
2	0	0	0	0	540	504	0	0	0	0	
3	0	0	0	0	540	513	0	0	0	0	
4	0	0	0	0	541	519	0	0	0	0	
5	0	0	0	0	541	524	0	0	0	0	
6	0	0	0	0	543	529	0	0	0	0	
7	0	0	0	0	544	539	0	0	0	0	
8	0	0	0	0	546	551	0	0	0	0	
9	0	0	0	0	548	562	0	0	0	0	
10	0	0	0	0	551	552	0	0	0	0	
11	0	0	0	0	553	519	0	0	0	0	
12	0	0	0	0	555	474	0	0	0	0	
13	0	0	0	0	556	427	0	0	0	0	
14	0	0	0	0	558	386	0	0	0	0	
15	0	0	0	0	558	361	0	0	0	0	
0	0	0	0	0	558	355	0	0	0	0	
1	0	0	0	0	558	370	0	0	0	0	
2	0	0	0	0	557	407	0	0	0	0	
3	0	0	0	0	557	451	0	0	0	0	
4	0	0	0	0	556	490	0	0	0	0	
5	0	0	0	0	555	518	0	0	0	0	
6	0	0	0	0	554	535	0	0	0	0	
7	0	0	0	0	553	543	0	0	0	0	
8	0	0	0	0	553	547	0	0	0	0	
9	0	0	0	0	552	548	0	0	0	0	
10	0	0	0	0	552	551	0	0	0	0	
11	0	0	0	0	551	557	0	0	0	0	
12	0	0	0	0	551	566	0	0	0	0	
13	0	0	0	0	551	573	0	0	0	0	
14	0	0	0	0	551	558	0	0	0	0	
15	0	0	0	0	551	519	0	0	0	0	
0	0	0	0	0	551	468	0	0	0	0	
1	0	0	0	0	551	414	0	0	0	0	
2	0	0	0	0	552	367	0	0	0	0	
3	0	0	0	0	552	336	0	0	0	0	
4	0	0	0	0	551	325	0	0	0	0	
5	0	0	0	0	550	336	0	0	0	0	
6	0	0	0	0	547	368	0	0	0	0	
7	0	0	0	0	544	411	0	0	0	0	
8	0	0	0	0	540	447	0	0	0	0	
9	0	0	0	0	534	470	0	0	0	0	
10	0	0	0	0	527	483	0	0	0	0	
11	0	0	0	0	519	487	0	0	0	0	
12	0	0	0	0	511	486	0	0	0	0	
13	0	0	0	0	502	481	0	0	0	0	
14	0	0	0	0	492	477	0	0	0	0	
15	0	0	0	0	481	476	0	0	0	0	
0	0	0	0	0	471	479	0	0	0	0	
1	0	0	0	0	460	479	0	0	0	0	
2	0	0	0	0	450	457	0	0	0	0	
3	0	0	0	0	439	413	0	0	0	0	
4	0	0	0	0	428	355	0	0	0	0	
5	0	0	0	0	416	296	0	0	0	0	
6	0	0	0	0	404	243	0	0	0	0	
7	0	0	0	0	392	206	0	0	0	0	
8	0	0	0	0	380	185	0	0	0	0	
9	0	0	0	0	366	186	0	0	0	0	
10	0	0	0	0	355	208	0	0	0	0	
11	0	0	0	0	344	240	0	0	0	0	
12	0	0	0	0	335	270	0	0	0	0	
13	0	0	0	0	328	292	0	0	0	0	
14	0	0	0	0	325	308	0	0	0	0	
15	0	0	0	0	326	320	0	0	0	0	
0	0	0	0	0	331	330	0	0	0	0	
1	0	0	0	0	340	342	0	0	0	0	
2	0	0	0	0	353	358	0	0	0	0	
3	0	0	0	0	369	379	0	0	0	0	
4	0	0	0	0	389	407	0	0	0	0	
5	0	0	0	0	410	433	0	0	0	0	
6	0	0	0	0	433	438	0	0	0	0	
7	0	0	0	0	455	418	0	0	0	0	
8	0	0	0	0	478	383	0	0	0	0	
9	0	0	0	0	499	343	0	0	0	0	
10	0	0	0	0	517	310	0	0	0	0	
11	0	0	0	0	533	290	0	0	0	0	
12	0	0	0	0	547	290	0	0	0	0	
13	0	0	0	0	558	312	0	0	0	0	
14	0	0	0	0	566	355	0	0	0	0	
15	0	0	0	0	572	409	0	0	0	0	
0	0	0	0	0	576	455	0	0	0	0	
1	0	0	0	0	579	489	0	0	0	0	
2	0	0	0	0	581	511	0	0	0	0	
3	0	0	0	0	580	523	0	0	0	0	
4	0	0	0	0	581	529	0	0	0	0	
5	0	0	0	0	579	532	0	0	0	0	
6	0	0	0	0	577	536	0	0	0	0	
7	0	0	0	0	574	543	0	0	0	0	
8	0	0	0	0	572	556	0	0	0	0	
9	0	0	0	0	569	564	0	0	0	0	
10	0	0	0	0	568	551	0	0	0	0	
11	0	0	0	0	566	512	0	0	0	0	
12	0	0	0	0	564	458	0	0	0	0	
13	0	0	0	0	563	400	0	0	0	0	
14	0	0	0	0	563	350	0	0	0	0	
15	0	0	0	0	563	316	0	0	0	0	
0	0	0	0	0	563	303	0	0	0	0	
1	0	0	0	0	565	316	0	0	0	0	
2	0	0	0	0	567	352	0	0	0	0	
3	0	0	0	0	569	402	0	0	0	0	
4	0	0	0	0	572	447	0	0	0	0	
5	0	0	0	0	575	481	0	0	0	0	
6	0	0	0	0	577	505	0	0	0	0	
7	0	0	0	0	580	520	0	0	0	0	
8	0	0	0	0	583	531	0	0	0	0	
9	0	0	0	0	584	539	0	0	0	0	
10	0	0	0	0	585	547	0	0	0	0	
11	0	0	0	0	586	558	0	0	0	0	
12	0	0	0	0	587	574	0	0	0	0	
13	0	0	0	0	587	585	0	0	0	0	
14	0	0	0	0	587	573	0	0	0	0	
15	0	0	0	0	586	533	0	0	0	0	
0	0	0	0	0	585	476	0	0	0	0	
1	0	0	0	0	585	413	0	0	0	0	
2	0	0	0	0	585	357	0	0	0	0	
3	0	0	0	0	583	317	0	0	0	0	
4	0	0	0	0	583	300	0	0	0	0	
5	0	0	0	0	582	307	0	0	0	0	
6	0	0	0	0	581	341	0	0	0	0	
7	0	0	0	0	580	389	0	0	0	0	
8	0	0	0	0	579	432	0	0	0	0	
9	0	0	0	0	579	463	0	0	0	0	
10	0	0	0	0	578	485	0	0	0	0	
11	0	0	0	0	579	498	0	0	0	0	
12	0	0	0	0	579	507	0	0	0	0	
13	0	0	0	0	578	513	0	0	0	0	
14	0	0	0	0	578	521	0	0	0	0	
15	0	0	0	0	578	533	0	0	0	0	
0	0	0	0	0	579	550	0	0	0	0	
1	0	0	0	0	579	565	0	0	0	0	
2	0	0	0	0	580	552	0	0	0	0	
3	0	0	0	0	581	508	0	0	0	0	
4	0	0	0	0	581	445	0	0	0	0	
5	0	0	0	0	582	374	0	0	0	0	
6	0	0	0	0	583	309	0	0	0	0	
7	0	0	0	0	583	261	0	0	0	0	
8	0	0	0	0	582	236	0	0	0	0	
9	0	0	0	0	581	239	0	0	0	0	
10	0	0	0	0	580	271	0	0	0	0	
11	0	0	0	0	578	317	0	0	0	0	
12	0	0	0	0	575	357	0	0	0	0	
13	0	0	0	0	573	384	0	0	0	0	
14	0	0	0	0	570	398	0	0	0	0	
15	0	0	0	0	569	403	0	0	0	0	
0	0	0	0	0	567	404	0	0	0	0	
1	0	0	0	0	566	406	0	0	0	0	
2	0	0	0	0	565	412	0	0	0	0	
3	0	0	0	0	564	426	0	0	0	0	
4	0	0	0	0	565	449	0	0	0	0	
5	0	0	0	0	567	470	0	0	0	0	
6	0	0	0	0	568	457	0	0	0	0	
7	0	0	0	0	570	403	0	0	0	0	
8	0	0	0	0	572	316	0	0	0	0	
9	0	0	0	0	574	217	0	0	0	0	
10	0	0	0	0	575	121	0	0	0	0	
11	0	0	0	0	576	44	0	0	0	0	
12	0	0	0	0	577	0	0	0	0	0	
13	0	0	0	0	578	0	0	0	0	0	
14	0	0	0	0	579	19	0	0	0	0	
15	0	0	0	0	579	71	0	0	0	0	
0	0	0	0	0	580	123	0	0	0	0	
1	0	0	0	0	580	165	0	0	0	0	
2	0	0	0	0	581	197	0	0	0	0	
3	0	0	0	0	582	222	0	0	0	0	
4	0	0	0	0	583	244	0	0	0	0	
5	0	0	0	0	584	268	0	0	0	0	
6	0	0	0	0	584	297	0	0	0	0	
7	0	0	0	0	584	335	0	0	0	0	
8	0	0	0	0	584	381	0	0	0	0	
9	0	0	0	0	584	423	0	0	0	0	
10	0	0	0	0	583	426	0	0	0	0	
11	0	0	0	0	580	376	0	0	0	0	
12	0	0	0	0	579	285	0	0	0	0	
13	0	0	0	0	576	174	0	0	0	0	
14	0	0	0	0	574	61	0	0	0	0	
15	0	0	0	0	571	0	0	0	0	0	
0	0	0	0	0	569	0	0	0	0	0	
1	0	0	0	0	568	0	0	0	0	0	
2	0	0	0	0	567	0	0	0	0	0	
3	0	0	0	0	567	14	0	0	0	0	
4	0	0	0	0	568	42	0	0	0	0	
5	0	0	0	0	568	66	0	0	0	0	
6	0	0	0	0	570	86	0	0	0	0	
7	0	0	0	0	571	104	0	0	0	0	
8	0	0	0	0	574	127	0	0	0	0	
9	0	0	0	0	575	157	0	0	0	0	
10	0	0	0	0	577	199	0	0	0	0	
11	0	0	0	0	579	254	0	0	0	0	
12	0	0	0	0	579	321	0	0	0	0	
13	0	0	0	0	581	387	0	0	0	0	
14	0	0	0	0	582	412	0	0	0	0	
15	0	0	0	0	582	382	0	0	0	0	
0	0	0	0	0	581	306	0	0	0	0	
1	0	0	0	0	579	204	0	0	0	0	
2	0	0	0	0	579	96	0	0	0	0	
3	0	0	0	0	575	2	0	0	0	0	
4	0	0	0	0	574	0	0	0	0	0	
5	0	0	0	0	572	0	0	0	0	0	
6	0	0	0	0	569	0	0	0	0	0	
7	0	0	0	0	568	16	0	0	0	0	
8	0	0	0	0	566	46	0	0	0	0	
9	0	0	0	0	565	70	0	0	0	0	
10	0	0	0	0	564	89	0	0	0	0	
11	0	0	0	0	564	108	0	0	0	0	
12	0	0	0	0	564	130	0	0	0	0	
13	0	0	0	0	564	160	0	0	0	0	
14	0	0	0	0	564	201	0	0	0	0	
15	0	0	0	0	565	256	0	0	0	0	
0	0	0	0	0	565	323	0	0	0	0	
1	0	0	0	0	566	388	0	0	0	0	
2	0	0	0	0	567	414	0	0	0	0	
3	0	0	0	0	568	385	0	0	0	0	
4	0	0	0	0	568	311	0	0	0	0	
5	0	0	0	0	568	211	0	0	0	0	
6	0	0	0	0	568	105	0	0	0	0	
7	0	0	0	0	568	14	0	0	0	0	
8	0	0	0	0	566	0	0	0	0	0	
9	0	0	0	0	564	0	0	0	0	0	
10	0	0	0	0	564	0	0	0	0	0	
11	0	0	0	0	564	27	0	0	0	0	
12	0	0	0	0	563	63	0	0	0	0	
13	0	0	0	0	562	96	0	0	0	0	
14	0	0	0	0	562	123	0	0	0	0	
15	0	0	0	0	562	148	0	0	0	0	
0	0	0	0	0	563	176	0	0	0	0	
1	0	0	0	0	564	211	0	0	0	0	
2	0	0	0	0	565	255	0	0	0	0	
3	0	0	0	0	565	311	0	0	0	0	
4	0	0	0	0	567	377	0	0	0	0	
5	0	0	0	0	567	440	0	0	0	0	
6	0	0	0	0	568	463	0	0	0	0	
7	0	0	0	0	568	429	0	0	0	0	
8	0	0	0	0	567	349	0	0	0	0	
9	0	0	0	0	566	242	0	0	0	0	
10	0	0	0	0	565	129	0	0	0	0	
11	0	0	0	0	563	31	0	0	0	0	
12	0	0	0	0	561	0	0	0	0	0	
13	0	0	0	0	559	0	0	0	0	0	
14	0	0	0	0	557	0	0	0	0	0	
15	0	0	0	0	555	25	0	0	0	0	
0	0	0	0	0	553	63	0	0	0	0	
1	0	0	0	0	552	99	0	0	0	0	
2	0	0	0	0	551	130	0	0	0	0	
3	0	0	0	0	551	160	0	0	0	0	
4	0	0	0	0	551	193	0	0	0	0	
5	0	0	0	0	552	233	0	0	0	0	
6	0	0	0	0	553	281	0	0	0	0	
7	0	0	0	0	553	340	0	0	0	0	
8	0	0	0	0	555	409	0	0	0	0	
9	0	0	0	0	558	473	0	0	0	0	
10	0	0	0	0	560	497	0	0	0	0	
11	0	0	0	0	562	463	0	0	0	0	
12	0	0	0	0	563	383	0	0	0	0	
13	0	0	0	0	564	276	0	0	0	0	
14	0	0	0	0	566	163	0	0	0	0	
15	0	0	0	0	568	65	0	0	0	0	
0	0	0	0	0	569	0	0	0	0	0	
1	0	0	0	0	570	0	0	0	0	0	
2	0	0	0	0	571	0	0	0	0	0	
3	0	0	0	0	572	41	0	0	0	0	
4	0	0	0	0	573	89	0	0	0	0	
5	0	0	0	0	574	134	0	0	0	0	
6	0	0	0	0	575	173	0	0	0	0	
7	0	0	0	0	575	210	0	0	0	0	
8	0	0	0	0	577	247	0	0	0	0	
9	0	0	0	0	577	289	0	0	0	0	
10	0	0	0	0	577	339	0	0	0	0	
11	0	0	0	0	577	397	0	0	0	0	
12	0	0	0	0	577	463	0	0	0	0	
13	0	0	0	0	577	524	0	0	0	0	
14	0	0	0	0	577	543	0	0	0	0	
15	0	0	0	0	577	505	0	0	0	0	
0	0	0	0	0	576	422	0	0	0	0	
1	0	0	0	0	575	311	0	0	0	0	
2	0	0	0	0	574	197	0	0	0	0	
3	0	0	0	0	572	96	0	0	0	0	
4	0	0	0	0	569	24	0	0	0	0	
5	0	0	0	0	567	0	0	0	0	0	
6	0	0	0	0	566	7	0	0	0	0	
7	0	0	0	0	563	50	0	0	0	0	
8	0	0	0	0	560	100	0	0	0	0	
9	0	0	0	0	559	147	0	0	0	0	
10	0	0	0	0	558	190	0	0	0	0	
11	0	0	0	0	558	230	0	0	0	0	
12	0	0	0	0	558	271	0	0	0	0	
13	0	0	0	0	559	315	0	0	0	0	
14	0	0	0	0	560	366	0	0	0	0	
15	0	0	0	0	561	424	0	0	0	0	
0	0	0	0	0	563	489	0	0	0	0	
1	0	0	0	0	564	548	0	0	0	0	
2	0	0	0	0	566	564	0	0	0	0	
3	0	0	0	0	567	522	0	0	0	0	
4	0	0	0	0	568	433	0	0	0	0	
5	0	0	0	0	569	318	0	0	0	0	
6	0	0	0	0	570	199	0	0	0	0	
7	0	0	0	0	571	95	0	0	0	0	
8	0	0	0	0	571	21	0	0	0	0	
9	0	0	0	0	571	0	0	0	0	0	
10	0	0	0	0	570	6	0	0	0	0	
11	0	0	0	0	569	49	0	0	0	0	
12	0	0	0	0	567	100	0	0	0	0	
13	0	0	0	0	564	147	0	0	0	0	
14	0	0	0	0	563	189	0	0	0	0	
15	0	0	0	0	560	227	0	0	0	0	
0	0	0	0	0	559	264	0	0	0	0	
1	0	0	0	0	558	307	0	0	0	0	
2	0	0	0	0	558	355	0	0	0	0	
3	0	0	0	0	558	414	0	0	0	0	
4	0	0	0	0	558	480	0	0	0	0	
5	0	0	0	0	560	540	0	0	0	0	
6	0	0	0	0	563	558	0	0	0	0	
7	0	0	0	0	565	517	0	0	0	0	
8	0	0	0	0	568	427	0	0	0	0	
9	0	0	0	0	570	310	0	0	0	0	
10	0	0	0	0	572	189	0	0	0	0	
11	0	0	0	0	573	82	0	0	0	0	
12	0	0	0	0	574	6	0	0	0	0	
13	0	0	0	0	574	0	0	0	0	0	
14	0	0	0	0	572	0	0	0	0	0	
15	0	0	0	0	572	43	0	0	0	0	
0	0	0	0	0	571	93	0	0	0	0	
1	0	0	0	0	570	139	0	0	0	0	
2	0	0	0	0	569	179	0	0	0	0	
3	0	0	0	0	568	215	0	0	0	0	
4	0	0	0	0	567	252	0	0	0	0	
5	0	0	0	0	565	294	0	0	0	0	
6	0	0	0	0	563	343	0	0	0	0	
7	0	0	0	0	562	401	0	0	0	0	
8	0	0	0	0	561	469	0	0	0	0	
9	0	0	0	0	561	532	0	0	0	0	
10	0	0	0	0	561	553	0	0	0	0	
11	0	0	0	0	561	514	0	0	0	0	
12	0	0	0	0	563	427	0	0	0	0	
13	0	0	0	0	563	311	0	0	0	0	
14	0	0	0	0	565	190	0	0	0	0	
15	0	0	0	0	567	85	0	0	0	0	
0	0	0	0	0	568	9	0	0	0	0	
1	0	0	0	0	569	0	0	0	0	0	
2	0	0	0	0	571	3	0	0	0	0	
3	0	0	0	0	572	49	0	0	0	0	
4	0	0	0	0	572	102	0	0	0	0	
5	0	0	0	0	572	151	0	0	0	0	
6	0	0	0	0	572	194	0	0	0	0	
7	0	0	0	0	572	233	0	0	0	0	
8	0	0	0	0	572	273	0	0	0	0	
9	0	0	0	0	572	316	0	0	0	0	
10	0	0	0	0	571	368	0	0	0	0	
11	0	0	0	0	571	428	0	0	0	0	
12	0	0	0	0	569	497	0	0	0	0	
13	0	0	0	0	571	561	0	0	0	0	
14	0	0	0	0	571	582	0	0	0	0	
15	0	0	0	0	571	542	0	0	0	0	
0	0	0	0	0	572	452	0	0	0	0	
1	0	0	0	0	571	331	0	0	0	0	
2	0	0	0	0	572	206	0	0	0	0	
3	0	0	0	0	571	96	0	0	0	0	
4	0	0	0	0	572	16	0	0	0	0	
5	0	0	0	0	572	0	0	0	0	0	
6	0	0	0	0	571	2	0	0	0	0	
7	0	0	0	0	572	46	0	0	0	0	
8	0	0	0	0	572	99	0	0	0	0	
9	0	0	0	0	572	147	0	0	0	0	
10	0	0	0	0	573	190	0	0	0	0	
11	0	0	0	0	573	229	0	0	0	0	
12	0	0	0	0	575	269	0	0	0	0	
13	0	0	0	0	575	313	0	0	0	0	
14	0	0	0	0	575	366	0	0	0	0	
15	0	0	0	0	575	428	0	0	0	0	
0	0	0	0	0	575	499	0	0	0	0	
1	0	0	0	0	574	566	0	0	0	0	
2	0	0	0	0	573	589	0	0	0	0	
3	0	0	0	0	571	550	0	0	0	0	
4	0	0	0	0	570	460	0	0	0	0	
5	0	0	0	0	569	339	0	0	0	0	
6	0	0	0	0	568	212	0	0	0	0	
7	0	0	0	0	567	100	0	0	0	0	
8	0	0	0	0	566	19	0	0	0	0	
9	0	0	0	0	564	0	0	0	0	0	
10	0	0	0	0	564	2	0	0	0	0	
11	0	0	0	0	563	46	0	0	0	0	
12	0	0	0	0	563	98	0	0	0	0	
13	0	0	0	0	563	146	0	0	0	0	
14	0	0	0	0	562	188	0	0	0	0	
15	0	0	0	0	562	227	0	0	0	0	
0	0	0	0	0	562	265	0	0	0	0	
1	0	0	0	0	563	310	0	0	0	0	
2	0	0	0	0	563	362	0	0	0	0	
3	0	0	0	0	562	424	0	0	0	0	
4	0	0	0	0	563	495	0	0	0	0	
5	0	0	0	0	563	563	0	0	0	0	
6	0	0	0	0	563	589	0	0	0	0	
7	0	0	0	0	564	552	0	0	0	0	
8	0	0	0	0	563	464	0	0	0	0	
9	0	0	0	0	563	345	0	0	0	0	
10	0	0	0	0	561	220	0	0	0	0	
11	0	0	0	0	560	110	0	0	0	0	
12	0	0	0	0	558	29	0	0	0	0	
13	0	0	0	0	556	0	0	0	0	0	
14	0	0	0	0	555	7	0	0	0	0	
15	0	0	0	0	553	52	0	0	0	0	
0	0	0	0	0	552	107	0	0	0	0	
1	0	0	0	0	552	155	0	0	0	0	
2	0	0	0	0	551	197	0	0	0	0	
3	0	0	0	0	554	236	0	0	0	0	
4	0	0	0	0	556	275	0	0	0	0	
5	0	0	0	0	559	319	0	0	0	0	
6	0	0	0	0	562	371	0	0	0	0	
7	0	0	0	0	565	434	0	0	0	0	
8	0	0	0	0	569	507	0	0	0	0	
9	0	0	0	0	572	575	0	0	0	0	
10	0	0	0	0	575	602	0	0	0	0	
11	0	0	0	0	576	566	0	0	0	0	
12	0	0	0	0	577	477	0	0	0	0	
13	0	0	0	0	577	357	0	0	0	0	
14	0	0	0	0	577	229	0	0	0	0	
15	0	0	0	0	575	117	0	0	0	0	
0	0	0	0	0	572	34	0	0	0	0	
1	0	0	0	0	569	0	0	0	0	0	
2	0	0	0	0	567	7	0	0	0	0	
3	0	0	0	0	564	55	0	0	0	0	
4	0	0	0	0	561	112	0	0	0	0	
5	0	0	0	0	559	165	0	0	0	0	
6	0	0	0	0	558	213	0	0	0	0	
7	0	0	0	0	556	258	0	0	0	0	
8	0	0	0	0	556	303	0	0	0	0	
9	0	0	0	0	557	352	0	0	0	0	
10	0	0	0	0	558	408	0	0	0	0	
11	0	0	0	0	559	472	0	0	0	0	
12	0	0	0	0	560	545	0	0	0	0	
13	0	0	0	0	563	613	0	0	0	0	
14	0	0	0	0	564	637	0	0	0	0	
15	0	0	0	0	566	599	0	0	0	0	
0	0	0	0	0	566	507	0	0	0	0	
1	0	0	0	0	566	384	0	0	0	0	
2	0	0	0	0	566	253	0	0	0	0	
3	0	0	0	0	564	137	0	0	0	0	
4	0	0	0	0	563	52	0	0	0	0	
5	0	0	0	0	561	10	0	0	0	0	
6	0	0	0	0	559	18	0	0	0	0	
7	0	0	0	0	558	65	0	0	0	0	
8	0	0	0	0	557	122	0	0	0	0	
9	0	0	0	0	556	177	0	0	0	0	
10	0	0	0	0	556	228	0	0	0	0	
11	0	0	0	0	556	277	0	0	0	0	
12	0	0	0	0	558	325	0	0	0	0	
13	0	0	0	0	560	378	0	0	0	0	
14	0	0	0	0	561	437	0	0	0	0	
15	0	0	0	0	563	504	0	0	0	0	
0	0	0	0	0	564	578	0	0	0	0	
1	0	0	0	0	567	648	0	0	0	0	
2	0	0	0	0	568	673	0	0	0	0	
3	0	0	0	0	569	635	0	0	0	0	
4	0	0	0	0	570	545	0	0	0	0	
5	0	0	0	0	570	423	0	0	0	0	
6	0	0	0	0	571	292	0	0	0	0	
7	0	0	0	0	571	176	0	0	0	0	
8	0	0	0	0	570	91	0	0	0	0	
9	0	0	0	0	569	47	0	0	0	0	
10	0	0	0	0	568	54	0	0	0	0	
11	0	0	0	0	567	99	0	0	0	0	
12	0	0	0	0	564	155	0	0	0	0	
13	0	0	0	0	562	209	0	0	0	0	
14	0	0	0	0	561	260	0	0	0	0	
15	0	0	0	0	560	307	0	0	0	0	
0	0	0	0	0	559	356	0	0	0	0	
1	0	0	0	0	558	408	0	0	0	0	
2	0	0	0	0	558	467	0	0	0	0	
3	0	0	0	0	557	531	0	0	0	0	
4	0	0	0	0	558	604	0	0	0	0	
5	0	0	0	0	559	671	0	0	0	0	
6	0	0	0	0	560	696	0	0	0	0	
7	0	0	0	0	561	661	0	0	0	0	
8	0	0	0	0	562	575	0	0	0	0	
9	0	0	0	0	563	457	0	0	0	0	
10	0	0	0	0	563	331	0	0	0	0	
11	0	0	0	0	562	220	0	0	0	0	
12	0	0	0	0	561	139	0	0	0	0	
13	0	0	0	0	560	99	0	0	0	0	
14	0	0	0	0	560	107	0	0	0	0	
15	0	0	0	0	559	152	0	0	0	0	
0	0	0	0	0	559	207	0	0	0	0	
1	0	0	0	0	559	259	0	0	0	0	
2	0	0	0	0	559	306	0	0	0	0	
3	0	0	0	0	561	350	0	0	0	0	
4	0	0	0	0	562	394	0	0	0	0	
5	0	0	0	0	563	441	0	0	0	0	
6	0	0	0	0	564	494	0	0	0	0	
7	0	0	0	0	565	553	0	0	0	0	
8	0	0	0	0	567	621	0	0	0	0	
9	0	0	0	0	568	686	0	0	0	0	
10	0	0	0	0	568	716	0	0	0	0	
11	0	0	0	0	569	696	0	0	0	0	
12	0	0	0	0	569	636	0	0	0	0	
13	0	0	0	0	570	550	0	0	0	0	
14	0	0	0	0	570	458	0	0	0	0	
15	0	0	0	0	570	378	0	0	0	0	
0	0	0	0	0	570	323	0	0	0	0	
1	0	0	0	0	569	302	0	0	0	0	
2	0	0	0	0	569	319	0	0	0	0	
3	0	0	0	0	568	366	0	0	0	0	
4	0	0	0	0	568	418	0	0	0	0	
5	0	0	0	0	568	464	0	0	0	0	
6	0	0	0	0	567	504	0	0	0	0	
7	0	0	0	0	568	540	0	0	0	0	
8	0	0	0	0	568	573	0	0	0	0	
9	0	0	0	0	569	607	0	0	0	0	
10	0	0	0	0	570	645	0	0	0	0	
11	0	0	0	0	571	689	0	0	0	0	
12	0	0	0	0	573	737	0	0	0	0	
13	0	0	0	0	574	784	0	0	0	0	
14	0	0	0	0	575	806	0	0	0	0	
15	0	0	0	0	575	791	0	0	0	0	
0	0	0	0	0	575	747	0	0	0	0	
1	0	0	0	0	574	686	0	0	0	0	
2	0	0	0	0	573	623	0	0	0	0	
3	0	0	0	0	571	569	0	0	0	0	
4	0	0	0	0	568	536	0	0	0	0	
5	0	0	0	0	566	528	0	0	0	0	
6	0	0	0	0	563	549	0	0	0	0	
7	0	0	0	0	561	590	0	0	0	0	
8	0	0	0	0	560	632	0	0	0	0	
9	0	0	0	0	559	668	0	0	0	0	
10	0	0	0	0	558	696	0	0	0	0	
11	0	0	0	0	560	719	0	0	0	0	
12	0	0	0	0	562	740	0	0	0	0	
13	0	0	0	0	565	760	0	0	0	0	
14	0	0	0	0	567	783	0	0	0	0	
15	0	0	0	0	570	809	0	0	0	0	
0	0	0	0	0	573	839	0	0	0	0	
1	0	0	0	0	576	868	0	0	0	0	
2	0	0	0	0	579	873	0	0	0	0	
3	0	0	0	0	580	846	0	0	0	0	
4	0	0	0	0	582	795	0	0	0	0	
5	0	0	0	0	582	728	0	0	0	0	
6	0	0	0	0	582	664	0	0	0	0	
7	0	0	0	0	580	610	0	0	0	0	
8	0	0	0	0	578	576	0	0	0	0	
9	0	0	0	0	575	568	0	0	0	0	
10	0	0	0	0	572	588	0	0	0	0	
11	0	0	0	0	570	627	0	0	0	0	
12	0	0	0	0	567	667	0	0	0	0	
13	0	0	0	0	565	700	0	0	0	0	
14	0	0	0	0	563	726	0	0	0	0	
15	0	0	0	0	562	746	0	0	0	0	
0	0	0	0	0	562	764	0	0	0	0	
1	0	0	0	0	563	782	0	0	0	0	
2	0	0	0	0	564	800	0	0	0	0	
3	0	0	0	0	567	823	0	0	0	0	
4	0	0	0	0	569	849	0	0	0	0	
5	0	0	0	0	573	875	0	0	0	0	
6	0	0	0	0	576	879	0	0	0	0	
7	0	0	0	0	579	854	0	0	0	0	
8	0	0	0	0	582	807	0	0	0	0	
9	0	0	0	0	583	750	0	0	0	0	
10	0	0	0	0	585	694	0	0	0	0	
11	0	0	0	0	583	648	0	0	0	0	
12	0	0	0	0	581	620	0	0	0	0	
13	0	0	0	0	577	615	0	0	0	0	
14	0	0	0	0	571	635	0	0	0	0	
15	0	0	0	0	565	670	0	0	0	0	
0	0	0	0	0	558	705	0	0	0	0	
1	0	0	0	0	551	732	0	0	0	0	
2	0	0	0	0	545	753	0	0	0	0	
3	0	0	0	0	541	768	0	0	0	0	
4	0	0	0	0	539	779	0	0	0	0	
5	0	0	0	0	537	790	0	0	0	0	
6	0	0	0	0	538	804	0	0	0	0	
7	0	0	0	0	539	820	0	0	0	0	
8	0	0	0	0	542	840	0	0	0	0	
9	0	0	0	0	545	861	0	0	0	0	
10	0	0	0	0	550	861	0	0	0	0	
11	0	0	0	0	554	834	0	0	0	0	
12	0	0	0	0	558	787	0	0	0	0	
13	0	0	0	0	560	732	0	0	0	0	
14	0	0	0	0	564	678	0	0	0	0	
15	0	0	0	0	567	637	0	0	0	0	
0	0	0	0	0	568	614	0	0	0	0	
1	0	0	0	0	568	614	0	0	0	0	
2	0	0	0	0	568	638	0	0	0	0	
3	0	0	0	0	568	679	0	0	0	0	
4	0	0	0	0	568	718	0	0	0	0	
5	0	0	0	0	567	750	0	0	0	0	
6	0	0	0	0	566	773	0	0	0	0	
7	0	0	0	0	566	790	0	0	0	0	
8	0	0	0	0	567	802	0	0	0	0	
9	0	0	0	0	567	813	0	0	0	0	
10	0	0	0	0	568	824	0	0	0	0	
11	0	0	0	0	568	838	0	0	0	0	
12	0	0	0	0	569	855	0	0	0	0	
13	0	0	0	0	571	871	0	0	0	0	
14	0	0	0	0	572	868	0	0	0	0	
15	0	0	0	0	574	838	0	0	0	0	
0	0	0	0	0	574	790	0	0	0	0	
1	0	0	0	0	575	735	0	0	0	0	
2	0	0	0	0	575	683	0	0	0	0	
3	0	0	0	0	574	643	0	0	0	0	
4	0	0	0	0	573	621	0	0	0	0	
5	0	0	0	0	572	623	0	0	0	0	
6	0	0	0	0	570	648	0	0	0	0	
7	0	0	0	0	569	689	0	0	0	0	
8	0	0	0	0	568	728	0	0	0	0	
9	0	0	0	0	568	760	0	0	0	0	
10	0	0	0	0	568	785	0	0	0	0	
11	0	0	0	0	568	802	0	0	0	0	
12	0	0	0	0	571	815	0	0	0	0	
13	0	0	0	0	572	825	0	0	0	0	
14	0	0	0	0	575	836	0	0	0	0	
15	0	0	0	0	577	849	0	0	0	0	
0	0	0	0	0	580	863	0	0	0	0	
1	0	0	0	0	583	879	0	0	0	0	
2	0	0	0	0	585	873	0	0	0	0	
3	0	0	0	0	587	842	0	0	0	0	
4	0	0	0	0	588	792	0	0	0	0	
5	0	0	0	0	590	735	0	0	0	0	
6	0	0	0	0	589	681	0	0	0	0	
7	0	0	0	0	588	639	0	0	0	0	
8	0	0	0	0	586	616	0	0	0	0	
9	0	0	0	0	583	616	0	0	0	0	
10	0	0	0	0	579	638	0	0	0	0	
11	0	0	0	0	576	677	0	0	0	0	
12	0	0	0	0	571	713	0	0	0	0	
13	0	0	0	0	567	740	0	0	0	0	
14	0	0	0	0	563	760	0	0	0	0	
15	0	0	0	0	560	772	0	0	0	0	
0	0	0	0	0	558	780	0	0	0	0	
1	0	0	0	0	556	786	0	0	0	0	
2	0	0	0	0	556	794	0	0	0	0	
3	0	0	0	0	557	804	0	0	0	0	
4	0	0	0	0	559	818	0	0	0	0	
5	0	0	0	0	560	834	0	0	0	0	
6	0	0	0	0	563	831	0	0	0	0	
7	0	0	0	0	566	804	0	0	0	0	
8	0	0	0	0	568	761	0	0	0	0	
9	0	0	0	0	569	711	0	0	0	0	
10	0	0	0	0	571	665	0	0	0	0	
11	0	0	0	0	572	630	0	0	0	0	
12	0	0	0	0	572	614	0	0	0	0	
13	0	0	0	0	572	618	0	0	0	0	
14	0	0	0	0	570	644	0	0	0	0	
15	0	0	0	0	569	684	0	0	0	0	
0	0	0	0	0	568	721	0	0	0	0	
1	0	0	0	0	568	748	0	0	0	0	
2	0	0	0	0	567	765	0	0	0	0	
3	0	0	0	0	565	774	0	0	0	0	
4	0	0	0	0	565	777	0	0	0	0	
5	0	0	0	0	563	779	0	0	0	0	
6	0	0	0	0	562	780	0	0	0	0	
7	0	0	0	0	560	784	0	0	0	0	
8	0	0	0	0	557	793	0	0	0	0	
9	0	0	0	0	554	800	0	0	0	0	
10	0	0	0	0	550	791	0	0	0	0	
11	0	0	0	0	544	757	0	0	0	0	
12	0	0	0	0	539	707	0	0	0	0	
13	0	0	0	0	531	651	0	0	0	0	
14	0	0	0	0	523	597	0	0	0	0	
15	0	0	0	0	513	556	0	0	0	0	
0	0	0	0	0	502	532	0	0	0	0	
1	0	0	0	0	491	527	0	0	0	0	
2	0	0	0	0	479	544	0	0	0	0	
3	0	0	0	0	466	575	0	0	0	0	
4	0	0	0	0	453	603	0	0	0	0	
5	0	0	0	0	440	622	0	0	0	0	
6	0	0	0	0	427	632	0	0	0	0	
7	0	0	0	0	413	634	0	0	0	0	
8	0	0	0	0	401	631	0	0	0	0	
9	0	0	0	0	389	626	0	0	0	0	
10	0	0	0	0	377	620	0	0	0	0	
11	0	0	0	0	366	617	0	0	0	0	
12	0	0	0	0	358	618	0	0	0	0	
13	0	0	0	0	351	621	0	0	0	0	
14	0	0	0	0	347	607	0	0	0	0	
15	0	0	0	0	347	572	0	0	0	0	
0	0	0	0	0	350	525	0	0	0	0	
1	0	0	0	0	356	477	0	0	0	0	
2	0	0	0	0	367	436	0	0	0	0	
3	0	0	0	0	381	412	0	0	0	0	
4	0	0	0	0	398	409	0	0	0	0	
5	0	0	0	0	418	430	0	0	0	0	
6	0	0	0	0	439	475	0	0	0	0	
7	0	0	0	0	461	536	0	0	0	0	
8	0	0	0	0	483	595	0	0	0	0	
9	0	0	0	0	505	643	0	0	0	0	
10	0	0	0	0	524	682	0	0	0	0	
11	0	0	0	0	543	712	0	0	0	0	
12	0	0	0	0	559	735	0	0	0	0	
13	0	0	0	0	573	753	0	0	0	0	
14	0	0	0	0	583	770	0	0	0	0	
15	0	0	0	0	591	786	0	0	0	0	
0	0	0	0	0	595	807	0	0	0	0	
1	0	0	0	0	599	824	0	0	0	0	
2	0	0	0	0	600	821	0	0	0	0	
3	0	0	0	0	600	792	0	0	0	0	
4	0	0	0	0	600	745	0	0	0	0	
5	0	0	0	0	597	690	0	0	0	0	
6	0	0	0	0	595	638	0	0	0	0	
7	0	0	0	0	592	598	0	0	0	0	
8	0	0	0	0	590	577	0	0	0	0	
9	0	0	0	0	587	577	0	0	0	0	
10	0	0	0	0	584	601	0	0	0	0	
11	0	0	0	0	582	641	0	0	0	0	
12	0	0	0	0	580	678	0	0	0	0	
13	0	0	0	0	579	706	0	0	0	0	
14	0	0	0	0	579	726	0	0	0	0	
15	0	0	0	0	579	737	0	0	0	0	
0	0	0	0	0	579	743	0	0	0	0	
1	0	0	0	0	580	748	0	0	0	0	
2	0	0	0	0	581	753	0	0	0	0	
3	0	0	0	0	583	761	0	0	0	0	
4	0	0	0	0	583	774	0	0	0	0	
5	0	0	0	0	585	787	0	0	0	0	
6	0	0	0	0	585	783	0	0	0	0	
7	0	0	0	0	586	754	0	0	0	0	
8	0	0	0	0	586	709	0	0	0	0	
9	0	0	0	0	587	659	0	0	0	0	
10	0	0	0	0	587	611	0	0	0	0	
11	0	0	0	0	587	577	0	0	0	0	
12	0	0	0	0	587	561	0	0	0	0	
13	0	0	0	0	587	568	0	0	0	0	
14	0	0	0	0	587	595	0	0	0	0	
15	0	0	0	0	586	639	0	0	0	0	
0	0	0	0	0	586	679	0	0	0	0	
1	0	0	0	0	587	710	0	0	0	0	
2	0	0	0	0	587	731	0	0	0	0	
3	0	0	0	0	588	745	0	0	0	0	
4	0	0	0	0	590	752	0	0	0	0	
5	0	0	0	0	591	758	0	0	0	0	
6	0	0	0	0	593	763	0	0	0	0	
7	0	0	0	0	595	771	0	0	0	0	
8	0	0	0	0	596	783	0	0	0	0	
9	0	0	0	0	599	795	0	0	0	0	
10	0	0	0	0	601	789	0	0	0	0	
11	0	0	0	0	602	758	0	0	0	0	
12	0	0	0	0	601	708	0	0	0	0	
13	0	0	0	0	601	652	0	0	0	0	
14	0	0	0	0	600	599	0	0	0	0	
15	0	0	0	0	598	559	0	0	0	0	
0	0	0	0	0	595	537	0	0	0	0	
1	0	0	0	0	593	539	0	0	0	0	
2	0	0	0	0	589	564	0	0	0	0	
3	0	0	0	0	587	606	0	0	0	0	
4	0	0	0	0	584	645	0	0	0	0	
5	0	0	0	0	583	674	0	0	0	0	
6	0	0	0	0	581	694	0	0	0	0	
7	0	0	0	0	580	705	0	0	0	0	
8	0	0	0	0	580	711	0	0	0	0	
9	0	0	0	0	581	716	0	0	0	0	
10	0	0	0	0	582	721	0	0	0	0	
11	0	0	0	0	583	730	0	0	0	0	
12	0	0	0	0	585	743	0	0	0	0	
13	0	0	0	0	588	758	0	0	0	0	
14	0	0	0	0	590	756	0	0	0	0	
15	0	0	0	0	593	728	0	0	0	0	
0	0	0	0	0	594	684	0	0	0	0	
1	0	0	0	0	596	634	0	0	0	0	
2	0	0	0	0	598	587	0	0	0	0	
3	0	0	0	0	600	551	0	0	0	0	
4	0	0	0	0	600	536	0	0	0	0	
5	0	0	0	0	601	542	0	0	0	0	
6	0	0	0	0	601	570	0	0	0	0	
7	0	0	0	0	601	614	0	0	0	0	
8	0	0	0	0	601	654	0	0	0	0	
9	0	0	0	0	602	682	0	0	0	0	
10	0	0	0	0	604	700	0	0	0	0	
11	0	0	0	0	604	708	0	0	0	0	
12	0	0	0	0	606	710	0	0	0	0	
13	0	0	0	0	607	711	0	0	0	0	
14	0	0	0	0	607	711	0	0	0	0	
15	0	0	0	0	605	716	0	0	0	0	
0	0	0	0	0	603	723	0	0	0	0	
1	0	0	0	0	599	734	0	0	0	0	
2	0	0	0	0	595	727	0	0	0	0	
3	0	0	0	0	590	694	0	0	0	0	
4	0	0	0	0	584	643	0	0	0	0	
5	0	0	0	0	580	587	0	0	0	0	
6	0	0	0	0	576	536	0	0	0	0	
7	0	0	0	0	573	497	0	0	0	0	
8	0	0	0	0	571	479	0	0	0	0	
9	0	0	0	0	569	484	0	0	0	0	
10	0	0	0	0	568	513	0	0	0	0	
11	0	0	0	0	568	559	0	0	0	0	
12	0	0	0	0	568	600	0	0	0	0	
13	0	0	0	0	569	632	0	0	0	0	
14	0	0	0	0	571	653	0	0	0	0	
15	0	0	0	0	573	664	0	0	0	0	
0	0	0	0	0	575	670	0	0	0	0	
1	0	0	0	0	577	673	0	0	0	0	
2	0	0	0	0	579	677	0	0	0	0	
3	0	0	0	0	580	684	0	0	0	0	
4	0	0	0	0	582	696	0	0	0	0	
5	0	0	0	0	583	711	0	0	0	0	
6	0	0	0	0	583	708	0	0	0	0	
7	0	0	0	0	583	679	0	0	0	0	
8	0	0	0	0	583	632	0	0	0	0	
9	0	0	0	0	583	577	0	0	0	0	
10	0	0	0	0	583	526	0	0	0	0	
11	0	0	0	0	583	488	0	0	0	0	
12	0	0	0	0	583	469	0	0	0	0	
13	0	0	0	0	582	474	0	0	0	0	
14	0	0	0	0	580	503	0	0	0	0	
15	0	0	0	0	580	548	0	0	0	0	
0	0	0	0	0	578	591	0	0	0	0	
1	0	0	0	0	576	624	0	0	0	0	
2	0	0	0	0	574	647	0	0	0	0	
3	0	0	0	0	573	663	0	0	0	0	
4	0	0	0	0	572	672	0	0	0	0	
5	0	0	0	0	571	678	0	0	0	0	
6	0	0	0	0	569	685	0	0	0	0	
7	0	0	0	0	568	694	0	0	0	0	
8	0	0	0	0	568	706	0	0	0	0	
9	0	0	0	0	569	721	0	0	0	0	
10	0	0	0	0	570	716	0	0	0	0	
11	0	0	0	0	572	686	0	0	0	0	
12	0	0	0	0	575	637	0	0	0	0	
13	0	0	0	0	578	580	0	0	0	0	
14	0	0	0	0	582	527	0	0	0	0	
15	0	0	0	0	585	487	0	0	0	0	
0	0	0	0	0	588	466	0	0	0	0	
1	0	0	0	0	590	469	0	0	0	0	
2	0	0	0	0	591	496	0	0	0	0	
3	0	0	0	0	591	540	0	0	0	0	
4	0	0	0	0	591	583	0	0	0	0	
5	0	0	0	0	589	614	0	0	0	0	
6	0	0	0	0	586	637	0	0	0	0	
7	0	0	0	0	584	651	0	0	0	0	
8	0	0	0	0	582	659	0	0	0	0	
9	0	0	0	0	580	665	0	0	0	0	
10	0	0	0	0	578	672	0	0	0	0	
11	0	0	0	0	576	682	0	0	0	0	
12	0	0	0	0	575	695	0	0	0	0	
13	0	0	0	0	575	710	0	0	0	0	
14	0	0	0	0	574	707	0	0	0	0	
15	0	0	0	0	574	679	0	0	0	0	
0	0	0	0	0	573	632	0	0	0	0	
1	0	0	0	0	574	578	0	0	0	0	
2	0	0	0	0	573	528	0	0	0	0	
3	0	0	0	0	572	490	0	0	0	0	
4	0	0	0	0	572	471	0	0	0	0	
5	0	0	0	0	571	475	0	0	0	0	
6	0	0	0	0	572	501	0	0	0	0	
7	0	0	0	0	571	544	0	0	0	0	
8	0	0	0	0	570	584	0	0	0	0	
9	0	0	0	0	570	615	0	0	0	0	
10	0	0	0	0	569	633	0	0	0	0	
11	0	0	0	0	570	644	0	0	0	0	
12	0	0	0	0	571	649	0	0	0	0	
13	0	0	0	0	571	653	0	0	0	0	
14	0	0	0	0	572	657	0	0	0	0	
15	0	0	0	0	573	666	0	0	0	0	
0	0	0	0	0	575	679	0	0	0	0	
1	0	0	0	0	576	696	0	0	0	0	
2	0	0	0	0	578	696	0	0	0	0	
3	0	0	0	0	580	671	0	0	0	0	
4	0	0	0	0	581	629	0	0	0	0	
5	0	0	0	0	583	579	0	0	0	0	
6	0	0	0	0	583	534	0	0	0	0	
7	0	0	0	0	583	499	0	0	0	0	
8	0	0	0	0	583	483	0	0	0	0	
9	0	0	0	0	581	488	0	0	0	0	
10	0	0	0	0	579	515	0	0	0	0	
11	0	0	0	0	577	557	0	0	0	0	
12	0	0	0	0	574	596	0	0	0	0	
13	0	0	0	0	572	624	0	0	0	0	
14	0	0	0	0	568	641	0	0	0	0	
15	0	0	0	0	567	651	0	0	0	0	
0	0	0	0	0	566	655	0	0	0	0	
1	0	0	0	0	566	657	0	0	0	0	
2	0	0	0	0	567	660	0	0	0	0	
3	0	0	0	0	567	667	0	0	0	0	
4	0	0	0	0	570	678	0	0	0	0	
5	0	0	0	0	572	692	0	0	0	0	
6	0	0	0	0	575	690	0	0	0	0	
7	0	0	0	0	577	662	0	0	0	0	
8	0	0	0	0	579	615	0	0	0	0	
9	0	0	0	0	580	561	0	0	0	0	
10	0	0	0	0	581	511	0	0	0	0	
11	0	0	0	0	580	472	0	0	0	0	
12	0	0	0	0	579	453	0	0	0	0	
13	0	0	0	0	578	456	0	0	0	0	
14	0	0	0	0	576	483	0	0	0	0	
15	0	0	0	0	575	527	0	0	0	0	
0	0	0	0	0	574	568	0	0	0	0	
1	0	0	0	0	572	600	0	0	0	0	
2	0	0	0	0	572	622	0	0	0	0	
3	0	0	0	0	572	636	0	0	0	0	
4	0	0	0	0	572	644	0	0	0	0	
5	0	0	0	0	573	650	0	0	0	0	
6	0	0	0	0	574	656	0	0	0	0	
7	0	0	0	0	575	666	0	0	0	0	
8	0	0	0	0	576	679	0	0	0	0	
9	0	0	0	0	578	694	0	0	0	0	
10	0	0	0	0	579	691	0	0	0	0	
11	0	0	0	0	580	661	0	0	0	0	
12	0	0	0	0	580	611	0	0	0	0	
13	0	0	0	0	580	554	0	0	0	0	
14	0	0	0	0	581	499	0	0	0	0	
15	0	0	0	0	580	457	0	0	0	0	
0	0	0	0	0	580	434	0	0	0	0	
1	0	0	0	0	579	435	0	0	0	0	
2	0	0	0	0	579	462	0	0	0	0	
3	0	0	0	0	578	505	0	0	0	0	
4	0	0	0	0	578	547	0	0	0	0	
5	0	0	0	0	578	580	0	0	0	0	
6	0	0	0	0	579	602	0	0	0	0	
7	0	0	0	0	579	615	0	0	0	0	
8	0	0	0	0	581	623	0	0	0	0	
9	0	0	0	0	581	628	0	0	0	0	
10	0	0	0	0	582	635	0	0	0	0	
11	0	0	0	0	583	644	0	0	0	0	
12	0	0	0	0	582	659	0	0	0	0	
13	0	0	0	0	583	675	0	0	0	0	
14	0	0	0	0	583	675	0	0	0	0	
15	0	0	0	0	583	649	0	0	0	0	
0	0	0	0	0	583	604	0	0	0	0	
1	0	0	0	0	582	551	0	0	0	0	
2	0	0	0	0	582	502	0	0	0	0	
3	0	0	0	0	580	465	0	0	0	0	
4	0	0	0	0	579	446	0	0	0	0	
5	0	0	0	0	577	449	0	0	0	0	
6	0	0	0	0	576	476	0	0	0	0	
7	0	0	0	0	576	519	0	0	0	0	
8	0	0	0	0	575	559	0	0	0	0	
9	0	0	0	0	575	588	0	0	0	0	
10	0	0	0	0	577	604	0	0	0	0	
11	0	0	0	0	578	611	0	0	0	0	
12	0	0	0	0	580	612	0	0	0	0	
13	0	0	0	0	583	612	0	0	0	0	
14	0	0	0	0	585	614	0	0	0	0	
15	0	0	0	0	587	620	0	0	0	0	
0	0	0	0	0	589	633	0	0	0	0	
1	0	0	0	0	591	648	0	0	0	0	
2	0	0	0	0	591	647	0	0	0	0	
3	0	0	0	0	591	619	0	0	0	0	
4	0	0	0	0	590	571	0	0	0	0	
5	0	0	0	0	588	513	0	0	0	0	
6	0	0	0	0	585	459	0	0	0	0	
7	0	0	0	0	581	416	0	0	0	0	
8	0	0	0	0	576	394	0	0	0	0	
9	0	0	0	0	571	395	0	0	0	0	
10	0	0	0	0	565	420	0	0	0	0	
11	0	0	0	0	561	463	0	0	0	0	
12	0	0	0	0	558	504	0	0	0	0	
13	0	0	0	0	555	532	0	0	0	0	
14	0	0	0	0	553	549	0	0	0	0	
15	0	0	0	0	554	556	0	0	0	0	
0	0	0	0	0	555	558	0	0	0	0	
1	0	0	0	0	558	558	0	0	0	0	
2	0	0	0	0	561	562	0	0	0	0	
3	0	0	0	0	564	571	0	0	0	0	
4	0	0	0	0	569	588	0	0	0	0	
5	0	0	0	0	573	608	0	0	0	0	
6	0	0	0	0	577	608	0	0	0	0	
7	0	0	0	0	581	573	0	0	0	0	
8	0	0	0	0	583	510	0	0	0	0	
9	0	0	0	0	585	433	0	0	0	0	
10	0	0	0	0	587	356	0	0	0	0	
11	0	0	0	0	587	293	0	0	0	0	
12	0	0	0	0	585	253	0	0	0	0	
13	0	0	0	0	583	241	0	0	0	0	
14	0	0	0	0	580	261	0	0	0	0	
15	0	0	0	0	577	306	0	0	0	0	
0	0	0	0	0	574	349	0	0	0	0	
1	0	0	0	0	571	378	0	0	0	0	
2	0	0	0	0	568	392	0	0	0	0	
3	0	0	0	0	566	395	0	0	0	0	
4	0	0	0	0	566	391	0	0	0	0	
5	0	0	0	0	565	389	0	0	0	0	
6	0	0	0	0	564	392	0	0	0	0	
7	0	0	0	0	564	404	0	0	0	0	
8	0	0	0	0	564	429	0	0	0	0	
9	0	0	0	0	565	460	0	0	0	0	
10	0	0	0	0	566	463	0	0	0	0	
11	0	0	0	0	568	415	0	0	0	0	
12	0	0	0	0	569	322	0	0	0	0	
13	0	0	0	0	570	205	0	0	0	0	
14	0	0	0	0	572	85	0	0	0	0	
15	0	0	0	0	573	0	0	0	0	0	
0	0	0	0	0	574	0	0	0	0	0	
1	0	0	0	0	575	0	0	0	0	0	
2	0	0	0	0	575	0	0	0	0	0	
3	0	0	0	0	575	6	0	0	0	0	
4	0	0	0	0	574	38	0	0	0	0	
5	0	0	0	0	573	66	0	0	0	0	
6	0	0	0	0	572	88	0	0	0	0	
7	0	0	0	0	571	106	0	0	0	0	
8	0	0	0	0	570	127	0	0	0	0	
9	0	0	0	0	569	156	0	0	0	0	
10	0	0	0	0	568	195	0	0	0	0	
11	0	0	0	0	568	247	0	0	0	0	
12	0	0	0	0	567	313	0	0	0	0	
13	0	0	0	0	568	386	0	0	0	0	
14	0	0	0	0	568	428	0	0	0	0	
15	0	0	0	0	569	411	0	0	0	0	
0	0	0	0	0	569	340	0	0	0	0	
1	0	0	0	0	571	234	0	0	0	0	
2	0	0	0	0	571	115	0	0	0	0	
3	0	0	0	0	571	5	0	0	0	0	
4	0	0	0	0	570	0	0	0	0	0	
5	0	0	0	0	569	0	0	0	0	0	
6	0	0	0	0	567	0	0	0	0	0	
7	0	0	0	0	565	0	0	0	0	0	
8	0	0	0	0	562	22	0	0	0	0	
9	0	0	0	0	560	44	0	0	0	0	
10	0	0	0	0	557	63	0	0	0	0	
11	0	0	0	0	553	81	0	0	0	0	
12	0	0	0	0	552	104	0	0	0	0	
13	0	0	0	0	550	136	0	0	0	0	
14	0	0	0	0	549	181	0	0	0	0	
15	0	0	0	0	548	239	0	0	0	0	
0	0	0	0	0	548	312	0	0	0	0	
1	0	0	0	0	549	391	0	0	0	0	
2	0	0	0	0	551	442	0	0	0	0	
3	0	0	0	0	552	435	0	0	0	0	
4	0	0	0	0	555	376	0	0	0	0	
5	0	0	0	0	556	282	0	0	0	0	
6	0	0	0	0	559	176	0	0	0	0	
7	0	0	0	0	561	76	0	0	0	0	
8	0	0	0	0	563	0	0	0	0	0	
9	0	0	0	0	564	0	0	0	0	0	
10	0	0	0	0	566	0	0	0	0	0	
11	0	0	0	0	567	25	0	0	0	0	
12	0	0	0	0	567	70	0	0	0	0	
13	0	0	0	0	568	111	0	0	0	0	
14	0	0	0	0	568	146	0	0	0	0	
15	0	0	0	0	569	178	0	0	0	0	
0	0	0	0	0	569	209	0	0	0	0	
1	0	0	0	0	569	246	0	0	0	0	
2	0	0	0	0	570	291	0	0	0	0	
3	0	0	0	0	570	344	0	0	0	0	
4	0	0	0	0	570	409	0	0	0	0	
5	0	0	0	0	569	478	0	0	0	0	
6	0	0	0	0	568	520	0	0	0	0	
7	0	0	0	0	566	515	0	0	0	0	
8	0	0	0	0	563	468	0	0	0	0	
9	0	0	0	0	560	395	0	0	0	0	
10	0	0	0	0	557	312	0	0	0	0	
11	0	0	0	0	554	237	0	0	0	0	
12	0	0	0	0	551	183	0	0	0	0	
13	0	0	0	0	548	159	0	0	0	0	
14	0	0	0	0	547	170	0	0	0	0	
15	0	0	0	0	546	212	0	0	0	0	
0	0	0	0	0	545	262	0	0	0	0	
1	0	0	0	0	546	310	0	0	0	0	
2	0	0	0	0	548	351	0	0	0	0	
3	0	0	0	0	550	388	0	0	0	0	
4	0	0	0	0	552	423	0	0	0	0	
5	0	0	0	0	555	457	0	0	0	0	
6	0	0	0	0	558	496	0	0	0	0	
7	0	0	0	0	561	537	0	0	0	0	
8	0	0	0	0	563	584	0	0	0	0	
9	0	0	0	0	566	632	0	0	0	0	
10	0	0	0	0	567	658	0	0	0	0	
11	0	0	0	0	568	648	0	0	0	0	
12	0	0	0	0	568	608	0	0	0	0	
13	0	0	0	0	567	551	0	0	0	0	
14	0	0	0	0	566	488	0	0	0	0	
15	0	0	0	0	564	435	0	0	0	0	
0	0	0	0	0	562	399	0	0	0	0	
1	0	0	0	0	560	388	0	0	0	0	
2	0	0	0	0	557	404	0	0	0	0	
3	0	0	0	0	556	443	0	0	0	0	
4	0	0	0	0	554	485	0	0	0	0	
5	0	0	0	0	553	520	0	0	0	0	
6	0	0	0	0	552	548	0	0	0	0	
7	0	0	0	0	553	570	0	0	0	0	
8	0	0	0	0	555	588	0	0	0	0	
9	0	0	0	0	557	606	0	0	0	0	
10	0	0	0	0	560	625	0	0	0	0	
11	0	0	0	0	562	648	0	0	0	0	
12	0	0	0	0	564	676	0	0	0	0	
13	0	0	0	0	567	705	0	0	0	0	
14	0	0	0	0	569	717	0	0	0	0	
15	0	0	0	0	571	700	0	0	0	0	
0	0	0	0	0	572	660	0	0	0	0	
1	0	0	0	0	572	609	0	0	0	0	
2	0	0	0	0	573	557	0	0	0	0	
3	0	0	0	0	572	515	0	0	0	0	
4	0	0	0	0	571	490	0	0	0	0	
5	0	0	0	0	569	487	0	0	0	0	
6	0	0	0	0	566	508	0	0	0	0	
7	0	0	0	0	564	547	0	0	0	0	
8	0	0	0	0	561	586	0	0	0	0	
9	0	0	0	0	558	616	0	0	0	0	
10	0	0	0	0	556	638	0	0	0	0	
11	0	0	0	0	555	652	0	0	0	0	
12	0	0	0	0	555	662	0	0	0	0	
13	0	0	0	0	554	670	0	0	0	0	
14	0	0	0	0	555	679	0	0	0	0	
15	0	0	0	0	556	692	0	0	0	0	
0	0	0	0	0	556	709	0	0	0	0	
1	0	0	0	0	558	728	0	0	0	0	
2	0	0	0	0	560	732	0	0	0	0	
3	0	0	0	0	561	710	0	0	0	0	
4	0	0	0	0	563	668	0	0	0	0	
5	0	0	0	0	564	617	0	0	0	0	
6	0	0	0	0	566	568	0	0	0	0	
7	0	0	0	0	567	529	0	0	0	0	
8	0	0	0	0	568	508	0	0	0	0	
9	0	0	0	0	568	509	0	0	0	0	
10	0	0	0	0	568	532	0	0	0	0	
11	0	0	0	0	567	574	0	0	0	0	
12	0	0	0	0	566	614	0	0	0	0	
13	0	0	0	0	565	647	0	0	0	0	
14	0	0	0	0	563	670	0	0	0	0	
15	0	0	0	0	563	686	0	0	0	0	
0	0	0	0	0	562	697	0	0	0	0	
1	0	0	0	0	561	704	0	0	0	0	
2	0	0	0	0	561	713	0	0	0	0	
3	0	0	0	0	560	723	0	0	0	0	
4	0	0	0	0	559	736	0	0	0	0	
5	0	0	0	0	560	751	0	0	0	0	
6	0	0	0	0	560	751	0	0	0	0	
7	0	0	0	0	561	727	0	0	0	0	
8	0	0	0	0	561	686	0	0	0	0	
9	0	0	0	0	561	636	0	0	0	0	
10	0	0	0	0	561	589	0	0	0	0	
11	0	0	0	0	560	553	0	0	0	0	
12	0	0	0	0	560	534	0	0	0	0	
13	0	0	0	0	559	536	0	0	0	0	
14	0	0	0	0	558	558	0	0	0	0	
15	0	0	0	0	558	598	0	0	0	0	
0	0	0	0	0	557	636	0	0	0	0	
1	0	0	0	0	557	667	0	0	0	0	
2	0	0	0	0	557	688	0	0	0	0	
3	0	0	0	0	557	703	0	0	0	0	
4	0	0	0	0	559	711	0	0	0	0	
5	0	0	0	0	559	717	0	0	0	0	
6	0	0	0	0	561	723	0	0	0	0	
7	0	0	0	0	562	731	0	0	0	0	
8	0	0	0	0	563	742	0	0	0	0	
9	0	0	0	0	565	755	0	0	0	0	
10	0	0	0	0	567	755	0	0	0	0	
11	0	0	0	0	568	731	0	0	0	0	
12	0	0	0	0	568	691	0	0	0	0	
13	0	0	0	0	567	643	0	0	0	0	
14	0	0	0	0	566	599	0	0	0	0	
15	0	0	0	0	564	565	0	0	0	0	
0	0	0	0	0	562	548	0	0	0	0	
1	0	0	0	0	559	551	0	0	0	0	
2	0	0	0	0	556	574	0	0	0	0	
3	0	0	0	0	554	612	0	0	0	0	
4	0	0	0	0	551	650	0	0	0	0	
5	0	0	0	0	549	678	0	0	0	0	
6	0	0	0	0	547	698	0	0	0	0	
7	0	0	0	0	547	709	0	0	0	0	
8	0	0	0	0	548	716	0	0	0	0	
9	0	0	0	0	549	719	0	0	0	0	
10	0	0	0	0	551	722	0	0	0	0	
11	0	0	0	0	552	727	0	0	0	0	
12	0	0	0	0	555	736	0	0	0	0	
13	0	0	0	0	557	747	0	0	0	0	
14	0	0	0	0	559	745	0	0	0	0	
15	0	0	0	0	561	721	0	0	0	0	
0	0	0	0	0	562	681	0	0	0	0	
1	0	0	0	0	564	636	0	0	0	0	
2	0	0	0	0	564	595	0	0	0	0	
3	0	0	0	0	564	564	0	0	0	0	
4	0	0	0	0	564	550	0	0	0	0	
5	0	0	0	0	563	555	0	0	0	0	
6	0	0	0	0	562	580	0	0	0	0	
7	0	0	0	0	561	620	0	0	0	0	
8	0	0	0	0	559	656	0	0	0	0	
9	0	0	0	0	557	683	0	0	0	0	
10	0	0	0	0	556	699	0	0	0	0	
11	0	0	0	0	553	706	0	0	0	0	
12	0	0	0	0	552	707	0	0	0	0	
13	0	0	0	0	551	704	0	0	0	0	
14	0	0	0	0	549	702	0	0	0	0	
15	0	0	0	0	548	702	0	0	0	0	
0	0	0	0	0	547	706	0	0	0	0	
1	0	0	0	0	547	714	0	0	0	0	
2	0	0	0	0	547	710	0	0	0	0	
3	0	0	0	0	547	686	0	0	0	0	
4	0	0	0	0	547	649	0	0	0	0	
5	0	0	0	0	548	608	0	0	0	0	
6	0	0	0	0	551	571	0	0	0	0	
7	0	0	0	0	551	545	0	0	0	0	
8	0	0	0	0	552	536	0	0	0	0	
9	0	0	0	0	552	545	0	0	0	0	
10	0	0	0	0	552	574	0	0	0	0	
11	0	0	0	0	552	615	0	0	0	0	
12	0	0	0	0	552	653	0	0	0	0	
13	0	0	0	0	551	680	0	0	0	0	
14	0	0	0	0	550	696	0	0	0	0	
15	0	0	0	0	548	703	0	0	0	0	
0	0	0	0	0	548	703	0	0	0	0	
1	0	0	0	0	548	700	0	0	0	0	
2	0	0	0	0	548	698	0	0	0	0	
3	0	0	0	0	548	699	0	0	0	0	
4	0	0	0	0	549	704	0	0	0	0	
5	0	0	0	0	551	712	0	0	0	0	
6	0	0	0	0	553	711	0	0	0	0	
7	0	0	0	0	556	688	0	0	0	0	
8	0	0	0	0	558	652	0	0	0	0	
9	0	0	0	0	559	612	0	0	0	0	
10	0	0	0	0	561	577	0	0	0	0	
11	0	0	0	0	561	552	0	0	0	0	
12	0	0	0	0	561	543	0	0	0	0	
13	0	0	0	0	560	551	0	0	0	0	
14	0	0	0	0	558	579	0	0	0	0	
15	0	0	0	0	555	619	0	0	0	0	
0	0	0	0	0	552	655	0	0	0	0	
1	0	0	0	0	549	682	0	0	0	0	
2	0	0	0	0	546	698	0	0	0	0	
3	0	0	0	0	544	705	0	0	0	0	
4	0	0	0	0	543	707	0	0	0	0	
5	0	0	0	0	542	704	0	0	0	0	
6	0	0	0	0	542	702	0	0	0	0	
7	0	0	0	0	542	701	0	0	0	0	
8	0	0	0	0	544	704	0	0	0	0	
9	0	0	0	0	545	711	0	0	0	0	
10	0	0	0	0	548	706	0	0	0	0	
11	0	0	0	0	551	679	0	0	0	0	
12	0	0	0	0	552	638	0	0	0	0	
13	0	0	0	0	556	592	0	0	0	0	
14	0	0	0	0	557	551	0	0	0	0	
15	0	0	0	0	559	522	0	0	0	0	
0	0	0	0	0	560	510	0	0	0	0	
1	0	0	0	0	560	518	0	0	0	0	
2	0	0	0	0	562	546	0	0	0	0	
3	0	0	0	0	562	590	0	0	0	0	
4	0	0	0	0	562	630	0	0	0	0	
5	0	0	0	0	562	662	0	0	0	0	
6	0	0	0	0	562	682	0	0	0	0	
7	0	0	0	0	562	693	0	0	0	0	
8	0	0	0	0	563	697	0	0	0	0	
9	0	0	0	0	563	698	0	0	0	0	
10	0	0	0	0	562	698	0	0	0	0	
11	0	0	0	0	561	699	0	0	0	0	
12	0	0	0	0	561	704	0	0	0	0	
13	0	0	0	0	560	711	0	0	0	0	
14	0	0	0	0	559	706	0	0	0	0	
15	0	0	0	0	558	681	0	0	0	0	
0	0	0	0	0	556	641	0	0	0	0	
1	0	0	0	0	555	597	0	0	0	0	
2	0	0	0	0	553	558	0	0	0	0	
3	0	0	0	0	551	529	0	0	0	0	
4	0	0	0	0	548	517	0	0	0	0	
5	0	0	0	0	546	523	0	0	0	0	
6	0	0	0	0	545	549	0	0	0	0	
7	0	0	0	0	543	589	0	0	0	0	
8	0	0	0	0	543	625	0	0	0	0	
9	0	0	0	0	542	651	0	0	0	0	
10	0	0	0	0	541	665	0	0	0	0	
11	0	0	0	0	543	671	0	0	0	0	
12	0	0	0	0	544	671	0	0	0	0	
13	0	0	0	0	546	668	0	0	0	0	
14	0	0	0	0	547	664	0	0	0	0	
15	0	0	0	0	550	664	0	0	0	0	
0	0	0	0	0	551	668	0	0	0	0	
1	0	0	0	0	553	677	0	0	0	0	
2	0	0	0	0	555	675	0	0	0	0	
3	0	0	0	0	556	652	0	0	0	0	
4	0	0	0	0	556	615	0	0	0	0	
5	0	0	0	0	556	574	0	0	0	0	
6	0	0	0	0	557	537	0	0	0	0	
7	0	0	0	0	556	512	0	0	0	0	
8	0	0	0	0	556	504	0	0	0	0	
9	0	0	0	0	556	515	0	0	0	0	
10	0	0	0	0	555	545	0	0	0	0	
11	0	0	0	0	555	589	0	0	0	0	
12	0	0	0	0	553	629	0	0	0	0	
13	0	0	0	0	552	659	0	0	0	0	
14	0	0	0	0	552	677	0	0	0	0	
15	0	0	0	0	551	684	0	0	0	0	
0	0	0	0	0	550	685	0	0	0	0	
1	0	0	0	0	547	680	0	0	0	0	
2	0	0	0	0	545	675	0	0	0	0	
3	0	0	0	0	541	671	0	0	0	0	
4	0	0	0	0	537	670	0	0	0	0	
5	0	0	0	0	533	672	0	0	0	0	
6	0	0	0	0	527	662	0	0	0	0	
7	0	0	0	0	521	632	0	0	0	0	
8	0	0	0	0	515	587	0	0	0	0	
9	0	0	0	0	507	538	0	0	0	0	
10	0	0	0	0	499	494	0	0	0	0	
11	0	0	0	0	490	460	0	0	0	0	
12	0	0	0	0	481	443	0	0	0	0	
13	0	0	0	0	472	444	0	0	0	0	
14	0	0	0	0	463	463	0	0	0	0	
15	0	0	0	0	454	496	0	0	0	0	
0	0	0	0	0	444	527	0	0	0	0	
1	0	0	0	0	433	547	0	0	0	0	
2	0	0	0	0	422	557	0	0	0	0	
3	0	0	0	0	412	556	0	0	0	0	
4	0	0	0	0	399	548	0	0	0	0	
5	0	0	0	0	387	537	0	0	0	0	
6	0	0	0	0	374	524	0	0	0	0	
7	0	0	0	0	361	512	0	0	0	0	
8	0	0	0	0	351	504	0	0	0	0	
9	0	0	0	0	342	501	0	0	0	0	
10	0	0	0	0	337	487	0	0	0	0	
11	0	0	0	0	334	454	0	0	0	0	
12	0	0	0	0	335	410	0	0	0	0	
13	0	0	0	0	342	365	0	0	0	0	
14	0	0	0	0	352	328	0	0	0	0	
15	0	0	0	0	366	306	0	0	0	0	
0	0	0	0	0	382	304	0	0	0	0	
1	0	0	0	0	401	326	0	0	0	0	
2	0	0	0	0	422	370	0	0	0	0	
3	0	0	0	0	444	432	0	0	0	0	
4	0	0	0	0	465	493	0	0	0	0	
5	0	0	0	0	485	544	0	0	0	0	
6	0	0	0	0	504	584	0	0	0	0	
7	0	0	0	0	519	612	0	0	0	0	
8	0	0	0	0	534	632	0	0	0	0	
9	0	0	0	0	545	646	0	0	0	0	
10	0	0	0	0	553	657	0	0	0	0	
11	0	0	0	0	560	668	0	0	0	0	
12	0	0	0	0	563	679	0	0	0	0	
13	0	0	0	0	567	692	0	0	0	0	
14	0	0	0	0	567	692	0	0	0	0	
15	0	0	0	0	567	670	0	0	0	0	
0	0	0	0	0	566	632	0	0	0	0	
1	0	0	0	0	563	588	0	0	0	0	
2	0	0	0	0	561	547	0	0	0	0	
3	0	0	0	0	559	516	0	0	0	0	
4	0	0	0	0	556	502	0	0	0	0	
5	0	0	0	0	554	507	0	0	0	0	
6	0	0	0	0	551	531	0	0	0	0	
7	0	0	0	0	550	570	0	0	0	0	
8	0	0	0	0	549	608	0	0	0	0	
9	0	0	0	0	549	636	0	0	0	0	
10	0	0	0	0	550	655	0	0	0	0	
11	0	0	0	0	550	665	0	0	0	0	
12	0	0	0	0	552	669	0	0	0	0	
13	0	0	0	0	554	670	0	0	0	0	
14	0	0	0	0	556	671	0	0	0	0	
15	0	0	0	0	558	673	0	0	0	0	
0	0	0	0	0	559	679	0	0	0	0	
1	0	0	0	0	561	688	0	0	0	0	
2	0	0	0	0	563	686	0	0	0	0	
3	0	0	0	0	563	664	0	0	0	0	
4	0	0	0	0	563	628	0	0	0	0	
5	0	0	0	0	564	588	0	0	0	0	
6	0	0	0	0	563	552	0	0	0	0	
7	0	0	0	0	562	527	0	0	0	0	
8	0	0	0	0	561	518	0	0	0	0	
9	0	0	0	0	561	527	0	0	0	0	
10	0	0	0	0	560	556	0	0	0	0	
11	0	0	0	0	560	597	0	0	0	0	
12	0	0	0	0	559	637	0	0	0	0	
13	0	0	0	0	559	666	0	0	0	0	
14	0	0	0	0	560	684	0	0	0	0	
15	0	0	0	0	560	691	0	0	0	0	
0	0	0	0	0	561	693	0	0	0	0	
1	0	0	0	0	562	690	0	0	0	0	
2	0	0	0	0	564	688	0	0	0	0	
3	0	0	0	0	566	687	0	0	0	0	
4	0	0	0	0	566	691	0	0	0	0	
5	0	0	0	0	569	699	0	0	0	0	
6	0	0	0	0	571	697	0	0	0	0	
7	0	0	0	0	572	675	0	0	0	0	
8	0	0	0	0	572	640	0	0	0	0	
9	0	0	0	0	572	602	0	0	0	0	
10	0	0	0	0	573	568	0	0	0	0	
11	0	0	0	0	572	545	0	0	0	0	
12	0	0	0	0	571	537	0	0	0	0	
13	0	0	0	0	569	547	0	0	0	0	
14	0	0	0	0	567	575	0	0	0	0	
15	0	0	0	0	566	615	0	0	0	0	
0	0	0	0	0	563	654	0	0	0	0	
1	0	0	0	0	561	681	0	0	0	0	
2	0	0	0	0	559	698	0	0	0	0	
3	0	0	0	0	559	706	0	0	0	0	
4	0	0	0	0	558	707	0	0	0	0	
5	0	0	0	0	556	704	0	0	0	0	
6	0	0	0	0	556	701	0	0	0	0	
7	0	0	0	0	555	700	0	0	0	0	
8	0	0	0	0	555	703	0	0	0	0	
9	0	0	0	0	554	708	0	0	0	0	
10	0	0	0	0	555	704	0	0	0	0	
11	0	0	0	0	554	681	0	0	0	0	
12	0	0	0	0	554	646	0	0	0	0	
13	0	0	0	0	554	608	0	0	0	0	
14	0	0	0	0	555	575	0	0	0	0	
15	0	0	0	0	556	552	0	0	0	0	
0	0	0	0	0	556	546	0	0	0	0	
1	0	0	0	0	556	558	0	0	0	0	
2	0	0	0	0	558	587	0	0	0	0	
3	0	0	0	0	559	630	0	0	0	0	
4	0	0	0	0	560	670	0	0	0	0	
5	0	0	0	0	562	701	0	0	0	0	
6	0	0	0	0	563	720	0	0	0	0	
7	0	0	0	0	564	732	0	0	0	0	
8	0	0	0	0	566	735	0	0	0	0	
9	0	0	0	0	567	733	0	0	0	0	
10	0	0	0	0	567	731	0	0	0	0	
11	0	0	0	0	567	729	0	0	0	0	
12	0	0	0	0	566	730	0	0	0	0	
13	0	0	0	0	566	734	0	0	0	0	
14	0	0	0	0	565	728	0	0	0	0	
15	0	0	0	0	565	703	0	0	0	0	
0	0	0	0	0	564	666	0	0	0	0	
1	0	0	0	0	563	625	0	0	0	0	
2	0	0	0	0	563	588	0	0	0	0	
3	0	0	0	0	562	562	0	0	0	0	
4	0	0	0	0	561	552	0	0	0	0	
5	0	0	0	0	560	561	0	0	0	0	
6	0	0	0	0	559	587	0	0	0	0	
7	0	0	0	0	557	627	0	0	0	0	
8	0	0	0	0	555	665	0	0	0	0	
9	0	0	0	0	553	693	0	0	0	0	
10	0	0	0	0	551	709	0	0	0	0	
11	0	0	0	0	548	716	0	0	0	0	
12	0	0	0	0	548	716	0	0	0	0	
13	0	0	0	0	547	712	0	0	0	0	
14	0	0	0	0	547	708	0	0	0	0	
15	0	0	0	0	547	706	0	0	0	0	
0	0	0	0	0	548	707	0	0	0	0	
1	0	0	0	0	550	712	0	0	0	0	
2	0	0	0	0	552	709	0	0	0	0	
3	0	0	0	0	554	687	0	0	0	0	
4	0	0	0	0	556	653	0	0	0	0	
5	0	0	0	0	557	616	0	0	0	0	
6	0	0	0	0	559	584	0	0	0	0	
7	0	0	0	0	560	563	0	0	0	0	
8	0	0	0	0	560	556	0	0	0	0	
9	0	0	0	0	559	568	0	0	0	0	
10	0	0	0	0	558	596	0	0	0	0	
11	0	0	0	0	557	639	0	0	0	0	
12	0	0	0	0	555	678	0	0	0	0	
13	0	0	0	0	553	707	0	0	0	0	
14	0	0	0	0	551	725	0	0	0	0	
15	0	0	0	0	550	734	0	0	0	0	
0	0	0	0	0	550	735	0	0	0	0	
1	0	0	0	0	551	732	0	0	0	0	
2	0	0	0	0	551	728	0	0	0	0	
3	0	0	0	0	551	725	0	0	0	0	
4	0	0	0	0	553	726	0	0	0	0	
5	0	0	0	0	554	730	0	0	0	0	
6	0	0	0	0	555	724	0	0	0	0	
7	0	0	0	0	555	698	0	0	0	0	
8	0	0	0	0	555	659	0	0	0	0	
9	0	0	0	0	555	614	0	0	0	0	
10	0	0	0	0	553	575	0	0	0	0	
11	0	0	0	0	552	546	0	0	0	0	
12	0	0	0	0	550	534	0	0	0	0	
13	0	0	0	0	548	540	0	0	0	0	
14	0	0	0	0	546	565	0	0	0	0	
15	0	0	0	0	544	606	0	0	0	0	
0	0	0	0	0	542	646	0	0	0	0	
1	0	0	0	0	540	677	0	0	0	0	
2	0	0	0	0	539	698	0	0	0	0	
3	0	0	0	0	538	711	0	0	0	0	
4	0	0	0	0	539	716	0	0	0	0	
5	0	0	0	0	540	717	0	0	0	0	
6	0	0	0	0	541	718	0	0	0	0	
7	0	0	0	0	543	719	0	0	0	0	
8	0	0	0	0	545	721	0	0	0	0	
9	0	0	0	0	547	728	0	0	0	0	
10	0	0	0	0	550	724	0	0	0	0	
11	0	0	0	0	552	702	0	0	0	0	
12	0	0	0	0	554	668	0	0	0	0	
13	0	0	0	0	556	630	0	0	0	0	
14	0	0	0	0	557	596	0	0	0	0	
15	0	0	0	0	558	574	0	0	0	0	
0	0	0	0	0	559	567	0	0	0	0	
1	0	0	0	0	559	577	0	0	0	0	
2	0	0	0	0	558	605	0	0	0	0	
3	0	0	0	0	556	647	0	0	0	0	
4	0	0	0	0	554	686	0	0	0	0	
5	0	0	0	0	552	714	0	0	0	0	
6	0	0	0	0	549	731	0	0	0	0	
7	0	0	0	0	546	738	0	0	0	0	
8	0	0	0	0	545	738	0	0	0	0	
9	0	0	0	0	544	734	0	0	0	0	
10	0	0	0	0	543	728	0	0	0	0	
11	0	0	0	0	543	724	0	0	0	0	
12	0	0	0	0	544	724	0	0	0	0	
13	0	0	0	0	545	728	0	0	0	0	
14	0	0	0	0	547	723	0	0	0	0	
15	0	0	0	0	548	700	0	0	0	0	
0	0	0	0	0	549	664	0	0	0	0	
1	0	0	0	0	550	625	0	0	0	0	
2	0	0	0	0	550	590	0	0	0	0	
3	0	0	0	0	550	567	0	0	0	0	
4	0	0	0	0	549	559	0	0	0	0	
5	0	0	0	0	548	568	0	0	0	0	
6	0	0	0	0	546	596	0	0	0	0	
7	0	0	0	0	544	638	0	0	0	0	
8	0	0	0	0	542	677	0	0	0	0	
9	0	0	0	0	540	706	0	0	0	0	
10	0	0	0	0	540	724	0	0	0	0	
11	0	0	0	0	538	733	0	0	0	0	
12	0	0	0	0	539	734	0	0	0	0	
13	0	0	0	0	540	731	0	0	0	0	
14	0	0	0	0	541	727	0	0	0	0	
15	0	0	0	0	543	724	0	0	0	0	
0	0	0	0	0	544	724	0	0	0	0	
1	0	0	0	0	547	728	0	0	0	0	
2	0	0	0	0	548	722	0	0	0	0	
3	0	0	0	0	550	698	0	0	0	0	
4	0	0	0	0	551	661	0	0	0	0	
5	0	0	0	0	551	620	0	0	0	0	
6	0	0	0	0	551	584	0	0	0	0	
7	0	0	0	0	549	559	0	0	0	0	
8	0	0	0	0	547	550	0	0	0	0	
9	0	0	0	0	544	559	0	0	0	0	
10	0	0	0	0	541	585	0	0	0	0	
11	0	0	0	0	539	627	0	0	0	0	
12	0	0	0	0	536	667	0	0	0	0	
13	0	0	0	0	534	697	0	0	0	0	
14	0	0	0	0	533	716	0	0	0	0	
15	0	0	0	0	532	725	0	0	0	0	
0	0	0	0	0	533	728	0	0	0	0	
1	0	0	0	0	534	725	0	0	0	0	
2	0	0	0	0	535	721	0	0	0	0	
3	0	0	0	0	537	718	0	0	0	0	
4	0	0	0	0	539	719	0	0	0	0	
5	0	0	0	0	542	724	0	0	0	0	
6	0	0	0	0	544	719	0	0	0	0	
7	0	0	0	0	547	695	0	0	0	0	
8	0	0	0	0	548	657	0	0	0	0	
9	0	0	0	0	550	615	0	0	0	0	
10	0	0	0	0	551	579	0	0	0	0	
11	0	0	0	0	551	553	0	0	0	0	
12	0	0	0	0	550	543	0	0	0	0	
13	0	0	0	0	550	552	0	0	0	0	
14	0	0	0	0	549	579	0	0	0	0	
15	0	0	0	0	547	622	0	0	0	0	
0	0	0	0	0	546	664	0	0	0	0	
1	0	0	0	0	544	696	0	0	0	0	
2	0	0	0	0	543	717	0	0	0	0	
3	0	0	0	0	542	729	0	0	0	0	
4	0	0	0	0	542	734	0	0	0	0	
5	0	0	0	0	541	734	0	0	0	0	
6	0	0	0	0	541	733	0	0	0	0	
7	0	0	0	0	540	732	0	0	0	0	
8	0	0	0	0	540	733	0	0	0	0	
9	0	0	0	0	542	737	0	0	0	0	
10	0	0	0	0	542	731	0	0	0	0	
11	0	0	0	0	543	704	0	0	0	0	
12	0	0	0	0	543	663	0	0	0	0	
13	0	0	0	0	543	615	0	0	0	0	
14	0	0	0	0	543	573	0	0	0	0	
15	0	0	0	0	543	542	0	0	0	0	
0	0	0	0	0	543	527	0	0	0	0	
1	0	0	0	0	543	532	0	0	0	0	
2	0	0	0	0	542	559	0	0	0	0	
3	0	0	0	0	543	600	0	0	0	0	
4	0	0	0	0	543	643	0	0	0	0	
5	0	0	0	0	544	678	0	0	0	0	
6	0	0	0	0	545	703	0	0	0	0	
7	0	0	0	0	546	720	0	0	0	0	
8	0	0	0	0	549	730	0	0	0	0	
9	0	0	0	0	552	736	0	0	0	0	
10	0	0	0	0	554	740	0	0	0	0	
11	0	0	0	0	557	744	0	0	0	0	
12	0	0	0	0	558	750	0	0	0	0	
13	0	0	0	0	560	757	0	0	0	0	
14	0	0	0	0	561	754	0	0	0	0	
15	0	0	0	0	561	730	0	0	0	0	
0	0	0	0	0	559	690	0	0	0	0	
1	0	0	0	0	557	644	0	0	0	0	
2	0	0	0	0	554	600	0	0	0	0	
3	0	0	0	0	550	567	0	0	0	0	
4	0	0	0	0	545	549	0	0	0	0	
5	0	0	0	0	539	550	0	0	0	0	
6	0	0	0	0	534	570	0	0	0	0	
7	0	0	0	0	528	605	0	0	0	0	
8	0	0	0	0	523	640	0	0	0	0	
9	0	0	0	0	519	664	0	0	0	0	
10	0	0	0	0	517	678	0	0	0	0	
11	0	0	0	0	516	681	0	0	0	0	
12	0	0	0	0	517	679	0	0	0	0	
13	0	0	0	0	519	675	0	0	0	0	
14	0	0	0	0	522	671	0	0	0	0	
15	0	0	0	0	526	670	0	0	0	0	
0	0	0	0	0	531	675	0	0	0	0	
1	0	0	0	0	536	685	0	0	0	0	
2	0	0	0	0	541	687	0	0	0	0	
3	0	0	0	0	546	671	0	0	0	0	
4	0	0	0	0	550	641	0	0	0	0	
5	0	0	0	0	553	606	0	0	0	0	
6	0	0	0	0	555	575	0	0	0	0	
7	0	0	0	0	555	553	0	0	0	0	
8	0	0	0	0	555	547	0	0	0	0	
9	0	0	0	0	552	557	0	0	0	0	
10	0	0	0	0	551	585	0	0	0	0	
11	0	0	0	0	548	626	0	0	0	0	
12	0	0	0	0	545	665	0	0	0	0	
13	0	0	0	0	542	691	0	0	0	0	
14	0	0	0	0	540	706	0	0	0	0	
15	0	0	0	0	539	710	0	0	0	0	
0	0	0	0	0	538	707	0	0	0	0	
1	0	0	0	0	538	702	0	0	0	0	
2	0	0	0	0	538	696	0	0	0	0	
3	0	0	0	0	539	692	0	0	0	0	
4	0	0	0	0	541	695	0	0	0	0	
5	0	0	0	0	544	703	0	0	0	0	
6	0	0	0	0	547	703	0	0	0	0	
7	0	0	0	0	550	684	0	0	0	0	
8	0	0	0	0	552	652	0	0	0	0	
9	0	0	0	0	555	614	0	0	0	0	
10	0	0	0	0	557	580	0	0	0	0	
11	0	0	0	0	557	556	0	0	0	0	
12	0	0	0	0	558	547	0	0	0	0	
13	0	0	0	0	556	555	0	0	0	0	
14	0	0	0	0	555	581	0	0	0	0	
15	0	0	0	0	552	622	0	0	0	0	
0	0	0	0	0	549	660	0	0	0	0	
1	0	0	0	0	545	687	0	0	0	0	
2	0	0	0	0	541	703	0	0	0	0	
3	0	0	0	0	537	708	0	0	0	0	
4	0	0	0	0	534	707	0	0	0	0	
5	0	0	0	0	530	701	0	0	0	0	
6	0	0	0	0	527	695	0	0	0	0	
7	0	0	0	0	526	691	0	0	0	0	
8	0	0	0	0	525	692	0	0	0	0	
9	0	0	0	0	525	698	0	0	0	0	
10	0	0	0	0	526	695	0	0	0	0	
11	0	0	0	0	527	671	0	0	0	0	
12	0	0	0	0	529	633	0	0	0	0	
13	0	0	0	0	531	589	0	0	0	0	
14	0	0	0	0	533	549	0	0	0	0	
15	0	0	0	0	535	520	0	0	0	0	
0	0	0	0	0	536	508	0	0	0	0	
1	0	0	0	0	537	516	0	0	0	0	
2	0	0	0	0	538	543	0	0	0	0	
3	0	0	0	0	538	587	0	0	0	0	
4	0	0	0	0	538	630	0	0	0	0	
5	0	0	0	0	537	662	0	0	0	0	
6	0	0	0	0	536	682	0	0	0	0	
7	0	0	0	0	536	692	0	0	0	0	
8	0	0	0	0	535	695	0	0	0	0	
9	0	0	0	0	534	693	0	0	0	0	
10	0	0	0	0	533	690	0	0	0	0	
11	0	0	0	0	532	689	0	0	0	0	
12	0	0	0	0	533	691	0	0	0	0	
13	0	0	0	0	534	698	0	0	0	0	
14	0	0	0	0	534	696	0	0	0	0	
15	0	0	0	0	535	671	0	0	0	0	
0	0	0	0	0	536	629	0	0	0	0	
1	0	0	0	0	537	582	0	0	0	0	
2	0	0	0	0	537	537	0	0	0	0	
3	0	0	0	0	537	503	0	0	0	0	
4	0	0	0	0	538	487	0	0	0	0	
5	0	0	0	0	538	490	0	0	0	0	
6	0	0	0	0	537	515	0	0	0	0	
7	0	0	0	0	537	558	0	0	0	0	
8	0	0	0	0	536	601	0	0	0	0	
9	0	0	0	0	535	636	0	0	0	0	
10	0	0	0	0	534	662	0	0	0	0	
11	0	0	0	0	533	679	0	0	0	0	
12	0	0	0	0	532	689	0	0	0	0	
13	0	0	0	0	531	696	0	0	0	0	
14	0	0	0	0	531	701	0	0	0	0	
15	0	0	0	0	532	708	0	0	0	0	
0	0	0	0	0	532	717	0	0	0	0	
1	0	0	0	0	534	729	0	0	0	0	
2	0	0	0	0	535	730	0	0	0	0	
3	0	0	0	0	537	708	0	0	0	0	
4	0	0	0	0	538	669	0	0	0	0	
5	0	0	0	0	538	620	0	0	0	0	
6	0	0	0	0	539	575	0	0	0	0	
7	0	0	0	0	538	538	0	0	0	0	
8	0	0	0	0	537	517	0	0	0	0	
9	0	0	0	0	535	516	0	0	0	0	
10	0	0	0	0	534	535	0	0	0	0	
11	0	0	0	0	531	572	0	0	0	0	
12	0	0	0	0	529	608	0	0	0	0	
13	0	0	0	0	527	636	0	0	0	0	
14	0	0	0	0	525	653	0	0	0	0	
15	0	0	0	0	525	660	0	0	0	0	
0	0	0	0	0	524	662	0	0	0	0	
1	0	0	0	0	524	660	0	0	0	0	
2	0	0	0	0	525	658	0	0	0	0	
3	0	0	0	0	525	659	0	0	0	0	
4	0	0	0	0	527	665	0	0	0	0	
5	0	0	0	0	529	675	0	0	0	0	
6	0	0	0	0	531	677	0	0	0	0	
7	0	0	0	0	533	656	0	0	0	0	
8	0	0	0	0	534	617	0	0	0	0	
9	0	0	0	0	536	571	0	0	0	0	
10	0	0	0	0	536	527	0	0	0	0	
11	0	0	0	0	536	493	0	0	0	0	
12	0	0	0	0	535	475	0	0	0	0	
13	0	0	0	0	533	477	0	0	0	0	
14	0	0	0	0	531	500	0	0	0	0	
15	0	0	0	0	528	540	0	0	0	0	
0	0	0	0	0	526	582	0	0	0	0	
1	0	0	0	0	524	614	0	0	0	0	
2	0	0	0	0	521	636	0	0	0	0	
3	0	0	0	0	520	649	0	0	0	0	
4	0	0	0	0	520	656	0	0	0	0	
5	0	0	0	0	520	660	0	0	0	0	
6	0	0	0	0	521	664	0	0	0	0	
7	0	0	0	0	523	670	0	0	0	0	
8	0	0	0	0	525	680	0	0	0	0	
9	0	0	0	0	527	695	0	0	0	0	
10	0	0	0	0	530	700	0	0	0	0	
11	0	0	0	0	533	682	0	0	0	0	
12	0	0	0	0	536	647	0	0	0	0	
13	0	0	0	0	537	603	0	0	0	0	
14	0	0	0	0	539	560	0	0	0	0	
15	0	0	0	0	540	527	0	0	0	0	
0	0	0	0	0	540	510	0	0	0	0	
1	0	0	0	0	540	512	0	0	0	0	
2	0	0	0	0	538	535	0	0	0	0	
3	0	0	0	0	537	574	0	0	0	0	
4	0	0	0	0	535	614	0	0	0	0	
5	0	0	0	0	533	643	0	0	0	0	
6	0	0	0	0	531	660	0	0	0	0	
7	0	0	0	0	528	667	0	0	0	0	
8	0	0	0	0	528	668	0	0	0	0	
9	0	0	0	0	527	664	0	0	0	0	
10	0	0	0	0	527	661	0	0	0	0	
11	0	0	0	0	527	660	0	0	0	0	
12	0	0	0	0	527	664	0	0	0	0	
13	0	0	0	0	529	673	0	0	0	0	
14	0	0	0	0	530	673	0	0	0	0	
15	0	0	0	0	531	652	0	0	0	0	
0	0	0	0	0	531	613	0	0	0	0	
1	0	0	0	0	531	568	0	0	0	0	
2	0	0	0	0	531	525	0	0	0	0	
3	0	0	0	0	530	493	0	0	0	0	
4	0	0	0	0	529	478	0	0	0	0	
5	0	0	0	0	527	482	0	0	0	0	
6	0	0	0	0	527	507	0	0	0	0	
7	0	0	0	0	525	549	0	0	0	0	
8	0	0	0	0	524	591	0	0	0	0	
9	0	0	0	0	522	624	0	0	0	0	
10	0	0	0	0	520	644	0	0	0	0	
11	0	0	0	0	520	654	0	0	0	0	
12	0	0	0	0	520	657	0	0	0	0	
13	0	0	0	0	521	656	0	0	0	0	
14	0	0	0	0	521	655	0	0	0	0	
15	0	0	0	0	521	655	0	0	0	0	
0	0	0	0	0	521	660	0	0	0	0	
1	0	0	0	0	523	671	0	0	0	0	
2	0	0	0	0	523	672	0	0	0	0	
3	0	0	0	0	524	651	0	0	0	0	
4	0	0	0	0	525	612	0	0	0	0	
5	0	0	0	0	525	566	0	0	0	0	
6	0	0	0	0	526	521	0	0	0	0	
7	0	0	0	0	526	487	0	0	0	0	
8	0	0	0	0	526	470	0	0	0	0	
9	0	0	0	0	526	472	0	0	0	0	
10	0	0	0	0	526	496	0	0	0	0	
11	0	0	0	0	526	537	0	0	0	0	
12	0	0	0	0	526	580	0	0	0	0	
13	0	0	0	0	526	614	0	0	0	0	
14	0	0	0	0	525	636	0	0	0	0	
15	0	0	0	0	526	648	0	0	0	0	
0	0	0	0	0	526	653	0	0	0	0	
1	0	0	0	0	526	654	0	0	0	0	
2	0	0	0	0	525	655	0	0	0	0	
3	0	0	0	0	524	657	0	0	0	0	
4	0	0	0	0	525	664	0	0	0	0	
5	0	0	0	0	524	675	0	0	0	0	
6	0	0	0	0	525	678	0	0	0	0	
7	0	0	0	0	526	656	0	0	0	0	
8	0	0	0	0	526	615	0	0	0	0	
9	0	0	0	0	527	565	0	0	0	0	
10	0	0	0	0	527	516	0	0	0	0	
11	0	0	0	0	528	478	0	0	0	0	
12	0	0	0	0	528	456	0	0	0	0	
13	0	0	0	0	529	455	0	0	0	0	
14	0	0	0	0	528	476	0	0	0	0	
15	0	0	0	0	528	517	0	0	0	0	
0	0	0	0	0	528	560	0	0	0	0	
1	0	0	0	0	529	593	0	0	0	0	
2	0	0	0	0	529	615	0	0	0	0	
3	0	0	0	0	530	627	0	0	0	0	
4	0	0	0	0	532	632	0	0	0	0	
5	0	0	0	0	534	635	0	0	0	0	
6	0	0	0	0	535	637	0	0	0	0	
7	0	0	0	0	537	643	0	0	0	0	
8	0	0	0	0	538	653	0	0	0	0	
9	0	0	0	0	540	668	0	0	0	0	
10	0	0	0	0	542	675	0	0	0	0	
11	0	0	0	0	543	660	0	0	0	0	
12	0	0	0	0	543	626	0	0	0	0	
13	0	0	0	0	542	583	0	0	0	0	
14	0	0	0	0	541	540	0	0	0	0	
15	0	0	0	0	539	505	0	0	0	0	
0	0	0	0	0	536	485	0	0	0	0	
1	0	0	0	0	531	483	0	0	0	0	
2	0	0	0	0	526	503	0	0	0	0	
3	0	0	0	0	523	539	0	0	0	0	
4	0	0	0	0	518	576	0	0	0	0	
5	0	0	0	0	514	604	0	0	0	0	
6	0	0	0	0	512	622	0	0	0	0	
7	0	0	0	0	509	631	0	0	0	0	
8	0	0	0	0	509	633	0	0	0	0	
9	0	0	0	0	509	632	0	0	0	0	
10	0	0	0	0	510	632	0	0	0	0	
11	0	0	0	0	512	634	0	0	0	0	
12	0	0	0	0	513	642	0	0	0	0	
13	0	0	0	0	516	655	0	0	0	0	
14	0	0	0	0	519	659	0	0	0	0	
15	0	0	0	0	521	640	0	0	0	0	
0	0	0	0	0	523	603	0	0	0	0	
1	0	0	0	0	524	557	0	0	0	0	
2	0	0	0	0	524	512	0	0	0	0	
3	0	0	0	0	524	477	0	0	0	0	
4	0	0	0	0	523	459	0	0	0	0	
5	0	0	0	0	521	460	0	0	0	0	
6	0	0	0	0	519	483	0	0	0	0	
7	0	0	0	0	518	523	0	0	0	0	
8	0	0	0	0	515	565	0	0	0	0	
9	0	0	0	0	513	596	0	0	0	0	
10	0	0	0	0	512	616	0	0	0	0	
11	0	0	0	0	510	626	0	0	0	0	
12	0	0	0	0	510	629	0	0	0	0	
13	0	0	0	0	510	627	0	0	0	0	
14	0	0	0	0	510	626	0	0	0	0	
15	0	0	0	0	509	627	0	0	0	0	
0	0	0	0	0	510	633	0	0	0	0	
1	0	0	0	0	512	643	0	0	0	0	
2	0	0	0	0	514	646	0	0	0	0	
3	0	0	0	0	515	627	0	0	0	0	
4	0	0	0	0	518	589	0	0	0	0	
5	0	0	0	0	520	543	0	0	0	0	
6	0	0	0	0	521	499	0	0	0	0	
7	0	0	0	0	522	466	0	0	0	0	
8	0	0	0	0	523	449	0	0	0	0	
9	0	0	0	0	523	452	0	0	0	0	
10	0	0	0	0	523	477	0	0	0	0	
11	0	0	0	0	522	519	0	0	0	0	
12	0	0	0	0	521	564	0	0	0	0	
13	0	0	0	0	520	598	0	0	0	0	
14	0	0	0	0	519	619	0	0	0	0	
15	0	0	0	0	517	631	0	0	0	0	
0	0	0	0	0	516	634	0	0	0	0	
1	0	0	0	0	515	633	0	0	0	0	
2	0	0	0	0	515	632	0	0	0	0	
3	0	0	0	0	515	632	0	0	0	0	
4	0	0	0	0	514	637	0	0	0	0	
5	0	0	0	0	515	647	0	0	0	0	
6	0	0	0	0	517	649	0	0	0	0	
7	0	0	0	0	519	628	0	0	0	0	
8	0	0	0	0	521	587	0	0	0	0	
9	0	0	0	0	521	538	0	0	0	0	
10	0	0	0	0	524	490	0	0	0	0	
11	0	0	0	0	525	452	0	0	0	0	
12	0	0	0	0	525	431	0	0	0	0	
13	0	0	0	0	526	430	0	0	0	0	
14	0	0	0	0	526	452	0	0	0	0	
15	0	0	0	0	525	494	0	0	0	0	
0	0	0	0	0	524	539	0	0	0	0	
1	0	0	0	0	523	575	0	0	0	0	
2	0	0	0	0	522	601	0	0	0	0	
3	0	0	0	0	521	616	0	0	0	0	
4	0	0	0	0	522	625	0	0	0	0	
5	0	0	0	0	523	629	0	0	0	0	
6	0	0	0	0	524	633	0	0	0	0	
7	0	0	0	0	524	637	0	0	0	0	
8	0	0	0	0	524	646	0	0	0	0	
9	0	0	0	0	526	659	0	0	0	0	
10	0	0	0	0	527	662	0	0	0	0	
11	0	0	0	0	527	641	0	0	0	0	
12	0	0	0	0	528	600	0	0	0	0	
13	0	0	0	0	528	549	0	0	0	0	
14	0	0	0	0	528	498	0	0	0	0	
15	0	0	0	0	528	457	0	0	0	0	
0	0	0	0	0	527	433	0	0	0	0	
1	0	0	0	0	526	430	0	0	0	0	
2	0	0	0	0	524	450	0	0	0	0	
3	0	0	0	0	523	490	0	0	0	0	
4	0	0	0	0	521	534	0	0	0	0	
5	0	0	0	0	520	569	0	0	0	0	
6	0	0	0	0	519	594	0	0	0	0	
7	0	0	0	0	519	609	0	0	0	0	
8	0	0	0	0	519	618	0	0	0	0	
9	0	0	0	0	520	623	0	0	0	0	
10	0	0	0	0	521	627	0	0	0	0	
11	0	0	0	0	523	633	0	0	0	0	
12	0	0	0	0	524	642	0	0	0	0	
13	0	0	0	0	526	655	0	0	0	0	
14	0	0	0	0	527	659	0	0	0	0	
15	0	0	0	0	529	639	0	0	0	0	
0	0	0	0	0	529	599	0	0	0	0	
1	0	0	0	0	529	550	0	0	0	0	
2	0	0	0	0	529	499	0	0	0	0	
3	0	0	0	0	529	460	0	0	0	0	
4	0	0	0	0	528	436	0	0	0	0	
5	0	0	0	0	526	432	0	0	0	0	
6	0	0	0	0	525	452	0	0	0	0	
7	0	0	0	0	524	491	0	0	0	0	
8	0	0	0	0	523	534	0	0	0	0	
9	0	0	0	0	521	569	0	0	0	0	
10	0	0	0	0	520	593	0	0	0	0	
11	0	0	0	0	520	608	0	0	0	0	
12	0	0	0	0	521	618	0	0	0	0	
13	0	0	0	0	522	624	0	0	0	0	
14	0	0	0	0	523	629	0	0	0	0	
15	0	0	0	0	524	636	0	0	0	0	
0	0	0	0	0	525	647	0	0	0	0	
1	0	0	0	0	526	661	0	0	0	0	
2	0	0	0	0	527	666	0	0	0	0	
3	0	0	0	0	527	646	0	0	0	0	
4	0	0	0	0	526	605	0	0	0	0	
5	0	0	0	0	523	552	0	0	0	0	
6	0	0	0	0	520	499	0	0	0	0	
7	0	0	0	0	515	454	0	0	0	0	
8	0	0	0	0	509	423	0	0	0	0	
9	0	0	0	0	501	412	0	0	0	0	
10	0	0	0	0	492	422	0	0	0	0	
11	0	0	0	0	483	451	0	0	0	0	
12	0	0	0	0	473	483	0	0	0	0	
13	0	0	0	0	462	507	0	0	0	0	
14	0	0	0	0	451	519	0	0	0	0	
15	0	0	0	0	440	525	0	0	0	0	
0	0	0	0	0	430	524	0	0	0	0	
1	0	0	0	0	420	519	0	0	0	0	
2	0	0	0	0	410	514	0	0	0	0	
3	0	0	0	0	401	511	0	0	0	0	
4	0	0	0	0	391	511	0	0	0	0	
5	0	0	0	0	382	515	0	0	0	0	
6	0	0	0	0	373	510	0	0	0	0	
7	0	0	0	0	364	480	0	0	0	0	
8	0	0	0	0	355	430	0	0	0	0	
9	0	0	0	0	346	370	0	0	0	0	
10	0	0	0	0	337	311	0	0	0	0	
11	0	0	0	0	329	261	0	0	0	0	
12	0	0	0	0	322	228	0	0	0	0	
13	0	0	0	0	316	216	0	0	0	0	
14	0	0	0	0	313	228	0	0	0	0	
15	0	0	0	0	313	264	0	0	0	0	
0	0	0	0	0	316	307	0	0	0	0	
1	0	0	0	0	324	349	0	0	0	0	
2	0	0	0	0	334	385	0	0	0	0	
3	0	0	0	0	348	416	0	0	0	0	
4	0	0	0	0	365	444	0	0	0	0	
5	0	0	0	0	385	470	0	0	0	0	
6	0	0	0	0	406	496	0	0	0	0	
7	0	0	0	0	428	524	0	0	0	0	
8	0	0	0	0	449	554	0	0	0	0	
9	0	0	0	0	471	587	0	0	0	0	
10	0	0	0	0	490	608	0	0	0	0	
11	0	0	0	0	508	602	0	0	0	0	
12	0	0	0	0	522	572	0	0	0	0	
13	0	0	0	0	533	529	0	0	0	0	
14	0	0	0	0	542	483	0	0	0	0	
15	0	0	0	0	547	445	0	0	0	0	
0	0	0	0	0	550	421	0	0	0	0	
1	0	0	0	0	550	416	0	0	0	0	
2	0	0	0	0	549	434	0	0	0	0	
3	0	0	0	0	546	470	0	0	0	0	
4	0	0	0	0	542	510	0	0	0	0	
5	0	0	0	0	538	540	0	0	0	0	
6	0	0	0	0	534	559	0	0	0	0	
7	0	0	0	0	531	568	0	0	0	0	
8	0	0	0	0	528	571	0	0	0	0	
9	0	0	0	0	526	570	0	0	0	0	
10	0	0	0	0	525	569	0	0	0	0	
11	0	0	0	0	524	572	0	0	0	0	
12	0	0	0	0	526	581	0	0	0	0	
13	0	0	0	0	527	595	0	0	0	0	
14	0	0	0	0	528	601	0	0	0	0	
15	0	0	0	0	529	583	0	0	0	0	
0	0	0	0	0	531	544	0	0	0	0	
1	0	0	0	0	532	494	0	0	0	0	
2	0	0	0	0	534	444	0	0	0	0	
3	0	0	0	0	534	403	0	0	0	0	
4	0	0	0	0	535	380	0	0	0	0	
5	0	0	0	0	535	377	0	0	0	0	
6	0	0	0	0	535	399	0	0	0	0	
7	0	0	0	0	534	441	0	0	0	0	
8	0	0	0	0	534	487	0	0	0	0	
9	0	0	0	0	534	524	0	0	0	0	
10	0	0	0	0	534	550	0	0	0	0	
11	0	0	0	0	535	564	0	0	0	0	
12	0	0	0	0	536	571	0	0	0	0	
13	0	0	0	0	537	573	0	0	0	0	
14	0	0	0	0	538	575	0	0	0	0	
15	0	0	0	0	539	579	0	0	0	0	
0	0	0	0	0	540	589	0	0	0	0	
1	0	0	0	0	542	604	0	0	0	0	
2	0	0	0	0	543	611	0	0	0	0	
3	0	0	0	0	544	592	0	0	0	0	
4	0	0	0	0	545	549	0	0	0	0	
5	0	0	0	0	546	495	0	0	0	0	
6	0	0	0	0	547	439	0	0	0	0	
7	0	0	0	0	547	393	0	0	0	0	
8	0	0	0	0	547	364	0	0	0	0	
9	0	0	0	0	546	357	0	0	0	0	
10	0	0	0	0	546	375	0	0	0	0	
11	0	0	0	0	545	416	0	0	0	0	
12	0	0	0	0	544	463	0	0	0	0	
13	0	0	0	0	544	504	0	0	0	0	
14	0	0	0	0	543	536	0	0	0	0	
15	0	0	0	0	543	558	0	0	0	0	
0	0	0	0	0	544	575	0	0	0	0	
1	0	0	0	0	544	587	0	0	0	0	
2	0	0	0	0	545	597	0	0	0	0	
3	0	0	0	0	545	609	0	0	0	0	
4	0	0	0	0	545	624	0	0	0	0	
5	0	0	0	0	545	642	0	0	0	0	
6	0	0	0	0	546	652	0	0	0	0	
7	0	0	0	0	547	633	0	0	0	0	
8	0	0	0	0	547	591	0	0	0	0	
9	0	0	0	0	546	535	0	0	0	0	
10	0	0	0	0	546	478	0	0	0	0	
11	0	0	0	0	546	429	0	0	0	0	
12	0	0	0	0	546	396	0	0	0	0	
13	0	0	0	0	545	386	0	0	0	0	
14	0	0	0	0	545	402	0	0	0	0	
15	0	0	0	0	545	440	0	0	0	0	
0	0	0	0	0	545	484	0	0	0	0	
1	0	0	0	0	544	521	0	0	0	0	
2	0	0	0	0	543	547	0	0	0	0	
3	0	0	0	0	543	565	0	0	0	0	
4	0	0	0	0	544	576	0	0	0	0	
5	0	0	0	0	544	583	0	0	0	0	
6	0	0	0	0	545	590	0	0	0	0	
7	0	0	0	0	545	598	0	0	0	0	
8	0	0	0	0	545	610	0	0	0	0	
9	0	0	0	0	546	627	0	0	0	0	
10	0	0	0	0	546	636	0	0	0	0	
11	0	0	0	0	546	617	0	0	0	0	
12	0	0	0	0	546	575	0	0	0	0	
13	0	0	0	0	545	520	0	0	0	0	
14	0	0	0	0	545	463	0	0	0	0	
15	0	0	0	0	544	416	0	0	0	0	
0	0	0	0	0	544	385	0	0	0	0	
1	0	0	0	0	543	376	0	0	0	0	
2	0	0	0	0	543	391	0	0	0	0	
3	0	0	0	0	543	429	0	0	0	0	
4	0	0	0	0	542	472	0	0	0	0	
5	0	0	0	0	542	508	0	0	0	0	
6	0	0	0	0	541	533	0	0	0	0	
7	0	0	0	0	541	548	0	0	0	0	
8	0	0	0	0	542	556	0	0	0	0	
9	0	0	0	0	542	561	0	0	0	0	
10	0	0	0	0	543	566	0	0	0	0	
11	0	0	0	0	543	574	0	0	0	0	
12	0	0	0	0	542	586	0	0	0	0	
13	0	0	0	0	543	603	0	0	0	0	
14	0	0	0	0	543	612	0	0	0	0	
15	0	0	0	0	542	594	0	0	0	0	
0	0	0	0	0	541	551	0	0	0	0	
1	0	0	0	0	541	494	0	0	0	0	
2	0	0	0	0	541	435	0	0	0	0	
3	0	0	0	0	540	385	0	0	0	0	
4	0	0	0	0	539	351	0	0	0	0	
5	0	0	0	0	539	340	0	0	0	0	
6	0	0	0	0	538	355	0	0	0	0	
7	0	0	0	0	538	393	0	0	0	0	
8	0	0	0	0	538	439	0	0	0	0	
9	0	0	0	0	537	478	0	0	0	0	
10	0	0	0	0	537	507	0	0	0	0	
11	0	0	0	0	536	526	0	0	0	0	
12	0	0	0	0	537	540	0	0	0	0	
13	0	0	0	0	537	549	0	0	0	0	
14	0	0	0	0	537	558	0	0	0	0	
15	0	0	0	0	538	569	0	0	0	0	
0	0	0	0	0	539	584	0	0	0	0	
1	0	0	0	0	540	604	0	0	0	0	
2	0	0	0	0	541	615	0	0	0	0	
3	0	0	0	0	543	599	0	0	0	0	
4	0	0	0	0	543	557	0	0	0	0	
5	0	0	0	0	545	500	0	0	0	0	
6	0	0	0	0	546	441	0	0	0	0	
7	0	0	0	0	546	390	0	0	0	0	
8	0	0	0	0	546	356	0	0	0	0	
9	0	0	0	0	546	345	0	0	0	0	
10	0	0	0	0	545	359	0	0	0	0	
11	0	0	0	0	545	398	0	0	0	0	
12	0	0	0	0	544	444	0	0	0	0	
13	0	0	0	0	543	483	0	0	0	0	
14	0	0	0	0	542	512	0	0	0	0	
15	0	0	0	0	541	532	0	0	0	0	
0	0	0	0	0	540	545	0	0	0	0	
1	0	0	0	0	540	555	0	0	0	0	
2	0	0	0	0	538	563	0	0	0	0	
3	0	0	0	0	538	573	0	0	0	0	
4	0	0	0	0	537	587	0	0	0	0	
5	0	0	0	0	537	604	0	0	0	0	
6	0	0	0	0	537	614	0	0	0	0	
7	0	0	0	0	537	597	0	0	0	0	
8	0	0	0	0	537	556	0	0	0	0	
9	0	0	0	0	537	500	0	0	0	0	
10	0	0	0	0	537	442	0	0	0	0	
11	0	0	0	0	537	392	0	0	0	0	
12	0	0	0	0	536	359	0	0	0	0	
13	0	0	0	0	536	348	0	0	0	0	
14	0	0	0	0	534	362	0	0	0	0	
15	0	0	0	0	533	400	0	0	0	0	
0	0	0	0	0	532	446	0	0	0	0	
1	0	0	0	0	530	483	0	0	0	0	
2	0	0	0	0	529	511	0	0	0	0	
3	0	0	0	0	527	529	0	0	0	0	
4	0	0	0	0	527	540	0	0	0	0	
5	0	0	0	0	526	547	0	0	0	0	
6	0	0	0	0	524	553	0	0	0	0	
7	0	0	0	0	524	561	0	0	0	0	
8	0	0	0	0	523	573	0	0	0	0	
9	0	0	0	0	524	590	0	0	0	0	
10	0	0	0	0	524	598	0	0	0	0	
11	0	0	0	0	524	579	0	0	0	0	
12	0	0	0	0	525	535	0	0	0	0	
13	0	0	0	0	525	477	0	0	0	0	
14	0	0	0	0	527	418	0	0	0	0	
15	0	0	0	0	527	366	0	0	0	0	
0	0	0	0	0	528	333	0	0	0	0	
1	0	0	0	0	528	322	0	0	0	0	
2	0	0	0	0	528	336	0	0	0	0	
3	0	0	0	0	529	375	0	0	0	0	
4	0	0	0	0	528	422	0	0	0	0	
5	0	0	0	0	529	461	0	0	0	0	
6	0	0	0	0	528	490	0	0	0	0	
7	0	0	0	0	527	509	0	0	0	0	
8	0	0	0	0	528	521	0	0	0	0	
9	0	0	0	0	527	529	0	0	0	0	
10	0	0	0	0	526	535	0	0	0	0	
11	0	0	0	0	524	543	0	0	0	0	
12	0	0	0	0	523	556	0	0	0	0	
13	0	0	0	0	522	574	0	0	0	0	
14	0	0	0	0	521	584	0	0	0	0	
15	0	0	0	0	520	569	0	0	0	0	
0	0	0	0	0	520	532	0	0	0	0	
1	0	0	0	0	519	481	0	0	0	0	
2	0	0	0	0	521	430	0	0	0	0	
3	0	0	0	0	521	387	0	0	0	0	
4	0	0	0	0	522	360	0	0	0	0	
5	0	0	0	0	523	354	0	0	0	0	
6	0	0	0	0	523	372	0	0	0	0	
7	0	0	0	0	524	412	0	0	0	0	
8	0	0	0	0	524	457	0	0	0	0	
9	0	0	0	0	524	494	0	0	0	0	
10	0	0	0	0	524	518	0	0	0	0	
11	0	0	0	0	526	532	0	0	0	0	
12	0	0	0	0	527	539	0	0	0	0	
13	0	0	0	0	529	542	0	0	0	0	
14	0	0	0	0	530	544	0	0	0	0	
15	0	0	0	0	531	550	0	0	0	0	
0	0	0	0	0	533	560	0	0	0	0	
1	0	0	0	0	535	576	0	0	0	0	
2	0	0	0	0	536	586	0	0	0	0	
3	0	0	0	0	537	569	0	0	0	0	
4	0	0	0	0	539	528	0	0	0	0	
5	0	0	0	0	540	475	0	0	0	0	
6	0	0	0	0	540	419	0	0	0	0	
7	0	0	0	0	541	372	0	0	0	0	
8	0	0	0	0	541	343	0	0	0	0	
9	0	0	0	0	540	334	0	0	0	0	
10	0	0	0	0	538	350	0	0	0	0	
11	0	0	0	0	536	390	0	0	0	0	
12	0	0	0	0	532	435	0	0	0	0	
13	0	0	0	0	529	472	0	0	0	0	
14	0	0	0	0	526	498	0	0	0	0	
15	0	0	0	0	523	514	0	0	0	0	
0	0	0	0	0	521	523	0	0	0	0	
1	0	0	0	0	520	527	0	0	0	0	
2	0	0	0	0	519	531	0	0	0	0	
3	0	0	0	0	519	537	0	0	0	0	
4	0	0	0	0	520	549	0	0	0	0	
5	0	0	0	0	521	566	0	0	0	0	
6	0	0	0	0	522	576	0	0	0	0	
7	0	0	0	0	524	560	0	0	0	0	
8	0	0	0	0	524	518	0	0	0	0	
9	0	0	0	0	525	462	0	0	0	0	
10	0	0	0	0	526	404	0	0	0	0	
11	0	0	0	0	526	354	0	0	0	0	
12	0	0	0	0	526	320	0	0	0	0	
13	0	0	0	0	524	309	0	0	0	0	
14	0	0	0	0	524	323	0	0	0	0	
15	0	0	0	0	523	362	0	0	0	0	
0	0	0	0	0	522	409	0	0	0	0	
1	0	0	0	0	521	448	0	0	0	0	
2	0	0	0	0	521	478	0	0	0	0	
3	0	0	0	0	521	498	0	0	0	0	
4	0	0	0	0	522	510	0	0	0	0	
5	0	0	0	0	523	519	0	0	0	0	
6	0	0	0	0	523	527	0	0	0	0	
7	0	0	0	0	523	536	0	0	0	0	
8	0	0	0	0	523	550	0	0	0	0	
9	0	0	0	0	523	568	0	0	0	0	
10	0	0	0	0	524	577	0	0	0	0	
11	0	0	0	0	523	557	0	0	0	0	
12	0	0	0	0	524	508	0	0	0	0	
13	0	0	0	0	522	441	0	0	0	0	
14	0	0	0	0	523	372	0	0	0	0	
15	0	0	0	0	523	311	0	0	0	0	
0	0	0	0	0	523	269	0	0	0	0	
1	0	0	0	0	523	250	0	0	0	0	
2	0	0	0	0	524	260	0	0	0	0	
3	0	0	0	0	525	297	0	0	0	0	
4	0	0	0	0	526	345	0	0	0	0	
5	0	0	0	0	527	388	0	0	0	0	
6	0	0	0	0	527	421	0	0	0	0	
7	0	0	0	0	528	446	0	0	0	0	
8	0	0	0	0	530	464	0	0	0	0	
9	0	0	0	0	530	478	0	0	0	0	
10	0	0	0	0	530	491	0	0	0	0	
11	0	0	0	0	529	506	0	0	0	0	
12	0	0	0	0	528	525	0	0	0	0	
13	0	0	0	0	529	548	0	0	0	0	
14	0	0	0	0	529	563	0	0	0	0	
15	0	0	0	0	529	546	0	0	0	0	
0	0	0	0	0	528	498	0	0	0	0	
1	0	0	0	0	528	432	0	0	0	0	
2	0	0	0	0	528	359	0	0	0	0	
3	0	0	0	0	528	295	0	0	0	0	
4	0	0	0	0	527	248	0	0	0	0	
5	0	0	0	0	527	227	0	0	0	0	
6	0	0	0	0	526	234	0	0	0	0	
7	0	0	0	0	525	269	0	0	0	0	
8	0	0	0	0	524	316	0	0	0	0	
9	0	0	0	0	524	356	0	0	0	0	
10	0	0	0	0	523	387	0	0	0	0	
11	0	0	0	0	522	408	0	0	0	0	
12	0	0	0	0	522	423	0	0	0	0	
13	0	0	0	0	522	433	0	0	0	0	
14	0	0	0	0	523	444	0	0	0	0	
15	0	0	0	0	523	459	0	0	0	0	
0	0	0	0	0	524	480	0	0	0	0	
1	0	0	0	0	525	506	0	0	0	0	
2	0	0	0	0	527	522	0	0	0	0	
3	0	0	0	0	528	502	0	0	0	0	
4	0	0	0	0	530	444	0	0	0	0	
5	0	0	0	0	532	361	0	0	0	0	
6	0	0	0	0	534	270	0	0	0	0	
7	0	0	0	0	535	185	0	0	0	0	
8	0	0	0	0	536	122	0	0	0	0	
9	0	0	0	0	536	86	0	0	0	0	
10	0	0	0	0	535	84	0	0	0	0	
11	0	0	0	0	535	118	0	0	0	0	
12	0	0	0	0	534	170	0	0	0	0	
13	0	0	0	0	532	222	0	0	0	0	
14	0	0	0	0	531	268	0	0	0	0	
15	0	0	0	0	529	307	0	0	0	0	
0	0	0	0	0	528	342	0	0	0	0	
1	0	0	0	0	527	374	0	0	0	0	
2	0	0	0	0	526	405	0	0	0	0	
3	0	0	0	0	526	439	0	0	0	0	
4	0	0	0	0	526	475	0	0	0	0	
5	0	0	0	0	527	515	0	0	0	0	
6	0	0	0	0	527	542	0	0	0	0	
7	0	0	0	0	528	529	0	0	0	0	
8	0	0	0	0	529	476	0	0	0	0	
9	0	0	0	0	529	395	0	0	0	0	
10	0	0	0	0	531	303	0	0	0	0	
11	0	0	0	0	531	217	0	0	0	0	
12	0	0	0	0	531	150	0	0	0	0	
13	0	0	0	0	531	110	0	0	0	0	
14	0	0	0	0	530	103	0	0	0	0	
15	0	0	0	0	531	132	0	0	0	0	
0	0	0	0	0	530	179	0	0	0	0	
1	0	0	0	0	529	224	0	0	0	0	
2	0	0	0	0	528	262	0	0	0	0	
3	0	0	0	0	527	293	0	0	0	0	
4	0	0	0	0	527	320	0	0	0	0	
5	0	0	0	0	527	345	0	0	0	0	
6	0	0	0	0	526	372	0	0	0	0	
7	0	0	0	0	526	403	0	0	0	0	
8	0	0	0	0	525	438	0	0	0	0	
9	0	0	0	0	525	479	0	0	0	0	
10	0	0	0	0	525	508	0	0	0	0	
11	0	0	0	0	526	498	0	0	0	0	
12	0	0	0	0	526	446	0	0	0	0	
13	0	0	0	0	526	366	0	0	0	0	
14	0	0	0	0	527	274	0	0	0	0	
15	0	0	0	0	527	188	0	0	0	0	
0	0	0	0	0	527	120	0	0	0	0	
1	0	0	0	0	526	80	0	0	0	0	
2	0	0	0	0	526	74	0	0	0	0	
3	0	0	0	0	525	105	0	0	0	0	
4	0	0	0	0	524	155	0	0	0	0	
5	0	0	0	0	523	203	0	0	0	0	
6	0	0	0	0	522	247	0	0	0	0	
7	0	0	0	0	521	281	0	0	0	0	
8	0	0	0	0	521	312	0	0	0	0	
9	0	0	0	0	520	342	0	0	0	0	
10	0	0	0	0	519	371	0	0	0	0	
11	0	0	0	0	519	404	0	0	0	0	
12	0	0	0	0	518	442	0	0	0	0	
13	0	0	0	0	519	485	0	0	0	0	
14	0	0	0	0	519	516	0	0	0	0	
15	0	0	0	0	520	507	0	0	0	0	
0	0	0	0	0	522	456	0	0	0	0	
1	0	0	0	0	524	376	0	0	0	0	
2	0	0	0	0	526	284	0	0	0	0	
3	0	0	0	0	528	197	0	0	0	0	
4	0	0	0	0	529	127	0	0	0	0	
5	0	0	0	0	530	87	0	0	0	0	
6	0	0	0	0	531	81	0	0	0	0	
7	0	0	0	0	532	111	0	0	0	0	
8	0	0	0	0	532	160	0	0	0	0	
9	0	0	0	0	531	208	0	0	0	0	
10	0	0	0	0	531	249	0	0	0	0	
11	0	0	0	0	529	283	0	0	0	0	
12	0	0	0	0	529	312	0	0	0	0	
13	0	0	0	0	528	340	0	0	0	0	
14	0	0	0	0	527	369	0	0	0	0	
15	0	0	0	0	526	402	0	0	0	0	
0	0	0	0	0	525	440	0	0	0	0	
1	0	0	0	0	525	483	0	0	0	0	
2	0	0	0	0	525	516	0	0	0	0	
3	0	0	0	0	525	510	0	0	0	0	
4	0	0	0	0	526	463	0	0	0	0	
5	0	0	0	0	526	387	0	0	0	0	
6	0	0	0	0	526	299	0	0	0	0	
7	0	0	0	0	525	215	0	0	0	0	
8	0	0	0	0	525	149	0	0	0	0	
9	0	0	0	0	524	111	0	0	0	0	
10	0	0	0	0	524	106	0	0	0	0	
11	0	0	0	0	524	136	0	0	0	0	
12	0	0	0	0	523	185	0	0	0	0	
13	0	0	0	0	523	231	0	0	0	0	
14	0	0	0	0	523	270	0	0	0	0	
15	0	0	0	0	524	301	0	0	0	0	
0	0	0	0	0	525	327	0	0	0	0	
1	0	0	0	0	527	352	0	0	0	0	
2	0	0	0	0	529	379	0	0	0	0	
3	0	0	0	0	530	409	0	0	0	0	
4	0	0	0	0	531	446	0	0	0	0	
5	0	0	0	0	533	487	0	0	0	0	
6	0	0	0	0	534	519	0	0	0	0	
7	0	0	0	0	535	514	0	0	0	0	
8	0	0	0	0	534	467	0	0	0	0	
9	0	0	0	0	534	391	0	0	0	0	
10	0	0	0	0	534	304	0	0	0	0	
11	0	0	0	0	533	221	0	0	0	0	
12	0	0	0	0	532	157	0	0	0	0	
13	0	0	0	0	531	120	0	0	0	0	
14	0	0	0	0	531	117	0	0	0	0	
15	0	0	0	0	531	150	0	0	0	0	
0	0	0	0	0	531	202	0	0	0	0	
1	0	0	0	0	532	253	0	0	0	0	
2	0	0	0	0	532	298	0	0	0	0	
3	0	0	0	0	534	336	0	0	0	0	
4	0	0	0	0	536	369	0	0	0	0	
5	0	0	0	0	536	399	0	0	0	0	
6	0	0	0	0	537	430	0	0	0	0	
7	0	0	0	0	537	462	0	0	0	0	
8	0	0	0	0	538	499	0	0	0	0	
9	0	0	0	0	538	539	0	0	0	0	
10	0	0	0	0	539	568	0	0	0	0	
11	0	0	0	0	538	558	0	0	0	0	
12	0	0	0	0	537	505	0	0	0	0	
13	0	0	0	0	537	424	0	0	0	0	
14	0	0	0	0	537	330	0	0	0	0	
15	0	0	0	0	536	242	0	0	0	0	
0	0	0	0	0	536	172	0	0	0	0	
1	0	0	0	0	535	130	0	0	0	0	
2	0	0	0	0	535	124	0	0	0	0	
3	0	0	0	0	535	153	0	0	0	0	
4	0	0	0	0	534	203	0	0	0	0	
5	0	0	0	0	533	252	0	0	0	0	
6	0	0	0	0	533	295	0	0	0	0	
7	0	0	0	0	534	332	0	0	0	0	
8	0	0	0	0	535	364	0	0	0	0	
9	0	0	0	0	536	394	0	0	0	0	
10	0	0	0	0	537	425	0	0	0	0	
11	0	0	0	0	538	459	0	0	0	0	
12	0	0	0	0	539	497	0	0	0	0	
13	0	0	0	0	541	540	0	0	0	0	
14	0	0	0	0	541	571	0	0	0	0	
15	0	0	0	0	542	562	0	0	0	0	
0	0	0	0	0	542	511	0	0	0	0	
1	0	0	0	0	542	431	0	0	0	0	
2	0	0	0	0	542	337	0	0	0	0	
3	0	0	0	0	541	248	0	0	0	0	
4	0	0	0	0	541	179	0	0	0	0	
5	0	0	0	0	540	137	0	0	0	0	
6	0	0	0	0	540	131	0	0	0	0	
7	0	0	0	0	539	161	0	0	0	0	
8	0	0	0	0	538	212	0	0	0	0	
9	0	0	0	0	537	261	0	0	0	0	
10	0	0	0	0	537	303	0	0	0	0	
11	0	0	0	0	536	339	0	0	0	0	
12	0	0	0	0	536	368	0	0	0	0	
13	0	0	0	0	536	396	0	0	0	0	
14	0	0	0	0	536	425	0	0	0	0	
15	0	0	0	0	536	457	0	0	0	0	
0	0	0	0	0	537	495	0	0	0	0	
1	0	0	0	0	539	537	0	0	0	0	
2	0	0	0	0	540	570	0	0	0	0	
3	0	0	0	0	541	565	0	0	0	0	
4	0	0	0	0	543	519	0	0	0	0	
5	0	0	0	0	545	444	0	0	0	0	
6	0	0	0	0	546	355	0	0	0	0	
7	0	0	0	0	547	272	0	0	0	0	
8	0	0	0	0	547	206	0	0	0	0	
9	0	0	0	0	548	168	0	0	0	0	
10	0	0	0	0	547	163	0	0	0	0	
11	0	0	0	0	547	194	0	0	0	0	
12	0	0	0	0	545	243	0	0	0	0	
13	0	0	0	0	543	290	0	0	0	0	
14	0	0	0	0	542	329	0	0	0	0	
15	0	0	0	0	541	360	0	0	0	0	
0	0	0	0	0	540	386	0	0	0	0	
1	0	0	0	0	540	409	0	0	0	0	
2	0	0	0	0	540	433	0	0	0	0	
3	0	0	0	0	540	462	0	0	0	0	
4	0	0	0	0	541	496	0	0	0	0	
5	0	0	0	0	541	536	0	0	0	0	
6	0	0	0	0	542	566	0	0	0	0	
7	0	0	0	0	542	558	0	0	0	0	
8	0	0	0	0	542	507	0	0	0	0	
9	0	0	0	0	541	426	0	0	0	0	
10	0	0	0	0	540	332	0	0	0	0	
11	0	0	0	0	538	243	0	0	0	0	
12	0	0	0	0	537	173	0	0	0	0	
13	0	0	0	0	535	131	0	0	0	0	
14	0	0	0	0	533	124	0	0	0	0	
15	0	0	0	0	531	155	0	0	0	0	
0	0	0	0	0	529	206	0	0	0	0	
1	0	0	0	0	527	255	0	0	0	0	
2	0	0	0	0	527	298	0	0	0	0	
3	0	0	0	0	527	333	0	0	0	0	
4	0	0	0	0	527	363	0	0	0	0	
5	0	0	0	0	528	390	0	0	0	0	
6	0	0	0	0	529	418	0	0	0	0	
7	0	0	0	0	530	449	0	0	0	0	
8	0	0	0	0	531	488	0	0	0	0	
9	0	0	0	0	533	532	0	0	0	0	
10	0	0	0	0	535	567	0	0	0	0	
11	0	0	0	0	536	564	0	0	0	0	
12	0	0	0	0	537	518	0	0	0	0	
13	0	0	0	0	537	442	0	0	0	0	
14	0	0	0	0	537	353	0	0	0	0	
15	0	0	0	0	536	268	0	0	0	0	
0	0	0	0	0	534	199	0	0	0	0	
1	0	0	0	0	532	159	0	0	0	0	
2	0	0	0	0	529	153	0	0	0	0	
3	0	0	0	0	528	184	0	0	0	0	
4	0	0	0	0	525	234	0	0	0	0	
5	0	0	0	0	524	283	0	0	0	0	
6	0	0	0	0	523	326	0	0	0	0	
7	0	0	0	0	523	360	0	0	0	0	
8	0	0	0	0	523	391	0	0	0	0	
9	0	0	0	0	524	418	0	0	0	0	
10	0	0	0	0	526	447	0	0	0	0	
11	0	0	0	0	527	478	0	0	0	0	
12	0	0	0	0	528	515	0	0	0	0	
13	0	0	0	0	531	557	0	0	0	0	
14	0	0	0	0	533	590	0	0	0	0	
15	0	0	0	0	535	584	0	0	0	0	
0	0	0	0	0	536	535	0	0	0	0	
1	0	0	0	0	537	455	0	0	0	0	
2	0	0	0	0	537	362	0	0	0	0	
3	0	0	0	0	537	273	0	0	0	0	
4	0	0	0	0	536	203	0	0	0	0	
5	0	0	0	0	535	160	0	0	0	0	
6	0	0	0	0	533	152	0	0	0	0	
7	0	0	0	0	531	182	0	0	0	0	
8	0	0	0	0	529	231	0	0	0	0	
9	0	0	0	0	527	280	0	0	0	0	
10	0	0	0	0	527	319	0	0	0	0	
11	0	0	0	0	527	352	0	0	0	0	
12	0	0	0	0	528	379	0	0	0	0	
13	0	0	0	0	529	403	0	0	0	0	
14	0	0	0	0	531	430	0	0	0	0	
15	0	0	0	0	532	459	0	0	0	0	
0	0	0	0	0	534	495	0	0	0	0	
1	0	0	0	0	536	538	0	0	0	0	
2	0	0	0	0	538	573	0	0	0	0	
3	0	0	0	0	539	570	0	0	0	0	
4	0	0	0	0	540	524	0	0	0	0	
5	0	0	0	0	541	448	0	0	0	0	
6	0	0	0	0	541	358	0	0	0	0	
7	0	0	0	0	541	272	0	0	0	0	
8	0	0	0	0	540	204	0	0	0	0	
9	0	0	0	0	539	164	0	0	0	0	
10	0	0	0	0	538	159	0	0	0	0	
11	0	0	0	0	538	191	0	0	0	0	
12	0	0	0	0	536	243	0	0	0	0	
13	0	0	0	0	536	295	0	0	0	0	
14	0	0	0	0	535	338	0	0	0	0	
15	0	0	0	0	534	373	0	0	0	0	
0	0	0	0	0	535	403	0	0	0	0	
1	0	0	0	0	536	429	0	0	0	0	
2	0	0	0	0	536	456	0	0	0	0	
3	0	0	0	0	536	486	0	0	0	0	
4	0	0	0	0	537	523	0	0	0	0	
5	0	0	0	0	539	564	0	0	0	0	
6	0	0	0	0	540	596	0	0	0	0	
7	0	0	0	0	540	590	0	0	0	0	
8	0	0	0	0	542	540	0	0	0	0	
9	0	0	0	0	542	457	0	0	0	0	
10	0	0	0	0	541	361	0	0	0	0	
11	0	0	0	0	540	270	0	0	0	0	
12	0	0	0	0	540	197	0	0	0	0	
13	0	0	0	0	538	152	0	0	0	0	
14	0	0	0	0	537	145	0	0	0	0	
15	0	0	0	0	536	174	0	0	0	0	
0	0	0	0	0	534	226	0	0	0	0	
1	0	0	0	0	533	278	0	0	0	0	
2	0	0	0	0	533	323	0	0	0	0	
3	0	0	0	0	533	361	0	0	0	0	
4	0	0	0	0	534	393	0	0	0	0	
5	0	0	0	0	535	423	0	0	0	0	
6	0	0	0	0	536	454	0	0	0	0	
7	0	0	0	0	537	487	0	0	0	0	
8	0	0	0	0	538	526	0	0	0	0	
9	0	0	0	0	540	571	0	0	0	0	
10	0	0	0	0	542	606	0	0	0	0	
11	0	0	0	0	543	601	0	0	0	0	
12	0	0	0	0	544	553	0	0	0	0	
13	0	0	0	0	544	472	0	0	0	0	
14	0	0	0	0	544	378	0	0	0	0	
15	0	0	0	0	543	286	0	0	0	0	
0	0	0	0	0	543	213	0	0	0	0	
1	0	0	0	0	540	168	0	0	0	0	
2	0	0	0	0	538	159	0	0	0	0	
3	0	0	0	0	536	187	0	0	0	0	
4	0	0	0	0	532	236	0	0	0	0	
5	0	0	0	0	528	284	0	0	0	0	
6	0	0	0	0	523	323	0	0	0	0	
7	0	0	0	0	517	355	0	0	0	0	
8	0	0	0	0	511	381	0	0	0	0	
9	0	0	0	0	504	403	0	0	0	0	
10	0	0	0	0	497	424	0	0	0	0	
11	0	0	0	0	488	448	0	0	0	0	
12	0	0	0	0	479	477	0	0	0	0	
13	0	0	0	0	470	511	0	0	0	0	
14	0	0	0	0	460	536	0	0	0	0	
15	0	0	0	0	451	521	0	0	0	0	
0	0	0	0	0	440	462	0	0	0	0	
1	0	0	0	0	430	371	0	0	0	0	
2	0	0	0	0	419	266	0	0	0	0	
3	0	0	0	0	407	164	0	0	0	0	
4	0	0	0	0	395	78	0	0	0	0	
5	0	0	0	0	383	20	0	0	0	0	
6	0	0	0	0	370	0	0	0	0	0	
7	0	0	0	0	358	12	0	0	0	0	
8	0	0	0	0	345	49	0	0	0	0	
9	0	0	0	0	334	87	0	0	0	0	
10	0	0	0	0	324	122	0	0	0	0	
11	0	0	0	0	317	152	0	0	0	0	
12	0	0	0	0	313	181	0	0	0	0	
13	0	0	0	0	313	211	0	0	0	0	
14	0	0	0	0	317	246	0	0	0	0	
15	0	0	0	0	324	287	0	0	0	0	
0	0	0	0	0	335	338	0	0	0	0	
1	0	0	0	0	350	398	0	0	0	0	
2	0	0	0	0	368	451	0	0	0	0	
3	0	0	0	0	389	467	0	0	0	0	
4	0	0	0	0	411	438	0	0	0	0	
5	0	0	0	0	435	375	0	0	0	0	
6	0	0	0	0	457	295	0	0	0	0	
7	0	0	0	0	479	217	0	0	0	0	
8	0	0	0	0	500	156	0	0	0	0	
9	0	0	0	0	519	122	0	0	0	0	
10	0	0	0	0	534	124	0	0	0	0	
11	0	0	0	0	547	164	0	0	0	0	
12	0	0	0	0	558	226	0	0	0	0	
13	0	0	0	0	566	286	0	0	0	0	
14	0	0	0	0	572	337	0	0	0	0	
15	0	0	0	0	575	380	0	0	0	0	
0	0	0	0	0	578	415	0	0	0	0	
1	0	0	0	0	579	447	0	0	0	0	
2	0	0	0	0	577	479	0	0	0	0	
3	0	0	0	0	576	513	0	0	0	0	
4	0	0	0	0	574	552	0	0	0	0	
5	0	0	0	0	571	596	0	0	0	0	
6	0	0	0	0	567	632	0	0	0	0	
7	0	0	0	0	563	629	0	0	0	0	
8	0	0	0	0	559	579	0	0	0	0	
9	0	0	0	0	556	496	0	0	0	0	
10	0	0	0	0	551	395	0	0	0	0	
11	0	0	0	0	548	297	0	0	0	0	
12	0	0	0	0	545	219	0	0	0	0	
13	0	0	0	0	543	169	0	0	0	0	
14	0	0	0	0	541	156	0	0	0	0	
15	0	0	0	0	541	184	0	0	0	0	
0	0	0	0	0	541	235	0	0	0	0	
1	0	0	0	0	542	287	0	0	0	0	
2	0	0	0	0	544	334	0	0	0	0	
3	0	0	0	0	547	372	0	0	0	0	
4	0	0	0	0	551	406	0	0	0	0	
5	0	0	0	0	555	438	0	0	0	0	
6	0	0	0	0	559	471	0	0	0	0	
7	0	0	0	0	562	508	0	0	0	0	
8	0	0	0	0	566	551	0	0	0	0	
9	0	0	0	0	569	601	0	0	0	0	
10	0	0	0	0	571	641	0	0	0	0	
11	0	0	0	0	573	643	0	0	0	0	
12	0	0	0	0	574	597	0	0	0	0	
13	0	0	0	0	573	516	0	0	0	0	
14	0	0	0	0	573	419	0	0	0	0	
15	0	0	0	0	571	323	0	0	0	0	
0	0	0	0	0	569	245	0	0	0	0	
1	0	0	0	0	567	196	0	0	0	0	
2	0	0	0	0	564	184	0	0	0	0	
3	0	0	0	0	562	211	0	0	0	0	
4	0	0	0	0	561	263	0	0	0	0	
5	0	0	0	0	560	315	0	0	0	0	
6	0	0	0	0	559	360	0	0	0	0	
7	0	0	0	0	560	397	0	0	0	0	
8	0	0	0	0	561	429	0	0	0	0	
9	0	0	0	0	563	458	0	0	0	0	
10	0	0	0	0	564	488	0	0	0	0	
11	0	0	0	0	566	522	0	0	0	0	
12	0	0	0	0	566	561	0	0	0	0	
13	0	0	0	0	567	607	0	0	0	0	
14	0	0	0	0	567	644	0	0	0	0	
15	0	0	0	0	567	642	0	0	0	0	
0	0	0	0	0	566	591	0	0	0	0	
1	0	0	0	0	565	507	0	0	0	0	
2	0	0	0	0	564	406	0	0	0	0	
3	0	0	0	0	562	306	0	0	0	0	
4	0	0	0	0	561	225	0	0	0	0	
5	0	0	0	0	559	175	0	0	0	0	
6	0	0	0	0	558	162	0	0	0	0	
7	0	0	0	0	557	190	0	0	0	0	
8	0	0	0	0	556	243	0	0	0	0	
9	0	0	0	0	556	298	0	0	0	0	
10	0	0	0	0	557	348	0	0	0	0	
11	0	0	0	0	557	391	0	0	0	0	
12	0	0	0	0	559	428	0	0	0	0	
13	0	0	0	0	560	463	0	0	0	0	
14	0	0	0	0	562	499	0	0	0	0	
15	0	0	0	0	563	537	0	0	0	0	
0	0	0	0	0	565	581	0	0	0	0	
1	0	0	0	0	566	630	0	0	0	0	
2	0	0	0	0	568	669	0	0	0	0	
3	0	0	0	0	568	668	0	0	0	0	
4	0	0	0	0	568	618	0	0	0	0	
5	0	0	0	0	567	532	0	0	0	0	
6	0	0	0	0	566	429	0	0	0	0	
7	0	0	0	0	564	326	0	0	0	0	
8	0	0	0	0	563	242	0	0	0	0	
9	0	0	0	0	561	188	0	0	0	0	
10	0	0	0	0	559	171	0	0	0	0	
11	0	0	0	0	558	195	0	0	0	0	
12	0	0	0	0	556	245	0	0	0	0	
13	0	0	0	0	555	297	0	0	0	0	
14	0	0	0	0	553	343	0	0	0	0	
15	0	0	0	0	553	383	0	0	0	0	
0	0	0	0	0	553	416	0	0	0	0	
1	0	0	0	0	552	449	0	0	0	0	
2	0	0	0	0	552	483	0	0	0	0	
3	0	0	0	0	552	520	0	0	0	0	
4	0	0	0	0	552	563	0	0	0	0	
5	0	0	0	0	553	612	0	0	0	0	
6	0	0	0	0	555	654	0	0	0	0	
7	0	0	0	0	556	657	0	0	0	0	
8	0	0	0	0	558	613	0	0	0	0	
9	0	0	0	0	559	533	0	0	0	0	
10	0	0	0	0	562	435	0	0	0	0	
11	0	0	0	0	563	339	0	0	0	0	
12	0	0	0	0	564	259	0	0	0	0	
13	0	0	0	0	564	209	0	0	0	0	
14	0	0	0	0	563	195	0	0	0	0	
15	0	0	0	0	563	221	0	0	0	0	
0	0	0	0	0	562	271	0	0	0	0	
1	0	0	0	0	560	321	0	0	0	0	
2	0	0	0	0	558	364	0	0	0	0	
3	0	0	0	0	557	399	0	0	0	0	
4	0	0	0	0	557	429	0	0	0	0	
5	0	0	0	0	557	455	0	0	0	0	
6	0	0	0	0	557	484	0	0	0	0	
7	0	0	0	0	556	516	0	0	0	0	
8	0	0	0	0	556	556	0	0	0	0	
9	0	0	0	0	557	602	0	0	0	0	
10	0	0	0	0	557	641	0	0	0	0	
11	0	0	0	0	558	642	0	0	0	0	
12	0	0	0	0	558	594	0	0	0	0	
13	0	0	0	0	558	510	0	0	0	0	
14	0	0	0	0	559	409	0	0	0	0	
15	0	0	0	0	559	310	0	0	0	0	
0	0	0	0	0	559	228	0	0	0	0	
1	0	0	0	0	559	177	0	0	0	0	
2	0	0	0	0	560	164	0	0	0	0	
3	0	0	0	0	560	191	0	0	0	0	
4	0	0	0	0	559	244	0	0	0	0	
5	0	0	0	0	559	300	0	0	0	0	
6	0	0	0	0	559	350	0	0	0	0	
7	0	0	0	0	559	393	0	0	0	0	
8	0	0	0	0	559	430	0	0	0	0	
9	0	0	0	0	559	464	0	0	0	0	
10	0	0	0	0	559	499	0	0	0	0	
11	0	0	0	0	559	536	0	0	0	0	
12	0	0	0	0	558	579	0	0	0	0	
13	0	0	0	0	558	627	0	0	0	0	
14	0	0	0	0	557	667	0	0	0	0	
15	0	0	0	0	556	666	0	0	0	0	
0	0	0	0	0	555	615	0	0	0	0	
1	0	0	0	0	555	530	0	0	0	0	
2	0	0	0	0	555	425	0	0	0	0	
3	0	0	0	0	554	321	0	0	0	0	
4	0	0	0	0	554	237	0	0	0	0	
5	0	0	0	0	554	182	0	0	0	0	
6	0	0	0	0	554	166	0	0	0	0	
7	0	0	0	0	554	191	0	0	0	0	
8	0	0	0	0	553	243	0	0	0	0	
9	0	0	0	0	552	296	0	0	0	0	
10	0	0	0	0	551	344	0	0	0	0	
11	0	0	0	0	551	385	0	0	0	0	
12	0	0	0	0	552	421	0	0	0	0	
13	0	0	0	0	552	455	0	0	0	0	
14	0	0	0	0	553	489	0	0	0	0	
15	0	0	0	0	553	527	0	0	0	0	
0	0	0	0	0	554	571	0	0	0	0	
1	0	0	0	0	555	621	0	0	0	0	
2	0	0	0	0	555	662	0	0	0	0	
3	0	0	0	0	556	664	0	0	0	0	
4	0	0	0	0	556	615	0	0	0	0	
5	0	0	0	0	556	531	0	0	0	0	
6	0	0	0	0	556	427	0	0	0	0	
7	0	0	0	0	556	324	0	0	0	0	
8	0	0	0	0	556	239	0	0	0	0	
9	0	0	0	0	556	183	0	0	0	0	
10	0	0	0	0	556	167	0	0	0	0	
11	0	0	0	0	556	191	0	0	0	0	
12	0	0	0	0	555	243	0	0	0	0	
13	0	0	0	0	555	297	0	0	0	0	
14	0	0	0	0	554	346	0	0	0	0	
15	0	0	0	0	555	390	0	0	0	0	
0	0	0	0	0	555	427	0	0	0	0	
1	0	0	0	0	556	462	0	0	0	0	
2	0	0	0	0	556	498	0	0	0	0	
3	0	0	0	0	556	537	0	0	0	0	
4	0	0	0	0	557	583	0	0	0	0	
5	0	0	0	0	559	632	0	0	0	0	
6	0	0	0	0	559	675	0	0	0	0	
7	0	0	0	0	560	677	0	0	0	0	
8	0	0	0	0	559	629	0	0	0	0	
9	0	0	0	0	560	543	0	0	0	0	
10	0	0	0	0	559	438	0	0	0	0	
11	0	0	0	0	558	331	0	0	0	0	
12	0	0	0	0	557	244	0	0	0	0	
13	0	0	0	0	556	187	0	0	0	0	
14	0	0	0	0	555	168	0	0	0	0	
15	0	0	0	0	555	191	0	0	0	0	
0	0	0	0	0	554	242	0	0	0	0	
1	0	0	0	0	554	297	0	0	0	0	
2	0	0	0	0	555	347	0	0	0	0	
3	0	0	0	0	556	390	0	0	0	0	
4	0	0	0	0	557	428	0	0	0	0	
5	0	0	0	0	558	463	0	0	0	0	
6	0	0	0	0	558	500	0	0	0	0	
7	0	0	0	0	559	541	0	0	0	0	
8	0	0	0	0	559	587	0	0	0	0	
9	0	0	0	0	560	638	0	0	0	0	
10	0	0	0	0	560	681	0	0	0	0	
11	0	0	0	0	559	684	0	0	0	0	
12	0	0	0	0	560	637	0	0	0	0	
13	0	0	0	0	559	550	0	0	0	0	
14	0	0	0	0	559	443	0	0	0	0	
15	0	0	0	0	558	335	0	0	0	0	
0	0	0	0	0	558	246	0	0	0	0	
1	0	0	0	0	556	186	0	0	0	0	
2	0	0	0	0	556	165	0	0	0	0	
3	0	0	0	0	555	187	0	0	0	0	
4	0	0	0	0	553	238	0	0	0	0	
5	0	0	0	0	552	292	0	0	0	0	
6	0	0	0	0	552	343	0	0	0	0	
7	0	0	0	0	551	388	0	0	0	0	
8	0	0	0	0	551	429	0	0	0	0	
9	0	0	0	0	552	468	0	0	0	0	
10	0	0	0	0	552	508	0	0	0	0	
11	0	0	0	0	555	552	0	0	0	0	
12	0	0	0	0	555	600	0	0	0	0	
13	0	0	0	0	557	653	0	0	0	0	
14	0	0	0	0	558	698	0	0	0	0	
15	0	0	0	0	559	702	0	0	0	0	
0	0	0	0	0	559	655	0	0	0	0	
1	0	0	0	0	559	568	0	0	0	0	
2	0	0	0	0	559	460	0	0	0	0	
3	0	0	0	0	558	351	0	0	0	0	
4	0	0	0	0	556	259	0	0	0	0	
5	0	0	0	0	555	197	0	0	0	0	
6	0	0	0	0	553	174	0	0	0	0	
7	0	0	0	0	553	193	0	0	0	0	
8	0	0	0	0	552	242	0	0	0	0	
9	0	0	0	0	552	295	0	0	0	0	
10	0	0	0	0	552	343	0	0	0	0	
11	0	0	0	0	552	385	0	0	0	0	
12	0	0	0	0	554	422	0	0	0	0	
13	0	0	0	0	555	458	0	0	0	0	
14	0	0	0	0	557	495	0	0	0	0	
15	0	0	0	0	558	536	0	0	0	0	
0	0	0	0	0	559	583	0	0	0	0	
1	0	0	0	0	561	636	0	0	0	0	
2	0	0	0	0	562	681	0	0	0	0	
3	0	0	0	0	563	685	0	0	0	0	
4	0	0	0	0	564	639	0	0	0	0	
5	0	0	0	0	565	552	0	0	0	0	
6	0	0	0	0	565	445	0	0	0	0	
7	0	0	0	0	565	335	0	0	0	0	
8	0	0	0	0	566	245	0	0	0	0	
9	0	0	0	0	566	184	0	0	0	0	
10	0	0	0	0	565	163	0	0	0	0	
11	0	0	0	0	565	185	0	0	0	0	
12	0	0	0	0	564	237	0	0	0	0	
13	0	0	0	0	564	293	0	0	0	0	
14	0	0	0	0	563	344	0	0	0	0	
15	0	0	0	0	562	390	0	0	0	0	
0	0	0	0	0	562	430	0	0	0	0	
1	0	0	0	0	562	468	0	0	0	0	
2	0	0	0	0	561	507	0	0	0	0	
3	0	0	0	0	560	548	0	0	0	0	
4	0	0	0	0	560	595	0	0	0	0	
5	0	0	0	0	561	648	0	0	0	0	
6	0	0	0	0	561	692	0	0	0	0	
7	0	0	0	0	561	697	0	0	0	0	
8	0	0	0	0	562	652	0	0	0	0	
9	0	0	0	0	561	566	0	0	0	0	
10	0	0	0	0	561	460	0	0	0	0	
11	0	0	0	0	560	351	0	0	0	0	
12	0	0	0	0	558	260	0	0	0	0	
13	0	0	0	0	556	199	0	0	0	0	
14	0	0	0	0	554	176	0	0	0	0	
15	0	0	0	0	552	196	0	0	0	0	
0	0	0	0	0	550	245	0	0	0	0	
1	0	0	0	0	549	299	0	0	0	0	
2	0	0	0	0	548	349	0	0	0	0	
3	0	0	0	0	548	394	0	0	0	0	
4	0	0	0	0	549	433	0	0	0	0	
5	0	0	0	0	550	472	0	0	0	0	
6	0	0	0	0	551	511	0	0	0	0	
7	0	0	0	0	553	554	0	0	0	0	
8	0	0	0	0	555	602	0	0	0	0	
9	0	0	0	0	558	655	0	0	0	0	
10	0	0	0	0	560	702	0	0	0	0	
11	0	0	0	0	562	707	0	0	0	0	
12	0	0	0	0	565	661	0	0	0	0	
13	0	0	0	0	565	575	0	0	0	0	
14	0	0	0	0	567	467	0	0	0	0	
15	0	0	0	0	567	359	0	0	0	0	
0	0	0	0	0	566	266	0	0	0	0	
1	0	0	0	0	564	206	0	0	0	0	
2	0	0	0	0	562	182	0	0	0	0	
3	0	0	0	0	561	203	0	0	0	0	
4	0	0	0	0	559	252	0	0	0	0	
5	0	0	0	0	556	306	0	0	0	0	
6	0	0	0	0	554	354	0	0	0	0	
7	0	0	0	0	551	396	0	0	0	0	
8	0	0	0	0	551	432	0	0	0	0	
9	0	0	0	0	551	466	0	0	0	0	
10	0	0	0	0	550	501	0	0	0	0	
11	0	0	0	0	551	541	0	0	0	0	
12	0	0	0	0	551	586	0	0	0	0	
13	0	0	0	0	552	637	0	0	0	0	
14	0	0	0	0	553	683	0	0	0	0	
15	0	0	0	0	555	690	0	0	0	0	
0	0	0	0	0	555	647	0	0	0	0	
1	0	0	0	0	555	568	0	0	0	0	
2	0	0	0	0	555	468	0	0	0	0	
3	0	0	0	0	555	367	0	0	0	0	
4	0	0	0	0	553	282	0	0	0	0	
5	0	0	0	0	551	226	0	0	0	0	
6	0	0	0	0	550	208	0	0	0	0	
7	0	0	0	0	548	230	0	0	0	0	
8	0	0	0	0	547	281	0	0	0	0	
9	0	0	0	0	545	335	0	0	0	0	
10	0	0	0	0	543	384	0	0	0	0	
11	0	0	0	0	543	425	0	0	0	0	
12	0	0	0	0	544	461	0	0	0	0	
13	0	0	0	0	545	494	0	0	0	0	
14	0	0	0	0	547	528	0	0	0	0	
15	0	0	0	0	548	566	0	0	0	0	
0	0	0	0	0	551	609	0	0	0	0	
1	0	0	0	0	553	658	0	0	0	0	
2	0	0	0	0	555	700	0	0	0	0	
3	0	0	0	0	556	703	0	0	0	0	
4	0	0	0	0	556	654	0	0	0	0	
5	0	0	0	0	557	567	0	0	0	0	
6	0	0	0	0	556	457	0	0	0	0	
7	0	0	0	0	555	347	0	0	0	0	
8	0	0	0	0	554	255	0	0	0	0	
9	0	0	0	0	551	192	0	0	0	0	
10	0	0	0	0	550	170	0	0	0	0	
11	0	0	0	0	549	190	0	0	0	0	
12	0	0	0	0	548	241	0	0	0	0	
13	0	0	0	0	547	297	0	0	0	0	
14	0	0	0	0	546	349	0	0	0	0	
15	0	0	0	0	546	393	0	0	0	0	
0	0	0	0	0	547	433	0	0	0	0	
1	0	0	0	0	547	470	0	0	0	0	
2	0	0	0	0	548	508	0	0	0	0	
3	0	0	0	0	547	549	0	0	0	0	
4	0	0	0	0	548	595	0	0	0	0	
5	0	0	0	0	548	647	0	0	0	0	
6	0	0	0	0	548	692	0	0	0	0	
7	0	0	0	0	548	700	0	0	0	0	
8	0	0	0	0	547	658	0	0	0	0	
9	0	0	0	0	547	577	0	0	0	0	
10	0	0	0	0	546	475	0	0	0	0	
11	0	0	0	0	544	371	0	0	0	0	
12	0	0	0	0	543	284	0	0	0	0	
13	0	0	0	0	542	225	0	0	0	0	
14	0	0	0	0	540	204	0	0	0	0	
15	0	0	0	0	539	225	0	0	0	0	
0	0	0	0	0	537	274	0	0	0	0	
1	0	0	0	0	536	326	0	0	0	0	
2	0	0	0	0	536	372	0	0	0	0	
3	0	0	0	0	536	411	0	0	0	0	
4	0	0	0	0	537	444	0	0	0	0	
5	0	0	0	0	539	475	0	0	0	0	
6	0	0	0	0	542	507	0	0	0	0	
7	0	0	0	0	544	544	0	0	0	0	
8	0	0	0	0	547	588	0	0	0	0	
9	0	0	0	0	550	637	0	0	0	0	
10	0	0	0	0	552	682	0	0	0	0	
11	0	0	0	0	555	690	0	0	0	0	
12	0	0	0	0	555	649	0	0	0	0	
13	0	0	0	0	555	570	0	0	0	0	
14	0	0	0	0	554	471	0	0	0	0	
15	0	0	0	0	552	369	0	0	0	0	
0	0	0	0	0	549	284	0	0	0	0	
1	0	0	0	0	546	228	0	0	0	0	
2	0	0	0	0	542	209	0	0	0	0	
3	0	0	0	0	538	230	0	0	0	0	
4	0	0	0	0	534	280	0	0	0	0	
5	0	0	0	0	531	332	0	0	0	0	
6	0	0	0	0	529	379	0	0	0	0	
7	0	0	0	0	528	417	0	0	0	0	
8	0	0	0	0	528	449	0	0	0	0	
9	0	0	0	0	529	479	0	0	0	0	
10	0	0	0	0	531	510	0	0	0	0	
11	0	0	0	0	532	545	0	0	0	0	
12	0	0	0	0	534	587	0	0	0	0	
13	0	0	0	0	537	636	0	0	0	0	
14	0	0	0	0	540	680	0	0	0	0	
15	0	0	0	0	542	688	0	0	0	0	
0	0	0	0	0	545	647	0	0	0	0	
1	0	0	0	0	546	568	0	0	0	0	
2	0	0	0	0	548	469	0	0	0	0	
3	0	0	0	0	548	368	0	0	0	0	
4	0	0	0	0	548	283	0	0	0	0	
5	0	0	0	0	547	226	0	0	0	0	
6	0	0	0	0	546	208	0	0	0	0	
7	0	0	0	0	544	230	0	0	0	0	
8	0	0	0	0	542	280	0	0	0	0	
9	0	0	0	0	541	335	0	0	0	0	
10	0	0	0	0	539	384	0	0	0	0	
11	0	0	0	0	537	425	0	0	0	0	
12	0	0	0	0	537	462	0	0	0	0	
13	0	0	0	0	536	495	0	0	0	0	
14	0	0	0	0	536	529	0	0	0	0	
15	0	0	0	0	536	567	0	0	0	0	
0	0	0	0	0	537	609	0	0	0	0	
1	0	0	0	0	538	659	0	0	0	0	
2	0	0	0	0	540	703	0	0	0	0	
3	0	0	0	0	542	710	0	0	0	0	
4	0	0	0	0	544	667	0	0	0	0	
5	0	0	0	0	546	585	0	0	0	0	
6	0	0	0	0	547	482	0	0	0	0	
7	0	0	0	0	549	377	0	0	0	0	
8	0	0	0	0	550	289	0	0	0	0	
9	0	0	0	0	550	230	0	0	0	0	
10	0	0	0	0	551	211	0	0	0	0	
11	0	0	0	0	552	231	0	0	0	0	
12	0	0	0	0	552	284	0	0	0	0	
13	0	0	0	0	553	340	0	0	0	0	
14	0	0	0	0	553	390	0	0	0	0	
15	0	0	0	0	555	434	0	0	0	0	
0	0	0	0	0	556	471	0	0	0	0	
1	0	0	0	0	557	504	0	0	0	0	
2	0	0	0	0	558	539	0	0	0	0	
3	0	0	0	0	557	575	0	0	0	0	
4	0	0	0	0	558	619	0	0	0	0	
5	0	0	0	0	558	667	0	0	0	0	
6	0	0	0	0	557	710	0	0	0	0	
7	0	0	0	0	556	716	0	0	0	0	
8	0	0	0	0	554	673	0	0	0	0	
9	0	0	0	0	552	591	0	0	0	0	
10	0	0	0	0	550	488	0	0	0	0	
11	0	0	0	0	547	383	0	0	0	0	
12	0	0	0	0	544	294	0	0	0	0	
13	0	0	0	0	541	233	0	0	0	0	
14	0	0	0	0	539	212	0	0	0	0	
15	0	0	0	0	537	231	0	0	0	0	
0	0	0	0	0	535	280	0	0	0	0	
1	0	0	0	0	534	335	0	0	0	0	
2	0	0	0	0	533	385	0	0	0	0	
3	0	0	0	0	533	429	0	0	0	0	
4	0	0	0	0	534	468	0	0	0	0	
5	0	0	0	0	536	505	0	0	0	0	
6	0	0	0	0	539	543	0	0	0	0	
7	0	0	0	0	541	583	0	0	0	0	
8	0	0	0	0	543	628	0	0	0	0	
9	0	0	0	0	547	679	0	0	0	0	
10	0	0	0	0	548	723	0	0	0	0	
11	0	0	0	0	551	732	0	0	0	0	
12	0	0	0	0	552	689	0	0	0	0	
13	0	0	0	0	552	606	0	0	0	0	
14	0	0	0	0	553	502	0	0	0	0	
15	0	0	0	0	553	393	0	0	0	0	
0	0	0	0	0	552	301	0	0	0	0	
1	0	0	0	0	550	238	0	0	0	0	
2	0	0	0	0	549	214	0	0	0	0	
3	0	0	0	0	547	231	0	0	0	0	
4	0	0	0	0	545	279	0	0	0	0	
5	0	0	0	0	543	334	0	0	0	0	
6	0	0	0	0	542	385	0	0	0	0	
7	0	0	0	0	542	430	0	0	0	0	
8	0	0	0	0	542	471	0	0	0	0	
9	0	0	0	0	543	509	0	0	0	0	
10	0	0	0	0	543	548	0	0	0	0	
11	0	0	0	0	543	589	0	0	0	0	
12	0	0	0	0	544	635	0	0	0	0	
13	0	0	0	0	546	686	0	0	0	0	
14	0	0	0	0	546	731	0	0	0	0	
15	0	0	0	0	547	740	0	0	0	0	
0	0	0	0	0	547	701	0	0	0	0	
1	0	0	0	0	546	622	0	0	0	0	
2	0	0	0	0	546	522	0	0	0	0	
3	0	0	0	0	544	418	0	0	0	0	
4	0	0	0	0	542	329	0	0	0	0	
5	0	0	0	0	541	269	0	0	0	0	
6	0	0	0	0	538	245	0	0	0	0	
7	0	0	0	0	537	263	0	0	0	0	
8	0	0	0	0	535	310	0	0	0	0	
9	0	0	0	0	534	361	0	0	0	0	
10	0	0	0	0	534	407	0	0	0	0	
11	0	0	0	0	534	445	0	0	0	0	
12	0	0	0	0	536	479	0	0	0	0	
13	0	0	0	0	537	509	0	0	0	0	
14	0	0	0	0	540	540	0	0	0	0	
15	0	0	0	0	542	575	0	0	0	0	
0	0	0	0	0	543	616	0	0	0	0	
1	0	0	0	0	545	663	0	0	0	0	
2	0	0	0	0	547	706	0	0	0	0	
3	0	0	0	0	548	715	0	0	0	0	
4	0	0	0	0	550	673	0	0	0	0	
5	0	0	0	0	549	593	0	0	0	0	
6	0	0	0	0	549	492	0	0	0	0	
7	0	0	0	0	548	389	0	0	0	0	
8	0	0	0	0	547	300	0	0	0	0	
9	0	0	0	0	545	241	0	0	0	0	
10	0	0	0	0	543	218	0	0	0	0	
11	0	0	0	0	541	237	0	0	0	0	
12	0	0	0	0	539	286	0	0	0	0	
13	0	0	0	0	537	340	0	0	0	0	
14	0	0	0	0	536	390	0	0	0	0	
15	0	0	0	0	535	433	0	0	0	0	
0	0	0	0	0	536	471	0	0	0	0	
1	0	0	0	0	536	505	0	0	0	0	
2	0	0	0	0	536	541	0	0	0	0	
3	0	0	0	0	537	580	0	0	0	0	
4	0	0	0	0	537	623	0	0	0	0	
5	0	0	0	0	539	671	0	0	0	0	
6	0	0	0	0	540	716	0	0	0	0	
7	0	0	0	0	541	727	0	0	0	0	
8	0	0	0	0	542	689	0	0	0	0	
9	0	0	0	0	542	614	0	0	0	0	
10	0	0	0	0	542	517	0	0	0	0	
11	0	0	0	0	542	418	0	0	0	0	
12	0	0	0	0	541	332	0	0	0	0	
13	0	0	0	0	539	275	0	0	0	0	
14	0	0	0	0	538	254	0	0	0	0	
15	0	0	0	0	537	271	0	0	0	0	
0	0	0	0	0	536	319	0	0	0	0	
1	0	0	0	0	536	371	0	0	0	0	
2	0	0	0	0	536	416	0	0	0	0	
3	0	0	0	0	536	454	0	0	0	0	
4	0	0	0	0	537	485	0	0	0	0	
5	0	0	0	0	538	513	0	0	0	0	
6	0	0	0	0	539	543	0	0	0	0	
7	0	0	0	0	540	575	0	0	0	0	
8	0	0	0	0	541	614	0	0	0	0	
9	0	0	0	0	542	660	0	0	0	0	
10	0	0	0	0	543	703	0	0	0	0	
11	0	0	0	0	544	711	0	0	0	0	
12	0	0	0	0	544	671	0	0	0	0	
13	0	0	0	0	545	592	0	0	0	0	
14	0	0	0	0	545	492	0	0	0	0	
15	0	0	0	0	545	389	0	0	0	0	
0	0	0	0	0	545	302	0	0	0	0	
1	0	0	0	0	544	244	0	0	0	0	
2	0	0	0	0	544	223	0	0	0	0	
3	0	0	0	0	543	243	0	0	0	0	
4	0	0	0	0	543	294	0	0	0	0	
5	0	0	0	0	542	350	0	0	0	0	
6	0	0	0	0	541	402	0	0	0	0	
7	0	0	0	0	541	447	0	0	0	0	
8	0	0	0	0	541	486	0	0	0	0	
9	0	0	0	0	542	521	0	0	0	0	
10	0	0	0	0	542	557	0	0	0	0	
11	0	0	0	0	542	595	0	0	0	0	
12	0	0	0	0	542	638	0	0	0	0	
13	0	0	0	0	543	685	0	0	0	0	
14	0	0	0	0	543	728	0	0	0	0	
15	0	0	0	0	543	737	0	0	0	0	
0	0	0	0	0	543	697	0	0	0	0	
1	0	0	0	0	543	619	0	0	0	0	
2	0	0	0	0	543	518	0	0	0	0	
3	0	0	0	0	542	415	0	0	0	0	
4	0	0	0	0	542	326	0	0	0	0	
5	0	0	0	0	541	266	0	0	0	0	
6	0	0	0	0	541	243	0	0	0	0	
7	0	0	0	0	541	261	0	0	0	0	
8	0	0	0	0	541	310	0	0	0	0	
9	0	0	0	0	542	365	0	0	0	0	
10	0	0	0	0	542	415	0	0	0	0	
11	0	0	0	0	543	459	0	0	0	0	
12	0	0	0	0	545	496	0	0	0	0	
13	0	0	0	0	547	531	0	0	0	0	
14	0	0	0	0	547	566	0	0	0	0	
15	0	0	0	0	548	603	0	0	0	0	
0	0	0	0	0	549	645	0	0	0	0	
1	0	0	0	0	550	691	0	0	0	0	
2	0	0	0	0	551	735	0	0	0	0	
3	0	0	0	0	551	745	0	0	0	0	
4	0	0	0	0	551	707	0	0	0	0	
5	0	0	0	0	551	635	0	0	0	0	
6	0	0	0	0	551	542	0	0	0	0	
7	0	0	0	0	550	445	0	0	0	0	
8	0	0	0	0	550	362	0	0	0	0	
9	0	0	0	0	547	306	0	0	0	0	
10	0	0	0	0	546	285	0	0	0	0	
11	0	0	0	0	544	302	0	0	0	0	
12	0	0	0	0	541	347	0	0	0	0	
13	0	0	0	0	537	394	0	0	0	0	
14	0	0	0	0	533	432	0	0	0	0	
15	0	0	0	0	528	462	0	0	0	0	
0	0	0	0	0	522	483	0	0	0	0	
1	0	0	0	0	515	500	0	0	0	0	
2	0	0	0	0	506	517	0	0	0	0	
3	0	0	0	0	497	537	0	0	0	0	
4	0	0	0	0	487	562	0	0	0	0	
5	0	0	0	0	477	594	0	0	0	0	
6	0	0	0	0	467	625	0	0	0	0	
7	0	0	0	0	457	625	0	0	0	0	
8	0	0	0	0	446	583	0	0	0	0	
9	0	0	0	0	435	506	0	0	0	0	
10	0	0	0	0	425	412	0	0	0	0	
11	0	0	0	0	415	317	0	0	0	0	
12	0	0	0	0	403	236	0	0	0	0	
13	0	0	0	0	392	179	0	0	0	0	
14	0	0	0	0	380	155	0	0	0	0	
15	0	0	0	0	369	166	0	0	0	0	
0	0	0	0	0	357	203	0	0	0	0	
1	0	0	0	0	346	244	0	0	0	0	
2	0	0	0	0	335	280	0	0	0	0	
3	0	0	0	0	327	311	0	0	0	0	
4	0	0	0	0	321	338	0	0	0	0	
5	0	0	0	0	319	365	0	0	0	0	
6	0	0	0	0	320	394	0	0	0	0	
7	0	0	0	0	324	428	0	0	0	0	
8	0	0	0	0	333	470	0	0	0	0	
9	0	0	0	0	345	520	0	0	0	0	
10	0	0	0	0	362	570	0	0	0	0	
11	0	0	0	0	381	590	0	0	0	0	
12	0	0	0	0	402	565	0	0	0	0	
13	0	0	0	0	424	505	0	0	0	0	
14	0	0	0	0	448	427	0	0	0	0	
15	0	0	0	0	470	348	0	0	0	0	
0	0	0	0	0	492	282	0	0	0	0	
1	0	0	0	0	511	244	0	0	0	0	
2	0	0	0	0	528	239	0	0	0	0	
3	0	0	0	0	543	273	0	0	0	0	
4	0	0	0	0	556	335	0	0	0	0	
5	0	0	0	0	565	401	0	0	0	0	
6	0	0	0	0	572	459	0	0	0	0	
7	0	0	0	0	575	508	0	0	0	0	
8	0	0	0	0	578	550	0	0	0	0	
9	0	0	0	0	578	585	0	0	0	0	
10	0	0	0	0	577	619	0	0	0	0	
11	0	0	0	0	573	653	0	0	0	0	
12	0	0	0	0	570	690	0	0	0	0	
13	0	0	0	0	566	730	0	0	0	0	
14	0	0	0	0	562	767	0	0	0	0	
15	0	0	0	0	558	775	0	0	0	0	
0	0	0	0	0	554	740	0	0	0	0	
1	0	0	0	0	551	673	0	0	0	0	
2	0	0	0	0	550	587	0	0	0	0	
3	0	0	0	0	548	498	0	0	0	0	
4	0	0	0	0	547	423	0	0	0	0	
5	0	0	0	0	547	372	0	0	0	0	
6	0	0	0	0	547	355	0	0	0	0	
7	0	0	0	0	547	374	0	0	0	0	
8	0	0	0	0	548	419	0	0	0	0	
9	0	0	0	0	548	465	0	0	0	0	
10	0	0	0	0	549	504	0	0	0	0	
11	0	0	0	0	550	534	0	0	0	0	
12	0	0	0	0	551	557	0	0	0	0	
13	0	0	0	0	553	576	0	0	0	0	
14	0	0	0	0	554	596	0	0	0	0	
15	0	0	0	0	556	621	0	0	0	0	
0	0	0	0	0	556	651	0	0	0	0	
1	0	0	0	0	557	689	0	0	0	0	
2	0	0	0	0	559	728	0	0	0	0	
3	0	0	0	0	559	738	0	0	0	0	
4	0	0	0	0	560	708	0	0	0	0	
5	0	0	0	0	560	646	0	0	0	0	
6	0	0	0	0	561	567	0	0	0	0	
7	0	0	0	0	562	485	0	0	0	0	
8	0	0	0	0	562	417	0	0	0	0	
9	0	0	0	0	562	373	0	0	0	0	
10	0	0	0	0	562	361	0	0	0	0	
11	0	0	0	0	563	385	0	0	0	0	
12	0	0	0	0	563	434	0	0	0	0	
13	0	0	0	0	563	483	0	0	0	0	
14	0	0	0	0	563	522	0	0	0	0	
15	0	0	0	0	564	552	0	0	0	0	
0	0	0	0	0	564	573	0	0	0	0	
1	0	0	0	0	566	590	0	0	0	0	
2	0	0	0	0	566	608	0	0	0	0	
3	0	0	0	0	567	629	0	0	0	0	
4	0	0	0	0	567	656	0	0	0	0	
5	0	0	0	0	567	691	0	0	0	0	
6	0	0	0	0	567	727	0	0	0	0	
7	0	0	0	0	566	735	0	0	0	0	
8	0	0	0	0	565	702	0	0	0	0	
9	0	0	0	0	563	636	0	0	0	0	
10	0	0	0	0	563	552	0	0	0	0	
11	0	0	0	0	561	467	0	0	0	0	
12	0	0	0	0	560	395	0	0	0	0	
13	0	0	0	0	559	349	0	0	0	0	
14	0	0	0	0	558	335	0	0	0	0	
15	0	0	0	0	558	359	0	0	0	0	
0	0	0	0	0	558	409	0	0	0	0	
1	0	0	0	0	558	460	0	0	0	0	
2	0	0	0	0	559	503	0	0	0	0	
3	0	0	0	0	560	537	0	0	0	0	
4	0	0	0	0	562	563	0	0	0	0	
5	0	0	0	0	564	585	0	0	0	0	
6	0	0	0	0	565	606	0	0	0	0	
7	0	0	0	0	566	630	0	0	0	0	
8	0	0	0	0	567	660	0	0	0	0	
9	0	0	0	0	568	696	0	0	0	0	
10	0	0	0	0	568	732	0	0	0	0	
11	0	0	0	0	568	742	0	0	0	0	
12	0	0	0	0	567	710	0	0	0	0	
13	0	0	0	0	567	646	0	0	0	0	
14	0	0	0	0	566	564	0	0	0	0	
15	0	0	0	0	565	480	0	0	0	0	
0	0	0	0	0	563	409	0	0	0	0	
1	0	0	0	0	562	364	0	0	0	0	
2	0	0	0	0	560	351	0	0	0	0	
3	0	0	0	0	560	373	0	0	0	0	
4	0	0	0	0	558	422	0	0	0	0	
5	0	0	0	0	557	471	0	0	0	0	
6	0	0	0	0	556	512	0	0	0	0	
7	0	0	0	0	556	543	0	0	0	0	
8	0	0	0	0	556	567	0	0	0	0	
9	0	0	0	0	556	585	0	0	0	0	
10	0	0	0	0	556	604	0	0	0	0	
11	0	0	0	0	556	624	0	0	0	0	
12	0	0	0	0	556	652	0	0	0	0	
13	0	0	0	0	556	686	0	0	0	0	
14	0	0	0	0	556	721	0	0	0	0	
15	0	0	0	0	556	728	0	0	0	0	
0	0	0	0	0	555	694	0	0	0	0	
1	0	0	0	0	555	624	0	0	0	0	
2	0	0	0	0	554	537	0	0	0	0	
3	0	0	0	0	553	449	0	0	0	0	
4	0	0	0	0	551	374	0	0	0	0	
5	0	0	0	0	550	325	0	0	0	0	
6	0	0	0	0	549	310	0	0	0	0	
7	0	0	0	0	548	331	0	0	0	0	
8	0	0	0	0	548	381	0	0	0	0	
9	0	0	0	0	547	433	0	0	0	0	
10	0	0	0	0	548	479	0	0	0	0	
11	0	0	0	0	549	514	0	0	0	0	
12	0	0	0	0	551	544	0	0	0	0	
13	0	0	0	0	553	569	0	0	0	0	
14	0	0	0	0	556	594	0	0	0	0	
15	0	0	0	0	557	621	0	0	0	0	
0	0	0	0	0	558	653	0	0	0	0	
1	0	0	0	0	559	691	0	0	0	0	
2	0	0	0	0	560	728	0	0	0	0	
3	0	0	0	0	560	737	0	0	0	0	
4	0	0	0	0	560	703	0	0	0	0	
5	0	0	0	0	559	633	0	0	0	0	
6	0	0	0	0	558	544	0	0	0	0	
7	0	0	0	0	556	452	0	0	0	0	
8	0	0	0	0	554	375	0	0	0	0	
9	0	0	0	0	552	322	0	0	0	0	
10	0	0	0	0	549	303	0	0	0	0	
11	0	0	0	0	548	322	0	0	0	0	
12	0	0	0	0	547	369	0	0	0	0	
13	0	0	0	0	546	422	0	0	0	0	
14	0	0	0	0	547	467	0	0	0	0	
15	0	0	0	0	547	504	0	0	0	0	
0	0	0	0	0	548	534	0	0	0	0	
1	0	0	0	0	550	560	0	0	0	0	
2	0	0	0	0	552	586	0	0	0	0	
3	0	0	0	0	554	615	0	0	0	0	
4	0	0	0	0	556	648	0	0	0	0	
5	0	0	0	0	557	688	0	0	0	0	
6	0	0	0	0	558	727	0	0	0	0	
7	0	0	0	0	559	737	0	0	0	0	
8	0	0	0	0	559	704	0	0	0	0	
9	0	0	0	0	558	635	0	0	0	0	
10	0	0	0	0	557	548	0	0	0	0	
11	0	0	0	0	556	457	0	0	0	0	
12	0	0	0	0	554	379	0	0	0	0	
13	0	0	0	0	552	326	0	0	0	0	
14	0	0	0	0	550	306	0	0	0	0	
15	0	0	0	0	548	324	0	0	0	0	
0	0	0	0	0	546	370	0	0	0	0	
1	0	0	0	0	544	419	0	0	0	0	
2	0	0	0	0	543	462	0	0	0	0	
3	0	0	0	0	543	497	0	0	0	0	
4	0	0	0	0	543	524	0	0	0	0	
5	0	0	0	0	544	548	0	0	0	0	
6	0	0	0	0	545	573	0	0	0	0	
7	0	0	0	0	547	600	0	0	0	0	
8	0	0	0	0	548	633	0	0	0	0	
9	0	0	0	0	550	673	0	0	0	0	
10	0	0	0	0	552	712	0	0	0	0	
11	0	0	0	0	553	724	0	0	0	0	
12	0	0	0	0	555	692	0	0	0	0	
13	0	0	0	0	555	624	0	0	0	0	
14	0	0	0	0	555	536	0	0	0	0	
15	0	0	0	0	555	444	0	0	0	0	
0	0	0	0	0	553	365	0	0	0	0	
1	0	0	0	0	551	311	0	0	0	0	
2	0	0	0	0	550	291	0	0	0	0	
3	0	0	0	0	548	308	0	0	0	0	
4	0	0	0	0	546	355	0	0	0	0	
5	0	0	0	0	545	406	0	0	0	0	
6	0	0	0	0	545	449	0	0	0	0	
7	0	0	0	0	544	483	0	0	0	0	
8	0	0	0	0	544	510	0	0	0	0	
9	0	0	0	0	545	534	0	0	0	0	
10	0	0	0	0	546	557	0	0	0	0	
11	0	0	0	0	547	583	0	0	0	0	
12	0	0	0	0	547	615	0	0	0	0	
13	0	0	0	0	549	655	0	0	0	0	
14	0	0	0	0	550	694	0	0	0	0	
15	0	0	0	0	551	707	0	0	0	0	
0	0	0	0	0	552	677	0	0	0	0	
1	0	0	0	0	552	610	0	0	0	0	
2	0	0	0	0	552	524	0	0	0	0	
3	0	0	0	0	552	434	0	0	0	0	
4	0	0	0	0	551	357	0	0	0	0	
5	0	0	0	0	550	305	0	0	0	0	
6	0	0	0	0	548	286	0	0	0	0	
7	0	0	0	0	547	304	0	0	0	0	
8	0	0	0	0	545	351	0	0	0	0	
9	0	0	0	0	543	403	0	0	0	0	
10	0	0	0	0	542	446	0	0	0	0	
11	0	0	0	0	542	479	0	0	0	0	
12	0	0	0	0	542	504	0	0	0	0	
13	0	0	0	0	542	526	0	0	0	0	
14	0	0	0	0	543	548	0	0	0	0	
15	0	0	0	0	544	574	0	0	0	0	
0	0	0	0	0	545	605	0	0	0	0	
1	0	0	0	0	548	645	0	0	0	0	
2	0	0	0	0	550	686	0	0	0	0	
3	0	0	0	0	551	699	0	0	0	0	
4	0	0	0	0	553	667	0	0	0	0	
5	0	0	0	0	555	599	0	0	0	0	
6	0	0	0	0	556	509	0	0	0	0	
7	0	0	0	0	556	415	0	0	0	0	
8	0	0	0	0	556	335	0	0	0	0	
9	0	0	0	0	556	280	0	0	0	0	
10	0	0	0	0	554	259	0	0	0	0	
11	0	0	0	0	553	277	0	0	0	0	
12	0	0	0	0	552	326	0	0	0	0	
13	0	0	0	0	551	380	0	0	0	0	
14	0	0	0	0	550	428	0	0	0	0	
15	0	0	0	0	548	467	0	0	0	0	
0	0	0	0	0	548	499	0	0	0	0	
1	0	0	0	0	547	527	0	0	0	0	
2	0	0	0	0	547	556	0	0	0	0	
3	0	0	0	0	547	586	0	0	0	0	
4	0	0	0	0	548	622	0	0	0	0	
5	0	0	0	0	548	663	0	0	0	0	
6	0	0	0	0	550	704	0	0	0	0	
7	0	0	0	0	550	716	0	0	0	0	
8	0	0	0	0	551	683	0	0	0	0	
9	0	0	0	0	551	609	0	0	0	0	
10	0	0	0	0	551	514	0	0	0	0	
11	0	0	0	0	551	414	0	0	0	0	
12	0	0	0	0	551	326	0	0	0	0	
13	0	0	0	0	551	265	0	0	0	0	
14	0	0	0	0	549	238	0	0	0	0	
15	0	0	0	0	548	252	0	0	0	0	
0	0	0	0	0	547	297	0	0	0	0	
1	0	0	0	0	546	348	0	0	0	0	
2	0	0	0	0	544	392	0	0	0	0	
3	0	0	0	0	544	429	0	0	0	0	
4	0	0	0	0	544	460	0	0	0	0	
5	0	0	0	0	545	486	0	0	0	0	
6	0	0	0	0	545	513	0	0	0	0	
7	0	0	0	0	546	544	0	0	0	0	
8	0	0	0	0	547	582	0	0	0	0	
9	0	0	0	0	548	627	0	0	0	0	
10	0	0	0	0	550	673	0	0	0	0	
11	0	0	0	0	551	691	0	0	0	0	
12	0	0	0	0	551	663	0	0	0	0	
13	0	0	0	0	551	595	0	0	0	0	
14	0	0	0	0	552	506	0	0	0	0	
15	0	0	0	0	552	411	0	0	0	0	
0	0	0	0	0	551	329	0	0	0	0	
1	0	0	0	0	551	272	0	0	0	0	
2	0	0	0	0	550	248	0	0	0	0	
3	0	0	0	0	549	264	0	0	0	0	
4	0	0	0	0	549	311	0	0	0	0	
5	0	0	0	0	548	363	0	0	0	0	
6	0	0	0	0	547	408	0	0	0	0	
7	0	0	0	0	547	443	0	0	0	0	
8	0	0	0	0	548	472	0	0	0	0	
9	0	0	0	0	549	496	0	0	0	0	
10	0	0	0	0	550	522	0	0	0	0	
11	0	0	0	0	551	551	0	0	0	0	
12	0	0	0	0	552	587	0	0	0	0	
13	0	0	0	0	553	630	0	0	0	0	
14	0	0	0	0	555	673	0	0	0	0	
15	0	0	0	0	556	689	0	0	0	0	
0	0	0	0	0	556	657	0	0	0	0	
1	0	0	0	0	556	585	0	0	0	0	
2	0	0	0	0	556	491	0	0	0	0	
3	0	0	0	0	556	391	0	0	0	0	
4	0	0	0	0	556	304	0	0	0	0	
5	0	0	0	0	555	243	0	0	0	0	
6	0	0	0	0	554	217	0	0	0	0	
7	0	0	0	0	553	232	0	0	0	0	
8	0	0	0	0	553	280	0	0	0	0	
9	0	0	0	0	552	333	0	0	0	0	
10	0	0	0	0	551	381	0	0	0	0	
11	0	0	0	0	552	422	0	0	0	0	
12	0	0	0	0	554	455	0	0	0	0	
13	0	0	0	0	555	485	0	0	0	0	
14	0	0	0	0	556	515	0	0	0	0	
15	0	0	0	0	557	549	0	0	0	0	
0	0	0	0	0	558	589	0	0	0	0	
1	0	0	0	0	558	635	0	0	0	0	
2	0	0	0	0	558	681	0	0	0	0	
3	0	0	0	0	558	698	0	0	0	0	
4	0	0	0	0	556	665	0	0	0	0	
5	0	0	0	0	555	591	0	0	0	0	
6	0	0	0	0	553	491	0	0	0	0	
7	0	0	0	0	551	385	0	0	0	0	
8	0	0	0	0	550	291	0	0	0	0	
9	0	0	0	0	548	224	0	0	0	0	
10	0	0	0	0	546	195	0	0	0	0	
11	0	0	0	0	545	204	0	0	0	0	
12	0	0	0	0	543	249	0	0	0	0	
13	0	0	0	0	542	303	0	0	0	0	
14	0	0	0	0	541	351	0	0	0	0	
15	0	0	0	0	541	392	0	0	0	0	
0	0	0	0	0	542	427	0	0	0	0	
1	0	0	0	0	543	459	0	0	0	0	
2	0	0	0	0	543	491	0	0	0	0	
3	0	0	0	0	544	527	0	0	0	0	
4	0	0	0	0	545	570	0	0	0	0	
5	0	0	0	0	547	619	0	0	0	0	
6	0	0	0	0	548	668	0	0	0	0	
7	0	0	0	0	550	688	0	0	0	0	
8	0	0	0	0	550	655	0	0	0	0	
9	0	0	0	0	550	578	0	0	0	0	
10	0	0	0	0	550	474	0	0	0	0	
11	0	0	0	0	549	362	0	0	0	0	
12	0	0	0	0	548	263	0	0	0	0	
13	0	0	0	0	546	190	0	0	0	0	
14	0	0	0	0	544	155	0	0	0	0	
15	0	0	0	0	543	162	0	0	0	0	
0	0	0	0	0	543	207	0	0	0	0	
1	0	0	0	0	542	262	0	0	0	0	
2	0	0	0	0	541	313	0	0	0	0	
3	0	0	0	0	542	361	0	0	0	0	
4	0	0	0	0	543	402	0	0	0	0	
5	0	0	0	0	545	442	0	0	0	0	
6	0	0	0	0	547	482	0	0	0	0	
7	0	0	0	0	548	525	0	0	0	0	
8	0	0	0	0	550	575	0	0	0	0	
9	0	0	0	0	551	629	0	0	0	0	
10	0	0	0	0	552	683	0	0	0	0	
11	0	0	0	0	553	705	0	0	0	0	
12	0	0	0	0	553	675	0	0	0	0	
13	0	0	0	0	552	599	0	0	0	0	
14	0	0	0	0	551	494	0	0	0	0	
15	0	0	0	0	550	380	0	0	0	0	
0	0	0	0	0	548	279	0	0	0	0	
1	0	0	0	0	547	203	0	0	0	0	
2	0	0	0	0	545	164	0	0	0	0	
3	0	0	0	0	544	168	0	0	0	0	
4	0	0	0	0	542	209	0	0	0	0	
5	0	0	0	0	542	260	0	0	0	0	
6	0	0	0	0	540	309	0	0	0	0	
7	0	0	0	0	540	351	0	0	0	0	
8	0	0	0	0	540	389	0	0	0	0	
9	0	0	0	0	540	424	0	0	0	0	
10	0	0	0	0	540	461	0	0	0	0	
11	0	0	0	0	540	503	0	0	0	0	
12	0	0	0	0	540	550	0	0	0	0	
13	0	0	0	0	540	604	0	0	0	0	
14	0	0	0	0	541	659	0	0	0	0	
15	0	0	0	0	541	684	0	0	0	0	
0	0	0	0	0	542	656	0	0	0	0	
1	0	0	0	0	543	582	0	0	0	0	
2	0	0	0	0	543	479	0	0	0	0	
3	0	0	0	0	544	367	0	0	0	0	
4	0	0	0	0	545	267	0	0	0	0	
5	0	0	0	0	545	193	0	0	0	0	
6	0	0	0	0	545	156	0	0	0	0	
7	0	0	0	0	546	162	0	0	0	0	
8	0	0	0	0	547	205	0	0	0	0	
9	0	0	0	0	546	259	0	0	0	0	
10	0	0	0	0	547	309	0	0	0	0	
11	0	0	0	0	545	352	0	0	0	0	
12	0	0	0	0	546	392	0	0	0	0	
13	0	0	0	0	545	429	0	0	0	0	
14	0	0	0	0	545	467	0	0	0	0	
15	0	0	0	0	544	508	0	0	0	0	
0	0	0	0	0	543	556	0	0	0	0	
1	0	0	0	0	543	611	0	0	0	0	
2	0	0	0	0	542	667	0	0	0	0	
3	0	0	0	0	541	689	0	0	0	0	
4	0	0	0	0	540	659	0	0	0	0	
5	0	0	0	0	540	581	0	0	0	0	
6	0	0	0	0	540	473	0	0	0	0	
7	0	0	0	0	539	356	0	0	0	0	
8	0	0	0	0	538	250	0	0	0	0	
9	0	0	0	0	537	172	0	0	0	0	
10	0	0	0	0	536	131	0	0	0	0	
11	0	0	0	0	536	134	0	0	0	0	
12	0	0	0	0	535	176	0	0	0	0	
13	0	0	0	0	535	229	0	0	0	0	
14	0	0	0	0	535	279	0	0	0	0	
15	0	0	0	0	535	323	0	0	0	0	
0	0	0	0	0	536	362	0	0	0	0	
1	0	0	0	0	537	399	0	0	0	0	
2	0	0	0	0	538	438	0	0	0	0	
3	0	0	0	0	539	482	0	0	0	0	
4	0	0	0	0	539	532	0	0	0	0	
5	0	0	0	0	540	590	0	0	0	0	
6	0	0	0	0	540	648	0	0	0	0	
7	0	0	0	0	540	675	0	0	0	0	
8	0	0	0	0	540	647	0	0	0	0	
9	0	0	0	0	540	570	0	0	0	0	
10	0	0	0	0	540	462	0	0	0	0	
11	0	0	0	0	540	344	0	0	0	0	
12	0	0	0	0	540	236	0	0	0	0	
13	0	0	0	0	540	156	0	0	0	0	
14	0	0	0	0	539	114	0	0	0	0	
15	0	0	0	0	540	117	0	0	0	0	
0	0	0	0	0	540	159	0	0	0	0	
1	0	0	0	0	540	214	0	0	0	0	
2	0	0	0	0	541	265	0	0	0	0	
3	0	0	0	0	541	308	0	0	0	0	
4	0	0	0	0	542	348	0	0	0	0	
5	0	0	0	0	543	384	0	0	0	0	
6	0	0	0	0	543	423	0	0	0	0	
7	0	0	0	0	544	467	0	0	0	0	
8	0	0	0	0	544	518	0	0	0	0	
9	0	0	0	0	545	577	0	0	0	0	
10	0	0	0	0	546	638	0	0	0	0	
11	0	0	0	0	546	664	0	0	0	0	
12	0	0	0	0	546	632	0	0	0	0	
13	0	0	0	0	545	546	0	0	0	0	
14	0	0	0	0	545	425	0	0	0	0	
15	0	0	0	0	544	293	0	0	0	0	
0	0	0	0	0	544	173	0	0	0	0	
1	0	0	0	0	543	81	0	0	0	0	
2	0	0	0	0	541	30	0	0	0	0	
3	0	0	0	0	540	28	0	0	0	0	
4	0	0	0	0	538	69	0	0	0	0	
5	0	0	0	0	537	122	0	0	0	0	
6	0	0	0	0	536	170	0	0	0	0	
7	0	0	0	0	536	209	0	0	0	0	
8	0	0	0	0	536	243	0	0	0	0	
9	0	0	0	0	536	276	0	0	0	0	
10	0	0	0	0	537	312	0	0	0	0	
11	0	0	0	0	537	355	0	0	0	0	
12	0	0	0	0	538	411	0	0	0	0	
13	0	0	0	0	540	479	0	0	0	0	
14	0	0	0	0	540	550	0	0	0	0	
15	0	0	0	0	541	584	0	0	0	0	
0	0	0	0	0	543	551	0	0	0	0	
1	0	0	0	0	543	455	0	0	0	0	
2	0	0	0	0	543	318	0	0	0	0	
3	0	0	0	0	543	167	0	0	0	0	
4	0	0	0	0	543	27	0	0	0	0	
5	0	0	0	0	542	0	0	0	0	0	
6	0	0	0	0	541	0	0	0	0	0	
7	0	0	0	0	541	0	0	0	0	0	
8	0	0	0	0	540	0	0	0	0	0	
9	0	0	0	0	541	22	0	0	0	0	
10	0	0	0	0	541	49	0	0	0	0	
11	0	0	0	0	542	71	0	0	0	0	
12	0	0	0	0	543	95	0	0	0	0	
13	0	0	0	0	544	125	0	0	0	0	
14	0	0	0	0	545	165	0	0	0	0	
15	0	0	0	0	546	220	0	0	0	0	
0	0	0	0	0	547	292	0	0	0	0	
1	0	0	0	0	547	382	0	0	0	0	
2	0	0	0	0	547	479	0	0	0	0	
3	0	0	0	0	547	541	0	0	0	0	
4	0	0	0	0	546	534	0	0	0	0	
5	0	0	0	0	545	459	0	0	0	0	
6	0	0	0	0	543	338	0	0	0	0	
7	0	0	0	0	542	198	0	0	0	0	
8	0	0	0	0	541	64	0	0	0	0	
9	0	0	0	0	539	0	0	0	0	0	
10	0	0	0	0	538	0	0	0	0	0	
11	0	0	0	0	537	0	0	0	0	0	
12	0	0	0	0	537	0	0	0	0	0	
13	0	0	0	0	537	28	0	0	0	0	
14	0	0	0	0	538	55	0	0	0	0	
15	0	0	0	0	539	78	0	0	0	0	
0	0	0	0	0	541	99	0	0	0	0	
1	0	0	0	0	543	127	0	0	0	0	
2	0	0	0	0	545	165	0	0	0	0	
3	0	0	0	0	546	218	0	0	0	0	
4	0	0	0	0	547	290	0	0	0	0	
5	0	0	0	0	548	380	0	0	0	0	
6	0	0	0	0	548	479	0	0	0	0	
7	0	0	0	0	549	543	0	0	0	0	
8	0	0	0	0	548	537	0	0	0	0	
9	0	0	0	0	547	463	0	0	0	0	
10	0	0	0	0	545	340	0	0	0	0	
11	0	0	0	0	543	198	0	0	0	0	
12	0	0	0	0	541	60	0	0	0	0	
13	0	0	0	0	538	0	0	0	0	0	
14	0	0	0	0	536	0	0	0	0	0	
15	0	0	0	0	534	0	0	0	0	0	
0	0	0	0	0	533	0	0	0	0	0	
1	0	0	0	0	531	24	0	0	0	0	
2	0	0	0	0	531	52	0	0	0	0	
3	0	0	0	0	531	77	0	0	0	0	
4	0	0	0	0	532	103	0	0	0	0	
5	0	0	0	0	534	134	0	0	0	0	
6	0	0	0	0	535	177	0	0	0	0	
7	0	0	0	0	536	235	0	0	0	0	
8	0	0	0	0	537	310	0	0	0	0	
9	0	0	0	0	539	404	0	0	0	0	
10	0	0	0	0	540	504	0	0	0	0	
11	0	0	0	0	540	569	0	0	0	0	
12	0	0	0	0	540	562	0	0	0	0	
13	0	0	0	0	540	485	0	0	0	0	
14	0	0	0	0	540	358	0	0	0	0	
15	0	0	0	0	539	210	0	0	0	0	
0	0	0	0	0	537	67	0	0	0	0	
1	0	0	0	0	536	0	0	0	0	0	
2	0	0	0	0	534	0	0	0	0	0	
3	0	0	0	0	533	0	0	0	0	0	
4	0	0	0	0	531	0	0	0	0	0	
5	0	0	0	0	529	19	0	0	0	0	
6	0	0	0	0	528	44	0	0	0	0	
7	0	0	0	0	527	66	0	0	0	0	
8	0	0	0	0	527	90	0	0	0	0	
9	0	0	0	0	527	120	0	0	0	0	
10	0	0	0	0	527	163	0	0	0	0	
11	0	0	0	0	528	221	0	0	0	0	
12	0	0	0	0	529	299	0	0	0	0	
13	0	0	0	0	530	396	0	0	0	0	
14	0	0	0	0	532	500	0	0	0	0	
15	0	0	0	0	532	569	0	0	0	0	
0	0	0	0	0	534	567	0	0	0	0	
1	0	0	0	0	534	494	0	0	0	0	
2	0	0	0	0	535	369	0	0	0	0	
3	0	0	0	0	535	223	0	0	0	0	
4	0	0	0	0	535	82	0	0	0	0	
5	0	0	0	0	534	0	0	0	0	0	
6	0	0	0	0	532	0	0	0	0	0	
7	0	0	0	0	532	0	0	0	0	0	
8	0	0	0	0	531	0	0	0	0	0	
9	0	0	0	0	531	31	0	0	0	0	
10	0	0	0	0	530	65	0	0	0	0	
11	0	0	0	0	530	99	0	0	0	0	
12	0	0	0	0	531	134	0	0	0	0	
13	0	0	0	0	532	174	0	0	0	0	
14	0	0	0	0	534	226	0	0	0	0	
15	0	0	0	0	536	292	0	0	0	0	
0	0	0	0	0	538	374	0	0	0	0	
1	0	0	0	0	540	471	0	0	0	0	
2	0	0	0	0	542	574	0	0	0	0	
3	0	0	0	0	543	642	0	0	0	0	
4	0	0	0	0	545	639	0	0	0	0	
5	0	0	0	0	545	566	0	0	0	0	
6	0	0	0	0	546	445	0	0	0	0	
7	0	0	0	0	546	300	0	0	0	0	
8	0	0	0	0	545	161	0	0	0	0	
9	0	0	0	0	544	47	0	0	0	0	
10	0	0	0	0	542	0	0	0	0	0	
11	0	0	0	0	540	0	0	0	0	0	
12	0	0	0	0	538	14	0	0	0	0	
13	0	0	0	0	536	58	0	0	0	0	
14	0	0	0	0	533	103	0	0	0	0	
15	0	0	0	0	532	144	0	0	0	0	
0	0	0	0	0	531	185	0	0	0	0	
1	0	0	0	0	531	228	0	0	0	0	
2	0	0	0	0	530	279	0	0	0	0	
3	0	0	0	0	531	342	0	0	0	0	
4	0	0	0	0	531	419	0	0	0	0	
5	0	0	0	0	532	509	0	0	0	0	
6	0	0	0	0	533	606	0	0	0	0	
7	0	0	0	0	535	673	0	0	0	0	
8	0	0	0	0	536	681	0	0	0	0	
9	0	0	0	0	536	631	0	0	0	0	
10	0	0	0	0	537	540	0	0	0	0	
11	0	0	0	0	537	431	0	0	0	0	
12	0	0	0	0	537	324	0	0	0	0	
13	0	0	0	0	536	241	0	0	0	0	
14	0	0	0	0	536	194	0	0	0	0	
15	0	0	0	0	536	191	0	0	0	0	
0	0	0	0	0	536	229	0	0	0	0	
1	0	0	0	0	536	283	0	0	0	0	
2	0	0	0	0	537	334	0	0	0	0	
3	0	0	0	0	536	380	0	0	0	0	
4	0	0	0	0	537	422	0	0	0	0	
5	0	0	0	0	537	463	0	0	0	0	
6	0	0	0	0	537	507	0	0	0	0	
7	0	0	0	0	537	557	0	0	0	0	
8	0	0	0	0	536	615	0	0	0	0	
9	0	0	0	0	536	680	0	0	0	0	
10	0	0	0	0	536	748	0	0	0	0	
11	0	0	0	0	536	788	0	0	0	0	
12	0	0	0	0	536	774	0	0	0	0	
13	0	0	0	0	536	709	0	0	0	0	
14	0	0	0	0	536	610	0	0	0	0	
15	0	0	0	0	537	496	0	0	0	0	
0	0	0	0	0	538	389	0	0	0	0	
1	0	0	0	0	538	305	0	0	0	0	
2	0	0	0	0	539	260	0	0	0	0	
3	0	0	0	0	540	258	0	0	0	0	
4	0	0	0	0	540	296	0	0	0	0	
5	0	0	0	0	540	351	0	0	0	0	
6	0	0	0	0	541	404	0	0	0	0	
7	0	0	0	0	541	452	0	0	0	0	
8	0	0	0	0	541	496	0	0	0	0	
9	0	0	0	0	540	537	0	0	0	0	
10	0	0	0	0	540	579	0	0	0	0	
11	0	0	0	0	537	624	0	0	0	0	
12	0	0	0	0	533	675	0	0	0	0	
13	0	0	0	0	528	729	0	0	0	0	
14	0	0	0	0	521	784	0	0	0	0	
15	0	0	0	0	514	812	0	0	0	0	
0	0	0	0	0	505	787	0	0	0	0	
1	0	0	0	0	495	715	0	0	0	0	
2	0	0	0	0	485	610	0	0	0	0	
3	0	0	0	0	474	492	0	0	0	0	
4	0	0	0	0	463	379	0	0	0	0	
5	0	0	0	0	451	289	0	0	0	0	
6	0	0	0	0	439	235	0	0	0	0	
7	0	0	0	0	428	222	0	0	0	0	
8	0	0	0	0	416	247	0	0	0	0	
9	0	0	0	0	404	286	0	0	0	0	
10	0	0	0	0	392	323	0	0	0	0	
11	0	0	0	0	381	358	0	0	0	0	
12	0	0	0	0	370	389	0	0	0	0	
13	0	0	0	0	359	417	0	0	0	0	
14	0	0	0	0	349	447	0	0	0	0	
15	0	0	0	0	338	480	0	0	0	0	
0	0	0	0	0	328	519	0	0	0	0	
1	0	0	0	0	321	566	0	0	0	0	
2	0	0	0	0	315	615	0	0	0	0	
3	0	0	0	0	312	639	0	0	0	0	
4	0	0	0	0	313	616	0	0	0	0	
5	0	0	0	0	318	549	0	0	0	0	
6	0	0	0	0	326	456	0	0	0	0	
7	0	0	0	0	338	356	0	0	0	0	
8	0	0	0	0	353	268	0	0	0	0	
9	0	0	0	0	371	207	0	0	0	0	
10	0	0	0	0	391	181	0	0	0	0	
11	0	0	0	0	412	199	0	0	0	0	
12	0	0	0	0	434	257	0	0	0	0	
13	0	0	0	0	455	327	0	0	0	0	
14	0	0	0	0	476	397	0	0	0	0	
15	0	0	0	0	496	461	0	0	0	0	
0	0	0	0	0	513	519	0	0	0	0	
1	0	0	0	0	529	573	0	0	0	0	
2	0	0	0	0	542	625	0	0	0	0	
3	0	0	0	0	551	678	0	0	0	0	
4	0	0	0	0	559	735	0	0	0	0	
5	0	0	0	0	565	794	0	0	0	0	
6	0	0	0	0	567	852	0	0	0	0	
7	0	0	0	0	569	884	0	0	0	0	
8	0	0	0	0	568	865	0	0	0	0	
9	0	0	0	0	566	799	0	0	0	0	
10	0	0	0	0	562	701	0	0	0	0	
11	0	0	0	0	558	588	0	0	0	0	
12	0	0	0	0	554	481	0	0	0	0	
13	0	0	0	0	550	396	0	0	0	0	
14	0	0	0	0	545	346	0	0	0	0	
15	0	0	0	0	542	339	0	0	0	0	
0	0	0	0	0	540	371	0	0	0	0	
1	0	0	0	0	538	419	0	0	0	0	
2	0	0	0	0	538	467	0	0	0	0	
3	0	0	0	0	538	512	0	0	0	0	
4	0	0	0	0	540	555	0	0	0	0	
5	0	0	0	0	542	594	0	0	0	0	
6	0	0	0	0	545	637	0	0	0	0	
7	0	0	0	0	547	683	0	0	0	0	
8	0	0	0	0	550	733	0	0	0	0	
9	0	0	0	0	552	789	0	0	0	0	
10	0	0	0	0	555	846	0	0	0	0	
11	0	0	0	0	557	877	0	0	0	0	
12	0	0	0	0	558	857	0	0	0	0	
13	0	0	0	0	559	792	0	0	0	0	
14	0	0	0	0	559	694	0	0	0	0	
15	0	0	0	0	559	583	0	0	0	0	
0	0	0	0	0	559	479	0	0	0	0	
1	0	0	0	0	557	396	0	0	0	0	
2	0	0	0	0	556	349	0	0	0	0	
3	0	0	0	0	556	344	0	0	0	0	
4	0	0	0	0	554	377	0	0	0	0	
5	0	0	0	0	552	425	0	0	0	0	
6	0	0	0	0	551	472	0	0	0	0	
7	0	0	0	0	550	514	0	0	0	0	
8	0	0	0	0	549	551	0	0	0	0	
9	0	0	0	0	548	586	0	0	0	0	
10	0	0	0	0	547	623	0	0	0	0	
11	0	0	0	0	547	664	0	0	0	0	
12	0	0	0	0	547	711	0	0	0	0	
13	0	0	0	0	548	764	0	0	0	0	
14	0	0	0	0	549	819	0	0	0	0	
15	0	0	0	0	550	851	0	0	0	0	
0	0	0	0	0	551	835	0	0	0	0	
1	0	0	0	0	553	771	0	0	0	0	
2	0	0	0	0	555	679	0	0	0	0	
3	0	0	0	0	556	572	0	0	0	0	
4	0	0	0	0	558	472	0	0	0	0	
5	0	0	0	0	558	394	0	0	0	0	
6	0	0	0	0	559	351	0	0	0	0	
