# OpenSignals Text File Format. Version 1
# {"": {"position": 0, "device": "", "device name": "", "device connection": "", "sampling rate": 1000, "resolution": [4, 1, 1, 1, 1, 10, 10, 10, 10, 6, 6], "firmware version": 1281, "comments": "", "keywords": "", "mode": 0, "sync interval": 2, "date": "", "time": "", "channels": [1, 2, 3, 4, 5, 6], "sensor": ["RAW", "RAW", "RAW", "RAW", "RAW", "RAW"], "label": ["A1", "A2", "A3", "A4", "A5", "A6"], "column": ["nSeq", "I1", "I2", "O1", "O2", "A1", "A2", "A3", "A4", "A5", "A6"], "special": [{}, {}, {}, {}, {}, {}], "digital IO": [0, 0, 1, 1]}}
# EndOfHeader
0	0	0	0	0	568	503	0	0	0	0	
1	0	0	0	0	567	502	0	0	0	0	
2	0	0	0	0	564	500	0	0	0	0	
3	0	0	0	0	561	498	0	0	0	0	
4	0	0	0	0	557	495	0	0	0	0	
5	0	0	0	0	554	493	0	0	0	0	
6	0	0	0	0	551	491	0	0	0	0	
7	0	0	0	0	548	489	0	0	0	0	
8	0	0	0	0	547	489	0	0	0	0	
9	0	0	0	0	547	490	0	0	0	0	
10	0	0	0	0	550	492	0	0	0	0	
11	0	0	0	0	553	495	0	0	0	0	
12	0	0	0	0	559	498	0	0	0	0	
13	0	0	0	0	564	503	0	0	0	0	
14	0	0	0	0	569	506	0	0	0	0	
15	0	0	0	0	575	510	0	0	0	0	
0	0	0	0	0	578	512	0	0	0	0	
1	0	0	0	0	580	514	0	0	0	0	
2	0	0	0	0	582	515	0	0	0	0	
3	0	0	0	0	581	516	0	0	0	0	
4	0	0	0	0	580	516	0	0	0	0	
5	0	0	0	0	578	516	0	0	0	0	
6	0	0	0	0	577	516	0	0	0	0	
7	0	0	0	0	577	518	0	0	0	0	
8	0	0	0	0	577	518	0	0	0	0	
9	0	0	0	0	577	519	0	0	0	0	
10	0	0	0	0	579	521	0	0	0	0	
11	0	0	0	0	580	521	0	0	0	0	
12	0	0	0	0	582	523	0	0	0	0	
13	0	0	0	0	583	524	0	0	0	0	
14	0	0	0	0	585	524	0	0	0	0	
15	0	0	0	0	587	523	0	0	0	0	
0	0	0	0	0	586	521	0	0	0	0	
1	0	0	0	0	583	517	0	0	0	0	
2	0	0	0	0	578	511	0	0	0	0	
3	0	0	0	0	572	505	0	0	0	0	
4	0	0	0	0	565	499	0	0	0	0	
5	0	0	0	0	557	494	0	0	0	0	
6	0	0	0	0	550	489	0	0	0	0	
7	0	0	0	0	544	486	0	0	0	0	
8	0	0	0	0	540	484	0	0	0	0	
9	0	0	0	0	537	483	0	0	0	0	
10	0	0	0	0	536	484	0	0	0	0	
11	0	0	0	0	538	486	0	0	0	0	
12	0	0	0	0	541	489	0	0	0	0	
13	0	0	0	0	546	492	0	0	0	0	
14	0	0	0	0	551	496	0	0	0	0	
15	0	0	0	0	557	498	0	0	0	0	
0	0	0	0	0	563	501	0	0	0	0	
1	0	0	0	0	569	504	0	0	0	0	
2	0	0	0	0	576	507	0	0	0	0	
3	0	0	0	0	582	510	0	0	0	0	
4	0	0	0	0	588	512	0	0	0	0	
5	0	0	0	0	593	516	0	0	0	0	
6	0	0	0	0	596	518	0	0	0	0	
7	0	0	0	0	599	520	0	0	0	0	
8	0	0	0	0	599	521	0	0	0	0	
9	0	0	0	0	596	521	0	0	0	0	
10	0	0	0	0	591	519	0	0	0	0	
11	0	0	0	0	583	515	0	0	0	0	
12	0	0	0	0	572	510	0	0	0	0	
13	0	0	0	0	560	504	0	0	0	0	
14	0	0	0	0	548	497	0	0	0	0	
15	0	0	0	0	535	489	0	0	0	0	
0	0	0	0	0	522	480	0	0	0	0	
1	0	0	0	0	510	472	0	0	0	0	
2	0	0	0	0	499	463	0	0	0	0	
3	0	0	0	0	491	456	0	0	0	0	
4	0	0	0	0	486	451	0	0	0	0	
5	0	0	0	0	483	447	0	0	0	0	
6	0	0	0	0	484	445	0	0	0	0	
7	0	0	0	0	488	446	0	0	0	0	
8	0	0	0	0	494	448	0	0	0	0	
9	0	0	0	0	502	451	0	0	0	0	
10	0	0	0	0	510	455	0	0	0	0	
11	0	0	0	0	519	460	0	0	0	0	
12	0	0	0	0	527	464	0	0	0	0	
13	0	0	0	0	532	467	0	0	0	0	
14	0	0	0	0	537	470	0	0	0	0	
15	0	0	0	0	539	471	0	0	0	0	
0	0	0	0	0	540	472	0	0	0	0	
1	0	0	0	0	539	472	0	0	0	0	
2	0	0	0	0	537	472	0	0	0	0	
3	0	0	0	0	535	472	0	0	0	0	
4	0	0	0	0	533	471	0	0	0	0	
5	0	0	0	0	531	471	0	0	0	0	
6	0	0	0	0	529	472	0	0	0	0	
7	0	0	0	0	529	473	0	0	0	0	
8	0	0	0	0	531	476	0	0	0	0	
9	0	0	0	0	533	478	0	0	0	0	
10	0	0	0	0	538	481	0	0	0	0	
11	0	0	0	0	544	487	0	0	0	0	
12	0	0	0	0	551	492	0	0	0	0	
13	0	0	0	0	560	499	0	0	0	0	
14	0	0	0	0	569	506	0	0	0	0	
15	0	0	0	0	579	513	0	0	0	0	
0	0	0	0	0	587	521	0	0	0	0	
1	0	0	0	0	593	526	0	0	0	0	
2	0	0	0	0	597	530	0	0	0	0	
3	0	0	0	0	597	530	0	0	0	0	
4	0	0	0	0	594	529	0	0	0	0	
5	0	0	0	0	588	524	0	0	0	0	
6	0	0	0	0	578	518	0	0	0	0	
7	0	0	0	0	566	509	0	0	0	0	
8	0	0	0	0	553	499	0	0	0	0	
9	0	0	0	0	539	488	0	0	0	0	
10	0	0	0	0	526	478	0	0	0	0	
11	0	0	0	0	515	469	0	0	0	0	
12	0	0	0	0	505	460	0	0	0	0	
13	0	0	0	0	499	454	0	0	0	0	
14	0	0	0	0	495	449	0	0	0	0	
15	0	0	0	0	493	447	0	0	0	0	
0	0	0	0	0	494	446	0	0	0	0	
1	0	0	0	0	497	446	0	0	0	0	
2	0	0	0	0	502	450	0	0	0	0	
3	0	0	0	0	508	453	0	0	0	0	
4	0	0	0	0	516	459	0	0	0	0	
5	0	0	0	0	525	466	0	0	0	0	
6	0	0	0	0	533	473	0	0	0	0	
7	0	0	0	0	542	481	0	0	0	0	
8	0	0	0	0	548	487	0	0	0	0	
9	0	0	0	0	555	494	0	0	0	0	
10	0	0	0	0	561	501	0	0	0	0	
11	0	0	0	0	568	508	0	0	0	0	
12	0	0	0	0	574	514	0	0	0	0	
13	0	0	0	0	578	519	0	0	0	0	
14	0	0	0	0	581	522	0	0	0	0	
15	0	0	0	0	583	524	0	0	0	0	
0	0	0	0	0	583	526	0	0	0	0	
1	0	0	0	0	585	526	0	0	0	0	
2	0	0	0	0	587	527	0	0	0	0	
3	0	0	0	0	589	528	0	0	0	0	
4	0	0	0	0	591	529	0	0	0	0	
5	0	0	0	0	592	528	0	0	0	0	
6	0	0	0	0	592	527	0	0	0	0	
7	0	0	0	0	590	524	0	0	0	0	
8	0	0	0	0	586	520	0	0	0	0	
9	0	0	0	0	581	515	0	0	0	0	
10	0	0	0	0	573	508	0	0	0	0	
11	0	0	0	0	564	501	0	0	0	0	
12	0	0	0	0	554	493	0	0	0	0	
13	0	0	0	0	543	484	0	0	0	0	
14	0	0	0	0	532	475	0	0	0	0	
15	0	0	0	0	522	467	0	0	0	0	
0	0	0	0	0	513	459	0	0	0	0	
1	0	0	0	0	506	454	0	0	0	0	
2	0	0	0	0	502	450	0	0	0	0	
3	0	0	0	0	500	448	0	0	0	0	
4	0	0	0	0	502	448	0	0	0	0	
5	0	0	0	0	506	449	0	0	0	0	
6	0	0	0	0	513	454	0	0	0	0	
7	0	0	0	0	522	460	0	0	0	0	
8	0	0	0	0	531	466	0	0	0	0	
9	0	0	0	0	542	472	0	0	0	0	
10	0	0	0	0	552	480	0	0	0	0	
11	0	0	0	0	563	487	0	0	0	0	
12	0	0	0	0	572	495	0	0	0	0	
13	0	0	0	0	579	502	0	0	0	0	
14	0	0	0	0	586	508	0	0	0	0	
15	0	0	0	0	591	515	0	0	0	0	
0	0	0	0	0	595	520	0	0	0	0	
1	0	0	0	0	597	524	0	0	0	0	
2	0	0	0	0	596	527	0	0	0	0	
3	0	0	0	0	592	526	0	0	0	0	
4	0	0	0	0	585	521	0	0	0	0	
5	0	0	0	0	576	515	0	0	0	0	
6	0	0	0	0	564	507	0	0	0	0	
7	0	0	0	0	552	497	0	0	0	0	
8	0	0	0	0	540	487	0	0	0	0	
9	0	0	0	0	528	476	0	0	0	0	
10	0	0	0	0	518	466	0	0	0	0	
11	0	0	0	0	509	458	0	0	0	0	
12	0	0	0	0	503	451	0	0	0	0	
13	0	0	0	0	499	446	0	0	0	0	
14	0	0	0	0	497	443	0	0	0	0	
15	0	0	0	0	498	441	0	0	0	0	
0	0	0	0	0	501	443	0	0	0	0	
1	0	0	0	0	505	445	0	0	0	0	
2	0	0	0	0	511	449	0	0	0	0	
3	0	0	0	0	519	455	0	0	0	0	
4	0	0	0	0	529	463	0	0	0	0	
5	0	0	0	0	539	471	0	0	0	0	
6	0	0	0	0	549	480	0	0	0	0	
7	0	0	0	0	558	488	0	0	0	0	
8	0	0	0	0	567	496	0	0	0	0	
9	0	0	0	0	575	503	0	0	0	0	
10	0	0	0	0	580	508	0	0	0	0	
11	0	0	0	0	582	510	0	0	0	0	
12	0	0	0	0	582	510	0	0	0	0	
13	0	0	0	0	579	506	0	0	0	0	
14	0	0	0	0	573	500	0	0	0	0	
15	0	0	0	0	566	494	0	0	0	0	
0	0	0	0	0	557	486	0	0	0	0	
1	0	0	0	0	549	480	0	0	0	0	
2	0	0	0	0	543	475	0	0	0	0	
3	0	0	0	0	539	472	0	0	0	0	
4	0	0	0	0	539	473	0	0	0	0	
5	0	0	0	0	542	478	0	0	0	0	
6	0	0	0	0	550	486	0	0	0	0	
7	0	0	0	0	560	496	0	0	0	0	
8	0	0	0	0	572	507	0	0	0	0	
9	0	0	0	0	583	516	0	0	0	0	
10	0	0	0	0	590	523	0	0	0	0	
11	0	0	0	0	593	526	0	0	0	0	
12	0	0	0	0	592	524	0	0	0	0	
13	0	0	0	0	587	519	0	0	0	0	
14	0	0	0	0	577	511	0	0	0	0	
15	0	0	0	0	565	501	0	0	0	0	
0	0	0	0	0	551	490	0	0	0	0	
1	0	0	0	0	537	478	0	0	0	0	
2	0	0	0	0	524	467	0	0	0	0	
3	0	0	0	0	512	457	0	0	0	0	
4	0	0	0	0	504	451	0	0	0	0	
5	0	0	0	0	500	447	0	0	0	0	
6	0	0	0	0	499	446	0	0	0	0	
7	0	0	0	0	502	446	0	0	0	0	
8	0	0	0	0	505	447	0	0	0	0	
9	0	0	0	0	510	448	0	0	0	0	
10	0	0	0	0	514	449	0	0	0	0	
11	0	0	0	0	518	448	0	0	0	0	
12	0	0	0	0	520	448	0	0	0	0	
13	0	0	0	0	521	447	0	0	0	0	
14	0	0	0	0	520	446	0	0	0	0	
15	0	0	0	0	519	445	0	0	0	0	
0	0	0	0	0	518	444	0	0	0	0	
1	0	0	0	0	516	443	0	0	0	0	
2	0	0	0	0	515	442	0	0	0	0	
3	0	0	0	0	514	442	0	0	0	0	
4	0	0	0	0	512	441	0	0	0	0	
5	0	0	0	0	511	441	0	0	0	0	
6	0	0	0	0	511	441	0	0	0	0	
7	0	0	0	0	511	441	0	0	0	0	
8	0	0	0	0	511	441	0	0	0	0	
9	0	0	0	0	511	442	0	0	0	0	
10	0	0	0	0	512	444	0	0	0	0	
11	0	0	0	0	512	444	0	0	0	0	
12	0	0	0	0	513	445	0	0	0	0	
13	0	0	0	0	513	445	0	0	0	0	
14	0	0	0	0	511	444	0	0	0	0	
15	0	0	0	0	508	441	0	0	0	0	
0	0	0	0	0	504	437	0	0	0	0	
1	0	0	0	0	497	432	0	0	0	0	
2	0	0	0	0	490	425	0	0	0	0	
3	0	0	0	0	482	419	0	0	0	0	
4	0	0	0	0	473	412	0	0	0	0	
5	0	0	0	0	465	403	0	0	0	0	
6	0	0	0	0	456	394	0	0	0	0	
7	0	0	0	0	447	384	0	0	0	0	
8	0	0	0	0	436	374	0	0	0	0	
9	0	0	0	0	426	362	0	0	0	0	
10	0	0	0	0	415	349	0	0	0	0	
11	0	0	0	0	402	336	0	0	0	0	
12	0	0	0	0	388	321	0	0	0	0	
13	0	0	0	0	374	307	0	0	0	0	
14	0	0	0	0	360	293	0	0	0	0	
15	0	0	0	0	346	280	0	0	0	0	
0	0	0	0	0	334	268	0	0	0	0	
1	0	0	0	0	323	258	0	0	0	0	
2	0	0	0	0	314	250	0	0	0	0	
3	0	0	0	0	308	246	0	0	0	0	
4	0	0	0	0	306	243	0	0	0	0	
5	0	0	0	0	307	244	0	0	0	0	
6	0	0	0	0	312	249	0	0	0	0	
7	0	0	0	0	321	257	0	0	0	0	
8	0	0	0	0	335	269	0	0	0	0	
9	0	0	0	0	352	283	0	0	0	0	
10	0	0	0	0	372	300	0	0	0	0	
11	0	0	0	0	395	318	0	0	0	0	
12	0	0	0	0	419	338	0	0	0	0	
13	0	0	0	0	444	359	0	0	0	0	
14	0	0	0	0	469	380	0	0	0	0	
15	0	0	0	0	492	399	0	0	0	0	
0	0	0	0	0	514	419	0	0	0	0	
1	0	0	0	0	534	437	0	0	0	0	
2	0	0	0	0	551	454	0	0	0	0	
3	0	0	0	0	568	470	0	0	0	0	
4	0	0	0	0	583	487	0	0	0	0	
5	0	0	0	0	598	503	0	0	0	0	
6	0	0	0	0	611	519	0	0	0	0	
7	0	0	0	0	624	533	0	0	0	0	
8	0	0	0	0	635	546	0	0	0	0	
9	0	0	0	0	641	555	0	0	0	0	
10	0	0	0	0	643	560	0	0	0	0	
11	0	0	0	0	639	560	0	0	0	0	
12	0	0	0	0	629	553	0	0	0	0	
13	0	0	0	0	613	542	0	0	0	0	
14	0	0	0	0	592	526	0	0	0	0	
15	0	0	0	0	567	506	0	0	0	0	
0	0	0	0	0	540	485	0	0	0	0	
1	0	0	0	0	514	465	0	0	0	0	
2	0	0	0	0	492	447	0	0	0	0	
3	0	0	0	0	474	432	0	0	0	0	
4	0	0	0	0	462	423	0	0	0	0	
5	0	0	0	0	457	418	0	0	0	0	
6	0	0	0	0	459	418	0	0	0	0	
7	0	0	0	0	466	422	0	0	0	0	
8	0	0	0	0	479	430	0	0	0	0	
9	0	0	0	0	494	440	0	0	0	0	
10	0	0	0	0	512	453	0	0	0	0	
11	0	0	0	0	530	465	0	0	0	0	
12	0	0	0	0	548	478	0	0	0	0	
13	0	0	0	0	564	489	0	0	0	0	
14	0	0	0	0	577	498	0	0	0	0	
15	0	0	0	0	585	505	0	0	0	0	
0	0	0	0	0	590	509	0	0	0	0	
1	0	0	0	0	590	510	0	0	0	0	
2	0	0	0	0	585	507	0	0	0	0	
3	0	0	0	0	578	503	0	0	0	0	
4	0	0	0	0	568	497	0	0	0	0	
5	0	0	0	0	556	489	0	0	0	0	
6	0	0	0	0	544	480	0	0	0	0	
7	0	0	0	0	533	472	0	0	0	0	
8	0	0	0	0	523	464	0	0	0	0	
9	0	0	0	0	514	456	0	0	0	0	
10	0	0	0	0	509	451	0	0	0	0	
11	0	0	0	0	507	448	0	0	0	0	
12	0	0	0	0	507	447	0	0	0	0	
13	0	0	0	0	510	447	0	0	0	0	
14	0	0	0	0	515	450	0	0	0	0	
15	0	0	0	0	523	455	0	0	0	0	
0	0	0	0	0	532	461	0	0	0	0	
1	0	0	0	0	542	468	0	0	0	0	
2	0	0	0	0	553	477	0	0	0	0	
3	0	0	0	0	563	485	0	0	0	0	
4	0	0	0	0	573	493	0	0	0	0	
5	0	0	0	0	582	500	0	0	0	0	
6	0	0	0	0	588	505	0	0	0	0	
7	0	0	0	0	591	509	0	0	0	0	
8	0	0	0	0	592	509	0	0	0	0	
9	0	0	0	0	590	507	0	0	0	0	
10	0	0	0	0	583	503	0	0	0	0	
11	0	0	0	0	575	497	0	0	0	0	
12	0	0	0	0	565	490	0	0	0	0	
13	0	0	0	0	555	482	0	0	0	0	
14	0	0	0	0	544	475	0	0	0	0	
15	0	0	0	0	535	468	0	0	0	0	
0	0	0	0	0	528	463	0	0	0	0	
1	0	0	0	0	523	460	0	0	0	0	
2	0	0	0	0	520	458	0	0	0	0	
3	0	0	0	0	519	457	0	0	0	0	
4	0	0	0	0	519	457	0	0	0	0	
5	0	0	0	0	522	459	0	0	0	0	
6	0	0	0	0	525	460	0	0	0	0	
7	0	0	0	0	529	463	0	0	0	0	
8	0	0	0	0	534	467	0	0	0	0	
9	0	0	0	0	539	471	0	0	0	0	
10	0	0	0	0	544	475	0	0	0	0	
11	0	0	0	0	551	479	0	0	0	0	
12	0	0	0	0	557	484	0	0	0	0	
13	0	0	0	0	564	489	0	0	0	0	
14	0	0	0	0	572	496	0	0	0	0	
15	0	0	0	0	580	503	0	0	0	0	
0	0	0	0	0	591	512	0	0	0	0	
1	0	0	0	0	601	521	0	0	0	0	
2	0	0	0	0	611	531	0	0	0	0	
3	0	0	0	0	621	539	0	0	0	0	
4	0	0	0	0	628	545	0	0	0	0	
5	0	0	0	0	632	548	0	0	0	0	
6	0	0	0	0	632	550	0	0	0	0	
7	0	0	0	0	627	547	0	0	0	0	
8	0	0	0	0	619	541	0	0	0	0	
9	0	0	0	0	606	532	0	0	0	0	
10	0	0	0	0	590	521	0	0	0	0	
11	0	0	0	0	573	510	0	0	0	0	
12	0	0	0	0	555	497	0	0	0	0	
13	0	0	0	0	539	484	0	0	0	0	
14	0	0	0	0	523	473	0	0	0	0	
15	0	0	0	0	510	462	0	0	0	0	
0	0	0	0	0	499	452	0	0	0	0	
1	0	0	0	0	492	444	0	0	0	0	
2	0	0	0	0	487	437	0	0	0	0	
3	0	0	0	0	485	433	0	0	0	0	
4	0	0	0	0	487	432	0	0	0	0	
5	0	0	0	0	492	433	0	0	0	0	
6	0	0	0	0	500	437	0	0	0	0	
7	0	0	0	0	511	444	0	0	0	0	
8	0	0	0	0	524	453	0	0	0	0	
9	0	0	0	0	537	464	0	0	0	0	
10	0	0	0	0	553	477	0	0	0	0	
11	0	0	0	0	568	491	0	0	0	0	
12	0	0	0	0	583	503	0	0	0	0	
13	0	0	0	0	594	514	0	0	0	0	
14	0	0	0	0	601	521	0	0	0	0	
15	0	0	0	0	604	525	0	0	0	0	
0	0	0	0	0	603	525	0	0	0	0	
1	0	0	0	0	596	520	0	0	0	0	
2	0	0	0	0	586	513	0	0	0	0	
3	0	0	0	0	573	503	0	0	0	0	
4	0	0	0	0	558	492	0	0	0	0	
5	0	0	0	0	543	480	0	0	0	0	
6	0	0	0	0	528	468	0	0	0	0	
7	0	0	0	0	515	457	0	0	0	0	
8	0	0	0	0	504	447	0	0	0	0	
9	0	0	0	0	496	439	0	0	0	0	
10	0	0	0	0	490	433	0	0	0	0	
11	0	0	0	0	487	429	0	0	0	0	
12	0	0	0	0	488	428	0	0	0	0	
13	0	0	0	0	491	428	0	0	0	0	
14	0	0	0	0	496	431	0	0	0	0	
15	0	0	0	0	504	435	0	0	0	0	
0	0	0	0	0	512	441	0	0	0	0	
1	0	0	0	0	522	448	0	0	0	0	
2	0	0	0	0	531	456	0	0	0	0	
3	0	0	0	0	541	464	0	0	0	0	
4	0	0	0	0	550	472	0	0	0	0	
5	0	0	0	0	559	479	0	0	0	0	
6	0	0	0	0	567	487	0	0	0	0	
7	0	0	0	0	574	493	0	0	0	0	
8	0	0	0	0	579	499	0	0	0	0	
9	0	0	0	0	583	503	0	0	0	0	
10	0	0	0	0	585	504	0	0	0	0	
11	0	0	0	0	585	505	0	0	0	0	
12	0	0	0	0	583	503	0	0	0	0	
13	0	0	0	0	578	499	0	0	0	0	
14	0	0	0	0	572	494	0	0	0	0	
15	0	0	0	0	565	489	0	0	0	0	
0	0	0	0	0	558	483	0	0	0	0	
1	0	0	0	0	551	479	0	0	0	0	
2	0	0	0	0	546	475	0	0	0	0	
3	0	0	0	0	542	473	0	0	0	0	
4	0	0	0	0	541	472	0	0	0	0	
5	0	0	0	0	541	473	0	0	0	0	
6	0	0	0	0	543	475	0	0	0	0	
7	0	0	0	0	545	479	0	0	0	0	
8	0	0	0	0	549	482	0	0	0	0	
9	0	0	0	0	553	486	0	0	0	0	
10	0	0	0	0	557	490	0	0	0	0	
11	0	0	0	0	560	493	0	0	0	0	
12	0	0	0	0	563	495	0	0	0	0	
13	0	0	0	0	564	495	0	0	0	0	
14	0	0	0	0	565	494	0	0	0	0	
15	0	0	0	0	564	492	0	0	0	0	
0	0	0	0	0	564	491	0	0	0	0	
1	0	0	0	0	563	489	0	0	0	0	
2	0	0	0	0	563	487	0	0	0	0	
3	0	0	0	0	562	486	0	0	0	0	
4	0	0	0	0	561	484	0	0	0	0	
5	0	0	0	0	561	484	0	0	0	0	
6	0	0	0	0	560	483	0	0	0	0	
7	0	0	0	0	559	483	0	0	0	0	
8	0	0	0	0	556	481	0	0	0	0	
9	0	0	0	0	553	479	0	0	0	0	
10	0	0	0	0	550	476	0	0	0	0	
11	0	0	0	0	545	475	0	0	0	0	
12	0	0	0	0	543	473	0	0	0	0	
13	0	0	0	0	541	472	0	0	0	0	
14	0	0	0	0	540	473	0	0	0	0	
15	0	0	0	0	540	474	0	0	0	0	
0	0	0	0	0	541	475	0	0	0	0	
1	0	0	0	0	542	475	0	0	0	0	
2	0	0	0	0	542	474	0	0	0	0	
3	0	0	0	0	540	472	0	0	0	0	
4	0	0	0	0	537	467	0	0	0	0	
5	0	0	0	0	531	462	0	0	0	0	
6	0	0	0	0	525	455	0	0	0	0	
7	0	0	0	0	519	448	0	0	0	0	
8	0	0	0	0	513	443	0	0	0	0	
9	0	0	0	0	510	440	0	0	0	0	
10	0	0	0	0	510	440	0	0	0	0	
11	0	0	0	0	513	443	0	0	0	0	
12	0	0	0	0	521	449	0	0	0	0	
13	0	0	0	0	531	458	0	0	0	0	
14	0	0	0	0	543	468	0	0	0	0	
15	0	0	0	0	556	480	0	0	0	0	
0	0	0	0	0	570	491	0	0	0	0	
1	0	0	0	0	582	500	0	0	0	0	
2	0	0	0	0	591	509	0	0	0	0	
3	0	0	0	0	598	514	0	0	0	0	
4	0	0	0	0	601	517	0	0	0	0	
5	0	0	0	0	601	517	0	0	0	0	
6	0	0	0	0	598	515	0	0	0	0	
7	0	0	0	0	591	509	0	0	0	0	
8	0	0	0	0	580	501	0	0	0	0	
9	0	0	0	0	567	491	0	0	0	0	
10	0	0	0	0	551	478	0	0	0	0	
11	0	0	0	0	534	464	0	0	0	0	
12	0	0	0	0	517	451	0	0	0	0	
13	0	0	0	0	502	438	0	0	0	0	
14	0	0	0	0	488	428	0	0	0	0	
15	0	0	0	0	478	419	0	0	0	0	
0	0	0	0	0	471	413	0	0	0	0	
1	0	0	0	0	468	411	0	0	0	0	
2	0	0	0	0	469	412	0	0	0	0	
3	0	0	0	0	475	415	0	0	0	0	
4	0	0	0	0	483	422	0	0	0	0	
5	0	0	0	0	496	430	0	0	0	0	
6	0	0	0	0	509	440	0	0	0	0	
7	0	0	0	0	523	450	0	0	0	0	
8	0	0	0	0	536	460	0	0	0	0	
9	0	0	0	0	548	467	0	0	0	0	
10	0	0	0	0	558	474	0	0	0	0	
11	0	0	0	0	564	479	0	0	0	0	
12	0	0	0	0	568	482	0	0	0	0	
13	0	0	0	0	570	484	0	0	0	0	
14	0	0	0	0	570	485	0	0	0	0	
15	0	0	0	0	569	486	0	0	0	0	
0	0	0	0	0	569	487	0	0	0	0	
1	0	0	0	0	569	489	0	0	0	0	
2	0	0	0	0	569	492	0	0	0	0	
3	0	0	0	0	570	493	0	0	0	0	
4	0	0	0	0	569	494	0	0	0	0	
5	0	0	0	0	568	494	0	0	0	0	
6	0	0	0	0	564	492	0	0	0	0	
7	0	0	0	0	559	490	0	0	0	0	
8	0	0	0	0	553	485	0	0	0	0	
9	0	0	0	0	546	480	0	0	0	0	
10	0	0	0	0	538	474	0	0	0	0	
11	0	0	0	0	530	467	0	0	0	0	
12	0	0	0	0	521	460	0	0	0	0	
13	0	0	0	0	514	453	0	0	0	0	
14	0	0	0	0	508	446	0	0	0	0	
15	0	0	0	0	502	440	0	0	0	0	
0	0	0	0	0	497	435	0	0	0	0	
1	0	0	0	0	495	431	0	0	0	0	
2	0	0	0	0	493	428	0	0	0	0	
3	0	0	0	0	494	427	0	0	0	0	
4	0	0	0	0	497	428	0	0	0	0	
5	0	0	0	0	502	432	0	0	0	0	
6	0	0	0	0	509	437	0	0	0	0	
7	0	0	0	0	517	443	0	0	0	0	
8	0	0	0	0	526	451	0	0	0	0	
9	0	0	0	0	535	459	0	0	0	0	
10	0	0	0	0	543	467	0	0	0	0	
11	0	0	0	0	550	473	0	0	0	0	
12	0	0	0	0	556	479	0	0	0	0	
13	0	0	0	0	560	482	0	0	0	0	
14	0	0	0	0	561	484	0	0	0	0	
15	0	0	0	0	561	483	0	0	0	0	
0	0	0	0	0	559	482	0	0	0	0	
1	0	0	0	0	557	480	0	0	0	0	
2	0	0	0	0	554	477	0	0	0	0	
3	0	0	0	0	551	475	0	0	0	0	
4	0	0	0	0	548	472	0	0	0	0	
5	0	0	0	0	544	471	0	0	0	0	
6	0	0	0	0	541	468	0	0	0	0	
7	0	0	0	0	536	465	0	0	0	0	
8	0	0	0	0	532	463	0	0	0	0	
9	0	0	0	0	527	460	0	0	0	0	
10	0	0	0	0	523	457	0	0	0	0	
11	0	0	0	0	519	454	0	0	0	0	
12	0	0	0	0	515	451	0	0	0	0	
13	0	0	0	0	511	449	0	0	0	0	
14	0	0	0	0	508	446	0	0	0	0	
15	0	0	0	0	505	444	0	0	0	0	
0	0	0	0	0	504	441	0	0	0	0	
1	0	0	0	0	504	440	0	0	0	0	
2	0	0	0	0	505	439	0	0	0	0	
3	0	0	0	0	508	440	0	0	0	0	
4	0	0	0	0	511	441	0	0	0	0	
5	0	0	0	0	517	443	0	0	0	0	
6	0	0	0	0	523	447	0	0	0	0	
7	0	0	0	0	529	451	0	0	0	0	
8	0	0	0	0	536	456	0	0	0	0	
9	0	0	0	0	541	460	0	0	0	0	
10	0	0	0	0	547	465	0	0	0	0	
11	0	0	0	0	553	471	0	0	0	0	
12	0	0	0	0	558	476	0	0	0	0	
13	0	0	0	0	563	481	0	0	0	0	
14	0	0	0	0	567	486	0	0	0	0	
15	0	0	0	0	570	490	0	0	0	0	
0	0	0	0	0	573	495	0	0	0	0	
1	0	0	0	0	575	498	0	0	0	0	
2	0	0	0	0	577	501	0	0	0	0	
3	0	0	0	0	578	504	0	0	0	0	
4	0	0	0	0	579	505	0	0	0	0	
5	0	0	0	0	579	505	0	0	0	0	
6	0	0	0	0	576	503	0	0	0	0	
7	0	0	0	0	571	497	0	0	0	0	
8	0	0	0	0	563	489	0	0	0	0	
9	0	0	0	0	554	480	0	0	0	0	
10	0	0	0	0	544	469	0	0	0	0	
11	0	0	0	0	534	460	0	0	0	0	
12	0	0	0	0	526	450	0	0	0	0	
13	0	0	0	0	518	444	0	0	0	0	
14	0	0	0	0	515	439	0	0	0	0	
15	0	0	0	0	514	439	0	0	0	0	
0	0	0	0	0	516	441	0	0	0	0	
1	0	0	0	0	521	445	0	0	0	0	
2	0	0	0	0	527	451	0	0	0	0	
3	0	0	0	0	534	457	0	0	0	0	
4	0	0	0	0	540	463	0	0	0	0	
5	0	0	0	0	544	467	0	0	0	0	
6	0	0	0	0	547	471	0	0	0	0	
7	0	0	0	0	548	472	0	0	0	0	
8	0	0	0	0	547	471	0	0	0	0	
9	0	0	0	0	543	469	0	0	0	0	
10	0	0	0	0	539	465	0	0	0	0	
11	0	0	0	0	534	462	0	0	0	0	
12	0	0	0	0	529	457	0	0	0	0	
13	0	0	0	0	523	451	0	0	0	0	
14	0	0	0	0	519	447	0	0	0	0	
15	0	0	0	0	514	443	0	0	0	0	
0	0	0	0	0	511	439	0	0	0	0	
1	0	0	0	0	510	437	0	0	0	0	
2	0	0	0	0	510	437	0	0	0	0	
3	0	0	0	0	513	439	0	0	0	0	
4	0	0	0	0	518	444	0	0	0	0	
5	0	0	0	0	527	451	0	0	0	0	
6	0	0	0	0	537	460	0	0	0	0	
7	0	0	0	0	547	469	0	0	0	0	
8	0	0	0	0	558	478	0	0	0	0	
9	0	0	0	0	566	485	0	0	0	0	
10	0	0	0	0	573	491	0	0	0	0	
11	0	0	0	0	577	495	0	0	0	0	
12	0	0	0	0	578	497	0	0	0	0	
13	0	0	0	0	577	497	0	0	0	0	
14	0	0	0	0	573	494	0	0	0	0	
15	0	0	0	0	566	489	0	0	0	0	
0	0	0	0	0	557	482	0	0	0	0	
1	0	0	0	0	546	474	0	0	0	0	
2	0	0	0	0	534	463	0	0	0	0	
3	0	0	0	0	521	453	0	0	0	0	
4	0	0	0	0	509	443	0	0	0	0	
5	0	0	0	0	499	433	0	0	0	0	
6	0	0	0	0	491	425	0	0	0	0	
7	0	0	0	0	485	420	0	0	0	0	
8	0	0	0	0	483	418	0	0	0	0	
9	0	0	0	0	483	417	0	0	0	0	
10	0	0	0	0	486	419	0	0	0	0	
11	0	0	0	0	491	423	0	0	0	0	
12	0	0	0	0	497	427	0	0	0	0	
13	0	0	0	0	503	431	0	0	0	0	
14	0	0	0	0	508	435	0	0	0	0	
15	0	0	0	0	513	438	0	0	0	0	
0	0	0	0	0	516	440	0	0	0	0	
1	0	0	0	0	518	441	0	0	0	0	
2	0	0	0	0	519	442	0	0	0	0	
3	0	0	0	0	519	442	0	0	0	0	
4	0	0	0	0	518	442	0	0	0	0	
5	0	0	0	0	519	442	0	0	0	0	
6	0	0	0	0	519	442	0	0	0	0	
7	0	0	0	0	519	443	0	0	0	0	
8	0	0	0	0	522	444	0	0	0	0	
9	0	0	0	0	525	448	0	0	0	0	
10	0	0	0	0	531	452	0	0	0	0	
11	0	0	0	0	539	460	0	0	0	0	
12	0	0	0	0	549	469	0	0	0	0	
13	0	0	0	0	561	481	0	0	0	0	
14	0	0	0	0	577	495	0	0	0	0	
15	0	0	0	0	595	511	0	0	0	0	
0	0	0	0	0	613	528	0	0	0	0	
1	0	0	0	0	630	543	0	0	0	0	
2	0	0	0	0	643	556	0	0	0	0	
3	0	0	0	0	652	563	0	0	0	0	
4	0	0	0	0	654	566	0	0	0	0	
5	0	0	0	0	651	564	0	0	0	0	
6	0	0	0	0	640	557	0	0	0	0	
7	0	0	0	0	624	544	0	0	0	0	
8	0	0	0	0	602	526	0	0	0	0	
9	0	0	0	0	575	504	0	0	0	0	
10	0	0	0	0	547	481	0	0	0	0	
11	0	0	0	0	517	457	0	0	0	0	
12	0	0	0	0	490	435	0	0	0	0	
13	0	0	0	0	467	415	0	0	0	0	
14	0	0	0	0	450	400	0	0	0	0	
15	0	0	0	0	438	389	0	0	0	0	
0	0	0	0	0	434	384	0	0	0	0	
1	0	0	0	0	435	384	0	0	0	0	
2	0	0	0	0	443	388	0	0	0	0	
3	0	0	0	0	456	398	0	0	0	0	
4	0	0	0	0	473	410	0	0	0	0	
5	0	0	0	0	492	424	0	0	0	0	
6	0	0	0	0	511	439	0	0	0	0	
7	0	0	0	0	529	453	0	0	0	0	
8	0	0	0	0	545	465	0	0	0	0	
9	0	0	0	0	558	475	0	0	0	0	
10	0	0	0	0	567	482	0	0	0	0	
11	0	0	0	0	572	487	0	0	0	0	
12	0	0	0	0	574	488	0	0	0	0	
13	0	0	0	0	572	486	0	0	0	0	
14	0	0	0	0	567	482	0	0	0	0	
15	0	0	0	0	560	476	0	0	0	0	
0	0	0	0	0	551	468	0	0	0	0	
1	0	0	0	0	540	460	0	0	0	0	
2	0	0	0	0	530	452	0	0	0	0	
3	0	0	0	0	521	445	0	0	0	0	
4	0	0	0	0	514	440	0	0	0	0	
5	0	0	0	0	509	436	0	0	0	0	
6	0	0	0	0	507	435	0	0	0	0	
7	0	0	0	0	508	436	0	0	0	0	
8	0	0	0	0	511	439	0	0	0	0	
9	0	0	0	0	516	443	0	0	0	0	
10	0	0	0	0	523	449	0	0	0	0	
11	0	0	0	0	530	455	0	0	0	0	
12	0	0	0	0	537	461	0	0	0	0	
13	0	0	0	0	544	466	0	0	0	0	
14	0	0	0	0	550	471	0	0	0	0	
15	0	0	0	0	554	473	0	0	0	0	
0	0	0	0	0	556	476	0	0	0	0	
1	0	0	0	0	557	476	0	0	0	0	
2	0	0	0	0	557	475	0	0	0	0	
3	0	0	0	0	556	474	0	0	0	0	
4	0	0	0	0	554	472	0	0	0	0	
5	0	0	0	0	552	471	0	0	0	0	
6	0	0	0	0	551	471	0	0	0	0	
7	0	0	0	0	552	472	0	0	0	0	
8	0	0	0	0	555	474	0	0	0	0	
9	0	0	0	0	558	478	0	0	0	0	
10	0	0	0	0	561	481	0	0	0	0	
11	0	0	0	0	565	484	0	0	0	0	
12	0	0	0	0	569	487	0	0	0	0	
13	0	0	0	0	572	491	0	0	0	0	
14	0	0	0	0	574	494	0	0	0	0	
15	0	0	0	0	575	496	0	0	0	0	
0	0	0	0	0	575	497	0	0	0	0	
1	0	0	0	0	573	497	0	0	0	0	
2	0	0	0	0	568	494	0	0	0	0	
3	0	0	0	0	561	489	0	0	0	0	
4	0	0	0	0	551	481	0	0	0	0	
5	0	0	0	0	541	472	0	0	0	0	
6	0	0	0	0	527	460	0	0	0	0	
7	0	0	0	0	513	447	0	0	0	0	
8	0	0	0	0	499	433	0	0	0	0	
9	0	0	0	0	486	421	0	0	0	0	
10	0	0	0	0	477	411	0	0	0	0	
11	0	0	0	0	470	403	0	0	0	0	
12	0	0	0	0	468	400	0	0	0	0	
13	0	0	0	0	470	400	0	0	0	0	
14	0	0	0	0	475	404	0	0	0	0	
15	0	0	0	0	484	411	0	0	0	0	
0	0	0	0	0	495	420	0	0	0	0	
1	0	0	0	0	507	431	0	0	0	0	
2	0	0	0	0	518	441	0	0	0	0	
3	0	0	0	0	528	450	0	0	0	0	
4	0	0	0	0	537	458	0	0	0	0	
5	0	0	0	0	544	464	0	0	0	0	
6	0	0	0	0	549	468	0	0	0	0	
7	0	0	0	0	551	471	0	0	0	0	
8	0	0	0	0	551	470	0	0	0	0	
9	0	0	0	0	549	468	0	0	0	0	
10	0	0	0	0	546	465	0	0	0	0	
11	0	0	0	0	541	461	0	0	0	0	
12	0	0	0	0	534	455	0	0	0	0	
13	0	0	0	0	527	449	0	0	0	0	
14	0	0	0	0	519	443	0	0	0	0	
15	0	0	0	0	513	436	0	0	0	0	
0	0	0	0	0	507	431	0	0	0	0	
1	0	0	0	0	503	428	0	0	0	0	
2	0	0	0	0	501	427	0	0	0	0	
3	0	0	0	0	500	428	0	0	0	0	
4	0	0	0	0	503	430	0	0	0	0	
5	0	0	0	0	506	433	0	0	0	0	
6	0	0	0	0	510	438	0	0	0	0	
7	0	0	0	0	515	443	0	0	0	0	
8	0	0	0	0	519	447	0	0	0	0	
9	0	0	0	0	524	450	0	0	0	0	
10	0	0	0	0	528	454	0	0	0	0	
11	0	0	0	0	531	456	0	0	0	0	
12	0	0	0	0	534	458	0	0	0	0	
13	0	0	0	0	535	459	0	0	0	0	
14	0	0	0	0	535	459	0	0	0	0	
15	0	0	0	0	536	459	0	0	0	0	
0	0	0	0	0	537	460	0	0	0	0	
1	0	0	0	0	538	461	0	0	0	0	
2	0	0	0	0	540	464	0	0	0	0	
3	0	0	0	0	542	466	0	0	0	0	
4	0	0	0	0	543	468	0	0	0	0	
5	0	0	0	0	544	471	0	0	0	0	
6	0	0	0	0	545	472	0	0	0	0	
7	0	0	0	0	544	473	0	0	0	0	
8	0	0	0	0	543	473	0	0	0	0	
9	0	0	0	0	540	473	0	0	0	0	
10	0	0	0	0	537	472	0	0	0	0	
11	0	0	0	0	535	470	0	0	0	0	
12	0	0	0	0	532	468	0	0	0	0	
13	0	0	0	0	530	466	0	0	0	0	
14	0	0	0	0	527	465	0	0	0	0	
15	0	0	0	0	526	463	0	0	0	0	
0	0	0	0	0	524	461	0	0	0	0	
1	0	0	0	0	524	460	0	0	0	0	
2	0	0	0	0	524	458	0	0	0	0	
3	0	0	0	0	524	457	0	0	0	0	
4	0	0	0	0	524	457	0	0	0	0	
5	0	0	0	0	526	457	0	0	0	0	
6	0	0	0	0	527	457	0	0	0	0	
7	0	0	0	0	527	457	0	0	0	0	
8	0	0	0	0	528	457	0	0	0	0	
9	0	0	0	0	527	456	0	0	0	0	
10	0	0	0	0	525	455	0	0	0	0	
11	0	0	0	0	523	453	0	0	0	0	
12	0	0	0	0	519	451	0	0	0	0	
13	0	0	0	0	515	449	0	0	0	0	
14	0	0	0	0	511	447	0	0	0	0	
15	0	0	0	0	507	444	0	0	0	0	
0	0	0	0	0	503	442	0	0	0	0	
1	0	0	0	0	499	438	0	0	0	0	
2	0	0	0	0	496	435	0	0	0	0	
3	0	0	0	0	491	431	0	0	0	0	
4	0	0	0	0	486	426	0	0	0	0	
5	0	0	0	0	482	421	0	0	0	0	
6	0	0	0	0	476	414	0	0	0	0	
7	0	0	0	0	470	406	0	0	0	0	
8	0	0	0	0	461	396	0	0	0	0	
9	0	0	0	0	451	386	0	0	0	0	
10	0	0	0	0	440	375	0	0	0	0	
11	0	0	0	0	428	362	0	0	0	0	
12	0	0	0	0	414	350	0	0	0	0	
13	0	0	0	0	401	337	0	0	0	0	
14	0	0	0	0	387	325	0	0	0	0	
15	0	0	0	0	374	313	0	0	0	0	
0	0	0	0	0	360	302	0	0	0	0	
1	0	0	0	0	348	291	0	0	0	0	
2	0	0	0	0	338	282	0	0	0	0	
3	0	0	0	0	329	275	0	0	0	0	
4	0	0	0	0	323	268	0	0	0	0	
5	0	0	0	0	319	263	0	0	0	0	
6	0	0	0	0	318	261	0	0	0	0	
7	0	0	0	0	317	259	0	0	0	0	
8	0	0	0	0	319	258	0	0	0	0	
9	0	0	0	0	323	259	0	0	0	0	
10	0	0	0	0	329	262	0	0	0	0	
11	0	0	0	0	339	267	0	0	0	0	
12	0	0	0	0	350	275	0	0	0	0	
13	0	0	0	0	365	287	0	0	0	0	
14	0	0	0	0	383	301	0	0	0	0	
15	0	0	0	0	403	318	0	0	0	0	
0	0	0	0	0	426	338	0	0	0	0	
1	0	0	0	0	450	360	0	0	0	0	
2	0	0	0	0	475	383	0	0	0	0	
3	0	0	0	0	499	407	0	0	0	0	
4	0	0	0	0	523	430	0	0	0	0	
5	0	0	0	0	543	451	0	0	0	0	
6	0	0	0	0	562	471	0	0	0	0	
7	0	0	0	0	577	487	0	0	0	0	
8	0	0	0	0	587	501	0	0	0	0	
9	0	0	0	0	594	509	0	0	0	0	
10	0	0	0	0	595	513	0	0	0	0	
11	0	0	0	0	592	513	0	0	0	0	
12	0	0	0	0	585	510	0	0	0	0	
13	0	0	0	0	575	503	0	0	0	0	
14	0	0	0	0	563	493	0	0	0	0	
15	0	0	0	0	551	483	0	0	0	0	
0	0	0	0	0	538	472	0	0	0	0	
1	0	0	0	0	527	463	0	0	0	0	
2	0	0	0	0	518	454	0	0	0	0	
3	0	0	0	0	510	446	0	0	0	0	
4	0	0	0	0	504	440	0	0	0	0	
5	0	0	0	0	499	434	0	0	0	0	
6	0	0	0	0	496	431	0	0	0	0	
7	0	0	0	0	495	430	0	0	0	0	
8	0	0	0	0	496	430	0	0	0	0	
9	0	0	0	0	499	432	0	0	0	0	
10	0	0	0	0	504	436	0	0	0	0	
11	0	0	0	0	510	442	0	0	0	0	
12	0	0	0	0	517	448	0	0	0	0	
13	0	0	0	0	525	455	0	0	0	0	
14	0	0	0	0	533	462	0	0	0	0	
15	0	0	0	0	540	467	0	0	0	0	
0	0	0	0	0	547	473	0	0	0	0	
1	0	0	0	0	552	477	0	0	0	0	
2	0	0	0	0	556	479	0	0	0	0	
3	0	0	0	0	559	481	0	0	0	0	
4	0	0	0	0	560	481	0	0	0	0	
5	0	0	0	0	559	480	0	0	0	0	
6	0	0	0	0	558	479	0	0	0	0	
7	0	0	0	0	556	477	0	0	0	0	
8	0	0	0	0	552	475	0	0	0	0	
9	0	0	0	0	549	473	0	0	0	0	
10	0	0	0	0	546	472	0	0	0	0	
11	0	0	0	0	543	471	0	0	0	0	
12	0	0	0	0	542	471	0	0	0	0	
13	0	0	0	0	541	472	0	0	0	0	
14	0	0	0	0	542	473	0	0	0	0	
15	0	0	0	0	544	476	0	0	0	0	
0	0	0	0	0	547	479	0	0	0	0	
1	0	0	0	0	550	482	0	0	0	0	
2	0	0	0	0	553	484	0	0	0	0	
3	0	0	0	0	554	486	0	0	0	0	
4	0	0	0	0	554	485	0	0	0	0	
5	0	0	0	0	553	482	0	0	0	0	
6	0	0	0	0	550	479	0	0	0	0	
7	0	0	0	0	546	474	0	0	0	0	
8	0	0	0	0	542	470	0	0	0	0	
9	0	0	0	0	538	465	0	0	0	0	
10	0	0	0	0	535	461	0	0	0	0	
11	0	0	0	0	533	459	0	0	0	0	
12	0	0	0	0	532	458	0	0	0	0	
13	0	0	0	0	533	458	0	0	0	0	
14	0	0	0	0	535	460	0	0	0	0	
15	0	0	0	0	538	463	0	0	0	0	
0	0	0	0	0	542	467	0	0	0	0	
1	0	0	0	0	546	472	0	0	0	0	
2	0	0	0	0	551	477	0	0	0	0	
3	0	0	0	0	555	482	0	0	0	0	
4	0	0	0	0	559	487	0	0	0	0	
5	0	0	0	0	562	490	0	0	0	0	
6	0	0	0	0	564	492	0	0	0	0	
7	0	0	0	0	564	493	0	0	0	0	
8	0	0	0	0	563	492	0	0	0	0	
9	0	0	0	0	561	490	0	0	0	0	
10	0	0	0	0	557	487	0	0	0	0	
11	0	0	0	0	553	483	0	0	0	0	
12	0	0	0	0	549	480	0	0	0	0	
13	0	0	0	0	545	477	0	0	0	0	
14	0	0	0	0	544	475	0	0	0	0	
15	0	0	0	0	543	474	0	0	0	0	
0	0	0	0	0	543	474	0	0	0	0	
1	0	0	0	0	543	475	0	0	0	0	
2	0	0	0	0	545	476	0	0	0	0	
3	0	0	0	0	548	479	0	0	0	0	
4	0	0	0	0	552	483	0	0	0	0	
5	0	0	0	0	557	487	0	0	0	0	
6	0	0	0	0	562	492	0	0	0	0	
7	0	0	0	0	567	497	0	0	0	0	
8	0	0	0	0	571	501	0	0	0	0	
9	0	0	0	0	574	504	0	0	0	0	
10	0	0	0	0	573	504	0	0	0	0	
11	0	0	0	0	569	501	0	0	0	0	
12	0	0	0	0	562	496	0	0	0	0	
13	0	0	0	0	555	489	0	0	0	0	
14	0	0	0	0	546	483	0	0	0	0	
15	0	0	0	0	539	478	0	0	0	0	
0	0	0	0	0	533	473	0	0	0	0	
1	0	0	0	0	528	470	0	0	0	0	
2	0	0	0	0	526	468	0	0	0	0	
3	0	0	0	0	526	467	0	0	0	0	
4	0	0	0	0	527	469	0	0	0	0	
5	0	0	0	0	530	471	0	0	0	0	
6	0	0	0	0	535	474	0	0	0	0	
7	0	0	0	0	539	478	0	0	0	0	
8	0	0	0	0	542	480	0	0	0	0	
9	0	0	0	0	546	482	0	0	0	0	
10	0	0	0	0	548	483	0	0	0	0	
11	0	0	0	0	548	483	0	0	0	0	
12	0	0	0	0	549	483	0	0	0	0	
13	0	0	0	0	548	482	0	0	0	0	
14	0	0	0	0	547	481	0	0	0	0	
15	0	0	0	0	546	480	0	0	0	0	
0	0	0	0	0	543	478	0	0	0	0	
1	0	0	0	0	541	476	0	0	0	0	
2	0	0	0	0	538	473	0	0	0	0	
3	0	0	0	0	535	470	0	0	0	0	
4	0	0	0	0	532	468	0	0	0	0	
5	0	0	0	0	532	468	0	0	0	0	
6	0	0	0	0	532	467	0	0	0	0	
7	0	0	0	0	534	468	0	0	0	0	
8	0	0	0	0	536	471	0	0	0	0	
9	0	0	0	0	540	474	0	0	0	0	
10	0	0	0	0	544	478	0	0	0	0	
11	0	0	0	0	549	482	0	0	0	0	
12	0	0	0	0	555	487	0	0	0	0	
13	0	0	0	0	559	492	0	0	0	0	
14	0	0	0	0	563	497	0	0	0	0	
15	0	0	0	0	567	502	0	0	0	0	
0	0	0	0	0	570	504	0	0	0	0	
1	0	0	0	0	571	507	0	0	0	0	
2	0	0	0	0	571	508	0	0	0	0	
3	0	0	0	0	570	507	0	0	0	0	
4	0	0	0	0	568	506	0	0	0	0	
5	0	0	0	0	565	503	0	0	0	0	
6	0	0	0	0	561	499	0	0	0	0	
7	0	0	0	0	557	494	0	0	0	0	
8	0	0	0	0	552	488	0	0	0	0	
9	0	0	0	0	546	482	0	0	0	0	
10	0	0	0	0	541	476	0	0	0	0	
11	0	0	0	0	535	471	0	0	0	0	
12	0	0	0	0	531	467	0	0	0	0	
13	0	0	0	0	528	465	0	0	0	0	
14	0	0	0	0	526	465	0	0	0	0	
15	0	0	0	0	527	466	0	0	0	0	
0	0	0	0	0	527	467	0	0	0	0	
1	0	0	0	0	529	470	0	0	0	0	
2	0	0	0	0	531	472	0	0	0	0	
3	0	0	0	0	533	474	0	0	0	0	
4	0	0	0	0	535	476	0	0	0	0	
5	0	0	0	0	537	477	0	0	0	0	
6	0	0	0	0	540	478	0	0	0	0	
7	0	0	0	0	540	478	0	0	0	0	
8	0	0	0	0	541	477	0	0	0	0	
9	0	0	0	0	541	475	0	0	0	0	
10	0	0	0	0	540	473	0	0	0	0	
11	0	0	0	0	538	470	0	0	0	0	
12	0	0	0	0	536	467	0	0	0	0	
13	0	0	0	0	533	463	0	0	0	0	
14	0	0	0	0	530	461	0	0	0	0	
15	0	0	0	0	528	459	0	0	0	0	
0	0	0	0	0	526	458	0	0	0	0	
1	0	0	0	0	525	459	0	0	0	0	
2	0	0	0	0	525	460	0	0	0	0	
3	0	0	0	0	526	463	0	0	0	0	
4	0	0	0	0	528	467	0	0	0	0	
5	0	0	0	0	531	471	0	0	0	0	
6	0	0	0	0	534	475	0	0	0	0	
7	0	0	0	0	536	479	0	0	0	0	
8	0	0	0	0	540	482	0	0	0	0	
9	0	0	0	0	543	486	0	0	0	0	
10	0	0	0	0	545	487	0	0	0	0	
11	0	0	0	0	548	490	0	0	0	0	
12	0	0	0	0	551	491	0	0	0	0	
13	0	0	0	0	553	492	0	0	0	0	
14	0	0	0	0	556	492	0	0	0	0	
15	0	0	0	0	558	493	0	0	0	0	
0	0	0	0	0	561	495	0	0	0	0	
1	0	0	0	0	565	497	0	0	0	0	
2	0	0	0	0	568	500	0	0	0	0	
3	0	0	0	0	572	502	0	0	0	0	
4	0	0	0	0	574	503	0	0	0	0	
5	0	0	0	0	573	504	0	0	0	0	
6	0	0	0	0	570	502	0	0	0	0	
7	0	0	0	0	564	499	0	0	0	0	
8	0	0	0	0	557	494	0	0	0	0	
9	0	0	0	0	548	488	0	0	0	0	
10	0	0	0	0	539	482	0	0	0	0	
11	0	0	0	0	530	476	0	0	0	0	
12	0	0	0	0	522	472	0	0	0	0	
13	0	0	0	0	517	467	0	0	0	0	
14	0	0	0	0	514	465	0	0	0	0	
15	0	0	0	0	513	464	0	0	0	0	
0	0	0	0	0	515	465	0	0	0	0	
1	0	0	0	0	520	468	0	0	0	0	
2	0	0	0	0	528	472	0	0	0	0	
3	0	0	0	0	536	477	0	0	0	0	
4	0	0	0	0	547	483	0	0	0	0	
5	0	0	0	0	556	491	0	0	0	0	
6	0	0	0	0	566	497	0	0	0	0	
7	0	0	0	0	575	504	0	0	0	0	
8	0	0	0	0	584	512	0	0	0	0	
9	0	0	0	0	591	519	0	0	0	0	
10	0	0	0	0	595	525	0	0	0	0	
11	0	0	0	0	598	529	0	0	0	0	
12	0	0	0	0	598	531	0	0	0	0	
13	0	0	0	0	596	531	0	0	0	0	
14	0	0	0	0	591	530	0	0	0	0	
15	0	0	0	0	584	526	0	0	0	0	
0	0	0	0	0	575	520	0	0	0	0	
1	0	0	0	0	565	513	0	0	0	0	
2	0	0	0	0	554	504	0	0	0	0	
3	0	0	0	0	542	494	0	0	0	0	
4	0	0	0	0	532	485	0	0	0	0	
5	0	0	0	0	524	476	0	0	0	0	
6	0	0	0	0	517	468	0	0	0	0	
7	0	0	0	0	511	462	0	0	0	0	
8	0	0	0	0	508	455	0	0	0	0	
9	0	0	0	0	506	451	0	0	0	0	
10	0	0	0	0	505	447	0	0	0	0	
11	0	0	0	0	506	445	0	0	0	0	
12	0	0	0	0	508	444	0	0	0	0	
13	0	0	0	0	510	445	0	0	0	0	
14	0	0	0	0	513	448	0	0	0	0	
15	0	0	0	0	517	451	0	0	0	0	
0	0	0	0	0	521	455	0	0	0	0	
1	0	0	0	0	525	459	0	0	0	0	
2	0	0	0	0	528	463	0	0	0	0	
3	0	0	0	0	530	466	0	0	0	0	
4	0	0	0	0	531	467	0	0	0	0	
5	0	0	0	0	531	467	0	0	0	0	
6	0	0	0	0	530	467	0	0	0	0	
7	0	0	0	0	528	466	0	0	0	0	
8	0	0	0	0	527	465	0	0	0	0	
9	0	0	0	0	525	463	0	0	0	0	
10	0	0	0	0	525	462	0	0	0	0	
11	0	0	0	0	524	462	0	0	0	0	
12	0	0	0	0	524	461	0	0	0	0	
13	0	0	0	0	524	460	0	0	0	0	
14	0	0	0	0	522	459	0	0	0	0	
15	0	0	0	0	521	457	0	0	0	0	
0	0	0	0	0	519	456	0	0	0	0	
1	0	0	0	0	516	454	0	0	0	0	
2	0	0	0	0	513	453	0	0	0	0	
3	0	0	0	0	512	452	0	0	0	0	
4	0	0	0	0	511	452	0	0	0	0	
5	0	0	0	0	511	452	0	0	0	0	
6	0	0	0	0	512	454	0	0	0	0	
7	0	0	0	0	515	455	0	0	0	0	
8	0	0	0	0	518	458	0	0	0	0	
9	0	0	0	0	521	460	0	0	0	0	
10	0	0	0	0	525	463	0	0	0	0	
11	0	0	0	0	527	464	0	0	0	0	
12	0	0	0	0	530	465	0	0	0	0	
13	0	0	0	0	531	465	0	0	0	0	
14	0	0	0	0	531	464	0	0	0	0	
15	0	0	0	0	531	464	0	0	0	0	
0	0	0	0	0	530	463	0	0	0	0	
1	0	0	0	0	531	464	0	0	0	0	
2	0	0	0	0	531	465	0	0	0	0	
3	0	0	0	0	534	467	0	0	0	0	
4	0	0	0	0	537	471	0	0	0	0	
5	0	0	0	0	541	475	0	0	0	0	
6	0	0	0	0	544	479	0	0	0	0	
7	0	0	0	0	547	482	0	0	0	0	
8	0	0	0	0	549	483	0	0	0	0	
9	0	0	0	0	550	484	0	0	0	0	
10	0	0	0	0	548	484	0	0	0	0	
11	0	0	0	0	546	482	0	0	0	0	
12	0	0	0	0	542	480	0	0	0	0	
13	0	0	0	0	538	476	0	0	0	0	
14	0	0	0	0	533	473	0	0	0	0	
15	0	0	0	0	529	470	0	0	0	0	
0	0	0	0	0	525	466	0	0	0	0	
1	0	0	0	0	524	464	0	0	0	0	
2	0	0	0	0	524	463	0	0	0	0	
3	0	0	0	0	526	464	0	0	0	0	
4	0	0	0	0	529	467	0	0	0	0	
5	0	0	0	0	536	471	0	0	0	0	
6	0	0	0	0	543	476	0	0	0	0	
7	0	0	0	0	551	483	0	0	0	0	
8	0	0	0	0	559	488	0	0	0	0	
9	0	0	0	0	566	494	0	0	0	0	
10	0	0	0	0	570	498	0	0	0	0	
11	0	0	0	0	572	500	0	0	0	0	
12	0	0	0	0	572	500	0	0	0	0	
13	0	0	0	0	568	499	0	0	0	0	
14	0	0	0	0	562	495	0	0	0	0	
15	0	0	0	0	554	489	0	0	0	0	
0	0	0	0	0	543	482	0	0	0	0	
1	0	0	0	0	532	473	0	0	0	0	
2	0	0	0	0	520	464	0	0	0	0	
3	0	0	0	0	509	454	0	0	0	0	
4	0	0	0	0	499	445	0	0	0	0	
5	0	0	0	0	490	438	0	0	0	0	
6	0	0	0	0	485	432	0	0	0	0	
7	0	0	0	0	483	430	0	0	0	0	
8	0	0	0	0	485	430	0	0	0	0	
9	0	0	0	0	489	433	0	0	0	0	
10	0	0	0	0	496	437	0	0	0	0	
11	0	0	0	0	504	443	0	0	0	0	
12	0	0	0	0	514	450	0	0	0	0	
13	0	0	0	0	523	457	0	0	0	0	
14	0	0	0	0	531	463	0	0	0	0	
15	0	0	0	0	539	470	0	0	0	0	
0	0	0	0	0	544	474	0	0	0	0	
1	0	0	0	0	547	478	0	0	0	0	
2	0	0	0	0	548	480	0	0	0	0	
3	0	0	0	0	548	481	0	0	0	0	
4	0	0	0	0	547	481	0	0	0	0	
5	0	0	0	0	545	481	0	0	0	0	
6	0	0	0	0	542	480	0	0	0	0	
7	0	0	0	0	539	478	0	0	0	0	
8	0	0	0	0	536	476	0	0	0	0	
9	0	0	0	0	534	474	0	0	0	0	
10	0	0	0	0	532	472	0	0	0	0	
11	0	0	0	0	531	471	0	0	0	0	
12	0	0	0	0	529	470	0	0	0	0	
13	0	0	0	0	528	468	0	0	0	0	
14	0	0	0	0	528	468	0	0	0	0	
15	0	0	0	0	529	467	0	0	0	0	
0	0	0	0	0	529	467	0	0	0	0	
1	0	0	0	0	530	467	0	0	0	0	
2	0	0	0	0	531	468	0	0	0	0	
3	0	0	0	0	532	470	0	0	0	0	
4	0	0	0	0	532	471	0	0	0	0	
5	0	0	0	0	532	472	0	0	0	0	
6	0	0	0	0	531	472	0	0	0	0	
7	0	0	0	0	529	472	0	0	0	0	
8	0	0	0	0	528	472	0	0	0	0	
9	0	0	0	0	526	471	0	0	0	0	
10	0	0	0	0	524	470	0	0	0	0	
11	0	0	0	0	522	468	0	0	0	0	
12	0	0	0	0	520	467	0	0	0	0	
13	0	0	0	0	519	465	0	0	0	0	
14	0	0	0	0	518	463	0	0	0	0	
15	0	0	0	0	517	461	0	0	0	0	
0	0	0	0	0	516	459	0	0	0	0	
1	0	0	0	0	516	457	0	0	0	0	
2	0	0	0	0	516	455	0	0	0	0	
3	0	0	0	0	517	454	0	0	0	0	
4	0	0	0	0	516	452	0	0	0	0	
5	0	0	0	0	515	450	0	0	0	0	
6	0	0	0	0	512	448	0	0	0	0	
7	0	0	0	0	510	446	0	0	0	0	
8	0	0	0	0	507	444	0	0	0	0	
9	0	0	0	0	504	443	0	0	0	0	
10	0	0	0	0	502	443	0	0	0	0	
11	0	0	0	0	499	443	0	0	0	0	
12	0	0	0	0	499	444	0	0	0	0	
13	0	0	0	0	498	444	0	0	0	0	
14	0	0	0	0	499	446	0	0	0	0	
15	0	0	0	0	499	447	0	0	0	0	
0	0	0	0	0	500	448	0	0	0	0	
1	0	0	0	0	503	450	0	0	0	0	
2	0	0	0	0	507	452	0	0	0	0	
3	0	0	0	0	512	455	0	0	0	0	
4	0	0	0	0	519	460	0	0	0	0	
5	0	0	0	0	526	465	0	0	0	0	
6	0	0	0	0	533	471	0	0	0	0	
7	0	0	0	0	542	477	0	0	0	0	
8	0	0	0	0	550	484	0	0	0	0	
9	0	0	0	0	557	490	0	0	0	0	
10	0	0	0	0	563	497	0	0	0	0	
11	0	0	0	0	568	501	0	0	0	0	
12	0	0	0	0	572	505	0	0	0	0	
13	0	0	0	0	572	507	0	0	0	0	
14	0	0	0	0	571	506	0	0	0	0	
15	0	0	0	0	566	503	0	0	0	0	
0	0	0	0	0	559	497	0	0	0	0	
1	0	0	0	0	549	490	0	0	0	0	
2	0	0	0	0	537	480	0	0	0	0	
3	0	0	0	0	525	470	0	0	0	0	
4	0	0	0	0	511	459	0	0	0	0	
5	0	0	0	0	499	448	0	0	0	0	
6	0	0	0	0	488	438	0	0	0	0	
7	0	0	0	0	480	431	0	0	0	0	
8	0	0	0	0	475	425	0	0	0	0	
9	0	0	0	0	472	422	0	0	0	0	
10	0	0	0	0	473	422	0	0	0	0	
11	0	0	0	0	478	424	0	0	0	0	
12	0	0	0	0	484	429	0	0	0	0	
13	0	0	0	0	494	436	0	0	0	0	
14	0	0	0	0	504	445	0	0	0	0	
15	0	0	0	0	516	454	0	0	0	0	
0	0	0	0	0	529	465	0	0	0	0	
1	0	0	0	0	541	476	0	0	0	0	
2	0	0	0	0	553	486	0	0	0	0	
3	0	0	0	0	563	494	0	0	0	0	
4	0	0	0	0	571	501	0	0	0	0	
5	0	0	0	0	575	505	0	0	0	0	
6	0	0	0	0	577	507	0	0	0	0	
7	0	0	0	0	575	505	0	0	0	0	
8	0	0	0	0	571	501	0	0	0	0	
9	0	0	0	0	564	496	0	0	0	0	
10	0	0	0	0	558	490	0	0	0	0	
11	0	0	0	0	551	484	0	0	0	0	
12	0	0	0	0	544	479	0	0	0	0	
13	0	0	0	0	537	474	0	0	0	0	
14	0	0	0	0	532	471	0	0	0	0	
15	0	0	0	0	528	468	0	0	0	0	
0	0	0	0	0	526	466	0	0	0	0	
1	0	0	0	0	523	465	0	0	0	0	
2	0	0	0	0	521	464	0	0	0	0	
3	0	0	0	0	520	464	0	0	0	0	
4	0	0	0	0	519	464	0	0	0	0	
5	0	0	0	0	518	463	0	0	0	0	
6	0	0	0	0	517	463	0	0	0	0	
7	0	0	0	0	515	462	0	0	0	0	
8	0	0	0	0	513	460	0	0	0	0	
9	0	0	0	0	511	458	0	0	0	0	
10	0	0	0	0	509	455	0	0	0	0	
11	0	0	0	0	507	452	0	0	0	0	
12	0	0	0	0	504	448	0	0	0	0	
13	0	0	0	0	502	445	0	0	0	0	
14	0	0	0	0	502	443	0	0	0	0	
15	0	0	0	0	501	441	0	0	0	0	
0	0	0	0	0	502	440	0	0	0	0	
1	0	0	0	0	504	441	0	0	0	0	
2	0	0	0	0	507	443	0	0	0	0	
3	0	0	0	0	511	447	0	0	0	0	
4	0	0	0	0	516	451	0	0	0	0	
5	0	0	0	0	521	457	0	0	0	0	
6	0	0	0	0	526	463	0	0	0	0	
7	0	0	0	0	532	468	0	0	0	0	
8	0	0	0	0	537	475	0	0	0	0	
9	0	0	0	0	542	481	0	0	0	0	
10	0	0	0	0	546	487	0	0	0	0	
11	0	0	0	0	548	491	0	0	0	0	
12	0	0	0	0	549	493	0	0	0	0	
13	0	0	0	0	548	494	0	0	0	0	
14	0	0	0	0	545	492	0	0	0	0	
15	0	0	0	0	540	489	0	0	0	0	
0	0	0	0	0	533	483	0	0	0	0	
1	0	0	0	0	526	475	0	0	0	0	
2	0	0	0	0	517	467	0	0	0	0	
3	0	0	0	0	508	458	0	0	0	0	
4	0	0	0	0	500	449	0	0	0	0	
5	0	0	0	0	492	441	0	0	0	0	
6	0	0	0	0	486	433	0	0	0	0	
7	0	0	0	0	481	428	0	0	0	0	
8	0	0	0	0	478	424	0	0	0	0	
9	0	0	0	0	477	422	0	0	0	0	
10	0	0	0	0	477	422	0	0	0	0	
11	0	0	0	0	480	424	0	0	0	0	
12	0	0	0	0	483	427	0	0	0	0	
13	0	0	0	0	487	432	0	0	0	0	
14	0	0	0	0	492	436	0	0	0	0	
15	0	0	0	0	496	441	0	0	0	0	
0	0	0	0	0	501	445	0	0	0	0	
1	0	0	0	0	504	448	0	0	0	0	
2	0	0	0	0	507	451	0	0	0	0	
3	0	0	0	0	509	452	0	0	0	0	
4	0	0	0	0	510	454	0	0	0	0	
5	0	0	0	0	511	454	0	0	0	0	
6	0	0	0	0	512	454	0	0	0	0	
7	0	0	0	0	512	454	0	0	0	0	
8	0	0	0	0	513	454	0	0	0	0	
9	0	0	0	0	514	454	0	0	0	0	
10	0	0	0	0	516	454	0	0	0	0	
11	0	0	0	0	519	455	0	0	0	0	
12	0	0	0	0	522	457	0	0	0	0	
13	0	0	0	0	524	460	0	0	0	0	
14	0	0	0	0	527	462	0	0	0	0	
15	0	0	0	0	530	465	0	0	0	0	
0	0	0	0	0	531	467	0	0	0	0	
1	0	0	0	0	533	470	0	0	0	0	
2	0	0	0	0	534	473	0	0	0	0	
3	0	0	0	0	535	476	0	0	0	0	
4	0	0	0	0	535	478	0	0	0	0	
5	0	0	0	0	536	480	0	0	0	0	
6	0	0	0	0	536	481	0	0	0	0	
7	0	0	0	0	535	481	0	0	0	0	
8	0	0	0	0	534	480	0	0	0	0	
9	0	0	0	0	531	476	0	0	0	0	
10	0	0	0	0	527	472	0	0	0	0	
11	0	0	0	0	524	467	0	0	0	0	
12	0	0	0	0	521	464	0	0	0	0	
13	0	0	0	0	518	460	0	0	0	0	
14	0	0	0	0	516	457	0	0	0	0	
15	0	0	0	0	515	455	0	0	0	0	
0	0	0	0	0	515	454	0	0	0	0	
1	0	0	0	0	514	454	0	0	0	0	
2	0	0	0	0	514	453	0	0	0	0	
3	0	0	0	0	513	453	0	0	0	0	
4	0	0	0	0	512	451	0	0	0	0	
5	0	0	0	0	511	450	0	0	0	0	
6	0	0	0	0	509	448	0	0	0	0	
7	0	0	0	0	506	447	0	0	0	0	
8	0	0	0	0	504	444	0	0	0	0	
9	0	0	0	0	502	443	0	0	0	0	
10	0	0	0	0	500	440	0	0	0	0	
11	0	0	0	0	499	439	0	0	0	0	
12	0	0	0	0	498	438	0	0	0	0	
13	0	0	0	0	497	437	0	0	0	0	
14	0	0	0	0	498	436	0	0	0	0	
15	0	0	0	0	500	436	0	0	0	0	
0	0	0	0	0	503	437	0	0	0	0	
1	0	0	0	0	506	440	0	0	0	0	
2	0	0	0	0	511	444	0	0	0	0	
3	0	0	0	0	518	449	0	0	0	0	
4	0	0	0	0	526	457	0	0	0	0	
5	0	0	0	0	536	467	0	0	0	0	
6	0	0	0	0	547	478	0	0	0	0	
7	0	0	0	0	557	489	0	0	0	0	
8	0	0	0	0	566	499	0	0	0	0	
9	0	0	0	0	573	505	0	0	0	0	
10	0	0	0	0	575	509	0	0	0	0	
11	0	0	0	0	574	509	0	0	0	0	
12	0	0	0	0	567	504	0	0	0	0	
13	0	0	0	0	556	495	0	0	0	0	
14	0	0	0	0	542	483	0	0	0	0	
15	0	0	0	0	525	469	0	0	0	0	
0	0	0	0	0	508	454	0	0	0	0	
1	0	0	0	0	491	439	0	0	0	0	
2	0	0	0	0	475	425	0	0	0	0	
3	0	0	0	0	462	413	0	0	0	0	
4	0	0	0	0	452	404	0	0	0	0	
5	0	0	0	0	446	398	0	0	0	0	
6	0	0	0	0	445	396	0	0	0	0	
7	0	0	0	0	448	397	0	0	0	0	
8	0	0	0	0	454	401	0	0	0	0	
9	0	0	0	0	463	408	0	0	0	0	
10	0	0	0	0	474	416	0	0	0	0	
11	0	0	0	0	486	425	0	0	0	0	
12	0	0	0	0	497	434	0	0	0	0	
13	0	0	0	0	508	441	0	0	0	0	
14	0	0	0	0	514	447	0	0	0	0	
15	0	0	0	0	517	450	0	0	0	0	
0	0	0	0	0	516	449	0	0	0	0	
1	0	0	0	0	510	444	0	0	0	0	
2	0	0	0	0	499	435	0	0	0	0	
3	0	0	0	0	484	423	0	0	0	0	
4	0	0	0	0	465	407	0	0	0	0	
5	0	0	0	0	445	390	0	0	0	0	
6	0	0	0	0	424	372	0	0	0	0	
7	0	0	0	0	403	353	0	0	0	0	
8	0	0	0	0	384	336	0	0	0	0	
9	0	0	0	0	366	320	0	0	0	0	
10	0	0	0	0	351	306	0	0	0	0	
11	0	0	0	0	339	294	0	0	0	0	
12	0	0	0	0	329	284	0	0	0	0	
13	0	0	0	0	323	275	0	0	0	0	
14	0	0	0	0	317	269	0	0	0	0	
15	0	0	0	0	314	264	0	0	0	0	
0	0	0	0	0	313	261	0	0	0	0	
1	0	0	0	0	314	260	0	0	0	0	
2	0	0	0	0	316	260	0	0	0	0	
3	0	0	0	0	320	263	0	0	0	0	
4	0	0	0	0	327	268	0	0	0	0	
5	0	0	0	0	336	274	0	0	0	0	
6	0	0	0	0	346	283	0	0	0	0	
7	0	0	0	0	358	291	0	0	0	0	
8	0	0	0	0	369	301	0	0	0	0	
9	0	0	0	0	380	310	0	0	0	0	
10	0	0	0	0	391	318	0	0	0	0	
11	0	0	0	0	401	326	0	0	0	0	
12	0	0	0	0	410	334	0	0	0	0	
13	0	0	0	0	420	343	0	0	0	0	
14	0	0	0	0	430	352	0	0	0	0	
15	0	0	0	0	442	364	0	0	0	0	
0	0	0	0	0	455	377	0	0	0	0	
1	0	0	0	0	469	391	0	0	0	0	
2	0	0	0	0	483	406	0	0	0	0	
3	0	0	0	0	497	422	0	0	0	0	
4	0	0	0	0	511	435	0	0	0	0	
5	0	0	0	0	523	449	0	0	0	0	
6	0	0	0	0	533	461	0	0	0	0	
7	0	0	0	0	541	470	0	0	0	0	
8	0	0	0	0	547	478	0	0	0	0	
9	0	0	0	0	551	484	0	0	0	0	
10	0	0	0	0	554	488	0	0	0	0	
11	0	0	0	0	555	490	0	0	0	0	
12	0	0	0	0	555	491	0	0	0	0	
13	0	0	0	0	554	491	0	0	0	0	
14	0	0	0	0	553	489	0	0	0	0	
15	0	0	0	0	551	487	0	0	0	0	
0	0	0	0	0	550	485	0	0	0	0	
1	0	0	0	0	547	481	0	0	0	0	
2	0	0	0	0	543	478	0	0	0	0	
3	0	0	0	0	539	474	0	0	0	0	
4	0	0	0	0	534	469	0	0	0	0	
5	0	0	0	0	528	464	0	0	0	0	
6	0	0	0	0	523	461	0	0	0	0	
7	0	0	0	0	518	457	0	0	0	0	
8	0	0	0	0	515	455	0	0	0	0	
9	0	0	0	0	514	456	0	0	0	0	
10	0	0	0	0	514	457	0	0	0	0	
11	0	0	0	0	515	459	0	0	0	0	
12	0	0	0	0	516	460	0	0	0	0	
13	0	0	0	0	519	462	0	0	0	0	
14	0	0	0	0	521	464	0	0	0	0	
15	0	0	0	0	524	465	0	0	0	0	
0	0	0	0	0	526	465	0	0	0	0	
1	0	0	0	0	528	465	0	0	0	0	
2	0	0	0	0	529	464	0	0	0	0	
3	0	0	0	0	531	464	0	0	0	0	
4	0	0	0	0	532	464	0	0	0	0	
5	0	0	0	0	531	463	0	0	0	0	
6	0	0	0	0	530	462	0	0	0	0	
7	0	0	0	0	528	461	0	0	0	0	
8	0	0	0	0	524	459	0	0	0	0	
9	0	0	0	0	521	458	0	0	0	0	
10	0	0	0	0	518	457	0	0	0	0	
11	0	0	0	0	515	457	0	0	0	0	
12	0	0	0	0	514	457	0	0	0	0	
13	0	0	0	0	515	460	0	0	0	0	
14	0	0	0	0	517	463	0	0	0	0	
15	0	0	0	0	522	468	0	0	0	0	
0	0	0	0	0	528	475	0	0	0	0	
1	0	0	0	0	536	480	0	0	0	0	
2	0	0	0	0	542	485	0	0	0	0	
3	0	0	0	0	546	487	0	0	0	0	
4	0	0	0	0	548	486	0	0	0	0	
5	0	0	0	0	546	482	0	0	0	0	
6	0	0	0	0	542	476	0	0	0	0	
7	0	0	0	0	536	469	0	0	0	0	
8	0	0	0	0	527	461	0	0	0	0	
9	0	0	0	0	519	452	0	0	0	0	
10	0	0	0	0	511	446	0	0	0	0	
11	0	0	0	0	504	440	0	0	0	0	
12	0	0	0	0	499	436	0	0	0	0	
13	0	0	0	0	495	434	0	0	0	0	
14	0	0	0	0	493	434	0	0	0	0	
15	0	0	0	0	494	435	0	0	0	0	
0	0	0	0	0	496	438	0	0	0	0	
1	0	0	0	0	499	442	0	0	0	0	
2	0	0	0	0	504	447	0	0	0	0	
3	0	0	0	0	508	451	0	0	0	0	
4	0	0	0	0	514	456	0	0	0	0	
5	0	0	0	0	519	461	0	0	0	0	
6	0	0	0	0	526	466	0	0	0	0	
7	0	0	0	0	532	470	0	0	0	0	
8	0	0	0	0	539	475	0	0	0	0	
9	0	0	0	0	545	479	0	0	0	0	
10	0	0	0	0	552	483	0	0	0	0	
11	0	0	0	0	558	487	0	0	0	0	
12	0	0	0	0	564	491	0	0	0	0	
13	0	0	0	0	569	494	0	0	0	0	
14	0	0	0	0	572	496	0	0	0	0	
15	0	0	0	0	572	496	0	0	0	0	
0	0	0	0	0	570	494	0	0	0	0	
1	0	0	0	0	565	491	0	0	0	0	
2	0	0	0	0	558	487	0	0	0	0	
3	0	0	0	0	548	481	0	0	0	0	
4	0	0	0	0	539	474	0	0	0	0	
5	0	0	0	0	527	466	0	0	0	0	
6	0	0	0	0	515	458	0	0	0	0	
7	0	0	0	0	503	449	0	0	0	0	
8	0	0	0	0	492	441	0	0	0	0	
9	0	0	0	0	483	434	0	0	0	0	
10	0	0	0	0	476	429	0	0	0	0	
11	0	0	0	0	472	425	0	0	0	0	
12	0	0	0	0	471	423	0	0	0	0	
13	0	0	0	0	472	423	0	0	0	0	
14	0	0	0	0	476	424	0	0	0	0	
15	0	0	0	0	483	427	0	0	0	0	
0	0	0	0	0	492	432	0	0	0	0	
1	0	0	0	0	501	437	0	0	0	0	
2	0	0	0	0	511	443	0	0	0	0	
3	0	0	0	0	521	449	0	0	0	0	
4	0	0	0	0	531	455	0	0	0	0	
5	0	0	0	0	540	462	0	0	0	0	
6	0	0	0	0	548	468	0	0	0	0	
7	0	0	0	0	554	474	0	0	0	0	
8	0	0	0	0	558	478	0	0	0	0	
9	0	0	0	0	559	480	0	0	0	0	
10	0	0	0	0	556	480	0	0	0	0	
11	0	0	0	0	551	479	0	0	0	0	
12	0	0	0	0	544	476	0	0	0	0	
13	0	0	0	0	536	470	0	0	0	0	
14	0	0	0	0	525	464	0	0	0	0	
15	0	0	0	0	515	458	0	0	0	0	
0	0	0	0	0	507	452	0	0	0	0	
1	0	0	0	0	499	446	0	0	0	0	
2	0	0	0	0	493	441	0	0	0	0	
3	0	0	0	0	488	437	0	0	0	0	
4	0	0	0	0	487	435	0	0	0	0	
5	0	0	0	0	487	435	0	0	0	0	
6	0	0	0	0	491	437	0	0	0	0	
7	0	0	0	0	496	440	0	0	0	0	
8	0	0	0	0	503	444	0	0	0	0	
9	0	0	0	0	510	449	0	0	0	0	
10	0	0	0	0	517	454	0	0	0	0	
11	0	0	0	0	523	459	0	0	0	0	
12	0	0	0	0	527	462	0	0	0	0	
13	0	0	0	0	530	464	0	0	0	0	
14	0	0	0	0	532	465	0	0	0	0	
15	0	0	0	0	531	464	0	0	0	0	
0	0	0	0	0	530	463	0	0	0	0	
1	0	0	0	0	527	461	0	0	0	0	
2	0	0	0	0	524	458	0	0	0	0	
3	0	0	0	0	521	456	0	0	0	0	
4	0	0	0	0	518	454	0	0	0	0	
5	0	0	0	0	515	452	0	0	0	0	
6	0	0	0	0	513	452	0	0	0	0	
7	0	0	0	0	512	452	0	0	0	0	
8	0	0	0	0	512	452	0	0	0	0	
9	0	0	0	0	512	452	0	0	0	0	
10	0	0	0	0	512	452	0	0	0	0	
11	0	0	0	0	512	451	0	0	0	0	
12	0	0	0	0	512	450	0	0	0	0	
13	0	0	0	0	511	449	0	0	0	0	
14	0	0	0	0	511	448	0	0	0	0	
15	0	0	0	0	511	447	0	0	0	0	
0	0	0	0	0	511	447	0	0	0	0	
1	0	0	0	0	511	446	0	0	0	0	
2	0	0	0	0	511	446	0	0	0	0	
3	0	0	0	0	510	445	0	0	0	0	
4	0	0	0	0	508	444	0	0	0	0	
5	0	0	0	0	507	442	0	0	0	0	
6	0	0	0	0	506	440	0	0	0	0	
7	0	0	0	0	504	438	0	0	0	0	
8	0	0	0	0	502	436	0	0	0	0	
9	0	0	0	0	500	435	0	0	0	0	
10	0	0	0	0	501	434	0	0	0	0	
11	0	0	0	0	502	435	0	0	0	0	
12	0	0	0	0	505	437	0	0	0	0	
13	0	0	0	0	510	441	0	0	0	0	
14	0	0	0	0	517	448	0	0	0	0	
15	0	0	0	0	527	457	0	0	0	0	
0	0	0	0	0	537	467	0	0	0	0	
1	0	0	0	0	547	476	0	0	0	0	
2	0	0	0	0	556	485	0	0	0	0	
3	0	0	0	0	563	492	0	0	0	0	
4	0	0	0	0	568	495	0	0	0	0	
5	0	0	0	0	569	497	0	0	0	0	
6	0	0	0	0	569	497	0	0	0	0	
7	0	0	0	0	566	496	0	0	0	0	
8	0	0	0	0	561	492	0	0	0	0	
9	0	0	0	0	554	487	0	0	0	0	
10	0	0	0	0	545	480	0	0	0	0	
11	0	0	0	0	534	471	0	0	0	0	
12	0	0	0	0	521	461	0	0	0	0	
13	0	0	0	0	509	450	0	0	0	0	
14	0	0	0	0	497	440	0	0	0	0	
15	0	0	0	0	487	430	0	0	0	0	
0	0	0	0	0	478	422	0	0	0	0	
1	0	0	0	0	471	414	0	0	0	0	
2	0	0	0	0	466	409	0	0	0	0	
3	0	0	0	0	465	407	0	0	0	0	
4	0	0	0	0	466	406	0	0	0	0	
5	0	0	0	0	469	408	0	0	0	0	
6	0	0	0	0	475	413	0	0	0	0	
7	0	0	0	0	481	419	0	0	0	0	
8	0	0	0	0	489	426	0	0	0	0	
9	0	0	0	0	496	433	0	0	0	0	
10	0	0	0	0	502	439	0	0	0	0	
11	0	0	0	0	505	444	0	0	0	0	
12	0	0	0	0	507	448	0	0	0	0	
13	0	0	0	0	508	449	0	0	0	0	
14	0	0	0	0	505	448	0	0	0	0	
15	0	0	0	0	502	445	0	0	0	0	
0	0	0	0	0	497	441	0	0	0	0	
1	0	0	0	0	492	436	0	0	0	0	
2	0	0	0	0	487	432	0	0	0	0	
3	0	0	0	0	484	428	0	0	0	0	
4	0	0	0	0	481	423	0	0	0	0	
5	0	0	0	0	480	422	0	0	0	0	
6	0	0	0	0	481	422	0	0	0	0	
7	0	0	0	0	484	423	0	0	0	0	
8	0	0	0	0	488	427	0	0	0	0	
9	0	0	0	0	495	432	0	0	0	0	
10	0	0	0	0	503	440	0	0	0	0	
11	0	0	0	0	512	450	0	0	0	0	
12	0	0	0	0	522	460	0	0	0	0	
13	0	0	0	0	532	470	0	0	0	0	
14	0	0	0	0	541	480	0	0	0	0	
15	0	0	0	0	548	487	0	0	0	0	
0	0	0	0	0	551	492	0	0	0	0	
1	0	0	0	0	550	492	0	0	0	0	
2	0	0	0	0	545	489	0	0	0	0	
3	0	0	0	0	536	482	0	0	0	0	
4	0	0	0	0	525	472	0	0	0	0	
5	0	0	0	0	512	461	0	0	0	0	
6	0	0	0	0	499	449	0	0	0	0	
7	0	0	0	0	487	438	0	0	0	0	
8	0	0	0	0	477	428	0	0	0	0	
9	0	0	0	0	469	420	0	0	0	0	
10	0	0	0	0	463	413	0	0	0	0	
11	0	0	0	0	461	410	0	0	0	0	
12	0	0	0	0	461	409	0	0	0	0	
13	0	0	0	0	465	411	0	0	0	0	
14	0	0	0	0	471	415	0	0	0	0	
15	0	0	0	0	479	422	0	0	0	0	
0	0	0	0	0	490	431	0	0	0	0	
1	0	0	0	0	502	441	0	0	0	0	
2	0	0	0	0	515	452	0	0	0	0	
3	0	0	0	0	527	462	0	0	0	0	
4	0	0	0	0	538	471	0	0	0	0	
5	0	0	0	0	547	479	0	0	0	0	
6	0	0	0	0	552	483	0	0	0	0	
7	0	0	0	0	554	485	0	0	0	0	
8	0	0	0	0	553	484	0	0	0	0	
9	0	0	0	0	550	481	0	0	0	0	
10	0	0	0	0	544	476	0	0	0	0	
11	0	0	0	0	537	470	0	0	0	0	
12	0	0	0	0	530	464	0	0	0	0	
13	0	0	0	0	521	458	0	0	0	0	
14	0	0	0	0	515	452	0	0	0	0	
15	0	0	0	0	509	448	0	0	0	0	
0	0	0	0	0	505	445	0	0	0	0	
1	0	0	0	0	502	444	0	0	0	0	
2	0	0	0	0	501	445	0	0	0	0	
3	0	0	0	0	503	447	0	0	0	0	
4	0	0	0	0	505	449	0	0	0	0	
5	0	0	0	0	508	453	0	0	0	0	
6	0	0	0	0	513	456	0	0	0	0	
7	0	0	0	0	518	460	0	0	0	0	
8	0	0	0	0	524	464	0	0	0	0	
9	0	0	0	0	530	468	0	0	0	0	
10	0	0	0	0	536	472	0	0	0	0	
11	0	0	0	0	541	475	0	0	0	0	
12	0	0	0	0	543	476	0	0	0	0	
13	0	0	0	0	545	475	0	0	0	0	
14	0	0	0	0	543	473	0	0	0	0	
15	0	0	0	0	539	469	0	0	0	0	
0	0	0	0	0	532	463	0	0	0	0	
1	0	0	0	0	523	456	0	0	0	0	
2	0	0	0	0	513	449	0	0	0	0	
3	0	0	0	0	505	443	0	0	0	0	
4	0	0	0	0	497	439	0	0	0	0	
5	0	0	0	0	493	437	0	0	0	0	
6	0	0	0	0	491	439	0	0	0	0	
7	0	0	0	0	493	442	0	0	0	0	
8	0	0	0	0	497	447	0	0	0	0	
9	0	0	0	0	502	453	0	0	0	0	
10	0	0	0	0	507	457	0	0	0	0	
11	0	0	0	0	510	460	0	0	0	0	
12	0	0	0	0	510	460	0	0	0	0	
13	0	0	0	0	508	456	0	0	0	0	
14	0	0	0	0	503	451	0	0	0	0	
15	0	0	0	0	496	443	0	0	0	0	
0	0	0	0	0	487	434	0	0	0	0	
1	0	0	0	0	479	425	0	0	0	0	
2	0	0	0	0	470	416	0	0	0	0	
3	0	0	0	0	463	408	0	0	0	0	
4	0	0	0	0	457	402	0	0	0	0	
5	0	0	0	0	454	398	0	0	0	0	
6	0	0	0	0	452	396	0	0	0	0	
7	0	0	0	0	453	395	0	0	0	0	
8	0	0	0	0	455	397	0	0	0	0	
9	0	0	0	0	459	400	0	0	0	0	
10	0	0	0	0	465	406	0	0	0	0	
11	0	0	0	0	472	412	0	0	0	0	
12	0	0	0	0	481	419	0	0	0	0	
13	0	0	0	0	490	427	0	0	0	0	
14	0	0	0	0	499	435	0	0	0	0	
15	0	0	0	0	507	443	0	0	0	0	
0	0	0	0	0	513	450	0	0	0	0	
1	0	0	0	0	519	455	0	0	0	0	
2	0	0	0	0	521	457	0	0	0	0	
3	0	0	0	0	521	457	0	0	0	0	
4	0	0	0	0	519	454	0	0	0	0	
5	0	0	0	0	514	449	0	0	0	0	
6	0	0	0	0	507	441	0	0	0	0	
7	0	0	0	0	497	432	0	0	0	0	
8	0	0	0	0	487	423	0	0	0	0	
9	0	0	0	0	477	412	0	0	0	0	
10	0	0	0	0	468	404	0	0	0	0	
11	0	0	0	0	461	396	0	0	0	0	
12	0	0	0	0	455	391	0	0	0	0	
13	0	0	0	0	454	390	0	0	0	0	
14	0	0	0	0	454	391	0	0	0	0	
15	0	0	0	0	457	395	0	0	0	0	
0	0	0	0	0	464	401	0	0	0	0	
1	0	0	0	0	472	409	0	0	0	0	
2	0	0	0	0	482	419	0	0	0	0	
3	0	0	0	0	492	429	0	0	0	0	
4	0	0	0	0	503	439	0	0	0	0	
5	0	0	0	0	512	447	0	0	0	0	
6	0	0	0	0	520	454	0	0	0	0	
7	0	0	0	0	527	460	0	0	0	0	
8	0	0	0	0	531	463	0	0	0	0	
9	0	0	0	0	533	465	0	0	0	0	
10	0	0	0	0	534	465	0	0	0	0	
11	0	0	0	0	533	464	0	0	0	0	
12	0	0	0	0	530	462	0	0	0	0	
13	0	0	0	0	527	460	0	0	0	0	
14	0	0	0	0	523	456	0	0	0	0	
15	0	0	0	0	519	454	0	0	0	0	
0	0	0	0	0	515	451	0	0	0	0	
1	0	0	0	0	512	449	0	0	0	0	
2	0	0	0	0	510	448	0	0	0	0	
3	0	0	0	0	509	448	0	0	0	0	
4	0	0	0	0	509	449	0	0	0	0	
5	0	0	0	0	510	450	0	0	0	0	
6	0	0	0	0	510	451	0	0	0	0	
7	0	0	0	0	511	452	0	0	0	0	
8	0	0	0	0	512	453	0	0	0	0	
9	0	0	0	0	513	452	0	0	0	0	
10	0	0	0	0	513	452	0	0	0	0	
11	0	0	0	0	513	451	0	0	0	0	
12	0	0	0	0	513	449	0	0	0	0	
13	0	0	0	0	512	446	0	0	0	0	
14	0	0	0	0	511	442	0	0	0	0	
15	0	0	0	0	508	438	0	0	0	0	
0	0	0	0	0	504	433	0	0	0	0	
1	0	0	0	0	500	429	0	0	0	0	
2	0	0	0	0	496	427	0	0	0	0	
3	0	0	0	0	494	424	0	0	0	0	
4	0	0	0	0	492	424	0	0	0	0	
5	0	0	0	0	493	427	0	0	0	0	
6	0	0	0	0	497	432	0	0	0	0	
7	0	0	0	0	503	439	0	0	0	0	
8	0	0	0	0	512	449	0	0	0	0	
9	0	0	0	0	525	462	0	0	0	0	
10	0	0	0	0	539	475	0	0	0	0	
11	0	0	0	0	553	487	0	0	0	0	
12	0	0	0	0	566	498	0	0	0	0	
13	0	0	0	0	577	506	0	0	0	0	
14	0	0	0	0	584	511	0	0	0	0	
15	0	0	0	0	587	511	0	0	0	0	
0	0	0	0	0	585	507	0	0	0	0	
1	0	0	0	0	579	499	0	0	0	0	
2	0	0	0	0	568	488	0	0	0	0	
3	0	0	0	0	554	476	0	0	0	0	
4	0	0	0	0	539	463	0	0	0	0	
5	0	0	0	0	524	450	0	0	0	0	
6	0	0	0	0	509	439	0	0	0	0	
7	0	0	0	0	495	428	0	0	0	0	
8	0	0	0	0	482	419	0	0	0	0	
9	0	0	0	0	471	411	0	0	0	0	
10	0	0	0	0	462	405	0	0	0	0	
11	0	0	0	0	454	400	0	0	0	0	
12	0	0	0	0	448	396	0	0	0	0	
13	0	0	0	0	444	392	0	0	0	0	
14	0	0	0	0	441	390	0	0	0	0	
15	0	0	0	0	440	389	0	0	0	0	
0	0	0	0	0	441	389	0	0	0	0	
1	0	0	0	0	443	389	0	0	0	0	
2	0	0	0	0	447	391	0	0	0	0	
3	0	0	0	0	451	392	0	0	0	0	
4	0	0	0	0	456	394	0	0	0	0	
5	0	0	0	0	463	396	0	0	0	0	
6	0	0	0	0	467	398	0	0	0	0	
7	0	0	0	0	472	399	0	0	0	0	
8	0	0	0	0	475	399	0	0	0	0	
9	0	0	0	0	477	399	0	0	0	0	
10	0	0	0	0	478	399	0	0	0	0	
11	0	0	0	0	479	400	0	0	0	0	
12	0	0	0	0	479	400	0	0	0	0	
13	0	0	0	0	479	402	0	0	0	0	
14	0	0	0	0	480	406	0	0	0	0	
15	0	0	0	0	482	410	0	0	0	0	
0	0	0	0	0	487	416	0	0	0	0	
1	0	0	0	0	494	424	0	0	0	0	
2	0	0	0	0	503	434	0	0	0	0	
3	0	0	0	0	514	445	0	0	0	0	
4	0	0	0	0	526	456	0	0	0	0	
5	0	0	0	0	538	467	0	0	0	0	
6	0	0	0	0	549	476	0	0	0	0	
7	0	0	0	0	557	482	0	0	0	0	
8	0	0	0	0	561	485	0	0	0	0	
9	0	0	0	0	561	484	0	0	0	0	
10	0	0	0	0	557	480	0	0	0	0	
11	0	0	0	0	547	471	0	0	0	0	
12	0	0	0	0	535	461	0	0	0	0	
13	0	0	0	0	520	449	0	0	0	0	
14	0	0	0	0	504	437	0	0	0	0	
15	0	0	0	0	490	425	0	0	0	0	
0	0	0	0	0	476	415	0	0	0	0	
1	0	0	0	0	465	407	0	0	0	0	
2	0	0	0	0	458	401	0	0	0	0	
3	0	0	0	0	454	398	0	0	0	0	
4	0	0	0	0	454	399	0	0	0	0	
5	0	0	0	0	458	401	0	0	0	0	
6	0	0	0	0	465	406	0	0	0	0	
7	0	0	0	0	474	413	0	0	0	0	
8	0	0	0	0	485	420	0	0	0	0	
9	0	0	0	0	496	428	0	0	0	0	
10	0	0	0	0	507	434	0	0	0	0	
11	0	0	0	0	515	440	0	0	0	0	
12	0	0	0	0	520	443	0	0	0	0	
13	0	0	0	0	524	444	0	0	0	0	
14	0	0	0	0	525	444	0	0	0	0	
15	0	0	0	0	523	443	0	0	0	0	
0	0	0	0	0	520	441	0	0	0	0	
1	0	0	0	0	516	440	0	0	0	0	
2	0	0	0	0	511	437	0	0	0	0	
3	0	0	0	0	507	434	0	0	0	0	
4	0	0	0	0	503	433	0	0	0	0	
5	0	0	0	0	499	432	0	0	0	0	
6	0	0	0	0	497	432	0	0	0	0	
7	0	0	0	0	496	433	0	0	0	0	
8	0	0	0	0	496	435	0	0	0	0	
9	0	0	0	0	499	438	0	0	0	0	
10	0	0	0	0	503	442	0	0	0	0	
11	0	0	0	0	508	447	0	0	0	0	
12	0	0	0	0	515	454	0	0	0	0	
13	0	0	0	0	523	460	0	0	0	0	
14	0	0	0	0	531	466	0	0	0	0	
15	0	0	0	0	539	472	0	0	0	0	
0	0	0	0	0	545	476	0	0	0	0	
1	0	0	0	0	549	478	0	0	0	0	
2	0	0	0	0	552	478	0	0	0	0	
3	0	0	0	0	552	477	0	0	0	0	
4	0	0	0	0	551	475	0	0	0	0	
5	0	0	0	0	549	473	0	0	0	0	
6	0	0	0	0	545	470	0	0	0	0	
7	0	0	0	0	540	466	0	0	0	0	
8	0	0	0	0	534	461	0	0	0	0	
9	0	0	0	0	526	455	0	0	0	0	
10	0	0	0	0	516	448	0	0	0	0	
11	0	0	0	0	506	441	0	0	0	0	
12	0	0	0	0	494	434	0	0	0	0	
13	0	0	0	0	482	425	0	0	0	0	
14	0	0	0	0	470	417	0	0	0	0	
15	0	0	0	0	458	409	0	0	0	0	
0	0	0	0	0	449	401	0	0	0	0	
1	0	0	0	0	441	394	0	0	0	0	
2	0	0	0	0	435	390	0	0	0	0	
3	0	0	0	0	432	386	0	0	0	0	
4	0	0	0	0	432	384	0	0	0	0	
5	0	0	0	0	435	385	0	0	0	0	
6	0	0	0	0	440	388	0	0	0	0	
7	0	0	0	0	448	393	0	0	0	0	
8	0	0	0	0	457	399	0	0	0	0	
9	0	0	0	0	467	407	0	0	0	0	
10	0	0	0	0	479	415	0	0	0	0	
11	0	0	0	0	491	425	0	0	0	0	
12	0	0	0	0	502	435	0	0	0	0	
13	0	0	0	0	512	444	0	0	0	0	
14	0	0	0	0	521	452	0	0	0	0	
15	0	0	0	0	529	460	0	0	0	0	
0	0	0	0	0	534	465	0	0	0	0	
1	0	0	0	0	538	470	0	0	0	0	
2	0	0	0	0	539	472	0	0	0	0	
3	0	0	0	0	537	472	0	0	0	0	
4	0	0	0	0	535	471	0	0	0	0	
5	0	0	0	0	529	467	0	0	0	0	
6	0	0	0	0	522	461	0	0	0	0	
7	0	0	0	0	513	454	0	0	0	0	
8	0	0	0	0	503	444	0	0	0	0	
9	0	0	0	0	492	433	0	0	0	0	
10	0	0	0	0	481	423	0	0	0	0	
11	0	0	0	0	471	412	0	0	0	0	
12	0	0	0	0	462	403	0	0	0	0	
13	0	0	0	0	456	395	0	0	0	0	
14	0	0	0	0	453	391	0	0	0	0	
15	0	0	0	0	454	390	0	0	0	0	
0	0	0	0	0	459	392	0	0	0	0	
1	0	0	0	0	467	399	0	0	0	0	
2	0	0	0	0	479	408	0	0	0	0	
3	0	0	0	0	492	418	0	0	0	0	
4	0	0	0	0	505	429	0	0	0	0	
5	0	0	0	0	517	439	0	0	0	0	
6	0	0	0	0	525	446	0	0	0	0	
7	0	0	0	0	529	451	0	0	0	0	
8	0	0	0	0	530	453	0	0	0	0	
9	0	0	0	0	527	451	0	0	0	0	
10	0	0	0	0	521	448	0	0	0	0	
11	0	0	0	0	512	443	0	0	0	0	
12	0	0	0	0	502	436	0	0	0	0	
13	0	0	0	0	492	429	0	0	0	0	
14	0	0	0	0	483	422	0	0	0	0	
15	0	0	0	0	476	416	0	0	0	0	
0	0	0	0	0	470	412	0	0	0	0	
1	0	0	0	0	467	409	0	0	0	0	
2	0	0	0	0	467	409	0	0	0	0	
3	0	0	0	0	471	411	0	0	0	0	
4	0	0	0	0	476	414	0	0	0	0	
5	0	0	0	0	483	419	0	0	0	0	
6	0	0	0	0	491	424	0	0	0	0	
7	0	0	0	0	499	430	0	0	0	0	
8	0	0	0	0	507	435	0	0	0	0	
9	0	0	0	0	514	440	0	0	0	0	
10	0	0	0	0	521	446	0	0	0	0	
11	0	0	0	0	528	451	0	0	0	0	
12	0	0	0	0	534	457	0	0	0	0	
13	0	0	0	0	539	461	0	0	0	0	
14	0	0	0	0	543	465	0	0	0	0	
15	0	0	0	0	545	468	0	0	0	0	
0	0	0	0	0	544	469	0	0	0	0	
1	0	0	0	0	543	469	0	0	0	0	
2	0	0	0	0	540	467	0	0	0	0	
3	0	0	0	0	535	464	0	0	0	0	
4	0	0	0	0	529	460	0	0	0	0	
5	0	0	0	0	524	455	0	0	0	0	
6	0	0	0	0	517	451	0	0	0	0	
7	0	0	0	0	512	446	0	0	0	0	
8	0	0	0	0	506	442	0	0	0	0	
9	0	0	0	0	501	437	0	0	0	0	
10	0	0	0	0	495	432	0	0	0	0	
11	0	0	0	0	487	426	0	0	0	0	
12	0	0	0	0	480	419	0	0	0	0	
13	0	0	0	0	472	411	0	0	0	0	
14	0	0	0	0	463	402	0	0	0	0	
15	0	0	0	0	453	393	0	0	0	0	
0	0	0	0	0	444	384	0	0	0	0	
1	0	0	0	0	436	376	0	0	0	0	
2	0	0	0	0	428	368	0	0	0	0	
3	0	0	0	0	421	360	0	0	0	0	
4	0	0	0	0	414	353	0	0	0	0	
5	0	0	0	0	408	346	0	0	0	0	
6	0	0	0	0	403	339	0	0	0	0	
7	0	0	0	0	397	332	0	0	0	0	
8	0	0	0	0	391	325	0	0	0	0	
9	0	0	0	0	383	317	0	0	0	0	
10	0	0	0	0	375	309	0	0	0	0	
11	0	0	0	0	366	300	0	0	0	0	
12	0	0	0	0	355	289	0	0	0	0	
13	0	0	0	0	342	277	0	0	0	0	
14	0	0	0	0	328	264	0	0	0	0	
15	0	0	0	0	312	250	0	0	0	0	
0	0	0	0	0	298	237	0	0	0	0	
1	0	0	0	0	284	225	0	0	0	0	
2	0	0	0	0	273	215	0	0	0	0	
3	0	0	0	0	264	206	0	0	0	0	
4	0	0	0	0	259	201	0	0	0	0	
5	0	0	0	0	256	198	0	0	0	0	
6	0	0	0	0	259	199	0	0	0	0	
7	0	0	0	0	265	203	0	0	0	0	
8	0	0	0	0	276	211	0	0	0	0	
9	0	0	0	0	291	223	0	0	0	0	
10	0	0	0	0	309	237	0	0	0	0	
11	0	0	0	0	330	254	0	0	0	0	
12	0	0	0	0	352	272	0	0	0	0	
13	0	0	0	0	374	291	0	0	0	0	
14	0	0	0	0	397	310	0	0	0	0	
15	0	0	0	0	419	330	0	0	0	0	
0	0	0	0	0	440	349	0	0	0	0	
1	0	0	0	0	459	368	0	0	0	0	
2	0	0	0	0	477	386	0	0	0	0	
3	0	0	0	0	491	401	0	0	0	0	
4	0	0	0	0	503	415	0	0	0	0	
5	0	0	0	0	511	426	0	0	0	0	
6	0	0	0	0	516	434	0	0	0	0	
7	0	0	0	0	518	440	0	0	0	0	
8	0	0	0	0	518	443	0	0	0	0	
9	0	0	0	0	516	443	0	0	0	0	
10	0	0	0	0	512	442	0	0	0	0	
11	0	0	0	0	507	440	0	0	0	0	
12	0	0	0	0	502	435	0	0	0	0	
13	0	0	0	0	497	431	0	0	0	0	
14	0	0	0	0	494	427	0	0	0	0	
15	0	0	0	0	491	423	0	0	0	0	
0	0	0	0	0	489	421	0	0	0	0	
1	0	0	0	0	489	419	0	0	0	0	
2	0	0	0	0	490	419	0	0	0	0	
3	0	0	0	0	494	422	0	0	0	0	
4	0	0	0	0	498	426	0	0	0	0	
5	0	0	0	0	506	432	0	0	0	0	
6	0	0	0	0	515	441	0	0	0	0	
7	0	0	0	0	525	451	0	0	0	0	
8	0	0	0	0	536	462	0	0	0	0	
9	0	0	0	0	546	473	0	0	0	0	
10	0	0	0	0	557	484	0	0	0	0	
11	0	0	0	0	566	494	0	0	0	0	
12	0	0	0	0	572	501	0	0	0	0	
13	0	0	0	0	575	505	0	0	0	0	
14	0	0	0	0	575	505	0	0	0	0	
15	0	0	0	0	570	502	0	0	0	0	
0	0	0	0	0	562	495	0	0	0	0	
1	0	0	0	0	552	487	0	0	0	0	
2	0	0	0	0	542	477	0	0	0	0	
3	0	0	0	0	530	467	0	0	0	0	
4	0	0	0	0	520	457	0	0	0	0	
5	0	0	0	0	512	450	0	0	0	0	
6	0	0	0	0	507	445	0	0	0	0	
7	0	0	0	0	504	442	0	0	0	0	
8	0	0	0	0	504	441	0	0	0	0	
9	0	0	0	0	505	443	0	0	0	0	
10	0	0	0	0	508	446	0	0	0	0	
11	0	0	0	0	514	451	0	0	0	0	
12	0	0	0	0	522	457	0	0	0	0	
13	0	0	0	0	531	466	0	0	0	0	
14	0	0	0	0	541	474	0	0	0	0	
15	0	0	0	0	551	482	0	0	0	0	
0	0	0	0	0	560	489	0	0	0	0	
1	0	0	0	0	567	495	0	0	0	0	
2	0	0	0	0	572	498	0	0	0	0	
3	0	0	0	0	575	499	0	0	0	0	
4	0	0	0	0	575	499	0	0	0	0	
5	0	0	0	0	576	499	0	0	0	0	
6	0	0	0	0	574	497	0	0	0	0	
7	0	0	0	0	571	494	0	0	0	0	
8	0	0	0	0	565	489	0	0	0	0	
9	0	0	0	0	558	483	0	0	0	0	
10	0	0	0	0	550	477	0	0	0	0	
11	0	0	0	0	540	470	0	0	0	0	
12	0	0	0	0	531	464	0	0	0	0	
13	0	0	0	0	521	457	0	0	0	0	
14	0	0	0	0	512	451	0	0	0	0	
15	0	0	0	0	504	444	0	0	0	0	
0	0	0	0	0	495	436	0	0	0	0	
1	0	0	0	0	486	429	0	0	0	0	
2	0	0	0	0	478	422	0	0	0	0	
3	0	0	0	0	469	414	0	0	0	0	
4	0	0	0	0	462	406	0	0	0	0	
5	0	0	0	0	456	399	0	0	0	0	
6	0	0	0	0	451	393	0	0	0	0	
7	0	0	0	0	447	388	0	0	0	0	
8	0	0	0	0	445	385	0	0	0	0	
9	0	0	0	0	446	384	0	0	0	0	
10	0	0	0	0	449	384	0	0	0	0	
11	0	0	0	0	454	387	0	0	0	0	
12	0	0	0	0	461	391	0	0	0	0	
13	0	0	0	0	470	398	0	0	0	0	
14	0	0	0	0	480	405	0	0	0	0	
15	0	0	0	0	492	414	0	0	0	0	
0	0	0	0	0	503	423	0	0	0	0	
1	0	0	0	0	513	432	0	0	0	0	
2	0	0	0	0	521	439	0	0	0	0	
3	0	0	0	0	528	446	0	0	0	0	
4	0	0	0	0	533	451	0	0	0	0	
5	0	0	0	0	535	455	0	0	0	0	
6	0	0	0	0	536	459	0	0	0	0	
7	0	0	0	0	534	460	0	0	0	0	
8	0	0	0	0	531	460	0	0	0	0	
9	0	0	0	0	527	459	0	0	0	0	
10	0	0	0	0	522	456	0	0	0	0	
11	0	0	0	0	515	453	0	0	0	0	
12	0	0	0	0	509	448	0	0	0	0	
13	0	0	0	0	503	441	0	0	0	0	
14	0	0	0	0	496	435	0	0	0	0	
15	0	0	0	0	491	429	0	0	0	0	
0	0	0	0	0	486	423	0	0	0	0	
1	0	0	0	0	483	419	0	0	0	0	
2	0	0	0	0	481	415	0	0	0	0	
3	0	0	0	0	481	413	0	0	0	0	
4	0	0	0	0	483	412	0	0	0	0	
5	0	0	0	0	486	414	0	0	0	0	
6	0	0	0	0	490	416	0	0	0	0	
7	0	0	0	0	496	420	0	0	0	0	
8	0	0	0	0	501	424	0	0	0	0	
9	0	0	0	0	506	429	0	0	0	0	
10	0	0	0	0	511	433	0	0	0	0	
11	0	0	0	0	515	439	0	0	0	0	
12	0	0	0	0	519	444	0	0	0	0	
13	0	0	0	0	523	448	0	0	0	0	
14	0	0	0	0	525	452	0	0	0	0	
15	0	0	0	0	527	455	0	0	0	0	
0	0	0	0	0	527	458	0	0	0	0	
1	0	0	0	0	528	460	0	0	0	0	
2	0	0	0	0	528	460	0	0	0	0	
3	0	0	0	0	526	458	0	0	0	0	
4	0	0	0	0	524	456	0	0	0	0	
5	0	0	0	0	519	452	0	0	0	0	
6	0	0	0	0	514	447	0	0	0	0	
7	0	0	0	0	509	441	0	0	0	0	
8	0	0	0	0	503	435	0	0	0	0	
9	0	0	0	0	497	429	0	0	0	0	
10	0	0	0	0	492	424	0	0	0	0	
11	0	0	0	0	488	420	0	0	0	0	
12	0	0	0	0	486	417	0	0	0	0	
13	0	0	0	0	485	415	0	0	0	0	
14	0	0	0	0	486	416	0	0	0	0	
15	0	0	0	0	489	418	0	0	0	0	
0	0	0	0	0	494	422	0	0	0	0	
1	0	0	0	0	501	428	0	0	0	0	
2	0	0	0	0	509	435	0	0	0	0	
3	0	0	0	0	519	443	0	0	0	0	
4	0	0	0	0	528	451	0	0	0	0	
5	0	0	0	0	539	460	0	0	0	0	
6	0	0	0	0	549	469	0	0	0	0	
7	0	0	0	0	559	478	0	0	0	0	
8	0	0	0	0	569	486	0	0	0	0	
9	0	0	0	0	577	494	0	0	0	0	
10	0	0	0	0	583	500	0	0	0	0	
11	0	0	0	0	588	505	0	0	0	0	
12	0	0	0	0	589	507	0	0	0	0	
13	0	0	0	0	587	508	0	0	0	0	
14	0	0	0	0	582	504	0	0	0	0	
15	0	0	0	0	572	498	0	0	0	0	
0	0	0	0	0	559	489	0	0	0	0	
1	0	0	0	0	543	476	0	0	0	0	
2	0	0	0	0	524	462	0	0	0	0	
3	0	0	0	0	504	447	0	0	0	0	
4	0	0	0	0	485	432	0	0	0	0	
5	0	0	0	0	468	417	0	0	0	0	
6	0	0	0	0	454	405	0	0	0	0	
7	0	0	0	0	443	395	0	0	0	0	
8	0	0	0	0	436	387	0	0	0	0	
9	0	0	0	0	432	383	0	0	0	0	
10	0	0	0	0	434	380	0	0	0	0	
11	0	0	0	0	439	381	0	0	0	0	
12	0	0	0	0	446	384	0	0	0	0	
13	0	0	0	0	456	390	0	0	0	0	
14	0	0	0	0	467	396	0	0	0	0	
15	0	0	0	0	481	404	0	0	0	0	
0	0	0	0	0	494	413	0	0	0	0	
1	0	0	0	0	506	423	0	0	0	0	
2	0	0	0	0	517	431	0	0	0	0	
3	0	0	0	0	526	440	0	0	0	0	
4	0	0	0	0	533	447	0	0	0	0	
5	0	0	0	0	538	453	0	0	0	0	
6	0	0	0	0	541	457	0	0	0	0	
7	0	0	0	0	541	461	0	0	0	0	
8	0	0	0	0	539	462	0	0	0	0	
9	0	0	0	0	536	462	0	0	0	0	
10	0	0	0	0	531	460	0	0	0	0	
11	0	0	0	0	526	458	0	0	0	0	
12	0	0	0	0	519	455	0	0	0	0	
13	0	0	0	0	514	451	0	0	0	0	
14	0	0	0	0	510	447	0	0	0	0	
15	0	0	0	0	506	443	0	0	0	0	
0	0	0	0	0	504	440	0	0	0	0	
1	0	0	0	0	503	437	0	0	0	0	
2	0	0	0	0	502	435	0	0	0	0	
3	0	0	0	0	504	435	0	0	0	0	
4	0	0	0	0	506	435	0	0	0	0	
5	0	0	0	0	510	437	0	0	0	0	
6	0	0	0	0	513	440	0	0	0	0	
7	0	0	0	0	518	444	0	0	0	0	
8	0	0	0	0	521	448	0	0	0	0	
9	0	0	0	0	525	451	0	0	0	0	
10	0	0	0	0	527	454	0	0	0	0	
11	0	0	0	0	527	455	0	0	0	0	
12	0	0	0	0	526	455	0	0	0	0	
13	0	0	0	0	522	452	0	0	0	0	
14	0	0	0	0	515	447	0	0	0	0	
15	0	0	0	0	508	440	0	0	0	0	
0	0	0	0	0	499	432	0	0	0	0	
1	0	0	0	0	489	425	0	0	0	0	
2	0	0	0	0	482	418	0	0	0	0	
3	0	0	0	0	478	414	0	0	0	0	
4	0	0	0	0	478	413	0	0	0	0	
5	0	0	0	0	481	415	0	0	0	0	
6	0	0	0	0	489	422	0	0	0	0	
7	0	0	0	0	502	432	0	0	0	0	
8	0	0	0	0	518	444	0	0	0	0	
9	0	0	0	0	535	457	0	0	0	0	
10	0	0	0	0	551	469	0	0	0	0	
11	0	0	0	0	565	480	0	0	0	0	
12	0	0	0	0	576	489	0	0	0	0	
13	0	0	0	0	583	495	0	0	0	0	
14	0	0	0	0	586	496	0	0	0	0	
15	0	0	0	0	582	494	0	0	0	0	
0	0	0	0	0	574	488	0	0	0	0	
1	0	0	0	0	561	478	0	0	0	0	
2	0	0	0	0	544	467	0	0	0	0	
3	0	0	0	0	525	454	0	0	0	0	
4	0	0	0	0	507	440	0	0	0	0	
5	0	0	0	0	490	428	0	0	0	0	
6	0	0	0	0	476	419	0	0	0	0	
7	0	0	0	0	466	412	0	0	0	0	
8	0	0	0	0	460	408	0	0	0	0	
9	0	0	0	0	460	408	0	0	0	0	
10	0	0	0	0	465	411	0	0	0	0	
11	0	0	0	0	474	417	0	0	0	0	
12	0	0	0	0	486	425	0	0	0	0	
13	0	0	0	0	500	435	0	0	0	0	
14	0	0	0	0	515	445	0	0	0	0	
15	0	0	0	0	530	456	0	0	0	0	
0	0	0	0	0	543	465	0	0	0	0	
1	0	0	0	0	553	472	0	0	0	0	
2	0	0	0	0	559	476	0	0	0	0	
3	0	0	0	0	561	478	0	0	0	0	
4	0	0	0	0	559	478	0	0	0	0	
5	0	0	0	0	553	473	0	0	0	0	
6	0	0	0	0	544	467	0	0	0	0	
7	0	0	0	0	533	460	0	0	0	0	
8	0	0	0	0	519	450	0	0	0	0	
9	0	0	0	0	508	440	0	0	0	0	
10	0	0	0	0	495	431	0	0	0	0	
11	0	0	0	0	484	422	0	0	0	0	
12	0	0	0	0	476	415	0	0	0	0	
13	0	0	0	0	471	410	0	0	0	0	
14	0	0	0	0	468	408	0	0	0	0	
15	0	0	0	0	469	408	0	0	0	0	
0	0	0	0	0	472	409	0	0	0	0	
1	0	0	0	0	478	413	0	0	0	0	
2	0	0	0	0	485	419	0	0	0	0	
3	0	0	0	0	495	425	0	0	0	0	
4	0	0	0	0	504	433	0	0	0	0	
5	0	0	0	0	513	440	0	0	0	0	
6	0	0	0	0	522	446	0	0	0	0	
7	0	0	0	0	528	452	0	0	0	0	
8	0	0	0	0	533	455	0	0	0	0	
9	0	0	0	0	536	458	0	0	0	0	
10	0	0	0	0	536	459	0	0	0	0	
11	0	0	0	0	536	459	0	0	0	0	
12	0	0	0	0	534	457	0	0	0	0	
13	0	0	0	0	529	455	0	0	0	0	
14	0	0	0	0	526	452	0	0	0	0	
15	0	0	0	0	521	449	0	0	0	0	
0	0	0	0	0	517	446	0	0	0	0	
1	0	0	0	0	513	444	0	0	0	0	
2	0	0	0	0	510	441	0	0	0	0	
3	0	0	0	0	508	438	0	0	0	0	
4	0	0	0	0	505	436	0	0	0	0	
5	0	0	0	0	505	436	0	0	0	0	
6	0	0	0	0	505	436	0	0	0	0	
7	0	0	0	0	507	438	0	0	0	0	
8	0	0	0	0	509	439	0	0	0	0	
9	0	0	0	0	512	441	0	0	0	0	
10	0	0	0	0	515	444	0	0	0	0	
11	0	0	0	0	516	444	0	0	0	0	
12	0	0	0	0	516	444	0	0	0	0	
13	0	0	0	0	516	443	0	0	0	0	
14	0	0	0	0	514	442	0	0	0	0	
15	0	0	0	0	512	440	0	0	0	0	
0	0	0	0	0	510	438	0	0	0	0	
1	0	0	0	0	509	436	0	0	0	0	
2	0	0	0	0	509	436	0	0	0	0	
3	0	0	0	0	510	437	0	0	0	0	
4	0	0	0	0	512	439	0	0	0	0	
5	0	0	0	0	515	441	0	0	0	0	
6	0	0	0	0	519	443	0	0	0	0	
7	0	0	0	0	522	446	0	0	0	0	
8	0	0	0	0	525	448	0	0	0	0	
9	0	0	0	0	527	451	0	0	0	0	
10	0	0	0	0	529	452	0	0	0	0	
11	0	0	0	0	529	453	0	0	0	0	
12	0	0	0	0	528	453	0	0	0	0	
13	0	0	0	0	526	452	0	0	0	0	
14	0	0	0	0	523	450	0	0	0	0	
15	0	0	0	0	518	447	0	0	0	0	
0	0	0	0	0	513	444	0	0	0	0	
1	0	0	0	0	509	441	0	0	0	0	
2	0	0	0	0	507	440	0	0	0	0	
3	0	0	0	0	506	439	0	0	0	0	
4	0	0	0	0	507	440	0	0	0	0	
5	0	0	0	0	510	443	0	0	0	0	
6	0	0	0	0	515	447	0	0	0	0	
7	0	0	0	0	522	451	0	0	0	0	
8	0	0	0	0	529	457	0	0	0	0	
9	0	0	0	0	535	462	0	0	0	0	
10	0	0	0	0	540	466	0	0	0	0	
11	0	0	0	0	543	467	0	0	0	0	
12	0	0	0	0	543	468	0	0	0	0	
13	0	0	0	0	541	466	0	0	0	0	
14	0	0	0	0	536	463	0	0	0	0	
15	0	0	0	0	530	459	0	0	0	0	
0	0	0	0	0	523	454	0	0	0	0	
1	0	0	0	0	516	450	0	0	0	0	
2	0	0	0	0	510	447	0	0	0	0	
3	0	0	0	0	505	444	0	0	0	0	
4	0	0	0	0	503	443	0	0	0	0	
5	0	0	0	0	503	443	0	0	0	0	
6	0	0	0	0	504	444	0	0	0	0	
7	0	0	0	0	506	445	0	0	0	0	
8	0	0	0	0	509	446	0	0	0	0	
9	0	0	0	0	512	447	0	0	0	0	
10	0	0	0	0	514	447	0	0	0	0	
11	0	0	0	0	516	447	0	0	0	0	
12	0	0	0	0	517	447	0	0	0	0	
13	0	0	0	0	518	447	0	0	0	0	
14	0	0	0	0	519	448	0	0	0	0	
15	0	0	0	0	521	450	0	0	0	0	
0	0	0	0	0	524	453	0	0	0	0	
1	0	0	0	0	527	457	0	0	0	0	
2	0	0	0	0	529	460	0	0	0	0	
3	0	0	0	0	532	464	0	0	0	0	
4	0	0	0	0	534	466	0	0	0	0	
5	0	0	0	0	535	468	0	0	0	0	
6	0	0	0	0	535	468	0	0	0	0	
7	0	0	0	0	535	468	0	0	0	0	
8	0	0	0	0	533	467	0	0	0	0	
9	0	0	0	0	532	465	0	0	0	0	
10	0	0	0	0	531	463	0	0	0	0	
11	0	0	0	0	531	462	0	0	0	0	
12	0	0	0	0	531	460	0	0	0	0	
13	0	0	0	0	530	459	0	0	0	0	
14	0	0	0	0	531	457	0	0	0	0	
15	0	0	0	0	530	456	0	0	0	0	
0	0	0	0	0	530	455	0	0	0	0	
1	0	0	0	0	530	455	0	0	0	0	
2	0	0	0	0	530	456	0	0	0	0	
3	0	0	0	0	531	457	0	0	0	0	
4	0	0	0	0	531	458	0	0	0	0	
5	0	0	0	0	532	460	0	0	0	0	
6	0	0	0	0	532	463	0	0	0	0	
7	0	0	0	0	533	464	0	0	0	0	
8	0	0	0	0	534	466	0	0	0	0	
9	0	0	0	0	533	467	0	0	0	0	
10	0	0	0	0	531	466	0	0	0	0	
11	0	0	0	0	527	464	0	0	0	0	
12	0	0	0	0	524	462	0	0	0	0	
13	0	0	0	0	520	458	0	0	0	0	
14	0	0	0	0	515	453	0	0	0	0	
15	0	0	0	0	510	449	0	0	0	0	
0	0	0	0	0	506	444	0	0	0	0	
1	0	0	0	0	502	440	0	0	0	0	
2	0	0	0	0	500	437	0	0	0	0	
3	0	0	0	0	497	433	0	0	0	0	
4	0	0	0	0	496	431	0	0	0	0	
5	0	0	0	0	493	428	0	0	0	0	
6	0	0	0	0	490	424	0	0	0	0	
7	0	0	0	0	487	421	0	0	0	0	
8	0	0	0	0	483	417	0	0	0	0	
9	0	0	0	0	480	415	0	0	0	0	
10	0	0	0	0	477	412	0	0	0	0	
11	0	0	0	0	475	411	0	0	0	0	
12	0	0	0	0	475	412	0	0	0	0	
13	0	0	0	0	476	413	0	0	0	0	
14	0	0	0	0	479	417	0	0	0	0	
15	0	0	0	0	484	422	0	0	0	0	
0	0	0	0	0	492	428	0	0	0	0	
1	0	0	0	0	501	436	0	0	0	0	
2	0	0	0	0	511	445	0	0	0	0	
3	0	0	0	0	522	454	0	0	0	0	
4	0	0	0	0	532	462	0	0	0	0	
5	0	0	0	0	542	469	0	0	0	0	
6	0	0	0	0	548	474	0	0	0	0	
7	0	0	0	0	553	476	0	0	0	0	
8	0	0	0	0	553	475	0	0	0	0	
9	0	0	0	0	551	473	0	0	0	0	
10	0	0	0	0	546	468	0	0	0	0	
11	0	0	0	0	541	463	0	0	0	0	
12	0	0	0	0	535	458	0	0	0	0	
13	0	0	0	0	528	454	0	0	0	0	
14	0	0	0	0	521	449	0	0	0	0	
15	0	0	0	0	516	446	0	0	0	0	
0	0	0	0	0	511	444	0	0	0	0	
1	0	0	0	0	509	444	0	0	0	0	
2	0	0	0	0	508	446	0	0	0	0	
3	0	0	0	0	509	449	0	0	0	0	
4	0	0	0	0	512	453	0	0	0	0	
5	0	0	0	0	515	457	0	0	0	0	
6	0	0	0	0	519	461	0	0	0	0	
7	0	0	0	0	524	464	0	0	0	0	
8	0	0	0	0	526	467	0	0	0	0	
9	0	0	0	0	527	467	0	0	0	0	
10	0	0	0	0	528	467	0	0	0	0	
11	0	0	0	0	527	465	0	0	0	0	
12	0	0	0	0	526	464	0	0	0	0	
13	0	0	0	0	524	462	0	0	0	0	
14	0	0	0	0	521	459	0	0	0	0	
15	0	0	0	0	518	457	0	0	0	0	
0	0	0	0	0	515	455	0	0	0	0	
1	0	0	0	0	513	453	0	0	0	0	
2	0	0	0	0	510	452	0	0	0	0	
3	0	0	0	0	510	452	0	0	0	0	
4	0	0	0	0	509	452	0	0	0	0	
5	0	0	0	0	510	453	0	0	0	0	
6	0	0	0	0	510	454	0	0	0	0	
7	0	0	0	0	511	455	0	0	0	0	
8	0	0	0	0	513	456	0	0	0	0	
9	0	0	0	0	515	458	0	0	0	0	
10	0	0	0	0	518	460	0	0	0	0	
11	0	0	0	0	522	462	0	0	0	0	
12	0	0	0	0	525	463	0	0	0	0	
13	0	0	0	0	529	464	0	0	0	0	
14	0	0	0	0	531	464	0	0	0	0	
15	0	0	0	0	533	464	0	0	0	0	
0	0	0	0	0	535	465	0	0	0	0	
1	0	0	0	0	536	465	0	0	0	0	
2	0	0	0	0	538	466	0	0	0	0	
3	0	0	0	0	538	467	0	0	0	0	
4	0	0	0	0	539	469	0	0	0	0	
5	0	0	0	0	539	471	0	0	0	0	
6	0	0	0	0	538	472	0	0	0	0	
7	0	0	0	0	537	472	0	0	0	0	
8	0	0	0	0	534	472	0	0	0	0	
9	0	0	0	0	530	471	0	0	0	0	
10	0	0	0	0	524	467	0	0	0	0	
11	0	0	0	0	517	463	0	0	0	0	
12	0	0	0	0	511	459	0	0	0	0	
13	0	0	0	0	504	454	0	0	0	0	
14	0	0	0	0	499	449	0	0	0	0	
15	0	0	0	0	495	446	0	0	0	0	
0	0	0	0	0	493	444	0	0	0	0	
1	0	0	0	0	495	445	0	0	0	0	
2	0	0	0	0	499	447	0	0	0	0	
3	0	0	0	0	505	451	0	0	0	0	
4	0	0	0	0	513	457	0	0	0	0	
5	0	0	0	0	521	462	0	0	0	0	
6	0	0	0	0	529	468	0	0	0	0	
7	0	0	0	0	536	474	0	0	0	0	
8	0	0	0	0	543	479	0	0	0	0	
9	0	0	0	0	547	483	0	0	0	0	
10	0	0	0	0	549	485	0	0	0	0	
11	0	0	0	0	549	485	0	0	0	0	
12	0	0	0	0	546	483	0	0	0	0	
13	0	0	0	0	541	480	0	0	0	0	
14	0	0	0	0	534	475	0	0	0	0	
15	0	0	0	0	524	468	0	0	0	0	
0	0	0	0	0	515	460	0	0	0	0	
1	0	0	0	0	505	452	0	0	0	0	
2	0	0	0	0	495	444	0	0	0	0	
3	0	0	0	0	487	437	0	0	0	0	
4	0	0	0	0	480	431	0	0	0	0	
5	0	0	0	0	475	427	0	0	0	0	
6	0	0	0	0	474	425	0	0	0	0	
7	0	0	0	0	475	424	0	0	0	0	
8	0	0	0	0	477	425	0	0	0	0	
9	0	0	0	0	482	427	0	0	0	0	
10	0	0	0	0	487	430	0	0	0	0	
11	0	0	0	0	493	433	0	0	0	0	
12	0	0	0	0	499	438	0	0	0	0	
13	0	0	0	0	506	442	0	0	0	0	
14	0	0	0	0	513	448	0	0	0	0	
15	0	0	0	0	519	454	0	0	0	0	
0	0	0	0	0	527	460	0	0	0	0	
1	0	0	0	0	535	466	0	0	0	0	
2	0	0	0	0	541	472	0	0	0	0	
3	0	0	0	0	546	477	0	0	0	0	
4	0	0	0	0	551	483	0	0	0	0	
5	0	0	0	0	555	486	0	0	0	0	
6	0	0	0	0	556	488	0	0	0	0	
7	0	0	0	0	555	488	0	0	0	0	
8	0	0	0	0	553	487	0	0	0	0	
9	0	0	0	0	548	485	0	0	0	0	
10	0	0	0	0	544	481	0	0	0	0	
11	0	0	0	0	539	479	0	0	0	0	
12	0	0	0	0	535	476	0	0	0	0	
13	0	0	0	0	532	475	0	0	0	0	
14	0	0	0	0	531	475	0	0	0	0	
15	0	0	0	0	530	474	0	0	0	0	
0	0	0	0	0	529	474	0	0	0	0	
1	0	0	0	0	528	472	0	0	0	0	
2	0	0	0	0	526	470	0	0	0	0	
3	0	0	0	0	521	465	0	0	0	0	
4	0	0	0	0	518	461	0	0	0	0	
5	0	0	0	0	512	456	0	0	0	0	
6	0	0	0	0	507	451	0	0	0	0	
7	0	0	0	0	502	446	0	0	0	0	
8	0	0	0	0	497	441	0	0	0	0	
9	0	0	0	0	493	437	0	0	0	0	
10	0	0	0	0	490	434	0	0	0	0	
11	0	0	0	0	488	432	0	0	0	0	
12	0	0	0	0	487	430	0	0	0	0	
13	0	0	0	0	487	430	0	0	0	0	
14	0	0	0	0	491	431	0	0	0	0	
15	0	0	0	0	495	434	0	0	0	0	
0	0	0	0	0	499	437	0	0	0	0	
1	0	0	0	0	505	441	0	0	0	0	
2	0	0	0	0	511	447	0	0	0	0	
3	0	0	0	0	518	454	0	0	0	0	
4	0	0	0	0	523	460	0	0	0	0	
5	0	0	0	0	527	464	0	0	0	0	
6	0	0	0	0	529	468	0	0	0	0	
7	0	0	0	0	529	469	0	0	0	0	
8	0	0	0	0	527	469	0	0	0	0	
9	0	0	0	0	524	468	0	0	0	0	
10	0	0	0	0	519	465	0	0	0	0	
11	0	0	0	0	514	462	0	0	0	0	
12	0	0	0	0	508	459	0	0	0	0	
13	0	0	0	0	503	455	0	0	0	0	
14	0	0	0	0	497	450	0	0	0	0	
15	0	0	0	0	492	446	0	0	0	0	
0	0	0	0	0	488	441	0	0	0	0	
1	0	0	0	0	486	438	0	0	0	0	
2	0	0	0	0	486	436	0	0	0	0	
3	0	0	0	0	487	436	0	0	0	0	
4	0	0	0	0	491	437	0	0	0	0	
5	0	0	0	0	496	440	0	0	0	0	
6	0	0	0	0	502	444	0	0	0	0	
7	0	0	0	0	509	448	0	0	0	0	
8	0	0	0	0	516	452	0	0	0	0	
9	0	0	0	0	520	455	0	0	0	0	
10	0	0	0	0	523	456	0	0	0	0	
11	0	0	0	0	524	456	0	0	0	0	
12	0	0	0	0	520	453	0	0	0	0	
13	0	0	0	0	513	448	0	0	0	0	
14	0	0	0	0	503	439	0	0	0	0	
15	0	0	0	0	487	427	0	0	0	0	
0	0	0	0	0	470	412	0	0	0	0	
1	0	0	0	0	450	396	0	0	0	0	
2	0	0	0	0	428	379	0	0	0	0	
3	0	0	0	0	406	360	0	0	0	0	
4	0	0	0	0	384	342	0	0	0	0	
5	0	0	0	0	364	324	0	0	0	0	
6	0	0	0	0	346	307	0	0	0	0	
7	0	0	0	0	330	291	0	0	0	0	
8	0	0	0	0	317	278	0	0	0	0	
9	0	0	0	0	307	267	0	0	0	0	
10	0	0	0	0	300	257	0	0	0	0	
11	0	0	0	0	296	250	0	0	0	0	
12	0	0	0	0	295	246	0	0	0	0	
13	0	0	0	0	296	244	0	0	0	0	
14	0	0	0	0	300	245	0	0	0	0	
15	0	0	0	0	307	248	0	0	0	0	
0	0	0	0	0	316	255	0	0	0	0	
1	0	0	0	0	328	263	0	0	0	0	
2	0	0	0	0	341	273	0	0	0	0	
3	0	0	0	0	354	284	0	0	0	0	
4	0	0	0	0	369	297	0	0	0	0	
5	0	0	0	0	384	310	0	0	0	0	
6	0	0	0	0	398	323	0	0	0	0	
7	0	0	0	0	412	335	0	0	0	0	
8	0	0	0	0	424	346	0	0	0	0	
9	0	0	0	0	436	356	0	0	0	0	
10	0	0	0	0	447	367	0	0	0	0	
11	0	0	0	0	456	376	0	0	0	0	
12	0	0	0	0	466	386	0	0	0	0	
13	0	0	0	0	475	396	0	0	0	0	
14	0	0	0	0	484	406	0	0	0	0	
15	0	0	0	0	492	415	0	0	0	0	
0	0	0	0	0	499	424	0	0	0	0	
1	0	0	0	0	505	432	0	0	0	0	
2	0	0	0	0	509	438	0	0	0	0	
3	0	0	0	0	511	444	0	0	0	0	
4	0	0	0	0	512	448	0	0	0	0	
5	0	0	0	0	513	451	0	0	0	0	
6	0	0	0	0	515	456	0	0	0	0	
7	0	0	0	0	518	460	0	0	0	0	
8	0	0	0	0	521	466	0	0	0	0	
9	0	0	0	0	527	472	0	0	0	0	
10	0	0	0	0	533	478	0	0	0	0	
11	0	0	0	0	540	484	0	0	0	0	
12	0	0	0	0	547	489	0	0	0	0	
13	0	0	0	0	552	491	0	0	0	0	
14	0	0	0	0	556	492	0	0	0	0	
15	0	0	0	0	558	490	0	0	0	0	
0	0	0	0	0	556	486	0	0	0	0	
1	0	0	0	0	551	480	0	0	0	0	
2	0	0	0	0	546	474	0	0	0	0	
3	0	0	0	0	539	467	0	0	0	0	
4	0	0	0	0	533	463	0	0	0	0	
5	0	0	0	0	527	459	0	0	0	0	
6	0	0	0	0	524	458	0	0	0	0	
7	0	0	0	0	524	460	0	0	0	0	
8	0	0	0	0	526	463	0	0	0	0	
9	0	0	0	0	529	467	0	0	0	0	
10	0	0	0	0	533	472	0	0	0	0	
11	0	0	0	0	538	477	0	0	0	0	
12	0	0	0	0	542	481	0	0	0	0	
13	0	0	0	0	546	484	0	0	0	0	
14	0	0	0	0	548	484	0	0	0	0	
15	0	0	0	0	548	484	0	0	0	0	
0	0	0	0	0	546	481	0	0	0	0	
1	0	0	0	0	543	478	0	0	0	0	
2	0	0	0	0	539	474	0	0	0	0	
3	0	0	0	0	534	470	0	0	0	0	
4	0	0	0	0	529	465	0	0	0	0	
5	0	0	0	0	524	461	0	0	0	0	
6	0	0	0	0	521	458	0	0	0	0	
7	0	0	0	0	519	456	0	0	0	0	
8	0	0	0	0	518	455	0	0	0	0	
9	0	0	0	0	519	456	0	0	0	0	
10	0	0	0	0	521	458	0	0	0	0	
11	0	0	0	0	523	460	0	0	0	0	
12	0	0	0	0	527	463	0	0	0	0	
13	0	0	0	0	530	466	0	0	0	0	
14	0	0	0	0	534	468	0	0	0	0	
15	0	0	0	0	536	470	0	0	0	0	
0	0	0	0	0	538	472	0	0	0	0	
1	0	0	0	0	539	472	0	0	0	0	
2	0	0	0	0	539	472	0	0	0	0	
3	0	0	0	0	537	470	0	0	0	0	
4	0	0	0	0	535	467	0	0	0	0	
5	0	0	0	0	531	464	0	0	0	0	
6	0	0	0	0	527	460	0	0	0	0	
7	0	0	0	0	524	457	0	0	0	0	
8	0	0	0	0	521	455	0	0	0	0	
9	0	0	0	0	519	454	0	0	0	0	
10	0	0	0	0	518	453	0	0	0	0	
11	0	0	0	0	519	455	0	0	0	0	
12	0	0	0	0	520	456	0	0	0	0	
13	0	0	0	0	522	459	0	0	0	0	
14	0	0	0	0	524	462	0	0	0	0	
15	0	0	0	0	527	465	0	0	0	0	
0	0	0	0	0	529	467	0	0	0	0	
1	0	0	0	0	531	470	0	0	0	0	
2	0	0	0	0	532	472	0	0	0	0	
3	0	0	0	0	533	472	0	0	0	0	
4	0	0	0	0	533	473	0	0	0	0	
5	0	0	0	0	533	472	0	0	0	0	
6	0	0	0	0	533	472	0	0	0	0	
7	0	0	0	0	533	471	0	0	0	0	
8	0	0	0	0	533	471	0	0	0	0	
9	0	0	0	0	535	472	0	0	0	0	
10	0	0	0	0	539	473	0	0	0	0	
11	0	0	0	0	542	475	0	0	0	0	
12	0	0	0	0	545	477	0	0	0	0	
13	0	0	0	0	547	479	0	0	0	0	
14	0	0	0	0	548	480	0	0	0	0	
15	0	0	0	0	549	480	0	0	0	0	
0	0	0	0	0	548	480	0	0	0	0	
1	0	0	0	0	545	479	0	0	0	0	
2	0	0	0	0	541	476	0	0	0	0	
3	0	0	0	0	535	472	0	0	0	0	
4	0	0	0	0	530	468	0	0	0	0	
5	0	0	0	0	524	464	0	0	0	0	
6	0	0	0	0	519	461	0	0	0	0	
7	0	0	0	0	515	460	0	0	0	0	
8	0	0	0	0	515	460	0	0	0	0	
9	0	0	0	0	517	463	0	0	0	0	
10	0	0	0	0	522	467	0	0	0	0	
11	0	0	0	0	528	472	0	0	0	0	
12	0	0	0	0	536	479	0	0	0	0	
13	0	0	0	0	544	484	0	0	0	0	
14	0	0	0	0	552	490	0	0	0	0	
15	0	0	0	0	559	495	0	0	0	0	
0	0	0	0	0	564	498	0	0	0	0	
1	0	0	0	0	568	500	0	0	0	0	
2	0	0	0	0	570	501	0	0	0	0	
3	0	0	0	0	571	501	0	0	0	0	
4	0	0	0	0	570	501	0	0	0	0	
5	0	0	0	0	568	500	0	0	0	0	
6	0	0	0	0	566	499	0	0	0	0	
7	0	0	0	0	561	497	0	0	0	0	
8	0	0	0	0	557	494	0	0	0	0	
9	0	0	0	0	551	491	0	0	0	0	
10	0	0	0	0	543	487	0	0	0	0	
11	0	0	0	0	534	482	0	0	0	0	
12	0	0	0	0	526	477	0	0	0	0	
13	0	0	0	0	517	471	0	0	0	0	
14	0	0	0	0	508	464	0	0	0	0	
15	0	0	0	0	499	457	0	0	0	0	
0	0	0	0	0	492	450	0	0	0	0	
1	0	0	0	0	484	443	0	0	0	0	
2	0	0	0	0	480	437	0	0	0	0	
3	0	0	0	0	477	432	0	0	0	0	
4	0	0	0	0	476	429	0	0	0	0	
5	0	0	0	0	477	428	0	0	0	0	
6	0	0	0	0	480	428	0	0	0	0	
7	0	0	0	0	485	430	0	0	0	0	
8	0	0	0	0	490	433	0	0	0	0	
9	0	0	0	0	496	437	0	0	0	0	
10	0	0	0	0	503	442	0	0	0	0	
11	0	0	0	0	508	448	0	0	0	0	
12	0	0	0	0	515	454	0	0	0	0	
13	0	0	0	0	520	460	0	0	0	0	
14	0	0	0	0	524	465	0	0	0	0	
15	0	0	0	0	527	469	0	0	0	0	
0	0	0	0	0	528	471	0	0	0	0	
1	0	0	0	0	527	472	0	0	0	0	
2	0	0	0	0	525	471	0	0	0	0	
3	0	0	0	0	523	470	0	0	0	0	
4	0	0	0	0	519	467	0	0	0	0	
5	0	0	0	0	515	464	0	0	0	0	
6	0	0	0	0	513	463	0	0	0	0	
7	0	0	0	0	512	461	0	0	0	0	
8	0	0	0	0	513	460	0	0	0	0	
9	0	0	0	0	515	461	0	0	0	0	
10	0	0	0	0	519	464	0	0	0	0	
11	0	0	0	0	526	468	0	0	0	0	
12	0	0	0	0	534	473	0	0	0	0	
13	0	0	0	0	543	480	0	0	0	0	
14	0	0	0	0	551	487	0	0	0	0	
15	0	0	0	0	558	493	0	0	0	0	
0	0	0	0	0	563	497	0	0	0	0	
1	0	0	0	0	565	499	0	0	0	0	
2	0	0	0	0	563	499	0	0	0	0	
3	0	0	0	0	557	495	0	0	0	0	
4	0	0	0	0	549	490	0	0	0	0	
5	0	0	0	0	539	483	0	0	0	0	
6	0	0	0	0	527	474	0	0	0	0	
7	0	0	0	0	516	465	0	0	0	0	
8	0	0	0	0	506	457	0	0	0	0	
9	0	0	0	0	496	449	0	0	0	0	
10	0	0	0	0	491	444	0	0	0	0	
11	0	0	0	0	486	439	0	0	0	0	
12	0	0	0	0	484	436	0	0	0	0	
13	0	0	0	0	483	434	0	0	0	0	
14	0	0	0	0	482	432	0	0	0	0	
15	0	0	0	0	483	432	0	0	0	0	
0	0	0	0	0	484	432	0	0	0	0	
1	0	0	0	0	485	432	0	0	0	0	
2	0	0	0	0	486	433	0	0	0	0	
3	0	0	0	0	489	435	0	0	0	0	
4	0	0	0	0	492	438	0	0	0	0	
5	0	0	0	0	496	443	0	0	0	0	
6	0	0	0	0	502	448	0	0	0	0	
7	0	0	0	0	509	455	0	0	0	0	
8	0	0	0	0	517	463	0	0	0	0	
9	0	0	0	0	526	471	0	0	0	0	
10	0	0	0	0	535	479	0	0	0	0	
11	0	0	0	0	542	486	0	0	0	0	
12	0	0	0	0	547	491	0	0	0	0	
13	0	0	0	0	550	494	0	0	0	0	
14	0	0	0	0	551	494	0	0	0	0	
15	0	0	0	0	550	492	0	0	0	0	
0	0	0	0	0	545	488	0	0	0	0	
1	0	0	0	0	540	483	0	0	0	0	
2	0	0	0	0	533	477	0	0	0	0	
3	0	0	0	0	527	470	0	0	0	0	
4	0	0	0	0	521	465	0	0	0	0	
5	0	0	0	0	515	460	0	0	0	0	
6	0	0	0	0	511	456	0	0	0	0	
7	0	0	0	0	509	455	0	0	0	0	
8	0	0	0	0	509	455	0	0	0	0	
9	0	0	0	0	512	457	0	0	0	0	
10	0	0	0	0	516	462	0	0	0	0	
11	0	0	0	0	524	469	0	0	0	0	
12	0	0	0	0	533	477	0	0	0	0	
13	0	0	0	0	544	486	0	0	0	0	
14	0	0	0	0	555	496	0	0	0	0	
15	0	0	0	0	565	504	0	0	0	0	
0	0	0	0	0	572	510	0	0	0	0	
1	0	0	0	0	577	513	0	0	0	0	
2	0	0	0	0	579	513	0	0	0	0	
3	0	0	0	0	576	511	0	0	0	0	
4	0	0	0	0	571	505	0	0	0	0	
5	0	0	0	0	561	497	0	0	0	0	
6	0	0	0	0	550	487	0	0	0	0	
7	0	0	0	0	537	477	0	0	0	0	
8	0	0	0	0	524	467	0	0	0	0	
9	0	0	0	0	511	457	0	0	0	0	
10	0	0	0	0	500	449	0	0	0	0	
11	0	0	0	0	491	442	0	0	0	0	
12	0	0	0	0	484	437	0	0	0	0	
13	0	0	0	0	478	433	0	0	0	0	
14	0	0	0	0	475	430	0	0	0	0	
15	0	0	0	0	473	427	0	0	0	0	
0	0	0	0	0	472	425	0	0	0	0	
1	0	0	0	0	472	423	0	0	0	0	
2	0	0	0	0	473	421	0	0	0	0	
3	0	0	0	0	474	420	0	0	0	0	
4	0	0	0	0	475	419	0	0	0	0	
5	0	0	0	0	478	419	0	0	0	0	
6	0	0	0	0	481	419	0	0	0	0	
7	0	0	0	0	485	422	0	0	0	0	
8	0	0	0	0	489	424	0	0	0	0	
9	0	0	0	0	494	428	0	0	0	0	
10	0	0	0	0	500	433	0	0	0	0	
11	0	0	0	0	506	439	0	0	0	0	
12	0	0	0	0	512	445	0	0	0	0	
13	0	0	0	0	518	451	0	0	0	0	
14	0	0	0	0	523	457	0	0	0	0	
15	0	0	0	0	528	463	0	0	0	0	
0	0	0	0	0	532	468	0	0	0	0	
1	0	0	0	0	535	472	0	0	0	0	
2	0	0	0	0	536	475	0	0	0	0	
3	0	0	0	0	535	475	0	0	0	0	
4	0	0	0	0	532	474	0	0	0	0	
5	0	0	0	0	528	472	0	0	0	0	
6	0	0	0	0	524	469	0	0	0	0	
7	0	0	0	0	519	465	0	0	0	0	
8	0	0	0	0	513	460	0	0	0	0	
9	0	0	0	0	510	456	0	0	0	0	
10	0	0	0	0	506	452	0	0	0	0	
11	0	0	0	0	503	449	0	0	0	0	
12	0	0	0	0	500	446	0	0	0	0	
13	0	0	0	0	498	443	0	0	0	0	
14	0	0	0	0	497	441	0	0	0	0	
15	0	0	0	0	496	439	0	0	0	0	
0	0	0	0	0	497	439	0	0	0	0	
1	0	0	0	0	498	439	0	0	0	0	
2	0	0	0	0	500	440	0	0	0	0	
3	0	0	0	0	504	443	0	0	0	0	
4	0	0	0	0	508	448	0	0	0	0	
5	0	0	0	0	513	453	0	0	0	0	
6	0	0	0	0	520	460	0	0	0	0	
7	0	0	0	0	526	466	0	0	0	0	
8	0	0	0	0	531	471	0	0	0	0	
9	0	0	0	0	536	476	0	0	0	0	
10	0	0	0	0	539	479	0	0	0	0	
11	0	0	0	0	541	481	0	0	0	0	
12	0	0	0	0	540	481	0	0	0	0	
13	0	0	0	0	540	481	0	0	0	0	
14	0	0	0	0	539	480	0	0	0	0	
15	0	0	0	0	537	480	0	0	0	0	
0	0	0	0	0	536	478	0	0	0	0	
1	0	0	0	0	534	477	0	0	0	0	
2	0	0	0	0	531	476	0	0	0	0	
3	0	0	0	0	529	475	0	0	0	0	
4	0	0	0	0	527	473	0	0	0	0	
5	0	0	0	0	524	471	0	0	0	0	
6	0	0	0	0	521	469	0	0	0	0	
7	0	0	0	0	519	467	0	0	0	0	
8	0	0	0	0	516	464	0	0	0	0	
9	0	0	0	0	514	462	0	0	0	0	
10	0	0	0	0	512	460	0	0	0	0	
11	0	0	0	0	511	459	0	0	0	0	
12	0	0	0	0	512	460	0	0	0	0	
13	0	0	0	0	515	461	0	0	0	0	
14	0	0	0	0	519	464	0	0	0	0	
15	0	0	0	0	524	468	0	0	0	0	
0	0	0	0	0	529	472	0	0	0	0	
1	0	0	0	0	535	477	0	0	0	0	
2	0	0	0	0	539	479	0	0	0	0	
3	0	0	0	0	541	479	0	0	0	0	
4	0	0	0	0	540	476	0	0	0	0	
5	0	0	0	0	535	470	0	0	0	0	
6	0	0	0	0	526	462	0	0	0	0	
7	0	0	0	0	516	452	0	0	0	0	
8	0	0	0	0	504	441	0	0	0	0	
9	0	0	0	0	493	432	0	0	0	0	
10	0	0	0	0	481	423	0	0	0	0	
11	0	0	0	0	473	416	0	0	0	0	
12	0	0	0	0	466	412	0	0	0	0	
13	0	0	0	0	463	410	0	0	0	0	
14	0	0	0	0	463	412	0	0	0	0	
15	0	0	0	0	467	416	0	0	0	0	
0	0	0	0	0	475	423	0	0	0	0	
1	0	0	0	0	486	433	0	0	0	0	
2	0	0	0	0	500	444	0	0	0	0	
3	0	0	0	0	513	454	0	0	0	0	
4	0	0	0	0	526	463	0	0	0	0	
5	0	0	0	0	536	470	0	0	0	0	
6	0	0	0	0	545	474	0	0	0	0	
7	0	0	0	0	548	475	0	0	0	0	
8	0	0	0	0	548	473	0	0	0	0	
9	0	0	0	0	545	470	0	0	0	0	
10	0	0	0	0	541	466	0	0	0	0	
11	0	0	0	0	536	462	0	0	0	0	
12	0	0	0	0	531	460	0	0	0	0	
13	0	0	0	0	526	457	0	0	0	0	
14	0	0	0	0	522	456	0	0	0	0	
15	0	0	0	0	519	455	0	0	0	0	
0	0	0	0	0	515	455	0	0	0	0	
1	0	0	0	0	512	454	0	0	0	0	
2	0	0	0	0	510	453	0	0	0	0	
3	0	0	0	0	508	453	0	0	0	0	
4	0	0	0	0	507	452	0	0	0	0	
5	0	0	0	0	507	452	0	0	0	0	
6	0	0	0	0	507	452	0	0	0	0	
7	0	0	0	0	508	452	0	0	0	0	
8	0	0	0	0	510	452	0	0	0	0	
9	0	0	0	0	512	453	0	0	0	0	
10	0	0	0	0	514	454	0	0	0	0	
11	0	0	0	0	516	455	0	0	0	0	
12	0	0	0	0	519	455	0	0	0	0	
13	0	0	0	0	519	455	0	0	0	0	
14	0	0	0	0	519	455	0	0	0	0	
15	0	0	0	0	519	453	0	0	0	0	
0	0	0	0	0	518	453	0	0	0	0	
1	0	0	0	0	517	452	0	0	0	0	
2	0	0	0	0	515	451	0	0	0	0	
3	0	0	0	0	514	451	0	0	0	0	
4	0	0	0	0	512	451	0	0	0	0	
5	0	0	0	0	510	450	0	0	0	0	
6	0	0	0	0	509	450	0	0	0	0	
7	0	0	0	0	508	450	0	0	0	0	
8	0	0	0	0	508	450	0	0	0	0	
9	0	0	0	0	507	451	0	0	0	0	
10	0	0	0	0	507	451	0	0	0	0	
11	0	0	0	0	507	450	0	0	0	0	
12	0	0	0	0	508	451	0	0	0	0	
13	0	0	0	0	509	451	0	0	0	0	
14	0	0	0	0	511	451	0	0	0	0	
15	0	0	0	0	513	452	0	0	0	0	
0	0	0	0	0	515	454	0	0	0	0	
1	0	0	0	0	519	457	0	0	0	0	
2	0	0	0	0	524	461	0	0	0	0	
3	0	0	0	0	531	466	0	0	0	0	
4	0	0	0	0	539	473	0	0	0	0	
5	0	0	0	0	545	480	0	0	0	0	
6	0	0	0	0	551	486	0	0	0	0	
7	0	0	0	0	555	490	0	0	0	0	
8	0	0	0	0	555	492	0	0	0	0	
9	0	0	0	0	552	491	0	0	0	0	
10	0	0	0	0	545	486	0	0	0	0	
11	0	0	0	0	536	479	0	0	0	0	
12	0	0	0	0	524	471	0	0	0	0	
13	0	0	0	0	512	461	0	0	0	0	
14	0	0	0	0	500	451	0	0	0	0	
15	0	0	0	0	490	443	0	0	0	0	
0	0	0	0	0	481	435	0	0	0	0	
1	0	0	0	0	476	429	0	0	0	0	
2	0	0	0	0	474	426	0	0	0	0	
3	0	0	0	0	476	425	0	0	0	0	
4	0	0	0	0	480	427	0	0	0	0	
5	0	0	0	0	487	430	0	0	0	0	
6	0	0	0	0	496	435	0	0	0	0	
7	0	0	0	0	507	441	0	0	0	0	
8	0	0	0	0	516	448	0	0	0	0	
9	0	0	0	0	526	455	0	0	0	0	
10	0	0	0	0	534	462	0	0	0	0	
11	0	0	0	0	539	468	0	0	0	0	
12	0	0	0	0	543	473	0	0	0	0	
13	0	0	0	0	545	476	0	0	0	0	
14	0	0	0	0	546	479	0	0	0	0	
15	0	0	0	0	545	480	0	0	0	0	
0	0	0	0	0	543	480	0	0	0	0	
1	0	0	0	0	540	478	0	0	0	0	
2	0	0	0	0	536	476	0	0	0	0	
3	0	0	0	0	532	474	0	0	0	0	
4	0	0	0	0	530	473	0	0	0	0	
5	0	0	0	0	529	472	0	0	0	0	
6	0	0	0	0	529	472	0	0	0	0	
7	0	0	0	0	530	472	0	0	0	0	
8	0	0	0	0	531	473	0	0	0	0	
9	0	0	0	0	533	473	0	0	0	0	
10	0	0	0	0	532	472	0	0	0	0	
11	0	0	0	0	532	472	0	0	0	0	
12	0	0	0	0	530	471	0	0	0	0	
13	0	0	0	0	529	470	0	0	0	0	
14	0	0	0	0	527	469	0	0	0	0	
15	0	0	0	0	527	470	0	0	0	0	
0	0	0	0	0	527	471	0	0	0	0	
1	0	0	0	0	527	471	0	0	0	0	
2	0	0	0	0	527	472	0	0	0	0	
3	0	0	0	0	527	472	0	0	0	0	
4	0	0	0	0	527	472	0	0	0	0	
5	0	0	0	0	527	472	0	0	0	0	
6	0	0	0	0	526	471	0	0	0	0	
7	0	0	0	0	524	468	0	0	0	0	
8	0	0	0	0	521	465	0	0	0	0	
9	0	0	0	0	516	460	0	0	0	0	
10	0	0	0	0	512	454	0	0	0	0	
11	0	0	0	0	505	448	0	0	0	0	
12	0	0	0	0	498	440	0	0	0	0	
13	0	0	0	0	490	433	0	0	0	0	
14	0	0	0	0	482	427	0	0	0	0	
15	0	0	0	0	476	421	0	0	0	0	
0	0	0	0	0	471	417	0	0	0	0	
1	0	0	0	0	468	415	0	0	0	0	
2	0	0	0	0	467	415	0	0	0	0	
3	0	0	0	0	469	417	0	0	0	0	
4	0	0	0	0	473	421	0	0	0	0	
5	0	0	0	0	479	427	0	0	0	0	
6	0	0	0	0	487	435	0	0	0	0	
7	0	0	0	0	496	443	0	0	0	0	
8	0	0	0	0	506	451	0	0	0	0	
9	0	0	0	0	517	461	0	0	0	0	
10	0	0	0	0	527	470	0	0	0	0	
11	0	0	0	0	538	479	0	0	0	0	
12	0	0	0	0	547	486	0	0	0	0	
13	0	0	0	0	554	493	0	0	0	0	
14	0	0	0	0	561	497	0	0	0	0	
15	0	0	0	0	565	501	0	0	0	0	
0	0	0	0	0	566	502	0	0	0	0	
1	0	0	0	0	566	502	0	0	0	0	
2	0	0	0	0	563	500	0	0	0	0	
3	0	0	0	0	560	497	0	0	0	0	
4	0	0	0	0	554	493	0	0	0	0	
5	0	0	0	0	547	488	0	0	0	0	
6	0	0	0	0	540	484	0	0	0	0	
7	0	0	0	0	534	479	0	0	0	0	
8	0	0	0	0	527	474	0	0	0	0	
9	0	0	0	0	522	470	0	0	0	0	
10	0	0	0	0	518	467	0	0	0	0	
11	0	0	0	0	515	465	0	0	0	0	
12	0	0	0	0	513	464	0	0	0	0	
13	0	0	0	0	515	465	0	0	0	0	
14	0	0	0	0	517	466	0	0	0	0	
15	0	0	0	0	520	468	0	0	0	0	
0	0	0	0	0	524	469	0	0	0	0	
1	0	0	0	0	527	470	0	0	0	0	
2	0	0	0	0	529	471	0	0	0	0	
3	0	0	0	0	530	471	0	0	0	0	
4	0	0	0	0	529	469	0	0	0	0	
5	0	0	0	0	526	466	0	0	0	0	
6	0	0	0	0	523	463	0	0	0	0	
7	0	0	0	0	519	459	0	0	0	0	
8	0	0	0	0	514	455	0	0	0	0	
9	0	0	0	0	511	452	0	0	0	0	
10	0	0	0	0	509	451	0	0	0	0	
11	0	0	0	0	508	452	0	0	0	0	
12	0	0	0	0	511	455	0	0	0	0	
13	0	0	0	0	512	457	0	0	0	0	
14	0	0	0	0	516	461	0	0	0	0	
15	0	0	0	0	520	465	0	0	0	0	
0	0	0	0	0	523	468	0	0	0	0	
1	0	0	0	0	527	471	0	0	0	0	
2	0	0	0	0	529	472	0	0	0	0	
3	0	0	0	0	530	473	0	0	0	0	
4	0	0	0	0	531	473	0	0	0	0	
5	0	0	0	0	530	472	0	0	0	0	
6	0	0	0	0	528	470	0	0	0	0	
7	0	0	0	0	525	467	0	0	0	0	
8	0	0	0	0	521	462	0	0	0	0	
9	0	0	0	0	516	457	0	0	0	0	
10	0	0	0	0	511	453	0	0	0	0	
11	0	0	0	0	509	450	0	0	0	0	
12	0	0	0	0	507	449	0	0	0	0	
13	0	0	0	0	508	449	0	0	0	0	
14	0	0	0	0	511	452	0	0	0	0	
15	0	0	0	0	514	455	0	0	0	0	
0	0	0	0	0	518	460	0	0	0	0	
1	0	0	0	0	523	465	0	0	0	0	
2	0	0	0	0	527	469	0	0	0	0	
3	0	0	0	0	529	473	0	0	0	0	
4	0	0	0	0	532	476	0	0	0	0	
5	0	0	0	0	534	479	0	0	0	0	
6	0	0	0	0	534	480	0	0	0	0	
7	0	0	0	0	534	480	0	0	0	0	
8	0	0	0	0	530	479	0	0	0	0	
9	0	0	0	0	526	475	0	0	0	0	
10	0	0	0	0	520	471	0	0	0	0	
11	0	0	0	0	514	466	0	0	0	0	
12	0	0	0	0	508	461	0	0	0	0	
13	0	0	0	0	503	456	0	0	0	0	
14	0	0	0	0	498	451	0	0	0	0	
15	0	0	0	0	495	448	0	0	0	0	
0	0	0	0	0	492	444	0	0	0	0	
1	0	0	0	0	491	443	0	0	0	0	
2	0	0	0	0	490	441	0	0	0	0	
3	0	0	0	0	491	441	0	0	0	0	
4	0	0	0	0	493	441	0	0	0	0	
5	0	0	0	0	495	443	0	0	0	0	
6	0	0	0	0	499	445	0	0	0	0	
7	0	0	0	0	502	448	0	0	0	0	
8	0	0	0	0	505	451	0	0	0	0	
9	0	0	0	0	510	454	0	0	0	0	
10	0	0	0	0	514	457	0	0	0	0	
11	0	0	0	0	517	460	0	0	0	0	
12	0	0	0	0	519	461	0	0	0	0	
13	0	0	0	0	520	462	0	0	0	0	
14	0	0	0	0	519	461	0	0	0	0	
15	0	0	0	0	518	459	0	0	0	0	
0	0	0	0	0	515	456	0	0	0	0	
1	0	0	0	0	512	453	0	0	0	0	
2	0	0	0	0	509	451	0	0	0	0	
3	0	0	0	0	508	450	0	0	0	0	
4	0	0	0	0	507	450	0	0	0	0	
5	0	0	0	0	508	451	0	0	0	0	
6	0	0	0	0	511	454	0	0	0	0	
7	0	0	0	0	514	458	0	0	0	0	
8	0	0	0	0	521	464	0	0	0	0	
9	0	0	0	0	529	472	0	0	0	0	
10	0	0	0	0	536	480	0	0	0	0	
11	0	0	0	0	544	487	0	0	0	0	
12	0	0	0	0	550	493	0	0	0	0	
13	0	0	0	0	555	496	0	0	0	0	
14	0	0	0	0	556	498	0	0	0	0	
15	0	0	0	0	556	497	0	0	0	0	
0	0	0	0	0	550	492	0	0	0	0	
1	0	0	0	0	543	485	0	0	0	0	
2	0	0	0	0	532	475	0	0	0	0	
3	0	0	0	0	519	463	0	0	0	0	
4	0	0	0	0	503	449	0	0	0	0	
5	0	0	0	0	485	433	0	0	0	0	
6	0	0	0	0	467	418	0	0	0	0	
7	0	0	0	0	451	403	0	0	0	0	
8	0	0	0	0	435	390	0	0	0	0	
9	0	0	0	0	420	377	0	0	0	0	
10	0	0	0	0	408	366	0	0	0	0	
11	0	0	0	0	398	357	0	0	0	0	
12	0	0	0	0	391	351	0	0	0	0	
13	0	0	0	0	386	346	0	0	0	0	
14	0	0	0	0	384	343	0	0	0	0	
15	0	0	0	0	383	341	0	0	0	0	
0	0	0	0	0	384	340	0	0	0	0	
1	0	0	0	0	385	339	0	0	0	0	
2	0	0	0	0	387	338	0	0	0	0	
3	0	0	0	0	386	335	0	0	0	0	
4	0	0	0	0	383	329	0	0	0	0	
5	0	0	0	0	376	321	0	0	0	0	
6	0	0	0	0	367	310	0	0	0	0	
7	0	0	0	0	356	299	0	0	0	0	
8	0	0	0	0	343	285	0	0	0	0	
9	0	0	0	0	328	272	0	0	0	0	
10	0	0	0	0	314	260	0	0	0	0	
11	0	0	0	0	301	249	0	0	0	0	
12	0	0	0	0	291	241	0	0	0	0	
13	0	0	0	0	285	236	0	0	0	0	
14	0	0	0	0	283	236	0	0	0	0	
15	0	0	0	0	287	240	0	0	0	0	
0	0	0	0	0	296	249	0	0	0	0	
1	0	0	0	0	313	264	0	0	0	0	
2	0	0	0	0	334	282	0	0	0	0	
3	0	0	0	0	359	303	0	0	0	0	
4	0	0	0	0	389	328	0	0	0	0	
5	0	0	0	0	419	354	0	0	0	0	
6	0	0	0	0	451	380	0	0	0	0	
7	0	0	0	0	482	406	0	0	0	0	
8	0	0	0	0	510	430	0	0	0	0	
9	0	0	0	0	535	452	0	0	0	0	
10	0	0	0	0	555	471	0	0	0	0	
11	0	0	0	0	571	486	0	0	0	0	
12	0	0	0	0	582	498	0	0	0	0	
13	0	0	0	0	590	508	0	0	0	0	
14	0	0	0	0	594	515	0	0	0	0	
15	0	0	0	0	595	520	0	0	0	0	
0	0	0	0	0	593	523	0	0	0	0	
1	0	0	0	0	589	523	0	0	0	0	
2	0	0	0	0	584	521	0	0	0	0	
3	0	0	0	0	576	519	0	0	0	0	
4	0	0	0	0	570	516	0	0	0	0	
5	0	0	0	0	564	512	0	0	0	0	
6	0	0	0	0	558	510	0	0	0	0	
7	0	0	0	0	553	507	0	0	0	0	
8	0	0	0	0	550	504	0	0	0	0	
9	0	0	0	0	548	502	0	0	0	0	
10	0	0	0	0	546	499	0	0	0	0	
11	0	0	0	0	545	497	0	0	0	0	
12	0	0	0	0	544	496	0	0	0	0	
13	0	0	0	0	543	493	0	0	0	0	
14	0	0	0	0	542	490	0	0	0	0	
15	0	0	0	0	541	487	0	0	0	0	
0	0	0	0	0	540	485	0	0	0	0	
1	0	0	0	0	537	483	0	0	0	0	
2	0	0	0	0	536	480	0	0	0	0	
3	0	0	0	0	534	478	0	0	0	0	
4	0	0	0	0	531	476	0	0	0	0	
5	0	0	0	0	528	475	0	0	0	0	
6	0	0	0	0	526	474	0	0	0	0	
7	0	0	0	0	526	475	0	0	0	0	
8	0	0	0	0	526	476	0	0	0	0	
9	0	0	0	0	529	480	0	0	0	0	
10	0	0	0	0	533	484	0	0	0	0	
11	0	0	0	0	539	490	0	0	0	0	
12	0	0	0	0	546	497	0	0	0	0	
13	0	0	0	0	554	504	0	0	0	0	
14	0	0	0	0	560	509	0	0	0	0	
15	0	0	0	0	566	512	0	0	0	0	
0	0	0	0	0	568	513	0	0	0	0	
1	0	0	0	0	568	511	0	0	0	0	
2	0	0	0	0	564	506	0	0	0	0	
3	0	0	0	0	558	499	0	0	0	0	
4	0	0	0	0	549	491	0	0	0	0	
5	0	0	0	0	539	482	0	0	0	0	
6	0	0	0	0	530	473	0	0	0	0	
7	0	0	0	0	520	465	0	0	0	0	
8	0	0	0	0	513	460	0	0	0	0	
9	0	0	0	0	507	455	0	0	0	0	
10	0	0	0	0	503	454	0	0	0	0	
11	0	0	0	0	503	455	0	0	0	0	
12	0	0	0	0	505	458	0	0	0	0	
13	0	0	0	0	510	463	0	0	0	0	
14	0	0	0	0	516	470	0	0	0	0	
15	0	0	0	0	525	478	0	0	0	0	
0	0	0	0	0	536	487	0	0	0	0	
1	0	0	0	0	547	496	0	0	0	0	
2	0	0	0	0	560	505	0	0	0	0	
3	0	0	0	0	573	515	0	0	0	0	
4	0	0	0	0	585	525	0	0	0	0	
5	0	0	0	0	598	533	0	0	0	0	
6	0	0	0	0	607	540	0	0	0	0	
7	0	0	0	0	612	543	0	0	0	0	
8	0	0	0	0	613	542	0	0	0	0	
9	0	0	0	0	609	539	0	0	0	0	
10	0	0	0	0	601	532	0	0	0	0	
11	0	0	0	0	589	523	0	0	0	0	
12	0	0	0	0	575	512	0	0	0	0	
13	0	0	0	0	560	502	0	0	0	0	
14	0	0	0	0	545	492	0	0	0	0	
15	0	0	0	0	534	485	0	0	0	0	
0	0	0	0	0	525	480	0	0	0	0	
1	0	0	0	0	519	477	0	0	0	0	
2	0	0	0	0	517	476	0	0	0	0	
3	0	0	0	0	516	476	0	0	0	0	
4	0	0	0	0	518	478	0	0	0	0	
5	0	0	0	0	520	480	0	0	0	0	
6	0	0	0	0	524	482	0	0	0	0	
7	0	0	0	0	528	484	0	0	0	0	
8	0	0	0	0	532	487	0	0	0	0	
9	0	0	0	0	537	490	0	0	0	0	
10	0	0	0	0	542	493	0	0	0	0	
11	0	0	0	0	547	496	0	0	0	0	
12	0	0	0	0	552	499	0	0	0	0	
13	0	0	0	0	556	502	0	0	0	0	
14	0	0	0	0	562	504	0	0	0	0	
15	0	0	0	0	566	507	0	0	0	0	
0	0	0	0	0	568	508	0	0	0	0	
1	0	0	0	0	569	507	0	0	0	0	
2	0	0	0	0	567	504	0	0	0	0	
3	0	0	0	0	563	501	0	0	0	0	
4	0	0	0	0	556	496	0	0	0	0	
5	0	0	0	0	549	490	0	0	0	0	
6	0	0	0	0	542	485	0	0	0	0	
7	0	0	0	0	535	480	0	0	0	0	
8	0	0	0	0	529	477	0	0	0	0	
9	0	0	0	0	525	475	0	0	0	0	
10	0	0	0	0	523	474	0	0	0	0	
11	0	0	0	0	523	474	0	0	0	0	
12	0	0	0	0	523	475	0	0	0	0	
13	0	0	0	0	525	476	0	0	0	0	
14	0	0	0	0	528	478	0	0	0	0	
15	0	0	0	0	531	481	0	0	0	0	
0	0	0	0	0	535	483	0	0	0	0	
1	0	0	0	0	538	485	0	0	0	0	
2	0	0	0	0	542	487	0	0	0	0	
3	0	0	0	0	546	490	0	0	0	0	
4	0	0	0	0	550	494	0	0	0	0	
5	0	0	0	0	554	497	0	0	0	0	
6	0	0	0	0	558	502	0	0	0	0	
7	0	0	0	0	562	506	0	0	0	0	
8	0	0	0	0	567	511	0	0	0	0	
9	0	0	0	0	571	516	0	0	0	0	
10	0	0	0	0	574	521	0	0	0	0	
11	0	0	0	0	575	523	0	0	0	0	
12	0	0	0	0	575	524	0	0	0	0	
13	0	0	0	0	572	523	0	0	0	0	
14	0	0	0	0	568	519	0	0	0	0	
15	0	0	0	0	560	512	0	0	0	0	
0	0	0	0	0	551	504	0	0	0	0	
1	0	0	0	0	542	496	0	0	0	0	
2	0	0	0	0	532	487	0	0	0	0	
3	0	0	0	0	525	479	0	0	0	0	
4	0	0	0	0	519	473	0	0	0	0	
5	0	0	0	0	515	469	0	0	0	0	
6	0	0	0	0	514	467	0	0	0	0	
7	0	0	0	0	516	468	0	0	0	0	
8	0	0	0	0	520	471	0	0	0	0	
9	0	0	0	0	527	475	0	0	0	0	
10	0	0	0	0	534	481	0	0	0	0	
11	0	0	0	0	543	487	0	0	0	0	
12	0	0	0	0	553	495	0	0	0	0	
13	0	0	0	0	562	503	0	0	0	0	
14	0	0	0	0	570	510	0	0	0	0	
15	0	0	0	0	576	515	0	0	0	0	
0	0	0	0	0	580	520	0	0	0	0	
1	0	0	0	0	581	522	0	0	0	0	
2	0	0	0	0	579	521	0	0	0	0	
3	0	0	0	0	572	516	0	0	0	0	
4	0	0	0	0	561	508	0	0	0	0	
5	0	0	0	0	547	498	0	0	0	0	
6	0	0	0	0	532	486	0	0	0	0	
7	0	0	0	0	515	473	0	0	0	0	
8	0	0	0	0	499	460	0	0	0	0	
9	0	0	0	0	485	449	0	0	0	0	
10	0	0	0	0	473	439	0	0	0	0	
11	0	0	0	0	465	432	0	0	0	0	
12	0	0	0	0	462	428	0	0	0	0	
13	0	0	0	0	462	428	0	0	0	0	
14	0	0	0	0	468	431	0	0	0	0	
15	0	0	0	0	477	438	0	0	0	0	
0	0	0	0	0	491	447	0	0	0	0	
1	0	0	0	0	508	459	0	0	0	0	
2	0	0	0	0	527	473	0	0	0	0	
3	0	0	0	0	547	488	0	0	0	0	
4	0	0	0	0	567	504	0	0	0	0	
5	0	0	0	0	585	519	0	0	0	0	
6	0	0	0	0	601	532	0	0	0	0	
7	0	0	0	0	614	543	0	0	0	0	
8	0	0	0	0	622	550	0	0	0	0	
9	0	0	0	0	624	553	0	0	0	0	
10	0	0	0	0	621	551	0	0	0	0	
11	0	0	0	0	612	546	0	0	0	0	
12	0	0	0	0	600	538	0	0	0	0	
13	0	0	0	0	585	527	0	0	0	0	
14	0	0	0	0	568	515	0	0	0	0	
15	0	0	0	0	550	502	0	0	0	0	
0	0	0	0	0	534	491	0	0	0	0	
1	0	0	0	0	521	480	0	0	0	0	
2	0	0	0	0	511	472	0	0	0	0	
3	0	0	0	0	504	467	0	0	0	0	
4	0	0	0	0	502	465	0	0	0	0	
5	0	0	0	0	503	465	0	0	0	0	
6	0	0	0	0	508	467	0	0	0	0	
7	0	0	0	0	514	471	0	0	0	0	
8	0	0	0	0	522	475	0	0	0	0	
9	0	0	0	0	530	480	0	0	0	0	
10	0	0	0	0	537	483	0	0	0	0	
11	0	0	0	0	543	486	0	0	0	0	
12	0	0	0	0	546	487	0	0	0	0	
13	0	0	0	0	548	487	0	0	0	0	
14	0	0	0	0	548	487	0	0	0	0	
15	0	0	0	0	548	486	0	0	0	0	
0	0	0	0	0	548	487	0	0	0	0	
1	0	0	0	0	549	488	0	0	0	0	
2	0	0	0	0	551	492	0	0	0	0	
3	0	0	0	0	556	497	0	0	0	0	
4	0	0	0	0	563	504	0	0	0	0	
5	0	0	0	0	571	513	0	0	0	0	
6	0	0	0	0	580	523	0	0	0	0	
7	0	0	0	0	588	532	0	0	0	0	
8	0	0	0	0	595	539	0	0	0	0	
9	0	0	0	0	600	544	0	0	0	0	
10	0	0	0	0	601	545	0	0	0	0	
11	0	0	0	0	597	543	0	0	0	0	
12	0	0	0	0	591	538	0	0	0	0	
13	0	0	0	0	582	530	0	0	0	0	
14	0	0	0	0	571	519	0	0	0	0	
15	0	0	0	0	559	508	0	0	0	0	
0	0	0	0	0	546	497	0	0	0	0	
1	0	0	0	0	534	485	0	0	0	0	
2	0	0	0	0	523	474	0	0	0	0	
3	0	0	0	0	513	464	0	0	0	0	
4	0	0	0	0	504	455	0	0	0	0	
5	0	0	0	0	498	448	0	0	0	0	
6	0	0	0	0	494	443	0	0	0	0	
7	0	0	0	0	491	440	0	0	0	0	
8	0	0	0	0	490	438	0	0	0	0	
9	0	0	0	0	491	438	0	0	0	0	
10	0	0	0	0	492	440	0	0	0	0	
11	0	0	0	0	497	443	0	0	0	0	
12	0	0	0	0	502	448	0	0	0	0	
13	0	0	0	0	508	454	0	0	0	0	
14	0	0	0	0	515	460	0	0	0	0	
15	0	0	0	0	523	468	0	0	0	0	
0	0	0	0	0	532	476	0	0	0	0	
1	0	0	0	0	542	486	0	0	0	0	
2	0	0	0	0	552	495	0	0	0	0	
3	0	0	0	0	562	503	0	0	0	0	
4	0	0	0	0	571	511	0	0	0	0	
5	0	0	0	0	579	517	0	0	0	0	
6	0	0	0	0	585	521	0	0	0	0	
7	0	0	0	0	588	523	0	0	0	0	
8	0	0	0	0	588	523	0	0	0	0	
9	0	0	0	0	585	520	0	0	0	0	
10	0	0	0	0	580	516	0	0	0	0	
11	0	0	0	0	572	510	0	0	0	0	
12	0	0	0	0	563	503	0	0	0	0	
13	0	0	0	0	553	496	0	0	0	0	
14	0	0	0	0	543	489	0	0	0	0	
15	0	0	0	0	535	483	0	0	0	0	
0	0	0	0	0	527	479	0	0	0	0	
1	0	0	0	0	523	477	0	0	0	0	
2	0	0	0	0	522	476	0	0	0	0	
3	0	0	0	0	523	478	0	0	0	0	
4	0	0	0	0	526	481	0	0	0	0	
5	0	0	0	0	532	486	0	0	0	0	
6	0	0	0	0	539	491	0	0	0	0	
7	0	0	0	0	547	496	0	0	0	0	
8	0	0	0	0	555	502	0	0	0	0	
9	0	0	0	0	561	505	0	0	0	0	
10	0	0	0	0	567	508	0	0	0	0	
11	0	0	0	0	569	508	0	0	0	0	
12	0	0	0	0	569	507	0	0	0	0	
13	0	0	0	0	568	504	0	0	0	0	
14	0	0	0	0	565	500	0	0	0	0	
15	0	0	0	0	561	495	0	0	0	0	
0	0	0	0	0	556	491	0	0	0	0	
1	0	0	0	0	551	488	0	0	0	0	
2	0	0	0	0	547	485	0	0	0	0	
3	0	0	0	0	542	483	0	0	0	0	
4	0	0	0	0	540	483	0	0	0	0	
5	0	0	0	0	537	483	0	0	0	0	
6	0	0	0	0	536	483	0	0	0	0	
7	0	0	0	0	535	484	0	0	0	0	
8	0	0	0	0	535	485	0	0	0	0	
9	0	0	0	0	536	487	0	0	0	0	
10	0	0	0	0	539	489	0	0	0	0	
11	0	0	0	0	544	492	0	0	0	0	
12	0	0	0	0	550	497	0	0	0	0	
13	0	0	0	0	556	501	0	0	0	0	
14	0	0	0	0	564	505	0	0	0	0	
15	0	0	0	0	570	509	0	0	0	0	
0	0	0	0	0	575	511	0	0	0	0	
1	0	0	0	0	576	510	0	0	0	0	
2	0	0	0	0	575	507	0	0	0	0	
3	0	0	0	0	570	501	0	0	0	0	
4	0	0	0	0	561	493	0	0	0	0	
5	0	0	0	0	551	483	0	0	0	0	
6	0	0	0	0	538	472	0	0	0	0	
7	0	0	0	0	525	462	0	0	0	0	
8	0	0	0	0	513	454	0	0	0	0	
9	0	0	0	0	502	446	0	0	0	0	
10	0	0	0	0	494	441	0	0	0	0	
11	0	0	0	0	489	439	0	0	0	0	
12	0	0	0	0	487	439	0	0	0	0	
13	0	0	0	0	490	442	0	0	0	0	
14	0	0	0	0	496	448	0	0	0	0	
15	0	0	0	0	506	455	0	0	0	0	
0	0	0	0	0	518	464	0	0	0	0	
1	0	0	0	0	531	474	0	0	0	0	
2	0	0	0	0	545	484	0	0	0	0	
3	0	0	0	0	558	493	0	0	0	0	
4	0	0	0	0	568	499	0	0	0	0	
5	0	0	0	0	574	503	0	0	0	0	
6	0	0	0	0	576	505	0	0	0	0	
7	0	0	0	0	575	504	0	0	0	0	
8	0	0	0	0	571	501	0	0	0	0	
9	0	0	0	0	563	496	0	0	0	0	
10	0	0	0	0	555	491	0	0	0	0	
11	0	0	0	0	545	486	0	0	0	0	
12	0	0	0	0	537	481	0	0	0	0	
13	0	0	0	0	529	477	0	0	0	0	
14	0	0	0	0	523	474	0	0	0	0	
15	0	0	0	0	518	472	0	0	0	0	
0	0	0	0	0	515	471	0	0	0	0	
1	0	0	0	0	514	470	0	0	0	0	
2	0	0	0	0	515	470	0	0	0	0	
3	0	0	0	0	516	470	0	0	0	0	
4	0	0	0	0	520	471	0	0	0	0	
5	0	0	0	0	523	472	0	0	0	0	
6	0	0	0	0	528	473	0	0	0	0	
7	0	0	0	0	533	475	0	0	0	0	
8	0	0	0	0	539	477	0	0	0	0	
9	0	0	0	0	545	480	0	0	0	0	
10	0	0	0	0	551	484	0	0	0	0	
11	0	0	0	0	559	489	0	0	0	0	
12	0	0	0	0	567	495	0	0	0	0	
13	0	0	0	0	575	502	0	0	0	0	
14	0	0	0	0	582	508	0	0	0	0	
15	0	0	0	0	589	516	0	0	0	0	
0	0	0	0	0	595	524	0	0	0	0	
1	0	0	0	0	603	532	0	0	0	0	
2	0	0	0	0	609	541	0	0	0	0	
3	0	0	0	0	613	549	0	0	0	0	
4	0	0	0	0	615	554	0	0	0	0	
5	0	0	0	0	616	558	0	0	0	0	
6	0	0	0	0	612	557	0	0	0	0	
7	0	0	0	0	604	552	0	0	0	0	
8	0	0	0	0	593	543	0	0	0	0	
9	0	0	0	0	578	530	0	0	0	0	
10	0	0	0	0	561	513	0	0	0	0	
11	0	0	0	0	543	496	0	0	0	0	
12	0	0	0	0	524	477	0	0	0	0	
13	0	0	0	0	506	460	0	0	0	0	
14	0	0	0	0	490	444	0	0	0	0	
15	0	0	0	0	478	431	0	0	0	0	
0	0	0	0	0	470	422	0	0	0	0	
1	0	0	0	0	464	415	0	0	0	0	
2	0	0	0	0	463	412	0	0	0	0	
3	0	0	0	0	465	414	0	0	0	0	
4	0	0	0	0	472	417	0	0	0	0	
5	0	0	0	0	479	423	0	0	0	0	
6	0	0	0	0	489	431	0	0	0	0	
7	0	0	0	0	499	439	0	0	0	0	
8	0	0	0	0	509	447	0	0	0	0	
9	0	0	0	0	519	455	0	0	0	0	
10	0	0	0	0	528	463	0	0	0	0	
11	0	0	0	0	535	469	0	0	0	0	
12	0	0	0	0	540	472	0	0	0	0	
13	0	0	0	0	541	474	0	0	0	0	
14	0	0	0	0	541	473	0	0	0	0	
15	0	0	0	0	537	470	0	0	0	0	
0	0	0	0	0	532	466	0	0	0	0	
1	0	0	0	0	526	461	0	0	0	0	
2	0	0	0	0	520	456	0	0	0	0	
3	0	0	0	0	514	453	0	0	0	0	
4	0	0	0	0	510	450	0	0	0	0	
5	0	0	0	0	507	449	0	0	0	0	
6	0	0	0	0	505	450	0	0	0	0	
7	0	0	0	0	507	452	0	0	0	0	
8	0	0	0	0	510	457	0	0	0	0	
9	0	0	0	0	515	462	0	0	0	0	
10	0	0	0	0	523	470	0	0	0	0	
11	0	0	0	0	531	477	0	0	0	0	
12	0	0	0	0	540	485	0	0	0	0	
13	0	0	0	0	550	492	0	0	0	0	
14	0	0	0	0	558	499	0	0	0	0	
15	0	0	0	0	566	504	0	0	0	0	
0	0	0	0	0	572	509	0	0	0	0	
1	0	0	0	0	577	512	0	0	0	0	
2	0	0	0	0	582	515	0	0	0	0	
3	0	0	0	0	583	516	0	0	0	0	
4	0	0	0	0	584	516	0	0	0	0	
5	0	0	0	0	581	514	0	0	0	0	
6	0	0	0	0	575	510	0	0	0	0	
7	0	0	0	0	568	504	0	0	0	0	
8	0	0	0	0	560	498	0	0	0	0	
9	0	0	0	0	551	492	0	0	0	0	
10	0	0	0	0	542	487	0	0	0	0	
11	0	0	0	0	536	483	0	0	0	0	
12	0	0	0	0	532	481	0	0	0	0	
13	0	0	0	0	529	480	0	0	0	0	
14	0	0	0	0	528	480	0	0	0	0	
15	0	0	0	0	527	480	0	0	0	0	
0	0	0	0	0	527	479	0	0	0	0	
1	0	0	0	0	528	478	0	0	0	0	
2	0	0	0	0	529	478	0	0	0	0	
3	0	0	0	0	529	477	0	0	0	0	
4	0	0	0	0	531	476	0	0	0	0	
5	0	0	0	0	534	476	0	0	0	0	
6	0	0	0	0	537	478	0	0	0	0	
7	0	0	0	0	542	481	0	0	0	0	
8	0	0	0	0	548	486	0	0	0	0	
9	0	0	0	0	557	493	0	0	0	0	
10	0	0	0	0	567	503	0	0	0	0	
11	0	0	0	0	579	513	0	0	0	0	
12	0	0	0	0	589	524	0	0	0	0	
13	0	0	0	0	598	534	0	0	0	0	
14	0	0	0	0	604	540	0	0	0	0	
15	0	0	0	0	605	544	0	0	0	0	
0	0	0	0	0	603	544	0	0	0	0	
1	0	0	0	0	597	541	0	0	0	0	
2	0	0	0	0	588	536	0	0	0	0	
3	0	0	0	0	578	529	0	0	0	0	
4	0	0	0	0	568	522	0	0	0	0	
5	0	0	0	0	557	514	0	0	0	0	
6	0	0	0	0	547	505	0	0	0	0	
7	0	0	0	0	540	498	0	0	0	0	
8	0	0	0	0	534	491	0	0	0	0	
9	0	0	0	0	530	486	0	0	0	0	
10	0	0	0	0	527	480	0	0	0	0	
11	0	0	0	0	526	475	0	0	0	0	
12	0	0	0	0	525	471	0	0	0	0	
13	0	0	0	0	524	468	0	0	0	0	
14	0	0	0	0	526	466	0	0	0	0	
15	0	0	0	0	527	466	0	0	0	0	
0	0	0	0	0	529	466	0	0	0	0	
1	0	0	0	0	530	466	0	0	0	0	
2	0	0	0	0	530	466	0	0	0	0	
3	0	0	0	0	529	465	0	0	0	0	
4	0	0	0	0	526	464	0	0	0	0	
5	0	0	0	0	521	462	0	0	0	0	
6	0	0	0	0	516	460	0	0	0	0	
7	0	0	0	0	512	458	0	0	0	0	
8	0	0	0	0	508	457	0	0	0	0	
9	0	0	0	0	505	455	0	0	0	0	
10	0	0	0	0	503	455	0	0	0	0	
11	0	0	0	0	503	455	0	0	0	0	
12	0	0	0	0	504	455	0	0	0	0	
13	0	0	0	0	506	456	0	0	0	0	
14	0	0	0	0	510	457	0	0	0	0	
15	0	0	0	0	514	458	0	0	0	0	
0	0	0	0	0	518	459	0	0	0	0	
1	0	0	0	0	521	459	0	0	0	0	
2	0	0	0	0	525	460	0	0	0	0	
3	0	0	0	0	527	462	0	0	0	0	
4	0	0	0	0	530	463	0	0	0	0	
5	0	0	0	0	532	465	0	0	0	0	
6	0	0	0	0	533	467	0	0	0	0	
7	0	0	0	0	534	469	0	0	0	0	
8	0	0	0	0	535	472	0	0	0	0	
9	0	0	0	0	535	475	0	0	0	0	
10	0	0	0	0	535	477	0	0	0	0	
11	0	0	0	0	535	479	0	0	0	0	
12	0	0	0	0	535	481	0	0	0	0	
13	0	0	0	0	535	482	0	0	0	0	
14	0	0	0	0	535	483	0	0	0	0	
15	0	0	0	0	535	483	0	0	0	0	
0	0	0	0	0	536	483	0	0	0	0	
1	0	0	0	0	536	483	0	0	0	0	
2	0	0	0	0	537	483	0	0	0	0	
3	0	0	0	0	540	484	0	0	0	0	
4	0	0	0	0	542	484	0	0	0	0	
5	0	0	0	0	544	485	0	0	0	0	
6	0	0	0	0	549	488	0	0	0	0	
7	0	0	0	0	554	491	0	0	0	0	
8	0	0	0	0	559	495	0	0	0	0	
9	0	0	0	0	565	500	0	0	0	0	
10	0	0	0	0	569	504	0	0	0	0	
11	0	0	0	0	574	509	0	0	0	0	
12	0	0	0	0	576	514	0	0	0	0	
13	0	0	0	0	577	517	0	0	0	0	
14	0	0	0	0	577	519	0	0	0	0	
15	0	0	0	0	575	519	0	0	0	0	
0	0	0	0	0	571	518	0	0	0	0	
1	0	0	0	0	566	515	0	0	0	0	
2	0	0	0	0	560	512	0	0	0	0	
3	0	0	0	0	555	508	0	0	0	0	
4	0	0	0	0	551	504	0	0	0	0	
5	0	0	0	0	548	501	0	0	0	0	
6	0	0	0	0	547	499	0	0	0	0	
7	0	0	0	0	547	497	0	0	0	0	
8	0	0	0	0	548	496	0	0	0	0	
9	0	0	0	0	549	495	0	0	0	0	
10	0	0	0	0	551	495	0	0	0	0	
11	0	0	0	0	552	497	0	0	0	0	
12	0	0	0	0	555	499	0	0	0	0	
13	0	0	0	0	557	500	0	0	0	0	
14	0	0	0	0	558	502	0	0	0	0	
15	0	0	0	0	559	504	0	0	0	0	
0	0	0	0	0	560	506	0	0	0	0	
1	0	0	0	0	559	506	0	0	0	0	
2	0	0	0	0	558	506	0	0	0	0	
3	0	0	0	0	555	504	0	0	0	0	
4	0	0	0	0	551	500	0	0	0	0	
5	0	0	0	0	547	496	0	0	0	0	
6	0	0	0	0	543	491	0	0	0	0	
7	0	0	0	0	538	485	0	0	0	0	
8	0	0	0	0	532	478	0	0	0	0	
9	0	0	0	0	527	472	0	0	0	0	
10	0	0	0	0	522	465	0	0	0	0	
11	0	0	0	0	517	460	0	0	0	0	
12	0	0	0	0	513	455	0	0	0	0	
13	0	0	0	0	510	452	0	0	0	0	
14	0	0	0	0	508	449	0	0	0	0	
15	0	0	0	0	507	448	0	0	0	0	
0	0	0	0	0	507	448	0	0	0	0	
1	0	0	0	0	508	450	0	0	0	0	
2	0	0	0	0	511	453	0	0	0	0	
3	0	0	0	0	515	458	0	0	0	0	
4	0	0	0	0	522	465	0	0	0	0	
5	0	0	0	0	529	472	0	0	0	0	
6	0	0	0	0	537	480	0	0	0	0	
7	0	0	0	0	543	487	0	0	0	0	
8	0	0	0	0	550	494	0	0	0	0	
9	0	0	0	0	556	499	0	0	0	0	
10	0	0	0	0	560	504	0	0	0	0	
11	0	0	0	0	562	505	0	0	0	0	
12	0	0	0	0	562	505	0	0	0	0	
13	0	0	0	0	558	501	0	0	0	0	
14	0	0	0	0	551	495	0	0	0	0	
15	0	0	0	0	541	485	0	0	0	0	
0	0	0	0	0	528	473	0	0	0	0	
1	0	0	0	0	512	459	0	0	0	0	
2	0	0	0	0	497	445	0	0	0	0	
3	0	0	0	0	481	432	0	0	0	0	
4	0	0	0	0	466	419	0	0	0	0	
5	0	0	0	0	452	407	0	0	0	0	
6	0	0	0	0	440	397	0	0	0	0	
7	0	0	0	0	431	389	0	0	0	0	
8	0	0	0	0	423	382	0	0	0	0	
9	0	0	0	0	418	376	0	0	0	0	
10	0	0	0	0	414	372	0	0	0	0	
11	0	0	0	0	412	368	0	0	0	0	
12	0	0	0	0	409	365	0	0	0	0	
13	0	0	0	0	407	361	0	0	0	0	
14	0	0	0	0	404	356	0	0	0	0	
15	0	0	0	0	399	349	0	0	0	0	
0	0	0	0	0	393	341	0	0	0	0	
1	0	0	0	0	384	331	0	0	0	0	
2	0	0	0	0	374	319	0	0	0	0	
3	0	0	0	0	361	307	0	0	0	0	
4	0	0	0	0	348	294	0	0	0	0	
5	0	0	0	0	334	280	0	0	0	0	
6	0	0	0	0	321	269	0	0	0	0	
7	0	0	0	0	312	260	0	0	0	0	
8	0	0	0	0	306	255	0	0	0	0	
9	0	0	0	0	305	255	0	0	0	0	
10	0	0	0	0	310	259	0	0	0	0	
11	0	0	0	0	320	269	0	0	0	0	
12	0	0	0	0	336	283	0	0	0	0	
13	0	0	0	0	356	302	0	0	0	0	
14	0	0	0	0	380	323	0	0	0	0	
15	0	0	0	0	407	345	0	0	0	0	
0	0	0	0	0	435	369	0	0	0	0	
1	0	0	0	0	462	393	0	0	0	0	
2	0	0	0	0	488	416	0	0	0	0	
3	0	0	0	0	512	437	0	0	0	0	
4	0	0	0	0	532	455	0	0	0	0	
5	0	0	0	0	549	470	0	0	0	0	
6	0	0	0	0	562	482	0	0	0	0	
7	0	0	0	0	572	491	0	0	0	0	
8	0	0	0	0	577	498	0	0	0	0	
9	0	0	0	0	580	502	0	0	0	0	
10	0	0	0	0	581	504	0	0	0	0	
11	0	0	0	0	580	506	0	0	0	0	
12	0	0	0	0	579	507	0	0	0	0	
13	0	0	0	0	577	508	0	0	0	0	
14	0	0	0	0	576	509	0	0	0	0	
15	0	0	0	0	575	511	0	0	0	0	
0	0	0	0	0	575	512	0	0	0	0	
1	0	0	0	0	574	513	0	0	0	0	
2	0	0	0	0	573	514	0	0	0	0	
3	0	0	0	0	572	515	0	0	0	0	
4	0	0	0	0	570	515	0	0	0	0	
5	0	0	0	0	568	514	0	0	0	0	
6	0	0	0	0	565	512	0	0	0	0	
7	0	0	0	0	563	510	0	0	0	0	
8	0	0	0	0	559	507	0	0	0	0	
9	0	0	0	0	555	503	0	0	0	0	
10	0	0	0	0	551	499	0	0	0	0	
11	0	0	0	0	547	494	0	0	0	0	
12	0	0	0	0	544	490	0	0	0	0	
13	0	0	0	0	542	487	0	0	0	0	
14	0	0	0	0	541	487	0	0	0	0	
15	0	0	0	0	544	488	0	0	0	0	
0	0	0	0	0	550	493	0	0	0	0	
1	0	0	0	0	556	499	0	0	0	0	
2	0	0	0	0	563	506	0	0	0	0	
3	0	0	0	0	570	512	0	0	0	0	
4	0	0	0	0	575	519	0	0	0	0	
5	0	0	0	0	580	524	0	0	0	0	
6	0	0	0	0	583	528	0	0	0	0	
7	0	0	0	0	585	530	0	0	0	0	
8	0	0	0	0	584	531	0	0	0	0	
9	0	0	0	0	580	528	0	0	0	0	
10	0	0	0	0	574	523	0	0	0	0	
11	0	0	0	0	564	515	0	0	0	0	
12	0	0	0	0	553	505	0	0	0	0	
13	0	0	0	0	541	494	0	0	0	0	
14	0	0	0	0	529	483	0	0	0	0	
15	0	0	0	0	519	473	0	0	0	0	
0	0	0	0	0	512	466	0	0	0	0	
1	0	0	0	0	508	463	0	0	0	0	
2	0	0	0	0	510	463	0	0	0	0	
3	0	0	0	0	515	466	0	0	0	0	
4	0	0	0	0	524	472	0	0	0	0	
5	0	0	0	0	536	482	0	0	0	0	
6	0	0	0	0	550	493	0	0	0	0	
7	0	0	0	0	564	505	0	0	0	0	
8	0	0	0	0	580	518	0	0	0	0	
9	0	0	0	0	595	531	0	0	0	0	
10	0	0	0	0	606	540	0	0	0	0	
11	0	0	0	0	614	547	0	0	0	0	
12	0	0	0	0	617	551	0	0	0	0	
13	0	0	0	0	618	551	0	0	0	0	
14	0	0	0	0	613	549	0	0	0	0	
15	0	0	0	0	605	543	0	0	0	0	
0	0	0	0	0	593	536	0	0	0	0	
1	0	0	0	0	580	526	0	0	0	0	
2	0	0	0	0	567	516	0	0	0	0	
3	0	0	0	0	553	507	0	0	0	0	
4	0	0	0	0	542	498	0	0	0	0	
5	0	0	0	0	532	492	0	0	0	0	
6	0	0	0	0	526	486	0	0	0	0	
7	0	0	0	0	523	483	0	0	0	0	
8	0	0	0	0	523	482	0	0	0	0	
9	0	0	0	0	526	483	0	0	0	0	
10	0	0	0	0	532	485	0	0	0	0	
11	0	0	0	0	540	489	0	0	0	0	
12	0	0	0	0	550	496	0	0	0	0	
13	0	0	0	0	560	502	0	0	0	0	
14	0	0	0	0	569	508	0	0	0	0	
15	0	0	0	0	575	513	0	0	0	0	
0	0	0	0	0	579	515	0	0	0	0	
1	0	0	0	0	579	515	0	0	0	0	
2	0	0	0	0	575	513	0	0	0	0	
3	0	0	0	0	570	510	0	0	0	0	
4	0	0	0	0	563	505	0	0	0	0	
5	0	0	0	0	556	502	0	0	0	0	
6	0	0	0	0	549	498	0	0	0	0	
7	0	0	0	0	544	495	0	0	0	0	
8	0	0	0	0	541	494	0	0	0	0	
9	0	0	0	0	540	494	0	0	0	0	
10	0	0	0	0	540	495	0	0	0	0	
11	0	0	0	0	544	497	0	0	0	0	
12	0	0	0	0	548	499	0	0	0	0	
13	0	0	0	0	552	501	0	0	0	0	
14	0	0	0	0	556	502	0	0	0	0	
15	0	0	0	0	559	503	0	0	0	0	
0	0	0	0	0	560	503	0	0	0	0	
1	0	0	0	0	560	503	0	0	0	0	
2	0	0	0	0	560	502	0	0	0	0	
3	0	0	0	0	559	501	0	0	0	0	
4	0	0	0	0	556	500	0	0	0	0	
5	0	0	0	0	555	500	0	0	0	0	
6	0	0	0	0	553	500	0	0	0	0	
7	0	0	0	0	551	500	0	0	0	0	
8	0	0	0	0	550	500	0	0	0	0	
9	0	0	0	0	550	500	0	0	0	0	
10	0	0	0	0	550	500	0	0	0	0	
11	0	0	0	0	550	499	0	0	0	0	
12	0	0	0	0	550	499	0	0	0	0	
13	0	0	0	0	549	498	0	0	0	0	
14	0	0	0	0	549	497	0	0	0	0	
15	0	0	0	0	550	497	0	0	0	0	
0	0	0	0	0	551	497	0	0	0	0	
1	0	0	0	0	552	498	0	0	0	0	
2	0	0	0	0	554	499	0	0	0	0	
3	0	0	0	0	557	503	0	0	0	0	
4	0	0	0	0	560	506	0	0	0	0	
5	0	0	0	0	563	509	0	0	0	0	
6	0	0	0	0	567	512	0	0	0	0	
7	0	0	0	0	568	515	0	0	0	0	
8	0	0	0	0	569	517	0	0	0	0	
9	0	0	0	0	569	517	0	0	0	0	
10	0	0	0	0	567	515	0	0	0	0	
11	0	0	0	0	563	512	0	0	0	0	
12	0	0	0	0	559	509	0	0	0	0	
13	0	0	0	0	556	505	0	0	0	0	
14	0	0	0	0	553	503	0	0	0	0	
15	0	0	0	0	553	502	0	0	0	0	
0	0	0	0	0	555	503	0	0	0	0	
1	0	0	0	0	559	505	0	0	0	0	
2	0	0	0	0	565	511	0	0	0	0	
3	0	0	0	0	574	517	0	0	0	0	
4	0	0	0	0	583	524	0	0	0	0	
5	0	0	0	0	592	532	0	0	0	0	
6	0	0	0	0	600	539	0	0	0	0	
7	0	0	0	0	605	544	0	0	0	0	
8	0	0	0	0	608	548	0	0	0	0	
9	0	0	0	0	608	549	0	0	0	0	
10	0	0	0	0	607	549	0	0	0	0	
11	0	0	0	0	602	547	0	0	0	0	
12	0	0	0	0	596	543	0	0	0	0	
13	0	0	0	0	591	539	0	0	0	0	
14	0	0	0	0	583	534	0	0	0	0	
15	0	0	0	0	575	527	0	0	0	0	
0	0	0	0	0	568	521	0	0	0	0	
1	0	0	0	0	560	514	0	0	0	0	
2	0	0	0	0	552	506	0	0	0	0	
3	0	0	0	0	543	497	0	0	0	0	
4	0	0	0	0	534	487	0	0	0	0	
5	0	0	0	0	524	476	0	0	0	0	
6	0	0	0	0	512	465	0	0	0	0	
7	0	0	0	0	503	455	0	0	0	0	
8	0	0	0	0	495	447	0	0	0	0	
9	0	0	0	0	488	441	0	0	0	0	
10	0	0	0	0	485	438	0	0	0	0	
11	0	0	0	0	487	439	0	0	0	0	
12	0	0	0	0	492	443	0	0	0	0	
13	0	0	0	0	500	450	0	0	0	0	
14	0	0	0	0	511	460	0	0	0	0	
15	0	0	0	0	524	470	0	0	0	0	
0	0	0	0	0	540	482	0	0	0	0	
1	0	0	0	0	554	494	0	0	0	0	
2	0	0	0	0	568	504	0	0	0	0	
3	0	0	0	0	579	512	0	0	0	0	
4	0	0	0	0	586	517	0	0	0	0	
5	0	0	0	0	590	519	0	0	0	0	
6	0	0	0	0	588	516	0	0	0	0	
7	0	0	0	0	581	511	0	0	0	0	
8	0	0	0	0	571	503	0	0	0	0	
9	0	0	0	0	558	494	0	0	0	0	
10	0	0	0	0	544	485	0	0	0	0	
11	0	0	0	0	531	476	0	0	0	0	
12	0	0	0	0	520	470	0	0	0	0	
13	0	0	0	0	512	466	0	0	0	0	
14	0	0	0	0	507	464	0	0	0	0	
15	0	0	0	0	505	465	0	0	0	0	
0	0	0	0	0	506	468	0	0	0	0	
1	0	0	0	0	510	472	0	0	0	0	
2	0	0	0	0	515	477	0	0	0	0	
3	0	0	0	0	521	481	0	0	0	0	
4	0	0	0	0	527	486	0	0	0	0	
5	0	0	0	0	535	491	0	0	0	0	
6	0	0	0	0	542	494	0	0	0	0	
7	0	0	0	0	547	496	0	0	0	0	
8	0	0	0	0	551	498	0	0	0	0	
9	0	0	0	0	555	499	0	0	0	0	
10	0	0	0	0	557	499	0	0	0	0	
11	0	0	0	0	558	498	0	0	0	0	
12	0	0	0	0	559	497	0	0	0	0	
13	0	0	0	0	559	497	0	0	0	0	
14	0	0	0	0	557	496	0	0	0	0	
15	0	0	0	0	557	496	0	0	0	0	
0	0	0	0	0	556	496	0	0	0	0	
1	0	0	0	0	554	496	0	0	0	0	
2	0	0	0	0	552	497	0	0	0	0	
3	0	0	0	0	552	498	0	0	0	0	
4	0	0	0	0	551	499	0	0	0	0	
5	0	0	0	0	551	500	0	0	0	0	
6	0	0	0	0	552	502	0	0	0	0	
7	0	0	0	0	555	504	0	0	0	0	
8	0	0	0	0	558	508	0	0	0	0	
9	0	0	0	0	562	511	0	0	0	0	
10	0	0	0	0	567	515	0	0	0	0	
11	0	0	0	0	573	520	0	0	0	0	
12	0	0	0	0	579	525	0	0	0	0	
13	0	0	0	0	584	529	0	0	0	0	
14	0	0	0	0	588	532	0	0	0	0	
15	0	0	0	0	591	533	0	0	0	0	
0	0	0	0	0	590	531	0	0	0	0	
1	0	0	0	0	586	528	0	0	0	0	
2	0	0	0	0	580	523	0	0	0	0	
3	0	0	0	0	573	516	0	0	0	0	
4	0	0	0	0	564	508	0	0	0	0	
5	0	0	0	0	555	500	0	0	0	0	
6	0	0	0	0	546	493	0	0	0	0	
7	0	0	0	0	538	487	0	0	0	0	
8	0	0	0	0	533	483	0	0	0	0	
9	0	0	0	0	531	483	0	0	0	0	
10	0	0	0	0	532	483	0	0	0	0	
11	0	0	0	0	535	486	0	0	0	0	
12	0	0	0	0	538	488	0	0	0	0	
13	0	0	0	0	543	492	0	0	0	0	
14	0	0	0	0	547	495	0	0	0	0	
15	0	0	0	0	550	497	0	0	0	0	
0	0	0	0	0	552	498	0	0	0	0	
1	0	0	0	0	554	499	0	0	0	0	
2	0	0	0	0	553	497	0	0	0	0	
3	0	0	0	0	551	494	0	0	0	0	
4	0	0	0	0	547	489	0	0	0	0	
5	0	0	0	0	541	483	0	0	0	0	
6	0	0	0	0	535	477	0	0	0	0	
7	0	0	0	0	528	471	0	0	0	0	
8	0	0	0	0	522	466	0	0	0	0	
9	0	0	0	0	517	462	0	0	0	0	
10	0	0	0	0	513	459	0	0	0	0	
11	0	0	0	0	512	459	0	0	0	0	
12	0	0	0	0	513	460	0	0	0	0	
13	0	0	0	0	516	463	0	0	0	0	
14	0	0	0	0	521	468	0	0	0	0	
15	0	0	0	0	526	473	0	0	0	0	
0	0	0	0	0	532	478	0	0	0	0	
1	0	0	0	0	537	483	0	0	0	0	
2	0	0	0	0	541	486	0	0	0	0	
3	0	0	0	0	544	488	0	0	0	0	
4	0	0	0	0	546	490	0	0	0	0	
5	0	0	0	0	548	490	0	0	0	0	
6	0	0	0	0	549	490	0	0	0	0	
7	0	0	0	0	548	488	0	0	0	0	
8	0	0	0	0	547	487	0	0	0	0	
9	0	0	0	0	544	484	0	0	0	0	
10	0	0	0	0	542	481	0	0	0	0	
11	0	0	0	0	540	479	0	0	0	0	
12	0	0	0	0	537	478	0	0	0	0	
13	0	0	0	0	536	477	0	0	0	0	
14	0	0	0	0	535	478	0	0	0	0	
15	0	0	0	0	535	480	0	0	0	0	
0	0	0	0	0	536	482	0	0	0	0	
1	0	0	0	0	538	486	0	0	0	0	
2	0	0	0	0	540	490	0	0	0	0	
3	0	0	0	0	544	495	0	0	0	0	
4	0	0	0	0	550	501	0	0	0	0	
5	0	0	0	0	556	508	0	0	0	0	
6	0	0	0	0	563	514	0	0	0	0	
7	0	0	0	0	569	520	0	0	0	0	
8	0	0	0	0	574	524	0	0	0	0	
9	0	0	0	0	578	527	0	0	0	0	
10	0	0	0	0	580	527	0	0	0	0	
11	0	0	0	0	580	526	0	0	0	0	
12	0	0	0	0	578	523	0	0	0	0	
13	0	0	0	0	573	518	0	0	0	0	
14	0	0	0	0	567	512	0	0	0	0	
15	0	0	0	0	560	505	0	0	0	0	
0	0	0	0	0	551	497	0	0	0	0	
1	0	0	0	0	543	489	0	0	0	0	
2	0	0	0	0	534	481	0	0	0	0	
3	0	0	0	0	525	474	0	0	0	0	
4	0	0	0	0	517	468	0	0	0	0	
5	0	0	0	0	511	463	0	0	0	0	
6	0	0	0	0	507	460	0	0	0	0	
7	0	0	0	0	505	457	0	0	0	0	
8	0	0	0	0	505	457	0	0	0	0	
9	0	0	0	0	506	458	0	0	0	0	
10	0	0	0	0	509	460	0	0	0	0	
11	0	0	0	0	512	462	0	0	0	0	
12	0	0	0	0	515	463	0	0	0	0	
13	0	0	0	0	519	465	0	0	0	0	
14	0	0	0	0	523	467	0	0	0	0	
15	0	0	0	0	526	468	0	0	0	0	
0	0	0	0	0	531	471	0	0	0	0	
1	0	0	0	0	536	473	0	0	0	0	
2	0	0	0	0	541	478	0	0	0	0	
3	0	0	0	0	548	483	0	0	0	0	
4	0	0	0	0	555	489	0	0	0	0	
5	0	0	0	0	562	496	0	0	0	0	
6	0	0	0	0	567	502	0	0	0	0	
7	0	0	0	0	572	507	0	0	0	0	
8	0	0	0	0	574	511	0	0	0	0	
9	0	0	0	0	575	512	0	0	0	0	
10	0	0	0	0	574	513	0	0	0	0	
11	0	0	0	0	571	512	0	0	0	0	
12	0	0	0	0	566	510	0	0	0	0	
13	0	0	0	0	561	507	0	0	0	0	
14	0	0	0	0	556	504	0	0	0	0	
15	0	0	0	0	550	499	0	0	0	0	
0	0	0	0	0	543	494	0	0	0	0	
1	0	0	0	0	538	489	0	0	0	0	
2	0	0	0	0	533	485	0	0	0	0	
3	0	0	0	0	529	481	0	0	0	0	
4	0	0	0	0	526	478	0	0	0	0	
5	0	0	0	0	524	476	0	0	0	0	
6	0	0	0	0	525	476	0	0	0	0	
7	0	0	0	0	528	477	0	0	0	0	
8	0	0	0	0	532	480	0	0	0	0	
9	0	0	0	0	538	483	0	0	0	0	
10	0	0	0	0	543	487	0	0	0	0	
11	0	0	0	0	548	491	0	0	0	0	
12	0	0	0	0	554	494	0	0	0	0	
13	0	0	0	0	558	497	0	0	0	0	
14	0	0	0	0	560	499	0	0	0	0	
15	0	0	0	0	559	498	0	0	0	0	
0	0	0	0	0	555	495	0	0	0	0	
1	0	0	0	0	550	491	0	0	0	0	
2	0	0	0	0	543	485	0	0	0	0	
3	0	0	0	0	533	478	0	0	0	0	
4	0	0	0	0	524	471	0	0	0	0	
5	0	0	0	0	515	464	0	0	0	0	
6	0	0	0	0	508	459	0	0	0	0	
7	0	0	0	0	503	454	0	0	0	0	
8	0	0	0	0	500	451	0	0	0	0	
9	0	0	0	0	500	451	0	0	0	0	
10	0	0	0	0	502	451	0	0	0	0	
11	0	0	0	0	507	455	0	0	0	0	
12	0	0	0	0	514	460	0	0	0	0	
13	0	0	0	0	523	467	0	0	0	0	
14	0	0	0	0	531	474	0	0	0	0	
15	0	0	0	0	540	482	0	0	0	0	
0	0	0	0	0	548	489	0	0	0	0	
1	0	0	0	0	556	496	0	0	0	0	
2	0	0	0	0	562	503	0	0	0	0	
3	0	0	0	0	567	508	0	0	0	0	
4	0	0	0	0	570	512	0	0	0	0	
5	0	0	0	0	572	513	0	0	0	0	
6	0	0	0	0	571	513	0	0	0	0	
7	0	0	0	0	568	511	0	0	0	0	
8	0	0	0	0	563	506	0	0	0	0	
9	0	0	0	0	555	500	0	0	0	0	
10	0	0	0	0	547	492	0	0	0	0	
11	0	0	0	0	538	483	0	0	0	0	
12	0	0	0	0	529	475	0	0	0	0	
13	0	0	0	0	522	467	0	0	0	0	
14	0	0	0	0	516	463	0	0	0	0	
15	0	0	0	0	514	460	0	0	0	0	
0	0	0	0	0	513	459	0	0	0	0	
1	0	0	0	0	514	459	0	0	0	0	
2	0	0	0	0	517	461	0	0	0	0	
3	0	0	0	0	522	465	0	0	0	0	
4	0	0	0	0	529	470	0	0	0	0	
5	0	0	0	0	535	475	0	0	0	0	
6	0	0	0	0	542	480	0	0	0	0	
7	0	0	0	0	547	484	0	0	0	0	
8	0	0	0	0	551	487	0	0	0	0	
9	0	0	0	0	552	487	0	0	0	0	
10	0	0	0	0	551	486	0	0	0	0	
11	0	0	0	0	547	483	0	0	0	0	
12	0	0	0	0	541	477	0	0	0	0	
13	0	0	0	0	532	471	0	0	0	0	
14	0	0	0	0	523	463	0	0	0	0	
15	0	0	0	0	513	455	0	0	0	0	
0	0	0	0	0	504	448	0	0	0	0	
1	0	0	0	0	496	442	0	0	0	0	
2	0	0	0	0	489	437	0	0	0	0	
3	0	0	0	0	486	434	0	0	0	0	
4	0	0	0	0	486	434	0	0	0	0	
5	0	0	0	0	488	436	0	0	0	0	
6	0	0	0	0	493	440	0	0	0	0	
7	0	0	0	0	500	445	0	0	0	0	
8	0	0	0	0	509	452	0	0	0	0	
9	0	0	0	0	517	459	0	0	0	0	
10	0	0	0	0	526	466	0	0	0	0	
11	0	0	0	0	534	472	0	0	0	0	
12	0	0	0	0	540	478	0	0	0	0	
13	0	0	0	0	545	483	0	0	0	0	
14	0	0	0	0	549	486	0	0	0	0	
15	0	0	0	0	552	488	0	0	0	0	
0	0	0	0	0	553	490	0	0	0	0	
1	0	0	0	0	554	492	0	0	0	0	
2	0	0	0	0	554	492	0	0	0	0	
3	0	0	0	0	554	493	0	0	0	0	
4	0	0	0	0	555	494	0	0	0	0	
5	0	0	0	0	555	495	0	0	0	0	
6	0	0	0	0	556	496	0	0	0	0	
7	0	0	0	0	557	497	0	0	0	0	
8	0	0	0	0	558	499	0	0	0	0	
9	0	0	0	0	558	499	0	0	0	0	
10	0	0	0	0	557	498	0	0	0	0	
11	0	0	0	0	553	496	0	0	0	0	
12	0	0	0	0	550	494	0	0	0	0	
13	0	0	0	0	545	491	0	0	0	0	
14	0	0	0	0	540	488	0	0	0	0	
15	0	0	0	0	536	485	0	0	0	0	
0	0	0	0	0	532	483	0	0	0	0	
1	0	0	0	0	530	482	0	0	0	0	
2	0	0	0	0	529	481	0	0	0	0	
3	0	0	0	0	529	481	0	0	0	0	
4	0	0	0	0	529	482	0	0	0	0	
5	0	0	0	0	531	483	0	0	0	0	
6	0	0	0	0	534	484	0	0	0	0	
7	0	0	0	0	536	485	0	0	0	0	
8	0	0	0	0	540	488	0	0	0	0	
9	0	0	0	0	545	492	0	0	0	0	
10	0	0	0	0	551	497	0	0	0	0	
11	0	0	0	0	559	504	0	0	0	0	
12	0	0	0	0	568	511	0	0	0	0	
13	0	0	0	0	578	520	0	0	0	0	
14	0	0	0	0	588	529	0	0	0	0	
15	0	0	0	0	596	537	0	0	0	0	
0	0	0	0	0	603	543	0	0	0	0	
1	0	0	0	0	606	547	0	0	0	0	
2	0	0	0	0	605	547	0	0	0	0	
3	0	0	0	0	600	544	0	0	0	0	
4	0	0	0	0	591	537	0	0	0	0	
5	0	0	0	0	579	527	0	0	0	0	
6	0	0	0	0	566	515	0	0	0	0	
7	0	0	0	0	551	503	0	0	0	0	
8	0	0	0	0	538	491	0	0	0	0	
9	0	0	0	0	526	480	0	0	0	0	
10	0	0	0	0	518	472	0	0	0	0	
11	0	0	0	0	512	465	0	0	0	0	
12	0	0	0	0	510	460	0	0	0	0	
13	0	0	0	0	511	459	0	0	0	0	
14	0	0	0	0	515	461	0	0	0	0	
15	0	0	0	0	524	467	0	0	0	0	
0	0	0	0	0	532	472	0	0	0	0	
1	0	0	0	0	541	478	0	0	0	0	
2	0	0	0	0	547	483	0	0	0	0	
3	0	0	0	0	551	486	0	0	0	0	
4	0	0	0	0	553	487	0	0	0	0	
5	0	0	0	0	551	486	0	0	0	0	
6	0	0	0	0	547	483	0	0	0	0	
7	0	0	0	0	539	477	0	0	0	0	
8	0	0	0	0	531	472	0	0	0	0	
9	0	0	0	0	521	464	0	0	0	0	
10	0	0	0	0	509	455	0	0	0	0	
11	0	0	0	0	497	447	0	0	0	0	
12	0	0	0	0	487	438	0	0	0	0	
13	0	0	0	0	477	430	0	0	0	0	
14	0	0	0	0	469	424	0	0	0	0	
15	0	0	0	0	464	419	0	0	0	0	
0	0	0	0	0	462	416	0	0	0	0	
1	0	0	0	0	463	416	0	0	0	0	
2	0	0	0	0	465	418	0	0	0	0	
3	0	0	0	0	472	423	0	0	0	0	
4	0	0	0	0	479	428	0	0	0	0	
5	0	0	0	0	488	435	0	0	0	0	
6	0	0	0	0	497	442	0	0	0	0	
7	0	0	0	0	507	449	0	0	0	0	
8	0	0	0	0	516	456	0	0	0	0	
9	0	0	0	0	524	463	0	0	0	0	
10	0	0	0	0	532	470	0	0	0	0	
11	0	0	0	0	539	476	0	0	0	0	
12	0	0	0	0	544	482	0	0	0	0	
13	0	0	0	0	550	487	0	0	0	0	
14	0	0	0	0	553	492	0	0	0	0	
15	0	0	0	0	555	494	0	0	0	0	
0	0	0	0	0	555	494	0	0	0	0	
1	0	0	0	0	553	493	0	0	0	0	
2	0	0	0	0	551	491	0	0	0	0	
3	0	0	0	0	547	488	0	0	0	0	
4	0	0	0	0	544	484	0	0	0	0	
5	0	0	0	0	540	480	0	0	0	0	
6	0	0	0	0	535	476	0	0	0	0	
7	0	0	0	0	532	473	0	0	0	0	
8	0	0	0	0	529	471	0	0	0	0	
9	0	0	0	0	529	471	0	0	0	0	
10	0	0	0	0	530	472	0	0	0	0	
11	0	0	0	0	535	476	0	0	0	0	
12	0	0	0	0	541	480	0	0	0	0	
13	0	0	0	0	547	487	0	0	0	0	
14	0	0	0	0	554	492	0	0	0	0	
15	0	0	0	0	560	497	0	0	0	0	
0	0	0	0	0	563	500	0	0	0	0	
1	0	0	0	0	564	502	0	0	0	0	
2	0	0	0	0	562	500	0	0	0	0	
3	0	0	0	0	558	497	0	0	0	0	
4	0	0	0	0	550	492	0	0	0	0	
5	0	0	0	0	541	484	0	0	0	0	
6	0	0	0	0	530	476	0	0	0	0	
7	0	0	0	0	519	468	0	0	0	0	
8	0	0	0	0	509	460	0	0	0	0	
9	0	0	0	0	500	452	0	0	0	0	
10	0	0	0	0	492	446	0	0	0	0	
11	0	0	0	0	487	443	0	0	0	0	
12	0	0	0	0	485	440	0	0	0	0	
13	0	0	0	0	486	441	0	0	0	0	
14	0	0	0	0	490	444	0	0	0	0	
15	0	0	0	0	497	450	0	0	0	0	
0	0	0	0	0	508	458	0	0	0	0	
1	0	0	0	0	522	469	0	0	0	0	
2	0	0	0	0	539	482	0	0	0	0	
3	0	0	0	0	558	497	0	0	0	0	
4	0	0	0	0	576	511	0	0	0	0	
5	0	0	0	0	593	525	0	0	0	0	
6	0	0	0	0	606	534	0	0	0	0	
7	0	0	0	0	611	538	0	0	0	0	
8	0	0	0	0	611	537	0	0	0	0	
9	0	0	0	0	604	532	0	0	0	0	
10	0	0	0	0	593	522	0	0	0	0	
11	0	0	0	0	576	509	0	0	0	0	
12	0	0	0	0	556	494	0	0	0	0	
13	0	0	0	0	536	478	0	0	0	0	
14	0	0	0	0	515	463	0	0	0	0	
15	0	0	0	0	496	449	0	0	0	0	
0	0	0	0	0	480	437	0	0	0	0	
1	0	0	0	0	466	427	0	0	0	0	
2	0	0	0	0	456	420	0	0	0	0	
3	0	0	0	0	449	415	0	0	0	0	
4	0	0	0	0	445	411	0	0	0	0	
5	0	0	0	0	442	408	0	0	0	0	
6	0	0	0	0	441	406	0	0	0	0	
7	0	0	0	0	440	403	0	0	0	0	
8	0	0	0	0	440	400	0	0	0	0	
9	0	0	0	0	439	396	0	0	0	0	
10	0	0	0	0	437	391	0	0	0	0	
11	0	0	0	0	435	386	0	0	0	0	
12	0	0	0	0	432	380	0	0	0	0	
13	0	0	0	0	428	374	0	0	0	0	
14	0	0	0	0	424	367	0	0	0	0	
15	0	0	0	0	419	360	0	0	0	0	
0	0	0	0	0	414	353	0	0	0	0	
1	0	0	0	0	407	345	0	0	0	0	
2	0	0	0	0	399	337	0	0	0	0	
3	0	0	0	0	392	330	0	0	0	0	
4	0	0	0	0	385	323	0	0	0	0	
5	0	0	0	0	378	317	0	0	0	0	
6	0	0	0	0	370	311	0	0	0	0	
7	0	0	0	0	362	304	0	0	0	0	
8	0	0	0	0	353	297	0	0	0	0	
9	0	0	0	0	345	290	0	0	0	0	
10	0	0	0	0	337	284	0	0	0	0	
11	0	0	0	0	330	279	0	0	0	0	
12	0	0	0	0	324	275	0	0	0	0	
13	0	0	0	0	323	275	0	0	0	0	
14	0	0	0	0	324	275	0	0	0	0	
15	0	0	0	0	329	279	0	0	0	0	
0	0	0	0	0	337	284	0	0	0	0	
1	0	0	0	0	348	294	0	0	0	0	
2	0	0	0	0	363	304	0	0	0	0	
3	0	0	0	0	380	317	0	0	0	0	
4	0	0	0	0	399	332	0	0	0	0	
5	0	0	0	0	419	347	0	0	0	0	
6	0	0	0	0	438	363	0	0	0	0	
7	0	0	0	0	457	379	0	0	0	0	
8	0	0	0	0	474	394	0	0	0	0	
9	0	0	0	0	489	408	0	0	0	0	
10	0	0	0	0	501	421	0	0	0	0	
11	0	0	0	0	512	433	0	0	0	0	
12	0	0	0	0	520	445	0	0	0	0	
13	0	0	0	0	528	455	0	0	0	0	
14	0	0	0	0	534	464	0	0	0	0	
15	0	0	0	0	538	472	0	0	0	0	
0	0	0	0	0	541	478	0	0	0	0	
1	0	0	0	0	544	483	0	0	0	0	
2	0	0	0	0	547	487	0	0	0	0	
3	0	0	0	0	549	490	0	0	0	0	
4	0	0	0	0	552	493	0	0	0	0	
5	0	0	0	0	556	496	0	0	0	0	
6	0	0	0	0	562	500	0	0	0	0	
7	0	0	0	0	568	505	0	0	0	0	
8	0	0	0	0	576	510	0	0	0	0	
9	0	0	0	0	583	515	0	0	0	0	
10	0	0	0	0	591	521	0	0	0	0	
11	0	0	0	0	599	526	0	0	0	0	
12	0	0	0	0	605	531	0	0	0	0	
13	0	0	0	0	610	536	0	0	0	0	
14	0	0	0	0	612	539	0	0	0	0	
15	0	0	0	0	613	540	0	0	0	0	
0	0	0	0	0	611	540	0	0	0	0	
1	0	0	0	0	606	537	0	0	0	0	
2	0	0	0	0	596	531	0	0	0	0	
3	0	0	0	0	585	524	0	0	0	0	
4	0	0	0	0	572	515	0	0	0	0	
5	0	0	0	0	557	505	0	0	0	0	
6	0	0	0	0	542	494	0	0	0	0	
7	0	0	0	0	527	482	0	0	0	0	
8	0	0	0	0	512	469	0	0	0	0	
9	0	0	0	0	498	457	0	0	0	0	
10	0	0	0	0	487	446	0	0	0	0	
11	0	0	0	0	477	436	0	0	0	0	
12	0	0	0	0	470	428	0	0	0	0	
13	0	0	0	0	467	423	0	0	0	0	
14	0	0	0	0	467	421	0	0	0	0	
15	0	0	0	0	471	422	0	0	0	0	
0	0	0	0	0	478	426	0	0	0	0	
1	0	0	0	0	487	433	0	0	0	0	
2	0	0	0	0	499	443	0	0	0	0	
3	0	0	0	0	514	454	0	0	0	0	
4	0	0	0	0	529	467	0	0	0	0	
5	0	0	0	0	545	480	0	0	0	0	
6	0	0	0	0	560	493	0	0	0	0	
7	0	0	0	0	572	505	0	0	0	0	
8	0	0	0	0	584	516	0	0	0	0	
9	0	0	0	0	593	525	0	0	0	0	
10	0	0	0	0	600	531	0	0	0	0	
11	0	0	0	0	603	536	0	0	0	0	
12	0	0	0	0	603	538	0	0	0	0	
13	0	0	0	0	603	539	0	0	0	0	
14	0	0	0	0	600	537	0	0	0	0	
15	0	0	0	0	595	534	0	0	0	0	
0	0	0	0	0	589	530	0	0	0	0	
1	0	0	0	0	582	525	0	0	0	0	
2	0	0	0	0	576	519	0	0	0	0	
3	0	0	0	0	569	513	0	0	0	0	
4	0	0	0	0	563	508	0	0	0	0	
5	0	0	0	0	557	502	0	0	0	0	
6	0	0	0	0	551	498	0	0	0	0	
7	0	0	0	0	547	494	0	0	0	0	
8	0	0	0	0	544	491	0	0	0	0	
9	0	0	0	0	542	489	0	0	0	0	
10	0	0	0	0	541	487	0	0	0	0	
11	0	0	0	0	541	487	0	0	0	0	
12	0	0	0	0	543	488	0	0	0	0	
13	0	0	0	0	547	490	0	0	0	0	
14	0	0	0	0	552	492	0	0	0	0	
