# OpenSignals Text File Format. Version 1
# {"": {"position": 0, "device": "", "device name": "", "device connection": "", "sampling rate": 1000, "resolution": [4, 1, 1, 1, 1, 10, 10, 10, 10, 6, 6], "firmware version": 1281, "comments": "", "keywords": "", "mode": 0, "sync interval": 2, "date": "", "time": "", "channels": [1, 2, 3, 4, 5, 6], "sensor": ["RAW", "RAW", "RAW", "RAW", "RAW", "RAW"], "label": ["A1", "A2", "A3", "A4", "A5", "A6"], "column": ["nSeq", "I1", "I2", "O1", "O2", "A1", "A2", "A3", "A4", "A5", "A6"], "special": [{}, {}, {}, {}, {}, {}], "digital IO": [0, 0, 1, 1]}}
# EndOfHeader
0	0	0	0	0	519	455	0	0	0	0	
1	0	0	0	0	512	450	0	0	0	0	
2	0	0	0	0	506	444	0	0	0	0	
3	0	0	0	0	500	439	0	0	0	0	
4	0	0	0	0	497	435	0	0	0	0	
5	0	0	0	0	496	433	0	0	0	0	
6	0	0	0	0	496	433	0	0	0	0	
7	0	0	0	0	499	434	0	0	0	0	
8	0	0	0	0	504	438	0	0	0	0	
9	0	0	0	0	511	443	0	0	0	0	
10	0	0	0	0	520	450	0	0	0	0	
11	0	0	0	0	531	459	0	0	0	0	
12	0	0	0	0	542	468	0	0	0	0	
13	0	0	0	0	554	478	0	0	0	0	
14	0	0	0	0	565	487	0	0	0	0	
15	0	0	0	0	574	495	0	0	0	0	
0	0	0	0	0	579	499	0	0	0	0	
1	0	0	0	0	581	500	0	0	0	0	
2	0	0	0	0	579	498	0	0	0	0	
3	0	0	0	0	573	492	0	0	0	0	
4	0	0	0	0	565	484	0	0	0	0	
5	0	0	0	0	554	475	0	0	0	0	
6	0	0	0	0	542	464	0	0	0	0	
7	0	0	0	0	530	454	0	0	0	0	
8	0	0	0	0	519	445	0	0	0	0	
9	0	0	0	0	510	437	0	0	0	0	
10	0	0	0	0	503	431	0	0	0	0	
11	0	0	0	0	499	428	0	0	0	0	
12	0	0	0	0	497	427	0	0	0	0	
13	0	0	0	0	497	428	0	0	0	0	
14	0	0	0	0	501	431	0	0	0	0	
15	0	0	0	0	506	436	0	0	0	0	
0	0	0	0	0	512	442	0	0	0	0	
1	0	0	0	0	519	448	0	0	0	0	
2	0	0	0	0	526	454	0	0	0	0	
3	0	0	0	0	531	459	0	0	0	0	
4	0	0	0	0	536	462	0	0	0	0	
5	0	0	0	0	537	464	0	0	0	0	
6	0	0	0	0	537	464	0	0	0	0	
7	0	0	0	0	534	462	0	0	0	0	
8	0	0	0	0	529	457	0	0	0	0	
9	0	0	0	0	522	451	0	0	0	0	
10	0	0	0	0	514	444	0	0	0	0	
11	0	0	0	0	505	437	0	0	0	0	
12	0	0	0	0	497	431	0	0	0	0	
13	0	0	0	0	492	426	0	0	0	0	
14	0	0	0	0	488	424	0	0	0	0	
15	0	0	0	0	488	423	0	0	0	0	
0	0	0	0	0	492	427	0	0	0	0	
1	0	0	0	0	499	433	0	0	0	0	
2	0	0	0	0	508	441	0	0	0	0	
3	0	0	0	0	519	450	0	0	0	0	
4	0	0	0	0	529	459	0	0	0	0	
5	0	0	0	0	539	466	0	0	0	0	
6	0	0	0	0	545	472	0	0	0	0	
7	0	0	0	0	550	475	0	0	0	0	
8	0	0	0	0	551	476	0	0	0	0	
9	0	0	0	0	550	473	0	0	0	0	
10	0	0	0	0	545	470	0	0	0	0	
11	0	0	0	0	541	466	0	0	0	0	
12	0	0	0	0	535	461	0	0	0	0	
13	0	0	0	0	528	455	0	0	0	0	
14	0	0	0	0	522	450	0	0	0	0	
15	0	0	0	0	515	445	0	0	0	0	
0	0	0	0	0	511	442	0	0	0	0	
1	0	0	0	0	508	440	0	0	0	0	
2	0	0	0	0	506	439	0	0	0	0	
3	0	0	0	0	506	440	0	0	0	0	
4	0	0	0	0	508	443	0	0	0	0	
5	0	0	0	0	512	448	0	0	0	0	
6	0	0	0	0	518	454	0	0	0	0	
7	0	0	0	0	525	460	0	0	0	0	
8	0	0	0	0	531	466	0	0	0	0	
9	0	0	0	0	537	472	0	0	0	0	
10	0	0	0	0	543	476	0	0	0	0	
11	0	0	0	0	546	479	0	0	0	0	
12	0	0	0	0	548	480	0	0	0	0	
13	0	0	0	0	548	479	0	0	0	0	
14	0	0	0	0	547	477	0	0	0	0	
15	0	0	0	0	544	474	0	0	0	0	
0	0	0	0	0	541	471	0	0	0	0	
1	0	0	0	0	537	467	0	0	0	0	
2	0	0	0	0	534	464	0	0	0	0	
3	0	0	0	0	532	462	0	0	0	0	
4	0	0	0	0	530	460	0	0	0	0	
5	0	0	0	0	531	460	0	0	0	0	
6	0	0	0	0	531	460	0	0	0	0	
7	0	0	0	0	532	460	0	0	0	0	
8	0	0	0	0	533	461	0	0	0	0	
9	0	0	0	0	534	462	0	0	0	0	
10	0	0	0	0	535	463	0	0	0	0	
11	0	0	0	0	534	463	0	0	0	0	
12	0	0	0	0	533	462	0	0	0	0	
13	0	0	0	0	530	459	0	0	0	0	
14	0	0	0	0	524	455	0	0	0	0	
15	0	0	0	0	519	449	0	0	0	0	
0	0	0	0	0	513	444	0	0	0	0	
1	0	0	0	0	506	437	0	0	0	0	
2	0	0	0	0	500	431	0	0	0	0	
3	0	0	0	0	494	425	0	0	0	0	
4	0	0	0	0	490	421	0	0	0	0	
5	0	0	0	0	487	418	0	0	0	0	
6	0	0	0	0	486	416	0	0	0	0	
7	0	0	0	0	486	416	0	0	0	0	
8	0	0	0	0	487	417	0	0	0	0	
9	0	0	0	0	491	420	0	0	0	0	
10	0	0	0	0	496	424	0	0	0	0	
11	0	0	0	0	502	431	0	0	0	0	
12	0	0	0	0	510	438	0	0	0	0	
13	0	0	0	0	518	445	0	0	0	0	
14	0	0	0	0	527	454	0	0	0	0	
15	0	0	0	0	535	460	0	0	0	0	
0	0	0	0	0	542	467	0	0	0	0	
1	0	0	0	0	547	473	0	0	0	0	
2	0	0	0	0	553	478	0	0	0	0	
3	0	0	0	0	557	481	0	0	0	0	
4	0	0	0	0	560	484	0	0	0	0	
5	0	0	0	0	561	487	0	0	0	0	
6	0	0	0	0	562	487	0	0	0	0	
7	0	0	0	0	560	487	0	0	0	0	
8	0	0	0	0	559	485	0	0	0	0	
9	0	0	0	0	556	482	0	0	0	0	
10	0	0	0	0	551	478	0	0	0	0	
11	0	0	0	0	546	473	0	0	0	0	
12	0	0	0	0	539	467	0	0	0	0	
13	0	0	0	0	532	462	0	0	0	0	
14	0	0	0	0	524	455	0	0	0	0	
15	0	0	0	0	517	449	0	0	0	0	
0	0	0	0	0	510	444	0	0	0	0	
1	0	0	0	0	506	441	0	0	0	0	
2	0	0	0	0	504	440	0	0	0	0	
3	0	0	0	0	504	441	0	0	0	0	
4	0	0	0	0	506	443	0	0	0	0	
5	0	0	0	0	510	446	0	0	0	0	
6	0	0	0	0	515	449	0	0	0	0	
7	0	0	0	0	521	454	0	0	0	0	
8	0	0	0	0	527	457	0	0	0	0	
9	0	0	0	0	533	461	0	0	0	0	
10	0	0	0	0	538	463	0	0	0	0	
11	0	0	0	0	542	465	0	0	0	0	
12	0	0	0	0	545	467	0	0	0	0	
13	0	0	0	0	547	467	0	0	0	0	
14	0	0	0	0	547	466	0	0	0	0	
15	0	0	0	0	546	466	0	0	0	0	
0	0	0	0	0	544	465	0	0	0	0	
1	0	0	0	0	543	464	0	0	0	0	
2	0	0	0	0	540	463	0	0	0	0	
3	0	0	0	0	537	463	0	0	0	0	
4	0	0	0	0	536	463	0	0	0	0	
5	0	0	0	0	534	463	0	0	0	0	
6	0	0	0	0	534	464	0	0	0	0	
7	0	0	0	0	534	465	0	0	0	0	
8	0	0	0	0	535	465	0	0	0	0	
9	0	0	0	0	533	464	0	0	0	0	
10	0	0	0	0	531	462	0	0	0	0	
11	0	0	0	0	528	458	0	0	0	0	
12	0	0	0	0	523	454	0	0	0	0	
13	0	0	0	0	518	447	0	0	0	0	
14	0	0	0	0	512	440	0	0	0	0	
15	0	0	0	0	507	435	0	0	0	0	
0	0	0	0	0	502	430	0	0	0	0	
1	0	0	0	0	499	427	0	0	0	0	
2	0	0	0	0	498	424	0	0	0	0	
3	0	0	0	0	499	424	0	0	0	0	
4	0	0	0	0	501	425	0	0	0	0	
5	0	0	0	0	505	428	0	0	0	0	
6	0	0	0	0	510	432	0	0	0	0	
7	0	0	0	0	515	437	0	0	0	0	
8	0	0	0	0	519	441	0	0	0	0	
9	0	0	0	0	523	446	0	0	0	0	
10	0	0	0	0	526	449	0	0	0	0	
11	0	0	0	0	527	451	0	0	0	0	
12	0	0	0	0	527	453	0	0	0	0	
13	0	0	0	0	526	453	0	0	0	0	
14	0	0	0	0	525	454	0	0	0	0	
15	0	0	0	0	524	453	0	0	0	0	
0	0	0	0	0	521	451	0	0	0	0	
1	0	0	0	0	519	449	0	0	0	0	
2	0	0	0	0	518	447	0	0	0	0	
3	0	0	0	0	515	444	0	0	0	0	
4	0	0	0	0	515	443	0	0	0	0	
5	0	0	0	0	514	441	0	0	0	0	
6	0	0	0	0	515	441	0	0	0	0	
7	0	0	0	0	515	440	0	0	0	0	
8	0	0	0	0	516	441	0	0	0	0	
9	0	0	0	0	518	442	0	0	0	0	
10	0	0	0	0	519	443	0	0	0	0	
11	0	0	0	0	521	445	0	0	0	0	
12	0	0	0	0	523	447	0	0	0	0	
13	0	0	0	0	525	449	0	0	0	0	
14	0	0	0	0	527	452	0	0	0	0	
15	0	0	0	0	529	455	0	0	0	0	
0	0	0	0	0	531	457	0	0	0	0	
1	0	0	0	0	532	459	0	0	0	0	
2	0	0	0	0	532	460	0	0	0	0	
3	0	0	0	0	533	460	0	0	0	0	
4	0	0	0	0	532	460	0	0	0	0	
5	0	0	0	0	531	458	0	0	0	0	
6	0	0	0	0	529	456	0	0	0	0	
7	0	0	0	0	527	454	0	0	0	0	
8	0	0	0	0	525	451	0	0	0	0	
9	0	0	0	0	524	450	0	0	0	0	
10	0	0	0	0	524	449	0	0	0	0	
11	0	0	0	0	525	449	0	0	0	0	
12	0	0	0	0	528	450	0	0	0	0	
13	0	0	0	0	532	453	0	0	0	0	
14	0	0	0	0	537	456	0	0	0	0	
15	0	0	0	0	542	461	0	0	0	0	
0	0	0	0	0	547	466	0	0	0	0	
1	0	0	0	0	552	470	0	0	0	0	
2	0	0	0	0	556	473	0	0	0	0	
3	0	0	0	0	558	476	0	0	0	0	
4	0	0	0	0	559	477	0	0	0	0	
5	0	0	0	0	559	478	0	0	0	0	
6	0	0	0	0	558	478	0	0	0	0	
7	0	0	0	0	556	477	0	0	0	0	
8	0	0	0	0	553	475	0	0	0	0	
9	0	0	0	0	548	471	0	0	0	0	
10	0	0	0	0	541	465	0	0	0	0	
11	0	0	0	0	534	460	0	0	0	0	
12	0	0	0	0	527	452	0	0	0	0	
13	0	0	0	0	518	445	0	0	0	0	
14	0	0	0	0	510	437	0	0	0	0	
15	0	0	0	0	502	430	0	0	0	0	
0	0	0	0	0	496	423	0	0	0	0	
1	0	0	0	0	493	420	0	0	0	0	
2	0	0	0	0	493	419	0	0	0	0	
3	0	0	0	0	496	421	0	0	0	0	
4	0	0	0	0	500	424	0	0	0	0	
5	0	0	0	0	507	430	0	0	0	0	
6	0	0	0	0	515	437	0	0	0	0	
7	0	0	0	0	523	444	0	0	0	0	
8	0	0	0	0	530	451	0	0	0	0	
9	0	0	0	0	536	457	0	0	0	0	
10	0	0	0	0	540	461	0	0	0	0	
11	0	0	0	0	541	463	0	0	0	0	
12	0	0	0	0	541	464	0	0	0	0	
13	0	0	0	0	539	463	0	0	0	0	
14	0	0	0	0	534	460	0	0	0	0	
15	0	0	0	0	529	456	0	0	0	0	
0	0	0	0	0	525	452	0	0	0	0	
1	0	0	0	0	520	447	0	0	0	0	
2	0	0	0	0	518	444	0	0	0	0	
3	0	0	0	0	517	442	0	0	0	0	
4	0	0	0	0	516	440	0	0	0	0	
5	0	0	0	0	518	440	0	0	0	0	
6	0	0	0	0	520	440	0	0	0	0	
7	0	0	0	0	523	441	0	0	0	0	
8	0	0	0	0	525	443	0	0	0	0	
9	0	0	0	0	528	445	0	0	0	0	
10	0	0	0	0	529	447	0	0	0	0	
11	0	0	0	0	532	449	0	0	0	0	
12	0	0	0	0	534	452	0	0	0	0	
13	0	0	0	0	536	455	0	0	0	0	
14	0	0	0	0	540	459	0	0	0	0	
15	0	0	0	0	544	463	0	0	0	0	
0	0	0	0	0	548	467	0	0	0	0	
1	0	0	0	0	553	471	0	0	0	0	
2	0	0	0	0	557	474	0	0	0	0	
3	0	0	0	0	558	475	0	0	0	0	
4	0	0	0	0	560	475	0	0	0	0	
5	0	0	0	0	559	473	0	0	0	0	
6	0	0	0	0	557	470	0	0	0	0	
7	0	0	0	0	554	467	0	0	0	0	
8	0	0	0	0	551	464	0	0	0	0	
9	0	0	0	0	548	462	0	0	0	0	
10	0	0	0	0	545	460	0	0	0	0	
11	0	0	0	0	543	459	0	0	0	0	
12	0	0	0	0	540	458	0	0	0	0	
13	0	0	0	0	536	455	0	0	0	0	
14	0	0	0	0	532	453	0	0	0	0	
15	0	0	0	0	526	449	0	0	0	0	
0	0	0	0	0	520	444	0	0	0	0	
1	0	0	0	0	513	439	0	0	0	0	
2	0	0	0	0	508	433	0	0	0	0	
3	0	0	0	0	503	428	0	0	0	0	
4	0	0	0	0	500	424	0	0	0	0	
5	0	0	0	0	499	420	0	0	0	0	
6	0	0	0	0	499	419	0	0	0	0	
7	0	0	0	0	503	418	0	0	0	0	
8	0	0	0	0	507	419	0	0	0	0	
9	0	0	0	0	512	421	0	0	0	0	
10	0	0	0	0	518	424	0	0	0	0	
11	0	0	0	0	524	427	0	0	0	0	
12	0	0	0	0	529	430	0	0	0	0	
13	0	0	0	0	533	432	0	0	0	0	
14	0	0	0	0	535	433	0	0	0	0	
15	0	0	0	0	534	433	0	0	0	0	
0	0	0	0	0	531	431	0	0	0	0	
1	0	0	0	0	527	430	0	0	0	0	
2	0	0	0	0	522	428	0	0	0	0	
3	0	0	0	0	517	425	0	0	0	0	
4	0	0	0	0	512	424	0	0	0	0	
5	0	0	0	0	508	423	0	0	0	0	
6	0	0	0	0	506	423	0	0	0	0	
7	0	0	0	0	505	424	0	0	0	0	
8	0	0	0	0	506	425	0	0	0	0	
9	0	0	0	0	508	427	0	0	0	0	
10	0	0	0	0	510	428	0	0	0	0	
11	0	0	0	0	512	430	0	0	0	0	
12	0	0	0	0	515	430	0	0	0	0	
13	0	0	0	0	516	429	0	0	0	0	
14	0	0	0	0	518	428	0	0	0	0	
15	0	0	0	0	518	426	0	0	0	0	
0	0	0	0	0	518	425	0	0	0	0	
1	0	0	0	0	517	423	0	0	0	0	
2	0	0	0	0	517	423	0	0	0	0	
3	0	0	0	0	516	423	0	0	0	0	
4	0	0	0	0	517	424	0	0	0	0	
5	0	0	0	0	518	427	0	0	0	0	
6	0	0	0	0	521	430	0	0	0	0	
7	0	0	0	0	524	435	0	0	0	0	
8	0	0	0	0	528	440	0	0	0	0	
9	0	0	0	0	531	444	0	0	0	0	
10	0	0	0	0	534	448	0	0	0	0	
11	0	0	0	0	536	449	0	0	0	0	
12	0	0	0	0	536	450	0	0	0	0	
13	0	0	0	0	534	449	0	0	0	0	
14	0	0	0	0	530	446	0	0	0	0	
15	0	0	0	0	527	442	0	0	0	0	
0	0	0	0	0	521	436	0	0	0	0	
1	0	0	0	0	516	432	0	0	0	0	
2	0	0	0	0	511	427	0	0	0	0	
3	0	0	0	0	508	423	0	0	0	0	
4	0	0	0	0	505	420	0	0	0	0	
5	0	0	0	0	504	417	0	0	0	0	
6	0	0	0	0	503	416	0	0	0	0	
7	0	0	0	0	504	416	0	0	0	0	
8	0	0	0	0	505	417	0	0	0	0	
9	0	0	0	0	508	419	0	0	0	0	
10	0	0	0	0	510	420	0	0	0	0	
11	0	0	0	0	512	423	0	0	0	0	
12	0	0	0	0	515	425	0	0	0	0	
13	0	0	0	0	517	428	0	0	0	0	
14	0	0	0	0	519	429	0	0	0	0	
15	0	0	0	0	520	431	0	0	0	0	
0	0	0	0	0	521	432	0	0	0	0	
1	0	0	0	0	521	432	0	0	0	0	
2	0	0	0	0	521	432	0	0	0	0	
3	0	0	0	0	522	432	0	0	0	0	
4	0	0	0	0	523	432	0	0	0	0	
5	0	0	0	0	525	433	0	0	0	0	
6	0	0	0	0	528	435	0	0	0	0	
7	0	0	0	0	531	437	0	0	0	0	
8	0	0	0	0	535	439	0	0	0	0	
9	0	0	0	0	537	441	0	0	0	0	
10	0	0	0	0	540	442	0	0	0	0	
11	0	0	0	0	542	444	0	0	0	0	
12	0	0	0	0	543	446	0	0	0	0	
13	0	0	0	0	545	449	0	0	0	0	
14	0	0	0	0	547	451	0	0	0	0	
15	0	0	0	0	549	455	0	0	0	0	
0	0	0	0	0	551	457	0	0	0	0	
1	0	0	0	0	551	459	0	0	0	0	
2	0	0	0	0	550	459	0	0	0	0	
3	0	0	0	0	548	458	0	0	0	0	
4	0	0	0	0	544	455	0	0	0	0	
5	0	0	0	0	539	450	0	0	0	0	
6	0	0	0	0	531	444	0	0	0	0	
7	0	0	0	0	524	436	0	0	0	0	
8	0	0	0	0	515	427	0	0	0	0	
9	0	0	0	0	505	417	0	0	0	0	
10	0	0	0	0	496	407	0	0	0	0	
11	0	0	0	0	486	395	0	0	0	0	
12	0	0	0	0	475	383	0	0	0	0	
13	0	0	0	0	463	370	0	0	0	0	
14	0	0	0	0	448	355	0	0	0	0	
15	0	0	0	0	433	339	0	0	0	0	
0	0	0	0	0	415	323	0	0	0	0	
1	0	0	0	0	397	305	0	0	0	0	
2	0	0	0	0	378	287	0	0	0	0	
3	0	0	0	0	358	268	0	0	0	0	
4	0	0	0	0	339	251	0	0	0	0	
5	0	0	0	0	320	233	0	0	0	0	
6	0	0	0	0	303	217	0	0	0	0	
7	0	0	0	0	289	204	0	0	0	0	
8	0	0	0	0	277	191	0	0	0	0	
9	0	0	0	0	268	182	0	0	0	0	
10	0	0	0	0	263	175	0	0	0	0	
11	0	0	0	0	261	171	0	0	0	0	
12	0	0	0	0	263	171	0	0	0	0	
13	0	0	0	0	268	174	0	0	0	0	
14	0	0	0	0	276	179	0	0	0	0	
15	0	0	0	0	287	188	0	0	0	0	
0	0	0	0	0	299	199	0	0	0	0	
1	0	0	0	0	314	212	0	0	0	0	
2	0	0	0	0	330	226	0	0	0	0	
3	0	0	0	0	346	241	0	0	0	0	
4	0	0	0	0	363	256	0	0	0	0	
5	0	0	0	0	379	272	0	0	0	0	
6	0	0	0	0	396	288	0	0	0	0	
7	0	0	0	0	412	304	0	0	0	0	
8	0	0	0	0	429	319	0	0	0	0	
9	0	0	0	0	444	335	0	0	0	0	
10	0	0	0	0	459	350	0	0	0	0	
11	0	0	0	0	473	365	0	0	0	0	
12	0	0	0	0	485	378	0	0	0	0	
13	0	0	0	0	497	391	0	0	0	0	
14	0	0	0	0	509	403	0	0	0	0	
15	0	0	0	0	520	414	0	0	0	0	
0	0	0	0	0	531	425	0	0	0	0	
1	0	0	0	0	543	436	0	0	0	0	
2	0	0	0	0	554	446	0	0	0	0	
3	0	0	0	0	564	455	0	0	0	0	
4	0	0	0	0	572	462	0	0	0	0	
5	0	0	0	0	579	468	0	0	0	0	
6	0	0	0	0	583	472	0	0	0	0	
7	0	0	0	0	587	476	0	0	0	0	
8	0	0	0	0	588	477	0	0	0	0	
9	0	0	0	0	587	477	0	0	0	0	
10	0	0	0	0	585	476	0	0	0	0	
11	0	0	0	0	582	475	0	0	0	0	
12	0	0	0	0	577	473	0	0	0	0	
13	0	0	0	0	572	470	0	0	0	0	
14	0	0	0	0	566	467	0	0	0	0	
15	0	0	0	0	559	462	0	0	0	0	
0	0	0	0	0	551	457	0	0	0	0	
1	0	0	0	0	544	451	0	0	0	0	
2	0	0	0	0	538	446	0	0	0	0	
3	0	0	0	0	532	441	0	0	0	0	
4	0	0	0	0	530	438	0	0	0	0	
5	0	0	0	0	529	435	0	0	0	0	
6	0	0	0	0	530	435	0	0	0	0	
7	0	0	0	0	532	435	0	0	0	0	
8	0	0	0	0	536	436	0	0	0	0	
9	0	0	0	0	540	439	0	0	0	0	
10	0	0	0	0	545	443	0	0	0	0	
11	0	0	0	0	550	446	0	0	0	0	
12	0	0	0	0	555	451	0	0	0	0	
13	0	0	0	0	559	455	0	0	0	0	
14	0	0	0	0	563	460	0	0	0	0	
15	0	0	0	0	566	463	0	0	0	0	
0	0	0	0	0	567	465	0	0	0	0	
1	0	0	0	0	567	466	0	0	0	0	
2	0	0	0	0	566	466	0	0	0	0	
3	0	0	0	0	564	465	0	0	0	0	
4	0	0	0	0	561	463	0	0	0	0	
5	0	0	0	0	558	460	0	0	0	0	
6	0	0	0	0	556	457	0	0	0	0	
7	0	0	0	0	554	455	0	0	0	0	
8	0	0	0	0	553	452	0	0	0	0	
9	0	0	0	0	551	449	0	0	0	0	
10	0	0	0	0	550	446	0	0	0	0	
11	0	0	0	0	547	442	0	0	0	0	
12	0	0	0	0	544	438	0	0	0	0	
13	0	0	0	0	541	435	0	0	0	0	
14	0	0	0	0	537	432	0	0	0	0	
15	0	0	0	0	535	430	0	0	0	0	
0	0	0	0	0	532	428	0	0	0	0	
1	0	0	0	0	529	429	0	0	0	0	
2	0	0	0	0	527	430	0	0	0	0	
3	0	0	0	0	525	430	0	0	0	0	
4	0	0	0	0	523	431	0	0	0	0	
5	0	0	0	0	521	432	0	0	0	0	
6	0	0	0	0	520	433	0	0	0	0	
7	0	0	0	0	520	434	0	0	0	0	
8	0	0	0	0	521	435	0	0	0	0	
9	0	0	0	0	523	436	0	0	0	0	
10	0	0	0	0	527	438	0	0	0	0	
11	0	0	0	0	532	440	0	0	0	0	
12	0	0	0	0	539	443	0	0	0	0	
13	0	0	0	0	545	445	0	0	0	0	
14	0	0	0	0	551	447	0	0	0	0	
15	0	0	0	0	556	448	0	0	0	0	
0	0	0	0	0	560	449	0	0	0	0	
1	0	0	0	0	564	450	0	0	0	0	
2	0	0	0	0	566	451	0	0	0	0	
3	0	0	0	0	567	452	0	0	0	0	
4	0	0	0	0	567	453	0	0	0	0	
5	0	0	0	0	566	454	0	0	0	0	
6	0	0	0	0	563	455	0	0	0	0	
7	0	0	0	0	560	455	0	0	0	0	
8	0	0	0	0	557	455	0	0	0	0	
9	0	0	0	0	552	455	0	0	0	0	
10	0	0	0	0	547	453	0	0	0	0	
11	0	0	0	0	544	452	0	0	0	0	
12	0	0	0	0	540	451	0	0	0	0	
13	0	0	0	0	537	448	0	0	0	0	
14	0	0	0	0	534	446	0	0	0	0	
15	0	0	0	0	530	443	0	0	0	0	
0	0	0	0	0	528	439	0	0	0	0	
1	0	0	0	0	526	436	0	0	0	0	
2	0	0	0	0	525	433	0	0	0	0	
3	0	0	0	0	525	432	0	0	0	0	
4	0	0	0	0	525	431	0	0	0	0	
5	0	0	0	0	528	431	0	0	0	0	
6	0	0	0	0	531	433	0	0	0	0	
7	0	0	0	0	534	435	0	0	0	0	
8	0	0	0	0	537	438	0	0	0	0	
9	0	0	0	0	541	441	0	0	0	0	
10	0	0	0	0	545	445	0	0	0	0	
11	0	0	0	0	550	449	0	0	0	0	
12	0	0	0	0	553	452	0	0	0	0	
13	0	0	0	0	557	456	0	0	0	0	
14	0	0	0	0	559	458	0	0	0	0	
15	0	0	0	0	561	460	0	0	0	0	
0	0	0	0	0	562	460	0	0	0	0	
1	0	0	0	0	561	459	0	0	0	0	
2	0	0	0	0	560	457	0	0	0	0	
3	0	0	0	0	556	455	0	0	0	0	
4	0	0	0	0	554	451	0	0	0	0	
5	0	0	0	0	550	448	0	0	0	0	
6	0	0	0	0	546	445	0	0	0	0	
7	0	0	0	0	543	442	0	0	0	0	
8	0	0	0	0	539	440	0	0	0	0	
9	0	0	0	0	536	439	0	0	0	0	
10	0	0	0	0	534	438	0	0	0	0	
11	0	0	0	0	533	438	0	0	0	0	
12	0	0	0	0	532	438	0	0	0	0	
13	0	0	0	0	533	440	0	0	0	0	
14	0	0	0	0	536	443	0	0	0	0	
15	0	0	0	0	539	446	0	0	0	0	
0	0	0	0	0	543	451	0	0	0	0	
1	0	0	0	0	548	455	0	0	0	0	
2	0	0	0	0	552	459	0	0	0	0	
3	0	0	0	0	557	462	0	0	0	0	
4	0	0	0	0	559	463	0	0	0	0	
5	0	0	0	0	560	463	0	0	0	0	
6	0	0	0	0	559	461	0	0	0	0	
7	0	0	0	0	555	457	0	0	0	0	
8	0	0	0	0	551	453	0	0	0	0	
9	0	0	0	0	546	448	0	0	0	0	
10	0	0	0	0	542	444	0	0	0	0	
11	0	0	0	0	537	440	0	0	0	0	
12	0	0	0	0	534	436	0	0	0	0	
13	0	0	0	0	531	435	0	0	0	0	
14	0	0	0	0	529	434	0	0	0	0	
15	0	0	0	0	529	434	0	0	0	0	
0	0	0	0	0	529	435	0	0	0	0	
1	0	0	0	0	529	437	0	0	0	0	
2	0	0	0	0	531	440	0	0	0	0	
3	0	0	0	0	534	444	0	0	0	0	
4	0	0	0	0	537	447	0	0	0	0	
5	0	0	0	0	541	450	0	0	0	0	
6	0	0	0	0	544	453	0	0	0	0	
7	0	0	0	0	549	457	0	0	0	0	
8	0	0	0	0	553	460	0	0	0	0	
9	0	0	0	0	558	463	0	0	0	0	
10	0	0	0	0	561	465	0	0	0	0	
11	0	0	0	0	565	467	0	0	0	0	
12	0	0	0	0	568	468	0	0	0	0	
13	0	0	0	0	569	468	0	0	0	0	
14	0	0	0	0	568	467	0	0	0	0	
15	0	0	0	0	566	465	0	0	0	0	
0	0	0	0	0	563	462	0	0	0	0	
1	0	0	0	0	559	459	0	0	0	0	
2	0	0	0	0	553	455	0	0	0	0	
3	0	0	0	0	547	451	0	0	0	0	
4	0	0	0	0	542	447	0	0	0	0	
5	0	0	0	0	536	444	0	0	0	0	
6	0	0	0	0	533	443	0	0	0	0	
7	0	0	0	0	531	443	0	0	0	0	
8	0	0	0	0	531	444	0	0	0	0	
9	0	0	0	0	532	446	0	0	0	0	
10	0	0	0	0	534	448	0	0	0	0	
11	0	0	0	0	536	450	0	0	0	0	
12	0	0	0	0	539	451	0	0	0	0	
13	0	0	0	0	540	451	0	0	0	0	
14	0	0	0	0	539	450	0	0	0	0	
15	0	0	0	0	538	448	0	0	0	0	
0	0	0	0	0	537	444	0	0	0	0	
1	0	0	0	0	534	440	0	0	0	0	
2	0	0	0	0	531	436	0	0	0	0	
3	0	0	0	0	529	432	0	0	0	0	
4	0	0	0	0	526	428	0	0	0	0	
5	0	0	0	0	524	426	0	0	0	0	
6	0	0	0	0	524	424	0	0	0	0	
7	0	0	0	0	524	424	0	0	0	0	
8	0	0	0	0	525	425	0	0	0	0	
9	0	0	0	0	527	427	0	0	0	0	
10	0	0	0	0	530	430	0	0	0	0	
11	0	0	0	0	533	434	0	0	0	0	
12	0	0	0	0	536	438	0	0	0	0	
13	0	0	0	0	538	441	0	0	0	0	
14	0	0	0	0	540	445	0	0	0	0	
15	0	0	0	0	540	447	0	0	0	0	
0	0	0	0	0	540	449	0	0	0	0	
1	0	0	0	0	539	450	0	0	0	0	
2	0	0	0	0	538	451	0	0	0	0	
3	0	0	0	0	535	451	0	0	0	0	
4	0	0	0	0	534	451	0	0	0	0	
5	0	0	0	0	533	451	0	0	0	0	
6	0	0	0	0	532	451	0	0	0	0	
7	0	0	0	0	531	451	0	0	0	0	
8	0	0	0	0	532	452	0	0	0	0	
9	0	0	0	0	534	453	0	0	0	0	
10	0	0	0	0	538	455	0	0	0	0	
11	0	0	0	0	543	459	0	0	0	0	
12	0	0	0	0	550	463	0	0	0	0	
13	0	0	0	0	558	470	0	0	0	0	
14	0	0	0	0	568	476	0	0	0	0	
15	0	0	0	0	578	483	0	0	0	0	
0	0	0	0	0	588	488	0	0	0	0	
1	0	0	0	0	593	492	0	0	0	0	
2	0	0	0	0	599	495	0	0	0	0	
3	0	0	0	0	600	495	0	0	0	0	
4	0	0	0	0	598	492	0	0	0	0	
5	0	0	0	0	592	487	0	0	0	0	
6	0	0	0	0	583	480	0	0	0	0	
7	0	0	0	0	572	472	0	0	0	0	
8	0	0	0	0	562	465	0	0	0	0	
9	0	0	0	0	551	458	0	0	0	0	
10	0	0	0	0	541	452	0	0	0	0	
11	0	0	0	0	532	446	0	0	0	0	
12	0	0	0	0	526	443	0	0	0	0	
13	0	0	0	0	521	439	0	0	0	0	
14	0	0	0	0	517	435	0	0	0	0	
15	0	0	0	0	513	432	0	0	0	0	
0	0	0	0	0	512	430	0	0	0	0	
1	0	0	0	0	511	428	0	0	0	0	
2	0	0	0	0	511	427	0	0	0	0	
3	0	0	0	0	512	425	0	0	0	0	
4	0	0	0	0	514	424	0	0	0	0	
5	0	0	0	0	516	424	0	0	0	0	
6	0	0	0	0	519	425	0	0	0	0	
7	0	0	0	0	523	427	0	0	0	0	
8	0	0	0	0	527	429	0	0	0	0	
9	0	0	0	0	531	431	0	0	0	0	
10	0	0	0	0	536	434	0	0	0	0	
11	0	0	0	0	540	438	0	0	0	0	
12	0	0	0	0	544	441	0	0	0	0	
13	0	0	0	0	547	445	0	0	0	0	
14	0	0	0	0	550	448	0	0	0	0	
15	0	0	0	0	551	451	0	0	0	0	
0	0	0	0	0	551	452	0	0	0	0	
1	0	0	0	0	551	453	0	0	0	0	
2	0	0	0	0	550	453	0	0	0	0	
3	0	0	0	0	548	452	0	0	0	0	
4	0	0	0	0	545	451	0	0	0	0	
5	0	0	0	0	541	448	0	0	0	0	
6	0	0	0	0	537	446	0	0	0	0	
7	0	0	0	0	533	443	0	0	0	0	
8	0	0	0	0	529	440	0	0	0	0	
9	0	0	0	0	524	437	0	0	0	0	
10	0	0	0	0	521	435	0	0	0	0	
11	0	0	0	0	520	434	0	0	0	0	
12	0	0	0	0	520	434	0	0	0	0	
13	0	0	0	0	522	435	0	0	0	0	
14	0	0	0	0	525	436	0	0	0	0	
15	0	0	0	0	528	438	0	0	0	0	
0	0	0	0	0	531	440	0	0	0	0	
1	0	0	0	0	535	442	0	0	0	0	
2	0	0	0	0	537	443	0	0	0	0	
3	0	0	0	0	539	444	0	0	0	0	
4	0	0	0	0	539	445	0	0	0	0	
5	0	0	0	0	539	446	0	0	0	0	
6	0	0	0	0	538	447	0	0	0	0	
7	0	0	0	0	537	448	0	0	0	0	
8	0	0	0	0	536	450	0	0	0	0	
9	0	0	0	0	535	452	0	0	0	0	
10	0	0	0	0	535	455	0	0	0	0	
11	0	0	0	0	536	458	0	0	0	0	
12	0	0	0	0	539	463	0	0	0	0	
13	0	0	0	0	543	467	0	0	0	0	
14	0	0	0	0	547	472	0	0	0	0	
15	0	0	0	0	554	478	0	0	0	0	
0	0	0	0	0	560	482	0	0	0	0	
1	0	0	0	0	566	486	0	0	0	0	
2	0	0	0	0	571	488	0	0	0	0	
3	0	0	0	0	576	490	0	0	0	0	
4	0	0	0	0	580	492	0	0	0	0	
5	0	0	0	0	583	492	0	0	0	0	
6	0	0	0	0	584	491	0	0	0	0	
7	0	0	0	0	584	488	0	0	0	0	
8	0	0	0	0	582	486	0	0	0	0	
9	0	0	0	0	579	482	0	0	0	0	
10	0	0	0	0	575	478	0	0	0	0	
11	0	0	0	0	569	475	0	0	0	0	
12	0	0	0	0	564	472	0	0	0	0	
13	0	0	0	0	559	471	0	0	0	0	
14	0	0	0	0	555	470	0	0	0	0	
15	0	0	0	0	552	471	0	0	0	0	
0	0	0	0	0	550	471	0	0	0	0	
1	0	0	0	0	546	472	0	0	0	0	
2	0	0	0	0	544	472	0	0	0	0	
3	0	0	0	0	544	472	0	0	0	0	
4	0	0	0	0	543	472	0	0	0	0	
5	0	0	0	0	542	471	0	0	0	0	
6	0	0	0	0	541	469	0	0	0	0	
7	0	0	0	0	540	468	0	0	0	0	
8	0	0	0	0	539	465	0	0	0	0	
9	0	0	0	0	538	463	0	0	0	0	
10	0	0	0	0	536	460	0	0	0	0	
11	0	0	0	0	534	456	0	0	0	0	
12	0	0	0	0	531	454	0	0	0	0	
13	0	0	0	0	529	450	0	0	0	0	
14	0	0	0	0	526	446	0	0	0	0	
15	0	0	0	0	522	443	0	0	0	0	
0	0	0	0	0	519	440	0	0	0	0	
1	0	0	0	0	518	440	0	0	0	0	
2	0	0	0	0	519	440	0	0	0	0	
3	0	0	0	0	521	444	0	0	0	0	
4	0	0	0	0	527	449	0	0	0	0	
5	0	0	0	0	533	455	0	0	0	0	
6	0	0	0	0	542	464	0	0	0	0	
7	0	0	0	0	551	472	0	0	0	0	
8	0	0	0	0	561	480	0	0	0	0	
9	0	0	0	0	570	487	0	0	0	0	
10	0	0	0	0	576	492	0	0	0	0	
11	0	0	0	0	582	496	0	0	0	0	
12	0	0	0	0	584	498	0	0	0	0	
13	0	0	0	0	583	497	0	0	0	0	
14	0	0	0	0	579	494	0	0	0	0	
15	0	0	0	0	574	490	0	0	0	0	
0	0	0	0	0	566	485	0	0	0	0	
1	0	0	0	0	558	480	0	0	0	0	
2	0	0	0	0	550	475	0	0	0	0	
3	0	0	0	0	542	471	0	0	0	0	
4	0	0	0	0	535	467	0	0	0	0	
5	0	0	0	0	529	465	0	0	0	0	
6	0	0	0	0	524	462	0	0	0	0	
7	0	0	0	0	520	460	0	0	0	0	
8	0	0	0	0	517	458	0	0	0	0	
9	0	0	0	0	514	456	0	0	0	0	
10	0	0	0	0	512	454	0	0	0	0	
11	0	0	0	0	512	453	0	0	0	0	
12	0	0	0	0	513	452	0	0	0	0	
13	0	0	0	0	515	452	0	0	0	0	
14	0	0	0	0	519	452	0	0	0	0	
15	0	0	0	0	525	455	0	0	0	0	
0	0	0	0	0	532	458	0	0	0	0	
1	0	0	0	0	540	463	0	0	0	0	
2	0	0	0	0	549	468	0	0	0	0	
3	0	0	0	0	558	474	0	0	0	0	
4	0	0	0	0	567	480	0	0	0	0	
5	0	0	0	0	575	486	0	0	0	0	
6	0	0	0	0	581	492	0	0	0	0	
7	0	0	0	0	587	497	0	0	0	0	
8	0	0	0	0	590	502	0	0	0	0	
9	0	0	0	0	592	505	0	0	0	0	
10	0	0	0	0	593	509	0	0	0	0	
11	0	0	0	0	593	512	0	0	0	0	
12	0	0	0	0	592	514	0	0	0	0	
13	0	0	0	0	590	515	0	0	0	0	
14	0	0	0	0	587	515	0	0	0	0	
15	0	0	0	0	584	515	0	0	0	0	
0	0	0	0	0	580	514	0	0	0	0	
1	0	0	0	0	576	511	0	0	0	0	
2	0	0	0	0	569	505	0	0	0	0	
3	0	0	0	0	563	499	0	0	0	0	
4	0	0	0	0	556	492	0	0	0	0	
5	0	0	0	0	548	483	0	0	0	0	
6	0	0	0	0	540	474	0	0	0	0	
7	0	0	0	0	532	465	0	0	0	0	
8	0	0	0	0	526	459	0	0	0	0	
9	0	0	0	0	521	452	0	0	0	0	
10	0	0	0	0	517	448	0	0	0	0	
11	0	0	0	0	514	445	0	0	0	0	
12	0	0	0	0	513	443	0	0	0	0	
13	0	0	0	0	511	441	0	0	0	0	
14	0	0	0	0	512	443	0	0	0	0	
15	0	0	0	0	514	444	0	0	0	0	
0	0	0	0	0	516	447	0	0	0	0	
1	0	0	0	0	519	450	0	0	0	0	
2	0	0	0	0	523	454	0	0	0	0	
3	0	0	0	0	527	457	0	0	0	0	
4	0	0	0	0	531	460	0	0	0	0	
5	0	0	0	0	536	464	0	0	0	0	
6	0	0	0	0	540	467	0	0	0	0	
7	0	0	0	0	543	469	0	0	0	0	
8	0	0	0	0	548	472	0	0	0	0	
9	0	0	0	0	551	474	0	0	0	0	
10	0	0	0	0	555	477	0	0	0	0	
11	0	0	0	0	558	479	0	0	0	0	
12	0	0	0	0	558	480	0	0	0	0	
13	0	0	0	0	558	480	0	0	0	0	
14	0	0	0	0	556	480	0	0	0	0	
15	0	0	0	0	552	479	0	0	0	0	
0	0	0	0	0	548	477	0	0	0	0	
1	0	0	0	0	542	474	0	0	0	0	
2	0	0	0	0	536	471	0	0	0	0	
3	0	0	0	0	529	467	0	0	0	0	
4	0	0	0	0	522	463	0	0	0	0	
5	0	0	0	0	516	459	0	0	0	0	
6	0	0	0	0	510	455	0	0	0	0	
7	0	0	0	0	507	452	0	0	0	0	
8	0	0	0	0	505	450	0	0	0	0	
9	0	0	0	0	505	448	0	0	0	0	
10	0	0	0	0	508	448	0	0	0	0	
11	0	0	0	0	511	449	0	0	0	0	
12	0	0	0	0	518	453	0	0	0	0	
13	0	0	0	0	527	458	0	0	0	0	
14	0	0	0	0	536	464	0	0	0	0	
15	0	0	0	0	546	470	0	0	0	0	
0	0	0	0	0	555	477	0	0	0	0	
1	0	0	0	0	562	482	0	0	0	0	
2	0	0	0	0	567	487	0	0	0	0	
3	0	0	0	0	568	489	0	0	0	0	
4	0	0	0	0	568	490	0	0	0	0	
5	0	0	0	0	566	489	0	0	0	0	
6	0	0	0	0	562	488	0	0	0	0	
7	0	0	0	0	558	487	0	0	0	0	
8	0	0	0	0	553	484	0	0	0	0	
9	0	0	0	0	548	483	0	0	0	0	
10	0	0	0	0	546	483	0	0	0	0	
11	0	0	0	0	544	484	0	0	0	0	
12	0	0	0	0	545	486	0	0	0	0	
13	0	0	0	0	546	487	0	0	0	0	
14	0	0	0	0	549	489	0	0	0	0	
15	0	0	0	0	551	490	0	0	0	0	
0	0	0	0	0	555	491	0	0	0	0	
1	0	0	0	0	559	492	0	0	0	0	
2	0	0	0	0	561	491	0	0	0	0	
3	0	0	0	0	563	489	0	0	0	0	
4	0	0	0	0	564	487	0	0	0	0	
5	0	0	0	0	565	486	0	0	0	0	
6	0	0	0	0	565	484	0	0	0	0	
7	0	0	0	0	564	482	0	0	0	0	
8	0	0	0	0	563	481	0	0	0	0	
9	0	0	0	0	561	480	0	0	0	0	
10	0	0	0	0	561	480	0	0	0	0	
11	0	0	0	0	559	481	0	0	0	0	
12	0	0	0	0	558	482	0	0	0	0	
13	0	0	0	0	557	482	0	0	0	0	
14	0	0	0	0	555	483	0	0	0	0	
15	0	0	0	0	555	484	0	0	0	0	
0	0	0	0	0	554	484	0	0	0	0	
1	0	0	0	0	553	483	0	0	0	0	
2	0	0	0	0	551	481	0	0	0	0	
3	0	0	0	0	550	480	0	0	0	0	
4	0	0	0	0	549	477	0	0	0	0	
5	0	0	0	0	547	473	0	0	0	0	
6	0	0	0	0	544	470	0	0	0	0	
7	0	0	0	0	540	466	0	0	0	0	
8	0	0	0	0	537	462	0	0	0	0	
9	0	0	0	0	534	460	0	0	0	0	
10	0	0	0	0	532	458	0	0	0	0	
11	0	0	0	0	532	458	0	0	0	0	
12	0	0	0	0	533	459	0	0	0	0	
13	0	0	0	0	534	462	0	0	0	0	
14	0	0	0	0	537	465	0	0	0	0	
15	0	0	0	0	541	468	0	0	0	0	
0	0	0	0	0	543	471	0	0	0	0	
1	0	0	0	0	547	473	0	0	0	0	
2	0	0	0	0	549	476	0	0	0	0	
3	0	0	0	0	552	478	0	0	0	0	
4	0	0	0	0	555	480	0	0	0	0	
5	0	0	0	0	557	482	0	0	0	0	
6	0	0	0	0	558	484	0	0	0	0	
7	0	0	0	0	560	486	0	0	0	0	
8	0	0	0	0	562	486	0	0	0	0	
9	0	0	0	0	562	486	0	0	0	0	
10	0	0	0	0	561	485	0	0	0	0	
11	0	0	0	0	559	482	0	0	0	0	
12	0	0	0	0	555	479	0	0	0	0	
13	0	0	0	0	551	476	0	0	0	0	
14	0	0	0	0	546	472	0	0	0	0	
15	0	0	0	0	540	467	0	0	0	0	
0	0	0	0	0	533	461	0	0	0	0	
1	0	0	0	0	525	455	0	0	0	0	
2	0	0	0	0	516	449	0	0	0	0	
3	0	0	0	0	508	442	0	0	0	0	
4	0	0	0	0	501	436	0	0	0	0	
5	0	0	0	0	495	432	0	0	0	0	
6	0	0	0	0	491	429	0	0	0	0	
7	0	0	0	0	490	428	0	0	0	0	
8	0	0	0	0	492	429	0	0	0	0	
9	0	0	0	0	496	431	0	0	0	0	
10	0	0	0	0	504	436	0	0	0	0	
11	0	0	0	0	513	442	0	0	0	0	
12	0	0	0	0	525	450	0	0	0	0	
13	0	0	0	0	537	460	0	0	0	0	
14	0	0	0	0	551	469	0	0	0	0	
15	0	0	0	0	563	479	0	0	0	0	
0	0	0	0	0	573	487	0	0	0	0	
1	0	0	0	0	582	496	0	0	0	0	
2	0	0	0	0	588	502	0	0	0	0	
3	0	0	0	0	591	506	0	0	0	0	
4	0	0	0	0	590	508	0	0	0	0	
5	0	0	0	0	588	509	0	0	0	0	
6	0	0	0	0	582	507	0	0	0	0	
7	0	0	0	0	574	503	0	0	0	0	
8	0	0	0	0	564	498	0	0	0	0	
9	0	0	0	0	555	491	0	0	0	0	
10	0	0	0	0	544	483	0	0	0	0	
11	0	0	0	0	535	476	0	0	0	0	
12	0	0	0	0	527	468	0	0	0	0	
13	0	0	0	0	521	461	0	0	0	0	
14	0	0	0	0	516	455	0	0	0	0	
15	0	0	0	0	513	450	0	0	0	0	
0	0	0	0	0	513	446	0	0	0	0	
1	0	0	0	0	514	444	0	0	0	0	
2	0	0	0	0	517	444	0	0	0	0	
3	0	0	0	0	521	444	0	0	0	0	
4	0	0	0	0	527	447	0	0	0	0	
5	0	0	0	0	534	451	0	0	0	0	
6	0	0	0	0	542	457	0	0	0	0	
7	0	0	0	0	550	463	0	0	0	0	
8	0	0	0	0	558	471	0	0	0	0	
9	0	0	0	0	567	479	0	0	0	0	
10	0	0	0	0	575	488	0	0	0	0	
11	0	0	0	0	582	496	0	0	0	0	
12	0	0	0	0	588	504	0	0	0	0	
13	0	0	0	0	593	510	0	0	0	0	
14	0	0	0	0	595	515	0	0	0	0	
15	0	0	0	0	597	520	0	0	0	0	
0	0	0	0	0	595	521	0	0	0	0	
1	0	0	0	0	591	521	0	0	0	0	
2	0	0	0	0	585	519	0	0	0	0	
3	0	0	0	0	577	514	0	0	0	0	
4	0	0	0	0	568	508	0	0	0	0	
5	0	0	0	0	558	501	0	0	0	0	
6	0	0	0	0	550	493	0	0	0	0	
7	0	0	0	0	542	486	0	0	0	0	
8	0	0	0	0	536	480	0	0	0	0	
9	0	0	0	0	533	475	0	0	0	0	
10	0	0	0	0	531	472	0	0	0	0	
11	0	0	0	0	532	469	0	0	0	0	
12	0	0	0	0	534	469	0	0	0	0	
13	0	0	0	0	536	468	0	0	0	0	
14	0	0	0	0	539	469	0	0	0	0	
15	0	0	0	0	542	470	0	0	0	0	
0	0	0	0	0	543	470	0	0	0	0	
1	0	0	0	0	543	468	0	0	0	0	
2	0	0	0	0	543	468	0	0	0	0	
3	0	0	0	0	543	467	0	0	0	0	
4	0	0	0	0	542	466	0	0	0	0	
5	0	0	0	0	540	465	0	0	0	0	
6	0	0	0	0	539	463	0	0	0	0	
7	0	0	0	0	538	463	0	0	0	0	
8	0	0	0	0	537	462	0	0	0	0	
9	0	0	0	0	536	462	0	0	0	0	
10	0	0	0	0	535	461	0	0	0	0	
11	0	0	0	0	535	461	0	0	0	0	
12	0	0	0	0	535	461	0	0	0	0	
13	0	0	0	0	535	462	0	0	0	0	
14	0	0	0	0	536	463	0	0	0	0	
15	0	0	0	0	537	464	0	0	0	0	
0	0	0	0	0	539	465	0	0	0	0	
1	0	0	0	0	540	466	0	0	0	0	
2	0	0	0	0	541	467	0	0	0	0	
3	0	0	0	0	540	465	0	0	0	0	
4	0	0	0	0	538	463	0	0	0	0	
5	0	0	0	0	533	459	0	0	0	0	
6	0	0	0	0	526	453	0	0	0	0	
7	0	0	0	0	517	444	0	0	0	0	
8	0	0	0	0	505	434	0	0	0	0	
9	0	0	0	0	492	421	0	0	0	0	
10	0	0	0	0	477	407	0	0	0	0	
11	0	0	0	0	461	393	0	0	0	0	
12	0	0	0	0	446	378	0	0	0	0	
13	0	0	0	0	430	363	0	0	0	0	
14	0	0	0	0	414	348	0	0	0	0	
15	0	0	0	0	399	334	0	0	0	0	
0	0	0	0	0	385	320	0	0	0	0	
1	0	0	0	0	371	307	0	0	0	0	
2	0	0	0	0	359	295	0	0	0	0	
3	0	0	0	0	348	285	0	0	0	0	
4	0	0	0	0	337	276	0	0	0	0	
5	0	0	0	0	329	268	0	0	0	0	
6	0	0	0	0	323	263	0	0	0	0	
7	0	0	0	0	319	260	0	0	0	0	
8	0	0	0	0	319	260	0	0	0	0	
9	0	0	0	0	321	262	0	0	0	0	
10	0	0	0	0	327	267	0	0	0	0	
11	0	0	0	0	335	274	0	0	0	0	
12	0	0	0	0	346	283	0	0	0	0	
13	0	0	0	0	359	292	0	0	0	0	
14	0	0	0	0	372	301	0	0	0	0	
15	0	0	0	0	386	311	0	0	0	0	
0	0	0	0	0	400	321	0	0	0	0	
1	0	0	0	0	415	332	0	0	0	0	
2	0	0	0	0	431	344	0	0	0	0	
3	0	0	0	0	446	356	0	0	0	0	
4	0	0	0	0	463	369	0	0	0	0	
5	0	0	0	0	479	384	0	0	0	0	
6	0	0	0	0	496	399	0	0	0	0	
7	0	0	0	0	512	417	0	0	0	0	
8	0	0	0	0	529	435	0	0	0	0	
9	0	0	0	0	544	453	0	0	0	0	
10	0	0	0	0	559	471	0	0	0	0	
11	0	0	0	0	572	488	0	0	0	0	
12	0	0	0	0	582	503	0	0	0	0	
13	0	0	0	0	590	514	0	0	0	0	
14	0	0	0	0	593	523	0	0	0	0	
15	0	0	0	0	595	528	0	0	0	0	
0	0	0	0	0	595	531	0	0	0	0	
1	0	0	0	0	593	531	0	0	0	0	
2	0	0	0	0	589	527	0	0	0	0	
3	0	0	0	0	584	522	0	0	0	0	
4	0	0	0	0	579	515	0	0	0	0	
5	0	0	0	0	574	506	0	0	0	0	
6	0	0	0	0	569	498	0	0	0	0	
7	0	0	0	0	566	491	0	0	0	0	
8	0	0	0	0	563	484	0	0	0	0	
9	0	0	0	0	561	480	0	0	0	0	
10	0	0	0	0	561	478	0	0	0	0	
11	0	0	0	0	561	476	0	0	0	0	
12	0	0	0	0	561	476	0	0	0	0	
13	0	0	0	0	562	478	0	0	0	0	
14	0	0	0	0	563	480	0	0	0	0	
15	0	0	0	0	563	482	0	0	0	0	
0	0	0	0	0	563	484	0	0	0	0	
1	0	0	0	0	563	486	0	0	0	0	
2	0	0	0	0	561	487	0	0	0	0	
3	0	0	0	0	560	489	0	0	0	0	
4	0	0	0	0	558	488	0	0	0	0	
5	0	0	0	0	556	487	0	0	0	0	
6	0	0	0	0	553	485	0	0	0	0	
7	0	0	0	0	552	484	0	0	0	0	
8	0	0	0	0	551	483	0	0	0	0	
9	0	0	0	0	551	482	0	0	0	0	
10	0	0	0	0	551	481	0	0	0	0	
11	0	0	0	0	552	481	0	0	0	0	
12	0	0	0	0	553	481	0	0	0	0	
13	0	0	0	0	556	483	0	0	0	0	
14	0	0	0	0	559	486	0	0	0	0	
15	0	0	0	0	562	488	0	0	0	0	
0	0	0	0	0	566	492	0	0	0	0	
1	0	0	0	0	569	496	0	0	0	0	
2	0	0	0	0	574	500	0	0	0	0	
3	0	0	0	0	577	504	0	0	0	0	
4	0	0	0	0	580	508	0	0	0	0	
5	0	0	0	0	583	511	0	0	0	0	
6	0	0	0	0	584	513	0	0	0	0	
7	0	0	0	0	584	515	0	0	0	0	
8	0	0	0	0	583	515	0	0	0	0	
9	0	0	0	0	582	514	0	0	0	0	
10	0	0	0	0	579	511	0	0	0	0	
11	0	0	0	0	574	508	0	0	0	0	
12	0	0	0	0	569	504	0	0	0	0	
13	0	0	0	0	564	499	0	0	0	0	
14	0	0	0	0	558	493	0	0	0	0	
15	0	0	0	0	552	487	0	0	0	0	
0	0	0	0	0	547	482	0	0	0	0	
1	0	0	0	0	545	480	0	0	0	0	
2	0	0	0	0	545	479	0	0	0	0	
3	0	0	0	0	547	479	0	0	0	0	
4	0	0	0	0	551	481	0	0	0	0	
5	0	0	0	0	557	485	0	0	0	0	
6	0	0	0	0	564	491	0	0	0	0	
7	0	0	0	0	573	496	0	0	0	0	
8	0	0	0	0	580	502	0	0	0	0	
9	0	0	0	0	586	506	0	0	0	0	
10	0	0	0	0	591	510	0	0	0	0	
11	0	0	0	0	593	512	0	0	0	0	
12	0	0	0	0	592	511	0	0	0	0	
13	0	0	0	0	587	507	0	0	0	0	
14	0	0	0	0	580	502	0	0	0	0	
15	0	0	0	0	569	494	0	0	0	0	
0	0	0	0	0	558	485	0	0	0	0	
1	0	0	0	0	545	477	0	0	0	0	
2	0	0	0	0	534	469	0	0	0	0	
3	0	0	0	0	527	463	0	0	0	0	
4	0	0	0	0	521	461	0	0	0	0	
5	0	0	0	0	521	462	0	0	0	0	
6	0	0	0	0	525	465	0	0	0	0	
7	0	0	0	0	531	471	0	0	0	0	
8	0	0	0	0	540	478	0	0	0	0	
9	0	0	0	0	549	485	0	0	0	0	
10	0	0	0	0	559	492	0	0	0	0	
11	0	0	0	0	568	499	0	0	0	0	
12	0	0	0	0	576	504	0	0	0	0	
13	0	0	0	0	582	508	0	0	0	0	
14	0	0	0	0	588	512	0	0	0	0	
15	0	0	0	0	592	515	0	0	0	0	
0	0	0	0	0	594	516	0	0	0	0	
1	0	0	0	0	593	515	0	0	0	0	
2	0	0	0	0	591	513	0	0	0	0	
3	0	0	0	0	587	510	0	0	0	0	
4	0	0	0	0	582	505	0	0	0	0	
5	0	0	0	0	577	500	0	0	0	0	
6	0	0	0	0	571	495	0	0	0	0	
7	0	0	0	0	566	491	0	0	0	0	
8	0	0	0	0	562	488	0	0	0	0	
9	0	0	0	0	560	487	0	0	0	0	
10	0	0	0	0	560	487	0	0	0	0	
11	0	0	0	0	561	489	0	0	0	0	
12	0	0	0	0	564	492	0	0	0	0	
13	0	0	0	0	568	497	0	0	0	0	
14	0	0	0	0	574	503	0	0	0	0	
15	0	0	0	0	579	508	0	0	0	0	
0	0	0	0	0	584	513	0	0	0	0	
1	0	0	0	0	589	518	0	0	0	0	
2	0	0	0	0	592	521	0	0	0	0	
3	0	0	0	0	595	523	0	0	0	0	
4	0	0	0	0	595	524	0	0	0	0	
5	0	0	0	0	593	522	0	0	0	0	
6	0	0	0	0	590	519	0	0	0	0	
7	0	0	0	0	585	515	0	0	0	0	
8	0	0	0	0	580	510	0	0	0	0	
9	0	0	0	0	574	505	0	0	0	0	
10	0	0	0	0	568	499	0	0	0	0	
11	0	0	0	0	563	495	0	0	0	0	
12	0	0	0	0	557	491	0	0	0	0	
13	0	0	0	0	553	487	0	0	0	0	
14	0	0	0	0	551	484	0	0	0	0	
15	0	0	0	0	550	483	0	0	0	0	
0	0	0	0	0	550	484	0	0	0	0	
1	0	0	0	0	551	486	0	0	0	0	
2	0	0	0	0	554	489	0	0	0	0	
3	0	0	0	0	558	492	0	0	0	0	
4	0	0	0	0	563	497	0	0	0	0	
5	0	0	0	0	568	502	0	0	0	0	
6	0	0	0	0	574	508	0	0	0	0	
7	0	0	0	0	579	513	0	0	0	0	
8	0	0	0	0	583	517	0	0	0	0	
9	0	0	0	0	587	521	0	0	0	0	
10	0	0	0	0	590	524	0	0	0	0	
11	0	0	0	0	593	527	0	0	0	0	
12	0	0	0	0	594	528	0	0	0	0	
13	0	0	0	0	594	527	0	0	0	0	
14	0	0	0	0	592	525	0	0	0	0	
15	0	0	0	0	587	520	0	0	0	0	
0	0	0	0	0	580	513	0	0	0	0	
1	0	0	0	0	572	506	0	0	0	0	
2	0	0	0	0	564	499	0	0	0	0	
3	0	0	0	0	556	492	0	0	0	0	
4	0	0	0	0	549	487	0	0	0	0	
5	0	0	0	0	544	484	0	0	0	0	
6	0	0	0	0	542	482	0	0	0	0	
7	0	0	0	0	541	482	0	0	0	0	
8	0	0	0	0	542	482	0	0	0	0	
9	0	0	0	0	543	483	0	0	0	0	
10	0	0	0	0	546	485	0	0	0	0	
11	0	0	0	0	550	487	0	0	0	0	
12	0	0	0	0	553	488	0	0	0	0	
13	0	0	0	0	556	490	0	0	0	0	
14	0	0	0	0	558	489	0	0	0	0	
15	0	0	0	0	560	489	0	0	0	0	
0	0	0	0	0	560	487	0	0	0	0	
1	0	0	0	0	560	486	0	0	0	0	
2	0	0	0	0	560	484	0	0	0	0	
3	0	0	0	0	559	483	0	0	0	0	
4	0	0	0	0	559	483	0	0	0	0	
5	0	0	0	0	559	483	0	0	0	0	
6	0	0	0	0	559	484	0	0	0	0	
7	0	0	0	0	560	486	0	0	0	0	
8	0	0	0	0	560	488	0	0	0	0	
9	0	0	0	0	561	491	0	0	0	0	
10	0	0	0	0	562	493	0	0	0	0	
11	0	0	0	0	563	495	0	0	0	0	
12	0	0	0	0	564	497	0	0	0	0	
13	0	0	0	0	567	500	0	0	0	0	
14	0	0	0	0	568	502	0	0	0	0	
15	0	0	0	0	571	504	0	0	0	0	
0	0	0	0	0	573	505	0	0	0	0	
1	0	0	0	0	575	506	0	0	0	0	
2	0	0	0	0	577	507	0	0	0	0	
3	0	0	0	0	579	507	0	0	0	0	
4	0	0	0	0	580	507	0	0	0	0	
5	0	0	0	0	582	507	0	0	0	0	
6	0	0	0	0	583	507	0	0	0	0	
7	0	0	0	0	584	508	0	0	0	0	
8	0	0	0	0	585	509	0	0	0	0	
9	0	0	0	0	585	510	0	0	0	0	
10	0	0	0	0	585	510	0	0	0	0	
11	0	0	0	0	583	511	0	0	0	0	
12	0	0	0	0	581	510	0	0	0	0	
13	0	0	0	0	577	509	0	0	0	0	
14	0	0	0	0	573	507	0	0	0	0	
15	0	0	0	0	568	504	0	0	0	0	
0	0	0	0	0	562	502	0	0	0	0	
1	0	0	0	0	557	499	0	0	0	0	
2	0	0	0	0	553	496	0	0	0	0	
3	0	0	0	0	551	494	0	0	0	0	
4	0	0	0	0	549	493	0	0	0	0	
5	0	0	0	0	550	492	0	0	0	0	
6	0	0	0	0	551	492	0	0	0	0	
7	0	0	0	0	555	493	0	0	0	0	
8	0	0	0	0	559	495	0	0	0	0	
9	0	0	0	0	563	496	0	0	0	0	
10	0	0	0	0	567	498	0	0	0	0	
11	0	0	0	0	571	499	0	0	0	0	
12	0	0	0	0	574	501	0	0	0	0	
13	0	0	0	0	579	504	0	0	0	0	
14	0	0	0	0	583	507	0	0	0	0	
15	0	0	0	0	587	511	0	0	0	0	
0	0	0	0	0	590	515	0	0	0	0	
1	0	0	0	0	592	519	0	0	0	0	
2	0	0	0	0	593	522	0	0	0	0	
3	0	0	0	0	592	523	0	0	0	0	
4	0	0	0	0	590	523	0	0	0	0	
5	0	0	0	0	585	520	0	0	0	0	
6	0	0	0	0	577	515	0	0	0	0	
7	0	0	0	0	569	508	0	0	0	0	
8	0	0	0	0	560	499	0	0	0	0	
9	0	0	0	0	550	490	0	0	0	0	
10	0	0	0	0	541	480	0	0	0	0	
11	0	0	0	0	533	471	0	0	0	0	
12	0	0	0	0	527	463	0	0	0	0	
13	0	0	0	0	524	457	0	0	0	0	
14	0	0	0	0	522	453	0	0	0	0	
15	0	0	0	0	522	451	0	0	0	0	
0	0	0	0	0	523	450	0	0	0	0	
1	0	0	0	0	527	452	0	0	0	0	
2	0	0	0	0	531	455	0	0	0	0	
3	0	0	0	0	536	460	0	0	0	0	
4	0	0	0	0	542	465	0	0	0	0	
5	0	0	0	0	549	472	0	0	0	0	
6	0	0	0	0	556	478	0	0	0	0	
7	0	0	0	0	561	484	0	0	0	0	
8	0	0	0	0	566	489	0	0	0	0	
9	0	0	0	0	569	493	0	0	0	0	
10	0	0	0	0	572	496	0	0	0	0	
11	0	0	0	0	574	498	0	0	0	0	
12	0	0	0	0	574	499	0	0	0	0	
13	0	0	0	0	572	498	0	0	0	0	
14	0	0	0	0	570	496	0	0	0	0	
15	0	0	0	0	567	494	0	0	0	0	
0	0	0	0	0	563	491	0	0	0	0	
1	0	0	0	0	559	487	0	0	0	0	
2	0	0	0	0	556	485	0	0	0	0	
3	0	0	0	0	553	483	0	0	0	0	
4	0	0	0	0	552	482	0	0	0	0	
5	0	0	0	0	552	482	0	0	0	0	
6	0	0	0	0	554	483	0	0	0	0	
7	0	0	0	0	557	486	0	0	0	0	
8	0	0	0	0	561	489	0	0	0	0	
9	0	0	0	0	567	495	0	0	0	0	
10	0	0	0	0	574	501	0	0	0	0	
11	0	0	0	0	580	507	0	0	0	0	
12	0	0	0	0	586	512	0	0	0	0	
13	0	0	0	0	589	516	0	0	0	0	
14	0	0	0	0	590	517	0	0	0	0	
15	0	0	0	0	589	515	0	0	0	0	
0	0	0	0	0	584	511	0	0	0	0	
1	0	0	0	0	578	505	0	0	0	0	
2	0	0	0	0	570	499	0	0	0	0	
3	0	0	0	0	561	492	0	0	0	0	
4	0	0	0	0	554	485	0	0	0	0	
5	0	0	0	0	547	479	0	0	0	0	
6	0	0	0	0	542	476	0	0	0	0	
7	0	0	0	0	540	475	0	0	0	0	
8	0	0	0	0	540	476	0	0	0	0	
9	0	0	0	0	543	479	0	0	0	0	
10	0	0	0	0	547	483	0	0	0	0	
11	0	0	0	0	552	488	0	0	0	0	
12	0	0	0	0	558	493	0	0	0	0	
13	0	0	0	0	561	496	0	0	0	0	
14	0	0	0	0	564	499	0	0	0	0	
15	0	0	0	0	565	499	0	0	0	0	
0	0	0	0	0	564	498	0	0	0	0	
1	0	0	0	0	560	495	0	0	0	0	
2	0	0	0	0	555	491	0	0	0	0	
3	0	0	0	0	550	487	0	0	0	0	
4	0	0	0	0	543	483	0	0	0	0	
5	0	0	0	0	538	478	0	0	0	0	
6	0	0	0	0	532	473	0	0	0	0	
7	0	0	0	0	530	471	0	0	0	0	
8	0	0	0	0	530	469	0	0	0	0	
9	0	0	0	0	531	468	0	0	0	0	
10	0	0	0	0	534	468	0	0	0	0	
11	0	0	0	0	537	469	0	0	0	0	
12	0	0	0	0	542	471	0	0	0	0	
13	0	0	0	0	549	474	0	0	0	0	
14	0	0	0	0	556	478	0	0	0	0	
15	0	0	0	0	562	482	0	0	0	0	
0	0	0	0	0	568	487	0	0	0	0	
1	0	0	0	0	575	492	0	0	0	0	
2	0	0	0	0	579	496	0	0	0	0	
3	0	0	0	0	583	500	0	0	0	0	
4	0	0	0	0	584	503	0	0	0	0	
5	0	0	0	0	584	504	0	0	0	0	
6	0	0	0	0	582	504	0	0	0	0	
7	0	0	0	0	579	503	0	0	0	0	
8	0	0	0	0	574	501	0	0	0	0	
9	0	0	0	0	569	498	0	0	0	0	
10	0	0	0	0	564	494	0	0	0	0	
11	0	0	0	0	558	490	0	0	0	0	
12	0	0	0	0	555	487	0	0	0	0	
13	0	0	0	0	552	485	0	0	0	0	
14	0	0	0	0	551	484	0	0	0	0	
15	0	0	0	0	552	485	0	0	0	0	
0	0	0	0	0	555	487	0	0	0	0	
1	0	0	0	0	560	492	0	0	0	0	
2	0	0	0	0	567	497	0	0	0	0	
3	0	0	0	0	574	504	0	0	0	0	
4	0	0	0	0	582	512	0	0	0	0	
5	0	0	0	0	590	520	0	0	0	0	
6	0	0	0	0	598	527	0	0	0	0	
7	0	0	0	0	603	532	0	0	0	0	
8	0	0	0	0	607	535	0	0	0	0	
9	0	0	0	0	607	535	0	0	0	0	
10	0	0	0	0	604	531	0	0	0	0	
11	0	0	0	0	598	525	0	0	0	0	
12	0	0	0	0	589	516	0	0	0	0	
13	0	0	0	0	579	505	0	0	0	0	
14	0	0	0	0	566	493	0	0	0	0	
15	0	0	0	0	553	480	0	0	0	0	
0	0	0	0	0	541	468	0	0	0	0	
1	0	0	0	0	529	457	0	0	0	0	
2	0	0	0	0	520	448	0	0	0	0	
3	0	0	0	0	513	441	0	0	0	0	
4	0	0	0	0	508	437	0	0	0	0	
5	0	0	0	0	509	437	0	0	0	0	
6	0	0	0	0	512	441	0	0	0	0	
7	0	0	0	0	520	448	0	0	0	0	
8	0	0	0	0	530	457	0	0	0	0	
9	0	0	0	0	543	468	0	0	0	0	
10	0	0	0	0	557	481	0	0	0	0	
11	0	0	0	0	570	494	0	0	0	0	
12	0	0	0	0	583	505	0	0	0	0	
13	0	0	0	0	593	515	0	0	0	0	
14	0	0	0	0	600	521	0	0	0	0	
15	0	0	0	0	604	526	0	0	0	0	
0	0	0	0	0	604	527	0	0	0	0	
1	0	0	0	0	601	524	0	0	0	0	
2	0	0	0	0	596	519	0	0	0	0	
3	0	0	0	0	588	512	0	0	0	0	
4	0	0	0	0	580	505	0	0	0	0	
5	0	0	0	0	571	497	0	0	0	0	
6	0	0	0	0	562	489	0	0	0	0	
7	0	0	0	0	554	483	0	0	0	0	
8	0	0	0	0	546	477	0	0	0	0	
9	0	0	0	0	542	473	0	0	0	0	
10	0	0	0	0	539	472	0	0	0	0	
11	0	0	0	0	539	473	0	0	0	0	
12	0	0	0	0	541	476	0	0	0	0	
13	0	0	0	0	545	480	0	0	0	0	
14	0	0	0	0	550	486	0	0	0	0	
15	0	0	0	0	553	489	0	0	0	0	
0	0	0	0	0	556	491	0	0	0	0	
1	0	0	0	0	556	491	0	0	0	0	
2	0	0	0	0	553	488	0	0	0	0	
3	0	0	0	0	550	484	0	0	0	0	
4	0	0	0	0	544	479	0	0	0	0	
5	0	0	0	0	539	473	0	0	0	0	
6	0	0	0	0	532	468	0	0	0	0	
7	0	0	0	0	529	465	0	0	0	0	
8	0	0	0	0	527	463	0	0	0	0	
9	0	0	0	0	527	462	0	0	0	0	
10	0	0	0	0	529	464	0	0	0	0	
11	0	0	0	0	535	468	0	0	0	0	
12	0	0	0	0	542	473	0	0	0	0	
13	0	0	0	0	551	481	0	0	0	0	
14	0	0	0	0	560	488	0	0	0	0	
15	0	0	0	0	570	496	0	0	0	0	
0	0	0	0	0	579	503	0	0	0	0	
1	0	0	0	0	586	509	0	0	0	0	
2	0	0	0	0	592	514	0	0	0	0	
3	0	0	0	0	597	518	0	0	0	0	
4	0	0	0	0	598	519	0	0	0	0	
5	0	0	0	0	596	517	0	0	0	0	
6	0	0	0	0	591	513	0	0	0	0	
7	0	0	0	0	585	508	0	0	0	0	
8	0	0	0	0	576	501	0	0	0	0	
9	0	0	0	0	568	494	0	0	0	0	
10	0	0	0	0	560	487	0	0	0	0	
11	0	0	0	0	551	481	0	0	0	0	
12	0	0	0	0	546	476	0	0	0	0	
13	0	0	0	0	542	472	0	0	0	0	
14	0	0	0	0	540	470	0	0	0	0	
15	0	0	0	0	540	469	0	0	0	0	
0	0	0	0	0	542	470	0	0	0	0	
1	0	0	0	0	545	472	0	0	0	0	
2	0	0	0	0	550	476	0	0	0	0	
3	0	0	0	0	556	480	0	0	0	0	
4	0	0	0	0	560	483	0	0	0	0	
5	0	0	0	0	565	487	0	0	0	0	
6	0	0	0	0	569	491	0	0	0	0	
7	0	0	0	0	572	495	0	0	0	0	
8	0	0	0	0	573	497	0	0	0	0	
9	0	0	0	0	573	498	0	0	0	0	
10	0	0	0	0	572	499	0	0	0	0	
11	0	0	0	0	572	501	0	0	0	0	
12	0	0	0	0	571	502	0	0	0	0	
13	0	0	0	0	569	502	0	0	0	0	
14	0	0	0	0	566	500	0	0	0	0	
15	0	0	0	0	563	498	0	0	0	0	
0	0	0	0	0	559	496	0	0	0	0	
1	0	0	0	0	557	494	0	0	0	0	
2	0	0	0	0	553	491	0	0	0	0	
3	0	0	0	0	552	489	0	0	0	0	
4	0	0	0	0	550	486	0	0	0	0	
5	0	0	0	0	548	484	0	0	0	0	
6	0	0	0	0	547	481	0	0	0	0	
7	0	0	0	0	547	478	0	0	0	0	
8	0	0	0	0	546	475	0	0	0	0	
9	0	0	0	0	545	473	0	0	0	0	
10	0	0	0	0	547	474	0	0	0	0	
11	0	0	0	0	549	475	0	0	0	0	
12	0	0	0	0	552	477	0	0	0	0	
13	0	0	0	0	556	481	0	0	0	0	
14	0	0	0	0	560	485	0	0	0	0	
15	0	0	0	0	566	491	0	0	0	0	
0	0	0	0	0	570	495	0	0	0	0	
1	0	0	0	0	573	497	0	0	0	0	
2	0	0	0	0	574	498	0	0	0	0	
3	0	0	0	0	574	498	0	0	0	0	
4	0	0	0	0	572	496	0	0	0	0	
5	0	0	0	0	569	492	0	0	0	0	
6	0	0	0	0	564	487	0	0	0	0	
7	0	0	0	0	559	482	0	0	0	0	
8	0	0	0	0	552	477	0	0	0	0	
9	0	0	0	0	548	472	0	0	0	0	
10	0	0	0	0	544	470	0	0	0	0	
11	0	0	0	0	542	468	0	0	0	0	
12	0	0	0	0	543	469	0	0	0	0	
13	0	0	0	0	545	472	0	0	0	0	
14	0	0	0	0	550	476	0	0	0	0	
15	0	0	0	0	555	482	0	0	0	0	
0	0	0	0	0	562	489	0	0	0	0	
1	0	0	0	0	569	497	0	0	0	0	
2	0	0	0	0	575	504	0	0	0	0	
3	0	0	0	0	583	511	0	0	0	0	
4	0	0	0	0	588	516	0	0	0	0	
5	0	0	0	0	592	520	0	0	0	0	
6	0	0	0	0	593	523	0	0	0	0	
7	0	0	0	0	593	522	0	0	0	0	
8	0	0	0	0	591	520	0	0	0	0	
9	0	0	0	0	587	515	0	0	0	0	
10	0	0	0	0	580	509	0	0	0	0	
11	0	0	0	0	572	502	0	0	0	0	
12	0	0	0	0	563	494	0	0	0	0	
13	0	0	0	0	556	487	0	0	0	0	
14	0	0	0	0	548	480	0	0	0	0	
15	0	0	0	0	542	475	0	0	0	0	
0	0	0	0	0	537	470	0	0	0	0	
1	0	0	0	0	534	467	0	0	0	0	
2	0	0	0	0	532	465	0	0	0	0	
3	0	0	0	0	531	465	0	0	0	0	
4	0	0	0	0	532	465	0	0	0	0	
5	0	0	0	0	533	468	0	0	0	0	
6	0	0	0	0	536	471	0	0	0	0	
7	0	0	0	0	539	474	0	0	0	0	
8	0	0	0	0	542	477	0	0	0	0	
9	0	0	0	0	544	479	0	0	0	0	
10	0	0	0	0	544	479	0	0	0	0	
11	0	0	0	0	542	479	0	0	0	0	
12	0	0	0	0	540	476	0	0	0	0	
13	0	0	0	0	537	474	0	0	0	0	
14	0	0	0	0	535	471	0	0	0	0	
15	0	0	0	0	533	468	0	0	0	0	
0	0	0	0	0	532	466	0	0	0	0	
1	0	0	0	0	534	465	0	0	0	0	
2	0	0	0	0	536	464	0	0	0	0	
3	0	0	0	0	540	465	0	0	0	0	
4	0	0	0	0	544	466	0	0	0	0	
5	0	0	0	0	550	468	0	0	0	0	
6	0	0	0	0	556	471	0	0	0	0	
7	0	0	0	0	563	475	0	0	0	0	
8	0	0	0	0	569	480	0	0	0	0	
9	0	0	0	0	574	485	0	0	0	0	
10	0	0	0	0	579	491	0	0	0	0	
11	0	0	0	0	584	496	0	0	0	0	
12	0	0	0	0	587	500	0	0	0	0	
13	0	0	0	0	588	503	0	0	0	0	
14	0	0	0	0	585	504	0	0	0	0	
15	0	0	0	0	582	504	0	0	0	0	
0	0	0	0	0	575	500	0	0	0	0	
1	0	0	0	0	567	495	0	0	0	0	
2	0	0	0	0	557	488	0	0	0	0	
3	0	0	0	0	546	480	0	0	0	0	
4	0	0	0	0	535	472	0	0	0	0	
5	0	0	0	0	525	464	0	0	0	0	
6	0	0	0	0	516	457	0	0	0	0	
7	0	0	0	0	511	452	0	0	0	0	
8	0	0	0	0	508	448	0	0	0	0	
9	0	0	0	0	508	448	0	0	0	0	
10	0	0	0	0	512	449	0	0	0	0	
11	0	0	0	0	519	452	0	0	0	0	
12	0	0	0	0	528	457	0	0	0	0	
13	0	0	0	0	539	464	0	0	0	0	
14	0	0	0	0	551	472	0	0	0	0	
15	0	0	0	0	563	480	0	0	0	0	
0	0	0	0	0	575	488	0	0	0	0	
1	0	0	0	0	584	495	0	0	0	0	
2	0	0	0	0	591	500	0	0	0	0	
3	0	0	0	0	596	504	0	0	0	0	
4	0	0	0	0	598	506	0	0	0	0	
5	0	0	0	0	596	505	0	0	0	0	
6	0	0	0	0	591	504	0	0	0	0	
7	0	0	0	0	585	500	0	0	0	0	
8	0	0	0	0	576	495	0	0	0	0	
9	0	0	0	0	567	490	0	0	0	0	
10	0	0	0	0	557	484	0	0	0	0	
11	0	0	0	0	548	480	0	0	0	0	
12	0	0	0	0	540	476	0	0	0	0	
13	0	0	0	0	535	473	0	0	0	0	
14	0	0	0	0	533	472	0	0	0	0	
15	0	0	0	0	532	471	0	0	0	0	
0	0	0	0	0	534	472	0	0	0	0	
1	0	0	0	0	536	472	0	0	0	0	
2	0	0	0	0	539	472	0	0	0	0	
3	0	0	0	0	543	473	0	0	0	0	
4	0	0	0	0	545	472	0	0	0	0	
5	0	0	0	0	547	471	0	0	0	0	
6	0	0	0	0	547	468	0	0	0	0	
7	0	0	0	0	545	465	0	0	0	0	
8	0	0	0	0	543	463	0	0	0	0	
9	0	0	0	0	541	459	0	0	0	0	
10	0	0	0	0	538	457	0	0	0	0	
11	0	0	0	0	536	455	0	0	0	0	
12	0	0	0	0	535	455	0	0	0	0	
13	0	0	0	0	535	456	0	0	0	0	
14	0	0	0	0	536	458	0	0	0	0	
15	0	0	0	0	537	461	0	0	0	0	
0	0	0	0	0	541	465	0	0	0	0	
1	0	0	0	0	545	470	0	0	0	0	
2	0	0	0	0	550	476	0	0	0	0	
3	0	0	0	0	555	481	0	0	0	0	
4	0	0	0	0	561	487	0	0	0	0	
5	0	0	0	0	566	491	0	0	0	0	
6	0	0	0	0	569	495	0	0	0	0	
7	0	0	0	0	572	497	0	0	0	0	
8	0	0	0	0	572	497	0	0	0	0	
9	0	0	0	0	569	495	0	0	0	0	
10	0	0	0	0	564	492	0	0	0	0	
11	0	0	0	0	557	485	0	0	0	0	
12	0	0	0	0	549	479	0	0	0	0	
13	0	0	0	0	540	471	0	0	0	0	
14	0	0	0	0	529	462	0	0	0	0	
15	0	0	0	0	518	452	0	0	0	0	
0	0	0	0	0	506	441	0	0	0	0	
1	0	0	0	0	494	430	0	0	0	0	
2	0	0	0	0	481	416	0	0	0	0	
3	0	0	0	0	467	402	0	0	0	0	
4	0	0	0	0	451	386	0	0	0	0	
5	0	0	0	0	434	368	0	0	0	0	
6	0	0	0	0	416	351	0	0	0	0	
7	0	0	0	0	399	334	0	0	0	0	
8	0	0	0	0	381	316	0	0	0	0	
9	0	0	0	0	364	300	0	0	0	0	
10	0	0	0	0	349	284	0	0	0	0	
11	0	0	0	0	336	272	0	0	0	0	
12	0	0	0	0	326	261	0	0	0	0	
13	0	0	0	0	318	252	0	0	0	0	
14	0	0	0	0	313	247	0	0	0	0	
15	0	0	0	0	312	245	0	0	0	0	
0	0	0	0	0	315	245	0	0	0	0	
1	0	0	0	0	321	249	0	0	0	0	
2	0	0	0	0	330	256	0	0	0	0	
3	0	0	0	0	343	265	0	0	0	0	
4	0	0	0	0	358	278	0	0	0	0	
5	0	0	0	0	376	293	0	0	0	0	
6	0	0	0	0	396	309	0	0	0	0	
7	0	0	0	0	416	327	0	0	0	0	
8	0	0	0	0	437	345	0	0	0	0	
9	0	0	0	0	456	361	0	0	0	0	
10	0	0	0	0	473	377	0	0	0	0	
11	0	0	0	0	488	391	0	0	0	0	
12	0	0	0	0	499	403	0	0	0	0	
13	0	0	0	0	508	412	0	0	0	0	
14	0	0	0	0	515	421	0	0	0	0	
15	0	0	0	0	519	428	0	0	0	0	
0	0	0	0	0	523	433	0	0	0	0	
1	0	0	0	0	524	438	0	0	0	0	
2	0	0	0	0	526	441	0	0	0	0	
3	0	0	0	0	529	446	0	0	0	0	
4	0	0	0	0	532	452	0	0	0	0	
5	0	0	0	0	538	459	0	0	0	0	
6	0	0	0	0	545	465	0	0	0	0	
7	0	0	0	0	552	473	0	0	0	0	
8	0	0	0	0	561	482	0	0	0	0	
9	0	0	0	0	570	491	0	0	0	0	
10	0	0	0	0	578	499	0	0	0	0	
11	0	0	0	0	586	507	0	0	0	0	
12	0	0	0	0	593	514	0	0	0	0	
13	0	0	0	0	597	519	0	0	0	0	
14	0	0	0	0	601	524	0	0	0	0	
15	0	0	0	0	601	526	0	0	0	0	
0	0	0	0	0	600	526	0	0	0	0	
1	0	0	0	0	596	524	0	0	0	0	
2	0	0	0	0	591	520	0	0	0	0	
3	0	0	0	0	584	515	0	0	0	0	
4	0	0	0	0	576	508	0	0	0	0	
5	0	0	0	0	567	499	0	0	0	0	
6	0	0	0	0	558	489	0	0	0	0	
7	0	0	0	0	549	481	0	0	0	0	
8	0	0	0	0	542	472	0	0	0	0	
9	0	0	0	0	536	464	0	0	0	0	
10	0	0	0	0	532	459	0	0	0	0	
11	0	0	0	0	530	455	0	0	0	0	
12	0	0	0	0	530	454	0	0	0	0	
13	0	0	0	0	533	455	0	0	0	0	
14	0	0	0	0	538	460	0	0	0	0	
15	0	0	0	0	544	465	0	0	0	0	
0	0	0	0	0	551	472	0	0	0	0	
1	0	0	0	0	559	480	0	0	0	0	
2	0	0	0	0	568	488	0	0	0	0	
3	0	0	0	0	575	496	0	0	0	0	
4	0	0	0	0	582	502	0	0	0	0	
5	0	0	0	0	587	507	0	0	0	0	
6	0	0	0	0	590	510	0	0	0	0	
7	0	0	0	0	591	511	0	0	0	0	
8	0	0	0	0	590	510	0	0	0	0	
9	0	0	0	0	587	507	0	0	0	0	
10	0	0	0	0	582	503	0	0	0	0	
11	0	0	0	0	576	499	0	0	0	0	
12	0	0	0	0	571	494	0	0	0	0	
13	0	0	0	0	564	488	0	0	0	0	
14	0	0	0	0	559	484	0	0	0	0	
15	0	0	0	0	555	481	0	0	0	0	
0	0	0	0	0	551	478	0	0	0	0	
1	0	0	0	0	550	477	0	0	0	0	
2	0	0	0	0	550	477	0	0	0	0	
3	0	0	0	0	551	478	0	0	0	0	
4	0	0	0	0	554	480	0	0	0	0	
5	0	0	0	0	558	483	0	0	0	0	
6	0	0	0	0	561	485	0	0	0	0	
7	0	0	0	0	565	487	0	0	0	0	
8	0	0	0	0	568	489	0	0	0	0	
9	0	0	0	0	570	490	0	0	0	0	
10	0	0	0	0	571	491	0	0	0	0	
11	0	0	0	0	571	490	0	0	0	0	
12	0	0	0	0	569	488	0	0	0	0	
13	0	0	0	0	567	487	0	0	0	0	
14	0	0	0	0	563	484	0	0	0	0	
15	0	0	0	0	559	482	0	0	0	0	
0	0	0	0	0	555	479	0	0	0	0	
1	0	0	0	0	551	476	0	0	0	0	
2	0	0	0	0	547	474	0	0	0	0	
3	0	0	0	0	545	473	0	0	0	0	
4	0	0	0	0	542	472	0	0	0	0	
5	0	0	0	0	542	472	0	0	0	0	
6	0	0	0	0	542	472	0	0	0	0	
7	0	0	0	0	543	474	0	0	0	0	
8	0	0	0	0	547	477	0	0	0	0	
9	0	0	0	0	552	480	0	0	0	0	
10	0	0	0	0	560	486	0	0	0	0	
11	0	0	0	0	568	491	0	0	0	0	
12	0	0	0	0	577	497	0	0	0	0	
13	0	0	0	0	586	503	0	0	0	0	
14	0	0	0	0	594	508	0	0	0	0	
15	0	0	0	0	602	513	0	0	0	0	
0	0	0	0	0	607	516	0	0	0	0	
1	0	0	0	0	610	518	0	0	0	0	
2	0	0	0	0	612	519	0	0	0	0	
3	0	0	0	0	610	518	0	0	0	0	
4	0	0	0	0	608	515	0	0	0	0	
5	0	0	0	0	603	512	0	0	0	0	
6	0	0	0	0	598	508	0	0	0	0	
7	0	0	0	0	591	503	0	0	0	0	
8	0	0	0	0	584	498	0	0	0	0	
9	0	0	0	0	578	493	0	0	0	0	
10	0	0	0	0	572	489	0	0	0	0	
11	0	0	0	0	568	486	0	0	0	0	
12	0	0	0	0	564	483	0	0	0	0	
13	0	0	0	0	561	481	0	0	0	0	
14	0	0	0	0	560	481	0	0	0	0	
15	0	0	0	0	559	481	0	0	0	0	
0	0	0	0	0	559	480	0	0	0	0	
1	0	0	0	0	559	480	0	0	0	0	
2	0	0	0	0	560	480	0	0	0	0	
3	0	0	0	0	560	480	0	0	0	0	
4	0	0	0	0	561	479	0	0	0	0	
5	0	0	0	0	560	478	0	0	0	0	
6	0	0	0	0	560	476	0	0	0	0	
7	0	0	0	0	559	475	0	0	0	0	
8	0	0	0	0	559	473	0	0	0	0	
9	0	0	0	0	558	472	0	0	0	0	
10	0	0	0	0	557	470	0	0	0	0	
11	0	0	0	0	555	467	0	0	0	0	
12	0	0	0	0	553	466	0	0	0	0	
13	0	0	0	0	551	465	0	0	0	0	
14	0	0	0	0	550	464	0	0	0	0	
15	0	0	0	0	548	464	0	0	0	0	
0	0	0	0	0	549	465	0	0	0	0	
1	0	0	0	0	549	467	0	0	0	0	
2	0	0	0	0	551	470	0	0	0	0	
3	0	0	0	0	553	473	0	0	0	0	
4	0	0	0	0	556	477	0	0	0	0	
5	0	0	0	0	559	481	0	0	0	0	
6	0	0	0	0	562	484	0	0	0	0	
7	0	0	0	0	565	488	0	0	0	0	
8	0	0	0	0	567	490	0	0	0	0	
9	0	0	0	0	567	490	0	0	0	0	
10	0	0	0	0	565	488	0	0	0	0	
11	0	0	0	0	562	485	0	0	0	0	
12	0	0	0	0	559	482	0	0	0	0	
13	0	0	0	0	555	478	0	0	0	0	
14	0	0	0	0	551	475	0	0	0	0	
15	0	0	0	0	549	472	0	0	0	0	
0	0	0	0	0	547	470	0	0	0	0	
1	0	0	0	0	548	469	0	0	0	0	
2	0	0	0	0	549	468	0	0	0	0	
3	0	0	0	0	551	468	0	0	0	0	
4	0	0	0	0	553	468	0	0	0	0	
5	0	0	0	0	555	467	0	0	0	0	
6	0	0	0	0	558	468	0	0	0	0	
7	0	0	0	0	560	468	0	0	0	0	
8	0	0	0	0	561	468	0	0	0	0	
9	0	0	0	0	563	468	0	0	0	0	
10	0	0	0	0	563	468	0	0	0	0	
11	0	0	0	0	564	470	0	0	0	0	
12	0	0	0	0	565	471	0	0	0	0	
13	0	0	0	0	565	472	0	0	0	0	
14	0	0	0	0	566	473	0	0	0	0	
15	0	0	0	0	566	474	0	0	0	0	
0	0	0	0	0	567	476	0	0	0	0	
1	0	0	0	0	568	478	0	0	0	0	
2	0	0	0	0	568	480	0	0	0	0	
3	0	0	0	0	568	480	0	0	0	0	
4	0	0	0	0	567	480	0	0	0	0	
5	0	0	0	0	566	480	0	0	0	0	
6	0	0	0	0	564	479	0	0	0	0	
7	0	0	0	0	563	478	0	0	0	0	
8	0	0	0	0	561	476	0	0	0	0	
9	0	0	0	0	558	475	0	0	0	0	
10	0	0	0	0	556	473	0	0	0	0	
11	0	0	0	0	554	472	0	0	0	0	
12	0	0	0	0	551	469	0	0	0	0	
13	0	0	0	0	548	466	0	0	0	0	
14	0	0	0	0	545	462	0	0	0	0	
15	0	0	0	0	542	459	0	0	0	0	
0	0	0	0	0	539	455	0	0	0	0	
1	0	0	0	0	536	452	0	0	0	0	
2	0	0	0	0	532	449	0	0	0	0	
3	0	0	0	0	532	448	0	0	0	0	
4	0	0	0	0	532	448	0	0	0	0	
5	0	0	0	0	535	450	0	0	0	0	
6	0	0	0	0	539	454	0	0	0	0	
7	0	0	0	0	545	459	0	0	0	0	
8	0	0	0	0	551	464	0	0	0	0	
9	0	0	0	0	558	470	0	0	0	0	
10	0	0	0	0	563	475	0	0	0	0	
11	0	0	0	0	568	480	0	0	0	0	
12	0	0	0	0	571	483	0	0	0	0	
13	0	0	0	0	572	484	0	0	0	0	
14	0	0	0	0	571	485	0	0	0	0	
15	0	0	0	0	569	483	0	0	0	0	
0	0	0	0	0	565	481	0	0	0	0	
1	0	0	0	0	560	478	0	0	0	0	
2	0	0	0	0	553	473	0	0	0	0	
3	0	0	0	0	546	468	0	0	0	0	
4	0	0	0	0	538	462	0	0	0	0	
5	0	0	0	0	529	454	0	0	0	0	
6	0	0	0	0	520	447	0	0	0	0	
7	0	0	0	0	513	440	0	0	0	0	
8	0	0	0	0	509	436	0	0	0	0	
9	0	0	0	0	508	434	0	0	0	0	
10	0	0	0	0	511	435	0	0	0	0	
11	0	0	0	0	518	439	0	0	0	0	
12	0	0	0	0	527	445	0	0	0	0	
13	0	0	0	0	540	454	0	0	0	0	
14	0	0	0	0	553	463	0	0	0	0	
15	0	0	0	0	567	473	0	0	0	0	
0	0	0	0	0	579	482	0	0	0	0	
1	0	0	0	0	590	490	0	0	0	0	
2	0	0	0	0	598	496	0	0	0	0	
3	0	0	0	0	603	500	0	0	0	0	
4	0	0	0	0	605	502	0	0	0	0	
5	0	0	0	0	603	500	0	0	0	0	
6	0	0	0	0	598	497	0	0	0	0	
7	0	0	0	0	590	492	0	0	0	0	
8	0	0	0	0	580	486	0	0	0	0	
9	0	0	0	0	568	478	0	0	0	0	
10	0	0	0	0	556	470	0	0	0	0	
11	0	0	0	0	544	461	0	0	0	0	
12	0	0	0	0	533	454	0	0	0	0	
13	0	0	0	0	524	448	0	0	0	0	
14	0	0	0	0	518	443	0	0	0	0	
15	0	0	0	0	514	440	0	0	0	0	
0	0	0	0	0	513	438	0	0	0	0	
1	0	0	0	0	515	440	0	0	0	0	
2	0	0	0	0	520	443	0	0	0	0	
3	0	0	0	0	527	447	0	0	0	0	
4	0	0	0	0	536	453	0	0	0	0	
5	0	0	0	0	545	460	0	0	0	0	
6	0	0	0	0	556	467	0	0	0	0	
7	0	0	0	0	564	474	0	0	0	0	
8	0	0	0	0	572	480	0	0	0	0	
9	0	0	0	0	578	484	0	0	0	0	
10	0	0	0	0	580	485	0	0	0	0	
11	0	0	0	0	580	485	0	0	0	0	
12	0	0	0	0	577	482	0	0	0	0	
13	0	0	0	0	571	477	0	0	0	0	
14	0	0	0	0	563	470	0	0	0	0	
15	0	0	0	0	554	463	0	0	0	0	
0	0	0	0	0	545	455	0	0	0	0	
1	0	0	0	0	536	448	0	0	0	0	
2	0	0	0	0	528	441	0	0	0	0	
3	0	0	0	0	521	436	0	0	0	0	
4	0	0	0	0	516	432	0	0	0	0	
5	0	0	0	0	514	430	0	0	0	0	
6	0	0	0	0	513	430	0	0	0	0	
7	0	0	0	0	515	432	0	0	0	0	
8	0	0	0	0	519	435	0	0	0	0	
9	0	0	0	0	524	440	0	0	0	0	
10	0	0	0	0	529	446	0	0	0	0	
11	0	0	0	0	536	451	0	0	0	0	
12	0	0	0	0	542	458	0	0	0	0	
13	0	0	0	0	547	463	0	0	0	0	
14	0	0	0	0	552	468	0	0	0	0	
15	0	0	0	0	557	473	0	0	0	0	
0	0	0	0	0	561	477	0	0	0	0	
1	0	0	0	0	563	479	0	0	0	0	
2	0	0	0	0	564	480	0	0	0	0	
3	0	0	0	0	565	480	0	0	0	0	
4	0	0	0	0	565	481	0	0	0	0	
5	0	0	0	0	564	480	0	0	0	0	
6	0	0	0	0	564	479	0	0	0	0	
7	0	0	0	0	563	478	0	0	0	0	
8	0	0	0	0	562	478	0	0	0	0	
9	0	0	0	0	562	477	0	0	0	0	
10	0	0	0	0	561	476	0	0	0	0	
11	0	0	0	0	560	476	0	0	0	0	
12	0	0	0	0	558	474	0	0	0	0	
13	0	0	0	0	556	473	0	0	0	0	
14	0	0	0	0	555	471	0	0	0	0	
15	0	0	0	0	552	469	0	0	0	0	
0	0	0	0	0	549	467	0	0	0	0	
1	0	0	0	0	546	464	0	0	0	0	
2	0	0	0	0	542	462	0	0	0	0	
3	0	0	0	0	538	458	0	0	0	0	
4	0	0	0	0	533	453	0	0	0	0	
5	0	0	0	0	526	447	0	0	0	0	
6	0	0	0	0	519	440	0	0	0	0	
7	0	0	0	0	511	433	0	0	0	0	
8	0	0	0	0	504	426	0	0	0	0	
9	0	0	0	0	497	420	0	0	0	0	
10	0	0	0	0	493	415	0	0	0	0	
11	0	0	0	0	490	412	0	0	0	0	
12	0	0	0	0	490	412	0	0	0	0	
13	0	0	0	0	493	415	0	0	0	0	
14	0	0	0	0	498	419	0	0	0	0	
15	0	0	0	0	505	425	0	0	0	0	
0	0	0	0	0	512	431	0	0	0	0	
1	0	0	0	0	519	439	0	0	0	0	
2	0	0	0	0	527	446	0	0	0	0	
3	0	0	0	0	535	454	0	0	0	0	
4	0	0	0	0	542	460	0	0	0	0	
5	0	0	0	0	547	465	0	0	0	0	
6	0	0	0	0	551	470	0	0	0	0	
7	0	0	0	0	556	473	0	0	0	0	
8	0	0	0	0	557	473	0	0	0	0	
9	0	0	0	0	557	472	0	0	0	0	
10	0	0	0	0	556	469	0	0	0	0	
11	0	0	0	0	553	465	0	0	0	0	
12	0	0	0	0	550	459	0	0	0	0	
13	0	0	0	0	545	453	0	0	0	0	
14	0	0	0	0	541	448	0	0	0	0	
15	0	0	0	0	537	443	0	0	0	0	
0	0	0	0	0	535	440	0	0	0	0	
1	0	0	0	0	534	438	0	0	0	0	
2	0	0	0	0	535	439	0	0	0	0	
3	0	0	0	0	536	440	0	0	0	0	
4	0	0	0	0	538	443	0	0	0	0	
5	0	0	0	0	541	447	0	0	0	0	
6	0	0	0	0	545	452	0	0	0	0	
7	0	0	0	0	549	457	0	0	0	0	
8	0	0	0	0	552	461	0	0	0	0	
9	0	0	0	0	555	466	0	0	0	0	
10	0	0	0	0	559	470	0	0	0	0	
11	0	0	0	0	561	472	0	0	0	0	
12	0	0	0	0	562	475	0	0	0	0	
13	0	0	0	0	563	476	0	0	0	0	
14	0	0	0	0	561	476	0	0	0	0	
15	0	0	0	0	560	475	0	0	0	0	
0	0	0	0	0	557	473	0	0	0	0	
1	0	0	0	0	554	471	0	0	0	0	
2	0	0	0	0	550	468	0	0	0	0	
3	0	0	0	0	547	466	0	0	0	0	
4	0	0	0	0	545	464	0	0	0	0	
5	0	0	0	0	543	462	0	0	0	0	
6	0	0	0	0	543	461	0	0	0	0	
7	0	0	0	0	542	461	0	0	0	0	
8	0	0	0	0	542	461	0	0	0	0	
9	0	0	0	0	543	462	0	0	0	0	
10	0	0	0	0	543	463	0	0	0	0	
11	0	0	0	0	542	462	0	0	0	0	
12	0	0	0	0	542	462	0	0	0	0	
13	0	0	0	0	540	461	0	0	0	0	
14	0	0	0	0	538	459	0	0	0	0	
15	0	0	0	0	536	457	0	0	0	0	
0	0	0	0	0	533	454	0	0	0	0	
1	0	0	0	0	529	450	0	0	0	0	
2	0	0	0	0	527	447	0	0	0	0	
3	0	0	0	0	524	444	0	0	0	0	
4	0	0	0	0	523	442	0	0	0	0	
5	0	0	0	0	524	442	0	0	0	0	
6	0	0	0	0	527	443	0	0	0	0	
7	0	0	0	0	530	446	0	0	0	0	
8	0	0	0	0	536	450	0	0	0	0	
9	0	0	0	0	542	455	0	0	0	0	
10	0	0	0	0	549	461	0	0	0	0	
11	0	0	0	0	556	467	0	0	0	0	
12	0	0	0	0	562	472	0	0	0	0	
13	0	0	0	0	567	477	0	0	0	0	
14	0	0	0	0	570	481	0	0	0	0	
15	0	0	0	0	571	483	0	0	0	0	
0	0	0	0	0	569	484	0	0	0	0	
1	0	0	0	0	565	481	0	0	0	0	
2	0	0	0	0	558	478	0	0	0	0	
3	0	0	0	0	550	473	0	0	0	0	
4	0	0	0	0	540	465	0	0	0	0	
5	0	0	0	0	528	457	0	0	0	0	
6	0	0	0	0	516	448	0	0	0	0	
7	0	0	0	0	504	438	0	0	0	0	
8	0	0	0	0	493	429	0	0	0	0	
9	0	0	0	0	485	421	0	0	0	0	
10	0	0	0	0	479	415	0	0	0	0	
11	0	0	0	0	477	411	0	0	0	0	
12	0	0	0	0	479	410	0	0	0	0	
13	0	0	0	0	485	413	0	0	0	0	
14	0	0	0	0	495	419	0	0	0	0	
15	0	0	0	0	507	426	0	0	0	0	
0	0	0	0	0	520	434	0	0	0	0	
1	0	0	0	0	533	443	0	0	0	0	
2	0	0	0	0	546	451	0	0	0	0	
3	0	0	0	0	557	459	0	0	0	0	
4	0	0	0	0	564	464	0	0	0	0	
5	0	0	0	0	569	468	0	0	0	0	
6	0	0	0	0	569	468	0	0	0	0	
7	0	0	0	0	566	467	0	0	0	0	
8	0	0	0	0	560	463	0	0	0	0	
9	0	0	0	0	551	457	0	0	0	0	
10	0	0	0	0	540	449	0	0	0	0	
11	0	0	0	0	528	441	0	0	0	0	
12	0	0	0	0	517	433	0	0	0	0	
13	0	0	0	0	507	426	0	0	0	0	
14	0	0	0	0	497	419	0	0	0	0	
15	0	0	0	0	491	414	0	0	0	0	
0	0	0	0	0	487	410	0	0	0	0	
1	0	0	0	0	486	409	0	0	0	0	
2	0	0	0	0	487	410	0	0	0	0	
3	0	0	0	0	490	412	0	0	0	0	
4	0	0	0	0	496	416	0	0	0	0	
5	0	0	0	0	501	420	0	0	0	0	
6	0	0	0	0	508	425	0	0	0	0	
7	0	0	0	0	514	430	0	0	0	0	
8	0	0	0	0	520	434	0	0	0	0	
9	0	0	0	0	525	438	0	0	0	0	
10	0	0	0	0	529	440	0	0	0	0	
11	0	0	0	0	532	444	0	0	0	0	
12	0	0	0	0	535	446	0	0	0	0	
13	0	0	0	0	537	448	0	0	0	0	
14	0	0	0	0	540	450	0	0	0	0	
15	0	0	0	0	542	452	0	0	0	0	
0	0	0	0	0	544	455	0	0	0	0	
1	0	0	0	0	546	457	0	0	0	0	
2	0	0	0	0	548	460	0	0	0	0	
3	0	0	0	0	549	462	0	0	0	0	
4	0	0	0	0	549	463	0	0	0	0	
5	0	0	0	0	549	464	0	0	0	0	
6	0	0	0	0	547	463	0	0	0	0	
7	0	0	0	0	543	462	0	0	0	0	
8	0	0	0	0	539	459	0	0	0	0	
9	0	0	0	0	534	455	0	0	0	0	
10	0	0	0	0	529	452	0	0	0	0	
11	0	0	0	0	524	450	0	0	0	0	
12	0	0	0	0	521	448	0	0	0	0	
13	0	0	0	0	519	449	0	0	0	0	
14	0	0	0	0	520	450	0	0	0	0	
15	0	0	0	0	523	454	0	0	0	0	
0	0	0	0	0	526	457	0	0	0	0	
1	0	0	0	0	530	460	0	0	0	0	
2	0	0	0	0	535	464	0	0	0	0	
3	0	0	0	0	540	467	0	0	0	0	
4	0	0	0	0	546	472	0	0	0	0	
5	0	0	0	0	552	475	0	0	0	0	
6	0	0	0	0	557	479	0	0	0	0	
7	0	0	0	0	562	480	0	0	0	0	
8	0	0	0	0	566	482	0	0	0	0	
9	0	0	0	0	569	484	0	0	0	0	
10	0	0	0	0	572	486	0	0	0	0	
11	0	0	0	0	574	487	0	0	0	0	
12	0	0	0	0	575	486	0	0	0	0	
13	0	0	0	0	574	486	0	0	0	0	
14	0	0	0	0	571	484	0	0	0	0	
15	0	0	0	0	567	481	0	0	0	0	
0	0	0	0	0	561	476	0	0	0	0	
1	0	0	0	0	552	470	0	0	0	0	
2	0	0	0	0	541	462	0	0	0	0	
3	0	0	0	0	531	455	0	0	0	0	
4	0	0	0	0	519	447	0	0	0	0	
5	0	0	0	0	510	440	0	0	0	0	
6	0	0	0	0	503	434	0	0	0	0	
7	0	0	0	0	498	430	0	0	0	0	
8	0	0	0	0	496	429	0	0	0	0	
9	0	0	0	0	498	430	0	0	0	0	
10	0	0	0	0	502	433	0	0	0	0	
11	0	0	0	0	508	437	0	0	0	0	
12	0	0	0	0	513	441	0	0	0	0	
13	0	0	0	0	519	446	0	0	0	0	
14	0	0	0	0	525	450	0	0	0	0	
15	0	0	0	0	528	453	0	0	0	0	
0	0	0	0	0	531	455	0	0	0	0	
1	0	0	0	0	532	456	0	0	0	0	
2	0	0	0	0	532	457	0	0	0	0	
3	0	0	0	0	531	456	0	0	0	0	
4	0	0	0	0	528	455	0	0	0	0	
5	0	0	0	0	526	454	0	0	0	0	
6	0	0	0	0	523	452	0	0	0	0	
7	0	0	0	0	522	452	0	0	0	0	
8	0	0	0	0	521	451	0	0	0	0	
9	0	0	0	0	521	451	0	0	0	0	
10	0	0	0	0	521	450	0	0	0	0	
11	0	0	0	0	519	447	0	0	0	0	
12	0	0	0	0	517	443	0	0	0	0	
13	0	0	0	0	512	438	0	0	0	0	
14	0	0	0	0	507	432	0	0	0	0	
15	0	0	0	0	499	425	0	0	0	0	
0	0	0	0	0	492	418	0	0	0	0	
1	0	0	0	0	485	413	0	0	0	0	
2	0	0	0	0	479	409	0	0	0	0	
3	0	0	0	0	475	407	0	0	0	0	
4	0	0	0	0	473	407	0	0	0	0	
5	0	0	0	0	475	408	0	0	0	0	
6	0	0	0	0	479	413	0	0	0	0	
7	0	0	0	0	487	419	0	0	0	0	
8	0	0	0	0	497	427	0	0	0	0	
9	0	0	0	0	509	436	0	0	0	0	
10	0	0	0	0	521	445	0	0	0	0	
11	0	0	0	0	534	455	0	0	0	0	
12	0	0	0	0	545	464	0	0	0	0	
13	0	0	0	0	556	471	0	0	0	0	
14	0	0	0	0	565	477	0	0	0	0	
15	0	0	0	0	571	481	0	0	0	0	
0	0	0	0	0	574	483	0	0	0	0	
1	0	0	0	0	574	484	0	0	0	0	
2	0	0	0	0	572	483	0	0	0	0	
3	0	0	0	0	568	480	0	0	0	0	
4	0	0	0	0	563	478	0	0	0	0	
5	0	0	0	0	556	473	0	0	0	0	
6	0	0	0	0	550	470	0	0	0	0	
7	0	0	0	0	543	466	0	0	0	0	
8	0	0	0	0	536	463	0	0	0	0	
9	0	0	0	0	529	460	0	0	0	0	
10	0	0	0	0	525	457	0	0	0	0	
11	0	0	0	0	520	455	0	0	0	0	
12	0	0	0	0	518	454	0	0	0	0	
13	0	0	0	0	516	452	0	0	0	0	
14	0	0	0	0	514	451	0	0	0	0	
15	0	0	0	0	513	450	0	0	0	0	
0	0	0	0	0	514	449	0	0	0	0	
1	0	0	0	0	514	448	0	0	0	0	
2	0	0	0	0	516	448	0	0	0	0	
3	0	0	0	0	519	448	0	0	0	0	
4	0	0	0	0	522	449	0	0	0	0	
5	0	0	0	0	524	450	0	0	0	0	
6	0	0	0	0	527	451	0	0	0	0	
7	0	0	0	0	528	451	0	0	0	0	
8	0	0	0	0	529	450	0	0	0	0	
9	0	0	0	0	528	450	0	0	0	0	
10	0	0	0	0	527	449	0	0	0	0	
11	0	0	0	0	524	447	0	0	0	0	
12	0	0	0	0	522	446	0	0	0	0	
13	0	0	0	0	518	444	0	0	0	0	
14	0	0	0	0	514	444	0	0	0	0	
15	0	0	0	0	510	443	0	0	0	0	
0	0	0	0	0	507	443	0	0	0	0	
1	0	0	0	0	505	443	0	0	0	0	
2	0	0	0	0	503	444	0	0	0	0	
3	0	0	0	0	503	446	0	0	0	0	
4	0	0	0	0	504	448	0	0	0	0	
5	0	0	0	0	505	450	0	0	0	0	
6	0	0	0	0	508	452	0	0	0	0	
7	0	0	0	0	511	454	0	0	0	0	
8	0	0	0	0	515	457	0	0	0	0	
9	0	0	0	0	519	458	0	0	0	0	
10	0	0	0	0	523	459	0	0	0	0	
11	0	0	0	0	527	459	0	0	0	0	
12	0	0	0	0	529	458	0	0	0	0	
13	0	0	0	0	532	457	0	0	0	0	
14	0	0	0	0	534	456	0	0	0	0	
15	0	0	0	0	535	455	0	0	0	0	
0	0	0	0	0	536	454	0	0	0	0	
1	0	0	0	0	536	454	0	0	0	0	
2	0	0	0	0	538	454	0	0	0	0	
3	0	0	0	0	540	455	0	0	0	0	
4	0	0	0	0	542	457	0	0	0	0	
5	0	0	0	0	543	460	0	0	0	0	
6	0	0	0	0	544	462	0	0	0	0	
7	0	0	0	0	544	463	0	0	0	0	
8	0	0	0	0	542	462	0	0	0	0	
9	0	0	0	0	537	459	0	0	0	0	
10	0	0	0	0	531	455	0	0	0	0	
11	0	0	0	0	523	447	0	0	0	0	
12	0	0	0	0	512	439	0	0	0	0	
13	0	0	0	0	501	429	0	0	0	0	
14	0	0	0	0	489	419	0	0	0	0	
15	0	0	0	0	476	408	0	0	0	0	
0	0	0	0	0	465	398	0	0	0	0	
1	0	0	0	0	455	390	0	0	0	0	
2	0	0	0	0	448	383	0	0	0	0	
3	0	0	0	0	442	378	0	0	0	0	
4	0	0	0	0	438	374	0	0	0	0	
5	0	0	0	0	435	371	0	0	0	0	
6	0	0	0	0	434	370	0	0	0	0	
7	0	0	0	0	433	368	0	0	0	0	
8	0	0	0	0	432	366	0	0	0	0	
9	0	0	0	0	430	363	0	0	0	0	
10	0	0	0	0	425	357	0	0	0	0	
11	0	0	0	0	418	350	0	0	0	0	
12	0	0	0	0	409	340	0	0	0	0	
13	0	0	0	0	396	328	0	0	0	0	
14	0	0	0	0	382	313	0	0	0	0	
15	0	0	0	0	365	297	0	0	0	0	
0	0	0	0	0	347	280	0	0	0	0	
1	0	0	0	0	328	262	0	0	0	0	
2	0	0	0	0	310	245	0	0	0	0	
3	0	0	0	0	294	230	0	0	0	0	
4	0	0	0	0	281	216	0	0	0	0	
5	0	0	0	0	272	208	0	0	0	0	
6	0	0	0	0	270	204	0	0	0	0	
7	0	0	0	0	272	206	0	0	0	0	
8	0	0	0	0	280	212	0	0	0	0	
9	0	0	0	0	295	224	0	0	0	0	
10	0	0	0	0	313	240	0	0	0	0	
11	0	0	0	0	336	259	0	0	0	0	
12	0	0	0	0	361	281	0	0	0	0	
13	0	0	0	0	389	305	0	0	0	0	
14	0	0	0	0	417	329	0	0	0	0	
15	0	0	0	0	444	355	0	0	0	0	
0	0	0	0	0	471	379	0	0	0	0	
1	0	0	0	0	496	401	0	0	0	0	
2	0	0	0	0	517	421	0	0	0	0	
3	0	0	0	0	536	439	0	0	0	0	
4	0	0	0	0	550	454	0	0	0	0	
5	0	0	0	0	560	464	0	0	0	0	
6	0	0	0	0	564	472	0	0	0	0	
7	0	0	0	0	565	475	0	0	0	0	
8	0	0	0	0	563	476	0	0	0	0	
9	0	0	0	0	558	476	0	0	0	0	
10	0	0	0	0	551	473	0	0	0	0	
11	0	0	0	0	544	470	0	0	0	0	
12	0	0	0	0	537	466	0	0	0	0	
13	0	0	0	0	529	462	0	0	0	0	
14	0	0	0	0	523	459	0	0	0	0	
15	0	0	0	0	518	455	0	0	0	0	
0	0	0	0	0	514	454	0	0	0	0	
1	0	0	0	0	511	452	0	0	0	0	
2	0	0	0	0	510	451	0	0	0	0	
3	0	0	0	0	510	452	0	0	0	0	
4	0	0	0	0	512	453	0	0	0	0	
5	0	0	0	0	515	455	0	0	0	0	
6	0	0	0	0	518	457	0	0	0	0	
7	0	0	0	0	525	462	0	0	0	0	
8	0	0	0	0	532	467	0	0	0	0	
9	0	0	0	0	540	473	0	0	0	0	
10	0	0	0	0	547	478	0	0	0	0	
11	0	0	0	0	553	482	0	0	0	0	
12	0	0	0	0	558	485	0	0	0	0	
13	0	0	0	0	560	487	0	0	0	0	
14	0	0	0	0	561	488	0	0	0	0	
15	0	0	0	0	559	487	0	0	0	0	
0	0	0	0	0	556	484	0	0	0	0	
1	0	0	0	0	550	481	0	0	0	0	
2	0	0	0	0	545	478	0	0	0	0	
3	0	0	0	0	540	475	0	0	0	0	
4	0	0	0	0	535	472	0	0	0	0	
5	0	0	0	0	531	471	0	0	0	0	
6	0	0	0	0	530	470	0	0	0	0	
7	0	0	0	0	530	471	0	0	0	0	
8	0	0	0	0	532	472	0	0	0	0	
9	0	0	0	0	536	473	0	0	0	0	
10	0	0	0	0	540	475	0	0	0	0	
11	0	0	0	0	544	476	0	0	0	0	
12	0	0	0	0	549	479	0	0	0	0	
13	0	0	0	0	554	480	0	0	0	0	
14	0	0	0	0	558	481	0	0	0	0	
15	0	0	0	0	560	482	0	0	0	0	
0	0	0	0	0	561	482	0	0	0	0	
1	0	0	0	0	560	481	0	0	0	0	
2	0	0	0	0	557	479	0	0	0	0	
3	0	0	0	0	552	476	0	0	0	0	
4	0	0	0	0	546	473	0	0	0	0	
5	0	0	0	0	539	471	0	0	0	0	
6	0	0	0	0	532	468	0	0	0	0	
7	0	0	0	0	527	466	0	0	0	0	
8	0	0	0	0	522	464	0	0	0	0	
9	0	0	0	0	519	463	0	0	0	0	
10	0	0	0	0	518	464	0	0	0	0	
11	0	0	0	0	520	465	0	0	0	0	
12	0	0	0	0	523	467	0	0	0	0	
13	0	0	0	0	527	470	0	0	0	0	
14	0	0	0	0	532	472	0	0	0	0	
15	0	0	0	0	537	474	0	0	0	0	
0	0	0	0	0	541	475	0	0	0	0	
1	0	0	0	0	544	475	0	0	0	0	
2	0	0	0	0	545	475	0	0	0	0	
3	0	0	0	0	545	473	0	0	0	0	
4	0	0	0	0	543	472	0	0	0	0	
5	0	0	0	0	541	471	0	0	0	0	
6	0	0	0	0	537	470	0	0	0	0	
7	0	0	0	0	534	468	0	0	0	0	
8	0	0	0	0	529	467	0	0	0	0	
9	0	0	0	0	524	466	0	0	0	0	
10	0	0	0	0	520	464	0	0	0	0	
11	0	0	0	0	516	462	0	0	0	0	
12	0	0	0	0	512	459	0	0	0	0	
13	0	0	0	0	510	455	0	0	0	0	
14	0	0	0	0	507	453	0	0	0	0	
15	0	0	0	0	507	451	0	0	0	0	
0	0	0	0	0	508	449	0	0	0	0	
1	0	0	0	0	510	448	0	0	0	0	
2	0	0	0	0	513	447	0	0	0	0	
3	0	0	0	0	517	448	0	0	0	0	
4	0	0	0	0	522	449	0	0	0	0	
5	0	0	0	0	526	451	0	0	0	0	
6	0	0	0	0	530	453	0	0	0	0	
7	0	0	0	0	533	454	0	0	0	0	
8	0	0	0	0	535	455	0	0	0	0	
9	0	0	0	0	535	456	0	0	0	0	
10	0	0	0	0	535	457	0	0	0	0	
11	0	0	0	0	534	459	0	0	0	0	
12	0	0	0	0	532	460	0	0	0	0	
13	0	0	0	0	532	463	0	0	0	0	
14	0	0	0	0	533	466	0	0	0	0	
15	0	0	0	0	535	470	0	0	0	0	
0	0	0	0	0	537	474	0	0	0	0	
1	0	0	0	0	540	477	0	0	0	0	
2	0	0	0	0	542	480	0	0	0	0	
3	0	0	0	0	543	481	0	0	0	0	
4	0	0	0	0	545	481	0	0	0	0	
5	0	0	0	0	544	480	0	0	0	0	
6	0	0	0	0	542	476	0	0	0	0	
7	0	0	0	0	539	473	0	0	0	0	
8	0	0	0	0	536	468	0	0	0	0	
9	0	0	0	0	532	463	0	0	0	0	
10	0	0	0	0	527	459	0	0	0	0	
11	0	0	0	0	523	454	0	0	0	0	
12	0	0	0	0	519	450	0	0	0	0	
13	0	0	0	0	516	448	0	0	0	0	
14	0	0	0	0	513	446	0	0	0	0	
15	0	0	0	0	511	444	0	0	0	0	
0	0	0	0	0	508	443	0	0	0	0	
1	0	0	0	0	506	443	0	0	0	0	
2	0	0	0	0	504	442	0	0	0	0	
3	0	0	0	0	501	441	0	0	0	0	
4	0	0	0	0	499	440	0	0	0	0	
5	0	0	0	0	497	440	0	0	0	0	
6	0	0	0	0	496	441	0	0	0	0	
7	0	0	0	0	499	444	0	0	0	0	
8	0	0	0	0	502	448	0	0	0	0	
9	0	0	0	0	507	452	0	0	0	0	
10	0	0	0	0	513	457	0	0	0	0	
11	0	0	0	0	519	463	0	0	0	0	
12	0	0	0	0	526	467	0	0	0	0	
13	0	0	0	0	532	471	0	0	0	0	
14	0	0	0	0	537	473	0	0	0	0	
15	0	0	0	0	540	474	0	0	0	0	
0	0	0	0	0	541	475	0	0	0	0	
1	0	0	0	0	542	474	0	0	0	0	
2	0	0	0	0	542	472	0	0	0	0	
3	0	0	0	0	540	471	0	0	0	0	
4	0	0	0	0	538	469	0	0	0	0	
5	0	0	0	0	536	469	0	0	0	0	
6	0	0	0	0	535	468	0	0	0	0	
7	0	0	0	0	534	469	0	0	0	0	
8	0	0	0	0	534	470	0	0	0	0	
9	0	0	0	0	535	471	0	0	0	0	
10	0	0	0	0	536	473	0	0	0	0	
11	0	0	0	0	537	474	0	0	0	0	
12	0	0	0	0	539	476	0	0	0	0	
13	0	0	0	0	540	477	0	0	0	0	
14	0	0	0	0	540	478	0	0	0	0	
15	0	0	0	0	540	479	0	0	0	0	
0	0	0	0	0	540	478	0	0	0	0	
1	0	0	0	0	539	477	0	0	0	0	
2	0	0	0	0	536	474	0	0	0	0	
3	0	0	0	0	532	470	0	0	0	0	
4	0	0	0	0	526	464	0	0	0	0	
5	0	0	0	0	519	458	0	0	0	0	
6	0	0	0	0	512	450	0	0	0	0	
7	0	0	0	0	504	443	0	0	0	0	
8	0	0	0	0	496	435	0	0	0	0	
9	0	0	0	0	487	427	0	0	0	0	
10	0	0	0	0	480	421	0	0	0	0	
11	0	0	0	0	475	416	0	0	0	0	
12	0	0	0	0	471	413	0	0	0	0	
13	0	0	0	0	470	412	0	0	0	0	
14	0	0	0	0	471	412	0	0	0	0	
15	0	0	0	0	474	415	0	0	0	0	
0	0	0	0	0	479	419	0	0	0	0	
1	0	0	0	0	486	423	0	0	0	0	
2	0	0	0	0	493	429	0	0	0	0	
3	0	0	0	0	500	434	0	0	0	0	
4	0	0	0	0	507	440	0	0	0	0	
5	0	0	0	0	513	444	0	0	0	0	
6	0	0	0	0	519	449	0	0	0	0	
7	0	0	0	0	524	453	0	0	0	0	
8	0	0	0	0	527	456	0	0	0	0	
9	0	0	0	0	528	457	0	0	0	0	
10	0	0	0	0	528	458	0	0	0	0	
11	0	0	0	0	526	457	0	0	0	0	
12	0	0	0	0	524	456	0	0	0	0	
13	0	0	0	0	521	454	0	0	0	0	
14	0	0	0	0	518	453	0	0	0	0	
15	0	0	0	0	514	451	0	0	0	0	
0	0	0	0	0	511	449	0	0	0	0	
1	0	0	0	0	509	448	0	0	0	0	
2	0	0	0	0	507	447	0	0	0	0	
3	0	0	0	0	507	447	0	0	0	0	
4	0	0	0	0	506	447	0	0	0	0	
5	0	0	0	0	506	446	0	0	0	0	
6	0	0	0	0	507	444	0	0	0	0	
7	0	0	0	0	507	444	0	0	0	0	
8	0	0	0	0	508	442	0	0	0	0	
9	0	0	0	0	508	441	0	0	0	0	
10	0	0	0	0	508	440	0	0	0	0	
11	0	0	0	0	507	438	0	0	0	0	
12	0	0	0	0	506	436	0	0	0	0	
13	0	0	0	0	504	435	0	0	0	0	
14	0	0	0	0	502	434	0	0	0	0	
15	0	0	0	0	500	433	0	0	0	0	
0	0	0	0	0	499	433	0	0	0	0	
1	0	0	0	0	499	433	0	0	0	0	
2	0	0	0	0	500	436	0	0	0	0	
3	0	0	0	0	502	439	0	0	0	0	
4	0	0	0	0	504	441	0	0	0	0	
5	0	0	0	0	508	446	0	0	0	0	
6	0	0	0	0	512	450	0	0	0	0	
7	0	0	0	0	516	455	0	0	0	0	
8	0	0	0	0	520	458	0	0	0	0	
9	0	0	0	0	523	460	0	0	0	0	
10	0	0	0	0	525	462	0	0	0	0	
11	0	0	0	0	524	461	0	0	0	0	
12	0	0	0	0	523	460	0	0	0	0	
13	0	0	0	0	520	458	0	0	0	0	
14	0	0	0	0	517	455	0	0	0	0	
15	0	0	0	0	512	450	0	0	0	0	
0	0	0	0	0	507	446	0	0	0	0	
1	0	0	0	0	503	442	0	0	0	0	
2	0	0	0	0	499	439	0	0	0	0	
3	0	0	0	0	495	436	0	0	0	0	
4	0	0	0	0	494	436	0	0	0	0	
5	0	0	0	0	495	436	0	0	0	0	
6	0	0	0	0	497	438	0	0	0	0	
7	0	0	0	0	500	440	0	0	0	0	
8	0	0	0	0	503	442	0	0	0	0	
9	0	0	0	0	506	444	0	0	0	0	
10	0	0	0	0	508	444	0	0	0	0	
11	0	0	0	0	510	444	0	0	0	0	
12	0	0	0	0	509	441	0	0	0	0	
13	0	0	0	0	507	438	0	0	0	0	
14	0	0	0	0	503	432	0	0	0	0	
15	0	0	0	0	497	427	0	0	0	0	
0	0	0	0	0	491	420	0	0	0	0	
1	0	0	0	0	485	414	0	0	0	0	
2	0	0	0	0	480	410	0	0	0	0	
3	0	0	0	0	476	406	0	0	0	0	
4	0	0	0	0	473	404	0	0	0	0	
5	0	0	0	0	472	405	0	0	0	0	
6	0	0	0	0	474	408	0	0	0	0	
7	0	0	0	0	477	411	0	0	0	0	
8	0	0	0	0	482	416	0	0	0	0	
9	0	0	0	0	488	422	0	0	0	0	
10	0	0	0	0	494	429	0	0	0	0	
11	0	0	0	0	501	435	0	0	0	0	
12	0	0	0	0	508	441	0	0	0	0	
13	0	0	0	0	513	447	0	0	0	0	
14	0	0	0	0	518	450	0	0	0	0	
15	0	0	0	0	521	454	0	0	0	0	
0	0	0	0	0	524	456	0	0	0	0	
1	0	0	0	0	525	457	0	0	0	0	
2	0	0	0	0	525	457	0	0	0	0	
3	0	0	0	0	525	457	0	0	0	0	
4	0	0	0	0	524	457	0	0	0	0	
5	0	0	0	0	523	456	0	0	0	0	
6	0	0	0	0	521	454	0	0	0	0	
7	0	0	0	0	519	452	0	0	0	0	
8	0	0	0	0	516	449	0	0	0	0	
9	0	0	0	0	513	446	0	0	0	0	
10	0	0	0	0	509	443	0	0	0	0	
11	0	0	0	0	505	440	0	0	0	0	
12	0	0	0	0	501	437	0	0	0	0	
13	0	0	0	0	496	434	0	0	0	0	
14	0	0	0	0	492	432	0	0	0	0	
15	0	0	0	0	487	430	0	0	0	0	
0	0	0	0	0	484	428	0	0	0	0	
1	0	0	0	0	481	428	0	0	0	0	
2	0	0	0	0	480	428	0	0	0	0	
3	0	0	0	0	480	429	0	0	0	0	
4	0	0	0	0	482	432	0	0	0	0	
5	0	0	0	0	485	434	0	0	0	0	
6	0	0	0	0	489	437	0	0	0	0	
7	0	0	0	0	494	440	0	0	0	0	
8	0	0	0	0	499	443	0	0	0	0	
9	0	0	0	0	503	444	0	0	0	0	
10	0	0	0	0	506	444	0	0	0	0	
11	0	0	0	0	508	444	0	0	0	0	
12	0	0	0	0	510	442	0	0	0	0	
13	0	0	0	0	511	441	0	0	0	0	
14	0	0	0	0	512	440	0	0	0	0	
15	0	0	0	0	513	439	0	0	0	0	
0	0	0	0	0	514	439	0	0	0	0	
1	0	0	0	0	514	440	0	0	0	0	
2	0	0	0	0	515	441	0	0	0	0	
3	0	0	0	0	515	443	0	0	0	0	
4	0	0	0	0	514	443	0	0	0	0	
5	0	0	0	0	512	444	0	0	0	0	
6	0	0	0	0	510	444	0	0	0	0	
7	0	0	0	0	507	444	0	0	0	0	
8	0	0	0	0	504	444	0	0	0	0	
9	0	0	0	0	501	443	0	0	0	0	
10	0	0	0	0	499	442	0	0	0	0	
11	0	0	0	0	497	440	0	0	0	0	
12	0	0	0	0	496	440	0	0	0	0	
13	0	0	0	0	495	438	0	0	0	0	
14	0	0	0	0	494	436	0	0	0	0	
15	0	0	0	0	493	434	0	0	0	0	
0	0	0	0	0	492	432	0	0	0	0	
1	0	0	0	0	492	429	0	0	0	0	
2	0	0	0	0	491	427	0	0	0	0	
3	0	0	0	0	490	424	0	0	0	0	
4	0	0	0	0	488	421	0	0	0	0	
5	0	0	0	0	486	418	0	0	0	0	
6	0	0	0	0	483	416	0	0	0	0	
7	0	0	0	0	480	413	0	0	0	0	
8	0	0	0	0	478	412	0	0	0	0	
9	0	0	0	0	476	410	0	0	0	0	
10	0	0	0	0	474	410	0	0	0	0	
11	0	0	0	0	473	410	0	0	0	0	
12	0	0	0	0	474	411	0	0	0	0	
13	0	0	0	0	475	412	0	0	0	0	
14	0	0	0	0	477	414	0	0	0	0	
15	0	0	0	0	480	415	0	0	0	0	
0	0	0	0	0	483	418	0	0	0	0	
1	0	0	0	0	488	421	0	0	0	0	
2	0	0	0	0	494	424	0	0	0	0	
3	0	0	0	0	500	428	0	0	0	0	
4	0	0	0	0	507	433	0	0	0	0	
5	0	0	0	0	514	438	0	0	0	0	
6	0	0	0	0	520	443	0	0	0	0	
7	0	0	0	0	526	447	0	0	0	0	
8	0	0	0	0	530	451	0	0	0	0	
9	0	0	0	0	532	453	0	0	0	0	
10	0	0	0	0	533	455	0	0	0	0	
11	0	0	0	0	532	457	0	0	0	0	
12	0	0	0	0	530	456	0	0	0	0	
13	0	0	0	0	526	455	0	0	0	0	
14	0	0	0	0	522	454	0	0	0	0	
15	0	0	0	0	517	452	0	0	0	0	
0	0	0	0	0	513	451	0	0	0	0	
1	0	0	0	0	509	449	0	0	0	0	
2	0	0	0	0	505	447	0	0	0	0	
3	0	0	0	0	502	445	0	0	0	0	
4	0	0	0	0	500	443	0	0	0	0	
5	0	0	0	0	498	440	0	0	0	0	
6	0	0	0	0	497	439	0	0	0	0	
7	0	0	0	0	496	437	0	0	0	0	
8	0	0	0	0	496	436	0	0	0	0	
9	0	0	0	0	496	434	0	0	0	0	
10	0	0	0	0	496	432	0	0	0	0	
11	0	0	0	0	495	431	0	0	0	0	
12	0	0	0	0	495	430	0	0	0	0	
13	0	0	0	0	494	428	0	0	0	0	
14	0	0	0	0	494	428	0	0	0	0	
15	0	0	0	0	494	429	0	0	0	0	
0	0	0	0	0	494	430	0	0	0	0	
1	0	0	0	0	496	433	0	0	0	0	
2	0	0	0	0	499	435	0	0	0	0	
3	0	0	0	0	503	441	0	0	0	0	
4	0	0	0	0	508	446	0	0	0	0	
5	0	0	0	0	513	451	0	0	0	0	
6	0	0	0	0	519	455	0	0	0	0	
7	0	0	0	0	523	458	0	0	0	0	
8	0	0	0	0	526	460	0	0	0	0	
9	0	0	0	0	528	461	0	0	0	0	
10	0	0	0	0	527	459	0	0	0	0	
11	0	0	0	0	525	455	0	0	0	0	
12	0	0	0	0	520	449	0	0	0	0	
13	0	0	0	0	513	443	0	0	0	0	
14	0	0	0	0	505	435	0	0	0	0	
15	0	0	0	0	495	427	0	0	0	0	
0	0	0	0	0	484	419	0	0	0	0	
1	0	0	0	0	474	412	0	0	0	0	
2	0	0	0	0	465	407	0	0	0	0	
3	0	0	0	0	459	403	0	0	0	0	
4	0	0	0	0	453	401	0	0	0	0	
5	0	0	0	0	449	399	0	0	0	0	
6	0	0	0	0	447	399	0	0	0	0	
7	0	0	0	0	447	399	0	0	0	0	
8	0	0	0	0	449	401	0	0	0	0	
9	0	0	0	0	454	404	0	0	0	0	
10	0	0	0	0	460	408	0	0	0	0	
11	0	0	0	0	468	414	0	0	0	0	
12	0	0	0	0	478	420	0	0	0	0	
13	0	0	0	0	487	428	0	0	0	0	
14	0	0	0	0	496	434	0	0	0	0	
15	0	0	0	0	504	440	0	0	0	0	
0	0	0	0	0	509	445	0	0	0	0	
1	0	0	0	0	513	447	0	0	0	0	
2	0	0	0	0	513	448	0	0	0	0	
3	0	0	0	0	512	447	0	0	0	0	
4	0	0	0	0	509	444	0	0	0	0	
5	0	0	0	0	504	441	0	0	0	0	
6	0	0	0	0	500	438	0	0	0	0	
7	0	0	0	0	496	435	0	0	0	0	
8	0	0	0	0	493	431	0	0	0	0	
9	0	0	0	0	490	428	0	0	0	0	
10	0	0	0	0	488	425	0	0	0	0	
11	0	0	0	0	487	423	0	0	0	0	
12	0	0	0	0	487	421	0	0	0	0	
13	0	0	0	0	487	420	0	0	0	0	
14	0	0	0	0	487	419	0	0	0	0	
15	0	0	0	0	487	419	0	0	0	0	
0	0	0	0	0	488	419	0	0	0	0	
1	0	0	0	0	489	420	0	0	0	0	
2	0	0	0	0	490	421	0	0	0	0	
3	0	0	0	0	492	423	0	0	0	0	
4	0	0	0	0	494	426	0	0	0	0	
5	0	0	0	0	496	429	0	0	0	0	
6	0	0	0	0	499	432	0	0	0	0	
7	0	0	0	0	501	435	0	0	0	0	
8	0	0	0	0	504	438	0	0	0	0	
9	0	0	0	0	505	442	0	0	0	0	
10	0	0	0	0	508	445	0	0	0	0	
11	0	0	0	0	510	448	0	0	0	0	
12	0	0	0	0	510	449	0	0	0	0	
13	0	0	0	0	509	449	0	0	0	0	
14	0	0	0	0	505	448	0	0	0	0	
15	0	0	0	0	503	446	0	0	0	0	
0	0	0	0	0	498	442	0	0	0	0	
1	0	0	0	0	493	438	0	0	0	0	
2	0	0	0	0	487	432	0	0	0	0	
3	0	0	0	0	481	426	0	0	0	0	
4	0	0	0	0	476	420	0	0	0	0	
5	0	0	0	0	472	414	0	0	0	0	
6	0	0	0	0	469	410	0	0	0	0	
7	0	0	0	0	469	407	0	0	0	0	
8	0	0	0	0	470	406	0	0	0	0	
9	0	0	0	0	473	407	0	0	0	0	
10	0	0	0	0	476	409	0	0	0	0	
11	0	0	0	0	480	413	0	0	0	0	
12	0	0	0	0	485	417	0	0	0	0	
13	0	0	0	0	488	420	0	0	0	0	
14	0	0	0	0	492	425	0	0	0	0	
15	0	0	0	0	494	429	0	0	0	0	
0	0	0	0	0	496	433	0	0	0	0	
1	0	0	0	0	497	436	0	0	0	0	
2	0	0	0	0	498	439	0	0	0	0	
3	0	0	0	0	498	441	0	0	0	0	
4	0	0	0	0	498	441	0	0	0	0	
5	0	0	0	0	497	441	0	0	0	0	
6	0	0	0	0	496	439	0	0	0	0	
7	0	0	0	0	494	437	0	0	0	0	
8	0	0	0	0	493	435	0	0	0	0	
9	0	0	0	0	492	432	0	0	0	0	
10	0	0	0	0	491	430	0	0	0	0	
11	0	0	0	0	491	428	0	0	0	0	
12	0	0	0	0	490	427	0	0	0	0	
13	0	0	0	0	491	426	0	0	0	0	
14	0	0	0	0	491	425	0	0	0	0	
15	0	0	0	0	491	425	0	0	0	0	
0	0	0	0	0	491	425	0	0	0	0	
1	0	0	0	0	490	425	0	0	0	0	
2	0	0	0	0	490	424	0	0	0	0	
3	0	0	0	0	489	424	0	0	0	0	
4	0	0	0	0	488	424	0	0	0	0	
5	0	0	0	0	487	424	0	0	0	0	
6	0	0	0	0	486	423	0	0	0	0	
7	0	0	0	0	485	422	0	0	0	0	
8	0	0	0	0	483	420	0	0	0	0	
9	0	0	0	0	479	417	0	0	0	0	
10	0	0	0	0	476	413	0	0	0	0	
11	0	0	0	0	471	409	0	0	0	0	
12	0	0	0	0	468	406	0	0	0	0	
13	0	0	0	0	466	403	0	0	0	0	
14	0	0	0	0	465	402	0	0	0	0	
15	0	0	0	0	467	403	0	0	0	0	
0	0	0	0	0	470	406	0	0	0	0	
1	0	0	0	0	476	411	0	0	0	0	
2	0	0	0	0	483	418	0	0	0	0	
3	0	0	0	0	492	425	0	0	0	0	
4	0	0	0	0	500	433	0	0	0	0	
5	0	0	0	0	507	440	0	0	0	0	
6	0	0	0	0	513	444	0	0	0	0	
7	0	0	0	0	515	447	0	0	0	0	
8	0	0	0	0	515	446	0	0	0	0	
9	0	0	0	0	511	443	0	0	0	0	
10	0	0	0	0	505	438	0	0	0	0	
11	0	0	0	0	498	431	0	0	0	0	
12	0	0	0	0	489	423	0	0	0	0	
13	0	0	0	0	480	415	0	0	0	0	
14	0	0	0	0	472	407	0	0	0	0	
15	0	0	0	0	464	400	0	0	0	0	
0	0	0	0	0	460	394	0	0	0	0	
1	0	0	0	0	455	389	0	0	0	0	
2	0	0	0	0	453	385	0	0	0	0	
3	0	0	0	0	452	384	0	0	0	0	
4	0	0	0	0	452	382	0	0	0	0	
5	0	0	0	0	454	381	0	0	0	0	
6	0	0	0	0	455	381	0	0	0	0	
7	0	0	0	0	457	381	0	0	0	0	
8	0	0	0	0	459	383	0	0	0	0	
9	0	0	0	0	460	384	0	0	0	0	
10	0	0	0	0	462	386	0	0	0	0	
11	0	0	0	0	463	388	0	0	0	0	
12	0	0	0	0	465	391	0	0	0	0	
13	0	0	0	0	466	393	0	0	0	0	
14	0	0	0	0	468	396	0	0	0	0	
15	0	0	0	0	470	399	0	0	0	0	
0	0	0	0	0	471	402	0	0	0	0	
1	0	0	0	0	472	404	0	0	0	0	
2	0	0	0	0	473	406	0	0	0	0	
3	0	0	0	0	474	407	0	0	0	0	
4	0	0	0	0	475	408	0	0	0	0	
5	0	0	0	0	476	408	0	0	0	0	
6	0	0	0	0	476	408	0	0	0	0	
7	0	0	0	0	476	407	0	0	0	0	
8	0	0	0	0	477	407	0	0	0	0	
9	0	0	0	0	478	407	0	0	0	0	
10	0	0	0	0	479	408	0	0	0	0	
11	0	0	0	0	481	409	0	0	0	0	
12	0	0	0	0	483	411	0	0	0	0	
13	0	0	0	0	485	414	0	0	0	0	
14	0	0	0	0	488	417	0	0	0	0	
15	0	0	0	0	491	421	0	0	0	0	
0	0	0	0	0	494	424	0	0	0	0	
1	0	0	0	0	497	428	0	0	0	0	
2	0	0	0	0	501	432	0	0	0	0	
3	0	0	0	0	504	436	0	0	0	0	
4	0	0	0	0	507	439	0	0	0	0	
5	0	0	0	0	508	440	0	0	0	0	
6	0	0	0	0	507	439	0	0	0	0	
7	0	0	0	0	504	435	0	0	0	0	
8	0	0	0	0	500	430	0	0	0	0	
9	0	0	0	0	493	423	0	0	0	0	
10	0	0	0	0	484	415	0	0	0	0	
11	0	0	0	0	476	405	0	0	0	0	
12	0	0	0	0	465	395	0	0	0	0	
13	0	0	0	0	454	385	0	0	0	0	
14	0	0	0	0	443	376	0	0	0	0	
15	0	0	0	0	432	369	0	0	0	0	
0	0	0	0	0	424	363	0	0	0	0	
1	0	0	0	0	418	360	0	0	0	0	
2	0	0	0	0	416	360	0	0	0	0	
3	0	0	0	0	418	363	0	0	0	0	
4	0	0	0	0	423	368	0	0	0	0	
5	0	0	0	0	431	375	0	0	0	0	
6	0	0	0	0	441	382	0	0	0	0	
7	0	0	0	0	452	389	0	0	0	0	
8	0	0	0	0	463	395	0	0	0	0	
9	0	0	0	0	472	400	0	0	0	0	
10	0	0	0	0	479	402	0	0	0	0	
11	0	0	0	0	483	401	0	0	0	0	
12	0	0	0	0	483	399	0	0	0	0	
13	0	0	0	0	481	393	0	0	0	0	
14	0	0	0	0	476	387	0	0	0	0	
15	0	0	0	0	468	380	0	0	0	0	
0	0	0	0	0	459	371	0	0	0	0	
1	0	0	0	0	449	364	0	0	0	0	
2	0	0	0	0	439	355	0	0	0	0	
3	0	0	0	0	427	347	0	0	0	0	
4	0	0	0	0	415	337	0	0	0	0	
5	0	0	0	0	403	328	0	0	0	0	
6	0	0	0	0	391	319	0	0	0	0	
7	0	0	0	0	379	310	0	0	0	0	
8	0	0	0	0	366	300	0	0	0	0	
9	0	0	0	0	353	288	0	0	0	0	
10	0	0	0	0	339	277	0	0	0	0	
11	0	0	0	0	324	265	0	0	0	0	
12	0	0	0	0	309	252	0	0	0	0	
13	0	0	0	0	294	238	0	0	0	0	
14	0	0	0	0	279	224	0	0	0	0	
15	0	0	0	0	264	210	0	0	0	0	
0	0	0	0	0	249	196	0	0	0	0	
1	0	0	0	0	236	184	0	0	0	0	
2	0	0	0	0	224	171	0	0	0	0	
3	0	0	0	0	215	161	0	0	0	0	
4	0	0	0	0	208	153	0	0	0	0	
5	0	0	0	0	206	147	0	0	0	0	
6	0	0	0	0	207	144	0	0	0	0	
7	0	0	0	0	214	147	0	0	0	0	
8	0	0	0	0	225	153	0	0	0	0	
9	0	0	0	0	241	165	0	0	0	0	
10	0	0	0	0	262	180	0	0	0	0	
11	0	0	0	0	286	199	0	0	0	0	
12	0	0	0	0	312	220	0	0	0	0	
13	0	0	0	0	340	244	0	0	0	0	
14	0	0	0	0	367	267	0	0	0	0	
15	0	0	0	0	394	291	0	0	0	0	
0	0	0	0	0	419	314	0	0	0	0	
1	0	0	0	0	441	335	0	0	0	0	
2	0	0	0	0	460	354	0	0	0	0	
3	0	0	0	0	474	369	0	0	0	0	
4	0	0	0	0	485	384	0	0	0	0	
5	0	0	0	0	492	394	0	0	0	0	
6	0	0	0	0	496	402	0	0	0	0	
7	0	0	0	0	497	407	0	0	0	0	
8	0	0	0	0	496	411	0	0	0	0	
9	0	0	0	0	492	412	0	0	0	0	
10	0	0	0	0	489	413	0	0	0	0	
11	0	0	0	0	484	412	0	0	0	0	
12	0	0	0	0	481	411	0	0	0	0	
13	0	0	0	0	477	408	0	0	0	0	
14	0	0	0	0	473	406	0	0	0	0	
15	0	0	0	0	469	403	0	0	0	0	
0	0	0	0	0	466	400	0	0	0	0	
1	0	0	0	0	463	397	0	0	0	0	
2	0	0	0	0	461	395	0	0	0	0	
3	0	0	0	0	460	393	0	0	0	0	
4	0	0	0	0	461	393	0	0	0	0	
5	0	0	0	0	463	395	0	0	0	0	
6	0	0	0	0	467	397	0	0	0	0	
7	0	0	0	0	472	399	0	0	0	0	
8	0	0	0	0	477	403	0	0	0	0	
9	0	0	0	0	482	406	0	0	0	0	
10	0	0	0	0	487	409	0	0	0	0	
11	0	0	0	0	492	412	0	0	0	0	
12	0	0	0	0	497	415	0	0	0	0	
13	0	0	0	0	502	419	0	0	0	0	
14	0	0	0	0	508	424	0	0	0	0	
15	0	0	0	0	513	429	0	0	0	0	
0	0	0	0	0	519	434	0	0	0	0	
1	0	0	0	0	523	439	0	0	0	0	
2	0	0	0	0	527	443	0	0	0	0	
3	0	0	0	0	529	446	0	0	0	0	
4	0	0	0	0	528	447	0	0	0	0	
5	0	0	0	0	525	446	0	0	0	0	
6	0	0	0	0	519	442	0	0	0	0	
7	0	0	0	0	512	438	0	0	0	0	
8	0	0	0	0	503	432	0	0	0	0	
9	0	0	0	0	493	425	0	0	0	0	
10	0	0	0	0	484	418	0	0	0	0	
11	0	0	0	0	475	412	0	0	0	0	
12	0	0	0	0	468	406	0	0	0	0	
13	0	0	0	0	463	400	0	0	0	0	
14	0	0	0	0	459	396	0	0	0	0	
15	0	0	0	0	457	392	0	0	0	0	
0	0	0	0	0	457	390	0	0	0	0	
1	0	0	0	0	460	389	0	0	0	0	
2	0	0	0	0	463	389	0	0	0	0	
3	0	0	0	0	467	391	0	0	0	0	
4	0	0	0	0	471	392	0	0	0	0	
5	0	0	0	0	476	396	0	0	0	0	
6	0	0	0	0	481	399	0	0	0	0	
7	0	0	0	0	486	403	0	0	0	0	
8	0	0	0	0	490	408	0	0	0	0	
9	0	0	0	0	494	411	0	0	0	0	
10	0	0	0	0	497	415	0	0	0	0	
11	0	0	0	0	499	418	0	0	0	0	
12	0	0	0	0	500	421	0	0	0	0	
13	0	0	0	0	501	423	0	0	0	0	
14	0	0	0	0	502	424	0	0	0	0	
15	0	0	0	0	502	424	0	0	0	0	
0	0	0	0	0	502	425	0	0	0	0	
1	0	0	0	0	501	425	0	0	0	0	
2	0	0	0	0	501	424	0	0	0	0	
3	0	0	0	0	500	424	0	0	0	0	
4	0	0	0	0	499	423	0	0	0	0	
5	0	0	0	0	499	423	0	0	0	0	
6	0	0	0	0	498	423	0	0	0	0	
7	0	0	0	0	498	424	0	0	0	0	
8	0	0	0	0	499	425	0	0	0	0	
9	0	0	0	0	499	426	0	0	0	0	
10	0	0	0	0	500	428	0	0	0	0	
11	0	0	0	0	501	430	0	0	0	0	
12	0	0	0	0	502	431	0	0	0	0	
13	0	0	0	0	503	432	0	0	0	0	
14	0	0	0	0	503	432	0	0	0	0	
15	0	0	0	0	503	432	0	0	0	0	
0	0	0	0	0	503	431	0	0	0	0	
1	0	0	0	0	502	430	0	0	0	0	
2	0	0	0	0	502	429	0	0	0	0	
3	0	0	0	0	500	428	0	0	0	0	
4	0	0	0	0	500	427	0	0	0	0	
5	0	0	0	0	500	426	0	0	0	0	
6	0	0	0	0	499	425	0	0	0	0	
7	0	0	0	0	499	425	0	0	0	0	
8	0	0	0	0	499	425	0	0	0	0	
9	0	0	0	0	500	426	0	0	0	0	
10	0	0	0	0	500	427	0	0	0	0	
11	0	0	0	0	500	428	0	0	0	0	
12	0	0	0	0	500	428	0	0	0	0	
13	0	0	0	0	499	429	0	0	0	0	
14	0	0	0	0	499	430	0	0	0	0	
15	0	0	0	0	498	430	0	0	0	0	
0	0	0	0	0	497	430	0	0	0	0	
1	0	0	0	0	496	430	0	0	0	0	
2	0	0	0	0	495	430	0	0	0	0	
3	0	0	0	0	495	429	0	0	0	0	
4	0	0	0	0	495	429	0	0	0	0	
5	0	0	0	0	494	428	0	0	0	0	
6	0	0	0	0	494	427	0	0	0	0	
7	0	0	0	0	494	426	0	0	0	0	
8	0	0	0	0	494	425	0	0	0	0	
9	0	0	0	0	494	425	0	0	0	0	
10	0	0	0	0	493	423	0	0	0	0	
11	0	0	0	0	492	422	0	0	0	0	
12	0	0	0	0	490	420	0	0	0	0	
13	0	0	0	0	487	419	0	0	0	0	
14	0	0	0	0	486	417	0	0	0	0	
15	0	0	0	0	484	416	0	0	0	0	
0	0	0	0	0	484	416	0	0	0	0	
1	0	0	0	0	485	418	0	0	0	0	
2	0	0	0	0	489	422	0	0	0	0	
3	0	0	0	0	494	426	0	0	0	0	
4	0	0	0	0	500	432	0	0	0	0	
5	0	0	0	0	507	439	0	0	0	0	
6	0	0	0	0	515	445	0	0	0	0	
7	0	0	0	0	523	452	0	0	0	0	
8	0	0	0	0	530	457	0	0	0	0	
9	0	0	0	0	535	460	0	0	0	0	
10	0	0	0	0	537	462	0	0	0	0	
11	0	0	0	0	536	460	0	0	0	0	
12	0	0	0	0	534	457	0	0	0	0	
13	0	0	0	0	529	453	0	0	0	0	
14	0	0	0	0	524	448	0	0	0	0	
15	0	0	0	0	518	443	0	0	0	0	
0	0	0	0	0	513	439	0	0	0	0	
1	0	0	0	0	510	437	0	0	0	0	
2	0	0	0	0	508	436	0	0	0	0	
3	0	0	0	0	508	437	0	0	0	0	
4	0	0	0	0	510	438	0	0	0	0	
5	0	0	0	0	511	441	0	0	0	0	
6	0	0	0	0	514	444	0	0	0	0	
7	0	0	0	0	517	446	0	0	0	0	
8	0	0	0	0	519	448	0	0	0	0	
9	0	0	0	0	522	450	0	0	0	0	
10	0	0	0	0	524	452	0	0	0	0	
11	0	0	0	0	526	453	0	0	0	0	
12	0	0	0	0	526	453	0	0	0	0	
13	0	0	0	0	525	452	0	0	0	0	
14	0	0	0	0	523	449	0	0	0	0	
15	0	0	0	0	519	446	0	0	0	0	
0	0	0	0	0	513	442	0	0	0	0	
1	0	0	0	0	508	437	0	0	0	0	
2	0	0	0	0	500	432	0	0	0	0	
3	0	0	0	0	493	426	0	0	0	0	
4	0	0	0	0	486	422	0	0	0	0	
5	0	0	0	0	480	418	0	0	0	0	
6	0	0	0	0	476	416	0	0	0	0	
7	0	0	0	0	475	415	0	0	0	0	
8	0	0	0	0	475	415	0	0	0	0	
9	0	0	0	0	476	416	0	0	0	0	
10	0	0	0	0	480	419	0	0	0	0	
11	0	0	0	0	484	423	0	0	0	0	
12	0	0	0	0	490	427	0	0	0	0	
13	0	0	0	0	496	431	0	0	0	0	
14	0	0	0	0	504	435	0	0	0	0	
15	0	0	0	0	511	440	0	0	0	0	
0	0	0	0	0	518	445	0	0	0	0	
1	0	0	0	0	524	449	0	0	0	0	
2	0	0	0	0	529	452	0	0	0	0	
3	0	0	0	0	534	454	0	0	0	0	
4	0	0	0	0	537	456	0	0	0	0	
5	0	0	0	0	538	455	0	0	0	0	
6	0	0	0	0	538	455	0	0	0	0	
7	0	0	0	0	536	453	0	0	0	0	
8	0	0	0	0	534	451	0	0	0	0	
9	0	0	0	0	530	448	0	0	0	0	
10	0	0	0	0	526	446	0	0	0	0	
11	0	0	0	0	521	443	0	0	0	0	
12	0	0	0	0	517	441	0	0	0	0	
13	0	0	0	0	512	440	0	0	0	0	
14	0	0	0	0	509	440	0	0	0	0	
15	0	0	0	0	505	439	0	0	0	0	
0	0	0	0	0	502	439	0	0	0	0	
1	0	0	0	0	499	440	0	0	0	0	
2	0	0	0	0	498	440	0	0	0	0	
3	0	0	0	0	498	441	0	0	0	0	
4	0	0	0	0	499	442	0	0	0	0	
5	0	0	0	0	500	443	0	0	0	0	
6	0	0	0	0	503	443	0	0	0	0	
7	0	0	0	0	505	444	0	0	0	0	
8	0	0	0	0	509	444	0	0	0	0	
9	0	0	0	0	511	443	0	0	0	0	
10	0	0	0	0	513	441	0	0	0	0	
11	0	0	0	0	515	440	0	0	0	0	
12	0	0	0	0	515	439	0	0	0	0	
13	0	0	0	0	518	438	0	0	0	0	
14	0	0	0	0	519	438	0	0	0	0	
15	0	0	0	0	520	439	0	0	0	0	
0	0	0	0	0	521	440	0	0	0	0	
1	0	0	0	0	522	441	0	0	0	0	
2	0	0	0	0	523	443	0	0	0	0	
3	0	0	0	0	522	443	0	0	0	0	
4	0	0	0	0	521	444	0	0	0	0	
5	0	0	0	0	520	444	0	0	0	0	
6	0	0	0	0	519	444	0	0	0	0	
7	0	0	0	0	518	444	0	0	0	0	
8	0	0	0	0	518	445	0	0	0	0	
9	0	0	0	0	518	445	0	0	0	0	
10	0	0	0	0	518	446	0	0	0	0	
11	0	0	0	0	517	446	0	0	0	0	
12	0	0	0	0	518	445	0	0	0	0	
13	0	0	0	0	517	444	0	0	0	0	
14	0	0	0	0	515	443	0	0	0	0	
15	0	0	0	0	513	441	0	0	0	0	
0	0	0	0	0	511	439	0	0	0	0	
1	0	0	0	0	509	437	0	0	0	0	
2	0	0	0	0	507	435	0	0	0	0	
3	0	0	0	0	505	434	0	0	0	0	
4	0	0	0	0	504	434	0	0	0	0	
5	0	0	0	0	504	435	0	0	0	0	
6	0	0	0	0	505	436	0	0	0	0	
7	0	0	0	0	506	438	0	0	0	0	
8	0	0	0	0	508	440	0	0	0	0	
9	0	0	0	0	510	442	0	0	0	0	
10	0	0	0	0	511	442	0	0	0	0	
11	0	0	0	0	511	443	0	0	0	0	
12	0	0	0	0	510	442	0	0	0	0	
13	0	0	0	0	508	440	0	0	0	0	
14	0	0	0	0	505	436	0	0	0	0	
15	0	0	0	0	502	432	0	0	0	0	
0	0	0	0	0	498	429	0	0	0	0	
1	0	0	0	0	496	426	0	0	0	0	
2	0	0	0	0	495	425	0	0	0	0	
3	0	0	0	0	495	424	0	0	0	0	
4	0	0	0	0	497	426	0	0	0	0	
5	0	0	0	0	500	427	0	0	0	0	
6	0	0	0	0	503	428	0	0	0	0	
7	0	0	0	0	505	429	0	0	0	0	
8	0	0	0	0	507	429	0	0	0	0	
9	0	0	0	0	507	429	0	0	0	0	
10	0	0	0	0	508	429	0	0	0	0	
11	0	0	0	0	509	430	0	0	0	0	
12	0	0	0	0	510	431	0	0	0	0	
13	0	0	0	0	511	432	0	0	0	0	
14	0	0	0	0	512	434	0	0	0	0	
15	0	0	0	0	515	437	0	0	0	0	
0	0	0	0	0	517	439	0	0	0	0	
1	0	0	0	0	520	442	0	0	0	0	
2	0	0	0	0	522	444	0	0	0	0	
3	0	0	0	0	523	446	0	0	0	0	
4	0	0	0	0	524	447	0	0	0	0	
5	0	0	0	0	524	447	0	0	0	0	
6	0	0	0	0	522	445	0	0	0	0	
7	0	0	0	0	519	443	0	0	0	0	
8	0	0	0	0	515	440	0	0	0	0	
9	0	0	0	0	513	438	0	0	0	0	
10	0	0	0	0	509	435	0	0	0	0	
11	0	0	0	0	506	433	0	0	0	0	
12	0	0	0	0	503	430	0	0	0	0	
13	0	0	0	0	499	428	0	0	0	0	
14	0	0	0	0	497	426	0	0	0	0	
15	0	0	0	0	496	424	0	0	0	0	
0	0	0	0	0	496	423	0	0	0	0	
1	0	0	0	0	497	422	0	0	0	0	
2	0	0	0	0	499	422	0	0	0	0	
3	0	0	0	0	502	423	0	0	0	0	
4	0	0	0	0	505	424	0	0	0	0	
5	0	0	0	0	508	424	0	0	0	0	
6	0	0	0	0	510	425	0	0	0	0	
7	0	0	0	0	511	426	0	0	0	0	
8	0	0	0	0	512	425	0	0	0	0	
9	0	0	0	0	512	426	0	0	0	0	
10	0	0	0	0	511	425	0	0	0	0	
11	0	0	0	0	509	424	0	0	0	0	
12	0	0	0	0	505	423	0	0	0	0	
13	0	0	0	0	504	423	0	0	0	0	
14	0	0	0	0	502	425	0	0	0	0	
15	0	0	0	0	502	428	0	0	0	0	
0	0	0	0	0	505	432	0	0	0	0	
1	0	0	0	0	508	438	0	0	0	0	
2	0	0	0	0	515	444	0	0	0	0	
3	0	0	0	0	522	452	0	0	0	0	
4	0	0	0	0	529	458	0	0	0	0	
5	0	0	0	0	536	462	0	0	0	0	
6	0	0	0	0	542	466	0	0	0	0	
7	0	0	0	0	545	467	0	0	0	0	
8	0	0	0	0	547	467	0	0	0	0	
9	0	0	0	0	547	463	0	0	0	0	
10	0	0	0	0	543	459	0	0	0	0	
11	0	0	0	0	540	453	0	0	0	0	
12	0	0	0	0	534	447	0	0	0	0	
13	0	0	0	0	527	441	0	0	0	0	
14	0	0	0	0	521	436	0	0	0	0	
15	0	0	0	0	515	432	0	0	0	0	
0	0	0	0	0	510	429	0	0	0	0	
1	0	0	0	0	507	428	0	0	0	0	
2	0	0	0	0	505	430	0	0	0	0	
3	0	0	0	0	504	431	0	0	0	0	
4	0	0	0	0	504	433	0	0	0	0	
5	0	0	0	0	505	436	0	0	0	0	
6	0	0	0	0	508	440	0	0	0	0	
7	0	0	0	0	512	445	0	0	0	0	
8	0	0	0	0	517	449	0	0	0	0	
9	0	0	0	0	523	455	0	0	0	0	
10	0	0	0	0	529	459	0	0	0	0	
11	0	0	0	0	536	463	0	0	0	0	
12	0	0	0	0	541	466	0	0	0	0	
13	0	0	0	0	545	467	0	0	0	0	
14	0	0	0	0	548	468	0	0	0	0	
15	0	0	0	0	551	468	0	0	0	0	
0	0	0	0	0	552	468	0	0	0	0	
1	0	0	0	0	552	467	0	0	0	0	
2	0	0	0	0	551	466	0	0	0	0	
3	0	0	0	0	551	465	0	0	0	0	
4	0	0	0	0	548	464	0	0	0	0	
5	0	0	0	0	547	464	0	0	0	0	
6	0	0	0	0	544	465	0	0	0	0	
7	0	0	0	0	542	466	0	0	0	0	
8	0	0	0	0	540	467	0	0	0	0	
9	0	0	0	0	539	468	0	0	0	0	
10	0	0	0	0	537	470	0	0	0	0	
11	0	0	0	0	535	471	0	0	0	0	
12	0	0	0	0	532	470	0	0	0	0	
13	0	0	0	0	529	469	0	0	0	0	
14	0	0	0	0	525	464	0	0	0	0	
15	0	0	0	0	520	460	0	0	0	0	
0	0	0	0	0	513	453	0	0	0	0	
1	0	0	0	0	506	444	0	0	0	0	
2	0	0	0	0	497	435	0	0	0	0	
3	0	0	0	0	490	426	0	0	0	0	
4	0	0	0	0	484	419	0	0	0	0	
5	0	0	0	0	481	415	0	0	0	0	
6	0	0	0	0	481	412	0	0	0	0	
7	0	0	0	0	483	412	0	0	0	0	
8	0	0	0	0	488	415	0	0	0	0	
9	0	0	0	0	496	420	0	0	0	0	
10	0	0	0	0	504	425	0	0	0	0	
11	0	0	0	0	513	432	0	0	0	0	
12	0	0	0	0	523	440	0	0	0	0	
13	0	0	0	0	532	447	0	0	0	0	
14	0	0	0	0	540	454	0	0	0	0	
15	0	0	0	0	547	461	0	0	0	0	
0	0	0	0	0	551	466	0	0	0	0	
1	0	0	0	0	554	470	0	0	0	0	
2	0	0	0	0	555	472	0	0	0	0	
3	0	0	0	0	553	472	0	0	0	0	
4	0	0	0	0	548	469	0	0	0	0	
5	0	0	0	0	542	464	0	0	0	0	
6	0	0	0	0	534	457	0	0	0	0	
7	0	0	0	0	525	451	0	0	0	0	
8	0	0	0	0	516	443	0	0	0	0	
9	0	0	0	0	509	436	0	0	0	0	
10	0	0	0	0	502	429	0	0	0	0	
11	0	0	0	0	497	424	0	0	0	0	
12	0	0	0	0	495	421	0	0	0	0	
13	0	0	0	0	496	421	0	0	0	0	
14	0	0	0	0	499	423	0	0	0	0	
15	0	0	0	0	503	426	0	0	0	0	
0	0	0	0	0	509	431	0	0	0	0	
1	0	0	0	0	514	436	0	0	0	0	
2	0	0	0	0	521	441	0	0	0	0	
3	0	0	0	0	527	447	0	0	0	0	
4	0	0	0	0	531	452	0	0	0	0	
5	0	0	0	0	535	456	0	0	0	0	
6	0	0	0	0	536	458	0	0	0	0	
7	0	0	0	0	535	458	0	0	0	0	
8	0	0	0	0	531	456	0	0	0	0	
9	0	0	0	0	527	454	0	0	0	0	
10	0	0	0	0	523	451	0	0	0	0	
11	0	0	0	0	518	448	0	0	0	0	
12	0	0	0	0	516	446	0	0	0	0	
13	0	0	0	0	515	446	0	0	0	0	
14	0	0	0	0	517	447	0	0	0	0	
15	0	0	0	0	519	448	0	0	0	0	
0	0	0	0	0	524	451	0	0	0	0	
1	0	0	0	0	528	453	0	0	0	0	
2	0	0	0	0	532	455	0	0	0	0	
3	0	0	0	0	536	458	0	0	0	0	
4	0	0	0	0	539	459	0	0	0	0	
5	0	0	0	0	541	460	0	0	0	0	
6	0	0	0	0	542	461	0	0	0	0	
7	0	0	0	0	541	461	0	0	0	0	
8	0	0	0	0	540	460	0	0	0	0	
9	0	0	0	0	537	459	0	0	0	0	
10	0	0	0	0	535	457	0	0	0	0	
11	0	0	0	0	531	455	0	0	0	0	
12	0	0	0	0	528	454	0	0	0	0	
13	0	0	0	0	525	452	0	0	0	0	
14	0	0	0	0	523	451	0	0	0	0	
15	0	0	0	0	520	449	0	0	0	0	
0	0	0	0	0	519	449	0	0	0	0	
1	0	0	0	0	519	450	0	0	0	0	
2	0	0	0	0	519	451	0	0	0	0	
3	0	0	0	0	521	452	0	0	0	0	
4	0	0	0	0	523	454	0	0	0	0	
5	0	0	0	0	526	457	0	0	0	0	
6	0	0	0	0	527	460	0	0	0	0	
7	0	0	0	0	528	462	0	0	0	0	
8	0	0	0	0	527	462	0	0	0	0	
9	0	0	0	0	524	460	0	0	0	0	
10	0	0	0	0	519	456	0	0	0	0	
11	0	0	0	0	513	452	0	0	0	0	
12	0	0	0	0	508	448	0	0	0	0	
13	0	0	0	0	504	444	0	0	0	0	
14	0	0	0	0	501	441	0	0	0	0	
15	0	0	0	0	501	440	0	0	0	0	
0	0	0	0	0	504	441	0	0	0	0	
1	0	0	0	0	509	443	0	0	0	0	
2	0	0	0	0	517	448	0	0	0	0	
3	0	0	0	0	526	454	0	0	0	0	
4	0	0	0	0	537	460	0	0	0	0	
5	0	0	0	0	548	467	0	0	0	0	
6	0	0	0	0	557	473	0	0	0	0	
7	0	0	0	0	565	478	0	0	0	0	
8	0	0	0	0	569	481	0	0	0	0	
9	0	0	0	0	573	484	0	0	0	0	
10	0	0	0	0	573	485	0	0	0	0	
11	0	0	0	0	572	486	0	0	0	0	
12	0	0	0	0	571	486	0	0	0	0	
13	0	0	0	0	567	485	0	0	0	0	
14	0	0	0	0	563	484	0	0	0	0	
15	0	0	0	0	559	483	0	0	0	0	
0	0	0	0	0	553	480	0	0	0	0	
1	0	0	0	0	548	478	0	0	0	0	
2	0	0	0	0	542	473	0	0	0	0	
3	0	0	0	0	537	470	0	0	0	0	
4	0	0	0	0	532	465	0	0	0	0	
5	0	0	0	0	527	461	0	0	0	0	
6	0	0	0	0	523	457	0	0	0	0	
7	0	0	0	0	520	454	0	0	0	0	
8	0	0	0	0	519	451	0	0	0	0	
9	0	0	0	0	519	451	0	0	0	0	
10	0	0	0	0	519	451	0	0	0	0	
11	0	0	0	0	522	453	0	0	0	0	
12	0	0	0	0	526	455	0	0	0	0	
13	0	0	0	0	531	460	0	0	0	0	
14	0	0	0	0	536	464	0	0	0	0	
15	0	0	0	0	542	469	0	0	0	0	
0	0	0	0	0	547	472	0	0	0	0	
1	0	0	0	0	551	476	0	0	0	0	
2	0	0	0	0	553	479	0	0	0	0	
3	0	0	0	0	556	480	0	0	0	0	
4	0	0	0	0	556	480	0	0	0	0	
5	0	0	0	0	555	480	0	0	0	0	
6	0	0	0	0	552	478	0	0	0	0	
7	0	0	0	0	549	475	0	0	0	0	
8	0	0	0	0	545	471	0	0	0	0	
9	0	0	0	0	540	467	0	0	0	0	
10	0	0	0	0	535	463	0	0	0	0	
11	0	0	0	0	531	458	0	0	0	0	
12	0	0	0	0	527	455	0	0	0	0	
13	0	0	0	0	524	452	0	0	0	0	
14	0	0	0	0	523	450	0	0	0	0	
15	0	0	0	0	523	448	0	0	0	0	
0	0	0	0	0	523	448	0	0	0	0	
1	0	0	0	0	526	450	0	0	0	0	
2	0	0	0	0	528	452	0	0	0	0	
3	0	0	0	0	533	455	0	0	0	0	
4	0	0	0	0	537	459	0	0	0	0	
5	0	0	0	0	542	463	0	0	0	0	
6	0	0	0	0	547	467	0	0	0	0	
7	0	0	0	0	551	472	0	0	0	0	
8	0	0	0	0	553	475	0	0	0	0	
9	0	0	0	0	555	477	0	0	0	0	
10	0	0	0	0	555	479	0	0	0	0	
11	0	0	0	0	555	480	0	0	0	0	
12	0	0	0	0	552	479	0	0	0	0	
13	0	0	0	0	550	478	0	0	0	0	
14	0	0	0	0	547	475	0	0	0	0	
15	0	0	0	0	543	472	0	0	0	0	
0	0	0	0	0	541	470	0	0	0	0	
1	0	0	0	0	539	468	0	0	0	0	
2	0	0	0	0	537	466	0	0	0	0	
3	0	0	0	0	537	464	0	0	0	0	
4	0	0	0	0	536	464	0	0	0	0	
5	0	0	0	0	537	464	0	0	0	0	
6	0	0	0	0	537	463	0	0	0	0	
7	0	0	0	0	537	463	0	0	0	0	
8	0	0	0	0	537	463	0	0	0	0	
9	0	0	0	0	536	462	0	0	0	0	
10	0	0	0	0	537	463	0	0	0	0	
11	0	0	0	0	537	464	0	0	0	0	
12	0	0	0	0	537	464	0	0	0	0	
13	0	0	0	0	537	464	0	0	0	0	
14	0	0	0	0	536	463	0	0	0	0	
15	0	0	0	0	536	463	0	0	0	0	
0	0	0	0	0	534	462	0	0	0	0	
1	0	0	0	0	531	459	0	0	0	0	
2	0	0	0	0	527	455	0	0	0	0	
3	0	0	0	0	522	451	0	0	0	0	
4	0	0	0	0	516	446	0	0	0	0	
5	0	0	0	0	510	441	0	0	0	0	
6	0	0	0	0	503	435	0	0	0	0	
7	0	0	0	0	496	430	0	0	0	0	
8	0	0	0	0	490	425	0	0	0	0	
9	0	0	0	0	485	422	0	0	0	0	
10	0	0	0	0	482	419	0	0	0	0	
11	0	0	0	0	481	419	0	0	0	0	
12	0	0	0	0	483	421	0	0	0	0	
13	0	0	0	0	487	424	0	0	0	0	
14	0	0	0	0	495	430	0	0	0	0	
15	0	0	0	0	504	437	0	0	0	0	
0	0	0	0	0	513	444	0	0	0	0	
1	0	0	0	0	523	451	0	0	0	0	
2	0	0	0	0	532	459	0	0	0	0	
3	0	0	0	0	541	464	0	0	0	0	
4	0	0	0	0	546	468	0	0	0	0	
5	0	0	0	0	550	470	0	0	0	0	
6	0	0	0	0	551	471	0	0	0	0	
7	0	0	0	0	550	470	0	0	0	0	
8	0	0	0	0	548	468	0	0	0	0	
9	0	0	0	0	543	465	0	0	0	0	
10	0	0	0	0	539	463	0	0	0	0	
11	0	0	0	0	535	461	0	0	0	0	
12	0	0	0	0	529	459	0	0	0	0	
13	0	0	0	0	526	457	0	0	0	0	
14	0	0	0	0	522	456	0	0	0	0	
15	0	0	0	0	519	455	0	0	0	0	
0	0	0	0	0	515	454	0	0	0	0	
1	0	0	0	0	513	452	0	0	0	0	
2	0	0	0	0	511	451	0	0	0	0	
3	0	0	0	0	508	448	0	0	0	0	
4	0	0	0	0	505	445	0	0	0	0	
5	0	0	0	0	502	440	0	0	0	0	
6	0	0	0	0	496	434	0	0	0	0	
7	0	0	0	0	490	425	0	0	0	0	
8	0	0	0	0	481	415	0	0	0	0	
9	0	0	0	0	471	403	0	0	0	0	
10	0	0	0	0	459	389	0	0	0	0	
11	0	0	0	0	444	373	0	0	0	0	
12	0	0	0	0	429	358	0	0	0	0	
13	0	0	0	0	412	341	0	0	0	0	
14	0	0	0	0	394	324	0	0	0	0	
15	0	0	0	0	376	307	0	0	0	0	
0	0	0	0	0	359	291	0	0	0	0	
1	0	0	0	0	342	276	0	0	0	0	
2	0	0	0	0	326	263	0	0	0	0	
3	0	0	0	0	312	249	0	0	0	0	
4	0	0	0	0	299	239	0	0	0	0	
5	0	0	0	0	288	229	0	0	0	0	
6	0	0	0	0	280	221	0	0	0	0	
7	0	0	0	0	275	216	0	0	0	0	
8	0	0	0	0	272	214	0	0	0	0	
9	0	0	0	0	273	214	0	0	0	0	
10	0	0	0	0	278	217	0	0	0	0	
11	0	0	0	0	286	223	0	0	0	0	
12	0	0	0	0	297	232	0	0	0	0	
13	0	0	0	0	312	244	0	0	0	0	
14	0	0	0	0	330	258	0	0	0	0	
15	0	0	0	0	349	273	0	0	0	0	
0	0	0	0	0	371	289	0	0	0	0	
1	0	0	0	0	392	307	0	0	0	0	
2	0	0	0	0	415	324	0	0	0	0	
3	0	0	0	0	437	343	0	0	0	0	
4	0	0	0	0	459	361	0	0	0	0	
5	0	0	0	0	480	380	0	0	0	0	
6	0	0	0	0	499	399	0	0	0	0	
7	0	0	0	0	516	417	0	0	0	0	
8	0	0	0	0	532	434	0	0	0	0	
9	0	0	0	0	546	451	0	0	0	0	
10	0	0	0	0	559	467	0	0	0	0	
11	0	0	0	0	568	481	0	0	0	0	
12	0	0	0	0	577	494	0	0	0	0	
13	0	0	0	0	583	504	0	0	0	0	
14	0	0	0	0	586	511	0	0	0	0	
15	0	0	0	0	588	517	0	0	0	0	
0	0	0	0	0	586	519	0	0	0	0	
1	0	0	0	0	582	517	0	0	0	0	
2	0	0	0	0	575	513	0	0	0	0	
3	0	0	0	0	565	505	0	0	0	0	
4	0	0	0	0	556	496	0	0	0	0	
5	0	0	0	0	545	486	0	0	0	0	
6	0	0	0	0	536	477	0	0	0	0	
7	0	0	0	0	528	469	0	0	0	0	
8	0	0	0	0	522	463	0	0	0	0	
9	0	0	0	0	520	460	0	0	0	0	
10	0	0	0	0	519	459	0	0	0	0	
11	0	0	0	0	520	460	0	0	0	0	
12	0	0	0	0	523	462	0	0	0	0	
13	0	0	0	0	525	465	0	0	0	0	
14	0	0	0	0	527	467	0	0	0	0	
15	0	0	0	0	527	467	0	0	0	0	
0	0	0	0	0	527	466	0	0	0	0	
1	0	0	0	0	524	463	0	0	0	0	
2	0	0	0	0	521	460	0	0	0	0	
3	0	0	0	0	519	455	0	0	0	0	
4	0	0	0	0	515	451	0	0	0	0	
5	0	0	0	0	512	446	0	0	0	0	
6	0	0	0	0	510	441	0	0	0	0	
7	0	0	0	0	507	436	0	0	0	0	
8	0	0	0	0	505	433	0	0	0	0	
9	0	0	0	0	503	430	0	0	0	0	
10	0	0	0	0	501	427	0	0	0	0	
11	0	0	0	0	501	426	0	0	0	0	
12	0	0	0	0	502	426	0	0	0	0	
13	0	0	0	0	504	429	0	0	0	0	
14	0	0	0	0	507	433	0	0	0	0	
15	0	0	0	0	512	438	0	0	0	0	
0	0	0	0	0	518	444	0	0	0	0	
1	0	0	0	0	523	452	0	0	0	0	
2	0	0	0	0	531	460	0	0	0	0	
3	0	0	0	0	539	469	0	0	0	0	
4	0	0	0	0	547	478	0	0	0	0	
5	0	0	0	0	555	485	0	0	0	0	
6	0	0	0	0	560	492	0	0	0	0	
7	0	0	0	0	566	497	0	0	0	0	
8	0	0	0	0	568	500	0	0	0	0	
9	0	0	0	0	568	499	0	0	0	0	
10	0	0	0	0	565	496	0	0	0	0	
11	0	0	0	0	558	490	0	0	0	0	
12	0	0	0	0	550	481	0	0	0	0	
13	0	0	0	0	540	471	0	0	0	0	
14	0	0	0	0	529	461	0	0	0	0	
15	0	0	0	0	519	451	0	0	0	0	
0	0	0	0	0	510	443	0	0	0	0	
1	0	0	0	0	505	436	0	0	0	0	
2	0	0	0	0	502	433	0	0	0	0	
3	0	0	0	0	502	432	0	0	0	0	
4	0	0	0	0	505	434	0	0	0	0	
5	0	0	0	0	510	439	0	0	0	0	
6	0	0	0	0	518	445	0	0	0	0	
7	0	0	0	0	526	453	0	0	0	0	
8	0	0	0	0	535	460	0	0	0	0	
9	0	0	0	0	543	468	0	0	0	0	
10	0	0	0	0	551	476	0	0	0	0	
11	0	0	0	0	558	483	0	0	0	0	
12	0	0	0	0	562	487	0	0	0	0	
13	0	0	0	0	565	491	0	0	0	0	
14	0	0	0	0	567	493	0	0	0	0	
15	0	0	0	0	566	494	0	0	0	0	
0	0	0	0	0	565	493	0	0	0	0	
1	0	0	0	0	563	492	0	0	0	0	
2	0	0	0	0	560	491	0	0	0	0	
3	0	0	0	0	558	489	0	0	0	0	
4	0	0	0	0	555	488	0	0	0	0	
5	0	0	0	0	553	487	0	0	0	0	
6	0	0	0	0	552	486	0	0	0	0	
7	0	0	0	0	552	486	0	0	0	0	
8	0	0	0	0	553	487	0	0	0	0	
9	0	0	0	0	554	488	0	0	0	0	
10	0	0	0	0	556	489	0	0	0	0	
11	0	0	0	0	558	491	0	0	0	0	
12	0	0	0	0	559	491	0	0	0	0	
13	0	0	0	0	559	491	0	0	0	0	
14	0	0	0	0	558	490	0	0	0	0	
15	0	0	0	0	556	488	0	0	0	0	
0	0	0	0	0	553	487	0	0	0	0	
1	0	0	0	0	548	483	0	0	0	0	
2	0	0	0	0	541	480	0	0	0	0	
3	0	0	0	0	535	475	0	0	0	0	
4	0	0	0	0	526	470	0	0	0	0	
5	0	0	0	0	518	463	0	0	0	0	
6	0	0	0	0	508	456	0	0	0	0	
7	0	0	0	0	498	449	0	0	0	0	
8	0	0	0	0	492	443	0	0	0	0	
9	0	0	0	0	487	439	0	0	0	0	
10	0	0	0	0	487	438	0	0	0	0	
11	0	0	0	0	491	439	0	0	0	0	
12	0	0	0	0	499	443	0	0	0	0	
13	0	0	0	0	510	448	0	0	0	0	
14	0	0	0	0	523	455	0	0	0	0	
15	0	0	0	0	537	461	0	0	0	0	
0	0	0	0	0	551	468	0	0	0	0	
1	0	0	0	0	562	474	0	0	0	0	
2	0	0	0	0	572	478	0	0	0	0	
3	0	0	0	0	579	482	0	0	0	0	
4	0	0	0	0	583	484	0	0	0	0	
5	0	0	0	0	584	484	0	0	0	0	
6	0	0	0	0	581	483	0	0	0	0	
7	0	0	0	0	577	481	0	0	0	0	
8	0	0	0	0	571	479	0	0	0	0	
9	0	0	0	0	563	476	0	0	0	0	
10	0	0	0	0	554	472	0	0	0	0	
11	0	0	0	0	544	468	0	0	0	0	
12	0	0	0	0	535	463	0	0	0	0	
13	0	0	0	0	526	459	0	0	0	0	
14	0	0	0	0	517	455	0	0	0	0	
15	0	0	0	0	511	451	0	0	0	0	
0	0	0	0	0	507	449	0	0	0	0	
1	0	0	0	0	505	449	0	0	0	0	
2	0	0	0	0	506	450	0	0	0	0	
3	0	0	0	0	509	452	0	0	0	0	
4	0	0	0	0	514	455	0	0	0	0	
5	0	0	0	0	519	458	0	0	0	0	
6	0	0	0	0	526	461	0	0	0	0	
7	0	0	0	0	532	464	0	0	0	0	
8	0	0	0	0	537	467	0	0	0	0	
9	0	0	0	0	543	470	0	0	0	0	
10	0	0	0	0	546	471	0	0	0	0	
11	0	0	0	0	548	473	0	0	0	0	
12	0	0	0	0	550	473	0	0	0	0	
13	0	0	0	0	548	473	0	0	0	0	
14	0	0	0	0	546	472	0	0	0	0	
15	0	0	0	0	543	470	0	0	0	0	
0	0	0	0	0	539	467	0	0	0	0	
1	0	0	0	0	536	465	0	0	0	0	
2	0	0	0	0	531	463	0	0	0	0	
3	0	0	0	0	527	460	0	0	0	0	
4	0	0	0	0	524	458	0	0	0	0	
5	0	0	0	0	521	456	0	0	0	0	
6	0	0	0	0	520	455	0	0	0	0	
7	0	0	0	0	519	454	0	0	0	0	
8	0	0	0	0	519	454	0	0	0	0	
9	0	0	0	0	521	454	0	0	0	0	
10	0	0	0	0	522	454	0	0	0	0	
11	0	0	0	0	524	455	0	0	0	0	
12	0	0	0	0	526	456	0	0	0	0	
13	0	0	0	0	528	457	0	0	0	0	
14	0	0	0	0	531	459	0	0	0	0	
15	0	0	0	0	532	460	0	0	0	0	
0	0	0	0	0	535	462	0	0	0	0	
1	0	0	0	0	537	463	0	0	0	0	
2	0	0	0	0	539	465	0	0	0	0	
3	0	0	0	0	540	467	0	0	0	0	
4	0	0	0	0	540	468	0	0	0	0	
5	0	0	0	0	541	470	0	0	0	0	
6	0	0	0	0	541	472	0	0	0	0	
7	0	0	0	0	541	474	0	0	0	0	
8	0	0	0	0	540	476	0	0	0	0	
9	0	0	0	0	540	478	0	0	0	0	
10	0	0	0	0	540	479	0	0	0	0	
11	0	0	0	0	540	480	0	0	0	0	
12	0	0	0	0	539	481	0	0	0	0	
13	0	0	0	0	537	480	0	0	0	0	
14	0	0	0	0	535	478	0	0	0	0	
15	0	0	0	0	531	475	0	0	0	0	
0	0	0	0	0	528	470	0	0	0	0	
1	0	0	0	0	523	465	0	0	0	0	
2	0	0	0	0	519	460	0	0	0	0	
3	0	0	0	0	516	456	0	0	0	0	
4	0	0	0	0	516	453	0	0	0	0	
5	0	0	0	0	516	451	0	0	0	0	
6	0	0	0	0	519	451	0	0	0	0	
7	0	0	0	0	524	454	0	0	0	0	
8	0	0	0	0	530	457	0	0	0	0	
9	0	0	0	0	539	462	0	0	0	0	
10	0	0	0	0	545	467	0	0	0	0	
11	0	0	0	0	552	472	0	0	0	0	
12	0	0	0	0	558	476	0	0	0	0	
13	0	0	0	0	561	479	0	0	0	0	
14	0	0	0	0	563	481	0	0	0	0	
15	0	0	0	0	562	481	0	0	0	0	
0	0	0	0	0	560	481	0	0	0	0	
1	0	0	0	0	556	480	0	0	0	0	
2	0	0	0	0	551	476	0	0	0	0	
3	0	0	0	0	547	474	0	0	0	0	
4	0	0	0	0	542	470	0	0	0	0	
5	0	0	0	0	537	465	0	0	0	0	
6	0	0	0	0	532	460	0	0	0	0	
7	0	0	0	0	527	455	0	0	0	0	
8	0	0	0	0	522	449	0	0	0	0	
9	0	0	0	0	516	443	0	0	0	0	
10	0	0	0	0	510	436	0	0	0	0	
11	0	0	0	0	504	430	0	0	0	0	
12	0	0	0	0	498	423	0	0	0	0	
13	0	0	0	0	493	419	0	0	0	0	
14	0	0	0	0	489	416	0	0	0	0	
15	0	0	0	0	487	416	0	0	0	0	
0	0	0	0	0	488	417	0	0	0	0	
1	0	0	0	0	492	423	0	0	0	0	
2	0	0	0	0	498	431	0	0	0	0	
3	0	0	0	0	508	441	0	0	0	0	
4	0	0	0	0	519	452	0	0	0	0	
5	0	0	0	0	532	463	0	0	0	0	
6	0	0	0	0	544	475	0	0	0	0	
7	0	0	0	0	556	484	0	0	0	0	
8	0	0	0	0	565	492	0	0	0	0	
9	0	0	0	0	572	498	0	0	0	0	
10	0	0	0	0	576	501	0	0	0	0	
11	0	0	0	0	577	500	0	0	0	0	
12	0	0	0	0	575	498	0	0	0	0	
13	0	0	0	0	569	492	0	0	0	0	
14	0	0	0	0	560	485	0	0	0	0	
15	0	0	0	0	550	475	0	0	0	0	
0	0	0	0	0	537	464	0	0	0	0	
1	0	0	0	0	525	455	0	0	0	0	
2	0	0	0	0	513	445	0	0	0	0	
3	0	0	0	0	502	437	0	0	0	0	
4	0	0	0	0	494	430	0	0	0	0	
5	0	0	0	0	487	426	0	0	0	0	
6	0	0	0	0	484	424	0	0	0	0	
7	0	0	0	0	484	426	0	0	0	0	
8	0	0	0	0	487	429	0	0	0	0	
9	0	0	0	0	494	435	0	0	0	0	
10	0	0	0	0	502	441	0	0	0	0	
11	0	0	0	0	511	449	0	0	0	0	
12	0	0	0	0	521	456	0	0	0	0	
13	0	0	0	0	530	462	0	0	0	0	
14	0	0	0	0	538	467	0	0	0	0	
15	0	0	0	0	543	471	0	0	0	0	
0	0	0	0	0	549	472	0	0	0	0	
1	0	0	0	0	551	472	0	0	0	0	
2	0	0	0	0	551	471	0	0	0	0	
3	0	0	0	0	549	467	0	0	0	0	
4	0	0	0	0	546	464	0	0	0	0	
5	0	0	0	0	541	460	0	0	0	0	
6	0	0	0	0	535	455	0	0	0	0	
7	0	0	0	0	529	451	0	0	0	0	
8	0	0	0	0	523	447	0	0	0	0	
9	0	0	0	0	516	442	0	0	0	0	
10	0	0	0	0	510	439	0	0	0	0	
11	0	0	0	0	505	436	0	0	0	0	
12	0	0	0	0	502	435	0	0	0	0	
13	0	0	0	0	501	434	0	0	0	0	
14	0	0	0	0	501	435	0	0	0	0	
15	0	0	0	0	504	436	0	0	0	0	
0	0	0	0	0	508	439	0	0	0	0	
1	0	0	0	0	513	441	0	0	0	0	
2	0	0	0	0	519	444	0	0	0	0	
3	0	0	0	0	524	446	0	0	0	0	
4	0	0	0	0	528	448	0	0	0	0	
5	0	0	0	0	532	449	0	0	0	0	
6	0	0	0	0	534	449	0	0	0	0	
7	0	0	0	0	535	449	0	0	0	0	
8	0	0	0	0	536	449	0	0	0	0	
9	0	0	0	0	535	450	0	0	0	0	
10	0	0	0	0	534	450	0	0	0	0	
11	0	0	0	0	532	451	0	0	0	0	
12	0	0	0	0	531	452	0	0	0	0	
13	0	0	0	0	529	452	0	0	0	0	
14	0	0	0	0	527	454	0	0	0	0	
15	0	0	0	0	526	455	0	0	0	0	
0	0	0	0	0	526	458	0	0	0	0	
1	0	0	0	0	527	460	0	0	0	0	
2	0	0	0	0	529	462	0	0	0	0	
3	0	0	0	0	532	465	0	0	0	0	
4	0	0	0	0	535	467	0	0	0	0	
5	0	0	0	0	537	468	0	0	0	0	
6	0	0	0	0	540	468	0	0	0	0	
7	0	0	0	0	541	468	0	0	0	0	
8	0	0	0	0	542	467	0	0	0	0	
9	0	0	0	0	540	463	0	0	0	0	
10	0	0	0	0	537	459	0	0	0	0	
11	0	0	0	0	533	453	0	0	0	0	
12	0	0	0	0	527	448	0	0	0	0	
13	0	0	0	0	522	443	0	0	0	0	
14	0	0	0	0	517	438	0	0	0	0	
15	0	0	0	0	512	435	0	0	0	0	
0	0	0	0	0	509	433	0	0	0	0	
1	0	0	0	0	506	432	0	0	0	0	
2	0	0	0	0	505	433	0	0	0	0	
3	0	0	0	0	505	434	0	0	0	0	
4	0	0	0	0	507	437	0	0	0	0	
5	0	0	0	0	510	440	0	0	0	0	
6	0	0	0	0	514	445	0	0	0	0	
7	0	0	0	0	520	450	0	0	0	0	
8	0	0	0	0	526	455	0	0	0	0	
9	0	0	0	0	532	460	0	0	0	0	
10	0	0	0	0	537	462	0	0	0	0	
11	0	0	0	0	541	464	0	0	0	0	
12	0	0	0	0	545	464	0	0	0	0	
13	0	0	0	0	546	462	0	0	0	0	
14	0	0	0	0	546	460	0	0	0	0	
15	0	0	0	0	544	456	0	0	0	0	
0	0	0	0	0	542	452	0	0	0	0	
1	0	0	0	0	540	449	0	0	0	0	
2	0	0	0	0	537	447	0	0	0	0	
3	0	0	0	0	535	445	0	0	0	0	
4	0	0	0	0	532	444	0	0	0	0	
5	0	0	0	0	531	445	0	0	0	0	
6	0	0	0	0	530	446	0	0	0	0	
7	0	0	0	0	529	448	0	0	0	0	
8	0	0	0	0	529	450	0	0	0	0	
9	0	0	0	0	529	451	0	0	0	0	
10	0	0	0	0	528	453	0	0	0	0	
11	0	0	0	0	527	454	0	0	0	0	
12	0	0	0	0	526	454	0	0	0	0	
13	0	0	0	0	525	454	0	0	0	0	
14	0	0	0	0	524	453	0	0	0	0	
15	0	0	0	0	523	452	0	0	0	0	
0	0	0	0	0	523	452	0	0	0	0	
1	0	0	0	0	524	452	0	0	0	0	
2	0	0	0	0	526	453	0	0	0	0	
3	0	0	0	0	528	454	0	0	0	0	
4	0	0	0	0	532	455	0	0	0	0	
5	0	0	0	0	536	458	0	0	0	0	
6	0	0	0	0	537	458	0	0	0	0	
7	0	0	0	0	538	457	0	0	0	0	
8	0	0	0	0	536	456	0	0	0	0	
9	0	0	0	0	534	452	0	0	0	0	
10	0	0	0	0	529	450	0	0	0	0	
11	0	0	0	0	525	446	0	0	0	0	
12	0	0	0	0	520	443	0	0	0	0	
13	0	0	0	0	516	440	0	0	0	0	
14	0	0	0	0	513	438	0	0	0	0	
15	0	0	0	0	511	437	0	0	0	0	
0	0	0	0	0	510	436	0	0	0	0	
1	0	0	0	0	510	436	0	0	0	0	
2	0	0	0	0	512	438	0	0	0	0	
3	0	0	0	0	515	439	0	0	0	0	
4	0	0	0	0	519	443	0	0	0	0	
5	0	0	0	0	524	447	0	0	0	0	
6	0	0	0	0	530	453	0	0	0	0	
7	0	0	0	0	537	459	0	0	0	0	
8	0	0	0	0	542	464	0	0	0	0	
9	0	0	0	0	548	469	0	0	0	0	
10	0	0	0	0	551	472	0	0	0	0	
11	0	0	0	0	551	473	0	0	0	0	
12	0	0	0	0	551	472	0	0	0	0	
13	0	0	0	0	547	468	0	0	0	0	
14	0	0	0	0	542	463	0	0	0	0	
15	0	0	0	0	535	457	0	0	0	0	
0	0	0	0	0	527	451	0	0	0	0	
1	0	0	0	0	520	445	0	0	0	0	
2	0	0	0	0	514	439	0	0	0	0	
3	0	0	0	0	509	435	0	0	0	0	
4	0	0	0	0	506	433	0	0	0	0	
5	0	0	0	0	505	433	0	0	0	0	
6	0	0	0	0	507	435	0	0	0	0	
7	0	0	0	0	511	438	0	0	0	0	
8	0	0	0	0	516	442	0	0	0	0	
9	0	0	0	0	523	447	0	0	0	0	
10	0	0	0	0	529	451	0	0	0	0	
11	0	0	0	0	536	455	0	0	0	0	
12	0	0	0	0	540	456	0	0	0	0	
13	0	0	0	0	543	457	0	0	0	0	
14	0	0	0	0	545	457	0	0	0	0	
15	0	0	0	0	545	456	0	0	0	0	
0	0	0	0	0	545	455	0	0	0	0	
1	0	0	0	0	543	454	0	0	0	0	
2	0	0	0	0	542	454	0	0	0	0	
3	0	0	0	0	541	454	0	0	0	0	
4	0	0	0	0	539	454	0	0	0	0	
5	0	0	0	0	538	454	0	0	0	0	
6	0	0	0	0	536	454	0	0	0	0	
7	0	0	0	0	535	454	0	0	0	0	
8	0	0	0	0	534	454	0	0	0	0	
9	0	0	0	0	531	455	0	0	0	0	
10	0	0	0	0	530	454	0	0	0	0	
11	0	0	0	0	529	453	0	0	0	0	
12	0	0	0	0	527	453	0	0	0	0	
13	0	0	0	0	527	453	0	0	0	0	
14	0	0	0	0	527	453	0	0	0	0	
15	0	0	0	0	528	453	0	0	0	0	
0	0	0	0	0	530	454	0	0	0	0	
1	0	0	0	0	532	455	0	0	0	0	
2	0	0	0	0	534	458	0	0	0	0	
3	0	0	0	0	536	460	0	0	0	0	
4	0	0	0	0	539	462	0	0	0	0	
5	0	0	0	0	540	464	0	0	0	0	
6	0	0	0	0	542	467	0	0	0	0	
7	0	0	0	0	543	469	0	0	0	0	
8	0	0	0	0	544	471	0	0	0	0	
9	0	0	0	0	544	473	0	0	0	0	
10	0	0	0	0	544	474	0	0	0	0	
11	0	0	0	0	544	476	0	0	0	0	
12	0	0	0	0	543	476	0	0	0	0	
13	0	0	0	0	542	476	0	0	0	0	
14	0	0	0	0	540	474	0	0	0	0	
15	0	0	0	0	538	471	0	0	0	0	
0	0	0	0	0	536	469	0	0	0	0	
1	0	0	0	0	535	467	0	0	0	0	
2	0	0	0	0	532	463	0	0	0	0	
3	0	0	0	0	530	461	0	0	0	0	
4	0	0	0	0	526	457	0	0	0	0	
5	0	0	0	0	523	454	0	0	0	0	
6	0	0	0	0	519	451	0	0	0	0	
7	0	0	0	0	515	448	0	0	0	0	
8	0	0	0	0	513	446	0	0	0	0	
9	0	0	0	0	510	444	0	0	0	0	
10	0	0	0	0	509	444	0	0	0	0	
11	0	0	0	0	509	444	0	0	0	0	
12	0	0	0	0	511	446	0	0	0	0	
13	0	0	0	0	513	447	0	0	0	0	
14	0	0	0	0	517	449	0	0	0	0	
15	0	0	0	0	520	451	0	0	0	0	
0	0	0	0	0	524	453	0	0	0	0	
1	0	0	0	0	527	454	0	0	0	0	
2	0	0	0	0	530	455	0	0	0	0	
3	0	0	0	0	531	456	0	0	0	0	
4	0	0	0	0	531	456	0	0	0	0	
5	0	0	0	0	529	455	0	0	0	0	
6	0	0	0	0	526	451	0	0	0	0	
7	0	0	0	0	521	447	0	0	0	0	
8	0	0	0	0	514	443	0	0	0	0	
9	0	0	0	0	508	438	0	0	0	0	
10	0	0	0	0	504	435	0	0	0	0	
11	0	0	0	0	501	433	0	0	0	0	
12	0	0	0	0	502	433	0	0	0	0	
13	0	0	0	0	503	436	0	0	0	0	
14	0	0	0	0	508	440	0	0	0	0	
15	0	0	0	0	514	444	0	0	0	0	
0	0	0	0	0	520	448	0	0	0	0	
1	0	0	0	0	526	451	0	0	0	0	
2	0	0	0	0	531	454	0	0	0	0	
3	0	0	0	0	535	455	0	0	0	0	
4	0	0	0	0	537	455	0	0	0	0	
5	0	0	0	0	537	455	0	0	0	0	
6	0	0	0	0	537	452	0	0	0	0	
7	0	0	0	0	536	451	0	0	0	0	
8	0	0	0	0	534	450	0	0	0	0	
9	0	0	0	0	532	448	0	0	0	0	
10	0	0	0	0	530	448	0	0	0	0	
11	0	0	0	0	528	447	0	0	0	0	
12	0	0	0	0	527	447	0	0	0	0	
13	0	0	0	0	526	448	0	0	0	0	
14	0	0	0	0	525	449	0	0	0	0	
15	0	0	0	0	525	450	0	0	0	0	
0	0	0	0	0	525	451	0	0	0	0	
1	0	0	0	0	524	453	0	0	0	0	
2	0	0	0	0	525	454	0	0	0	0	
3	0	0	0	0	524	455	0	0	0	0	
4	0	0	0	0	524	455	0	0	0	0	
5	0	0	0	0	523	455	0	0	0	0	
6	0	0	0	0	521	454	0	0	0	0	
7	0	0	0	0	520	453	0	0	0	0	
8	0	0	0	0	519	451	0	0	0	0	
9	0	0	0	0	517	450	0	0	0	0	
10	0	0	0	0	516	448	0	0	0	0	
11	0	0	0	0	513	446	0	0	0	0	
12	0	0	0	0	513	445	0	0	0	0	
13	0	0	0	0	513	444	0	0	0	0	
14	0	0	0	0	513	444	0	0	0	0	
15	0	0	0	0	514	445	0	0	0	0	
0	0	0	0	0	515	446	0	0	0	0	
1	0	0	0	0	515	447	0	0	0	0	
2	0	0	0	0	516	448	0	0	0	0	
3	0	0	0	0	518	449	0	0	0	0	
4	0	0	0	0	519	451	0	0	0	0	
5	0	0	0	0	521	453	0	0	0	0	
6	0	0	0	0	525	456	0	0	0	0	
7	0	0	0	0	529	460	0	0	0	0	
8	0	0	0	0	534	464	0	0	0	0	
9	0	0	0	0	537	467	0	0	0	0	
10	0	0	0	0	541	468	0	0	0	0	
11	0	0	0	0	543	469	0	0	0	0	
12	0	0	0	0	543	468	0	0	0	0	
13	0	0	0	0	541	466	0	0	0	0	
14	0	0	0	0	538	462	0	0	0	0	
15	0	0	0	0	533	458	0	0	0	0	
0	0	0	0	0	527	454	0	0	0	0	
1	0	0	0	0	520	449	0	0	0	0	
2	0	0	0	0	512	443	0	0	0	0	
3	0	0	0	0	505	439	0	0	0	0	
4	0	0	0	0	498	435	0	0	0	0	
5	0	0	0	0	492	432	0	0	0	0	
6	0	0	0	0	487	430	0	0	0	0	
7	0	0	0	0	484	429	0	0	0	0	
8	0	0	0	0	483	429	0	0	0	0	
9	0	0	0	0	482	430	0	0	0	0	
10	0	0	0	0	484	431	0	0	0	0	
11	0	0	0	0	488	434	0	0	0	0	
12	0	0	0	0	493	436	0	0	0	0	
13	0	0	0	0	500	440	0	0	0	0	
14	0	0	0	0	508	444	0	0	0	0	
15	0	0	0	0	516	448	0	0	0	0	
0	0	0	0	0	524	452	0	0	0	0	
1	0	0	0	0	531	455	0	0	0	0	
2	0	0	0	0	538	458	0	0	0	0	
3	0	0	0	0	542	460	0	0	0	0	
4	0	0	0	0	545	461	0	0	0	0	
5	0	0	0	0	546	461	0	0	0	0	
6	0	0	0	0	544	461	0	0	0	0	
7	0	0	0	0	542	460	0	0	0	0	
8	0	0	0	0	539	460	0	0	0	0	
9	0	0	0	0	536	458	0	0	0	0	
10	0	0	0	0	531	455	0	0	0	0	
11	0	0	0	0	526	454	0	0	0	0	
12	0	0	0	0	521	451	0	0	0	0	
13	0	0	0	0	518	448	0	0	0	0	
14	0	0	0	0	515	447	0	0	0	0	
15	0	0	0	0	512	445	0	0	0	0	
0	0	0	0	0	512	444	0	0	0	0	
1	0	0	0	0	511	443	0	0	0	0	
2	0	0	0	0	512	443	0	0	0	0	
3	0	0	0	0	512	442	0	0	0	0	
4	0	0	0	0	512	441	0	0	0	0	
5	0	0	0	0	511	439	0	0	0	0	
6	0	0	0	0	509	435	0	0	0	0	
7	0	0	0	0	505	430	0	0	0	0	
8	0	0	0	0	499	424	0	0	0	0	
9	0	0	0	0	492	417	0	0	0	0	
10	0	0	0	0	483	408	0	0	0	0	
11	0	0	0	0	473	399	0	0	0	0	
12	0	0	0	0	462	388	0	0	0	0	
13	0	0	0	0	449	378	0	0	0	0	
14	0	0	0	0	437	368	0	0	0	0	
15	0	0	0	0	424	357	0	0	0	0	
0	0	0	0	0	412	345	0	0	0	0	
1	0	0	0	0	398	334	0	0	0	0	
2	0	0	0	0	384	322	0	0	0	0	
3	0	0	0	0	370	310	0	0	0	0	
4	0	0	0	0	355	297	0	0	0	0	
5	0	0	0	0	341	284	0	0	0	0	
6	0	0	0	0	327	271	0	0	0	0	
7	0	0	0	0	315	259	0	0	0	0	
8	0	0	0	0	303	248	0	0	0	0	
9	0	0	0	0	293	238	0	0	0	0	
10	0	0	0	0	285	228	0	0	0	0	
11	0	0	0	0	279	220	0	0	0	0	
12	0	0	0	0	275	214	0	0	0	0	
13	0	0	0	0	273	209	0	0	0	0	
14	0	0	0	0	274	207	0	0	0	0	
15	0	0	0	0	278	207	0	0	0	0	
0	0	0	0	0	284	211	0	0	0	0	
1	0	0	0	0	294	219	0	0	0	0	
2	0	0	0	0	307	230	0	0	0	0	
3	0	0	0	0	323	244	0	0	0	0	
4	0	0	0	0	343	262	0	0	0	0	
5	0	0	0	0	364	282	0	0	0	0	
6	0	0	0	0	387	304	0	0	0	0	
7	0	0	0	0	412	328	0	0	0	0	
8	0	0	0	0	435	351	0	0	0	0	
9	0	0	0	0	457	373	0	0	0	0	
10	0	0	0	0	475	393	0	0	0	0	
11	0	0	0	0	492	410	0	0	0	0	
12	0	0	0	0	505	424	0	0	0	0	
13	0	0	0	0	514	435	0	0	0	0	
14	0	0	0	0	521	442	0	0	0	0	
15	0	0	0	0	524	447	0	0	0	0	
0	0	0	0	0	526	449	0	0	0	0	
1	0	0	0	0	525	449	0	0	0	0	
2	0	0	0	0	524	448	0	0	0	0	
3	0	0	0	0	521	447	0	0	0	0	
4	0	0	0	0	519	446	0	0	0	0	
5	0	0	0	0	520	448	0	0	0	0	
6	0	0	0	0	523	451	0	0	0	0	
7	0	0	0	0	527	455	0	0	0	0	
8	0	0	0	0	535	461	0	0	0	0	
9	0	0	0	0	542	468	0	0	0	0	
10	0	0	0	0	552	476	0	0	0	0	
11	0	0	0	0	561	483	0	0	0	0	
12	0	0	0	0	569	489	0	0	0	0	
13	0	0	0	0	576	494	0	0	0	0	
14	0	0	0	0	579	497	0	0	0	0	
15	0	0	0	0	582	498	0	0	0	0	
0	0	0	0	0	582	498	0	0	0	0	
1	0	0	0	0	579	496	0	0	0	0	
2	0	0	0	0	575	492	0	0	0	0	
3	0	0	0	0	569	488	0	0	0	0	
4	0	0	0	0	563	483	0	0	0	0	
5	0	0	0	0	557	479	0	0	0	0	
6	0	0	0	0	551	476	0	0	0	0	
7	0	0	0	0	547	473	0	0	0	0	
8	0	0	0	0	543	472	0	0	0	0	
9	0	0	0	0	542	473	0	0	0	0	
10	0	0	0	0	542	474	0	0	0	0	
11	0	0	0	0	544	476	0	0	0	0	
12	0	0	0	0	547	480	0	0	0	0	
13	0	0	0	0	550	483	0	0	0	0	
14	0	0	0	0	555	487	0	0	0	0	
15	0	0	0	0	558	489	0	0	0	0	
0	0	0	0	0	563	492	0	0	0	0	
1	0	0	0	0	565	493	0	0	0	0	
2	0	0	0	0	566	492	0	0	0	0	
3	0	0	0	0	566	490	0	0	0	0	
4	0	0	0	0	564	487	0	0	0	0	
5	0	0	0	0	560	482	0	0	0	0	
6	0	0	0	0	555	476	0	0	0	0	
7	0	0	0	0	548	470	0	0	0	0	
8	0	0	0	0	542	464	0	0	0	0	
9	0	0	0	0	535	459	0	0	0	0	
10	0	0	0	0	528	454	0	0	0	0	
11	0	0	0	0	522	450	0	0	0	0	
12	0	0	0	0	516	447	0	0	0	0	
13	0	0	0	0	513	446	0	0	0	0	
14	0	0	0	0	511	446	0	0	0	0	
15	0	0	0	0	511	448	0	0	0	0	
0	0	0	0	0	513	450	0	0	0	0	
1	0	0	0	0	515	453	0	0	0	0	
2	0	0	0	0	518	456	0	0	0	0	
3	0	0	0	0	522	459	0	0	0	0	
4	0	0	0	0	526	461	0	0	0	0	
5	0	0	0	0	530	464	0	0	0	0	
6	0	0	0	0	534	466	0	0	0	0	
7	0	0	0	0	538	467	0	0	0	0	
8	0	0	0	0	542	470	0	0	0	0	
9	0	0	0	0	546	472	0	0	0	0	
10	0	0	0	0	550	474	0	0	0	0	
11	0	0	0	0	555	476	0	0	0	0	
12	0	0	0	0	559	479	0	0	0	0	
13	0	0	0	0	562	481	0	0	0	0	
14	0	0	0	0	564	483	0	0	0	0	
15	0	0	0	0	566	484	0	0	0	0	
0	0	0	0	0	566	485	0	0	0	0	
1	0	0	0	0	566	486	0	0	0	0	
2	0	0	0	0	564	485	0	0	0	0	
3	0	0	0	0	560	484	0	0	0	0	
4	0	0	0	0	556	481	0	0	0	0	
5	0	0	0	0	550	478	0	0	0	0	
6	0	0	0	0	544	473	0	0	0	0	
7	0	0	0	0	538	470	0	0	0	0	
8	0	0	0	0	532	466	0	0	0	0	
9	0	0	0	0	529	463	0	0	0	0	
10	0	0	0	0	527	462	0	0	0	0	
11	0	0	0	0	527	462	0	0	0	0	
12	0	0	0	0	528	464	0	0	0	0	
13	0	0	0	0	532	467	0	0	0	0	
14	0	0	0	0	538	472	0	0	0	0	
15	0	0	0	0	544	476	0	0	0	0	
0	0	0	0	0	551	482	0	0	0	0	
1	0	0	0	0	556	485	0	0	0	0	
2	0	0	0	0	559	486	0	0	0	0	
3	0	0	0	0	559	485	0	0	0	0	
4	0	0	0	0	558	482	0	0	0	0	
5	0	0	0	0	555	478	0	0	0	0	
6	0	0	0	0	549	472	0	0	0	0	
7	0	0	0	0	543	466	0	0	0	0	
8	0	0	0	0	538	462	0	0	0	0	
9	0	0	0	0	533	457	0	0	0	0	
10	0	0	0	0	529	455	0	0	0	0	
11	0	0	0	0	527	454	0	0	0	0	
12	0	0	0	0	526	454	0	0	0	0	
13	0	0	0	0	528	457	0	0	0	0	
14	0	0	0	0	531	460	0	0	0	0	
15	0	0	0	0	536	464	0	0	0	0	
0	0	0	0	0	540	468	0	0	0	0	
1	0	0	0	0	543	471	0	0	0	0	
2	0	0	0	0	547	473	0	0	0	0	
3	0	0	0	0	548	474	0	0	0	0	
4	0	0	0	0	548	473	0	0	0	0	
5	0	0	0	0	547	472	0	0	0	0	
6	0	0	0	0	544	470	0	0	0	0	
7	0	0	0	0	539	466	0	0	0	0	
8	0	0	0	0	534	462	0	0	0	0	
9	0	0	0	0	527	457	0	0	0	0	
10	0	0	0	0	519	452	0	0	0	0	
11	0	0	0	0	512	447	0	0	0	0	
12	0	0	0	0	504	441	0	0	0	0	
13	0	0	0	0	498	436	0	0	0	0	
14	0	0	0	0	493	434	0	0	0	0	
15	0	0	0	0	490	432	0	0	0	0	
0	0	0	0	0	489	432	0	0	0	0	
1	0	0	0	0	490	433	0	0	0	0	
2	0	0	0	0	494	436	0	0	0	0	
3	0	0	0	0	502	442	0	0	0	0	
4	0	0	0	0	511	449	0	0	0	0	
5	0	0	0	0	524	457	0	0	0	0	
6	0	0	0	0	536	466	0	0	0	0	
7	0	0	0	0	550	475	0	0	0	0	
8	0	0	0	0	563	483	0	0	0	0	
9	0	0	0	0	572	488	0	0	0	0	
10	0	0	0	0	580	492	0	0	0	0	
11	0	0	0	0	585	494	0	0	0	0	
12	0	0	0	0	586	493	0	0	0	0	
13	0	0	0	0	585	492	0	0	0	0	
14	0	0	0	0	582	490	0	0	0	0	
15	0	0	0	0	577	488	0	0	0	0	
0	0	0	0	0	572	486	0	0	0	0	
1	0	0	0	0	567	483	0	0	0	0	
2	0	0	0	0	562	482	0	0	0	0	
3	0	0	0	0	557	482	0	0	0	0	
4	0	0	0	0	553	482	0	0	0	0	
5	0	0	0	0	550	481	0	0	0	0	
6	0	0	0	0	547	481	0	0	0	0	
7	0	0	0	0	546	482	0	0	0	0	
8	0	0	0	0	545	482	0	0	0	0	
9	0	0	0	0	545	482	0	0	0	0	
10	0	0	0	0	545	481	0	0	0	0	
11	0	0	0	0	546	480	0	0	0	0	
12	0	0	0	0	547	480	0	0	0	0	
13	0	0	0	0	547	479	0	0	0	0	
14	0	0	0	0	548	479	0	0	0	0	
15	0	0	0	0	549	479	0	0	0	0	
0	0	0	0	0	551	480	0	0	0	0	
1	0	0	0	0	553	481	0	0	0	0	
2	0	0	0	0	555	484	0	0	0	0	
3	0	0	0	0	557	487	0	0	0	0	
4	0	0	0	0	559	489	0	0	0	0	
5	0	0	0	0	559	490	0	0	0	0	
6	0	0	0	0	559	491	0	0	0	0	
7	0	0	0	0	557	490	0	0	0	0	
8	0	0	0	0	555	488	0	0	0	0	
9	0	0	0	0	551	486	0	0	0	0	
10	0	0	0	0	547	483	0	0	0	0	
11	0	0	0	0	544	480	0	0	0	0	
12	0	0	0	0	540	476	0	0	0	0	
13	0	0	0	0	538	473	0	0	0	0	
14	0	0	0	0	536	470	0	0	0	0	
15	0	0	0	0	536	468	0	0	0	0	
0	0	0	0	0	537	468	0	0	0	0	
1	0	0	0	0	540	469	0	0	0	0	
2	0	0	0	0	544	472	0	0	0	0	
3	0	0	0	0	550	475	0	0	0	0	
4	0	0	0	0	556	478	0	0	0	0	
5	0	0	0	0	561	482	0	0	0	0	
6	0	0	0	0	567	486	0	0	0	0	
7	0	0	0	0	571	488	0	0	0	0	
8	0	0	0	0	573	491	0	0	0	0	
9	0	0	0	0	573	491	0	0	0	0	
10	0	0	0	0	572	491	0	0	0	0	
11	0	0	0	0	568	489	0	0	0	0	
12	0	0	0	0	561	486	0	0	0	0	
13	0	0	0	0	554	481	0	0	0	0	
14	0	0	0	0	545	475	0	0	0	0	
15	0	0	0	0	536	469	0	0	0	0	
0	0	0	0	0	527	462	0	0	0	0	
1	0	0	0	0	520	455	0	0	0	0	
2	0	0	0	0	514	450	0	0	0	0	
3	0	0	0	0	511	447	0	0	0	0	
4	0	0	0	0	510	445	0	0	0	0	
5	0	0	0	0	511	445	0	0	0	0	
6	0	0	0	0	514	447	0	0	0	0	
7	0	0	0	0	519	449	0	0	0	0	
8	0	0	0	0	526	453	0	0	0	0	
9	0	0	0	0	532	458	0	0	0	0	
10	0	0	0	0	539	464	0	0	0	0	
11	0	0	0	0	545	470	0	0	0	0	
12	0	0	0	0	551	476	0	0	0	0	
13	0	0	0	0	556	481	0	0	0	0	
14	0	0	0	0	559	486	0	0	0	0	
15	0	0	0	0	561	489	0	0	0	0	
0	0	0	0	0	562	492	0	0	0	0	
1	0	0	0	0	562	495	0	0	0	0	
2	0	0	0	0	561	497	0	0	0	0	
3	0	0	0	0	560	497	0	0	0	0	
4	0	0	0	0	557	496	0	0	0	0	
5	0	0	0	0	553	494	0	0	0	0	
6	0	0	0	0	550	491	0	0	0	0	
7	0	0	0	0	547	487	0	0	0	0	
8	0	0	0	0	545	485	0	0	0	0	
9	0	0	0	0	543	482	0	0	0	0	
10	0	0	0	0	543	480	0	0	0	0	
11	0	0	0	0	542	476	0	0	0	0	
12	0	0	0	0	541	474	0	0	0	0	
13	0	0	0	0	542	472	0	0	0	0	
14	0	0	0	0	542	470	0	0	0	0	
15	0	0	0	0	543	469	0	0	0	0	
0	0	0	0	0	546	470	0	0	0	0	
1	0	0	0	0	551	472	0	0	0	0	
2	0	0	0	0	556	475	0	0	0	0	
3	0	0	0	0	561	480	0	0	0	0	
4	0	0	0	0	567	485	0	0	0	0	
5	0	0	0	0	573	490	0	0	0	0	
6	0	0	0	0	578	495	0	0	0	0	
7	0	0	0	0	582	499	0	0	0	0	
8	0	0	0	0	584	503	0	0	0	0	
9	0	0	0	0	585	505	0	0	0	0	
10	0	0	0	0	584	505	0	0	0	0	
11	0	0	0	0	582	504	0	0	0	0	
12	0	0	0	0	579	502	0	0	0	0	
13	0	0	0	0	574	499	0	0	0	0	
14	0	0	0	0	569	495	0	0	0	0	
15	0	0	0	0	563	491	0	0	0	0	
0	0	0	0	0	558	486	0	0	0	0	
1	0	0	0	0	552	482	0	0	0	0	
2	0	0	0	0	548	480	0	0	0	0	
3	0	0	0	0	545	477	0	0	0	0	
4	0	0	0	0	543	476	0	0	0	0	
5	0	0	0	0	542	475	0	0	0	0	
6	0	0	0	0	543	476	0	0	0	0	
7	0	0	0	0	544	478	0	0	0	0	
8	0	0	0	0	545	480	0	0	0	0	
9	0	0	0	0	547	481	0	0	0	0	
10	0	0	0	0	549	483	0	0	0	0	
11	0	0	0	0	551	486	0	0	0	0	
12	0	0	0	0	551	487	0	0	0	0	
13	0	0	0	0	552	487	0	0	0	0	
14	0	0	0	0	553	488	0	0	0	0	
15	0	0	0	0	554	489	0	0	0	0	
0	0	0	0	0	556	490	0	0	0	0	
1	0	0	0	0	558	492	0	0	0	0	
2	0	0	0	0	561	492	0	0	0	0	
3	0	0	0	0	563	493	0	0	0	0	
4	0	0	0	0	565	494	0	0	0	0	
5	0	0	0	0	568	494	0	0	0	0	
6	0	0	0	0	568	494	0	0	0	0	
7	0	0	0	0	568	494	0	0	0	0	
8	0	0	0	0	568	492	0	0	0	0	
9	0	0	0	0	564	491	0	0	0	0	
10	0	0	0	0	562	489	0	0	0	0	
11	0	0	0	0	558	487	0	0	0	0	
12	0	0	0	0	554	484	0	0	0	0	
13	0	0	0	0	550	482	0	0	0	0	
14	0	0	0	0	546	481	0	0	0	0	
15	0	0	0	0	544	480	0	0	0	0	
0	0	0	0	0	541	479	0	0	0	0	
1	0	0	0	0	540	478	0	0	0	0	
2	0	0	0	0	539	477	0	0	0	0	
3	0	0	0	0	538	477	0	0	0	0	
4	0	0	0	0	539	476	0	0	0	0	
5	0	0	0	0	538	476	0	0	0	0	
6	0	0	0	0	539	476	0	0	0	0	
7	0	0	0	0	539	475	0	0	0	0	
8	0	0	0	0	538	474	0	0	0	0	
9	0	0	0	0	539	473	0	0	0	0	
10	0	0	0	0	538	473	0	0	0	0	
11	0	0	0	0	537	472	0	0	0	0	
12	0	0	0	0	537	471	0	0	0	0	
13	0	0	0	0	535	470	0	0	0	0	
14	0	0	0	0	536	471	0	0	0	0	
15	0	0	0	0	535	472	0	0	0	0	
0	0	0	0	0	536	473	0	0	0	0	
1	0	0	0	0	538	474	0	0	0	0	
2	0	0	0	0	540	476	0	0	0	0	
3	0	0	0	0	543	479	0	0	0	0	
4	0	0	0	0	547	482	0	0	0	0	
5	0	0	0	0	552	485	0	0	0	0	
6	0	0	0	0	557	489	0	0	0	0	
7	0	0	0	0	563	494	0	0	0	0	
8	0	0	0	0	569	498	0	0	0	0	
9	0	0	0	0	575	501	0	0	0	0	
10	0	0	0	0	578	502	0	0	0	0	
11	0	0	0	0	578	500	0	0	0	0	
12	0	0	0	0	576	497	0	0	0	0	
13	0	0	0	0	572	493	0	0	0	0	
14	0	0	0	0	567	488	0	0	0	0	
15	0	0	0	0	560	482	0	0	0	0	
0	0	0	0	0	553	476	0	0	0	0	
1	0	0	0	0	547	472	0	0	0	0	
2	0	0	0	0	542	468	0	0	0	0	
3	0	0	0	0	538	466	0	0	0	0	
4	0	0	0	0	536	465	0	0	0	0	
5	0	0	0	0	535	465	0	0	0	0	
6	0	0	0	0	536	467	0	0	0	0	
7	0	0	0	0	539	470	0	0	0	0	
8	0	0	0	0	543	473	0	0	0	0	
9	0	0	0	0	547	477	0	0	0	0	
10	0	0	0	0	551	481	0	0	0	0	
11	0	0	0	0	555	484	0	0	0	0	
12	0	0	0	0	559	487	0	0	0	0	
13	0	0	0	0	561	489	0	0	0	0	
14	0	0	0	0	563	491	0	0	0	0	
15	0	0	0	0	564	492	0	0	0	0	
0	0	0	0	0	563	491	0	0	0	0	
1	0	0	0	0	563	491	0	0	0	0	
2	0	0	0	0	560	489	0	0	0	0	
3	0	0	0	0	558	488	0	0	0	0	
4	0	0	0	0	556	487	0	0	0	0	
5	0	0	0	0	555	486	0	0	0	0	
6	0	0	0	0	556	487	0	0	0	0	
7	0	0	0	0	557	488	0	0	0	0	
8	0	0	0	0	560	492	0	0	0	0	
9	0	0	0	0	564	495	0	0	0	0	
10	0	0	0	0	569	499	0	0	0	0	
11	0	0	0	0	575	503	0	0	0	0	
12	0	0	0	0	580	506	0	0	0	0	
13	0	0	0	0	585	509	0	0	0	0	
14	0	0	0	0	590	512	0	0	0	0	
15	0	0	0	0	593	515	0	0	0	0	
0	0	0	0	0	596	517	0	0	0	0	
1	0	0	0	0	597	518	0	0	0	0	
2	0	0	0	0	597	518	0	0	0	0	
3	0	0	0	0	595	517	0	0	0	0	
4	0	0	0	0	590	514	0	0	0	0	
5	0	0	0	0	585	511	0	0	0	0	
6	0	0	0	0	579	507	0	0	0	0	
7	0	0	0	0	573	504	0	0	0	0	
8	0	0	0	0	567	499	0	0	0	0	
9	0	0	0	0	560	495	0	0	0	0	
10	0	0	0	0	554	492	0	0	0	0	
11	0	0	0	0	550	488	0	0	0	0	
12	0	0	0	0	545	485	0	0	0	0	
13	0	0	0	0	543	483	0	0	0	0	
14	0	0	0	0	540	481	0	0	0	0	
15	0	0	0	0	540	480	0	0	0	0	
0	0	0	0	0	539	478	0	0	0	0	
1	0	0	0	0	539	477	0	0	0	0	
2	0	0	0	0	539	476	0	0	0	0	
3	0	0	0	0	540	475	0	0	0	0	
4	0	0	0	0	540	474	0	0	0	0	
5	0	0	0	0	541	474	0	0	0	0	
6	0	0	0	0	540	473	0	0	0	0	
7	0	0	0	0	540	472	0	0	0	0	
8	0	0	0	0	537	470	0	0	0	0	
9	0	0	0	0	536	469	0	0	0	0	
10	0	0	0	0	532	468	0	0	0	0	
11	0	0	0	0	530	467	0	0	0	0	
12	0	0	0	0	529	468	0	0	0	0	
13	0	0	0	0	529	469	0	0	0	0	
14	0	0	0	0	531	472	0	0	0	0	
15	0	0	0	0	533	476	0	0	0	0	
0	0	0	0	0	536	480	0	0	0	0	
1	0	0	0	0	541	483	0	0	0	0	
2	0	0	0	0	545	486	0	0	0	0	
3	0	0	0	0	550	488	0	0	0	0	
4	0	0	0	0	553	489	0	0	0	0	
5	0	0	0	0	557	490	0	0	0	0	
6	0	0	0	0	560	489	0	0	0	0	
7	0	0	0	0	561	488	0	0	0	0	
8	0	0	0	0	564	488	0	0	0	0	
9	0	0	0	0	567	488	0	0	0	0	
10	0	0	0	0	569	489	0	0	0	0	
11	0	0	0	0	572	490	0	0	0	0	
12	0	0	0	0	574	492	0	0	0	0	
13	0	0	0	0	578	496	0	0	0	0	
14	0	0	0	0	580	499	0	0	0	0	
15	0	0	0	0	583	502	0	0	0	0	
0	0	0	0	0	585	506	0	0	0	0	
1	0	0	0	0	586	510	0	0	0	0	
2	0	0	0	0	588	513	0	0	0	0	
3	0	0	0	0	588	515	0	0	0	0	
4	0	0	0	0	588	517	0	0	0	0	
5	0	0	0	0	587	517	0	0	0	0	
6	0	0	0	0	584	516	0	0	0	0	
7	0	0	0	0	582	514	0	0	0	0	
8	0	0	0	0	578	512	0	0	0	0	
9	0	0	0	0	575	508	0	0	0	0	
10	0	0	0	0	572	505	0	0	0	0	
11	0	0	0	0	569	503	0	0	0	0	
12	0	0	0	0	568	502	0	0	0	0	
13	0	0	0	0	568	501	0	0	0	0	
14	0	0	0	0	570	502	0	0	0	0	
15	0	0	0	0	573	504	0	0	0	0	
0	0	0	0	0	575	506	0	0	0	0	
1	0	0	0	0	580	510	0	0	0	0	
2	0	0	0	0	584	513	0	0	0	0	
3	0	0	0	0	588	516	0	0	0	0	
4	0	0	0	0	590	518	0	0	0	0	
5	0	0	0	0	591	520	0	0	0	0	
6	0	0	0	0	591	521	0	0	0	0	
7	0	0	0	0	590	521	0	0	0	0	
8	0	0	0	0	587	520	0	0	0	0	
9	0	0	0	0	583	519	0	0	0	0	
10	0	0	0	0	579	516	0	0	0	0	
11	0	0	0	0	574	513	0	0	0	0	
12	0	0	0	0	568	509	0	0	0	0	
13	0	0	0	0	563	505	0	0	0	0	
14	0	0	0	0	558	501	0	0	0	0	
15	0	0	0	0	554	498	0	0	0	0	
0	0	0	0	0	553	496	0	0	0	0	
1	0	0	0	0	552	495	0	0	0	0	
2	0	0	0	0	554	496	0	0	0	0	
3	0	0	0	0	558	497	0	0	0	0	
4	0	0	0	0	561	499	0	0	0	0	
5	0	0	0	0	565	500	0	0	0	0	
6	0	0	0	0	569	502	0	0	0	0	
7	0	0	0	0	572	504	0	0	0	0	
8	0	0	0	0	574	504	0	0	0	0	
9	0	0	0	0	575	504	0	0	0	0	
10	0	0	0	0	574	505	0	0	0	0	
11	0	0	0	0	572	504	0	0	0	0	
12	0	0	0	0	571	504	0	0	0	0	
13	0	0	0	0	568	503	0	0	0	0	
14	0	0	0	0	565	503	0	0	0	0	
15	0	0	0	0	563	502	0	0	0	0	
0	0	0	0	0	560	502	0	0	0	0	
1	0	0	0	0	558	501	0	0	0	0	
2	0	0	0	0	556	499	0	0	0	0	
3	0	0	0	0	552	498	0	0	0	0	
4	0	0	0	0	551	497	0	0	0	0	
5	0	0	0	0	548	496	0	0	0	0	
6	0	0	0	0	546	494	0	0	0	0	
7	0	0	0	0	545	494	0	0	0	0	
8	0	0	0	0	546	494	0	0	0	0	
9	0	0	0	0	549	496	0	0	0	0	
10	0	0	0	0	555	499	0	0	0	0	
11	0	0	0	0	560	503	0	0	0	0	
12	0	0	0	0	568	508	0	0	0	0	
13	0	0	0	0	575	512	0	0	0	0	
14	0	0	0	0	583	517	0	0	0	0	
15	0	0	0	0	590	521	0	0	0	0	
0	0	0	0	0	595	524	0	0	0	0	
1	0	0	0	0	600	527	0	0	0	0	
2	0	0	0	0	602	528	0	0	0	0	
3	0	0	0	0	603	529	0	0	0	0	
4	0	0	0	0	601	528	0	0	0	0	
5	0	0	0	0	597	525	0	0	0	0	
6	0	0	0	0	592	522	0	0	0	0	
7	0	0	0	0	586	518	0	0	0	0	
8	0	0	0	0	580	514	0	0	0	0	
9	0	0	0	0	574	511	0	0	0	0	
10	0	0	0	0	568	508	0	0	0	0	
11	0	0	0	0	564	505	0	0	0	0	
12	0	0	0	0	561	503	0	0	0	0	
13	0	0	0	0	560	503	0	0	0	0	
14	0	0	0	0	560	504	0	0	0	0	
