# OpenSignals Text File Format. Version 1
# {"": {"position": 0, "device": "", "device name": "", "device connection": "", "sampling rate": 1000, "resolution": [4, 1, 1, 1, 1, 10, 10, 10, 10, 6, 6], "firmware version": 1281, "comments": "", "keywords": "", "mode": 0, "sync interval": 2, "date": "", "time": "", "channels": [1, 2, 3, 4, 5, 6], "sensor": ["RAW", "RAW", "RAW", "RAW", "RAW", "RAW"], "label": ["A1", "A2", "A3", "A4", "A5", "A6"], "column": ["nSeq", "I1", "I2", "O1", "O2", "A1", "A2", "A3", "A4", "A5", "A6"], "special": [{}, {}, {}, {}, {}, {}], "digital IO": [0, 0, 1, 1]}}
# EndOfHeader
0	0	0	0	0	396	327	0	0	0	0	
1	0	0	0	0	418	346	0	0	0	0	
2	0	0	0	0	443	368	0	0	0	0	
3	0	0	0	0	468	391	0	0	0	0	
4	0	0	0	0	495	413	0	0	0	0	
5	0	0	0	0	519	436	0	0	0	0	
6	0	0	0	0	542	457	0	0	0	0	
7	0	0	0	0	562	476	0	0	0	0	
8	0	0	0	0	579	492	0	0	0	0	
9	0	0	0	0	591	507	0	0	0	0	
10	0	0	0	0	601	518	0	0	0	0	
11	0	0	0	0	608	527	0	0	0	0	
12	0	0	0	0	611	533	0	0	0	0	
13	0	0	0	0	611	537	0	0	0	0	
14	0	0	0	0	608	538	0	0	0	0	
15	0	0	0	0	604	537	0	0	0	0	
0	0	0	0	0	598	535	0	0	0	0	
1	0	0	0	0	591	532	0	0	0	0	
2	0	0	0	0	584	527	0	0	0	0	
3	0	0	0	0	576	521	0	0	0	0	
4	0	0	0	0	567	514	0	0	0	0	
5	0	0	0	0	558	506	0	0	0	0	
6	0	0	0	0	550	499	0	0	0	0	
7	0	0	0	0	543	492	0	0	0	0	
8	0	0	0	0	538	486	0	0	0	0	
9	0	0	0	0	534	481	0	0	0	0	
10	0	0	0	0	531	478	0	0	0	0	
11	0	0	0	0	530	475	0	0	0	0	
12	0	0	0	0	529	472	0	0	0	0	
13	0	0	0	0	527	470	0	0	0	0	
14	0	0	0	0	526	467	0	0	0	0	
15	0	0	0	0	525	465	0	0	0	0	
0	0	0	0	0	524	464	0	0	0	0	
1	0	0	0	0	522	463	0	0	0	0	
2	0	0	0	0	522	463	0	0	0	0	
3	0	0	0	0	523	465	0	0	0	0	
4	0	0	0	0	524	467	0	0	0	0	
5	0	0	0	0	526	468	0	0	0	0	
6	0	0	0	0	528	471	0	0	0	0	
7	0	0	0	0	529	471	0	0	0	0	
8	0	0	0	0	531	472	0	0	0	0	
9	0	0	0	0	531	472	0	0	0	0	
10	0	0	0	0	531	472	0	0	0	0	
11	0	0	0	0	531	471	0	0	0	0	
12	0	0	0	0	530	469	0	0	0	0	
13	0	0	0	0	528	467	0	0	0	0	
14	0	0	0	0	527	465	0	0	0	0	
15	0	0	0	0	525	463	0	0	0	0	
0	0	0	0	0	524	462	0	0	0	0	
1	0	0	0	0	524	462	0	0	0	0	
2	0	0	0	0	524	463	0	0	0	0	
3	0	0	0	0	526	465	0	0	0	0	
4	0	0	0	0	528	468	0	0	0	0	
5	0	0	0	0	532	472	0	0	0	0	
6	0	0	0	0	537	477	0	0	0	0	
7	0	0	0	0	543	483	0	0	0	0	
8	0	0	0	0	550	491	0	0	0	0	
9	0	0	0	0	558	498	0	0	0	0	
10	0	0	0	0	566	505	0	0	0	0	
11	0	0	0	0	575	514	0	0	0	0	
12	0	0	0	0	583	521	0	0	0	0	
13	0	0	0	0	592	529	0	0	0	0	
14	0	0	0	0	600	535	0	0	0	0	
15	0	0	0	0	605	540	0	0	0	0	
0	0	0	0	0	609	543	0	0	0	0	
1	0	0	0	0	611	543	0	0	0	0	
2	0	0	0	0	609	542	0	0	0	0	
3	0	0	0	0	606	539	0	0	0	0	
4	0	0	0	0	599	534	0	0	0	0	
5	0	0	0	0	590	527	0	0	0	0	
6	0	0	0	0	579	519	0	0	0	0	
7	0	0	0	0	568	511	0	0	0	0	
8	0	0	0	0	557	503	0	0	0	0	
9	0	0	0	0	547	497	0	0	0	0	
10	0	0	0	0	540	492	0	0	0	0	
11	0	0	0	0	536	490	0	0	0	0	
12	0	0	0	0	535	491	0	0	0	0	
13	0	0	0	0	537	494	0	0	0	0	
14	0	0	0	0	543	498	0	0	0	0	
15	0	0	0	0	551	504	0	0	0	0	
0	0	0	0	0	559	510	0	0	0	0	
1	0	0	0	0	567	515	0	0	0	0	
2	0	0	0	0	574	519	0	0	0	0	
3	0	0	0	0	579	521	0	0	0	0	
4	0	0	0	0	582	520	0	0	0	0	
5	0	0	0	0	583	520	0	0	0	0	
6	0	0	0	0	584	520	0	0	0	0	
7	0	0	0	0	585	520	0	0	0	0	
8	0	0	0	0	587	522	0	0	0	0	
9	0	0	0	0	588	524	0	0	0	0	
10	0	0	0	0	589	526	0	0	0	0	
11	0	0	0	0	589	527	0	0	0	0	
12	0	0	0	0	588	527	0	0	0	0	
13	0	0	0	0	584	526	0	0	0	0	
14	0	0	0	0	579	522	0	0	0	0	
15	0	0	0	0	572	516	0	0	0	0	
0	0	0	0	0	563	508	0	0	0	0	
1	0	0	0	0	552	499	0	0	0	0	
2	0	0	0	0	540	488	0	0	0	0	
3	0	0	0	0	527	476	0	0	0	0	
4	0	0	0	0	515	465	0	0	0	0	
5	0	0	0	0	504	455	0	0	0	0	
6	0	0	0	0	495	446	0	0	0	0	
7	0	0	0	0	488	439	0	0	0	0	
8	0	0	0	0	484	434	0	0	0	0	
9	0	0	0	0	483	433	0	0	0	0	
10	0	0	0	0	486	435	0	0	0	0	
11	0	0	0	0	492	439	0	0	0	0	
12	0	0	0	0	502	447	0	0	0	0	
13	0	0	0	0	513	456	0	0	0	0	
14	0	0	0	0	526	467	0	0	0	0	
15	0	0	0	0	538	477	0	0	0	0	
0	0	0	0	0	550	487	0	0	0	0	
1	0	0	0	0	560	496	0	0	0	0	
2	0	0	0	0	568	503	0	0	0	0	
3	0	0	0	0	574	508	0	0	0	0	
4	0	0	0	0	577	511	0	0	0	0	
5	0	0	0	0	577	512	0	0	0	0	
6	0	0	0	0	576	512	0	0	0	0	
7	0	0	0	0	573	509	0	0	0	0	
8	0	0	0	0	569	506	0	0	0	0	
9	0	0	0	0	563	503	0	0	0	0	
10	0	0	0	0	559	500	0	0	0	0	
11	0	0	0	0	555	497	0	0	0	0	
12	0	0	0	0	551	495	0	0	0	0	
13	0	0	0	0	547	493	0	0	0	0	
14	0	0	0	0	544	491	0	0	0	0	
15	0	0	0	0	541	488	0	0	0	0	
0	0	0	0	0	539	487	0	0	0	0	
1	0	0	0	0	536	484	0	0	0	0	
2	0	0	0	0	534	482	0	0	0	0	
3	0	0	0	0	531	480	0	0	0	0	
4	0	0	0	0	529	478	0	0	0	0	
5	0	0	0	0	527	476	0	0	0	0	
6	0	0	0	0	524	473	0	0	0	0	
7	0	0	0	0	523	471	0	0	0	0	
8	0	0	0	0	520	468	0	0	0	0	
9	0	0	0	0	519	466	0	0	0	0	
10	0	0	0	0	517	463	0	0	0	0	
11	0	0	0	0	516	462	0	0	0	0	
12	0	0	0	0	516	461	0	0	0	0	
13	0	0	0	0	519	461	0	0	0	0	
14	0	0	0	0	522	463	0	0	0	0	
15	0	0	0	0	527	467	0	0	0	0	
0	0	0	0	0	534	472	0	0	0	0	
1	0	0	0	0	542	479	0	0	0	0	
2	0	0	0	0	550	486	0	0	0	0	
3	0	0	0	0	558	494	0	0	0	0	
4	0	0	0	0	566	501	0	0	0	0	
5	0	0	0	0	572	508	0	0	0	0	
6	0	0	0	0	577	513	0	0	0	0	
7	0	0	0	0	580	517	0	0	0	0	
8	0	0	0	0	580	519	0	0	0	0	
9	0	0	0	0	579	519	0	0	0	0	
10	0	0	0	0	575	517	0	0	0	0	
11	0	0	0	0	571	514	0	0	0	0	
12	0	0	0	0	565	511	0	0	0	0	
13	0	0	0	0	559	507	0	0	0	0	
14	0	0	0	0	553	503	0	0	0	0	
15	0	0	0	0	547	498	0	0	0	0	
0	0	0	0	0	543	494	0	0	0	0	
1	0	0	0	0	538	490	0	0	0	0	
2	0	0	0	0	536	488	0	0	0	0	
3	0	0	0	0	535	487	0	0	0	0	
4	0	0	0	0	536	487	0	0	0	0	
5	0	0	0	0	538	488	0	0	0	0	
6	0	0	0	0	542	490	0	0	0	0	
7	0	0	0	0	546	493	0	0	0	0	
8	0	0	0	0	551	497	0	0	0	0	
9	0	0	0	0	558	501	0	0	0	0	
10	0	0	0	0	564	506	0	0	0	0	
11	0	0	0	0	572	512	0	0	0	0	
12	0	0	0	0	580	518	0	0	0	0	
13	0	0	0	0	588	524	0	0	0	0	
14	0	0	0	0	594	528	0	0	0	0	
15	0	0	0	0	598	532	0	0	0	0	
0	0	0	0	0	600	532	0	0	0	0	
1	0	0	0	0	598	531	0	0	0	0	
2	0	0	0	0	592	527	0	0	0	0	
3	0	0	0	0	585	521	0	0	0	0	
4	0	0	0	0	575	514	0	0	0	0	
5	0	0	0	0	564	506	0	0	0	0	
6	0	0	0	0	552	497	0	0	0	0	
7	0	0	0	0	541	489	0	0	0	0	
8	0	0	0	0	531	482	0	0	0	0	
9	0	0	0	0	522	476	0	0	0	0	
10	0	0	0	0	515	471	0	0	0	0	
11	0	0	0	0	511	467	0	0	0	0	
12	0	0	0	0	509	465	0	0	0	0	
13	0	0	0	0	509	464	0	0	0	0	
14	0	0	0	0	510	463	0	0	0	0	
15	0	0	0	0	512	463	0	0	0	0	
0	0	0	0	0	515	464	0	0	0	0	
1	0	0	0	0	519	465	0	0	0	0	
2	0	0	0	0	522	465	0	0	0	0	
3	0	0	0	0	525	467	0	0	0	0	
4	0	0	0	0	528	470	0	0	0	0	
5	0	0	0	0	532	472	0	0	0	0	
6	0	0	0	0	535	475	0	0	0	0	
7	0	0	0	0	537	477	0	0	0	0	
8	0	0	0	0	540	480	0	0	0	0	
9	0	0	0	0	543	483	0	0	0	0	
10	0	0	0	0	544	486	0	0	0	0	
11	0	0	0	0	546	488	0	0	0	0	
12	0	0	0	0	548	491	0	0	0	0	
13	0	0	0	0	550	493	0	0	0	0	
14	0	0	0	0	552	496	0	0	0	0	
15	0	0	0	0	555	499	0	0	0	0	
0	0	0	0	0	558	503	0	0	0	0	
1	0	0	0	0	561	507	0	0	0	0	
2	0	0	0	0	565	510	0	0	0	0	
3	0	0	0	0	569	513	0	0	0	0	
4	0	0	0	0	572	516	0	0	0	0	
5	0	0	0	0	575	519	0	0	0	0	
6	0	0	0	0	577	519	0	0	0	0	
7	0	0	0	0	577	520	0	0	0	0	
8	0	0	0	0	577	519	0	0	0	0	
9	0	0	0	0	576	518	0	0	0	0	
10	0	0	0	0	574	515	0	0	0	0	
11	0	0	0	0	571	511	0	0	0	0	
12	0	0	0	0	567	507	0	0	0	0	
13	0	0	0	0	562	503	0	0	0	0	
14	0	0	0	0	558	499	0	0	0	0	
15	0	0	0	0	554	496	0	0	0	0	
0	0	0	0	0	551	492	0	0	0	0	
1	0	0	0	0	548	490	0	0	0	0	
2	0	0	0	0	546	489	0	0	0	0	
3	0	0	0	0	545	489	0	0	0	0	
4	0	0	0	0	545	490	0	0	0	0	
5	0	0	0	0	548	493	0	0	0	0	
6	0	0	0	0	551	496	0	0	0	0	
7	0	0	0	0	555	499	0	0	0	0	
8	0	0	0	0	560	504	0	0	0	0	
9	0	0	0	0	564	508	0	0	0	0	
10	0	0	0	0	569	513	0	0	0	0	
11	0	0	0	0	574	516	0	0	0	0	
12	0	0	0	0	579	521	0	0	0	0	
13	0	0	0	0	583	524	0	0	0	0	
14	0	0	0	0	587	527	0	0	0	0	
15	0	0	0	0	589	529	0	0	0	0	
0	0	0	0	0	590	529	0	0	0	0	
1	0	0	0	0	587	526	0	0	0	0	
2	0	0	0	0	580	519	0	0	0	0	
3	0	0	0	0	570	510	0	0	0	0	
4	0	0	0	0	557	498	0	0	0	0	
5	0	0	0	0	543	486	0	0	0	0	
6	0	0	0	0	530	474	0	0	0	0	
7	0	0	0	0	519	464	0	0	0	0	
8	0	0	0	0	510	456	0	0	0	0	
9	0	0	0	0	504	451	0	0	0	0	
10	0	0	0	0	502	448	0	0	0	0	
11	0	0	0	0	502	447	0	0	0	0	
12	0	0	0	0	504	448	0	0	0	0	
13	0	0	0	0	508	451	0	0	0	0	
14	0	0	0	0	513	455	0	0	0	0	
15	0	0	0	0	519	460	0	0	0	0	
0	0	0	0	0	527	466	0	0	0	0	
1	0	0	0	0	535	472	0	0	0	0	
2	0	0	0	0	541	477	0	0	0	0	
3	0	0	0	0	547	481	0	0	0	0	
4	0	0	0	0	550	484	0	0	0	0	
5	0	0	0	0	552	486	0	0	0	0	
6	0	0	0	0	553	486	0	0	0	0	
7	0	0	0	0	552	487	0	0	0	0	
8	0	0	0	0	550	485	0	0	0	0	
9	0	0	0	0	547	485	0	0	0	0	
10	0	0	0	0	545	484	0	0	0	0	
11	0	0	0	0	543	484	0	0	0	0	
12	0	0	0	0	540	483	0	0	0	0	
13	0	0	0	0	538	483	0	0	0	0	
14	0	0	0	0	536	481	0	0	0	0	
15	0	0	0	0	532	479	0	0	0	0	
0	0	0	0	0	529	476	0	0	0	0	
1	0	0	0	0	526	473	0	0	0	0	
2	0	0	0	0	523	471	0	0	0	0	
3	0	0	0	0	520	468	0	0	0	0	
4	0	0	0	0	519	466	0	0	0	0	
5	0	0	0	0	518	465	0	0	0	0	
6	0	0	0	0	518	464	0	0	0	0	
7	0	0	0	0	519	464	0	0	0	0	
8	0	0	0	0	519	465	0	0	0	0	
9	0	0	0	0	522	466	0	0	0	0	
10	0	0	0	0	524	468	0	0	0	0	
11	0	0	0	0	527	471	0	0	0	0	
12	0	0	0	0	531	473	0	0	0	0	
13	0	0	0	0	536	477	0	0	0	0	
14	0	0	0	0	540	481	0	0	0	0	
15	0	0	0	0	545	486	0	0	0	0	
0	0	0	0	0	550	491	0	0	0	0	
1	0	0	0	0	556	497	0	0	0	0	
2	0	0	0	0	562	504	0	0	0	0	
3	0	0	0	0	568	511	0	0	0	0	
4	0	0	0	0	574	517	0	0	0	0	
5	0	0	0	0	579	523	0	0	0	0	
6	0	0	0	0	583	527	0	0	0	0	
7	0	0	0	0	585	529	0	0	0	0	
8	0	0	0	0	585	529	0	0	0	0	
9	0	0	0	0	583	528	0	0	0	0	
10	0	0	0	0	579	525	0	0	0	0	
11	0	0	0	0	573	521	0	0	0	0	
12	0	0	0	0	568	515	0	0	0	0	
13	0	0	0	0	562	510	0	0	0	0	
14	0	0	0	0	557	505	0	0	0	0	
15	0	0	0	0	552	500	0	0	0	0	
0	0	0	0	0	547	495	0	0	0	0	
1	0	0	0	0	543	490	0	0	0	0	
2	0	0	0	0	542	487	0	0	0	0	
3	0	0	0	0	541	486	0	0	0	0	
4	0	0	0	0	541	485	0	0	0	0	
5	0	0	0	0	542	486	0	0	0	0	
6	0	0	0	0	544	488	0	0	0	0	
7	0	0	0	0	547	491	0	0	0	0	
8	0	0	0	0	550	495	0	0	0	0	
9	0	0	0	0	555	500	0	0	0	0	
10	0	0	0	0	560	506	0	0	0	0	
11	0	0	0	0	566	513	0	0	0	0	
12	0	0	0	0	572	519	0	0	0	0	
13	0	0	0	0	577	525	0	0	0	0	
14	0	0	0	0	582	530	0	0	0	0	
15	0	0	0	0	587	534	0	0	0	0	
0	0	0	0	0	591	537	0	0	0	0	
1	0	0	0	0	593	539	0	0	0	0	
2	0	0	0	0	594	538	0	0	0	0	
3	0	0	0	0	593	535	0	0	0	0	
4	0	0	0	0	589	530	0	0	0	0	
5	0	0	0	0	583	523	0	0	0	0	
6	0	0	0	0	576	515	0	0	0	0	
7	0	0	0	0	568	506	0	0	0	0	
8	0	0	0	0	559	498	0	0	0	0	
9	0	0	0	0	550	489	0	0	0	0	
10	0	0	0	0	540	482	0	0	0	0	
11	0	0	0	0	532	476	0	0	0	0	
12	0	0	0	0	525	471	0	0	0	0	
13	0	0	0	0	520	468	0	0	0	0	
14	0	0	0	0	516	465	0	0	0	0	
15	0	0	0	0	515	465	0	0	0	0	
0	0	0	0	0	515	466	0	0	0	0	
1	0	0	0	0	516	467	0	0	0	0	
2	0	0	0	0	519	468	0	0	0	0	
3	0	0	0	0	520	468	0	0	0	0	
4	0	0	0	0	523	468	0	0	0	0	
5	0	0	0	0	525	469	0	0	0	0	
6	0	0	0	0	527	470	0	0	0	0	
7	0	0	0	0	530	470	0	0	0	0	
8	0	0	0	0	533	472	0	0	0	0	
9	0	0	0	0	537	476	0	0	0	0	
10	0	0	0	0	543	481	0	0	0	0	
11	0	0	0	0	549	486	0	0	0	0	
12	0	0	0	0	556	493	0	0	0	0	
13	0	0	0	0	562	500	0	0	0	0	
14	0	0	0	0	568	505	0	0	0	0	
15	0	0	0	0	571	510	0	0	0	0	
0	0	0	0	0	572	512	0	0	0	0	
1	0	0	0	0	572	513	0	0	0	0	
2	0	0	0	0	569	512	0	0	0	0	
3	0	0	0	0	566	511	0	0	0	0	
4	0	0	0	0	563	509	0	0	0	0	
5	0	0	0	0	560	507	0	0	0	0	
6	0	0	0	0	558	505	0	0	0	0	
7	0	0	0	0	556	503	0	0	0	0	
8	0	0	0	0	555	503	0	0	0	0	
9	0	0	0	0	555	502	0	0	0	0	
10	0	0	0	0	556	502	0	0	0	0	
11	0	0	0	0	556	503	0	0	0	0	
12	0	0	0	0	556	502	0	0	0	0	
13	0	0	0	0	556	500	0	0	0	0	
14	0	0	0	0	554	499	0	0	0	0	
15	0	0	0	0	551	497	0	0	0	0	
0	0	0	0	0	548	495	0	0	0	0	
1	0	0	0	0	545	492	0	0	0	0	
2	0	0	0	0	542	491	0	0	0	0	
3	0	0	0	0	541	490	0	0	0	0	
4	0	0	0	0	541	492	0	0	0	0	
5	0	0	0	0	543	494	0	0	0	0	
6	0	0	0	0	545	496	0	0	0	0	
7	0	0	0	0	548	500	0	0	0	0	
8	0	0	0	0	550	502	0	0	0	0	
9	0	0	0	0	551	503	0	0	0	0	
10	0	0	0	0	551	502	0	0	0	0	
11	0	0	0	0	549	500	0	0	0	0	
12	0	0	0	0	546	496	0	0	0	0	
13	0	0	0	0	541	491	0	0	0	0	
14	0	0	0	0	536	486	0	0	0	0	
15	0	0	0	0	531	480	0	0	0	0	
0	0	0	0	0	527	475	0	0	0	0	
1	0	0	0	0	524	472	0	0	0	0	
2	0	0	0	0	522	470	0	0	0	0	
3	0	0	0	0	523	471	0	0	0	0	
4	0	0	0	0	526	473	0	0	0	0	
5	0	0	0	0	531	476	0	0	0	0	
6	0	0	0	0	538	482	0	0	0	0	
7	0	0	0	0	546	489	0	0	0	0	
8	0	0	0	0	555	496	0	0	0	0	
9	0	0	0	0	563	503	0	0	0	0	
10	0	0	0	0	573	511	0	0	0	0	
11	0	0	0	0	580	517	0	0	0	0	
12	0	0	0	0	585	522	0	0	0	0	
13	0	0	0	0	588	525	0	0	0	0	
14	0	0	0	0	588	526	0	0	0	0	
15	0	0	0	0	585	524	0	0	0	0	
0	0	0	0	0	581	521	0	0	0	0	
1	0	0	0	0	575	517	0	0	0	0	
2	0	0	0	0	567	512	0	0	0	0	
3	0	0	0	0	559	507	0	0	0	0	
4	0	0	0	0	553	502	0	0	0	0	
5	0	0	0	0	547	498	0	0	0	0	
6	0	0	0	0	543	496	0	0	0	0	
7	0	0	0	0	542	495	0	0	0	0	
8	0	0	0	0	542	496	0	0	0	0	
9	0	0	0	0	545	498	0	0	0	0	
10	0	0	0	0	549	501	0	0	0	0	
11	0	0	0	0	553	504	0	0	0	0	
12	0	0	0	0	556	505	0	0	0	0	
13	0	0	0	0	558	506	0	0	0	0	
14	0	0	0	0	559	504	0	0	0	0	
15	0	0	0	0	558	502	0	0	0	0	
0	0	0	0	0	555	499	0	0	0	0	
1	0	0	0	0	550	495	0	0	0	0	
2	0	0	0	0	545	491	0	0	0	0	
3	0	0	0	0	540	486	0	0	0	0	
4	0	0	0	0	535	483	0	0	0	0	
5	0	0	0	0	531	480	0	0	0	0	
6	0	0	0	0	527	479	0	0	0	0	
7	0	0	0	0	525	478	0	0	0	0	
8	0	0	0	0	524	478	0	0	0	0	
9	0	0	0	0	525	479	0	0	0	0	
10	0	0	0	0	527	481	0	0	0	0	
11	0	0	0	0	532	484	0	0	0	0	
12	0	0	0	0	538	490	0	0	0	0	
13	0	0	0	0	545	496	0	0	0	0	
14	0	0	0	0	554	503	0	0	0	0	
15	0	0	0	0	563	511	0	0	0	0	
0	0	0	0	0	572	518	0	0	0	0	
1	0	0	0	0	578	523	0	0	0	0	
2	0	0	0	0	583	526	0	0	0	0	
3	0	0	0	0	584	527	0	0	0	0	
4	0	0	0	0	583	527	0	0	0	0	
5	0	0	0	0	580	525	0	0	0	0	
6	0	0	0	0	575	521	0	0	0	0	
7	0	0	0	0	568	515	0	0	0	0	
8	0	0	0	0	562	510	0	0	0	0	
9	0	0	0	0	555	504	0	0	0	0	
10	0	0	0	0	549	499	0	0	0	0	
11	0	0	0	0	544	495	0	0	0	0	
12	0	0	0	0	540	491	0	0	0	0	
13	0	0	0	0	539	488	0	0	0	0	
14	0	0	0	0	538	486	0	0	0	0	
15	0	0	0	0	539	485	0	0	0	0	
0	0	0	0	0	540	484	0	0	0	0	
1	0	0	0	0	540	483	0	0	0	0	
2	0	0	0	0	540	483	0	0	0	0	
3	0	0	0	0	540	483	0	0	0	0	
4	0	0	0	0	539	482	0	0	0	0	
5	0	0	0	0	537	480	0	0	0	0	
6	0	0	0	0	535	479	0	0	0	0	
7	0	0	0	0	533	477	0	0	0	0	
8	0	0	0	0	531	476	0	0	0	0	
9	0	0	0	0	530	475	0	0	0	0	
10	0	0	0	0	529	475	0	0	0	0	
11	0	0	0	0	528	473	0	0	0	0	
12	0	0	0	0	528	473	0	0	0	0	
13	0	0	0	0	527	472	0	0	0	0	
14	0	0	0	0	527	472	0	0	0	0	
15	0	0	0	0	526	471	0	0	0	0	
0	0	0	0	0	526	471	0	0	0	0	
1	0	0	0	0	526	472	0	0	0	0	
2	0	0	0	0	527	474	0	0	0	0	
3	0	0	0	0	529	477	0	0	0	0	
4	0	0	0	0	532	480	0	0	0	0	
5	0	0	0	0	536	483	0	0	0	0	
6	0	0	0	0	539	487	0	0	0	0	
7	0	0	0	0	543	491	0	0	0	0	
8	0	0	0	0	547	494	0	0	0	0	
9	0	0	0	0	551	498	0	0	0	0	
10	0	0	0	0	558	503	0	0	0	0	
11	0	0	0	0	564	508	0	0	0	0	
12	0	0	0	0	571	512	0	0	0	0	
13	0	0	0	0	576	516	0	0	0	0	
14	0	0	0	0	580	518	0	0	0	0	
15	0	0	0	0	582	519	0	0	0	0	
0	0	0	0	0	581	518	0	0	0	0	
1	0	0	0	0	579	516	0	0	0	0	
2	0	0	0	0	574	512	0	0	0	0	
3	0	0	0	0	568	508	0	0	0	0	
4	0	0	0	0	561	502	0	0	0	0	
5	0	0	0	0	553	497	0	0	0	0	
6	0	0	0	0	545	492	0	0	0	0	
7	0	0	0	0	538	487	0	0	0	0	
8	0	0	0	0	531	484	0	0	0	0	
9	0	0	0	0	527	482	0	0	0	0	
10	0	0	0	0	524	481	0	0	0	0	
11	0	0	0	0	523	481	0	0	0	0	
12	0	0	0	0	523	482	0	0	0	0	
13	0	0	0	0	524	483	0	0	0	0	
14	0	0	0	0	526	483	0	0	0	0	
15	0	0	0	0	527	484	0	0	0	0	
0	0	0	0	0	528	483	0	0	0	0	
1	0	0	0	0	529	482	0	0	0	0	
2	0	0	0	0	529	480	0	0	0	0	
3	0	0	0	0	528	478	0	0	0	0	
4	0	0	0	0	527	474	0	0	0	0	
5	0	0	0	0	526	471	0	0	0	0	
6	0	0	0	0	523	467	0	0	0	0	
7	0	0	0	0	520	463	0	0	0	0	
8	0	0	0	0	518	459	0	0	0	0	
9	0	0	0	0	516	456	0	0	0	0	
10	0	0	0	0	515	454	0	0	0	0	
11	0	0	0	0	515	455	0	0	0	0	
12	0	0	0	0	518	457	0	0	0	0	
13	0	0	0	0	523	461	0	0	0	0	
14	0	0	0	0	530	467	0	0	0	0	
15	0	0	0	0	540	476	0	0	0	0	
0	0	0	0	0	549	485	0	0	0	0	
1	0	0	0	0	559	494	0	0	0	0	
2	0	0	0	0	567	500	0	0	0	0	
3	0	0	0	0	573	505	0	0	0	0	
4	0	0	0	0	575	508	0	0	0	0	
5	0	0	0	0	575	508	0	0	0	0	
6	0	0	0	0	572	505	0	0	0	0	
7	0	0	0	0	566	501	0	0	0	0	
8	0	0	0	0	560	496	0	0	0	0	
9	0	0	0	0	551	490	0	0	0	0	
10	0	0	0	0	543	484	0	0	0	0	
11	0	0	0	0	536	478	0	0	0	0	
12	0	0	0	0	528	473	0	0	0	0	
13	0	0	0	0	522	468	0	0	0	0	
14	0	0	0	0	516	464	0	0	0	0	
15	0	0	0	0	512	461	0	0	0	0	
0	0	0	0	0	509	458	0	0	0	0	
1	0	0	0	0	507	455	0	0	0	0	
2	0	0	0	0	504	453	0	0	0	0	
3	0	0	0	0	502	450	0	0	0	0	
4	0	0	0	0	499	446	0	0	0	0	
5	0	0	0	0	496	441	0	0	0	0	
6	0	0	0	0	491	435	0	0	0	0	
7	0	0	0	0	484	427	0	0	0	0	
8	0	0	0	0	475	417	0	0	0	0	
9	0	0	0	0	464	406	0	0	0	0	
10	0	0	0	0	451	393	0	0	0	0	
11	0	0	0	0	436	379	0	0	0	0	
12	0	0	0	0	420	364	0	0	0	0	
13	0	0	0	0	403	348	0	0	0	0	
14	0	0	0	0	387	333	0	0	0	0	
15	0	0	0	0	370	318	0	0	0	0	
0	0	0	0	0	354	303	0	0	0	0	
1	0	0	0	0	341	291	0	0	0	0	
2	0	0	0	0	330	281	0	0	0	0	
3	0	0	0	0	321	273	0	0	0	0	
4	0	0	0	0	316	267	0	0	0	0	
5	0	0	0	0	313	264	0	0	0	0	
6	0	0	0	0	313	262	0	0	0	0	
7	0	0	0	0	316	263	0	0	0	0	
8	0	0	0	0	321	267	0	0	0	0	
9	0	0	0	0	329	272	0	0	0	0	
10	0	0	0	0	339	281	0	0	0	0	
11	0	0	0	0	352	291	0	0	0	0	
12	0	0	0	0	367	304	0	0	0	0	
13	0	0	0	0	383	319	0	0	0	0	
14	0	0	0	0	401	335	0	0	0	0	
15	0	0	0	0	419	351	0	0	0	0	
0	0	0	0	0	437	367	0	0	0	0	
1	0	0	0	0	455	383	0	0	0	0	
2	0	0	0	0	471	398	0	0	0	0	
3	0	0	0	0	486	412	0	0	0	0	
4	0	0	0	0	499	425	0	0	0	0	
5	0	0	0	0	510	435	0	0	0	0	
6	0	0	0	0	518	445	0	0	0	0	
7	0	0	0	0	525	454	0	0	0	0	
8	0	0	0	0	530	461	0	0	0	0	
9	0	0	0	0	534	467	0	0	0	0	
10	0	0	0	0	537	473	0	0	0	0	
11	0	0	0	0	540	478	0	0	0	0	
12	0	0	0	0	542	483	0	0	0	0	
13	0	0	0	0	543	486	0	0	0	0	
14	0	0	0	0	545	490	0	0	0	0	
15	0	0	0	0	546	492	0	0	0	0	
0	0	0	0	0	548	494	0	0	0	0	
1	0	0	0	0	549	495	0	0	0	0	
2	0	0	0	0	551	496	0	0	0	0	
3	0	0	0	0	551	496	0	0	0	0	
4	0	0	0	0	553	496	0	0	0	0	
5	0	0	0	0	553	496	0	0	0	0	
6	0	0	0	0	555	495	0	0	0	0	
7	0	0	0	0	556	495	0	0	0	0	
8	0	0	0	0	557	495	0	0	0	0	
9	0	0	0	0	558	496	0	0	0	0	
10	0	0	0	0	560	498	0	0	0	0	
11	0	0	0	0	561	499	0	0	0	0	
12	0	0	0	0	561	500	0	0	0	0	
13	0	0	0	0	560	500	0	0	0	0	
14	0	0	0	0	559	498	0	0	0	0	
15	0	0	0	0	556	496	0	0	0	0	
0	0	0	0	0	552	494	0	0	0	0	
1	0	0	0	0	548	492	0	0	0	0	
2	0	0	0	0	546	490	0	0	0	0	
3	0	0	0	0	545	489	0	0	0	0	
4	0	0	0	0	546	490	0	0	0	0	
5	0	0	0	0	548	492	0	0	0	0	
6	0	0	0	0	552	495	0	0	0	0	
7	0	0	0	0	558	499	0	0	0	0	
8	0	0	0	0	565	505	0	0	0	0	
9	0	0	0	0	572	510	0	0	0	0	
10	0	0	0	0	578	514	0	0	0	0	
11	0	0	0	0	582	518	0	0	0	0	
12	0	0	0	0	585	519	0	0	0	0	
13	0	0	0	0	585	519	0	0	0	0	
14	0	0	0	0	584	519	0	0	0	0	
15	0	0	0	0	582	518	0	0	0	0	
0	0	0	0	0	579	515	0	0	0	0	
1	0	0	0	0	575	515	0	0	0	0	
2	0	0	0	0	572	512	0	0	0	0	
3	0	0	0	0	569	511	0	0	0	0	
4	0	0	0	0	566	510	0	0	0	0	
5	0	0	0	0	564	509	0	0	0	0	
6	0	0	0	0	562	508	0	0	0	0	
7	0	0	0	0	561	508	0	0	0	0	
8	0	0	0	0	560	508	0	0	0	0	
9	0	0	0	0	559	507	0	0	0	0	
10	0	0	0	0	558	506	0	0	0	0	
11	0	0	0	0	556	503	0	0	0	0	
12	0	0	0	0	551	498	0	0	0	0	
13	0	0	0	0	546	492	0	0	0	0	
14	0	0	0	0	539	485	0	0	0	0	
15	0	0	0	0	531	478	0	0	0	0	
0	0	0	0	0	523	470	0	0	0	0	
1	0	0	0	0	515	462	0	0	0	0	
2	0	0	0	0	509	456	0	0	0	0	
3	0	0	0	0	504	452	0	0	0	0	
4	0	0	0	0	503	451	0	0	0	0	
5	0	0	0	0	504	453	0	0	0	0	
6	0	0	0	0	508	456	0	0	0	0	
7	0	0	0	0	514	462	0	0	0	0	
8	0	0	0	0	524	471	0	0	0	0	
9	0	0	0	0	535	480	0	0	0	0	
10	0	0	0	0	548	492	0	0	0	0	
11	0	0	0	0	561	502	0	0	0	0	
12	0	0	0	0	574	513	0	0	0	0	
13	0	0	0	0	585	521	0	0	0	0	
14	0	0	0	0	593	528	0	0	0	0	
15	0	0	0	0	599	533	0	0	0	0	
0	0	0	0	0	601	535	0	0	0	0	
1	0	0	0	0	601	534	0	0	0	0	
2	0	0	0	0	598	532	0	0	0	0	
3	0	0	0	0	593	528	0	0	0	0	
4	0	0	0	0	585	523	0	0	0	0	
5	0	0	0	0	577	516	0	0	0	0	
6	0	0	0	0	568	511	0	0	0	0	
7	0	0	0	0	561	506	0	0	0	0	
8	0	0	0	0	555	503	0	0	0	0	
9	0	0	0	0	553	502	0	0	0	0	
10	0	0	0	0	552	504	0	0	0	0	
11	0	0	0	0	555	506	0	0	0	0	
12	0	0	0	0	559	510	0	0	0	0	
13	0	0	0	0	564	515	0	0	0	0	
14	0	0	0	0	570	519	0	0	0	0	
15	0	0	0	0	577	524	0	0	0	0	
0	0	0	0	0	583	527	0	0	0	0	
1	0	0	0	0	587	530	0	0	0	0	
2	0	0	0	0	590	531	0	0	0	0	
3	0	0	0	0	591	531	0	0	0	0	
4	0	0	0	0	591	529	0	0	0	0	
5	0	0	0	0	588	526	0	0	0	0	
6	0	0	0	0	582	521	0	0	0	0	
7	0	0	0	0	575	514	0	0	0	0	
8	0	0	0	0	566	507	0	0	0	0	
9	0	0	0	0	555	497	0	0	0	0	
10	0	0	0	0	543	488	0	0	0	0	
11	0	0	0	0	531	480	0	0	0	0	
12	0	0	0	0	520	472	0	0	0	0	
13	0	0	0	0	511	465	0	0	0	0	
14	0	0	0	0	504	459	0	0	0	0	
15	0	0	0	0	499	456	0	0	0	0	
0	0	0	0	0	496	455	0	0	0	0	
1	0	0	0	0	497	456	0	0	0	0	
2	0	0	0	0	500	459	0	0	0	0	
3	0	0	0	0	506	463	0	0	0	0	
4	0	0	0	0	513	468	0	0	0	0	
5	0	0	0	0	522	474	0	0	0	0	
6	0	0	0	0	532	480	0	0	0	0	
7	0	0	0	0	542	487	0	0	0	0	
8	0	0	0	0	551	492	0	0	0	0	
9	0	0	0	0	559	496	0	0	0	0	
10	0	0	0	0	565	499	0	0	0	0	
11	0	0	0	0	569	501	0	0	0	0	
12	0	0	0	0	569	501	0	0	0	0	
13	0	0	0	0	568	498	0	0	0	0	
14	0	0	0	0	563	495	0	0	0	0	
15	0	0	0	0	558	491	0	0	0	0	
0	0	0	0	0	552	487	0	0	0	0	
1	0	0	0	0	547	486	0	0	0	0	
2	0	0	0	0	545	485	0	0	0	0	
3	0	0	0	0	544	487	0	0	0	0	
4	0	0	0	0	546	489	0	0	0	0	
5	0	0	0	0	548	492	0	0	0	0	
6	0	0	0	0	551	495	0	0	0	0	
7	0	0	0	0	555	498	0	0	0	0	
8	0	0	0	0	558	499	0	0	0	0	
9	0	0	0	0	559	498	0	0	0	0	
10	0	0	0	0	558	497	0	0	0	0	
11	0	0	0	0	556	494	0	0	0	0	
12	0	0	0	0	553	490	0	0	0	0	
13	0	0	0	0	550	487	0	0	0	0	
14	0	0	0	0	547	485	0	0	0	0	
15	0	0	0	0	545	483	0	0	0	0	
0	0	0	0	0	544	483	0	0	0	0	
1	0	0	0	0	544	484	0	0	0	0	
2	0	0	0	0	545	486	0	0	0	0	
3	0	0	0	0	547	488	0	0	0	0	
4	0	0	0	0	548	491	0	0	0	0	
5	0	0	0	0	549	493	0	0	0	0	
6	0	0	0	0	550	494	0	0	0	0	
7	0	0	0	0	550	494	0	0	0	0	
8	0	0	0	0	548	494	0	0	0	0	
9	0	0	0	0	546	492	0	0	0	0	
10	0	0	0	0	542	489	0	0	0	0	
11	0	0	0	0	537	485	0	0	0	0	
12	0	0	0	0	531	480	0	0	0	0	
13	0	0	0	0	525	475	0	0	0	0	
14	0	0	0	0	518	469	0	0	0	0	
15	0	0	0	0	512	463	0	0	0	0	
0	0	0	0	0	507	457	0	0	0	0	
1	0	0	0	0	503	453	0	0	0	0	
2	0	0	0	0	500	450	0	0	0	0	
3	0	0	0	0	500	448	0	0	0	0	
4	0	0	0	0	502	449	0	0	0	0	
5	0	0	0	0	505	451	0	0	0	0	
6	0	0	0	0	511	454	0	0	0	0	
7	0	0	0	0	517	459	0	0	0	0	
8	0	0	0	0	524	465	0	0	0	0	
9	0	0	0	0	530	470	0	0	0	0	
10	0	0	0	0	536	475	0	0	0	0	
11	0	0	0	0	540	480	0	0	0	0	
12	0	0	0	0	543	483	0	0	0	0	
13	0	0	0	0	544	485	0	0	0	0	
14	0	0	0	0	544	486	0	0	0	0	
15	0	0	0	0	542	485	0	0	0	0	
0	0	0	0	0	540	484	0	0	0	0	
1	0	0	0	0	537	483	0	0	0	0	
2	0	0	0	0	534	481	0	0	0	0	
3	0	0	0	0	531	479	0	0	0	0	
4	0	0	0	0	531	479	0	0	0	0	
5	0	0	0	0	531	480	0	0	0	0	
6	0	0	0	0	533	481	0	0	0	0	
7	0	0	0	0	537	484	0	0	0	0	
8	0	0	0	0	543	488	0	0	0	0	
9	0	0	0	0	551	495	0	0	0	0	
10	0	0	0	0	558	501	0	0	0	0	
11	0	0	0	0	566	507	0	0	0	0	
12	0	0	0	0	573	512	0	0	0	0	
13	0	0	0	0	578	516	0	0	0	0	
14	0	0	0	0	581	519	0	0	0	0	
15	0	0	0	0	582	519	0	0	0	0	
0	0	0	0	0	578	515	0	0	0	0	
1	0	0	0	0	573	510	0	0	0	0	
2	0	0	0	0	563	503	0	0	0	0	
3	0	0	0	0	552	493	0	0	0	0	
4	0	0	0	0	540	483	0	0	0	0	
5	0	0	0	0	527	473	0	0	0	0	
6	0	0	0	0	517	465	0	0	0	0	
7	0	0	0	0	510	459	0	0	0	0	
8	0	0	0	0	506	455	0	0	0	0	
9	0	0	0	0	506	454	0	0	0	0	
10	0	0	0	0	511	457	0	0	0	0	
11	0	0	0	0	519	463	0	0	0	0	
12	0	0	0	0	529	471	0	0	0	0	
13	0	0	0	0	540	479	0	0	0	0	
14	0	0	0	0	551	486	0	0	0	0	
15	0	0	0	0	559	491	0	0	0	0	
0	0	0	0	0	563	495	0	0	0	0	
1	0	0	0	0	564	495	0	0	0	0	
2	0	0	0	0	561	492	0	0	0	0	
3	0	0	0	0	556	489	0	0	0	0	
4	0	0	0	0	548	484	0	0	0	0	
5	0	0	0	0	540	478	0	0	0	0	
6	0	0	0	0	530	472	0	0	0	0	
7	0	0	0	0	521	465	0	0	0	0	
8	0	0	0	0	512	460	0	0	0	0	
9	0	0	0	0	504	454	0	0	0	0	
10	0	0	0	0	498	448	0	0	0	0	
11	0	0	0	0	493	444	0	0	0	0	
12	0	0	0	0	490	441	0	0	0	0	
13	0	0	0	0	489	440	0	0	0	0	
14	0	0	0	0	491	440	0	0	0	0	
15	0	0	0	0	495	442	0	0	0	0	
0	0	0	0	0	500	446	0	0	0	0	
1	0	0	0	0	508	451	0	0	0	0	
2	0	0	0	0	515	457	0	0	0	0	
3	0	0	0	0	524	464	0	0	0	0	
4	0	0	0	0	533	472	0	0	0	0	
5	0	0	0	0	542	479	0	0	0	0	
6	0	0	0	0	548	484	0	0	0	0	
7	0	0	0	0	553	488	0	0	0	0	
8	0	0	0	0	555	490	0	0	0	0	
9	0	0	0	0	554	491	0	0	0	0	
10	0	0	0	0	551	489	0	0	0	0	
11	0	0	0	0	546	485	0	0	0	0	
12	0	0	0	0	539	480	0	0	0	0	
13	0	0	0	0	531	474	0	0	0	0	
14	0	0	0	0	524	468	0	0	0	0	
15	0	0	0	0	516	462	0	0	0	0	
0	0	0	0	0	510	457	0	0	0	0	
1	0	0	0	0	505	452	0	0	0	0	
2	0	0	0	0	502	448	0	0	0	0	
3	0	0	0	0	499	446	0	0	0	0	
4	0	0	0	0	499	444	0	0	0	0	
5	0	0	0	0	501	444	0	0	0	0	
6	0	0	0	0	504	447	0	0	0	0	
7	0	0	0	0	509	450	0	0	0	0	
8	0	0	0	0	515	455	0	0	0	0	
9	0	0	0	0	522	460	0	0	0	0	
10	0	0	0	0	529	467	0	0	0	0	
11	0	0	0	0	537	474	0	0	0	0	
12	0	0	0	0	544	481	0	0	0	0	
13	0	0	0	0	550	487	0	0	0	0	
14	0	0	0	0	556	493	0	0	0	0	
15	0	0	0	0	560	498	0	0	0	0	
0	0	0	0	0	563	502	0	0	0	0	
1	0	0	0	0	565	505	0	0	0	0	
2	0	0	0	0	566	508	0	0	0	0	
3	0	0	0	0	567	508	0	0	0	0	
4	0	0	0	0	567	509	0	0	0	0	
5	0	0	0	0	566	508	0	0	0	0	
6	0	0	0	0	564	506	0	0	0	0	
7	0	0	0	0	561	503	0	0	0	0	
8	0	0	0	0	557	499	0	0	0	0	
9	0	0	0	0	552	495	0	0	0	0	
10	0	0	0	0	547	490	0	0	0	0	
11	0	0	0	0	543	486	0	0	0	0	
12	0	0	0	0	539	483	0	0	0	0	
13	0	0	0	0	536	480	0	0	0	0	
14	0	0	0	0	535	480	0	0	0	0	
15	0	0	0	0	534	479	0	0	0	0	
0	0	0	0	0	534	479	0	0	0	0	
1	0	0	0	0	533	480	0	0	0	0	
2	0	0	0	0	533	479	0	0	0	0	
3	0	0	0	0	532	478	0	0	0	0	
4	0	0	0	0	531	477	0	0	0	0	
5	0	0	0	0	530	476	0	0	0	0	
6	0	0	0	0	528	473	0	0	0	0	
7	0	0	0	0	527	471	0	0	0	0	
8	0	0	0	0	525	469	0	0	0	0	
9	0	0	0	0	524	467	0	0	0	0	
10	0	0	0	0	522	465	0	0	0	0	
11	0	0	0	0	520	463	0	0	0	0	
12	0	0	0	0	519	461	0	0	0	0	
13	0	0	0	0	518	460	0	0	0	0	
14	0	0	0	0	517	460	0	0	0	0	
15	0	0	0	0	518	460	0	0	0	0	
0	0	0	0	0	519	461	0	0	0	0	
1	0	0	0	0	520	463	0	0	0	0	
2	0	0	0	0	524	467	0	0	0	0	
3	0	0	0	0	528	471	0	0	0	0	
4	0	0	0	0	534	477	0	0	0	0	
5	0	0	0	0	541	483	0	0	0	0	
6	0	0	0	0	548	489	0	0	0	0	
7	0	0	0	0	556	497	0	0	0	0	
8	0	0	0	0	562	503	0	0	0	0	
9	0	0	0	0	568	509	0	0	0	0	
10	0	0	0	0	573	514	0	0	0	0	
11	0	0	0	0	577	518	0	0	0	0	
12	0	0	0	0	579	520	0	0	0	0	
13	0	0	0	0	579	522	0	0	0	0	
14	0	0	0	0	578	521	0	0	0	0	
15	0	0	0	0	575	519	0	0	0	0	
0	0	0	0	0	571	516	0	0	0	0	
1	0	0	0	0	565	512	0	0	0	0	
2	0	0	0	0	558	507	0	0	0	0	
3	0	0	0	0	551	501	0	0	0	0	
4	0	0	0	0	543	495	0	0	0	0	
5	0	0	0	0	535	488	0	0	0	0	
6	0	0	0	0	527	481	0	0	0	0	
7	0	0	0	0	520	475	0	0	0	0	
8	0	0	0	0	513	468	0	0	0	0	
9	0	0	0	0	508	463	0	0	0	0	
10	0	0	0	0	504	458	0	0	0	0	
11	0	0	0	0	502	453	0	0	0	0	
12	0	0	0	0	501	451	0	0	0	0	
13	0	0	0	0	502	450	0	0	0	0	
14	0	0	0	0	505	451	0	0	0	0	
15	0	0	0	0	510	453	0	0	0	0	
0	0	0	0	0	517	457	0	0	0	0	
1	0	0	0	0	524	462	0	0	0	0	
2	0	0	0	0	532	468	0	0	0	0	
3	0	0	0	0	541	475	0	0	0	0	
4	0	0	0	0	550	482	0	0	0	0	
5	0	0	0	0	558	489	0	0	0	0	
6	0	0	0	0	565	496	0	0	0	0	
7	0	0	0	0	569	502	0	0	0	0	
8	0	0	0	0	570	504	0	0	0	0	
9	0	0	0	0	567	503	0	0	0	0	
10	0	0	0	0	560	500	0	0	0	0	
11	0	0	0	0	550	495	0	0	0	0	
12	0	0	0	0	538	487	0	0	0	0	
13	0	0	0	0	525	478	0	0	0	0	
14	0	0	0	0	512	469	0	0	0	0	
15	0	0	0	0	502	461	0	0	0	0	
0	0	0	0	0	493	455	0	0	0	0	
1	0	0	0	0	488	450	0	0	0	0	
2	0	0	0	0	487	448	0	0	0	0	
3	0	0	0	0	488	448	0	0	0	0	
4	0	0	0	0	494	450	0	0	0	0	
5	0	0	0	0	502	455	0	0	0	0	
6	0	0	0	0	512	460	0	0	0	0	
7	0	0	0	0	524	467	0	0	0	0	
8	0	0	0	0	536	475	0	0	0	0	
9	0	0	0	0	549	483	0	0	0	0	
10	0	0	0	0	560	491	0	0	0	0	
11	0	0	0	0	569	497	0	0	0	0	
12	0	0	0	0	575	502	0	0	0	0	
13	0	0	0	0	578	505	0	0	0	0	
14	0	0	0	0	579	508	0	0	0	0	
15	0	0	0	0	578	509	0	0	0	0	
0	0	0	0	0	575	510	0	0	0	0	
1	0	0	0	0	571	510	0	0	0	0	
2	0	0	0	0	566	510	0	0	0	0	
3	0	0	0	0	562	510	0	0	0	0	
4	0	0	0	0	558	509	0	0	0	0	
5	0	0	0	0	553	508	0	0	0	0	
6	0	0	0	0	550	506	0	0	0	0	
7	0	0	0	0	547	504	0	0	0	0	
8	0	0	0	0	545	500	0	0	0	0	
9	0	0	0	0	543	496	0	0	0	0	
10	0	0	0	0	541	492	0	0	0	0	
11	0	0	0	0	540	489	0	0	0	0	
12	0	0	0	0	540	487	0	0	0	0	
13	0	0	0	0	541	485	0	0	0	0	
14	0	0	0	0	543	485	0	0	0	0	
15	0	0	0	0	545	486	0	0	0	0	
0	0	0	0	0	548	488	0	0	0	0	
1	0	0	0	0	551	489	0	0	0	0	
2	0	0	0	0	552	492	0	0	0	0	
3	0	0	0	0	554	494	0	0	0	0	
4	0	0	0	0	555	496	0	0	0	0	
5	0	0	0	0	554	496	0	0	0	0	
6	0	0	0	0	553	497	0	0	0	0	
7	0	0	0	0	551	495	0	0	0	0	
8	0	0	0	0	548	493	0	0	0	0	
9	0	0	0	0	544	489	0	0	0	0	
10	0	0	0	0	540	485	0	0	0	0	
11	0	0	0	0	534	480	0	0	0	0	
12	0	0	0	0	528	473	0	0	0	0	
13	0	0	0	0	521	466	0	0	0	0	
14	0	0	0	0	514	460	0	0	0	0	
15	0	0	0	0	508	453	0	0	0	0	
0	0	0	0	0	502	448	0	0	0	0	
1	0	0	0	0	498	444	0	0	0	0	
2	0	0	0	0	496	441	0	0	0	0	
3	0	0	0	0	496	441	0	0	0	0	
4	0	0	0	0	497	443	0	0	0	0	
5	0	0	0	0	503	448	0	0	0	0	
6	0	0	0	0	510	453	0	0	0	0	
7	0	0	0	0	519	461	0	0	0	0	
8	0	0	0	0	529	470	0	0	0	0	
9	0	0	0	0	540	479	0	0	0	0	
10	0	0	0	0	552	489	0	0	0	0	
11	0	0	0	0	563	498	0	0	0	0	
12	0	0	0	0	572	505	0	0	0	0	
13	0	0	0	0	579	510	0	0	0	0	
14	0	0	0	0	581	512	0	0	0	0	
15	0	0	0	0	581	511	0	0	0	0	
0	0	0	0	0	578	508	0	0	0	0	
1	0	0	0	0	572	503	0	0	0	0	
2	0	0	0	0	562	496	0	0	0	0	
3	0	0	0	0	551	488	0	0	0	0	
4	0	0	0	0	539	478	0	0	0	0	
5	0	0	0	0	526	468	0	0	0	0	
6	0	0	0	0	513	459	0	0	0	0	
7	0	0	0	0	503	451	0	0	0	0	
8	0	0	0	0	495	445	0	0	0	0	
9	0	0	0	0	490	441	0	0	0	0	
10	0	0	0	0	488	440	0	0	0	0	
11	0	0	0	0	490	442	0	0	0	0	
12	0	0	0	0	495	446	0	0	0	0	
13	0	0	0	0	503	451	0	0	0	0	
14	0	0	0	0	511	456	0	0	0	0	
15	0	0	0	0	520	462	0	0	0	0	
0	0	0	0	0	529	467	0	0	0	0	
1	0	0	0	0	537	472	0	0	0	0	
2	0	0	0	0	543	476	0	0	0	0	
3	0	0	0	0	548	479	0	0	0	0	
4	0	0	0	0	551	480	0	0	0	0	
5	0	0	0	0	553	482	0	0	0	0	
6	0	0	0	0	553	483	0	0	0	0	
7	0	0	0	0	553	483	0	0	0	0	
8	0	0	0	0	552	484	0	0	0	0	
9	0	0	0	0	551	485	0	0	0	0	
10	0	0	0	0	550	486	0	0	0	0	
11	0	0	0	0	548	487	0	0	0	0	
12	0	0	0	0	549	490	0	0	0	0	
13	0	0	0	0	550	493	0	0	0	0	
14	0	0	0	0	552	496	0	0	0	0	
15	0	0	0	0	554	499	0	0	0	0	
0	0	0	0	0	556	501	0	0	0	0	
1	0	0	0	0	559	502	0	0	0	0	
2	0	0	0	0	560	504	0	0	0	0	
3	0	0	0	0	561	504	0	0	0	0	
4	0	0	0	0	563	504	0	0	0	0	
5	0	0	0	0	563	503	0	0	0	0	
6	0	0	0	0	564	502	0	0	0	0	
7	0	0	0	0	564	500	0	0	0	0	
8	0	0	0	0	564	499	0	0	0	0	
9	0	0	0	0	564	497	0	0	0	0	
10	0	0	0	0	563	496	0	0	0	0	
11	0	0	0	0	561	494	0	0	0	0	
12	0	0	0	0	558	492	0	0	0	0	
13	0	0	0	0	555	489	0	0	0	0	
14	0	0	0	0	551	488	0	0	0	0	
15	0	0	0	0	548	487	0	0	0	0	
0	0	0	0	0	545	486	0	0	0	0	
1	0	0	0	0	543	486	0	0	0	0	
2	0	0	0	0	543	487	0	0	0	0	
3	0	0	0	0	544	490	0	0	0	0	
4	0	0	0	0	546	493	0	0	0	0	
5	0	0	0	0	549	497	0	0	0	0	
6	0	0	0	0	552	500	0	0	0	0	
7	0	0	0	0	556	503	0	0	0	0	
8	0	0	0	0	558	504	0	0	0	0	
9	0	0	0	0	558	504	0	0	0	0	
10	0	0	0	0	555	500	0	0	0	0	
11	0	0	0	0	550	495	0	0	0	0	
12	0	0	0	0	543	487	0	0	0	0	
13	0	0	0	0	536	480	0	0	0	0	
14	0	0	0	0	528	472	0	0	0	0	
15	0	0	0	0	521	466	0	0	0	0	
0	0	0	0	0	516	462	0	0	0	0	
1	0	0	0	0	514	459	0	0	0	0	
2	0	0	0	0	514	460	0	0	0	0	
3	0	0	0	0	517	462	0	0	0	0	
4	0	0	0	0	521	467	0	0	0	0	
5	0	0	0	0	529	473	0	0	0	0	
6	0	0	0	0	536	480	0	0	0	0	
7	0	0	0	0	544	487	0	0	0	0	
8	0	0	0	0	551	494	0	0	0	0	
9	0	0	0	0	559	500	0	0	0	0	
10	0	0	0	0	564	504	0	0	0	0	
11	0	0	0	0	568	508	0	0	0	0	
12	0	0	0	0	571	509	0	0	0	0	
13	0	0	0	0	571	508	0	0	0	0	
14	0	0	0	0	569	506	0	0	0	0	
15	0	0	0	0	564	502	0	0	0	0	
0	0	0	0	0	559	496	0	0	0	0	
1	0	0	0	0	553	491	0	0	0	0	
2	0	0	0	0	547	486	0	0	0	0	
3	0	0	0	0	541	480	0	0	0	0	
4	0	0	0	0	536	477	0	0	0	0	
5	0	0	0	0	532	474	0	0	0	0	
6	0	0	0	0	529	473	0	0	0	0	
7	0	0	0	0	528	472	0	0	0	0	
8	0	0	0	0	528	474	0	0	0	0	
9	0	0	0	0	529	475	0	0	0	0	
10	0	0	0	0	530	477	0	0	0	0	
11	0	0	0	0	531	478	0	0	0	0	
12	0	0	0	0	531	479	0	0	0	0	
13	0	0	0	0	531	479	0	0	0	0	
14	0	0	0	0	531	478	0	0	0	0	
15	0	0	0	0	529	476	0	0	0	0	
0	0	0	0	0	527	475	0	0	0	0	
1	0	0	0	0	525	472	0	0	0	0	
2	0	0	0	0	523	470	0	0	0	0	
3	0	0	0	0	521	470	0	0	0	0	
4	0	0	0	0	520	468	0	0	0	0	
5	0	0	0	0	520	468	0	0	0	0	
6	0	0	0	0	520	468	0	0	0	0	
7	0	0	0	0	521	470	0	0	0	0	
8	0	0	0	0	524	472	0	0	0	0	
9	0	0	0	0	527	475	0	0	0	0	
10	0	0	0	0	532	479	0	0	0	0	
11	0	0	0	0	537	484	0	0	0	0	
12	0	0	0	0	543	489	0	0	0	0	
13	0	0	0	0	548	493	0	0	0	0	
14	0	0	0	0	553	497	0	0	0	0	
15	0	0	0	0	557	500	0	0	0	0	
0	0	0	0	0	558	501	0	0	0	0	
1	0	0	0	0	558	500	0	0	0	0	
2	0	0	0	0	556	499	0	0	0	0	
3	0	0	0	0	551	496	0	0	0	0	
4	0	0	0	0	546	492	0	0	0	0	
5	0	0	0	0	539	486	0	0	0	0	
6	0	0	0	0	531	479	0	0	0	0	
7	0	0	0	0	523	472	0	0	0	0	
8	0	0	0	0	515	464	0	0	0	0	
9	0	0	0	0	507	457	0	0	0	0	
10	0	0	0	0	499	450	0	0	0	0	
11	0	0	0	0	491	443	0	0	0	0	
12	0	0	0	0	484	435	0	0	0	0	
13	0	0	0	0	477	428	0	0	0	0	
14	0	0	0	0	470	421	0	0	0	0	
15	0	0	0	0	463	413	0	0	0	0	
0	0	0	0	0	456	406	0	0	0	0	
1	0	0	0	0	449	399	0	0	0	0	
2	0	0	0	0	441	390	0	0	0	0	
3	0	0	0	0	433	382	0	0	0	0	
4	0	0	0	0	424	373	0	0	0	0	
5	0	0	0	0	415	364	0	0	0	0	
6	0	0	0	0	403	353	0	0	0	0	
7	0	0	0	0	391	341	0	0	0	0	
8	0	0	0	0	378	327	0	0	0	0	
9	0	0	0	0	364	313	0	0	0	0	
10	0	0	0	0	347	298	0	0	0	0	
11	0	0	0	0	331	282	0	0	0	0	
12	0	0	0	0	315	265	0	0	0	0	
13	0	0	0	0	300	251	0	0	0	0	
14	0	0	0	0	287	238	0	0	0	0	
15	0	0	0	0	278	227	0	0	0	0	
0	0	0	0	0	272	221	0	0	0	0	
1	0	0	0	0	271	218	0	0	0	0	
2	0	0	0	0	275	221	0	0	0	0	
3	0	0	0	0	284	228	0	0	0	0	
4	0	0	0	0	298	240	0	0	0	0	
5	0	0	0	0	318	256	0	0	0	0	
6	0	0	0	0	341	277	0	0	0	0	
7	0	0	0	0	368	300	0	0	0	0	
8	0	0	0	0	397	326	0	0	0	0	
9	0	0	0	0	428	354	0	0	0	0	
10	0	0	0	0	458	382	0	0	0	0	
11	0	0	0	0	488	409	0	0	0	0	
12	0	0	0	0	515	435	0	0	0	0	
13	0	0	0	0	539	457	0	0	0	0	
14	0	0	0	0	558	476	0	0	0	0	
15	0	0	0	0	572	489	0	0	0	0	
0	0	0	0	0	579	499	0	0	0	0	
1	0	0	0	0	582	504	0	0	0	0	
2	0	0	0	0	581	506	0	0	0	0	
3	0	0	0	0	576	505	0	0	0	0	
4	0	0	0	0	570	503	0	0	0	0	
5	0	0	0	0	563	500	0	0	0	0	
6	0	0	0	0	556	497	0	0	0	0	
7	0	0	0	0	551	496	0	0	0	0	
8	0	0	0	0	549	496	0	0	0	0	
9	0	0	0	0	549	498	0	0	0	0	
10	0	0	0	0	551	501	0	0	0	0	
11	0	0	0	0	556	505	0	0	0	0	
12	0	0	0	0	561	510	0	0	0	0	
13	0	0	0	0	568	517	0	0	0	0	
14	0	0	0	0	575	524	0	0	0	0	
15	0	0	0	0	583	529	0	0	0	0	
0	0	0	0	0	590	535	0	0	0	0	
1	0	0	0	0	594	537	0	0	0	0	
2	0	0	0	0	595	538	0	0	0	0	
3	0	0	0	0	593	536	0	0	0	0	
4	0	0	0	0	587	529	0	0	0	0	
5	0	0	0	0	576	521	0	0	0	0	
6	0	0	0	0	563	510	0	0	0	0	
7	0	0	0	0	548	497	0	0	0	0	
8	0	0	0	0	532	484	0	0	0	0	
9	0	0	0	0	518	473	0	0	0	0	
10	0	0	0	0	506	463	0	0	0	0	
11	0	0	0	0	497	456	0	0	0	0	
12	0	0	0	0	492	452	0	0	0	0	
13	0	0	0	0	492	452	0	0	0	0	
14	0	0	0	0	495	453	0	0	0	0	
15	0	0	0	0	500	457	0	0	0	0	
0	0	0	0	0	509	463	0	0	0	0	
1	0	0	0	0	519	470	0	0	0	0	
2	0	0	0	0	529	477	0	0	0	0	
3	0	0	0	0	540	484	0	0	0	0	
4	0	0	0	0	550	491	0	0	0	0	
5	0	0	0	0	559	497	0	0	0	0	
6	0	0	0	0	566	502	0	0	0	0	
7	0	0	0	0	570	505	0	0	0	0	
8	0	0	0	0	574	508	0	0	0	0	
9	0	0	0	0	575	509	0	0	0	0	
10	0	0	0	0	575	509	0	0	0	0	
11	0	0	0	0	575	510	0	0	0	0	
12	0	0	0	0	573	509	0	0	0	0	
13	0	0	0	0	571	508	0	0	0	0	
14	0	0	0	0	568	506	0	0	0	0	
15	0	0	0	0	564	504	0	0	0	0	
0	0	0	0	0	559	502	0	0	0	0	
1	0	0	0	0	554	498	0	0	0	0	
2	0	0	0	0	549	495	0	0	0	0	
3	0	0	0	0	544	492	0	0	0	0	
4	0	0	0	0	540	489	0	0	0	0	
5	0	0	0	0	536	487	0	0	0	0	
6	0	0	0	0	536	486	0	0	0	0	
7	0	0	0	0	536	487	0	0	0	0	
8	0	0	0	0	537	488	0	0	0	0	
9	0	0	0	0	541	490	0	0	0	0	
10	0	0	0	0	544	493	0	0	0	0	
11	0	0	0	0	549	496	0	0	0	0	
12	0	0	0	0	553	499	0	0	0	0	
13	0	0	0	0	558	501	0	0	0	0	
14	0	0	0	0	561	503	0	0	0	0	
15	0	0	0	0	564	505	0	0	0	0	
0	0	0	0	0	566	505	0	0	0	0	
1	0	0	0	0	567	506	0	0	0	0	
2	0	0	0	0	568	506	0	0	0	0	
3	0	0	0	0	568	507	0	0	0	0	
4	0	0	0	0	569	508	0	0	0	0	
5	0	0	0	0	571	510	0	0	0	0	
6	0	0	0	0	572	512	0	0	0	0	
7	0	0	0	0	574	514	0	0	0	0	
8	0	0	0	0	575	515	0	0	0	0	
9	0	0	0	0	574	516	0	0	0	0	
10	0	0	0	0	572	514	0	0	0	0	
11	0	0	0	0	568	512	0	0	0	0	
12	0	0	0	0	561	507	0	0	0	0	
13	0	0	0	0	553	501	0	0	0	0	
14	0	0	0	0	546	495	0	0	0	0	
15	0	0	0	0	539	488	0	0	0	0	
0	0	0	0	0	532	483	0	0	0	0	
1	0	0	0	0	526	478	0	0	0	0	
2	0	0	0	0	522	473	0	0	0	0	
3	0	0	0	0	519	470	0	0	0	0	
4	0	0	0	0	519	468	0	0	0	0	
5	0	0	0	0	520	469	0	0	0	0	
6	0	0	0	0	524	471	0	0	0	0	
7	0	0	0	0	529	474	0	0	0	0	
8	0	0	0	0	536	478	0	0	0	0	
9	0	0	0	0	543	483	0	0	0	0	
10	0	0	0	0	551	489	0	0	0	0	
11	0	0	0	0	558	495	0	0	0	0	
12	0	0	0	0	565	500	0	0	0	0	
13	0	0	0	0	570	505	0	0	0	0	
14	0	0	0	0	575	509	0	0	0	0	
15	0	0	0	0	577	512	0	0	0	0	
0	0	0	0	0	579	514	0	0	0	0	
1	0	0	0	0	579	515	0	0	0	0	
2	0	0	0	0	578	516	0	0	0	0	
3	0	0	0	0	575	515	0	0	0	0	
4	0	0	0	0	572	513	0	0	0	0	
5	0	0	0	0	568	511	0	0	0	0	
6	0	0	0	0	564	509	0	0	0	0	
7	0	0	0	0	560	506	0	0	0	0	
8	0	0	0	0	556	505	0	0	0	0	
9	0	0	0	0	553	503	0	0	0	0	
10	0	0	0	0	551	500	0	0	0	0	
11	0	0	0	0	547	497	0	0	0	0	
12	0	0	0	0	544	495	0	0	0	0	
13	0	0	0	0	541	491	0	0	0	0	
14	0	0	0	0	539	488	0	0	0	0	
15	0	0	0	0	537	486	0	0	0	0	
0	0	0	0	0	536	485	0	0	0	0	
1	0	0	0	0	537	486	0	0	0	0	
2	0	0	0	0	540	489	0	0	0	0	
3	0	0	0	0	546	493	0	0	0	0	
4	0	0	0	0	553	499	0	0	0	0	
5	0	0	0	0	562	506	0	0	0	0	
6	0	0	0	0	571	513	0	0	0	0	
7	0	0	0	0	579	520	0	0	0	0	
8	0	0	0	0	585	524	0	0	0	0	
9	0	0	0	0	588	527	0	0	0	0	
10	0	0	0	0	589	527	0	0	0	0	
11	0	0	0	0	587	523	0	0	0	0	
12	0	0	0	0	580	518	0	0	0	0	
13	0	0	0	0	573	510	0	0	0	0	
14	0	0	0	0	563	503	0	0	0	0	
15	0	0	0	0	553	495	0	0	0	0	
0	0	0	0	0	544	488	0	0	0	0	
1	0	0	0	0	537	483	0	0	0	0	
2	0	0	0	0	533	480	0	0	0	0	
3	0	0	0	0	532	480	0	0	0	0	
4	0	0	0	0	534	483	0	0	0	0	
5	0	0	0	0	537	486	0	0	0	0	
6	0	0	0	0	542	489	0	0	0	0	
7	0	0	0	0	546	493	0	0	0	0	
8	0	0	0	0	550	496	0	0	0	0	
9	0	0	0	0	552	496	0	0	0	0	
10	0	0	0	0	552	496	0	0	0	0	
11	0	0	0	0	551	493	0	0	0	0	
12	0	0	0	0	548	490	0	0	0	0	
13	0	0	0	0	543	485	0	0	0	0	
14	0	0	0	0	539	480	0	0	0	0	
15	0	0	0	0	533	475	0	0	0	0	
0	0	0	0	0	528	471	0	0	0	0	
1	0	0	0	0	525	467	0	0	0	0	
2	0	0	0	0	522	465	0	0	0	0	
3	0	0	0	0	520	464	0	0	0	0	
4	0	0	0	0	519	464	0	0	0	0	
5	0	0	0	0	519	465	0	0	0	0	
6	0	0	0	0	519	466	0	0	0	0	
7	0	0	0	0	520	468	0	0	0	0	
8	0	0	0	0	522	470	0	0	0	0	
9	0	0	0	0	524	472	0	0	0	0	
10	0	0	0	0	526	475	0	0	0	0	
11	0	0	0	0	529	476	0	0	0	0	
12	0	0	0	0	531	479	0	0	0	0	
13	0	0	0	0	533	480	0	0	0	0	
14	0	0	0	0	535	481	0	0	0	0	
15	0	0	0	0	536	483	0	0	0	0	
0	0	0	0	0	537	483	0	0	0	0	
1	0	0	0	0	537	484	0	0	0	0	
2	0	0	0	0	539	486	0	0	0	0	
3	0	0	0	0	540	487	0	0	0	0	
4	0	0	0	0	540	488	0	0	0	0	
5	0	0	0	0	542	489	0	0	0	0	
6	0	0	0	0	543	491	0	0	0	0	
7	0	0	0	0	543	492	0	0	0	0	
8	0	0	0	0	545	494	0	0	0	0	
9	0	0	0	0	547	496	0	0	0	0	
10	0	0	0	0	550	498	0	0	0	0	
11	0	0	0	0	552	500	0	0	0	0	
12	0	0	0	0	554	502	0	0	0	0	
13	0	0	0	0	556	503	0	0	0	0	
14	0	0	0	0	556	503	0	0	0	0	
15	0	0	0	0	556	503	0	0	0	0	
0	0	0	0	0	555	501	0	0	0	0	
1	0	0	0	0	551	498	0	0	0	0	
2	0	0	0	0	547	493	0	0	0	0	
3	0	0	0	0	540	488	0	0	0	0	
4	0	0	0	0	533	481	0	0	0	0	
5	0	0	0	0	526	475	0	0	0	0	
6	0	0	0	0	519	468	0	0	0	0	
7	0	0	0	0	513	463	0	0	0	0	
8	0	0	0	0	510	460	0	0	0	0	
9	0	0	0	0	508	458	0	0	0	0	
10	0	0	0	0	510	459	0	0	0	0	
11	0	0	0	0	513	462	0	0	0	0	
12	0	0	0	0	519	467	0	0	0	0	
13	0	0	0	0	526	472	0	0	0	0	
14	0	0	0	0	533	478	0	0	0	0	
15	0	0	0	0	540	483	0	0	0	0	
0	0	0	0	0	544	487	0	0	0	0	
1	0	0	0	0	547	488	0	0	0	0	
2	0	0	0	0	547	489	0	0	0	0	
3	0	0	0	0	547	488	0	0	0	0	
4	0	0	0	0	544	486	0	0	0	0	
5	0	0	0	0	540	483	0	0	0	0	
6	0	0	0	0	536	480	0	0	0	0	
7	0	0	0	0	531	476	0	0	0	0	
8	0	0	0	0	527	473	0	0	0	0	
9	0	0	0	0	524	471	0	0	0	0	
10	0	0	0	0	523	470	0	0	0	0	
11	0	0	0	0	522	471	0	0	0	0	
12	0	0	0	0	524	473	0	0	0	0	
13	0	0	0	0	528	476	0	0	0	0	
14	0	0	0	0	534	481	0	0	0	0	
15	0	0	0	0	540	486	0	0	0	0	
0	0	0	0	0	547	492	0	0	0	0	
1	0	0	0	0	555	498	0	0	0	0	
2	0	0	0	0	560	502	0	0	0	0	
3	0	0	0	0	564	505	0	0	0	0	
4	0	0	0	0	566	506	0	0	0	0	
5	0	0	0	0	565	506	0	0	0	0	
6	0	0	0	0	561	503	0	0	0	0	
7	0	0	0	0	555	498	0	0	0	0	
8	0	0	0	0	547	492	0	0	0	0	
9	0	0	0	0	537	484	0	0	0	0	
10	0	0	0	0	527	477	0	0	0	0	
11	0	0	0	0	517	469	0	0	0	0	
12	0	0	0	0	508	461	0	0	0	0	
13	0	0	0	0	499	454	0	0	0	0	
14	0	0	0	0	494	450	0	0	0	0	
15	0	0	0	0	492	448	0	0	0	0	
0	0	0	0	0	494	449	0	0	0	0	
1	0	0	0	0	501	454	0	0	0	0	
2	0	0	0	0	512	463	0	0	0	0	
3	0	0	0	0	527	475	0	0	0	0	
4	0	0	0	0	545	488	0	0	0	0	
5	0	0	0	0	564	503	0	0	0	0	
6	0	0	0	0	583	518	0	0	0	0	
7	0	0	0	0	599	530	0	0	0	0	
8	0	0	0	0	611	539	0	0	0	0	
9	0	0	0	0	617	545	0	0	0	0	
10	0	0	0	0	617	545	0	0	0	0	
11	0	0	0	0	611	541	0	0	0	0	
12	0	0	0	0	600	532	0	0	0	0	
13	0	0	0	0	583	519	0	0	0	0	
14	0	0	0	0	563	504	0	0	0	0	
15	0	0	0	0	542	489	0	0	0	0	
0	0	0	0	0	521	473	0	0	0	0	
1	0	0	0	0	503	459	0	0	0	0	
2	0	0	0	0	487	447	0	0	0	0	
3	0	0	0	0	476	439	0	0	0	0	
4	0	0	0	0	468	432	0	0	0	0	
5	0	0	0	0	466	430	0	0	0	0	
6	0	0	0	0	467	429	0	0	0	0	
7	0	0	0	0	472	432	0	0	0	0	
8	0	0	0	0	479	435	0	0	0	0	
9	0	0	0	0	487	440	0	0	0	0	
10	0	0	0	0	497	446	0	0	0	0	
11	0	0	0	0	508	451	0	0	0	0	
12	0	0	0	0	518	458	0	0	0	0	
13	0	0	0	0	526	463	0	0	0	0	
14	0	0	0	0	533	467	0	0	0	0	
15	0	0	0	0	538	471	0	0	0	0	
0	0	0	0	0	540	472	0	0	0	0	
1	0	0	0	0	541	472	0	0	0	0	
2	0	0	0	0	539	472	0	0	0	0	
3	0	0	0	0	536	470	0	0	0	0	
4	0	0	0	0	531	468	0	0	0	0	
5	0	0	0	0	526	465	0	0	0	0	
6	0	0	0	0	522	463	0	0	0	0	
7	0	0	0	0	518	461	0	0	0	0	
8	0	0	0	0	515	460	0	0	0	0	
9	0	0	0	0	515	462	0	0	0	0	
10	0	0	0	0	517	465	0	0	0	0	
11	0	0	0	0	522	470	0	0	0	0	
12	0	0	0	0	529	477	0	0	0	0	
13	0	0	0	0	538	486	0	0	0	0	
14	0	0	0	0	549	495	0	0	0	0	
15	0	0	0	0	560	505	0	0	0	0	
0	0	0	0	0	571	514	0	0	0	0	
1	0	0	0	0	580	521	0	0	0	0	
2	0	0	0	0	586	525	0	0	0	0	
3	0	0	0	0	590	527	0	0	0	0	
4	0	0	0	0	589	527	0	0	0	0	
5	0	0	0	0	586	524	0	0	0	0	
6	0	0	0	0	580	519	0	0	0	0	
7	0	0	0	0	573	514	0	0	0	0	
8	0	0	0	0	565	508	0	0	0	0	
9	0	0	0	0	558	503	0	0	0	0	
10	0	0	0	0	551	498	0	0	0	0	
11	0	0	0	0	544	494	0	0	0	0	
12	0	0	0	0	540	492	0	0	0	0	
13	0	0	0	0	537	490	0	0	0	0	
14	0	0	0	0	536	490	0	0	0	0	
15	0	0	0	0	538	492	0	0	0	0	
0	0	0	0	0	541	495	0	0	0	0	
1	0	0	0	0	546	498	0	0	0	0	
2	0	0	0	0	552	502	0	0	0	0	
3	0	0	0	0	558	506	0	0	0	0	
4	0	0	0	0	563	510	0	0	0	0	
5	0	0	0	0	566	511	0	0	0	0	
6	0	0	0	0	568	512	0	0	0	0	
7	0	0	0	0	567	510	0	0	0	0	
8	0	0	0	0	563	508	0	0	0	0	
9	0	0	0	0	558	503	0	0	0	0	
10	0	0	0	0	551	497	0	0	0	0	
11	0	0	0	0	543	491	0	0	0	0	
12	0	0	0	0	535	483	0	0	0	0	
13	0	0	0	0	528	478	0	0	0	0	
14	0	0	0	0	522	473	0	0	0	0	
15	0	0	0	0	518	471	0	0	0	0	
0	0	0	0	0	518	471	0	0	0	0	
1	0	0	0	0	520	473	0	0	0	0	
2	0	0	0	0	525	477	0	0	0	0	
3	0	0	0	0	531	482	0	0	0	0	
4	0	0	0	0	538	488	0	0	0	0	
5	0	0	0	0	545	493	0	0	0	0	
6	0	0	0	0	551	497	0	0	0	0	
7	0	0	0	0	555	501	0	0	0	0	
8	0	0	0	0	559	504	0	0	0	0	
9	0	0	0	0	560	505	0	0	0	0	
10	0	0	0	0	560	505	0	0	0	0	
11	0	0	0	0	558	504	0	0	0	0	
12	0	0	0	0	554	502	0	0	0	0	
13	0	0	0	0	549	498	0	0	0	0	
14	0	0	0	0	542	493	0	0	0	0	
15	0	0	0	0	534	487	0	0	0	0	
0	0	0	0	0	526	480	0	0	0	0	
1	0	0	0	0	518	473	0	0	0	0	
2	0	0	0	0	511	467	0	0	0	0	
3	0	0	0	0	505	461	0	0	0	0	
4	0	0	0	0	500	456	0	0	0	0	
5	0	0	0	0	499	453	0	0	0	0	
6	0	0	0	0	498	452	0	0	0	0	
7	0	0	0	0	499	452	0	0	0	0	
8	0	0	0	0	502	453	0	0	0	0	
9	0	0	0	0	505	455	0	0	0	0	
10	0	0	0	0	510	459	0	0	0	0	
11	0	0	0	0	515	463	0	0	0	0	
12	0	0	0	0	519	467	0	0	0	0	
13	0	0	0	0	524	471	0	0	0	0	
14	0	0	0	0	527	473	0	0	0	0	
15	0	0	0	0	529	475	0	0	0	0	
0	0	0	0	0	529	475	0	0	0	0	
1	0	0	0	0	528	474	0	0	0	0	
2	0	0	0	0	526	473	0	0	0	0	
3	0	0	0	0	525	472	0	0	0	0	
4	0	0	0	0	523	471	0	0	0	0	
5	0	0	0	0	522	470	0	0	0	0	
6	0	0	0	0	521	470	0	0	0	0	
7	0	0	0	0	522	472	0	0	0	0	
8	0	0	0	0	525	475	0	0	0	0	
9	0	0	0	0	529	480	0	0	0	0	
10	0	0	0	0	536	486	0	0	0	0	
11	0	0	0	0	544	493	0	0	0	0	
12	0	0	0	0	551	500	0	0	0	0	
13	0	0	0	0	559	507	0	0	0	0	
14	0	0	0	0	564	511	0	0	0	0	
15	0	0	0	0	567	513	0	0	0	0	
0	0	0	0	0	568	513	0	0	0	0	
1	0	0	0	0	564	511	0	0	0	0	
2	0	0	0	0	559	506	0	0	0	0	
3	0	0	0	0	552	500	0	0	0	0	
4	0	0	0	0	544	494	0	0	0	0	
5	0	0	0	0	536	487	0	0	0	0	
6	0	0	0	0	528	480	0	0	0	0	
7	0	0	0	0	522	476	0	0	0	0	
8	0	0	0	0	519	472	0	0	0	0	
9	0	0	0	0	518	472	0	0	0	0	
10	0	0	0	0	519	473	0	0	0	0	
11	0	0	0	0	523	476	0	0	0	0	
12	0	0	0	0	531	482	0	0	0	0	
13	0	0	0	0	540	488	0	0	0	0	
14	0	0	0	0	551	497	0	0	0	0	
15	0	0	0	0	562	506	0	0	0	0	
0	0	0	0	0	574	515	0	0	0	0	
1	0	0	0	0	583	524	0	0	0	0	
2	0	0	0	0	591	530	0	0	0	0	
3	0	0	0	0	596	535	0	0	0	0	
4	0	0	0	0	597	536	0	0	0	0	
5	0	0	0	0	595	536	0	0	0	0	
6	0	0	0	0	590	531	0	0	0	0	
7	0	0	0	0	582	526	0	0	0	0	
8	0	0	0	0	573	519	0	0	0	0	
9	0	0	0	0	563	512	0	0	0	0	
10	0	0	0	0	555	505	0	0	0	0	
11	0	0	0	0	548	500	0	0	0	0	
12	0	0	0	0	543	496	0	0	0	0	
13	0	0	0	0	542	493	0	0	0	0	
14	0	0	0	0	542	493	0	0	0	0	
15	0	0	0	0	545	494	0	0	0	0	
0	0	0	0	0	548	496	0	0	0	0	
1	0	0	0	0	551	499	0	0	0	0	
2	0	0	0	0	555	502	0	0	0	0	
3	0	0	0	0	558	504	0	0	0	0	
4	0	0	0	0	560	506	0	0	0	0	
5	0	0	0	0	560	507	0	0	0	0	
6	0	0	0	0	559	508	0	0	0	0	
7	0	0	0	0	557	507	0	0	0	0	
8	0	0	0	0	553	504	0	0	0	0	
9	0	0	0	0	549	501	0	0	0	0	
10	0	0	0	0	543	496	0	0	0	0	
11	0	0	0	0	536	490	0	0	0	0	
12	0	0	0	0	530	484	0	0	0	0	
13	0	0	0	0	524	479	0	0	0	0	
14	0	0	0	0	519	474	0	0	0	0	
15	0	0	0	0	515	470	0	0	0	0	
0	0	0	0	0	514	467	0	0	0	0	
1	0	0	0	0	514	465	0	0	0	0	
2	0	0	0	0	516	466	0	0	0	0	
3	0	0	0	0	519	467	0	0	0	0	
4	0	0	0	0	524	470	0	0	0	0	
5	0	0	0	0	530	474	0	0	0	0	
6	0	0	0	0	536	479	0	0	0	0	
7	0	0	0	0	544	485	0	0	0	0	
8	0	0	0	0	551	492	0	0	0	0	
9	0	0	0	0	559	499	0	0	0	0	
10	0	0	0	0	566	505	0	0	0	0	
11	0	0	0	0	572	512	0	0	0	0	
12	0	0	0	0	576	517	0	0	0	0	
13	0	0	0	0	579	521	0	0	0	0	
14	0	0	0	0	580	523	0	0	0	0	
15	0	0	0	0	580	525	0	0	0	0	
0	0	0	0	0	580	526	0	0	0	0	
1	0	0	0	0	577	525	0	0	0	0	
2	0	0	0	0	574	524	0	0	0	0	
3	0	0	0	0	569	520	0	0	0	0	
4	0	0	0	0	564	517	0	0	0	0	
5	0	0	0	0	558	512	0	0	0	0	
6	0	0	0	0	551	506	0	0	0	0	
7	0	0	0	0	543	499	0	0	0	0	
8	0	0	0	0	536	493	0	0	0	0	
9	0	0	0	0	530	487	0	0	0	0	
10	0	0	0	0	525	482	0	0	0	0	
11	0	0	0	0	522	479	0	0	0	0	
12	0	0	0	0	520	476	0	0	0	0	
13	0	0	0	0	521	475	0	0	0	0	
14	0	0	0	0	523	476	0	0	0	0	
15	0	0	0	0	526	477	0	0	0	0	
0	0	0	0	0	529	479	0	0	0	0	
1	0	0	0	0	533	483	0	0	0	0	
2	0	0	0	0	538	485	0	0	0	0	
3	0	0	0	0	542	488	0	0	0	0	
4	0	0	0	0	545	491	0	0	0	0	
5	0	0	0	0	548	493	0	0	0	0	
6	0	0	0	0	550	494	0	0	0	0	
7	0	0	0	0	551	496	0	0	0	0	
8	0	0	0	0	553	497	0	0	0	0	
9	0	0	0	0	555	499	0	0	0	0	
10	0	0	0	0	556	501	0	0	0	0	
11	0	0	0	0	558	504	0	0	0	0	
12	0	0	0	0	560	505	0	0	0	0	
13	0	0	0	0	560	507	0	0	0	0	
14	0	0	0	0	560	508	0	0	0	0	
15	0	0	0	0	560	509	0	0	0	0	
0	0	0	0	0	558	508	0	0	0	0	
1	0	0	0	0	555	506	0	0	0	0	
2	0	0	0	0	550	503	0	0	0	0	
3	0	0	0	0	545	500	0	0	0	0	
4	0	0	0	0	540	496	0	0	0	0	
5	0	0	0	0	535	493	0	0	0	0	
6	0	0	0	0	532	490	0	0	0	0	
7	0	0	0	0	530	489	0	0	0	0	
8	0	0	0	0	530	488	0	0	0	0	
9	0	0	0	0	531	488	0	0	0	0	
10	0	0	0	0	533	489	0	0	0	0	
11	0	0	0	0	536	490	0	0	0	0	
12	0	0	0	0	540	492	0	0	0	0	
13	0	0	0	0	543	493	0	0	0	0	
14	0	0	0	0	546	494	0	0	0	0	
15	0	0	0	0	548	496	0	0	0	0	
0	0	0	0	0	551	496	0	0	0	0	
1	0	0	0	0	553	498	0	0	0	0	
2	0	0	0	0	555	501	0	0	0	0	
3	0	0	0	0	557	504	0	0	0	0	
4	0	0	0	0	560	508	0	0	0	0	
5	0	0	0	0	564	514	0	0	0	0	
6	0	0	0	0	569	520	0	0	0	0	
7	0	0	0	0	575	528	0	0	0	0	
8	0	0	0	0	583	536	0	0	0	0	
9	0	0	0	0	590	543	0	0	0	0	
10	0	0	0	0	598	550	0	0	0	0	
11	0	0	0	0	605	557	0	0	0	0	
12	0	0	0	0	610	561	0	0	0	0	
13	0	0	0	0	614	564	0	0	0	0	
14	0	0	0	0	616	565	0	0	0	0	
15	0	0	0	0	616	564	0	0	0	0	
0	0	0	0	0	615	561	0	0	0	0	
1	0	0	0	0	610	557	0	0	0	0	
2	0	0	0	0	604	550	0	0	0	0	
3	0	0	0	0	595	542	0	0	0	0	
4	0	0	0	0	584	532	0	0	0	0	
5	0	0	0	0	572	523	0	0	0	0	
6	0	0	0	0	560	513	0	0	0	0	
7	0	0	0	0	549	504	0	0	0	0	
8	0	0	0	0	539	496	0	0	0	0	
9	0	0	0	0	531	489	0	0	0	0	
10	0	0	0	0	525	486	0	0	0	0	
11	0	0	0	0	522	484	0	0	0	0	
12	0	0	0	0	521	484	0	0	0	0	
13	0	0	0	0	523	486	0	0	0	0	
14	0	0	0	0	527	488	0	0	0	0	
15	0	0	0	0	533	493	0	0	0	0	
0	0	0	0	0	541	498	0	0	0	0	
1	0	0	0	0	549	503	0	0	0	0	
2	0	0	0	0	558	508	0	0	0	0	
3	0	0	0	0	566	512	0	0	0	0	
4	0	0	0	0	572	516	0	0	0	0	
5	0	0	0	0	576	518	0	0	0	0	
6	0	0	0	0	578	519	0	0	0	0	
7	0	0	0	0	577	518	0	0	0	0	
8	0	0	0	0	575	515	0	0	0	0	
9	0	0	0	0	569	512	0	0	0	0	
10	0	0	0	0	562	507	0	0	0	0	
11	0	0	0	0	553	501	0	0	0	0	
12	0	0	0	0	543	495	0	0	0	0	
13	0	0	0	0	534	489	0	0	0	0	
14	0	0	0	0	525	483	0	0	0	0	
15	0	0	0	0	518	478	0	0	0	0	
0	0	0	0	0	511	474	0	0	0	0	
1	0	0	0	0	507	472	0	0	0	0	
2	0	0	0	0	504	468	0	0	0	0	
3	0	0	0	0	502	466	0	0	0	0	
4	0	0	0	0	500	463	0	0	0	0	
5	0	0	0	0	498	460	0	0	0	0	
6	0	0	0	0	495	455	0	0	0	0	
7	0	0	0	0	491	449	0	0	0	0	
8	0	0	0	0	484	441	0	0	0	0	
9	0	0	0	0	477	432	0	0	0	0	
10	0	0	0	0	468	423	0	0	0	0	
11	0	0	0	0	459	413	0	0	0	0	
12	0	0	0	0	449	403	0	0	0	0	
13	0	0	0	0	440	395	0	0	0	0	
14	0	0	0	0	431	386	0	0	0	0	
15	0	0	0	0	422	378	0	0	0	0	
0	0	0	0	0	414	370	0	0	0	0	
1	0	0	0	0	404	361	0	0	0	0	
2	0	0	0	0	395	352	0	0	0	0	
3	0	0	0	0	385	343	0	0	0	0	
4	0	0	0	0	373	332	0	0	0	0	
5	0	0	0	0	360	320	0	0	0	0	
6	0	0	0	0	348	307	0	0	0	0	
7	0	0	0	0	334	294	0	0	0	0	
8	0	0	0	0	321	281	0	0	0	0	
9	0	0	0	0	309	269	0	0	0	0	
10	0	0	0	0	300	260	0	0	0	0	
11	0	0	0	0	295	253	0	0	0	0	
12	0	0	0	0	294	250	0	0	0	0	
13	0	0	0	0	298	252	0	0	0	0	
14	0	0	0	0	308	259	0	0	0	0	
15	0	0	0	0	323	271	0	0	0	0	
0	0	0	0	0	343	288	0	0	0	0	
1	0	0	0	0	367	307	0	0	0	0	
2	0	0	0	0	393	330	0	0	0	0	
3	0	0	0	0	422	355	0	0	0	0	
4	0	0	0	0	450	380	0	0	0	0	
5	0	0	0	0	477	404	0	0	0	0	
6	0	0	0	0	503	428	0	0	0	0	
7	0	0	0	0	525	449	0	0	0	0	
8	0	0	0	0	543	468	0	0	0	0	
9	0	0	0	0	557	483	0	0	0	0	
10	0	0	0	0	568	496	0	0	0	0	
11	0	0	0	0	575	505	0	0	0	0	
12	0	0	0	0	578	512	0	0	0	0	
13	0	0	0	0	579	517	0	0	0	0	
14	0	0	0	0	579	519	0	0	0	0	
15	0	0	0	0	578	521	0	0	0	0	
0	0	0	0	0	577	523	0	0	0	0	
1	0	0	0	0	575	523	0	0	0	0	
2	0	0	0	0	573	523	0	0	0	0	
3	0	0	0	0	572	522	0	0	0	0	
4	0	0	0	0	569	521	0	0	0	0	
5	0	0	0	0	568	519	0	0	0	0	
6	0	0	0	0	564	516	0	0	0	0	
7	0	0	0	0	561	514	0	0	0	0	
8	0	0	0	0	558	511	0	0	0	0	
9	0	0	0	0	555	507	0	0	0	0	
10	0	0	0	0	552	505	0	0	0	0	
11	0	0	0	0	550	503	0	0	0	0	
12	0	0	0	0	548	501	0	0	0	0	
13	0	0	0	0	547	500	0	0	0	0	
14	0	0	0	0	547	500	0	0	0	0	
15	0	0	0	0	548	501	0	0	0	0	
0	0	0	0	0	551	503	0	0	0	0	
1	0	0	0	0	555	505	0	0	0	0	
2	0	0	0	0	560	508	0	0	0	0	
3	0	0	0	0	566	511	0	0	0	0	
4	0	0	0	0	572	517	0	0	0	0	
5	0	0	0	0	579	522	0	0	0	0	
6	0	0	0	0	588	529	0	0	0	0	
7	0	0	0	0	598	537	0	0	0	0	
8	0	0	0	0	608	545	0	0	0	0	
9	0	0	0	0	617	554	0	0	0	0	
10	0	0	0	0	627	563	0	0	0	0	
11	0	0	0	0	635	570	0	0	0	0	
12	0	0	0	0	641	576	0	0	0	0	
13	0	0	0	0	645	581	0	0	0	0	
14	0	0	0	0	646	583	0	0	0	0	
15	0	0	0	0	644	583	0	0	0	0	
0	0	0	0	0	639	581	0	0	0	0	
1	0	0	0	0	633	576	0	0	0	0	
2	0	0	0	0	623	570	0	0	0	0	
3	0	0	0	0	612	561	0	0	0	0	
4	0	0	0	0	599	551	0	0	0	0	
5	0	0	0	0	586	542	0	0	0	0	
6	0	0	0	0	574	532	0	0	0	0	
7	0	0	0	0	563	524	0	0	0	0	
8	0	0	0	0	553	515	0	0	0	0	
9	0	0	0	0	546	509	0	0	0	0	
10	0	0	0	0	541	504	0	0	0	0	
11	0	0	0	0	538	500	0	0	0	0	
12	0	0	0	0	537	498	0	0	0	0	
13	0	0	0	0	540	497	0	0	0	0	
14	0	0	0	0	543	499	0	0	0	0	
15	0	0	0	0	547	500	0	0	0	0	
0	0	0	0	0	551	502	0	0	0	0	
1	0	0	0	0	555	505	0	0	0	0	
2	0	0	0	0	559	507	0	0	0	0	
3	0	0	0	0	561	508	0	0	0	0	
4	0	0	0	0	563	510	0	0	0	0	
5	0	0	0	0	564	512	0	0	0	0	
6	0	0	0	0	563	512	0	0	0	0	
7	0	0	0	0	563	513	0	0	0	0	
8	0	0	0	0	562	513	0	0	0	0	
9	0	0	0	0	561	513	0	0	0	0	
10	0	0	0	0	560	512	0	0	0	0	
11	0	0	0	0	559	511	0	0	0	0	
12	0	0	0	0	558	510	0	0	0	0	
13	0	0	0	0	558	508	0	0	0	0	
14	0	0	0	0	557	506	0	0	0	0	
15	0	0	0	0	556	504	0	0	0	0	
0	0	0	0	0	554	502	0	0	0	0	
1	0	0	0	0	553	500	0	0	0	0	
2	0	0	0	0	553	499	0	0	0	0	
3	0	0	0	0	553	499	0	0	0	0	
4	0	0	0	0	555	500	0	0	0	0	
5	0	0	0	0	559	504	0	0	0	0	
6	0	0	0	0	565	510	0	0	0	0	
7	0	0	0	0	574	518	0	0	0	0	
8	0	0	0	0	583	527	0	0	0	0	
9	0	0	0	0	592	536	0	0	0	0	
10	0	0	0	0	600	543	0	0	0	0	
11	0	0	0	0	606	549	0	0	0	0	
12	0	0	0	0	608	551	0	0	0	0	
13	0	0	0	0	608	551	0	0	0	0	
14	0	0	0	0	603	548	0	0	0	0	
15	0	0	0	0	596	543	0	0	0	0	
0	0	0	0	0	588	536	0	0	0	0	
1	0	0	0	0	579	528	0	0	0	0	
2	0	0	0	0	569	521	0	0	0	0	
3	0	0	0	0	560	513	0	0	0	0	
4	0	0	0	0	553	508	0	0	0	0	
5	0	0	0	0	548	503	0	0	0	0	
6	0	0	0	0	544	501	0	0	0	0	
7	0	0	0	0	543	500	0	0	0	0	
8	0	0	0	0	543	500	0	0	0	0	
9	0	0	0	0	546	502	0	0	0	0	
10	0	0	0	0	549	504	0	0	0	0	
11	0	0	0	0	552	507	0	0	0	0	
12	0	0	0	0	556	511	0	0	0	0	
13	0	0	0	0	561	515	0	0	0	0	
14	0	0	0	0	565	518	0	0	0	0	
15	0	0	0	0	569	521	0	0	0	0	
0	0	0	0	0	572	523	0	0	0	0	
1	0	0	0	0	574	525	0	0	0	0	
2	0	0	0	0	575	526	0	0	0	0	
3	0	0	0	0	575	526	0	0	0	0	
4	0	0	0	0	575	524	0	0	0	0	
5	0	0	0	0	573	522	0	0	0	0	
6	0	0	0	0	571	520	0	0	0	0	
7	0	0	0	0	568	518	0	0	0	0	
8	0	0	0	0	565	514	0	0	0	0	
9	0	0	0	0	562	511	0	0	0	0	
10	0	0	0	0	559	509	0	0	0	0	
11	0	0	0	0	556	507	0	0	0	0	
12	0	0	0	0	554	506	0	0	0	0	
13	0	0	0	0	553	505	0	0	0	0	
14	0	0	0	0	553	505	0	0	0	0	
15	0	0	0	0	553	506	0	0	0	0	
0	0	0	0	0	554	507	0	0	0	0	
1	0	0	0	0	555	508	0	0	0	0	
2	0	0	0	0	556	508	0	0	0	0	
3	0	0	0	0	557	508	0	0	0	0	
4	0	0	0	0	558	508	0	0	0	0	
5	0	0	0	0	558	506	0	0	0	0	
6	0	0	0	0	558	505	0	0	0	0	
7	0	0	0	0	559	505	0	0	0	0	
8	0	0	0	0	561	505	0	0	0	0	
9	0	0	0	0	563	507	0	0	0	0	
10	0	0	0	0	568	510	0	0	0	0	
11	0	0	0	0	573	515	0	0	0	0	
12	0	0	0	0	579	520	0	0	0	0	
13	0	0	0	0	584	525	0	0	0	0	
14	0	0	0	0	589	530	0	0	0	0	
15	0	0	0	0	594	535	0	0	0	0	
0	0	0	0	0	597	539	0	0	0	0	
1	0	0	0	0	600	541	0	0	0	0	
2	0	0	0	0	601	543	0	0	0	0	
3	0	0	0	0	602	545	0	0	0	0	
4	0	0	0	0	601	545	0	0	0	0	
5	0	0	0	0	600	545	0	0	0	0	
6	0	0	0	0	598	544	0	0	0	0	
7	0	0	0	0	596	541	0	0	0	0	
8	0	0	0	0	592	538	0	0	0	0	
9	0	0	0	0	588	535	0	0	0	0	
10	0	0	0	0	583	531	0	0	0	0	
11	0	0	0	0	579	528	0	0	0	0	
12	0	0	0	0	574	524	0	0	0	0	
13	0	0	0	0	570	520	0	0	0	0	
14	0	0	0	0	565	516	0	0	0	0	
15	0	0	0	0	559	510	0	0	0	0	
0	0	0	0	0	552	504	0	0	0	0	
1	0	0	0	0	546	497	0	0	0	0	
2	0	0	0	0	540	491	0	0	0	0	
3	0	0	0	0	534	485	0	0	0	0	
4	0	0	0	0	529	480	0	0	0	0	
5	0	0	0	0	527	477	0	0	0	0	
6	0	0	0	0	526	475	0	0	0	0	
7	0	0	0	0	526	475	0	0	0	0	
8	0	0	0	0	527	476	0	0	0	0	
9	0	0	0	0	530	479	0	0	0	0	
10	0	0	0	0	534	483	0	0	0	0	
11	0	0	0	0	540	489	0	0	0	0	
12	0	0	0	0	546	495	0	0	0	0	
13	0	0	0	0	552	500	0	0	0	0	
14	0	0	0	0	558	505	0	0	0	0	
15	0	0	0	0	563	509	0	0	0	0	
0	0	0	0	0	567	513	0	0	0	0	
1	0	0	0	0	569	515	0	0	0	0	
2	0	0	0	0	572	517	0	0	0	0	
3	0	0	0	0	574	519	0	0	0	0	
4	0	0	0	0	576	520	0	0	0	0	
5	0	0	0	0	578	522	0	0	0	0	
6	0	0	0	0	579	524	0	0	0	0	
7	0	0	0	0	582	526	0	0	0	0	
8	0	0	0	0	583	528	0	0	0	0	
9	0	0	0	0	583	529	0	0	0	0	
10	0	0	0	0	583	529	0	0	0	0	
11	0	0	0	0	579	527	0	0	0	0	
12	0	0	0	0	575	524	0	0	0	0	
13	0	0	0	0	570	520	0	0	0	0	
14	0	0	0	0	563	516	0	0	0	0	
15	0	0	0	0	559	512	0	0	0	0	
0	0	0	0	0	555	509	0	0	0	0	
1	0	0	0	0	552	507	0	0	0	0	
2	0	0	0	0	551	506	0	0	0	0	
3	0	0	0	0	551	506	0	0	0	0	
4	0	0	0	0	553	507	0	0	0	0	
5	0	0	0	0	556	509	0	0	0	0	
6	0	0	0	0	561	512	0	0	0	0	
7	0	0	0	0	566	515	0	0	0	0	
8	0	0	0	0	570	516	0	0	0	0	
9	0	0	0	0	573	518	0	0	0	0	
10	0	0	0	0	574	519	0	0	0	0	
11	0	0	0	0	574	519	0	0	0	0	
12	0	0	0	0	572	517	0	0	0	0	
13	0	0	0	0	568	514	0	0	0	0	
14	0	0	0	0	562	510	0	0	0	0	
15	0	0	0	0	555	505	0	0	0	0	
0	0	0	0	0	547	500	0	0	0	0	
1	0	0	0	0	540	495	0	0	0	0	
2	0	0	0	0	533	491	0	0	0	0	
3	0	0	0	0	527	487	0	0	0	0	
4	0	0	0	0	524	484	0	0	0	0	
5	0	0	0	0	521	481	0	0	0	0	
6	0	0	0	0	521	481	0	0	0	0	
7	0	0	0	0	523	481	0	0	0	0	
8	0	0	0	0	527	482	0	0	0	0	
9	0	0	0	0	532	485	0	0	0	0	
10	0	0	0	0	539	488	0	0	0	0	
11	0	0	0	0	547	492	0	0	0	0	
12	0	0	0	0	554	496	0	0	0	0	
13	0	0	0	0	561	500	0	0	0	0	
14	0	0	0	0	567	504	0	0	0	0	
15	0	0	0	0	571	508	0	0	0	0	
0	0	0	0	0	574	511	0	0	0	0	
1	0	0	0	0	575	512	0	0	0	0	
2	0	0	0	0	575	514	0	0	0	0	
3	0	0	0	0	572	514	0	0	0	0	
4	0	0	0	0	569	513	0	0	0	0	
5	0	0	0	0	566	512	0	0	0	0	
6	0	0	0	0	562	510	0	0	0	0	
7	0	0	0	0	558	509	0	0	0	0	
8	0	0	0	0	555	508	0	0	0	0	
9	0	0	0	0	553	507	0	0	0	0	
10	0	0	0	0	551	506	0	0	0	0	
11	0	0	0	0	551	506	0	0	0	0	
12	0	0	0	0	551	505	0	0	0	0	
13	0	0	0	0	550	504	0	0	0	0	
14	0	0	0	0	550	503	0	0	0	0	
15	0	0	0	0	549	501	0	0	0	0	
0	0	0	0	0	550	500	0	0	0	0	
1	0	0	0	0	551	501	0	0	0	0	
2	0	0	0	0	555	503	0	0	0	0	
3	0	0	0	0	560	506	0	0	0	0	
4	0	0	0	0	565	510	0	0	0	0	
5	0	0	0	0	572	515	0	0	0	0	
6	0	0	0	0	577	519	0	0	0	0	
7	0	0	0	0	582	522	0	0	0	0	
8	0	0	0	0	583	523	0	0	0	0	
9	0	0	0	0	583	523	0	0	0	0	
10	0	0	0	0	582	522	0	0	0	0	
11	0	0	0	0	579	519	0	0	0	0	
12	0	0	0	0	575	517	0	0	0	0	
13	0	0	0	0	570	515	0	0	0	0	
14	0	0	0	0	566	513	0	0	0	0	
15	0	0	0	0	563	511	0	0	0	0	
0	0	0	0	0	560	511	0	0	0	0	
1	0	0	0	0	559	511	0	0	0	0	
2	0	0	0	0	560	512	0	0	0	0	
3	0	0	0	0	561	512	0	0	0	0	
4	0	0	0	0	563	513	0	0	0	0	
5	0	0	0	0	563	513	0	0	0	0	
6	0	0	0	0	564	513	0	0	0	0	
7	0	0	0	0	565	512	0	0	0	0	
8	0	0	0	0	565	512	0	0	0	0	
9	0	0	0	0	567	512	0	0	0	0	
10	0	0	0	0	568	513	0	0	0	0	
11	0	0	0	0	569	515	0	0	0	0	
12	0	0	0	0	571	516	0	0	0	0	
13	0	0	0	0	572	517	0	0	0	0	
14	0	0	0	0	572	516	0	0	0	0	
15	0	0	0	0	571	516	0	0	0	0	
0	0	0	0	0	568	514	0	0	0	0	
1	0	0	0	0	564	511	0	0	0	0	
2	0	0	0	0	559	508	0	0	0	0	
3	0	0	0	0	554	503	0	0	0	0	
4	0	0	0	0	548	499	0	0	0	0	
5	0	0	0	0	544	496	0	0	0	0	
6	0	0	0	0	540	493	0	0	0	0	
7	0	0	0	0	537	491	0	0	0	0	
8	0	0	0	0	538	491	0	0	0	0	
9	0	0	0	0	539	492	0	0	0	0	
10	0	0	0	0	543	494	0	0	0	0	
11	0	0	0	0	547	498	0	0	0	0	
12	0	0	0	0	554	503	0	0	0	0	
13	0	0	0	0	561	509	0	0	0	0	
14	0	0	0	0	568	515	0	0	0	0	
15	0	0	0	0	575	519	0	0	0	0	
0	0	0	0	0	581	525	0	0	0	0	
1	0	0	0	0	585	528	0	0	0	0	
2	0	0	0	0	588	531	0	0	0	0	
3	0	0	0	0	589	532	0	0	0	0	
4	0	0	0	0	588	532	0	0	0	0	
5	0	0	0	0	585	531	0	0	0	0	
6	0	0	0	0	581	528	0	0	0	0	
7	0	0	0	0	575	523	0	0	0	0	
8	0	0	0	0	568	518	0	0	0	0	
9	0	0	0	0	560	511	0	0	0	0	
10	0	0	0	0	553	505	0	0	0	0	
11	0	0	0	0	546	499	0	0	0	0	
12	0	0	0	0	542	494	0	0	0	0	
13	0	0	0	0	540	492	0	0	0	0	
14	0	0	0	0	540	492	0	0	0	0	
15	0	0	0	0	543	494	0	0	0	0	
0	0	0	0	0	550	498	0	0	0	0	
1	0	0	0	0	557	505	0	0	0	0	
2	0	0	0	0	567	512	0	0	0	0	
3	0	0	0	0	577	519	0	0	0	0	
4	0	0	0	0	586	527	0	0	0	0	
5	0	0	0	0	594	534	0	0	0	0	
6	0	0	0	0	600	538	0	0	0	0	
7	0	0	0	0	604	542	0	0	0	0	
8	0	0	0	0	606	543	0	0	0	0	
9	0	0	0	0	605	543	0	0	0	0	
10	0	0	0	0	601	542	0	0	0	0	
11	0	0	0	0	595	537	0	0	0	0	
12	0	0	0	0	588	532	0	0	0	0	
13	0	0	0	0	577	525	0	0	0	0	
14	0	0	0	0	568	518	0	0	0	0	
15	0	0	0	0	558	510	0	0	0	0	
0	0	0	0	0	550	504	0	0	0	0	
1	0	0	0	0	546	501	0	0	0	0	
2	0	0	0	0	543	499	0	0	0	0	
3	0	0	0	0	545	499	0	0	0	0	
4	0	0	0	0	548	502	0	0	0	0	
5	0	0	0	0	552	504	0	0	0	0	
6	0	0	0	0	558	507	0	0	0	0	
7	0	0	0	0	563	510	0	0	0	0	
8	0	0	0	0	568	512	0	0	0	0	
9	0	0	0	0	571	513	0	0	0	0	
10	0	0	0	0	571	512	0	0	0	0	
11	0	0	0	0	571	511	0	0	0	0	
12	0	0	0	0	568	508	0	0	0	0	
13	0	0	0	0	565	506	0	0	0	0	
14	0	0	0	0	562	504	0	0	0	0	
15	0	0	0	0	560	503	0	0	0	0	
0	0	0	0	0	560	503	0	0	0	0	
1	0	0	0	0	561	504	0	0	0	0	
2	0	0	0	0	563	508	0	0	0	0	
3	0	0	0	0	567	511	0	0	0	0	
4	0	0	0	0	569	515	0	0	0	0	
5	0	0	0	0	573	518	0	0	0	0	
6	0	0	0	0	574	520	0	0	0	0	
7	0	0	0	0	574	522	0	0	0	0	
8	0	0	0	0	574	523	0	0	0	0	
9	0	0	0	0	571	522	0	0	0	0	
10	0	0	0	0	568	520	0	0	0	0	
11	0	0	0	0	563	518	0	0	0	0	
12	0	0	0	0	559	514	0	0	0	0	
13	0	0	0	0	553	511	0	0	0	0	
14	0	0	0	0	548	507	0	0	0	0	
15	0	0	0	0	544	503	0	0	0	0	
0	0	0	0	0	542	500	0	0	0	0	
1	0	0	0	0	540	498	0	0	0	0	
2	0	0	0	0	540	497	0	0	0	0	
3	0	0	0	0	542	497	0	0	0	0	
4	0	0	0	0	545	497	0	0	0	0	
5	0	0	0	0	549	500	0	0	0	0	
6	0	0	0	0	555	503	0	0	0	0	
7	0	0	0	0	561	507	0	0	0	0	
8	0	0	0	0	568	511	0	0	0	0	
9	0	0	0	0	574	515	0	0	0	0	
10	0	0	0	0	579	519	0	0	0	0	
11	0	0	0	0	583	524	0	0	0	0	
12	0	0	0	0	586	527	0	0	0	0	
13	0	0	0	0	588	529	0	0	0	0	
14	0	0	0	0	588	531	0	0	0	0	
15	0	0	0	0	587	532	0	0	0	0	
0	0	0	0	0	585	532	0	0	0	0	
1	0	0	0	0	581	531	0	0	0	0	
2	0	0	0	0	578	529	0	0	0	0	
3	0	0	0	0	573	527	0	0	0	0	
4	0	0	0	0	568	524	0	0	0	0	
5	0	0	0	0	564	521	0	0	0	0	
6	0	0	0	0	559	518	0	0	0	0	
7	0	0	0	0	556	514	0	0	0	0	
8	0	0	0	0	552	510	0	0	0	0	
9	0	0	0	0	549	506	0	0	0	0	
10	0	0	0	0	546	502	0	0	0	0	
11	0	0	0	0	543	498	0	0	0	0	
12	0	0	0	0	541	494	0	0	0	0	
13	0	0	0	0	541	492	0	0	0	0	
14	0	0	0	0	541	490	0	0	0	0	
15	0	0	0	0	542	489	0	0	0	0	
0	0	0	0	0	544	490	0	0	0	0	
1	0	0	0	0	548	492	0	0	0	0	
2	0	0	0	0	552	495	0	0	0	0	
3	0	0	0	0	556	499	0	0	0	0	
4	0	0	0	0	561	504	0	0	0	0	
5	0	0	0	0	567	509	0	0	0	0	
6	0	0	0	0	571	514	0	0	0	0	
7	0	0	0	0	575	519	0	0	0	0	
8	0	0	0	0	578	523	0	0	0	0	
9	0	0	0	0	581	526	0	0	0	0	
10	0	0	0	0	582	528	0	0	0	0	
11	0	0	0	0	582	529	0	0	0	0	
12	0	0	0	0	581	529	0	0	0	0	
13	0	0	0	0	579	527	0	0	0	0	
14	0	0	0	0	576	525	0	0	0	0	
15	0	0	0	0	573	523	0	0	0	0	
0	0	0	0	0	571	522	0	0	0	0	
1	0	0	0	0	571	521	0	0	0	0	
2	0	0	0	0	571	522	0	0	0	0	
3	0	0	0	0	572	523	0	0	0	0	
4	0	0	0	0	573	524	0	0	0	0	
5	0	0	0	0	573	523	0	0	0	0	
6	0	0	0	0	573	522	0	0	0	0	
7	0	0	0	0	572	520	0	0	0	0	
8	0	0	0	0	570	518	0	0	0	0	
9	0	0	0	0	567	516	0	0	0	0	
10	0	0	0	0	565	514	0	0	0	0	
11	0	0	0	0	563	511	0	0	0	0	
12	0	0	0	0	562	510	0	0	0	0	
13	0	0	0	0	563	510	0	0	0	0	
14	0	0	0	0	564	511	0	0	0	0	
15	0	0	0	0	567	513	0	0	0	0	
0	0	0	0	0	572	516	0	0	0	0	
1	0	0	0	0	577	520	0	0	0	0	
2	0	0	0	0	582	524	0	0	0	0	
3	0	0	0	0	587	527	0	0	0	0	
4	0	0	0	0	591	530	0	0	0	0	
5	0	0	0	0	594	532	0	0	0	0	
6	0	0	0	0	595	534	0	0	0	0	
7	0	0	0	0	596	535	0	0	0	0	
8	0	0	0	0	595	536	0	0	0	0	
9	0	0	0	0	595	536	0	0	0	0	
10	0	0	0	0	592	536	0	0	0	0	
11	0	0	0	0	590	535	0	0	0	0	
12	0	0	0	0	585	534	0	0	0	0	
13	0	0	0	0	582	532	0	0	0	0	
14	0	0	0	0	577	530	0	0	0	0	
15	0	0	0	0	573	527	0	0	0	0	
0	0	0	0	0	569	524	0	0	0	0	
1	0	0	0	0	566	522	0	0	0	0	
2	0	0	0	0	563	520	0	0	0	0	
3	0	0	0	0	561	518	0	0	0	0	
4	0	0	0	0	561	515	0	0	0	0	
5	0	0	0	0	562	514	0	0	0	0	
6	0	0	0	0	562	512	0	0	0	0	
7	0	0	0	0	562	511	0	0	0	0	
8	0	0	0	0	562	509	0	0	0	0	
9	0	0	0	0	562	507	0	0	0	0	
10	0	0	0	0	562	506	0	0	0	0	
11	0	0	0	0	562	505	0	0	0	0	
12	0	0	0	0	562	505	0	0	0	0	
13	0	0	0	0	563	507	0	0	0	0	
14	0	0	0	0	566	510	0	0	0	0	
15	0	0	0	0	568	514	0	0	0	0	
0	0	0	0	0	573	519	0	0	0	0	
1	0	0	0	0	577	525	0	0	0	0	
2	0	0	0	0	582	530	0	0	0	0	
3	0	0	0	0	585	534	0	0	0	0	
4	0	0	0	0	586	536	0	0	0	0	
5	0	0	0	0	585	535	0	0	0	0	
6	0	0	0	0	582	532	0	0	0	0	
7	0	0	0	0	577	527	0	0	0	0	
8	0	0	0	0	571	520	0	0	0	0	
9	0	0	0	0	563	513	0	0	0	0	
10	0	0	0	0	555	505	0	0	0	0	
11	0	0	0	0	546	497	0	0	0	0	
12	0	0	0	0	540	492	0	0	0	0	
13	0	0	0	0	535	486	0	0	0	0	
14	0	0	0	0	531	483	0	0	0	0	
15	0	0	0	0	528	481	0	0	0	0	
0	0	0	0	0	528	480	0	0	0	0	
1	0	0	0	0	528	481	0	0	0	0	
2	0	0	0	0	531	483	0	0	0	0	
3	0	0	0	0	533	485	0	0	0	0	
4	0	0	0	0	537	487	0	0	0	0	
5	0	0	0	0	541	491	0	0	0	0	
6	0	0	0	0	546	494	0	0	0	0	
7	0	0	0	0	551	498	0	0	0	0	
8	0	0	0	0	556	501	0	0	0	0	
9	0	0	0	0	562	505	0	0	0	0	
10	0	0	0	0	568	509	0	0	0	0	
11	0	0	0	0	573	513	0	0	0	0	
12	0	0	0	0	578	516	0	0	0	0	
13	0	0	0	0	583	520	0	0	0	0	
14	0	0	0	0	587	523	0	0	0	0	
15	0	0	0	0	588	525	0	0	0	0	
0	0	0	0	0	588	526	0	0	0	0	
1	0	0	0	0	586	525	0	0	0	0	
2	0	0	0	0	582	523	0	0	0	0	
3	0	0	0	0	578	520	0	0	0	0	
4	0	0	0	0	572	518	0	0	0	0	
5	0	0	0	0	567	515	0	0	0	0	
6	0	0	0	0	563	514	0	0	0	0	
7	0	0	0	0	561	514	0	0	0	0	
8	0	0	0	0	561	515	0	0	0	0	
9	0	0	0	0	564	519	0	0	0	0	
10	0	0	0	0	568	524	0	0	0	0	
11	0	0	0	0	576	531	0	0	0	0	
12	0	0	0	0	583	538	0	0	0	0	
13	0	0	0	0	591	544	0	0	0	0	
14	0	0	0	0	598	549	0	0	0	0	
15	0	0	0	0	603	552	0	0	0	0	
0	0	0	0	0	606	552	0	0	0	0	
1	0	0	0	0	606	551	0	0	0	0	
2	0	0	0	0	604	547	0	0	0	0	
3	0	0	0	0	599	542	0	0	0	0	
4	0	0	0	0	592	536	0	0	0	0	
5	0	0	0	0	585	529	0	0	0	0	
6	0	0	0	0	577	522	0	0	0	0	
7	0	0	0	0	569	516	0	0	0	0	
8	0	0	0	0	562	510	0	0	0	0	
9	0	0	0	0	555	505	0	0	0	0	
10	0	0	0	0	548	500	0	0	0	0	
11	0	0	0	0	542	496	0	0	0	0	
12	0	0	0	0	537	492	0	0	0	0	
13	0	0	0	0	532	489	0	0	0	0	
14	0	0	0	0	528	486	0	0	0	0	
15	0	0	0	0	526	483	0	0	0	0	
0	0	0	0	0	523	481	0	0	0	0	
1	0	0	0	0	521	479	0	0	0	0	
2	0	0	0	0	520	477	0	0	0	0	
3	0	0	0	0	520	476	0	0	0	0	
4	0	0	0	0	521	474	0	0	0	0	
5	0	0	0	0	521	473	0	0	0	0	
6	0	0	0	0	523	472	0	0	0	0	
7	0	0	0	0	524	472	0	0	0	0	
8	0	0	0	0	527	473	0	0	0	0	
9	0	0	0	0	530	475	0	0	0	0	
10	0	0	0	0	533	477	0	0	0	0	
11	0	0	0	0	537	480	0	0	0	0	
12	0	0	0	0	541	484	0	0	0	0	
13	0	0	0	0	543	487	0	0	0	0	
14	0	0	0	0	547	490	0	0	0	0	
15	0	0	0	0	549	493	0	0	0	0	
0	0	0	0	0	551	495	0	0	0	0	
1	0	0	0	0	551	496	0	0	0	0	
2	0	0	0	0	551	497	0	0	0	0	
3	0	0	0	0	550	496	0	0	0	0	
4	0	0	0	0	548	495	0	0	0	0	
5	0	0	0	0	546	493	0	0	0	0	
6	0	0	0	0	542	489	0	0	0	0	
7	0	0	0	0	537	484	0	0	0	0	
8	0	0	0	0	530	478	0	0	0	0	
9	0	0	0	0	521	469	0	0	0	0	
10	0	0	0	0	511	459	0	0	0	0	
11	0	0	0	0	497	446	0	0	0	0	
12	0	0	0	0	481	430	0	0	0	0	
13	0	0	0	0	463	412	0	0	0	0	
14	0	0	0	0	443	393	0	0	0	0	
15	0	0	0	0	422	373	0	0	0	0	
0	0	0	0	0	400	352	0	0	0	0	
1	0	0	0	0	378	332	0	0	0	0	
2	0	0	0	0	358	312	0	0	0	0	
3	0	0	0	0	339	294	0	0	0	0	
4	0	0	0	0	322	279	0	0	0	0	
5	0	0	0	0	308	265	0	0	0	0	
6	0	0	0	0	300	256	0	0	0	0	
7	0	0	0	0	295	250	0	0	0	0	
8	0	0	0	0	294	248	0	0	0	0	
9	0	0	0	0	299	251	0	0	0	0	
10	0	0	0	0	308	257	0	0	0	0	
11	0	0	0	0	321	266	0	0	0	0	
12	0	0	0	0	337	278	0	0	0	0	
13	0	0	0	0	356	293	0	0	0	0	
14	0	0	0	0	377	310	0	0	0	0	
15	0	0	0	0	399	327	0	0	0	0	
0	0	0	0	0	422	347	0	0	0	0	
1	0	0	0	0	444	367	0	0	0	0	
2	0	0	0	0	464	387	0	0	0	0	
3	0	0	0	0	484	407	0	0	0	0	
4	0	0	0	0	503	426	0	0	0	0	
5	0	0	0	0	520	444	0	0	0	0	
6	0	0	0	0	536	463	0	0	0	0	
7	0	0	0	0	551	480	0	0	0	0	
8	0	0	0	0	565	496	0	0	0	0	
9	0	0	0	0	578	512	0	0	0	0	
10	0	0	0	0	591	525	0	0	0	0	
11	0	0	0	0	602	538	0	0	0	0	
12	0	0	0	0	610	547	0	0	0	0	
13	0	0	0	0	615	552	0	0	0	0	
14	0	0	0	0	615	553	0	0	0	0	
15	0	0	0	0	614	551	0	0	0	0	
0	0	0	0	0	608	545	0	0	0	0	
1	0	0	0	0	599	536	0	0	0	0	
2	0	0	0	0	588	527	0	0	0	0	
3	0	0	0	0	575	516	0	0	0	0	
4	0	0	0	0	564	506	0	0	0	0	
5	0	0	0	0	553	497	0	0	0	0	
6	0	0	0	0	544	492	0	0	0	0	
7	0	0	0	0	538	488	0	0	0	0	
8	0	0	0	0	536	488	0	0	0	0	
9	0	0	0	0	536	489	0	0	0	0	
10	0	0	0	0	539	493	0	0	0	0	
11	0	0	0	0	544	498	0	0	0	0	
12	0	0	0	0	551	504	0	0	0	0	
13	0	0	0	0	558	510	0	0	0	0	
14	0	0	0	0	566	515	0	0	0	0	
15	0	0	0	0	573	520	0	0	0	0	
0	0	0	0	0	578	523	0	0	0	0	
1	0	0	0	0	581	524	0	0	0	0	
2	0	0	0	0	581	524	0	0	0	0	
3	0	0	0	0	580	522	0	0	0	0	
4	0	0	0	0	578	518	0	0	0	0	
5	0	0	0	0	575	515	0	0	0	0	
6	0	0	0	0	571	512	0	0	0	0	
7	0	0	0	0	567	509	0	0	0	0	
8	0	0	0	0	563	507	0	0	0	0	
9	0	0	0	0	560	506	0	0	0	0	
10	0	0	0	0	558	506	0	0	0	0	
11	0	0	0	0	557	506	0	0	0	0	
12	0	0	0	0	557	507	0	0	0	0	
13	0	0	0	0	558	508	0	0	0	0	
14	0	0	0	0	559	510	0	0	0	0	
15	0	0	0	0	560	510	0	0	0	0	
0	0	0	0	0	560	510	0	0	0	0	
1	0	0	0	0	560	509	0	0	0	0	
2	0	0	0	0	560	508	0	0	0	0	
3	0	0	0	0	559	506	0	0	0	0	
4	0	0	0	0	559	504	0	0	0	0	
5	0	0	0	0	558	503	0	0	0	0	
6	0	0	0	0	557	501	0	0	0	0	
7	0	0	0	0	558	500	0	0	0	0	
8	0	0	0	0	559	502	0	0	0	0	
9	0	0	0	0	561	504	0	0	0	0	
10	0	0	0	0	564	506	0	0	0	0	
11	0	0	0	0	568	510	0	0	0	0	
12	0	0	0	0	573	514	0	0	0	0	
13	0	0	0	0	577	519	0	0	0	0	
14	0	0	0	0	582	524	0	0	0	0	
15	0	0	0	0	588	529	0	0	0	0	
0	0	0	0	0	593	535	0	0	0	0	
1	0	0	0	0	600	540	0	0	0	0	
2	0	0	0	0	605	546	0	0	0	0	
3	0	0	0	0	609	550	0	0	0	0	
4	0	0	0	0	612	553	0	0	0	0	
5	0	0	0	0	613	555	0	0	0	0	
6	0	0	0	0	615	555	0	0	0	0	
7	0	0	0	0	615	555	0	0	0	0	
8	0	0	0	0	613	554	0	0	0	0	
9	0	0	0	0	610	552	0	0	0	0	
10	0	0	0	0	607	549	0	0	0	0	
11	0	0	0	0	602	545	0	0	0	0	
12	0	0	0	0	596	540	0	0	0	0	
13	0	0	0	0	589	534	0	0	0	0	
14	0	0	0	0	581	528	0	0	0	0	
15	0	0	0	0	572	521	0	0	0	0	
0	0	0	0	0	565	515	0	0	0	0	
1	0	0	0	0	558	510	0	0	0	0	
2	0	0	0	0	552	505	0	0	0	0	
3	0	0	0	0	548	503	0	0	0	0	
4	0	0	0	0	545	501	0	0	0	0	
5	0	0	0	0	546	501	0	0	0	0	
6	0	0	0	0	547	502	0	0	0	0	
7	0	0	0	0	550	504	0	0	0	0	
8	0	0	0	0	553	507	0	0	0	0	
9	0	0	0	0	557	509	0	0	0	0	
10	0	0	0	0	561	512	0	0	0	0	
11	0	0	0	0	566	515	0	0	0	0	
12	0	0	0	0	569	517	0	0	0	0	
13	0	0	0	0	572	520	0	0	0	0	
14	0	0	0	0	575	522	0	0	0	0	
15	0	0	0	0	579	525	0	0	0	0	
0	0	0	0	0	582	527	0	0	0	0	
1	0	0	0	0	584	530	0	0	0	0	
2	0	0	0	0	587	532	0	0	0	0	
3	0	0	0	0	588	535	0	0	0	0	
4	0	0	0	0	590	537	0	0	0	0	
5	0	0	0	0	591	539	0	0	0	0	
6	0	0	0	0	591	539	0	0	0	0	
7	0	0	0	0	591	539	0	0	0	0	
8	0	0	0	0	589	537	0	0	0	0	
9	0	0	0	0	585	534	0	0	0	0	
10	0	0	0	0	580	530	0	0	0	0	
11	0	0	0	0	575	525	0	0	0	0	
12	0	0	0	0	568	520	0	0	0	0	
13	0	0	0	0	563	515	0	0	0	0	
14	0	0	0	0	559	511	0	0	0	0	
15	0	0	0	0	558	509	0	0	0	0	
0	0	0	0	0	558	509	0	0	0	0	
1	0	0	0	0	561	510	0	0	0	0	
2	0	0	0	0	566	513	0	0	0	0	
3	0	0	0	0	572	518	0	0	0	0	
4	0	0	0	0	580	522	0	0	0	0	
5	0	0	0	0	587	527	0	0	0	0	
6	0	0	0	0	592	529	0	0	0	0	
7	0	0	0	0	594	529	0	0	0	0	
8	0	0	0	0	591	526	0	0	0	0	
9	0	0	0	0	584	520	0	0	0	0	
10	0	0	0	0	574	511	0	0	0	0	
11	0	0	0	0	561	502	0	0	0	0	
12	0	0	0	0	547	492	0	0	0	0	
13	0	0	0	0	534	483	0	0	0	0	
14	0	0	0	0	521	475	0	0	0	0	
15	0	0	0	0	511	468	0	0	0	0	
0	0	0	0	0	504	464	0	0	0	0	
1	0	0	0	0	499	462	0	0	0	0	
2	0	0	0	0	498	461	0	0	0	0	
3	0	0	0	0	500	463	0	0	0	0	
4	0	0	0	0	505	467	0	0	0	0	
5	0	0	0	0	513	472	0	0	0	0	
6	0	0	0	0	522	478	0	0	0	0	
7	0	0	0	0	531	483	0	0	0	0	
8	0	0	0	0	541	488	0	0	0	0	
9	0	0	0	0	549	494	0	0	0	0	
10	0	0	0	0	556	498	0	0	0	0	
11	0	0	0	0	561	502	0	0	0	0	
12	0	0	0	0	565	504	0	0	0	0	
13	0	0	0	0	568	506	0	0	0	0	
14	0	0	0	0	568	507	0	0	0	0	
15	0	0	0	0	569	508	0	0	0	0	
0	0	0	0	0	568	509	0	0	0	0	
1	0	0	0	0	566	509	0	0	0	0	
2	0	0	0	0	563	509	0	0	0	0	
3	0	0	0	0	561	508	0	0	0	0	
4	0	0	0	0	559	508	0	0	0	0	
5	0	0	0	0	556	508	0	0	0	0	
6	0	0	0	0	554	507	0	0	0	0	
7	0	0	0	0	554	508	0	0	0	0	
8	0	0	0	0	553	508	0	0	0	0	
9	0	0	0	0	556	510	0	0	0	0	
10	0	0	0	0	559	512	0	0	0	0	
11	0	0	0	0	563	515	0	0	0	0	
12	0	0	0	0	569	519	0	0	0	0	
13	0	0	0	0	575	524	0	0	0	0	
14	0	0	0	0	582	528	0	0	0	0	
15	0	0	0	0	588	532	0	0	0	0	
0	0	0	0	0	593	536	0	0	0	0	
1	0	0	0	0	597	539	0	0	0	0	
2	0	0	0	0	599	541	0	0	0	0	
3	0	0	0	0	598	541	0	0	0	0	
4	0	0	0	0	594	540	0	0	0	0	
5	0	0	0	0	588	537	0	0	0	0	
6	0	0	0	0	580	531	0	0	0	0	
7	0	0	0	0	571	525	0	0	0	0	
8	0	0	0	0	559	518	0	0	0	0	
9	0	0	0	0	547	510	0	0	0	0	
10	0	0	0	0	536	501	0	0	0	0	
11	0	0	0	0	527	493	0	0	0	0	
12	0	0	0	0	519	486	0	0	0	0	
13	0	0	0	0	512	479	0	0	0	0	
14	0	0	0	0	509	475	0	0	0	0	
15	0	0	0	0	507	471	0	0	0	0	
0	0	0	0	0	508	470	0	0	0	0	
1	0	0	0	0	512	471	0	0	0	0	
2	0	0	0	0	519	473	0	0	0	0	
3	0	0	0	0	527	479	0	0	0	0	
4	0	0	0	0	539	485	0	0	0	0	
5	0	0	0	0	551	495	0	0	0	0	
6	0	0	0	0	565	505	0	0	0	0	
7	0	0	0	0	579	517	0	0	0	0	
8	0	0	0	0	592	528	0	0	0	0	
9	0	0	0	0	603	538	0	0	0	0	
10	0	0	0	0	609	544	0	0	0	0	
11	0	0	0	0	611	547	0	0	0	0	
12	0	0	0	0	608	546	0	0	0	0	
13	0	0	0	0	600	542	0	0	0	0	
14	0	0	0	0	588	534	0	0	0	0	
15	0	0	0	0	575	525	0	0	0	0	
0	0	0	0	0	561	515	0	0	0	0	
1	0	0	0	0	547	505	0	0	0	0	
2	0	0	0	0	534	495	0	0	0	0	
3	0	0	0	0	523	487	0	0	0	0	
4	0	0	0	0	515	479	0	0	0	0	
5	0	0	0	0	511	474	0	0	0	0	
6	0	0	0	0	508	471	0	0	0	0	
7	0	0	0	0	509	470	0	0	0	0	
8	0	0	0	0	512	470	0	0	0	0	
9	0	0	0	0	516	472	0	0	0	0	
10	0	0	0	0	522	475	0	0	0	0	
11	0	0	0	0	529	479	0	0	0	0	
12	0	0	0	0	535	482	0	0	0	0	
13	0	0	0	0	541	487	0	0	0	0	
14	0	0	0	0	547	491	0	0	0	0	
15	0	0	0	0	551	494	0	0	0	0	
0	0	0	0	0	554	497	0	0	0	0	
1	0	0	0	0	557	500	0	0	0	0	
2	0	0	0	0	559	503	0	0	0	0	
3	0	0	0	0	563	506	0	0	0	0	
4	0	0	0	0	566	510	0	0	0	0	
5	0	0	0	0	569	513	0	0	0	0	
6	0	0	0	0	572	518	0	0	0	0	
7	0	0	0	0	577	521	0	0	0	0	
8	0	0	0	0	582	525	0	0	0	0	
9	0	0	0	0	587	528	0	0	0	0	
10	0	0	0	0	592	532	0	0	0	0	
11	0	0	0	0	596	536	0	0	0	0	
12	0	0	0	0	601	539	0	0	0	0	
13	0	0	0	0	606	542	0	0	0	0	
14	0	0	0	0	608	544	0	0	0	0	
15	0	0	0	0	609	544	0	0	0	0	
0	0	0	0	0	605	542	0	0	0	0	
1	0	0	0	0	599	537	0	0	0	0	
2	0	0	0	0	590	529	0	0	0	0	
3	0	0	0	0	576	519	0	0	0	0	
4	0	0	0	0	560	507	0	0	0	0	
5	0	0	0	0	542	494	0	0	0	0	
6	0	0	0	0	524	481	0	0	0	0	
7	0	0	0	0	508	469	0	0	0	0	
8	0	0	0	0	494	458	0	0	0	0	
9	0	0	0	0	481	449	0	0	0	0	
10	0	0	0	0	472	442	0	0	0	0	
11	0	0	0	0	468	438	0	0	0	0	
12	0	0	0	0	467	435	0	0	0	0	
13	0	0	0	0	470	435	0	0	0	0	
14	0	0	0	0	475	438	0	0	0	0	
15	0	0	0	0	482	441	0	0	0	0	
0	0	0	0	0	492	447	0	0	0	0	
1	0	0	0	0	503	454	0	0	0	0	
2	0	0	0	0	513	461	0	0	0	0	
3	0	0	0	0	524	468	0	0	0	0	
4	0	0	0	0	534	475	0	0	0	0	
5	0	0	0	0	542	481	0	0	0	0	
6	0	0	0	0	550	487	0	0	0	0	
7	0	0	0	0	555	491	0	0	0	0	
8	0	0	0	0	559	495	0	0	0	0	
9	0	0	0	0	560	497	0	0	0	0	
10	0	0	0	0	561	499	0	0	0	0	
11	0	0	0	0	561	500	0	0	0	0	
12	0	0	0	0	561	502	0	0	0	0	
13	0	0	0	0	561	504	0	0	0	0	
14	0	0	0	0	563	507	0	0	0	0	
15	0	0	0	0	565	510	0	0	0	0	
0	0	0	0	0	568	513	0	0	0	0	
1	0	0	0	0	572	516	0	0	0	0	
2	0	0	0	0	575	519	0	0	0	0	
3	0	0	0	0	578	522	0	0	0	0	
4	0	0	0	0	580	524	0	0	0	0	
5	0	0	0	0	582	525	0	0	0	0	
6	0	0	0	0	580	524	0	0	0	0	
7	0	0	0	0	576	521	0	0	0	0	
8	0	0	0	0	571	517	0	0	0	0	
9	0	0	0	0	562	511	0	0	0	0	
10	0	0	0	0	554	505	0	0	0	0	
11	0	0	0	0	545	499	0	0	0	0	
12	0	0	0	0	536	494	0	0	0	0	
13	0	0	0	0	528	489	0	0	0	0	
14	0	0	0	0	522	486	0	0	0	0	
15	0	0	0	0	518	483	0	0	0	0	
0	0	0	0	0	516	481	0	0	0	0	
1	0	0	0	0	517	481	0	0	0	0	
2	0	0	0	0	519	483	0	0	0	0	
3	0	0	0	0	523	485	0	0	0	0	
4	0	0	0	0	529	487	0	0	0	0	
5	0	0	0	0	534	490	0	0	0	0	
6	0	0	0	0	540	493	0	0	0	0	
7	0	0	0	0	546	496	0	0	0	0	
8	0	0	0	0	551	498	0	0	0	0	
9	0	0	0	0	556	500	0	0	0	0	
10	0	0	0	0	560	503	0	0	0	0	
11	0	0	0	0	563	505	0	0	0	0	
12	0	0	0	0	566	508	0	0	0	0	
13	0	0	0	0	568	511	0	0	0	0	
14	0	0	0	0	572	515	0	0	0	0	
15	0	0	0	0	574	518	0	0	0	0	
0	0	0	0	0	576	522	0	0	0	0	
1	0	0	0	0	578	525	0	0	0	0	
2	0	0	0	0	579	527	0	0	0	0	
3	0	0	0	0	579	528	0	0	0	0	
4	0	0	0	0	577	527	0	0	0	0	
5	0	0	0	0	574	524	0	0	0	0	
6	0	0	0	0	568	521	0	0	0	0	
7	0	0	0	0	561	515	0	0	0	0	
8	0	0	0	0	555	508	0	0	0	0	
9	0	0	0	0	547	500	0	0	0	0	
10	0	0	0	0	540	494	0	0	0	0	
11	0	0	0	0	534	487	0	0	0	0	
12	0	0	0	0	529	482	0	0	0	0	
13	0	0	0	0	526	478	0	0	0	0	
14	0	0	0	0	525	476	0	0	0	0	
15	0	0	0	0	525	474	0	0	0	0	
0	0	0	0	0	525	474	0	0	0	0	
1	0	0	0	0	528	475	0	0	0	0	
2	0	0	0	0	531	477	0	0	0	0	
3	0	0	0	0	536	480	0	0	0	0	
4	0	0	0	0	541	485	0	0	0	0	
5	0	0	0	0	547	491	0	0	0	0	
6	0	0	0	0	555	496	0	0	0	0	
7	0	0	0	0	562	503	0	0	0	0	
8	0	0	0	0	570	510	0	0	0	0	
9	0	0	0	0	577	516	0	0	0	0	
10	0	0	0	0	584	522	0	0	0	0	
11	0	0	0	0	590	527	0	0	0	0	
12	0	0	0	0	595	531	0	0	0	0	
13	0	0	0	0	597	534	0	0	0	0	
14	0	0	0	0	597	534	0	0	0	0	
15	0	0	0	0	595	533	0	0	0	0	
0	0	0	0	0	591	529	0	0	0	0	
1	0	0	0	0	584	525	0	0	0	0	
2	0	0	0	0	576	520	0	0	0	0	
3	0	0	0	0	568	514	0	0	0	0	
4	0	0	0	0	559	509	0	0	0	0	
5	0	0	0	0	552	504	0	0	0	0	
6	0	0	0	0	546	500	0	0	0	0	
7	0	0	0	0	540	496	0	0	0	0	
8	0	0	0	0	537	494	0	0	0	0	
9	0	0	0	0	534	492	0	0	0	0	
10	0	0	0	0	531	489	0	0	0	0	
11	0	0	0	0	531	488	0	0	0	0	
12	0	0	0	0	531	487	0	0	0	0	
13	0	0	0	0	532	486	0	0	0	0	
14	0	0	0	0	534	486	0	0	0	0	
15	0	0	0	0	536	487	0	0	0	0	
0	0	0	0	0	541	488	0	0	0	0	
1	0	0	0	0	545	491	0	0	0	0	
2	0	0	0	0	550	494	0	0	0	0	
3	0	0	0	0	554	497	0	0	0	0	
4	0	0	0	0	559	500	0	0	0	0	
5	0	0	0	0	562	503	0	0	0	0	
6	0	0	0	0	565	507	0	0	0	0	
7	0	0	0	0	568	509	0	0	0	0	
8	0	0	0	0	569	512	0	0	0	0	
9	0	0	0	0	571	514	0	0	0	0	
10	0	0	0	0	573	517	0	0	0	0	
11	0	0	0	0	575	519	0	0	0	0	
12	0	0	0	0	577	523	0	0	0	0	
13	0	0	0	0	579	525	0	0	0	0	
14	0	0	0	0	580	526	0	0	0	0	
15	0	0	0	0	581	527	0	0	0	0	
0	0	0	0	0	579	526	0	0	0	0	
1	0	0	0	0	576	523	0	0	0	0	
2	0	0	0	0	571	518	0	0	0	0	
3	0	0	0	0	563	512	0	0	0	0	
4	0	0	0	0	554	505	0	0	0	0	
5	0	0	0	0	545	497	0	0	0	0	
6	0	0	0	0	535	489	0	0	0	0	
7	0	0	0	0	525	481	0	0	0	0	
8	0	0	0	0	516	474	0	0	0	0	
9	0	0	0	0	511	468	0	0	0	0	
10	0	0	0	0	507	465	0	0	0	0	
11	0	0	0	0	505	463	0	0	0	0	
12	0	0	0	0	507	464	0	0	0	0	
13	0	0	0	0	510	467	0	0	0	0	
14	0	0	0	0	516	471	0	0	0	0	
15	0	0	0	0	524	476	0	0	0	0	
0	0	0	0	0	531	482	0	0	0	0	
1	0	0	0	0	539	488	0	0	0	0	
2	0	0	0	0	547	495	0	0	0	0	
3	0	0	0	0	555	499	0	0	0	0	
4	0	0	0	0	560	503	0	0	0	0	
5	0	0	0	0	563	505	0	0	0	0	
6	0	0	0	0	563	505	0	0	0	0	
7	0	0	0	0	561	503	0	0	0	0	
8	0	0	0	0	558	500	0	0	0	0	
9	0	0	0	0	552	496	0	0	0	0	
10	0	0	0	0	546	492	0	0	0	0	
11	0	0	0	0	539	487	0	0	0	0	
12	0	0	0	0	533	484	0	0	0	0	
13	0	0	0	0	528	481	0	0	0	0	
14	0	0	0	0	525	480	0	0	0	0	
15	0	0	0	0	523	480	0	0	0	0	
0	0	0	0	0	523	481	0	0	0	0	
1	0	0	0	0	525	483	0	0	0	0	
2	0	0	0	0	528	486	0	0	0	0	
3	0	0	0	0	533	490	0	0	0	0	
4	0	0	0	0	538	494	0	0	0	0	
5	0	0	0	0	544	498	0	0	0	0	
6	0	0	0	0	550	502	0	0	0	0	
7	0	0	0	0	556	507	0	0	0	0	
8	0	0	0	0	562	511	0	0	0	0	
9	0	0	0	0	568	515	0	0	0	0	
10	0	0	0	0	574	520	0	0	0	0	
11	0	0	0	0	579	524	0	0	0	0	
12	0	0	0	0	584	528	0	0	0	0	
13	0	0	0	0	588	532	0	0	0	0	
14	0	0	0	0	591	536	0	0	0	0	
15	0	0	0	0	593	537	0	0	0	0	
0	0	0	0	0	592	537	0	0	0	0	
1	0	0	0	0	590	536	0	0	0	0	
2	0	0	0	0	587	533	0	0	0	0	
3	0	0	0	0	582	530	0	0	0	0	
4	0	0	0	0	577	527	0	0	0	0	
5	0	0	0	0	572	522	0	0	0	0	
6	0	0	0	0	567	519	0	0	0	0	
7	0	0	0	0	563	517	0	0	0	0	
8	0	0	0	0	562	517	0	0	0	0	
9	0	0	0	0	563	518	0	0	0	0	
10	0	0	0	0	566	522	0	0	0	0	
11	0	0	0	0	572	527	0	0	0	0	
12	0	0	0	0	579	534	0	0	0	0	
13	0	0	0	0	588	542	0	0	0	0	
14	0	0	0	0	595	548	0	0	0	0	
15	0	0	0	0	602	553	0	0	0	0	
0	0	0	0	0	606	556	0	0	0	0	
1	0	0	0	0	608	558	0	0	0	0	
2	0	0	0	0	608	557	0	0	0	0	
3	0	0	0	0	606	555	0	0	0	0	
4	0	0	0	0	603	551	0	0	0	0	
5	0	0	0	0	598	545	0	0	0	0	
6	0	0	0	0	591	539	0	0	0	0	
7	0	0	0	0	583	531	0	0	0	0	
8	0	0	0	0	574	524	0	0	0	0	
9	0	0	0	0	566	516	0	0	0	0	
10	0	0	0	0	558	509	0	0	0	0	
11	0	0	0	0	550	503	0	0	0	0	
12	0	0	0	0	543	498	0	0	0	0	
13	0	0	0	0	537	494	0	0	0	0	
14	0	0	0	0	534	491	0	0	0	0	
15	0	0	0	0	531	488	0	0	0	0	
0	0	0	0	0	530	487	0	0	0	0	
1	0	0	0	0	529	485	0	0	0	0	
2	0	0	0	0	529	484	0	0	0	0	
3	0	0	0	0	530	484	0	0	0	0	
4	0	0	0	0	532	484	0	0	0	0	
5	0	0	0	0	535	485	0	0	0	0	
6	0	0	0	0	537	486	0	0	0	0	
7	0	0	0	0	537	486	0	0	0	0	
8	0	0	0	0	538	486	0	0	0	0	
9	0	0	0	0	537	485	0	0	0	0	
10	0	0	0	0	535	483	0	0	0	0	
11	0	0	0	0	532	481	0	0	0	0	
12	0	0	0	0	527	478	0	0	0	0	
13	0	0	0	0	523	475	0	0	0	0	
14	0	0	0	0	516	471	0	0	0	0	
15	0	0	0	0	511	467	0	0	0	0	
0	0	0	0	0	505	463	0	0	0	0	
1	0	0	0	0	500	459	0	0	0	0	
2	0	0	0	0	497	456	0	0	0	0	
3	0	0	0	0	495	455	0	0	0	0	
4	0	0	0	0	495	455	0	0	0	0	
5	0	0	0	0	497	457	0	0	0	0	
6	0	0	0	0	500	460	0	0	0	0	
7	0	0	0	0	507	463	0	0	0	0	
8	0	0	0	0	513	468	0	0	0	0	
9	0	0	0	0	521	474	0	0	0	0	
10	0	0	0	0	529	479	0	0	0	0	
11	0	0	0	0	537	485	0	0	0	0	
12	0	0	0	0	544	490	0	0	0	0	
13	0	0	0	0	551	495	0	0	0	0	
14	0	0	0	0	556	500	0	0	0	0	
15	0	0	0	0	562	504	0	0	0	0	
0	0	0	0	0	566	508	0	0	0	0	
1	0	0	0	0	570	512	0	0	0	0	
2	0	0	0	0	574	516	0	0	0	0	
3	0	0	0	0	576	519	0	0	0	0	
4	0	0	0	0	578	521	0	0	0	0	
5	0	0	0	0	579	523	0	0	0	0	
6	0	0	0	0	580	525	0	0	0	0	
7	0	0	0	0	581	527	0	0	0	0	
8	0	0	0	0	582	528	0	0	0	0	
9	0	0	0	0	581	529	0	0	0	0	
10	0	0	0	0	578	527	0	0	0	0	
11	0	0	0	0	574	524	0	0	0	0	
12	0	0	0	0	568	519	0	0	0	0	
13	0	0	0	0	560	512	0	0	0	0	
14	0	0	0	0	551	505	0	0	0	0	
15	0	0	0	0	542	496	0	0	0	0	
0	0	0	0	0	534	489	0	0	0	0	
1	0	0	0	0	527	483	0	0	0	0	
2	0	0	0	0	520	478	0	0	0	0	
3	0	0	0	0	517	475	0	0	0	0	
4	0	0	0	0	515	473	0	0	0	0	
5	0	0	0	0	516	474	0	0	0	0	
6	0	0	0	0	520	476	0	0	0	0	
7	0	0	0	0	526	480	0	0	0	0	
8	0	0	0	0	531	485	0	0	0	0	
9	0	0	0	0	539	489	0	0	0	0	
10	0	0	0	0	544	494	0	0	0	0	
11	0	0	0	0	551	498	0	0	0	0	
12	0	0	0	0	555	502	0	0	0	0	
13	0	0	0	0	559	504	0	0	0	0	
14	0	0	0	0	561	506	0	0	0	0	
15	0	0	0	0	563	508	0	0	0	0	
0	0	0	0	0	565	509	0	0	0	0	
1	0	0	0	0	567	511	0	0	0	0	
2	0	0	0	0	569	513	0	0	0	0	
3	0	0	0	0	572	516	0	0	0	0	
4	0	0	0	0	575	518	0	0	0	0	
5	0	0	0	0	577	520	0	0	0	0	
6	0	0	0	0	579	522	0	0	0	0	
7	0	0	0	0	579	523	0	0	0	0	
8	0	0	0	0	579	523	0	0	0	0	
9	0	0	0	0	576	523	0	0	0	0	
10	0	0	0	0	575	522	0	0	0	0	
11	0	0	0	0	571	520	0	0	0	0	
12	0	0	0	0	568	519	0	0	0	0	
13	0	0	0	0	564	517	0	0	0	0	
14	0	0	0	0	560	515	0	0	0	0	
15	0	0	0	0	556	511	0	0	0	0	
0	0	0	0	0	551	507	0	0	0	0	
1	0	0	0	0	545	502	0	0	0	0	
2	0	0	0	0	540	497	0	0	0	0	
3	0	0	0	0	536	493	0	0	0	0	
4	0	0	0	0	533	490	0	0	0	0	
5	0	0	0	0	531	488	0	0	0	0	
6	0	0	0	0	531	487	0	0	0	0	
7	0	0	0	0	532	488	0	0	0	0	
8	0	0	0	0	536	492	0	0	0	0	
9	0	0	0	0	541	496	0	0	0	0	
10	0	0	0	0	547	502	0	0	0	0	
11	0	0	0	0	555	509	0	0	0	0	
12	0	0	0	0	561	515	0	0	0	0	
13	0	0	0	0	566	518	0	0	0	0	
14	0	0	0	0	569	519	0	0	0	0	
15	0	0	0	0	568	518	0	0	0	0	
0	0	0	0	0	565	514	0	0	0	0	
1	0	0	0	0	559	508	0	0	0	0	
2	0	0	0	0	551	499	0	0	0	0	
3	0	0	0	0	540	487	0	0	0	0	
4	0	0	0	0	526	475	0	0	0	0	
5	0	0	0	0	512	461	0	0	0	0	
6	0	0	0	0	496	446	0	0	0	0	
7	0	0	0	0	480	432	0	0	0	0	
8	0	0	0	0	464	417	0	0	0	0	
9	0	0	0	0	449	404	0	0	0	0	
10	0	0	0	0	437	393	0	0	0	0	
11	0	0	0	0	427	383	0	0	0	0	
12	0	0	0	0	419	376	0	0	0	0	
13	0	0	0	0	415	370	0	0	0	0	
14	0	0	0	0	413	366	0	0	0	0	
15	0	0	0	0	412	363	0	0	0	0	
0	0	0	0	0	412	359	0	0	0	0	
1	0	0	0	0	409	355	0	0	0	0	
2	0	0	0	0	406	350	0	0	0	0	
3	0	0	0	0	399	342	0	0	0	0	
4	0	0	0	0	390	333	0	0	0	0	
5	0	0	0	0	378	322	0	0	0	0	
6	0	0	0	0	364	310	0	0	0	0	
7	0	0	0	0	349	298	0	0	0	0	
8	0	0	0	0	335	287	0	0	0	0	
9	0	0	0	0	321	277	0	0	0	0	
10	0	0	0	0	311	270	0	0	0	0	
11	0	0	0	0	304	266	0	0	0	0	
12	0	0	0	0	303	266	0	0	0	0	
13	0	0	0	0	307	271	0	0	0	0	
14	0	0	0	0	316	280	0	0	0	0	
15	0	0	0	0	331	292	0	0	0	0	
0	0	0	0	0	350	308	0	0	0	0	
1	0	0	0	0	374	327	0	0	0	0	
2	0	0	0	0	400	349	0	0	0	0	
3	0	0	0	0	427	371	0	0	0	0	
4	0	0	0	0	454	394	0	0	0	0	
5	0	0	0	0	481	417	0	0	0	0	
6	0	0	0	0	507	438	0	0	0	0	
7	0	0	0	0	529	458	0	0	0	0	
8	0	0	0	0	549	476	0	0	0	0	
9	0	0	0	0	565	492	0	0	0	0	
10	0	0	0	0	577	505	0	0	0	0	
11	0	0	0	0	588	515	0	0	0	0	
12	0	0	0	0	594	524	0	0	0	0	
13	0	0	0	0	598	530	0	0	0	0	
14	0	0	0	0	600	535	0	0	0	0	
15	0	0	0	0	600	537	0	0	0	0	
0	0	0	0	0	598	539	0	0	0	0	
1	0	0	0	0	596	539	0	0	0	0	
2	0	0	0	0	594	539	0	0	0	0	
3	0	0	0	0	592	539	0	0	0	0	
4	0	0	0	0	589	539	0	0	0	0	
5	0	0	0	0	588	539	0	0	0	0	
6	0	0	0	0	588	539	0	0	0	0	
7	0	0	0	0	587	538	0	0	0	0	
8	0	0	0	0	587	539	0	0	0	0	
9	0	0	0	0	586	539	0	0	0	0	
10	0	0	0	0	585	537	0	0	0	0	
11	0	0	0	0	582	533	0	0	0	0	
12	0	0	0	0	577	528	0	0	0	0	
13	0	0	0	0	569	521	0	0	0	0	
14	0	0	0	0	560	513	0	0	0	0	
15	0	0	0	0	551	504	0	0	0	0	
0	0	0	0	0	541	496	0	0	0	0	
1	0	0	0	0	532	487	0	0	0	0	
2	0	0	0	0	524	481	0	0	0	0	
3	0	0	0	0	519	477	0	0	0	0	
4	0	0	0	0	516	473	0	0	0	0	
5	0	0	0	0	515	472	0	0	0	0	
6	0	0	0	0	517	473	0	0	0	0	
7	0	0	0	0	520	475	0	0	0	0	
8	0	0	0	0	526	479	0	0	0	0	
9	0	0	0	0	533	484	0	0	0	0	
10	0	0	0	0	540	490	0	0	0	0	
11	0	0	0	0	548	496	0	0	0	0	
12	0	0	0	0	556	503	0	0	0	0	
13	0	0	0	0	564	510	0	0	0	0	
14	0	0	0	0	572	517	0	0	0	0	
15	0	0	0	0	579	524	0	0	0	0	
0	0	0	0	0	584	530	0	0	0	0	
1	0	0	0	0	588	535	0	0	0	0	
2	0	0	0	0	592	540	0	0	0	0	
3	0	0	0	0	595	542	0	0	0	0	
4	0	0	0	0	597	544	0	0	0	0	
5	0	0	0	0	598	544	0	0	0	0	
6	0	0	0	0	598	543	0	0	0	0	
7	0	0	0	0	595	541	0	0	0	0	
8	0	0	0	0	593	537	0	0	0	0	
9	0	0	0	0	588	532	0	0	0	0	
10	0	0	0	0	582	527	0	0	0	0	
11	0	0	0	0	575	521	0	0	0	0	
12	0	0	0	0	569	515	0	0	0	0	
13	0	0	0	0	564	511	0	0	0	0	
14	0	0	0	0	559	508	0	0	0	0	
15	0	0	0	0	557	505	0	0	0	0	
0	0	0	0	0	555	505	0	0	0	0	
1	0	0	0	0	555	506	0	0	0	0	
2	0	0	0	0	556	507	0	0	0	0	
3	0	0	0	0	557	508	0	0	0	0	
4	0	0	0	0	559	511	0	0	0	0	
5	0	0	0	0	560	512	0	0	0	0	
6	0	0	0	0	561	513	0	0	0	0	
7	0	0	0	0	562	514	0	0	0	0	
8	0	0	0	0	561	513	0	0	0	0	
9	0	0	0	0	561	513	0	0	0	0	
10	0	0	0	0	560	512	0	0	0	0	
11	0	0	0	0	558	511	0	0	0	0	
12	0	0	0	0	559	510	0	0	0	0	
13	0	0	0	0	559	510	0	0	0	0	
14	0	0	0	0	561	511	0	0	0	0	
15	0	0	0	0	565	514	0	0	0	0	
0	0	0	0	0	571	520	0	0	0	0	
1	0	0	0	0	581	528	0	0	0	0	
2	0	0	0	0	591	537	0	0	0	0	
3	0	0	0	0	604	549	0	0	0	0	
4	0	0	0	0	616	561	0	0	0	0	
5	0	0	0	0	629	572	0	0	0	0	
6	0	0	0	0	640	581	0	0	0	0	
7	0	0	0	0	648	588	0	0	0	0	
8	0	0	0	0	652	591	0	0	0	0	
9	0	0	0	0	651	591	0	0	0	0	
10	0	0	0	0	646	586	0	0	0	0	
11	0	0	0	0	636	577	0	0	0	0	
12	0	0	0	0	621	566	0	0	0	0	
13	0	0	0	0	604	552	0	0	0	0	
14	0	0	0	0	585	537	0	0	0	0	
15	0	0	0	0	566	522	0	0	0	0	
0	0	0	0	0	546	507	0	0	0	0	
1	0	0	0	0	528	493	0	0	0	0	
2	0	0	0	0	513	480	0	0	0	0	
3	0	0	0	0	502	471	0	0	0	0	
4	0	0	0	0	496	466	0	0	0	0	
5	0	0	0	0	495	464	0	0	0	0	
6	0	0	0	0	498	466	0	0	0	0	
7	0	0	0	0	506	471	0	0	0	0	
8	0	0	0	0	517	480	0	0	0	0	
9	0	0	0	0	532	490	0	0	0	0	
10	0	0	0	0	548	502	0	0	0	0	
11	0	0	0	0	564	513	0	0	0	0	
12	0	0	0	0	579	524	0	0	0	0	
13	0	0	0	0	591	533	0	0	0	0	
14	0	0	0	0	602	540	0	0	0	0	
15	0	0	0	0	607	543	0	0	0	0	
0	0	0	0	0	607	543	0	0	0	0	
1	0	0	0	0	603	540	0	0	0	0	
2	0	0	0	0	595	534	0	0	0	0	
3	0	0	0	0	583	525	0	0	0	0	
4	0	0	0	0	570	515	0	0	0	0	
5	0	0	0	0	556	505	0	0	0	0	
6	0	0	0	0	544	497	0	0	0	0	
7	0	0	0	0	535	492	0	0	0	0	
8	0	0	0	0	531	491	0	0	0	0	
9	0	0	0	0	531	491	0	0	0	0	
10	0	0	0	0	534	495	0	0	0	0	
11	0	0	0	0	540	500	0	0	0	0	
12	0	0	0	0	547	506	0	0	0	0	
13	0	0	0	0	555	512	0	0	0	0	
14	0	0	0	0	563	517	0	0	0	0	
15	0	0	0	0	569	520	0	0	0	0	
0	0	0	0	0	572	521	0	0	0	0	
1	0	0	0	0	574	521	0	0	0	0	
2	0	0	0	0	573	519	0	0	0	0	
3	0	0	0	0	570	515	0	0	0	0	
4	0	0	0	0	565	511	0	0	0	0	
5	0	0	0	0	559	505	0	0	0	0	
6	0	0	0	0	552	500	0	0	0	0	
7	0	0	0	0	547	496	0	0	0	0	
8	0	0	0	0	543	493	0	0	0	0	
9	0	0	0	0	540	492	0	0	0	0	
10	0	0	0	0	541	493	0	0	0	0	
11	0	0	0	0	545	497	0	0	0	0	
12	0	0	0	0	552	503	0	0	0	0	
13	0	0	0	0	563	511	0	0	0	0	
14	0	0	0	0	576	521	0	0	0	0	
15	0	0	0	0	589	531	0	0	0	0	
0	0	0	0	0	601	540	0	0	0	0	
1	0	0	0	0	611	546	0	0	0	0	
2	0	0	0	0	617	551	0	0	0	0	
3	0	0	0	0	620	552	0	0	0	0	
4	0	0	0	0	620	552	0	0	0	0	
5	0	0	0	0	616	550	0	0	0	0	
6	0	0	0	0	609	545	0	0	0	0	
7	0	0	0	0	600	539	0	0	0	0	
8	0	0	0	0	588	530	0	0	0	0	
9	0	0	0	0	574	521	0	0	0	0	
10	0	0	0	0	560	511	0	0	0	0	
11	0	0	0	0	545	501	0	0	0	0	
12	0	0	0	0	534	492	0	0	0	0	
13	0	0	0	0	524	486	0	0	0	0	
14	0	0	0	0	518	481	0	0	0	0	
15	0	0	0	0	515	479	0	0	0	0	
0	0	0	0	0	515	478	0	0	0	0	
1	0	0	0	0	516	480	0	0	0	0	
2	0	0	0	0	520	481	0	0	0	0	
3	0	0	0	0	525	484	0	0	0	0	
4	0	0	0	0	530	486	0	0	0	0	
5	0	0	0	0	535	488	0	0	0	0	
6	0	0	0	0	540	491	0	0	0	0	
7	0	0	0	0	544	494	0	0	0	0	
8	0	0	0	0	550	497	0	0	0	0	
9	0	0	0	0	554	500	0	0	0	0	
10	0	0	0	0	558	503	0	0	0	0	
11	0	0	0	0	562	505	0	0	0	0	
12	0	0	0	0	565	508	0	0	0	0	
13	0	0	0	0	568	511	0	0	0	0	
14	0	0	0	0	570	515	0	0	0	0	
15	0	0	0	0	574	519	0	0	0	0	
0	0	0	0	0	579	524	0	0	0	0	
1	0	0	0	0	584	529	0	0	0	0	
2	0	0	0	0	590	534	0	0	0	0	
3	0	0	0	0	594	539	0	0	0	0	
4	0	0	0	0	599	543	0	0	0	0	
5	0	0	0	0	602	547	0	0	0	0	
6	0	0	0	0	603	548	0	0	0	0	
7	0	0	0	0	601	546	0	0	0	0	
8	0	0	0	0	596	542	0	0	0	0	
9	0	0	0	0	588	536	0	0	0	0	
10	0	0	0	0	578	527	0	0	0	0	
11	0	0	0	0	567	519	0	0	0	0	
12	0	0	0	0	555	509	0	0	0	0	
13	0	0	0	0	544	500	0	0	0	0	
14	0	0	0	0	534	492	0	0	0	0	
15	0	0	0	0	526	484	0	0	0	0	
0	0	0	0	0	519	477	0	0	0	0	
1	0	0	0	0	513	472	0	0	0	0	
2	0	0	0	0	509	468	0	0	0	0	
3	0	0	0	0	509	465	0	0	0	0	
4	0	0	0	0	509	465	0	0	0	0	
5	0	0	0	0	511	465	0	0	0	0	
6	0	0	0	0	515	467	0	0	0	0	
7	0	0	0	0	519	472	0	0	0	0	
8	0	0	0	0	526	476	0	0	0	0	
9	0	0	0	0	534	483	0	0	0	0	
10	0	0	0	0	541	489	0	0	0	0	
11	0	0	0	0	549	495	0	0	0	0	
12	0	0	0	0	555	501	0	0	0	0	
13	0	0	0	0	561	506	0	0	0	0	
14	0	0	0	0	566	510	0	0	0	0	
15	0	0	0	0	568	512	0	0	0	0	
0	0	0	0	0	569	514	0	0	0	0	
1	0	0	0	0	568	514	0	0	0	0	
2	0	0	0	0	566	512	0	0	0	0	
3	0	0	0	0	562	510	0	0	0	0	
4	0	0	0	0	557	506	0	0	0	0	
5	0	0	0	0	552	502	0	0	0	0	
6	0	0	0	0	548	499	0	0	0	0	
7	0	0	0	0	545	497	0	0	0	0	
8	0	0	0	0	546	496	0	0	0	0	
9	0	0	0	0	548	498	0	0	0	0	
10	0	0	0	0	552	501	0	0	0	0	
11	0	0	0	0	559	505	0	0	0	0	
12	0	0	0	0	568	511	0	0	0	0	
13	0	0	0	0	576	518	0	0	0	0	
14	0	0	0	0	584	525	0	0	0	0	
15	0	0	0	0	592	531	0	0	0	0	
0	0	0	0	0	598	536	0	0	0	0	
1	0	0	0	0	600	539	0	0	0	0	
2	0	0	0	0	600	539	0	0	0	0	
3	0	0	0	0	594	536	0	0	0	0	
4	0	0	0	0	586	531	0	0	0	0	
5	0	0	0	0	575	524	0	0	0	0	
6	0	0	0	0	563	515	0	0	0	0	
7	0	0	0	0	550	506	0	0	0	0	
8	0	0	0	0	537	496	0	0	0	0	
9	0	0	0	0	526	487	0	0	0	0	
10	0	0	0	0	516	480	0	0	0	0	
11	0	0	0	0	510	473	0	0	0	0	
12	0	0	0	0	504	468	0	0	0	0	
13	0	0	0	0	502	465	0	0	0	0	
14	0	0	0	0	500	462	0	0	0	0	
15	0	0	0	0	499	460	0	0	0	0	
0	0	0	0	0	501	458	0	0	0	0	
1	0	0	0	0	503	457	0	0	0	0	
2	0	0	0	0	505	458	0	0	0	0	
3	0	0	0	0	508	459	0	0	0	0	
4	0	0	0	0	512	461	0	0	0	0	
5	0	0	0	0	516	464	0	0	0	0	
6	0	0	0	0	521	468	0	0	0	0	
7	0	0	0	0	525	472	0	0	0	0	
8	0	0	0	0	529	476	0	0	0	0	
9	0	0	0	0	533	481	0	0	0	0	
10	0	0	0	0	537	485	0	0	0	0	
11	0	0	0	0	540	489	0	0	0	0	
12	0	0	0	0	542	492	0	0	0	0	
13	0	0	0	0	544	494	0	0	0	0	
14	0	0	0	0	546	496	0	0	0	0	
15	0	0	0	0	548	497	0	0	0	0	
0	0	0	0	0	550	499	0	0	0	0	
1	0	0	0	0	553	501	0	0	0	0	
2	0	0	0	0	556	503	0	0	0	0	
3	0	0	0	0	559	505	0	0	0	0	
4	0	0	0	0	564	508	0	0	0	0	
5	0	0	0	0	568	512	0	0	0	0	
6	0	0	0	0	570	515	0	0	0	0	
7	0	0	0	0	571	516	0	0	0	0	
8	0	0	0	0	570	516	0	0	0	0	
9	0	0	0	0	569	515	0	0	0	0	
10	0	0	0	0	566	514	0	0	0	0	
11	0	0	0	0	561	512	0	0	0	0	
12	0	0	0	0	557	509	0	0	0	0	
13	0	0	0	0	552	505	0	0	0	0	
14	0	0	0	0	548	502	0	0	0	0	
15	0	0	0	0	543	498	0	0	0	0	
0	0	0	0	0	539	495	0	0	0	0	
1	0	0	0	0	536	492	0	0	0	0	
2	0	0	0	0	534	489	0	0	0	0	
3	0	0	0	0	533	488	0	0	0	0	
4	0	0	0	0	534	487	0	0	0	0	
5	0	0	0	0	534	487	0	0	0	0	
6	0	0	0	0	536	487	0	0	0	0	
7	0	0	0	0	537	487	0	0	0	0	
8	0	0	0	0	537	487	0	0	0	0	
9	0	0	0	0	538	487	0	0	0	0	
10	0	0	0	0	538	487	0	0	0	0	
11	0	0	0	0	538	487	0	0	0	0	
12	0	0	0	0	536	487	0	0	0	0	
13	0	0	0	0	536	488	0	0	0	0	
14	0	0	0	0	536	489	0	0	0	0	
15	0	0	0	0	536	491	0	0	0	0	
0	0	0	0	0	537	494	0	0	0	0	
1	0	0	0	0	540	497	0	0	0	0	
2	0	0	0	0	545	503	0	0	0	0	
3	0	0	0	0	552	508	0	0	0	0	
4	0	0	0	0	560	515	0	0	0	0	
5	0	0	0	0	570	521	0	0	0	0	
6	0	0	0	0	580	528	0	0	0	0	
7	0	0	0	0	591	535	0	0	0	0	
8	0	0	0	0	600	540	0	0	0	0	
9	0	0	0	0	607	544	0	0	0	0	
10	0	0	0	0	612	546	0	0	0	0	
11	0	0	0	0	614	546	0	0	0	0	
12	0	0	0	0	613	544	0	0	0	0	
13	0	0	0	0	610	542	0	0	0	0	
14	0	0	0	0	604	539	0	0	0	0	
15	0	0	0	0	598	536	0	0	0	0	
0	0	0	0	0	590	531	0	0	0	0	
1	0	0	0	0	581	527	0	0	0	0	
2	0	0	0	0	571	522	0	0	0	0	
3	0	0	0	0	560	515	0	0	0	0	
4	0	0	0	0	549	508	0	0	0	0	
5	0	0	0	0	537	500	0	0	0	0	
6	0	0	0	0	526	492	0	0	0	0	
7	0	0	0	0	516	483	0	0	0	0	
8	0	0	0	0	507	475	0	0	0	0	
9	0	0	0	0	499	468	0	0	0	0	
10	0	0	0	0	494	461	0	0	0	0	
11	0	0	0	0	491	456	0	0	0	0	
12	0	0	0	0	491	452	0	0	0	0	
13	0	0	0	0	492	450	0	0	0	0	
14	0	0	0	0	495	449	0	0	0	0	
15	0	0	0	0	499	449	0	0	0	0	
0	0	0	0	0	505	451	0	0	0	0	
1	0	0	0	0	511	455	0	0	0	0	
2	0	0	0	0	518	459	0	0	0	0	
3	0	0	0	0	524	464	0	0	0	0	
4	0	0	0	0	530	469	0	0	0	0	
5	0	0	0	0	535	475	0	0	0	0	
6	0	0	0	0	539	480	0	0	0	0	
7	0	0	0	0	542	485	0	0	0	0	
8	0	0	0	0	544	490	0	0	0	0	
9	0	0	0	0	545	494	0	0	0	0	
10	0	0	0	0	545	496	0	0	0	0	
11	0	0	0	0	544	499	0	0	0	0	
12	0	0	0	0	542	499	0	0	0	0	
13	0	0	0	0	540	499	0	0	0	0	
14	0	0	0	0	537	497	0	0	0	0	
15	0	0	0	0	534	496	0	0	0	0	
0	0	0	0	0	533	494	0	0	0	0	
1	0	0	0	0	533	493	0	0	0	0	
2	0	0	0	0	534	493	0	0	0	0	
3	0	0	0	0	536	493	0	0	0	0	
4	0	0	0	0	540	495	0	0	0	0	
5	0	0	0	0	545	497	0	0	0	0	
6	0	0	0	0	550	500	0	0	0	0	
7	0	0	0	0	556	504	0	0	0	0	
8	0	0	0	0	561	508	0	0	0	0	
9	0	0	0	0	566	512	0	0	0	0	
10	0	0	0	0	571	515	0	0	0	0	
11	0	0	0	0	573	518	0	0	0	0	
12	0	0	0	0	572	518	0	0	0	0	
13	0	0	0	0	571	516	0	0	0	0	
14	0	0	0	0	566	513	0	0	0	0	
15	0	0	0	0	559	509	0	0	0	0	
0	0	0	0	0	551	504	0	0	0	0	
1	0	0	0	0	543	497	0	0	0	0	
2	0	0	0	0	534	491	0	0	0	0	
3	0	0	0	0	526	484	0	0	0	0	
4	0	0	0	0	518	478	0	0	0	0	
5	0	0	0	0	512	473	0	0	0	0	
6	0	0	0	0	508	469	0	0	0	0	
7	0	0	0	0	507	467	0	0	0	0	
8	0	0	0	0	508	467	0	0	0	0	
9	0	0	0	0	512	470	0	0	0	0	
10	0	0	0	0	519	475	0	0	0	0	
11	0	0	0	0	526	480	0	0	0	0	
12	0	0	0	0	535	487	0	0	0	0	
13	0	0	0	0	543	494	0	0	0	0	
14	0	0	0	0	552	500	0	0	0	0	
15	0	0	0	0	559	506	0	0	0	0	
0	0	0	0	0	563	509	0	0	0	0	
1	0	0	0	0	565	512	0	0	0	0	
2	0	0	0	0	564	512	0	0	0	0	
3	0	0	0	0	563	510	0	0	0	0	
4	0	0	0	0	558	506	0	0	0	0	
5	0	0	0	0	550	500	0	0	0	0	
6	0	0	0	0	540	492	0	0	0	0	
7	0	0	0	0	530	484	0	0	0	0	
8	0	0	0	0	520	475	0	0	0	0	
9	0	0	0	0	512	468	0	0	0	0	
10	0	0	0	0	506	463	0	0	0	0	
11	0	0	0	0	504	460	0	0	0	0	
12	0	0	0	0	504	460	0	0	0	0	
13	0	0	0	0	508	463	0	0	0	0	
14	0	0	0	0	515	468	0	0	0	0	
15	0	0	0	0	525	476	0	0	0	0	
0	0	0	0	0	536	484	0	0	0	0	
1	0	0	0	0	546	493	0	0	0	0	
2	0	0	0	0	556	501	0	0	0	0	
3	0	0	0	0	565	508	0	0	0	0	
4	0	0	0	0	571	514	0	0	0	0	
5	0	0	0	0	575	516	0	0	0	0	
6	0	0	0	0	575	517	0	0	0	0	
7	0	0	0	0	574	517	0	0	0	0	
8	0	0	0	0	569	514	0	0	0	0	
9	0	0	0	0	564	511	0	0	0	0	
10	0	0	0	0	559	508	0	0	0	0	
11	0	0	0	0	554	505	0	0	0	0	
12	0	0	0	0	551	502	0	0	0	0	
13	0	0	0	0	548	500	0	0	0	0	
14	0	0	0	0	546	498	0	0	0	0	
15	0	0	0	0	544	496	0	0	0	0	
0	0	0	0	0	543	496	0	0	0	0	
1	0	0	0	0	545	495	0	0	0	0	
2	0	0	0	0	545	495	0	0	0	0	
3	0	0	0	0	546	495	0	0	0	0	
4	0	0	0	0	545	494	0	0	0	0	
5	0	0	0	0	544	493	0	0	0	0	
6	0	0	0	0	543	492	0	0	0	0	
7	0	0	0	0	540	490	0	0	0	0	
8	0	0	0	0	536	487	0	0	0	0	
9	0	0	0	0	531	485	0	0	0	0	
10	0	0	0	0	527	483	0	0	0	0	
11	0	0	0	0	525	481	0	0	0	0	
12	0	0	0	0	522	480	0	0	0	0	
13	0	0	0	0	519	478	0	0	0	0	
14	0	0	0	0	518	477	0	0	0	0	
15	0	0	0	0	517	476	0	0	0	0	
0	0	0	0	0	518	475	0	0	0	0	
1	0	0	0	0	520	475	0	0	0	0	
2	0	0	0	0	522	476	0	0	0	0	
3	0	0	0	0	526	477	0	0	0	0	
4	0	0	0	0	529	479	0	0	0	0	
5	0	0	0	0	532	480	0	0	0	0	
6	0	0	0	0	535	481	0	0	0	0	
7	0	0	0	0	536	482	0	0	0	0	
8	0	0	0	0	537	483	0	0	0	0	
9	0	0	0	0	536	484	0	0	0	0	
10	0	0	0	0	537	485	0	0	0	0	
11	0	0	0	0	537	487	0	0	0	0	
12	0	0	0	0	536	488	0	0	0	0	
13	0	0	0	0	537	489	0	0	0	0	
14	0	0	0	0	538	492	0	0	0	0	
15	0	0	0	0	541	494	0	0	0	0	
0	0	0	0	0	544	497	0	0	0	0	
1	0	0	0	0	548	500	0	0	0	0	
2	0	0	0	0	552	504	0	0	0	0	
3	0	0	0	0	556	507	0	0	0	0	
4	0	0	0	0	560	509	0	0	0	0	
5	0	0	0	0	562	510	0	0	0	0	
6	0	0	0	0	563	510	0	0	0	0	
7	0	0	0	0	561	508	0	0	0	0	
8	0	0	0	0	558	504	0	0	0	0	
9	0	0	0	0	551	499	0	0	0	0	
10	0	0	0	0	543	492	0	0	0	0	
11	0	0	0	0	534	485	0	0	0	0	
12	0	0	0	0	524	478	0	0	0	0	
13	0	0	0	0	514	471	0	0	0	0	
14	0	0	0	0	506	464	0	0	0	0	
15	0	0	0	0	499	460	0	0	0	0	
0	0	0	0	0	495	456	0	0	0	0	
1	0	0	0	0	494	455	0	0	0	0	
2	0	0	0	0	495	456	0	0	0	0	
3	0	0	0	0	498	459	0	0	0	0	
4	0	0	0	0	502	462	0	0	0	0	
5	0	0	0	0	507	465	0	0	0	0	
6	0	0	0	0	512	468	0	0	0	0	
7	0	0	0	0	518	470	0	0	0	0	
8	0	0	0	0	522	472	0	0	0	0	
9	0	0	0	0	526	473	0	0	0	0	
10	0	0	0	0	528	473	0	0	0	0	
11	0	0	0	0	530	473	0	0	0	0	
12	0	0	0	0	532	473	0	0	0	0	
13	0	0	0	0	534	474	0	0	0	0	
14	0	0	0	0	535	475	0	0	0	0	
15	0	0	0	0	537	477	0	0	0	0	
0	0	0	0	0	539	480	0	0	0	0	
1	0	0	0	0	540	483	0	0	0	0	
2	0	0	0	0	543	487	0	0	0	0	
3	0	0	0	0	547	492	0	0	0	0	
4	0	0	0	0	549	496	0	0	0	0	
5	0	0	0	0	552	500	0	0	0	0	
6	0	0	0	0	554	503	0	0	0	0	
7	0	0	0	0	555	505	0	0	0	0	
8	0	0	0	0	555	506	0	0	0	0	
9	0	0	0	0	555	506	0	0	0	0	
10	0	0	0	0	553	504	0	0	0	0	
11	0	0	0	0	550	502	0	0	0	0	
12	0	0	0	0	548	499	0	0	0	0	
13	0	0	0	0	545	496	0	0	0	0	
14	0	0	0	0	542	492	0	0	0	0	
15	0	0	0	0	539	488	0	0	0	0	
0	0	0	0	0	536	483	0	0	0	0	
1	0	0	0	0	532	479	0	0	0	0	
2	0	0	0	0	528	475	0	0	0	0	
3	0	0	0	0	524	471	0	0	0	0	
4	0	0	0	0	520	467	0	0	0	0	
5	0	0	0	0	516	463	0	0	0	0	
6	0	0	0	0	512	460	0	0	0	0	
7	0	0	0	0	509	458	0	0	0	0	
8	0	0	0	0	506	457	0	0	0	0	
9	0	0	0	0	505	457	0	0	0	0	
10	0	0	0	0	505	458	0	0	0	0	
11	0	0	0	0	506	460	0	0	0	0	
12	0	0	0	0	508	462	0	0	0	0	
13	0	0	0	0	511	465	0	0	0	0	
14	0	0	0	0	513	467	0	0	0	0	
15	0	0	0	0	517	471	0	0	0	0	
0	0	0	0	0	520	472	0	0	0	0	
1	0	0	0	0	522	473	0	0	0	0	
2	0	0	0	0	523	472	0	0	0	0	
3	0	0	0	0	523	471	0	0	0	0	
4	0	0	0	0	520	468	0	0	0	0	
5	0	0	0	0	519	466	0	0	0	0	
6	0	0	0	0	516	463	0	0	0	0	
7	0	0	0	0	513	460	0	0	0	0	
8	0	0	0	0	510	458	0	0	0	0	
9	0	0	0	0	508	457	0	0	0	0	
10	0	0	0	0	507	456	0	0	0	0	
11	0	0	0	0	506	456	0	0	0	0	
12	0	0	0	0	506	457	0	0	0	0	
13	0	0	0	0	508	460	0	0	0	0	
14	0	0	0	0	511	463	0	0	0	0	
15	0	0	0	0	516	468	0	0	0	0	
0	0	0	0	0	523	473	0	0	0	0	
1	0	0	0	0	530	479	0	0	0	0	
2	0	0	0	0	538	485	0	0	0	0	
3	0	0	0	0	547	492	0	0	0	0	
4	0	0	0	0	555	499	0	0	0	0	
5	0	0	0	0	564	506	0	0	0	0	
6	0	0	0	0	573	514	0	0	0	0	
7	0	0	0	0	582	521	0	0	0	0	
8	0	0	0	0	589	528	0	0	0	0	
9	0	0	0	0	595	534	0	0	0	0	
10	0	0	0	0	597	536	0	0	0	0	
11	0	0	0	0	595	535	0	0	0	0	
12	0	0	0	0	588	530	0	0	0	0	
13	0	0	0	0	575	520	0	0	0	0	
14	0	0	0	0	560	507	0	0	0	0	
15	0	0	0	0	540	491	0	0	0	0	
0	0	0	0	0	517	472	0	0	0	0	
1	0	0	0	0	494	454	0	0	0	0	
2	0	0	0	0	472	436	0	0	0	0	
3	0	0	0	0	453	419	0	0	0	0	
4	0	0	0	0	436	404	0	0	0	0	
5	0	0	0	0	422	392	0	0	0	0	
6	0	0	0	0	412	382	0	0	0	0	
7	0	0	0	0	403	373	0	0	0	0	
8	0	0	0	0	397	364	0	0	0	0	
9	0	0	0	0	392	356	0	0	0	0	
10	0	0	0	0	386	347	0	0	0	0	
11	0	0	0	0	380	337	0	0	0	0	
12	0	0	0	0	372	326	0	0	0	0	
13	0	0	0	0	363	315	0	0	0	0	
14	0	0	0	0	352	302	0	0	0	0	
15	0	0	0	0	340	289	0	0	0	0	
0	0	0	0	0	327	276	0	0	0	0	
1	0	0	0	0	314	263	0	0	0	0	
2	0	0	0	0	300	251	0	0	0	0	
3	0	0	0	0	289	240	0	0	0	0	
4	0	0	0	0	277	230	0	0	0	0	
5	0	0	0	0	268	221	0	0	0	0	
6	0	0	0	0	259	214	0	0	0	0	
7	0	0	0	0	254	209	0	0	0	0	
8	0	0	0	0	251	207	0	0	0	0	
9	0	0	0	0	252	207	0	0	0	0	
10	0	0	0	0	256	211	0	0	0	0	
11	0	0	0	0	265	218	0	0	0	0	
12	0	0	0	0	279	230	0	0	0	0	
13	0	0	0	0	298	246	0	0	0	0	
14	0	0	0	0	323	267	0	0	0	0	
15	0	0	0	0	352	291	0	0	0	0	
0	0	0	0	0	385	319	0	0	0	0	
1	0	0	0	0	420	351	0	0	0	0	
2	0	0	0	0	457	384	0	0	0	0	
3	0	0	0	0	493	416	0	0	0	0	
4	0	0	0	0	526	447	0	0	0	0	
5	0	0	0	0	555	474	0	0	0	0	
6	0	0	0	0	577	496	0	0	0	0	
7	0	0	0	0	592	512	0	0	0	0	
8	0	0	0	0	601	524	0	0	0	0	
9	0	0	0	0	603	529	0	0	0	0	
10	0	0	0	0	599	530	0	0	0	0	
11	0	0	0	0	591	526	0	0	0	0	
12	0	0	0	0	578	519	0	0	0	0	
13	0	0	0	0	564	510	0	0	0	0	
14	0	0	0	0	549	499	0	0	0	0	
15	0	0	0	0	535	488	0	0	0	0	
0	0	0	0	0	523	479	0	0	0	0	
1	0	0	0	0	514	472	0	0	0	0	
2	0	0	0	0	511	469	0	0	0	0	
3	0	0	0	0	511	469	0	0	0	0	
4	0	0	0	0	516	473	0	0	0	0	
5	0	0	0	0	525	480	0	0	0	0	
6	0	0	0	0	536	488	0	0	0	0	
7	0	0	0	0	548	497	0	0	0	0	
8	0	0	0	0	559	507	0	0	0	0	
9	0	0	0	0	569	515	0	0	0	0	
10	0	0	0	0	577	520	0	0	0	0	
11	0	0	0	0	580	522	0	0	0	0	
12	0	0	0	0	579	521	0	0	0	0	
13	0	0	0	0	573	515	0	0	0	0	
14	0	0	0	0	564	507	0	0	0	0	
15	0	0	0	0	552	496	0	0	0	0	
0	0	0	0	0	539	484	0	0	0	0	
1	0	0	0	0	524	472	0	0	0	0	
2	0	0	0	0	510	461	0	0	0	0	
3	0	0	0	0	500	452	0	0	0	0	
4	0	0	0	0	491	445	0	0	0	0	
5	0	0	0	0	486	440	0	0	0	0	
6	0	0	0	0	483	438	0	0	0	0	
7	0	0	0	0	482	437	0	0	0	0	
8	0	0	0	0	484	438	0	0	0	0	
9	0	0	0	0	487	440	0	0	0	0	
10	0	0	0	0	492	444	0	0	0	0	
11	0	0	0	0	497	449	0	0	0	0	
12	0	0	0	0	504	455	0	0	0	0	
13	0	0	0	0	512	463	0	0	0	0	
14	0	0	0	0	519	470	0	0	0	0	
15	0	0	0	0	527	477	0	0	0	0	
0	0	0	0	0	535	485	0	0	0	0	
1	0	0	0	0	543	492	0	0	0	0	
2	0	0	0	0	551	499	0	0	0	0	
3	0	0	0	0	557	506	0	0	0	0	
4	0	0	0	0	563	511	0	0	0	0	
5	0	0	0	0	567	515	0	0	0	0	
6	0	0	0	0	569	517	0	0	0	0	
7	0	0	0	0	571	519	0	0	0	0	
8	0	0	0	0	572	519	0	0	0	0	
9	0	0	0	0	572	520	0	0	0	0	
10	0	0	0	0	572	520	0	0	0	0	
11	0	0	0	0	570	519	0	0	0	0	
12	0	0	0	0	568	518	0	0	0	0	
13	0	0	0	0	565	515	0	0	0	0	
14	0	0	0	0	559	511	0	0	0	0	
15	0	0	0	0	553	506	0	0	0	0	
0	0	0	0	0	545	499	0	0	0	0	
1	0	0	0	0	537	493	0	0	0	0	
2	0	0	0	0	530	487	0	0	0	0	
3	0	0	0	0	523	480	0	0	0	0	
4	0	0	0	0	517	476	0	0	0	0	
5	0	0	0	0	513	473	0	0	0	0	
6	0	0	0	0	513	472	0	0	0	0	
7	0	0	0	0	515	474	0	0	0	0	
8	0	0	0	0	520	477	0	0	0	0	
9	0	0	0	0	525	480	0	0	0	0	
10	0	0	0	0	530	484	0	0	0	0	
11	0	0	0	0	536	487	0	0	0	0	
12	0	0	0	0	540	488	0	0	0	0	
13	0	0	0	0	543	490	0	0	0	0	
14	0	0	0	0	546	490	0	0	0	0	
15	0	0	0	0	548	490	0	0	0	0	
0	0	0	0	0	550	491	0	0	0	0	
1	0	0	0	0	552	492	0	0	0	0	
2	0	0	0	0	555	495	0	0	0	0	
3	0	0	0	0	558	497	0	0	0	0	
4	0	0	0	0	560	500	0	0	0	0	
5	0	0	0	0	563	504	0	0	0	0	
6	0	0	0	0	567	508	0	0	0	0	
7	0	0	0	0	571	512	0	0	0	0	
8	0	0	0	0	573	515	0	0	0	0	
9	0	0	0	0	573	516	0	0	0	0	
10	0	0	0	0	573	516	0	0	0	0	
11	0	0	0	0	570	514	0	0	0	0	
12	0	0	0	0	564	510	0	0	0	0	
13	0	0	0	0	558	504	0	0	0	0	
14	0	0	0	0	549	498	0	0	0	0	
15	0	0	0	0	540	491	0	0	0	0	
0	0	0	0	0	531	482	0	0	0	0	
1	0	0	0	0	520	473	0	0	0	0	
2	0	0	0	0	510	464	0	0	0	0	
3	0	0	0	0	500	456	0	0	0	0	
4	0	0	0	0	492	449	0	0	0	0	
5	0	0	0	0	487	444	0	0	0	0	
6	0	0	0	0	483	442	0	0	0	0	
7	0	0	0	0	483	441	0	0	0	0	
8	0	0	0	0	485	443	0	0	0	0	
9	0	0	0	0	490	447	0	0	0	0	
10	0	0	0	0	497	451	0	0	0	0	
11	0	0	0	0	505	457	0	0	0	0	
12	0	0	0	0	512	462	0	0	0	0	
13	0	0	0	0	519	467	0	0	0	0	
14	0	0	0	0	524	470	0	0	0	0	
15	0	0	0	0	528	472	0	0	0	0	
0	0	0	0	0	530	473	0	0	0	0	
1	0	0	0	0	530	472	0	0	0	0	
2	0	0	0	0	528	472	0	0	0	0	
3	0	0	0	0	526	470	0	0	0	0	
4	0	0	0	0	523	467	0	0	0	0	
5	0	0	0	0	520	465	0	0	0	0	
6	0	0	0	0	517	463	0	0	0	0	
7	0	0	0	0	514	462	0	0	0	0	
8	0	0	0	0	512	461	0	0	0	0	
9	0	0	0	0	512	461	0	0	0	0	
10	0	0	0	0	512	461	0	0	0	0	
11	0	0	0	0	514	463	0	0	0	0	
12	0	0	0	0	515	465	0	0	0	0	
13	0	0	0	0	518	468	0	0	0	0	
14	0	0	0	0	521	470	0	0	0	0	
15	0	0	0	0	524	473	0	0	0	0	
0	0	0	0	0	525	474	0	0	0	0	
1	0	0	0	0	525	475	0	0	0	0	
2	0	0	0	0	524	475	0	0	0	0	
3	0	0	0	0	524	474	0	0	0	0	
4	0	0	0	0	521	472	0	0	0	0	
5	0	0	0	0	518	470	0	0	0	0	
6	0	0	0	0	515	467	0	0	0	0	
7	0	0	0	0	510	463	0	0	0	0	
8	0	0	0	0	507	459	0	0	0	0	
9	0	0	0	0	503	455	0	0	0	0	
10	0	0	0	0	499	451	0	0	0	0	
11	0	0	0	0	496	448	0	0	0	0	
12	0	0	0	0	494	446	0	0	0	0	
13	0	0	0	0	493	445	0	0	0	0	
14	0	0	0	0	495	447	0	0	0	0	
15	0	0	0	0	498	450	0	0	0	0	
0	0	0	0	0	502	455	0	0	0	0	
1	0	0	0	0	509	462	0	0	0	0	
2	0	0	0	0	518	471	0	0	0	0	
3	0	0	0	0	528	480	0	0	0	0	
4	0	0	0	0	538	490	0	0	0	0	
5	0	0	0	0	548	499	0	0	0	0	
6	0	0	0	0	558	508	0	0	0	0	
7	0	0	0	0	566	515	0	0	0	0	
8	0	0	0	0	570	519	0	0	0	0	
9	0	0	0	0	572	520	0	0	0	0	
10	0	0	0	0	569	518	0	0	0	0	
11	0	0	0	0	563	513	0	0	0	0	
12	0	0	0	0	556	507	0	0	0	0	
13	0	0	0	0	546	498	0	0	0	0	
14	0	0	0	0	536	489	0	0	0	0	
15	0	0	0	0	526	480	0	0	0	0	
0	0	0	0	0	517	473	0	0	0	0	
1	0	0	0	0	510	467	0	0	0	0	
2	0	0	0	0	505	462	0	0	0	0	
3	0	0	0	0	504	460	0	0	0	0	
4	0	0	0	0	505	461	0	0	0	0	
5	0	0	0	0	510	463	0	0	0	0	
6	0	0	0	0	515	467	0	0	0	0	
7	0	0	0	0	521	472	0	0	0	0	
8	0	0	0	0	527	476	0	0	0	0	
9	0	0	0	0	531	478	0	0	0	0	
10	0	0	0	0	534	480	0	0	0	0	
11	0	0	0	0	534	480	0	0	0	0	
12	0	0	0	0	532	479	0	0	0	0	
13	0	0	0	0	529	477	0	0	0	0	
14	0	0	0	0	526	475	0	0	0	0	
15	0	0	0	0	521	471	0	0	0	0	
0	0	0	0	0	516	467	0	0	0	0	
1	0	0	0	0	511	464	0	0	0	0	
2	0	0	0	0	507	460	0	0	0	0	
3	0	0	0	0	503	457	0	0	0	0	
4	0	0	0	0	501	455	0	0	0	0	
5	0	0	0	0	500	452	0	0	0	0	
6	0	0	0	0	499	452	0	0	0	0	
7	0	0	0	0	501	451	0	0	0	0	
8	0	0	0	0	503	452	0	0	0	0	
9	0	0	0	0	506	454	0	0	0	0	
10	0	0	0	0	509	455	0	0	0	0	
11	0	0	0	0	512	457	0	0	0	0	
12	0	0	0	0	514	459	0	0	0	0	
13	0	0	0	0	515	460	0	0	0	0	
14	0	0	0	0	515	460	0	0	0	0	
15	0	0	0	0	513	460	0	0	0	0	
0	0	0	0	0	511	459	0	0	0	0	
1	0	0	0	0	507	457	0	0	0	0	
2	0	0	0	0	503	455	0	0	0	0	
3	0	0	0	0	498	452	0	0	0	0	
4	0	0	0	0	494	449	0	0	0	0	
5	0	0	0	0	491	446	0	0	0	0	
6	0	0	0	0	487	443	0	0	0	0	
7	0	0	0	0	485	440	0	0	0	0	
8	0	0	0	0	483	439	0	0	0	0	
9	0	0	0	0	484	438	0	0	0	0	
10	0	0	0	0	486	440	0	0	0	0	
11	0	0	0	0	488	441	0	0	0	0	
12	0	0	0	0	492	443	0	0	0	0	
13	0	0	0	0	497	446	0	0	0	0	
14	0	0	0	0	501	449	0	0	0	0	
15	0	0	0	0	504	452	0	0	0	0	
0	0	0	0	0	507	454	0	0	0	0	
1	0	0	0	0	508	454	0	0	0	0	
2	0	0	0	0	509	454	0	0	0	0	
3	0	0	0	0	508	454	0	0	0	0	
4	0	0	0	0	507	453	0	0	0	0	
5	0	0	0	0	505	451	0	0	0	0	
6	0	0	0	0	502	449	0	0	0	0	
7	0	0	0	0	499	446	0	0	0	0	
8	0	0	0	0	494	442	0	0	0	0	
9	0	0	0	0	488	437	0	0	0	0	
10	0	0	0	0	484	433	0	0	0	0	
11	0	0	0	0	479	430	0	0	0	0	
12	0	0	0	0	475	428	0	0	0	0	
13	0	0	0	0	473	427	0	0	0	0	
14	0	0	0	0	472	427	0	0	0	0	
15	0	0	0	0	473	429	0	0	0	0	
0	0	0	0	0	476	432	0	0	0	0	
1	0	0	0	0	480	437	0	0	0	0	
2	0	0	0	0	486	442	0	0	0	0	
3	0	0	0	0	492	448	0	0	0	0	
4	0	0	0	0	499	455	0	0	0	0	
5	0	0	0	0	507	461	0	0	0	0	
6	0	0	0	0	515	467	0	0	0	0	
7	0	0	0	0	523	473	0	0	0	0	
8	0	0	0	0	530	480	0	0	0	0	
9	0	0	0	0	536	484	0	0	0	0	
10	0	0	0	0	540	488	0	0	0	0	
11	0	0	0	0	543	491	0	0	0	0	
12	0	0	0	0	545	491	0	0	0	0	
13	0	0	0	0	544	490	0	0	0	0	
14	0	0	0	0	541	487	0	0	0	0	
15	0	0	0	0	536	482	0	0	0	0	
0	0	0	0	0	529	476	0	0	0	0	
1	0	0	0	0	521	469	0	0	0	0	
2	0	0	0	0	513	461	0	0	0	0	
3	0	0	0	0	504	454	0	0	0	0	
4	0	0	0	0	496	446	0	0	0	0	
5	0	0	0	0	487	439	0	0	0	0	
6	0	0	0	0	481	434	0	0	0	0	
7	0	0	0	0	476	430	0	0	0	0	
8	0	0	0	0	473	428	0	0	0	0	
9	0	0	0	0	473	428	0	0	0	0	
10	0	0	0	0	475	430	0	0	0	0	
11	0	0	0	0	481	434	0	0	0	0	
12	0	0	0	0	488	440	0	0	0	0	
13	0	0	0	0	498	447	0	0	0	0	
14	0	0	0	0	509	455	0	0	0	0	
15	0	0	0	0	519	463	0	0	0	0	
0	0	0	0	0	530	472	0	0	0	0	
1	0	0	0	0	539	478	0	0	0	0	
2	0	0	0	0	545	483	0	0	0	0	
3	0	0	0	0	548	485	0	0	0	0	
4	0	0	0	0	546	484	0	0	0	0	
5	0	0	0	0	543	483	0	0	0	0	
6	0	0	0	0	537	479	0	0	0	0	
7	0	0	0	0	531	475	0	0	0	0	
8	0	0	0	0	524	472	0	0	0	0	
9	0	0	0	0	518	470	0	0	0	0	
10	0	0	0	0	515	469	0	0	0	0	
11	0	0	0	0	514	471	0	0	0	0	
12	0	0	0	0	515	475	0	0	0	0	
13	0	0	0	0	520	479	0	0	0	0	
14	0	0	0	0	526	484	0	0	0	0	
15	0	0	0	0	532	490	0	0	0	0	
0	0	0	0	0	539	494	0	0	0	0	
1	0	0	0	0	543	496	0	0	0	0	
2	0	0	0	0	544	496	0	0	0	0	
3	0	0	0	0	543	493	0	0	0	0	
4	0	0	0	0	540	488	0	0	0	0	
5	0	0	0	0	532	481	0	0	0	0	
6	0	0	0	0	522	472	0	0	0	0	
7	0	0	0	0	509	461	0	0	0	0	
8	0	0	0	0	496	451	0	0	0	0	
9	0	0	0	0	484	440	0	0	0	0	
10	0	0	0	0	471	431	0	0	0	0	
11	0	0	0	0	460	422	0	0	0	0	
12	0	0	0	0	451	415	0	0	0	0	
13	0	0	0	0	445	411	0	0	0	0	
14	0	0	0	0	442	408	0	0	0	0	
15	0	0	0	0	443	408	0	0	0	0	
0	0	0	0	0	446	409	0	0	0	0	
1	0	0	0	0	451	414	0	0	0	0	
2	0	0	0	0	458	419	0	0	0	0	
3	0	0	0	0	468	425	0	0	0	0	
4	0	0	0	0	477	432	0	0	0	0	
5	0	0	0	0	487	437	0	0	0	0	
6	0	0	0	0	495	443	0	0	0	0	
7	0	0	0	0	502	447	0	0	0	0	
8	0	0	0	0	507	449	0	0	0	0	
9	0	0	0	0	510	451	0	0	0	0	
10	0	0	0	0	510	450	0	0	0	0	
11	0	0	0	0	508	448	0	0	0	0	
12	0	0	0	0	503	445	0	0	0	0	
13	0	0	0	0	499	441	0	0	0	0	
14	0	0	0	0	492	437	0	0	0	0	
15	0	0	0	0	486	433	0	0	0	0	
0	0	0	0	0	480	430	0	0	0	0	
1	0	0	0	0	476	428	0	0	0	0	
2	0	0	0	0	473	427	0	0	0	0	
3	0	0	0	0	472	428	0	0	0	0	
4	0	0	0	0	473	431	0	0	0	0	
5	0	0	0	0	476	435	0	0	0	0	
6	0	0	0	0	481	440	0	0	0	0	
7	0	0	0	0	488	447	0	0	0	0	
8	0	0	0	0	496	454	0	0	0	0	
9	0	0	0	0	504	461	0	0	0	0	
10	0	0	0	0	514	468	0	0	0	0	
11	0	0	0	0	523	475	0	0	0	0	
12	0	0	0	0	534	482	0	0	0	0	
13	0	0	0	0	543	489	0	0	0	0	
14	0	0	0	0	551	496	0	0	0	0	
15	0	0	0	0	560	502	0	0	0	0	
0	0	0	0	0	567	507	0	0	0	0	
1	0	0	0	0	572	511	0	0	0	0	
2	0	0	0	0	576	514	0	0	0	0	
3	0	0	0	0	578	516	0	0	0	0	
4	0	0	0	0	579	517	0	0	0	0	
5	0	0	0	0	578	518	0	0	0	0	
6	0	0	0	0	575	517	0	0	0	0	
7	0	0	0	0	571	515	0	0	0	0	
8	0	0	0	0	564	512	0	0	0	0	
9	0	0	0	0	555	506	0	0	0	0	
10	0	0	0	0	544	498	0	0	0	0	
11	0	0	0	0	531	489	0	0	0	0	
12	0	0	0	0	518	479	0	0	0	0	
13	0	0	0	0	504	468	0	0	0	0	
14	0	0	0	0	490	457	0	0	0	0	
15	0	0	0	0	478	447	0	0	0	0	
0	0	0	0	0	468	438	0	0	0	0	
1	0	0	0	0	461	431	0	0	0	0	
2	0	0	0	0	457	427	0	0	0	0	
3	0	0	0	0	455	424	0	0	0	0	
4	0	0	0	0	457	423	0	0	0	0	
5	0	0	0	0	462	424	0	0	0	0	
6	0	0	0	0	467	427	0	0	0	0	
7	0	0	0	0	473	430	0	0	0	0	
8	0	0	0	0	481	435	0	0	0	0	
9	0	0	0	0	490	441	0	0	0	0	
10	0	0	0	0	500	448	0	0	0	0	
11	0	0	0	0	511	456	0	0	0	0	
12	0	0	0	0	521	464	0	0	0	0	
13	0	0	0	0	530	472	0	0	0	0	
14	0	0	0	0	537	479	0	0	0	0	
15	0	0	0	0	543	483	0	0	0	0	
0	0	0	0	0	544	484	0	0	0	0	
1	0	0	0	0	542	483	0	0	0	0	
2	0	0	0	0	535	478	0	0	0	0	
3	0	0	0	0	527	472	0	0	0	0	
4	0	0	0	0	516	464	0	0	0	0	
5	0	0	0	0	504	455	0	0	0	0	
6	0	0	0	0	493	447	0	0	0	0	
7	0	0	0	0	481	439	0	0	0	0	
8	0	0	0	0	471	432	0	0	0	0	
9	0	0	0	0	463	426	0	0	0	0	
10	0	0	0	0	458	423	0	0	0	0	
11	0	0	0	0	456	421	0	0	0	0	
12	0	0	0	0	455	420	0	0	0	0	
13	0	0	0	0	457	422	0	0	0	0	
14	0	0	0	0	462	424	0	0	0	0	
15	0	0	0	0	468	428	0	0	0	0	
0	0	0	0	0	476	433	0	0	0	0	
1	0	0	0	0	484	439	0	0	0	0	
2	0	0	0	0	493	444	0	0	0	0	
3	0	0	0	0	503	451	0	0	0	0	
4	0	0	0	0	511	457	0	0	0	0	
5	0	0	0	0	517	461	0	0	0	0	
6	0	0	0	0	520	464	0	0	0	0	
7	0	0	0	0	523	465	0	0	0	0	
8	0	0	0	0	522	464	0	0	0	0	
9	0	0	0	0	519	461	0	0	0	0	
10	0	0	0	0	514	456	0	0	0	0	
11	0	0	0	0	508	452	0	0	0	0	
12	0	0	0	0	502	447	0	0	0	0	
13	0	0	0	0	497	444	0	0	0	0	
14	0	0	0	0	492	441	0	0	0	0	
15	0	0	0	0	490	440	0	0	0	0	
0	0	0	0	0	489	441	0	0	0	0	
1	0	0	0	0	492	445	0	0	0	0	
2	0	0	0	0	496	451	0	0	0	0	
3	0	0	0	0	504	457	0	0	0	0	
4	0	0	0	0	512	465	0	0	0	0	
5	0	0	0	0	522	474	0	0	0	0	
6	0	0	0	0	532	483	0	0	0	0	
7	0	0	0	0	543	492	0	0	0	0	
8	0	0	0	0	553	500	0	0	0	0	
9	0	0	0	0	562	508	0	0	0	0	
10	0	0	0	0	570	513	0	0	0	0	
11	0	0	0	0	577	518	0	0	0	0	
12	0	0	0	0	581	521	0	0	0	0	
13	0	0	0	0	583	523	0	0	0	0	
14	0	0	0	0	585	524	0	0	0	0	
15	0	0	0	0	584	523	0	0	0	0	
0	0	0	0	0	583	521	0	0	0	0	
1	0	0	0	0	578	517	0	0	0	0	
2	0	0	0	0	571	512	0	0	0	0	
3	0	0	0	0	561	505	0	0	0	0	
4	0	0	0	0	549	496	0	0	0	0	
5	0	0	0	0	536	487	0	0	0	0	
6	0	0	0	0	523	478	0	0	0	0	
7	0	0	0	0	510	468	0	0	0	0	
8	0	0	0	0	497	460	0	0	0	0	
9	0	0	0	0	486	452	0	0	0	0	
10	0	0	0	0	478	446	0	0	0	0	
11	0	0	0	0	472	441	0	0	0	0	
12	0	0	0	0	468	438	0	0	0	0	
13	0	0	0	0	468	437	0	0	0	0	
14	0	0	0	0	469	436	0	0	0	0	
15	0	0	0	0	475	438	0	0	0	0	
0	0	0	0	0	482	441	0	0	0	0	
1	0	0	0	0	491	446	0	0	0	0	
2	0	0	0	0	500	451	0	0	0	0	
3	0	0	0	0	510	456	0	0	0	0	
4	0	0	0	0	518	461	0	0	0	0	
5	0	0	0	0	525	465	0	0	0	0	
6	0	0	0	0	529	468	0	0	0	0	
7	0	0	0	0	532	471	0	0	0	0	
8	0	0	0	0	532	472	0	0	0	0	
9	0	0	0	0	531	472	0	0	0	0	
10	0	0	0	0	527	470	0	0	0	0	
11	0	0	0	0	522	467	0	0	0	0	
12	0	0	0	0	514	463	0	0	0	0	
13	0	0	0	0	504	457	0	0	0	0	
14	0	0	0	0	495	451	0	0	0	0	
15	0	0	0	0	485	444	0	0	0	0	
0	0	0	0	0	476	438	0	0	0	0	
1	0	0	0	0	470	432	0	0	0	0	
2	0	0	0	0	467	430	0	0	0	0	
3	0	0	0	0	469	431	0	0	0	0	
4	0	0	0	0	476	434	0	0	0	0	
5	0	0	0	0	486	441	0	0	0	0	
6	0	0	0	0	500	451	0	0	0	0	
7	0	0	0	0	516	463	0	0	0	0	
8	0	0	0	0	533	475	0	0	0	0	
9	0	0	0	0	550	487	0	0	0	0	
10	0	0	0	0	564	499	0	0	0	0	
11	0	0	0	0	576	508	0	0	0	0	
12	0	0	0	0	583	515	0	0	0	0	
13	0	0	0	0	587	519	0	0	0	0	
14	0	0	0	0	584	518	0	0	0	0	
15	0	0	0	0	577	513	0	0	0	0	
0	0	0	0	0	565	506	0	0	0	0	
1	0	0	0	0	550	495	0	0	0	0	
2	0	0	0	0	534	484	0	0	0	0	
3	0	0	0	0	517	473	0	0	0	0	
4	0	0	0	0	503	462	0	0	0	0	
5	0	0	0	0	490	453	0	0	0	0	
6	0	0	0	0	480	446	0	0	0	0	
7	0	0	0	0	474	440	0	0	0	0	
8	0	0	0	0	471	436	0	0	0	0	
9	0	0	0	0	471	435	0	0	0	0	
10	0	0	0	0	474	436	0	0	0	0	
11	0	0	0	0	479	438	0	0	0	0	
12	0	0	0	0	486	442	0	0	0	0	
13	0	0	0	0	495	447	0	0	0	0	
14	0	0	0	0	504	452	0	0	0	0	
15	0	0	0	0	512	458	0	0	0	0	
0	0	0	0	0	521	463	0	0	0	0	
1	0	0	0	0	528	469	0	0	0	0	
2	0	0	0	0	535	474	0	0	0	0	
3	0	0	0	0	538	476	0	0	0	0	
4	0	0	0	0	538	477	0	0	0	0	
5	0	0	0	0	535	476	0	0	0	0	
6	0	0	0	0	530	473	0	0	0	0	
7	0	0	0	0	524	469	0	0	0	0	
8	0	0	0	0	516	464	0	0	0	0	
9	0	0	0	0	509	460	0	0	0	0	
10	0	0	0	0	502	455	0	0	0	0	
11	0	0	0	0	496	452	0	0	0	0	
12	0	0	0	0	494	450	0	0	0	0	
13	0	0	0	0	492	449	0	0	0	0	
14	0	0	0	0	493	449	0	0	0	0	
15	0	0	0	0	495	450	0	0	0	0	
0	0	0	0	0	498	451	0	0	0	0	
1	0	0	0	0	502	453	0	0	0	0	
2	0	0	0	0	506	456	0	0	0	0	
3	0	0	0	0	510	459	0	0	0	0	
4	0	0	0	0	514	461	0	0	0	0	
5	0	0	0	0	516	463	0	0	0	0	
6	0	0	0	0	518	465	0	0	0	0	
7	0	0	0	0	519	465	0	0	0	0	
8	0	0	0	0	519	466	0	0	0	0	
9	0	0	0	0	517	465	0	0	0	0	
10	0	0	0	0	514	464	0	0	0	0	
11	0	0	0	0	511	462	0	0	0	0	
12	0	0	0	0	508	460	0	0	0	0	
13	0	0	0	0	505	457	0	0	0	0	
14	0	0	0	0	502	455	0	0	0	0	
15	0	0	0	0	499	453	0	0	0	0	
0	0	0	0	0	498	451	0	0	0	0	
1	0	0	0	0	498	451	0	0	0	0	
2	0	0	0	0	500	452	0	0	0	0	
3	0	0	0	0	503	453	0	0	0	0	
4	0	0	0	0	505	455	0	0	0	0	
5	0	0	0	0	509	456	0	0	0	0	
6	0	0	0	0	511	457	0	0	0	0	
7	0	0	0	0	511	456	0	0	0	0	
8	0	0	0	0	508	455	0	0	0	0	
9	0	0	0	0	504	451	0	0	0	0	
10	0	0	0	0	500	447	0	0	0	0	
11	0	0	0	0	495	442	0	0	0	0	
12	0	0	0	0	489	438	0	0	0	0	
13	0	0	0	0	486	435	0	0	0	0	
14	0	0	0	0	482	433	0	0	0	0	
15	0	0	0	0	482	434	0	0	0	0	
0	0	0	0	0	483	435	0	0	0	0	
1	0	0	0	0	487	439	0	0	0	0	
2	0	0	0	0	492	443	0	0	0	0	
3	0	0	0	0	499	449	0	0	0	0	
4	0	0	0	0	506	455	0	0	0	0	
5	0	0	0	0	511	459	0	0	0	0	
6	0	0	0	0	513	460	0	0	0	0	
7	0	0	0	0	511	458	0	0	0	0	
8	0	0	0	0	507	453	0	0	0	0	
9	0	0	0	0	498	446	0	0	0	0	
10	0	0	0	0	487	436	0	0	0	0	
11	0	0	0	0	474	424	0	0	0	0	
12	0	0	0	0	460	412	0	0	0	0	
13	0	0	0	0	445	400	0	0	0	0	
14	0	0	0	0	432	388	0	0	0	0	
15	0	0	0	0	419	376	0	0	0	0	
0	0	0	0	0	408	366	0	0	0	0	
1	0	0	0	0	398	356	0	0	0	0	
2	0	0	0	0	390	348	0	0	0	0	
3	0	0	0	0	382	340	0	0	0	0	
4	0	0	0	0	375	332	0	0	0	0	
5	0	0	0	0	367	323	0	0	0	0	
6	0	0	0	0	356	311	0	0	0	0	
7	0	0	0	0	343	296	0	0	0	0	
8	0	0	0	0	327	279	0	0	0	0	
9	0	0	0	0	307	260	0	0	0	0	
10	0	0	0	0	287	240	0	0	0	0	
11	0	0	0	0	267	220	0	0	0	0	
12	0	0	0	0	247	202	0	0	0	0	
13	0	0	0	0	232	188	0	0	0	0	
14	0	0	0	0	222	179	0	0	0	0	
15	0	0	0	0	219	177	0	0	0	0	
0	0	0	0	0	222	180	0	0	0	0	
1	0	0	0	0	233	189	0	0	0	0	
2	0	0	0	0	250	204	0	0	0	0	
3	0	0	0	0	272	223	0	0	0	0	
4	0	0	0	0	298	245	0	0	0	0	
5	0	0	0	0	327	269	0	0	0	0	
6	0	0	0	0	357	295	0	0	0	0	
7	0	0	0	0	389	321	0	0	0	0	
8	0	0	0	0	420	348	0	0	0	0	
9	0	0	0	0	449	374	0	0	0	0	
10	0	0	0	0	476	398	0	0	0	0	
11	0	0	0	0	498	420	0	0	0	0	
12	0	0	0	0	519	440	0	0	0	0	
13	0	0	0	0	534	456	0	0	0	0	
14	0	0	0	0	545	470	0	0	0	0	
15	0	0	0	0	551	479	0	0	0	0	
0	0	0	0	0	553	485	0	0	0	0	
1	0	0	0	0	552	488	0	0	0	0	
2	0	0	0	0	548	489	0	0	0	0	
3	0	0	0	0	542	487	0	0	0	0	
4	0	0	0	0	535	485	0	0	0	0	
5	0	0	0	0	527	481	0	0	0	0	
6	0	0	0	0	519	478	0	0	0	0	
7	0	0	0	0	512	473	0	0	0	0	
8	0	0	0	0	507	470	0	0	0	0	
9	0	0	0	0	503	467	0	0	0	0	
10	0	0	0	0	500	464	0	0	0	0	
11	0	0	0	0	500	462	0	0	0	0	
12	0	0	0	0	502	462	0	0	0	0	
13	0	0	0	0	505	462	0	0	0	0	
14	0	0	0	0	509	463	0	0	0	0	
15	0	0	0	0	513	464	0	0	0	0	
0	0	0	0	0	518	465	0	0	0	0	
1	0	0	0	0	523	467	0	0	0	0	
2	0	0	0	0	527	469	0	0	0	0	
3	0	0	0	0	531	471	0	0	0	0	
4	0	0	0	0	533	472	0	0	0	0	
5	0	0	0	0	536	473	0	0	0	0	
6	0	0	0	0	537	474	0	0	0	0	
7	0	0	0	0	539	476	0	0	0	0	
8	0	0	0	0	540	479	0	0	0	0	
9	0	0	0	0	541	483	0	0	0	0	
10	0	0	0	0	544	487	0	0	0	0	
11	0	0	0	0	547	492	0	0	0	0	
12	0	0	0	0	550	497	0	0	0	0	
13	0	0	0	0	552	500	0	0	0	0	
14	0	0	0	0	553	503	0	0	0	0	
15	0	0	0	0	553	504	0	0	0	0	
0	0	0	0	0	552	504	0	0	0	0	
1	0	0	0	0	551	503	0	0	0	0	
2	0	0	0	0	548	501	0	0	0	0	
3	0	0	0	0	545	499	0	0	0	0	
4	0	0	0	0	543	495	0	0	0	0	
5	0	0	0	0	539	491	0	0	0	0	
6	0	0	0	0	536	487	0	0	0	0	
7	0	0	0	0	532	483	0	0	0	0	
8	0	0	0	0	529	479	0	0	0	0	
9	0	0	0	0	527	476	0	0	0	0	
10	0	0	0	0	526	473	0	0	0	0	
11	0	0	0	0	525	472	0	0	0	0	
12	0	0	0	0	524	472	0	0	0	0	
13	0	0	0	0	525	473	0	0	0	0	
14	0	0	0	0	527	476	0	0	0	0	
15	0	0	0	0	532	481	0	0	0	0	
0	0	0	0	0	537	486	0	0	0	0	
1	0	0	0	0	542	491	0	0	0	0	
2	0	0	0	0	546	496	0	0	0	0	
3	0	0	0	0	551	500	0	0	0	0	
4	0	0	0	0	555	503	0	0	0	0	
5	0	0	0	0	558	505	0	0	0	0	
6	0	0	0	0	560	507	0	0	0	0	
7	0	0	0	0	562	508	0	0	0	0	
8	0	0	0	0	564	508	0	0	0	0	
9	0	0	0	0	566	508	0	0	0	0	
10	0	0	0	0	566	508	0	0	0	0	
11	0	0	0	0	568	508	0	0	0	0	
12	0	0	0	0	568	509	0	0	0	0	
13	0	0	0	0	569	509	0	0	0	0	
14	0	0	0	0	569	509	0	0	0	0	
15	0	0	0	0	568	509	0	0	0	0	
0	0	0	0	0	567	509	0	0	0	0	
1	0	0	0	0	564	510	0	0	0	0	
2	0	0	0	0	562	509	0	0	0	0	
3	0	0	0	0	558	508	0	0	0	0	
4	0	0	0	0	552	505	0	0	0	0	
5	0	0	0	0	545	500	0	0	0	0	
6	0	0	0	0	536	493	0	0	0	0	
7	0	0	0	0	525	484	0	0	0	0	
8	0	0	0	0	513	475	0	0	0	0	
9	0	0	0	0	503	465	0	0	0	0	
10	0	0	0	0	493	456	0	0	0	0	
11	0	0	0	0	484	448	0	0	0	0	
12	0	0	0	0	480	442	0	0	0	0	
13	0	0	0	0	477	438	0	0	0	0	
14	0	0	0	0	478	437	0	0	0	0	
15	0	0	0	0	482	438	0	0	0	0	
0	0	0	0	0	488	441	0	0	0	0	
1	0	0	0	0	497	447	0	0	0	0	
2	0	0	0	0	505	452	0	0	0	0	
3	0	0	0	0	514	459	0	0	0	0	
4	0	0	0	0	522	464	0	0	0	0	
5	0	0	0	0	529	470	0	0	0	0	
6	0	0	0	0	535	475	0	0	0	0	
7	0	0	0	0	540	479	0	0	0	0	
8	0	0	0	0	542	482	0	0	0	0	
9	0	0	0	0	542	484	0	0	0	0	
10	0	0	0	0	542	485	0	0	0	0	
11	0	0	0	0	540	484	0	0	0	0	
12	0	0	0	0	536	482	0	0	0	0	
13	0	0	0	0	531	480	0	0	0	0	
14	0	0	0	0	527	478	0	0	0	0	
15	0	0	0	0	521	476	0	0	0	0	
0	0	0	0	0	518	474	0	0	0	0	
1	0	0	0	0	515	472	0	0	0	0	
2	0	0	0	0	511	469	0	0	0	0	
3	0	0	0	0	508	465	0	0	0	0	
4	0	0	0	0	505	462	0	0	0	0	
5	0	0	0	0	502	459	0	0	0	0	
6	0	0	0	0	500	455	0	0	0	0	
7	0	0	0	0	499	453	0	0	0	0	
8	0	0	0	0	499	451	0	0	0	0	
9	0	0	0	0	499	449	0	0	0	0	
10	0	0	0	0	500	449	0	0	0	0	
11	0	0	0	0	502	450	0	0	0	0	
12	0	0	0	0	504	452	0	0	0	0	
13	0	0	0	0	508	454	0	0	0	0	
14	0	0	0	0	511	457	0	0	0	0	
15	0	0	0	0	516	461	0	0	0	0	
0	0	0	0	0	520	465	0	0	0	0	
1	0	0	0	0	524	469	0	0	0	0	
2	0	0	0	0	528	473	0	0	0	0	
3	0	0	0	0	531	476	0	0	0	0	
4	0	0	0	0	535	480	0	0	0	0	
5	0	0	0	0	536	481	0	0	0	0	
6	0	0	0	0	535	481	0	0	0	0	
7	0	0	0	0	533	479	0	0	0	0	
8	0	0	0	0	528	476	0	0	0	0	
9	0	0	0	0	524	472	0	0	0	0	
10	0	0	0	0	518	468	0	0	0	0	
11	0	0	0	0	513	464	0	0	0	0	
12	0	0	0	0	509	461	0	0	0	0	
13	0	0	0	0	505	459	0	0	0	0	
14	0	0	0	0	505	458	0	0	0	0	
15	0	0	0	0	505	458	0	0	0	0	
0	0	0	0	0	507	460	0	0	0	0	
1	0	0	0	0	511	462	0	0	0	0	
2	0	0	0	0	515	466	0	0	0	0	
3	0	0	0	0	522	471	0	0	0	0	
4	0	0	0	0	528	475	0	0	0	0	
5	0	0	0	0	535	479	0	0	0	0	
6	0	0	0	0	540	482	0	0	0	0	
7	0	0	0	0	545	484	0	0	0	0	
8	0	0	0	0	547	485	0	0	0	0	
9	0	0	0	0	548	484	0	0	0	0	
10	0	0	0	0	546	483	0	0	0	0	
11	0	0	0	0	543	480	0	0	0	0	
12	0	0	0	0	540	479	0	0	0	0	
13	0	0	0	0	537	479	0	0	0	0	
14	0	0	0	0	537	480	0	0	0	0	
15	0	0	0	0	539	484	0	0	0	0	
0	0	0	0	0	543	489	0	0	0	0	
1	0	0	0	0	548	497	0	0	0	0	
2	0	0	0	0	556	504	0	0	0	0	
3	0	0	0	0	563	511	0	0	0	0	
4	0	0	0	0	568	516	0	0	0	0	
5	0	0	0	0	573	519	0	0	0	0	
6	0	0	0	0	574	520	0	0	0	0	
7	0	0	0	0	571	518	0	0	0	0	
8	0	0	0	0	566	512	0	0	0	0	
9	0	0	0	0	557	505	0	0	0	0	
10	0	0	0	0	546	496	0	0	0	0	
11	0	0	0	0	533	486	0	0	0	0	
12	0	0	0	0	520	475	0	0	0	0	
13	0	0	0	0	507	464	0	0	0	0	
14	0	0	0	0	494	454	0	0	0	0	
15	0	0	0	0	481	444	0	0	0	0	
0	0	0	0	0	472	435	0	0	0	0	
1	0	0	0	0	465	430	0	0	0	0	
2	0	0	0	0	461	427	0	0	0	0	
3	0	0	0	0	460	425	0	0	0	0	
4	0	0	0	0	463	428	0	0	0	0	
5	0	0	0	0	468	431	0	0	0	0	
6	0	0	0	0	476	437	0	0	0	0	
7	0	0	0	0	484	443	0	0	0	0	
8	0	0	0	0	494	450	0	0	0	0	
9	0	0	0	0	503	457	0	0	0	0	
10	0	0	0	0	512	464	0	0	0	0	
11	0	0	0	0	520	470	0	0	0	0	
12	0	0	0	0	526	474	0	0	0	0	
13	0	0	0	0	531	478	0	0	0	0	
14	0	0	0	0	534	481	0	0	0	0	
15	0	0	0	0	534	482	0	0	0	0	
0	0	0	0	0	534	482	0	0	0	0	
1	0	0	0	0	533	481	0	0	0	0	
2	0	0	0	0	530	480	0	0	0	0	
3	0	0	0	0	527	478	0	0	0	0	
4	0	0	0	0	523	475	0	0	0	0	
5	0	0	0	0	519	473	0	0	0	0	
6	0	0	0	0	515	470	0	0	0	0	
7	0	0	0	0	512	468	0	0	0	0	
8	0	0	0	0	510	466	0	0	0	0	
9	0	0	0	0	508	465	0	0	0	0	
10	0	0	0	0	508	465	0	0	0	0	
11	0	0	0	0	508	465	0	0	0	0	
12	0	0	0	0	510	466	0	0	0	0	
13	0	0	0	0	512	467	0	0	0	0	
14	0	0	0	0	515	469	0	0	0	0	
15	0	0	0	0	518	471	0	0	0	0	
0	0	0	0	0	519	471	0	0	0	0	
1	0	0	0	0	520	470	0	0	0	0	
2	0	0	0	0	518	467	0	0	0	0	
3	0	0	0	0	515	463	0	0	0	0	
4	0	0	0	0	511	459	0	0	0	0	
5	0	0	0	0	506	455	0	0	0	0	
6	0	0	0	0	502	451	0	0	0	0	
7	0	0	0	0	498	448	0	0	0	0	
8	0	0	0	0	496	447	0	0	0	0	
9	0	0	0	0	497	449	0	0	0	0	
10	0	0	0	0	500	452	0	0	0	0	
11	0	0	0	0	505	456	0	0	0	0	
12	0	0	0	0	510	461	0	0	0	0	
13	0	0	0	0	517	467	0	0	0	0	
14	0	0	0	0	523	472	0	0	0	0	
15	0	0	0	0	527	477	0	0	0	0	
0	0	0	0	0	531	480	0	0	0	0	
1	0	0	0	0	532	481	0	0	0	0	
2	0	0	0	0	533	482	0	0	0	0	
3	0	0	0	0	531	481	0	0	0	0	
4	0	0	0	0	528	479	0	0	0	0	
5	0	0	0	0	525	476	0	0	0	0	
6	0	0	0	0	521	474	0	0	0	0	
7	0	0	0	0	519	472	0	0	0	0	
8	0	0	0	0	516	470	0	0	0	0	
9	0	0	0	0	516	468	0	0	0	0	
10	0	0	0	0	516	468	0	0	0	0	
11	0	0	0	0	516	468	0	0	0	0	
12	0	0	0	0	518	470	0	0	0	0	
13	0	0	0	0	521	471	0	0	0	0	
14	0	0	0	0	523	473	0	0	0	0	
15	0	0	0	0	524	474	0	0	0	0	
0	0	0	0	0	524	474	0	0	0	0	
1	0	0	0	0	524	473	0	0	0	0	
2	0	0	0	0	522	472	0	0	0	0	
3	0	0	0	0	519	470	0	0	0	0	
4	0	0	0	0	516	467	0	0	0	0	
5	0	0	0	0	513	465	0	0	0	0	
6	0	0	0	0	511	463	0	0	0	0	
7	0	0	0	0	508	462	0	0	0	0	
8	0	0	0	0	507	461	0	0	0	0	
9	0	0	0	0	505	460	0	0	0	0	
10	0	0	0	0	503	457	0	0	0	0	
11	0	0	0	0	500	455	0	0	0	0	
12	0	0	0	0	497	451	0	0	0	0	
13	0	0	0	0	494	448	0	0	0	0	
14	0	0	0	0	492	444	0	0	0	0	
15	0	0	0	0	489	441	0	0	0	0	
0	0	0	0	0	487	440	0	0	0	0	
1	0	0	0	0	488	439	0	0	0	0	
2	0	0	0	0	490	440	0	0	0	0	
3	0	0	0	0	493	443	0	0	0	0	
4	0	0	0	0	497	446	0	0	0	0	
5	0	0	0	0	502	451	0	0	0	0	
6	0	0	0	0	507	455	0	0	0	0	
7	0	0	0	0	512	460	0	0	0	0	
8	0	0	0	0	517	464	0	0	0	0	
9	0	0	0	0	522	468	0	0	0	0	
10	0	0	0	0	526	472	0	0	0	0	
11	0	0	0	0	530	476	0	0	0	0	
12	0	0	0	0	533	480	0	0	0	0	
13	0	0	0	0	535	481	0	0	0	0	
14	0	0	0	0	535	483	0	0	0	0	
15	0	0	0	0	534	483	0	0	0	0	
0	0	0	0	0	531	482	0	0	0	0	
1	0	0	0	0	527	480	0	0	0	0	
2	0	0	0	0	522	476	0	0	0	0	
3	0	0	0	0	516	472	0	0	0	0	
4	0	0	0	0	511	467	0	0	0	0	
5	0	0	0	0	507	463	0	0	0	0	
6	0	0	0	0	503	459	0	0	0	0	
7	0	0	0	0	502	457	0	0	0	0	
8	0	0	0	0	501	455	0	0	0	0	
9	0	0	0	0	503	456	0	0	0	0	
10	0	0	0	0	506	457	0	0	0	0	
11	0	0	0	0	510	459	0	0	0	0	
12	0	0	0	0	513	460	0	0	0	0	
13	0	0	0	0	514	461	0	0	0	0	
14	0	0	0	0	516	462	0	0	0	0	
15	0	0	0	0	515	461	0	0	0	0	
0	0	0	0	0	513	460	0	0	0	0	
1	0	0	0	0	511	457	0	0	0	0	
2	0	0	0	0	507	455	0	0	0	0	
3	0	0	0	0	504	454	0	0	0	0	
4	0	0	0	0	500	452	0	0	0	0	
5	0	0	0	0	498	451	0	0	0	0	
6	0	0	0	0	496	451	0	0	0	0	
7	0	0	0	0	496	452	0	0	0	0	
8	0	0	0	0	496	453	0	0	0	0	
9	0	0	0	0	498	454	0	0	0	0	
10	0	0	0	0	499	455	0	0	0	0	
11	0	0	0	0	500	455	0	0	0	0	
12	0	0	0	0	502	457	0	0	0	0	
13	0	0	0	0	504	457	0	0	0	0	
14	0	0	0	0	507	458	0	0	0	0	
15	0	0	0	0	510	460	0	0	0	0	
0	0	0	0	0	513	462	0	0	0	0	
1	0	0	0	0	517	465	0	0	0	0	
2	0	0	0	0	522	469	0	0	0	0	
3	0	0	0	0	526	473	0	0	0	0	
4	0	0	0	0	531	478	0	0	0	0	
5	0	0	0	0	536	482	0	0	0	0	
6	0	0	0	0	540	486	0	0	0	0	
7	0	0	0	0	544	490	0	0	0	0	
8	0	0	0	0	547	493	0	0	0	0	
9	0	0	0	0	549	495	0	0	0	0	
10	0	0	0	0	549	495	0	0	0	0	
11	0	0	0	0	546	494	0	0	0	0	
12	0	0	0	0	544	492	0	0	0	0	
13	0	0	0	0	540	488	0	0	0	0	
14	0	0	0	0	535	484	0	0	0	0	
