# OpenSignals Text File Format. Version 1
# {"": {"position": 0, "device": "", "device name": "", "device connection": "", "sampling rate": 1000, "resolution": [4, 1, 1, 1, 1, 10, 10, 10, 10, 6, 6], "firmware version": 1281, "comments": "", "keywords": "", "mode": 0, "sync interval": 2, "date": "", "time": "", "channels": [1, 2, 3, 4, 5, 6], "sensor": ["RAW", "RAW", "RAW", "RAW", "RAW", "RAW"], "label": ["A1", "A2", "A3", "A4", "A5", "A6"], "column": ["nSeq", "I1", "I2", "O1", "O2", "A1", "A2", "A3", "A4", "A5", "A6"], "special": [{}, {}, {}, {}, {}, {}], "digital IO": [0, 0, 1, 1]}}
# EndOfHeader
0	0	0	0	0	531	499	0	0	0	0	
1	0	0	0	0	532	499	0	0	0	0	
2	0	0	0	0	532	498	0	0	0	0	
3	0	0	0	0	532	498	0	0	0	0	
4	0	0	0	0	532	498	0	0	0	0	
5	0	0	0	0	532	498	0	0	0	0	
6	0	0	0	0	532	499	0	0	0	0	
7	0	0	0	0	532	499	0	0	0	0	
8	0	0	0	0	532	499	0	0	0	0	
9	0	0	0	0	533	500	0	0	0	0	
10	0	0	0	0	533	501	0	0	0	0	
11	0	0	0	0	534	502	0	0	0	0	
12	0	0	0	0	533	503	0	0	0	0	
13	0	0	0	0	534	503	0	0	0	0	
14	0	0	0	0	535	504	0	0	0	0	
15	0	0	0	0	535	504	0	0	0	0	
0	0	0	0	0	536	504	0	0	0	0	
1	0	0	0	0	536	504	0	0	0	0	
2	0	0	0	0	538	504	0	0	0	0	
3	0	0	0	0	540	506	0	0	0	0	
4	0	0	0	0	543	508	0	0	0	0	
5	0	0	0	0	546	510	0	0	0	0	
6	0	0	0	0	549	514	0	0	0	0	
7	0	0	0	0	553	518	0	0	0	0	
8	0	0	0	0	557	521	0	0	0	0	
9	0	0	0	0	560	525	0	0	0	0	
10	0	0	0	0	563	529	0	0	0	0	
11	0	0	0	0	565	531	0	0	0	0	
12	0	0	0	0	565	532	0	0	0	0	
13	0	0	0	0	565	533	0	0	0	0	
14	0	0	0	0	563	532	0	0	0	0	
15	0	0	0	0	560	530	0	0	0	0	
0	0	0	0	0	556	527	0	0	0	0	
1	0	0	0	0	551	524	0	0	0	0	
2	0	0	0	0	547	520	0	0	0	0	
3	0	0	0	0	544	518	0	0	0	0	
4	0	0	0	0	541	515	0	0	0	0	
5	0	0	0	0	540	514	0	0	0	0	
6	0	0	0	0	539	513	0	0	0	0	
7	0	0	0	0	540	514	0	0	0	0	
8	0	0	0	0	540	514	0	0	0	0	
9	0	0	0	0	541	514	0	0	0	0	
10	0	0	0	0	542	515	0	0	0	0	
11	0	0	0	0	543	515	0	0	0	0	
12	0	0	0	0	545	516	0	0	0	0	
13	0	0	0	0	547	517	0	0	0	0	
14	0	0	0	0	549	518	0	0	0	0	
15	0	0	0	0	551	519	0	0	0	0	
0	0	0	0	0	553	521	0	0	0	0	
1	0	0	0	0	555	522	0	0	0	0	
2	0	0	0	0	556	523	0	0	0	0	
3	0	0	0	0	556	522	0	0	0	0	
4	0	0	0	0	554	521	0	0	0	0	
5	0	0	0	0	551	518	0	0	0	0	
6	0	0	0	0	547	514	0	0	0	0	
7	0	0	0	0	543	510	0	0	0	0	
8	0	0	0	0	538	506	0	0	0	0	
9	0	0	0	0	535	504	0	0	0	0	
10	0	0	0	0	533	503	0	0	0	0	
11	0	0	0	0	533	503	0	0	0	0	
12	0	0	0	0	534	504	0	0	0	0	
13	0	0	0	0	535	505	0	0	0	0	
14	0	0	0	0	536	507	0	0	0	0	
15	0	0	0	0	537	510	0	0	0	0	
0	0	0	0	0	539	512	0	0	0	0	
1	0	0	0	0	540	515	0	0	0	0	
2	0	0	0	0	543	517	0	0	0	0	
3	0	0	0	0	544	519	0	0	0	0	
4	0	0	0	0	545	520	0	0	0	0	
5	0	0	0	0	547	520	0	0	0	0	
6	0	0	0	0	547	519	0	0	0	0	
7	0	0	0	0	547	518	0	0	0	0	
8	0	0	0	0	545	515	0	0	0	0	
9	0	0	0	0	543	511	0	0	0	0	
10	0	0	0	0	540	507	0	0	0	0	
11	0	0	0	0	536	502	0	0	0	0	
12	0	0	0	0	532	498	0	0	0	0	
13	0	0	0	0	529	494	0	0	0	0	
14	0	0	0	0	527	491	0	0	0	0	
15	0	0	0	0	525	490	0	0	0	0	
0	0	0	0	0	524	489	0	0	0	0	
1	0	0	0	0	525	491	0	0	0	0	
2	0	0	0	0	526	492	0	0	0	0	
3	0	0	0	0	527	495	0	0	0	0	
4	0	0	0	0	530	498	0	0	0	0	
5	0	0	0	0	532	500	0	0	0	0	
6	0	0	0	0	534	502	0	0	0	0	
7	0	0	0	0	535	504	0	0	0	0	
8	0	0	0	0	536	504	0	0	0	0	
9	0	0	0	0	536	504	0	0	0	0	
10	0	0	0	0	536	504	0	0	0	0	
11	0	0	0	0	536	503	0	0	0	0	
12	0	0	0	0	535	501	0	0	0	0	
13	0	0	0	0	533	500	0	0	0	0	
14	0	0	0	0	532	499	0	0	0	0	
15	0	0	0	0	532	498	0	0	0	0	
0	0	0	0	0	532	499	0	0	0	0	
1	0	0	0	0	532	499	0	0	0	0	
2	0	0	0	0	534	500	0	0	0	0	
3	0	0	0	0	536	503	0	0	0	0	
4	0	0	0	0	538	506	0	0	0	0	
5	0	0	0	0	541	510	0	0	0	0	
6	0	0	0	0	544	515	0	0	0	0	
7	0	0	0	0	548	520	0	0	0	0	
8	0	0	0	0	553	525	0	0	0	0	
9	0	0	0	0	556	529	0	0	0	0	
10	0	0	0	0	558	532	0	0	0	0	
11	0	0	0	0	559	534	0	0	0	0	
12	0	0	0	0	556	534	0	0	0	0	
13	0	0	0	0	555	532	0	0	0	0	
14	0	0	0	0	550	528	0	0	0	0	
15	0	0	0	0	544	522	0	0	0	0	
0	0	0	0	0	537	515	0	0	0	0	
1	0	0	0	0	530	507	0	0	0	0	
2	0	0	0	0	523	499	0	0	0	0	
3	0	0	0	0	516	492	0	0	0	0	
4	0	0	0	0	511	485	0	0	0	0	
5	0	0	0	0	507	481	0	0	0	0	
6	0	0	0	0	506	479	0	0	0	0	
7	0	0	0	0	509	480	0	0	0	0	
8	0	0	0	0	514	484	0	0	0	0	
9	0	0	0	0	520	489	0	0	0	0	
10	0	0	0	0	530	497	0	0	0	0	
11	0	0	0	0	539	504	0	0	0	0	
12	0	0	0	0	549	512	0	0	0	0	
13	0	0	0	0	557	518	0	0	0	0	
14	0	0	0	0	564	524	0	0	0	0	
15	0	0	0	0	568	527	0	0	0	0	
0	0	0	0	0	570	528	0	0	0	0	
1	0	0	0	0	569	527	0	0	0	0	
2	0	0	0	0	566	525	0	0	0	0	
3	0	0	0	0	560	521	0	0	0	0	
4	0	0	0	0	553	516	0	0	0	0	
5	0	0	0	0	545	511	0	0	0	0	
6	0	0	0	0	538	507	0	0	0	0	
7	0	0	0	0	532	502	0	0	0	0	
8	0	0	0	0	527	500	0	0	0	0	
9	0	0	0	0	525	499	0	0	0	0	
10	0	0	0	0	524	499	0	0	0	0	
11	0	0	0	0	527	502	0	0	0	0	
12	0	0	0	0	531	507	0	0	0	0	
13	0	0	0	0	537	511	0	0	0	0	
14	0	0	0	0	542	516	0	0	0	0	
15	0	0	0	0	546	519	0	0	0	0	
0	0	0	0	0	549	521	0	0	0	0	
1	0	0	0	0	550	520	0	0	0	0	
2	0	0	0	0	548	519	0	0	0	0	
3	0	0	0	0	545	515	0	0	0	0	
4	0	0	0	0	539	510	0	0	0	0	
5	0	0	0	0	532	504	0	0	0	0	
6	0	0	0	0	524	496	0	0	0	0	
7	0	0	0	0	515	488	0	0	0	0	
8	0	0	0	0	507	481	0	0	0	0	
9	0	0	0	0	500	475	0	0	0	0	
10	0	0	0	0	496	470	0	0	0	0	
11	0	0	0	0	492	466	0	0	0	0	
12	0	0	0	0	491	464	0	0	0	0	
13	0	0	0	0	491	463	0	0	0	0	
14	0	0	0	0	495	465	0	0	0	0	
15	0	0	0	0	499	468	0	0	0	0	
0	0	0	0	0	505	472	0	0	0	0	
1	0	0	0	0	513	479	0	0	0	0	
2	0	0	0	0	521	486	0	0	0	0	
3	0	0	0	0	528	492	0	0	0	0	
4	0	0	0	0	536	499	0	0	0	0	
5	0	0	0	0	542	505	0	0	0	0	
6	0	0	0	0	547	510	0	0	0	0	
7	0	0	0	0	551	513	0	0	0	0	
8	0	0	0	0	552	515	0	0	0	0	
9	0	0	0	0	552	516	0	0	0	0	
10	0	0	0	0	551	516	0	0	0	0	
11	0	0	0	0	549	514	0	0	0	0	
12	0	0	0	0	545	511	0	0	0	0	
13	0	0	0	0	541	508	0	0	0	0	
14	0	0	0	0	537	505	0	0	0	0	
15	0	0	0	0	532	502	0	0	0	0	
0	0	0	0	0	529	499	0	0	0	0	
1	0	0	0	0	526	497	0	0	0	0	
2	0	0	0	0	524	496	0	0	0	0	
3	0	0	0	0	524	497	0	0	0	0	
4	0	0	0	0	526	499	0	0	0	0	
5	0	0	0	0	528	502	0	0	0	0	
6	0	0	0	0	532	505	0	0	0	0	
7	0	0	0	0	537	510	0	0	0	0	
8	0	0	0	0	543	514	0	0	0	0	
9	0	0	0	0	548	519	0	0	0	0	
10	0	0	0	0	551	522	0	0	0	0	
11	0	0	0	0	555	524	0	0	0	0	
12	0	0	0	0	556	525	0	0	0	0	
13	0	0	0	0	557	525	0	0	0	0	
14	0	0	0	0	556	524	0	0	0	0	
15	0	0	0	0	554	521	0	0	0	0	
0	0	0	0	0	551	519	0	0	0	0	
1	0	0	0	0	548	516	0	0	0	0	
2	0	0	0	0	546	514	0	0	0	0	
3	0	0	0	0	544	512	0	0	0	0	
4	0	0	0	0	542	510	0	0	0	0	
5	0	0	0	0	540	510	0	0	0	0	
6	0	0	0	0	540	508	0	0	0	0	
7	0	0	0	0	540	507	0	0	0	0	
8	0	0	0	0	540	507	0	0	0	0	
9	0	0	0	0	540	507	0	0	0	0	
10	0	0	0	0	540	507	0	0	0	0	
11	0	0	0	0	539	506	0	0	0	0	
12	0	0	0	0	538	504	0	0	0	0	
13	0	0	0	0	535	502	0	0	0	0	
14	0	0	0	0	531	498	0	0	0	0	
15	0	0	0	0	524	492	0	0	0	0	
0	0	0	0	0	517	486	0	0	0	0	
1	0	0	0	0	508	477	0	0	0	0	
2	0	0	0	0	497	467	0	0	0	0	
3	0	0	0	0	485	456	0	0	0	0	
4	0	0	0	0	472	444	0	0	0	0	
5	0	0	0	0	459	432	0	0	0	0	
6	0	0	0	0	447	419	0	0	0	0	
7	0	0	0	0	434	407	0	0	0	0	
8	0	0	0	0	422	395	0	0	0	0	
9	0	0	0	0	409	382	0	0	0	0	
10	0	0	0	0	398	371	0	0	0	0	
11	0	0	0	0	387	359	0	0	0	0	
12	0	0	0	0	376	348	0	0	0	0	
13	0	0	0	0	365	337	0	0	0	0	
14	0	0	0	0	354	326	0	0	0	0	
15	0	0	0	0	345	317	0	0	0	0	
0	0	0	0	0	336	308	0	0	0	0	
1	0	0	0	0	328	301	0	0	0	0	
2	0	0	0	0	323	295	0	0	0	0	
3	0	0	0	0	319	291	0	0	0	0	
4	0	0	0	0	319	291	0	0	0	0	
5	0	0	0	0	322	292	0	0	0	0	
6	0	0	0	0	328	296	0	0	0	0	
7	0	0	0	0	337	303	0	0	0	0	
8	0	0	0	0	347	312	0	0	0	0	
9	0	0	0	0	359	321	0	0	0	0	
10	0	0	0	0	372	331	0	0	0	0	
11	0	0	0	0	385	341	0	0	0	0	
12	0	0	0	0	399	352	0	0	0	0	
13	0	0	0	0	412	364	0	0	0	0	
14	0	0	0	0	427	377	0	0	0	0	
15	0	0	0	0	442	391	0	0	0	0	
0	0	0	0	0	458	407	0	0	0	0	
1	0	0	0	0	474	423	0	0	0	0	
2	0	0	0	0	490	440	0	0	0	0	
3	0	0	0	0	506	457	0	0	0	0	
4	0	0	0	0	521	473	0	0	0	0	
5	0	0	0	0	535	488	0	0	0	0	
6	0	0	0	0	546	501	0	0	0	0	
7	0	0	0	0	555	511	0	0	0	0	
8	0	0	0	0	562	519	0	0	0	0	
9	0	0	0	0	567	525	0	0	0	0	
10	0	0	0	0	569	527	0	0	0	0	
11	0	0	0	0	569	528	0	0	0	0	
12	0	0	0	0	567	526	0	0	0	0	
13	0	0	0	0	564	523	0	0	0	0	
14	0	0	0	0	560	519	0	0	0	0	
15	0	0	0	0	555	515	0	0	0	0	
0	0	0	0	0	550	511	0	0	0	0	
1	0	0	0	0	546	508	0	0	0	0	
2	0	0	0	0	544	507	0	0	0	0	
3	0	0	0	0	543	507	0	0	0	0	
4	0	0	0	0	545	508	0	0	0	0	
5	0	0	0	0	547	511	0	0	0	0	
6	0	0	0	0	550	514	0	0	0	0	
7	0	0	0	0	554	518	0	0	0	0	
8	0	0	0	0	557	522	0	0	0	0	
9	0	0	0	0	560	525	0	0	0	0	
10	0	0	0	0	561	526	0	0	0	0	
11	0	0	0	0	562	527	0	0	0	0	
12	0	0	0	0	560	526	0	0	0	0	
13	0	0	0	0	558	523	0	0	0	0	
14	0	0	0	0	553	519	0	0	0	0	
15	0	0	0	0	549	514	0	0	0	0	
0	0	0	0	0	544	510	0	0	0	0	
1	0	0	0	0	539	505	0	0	0	0	
2	0	0	0	0	535	501	0	0	0	0	
3	0	0	0	0	532	499	0	0	0	0	
4	0	0	0	0	531	498	0	0	0	0	
5	0	0	0	0	532	498	0	0	0	0	
6	0	0	0	0	535	501	0	0	0	0	
7	0	0	0	0	539	505	0	0	0	0	
8	0	0	0	0	544	510	0	0	0	0	
9	0	0	0	0	551	516	0	0	0	0	
10	0	0	0	0	557	522	0	0	0	0	
11	0	0	0	0	564	529	0	0	0	0	
12	0	0	0	0	571	535	0	0	0	0	
13	0	0	0	0	576	539	0	0	0	0	
14	0	0	0	0	580	543	0	0	0	0	
15	0	0	0	0	582	544	0	0	0	0	
0	0	0	0	0	582	545	0	0	0	0	
1	0	0	0	0	582	545	0	0	0	0	
2	0	0	0	0	580	544	0	0	0	0	
3	0	0	0	0	578	543	0	0	0	0	
4	0	0	0	0	576	542	0	0	0	0	
5	0	0	0	0	575	541	0	0	0	0	
6	0	0	0	0	574	540	0	0	0	0	
7	0	0	0	0	572	539	0	0	0	0	
8	0	0	0	0	571	537	0	0	0	0	
9	0	0	0	0	569	535	0	0	0	0	
10	0	0	0	0	567	533	0	0	0	0	
11	0	0	0	0	564	531	0	0	0	0	
12	0	0	0	0	560	528	0	0	0	0	
13	0	0	0	0	557	526	0	0	0	0	
14	0	0	0	0	553	524	0	0	0	0	
15	0	0	0	0	551	523	0	0	0	0	
0	0	0	0	0	549	521	0	0	0	0	
1	0	0	0	0	547	521	0	0	0	0	
2	0	0	0	0	546	520	0	0	0	0	
3	0	0	0	0	545	519	0	0	0	0	
4	0	0	0	0	545	520	0	0	0	0	
5	0	0	0	0	547	521	0	0	0	0	
6	0	0	0	0	548	521	0	0	0	0	
7	0	0	0	0	550	522	0	0	0	0	
8	0	0	0	0	552	524	0	0	0	0	
9	0	0	0	0	555	524	0	0	0	0	
10	0	0	0	0	558	526	0	0	0	0	
11	0	0	0	0	561	527	0	0	0	0	
12	0	0	0	0	563	528	0	0	0	0	
13	0	0	0	0	564	528	0	0	0	0	
14	0	0	0	0	565	530	0	0	0	0	
15	0	0	0	0	565	529	0	0	0	0	
0	0	0	0	0	564	529	0	0	0	0	
1	0	0	0	0	563	527	0	0	0	0	
2	0	0	0	0	561	527	0	0	0	0	
3	0	0	0	0	558	525	0	0	0	0	
4	0	0	0	0	556	524	0	0	0	0	
5	0	0	0	0	554	522	0	0	0	0	
6	0	0	0	0	552	520	0	0	0	0	
7	0	0	0	0	551	519	0	0	0	0	
8	0	0	0	0	550	517	0	0	0	0	
9	0	0	0	0	550	516	0	0	0	0	
10	0	0	0	0	550	515	0	0	0	0	
11	0	0	0	0	551	514	0	0	0	0	
12	0	0	0	0	552	515	0	0	0	0	
13	0	0	0	0	556	516	0	0	0	0	
14	0	0	0	0	559	519	0	0	0	0	
15	0	0	0	0	563	522	0	0	0	0	
0	0	0	0	0	567	526	0	0	0	0	
1	0	0	0	0	570	529	0	0	0	0	
2	0	0	0	0	572	532	0	0	0	0	
3	0	0	0	0	573	534	0	0	0	0	
4	0	0	0	0	572	535	0	0	0	0	
5	0	0	0	0	570	534	0	0	0	0	
6	0	0	0	0	566	532	0	0	0	0	
7	0	0	0	0	561	529	0	0	0	0	
8	0	0	0	0	556	526	0	0	0	0	
9	0	0	0	0	551	522	0	0	0	0	
10	0	0	0	0	545	518	0	0	0	0	
11	0	0	0	0	541	513	0	0	0	0	
12	0	0	0	0	537	510	0	0	0	0	
13	0	0	0	0	534	506	0	0	0	0	
14	0	0	0	0	532	503	0	0	0	0	
15	0	0	0	0	531	500	0	0	0	0	
0	0	0	0	0	531	499	0	0	0	0	
1	0	0	0	0	531	499	0	0	0	0	
2	0	0	0	0	533	499	0	0	0	0	
3	0	0	0	0	536	500	0	0	0	0	
4	0	0	0	0	539	502	0	0	0	0	
5	0	0	0	0	542	504	0	0	0	0	
6	0	0	0	0	545	507	0	0	0	0	
7	0	0	0	0	550	510	0	0	0	0	
8	0	0	0	0	553	514	0	0	0	0	
9	0	0	0	0	557	518	0	0	0	0	
10	0	0	0	0	560	521	0	0	0	0	
11	0	0	0	0	562	524	0	0	0	0	
12	0	0	0	0	564	526	0	0	0	0	
13	0	0	0	0	564	527	0	0	0	0	
14	0	0	0	0	563	527	0	0	0	0	
15	0	0	0	0	561	526	0	0	0	0	
0	0	0	0	0	559	525	0	0	0	0	
1	0	0	0	0	556	523	0	0	0	0	
2	0	0	0	0	554	521	0	0	0	0	
3	0	0	0	0	551	519	0	0	0	0	
4	0	0	0	0	549	517	0	0	0	0	
5	0	0	0	0	547	515	0	0	0	0	
6	0	0	0	0	547	514	0	0	0	0	
7	0	0	0	0	545	513	0	0	0	0	
8	0	0	0	0	546	512	0	0	0	0	
9	0	0	0	0	546	512	0	0	0	0	
10	0	0	0	0	547	512	0	0	0	0	
11	0	0	0	0	549	513	0	0	0	0	
12	0	0	0	0	551	514	0	0	0	0	
13	0	0	0	0	553	516	0	0	0	0	
14	0	0	0	0	554	517	0	0	0	0	
15	0	0	0	0	553	517	0	0	0	0	
0	0	0	0	0	553	516	0	0	0	0	
1	0	0	0	0	550	515	0	0	0	0	
2	0	0	0	0	547	512	0	0	0	0	
3	0	0	0	0	541	508	0	0	0	0	
4	0	0	0	0	536	504	0	0	0	0	
5	0	0	0	0	531	500	0	0	0	0	
6	0	0	0	0	526	495	0	0	0	0	
7	0	0	0	0	521	491	0	0	0	0	
8	0	0	0	0	519	488	0	0	0	0	
9	0	0	0	0	516	486	0	0	0	0	
10	0	0	0	0	516	486	0	0	0	0	
11	0	0	0	0	518	486	0	0	0	0	
12	0	0	0	0	521	489	0	0	0	0	
13	0	0	0	0	527	493	0	0	0	0	
14	0	0	0	0	532	498	0	0	0	0	
15	0	0	0	0	539	504	0	0	0	0	
0	0	0	0	0	547	511	0	0	0	0	
1	0	0	0	0	553	518	0	0	0	0	
2	0	0	0	0	560	524	0	0	0	0	
3	0	0	0	0	565	529	0	0	0	0	
4	0	0	0	0	569	534	0	0	0	0	
5	0	0	0	0	572	536	0	0	0	0	
6	0	0	0	0	572	537	0	0	0	0	
7	0	0	0	0	571	536	0	0	0	0	
8	0	0	0	0	567	533	0	0	0	0	
9	0	0	0	0	564	529	0	0	0	0	
10	0	0	0	0	559	524	0	0	0	0	
11	0	0	0	0	552	517	0	0	0	0	
12	0	0	0	0	546	511	0	0	0	0	
13	0	0	0	0	539	504	0	0	0	0	
14	0	0	0	0	532	497	0	0	0	0	
15	0	0	0	0	526	491	0	0	0	0	
0	0	0	0	0	519	486	0	0	0	0	
1	0	0	0	0	513	480	0	0	0	0	
2	0	0	0	0	508	476	0	0	0	0	
3	0	0	0	0	505	473	0	0	0	0	
4	0	0	0	0	503	472	0	0	0	0	
5	0	0	0	0	502	472	0	0	0	0	
6	0	0	0	0	502	472	0	0	0	0	
7	0	0	0	0	504	475	0	0	0	0	
8	0	0	0	0	508	478	0	0	0	0	
9	0	0	0	0	513	482	0	0	0	0	
10	0	0	0	0	519	487	0	0	0	0	
11	0	0	0	0	524	491	0	0	0	0	
12	0	0	0	0	530	495	0	0	0	0	
13	0	0	0	0	535	498	0	0	0	0	
14	0	0	0	0	539	501	0	0	0	0	
15	0	0	0	0	541	503	0	0	0	0	
0	0	0	0	0	543	504	0	0	0	0	
1	0	0	0	0	544	505	0	0	0	0	
2	0	0	0	0	545	505	0	0	0	0	
3	0	0	0	0	546	506	0	0	0	0	
4	0	0	0	0	545	506	0	0	0	0	
5	0	0	0	0	545	506	0	0	0	0	
6	0	0	0	0	544	506	0	0	0	0	
7	0	0	0	0	543	505	0	0	0	0	
8	0	0	0	0	542	504	0	0	0	0	
9	0	0	0	0	539	502	0	0	0	0	
10	0	0	0	0	536	500	0	0	0	0	
11	0	0	0	0	532	497	0	0	0	0	
12	0	0	0	0	528	494	0	0	0	0	
13	0	0	0	0	523	491	0	0	0	0	
14	0	0	0	0	519	487	0	0	0	0	
15	0	0	0	0	514	483	0	0	0	0	
0	0	0	0	0	509	480	0	0	0	0	
1	0	0	0	0	506	477	0	0	0	0	
2	0	0	0	0	504	475	0	0	0	0	
3	0	0	0	0	502	473	0	0	0	0	
4	0	0	0	0	501	472	0	0	0	0	
5	0	0	0	0	502	472	0	0	0	0	
6	0	0	0	0	503	473	0	0	0	0	
7	0	0	0	0	506	474	0	0	0	0	
8	0	0	0	0	508	476	0	0	0	0	
9	0	0	0	0	511	477	0	0	0	0	
10	0	0	0	0	514	479	0	0	0	0	
11	0	0	0	0	517	480	0	0	0	0	
12	0	0	0	0	520	483	0	0	0	0	
13	0	0	0	0	524	485	0	0	0	0	
14	0	0	0	0	527	487	0	0	0	0	
15	0	0	0	0	529	489	0	0	0	0	
0	0	0	0	0	532	491	0	0	0	0	
1	0	0	0	0	534	493	0	0	0	0	
2	0	0	0	0	537	496	0	0	0	0	
3	0	0	0	0	539	499	0	0	0	0	
4	0	0	0	0	541	501	0	0	0	0	
5	0	0	0	0	543	504	0	0	0	0	
6	0	0	0	0	545	505	0	0	0	0	
7	0	0	0	0	546	507	0	0	0	0	
8	0	0	0	0	546	508	0	0	0	0	
9	0	0	0	0	545	508	0	0	0	0	
10	0	0	0	0	544	508	0	0	0	0	
11	0	0	0	0	542	507	0	0	0	0	
12	0	0	0	0	539	505	0	0	0	0	
13	0	0	0	0	535	503	0	0	0	0	
14	0	0	0	0	532	500	0	0	0	0	
15	0	0	0	0	529	498	0	0	0	0	
0	0	0	0	0	526	496	0	0	0	0	
1	0	0	0	0	523	493	0	0	0	0	
2	0	0	0	0	521	492	0	0	0	0	
3	0	0	0	0	520	491	0	0	0	0	
4	0	0	0	0	520	490	0	0	0	0	
5	0	0	0	0	520	489	0	0	0	0	
6	0	0	0	0	521	489	0	0	0	0	
7	0	0	0	0	521	488	0	0	0	0	
8	0	0	0	0	523	488	0	0	0	0	
9	0	0	0	0	524	487	0	0	0	0	
10	0	0	0	0	524	487	0	0	0	0	
11	0	0	0	0	525	486	0	0	0	0	
12	0	0	0	0	525	484	0	0	0	0	
13	0	0	0	0	524	483	0	0	0	0	
14	0	0	0	0	524	481	0	0	0	0	
15	0	0	0	0	524	480	0	0	0	0	
0	0	0	0	0	522	477	0	0	0	0	
1	0	0	0	0	519	475	0	0	0	0	
2	0	0	0	0	517	473	0	0	0	0	
3	0	0	0	0	515	471	0	0	0	0	
4	0	0	0	0	513	471	0	0	0	0	
5	0	0	0	0	512	471	0	0	0	0	
6	0	0	0	0	512	473	0	0	0	0	
7	0	0	0	0	512	476	0	0	0	0	
8	0	0	0	0	515	480	0	0	0	0	
9	0	0	0	0	519	484	0	0	0	0	
10	0	0	0	0	523	489	0	0	0	0	
11	0	0	0	0	526	494	0	0	0	0	
12	0	0	0	0	528	496	0	0	0	0	
13	0	0	0	0	530	498	0	0	0	0	
14	0	0	0	0	531	498	0	0	0	0	
15	0	0	0	0	529	496	0	0	0	0	
0	0	0	0	0	527	494	0	0	0	0	
1	0	0	0	0	525	491	0	0	0	0	
2	0	0	0	0	523	488	0	0	0	0	
3	0	0	0	0	519	485	0	0	0	0	
4	0	0	0	0	517	482	0	0	0	0	
5	0	0	0	0	516	481	0	0	0	0	
6	0	0	0	0	515	480	0	0	0	0	
7	0	0	0	0	515	480	0	0	0	0	
8	0	0	0	0	517	482	0	0	0	0	
9	0	0	0	0	519	483	0	0	0	0	
10	0	0	0	0	521	486	0	0	0	0	
11	0	0	0	0	524	489	0	0	0	0	
12	0	0	0	0	528	493	0	0	0	0	
13	0	0	0	0	531	496	0	0	0	0	
14	0	0	0	0	534	498	0	0	0	0	
15	0	0	0	0	535	499	0	0	0	0	
0	0	0	0	0	535	499	0	0	0	0	
1	0	0	0	0	535	499	0	0	0	0	
2	0	0	0	0	532	497	0	0	0	0	
3	0	0	0	0	530	494	0	0	0	0	
4	0	0	0	0	526	491	0	0	0	0	
5	0	0	0	0	522	487	0	0	0	0	
6	0	0	0	0	518	482	0	0	0	0	
7	0	0	0	0	512	477	0	0	0	0	
8	0	0	0	0	507	472	0	0	0	0	
9	0	0	0	0	503	468	0	0	0	0	
10	0	0	0	0	499	465	0	0	0	0	
11	0	0	0	0	497	464	0	0	0	0	
12	0	0	0	0	496	463	0	0	0	0	
13	0	0	0	0	497	464	0	0	0	0	
14	0	0	0	0	500	467	0	0	0	0	
15	0	0	0	0	505	472	0	0	0	0	
0	0	0	0	0	512	477	0	0	0	0	
1	0	0	0	0	519	484	0	0	0	0	
2	0	0	0	0	528	492	0	0	0	0	
3	0	0	0	0	537	499	0	0	0	0	
4	0	0	0	0	544	505	0	0	0	0	
5	0	0	0	0	551	511	0	0	0	0	
6	0	0	0	0	556	515	0	0	0	0	
7	0	0	0	0	560	517	0	0	0	0	
8	0	0	0	0	560	518	0	0	0	0	
9	0	0	0	0	560	518	0	0	0	0	
10	0	0	0	0	557	515	0	0	0	0	
11	0	0	0	0	552	512	0	0	0	0	
12	0	0	0	0	546	507	0	0	0	0	
13	0	0	0	0	539	502	0	0	0	0	
14	0	0	0	0	532	497	0	0	0	0	
15	0	0	0	0	526	492	0	0	0	0	
0	0	0	0	0	520	488	0	0	0	0	
1	0	0	0	0	516	484	0	0	0	0	
2	0	0	0	0	513	481	0	0	0	0	
3	0	0	0	0	511	479	0	0	0	0	
4	0	0	0	0	510	479	0	0	0	0	
5	0	0	0	0	511	479	0	0	0	0	
6	0	0	0	0	513	480	0	0	0	0	
7	0	0	0	0	515	481	0	0	0	0	
8	0	0	0	0	519	483	0	0	0	0	
9	0	0	0	0	522	485	0	0	0	0	
10	0	0	0	0	525	487	0	0	0	0	
11	0	0	0	0	527	488	0	0	0	0	
12	0	0	0	0	528	489	0	0	0	0	
13	0	0	0	0	529	490	0	0	0	0	
14	0	0	0	0	530	491	0	0	0	0	
15	0	0	0	0	531	491	0	0	0	0	
0	0	0	0	0	531	492	0	0	0	0	
1	0	0	0	0	531	492	0	0	0	0	
2	0	0	0	0	532	493	0	0	0	0	
3	0	0	0	0	533	494	0	0	0	0	
4	0	0	0	0	535	496	0	0	0	0	
5	0	0	0	0	536	497	0	0	0	0	
6	0	0	0	0	537	499	0	0	0	0	
7	0	0	0	0	539	500	0	0	0	0	
8	0	0	0	0	540	502	0	0	0	0	
9	0	0	0	0	540	503	0	0	0	0	
10	0	0	0	0	540	503	0	0	0	0	
11	0	0	0	0	539	502	0	0	0	0	
12	0	0	0	0	538	501	0	0	0	0	
13	0	0	0	0	537	500	0	0	0	0	
14	0	0	0	0	535	498	0	0	0	0	
15	0	0	0	0	534	497	0	0	0	0	
0	0	0	0	0	531	495	0	0	0	0	
1	0	0	0	0	530	493	0	0	0	0	
2	0	0	0	0	529	491	0	0	0	0	
3	0	0	0	0	527	490	0	0	0	0	
4	0	0	0	0	526	488	0	0	0	0	
5	0	0	0	0	524	487	0	0	0	0	
6	0	0	0	0	524	487	0	0	0	0	
7	0	0	0	0	523	486	0	0	0	0	
8	0	0	0	0	523	486	0	0	0	0	
9	0	0	0	0	522	486	0	0	0	0	
10	0	0	0	0	522	486	0	0	0	0	
11	0	0	0	0	522	487	0	0	0	0	
12	0	0	0	0	523	488	0	0	0	0	
13	0	0	0	0	524	491	0	0	0	0	
14	0	0	0	0	527	493	0	0	0	0	
15	0	0	0	0	529	496	0	0	0	0	
0	0	0	0	0	531	498	0	0	0	0	
1	0	0	0	0	533	499	0	0	0	0	
2	0	0	0	0	533	499	0	0	0	0	
3	0	0	0	0	532	498	0	0	0	0	
4	0	0	0	0	531	496	0	0	0	0	
5	0	0	0	0	529	495	0	0	0	0	
6	0	0	0	0	527	492	0	0	0	0	
7	0	0	0	0	525	490	0	0	0	0	
8	0	0	0	0	524	489	0	0	0	0	
9	0	0	0	0	523	488	0	0	0	0	
10	0	0	0	0	525	490	0	0	0	0	
11	0	0	0	0	527	492	0	0	0	0	
12	0	0	0	0	532	496	0	0	0	0	
13	0	0	0	0	538	502	0	0	0	0	
14	0	0	0	0	544	508	0	0	0	0	
15	0	0	0	0	551	514	0	0	0	0	
0	0	0	0	0	558	520	0	0	0	0	
1	0	0	0	0	562	524	0	0	0	0	
2	0	0	0	0	565	527	0	0	0	0	
3	0	0	0	0	566	527	0	0	0	0	
4	0	0	0	0	564	528	0	0	0	0	
5	0	0	0	0	561	526	0	0	0	0	
6	0	0	0	0	557	524	0	0	0	0	
7	0	0	0	0	551	519	0	0	0	0	
8	0	0	0	0	543	514	0	0	0	0	
9	0	0	0	0	536	508	0	0	0	0	
10	0	0	0	0	527	500	0	0	0	0	
11	0	0	0	0	520	494	0	0	0	0	
12	0	0	0	0	512	486	0	0	0	0	
13	0	0	0	0	506	480	0	0	0	0	
14	0	0	0	0	502	475	0	0	0	0	
15	0	0	0	0	499	471	0	0	0	0	
0	0	0	0	0	499	470	0	0	0	0	
1	0	0	0	0	500	469	0	0	0	0	
2	0	0	0	0	503	471	0	0	0	0	
3	0	0	0	0	507	473	0	0	0	0	
4	0	0	0	0	512	477	0	0	0	0	
5	0	0	0	0	518	481	0	0	0	0	
6	0	0	0	0	524	486	0	0	0	0	
7	0	0	0	0	529	490	0	0	0	0	
8	0	0	0	0	533	494	0	0	0	0	
9	0	0	0	0	536	497	0	0	0	0	
10	0	0	0	0	537	498	0	0	0	0	
11	0	0	0	0	537	499	0	0	0	0	
12	0	0	0	0	536	499	0	0	0	0	
13	0	0	0	0	534	497	0	0	0	0	
14	0	0	0	0	531	496	0	0	0	0	
15	0	0	0	0	529	494	0	0	0	0	
0	0	0	0	0	526	492	0	0	0	0	
1	0	0	0	0	523	489	0	0	0	0	
2	0	0	0	0	520	487	0	0	0	0	
3	0	0	0	0	518	486	0	0	0	0	
4	0	0	0	0	517	485	0	0	0	0	
5	0	0	0	0	518	486	0	0	0	0	
6	0	0	0	0	519	487	0	0	0	0	
7	0	0	0	0	521	489	0	0	0	0	
8	0	0	0	0	524	492	0	0	0	0	
9	0	0	0	0	527	495	0	0	0	0	
10	0	0	0	0	530	497	0	0	0	0	
11	0	0	0	0	533	499	0	0	0	0	
12	0	0	0	0	534	500	0	0	0	0	
13	0	0	0	0	536	500	0	0	0	0	
14	0	0	0	0	536	500	0	0	0	0	
15	0	0	0	0	536	500	0	0	0	0	
0	0	0	0	0	536	499	0	0	0	0	
1	0	0	0	0	535	499	0	0	0	0	
2	0	0	0	0	534	499	0	0	0	0	
3	0	0	0	0	534	499	0	0	0	0	
4	0	0	0	0	534	500	0	0	0	0	
5	0	0	0	0	535	501	0	0	0	0	
6	0	0	0	0	536	504	0	0	0	0	
7	0	0	0	0	539	507	0	0	0	0	
8	0	0	0	0	542	510	0	0	0	0	
9	0	0	0	0	545	513	0	0	0	0	
10	0	0	0	0	548	516	0	0	0	0	
11	0	0	0	0	550	519	0	0	0	0	
12	0	0	0	0	552	521	0	0	0	0	
13	0	0	0	0	553	522	0	0	0	0	
14	0	0	0	0	553	523	0	0	0	0	
15	0	0	0	0	551	521	0	0	0	0	
0	0	0	0	0	550	519	0	0	0	0	
1	0	0	0	0	547	517	0	0	0	0	
2	0	0	0	0	543	515	0	0	0	0	
3	0	0	0	0	540	512	0	0	0	0	
4	0	0	0	0	538	511	0	0	0	0	
5	0	0	0	0	537	511	0	0	0	0	
6	0	0	0	0	537	511	0	0	0	0	
7	0	0	0	0	539	512	0	0	0	0	
8	0	0	0	0	541	514	0	0	0	0	
9	0	0	0	0	544	515	0	0	0	0	
10	0	0	0	0	546	516	0	0	0	0	
11	0	0	0	0	549	518	0	0	0	0	
12	0	0	0	0	550	517	0	0	0	0	
13	0	0	0	0	551	516	0	0	0	0	
14	0	0	0	0	550	515	0	0	0	0	
15	0	0	0	0	547	513	0	0	0	0	
0	0	0	0	0	545	511	0	0	0	0	
1	0	0	0	0	542	509	0	0	0	0	
2	0	0	0	0	539	508	0	0	0	0	
3	0	0	0	0	536	506	0	0	0	0	
4	0	0	0	0	534	504	0	0	0	0	
5	0	0	0	0	531	502	0	0	0	0	
6	0	0	0	0	528	499	0	0	0	0	
7	0	0	0	0	525	496	0	0	0	0	
8	0	0	0	0	520	492	0	0	0	0	
9	0	0	0	0	515	487	0	0	0	0	
10	0	0	0	0	511	483	0	0	0	0	
11	0	0	0	0	505	478	0	0	0	0	
12	0	0	0	0	500	472	0	0	0	0	
13	0	0	0	0	495	468	0	0	0	0	
14	0	0	0	0	491	464	0	0	0	0	
15	0	0	0	0	488	462	0	0	0	0	
0	0	0	0	0	487	461	0	0	0	0	
1	0	0	0	0	488	461	0	0	0	0	
2	0	0	0	0	490	463	0	0	0	0	
3	0	0	0	0	495	467	0	0	0	0	
4	0	0	0	0	501	472	0	0	0	0	
5	0	0	0	0	508	476	0	0	0	0	
6	0	0	0	0	515	482	0	0	0	0	
7	0	0	0	0	521	487	0	0	0	0	
8	0	0	0	0	528	492	0	0	0	0	
9	0	0	0	0	534	496	0	0	0	0	
10	0	0	0	0	539	499	0	0	0	0	
11	0	0	0	0	542	501	0	0	0	0	
12	0	0	0	0	544	502	0	0	0	0	
13	0	0	0	0	544	502	0	0	0	0	
14	0	0	0	0	544	502	0	0	0	0	
15	0	0	0	0	543	501	0	0	0	0	
0	0	0	0	0	540	499	0	0	0	0	
1	0	0	0	0	538	498	0	0	0	0	
2	0	0	0	0	535	497	0	0	0	0	
3	0	0	0	0	533	497	0	0	0	0	
4	0	0	0	0	531	497	0	0	0	0	
5	0	0	0	0	530	497	0	0	0	0	
6	0	0	0	0	529	498	0	0	0	0	
7	0	0	0	0	529	499	0	0	0	0	
8	0	0	0	0	530	500	0	0	0	0	
9	0	0	0	0	531	501	0	0	0	0	
10	0	0	0	0	532	502	0	0	0	0	
11	0	0	0	0	533	502	0	0	0	0	
12	0	0	0	0	533	502	0	0	0	0	
13	0	0	0	0	534	502	0	0	0	0	
14	0	0	0	0	534	501	0	0	0	0	
15	0	0	0	0	534	500	0	0	0	0	
0	0	0	0	0	533	499	0	0	0	0	
1	0	0	0	0	534	498	0	0	0	0	
2	0	0	0	0	535	497	0	0	0	0	
3	0	0	0	0	536	497	0	0	0	0	
4	0	0	0	0	537	497	0	0	0	0	
5	0	0	0	0	539	498	0	0	0	0	
6	0	0	0	0	540	500	0	0	0	0	
7	0	0	0	0	543	502	0	0	0	0	
8	0	0	0	0	544	504	0	0	0	0	
9	0	0	0	0	546	507	0	0	0	0	
10	0	0	0	0	547	508	0	0	0	0	
11	0	0	0	0	547	510	0	0	0	0	
12	0	0	0	0	547	512	0	0	0	0	
13	0	0	0	0	546	513	0	0	0	0	
14	0	0	0	0	545	513	0	0	0	0	
15	0	0	0	0	542	513	0	0	0	0	
0	0	0	0	0	540	512	0	0	0	0	
1	0	0	0	0	538	510	0	0	0	0	
2	0	0	0	0	536	509	0	0	0	0	
3	0	0	0	0	535	508	0	0	0	0	
4	0	0	0	0	535	507	0	0	0	0	
5	0	0	0	0	536	507	0	0	0	0	
6	0	0	0	0	538	507	0	0	0	0	
7	0	0	0	0	541	508	0	0	0	0	
8	0	0	0	0	545	511	0	0	0	0	
9	0	0	0	0	550	513	0	0	0	0	
10	0	0	0	0	553	516	0	0	0	0	
11	0	0	0	0	558	518	0	0	0	0	
12	0	0	0	0	559	518	0	0	0	0	
13	0	0	0	0	559	517	0	0	0	0	
14	0	0	0	0	557	514	0	0	0	0	
15	0	0	0	0	552	510	0	0	0	0	
0	0	0	0	0	545	505	0	0	0	0	
1	0	0	0	0	537	499	0	0	0	0	
2	0	0	0	0	527	492	0	0	0	0	
3	0	0	0	0	516	483	0	0	0	0	
4	0	0	0	0	504	474	0	0	0	0	
5	0	0	0	0	493	465	0	0	0	0	
6	0	0	0	0	482	456	0	0	0	0	
7	0	0	0	0	471	446	0	0	0	0	
8	0	0	0	0	461	437	0	0	0	0	
9	0	0	0	0	451	428	0	0	0	0	
10	0	0	0	0	443	419	0	0	0	0	
11	0	0	0	0	435	410	0	0	0	0	
12	0	0	0	0	426	401	0	0	0	0	
13	0	0	0	0	417	391	0	0	0	0	
14	0	0	0	0	407	380	0	0	0	0	
15	0	0	0	0	396	368	0	0	0	0	
0	0	0	0	0	383	355	0	0	0	0	
1	0	0	0	0	370	342	0	0	0	0	
2	0	0	0	0	355	328	0	0	0	0	
3	0	0	0	0	340	315	0	0	0	0	
4	0	0	0	0	326	302	0	0	0	0	
5	0	0	0	0	313	290	0	0	0	0	
6	0	0	0	0	302	280	0	0	0	0	
7	0	0	0	0	294	272	0	0	0	0	
8	0	0	0	0	288	268	0	0	0	0	
9	0	0	0	0	288	267	0	0	0	0	
10	0	0	0	0	292	269	0	0	0	0	
11	0	0	0	0	300	275	0	0	0	0	
12	0	0	0	0	313	284	0	0	0	0	
13	0	0	0	0	329	296	0	0	0	0	
14	0	0	0	0	349	313	0	0	0	0	
15	0	0	0	0	371	332	0	0	0	0	
0	0	0	0	0	396	352	0	0	0	0	
1	0	0	0	0	422	374	0	0	0	0	
2	0	0	0	0	448	398	0	0	0	0	
3	0	0	0	0	474	421	0	0	0	0	
4	0	0	0	0	499	444	0	0	0	0	
5	0	0	0	0	521	466	0	0	0	0	
6	0	0	0	0	540	485	0	0	0	0	
7	0	0	0	0	558	503	0	0	0	0	
8	0	0	0	0	572	519	0	0	0	0	
9	0	0	0	0	582	531	0	0	0	0	
10	0	0	0	0	590	541	0	0	0	0	
11	0	0	0	0	594	547	0	0	0	0	
12	0	0	0	0	596	552	0	0	0	0	
13	0	0	0	0	597	555	0	0	0	0	
14	0	0	0	0	595	555	0	0	0	0	
15	0	0	0	0	591	553	0	0	0	0	
0	0	0	0	0	585	549	0	0	0	0	
1	0	0	0	0	579	545	0	0	0	0	
2	0	0	0	0	572	540	0	0	0	0	
3	0	0	0	0	565	533	0	0	0	0	
4	0	0	0	0	558	527	0	0	0	0	
5	0	0	0	0	552	521	0	0	0	0	
6	0	0	0	0	547	517	0	0	0	0	
7	0	0	0	0	543	513	0	0	0	0	
8	0	0	0	0	542	511	0	0	0	0	
9	0	0	0	0	541	510	0	0	0	0	
10	0	0	0	0	542	510	0	0	0	0	
11	0	0	0	0	543	512	0	0	0	0	
12	0	0	0	0	547	514	0	0	0	0	
13	0	0	0	0	551	516	0	0	0	0	
14	0	0	0	0	554	519	0	0	0	0	
15	0	0	0	0	558	522	0	0	0	0	
0	0	0	0	0	561	524	0	0	0	0	
1	0	0	0	0	563	526	0	0	0	0	
2	0	0	0	0	563	526	0	0	0	0	
3	0	0	0	0	562	526	0	0	0	0	
4	0	0	0	0	560	524	0	0	0	0	
5	0	0	0	0	558	522	0	0	0	0	
6	0	0	0	0	555	520	0	0	0	0	
7	0	0	0	0	551	518	0	0	0	0	
8	0	0	0	0	549	516	0	0	0	0	
9	0	0	0	0	547	515	0	0	0	0	
10	0	0	0	0	547	515	0	0	0	0	
11	0	0	0	0	547	516	0	0	0	0	
12	0	0	0	0	550	518	0	0	0	0	
13	0	0	0	0	554	522	0	0	0	0	
14	0	0	0	0	560	527	0	0	0	0	
15	0	0	0	0	566	532	0	0	0	0	
0	0	0	0	0	572	537	0	0	0	0	
1	0	0	0	0	579	542	0	0	0	0	
2	0	0	0	0	583	544	0	0	0	0	
3	0	0	0	0	584	545	0	0	0	0	
4	0	0	0	0	583	544	0	0	0	0	
5	0	0	0	0	580	542	0	0	0	0	
6	0	0	0	0	575	537	0	0	0	0	
7	0	0	0	0	568	532	0	0	0	0	
8	0	0	0	0	560	527	0	0	0	0	
9	0	0	0	0	552	521	0	0	0	0	
10	0	0	0	0	547	517	0	0	0	0	
11	0	0	0	0	543	514	0	0	0	0	
12	0	0	0	0	541	513	0	0	0	0	
13	0	0	0	0	542	514	0	0	0	0	
14	0	0	0	0	545	518	0	0	0	0	
15	0	0	0	0	550	523	0	0	0	0	
0	0	0	0	0	556	528	0	0	0	0	
1	0	0	0	0	562	535	0	0	0	0	
2	0	0	0	0	568	540	0	0	0	0	
3	0	0	0	0	572	543	0	0	0	0	
4	0	0	0	0	576	546	0	0	0	0	
5	0	0	0	0	577	547	0	0	0	0	
6	0	0	0	0	577	546	0	0	0	0	
7	0	0	0	0	575	544	0	0	0	0	
8	0	0	0	0	572	541	0	0	0	0	
9	0	0	0	0	568	536	0	0	0	0	
10	0	0	0	0	563	532	0	0	0	0	
11	0	0	0	0	560	529	0	0	0	0	
12	0	0	0	0	557	526	0	0	0	0	
13	0	0	0	0	554	524	0	0	0	0	
14	0	0	0	0	552	522	0	0	0	0	
15	0	0	0	0	551	521	0	0	0	0	
0	0	0	0	0	550	519	0	0	0	0	
1	0	0	0	0	548	519	0	0	0	0	
2	0	0	0	0	547	518	0	0	0	0	
3	0	0	0	0	547	517	0	0	0	0	
4	0	0	0	0	546	517	0	0	0	0	
5	0	0	0	0	546	517	0	0	0	0	
6	0	0	0	0	547	518	0	0	0	0	
7	0	0	0	0	548	519	0	0	0	0	
8	0	0	0	0	550	521	0	0	0	0	
9	0	0	0	0	553	524	0	0	0	0	
10	0	0	0	0	556	527	0	0	0	0	
11	0	0	0	0	560	530	0	0	0	0	
12	0	0	0	0	564	533	0	0	0	0	
13	0	0	0	0	568	536	0	0	0	0	
14	0	0	0	0	570	537	0	0	0	0	
15	0	0	0	0	571	538	0	0	0	0	
0	0	0	0	0	572	538	0	0	0	0	
1	0	0	0	0	570	536	0	0	0	0	
2	0	0	0	0	568	534	0	0	0	0	
3	0	0	0	0	565	531	0	0	0	0	
4	0	0	0	0	561	527	0	0	0	0	
5	0	0	0	0	557	524	0	0	0	0	
6	0	0	0	0	555	522	0	0	0	0	
7	0	0	0	0	552	520	0	0	0	0	
8	0	0	0	0	551	519	0	0	0	0	
9	0	0	0	0	551	519	0	0	0	0	
10	0	0	0	0	551	520	0	0	0	0	
11	0	0	0	0	553	522	0	0	0	0	
12	0	0	0	0	555	524	0	0	0	0	
13	0	0	0	0	557	526	0	0	0	0	
14	0	0	0	0	559	527	0	0	0	0	
15	0	0	0	0	559	528	0	0	0	0	
0	0	0	0	0	560	528	0	0	0	0	
1	0	0	0	0	559	527	0	0	0	0	
2	0	0	0	0	558	526	0	0	0	0	
3	0	0	0	0	555	523	0	0	0	0	
4	0	0	0	0	552	519	0	0	0	0	
5	0	0	0	0	549	517	0	0	0	0	
6	0	0	0	0	546	514	0	0	0	0	
7	0	0	0	0	543	511	0	0	0	0	
8	0	0	0	0	541	508	0	0	0	0	
9	0	0	0	0	539	507	0	0	0	0	
10	0	0	0	0	539	506	0	0	0	0	
11	0	0	0	0	539	505	0	0	0	0	
12	0	0	0	0	539	506	0	0	0	0	
13	0	0	0	0	540	507	0	0	0	0	
14	0	0	0	0	542	508	0	0	0	0	
15	0	0	0	0	544	511	0	0	0	0	
0	0	0	0	0	547	513	0	0	0	0	
1	0	0	0	0	549	515	0	0	0	0	
2	0	0	0	0	551	517	0	0	0	0	
3	0	0	0	0	553	519	0	0	0	0	
4	0	0	0	0	554	520	0	0	0	0	
5	0	0	0	0	555	521	0	0	0	0	
6	0	0	0	0	555	521	0	0	0	0	
7	0	0	0	0	555	521	0	0	0	0	
8	0	0	0	0	554	520	0	0	0	0	
9	0	0	0	0	553	519	0	0	0	0	
10	0	0	0	0	552	519	0	0	0	0	
11	0	0	0	0	551	519	0	0	0	0	
12	0	0	0	0	551	519	0	0	0	0	
13	0	0	0	0	553	520	0	0	0	0	
14	0	0	0	0	555	522	0	0	0	0	
15	0	0	0	0	558	525	0	0	0	0	
0	0	0	0	0	561	529	0	0	0	0	
1	0	0	0	0	565	533	0	0	0	0	
2	0	0	0	0	568	537	0	0	0	0	
3	0	0	0	0	573	541	0	0	0	0	
4	0	0	0	0	577	545	0	0	0	0	
5	0	0	0	0	579	548	0	0	0	0	
6	0	0	0	0	582	551	0	0	0	0	
7	0	0	0	0	582	552	0	0	0	0	
8	0	0	0	0	581	551	0	0	0	0	
9	0	0	0	0	579	550	0	0	0	0	
10	0	0	0	0	575	546	0	0	0	0	
11	0	0	0	0	570	541	0	0	0	0	
12	0	0	0	0	563	535	0	0	0	0	
13	0	0	0	0	558	529	0	0	0	0	
14	0	0	0	0	551	524	0	0	0	0	
15	0	0	0	0	546	519	0	0	0	0	
0	0	0	0	0	542	514	0	0	0	0	
1	0	0	0	0	537	510	0	0	0	0	
2	0	0	0	0	533	506	0	0	0	0	
3	0	0	0	0	529	503	0	0	0	0	
4	0	0	0	0	526	499	0	0	0	0	
5	0	0	0	0	523	496	0	0	0	0	
6	0	0	0	0	519	493	0	0	0	0	
7	0	0	0	0	517	491	0	0	0	0	
8	0	0	0	0	515	489	0	0	0	0	
9	0	0	0	0	514	487	0	0	0	0	
10	0	0	0	0	513	487	0	0	0	0	
11	0	0	0	0	513	486	0	0	0	0	
12	0	0	0	0	515	487	0	0	0	0	
13	0	0	0	0	518	490	0	0	0	0	
14	0	0	0	0	523	493	0	0	0	0	
15	0	0	0	0	527	496	0	0	0	0	
0	0	0	0	0	532	500	0	0	0	0	
1	0	0	0	0	538	504	0	0	0	0	
2	0	0	0	0	543	508	0	0	0	0	
3	0	0	0	0	547	511	0	0	0	0	
4	0	0	0	0	551	515	0	0	0	0	
5	0	0	0	0	554	517	0	0	0	0	
6	0	0	0	0	556	519	0	0	0	0	
7	0	0	0	0	557	520	0	0	0	0	
8	0	0	0	0	556	520	0	0	0	0	
9	0	0	0	0	552	518	0	0	0	0	
10	0	0	0	0	548	516	0	0	0	0	
11	0	0	0	0	543	513	0	0	0	0	
12	0	0	0	0	539	510	0	0	0	0	
13	0	0	0	0	534	506	0	0	0	0	
14	0	0	0	0	529	503	0	0	0	0	
15	0	0	0	0	524	499	0	0	0	0	
0	0	0	0	0	520	497	0	0	0	0	
1	0	0	0	0	518	494	0	0	0	0	
2	0	0	0	0	516	492	0	0	0	0	
3	0	0	0	0	515	491	0	0	0	0	
4	0	0	0	0	515	489	0	0	0	0	
5	0	0	0	0	516	489	0	0	0	0	
6	0	0	0	0	519	490	0	0	0	0	
7	0	0	0	0	522	491	0	0	0	0	
8	0	0	0	0	525	493	0	0	0	0	
9	0	0	0	0	529	496	0	0	0	0	
10	0	0	0	0	534	499	0	0	0	0	
11	0	0	0	0	538	502	0	0	0	0	
12	0	0	0	0	543	507	0	0	0	0	
13	0	0	0	0	547	510	0	0	0	0	
14	0	0	0	0	549	513	0	0	0	0	
15	0	0	0	0	550	515	0	0	0	0	
0	0	0	0	0	551	516	0	0	0	0	
1	0	0	0	0	549	516	0	0	0	0	
2	0	0	0	0	546	515	0	0	0	0	
3	0	0	0	0	542	512	0	0	0	0	
4	0	0	0	0	536	508	0	0	0	0	
5	0	0	0	0	531	504	0	0	0	0	
6	0	0	0	0	525	499	0	0	0	0	
7	0	0	0	0	519	494	0	0	0	0	
8	0	0	0	0	513	489	0	0	0	0	
9	0	0	0	0	510	486	0	0	0	0	
10	0	0	0	0	507	483	0	0	0	0	
11	0	0	0	0	506	481	0	0	0	0	
12	0	0	0	0	506	480	0	0	0	0	
13	0	0	0	0	508	480	0	0	0	0	
14	0	0	0	0	512	483	0	0	0	0	
15	0	0	0	0	517	486	0	0	0	0	
0	0	0	0	0	524	492	0	0	0	0	
1	0	0	0	0	531	497	0	0	0	0	
2	0	0	0	0	539	504	0	0	0	0	
3	0	0	0	0	546	510	0	0	0	0	
4	0	0	0	0	554	516	0	0	0	0	
5	0	0	0	0	560	521	0	0	0	0	
6	0	0	0	0	565	526	0	0	0	0	
7	0	0	0	0	567	528	0	0	0	0	
8	0	0	0	0	568	530	0	0	0	0	
9	0	0	0	0	566	530	0	0	0	0	
10	0	0	0	0	563	528	0	0	0	0	
11	0	0	0	0	558	526	0	0	0	0	
12	0	0	0	0	552	521	0	0	0	0	
13	0	0	0	0	545	516	0	0	0	0	
14	0	0	0	0	539	511	0	0	0	0	
15	0	0	0	0	532	505	0	0	0	0	
0	0	0	0	0	527	501	0	0	0	0	
1	0	0	0	0	524	498	0	0	0	0	
2	0	0	0	0	523	496	0	0	0	0	
3	0	0	0	0	523	495	0	0	0	0	
4	0	0	0	0	524	495	0	0	0	0	
5	0	0	0	0	526	495	0	0	0	0	
6	0	0	0	0	527	495	0	0	0	0	
7	0	0	0	0	528	495	0	0	0	0	
8	0	0	0	0	529	495	0	0	0	0	
9	0	0	0	0	529	493	0	0	0	0	
10	0	0	0	0	528	491	0	0	0	0	
11	0	0	0	0	526	489	0	0	0	0	
12	0	0	0	0	524	487	0	0	0	0	
13	0	0	0	0	523	486	0	0	0	0	
14	0	0	0	0	520	483	0	0	0	0	
15	0	0	0	0	518	481	0	0	0	0	
0	0	0	0	0	516	480	0	0	0	0	
1	0	0	0	0	513	478	0	0	0	0	
2	0	0	0	0	512	477	0	0	0	0	
3	0	0	0	0	511	476	0	0	0	0	
4	0	0	0	0	511	476	0	0	0	0	
5	0	0	0	0	511	477	0	0	0	0	
6	0	0	0	0	512	478	0	0	0	0	
7	0	0	0	0	514	480	0	0	0	0	
8	0	0	0	0	516	482	0	0	0	0	
9	0	0	0	0	519	484	0	0	0	0	
10	0	0	0	0	522	487	0	0	0	0	
11	0	0	0	0	525	489	0	0	0	0	
12	0	0	0	0	528	492	0	0	0	0	
13	0	0	0	0	531	494	0	0	0	0	
14	0	0	0	0	532	495	0	0	0	0	
15	0	0	0	0	533	496	0	0	0	0	
0	0	0	0	0	532	495	0	0	0	0	
1	0	0	0	0	531	494	0	0	0	0	
2	0	0	0	0	529	491	0	0	0	0	
3	0	0	0	0	526	488	0	0	0	0	
4	0	0	0	0	523	484	0	0	0	0	
5	0	0	0	0	519	481	0	0	0	0	
6	0	0	0	0	517	479	0	0	0	0	
7	0	0	0	0	515	478	0	0	0	0	
8	0	0	0	0	515	478	0	0	0	0	
9	0	0	0	0	515	479	0	0	0	0	
10	0	0	0	0	516	480	0	0	0	0	
11	0	0	0	0	518	483	0	0	0	0	
12	0	0	0	0	520	486	0	0	0	0	
13	0	0	0	0	523	489	0	0	0	0	
14	0	0	0	0	526	493	0	0	0	0	
15	0	0	0	0	529	497	0	0	0	0	
0	0	0	0	0	533	501	0	0	0	0	
1	0	0	0	0	537	505	0	0	0	0	
2	0	0	0	0	541	510	0	0	0	0	
3	0	0	0	0	545	513	0	0	0	0	
4	0	0	0	0	550	517	0	0	0	0	
5	0	0	0	0	554	520	0	0	0	0	
6	0	0	0	0	557	522	0	0	0	0	
7	0	0	0	0	559	523	0	0	0	0	
8	0	0	0	0	560	523	0	0	0	0	
9	0	0	0	0	559	521	0	0	0	0	
10	0	0	0	0	558	519	0	0	0	0	
11	0	0	0	0	555	515	0	0	0	0	
12	0	0	0	0	551	511	0	0	0	0	
13	0	0	0	0	548	508	0	0	0	0	
14	0	0	0	0	544	504	0	0	0	0	
15	0	0	0	0	542	502	0	0	0	0	
0	0	0	0	0	540	499	0	0	0	0	
1	0	0	0	0	539	499	0	0	0	0	
2	0	0	0	0	538	499	0	0	0	0	
3	0	0	0	0	538	500	0	0	0	0	
4	0	0	0	0	540	502	0	0	0	0	
5	0	0	0	0	540	504	0	0	0	0	
6	0	0	0	0	541	505	0	0	0	0	
7	0	0	0	0	541	506	0	0	0	0	
8	0	0	0	0	540	506	0	0	0	0	
9	0	0	0	0	539	505	0	0	0	0	
10	0	0	0	0	536	504	0	0	0	0	
11	0	0	0	0	534	501	0	0	0	0	
12	0	0	0	0	531	499	0	0	0	0	
13	0	0	0	0	528	496	0	0	0	0	
14	0	0	0	0	525	493	0	0	0	0	
15	0	0	0	0	522	490	0	0	0	0	
0	0	0	0	0	519	487	0	0	0	0	
1	0	0	0	0	518	484	0	0	0	0	
2	0	0	0	0	516	483	0	0	0	0	
3	0	0	0	0	516	483	0	0	0	0	
4	0	0	0	0	517	484	0	0	0	0	
5	0	0	0	0	519	486	0	0	0	0	
6	0	0	0	0	521	488	0	0	0	0	
7	0	0	0	0	525	491	0	0	0	0	
8	0	0	0	0	529	495	0	0	0	0	
9	0	0	0	0	534	499	0	0	0	0	
10	0	0	0	0	536	502	0	0	0	0	
11	0	0	0	0	540	504	0	0	0	0	
12	0	0	0	0	540	505	0	0	0	0	
13	0	0	0	0	540	505	0	0	0	0	
14	0	0	0	0	538	504	0	0	0	0	
15	0	0	0	0	535	500	0	0	0	0	
0	0	0	0	0	529	496	0	0	0	0	
1	0	0	0	0	524	491	0	0	0	0	
2	0	0	0	0	517	485	0	0	0	0	
3	0	0	0	0	511	479	0	0	0	0	
4	0	0	0	0	504	473	0	0	0	0	
5	0	0	0	0	498	468	0	0	0	0	
6	0	0	0	0	494	464	0	0	0	0	
7	0	0	0	0	491	461	0	0	0	0	
8	0	0	0	0	490	460	0	0	0	0	
9	0	0	0	0	491	461	0	0	0	0	
10	0	0	0	0	493	463	0	0	0	0	
11	0	0	0	0	496	466	0	0	0	0	
12	0	0	0	0	502	471	0	0	0	0	
13	0	0	0	0	508	476	0	0	0	0	
14	0	0	0	0	515	481	0	0	0	0	
15	0	0	0	0	521	485	0	0	0	0	
0	0	0	0	0	527	490	0	0	0	0	
1	0	0	0	0	532	493	0	0	0	0	
2	0	0	0	0	536	495	0	0	0	0	
3	0	0	0	0	538	496	0	0	0	0	
4	0	0	0	0	539	496	0	0	0	0	
5	0	0	0	0	539	495	0	0	0	0	
6	0	0	0	0	538	494	0	0	0	0	
7	0	0	0	0	536	492	0	0	0	0	
8	0	0	0	0	534	492	0	0	0	0	
9	0	0	0	0	532	491	0	0	0	0	
10	0	0	0	0	529	491	0	0	0	0	
11	0	0	0	0	529	492	0	0	0	0	
12	0	0	0	0	529	493	0	0	0	0	
13	0	0	0	0	530	496	0	0	0	0	
14	0	0	0	0	532	499	0	0	0	0	
15	0	0	0	0	535	504	0	0	0	0	
0	0	0	0	0	539	508	0	0	0	0	
1	0	0	0	0	543	511	0	0	0	0	
2	0	0	0	0	547	515	0	0	0	0	
3	0	0	0	0	551	519	0	0	0	0	
4	0	0	0	0	554	521	0	0	0	0	
5	0	0	0	0	558	524	0	0	0	0	
6	0	0	0	0	561	526	0	0	0	0	
7	0	0	0	0	563	526	0	0	0	0	
8	0	0	0	0	562	524	0	0	0	0	
9	0	0	0	0	559	520	0	0	0	0	
10	0	0	0	0	552	514	0	0	0	0	
11	0	0	0	0	544	506	0	0	0	0	
12	0	0	0	0	534	497	0	0	0	0	
13	0	0	0	0	524	488	0	0	0	0	
14	0	0	0	0	513	479	0	0	0	0	
15	0	0	0	0	504	472	0	0	0	0	
0	0	0	0	0	496	467	0	0	0	0	
1	0	0	0	0	491	463	0	0	0	0	
2	0	0	0	0	488	461	0	0	0	0	
3	0	0	0	0	487	461	0	0	0	0	
4	0	0	0	0	489	464	0	0	0	0	
5	0	0	0	0	495	468	0	0	0	0	
6	0	0	0	0	502	474	0	0	0	0	
7	0	0	0	0	510	481	0	0	0	0	
8	0	0	0	0	519	488	0	0	0	0	
9	0	0	0	0	528	496	0	0	0	0	
10	0	0	0	0	537	502	0	0	0	0	
11	0	0	0	0	546	508	0	0	0	0	
12	0	0	0	0	553	513	0	0	0	0	
13	0	0	0	0	559	518	0	0	0	0	
14	0	0	0	0	564	522	0	0	0	0	
15	0	0	0	0	568	525	0	0	0	0	
0	0	0	0	0	571	528	0	0	0	0	
1	0	0	0	0	572	530	0	0	0	0	
2	0	0	0	0	573	531	0	0	0	0	
3	0	0	0	0	572	532	0	0	0	0	
4	0	0	0	0	570	531	0	0	0	0	
5	0	0	0	0	567	529	0	0	0	0	
6	0	0	0	0	561	525	0	0	0	0	
7	0	0	0	0	553	520	0	0	0	0	
8	0	0	0	0	545	514	0	0	0	0	
9	0	0	0	0	537	508	0	0	0	0	
10	0	0	0	0	528	502	0	0	0	0	
11	0	0	0	0	521	495	0	0	0	0	
12	0	0	0	0	515	491	0	0	0	0	
13	0	0	0	0	512	487	0	0	0	0	
14	0	0	0	0	509	484	0	0	0	0	
15	0	0	0	0	507	482	0	0	0	0	
0	0	0	0	0	508	481	0	0	0	0	
1	0	0	0	0	508	480	0	0	0	0	
2	0	0	0	0	510	481	0	0	0	0	
3	0	0	0	0	512	481	0	0	0	0	
4	0	0	0	0	515	483	0	0	0	0	
5	0	0	0	0	518	485	0	0	0	0	
6	0	0	0	0	520	488	0	0	0	0	
7	0	0	0	0	524	490	0	0	0	0	
8	0	0	0	0	527	493	0	0	0	0	
9	0	0	0	0	530	496	0	0	0	0	
10	0	0	0	0	533	498	0	0	0	0	
11	0	0	0	0	534	499	0	0	0	0	
12	0	0	0	0	536	502	0	0	0	0	
13	0	0	0	0	537	503	0	0	0	0	
14	0	0	0	0	538	504	0	0	0	0	
15	0	0	0	0	538	504	0	0	0	0	
0	0	0	0	0	537	504	0	0	0	0	
1	0	0	0	0	536	503	0	0	0	0	
2	0	0	0	0	535	501	0	0	0	0	
3	0	0	0	0	532	498	0	0	0	0	
4	0	0	0	0	529	495	0	0	0	0	
5	0	0	0	0	526	491	0	0	0	0	
6	0	0	0	0	524	487	0	0	0	0	
7	0	0	0	0	520	483	0	0	0	0	
8	0	0	0	0	518	480	0	0	0	0	
9	0	0	0	0	516	477	0	0	0	0	
10	0	0	0	0	515	476	0	0	0	0	
11	0	0	0	0	515	476	0	0	0	0	
12	0	0	0	0	516	477	0	0	0	0	
13	0	0	0	0	518	479	0	0	0	0	
14	0	0	0	0	520	481	0	0	0	0	
15	0	0	0	0	523	484	0	0	0	0	
0	0	0	0	0	526	488	0	0	0	0	
1	0	0	0	0	529	492	0	0	0	0	
2	0	0	0	0	532	496	0	0	0	0	
3	0	0	0	0	536	500	0	0	0	0	
4	0	0	0	0	540	505	0	0	0	0	
5	0	0	0	0	543	509	0	0	0	0	
6	0	0	0	0	546	512	0	0	0	0	
7	0	0	0	0	548	515	0	0	0	0	
8	0	0	0	0	550	516	0	0	0	0	
9	0	0	0	0	551	518	0	0	0	0	
10	0	0	0	0	551	518	0	0	0	0	
11	0	0	0	0	550	516	0	0	0	0	
12	0	0	0	0	548	514	0	0	0	0	
13	0	0	0	0	544	510	0	0	0	0	
14	0	0	0	0	542	507	0	0	0	0	
15	0	0	0	0	538	504	0	0	0	0	
0	0	0	0	0	535	500	0	0	0	0	
1	0	0	0	0	531	496	0	0	0	0	
2	0	0	0	0	528	494	0	0	0	0	
3	0	0	0	0	527	493	0	0	0	0	
4	0	0	0	0	527	492	0	0	0	0	
5	0	0	0	0	528	494	0	0	0	0	
6	0	0	0	0	530	496	0	0	0	0	
7	0	0	0	0	533	499	0	0	0	0	
8	0	0	0	0	538	504	0	0	0	0	
9	0	0	0	0	543	508	0	0	0	0	
10	0	0	0	0	547	511	0	0	0	0	
11	0	0	0	0	551	513	0	0	0	0	
12	0	0	0	0	552	513	0	0	0	0	
13	0	0	0	0	551	512	0	0	0	0	
14	0	0	0	0	550	510	0	0	0	0	
15	0	0	0	0	545	506	0	0	0	0	
0	0	0	0	0	541	503	0	0	0	0	
1	0	0	0	0	535	498	0	0	0	0	
2	0	0	0	0	529	494	0	0	0	0	
3	0	0	0	0	523	491	0	0	0	0	
4	0	0	0	0	518	487	0	0	0	0	
5	0	0	0	0	514	485	0	0	0	0	
6	0	0	0	0	511	483	0	0	0	0	
7	0	0	0	0	511	483	0	0	0	0	
8	0	0	0	0	512	485	0	0	0	0	
9	0	0	0	0	516	488	0	0	0	0	
10	0	0	0	0	523	493	0	0	0	0	
11	0	0	0	0	531	498	0	0	0	0	
12	0	0	0	0	539	504	0	0	0	0	
13	0	0	0	0	547	509	0	0	0	0	
14	0	0	0	0	554	513	0	0	0	0	
15	0	0	0	0	559	516	0	0	0	0	
0	0	0	0	0	561	516	0	0	0	0	
1	0	0	0	0	560	514	0	0	0	0	
2	0	0	0	0	557	510	0	0	0	0	
3	0	0	0	0	551	505	0	0	0	0	
4	0	0	0	0	543	498	0	0	0	0	
5	0	0	0	0	534	491	0	0	0	0	
6	0	0	0	0	526	484	0	0	0	0	
7	0	0	0	0	518	478	0	0	0	0	
8	0	0	0	0	512	474	0	0	0	0	
9	0	0	0	0	508	472	0	0	0	0	
10	0	0	0	0	507	472	0	0	0	0	
11	0	0	0	0	509	475	0	0	0	0	
12	0	0	0	0	513	478	0	0	0	0	
13	0	0	0	0	518	481	0	0	0	0	
14	0	0	0	0	522	484	0	0	0	0	
15	0	0	0	0	526	486	0	0	0	0	
0	0	0	0	0	527	487	0	0	0	0	
1	0	0	0	0	528	487	0	0	0	0	
2	0	0	0	0	527	485	0	0	0	0	
3	0	0	0	0	525	482	0	0	0	0	
4	0	0	0	0	522	479	0	0	0	0	
5	0	0	0	0	519	476	0	0	0	0	
6	0	0	0	0	515	473	0	0	0	0	
7	0	0	0	0	513	471	0	0	0	0	
8	0	0	0	0	511	470	0	0	0	0	
9	0	0	0	0	509	469	0	0	0	0	
10	0	0	0	0	509	470	0	0	0	0	
11	0	0	0	0	510	472	0	0	0	0	
12	0	0	0	0	511	474	0	0	0	0	
13	0	0	0	0	514	478	0	0	0	0	
14	0	0	0	0	518	482	0	0	0	0	
15	0	0	0	0	523	487	0	0	0	0	
0	0	0	0	0	528	492	0	0	0	0	
1	0	0	0	0	534	497	0	0	0	0	
2	0	0	0	0	539	501	0	0	0	0	
3	0	0	0	0	542	505	0	0	0	0	
4	0	0	0	0	546	508	0	0	0	0	
5	0	0	0	0	548	509	0	0	0	0	
6	0	0	0	0	548	509	0	0	0	0	
7	0	0	0	0	546	507	0	0	0	0	
8	0	0	0	0	542	503	0	0	0	0	
9	0	0	0	0	536	498	0	0	0	0	
10	0	0	0	0	530	492	0	0	0	0	
11	0	0	0	0	524	487	0	0	0	0	
12	0	0	0	0	517	481	0	0	0	0	
13	0	0	0	0	512	476	0	0	0	0	
14	0	0	0	0	508	474	0	0	0	0	
15	0	0	0	0	507	473	0	0	0	0	
0	0	0	0	0	507	474	0	0	0	0	
1	0	0	0	0	510	476	0	0	0	0	
2	0	0	0	0	514	481	0	0	0	0	
3	0	0	0	0	521	487	0	0	0	0	
4	0	0	0	0	530	495	0	0	0	0	
5	0	0	0	0	540	504	0	0	0	0	
6	0	0	0	0	550	513	0	0	0	0	
7	0	0	0	0	560	521	0	0	0	0	
8	0	0	0	0	569	529	0	0	0	0	
9	0	0	0	0	576	536	0	0	0	0	
10	0	0	0	0	580	539	0	0	0	0	
11	0	0	0	0	580	539	0	0	0	0	
12	0	0	0	0	575	535	0	0	0	0	
13	0	0	0	0	568	527	0	0	0	0	
14	0	0	0	0	556	517	0	0	0	0	
15	0	0	0	0	543	506	0	0	0	0	
0	0	0	0	0	527	493	0	0	0	0	
1	0	0	0	0	512	480	0	0	0	0	
2	0	0	0	0	498	469	0	0	0	0	
3	0	0	0	0	485	458	0	0	0	0	
4	0	0	0	0	474	449	0	0	0	0	
5	0	0	0	0	464	440	0	0	0	0	
6	0	0	0	0	456	433	0	0	0	0	
7	0	0	0	0	450	426	0	0	0	0	
8	0	0	0	0	446	420	0	0	0	0	
9	0	0	0	0	441	414	0	0	0	0	
10	0	0	0	0	437	408	0	0	0	0	
11	0	0	0	0	432	401	0	0	0	0	
12	0	0	0	0	427	394	0	0	0	0	
13	0	0	0	0	421	386	0	0	0	0	
14	0	0	0	0	414	377	0	0	0	0	
15	0	0	0	0	406	368	0	0	0	0	
0	0	0	0	0	397	359	0	0	0	0	
1	0	0	0	0	387	348	0	0	0	0	
2	0	0	0	0	377	339	0	0	0	0	
3	0	0	0	0	368	329	0	0	0	0	
4	0	0	0	0	358	320	0	0	0	0	
5	0	0	0	0	349	311	0	0	0	0	
6	0	0	0	0	340	303	0	0	0	0	
7	0	0	0	0	332	295	0	0	0	0	
8	0	0	0	0	325	288	0	0	0	0	
9	0	0	0	0	319	282	0	0	0	0	
10	0	0	0	0	314	278	0	0	0	0	
11	0	0	0	0	311	275	0	0	0	0	
12	0	0	0	0	311	275	0	0	0	0	
13	0	0	0	0	315	278	0	0	0	0	
14	0	0	0	0	321	284	0	0	0	0	
15	0	0	0	0	332	292	0	0	0	0	
0	0	0	0	0	345	304	0	0	0	0	
1	0	0	0	0	362	319	0	0	0	0	
2	0	0	0	0	381	335	0	0	0	0	
3	0	0	0	0	402	353	0	0	0	0	
4	0	0	0	0	423	371	0	0	0	0	
5	0	0	0	0	446	391	0	0	0	0	
6	0	0	0	0	468	411	0	0	0	0	
7	0	0	0	0	489	430	0	0	0	0	
8	0	0	0	0	508	448	0	0	0	0	
9	0	0	0	0	525	463	0	0	0	0	
10	0	0	0	0	538	477	0	0	0	0	
11	0	0	0	0	549	490	0	0	0	0	
12	0	0	0	0	556	500	0	0	0	0	
13	0	0	0	0	561	508	0	0	0	0	
14	0	0	0	0	564	515	0	0	0	0	
15	0	0	0	0	566	519	0	0	0	0	
0	0	0	0	0	566	524	0	0	0	0	
1	0	0	0	0	566	527	0	0	0	0	
2	0	0	0	0	565	528	0	0	0	0	
3	0	0	0	0	563	528	0	0	0	0	
4	0	0	0	0	561	528	0	0	0	0	
5	0	0	0	0	559	527	0	0	0	0	
6	0	0	0	0	557	526	0	0	0	0	
7	0	0	0	0	556	523	0	0	0	0	
8	0	0	0	0	554	520	0	0	0	0	
9	0	0	0	0	552	518	0	0	0	0	
10	0	0	0	0	551	515	0	0	0	0	
11	0	0	0	0	549	512	0	0	0	0	
12	0	0	0	0	548	509	0	0	0	0	
13	0	0	0	0	547	507	0	0	0	0	
14	0	0	0	0	545	505	0	0	0	0	
15	0	0	0	0	545	505	0	0	0	0	
0	0	0	0	0	546	505	0	0	0	0	
1	0	0	0	0	547	505	0	0	0	0	
2	0	0	0	0	547	507	0	0	0	0	
3	0	0	0	0	548	510	0	0	0	0	
4	0	0	0	0	550	513	0	0	0	0	
5	0	0	0	0	551	515	0	0	0	0	
6	0	0	0	0	552	517	0	0	0	0	
7	0	0	0	0	552	518	0	0	0	0	
8	0	0	0	0	551	519	0	0	0	0	
9	0	0	0	0	550	519	0	0	0	0	
10	0	0	0	0	549	517	0	0	0	0	
11	0	0	0	0	547	515	0	0	0	0	
12	0	0	0	0	545	512	0	0	0	0	
13	0	0	0	0	542	509	0	0	0	0	
14	0	0	0	0	540	506	0	0	0	0	
15	0	0	0	0	538	503	0	0	0	0	
0	0	0	0	0	536	500	0	0	0	0	
1	0	0	0	0	536	498	0	0	0	0	
2	0	0	0	0	535	497	0	0	0	0	
3	0	0	0	0	536	497	0	0	0	0	
4	0	0	0	0	536	498	0	0	0	0	
5	0	0	0	0	538	499	0	0	0	0	
6	0	0	0	0	540	502	0	0	0	0	
7	0	0	0	0	542	504	0	0	0	0	
8	0	0	0	0	545	507	0	0	0	0	
9	0	0	0	0	547	510	0	0	0	0	
10	0	0	0	0	548	512	0	0	0	0	
11	0	0	0	0	550	513	0	0	0	0	
12	0	0	0	0	550	513	0	0	0	0	
13	0	0	0	0	550	514	0	0	0	0	
14	0	0	0	0	551	514	0	0	0	0	
15	0	0	0	0	551	514	0	0	0	0	
0	0	0	0	0	550	513	0	0	0	0	
1	0	0	0	0	550	514	0	0	0	0	
2	0	0	0	0	551	513	0	0	0	0	
3	0	0	0	0	550	512	0	0	0	0	
4	0	0	0	0	549	511	0	0	0	0	
5	0	0	0	0	548	510	0	0	0	0	
6	0	0	0	0	547	510	0	0	0	0	
7	0	0	0	0	547	510	0	0	0	0	
8	0	0	0	0	547	510	0	0	0	0	
9	0	0	0	0	548	511	0	0	0	0	
10	0	0	0	0	551	514	0	0	0	0	
11	0	0	0	0	554	518	0	0	0	0	
12	0	0	0	0	560	523	0	0	0	0	
13	0	0	0	0	566	528	0	0	0	0	
14	0	0	0	0	573	535	0	0	0	0	
15	0	0	0	0	581	542	0	0	0	0	
0	0	0	0	0	588	548	0	0	0	0	
1	0	0	0	0	594	554	0	0	0	0	
2	0	0	0	0	598	558	0	0	0	0	
3	0	0	0	0	600	559	0	0	0	0	
4	0	0	0	0	598	558	0	0	0	0	
5	0	0	0	0	593	554	0	0	0	0	
6	0	0	0	0	587	548	0	0	0	0	
7	0	0	0	0	578	540	0	0	0	0	
8	0	0	0	0	568	532	0	0	0	0	
9	0	0	0	0	557	524	0	0	0	0	
10	0	0	0	0	547	515	0	0	0	0	
11	0	0	0	0	539	509	0	0	0	0	
12	0	0	0	0	532	504	0	0	0	0	
13	0	0	0	0	528	501	0	0	0	0	
14	0	0	0	0	527	499	0	0	0	0	
15	0	0	0	0	527	500	0	0	0	0	
0	0	0	0	0	530	502	0	0	0	0	
1	0	0	0	0	535	505	0	0	0	0	
2	0	0	0	0	540	509	0	0	0	0	
3	0	0	0	0	547	513	0	0	0	0	
4	0	0	0	0	553	518	0	0	0	0	
5	0	0	0	0	560	522	0	0	0	0	
6	0	0	0	0	566	527	0	0	0	0	
7	0	0	0	0	572	531	0	0	0	0	
8	0	0	0	0	575	534	0	0	0	0	
9	0	0	0	0	579	537	0	0	0	0	
10	0	0	0	0	581	540	0	0	0	0	
11	0	0	0	0	582	542	0	0	0	0	
12	0	0	0	0	583	543	0	0	0	0	
13	0	0	0	0	582	543	0	0	0	0	
14	0	0	0	0	579	543	0	0	0	0	
15	0	0	0	0	577	542	0	0	0	0	
0	0	0	0	0	574	540	0	0	0	0	
1	0	0	0	0	570	536	0	0	0	0	
2	0	0	0	0	566	533	0	0	0	0	
3	0	0	0	0	561	529	0	0	0	0	
4	0	0	0	0	556	526	0	0	0	0	
5	0	0	0	0	550	521	0	0	0	0	
6	0	0	0	0	544	515	0	0	0	0	
7	0	0	0	0	539	511	0	0	0	0	
8	0	0	0	0	533	505	0	0	0	0	
9	0	0	0	0	529	501	0	0	0	0	
10	0	0	0	0	526	498	0	0	0	0	
11	0	0	0	0	524	495	0	0	0	0	
12	0	0	0	0	524	493	0	0	0	0	
13	0	0	0	0	524	493	0	0	0	0	
14	0	0	0	0	527	494	0	0	0	0	
15	0	0	0	0	531	495	0	0	0	0	
0	0	0	0	0	535	497	0	0	0	0	
1	0	0	0	0	539	499	0	0	0	0	
2	0	0	0	0	543	503	0	0	0	0	
3	0	0	0	0	548	507	0	0	0	0	
4	0	0	0	0	551	510	0	0	0	0	
5	0	0	0	0	555	513	0	0	0	0	
6	0	0	0	0	556	516	0	0	0	0	
7	0	0	0	0	558	519	0	0	0	0	
8	0	0	0	0	559	521	0	0	0	0	
9	0	0	0	0	559	523	0	0	0	0	
10	0	0	0	0	559	524	0	0	0	0	
11	0	0	0	0	558	524	0	0	0	0	
12	0	0	0	0	556	523	0	0	0	0	
13	0	0	0	0	554	522	0	0	0	0	
14	0	0	0	0	551	519	0	0	0	0	
15	0	0	0	0	547	516	0	0	0	0	
0	0	0	0	0	544	514	0	0	0	0	
1	0	0	0	0	540	510	0	0	0	0	
2	0	0	0	0	536	508	0	0	0	0	
3	0	0	0	0	533	505	0	0	0	0	
4	0	0	0	0	531	503	0	0	0	0	
5	0	0	0	0	528	501	0	0	0	0	
6	0	0	0	0	527	501	0	0	0	0	
7	0	0	0	0	527	500	0	0	0	0	
8	0	0	0	0	528	501	0	0	0	0	
9	0	0	0	0	529	503	0	0	0	0	
10	0	0	0	0	532	505	0	0	0	0	
11	0	0	0	0	536	509	0	0	0	0	
12	0	0	0	0	543	513	0	0	0	0	
13	0	0	0	0	548	519	0	0	0	0	
14	0	0	0	0	555	524	0	0	0	0	
15	0	0	0	0	561	528	0	0	0	0	
0	0	0	0	0	566	532	0	0	0	0	
1	0	0	0	0	569	534	0	0	0	0	
2	0	0	0	0	569	534	0	0	0	0	
3	0	0	0	0	568	531	0	0	0	0	
4	0	0	0	0	562	526	0	0	0	0	
5	0	0	0	0	556	519	0	0	0	0	
6	0	0	0	0	547	512	0	0	0	0	
7	0	0	0	0	537	503	0	0	0	0	
8	0	0	0	0	527	495	0	0	0	0	
9	0	0	0	0	518	487	0	0	0	0	
10	0	0	0	0	510	480	0	0	0	0	
11	0	0	0	0	504	476	0	0	0	0	
12	0	0	0	0	499	472	0	0	0	0	
13	0	0	0	0	498	471	0	0	0	0	
14	0	0	0	0	498	471	0	0	0	0	
15	0	0	0	0	500	473	0	0	0	0	
0	0	0	0	0	504	476	0	0	0	0	
1	0	0	0	0	510	480	0	0	0	0	
2	0	0	0	0	516	485	0	0	0	0	
3	0	0	0	0	523	490	0	0	0	0	
4	0	0	0	0	529	496	0	0	0	0	
5	0	0	0	0	536	501	0	0	0	0	
6	0	0	0	0	541	505	0	0	0	0	
7	0	0	0	0	546	509	0	0	0	0	
8	0	0	0	0	551	513	0	0	0	0	
9	0	0	0	0	555	517	0	0	0	0	
10	0	0	0	0	559	522	0	0	0	0	
11	0	0	0	0	563	526	0	0	0	0	
12	0	0	0	0	567	531	0	0	0	0	
13	0	0	0	0	571	535	0	0	0	0	
14	0	0	0	0	573	539	0	0	0	0	
15	0	0	0	0	575	542	0	0	0	0	
0	0	0	0	0	575	543	0	0	0	0	
1	0	0	0	0	575	543	0	0	0	0	
2	0	0	0	0	572	541	0	0	0	0	
3	0	0	0	0	567	536	0	0	0	0	
4	0	0	0	0	559	530	0	0	0	0	
5	0	0	0	0	550	521	0	0	0	0	
6	0	0	0	0	540	512	0	0	0	0	
7	0	0	0	0	529	502	0	0	0	0	
8	0	0	0	0	519	492	0	0	0	0	
9	0	0	0	0	510	483	0	0	0	0	
10	0	0	0	0	502	475	0	0	0	0	
11	0	0	0	0	495	469	0	0	0	0	
12	0	0	0	0	492	464	0	0	0	0	
13	0	0	0	0	490	462	0	0	0	0	
14	0	0	0	0	491	462	0	0	0	0	
15	0	0	0	0	494	464	0	0	0	0	
0	0	0	0	0	499	467	0	0	0	0	
1	0	0	0	0	504	472	0	0	0	0	
2	0	0	0	0	511	477	0	0	0	0	
3	0	0	0	0	517	483	0	0	0	0	
4	0	0	0	0	524	488	0	0	0	0	
5	0	0	0	0	529	494	0	0	0	0	
6	0	0	0	0	534	498	0	0	0	0	
7	0	0	0	0	538	503	0	0	0	0	
8	0	0	0	0	542	507	0	0	0	0	
9	0	0	0	0	545	511	0	0	0	0	
10	0	0	0	0	548	515	0	0	0	0	
11	0	0	0	0	551	518	0	0	0	0	
12	0	0	0	0	553	521	0	0	0	0	
13	0	0	0	0	557	525	0	0	0	0	
14	0	0	0	0	560	528	0	0	0	0	
15	0	0	0	0	563	530	0	0	0	0	
0	0	0	0	0	564	531	0	0	0	0	
1	0	0	0	0	563	530	0	0	0	0	
2	0	0	0	0	560	527	0	0	0	0	
3	0	0	0	0	555	522	0	0	0	0	
4	0	0	0	0	548	515	0	0	0	0	
5	0	0	0	0	539	507	0	0	0	0	
6	0	0	0	0	530	499	0	0	0	0	
7	0	0	0	0	520	491	0	0	0	0	
8	0	0	0	0	512	483	0	0	0	0	
9	0	0	0	0	505	477	0	0	0	0	
10	0	0	0	0	500	472	0	0	0	0	
11	0	0	0	0	498	470	0	0	0	0	
12	0	0	0	0	497	469	0	0	0	0	
13	0	0	0	0	499	470	0	0	0	0	
14	0	0	0	0	502	472	0	0	0	0	
15	0	0	0	0	506	475	0	0	0	0	
0	0	0	0	0	511	478	0	0	0	0	
1	0	0	0	0	515	481	0	0	0	0	
2	0	0	0	0	519	484	0	0	0	0	
3	0	0	0	0	522	485	0	0	0	0	
4	0	0	0	0	524	486	0	0	0	0	
5	0	0	0	0	524	486	0	0	0	0	
6	0	0	0	0	524	486	0	0	0	0	
7	0	0	0	0	524	485	0	0	0	0	
8	0	0	0	0	523	484	0	0	0	0	
9	0	0	0	0	522	483	0	0	0	0	
10	0	0	0	0	520	483	0	0	0	0	
11	0	0	0	0	520	483	0	0	0	0	
12	0	0	0	0	520	483	0	0	0	0	
13	0	0	0	0	520	484	0	0	0	0	
14	0	0	0	0	521	485	0	0	0	0	
15	0	0	0	0	522	487	0	0	0	0	
0	0	0	0	0	525	490	0	0	0	0	
1	0	0	0	0	527	492	0	0	0	0	
2	0	0	0	0	529	494	0	0	0	0	
3	0	0	0	0	532	496	0	0	0	0	
4	0	0	0	0	534	498	0	0	0	0	
5	0	0	0	0	536	500	0	0	0	0	
6	0	0	0	0	537	501	0	0	0	0	
7	0	0	0	0	538	502	0	0	0	0	
8	0	0	0	0	538	502	0	0	0	0	
9	0	0	0	0	537	501	0	0	0	0	
10	0	0	0	0	537	501	0	0	0	0	
11	0	0	0	0	537	500	0	0	0	0	
12	0	0	0	0	536	500	0	0	0	0	
13	0	0	0	0	536	500	0	0	0	0	
14	0	0	0	0	537	500	0	0	0	0	
15	0	0	0	0	537	500	0	0	0	0	
0	0	0	0	0	537	499	0	0	0	0	
1	0	0	0	0	537	499	0	0	0	0	
2	0	0	0	0	536	498	0	0	0	0	
3	0	0	0	0	535	496	0	0	0	0	
4	0	0	0	0	535	496	0	0	0	0	
5	0	0	0	0	534	496	0	0	0	0	
6	0	0	0	0	534	496	0	0	0	0	
7	0	0	0	0	534	496	0	0	0	0	
8	0	0	0	0	534	496	0	0	0	0	
9	0	0	0	0	534	496	0	0	0	0	
10	0	0	0	0	534	496	0	0	0	0	
11	0	0	0	0	534	496	0	0	0	0	
12	0	0	0	0	533	495	0	0	0	0	
13	0	0	0	0	531	495	0	0	0	0	
14	0	0	0	0	531	494	0	0	0	0	
15	0	0	0	0	529	492	0	0	0	0	
0	0	0	0	0	528	492	0	0	0	0	
1	0	0	0	0	527	491	0	0	0	0	
2	0	0	0	0	527	492	0	0	0	0	
3	0	0	0	0	529	492	0	0	0	0	
4	0	0	0	0	531	494	0	0	0	0	
5	0	0	0	0	534	496	0	0	0	0	
6	0	0	0	0	536	499	0	0	0	0	
7	0	0	0	0	539	502	0	0	0	0	
8	0	0	0	0	542	504	0	0	0	0	
9	0	0	0	0	544	506	0	0	0	0	
10	0	0	0	0	545	507	0	0	0	0	
11	0	0	0	0	545	508	0	0	0	0	
12	0	0	0	0	545	508	0	0	0	0	
13	0	0	0	0	545	507	0	0	0	0	
14	0	0	0	0	543	506	0	0	0	0	
15	0	0	0	0	542	504	0	0	0	0	
0	0	0	0	0	540	503	0	0	0	0	
1	0	0	0	0	539	502	0	0	0	0	
2	0	0	0	0	538	501	0	0	0	0	
3	0	0	0	0	537	500	0	0	0	0	
4	0	0	0	0	537	500	0	0	0	0	
5	0	0	0	0	536	499	0	0	0	0	
6	0	0	0	0	536	499	0	0	0	0	
7	0	0	0	0	536	498	0	0	0	0	
8	0	0	0	0	536	497	0	0	0	0	
9	0	0	0	0	535	496	0	0	0	0	
10	0	0	0	0	534	494	0	0	0	0	
11	0	0	0	0	531	493	0	0	0	0	
12	0	0	0	0	530	492	0	0	0	0	
13	0	0	0	0	527	489	0	0	0	0	
14	0	0	0	0	525	488	0	0	0	0	
15	0	0	0	0	523	487	0	0	0	0	
0	0	0	0	0	521	487	0	0	0	0	
1	0	0	0	0	520	486	0	0	0	0	
2	0	0	0	0	520	487	0	0	0	0	
3	0	0	0	0	521	487	0	0	0	0	
4	0	0	0	0	521	487	0	0	0	0	
5	0	0	0	0	523	488	0	0	0	0	
6	0	0	0	0	525	489	0	0	0	0	
7	0	0	0	0	527	489	0	0	0	0	
8	0	0	0	0	529	491	0	0	0	0	
9	0	0	0	0	531	492	0	0	0	0	
10	0	0	0	0	534	495	0	0	0	0	
11	0	0	0	0	538	499	0	0	0	0	
12	0	0	0	0	543	503	0	0	0	0	
13	0	0	0	0	547	508	0	0	0	0	
14	0	0	0	0	552	514	0	0	0	0	
15	0	0	0	0	558	520	0	0	0	0	
0	0	0	0	0	563	526	0	0	0	0	
1	0	0	0	0	568	532	0	0	0	0	
2	0	0	0	0	573	537	0	0	0	0	
3	0	0	0	0	576	542	0	0	0	0	
4	0	0	0	0	578	544	0	0	0	0	
5	0	0	0	0	578	544	0	0	0	0	
6	0	0	0	0	575	543	0	0	0	0	
7	0	0	0	0	571	539	0	0	0	0	
8	0	0	0	0	565	532	0	0	0	0	
9	0	0	0	0	558	525	0	0	0	0	
10	0	0	0	0	550	518	0	0	0	0	
11	0	0	0	0	540	508	0	0	0	0	
12	0	0	0	0	532	500	0	0	0	0	
13	0	0	0	0	525	493	0	0	0	0	
14	0	0	0	0	518	486	0	0	0	0	
15	0	0	0	0	513	482	0	0	0	0	
0	0	0	0	0	509	479	0	0	0	0	
1	0	0	0	0	508	478	0	0	0	0	
2	0	0	0	0	507	478	0	0	0	0	
3	0	0	0	0	509	479	0	0	0	0	
4	0	0	0	0	512	482	0	0	0	0	
5	0	0	0	0	517	486	0	0	0	0	
6	0	0	0	0	522	490	0	0	0	0	
7	0	0	0	0	527	494	0	0	0	0	
8	0	0	0	0	531	497	0	0	0	0	
9	0	0	0	0	535	500	0	0	0	0	
10	0	0	0	0	537	502	0	0	0	0	
11	0	0	0	0	538	502	0	0	0	0	
12	0	0	0	0	537	500	0	0	0	0	
13	0	0	0	0	535	498	0	0	0	0	
14	0	0	0	0	532	496	0	0	0	0	
15	0	0	0	0	529	492	0	0	0	0	
0	0	0	0	0	525	489	0	0	0	0	
1	0	0	0	0	521	484	0	0	0	0	
2	0	0	0	0	516	481	0	0	0	0	
3	0	0	0	0	513	479	0	0	0	0	
4	0	0	0	0	511	477	0	0	0	0	
5	0	0	0	0	509	476	0	0	0	0	
6	0	0	0	0	509	477	0	0	0	0	
7	0	0	0	0	510	478	0	0	0	0	
8	0	0	0	0	512	481	0	0	0	0	
9	0	0	0	0	516	486	0	0	0	0	
10	0	0	0	0	521	490	0	0	0	0	
11	0	0	0	0	527	496	0	0	0	0	
12	0	0	0	0	534	501	0	0	0	0	
13	0	0	0	0	542	507	0	0	0	0	
14	0	0	0	0	548	512	0	0	0	0	
15	0	0	0	0	555	516	0	0	0	0	
0	0	0	0	0	559	519	0	0	0	0	
1	0	0	0	0	561	521	0	0	0	0	
2	0	0	0	0	562	521	0	0	0	0	
3	0	0	0	0	561	520	0	0	0	0	
4	0	0	0	0	558	517	0	0	0	0	
5	0	0	0	0	553	514	0	0	0	0	
6	0	0	0	0	548	510	0	0	0	0	
7	0	0	0	0	543	506	0	0	0	0	
8	0	0	0	0	538	503	0	0	0	0	
9	0	0	0	0	534	500	0	0	0	0	
10	0	0	0	0	530	498	0	0	0	0	
11	0	0	0	0	526	496	0	0	0	0	
12	0	0	0	0	524	495	0	0	0	0	
13	0	0	0	0	521	494	0	0	0	0	
14	0	0	0	0	518	492	0	0	0	0	
15	0	0	0	0	516	490	0	0	0	0	
0	0	0	0	0	514	489	0	0	0	0	
1	0	0	0	0	514	487	0	0	0	0	
2	0	0	0	0	514	487	0	0	0	0	
3	0	0	0	0	515	486	0	0	0	0	
4	0	0	0	0	516	487	0	0	0	0	
5	0	0	0	0	519	487	0	0	0	0	
6	0	0	0	0	523	490	0	0	0	0	
7	0	0	0	0	527	492	0	0	0	0	
8	0	0	0	0	531	496	0	0	0	0	
9	0	0	0	0	536	500	0	0	0	0	
10	0	0	0	0	541	504	0	0	0	0	
11	0	0	0	0	547	510	0	0	0	0	
12	0	0	0	0	551	515	0	0	0	0	
13	0	0	0	0	556	519	0	0	0	0	
14	0	0	0	0	559	524	0	0	0	0	
15	0	0	0	0	561	527	0	0	0	0	
0	0	0	0	0	564	531	0	0	0	0	
1	0	0	0	0	564	532	0	0	0	0	
2	0	0	0	0	564	534	0	0	0	0	
3	0	0	0	0	564	534	0	0	0	0	
4	0	0	0	0	563	534	0	0	0	0	
5	0	0	0	0	561	533	0	0	0	0	
6	0	0	0	0	560	532	0	0	0	0	
7	0	0	0	0	559	531	0	0	0	0	
8	0	0	0	0	557	529	0	0	0	0	
9	0	0	0	0	556	528	0	0	0	0	
10	0	0	0	0	556	528	0	0	0	0	
11	0	0	0	0	555	527	0	0	0	0	
12	0	0	0	0	555	526	0	0	0	0	
13	0	0	0	0	555	525	0	0	0	0	
14	0	0	0	0	555	525	0	0	0	0	
15	0	0	0	0	556	527	0	0	0	0	
0	0	0	0	0	557	527	0	0	0	0	
1	0	0	0	0	558	528	0	0	0	0	
2	0	0	0	0	557	527	0	0	0	0	
3	0	0	0	0	556	526	0	0	0	0	
4	0	0	0	0	554	524	0	0	0	0	
5	0	0	0	0	551	520	0	0	0	0	
6	0	0	0	0	547	516	0	0	0	0	
7	0	0	0	0	542	511	0	0	0	0	
8	0	0	0	0	538	507	0	0	0	0	
9	0	0	0	0	535	504	0	0	0	0	
10	0	0	0	0	532	501	0	0	0	0	
11	0	0	0	0	530	499	0	0	0	0	
12	0	0	0	0	528	496	0	0	0	0	
13	0	0	0	0	527	495	0	0	0	0	
14	0	0	0	0	526	494	0	0	0	0	
15	0	0	0	0	525	492	0	0	0	0	
0	0	0	0	0	524	491	0	0	0	0	
1	0	0	0	0	524	489	0	0	0	0	
2	0	0	0	0	523	488	0	0	0	0	
3	0	0	0	0	523	488	0	0	0	0	
4	0	0	0	0	523	487	0	0	0	0	
5	0	0	0	0	523	487	0	0	0	0	
6	0	0	0	0	523	488	0	0	0	0	
7	0	0	0	0	523	489	0	0	0	0	
8	0	0	0	0	524	490	0	0	0	0	
9	0	0	0	0	525	492	0	0	0	0	
10	0	0	0	0	527	494	0	0	0	0	
11	0	0	0	0	528	496	0	0	0	0	
12	0	0	0	0	529	497	0	0	0	0	
13	0	0	0	0	531	499	0	0	0	0	
14	0	0	0	0	532	501	0	0	0	0	
15	0	0	0	0	534	503	0	0	0	0	
0	0	0	0	0	536	504	0	0	0	0	
1	0	0	0	0	537	505	0	0	0	0	
2	0	0	0	0	539	507	0	0	0	0	
3	0	0	0	0	540	508	0	0	0	0	
4	0	0	0	0	541	509	0	0	0	0	
5	0	0	0	0	542	509	0	0	0	0	
6	0	0	0	0	541	509	0	0	0	0	
7	0	0	0	0	542	510	0	0	0	0	
8	0	0	0	0	541	509	0	0	0	0	
9	0	0	0	0	539	508	0	0	0	0	
10	0	0	0	0	538	508	0	0	0	0	
11	0	0	0	0	536	505	0	0	0	0	
12	0	0	0	0	534	505	0	0	0	0	
13	0	0	0	0	533	504	0	0	0	0	
14	0	0	0	0	532	503	0	0	0	0	
15	0	0	0	0	532	503	0	0	0	0	
0	0	0	0	0	534	504	0	0	0	0	
1	0	0	0	0	536	506	0	0	0	0	
2	0	0	0	0	540	508	0	0	0	0	
3	0	0	0	0	543	510	0	0	0	0	
4	0	0	0	0	547	512	0	0	0	0	
5	0	0	0	0	550	513	0	0	0	0	
6	0	0	0	0	552	514	0	0	0	0	
7	0	0	0	0	553	513	0	0	0	0	
8	0	0	0	0	553	513	0	0	0	0	
9	0	0	0	0	553	513	0	0	0	0	
10	0	0	0	0	552	513	0	0	0	0	
11	0	0	0	0	552	515	0	0	0	0	
12	0	0	0	0	553	517	0	0	0	0	
13	0	0	0	0	554	519	0	0	0	0	
14	0	0	0	0	555	522	0	0	0	0	
15	0	0	0	0	554	524	0	0	0	0	
0	0	0	0	0	555	525	0	0	0	0	
1	0	0	0	0	553	525	0	0	0	0	
2	0	0	0	0	552	525	0	0	0	0	
3	0	0	0	0	550	523	0	0	0	0	
4	0	0	0	0	547	520	0	0	0	0	
5	0	0	0	0	544	517	0	0	0	0	
6	0	0	0	0	540	513	0	0	0	0	
7	0	0	0	0	536	508	0	0	0	0	
8	0	0	0	0	532	504	0	0	0	0	
9	0	0	0	0	529	499	0	0	0	0	
10	0	0	0	0	527	496	0	0	0	0	
11	0	0	0	0	525	493	0	0	0	0	
12	0	0	0	0	524	491	0	0	0	0	
13	0	0	0	0	525	490	0	0	0	0	
14	0	0	0	0	526	490	0	0	0	0	
15	0	0	0	0	529	493	0	0	0	0	
0	0	0	0	0	533	496	0	0	0	0	
1	0	0	0	0	537	499	0	0	0	0	
2	0	0	0	0	541	502	0	0	0	0	
3	0	0	0	0	544	506	0	0	0	0	
4	0	0	0	0	547	510	0	0	0	0	
5	0	0	0	0	548	512	0	0	0	0	
6	0	0	0	0	549	513	0	0	0	0	
7	0	0	0	0	548	514	0	0	0	0	
8	0	0	0	0	547	513	0	0	0	0	
9	0	0	0	0	546	513	0	0	0	0	
10	0	0	0	0	544	512	0	0	0	0	
11	0	0	0	0	542	511	0	0	0	0	
12	0	0	0	0	541	510	0	0	0	0	
13	0	0	0	0	539	507	0	0	0	0	
14	0	0	0	0	536	505	0	0	0	0	
15	0	0	0	0	534	503	0	0	0	0	
0	0	0	0	0	531	500	0	0	0	0	
1	0	0	0	0	527	497	0	0	0	0	
2	0	0	0	0	524	495	0	0	0	0	
3	0	0	0	0	522	493	0	0	0	0	
4	0	0	0	0	520	491	0	0	0	0	
5	0	0	0	0	519	490	0	0	0	0	
6	0	0	0	0	518	489	0	0	0	0	
7	0	0	0	0	518	489	0	0	0	0	
8	0	0	0	0	519	491	0	0	0	0	
9	0	0	0	0	521	492	0	0	0	0	
10	0	0	0	0	523	494	0	0	0	0	
11	0	0	0	0	525	495	0	0	0	0	
12	0	0	0	0	526	495	0	0	0	0	
13	0	0	0	0	527	496	0	0	0	0	
14	0	0	0	0	529	497	0	0	0	0	
15	0	0	0	0	530	498	0	0	0	0	
0	0	0	0	0	531	498	0	0	0	0	
1	0	0	0	0	531	498	0	0	0	0	
2	0	0	0	0	533	499	0	0	0	0	
3	0	0	0	0	534	500	0	0	0	0	
4	0	0	0	0	536	500	0	0	0	0	
5	0	0	0	0	537	502	0	0	0	0	
6	0	0	0	0	540	504	0	0	0	0	
7	0	0	0	0	543	505	0	0	0	0	
8	0	0	0	0	546	508	0	0	0	0	
9	0	0	0	0	549	510	0	0	0	0	
10	0	0	0	0	551	512	0	0	0	0	
11	0	0	0	0	554	514	0	0	0	0	
12	0	0	0	0	556	516	0	0	0	0	
13	0	0	0	0	558	518	0	0	0	0	
14	0	0	0	0	557	518	0	0	0	0	
15	0	0	0	0	555	516	0	0	0	0	
0	0	0	0	0	550	512	0	0	0	0	
1	0	0	0	0	542	505	0	0	0	0	
2	0	0	0	0	531	497	0	0	0	0	
3	0	0	0	0	519	486	0	0	0	0	
4	0	0	0	0	503	472	0	0	0	0	
5	0	0	0	0	486	458	0	0	0	0	
6	0	0	0	0	467	442	0	0	0	0	
7	0	0	0	0	448	424	0	0	0	0	
8	0	0	0	0	428	406	0	0	0	0	
9	0	0	0	0	408	387	0	0	0	0	
10	0	0	0	0	387	368	0	0	0	0	
11	0	0	0	0	368	350	0	0	0	0	
12	0	0	0	0	350	332	0	0	0	0	
13	0	0	0	0	333	315	0	0	0	0	
14	0	0	0	0	318	300	0	0	0	0	
15	0	0	0	0	305	286	0	0	0	0	
0	0	0	0	0	295	275	0	0	0	0	
1	0	0	0	0	288	266	0	0	0	0	
2	0	0	0	0	284	260	0	0	0	0	
3	0	0	0	0	284	256	0	0	0	0	
4	0	0	0	0	287	257	0	0	0	0	
5	0	0	0	0	294	260	0	0	0	0	
6	0	0	0	0	304	267	0	0	0	0	
7	0	0	0	0	317	276	0	0	0	0	
8	0	0	0	0	333	288	0	0	0	0	
9	0	0	0	0	350	302	0	0	0	0	
10	0	0	0	0	368	318	0	0	0	0	
11	0	0	0	0	387	335	0	0	0	0	
12	0	0	0	0	406	352	0	0	0	0	
13	0	0	0	0	425	370	0	0	0	0	
14	0	0	0	0	443	388	0	0	0	0	
15	0	0	0	0	461	407	0	0	0	0	
0	0	0	0	0	477	423	0	0	0	0	
1	0	0	0	0	494	441	0	0	0	0	
2	0	0	0	0	509	457	0	0	0	0	
3	0	0	0	0	523	472	0	0	0	0	
4	0	0	0	0	537	486	0	0	0	0	
5	0	0	0	0	549	499	0	0	0	0	
6	0	0	0	0	559	511	0	0	0	0	
7	0	0	0	0	568	520	0	0	0	0	
8	0	0	0	0	573	527	0	0	0	0	
9	0	0	0	0	577	533	0	0	0	0	
10	0	0	0	0	579	536	0	0	0	0	
11	0	0	0	0	578	537	0	0	0	0	
12	0	0	0	0	575	536	0	0	0	0	
13	0	0	0	0	571	532	0	0	0	0	
14	0	0	0	0	564	528	0	0	0	0	
15	0	0	0	0	558	523	0	0	0	0	
0	0	0	0	0	549	516	0	0	0	0	
1	0	0	0	0	542	510	0	0	0	0	
2	0	0	0	0	533	504	0	0	0	0	
3	0	0	0	0	527	498	0	0	0	0	
4	0	0	0	0	521	493	0	0	0	0	
5	0	0	0	0	517	491	0	0	0	0	
6	0	0	0	0	515	489	0	0	0	0	
7	0	0	0	0	514	489	0	0	0	0	
8	0	0	0	0	516	489	0	0	0	0	
9	0	0	0	0	518	491	0	0	0	0	
10	0	0	0	0	521	492	0	0	0	0	
11	0	0	0	0	524	494	0	0	0	0	
12	0	0	0	0	527	495	0	0	0	0	
13	0	0	0	0	530	496	0	0	0	0	
14	0	0	0	0	532	496	0	0	0	0	
15	0	0	0	0	534	496	0	0	0	0	
0	0	0	0	0	536	497	0	0	0	0	
1	0	0	0	0	536	497	0	0	0	0	
2	0	0	0	0	538	498	0	0	0	0	
3	0	0	0	0	540	499	0	0	0	0	
4	0	0	0	0	542	501	0	0	0	0	
5	0	0	0	0	544	504	0	0	0	0	
6	0	0	0	0	546	506	0	0	0	0	
7	0	0	0	0	550	510	0	0	0	0	
8	0	0	0	0	555	515	0	0	0	0	
9	0	0	0	0	560	521	0	0	0	0	
10	0	0	0	0	565	527	0	0	0	0	
11	0	0	0	0	572	534	0	0	0	0	
12	0	0	0	0	579	542	0	0	0	0	
13	0	0	0	0	585	547	0	0	0	0	
14	0	0	0	0	589	552	0	0	0	0	
15	0	0	0	0	591	555	0	0	0	0	
0	0	0	0	0	591	556	0	0	0	0	
1	0	0	0	0	591	555	0	0	0	0	
2	0	0	0	0	587	552	0	0	0	0	
3	0	0	0	0	582	548	0	0	0	0	
4	0	0	0	0	575	543	0	0	0	0	
5	0	0	0	0	568	538	0	0	0	0	
6	0	0	0	0	561	532	0	0	0	0	
7	0	0	0	0	555	527	0	0	0	0	
8	0	0	0	0	550	523	0	0	0	0	
9	0	0	0	0	545	519	0	0	0	0	
10	0	0	0	0	542	517	0	0	0	0	
11	0	0	0	0	542	516	0	0	0	0	
12	0	0	0	0	542	516	0	0	0	0	
13	0	0	0	0	543	516	0	0	0	0	
14	0	0	0	0	545	517	0	0	0	0	
15	0	0	0	0	548	520	0	0	0	0	
0	0	0	0	0	552	523	0	0	0	0	
1	0	0	0	0	557	526	0	0	0	0	
2	0	0	0	0	562	529	0	0	0	0	
3	0	0	0	0	568	534	0	0	0	0	
4	0	0	0	0	574	538	0	0	0	0	
5	0	0	0	0	580	543	0	0	0	0	
6	0	0	0	0	586	547	0	0	0	0	
7	0	0	0	0	591	549	0	0	0	0	
8	0	0	0	0	593	551	0	0	0	0	
9	0	0	0	0	595	552	0	0	0	0	
10	0	0	0	0	595	551	0	0	0	0	
11	0	0	0	0	593	549	0	0	0	0	
12	0	0	0	0	588	545	0	0	0	0	
13	0	0	0	0	581	540	0	0	0	0	
14	0	0	0	0	573	535	0	0	0	0	
15	0	0	0	0	564	529	0	0	0	0	
0	0	0	0	0	554	522	0	0	0	0	
1	0	0	0	0	544	515	0	0	0	0	
2	0	0	0	0	535	508	0	0	0	0	
3	0	0	0	0	527	503	0	0	0	0	
4	0	0	0	0	521	498	0	0	0	0	
5	0	0	0	0	516	494	0	0	0	0	
6	0	0	0	0	514	492	0	0	0	0	
7	0	0	0	0	514	490	0	0	0	0	
8	0	0	0	0	515	490	0	0	0	0	
9	0	0	0	0	519	491	0	0	0	0	
10	0	0	0	0	524	493	0	0	0	0	
11	0	0	0	0	529	496	0	0	0	0	
12	0	0	0	0	536	499	0	0	0	0	
13	0	0	0	0	543	503	0	0	0	0	
14	0	0	0	0	550	508	0	0	0	0	
15	0	0	0	0	556	512	0	0	0	0	
0	0	0	0	0	562	516	0	0	0	0	
1	0	0	0	0	567	520	0	0	0	0	
2	0	0	0	0	569	524	0	0	0	0	
3	0	0	0	0	570	525	0	0	0	0	
4	0	0	0	0	569	526	0	0	0	0	
5	0	0	0	0	567	525	0	0	0	0	
6	0	0	0	0	562	523	0	0	0	0	
7	0	0	0	0	557	520	0	0	0	0	
8	0	0	0	0	551	518	0	0	0	0	
9	0	0	0	0	546	514	0	0	0	0	
10	0	0	0	0	541	511	0	0	0	0	
11	0	0	0	0	536	508	0	0	0	0	
12	0	0	0	0	533	507	0	0	0	0	
13	0	0	0	0	532	505	0	0	0	0	
14	0	0	0	0	532	505	0	0	0	0	
15	0	0	0	0	534	506	0	0	0	0	
0	0	0	0	0	536	508	0	0	0	0	
1	0	0	0	0	540	511	0	0	0	0	
2	0	0	0	0	546	514	0	0	0	0	
3	0	0	0	0	551	517	0	0	0	0	
4	0	0	0	0	557	521	0	0	0	0	
5	0	0	0	0	563	525	0	0	0	0	
6	0	0	0	0	568	529	0	0	0	0	
7	0	0	0	0	572	533	0	0	0	0	
8	0	0	0	0	576	536	0	0	0	0	
9	0	0	0	0	579	539	0	0	0	0	
10	0	0	0	0	581	541	0	0	0	0	
11	0	0	0	0	583	543	0	0	0	0	
12	0	0	0	0	583	544	0	0	0	0	
13	0	0	0	0	583	545	0	0	0	0	
14	0	0	0	0	582	544	0	0	0	0	
15	0	0	0	0	579	541	0	0	0	0	
0	0	0	0	0	574	538	0	0	0	0	
1	0	0	0	0	568	534	0	0	0	0	
2	0	0	0	0	561	528	0	0	0	0	
3	0	0	0	0	552	521	0	0	0	0	
4	0	0	0	0	543	514	0	0	0	0	
5	0	0	0	0	535	507	0	0	0	0	
6	0	0	0	0	528	501	0	0	0	0	
7	0	0	0	0	523	497	0	0	0	0	
8	0	0	0	0	520	495	0	0	0	0	
9	0	0	0	0	519	493	0	0	0	0	
10	0	0	0	0	521	495	0	0	0	0	
11	0	0	0	0	525	499	0	0	0	0	
12	0	0	0	0	530	503	0	0	0	0	
13	0	0	0	0	536	507	0	0	0	0	
14	0	0	0	0	541	510	0	0	0	0	
15	0	0	0	0	546	513	0	0	0	0	
0	0	0	0	0	550	516	0	0	0	0	
1	0	0	0	0	553	518	0	0	0	0	
2	0	0	0	0	553	518	0	0	0	0	
3	0	0	0	0	553	516	0	0	0	0	
4	0	0	0	0	551	515	0	0	0	0	
5	0	0	0	0	550	512	0	0	0	0	
6	0	0	0	0	547	510	0	0	0	0	
7	0	0	0	0	543	507	0	0	0	0	
8	0	0	0	0	540	505	0	0	0	0	
9	0	0	0	0	537	504	0	0	0	0	
10	0	0	0	0	536	502	0	0	0	0	
11	0	0	0	0	535	501	0	0	0	0	
12	0	0	0	0	535	501	0	0	0	0	
13	0	0	0	0	536	502	0	0	0	0	
14	0	0	0	0	536	503	0	0	0	0	
15	0	0	0	0	539	504	0	0	0	0	
0	0	0	0	0	540	506	0	0	0	0	
1	0	0	0	0	542	508	0	0	0	0	
2	0	0	0	0	544	509	0	0	0	0	
3	0	0	0	0	545	510	0	0	0	0	
4	0	0	0	0	546	512	0	0	0	0	
5	0	0	0	0	547	513	0	0	0	0	
6	0	0	0	0	547	514	0	0	0	0	
7	0	0	0	0	547	515	0	0	0	0	
8	0	0	0	0	548	516	0	0	0	0	
9	0	0	0	0	549	516	0	0	0	0	
10	0	0	0	0	548	516	0	0	0	0	
11	0	0	0	0	548	515	0	0	0	0	
12	0	0	0	0	547	513	0	0	0	0	
13	0	0	0	0	545	512	0	0	0	0	
14	0	0	0	0	544	510	0	0	0	0	
15	0	0	0	0	543	508	0	0	0	0	
0	0	0	0	0	540	506	0	0	0	0	
1	0	0	0	0	539	504	0	0	0	0	
2	0	0	0	0	536	502	0	0	0	0	
3	0	0	0	0	534	499	0	0	0	0	
4	0	0	0	0	531	497	0	0	0	0	
5	0	0	0	0	528	495	0	0	0	0	
6	0	0	0	0	526	492	0	0	0	0	
7	0	0	0	0	522	489	0	0	0	0	
8	0	0	0	0	520	487	0	0	0	0	
9	0	0	0	0	518	485	0	0	0	0	
10	0	0	0	0	518	484	0	0	0	0	
11	0	0	0	0	517	484	0	0	0	0	
12	0	0	0	0	518	485	0	0	0	0	
13	0	0	0	0	521	487	0	0	0	0	
14	0	0	0	0	524	489	0	0	0	0	
15	0	0	0	0	528	492	0	0	0	0	
0	0	0	0	0	532	496	0	0	0	0	
1	0	0	0	0	536	498	0	0	0	0	
2	0	0	0	0	540	502	0	0	0	0	
3	0	0	0	0	543	504	0	0	0	0	
4	0	0	0	0	546	507	0	0	0	0	
5	0	0	0	0	548	508	0	0	0	0	
6	0	0	0	0	549	509	0	0	0	0	
7	0	0	0	0	550	510	0	0	0	0	
8	0	0	0	0	549	510	0	0	0	0	
9	0	0	0	0	548	510	0	0	0	0	
10	0	0	0	0	547	509	0	0	0	0	
11	0	0	0	0	545	508	0	0	0	0	
12	0	0	0	0	543	505	0	0	0	0	
13	0	0	0	0	540	503	0	0	0	0	
14	0	0	0	0	536	499	0	0	0	0	
15	0	0	0	0	531	495	0	0	0	0	
0	0	0	0	0	527	491	0	0	0	0	
1	0	0	0	0	523	486	0	0	0	0	
2	0	0	0	0	518	481	0	0	0	0	
3	0	0	0	0	513	477	0	0	0	0	
4	0	0	0	0	508	472	0	0	0	0	
5	0	0	0	0	504	469	0	0	0	0	
6	0	0	0	0	502	466	0	0	0	0	
7	0	0	0	0	500	464	0	0	0	0	
8	0	0	0	0	499	463	0	0	0	0	
9	0	0	0	0	499	463	0	0	0	0	
10	0	0	0	0	501	464	0	0	0	0	
11	0	0	0	0	504	466	0	0	0	0	
12	0	0	0	0	507	468	0	0	0	0	
13	0	0	0	0	510	471	0	0	0	0	
14	0	0	0	0	513	474	0	0	0	0	
15	0	0	0	0	518	476	0	0	0	0	
0	0	0	0	0	521	480	0	0	0	0	
1	0	0	0	0	524	482	0	0	0	0	
2	0	0	0	0	527	484	0	0	0	0	
3	0	0	0	0	528	485	0	0	0	0	
4	0	0	0	0	530	486	0	0	0	0	
5	0	0	0	0	530	486	0	0	0	0	
6	0	0	0	0	531	487	0	0	0	0	
7	0	0	0	0	530	486	0	0	0	0	
8	0	0	0	0	529	485	0	0	0	0	
9	0	0	0	0	529	485	0	0	0	0	
10	0	0	0	0	528	485	0	0	0	0	
11	0	0	0	0	527	485	0	0	0	0	
12	0	0	0	0	526	486	0	0	0	0	
13	0	0	0	0	526	486	0	0	0	0	
14	0	0	0	0	524	486	0	0	0	0	
15	0	0	0	0	524	487	0	0	0	0	
0	0	0	0	0	524	488	0	0	0	0	
1	0	0	0	0	524	489	0	0	0	0	
2	0	0	0	0	524	489	0	0	0	0	
3	0	0	0	0	524	490	0	0	0	0	
4	0	0	0	0	525	491	0	0	0	0	
5	0	0	0	0	526	491	0	0	0	0	
6	0	0	0	0	527	492	0	0	0	0	
7	0	0	0	0	528	494	0	0	0	0	
8	0	0	0	0	531	495	0	0	0	0	
9	0	0	0	0	534	497	0	0	0	0	
10	0	0	0	0	537	499	0	0	0	0	
11	0	0	0	0	540	501	0	0	0	0	
12	0	0	0	0	542	501	0	0	0	0	
13	0	0	0	0	542	500	0	0	0	0	
14	0	0	0	0	542	499	0	0	0	0	
15	0	0	0	0	541	496	0	0	0	0	
0	0	0	0	0	538	494	0	0	0	0	
1	0	0	0	0	536	492	0	0	0	0	
2	0	0	0	0	532	489	0	0	0	0	
3	0	0	0	0	530	488	0	0	0	0	
4	0	0	0	0	528	487	0	0	0	0	
5	0	0	0	0	526	487	0	0	0	0	
6	0	0	0	0	524	487	0	0	0	0	
7	0	0	0	0	524	487	0	0	0	0	
8	0	0	0	0	525	489	0	0	0	0	
9	0	0	0	0	525	489	0	0	0	0	
10	0	0	0	0	525	490	0	0	0	0	
11	0	0	0	0	526	491	0	0	0	0	
12	0	0	0	0	526	490	0	0	0	0	
13	0	0	0	0	527	491	0	0	0	0	
14	0	0	0	0	527	491	0	0	0	0	
15	0	0	0	0	527	491	0	0	0	0	
0	0	0	0	0	527	490	0	0	0	0	
1	0	0	0	0	527	490	0	0	0	0	
2	0	0	0	0	527	491	0	0	0	0	
3	0	0	0	0	529	492	0	0	0	0	
4	0	0	0	0	530	493	0	0	0	0	
5	0	0	0	0	532	495	0	0	0	0	
6	0	0	0	0	536	497	0	0	0	0	
7	0	0	0	0	540	500	0	0	0	0	
8	0	0	0	0	543	502	0	0	0	0	
9	0	0	0	0	545	505	0	0	0	0	
10	0	0	0	0	547	507	0	0	0	0	
11	0	0	0	0	547	507	0	0	0	0	
12	0	0	0	0	547	508	0	0	0	0	
13	0	0	0	0	545	507	0	0	0	0	
14	0	0	0	0	542	504	0	0	0	0	
15	0	0	0	0	539	502	0	0	0	0	
0	0	0	0	0	534	499	0	0	0	0	
1	0	0	0	0	530	496	0	0	0	0	
2	0	0	0	0	527	494	0	0	0	0	
3	0	0	0	0	523	490	0	0	0	0	
4	0	0	0	0	519	487	0	0	0	0	
5	0	0	0	0	516	483	0	0	0	0	
6	0	0	0	0	514	479	0	0	0	0	
7	0	0	0	0	512	476	0	0	0	0	
8	0	0	0	0	511	474	0	0	0	0	
9	0	0	0	0	511	472	0	0	0	0	
10	0	0	0	0	511	471	0	0	0	0	
11	0	0	0	0	514	472	0	0	0	0	
12	0	0	0	0	517	474	0	0	0	0	
13	0	0	0	0	521	477	0	0	0	0	
14	0	0	0	0	525	480	0	0	0	0	
15	0	0	0	0	529	484	0	0	0	0	
0	0	0	0	0	534	487	0	0	0	0	
1	0	0	0	0	537	491	0	0	0	0	
2	0	0	0	0	540	494	0	0	0	0	
3	0	0	0	0	542	496	0	0	0	0	
4	0	0	0	0	543	497	0	0	0	0	
5	0	0	0	0	544	499	0	0	0	0	
6	0	0	0	0	543	499	0	0	0	0	
7	0	0	0	0	542	499	0	0	0	0	
8	0	0	0	0	539	497	0	0	0	0	
9	0	0	0	0	535	494	0	0	0	0	
10	0	0	0	0	530	491	0	0	0	0	
11	0	0	0	0	524	487	0	0	0	0	
12	0	0	0	0	518	482	0	0	0	0	
13	0	0	0	0	513	478	0	0	0	0	
14	0	0	0	0	508	475	0	0	0	0	
15	0	0	0	0	505	474	0	0	0	0	
0	0	0	0	0	503	472	0	0	0	0	
1	0	0	0	0	502	473	0	0	0	0	
2	0	0	0	0	503	474	0	0	0	0	
3	0	0	0	0	505	475	0	0	0	0	
4	0	0	0	0	508	478	0	0	0	0	
5	0	0	0	0	511	480	0	0	0	0	
6	0	0	0	0	515	482	0	0	0	0	
7	0	0	0	0	517	483	0	0	0	0	
8	0	0	0	0	519	484	0	0	0	0	
9	0	0	0	0	521	484	0	0	0	0	
10	0	0	0	0	521	483	0	0	0	0	
11	0	0	0	0	522	483	0	0	0	0	
12	0	0	0	0	523	483	0	0	0	0	
13	0	0	0	0	522	483	0	0	0	0	
14	0	0	0	0	523	483	0	0	0	0	
15	0	0	0	0	524	484	0	0	0	0	
0	0	0	0	0	525	485	0	0	0	0	
1	0	0	0	0	527	487	0	0	0	0	
2	0	0	0	0	529	489	0	0	0	0	
3	0	0	0	0	532	492	0	0	0	0	
4	0	0	0	0	536	496	0	0	0	0	
5	0	0	0	0	540	500	0	0	0	0	
6	0	0	0	0	545	505	0	0	0	0	
7	0	0	0	0	549	510	0	0	0	0	
8	0	0	0	0	555	515	0	0	0	0	
9	0	0	0	0	559	518	0	0	0	0	
10	0	0	0	0	561	520	0	0	0	0	
11	0	0	0	0	561	520	0	0	0	0	
12	0	0	0	0	560	519	0	0	0	0	
13	0	0	0	0	557	516	0	0	0	0	
14	0	0	0	0	551	511	0	0	0	0	
15	0	0	0	0	544	505	0	0	0	0	
0	0	0	0	0	538	499	0	0	0	0	
1	0	0	0	0	531	494	0	0	0	0	
2	0	0	0	0	526	490	0	0	0	0	
3	0	0	0	0	521	487	0	0	0	0	
4	0	0	0	0	519	486	0	0	0	0	
5	0	0	0	0	519	486	0	0	0	0	
6	0	0	0	0	520	487	0	0	0	0	
7	0	0	0	0	524	490	0	0	0	0	
8	0	0	0	0	527	493	0	0	0	0	
9	0	0	0	0	532	497	0	0	0	0	
10	0	0	0	0	537	500	0	0	0	0	
11	0	0	0	0	540	503	0	0	0	0	
12	0	0	0	0	543	505	0	0	0	0	
13	0	0	0	0	545	506	0	0	0	0	
14	0	0	0	0	547	506	0	0	0	0	
15	0	0	0	0	546	505	0	0	0	0	
0	0	0	0	0	544	503	0	0	0	0	
1	0	0	0	0	543	501	0	0	0	0	
2	0	0	0	0	540	498	0	0	0	0	
3	0	0	0	0	537	496	0	0	0	0	
4	0	0	0	0	534	493	0	0	0	0	
5	0	0	0	0	530	489	0	0	0	0	
6	0	0	0	0	527	486	0	0	0	0	
7	0	0	0	0	523	482	0	0	0	0	
8	0	0	0	0	520	480	0	0	0	0	
9	0	0	0	0	517	477	0	0	0	0	
10	0	0	0	0	515	476	0	0	0	0	
11	0	0	0	0	514	475	0	0	0	0	
12	0	0	0	0	513	474	0	0	0	0	
13	0	0	0	0	514	475	0	0	0	0	
14	0	0	0	0	515	477	0	0	0	0	
15	0	0	0	0	518	479	0	0	0	0	
0	0	0	0	0	521	483	0	0	0	0	
1	0	0	0	0	526	488	0	0	0	0	
2	0	0	0	0	531	493	0	0	0	0	
3	0	0	0	0	536	499	0	0	0	0	
4	0	0	0	0	541	503	0	0	0	0	
5	0	0	0	0	546	508	0	0	0	0	
6	0	0	0	0	550	513	0	0	0	0	
7	0	0	0	0	553	515	0	0	0	0	
8	0	0	0	0	555	517	0	0	0	0	
9	0	0	0	0	554	518	0	0	0	0	
10	0	0	0	0	553	518	0	0	0	0	
11	0	0	0	0	551	516	0	0	0	0	
12	0	0	0	0	548	515	0	0	0	0	
13	0	0	0	0	545	512	0	0	0	0	
14	0	0	0	0	540	508	0	0	0	0	
15	0	0	0	0	536	505	0	0	0	0	
0	0	0	0	0	532	501	0	0	0	0	
1	0	0	0	0	527	497	0	0	0	0	
2	0	0	0	0	523	492	0	0	0	0	
3	0	0	0	0	519	488	0	0	0	0	
4	0	0	0	0	515	485	0	0	0	0	
5	0	0	0	0	513	482	0	0	0	0	
6	0	0	0	0	511	480	0	0	0	0	
7	0	0	0	0	510	478	0	0	0	0	
8	0	0	0	0	509	478	0	0	0	0	
9	0	0	0	0	511	478	0	0	0	0	
10	0	0	0	0	513	480	0	0	0	0	
11	0	0	0	0	515	481	0	0	0	0	
12	0	0	0	0	519	484	0	0	0	0	
13	0	0	0	0	523	486	0	0	0	0	
14	0	0	0	0	527	488	0	0	0	0	
15	0	0	0	0	531	491	0	0	0	0	
0	0	0	0	0	533	492	0	0	0	0	
1	0	0	0	0	534	493	0	0	0	0	
2	0	0	0	0	536	494	0	0	0	0	
3	0	0	0	0	536	496	0	0	0	0	
4	0	0	0	0	537	496	0	0	0	0	
5	0	0	0	0	537	497	0	0	0	0	
6	0	0	0	0	536	497	0	0	0	0	
7	0	0	0	0	536	499	0	0	0	0	
8	0	0	0	0	536	499	0	0	0	0	
9	0	0	0	0	535	499	0	0	0	0	
10	0	0	0	0	534	499	0	0	0	0	
11	0	0	0	0	532	499	0	0	0	0	
12	0	0	0	0	531	499	0	0	0	0	
13	0	0	0	0	531	499	0	0	0	0	
14	0	0	0	0	531	499	0	0	0	0	
15	0	0	0	0	532	499	0	0	0	0	
0	0	0	0	0	533	499	0	0	0	0	
1	0	0	0	0	534	500	0	0	0	0	
2	0	0	0	0	536	501	0	0	0	0	
3	0	0	0	0	538	502	0	0	0	0	
4	0	0	0	0	541	504	0	0	0	0	
5	0	0	0	0	543	504	0	0	0	0	
6	0	0	0	0	545	506	0	0	0	0	
7	0	0	0	0	546	507	0	0	0	0	
8	0	0	0	0	546	507	0	0	0	0	
9	0	0	0	0	545	506	0	0	0	0	
10	0	0	0	0	543	504	0	0	0	0	
11	0	0	0	0	540	503	0	0	0	0	
12	0	0	0	0	537	500	0	0	0	0	
13	0	0	0	0	533	497	0	0	0	0	
14	0	0	0	0	528	494	0	0	0	0	
15	0	0	0	0	524	491	0	0	0	0	
0	0	0	0	0	519	488	0	0	0	0	
1	0	0	0	0	516	486	0	0	0	0	
2	0	0	0	0	513	483	0	0	0	0	
3	0	0	0	0	512	482	0	0	0	0	
4	0	0	0	0	511	480	0	0	0	0	
5	0	0	0	0	511	480	0	0	0	0	
6	0	0	0	0	513	480	0	0	0	0	
7	0	0	0	0	516	481	0	0	0	0	
8	0	0	0	0	519	483	0	0	0	0	
9	0	0	0	0	524	486	0	0	0	0	
10	0	0	0	0	528	490	0	0	0	0	
11	0	0	0	0	533	495	0	0	0	0	
12	0	0	0	0	538	499	0	0	0	0	
13	0	0	0	0	543	504	0	0	0	0	
14	0	0	0	0	546	507	0	0	0	0	
15	0	0	0	0	548	511	0	0	0	0	
0	0	0	0	0	551	513	0	0	0	0	
1	0	0	0	0	551	515	0	0	0	0	
2	0	0	0	0	552	516	0	0	0	0	
3	0	0	0	0	552	517	0	0	0	0	
4	0	0	0	0	552	517	0	0	0	0	
5	0	0	0	0	552	518	0	0	0	0	
6	0	0	0	0	552	518	0	0	0	0	
7	0	0	0	0	552	518	0	0	0	0	
8	0	0	0	0	551	517	0	0	0	0	
9	0	0	0	0	550	516	0	0	0	0	
10	0	0	0	0	549	515	0	0	0	0	
11	0	0	0	0	547	513	0	0	0	0	
12	0	0	0	0	545	511	0	0	0	0	
13	0	0	0	0	543	508	0	0	0	0	
14	0	0	0	0	539	505	0	0	0	0	
15	0	0	0	0	536	503	0	0	0	0	
0	0	0	0	0	534	500	0	0	0	0	
1	0	0	0	0	531	497	0	0	0	0	
2	0	0	0	0	529	495	0	0	0	0	
3	0	0	0	0	528	494	0	0	0	0	
4	0	0	0	0	529	494	0	0	0	0	
5	0	0	0	0	531	494	0	0	0	0	
6	0	0	0	0	533	495	0	0	0	0	
7	0	0	0	0	536	496	0	0	0	0	
8	0	0	0	0	537	496	0	0	0	0	
9	0	0	0	0	538	497	0	0	0	0	
10	0	0	0	0	537	495	0	0	0	0	
11	0	0	0	0	535	493	0	0	0	0	
12	0	0	0	0	531	489	0	0	0	0	
13	0	0	0	0	526	486	0	0	0	0	
14	0	0	0	0	521	482	0	0	0	0	
15	0	0	0	0	517	480	0	0	0	0	
0	0	0	0	0	512	477	0	0	0	0	
1	0	0	0	0	509	475	0	0	0	0	
2	0	0	0	0	506	475	0	0	0	0	
3	0	0	0	0	505	475	0	0	0	0	
4	0	0	0	0	506	476	0	0	0	0	
5	0	0	0	0	507	478	0	0	0	0	
6	0	0	0	0	510	481	0	0	0	0	
7	0	0	0	0	513	483	0	0	0	0	
8	0	0	0	0	517	487	0	0	0	0	
9	0	0	0	0	522	490	0	0	0	0	
10	0	0	0	0	527	493	0	0	0	0	
11	0	0	0	0	531	496	0	0	0	0	
12	0	0	0	0	536	498	0	0	0	0	
13	0	0	0	0	540	501	0	0	0	0	
14	0	0	0	0	542	502	0	0	0	0	
15	0	0	0	0	543	502	0	0	0	0	
0	0	0	0	0	542	500	0	0	0	0	
1	0	0	0	0	540	497	0	0	0	0	
2	0	0	0	0	536	494	0	0	0	0	
3	0	0	0	0	531	489	0	0	0	0	
4	0	0	0	0	525	485	0	0	0	0	
5	0	0	0	0	519	481	0	0	0	0	
6	0	0	0	0	514	477	0	0	0	0	
7	0	0	0	0	511	476	0	0	0	0	
8	0	0	0	0	510	476	0	0	0	0	
9	0	0	0	0	511	478	0	0	0	0	
10	0	0	0	0	515	481	0	0	0	0	
11	0	0	0	0	520	487	0	0	0	0	
12	0	0	0	0	528	494	0	0	0	0	
13	0	0	0	0	536	501	0	0	0	0	
14	0	0	0	0	545	508	0	0	0	0	
15	0	0	0	0	553	515	0	0	0	0	
0	0	0	0	0	561	522	0	0	0	0	
1	0	0	0	0	569	528	0	0	0	0	
2	0	0	0	0	574	532	0	0	0	0	
3	0	0	0	0	577	534	0	0	0	0	
4	0	0	0	0	577	534	0	0	0	0	
5	0	0	0	0	574	532	0	0	0	0	
6	0	0	0	0	568	527	0	0	0	0	
7	0	0	0	0	560	520	0	0	0	0	
8	0	0	0	0	549	512	0	0	0	0	
9	0	0	0	0	538	503	0	0	0	0	
10	0	0	0	0	526	495	0	0	0	0	
11	0	0	0	0	516	488	0	0	0	0	
12	0	0	0	0	508	483	0	0	0	0	
13	0	0	0	0	502	479	0	0	0	0	
14	0	0	0	0	499	477	0	0	0	0	
15	0	0	0	0	498	477	0	0	0	0	
0	0	0	0	0	500	479	0	0	0	0	
1	0	0	0	0	504	482	0	0	0	0	
2	0	0	0	0	510	486	0	0	0	0	
3	0	0	0	0	515	489	0	0	0	0	
4	0	0	0	0	522	495	0	0	0	0	
5	0	0	0	0	529	499	0	0	0	0	
6	0	0	0	0	535	502	0	0	0	0	
7	0	0	0	0	540	505	0	0	0	0	
8	0	0	0	0	544	508	0	0	0	0	
9	0	0	0	0	547	510	0	0	0	0	
10	0	0	0	0	549	511	0	0	0	0	
11	0	0	0	0	550	511	0	0	0	0	
12	0	0	0	0	550	511	0	0	0	0	
13	0	0	0	0	551	512	0	0	0	0	
14	0	0	0	0	550	512	0	0	0	0	
15	0	0	0	0	549	512	0	0	0	0	
0	0	0	0	0	546	510	0	0	0	0	
1	0	0	0	0	542	508	0	0	0	0	
2	0	0	0	0	537	504	0	0	0	0	
3	0	0	0	0	531	501	0	0	0	0	
4	0	0	0	0	525	496	0	0	0	0	
5	0	0	0	0	517	491	0	0	0	0	
6	0	0	0	0	510	484	0	0	0	0	
7	0	0	0	0	502	478	0	0	0	0	
8	0	0	0	0	495	473	0	0	0	0	
9	0	0	0	0	491	468	0	0	0	0	
10	0	0	0	0	487	465	0	0	0	0	
11	0	0	0	0	486	463	0	0	0	0	
12	0	0	0	0	486	462	0	0	0	0	
13	0	0	0	0	488	462	0	0	0	0	
14	0	0	0	0	491	463	0	0	0	0	
15	0	0	0	0	493	463	0	0	0	0	
0	0	0	0	0	496	463	0	0	0	0	
1	0	0	0	0	497	463	0	0	0	0	
2	0	0	0	0	497	462	0	0	0	0	
3	0	0	0	0	496	460	0	0	0	0	
4	0	0	0	0	493	456	0	0	0	0	
5	0	0	0	0	488	452	0	0	0	0	
6	0	0	0	0	482	447	0	0	0	0	
7	0	0	0	0	473	440	0	0	0	0	
8	0	0	0	0	464	433	0	0	0	0	
9	0	0	0	0	454	424	0	0	0	0	
10	0	0	0	0	442	415	0	0	0	0	
11	0	0	0	0	430	404	0	0	0	0	
12	0	0	0	0	417	393	0	0	0	0	
13	0	0	0	0	404	382	0	0	0	0	
14	0	0	0	0	391	369	0	0	0	0	
15	0	0	0	0	379	356	0	0	0	0	
0	0	0	0	0	365	342	0	0	0	0	
1	0	0	0	0	352	327	0	0	0	0	
2	0	0	0	0	339	313	0	0	0	0	
3	0	0	0	0	327	299	0	0	0	0	
4	0	0	0	0	314	284	0	0	0	0	
5	0	0	0	0	302	271	0	0	0	0	
6	0	0	0	0	291	258	0	0	0	0	
7	0	0	0	0	281	248	0	0	0	0	
8	0	0	0	0	274	240	0	0	0	0	
9	0	0	0	0	270	236	0	0	0	0	
10	0	0	0	0	269	235	0	0	0	0	
11	0	0	0	0	271	238	0	0	0	0	
12	0	0	0	0	279	246	0	0	0	0	
13	0	0	0	0	292	259	0	0	0	0	
14	0	0	0	0	309	275	0	0	0	0	
15	0	0	0	0	330	294	0	0	0	0	
0	0	0	0	0	354	316	0	0	0	0	
1	0	0	0	0	381	340	0	0	0	0	
2	0	0	0	0	408	365	0	0	0	0	
3	0	0	0	0	436	390	0	0	0	0	
4	0	0	0	0	463	414	0	0	0	0	
5	0	0	0	0	488	436	0	0	0	0	
6	0	0	0	0	511	457	0	0	0	0	
7	0	0	0	0	531	476	0	0	0	0	
8	0	0	0	0	548	492	0	0	0	0	
9	0	0	0	0	562	505	0	0	0	0	
10	0	0	0	0	571	516	0	0	0	0	
11	0	0	0	0	578	526	0	0	0	0	
12	0	0	0	0	581	531	0	0	0	0	
13	0	0	0	0	582	536	0	0	0	0	
14	0	0	0	0	580	537	0	0	0	0	
15	0	0	0	0	575	537	0	0	0	0	
0	0	0	0	0	568	535	0	0	0	0	
1	0	0	0	0	560	530	0	0	0	0	
2	0	0	0	0	552	525	0	0	0	0	
3	0	0	0	0	543	519	0	0	0	0	
4	0	0	0	0	536	513	0	0	0	0	
5	0	0	0	0	532	509	0	0	0	0	
6	0	0	0	0	530	507	0	0	0	0	
7	0	0	0	0	530	505	0	0	0	0	
8	0	0	0	0	532	505	0	0	0	0	
9	0	0	0	0	536	506	0	0	0	0	
10	0	0	0	0	542	510	0	0	0	0	
11	0	0	0	0	549	512	0	0	0	0	
12	0	0	0	0	555	516	0	0	0	0	
13	0	0	0	0	561	520	0	0	0	0	
14	0	0	0	0	565	523	0	0	0	0	
15	0	0	0	0	569	527	0	0	0	0	
0	0	0	0	0	569	527	0	0	0	0	
1	0	0	0	0	566	526	0	0	0	0	
2	0	0	0	0	559	521	0	0	0	0	
3	0	0	0	0	550	516	0	0	0	0	
4	0	0	0	0	540	510	0	0	0	0	
5	0	0	0	0	528	502	0	0	0	0	
6	0	0	0	0	517	494	0	0	0	0	
7	0	0	0	0	507	486	0	0	0	0	
8	0	0	0	0	497	479	0	0	0	0	
9	0	0	0	0	491	474	0	0	0	0	
10	0	0	0	0	486	470	0	0	0	0	
11	0	0	0	0	484	467	0	0	0	0	
12	0	0	0	0	485	467	0	0	0	0	
13	0	0	0	0	488	467	0	0	0	0	
14	0	0	0	0	493	470	0	0	0	0	
15	0	0	0	0	500	473	0	0	0	0	
0	0	0	0	0	507	477	0	0	0	0	
1	0	0	0	0	515	481	0	0	0	0	
2	0	0	0	0	522	485	0	0	0	0	
3	0	0	0	0	529	490	0	0	0	0	
4	0	0	0	0	535	494	0	0	0	0	
5	0	0	0	0	540	498	0	0	0	0	
6	0	0	0	0	543	501	0	0	0	0	
7	0	0	0	0	545	504	0	0	0	0	
8	0	0	0	0	547	508	0	0	0	0	
9	0	0	0	0	548	510	0	0	0	0	
10	0	0	0	0	548	512	0	0	0	0	
11	0	0	0	0	548	513	0	0	0	0	
12	0	0	0	0	547	514	0	0	0	0	
13	0	0	0	0	546	515	0	0	0	0	
14	0	0	0	0	545	515	0	0	0	0	
15	0	0	0	0	544	515	0	0	0	0	
0	0	0	0	0	543	515	0	0	0	0	
1	0	0	0	0	542	515	0	0	0	0	
2	0	0	0	0	542	514	0	0	0	0	
3	0	0	0	0	541	513	0	0	0	0	
4	0	0	0	0	542	513	0	0	0	0	
5	0	0	0	0	543	513	0	0	0	0	
6	0	0	0	0	544	513	0	0	0	0	
7	0	0	0	0	547	516	0	0	0	0	
8	0	0	0	0	551	519	0	0	0	0	
9	0	0	0	0	555	522	0	0	0	0	
10	0	0	0	0	560	526	0	0	0	0	
11	0	0	0	0	563	528	0	0	0	0	
12	0	0	0	0	567	532	0	0	0	0	
13	0	0	0	0	568	533	0	0	0	0	
14	0	0	0	0	570	535	0	0	0	0	
15	0	0	0	0	570	534	0	0	0	0	
0	0	0	0	0	569	534	0	0	0	0	
1	0	0	0	0	568	532	0	0	0	0	
2	0	0	0	0	567	531	0	0	0	0	
3	0	0	0	0	563	528	0	0	0	0	
4	0	0	0	0	561	525	0	0	0	0	
5	0	0	0	0	556	522	0	0	0	0	
6	0	0	0	0	553	518	0	0	0	0	
7	0	0	0	0	549	514	0	0	0	0	
8	0	0	0	0	545	511	0	0	0	0	
9	0	0	0	0	542	509	0	0	0	0	
10	0	0	0	0	540	507	0	0	0	0	
11	0	0	0	0	540	508	0	0	0	0	
12	0	0	0	0	542	511	0	0	0	0	
13	0	0	0	0	545	514	0	0	0	0	
14	0	0	0	0	550	519	0	0	0	0	
15	0	0	0	0	556	525	0	0	0	0	
0	0	0	0	0	563	532	0	0	0	0	
1	0	0	0	0	569	538	0	0	0	0	
2	0	0	0	0	575	543	0	0	0	0	
3	0	0	0	0	577	544	0	0	0	0	
4	0	0	0	0	578	545	0	0	0	0	
5	0	0	0	0	577	544	0	0	0	0	
6	0	0	0	0	573	540	0	0	0	0	
7	0	0	0	0	568	535	0	0	0	0	
8	0	0	0	0	562	530	0	0	0	0	
9	0	0	0	0	555	524	0	0	0	0	
10	0	0	0	0	549	519	0	0	0	0	
11	0	0	0	0	544	516	0	0	0	0	
12	0	0	0	0	541	513	0	0	0	0	
13	0	0	0	0	540	512	0	0	0	0	
14	0	0	0	0	540	514	0	0	0	0	
15	0	0	0	0	543	516	0	0	0	0	
0	0	0	0	0	546	519	0	0	0	0	
1	0	0	0	0	550	523	0	0	0	0	
2	0	0	0	0	553	525	0	0	0	0	
3	0	0	0	0	554	527	0	0	0	0	
4	0	0	0	0	555	527	0	0	0	0	
5	0	0	0	0	555	526	0	0	0	0	
6	0	0	0	0	553	525	0	0	0	0	
7	0	0	0	0	551	521	0	0	0	0	
8	0	0	0	0	547	516	0	0	0	0	
9	0	0	0	0	543	512	0	0	0	0	
10	0	0	0	0	537	506	0	0	0	0	
11	0	0	0	0	531	500	0	0	0	0	
12	0	0	0	0	526	494	0	0	0	0	
13	0	0	0	0	521	489	0	0	0	0	
14	0	0	0	0	517	486	0	0	0	0	
15	0	0	0	0	515	484	0	0	0	0	
0	0	0	0	0	515	484	0	0	0	0	
1	0	0	0	0	517	487	0	0	0	0	
2	0	0	0	0	521	491	0	0	0	0	
3	0	0	0	0	528	497	0	0	0	0	
4	0	0	0	0	536	504	0	0	0	0	
5	0	0	0	0	543	510	0	0	0	0	
6	0	0	0	0	550	516	0	0	0	0	
7	0	0	0	0	556	519	0	0	0	0	
8	0	0	0	0	559	521	0	0	0	0	
9	0	0	0	0	560	521	0	0	0	0	
10	0	0	0	0	558	518	0	0	0	0	
11	0	0	0	0	554	514	0	0	0	0	
12	0	0	0	0	547	508	0	0	0	0	
13	0	0	0	0	540	503	0	0	0	0	
14	0	0	0	0	532	496	0	0	0	0	
15	0	0	0	0	525	491	0	0	0	0	
0	0	0	0	0	518	486	0	0	0	0	
1	0	0	0	0	512	481	0	0	0	0	
2	0	0	0	0	509	479	0	0	0	0	
3	0	0	0	0	508	478	0	0	0	0	
4	0	0	0	0	507	478	0	0	0	0	
5	0	0	0	0	509	480	0	0	0	0	
6	0	0	0	0	512	482	0	0	0	0	
7	0	0	0	0	517	486	0	0	0	0	
8	0	0	0	0	523	490	0	0	0	0	
9	0	0	0	0	529	495	0	0	0	0	
10	0	0	0	0	535	499	0	0	0	0	
11	0	0	0	0	542	504	0	0	0	0	
12	0	0	0	0	548	510	0	0	0	0	
13	0	0	0	0	554	515	0	0	0	0	
14	0	0	0	0	559	519	0	0	0	0	
15	0	0	0	0	562	522	0	0	0	0	
0	0	0	0	0	563	524	0	0	0	0	
1	0	0	0	0	564	525	0	0	0	0	
2	0	0	0	0	563	524	0	0	0	0	
3	0	0	0	0	560	522	0	0	0	0	
4	0	0	0	0	556	520	0	0	0	0	
5	0	0	0	0	551	516	0	0	0	0	
6	0	0	0	0	545	513	0	0	0	0	
7	0	0	0	0	540	510	0	0	0	0	
8	0	0	0	0	536	507	0	0	0	0	
9	0	0	0	0	532	504	0	0	0	0	
10	0	0	0	0	528	501	0	0	0	0	
11	0	0	0	0	526	499	0	0	0	0	
12	0	0	0	0	523	496	0	0	0	0	
13	0	0	0	0	521	494	0	0	0	0	
14	0	0	0	0	520	492	0	0	0	0	
15	0	0	0	0	520	492	0	0	0	0	
0	0	0	0	0	521	491	0	0	0	0	
1	0	0	0	0	522	491	0	0	0	0	
2	0	0	0	0	525	493	0	0	0	0	
3	0	0	0	0	528	495	0	0	0	0	
4	0	0	0	0	531	499	0	0	0	0	
5	0	0	0	0	537	503	0	0	0	0	
6	0	0	0	0	543	508	0	0	0	0	
7	0	0	0	0	549	513	0	0	0	0	
8	0	0	0	0	553	516	0	0	0	0	
9	0	0	0	0	555	518	0	0	0	0	
10	0	0	0	0	555	518	0	0	0	0	
11	0	0	0	0	552	515	0	0	0	0	
12	0	0	0	0	548	512	0	0	0	0	
13	0	0	0	0	543	506	0	0	0	0	
14	0	0	0	0	536	501	0	0	0	0	
15	0	0	0	0	529	496	0	0	0	0	
0	0	0	0	0	523	491	0	0	0	0	
1	0	0	0	0	518	488	0	0	0	0	
2	0	0	0	0	515	486	0	0	0	0	
3	0	0	0	0	514	486	0	0	0	0	
4	0	0	0	0	515	487	0	0	0	0	
5	0	0	0	0	519	489	0	0	0	0	
6	0	0	0	0	523	493	0	0	0	0	
7	0	0	0	0	527	496	0	0	0	0	
8	0	0	0	0	531	499	0	0	0	0	
9	0	0	0	0	535	500	0	0	0	0	
10	0	0	0	0	537	499	0	0	0	0	
11	0	0	0	0	537	498	0	0	0	0	
12	0	0	0	0	536	495	0	0	0	0	
13	0	0	0	0	533	492	0	0	0	0	
14	0	0	0	0	530	487	0	0	0	0	
15	0	0	0	0	527	484	0	0	0	0	
0	0	0	0	0	523	480	0	0	0	0	
1	0	0	0	0	519	478	0	0	0	0	
2	0	0	0	0	514	475	0	0	0	0	
3	0	0	0	0	511	473	0	0	0	0	
4	0	0	0	0	507	471	0	0	0	0	
5	0	0	0	0	504	470	0	0	0	0	
6	0	0	0	0	501	469	0	0	0	0	
7	0	0	0	0	498	470	0	0	0	0	
8	0	0	0	0	497	471	0	0	0	0	
9	0	0	0	0	497	472	0	0	0	0	
10	0	0	0	0	498	473	0	0	0	0	
11	0	0	0	0	499	475	0	0	0	0	
12	0	0	0	0	501	477	0	0	0	0	
13	0	0	0	0	504	478	0	0	0	0	
14	0	0	0	0	505	479	0	0	0	0	
15	0	0	0	0	508	480	0	0	0	0	
0	0	0	0	0	510	481	0	0	0	0	
1	0	0	0	0	512	481	0	0	0	0	
2	0	0	0	0	515	482	0	0	0	0	
3	0	0	0	0	517	483	0	0	0	0	
4	0	0	0	0	519	483	0	0	0	0	
5	0	0	0	0	520	483	0	0	0	0	
6	0	0	0	0	522	485	0	0	0	0	
7	0	0	0	0	524	486	0	0	0	0	
8	0	0	0	0	525	487	0	0	0	0	
9	0	0	0	0	527	489	0	0	0	0	
10	0	0	0	0	527	490	0	0	0	0	
11	0	0	0	0	527	492	0	0	0	0	
12	0	0	0	0	528	494	0	0	0	0	
13	0	0	0	0	528	495	0	0	0	0	
14	0	0	0	0	529	497	0	0	0	0	
15	0	0	0	0	530	499	0	0	0	0	
0	0	0	0	0	531	501	0	0	0	0	
1	0	0	0	0	533	503	0	0	0	0	
2	0	0	0	0	535	505	0	0	0	0	
3	0	0	0	0	536	507	0	0	0	0	
4	0	0	0	0	539	509	0	0	0	0	
5	0	0	0	0	540	512	0	0	0	0	
6	0	0	0	0	543	514	0	0	0	0	
7	0	0	0	0	544	515	0	0	0	0	
8	0	0	0	0	544	515	0	0	0	0	
9	0	0	0	0	543	514	0	0	0	0	
10	0	0	0	0	540	512	0	0	0	0	
11	0	0	0	0	537	508	0	0	0	0	
12	0	0	0	0	532	503	0	0	0	0	
13	0	0	0	0	527	497	0	0	0	0	
14	0	0	0	0	521	492	0	0	0	0	
15	0	0	0	0	516	486	0	0	0	0	
0	0	0	0	0	512	482	0	0	0	0	
1	0	0	0	0	510	479	0	0	0	0	
2	0	0	0	0	508	477	0	0	0	0	
3	0	0	0	0	508	476	0	0	0	0	
4	0	0	0	0	509	478	0	0	0	0	
5	0	0	0	0	512	480	0	0	0	0	
6	0	0	0	0	517	483	0	0	0	0	
7	0	0	0	0	523	488	0	0	0	0	
8	0	0	0	0	529	493	0	0	0	0	
9	0	0	0	0	536	499	0	0	0	0	
10	0	0	0	0	543	505	0	0	0	0	
11	0	0	0	0	550	511	0	0	0	0	
12	0	0	0	0	555	515	0	0	0	0	
13	0	0	0	0	558	517	0	0	0	0	
14	0	0	0	0	560	519	0	0	0	0	
15	0	0	0	0	560	519	0	0	0	0	
0	0	0	0	0	558	518	0	0	0	0	
1	0	0	0	0	554	515	0	0	0	0	
2	0	0	0	0	548	511	0	0	0	0	
3	0	0	0	0	542	506	0	0	0	0	
4	0	0	0	0	536	502	0	0	0	0	
5	0	0	0	0	529	497	0	0	0	0	
6	0	0	0	0	524	493	0	0	0	0	
7	0	0	0	0	519	489	0	0	0	0	
8	0	0	0	0	515	487	0	0	0	0	
9	0	0	0	0	512	486	0	0	0	0	
10	0	0	0	0	511	484	0	0	0	0	
11	0	0	0	0	510	484	0	0	0	0	
12	0	0	0	0	511	483	0	0	0	0	
13	0	0	0	0	511	483	0	0	0	0	
14	0	0	0	0	513	484	0	0	0	0	
15	0	0	0	0	515	485	0	0	0	0	
0	0	0	0	0	518	486	0	0	0	0	
1	0	0	0	0	520	488	0	0	0	0	
2	0	0	0	0	523	490	0	0	0	0	
3	0	0	0	0	526	492	0	0	0	0	
4	0	0	0	0	528	494	0	0	0	0	
5	0	0	0	0	530	496	0	0	0	0	
6	0	0	0	0	532	498	0	0	0	0	
7	0	0	0	0	533	499	0	0	0	0	
8	0	0	0	0	535	502	0	0	0	0	
9	0	0	0	0	536	503	0	0	0	0	
10	0	0	0	0	537	504	0	0	0	0	
11	0	0	0	0	537	505	0	0	0	0	
12	0	0	0	0	537	505	0	0	0	0	
13	0	0	0	0	538	507	0	0	0	0	
14	0	0	0	0	539	507	0	0	0	0	
15	0	0	0	0	540	508	0	0	0	0	
0	0	0	0	0	542	510	0	0	0	0	
1	0	0	0	0	544	512	0	0	0	0	
2	0	0	0	0	547	515	0	0	0	0	
3	0	0	0	0	550	518	0	0	0	0	
4	0	0	0	0	553	520	0	0	0	0	
5	0	0	0	0	556	523	0	0	0	0	
6	0	0	0	0	557	524	0	0	0	0	
7	0	0	0	0	557	525	0	0	0	0	
8	0	0	0	0	557	525	0	0	0	0	
9	0	0	0	0	555	524	0	0	0	0	
10	0	0	0	0	553	522	0	0	0	0	
11	0	0	0	0	550	519	0	0	0	0	
12	0	0	0	0	545	515	0	0	0	0	
13	0	0	0	0	540	510	0	0	0	0	
14	0	0	0	0	534	505	0	0	0	0	
15	0	0	0	0	527	498	0	0	0	0	
0	0	0	0	0	521	492	0	0	0	0	
1	0	0	0	0	515	486	0	0	0	0	
2	0	0	0	0	509	480	0	0	0	0	
3	0	0	0	0	505	475	0	0	0	0	
4	0	0	0	0	502	471	0	0	0	0	
5	0	0	0	0	501	469	0	0	0	0	
6	0	0	0	0	503	470	0	0	0	0	
7	0	0	0	0	505	471	0	0	0	0	
8	0	0	0	0	509	473	0	0	0	0	
9	0	0	0	0	514	477	0	0	0	0	
10	0	0	0	0	520	481	0	0	0	0	
11	0	0	0	0	527	486	0	0	0	0	
12	0	0	0	0	533	492	0	0	0	0	
13	0	0	0	0	539	497	0	0	0	0	
14	0	0	0	0	545	502	0	0	0	0	
15	0	0	0	0	549	507	0	0	0	0	
0	0	0	0	0	554	511	0	0	0	0	
1	0	0	0	0	557	514	0	0	0	0	
2	0	0	0	0	559	517	0	0	0	0	
3	0	0	0	0	560	519	0	0	0	0	
4	0	0	0	0	559	519	0	0	0	0	
5	0	0	0	0	558	519	0	0	0	0	
6	0	0	0	0	556	518	0	0	0	0	
7	0	0	0	0	552	515	0	0	0	0	
8	0	0	0	0	549	513	0	0	0	0	
9	0	0	0	0	546	511	0	0	0	0	
10	0	0	0	0	544	510	0	0	0	0	
11	0	0	0	0	542	508	0	0	0	0	
12	0	0	0	0	541	506	0	0	0	0	
13	0	0	0	0	540	504	0	0	0	0	
14	0	0	0	0	538	503	0	0	0	0	
15	0	0	0	0	537	503	0	0	0	0	
0	0	0	0	0	536	502	0	0	0	0	
1	0	0	0	0	536	502	0	0	0	0	
2	0	0	0	0	536	500	0	0	0	0	
3	0	0	0	0	536	501	0	0	0	0	
4	0	0	0	0	536	502	0	0	0	0	
5	0	0	0	0	536	502	0	0	0	0	
6	0	0	0	0	537	503	0	0	0	0	
7	0	0	0	0	539	504	0	0	0	0	
8	0	0	0	0	541	505	0	0	0	0	
9	0	0	0	0	544	508	0	0	0	0	
10	0	0	0	0	547	511	0	0	0	0	
11	0	0	0	0	551	514	0	0	0	0	
12	0	0	0	0	555	517	0	0	0	0	
13	0	0	0	0	558	519	0	0	0	0	
14	0	0	0	0	561	523	0	0	0	0	
15	0	0	0	0	563	524	0	0	0	0	
0	0	0	0	0	563	524	0	0	0	0	
1	0	0	0	0	561	524	0	0	0	0	
2	0	0	0	0	559	523	0	0	0	0	
3	0	0	0	0	556	522	0	0	0	0	
4	0	0	0	0	553	520	0	0	0	0	
5	0	0	0	0	549	518	0	0	0	0	
6	0	0	0	0	544	516	0	0	0	0	
7	0	0	0	0	540	512	0	0	0	0	
8	0	0	0	0	536	509	0	0	0	0	
9	0	0	0	0	532	506	0	0	0	0	
10	0	0	0	0	529	503	0	0	0	0	
11	0	0	0	0	527	500	0	0	0	0	
12	0	0	0	0	526	499	0	0	0	0	
13	0	0	0	0	528	499	0	0	0	0	
14	0	0	0	0	530	500	0	0	0	0	
15	0	0	0	0	532	501	0	0	0	0	
0	0	0	0	0	536	502	0	0	0	0	
1	0	0	0	0	538	503	0	0	0	0	
2	0	0	0	0	542	504	0	0	0	0	
3	0	0	0	0	544	504	0	0	0	0	
4	0	0	0	0	546	504	0	0	0	0	
5	0	0	0	0	547	504	0	0	0	0	
6	0	0	0	0	547	503	0	0	0	0	
7	0	0	0	0	545	501	0	0	0	0	
8	0	0	0	0	543	499	0	0	0	0	
9	0	0	0	0	538	497	0	0	0	0	
10	0	0	0	0	534	495	0	0	0	0	
11	0	0	0	0	529	492	0	0	0	0	
12	0	0	0	0	525	491	0	0	0	0	
13	0	0	0	0	521	489	0	0	0	0	
14	0	0	0	0	518	487	0	0	0	0	
15	0	0	0	0	516	487	0	0	0	0	
0	0	0	0	0	515	486	0	0	0	0	
1	0	0	0	0	516	486	0	0	0	0	
2	0	0	0	0	517	487	0	0	0	0	
3	0	0	0	0	519	487	0	0	0	0	
4	0	0	0	0	522	488	0	0	0	0	
5	0	0	0	0	525	490	0	0	0	0	
6	0	0	0	0	529	492	0	0	0	0	
7	0	0	0	0	531	493	0	0	0	0	
8	0	0	0	0	534	495	0	0	0	0	
9	0	0	0	0	536	497	0	0	0	0	
10	0	0	0	0	538	497	0	0	0	0	
11	0	0	0	0	540	500	0	0	0	0	
12	0	0	0	0	542	502	0	0	0	0	
13	0	0	0	0	543	504	0	0	0	0	
14	0	0	0	0	543	505	0	0	0	0	
15	0	0	0	0	543	508	0	0	0	0	
0	0	0	0	0	546	510	0	0	0	0	
1	0	0	0	0	547	512	0	0	0	0	
2	0	0	0	0	550	516	0	0	0	0	
3	0	0	0	0	553	519	0	0	0	0	
4	0	0	0	0	557	523	0	0	0	0	
5	0	0	0	0	561	527	0	0	0	0	
6	0	0	0	0	565	530	0	0	0	0	
7	0	0	0	0	569	533	0	0	0	0	
8	0	0	0	0	573	535	0	0	0	0	
9	0	0	0	0	575	536	0	0	0	0	
10	0	0	0	0	577	537	0	0	0	0	
11	0	0	0	0	578	536	0	0	0	0	
12	0	0	0	0	577	535	0	0	0	0	
13	0	0	0	0	575	534	0	0	0	0	
14	0	0	0	0	571	531	0	0	0	0	
15	0	0	0	0	566	527	0	0	0	0	
0	0	0	0	0	558	522	0	0	0	0	
1	0	0	0	0	549	516	0	0	0	0	
2	0	0	0	0	540	510	0	0	0	0	
3	0	0	0	0	529	503	0	0	0	0	
4	0	0	0	0	521	497	0	0	0	0	
5	0	0	0	0	514	492	0	0	0	0	
6	0	0	0	0	509	488	0	0	0	0	
7	0	0	0	0	508	486	0	0	0	0	
8	0	0	0	0	508	486	0	0	0	0	
9	0	0	0	0	512	488	0	0	0	0	
10	0	0	0	0	518	492	0	0	0	0	
11	0	0	0	0	526	496	0	0	0	0	
12	0	0	0	0	534	500	0	0	0	0	
13	0	0	0	0	542	505	0	0	0	0	
14	0	0	0	0	549	510	0	0	0	0	
15	0	0	0	0	555	514	0	0	0	0	
0	0	0	0	0	560	517	0	0	0	0	
1	0	0	0	0	563	519	0	0	0	0	
2	0	0	0	0	564	521	0	0	0	0	
3	0	0	0	0	565	523	0	0	0	0	
4	0	0	0	0	565	524	0	0	0	0	
5	0	0	0	0	564	525	0	0	0	0	
6	0	0	0	0	562	525	0	0	0	0	
7	0	0	0	0	559	524	0	0	0	0	
8	0	0	0	0	556	522	0	0	0	0	
9	0	0	0	0	551	520	0	0	0	0	
10	0	0	0	0	547	517	0	0	0	0	
11	0	0	0	0	543	513	0	0	0	0	
12	0	0	0	0	539	509	0	0	0	0	
13	0	0	0	0	536	506	0	0	0	0	
14	0	0	0	0	532	503	0	0	0	0	
15	0	0	0	0	531	500	0	0	0	0	
0	0	0	0	0	530	498	0	0	0	0	
1	0	0	0	0	530	496	0	0	0	0	
2	0	0	0	0	531	497	0	0	0	0	
3	0	0	0	0	534	498	0	0	0	0	
4	0	0	0	0	537	499	0	0	0	0	
5	0	0	0	0	541	503	0	0	0	0	
6	0	0	0	0	545	506	0	0	0	0	
7	0	0	0	0	550	510	0	0	0	0	
8	0	0	0	0	553	513	0	0	0	0	
9	0	0	0	0	556	516	0	0	0	0	
10	0	0	0	0	558	518	0	0	0	0	
11	0	0	0	0	556	517	0	0	0	0	
12	0	0	0	0	555	516	0	0	0	0	
13	0	0	0	0	551	514	0	0	0	0	
14	0	0	0	0	546	512	0	0	0	0	
15	0	0	0	0	542	509	0	0	0	0	
0	0	0	0	0	536	507	0	0	0	0	
1	0	0	0	0	533	504	0	0	0	0	
2	0	0	0	0	529	502	0	0	0	0	
3	0	0	0	0	527	500	0	0	0	0	
4	0	0	0	0	526	500	0	0	0	0	
5	0	0	0	0	526	500	0	0	0	0	
6	0	0	0	0	528	501	0	0	0	0	
7	0	0	0	0	531	503	0	0	0	0	
8	0	0	0	0	535	505	0	0	0	0	
9	0	0	0	0	540	508	0	0	0	0	
10	0	0	0	0	545	510	0	0	0	0	
11	0	0	0	0	551	515	0	0	0	0	
12	0	0	0	0	557	519	0	0	0	0	
13	0	0	0	0	563	524	0	0	0	0	
14	0	0	0	0	569	529	0	0	0	0	
15	0	0	0	0	575	535	0	0	0	0	
0	0	0	0	0	580	540	0	0	0	0	
1	0	0	0	0	585	545	0	0	0	0	
2	0	0	0	0	589	550	0	0	0	0	
3	0	0	0	0	591	552	0	0	0	0	
4	0	0	0	0	591	553	0	0	0	0	
5	0	0	0	0	591	554	0	0	0	0	
6	0	0	0	0	589	552	0	0	0	0	
7	0	0	0	0	585	550	0	0	0	0	
8	0	0	0	0	582	547	0	0	0	0	
9	0	0	0	0	576	543	0	0	0	0	
10	0	0	0	0	571	538	0	0	0	0	
11	0	0	0	0	564	532	0	0	0	0	
12	0	0	0	0	556	526	0	0	0	0	
13	0	0	0	0	547	518	0	0	0	0	
14	0	0	0	0	538	510	0	0	0	0	
15	0	0	0	0	530	503	0	0	0	0	
0	0	0	0	0	521	495	0	0	0	0	
1	0	0	0	0	514	488	0	0	0	0	
2	0	0	0	0	508	483	0	0	0	0	
3	0	0	0	0	503	479	0	0	0	0	
4	0	0	0	0	501	477	0	0	0	0	
5	0	0	0	0	501	476	0	0	0	0	
6	0	0	0	0	502	476	0	0	0	0	
7	0	0	0	0	506	478	0	0	0	0	
8	0	0	0	0	510	481	0	0	0	0	
9	0	0	0	0	517	486	0	0	0	0	
10	0	0	0	0	524	491	0	0	0	0	
11	0	0	0	0	533	497	0	0	0	0	
12	0	0	0	0	543	504	0	0	0	0	
13	0	0	0	0	552	511	0	0	0	0	
14	0	0	0	0	560	519	0	0	0	0	
15	0	0	0	0	568	526	0	0	0	0	
0	0	0	0	0	574	531	0	0	0	0	
1	0	0	0	0	578	535	0	0	0	0	
2	0	0	0	0	579	537	0	0	0	0	
3	0	0	0	0	579	537	0	0	0	0	
4	0	0	0	0	576	536	0	0	0	0	
5	0	0	0	0	573	535	0	0	0	0	
6	0	0	0	0	568	531	0	0	0	0	
7	0	0	0	0	563	528	0	0	0	0	
8	0	0	0	0	557	524	0	0	0	0	
9	0	0	0	0	551	519	0	0	0	0	
10	0	0	0	0	546	516	0	0	0	0	
11	0	0	0	0	543	513	0	0	0	0	
12	0	0	0	0	541	510	0	0	0	0	
13	0	0	0	0	540	510	0	0	0	0	
14	0	0	0	0	542	511	0	0	0	0	
15	0	0	0	0	545	512	0	0	0	0	
0	0	0	0	0	549	515	0	0	0	0	
1	0	0	0	0	553	519	0	0	0	0	
2	0	0	0	0	559	523	0	0	0	0	
3	0	0	0	0	563	526	0	0	0	0	
4	0	0	0	0	567	529	0	0	0	0	
5	0	0	0	0	569	531	0	0	0	0	
6	0	0	0	0	571	533	0	0	0	0	
7	0	0	0	0	573	534	0	0	0	0	
8	0	0	0	0	573	534	0	0	0	0	
9	0	0	0	0	572	533	0	0	0	0	
10	0	0	0	0	569	531	0	0	0	0	
11	0	0	0	0	565	528	0	0	0	0	
12	0	0	0	0	561	524	0	0	0	0	
13	0	0	0	0	554	519	0	0	0	0	
14	0	0	0	0	546	512	0	0	0	0	
15	0	0	0	0	537	504	0	0	0	0	
0	0	0	0	0	525	495	0	0	0	0	
1	0	0	0	0	514	484	0	0	0	0	
2	0	0	0	0	501	473	0	0	0	0	
3	0	0	0	0	488	461	0	0	0	0	
4	0	0	0	0	476	449	0	0	0	0	
5	0	0	0	0	464	439	0	0	0	0	
6	0	0	0	0	454	429	0	0	0	0	
7	0	0	0	0	445	419	0	0	0	0	
8	0	0	0	0	437	411	0	0	0	0	
9	0	0	0	0	430	403	0	0	0	0	
10	0	0	0	0	422	396	0	0	0	0	
11	0	0	0	0	417	389	0	0	0	0	
12	0	0	0	0	410	382	0	0	0	0	
13	0	0	0	0	402	374	0	0	0	0	
14	0	0	0	0	393	364	0	0	0	0	
15	0	0	0	0	382	353	0	0	0	0	
0	0	0	0	0	370	342	0	0	0	0	
1	0	0	0	0	357	329	0	0	0	0	
2	0	0	0	0	344	317	0	0	0	0	
3	0	0	0	0	332	305	0	0	0	0	
4	0	0	0	0	322	296	0	0	0	0	
5	0	0	0	0	316	290	0	0	0	0	
6	0	0	0	0	314	287	0	0	0	0	
7	0	0	0	0	317	289	0	0	0	0	
8	0	0	0	0	326	295	0	0	0	0	
9	0	0	0	0	339	305	0	0	0	0	
10	0	0	0	0	358	320	0	0	0	0	
11	0	0	0	0	382	339	0	0	0	0	
12	0	0	0	0	408	361	0	0	0	0	
13	0	0	0	0	437	385	0	0	0	0	
14	0	0	0	0	467	411	0	0	0	0	
15	0	0	0	0	495	436	0	0	0	0	
0	0	0	0	0	520	459	0	0	0	0	
1	0	0	0	0	543	480	0	0	0	0	
2	0	0	0	0	560	499	0	0	0	0	
3	0	0	0	0	574	513	0	0	0	0	
4	0	0	0	0	583	524	0	0	0	0	
5	0	0	0	0	587	533	0	0	0	0	
6	0	0	0	0	588	537	0	0	0	0	
7	0	0	0	0	586	539	0	0	0	0	
8	0	0	0	0	583	540	0	0	0	0	
9	0	0	0	0	577	539	0	0	0	0	
10	0	0	0	0	572	536	0	0	0	0	
11	0	0	0	0	567	534	0	0	0	0	
12	0	0	0	0	561	531	0	0	0	0	
13	0	0	0	0	559	528	0	0	0	0	
14	0	0	0	0	557	527	0	0	0	0	
15	0	0	0	0	556	527	0	0	0	0	
0	0	0	0	0	557	526	0	0	0	0	
1	0	0	0	0	558	527	0	0	0	0	
2	0	0	0	0	559	527	0	0	0	0	
3	0	0	0	0	561	528	0	0	0	0	
4	0	0	0	0	563	528	0	0	0	0	
5	0	0	0	0	564	529	0	0	0	0	
6	0	0	0	0	565	530	0	0	0	0	
7	0	0	0	0	566	531	0	0	0	0	
8	0	0	0	0	567	532	0	0	0	0	
9	0	0	0	0	567	533	0	0	0	0	
10	0	0	0	0	568	533	0	0	0	0	
11	0	0	0	0	567	533	0	0	0	0	
12	0	0	0	0	568	534	0	0	0	0	
13	0	0	0	0	568	535	0	0	0	0	
14	0	0	0	0	569	535	0	0	0	0	
15	0	0	0	0	570	536	0	0	0	0	
0	0	0	0	0	572	537	0	0	0	0	
1	0	0	0	0	574	539	0	0	0	0	
2	0	0	0	0	576	541	0	0	0	0	
3	0	0	0	0	579	543	0	0	0	0	
4	0	0	0	0	581	545	0	0	0	0	
5	0	0	0	0	583	547	0	0	0	0	
6	0	0	0	0	584	550	0	0	0	0	
7	0	0	0	0	586	551	0	0	0	0	
8	0	0	0	0	587	553	0	0	0	0	
9	0	0	0	0	588	555	0	0	0	0	
10	0	0	0	0	590	557	0	0	0	0	
11	0	0	0	0	591	559	0	0	0	0	
12	0	0	0	0	593	563	0	0	0	0	
13	0	0	0	0	595	565	0	0	0	0	
14	0	0	0	0	597	568	0	0	0	0	
15	0	0	0	0	600	570	0	0	0	0	
0	0	0	0	0	603	573	0	0	0	0	
1	0	0	0	0	607	576	0	0	0	0	
2	0	0	0	0	611	579	0	0	0	0	
3	0	0	0	0	614	580	0	0	0	0	
4	0	0	0	0	614	579	0	0	0	0	
5	0	0	0	0	612	576	0	0	0	0	
6	0	0	0	0	608	572	0	0	0	0	
7	0	0	0	0	601	564	0	0	0	0	
8	0	0	0	0	593	556	0	0	0	0	
9	0	0	0	0	584	548	0	0	0	0	
10	0	0	0	0	576	541	0	0	0	0	
11	0	0	0	0	570	536	0	0	0	0	
12	0	0	0	0	565	532	0	0	0	0	
13	0	0	0	0	562	530	0	0	0	0	
14	0	0	0	0	560	529	0	0	0	0	
15	0	0	0	0	560	530	0	0	0	0	
0	0	0	0	0	562	532	0	0	0	0	
1	0	0	0	0	564	534	0	0	0	0	
2	0	0	0	0	567	536	0	0	0	0	
3	0	0	0	0	569	538	0	0	0	0	
4	0	0	0	0	570	539	0	0	0	0	
5	0	0	0	0	571	540	0	0	0	0	
6	0	0	0	0	571	540	0	0	0	0	
7	0	0	0	0	571	540	0	0	0	0	
8	0	0	0	0	571	540	0	0	0	0	
9	0	0	0	0	571	540	0	0	0	0	
10	0	0	0	0	572	541	0	0	0	0	
11	0	0	0	0	573	542	0	0	0	0	
12	0	0	0	0	575	543	0	0	0	0	
13	0	0	0	0	576	544	0	0	0	0	
14	0	0	0	0	577	546	0	0	0	0	
15	0	0	0	0	580	549	0	0	0	0	
0	0	0	0	0	583	551	0	0	0	0	
1	0	0	0	0	585	555	0	0	0	0	
2	0	0	0	0	589	558	0	0	0	0	
3	0	0	0	0	591	560	0	0	0	0	
4	0	0	0	0	595	563	0	0	0	0	
5	0	0	0	0	597	566	0	0	0	0	
6	0	0	0	0	599	567	0	0	0	0	
7	0	0	0	0	600	568	0	0	0	0	
8	0	0	0	0	599	567	0	0	0	0	
9	0	0	0	0	599	566	0	0	0	0	
10	0	0	0	0	596	564	0	0	0	0	
11	0	0	0	0	593	561	0	0	0	0	
12	0	0	0	0	590	558	0	0	0	0	
13	0	0	0	0	586	554	0	0	0	0	
14	0	0	0	0	583	551	0	0	0	0	
15	0	0	0	0	580	549	0	0	0	0	
0	0	0	0	0	578	548	0	0	0	0	
1	0	0	0	0	578	547	0	0	0	0	
2	0	0	0	0	579	548	0	0	0	0	
3	0	0	0	0	581	551	0	0	0	0	
4	0	0	0	0	583	553	0	0	0	0	
5	0	0	0	0	587	556	0	0	0	0	
6	0	0	0	0	589	558	0	0	0	0	
7	0	0	0	0	592	561	0	0	0	0	
8	0	0	0	0	594	563	0	0	0	0	
9	0	0	0	0	595	564	0	0	0	0	
10	0	0	0	0	595	564	0	0	0	0	
11	0	0	0	0	594	563	0	0	0	0	
12	0	0	0	0	591	559	0	0	0	0	
13	0	0	0	0	587	556	0	0	0	0	
14	0	0	0	0	582	550	0	0	0	0	
15	0	0	0	0	575	543	0	0	0	0	
0	0	0	0	0	569	536	0	0	0	0	
1	0	0	0	0	562	529	0	0	0	0	
2	0	0	0	0	558	524	0	0	0	0	
3	0	0	0	0	555	519	0	0	0	0	
4	0	0	0	0	553	517	0	0	0	0	
5	0	0	0	0	555	516	0	0	0	0	
6	0	0	0	0	556	518	0	0	0	0	
7	0	0	0	0	560	521	0	0	0	0	
8	0	0	0	0	564	524	0	0	0	0	
9	0	0	0	0	568	528	0	0	0	0	
10	0	0	0	0	573	533	0	0	0	0	
11	0	0	0	0	576	536	0	0	0	0	
12	0	0	0	0	579	540	0	0	0	0	
13	0	0	0	0	580	543	0	0	0	0	
14	0	0	0	0	580	544	0	0	0	0	
15	0	0	0	0	578	543	0	0	0	0	
0	0	0	0	0	574	541	0	0	0	0	
1	0	0	0	0	569	538	0	0	0	0	
2	0	0	0	0	564	535	0	0	0	0	
3	0	0	0	0	559	531	0	0	0	0	
4	0	0	0	0	555	527	0	0	0	0	
5	0	0	0	0	552	524	0	0	0	0	
6	0	0	0	0	550	523	0	0	0	0	
7	0	0	0	0	550	522	0	0	0	0	
8	0	0	0	0	551	522	0	0	0	0	
9	0	0	0	0	553	522	0	0	0	0	
10	0	0	0	0	556	523	0	0	0	0	
11	0	0	0	0	559	526	0	0	0	0	
12	0	0	0	0	563	529	0	0	0	0	
13	0	0	0	0	567	531	0	0	0	0	
14	0	0	0	0	569	533	0	0	0	0	
15	0	0	0	0	571	534	0	0	0	0	
0	0	0	0	0	572	535	0	0	0	0	
1	0	0	0	0	570	534	0	0	0	0	
2	0	0	0	0	568	532	0	0	0	0	
3	0	0	0	0	564	530	0	0	0	0	
4	0	0	0	0	560	527	0	0	0	0	
5	0	0	0	0	557	526	0	0	0	0	
6	0	0	0	0	554	523	0	0	0	0	
7	0	0	0	0	551	521	0	0	0	0	
8	0	0	0	0	550	520	0	0	0	0	
9	0	0	0	0	549	520	0	0	0	0	
10	0	0	0	0	551	522	0	0	0	0	
11	0	0	0	0	553	524	0	0	0	0	
12	0	0	0	0	556	527	0	0	0	0	
13	0	0	0	0	561	530	0	0	0	0	
14	0	0	0	0	566	534	0	0	0	0	
15	0	0	0	0	572	540	0	0	0	0	
0	0	0	0	0	578	544	0	0	0	0	
1	0	0	0	0	583	548	0	0	0	0	
2	0	0	0	0	588	551	0	0	0	0	
3	0	0	0	0	593	556	0	0	0	0	
4	0	0	0	0	598	561	0	0	0	0	
5	0	0	0	0	601	564	0	0	0	0	
6	0	0	0	0	603	567	0	0	0	0	
7	0	0	0	0	603	568	0	0	0	0	
8	0	0	0	0	602	568	0	0	0	0	
9	0	0	0	0	600	568	0	0	0	0	
10	0	0	0	0	596	565	0	0	0	0	
11	0	0	0	0	591	562	0	0	0	0	
12	0	0	0	0	586	558	0	0	0	0	
13	0	0	0	0	579	552	0	0	0	0	
14	0	0	0	0	572	547	0	0	0	0	
15	0	0	0	0	565	540	0	0	0	0	
0	0	0	0	0	558	534	0	0	0	0	
1	0	0	0	0	551	527	0	0	0	0	
2	0	0	0	0	545	521	0	0	0	0	
3	0	0	0	0	540	516	0	0	0	0	
4	0	0	0	0	537	513	0	0	0	0	
5	0	0	0	0	536	510	0	0	0	0	
6	0	0	0	0	536	508	0	0	0	0	
7	0	0	0	0	537	507	0	0	0	0	
8	0	0	0	0	539	508	0	0	0	0	
9	0	0	0	0	542	510	0	0	0	0	
10	0	0	0	0	546	512	0	0	0	0	
11	0	0	0	0	551	515	0	0	0	0	
12	0	0	0	0	556	519	0	0	0	0	
13	0	0	0	0	561	523	0	0	0	0	
14	0	0	0	0	567	527	0	0	0	0	
15	0	0	0	0	572	531	0	0	0	0	
0	0	0	0	0	575	533	0	0	0	0	
1	0	0	0	0	577	536	0	0	0	0	
2	0	0	0	0	579	537	0	0	0	0	
3	0	0	0	0	578	536	0	0	0	0	
4	0	0	0	0	575	535	0	0	0	0	
5	0	0	0	0	571	533	0	0	0	0	
6	0	0	0	0	566	529	0	0	0	0	
7	0	0	0	0	559	526	0	0	0	0	
8	0	0	0	0	553	522	0	0	0	0	
9	0	0	0	0	546	518	0	0	0	0	
10	0	0	0	0	540	514	0	0	0	0	
11	0	0	0	0	535	510	0	0	0	0	
12	0	0	0	0	531	508	0	0	0	0	
13	0	0	0	0	527	505	0	0	0	0	
14	0	0	0	0	526	503	0	0	0	0	
15	0	0	0	0	526	502	0	0	0	0	
0	0	0	0	0	525	501	0	0	0	0	
1	0	0	0	0	527	500	0	0	0	0	
2	0	0	0	0	529	500	0	0	0	0	
3	0	0	0	0	531	499	0	0	0	0	
4	0	0	0	0	533	499	0	0	0	0	
5	0	0	0	0	535	500	0	0	0	0	
6	0	0	0	0	537	500	0	0	0	0	
7	0	0	0	0	538	500	0	0	0	0	
8	0	0	0	0	540	502	0	0	0	0	
9	0	0	0	0	542	503	0	0	0	0	
10	0	0	0	0	543	504	0	0	0	0	
11	0	0	0	0	545	506	0	0	0	0	
12	0	0	0	0	547	508	0	0	0	0	
13	0	0	0	0	548	511	0	0	0	0	
14	0	0	0	0	550	514	0	0	0	0	
15	0	0	0	0	551	516	0	0	0	0	
0	0	0	0	0	553	519	0	0	0	0	
1	0	0	0	0	555	522	0	0	0	0	
2	0	0	0	0	555	523	0	0	0	0	
3	0	0	0	0	555	524	0	0	0	0	
4	0	0	0	0	554	524	0	0	0	0	
5	0	0	0	0	553	524	0	0	0	0	
6	0	0	0	0	552	523	0	0	0	0	
7	0	0	0	0	551	522	0	0	0	0	
8	0	0	0	0	550	521	0	0	0	0	
9	0	0	0	0	551	522	0	0	0	0	
10	0	0	0	0	555	524	0	0	0	0	
11	0	0	0	0	559	527	0	0	0	0	
12	0	0	0	0	564	532	0	0	0	0	
13	0	0	0	0	570	538	0	0	0	0	
14	0	0	0	0	576	543	0	0	0	0	
15	0	0	0	0	583	548	0	0	0	0	
0	0	0	0	0	587	552	0	0	0	0	
1	0	0	0	0	589	555	0	0	0	0	
2	0	0	0	0	589	556	0	0	0	0	
3	0	0	0	0	587	554	0	0	0	0	
4	0	0	0	0	582	550	0	0	0	0	
5	0	0	0	0	574	543	0	0	0	0	
6	0	0	0	0	566	535	0	0	0	0	
7	0	0	0	0	555	525	0	0	0	0	
8	0	0	0	0	545	516	0	0	0	0	
9	0	0	0	0	536	506	0	0	0	0	
10	0	0	0	0	527	497	0	0	0	0	
11	0	0	0	0	520	488	0	0	0	0	
12	0	0	0	0	515	483	0	0	0	0	
13	0	0	0	0	512	478	0	0	0	0	
14	0	0	0	0	512	477	0	0	0	0	
15	0	0	0	0	513	478	0	0	0	0	
0	0	0	0	0	518	481	0	0	0	0	
1	0	0	0	0	524	486	0	0	0	0	
2	0	0	0	0	531	492	0	0	0	0	
3	0	0	0	0	538	499	0	0	0	0	
4	0	0	0	0	546	507	0	0	0	0	
5	0	0	0	0	553	514	0	0	0	0	
6	0	0	0	0	560	521	0	0	0	0	
7	0	0	0	0	564	526	0	0	0	0	
8	0	0	0	0	568	531	0	0	0	0	
9	0	0	0	0	569	533	0	0	0	0	
10	0	0	0	0	569	534	0	0	0	0	
11	0	0	0	0	568	532	0	0	0	0	
12	0	0	0	0	564	530	0	0	0	0	
13	0	0	0	0	562	528	0	0	0	0	
14	0	0	0	0	558	525	0	0	0	0	
15	0	0	0	0	555	522	0	0	0	0	
0	0	0	0	0	551	519	0	0	0	0	
1	0	0	0	0	550	517	0	0	0	0	
2	0	0	0	0	549	516	0	0	0	0	
3	0	0	0	0	549	516	0	0	0	0	
4	0	0	0	0	550	517	0	0	0	0	
5	0	0	0	0	552	518	0	0	0	0	
6	0	0	0	0	554	520	0	0	0	0	
7	0	0	0	0	558	522	0	0	0	0	
8	0	0	0	0	560	524	0	0	0	0	
9	0	0	0	0	562	526	0	0	0	0	
10	0	0	0	0	563	527	0	0	0	0	
11	0	0	0	0	564	529	0	0	0	0	
12	0	0	0	0	565	530	0	0	0	0	
13	0	0	0	0	566	531	0	0	0	0	
14	0	0	0	0	565	531	0	0	0	0	
15	0	0	0	0	564	530	0	0	0	0	
0	0	0	0	0	562	529	0	0	0	0	
1	0	0	0	0	560	527	0	0	0	0	
2	0	0	0	0	557	525	0	0	0	0	
3	0	0	0	0	555	523	0	0	0	0	
4	0	0	0	0	552	520	0	0	0	0	
5	0	0	0	0	548	518	0	0	0	0	
6	0	0	0	0	546	515	0	0	0	0	
7	0	0	0	0	542	511	0	0	0	0	
8	0	0	0	0	537	506	0	0	0	0	
9	0	0	0	0	533	502	0	0	0	0	
10	0	0	0	0	529	497	0	0	0	0	
11	0	0	0	0	526	495	0	0	0	0	
12	0	0	0	0	524	492	0	0	0	0	
13	0	0	0	0	524	492	0	0	0	0	
14	0	0	0	0	525	494	0	0	0	0	
15	0	0	0	0	528	497	0	0	0	0	
0	0	0	0	0	533	500	0	0	0	0	
1	0	0	0	0	539	505	0	0	0	0	
2	0	0	0	0	545	510	0	0	0	0	
3	0	0	0	0	552	515	0	0	0	0	
4	0	0	0	0	558	520	0	0	0	0	
5	0	0	0	0	564	524	0	0	0	0	
6	0	0	0	0	569	527	0	0	0	0	
7	0	0	0	0	572	530	0	0	0	0	
8	0	0	0	0	574	531	0	0	0	0	
9	0	0	0	0	575	531	0	0	0	0	
10	0	0	0	0	574	531	0	0	0	0	
11	0	0	0	0	571	529	0	0	0	0	
12	0	0	0	0	568	527	0	0	0	0	
13	0	0	0	0	565	525	0	0	0	0	
14	0	0	0	0	561	522	0	0	0	0	
15	0	0	0	0	558	521	0	0	0	0	
0	0	0	0	0	554	519	0	0	0	0	
1	0	0	0	0	552	518	0	0	0	0	
2	0	0	0	0	550	518	0	0	0	0	
3	0	0	0	0	549	518	0	0	0	0	
4	0	0	0	0	549	518	0	0	0	0	
5	0	0	0	0	549	519	0	0	0	0	
6	0	0	0	0	550	519	0	0	0	0	
7	0	0	0	0	551	520	0	0	0	0	
8	0	0	0	0	552	521	0	0	0	0	
9	0	0	0	0	554	522	0	0	0	0	
10	0	0	0	0	556	522	0	0	0	0	
11	0	0	0	0	558	523	0	0	0	0	
12	0	0	0	0	560	524	0	0	0	0	
13	0	0	0	0	562	525	0	0	0	0	
14	0	0	0	0	566	527	0	0	0	0	
15	0	0	0	0	570	530	0	0	0	0	
0	0	0	0	0	574	533	0	0	0	0	
1	0	0	0	0	579	536	0	0	0	0	
2	0	0	0	0	584	542	0	0	0	0	
3	0	0	0	0	591	548	0	0	0	0	
4	0	0	0	0	596	553	0	0	0	0	
5	0	0	0	0	601	558	0	0	0	0	
6	0	0	0	0	603	560	0	0	0	0	
7	0	0	0	0	603	562	0	0	0	0	
8	0	0	0	0	601	560	0	0	0	0	
9	0	0	0	0	596	558	0	0	0	0	
10	0	0	0	0	590	553	0	0	0	0	
11	0	0	0	0	582	546	0	0	0	0	
12	0	0	0	0	573	540	0	0	0	0	
13	0	0	0	0	563	532	0	0	0	0	
14	0	0	0	0	555	525	0	0	0	0	
15	0	0	0	0	547	518	0	0	0	0	
0	0	0	0	0	541	512	0	0	0	0	
1	0	0	0	0	536	509	0	0	0	0	
2	0	0	0	0	534	506	0	0	0	0	
3	0	0	0	0	533	505	0	0	0	0	
4	0	0	0	0	535	506	0	0	0	0	
5	0	0	0	0	537	508	0	0	0	0	
6	0	0	0	0	541	512	0	0	0	0	
7	0	0	0	0	547	515	0	0	0	0	
8	0	0	0	0	552	519	0	0	0	0	
9	0	0	0	0	556	521	0	0	0	0	
10	0	0	0	0	560	524	0	0	0	0	
11	0	0	0	0	562	526	0	0	0	0	
12	0	0	0	0	565	527	0	0	0	0	
13	0	0	0	0	566	527	0	0	0	0	
14	0	0	0	0	567	528	0	0	0	0	
15	0	0	0	0	568	528	0	0	0	0	
0	0	0	0	0	569	530	0	0	0	0	
1	0	0	0	0	570	531	0	0	0	0	
2	0	0	0	0	571	532	0	0	0	0	
3	0	0	0	0	570	532	0	0	0	0	
4	0	0	0	0	568	530	0	0	0	0	
5	0	0	0	0	565	527	0	0	0	0	
6	0	0	0	0	560	524	0	0	0	0	
7	0	0	0	0	556	520	0	0	0	0	
8	0	0	0	0	550	515	0	0	0	0	
9	0	0	0	0	545	511	0	0	0	0	
10	0	0	0	0	540	508	0	0	0	0	
11	0	0	0	0	538	505	0	0	0	0	
12	0	0	0	0	536	504	0	0	0	0	
13	0	0	0	0	536	503	0	0	0	0	
14	0	0	0	0	537	504	0	0	0	0	
15	0	0	0	0	540	506	0	0	0	0	
0	0	0	0	0	543	509	0	0	0	0	
1	0	0	0	0	548	513	0	0	0	0	
2	0	0	0	0	553	518	0	0	0	0	
3	0	0	0	0	558	523	0	0	0	0	
4	0	0	0	0	563	527	0	0	0	0	
5	0	0	0	0	566	530	0	0	0	0	
6	0	0	0	0	568	532	0	0	0	0	
7	0	0	0	0	569	532	0	0	0	0	
8	0	0	0	0	568	531	0	0	0	0	
9	0	0	0	0	565	529	0	0	0	0	
10	0	0	0	0	562	526	0	0	0	0	
11	0	0	0	0	558	523	0	0	0	0	
12	0	0	0	0	554	519	0	0	0	0	
13	0	0	0	0	550	515	0	0	0	0	
14	0	0	0	0	546	512	0	0	0	0	
15	0	0	0	0	543	510	0	0	0	0	
0	0	0	0	0	540	508	0	0	0	0	
1	0	0	0	0	539	507	0	0	0	0	
2	0	0	0	0	537	506	0	0	0	0	
3	0	0	0	0	536	505	0	0	0	0	
4	0	0	0	0	537	506	0	0	0	0	
5	0	0	0	0	537	507	0	0	0	0	
6	0	0	0	0	539	508	0	0	0	0	
7	0	0	0	0	540	509	0	0	0	0	
8	0	0	0	0	543	511	0	0	0	0	
9	0	0	0	0	546	514	0	0	0	0	
10	0	0	0	0	549	516	0	0	0	0	
11	0	0	0	0	552	518	0	0	0	0	
12	0	0	0	0	557	521	0	0	0	0	
13	0	0	0	0	562	524	0	0	0	0	
14	0	0	0	0	567	528	0	0	0	0	
15	0	0	0	0	572	532	0	0	0	0	
0	0	0	0	0	577	536	0	0	0	0	
1	0	0	0	0	583	540	0	0	0	0	
2	0	0	0	0	587	544	0	0	0	0	
3	0	0	0	0	592	551	0	0	0	0	
4	0	0	0	0	596	555	0	0	0	0	
5	0	0	0	0	600	561	0	0	0	0	
6	0	0	0	0	603	565	0	0	0	0	
7	0	0	0	0	604	568	0	0	0	0	
8	0	0	0	0	604	572	0	0	0	0	
9	0	0	0	0	604	572	0	0	0	0	
10	0	0	0	0	602	573	0	0	0	0	
11	0	0	0	0	600	572	0	0	0	0	
12	0	0	0	0	596	570	0	0	0	0	
13	0	0	0	0	592	566	0	0	0	0	
14	0	0	0	0	586	560	0	0	0	0	
15	0	0	0	0	579	553	0	0	0	0	
0	0	0	0	0	571	546	0	0	0	0	
1	0	0	0	0	563	537	0	0	0	0	
2	0	0	0	0	556	530	0	0	0	0	
3	0	0	0	0	550	524	0	0	0	0	
4	0	0	0	0	546	519	0	0	0	0	
5	0	0	0	0	544	516	0	0	0	0	
6	0	0	0	0	544	516	0	0	0	0	
7	0	0	0	0	548	519	0	0	0	0	
8	0	0	0	0	553	523	0	0	0	0	
9	0	0	0	0	561	528	0	0	0	0	
10	0	0	0	0	569	535	0	0	0	0	
11	0	0	0	0	576	541	0	0	0	0	
12	0	0	0	0	583	547	0	0	0	0	
13	0	0	0	0	587	550	0	0	0	0	
14	0	0	0	0	589	551	0	0	0	0	
15	0	0	0	0	587	550	0	0	0	0	
0	0	0	0	0	583	546	0	0	0	0	
1	0	0	0	0	577	541	0	0	0	0	
2	0	0	0	0	569	534	0	0	0	0	
3	0	0	0	0	560	527	0	0	0	0	
4	0	0	0	0	551	519	0	0	0	0	
5	0	0	0	0	543	512	0	0	0	0	
6	0	0	0	0	537	508	0	0	0	0	
7	0	0	0	0	533	504	0	0	0	0	
8	0	0	0	0	531	502	0	0	0	0	
9	0	0	0	0	532	502	0	0	0	0	
10	0	0	0	0	535	503	0	0	0	0	
11	0	0	0	0	539	506	0	0	0	0	
12	0	0	0	0	543	510	0	0	0	0	
13	0	0	0	0	549	514	0	0	0	0	
14	0	0	0	0	553	518	0	0	0	0	
15	0	0	0	0	558	522	0	0	0	0	
0	0	0	0	0	562	526	0	0	0	0	
1	0	0	0	0	564	529	0	0	0	0	
2	0	0	0	0	566	531	0	0	0	0	
3	0	0	0	0	566	532	0	0	0	0	
4	0	0	0	0	565	532	0	0	0	0	
5	0	0	0	0	564	532	0	0	0	0	
6	0	0	0	0	562	530	0	0	0	0	
7	0	0	0	0	559	529	0	0	0	0	
8	0	0	0	0	558	527	0	0	0	0	
9	0	0	0	0	556	525	0	0	0	0	
10	0	0	0	0	556	524	0	0	0	0	
11	0	0	0	0	555	523	0	0	0	0	
12	0	0	0	0	556	523	0	0	0	0	
13	0	0	0	0	557	523	0	0	0	0	
14	0	0	0	0	559	524	0	0	0	0	
15	0	0	0	0	560	525	0	0	0	0	
0	0	0	0	0	563	527	0	0	0	0	
1	0	0	0	0	566	529	0	0	0	0	
2	0	0	0	0	569	532	0	0	0	0	
3	0	0	0	0	572	536	0	0	0	0	
4	0	0	0	0	576	539	0	0	0	0	
5	0	0	0	0	579	542	0	0	0	0	
6	0	0	0	0	582	544	0	0	0	0	
7	0	0	0	0	584	547	0	0	0	0	
8	0	0	0	0	585	548	0	0	0	0	
9	0	0	0	0	587	549	0	0	0	0	
10	0	0	0	0	588	549	0	0	0	0	
11	0	0	0	0	588	549	0	0	0	0	
12	0	0	0	0	587	548	0	0	0	0	
13	0	0	0	0	585	545	0	0	0	0	
14	0	0	0	0	583	543	0	0	0	0	
15	0	0	0	0	579	539	0	0	0	0	
0	0	0	0	0	575	535	0	0	0	0	
1	0	0	0	0	571	532	0	0	0	0	
2	0	0	0	0	566	529	0	0	0	0	
3	0	0	0	0	563	528	0	0	0	0	
4	0	0	0	0	561	528	0	0	0	0	
5	0	0	0	0	560	530	0	0	0	0	
6	0	0	0	0	562	532	0	0	0	0	
7	0	0	0	0	566	537	0	0	0	0	
8	0	0	0	0	572	543	0	0	0	0	
9	0	0	0	0	579	551	0	0	0	0	
10	0	0	0	0	586	558	0	0	0	0	
11	0	0	0	0	593	563	0	0	0	0	
12	0	0	0	0	598	566	0	0	0	0	
13	0	0	0	0	600	567	0	0	0	0	
14	0	0	0	0	598	564	0	0	0	0	
15	0	0	0	0	594	560	0	0	0	0	
0	0	0	0	0	588	551	0	0	0	0	
1	0	0	0	0	578	542	0	0	0	0	
2	0	0	0	0	568	532	0	0	0	0	
3	0	0	0	0	556	522	0	0	0	0	
4	0	0	0	0	545	511	0	0	0	0	
5	0	0	0	0	535	503	0	0	0	0	
6	0	0	0	0	527	495	0	0	0	0	
7	0	0	0	0	521	491	0	0	0	0	
8	0	0	0	0	517	488	0	0	0	0	
9	0	0	0	0	516	487	0	0	0	0	
10	0	0	0	0	518	489	0	0	0	0	
11	0	0	0	0	521	492	0	0	0	0	
12	0	0	0	0	527	497	0	0	0	0	
13	0	0	0	0	533	502	0	0	0	0	
14	0	0	0	0	540	508	0	0	0	0	
15	0	0	0	0	546	513	0	0	0	0	
0	0	0	0	0	551	517	0	0	0	0	
1	0	0	0	0	557	520	0	0	0	0	
2	0	0	0	0	561	523	0	0	0	0	
3	0	0	0	0	564	524	0	0	0	0	
4	0	0	0	0	565	524	0	0	0	0	
5	0	0	0	0	565	524	0	0	0	0	
6	0	0	0	0	565	524	0	0	0	0	
7	0	0	0	0	563	523	0	0	0	0	
8	0	0	0	0	561	522	0	0	0	0	
9	0	0	0	0	560	523	0	0	0	0	
10	0	0	0	0	559	523	0	0	0	0	
11	0	0	0	0	559	525	0	0	0	0	
12	0	0	0	0	559	527	0	0	0	0	
13	0	0	0	0	561	530	0	0	0	0	
14	0	0	0	0	564	533	0	0	0	0	
15	0	0	0	0	567	537	0	0	0	0	
0	0	0	0	0	572	542	0	0	0	0	
1	0	0	0	0	577	545	0	0	0	0	
2	0	0	0	0	582	549	0	0	0	0	
3	0	0	0	0	585	552	0	0	0	0	
4	0	0	0	0	588	552	0	0	0	0	
5	0	0	0	0	588	552	0	0	0	0	
6	0	0	0	0	587	549	0	0	0	0	
7	0	0	0	0	583	545	0	0	0	0	
8	0	0	0	0	579	540	0	0	0	0	
9	0	0	0	0	574	534	0	0	0	0	
10	0	0	0	0	570	529	0	0	0	0	
11	0	0	0	0	566	525	0	0	0	0	
12	0	0	0	0	562	521	0	0	0	0	
13	0	0	0	0	561	520	0	0	0	0	
14	0	0	0	0	560	519	0	0	0	0	
15	0	0	0	0	562	521	0	0	0	0	
0	0	0	0	0	564	525	0	0	0	0	
1	0	0	0	0	568	530	0	0	0	0	
2	0	0	0	0	573	536	0	0	0	0	
3	0	0	0	0	577	540	0	0	0	0	
4	0	0	0	0	582	545	0	0	0	0	
5	0	0	0	0	584	548	0	0	0	0	
6	0	0	0	0	584	548	0	0	0	0	
7	0	0	0	0	582	546	0	0	0	0	
8	0	0	0	0	575	540	0	0	0	0	
9	0	0	0	0	566	531	0	0	0	0	
10	0	0	0	0	553	519	0	0	0	0	
11	0	0	0	0	537	505	0	0	0	0	
12	0	0	0	0	521	489	0	0	0	0	
13	0	0	0	0	504	472	0	0	0	0	
14	0	0	0	0	486	457	0	0	0	0	
15	0	0	0	0	469	441	0	0	0	0	
0	0	0	0	0	453	426	0	0	0	0	
1	0	0	0	0	438	413	0	0	0	0	
2	0	0	0	0	425	400	0	0	0	0	
3	0	0	0	0	413	389	0	0	0	0	
4	0	0	0	0	402	379	0	0	0	0	
5	0	0	0	0	391	368	0	0	0	0	
6	0	0	0	0	382	359	0	0	0	0	
7	0	0	0	0	373	348	0	0	0	0	
8	0	0	0	0	364	339	0	0	0	0	
9	0	0	0	0	356	331	0	0	0	0	
10	0	0	0	0	348	321	0	0	0	0	
11	0	0	0	0	342	312	0	0	0	0	
12	0	0	0	0	335	305	0	0	0	0	
13	0	0	0	0	331	299	0	0	0	0	
14	0	0	0	0	327	295	0	0	0	0	
15	0	0	0	0	327	292	0	0	0	0	
0	0	0	0	0	328	293	0	0	0	0	
1	0	0	0	0	333	296	0	0	0	0	
2	0	0	0	0	340	302	0	0	0	0	
3	0	0	0	0	350	311	0	0	0	0	
4	0	0	0	0	363	323	0	0	0	0	
5	0	0	0	0	380	338	0	0	0	0	
6	0	0	0	0	398	356	0	0	0	0	
7	0	0	0	0	420	376	0	0	0	0	
8	0	0	0	0	444	398	0	0	0	0	
9	0	0	0	0	469	421	0	0	0	0	
10	0	0	0	0	495	445	0	0	0	0	
11	0	0	0	0	519	467	0	0	0	0	
12	0	0	0	0	544	491	0	0	0	0	
13	0	0	0	0	566	511	0	0	0	0	
14	0	0	0	0	585	529	0	0	0	0	
15	0	0	0	0	600	543	0	0	0	0	
0	0	0	0	0	610	554	0	0	0	0	
1	0	0	0	0	618	561	0	0	0	0	
2	0	0	0	0	621	565	0	0	0	0	
3	0	0	0	0	621	567	0	0	0	0	
4	0	0	0	0	620	568	0	0	0	0	
5	0	0	0	0	617	567	0	0	0	0	
6	0	0	0	0	615	567	0	0	0	0	
7	0	0	0	0	612	567	0	0	0	0	
8	0	0	0	0	610	568	0	0	0	0	
9	0	0	0	0	609	569	0	0	0	0	
10	0	0	0	0	608	569	0	0	0	0	
11	0	0	0	0	609	572	0	0	0	0	
12	0	0	0	0	608	572	0	0	0	0	
13	0	0	0	0	607	571	0	0	0	0	
14	0	0	0	0	604	568	0	0	0	0	
15	0	0	0	0	601	564	0	0	0	0	
0	0	0	0	0	596	559	0	0	0	0	
1	0	0	0	0	589	553	0	0	0	0	
2	0	0	0	0	582	546	0	0	0	0	
3	0	0	0	0	574	538	0	0	0	0	
4	0	0	0	0	566	531	0	0	0	0	
5	0	0	0	0	559	525	0	0	0	0	
6	0	0	0	0	552	519	0	0	0	0	
7	0	0	0	0	547	514	0	0	0	0	
8	0	0	0	0	543	510	0	0	0	0	
9	0	0	0	0	539	507	0	0	0	0	
10	0	0	0	0	537	506	0	0	0	0	
11	0	0	0	0	537	505	0	0	0	0	
12	0	0	0	0	537	506	0	0	0	0	
13	0	0	0	0	539	507	0	0	0	0	
14	0	0	0	0	540	509	0	0	0	0	
15	0	0	0	0	545	512	0	0	0	0	
0	0	0	0	0	549	516	0	0	0	0	
1	0	0	0	0	553	520	0	0	0	0	
2	0	0	0	0	558	523	0	0	0	0	
3	0	0	0	0	562	527	0	0	0	0	
4	0	0	0	0	568	531	0	0	0	0	
5	0	0	0	0	571	534	0	0	0	0	
6	0	0	0	0	575	536	0	0	0	0	
7	0	0	0	0	578	538	0	0	0	0	
8	0	0	0	0	579	540	0	0	0	0	
9	0	0	0	0	582	541	0	0	0	0	
10	0	0	0	0	583	542	0	0	0	0	
11	0	0	0	0	584	543	0	0	0	0	
12	0	0	0	0	583	543	0	0	0	0	
13	0	0	0	0	583	543	0	0	0	0	
14	0	0	0	0	582	542	0	0	0	0	
15	0	0	0	0	580	542	0	0	0	0	
0	0	0	0	0	580	541	0	0	0	0	
1	0	0	0	0	579	541	0	0	0	0	
2	0	0	0	0	579	542	0	0	0	0	
3	0	0	0	0	581	544	0	0	0	0	
4	0	0	0	0	583	547	0	0	0	0	
5	0	0	0	0	587	551	0	0	0	0	
6	0	0	0	0	591	556	0	0	0	0	
7	0	0	0	0	597	561	0	0	0	0	
8	0	0	0	0	602	567	0	0	0	0	
9	0	0	0	0	607	571	0	0	0	0	
10	0	0	0	0	609	573	0	0	0	0	
11	0	0	0	0	611	574	0	0	0	0	
12	0	0	0	0	609	571	0	0	0	0	
13	0	0	0	0	606	568	0	0	0	0	
14	0	0	0	0	601	563	0	0	0	0	
15	0	0	0	0	596	557	0	0	0	0	
0	0	0	0	0	590	551	0	0	0	0	
1	0	0	0	0	583	544	0	0	0	0	
2	0	0	0	0	578	540	0	0	0	0	
3	0	0	0	0	574	535	0	0	0	0	
4	0	0	0	0	570	532	0	0	0	0	
5	0	0	0	0	568	530	0	0	0	0	
6	0	0	0	0	568	529	0	0	0	0	
7	0	0	0	0	570	531	0	0	0	0	
8	0	0	0	0	573	534	0	0	0	0	
9	0	0	0	0	578	538	0	0	0	0	
10	0	0	0	0	584	543	0	0	0	0	
11	0	0	0	0	590	548	0	0	0	0	
12	0	0	0	0	596	554	0	0	0	0	
13	0	0	0	0	603	559	0	0	0	0	
14	0	0	0	0	608	564	0	0	0	0	
15	0	0	0	0	612	568	0	0	0	0	
0	0	0	0	0	615	571	0	0	0	0	
1	0	0	0	0	617	573	0	0	0	0	
2	0	0	0	0	617	574	0	0	0	0	
3	0	0	0	0	615	572	0	0	0	0	
4	0	0	0	0	611	568	0	0	0	0	
5	0	0	0	0	604	563	0	0	0	0	
6	0	0	0	0	597	557	0	0	0	0	
7	0	0	0	0	589	550	0	0	0	0	
8	0	0	0	0	580	543	0	0	0	0	
9	0	0	0	0	572	536	0	0	0	0	
10	0	0	0	0	564	531	0	0	0	0	
11	0	0	0	0	560	527	0	0	0	0	
12	0	0	0	0	557	525	0	0	0	0	
13	0	0	0	0	555	524	0	0	0	0	
14	0	0	0	0	556	524	0	0	0	0	
15	0	0	0	0	556	526	0	0	0	0	
0	0	0	0	0	559	528	0	0	0	0	
1	0	0	0	0	561	530	0	0	0	0	
2	0	0	0	0	564	532	0	0	0	0	
3	0	0	0	0	566	534	0	0	0	0	
4	0	0	0	0	567	535	0	0	0	0	
5	0	0	0	0	569	535	0	0	0	0	
6	0	0	0	0	569	535	0	0	0	0	
7	0	0	0	0	568	533	0	0	0	0	
8	0	0	0	0	567	530	0	0	0	0	
9	0	0	0	0	563	527	0	0	0	0	
10	0	0	0	0	561	524	0	0	0	0	
11	0	0	0	0	557	520	0	0	0	0	
12	0	0	0	0	553	516	0	0	0	0	
13	0	0	0	0	550	513	0	0	0	0	
14	0	0	0	0	547	511	0	0	0	0	
15	0	0	0	0	546	511	0	0	0	0	
0	0	0	0	0	546	512	0	0	0	0	
1	0	0	0	0	548	514	0	0	0	0	
2	0	0	0	0	551	517	0	0	0	0	
3	0	0	0	0	555	521	0	0	0	0	
4	0	0	0	0	560	525	0	0	0	0	
5	0	0	0	0	564	529	0	0	0	0	
6	0	0	0	0	569	533	0	0	0	0	
7	0	0	0	0	573	537	0	0	0	0	
8	0	0	0	0	577	540	0	0	0	0	
9	0	0	0	0	581	543	0	0	0	0	
10	0	0	0	0	584	545	0	0	0	0	
11	0	0	0	0	586	545	0	0	0	0	
12	0	0	0	0	587	544	0	0	0	0	
13	0	0	0	0	584	542	0	0	0	0	
14	0	0	0	0	582	538	0	0	0	0	
15	0	0	0	0	577	534	0	0	0	0	
0	0	0	0	0	571	528	0	0	0	0	
1	0	0	0	0	564	522	0	0	0	0	
2	0	0	0	0	559	517	0	0	0	0	
3	0	0	0	0	552	513	0	0	0	0	
4	0	0	0	0	548	511	0	0	0	0	
5	0	0	0	0	546	510	0	0	0	0	
6	0	0	0	0	544	509	0	0	0	0	
7	0	0	0	0	545	511	0	0	0	0	
8	0	0	0	0	548	514	0	0	0	0	
9	0	0	0	0	552	518	0	0	0	0	
10	0	0	0	0	557	522	0	0	0	0	
11	0	0	0	0	562	526	0	0	0	0	
12	0	0	0	0	568	530	0	0	0	0	
13	0	0	0	0	573	534	0	0	0	0	
14	0	0	0	0	577	537	0	0	0	0	
15	0	0	0	0	582	539	0	0	0	0	
0	0	0	0	0	583	540	0	0	0	0	
1	0	0	0	0	586	540	0	0	0	0	
2	0	0	0	0	587	541	0	0	0	0	
3	0	0	0	0	588	541	0	0	0	0	
4	0	0	0	0	588	542	0	0	0	0	
5	0	0	0	0	589	542	0	0	0	0	
6	0	0	0	0	590	542	0	0	0	0	
7	0	0	0	0	591	544	0	0	0	0	
8	0	0	0	0	591	546	0	0	0	0	
9	0	0	0	0	592	547	0	0	0	0	
10	0	0	0	0	591	548	0	0	0	0	
11	0	0	0	0	590	548	0	0	0	0	
12	0	0	0	0	588	547	0	0	0	0	
13	0	0	0	0	583	545	0	0	0	0	
14	0	0	0	0	578	542	0	0	0	0	
15	0	0	0	0	572	537	0	0	0	0	
0	0	0	0	0	565	532	0	0	0	0	
1	0	0	0	0	559	527	0	0	0	0	
2	0	0	0	0	553	521	0	0	0	0	
3	0	0	0	0	548	516	0	0	0	0	
4	0	0	0	0	545	512	0	0	0	0	
5	0	0	0	0	543	509	0	0	0	0	
6	0	0	0	0	543	507	0	0	0	0	
7	0	0	0	0	543	505	0	0	0	0	
8	0	0	0	0	544	504	0	0	0	0	
9	0	0	0	0	546	504	0	0	0	0	
10	0	0	0	0	547	503	0	0	0	0	
11	0	0	0	0	548	504	0	0	0	0	
12	0	0	0	0	548	503	0	0	0	0	
13	0	0	0	0	548	502	0	0	0	0	
14	0	0	0	0	547	502	0	0	0	0	
15	0	0	0	0	546	502	0	0	0	0	
0	0	0	0	0	545	502	0	0	0	0	
1	0	0	0	0	545	503	0	0	0	0	
2	0	0	0	0	544	504	0	0	0	0	
3	0	0	0	0	544	504	0	0	0	0	
4	0	0	0	0	543	505	0	0	0	0	
5	0	0	0	0	544	505	0	0	0	0	
6	0	0	0	0	543	504	0	0	0	0	
7	0	0	0	0	543	504	0	0	0	0	
8	0	0	0	0	543	504	0	0	0	0	
9	0	0	0	0	543	503	0	0	0	0	
10	0	0	0	0	546	504	0	0	0	0	
11	0	0	0	0	548	505	0	0	0	0	
12	0	0	0	0	551	508	0	0	0	0	
13	0	0	0	0	556	511	0	0	0	0	
14	0	0	0	0	560	514	0	0	0	0	
15	0	0	0	0	565	519	0	0	0	0	
0	0	0	0	0	569	522	0	0	0	0	
1	0	0	0	0	571	524	0	0	0	0	
2	0	0	0	0	572	525	0	0	0	0	
3	0	0	0	0	569	524	0	0	0	0	
4	0	0	0	0	565	521	0	0	0	0	
5	0	0	0	0	560	517	0	0	0	0	
6	0	0	0	0	554	513	0	0	0	0	
7	0	0	0	0	548	509	0	0	0	0	
8	0	0	0	0	542	505	0	0	0	0	
9	0	0	0	0	539	503	0	0	0	0	
10	0	0	0	0	537	501	0	0	0	0	
11	0	0	0	0	536	500	0	0	0	0	
12	0	0	0	0	536	500	0	0	0	0	
13	0	0	0	0	537	500	0	0	0	0	
14	0	0	0	0	539	501	0	0	0	0	
15	0	0	0	0	540	500	0	0	0	0	
0	0	0	0	0	541	500	0	0	0	0	
1	0	0	0	0	541	499	0	0	0	0	
2	0	0	0	0	541	498	0	0	0	0	
3	0	0	0	0	541	498	0	0	0	0	
4	0	0	0	0	541	499	0	0	0	0	
5	0	0	0	0	542	499	0	0	0	0	
6	0	0	0	0	543	500	0	0	0	0	
7	0	0	0	0	543	501	0	0	0	0	
8	0	0	0	0	545	503	0	0	0	0	
9	0	0	0	0	546	505	0	0	0	0	
10	0	0	0	0	547	505	0	0	0	0	
11	0	0	0	0	548	507	0	0	0	0	
12	0	0	0	0	550	507	0	0	0	0	
13	0	0	0	0	551	508	0	0	0	0	
14	0	0	0	0	551	508	0	0	0	0	
15	0	0	0	0	552	508	0	0	0	0	
0	0	0	0	0	553	508	0	0	0	0	
1	0	0	0	0	553	508	0	0	0	0	
2	0	0	0	0	552	508	0	0	0	0	
3	0	0	0	0	552	508	0	0	0	0	
4	0	0	0	0	551	507	0	0	0	0	
5	0	0	0	0	549	507	0	0	0	0	
6	0	0	0	0	547	505	0	0	0	0	
7	0	0	0	0	544	504	0	0	0	0	
8	0	0	0	0	541	502	0	0	0	0	
9	0	0	0	0	538	500	0	0	0	0	
10	0	0	0	0	535	499	0	0	0	0	
11	0	0	0	0	532	497	0	0	0	0	
12	0	0	0	0	531	496	0	0	0	0	
13	0	0	0	0	529	496	0	0	0	0	
14	0	0	0	0	529	496	0	0	0	0	
15	0	0	0	0	529	496	0	0	0	0	
0	0	0	0	0	529	497	0	0	0	0	
1	0	0	0	0	532	498	0	0	0	0	
2	0	0	0	0	534	500	0	0	0	0	
3	0	0	0	0	537	502	0	0	0	0	
4	0	0	0	0	541	505	0	0	0	0	
5	0	0	0	0	545	507	0	0	0	0	
6	0	0	0	0	548	509	0	0	0	0	
7	0	0	0	0	550	511	0	0	0	0	
8	0	0	0	0	551	511	0	0	0	0	
9	0	0	0	0	551	511	0	0	0	0	
10	0	0	0	0	551	510	0	0	0	0	
11	0	0	0	0	550	510	0	0	0	0	
12	0	0	0	0	548	509	0	0	0	0	
13	0	0	0	0	547	508	0	0	0	0	
14	0	0	0	0	545	508	0	0	0	0	
15	0	0	0	0	544	505	0	0	0	0	
0	0	0	0	0	542	504	0	0	0	0	
1	0	0	0	0	541	502	0	0	0	0	
2	0	0	0	0	539	499	0	0	0	0	
3	0	0	0	0	536	497	0	0	0	0	
4	0	0	0	0	533	494	0	0	0	0	
5	0	0	0	0	531	491	0	0	0	0	
6	0	0	0	0	528	488	0	0	0	0	
7	0	0	0	0	526	486	0	0	0	0	
8	0	0	0	0	525	484	0	0	0	0	
9	0	0	0	0	524	484	0	0	0	0	
10	0	0	0	0	524	484	0	0	0	0	
11	0	0	0	0	525	486	0	0	0	0	
12	0	0	0	0	527	487	0	0	0	0	
13	0	0	0	0	531	491	0	0	0	0	
14	0	0	0	0	535	494	0	0	0	0	
15	0	0	0	0	541	500	0	0	0	0	
0	0	0	0	0	546	505	0	0	0	0	
1	0	0	0	0	552	511	0	0	0	0	
2	0	0	0	0	559	517	0	0	0	0	
3	0	0	0	0	566	522	0	0	0	0	
4	0	0	0	0	571	527	0	0	0	0	
5	0	0	0	0	575	531	0	0	0	0	
6	0	0	0	0	579	534	0	0	0	0	
7	0	0	0	0	580	536	0	0	0	0	
8	0	0	0	0	580	535	0	0	0	0	
9	0	0	0	0	578	533	0	0	0	0	
10	0	0	0	0	573	529	0	0	0	0	
11	0	0	0	0	566	524	0	0	0	0	
12	0	0	0	0	558	516	0	0	0	0	
13	0	0	0	0	548	508	0	0	0	0	
14	0	0	0	0	539	501	0	0	0	0	
15	0	0	0	0	530	494	0	0	0	0	
0	0	0	0	0	523	487	0	0	0	0	
1	0	0	0	0	517	483	0	0	0	0	
2	0	0	0	0	513	479	0	0	0	0	
3	0	0	0	0	512	478	0	0	0	0	
4	0	0	0	0	513	480	0	0	0	0	
5	0	0	0	0	518	483	0	0	0	0	
6	0	0	0	0	524	487	0	0	0	0	
7	0	0	0	0	533	495	0	0	0	0	
8	0	0	0	0	542	503	0	0	0	0	
9	0	0	0	0	551	511	0	0	0	0	
10	0	0	0	0	560	517	0	0	0	0	
11	0	0	0	0	567	522	0	0	0	0	
12	0	0	0	0	571	525	0	0	0	0	
13	0	0	0	0	574	527	0	0	0	0	
14	0	0	0	0	573	527	0	0	0	0	
15	0	0	0	0	571	526	0	0	0	0	
0	0	0	0	0	568	523	0	0	0	0	
1	0	0	0	0	563	521	0	0	0	0	
2	0	0	0	0	560	519	0	0	0	0	
3	0	0	0	0	557	517	0	0	0	0	
4	0	0	0	0	555	516	0	0	0	0	
5	0	0	0	0	553	516	0	0	0	0	
6	0	0	0	0	553	518	0	0	0	0	
7	0	0	0	0	554	519	0	0	0	0	
8	0	0	0	0	555	520	0	0	0	0	
9	0	0	0	0	555	520	0	0	0	0	
10	0	0	0	0	554	519	0	0	0	0	
11	0	0	0	0	552	519	0	0	0	0	
12	0	0	0	0	551	516	0	0	0	0	
13	0	0	0	0	547	512	0	0	0	0	
14	0	0	0	0	542	507	0	0	0	0	
15	0	0	0	0	537	501	0	0	0	0	
0	0	0	0	0	531	495	0	0	0	0	
1	0	0	0	0	524	487	0	0	0	0	
2	0	0	0	0	518	480	0	0	0	0	
3	0	0	0	0	512	474	0	0	0	0	
4	0	0	0	0	508	468	0	0	0	0	
5	0	0	0	0	503	464	0	0	0	0	
6	0	0	0	0	502	462	0	0	0	0	
7	0	0	0	0	501	461	0	0	0	0	
8	0	0	0	0	502	461	0	0	0	0	
9	0	0	0	0	505	463	0	0	0	0	
10	0	0	0	0	508	467	0	0	0	0	
11	0	0	0	0	513	472	0	0	0	0	
12	0	0	0	0	519	478	0	0	0	0	
13	0	0	0	0	525	483	0	0	0	0	
14	0	0	0	0	530	489	0	0	0	0	
15	0	0	0	0	536	495	0	0	0	0	
0	0	0	0	0	541	500	0	0	0	0	
1	0	0	0	0	544	504	0	0	0	0	
2	0	0	0	0	547	506	0	0	0	0	
3	0	0	0	0	548	508	0	0	0	0	
4	0	0	0	0	548	507	0	0	0	0	
5	0	0	0	0	547	506	0	0	0	0	
6	0	0	0	0	546	504	0	0	0	0	
7	0	0	0	0	545	503	0	0	0	0	
8	0	0	0	0	544	502	0	0	0	0	
9	0	0	0	0	545	501	0	0	0	0	
10	0	0	0	0	546	502	0	0	0	0	
11	0	0	0	0	549	504	0	0	0	0	
12	0	0	0	0	553	507	0	0	0	0	
13	0	0	0	0	559	512	0	0	0	0	
14	0	0	0	0	566	518	0	0	0	0	
15	0	0	0	0	574	525	0	0	0	0	
0	0	0	0	0	581	531	0	0	0	0	
1	0	0	0	0	589	537	0	0	0	0	
2	0	0	0	0	594	542	0	0	0	0	
3	0	0	0	0	598	545	0	0	0	0	
4	0	0	0	0	599	547	0	0	0	0	
5	0	0	0	0	597	547	0	0	0	0	
6	0	0	0	0	592	544	0	0	0	0	
7	0	0	0	0	585	539	0	0	0	0	
8	0	0	0	0	574	530	0	0	0	0	
9	0	0	0	0	560	520	0	0	0	0	
10	0	0	0	0	546	509	0	0	0	0	
11	0	0	0	0	531	496	0	0	0	0	
12	0	0	0	0	517	485	0	0	0	0	
13	0	0	0	0	504	475	0	0	0	0	
14	0	0	0	0	495	466	0	0	0	0	
15	0	0	0	0	489	460	0	0	0	0	
0	0	0	0	0	485	456	0	0	0	0	
1	0	0	0	0	485	455	0	0	0	0	
2	0	0	0	0	487	456	0	0	0	0	
3	0	0	0	0	493	460	0	0	0	0	
4	0	0	0	0	501	465	0	0	0	0	
5	0	0	0	0	509	471	0	0	0	0	
6	0	0	0	0	518	478	0	0	0	0	
7	0	0	0	0	527	485	0	0	0	0	
8	0	0	0	0	536	492	0	0	0	0	
9	0	0	0	0	545	499	0	0	0	0	
10	0	0	0	0	552	505	0	0	0	0	
11	0	0	0	0	558	511	0	0	0	0	
12	0	0	0	0	563	514	0	0	0	0	
13	0	0	0	0	565	516	0	0	0	0	
14	0	0	0	0	565	517	0	0	0	0	
15	0	0	0	0	563	516	0	0	0	0	
0	0	0	0	0	561	514	0	0	0	0	
1	0	0	0	0	557	512	0	0	0	0	
2	0	0	0	0	553	510	0	0	0	0	
3	0	0	0	0	551	509	0	0	0	0	
4	0	0	0	0	548	508	0	0	0	0	
5	0	0	0	0	547	508	0	0	0	0	
6	0	0	0	0	545	507	0	0	0	0	
7	0	0	0	0	545	507	0	0	0	0	
8	0	0	0	0	543	507	0	0	0	0	
9	0	0	0	0	543	506	0	0	0	0	
10	0	0	0	0	542	505	0	0	0	0	
11	0	0	0	0	541	503	0	0	0	0	
12	0	0	0	0	540	502	0	0	0	0	
13	0	0	0	0	539	500	0	0	0	0	
14	0	0	0	0	538	499	0	0	0	0	
