# OpenSignals Text File Format. Version 1
# {"": {"position": 0, "device": "", "device name": "", "device connection": "", "sampling rate": 1000, "resolution": [4, 1, 1, 1, 1, 10, 10, 10, 10, 6, 6], "firmware version": 1281, "comments": "", "keywords": "", "mode": 0, "sync interval": 2, "date": "", "time": "", "channels": [1, 2, 3, 4, 5, 6], "sensor": ["RAW", "RAW", "RAW", "RAW", "RAW", "RAW"], "label": ["A1", "A2", "A3", "A4", "A5", "A6"], "column": ["nSeq", "I1", "I2", "O1", "O2", "A1", "A2", "A3", "A4", "A5", "A6"], "special": [{}, {}, {}, {}, {}, {}], "digital IO": [0, 0, 1, 1]}}
# EndOfHeader
0	0	0	0	0	639	1021	0	655	0	0	
1	0	0	0	0	630	1021	0	646	0	0	
2	0	0	0	0	620	1021	0	641	0	0	
3	0	0	0	0	608	1021	0	639	0	0	
4	0	0	0	0	598	1021	0	641	0	0	
5	0	0	0	0	587	1021	0	646	0	0	
6	0	0	0	0	579	1021	0	654	0	0	
7	0	0	0	0	574	1021	0	663	0	0	
8	0	0	0	0	571	1021	0	673	0	0	
9	0	0	0	0	571	1022	0	682	0	0	
10	0	0	0	0	574	1021	0	691	0	0	
11	0	0	0	0	580	1021	0	697	0	0	
12	0	0	0	0	587	1021	0	701	0	0	
13	0	0	0	0	595	1021	0	702	0	0	
14	0	0	0	0	605	1021	0	700	0	0	
15	0	0	0	0	614	1021	0	695	0	0	
0	0	0	0	0	621	1021	0	688	0	0	
1	0	0	0	0	627	1021	0	679	0	0	
2	0	0	0	0	630	1021	0	669	0	0	
3	0	0	0	0	630	1022	0	657	0	0	
4	0	0	0	0	628	1021	0	647	0	0	
5	0	0	0	0	623	1021	0	638	0	0	
6	0	0	0	0	615	1021	0	631	0	0	
7	0	0	0	0	604	1022	0	625	0	0	
8	0	0	0	0	591	1021	0	622	0	0	
9	0	0	0	0	578	1021	0	622	0	0	
10	0	0	0	0	566	1021	0	625	0	0	
11	0	0	0	0	556	1021	0	632	0	0	
12	0	0	0	0	550	1021	0	641	0	0	
13	0	0	0	0	547	1021	0	652	0	0	
14	0	0	0	0	548	1021	0	663	0	0	
15	0	0	0	0	553	1021	0	673	0	0	
0	0	0	0	0	560	1021	0	680	0	0	
1	0	0	0	0	568	1021	0	684	0	0	
2	0	0	0	0	577	1022	0	684	0	0	
3	0	0	0	0	585	1021	0	682	0	0	
4	0	0	0	0	591	1022	0	675	0	0	
5	0	0	0	0	594	1021	0	663	0	0	
6	0	0	0	0	594	1021	0	649	0	0	
7	0	0	0	0	590	1022	0	635	0	0	
8	0	0	0	0	584	1021	0	621	0	0	
9	0	0	0	0	577	1021	0	610	0	0	
10	0	0	0	0	569	1021	0	603	0	0	
11	0	0	0	0	561	1021	0	600	0	0	
12	0	0	0	0	555	1022	0	603	0	0	
13	0	0	0	0	551	1021	0	610	0	0	
14	0	0	0	0	551	1021	0	623	0	0	
15	0	0	0	0	554	1021	0	639	0	0	
0	0	0	0	0	561	1022	0	658	0	0	
1	0	0	0	0	572	1021	0	678	0	0	
2	0	0	0	0	585	1021	0	698	0	0	
3	0	0	0	0	599	1021	0	715	0	0	
4	0	0	0	0	613	1021	0	730	0	0	
5	0	0	0	0	627	1022	0	739	0	0	
6	0	0	0	0	638	1021	0	743	0	0	
7	0	0	0	0	646	1021	0	742	0	0	
8	0	0	0	0	649	1021	0	734	0	0	
9	0	0	0	0	646	1021	0	719	0	0	
10	0	0	0	0	637	1022	0	700	0	0	
11	0	0	0	0	622	1022	0	677	0	0	
12	0	0	0	0	604	1021	0	654	0	0	
13	0	0	0	0	583	1021	0	632	0	0	
14	0	0	0	0	563	1021	0	614	0	0	
15	0	0	0	0	545	1022	0	602	0	0	
0	0	0	0	0	533	1021	0	597	0	0	
1	0	0	0	0	526	1021	0	599	0	0	
2	0	0	0	0	526	1021	0	609	0	0	
3	0	0	0	0	533	1021	0	625	0	0	
4	0	0	0	0	547	1021	0	648	0	0	
5	0	0	0	0	568	1021	0	674	0	0	
6	0	0	0	0	591	1021	0	702	0	0	
7	0	0	0	0	617	1021	0	728	0	0	
8	0	0	0	0	641	1021	0	751	0	0	
9	0	0	0	0	662	1021	0	768	0	0	
10	0	0	0	0	679	1021	0	779	0	0	
11	0	0	0	0	688	1021	0	782	0	0	
12	0	0	0	0	689	1021	0	777	0	0	
13	0	0	0	0	682	1021	0	764	0	0	
14	0	0	0	0	668	1022	0	745	0	0	
15	0	0	0	0	647	1021	0	722	0	0	
0	0	0	0	0	623	1021	0	698	0	0	
1	0	0	0	0	597	1021	0	675	0	0	
2	0	0	0	0	572	1021	0	656	0	0	
3	0	0	0	0	551	1022	0	643	0	0	
4	0	0	0	0	536	1021	0	636	0	0	
5	0	0	0	0	527	1021	0	636	0	0	
6	0	0	0	0	527	1021	0	643	0	0	
7	0	0	0	0	535	1021	0	657	0	0	
8	0	0	0	0	550	1022	0	677	0	0	
9	0	0	0	0	572	1021	0	700	0	0	
10	0	0	0	0	597	1021	0	724	0	0	
11	0	0	0	0	624	1021	0	747	0	0	
12	0	0	0	0	650	1021	0	767	0	0	
13	0	0	0	0	671	1022	0	781	0	0	
14	0	0	0	0	687	1021	0	789	0	0	
15	0	0	0	0	695	1021	0	788	0	0	
0	0	0	0	0	692	1021	0	780	0	0	
1	0	0	0	0	680	1021	0	762	0	0	
2	0	0	0	0	659	1022	0	739	0	0	
3	0	0	0	0	631	1021	0	712	0	0	
4	0	0	0	0	599	1021	0	684	0	0	
5	0	0	0	0	566	1021	0	659	0	0	
6	0	0	0	0	534	1021	0	637	0	0	
7	0	0	0	0	508	1021	0	622	0	0	
8	0	0	0	0	488	1021	0	614	0	0	
9	0	0	0	0	477	1021	0	613	0	0	
10	0	0	0	0	476	1021	0	621	0	0	
11	0	0	0	0	482	1021	0	636	0	0	
12	0	0	0	0	497	1022	0	656	0	0	
13	0	0	0	0	519	1021	0	680	0	0	
14	0	0	0	0	544	1021	0	704	0	0	
15	0	0	0	0	572	1021	0	727	0	0	
0	0	0	0	0	598	1021	0	747	0	0	
1	0	0	0	0	622	1022	0	761	0	0	
2	0	0	0	0	642	1022	0	771	0	0	
3	0	0	0	0	656	1021	0	774	0	0	
4	0	0	0	0	665	1021	0	772	0	0	
5	0	0	0	0	665	1021	0	764	0	0	
6	0	0	0	0	658	1021	0	750	0	0	
7	0	0	0	0	646	1022	0	735	0	0	
8	0	0	0	0	628	1021	0	717	0	0	
9	0	0	0	0	609	1021	0	702	0	0	
10	0	0	0	0	588	1021	0	688	0	0	
11	0	0	0	0	568	1022	0	679	0	0	
12	0	0	0	0	551	1022	0	675	0	0	
13	0	0	0	0	540	1021	0	677	0	0	
14	0	0	0	0	535	1021	0	684	0	0	
15	0	0	0	0	536	1021	0	697	0	0	
0	0	0	0	0	543	1022	0	715	0	0	
1	0	0	0	0	556	1022	0	734	0	0	
2	0	0	0	0	575	1021	0	756	0	0	
3	0	0	0	0	596	1022	0	776	0	0	
4	0	0	0	0	620	1021	0	794	0	0	
5	0	0	0	0	642	1022	0	808	0	0	
6	0	0	0	0	664	1021	0	818	0	0	
7	0	0	0	0	682	1021	0	822	0	0	
8	0	0	0	0	695	1021	0	823	0	0	
9	0	0	0	0	702	1021	0	817	0	0	
10	0	0	0	0	704	1022	0	808	0	0	
11	0	0	0	0	700	1022	0	796	0	0	
12	0	0	0	0	694	1021	0	783	0	0	
13	0	0	0	0	682	1021	0	771	0	0	
14	0	0	0	0	668	1021	0	760	0	0	
15	0	0	0	0	652	1022	0	753	0	0	
0	0	0	0	0	635	1021	0	748	0	0	
1	0	0	0	0	620	1021	0	748	0	0	
2	0	0	0	0	606	1021	0	751	0	0	
3	0	0	0	0	596	1021	0	758	0	0	
4	0	0	0	0	591	1022	0	767	0	0	
5	0	0	0	0	587	1021	0	777	0	0	
6	0	0	0	0	586	1021	0	787	0	0	
7	0	0	0	0	583	1021	0	793	0	0	
8	0	0	0	0	580	1021	0	793	0	0	
9	0	0	0	0	575	1022	0	789	0	0	
10	0	0	0	0	569	1021	0	779	0	0	
11	0	0	0	0	560	1021	0	765	0	0	
12	0	0	0	0	550	1021	0	747	0	0	
13	0	0	0	0	540	1021	0	727	0	0	
14	0	0	0	0	528	1022	0	706	0	0	
15	0	0	0	0	519	1021	0	688	0	0	
0	0	0	0	0	511	1021	0	672	0	0	
1	0	0	0	0	505	1021	0	663	0	0	
2	0	0	0	0	503	1021	0	658	0	0	
3	0	0	0	0	504	1022	0	662	0	0	
4	0	0	0	0	511	1021	0	671	0	0	
5	0	0	0	0	520	1021	0	687	0	0	
6	0	0	0	0	534	1021	0	707	0	0	
7	0	0	0	0	551	1021	0	732	0	0	
8	0	0	0	0	570	1021	0	760	0	0	
9	0	0	0	0	591	1021	0	787	0	0	
10	0	0	0	0	611	1021	0	812	0	0	
11	0	0	0	0	631	1021	0	834	0	0	
12	0	0	0	0	647	1021	0	849	0	0	
13	0	0	0	0	658	1022	0	858	0	0	
14	0	0	0	0	666	1021	0	860	0	0	
15	0	0	0	0	668	1021	0	854	0	0	
0	0	0	0	0	664	1021	0	843	0	0	
1	0	0	0	0	655	1021	0	826	0	0	
2	0	0	0	0	641	1022	0	806	0	0	
3	0	0	0	0	624	1021	0	783	0	0	
4	0	0	0	0	604	1021	0	761	0	0	
5	0	0	0	0	583	1021	0	741	0	0	
6	0	0	0	0	564	1021	0	725	0	0	
7	0	0	0	0	545	1022	0	713	0	0	
8	0	0	0	0	529	1021	0	706	0	0	
9	0	0	0	0	516	1021	0	705	0	0	
10	0	0	0	0	508	1021	0	710	0	0	
11	0	0	0	0	507	1021	0	721	0	0	
12	0	0	0	0	510	1022	0	737	0	0	
13	0	0	0	0	519	1021	0	756	0	0	
14	0	0	0	0	535	1021	0	777	0	0	
15	0	0	0	0	552	1021	0	799	0	0	
0	0	0	0	0	572	1021	0	818	0	0	
1	0	0	0	0	591	1022	0	834	0	0	
2	0	0	0	0	609	1021	0	845	0	0	
3	0	0	0	0	623	1021	0	850	0	0	
4	0	0	0	0	632	1021	0	848	0	0	
5	0	0	0	0	634	1021	0	839	0	0	
6	0	0	0	0	630	1022	0	825	0	0	
7	0	0	0	0	620	1021	0	807	0	0	
8	0	0	0	0	606	1021	0	786	0	0	
9	0	0	0	0	588	1021	0	765	0	0	
10	0	0	0	0	569	1021	0	747	0	0	
11	0	0	0	0	550	1022	0	733	0	0	
12	0	0	0	0	535	1021	0	724	0	0	
13	0	0	0	0	523	1021	0	721	0	0	
14	0	0	0	0	517	1021	0	726	0	0	
15	0	0	0	0	517	1021	0	737	0	0	
0	0	0	0	0	524	1021	0	753	0	0	
1	0	0	0	0	536	1022	0	774	0	0	
2	0	0	0	0	555	1021	0	798	0	0	
3	0	0	0	0	577	1021	0	822	0	0	
4	0	0	0	0	601	1021	0	843	0	0	
5	0	0	0	0	626	1022	0	861	0	0	
6	0	0	0	0	650	1022	0	875	0	0	
7	0	0	0	0	672	1021	0	884	0	0	
8	0	0	0	0	689	1021	0	887	0	0	
9	0	0	0	0	700	1021	0	883	0	0	
10	0	0	0	0	702	1022	0	873	0	0	
11	0	0	0	0	697	1022	0	859	0	0	
12	0	0	0	0	684	1021	0	842	0	0	
13	0	0	0	0	663	1022	0	824	0	0	
14	0	0	0	0	637	1021	0	804	0	0	
15	0	0	0	0	607	1022	0	786	0	0	
0	0	0	0	0	575	1021	0	770	0	0	
1	0	0	0	0	543	1021	0	756	0	0	
2	0	0	0	0	513	1021	0	747	0	0	
3	0	0	0	0	489	1021	0	741	0	0	
4	0	0	0	0	471	1022	0	739	0	0	
5	0	0	0	0	460	1022	0	742	0	0	
6	0	0	0	0	457	1021	0	748	0	0	
7	0	0	0	0	462	1021	0	756	0	0	
8	0	0	0	0	473	1021	0	764	0	0	
9	0	0	0	0	489	1021	0	773	0	0	
10	0	0	0	0	510	1021	0	781	0	0	
11	0	0	0	0	531	1021	0	786	0	0	
12	0	0	0	0	553	1021	0	789	0	0	
13	0	0	0	0	572	1021	0	790	0	0	
14	0	0	0	0	588	1022	0	787	0	0	
15	0	0	0	0	601	1021	0	784	0	0	
0	0	0	0	0	609	1021	0	780	0	0	
1	0	0	0	0	614	1021	0	775	0	0	
2	0	0	0	0	614	1021	0	772	0	0	
3	0	0	0	0	611	1022	0	771	0	0	
4	0	0	0	0	605	1022	0	771	0	0	
5	0	0	0	0	599	1021	0	775	0	0	
6	0	0	0	0	591	1021	0	779	0	0	
7	0	0	0	0	583	1021	0	785	0	0	
8	0	0	0	0	576	1021	0	792	0	0	
9	0	0	0	0	572	1022	0	799	0	0	
10	0	0	0	0	570	1021	0	806	0	0	
11	0	0	0	0	570	1021	0	811	0	0	
12	0	0	0	0	572	1021	0	813	0	0	
13	0	0	0	0	575	1022	0	812	0	0	
14	0	0	0	0	578	1021	0	807	0	0	
15	0	0	0	0	580	1021	0	798	0	0	
0	0	0	0	0	581	1021	0	786	0	0	
1	0	0	0	0	580	1021	0	770	0	0	
2	0	0	0	0	575	1022	0	751	0	0	
3	0	0	0	0	568	1022	0	732	0	0	
4	0	0	0	0	560	1021	0	714	0	0	
5	0	0	0	0	550	1021	0	699	0	0	
6	0	0	0	0	541	1021	0	687	0	0	
7	0	0	0	0	533	1022	0	680	0	0	
8	0	0	0	0	528	1021	0	679	0	0	
9	0	0	0	0	526	1021	0	684	0	0	
10	0	0	0	0	529	1021	0	696	0	0	
11	0	0	0	0	537	1021	0	712	0	0	
12	0	0	0	0	550	1022	0	732	0	0	
13	0	0	0	0	565	1021	0	753	0	0	
14	0	0	0	0	582	1021	0	774	0	0	
15	0	0	0	0	599	1021	0	792	0	0	
0	0	0	0	0	615	1021	0	805	0	0	
1	0	0	0	0	628	1021	0	815	0	0	
2	0	0	0	0	637	1022	0	815	0	0	
3	0	0	0	0	643	1021	0	812	0	0	
4	0	0	0	0	642	1021	0	800	0	0	
5	0	0	0	0	636	1021	0	783	0	0	
6	0	0	0	0	625	1022	0	761	0	0	
7	0	0	0	0	609	1021	0	738	0	0	
8	0	0	0	0	591	1021	0	713	0	0	
9	0	0	0	0	572	1021	0	691	0	0	
10	0	0	0	0	554	1021	0	674	0	0	
11	0	0	0	0	539	1021	0	661	0	0	
12	0	0	0	0	528	1021	0	654	0	0	
13	0	0	0	0	523	1021	0	654	0	0	
14	0	0	0	0	521	1021	0	660	0	0	
15	0	0	0	0	525	1021	0	671	0	0	
0	0	0	0	0	533	1021	0	686	0	0	
1	0	0	0	0	544	1022	0	704	0	0	
2	0	0	0	0	559	1021	0	721	0	0	
3	0	0	0	0	573	1021	0	736	0	0	
4	0	0	0	0	586	1021	0	748	0	0	
5	0	0	0	0	597	1022	0	754	0	0	
6	0	0	0	0	604	1022	0	755	0	0	
7	0	0	0	0	608	1021	0	751	0	0	
8	0	0	0	0	608	1021	0	742	0	0	
9	0	0	0	0	603	1021	0	726	0	0	
10	0	0	0	0	593	1022	0	706	0	0	
11	0	0	0	0	582	1022	0	686	0	0	
12	0	0	0	0	568	1021	0	665	0	0	
13	0	0	0	0	552	1021	0	647	0	0	
14	0	0	0	0	539	1021	0	632	0	0	
15	0	0	0	0	527	1022	0	623	0	0	
0	0	0	0	0	519	1021	0	620	0	0	
1	0	0	0	0	517	1021	0	622	0	0	
2	0	0	0	0	519	1021	0	631	0	0	
3	0	0	0	0	526	1021	0	645	0	0	
4	0	0	0	0	537	1022	0	663	0	0	
5	0	0	0	0	550	1022	0	682	0	0	
6	0	0	0	0	566	1021	0	701	0	0	
7	0	0	0	0	581	1021	0	717	0	0	
8	0	0	0	0	595	1021	0	728	0	0	
9	0	0	0	0	605	1022	0	733	0	0	
10	0	0	0	0	611	1021	0	732	0	0	
11	0	0	0	0	614	1021	0	724	0	0	
12	0	0	0	0	611	1021	0	710	0	0	
13	0	0	0	0	604	1021	0	690	0	0	
14	0	0	0	0	591	1021	0	667	0	0	
15	0	0	0	0	577	1022	0	642	0	0	
0	0	0	0	0	561	1021	0	620	0	0	
1	0	0	0	0	545	1021	0	600	0	0	
2	0	0	0	0	530	1021	0	585	0	0	
3	0	0	0	0	519	1022	0	576	0	0	
4	0	0	0	0	511	1022	0	575	0	0	
5	0	0	0	0	510	1021	0	581	0	0	
6	0	0	0	0	514	1021	0	594	0	0	
7	0	0	0	0	526	1021	0	614	0	0	
8	0	0	0	0	543	1021	0	640	0	0	
9	0	0	0	0	568	1021	0	668	0	0	
10	0	0	0	0	595	1021	0	697	0	0	
11	0	0	0	0	623	1021	0	724	0	0	
12	0	0	0	0	651	1021	0	747	0	0	
13	0	0	0	0	676	1021	0	763	0	0	
14	0	0	0	0	697	1022	0	774	0	0	
15	0	0	0	0	713	1021	0	776	0	0	
0	0	0	0	0	721	1021	0	770	0	0	
1	0	0	0	0	720	1021	0	755	0	0	
2	0	0	0	0	709	1022	0	734	0	0	
3	0	0	0	0	689	1022	0	705	0	0	
4	0	0	0	0	660	1021	0	674	0	0	
5	0	0	0	0	624	1021	0	641	0	0	
6	0	0	0	0	582	1021	0	608	0	0	
7	0	0	0	0	539	1022	0	579	0	0	
8	0	0	0	0	498	1022	0	555	0	0	
9	0	0	0	0	463	1021	0	537	0	0	
10	0	0	0	0	437	1021	0	528	0	0	
11	0	0	0	0	420	1021	0	527	0	0	
12	0	0	0	0	415	1022	0	534	0	0	
13	0	0	0	0	423	1021	0	548	0	0	
14	0	0	0	0	440	1021	0	567	0	0	
15	0	0	0	0	466	1021	0	588	0	0	
0	0	0	0	0	499	1021	0	611	0	0	
1	0	0	0	0	536	1021	0	632	0	0	
2	0	0	0	0	572	1022	0	649	0	0	
3	0	0	0	0	608	1021	0	663	0	0	
4	0	0	0	0	636	1021	0	669	0	0	
5	0	0	0	0	656	1021	0	668	0	0	
6	0	0	0	0	665	1022	0	657	0	0	
7	0	0	0	0	664	1021	0	639	0	0	
8	0	0	0	0	652	1021	0	616	0	0	
9	0	0	0	0	630	1021	0	591	0	0	
10	0	0	0	0	604	1021	0	567	0	0	
11	0	0	0	0	575	1021	0	546	0	0	
12	0	0	0	0	545	1022	0	530	0	0	
13	0	0	0	0	521	1021	0	523	0	0	
14	0	0	0	0	502	1021	0	523	0	0	
15	0	0	0	0	490	1021	0	531	0	0	
0	0	0	0	0	488	1021	0	547	0	0	
1	0	0	0	0	495	1022	0	569	0	0	
2	0	0	0	0	510	1021	0	595	0	0	
3	0	0	0	0	531	1021	0	621	0	0	
4	0	0	0	0	556	1021	0	645	0	0	
5	0	0	0	0	583	1022	0	666	0	0	
6	0	0	0	0	608	1022	0	681	0	0	
7	0	0	0	0	632	1021	0	690	0	0	
8	0	0	0	0	649	1021	0	691	0	0	
9	0	0	0	0	659	1021	0	683	0	0	
10	0	0	0	0	660	1022	0	667	0	0	
11	0	0	0	0	655	1022	0	644	0	0	
12	0	0	0	0	644	1021	0	620	0	0	
13	0	0	0	0	626	1022	0	593	0	0	
14	0	0	0	0	607	1021	0	569	0	0	
15	0	0	0	0	585	1022	0	547	0	0	
0	0	0	0	0	564	1021	0	530	0	0	
1	0	0	0	0	546	1021	0	519	0	0	
2	0	0	0	0	532	1021	0	515	0	0	
3	0	0	0	0	525	1021	0	519	0	0	
4	0	0	0	0	524	1022	0	529	0	0	
5	0	0	0	0	529	1022	0	544	0	0	
6	0	0	0	0	541	1021	0	563	0	0	
7	0	0	0	0	556	1021	0	582	0	0	
8	0	0	0	0	574	1021	0	599	0	0	
9	0	0	0	0	591	1022	0	612	0	0	
10	0	0	0	0	607	1021	0	622	0	0	
11	0	0	0	0	620	1021	0	625	0	0	
12	0	0	0	0	628	1021	0	623	0	0	
13	0	0	0	0	631	1021	0	614	0	0	
14	0	0	0	0	628	1021	0	601	0	0	
15	0	0	0	0	621	1022	0	584	0	0	
0	0	0	0	0	610	1021	0	567	0	0	
1	0	0	0	0	596	1021	0	550	0	0	
2	0	0	0	0	583	1021	0	535	0	0	
3	0	0	0	0	569	1022	0	524	0	0	
4	0	0	0	0	557	1022	0	518	0	0	
5	0	0	0	0	549	1021	0	517	0	0	
6	0	0	0	0	545	1021	0	521	0	0	
7	0	0	0	0	546	1021	0	531	0	0	
8	0	0	0	0	551	1022	0	545	0	0	
9	0	0	0	0	563	1021	0	562	0	0	
10	0	0	0	0	577	1021	0	580	0	0	
11	0	0	0	0	593	1021	0	597	0	0	
12	0	0	0	0	610	1022	0	611	0	0	
13	0	0	0	0	627	1021	0	622	0	0	
14	0	0	0	0	640	1021	0	627	0	0	
15	0	0	0	0	649	1021	0	625	0	0	
0	0	0	0	0	651	1021	0	615	0	0	
1	0	0	0	0	646	1021	0	599	0	0	
2	0	0	0	0	634	1022	0	576	0	0	
3	0	0	0	0	615	1022	0	549	0	0	
4	0	0	0	0	593	1021	0	522	0	0	
5	0	0	0	0	570	1021	0	497	0	0	
6	0	0	0	0	548	1021	0	477	0	0	
7	0	0	0	0	530	1022	0	465	0	0	
8	0	0	0	0	519	1021	0	461	0	0	
9	0	0	0	0	515	1021	0	466	0	0	
10	0	0	0	0	519	1021	0	480	0	0	
11	0	0	0	0	531	1021	0	502	0	0	
12	0	0	0	0	552	1022	0	529	0	0	
13	0	0	0	0	578	1021	0	560	0	0	
14	0	0	0	0	608	1021	0	591	0	0	
15	0	0	0	0	639	1021	0	620	0	0	
0	0	0	0	0	669	1021	0	643	0	0	
1	0	0	0	0	694	1022	0	659	0	0	
2	0	0	0	0	712	1021	0	667	0	0	
3	0	0	0	0	721	1021	0	664	0	0	
4	0	0	0	0	719	1021	0	651	0	0	
5	0	0	0	0	705	1021	0	627	0	0	
6	0	0	0	0	680	1022	0	596	0	0	
7	0	0	0	0	648	1021	0	559	0	0	
8	0	0	0	0	610	1021	0	520	0	0	
9	0	0	0	0	569	1021	0	483	0	0	
10	0	0	0	0	531	1021	0	452	0	0	
11	0	0	0	0	497	1021	0	428	0	0	
12	0	0	0	0	471	1021	0	413	0	0	
13	0	0	0	0	455	1021	0	408	0	0	
14	0	0	0	0	450	1021	0	414	0	0	
15	0	0	0	0	456	1021	0	429	0	0	
0	0	0	0	0	472	1021	0	452	0	0	
1	0	0	0	0	499	1021	0	480	0	0	
2	0	0	0	0	530	1021	0	510	0	0	
3	0	0	0	0	566	1021	0	540	0	0	
4	0	0	0	0	602	1021	0	567	0	0	
5	0	0	0	0	636	1022	0	589	0	0	
6	0	0	0	0	668	1021	0	605	0	0	
7	0	0	0	0	695	1021	0	615	0	0	
8	0	0	0	0	716	1021	0	618	0	0	
9	0	0	0	0	729	1021	0	614	0	0	
10	0	0	0	0	734	1022	0	604	0	0	
11	0	0	0	0	732	1021	0	590	0	0	
12	0	0	0	0	721	1021	0	572	0	0	
13	0	0	0	0	702	1021	0	552	0	0	
14	0	0	0	0	676	1021	0	533	0	0	
15	0	0	0	0	646	1022	0	514	0	0	
0	0	0	0	0	614	1021	0	497	0	0	
1	0	0	0	0	580	1021	0	484	0	0	
2	0	0	0	0	549	1021	0	476	0	0	
3	0	0	0	0	524	1021	0	473	0	0	
4	0	0	0	0	506	1021	0	474	0	0	
5	0	0	0	0	496	1021	0	480	0	0	
6	0	0	0	0	496	1021	0	489	0	0	
7	0	0	0	0	502	1021	0	499	0	0	
8	0	0	0	0	515	1021	0	509	0	0	
9	0	0	0	0	532	1022	0	519	0	0	
10	0	0	0	0	552	1021	0	525	0	0	
11	0	0	0	0	572	1021	0	528	0	0	
12	0	0	0	0	591	1021	0	528	0	0	
13	0	0	0	0	606	1021	0	524	0	0	
14	0	0	0	0	615	1022	0	515	0	0	
15	0	0	0	0	620	1021	0	504	0	0	
0	0	0	0	0	619	1021	0	492	0	0	
1	0	0	0	0	614	1021	0	480	0	0	
2	0	0	0	0	606	1021	0	470	0	0	
3	0	0	0	0	595	1022	0	463	0	0	
4	0	0	0	0	585	1021	0	460	0	0	
5	0	0	0	0	575	1021	0	460	0	0	
6	0	0	0	0	568	1021	0	466	0	0	
7	0	0	0	0	565	1021	0	475	0	0	
8	0	0	0	0	566	1021	0	488	0	0	
9	0	0	0	0	571	1022	0	504	0	0	
10	0	0	0	0	582	1021	0	520	0	0	
11	0	0	0	0	594	1021	0	535	0	0	
12	0	0	0	0	608	1021	0	547	0	0	
13	0	0	0	0	622	1021	0	556	0	0	
14	0	0	0	0	635	1021	0	559	0	0	
15	0	0	0	0	644	1021	0	558	0	0	
0	0	0	0	0	651	1021	0	551	0	0	
1	0	0	0	0	651	1021	0	537	0	0	
2	0	0	0	0	646	1021	0	519	0	0	
3	0	0	0	0	635	1022	0	499	0	0	
4	0	0	0	0	621	1021	0	477	0	0	
5	0	0	0	0	604	1021	0	458	0	0	
6	0	0	0	0	586	1021	0	441	0	0	
7	0	0	0	0	569	1021	0	429	0	0	
8	0	0	0	0	555	1021	0	423	0	0	
9	0	0	0	0	545	1021	0	424	0	0	
10	0	0	0	0	540	1021	0	431	0	0	
11	0	0	0	0	542	1021	0	444	0	0	
12	0	0	0	0	548	1022	0	462	0	0	
13	0	0	0	0	560	1022	0	481	0	0	
14	0	0	0	0	576	1021	0	503	0	0	
15	0	0	0	0	594	1021	0	523	0	0	
0	0	0	0	0	612	1021	0	539	0	0	
1	0	0	0	0	630	1022	0	551	0	0	
2	0	0	0	0	645	1021	0	556	0	0	
3	0	0	0	0	656	1021	0	557	0	0	
4	0	0	0	0	663	1021	0	551	0	0	
5	0	0	0	0	664	1021	0	539	0	0	
6	0	0	0	0	659	1022	0	522	0	0	
7	0	0	0	0	650	1021	0	503	0	0	
8	0	0	0	0	638	1021	0	484	0	0	
9	0	0	0	0	625	1021	0	468	0	0	
10	0	0	0	0	613	1021	0	457	0	0	
11	0	0	0	0	604	1021	0	451	0	0	
12	0	0	0	0	598	1022	0	451	0	0	
13	0	0	0	0	599	1021	0	460	0	0	
14	0	0	0	0	604	1021	0	473	0	0	
15	0	0	0	0	614	1021	0	492	0	0	
0	0	0	0	0	628	1022	0	515	0	0	
1	0	0	0	0	646	1021	0	539	0	0	
2	0	0	0	0	665	1021	0	561	0	0	
3	0	0	0	0	683	1021	0	581	0	0	
4	0	0	0	0	699	1021	1	593	0	0	
5	0	0	0	0	711	1022	0	603	0	0	
6	0	0	0	0	719	1022	0	604	0	0	
7	0	0	0	0	722	1021	0	598	0	0	
8	0	0	0	0	719	1021	0	586	0	0	
9	0	0	0	0	709	1021	0	568	0	0	
10	0	0	0	0	694	1022	0	544	0	0	
11	0	0	0	0	671	1022	0	518	0	0	
12	0	0	0	0	646	1021	0	491	0	0	
13	0	0	0	0	617	1021	0	464	0	0	
14	0	0	0	0	587	1021	0	440	0	0	
15	0	0	0	0	556	1021	0	419	0	0	
0	0	0	0	0	527	1022	0	401	0	0	
1	0	0	0	0	503	1021	0	389	0	0	
2	0	0	0	0	482	1021	0	382	0	0	
3	0	0	0	0	466	1021	0	379	0	0	
4	0	0	0	0	457	1022	0	381	0	0	
5	0	0	0	0	451	1022	0	385	0	0	
6	0	0	0	0	452	1021	0	391	0	0	
7	0	0	0	0	454	1021	0	395	0	0	
8	0	0	0	0	460	1021	0	398	0	0	
9	0	0	0	0	466	1022	0	398	0	0	
10	0	0	0	0	472	1021	0	393	0	0	
11	0	0	0	0	476	1021	0	385	0	0	
12	0	0	0	0	477	1021	0	371	0	0	
13	0	0	0	0	474	1021	0	353	0	0	
14	0	0	0	0	465	1022	0	332	0	0	
15	0	0	0	0	453	1022	0	309	0	0	
0	0	0	0	0	439	1021	0	285	0	0	
1	0	0	0	0	421	1022	0	263	0	0	
2	0	0	0	0	404	1021	0	245	0	0	
3	0	0	0	0	387	1022	0	232	0	0	
4	0	0	0	0	373	1022	0	224	0	0	
5	0	0	0	0	364	1021	0	224	0	0	
6	0	0	0	0	359	1021	0	231	0	0	
7	0	0	0	0	361	1021	0	245	0	0	
8	0	0	0	0	371	1022	0	266	0	0	
9	0	0	0	0	387	1022	0	291	0	0	
10	0	0	0	0	412	1021	0	320	0	0	
11	0	0	0	0	441	1021	0	350	0	0	
12	0	0	0	0	473	1021	0	380	0	0	
13	0	0	0	0	509	1021	0	407	0	0	
14	0	0	0	0	543	1022	0	431	0	0	
15	0	0	0	0	579	1021	0	451	0	0	
0	0	0	0	0	609	1021	0	467	0	0	
1	0	0	0	0	635	1021	0	478	0	0	
2	0	0	0	0	655	1022	0	485	0	0	
3	0	0	0	0	666	1022	0	487	0	0	
4	0	0	0	0	671	1021	0	486	0	0	
5	0	0	0	0	669	1021	0	483	0	0	
6	0	0	0	0	661	1021	0	480	0	0	
7	0	0	0	0	649	1022	0	478	0	0	
8	0	0	0	0	635	1022	0	477	0	0	
9	0	0	0	0	620	1021	0	478	0	0	
10	0	0	0	0	608	1021	0	483	0	0	
11	0	0	0	0	597	1021	0	490	0	0	
12	0	0	0	0	591	1022	0	500	0	0	
13	0	0	0	0	589	1022	0	511	0	0	
14	0	0	0	0	592	1021	0	522	0	0	
15	0	0	0	0	597	1021	0	532	0	0	
0	0	0	0	0	605	1021	0	539	0	0	
1	0	0	0	0	614	1021	0	543	0	0	
2	0	0	0	0	623	1021	0	543	0	0	
3	0	0	0	0	632	1021	0	539	0	0	
4	0	0	0	0	637	1021	0	530	0	0	
5	0	0	0	0	639	1021	0	518	0	0	
6	0	0	0	0	638	1022	0	503	0	0	
7	0	0	0	0	632	1022	0	487	0	0	
8	0	0	0	0	626	1021	0	472	0	0	
9	0	0	0	0	619	1021	0	459	0	0	
10	0	0	0	0	611	1021	0	451	0	0	
11	0	0	0	0	606	1022	0	449	0	0	
12	0	0	0	0	605	1022	0	453	0	0	
13	0	0	0	0	609	1021	0	463	0	0	
14	0	0	0	0	619	1021	0	479	0	0	
15	0	0	0	0	632	1022	0	500	0	0	
0	0	0	0	0	652	1021	0	525	0	0	
1	0	0	0	0	671	1022	0	550	0	0	
2	0	0	0	0	692	1021	0	573	0	0	
3	0	0	0	0	708	1021	0	591	0	0	
4	0	0	0	0	719	1021	0	603	0	0	
5	0	0	0	0	724	1022	0	606	0	0	
6	0	0	0	0	721	1021	0	601	0	0	
7	0	0	0	0	710	1021	0	587	0	0	
8	0	0	0	0	690	1021	0	566	0	0	
9	0	0	0	0	664	1021	0	538	0	0	
10	0	0	0	0	632	1021	0	507	0	0	
11	0	0	0	0	598	1021	0	473	0	0	
12	0	0	0	0	564	1021	0	443	0	0	
13	0	0	0	0	534	1021	0	416	0	0	
14	0	0	0	0	510	1021	0	397	0	0	
15	0	0	0	0	493	1022	0	386	0	0	
0	0	0	0	0	483	1022	0	383	0	0	
1	0	0	0	0	485	1021	0	390	0	0	
2	0	0	0	0	495	1021	0	404	0	0	
3	0	0	0	0	512	1021	0	426	0	0	
4	0	0	0	0	537	1022	0	452	0	0	
5	0	0	0	0	565	1022	0	480	0	0	
6	0	0	0	0	597	1021	0	508	0	0	
7	0	0	0	0	626	1021	0	534	0	0	
8	0	0	0	0	653	1021	0	553	0	0	
9	0	0	0	0	675	1022	0	567	0	0	
10	0	0	0	0	691	1022	0	573	0	0	
11	0	0	0	0	701	1021	0	572	0	0	
12	0	0	0	0	704	1021	0	563	0	0	
13	0	0	0	0	700	1021	0	550	0	0	
14	0	0	0	0	691	1022	0	532	0	0	
15	0	0	0	0	677	1022	0	512	0	0	
0	0	0	0	0	662	1021	0	493	0	0	
1	0	0	0	0	644	1021	0	475	0	0	
2	0	0	0	0	628	1021	0	462	0	0	
3	0	0	0	0	612	1022	0	453	0	0	
4	0	0	0	0	601	1021	0	449	0	0	
5	0	0	0	0	592	1021	0	451	0	0	
6	0	0	0	0	588	1021	0	458	0	0	
7	0	0	0	0	588	1021	0	470	0	0	
8	0	0	0	0	592	1022	0	485	0	0	
9	0	0	0	0	602	1021	0	502	0	0	
10	0	0	0	0	614	1021	0	519	0	0	
11	0	0	0	0	627	1021	0	536	0	0	
12	0	0	0	0	641	1021	0	549	0	0	
13	0	0	0	0	654	1022	0	558	0	0	
14	0	0	0	0	666	1021	0	563	0	0	
15	0	0	0	0	675	1021	0	563	0	0	
0	0	0	0	0	682	1021	0	559	0	0	
1	0	0	0	0	685	1021	0	551	0	0	
2	0	0	0	0	684	1022	0	539	0	0	
3	0	0	0	0	680	1021	0	524	0	0	
4	0	0	0	0	673	1021	0	510	0	0	
5	0	0	0	0	663	1021	0	496	0	0	
6	0	0	0	0	652	1021	0	484	0	0	
7	0	0	0	0	640	1022	0	475	0	0	
8	0	0	0	0	630	1021	0	468	0	0	
9	0	0	0	0	621	1021	0	466	0	0	
10	0	0	0	0	613	1021	0	468	0	0	
11	0	0	0	0	608	1022	0	473	0	0	
12	0	0	0	0	608	1022	0	483	0	0	
13	0	0	0	0	612	1021	0	494	0	0	
14	0	0	0	0	620	1021	0	505	0	0	
15	0	0	0	0	630	1021	0	516	0	0	
0	0	0	0	0	641	1021	0	525	0	0	
1	0	0	0	0	652	1022	0	529	0	0	
2	0	0	0	0	660	1021	0	529	0	0	
3	0	0	0	0	665	1021	0	524	0	0	
4	0	0	0	0	664	1021	0	514	0	0	
5	0	0	0	0	658	1021	0	499	0	0	
6	0	0	0	0	646	1021	0	479	0	0	
7	0	0	0	0	628	1021	0	457	0	0	
8	0	0	0	0	608	1021	0	435	0	0	
9	0	0	0	0	587	1022	0	416	0	0	
10	0	0	0	0	568	1021	0	401	0	0	
11	0	0	0	0	551	1022	0	391	0	0	
12	0	0	0	0	539	1022	0	388	0	0	
13	0	0	0	0	536	1021	0	392	0	0	
14	0	0	0	0	538	1021	0	403	0	0	
15	0	0	0	0	549	1021	0	421	0	0	
0	0	0	0	0	566	1021	0	443	0	0	
1	0	0	0	0	588	1022	0	467	0	0	
2	0	0	0	0	615	1021	0	491	0	0	
3	0	0	0	0	641	1021	0	513	0	0	
4	0	0	0	0	666	1021	0	530	0	0	
5	0	0	0	0	687	1022	0	541	0	0	
6	0	0	0	0	703	1022	0	545	0	0	
7	0	0	0	0	713	1021	0	542	0	0	
8	0	0	0	0	716	1021	0	532	0	0	
9	0	0	0	0	711	1021	0	517	0	0	
10	0	0	0	0	700	1022	0	498	0	0	
11	0	0	0	0	683	1022	0	476	0	0	
12	0	0	0	0	663	1021	0	455	0	0	
13	0	0	0	0	640	1021	0	437	0	0	
14	0	0	0	0	617	1021	0	423	0	0	
15	0	0	0	0	595	1022	0	413	0	0	
0	0	0	0	0	576	1022	0	409	0	0	
1	0	0	0	0	562	1021	0	411	0	0	
2	0	0	0	0	553	1021	0	418	0	0	
3	0	0	0	0	552	1021	0	432	0	0	
4	0	0	0	0	559	1022	0	449	0	0	
5	0	0	0	0	572	1021	0	470	0	0	
6	0	0	0	0	591	1021	0	492	0	0	
7	0	0	0	0	614	1021	0	512	0	0	
8	0	0	0	0	638	1021	0	529	0	0	
9	0	0	0	0	659	1022	0	541	0	0	
10	0	0	0	0	680	1022	0	548	0	0	
11	0	0	0	0	698	1021	0	548	0	0	
12	0	0	0	0	708	1021	0	543	0	0	
13	0	0	0	0	711	1021	0	530	0	0	
14	0	0	0	0	707	1022	0	513	0	0	
15	0	0	0	0	694	1022	0	492	0	0	
0	0	0	0	0	676	1021	0	470	0	0	
1	0	0	0	0	655	1021	0	448	0	0	
2	0	0	0	0	631	1021	0	430	0	0	
3	0	0	0	0	608	1022	0	415	0	0	
4	0	0	0	0	586	1022	0	407	0	0	
5	0	0	0	0	571	1021	0	404	0	0	
6	0	0	0	0	560	1021	0	408	0	0	
7	0	0	0	0	556	1021	0	418	0	0	
8	0	0	0	0	558	1022	0	433	0	0	
9	0	0	0	0	567	1022	0	451	0	0	
10	0	0	0	0	582	1021	0	471	0	0	
11	0	0	0	0	600	1021	0	490	0	0	
12	0	0	0	0	619	1021	0	507	0	0	
13	0	0	0	0	639	1022	0	521	0	0	
14	0	0	0	0	656	1021	0	529	0	0	
15	0	0	0	0	671	1021	0	533	0	0	
0	0	0	0	0	680	1021	0	531	0	0	
1	0	0	0	0	684	1021	1	522	0	0	
2	0	0	0	0	682	1021	0	510	0	0	
3	0	0	0	0	672	1022	0	493	0	0	
4	0	0	0	0	660	1021	0	476	0	0	
5	0	0	0	0	644	1021	0	459	0	0	
6	0	0	0	0	626	1021	0	444	0	0	
7	0	0	0	0	608	1022	0	433	0	0	
8	0	0	0	0	593	1022	0	426	0	0	
9	0	0	0	0	582	1021	0	424	0	0	
10	0	0	0	0	574	1021	0	426	0	0	
11	0	0	0	0	571	1021	0	432	0	0	
12	0	0	0	0	572	1021	0	441	0	0	
13	0	0	0	0	578	1022	0	451	0	0	
14	0	0	0	0	588	1021	0	462	0	0	
15	0	0	0	0	599	1021	0	472	0	0	
0	0	0	0	0	611	1021	0	480	0	0	
1	0	0	0	0	623	1021	0	486	0	0	
2	0	0	0	0	634	1022	0	491	0	0	
3	0	0	0	0	645	1021	0	492	0	0	
4	0	0	0	0	652	1021	0	491	0	0	
5	0	0	0	0	656	1021	0	486	0	0	
6	0	0	0	0	656	1022	0	479	0	0	
7	0	0	0	0	651	1022	0	470	0	0	
8	0	0	0	0	645	1021	0	461	0	0	
9	0	0	0	0	637	1021	0	454	0	0	
10	0	0	0	0	628	1021	0	448	0	0	
11	0	0	0	0	620	1022	0	447	0	0	
12	0	0	0	0	614	1022	0	448	0	0	
13	0	0	0	0	611	1021	0	454	0	0	
14	0	0	0	0	611	1021	0	463	0	0	
15	0	0	0	0	615	1021	0	476	0	0	
0	0	0	0	0	624	1022	0	492	0	0	
1	0	0	0	0	637	1022	0	509	0	0	
2	0	0	0	0	653	1021	0	526	0	0	
3	0	0	0	0	670	1021	0	541	0	0	
4	0	0	0	0	687	1021	0	552	0	0	
5	0	0	0	0	700	1022	0	559	0	0	
6	0	0	0	0	709	1021	0	559	0	0	
7	0	0	0	0	713	1021	0	553	0	0	
8	0	0	0	0	709	1021	0	542	0	0	
9	0	0	0	0	699	1021	0	524	0	0	
10	0	0	0	0	682	1021	0	502	0	0	
11	0	0	0	0	658	1022	0	477	0	0	
12	0	0	0	0	632	1021	0	452	0	0	
13	0	0	0	0	604	1021	0	430	0	0	
14	0	0	0	0	577	1021	0	411	0	0	
15	0	0	0	0	554	1022	0	398	0	0	
0	0	0	0	0	536	1021	0	392	0	0	
1	0	0	0	0	526	1021	0	393	0	0	
2	0	0	0	0	524	1021	0	401	0	0	
3	0	0	0	0	531	1021	0	417	0	0	
4	0	0	0	0	547	1021	0	438	0	0	
5	0	0	0	0	569	1022	0	462	0	0	
6	0	0	0	0	597	1021	0	487	0	0	
7	0	0	0	0	626	1021	0	509	0	0	
8	0	0	0	0	654	1021	0	527	0	0	
9	0	0	0	0	679	1022	0	540	0	0	
10	0	0	0	0	700	1021	0	545	0	0	
11	0	0	0	0	713	1021	0	543	0	0	
12	0	0	0	0	717	1021	0	535	0	0	
13	0	0	0	0	712	1021	0	519	0	0	
14	0	0	0	0	699	1022	0	497	0	0	
15	0	0	0	0	678	1021	0	473	0	0	
0	0	0	0	0	653	1021	0	448	0	0	
1	0	0	0	0	625	1021	0	425	0	0	
2	0	0	0	0	598	1021	0	406	0	0	
3	0	0	0	0	573	1022	0	392	0	0	
4	0	0	0	0	554	1021	0	385	0	0	
5	0	0	0	0	542	1021	0	385	0	0	
6	0	0	0	0	538	1021	0	393	0	0	
7	0	0	0	0	543	1021	0	408	0	0	
8	0	0	0	0	555	1022	0	427	0	0	
9	0	0	0	0	574	1021	0	448	0	0	
10	0	0	0	0	597	1021	0	471	0	0	
11	0	0	0	0	621	1021	0	492	0	0	
12	0	0	0	0	644	1021	0	508	0	0	
13	0	0	0	0	665	1022	0	519	0	0	
14	0	0	0	0	683	1021	0	525	0	0	
15	0	0	0	0	696	1021	0	524	0	0	
0	0	0	0	0	702	1021	0	517	0	0	
1	0	0	0	0	701	1021	0	504	0	0	
2	0	0	0	0	692	1021	0	487	0	0	
3	0	0	0	0	678	1021	0	466	0	0	
4	0	0	0	0	660	1021	0	446	0	0	
5	0	0	0	0	639	1021	0	428	0	0	
6	0	0	0	0	620	1021	0	413	0	0	
7	0	0	0	0	603	1022	0	404	0	0	
8	0	0	0	0	590	1021	0	400	0	0	
9	0	0	0	0	583	1021	0	403	0	0	
10	0	0	0	0	582	1021	0	413	0	0	
11	0	0	0	0	588	1021	0	427	0	0	
12	0	0	0	0	600	1022	0	447	0	0	
13	0	0	0	0	618	1021	0	468	0	0	
14	0	0	0	0	639	1021	0	490	0	0	
15	0	0	0	0	662	1021	0	510	0	0	
0	0	0	0	0	683	1021	0	527	0	0	
1	0	0	0	0	701	1022	0	539	0	0	
2	0	0	0	0	716	1021	0	543	0	0	
3	0	0	0	0	724	1021	0	542	0	0	
4	0	0	0	0	724	1021	0	533	0	0	
5	0	0	0	0	717	1021	0	518	0	0	
6	0	0	0	0	701	1022	0	496	0	0	
7	0	0	0	0	679	1021	0	470	0	0	
8	0	0	0	0	652	1021	0	442	0	0	
9	0	0	0	0	622	1021	0	417	0	0	
10	0	0	0	0	594	1021	0	396	0	0	
11	0	0	0	0	568	1022	0	382	0	0	
12	0	0	0	0	549	1021	0	374	0	0	
13	0	0	0	0	537	1021	0	375	0	0	
14	0	0	0	0	534	1021	0	384	0	0	
15	0	0	0	0	540	1021	0	399	0	0	
0	0	0	0	0	554	1021	0	420	0	0	
1	0	0	0	0	575	1021	0	445	0	0	
2	0	0	0	0	600	1021	0	470	0	0	
3	0	0	0	0	628	1021	0	493	0	0	
4	0	0	0	0	657	1021	0	512	0	0	
5	0	0	0	0	683	1022	0	527	0	0	
6	0	0	0	0	706	1021	0	535	0	0	
7	0	0	0	0	723	1021	0	536	0	0	
8	0	0	0	0	734	1021	0	531	0	0	
9	0	0	0	0	737	1021	0	519	0	0	
10	0	0	0	0	731	1022	0	502	0	0	
11	0	0	0	0	718	1021	0	481	0	0	
12	0	0	0	0	699	1021	0	459	0	0	
13	0	0	0	0	675	1021	0	438	0	0	
14	0	0	0	0	650	1021	0	420	0	0	
15	0	0	0	0	625	1022	0	406	0	0	
0	0	0	0	0	603	1021	0	398	0	0	
1	0	0	0	0	586	1021	0	396	0	0	
2	0	0	0	0	575	1021	0	400	0	0	
3	0	0	0	0	571	1021	0	411	0	0	
4	0	0	0	0	574	1022	0	426	0	0	
5	0	0	0	0	585	1021	0	444	0	0	
6	0	0	0	0	601	1021	0	464	0	0	
7	0	0	0	0	620	1021	0	481	0	0	
8	0	0	0	0	639	1021	0	495	0	0	
9	0	0	0	0	657	1022	0	504	0	0	
10	0	0	0	0	672	1021	0	506	0	0	
11	0	0	0	0	684	1021	0	503	0	0	
12	0	0	0	0	691	1021	0	495	0	0	
13	0	0	0	0	693	1021	0	483	0	0	
14	0	0	0	0	690	1022	0	468	0	0	
15	0	0	0	0	684	1021	0	452	0	0	
0	0	0	0	0	674	1021	0	437	0	0	
1	0	0	0	0	663	1021	0	425	0	0	
2	0	0	0	0	651	1021	0	417	0	0	
3	0	0	0	0	638	1022	0	414	0	0	
4	0	0	0	0	627	1021	0	414	0	0	
5	0	0	0	0	618	1021	0	420	0	0	
6	0	0	0	0	611	1021	0	429	0	0	
7	0	0	0	0	609	1021	0	443	0	0	
8	0	0	0	0	611	1022	0	460	0	0	
9	0	0	0	0	618	1021	0	477	0	0	
10	0	0	0	0	628	1021	0	496	0	0	
11	0	0	0	0	641	1021	0	511	0	0	
12	0	0	0	0	655	1021	0	524	0	0	
13	0	0	0	0	668	1022	0	532	0	0	
14	0	0	0	0	679	1021	0	535	0	0	
15	0	0	0	0	686	1021	0	531	0	0	
0	0	0	0	0	688	1021	0	523	0	0	
1	0	0	0	0	684	1022	0	509	0	0	
2	0	0	0	0	676	1021	0	491	0	0	
3	0	0	0	0	662	1021	0	470	0	0	
4	0	0	0	0	646	1021	0	450	0	0	
5	0	0	0	0	628	1021	0	432	0	0	
6	0	0	0	0	610	1021	0	417	0	0	
7	0	0	0	0	593	1022	0	408	0	0	
8	0	0	0	0	580	1021	0	402	0	0	
9	0	0	0	0	571	1021	0	403	0	0	
10	0	0	0	0	566	1021	0	410	0	0	
11	0	0	0	0	567	1021	0	422	0	0	
12	0	0	0	0	574	1022	0	438	0	0	
13	0	0	0	0	584	1022	0	456	0	0	
14	0	0	0	0	599	1021	0	476	0	0	
15	0	0	0	0	615	1021	0	493	0	0	
0	0	0	0	0	633	1021	0	508	0	0	
1	0	0	0	0	650	1022	0	519	0	0	
2	0	0	0	0	664	1021	0	526	0	0	
3	0	0	0	0	676	1021	0	528	0	0	
4	0	0	0	0	684	1021	0	524	0	0	
5	0	0	0	0	686	1021	0	515	0	0	
6	0	0	0	0	682	1022	0	502	0	0	
7	0	0	0	0	671	1021	0	484	0	0	
8	0	0	0	0	657	1021	0	465	0	0	
9	0	0	0	0	639	1021	0	446	0	0	
10	0	0	0	0	620	1021	0	430	0	0	
11	0	0	0	0	600	1021	0	417	0	0	
12	0	0	0	0	581	1022	0	408	0	0	
13	0	0	0	0	567	1021	0	404	0	0	
14	0	0	0	0	557	1021	0	408	0	0	
15	0	0	0	0	554	1021	0	417	0	0	
0	0	0	0	0	558	1022	0	433	0	0	
1	0	0	0	0	569	1021	0	453	0	0	
2	0	0	0	0	586	1021	0	476	0	0	
3	0	0	0	0	607	1021	0	498	0	0	
4	0	0	0	0	628	1021	1	518	0	0	
5	0	0	0	0	649	1022	0	535	0	0	
6	0	0	0	0	668	1022	0	545	0	0	
7	0	0	0	0	684	1021	0	550	0	0	
8	0	0	0	0	694	1021	0	548	0	0	
9	0	0	0	0	696	1021	0	540	0	0	
10	0	0	0	0	694	1022	0	526	0	0	
11	0	0	0	0	683	1022	0	508	0	0	
12	0	0	0	0	669	1021	0	488	0	0	
13	0	0	0	0	650	1021	0	469	0	0	
14	0	0	0	0	629	1021	0	452	0	0	
15	0	0	0	0	608	1022	0	439	0	0	
0	0	0	0	0	591	1022	0	430	0	0	
1	0	0	0	0	578	1021	0	428	0	0	
2	0	0	0	0	571	1021	0	432	0	0	
3	0	0	0	0	569	1021	0	442	0	0	
4	0	0	0	0	576	1022	0	457	0	0	
5	0	0	0	0	588	1022	0	476	0	0	
6	0	0	0	0	607	1021	0	496	0	0	
7	0	0	0	0	627	1021	0	516	0	0	
8	0	0	0	0	650	1021	0	534	0	0	
9	0	0	0	0	671	1021	0	548	0	0	
10	0	0	0	0	689	1022	0	556	0	0	
11	0	0	0	0	704	1021	0	559	0	0	
12	0	0	0	0	711	1021	0	555	0	0	
13	0	0	0	0	713	1021	0	546	0	0	
14	0	0	0	0	708	1022	0	532	0	0	
15	0	0	0	0	697	1021	0	514	0	0	
0	0	0	0	0	680	1021	0	495	0	0	
1	0	0	0	0	660	1021	0	476	0	0	
2	0	0	0	0	637	1021	0	459	0	0	
3	0	0	0	0	614	1021	0	444	0	0	
4	0	0	0	0	591	1021	0	433	0	0	
5	0	0	0	0	573	1021	0	428	0	0	
6	0	0	0	0	559	1021	0	428	0	0	
7	0	0	0	0	552	1021	0	434	0	0	
8	0	0	0	0	552	1021	0	444	0	0	
9	0	0	0	0	559	1022	0	460	0	0	
10	0	0	0	0	574	1021	0	477	0	0	
11	0	0	0	0	592	1021	0	495	0	0	
12	0	0	0	0	614	1021	0	512	0	0	
13	0	0	0	0	636	1022	0	526	0	0	
14	0	0	0	0	657	1022	0	536	0	0	
15	0	0	0	0	678	1021	0	542	0	0	
0	0	0	0	0	694	1021	0	543	0	0	
1	0	0	0	0	703	1021	0	538	0	0	
2	0	0	0	0	704	1022	0	527	0	0	
3	0	0	0	0	700	1021	0	512	0	0	
4	0	0	0	0	688	1021	0	495	0	0	
5	0	0	0	0	671	1021	0	478	0	0	
6	0	0	0	0	651	1021	0	461	0	0	
7	0	0	0	0	630	1022	0	447	0	0	
8	0	0	0	0	609	1021	0	436	0	0	
9	0	0	0	0	591	1021	0	430	0	0	
10	0	0	0	0	575	1021	0	429	0	0	
11	0	0	0	0	566	1021	0	432	0	0	
12	0	0	0	0	563	1022	0	441	0	0	
13	0	0	0	0	564	1022	0	451	0	0	
14	0	0	0	0	572	1021	0	464	0	0	
15	0	0	0	0	583	1021	0	477	0	0	
0	0	0	0	0	598	1021	0	489	0	0	
1	0	0	0	0	615	1022	0	499	0	0	
2	0	0	0	0	633	1021	0	508	0	0	
3	0	0	0	0	651	1021	0	513	0	0	
4	0	0	0	0	667	1021	0	515	0	0	
5	0	0	0	0	679	1021	0	512	0	0	
6	0	0	0	0	687	1021	0	505	0	0	
7	0	0	0	0	689	1022	0	496	0	0	
8	0	0	0	0	687	1021	0	485	0	0	
9	0	0	0	0	679	1021	0	473	0	0	
10	0	0	0	0	666	1021	0	461	0	0	
11	0	0	0	0	649	1022	0	450	0	0	
12	0	0	0	0	629	1022	0	441	0	0	
13	0	0	0	0	611	1021	0	436	0	0	
14	0	0	0	0	594	1021	0	435	0	0	
15	0	0	0	0	582	1021	0	439	0	0	
0	0	0	0	0	576	1022	0	448	0	0	
1	0	0	0	0	577	1021	0	459	0	0	
2	0	0	0	0	584	1021	0	472	0	0	
3	0	0	0	0	596	1021	0	486	0	0	
4	0	0	0	0	611	1021	0	497	0	0	
5	0	0	0	0	627	1021	0	505	0	0	
6	0	0	0	0	642	1022	0	510	0	0	
7	0	0	0	0	655	1021	0	510	0	0	
8	0	0	0	0	663	1021	0	504	0	0	
9	0	0	0	0	664	1021	0	493	0	0	
10	0	0	0	0	661	1022	0	479	0	0	
11	0	0	0	0	651	1022	0	461	0	0	
12	0	0	0	0	637	1021	0	444	0	0	
13	0	0	0	0	620	1021	0	428	0	0	
14	0	0	0	0	601	1021	0	415	0	0	
15	0	0	0	0	582	1022	0	406	0	0	
0	0	0	0	0	566	1022	0	403	0	0	
1	0	0	0	0	553	1021	0	405	0	0	
2	0	0	0	0	547	1021	0	413	0	0	
3	0	0	0	0	546	1021	0	427	0	0	
4	0	0	0	0	552	1022	0	445	0	0	
5	0	0	0	0	564	1021	0	465	0	0	
6	0	0	0	0	582	1021	0	487	0	0	
7	0	0	0	0	602	1021	0	508	0	0	
8	0	0	0	0	624	1021	0	527	0	0	
9	0	0	0	0	646	1022	0	542	0	0	
10	0	0	0	0	668	1022	0	553	0	0	
11	0	0	0	0	688	1021	0	559	0	0	
12	0	0	0	0	703	1021	0	560	0	0	
13	0	0	0	0	713	1021	0	555	0	0	
14	0	0	0	0	718	1022	0	547	0	0	
15	0	0	0	0	716	1022	0	534	0	0	
0	0	0	0	0	711	1021	0	520	0	0	
1	0	0	0	0	701	1021	0	507	0	0	
2	0	0	0	0	686	1021	0	493	0	0	
3	0	0	0	0	668	1021	0	480	0	0	
4	0	0	0	0	646	1022	0	469	0	0	
5	0	0	0	0	624	1021	0	460	0	0	
6	0	0	0	0	601	1021	0	455	0	0	
7	0	0	0	0	583	1021	0	454	0	0	
8	0	0	0	0	568	1022	0	457	0	0	
9	0	0	0	0	560	1022	0	464	0	0	
10	0	0	0	0	560	1021	0	475	0	0	
11	0	0	0	0	568	1021	0	487	0	0	
12	0	0	0	0	581	1021	0	502	0	0	
13	0	0	0	0	600	1021	0	516	0	0	
14	0	0	0	0	623	1021	0	529	0	0	
15	0	0	0	0	647	1021	0	540	0	0	
0	0	0	0	0	670	1021	0	547	0	0	
1	0	0	0	0	688	1021	0	550	0	0	
2	0	0	0	0	701	1021	0	548	0	0	
3	0	0	0	0	707	1021	0	541	0	0	
4	0	0	0	0	706	1021	0	531	0	0	
5	0	0	0	0	696	1021	0	520	0	0	
6	0	0	0	0	679	1021	0	508	0	0	
7	0	0	0	0	657	1022	0	496	0	0	
8	0	0	0	0	632	1021	0	485	0	0	
9	0	0	0	0	605	1021	0	477	0	0	
10	0	0	0	0	581	1021	0	473	0	0	
11	0	0	0	0	561	1022	0	473	0	0	
12	0	0	0	0	548	1021	0	478	0	0	
13	0	0	0	0	542	1022	0	487	0	0	
14	0	0	0	0	544	1021	0	497	0	0	
15	0	0	0	0	552	1021	0	509	0	0	
0	0	0	0	0	567	1021	0	519	0	0	
1	0	0	0	0	583	1021	0	528	0	0	
2	0	0	0	0	603	1022	0	536	0	0	
3	0	0	0	0	624	1021	0	539	0	0	
4	0	0	0	0	641	1021	0	539	0	0	
5	0	0	0	0	655	1021	0	535	0	0	
6	0	0	0	0	664	1022	0	527	0	0	
7	0	0	0	0	667	1022	0	517	0	0	
8	0	0	0	0	666	1021	0	506	0	0	
9	0	0	0	0	661	1021	0	496	0	0	
10	0	0	0	0	652	1021	0	487	0	0	
11	0	0	0	0	640	1022	0	481	0	0	
12	0	0	0	0	628	1021	0	478	0	0	
13	0	0	0	0	617	1021	0	479	0	0	
14	0	0	0	0	607	1021	0	483	0	0	
15	0	0	0	0	600	1021	0	492	0	0	
0	0	0	0	0	597	1021	0	503	0	0	
1	0	0	0	0	598	1021	0	516	0	0	
2	0	0	0	0	603	1021	0	529	0	0	
3	0	0	0	0	610	1021	0	542	0	0	
4	0	0	0	0	619	1021	0	551	0	0	
5	0	0	0	0	629	1021	0	558	0	0	
6	0	0	0	0	637	1022	0	560	0	0	
7	0	0	0	0	645	1021	0	558	0	0	
8	0	0	0	0	649	1021	0	551	0	0	
9	0	0	0	0	649	1022	0	540	0	0	
10	0	0	0	0	645	1022	0	525	0	0	
11	0	0	0	0	635	1022	0	508	0	0	
12	0	0	0	0	623	1021	0	490	0	0	
13	0	0	0	0	608	1021	0	473	0	0	
14	0	0	0	0	591	1021	0	458	0	0	
15	0	0	0	0	575	1022	0	448	0	0	
0	0	0	0	0	561	1022	0	442	0	0	
1	0	0	0	0	551	1021	0	442	0	0	
2	0	0	0	0	546	1021	0	448	0	0	
3	0	0	0	0	546	1021	0	460	0	0	
4	0	0	0	0	553	1022	0	477	0	0	
5	0	0	0	0	564	1022	0	497	0	0	
6	0	0	0	0	582	1021	0	519	0	0	
7	0	0	0	0	602	1021	0	540	0	0	
8	0	0	0	0	624	1021	0	560	0	0	
9	0	0	0	0	646	1021	0	576	0	0	
10	0	0	0	0	665	1022	0	587	0	0	
11	0	0	0	0	684	1021	0	593	0	0	
12	0	0	0	0	696	1021	0	594	0	0	
13	0	0	0	0	705	1021	0	589	0	0	
14	0	0	0	0	706	1022	0	579	0	0	
15	0	0	0	0	702	1021	0	564	0	0	
0	0	0	0	0	692	1021	0	548	0	0	
1	0	0	0	0	677	1021	0	532	0	0	
2	0	0	0	0	659	1021	0	517	0	0	
3	0	0	0	0	639	1021	0	505	0	0	
4	0	0	0	0	619	1021	0	496	0	0	
5	0	0	0	0	600	1021	0	491	0	0	
6	0	0	0	0	583	1021	0	491	0	0	
7	0	0	0	0	572	1021	0	496	0	0	
8	0	0	0	0	566	1021	0	504	0	0	
9	0	0	0	0	565	1022	0	516	0	0	
10	0	0	0	0	571	1021	0	529	0	0	
11	0	0	0	0	580	1021	0	542	0	0	
12	0	0	0	0	592	1021	0	551	0	0	
13	0	0	0	0	605	1022	0	558	0	0	
14	0	0	0	0	616	1022	0	559	0	0	
15	0	0	0	0	627	1021	0	556	0	0	
0	0	0	0	0	633	1021	0	547	0	0	
1	0	0	0	0	635	1021	0	532	0	0	
2	0	0	0	0	630	1022	0	514	0	0	
3	0	0	0	0	621	1022	0	492	0	0	
4	0	0	0	0	607	1021	0	470	0	0	
5	0	0	0	0	590	1021	0	449	0	0	
6	0	0	0	0	571	1021	0	430	0	0	
7	0	0	0	0	551	1021	0	415	0	0	
8	0	0	0	0	531	1021	0	404	0	0	
9	0	0	0	0	515	1021	0	399	0	0	
10	0	0	0	0	503	1021	0	399	0	0	
11	0	0	0	0	496	1021	0	405	0	0	
12	0	0	0	0	494	1022	0	415	0	0	
13	0	0	0	0	495	1022	0	427	0	0	
14	0	0	0	0	503	1021	0	440	0	0	
15	0	0	0	0	512	1021	0	453	0	0	
0	0	0	0	0	523	1021	0	462	0	0	
1	0	0	0	0	533	1021	0	468	0	0	
2	0	0	0	0	541	1021	0	468	0	0	
3	0	0	0	0	546	1021	0	463	0	0	
4	0	0	0	0	546	1021	0	451	0	0	
5	0	0	0	0	540	1021	0	433	0	0	
6	0	0	0	0	527	1021	0	409	0	0	
7	0	0	0	0	510	1021	0	382	0	0	
8	0	0	0	0	487	1021	0	353	0	0	
9	0	0	0	0	463	1021	0	326	0	0	
10	0	0	0	0	441	1021	0	302	0	0	
11	0	0	0	0	421	1022	0	286	0	0	
12	0	0	0	0	408	1021	0	277	0	0	
13	0	0	0	0	402	1021	0	280	0	0	
14	0	0	0	0	406	1021	0	294	0	0	
15	0	0	0	0	419	1021	0	319	0	0	
0	0	0	0	0	440	1022	0	353	0	0	
1	0	0	0	0	471	1021	0	394	0	0	
2	0	0	0	0	507	1021	0	438	0	0	
3	0	0	0	0	544	1021	0	481	0	0	
4	0	0	0	0	582	1021	0	520	0	0	
5	0	0	0	0	615	1022	0	553	0	0	
6	0	0	0	0	645	1021	0	576	0	0	
7	0	0	0	0	667	1021	0	590	0	0	
8	0	0	0	0	680	1021	0	593	0	0	
9	0	0	0	0	684	1021	0	587	0	0	
10	0	0	0	0	679	1022	0	572	0	0	
11	0	0	0	0	666	1021	0	550	0	0	
12	0	0	0	0	647	1021	0	526	0	0	
13	0	0	0	0	624	1021	0	502	0	0	
14	0	0	0	0	600	1021	0	480	0	0	
15	0	0	0	0	576	1022	0	462	0	0	
0	0	0	0	0	557	1021	0	450	0	0	
1	0	0	0	0	542	1021	0	445	0	0	
2	0	0	0	0	534	1021	0	447	0	0	
3	0	0	0	0	533	1021	0	457	0	0	
4	0	0	0	0	539	1022	0	473	0	0	
5	0	0	0	0	552	1022	0	493	0	0	
6	0	0	0	0	572	1021	0	515	0	0	
7	0	0	0	0	595	1021	0	538	0	0	
8	0	0	0	0	619	1021	0	559	0	0	
9	0	0	0	0	642	1022	0	577	0	0	
10	0	0	0	0	664	1021	0	590	0	0	
11	0	0	0	0	683	1021	0	598	0	0	
12	0	0	0	0	696	1021	0	599	0	0	
13	0	0	0	0	702	1021	0	595	0	0	
14	0	0	0	0	701	1022	0	585	0	0	
15	0	0	0	0	695	1021	0	570	0	0	
0	0	0	0	0	682	1021	0	553	0	0	
1	0	0	0	0	665	1021	0	536	0	0	
2	0	0	0	0	647	1021	0	521	0	0	
3	0	0	0	0	627	1022	0	509	0	0	
4	0	0	0	0	610	1021	0	501	0	0	
5	0	0	0	0	596	1021	0	498	0	0	
6	0	0	0	0	587	1021	0	500	0	0	
7	0	0	0	0	583	1021	0	508	0	0	
8	0	0	0	0	587	1022	0	522	0	0	
9	0	0	0	0	596	1021	0	538	0	0	
10	0	0	0	0	611	1021	0	556	0	0	
11	0	0	0	0	629	1021	0	574	0	0	
12	0	0	0	0	648	1021	0	588	0	0	
13	0	0	0	0	666	1022	0	600	0	0	
14	0	0	0	0	682	1022	0	606	0	0	
15	0	0	0	0	695	1021	0	606	0	0	
0	0	0	0	0	702	1021	0	601	0	0	
1	0	0	0	0	702	1021	0	589	0	0	
2	0	0	0	0	695	1022	0	573	0	0	
3	0	0	0	0	682	1021	0	552	0	0	
4	0	0	0	0	664	1021	0	531	0	0	
5	0	0	0	0	640	1021	0	509	0	0	
6	0	0	0	0	616	1021	0	491	0	0	
7	0	0	0	0	592	1022	0	476	0	0	
8	0	0	0	0	571	1022	0	465	0	0	
9	0	0	0	0	556	1021	0	462	0	0	
10	0	0	0	0	547	1021	0	466	0	0	
11	0	0	0	0	546	1021	0	476	0	0	
12	0	0	0	0	552	1021	0	493	0	0	
13	0	0	0	0	568	1021	0	514	0	0	
14	0	0	0	0	589	1021	0	538	0	0	
15	0	0	0	0	614	1021	0	561	0	0	
0	0	0	0	0	639	1021	0	582	0	0	
1	0	0	0	0	664	1021	0	599	0	0	
2	0	0	0	0	686	1022	0	611	0	0	
3	0	0	0	0	703	1021	0	617	0	0	
4	0	0	0	0	714	1021	0	616	0	0	
5	0	0	0	0	717	1021	0	608	0	0	
6	0	0	0	0	712	1021	0	594	0	0	
7	0	0	0	0	700	1021	0	576	0	0	
8	0	0	0	0	682	1021	0	556	0	0	
9	0	0	0	0	660	1021	0	536	0	0	
10	0	0	0	0	636	1021	0	517	0	0	
11	0	0	0	0	610	1022	0	502	0	0	
12	0	0	0	0	589	1022	0	492	0	0	
13	0	0	0	0	573	1021	0	489	0	0	
14	0	0	0	0	561	1021	0	491	0	0	
15	0	0	0	0	557	1021	0	499	0	0	
0	0	0	0	0	561	1022	0	513	0	0	
1	0	0	0	0	570	1022	0	530	0	0	
2	0	0	0	0	585	1021	0	548	0	0	
3	0	0	0	0	603	1021	0	567	0	0	
4	0	0	0	0	622	1021	0	583	0	0	
5	0	0	0	0	641	1022	0	595	0	0	
6	0	0	0	0	658	1021	0	602	0	0	
7	0	0	0	0	672	1021	0	604	0	0	
8	0	0	0	0	680	1021	0	600	0	0	
9	0	0	0	0	683	1021	0	591	0	0	
10	0	0	0	0	680	1022	0	578	0	0	
11	0	0	0	0	672	1022	0	561	0	0	
12	0	0	0	0	661	1021	0	545	0	0	
13	0	0	0	0	647	1021	0	530	0	0	
14	0	0	0	0	632	1021	0	518	0	0	
15	0	0	0	0	620	1022	0	511	0	0	
0	0	0	0	0	608	1021	0	509	0	0	
1	0	0	0	0	602	1021	0	513	0	0	
2	0	0	0	0	599	1021	0	521	0	0	
3	0	0	0	0	601	1021	0	534	0	0	
4	0	0	0	0	608	1021	0	550	0	0	
5	0	0	0	0	618	1021	0	567	0	0	
6	0	0	0	0	631	1021	0	583	0	0	
7	0	0	0	0	644	1021	0	598	0	0	
8	0	0	0	0	658	1021	0	609	0	0	
9	0	0	0	0	671	1021	0	617	0	0	
10	0	0	0	0	680	1022	0	619	0	0	
11	0	0	0	0	687	1021	0	615	0	0	
12	0	0	0	0	688	1021	0	607	0	0	
13	0	0	0	0	684	1021	0	592	0	0	
14	0	0	0	0	672	1022	0	574	0	0	
15	0	0	0	0	656	1021	0	551	0	0	
0	0	0	0	0	636	1021	0	529	0	0	
1	0	0	0	0	614	1021	0	508	0	0	
2	0	0	0	0	593	1021	0	491	0	0	
3	0	0	0	0	573	1021	0	478	0	0	
4	0	0	0	0	556	1022	0	471	0	0	
5	0	0	0	0	544	1021	0	469	0	0	
6	0	0	0	0	539	1022	0	474	0	0	
7	0	0	0	0	541	1021	0	485	0	0	
8	0	0	0	0	549	1021	0	502	0	0	
9	0	0	0	0	564	1021	0	521	0	0	
10	0	0	0	0	584	1021	0	543	0	0	
11	0	0	0	0	607	1021	0	563	0	0	
12	0	0	0	0	629	1021	0	581	0	0	
13	0	0	0	0	650	1022	0	595	0	0	
14	0	0	0	0	668	1022	0	603	0	0	
15	0	0	0	0	681	1021	0	605	0	0	
0	0	0	0	0	688	1021	0	600	0	0	
1	0	0	0	0	688	1021	0	590	0	0	
2	0	0	0	0	681	1021	0	575	0	0	
3	0	0	0	0	667	1022	0	556	0	0	
4	0	0	0	0	650	1021	0	537	0	0	
5	0	0	0	0	629	1021	0	519	0	0	
6	0	0	0	0	608	1021	0	504	0	0	
7	0	0	0	0	588	1022	0	494	0	0	
8	0	0	0	0	570	1021	0	488	0	0	
9	0	0	0	0	558	1021	0	489	0	0	
10	0	0	0	0	552	1021	0	496	0	0	
11	0	0	0	0	553	1021	0	509	0	0	
12	0	0	0	0	563	1021	0	528	0	0	
13	0	0	0	0	577	1022	0	550	0	0	
14	0	0	0	0	599	1021	0	573	0	0	
15	0	0	0	0	624	1021	0	595	0	0	
0	0	0	0	0	649	1021	0	615	0	0	
1	0	0	0	0	674	1022	0	631	0	0	
2	0	0	0	0	696	1021	0	641	0	0	
3	0	0	0	0	714	1021	0	646	0	0	
4	0	0	0	0	726	1021	0	643	0	0	
5	0	0	0	0	730	1021	0	635	0	0	
6	0	0	0	0	727	1022	0	620	0	0	
7	0	0	0	0	716	1021	0	601	0	0	
8	0	0	0	0	699	1021	0	579	0	0	
9	0	0	0	0	676	1021	0	557	0	0	
10	0	0	0	0	652	1021	0	536	0	0	
11	0	0	0	0	625	1021	0	518	0	0	
12	0	0	0	0	598	1022	0	504	0	0	
13	0	0	0	0	575	1021	0	496	0	0	
14	0	0	0	0	555	1021	0	492	0	0	
15	0	0	0	0	540	1021	0	494	0	0	
0	0	0	0	0	533	1021	0	500	0	0	
1	0	0	0	0	531	1022	0	512	0	0	
2	0	0	0	0	538	1021	0	526	0	0	
3	0	0	0	0	550	1021	0	540	0	0	
4	0	0	0	0	565	1021	0	554	0	0	
5	0	0	0	0	583	1022	0	567	0	0	
6	0	0	0	0	603	1022	0	576	0	0	
7	0	0	0	0	624	1021	0	582	0	0	
8	0	0	0	0	641	1021	0	584	0	0	
9	0	0	0	0	655	1021	0	582	0	0	
10	0	0	0	0	663	1022	0	575	0	0	
11	0	0	0	0	667	1022	0	566	0	0	
12	0	0	0	0	665	1021	0	554	0	0	
13	0	0	0	0	657	1021	0	543	0	0	
14	0	0	0	0	646	1021	0	531	0	0	
15	0	0	0	0	632	1022	0	523	0	0	
0	0	0	0	0	616	1021	0	517	0	0	
1	0	0	0	0	601	1021	0	515	0	0	
2	0	0	0	0	588	1021	0	517	0	0	
3	0	0	0	0	579	1021	1	522	0	0	
4	0	0	0	0	575	1022	0	533	0	0	
5	0	0	0	0	576	1022	0	545	0	0	
6	0	0	0	0	583	1021	0	559	0	0	
7	0	0	0	0	593	1021	0	573	0	0	
8	0	0	0	0	607	1021	0	585	0	0	
9	0	0	0	0	621	1022	0	595	0	0	
10	0	0	0	0	636	1022	0	601	0	0	
11	0	0	0	0	650	1021	0	604	0	0	
12	0	0	0	0	660	1021	0	601	0	0	
13	0	0	0	0	667	1021	0	593	0	0	
14	0	0	0	0	668	1021	0	582	0	0	
15	0	0	0	0	664	1021	0	566	0	0	
0	0	0	0	0	655	1021	0	550	0	0	
1	0	0	0	0	643	1021	0	534	0	0	
2	0	0	0	0	628	1021	0	519	0	0	
3	0	0	0	0	612	1022	0	508	0	0	
4	0	0	0	0	596	1022	0	502	0	0	
5	0	0	0	0	585	1021	0	501	0	0	
6	0	0	0	0	576	1021	0	507	0	0	
7	0	0	0	0	574	1021	0	518	0	0	
8	0	0	0	0	578	1021	0	535	0	0	
9	0	0	0	0	588	1021	0	554	0	0	
10	0	0	0	0	602	1021	0	575	0	0	
11	0	0	0	0	619	1021	0	595	0	0	
12	0	0	0	0	638	1021	0	611	0	0	
13	0	0	0	0	656	1022	0	623	0	0	
14	0	0	0	0	671	1022	0	629	0	0	
15	0	0	0	0	684	1021	0	630	0	0	
0	0	0	0	0	691	1021	0	626	0	0	
1	0	0	0	0	694	1021	0	616	0	0	
2	0	0	0	0	692	1022	0	603	0	0	
3	0	0	0	0	685	1021	0	586	0	0	
4	0	0	0	0	674	1021	0	570	0	0	
5	0	0	0	0	662	1021	0	556	0	0	
6	0	0	0	0	650	1021	0	545	0	0	
7	0	0	0	0	639	1022	0	539	0	0	
8	0	0	0	0	630	1022	0	537	0	0	
9	0	0	0	0	624	1021	0	541	0	0	
10	0	0	0	0	621	1021	0	549	0	0	
11	0	0	0	0	620	1021	0	560	0	0	
12	0	0	0	0	621	1022	0	573	0	0	
13	0	0	0	0	622	1022	0	585	0	0	
14	0	0	0	0	626	1021	0	597	0	0	
15	0	0	0	0	629	1021	0	606	0	0	
0	0	0	0	0	632	1021	0	611	0	0	
1	0	0	0	0	634	1022	0	612	0	0	
2	0	0	0	0	636	1021	0	609	0	0	
3	0	0	0	0	636	1021	0	602	0	0	
4	0	0	0	0	634	1021	0	590	0	0	
5	0	0	0	0	630	1021	0	574	0	0	
6	0	0	0	0	622	1022	0	555	0	0	
7	0	0	0	0	614	1022	0	535	0	0	
8	0	0	0	0	604	1021	0	515	0	0	
9	0	0	0	0	593	1021	0	499	0	0	
10	0	0	0	0	582	1021	0	487	0	0	
11	0	0	0	0	572	1022	0	480	0	0	
12	0	0	0	0	563	1022	0	479	0	0	
13	0	0	0	0	558	1021	0	484	0	0	
14	0	0	0	0	556	1021	0	495	0	0	
15	0	0	0	0	559	1021	0	510	0	0	
0	0	0	0	0	565	1022	0	529	0	0	
1	0	0	0	0	575	1022	0	550	0	0	
2	0	0	0	0	588	1021	0	570	0	0	
3	0	0	0	0	602	1021	0	587	0	0	
4	0	0	0	0	616	1021	0	600	0	0	
5	0	0	0	0	628	1021	0	607	0	0	
6	0	0	0	0	640	1021	0	610	0	0	
7	0	0	0	0	649	1021	0	608	0	0	
8	0	0	0	0	655	1021	0	602	0	0	
9	0	0	0	0	657	1021	0	591	0	0	
10	0	0	0	0	655	1022	0	578	0	0	
11	0	0	0	0	650	1022	0	563	0	0	
12	0	0	0	0	644	1021	0	550	0	0	
13	0	0	0	0	636	1021	0	540	0	0	
14	0	0	0	0	629	1021	0	533	0	0	
15	0	0	0	0	622	1022	0	531	0	0	
0	0	0	0	0	617	1021	0	534	0	0	
1	0	0	0	0	615	1021	0	542	0	0	
2	0	0	0	0	614	1021	0	555	0	0	
3	0	0	0	0	617	1021	0	570	0	0	
4	0	0	0	0	622	1022	0	588	0	0	
5	0	0	0	0	628	1021	0	605	0	0	
6	0	0	0	0	636	1021	0	621	0	0	
7	0	0	0	0	643	1021	0	632	0	0	
8	0	0	0	0	648	1021	0	639	0	0	
9	0	0	0	0	651	1022	0	641	0	0	
10	0	0	0	0	651	1021	0	636	0	0	
11	0	0	0	0	647	1021	0	627	0	0	
12	0	0	0	0	640	1021	0	612	0	0	
13	0	0	0	0	631	1021	0	595	0	0	
14	0	0	0	0	618	1022	0	575	0	0	
15	0	0	0	0	606	1021	0	553	0	0	
0	0	0	0	0	592	1021	0	534	0	0	
1	0	0	0	0	579	1021	0	518	0	0	
2	0	0	0	0	568	1021	0	506	0	0	
3	0	0	0	0	560	1022	0	500	0	0	
4	0	0	0	0	556	1021	0	500	0	0	
5	0	0	0	0	557	1021	0	506	0	0	
6	0	0	0	0	561	1021	0	518	0	0	
7	0	0	0	0	572	1021	0	536	0	0	
8	0	0	0	0	586	1022	0	557	0	0	
9	0	0	0	0	604	1021	0	580	0	0	
10	0	0	0	0	624	1021	0	603	0	0	
11	0	0	0	0	643	1021	0	624	0	0	
12	0	0	0	0	663	1021	0	641	0	0	
13	0	0	0	0	679	1022	0	654	0	0	
14	0	0	0	0	692	1021	0	659	0	0	
15	0	0	0	0	701	1021	0	660	0	0	
0	0	0	0	0	704	1021	0	654	0	0	
1	0	0	0	0	700	1021	0	643	0	0	
2	0	0	0	0	691	1021	0	626	0	0	
3	0	0	0	0	676	1021	0	606	0	0	
4	0	0	0	0	657	1021	0	586	0	0	
5	0	0	0	0	636	1021	0	566	0	0	
6	0	0	0	0	615	1021	0	550	0	0	
7	0	0	0	0	595	1022	0	537	0	0	
8	0	0	0	0	580	1021	0	531	0	0	
9	0	0	0	0	568	1021	0	531	0	0	
10	0	0	0	0	562	1021	0	537	0	0	
11	0	0	0	0	562	1022	0	548	0	0	
12	0	0	0	0	568	1021	0	564	0	0	
13	0	0	0	0	579	1022	0	583	0	0	
14	0	0	0	0	596	1021	0	603	0	0	
15	0	0	0	0	615	1021	0	622	0	0	
0	0	0	0	0	635	1021	0	638	0	0	
1	0	0	0	0	655	1022	0	651	0	0	
2	0	0	0	0	674	1021	0	659	0	0	
3	0	0	0	0	690	1021	0	662	0	0	
4	0	0	0	0	701	1021	0	659	0	0	
5	0	0	0	0	706	1021	0	650	0	0	
6	0	0	0	0	703	1022	0	636	0	0	
7	0	0	0	0	695	1021	0	617	0	0	
8	0	0	0	0	679	1021	0	598	0	0	
9	0	0	0	0	658	1021	0	578	0	0	
10	0	0	0	0	633	1021	0	560	0	0	
11	0	0	0	0	608	1021	0	547	0	0	
12	0	0	0	0	582	1022	0	537	0	0	
13	0	0	0	0	560	1021	0	534	0	0	
14	0	0	0	0	543	1021	0	537	0	0	
15	0	0	0	0	532	1021	0	546	0	0	
0	0	0	0	0	530	1022	0	560	0	0	
1	0	0	0	0	535	1021	0	578	0	0	
2	0	0	0	0	547	1021	0	598	0	0	
3	0	0	0	0	564	1021	0	618	0	0	
4	0	0	0	0	586	1021	0	636	0	0	
5	0	0	0	0	608	1021	0	649	0	0	
6	0	0	0	0	631	1021	0	657	0	0	
7	0	0	0	0	651	1021	0	659	0	0	
8	0	0	0	0	666	1021	0	655	0	0	
9	0	0	0	0	676	1021	0	645	0	0	
10	0	0	0	0	679	1021	0	630	0	0	
11	0	0	0	0	675	1022	0	612	0	0	
12	0	0	0	0	668	1021	0	593	0	0	
13	0	0	0	0	653	1021	0	575	0	0	
14	0	0	0	0	636	1021	0	560	0	0	
15	0	0	0	0	617	1022	0	548	0	0	
0	0	0	0	0	599	1021	0	541	0	0	
1	0	0	0	0	582	1021	0	540	0	0	
2	0	0	0	0	570	1021	0	544	0	0	
3	0	0	0	0	563	1021	0	555	0	0	
4	0	0	0	0	563	1021	0	570	0	0	
5	0	0	0	0	568	1021	0	588	0	0	
6	0	0	0	0	579	1021	0	607	0	0	
7	0	0	0	0	593	1022	0	625	0	0	
8	0	0	0	0	610	1021	0	640	0	0	
9	0	0	0	0	628	1022	0	652	0	0	
10	0	0	0	0	644	1022	0	659	0	0	
11	0	0	0	0	661	1021	0	662	0	0	
12	0	0	0	0	672	1021	0	659	0	0	
13	0	0	0	0	679	1021	0	650	0	0	
14	0	0	0	0	680	1022	0	637	0	0	
15	0	0	0	0	676	1022	0	620	0	0	
0	0	0	0	0	668	1021	0	602	0	0	
1	0	0	0	0	655	1021	0	584	0	0	
2	0	0	0	0	640	1021	0	569	0	0	
3	0	0	0	0	624	1022	0	558	0	0	
4	0	0	0	0	608	1022	0	550	0	0	
5	0	0	0	0	594	1021	0	547	0	0	
6	0	0	0	0	583	1021	0	550	0	0	
7	0	0	0	0	577	1021	0	558	0	0	
8	0	0	0	0	577	1021	0	570	0	0	
9	0	0	0	0	581	1022	0	586	0	0	
10	0	0	0	0	592	1021	0	602	0	0	
11	0	0	0	0	606	1021	0	617	0	0	
12	0	0	0	0	621	1021	0	629	0	0	
13	0	0	0	0	637	1022	0	636	0	0	
14	0	0	0	0	652	1021	0	638	0	0	
15	0	0	0	0	662	1021	0	634	0	0	
0	0	0	0	0	667	1021	0	623	0	0	
1	0	0	0	0	666	1021	0	608	0	0	
2	0	0	0	0	658	1022	0	588	0	0	
3	0	0	0	0	646	1021	0	565	0	0	
4	0	0	0	0	628	1021	0	542	0	0	
5	0	0	0	0	608	1021	0	522	0	0	
6	0	0	0	0	588	1021	0	506	0	0	
7	0	0	0	0	568	1022	0	495	0	0	
8	0	0	0	0	553	1021	0	491	0	0	
9	0	0	0	0	542	1021	0	494	0	0	
10	0	0	0	0	537	1021	0	503	0	0	
11	0	0	0	0	540	1021	0	519	0	0	
12	0	0	0	0	548	1022	0	540	0	0	
13	0	0	0	0	565	1021	0	564	0	0	
14	0	0	0	0	586	1021	0	590	0	0	
15	0	0	0	0	609	1021	0	613	0	0	
0	0	0	0	0	633	1021	0	633	0	0	
1	0	0	0	0	655	1022	0	648	0	0	
2	0	0	0	0	675	1021	0	656	0	0	
3	0	0	0	0	690	1021	0	657	0	0	
4	0	0	0	0	697	1021	0	651	0	0	
5	0	0	0	0	697	1021	0	637	0	0	
6	0	0	0	0	689	1022	0	617	0	0	
7	0	0	0	0	675	1021	0	594	0	0	
8	0	0	0	0	656	1021	0	569	0	0	
9	0	0	0	0	634	1021	0	545	0	0	
10	0	0	0	0	611	1021	0	525	0	0	
11	0	0	0	0	589	1022	0	510	0	0	
12	0	0	0	0	571	1021	0	501	0	0	
13	0	0	0	0	558	1021	0	500	0	0	
14	0	0	0	0	551	1021	0	505	0	0	
15	0	0	0	0	552	1021	0	518	0	0	
0	0	0	0	0	559	1022	0	536	0	0	
1	0	0	0	0	573	1021	0	557	0	0	
2	0	0	0	0	591	1021	0	579	0	0	
3	0	0	0	0	611	1021	0	600	0	0	
4	0	0	0	0	631	1021	0	617	0	0	
5	0	0	0	0	649	1022	0	630	0	0	
6	0	0	0	0	665	1021	0	636	0	0	
7	0	0	0	0	676	1021	0	635	0	0	
8	0	0	0	0	681	1021	0	628	0	0	
9	0	0	0	0	679	1021	0	614	0	0	
10	0	0	0	0	671	1022	0	595	0	0	
11	0	0	0	0	658	1021	0	572	0	0	
12	0	0	0	0	642	1021	0	550	0	0	
13	0	0	0	0	623	1021	0	529	0	0	
14	0	0	0	0	606	1021	0	513	0	0	
15	0	0	0	0	591	1021	0	503	0	0	
0	0	0	0	0	579	1021	0	499	0	0	
1	0	0	0	0	574	1021	0	504	0	0	
2	0	0	0	0	574	1021	0	515	0	0	
3	0	0	0	0	580	1022	0	532	0	0	
4	0	0	0	0	593	1021	0	555	0	0	
5	0	0	0	0	610	1021	0	580	0	0	
6	0	0	0	0	630	1021	0	606	0	0	
7	0	0	0	0	651	1021	0	629	0	0	
8	0	0	0	0	670	1022	0	647	0	0	
9	0	0	0	0	687	1021	0	659	0	0	
10	0	0	0	0	699	1021	0	664	0	0	
11	0	0	0	0	705	1021	0	661	0	0	
12	0	0	0	0	704	1021	0	651	0	0	
13	0	0	0	0	697	1021	0	634	0	0	
14	0	0	0	0	684	1022	0	611	0	0	
15	0	0	0	0	665	1022	0	585	0	0	
0	0	0	0	0	644	1021	0	559	0	0	
1	0	0	0	0	621	1021	0	535	0	0	
2	0	0	0	0	600	1021	0	515	0	0	
3	0	0	0	0	580	1021	0	500	0	0	
4	0	0	0	0	565	1021	0	492	0	0	
5	0	0	0	0	556	1021	0	491	0	0	
6	0	0	0	0	552	1021	0	498	0	0	
7	0	0	0	0	556	1021	0	511	0	0	
8	0	0	0	0	566	1022	0	530	0	0	
9	0	0	0	0	582	1022	0	551	0	0	
10	0	0	0	0	602	1021	0	574	0	0	
11	0	0	0	0	623	1021	0	593	0	0	
12	0	0	0	0	643	1022	0	609	0	0	
13	0	0	0	0	662	1022	0	620	0	0	
14	0	0	0	0	676	1021	0	623	0	0	
15	0	0	0	0	686	1021	0	620	0	0	
0	0	0	0	0	689	1021	0	609	0	0	
1	0	0	0	0	686	1021	0	592	0	0	
2	0	0	0	0	675	1022	0	571	0	0	
3	0	0	0	0	659	1022	0	547	0	0	
4	0	0	0	0	641	1021	0	524	0	0	
5	0	0	0	0	620	1021	0	502	0	0	
6	0	0	0	0	599	1021	0	485	0	0	
7	0	0	0	0	581	1022	0	475	0	0	
8	0	0	0	0	566	1021	0	470	0	0	
9	0	0	0	0	559	1021	0	474	0	0	
10	0	0	0	0	557	1021	0	486	0	0	
11	0	0	0	0	563	1021	0	504	0	0	
12	0	0	0	0	575	1021	0	529	0	0	
13	0	0	0	0	594	1021	0	556	0	0	
14	0	0	0	0	617	1021	0	584	0	0	
15	0	0	0	0	641	1021	0	610	0	0	
0	0	0	0	0	666	1021	0	632	0	0	
1	0	0	0	0	688	1021	0	648	0	0	
2	0	0	0	0	707	1021	0	658	0	0	
3	0	0	0	0	721	1021	0	660	0	0	
4	0	0	0	0	728	1021	0	655	0	0	
5	0	0	0	0	729	1021	0	642	0	0	
6	0	0	0	0	721	1022	0	624	0	0	
7	0	0	0	0	708	1022	0	601	0	0	
8	0	0	0	0	690	1021	0	576	0	0	
9	0	0	0	0	668	1021	0	553	0	0	
10	0	0	0	0	646	1021	0	533	0	0	
11	0	0	0	0	624	1022	0	519	0	0	
12	0	0	0	0	605	1022	0	509	0	0	
13	0	0	0	0	592	1021	0	508	0	0	
14	0	0	0	0	583	1021	0	512	0	0	
15	0	0	0	0	581	1021	0	523	0	0	
0	0	0	0	0	585	1022	0	540	0	0	
1	0	0	0	0	595	1021	0	559	0	0	
2	0	0	0	0	610	1021	0	579	0	0	
3	0	0	0	0	627	1021	0	597	0	0	
4	0	0	0	0	645	1021	0	611	0	0	
5	0	0	0	0	662	1021	0	620	0	0	
6	0	0	0	0	676	1022	0	624	0	0	
7	0	0	0	0	687	1021	0	620	0	0	
8	0	0	0	0	692	1021	0	611	0	0	
9	0	0	0	0	691	1022	0	596	0	0	
10	0	0	0	0	685	1022	0	576	0	0	
11	0	0	0	0	671	1022	0	552	0	0	
12	0	0	0	0	655	1021	0	528	0	0	
13	0	0	0	0	635	1021	0	505	0	0	
14	0	0	0	0	614	1021	0	486	0	0	
15	0	0	0	0	593	1022	0	471	0	0	
0	0	0	0	0	576	1022	0	463	0	0	
1	0	0	0	0	564	1021	0	460	0	0	
2	0	0	0	0	558	1021	0	465	0	0	
3	0	0	0	0	558	1021	0	478	0	0	
4	0	0	0	0	566	1021	0	495	0	0	
5	0	0	0	0	580	1021	0	517	0	0	
6	0	0	0	0	599	1021	0	541	0	0	
7	0	0	0	0	619	1021	0	564	0	0	
8	0	0	0	0	642	1021	0	585	0	0	
9	0	0	0	0	663	1021	0	603	0	0	
10	0	0	0	0	680	1022	0	614	0	0	
11	0	0	0	0	695	1021	0	620	0	0	
12	0	0	0	0	703	1021	0	619	0	0	
13	0	0	0	0	704	1021	0	611	0	0	
14	0	0	0	0	697	1022	0	596	0	0	
15	0	0	0	0	684	1021	0	576	0	0	
0	0	0	0	0	666	1021	0	555	0	0	
1	0	0	0	0	644	1021	0	532	0	0	
2	0	0	0	0	620	1021	0	513	0	0	
3	0	0	0	0	597	1021	0	497	0	0	
4	0	0	0	0	575	1022	0	486	0	0	
5	0	0	0	0	560	1021	0	482	0	0	
6	0	0	0	0	549	1021	0	484	0	0	
7	0	0	0	0	546	1021	0	493	0	0	
8	0	0	0	0	550	1021	0	507	0	0	
9	0	0	0	0	561	1022	0	527	0	0	
10	0	0	0	0	579	1021	0	549	0	0	
11	0	0	0	0	600	1021	0	572	0	0	
12	0	0	0	0	624	1021	0	592	0	0	
13	0	0	0	0	647	1022	0	608	0	0	
14	0	0	0	0	668	1022	0	620	0	0	
15	0	0	0	0	686	1021	0	625	0	0	
0	0	0	0	0	698	1021	0	624	0	0	
1	0	0	0	0	704	1021	0	616	0	0	
2	0	0	0	0	701	1022	0	603	0	0	
3	0	0	0	0	692	1022	0	585	0	0	
4	0	0	0	0	678	1021	0	565	0	0	
5	0	0	0	0	657	1022	0	545	0	0	
6	0	0	0	0	635	1021	0	527	0	0	
7	0	0	0	0	612	1021	0	514	0	0	
8	0	0	0	0	590	1021	0	505	0	0	
9	0	0	0	0	572	1021	0	502	0	0	
10	0	0	0	0	559	1021	0	506	0	0	
11	0	0	0	0	552	1021	0	517	0	0	
12	0	0	0	0	552	1022	0	533	0	0	
13	0	0	0	0	559	1022	0	553	0	0	
14	0	0	0	0	573	1021	0	576	0	0	
15	0	0	0	0	591	1021	0	599	0	0	
0	0	0	0	0	612	1021	0	619	0	0	
1	0	0	0	0	633	1021	0	636	0	0	
2	0	0	0	0	653	1021	0	648	0	0	
3	0	0	0	0	671	1021	0	654	0	0	
4	0	0	0	0	684	1021	0	654	0	0	
5	0	0	0	0	691	1021	0	647	0	0	
6	0	0	0	0	690	1021	0	635	0	0	
7	0	0	0	0	684	1021	0	617	0	0	
8	0	0	0	0	671	1021	0	598	0	0	
9	0	0	0	0	655	1021	0	578	0	0	
10	0	0	0	0	636	1021	0	560	0	0	
11	0	0	0	0	615	1022	0	547	0	0	
12	0	0	0	0	596	1022	0	537	0	0	
13	0	0	0	0	581	1021	0	533	0	0	
14	0	0	0	0	570	1021	0	536	0	0	
15	0	0	0	0	565	1021	0	545	0	0	
0	0	0	0	0	567	1021	0	560	0	0	
1	0	0	0	0	575	1021	0	578	0	0	
2	0	0	0	0	588	1021	0	599	0	0	
3	0	0	0	0	605	1021	0	620	0	0	
4	0	0	0	0	625	1021	0	637	0	0	
5	0	0	0	0	644	1022	0	654	0	0	
6	0	0	0	0	663	1022	0	665	0	0	
7	0	0	0	0	680	1021	0	670	0	0	
8	0	0	0	0	692	1021	0	671	0	0	
9	0	0	0	0	699	1022	0	665	0	0	
10	0	0	0	0	701	1022	0	654	0	0	
11	0	0	0	0	696	1022	0	640	0	0	
12	0	0	0	0	688	1021	0	624	0	0	
13	0	0	0	0	675	1021	0	608	0	0	
14	0	0	0	0	660	1021	0	594	0	0	
15	0	0	0	0	642	1022	0	583	0	0	
0	0	0	0	0	624	1022	0	574	0	0	
1	0	0	0	0	607	1021	0	568	0	0	
2	0	0	0	0	592	1021	0	568	0	0	
3	0	0	0	0	582	1021	0	571	0	0	
4	0	0	0	0	575	1022	0	579	0	0	
5	0	0	0	0	572	1022	0	588	0	0	
6	0	0	0	0	575	1021	0	600	0	0	
7	0	0	0	0	581	1021	0	611	0	0	
8	0	0	0	0	590	1021	0	621	0	0	
9	0	0	0	0	599	1021	0	627	0	0	
10	0	0	0	0	606	1022	0	629	0	0	
11	0	0	0	0	613	1021	0	626	0	0	
12	0	0	0	0	615	1021	0	616	0	0	
13	0	0	0	0	610	1021	0	601	0	0	
14	0	0	0	0	599	1022	0	579	0	0	
15	0	0	0	0	580	1021	0	553	0	0	
0	0	0	0	0	556	1021	0	524	0	0	
1	0	0	0	0	526	1021	0	493	0	0	
2	0	0	0	0	493	1021	0	464	0	0	
3	0	0	0	0	459	1021	0	438	0	0	
4	0	0	0	0	427	1021	0	415	0	0	
5	0	0	0	0	397	1021	0	398	0	0	
6	0	0	0	0	372	1021	0	387	0	0	
7	0	0	0	0	354	1021	0	382	0	0	
8	0	0	0	0	343	1021	0	384	0	0	
9	0	0	0	0	339	1022	0	391	0	0	
10	0	0	0	0	344	1021	0	402	0	0	
11	0	0	0	0	355	1022	0	416	0	0	
12	0	0	0	0	371	1021	0	431	0	0	
13	0	0	0	0	391	1021	0	445	0	0	
14	0	0	0	0	413	1021	0	457	0	0	
15	0	0	0	0	436	1021	0	468	0	0	
0	0	0	0	0	458	1021	0	476	0	0	
1	0	0	0	0	477	1021	0	480	0	0	
2	0	0	0	0	492	1021	0	482	0	0	
3	0	0	0	0	502	1021	0	482	0	0	
4	0	0	0	0	510	1021	0	482	0	0	
5	0	0	0	0	514	1021	0	483	0	0	
6	0	0	0	0	517	1021	0	487	0	0	
7	0	0	0	0	519	1021	0	495	0	0	
8	0	0	0	0	523	1021	0	508	0	0	
9	0	0	0	0	528	1021	0	524	0	0	
10	0	0	0	0	537	1021	0	545	0	0	
11	0	0	0	0	548	1021	1	569	0	0	
12	0	0	0	0	563	1022	0	597	0	0	
13	0	0	0	0	581	1022	0	625	0	0	
14	0	0	0	0	601	1021	0	653	0	0	
15	0	0	0	0	622	1021	0	678	0	0	
0	0	0	0	0	643	1021	0	698	0	0	
1	0	0	0	0	660	1022	0	713	0	0	
2	0	0	0	0	675	1022	0	721	0	0	
3	0	0	0	0	686	1021	0	721	0	0	
4	0	0	0	0	691	1021	0	715	0	0	
5	0	0	0	0	689	1021	0	701	0	0	
6	0	0	0	0	680	1021	0	681	0	0	
7	0	0	0	0	665	1021	0	655	0	0	
8	0	0	0	0	645	1021	0	629	0	0	
9	0	0	0	0	623	1021	0	604	0	0	
10	0	0	0	0	600	1021	0	580	0	0	
11	0	0	0	0	578	1022	0	564	0	0	
12	0	0	0	0	560	1022	0	553	0	0	
13	0	0	0	0	547	1021	0	550	0	0	
14	0	0	0	0	542	1021	0	555	0	0	
15	0	0	0	0	543	1021	0	566	0	0	
0	0	0	0	0	550	1022	0	584	0	0	
1	0	0	0	0	565	1022	0	605	0	0	
2	0	0	0	0	584	1021	0	628	0	0	
3	0	0	0	0	606	1021	0	649	0	0	
4	0	0	0	0	627	1021	0	666	0	0	
5	0	0	0	0	646	1021	0	678	0	0	
6	0	0	0	0	662	1022	0	685	0	0	
7	0	0	0	0	673	1021	0	685	0	0	
8	0	0	0	0	678	1022	0	679	0	0	
9	0	0	0	0	676	1021	0	666	0	0	
10	0	0	0	0	667	1021	0	648	0	0	
11	0	0	0	0	652	1021	0	627	0	0	
12	0	0	0	0	632	1021	0	604	0	0	
13	0	0	0	0	610	1021	0	583	0	0	
14	0	0	0	0	587	1021	0	565	0	0	
15	0	0	0	0	565	1022	0	552	0	0	
0	0	0	0	0	547	1021	0	543	0	0	
1	0	0	0	0	533	1021	0	540	0	0	
2	0	0	0	0	524	1021	0	542	0	0	
3	0	0	0	0	523	1021	0	551	0	0	
4	0	0	0	0	527	1021	0	563	0	0	
5	0	0	0	0	537	1021	0	578	0	0	
6	0	0	0	0	552	1021	0	594	0	0	
7	0	0	0	0	568	1022	0	608	0	0	
8	0	0	0	0	586	1021	0	621	0	0	
9	0	0	0	0	603	1021	0	630	0	0	
10	0	0	0	0	618	1022	0	636	0	0	
11	0	0	0	0	633	1021	0	639	0	0	
12	0	0	0	0	643	1022	0	638	0	0	
13	0	0	0	0	649	1021	0	633	0	0	
14	0	0	0	0	649	1022	0	624	0	0	
15	0	0	0	0	643	1021	0	611	0	0	
0	0	0	0	0	633	1021	0	597	0	0	
1	0	0	0	0	620	1021	0	583	0	0	
2	0	0	0	0	604	1021	0	571	0	0	
3	0	0	0	0	588	1022	0	563	0	0	
4	0	0	0	0	575	1022	0	558	0	0	
5	0	0	0	0	566	1021	0	560	0	0	
6	0	0	0	0	561	1021	0	567	0	0	
7	0	0	0	0	561	1021	0	579	0	0	
8	0	0	0	0	569	1021	0	596	0	0	
9	0	0	0	0	580	1022	0	616	0	0	
10	0	0	0	0	597	1021	0	636	0	0	
11	0	0	0	0	615	1021	0	656	0	0	
12	0	0	0	0	635	1021	1	671	0	0	
13	0	0	0	0	653	1022	0	684	0	0	
14	0	0	0	0	669	1021	0	689	0	0	
15	0	0	0	0	682	1021	0	690	0	0	
0	0	0	0	0	689	1021	0	684	0	0	
1	0	0	0	0	691	1021	0	671	0	0	
2	0	0	0	0	685	1022	0	654	0	0	
3	0	0	0	0	674	1022	0	634	0	0	
4	0	0	0	0	660	1021	0	612	0	0	
5	0	0	0	0	641	1022	0	591	0	0	
6	0	0	0	0	621	1021	0	574	0	0	
7	0	0	0	0	602	1021	0	561	0	0	
8	0	0	0	0	585	1021	0	553	0	0	
9	0	0	0	0	573	1021	0	552	0	0	
10	0	0	0	0	566	1021	0	557	0	0	
11	0	0	0	0	564	1021	0	568	0	0	
12	0	0	0	0	571	1022	0	585	0	0	
13	0	0	0	0	582	1022	0	605	0	0	
14	0	0	0	0	600	1021	0	626	0	0	
15	0	0	0	0	620	1021	0	646	0	0	
0	0	0	0	0	640	1021	0	663	0	0	
1	0	0	0	0	660	1022	0	675	0	0	
2	0	0	0	0	677	1022	0	680	0	0	
3	0	0	0	0	689	1021	0	679	0	0	
4	0	0	0	0	696	1021	0	670	0	0	
5	0	0	0	0	694	1021	0	654	0	0	
6	0	0	0	0	684	1022	0	630	0	0	
7	0	0	0	0	669	1022	0	604	0	0	
8	0	0	0	0	649	1021	0	575	0	0	
9	0	0	0	0	625	1022	0	550	0	0	
10	0	0	0	0	602	1021	0	527	0	0	
11	0	0	0	0	580	1021	0	513	0	0	
12	0	0	0	0	563	1021	0	505	0	0	
13	0	0	0	0	552	1021	0	508	0	0	
14	0	0	0	0	547	1021	0	517	0	0	
15	0	0	0	0	551	1021	0	535	0	0	
0	0	0	0	0	561	1021	0	558	0	0	
1	0	0	0	0	577	1021	0	584	0	0	
2	0	0	0	0	599	1021	0	611	0	0	
3	0	0	0	0	620	1021	0	635	0	0	
4	0	0	0	0	642	1021	0	652	0	0	
5	0	0	0	0	660	1022	0	664	0	0	
6	0	0	0	0	674	1022	0	667	0	0	
7	0	0	0	0	684	1021	0	662	0	0	
8	0	0	0	0	686	1021	0	647	0	0	
9	0	0	0	0	681	1021	0	626	0	0	
10	0	0	0	0	670	1022	0	598	0	0	
11	0	0	0	0	652	1022	0	568	0	0	
12	0	0	0	0	633	1021	0	537	0	0	
13	0	0	0	0	611	1022	0	511	0	0	
14	0	0	0	0	591	1021	0	490	0	0	
15	0	0	0	0	574	1021	0	478	0	0	
0	0	0	0	0	561	1021	0	474	0	0	
1	0	0	0	0	555	1021	0	480	0	0	
2	0	0	0	0	555	1021	0	494	0	0	
3	0	0	0	0	561	1021	0	515	0	0	
4	0	0	0	0	574	1022	0	542	0	0	
5	0	0	0	0	591	1021	0	571	0	0	
6	0	0	0	0	612	1021	0	600	0	0	
7	0	0	0	0	634	1021	0	628	0	0	
8	0	0	0	0	656	1021	0	649	0	0	
9	0	0	0	0	676	1022	0	666	0	0	
10	0	0	0	0	694	1021	0	675	0	0	
11	0	0	0	0	708	1021	0	676	0	0	
12	0	0	0	0	717	1021	0	670	0	0	
13	0	0	0	0	720	1021	0	657	0	0	
14	0	0	0	0	715	1022	0	637	0	0	
15	0	0	0	0	706	1021	0	614	0	0	
0	0	0	0	0	691	1021	0	590	0	0	
1	0	0	0	0	673	1021	0	566	0	0	
2	0	0	0	0	653	1021	0	546	0	0	
3	0	0	0	0	632	1022	0	532	0	0	
4	0	0	0	0	615	1021	0	524	0	0	
5	0	0	0	0	602	1021	0	523	0	0	
6	0	0	0	0	593	1021	0	530	0	0	
7	0	0	0	0	590	1022	0	543	0	0	
8	0	0	0	0	592	1021	0	563	0	0	
9	0	0	0	0	600	1021	0	585	0	0	
10	0	0	0	0	612	1021	0	610	0	0	
11	0	0	0	0	627	1021	0	633	0	0	
12	0	0	0	0	644	1021	0	653	0	0	
13	0	0	0	0	661	1021	0	668	0	0	
14	0	0	0	0	676	1021	0	676	0	0	
15	0	0	0	0	688	1021	0	676	0	0	
0	0	0	0	0	695	1021	0	669	0	0	
1	0	0	0	0	696	1021	0	655	0	0	
2	0	0	0	0	692	1021	0	633	0	0	
3	0	0	0	0	681	1022	0	607	0	0	
4	0	0	0	0	667	1021	0	578	0	0	
5	0	0	0	0	649	1021	0	551	0	0	
6	0	0	0	0	630	1021	0	525	0	0	
7	0	0	0	0	610	1022	0	507	0	0	
8	0	0	0	0	594	1021	0	494	0	0	
9	0	0	0	0	583	1021	0	491	0	0	
10	0	0	0	0	576	1021	0	495	0	0	
11	0	0	0	0	575	1021	0	508	0	0	
12	0	0	0	0	580	1022	0	527	0	0	
13	0	0	0	0	591	1021	0	551	0	0	
14	0	0	0	0	607	1021	0	577	0	0	
15	0	0	0	0	625	1021	0	602	0	0	
0	0	0	0	0	643	1021	0	624	0	0	
1	0	0	0	0	659	1022	0	641	0	0	
2	0	0	0	0	673	1021	0	651	0	0	
3	0	0	0	0	683	1021	0	653	0	0	
4	0	0	0	0	685	1021	0	647	0	0	
5	0	0	0	0	680	1021	0	634	0	0	
6	0	0	0	0	667	1022	0	613	0	0	
7	0	0	0	0	648	1021	0	587	0	0	
8	0	0	0	0	625	1021	0	558	0	0	
9	0	0	0	0	599	1021	0	529	0	0	
10	0	0	0	0	573	1021	0	504	0	0	
11	0	0	0	0	550	1022	0	484	0	0	
12	0	0	0	0	531	1021	0	472	0	0	
13	0	0	0	0	519	1021	0	470	0	0	
14	0	0	0	0	515	1021	0	476	0	0	
15	0	0	0	0	518	1021	0	492	0	0	
0	0	0	0	0	529	1022	0	515	0	0	
1	0	0	0	0	547	1022	0	543	0	0	
2	0	0	0	0	571	1021	0	574	0	0	
3	0	0	0	0	599	1021	0	604	0	0	
4	0	0	0	0	628	1021	0	630	0	0	
5	0	0	0	0	657	1022	0	651	0	0	
6	0	0	0	0	683	1021	0	663	0	0	
7	0	0	0	0	703	1021	0	668	0	0	
8	0	0	0	0	716	1021	0	664	0	0	
9	0	0	0	0	718	1021	0	651	0	0	
10	0	0	0	0	707	1022	0	630	0	0	
11	0	0	0	0	688	1022	0	603	0	0	
12	0	0	0	0	661	1021	0	573	0	0	
13	0	0	0	0	629	1022	0	542	0	0	
14	0	0	0	0	598	1021	0	513	0	0	
15	0	0	0	0	570	1021	0	489	0	0	
0	0	0	0	0	550	1021	0	471	0	0	
1	0	0	0	0	541	1021	0	461	0	0	
2	0	0	0	0	542	1021	0	459	0	0	
3	0	0	0	0	555	1021	0	464	0	0	
4	0	0	0	0	577	1022	0	479	0	0	
5	0	0	0	0	604	1022	0	498	0	0	
6	0	0	0	0	634	1021	0	522	0	0	
7	0	0	0	0	660	1021	0	546	0	0	
8	0	0	0	0	681	1021	0	568	0	0	
9	0	0	0	0	692	1022	0	588	0	0	
10	0	0	0	0	694	1021	0	600	0	0	
11	0	0	0	0	687	1021	0	608	0	0	
12	0	0	0	0	671	1021	0	607	0	0	
13	0	0	0	0	649	1021	0	598	0	0	
14	0	0	0	0	623	1022	0	583	0	0	
15	0	0	0	0	597	1021	0	562	0	0	
0	0	0	0	0	575	1021	0	539	0	0	
1	0	0	0	0	559	1021	0	515	0	0	
2	0	0	0	0	550	1021	0	495	0	0	
3	0	0	0	0	548	1022	0	478	0	0	
4	0	0	0	0	555	1021	0	466	0	0	
5	0	0	0	0	569	1021	0	462	0	0	
6	0	0	0	0	588	1021	0	464	0	0	
7	0	0	0	0	614	1021	0	473	0	0	
8	0	0	0	0	643	1022	0	489	0	0	
9	0	0	0	0	675	1021	0	510	0	0	
10	0	0	0	0	707	1021	0	534	0	0	
11	0	0	0	0	736	1021	0	557	0	0	
12	0	0	0	0	762	1021	0	577	0	0	
13	0	0	0	0	780	1022	0	592	0	0	
14	0	0	0	0	793	1021	0	600	0	0	
15	0	0	0	0	797	1021	0	602	0	0	
0	0	0	0	0	791	1021	0	594	0	0	
1	0	0	0	0	777	1021	0	579	0	0	
2	0	0	0	0	754	1021	0	556	0	0	
3	0	0	0	0	725	1021	0	526	0	0	
4	0	0	0	0	692	1021	0	493	0	0	
5	0	0	0	0	659	1021	0	460	0	0	
6	0	0	0	0	627	1021	0	429	0	0	
7	0	0	0	0	600	1021	0	402	0	0	
8	0	0	0	0	578	1021	0	382	0	0	
9	0	0	0	0	565	1021	0	369	0	0	
10	0	0	0	0	560	1021	0	366	0	0	
11	0	0	0	0	564	1021	0	371	0	0	
12	0	0	0	0	576	1021	0	386	0	0	
13	0	0	0	0	595	1021	0	407	0	0	
14	0	0	0	0	619	1021	0	433	0	0	
15	0	0	0	0	644	1021	0	461	0	0	
0	0	0	0	0	669	1022	0	488	0	0	
1	0	0	0	0	692	1021	0	512	0	0	
2	0	0	0	0	709	1022	0	531	0	0	
3	0	0	0	0	722	1021	0	542	0	0	
4	0	0	0	0	726	1021	0	547	0	0	
5	0	0	0	0	722	1021	0	543	0	0	
6	0	0	0	0	710	1022	0	533	0	0	
7	0	0	0	0	694	1021	0	516	0	0	
8	0	0	0	0	675	1021	0	496	0	0	
9	0	0	0	0	654	1021	0	476	0	0	
10	0	0	0	0	636	1021	0	455	0	0	
11	0	0	0	0	620	1022	0	440	0	0	
12	0	0	0	0	610	1022	0	429	0	0	
13	0	0	0	0	605	1021	0	423	0	0	
14	0	0	0	0	605	1021	0	424	0	0	
15	0	0	0	0	611	1022	0	433	0	0	
0	0	0	0	0	624	1021	0	448	0	0	
1	0	0	0	0	640	1022	0	467	0	0	
2	0	0	0	0	660	1021	0	488	0	0	
3	0	0	0	0	681	1021	0	510	0	0	
4	0	0	0	0	701	1021	0	529	0	0	
5	0	0	0	0	717	1022	0	545	0	0	
6	0	0	0	0	729	1021	0	555	0	0	
7	0	0	0	0	737	1021	0	558	0	0	
8	0	0	0	0	737	1021	0	556	0	0	
9	0	0	0	0	730	1021	0	546	0	0	
10	0	0	0	0	716	1022	0	532	0	0	
11	0	0	0	0	697	1021	0	514	0	0	
12	0	0	0	0	672	1021	0	496	0	0	
13	0	0	0	0	644	1021	0	480	0	0	
14	0	0	0	0	615	1021	0	469	0	0	
15	0	0	0	0	587	1022	0	464	0	0	
0	0	0	0	0	561	1021	0	465	0	0	
1	0	0	0	0	540	1021	0	473	0	0	
2	0	0	0	0	525	1021	0	487	0	0	
3	0	0	0	0	516	1021	0	504	0	0	
4	0	0	0	0	514	1022	0	524	0	0	
5	0	0	0	0	519	1021	0	544	0	0	
6	0	0	0	0	530	1021	0	563	0	0	
7	0	0	0	0	545	1021	0	577	0	0	
8	0	0	0	0	563	1021	0	585	0	0	
9	0	0	0	0	584	1022	0	587	0	0	
10	0	0	0	0	606	1021	0	581	0	0	
11	0	0	0	0	627	1021	0	569	0	0	
12	0	0	0	0	644	1021	0	552	0	0	
13	0	0	0	0	657	1021	0	529	0	0	
14	0	0	0	0	663	1022	0	504	0	0	
15	0	0	0	0	662	1021	0	476	0	0	
0	0	0	0	0	656	1021	0	451	0	0	
1	0	0	0	0	644	1021	0	429	0	0	
2	0	0	0	0	629	1021	0	412	0	0	
3	0	0	0	0	612	1022	0	401	0	0	
4	0	0	0	0	597	1021	0	398	0	0	
5	0	0	0	0	587	1021	0	401	0	0	
6	0	0	0	0	582	1021	0	412	0	0	
7	0	0	0	0	586	1021	0	430	0	0	
8	0	0	0	0	599	1022	0	451	0	0	
9	0	0	0	0	619	1021	0	476	0	0	
10	0	0	0	0	645	1021	0	502	0	0	
11	0	0	0	0	675	1021	0	525	0	0	
12	0	0	0	0	705	1021	0	546	0	0	
13	0	0	0	0	735	1022	0	561	0	0	
14	0	0	0	0	760	1021	0	571	0	0	
15	0	0	0	0	780	1021	0	574	0	0	
0	0	0	0	0	793	1021	0	571	0	0	
1	0	0	0	0	797	1021	0	560	0	0	
2	0	0	0	0	791	1021	0	543	0	0	
3	0	0	0	0	775	1022	0	522	0	0	
4	0	0	0	0	754	1021	0	499	0	0	
5	0	0	0	0	727	1021	0	476	0	0	
6	0	0	0	0	698	1021	0	456	0	0	
7	0	0	0	0	667	1022	0	440	0	0	
8	0	0	0	0	638	1022	0	429	0	0	
9	0	0	0	0	613	1021	0	424	0	0	
10	0	0	0	0	594	1021	0	426	0	0	
11	0	0	0	0	582	1021	0	435	0	0	
12	0	0	0	0	575	1022	1	450	0	0	
13	0	0	0	0	578	1022	0	470	0	0	
14	0	0	0	0	587	1021	0	492	0	0	
15	0	0	0	0	600	1021	0	515	0	0	
0	0	0	0	0	617	1021	0	536	0	0	
1	0	0	0	0	636	1022	0	553	0	0	
2	0	0	0	0	655	1022	0	566	0	0	
3	0	0	0	0	674	1021	0	572	0	0	
4	0	0	0	0	688	1022	0	571	0	0	
5	0	0	0	0	698	1021	0	563	0	0	
6	0	0	0	0	703	1021	0	548	0	0	
7	0	0	0	0	701	1021	0	528	0	0	
8	0	0	0	0	694	1021	0	507	0	0	
9	0	0	0	0	682	1021	0	485	0	0	
10	0	0	0	0	667	1021	0	465	0	0	
11	0	0	0	0	650	1022	0	451	0	0	
12	0	0	0	0	632	1022	0	442	0	0	
13	0	0	0	0	616	1021	0	439	0	0	
14	0	0	0	0	603	1021	0	443	0	0	
15	0	0	0	0	594	1021	0	451	0	0	
0	0	0	0	0	591	1022	0	464	0	0	
1	0	0	0	0	593	1021	0	478	0	0	
2	0	0	0	0	601	1021	0	490	0	0	
3	0	0	0	0	613	1021	0	499	0	0	
4	0	0	0	0	628	1021	0	504	0	0	
5	0	0	0	0	645	1021	0	504	0	0	
6	0	0	0	0	661	1021	0	499	0	0	
7	0	0	0	0	675	1021	0	492	0	0	
8	0	0	0	0	684	1021	0	482	0	0	
9	0	0	0	0	688	1021	0	472	0	0	
10	0	0	0	0	686	1021	0	461	0	0	
11	0	0	0	0	678	1022	0	452	0	0	
12	0	0	0	0	667	1021	0	447	0	0	
13	0	0	0	0	653	1021	0	447	0	0	
14	0	0	0	0	638	1021	0	451	0	0	
15	0	0	0	0	624	1022	0	462	0	0	
0	0	0	0	0	610	1021	0	476	0	0	
1	0	0	0	0	599	1021	0	495	0	0	
2	0	0	0	0	587	1021	0	517	0	0	
3	0	0	0	0	577	1021	0	541	0	0	
4	0	0	0	0	570	1021	0	566	0	0	
5	0	0	0	0	566	1022	0	590	0	0	
6	0	0	0	0	564	1021	0	612	0	0	
7	0	0	0	0	563	1021	0	631	0	0	
8	0	0	0	0	563	1021	0	643	0	0	
9	0	0	0	0	566	1022	0	652	0	0	
10	0	0	0	0	571	1022	0	654	0	0	
11	0	0	0	0	580	1021	0	649	0	0	
12	0	0	0	0	593	1021	0	639	0	0	
13	0	0	0	0	608	1021	0	624	0	0	
14	0	0	0	0	624	1022	0	606	0	0	
15	0	0	0	0	640	1021	0	585	0	0	
0	0	0	0	0	653	1021	0	563	0	0	
1	0	0	0	0	663	1021	0	544	0	0	
2	0	0	0	0	670	1021	0	528	0	0	
3	0	0	0	0	673	1022	0	517	0	0	
4	0	0	0	0	673	1021	0	511	0	0	
5	0	0	0	0	671	1021	0	511	0	0	
6	0	0	0	0	665	1021	0	518	0	0	
7	0	0	0	0	659	1021	0	530	0	0	
8	0	0	0	0	653	1022	0	547	0	0	
9	0	0	0	0	649	1021	0	566	0	0	
10	0	0	0	0	648	1021	0	585	0	0	
11	0	0	0	0	650	1021	0	603	0	0	
12	0	0	0	0	655	1021	0	617	0	0	
13	0	0	0	0	660	1022	0	626	0	0	
14	0	0	0	0	666	1021	0	629	0	0	
15	0	0	0	0	670	1021	0	626	0	0	
0	0	0	0	0	672	1021	0	618	0	0	
1	0	0	0	0	669	1021	0	604	0	0	
2	0	0	0	0	660	1021	0	586	0	0	
3	0	0	0	0	648	1022	0	565	0	0	
4	0	0	0	0	634	1021	0	544	0	0	
5	0	0	0	0	620	1021	0	527	0	0	
6	0	0	0	0	608	1021	0	513	0	0	
7	0	0	0	0	599	1022	0	504	0	0	
8	0	0	0	0	593	1022	0	502	0	0	
9	0	0	0	0	592	1021	0	505	0	0	
10	0	0	0	0	593	1021	0	515	0	0	
11	0	0	0	0	599	1021	0	530	0	0	
12	0	0	0	0	607	1022	0	551	0	0	
13	0	0	0	0	618	1022	0	574	0	0	
14	0	0	0	0	632	1021	0	598	0	0	
15	0	0	0	0	645	1021	0	620	0	0	
0	0	0	0	0	657	1021	0	639	0	0	
1	0	0	0	0	666	1022	0	653	0	0	
2	0	0	0	0	674	1021	0	660	0	0	
3	0	0	0	0	677	1021	0	660	0	0	
4	0	0	0	0	676	1021	0	653	0	0	
5	0	0	0	0	670	1021	0	639	0	0	
6	0	0	0	0	660	1021	0	619	0	0	
7	0	0	0	0	646	1021	0	595	0	0	
8	0	0	0	0	630	1021	0	571	0	0	
9	0	0	0	0	612	1021	0	548	0	0	
10	0	0	0	0	595	1021	0	529	0	0	
11	0	0	0	0	579	1021	0	514	0	0	
12	0	0	0	0	566	1022	0	506	0	0	
13	0	0	0	0	559	1021	0	505	0	0	
14	0	0	0	0	557	1021	0	512	0	0	
15	0	0	0	0	560	1021	0	526	0	0	
0	0	0	0	0	570	1021	0	545	0	0	
1	0	0	0	0	585	1022	0	571	0	0	
2	0	0	0	0	606	1021	0	598	0	0	
3	0	0	0	0	628	1022	0	624	0	0	
4	0	0	0	0	653	1021	0	647	0	0	
5	0	0	0	0	677	1021	0	667	0	0	
6	0	0	0	0	698	1022	0	681	0	0	
7	0	0	0	0	717	1021	0	689	0	0	
8	0	0	0	0	729	1021	0	691	0	0	
9	0	0	0	0	735	1021	0	686	0	0	
10	0	0	0	0	733	1022	0	676	0	0	
11	0	0	0	0	723	1021	0	660	0	0	
12	0	0	0	0	704	1021	0	643	0	0	
13	0	0	0	0	677	1021	0	624	0	0	
14	0	0	0	0	643	1021	0	607	0	0	
15	0	0	0	0	607	1021	0	593	0	0	
0	0	0	0	0	573	1021	0	583	0	0	
1	0	0	0	0	544	1021	0	579	0	0	
2	0	0	0	0	524	1021	0	580	0	0	
3	0	0	0	0	515	1021	0	587	0	0	
4	0	0	0	0	518	1021	0	602	0	0	
5	0	0	0	0	531	1022	0	620	0	0	
6	0	0	0	0	553	1021	0	641	0	0	
7	0	0	0	0	580	1021	0	664	0	0	
8	0	0	0	0	611	1021	0	685	0	0	
9	0	0	0	0	641	1022	0	703	0	0	
10	0	0	0	0	671	1022	0	716	0	0	
11	0	0	0	0	697	1021	0	722	0	0	
12	0	0	0	0	716	1021	0	723	0	0	
13	0	0	0	0	727	1021	0	716	0	0	
14	0	0	0	0	728	1022	0	704	0	0	
15	0	0	0	0	721	1021	0	686	0	0	
0	0	0	0	0	706	1021	0	666	0	0	
1	0	0	0	0	683	1021	0	646	0	0	
2	0	0	0	0	656	1021	0	628	0	0	
3	0	0	0	0	627	1021	0	615	0	0	
4	0	0	0	0	597	1021	0	607	0	0	
5	0	0	0	0	572	1021	0	607	0	0	
6	0	0	0	0	550	1021	0	613	0	0	
7	0	0	0	0	536	1021	0	625	0	0	
8	0	0	0	0	530	1021	0	644	0	0	
9	0	0	0	0	533	1021	0	668	0	0	
10	0	0	0	0	546	1021	0	693	0	0	
11	0	0	0	0	565	1021	0	717	0	0	
12	0	0	0	0	590	1021	0	739	0	0	
13	0	0	0	0	615	1022	0	755	0	0	
14	0	0	0	0	642	1021	0	765	0	0	
15	0	0	0	0	667	1021	0	768	0	0	
0	0	0	0	0	688	1021	0	761	0	0	
1	0	0	0	0	702	1021	0	747	0	0	
2	0	0	0	0	707	1022	0	724	0	0	
3	0	0	0	0	706	1021	0	697	0	0	
4	0	0	0	0	697	1021	0	667	0	0	
5	0	0	0	0	682	1021	0	639	0	0	
6	0	0	0	0	664	1021	0	615	0	0	
7	0	0	0	0	644	1021	1	596	0	0	
8	0	0	0	0	625	1021	0	587	0	0	
9	0	0	0	0	608	1021	0	587	0	0	
10	0	0	0	0	595	1021	0	594	0	0	
11	0	0	0	0	588	1021	0	609	0	0	
12	0	0	0	0	586	1021	0	630	0	0	
13	0	0	0	0	591	1022	0	656	0	0	
14	0	0	0	0	601	1021	0	683	0	0	
15	0	0	0	0	615	1022	0	709	0	0	
0	0	0	0	0	632	1021	0	732	0	0	
1	0	0	0	0	649	1021	0	751	0	0	
2	0	0	0	0	665	1021	0	764	0	0	
3	0	0	0	0	679	1021	0	770	0	0	
4	0	0	0	0	688	1021	0	768	0	0	
5	0	0	0	0	693	1021	0	760	0	0	
6	0	0	0	0	691	1022	0	743	0	0	
7	0	0	0	0	684	1021	0	721	0	0	
8	0	0	0	0	671	1021	0	697	0	0	
9	0	0	0	0	654	1021	0	671	0	0	
10	0	0	0	0	636	1021	0	648	0	0	
11	0	0	0	0	616	1021	0	628	0	0	
12	0	0	0	0	599	1021	0	614	0	0	
13	0	0	0	0	585	1021	0	606	0	0	
14	0	0	0	0	575	1021	0	605	0	0	
15	0	0	0	0	570	1022	0	612	0	0	
0	0	0	0	0	572	1021	0	626	0	0	
1	0	0	0	0	579	1022	0	645	0	0	
2	0	0	0	0	591	1021	0	667	0	0	
3	0	0	0	0	607	1021	0	689	0	0	
4	0	0	0	0	624	1021	0	710	0	0	
5	0	0	0	0	641	1022	0	728	0	0	
6	0	0	0	0	658	1021	0	739	0	0	
7	0	0	0	0	673	1021	0	745	0	0	
8	0	0	0	0	685	1021	0	743	0	0	
9	0	0	0	0	691	1021	0	734	0	0	
10	0	0	0	0	691	1021	0	718	0	0	
11	0	0	0	0	685	1021	0	696	0	0	
12	0	0	0	0	673	1021	0	672	0	0	
13	0	0	0	0	657	1021	0	648	0	0	
14	0	0	0	0	639	1021	0	626	0	0	
15	0	0	0	0	620	1021	0	608	0	0	
0	0	0	0	0	603	1022	0	598	0	0	
1	0	0	0	0	589	1021	0	593	0	0	
2	0	0	0	0	577	1022	0	597	0	0	
3	0	0	0	0	570	1021	0	607	0	0	
4	0	0	0	0	568	1021	0	625	0	0	
5	0	0	0	0	570	1022	0	647	0	0	
6	0	0	0	0	578	1021	0	671	0	0	
7	0	0	0	0	589	1021	0	695	0	0	
8	0	0	0	0	603	1021	0	716	0	0	
9	0	0	0	0	617	1022	0	732	0	0	
10	0	0	0	0	632	1021	0	742	0	0	
11	0	0	0	0	644	1021	0	747	0	0	
12	0	0	0	0	653	1021	0	742	0	0	
13	0	0	0	0	657	1021	0	731	0	0	
14	0	0	0	0	654	1022	0	712	0	0	
15	0	0	0	0	646	1022	0	687	0	0	
0	0	0	0	0	632	1021	0	659	0	0	
1	0	0	0	0	615	1021	0	632	0	0	
2	0	0	0	0	596	1022	0	606	0	0	
3	0	0	0	0	578	1021	0	586	0	0	
4	0	0	0	0	563	1022	0	571	0	0	
5	0	0	0	0	552	1021	0	564	0	0	
6	0	0	0	0	547	1022	0	564	0	0	
7	0	0	0	0	551	1021	0	573	0	0	
8	0	0	0	0	564	1022	0	589	0	0	
9	0	0	0	0	585	1021	0	609	0	0	
10	0	0	0	0	612	1021	0	633	0	0	
11	0	0	0	0	643	1021	0	656	0	0	
12	0	0	0	0	675	1021	0	676	0	0	
13	0	0	0	0	705	1022	0	693	0	0	
14	0	0	0	0	732	1021	0	703	0	0	
15	0	0	0	0	753	1021	0	706	0	0	
0	0	0	0	0	766	1021	0	702	0	0	
1	0	0	0	0	771	1021	0	689	0	0	
2	0	0	0	0	766	1022	0	670	0	0	
3	0	0	0	0	752	1021	0	646	0	0	
4	0	0	0	0	731	1021	0	619	0	0	
5	0	0	0	0	703	1021	0	592	0	0	
6	0	0	0	0	671	1021	0	568	0	0	
7	0	0	0	0	639	1022	0	550	0	0	
8	0	0	0	0	608	1021	0	537	0	0	
9	0	0	0	0	581	1021	0	532	0	0	
10	0	0	0	0	558	1021	0	536	0	0	
11	0	0	0	0	543	1021	0	548	0	0	
12	0	0	0	0	537	1021	0	566	0	0	
13	0	0	0	0	539	1022	0	591	0	0	
14	0	0	0	0	549	1021	0	616	0	0	
15	0	0	0	0	563	1021	0	642	0	0	
0	0	0	0	0	579	1021	0	665	0	0	
1	0	0	0	0	595	1021	0	683	0	0	
2	0	0	0	0	610	1021	0	695	0	0	
3	0	0	0	0	624	1021	0	700	0	0	
4	0	0	0	0	636	1021	0	695	0	0	
5	0	0	0	0	645	1021	0	681	0	0	
6	0	0	0	0	650	1022	0	660	0	0	
7	0	0	0	0	651	1022	0	631	0	0	
8	0	0	0	0	650	1021	0	598	0	0	
9	0	0	0	0	647	1021	0	563	0	0	
10	0	0	0	0	643	1021	0	530	0	0	
11	0	0	0	0	638	1021	0	501	0	0	
12	0	0	0	0	632	1021	0	477	0	0	
13	0	0	0	0	628	1021	0	460	0	0	
14	0	0	0	0	624	1021	0	452	0	0	
15	0	0	0	0	622	1021	0	453	0	0	
0	0	0	0	0	622	1022	0	460	0	0	
1	0	0	0	0	624	1022	0	475	0	0	
2	0	0	0	0	629	1021	0	491	0	0	
3	0	0	0	0	633	1021	0	508	0	0	
4	0	0	0	0	634	1022	0	522	0	0	
5	0	0	0	0	631	1021	0	531	0	0	
6	0	0	0	0	623	1021	0	532	0	0	
7	0	0	0	0	610	1021	0	526	0	0	
8	0	0	0	0	592	1021	0	511	0	0	
9	0	0	0	0	568	1021	0	486	0	0	
10	0	0	0	0	540	1022	0	455	0	0	
11	0	0	0	0	507	1022	0	416	0	0	
12	0	0	0	0	473	1021	0	375	0	0	
13	0	0	0	0	438	1021	0	336	0	0	
14	0	0	0	0	404	1021	0	301	0	0	
15	0	0	0	0	373	1021	0	273	0	0	
0	0	0	0	0	346	1021	0	253	0	0	
1	0	0	0	0	326	1021	0	244	0	0	
2	0	0	0	0	315	1021	0	247	0	0	
3	0	0	0	0	316	1021	0	262	0	0	
4	0	0	0	0	330	1021	0	288	0	0	
5	0	0	0	0	359	1022	0	325	0	0	
6	0	0	0	0	402	1021	0	367	0	0	
7	0	0	0	0	454	1021	0	413	0	0	
8	0	0	0	0	509	1021	0	458	0	0	
9	0	0	0	0	565	1021	0	498	0	0	
10	0	0	0	0	615	1022	0	532	0	0	
11	0	0	0	0	658	1021	0	557	0	0	
12	0	0	0	0	689	1021	0	572	0	0	
13	0	0	0	0	709	1021	0	578	0	0	
14	0	0	0	0	717	1021	0	573	0	0	
15	0	0	0	0	713	1021	0	561	0	0	
0	0	0	0	0	700	1021	0	545	0	0	
1	0	0	0	0	679	1021	0	528	0	0	
2	0	0	0	0	654	1021	0	513	0	0	
3	0	0	0	0	628	1021	0	501	0	0	
4	0	0	0	0	605	1021	0	494	0	0	
5	0	0	0	0	587	1021	0	494	0	0	
6	0	0	0	0	575	1021	0	499	0	0	
7	0	0	0	0	571	1022	0	511	0	0	
8	0	0	0	0	574	1021	0	529	0	0	
9	0	0	0	0	584	1022	0	549	0	0	
10	0	0	0	0	601	1021	0	571	0	0	
11	0	0	0	0	622	1022	0	593	0	0	
12	0	0	0	0	646	1021	0	611	0	0	
13	0	0	0	0	670	1022	0	625	0	0	
14	0	0	0	0	693	1021	0	633	0	0	
15	0	0	0	0	714	1021	0	634	0	0	
0	0	0	0	0	730	1021	0	628	0	0	
1	0	0	0	0	741	1021	0	614	0	0	
2	0	0	0	0	747	1022	0	594	0	0	
3	0	0	0	0	748	1021	0	568	0	0	
4	0	0	0	0	746	1021	0	541	0	0	
5	0	0	0	0	738	1021	0	515	0	0	
6	0	0	0	0	724	1021	0	492	0	0	
7	0	0	0	0	707	1022	0	474	0	0	
8	0	0	0	0	689	1021	0	463	0	0	
9	0	0	0	0	674	1021	0	460	0	0	
10	0	0	0	0	661	1021	0	465	0	0	
11	0	0	0	0	653	1021	0	478	0	0	
12	0	0	0	0	649	1022	0	498	0	0	
13	0	0	0	0	649	1022	0	523	0	0	
14	0	0	0	0	655	1021	0	550	0	0	
15	0	0	0	0	662	1021	0	577	0	0	
0	0	0	0	0	672	1021	0	601	0	0	
1	0	0	0	0	683	1021	0	621	0	0	
2	0	0	0	0	694	1022	0	635	0	0	
3	0	0	0	0	705	1021	0	640	0	0	
4	0	0	0	0	712	1021	0	638	0	0	
5	0	0	0	0	715	1021	0	628	0	0	
6	0	0	0	0	710	1022	0	612	0	0	
7	0	0	0	0	701	1021	0	589	0	0	
8	0	0	0	0	685	1021	0	565	0	0	
9	0	0	0	0	665	1021	0	541	0	0	
10	0	0	0	0	644	1021	0	519	0	0	
11	0	0	0	0	622	1022	0	504	0	0	
12	0	0	0	0	602	1022	0	494	0	0	
13	0	0	0	0	587	1021	0	490	0	0	
14	0	0	0	0	576	1021	0	494	0	0	
15	0	0	0	0	570	1021	0	504	0	0	
0	0	0	0	0	569	1022	0	520	0	0	
1	0	0	0	0	575	1021	0	540	0	0	
2	0	0	0	0	589	1021	0	563	0	0	
3	0	0	0	0	609	1021	0	583	0	0	
4	0	0	0	0	635	1021	0	602	0	0	
5	0	0	0	0	664	1021	0	616	0	0	
6	0	0	0	0	694	1021	0	624	0	0	
7	0	0	0	0	719	1021	0	626	0	0	
8	0	0	0	0	738	1021	0	621	0	0	
9	0	0	0	0	748	1021	0	607	0	0	
10	0	0	0	0	746	1021	0	588	0	0	
11	0	0	0	0	736	1022	0	563	0	0	
12	0	0	0	0	719	1021	0	535	0	0	
13	0	0	0	0	699	1021	0	507	0	0	
14	0	0	0	0	678	1021	0	481	0	0	
15	0	0	0	0	658	1022	0	460	0	0	
0	0	0	0	0	642	1022	0	446	0	0	
1	0	0	0	0	631	1021	0	439	0	0	
2	0	0	0	0	625	1021	0	440	0	0	
3	0	0	0	0	626	1022	0	449	0	0	
4	0	0	0	0	635	1021	0	465	0	0	
5	0	0	0	0	648	1022	0	487	0	0	
6	0	0	0	0	666	1021	0	512	0	0	
7	0	0	0	0	685	1021	0	537	0	0	
8	0	0	0	0	704	1021	0	560	0	0	
9	0	0	0	0	722	1021	0	578	0	0	
10	0	0	0	0	736	1022	0	591	0	0	
11	0	0	0	0	746	1021	0	595	0	0	
12	0	0	0	0	750	1021	0	592	0	0	
13	0	0	0	0	748	1021	0	580	0	0	
14	0	0	0	0	740	1022	0	563	0	0	
15	0	0	0	0	728	1021	0	539	0	0	
0	0	0	0	0	715	1021	0	513	0	0	
1	0	0	0	0	700	1021	0	488	0	0	
2	0	0	0	0	686	1021	0	466	0	0	
3	0	0	0	0	669	1022	0	450	0	0	
4	0	0	0	0	652	1022	0	440	0	0	
5	0	0	0	0	637	1021	0	436	0	0	
6	0	0	0	0	622	1021	0	439	0	0	
7	0	0	0	0	611	1022	0	450	0	0	
8	0	0	0	0	607	1021	0	466	0	0	
9	0	0	0	0	606	1022	0	487	0	0	
10	0	0	0	0	612	1021	0	510	0	0	
11	0	0	0	0	622	1021	0	534	0	0	
12	0	0	0	0	634	1021	0	554	0	0	
13	0	0	0	0	647	1022	0	572	0	0	
14	0	0	0	0	660	1021	0	584	0	0	
15	0	0	0	0	671	1021	0	591	0	0	
0	0	0	0	0	677	1021	0	590	0	0	
1	0	0	0	0	676	1021	0	581	0	0	
2	0	0	0	0	668	1022	0	565	0	0	
3	0	0	0	0	654	1021	0	543	0	0	
4	0	0	0	0	636	1021	0	518	0	0	
5	0	0	0	0	616	1021	0	493	0	0	
6	0	0	0	0	598	1021	0	470	0	0	
7	0	0	0	0	583	1021	0	450	0	0	
8	0	0	0	0	574	1021	0	436	0	0	
9	0	0	0	0	572	1021	0	428	0	0	
10	0	0	0	0	577	1021	0	425	0	0	
11	0	0	0	0	591	1021	0	429	0	0	
12	0	0	0	0	611	1022	0	438	0	0	
13	0	0	0	0	636	1021	0	449	0	0	
14	0	0	0	0	664	1021	0	461	0	0	
15	0	0	0	0	691	1021	0	471	0	0	
0	0	0	0	0	716	1021	0	476	0	0	
1	0	0	0	0	737	1022	0	478	0	0	
2	0	0	0	0	753	1021	0	473	0	0	
3	0	0	0	0	764	1021	0	464	0	0	
4	0	0	0	0	766	1021	0	449	0	0	
5	0	0	0	0	761	1021	0	430	0	0	
6	0	0	0	0	749	1022	0	409	0	0	
7	0	0	0	0	733	1021	0	386	0	0	
8	0	0	0	0	716	1021	0	366	0	0	
9	0	0	0	0	698	1021	0	349	0	0	
10	0	0	0	0	684	1021	0	340	0	0	
11	0	0	0	0	675	1022	0	339	0	0	
12	0	0	0	0	672	1021	0	346	0	0	
13	0	0	0	0	677	1021	0	363	0	0	
14	0	0	0	0	685	1021	0	388	0	0	
15	0	0	0	0	694	1021	0	422	0	0	
0	0	0	0	0	700	1022	0	458	0	0	
1	0	0	0	0	702	1021	0	496	0	0	
2	0	0	0	0	700	1021	0	534	0	0	
3	0	0	0	0	689	1021	0	567	0	0	
4	0	0	0	0	673	1021	0	592	0	0	
5	0	0	0	0	652	1022	0	609	0	0	
6	0	0	0	0	629	1021	0	615	0	0	
7	0	0	0	0	605	1021	0	610	0	0	
8	0	0	0	0	581	1021	0	595	0	0	
9	0	0	0	0	559	1021	0	571	0	0	
10	0	0	0	0	541	1022	0	539	0	0	
11	0	0	0	0	527	1022	0	502	0	0	
12	0	0	0	0	518	1021	0	465	0	0	
13	0	0	0	0	515	1021	0	431	0	0	
14	0	0	0	0	516	1021	0	401	0	0	
15	0	0	0	0	520	1021	0	379	0	0	
0	0	0	0	0	527	1021	0	366	0	0	
1	0	0	0	0	536	1021	0	364	0	0	
2	0	0	0	0	546	1021	0	371	0	0	
3	0	0	0	0	558	1021	0	387	0	0	
4	0	0	0	0	572	1022	0	412	0	0	
5	0	0	0	0	589	1021	0	443	0	0	
6	0	0	0	0	608	1021	0	477	0	0	
7	0	0	0	0	628	1021	0	511	0	0	
8	0	0	0	0	649	1021	0	541	0	0	
9	0	0	0	0	671	1021	0	566	0	0	
10	0	0	0	0	690	1021	0	582	0	0	
11	0	0	0	0	707	1021	0	590	0	0	
12	0	0	0	0	722	1021	0	586	0	0	
13	0	0	0	0	732	1021	0	574	0	0	
14	0	0	0	0	738	1021	0	552	0	0	
15	0	0	0	0	738	1021	0	523	0	0	
0	0	0	0	0	733	1021	0	491	0	0	
1	0	0	0	0	722	1021	0	457	0	0	
2	0	0	0	0	709	1021	0	427	0	0	
3	0	0	0	0	693	1021	0	402	0	0	
4	0	0	0	0	676	1021	0	383	0	0	
5	0	0	0	0	662	1021	0	373	0	0	
6	0	0	0	0	649	1021	0	372	0	0	
7	0	0	0	0	640	1021	0	381	0	0	
8	0	0	0	0	636	1021	0	398	0	0	
9	0	0	0	0	636	1022	0	423	0	0	
10	0	0	0	0	641	1021	0	451	0	0	
11	0	0	0	0	647	1022	0	482	0	0	
12	0	0	0	0	656	1021	0	511	0	0	
13	0	0	0	0	664	1021	0	537	0	0	
14	0	0	0	0	670	1021	0	556	0	0	
15	0	0	0	0	675	1021	0	569	0	0	
0	0	0	0	0	674	1021	0	574	0	0	
1	0	0	0	0	668	1021	0	568	0	0	
2	0	0	0	0	659	1021	0	556	0	0	
3	0	0	0	0	646	1022	0	535	0	0	
4	0	0	0	0	633	1021	0	509	0	0	
5	0	0	0	0	621	1021	0	483	0	0	
6	0	0	0	0	612	1021	0	457	0	0	
7	0	0	0	0	607	1021	0	435	0	0	
8	0	0	0	0	607	1022	0	419	0	0	
9	0	0	0	0	611	1021	0	409	0	0	
10	0	0	0	0	620	1021	0	408	0	0	
11	0	0	0	0	633	1021	0	415	0	0	
12	0	0	0	0	649	1021	0	432	0	0	
13	0	0	0	0	668	1021	0	455	0	0	
14	0	0	0	0	688	1021	0	482	0	0	
15	0	0	0	0	707	1021	0	511	0	0	
0	0	0	0	0	723	1021	0	537	0	0	
1	0	0	0	0	737	1021	0	559	0	0	
2	0	0	0	0	746	1021	0	575	0	0	
3	0	0	0	0	752	1021	0	583	0	0	
4	0	0	0	0	752	1021	0	582	0	0	
5	0	0	0	0	747	1021	0	572	0	0	
6	0	0	0	0	733	1022	0	554	0	0	
7	0	0	0	0	715	1022	0	531	0	0	
8	0	0	0	0	693	1021	0	503	0	0	
9	0	0	0	0	668	1021	0	476	0	0	
10	0	0	0	0	644	1021	0	450	0	0	
11	0	0	0	0	623	1021	0	430	0	0	
12	0	0	0	0	605	1021	0	417	0	0	
13	0	0	0	0	595	1021	0	412	0	0	
14	0	0	0	0	592	1021	0	416	0	0	
15	0	0	0	0	596	1021	0	428	0	0	
0	0	0	0	0	607	1022	0	448	0	0	
1	0	0	0	0	620	1021	0	473	0	0	
2	0	0	0	0	638	1021	0	503	0	0	
3	0	0	0	0	655	1021	0	533	0	0	
4	0	0	0	0	673	1021	0	560	0	0	
5	0	0	0	0	693	1022	0	582	0	0	
6	0	0	0	0	712	1021	0	597	0	0	
7	0	0	0	0	729	1021	0	604	0	0	
8	0	0	0	0	742	1021	0	602	0	0	
9	0	0	0	0	748	1021	0	590	0	0	
10	0	0	0	0	745	1022	0	568	0	0	
11	0	0	0	0	734	1021	0	539	0	0	
12	0	0	0	0	717	1021	0	507	0	0	
13	0	0	0	0	696	1021	0	475	0	0	
14	0	0	0	0	675	1021	0	447	0	0	
15	0	0	0	0	654	1021	0	424	0	0	
0	0	0	0	0	635	1021	0	408	0	0	
1	0	0	0	0	620	1021	0	402	0	0	
2	0	0	0	0	609	1021	0	404	0	0	
3	0	0	0	0	604	1021	0	416	0	0	
4	0	0	0	0	602	1021	0	436	0	0	
5	0	0	0	0	606	1021	0	463	0	0	
6	0	0	0	0	615	1021	0	495	0	0	
7	0	0	0	0	630	1021	0	527	0	0	
8	0	0	0	0	648	1021	0	559	0	0	
9	0	0	0	0	668	1021	0	585	0	0	
10	0	0	0	0	687	1022	0	605	0	0	
11	0	0	0	0	704	1021	0	617	0	0	
12	0	0	0	0	715	1021	0	619	0	0	
13	0	0	0	0	720	1021	0	609	0	0	
14	0	0	0	0	719	1021	0	591	0	0	
15	0	0	0	0	711	1021	0	563	0	0	
0	0	0	0	0	699	1021	0	531	0	0	
1	0	0	0	0	684	1021	0	499	0	0	
2	0	0	0	0	671	1021	0	470	0	0	
3	0	0	0	0	662	1022	0	445	0	0	
4	0	0	0	0	656	1022	0	428	0	0	
5	0	0	0	0	658	1021	0	419	0	0	
6	0	0	0	0	664	1021	0	419	0	0	
7	0	0	0	0	676	1021	0	427	0	0	
8	0	0	0	0	690	1021	0	441	0	0	
9	0	0	0	0	704	1022	0	463	0	0	
10	0	0	0	0	720	1021	0	485	0	0	
11	0	0	0	0	733	1021	0	508	0	0	
12	0	0	0	0	743	1021	0	530	0	0	
13	0	0	0	0	749	1021	0	546	0	0	
14	0	0	0	0	750	1022	0	557	0	0	
15	0	0	0	0	748	1021	0	561	0	0	
0	0	0	0	0	742	1021	0	558	0	0	
1	0	0	0	0	732	1021	0	548	0	0	
2	0	0	0	0	718	1021	0	532	0	0	
3	0	0	0	0	703	1021	0	511	0	0	
4	0	0	0	0	687	1021	0	490	0	0	
5	0	0	0	0	674	1021	0	470	0	0	
6	0	0	0	0	664	1021	0	454	0	0	
7	0	0	0	0	660	1021	0	446	0	0	
8	0	0	0	0	662	1022	0	444	0	0	
9	0	0	0	0	670	1021	0	450	0	0	
10	0	0	0	0	685	1021	0	465	0	0	
11	0	0	0	0	703	1022	0	487	0	0	
12	0	0	0	0	725	1021	0	515	0	0	
13	0	0	0	0	745	1022	0	548	0	0	
14	0	0	0	0	766	1021	0	581	0	0	
15	0	0	0	0	783	1022	0	612	0	0	
0	0	0	0	0	798	1021	0	639	0	0	
1	0	0	0	0	809	1022	0	659	0	0	
2	0	0	0	0	817	1021	0	672	0	0	
3	0	0	0	0	820	1021	0	675	0	0	
4	0	0	0	0	817	1021	0	669	0	0	
5	0	0	0	0	809	1021	0	653	0	0	
6	0	0	0	0	796	1021	0	628	0	0	
7	0	0	0	0	780	1022	0	598	0	0	
8	0	0	0	0	762	1021	0	563	0	0	
9	0	0	0	0	745	1021	0	529	0	0	
10	0	0	0	0	728	1022	0	498	0	0	
11	0	0	0	0	714	1021	0	472	0	0	
12	0	0	0	0	702	1022	0	454	0	0	
13	0	0	0	0	695	1021	0	444	0	0	
14	0	0	0	0	690	1021	0	444	0	0	
15	0	0	0	0	691	1021	0	452	0	0	
0	0	0	0	0	698	1022	0	469	0	0	
1	0	0	0	0	710	1021	0	492	0	0	
2	0	0	0	0	727	1021	0	519	0	0	
3	0	0	0	0	745	1021	0	547	0	0	
4	0	0	0	0	765	1021	0	573	0	0	
5	0	0	0	0	782	1022	0	595	0	0	
6	0	0	0	0	795	1021	0	610	0	0	
7	0	0	0	0	806	1021	0	618	0	0	
8	0	0	0	0	809	1021	0	617	0	0	
9	0	0	0	0	806	1021	0	609	0	0	
10	0	0	0	0	797	1022	0	593	0	0	
11	0	0	0	0	783	1021	0	572	0	0	
12	0	0	0	0	766	1021	0	547	0	0	
13	0	0	0	0	746	1021	0	524	0	0	
14	0	0	0	0	725	1021	0	504	0	0	
15	0	0	0	0	704	1022	0	488	0	0	
0	0	0	0	0	686	1021	0	480	0	0	
1	0	0	0	0	670	1021	0	479	0	0	
2	0	0	0	0	657	1021	0	487	0	0	
3	0	0	0	0	649	1021	0	501	0	0	
4	0	0	0	0	646	1021	0	521	0	0	
5	0	0	0	0	648	1021	0	546	0	0	
6	0	0	0	0	655	1021	0	572	0	0	
7	0	0	0	0	666	1021	0	596	0	0	
8	0	0	0	0	681	1021	0	618	0	0	
9	0	0	0	0	699	1022	0	633	0	0	
10	0	0	0	0	719	1021	0	640	0	0	
11	0	0	0	0	740	1021	0	639	0	0	
12	0	0	0	0	760	1021	0	631	0	0	
13	0	0	0	0	776	1021	0	614	0	0	
14	0	0	0	0	787	1021	0	591	0	0	
15	0	0	0	0	792	1021	0	564	0	0	
0	0	0	0	0	792	1021	0	536	0	0	
1	0	0	0	0	787	1021	0	510	0	0	
2	0	0	0	0	779	1021	0	489	0	0	
3	0	0	0	0	767	1022	0	477	0	0	
4	0	0	0	0	752	1022	0	472	0	0	
5	0	0	0	0	737	1021	0	478	0	0	
6	0	0	0	0	724	1021	0	494	0	0	
7	0	0	0	0	716	1021	0	518	0	0	
8	0	0	0	0	711	1022	0	552	0	0	
9	0	0	0	0	713	1021	0	591	0	0	
10	0	0	0	0	721	1021	0	632	0	0	
11	0	0	0	0	732	1021	0	671	0	0	
12	0	0	0	0	748	1021	0	705	0	0	
13	0	0	0	0	766	1021	0	732	0	0	
14	0	0	0	0	784	1021	0	748	0	0	
15	0	0	0	0	801	1021	0	755	0	0	
0	0	0	0	0	813	1021	0	749	0	0	
1	0	0	0	0	820	1021	0	732	0	0	
2	0	0	0	0	819	1021	0	705	0	0	
3	0	0	0	0	811	1022	0	669	0	0	
4	0	0	0	0	796	1021	0	627	0	0	
5	0	0	0	0	774	1021	0	585	0	0	
6	0	0	0	0	748	1021	0	545	0	0	
7	0	0	0	0	718	1022	0	513	0	0	
8	0	0	0	0	686	1021	0	488	0	0	
9	0	0	0	0	657	1021	0	475	0	0	
10	0	0	0	0	630	1021	0	472	0	0	
11	0	0	0	0	610	1021	0	482	0	0	
12	0	0	0	0	598	1021	0	504	0	0	
13	0	0	0	0	595	1021	0	533	0	0	
14	0	0	0	0	603	1021	0	569	0	0	
15	0	0	0	0	618	1021	0	605	0	0	
0	0	0	0	0	639	1022	0	640	0	0	
1	0	0	0	0	665	1021	0	670	0	0	
2	0	0	0	0	692	1021	0	691	0	0	
3	0	0	0	0	720	1021	0	704	0	0	
4	0	0	0	0	746	1021	0	706	0	0	
5	0	0	0	0	769	1021	0	695	0	0	
6	0	0	0	0	786	1022	0	675	0	0	
7	0	0	0	0	797	1022	0	646	0	0	
8	0	0	0	0	803	1021	0	611	0	0	
9	0	0	0	0	802	1021	0	576	0	0	
10	0	0	0	0	796	1021	0	542	0	0	
11	0	0	0	0	785	1022	0	515	0	0	
12	0	0	0	0	771	1021	0	493	0	0	
13	0	0	0	0	755	1021	0	481	0	0	
14	0	0	0	0	740	1021	0	479	0	0	
15	0	0	0	0	728	1021	0	488	0	0	
0	0	0	0	0	721	1021	0	508	0	0	
1	0	0	0	0	719	1021	0	537	0	0	
2	0	0	0	0	725	1021	0	573	0	0	
3	0	0	0	0	735	1021	0	611	0	0	
4	0	0	0	0	745	1021	0	648	0	0	
5	0	0	0	0	755	1021	0	683	0	0	
6	0	0	0	0	762	1021	0	710	0	0	
7	0	0	0	0	769	1021	0	730	0	0	
8	0	0	0	0	773	1021	0	739	0	0	
9	0	0	0	0	776	1021	0	738	0	0	
10	0	0	0	0	777	1022	0	727	0	0	
11	0	0	0	0	777	1021	0	706	0	0	
12	0	0	0	0	778	1021	0	679	0	0	
13	0	0	0	0	778	1021	0	649	0	0	
14	0	0	0	0	779	1021	0	619	0	0	
15	0	0	0	0	778	1022	0	592	0	0	
0	0	0	0	0	776	1021	0	569	0	0	
1	0	0	0	0	773	1021	0	556	0	0	
2	0	0	0	0	767	1021	0	550	0	0	
3	0	0	0	0	760	1021	0	553	0	0	
4	0	0	0	0	751	1022	0	566	0	0	
5	0	0	0	0	743	1021	0	585	0	0	
6	0	0	0	0	736	1021	0	608	0	0	
7	0	0	0	0	729	1021	0	634	0	0	
8	0	0	0	0	723	1021	0	658	0	0	
9	0	0	0	0	717	1022	0	679	0	0	
10	0	0	0	0	712	1022	0	694	0	0	
11	0	0	0	0	709	1021	0	701	0	0	
12	0	0	0	0	707	1021	0	700	0	0	
13	0	0	0	0	706	1021	0	690	0	0	
14	0	0	0	0	704	1022	0	670	0	0	
15	0	0	0	0	704	1021	0	643	0	0	
0	0	0	0	0	702	1021	0	611	0	0	
1	0	0	0	0	699	1021	0	579	0	0	
2	0	0	0	0	694	1022	0	550	0	0	
3	0	0	0	0	689	1021	0	526	0	0	
4	0	0	0	0	684	1022	0	509	0	0	
5	0	0	0	0	680	1021	0	502	0	0	
6	0	0	0	0	677	1022	0	505	0	0	
7	0	0	0	0	678	1021	0	519	0	0	
8	0	0	0	0	680	1022	0	542	0	0	
9	0	0	0	0	684	1021	0	571	0	0	
10	0	0	0	0	692	1021	0	603	0	0	
11	0	0	0	0	701	1021	0	636	0	0	
12	0	0	0	0	712	1021	0	665	0	0	
13	0	0	0	0	724	1021	0	688	0	0	
14	0	0	0	0	739	1022	0	704	0	0	
15	0	0	0	0	753	1021	0	710	0	0	
0	0	0	0	0	765	1021	0	706	0	0	
1	0	0	0	0	773	1022	0	692	0	0	
2	0	0	0	0	776	1022	0	670	0	0	
3	0	0	0	0	772	1022	0	641	0	0	
4	0	0	0	0	763	1021	0	609	0	0	
5	0	0	0	0	746	1021	0	578	0	0	
6	0	0	0	0	725	1021	0	550	0	0	
7	0	0	0	0	702	1021	0	528	0	0	
8	0	0	0	0	679	1021	0	514	0	0	
9	0	0	0	0	658	1021	0	509	0	0	
10	0	0	0	0	641	1021	0	512	0	0	
11	0	0	0	0	630	1021	0	524	0	0	
12	0	0	0	0	627	1022	0	543	0	0	
13	0	0	0	0	632	1022	0	568	0	0	
14	0	0	0	0	644	1021	0	596	0	0	
15	0	0	0	0	661	1021	0	624	0	0	
0	0	0	0	0	681	1021	0	649	0	0	
1	0	0	0	0	702	1022	0	671	0	0	
2	0	0	0	0	726	1022	0	688	0	0	
3	0	0	0	0	749	1021	0	697	0	0	
4	0	0	0	0	769	1021	0	700	0	0	
5	0	0	0	0	786	1021	0	694	0	0	
6	0	0	0	0	796	1021	0	680	0	0	
7	0	0	0	0	799	1021	0	660	0	0	
8	0	0	0	0	794	1021	0	636	0	0	
9	0	0	0	0	782	1021	0	609	0	0	
10	0	0	0	0	766	1021	0	585	0	0	
11	0	0	0	0	745	1022	0	564	0	0	
12	0	0	0	0	723	1022	0	548	0	0	
13	0	0	0	0	704	1021	0	538	0	0	
14	0	0	0	0	688	1021	0	535	0	0	
15	0	0	0	0	677	1021	0	540	0	0	
0	0	0	0	0	672	1022	0	552	0	0	
1	0	0	0	0	672	1021	0	569	0	0	
2	0	0	0	0	678	1021	0	590	0	0	
3	0	0	0	0	687	1021	0	611	0	0	
4	0	0	0	0	701	1021	0	632	0	0	
5	0	0	0	0	716	1021	0	648	0	0	
6	0	0	0	0	732	1021	0	660	0	0	
7	0	0	0	0	748	1021	0	665	0	0	
8	0	0	0	0	761	1021	0	664	0	0	
9	0	0	0	0	772	1021	0	656	0	0	
10	0	0	0	0	777	1022	0	641	0	0	
11	0	0	0	0	775	1021	0	621	0	0	
12	0	0	0	0	768	1021	0	598	0	0	
13	0	0	0	0	752	1021	0	574	0	0	
14	0	0	0	0	730	1021	0	552	0	0	
15	0	0	0	0	702	1022	0	534	0	0	
0	0	0	0	0	671	1021	0	520	0	0	
1	0	0	0	0	641	1021	0	515	0	0	
2	0	0	0	0	614	1021	0	518	0	0	
3	0	0	0	0	596	1021	0	529	0	0	
4	0	0	0	0	588	1022	0	548	0	0	
5	0	0	0	0	592	1021	0	573	0	0	
6	0	0	0	0	609	1021	0	601	0	0	
7	0	0	0	0	635	1021	0	630	0	0	
8	0	0	0	0	667	1021	0	656	0	0	
9	0	0	0	0	702	1022	0	677	0	0	
10	0	0	0	0	736	1022	0	691	0	0	
11	0	0	0	0	769	1021	0	696	0	0	
12	0	0	0	0	795	1021	0	691	0	0	
13	0	0	0	0	813	1021	0	677	0	0	
14	0	0	0	0	819	1022	0	653	0	0	
15	0	0	0	0	816	1022	0	623	0	0	
0	0	0	0	0	803	1021	0	588	0	0	
1	0	0	0	0	781	1021	0	551	0	0	
2	0	0	0	0	752	1021	0	516	0	0	
3	0	0	0	0	718	1022	0	487	0	0	
4	0	0	0	0	683	1022	0	464	0	0	
5	0	0	0	0	651	1021	0	451	0	0	
6	0	0	0	0	624	1021	0	450	0	0	
7	0	0	0	0	604	1021	0	461	0	0	
8	0	0	0	0	595	1021	0	483	0	0	
9	0	0	0	0	596	1022	0	513	0	0	
10	0	0	0	0	608	1021	0	548	0	0	
11	0	0	0	0	626	1021	0	584	0	0	
12	0	0	0	0	649	1021	0	616	0	0	
13	0	0	0	0	673	1021	0	643	0	0	
14	0	0	0	0	696	1021	0	661	0	0	
15	0	0	0	0	718	1021	0	671	0	0	
0	0	0	0	0	735	1021	0	671	0	0	
1	0	0	0	0	747	1021	0	661	0	0	
2	0	0	0	0	753	1021	0	643	0	0	
3	0	0	0	0	754	1021	0	617	0	0	
4	0	0	0	0	751	1021	0	590	0	0	
5	0	0	0	0	743	1021	0	561	0	0	
6	0	0	0	0	732	1022	0	536	0	0	
7	0	0	0	0	720	1021	0	516	0	0	
8	0	0	0	0	707	1022	0	503	0	0	
9	0	0	0	0	697	1021	0	498	0	0	
10	0	0	0	0	688	1021	0	501	0	0	
11	0	0	0	0	683	1021	0	512	0	0	
12	0	0	0	0	680	1022	0	531	0	0	
13	0	0	0	0	682	1021	0	555	0	0	
14	0	0	0	0	687	1021	0	582	0	0	
15	0	0	0	0	693	1021	0	608	0	0	
0	0	0	0	0	701	1021	0	631	0	0	
1	0	0	0	0	708	1021	0	650	0	0	
2	0	0	0	0	713	1021	0	662	0	0	
3	0	0	0	0	718	1021	0	668	0	0	
4	0	0	0	0	718	1021	0	665	0	0	
5	0	0	0	0	714	1021	0	655	0	0	
6	0	0	0	0	706	1021	0	637	0	0	
7	0	0	0	0	694	1022	0	613	0	0	
8	0	0	0	0	680	1021	0	586	0	0	
9	0	0	0	0	664	1021	0	558	0	0	
10	0	0	0	0	649	1021	0	532	0	0	
11	0	0	0	0	636	1021	0	512	0	0	
12	0	0	0	0	626	1021	0	497	0	0	
13	0	0	0	0	622	1021	0	491	0	0	
14	0	0	0	0	622	1021	0	493	0	0	
15	0	0	0	0	630	1021	0	504	0	0	
0	0	0	0	0	642	1021	0	523	0	0	
1	0	0	0	0	658	1021	0	548	0	0	
2	0	0	0	0	675	1021	0	577	0	0	
3	0	0	0	0	692	1021	0	607	0	0	
4	0	0	0	0	708	1021	0	632	0	0	
5	0	0	0	0	723	1021	0	653	0	0	
6	0	0	0	0	734	1022	0	666	0	0	
7	0	0	0	0	740	1021	0	669	0	0	
8	0	0	0	0	739	1021	0	664	0	0	
9	0	0	0	0	731	1022	0	650	0	0	
10	0	0	0	0	719	1021	0	628	0	0	
11	0	0	0	0	701	1022	0	600	0	0	
12	0	0	0	0	684	1021	0	569	0	0	
13	0	0	0	0	668	1022	0	539	0	0	
14	0	0	0	0	654	1021	0	512	0	0	
15	0	0	0	0	644	1021	0	491	0	0	
0	0	0	0	0	639	1021	0	477	0	0	
1	0	0	0	0	641	1021	0	472	0	0	
2	0	0	0	0	648	1021	0	475	0	0	
3	0	0	0	0	660	1021	0	487	0	0	
4	0	0	0	0	676	1022	0	508	0	0	
5	0	0	0	0	696	1021	0	533	0	0	
6	0	0	0	0	718	1021	0	562	0	0	
7	0	0	0	0	738	1021	0	592	0	0	
8	0	0	0	0	756	1021	0	619	0	0	
9	0	0	0	0	769	1021	0	641	0	0	
10	0	0	0	0	776	1021	0	657	0	0	
11	0	0	0	0	775	1021	0	665	0	0	
12	0	0	0	0	765	1021	0	665	0	0	
13	0	0	0	0	747	1021	0	656	0	0	
14	0	0	0	0	722	1022	0	638	0	0	
15	0	0	0	0	694	1021	0	613	0	0	
0	0	0	0	0	664	1021	0	583	0	0	
1	0	0	0	0	636	1021	0	553	0	0	
2	0	0	0	0	611	1021	0	525	0	0	
3	0	0	0	0	594	1022	0	503	0	0	
4	0	0	0	0	584	1021	0	488	0	0	
5	0	0	0	0	583	1021	0	483	0	0	
6	0	0	0	0	589	1021	0	486	0	0	
7	0	0	0	0	600	1021	0	499	0	0	
8	0	0	0	0	617	1022	0	519	0	0	
9	0	0	0	0	638	1021	0	544	0	0	
10	0	0	0	0	663	1021	0	572	0	0	
11	0	0	0	0	686	1021	0	599	0	0	
12	0	0	0	0	708	1021	0	621	0	0	
13	0	0	0	0	727	1022	0	636	0	0	
14	0	0	0	0	740	1021	0	641	0	0	
15	0	0	0	0	748	1021	0	638	0	0	
0	0	0	0	0	748	1021	0	624	0	0	
1	0	0	0	0	738	1021	0	600	0	0	
2	0	0	0	0	719	1022	0	566	0	0	
3	0	0	0	0	691	1022	0	527	0	0	
4	0	0	0	0	656	1021	0	482	0	0	
5	0	0	0	0	616	1021	0	438	0	0	
6	0	0	0	0	574	1021	0	396	0	0	
7	0	0	0	0	531	1021	0	360	0	0	
8	0	0	0	0	492	1021	0	331	0	0	
9	0	0	0	0	457	1021	0	311	0	0	
10	0	0	0	0	429	1021	0	301	0	0	
11	0	0	0	0	409	1021	0	300	0	0	
12	0	0	0	0	397	1021	1	307	0	0	
13	0	0	0	0	395	1022	0	324	0	0	
14	0	0	0	0	401	1021	0	345	0	0	
15	0	0	0	0	415	1021	0	368	0	0	
0	0	0	0	0	434	1021	0	391	0	0	
1	0	0	0	0	457	1021	0	412	0	0	
2	0	0	0	0	481	1021	0	427	0	0	
3	0	0	0	0	506	1021	0	438	0	0	
4	0	0	0	0	529	1021	0	442	0	0	
5	0	0	0	0	549	1022	0	440	0	0	
6	0	0	0	0	566	1021	0	431	0	0	
7	0	0	0	0	577	1021	0	418	0	0	
8	0	0	0	0	583	1021	0	403	0	0	
9	0	0	0	0	584	1021	0	390	0	0	
10	0	0	0	0	582	1021	0	379	0	0	
11	0	0	0	0	576	1021	0	374	0	0	
12	0	0	0	0	570	1022	0	374	0	0	
13	0	0	0	0	567	1021	0	380	0	0	
14	0	0	0	0	567	1021	0	395	0	0	
15	0	0	0	0	571	1021	0	415	0	0	
0	0	0	0	0	579	1022	0	442	0	0	
1	0	0	0	0	594	1022	0	473	0	0	
2	0	0	0	0	614	1021	0	505	0	0	
3	0	0	0	0	638	1021	0	539	0	0	
4	0	0	0	0	664	1021	0	569	0	0	
5	0	0	0	0	689	1022	0	594	0	0	
6	0	0	0	0	715	1021	0	612	0	0	
7	0	0	0	0	737	1021	0	623	0	0	
8	0	0	0	0	752	1021	0	624	0	0	
9	0	0	0	0	761	1021	0	615	0	0	
10	0	0	0	0	762	1021	0	599	0	0	
11	0	0	0	0	753	1022	0	575	0	0	
12	0	0	0	0	740	1021	0	546	0	0	
13	0	0	0	0	721	1021	0	517	0	0	
14	0	0	0	0	698	1021	0	489	0	0	
15	0	0	0	0	674	1022	0	465	0	0	
0	0	0	0	0	650	1021	0	448	0	0	
1	0	0	0	0	630	1021	0	437	0	0	
2	0	0	0	0	613	1021	0	436	0	0	
3	0	0	0	0	600	1021	0	443	0	0	
4	0	0	0	0	594	1021	0	459	0	0	
5	0	0	0	0	593	1021	0	481	0	0	
6	0	0	0	0	599	1021	0	507	0	0	
7	0	0	0	0	608	1021	0	533	0	0	
8	0	0	0	0	622	1021	0	557	0	0	
9	0	0	0	0	637	1021	0	577	0	0	
10	0	0	0	0	652	1022	0	591	0	0	
11	0	0	0	0	667	1021	0	595	0	0	
12	0	0	0	0	679	1021	0	592	0	0	
13	0	0	0	0	687	1021	0	581	0	0	
14	0	0	0	0	691	1022	0	561	0	0	
15	0	0	0	0	689	1021	0	536	0	0	
0	0	0	0	0	683	1021	0	507	0	0	
1	0	0	0	0	674	1021	0	478	0	0	
2	0	0	0	0	662	1021	0	451	0	0	
3	0	0	0	0	649	1021	0	429	0	0	
4	0	0	0	0	637	1021	0	412	0	0	
5	0	0	0	0	625	1021	0	402	0	0	
6	0	0	0	0	617	1021	0	400	0	0	
7	0	0	0	0	612	1021	0	407	0	0	
8	0	0	0	0	612	1021	0	420	0	0	
9	0	0	0	0	616	1021	0	439	0	0	
10	0	0	0	0	626	1021	0	462	0	0	
11	0	0	0	0	638	1021	0	486	0	0	
12	0	0	0	0	651	1021	0	509	0	0	
13	0	0	0	0	665	1022	0	529	0	0	
14	0	0	0	0	679	1021	0	543	0	0	
15	0	0	0	0	691	1021	0	552	0	0	
0	0	0	0	0	699	1021	0	554	0	0	
1	0	0	0	0	703	1021	0	547	0	0	
2	0	0	0	0	703	1022	0	533	0	0	
3	0	0	0	0	697	1021	0	513	0	0	
4	0	0	0	0	689	1021	0	490	0	0	
5	0	0	0	0	675	1021	0	467	0	0	
6	0	0	0	0	660	1021	0	445	0	0	
7	0	0	0	0	641	1022	0	428	0	0	
8	0	0	0	0	622	1022	0	415	0	0	
9	0	0	0	0	603	1021	0	409	0	0	
10	0	0	0	0	588	1021	0	411	0	0	
11	0	0	0	0	577	1021	0	419	0	0	
12	0	0	0	0	574	1022	0	435	0	0	
13	0	0	0	0	580	1022	0	456	0	0	
14	0	0	0	0	594	1021	0	480	0	0	
15	0	0	0	0	614	1021	0	505	0	0	
0	0	0	0	0	639	1021	0	528	0	0	
1	0	0	0	0	666	1022	0	547	0	0	
2	0	0	0	0	692	1022	0	560	0	0	
3	0	0	0	0	715	1021	0	565	0	0	
4	0	0	0	0	731	1021	0	562	0	0	
5	0	0	0	0	739	1021	0	550	0	0	
6	0	0	0	0	738	1021	0	529	0	0	
7	0	0	0	0	729	1022	0	501	0	0	
8	0	0	0	0	713	1021	0	468	0	0	
9	0	0	0	0	690	1021	0	435	0	0	
10	0	0	0	0	662	1022	0	404	0	0	
11	0	0	0	0	632	1021	0	377	0	0	
12	0	0	0	0	601	1022	0	358	0	0	
13	0	0	0	0	575	1021	0	346	0	0	
14	0	0	0	0	554	1021	0	344	0	0	
15	0	0	0	0	540	1021	0	353	0	0	
0	0	0	0	0	537	1022	0	371	0	0	
1	0	0	0	0	545	1021	0	396	0	0	
2	0	0	0	0	563	1021	0	427	0	0	
3	0	0	0	0	587	1021	0	459	0	0	
4	0	0	0	0	615	1021	0	489	0	0	
5	0	0	0	0	642	1021	0	515	0	0	
6	0	0	0	0	668	1022	0	534	0	0	
7	0	0	0	0	691	1021	0	544	0	0	
8	0	0	0	0	711	1021	0	546	0	0	
9	0	0	0	0	723	1022	0	537	0	0	
10	0	0	0	0	731	1021	0	519	0	0	
11	0	0	0	0	728	1022	0	494	0	0	
12	0	0	0	0	720	1021	0	464	0	0	
13	0	0	0	0	704	1021	0	433	0	0	
14	0	0	0	0	684	1021	0	404	0	0	
15	0	0	0	0	662	1022	0	379	0	0	
0	0	0	0	0	639	1021	0	359	0	0	
1	0	0	0	0	618	1021	0	348	0	0	
2	0	0	0	0	600	1021	0	345	0	0	
3	0	0	0	0	587	1021	0	350	0	0	
4	0	0	0	0	579	1021	0	363	0	0	
5	0	0	0	0	578	1022	0	383	0	0	
6	0	0	0	0	584	1021	0	406	0	0	
7	0	0	0	0	595	1021	0	430	0	0	
8	0	0	0	0	612	1021	0	452	0	0	
9	0	0	0	0	632	1021	0	471	0	0	
10	0	0	0	0	653	1022	0	483	0	0	
11	0	0	0	0	675	1021	0	487	0	0	
12	0	0	0	0	693	1021	0	483	0	0	
13	0	0	0	0	707	1021	0	471	0	0	
14	0	0	0	0	713	1022	0	452	0	0	
15	0	0	0	0	714	1021	0	426	0	0	
0	0	0	0	0	708	1021	0	398	0	0	
1	0	0	0	0	696	1021	0	369	0	0	
2	0	0	0	0	679	1021	0	343	0	0	
3	0	0	0	0	659	1021	0	320	0	0	
4	0	0	0	0	638	1021	0	303	0	0	
5	0	0	0	0	618	1021	0	293	0	0	
6	0	0	0	0	600	1021	0	291	0	0	
7	0	0	0	0	586	1021	0	297	0	0	
8	0	0	0	0	580	1021	0	312	0	0	
9	0	0	0	0	578	1022	0	334	0	0	
10	0	0	0	0	584	1021	0	359	0	0	
11	0	0	0	0	594	1021	0	386	0	0	
12	0	0	0	0	607	1021	0	412	0	0	
13	0	0	0	0	623	1022	0	434	0	0	
14	0	0	0	0	639	1021	0	450	0	0	
15	0	0	0	0	656	1021	0	460	0	0	
0	0	0	0	0	670	1021	0	463	0	0	
1	0	0	0	0	680	1021	0	458	0	0	
2	0	0	0	0	684	1022	0	445	0	0	
3	0	0	0	0	683	1021	0	426	0	0	
4	0	0	0	0	677	1021	0	403	0	0	
5	0	0	0	0	666	1021	0	379	0	0	
6	0	0	0	0	652	1021	0	355	0	0	
7	0	0	0	0	635	1021	0	335	0	0	
8	0	0	0	0	619	1021	0	320	0	0	
9	0	0	0	0	604	1021	0	312	0	0	
10	0	0	0	0	592	1021	0	311	0	0	
11	0	0	0	0	584	1021	0	316	0	0	
12	0	0	0	0	582	1021	0	329	0	0	
13	0	0	0	0	584	1021	0	346	0	0	
14	0	0	0	0	591	1021	0	367	0	0	
15	0	0	0	0	600	1021	0	387	0	0	
0	0	0	0	0	611	1022	0	406	0	0	
1	0	0	0	0	623	1021	0	421	0	0	
2	0	0	0	0	634	1021	0	429	0	0	
3	0	0	0	0	642	1021	0	432	0	0	
4	0	0	0	0	647	1021	0	427	0	0	
5	0	0	0	0	648	1021	0	415	0	0	
6	0	0	0	0	646	1021	0	399	0	0	
7	0	0	0	0	639	1022	0	378	0	0	
8	0	0	0	0	631	1021	0	355	0	0	
9	0	0	0	0	623	1021	0	335	0	0	
10	0	0	0	0	616	1021	0	319	0	0	
11	0	0	0	0	611	1021	0	308	0	0	
12	0	0	0	0	608	1022	0	304	0	0	
13	0	0	0	0	609	1021	0	307	0	0	
14	0	0	0	0	612	1021	0	318	0	0	
15	0	0	0	0	618	1021	0	335	0	0	
0	0	0	0	0	624	1021	0	359	0	0	
1	0	0	0	0	631	1021	0	386	0	0	
2	0	0	0	0	637	1021	0	415	0	0	
3	0	0	0	0	641	1021	0	442	0	0	
4	0	0	0	0	643	1021	0	465	0	0	
5	0	0	0	0	645	1021	0	482	0	0	
6	0	0	0	0	646	1022	0	493	0	0	
7	0	0	0	0	647	1021	0	495	0	0	
8	0	0	0	0	647	1021	0	489	0	0	
9	0	0	0	0	647	1021	0	475	0	0	
10	0	0	0	0	644	1021	0	455	0	0	
11	0	0	0	0	640	1022	0	428	0	0	
12	0	0	0	0	635	1021	0	399	0	0	
13	0	0	0	0	628	1021	0	371	0	0	
14	0	0	0	0	620	1021	0	344	0	0	
15	0	0	0	0	612	1022	0	322	0	0	
0	0	0	0	0	604	1021	0	306	0	0	
1	0	0	0	0	599	1021	0	297	0	0	
2	0	0	0	0	595	1021	0	297	0	0	
3	0	0	0	0	595	1021	0	304	0	0	
4	0	0	0	0	599	1021	0	320	0	0	
5	0	0	0	0	605	1021	0	342	0	0	
6	0	0	0	0	617	1021	0	368	0	0	
7	0	0	0	0	629	1021	0	396	0	0	
8	0	0	0	0	642	1021	0	423	0	0	
9	0	0	0	0	655	1022	0	446	0	0	
10	0	0	0	0	666	1021	0	464	0	0	
11	0	0	0	0	676	1021	0	475	0	0	
12	0	0	0	0	681	1021	0	478	0	0	
13	0	0	0	0	681	1021	0	473	0	0	
14	0	0	0	0	676	1021	0	460	0	0	
15	0	0	0	0	665	1021	0	440	0	0	
0	0	0	0	0	651	1021	0	416	0	0	
1	0	0	0	0	633	1021	0	391	0	0	
2	0	0	0	0	615	1021	0	366	0	0	
3	0	0	0	0	596	1021	0	345	0	0	
4	0	0	0	0	580	1021	0	330	0	0	
5	0	0	0	0	569	1021	0	321	0	0	
6	0	0	0	0	563	1021	0	321	0	0	
7	0	0	0	0	565	1021	0	328	0	0	
8	0	0	0	0	575	1021	0	342	0	0	
9	0	0	0	0	591	1021	0	362	0	0	
10	0	0	0	0	612	1021	0	387	0	0	
11	0	0	0	0	636	1022	0	412	0	0	
12	0	0	0	0	660	1021	0	436	0	0	
13	0	0	0	0	684	1021	0	456	0	0	
14	0	0	0	0	703	1022	0	471	0	0	
15	0	0	0	0	719	1021	0	478	0	0	
0	0	0	0	0	728	1021	0	478	0	0	
1	0	0	0	0	731	1021	0	469	0	0	
2	0	0	0	0	724	1021	0	453	0	0	
3	0	0	0	0	710	1022	0	431	0	0	
4	0	0	0	0	690	1021	0	404	0	0	
5	0	0	0	0	664	1021	0	377	0	0	
6	0	0	0	0	637	1021	0	352	0	0	
7	0	0	0	0	608	1021	0	332	0	0	
8	0	0	0	0	582	1021	0	316	0	0	
9	0	0	0	0	560	1021	0	307	0	0	
10	0	0	0	0	544	1021	0	306	0	0	
11	0	0	0	0	536	1021	0	313	0	0	
12	0	0	0	0	537	1021	0	327	0	0	
13	0	0	0	0	547	1021	0	347	0	0	
14	0	0	0	0	564	1021	0	371	0	0	
15	0	0	0	0	587	1021	0	395	0	0	
0	0	0	0	0	613	1021	0	419	0	0	
1	0	0	0	0	640	1021	0	439	0	0	
2	0	0	0	0	667	1021	0	452	0	0	
3	0	0	0	0	689	1021	0	461	0	0	
4	0	0	0	0	706	1021	0	461	0	0	
5	0	0	0	0	716	1021	0	453	0	0	
6	0	0	0	0	718	1021	0	439	0	0	
7	0	0	0	0	711	1022	0	418	0	0	
8	0	0	0	0	699	1021	0	393	0	0	
9	0	0	0	0	680	1021	0	368	0	0	
10	0	0	0	0	659	1021	0	344	0	0	
11	0	0	0	0	636	1021	0	325	0	0	
12	0	0	0	0	613	1021	0	311	0	0	
13	0	0	0	0	594	1021	0	304	0	0	
14	0	0	0	0	579	1021	0	305	0	0	
15	0	0	0	0	569	1021	0	313	0	0	
0	0	0	0	0	568	1021	0	329	0	0	
1	0	0	0	0	572	1021	0	349	0	0	
2	0	0	0	0	584	1021	0	372	0	0	
3	0	0	0	0	600	1021	0	395	0	0	
4	0	0	0	0	619	1021	0	415	0	0	
5	0	0	0	0	638	1021	0	431	0	0	
6	0	0	0	0	655	1022	0	439	0	0	
7	0	0	0	0	671	1021	0	440	0	0	
8	0	0	0	0	680	1021	0	432	0	0	
9	0	0	0	0	684	1022	0	417	0	0	
10	0	0	0	0	682	1021	0	396	0	0	
11	0	0	0	0	674	1022	0	370	0	0	
12	0	0	0	0	662	1021	0	342	0	0	
13	0	0	0	0	646	1021	0	316	0	0	
14	0	0	0	0	629	1021	0	294	0	0	
15	0	0	0	0	612	1022	0	278	0	0	
0	0	0	0	0	597	1021	0	269	0	0	
1	0	0	0	0	587	1021	0	269	0	0	
2	0	0	0	0	580	1021	0	277	0	0	
3	0	0	0	0	579	1021	0	292	0	0	
4	0	0	0	0	582	1021	0	314	0	0	
5	0	0	0	0	591	1022	0	341	0	0	
6	0	0	0	0	604	1021	0	369	0	0	
7	0	0	0	0	619	1021	0	397	0	0	
8	0	0	0	0	635	1021	0	421	0	0	
9	0	0	0	0	650	1021	0	440	0	0	
10	0	0	0	0	664	1022	0	452	0	0	
11	0	0	0	0	675	1021	0	457	0	0	
12	0	0	0	0	682	1021	0	454	0	0	
13	0	0	0	0	682	1021	0	443	0	0	
14	0	0	0	0	674	1021	0	425	0	0	
15	0	0	0	0	659	1021	0	400	0	0	
0	0	0	0	0	638	1021	0	374	0	0	
1	0	0	0	0	611	1021	0	346	0	0	
2	0	0	0	0	584	1021	0	320	0	0	
3	0	0	0	0	558	1021	0	298	0	0	
4	0	0	0	0	537	1021	0	281	0	0	
5	0	0	0	0	524	1021	0	271	0	0	
6	0	0	0	0	520	1021	0	271	0	0	
7	0	0	0	0	527	1021	0	279	0	0	
8	0	0	0	0	544	1021	0	295	0	0	
9	0	0	0	0	569	1022	0	321	0	0	
10	0	0	0	0	600	1021	0	351	0	0	
11	0	0	0	0	635	1021	0	385	0	0	
12	0	0	0	0	670	1021	0	418	0	0	
13	0	0	0	0	701	1022	0	448	0	0	
14	0	0	0	0	727	1022	0	472	0	0	
15	0	0	0	0	747	1021	0	489	0	0	
0	0	0	0	0	756	1021	0	496	0	0	
1	0	0	0	0	757	1021	0	494	0	0	
2	0	0	0	0	747	1022	0	481	0	0	
3	0	0	0	0	729	1021	0	460	0	0	
4	0	0	0	0	705	1021	0	435	0	0	
5	0	0	0	0	676	1021	0	406	0	0	
6	0	0	0	0	644	1021	0	377	0	0	
7	0	0	0	0	614	1022	0	353	0	0	
8	0	0	0	0	587	1022	0	333	0	0	
9	0	0	0	0	564	1021	0	319	0	0	
10	0	0	0	0	550	1021	0	313	0	0	
11	0	0	0	0	543	1021	0	316	0	0	
12	0	0	0	0	546	1021	0	327	0	0	
13	0	0	0	0	556	1022	0	343	0	0	
14	0	0	0	0	572	1021	0	362	0	0	
15	0	0	0	0	591	1021	0	383	0	0	
0	0	0	0	0	611	1021	0	402	0	0	
1	0	0	0	0	630	1022	0	419	0	0	
2	0	0	0	0	647	1022	0	429	0	0	
3	0	0	0	0	662	1021	0	433	0	0	
4	0	0	0	0	671	1021	0	431	0	0	
5	0	0	0	0	673	1021	0	421	0	0	
6	0	0	0	0	670	1021	0	404	0	0	
7	0	0	0	0	660	1021	0	382	0	0	
8	0	0	0	0	647	1021	0	359	0	0	
9	0	0	0	0	631	1021	0	335	0	0	
10	0	0	0	0	613	1021	0	313	0	0	
11	0	0	0	0	596	1022	0	297	0	0	
12	0	0	0	0	582	1022	0	286	0	0	
13	0	0	0	0	572	1021	0	282	0	0	
14	0	0	0	0	566	1021	0	286	0	0	
15	0	0	0	0	566	1021	0	298	0	0	
0	0	0	0	0	573	1021	0	317	0	0	
1	0	0	0	0	584	1022	0	344	0	0	
2	0	0	0	0	602	1021	0	371	0	0	
3	0	0	0	0	621	1021	0	400	0	0	
4	0	0	0	0	641	1021	0	425	0	0	
5	0	0	0	0	660	1021	0	444	0	0	
6	0	0	0	0	676	1022	0	456	0	0	
7	0	0	0	0	689	1021	0	460	0	0	
8	0	0	0	0	696	1021	0	456	0	0	
9	0	0	0	0	697	1021	0	444	0	0	
10	0	0	0	0	692	1021	0	424	0	0	
11	0	0	0	0	680	1022	0	398	0	0	
12	0	0	0	0	664	1021	0	369	0	0	
13	0	0	0	0	644	1021	0	341	0	0	
14	0	0	0	0	624	1021	0	315	0	0	
15	0	0	0	0	603	1021	0	293	0	0	
0	0	0	0	0	584	1021	0	278	0	0	
1	0	0	0	0	571	1021	0	271	0	0	
2	0	0	0	0	562	1021	0	272	0	0	
3	0	0	0	0	558	1021	0	281	0	0	
4	0	0	0	0	560	1022	0	299	0	0	
5	0	0	0	0	568	1022	0	323	0	0	
6	0	0	0	0	582	1021	0	350	0	0	
7	0	0	0	0	600	1021	0	379	0	0	
8	0	0	0	0	619	1022	0	406	0	0	
9	0	0	0	0	639	1021	0	429	0	0	
10	0	0	0	0	658	1022	0	445	0	0	
11	0	0	0	0	675	1021	0	454	0	0	
12	0	0	0	0	686	1021	0	454	0	0	
13	0	0	0	0	691	1021	0	445	0	0	
14	0	0	0	0	687	1022	0	428	0	0	
15	0	0	0	0	675	1021	0	404	0	0	
0	0	0	0	0	655	1021	0	377	0	0	
1	0	0	0	0	629	1021	0	348	0	0	
2	0	0	0	0	600	1021	0	320	0	0	
3	0	0	0	0	573	1021	0	297	0	0	
4	0	0	0	0	550	1022	0	279	0	0	
5	0	0	0	0	535	1021	0	267	0	0	
6	0	0	0	0	529	1021	0	265	0	0	
7	0	0	0	0	531	1021	0	270	0	0	
8	0	0	0	0	543	1021	0	283	0	0	
9	0	0	0	0	562	1022	0	303	0	0	
10	0	0	0	0	588	1021	0	328	0	0	
11	0	0	0	0	616	1021	0	354	0	0	
12	0	0	0	0	646	1021	0	379	0	0	
13	0	0	0	0	672	1022	0	399	0	0	
14	0	0	0	0	695	1021	0	413	0	0	
15	0	0	0	0	714	1021	0	420	0	0	
0	0	0	0	0	724	1021	0	419	0	0	
1	0	0	0	0	727	1021	0	409	0	0	
2	0	0	0	0	721	1021	0	392	0	0	
3	0	0	0	0	707	1021	0	368	0	0	
4	0	0	0	0	688	1021	0	341	0	0	
5	0	0	0	0	664	1021	0	312	0	0	
6	0	0	0	0	637	1021	0	285	0	0	
7	0	0	0	0	609	1021	0	263	0	0	
8	0	0	0	0	583	1022	0	246	0	0	
9	0	0	0	0	563	1021	0	235	0	0	
10	0	0	0	0	548	1021	0	233	0	0	
11	0	0	0	0	540	1021	0	241	0	0	
12	0	0	0	0	540	1021	0	257	0	0	
13	0	0	0	0	548	1021	0	280	0	0	
14	0	0	0	0	563	1021	0	307	0	0	
15	0	0	0	0	583	1021	0	336	0	0	
0	0	0	0	0	605	1021	0	363	0	0	
1	0	0	0	0	627	1021	0	386	0	0	
2	0	0	0	0	648	1022	0	403	0	0	
3	0	0	0	0	666	1021	0	411	0	0	
4	0	0	0	0	679	1021	0	411	0	0	
5	0	0	0	0	686	1021	0	401	0	0	
6	0	0	0	0	684	1022	0	383	0	0	
7	0	0	0	0	678	1021	0	357	0	0	
8	0	0	0	0	666	1021	0	328	0	0	
9	0	0	0	0	650	1021	0	298	0	0	
10	0	0	0	0	633	1021	0	271	0	0	
11	0	0	0	0	616	1021	0	249	0	0	
12	0	0	0	0	601	1022	0	233	0	0	
13	0	0	0	0	590	1021	0	225	0	0	
14	0	0	0	0	583	1021	0	226	0	0	
15	0	0	0	0	581	1021	0	236	0	0	
0	0	0	0	0	584	1021	0	253	0	0	
1	0	0	0	0	592	1021	0	279	0	0	
2	0	0	0	0	606	1021	0	309	0	0	
3	0	0	0	0	623	1021	0	342	0	0	
4	0	0	0	0	640	1021	0	373	0	0	
5	0	0	0	0	658	1021	0	400	0	0	
6	0	0	0	0	673	1021	0	420	0	0	
7	0	0	0	0	686	1021	0	432	0	0	
8	0	0	0	0	692	1021	0	434	0	0	
9	0	0	0	0	694	1021	0	426	0	0	
10	0	0	0	0	690	1021	0	408	0	0	
11	0	0	0	0	679	1022	0	384	0	0	
12	0	0	0	0	664	1021	0	354	0	0	
13	0	0	0	0	646	1021	0	323	0	0	
14	0	0	0	0	627	1021	0	293	0	0	
15	0	0	0	0	607	1021	0	268	0	0	
0	0	0	0	0	589	1021	0	248	0	0	
1	0	0	0	0	575	1021	0	236	0	0	
2	0	0	0	0	566	1021	0	232	0	0	
3	0	0	0	0	563	1021	0	237	0	0	
4	0	0	0	0	566	1021	0	251	0	0	
5	0	0	0	0	575	1021	0	271	0	0	
6	0	0	0	0	588	1021	0	295	0	0	
7	0	0	0	0	604	1021	0	322	0	0	
8	0	0	0	0	622	1021	0	348	0	0	
9	0	0	0	0	639	1021	0	369	0	0	
10	0	0	0	0	655	1022	0	386	0	0	
11	0	0	0	0	668	1021	0	395	0	0	
12	0	0	0	0	677	1021	0	396	0	0	
13	0	0	0	0	680	1021	0	389	0	0	
14	0	0	0	0	678	1021	0	374	0	0	
15	0	0	0	0	670	1021	0	351	0	0	
0	0	0	0	0	658	1021	0	326	0	0	
1	0	0	0	0	643	1021	0	299	0	0	
2	0	0	0	0	626	1021	0	274	0	0	
3	0	0	0	0	609	1021	0	253	0	0	
4	0	0	0	0	594	1022	0	239	0	0	
5	0	0	0	0	583	1021	0	231	0	0	
6	0	0	0	0	576	1021	0	231	0	0	
7	0	0	0	0	575	1021	0	240	0	0	
8	0	0	0	0	579	1021	0	257	0	0	
9	0	0	0	0	590	1022	0	281	0	0	
10	0	0	0	0	606	1021	0	308	0	0	
11	0	0	0	0	625	1021	0	336	0	0	
12	0	0	0	0	646	1021	0	363	0	0	
13	0	0	0	0	666	1021	0	385	0	0	
14	0	0	0	0	683	1021	0	401	0	0	
15	0	0	0	0	698	1021	0	408	0	0	
0	0	0	0	0	706	1021	0	408	0	0	
1	0	0	0	0	708	1021	0	397	0	0	
2	0	0	0	0	702	1021	0	377	0	0	
3	0	0	0	0	689	1022	0	351	0	0	
4	0	0	0	0	671	1021	0	320	0	0	
5	0	0	0	0	647	1021	0	289	0	0	
6	0	0	0	0	623	1021	0	258	0	0	
7	0	0	0	0	598	1021	0	232	0	0	
8	0	0	0	0	574	1021	0	212	0	0	
9	0	0	0	0	555	1021	0	199	0	0	
10	0	0	0	0	540	1021	0	195	0	0	
11	0	0	0	0	534	1021	0	199	0	0	
12	0	0	0	0	535	1021	0	212	0	0	
13	0	0	0	0	544	1022	0	233	0	0	
14	0	0	0	0	560	1021	0	259	0	0	
15	0	0	0	0	582	1021	0	289	0	0	
0	0	0	0	0	606	1021	0	319	0	0	
1	0	0	0	0	631	1021	0	347	0	0	
2	0	0	0	0	655	1021	0	369	0	0	
3	0	0	0	0	677	1021	0	385	0	0	
4	0	0	0	0	692	1021	0	392	0	0	
5	0	0	0	0	703	1021	0	391	0	0	
6	0	0	0	0	705	1021	0	381	0	0	
7	0	0	0	0	700	1021	0	362	0	0	
8	0	0	0	0	688	1021	0	338	0	0	
9	0	0	0	0	671	1021	0	311	0	0	
10	0	0	0	0	651	1021	0	285	0	0	
11	0	0	0	0	627	1021	0	261	0	0	
12	0	0	0	0	605	1022	0	241	0	0	
13	0	0	0	0	586	1021	0	228	0	0	
14	0	0	0	0	571	1021	0	223	0	0	
15	0	0	0	0	562	1021	0	226	0	0	
0	0	0	0	0	560	1021	0	237	0	0	
1	0	0	0	0	565	1021	0	255	0	0	
2	0	0	0	0	577	1021	0	279	0	0	
3	0	0	0	0	592	1021	0	304	0	0	
4	0	0	0	0	612	1021	0	328	0	0	
5	0	0	0	0	631	1021	0	349	0	0	
6	0	0	0	0	650	1021	0	365	0	0	
7	0	0	0	0	667	1021	0	374	0	0	
8	0	0	0	0	679	1021	0	375	0	0	
9	0	0	0	0	686	1021	0	367	0	0	
10	0	0	0	0	687	1021	0	351	0	0	
11	0	0	0	0	681	1022	0	328	0	0	
12	0	0	0	0	670	1021	0	300	0	0	
13	0	0	0	0	653	1021	0	271	0	0	
14	0	0	0	0	634	1021	0	243	0	0	
15	0	0	0	0	613	1021	0	219	0	0	
0	0	0	0	0	592	1021	0	201	0	0	
1	0	0	0	0	576	1021	0	190	0	0	
2	0	0	0	0	563	1021	0	187	0	0	
3	0	0	0	0	555	1021	0	192	0	0	
4	0	0	0	0	552	1021	0	206	0	0	
5	0	0	0	0	556	1021	0	226	0	0	
6	0	0	0	0	568	1021	0	252	0	0	
7	0	0	0	0	583	1021	0	279	0	0	
8	0	0	0	0	601	1021	0	305	0	0	
9	0	0	0	0	621	1021	0	328	0	0	
10	0	0	0	0	640	1021	0	346	0	0	
11	0	0	0	0	659	1021	0	356	0	0	
12	0	0	0	0	673	1021	0	359	0	0	
13	0	0	0	0	683	1021	0	353	0	0	
14	0	0	0	0	687	1021	0	339	0	0	
15	0	0	0	0	685	1022	0	319	0	0	
0	0	0	0	0	678	1021	0	294	0	0	
1	0	0	0	0	666	1021	0	268	0	0	
2	0	0	0	0	650	1022	0	243	0	0	
3	0	0	0	0	635	1021	0	221	0	0	
4	0	0	0	0	617	1022	0	206	0	0	
5	0	0	0	0	603	1021	0	195	0	0	
6	0	0	0	0	591	1021	0	193	0	0	
7	0	0	0	0	583	1021	0	199	0	0	
8	0	0	0	0	582	1021	0	212	0	0	
9	0	0	0	0	586	1021	0	231	0	0	
10	0	0	0	0	596	1021	0	255	0	0	
11	0	0	0	0	610	1021	0	281	0	0	
12	0	0	0	0	627	1021	0	305	0	0	
13	0	0	0	0	645	1021	0	327	0	0	
14	0	0	0	0	662	1022	0	342	0	0	
15	0	0	0	0	679	1021	0	350	0	0	
0	0	0	0	0	691	1021	0	350	0	0	
1	0	0	0	0	696	1022	0	340	0	0	
2	0	0	0	0	697	1021	0	323	0	0	
3	0	0	0	0	692	1022	0	298	0	0	
4	0	0	0	0	682	1021	0	268	0	0	
5	0	0	0	0	667	1021	0	239	0	0	
6	0	0	0	0	651	1021	0	212	0	0	
7	0	0	0	0	635	1021	0	191	0	0	
8	0	0	0	0	620	1021	0	176	0	0	
9	0	0	0	0	610	1021	0	170	0	0	
10	0	0	0	0	604	1021	0	172	0	0	
11	0	0	0	0	603	1021	0	183	0	0	
12	0	0	0	0	607	1021	0	202	0	0	
13	0	0	0	0	616	1022	0	227	0	0	
14	0	0	0	0	631	1021	0	255	0	0	
15	0	0	0	0	647	1021	0	284	0	0	
0	0	0	0	0	665	1022	0	310	0	0	
1	0	0	0	0	683	1021	0	332	0	0	
2	0	0	0	0	697	1022	0	347	0	0	
3	0	0	0	0	710	1021	0	353	0	0	
4	0	0	0	0	717	1021	0	351	0	0	
5	0	0	0	0	719	1021	0	340	0	0	
6	0	0	0	0	716	1021	0	321	0	0	
7	0	0	0	0	707	1021	0	295	0	0	
8	0	0	0	0	694	1021	0	265	0	0	
9	0	0	0	0	676	1021	0	234	0	0	
10	0	0	0	0	657	1021	0	204	0	0	
11	0	0	0	0	638	1021	0	178	0	0	
12	0	0	0	0	619	1021	0	158	0	0	
13	0	0	0	0	605	1021	0	145	0	0	
14	0	0	0	0	595	1021	0	140	0	0	
15	0	0	0	0	591	1021	0	145	0	0	
0	0	0	0	0	593	1021	0	157	0	0	
1	0	0	0	0	600	1021	0	174	0	0	
2	0	0	0	0	612	1021	0	196	0	0	
3	0	0	0	0	626	1021	0	220	0	0	
4	0	0	0	0	643	1021	0	241	0	0	
5	0	0	0	0	659	1021	0	260	0	0	
6	0	0	0	0	674	1022	0	275	0	0	
7	0	0	0	0	688	1021	0	283	0	0	
8	0	0	0	0	697	1021	0	285	0	0	
9	0	0	0	0	703	1022	0	281	0	0	
10	0	0	0	0	703	1021	0	270	0	0	
11	0	0	0	0	697	1022	0	253	0	0	
12	0	0	0	0	686	1021	0	231	0	0	
13	0	0	0	0	670	1021	0	207	0	0	
14	0	0	0	0	651	1021	0	182	0	0	
15	0	0	0	0	629	1022	0	158	0	0	
0	0	0	0	0	607	1021	0	136	0	0	
1	0	0	0	0	587	1021	0	119	0	0	
2	0	0	0	0	569	1021	0	108	0	0	
3	0	0	0	0	556	1021	0	103	0	0	
4	0	0	0	0	548	1021	0	105	0	0	
5	0	0	0	0	546	1022	0	114	0	0	
6	0	0	0	0	548	1021	0	126	0	0	
7	0	0	0	0	554	1021	0	140	0	0	
8	0	0	0	0	560	1021	0	153	0	0	
9	0	0	0	0	567	1021	0	163	0	0	
10	0	0	0	0	571	1022	0	167	0	0	
11	0	0	0	0	574	1021	0	166	0	0	
12	0	0	0	0	573	1021	0	156	0	0	
13	0	0	0	0	568	1021	0	138	0	0	
14	0	0	0	0	558	1021	0	112	0	0	
15	0	0	0	0	542	1021	0	80	0	0	
0	0	0	0	0	523	1021	0	44	0	0	
1	0	0	0	0	500	1021	0	7	0	0	
2	0	0	0	0	475	1021	0	0	0	0	
3	0	0	0	0	449	1021	0	0	0	0	
4	0	0	0	0	423	1021	0	0	0	0	
5	0	0	0	0	403	1021	0	0	0	0	
6	0	0	0	0	388	1021	0	0	0	0	
7	0	0	0	0	380	1021	0	0	0	0	
8	0	0	0	0	381	1021	0	0	0	0	
9	0	0	0	0	391	1022	0	0	0	0	
10	0	0	0	0	410	1021	0	0	0	0	
11	0	0	0	0	437	1021	0	0	0	0	
12	0	0	0	0	470	1021	0	0	0	0	
13	0	0	0	0	507	1021	0	7	0	0	
14	0	0	0	0	545	1022	0	23	0	0	
15	0	0	0	0	583	1021	0	44	0	0	
0	0	0	0	0	619	1021	0	68	0	0	
1	0	0	0	0	648	1021	0	92	0	0	
2	0	0	0	0	670	1022	0	115	0	0	
3	0	0	0	0	687	1022	0	135	0	0	
4	0	0	0	0	696	1021	0	150	0	0	
5	0	0	0	0	696	1021	0	162	0	0	
6	0	0	0	0	691	1021	0	170	0	0	
7	0	0	0	0	679	1021	0	175	0	0	
8	0	0	0	0	664	1021	0	177	0	0	
9	0	0	0	0	648	1021	0	179	0	0	
10	0	0	0	0	631	1021	0	180	0	0	
11	0	0	0	0	617	1021	0	183	0	0	
12	0	0	0	0	606	1021	0	186	0	0	
13	0	0	0	0	600	1022	0	192	0	0	
14	0	0	0	0	600	1021	0	199	0	0	
15	0	0	0	0	604	1021	0	208	0	0	
0	0	0	0	0	612	1021	0	216	0	0	
1	0	0	0	0	625	1021	0	224	0	0	
2	0	0	0	0	639	1021	0	230	0	0	
3	0	0	0	0	655	1021	0	233	0	0	
4	0	0	0	0	669	1021	0	234	0	0	
5	0	0	0	0	681	1021	0	231	0	0	
6	0	0	0	0	689	1021	0	223	0	0	
7	0	0	0	0	692	1021	0	211	0	0	
8	0	0	0	0	690	1021	0	197	0	0	
9	0	0	0	0	683	1021	0	182	0	0	
10	0	0	0	0	673	1021	0	168	0	0	
11	0	0	0	0	660	1021	0	157	0	0	
12	0	0	0	0	646	1022	0	151	0	0	
13	0	0	0	0	633	1021	0	148	0	0	
14	0	0	0	0	622	1021	0	152	0	0	
15	0	0	0	0	614	1021	0	162	0	0	
0	0	0	0	0	610	1021	0	178	0	0	
1	0	0	0	0	611	1022	0	197	0	0	
2	0	0	0	0	617	1021	0	219	0	0	
3	0	0	0	0	626	1021	0	241	0	0	
4	0	0	0	0	637	1021	0	261	0	0	
5	0	0	0	0	650	1021	0	277	0	0	
6	0	0	0	0	662	1022	0	287	0	0	
7	0	0	0	0	674	1021	0	291	0	0	
8	0	0	0	0	683	1021	0	289	0	0	
9	0	0	0	0	687	1021	0	279	0	0	
10	0	0	0	0	687	1021	0	263	0	0	
11	0	0	0	0	682	1021	0	240	0	0	
12	0	0	0	0	673	1021	0	214	0	0	
13	0	0	0	0	660	1021	0	188	0	0	
14	0	0	0	0	644	1021	0	163	0	0	
15	0	0	0	0	628	1021	0	143	0	0	
0	0	0	0	0	612	1021	0	128	0	0	
1	0	0	0	0	600	1021	0	122	0	0	
2	0	0	0	0	590	1021	0	124	0	0	
3	0	0	0	0	585	1021	0	134	0	0	
4	0	0	0	0	585	1021	0	152	0	0	
5	0	0	0	0	591	1022	0	177	0	0	
6	0	0	0	0	604	1021	0	207	0	0	
7	0	0	0	0	620	1021	0	239	0	0	
8	0	0	0	0	638	1021	0	268	0	0	
9	0	0	0	0	657	1021	0	294	0	0	
10	0	0	0	0	675	1022	0	313	0	0	
11	0	0	0	0	692	1021	0	325	0	0	
12	0	0	0	0	704	1021	0	329	0	0	
13	0	0	0	0	713	1021	0	323	0	0	
14	0	0	0	0	714	1022	0	311	0	0	
15	0	0	0	0	711	1022	0	292	0	0	
0	0	0	0	0	703	1021	0	268	0	0	
1	0	0	0	0	691	1021	0	243	0	0	
2	0	0	0	0	675	1021	0	219	0	0	
3	0	0	0	0	659	1021	0	198	0	0	
4	0	0	0	0	642	1022	0	183	0	0	
5	0	0	0	0	628	1021	0	174	0	0	
6	0	0	0	0	618	1021	0	172	0	0	
7	0	0	0	0	611	1021	0	178	0	0	
8	0	0	0	0	610	1021	0	191	0	0	
9	0	0	0	0	612	1021	0	208	0	0	
10	0	0	0	0	619	1021	0	228	0	0	
11	0	0	0	0	627	1021	0	249	0	0	
12	0	0	0	0	637	1021	0	268	0	0	
13	0	0	0	0	646	1021	0	282	0	0	
14	0	0	0	0	655	1022	0	292	0	0	
15	0	0	0	0	661	1021	0	295	0	0	
0	0	0	0	0	664	1021	0	291	0	0	
1	0	0	0	0	664	1022	0	281	0	0	
2	0	0	0	0	661	1021	0	266	0	0	
3	0	0	0	0	655	1022	0	246	0	0	
4	0	0	0	0	647	1021	0	224	0	0	
5	0	0	0	0	638	1021	0	204	0	0	
6	0	0	0	0	629	1021	0	187	0	0	
7	0	0	0	0	621	1021	0	175	0	0	
8	0	0	0	0	614	1021	0	168	0	0	
9	0	0	0	0	611	1021	0	167	0	0	
10	0	0	0	0	609	1021	0	174	0	0	
11	0	0	0	0	611	1021	0	188	0	0	
12	0	0	0	0	617	1021	0	207	0	0	
13	0	0	0	0	626	1021	0	230	0	0	
14	0	0	0	0	638	1021	0	255	0	0	
15	0	0	0	0	650	1021	0	281	0	0	
0	0	0	0	0	663	1021	0	303	0	0	
1	0	0	0	0	674	1021	0	319	0	0	
2	0	0	0	0	683	1022	0	330	0	0	
3	0	0	0	0	689	1021	0	334	0	0	
4	0	0	0	0	691	1021	0	329	0	0	
5	0	0	0	0	689	1021	0	318	0	0	
6	0	0	0	0	682	1021	0	299	0	0	
7	0	0	0	0	670	1021	0	275	0	0	
8	0	0	0	0	656	1021	0	249	0	0	
9	0	0	0	0	639	1021	0	222	0	0	
10	0	0	0	0	622	1021	0	197	0	0	
11	0	0	0	0	605	1021	0	176	0	0	
12	0	0	0	0	590	1022	0	161	0	0	
13	0	0	0	0	579	1021	0	151	0	0	
14	0	0	0	0	572	1021	0	151	0	0	
15	0	0	0	0	570	1021	0	157	0	0	
0	0	0	0	0	573	1022	0	173	0	0	
1	0	0	0	0	582	1022	0	193	0	0	
2	0	0	0	0	595	1021	0	217	0	0	
3	0	0	0	0	611	1021	0	243	0	0	
4	0	0	0	0	628	1021	0	268	0	0	
5	0	0	0	0	644	1021	0	287	0	0	
6	0	0	0	0	659	1021	0	302	0	0	
7	0	0	0	0	671	1021	0	309	0	0	
8	0	0	0	0	678	1021	0	309	0	0	
9	0	0	0	0	680	1021	0	301	0	0	
10	0	0	0	0	677	1021	0	286	0	0	
11	0	0	0	0	669	1021	0	265	0	0	
12	0	0	0	0	657	1021	0	241	0	0	
13	0	0	0	0	642	1021	0	216	0	0	
14	0	0	0	0	625	1021	0	192	0	0	
15	0	0	0	0	608	1021	0	172	0	0	
0	0	0	0	0	593	1021	0	157	0	0	
1	0	0	0	0	581	1021	0	149	0	0	
2	0	0	0	0	572	1021	0	148	0	0	
3	0	0	0	0	569	1022	0	156	0	0	
4	0	0	0	0	572	1021	0	170	0	0	
5	0	0	0	0	580	1021	0	191	0	0	
6	0	0	0	0	592	1021	0	215	0	0	
7	0	0	0	0	609	1021	0	242	0	0	
8	0	0	0	0	627	1022	0	267	0	0	
9	0	0	0	0	646	1021	0	289	0	0	
10	0	0	0	0	663	1022	0	305	0	0	
11	0	0	0	0	678	1021	0	313	0	0	
12	0	0	0	0	687	1021	0	315	0	0	
13	0	0	0	0	691	1021	0	307	0	0	
14	0	0	0	0	689	1022	0	292	0	0	
15	0	0	0	0	680	1021	0	270	0	0	
0	0	0	0	0	666	1021	0	244	0	0	
1	0	0	0	0	647	1021	0	216	0	0	
2	0	0	0	0	627	1021	0	189	0	0	
3	0	0	0	0	606	1021	0	165	0	0	
4	0	0	0	0	586	1022	0	145	0	0	
5	0	0	0	0	569	1021	0	132	0	0	
6	0	0	0	0	558	1021	0	127	0	0	
7	0	0	0	0	551	1021	0	129	0	0	
8	0	0	0	0	551	1021	0	140	0	0	
9	0	0	0	0	558	1022	0	158	0	0	
10	0	0	0	0	571	1021	0	181	0	0	
11	0	0	0	0	589	1021	0	208	0	0	
12	0	0	0	0	609	1021	0	235	0	0	
13	0	0	0	0	631	1021	0	261	0	0	
14	0	0	0	0	651	1021	0	282	0	0	
15	0	0	0	0	670	1021	0	297	0	0	
0	0	0	0	0	683	1021	0	306	0	0	
1	0	0	0	0	691	1021	0	306	0	0	
2	0	0	0	0	691	1021	0	297	0	0	
3	0	0	0	0	684	1021	0	281	0	0	
4	0	0	0	0	671	1021	0	259	0	0	
5	0	0	0	0	652	1021	0	233	0	0	
6	0	0	0	0	628	1021	0	207	0	0	
7	0	0	0	0	603	1021	0	183	0	0	
8	0	0	0	0	577	1021	0	161	0	0	
9	0	0	0	0	555	1021	0	146	0	0	
10	0	0	0	0	536	1021	0	138	0	0	
11	0	0	0	0	524	1021	0	138	0	0	
12	0	0	0	0	518	1021	0	147	0	0	
13	0	0	0	0	520	1021	0	162	0	0	
14	0	0	0	0	530	1021	0	184	0	0	
15	0	0	0	0	545	1021	0	208	0	0	
0	0	0	0	0	563	1021	0	233	0	0	
1	0	0	0	0	585	1021	0	255	0	0	
2	0	0	0	0	605	1021	0	273	0	0	
3	0	0	0	0	626	1021	0	286	0	0	
4	0	0	0	0	641	1021	0	291	0	0	
5	0	0	0	0	652	1021	0	287	0	0	
6	0	0	0	0	656	1022	0	276	0	0	
7	0	0	0	0	653	1021	0	258	0	0	
8	0	0	0	0	645	1021	0	235	0	0	
9	0	0	0	0	630	1021	0	210	0	0	
10	0	0	0	0	612	1021	0	185	0	0	
11	0	0	0	0	592	1021	0	163	0	0	
12	0	0	0	0	573	1021	0	145	0	0	
13	0	0	0	0	555	1021	0	133	0	0	
