# OpenSignals Text File Format. Version 1
# {"": {"position": 0, "device": "", "device name": "", "device connection": "", "sampling rate": 1000, "resolution": [4, 1, 1, 1, 1, 10, 10, 10, 10, 6, 6], "firmware version": 1281, "comments": "", "keywords": "", "mode": 0, "sync interval": 2, "date": "", "time": "", "channels": [1, 2, 3, 4, 5, 6], "sensor": ["RAW", "RAW", "RAW", "RAW", "RAW", "RAW"], "label": ["A1", "A2", "A3", "A4", "A5", "A6"], "column": ["nSeq", "I1", "I2", "O1", "O2", "A1", "A2", "A3", "A4", "A5", "A6"], "special": [{}, {}, {}, {}, {}, {}], "digital IO": [0, 0, 1, 1]}}
# EndOfHeader
0	0	0	0	0	615	545	0	0	0	0	
1	0	0	0	0	617	547	0	0	0	0	
2	0	0	0	0	615	548	0	0	0	0	
3	0	0	0	0	614	547	0	0	0	0	
4	0	0	0	0	608	544	0	0	0	0	
5	0	0	0	0	602	540	0	0	0	0	
6	0	0	0	0	594	534	0	0	0	0	
7	0	0	0	0	585	527	0	0	0	0	
8	0	0	0	0	575	519	0	0	0	0	
9	0	0	0	0	567	512	0	0	0	0	
10	0	0	0	0	558	505	0	0	0	0	
11	0	0	0	0	550	498	0	0	0	0	
12	0	0	0	0	543	492	0	0	0	0	
13	0	0	0	0	537	487	0	0	0	0	
14	0	0	0	0	533	483	0	0	0	0	
15	0	0	0	0	532	482	0	0	0	0	
0	0	0	0	0	533	482	0	0	0	0	
1	0	0	0	0	539	487	0	0	0	0	
2	0	0	0	0	547	494	0	0	0	0	
3	0	0	0	0	559	504	0	0	0	0	
4	0	0	0	0	575	517	0	0	0	0	
5	0	0	0	0	590	531	0	0	0	0	
6	0	0	0	0	604	544	0	0	0	0	
7	0	0	0	0	617	556	0	0	0	0	
8	0	0	0	0	627	563	0	0	0	0	
9	0	0	0	0	631	568	0	0	0	0	
10	0	0	0	0	630	568	0	0	0	0	
11	0	0	0	0	624	563	0	0	0	0	
12	0	0	0	0	614	556	0	0	0	0	
13	0	0	0	0	601	546	0	0	0	0	
14	0	0	0	0	586	534	0	0	0	0	
15	0	0	0	0	569	519	0	0	0	0	
0	0	0	0	0	551	503	0	0	0	0	
1	0	0	0	0	534	488	0	0	0	0	
2	0	0	0	0	519	475	0	0	0	0	
3	0	0	0	0	508	464	0	0	0	0	
4	0	0	0	0	500	456	0	0	0	0	
5	0	0	0	0	498	453	0	0	0	0	
6	0	0	0	0	500	453	0	0	0	0	
7	0	0	0	0	507	457	0	0	0	0	
8	0	0	0	0	517	464	0	0	0	0	
9	0	0	0	0	528	472	0	0	0	0	
10	0	0	0	0	539	480	0	0	0	0	
11	0	0	0	0	550	487	0	0	0	0	
12	0	0	0	0	558	493	0	0	0	0	
13	0	0	0	0	563	497	0	0	0	0	
14	0	0	0	0	565	498	0	0	0	0	
15	0	0	0	0	563	497	0	0	0	0	
0	0	0	0	0	560	496	0	0	0	0	
1	0	0	0	0	554	491	0	0	0	0	
2	0	0	0	0	547	487	0	0	0	0	
3	0	0	0	0	538	480	0	0	0	0	
4	0	0	0	0	528	474	0	0	0	0	
5	0	0	0	0	520	468	0	0	0	0	
6	0	0	0	0	513	463	0	0	0	0	
7	0	0	0	0	508	460	0	0	0	0	
8	0	0	0	0	505	457	0	0	0	0	
9	0	0	0	0	505	457	0	0	0	0	
10	0	0	0	0	508	460	0	0	0	0	
11	0	0	0	0	513	464	0	0	0	0	
12	0	0	0	0	522	472	0	0	0	0	
13	0	0	0	0	532	480	0	0	0	0	
14	0	0	0	0	543	489	0	0	0	0	
15	0	0	0	0	554	498	0	0	0	0	
0	0	0	0	0	563	504	0	0	0	0	
1	0	0	0	0	570	510	0	0	0	0	
2	0	0	0	0	574	513	0	0	0	0	
3	0	0	0	0	574	514	0	0	0	0	
4	0	0	0	0	573	513	0	0	0	0	
5	0	0	0	0	569	510	0	0	0	0	
6	0	0	0	0	564	507	0	0	0	0	
7	0	0	0	0	557	502	0	0	0	0	
8	0	0	0	0	550	497	0	0	0	0	
9	0	0	0	0	543	493	0	0	0	0	
10	0	0	0	0	537	488	0	0	0	0	
11	0	0	0	0	534	486	0	0	0	0	
12	0	0	0	0	531	483	0	0	0	0	
13	0	0	0	0	531	484	0	0	0	0	
14	0	0	0	0	535	486	0	0	0	0	
15	0	0	0	0	541	489	0	0	0	0	
0	0	0	0	0	550	496	0	0	0	0	
1	0	0	0	0	561	504	0	0	0	0	
2	0	0	0	0	574	512	0	0	0	0	
3	0	0	0	0	588	523	0	0	0	0	
4	0	0	0	0	601	531	0	0	0	0	
5	0	0	0	0	611	539	0	0	0	0	
6	0	0	0	0	619	544	0	0	0	0	
7	0	0	0	0	623	548	0	0	0	0	
8	0	0	0	0	624	551	0	0	0	0	
9	0	0	0	0	622	551	0	0	0	0	
10	0	0	0	0	618	551	0	0	0	0	
11	0	0	0	0	612	548	0	0	0	0	
12	0	0	0	0	605	546	0	0	0	0	
13	0	0	0	0	598	543	0	0	0	0	
14	0	0	0	0	589	538	0	0	0	0	
15	0	0	0	0	583	535	0	0	0	0	
0	0	0	0	0	577	532	0	0	0	0	
1	0	0	0	0	574	531	0	0	0	0	
2	0	0	0	0	573	531	0	0	0	0	
3	0	0	0	0	575	531	0	0	0	0	
4	0	0	0	0	580	535	0	0	0	0	
5	0	0	0	0	586	539	0	0	0	0	
6	0	0	0	0	593	542	0	0	0	0	
7	0	0	0	0	598	544	0	0	0	0	
8	0	0	0	0	600	543	0	0	0	0	
9	0	0	0	0	599	539	0	0	0	0	
10	0	0	0	0	593	532	0	0	0	0	
11	0	0	0	0	584	521	0	0	0	0	
12	0	0	0	0	573	510	0	0	0	0	
13	0	0	0	0	559	497	0	0	0	0	
14	0	0	0	0	545	486	0	0	0	0	
15	0	0	0	0	531	474	0	0	0	0	
0	0	0	0	0	519	464	0	0	0	0	
1	0	0	0	0	509	457	0	0	0	0	
2	0	0	0	0	502	453	0	0	0	0	
3	0	0	0	0	499	451	0	0	0	0	
4	0	0	0	0	499	454	0	0	0	0	
5	0	0	0	0	503	457	0	0	0	0	
6	0	0	0	0	510	463	0	0	0	0	
7	0	0	0	0	519	471	0	0	0	0	
8	0	0	0	0	529	478	0	0	0	0	
9	0	0	0	0	540	485	0	0	0	0	
10	0	0	0	0	548	491	0	0	0	0	
11	0	0	0	0	554	494	0	0	0	0	
12	0	0	0	0	559	496	0	0	0	0	
13	0	0	0	0	560	496	0	0	0	0	
14	0	0	0	0	560	495	0	0	0	0	
15	0	0	0	0	558	493	0	0	0	0	
0	0	0	0	0	555	490	0	0	0	0	
1	0	0	0	0	551	487	0	0	0	0	
2	0	0	0	0	547	485	0	0	0	0	
3	0	0	0	0	543	484	0	0	0	0	
4	0	0	0	0	542	484	0	0	0	0	
5	0	0	0	0	542	486	0	0	0	0	
6	0	0	0	0	545	490	0	0	0	0	
7	0	0	0	0	549	495	0	0	0	0	
8	0	0	0	0	556	501	0	0	0	0	
9	0	0	0	0	562	507	0	0	0	0	
10	0	0	0	0	568	513	0	0	0	0	
11	0	0	0	0	574	518	0	0	0	0	
12	0	0	0	0	578	522	0	0	0	0	
13	0	0	0	0	579	523	0	0	0	0	
14	0	0	0	0	577	521	0	0	0	0	
15	0	0	0	0	572	517	0	0	0	0	
0	0	0	0	0	566	510	0	0	0	0	
1	0	0	0	0	558	503	0	0	0	0	
2	0	0	0	0	547	492	0	0	0	0	
3	0	0	0	0	535	481	0	0	0	0	
4	0	0	0	0	522	468	0	0	0	0	
5	0	0	0	0	508	454	0	0	0	0	
6	0	0	0	0	493	441	0	0	0	0	
7	0	0	0	0	479	427	0	0	0	0	
8	0	0	0	0	464	412	0	0	0	0	
9	0	0	0	0	450	399	0	0	0	0	
10	0	0	0	0	436	387	0	0	0	0	
11	0	0	0	0	424	375	0	0	0	0	
12	0	0	0	0	412	364	0	0	0	0	
13	0	0	0	0	401	354	0	0	0	0	
14	0	0	0	0	391	344	0	0	0	0	
15	0	0	0	0	382	336	0	0	0	0	
0	0	0	0	0	373	327	0	0	0	0	
1	0	0	0	0	364	318	0	0	0	0	
2	0	0	0	0	355	308	0	0	0	0	
3	0	0	0	0	345	297	0	0	0	0	
4	0	0	0	0	335	286	0	0	0	0	
5	0	0	0	0	325	276	0	0	0	0	
6	0	0	0	0	317	267	0	0	0	0	
7	0	0	0	0	310	258	0	0	0	0	
8	0	0	0	0	305	253	0	0	0	0	
9	0	0	0	0	304	250	0	0	0	0	
10	0	0	0	0	307	251	0	0	0	0	
11	0	0	0	0	312	254	0	0	0	0	
12	0	0	0	0	322	261	0	0	0	0	
13	0	0	0	0	334	271	0	0	0	0	
14	0	0	0	0	351	285	0	0	0	0	
15	0	0	0	0	370	301	0	0	0	0	
0	0	0	0	0	391	320	0	0	0	0	
1	0	0	0	0	415	342	0	0	0	0	
2	0	0	0	0	440	366	0	0	0	0	
3	0	0	0	0	466	391	0	0	0	0	
4	0	0	0	0	494	417	0	0	0	0	
5	0	0	0	0	520	443	0	0	0	0	
6	0	0	0	0	545	467	0	0	0	0	
7	0	0	0	0	567	489	0	0	0	0	
8	0	0	0	0	587	509	0	0	0	0	
9	0	0	0	0	602	526	0	0	0	0	
10	0	0	0	0	613	539	0	0	0	0	
11	0	0	0	0	622	548	0	0	0	0	
12	0	0	0	0	625	555	0	0	0	0	
13	0	0	0	0	626	559	0	0	0	0	
14	0	0	0	0	624	560	0	0	0	0	
15	0	0	0	0	617	557	0	0	0	0	
0	0	0	0	0	609	552	0	0	0	0	
1	0	0	0	0	599	546	0	0	0	0	
2	0	0	0	0	588	537	0	0	0	0	
3	0	0	0	0	577	529	0	0	0	0	
4	0	0	0	0	566	519	0	0	0	0	
5	0	0	0	0	556	511	0	0	0	0	
6	0	0	0	0	550	505	0	0	0	0	
7	0	0	0	0	547	500	0	0	0	0	
8	0	0	0	0	547	499	0	0	0	0	
9	0	0	0	0	550	499	0	0	0	0	
10	0	0	0	0	555	500	0	0	0	0	
11	0	0	0	0	560	503	0	0	0	0	
12	0	0	0	0	565	504	0	0	0	0	
13	0	0	0	0	569	506	0	0	0	0	
14	0	0	0	0	571	506	0	0	0	0	
15	0	0	0	0	572	506	0	0	0	0	
0	0	0	0	0	571	505	0	0	0	0	
1	0	0	0	0	568	504	0	0	0	0	
2	0	0	0	0	566	504	0	0	0	0	
3	0	0	0	0	563	503	0	0	0	0	
4	0	0	0	0	560	502	0	0	0	0	
5	0	0	0	0	559	503	0	0	0	0	
6	0	0	0	0	560	505	0	0	0	0	
7	0	0	0	0	563	509	0	0	0	0	
8	0	0	0	0	569	515	0	0	0	0	
9	0	0	0	0	577	523	0	0	0	0	
10	0	0	0	0	587	531	0	0	0	0	
11	0	0	0	0	599	540	0	0	0	0	
12	0	0	0	0	610	549	0	0	0	0	
13	0	0	0	0	620	556	0	0	0	0	
14	0	0	0	0	628	561	0	0	0	0	
15	0	0	0	0	632	563	0	0	0	0	
0	0	0	0	0	632	562	0	0	0	0	
1	0	0	0	0	628	559	0	0	0	0	
2	0	0	0	0	620	551	0	0	0	0	
3	0	0	0	0	608	543	0	0	0	0	
4	0	0	0	0	595	532	0	0	0	0	
5	0	0	0	0	582	523	0	0	0	0	
6	0	0	0	0	569	513	0	0	0	0	
7	0	0	0	0	556	504	0	0	0	0	
8	0	0	0	0	547	498	0	0	0	0	
9	0	0	0	0	539	493	0	0	0	0	
10	0	0	0	0	534	489	0	0	0	0	
11	0	0	0	0	532	488	0	0	0	0	
12	0	0	0	0	532	489	0	0	0	0	
13	0	0	0	0	535	490	0	0	0	0	
14	0	0	0	0	539	493	0	0	0	0	
15	0	0	0	0	545	496	0	0	0	0	
0	0	0	0	0	551	500	0	0	0	0	
1	0	0	0	0	558	504	0	0	0	0	
2	0	0	0	0	564	508	0	0	0	0	
3	0	0	0	0	570	512	0	0	0	0	
4	0	0	0	0	575	515	0	0	0	0	
5	0	0	0	0	578	517	0	0	0	0	
6	0	0	0	0	579	518	0	0	0	0	
7	0	0	0	0	578	516	0	0	0	0	
8	0	0	0	0	575	515	0	0	0	0	
9	0	0	0	0	571	511	0	0	0	0	
10	0	0	0	0	565	508	0	0	0	0	
11	0	0	0	0	559	504	0	0	0	0	
12	0	0	0	0	552	500	0	0	0	0	
13	0	0	0	0	547	496	0	0	0	0	
14	0	0	0	0	542	494	0	0	0	0	
15	0	0	0	0	539	491	0	0	0	0	
0	0	0	0	0	536	489	0	0	0	0	
1	0	0	0	0	535	488	0	0	0	0	
2	0	0	0	0	534	488	0	0	0	0	
3	0	0	0	0	536	489	0	0	0	0	
4	0	0	0	0	537	490	0	0	0	0	
5	0	0	0	0	540	492	0	0	0	0	
6	0	0	0	0	542	494	0	0	0	0	
7	0	0	0	0	545	496	0	0	0	0	
8	0	0	0	0	548	497	0	0	0	0	
9	0	0	0	0	550	499	0	0	0	0	
10	0	0	0	0	551	499	0	0	0	0	
11	0	0	0	0	551	499	0	0	0	0	
12	0	0	0	0	551	499	0	0	0	0	
13	0	0	0	0	551	498	0	0	0	0	
14	0	0	0	0	551	499	0	0	0	0	
15	0	0	0	0	551	498	0	0	0	0	
0	0	0	0	0	551	499	0	0	0	0	
1	0	0	0	0	553	500	0	0	0	0	
2	0	0	0	0	555	501	0	0	0	0	
3	0	0	0	0	557	503	0	0	0	0	
4	0	0	0	0	559	504	0	0	0	0	
5	0	0	0	0	561	506	0	0	0	0	
6	0	0	0	0	562	507	0	0	0	0	
7	0	0	0	0	563	507	0	0	0	0	
8	0	0	0	0	563	508	0	0	0	0	
9	0	0	0	0	563	508	0	0	0	0	
10	0	0	0	0	564	510	0	0	0	0	
11	0	0	0	0	566	512	0	0	0	0	
12	0	0	0	0	571	516	0	0	0	0	
13	0	0	0	0	577	523	0	0	0	0	
14	0	0	0	0	587	531	0	0	0	0	
15	0	0	0	0	599	542	0	0	0	0	
0	0	0	0	0	612	553	0	0	0	0	
1	0	0	0	0	626	564	0	0	0	0	
2	0	0	0	0	639	575	0	0	0	0	
3	0	0	0	0	647	580	0	0	0	0	
4	0	0	0	0	652	583	0	0	0	0	
5	0	0	0	0	650	580	0	0	0	0	
6	0	0	0	0	643	573	0	0	0	0	
7	0	0	0	0	628	561	0	0	0	0	
8	0	0	0	0	609	545	0	0	0	0	
9	0	0	0	0	586	527	0	0	0	0	
10	0	0	0	0	560	508	0	0	0	0	
11	0	0	0	0	536	489	0	0	0	0	
12	0	0	0	0	512	473	0	0	0	0	
13	0	0	0	0	493	459	0	0	0	0	
14	0	0	0	0	477	448	0	0	0	0	
15	0	0	0	0	467	442	0	0	0	0	
0	0	0	0	0	463	438	0	0	0	0	
1	0	0	0	0	463	438	0	0	0	0	
2	0	0	0	0	467	440	0	0	0	0	
3	0	0	0	0	475	444	0	0	0	0	
4	0	0	0	0	487	450	0	0	0	0	
5	0	0	0	0	500	457	0	0	0	0	
6	0	0	0	0	515	466	0	0	0	0	
7	0	0	0	0	530	475	0	0	0	0	
8	0	0	0	0	545	484	0	0	0	0	
9	0	0	0	0	559	494	0	0	0	0	
10	0	0	0	0	571	503	0	0	0	0	
11	0	0	0	0	582	511	0	0	0	0	
12	0	0	0	0	590	519	0	0	0	0	
13	0	0	0	0	596	525	0	0	0	0	
14	0	0	0	0	599	530	0	0	0	0	
15	0	0	0	0	599	531	0	0	0	0	
0	0	0	0	0	596	531	0	0	0	0	
1	0	0	0	0	591	529	0	0	0	0	
2	0	0	0	0	582	524	0	0	0	0	
3	0	0	0	0	573	518	0	0	0	0	
4	0	0	0	0	563	512	0	0	0	0	
5	0	0	0	0	554	505	0	0	0	0	
6	0	0	0	0	545	498	0	0	0	0	
7	0	0	0	0	539	493	0	0	0	0	
8	0	0	0	0	534	489	0	0	0	0	
9	0	0	0	0	532	487	0	0	0	0	
10	0	0	0	0	533	488	0	0	0	0	
11	0	0	0	0	536	488	0	0	0	0	
12	0	0	0	0	540	491	0	0	0	0	
13	0	0	0	0	545	494	0	0	0	0	
14	0	0	0	0	550	496	0	0	0	0	
15	0	0	0	0	555	500	0	0	0	0	
0	0	0	0	0	558	502	0	0	0	0	
1	0	0	0	0	560	503	0	0	0	0	
2	0	0	0	0	561	504	0	0	0	0	
3	0	0	0	0	561	505	0	0	0	0	
4	0	0	0	0	561	505	0	0	0	0	
5	0	0	0	0	559	504	0	0	0	0	
6	0	0	0	0	557	504	0	0	0	0	
7	0	0	0	0	555	504	0	0	0	0	
8	0	0	0	0	553	503	0	0	0	0	
9	0	0	0	0	551	502	0	0	0	0	
10	0	0	0	0	549	501	0	0	0	0	
11	0	0	0	0	546	499	0	0	0	0	
12	0	0	0	0	544	497	0	0	0	0	
13	0	0	0	0	542	494	0	0	0	0	
14	0	0	0	0	540	491	0	0	0	0	
15	0	0	0	0	537	488	0	0	0	0	
0	0	0	0	0	536	486	0	0	0	0	
1	0	0	0	0	536	486	0	0	0	0	
2	0	0	0	0	537	485	0	0	0	0	
3	0	0	0	0	540	487	0	0	0	0	
4	0	0	0	0	545	490	0	0	0	0	
5	0	0	0	0	552	496	0	0	0	0	
6	0	0	0	0	559	502	0	0	0	0	
7	0	0	0	0	567	508	0	0	0	0	
8	0	0	0	0	574	514	0	0	0	0	
9	0	0	0	0	578	518	0	0	0	0	
10	0	0	0	0	580	519	0	0	0	0	
11	0	0	0	0	579	518	0	0	0	0	
12	0	0	0	0	576	514	0	0	0	0	
13	0	0	0	0	570	509	0	0	0	0	
14	0	0	0	0	561	502	0	0	0	0	
15	0	0	0	0	551	495	0	0	0	0	
0	0	0	0	0	541	487	0	0	0	0	
1	0	0	0	0	531	480	0	0	0	0	
2	0	0	0	0	524	475	0	0	0	0	
3	0	0	0	0	517	471	0	0	0	0	
4	0	0	0	0	513	468	0	0	0	0	
5	0	0	0	0	512	468	0	0	0	0	
6	0	0	0	0	513	469	0	0	0	0	
7	0	0	0	0	516	471	0	0	0	0	
8	0	0	0	0	521	474	0	0	0	0	
9	0	0	0	0	527	477	0	0	0	0	
10	0	0	0	0	533	481	0	0	0	0	
11	0	0	0	0	540	484	0	0	0	0	
12	0	0	0	0	547	489	0	0	0	0	
13	0	0	0	0	555	494	0	0	0	0	
14	0	0	0	0	561	499	0	0	0	0	
15	0	0	0	0	566	503	0	0	0	0	
0	0	0	0	0	569	505	0	0	0	0	
1	0	0	0	0	571	506	0	0	0	0	
2	0	0	0	0	570	505	0	0	0	0	
3	0	0	0	0	568	504	0	0	0	0	
4	0	0	0	0	566	503	0	0	0	0	
5	0	0	0	0	563	501	0	0	0	0	
6	0	0	0	0	562	502	0	0	0	0	
7	0	0	0	0	562	501	0	0	0	0	
8	0	0	0	0	562	503	0	0	0	0	
9	0	0	0	0	562	503	0	0	0	0	
10	0	0	0	0	561	503	0	0	0	0	
11	0	0	0	0	560	502	0	0	0	0	
12	0	0	0	0	558	500	0	0	0	0	
13	0	0	0	0	554	497	0	0	0	0	
14	0	0	0	0	550	495	0	0	0	0	
15	0	0	0	0	545	491	0	0	0	0	
0	0	0	0	0	541	488	0	0	0	0	
1	0	0	0	0	537	486	0	0	0	0	
2	0	0	0	0	535	484	0	0	0	0	
3	0	0	0	0	533	483	0	0	0	0	
4	0	0	0	0	531	481	0	0	0	0	
5	0	0	0	0	530	480	0	0	0	0	
6	0	0	0	0	528	476	0	0	0	0	
7	0	0	0	0	527	473	0	0	0	0	
8	0	0	0	0	524	470	0	0	0	0	
9	0	0	0	0	522	466	0	0	0	0	
10	0	0	0	0	521	464	0	0	0	0	
11	0	0	0	0	519	462	0	0	0	0	
12	0	0	0	0	519	461	0	0	0	0	
13	0	0	0	0	520	461	0	0	0	0	
14	0	0	0	0	523	463	0	0	0	0	
15	0	0	0	0	527	467	0	0	0	0	
0	0	0	0	0	533	472	0	0	0	0	
1	0	0	0	0	538	476	0	0	0	0	
2	0	0	0	0	544	482	0	0	0	0	
3	0	0	0	0	549	486	0	0	0	0	
4	0	0	0	0	552	489	0	0	0	0	
5	0	0	0	0	554	492	0	0	0	0	
6	0	0	0	0	554	493	0	0	0	0	
7	0	0	0	0	551	492	0	0	0	0	
8	0	0	0	0	547	489	0	0	0	0	
9	0	0	0	0	542	486	0	0	0	0	
10	0	0	0	0	535	481	0	0	0	0	
11	0	0	0	0	528	476	0	0	0	0	
12	0	0	0	0	523	473	0	0	0	0	
13	0	0	0	0	518	469	0	0	0	0	
14	0	0	0	0	516	468	0	0	0	0	
15	0	0	0	0	515	468	0	0	0	0	
0	0	0	0	0	517	469	0	0	0	0	
1	0	0	0	0	521	471	0	0	0	0	
2	0	0	0	0	526	474	0	0	0	0	
3	0	0	0	0	532	478	0	0	0	0	
4	0	0	0	0	539	483	0	0	0	0	
5	0	0	0	0	547	489	0	0	0	0	
6	0	0	0	0	555	495	0	0	0	0	
7	0	0	0	0	563	502	0	0	0	0	
8	0	0	0	0	572	510	0	0	0	0	
9	0	0	0	0	579	516	0	0	0	0	
10	0	0	0	0	587	523	0	0	0	0	
11	0	0	0	0	592	529	0	0	0	0	
12	0	0	0	0	596	533	0	0	0	0	
13	0	0	0	0	597	536	0	0	0	0	
14	0	0	0	0	595	536	0	0	0	0	
15	0	0	0	0	592	534	0	0	0	0	
0	0	0	0	0	586	529	0	0	0	0	
1	0	0	0	0	578	523	0	0	0	0	
2	0	0	0	0	568	515	0	0	0	0	
3	0	0	0	0	556	504	0	0	0	0	
4	0	0	0	0	544	494	0	0	0	0	
5	0	0	0	0	533	484	0	0	0	0	
6	0	0	0	0	524	474	0	0	0	0	
7	0	0	0	0	517	468	0	0	0	0	
8	0	0	0	0	513	463	0	0	0	0	
9	0	0	0	0	512	462	0	0	0	0	
10	0	0	0	0	515	463	0	0	0	0	
11	0	0	0	0	519	465	0	0	0	0	
12	0	0	0	0	524	468	0	0	0	0	
13	0	0	0	0	529	471	0	0	0	0	
14	0	0	0	0	533	473	0	0	0	0	
15	0	0	0	0	535	474	0	0	0	0	
0	0	0	0	0	534	472	0	0	0	0	
1	0	0	0	0	532	470	0	0	0	0	
2	0	0	0	0	528	467	0	0	0	0	
3	0	0	0	0	523	462	0	0	0	0	
4	0	0	0	0	518	458	0	0	0	0	
5	0	0	0	0	513	454	0	0	0	0	
6	0	0	0	0	509	451	0	0	0	0	
7	0	0	0	0	506	449	0	0	0	0	
8	0	0	0	0	504	448	0	0	0	0	
9	0	0	0	0	504	449	0	0	0	0	
10	0	0	0	0	506	452	0	0	0	0	
11	0	0	0	0	509	455	0	0	0	0	
12	0	0	0	0	514	460	0	0	0	0	
13	0	0	0	0	519	464	0	0	0	0	
14	0	0	0	0	524	469	0	0	0	0	
15	0	0	0	0	529	474	0	0	0	0	
0	0	0	0	0	535	479	0	0	0	0	
1	0	0	0	0	540	483	0	0	0	0	
2	0	0	0	0	545	487	0	0	0	0	
3	0	0	0	0	549	491	0	0	0	0	
4	0	0	0	0	552	493	0	0	0	0	
5	0	0	0	0	554	495	0	0	0	0	
6	0	0	0	0	555	496	0	0	0	0	
7	0	0	0	0	554	495	0	0	0	0	
8	0	0	0	0	552	494	0	0	0	0	
9	0	0	0	0	550	492	0	0	0	0	
10	0	0	0	0	546	488	0	0	0	0	
11	0	0	0	0	542	484	0	0	0	0	
12	0	0	0	0	537	479	0	0	0	0	
13	0	0	0	0	531	474	0	0	0	0	
14	0	0	0	0	525	468	0	0	0	0	
15	0	0	0	0	519	464	0	0	0	0	
0	0	0	0	0	515	459	0	0	0	0	
1	0	0	0	0	511	456	0	0	0	0	
2	0	0	0	0	509	455	0	0	0	0	
3	0	0	0	0	509	455	0	0	0	0	
4	0	0	0	0	512	458	0	0	0	0	
5	0	0	0	0	517	463	0	0	0	0	
6	0	0	0	0	525	470	0	0	0	0	
7	0	0	0	0	534	478	0	0	0	0	
8	0	0	0	0	544	486	0	0	0	0	
9	0	0	0	0	555	495	0	0	0	0	
10	0	0	0	0	564	502	0	0	0	0	
11	0	0	0	0	573	509	0	0	0	0	
12	0	0	0	0	579	515	0	0	0	0	
13	0	0	0	0	583	518	0	0	0	0	
14	0	0	0	0	583	519	0	0	0	0	
15	0	0	0	0	579	516	0	0	0	0	
0	0	0	0	0	572	511	0	0	0	0	
1	0	0	0	0	562	503	0	0	0	0	
2	0	0	0	0	551	493	0	0	0	0	
3	0	0	0	0	538	484	0	0	0	0	
4	0	0	0	0	525	474	0	0	0	0	
5	0	0	0	0	513	464	0	0	0	0	
6	0	0	0	0	504	457	0	0	0	0	
7	0	0	0	0	495	450	0	0	0	0	
8	0	0	0	0	490	445	0	0	0	0	
9	0	0	0	0	486	441	0	0	0	0	
10	0	0	0	0	484	439	0	0	0	0	
11	0	0	0	0	486	438	0	0	0	0	
12	0	0	0	0	489	438	0	0	0	0	
13	0	0	0	0	493	440	0	0	0	0	
14	0	0	0	0	499	442	0	0	0	0	
15	0	0	0	0	506	446	0	0	0	0	
0	0	0	0	0	513	450	0	0	0	0	
1	0	0	0	0	521	455	0	0	0	0	
2	0	0	0	0	528	460	0	0	0	0	
3	0	0	0	0	534	464	0	0	0	0	
4	0	0	0	0	538	468	0	0	0	0	
5	0	0	0	0	540	471	0	0	0	0	
6	0	0	0	0	542	473	0	0	0	0	
7	0	0	0	0	543	476	0	0	0	0	
8	0	0	0	0	542	477	0	0	0	0	
9	0	0	0	0	541	478	0	0	0	0	
10	0	0	0	0	540	479	0	0	0	0	
11	0	0	0	0	539	480	0	0	0	0	
12	0	0	0	0	539	481	0	0	0	0	
13	0	0	0	0	539	483	0	0	0	0	
14	0	0	0	0	541	486	0	0	0	0	
15	0	0	0	0	543	487	0	0	0	0	
0	0	0	0	0	545	489	0	0	0	0	
1	0	0	0	0	547	491	0	0	0	0	
2	0	0	0	0	548	491	0	0	0	0	
3	0	0	0	0	547	490	0	0	0	0	
4	0	0	0	0	544	488	0	0	0	0	
5	0	0	0	0	542	485	0	0	0	0	
6	0	0	0	0	540	483	0	0	0	0	
7	0	0	0	0	538	481	0	0	0	0	
8	0	0	0	0	538	480	0	0	0	0	
9	0	0	0	0	538	480	0	0	0	0	
10	0	0	0	0	539	480	0	0	0	0	
11	0	0	0	0	541	481	0	0	0	0	
12	0	0	0	0	543	482	0	0	0	0	
13	0	0	0	0	543	483	0	0	0	0	
14	0	0	0	0	544	483	0	0	0	0	
15	0	0	0	0	544	484	0	0	0	0	
0	0	0	0	0	545	486	0	0	0	0	
1	0	0	0	0	546	487	0	0	0	0	
2	0	0	0	0	547	490	0	0	0	0	
3	0	0	0	0	551	493	0	0	0	0	
4	0	0	0	0	555	496	0	0	0	0	
5	0	0	0	0	560	500	0	0	0	0	
6	0	0	0	0	565	504	0	0	0	0	
7	0	0	0	0	569	505	0	0	0	0	
8	0	0	0	0	571	506	0	0	0	0	
9	0	0	0	0	571	504	0	0	0	0	
10	0	0	0	0	568	500	0	0	0	0	
11	0	0	0	0	561	495	0	0	0	0	
12	0	0	0	0	553	487	0	0	0	0	
13	0	0	0	0	543	480	0	0	0	0	
14	0	0	0	0	533	472	0	0	0	0	
15	0	0	0	0	523	466	0	0	0	0	
0	0	0	0	0	515	461	0	0	0	0	
1	0	0	0	0	508	457	0	0	0	0	
2	0	0	0	0	504	455	0	0	0	0	
3	0	0	0	0	502	455	0	0	0	0	
4	0	0	0	0	504	458	0	0	0	0	
5	0	0	0	0	508	462	0	0	0	0	
6	0	0	0	0	514	467	0	0	0	0	
7	0	0	0	0	522	474	0	0	0	0	
8	0	0	0	0	532	481	0	0	0	0	
9	0	0	0	0	542	488	0	0	0	0	
10	0	0	0	0	551	495	0	0	0	0	
11	0	0	0	0	560	500	0	0	0	0	
12	0	0	0	0	566	504	0	0	0	0	
13	0	0	0	0	570	507	0	0	0	0	
14	0	0	0	0	571	507	0	0	0	0	
15	0	0	0	0	568	504	0	0	0	0	
0	0	0	0	0	561	499	0	0	0	0	
1	0	0	0	0	553	493	0	0	0	0	
2	0	0	0	0	545	487	0	0	0	0	
3	0	0	0	0	539	484	0	0	0	0	
4	0	0	0	0	534	482	0	0	0	0	
5	0	0	0	0	533	483	0	0	0	0	
6	0	0	0	0	535	487	0	0	0	0	
7	0	0	0	0	540	493	0	0	0	0	
8	0	0	0	0	546	499	0	0	0	0	
9	0	0	0	0	552	505	0	0	0	0	
10	0	0	0	0	557	508	0	0	0	0	
11	0	0	0	0	559	509	0	0	0	0	
12	0	0	0	0	557	505	0	0	0	0	
13	0	0	0	0	552	499	0	0	0	0	
14	0	0	0	0	545	491	0	0	0	0	
15	0	0	0	0	536	480	0	0	0	0	
0	0	0	0	0	526	471	0	0	0	0	
1	0	0	0	0	517	461	0	0	0	0	
2	0	0	0	0	509	453	0	0	0	0	
3	0	0	0	0	504	447	0	0	0	0	
4	0	0	0	0	500	444	0	0	0	0	
5	0	0	0	0	500	443	0	0	0	0	
6	0	0	0	0	503	444	0	0	0	0	
7	0	0	0	0	506	448	0	0	0	0	
8	0	0	0	0	511	451	0	0	0	0	
9	0	0	0	0	516	456	0	0	0	0	
10	0	0	0	0	521	461	0	0	0	0	
11	0	0	0	0	527	466	0	0	0	0	
12	0	0	0	0	531	472	0	0	0	0	
13	0	0	0	0	534	475	0	0	0	0	
14	0	0	0	0	536	478	0	0	0	0	
15	0	0	0	0	536	479	0	0	0	0	
0	0	0	0	0	534	479	0	0	0	0	
1	0	0	0	0	531	479	0	0	0	0	
2	0	0	0	0	527	476	0	0	0	0	
3	0	0	0	0	523	473	0	0	0	0	
4	0	0	0	0	519	471	0	0	0	0	
5	0	0	0	0	517	469	0	0	0	0	
6	0	0	0	0	517	469	0	0	0	0	
7	0	0	0	0	519	470	0	0	0	0	
8	0	0	0	0	524	474	0	0	0	0	
9	0	0	0	0	532	478	0	0	0	0	
10	0	0	0	0	542	485	0	0	0	0	
11	0	0	0	0	552	492	0	0	0	0	
12	0	0	0	0	561	498	0	0	0	0	
13	0	0	0	0	568	502	0	0	0	0	
14	0	0	0	0	573	505	0	0	0	0	
15	0	0	0	0	574	504	0	0	0	0	
0	0	0	0	0	571	502	0	0	0	0	
1	0	0	0	0	564	496	0	0	0	0	
2	0	0	0	0	554	487	0	0	0	0	
3	0	0	0	0	541	478	0	0	0	0	
4	0	0	0	0	527	467	0	0	0	0	
5	0	0	0	0	513	458	0	0	0	0	
6	0	0	0	0	499	448	0	0	0	0	
7	0	0	0	0	488	440	0	0	0	0	
8	0	0	0	0	479	434	0	0	0	0	
9	0	0	0	0	474	431	0	0	0	0	
10	0	0	0	0	472	429	0	0	0	0	
11	0	0	0	0	473	430	0	0	0	0	
12	0	0	0	0	477	432	0	0	0	0	
13	0	0	0	0	484	437	0	0	0	0	
14	0	0	0	0	494	443	0	0	0	0	
15	0	0	0	0	505	451	0	0	0	0	
0	0	0	0	0	519	461	0	0	0	0	
1	0	0	0	0	532	471	0	0	0	0	
2	0	0	0	0	545	481	0	0	0	0	
3	0	0	0	0	558	491	0	0	0	0	
4	0	0	0	0	570	500	0	0	0	0	
5	0	0	0	0	579	509	0	0	0	0	
6	0	0	0	0	587	516	0	0	0	0	
7	0	0	0	0	594	524	0	0	0	0	
8	0	0	0	0	599	530	0	0	0	0	
9	0	0	0	0	603	535	0	0	0	0	
10	0	0	0	0	604	538	0	0	0	0	
11	0	0	0	0	604	540	0	0	0	0	
12	0	0	0	0	601	540	0	0	0	0	
13	0	0	0	0	597	536	0	0	0	0	
14	0	0	0	0	591	532	0	0	0	0	
15	0	0	0	0	583	525	0	0	0	0	
0	0	0	0	0	574	518	0	0	0	0	
1	0	0	0	0	563	509	0	0	0	0	
2	0	0	0	0	555	500	0	0	0	0	
3	0	0	0	0	545	493	0	0	0	0	
4	0	0	0	0	538	486	0	0	0	0	
5	0	0	0	0	531	481	0	0	0	0	
6	0	0	0	0	526	476	0	0	0	0	
7	0	0	0	0	521	472	0	0	0	0	
8	0	0	0	0	516	468	0	0	0	0	
9	0	0	0	0	510	463	0	0	0	0	
10	0	0	0	0	504	457	0	0	0	0	
11	0	0	0	0	497	452	0	0	0	0	
12	0	0	0	0	491	446	0	0	0	0	
13	0	0	0	0	484	441	0	0	0	0	
14	0	0	0	0	480	436	0	0	0	0	
15	0	0	0	0	476	433	0	0	0	0	
0	0	0	0	0	475	432	0	0	0	0	
1	0	0	0	0	476	431	0	0	0	0	
2	0	0	0	0	479	433	0	0	0	0	
3	0	0	0	0	484	436	0	0	0	0	
4	0	0	0	0	491	441	0	0	0	0	
5	0	0	0	0	499	447	0	0	0	0	
6	0	0	0	0	508	453	0	0	0	0	
7	0	0	0	0	517	460	0	0	0	0	
8	0	0	0	0	525	465	0	0	0	0	
9	0	0	0	0	531	471	0	0	0	0	
10	0	0	0	0	537	476	0	0	0	0	
11	0	0	0	0	542	480	0	0	0	0	
12	0	0	0	0	545	483	0	0	0	0	
13	0	0	0	0	546	486	0	0	0	0	
14	0	0	0	0	548	487	0	0	0	0	
15	0	0	0	0	547	487	0	0	0	0	
0	0	0	0	0	545	486	0	0	0	0	
1	0	0	0	0	543	484	0	0	0	0	
2	0	0	0	0	539	481	0	0	0	0	
3	0	0	0	0	535	478	0	0	0	0	
4	0	0	0	0	530	476	0	0	0	0	
5	0	0	0	0	528	474	0	0	0	0	
6	0	0	0	0	528	475	0	0	0	0	
7	0	0	0	0	530	477	0	0	0	0	
8	0	0	0	0	535	481	0	0	0	0	
9	0	0	0	0	542	487	0	0	0	0	
10	0	0	0	0	550	494	0	0	0	0	
11	0	0	0	0	560	501	0	0	0	0	
12	0	0	0	0	568	508	0	0	0	0	
13	0	0	0	0	575	514	0	0	0	0	
14	0	0	0	0	580	518	0	0	0	0	
15	0	0	0	0	582	518	0	0	0	0	
0	0	0	0	0	580	516	0	0	0	0	
1	0	0	0	0	575	512	0	0	0	0	
2	0	0	0	0	567	505	0	0	0	0	
3	0	0	0	0	557	497	0	0	0	0	
4	0	0	0	0	547	489	0	0	0	0	
5	0	0	0	0	536	481	0	0	0	0	
6	0	0	0	0	527	473	0	0	0	0	
7	0	0	0	0	518	466	0	0	0	0	
8	0	0	0	0	511	460	0	0	0	0	
9	0	0	0	0	503	452	0	0	0	0	
10	0	0	0	0	494	444	0	0	0	0	
11	0	0	0	0	483	433	0	0	0	0	
12	0	0	0	0	470	422	0	0	0	0	
13	0	0	0	0	455	408	0	0	0	0	
14	0	0	0	0	440	393	0	0	0	0	
15	0	0	0	0	424	379	0	0	0	0	
0	0	0	0	0	407	364	0	0	0	0	
1	0	0	0	0	392	349	0	0	0	0	
2	0	0	0	0	378	336	0	0	0	0	
3	0	0	0	0	365	324	0	0	0	0	
4	0	0	0	0	355	314	0	0	0	0	
5	0	0	0	0	346	305	0	0	0	0	
6	0	0	0	0	339	297	0	0	0	0	
7	0	0	0	0	334	290	0	0	0	0	
8	0	0	0	0	331	285	0	0	0	0	
9	0	0	0	0	328	280	0	0	0	0	
10	0	0	0	0	327	275	0	0	0	0	
11	0	0	0	0	327	271	0	0	0	0	
12	0	0	0	0	327	268	0	0	0	0	
13	0	0	0	0	327	265	0	0	0	0	
14	0	0	0	0	327	263	0	0	0	0	
15	0	0	0	0	327	260	0	0	0	0	
0	0	0	0	0	327	258	0	0	0	0	
1	0	0	0	0	327	259	0	0	0	0	
2	0	0	0	0	331	262	0	0	0	0	
3	0	0	0	0	336	268	0	0	0	0	
4	0	0	0	0	345	278	0	0	0	0	
5	0	0	0	0	357	290	0	0	0	0	
6	0	0	0	0	372	306	0	0	0	0	
7	0	0	0	0	390	325	0	0	0	0	
8	0	0	0	0	411	345	0	0	0	0	
9	0	0	0	0	433	368	0	0	0	0	
10	0	0	0	0	456	391	0	0	0	0	
11	0	0	0	0	480	414	0	0	0	0	
12	0	0	0	0	501	435	0	0	0	0	
13	0	0	0	0	521	453	0	0	0	0	
14	0	0	0	0	537	468	0	0	0	0	
15	0	0	0	0	549	480	0	0	0	0	
0	0	0	0	0	558	489	0	0	0	0	
1	0	0	0	0	563	494	0	0	0	0	
2	0	0	0	0	563	495	0	0	0	0	
3	0	0	0	0	560	493	0	0	0	0	
4	0	0	0	0	556	490	0	0	0	0	
5	0	0	0	0	547	484	0	0	0	0	
6	0	0	0	0	538	477	0	0	0	0	
7	0	0	0	0	530	472	0	0	0	0	
8	0	0	0	0	522	466	0	0	0	0	
9	0	0	0	0	515	462	0	0	0	0	
10	0	0	0	0	511	460	0	0	0	0	
11	0	0	0	0	510	460	0	0	0	0	
12	0	0	0	0	512	462	0	0	0	0	
13	0	0	0	0	516	466	0	0	0	0	
14	0	0	0	0	523	472	0	0	0	0	
15	0	0	0	0	531	479	0	0	0	0	
0	0	0	0	0	542	487	0	0	0	0	
1	0	0	0	0	553	496	0	0	0	0	
2	0	0	0	0	562	502	0	0	0	0	
3	0	0	0	0	568	506	0	0	0	0	
4	0	0	0	0	572	508	0	0	0	0	
5	0	0	0	0	573	508	0	0	0	0	
6	0	0	0	0	571	506	0	0	0	0	
7	0	0	0	0	566	501	0	0	0	0	
8	0	0	0	0	560	497	0	0	0	0	
9	0	0	0	0	554	493	0	0	0	0	
10	0	0	0	0	547	488	0	0	0	0	
11	0	0	0	0	543	486	0	0	0	0	
12	0	0	0	0	539	485	0	0	0	0	
13	0	0	0	0	538	485	0	0	0	0	
14	0	0	0	0	539	488	0	0	0	0	
15	0	0	0	0	542	491	0	0	0	0	
0	0	0	0	0	547	497	0	0	0	0	
1	0	0	0	0	551	501	0	0	0	0	
2	0	0	0	0	556	505	0	0	0	0	
3	0	0	0	0	560	509	0	0	0	0	
4	0	0	0	0	563	511	0	0	0	0	
5	0	0	0	0	566	513	0	0	0	0	
6	0	0	0	0	567	513	0	0	0	0	
7	0	0	0	0	568	514	0	0	0	0	
8	0	0	0	0	568	514	0	0	0	0	
9	0	0	0	0	568	513	0	0	0	0	
10	0	0	0	0	567	513	0	0	0	0	
11	0	0	0	0	567	512	0	0	0	0	
12	0	0	0	0	567	511	0	0	0	0	
13	0	0	0	0	566	510	0	0	0	0	
14	0	0	0	0	563	507	0	0	0	0	
15	0	0	0	0	562	506	0	0	0	0	
0	0	0	0	0	560	504	0	0	0	0	
1	0	0	0	0	558	504	0	0	0	0	
2	0	0	0	0	558	505	0	0	0	0	
3	0	0	0	0	559	507	0	0	0	0	
4	0	0	0	0	561	511	0	0	0	0	
5	0	0	0	0	564	515	0	0	0	0	
6	0	0	0	0	567	518	0	0	0	0	
7	0	0	0	0	568	520	0	0	0	0	
8	0	0	0	0	568	520	0	0	0	0	
9	0	0	0	0	567	518	0	0	0	0	
10	0	0	0	0	561	512	0	0	0	0	
11	0	0	0	0	553	504	0	0	0	0	
12	0	0	0	0	544	494	0	0	0	0	
13	0	0	0	0	534	484	0	0	0	0	
14	0	0	0	0	526	476	0	0	0	0	
15	0	0	0	0	519	469	0	0	0	0	
0	0	0	0	0	516	466	0	0	0	0	
1	0	0	0	0	516	466	0	0	0	0	
2	0	0	0	0	520	470	0	0	0	0	
3	0	0	0	0	529	477	0	0	0	0	
4	0	0	0	0	540	487	0	0	0	0	
5	0	0	0	0	554	499	0	0	0	0	
6	0	0	0	0	569	512	0	0	0	0	
7	0	0	0	0	584	524	0	0	0	0	
8	0	0	0	0	598	535	0	0	0	0	
9	0	0	0	0	608	543	0	0	0	0	
10	0	0	0	0	616	550	0	0	0	0	
11	0	0	0	0	620	552	0	0	0	0	
12	0	0	0	0	620	551	0	0	0	0	
13	0	0	0	0	616	547	0	0	0	0	
14	0	0	0	0	608	540	0	0	0	0	
15	0	0	0	0	596	531	0	0	0	0	
0	0	0	0	0	582	519	0	0	0	0	
1	0	0	0	0	567	508	0	0	0	0	
2	0	0	0	0	551	495	0	0	0	0	
3	0	0	0	0	536	484	0	0	0	0	
4	0	0	0	0	521	473	0	0	0	0	
5	0	0	0	0	509	464	0	0	0	0	
6	0	0	0	0	499	457	0	0	0	0	
7	0	0	0	0	492	451	0	0	0	0	
8	0	0	0	0	488	448	0	0	0	0	
9	0	0	0	0	486	447	0	0	0	0	
10	0	0	0	0	487	447	0	0	0	0	
11	0	0	0	0	491	449	0	0	0	0	
12	0	0	0	0	498	454	0	0	0	0	
13	0	0	0	0	507	459	0	0	0	0	
14	0	0	0	0	516	465	0	0	0	0	
15	0	0	0	0	527	473	0	0	0	0	
0	0	0	0	0	539	481	0	0	0	0	
1	0	0	0	0	551	489	0	0	0	0	
2	0	0	0	0	560	497	0	0	0	0	
3	0	0	0	0	568	502	0	0	0	0	
4	0	0	0	0	572	506	0	0	0	0	
5	0	0	0	0	573	505	0	0	0	0	
6	0	0	0	0	571	504	0	0	0	0	
7	0	0	0	0	565	500	0	0	0	0	
8	0	0	0	0	558	495	0	0	0	0	
9	0	0	0	0	550	490	0	0	0	0	
10	0	0	0	0	543	486	0	0	0	0	
11	0	0	0	0	537	482	0	0	0	0	
12	0	0	0	0	535	481	0	0	0	0	
13	0	0	0	0	535	483	0	0	0	0	
14	0	0	0	0	537	487	0	0	0	0	
15	0	0	0	0	543	492	0	0	0	0	
0	0	0	0	0	550	499	0	0	0	0	
1	0	0	0	0	558	505	0	0	0	0	
2	0	0	0	0	566	512	0	0	0	0	
3	0	0	0	0	574	519	0	0	0	0	
4	0	0	0	0	582	526	0	0	0	0	
5	0	0	0	0	589	532	0	0	0	0	
6	0	0	0	0	593	536	0	0	0	0	
7	0	0	0	0	594	536	0	0	0	0	
8	0	0	0	0	591	533	0	0	0	0	
9	0	0	0	0	583	527	0	0	0	0	
10	0	0	0	0	572	517	0	0	0	0	
11	0	0	0	0	556	504	0	0	0	0	
12	0	0	0	0	540	490	0	0	0	0	
13	0	0	0	0	523	475	0	0	0	0	
14	0	0	0	0	506	461	0	0	0	0	
15	0	0	0	0	492	449	0	0	0	0	
0	0	0	0	0	480	438	0	0	0	0	
1	0	0	0	0	472	431	0	0	0	0	
2	0	0	0	0	467	426	0	0	0	0	
3	0	0	0	0	467	424	0	0	0	0	
4	0	0	0	0	471	426	0	0	0	0	
5	0	0	0	0	478	430	0	0	0	0	
6	0	0	0	0	487	435	0	0	0	0	
7	0	0	0	0	498	443	0	0	0	0	
8	0	0	0	0	510	451	0	0	0	0	
9	0	0	0	0	522	459	0	0	0	0	
10	0	0	0	0	532	466	0	0	0	0	
11	0	0	0	0	540	471	0	0	0	0	
12	0	0	0	0	545	476	0	0	0	0	
13	0	0	0	0	549	479	0	0	0	0	
14	0	0	0	0	551	480	0	0	0	0	
15	0	0	0	0	551	481	0	0	0	0	
0	0	0	0	0	551	482	0	0	0	0	
1	0	0	0	0	550	483	0	0	0	0	
2	0	0	0	0	549	484	0	0	0	0	
3	0	0	0	0	548	485	0	0	0	0	
4	0	0	0	0	547	485	0	0	0	0	
5	0	0	0	0	545	484	0	0	0	0	
6	0	0	0	0	543	484	0	0	0	0	
7	0	0	0	0	541	483	0	0	0	0	
8	0	0	0	0	539	482	0	0	0	0	
9	0	0	0	0	536	481	0	0	0	0	
10	0	0	0	0	534	480	0	0	0	0	
11	0	0	0	0	530	478	0	0	0	0	
12	0	0	0	0	525	475	0	0	0	0	
13	0	0	0	0	521	472	0	0	0	0	
14	0	0	0	0	517	469	0	0	0	0	
15	0	0	0	0	514	466	0	0	0	0	
0	0	0	0	0	513	465	0	0	0	0	
1	0	0	0	0	515	466	0	0	0	0	
2	0	0	0	0	519	470	0	0	0	0	
3	0	0	0	0	527	475	0	0	0	0	
4	0	0	0	0	537	482	0	0	0	0	
5	0	0	0	0	549	491	0	0	0	0	
6	0	0	0	0	562	501	0	0	0	0	
7	0	0	0	0	574	510	0	0	0	0	
8	0	0	0	0	582	515	0	0	0	0	
9	0	0	0	0	587	519	0	0	0	0	
10	0	0	0	0	588	519	0	0	0	0	
11	0	0	0	0	585	517	0	0	0	0	
12	0	0	0	0	580	512	0	0	0	0	
13	0	0	0	0	571	505	0	0	0	0	
14	0	0	0	0	561	498	0	0	0	0	
15	0	0	0	0	552	491	0	0	0	0	
0	0	0	0	0	544	486	0	0	0	0	
1	0	0	0	0	538	483	0	0	0	0	
2	0	0	0	0	535	481	0	0	0	0	
3	0	0	0	0	535	482	0	0	0	0	
4	0	0	0	0	537	486	0	0	0	0	
5	0	0	0	0	540	489	0	0	0	0	
6	0	0	0	0	545	494	0	0	0	0	
7	0	0	0	0	550	497	0	0	0	0	
8	0	0	0	0	553	499	0	0	0	0	
9	0	0	0	0	555	500	0	0	0	0	
10	0	0	0	0	555	498	0	0	0	0	
11	0	0	0	0	552	496	0	0	0	0	
12	0	0	0	0	548	491	0	0	0	0	
13	0	0	0	0	543	486	0	0	0	0	
14	0	0	0	0	538	481	0	0	0	0	
15	0	0	0	0	533	476	0	0	0	0	
0	0	0	0	0	529	473	0	0	0	0	
1	0	0	0	0	527	471	0	0	0	0	
2	0	0	0	0	525	469	0	0	0	0	
3	0	0	0	0	525	468	0	0	0	0	
4	0	0	0	0	526	469	0	0	0	0	
5	0	0	0	0	526	469	0	0	0	0	
6	0	0	0	0	525	468	0	0	0	0	
7	0	0	0	0	523	467	0	0	0	0	
8	0	0	0	0	519	464	0	0	0	0	
9	0	0	0	0	515	461	0	0	0	0	
10	0	0	0	0	511	458	0	0	0	0	
11	0	0	0	0	506	455	0	0	0	0	
12	0	0	0	0	502	451	0	0	0	0	
13	0	0	0	0	498	449	0	0	0	0	
14	0	0	0	0	497	448	0	0	0	0	
15	0	0	0	0	497	448	0	0	0	0	
0	0	0	0	0	498	448	0	0	0	0	
1	0	0	0	0	502	451	0	0	0	0	
2	0	0	0	0	506	454	0	0	0	0	
3	0	0	0	0	512	458	0	0	0	0	
4	0	0	0	0	519	463	0	0	0	0	
5	0	0	0	0	525	467	0	0	0	0	
6	0	0	0	0	531	470	0	0	0	0	
7	0	0	0	0	535	473	0	0	0	0	
8	0	0	0	0	538	475	0	0	0	0	
9	0	0	0	0	540	475	0	0	0	0	
10	0	0	0	0	539	474	0	0	0	0	
11	0	0	0	0	536	472	0	0	0	0	
12	0	0	0	0	532	468	0	0	0	0	
13	0	0	0	0	527	464	0	0	0	0	
14	0	0	0	0	521	459	0	0	0	0	
15	0	0	0	0	515	454	0	0	0	0	
0	0	0	0	0	508	448	0	0	0	0	
1	0	0	0	0	502	444	0	0	0	0	
2	0	0	0	0	496	440	0	0	0	0	
3	0	0	0	0	492	437	0	0	0	0	
4	0	0	0	0	490	436	0	0	0	0	
5	0	0	0	0	490	436	0	0	0	0	
6	0	0	0	0	492	439	0	0	0	0	
7	0	0	0	0	496	442	0	0	0	0	
8	0	0	0	0	502	447	0	0	0	0	
9	0	0	0	0	508	452	0	0	0	0	
10	0	0	0	0	514	457	0	0	0	0	
11	0	0	0	0	519	462	0	0	0	0	
12	0	0	0	0	525	467	0	0	0	0	
13	0	0	0	0	529	472	0	0	0	0	
14	0	0	0	0	532	474	0	0	0	0	
15	0	0	0	0	534	476	0	0	0	0	
0	0	0	0	0	536	478	0	0	0	0	
1	0	0	0	0	538	480	0	0	0	0	
2	0	0	0	0	542	484	0	0	0	0	
3	0	0	0	0	545	488	0	0	0	0	
4	0	0	0	0	550	492	0	0	0	0	
5	0	0	0	0	556	497	0	0	0	0	
6	0	0	0	0	561	502	0	0	0	0	
7	0	0	0	0	565	505	0	0	0	0	
8	0	0	0	0	567	507	0	0	0	0	
9	0	0	0	0	568	506	0	0	0	0	
10	0	0	0	0	566	504	0	0	0	0	
11	0	0	0	0	562	501	0	0	0	0	
12	0	0	0	0	558	497	0	0	0	0	
13	0	0	0	0	553	493	0	0	0	0	
14	0	0	0	0	547	488	0	0	0	0	
15	0	0	0	0	541	483	0	0	0	0	
0	0	0	0	0	535	477	0	0	0	0	
1	0	0	0	0	528	472	0	0	0	0	
2	0	0	0	0	521	466	0	0	0	0	
3	0	0	0	0	515	461	0	0	0	0	
4	0	0	0	0	509	457	0	0	0	0	
5	0	0	0	0	504	453	0	0	0	0	
6	0	0	0	0	501	451	0	0	0	0	
7	0	0	0	0	499	449	0	0	0	0	
8	0	0	0	0	499	450	0	0	0	0	
9	0	0	0	0	500	451	0	0	0	0	
10	0	0	0	0	503	453	0	0	0	0	
11	0	0	0	0	507	456	0	0	0	0	
12	0	0	0	0	511	460	0	0	0	0	
13	0	0	0	0	517	463	0	0	0	0	
14	0	0	0	0	524	467	0	0	0	0	
15	0	0	0	0	531	471	0	0	0	0	
0	0	0	0	0	538	476	0	0	0	0	
1	0	0	0	0	544	479	0	0	0	0	
2	0	0	0	0	549	483	0	0	0	0	
3	0	0	0	0	553	487	0	0	0	0	
4	0	0	0	0	557	490	0	0	0	0	
5	0	0	0	0	561	494	0	0	0	0	
6	0	0	0	0	564	497	0	0	0	0	
7	0	0	0	0	566	500	0	0	0	0	
8	0	0	0	0	567	500	0	0	0	0	
9	0	0	0	0	564	499	0	0	0	0	
10	0	0	0	0	559	495	0	0	0	0	
11	0	0	0	0	551	489	0	0	0	0	
12	0	0	0	0	542	481	0	0	0	0	
13	0	0	0	0	531	472	0	0	0	0	
14	0	0	0	0	518	462	0	0	0	0	
15	0	0	0	0	505	451	0	0	0	0	
0	0	0	0	0	493	440	0	0	0	0	
1	0	0	0	0	481	431	0	0	0	0	
2	0	0	0	0	471	422	0	0	0	0	
3	0	0	0	0	463	414	0	0	0	0	
4	0	0	0	0	458	409	0	0	0	0	
5	0	0	0	0	455	406	0	0	0	0	
6	0	0	0	0	455	404	0	0	0	0	
7	0	0	0	0	457	406	0	0	0	0	
8	0	0	0	0	461	408	0	0	0	0	
9	0	0	0	0	467	412	0	0	0	0	
10	0	0	0	0	474	418	0	0	0	0	
11	0	0	0	0	482	424	0	0	0	0	
12	0	0	0	0	490	431	0	0	0	0	
13	0	0	0	0	499	438	0	0	0	0	
14	0	0	0	0	508	446	0	0	0	0	
15	0	0	0	0	517	454	0	0	0	0	
0	0	0	0	0	527	463	0	0	0	0	
1	0	0	0	0	536	472	0	0	0	0	
2	0	0	0	0	547	483	0	0	0	0	
3	0	0	0	0	558	494	0	0	0	0	
4	0	0	0	0	568	504	0	0	0	0	
5	0	0	0	0	575	512	0	0	0	0	
6	0	0	0	0	582	518	0	0	0	0	
7	0	0	0	0	585	522	0	0	0	0	
8	0	0	0	0	585	523	0	0	0	0	
9	0	0	0	0	582	521	0	0	0	0	
10	0	0	0	0	577	516	0	0	0	0	
11	0	0	0	0	569	511	0	0	0	0	
12	0	0	0	0	561	504	0	0	0	0	
13	0	0	0	0	553	498	0	0	0	0	
14	0	0	0	0	545	492	0	0	0	0	
15	0	0	0	0	539	487	0	0	0	0	
0	0	0	0	0	533	481	0	0	0	0	
1	0	0	0	0	528	476	0	0	0	0	
2	0	0	0	0	525	473	0	0	0	0	
3	0	0	0	0	522	469	0	0	0	0	
4	0	0	0	0	519	466	0	0	0	0	
5	0	0	0	0	518	463	0	0	0	0	
6	0	0	0	0	516	461	0	0	0	0	
7	0	0	0	0	514	459	0	0	0	0	
8	0	0	0	0	511	455	0	0	0	0	
9	0	0	0	0	508	453	0	0	0	0	
10	0	0	0	0	504	449	0	0	0	0	
11	0	0	0	0	499	447	0	0	0	0	
12	0	0	0	0	496	444	0	0	0	0	
13	0	0	0	0	493	441	0	0	0	0	
14	0	0	0	0	491	440	0	0	0	0	
15	0	0	0	0	489	439	0	0	0	0	
0	0	0	0	0	489	440	0	0	0	0	
1	0	0	0	0	490	440	0	0	0	0	
2	0	0	0	0	492	442	0	0	0	0	
3	0	0	0	0	493	444	0	0	0	0	
4	0	0	0	0	495	446	0	0	0	0	
5	0	0	0	0	497	448	0	0	0	0	
6	0	0	0	0	499	451	0	0	0	0	
7	0	0	0	0	502	453	0	0	0	0	
8	0	0	0	0	504	456	0	0	0	0	
9	0	0	0	0	508	459	0	0	0	0	
10	0	0	0	0	512	463	0	0	0	0	
11	0	0	0	0	518	467	0	0	0	0	
12	0	0	0	0	524	472	0	0	0	0	
13	0	0	0	0	532	476	0	0	0	0	
14	0	0	0	0	539	480	0	0	0	0	
15	0	0	0	0	545	484	0	0	0	0	
0	0	0	0	0	549	486	0	0	0	0	
1	0	0	0	0	550	485	0	0	0	0	
2	0	0	0	0	547	482	0	0	0	0	
3	0	0	0	0	543	478	0	0	0	0	
4	0	0	0	0	536	472	0	0	0	0	
5	0	0	0	0	527	466	0	0	0	0	
6	0	0	0	0	517	460	0	0	0	0	
7	0	0	0	0	508	454	0	0	0	0	
8	0	0	0	0	499	448	0	0	0	0	
9	0	0	0	0	492	444	0	0	0	0	
10	0	0	0	0	487	441	0	0	0	0	
11	0	0	0	0	483	439	0	0	0	0	
12	0	0	0	0	482	438	0	0	0	0	
13	0	0	0	0	483	438	0	0	0	0	
14	0	0	0	0	486	441	0	0	0	0	
15	0	0	0	0	492	445	0	0	0	0	
0	0	0	0	0	500	452	0	0	0	0	
1	0	0	0	0	511	460	0	0	0	0	
2	0	0	0	0	523	470	0	0	0	0	
3	0	0	0	0	536	481	0	0	0	0	
4	0	0	0	0	550	492	0	0	0	0	
5	0	0	0	0	563	501	0	0	0	0	
6	0	0	0	0	574	509	0	0	0	0	
7	0	0	0	0	582	515	0	0	0	0	
8	0	0	0	0	587	518	0	0	0	0	
9	0	0	0	0	586	518	0	0	0	0	
10	0	0	0	0	582	514	0	0	0	0	
11	0	0	0	0	572	506	0	0	0	0	
12	0	0	0	0	558	496	0	0	0	0	
13	0	0	0	0	542	483	0	0	0	0	
14	0	0	0	0	524	470	0	0	0	0	
15	0	0	0	0	505	455	0	0	0	0	
0	0	0	0	0	488	443	0	0	0	0	
1	0	0	0	0	475	433	0	0	0	0	
2	0	0	0	0	465	426	0	0	0	0	
3	0	0	0	0	463	425	0	0	0	0	
4	0	0	0	0	466	428	0	0	0	0	
5	0	0	0	0	476	436	0	0	0	0	
6	0	0	0	0	491	448	0	0	0	0	
7	0	0	0	0	510	463	0	0	0	0	
8	0	0	0	0	532	481	0	0	0	0	
9	0	0	0	0	555	499	0	0	0	0	
10	0	0	0	0	575	515	0	0	0	0	
11	0	0	0	0	592	527	0	0	0	0	
12	0	0	0	0	603	535	0	0	0	0	
13	0	0	0	0	608	538	0	0	0	0	
14	0	0	0	0	607	536	0	0	0	0	
15	0	0	0	0	600	529	0	0	0	0	
0	0	0	0	0	590	520	0	0	0	0	
1	0	0	0	0	576	508	0	0	0	0	
2	0	0	0	0	561	497	0	0	0	0	
3	0	0	0	0	545	485	0	0	0	0	
4	0	0	0	0	530	474	0	0	0	0	
5	0	0	0	0	516	464	0	0	0	0	
6	0	0	0	0	503	455	0	0	0	0	
7	0	0	0	0	492	448	0	0	0	0	
8	0	0	0	0	484	441	0	0	0	0	
9	0	0	0	0	479	438	0	0	0	0	
10	0	0	0	0	476	436	0	0	0	0	
11	0	0	0	0	476	435	0	0	0	0	
12	0	0	0	0	479	438	0	0	0	0	
13	0	0	0	0	484	441	0	0	0	0	
14	0	0	0	0	491	445	0	0	0	0	
15	0	0	0	0	499	450	0	0	0	0	
0	0	0	0	0	508	456	0	0	0	0	
1	0	0	0	0	517	463	0	0	0	0	
2	0	0	0	0	527	469	0	0	0	0	
3	0	0	0	0	536	475	0	0	0	0	
4	0	0	0	0	544	481	0	0	0	0	
5	0	0	0	0	551	486	0	0	0	0	
6	0	0	0	0	556	490	0	0	0	0	
7	0	0	0	0	557	491	0	0	0	0	
8	0	0	0	0	556	490	0	0	0	0	
9	0	0	0	0	551	487	0	0	0	0	
10	0	0	0	0	543	482	0	0	0	0	
11	0	0	0	0	533	475	0	0	0	0	
12	0	0	0	0	520	467	0	0	0	0	
13	0	0	0	0	507	457	0	0	0	0	
14	0	0	0	0	495	449	0	0	0	0	
15	0	0	0	0	483	441	0	0	0	0	
0	0	0	0	0	475	436	0	0	0	0	
1	0	0	0	0	468	432	0	0	0	0	
2	0	0	0	0	466	431	0	0	0	0	
3	0	0	0	0	467	432	0	0	0	0	
4	0	0	0	0	472	436	0	0	0	0	
5	0	0	0	0	480	442	0	0	0	0	
6	0	0	0	0	491	449	0	0	0	0	
7	0	0	0	0	502	456	0	0	0	0	
8	0	0	0	0	514	465	0	0	0	0	
9	0	0	0	0	526	472	0	0	0	0	
10	0	0	0	0	538	480	0	0	0	0	
11	0	0	0	0	547	486	0	0	0	0	
12	0	0	0	0	556	491	0	0	0	0	
13	0	0	0	0	562	496	0	0	0	0	
14	0	0	0	0	566	499	0	0	0	0	
15	0	0	0	0	568	501	0	0	0	0	
0	0	0	0	0	568	501	0	0	0	0	
1	0	0	0	0	567	502	0	0	0	0	
2	0	0	0	0	566	503	0	0	0	0	
3	0	0	0	0	563	502	0	0	0	0	
4	0	0	0	0	559	500	0	0	0	0	
5	0	0	0	0	554	497	0	0	0	0	
6	0	0	0	0	547	493	0	0	0	0	
7	0	0	0	0	540	487	0	0	0	0	
8	0	0	0	0	533	482	0	0	0	0	
9	0	0	0	0	526	476	0	0	0	0	
10	0	0	0	0	520	472	0	0	0	0	
11	0	0	0	0	517	469	0	0	0	0	
12	0	0	0	0	516	468	0	0	0	0	
13	0	0	0	0	520	471	0	0	0	0	
14	0	0	0	0	528	478	0	0	0	0	
15	0	0	0	0	538	486	0	0	0	0	
0	0	0	0	0	551	496	0	0	0	0	
1	0	0	0	0	564	507	0	0	0	0	
2	0	0	0	0	577	517	0	0	0	0	
3	0	0	0	0	589	526	0	0	0	0	
4	0	0	0	0	596	531	0	0	0	0	
5	0	0	0	0	598	531	0	0	0	0	
6	0	0	0	0	595	529	0	0	0	0	
7	0	0	0	0	587	523	0	0	0	0	
8	0	0	0	0	575	513	0	0	0	0	
9	0	0	0	0	560	502	0	0	0	0	
10	0	0	0	0	544	490	0	0	0	0	
11	0	0	0	0	528	479	0	0	0	0	
12	0	0	0	0	516	470	0	0	0	0	
13	0	0	0	0	507	463	0	0	0	0	
14	0	0	0	0	502	459	0	0	0	0	
15	0	0	0	0	499	457	0	0	0	0	
0	0	0	0	0	499	456	0	0	0	0	
1	0	0	0	0	500	455	0	0	0	0	
2	0	0	0	0	502	455	0	0	0	0	
3	0	0	0	0	504	454	0	0	0	0	
4	0	0	0	0	507	455	0	0	0	0	
5	0	0	0	0	509	456	0	0	0	0	
6	0	0	0	0	512	457	0	0	0	0	
7	0	0	0	0	515	460	0	0	0	0	
8	0	0	0	0	518	461	0	0	0	0	
9	0	0	0	0	520	463	0	0	0	0	
10	0	0	0	0	523	466	0	0	0	0	
11	0	0	0	0	524	468	0	0	0	0	
12	0	0	0	0	526	471	0	0	0	0	
13	0	0	0	0	527	473	0	0	0	0	
14	0	0	0	0	527	475	0	0	0	0	
15	0	0	0	0	527	477	0	0	0	0	
0	0	0	0	0	527	476	0	0	0	0	
1	0	0	0	0	524	475	0	0	0	0	
2	0	0	0	0	520	471	0	0	0	0	
3	0	0	0	0	515	467	0	0	0	0	
4	0	0	0	0	510	461	0	0	0	0	
5	0	0	0	0	505	455	0	0	0	0	
6	0	0	0	0	500	450	0	0	0	0	
7	0	0	0	0	496	444	0	0	0	0	
8	0	0	0	0	492	440	0	0	0	0	
9	0	0	0	0	489	437	0	0	0	0	
10	0	0	0	0	488	435	0	0	0	0	
11	0	0	0	0	489	436	0	0	0	0	
12	0	0	0	0	493	439	0	0	0	0	
13	0	0	0	0	498	444	0	0	0	0	
14	0	0	0	0	505	451	0	0	0	0	
15	0	0	0	0	513	457	0	0	0	0	
0	0	0	0	0	522	465	0	0	0	0	
1	0	0	0	0	531	473	0	0	0	0	
2	0	0	0	0	540	481	0	0	0	0	
3	0	0	0	0	547	487	0	0	0	0	
4	0	0	0	0	556	494	0	0	0	0	
5	0	0	0	0	562	500	0	0	0	0	
6	0	0	0	0	567	505	0	0	0	0	
7	0	0	0	0	570	509	0	0	0	0	
8	0	0	0	0	572	511	0	0	0	0	
9	0	0	0	0	572	512	0	0	0	0	
10	0	0	0	0	570	512	0	0	0	0	
11	0	0	0	0	567	510	0	0	0	0	
12	0	0	0	0	561	507	0	0	0	0	
13	0	0	0	0	555	502	0	0	0	0	
14	0	0	0	0	548	497	0	0	0	0	
15	0	0	0	0	541	491	0	0	0	0	
0	0	0	0	0	534	486	0	0	0	0	
1	0	0	0	0	529	481	0	0	0	0	
2	0	0	0	0	524	478	0	0	0	0	
3	0	0	0	0	522	476	0	0	0	0	
4	0	0	0	0	522	476	0	0	0	0	
5	0	0	0	0	524	478	0	0	0	0	
6	0	0	0	0	529	482	0	0	0	0	
7	0	0	0	0	536	487	0	0	0	0	
8	0	0	0	0	544	494	0	0	0	0	
9	0	0	0	0	553	501	0	0	0	0	
10	0	0	0	0	563	508	0	0	0	0	
11	0	0	0	0	574	516	0	0	0	0	
12	0	0	0	0	582	521	0	0	0	0	
13	0	0	0	0	588	525	0	0	0	0	
14	0	0	0	0	591	527	0	0	0	0	
15	0	0	0	0	592	526	0	0	0	0	
0	0	0	0	0	589	523	0	0	0	0	
1	0	0	0	0	584	518	0	0	0	0	
2	0	0	0	0	576	512	0	0	0	0	
3	0	0	0	0	566	505	0	0	0	0	
4	0	0	0	0	556	497	0	0	0	0	
5	0	0	0	0	543	488	0	0	0	0	
6	0	0	0	0	531	480	0	0	0	0	
7	0	0	0	0	520	472	0	0	0	0	
8	0	0	0	0	510	464	0	0	0	0	
9	0	0	0	0	502	457	0	0	0	0	
10	0	0	0	0	494	451	0	0	0	0	
11	0	0	0	0	487	445	0	0	0	0	
12	0	0	0	0	483	440	0	0	0	0	
13	0	0	0	0	480	437	0	0	0	0	
14	0	0	0	0	478	434	0	0	0	0	
15	0	0	0	0	478	431	0	0	0	0	
0	0	0	0	0	480	431	0	0	0	0	
1	0	0	0	0	482	431	0	0	0	0	
2	0	0	0	0	486	431	0	0	0	0	
3	0	0	0	0	489	431	0	0	0	0	
4	0	0	0	0	492	430	0	0	0	0	
5	0	0	0	0	492	428	0	0	0	0	
6	0	0	0	0	491	425	0	0	0	0	
7	0	0	0	0	487	421	0	0	0	0	
8	0	0	0	0	481	414	0	0	0	0	
9	0	0	0	0	472	404	0	0	0	0	
10	0	0	0	0	457	393	0	0	0	0	
11	0	0	0	0	440	377	0	0	0	0	
12	0	0	0	0	418	360	0	0	0	0	
13	0	0	0	0	394	340	0	0	0	0	
14	0	0	0	0	369	320	0	0	0	0	
15	0	0	0	0	344	300	0	0	0	0	
0	0	0	0	0	319	280	0	0	0	0	
1	0	0	0	0	298	263	0	0	0	0	
2	0	0	0	0	282	248	0	0	0	0	
3	0	0	0	0	270	238	0	0	0	0	
4	0	0	0	0	263	230	0	0	0	0	
5	0	0	0	0	261	226	0	0	0	0	
6	0	0	0	0	264	226	0	0	0	0	
7	0	0	0	0	272	230	0	0	0	0	
8	0	0	0	0	284	237	0	0	0	0	
9	0	0	0	0	299	246	0	0	0	0	
10	0	0	0	0	316	258	0	0	0	0	
11	0	0	0	0	336	273	0	0	0	0	
12	0	0	0	0	358	291	0	0	0	0	
13	0	0	0	0	382	311	0	0	0	0	
14	0	0	0	0	407	333	0	0	0	0	
15	0	0	0	0	433	357	0	0	0	0	
0	0	0	0	0	460	382	0	0	0	0	
1	0	0	0	0	484	405	0	0	0	0	
2	0	0	0	0	508	428	0	0	0	0	
3	0	0	0	0	529	450	0	0	0	0	
4	0	0	0	0	547	469	0	0	0	0	
5	0	0	0	0	562	487	0	0	0	0	
6	0	0	0	0	574	500	0	0	0	0	
7	0	0	0	0	581	511	0	0	0	0	
8	0	0	0	0	585	517	0	0	0	0	
9	0	0	0	0	587	521	0	0	0	0	
10	0	0	0	0	585	524	0	0	0	0	
11	0	0	0	0	583	524	0	0	0	0	
12	0	0	0	0	579	524	0	0	0	0	
13	0	0	0	0	576	523	0	0	0	0	
14	0	0	0	0	574	522	0	0	0	0	
15	0	0	0	0	572	522	0	0	0	0	
0	0	0	0	0	570	521	0	0	0	0	
1	0	0	0	0	568	520	0	0	0	0	
2	0	0	0	0	568	519	0	0	0	0	
3	0	0	0	0	567	517	0	0	0	0	
4	0	0	0	0	565	515	0	0	0	0	
5	0	0	0	0	563	511	0	0	0	0	
6	0	0	0	0	561	507	0	0	0	0	
7	0	0	0	0	559	503	0	0	0	0	
8	0	0	0	0	556	498	0	0	0	0	
9	0	0	0	0	553	495	0	0	0	0	
10	0	0	0	0	551	491	0	0	0	0	
11	0	0	0	0	549	488	0	0	0	0	
12	0	0	0	0	548	487	0	0	0	0	
13	0	0	0	0	549	487	0	0	0	0	
14	0	0	0	0	551	489	0	0	0	0	
15	0	0	0	0	555	492	0	0	0	0	
0	0	0	0	0	560	498	0	0	0	0	
1	0	0	0	0	566	505	0	0	0	0	
2	0	0	0	0	574	513	0	0	0	0	
3	0	0	0	0	582	523	0	0	0	0	
4	0	0	0	0	592	534	0	0	0	0	
5	0	0	0	0	603	545	0	0	0	0	
6	0	0	0	0	614	556	0	0	0	0	
7	0	0	0	0	624	566	0	0	0	0	
8	0	0	0	0	632	574	0	0	0	0	
9	0	0	0	0	635	577	0	0	0	0	
10	0	0	0	0	634	576	0	0	0	0	
11	0	0	0	0	627	571	0	0	0	0	
12	0	0	0	0	617	561	0	0	0	0	
13	0	0	0	0	603	548	0	0	0	0	
14	0	0	0	0	585	532	0	0	0	0	
15	0	0	0	0	567	516	0	0	0	0	
0	0	0	0	0	548	500	0	0	0	0	
1	0	0	0	0	532	487	0	0	0	0	
2	0	0	0	0	519	477	0	0	0	0	
3	0	0	0	0	511	471	0	0	0	0	
4	0	0	0	0	509	468	0	0	0	0	
5	0	0	0	0	511	470	0	0	0	0	
6	0	0	0	0	517	475	0	0	0	0	
7	0	0	0	0	527	483	0	0	0	0	
8	0	0	0	0	538	491	0	0	0	0	
9	0	0	0	0	550	499	0	0	0	0	
10	0	0	0	0	562	507	0	0	0	0	
11	0	0	0	0	573	514	0	0	0	0	
12	0	0	0	0	581	519	0	0	0	0	
13	0	0	0	0	586	522	0	0	0	0	
14	0	0	0	0	588	523	0	0	0	0	
15	0	0	0	0	588	522	0	0	0	0	
0	0	0	0	0	585	519	0	0	0	0	
1	0	0	0	0	580	516	0	0	0	0	
2	0	0	0	0	572	510	0	0	0	0	
3	0	0	0	0	563	503	0	0	0	0	
4	0	0	0	0	551	496	0	0	0	0	
5	0	0	0	0	540	488	0	0	0	0	
6	0	0	0	0	529	481	0	0	0	0	
7	0	0	0	0	520	475	0	0	0	0	
8	0	0	0	0	513	470	0	0	0	0	
9	0	0	0	0	508	467	0	0	0	0	
10	0	0	0	0	508	466	0	0	0	0	
11	0	0	0	0	510	468	0	0	0	0	
12	0	0	0	0	516	472	0	0	0	0	
13	0	0	0	0	525	478	0	0	0	0	
14	0	0	0	0	537	487	0	0	0	0	
15	0	0	0	0	550	496	0	0	0	0	
0	0	0	0	0	564	507	0	0	0	0	
1	0	0	0	0	579	518	0	0	0	0	
2	0	0	0	0	592	527	0	0	0	0	
3	0	0	0	0	604	537	0	0	0	0	
4	0	0	0	0	613	545	0	0	0	0	
5	0	0	0	0	619	551	0	0	0	0	
6	0	0	0	0	622	553	0	0	0	0	
7	0	0	0	0	621	554	0	0	0	0	
8	0	0	0	0	617	552	0	0	0	0	
9	0	0	0	0	612	550	0	0	0	0	
10	0	0	0	0	604	546	0	0	0	0	
11	0	0	0	0	595	541	0	0	0	0	
12	0	0	0	0	587	536	0	0	0	0	
13	0	0	0	0	579	531	0	0	0	0	
14	0	0	0	0	572	526	0	0	0	0	
15	0	0	0	0	566	522	0	0	0	0	
0	0	0	0	0	560	516	0	0	0	0	
1	0	0	0	0	556	512	0	0	0	0	
2	0	0	0	0	551	507	0	0	0	0	
3	0	0	0	0	548	502	0	0	0	0	
4	0	0	0	0	546	499	0	0	0	0	
5	0	0	0	0	545	496	0	0	0	0	
6	0	0	0	0	547	496	0	0	0	0	
7	0	0	0	0	551	498	0	0	0	0	
8	0	0	0	0	556	502	0	0	0	0	
9	0	0	0	0	564	509	0	0	0	0	
10	0	0	0	0	572	516	0	0	0	0	
11	0	0	0	0	581	524	0	0	0	0	
12	0	0	0	0	589	531	0	0	0	0	
13	0	0	0	0	595	537	0	0	0	0	
14	0	0	0	0	599	540	0	0	0	0	
15	0	0	0	0	601	542	0	0	0	0	
0	0	0	0	0	599	540	0	0	0	0	
1	0	0	0	0	594	536	0	0	0	0	
2	0	0	0	0	588	531	0	0	0	0	
3	0	0	0	0	580	525	0	0	0	0	
4	0	0	0	0	570	517	0	0	0	0	
5	0	0	0	0	559	508	0	0	0	0	
6	0	0	0	0	548	500	0	0	0	0	
7	0	0	0	0	537	492	0	0	0	0	
8	0	0	0	0	527	484	0	0	0	0	
9	0	0	0	0	519	477	0	0	0	0	
10	0	0	0	0	513	472	0	0	0	0	
11	0	0	0	0	508	467	0	0	0	0	
12	0	0	0	0	505	464	0	0	0	0	
13	0	0	0	0	505	463	0	0	0	0	
14	0	0	0	0	507	462	0	0	0	0	
15	0	0	0	0	510	463	0	0	0	0	
0	0	0	0	0	514	465	0	0	0	0	
1	0	0	0	0	520	467	0	0	0	0	
2	0	0	0	0	526	470	0	0	0	0	
3	0	0	0	0	532	473	0	0	0	0	
4	0	0	0	0	539	477	0	0	0	0	
5	0	0	0	0	544	481	0	0	0	0	
6	0	0	0	0	550	485	0	0	0	0	
7	0	0	0	0	555	491	0	0	0	0	
8	0	0	0	0	559	495	0	0	0	0	
9	0	0	0	0	563	500	0	0	0	0	
10	0	0	0	0	566	504	0	0	0	0	
11	0	0	0	0	568	507	0	0	0	0	
12	0	0	0	0	569	510	0	0	0	0	
13	0	0	0	0	569	512	0	0	0	0	
14	0	0	0	0	568	512	0	0	0	0	
15	0	0	0	0	568	513	0	0	0	0	
0	0	0	0	0	566	513	0	0	0	0	
1	0	0	0	0	565	512	0	0	0	0	
2	0	0	0	0	563	511	0	0	0	0	
3	0	0	0	0	561	510	0	0	0	0	
4	0	0	0	0	559	507	0	0	0	0	
5	0	0	0	0	556	504	0	0	0	0	
6	0	0	0	0	553	502	0	0	0	0	
7	0	0	0	0	551	499	0	0	0	0	
8	0	0	0	0	549	497	0	0	0	0	
9	0	0	0	0	549	497	0	0	0	0	
10	0	0	0	0	551	498	0	0	0	0	
11	0	0	0	0	555	502	0	0	0	0	
12	0	0	0	0	560	505	0	0	0	0	
13	0	0	0	0	566	511	0	0	0	0	
14	0	0	0	0	572	516	0	0	0	0	
15	0	0	0	0	578	521	0	0	0	0	
0	0	0	0	0	582	525	0	0	0	0	
1	0	0	0	0	584	527	0	0	0	0	
2	0	0	0	0	584	527	0	0	0	0	
3	0	0	0	0	582	525	0	0	0	0	
4	0	0	0	0	578	522	0	0	0	0	
5	0	0	0	0	572	517	0	0	0	0	
6	0	0	0	0	565	510	0	0	0	0	
7	0	0	0	0	557	503	0	0	0	0	
8	0	0	0	0	548	495	0	0	0	0	
9	0	0	0	0	540	487	0	0	0	0	
10	0	0	0	0	533	481	0	0	0	0	
11	0	0	0	0	527	476	0	0	0	0	
12	0	0	0	0	525	474	0	0	0	0	
13	0	0	0	0	524	474	0	0	0	0	
14	0	0	0	0	527	476	0	0	0	0	
15	0	0	0	0	531	480	0	0	0	0	
0	0	0	0	0	537	484	0	0	0	0	
1	0	0	0	0	544	489	0	0	0	0	
2	0	0	0	0	551	496	0	0	0	0	
3	0	0	0	0	558	501	0	0	0	0	
4	0	0	0	0	565	508	0	0	0	0	
5	0	0	0	0	571	513	0	0	0	0	
6	0	0	0	0	577	518	0	0	0	0	
7	0	0	0	0	582	522	0	0	0	0	
8	0	0	0	0	585	524	0	0	0	0	
9	0	0	0	0	587	526	0	0	0	0	
10	0	0	0	0	587	524	0	0	0	0	
11	0	0	0	0	586	522	0	0	0	0	
12	0	0	0	0	584	520	0	0	0	0	
13	0	0	0	0	582	517	0	0	0	0	
14	0	0	0	0	580	516	0	0	0	0	
15	0	0	0	0	580	516	0	0	0	0	
0	0	0	0	0	582	518	0	0	0	0	
1	0	0	0	0	583	520	0	0	0	0	
2	0	0	0	0	585	521	0	0	0	0	
3	0	0	0	0	585	523	0	0	0	0	
4	0	0	0	0	582	521	0	0	0	0	
5	0	0	0	0	577	518	0	0	0	0	
6	0	0	0	0	571	512	0	0	0	0	
7	0	0	0	0	561	505	0	0	0	0	
8	0	0	0	0	552	497	0	0	0	0	
9	0	0	0	0	542	489	0	0	0	0	
10	0	0	0	0	532	481	0	0	0	0	
11	0	0	0	0	524	475	0	0	0	0	
12	0	0	0	0	516	468	0	0	0	0	
13	0	0	0	0	509	463	0	0	0	0	
14	0	0	0	0	504	458	0	0	0	0	
15	0	0	0	0	501	455	0	0	0	0	
0	0	0	0	0	499	452	0	0	0	0	
1	0	0	0	0	499	451	0	0	0	0	
2	0	0	0	0	502	451	0	0	0	0	
3	0	0	0	0	506	452	0	0	0	0	
4	0	0	0	0	511	455	0	0	0	0	
5	0	0	0	0	517	459	0	0	0	0	
6	0	0	0	0	524	463	0	0	0	0	
7	0	0	0	0	530	468	0	0	0	0	
8	0	0	0	0	537	473	0	0	0	0	
9	0	0	0	0	543	478	0	0	0	0	
10	0	0	0	0	547	481	0	0	0	0	
11	0	0	0	0	550	485	0	0	0	0	
12	0	0	0	0	552	488	0	0	0	0	
13	0	0	0	0	553	490	0	0	0	0	
14	0	0	0	0	554	492	0	0	0	0	
15	0	0	0	0	554	493	0	0	0	0	
0	0	0	0	0	554	495	0	0	0	0	
1	0	0	0	0	555	497	0	0	0	0	
2	0	0	0	0	556	500	0	0	0	0	
3	0	0	0	0	558	502	0	0	0	0	
4	0	0	0	0	558	503	0	0	0	0	
5	0	0	0	0	557	502	0	0	0	0	
6	0	0	0	0	553	499	0	0	0	0	
7	0	0	0	0	549	495	0	0	0	0	
8	0	0	0	0	543	489	0	0	0	0	
9	0	0	0	0	536	483	0	0	0	0	
10	0	0	0	0	529	477	0	0	0	0	
11	0	0	0	0	524	473	0	0	0	0	
12	0	0	0	0	521	469	0	0	0	0	
13	0	0	0	0	520	468	0	0	0	0	
14	0	0	0	0	521	469	0	0	0	0	
15	0	0	0	0	524	472	0	0	0	0	
0	0	0	0	0	528	475	0	0	0	0	
1	0	0	0	0	533	480	0	0	0	0	
2	0	0	0	0	539	485	0	0	0	0	
3	0	0	0	0	544	489	0	0	0	0	
4	0	0	0	0	550	495	0	0	0	0	
5	0	0	0	0	557	501	0	0	0	0	
6	0	0	0	0	563	506	0	0	0	0	
7	0	0	0	0	568	511	0	0	0	0	
8	0	0	0	0	574	516	0	0	0	0	
9	0	0	0	0	579	520	0	0	0	0	
10	0	0	0	0	582	523	0	0	0	0	
11	0	0	0	0	584	525	0	0	0	0	
12	0	0	0	0	586	526	0	0	0	0	
13	0	0	0	0	587	527	0	0	0	0	
14	0	0	0	0	588	528	0	0	0	0	
15	0	0	0	0	589	529	0	0	0	0	
0	0	0	0	0	591	531	0	0	0	0	
1	0	0	0	0	592	532	0	0	0	0	
2	0	0	0	0	593	534	0	0	0	0	
3	0	0	0	0	594	536	0	0	0	0	
4	0	0	0	0	595	537	0	0	0	0	
5	0	0	0	0	594	536	0	0	0	0	
6	0	0	0	0	591	534	0	0	0	0	
7	0	0	0	0	588	531	0	0	0	0	
8	0	0	0	0	581	525	0	0	0	0	
9	0	0	0	0	574	519	0	0	0	0	
10	0	0	0	0	566	511	0	0	0	0	
11	0	0	0	0	559	505	0	0	0	0	
12	0	0	0	0	553	500	0	0	0	0	
13	0	0	0	0	550	498	0	0	0	0	
14	0	0	0	0	549	497	0	0	0	0	
15	0	0	0	0	552	499	0	0	0	0	
0	0	0	0	0	558	503	0	0	0	0	
1	0	0	0	0	564	508	0	0	0	0	
2	0	0	0	0	572	513	0	0	0	0	
3	0	0	0	0	577	516	0	0	0	0	
4	0	0	0	0	579	515	0	0	0	0	
5	0	0	0	0	575	510	0	0	0	0	
6	0	0	0	0	567	502	0	0	0	0	
7	0	0	0	0	554	491	0	0	0	0	
8	0	0	0	0	538	478	0	0	0	0	
9	0	0	0	0	520	463	0	0	0	0	
10	0	0	0	0	504	450	0	0	0	0	
11	0	0	0	0	488	439	0	0	0	0	
12	0	0	0	0	476	430	0	0	0	0	
13	0	0	0	0	467	424	0	0	0	0	
14	0	0	0	0	464	422	0	0	0	0	
15	0	0	0	0	465	423	0	0	0	0	
0	0	0	0	0	469	427	0	0	0	0	
1	0	0	0	0	476	432	0	0	0	0	
2	0	0	0	0	486	438	0	0	0	0	
3	0	0	0	0	495	444	0	0	0	0	
4	0	0	0	0	504	449	0	0	0	0	
5	0	0	0	0	513	455	0	0	0	0	
6	0	0	0	0	522	460	0	0	0	0	
7	0	0	0	0	529	466	0	0	0	0	
8	0	0	0	0	536	469	0	0	0	0	
9	0	0	0	0	540	472	0	0	0	0	
10	0	0	0	0	544	475	0	0	0	0	
11	0	0	0	0	545	476	0	0	0	0	
12	0	0	0	0	544	476	0	0	0	0	
13	0	0	0	0	543	475	0	0	0	0	
14	0	0	0	0	540	474	0	0	0	0	
15	0	0	0	0	537	473	0	0	0	0	
0	0	0	0	0	535	473	0	0	0	0	
1	0	0	0	0	533	474	0	0	0	0	
2	0	0	0	0	533	476	0	0	0	0	
3	0	0	0	0	535	478	0	0	0	0	
4	0	0	0	0	537	482	0	0	0	0	
5	0	0	0	0	541	485	0	0	0	0	
6	0	0	0	0	545	489	0	0	0	0	
7	0	0	0	0	549	491	0	0	0	0	
8	0	0	0	0	552	493	0	0	0	0	
9	0	0	0	0	553	493	0	0	0	0	
10	0	0	0	0	554	492	0	0	0	0	
11	0	0	0	0	553	491	0	0	0	0	
12	0	0	0	0	550	487	0	0	0	0	
13	0	0	0	0	545	483	0	0	0	0	
14	0	0	0	0	541	480	0	0	0	0	
15	0	0	0	0	535	476	0	0	0	0	
0	0	0	0	0	531	473	0	0	0	0	
1	0	0	0	0	526	469	0	0	0	0	
2	0	0	0	0	522	467	0	0	0	0	
3	0	0	0	0	519	465	0	0	0	0	
4	0	0	0	0	516	463	0	0	0	0	
5	0	0	0	0	515	463	0	0	0	0	
6	0	0	0	0	514	463	0	0	0	0	
7	0	0	0	0	514	463	0	0	0	0	
8	0	0	0	0	515	463	0	0	0	0	
9	0	0	0	0	516	464	0	0	0	0	
10	0	0	0	0	518	466	0	0	0	0	
11	0	0	0	0	520	466	0	0	0	0	
12	0	0	0	0	523	468	0	0	0	0	
13	0	0	0	0	527	471	0	0	0	0	
14	0	0	0	0	532	475	0	0	0	0	
15	0	0	0	0	540	481	0	0	0	0	
0	0	0	0	0	548	489	0	0	0	0	
1	0	0	0	0	559	498	0	0	0	0	
2	0	0	0	0	572	510	0	0	0	0	
3	0	0	0	0	585	521	0	0	0	0	
4	0	0	0	0	599	533	0	0	0	0	
5	0	0	0	0	611	544	0	0	0	0	
6	0	0	0	0	621	553	0	0	0	0	
7	0	0	0	0	629	561	0	0	0	0	
8	0	0	0	0	635	567	0	0	0	0	
9	0	0	0	0	636	569	0	0	0	0	
10	0	0	0	0	635	569	0	0	0	0	
11	0	0	0	0	630	567	0	0	0	0	
12	0	0	0	0	620	561	0	0	0	0	
13	0	0	0	0	609	553	0	0	0	0	
14	0	0	0	0	595	543	0	0	0	0	
15	0	0	0	0	579	531	0	0	0	0	
0	0	0	0	0	562	519	0	0	0	0	
1	0	0	0	0	546	507	0	0	0	0	
2	0	0	0	0	532	496	0	0	0	0	
3	0	0	0	0	520	486	0	0	0	0	
4	0	0	0	0	511	477	0	0	0	0	
5	0	0	0	0	504	469	0	0	0	0	
6	0	0	0	0	498	463	0	0	0	0	
7	0	0	0	0	495	457	0	0	0	0	
8	0	0	0	0	492	451	0	0	0	0	
9	0	0	0	0	490	447	0	0	0	0	
10	0	0	0	0	488	443	0	0	0	0	
11	0	0	0	0	487	439	0	0	0	0	
12	0	0	0	0	486	436	0	0	0	0	
13	0	0	0	0	486	435	0	0	0	0	
14	0	0	0	0	486	433	0	0	0	0	
15	0	0	0	0	485	431	0	0	0	0	
0	0	0	0	0	484	429	0	0	0	0	
1	0	0	0	0	484	428	0	0	0	0	
2	0	0	0	0	484	429	0	0	0	0	
3	0	0	0	0	485	430	0	0	0	0	
4	0	0	0	0	487	432	0	0	0	0	
5	0	0	0	0	491	436	0	0	0	0	
6	0	0	0	0	497	442	0	0	0	0	
7	0	0	0	0	503	449	0	0	0	0	
8	0	0	0	0	511	456	0	0	0	0	
9	0	0	0	0	519	465	0	0	0	0	
10	0	0	0	0	527	473	0	0	0	0	
11	0	0	0	0	534	480	0	0	0	0	
12	0	0	0	0	541	487	0	0	0	0	
13	0	0	0	0	547	492	0	0	0	0	
14	0	0	0	0	551	496	0	0	0	0	
15	0	0	0	0	554	499	0	0	0	0	
0	0	0	0	0	555	501	0	0	0	0	
1	0	0	0	0	555	502	0	0	0	0	
2	0	0	0	0	552	500	0	0	0	0	
3	0	0	0	0	550	498	0	0	0	0	
4	0	0	0	0	547	496	0	0	0	0	
5	0	0	0	0	544	495	0	0	0	0	
6	0	0	0	0	543	494	0	0	0	0	
7	0	0	0	0	542	493	0	0	0	0	
8	0	0	0	0	542	493	0	0	0	0	
9	0	0	0	0	543	495	0	0	0	0	
10	0	0	0	0	545	496	0	0	0	0	
11	0	0	0	0	547	498	0	0	0	0	
12	0	0	0	0	550	499	0	0	0	0	
13	0	0	0	0	551	502	0	0	0	0	
14	0	0	0	0	553	502	0	0	0	0	
15	0	0	0	0	554	502	0	0	0	0	
0	0	0	0	0	554	502	0	0	0	0	
1	0	0	0	0	552	501	0	0	0	0	
2	0	0	0	0	551	500	0	0	0	0	
3	0	0	0	0	551	500	0	0	0	0	
4	0	0	0	0	553	502	0	0	0	0	
5	0	0	0	0	556	504	0	0	0	0	
6	0	0	0	0	560	508	0	0	0	0	
7	0	0	0	0	566	513	0	0	0	0	
8	0	0	0	0	573	518	0	0	0	0	
9	0	0	0	0	578	521	0	0	0	0	
10	0	0	0	0	580	523	0	0	0	0	
11	0	0	0	0	579	520	0	0	0	0	
12	0	0	0	0	574	514	0	0	0	0	
13	0	0	0	0	565	506	0	0	0	0	
14	0	0	0	0	553	496	0	0	0	0	
15	0	0	0	0	540	485	0	0	0	0	
0	0	0	0	0	527	476	0	0	0	0	
1	0	0	0	0	516	467	0	0	0	0	
2	0	0	0	0	508	462	0	0	0	0	
3	0	0	0	0	503	459	0	0	0	0	
4	0	0	0	0	501	460	0	0	0	0	
5	0	0	0	0	504	463	0	0	0	0	
6	0	0	0	0	508	467	0	0	0	0	
7	0	0	0	0	516	475	0	0	0	0	
8	0	0	0	0	527	483	0	0	0	0	
9	0	0	0	0	539	492	0	0	0	0	
10	0	0	0	0	550	501	0	0	0	0	
11	0	0	0	0	561	509	0	0	0	0	
12	0	0	0	0	570	515	0	0	0	0	
13	0	0	0	0	576	518	0	0	0	0	
14	0	0	0	0	579	519	0	0	0	0	
15	0	0	0	0	579	517	0	0	0	0	
0	0	0	0	0	576	515	0	0	0	0	
1	0	0	0	0	570	508	0	0	0	0	
2	0	0	0	0	562	501	0	0	0	0	
3	0	0	0	0	552	493	0	0	0	0	
4	0	0	0	0	541	484	0	0	0	0	
5	0	0	0	0	529	476	0	0	0	0	
6	0	0	0	0	518	468	0	0	0	0	
7	0	0	0	0	508	461	0	0	0	0	
8	0	0	0	0	499	455	0	0	0	0	
9	0	0	0	0	492	449	0	0	0	0	
10	0	0	0	0	487	446	0	0	0	0	
11	0	0	0	0	483	444	0	0	0	0	
12	0	0	0	0	483	443	0	0	0	0	
13	0	0	0	0	483	444	0	0	0	0	
14	0	0	0	0	485	446	0	0	0	0	
15	0	0	0	0	488	448	0	0	0	0	
0	0	0	0	0	492	451	0	0	0	0	
1	0	0	0	0	496	454	0	0	0	0	
2	0	0	0	0	501	457	0	0	0	0	
3	0	0	0	0	505	459	0	0	0	0	
4	0	0	0	0	510	461	0	0	0	0	
5	0	0	0	0	514	463	0	0	0	0	
6	0	0	0	0	519	466	0	0	0	0	
7	0	0	0	0	524	469	0	0	0	0	
8	0	0	0	0	528	471	0	0	0	0	
9	0	0	0	0	533	474	0	0	0	0	
10	0	0	0	0	536	476	0	0	0	0	
11	0	0	0	0	540	480	0	0	0	0	
12	0	0	0	0	543	483	0	0	0	0	
13	0	0	0	0	546	487	0	0	0	0	
14	0	0	0	0	551	491	0	0	0	0	
15	0	0	0	0	555	496	0	0	0	0	
0	0	0	0	0	559	501	0	0	0	0	
1	0	0	0	0	563	506	0	0	0	0	
2	0	0	0	0	567	510	0	0	0	0	
3	0	0	0	0	569	512	0	0	0	0	
4	0	0	0	0	569	513	0	0	0	0	
5	0	0	0	0	568	512	0	0	0	0	
6	0	0	0	0	565	510	0	0	0	0	
7	0	0	0	0	560	505	0	0	0	0	
8	0	0	0	0	555	501	0	0	0	0	
9	0	0	0	0	549	496	0	0	0	0	
10	0	0	0	0	544	492	0	0	0	0	
11	0	0	0	0	540	488	0	0	0	0	
12	0	0	0	0	536	486	0	0	0	0	
13	0	0	0	0	534	485	0	0	0	0	
14	0	0	0	0	533	484	0	0	0	0	
15	0	0	0	0	534	485	0	0	0	0	
0	0	0	0	0	536	487	0	0	0	0	
1	0	0	0	0	538	489	0	0	0	0	
2	0	0	0	0	541	491	0	0	0	0	
3	0	0	0	0	543	493	0	0	0	0	
4	0	0	0	0	546	494	0	0	0	0	
5	0	0	0	0	546	493	0	0	0	0	
6	0	0	0	0	544	491	0	0	0	0	
7	0	0	0	0	541	486	0	0	0	0	
8	0	0	0	0	536	481	0	0	0	0	
9	0	0	0	0	530	475	0	0	0	0	
10	0	0	0	0	524	469	0	0	0	0	
11	0	0	0	0	519	464	0	0	0	0	
12	0	0	0	0	514	460	0	0	0	0	
13	0	0	0	0	511	457	0	0	0	0	
14	0	0	0	0	509	455	0	0	0	0	
15	0	0	0	0	509	456	0	0	0	0	
0	0	0	0	0	511	459	0	0	0	0	
1	0	0	0	0	514	462	0	0	0	0	
2	0	0	0	0	518	467	0	0	0	0	
3	0	0	0	0	523	472	0	0	0	0	
4	0	0	0	0	529	476	0	0	0	0	
5	0	0	0	0	535	481	0	0	0	0	
6	0	0	0	0	540	485	0	0	0	0	
7	0	0	0	0	545	489	0	0	0	0	
8	0	0	0	0	550	492	0	0	0	0	
9	0	0	0	0	553	494	0	0	0	0	
10	0	0	0	0	556	495	0	0	0	0	
11	0	0	0	0	557	496	0	0	0	0	
12	0	0	0	0	557	495	0	0	0	0	
13	0	0	0	0	556	494	0	0	0	0	
14	0	0	0	0	554	493	0	0	0	0	
15	0	0	0	0	552	492	0	0	0	0	
0	0	0	0	0	551	492	0	0	0	0	
1	0	0	0	0	551	494	0	0	0	0	
2	0	0	0	0	553	497	0	0	0	0	
3	0	0	0	0	556	501	0	0	0	0	
4	0	0	0	0	560	504	0	0	0	0	
5	0	0	0	0	563	508	0	0	0	0	
6	0	0	0	0	566	511	0	0	0	0	
7	0	0	0	0	570	514	0	0	0	0	
8	0	0	0	0	573	516	0	0	0	0	
9	0	0	0	0	575	517	0	0	0	0	
10	0	0	0	0	577	517	0	0	0	0	
11	0	0	0	0	578	517	0	0	0	0	
12	0	0	0	0	578	516	0	0	0	0	
13	0	0	0	0	577	514	0	0	0	0	
14	0	0	0	0	574	510	0	0	0	0	
15	0	0	0	0	571	506	0	0	0	0	
0	0	0	0	0	565	501	0	0	0	0	
1	0	0	0	0	560	497	0	0	0	0	
2	0	0	0	0	554	492	0	0	0	0	
3	0	0	0	0	547	486	0	0	0	0	
4	0	0	0	0	539	480	0	0	0	0	
5	0	0	0	0	529	473	0	0	0	0	
6	0	0	0	0	520	465	0	0	0	0	
7	0	0	0	0	511	459	0	0	0	0	
8	0	0	0	0	503	452	0	0	0	0	
9	0	0	0	0	497	448	0	0	0	0	
10	0	0	0	0	493	446	0	0	0	0	
11	0	0	0	0	493	446	0	0	0	0	
12	0	0	0	0	495	448	0	0	0	0	
13	0	0	0	0	500	452	0	0	0	0	
14	0	0	0	0	508	458	0	0	0	0	
15	0	0	0	0	516	465	0	0	0	0	
0	0	0	0	0	526	472	0	0	0	0	
1	0	0	0	0	537	480	0	0	0	0	
2	0	0	0	0	547	487	0	0	0	0	
3	0	0	0	0	556	494	0	0	0	0	
4	0	0	0	0	565	501	0	0	0	0	
5	0	0	0	0	572	507	0	0	0	0	
6	0	0	0	0	579	512	0	0	0	0	
7	0	0	0	0	584	517	0	0	0	0	
8	0	0	0	0	588	521	0	0	0	0	
9	0	0	0	0	591	524	0	0	0	0	
10	0	0	0	0	593	526	0	0	0	0	
11	0	0	0	0	593	527	0	0	0	0	
12	0	0	0	0	590	525	0	0	0	0	
13	0	0	0	0	585	521	0	0	0	0	
14	0	0	0	0	577	515	0	0	0	0	
15	0	0	0	0	567	505	0	0	0	0	
0	0	0	0	0	554	496	0	0	0	0	
1	0	0	0	0	540	484	0	0	0	0	
2	0	0	0	0	527	473	0	0	0	0	
3	0	0	0	0	514	463	0	0	0	0	
4	0	0	0	0	504	455	0	0	0	0	
5	0	0	0	0	497	450	0	0	0	0	
6	0	0	0	0	493	448	0	0	0	0	
7	0	0	0	0	493	448	0	0	0	0	
8	0	0	0	0	496	450	0	0	0	0	
9	0	0	0	0	501	453	0	0	0	0	
10	0	0	0	0	507	456	0	0	0	0	
11	0	0	0	0	513	460	0	0	0	0	
12	0	0	0	0	519	463	0	0	0	0	
13	0	0	0	0	524	465	0	0	0	0	
14	0	0	0	0	530	468	0	0	0	0	
15	0	0	0	0	534	469	0	0	0	0	
0	0	0	0	0	536	470	0	0	0	0	
1	0	0	0	0	536	470	0	0	0	0	
2	0	0	0	0	534	467	0	0	0	0	
3	0	0	0	0	528	463	0	0	0	0	
4	0	0	0	0	520	457	0	0	0	0	
5	0	0	0	0	509	450	0	0	0	0	
6	0	0	0	0	496	440	0	0	0	0	
7	0	0	0	0	480	429	0	0	0	0	
8	0	0	0	0	463	416	0	0	0	0	
9	0	0	0	0	444	401	0	0	0	0	
10	0	0	0	0	423	383	0	0	0	0	
11	0	0	0	0	400	363	0	0	0	0	
12	0	0	0	0	376	341	0	0	0	0	
13	0	0	0	0	353	319	0	0	0	0	
14	0	0	0	0	330	295	0	0	0	0	
15	0	0	0	0	308	275	0	0	0	0	
0	0	0	0	0	290	255	0	0	0	0	
1	0	0	0	0	276	239	0	0	0	0	
2	0	0	0	0	266	228	0	0	0	0	
3	0	0	0	0	262	222	0	0	0	0	
4	0	0	0	0	263	219	0	0	0	0	
5	0	0	0	0	268	220	0	0	0	0	
6	0	0	0	0	277	226	0	0	0	0	
7	0	0	0	0	289	235	0	0	0	0	
8	0	0	0	0	304	247	0	0	0	0	
9	0	0	0	0	323	262	0	0	0	0	
10	0	0	0	0	344	280	0	0	0	0	
11	0	0	0	0	367	301	0	0	0	0	
12	0	0	0	0	392	323	0	0	0	0	
13	0	0	0	0	419	348	0	0	0	0	
14	0	0	0	0	447	374	0	0	0	0	
15	0	0	0	0	474	399	0	0	0	0	
0	0	0	0	0	500	424	0	0	0	0	
1	0	0	0	0	524	448	0	0	0	0	
2	0	0	0	0	547	469	0	0	0	0	
3	0	0	0	0	566	487	0	0	0	0	
4	0	0	0	0	580	502	0	0	0	0	
5	0	0	0	0	591	513	0	0	0	0	
6	0	0	0	0	598	521	0	0	0	0	
7	0	0	0	0	601	526	0	0	0	0	
8	0	0	0	0	600	526	0	0	0	0	
9	0	0	0	0	595	524	0	0	0	0	
10	0	0	0	0	588	520	0	0	0	0	
11	0	0	0	0	579	516	0	0	0	0	
12	0	0	0	0	571	511	0	0	0	0	
13	0	0	0	0	563	508	0	0	0	0	
14	0	0	0	0	559	507	0	0	0	0	
15	0	0	0	0	557	507	0	0	0	0	
0	0	0	0	0	558	511	0	0	0	0	
1	0	0	0	0	561	515	0	0	0	0	
2	0	0	0	0	567	521	0	0	0	0	
3	0	0	0	0	574	528	0	0	0	0	
4	0	0	0	0	580	534	0	0	0	0	
5	0	0	0	0	586	539	0	0	0	0	
6	0	0	0	0	591	543	0	0	0	0	
7	0	0	0	0	593	544	0	0	0	0	
8	0	0	0	0	593	544	0	0	0	0	
9	0	0	0	0	592	543	0	0	0	0	
10	0	0	0	0	589	540	0	0	0	0	
11	0	0	0	0	584	536	0	0	0	0	
12	0	0	0	0	580	531	0	0	0	0	
13	0	0	0	0	574	527	0	0	0	0	
14	0	0	0	0	569	522	0	0	0	0	
15	0	0	0	0	565	519	0	0	0	0	
0	0	0	0	0	562	517	0	0	0	0	
1	0	0	0	0	561	515	0	0	0	0	
2	0	0	0	0	560	513	0	0	0	0	
3	0	0	0	0	560	513	0	0	0	0	
4	0	0	0	0	561	512	0	0	0	0	
5	0	0	0	0	560	510	0	0	0	0	
6	0	0	0	0	558	506	0	0	0	0	
7	0	0	0	0	556	502	0	0	0	0	
8	0	0	0	0	552	498	0	0	0	0	
9	0	0	0	0	548	493	0	0	0	0	
10	0	0	0	0	544	489	0	0	0	0	
11	0	0	0	0	541	486	0	0	0	0	
12	0	0	0	0	539	483	0	0	0	0	
13	0	0	0	0	537	482	0	0	0	0	
14	0	0	0	0	538	483	0	0	0	0	
15	0	0	0	0	540	486	0	0	0	0	
0	0	0	0	0	543	490	0	0	0	0	
1	0	0	0	0	549	496	0	0	0	0	
2	0	0	0	0	556	504	0	0	0	0	
3	0	0	0	0	567	513	0	0	0	0	
4	0	0	0	0	578	524	0	0	0	0	
5	0	0	0	0	590	535	0	0	0	0	
6	0	0	0	0	603	545	0	0	0	0	
7	0	0	0	0	615	556	0	0	0	0	
8	0	0	0	0	625	564	0	0	0	0	
9	0	0	0	0	631	569	0	0	0	0	
10	0	0	0	0	632	569	0	0	0	0	
11	0	0	0	0	628	564	0	0	0	0	
12	0	0	0	0	618	555	0	0	0	0	
13	0	0	0	0	604	543	0	0	0	0	
14	0	0	0	0	587	528	0	0	0	0	
15	0	0	0	0	568	513	0	0	0	0	
0	0	0	0	0	550	498	0	0	0	0	
1	0	0	0	0	532	485	0	0	0	0	
2	0	0	0	0	519	475	0	0	0	0	
3	0	0	0	0	511	469	0	0	0	0	
4	0	0	0	0	506	466	0	0	0	0	
5	0	0	0	0	505	467	0	0	0	0	
6	0	0	0	0	510	471	0	0	0	0	
7	0	0	0	0	518	478	0	0	0	0	
8	0	0	0	0	527	486	0	0	0	0	
9	0	0	0	0	539	495	0	0	0	0	
10	0	0	0	0	551	504	0	0	0	0	
11	0	0	0	0	562	512	0	0	0	0	
12	0	0	0	0	572	519	0	0	0	0	
13	0	0	0	0	579	525	0	0	0	0	
14	0	0	0	0	583	527	0	0	0	0	
15	0	0	0	0	585	526	0	0	0	0	
0	0	0	0	0	583	524	0	0	0	0	
1	0	0	0	0	579	520	0	0	0	0	
2	0	0	0	0	575	516	0	0	0	0	
3	0	0	0	0	569	512	0	0	0	0	
4	0	0	0	0	564	508	0	0	0	0	
5	0	0	0	0	560	505	0	0	0	0	
6	0	0	0	0	560	505	0	0	0	0	
7	0	0	0	0	562	509	0	0	0	0	
8	0	0	0	0	568	514	0	0	0	0	
9	0	0	0	0	577	521	0	0	0	0	
10	0	0	0	0	587	530	0	0	0	0	
11	0	0	0	0	598	539	0	0	0	0	
12	0	0	0	0	608	548	0	0	0	0	
13	0	0	0	0	617	554	0	0	0	0	
14	0	0	0	0	623	559	0	0	0	0	
15	0	0	0	0	626	561	0	0	0	0	
0	0	0	0	0	626	561	0	0	0	0	
1	0	0	0	0	623	559	0	0	0	0	
2	0	0	0	0	616	553	0	0	0	0	
3	0	0	0	0	607	544	0	0	0	0	
4	0	0	0	0	594	534	0	0	0	0	
5	0	0	0	0	580	522	0	0	0	0	
6	0	0	0	0	563	509	0	0	0	0	
7	0	0	0	0	545	494	0	0	0	0	
8	0	0	0	0	527	480	0	0	0	0	
9	0	0	0	0	510	466	0	0	0	0	
10	0	0	0	0	494	454	0	0	0	0	
11	0	0	0	0	481	444	0	0	0	0	
12	0	0	0	0	471	436	0	0	0	0	
13	0	0	0	0	466	432	0	0	0	0	
14	0	0	0	0	465	431	0	0	0	0	
15	0	0	0	0	468	434	0	0	0	0	
0	0	0	0	0	477	440	0	0	0	0	
1	0	0	0	0	489	449	0	0	0	0	
2	0	0	0	0	503	460	0	0	0	0	
3	0	0	0	0	519	472	0	0	0	0	
4	0	0	0	0	536	485	0	0	0	0	
5	0	0	0	0	551	497	0	0	0	0	
6	0	0	0	0	566	507	0	0	0	0	
7	0	0	0	0	579	516	0	0	0	0	
8	0	0	0	0	588	524	0	0	0	0	
9	0	0	0	0	595	528	0	0	0	0	
10	0	0	0	0	599	532	0	0	0	0	
11	0	0	0	0	600	533	0	0	0	0	
12	0	0	0	0	599	533	0	0	0	0	
13	0	0	0	0	595	531	0	0	0	0	
14	0	0	0	0	591	528	0	0	0	0	
15	0	0	0	0	586	527	0	0	0	0	
0	0	0	0	0	580	524	0	0	0	0	
1	0	0	0	0	576	522	0	0	0	0	
2	0	0	0	0	573	521	0	0	0	0	
3	0	0	0	0	569	520	0	0	0	0	
4	0	0	0	0	567	519	0	0	0	0	
5	0	0	0	0	563	518	0	0	0	0	
6	0	0	0	0	560	516	0	0	0	0	
7	0	0	0	0	556	514	0	0	0	0	
8	0	0	0	0	552	511	0	0	0	0	
9	0	0	0	0	548	508	0	0	0	0	
10	0	0	0	0	544	504	0	0	0	0	
11	0	0	0	0	540	499	0	0	0	0	
12	0	0	0	0	535	495	0	0	0	0	
13	0	0	0	0	529	489	0	0	0	0	
14	0	0	0	0	524	484	0	0	0	0	
15	0	0	0	0	519	478	0	0	0	0	
0	0	0	0	0	514	472	0	0	0	0	
1	0	0	0	0	510	467	0	0	0	0	
2	0	0	0	0	505	461	0	0	0	0	
3	0	0	0	0	502	456	0	0	0	0	
4	0	0	0	0	499	452	0	0	0	0	
5	0	0	0	0	498	451	0	0	0	0	
6	0	0	0	0	499	450	0	0	0	0	
7	0	0	0	0	502	452	0	0	0	0	
8	0	0	0	0	507	457	0	0	0	0	
9	0	0	0	0	514	463	0	0	0	0	
10	0	0	0	0	522	470	0	0	0	0	
11	0	0	0	0	530	477	0	0	0	0	
12	0	0	0	0	539	485	0	0	0	0	
13	0	0	0	0	547	492	0	0	0	0	
14	0	0	0	0	553	498	0	0	0	0	
15	0	0	0	0	559	503	0	0	0	0	
0	0	0	0	0	563	506	0	0	0	0	
1	0	0	0	0	566	509	0	0	0	0	
2	0	0	0	0	568	512	0	0	0	0	
3	0	0	0	0	570	513	0	0	0	0	
4	0	0	0	0	571	515	0	0	0	0	
5	0	0	0	0	572	517	0	0	0	0	
6	0	0	0	0	574	519	0	0	0	0	
7	0	0	0	0	575	522	0	0	0	0	
8	0	0	0	0	576	524	0	0	0	0	
9	0	0	0	0	576	524	0	0	0	0	
10	0	0	0	0	573	523	0	0	0	0	
11	0	0	0	0	568	519	0	0	0	0	
12	0	0	0	0	561	513	0	0	0	0	
13	0	0	0	0	551	504	0	0	0	0	
14	0	0	0	0	540	495	0	0	0	0	
15	0	0	0	0	529	487	0	0	0	0	
0	0	0	0	0	520	479	0	0	0	0	
1	0	0	0	0	513	473	0	0	0	0	
2	0	0	0	0	509	468	0	0	0	0	
3	0	0	0	0	507	465	0	0	0	0	
4	0	0	0	0	508	465	0	0	0	0	
5	0	0	0	0	511	466	0	0	0	0	
6	0	0	0	0	515	468	0	0	0	0	
7	0	0	0	0	521	471	0	0	0	0	
8	0	0	0	0	527	475	0	0	0	0	
9	0	0	0	0	532	476	0	0	0	0	
10	0	0	0	0	536	478	0	0	0	0	
11	0	0	0	0	537	479	0	0	0	0	
12	0	0	0	0	537	477	0	0	0	0	
13	0	0	0	0	535	475	0	0	0	0	
14	0	0	0	0	532	473	0	0	0	0	
15	0	0	0	0	528	470	0	0	0	0	
0	0	0	0	0	525	468	0	0	0	0	
1	0	0	0	0	524	467	0	0	0	0	
2	0	0	0	0	524	468	0	0	0	0	
3	0	0	0	0	527	472	0	0	0	0	
4	0	0	0	0	532	476	0	0	0	0	
5	0	0	0	0	539	483	0	0	0	0	
6	0	0	0	0	547	490	0	0	0	0	
7	0	0	0	0	556	497	0	0	0	0	
8	0	0	0	0	566	506	0	0	0	0	
9	0	0	0	0	575	514	0	0	0	0	
10	0	0	0	0	581	520	0	0	0	0	
11	0	0	0	0	586	525	0	0	0	0	
12	0	0	0	0	587	527	0	0	0	0	
13	0	0	0	0	584	525	0	0	0	0	
14	0	0	0	0	578	522	0	0	0	0	
15	0	0	0	0	570	516	0	0	0	0	
0	0	0	0	0	561	510	0	0	0	0	
1	0	0	0	0	552	503	0	0	0	0	
2	0	0	0	0	543	497	0	0	0	0	
3	0	0	0	0	536	491	0	0	0	0	
4	0	0	0	0	531	487	0	0	0	0	
5	0	0	0	0	528	484	0	0	0	0	
6	0	0	0	0	527	483	0	0	0	0	
7	0	0	0	0	529	484	0	0	0	0	
8	0	0	0	0	533	487	0	0	0	0	
9	0	0	0	0	537	490	0	0	0	0	
10	0	0	0	0	541	492	0	0	0	0	
11	0	0	0	0	543	492	0	0	0	0	
12	0	0	0	0	543	491	0	0	0	0	
13	0	0	0	0	541	488	0	0	0	0	
14	0	0	0	0	537	484	0	0	0	0	
15	0	0	0	0	533	479	0	0	0	0	
0	0	0	0	0	528	475	0	0	0	0	
1	0	0	0	0	524	470	0	0	0	0	
2	0	0	0	0	520	466	0	0	0	0	
3	0	0	0	0	518	464	0	0	0	0	
4	0	0	0	0	516	463	0	0	0	0	
5	0	0	0	0	516	462	0	0	0	0	
6	0	0	0	0	517	464	0	0	0	0	
7	0	0	0	0	519	465	0	0	0	0	
8	0	0	0	0	521	469	0	0	0	0	
9	0	0	0	0	524	472	0	0	0	0	
10	0	0	0	0	529	476	0	0	0	0	
11	0	0	0	0	535	481	0	0	0	0	
12	0	0	0	0	540	486	0	0	0	0	
13	0	0	0	0	546	490	0	0	0	0	
14	0	0	0	0	550	492	0	0	0	0	
15	0	0	0	0	552	492	0	0	0	0	
0	0	0	0	0	551	491	0	0	0	0	
1	0	0	0	0	548	487	0	0	0	0	
2	0	0	0	0	543	482	0	0	0	0	
3	0	0	0	0	536	476	0	0	0	0	
4	0	0	0	0	530	470	0	0	0	0	
5	0	0	0	0	524	466	0	0	0	0	
6	0	0	0	0	519	463	0	0	0	0	
7	0	0	0	0	515	461	0	0	0	0	
8	0	0	0	0	513	461	0	0	0	0	
9	0	0	0	0	512	461	0	0	0	0	
10	0	0	0	0	513	463	0	0	0	0	
11	0	0	0	0	517	467	0	0	0	0	
12	0	0	0	0	522	472	0	0	0	0	
13	0	0	0	0	529	477	0	0	0	0	
14	0	0	0	0	536	482	0	0	0	0	
15	0	0	0	0	541	487	0	0	0	0	
0	0	0	0	0	545	489	0	0	0	0	
1	0	0	0	0	547	491	0	0	0	0	
2	0	0	0	0	547	489	0	0	0	0	
3	0	0	0	0	545	487	0	0	0	0	
4	0	0	0	0	542	484	0	0	0	0	
5	0	0	0	0	540	481	0	0	0	0	
6	0	0	0	0	537	479	0	0	0	0	
7	0	0	0	0	535	477	0	0	0	0	
8	0	0	0	0	533	476	0	0	0	0	
9	0	0	0	0	531	475	0	0	0	0	
10	0	0	0	0	531	476	0	0	0	0	
11	0	0	0	0	530	476	0	0	0	0	
12	0	0	0	0	529	477	0	0	0	0	
13	0	0	0	0	527	476	0	0	0	0	
14	0	0	0	0	525	475	0	0	0	0	
15	0	0	0	0	521	472	0	0	0	0	
0	0	0	0	0	517	470	0	0	0	0	
1	0	0	0	0	514	467	0	0	0	0	
2	0	0	0	0	512	465	0	0	0	0	
3	0	0	0	0	512	465	0	0	0	0	
4	0	0	0	0	514	467	0	0	0	0	
5	0	0	0	0	519	470	0	0	0	0	
6	0	0	0	0	526	475	0	0	0	0	
7	0	0	0	0	534	480	0	0	0	0	
8	0	0	0	0	542	486	0	0	0	0	
9	0	0	0	0	550	490	0	0	0	0	
10	0	0	0	0	557	494	0	0	0	0	
11	0	0	0	0	561	495	0	0	0	0	
12	0	0	0	0	563	494	0	0	0	0	
13	0	0	0	0	562	492	0	0	0	0	
14	0	0	0	0	560	489	0	0	0	0	
15	0	0	0	0	556	486	0	0	0	0	
0	0	0	0	0	551	483	0	0	0	0	
1	0	0	0	0	547	480	0	0	0	0	
2	0	0	0	0	543	480	0	0	0	0	
3	0	0	0	0	543	482	0	0	0	0	
4	0	0	0	0	544	486	0	0	0	0	
5	0	0	0	0	547	491	0	0	0	0	
6	0	0	0	0	552	497	0	0	0	0	
7	0	0	0	0	558	504	0	0	0	0	
8	0	0	0	0	563	508	0	0	0	0	
9	0	0	0	0	566	511	0	0	0	0	
10	0	0	0	0	566	512	0	0	0	0	
11	0	0	0	0	564	510	0	0	0	0	
12	0	0	0	0	561	508	0	0	0	0	
13	0	0	0	0	557	504	0	0	0	0	
14	0	0	0	0	551	500	0	0	0	0	
15	0	0	0	0	545	494	0	0	0	0	
0	0	0	0	0	539	489	0	0	0	0	
1	0	0	0	0	532	484	0	0	0	0	
2	0	0	0	0	525	478	0	0	0	0	
3	0	0	0	0	519	473	0	0	0	0	
4	0	0	0	0	514	468	0	0	0	0	
5	0	0	0	0	510	463	0	0	0	0	
6	0	0	0	0	507	460	0	0	0	0	
7	0	0	0	0	504	457	0	0	0	0	
8	0	0	0	0	503	455	0	0	0	0	
9	0	0	0	0	502	454	0	0	0	0	
10	0	0	0	0	501	453	0	0	0	0	
11	0	0	0	0	500	452	0	0	0	0	
12	0	0	0	0	500	451	0	0	0	0	
13	0	0	0	0	500	451	0	0	0	0	
14	0	0	0	0	500	451	0	0	0	0	
15	0	0	0	0	501	452	0	0	0	0	
0	0	0	0	0	503	453	0	0	0	0	
1	0	0	0	0	506	455	0	0	0	0	
2	0	0	0	0	510	459	0	0	0	0	
3	0	0	0	0	516	463	0	0	0	0	
4	0	0	0	0	524	469	0	0	0	0	
5	0	0	0	0	531	476	0	0	0	0	
6	0	0	0	0	540	482	0	0	0	0	
7	0	0	0	0	547	487	0	0	0	0	
8	0	0	0	0	552	492	0	0	0	0	
9	0	0	0	0	555	493	0	0	0	0	
10	0	0	0	0	555	493	0	0	0	0	
11	0	0	0	0	552	491	0	0	0	0	
12	0	0	0	0	547	487	0	0	0	0	
13	0	0	0	0	541	483	0	0	0	0	
14	0	0	0	0	534	478	0	0	0	0	
15	0	0	0	0	526	473	0	0	0	0	
0	0	0	0	0	519	468	0	0	0	0	
1	0	0	0	0	514	465	0	0	0	0	
2	0	0	0	0	510	462	0	0	0	0	
3	0	0	0	0	508	460	0	0	0	0	
4	0	0	0	0	508	460	0	0	0	0	
5	0	0	0	0	510	460	0	0	0	0	
6	0	0	0	0	514	463	0	0	0	0	
7	0	0	0	0	519	466	0	0	0	0	
8	0	0	0	0	524	470	0	0	0	0	
9	0	0	0	0	530	473	0	0	0	0	
10	0	0	0	0	534	476	0	0	0	0	
11	0	0	0	0	538	480	0	0	0	0	
12	0	0	0	0	541	482	0	0	0	0	
13	0	0	0	0	543	484	0	0	0	0	
14	0	0	0	0	544	487	0	0	0	0	
15	0	0	0	0	544	488	0	0	0	0	
0	0	0	0	0	544	489	0	0	0	0	
1	0	0	0	0	543	489	0	0	0	0	
2	0	0	0	0	541	489	0	0	0	0	
3	0	0	0	0	539	489	0	0	0	0	
4	0	0	0	0	537	488	0	0	0	0	
5	0	0	0	0	535	487	0	0	0	0	
6	0	0	0	0	533	485	0	0	0	0	
7	0	0	0	0	531	482	0	0	0	0	
8	0	0	0	0	527	479	0	0	0	0	
9	0	0	0	0	524	474	0	0	0	0	
10	0	0	0	0	520	470	0	0	0	0	
11	0	0	0	0	517	465	0	0	0	0	
12	0	0	0	0	513	460	0	0	0	0	
13	0	0	0	0	510	455	0	0	0	0	
14	0	0	0	0	507	452	0	0	0	0	
15	0	0	0	0	504	449	0	0	0	0	
0	0	0	0	0	503	447	0	0	0	0	
1	0	0	0	0	502	446	0	0	0	0	
2	0	0	0	0	503	447	0	0	0	0	
3	0	0	0	0	505	449	0	0	0	0	
4	0	0	0	0	509	454	0	0	0	0	
5	0	0	0	0	515	459	0	0	0	0	
6	0	0	0	0	520	464	0	0	0	0	
7	0	0	0	0	527	470	0	0	0	0	
8	0	0	0	0	532	475	0	0	0	0	
9	0	0	0	0	539	481	0	0	0	0	
10	0	0	0	0	544	486	0	0	0	0	
11	0	0	0	0	548	491	0	0	0	0	
12	0	0	0	0	553	494	0	0	0	0	
13	0	0	0	0	555	496	0	0	0	0	
14	0	0	0	0	556	497	0	0	0	0	
15	0	0	0	0	554	495	0	0	0	0	
0	0	0	0	0	550	490	0	0	0	0	
1	0	0	0	0	543	486	0	0	0	0	
2	0	0	0	0	537	480	0	0	0	0	
3	0	0	0	0	530	475	0	0	0	0	
4	0	0	0	0	524	470	0	0	0	0	
5	0	0	0	0	519	467	0	0	0	0	
6	0	0	0	0	517	465	0	0	0	0	
7	0	0	0	0	516	465	0	0	0	0	
8	0	0	0	0	517	468	0	0	0	0	
9	0	0	0	0	519	470	0	0	0	0	
10	0	0	0	0	523	472	0	0	0	0	
11	0	0	0	0	525	474	0	0	0	0	
12	0	0	0	0	526	473	0	0	0	0	
13	0	0	0	0	525	471	0	0	0	0	
14	0	0	0	0	522	466	0	0	0	0	
15	0	0	0	0	516	460	0	0	0	0	
0	0	0	0	0	511	453	0	0	0	0	
1	0	0	0	0	504	447	0	0	0	0	
2	0	0	0	0	499	441	0	0	0	0	
3	0	0	0	0	494	436	0	0	0	0	
4	0	0	0	0	489	433	0	0	0	0	
5	0	0	0	0	487	431	0	0	0	0	
6	0	0	0	0	486	429	0	0	0	0	
7	0	0	0	0	486	430	0	0	0	0	
8	0	0	0	0	486	431	0	0	0	0	
9	0	0	0	0	488	432	0	0	0	0	
10	0	0	0	0	491	435	0	0	0	0	
11	0	0	0	0	494	439	0	0	0	0	
12	0	0	0	0	498	444	0	0	0	0	
13	0	0	0	0	503	448	0	0	0	0	
14	0	0	0	0	508	454	0	0	0	0	
15	0	0	0	0	513	459	0	0	0	0	
0	0	0	0	0	518	464	0	0	0	0	
1	0	0	0	0	522	469	0	0	0	0	
2	0	0	0	0	526	472	0	0	0	0	
3	0	0	0	0	528	475	0	0	0	0	
4	0	0	0	0	529	475	0	0	0	0	
5	0	0	0	0	529	475	0	0	0	0	
6	0	0	0	0	527	473	0	0	0	0	
7	0	0	0	0	525	470	0	0	0	0	
8	0	0	0	0	522	467	0	0	0	0	
9	0	0	0	0	519	463	0	0	0	0	
10	0	0	0	0	518	461	0	0	0	0	
11	0	0	0	0	516	460	0	0	0	0	
12	0	0	0	0	516	460	0	0	0	0	
13	0	0	0	0	518	461	0	0	0	0	
14	0	0	0	0	519	463	0	0	0	0	
15	0	0	0	0	522	467	0	0	0	0	
0	0	0	0	0	525	471	0	0	0	0	
1	0	0	0	0	528	474	0	0	0	0	
2	0	0	0	0	531	477	0	0	0	0	
3	0	0	0	0	532	479	0	0	0	0	
4	0	0	0	0	534	481	0	0	0	0	
5	0	0	0	0	535	482	0	0	0	0	
6	0	0	0	0	534	480	0	0	0	0	
7	0	0	0	0	531	478	0	0	0	0	
8	0	0	0	0	527	474	0	0	0	0	
9	0	0	0	0	521	469	0	0	0	0	
10	0	0	0	0	515	463	0	0	0	0	
11	0	0	0	0	510	457	0	0	0	0	
12	0	0	0	0	504	452	0	0	0	0	
13	0	0	0	0	500	448	0	0	0	0	
14	0	0	0	0	498	446	0	0	0	0	
15	0	0	0	0	498	445	0	0	0	0	
0	0	0	0	0	500	446	0	0	0	0	
1	0	0	0	0	504	449	0	0	0	0	
2	0	0	0	0	510	453	0	0	0	0	
3	0	0	0	0	518	460	0	0	0	0	
4	0	0	0	0	527	468	0	0	0	0	
5	0	0	0	0	538	476	0	0	0	0	
6	0	0	0	0	549	485	0	0	0	0	
7	0	0	0	0	560	495	0	0	0	0	
8	0	0	0	0	569	503	0	0	0	0	
9	0	0	0	0	577	510	0	0	0	0	
10	0	0	0	0	582	513	0	0	0	0	
11	0	0	0	0	583	515	0	0	0	0	
12	0	0	0	0	580	514	0	0	0	0	
13	0	0	0	0	575	510	0	0	0	0	
14	0	0	0	0	566	504	0	0	0	0	
15	0	0	0	0	555	496	0	0	0	0	
0	0	0	0	0	543	487	0	0	0	0	
1	0	0	0	0	529	478	0	0	0	0	
2	0	0	0	0	516	468	0	0	0	0	
3	0	0	0	0	504	458	0	0	0	0	
4	0	0	0	0	493	448	0	0	0	0	
5	0	0	0	0	483	439	0	0	0	0	
6	0	0	0	0	475	431	0	0	0	0	
7	0	0	0	0	469	425	0	0	0	0	
8	0	0	0	0	465	419	0	0	0	0	
9	0	0	0	0	462	415	0	0	0	0	
10	0	0	0	0	460	412	0	0	0	0	
11	0	0	0	0	459	410	0	0	0	0	
12	0	0	0	0	459	409	0	0	0	0	
13	0	0	0	0	461	409	0	0	0	0	
14	0	0	0	0	463	411	0	0	0	0	
15	0	0	0	0	466	413	0	0	0	0	
0	0	0	0	0	471	417	0	0	0	0	
1	0	0	0	0	476	422	0	0	0	0	
2	0	0	0	0	482	428	0	0	0	0	
3	0	0	0	0	488	433	0	0	0	0	
4	0	0	0	0	493	437	0	0	0	0	
5	0	0	0	0	497	441	0	0	0	0	
6	0	0	0	0	500	444	0	0	0	0	
7	0	0	0	0	502	446	0	0	0	0	
8	0	0	0	0	502	446	0	0	0	0	
9	0	0	0	0	500	446	0	0	0	0	
10	0	0	0	0	499	444	0	0	0	0	
11	0	0	0	0	497	444	0	0	0	0	
12	0	0	0	0	495	444	0	0	0	0	
13	0	0	0	0	494	444	0	0	0	0	
14	0	0	0	0	494	445	0	0	0	0	
15	0	0	0	0	495	447	0	0	0	0	
0	0	0	0	0	497	449	0	0	0	0	
1	0	0	0	0	501	452	0	0	0	0	
2	0	0	0	0	505	456	0	0	0	0	
3	0	0	0	0	511	460	0	0	0	0	
4	0	0	0	0	515	463	0	0	0	0	
5	0	0	0	0	519	466	0	0	0	0	
6	0	0	0	0	523	468	0	0	0	0	
7	0	0	0	0	525	468	0	0	0	0	
8	0	0	0	0	525	467	0	0	0	0	
9	0	0	0	0	524	466	0	0	0	0	
10	0	0	0	0	522	463	0	0	0	0	
11	0	0	0	0	519	461	0	0	0	0	
12	0	0	0	0	514	457	0	0	0	0	
13	0	0	0	0	509	453	0	0	0	0	
14	0	0	0	0	504	450	0	0	0	0	
15	0	0	0	0	500	448	0	0	0	0	
0	0	0	0	0	497	447	0	0	0	0	
1	0	0	0	0	496	448	0	0	0	0	
2	0	0	0	0	497	449	0	0	0	0	
3	0	0	0	0	499	451	0	0	0	0	
4	0	0	0	0	502	455	0	0	0	0	
5	0	0	0	0	507	460	0	0	0	0	
6	0	0	0	0	512	464	0	0	0	0	
7	0	0	0	0	516	468	0	0	0	0	
8	0	0	0	0	520	472	0	0	0	0	
9	0	0	0	0	522	472	0	0	0	0	
10	0	0	0	0	521	470	0	0	0	0	
11	0	0	0	0	519	466	0	0	0	0	
12	0	0	0	0	513	460	0	0	0	0	
13	0	0	0	0	506	454	0	0	0	0	
14	0	0	0	0	499	447	0	0	0	0	
15	0	0	0	0	492	441	0	0	0	0	
0	0	0	0	0	486	436	0	0	0	0	
1	0	0	0	0	483	434	0	0	0	0	
2	0	0	0	0	481	434	0	0	0	0	
3	0	0	0	0	483	436	0	0	0	0	
4	0	0	0	0	486	440	0	0	0	0	
5	0	0	0	0	490	445	0	0	0	0	
6	0	0	0	0	496	451	0	0	0	0	
7	0	0	0	0	503	458	0	0	0	0	
8	0	0	0	0	511	467	0	0	0	0	
9	0	0	0	0	520	475	0	0	0	0	
10	0	0	0	0	529	481	0	0	0	0	
11	0	0	0	0	537	487	0	0	0	0	
12	0	0	0	0	545	492	0	0	0	0	
13	0	0	0	0	552	496	0	0	0	0	
14	0	0	0	0	558	500	0	0	0	0	
15	0	0	0	0	561	500	0	0	0	0	
0	0	0	0	0	561	500	0	0	0	0	
1	0	0	0	0	558	496	0	0	0	0	
2	0	0	0	0	551	489	0	0	0	0	
3	0	0	0	0	540	480	0	0	0	0	
4	0	0	0	0	526	467	0	0	0	0	
5	0	0	0	0	509	455	0	0	0	0	
6	0	0	0	0	491	440	0	0	0	0	
7	0	0	0	0	473	428	0	0	0	0	
8	0	0	0	0	459	417	0	0	0	0	
9	0	0	0	0	448	410	0	0	0	0	
10	0	0	0	0	442	406	0	0	0	0	
11	0	0	0	0	440	405	0	0	0	0	
12	0	0	0	0	442	407	0	0	0	0	
13	0	0	0	0	448	412	0	0	0	0	
14	0	0	0	0	458	420	0	0	0	0	
15	0	0	0	0	470	428	0	0	0	0	
0	0	0	0	0	481	436	0	0	0	0	
1	0	0	0	0	492	443	0	0	0	0	
2	0	0	0	0	502	448	0	0	0	0	
3	0	0	0	0	508	451	0	0	0	0	
4	0	0	0	0	511	452	0	0	0	0	
5	0	0	0	0	510	451	0	0	0	0	
6	0	0	0	0	507	447	0	0	0	0	
7	0	0	0	0	500	442	0	0	0	0	
8	0	0	0	0	492	435	0	0	0	0	
9	0	0	0	0	482	428	0	0	0	0	
10	0	0	0	0	472	422	0	0	0	0	
11	0	0	0	0	463	416	0	0	0	0	
12	0	0	0	0	455	411	0	0	0	0	
13	0	0	0	0	448	406	0	0	0	0	
14	0	0	0	0	442	400	0	0	0	0	
15	0	0	0	0	436	396	0	0	0	0	
0	0	0	0	0	431	390	0	0	0	0	
1	0	0	0	0	425	384	0	0	0	0	
2	0	0	0	0	420	376	0	0	0	0	
3	0	0	0	0	413	367	0	0	0	0	
4	0	0	0	0	405	358	0	0	0	0	
5	0	0	0	0	396	346	0	0	0	0	
6	0	0	0	0	384	333	0	0	0	0	
7	0	0	0	0	372	319	0	0	0	0	
8	0	0	0	0	359	304	0	0	0	0	
9	0	0	0	0	344	289	0	0	0	0	
10	0	0	0	0	327	273	0	0	0	0	
11	0	0	0	0	311	259	0	0	0	0	
12	0	0	0	0	294	243	0	0	0	0	
13	0	0	0	0	279	230	0	0	0	0	
14	0	0	0	0	263	217	0	0	0	0	
15	0	0	0	0	249	206	0	0	0	0	
0	0	0	0	0	239	198	0	0	0	0	
1	0	0	0	0	233	192	0	0	0	0	
2	0	0	0	0	231	191	0	0	0	0	
3	0	0	0	0	235	194	0	0	0	0	
4	0	0	0	0	243	201	0	0	0	0	
5	0	0	0	0	257	212	0	0	0	0	
6	0	0	0	0	276	228	0	0	0	0	
7	0	0	0	0	300	247	0	0	0	0	
8	0	0	0	0	327	270	0	0	0	0	
9	0	0	0	0	358	295	0	0	0	0	
10	0	0	0	0	390	322	0	0	0	0	
11	0	0	0	0	423	350	0	0	0	0	
12	0	0	0	0	455	378	0	0	0	0	
13	0	0	0	0	486	406	0	0	0	0	
14	0	0	0	0	513	433	0	0	0	0	
15	0	0	0	0	537	456	0	0	0	0	
0	0	0	0	0	555	475	0	0	0	0	
1	0	0	0	0	568	489	0	0	0	0	
2	0	0	0	0	574	499	0	0	0	0	
3	0	0	0	0	575	505	0	0	0	0	
4	0	0	0	0	572	507	0	0	0	0	
5	0	0	0	0	565	504	0	0	0	0	
6	0	0	0	0	554	498	0	0	0	0	
7	0	0	0	0	541	490	0	0	0	0	
8	0	0	0	0	527	480	0	0	0	0	
9	0	0	0	0	514	470	0	0	0	0	
10	0	0	0	0	502	460	0	0	0	0	
11	0	0	0	0	492	451	0	0	0	0	
12	0	0	0	0	484	444	0	0	0	0	
13	0	0	0	0	480	438	0	0	0	0	
14	0	0	0	0	479	435	0	0	0	0	
15	0	0	0	0	481	434	0	0	0	0	
0	0	0	0	0	486	435	0	0	0	0	
1	0	0	0	0	494	439	0	0	0	0	
2	0	0	0	0	504	445	0	0	0	0	
3	0	0	0	0	516	454	0	0	0	0	
4	0	0	0	0	531	464	0	0	0	0	
5	0	0	0	0	544	475	0	0	0	0	
6	0	0	0	0	557	484	0	0	0	0	
7	0	0	0	0	566	492	0	0	0	0	
8	0	0	0	0	571	498	0	0	0	0	
9	0	0	0	0	571	499	0	0	0	0	
10	0	0	0	0	566	496	0	0	0	0	
11	0	0	0	0	556	490	0	0	0	0	
12	0	0	0	0	542	481	0	0	0	0	
13	0	0	0	0	525	471	0	0	0	0	
14	0	0	0	0	507	459	0	0	0	0	
15	0	0	0	0	490	447	0	0	0	0	
0	0	0	0	0	475	437	0	0	0	0	
1	0	0	0	0	463	429	0	0	0	0	
2	0	0	0	0	454	424	0	0	0	0	
3	0	0	0	0	449	420	0	0	0	0	
4	0	0	0	0	449	419	0	0	0	0	
5	0	0	0	0	451	420	0	0	0	0	
6	0	0	0	0	458	423	0	0	0	0	
7	0	0	0	0	467	429	0	0	0	0	
8	0	0	0	0	479	436	0	0	0	0	
9	0	0	0	0	492	444	0	0	0	0	
10	0	0	0	0	505	452	0	0	0	0	
11	0	0	0	0	519	462	0	0	0	0	
12	0	0	0	0	531	470	0	0	0	0	
13	0	0	0	0	542	478	0	0	0	0	
14	0	0	0	0	550	483	0	0	0	0	
15	0	0	0	0	554	488	0	0	0	0	
0	0	0	0	0	557	492	0	0	0	0	
1	0	0	0	0	558	494	0	0	0	0	
2	0	0	0	0	556	494	0	0	0	0	
3	0	0	0	0	554	494	0	0	0	0	
4	0	0	0	0	551	495	0	0	0	0	
5	0	0	0	0	551	496	0	0	0	0	
6	0	0	0	0	551	498	0	0	0	0	
7	0	0	0	0	551	500	0	0	0	0	
8	0	0	0	0	552	502	0	0	0	0	
9	0	0	0	0	552	503	0	0	0	0	
10	0	0	0	0	551	501	0	0	0	0	
11	0	0	0	0	548	498	0	0	0	0	
12	0	0	0	0	543	494	0	0	0	0	
13	0	0	0	0	538	489	0	0	0	0	
14	0	0	0	0	532	484	0	0	0	0	
15	0	0	0	0	525	478	0	0	0	0	
0	0	0	0	0	518	472	0	0	0	0	
1	0	0	0	0	510	465	0	0	0	0	
2	0	0	0	0	502	459	0	0	0	0	
3	0	0	0	0	493	452	0	0	0	0	
4	0	0	0	0	485	446	0	0	0	0	
5	0	0	0	0	479	441	0	0	0	0	
6	0	0	0	0	474	437	0	0	0	0	
7	0	0	0	0	471	434	0	0	0	0	
8	0	0	0	0	470	433	0	0	0	0	
9	0	0	0	0	472	433	0	0	0	0	
10	0	0	0	0	474	435	0	0	0	0	
11	0	0	0	0	479	437	0	0	0	0	
12	0	0	0	0	485	440	0	0	0	0	
13	0	0	0	0	491	443	0	0	0	0	
14	0	0	0	0	498	447	0	0	0	0	
15	0	0	0	0	505	451	0	0	0	0	
0	0	0	0	0	512	455	0	0	0	0	
1	0	0	0	0	518	460	0	0	0	0	
2	0	0	0	0	524	466	0	0	0	0	
3	0	0	0	0	529	471	0	0	0	0	
4	0	0	0	0	534	476	0	0	0	0	
5	0	0	0	0	537	480	0	0	0	0	
6	0	0	0	0	539	484	0	0	0	0	
7	0	0	0	0	540	487	0	0	0	0	
8	0	0	0	0	540	489	0	0	0	0	
9	0	0	0	0	540	492	0	0	0	0	
10	0	0	0	0	540	492	0	0	0	0	
11	0	0	0	0	540	493	0	0	0	0	
12	0	0	0	0	540	494	0	0	0	0	
13	0	0	0	0	540	495	0	0	0	0	
14	0	0	0	0	542	496	0	0	0	0	
15	0	0	0	0	543	496	0	0	0	0	
0	0	0	0	0	543	495	0	0	0	0	
1	0	0	0	0	543	494	0	0	0	0	
2	0	0	0	0	542	492	0	0	0	0	
3	0	0	0	0	539	489	0	0	0	0	
4	0	0	0	0	536	485	0	0	0	0	
5	0	0	0	0	532	480	0	0	0	0	
6	0	0	0	0	527	476	0	0	0	0	
7	0	0	0	0	522	471	0	0	0	0	
8	0	0	0	0	518	467	0	0	0	0	
9	0	0	0	0	515	465	0	0	0	0	
10	0	0	0	0	513	464	0	0	0	0	
11	0	0	0	0	513	464	0	0	0	0	
12	0	0	0	0	515	466	0	0	0	0	
13	0	0	0	0	517	467	0	0	0	0	
14	0	0	0	0	519	469	0	0	0	0	
15	0	0	0	0	519	468	0	0	0	0	
0	0	0	0	0	516	466	0	0	0	0	
1	0	0	0	0	513	463	0	0	0	0	
2	0	0	0	0	509	459	0	0	0	0	
3	0	0	0	0	504	454	0	0	0	0	
4	0	0	0	0	499	449	0	0	0	0	
5	0	0	0	0	492	443	0	0	0	0	
6	0	0	0	0	487	438	0	0	0	0	
7	0	0	0	0	482	433	0	0	0	0	
8	0	0	0	0	479	430	0	0	0	0	
9	0	0	0	0	477	428	0	0	0	0	
10	0	0	0	0	476	429	0	0	0	0	
11	0	0	0	0	479	432	0	0	0	0	
12	0	0	0	0	484	437	0	0	0	0	
13	0	0	0	0	493	444	0	0	0	0	
14	0	0	0	0	504	455	0	0	0	0	
15	0	0	0	0	517	465	0	0	0	0	
0	0	0	0	0	531	477	0	0	0	0	
1	0	0	0	0	543	487	0	0	0	0	
2	0	0	0	0	555	496	0	0	0	0	
3	0	0	0	0	564	504	0	0	0	0	
4	0	0	0	0	569	507	0	0	0	0	
5	0	0	0	0	571	508	0	0	0	0	
6	0	0	0	0	567	505	0	0	0	0	
7	0	0	0	0	559	499	0	0	0	0	
8	0	0	0	0	547	489	0	0	0	0	
9	0	0	0	0	531	478	0	0	0	0	
10	0	0	0	0	514	465	0	0	0	0	
11	0	0	0	0	497	452	0	0	0	0	
12	0	0	0	0	482	440	0	0	0	0	
13	0	0	0	0	469	431	0	0	0	0	
14	0	0	0	0	459	423	0	0	0	0	
15	0	0	0	0	453	419	0	0	0	0	
0	0	0	0	0	451	416	0	0	0	0	
1	0	0	0	0	451	415	0	0	0	0	
2	0	0	0	0	455	416	0	0	0	0	
3	0	0	0	0	461	419	0	0	0	0	
4	0	0	0	0	470	424	0	0	0	0	
5	0	0	0	0	481	431	0	0	0	0	
6	0	0	0	0	493	439	0	0	0	0	
7	0	0	0	0	506	449	0	0	0	0	
8	0	0	0	0	519	458	0	0	0	0	
9	0	0	0	0	532	468	0	0	0	0	
10	0	0	0	0	543	478	0	0	0	0	
11	0	0	0	0	553	486	0	0	0	0	
12	0	0	0	0	560	491	0	0	0	0	
13	0	0	0	0	563	495	0	0	0	0	
14	0	0	0	0	563	495	0	0	0	0	
15	0	0	0	0	558	492	0	0	0	0	
0	0	0	0	0	549	486	0	0	0	0	
1	0	0	0	0	538	478	0	0	0	0	
2	0	0	0	0	524	468	0	0	0	0	
3	0	0	0	0	511	460	0	0	0	0	
4	0	0	0	0	499	452	0	0	0	0	
5	0	0	0	0	489	445	0	0	0	0	
6	0	0	0	0	481	440	0	0	0	0	
7	0	0	0	0	476	436	0	0	0	0	
8	0	0	0	0	473	434	0	0	0	0	
9	0	0	0	0	473	433	0	0	0	0	
10	0	0	0	0	475	435	0	0	0	0	
11	0	0	0	0	480	437	0	0	0	0	
12	0	0	0	0	485	440	0	0	0	0	
13	0	0	0	0	492	444	0	0	0	0	
14	0	0	0	0	500	448	0	0	0	0	
15	0	0	0	0	509	454	0	0	0	0	
0	0	0	0	0	518	460	0	0	0	0	
1	0	0	0	0	528	467	0	0	0	0	
2	0	0	0	0	538	474	0	0	0	0	
3	0	0	0	0	547	482	0	0	0	0	
4	0	0	0	0	555	488	0	0	0	0	
5	0	0	0	0	562	494	0	0	0	0	
6	0	0	0	0	566	498	0	0	0	0	
7	0	0	0	0	568	500	0	0	0	0	
8	0	0	0	0	568	501	0	0	0	0	
9	0	0	0	0	564	498	0	0	0	0	
10	0	0	0	0	559	495	0	0	0	0	
11	0	0	0	0	552	490	0	0	0	0	
12	0	0	0	0	545	485	0	0	0	0	
13	0	0	0	0	539	481	0	0	0	0	
14	0	0	0	0	533	477	0	0	0	0	
15	0	0	0	0	529	475	0	0	0	0	
0	0	0	0	0	527	475	0	0	0	0	
1	0	0	0	0	527	476	0	0	0	0	
2	0	0	0	0	530	479	0	0	0	0	
3	0	0	0	0	533	482	0	0	0	0	
4	0	0	0	0	536	485	0	0	0	0	
5	0	0	0	0	537	486	0	0	0	0	
6	0	0	0	0	537	486	0	0	0	0	
7	0	0	0	0	534	483	0	0	0	0	
8	0	0	0	0	530	479	0	0	0	0	
9	0	0	0	0	524	472	0	0	0	0	
10	0	0	0	0	515	465	0	0	0	0	
11	0	0	0	0	507	457	0	0	0	0	
12	0	0	0	0	498	449	0	0	0	0	
13	0	0	0	0	489	441	0	0	0	0	
14	0	0	0	0	482	435	0	0	0	0	
15	0	0	0	0	476	429	0	0	0	0	
0	0	0	0	0	470	423	0	0	0	0	
1	0	0	0	0	466	419	0	0	0	0	
2	0	0	0	0	463	415	0	0	0	0	
3	0	0	0	0	461	412	0	0	0	0	
4	0	0	0	0	460	410	0	0	0	0	
5	0	0	0	0	461	409	0	0	0	0	
6	0	0	0	0	463	409	0	0	0	0	
7	0	0	0	0	467	411	0	0	0	0	
8	0	0	0	0	472	414	0	0	0	0	
9	0	0	0	0	478	419	0	0	0	0	
10	0	0	0	0	486	424	0	0	0	0	
11	0	0	0	0	494	431	0	0	0	0	
12	0	0	0	0	500	437	0	0	0	0	
13	0	0	0	0	506	443	0	0	0	0	
14	0	0	0	0	509	447	0	0	0	0	
15	0	0	0	0	511	451	0	0	0	0	
0	0	0	0	0	511	454	0	0	0	0	
1	0	0	0	0	509	455	0	0	0	0	
2	0	0	0	0	507	455	0	0	0	0	
3	0	0	0	0	503	455	0	0	0	0	
4	0	0	0	0	499	453	0	0	0	0	
5	0	0	0	0	495	451	0	0	0	0	
6	0	0	0	0	490	447	0	0	0	0	
7	0	0	0	0	486	442	0	0	0	0	
8	0	0	0	0	482	439	0	0	0	0	
9	0	0	0	0	480	434	0	0	0	0	
10	0	0	0	0	479	432	0	0	0	0	
11	0	0	0	0	480	430	0	0	0	0	
12	0	0	0	0	482	428	0	0	0	0	
13	0	0	0	0	485	428	0	0	0	0	
14	0	0	0	0	489	430	0	0	0	0	
15	0	0	0	0	493	431	0	0	0	0	
0	0	0	0	0	497	434	0	0	0	0	
1	0	0	0	0	501	436	0	0	0	0	
2	0	0	0	0	505	439	0	0	0	0	
3	0	0	0	0	509	443	0	0	0	0	
4	0	0	0	0	513	448	0	0	0	0	
5	0	0	0	0	517	452	0	0	0	0	
6	0	0	0	0	522	457	0	0	0	0	
7	0	0	0	0	526	463	0	0	0	0	
8	0	0	0	0	530	468	0	0	0	0	
9	0	0	0	0	533	472	0	0	0	0	
10	0	0	0	0	534	475	0	0	0	0	
11	0	0	0	0	535	476	0	0	0	0	
12	0	0	0	0	533	476	0	0	0	0	
13	0	0	0	0	531	476	0	0	0	0	
14	0	0	0	0	528	475	0	0	0	0	
15	0	0	0	0	527	474	0	0	0	0	
0	0	0	0	0	527	474	0	0	0	0	
1	0	0	0	0	529	476	0	0	0	0	
2	0	0	0	0	534	481	0	0	0	0	
3	0	0	0	0	542	488	0	0	0	0	
4	0	0	0	0	552	497	0	0	0	0	
5	0	0	0	0	563	507	0	0	0	0	
6	0	0	0	0	575	516	0	0	0	0	
7	0	0	0	0	585	525	0	0	0	0	
8	0	0	0	0	593	531	0	0	0	0	
9	0	0	0	0	597	533	0	0	0	0	
10	0	0	0	0	596	531	0	0	0	0	
11	0	0	0	0	591	527	0	0	0	0	
12	0	0	0	0	580	516	0	0	0	0	
13	0	0	0	0	565	504	0	0	0	0	
14	0	0	0	0	547	488	0	0	0	0	
15	0	0	0	0	528	472	0	0	0	0	
0	0	0	0	0	509	457	0	0	0	0	
1	0	0	0	0	491	442	0	0	0	0	
2	0	0	0	0	475	430	0	0	0	0	
3	0	0	0	0	462	419	0	0	0	0	
4	0	0	0	0	452	412	0	0	0	0	
5	0	0	0	0	446	406	0	0	0	0	
6	0	0	0	0	443	403	0	0	0	0	
7	0	0	0	0	443	403	0	0	0	0	
8	0	0	0	0	447	404	0	0	0	0	
9	0	0	0	0	454	408	0	0	0	0	
10	0	0	0	0	462	414	0	0	0	0	
11	0	0	0	0	472	421	0	0	0	0	
12	0	0	0	0	483	429	0	0	0	0	
13	0	0	0	0	495	437	0	0	0	0	
14	0	0	0	0	504	444	0	0	0	0	
15	0	0	0	0	512	450	0	0	0	0	
0	0	0	0	0	519	455	0	0	0	0	
1	0	0	0	0	523	460	0	0	0	0	
2	0	0	0	0	525	462	0	0	0	0	
3	0	0	0	0	526	463	0	0	0	0	
4	0	0	0	0	525	463	0	0	0	0	
5	0	0	0	0	524	463	0	0	0	0	
6	0	0	0	0	523	464	0	0	0	0	
7	0	0	0	0	523	464	0	0	0	0	
8	0	0	0	0	523	466	0	0	0	0	
9	0	0	0	0	524	467	0	0	0	0	
10	0	0	0	0	525	469	0	0	0	0	
11	0	0	0	0	526	470	0	0	0	0	
12	0	0	0	0	526	470	0	0	0	0	
13	0	0	0	0	525	469	0	0	0	0	
14	0	0	0	0	524	467	0	0	0	0	
15	0	0	0	0	521	466	0	0	0	0	
0	0	0	0	0	519	464	0	0	0	0	
1	0	0	0	0	518	463	0	0	0	0	
2	0	0	0	0	516	462	0	0	0	0	
3	0	0	0	0	516	462	0	0	0	0	
4	0	0	0	0	517	463	0	0	0	0	
5	0	0	0	0	518	465	0	0	0	0	
6	0	0	0	0	519	466	0	0	0	0	
7	0	0	0	0	520	467	0	0	0	0	
8	0	0	0	0	521	467	0	0	0	0	
9	0	0	0	0	519	466	0	0	0	0	
10	0	0	0	0	515	463	0	0	0	0	
11	0	0	0	0	511	459	0	0	0	0	
12	0	0	0	0	505	453	0	0	0	0	
13	0	0	0	0	499	447	0	0	0	0	
14	0	0	0	0	492	440	0	0	0	0	
15	0	0	0	0	486	434	0	0	0	0	
0	0	0	0	0	480	428	0	0	0	0	
1	0	0	0	0	476	423	0	0	0	0	
2	0	0	0	0	475	422	0	0	0	0	
3	0	0	0	0	475	422	0	0	0	0	
4	0	0	0	0	478	425	0	0	0	0	
5	0	0	0	0	483	430	0	0	0	0	
6	0	0	0	0	490	436	0	0	0	0	
7	0	0	0	0	497	444	0	0	0	0	
8	0	0	0	0	505	452	0	0	0	0	
9	0	0	0	0	513	460	0	0	0	0	
10	0	0	0	0	521	467	0	0	0	0	
11	0	0	0	0	527	472	0	0	0	0	
12	0	0	0	0	530	476	0	0	0	0	
13	0	0	0	0	531	476	0	0	0	0	
14	0	0	0	0	531	476	0	0	0	0	
15	0	0	0	0	529	473	0	0	0	0	
0	0	0	0	0	526	469	0	0	0	0	
1	0	0	0	0	521	466	0	0	0	0	
2	0	0	0	0	518	462	0	0	0	0	
3	0	0	0	0	515	459	0	0	0	0	
4	0	0	0	0	513	457	0	0	0	0	
5	0	0	0	0	512	457	0	0	0	0	
6	0	0	0	0	512	457	0	0	0	0	
7	0	0	0	0	515	460	0	0	0	0	
8	0	0	0	0	519	464	0	0	0	0	
9	0	0	0	0	524	469	0	0	0	0	
10	0	0	0	0	530	473	0	0	0	0	
11	0	0	0	0	536	478	0	0	0	0	
12	0	0	0	0	541	481	0	0	0	0	
13	0	0	0	0	545	484	0	0	0	0	
14	0	0	0	0	548	485	0	0	0	0	
15	0	0	0	0	550	486	0	0	0	0	
0	0	0	0	0	551	486	0	0	0	0	
1	0	0	0	0	553	486	0	0	0	0	
2	0	0	0	0	554	487	0	0	0	0	
3	0	0	0	0	556	488	0	0	0	0	
4	0	0	0	0	558	491	0	0	0	0	
5	0	0	0	0	561	496	0	0	0	0	
6	0	0	0	0	564	500	0	0	0	0	
7	0	0	0	0	568	505	0	0	0	0	
8	0	0	0	0	570	508	0	0	0	0	
9	0	0	0	0	571	511	0	0	0	0	
10	0	0	0	0	569	512	0	0	0	0	
11	0	0	0	0	564	509	0	0	0	0	
12	0	0	0	0	558	505	0	0	0	0	
13	0	0	0	0	550	499	0	0	0	0	
14	0	0	0	0	540	492	0	0	0	0	
15	0	0	0	0	530	484	0	0	0	0	
0	0	0	0	0	519	475	0	0	0	0	
1	0	0	0	0	510	467	0	0	0	0	
2	0	0	0	0	500	458	0	0	0	0	
3	0	0	0	0	493	451	0	0	0	0	
4	0	0	0	0	487	445	0	0	0	0	
5	0	0	0	0	486	441	0	0	0	0	
6	0	0	0	0	487	441	0	0	0	0	
7	0	0	0	0	490	442	0	0	0	0	
8	0	0	0	0	496	445	0	0	0	0	
9	0	0	0	0	504	450	0	0	0	0	
10	0	0	0	0	513	456	0	0	0	0	
11	0	0	0	0	523	463	0	0	0	0	
12	0	0	0	0	532	470	0	0	0	0	
13	0	0	0	0	541	476	0	0	0	0	
14	0	0	0	0	548	483	0	0	0	0	
15	0	0	0	0	554	489	0	0	0	0	
0	0	0	0	0	558	493	0	0	0	0	
1	0	0	0	0	559	495	0	0	0	0	
2	0	0	0	0	556	495	0	0	0	0	
3	0	0	0	0	551	492	0	0	0	0	
4	0	0	0	0	544	487	0	0	0	0	
5	0	0	0	0	536	481	0	0	0	0	
6	0	0	0	0	526	473	0	0	0	0	
7	0	0	0	0	515	465	0	0	0	0	
8	0	0	0	0	507	456	0	0	0	0	
9	0	0	0	0	498	449	0	0	0	0	
10	0	0	0	0	492	444	0	0	0	0	
11	0	0	0	0	488	439	0	0	0	0	
12	0	0	0	0	487	437	0	0	0	0	
13	0	0	0	0	488	437	0	0	0	0	
14	0	0	0	0	491	438	0	0	0	0	
15	0	0	0	0	495	441	0	0	0	0	
0	0	0	0	0	500	444	0	0	0	0	
1	0	0	0	0	507	449	0	0	0	0	
2	0	0	0	0	513	454	0	0	0	0	
3	0	0	0	0	519	460	0	0	0	0	
4	0	0	0	0	526	465	0	0	0	0	
5	0	0	0	0	532	470	0	0	0	0	
6	0	0	0	0	538	475	0	0	0	0	
7	0	0	0	0	542	479	0	0	0	0	
8	0	0	0	0	546	483	0	0	0	0	
9	0	0	0	0	548	486	0	0	0	0	
10	0	0	0	0	550	488	0	0	0	0	
11	0	0	0	0	551	489	0	0	0	0	
12	0	0	0	0	550	491	0	0	0	0	
13	0	0	0	0	549	491	0	0	0	0	
14	0	0	0	0	547	491	0	0	0	0	
15	0	0	0	0	547	492	0	0	0	0	
0	0	0	0	0	546	492	0	0	0	0	
1	0	0	0	0	546	494	0	0	0	0	
2	0	0	0	0	547	496	0	0	0	0	
3	0	0	0	0	550	499	0	0	0	0	
4	0	0	0	0	552	502	0	0	0	0	
5	0	0	0	0	556	505	0	0	0	0	
6	0	0	0	0	560	509	0	0	0	0	
7	0	0	0	0	566	513	0	0	0	0	
8	0	0	0	0	573	520	0	0	0	0	
9	0	0	0	0	582	526	0	0	0	0	
10	0	0	0	0	591	533	0	0	0	0	
11	0	0	0	0	600	540	0	0	0	0	
12	0	0	0	0	608	545	0	0	0	0	
13	0	0	0	0	614	549	0	0	0	0	
14	0	0	0	0	619	552	0	0	0	0	
15	0	0	0	0	622	553	0	0	0	0	
0	0	0	0	0	622	553	0	0	0	0	
1	0	0	0	0	617	549	0	0	0	0	
2	0	0	0	0	610	543	0	0	0	0	
3	0	0	0	0	599	535	0	0	0	0	
4	0	0	0	0	586	524	0	0	0	0	
5	0	0	0	0	571	513	0	0	0	0	
6	0	0	0	0	555	502	0	0	0	0	
7	0	0	0	0	539	490	0	0	0	0	
8	0	0	0	0	525	479	0	0	0	0	
9	0	0	0	0	512	470	0	0	0	0	
10	0	0	0	0	503	462	0	0	0	0	
11	0	0	0	0	496	456	0	0	0	0	
12	0	0	0	0	492	452	0	0	0	0	
13	0	0	0	0	490	449	0	0	0	0	
14	0	0	0	0	490	447	0	0	0	0	
15	0	0	0	0	491	447	0	0	0	0	
0	0	0	0	0	494	447	0	0	0	0	
1	0	0	0	0	497	448	0	0	0	0	
2	0	0	0	0	501	448	0	0	0	0	
3	0	0	0	0	504	449	0	0	0	0	
4	0	0	0	0	506	451	0	0	0	0	
5	0	0	0	0	508	451	0	0	0	0	
6	0	0	0	0	509	452	0	0	0	0	
7	0	0	0	0	510	452	0	0	0	0	
8	0	0	0	0	511	455	0	0	0	0	
9	0	0	0	0	513	457	0	0	0	0	
10	0	0	0	0	516	460	0	0	0	0	
11	0	0	0	0	519	464	0	0	0	0	
12	0	0	0	0	521	467	0	0	0	0	
13	0	0	0	0	523	469	0	0	0	0	
14	0	0	0	0	524	471	0	0	0	0	
15	0	0	0	0	524	471	0	0	0	0	
0	0	0	0	0	524	472	0	0	0	0	
1	0	0	0	0	524	472	0	0	0	0	
2	0	0	0	0	524	472	0	0	0	0	
3	0	0	0	0	527	474	0	0	0	0	
4	0	0	0	0	529	476	0	0	0	0	
5	0	0	0	0	534	480	0	0	0	0	
6	0	0	0	0	539	483	0	0	0	0	
7	0	0	0	0	545	487	0	0	0	0	
8	0	0	0	0	551	492	0	0	0	0	
9	0	0	0	0	556	495	0	0	0	0	
10	0	0	0	0	560	497	0	0	0	0	
11	0	0	0	0	561	497	0	0	0	0	
12	0	0	0	0	561	496	0	0	0	0	
13	0	0	0	0	558	495	0	0	0	0	
14	0	0	0	0	554	492	0	0	0	0	
15	0	0	0	0	549	489	0	0	0	0	
0	0	0	0	0	543	484	0	0	0	0	
1	0	0	0	0	537	480	0	0	0	0	
2	0	0	0	0	531	477	0	0	0	0	
3	0	0	0	0	526	473	0	0	0	0	
4	0	0	0	0	521	471	0	0	0	0	
5	0	0	0	0	518	467	0	0	0	0	
6	0	0	0	0	515	464	0	0	0	0	
7	0	0	0	0	512	463	0	0	0	0	
8	0	0	0	0	511	462	0	0	0	0	
9	0	0	0	0	511	462	0	0	0	0	
10	0	0	0	0	511	462	0	0	0	0	
11	0	0	0	0	513	462	0	0	0	0	
12	0	0	0	0	514	464	0	0	0	0	
13	0	0	0	0	517	465	0	0	0	0	
14	0	0	0	0	520	468	0	0	0	0	
15	0	0	0	0	524	470	0	0	0	0	
0	0	0	0	0	529	473	0	0	0	0	
1	0	0	0	0	534	477	0	0	0	0	
2	0	0	0	0	539	481	0	0	0	0	
3	0	0	0	0	544	485	0	0	0	0	
4	0	0	0	0	550	489	0	0	0	0	
5	0	0	0	0	555	495	0	0	0	0	
6	0	0	0	0	560	499	0	0	0	0	
7	0	0	0	0	565	504	0	0	0	0	
8	0	0	0	0	569	511	0	0	0	0	
9	0	0	0	0	575	516	0	0	0	0	
10	0	0	0	0	579	521	0	0	0	0	
11	0	0	0	0	580	524	0	0	0	0	
12	0	0	0	0	580	526	0	0	0	0	
13	0	0	0	0	578	524	0	0	0	0	
14	0	0	0	0	574	520	0	0	0	0	
15	0	0	0	0	568	514	0	0	0	0	
0	0	0	0	0	561	508	0	0	0	0	
1	0	0	0	0	555	501	0	0	0	0	
2	0	0	0	0	549	495	0	0	0	0	
3	0	0	0	0	544	489	0	0	0	0	
4	0	0	0	0	540	483	0	0	0	0	
5	0	0	0	0	536	478	0	0	0	0	
6	0	0	0	0	534	474	0	0	0	0	
7	0	0	0	0	532	472	0	0	0	0	
8	0	0	0	0	531	470	0	0	0	0	
9	0	0	0	0	530	470	0	0	0	0	
10	0	0	0	0	529	471	0	0	0	0	
11	0	0	0	0	529	472	0	0	0	0	
12	0	0	0	0	530	473	0	0	0	0	
13	0	0	0	0	530	476	0	0	0	0	
14	0	0	0	0	531	478	0	0	0	0	
15	0	0	0	0	531	480	0	0	0	0	
0	0	0	0	0	533	484	0	0	0	0	
1	0	0	0	0	536	487	0	0	0	0	
2	0	0	0	0	539	491	0	0	0	0	
3	0	0	0	0	544	496	0	0	0	0	
4	0	0	0	0	550	502	0	0	0	0	
5	0	0	0	0	557	508	0	0	0	0	
6	0	0	0	0	565	514	0	0	0	0	
7	0	0	0	0	573	521	0	0	0	0	
8	0	0	0	0	580	527	0	0	0	0	
9	0	0	0	0	585	530	0	0	0	0	
10	0	0	0	0	588	531	0	0	0	0	
11	0	0	0	0	586	529	0	0	0	0	
12	0	0	0	0	579	522	0	0	0	0	
13	0	0	0	0	567	511	0	0	0	0	
14	0	0	0	0	550	498	0	0	0	0	
15	0	0	0	0	531	482	0	0	0	0	
0	0	0	0	0	509	464	0	0	0	0	
1	0	0	0	0	486	446	0	0	0	0	
2	0	0	0	0	463	427	0	0	0	0	
3	0	0	0	0	440	408	0	0	0	0	
4	0	0	0	0	419	390	0	0	0	0	
5	0	0	0	0	401	374	0	0	0	0	
6	0	0	0	0	384	359	0	0	0	0	
7	0	0	0	0	371	345	0	0	0	0	
8	0	0	0	0	359	333	0	0	0	0	
9	0	0	0	0	349	321	0	0	0	0	
10	0	0	0	0	340	309	0	0	0	0	
11	0	0	0	0	332	298	0	0	0	0	
12	0	0	0	0	324	287	0	0	0	0	
13	0	0	0	0	316	275	0	0	0	0	
14	0	0	0	0	308	265	0	0	0	0	
15	0	0	0	0	301	255	0	0	0	0	
0	0	0	0	0	295	248	0	0	0	0	
1	0	0	0	0	290	241	0	0	0	0	
2	0	0	0	0	287	236	0	0	0	0	
3	0	0	0	0	286	235	0	0	0	0	
4	0	0	0	0	288	236	0	0	0	0	
5	0	0	0	0	295	242	0	0	0	0	
6	0	0	0	0	305	251	0	0	0	0	
7	0	0	0	0	318	264	0	0	0	0	
8	0	0	0	0	336	280	0	0	0	0	
9	0	0	0	0	356	298	0	0	0	0	
10	0	0	0	0	378	319	0	0	0	0	
11	0	0	0	0	400	339	0	0	0	0	
12	0	0	0	0	423	359	0	0	0	0	
13	0	0	0	0	445	380	0	0	0	0	
14	0	0	0	0	465	399	0	0	0	0	
15	0	0	0	0	483	416	0	0	0	0	
0	0	0	0	0	499	432	0	0	0	0	
1	0	0	0	0	513	444	0	0	0	0	
2	0	0	0	0	524	456	0	0	0	0	
3	0	0	0	0	534	466	0	0	0	0	
4	0	0	0	0	542	475	0	0	0	0	
5	0	0	0	0	547	481	0	0	0	0	
6	0	0	0	0	551	486	0	0	0	0	
7	0	0	0	0	553	491	0	0	0	0	
8	0	0	0	0	555	494	0	0	0	0	
9	0	0	0	0	555	495	0	0	0	0	
10	0	0	0	0	555	497	0	0	0	0	
11	0	0	0	0	556	499	0	0	0	0	
12	0	0	0	0	556	501	0	0	0	0	
13	0	0	0	0	557	503	0	0	0	0	
14	0	0	0	0	558	504	0	0	0	0	
15	0	0	0	0	561	506	0	0	0	0	
0	0	0	0	0	564	508	0	0	0	0	
1	0	0	0	0	569	512	0	0	0	0	
2	0	0	0	0	574	516	0	0	0	0	
3	0	0	0	0	579	519	0	0	0	0	
4	0	0	0	0	583	521	0	0	0	0	
5	0	0	0	0	585	523	0	0	0	0	
6	0	0	0	0	585	523	0	0	0	0	
7	0	0	0	0	583	521	0	0	0	0	
8	0	0	0	0	578	518	0	0	0	0	
9	0	0	0	0	571	513	0	0	0	0	
10	0	0	0	0	563	507	0	0	0	0	
11	0	0	0	0	554	500	0	0	0	0	
12	0	0	0	0	544	494	0	0	0	0	
13	0	0	0	0	535	488	0	0	0	0	
14	0	0	0	0	527	482	0	0	0	0	
15	0	0	0	0	520	479	0	0	0	0	
0	0	0	0	0	516	476	0	0	0	0	
1	0	0	0	0	514	475	0	0	0	0	
2	0	0	0	0	515	475	0	0	0	0	
3	0	0	0	0	518	476	0	0	0	0	
4	0	0	0	0	521	478	0	0	0	0	
5	0	0	0	0	526	481	0	0	0	0	
6	0	0	0	0	531	484	0	0	0	0	
7	0	0	0	0	536	487	0	0	0	0	
8	0	0	0	0	541	489	0	0	0	0	
9	0	0	0	0	545	492	0	0	0	0	
10	0	0	0	0	548	494	0	0	0	0	
11	0	0	0	0	551	496	0	0	0	0	
12	0	0	0	0	552	496	0	0	0	0	
13	0	0	0	0	553	496	0	0	0	0	
14	0	0	0	0	552	496	0	0	0	0	
15	0	0	0	0	551	496	0	0	0	0	
0	0	0	0	0	551	496	0	0	0	0	
1	0	0	0	0	550	497	0	0	0	0	
2	0	0	0	0	548	497	0	0	0	0	
3	0	0	0	0	548	498	0	0	0	0	
4	0	0	0	0	548	500	0	0	0	0	
5	0	0	0	0	548	502	0	0	0	0	
6	0	0	0	0	550	504	0	0	0	0	
7	0	0	0	0	551	506	0	0	0	0	
8	0	0	0	0	554	509	0	0	0	0	
9	0	0	0	0	557	512	0	0	0	0	
10	0	0	0	0	561	515	0	0	0	0	
11	0	0	0	0	565	517	0	0	0	0	
12	0	0	0	0	570	520	0	0	0	0	
13	0	0	0	0	574	523	0	0	0	0	
14	0	0	0	0	579	526	0	0	0	0	
15	0	0	0	0	583	528	0	0	0	0	
0	0	0	0	0	588	531	0	0	0	0	
1	0	0	0	0	591	534	0	0	0	0	
2	0	0	0	0	592	535	0	0	0	0	
3	0	0	0	0	594	537	0	0	0	0	
4	0	0	0	0	593	537	0	0	0	0	
5	0	0	0	0	591	537	0	0	0	0	
6	0	0	0	0	588	536	0	0	0	0	
7	0	0	0	0	584	534	0	0	0	0	
8	0	0	0	0	579	531	0	0	0	0	
9	0	0	0	0	573	526	0	0	0	0	
10	0	0	0	0	566	520	0	0	0	0	
11	0	0	0	0	558	514	0	0	0	0	
12	0	0	0	0	549	506	0	0	0	0	
13	0	0	0	0	543	499	0	0	0	0	
14	0	0	0	0	537	493	0	0	0	0	
15	0	0	0	0	533	488	0	0	0	0	
0	0	0	0	0	531	486	0	0	0	0	
1	0	0	0	0	533	485	0	0	0	0	
2	0	0	0	0	537	487	0	0	0	0	
3	0	0	0	0	543	492	0	0	0	0	
4	0	0	0	0	552	497	0	0	0	0	
5	0	0	0	0	563	505	0	0	0	0	
6	0	0	0	0	575	515	0	0	0	0	
7	0	0	0	0	588	525	0	0	0	0	
8	0	0	0	0	600	536	0	0	0	0	
9	0	0	0	0	611	545	0	0	0	0	
10	0	0	0	0	620	553	0	0	0	0	
11	0	0	0	0	625	560	0	0	0	0	
12	0	0	0	0	626	561	0	0	0	0	
13	0	0	0	0	622	559	0	0	0	0	
14	0	0	0	0	612	552	0	0	0	0	
15	0	0	0	0	598	543	0	0	0	0	
0	0	0	0	0	580	530	0	0	0	0	
1	0	0	0	0	561	517	0	0	0	0	
2	0	0	0	0	542	504	0	0	0	0	
3	0	0	0	0	525	492	0	0	0	0	
4	0	0	0	0	511	481	0	0	0	0	
5	0	0	0	0	502	474	0	0	0	0	
6	0	0	0	0	497	471	0	0	0	0	
7	0	0	0	0	499	471	0	0	0	0	
8	0	0	0	0	504	473	0	0	0	0	
9	0	0	0	0	512	478	0	0	0	0	
10	0	0	0	0	523	483	0	0	0	0	
11	0	0	0	0	533	489	0	0	0	0	
12	0	0	0	0	543	495	0	0	0	0	
13	0	0	0	0	550	498	0	0	0	0	
14	0	0	0	0	556	500	0	0	0	0	
15	0	0	0	0	558	502	0	0	0	0	
0	0	0	0	0	557	501	0	0	0	0	
1	0	0	0	0	553	498	0	0	0	0	
2	0	0	0	0	549	496	0	0	0	0	
3	0	0	0	0	544	494	0	0	0	0	
4	0	0	0	0	539	491	0	0	0	0	
5	0	0	0	0	535	490	0	0	0	0	
6	0	0	0	0	531	488	0	0	0	0	
7	0	0	0	0	529	487	0	0	0	0	
8	0	0	0	0	527	486	0	0	0	0	
9	0	0	0	0	524	485	0	0	0	0	
10	0	0	0	0	523	484	0	0	0	0	
11	0	0	0	0	521	483	0	0	0	0	
12	0	0	0	0	519	480	0	0	0	0	
13	0	0	0	0	516	477	0	0	0	0	
14	0	0	0	0	513	473	0	0	0	0	
15	0	0	0	0	509	469	0	0	0	0	
0	0	0	0	0	505	465	0	0	0	0	
1	0	0	0	0	502	462	0	0	0	0	
2	0	0	0	0	500	459	0	0	0	0	
3	0	0	0	0	499	457	0	0	0	0	
4	0	0	0	0	500	457	0	0	0	0	
5	0	0	0	0	504	460	0	0	0	0	
6	0	0	0	0	509	463	0	0	0	0	
7	0	0	0	0	515	468	0	0	0	0	
8	0	0	0	0	522	474	0	0	0	0	
9	0	0	0	0	529	480	0	0	0	0	
10	0	0	0	0	536	486	0	0	0	0	
11	0	0	0	0	543	492	0	0	0	0	
12	0	0	0	0	548	496	0	0	0	0	
13	0	0	0	0	552	500	0	0	0	0	
14	0	0	0	0	556	503	0	0	0	0	
15	0	0	0	0	558	505	0	0	0	0	
0	0	0	0	0	560	506	0	0	0	0	
1	0	0	0	0	561	507	0	0	0	0	
2	0	0	0	0	561	508	0	0	0	0	
3	0	0	0	0	562	509	0	0	0	0	
4	0	0	0	0	562	510	0	0	0	0	
5	0	0	0	0	563	510	0	0	0	0	
6	0	0	0	0	563	512	0	0	0	0	
7	0	0	0	0	563	513	0	0	0	0	
8	0	0	0	0	564	515	0	0	0	0	
9	0	0	0	0	563	515	0	0	0	0	
10	0	0	0	0	561	514	0	0	0	0	
11	0	0	0	0	557	510	0	0	0	0	
12	0	0	0	0	551	504	0	0	0	0	
13	0	0	0	0	543	497	0	0	0	0	
14	0	0	0	0	535	490	0	0	0	0	
15	0	0	0	0	528	483	0	0	0	0	
0	0	0	0	0	521	476	0	0	0	0	
1	0	0	0	0	516	470	0	0	0	0	
2	0	0	0	0	512	466	0	0	0	0	
3	0	0	0	0	510	463	0	0	0	0	
4	0	0	0	0	509	460	0	0	0	0	
5	0	0	0	0	508	459	0	0	0	0	
6	0	0	0	0	508	459	0	0	0	0	
7	0	0	0	0	508	458	0	0	0	0	
8	0	0	0	0	507	458	0	0	0	0	
9	0	0	0	0	507	459	0	0	0	0	
10	0	0	0	0	508	460	0	0	0	0	
11	0	0	0	0	507	460	0	0	0	0	
12	0	0	0	0	507	461	0	0	0	0	
13	0	0	0	0	507	462	0	0	0	0	
14	0	0	0	0	507	462	0	0	0	0	
15	0	0	0	0	508	463	0	0	0	0	
0	0	0	0	0	508	464	0	0	0	0	
1	0	0	0	0	510	466	0	0	0	0	
2	0	0	0	0	514	469	0	0	0	0	
3	0	0	0	0	519	473	0	0	0	0	
4	0	0	0	0	527	479	0	0	0	0	
5	0	0	0	0	536	487	0	0	0	0	
6	0	0	0	0	547	495	0	0	0	0	
7	0	0	0	0	558	504	0	0	0	0	
8	0	0	0	0	569	511	0	0	0	0	
9	0	0	0	0	577	518	0	0	0	0	
10	0	0	0	0	583	522	0	0	0	0	
11	0	0	0	0	587	525	0	0	0	0	
12	0	0	0	0	587	526	0	0	0	0	
13	0	0	0	0	584	524	0	0	0	0	
14	0	0	0	0	578	521	0	0	0	0	
15	0	0	0	0	570	516	0	0	0	0	
0	0	0	0	0	561	511	0	0	0	0	
1	0	0	0	0	552	506	0	0	0	0	
2	0	0	0	0	543	500	0	0	0	0	
3	0	0	0	0	534	494	0	0	0	0	
4	0	0	0	0	527	488	0	0	0	0	
5	0	0	0	0	521	484	0	0	0	0	
6	0	0	0	0	517	481	0	0	0	0	
7	0	0	0	0	516	478	0	0	0	0	
8	0	0	0	0	516	477	0	0	0	0	
9	0	0	0	0	518	477	0	0	0	0	
10	0	0	0	0	521	477	0	0	0	0	
11	0	0	0	0	525	479	0	0	0	0	
12	0	0	0	0	528	480	0	0	0	0	
13	0	0	0	0	531	480	0	0	0	0	
14	0	0	0	0	532	481	0	0	0	0	
15	0	0	0	0	533	481	0	0	0	0	
0	0	0	0	0	533	482	0	0	0	0	
1	0	0	0	0	532	482	0	0	0	0	
2	0	0	0	0	531	483	0	0	0	0	
3	0	0	0	0	529	483	0	0	0	0	
4	0	0	0	0	528	483	0	0	0	0	
5	0	0	0	0	528	485	0	0	0	0	
6	0	0	0	0	528	487	0	0	0	0	
7	0	0	0	0	530	489	0	0	0	0	
8	0	0	0	0	533	492	0	0	0	0	
9	0	0	0	0	537	496	0	0	0	0	
10	0	0	0	0	542	500	0	0	0	0	
11	0	0	0	0	549	505	0	0	0	0	
12	0	0	0	0	556	509	0	0	0	0	
13	0	0	0	0	561	512	0	0	0	0	
14	0	0	0	0	565	514	0	0	0	0	
15	0	0	0	0	566	514	0	0	0	0	
0	0	0	0	0	565	511	0	0	0	0	
1	0	0	0	0	561	507	0	0	0	0	
2	0	0	0	0	555	502	0	0	0	0	
3	0	0	0	0	547	495	0	0	0	0	
4	0	0	0	0	538	488	0	0	0	0	
5	0	0	0	0	529	482	0	0	0	0	
6	0	0	0	0	521	476	0	0	0	0	
7	0	0	0	0	514	472	0	0	0	0	
8	0	0	0	0	509	468	0	0	0	0	
9	0	0	0	0	506	467	0	0	0	0	
10	0	0	0	0	506	468	0	0	0	0	
11	0	0	0	0	509	471	0	0	0	0	
12	0	0	0	0	513	476	0	0	0	0	
13	0	0	0	0	519	481	0	0	0	0	
14	0	0	0	0	526	486	0	0	0	0	
15	0	0	0	0	531	490	0	0	0	0	
0	0	0	0	0	536	493	0	0	0	0	
1	0	0	0	0	539	494	0	0	0	0	
2	0	0	0	0	541	494	0	0	0	0	
3	0	0	0	0	541	492	0	0	0	0	
4	0	0	0	0	540	490	0	0	0	0	
5	0	0	0	0	537	487	0	0	0	0	
6	0	0	0	0	535	485	0	0	0	0	
7	0	0	0	0	532	482	0	0	0	0	
8	0	0	0	0	531	481	0	0	0	0	
9	0	0	0	0	530	481	0	0	0	0	
10	0	0	0	0	531	483	0	0	0	0	
11	0	0	0	0	532	485	0	0	0	0	
12	0	0	0	0	533	487	0	0	0	0	
13	0	0	0	0	534	488	0	0	0	0	
14	0	0	0	0	535	490	0	0	0	0	
15	0	0	0	0	534	490	0	0	0	0	
0	0	0	0	0	531	489	0	0	0	0	
1	0	0	0	0	529	488	0	0	0	0	
2	0	0	0	0	526	486	0	0	0	0	
3	0	0	0	0	523	483	0	0	0	0	
4	0	0	0	0	519	479	0	0	0	0	
5	0	0	0	0	517	476	0	0	0	0	
6	0	0	0	0	515	473	0	0	0	0	
7	0	0	0	0	513	472	0	0	0	0	
8	0	0	0	0	514	471	0	0	0	0	
9	0	0	0	0	515	471	0	0	0	0	
10	0	0	0	0	516	472	0	0	0	0	
11	0	0	0	0	518	472	0	0	0	0	
12	0	0	0	0	520	474	0	0	0	0	
13	0	0	0	0	522	476	0	0	0	0	
14	0	0	0	0	524	477	0	0	0	0	
15	0	0	0	0	526	480	0	0	0	0	
0	0	0	0	0	527	481	0	0	0	0	
1	0	0	0	0	529	483	0	0	0	0	
2	0	0	0	0	531	485	0	0	0	0	
3	0	0	0	0	532	487	0	0	0	0	
4	0	0	0	0	533	487	0	0	0	0	
5	0	0	0	0	534	488	0	0	0	0	
6	0	0	0	0	533	489	0	0	0	0	
7	0	0	0	0	533	489	0	0	0	0	
8	0	0	0	0	532	488	0	0	0	0	
9	0	0	0	0	531	487	0	0	0	0	
10	0	0	0	0	530	487	0	0	0	0	
11	0	0	0	0	529	487	0	0	0	0	
12	0	0	0	0	528	486	0	0	0	0	
13	0	0	0	0	528	485	0	0	0	0	
14	0	0	0	0	527	484	0	0	0	0	
15	0	0	0	0	527	484	0	0	0	0	
0	0	0	0	0	526	483	0	0	0	0	
1	0	0	0	0	526	483	0	0	0	0	
2	0	0	0	0	526	483	0	0	0	0	
3	0	0	0	0	526	481	0	0	0	0	
4	0	0	0	0	526	481	0	0	0	0	
5	0	0	0	0	525	480	0	0	0	0	
6	0	0	0	0	525	479	0	0	0	0	
7	0	0	0	0	525	479	0	0	0	0	
8	0	0	0	0	526	480	0	0	0	0	
9	0	0	0	0	527	481	0	0	0	0	
10	0	0	0	0	530	483	0	0	0	0	
11	0	0	0	0	533	486	0	0	0	0	
12	0	0	0	0	537	488	0	0	0	0	
13	0	0	0	0	540	491	0	0	0	0	
14	0	0	0	0	542	493	0	0	0	0	
15	0	0	0	0	544	495	0	0	0	0	
0	0	0	0	0	546	496	0	0	0	0	
1	0	0	0	0	547	497	0	0	0	0	
2	0	0	0	0	548	498	0	0	0	0	
3	0	0	0	0	551	501	0	0	0	0	
4	0	0	0	0	553	504	0	0	0	0	
5	0	0	0	0	556	507	0	0	0	0	
6	0	0	0	0	559	509	0	0	0	0	
7	0	0	0	0	563	512	0	0	0	0	
8	0	0	0	0	567	516	0	0	0	0	
9	0	0	0	0	572	519	0	0	0	0	
10	0	0	0	0	576	522	0	0	0	0	
11	0	0	0	0	582	525	0	0	0	0	
12	0	0	0	0	585	527	0	0	0	0	
13	0	0	0	0	588	529	0	0	0	0	
14	0	0	0	0	589	529	0	0	0	0	
15	0	0	0	0	589	529	0	0	0	0	
0	0	0	0	0	587	528	0	0	0	0	
1	0	0	0	0	583	526	0	0	0	0	
2	0	0	0	0	580	524	0	0	0	0	
3	0	0	0	0	575	523	0	0	0	0	
4	0	0	0	0	571	519	0	0	0	0	
5	0	0	0	0	565	516	0	0	0	0	
6	0	0	0	0	559	512	0	0	0	0	
7	0	0	0	0	552	507	0	0	0	0	
8	0	0	0	0	546	502	0	0	0	0	
9	0	0	0	0	540	496	0	0	0	0	
10	0	0	0	0	534	491	0	0	0	0	
11	0	0	0	0	527	486	0	0	0	0	
12	0	0	0	0	523	480	0	0	0	0	
13	0	0	0	0	518	475	0	0	0	0	
14	0	0	0	0	513	470	0	0	0	0	
15	0	0	0	0	509	464	0	0	0	0	
0	0	0	0	0	504	459	0	0	0	0	
1	0	0	0	0	500	455	0	0	0	0	
2	0	0	0	0	496	451	0	0	0	0	
3	0	0	0	0	494	449	0	0	0	0	
4	0	0	0	0	492	447	0	0	0	0	
5	0	0	0	0	492	447	0	0	0	0	
6	0	0	0	0	494	448	0	0	0	0	
7	0	0	0	0	497	452	0	0	0	0	
8	0	0	0	0	503	456	0	0	0	0	
9	0	0	0	0	510	462	0	0	0	0	
10	0	0	0	0	517	468	0	0	0	0	
11	0	0	0	0	524	474	0	0	0	0	
12	0	0	0	0	531	480	0	0	0	0	
13	0	0	0	0	536	484	0	0	0	0	
14	0	0	0	0	540	487	0	0	0	0	
15	0	0	0	0	542	489	0	0	0	0	
0	0	0	0	0	541	489	0	0	0	0	
1	0	0	0	0	539	489	0	0	0	0	
2	0	0	0	0	535	486	0	0	0	0	
3	0	0	0	0	529	482	0	0	0	0	
4	0	0	0	0	521	476	0	0	0	0	
5	0	0	0	0	513	470	0	0	0	0	
6	0	0	0	0	505	464	0	0	0	0	
7	0	0	0	0	497	457	0	0	0	0	
8	0	0	0	0	491	451	0	0	0	0	
9	0	0	0	0	486	447	0	0	0	0	
10	0	0	0	0	483	444	0	0	0	0	
11	0	0	0	0	483	443	0	0	0	0	
12	0	0	0	0	485	444	0	0	0	0	
13	0	0	0	0	488	447	0	0	0	0	
14	0	0	0	0	495	450	0	0	0	0	
15	0	0	0	0	500	455	0	0	0	0	
0	0	0	0	0	508	460	0	0	0	0	
1	0	0	0	0	514	464	0	0	0	0	
2	0	0	0	0	522	469	0	0	0	0	
3	0	0	0	0	528	473	0	0	0	0	
4	0	0	0	0	534	478	0	0	0	0	
5	0	0	0	0	539	481	0	0	0	0	
6	0	0	0	0	542	483	0	0	0	0	
7	0	0	0	0	545	485	0	0	0	0	
8	0	0	0	0	546	487	0	0	0	0	
9	0	0	0	0	547	487	0	0	0	0	
10	0	0	0	0	547	489	0	0	0	0	
11	0	0	0	0	547	489	0	0	0	0	
12	0	0	0	0	547	491	0	0	0	0	
13	0	0	0	0	547	492	0	0	0	0	
14	0	0	0	0	548	494	0	0	0	0	
15	0	0	0	0	550	496	0	0	0	0	
0	0	0	0	0	552	499	0	0	0	0	
1	0	0	0	0	555	502	0	0	0	0	
2	0	0	0	0	558	505	0	0	0	0	
3	0	0	0	0	561	508	0	0	0	0	
4	0	0	0	0	564	511	0	0	0	0	
5	0	0	0	0	566	513	0	0	0	0	
6	0	0	0	0	567	513	0	0	0	0	
7	0	0	0	0	566	513	0	0	0	0	
8	0	0	0	0	564	512	0	0	0	0	
9	0	0	0	0	561	510	0	0	0	0	
10	0	0	0	0	557	507	0	0	0	0	
11	0	0	0	0	551	503	0	0	0	0	
12	0	0	0	0	545	499	0	0	0	0	
13	0	0	0	0	540	494	0	0	0	0	
14	0	0	0	0	534	488	0	0	0	0	
15	0	0	0	0	527	483	0	0	0	0	
0	0	0	0	0	522	478	0	0	0	0	
1	0	0	0	0	517	473	0	0	0	0	
2	0	0	0	0	513	469	0	0	0	0	
3	0	0	0	0	510	466	0	0	0	0	
4	0	0	0	0	509	465	0	0	0	0	
5	0	0	0	0	510	466	0	0	0	0	
6	0	0	0	0	512	467	0	0	0	0	
7	0	0	0	0	516	471	0	0	0	0	
8	0	0	0	0	523	478	0	0	0	0	
9	0	0	0	0	532	486	0	0	0	0	
10	0	0	0	0	544	496	0	0	0	0	
11	0	0	0	0	556	507	0	0	0	0	
12	0	0	0	0	570	519	0	0	0	0	
13	0	0	0	0	582	529	0	0	0	0	
14	0	0	0	0	590	536	0	0	0	0	
15	0	0	0	0	594	537	0	0	0	0	
0	0	0	0	0	591	535	0	0	0	0	
1	0	0	0	0	583	527	0	0	0	0	
2	0	0	0	0	572	518	0	0	0	0	
3	0	0	0	0	557	505	0	0	0	0	
4	0	0	0	0	543	493	0	0	0	0	
5	0	0	0	0	529	483	0	0	0	0	
6	0	0	0	0	520	477	0	0	0	0	
7	0	0	0	0	515	475	0	0	0	0	
8	0	0	0	0	516	477	0	0	0	0	
9	0	0	0	0	521	482	0	0	0	0	
10	0	0	0	0	530	490	0	0	0	0	
11	0	0	0	0	540	499	0	0	0	0	
12	0	0	0	0	551	507	0	0	0	0	
13	0	0	0	0	561	514	0	0	0	0	
14	0	0	0	0	568	519	0	0	0	0	
15	0	0	0	0	572	520	0	0	0	0	
0	0	0	0	0	572	519	0	0	0	0	
1	0	0	0	0	567	515	0	0	0	0	
2	0	0	0	0	560	508	0	0	0	0	
3	0	0	0	0	549	499	0	0	0	0	
4	0	0	0	0	535	488	0	0	0	0	
5	0	0	0	0	520	476	0	0	0	0	
6	0	0	0	0	504	464	0	0	0	0	
7	0	0	0	0	489	451	0	0	0	0	
8	0	0	0	0	475	440	0	0	0	0	
9	0	0	0	0	463	430	0	0	0	0	
10	0	0	0	0	455	423	0	0	0	0	
11	0	0	0	0	451	418	0	0	0	0	
12	0	0	0	0	451	417	0	0	0	0	
13	0	0	0	0	455	419	0	0	0	0	
14	0	0	0	0	461	423	0	0	0	0	
15	0	0	0	0	470	428	0	0	0	0	
0	0	0	0	0	481	435	0	0	0	0	
1	0	0	0	0	492	443	0	0	0	0	
2	0	0	0	0	504	451	0	0	0	0	
3	0	0	0	0	515	461	0	0	0	0	
4	0	0	0	0	526	471	0	0	0	0	
5	0	0	0	0	537	481	0	0	0	0	
6	0	0	0	0	547	490	0	0	0	0	
7	0	0	0	0	555	499	0	0	0	0	
8	0	0	0	0	561	507	0	0	0	0	
9	0	0	0	0	566	512	0	0	0	0	
10	0	0	0	0	569	516	0	0	0	0	
11	0	0	0	0	570	519	0	0	0	0	
12	0	0	0	0	569	519	0	0	0	0	
13	0	0	0	0	566	519	0	0	0	0	
14	0	0	0	0	563	517	0	0	0	0	
15	0	0	0	0	558	514	0	0	0	0	
0	0	0	0	0	553	511	0	0	0	0	
1	0	0	0	0	547	506	0	0	0	0	
2	0	0	0	0	540	501	0	0	0	0	
3	0	0	0	0	532	494	0	0	0	0	
4	0	0	0	0	524	486	0	0	0	0	
5	0	0	0	0	515	478	0	0	0	0	
6	0	0	0	0	506	470	0	0	0	0	
7	0	0	0	0	497	461	0	0	0	0	
8	0	0	0	0	489	454	0	0	0	0	
9	0	0	0	0	483	447	0	0	0	0	
10	0	0	0	0	478	441	0	0	0	0	
11	0	0	0	0	474	436	0	0	0	0	
12	0	0	0	0	472	433	0	0	0	0	
13	0	0	0	0	472	432	0	0	0	0	
14	0	0	0	0	475	433	0	0	0	0	
15	0	0	0	0	478	435	0	0	0	0	
0	0	0	0	0	483	439	0	0	0	0	
1	0	0	0	0	490	444	0	0	0	0	
2	0	0	0	0	497	449	0	0	0	0	
3	0	0	0	0	505	456	0	0	0	0	
4	0	0	0	0	513	463	0	0	0	0	
5	0	0	0	0	522	470	0	0	0	0	
6	0	0	0	0	529	476	0	0	0	0	
7	0	0	0	0	534	481	0	0	0	0	
8	0	0	0	0	539	486	0	0	0	0	
9	0	0	0	0	541	488	0	0	0	0	
10	0	0	0	0	541	489	0	0	0	0	
11	0	0	0	0	540	489	0	0	0	0	
12	0	0	0	0	539	489	0	0	0	0	
13	0	0	0	0	537	487	0	0	0	0	
14	0	0	0	0	534	486	0	0	0	0	
15	0	0	0	0	532	483	0	0	0	0	
0	0	0	0	0	529	482	0	0	0	0	
1	0	0	0	0	528	481	0	0	0	0	
2	0	0	0	0	527	480	0	0	0	0	
3	0	0	0	0	527	480	0	0	0	0	
4	0	0	0	0	527	480	0	0	0	0	
5	0	0	0	0	526	478	0	0	0	0	
6	0	0	0	0	526	478	0	0	0	0	
7	0	0	0	0	525	478	0	0	0	0	
8	0	0	0	0	526	478	0	0	0	0	
9	0	0	0	0	527	479	0	0	0	0	
10	0	0	0	0	529	480	0	0	0	0	
11	0	0	0	0	531	483	0	0	0	0	
12	0	0	0	0	534	485	0	0	0	0	
13	0	0	0	0	537	487	0	0	0	0	
14	0	0	0	0	540	490	0	0	0	0	
15	0	0	0	0	543	493	0	0	0	0	
0	0	0	0	0	545	496	0	0	0	0	
1	0	0	0	0	548	499	0	0	0	0	
2	0	0	0	0	551	501	0	0	0	0	
3	0	0	0	0	552	503	0	0	0	0	
4	0	0	0	0	553	504	0	0	0	0	
5	0	0	0	0	553	505	0	0	0	0	
6	0	0	0	0	551	504	0	0	0	0	
7	0	0	0	0	548	501	0	0	0	0	
8	0	0	0	0	544	497	0	0	0	0	
9	0	0	0	0	538	492	0	0	0	0	
10	0	0	0	0	532	486	0	0	0	0	
11	0	0	0	0	526	480	0	0	0	0	
12	0	0	0	0	520	473	0	0	0	0	
13	0	0	0	0	517	470	0	0	0	0	
14	0	0	0	0	514	467	0	0	0	0	
15	0	0	0	0	514	466	0	0	0	0	
0	0	0	0	0	515	466	0	0	0	0	
1	0	0	0	0	518	468	0	0	0	0	
2	0	0	0	0	522	471	0	0	0	0	
3	0	0	0	0	526	474	0	0	0	0	
4	0	0	0	0	531	479	0	0	0	0	
5	0	0	0	0	536	483	0	0	0	0	
6	0	0	0	0	540	487	0	0	0	0	
7	0	0	0	0	544	491	0	0	0	0	
8	0	0	0	0	546	492	0	0	0	0	
9	0	0	0	0	545	493	0	0	0	0	
10	0	0	0	0	543	492	0	0	0	0	
11	0	0	0	0	539	488	0	0	0	0	
12	0	0	0	0	532	483	0	0	0	0	
13	0	0	0	0	524	477	0	0	0	0	
14	0	0	0	0	515	471	0	0	0	0	
15	0	0	0	0	507	463	0	0	0	0	
0	0	0	0	0	498	456	0	0	0	0	
1	0	0	0	0	491	450	0	0	0	0	
2	0	0	0	0	483	443	0	0	0	0	
3	0	0	0	0	476	437	0	0	0	0	
4	0	0	0	0	470	430	0	0	0	0	
5	0	0	0	0	463	423	0	0	0	0	
6	0	0	0	0	456	416	0	0	0	0	
7	0	0	0	0	449	409	0	0	0	0	
8	0	0	0	0	443	401	0	0	0	0	
9	0	0	0	0	436	394	0	0	0	0	
10	0	0	0	0	431	388	0	0	0	0	
11	0	0	0	0	427	383	0	0	0	0	
12	0	0	0	0	423	377	0	0	0	0	
13	0	0	0	0	420	374	0	0	0	0	
14	0	0	0	0	417	369	0	0	0	0	
15	0	0	0	0	413	364	0	0	0	0	
0	0	0	0	0	406	357	0	0	0	0	
1	0	0	0	0	396	346	0	0	0	0	
2	0	0	0	0	381	333	0	0	0	0	
3	0	0	0	0	362	316	0	0	0	0	
4	0	0	0	0	340	295	0	0	0	0	
5	0	0	0	0	315	274	0	0	0	0	
6	0	0	0	0	289	252	0	0	0	0	
7	0	0	0	0	265	232	0	0	0	0	
8	0	0	0	0	245	216	0	0	0	0	
9	0	0	0	0	232	205	0	0	0	0	
10	0	0	0	0	227	202	0	0	0	0	
11	0	0	0	0	233	207	0	0	0	0	
12	0	0	0	0	248	221	0	0	0	0	
13	0	0	0	0	274	243	0	0	0	0	
14	0	0	0	0	307	271	0	0	0	0	
15	0	0	0	0	348	303	0	0	0	0	
0	0	0	0	0	391	339	0	0	0	0	
1	0	0	0	0	437	375	0	0	0	0	
2	0	0	0	0	480	409	0	0	0	0	
3	0	0	0	0	518	440	0	0	0	0	
4	0	0	0	0	550	466	0	0	0	0	
5	0	0	0	0	572	486	0	0	0	0	
6	0	0	0	0	588	500	0	0	0	0	
7	0	0	0	0	595	510	0	0	0	0	
8	0	0	0	0	596	515	0	0	0	0	
9	0	0	0	0	592	518	0	0	0	0	
10	0	0	0	0	584	518	0	0	0	0	
11	0	0	0	0	574	515	0	0	0	0	
12	0	0	0	0	562	512	0	0	0	0	
13	0	0	0	0	550	508	0	0	0	0	
14	0	0	0	0	539	503	0	0	0	0	
15	0	0	0	0	529	499	0	0	0	0	
0	0	0	0	0	521	494	0	0	0	0	
1	0	0	0	0	515	489	0	0	0	0	
2	0	0	0	0	510	485	0	0	0	0	
3	0	0	0	0	508	481	0	0	0	0	
4	0	0	0	0	505	478	0	0	0	0	
5	0	0	0	0	505	474	0	0	0	0	
6	0	0	0	0	507	472	0	0	0	0	
7	0	0	0	0	508	469	0	0	0	0	
8	0	0	0	0	511	468	0	0	0	0	
9	0	0	0	0	515	468	0	0	0	0	
10	0	0	0	0	520	469	0	0	0	0	
11	0	0	0	0	525	472	0	0	0	0	
12	0	0	0	0	531	475	0	0	0	0	
13	0	0	0	0	536	480	0	0	0	0	
14	0	0	0	0	541	484	0	0	0	0	
15	0	0	0	0	546	489	0	0	0	0	
0	0	0	0	0	549	494	0	0	0	0	
1	0	0	0	0	551	497	0	0	0	0	
2	0	0	0	0	551	500	0	0	0	0	
3	0	0	0	0	550	502	0	0	0	0	
4	0	0	0	0	547	502	0	0	0	0	
5	0	0	0	0	544	502	0	0	0	0	
6	0	0	0	0	541	500	0	0	0	0	
7	0	0	0	0	539	499	0	0	0	0	
8	0	0	0	0	536	497	0	0	0	0	
9	0	0	0	0	534	496	0	0	0	0	
10	0	0	0	0	533	495	0	0	0	0	
11	0	0	0	0	532	493	0	0	0	0	
12	0	0	0	0	532	491	0	0	0	0	
13	0	0	0	0	531	489	0	0	0	0	
14	0	0	0	0	532	488	0	0	0	0	
15	0	0	0	0	533	488	0	0	0	0	
0	0	0	0	0	535	488	0	0	0	0	
1	0	0	0	0	537	489	0	0	0	0	
2	0	0	0	0	540	492	0	0	0	0	
3	0	0	0	0	544	495	0	0	0	0	
4	0	0	0	0	548	499	0	0	0	0	
5	0	0	0	0	553	502	0	0	0	0	
6	0	0	0	0	557	506	0	0	0	0	
7	0	0	0	0	560	511	0	0	0	0	
8	0	0	0	0	563	513	0	0	0	0	
9	0	0	0	0	563	514	0	0	0	0	
10	0	0	0	0	561	514	0	0	0	0	
11	0	0	0	0	558	512	0	0	0	0	
12	0	0	0	0	553	509	0	0	0	0	
13	0	0	0	0	548	506	0	0	0	0	
14	0	0	0	0	544	504	0	0	0	0	
15	0	0	0	0	541	502	0	0	0	0	
0	0	0	0	0	540	501	0	0	0	0	
1	0	0	0	0	541	502	0	0	0	0	
2	0	0	0	0	543	504	0	0	0	0	
3	0	0	0	0	548	507	0	0	0	0	
4	0	0	0	0	553	510	0	0	0	0	
5	0	0	0	0	557	513	0	0	0	0	
6	0	0	0	0	560	515	0	0	0	0	
7	0	0	0	0	562	516	0	0	0	0	
8	0	0	0	0	562	516	0	0	0	0	
9	0	0	0	0	561	515	0	0	0	0	
10	0	0	0	0	559	514	0	0	0	0	
11	0	0	0	0	556	512	0	0	0	0	
12	0	0	0	0	552	510	0	0	0	0	
13	0	0	0	0	549	508	0	0	0	0	
14	0	0	0	0	547	507	0	0	0	0	
15	0	0	0	0	544	505	0	0	0	0	
0	0	0	0	0	541	504	0	0	0	0	
1	0	0	0	0	539	502	0	0	0	0	
2	0	0	0	0	536	499	0	0	0	0	
3	0	0	0	0	532	496	0	0	0	0	
4	0	0	0	0	529	492	0	0	0	0	
5	0	0	0	0	525	487	0	0	0	0	
6	0	0	0	0	522	483	0	0	0	0	
7	0	0	0	0	519	480	0	0	0	0	
8	0	0	0	0	516	476	0	0	0	0	
9	0	0	0	0	515	474	0	0	0	0	
10	0	0	0	0	514	472	0	0	0	0	
11	0	0	0	0	514	472	0	0	0	0	
12	0	0	0	0	516	473	0	0	0	0	
13	0	0	0	0	519	475	0	0	0	0	
14	0	0	0	0	523	479	0	0	0	0	
15	0	0	0	0	528	483	0	0	0	0	
0	0	0	0	0	535	489	0	0	0	0	
1	0	0	0	0	543	496	0	0	0	0	
2	0	0	0	0	552	504	0	0	0	0	
3	0	0	0	0	560	511	0	0	0	0	
4	0	0	0	0	567	517	0	0	0	0	
5	0	0	0	0	572	521	0	0	0	0	
6	0	0	0	0	576	525	0	0	0	0	
7	0	0	0	0	578	527	0	0	0	0	
8	0	0	0	0	579	528	0	0	0	0	
9	0	0	0	0	579	529	0	0	0	0	
10	0	0	0	0	579	530	0	0	0	0	
11	0	0	0	0	579	531	0	0	0	0	
12	0	0	0	0	579	533	0	0	0	0	
13	0	0	0	0	580	535	0	0	0	0	
14	0	0	0	0	581	536	0	0	0	0	
15	0	0	0	0	582	537	0	0	0	0	
0	0	0	0	0	581	537	0	0	0	0	
1	0	0	0	0	577	535	0	0	0	0	
2	0	0	0	0	572	529	0	0	0	0	
3	0	0	0	0	562	521	0	0	0	0	
4	0	0	0	0	550	511	0	0	0	0	
5	0	0	0	0	536	499	0	0	0	0	
6	0	0	0	0	521	485	0	0	0	0	
7	0	0	0	0	507	472	0	0	0	0	
8	0	0	0	0	492	461	0	0	0	0	
9	0	0	0	0	481	451	0	0	0	0	
10	0	0	0	0	472	444	0	0	0	0	
11	0	0	0	0	467	440	0	0	0	0	
12	0	0	0	0	466	437	0	0	0	0	
13	0	0	0	0	467	438	0	0	0	0	
14	0	0	0	0	472	441	0	0	0	0	
15	0	0	0	0	479	445	0	0	0	0	
0	0	0	0	0	487	451	0	0	0	0	
1	0	0	0	0	497	458	0	0	0	0	
2	0	0	0	0	510	466	0	0	0	0	
3	0	0	0	0	522	475	0	0	0	0	
4	0	0	0	0	535	484	0	0	0	0	
5	0	0	0	0	547	493	0	0	0	0	
6	0	0	0	0	558	502	0	0	0	0	
7	0	0	0	0	568	510	0	0	0	0	
8	0	0	0	0	574	516	0	0	0	0	
9	0	0	0	0	578	521	0	0	0	0	
10	0	0	0	0	578	523	0	0	0	0	
11	0	0	0	0	575	521	0	0	0	0	
12	0	0	0	0	569	518	0	0	0	0	
13	0	0	0	0	560	512	0	0	0	0	
14	0	0	0	0	550	505	0	0	0	0	
15	0	0	0	0	539	498	0	0	0	0	
0	0	0	0	0	529	491	0	0	0	0	
1	0	0	0	0	521	484	0	0	0	0	
2	0	0	0	0	515	480	0	0	0	0	
3	0	0	0	0	513	479	0	0	0	0	
4	0	0	0	0	514	479	0	0	0	0	
5	0	0	0	0	519	481	0	0	0	0	
6	0	0	0	0	525	485	0	0	0	0	
7	0	0	0	0	531	490	0	0	0	0	
8	0	0	0	0	538	494	0	0	0	0	
9	0	0	0	0	543	497	0	0	0	0	
10	0	0	0	0	546	498	0	0	0	0	
11	0	0	0	0	547	498	0	0	0	0	
12	0	0	0	0	545	496	0	0	0	0	
13	0	0	0	0	542	494	0	0	0	0	
14	0	0	0	0	536	489	0	0	0	0	
15	0	0	0	0	529	483	0	0	0	0	
0	0	0	0	0	521	477	0	0	0	0	
1	0	0	0	0	511	470	0	0	0	0	
2	0	0	0	0	502	463	0	0	0	0	
3	0	0	0	0	493	455	0	0	0	0	
4	0	0	0	0	484	448	0	0	0	0	
5	0	0	0	0	477	442	0	0	0	0	
6	0	0	0	0	472	438	0	0	0	0	
7	0	0	0	0	470	435	0	0	0	0	
8	0	0	0	0	470	434	0	0	0	0	
9	0	0	0	0	473	436	0	0	0	0	
10	0	0	0	0	480	441	0	0	0	0	
11	0	0	0	0	489	448	0	0	0	0	
12	0	0	0	0	502	458	0	0	0	0	
13	0	0	0	0	515	469	0	0	0	0	
14	0	0	0	0	531	481	0	0	0	0	
15	0	0	0	0	546	493	0	0	0	0	
0	0	0	0	0	560	504	0	0	0	0	
1	0	0	0	0	571	513	0	0	0	0	
2	0	0	0	0	579	519	0	0	0	0	
3	0	0	0	0	582	522	0	0	0	0	
4	0	0	0	0	580	520	0	0	0	0	
5	0	0	0	0	574	516	0	0	0	0	
6	0	0	0	0	564	509	0	0	0	0	
7	0	0	0	0	552	501	0	0	0	0	
8	0	0	0	0	539	492	0	0	0	0	
9	0	0	0	0	526	484	0	0	0	0	
10	0	0	0	0	514	476	0	0	0	0	
11	0	0	0	0	504	470	0	0	0	0	
12	0	0	0	0	496	465	0	0	0	0	
13	0	0	0	0	493	463	0	0	0	0	
14	0	0	0	0	492	463	0	0	0	0	
15	0	0	0	0	495	467	0	0	0	0	
0	0	0	0	0	502	472	0	0	0	0	
1	0	0	0	0	510	478	0	0	0	0	
2	0	0	0	0	520	485	0	0	0	0	
3	0	0	0	0	531	492	0	0	0	0	
4	0	0	0	0	543	500	0	0	0	0	
5	0	0	0	0	554	507	0	0	0	0	
6	0	0	0	0	564	513	0	0	0	0	
7	0	0	0	0	573	519	0	0	0	0	
8	0	0	0	0	579	522	0	0	0	0	
9	0	0	0	0	583	524	0	0	0	0	
10	0	0	0	0	583	524	0	0	0	0	
11	0	0	0	0	581	522	0	0	0	0	
12	0	0	0	0	578	519	0	0	0	0	
13	0	0	0	0	573	517	0	0	0	0	
14	0	0	0	0	569	515	0	0	0	0	
15	0	0	0	0	567	515	0	0	0	0	
0	0	0	0	0	564	515	0	0	0	0	
1	0	0	0	0	561	515	0	0	0	0	
2	0	0	0	0	557	511	0	0	0	0	
3	0	0	0	0	551	508	0	0	0	0	
4	0	0	0	0	543	503	0	0	0	0	
5	0	0	0	0	534	495	0	0	0	0	
6	0	0	0	0	524	487	0	0	0	0	
7	0	0	0	0	511	477	0	0	0	0	
8	0	0	0	0	500	466	0	0	0	0	
9	0	0	0	0	489	456	0	0	0	0	
10	0	0	0	0	479	447	0	0	0	0	
11	0	0	0	0	472	440	0	0	0	0	
12	0	0	0	0	467	435	0	0	0	0	
13	0	0	0	0	465	432	0	0	0	0	
14	0	0	0	0	467	433	0	0	0	0	
15	0	0	0	0	472	436	0	0	0	0	
0	0	0	0	0	481	443	0	0	0	0	
1	0	0	0	0	493	451	0	0	0	0	
2	0	0	0	0	507	461	0	0	0	0	
3	0	0	0	0	522	472	0	0	0	0	
4	0	0	0	0	536	482	0	0	0	0	
5	0	0	0	0	548	491	0	0	0	0	
6	0	0	0	0	556	497	0	0	0	0	
7	0	0	0	0	561	501	0	0	0	0	
8	0	0	0	0	561	502	0	0	0	0	
9	0	0	0	0	557	499	0	0	0	0	
10	0	0	0	0	548	493	0	0	0	0	
11	0	0	0	0	536	485	0	0	0	0	
12	0	0	0	0	522	476	0	0	0	0	
13	0	0	0	0	507	465	0	0	0	0	
14	0	0	0	0	492	455	0	0	0	0	
15	0	0	0	0	480	447	0	0	0	0	
0	0	0	0	0	471	441	0	0	0	0	
1	0	0	0	0	465	438	0	0	0	0	
2	0	0	0	0	464	437	0	0	0	0	
3	0	0	0	0	466	439	0	0	0	0	
4	0	0	0	0	471	443	0	0	0	0	
5	0	0	0	0	479	448	0	0	0	0	
6	0	0	0	0	489	454	0	0	0	0	
7	0	0	0	0	500	461	0	0	0	0	
8	0	0	0	0	511	467	0	0	0	0	
9	0	0	0	0	520	473	0	0	0	0	
10	0	0	0	0	529	478	0	0	0	0	
11	0	0	0	0	536	483	0	0	0	0	
12	0	0	0	0	542	486	0	0	0	0	
13	0	0	0	0	545	489	0	0	0	0	
14	0	0	0	0	547	490	0	0	0	0	
15	0	0	0	0	546	491	0	0	0	0	
0	0	0	0	0	544	490	0	0	0	0	
1	0	0	0	0	541	489	0	0	0	0	
2	0	0	0	0	537	488	0	0	0	0	
3	0	0	0	0	534	486	0	0	0	0	
4	0	0	0	0	529	484	0	0	0	0	
5	0	0	0	0	527	483	0	0	0	0	
6	0	0	0	0	526	483	0	0	0	0	
7	0	0	0	0	525	483	0	0	0	0	
8	0	0	0	0	526	483	0	0	0	0	
9	0	0	0	0	527	483	0	0	0	0	
10	0	0	0	0	529	483	0	0	0	0	
11	0	0	0	0	531	484	0	0	0	0	
12	0	0	0	0	532	484	0	0	0	0	
13	0	0	0	0	532	483	0	0	0	0	
14	0	0	0	0	531	483	0	0	0	0	
15	0	0	0	0	530	482	0	0	0	0	
0	0	0	0	0	527	481	0	0	0	0	
1	0	0	0	0	524	480	0	0	0	0	
2	0	0	0	0	521	478	0	0	0	0	
3	0	0	0	0	518	477	0	0	0	0	
4	0	0	0	0	515	476	0	0	0	0	
5	0	0	0	0	514	476	0	0	0	0	
6	0	0	0	0	513	476	0	0	0	0	
7	0	0	0	0	514	476	0	0	0	0	
8	0	0	0	0	515	478	0	0	0	0	
9	0	0	0	0	519	480	0	0	0	0	
10	0	0	0	0	523	483	0	0	0	0	
11	0	0	0	0	528	486	0	0	0	0	
12	0	0	0	0	533	489	0	0	0	0	
13	0	0	0	0	538	492	0	0	0	0	
14	0	0	0	0	543	496	0	0	0	0	
15	0	0	0	0	548	499	0	0	0	0	
0	0	0	0	0	551	501	0	0	0	0	
1	0	0	0	0	553	502	0	0	0	0	
2	0	0	0	0	554	501	0	0	0	0	
3	0	0	0	0	551	499	0	0	0	0	
4	0	0	0	0	547	496	0	0	0	0	
5	0	0	0	0	541	489	0	0	0	0	
6	0	0	0	0	533	483	0	0	0	0	
7	0	0	0	0	524	476	0	0	0	0	
8	0	0	0	0	516	468	0	0	0	0	
9	0	0	0	0	508	462	0	0	0	0	
10	0	0	0	0	501	456	0	0	0	0	
11	0	0	0	0	495	452	0	0	0	0	
12	0	0	0	0	492	449	0	0	0	0	
13	0	0	0	0	490	448	0	0	0	0	
14	0	0	0	0	490	448	0	0	0	0	
15	0	0	0	0	492	450	0	0	0	0	
0	0	0	0	0	496	452	0	0	0	0	
1	0	0	0	0	502	457	0	0	0	0	
2	0	0	0	0	510	463	0	0	0	0	
3	0	0	0	0	519	471	0	0	0	0	
4	0	0	0	0	531	480	0	0	0	0	
5	0	0	0	0	544	491	0	0	0	0	
6	0	0	0	0	559	503	0	0	0	0	
7	0	0	0	0	574	516	0	0	0	0	
8	0	0	0	0	590	529	0	0	0	0	
9	0	0	0	0	603	541	0	0	0	0	
10	0	0	0	0	614	551	0	0	0	0	
11	0	0	0	0	620	558	0	0	0	0	
12	0	0	0	0	623	561	0	0	0	0	
13	0	0	0	0	619	560	0	0	0	0	
14	0	0	0	0	610	553	0	0	0	0	
15	0	0	0	0	597	543	0	0	0	0	
0	0	0	0	0	581	532	0	0	0	0	
1	0	0	0	0	564	519	0	0	0	0	
2	0	0	0	0	547	505	0	0	0	0	
3	0	0	0	0	531	493	0	0	0	0	
4	0	0	0	0	517	482	0	0	0	0	
5	0	0	0	0	507	473	0	0	0	0	
6	0	0	0	0	499	466	0	0	0	0	
7	0	0	0	0	494	461	0	0	0	0	
8	0	0	0	0	492	458	0	0	0	0	
9	0	0	0	0	492	457	0	0	0	0	
10	0	0	0	0	495	458	0	0	0	0	
11	0	0	0	0	499	460	0	0	0	0	
12	0	0	0	0	504	463	0	0	0	0	
13	0	0	0	0	510	466	0	0	0	0	
14	0	0	0	0	515	468	0	0	0	0	
15	0	0	0	0	518	470	0	0	0	0	
0	0	0	0	0	520	471	0	0	0	0	
1	0	0	0	0	520	470	0	0	0	0	
2	0	0	0	0	519	469	0	0	0	0	
3	0	0	0	0	516	467	0	0	0	0	
4	0	0	0	0	512	464	0	0	0	0	
5	0	0	0	0	508	461	0	0	0	0	
6	0	0	0	0	503	458	0	0	0	0	
7	0	0	0	0	499	455	0	0	0	0	
8	0	0	0	0	496	454	0	0	0	0	
9	0	0	0	0	495	452	0	0	0	0	
10	0	0	0	0	495	453	0	0	0	0	
11	0	0	0	0	497	455	0	0	0	0	
12	0	0	0	0	501	457	0	0	0	0	
13	0	0	0	0	506	462	0	0	0	0	
14	0	0	0	0	512	466	0	0	0	0	
15	0	0	0	0	518	471	0	0	0	0	
0	0	0	0	0	524	476	0	0	0	0	
1	0	0	0	0	530	481	0	0	0	0	
2	0	0	0	0	535	486	0	0	0	0	
3	0	0	0	0	539	488	0	0	0	0	
4	0	0	0	0	543	492	0	0	0	0	
5	0	0	0	0	545	495	0	0	0	0	
6	0	0	0	0	547	498	0	0	0	0	
7	0	0	0	0	549	499	0	0	0	0	
8	0	0	0	0	549	502	0	0	0	0	
9	0	0	0	0	550	503	0	0	0	0	
10	0	0	0	0	549	504	0	0	0	0	
11	0	0	0	0	547	504	0	0	0	0	
12	0	0	0	0	545	503	0	0	0	0	
13	0	0	0	0	542	500	0	0	0	0	
14	0	0	0	0	537	496	0	0	0	0	
15	0	0	0	0	531	491	0	0	0	0	
0	0	0	0	0	524	483	0	0	0	0	
1	0	0	0	0	516	476	0	0	0	0	
2	0	0	0	0	508	468	0	0	0	0	
3	0	0	0	0	500	460	0	0	0	0	
4	0	0	0	0	494	454	0	0	0	0	
5	0	0	0	0	488	449	0	0	0	0	
6	0	0	0	0	486	446	0	0	0	0	
7	0	0	0	0	485	445	0	0	0	0	
8	0	0	0	0	487	447	0	0	0	0	
9	0	0	0	0	491	450	0	0	0	0	
10	0	0	0	0	497	455	0	0	0	0	
11	0	0	0	0	504	460	0	0	0	0	
12	0	0	0	0	511	466	0	0	0	0	
13	0	0	0	0	518	471	0	0	0	0	
14	0	0	0	0	524	476	0	0	0	0	
15	0	0	0	0	529	480	0	0	0	0	
0	0	0	0	0	533	482	0	0	0	0	
1	0	0	0	0	536	484	0	0	0	0	
2	0	0	0	0	537	485	0	0	0	0	
3	0	0	0	0	537	485	0	0	0	0	
4	0	0	0	0	537	485	0	0	0	0	
5	0	0	0	0	536	484	0	0	0	0	
6	0	0	0	0	534	484	0	0	0	0	
7	0	0	0	0	534	484	0	0	0	0	
8	0	0	0	0	534	486	0	0	0	0	
9	0	0	0	0	536	488	0	0	0	0	
10	0	0	0	0	540	493	0	0	0	0	
11	0	0	0	0	546	499	0	0	0	0	
12	0	0	0	0	556	508	0	0	0	0	
13	0	0	0	0	567	518	0	0	0	0	
14	0	0	0	0	580	528	0	0	0	0	
15	0	0	0	0	593	539	0	0	0	0	
0	0	0	0	0	606	549	0	0	0	0	
1	0	0	0	0	618	556	0	0	0	0	
2	0	0	0	0	626	562	0	0	0	0	
3	0	0	0	0	630	563	0	0	0	0	
4	0	0	0	0	628	561	0	0	0	0	
5	0	0	0	0	621	555	0	0	0	0	
6	0	0	0	0	609	544	0	0	0	0	
7	0	0	0	0	592	532	0	0	0	0	
8	0	0	0	0	573	518	0	0	0	0	
9	0	0	0	0	553	504	0	0	0	0	
10	0	0	0	0	533	490	0	0	0	0	
11	0	0	0	0	515	479	0	0	0	0	
12	0	0	0	0	501	470	0	0	0	0	
13	0	0	0	0	489	462	0	0	0	0	
14	0	0	0	0	482	458	0	0	0	0	
15	0	0	0	0	481	456	0	0	0	0	
0	0	0	0	0	482	457	0	0	0	0	
1	0	0	0	0	487	460	0	0	0	0	
2	0	0	0	0	493	463	0	0	0	0	
3	0	0	0	0	501	467	0	0	0	0	
4	0	0	0	0	510	471	0	0	0	0	
5	0	0	0	0	519	475	0	0	0	0	
6	0	0	0	0	526	478	0	0	0	0	
7	0	0	0	0	531	481	0	0	0	0	
8	0	0	0	0	536	483	0	0	0	0	
9	0	0	0	0	538	484	0	0	0	0	
10	0	0	0	0	539	484	0	0	0	0	
11	0	0	0	0	539	485	0	0	0	0	
12	0	0	0	0	537	485	0	0	0	0	
13	0	0	0	0	536	485	0	0	0	0	
14	0	0	0	0	534	486	0	0	0	0	
15	0	0	0	0	533	487	0	0	0	0	
0	0	0	0	0	531	488	0	0	0	0	
1	0	0	0	0	531	490	0	0	0	0	
2	0	0	0	0	530	492	0	0	0	0	
3	0	0	0	0	530	493	0	0	0	0	
4	0	0	0	0	531	495	0	0	0	0	
5	0	0	0	0	532	497	0	0	0	0	
6	0	0	0	0	535	499	0	0	0	0	
7	0	0	0	0	539	502	0	0	0	0	
8	0	0	0	0	542	504	0	0	0	0	
9	0	0	0	0	545	506	0	0	0	0	
10	0	0	0	0	547	507	0	0	0	0	
11	0	0	0	0	549	506	0	0	0	0	
12	0	0	0	0	549	505	0	0	0	0	
13	0	0	0	0	547	503	0	0	0	0	
14	0	0	0	0	546	500	0	0	0	0	
15	0	0	0	0	545	498	0	0	0	0	
0	0	0	0	0	543	496	0	0	0	0	
1	0	0	0	0	543	496	0	0	0	0	
2	0	0	0	0	545	497	0	0	0	0	
3	0	0	0	0	549	501	0	0	0	0	
4	0	0	0	0	554	505	0	0	0	0	
5	0	0	0	0	560	511	0	0	0	0	
6	0	0	0	0	568	517	0	0	0	0	
7	0	0	0	0	574	523	0	0	0	0	
8	0	0	0	0	579	527	0	0	0	0	
9	0	0	0	0	583	531	0	0	0	0	
10	0	0	0	0	583	533	0	0	0	0	
11	0	0	0	0	581	531	0	0	0	0	
12	0	0	0	0	574	525	0	0	0	0	
13	0	0	0	0	564	517	0	0	0	0	
14	0	0	0	0	551	506	0	0	0	0	
15	0	0	0	0	537	494	0	0	0	0	
0	0	0	0	0	522	480	0	0	0	0	
1	0	0	0	0	506	467	0	0	0	0	
2	0	0	0	0	493	455	0	0	0	0	
3	0	0	0	0	481	446	0	0	0	0	
4	0	0	0	0	473	438	0	0	0	0	
5	0	0	0	0	467	433	0	0	0	0	
6	0	0	0	0	465	431	0	0	0	0	
7	0	0	0	0	467	432	0	0	0	0	
8	0	0	0	0	472	436	0	0	0	0	
9	0	0	0	0	481	443	0	0	0	0	
10	0	0	0	0	492	451	0	0	0	0	
11	0	0	0	0	504	461	0	0	0	0	
12	0	0	0	0	518	472	0	0	0	0	
13	0	0	0	0	531	482	0	0	0	0	
14	0	0	0	0	542	491	0	0	0	0	
