# OpenSignals Text File Format. Version 1
# {"": {"position": 0, "device": "", "device name": "", "device connection": "", "sampling rate": 1000, "resolution": [4, 1, 1, 1, 1, 10, 10, 10, 10, 6, 6], "firmware version": 1281, "comments": "", "keywords": "", "mode": 0, "sync interval": 2, "date": "", "time": "", "channels": [1, 2, 3, 4, 5, 6], "sensor": ["RAW", "RAW", "RAW", "RAW", "RAW", "RAW"], "label": ["A1", "A2", "A3", "A4", "A5", "A6"], "column": ["nSeq", "I1", "I2", "O1", "O2", "A1", "A2", "A3", "A4", "A5", "A6"], "special": [{}, {}, {}, {}, {}, {}], "digital IO": [0, 0, 1, 1]}}
# EndOfHeader
0	0	0	0	0	555	491	0	0	0	0	
1	0	0	0	0	553	490	0	0	0	0	
2	0	0	0	0	552	490	0	0	0	0	
3	0	0	0	0	552	492	0	0	0	0	
4	0	0	0	0	555	494	0	0	0	0	
5	0	0	0	0	558	499	0	0	0	0	
6	0	0	0	0	563	504	0	0	0	0	
7	0	0	0	0	569	511	0	0	0	0	
8	0	0	0	0	577	519	0	0	0	0	
9	0	0	0	0	585	527	0	0	0	0	
10	0	0	0	0	593	534	0	0	0	0	
11	0	0	0	0	599	539	0	0	0	0	
12	0	0	0	0	603	542	0	0	0	0	
13	0	0	0	0	604	541	0	0	0	0	
14	0	0	0	0	601	539	0	0	0	0	
15	0	0	0	0	596	533	0	0	0	0	
0	0	0	0	0	588	525	0	0	0	0	
1	0	0	0	0	579	517	0	0	0	0	
2	0	0	0	0	570	509	0	0	0	0	
3	0	0	0	0	560	502	0	0	0	0	
4	0	0	0	0	553	495	0	0	0	0	
5	0	0	0	0	546	489	0	0	0	0	
6	0	0	0	0	540	485	0	0	0	0	
7	0	0	0	0	537	483	0	0	0	0	
8	0	0	0	0	536	482	0	0	0	0	
9	0	0	0	0	535	482	0	0	0	0	
10	0	0	0	0	536	483	0	0	0	0	
11	0	0	0	0	538	484	0	0	0	0	
12	0	0	0	0	541	486	0	0	0	0	
13	0	0	0	0	543	487	0	0	0	0	
14	0	0	0	0	545	487	0	0	0	0	
15	0	0	0	0	546	487	0	0	0	0	
0	0	0	0	0	547	487	0	0	0	0	
1	0	0	0	0	546	486	0	0	0	0	
2	0	0	0	0	545	484	0	0	0	0	
3	0	0	0	0	543	482	0	0	0	0	
4	0	0	0	0	541	481	0	0	0	0	
5	0	0	0	0	540	480	0	0	0	0	
6	0	0	0	0	538	479	0	0	0	0	
7	0	0	0	0	537	478	0	0	0	0	
8	0	0	0	0	536	479	0	0	0	0	
9	0	0	0	0	536	479	0	0	0	0	
10	0	0	0	0	537	481	0	0	0	0	
11	0	0	0	0	540	483	0	0	0	0	
12	0	0	0	0	543	487	0	0	0	0	
13	0	0	0	0	547	490	0	0	0	0	
14	0	0	0	0	552	494	0	0	0	0	
15	0	0	0	0	557	498	0	0	0	0	
0	0	0	0	0	562	502	0	0	0	0	
1	0	0	0	0	567	505	0	0	0	0	
2	0	0	0	0	572	508	0	0	0	0	
3	0	0	0	0	577	512	0	0	0	0	
4	0	0	0	0	582	515	0	0	0	0	
5	0	0	0	0	585	519	0	0	0	0	
6	0	0	0	0	589	521	0	0	0	0	
7	0	0	0	0	591	524	0	0	0	0	
8	0	0	0	0	592	525	0	0	0	0	
9	0	0	0	0	590	524	0	0	0	0	
10	0	0	0	0	586	523	0	0	0	0	
11	0	0	0	0	582	519	0	0	0	0	
12	0	0	0	0	576	516	0	0	0	0	
13	0	0	0	0	569	512	0	0	0	0	
14	0	0	0	0	564	509	0	0	0	0	
15	0	0	0	0	560	508	0	0	0	0	
0	0	0	0	0	558	508	0	0	0	0	
1	0	0	0	0	559	510	0	0	0	0	
2	0	0	0	0	562	513	0	0	0	0	
3	0	0	0	0	566	516	0	0	0	0	
4	0	0	0	0	570	519	0	0	0	0	
5	0	0	0	0	575	523	0	0	0	0	
6	0	0	0	0	579	524	0	0	0	0	
7	0	0	0	0	582	525	0	0	0	0	
8	0	0	0	0	583	524	0	0	0	0	
9	0	0	0	0	582	522	0	0	0	0	
10	0	0	0	0	579	519	0	0	0	0	
11	0	0	0	0	575	514	0	0	0	0	
12	0	0	0	0	570	509	0	0	0	0	
13	0	0	0	0	563	503	0	0	0	0	
14	0	0	0	0	556	497	0	0	0	0	
15	0	0	0	0	548	492	0	0	0	0	
0	0	0	0	0	540	487	0	0	0	0	
1	0	0	0	0	534	483	0	0	0	0	
2	0	0	0	0	528	479	0	0	0	0	
3	0	0	0	0	523	476	0	0	0	0	
4	0	0	0	0	519	473	0	0	0	0	
5	0	0	0	0	518	471	0	0	0	0	
6	0	0	0	0	517	470	0	0	0	0	
7	0	0	0	0	517	469	0	0	0	0	
8	0	0	0	0	518	468	0	0	0	0	
9	0	0	0	0	519	469	0	0	0	0	
10	0	0	0	0	523	470	0	0	0	0	
11	0	0	0	0	526	472	0	0	0	0	
12	0	0	0	0	530	473	0	0	0	0	
13	0	0	0	0	534	476	0	0	0	0	
14	0	0	0	0	537	478	0	0	0	0	
15	0	0	0	0	541	480	0	0	0	0	
0	0	0	0	0	544	481	0	0	0	0	
1	0	0	0	0	547	483	0	0	0	0	
2	0	0	0	0	549	485	0	0	0	0	
3	0	0	0	0	552	487	0	0	0	0	
4	0	0	0	0	555	491	0	0	0	0	
5	0	0	0	0	558	494	0	0	0	0	
6	0	0	0	0	560	496	0	0	0	0	
7	0	0	0	0	561	498	0	0	0	0	
8	0	0	0	0	561	499	0	0	0	0	
9	0	0	0	0	560	499	0	0	0	0	
10	0	0	0	0	558	498	0	0	0	0	
11	0	0	0	0	555	496	0	0	0	0	
12	0	0	0	0	551	492	0	0	0	0	
13	0	0	0	0	546	488	0	0	0	0	
14	0	0	0	0	540	484	0	0	0	0	
15	0	0	0	0	535	481	0	0	0	0	
0	0	0	0	0	530	478	0	0	0	0	
1	0	0	0	0	526	476	0	0	0	0	
2	0	0	0	0	525	474	0	0	0	0	
3	0	0	0	0	524	474	0	0	0	0	
4	0	0	0	0	524	475	0	0	0	0	
5	0	0	0	0	526	476	0	0	0	0	
6	0	0	0	0	528	477	0	0	0	0	
7	0	0	0	0	532	479	0	0	0	0	
8	0	0	0	0	537	482	0	0	0	0	
9	0	0	0	0	543	486	0	0	0	0	
10	0	0	0	0	549	489	0	0	0	0	
11	0	0	0	0	554	493	0	0	0	0	
12	0	0	0	0	559	495	0	0	0	0	
13	0	0	0	0	562	496	0	0	0	0	
14	0	0	0	0	561	496	0	0	0	0	
15	0	0	0	0	559	494	0	0	0	0	
0	0	0	0	0	554	490	0	0	0	0	
1	0	0	0	0	548	486	0	0	0	0	
2	0	0	0	0	541	481	0	0	0	0	
3	0	0	0	0	534	476	0	0	0	0	
4	0	0	0	0	527	472	0	0	0	0	
5	0	0	0	0	520	468	0	0	0	0	
6	0	0	0	0	515	465	0	0	0	0	
7	0	0	0	0	513	465	0	0	0	0	
8	0	0	0	0	512	465	0	0	0	0	
9	0	0	0	0	513	467	0	0	0	0	
10	0	0	0	0	515	471	0	0	0	0	
11	0	0	0	0	521	476	0	0	0	0	
12	0	0	0	0	527	481	0	0	0	0	
13	0	0	0	0	536	488	0	0	0	0	
14	0	0	0	0	545	496	0	0	0	0	
15	0	0	0	0	557	505	0	0	0	0	
0	0	0	0	0	568	514	0	0	0	0	
1	0	0	0	0	579	523	0	0	0	0	
2	0	0	0	0	591	531	0	0	0	0	
3	0	0	0	0	600	538	0	0	0	0	
4	0	0	0	0	607	543	0	0	0	0	
5	0	0	0	0	611	547	0	0	0	0	
6	0	0	0	0	613	547	0	0	0	0	
7	0	0	0	0	613	547	0	0	0	0	
8	0	0	0	0	610	545	0	0	0	0	
9	0	0	0	0	606	543	0	0	0	0	
10	0	0	0	0	601	540	0	0	0	0	
11	0	0	0	0	596	536	0	0	0	0	
12	0	0	0	0	590	534	0	0	0	0	
13	0	0	0	0	584	531	0	0	0	0	
14	0	0	0	0	578	527	0	0	0	0	
15	0	0	0	0	572	525	0	0	0	0	
0	0	0	0	0	567	522	0	0	0	0	
1	0	0	0	0	562	519	0	0	0	0	
2	0	0	0	0	556	514	0	0	0	0	
3	0	0	0	0	550	508	0	0	0	0	
4	0	0	0	0	543	502	0	0	0	0	
5	0	0	0	0	536	494	0	0	0	0	
6	0	0	0	0	529	485	0	0	0	0	
7	0	0	0	0	521	477	0	0	0	0	
8	0	0	0	0	513	468	0	0	0	0	
9	0	0	0	0	506	460	0	0	0	0	
10	0	0	0	0	500	454	0	0	0	0	
11	0	0	0	0	496	448	0	0	0	0	
12	0	0	0	0	492	444	0	0	0	0	
13	0	0	0	0	492	442	0	0	0	0	
14	0	0	0	0	493	443	0	0	0	0	
15	0	0	0	0	497	445	0	0	0	0	
0	0	0	0	0	503	449	0	0	0	0	
1	0	0	0	0	511	456	0	0	0	0	
2	0	0	0	0	519	463	0	0	0	0	
3	0	0	0	0	527	470	0	0	0	0	
4	0	0	0	0	536	476	0	0	0	0	
5	0	0	0	0	542	483	0	0	0	0	
6	0	0	0	0	547	487	0	0	0	0	
7	0	0	0	0	551	491	0	0	0	0	
8	0	0	0	0	552	492	0	0	0	0	
9	0	0	0	0	552	493	0	0	0	0	
10	0	0	0	0	551	492	0	0	0	0	
11	0	0	0	0	549	491	0	0	0	0	
12	0	0	0	0	545	488	0	0	0	0	
13	0	0	0	0	541	484	0	0	0	0	
14	0	0	0	0	537	479	0	0	0	0	
15	0	0	0	0	533	475	0	0	0	0	
0	0	0	0	0	528	470	0	0	0	0	
1	0	0	0	0	525	467	0	0	0	0	
2	0	0	0	0	523	464	0	0	0	0	
3	0	0	0	0	521	462	0	0	0	0	
4	0	0	0	0	519	461	0	0	0	0	
5	0	0	0	0	518	460	0	0	0	0	
6	0	0	0	0	518	460	0	0	0	0	
7	0	0	0	0	518	462	0	0	0	0	
8	0	0	0	0	520	465	0	0	0	0	
9	0	0	0	0	524	469	0	0	0	0	
10	0	0	0	0	529	475	0	0	0	0	
11	0	0	0	0	537	483	0	0	0	0	
12	0	0	0	0	545	492	0	0	0	0	
13	0	0	0	0	556	500	0	0	0	0	
14	0	0	0	0	566	508	0	0	0	0	
15	0	0	0	0	575	515	0	0	0	0	
0	0	0	0	0	582	519	0	0	0	0	
1	0	0	0	0	585	521	0	0	0	0	
2	0	0	0	0	586	519	0	0	0	0	
3	0	0	0	0	583	515	0	0	0	0	
4	0	0	0	0	577	509	0	0	0	0	
5	0	0	0	0	568	501	0	0	0	0	
6	0	0	0	0	558	493	0	0	0	0	
7	0	0	0	0	545	483	0	0	0	0	
8	0	0	0	0	533	475	0	0	0	0	
9	0	0	0	0	522	467	0	0	0	0	
10	0	0	0	0	513	462	0	0	0	0	
11	0	0	0	0	507	460	0	0	0	0	
12	0	0	0	0	505	460	0	0	0	0	
13	0	0	0	0	507	462	0	0	0	0	
14	0	0	0	0	511	467	0	0	0	0	
15	0	0	0	0	518	473	0	0	0	0	
0	0	0	0	0	526	479	0	0	0	0	
1	0	0	0	0	536	484	0	0	0	0	
2	0	0	0	0	543	489	0	0	0	0	
3	0	0	0	0	549	491	0	0	0	0	
4	0	0	0	0	553	492	0	0	0	0	
5	0	0	0	0	555	492	0	0	0	0	
6	0	0	0	0	556	491	0	0	0	0	
7	0	0	0	0	556	489	0	0	0	0	
8	0	0	0	0	554	487	0	0	0	0	
9	0	0	0	0	551	486	0	0	0	0	
10	0	0	0	0	549	484	0	0	0	0	
11	0	0	0	0	547	482	0	0	0	0	
12	0	0	0	0	544	481	0	0	0	0	
13	0	0	0	0	542	480	0	0	0	0	
14	0	0	0	0	539	478	0	0	0	0	
15	0	0	0	0	536	478	0	0	0	0	
0	0	0	0	0	533	476	0	0	0	0	
1	0	0	0	0	530	476	0	0	0	0	
2	0	0	0	0	527	475	0	0	0	0	
3	0	0	0	0	524	474	0	0	0	0	
4	0	0	0	0	522	473	0	0	0	0	
5	0	0	0	0	520	472	0	0	0	0	
6	0	0	0	0	519	472	0	0	0	0	
7	0	0	0	0	519	472	0	0	0	0	
8	0	0	0	0	521	473	0	0	0	0	
9	0	0	0	0	525	476	0	0	0	0	
10	0	0	0	0	529	479	0	0	0	0	
11	0	0	0	0	534	481	0	0	0	0	
12	0	0	0	0	539	485	0	0	0	0	
13	0	0	0	0	544	487	0	0	0	0	
14	0	0	0	0	548	490	0	0	0	0	
15	0	0	0	0	551	491	0	0	0	0	
0	0	0	0	0	554	493	0	0	0	0	
1	0	0	0	0	557	495	0	0	0	0	
2	0	0	0	0	559	497	0	0	0	0	
3	0	0	0	0	560	499	0	0	0	0	
4	0	0	0	0	563	501	0	0	0	0	
5	0	0	0	0	565	504	0	0	0	0	
6	0	0	0	0	568	507	0	0	0	0	
7	0	0	0	0	569	509	0	0	0	0	
8	0	0	0	0	572	511	0	0	0	0	
9	0	0	0	0	574	513	0	0	0	0	
10	0	0	0	0	575	515	0	0	0	0	
11	0	0	0	0	576	517	0	0	0	0	
12	0	0	0	0	577	519	0	0	0	0	
13	0	0	0	0	578	519	0	0	0	0	
14	0	0	0	0	577	519	0	0	0	0	
15	0	0	0	0	575	517	0	0	0	0	
0	0	0	0	0	571	513	0	0	0	0	
1	0	0	0	0	565	509	0	0	0	0	
2	0	0	0	0	558	503	0	0	0	0	
3	0	0	0	0	551	496	0	0	0	0	
4	0	0	0	0	543	490	0	0	0	0	
5	0	0	0	0	536	485	0	0	0	0	
6	0	0	0	0	530	481	0	0	0	0	
7	0	0	0	0	527	478	0	0	0	0	
8	0	0	0	0	526	478	0	0	0	0	
9	0	0	0	0	527	479	0	0	0	0	
10	0	0	0	0	529	480	0	0	0	0	
11	0	0	0	0	532	481	0	0	0	0	
12	0	0	0	0	534	480	0	0	0	0	
13	0	0	0	0	535	480	0	0	0	0	
14	0	0	0	0	534	477	0	0	0	0	
15	0	0	0	0	532	474	0	0	0	0	
0	0	0	0	0	529	471	0	0	0	0	
1	0	0	0	0	526	467	0	0	0	0	
2	0	0	0	0	523	464	0	0	0	0	
3	0	0	0	0	520	463	0	0	0	0	
4	0	0	0	0	519	462	0	0	0	0	
5	0	0	0	0	519	463	0	0	0	0	
6	0	0	0	0	521	465	0	0	0	0	
7	0	0	0	0	523	468	0	0	0	0	
8	0	0	0	0	527	472	0	0	0	0	
9	0	0	0	0	531	477	0	0	0	0	
10	0	0	0	0	535	480	0	0	0	0	
11	0	0	0	0	539	483	0	0	0	0	
12	0	0	0	0	541	484	0	0	0	0	
13	0	0	0	0	541	483	0	0	0	0	
14	0	0	0	0	540	481	0	0	0	0	
15	0	0	0	0	537	479	0	0	0	0	
0	0	0	0	0	536	476	0	0	0	0	
1	0	0	0	0	534	475	0	0	0	0	
2	0	0	0	0	532	474	0	0	0	0	
3	0	0	0	0	533	475	0	0	0	0	
4	0	0	0	0	535	477	0	0	0	0	
5	0	0	0	0	539	480	0	0	0	0	
6	0	0	0	0	544	485	0	0	0	0	
7	0	0	0	0	551	491	0	0	0	0	
8	0	0	0	0	558	496	0	0	0	0	
9	0	0	0	0	564	502	0	0	0	0	
10	0	0	0	0	571	507	0	0	0	0	
11	0	0	0	0	575	510	0	0	0	0	
12	0	0	0	0	577	512	0	0	0	0	
13	0	0	0	0	577	512	0	0	0	0	
14	0	0	0	0	572	509	0	0	0	0	
15	0	0	0	0	567	504	0	0	0	0	
0	0	0	0	0	559	499	0	0	0	0	
1	0	0	0	0	550	493	0	0	0	0	
2	0	0	0	0	541	487	0	0	0	0	
3	0	0	0	0	533	482	0	0	0	0	
4	0	0	0	0	526	477	0	0	0	0	
5	0	0	0	0	522	475	0	0	0	0	
6	0	0	0	0	520	473	0	0	0	0	
7	0	0	0	0	520	474	0	0	0	0	
8	0	0	0	0	524	477	0	0	0	0	
9	0	0	0	0	528	480	0	0	0	0	
10	0	0	0	0	536	485	0	0	0	0	
11	0	0	0	0	544	491	0	0	0	0	
12	0	0	0	0	555	499	0	0	0	0	
13	0	0	0	0	566	508	0	0	0	0	
14	0	0	0	0	577	516	0	0	0	0	
15	0	0	0	0	588	524	0	0	0	0	
0	0	0	0	0	596	530	0	0	0	0	
1	0	0	0	0	603	536	0	0	0	0	
2	0	0	0	0	607	539	0	0	0	0	
3	0	0	0	0	608	541	0	0	0	0	
4	0	0	0	0	608	542	0	0	0	0	
5	0	0	0	0	607	543	0	0	0	0	
6	0	0	0	0	604	542	0	0	0	0	
7	0	0	0	0	599	539	0	0	0	0	
8	0	0	0	0	591	535	0	0	0	0	
9	0	0	0	0	583	527	0	0	0	0	
10	0	0	0	0	572	519	0	0	0	0	
11	0	0	0	0	558	508	0	0	0	0	
12	0	0	0	0	541	495	0	0	0	0	
13	0	0	0	0	524	481	0	0	0	0	
14	0	0	0	0	509	468	0	0	0	0	
15	0	0	0	0	495	458	0	0	0	0	
0	0	0	0	0	485	450	0	0	0	0	
1	0	0	0	0	480	446	0	0	0	0	
2	0	0	0	0	480	446	0	0	0	0	
3	0	0	0	0	486	449	0	0	0	0	
4	0	0	0	0	495	455	0	0	0	0	
5	0	0	0	0	507	464	0	0	0	0	
6	0	0	0	0	522	475	0	0	0	0	
7	0	0	0	0	536	485	0	0	0	0	
8	0	0	0	0	551	495	0	0	0	0	
9	0	0	0	0	564	503	0	0	0	0	
10	0	0	0	0	574	510	0	0	0	0	
11	0	0	0	0	581	515	0	0	0	0	
12	0	0	0	0	584	516	0	0	0	0	
13	0	0	0	0	584	515	0	0	0	0	
14	0	0	0	0	580	511	0	0	0	0	
15	0	0	0	0	574	507	0	0	0	0	
0	0	0	0	0	568	503	0	0	0	0	
1	0	0	0	0	560	499	0	0	0	0	
2	0	0	0	0	554	495	0	0	0	0	
3	0	0	0	0	547	492	0	0	0	0	
4	0	0	0	0	541	488	0	0	0	0	
5	0	0	0	0	535	485	0	0	0	0	
6	0	0	0	0	530	482	0	0	0	0	
7	0	0	0	0	527	479	0	0	0	0	
8	0	0	0	0	524	477	0	0	0	0	
9	0	0	0	0	522	476	0	0	0	0	
10	0	0	0	0	522	476	0	0	0	0	
11	0	0	0	0	524	476	0	0	0	0	
12	0	0	0	0	527	478	0	0	0	0	
13	0	0	0	0	531	480	0	0	0	0	
14	0	0	0	0	536	483	0	0	0	0	
15	0	0	0	0	540	484	0	0	0	0	
0	0	0	0	0	543	485	0	0	0	0	
1	0	0	0	0	546	485	0	0	0	0	
2	0	0	0	0	547	484	0	0	0	0	
3	0	0	0	0	546	482	0	0	0	0	
4	0	0	0	0	544	479	0	0	0	0	
5	0	0	0	0	540	475	0	0	0	0	
6	0	0	0	0	536	472	0	0	0	0	
7	0	0	0	0	532	468	0	0	0	0	
8	0	0	0	0	530	467	0	0	0	0	
9	0	0	0	0	530	469	0	0	0	0	
10	0	0	0	0	532	473	0	0	0	0	
11	0	0	0	0	539	479	0	0	0	0	
12	0	0	0	0	547	488	0	0	0	0	
13	0	0	0	0	558	498	0	0	0	0	
14	0	0	0	0	569	509	0	0	0	0	
15	0	0	0	0	581	520	0	0	0	0	
0	0	0	0	0	591	530	0	0	0	0	
1	0	0	0	0	600	538	0	0	0	0	
2	0	0	0	0	607	544	0	0	0	0	
3	0	0	0	0	610	548	0	0	0	0	
4	0	0	0	0	610	548	0	0	0	0	
5	0	0	0	0	606	545	0	0	0	0	
6	0	0	0	0	598	539	0	0	0	0	
7	0	0	0	0	587	529	0	0	0	0	
8	0	0	0	0	573	518	0	0	0	0	
9	0	0	0	0	558	506	0	0	0	0	
10	0	0	0	0	543	493	0	0	0	0	
11	0	0	0	0	529	480	0	0	0	0	
12	0	0	0	0	517	470	0	0	0	0	
13	0	0	0	0	507	461	0	0	0	0	
14	0	0	0	0	499	455	0	0	0	0	
15	0	0	0	0	496	451	0	0	0	0	
0	0	0	0	0	496	450	0	0	0	0	
1	0	0	0	0	498	451	0	0	0	0	
2	0	0	0	0	502	455	0	0	0	0	
3	0	0	0	0	510	460	0	0	0	0	
4	0	0	0	0	518	465	0	0	0	0	
5	0	0	0	0	525	470	0	0	0	0	
6	0	0	0	0	531	475	0	0	0	0	
7	0	0	0	0	536	478	0	0	0	0	
8	0	0	0	0	540	481	0	0	0	0	
9	0	0	0	0	543	483	0	0	0	0	
10	0	0	0	0	544	484	0	0	0	0	
11	0	0	0	0	545	485	0	0	0	0	
12	0	0	0	0	546	486	0	0	0	0	
13	0	0	0	0	546	487	0	0	0	0	
14	0	0	0	0	547	488	0	0	0	0	
15	0	0	0	0	549	490	0	0	0	0	
0	0	0	0	0	551	493	0	0	0	0	
1	0	0	0	0	552	496	0	0	0	0	
2	0	0	0	0	554	498	0	0	0	0	
3	0	0	0	0	555	499	0	0	0	0	
4	0	0	0	0	553	498	0	0	0	0	
5	0	0	0	0	550	496	0	0	0	0	
6	0	0	0	0	544	492	0	0	0	0	
7	0	0	0	0	540	488	0	0	0	0	
8	0	0	0	0	536	485	0	0	0	0	
9	0	0	0	0	533	483	0	0	0	0	
10	0	0	0	0	531	481	0	0	0	0	
11	0	0	0	0	530	481	0	0	0	0	
12	0	0	0	0	529	481	0	0	0	0	
13	0	0	0	0	530	480	0	0	0	0	
14	0	0	0	0	530	480	0	0	0	0	
15	0	0	0	0	529	480	0	0	0	0	
0	0	0	0	0	528	479	0	0	0	0	
1	0	0	0	0	527	477	0	0	0	0	
2	0	0	0	0	526	474	0	0	0	0	
3	0	0	0	0	523	471	0	0	0	0	
4	0	0	0	0	520	467	0	0	0	0	
5	0	0	0	0	516	463	0	0	0	0	
6	0	0	0	0	513	460	0	0	0	0	
7	0	0	0	0	511	458	0	0	0	0	
8	0	0	0	0	511	459	0	0	0	0	
9	0	0	0	0	512	460	0	0	0	0	
10	0	0	0	0	516	464	0	0	0	0	
11	0	0	0	0	523	471	0	0	0	0	
12	0	0	0	0	532	479	0	0	0	0	
13	0	0	0	0	543	490	0	0	0	0	
14	0	0	0	0	556	502	0	0	0	0	
15	0	0	0	0	570	514	0	0	0	0	
0	0	0	0	0	583	525	0	0	0	0	
1	0	0	0	0	594	534	0	0	0	0	
2	0	0	0	0	604	541	0	0	0	0	
3	0	0	0	0	610	546	0	0	0	0	
4	0	0	0	0	614	549	0	0	0	0	
5	0	0	0	0	615	550	0	0	0	0	
6	0	0	0	0	615	549	0	0	0	0	
7	0	0	0	0	612	547	0	0	0	0	
8	0	0	0	0	609	545	0	0	0	0	
9	0	0	0	0	604	541	0	0	0	0	
10	0	0	0	0	596	535	0	0	0	0	
11	0	0	0	0	586	527	0	0	0	0	
12	0	0	0	0	572	516	0	0	0	0	
13	0	0	0	0	556	504	0	0	0	0	
14	0	0	0	0	538	491	0	0	0	0	
15	0	0	0	0	519	477	0	0	0	0	
0	0	0	0	0	502	463	0	0	0	0	
1	0	0	0	0	486	449	0	0	0	0	
2	0	0	0	0	471	437	0	0	0	0	
3	0	0	0	0	459	427	0	0	0	0	
4	0	0	0	0	451	419	0	0	0	0	
5	0	0	0	0	447	412	0	0	0	0	
6	0	0	0	0	445	408	0	0	0	0	
7	0	0	0	0	447	406	0	0	0	0	
8	0	0	0	0	450	404	0	0	0	0	
9	0	0	0	0	454	404	0	0	0	0	
10	0	0	0	0	459	403	0	0	0	0	
11	0	0	0	0	461	401	0	0	0	0	
12	0	0	0	0	461	397	0	0	0	0	
13	0	0	0	0	458	391	0	0	0	0	
14	0	0	0	0	451	383	0	0	0	0	
15	0	0	0	0	440	371	0	0	0	0	
0	0	0	0	0	425	358	0	0	0	0	
1	0	0	0	0	408	344	0	0	0	0	
2	0	0	0	0	390	328	0	0	0	0	
3	0	0	0	0	369	313	0	0	0	0	
4	0	0	0	0	350	298	0	0	0	0	
5	0	0	0	0	333	285	0	0	0	0	
6	0	0	0	0	318	274	0	0	0	0	
7	0	0	0	0	307	266	0	0	0	0	
8	0	0	0	0	302	262	0	0	0	0	
9	0	0	0	0	302	263	0	0	0	0	
10	0	0	0	0	309	268	0	0	0	0	
11	0	0	0	0	323	278	0	0	0	0	
12	0	0	0	0	342	291	0	0	0	0	
13	0	0	0	0	364	308	0	0	0	0	
14	0	0	0	0	389	327	0	0	0	0	
15	0	0	0	0	414	347	0	0	0	0	
0	0	0	0	0	439	366	0	0	0	0	
1	0	0	0	0	459	383	0	0	0	0	
2	0	0	0	0	476	399	0	0	0	0	
3	0	0	0	0	489	411	0	0	0	0	
4	0	0	0	0	499	422	0	0	0	0	
5	0	0	0	0	505	432	0	0	0	0	
6	0	0	0	0	510	440	0	0	0	0	
7	0	0	0	0	513	448	0	0	0	0	
8	0	0	0	0	517	456	0	0	0	0	
9	0	0	0	0	519	463	0	0	0	0	
10	0	0	0	0	523	471	0	0	0	0	
11	0	0	0	0	527	478	0	0	0	0	
12	0	0	0	0	533	486	0	0	0	0	
13	0	0	0	0	540	494	0	0	0	0	
14	0	0	0	0	549	502	0	0	0	0	
15	0	0	0	0	558	510	0	0	0	0	
0	0	0	0	0	567	516	0	0	0	0	
1	0	0	0	0	574	520	0	0	0	0	
2	0	0	0	0	579	521	0	0	0	0	
3	0	0	0	0	580	521	0	0	0	0	
4	0	0	0	0	579	518	0	0	0	0	
5	0	0	0	0	575	513	0	0	0	0	
6	0	0	0	0	569	505	0	0	0	0	
7	0	0	0	0	561	497	0	0	0	0	
8	0	0	0	0	551	488	0	0	0	0	
9	0	0	0	0	540	479	0	0	0	0	
10	0	0	0	0	530	471	0	0	0	0	
11	0	0	0	0	522	465	0	0	0	0	
12	0	0	0	0	517	462	0	0	0	0	
13	0	0	0	0	516	462	0	0	0	0	
14	0	0	0	0	519	465	0	0	0	0	
15	0	0	0	0	524	471	0	0	0	0	
0	0	0	0	0	534	479	0	0	0	0	
1	0	0	0	0	547	489	0	0	0	0	
2	0	0	0	0	561	501	0	0	0	0	
3	0	0	0	0	576	513	0	0	0	0	
4	0	0	0	0	591	524	0	0	0	0	
5	0	0	0	0	603	534	0	0	0	0	
6	0	0	0	0	613	540	0	0	0	0	
7	0	0	0	0	619	545	0	0	0	0	
8	0	0	0	0	620	546	0	0	0	0	
9	0	0	0	0	619	545	0	0	0	0	
10	0	0	0	0	613	542	0	0	0	0	
11	0	0	0	0	606	537	0	0	0	0	
12	0	0	0	0	595	531	0	0	0	0	
13	0	0	0	0	584	525	0	0	0	0	
14	0	0	0	0	574	519	0	0	0	0	
15	0	0	0	0	564	515	0	0	0	0	
0	0	0	0	0	558	512	0	0	0	0	
1	0	0	0	0	553	511	0	0	0	0	
2	0	0	0	0	551	510	0	0	0	0	
3	0	0	0	0	550	510	0	0	0	0	
4	0	0	0	0	550	509	0	0	0	0	
5	0	0	0	0	550	508	0	0	0	0	
6	0	0	0	0	549	505	0	0	0	0	
7	0	0	0	0	547	501	0	0	0	0	
8	0	0	0	0	544	496	0	0	0	0	
9	0	0	0	0	542	492	0	0	0	0	
10	0	0	0	0	539	486	0	0	0	0	
11	0	0	0	0	536	482	0	0	0	0	
12	0	0	0	0	534	479	0	0	0	0	
13	0	0	0	0	532	477	0	0	0	0	
14	0	0	0	0	533	477	0	0	0	0	
15	0	0	0	0	536	479	0	0	0	0	
0	0	0	0	0	539	482	0	0	0	0	
1	0	0	0	0	544	487	0	0	0	0	
2	0	0	0	0	550	493	0	0	0	0	
3	0	0	0	0	555	498	0	0	0	0	
4	0	0	0	0	560	503	0	0	0	0	
5	0	0	0	0	564	508	0	0	0	0	
6	0	0	0	0	568	511	0	0	0	0	
7	0	0	0	0	569	513	0	0	0	0	
8	0	0	0	0	570	515	0	0	0	0	
9	0	0	0	0	570	515	0	0	0	0	
10	0	0	0	0	569	515	0	0	0	0	
11	0	0	0	0	567	514	0	0	0	0	
12	0	0	0	0	565	513	0	0	0	0	
13	0	0	0	0	563	511	0	0	0	0	
14	0	0	0	0	561	511	0	0	0	0	
15	0	0	0	0	560	510	0	0	0	0	
0	0	0	0	0	561	511	0	0	0	0	
1	0	0	0	0	562	512	0	0	0	0	
2	0	0	0	0	564	514	0	0	0	0	
3	0	0	0	0	568	516	0	0	0	0	
4	0	0	0	0	571	518	0	0	0	0	
5	0	0	0	0	575	520	0	0	0	0	
6	0	0	0	0	579	523	0	0	0	0	
7	0	0	0	0	584	526	0	0	0	0	
8	0	0	0	0	590	531	0	0	0	0	
9	0	0	0	0	596	536	0	0	0	0	
10	0	0	0	0	604	543	0	0	0	0	
11	0	0	0	0	612	550	0	0	0	0	
12	0	0	0	0	621	557	0	0	0	0	
13	0	0	0	0	627	563	0	0	0	0	
14	0	0	0	0	631	567	0	0	0	0	
15	0	0	0	0	631	566	0	0	0	0	
0	0	0	0	0	625	562	0	0	0	0	
1	0	0	0	0	615	553	0	0	0	0	
2	0	0	0	0	601	542	0	0	0	0	
3	0	0	0	0	586	529	0	0	0	0	
4	0	0	0	0	569	516	0	0	0	0	
5	0	0	0	0	555	504	0	0	0	0	
6	0	0	0	0	542	495	0	0	0	0	
7	0	0	0	0	535	489	0	0	0	0	
8	0	0	0	0	531	486	0	0	0	0	
9	0	0	0	0	531	486	0	0	0	0	
10	0	0	0	0	536	489	0	0	0	0	
11	0	0	0	0	545	495	0	0	0	0	
12	0	0	0	0	556	503	0	0	0	0	
13	0	0	0	0	566	509	0	0	0	0	
14	0	0	0	0	572	513	0	0	0	0	
15	0	0	0	0	576	515	0	0	0	0	
0	0	0	0	0	575	514	0	0	0	0	
1	0	0	0	0	572	510	0	0	0	0	
2	0	0	0	0	566	505	0	0	0	0	
3	0	0	0	0	558	499	0	0	0	0	
4	0	0	0	0	550	494	0	0	0	0	
5	0	0	0	0	543	489	0	0	0	0	
6	0	0	0	0	536	485	0	0	0	0	
7	0	0	0	0	531	481	0	0	0	0	
8	0	0	0	0	526	478	0	0	0	0	
9	0	0	0	0	521	475	0	0	0	0	
10	0	0	0	0	516	472	0	0	0	0	
11	0	0	0	0	513	467	0	0	0	0	
12	0	0	0	0	511	465	0	0	0	0	
13	0	0	0	0	510	464	0	0	0	0	
14	0	0	0	0	511	464	0	0	0	0	
15	0	0	0	0	517	468	0	0	0	0	
0	0	0	0	0	524	472	0	0	0	0	
1	0	0	0	0	532	479	0	0	0	0	
2	0	0	0	0	542	486	0	0	0	0	
3	0	0	0	0	552	494	0	0	0	0	
4	0	0	0	0	563	502	0	0	0	0	
5	0	0	0	0	573	509	0	0	0	0	
6	0	0	0	0	581	515	0	0	0	0	
7	0	0	0	0	588	521	0	0	0	0	
8	0	0	0	0	592	525	0	0	0	0	
9	0	0	0	0	596	528	0	0	0	0	
10	0	0	0	0	598	531	0	0	0	0	
11	0	0	0	0	597	532	0	0	0	0	
12	0	0	0	0	595	531	0	0	0	0	
13	0	0	0	0	589	528	0	0	0	0	
14	0	0	0	0	581	523	0	0	0	0	
15	0	0	0	0	571	516	0	0	0	0	
0	0	0	0	0	560	508	0	0	0	0	
1	0	0	0	0	548	499	0	0	0	0	
2	0	0	0	0	537	492	0	0	0	0	
3	0	0	0	0	529	484	0	0	0	0	
4	0	0	0	0	522	478	0	0	0	0	
5	0	0	0	0	517	474	0	0	0	0	
6	0	0	0	0	516	473	0	0	0	0	
7	0	0	0	0	518	473	0	0	0	0	
8	0	0	0	0	523	476	0	0	0	0	
9	0	0	0	0	530	482	0	0	0	0	
10	0	0	0	0	540	487	0	0	0	0	
11	0	0	0	0	550	495	0	0	0	0	
12	0	0	0	0	560	502	0	0	0	0	
13	0	0	0	0	570	508	0	0	0	0	
14	0	0	0	0	579	515	0	0	0	0	
15	0	0	0	0	585	519	0	0	0	0	
0	0	0	0	0	588	521	0	0	0	0	
1	0	0	0	0	588	521	0	0	0	0	
2	0	0	0	0	584	519	0	0	0	0	
3	0	0	0	0	578	514	0	0	0	0	
4	0	0	0	0	569	507	0	0	0	0	
5	0	0	0	0	559	500	0	0	0	0	
6	0	0	0	0	548	492	0	0	0	0	
7	0	0	0	0	540	486	0	0	0	0	
8	0	0	0	0	532	482	0	0	0	0	
9	0	0	0	0	528	480	0	0	0	0	
10	0	0	0	0	527	480	0	0	0	0	
11	0	0	0	0	529	482	0	0	0	0	
12	0	0	0	0	534	486	0	0	0	0	
13	0	0	0	0	543	493	0	0	0	0	
14	0	0	0	0	553	500	0	0	0	0	
15	0	0	0	0	564	508	0	0	0	0	
0	0	0	0	0	575	516	0	0	0	0	
1	0	0	0	0	586	523	0	0	0	0	
2	0	0	0	0	594	529	0	0	0	0	
3	0	0	0	0	601	534	0	0	0	0	
4	0	0	0	0	606	538	0	0	0	0	
5	0	0	0	0	607	539	0	0	0	0	
6	0	0	0	0	605	537	0	0	0	0	
7	0	0	0	0	599	532	0	0	0	0	
8	0	0	0	0	588	524	0	0	0	0	
9	0	0	0	0	573	512	0	0	0	0	
10	0	0	0	0	556	499	0	0	0	0	
11	0	0	0	0	538	484	0	0	0	0	
12	0	0	0	0	519	470	0	0	0	0	
13	0	0	0	0	503	456	0	0	0	0	
14	0	0	0	0	489	446	0	0	0	0	
15	0	0	0	0	479	437	0	0	0	0	
0	0	0	0	0	472	431	0	0	0	0	
1	0	0	0	0	470	428	0	0	0	0	
2	0	0	0	0	472	428	0	0	0	0	
3	0	0	0	0	477	430	0	0	0	0	
4	0	0	0	0	484	433	0	0	0	0	
5	0	0	0	0	492	436	0	0	0	0	
6	0	0	0	0	501	441	0	0	0	0	
7	0	0	0	0	509	445	0	0	0	0	
8	0	0	0	0	517	450	0	0	0	0	
9	0	0	0	0	524	455	0	0	0	0	
10	0	0	0	0	531	460	0	0	0	0	
11	0	0	0	0	540	467	0	0	0	0	
12	0	0	0	0	548	476	0	0	0	0	
13	0	0	0	0	558	485	0	0	0	0	
14	0	0	0	0	568	495	0	0	0	0	
15	0	0	0	0	577	504	0	0	0	0	
0	0	0	0	0	585	513	0	0	0	0	
1	0	0	0	0	590	519	0	0	0	0	
2	0	0	0	0	591	522	0	0	0	0	
3	0	0	0	0	591	523	0	0	0	0	
4	0	0	0	0	587	522	0	0	0	0	
5	0	0	0	0	582	519	0	0	0	0	
6	0	0	0	0	574	515	0	0	0	0	
7	0	0	0	0	567	511	0	0	0	0	
8	0	0	0	0	560	506	0	0	0	0	
9	0	0	0	0	553	502	0	0	0	0	
10	0	0	0	0	549	499	0	0	0	0	
11	0	0	0	0	546	496	0	0	0	0	
12	0	0	0	0	544	495	0	0	0	0	
13	0	0	0	0	544	494	0	0	0	0	
14	0	0	0	0	545	494	0	0	0	0	
15	0	0	0	0	547	495	0	0	0	0	
0	0	0	0	0	550	497	0	0	0	0	
1	0	0	0	0	552	498	0	0	0	0	
2	0	0	0	0	556	501	0	0	0	0	
3	0	0	0	0	560	504	0	0	0	0	
4	0	0	0	0	566	508	0	0	0	0	
5	0	0	0	0	571	512	0	0	0	0	
6	0	0	0	0	575	515	0	0	0	0	
7	0	0	0	0	577	517	0	0	0	0	
8	0	0	0	0	578	517	0	0	0	0	
9	0	0	0	0	576	516	0	0	0	0	
10	0	0	0	0	573	512	0	0	0	0	
11	0	0	0	0	567	508	0	0	0	0	
12	0	0	0	0	560	502	0	0	0	0	
13	0	0	0	0	554	496	0	0	0	0	
14	0	0	0	0	548	491	0	0	0	0	
15	0	0	0	0	543	487	0	0	0	0	
0	0	0	0	0	542	486	0	0	0	0	
1	0	0	0	0	542	486	0	0	0	0	
2	0	0	0	0	545	487	0	0	0	0	
3	0	0	0	0	549	490	0	0	0	0	
4	0	0	0	0	553	493	0	0	0	0	
5	0	0	0	0	556	496	0	0	0	0	
6	0	0	0	0	556	496	0	0	0	0	
7	0	0	0	0	556	496	0	0	0	0	
8	0	0	0	0	553	494	0	0	0	0	
9	0	0	0	0	549	491	0	0	0	0	
10	0	0	0	0	544	487	0	0	0	0	
11	0	0	0	0	539	484	0	0	0	0	
12	0	0	0	0	536	482	0	0	0	0	
13	0	0	0	0	534	482	0	0	0	0	
14	0	0	0	0	536	484	0	0	0	0	
15	0	0	0	0	540	488	0	0	0	0	
0	0	0	0	0	548	495	0	0	0	0	
1	0	0	0	0	560	504	0	0	0	0	
2	0	0	0	0	574	516	0	0	0	0	
3	0	0	0	0	590	528	0	0	0	0	
4	0	0	0	0	605	540	0	0	0	0	
5	0	0	0	0	619	551	0	0	0	0	
6	0	0	0	0	629	559	0	0	0	0	
7	0	0	0	0	637	563	0	0	0	0	
8	0	0	0	0	639	565	0	0	0	0	
9	0	0	0	0	637	563	0	0	0	0	
10	0	0	0	0	629	557	0	0	0	0	
11	0	0	0	0	616	546	0	0	0	0	
12	0	0	0	0	599	533	0	0	0	0	
13	0	0	0	0	578	517	0	0	0	0	
14	0	0	0	0	555	499	0	0	0	0	
15	0	0	0	0	530	482	0	0	0	0	
0	0	0	0	0	506	463	0	0	0	0	
1	0	0	0	0	484	446	0	0	0	0	
2	0	0	0	0	465	431	0	0	0	0	
3	0	0	0	0	450	419	0	0	0	0	
4	0	0	0	0	439	408	0	0	0	0	
5	0	0	0	0	434	403	0	0	0	0	
6	0	0	0	0	433	400	0	0	0	0	
7	0	0	0	0	437	401	0	0	0	0	
8	0	0	0	0	446	405	0	0	0	0	
9	0	0	0	0	458	412	0	0	0	0	
10	0	0	0	0	472	421	0	0	0	0	
11	0	0	0	0	488	431	0	0	0	0	
12	0	0	0	0	504	443	0	0	0	0	
13	0	0	0	0	520	454	0	0	0	0	
14	0	0	0	0	536	466	0	0	0	0	
15	0	0	0	0	548	477	0	0	0	0	
0	0	0	0	0	559	487	0	0	0	0	
1	0	0	0	0	566	495	0	0	0	0	
2	0	0	0	0	570	501	0	0	0	0	
3	0	0	0	0	572	505	0	0	0	0	
4	0	0	0	0	570	508	0	0	0	0	
5	0	0	0	0	568	508	0	0	0	0	
6	0	0	0	0	566	508	0	0	0	0	
7	0	0	0	0	563	508	0	0	0	0	
8	0	0	0	0	563	508	0	0	0	0	
9	0	0	0	0	564	510	0	0	0	0	
10	0	0	0	0	568	513	0	0	0	0	
11	0	0	0	0	573	516	0	0	0	0	
12	0	0	0	0	579	520	0	0	0	0	
13	0	0	0	0	585	523	0	0	0	0	
14	0	0	0	0	590	526	0	0	0	0	
15	0	0	0	0	594	527	0	0	0	0	
0	0	0	0	0	595	527	0	0	0	0	
1	0	0	0	0	594	525	0	0	0	0	
2	0	0	0	0	590	522	0	0	0	0	
3	0	0	0	0	584	518	0	0	0	0	
4	0	0	0	0	577	513	0	0	0	0	
5	0	0	0	0	569	508	0	0	0	0	
6	0	0	0	0	562	505	0	0	0	0	
7	0	0	0	0	556	502	0	0	0	0	
8	0	0	0	0	550	500	0	0	0	0	
9	0	0	0	0	547	499	0	0	0	0	
10	0	0	0	0	544	498	0	0	0	0	
11	0	0	0	0	543	497	0	0	0	0	
12	0	0	0	0	543	497	0	0	0	0	
13	0	0	0	0	544	497	0	0	0	0	
14	0	0	0	0	545	496	0	0	0	0	
15	0	0	0	0	545	493	0	0	0	0	
0	0	0	0	0	544	490	0	0	0	0	
1	0	0	0	0	542	486	0	0	0	0	
2	0	0	0	0	539	481	0	0	0	0	
3	0	0	0	0	537	478	0	0	0	0	
4	0	0	0	0	535	476	0	0	0	0	
5	0	0	0	0	535	475	0	0	0	0	
6	0	0	0	0	537	478	0	0	0	0	
7	0	0	0	0	541	482	0	0	0	0	
8	0	0	0	0	548	489	0	0	0	0	
9	0	0	0	0	557	497	0	0	0	0	
10	0	0	0	0	566	506	0	0	0	0	
11	0	0	0	0	574	514	0	0	0	0	
12	0	0	0	0	580	520	0	0	0	0	
13	0	0	0	0	584	523	0	0	0	0	
14	0	0	0	0	583	522	0	0	0	0	
15	0	0	0	0	577	516	0	0	0	0	
0	0	0	0	0	567	508	0	0	0	0	
1	0	0	0	0	554	497	0	0	0	0	
2	0	0	0	0	539	484	0	0	0	0	
3	0	0	0	0	524	471	0	0	0	0	
4	0	0	0	0	509	459	0	0	0	0	
5	0	0	0	0	497	449	0	0	0	0	
6	0	0	0	0	488	441	0	0	0	0	
7	0	0	0	0	483	436	0	0	0	0	
8	0	0	0	0	483	435	0	0	0	0	
9	0	0	0	0	486	437	0	0	0	0	
10	0	0	0	0	493	442	0	0	0	0	
11	0	0	0	0	503	450	0	0	0	0	
12	0	0	0	0	516	459	0	0	0	0	
13	0	0	0	0	530	469	0	0	0	0	
14	0	0	0	0	544	480	0	0	0	0	
15	0	0	0	0	557	490	0	0	0	0	
0	0	0	0	0	568	499	0	0	0	0	
1	0	0	0	0	576	505	0	0	0	0	
2	0	0	0	0	581	510	0	0	0	0	
3	0	0	0	0	582	512	0	0	0	0	
4	0	0	0	0	579	511	0	0	0	0	
5	0	0	0	0	575	509	0	0	0	0	
6	0	0	0	0	568	505	0	0	0	0	
7	0	0	0	0	559	499	0	0	0	0	
8	0	0	0	0	550	494	0	0	0	0	
9	0	0	0	0	541	489	0	0	0	0	
10	0	0	0	0	534	486	0	0	0	0	
11	0	0	0	0	531	485	0	0	0	0	
12	0	0	0	0	529	485	0	0	0	0	
13	0	0	0	0	530	487	0	0	0	0	
14	0	0	0	0	534	490	0	0	0	0	
15	0	0	0	0	538	493	0	0	0	0	
0	0	0	0	0	545	497	0	0	0	0	
1	0	0	0	0	551	500	0	0	0	0	
2	0	0	0	0	556	503	0	0	0	0	
3	0	0	0	0	561	504	0	0	0	0	
4	0	0	0	0	564	505	0	0	0	0	
5	0	0	0	0	566	505	0	0	0	0	
6	0	0	0	0	566	505	0	0	0	0	
7	0	0	0	0	566	504	0	0	0	0	
8	0	0	0	0	564	503	0	0	0	0	
9	0	0	0	0	562	502	0	0	0	0	
10	0	0	0	0	559	500	0	0	0	0	
11	0	0	0	0	556	498	0	0	0	0	
12	0	0	0	0	552	496	0	0	0	0	
13	0	0	0	0	548	494	0	0	0	0	
14	0	0	0	0	545	493	0	0	0	0	
15	0	0	0	0	544	493	0	0	0	0	
0	0	0	0	0	545	495	0	0	0	0	
1	0	0	0	0	549	499	0	0	0	0	
2	0	0	0	0	555	505	0	0	0	0	
3	0	0	0	0	563	513	0	0	0	0	
4	0	0	0	0	572	520	0	0	0	0	
5	0	0	0	0	580	527	0	0	0	0	
6	0	0	0	0	588	533	0	0	0	0	
7	0	0	0	0	595	538	0	0	0	0	
8	0	0	0	0	600	542	0	0	0	0	
9	0	0	0	0	606	545	0	0	0	0	
10	0	0	0	0	608	547	0	0	0	0	
11	0	0	0	0	609	547	0	0	0	0	
12	0	0	0	0	607	545	0	0	0	0	
13	0	0	0	0	602	541	0	0	0	0	
14	0	0	0	0	595	535	0	0	0	0	
15	0	0	0	0	586	527	0	0	0	0	
0	0	0	0	0	574	518	0	0	0	0	
1	0	0	0	0	561	508	0	0	0	0	
2	0	0	0	0	547	497	0	0	0	0	
3	0	0	0	0	532	487	0	0	0	0	
4	0	0	0	0	519	476	0	0	0	0	
5	0	0	0	0	507	467	0	0	0	0	
6	0	0	0	0	497	460	0	0	0	0	
7	0	0	0	0	491	455	0	0	0	0	
8	0	0	0	0	489	452	0	0	0	0	
9	0	0	0	0	488	451	0	0	0	0	
10	0	0	0	0	491	451	0	0	0	0	
11	0	0	0	0	495	452	0	0	0	0	
12	0	0	0	0	499	455	0	0	0	0	
13	0	0	0	0	508	460	0	0	0	0	
14	0	0	0	0	516	465	0	0	0	0	
15	0	0	0	0	524	470	0	0	0	0	
0	0	0	0	0	532	475	0	0	0	0	
1	0	0	0	0	541	480	0	0	0	0	
2	0	0	0	0	549	486	0	0	0	0	
3	0	0	0	0	556	490	0	0	0	0	
4	0	0	0	0	560	493	0	0	0	0	
5	0	0	0	0	562	494	0	0	0	0	
6	0	0	0	0	562	495	0	0	0	0	
7	0	0	0	0	561	494	0	0	0	0	
8	0	0	0	0	557	493	0	0	0	0	
9	0	0	0	0	553	492	0	0	0	0	
10	0	0	0	0	550	491	0	0	0	0	
11	0	0	0	0	547	492	0	0	0	0	
12	0	0	0	0	548	494	0	0	0	0	
13	0	0	0	0	551	498	0	0	0	0	
14	0	0	0	0	556	503	0	0	0	0	
15	0	0	0	0	562	509	0	0	0	0	
0	0	0	0	0	571	517	0	0	0	0	
1	0	0	0	0	581	523	0	0	0	0	
2	0	0	0	0	590	529	0	0	0	0	
3	0	0	0	0	596	533	0	0	0	0	
4	0	0	0	0	601	535	0	0	0	0	
5	0	0	0	0	604	535	0	0	0	0	
6	0	0	0	0	603	533	0	0	0	0	
7	0	0	0	0	599	528	0	0	0	0	
8	0	0	0	0	591	522	0	0	0	0	
9	0	0	0	0	582	514	0	0	0	0	
10	0	0	0	0	569	505	0	0	0	0	
11	0	0	0	0	558	496	0	0	0	0	
12	0	0	0	0	546	489	0	0	0	0	
13	0	0	0	0	536	482	0	0	0	0	
14	0	0	0	0	527	478	0	0	0	0	
15	0	0	0	0	524	477	0	0	0	0	
0	0	0	0	0	525	479	0	0	0	0	
1	0	0	0	0	529	483	0	0	0	0	
2	0	0	0	0	537	491	0	0	0	0	
3	0	0	0	0	547	498	0	0	0	0	
4	0	0	0	0	556	505	0	0	0	0	
5	0	0	0	0	566	510	0	0	0	0	
6	0	0	0	0	573	514	0	0	0	0	
7	0	0	0	0	577	515	0	0	0	0	
8	0	0	0	0	578	514	0	0	0	0	
9	0	0	0	0	575	511	0	0	0	0	
10	0	0	0	0	571	505	0	0	0	0	
11	0	0	0	0	564	499	0	0	0	0	
12	0	0	0	0	556	493	0	0	0	0	
13	0	0	0	0	547	487	0	0	0	0	
14	0	0	0	0	539	481	0	0	0	0	
15	0	0	0	0	532	477	0	0	0	0	
0	0	0	0	0	527	474	0	0	0	0	
1	0	0	0	0	524	473	0	0	0	0	
2	0	0	0	0	523	473	0	0	0	0	
3	0	0	0	0	525	476	0	0	0	0	
4	0	0	0	0	529	480	0	0	0	0	
5	0	0	0	0	536	486	0	0	0	0	
6	0	0	0	0	544	493	0	0	0	0	
7	0	0	0	0	551	499	0	0	0	0	
8	0	0	0	0	560	505	0	0	0	0	
9	0	0	0	0	566	509	0	0	0	0	
10	0	0	0	0	570	511	0	0	0	0	
11	0	0	0	0	572	511	0	0	0	0	
12	0	0	0	0	571	508	0	0	0	0	
13	0	0	0	0	568	505	0	0	0	0	
14	0	0	0	0	564	501	0	0	0	0	
15	0	0	0	0	560	497	0	0	0	0	
0	0	0	0	0	557	495	0	0	0	0	
1	0	0	0	0	554	493	0	0	0	0	
2	0	0	0	0	553	493	0	0	0	0	
3	0	0	0	0	553	494	0	0	0	0	
4	0	0	0	0	554	496	0	0	0	0	
5	0	0	0	0	555	498	0	0	0	0	
6	0	0	0	0	556	499	0	0	0	0	
7	0	0	0	0	556	499	0	0	0	0	
8	0	0	0	0	556	498	0	0	0	0	
9	0	0	0	0	554	496	0	0	0	0	
10	0	0	0	0	552	493	0	0	0	0	
11	0	0	0	0	550	491	0	0	0	0	
12	0	0	0	0	550	489	0	0	0	0	
13	0	0	0	0	550	489	0	0	0	0	
14	0	0	0	0	551	489	0	0	0	0	
15	0	0	0	0	552	489	0	0	0	0	
0	0	0	0	0	553	490	0	0	0	0	
1	0	0	0	0	555	490	0	0	0	0	
2	0	0	0	0	555	490	0	0	0	0	
3	0	0	0	0	553	489	0	0	0	0	
4	0	0	0	0	550	487	0	0	0	0	
5	0	0	0	0	545	484	0	0	0	0	
6	0	0	0	0	541	481	0	0	0	0	
7	0	0	0	0	536	478	0	0	0	0	
8	0	0	0	0	532	475	0	0	0	0	
9	0	0	0	0	529	474	0	0	0	0	
10	0	0	0	0	528	474	0	0	0	0	
11	0	0	0	0	530	476	0	0	0	0	
12	0	0	0	0	535	480	0	0	0	0	
13	0	0	0	0	543	487	0	0	0	0	
14	0	0	0	0	553	497	0	0	0	0	
15	0	0	0	0	566	508	0	0	0	0	
0	0	0	0	0	579	519	0	0	0	0	
1	0	0	0	0	592	529	0	0	0	0	
2	0	0	0	0	602	537	0	0	0	0	
3	0	0	0	0	609	542	0	0	0	0	
4	0	0	0	0	612	544	0	0	0	0	
5	0	0	0	0	612	542	0	0	0	0	
6	0	0	0	0	607	536	0	0	0	0	
7	0	0	0	0	598	528	0	0	0	0	
8	0	0	0	0	586	517	0	0	0	0	
9	0	0	0	0	571	505	0	0	0	0	
10	0	0	0	0	555	492	0	0	0	0	
11	0	0	0	0	539	480	0	0	0	0	
12	0	0	0	0	524	468	0	0	0	0	
13	0	0	0	0	510	458	0	0	0	0	
14	0	0	0	0	498	449	0	0	0	0	
15	0	0	0	0	489	442	0	0	0	0	
0	0	0	0	0	481	436	0	0	0	0	
1	0	0	0	0	476	432	0	0	0	0	
2	0	0	0	0	474	429	0	0	0	0	
3	0	0	0	0	473	428	0	0	0	0	
4	0	0	0	0	476	428	0	0	0	0	
5	0	0	0	0	478	428	0	0	0	0	
6	0	0	0	0	481	428	0	0	0	0	
7	0	0	0	0	485	429	0	0	0	0	
8	0	0	0	0	488	429	0	0	0	0	
9	0	0	0	0	491	429	0	0	0	0	
10	0	0	0	0	491	427	0	0	0	0	
11	0	0	0	0	487	423	0	0	0	0	
12	0	0	0	0	479	414	0	0	0	0	
13	0	0	0	0	466	402	0	0	0	0	
14	0	0	0	0	449	387	0	0	0	0	
15	0	0	0	0	428	369	0	0	0	0	
0	0	0	0	0	405	350	0	0	0	0	
1	0	0	0	0	382	330	0	0	0	0	
2	0	0	0	0	359	311	0	0	0	0	
3	0	0	0	0	338	294	0	0	0	0	
4	0	0	0	0	320	278	0	0	0	0	
5	0	0	0	0	305	265	0	0	0	0	
6	0	0	0	0	292	252	0	0	0	0	
7	0	0	0	0	284	243	0	0	0	0	
8	0	0	0	0	279	236	0	0	0	0	
9	0	0	0	0	278	232	0	0	0	0	
10	0	0	0	0	281	233	0	0	0	0	
11	0	0	0	0	288	236	0	0	0	0	
12	0	0	0	0	300	245	0	0	0	0	
13	0	0	0	0	318	258	0	0	0	0	
14	0	0	0	0	340	275	0	0	0	0	
15	0	0	0	0	366	297	0	0	0	0	
0	0	0	0	0	395	322	0	0	0	0	
1	0	0	0	0	427	351	0	0	0	0	
2	0	0	0	0	460	380	0	0	0	0	
3	0	0	0	0	494	410	0	0	0	0	
4	0	0	0	0	529	441	0	0	0	0	
5	0	0	0	0	561	472	0	0	0	0	
6	0	0	0	0	591	500	0	0	0	0	
7	0	0	0	0	617	525	0	0	0	0	
8	0	0	0	0	637	545	0	0	0	0	
9	0	0	0	0	651	560	0	0	0	0	
10	0	0	0	0	656	568	0	0	0	0	
11	0	0	0	0	654	570	0	0	0	0	
12	0	0	0	0	645	568	0	0	0	0	
13	0	0	0	0	631	559	0	0	0	0	
14	0	0	0	0	612	547	0	0	0	0	
15	0	0	0	0	590	531	0	0	0	0	
0	0	0	0	0	567	515	0	0	0	0	
1	0	0	0	0	546	499	0	0	0	0	
2	0	0	0	0	526	483	0	0	0	0	
3	0	0	0	0	510	470	0	0	0	0	
4	0	0	0	0	497	458	0	0	0	0	
5	0	0	0	0	490	449	0	0	0	0	
6	0	0	0	0	486	444	0	0	0	0	
7	0	0	0	0	488	443	0	0	0	0	
8	0	0	0	0	495	446	0	0	0	0	
9	0	0	0	0	505	453	0	0	0	0	
10	0	0	0	0	520	463	0	0	0	0	
11	0	0	0	0	536	476	0	0	0	0	
12	0	0	0	0	555	490	0	0	0	0	
13	0	0	0	0	572	504	0	0	0	0	
14	0	0	0	0	585	516	0	0	0	0	
15	0	0	0	0	596	525	0	0	0	0	
0	0	0	0	0	602	531	0	0	0	0	
1	0	0	0	0	604	534	0	0	0	0	
2	0	0	0	0	602	533	0	0	0	0	
3	0	0	0	0	596	530	0	0	0	0	
4	0	0	0	0	588	525	0	0	0	0	
5	0	0	0	0	579	519	0	0	0	0	
6	0	0	0	0	568	511	0	0	0	0	
7	0	0	0	0	557	503	0	0	0	0	
8	0	0	0	0	546	495	0	0	0	0	
9	0	0	0	0	537	489	0	0	0	0	
10	0	0	0	0	532	485	0	0	0	0	
11	0	0	0	0	530	483	0	0	0	0	
12	0	0	0	0	532	485	0	0	0	0	
13	0	0	0	0	538	490	0	0	0	0	
14	0	0	0	0	547	497	0	0	0	0	
15	0	0	0	0	560	508	0	0	0	0	
0	0	0	0	0	575	520	0	0	0	0	
1	0	0	0	0	591	533	0	0	0	0	
2	0	0	0	0	607	545	0	0	0	0	
3	0	0	0	0	619	556	0	0	0	0	
4	0	0	0	0	627	563	0	0	0	0	
5	0	0	0	0	632	568	0	0	0	0	
6	0	0	0	0	631	568	0	0	0	0	
7	0	0	0	0	626	565	0	0	0	0	
8	0	0	0	0	616	559	0	0	0	0	
9	0	0	0	0	604	550	0	0	0	0	
10	0	0	0	0	591	541	0	0	0	0	
11	0	0	0	0	578	532	0	0	0	0	
12	0	0	0	0	567	524	0	0	0	0	
13	0	0	0	0	556	516	0	0	0	0	
14	0	0	0	0	548	510	0	0	0	0	
15	0	0	0	0	543	505	0	0	0	0	
0	0	0	0	0	540	502	0	0	0	0	
1	0	0	0	0	539	500	0	0	0	0	
2	0	0	0	0	540	499	0	0	0	0	
3	0	0	0	0	543	499	0	0	0	0	
4	0	0	0	0	547	500	0	0	0	0	
5	0	0	0	0	552	503	0	0	0	0	
6	0	0	0	0	559	506	0	0	0	0	
7	0	0	0	0	566	511	0	0	0	0	
8	0	0	0	0	574	515	0	0	0	0	
9	0	0	0	0	581	521	0	0	0	0	
10	0	0	0	0	587	526	0	0	0	0	
11	0	0	0	0	591	530	0	0	0	0	
12	0	0	0	0	595	535	0	0	0	0	
13	0	0	0	0	596	537	0	0	0	0	
14	0	0	0	0	597	538	0	0	0	0	
15	0	0	0	0	595	537	0	0	0	0	
0	0	0	0	0	591	536	0	0	0	0	
1	0	0	0	0	587	533	0	0	0	0	
2	0	0	0	0	583	530	0	0	0	0	
3	0	0	0	0	580	527	0	0	0	0	
4	0	0	0	0	577	525	0	0	0	0	
5	0	0	0	0	577	524	0	0	0	0	
6	0	0	0	0	579	526	0	0	0	0	
7	0	0	0	0	582	529	0	0	0	0	
8	0	0	0	0	587	532	0	0	0	0	
9	0	0	0	0	592	536	0	0	0	0	
10	0	0	0	0	596	541	0	0	0	0	
11	0	0	0	0	601	544	0	0	0	0	
12	0	0	0	0	604	547	0	0	0	0	
13	0	0	0	0	604	548	0	0	0	0	
14	0	0	0	0	603	547	0	0	0	0	
15	0	0	0	0	599	543	0	0	0	0	
0	0	0	0	0	593	539	0	0	0	0	
1	0	0	0	0	587	534	0	0	0	0	
2	0	0	0	0	579	527	0	0	0	0	
3	0	0	0	0	572	522	0	0	0	0	
4	0	0	0	0	564	515	0	0	0	0	
5	0	0	0	0	557	510	0	0	0	0	
6	0	0	0	0	551	504	0	0	0	0	
7	0	0	0	0	545	499	0	0	0	0	
8	0	0	0	0	539	495	0	0	0	0	
9	0	0	0	0	534	490	0	0	0	0	
10	0	0	0	0	529	485	0	0	0	0	
11	0	0	0	0	523	480	0	0	0	0	
12	0	0	0	0	519	474	0	0	0	0	
13	0	0	0	0	514	468	0	0	0	0	
14	0	0	0	0	510	464	0	0	0	0	
15	0	0	0	0	507	460	0	0	0	0	
0	0	0	0	0	505	457	0	0	0	0	
1	0	0	0	0	505	456	0	0	0	0	
2	0	0	0	0	506	457	0	0	0	0	
3	0	0	0	0	509	459	0	0	0	0	
4	0	0	0	0	512	462	0	0	0	0	
5	0	0	0	0	518	466	0	0	0	0	
6	0	0	0	0	525	472	0	0	0	0	
7	0	0	0	0	534	479	0	0	0	0	
8	0	0	0	0	543	487	0	0	0	0	
9	0	0	0	0	555	497	0	0	0	0	
10	0	0	0	0	567	508	0	0	0	0	
11	0	0	0	0	581	519	0	0	0	0	
12	0	0	0	0	593	529	0	0	0	0	
13	0	0	0	0	603	537	0	0	0	0	
14	0	0	0	0	609	543	0	0	0	0	
15	0	0	0	0	613	547	0	0	0	0	
0	0	0	0	0	612	547	0	0	0	0	
1	0	0	0	0	607	543	0	0	0	0	
2	0	0	0	0	599	538	0	0	0	0	
3	0	0	0	0	587	530	0	0	0	0	
4	0	0	0	0	572	519	0	0	0	0	
5	0	0	0	0	557	507	0	0	0	0	
6	0	0	0	0	541	495	0	0	0	0	
7	0	0	0	0	526	483	0	0	0	0	
8	0	0	0	0	512	472	0	0	0	0	
9	0	0	0	0	502	463	0	0	0	0	
10	0	0	0	0	494	456	0	0	0	0	
11	0	0	0	0	491	452	0	0	0	0	
12	0	0	0	0	491	451	0	0	0	0	
13	0	0	0	0	495	453	0	0	0	0	
14	0	0	0	0	504	459	0	0	0	0	
15	0	0	0	0	515	467	0	0	0	0	
0	0	0	0	0	529	478	0	0	0	0	
1	0	0	0	0	544	490	0	0	0	0	
2	0	0	0	0	561	504	0	0	0	0	
3	0	0	0	0	579	519	0	0	0	0	
4	0	0	0	0	597	534	0	0	0	0	
5	0	0	0	0	614	549	0	0	0	0	
6	0	0	0	0	629	562	0	0	0	0	
7	0	0	0	0	639	572	0	0	0	0	
8	0	0	0	0	646	578	0	0	0	0	
9	0	0	0	0	647	579	0	0	0	0	
10	0	0	0	0	642	575	0	0	0	0	
11	0	0	0	0	631	567	0	0	0	0	
12	0	0	0	0	614	553	0	0	0	0	
13	0	0	0	0	592	536	0	0	0	0	
14	0	0	0	0	569	516	0	0	0	0	
15	0	0	0	0	543	495	0	0	0	0	
0	0	0	0	0	519	475	0	0	0	0	
1	0	0	0	0	496	457	0	0	0	0	
2	0	0	0	0	478	441	0	0	0	0	
3	0	0	0	0	465	430	0	0	0	0	
4	0	0	0	0	458	424	0	0	0	0	
5	0	0	0	0	457	422	0	0	0	0	
6	0	0	0	0	462	425	0	0	0	0	
7	0	0	0	0	474	434	0	0	0	0	
8	0	0	0	0	492	446	0	0	0	0	
9	0	0	0	0	513	462	0	0	0	0	
10	0	0	0	0	537	481	0	0	0	0	
11	0	0	0	0	564	501	0	0	0	0	
12	0	0	0	0	590	522	0	0	0	0	
13	0	0	0	0	615	541	0	0	0	0	
14	0	0	0	0	635	557	0	0	0	0	
15	0	0	0	0	651	570	0	0	0	0	
0	0	0	0	0	661	579	0	0	0	0	
1	0	0	0	0	666	583	0	0	0	0	
2	0	0	0	0	665	582	0	0	0	0	
3	0	0	0	0	656	576	0	0	0	0	
4	0	0	0	0	642	565	0	0	0	0	
5	0	0	0	0	622	551	0	0	0	0	
6	0	0	0	0	599	533	0	0	0	0	
7	0	0	0	0	573	514	0	0	0	0	
8	0	0	0	0	548	495	0	0	0	0	
9	0	0	0	0	524	478	0	0	0	0	
10	0	0	0	0	504	462	0	0	0	0	
11	0	0	0	0	487	450	0	0	0	0	
12	0	0	0	0	477	442	0	0	0	0	
13	0	0	0	0	472	438	0	0	0	0	
14	0	0	0	0	472	438	0	0	0	0	
15	0	0	0	0	476	440	0	0	0	0	
0	0	0	0	0	484	446	0	0	0	0	
1	0	0	0	0	496	452	0	0	0	0	
2	0	0	0	0	509	460	0	0	0	0	
3	0	0	0	0	523	468	0	0	0	0	
4	0	0	0	0	535	475	0	0	0	0	
5	0	0	0	0	546	481	0	0	0	0	
6	0	0	0	0	556	486	0	0	0	0	
7	0	0	0	0	561	488	0	0	0	0	
8	0	0	0	0	564	489	0	0	0	0	
9	0	0	0	0	563	487	0	0	0	0	
10	0	0	0	0	559	483	0	0	0	0	
11	0	0	0	0	552	479	0	0	0	0	
12	0	0	0	0	545	474	0	0	0	0	
13	0	0	0	0	538	471	0	0	0	0	
14	0	0	0	0	532	468	0	0	0	0	
15	0	0	0	0	528	467	0	0	0	0	
0	0	0	0	0	526	468	0	0	0	0	
1	0	0	0	0	527	470	0	0	0	0	
2	0	0	0	0	530	474	0	0	0	0	
3	0	0	0	0	535	478	0	0	0	0	
4	0	0	0	0	540	483	0	0	0	0	
5	0	0	0	0	547	487	0	0	0	0	
6	0	0	0	0	552	491	0	0	0	0	
7	0	0	0	0	557	494	0	0	0	0	
8	0	0	0	0	560	496	0	0	0	0	
9	0	0	0	0	562	496	0	0	0	0	
10	0	0	0	0	563	496	0	0	0	0	
11	0	0	0	0	564	496	0	0	0	0	
12	0	0	0	0	564	496	0	0	0	0	
13	0	0	0	0	565	496	0	0	0	0	
14	0	0	0	0	567	498	0	0	0	0	
15	0	0	0	0	572	502	0	0	0	0	
0	0	0	0	0	579	509	0	0	0	0	
1	0	0	0	0	588	518	0	0	0	0	
2	0	0	0	0	597	527	0	0	0	0	
3	0	0	0	0	607	535	0	0	0	0	
4	0	0	0	0	614	540	0	0	0	0	
5	0	0	0	0	616	543	0	0	0	0	
6	0	0	0	0	615	541	0	0	0	0	
7	0	0	0	0	607	534	0	0	0	0	
8	0	0	0	0	594	524	0	0	0	0	
9	0	0	0	0	579	512	0	0	0	0	
10	0	0	0	0	560	499	0	0	0	0	
11	0	0	0	0	543	487	0	0	0	0	
12	0	0	0	0	527	476	0	0	0	0	
13	0	0	0	0	514	467	0	0	0	0	
14	0	0	0	0	507	462	0	0	0	0	
15	0	0	0	0	504	460	0	0	0	0	
0	0	0	0	0	507	462	0	0	0	0	
1	0	0	0	0	514	466	0	0	0	0	
2	0	0	0	0	523	472	0	0	0	0	
3	0	0	0	0	534	478	0	0	0	0	
4	0	0	0	0	543	483	0	0	0	0	
5	0	0	0	0	551	486	0	0	0	0	
6	0	0	0	0	556	488	0	0	0	0	
7	0	0	0	0	556	486	0	0	0	0	
8	0	0	0	0	554	482	0	0	0	0	
9	0	0	0	0	549	476	0	0	0	0	
10	0	0	0	0	541	470	0	0	0	0	
11	0	0	0	0	533	463	0	0	0	0	
12	0	0	0	0	524	457	0	0	0	0	
13	0	0	0	0	516	451	0	0	0	0	
14	0	0	0	0	509	447	0	0	0	0	
15	0	0	0	0	504	443	0	0	0	0	
0	0	0	0	0	500	441	0	0	0	0	
1	0	0	0	0	500	441	0	0	0	0	
2	0	0	0	0	503	444	0	0	0	0	
3	0	0	0	0	507	448	0	0	0	0	
4	0	0	0	0	514	453	0	0	0	0	
5	0	0	0	0	522	459	0	0	0	0	
6	0	0	0	0	531	466	0	0	0	0	
7	0	0	0	0	541	473	0	0	0	0	
8	0	0	0	0	551	482	0	0	0	0	
9	0	0	0	0	562	490	0	0	0	0	
10	0	0	0	0	573	500	0	0	0	0	
11	0	0	0	0	583	510	0	0	0	0	
12	0	0	0	0	595	519	0	0	0	0	
13	0	0	0	0	604	529	0	0	0	0	
14	0	0	0	0	611	536	0	0	0	0	
15	0	0	0	0	615	539	0	0	0	0	
0	0	0	0	0	614	538	0	0	0	0	
1	0	0	0	0	608	534	0	0	0	0	
2	0	0	0	0	598	525	0	0	0	0	
3	0	0	0	0	585	515	0	0	0	0	
4	0	0	0	0	570	502	0	0	0	0	
5	0	0	0	0	556	490	0	0	0	0	
6	0	0	0	0	543	479	0	0	0	0	
7	0	0	0	0	532	470	0	0	0	0	
8	0	0	0	0	525	463	0	0	0	0	
9	0	0	0	0	520	459	0	0	0	0	
10	0	0	0	0	519	458	0	0	0	0	
11	0	0	0	0	519	459	0	0	0	0	
12	0	0	0	0	522	461	0	0	0	0	
13	0	0	0	0	527	464	0	0	0	0	
14	0	0	0	0	532	470	0	0	0	0	
15	0	0	0	0	539	476	0	0	0	0	
0	0	0	0	0	547	483	0	0	0	0	
1	0	0	0	0	556	492	0	0	0	0	
2	0	0	0	0	566	502	0	0	0	0	
3	0	0	0	0	576	513	0	0	0	0	
4	0	0	0	0	588	524	0	0	0	0	
5	0	0	0	0	597	532	0	0	0	0	
6	0	0	0	0	604	538	0	0	0	0	
7	0	0	0	0	607	540	0	0	0	0	
8	0	0	0	0	605	538	0	0	0	0	
9	0	0	0	0	600	533	0	0	0	0	
10	0	0	0	0	591	525	0	0	0	0	
11	0	0	0	0	579	515	0	0	0	0	
12	0	0	0	0	567	504	0	0	0	0	
13	0	0	0	0	553	492	0	0	0	0	
14	0	0	0	0	541	481	0	0	0	0	
15	0	0	0	0	529	472	0	0	0	0	
0	0	0	0	0	520	465	0	0	0	0	
1	0	0	0	0	514	460	0	0	0	0	
2	0	0	0	0	511	458	0	0	0	0	
3	0	0	0	0	513	459	0	0	0	0	
4	0	0	0	0	517	462	0	0	0	0	
5	0	0	0	0	524	467	0	0	0	0	
6	0	0	0	0	533	473	0	0	0	0	
7	0	0	0	0	542	480	0	0	0	0	
8	0	0	0	0	552	487	0	0	0	0	
9	0	0	0	0	560	492	0	0	0	0	
10	0	0	0	0	564	495	0	0	0	0	
11	0	0	0	0	566	494	0	0	0	0	
12	0	0	0	0	563	491	0	0	0	0	
13	0	0	0	0	558	486	0	0	0	0	
14	0	0	0	0	550	480	0	0	0	0	
15	0	0	0	0	540	472	0	0	0	0	
0	0	0	0	0	532	466	0	0	0	0	
1	0	0	0	0	525	461	0	0	0	0	
2	0	0	0	0	521	460	0	0	0	0	
3	0	0	0	0	521	461	0	0	0	0	
4	0	0	0	0	526	465	0	0	0	0	
5	0	0	0	0	532	471	0	0	0	0	
6	0	0	0	0	542	479	0	0	0	0	
7	0	0	0	0	554	489	0	0	0	0	
8	0	0	0	0	566	499	0	0	0	0	
9	0	0	0	0	579	509	0	0	0	0	
10	0	0	0	0	590	518	0	0	0	0	
11	0	0	0	0	600	526	0	0	0	0	
12	0	0	0	0	607	531	0	0	0	0	
13	0	0	0	0	612	536	0	0	0	0	
14	0	0	0	0	615	539	0	0	0	0	
15	0	0	0	0	615	540	0	0	0	0	
0	0	0	0	0	611	539	0	0	0	0	
1	0	0	0	0	606	536	0	0	0	0	
2	0	0	0	0	597	530	0	0	0	0	
3	0	0	0	0	585	522	0	0	0	0	
4	0	0	0	0	572	511	0	0	0	0	
5	0	0	0	0	556	499	0	0	0	0	
6	0	0	0	0	541	487	0	0	0	0	
7	0	0	0	0	526	475	0	0	0	0	
8	0	0	0	0	512	463	0	0	0	0	
9	0	0	0	0	501	454	0	0	0	0	
10	0	0	0	0	492	446	0	0	0	0	
11	0	0	0	0	488	442	0	0	0	0	
12	0	0	0	0	489	442	0	0	0	0	
13	0	0	0	0	494	446	0	0	0	0	
14	0	0	0	0	503	452	0	0	0	0	
15	0	0	0	0	514	461	0	0	0	0	
0	0	0	0	0	529	472	0	0	0	0	
1	0	0	0	0	545	483	0	0	0	0	
2	0	0	0	0	561	495	0	0	0	0	
3	0	0	0	0	576	507	0	0	0	0	
4	0	0	0	0	590	516	0	0	0	0	
5	0	0	0	0	601	524	0	0	0	0	
6	0	0	0	0	608	529	0	0	0	0	
7	0	0	0	0	611	531	0	0	0	0	
8	0	0	0	0	609	530	0	0	0	0	
9	0	0	0	0	604	527	0	0	0	0	
10	0	0	0	0	596	521	0	0	0	0	
11	0	0	0	0	586	514	0	0	0	0	
12	0	0	0	0	575	507	0	0	0	0	
13	0	0	0	0	563	499	0	0	0	0	
14	0	0	0	0	551	490	0	0	0	0	
15	0	0	0	0	539	483	0	0	0	0	
0	0	0	0	0	529	476	0	0	0	0	
1	0	0	0	0	522	471	0	0	0	0	
2	0	0	0	0	519	468	0	0	0	0	
3	0	0	0	0	518	467	0	0	0	0	
4	0	0	0	0	519	468	0	0	0	0	
5	0	0	0	0	522	469	0	0	0	0	
6	0	0	0	0	525	470	0	0	0	0	
7	0	0	0	0	528	471	0	0	0	0	
8	0	0	0	0	531	472	0	0	0	0	
9	0	0	0	0	532	471	0	0	0	0	
10	0	0	0	0	534	470	0	0	0	0	
11	0	0	0	0	533	468	0	0	0	0	
12	0	0	0	0	531	466	0	0	0	0	
13	0	0	0	0	529	463	0	0	0	0	
14	0	0	0	0	526	461	0	0	0	0	
15	0	0	0	0	524	459	0	0	0	0	
0	0	0	0	0	522	457	0	0	0	0	
1	0	0	0	0	521	457	0	0	0	0	
2	0	0	0	0	520	457	0	0	0	0	
3	0	0	0	0	520	459	0	0	0	0	
4	0	0	0	0	523	460	0	0	0	0	
5	0	0	0	0	525	463	0	0	0	0	
6	0	0	0	0	529	466	0	0	0	0	
7	0	0	0	0	533	470	0	0	0	0	
8	0	0	0	0	539	474	0	0	0	0	
9	0	0	0	0	545	479	0	0	0	0	
10	0	0	0	0	551	483	0	0	0	0	
11	0	0	0	0	556	487	0	0	0	0	
12	0	0	0	0	560	491	0	0	0	0	
13	0	0	0	0	564	493	0	0	0	0	
14	0	0	0	0	567	495	0	0	0	0	
15	0	0	0	0	567	496	0	0	0	0	
0	0	0	0	0	566	496	0	0	0	0	
1	0	0	0	0	562	495	0	0	0	0	
2	0	0	0	0	558	493	0	0	0	0	
3	0	0	0	0	555	491	0	0	0	0	
4	0	0	0	0	551	490	0	0	0	0	
5	0	0	0	0	549	489	0	0	0	0	
6	0	0	0	0	547	489	0	0	0	0	
7	0	0	0	0	547	491	0	0	0	0	
8	0	0	0	0	551	494	0	0	0	0	
9	0	0	0	0	555	498	0	0	0	0	
10	0	0	0	0	561	504	0	0	0	0	
11	0	0	0	0	568	509	0	0	0	0	
12	0	0	0	0	576	516	0	0	0	0	
13	0	0	0	0	583	521	0	0	0	0	
14	0	0	0	0	588	524	0	0	0	0	
15	0	0	0	0	591	525	0	0	0	0	
0	0	0	0	0	591	525	0	0	0	0	
1	0	0	0	0	590	522	0	0	0	0	
2	0	0	0	0	587	518	0	0	0	0	
3	0	0	0	0	582	514	0	0	0	0	
4	0	0	0	0	576	508	0	0	0	0	
5	0	0	0	0	571	504	0	0	0	0	
6	0	0	0	0	566	501	0	0	0	0	
7	0	0	0	0	563	499	0	0	0	0	
8	0	0	0	0	560	497	0	0	0	0	
9	0	0	0	0	558	497	0	0	0	0	
10	0	0	0	0	556	497	0	0	0	0	
11	0	0	0	0	556	498	0	0	0	0	
12	0	0	0	0	557	500	0	0	0	0	
13	0	0	0	0	559	503	0	0	0	0	
14	0	0	0	0	563	507	0	0	0	0	
15	0	0	0	0	569	513	0	0	0	0	
0	0	0	0	0	577	521	0	0	0	0	
1	0	0	0	0	587	529	0	0	0	0	
2	0	0	0	0	598	537	0	0	0	0	
3	0	0	0	0	608	545	0	0	0	0	
4	0	0	0	0	617	551	0	0	0	0	
5	0	0	0	0	623	554	0	0	0	0	
6	0	0	0	0	625	554	0	0	0	0	
7	0	0	0	0	623	549	0	0	0	0	
8	0	0	0	0	615	541	0	0	0	0	
9	0	0	0	0	601	528	0	0	0	0	
10	0	0	0	0	582	512	0	0	0	0	
11	0	0	0	0	561	494	0	0	0	0	
12	0	0	0	0	537	476	0	0	0	0	
13	0	0	0	0	515	460	0	0	0	0	
14	0	0	0	0	496	445	0	0	0	0	
15	0	0	0	0	480	434	0	0	0	0	
0	0	0	0	0	468	427	0	0	0	0	
1	0	0	0	0	463	423	0	0	0	0	
2	0	0	0	0	462	424	0	0	0	0	
3	0	0	0	0	465	427	0	0	0	0	
4	0	0	0	0	472	432	0	0	0	0	
5	0	0	0	0	481	439	0	0	0	0	
6	0	0	0	0	493	447	0	0	0	0	
7	0	0	0	0	504	454	0	0	0	0	
8	0	0	0	0	516	462	0	0	0	0	
9	0	0	0	0	526	468	0	0	0	0	
10	0	0	0	0	536	473	0	0	0	0	
11	0	0	0	0	543	477	0	0	0	0	
12	0	0	0	0	548	480	0	0	0	0	
13	0	0	0	0	551	481	0	0	0	0	
14	0	0	0	0	551	481	0	0	0	0	
15	0	0	0	0	552	482	0	0	0	0	
0	0	0	0	0	551	482	0	0	0	0	
1	0	0	0	0	551	483	0	0	0	0	
2	0	0	0	0	549	484	0	0	0	0	
3	0	0	0	0	548	485	0	0	0	0	
4	0	0	0	0	547	486	0	0	0	0	
5	0	0	0	0	545	486	0	0	0	0	
6	0	0	0	0	542	484	0	0	0	0	
7	0	0	0	0	539	483	0	0	0	0	
8	0	0	0	0	535	480	0	0	0	0	
9	0	0	0	0	531	477	0	0	0	0	
10	0	0	0	0	527	474	0	0	0	0	
11	0	0	0	0	524	471	0	0	0	0	
12	0	0	0	0	521	467	0	0	0	0	
13	0	0	0	0	518	464	0	0	0	0	
14	0	0	0	0	518	462	0	0	0	0	
15	0	0	0	0	518	460	0	0	0	0	
0	0	0	0	0	519	460	0	0	0	0	
1	0	0	0	0	520	459	0	0	0	0	
2	0	0	0	0	522	460	0	0	0	0	
3	0	0	0	0	525	462	0	0	0	0	
4	0	0	0	0	529	465	0	0	0	0	
5	0	0	0	0	534	469	0	0	0	0	
6	0	0	0	0	538	474	0	0	0	0	
7	0	0	0	0	545	480	0	0	0	0	
8	0	0	0	0	552	488	0	0	0	0	
9	0	0	0	0	561	497	0	0	0	0	
10	0	0	0	0	569	506	0	0	0	0	
11	0	0	0	0	577	515	0	0	0	0	
12	0	0	0	0	583	521	0	0	0	0	
13	0	0	0	0	588	526	0	0	0	0	
14	0	0	0	0	589	527	0	0	0	0	
15	0	0	0	0	587	527	0	0	0	0	
0	0	0	0	0	583	523	0	0	0	0	
1	0	0	0	0	576	516	0	0	0	0	
2	0	0	0	0	568	510	0	0	0	0	
3	0	0	0	0	560	502	0	0	0	0	
4	0	0	0	0	553	496	0	0	0	0	
5	0	0	0	0	549	491	0	0	0	0	
6	0	0	0	0	547	488	0	0	0	0	
7	0	0	0	0	548	488	0	0	0	0	
8	0	0	0	0	553	491	0	0	0	0	
9	0	0	0	0	560	496	0	0	0	0	
10	0	0	0	0	571	505	0	0	0	0	
11	0	0	0	0	582	515	0	0	0	0	
12	0	0	0	0	594	525	0	0	0	0	
13	0	0	0	0	603	533	0	0	0	0	
14	0	0	0	0	609	538	0	0	0	0	
15	0	0	0	0	610	539	0	0	0	0	
0	0	0	0	0	606	536	0	0	0	0	
1	0	0	0	0	599	531	0	0	0	0	
2	0	0	0	0	587	522	0	0	0	0	
3	0	0	0	0	574	512	0	0	0	0	
4	0	0	0	0	560	502	0	0	0	0	
5	0	0	0	0	547	493	0	0	0	0	
6	0	0	0	0	538	486	0	0	0	0	
7	0	0	0	0	532	482	0	0	0	0	
8	0	0	0	0	530	481	0	0	0	0	
9	0	0	0	0	532	482	0	0	0	0	
10	0	0	0	0	536	485	0	0	0	0	
11	0	0	0	0	543	489	0	0	0	0	
12	0	0	0	0	549	492	0	0	0	0	
13	0	0	0	0	555	495	0	0	0	0	
14	0	0	0	0	557	496	0	0	0	0	
15	0	0	0	0	558	495	0	0	0	0	
0	0	0	0	0	556	492	0	0	0	0	
1	0	0	0	0	551	488	0	0	0	0	
2	0	0	0	0	544	483	0	0	0	0	
3	0	0	0	0	536	477	0	0	0	0	
4	0	0	0	0	528	471	0	0	0	0	
5	0	0	0	0	520	465	0	0	0	0	
6	0	0	0	0	513	460	0	0	0	0	
7	0	0	0	0	507	456	0	0	0	0	
8	0	0	0	0	504	454	0	0	0	0	
9	0	0	0	0	502	452	0	0	0	0	
10	0	0	0	0	503	452	0	0	0	0	
11	0	0	0	0	507	455	0	0	0	0	
12	0	0	0	0	512	459	0	0	0	0	
13	0	0	0	0	520	464	0	0	0	0	
14	0	0	0	0	529	470	0	0	0	0	
15	0	0	0	0	538	476	0	0	0	0	
0	0	0	0	0	546	482	0	0	0	0	
1	0	0	0	0	553	487	0	0	0	0	
2	0	0	0	0	558	491	0	0	0	0	
3	0	0	0	0	561	493	0	0	0	0	
4	0	0	0	0	562	495	0	0	0	0	
5	0	0	0	0	559	493	0	0	0	0	
6	0	0	0	0	555	491	0	0	0	0	
7	0	0	0	0	549	487	0	0	0	0	
8	0	0	0	0	540	481	0	0	0	0	
9	0	0	0	0	531	475	0	0	0	0	
10	0	0	0	0	521	467	0	0	0	0	
11	0	0	0	0	512	460	0	0	0	0	
12	0	0	0	0	505	455	0	0	0	0	
13	0	0	0	0	499	450	0	0	0	0	
14	0	0	0	0	497	448	0	0	0	0	
15	0	0	0	0	496	446	0	0	0	0	
0	0	0	0	0	497	446	0	0	0	0	
1	0	0	0	0	500	446	0	0	0	0	
2	0	0	0	0	504	448	0	0	0	0	
3	0	0	0	0	510	450	0	0	0	0	
4	0	0	0	0	515	453	0	0	0	0	
5	0	0	0	0	520	455	0	0	0	0	
6	0	0	0	0	523	456	0	0	0	0	
7	0	0	0	0	524	456	0	0	0	0	
8	0	0	0	0	521	454	0	0	0	0	
9	0	0	0	0	515	449	0	0	0	0	
10	0	0	0	0	506	441	0	0	0	0	
11	0	0	0	0	492	429	0	0	0	0	
12	0	0	0	0	473	413	0	0	0	0	
13	0	0	0	0	452	393	0	0	0	0	
14	0	0	0	0	426	371	0	0	0	0	
15	0	0	0	0	397	345	0	0	0	0	
0	0	0	0	0	368	319	0	0	0	0	
1	0	0	0	0	340	294	0	0	0	0	
2	0	0	0	0	314	270	0	0	0	0	
3	0	0	0	0	292	249	0	0	0	0	
4	0	0	0	0	275	232	0	0	0	0	
5	0	0	0	0	263	220	0	0	0	0	
6	0	0	0	0	257	213	0	0	0	0	
7	0	0	0	0	257	210	0	0	0	0	
8	0	0	0	0	265	214	0	0	0	0	
9	0	0	0	0	279	223	0	0	0	0	
10	0	0	0	0	299	237	0	0	0	0	
11	0	0	0	0	323	255	0	0	0	0	
12	0	0	0	0	351	277	0	0	0	0	
13	0	0	0	0	380	301	0	0	0	0	
14	0	0	0	0	410	326	0	0	0	0	
15	0	0	0	0	439	351	0	0	0	0	
0	0	0	0	0	467	377	0	0	0	0	
1	0	0	0	0	493	403	0	0	0	0	
2	0	0	0	0	519	430	0	0	0	0	
3	0	0	0	0	543	455	0	0	0	0	
4	0	0	0	0	565	480	0	0	0	0	
5	0	0	0	0	585	502	0	0	0	0	
6	0	0	0	0	601	521	0	0	0	0	
7	0	0	0	0	612	536	0	0	0	0	
8	0	0	0	0	621	547	0	0	0	0	
9	0	0	0	0	625	554	0	0	0	0	
10	0	0	0	0	626	557	0	0	0	0	
11	0	0	0	0	625	557	0	0	0	0	
12	0	0	0	0	621	554	0	0	0	0	
13	0	0	0	0	615	550	0	0	0	0	
14	0	0	0	0	609	544	0	0	0	0	
15	0	0	0	0	601	537	0	0	0	0	
0	0	0	0	0	592	528	0	0	0	0	
1	0	0	0	0	582	518	0	0	0	0	
2	0	0	0	0	569	507	0	0	0	0	
3	0	0	0	0	556	495	0	0	0	0	
4	0	0	0	0	542	484	0	0	0	0	
5	0	0	0	0	529	473	0	0	0	0	
6	0	0	0	0	517	464	0	0	0	0	
7	0	0	0	0	507	456	0	0	0	0	
8	0	0	0	0	499	450	0	0	0	0	
9	0	0	0	0	493	447	0	0	0	0	
10	0	0	0	0	491	445	0	0	0	0	
11	0	0	0	0	491	446	0	0	0	0	
12	0	0	0	0	494	448	0	0	0	0	
13	0	0	0	0	499	452	0	0	0	0	
14	0	0	0	0	507	457	0	0	0	0	
15	0	0	0	0	515	463	0	0	0	0	
0	0	0	0	0	525	469	0	0	0	0	
1	0	0	0	0	535	476	0	0	0	0	
2	0	0	0	0	543	483	0	0	0	0	
3	0	0	0	0	551	487	0	0	0	0	
4	0	0	0	0	559	492	0	0	0	0	
5	0	0	0	0	563	495	0	0	0	0	
6	0	0	0	0	567	497	0	0	0	0	
7	0	0	0	0	568	499	0	0	0	0	
8	0	0	0	0	567	499	0	0	0	0	
9	0	0	0	0	567	499	0	0	0	0	
10	0	0	0	0	566	499	0	0	0	0	
11	0	0	0	0	563	499	0	0	0	0	
12	0	0	0	0	561	498	0	0	0	0	
13	0	0	0	0	558	497	0	0	0	0	
14	0	0	0	0	556	496	0	0	0	0	
15	0	0	0	0	552	494	0	0	0	0	
0	0	0	0	0	549	491	0	0	0	0	
1	0	0	0	0	546	488	0	0	0	0	
2	0	0	0	0	543	486	0	0	0	0	
3	0	0	0	0	541	483	0	0	0	0	
4	0	0	0	0	539	481	0	0	0	0	
5	0	0	0	0	538	480	0	0	0	0	
6	0	0	0	0	539	479	0	0	0	0	
7	0	0	0	0	540	480	0	0	0	0	
8	0	0	0	0	543	481	0	0	0	0	
9	0	0	0	0	546	484	0	0	0	0	
10	0	0	0	0	550	487	0	0	0	0	
11	0	0	0	0	554	490	0	0	0	0	
12	0	0	0	0	557	493	0	0	0	0	
13	0	0	0	0	560	496	0	0	0	0	
14	0	0	0	0	561	497	0	0	0	0	
15	0	0	0	0	562	499	0	0	0	0	
0	0	0	0	0	562	500	0	0	0	0	
1	0	0	0	0	563	501	0	0	0	0	
2	0	0	0	0	563	503	0	0	0	0	
3	0	0	0	0	565	505	0	0	0	0	
4	0	0	0	0	567	508	0	0	0	0	
5	0	0	0	0	570	511	0	0	0	0	
6	0	0	0	0	573	513	0	0	0	0	
7	0	0	0	0	576	516	0	0	0	0	
8	0	0	0	0	579	518	0	0	0	0	
9	0	0	0	0	583	521	0	0	0	0	
10	0	0	0	0	587	524	0	0	0	0	
11	0	0	0	0	591	527	0	0	0	0	
12	0	0	0	0	595	530	0	0	0	0	
13	0	0	0	0	600	534	0	0	0	0	
14	0	0	0	0	605	538	0	0	0	0	
15	0	0	0	0	609	542	0	0	0	0	
0	0	0	0	0	615	547	0	0	0	0	
1	0	0	0	0	620	553	0	0	0	0	
2	0	0	0	0	627	560	0	0	0	0	
3	0	0	0	0	634	568	0	0	0	0	
4	0	0	0	0	641	575	0	0	0	0	
5	0	0	0	0	647	581	0	0	0	0	
6	0	0	0	0	649	582	0	0	0	0	
7	0	0	0	0	646	578	0	0	0	0	
8	0	0	0	0	635	568	0	0	0	0	
9	0	0	0	0	617	551	0	0	0	0	
10	0	0	0	0	595	531	0	0	0	0	
11	0	0	0	0	568	509	0	0	0	0	
12	0	0	0	0	539	485	0	0	0	0	
13	0	0	0	0	510	463	0	0	0	0	
14	0	0	0	0	484	443	0	0	0	0	
15	0	0	0	0	464	427	0	0	0	0	
0	0	0	0	0	448	415	0	0	0	0	
1	0	0	0	0	439	409	0	0	0	0	
2	0	0	0	0	436	406	0	0	0	0	
3	0	0	0	0	439	408	0	0	0	0	
4	0	0	0	0	448	414	0	0	0	0	
5	0	0	0	0	460	422	0	0	0	0	
6	0	0	0	0	476	432	0	0	0	0	
7	0	0	0	0	494	443	0	0	0	0	
8	0	0	0	0	511	454	0	0	0	0	
9	0	0	0	0	529	465	0	0	0	0	
10	0	0	0	0	546	476	0	0	0	0	
11	0	0	0	0	561	487	0	0	0	0	
12	0	0	0	0	575	497	0	0	0	0	
13	0	0	0	0	586	506	0	0	0	0	
14	0	0	0	0	594	514	0	0	0	0	
15	0	0	0	0	600	519	0	0	0	0	
0	0	0	0	0	601	523	0	0	0	0	
1	0	0	0	0	600	524	0	0	0	0	
2	0	0	0	0	595	522	0	0	0	0	
3	0	0	0	0	587	519	0	0	0	0	
4	0	0	0	0	578	515	0	0	0	0	
5	0	0	0	0	568	509	0	0	0	0	
6	0	0	0	0	556	503	0	0	0	0	
7	0	0	0	0	546	496	0	0	0	0	
8	0	0	0	0	536	489	0	0	0	0	
9	0	0	0	0	526	483	0	0	0	0	
10	0	0	0	0	518	476	0	0	0	0	
11	0	0	0	0	511	470	0	0	0	0	
12	0	0	0	0	506	463	0	0	0	0	
13	0	0	0	0	502	458	0	0	0	0	
14	0	0	0	0	499	453	0	0	0	0	
15	0	0	0	0	498	449	0	0	0	0	
0	0	0	0	0	497	446	0	0	0	0	
1	0	0	0	0	498	444	0	0	0	0	
2	0	0	0	0	499	442	0	0	0	0	
3	0	0	0	0	500	441	0	0	0	0	
4	0	0	0	0	503	441	0	0	0	0	
5	0	0	0	0	505	442	0	0	0	0	
6	0	0	0	0	510	445	0	0	0	0	
7	0	0	0	0	514	449	0	0	0	0	
8	0	0	0	0	519	453	0	0	0	0	
9	0	0	0	0	524	457	0	0	0	0	
10	0	0	0	0	527	461	0	0	0	0	
11	0	0	0	0	529	463	0	0	0	0	
12	0	0	0	0	530	465	0	0	0	0	
13	0	0	0	0	529	466	0	0	0	0	
14	0	0	0	0	527	465	0	0	0	0	
15	0	0	0	0	525	465	0	0	0	0	
0	0	0	0	0	522	464	0	0	0	0	
1	0	0	0	0	520	464	0	0	0	0	
2	0	0	0	0	521	464	0	0	0	0	
3	0	0	0	0	522	465	0	0	0	0	
4	0	0	0	0	525	467	0	0	0	0	
5	0	0	0	0	530	471	0	0	0	0	
6	0	0	0	0	536	476	0	0	0	0	
7	0	0	0	0	544	482	0	0	0	0	
8	0	0	0	0	551	487	0	0	0	0	
9	0	0	0	0	558	493	0	0	0	0	
10	0	0	0	0	563	497	0	0	0	0	
11	0	0	0	0	566	502	0	0	0	0	
12	0	0	0	0	569	505	0	0	0	0	
13	0	0	0	0	569	508	0	0	0	0	
14	0	0	0	0	568	508	0	0	0	0	
15	0	0	0	0	566	508	0	0	0	0	
0	0	0	0	0	563	508	0	0	0	0	
1	0	0	0	0	560	506	0	0	0	0	
2	0	0	0	0	557	504	0	0	0	0	
3	0	0	0	0	553	502	0	0	0	0	
4	0	0	0	0	550	499	0	0	0	0	
5	0	0	0	0	546	495	0	0	0	0	
6	0	0	0	0	543	492	0	0	0	0	
7	0	0	0	0	540	487	0	0	0	0	
8	0	0	0	0	536	483	0	0	0	0	
9	0	0	0	0	533	480	0	0	0	0	
10	0	0	0	0	530	476	0	0	0	0	
11	0	0	0	0	528	473	0	0	0	0	
12	0	0	0	0	527	471	0	0	0	0	
13	0	0	0	0	526	470	0	0	0	0	
14	0	0	0	0	525	468	0	0	0	0	
15	0	0	0	0	524	467	0	0	0	0	
0	0	0	0	0	524	467	0	0	0	0	
1	0	0	0	0	524	467	0	0	0	0	
2	0	0	0	0	526	468	0	0	0	0	
3	0	0	0	0	527	469	0	0	0	0	
4	0	0	0	0	528	470	0	0	0	0	
5	0	0	0	0	530	471	0	0	0	0	
6	0	0	0	0	532	472	0	0	0	0	
7	0	0	0	0	534	473	0	0	0	0	
8	0	0	0	0	536	476	0	0	0	0	
9	0	0	0	0	539	478	0	0	0	0	
10	0	0	0	0	543	480	0	0	0	0	
11	0	0	0	0	546	483	0	0	0	0	
12	0	0	0	0	550	486	0	0	0	0	
13	0	0	0	0	553	488	0	0	0	0	
14	0	0	0	0	555	491	0	0	0	0	
15	0	0	0	0	559	493	0	0	0	0	
0	0	0	0	0	561	496	0	0	0	0	
1	0	0	0	0	565	499	0	0	0	0	
2	0	0	0	0	568	503	0	0	0	0	
3	0	0	0	0	571	506	0	0	0	0	
4	0	0	0	0	574	509	0	0	0	0	
5	0	0	0	0	575	510	0	0	0	0	
6	0	0	0	0	574	509	0	0	0	0	
7	0	0	0	0	570	506	0	0	0	0	
8	0	0	0	0	563	502	0	0	0	0	
9	0	0	0	0	554	495	0	0	0	0	
10	0	0	0	0	542	486	0	0	0	0	
11	0	0	0	0	528	475	0	0	0	0	
12	0	0	0	0	514	463	0	0	0	0	
13	0	0	0	0	498	451	0	0	0	0	
14	0	0	0	0	485	440	0	0	0	0	
15	0	0	0	0	472	430	0	0	0	0	
0	0	0	0	0	463	421	0	0	0	0	
1	0	0	0	0	455	415	0	0	0	0	
2	0	0	0	0	452	411	0	0	0	0	
3	0	0	0	0	452	410	0	0	0	0	
4	0	0	0	0	456	412	0	0	0	0	
5	0	0	0	0	462	415	0	0	0	0	
6	0	0	0	0	471	421	0	0	0	0	
7	0	0	0	0	481	428	0	0	0	0	
8	0	0	0	0	493	436	0	0	0	0	
9	0	0	0	0	505	445	0	0	0	0	
10	0	0	0	0	516	453	0	0	0	0	
11	0	0	0	0	526	461	0	0	0	0	
12	0	0	0	0	534	467	0	0	0	0	
13	0	0	0	0	540	472	0	0	0	0	
14	0	0	0	0	543	476	0	0	0	0	
15	0	0	0	0	544	477	0	0	0	0	
0	0	0	0	0	544	478	0	0	0	0	
1	0	0	0	0	543	479	0	0	0	0	
2	0	0	0	0	544	481	0	0	0	0	
3	0	0	0	0	547	485	0	0	0	0	
4	0	0	0	0	552	492	0	0	0	0	
5	0	0	0	0	561	501	0	0	0	0	
6	0	0	0	0	573	513	0	0	0	0	
7	0	0	0	0	587	527	0	0	0	0	
8	0	0	0	0	601	540	0	0	0	0	
9	0	0	0	0	613	551	0	0	0	0	
10	0	0	0	0	620	558	0	0	0	0	
11	0	0	0	0	620	557	0	0	0	0	
12	0	0	0	0	614	550	0	0	0	0	
13	0	0	0	0	599	536	0	0	0	0	
14	0	0	0	0	578	516	0	0	0	0	
15	0	0	0	0	553	494	0	0	0	0	
0	0	0	0	0	527	472	0	0	0	0	
1	0	0	0	0	501	449	0	0	0	0	
2	0	0	0	0	477	429	0	0	0	0	
3	0	0	0	0	457	413	0	0	0	0	
4	0	0	0	0	442	401	0	0	0	0	
5	0	0	0	0	433	395	0	0	0	0	
6	0	0	0	0	431	392	0	0	0	0	
7	0	0	0	0	433	393	0	0	0	0	
8	0	0	0	0	441	399	0	0	0	0	
9	0	0	0	0	453	407	0	0	0	0	
10	0	0	0	0	467	417	0	0	0	0	
11	0	0	0	0	484	429	0	0	0	0	
12	0	0	0	0	502	441	0	0	0	0	
13	0	0	0	0	519	454	0	0	0	0	
14	0	0	0	0	535	465	0	0	0	0	
15	0	0	0	0	550	476	0	0	0	0	
0	0	0	0	0	562	486	0	0	0	0	
1	0	0	0	0	572	494	0	0	0	0	
2	0	0	0	0	580	501	0	0	0	0	
3	0	0	0	0	586	508	0	0	0	0	
4	0	0	0	0	592	515	0	0	0	0	
5	0	0	0	0	596	521	0	0	0	0	
6	0	0	0	0	598	524	0	0	0	0	
7	0	0	0	0	596	525	0	0	0	0	
8	0	0	0	0	592	524	0	0	0	0	
9	0	0	0	0	586	520	0	0	0	0	
10	0	0	0	0	578	514	0	0	0	0	
11	0	0	0	0	568	506	0	0	0	0	
12	0	0	0	0	557	497	0	0	0	0	
13	0	0	0	0	544	487	0	0	0	0	
14	0	0	0	0	530	476	0	0	0	0	
15	0	0	0	0	518	465	0	0	0	0	
0	0	0	0	0	505	454	0	0	0	0	
1	0	0	0	0	494	446	0	0	0	0	
2	0	0	0	0	485	439	0	0	0	0	
3	0	0	0	0	478	434	0	0	0	0	
4	0	0	0	0	474	431	0	0	0	0	
5	0	0	0	0	472	430	0	0	0	0	
6	0	0	0	0	473	432	0	0	0	0	
7	0	0	0	0	476	434	0	0	0	0	
8	0	0	0	0	482	438	0	0	0	0	
9	0	0	0	0	489	444	0	0	0	0	
10	0	0	0	0	498	450	0	0	0	0	
11	0	0	0	0	508	456	0	0	0	0	
12	0	0	0	0	517	463	0	0	0	0	
13	0	0	0	0	526	468	0	0	0	0	
14	0	0	0	0	534	473	0	0	0	0	
15	0	0	0	0	539	475	0	0	0	0	
0	0	0	0	0	541	476	0	0	0	0	
1	0	0	0	0	541	475	0	0	0	0	
2	0	0	0	0	539	472	0	0	0	0	
3	0	0	0	0	536	470	0	0	0	0	
4	0	0	0	0	531	466	0	0	0	0	
5	0	0	0	0	526	463	0	0	0	0	
6	0	0	0	0	521	460	0	0	0	0	
7	0	0	0	0	517	459	0	0	0	0	
8	0	0	0	0	515	459	0	0	0	0	
9	0	0	0	0	515	460	0	0	0	0	
10	0	0	0	0	515	463	0	0	0	0	
11	0	0	0	0	517	466	0	0	0	0	
12	0	0	0	0	519	470	0	0	0	0	
13	0	0	0	0	524	475	0	0	0	0	
14	0	0	0	0	528	480	0	0	0	0	
15	0	0	0	0	533	483	0	0	0	0	
0	0	0	0	0	536	486	0	0	0	0	
1	0	0	0	0	540	488	0	0	0	0	
2	0	0	0	0	543	489	0	0	0	0	
3	0	0	0	0	545	489	0	0	0	0	
4	0	0	0	0	545	488	0	0	0	0	
5	0	0	0	0	545	486	0	0	0	0	
6	0	0	0	0	542	483	0	0	0	0	
7	0	0	0	0	539	478	0	0	0	0	
8	0	0	0	0	533	473	0	0	0	0	
9	0	0	0	0	528	469	0	0	0	0	
10	0	0	0	0	524	465	0	0	0	0	
11	0	0	0	0	520	463	0	0	0	0	
12	0	0	0	0	519	463	0	0	0	0	
13	0	0	0	0	521	465	0	0	0	0	
14	0	0	0	0	524	468	0	0	0	0	
15	0	0	0	0	529	472	0	0	0	0	
0	0	0	0	0	535	477	0	0	0	0	
1	0	0	0	0	539	480	0	0	0	0	
2	0	0	0	0	540	480	0	0	0	0	
3	0	0	0	0	540	479	0	0	0	0	
4	0	0	0	0	535	474	0	0	0	0	
5	0	0	0	0	529	468	0	0	0	0	
6	0	0	0	0	521	461	0	0	0	0	
7	0	0	0	0	512	453	0	0	0	0	
8	0	0	0	0	504	446	0	0	0	0	
9	0	0	0	0	496	440	0	0	0	0	
10	0	0	0	0	491	436	0	0	0	0	
11	0	0	0	0	489	435	0	0	0	0	
12	0	0	0	0	489	436	0	0	0	0	
13	0	0	0	0	493	440	0	0	0	0	
14	0	0	0	0	499	446	0	0	0	0	
15	0	0	0	0	507	452	0	0	0	0	
0	0	0	0	0	516	460	0	0	0	0	
1	0	0	0	0	526	467	0	0	0	0	
2	0	0	0	0	535	475	0	0	0	0	
3	0	0	0	0	543	481	0	0	0	0	
4	0	0	0	0	550	486	0	0	0	0	
5	0	0	0	0	554	489	0	0	0	0	
6	0	0	0	0	556	489	0	0	0	0	
7	0	0	0	0	553	487	0	0	0	0	
8	0	0	0	0	548	482	0	0	0	0	
9	0	0	0	0	540	475	0	0	0	0	
10	0	0	0	0	531	467	0	0	0	0	
11	0	0	0	0	521	460	0	0	0	0	
12	0	0	0	0	512	452	0	0	0	0	
13	0	0	0	0	503	446	0	0	0	0	
14	0	0	0	0	496	441	0	0	0	0	
15	0	0	0	0	489	437	0	0	0	0	
0	0	0	0	0	485	435	0	0	0	0	
1	0	0	0	0	483	434	0	0	0	0	
2	0	0	0	0	483	436	0	0	0	0	
3	0	0	0	0	485	438	0	0	0	0	
4	0	0	0	0	488	441	0	0	0	0	
5	0	0	0	0	492	444	0	0	0	0	
6	0	0	0	0	496	448	0	0	0	0	
7	0	0	0	0	499	451	0	0	0	0	
8	0	0	0	0	503	452	0	0	0	0	
9	0	0	0	0	505	454	0	0	0	0	
10	0	0	0	0	507	455	0	0	0	0	
11	0	0	0	0	508	455	0	0	0	0	
12	0	0	0	0	508	454	0	0	0	0	
13	0	0	0	0	508	453	0	0	0	0	
14	0	0	0	0	509	453	0	0	0	0	
15	0	0	0	0	511	455	0	0	0	0	
0	0	0	0	0	516	459	0	0	0	0	
1	0	0	0	0	523	464	0	0	0	0	
2	0	0	0	0	532	472	0	0	0	0	
3	0	0	0	0	542	479	0	0	0	0	
4	0	0	0	0	551	486	0	0	0	0	
5	0	0	0	0	558	492	0	0	0	0	
6	0	0	0	0	563	496	0	0	0	0	
7	0	0	0	0	566	499	0	0	0	0	
8	0	0	0	0	565	499	0	0	0	0	
9	0	0	0	0	560	496	0	0	0	0	
10	0	0	0	0	552	491	0	0	0	0	
11	0	0	0	0	542	483	0	0	0	0	
12	0	0	0	0	530	475	0	0	0	0	
13	0	0	0	0	518	466	0	0	0	0	
14	0	0	0	0	507	458	0	0	0	0	
15	0	0	0	0	498	451	0	0	0	0	
0	0	0	0	0	491	447	0	0	0	0	
1	0	0	0	0	489	444	0	0	0	0	
2	0	0	0	0	489	444	0	0	0	0	
3	0	0	0	0	493	445	0	0	0	0	
4	0	0	0	0	499	448	0	0	0	0	
5	0	0	0	0	507	453	0	0	0	0	
6	0	0	0	0	516	459	0	0	0	0	
7	0	0	0	0	526	465	0	0	0	0	
8	0	0	0	0	535	471	0	0	0	0	
9	0	0	0	0	542	476	0	0	0	0	
10	0	0	0	0	548	482	0	0	0	0	
11	0	0	0	0	553	487	0	0	0	0	
12	0	0	0	0	557	492	0	0	0	0	
13	0	0	0	0	560	497	0	0	0	0	
14	0	0	0	0	561	501	0	0	0	0	
15	0	0	0	0	561	505	0	0	0	0	
0	0	0	0	0	562	509	0	0	0	0	
1	0	0	0	0	561	511	0	0	0	0	
2	0	0	0	0	561	512	0	0	0	0	
3	0	0	0	0	559	512	0	0	0	0	
4	0	0	0	0	556	511	0	0	0	0	
5	0	0	0	0	551	507	0	0	0	0	
6	0	0	0	0	546	501	0	0	0	0	
7	0	0	0	0	540	496	0	0	0	0	
8	0	0	0	0	534	489	0	0	0	0	
9	0	0	0	0	528	482	0	0	0	0	
10	0	0	0	0	525	478	0	0	0	0	
11	0	0	0	0	523	475	0	0	0	0	
12	0	0	0	0	522	472	0	0	0	0	
13	0	0	0	0	522	471	0	0	0	0	
14	0	0	0	0	524	471	0	0	0	0	
15	0	0	0	0	526	472	0	0	0	0	
0	0	0	0	0	528	472	0	0	0	0	
1	0	0	0	0	530	472	0	0	0	0	
2	0	0	0	0	530	472	0	0	0	0	
3	0	0	0	0	528	470	0	0	0	0	
4	0	0	0	0	524	466	0	0	0	0	
5	0	0	0	0	518	462	0	0	0	0	
6	0	0	0	0	511	455	0	0	0	0	
7	0	0	0	0	502	449	0	0	0	0	
8	0	0	0	0	493	441	0	0	0	0	
9	0	0	0	0	484	435	0	0	0	0	
10	0	0	0	0	476	429	0	0	0	0	
11	0	0	0	0	471	425	0	0	0	0	
12	0	0	0	0	468	423	0	0	0	0	
13	0	0	0	0	468	423	0	0	0	0	
14	0	0	0	0	470	425	0	0	0	0	
15	0	0	0	0	475	429	0	0	0	0	
0	0	0	0	0	482	435	0	0	0	0	
1	0	0	0	0	490	441	0	0	0	0	
2	0	0	0	0	500	448	0	0	0	0	
3	0	0	0	0	510	456	0	0	0	0	
4	0	0	0	0	520	464	0	0	0	0	
5	0	0	0	0	529	472	0	0	0	0	
6	0	0	0	0	539	479	0	0	0	0	
7	0	0	0	0	547	487	0	0	0	0	
8	0	0	0	0	555	494	0	0	0	0	
9	0	0	0	0	561	500	0	0	0	0	
10	0	0	0	0	567	506	0	0	0	0	
11	0	0	0	0	572	512	0	0	0	0	
12	0	0	0	0	575	517	0	0	0	0	
13	0	0	0	0	577	520	0	0	0	0	
14	0	0	0	0	577	521	0	0	0	0	
15	0	0	0	0	573	519	0	0	0	0	
0	0	0	0	0	567	515	0	0	0	0	
1	0	0	0	0	558	508	0	0	0	0	
2	0	0	0	0	548	499	0	0	0	0	
3	0	0	0	0	536	489	0	0	0	0	
4	0	0	0	0	524	479	0	0	0	0	
5	0	0	0	0	512	468	0	0	0	0	
6	0	0	0	0	502	459	0	0	0	0	
7	0	0	0	0	494	451	0	0	0	0	
8	0	0	0	0	487	446	0	0	0	0	
9	0	0	0	0	484	442	0	0	0	0	
10	0	0	0	0	483	441	0	0	0	0	
11	0	0	0	0	485	441	0	0	0	0	
12	0	0	0	0	489	444	0	0	0	0	
13	0	0	0	0	495	448	0	0	0	0	
14	0	0	0	0	501	452	0	0	0	0	
15	0	0	0	0	508	457	0	0	0	0	
0	0	0	0	0	514	462	0	0	0	0	
1	0	0	0	0	521	465	0	0	0	0	
2	0	0	0	0	526	468	0	0	0	0	
3	0	0	0	0	530	471	0	0	0	0	
4	0	0	0	0	536	475	0	0	0	0	
5	0	0	0	0	540	478	0	0	0	0	
6	0	0	0	0	547	484	0	0	0	0	
7	0	0	0	0	555	491	0	0	0	0	
8	0	0	0	0	565	499	0	0	0	0	
9	0	0	0	0	576	510	0	0	0	0	
10	0	0	0	0	588	521	0	0	0	0	
11	0	0	0	0	601	532	0	0	0	0	
12	0	0	0	0	611	542	0	0	0	0	
13	0	0	0	0	618	548	0	0	0	0	
14	0	0	0	0	620	551	0	0	0	0	
15	0	0	0	0	616	548	0	0	0	0	
0	0	0	0	0	608	541	0	0	0	0	
1	0	0	0	0	595	531	0	0	0	0	
2	0	0	0	0	578	518	0	0	0	0	
3	0	0	0	0	559	503	0	0	0	0	
4	0	0	0	0	539	487	0	0	0	0	
5	0	0	0	0	520	472	0	0	0	0	
6	0	0	0	0	503	459	0	0	0	0	
7	0	0	0	0	489	447	0	0	0	0	
8	0	0	0	0	478	438	0	0	0	0	
9	0	0	0	0	471	432	0	0	0	0	
10	0	0	0	0	468	429	0	0	0	0	
11	0	0	0	0	469	429	0	0	0	0	
12	0	0	0	0	473	432	0	0	0	0	
13	0	0	0	0	481	437	0	0	0	0	
14	0	0	0	0	489	443	0	0	0	0	
15	0	0	0	0	498	449	0	0	0	0	
0	0	0	0	0	506	455	0	0	0	0	
1	0	0	0	0	513	460	0	0	0	0	
2	0	0	0	0	518	463	0	0	0	0	
3	0	0	0	0	522	467	0	0	0	0	
4	0	0	0	0	526	471	0	0	0	0	
5	0	0	0	0	529	474	0	0	0	0	
6	0	0	0	0	532	479	0	0	0	0	
7	0	0	0	0	536	483	0	0	0	0	
8	0	0	0	0	539	487	0	0	0	0	
9	0	0	0	0	543	492	0	0	0	0	
10	0	0	0	0	547	496	0	0	0	0	
11	0	0	0	0	549	497	0	0	0	0	
12	0	0	0	0	550	497	0	0	0	0	
13	0	0	0	0	550	496	0	0	0	0	
14	0	0	0	0	548	494	0	0	0	0	
15	0	0	0	0	546	491	0	0	0	0	
0	0	0	0	0	542	487	0	0	0	0	
1	0	0	0	0	538	482	0	0	0	0	
2	0	0	0	0	534	479	0	0	0	0	
3	0	0	0	0	529	476	0	0	0	0	
4	0	0	0	0	527	473	0	0	0	0	
5	0	0	0	0	524	472	0	0	0	0	
6	0	0	0	0	525	473	0	0	0	0	
7	0	0	0	0	527	476	0	0	0	0	
8	0	0	0	0	531	481	0	0	0	0	
9	0	0	0	0	537	487	0	0	0	0	
10	0	0	0	0	544	494	0	0	0	0	
11	0	0	0	0	552	500	0	0	0	0	
12	0	0	0	0	559	506	0	0	0	0	
13	0	0	0	0	564	510	0	0	0	0	
14	0	0	0	0	568	512	0	0	0	0	
15	0	0	0	0	568	511	0	0	0	0	
0	0	0	0	0	565	508	0	0	0	0	
1	0	0	0	0	560	502	0	0	0	0	
2	0	0	0	0	552	495	0	0	0	0	
3	0	0	0	0	544	487	0	0	0	0	
4	0	0	0	0	537	481	0	0	0	0	
5	0	0	0	0	532	478	0	0	0	0	
6	0	0	0	0	531	477	0	0	0	0	
7	0	0	0	0	531	480	0	0	0	0	
8	0	0	0	0	537	485	0	0	0	0	
9	0	0	0	0	543	492	0	0	0	0	
10	0	0	0	0	550	498	0	0	0	0	
11	0	0	0	0	555	504	0	0	0	0	
12	0	0	0	0	560	508	0	0	0	0	
13	0	0	0	0	563	511	0	0	0	0	
14	0	0	0	0	563	510	0	0	0	0	
15	0	0	0	0	559	508	0	0	0	0	
0	0	0	0	0	554	502	0	0	0	0	
1	0	0	0	0	545	495	0	0	0	0	
2	0	0	0	0	536	487	0	0	0	0	
3	0	0	0	0	526	478	0	0	0	0	
4	0	0	0	0	516	470	0	0	0	0	
5	0	0	0	0	507	462	0	0	0	0	
6	0	0	0	0	500	456	0	0	0	0	
7	0	0	0	0	496	452	0	0	0	0	
8	0	0	0	0	495	451	0	0	0	0	
9	0	0	0	0	496	451	0	0	0	0	
10	0	0	0	0	498	454	0	0	0	0	
11	0	0	0	0	504	457	0	0	0	0	
12	0	0	0	0	509	461	0	0	0	0	
13	0	0	0	0	514	465	0	0	0	0	
14	0	0	0	0	519	467	0	0	0	0	
15	0	0	0	0	523	469	0	0	0	0	
0	0	0	0	0	526	470	0	0	0	0	
1	0	0	0	0	528	471	0	0	0	0	
2	0	0	0	0	529	470	0	0	0	0	
3	0	0	0	0	530	469	0	0	0	0	
4	0	0	0	0	529	468	0	0	0	0	
5	0	0	0	0	527	465	0	0	0	0	
6	0	0	0	0	525	462	0	0	0	0	
7	0	0	0	0	519	456	0	0	0	0	
8	0	0	0	0	511	449	0	0	0	0	
9	0	0	0	0	499	439	0	0	0	0	
10	0	0	0	0	484	425	0	0	0	0	
11	0	0	0	0	465	408	0	0	0	0	
12	0	0	0	0	442	387	0	0	0	0	
13	0	0	0	0	415	365	0	0	0	0	
14	0	0	0	0	386	340	0	0	0	0	
15	0	0	0	0	356	315	0	0	0	0	
0	0	0	0	0	327	291	0	0	0	0	
1	0	0	0	0	300	268	0	0	0	0	
2	0	0	0	0	278	250	0	0	0	0	
3	0	0	0	0	260	235	0	0	0	0	
4	0	0	0	0	248	224	0	0	0	0	
5	0	0	0	0	243	220	0	0	0	0	
6	0	0	0	0	246	220	0	0	0	0	
7	0	0	0	0	255	225	0	0	0	0	
8	0	0	0	0	270	236	0	0	0	0	
9	0	0	0	0	290	249	0	0	0	0	
10	0	0	0	0	314	266	0	0	0	0	
11	0	0	0	0	342	285	0	0	0	0	
12	0	0	0	0	371	307	0	0	0	0	
13	0	0	0	0	401	329	0	0	0	0	
14	0	0	0	0	430	352	0	0	0	0	
15	0	0	0	0	459	376	0	0	0	0	
0	0	0	0	0	486	399	0	0	0	0	
1	0	0	0	0	510	422	0	0	0	0	
2	0	0	0	0	531	443	0	0	0	0	
3	0	0	0	0	549	463	0	0	0	0	
4	0	0	0	0	563	480	0	0	0	0	
5	0	0	0	0	572	494	0	0	0	0	
6	0	0	0	0	578	504	0	0	0	0	
7	0	0	0	0	581	512	0	0	0	0	
8	0	0	0	0	583	519	0	0	0	0	
9	0	0	0	0	583	524	0	0	0	0	
10	0	0	0	0	584	529	0	0	0	0	
11	0	0	0	0	586	534	0	0	0	0	
12	0	0	0	0	588	537	0	0	0	0	
13	0	0	0	0	591	541	0	0	0	0	
14	0	0	0	0	593	543	0	0	0	0	
15	0	0	0	0	596	543	0	0	0	0	
0	0	0	0	0	598	543	0	0	0	0	
1	0	0	0	0	598	541	0	0	0	0	
2	0	0	0	0	596	537	0	0	0	0	
3	0	0	0	0	592	531	0	0	0	0	
4	0	0	0	0	586	524	0	0	0	0	
5	0	0	0	0	577	515	0	0	0	0	
6	0	0	0	0	568	507	0	0	0	0	
7	0	0	0	0	558	498	0	0	0	0	
8	0	0	0	0	547	490	0	0	0	0	
9	0	0	0	0	537	483	0	0	0	0	
10	0	0	0	0	529	477	0	0	0	0	
11	0	0	0	0	522	473	0	0	0	0	
12	0	0	0	0	519	471	0	0	0	0	
13	0	0	0	0	518	471	0	0	0	0	
14	0	0	0	0	519	473	0	0	0	0	
15	0	0	0	0	524	477	0	0	0	0	
0	0	0	0	0	530	483	0	0	0	0	
1	0	0	0	0	539	489	0	0	0	0	
2	0	0	0	0	547	495	0	0	0	0	
3	0	0	0	0	555	501	0	0	0	0	
4	0	0	0	0	561	504	0	0	0	0	
5	0	0	0	0	565	507	0	0	0	0	
6	0	0	0	0	567	508	0	0	0	0	
7	0	0	0	0	568	509	0	0	0	0	
8	0	0	0	0	569	510	0	0	0	0	
9	0	0	0	0	569	510	0	0	0	0	
10	0	0	0	0	571	512	0	0	0	0	
11	0	0	0	0	572	515	0	0	0	0	
12	0	0	0	0	577	520	0	0	0	0	
13	0	0	0	0	583	526	0	0	0	0	
14	0	0	0	0	591	532	0	0	0	0	
15	0	0	0	0	599	539	0	0	0	0	
0	0	0	0	0	606	545	0	0	0	0	
1	0	0	0	0	612	551	0	0	0	0	
2	0	0	0	0	616	554	0	0	0	0	
3	0	0	0	0	618	556	0	0	0	0	
4	0	0	0	0	616	555	0	0	0	0	
5	0	0	0	0	612	553	0	0	0	0	
6	0	0	0	0	605	548	0	0	0	0	
7	0	0	0	0	594	540	0	0	0	0	
8	0	0	0	0	580	530	0	0	0	0	
9	0	0	0	0	565	518	0	0	0	0	
10	0	0	0	0	549	505	0	0	0	0	
11	0	0	0	0	534	493	0	0	0	0	
12	0	0	0	0	521	482	0	0	0	0	
13	0	0	0	0	510	472	0	0	0	0	
14	0	0	0	0	502	465	0	0	0	0	
15	0	0	0	0	496	459	0	0	0	0	
0	0	0	0	0	494	455	0	0	0	0	
1	0	0	0	0	495	455	0	0	0	0	
2	0	0	0	0	497	455	0	0	0	0	
3	0	0	0	0	503	458	0	0	0	0	
4	0	0	0	0	510	462	0	0	0	0	
5	0	0	0	0	518	467	0	0	0	0	
6	0	0	0	0	526	472	0	0	0	0	
7	0	0	0	0	533	478	0	0	0	0	
8	0	0	0	0	540	483	0	0	0	0	
9	0	0	0	0	545	487	0	0	0	0	
10	0	0	0	0	550	492	0	0	0	0	
11	0	0	0	0	555	496	0	0	0	0	
12	0	0	0	0	559	501	0	0	0	0	
13	0	0	0	0	565	507	0	0	0	0	
14	0	0	0	0	572	515	0	0	0	0	
15	0	0	0	0	582	525	0	0	0	0	
0	0	0	0	0	593	536	0	0	0	0	
1	0	0	0	0	606	549	0	0	0	0	
2	0	0	0	0	619	562	0	0	0	0	
3	0	0	0	0	630	574	0	0	0	0	
4	0	0	0	0	640	583	0	0	0	0	
5	0	0	0	0	646	590	0	0	0	0	
6	0	0	0	0	647	591	0	0	0	0	
7	0	0	0	0	643	588	0	0	0	0	
8	0	0	0	0	634	580	0	0	0	0	
9	0	0	0	0	620	568	0	0	0	0	
10	0	0	0	0	602	551	0	0	0	0	
11	0	0	0	0	581	532	0	0	0	0	
12	0	0	0	0	558	512	0	0	0	0	
13	0	0	0	0	534	491	0	0	0	0	
14	0	0	0	0	512	472	0	0	0	0	
15	0	0	0	0	492	454	0	0	0	0	
0	0	0	0	0	476	439	0	0	0	0	
1	0	0	0	0	463	427	0	0	0	0	
2	0	0	0	0	455	420	0	0	0	0	
3	0	0	0	0	452	417	0	0	0	0	
4	0	0	0	0	453	417	0	0	0	0	
5	0	0	0	0	457	420	0	0	0	0	
6	0	0	0	0	465	426	0	0	0	0	
7	0	0	0	0	477	434	0	0	0	0	
8	0	0	0	0	489	443	0	0	0	0	
9	0	0	0	0	502	453	0	0	0	0	
10	0	0	0	0	515	463	0	0	0	0	
11	0	0	0	0	527	472	0	0	0	0	
12	0	0	0	0	538	480	0	0	0	0	
13	0	0	0	0	547	487	0	0	0	0	
14	0	0	0	0	556	493	0	0	0	0	
15	0	0	0	0	562	499	0	0	0	0	
0	0	0	0	0	569	504	0	0	0	0	
1	0	0	0	0	575	510	0	0	0	0	
2	0	0	0	0	583	518	0	0	0	0	
3	0	0	0	0	594	527	0	0	0	0	
4	0	0	0	0	606	539	0	0	0	0	
5	0	0	0	0	619	551	0	0	0	0	
6	0	0	0	0	631	562	0	0	0	0	
7	0	0	0	0	641	572	0	0	0	0	
8	0	0	0	0	647	579	0	0	0	0	
9	0	0	0	0	650	582	0	0	0	0	
10	0	0	0	0	647	582	0	0	0	0	
11	0	0	0	0	641	577	0	0	0	0	
12	0	0	0	0	631	571	0	0	0	0	
13	0	0	0	0	617	560	0	0	0	0	
14	0	0	0	0	600	547	0	0	0	0	
15	0	0	0	0	582	532	0	0	0	0	
0	0	0	0	0	562	516	0	0	0	0	
1	0	0	0	0	543	500	0	0	0	0	
2	0	0	0	0	524	485	0	0	0	0	
3	0	0	0	0	508	471	0	0	0	0	
4	0	0	0	0	494	458	0	0	0	0	
5	0	0	0	0	482	447	0	0	0	0	
6	0	0	0	0	473	438	0	0	0	0	
7	0	0	0	0	467	430	0	0	0	0	
8	0	0	0	0	464	427	0	0	0	0	
9	0	0	0	0	465	424	0	0	0	0	
10	0	0	0	0	467	424	0	0	0	0	
11	0	0	0	0	474	427	0	0	0	0	
12	0	0	0	0	481	431	0	0	0	0	
13	0	0	0	0	490	437	0	0	0	0	
14	0	0	0	0	499	443	0	0	0	0	
15	0	0	0	0	509	450	0	0	0	0	
0	0	0	0	0	519	458	0	0	0	0	
1	0	0	0	0	528	466	0	0	0	0	
2	0	0	0	0	537	474	0	0	0	0	
3	0	0	0	0	544	481	0	0	0	0	
4	0	0	0	0	550	487	0	0	0	0	
5	0	0	0	0	554	492	0	0	0	0	
6	0	0	0	0	558	496	0	0	0	0	
7	0	0	0	0	559	498	0	0	0	0	
8	0	0	0	0	559	500	0	0	0	0	
9	0	0	0	0	558	500	0	0	0	0	
10	0	0	0	0	557	500	0	0	0	0	
11	0	0	0	0	556	499	0	0	0	0	
12	0	0	0	0	556	499	0	0	0	0	
13	0	0	0	0	555	499	0	0	0	0	
14	0	0	0	0	554	498	0	0	0	0	
15	0	0	0	0	553	496	0	0	0	0	
0	0	0	0	0	552	494	0	0	0	0	
1	0	0	0	0	550	491	0	0	0	0	
2	0	0	0	0	546	487	0	0	0	0	
3	0	0	0	0	543	485	0	0	0	0	
4	0	0	0	0	542	484	0	0	0	0	
5	0	0	0	0	540	483	0	0	0	0	
6	0	0	0	0	541	484	0	0	0	0	
7	0	0	0	0	543	487	0	0	0	0	
8	0	0	0	0	547	492	0	0	0	0	
9	0	0	0	0	552	497	0	0	0	0	
10	0	0	0	0	558	502	0	0	0	0	
11	0	0	0	0	563	507	0	0	0	0	
12	0	0	0	0	567	510	0	0	0	0	
13	0	0	0	0	568	511	0	0	0	0	
14	0	0	0	0	568	510	0	0	0	0	
15	0	0	0	0	565	506	0	0	0	0	
0	0	0	0	0	560	501	0	0	0	0	
1	0	0	0	0	552	494	0	0	0	0	
2	0	0	0	0	544	487	0	0	0	0	
3	0	0	0	0	536	480	0	0	0	0	
4	0	0	0	0	530	475	0	0	0	0	
5	0	0	0	0	524	471	0	0	0	0	
6	0	0	0	0	522	469	0	0	0	0	
7	0	0	0	0	522	470	0	0	0	0	
8	0	0	0	0	524	474	0	0	0	0	
9	0	0	0	0	529	478	0	0	0	0	
10	0	0	0	0	535	484	0	0	0	0	
11	0	0	0	0	541	489	0	0	0	0	
12	0	0	0	0	546	494	0	0	0	0	
13	0	0	0	0	552	499	0	0	0	0	
14	0	0	0	0	556	501	0	0	0	0	
15	0	0	0	0	559	502	0	0	0	0	
0	0	0	0	0	560	501	0	0	0	0	
1	0	0	0	0	559	499	0	0	0	0	
2	0	0	0	0	557	496	0	0	0	0	
3	0	0	0	0	553	491	0	0	0	0	
4	0	0	0	0	548	487	0	0	0	0	
5	0	0	0	0	542	483	0	0	0	0	
6	0	0	0	0	537	480	0	0	0	0	
7	0	0	0	0	532	476	0	0	0	0	
8	0	0	0	0	528	474	0	0	0	0	
9	0	0	0	0	524	472	0	0	0	0	
10	0	0	0	0	520	470	0	0	0	0	
11	0	0	0	0	518	469	0	0	0	0	
12	0	0	0	0	517	469	0	0	0	0	
13	0	0	0	0	516	469	0	0	0	0	
14	0	0	0	0	517	469	0	0	0	0	
15	0	0	0	0	518	470	0	0	0	0	
0	0	0	0	0	520	471	0	0	0	0	
1	0	0	0	0	524	472	0	0	0	0	
2	0	0	0	0	528	475	0	0	0	0	
3	0	0	0	0	533	478	0	0	0	0	
4	0	0	0	0	539	481	0	0	0	0	
5	0	0	0	0	545	485	0	0	0	0	
6	0	0	0	0	551	488	0	0	0	0	
7	0	0	0	0	556	491	0	0	0	0	
8	0	0	0	0	561	494	0	0	0	0	
9	0	0	0	0	565	496	0	0	0	0	
10	0	0	0	0	567	498	0	0	0	0	
11	0	0	0	0	570	500	0	0	0	0	
12	0	0	0	0	571	502	0	0	0	0	
13	0	0	0	0	573	504	0	0	0	0	
14	0	0	0	0	575	507	0	0	0	0	
15	0	0	0	0	578	511	0	0	0	0	
0	0	0	0	0	583	517	0	0	0	0	
1	0	0	0	0	588	523	0	0	0	0	
2	0	0	0	0	593	528	0	0	0	0	
3	0	0	0	0	596	532	0	0	0	0	
4	0	0	0	0	598	534	0	0	0	0	
5	0	0	0	0	595	532	0	0	0	0	
6	0	0	0	0	588	526	0	0	0	0	
7	0	0	0	0	577	517	0	0	0	0	
8	0	0	0	0	563	505	0	0	0	0	
9	0	0	0	0	549	492	0	0	0	0	
10	0	0	0	0	535	479	0	0	0	0	
11	0	0	0	0	521	467	0	0	0	0	
12	0	0	0	0	510	455	0	0	0	0	
13	0	0	0	0	500	446	0	0	0	0	
14	0	0	0	0	492	439	0	0	0	0	
15	0	0	0	0	487	433	0	0	0	0	
0	0	0	0	0	484	431	0	0	0	0	
1	0	0	0	0	484	430	0	0	0	0	
2	0	0	0	0	486	431	0	0	0	0	
3	0	0	0	0	491	435	0	0	0	0	
4	0	0	0	0	496	440	0	0	0	0	
5	0	0	0	0	503	447	0	0	0	0	
6	0	0	0	0	511	454	0	0	0	0	
7	0	0	0	0	518	461	0	0	0	0	
8	0	0	0	0	527	469	0	0	0	0	
9	0	0	0	0	535	476	0	0	0	0	
10	0	0	0	0	542	482	0	0	0	0	
11	0	0	0	0	549	487	0	0	0	0	
12	0	0	0	0	554	491	0	0	0	0	
13	0	0	0	0	559	494	0	0	0	0	
14	0	0	0	0	562	495	0	0	0	0	
15	0	0	0	0	563	495	0	0	0	0	
0	0	0	0	0	563	494	0	0	0	0	
1	0	0	0	0	561	492	0	0	0	0	
2	0	0	0	0	559	490	0	0	0	0	
3	0	0	0	0	555	487	0	0	0	0	
4	0	0	0	0	551	485	0	0	0	0	
5	0	0	0	0	547	483	0	0	0	0	
6	0	0	0	0	543	482	0	0	0	0	
7	0	0	0	0	541	481	0	0	0	0	
8	0	0	0	0	538	480	0	0	0	0	
9	0	0	0	0	536	480	0	0	0	0	
10	0	0	0	0	534	479	0	0	0	0	
11	0	0	0	0	531	478	0	0	0	0	
12	0	0	0	0	528	475	0	0	0	0	
13	0	0	0	0	524	472	0	0	0	0	
14	0	0	0	0	520	468	0	0	0	0	
15	0	0	0	0	516	465	0	0	0	0	
0	0	0	0	0	514	463	0	0	0	0	
1	0	0	0	0	512	461	0	0	0	0	
2	0	0	0	0	513	462	0	0	0	0	
3	0	0	0	0	516	463	0	0	0	0	
4	0	0	0	0	520	466	0	0	0	0	
5	0	0	0	0	525	470	0	0	0	0	
6	0	0	0	0	531	475	0	0	0	0	
7	0	0	0	0	538	480	0	0	0	0	
8	0	0	0	0	545	485	0	0	0	0	
9	0	0	0	0	552	490	0	0	0	0	
10	0	0	0	0	559	495	0	0	0	0	
11	0	0	0	0	566	500	0	0	0	0	
12	0	0	0	0	572	505	0	0	0	0	
13	0	0	0	0	578	511	0	0	0	0	
14	0	0	0	0	583	515	0	0	0	0	
15	0	0	0	0	588	519	0	0	0	0	
0	0	0	0	0	592	524	0	0	0	0	
1	0	0	0	0	595	528	0	0	0	0	
2	0	0	0	0	598	532	0	0	0	0	
3	0	0	0	0	599	535	0	0	0	0	
4	0	0	0	0	599	536	0	0	0	0	
5	0	0	0	0	598	537	0	0	0	0	
6	0	0	0	0	594	535	0	0	0	0	
7	0	0	0	0	588	529	0	0	0	0	
8	0	0	0	0	579	522	0	0	0	0	
9	0	0	0	0	568	512	0	0	0	0	
10	0	0	0	0	556	501	0	0	0	0	
11	0	0	0	0	543	490	0	0	0	0	
12	0	0	0	0	531	479	0	0	0	0	
13	0	0	0	0	519	468	0	0	0	0	
14	0	0	0	0	509	459	0	0	0	0	
15	0	0	0	0	500	451	0	0	0	0	
0	0	0	0	0	495	447	0	0	0	0	
1	0	0	0	0	492	444	0	0	0	0	
2	0	0	0	0	494	445	0	0	0	0	
3	0	0	0	0	499	448	0	0	0	0	
4	0	0	0	0	505	454	0	0	0	0	
5	0	0	0	0	515	462	0	0	0	0	
6	0	0	0	0	525	470	0	0	0	0	
7	0	0	0	0	535	476	0	0	0	0	
8	0	0	0	0	543	483	0	0	0	0	
9	0	0	0	0	549	487	0	0	0	0	
10	0	0	0	0	553	491	0	0	0	0	
11	0	0	0	0	555	492	0	0	0	0	
12	0	0	0	0	555	492	0	0	0	0	
13	0	0	0	0	554	491	0	0	0	0	
14	0	0	0	0	552	490	0	0	0	0	
15	0	0	0	0	552	490	0	0	0	0	
0	0	0	0	0	551	491	0	0	0	0	
1	0	0	0	0	551	492	0	0	0	0	
2	0	0	0	0	550	492	0	0	0	0	
3	0	0	0	0	550	493	0	0	0	0	
4	0	0	0	0	549	494	0	0	0	0	
5	0	0	0	0	547	492	0	0	0	0	
6	0	0	0	0	544	491	0	0	0	0	
7	0	0	0	0	540	489	0	0	0	0	
8	0	0	0	0	535	485	0	0	0	0	
9	0	0	0	0	530	482	0	0	0	0	
10	0	0	0	0	525	478	0	0	0	0	
11	0	0	0	0	521	474	0	0	0	0	
12	0	0	0	0	519	472	0	0	0	0	
13	0	0	0	0	517	470	0	0	0	0	
14	0	0	0	0	518	469	0	0	0	0	
15	0	0	0	0	521	470	0	0	0	0	
0	0	0	0	0	525	471	0	0	0	0	
1	0	0	0	0	530	474	0	0	0	0	
2	0	0	0	0	536	477	0	0	0	0	
3	0	0	0	0	543	482	0	0	0	0	
4	0	0	0	0	551	486	0	0	0	0	
5	0	0	0	0	557	491	0	0	0	0	
6	0	0	0	0	562	495	0	0	0	0	
7	0	0	0	0	567	499	0	0	0	0	
8	0	0	0	0	568	501	0	0	0	0	
9	0	0	0	0	568	501	0	0	0	0	
10	0	0	0	0	563	500	0	0	0	0	
11	0	0	0	0	558	496	0	0	0	0	
12	0	0	0	0	550	492	0	0	0	0	
13	0	0	0	0	542	487	0	0	0	0	
14	0	0	0	0	533	481	0	0	0	0	
15	0	0	0	0	526	477	0	0	0	0	
0	0	0	0	0	519	473	0	0	0	0	
1	0	0	0	0	515	471	0	0	0	0	
2	0	0	0	0	514	470	0	0	0	0	
3	0	0	0	0	514	471	0	0	0	0	
4	0	0	0	0	517	472	0	0	0	0	
5	0	0	0	0	521	475	0	0	0	0	
6	0	0	0	0	526	478	0	0	0	0	
7	0	0	0	0	531	481	0	0	0	0	
8	0	0	0	0	537	484	0	0	0	0	
9	0	0	0	0	542	487	0	0	0	0	
10	0	0	0	0	545	489	0	0	0	0	
11	0	0	0	0	547	489	0	0	0	0	
12	0	0	0	0	547	489	0	0	0	0	
13	0	0	0	0	546	487	0	0	0	0	
14	0	0	0	0	543	486	0	0	0	0	
15	0	0	0	0	540	484	0	0	0	0	
0	0	0	0	0	538	483	0	0	0	0	
1	0	0	0	0	538	483	0	0	0	0	
2	0	0	0	0	538	483	0	0	0	0	
3	0	0	0	0	539	485	0	0	0	0	
4	0	0	0	0	541	486	0	0	0	0	
5	0	0	0	0	543	487	0	0	0	0	
6	0	0	0	0	545	489	0	0	0	0	
7	0	0	0	0	547	491	0	0	0	0	
8	0	0	0	0	549	491	0	0	0	0	
9	0	0	0	0	549	490	0	0	0	0	
10	0	0	0	0	550	490	0	0	0	0	
11	0	0	0	0	550	490	0	0	0	0	
12	0	0	0	0	550	490	0	0	0	0	
13	0	0	0	0	550	490	0	0	0	0	
14	0	0	0	0	550	490	0	0	0	0	
15	0	0	0	0	550	490	0	0	0	0	
0	0	0	0	0	551	491	0	0	0	0	
1	0	0	0	0	551	493	0	0	0	0	
2	0	0	0	0	552	494	0	0	0	0	
3	0	0	0	0	552	494	0	0	0	0	
4	0	0	0	0	552	494	0	0	0	0	
5	0	0	0	0	551	494	0	0	0	0	
6	0	0	0	0	550	493	0	0	0	0	
7	0	0	0	0	548	492	0	0	0	0	
8	0	0	0	0	548	492	0	0	0	0	
9	0	0	0	0	547	492	0	0	0	0	
10	0	0	0	0	549	493	0	0	0	0	
11	0	0	0	0	552	495	0	0	0	0	
12	0	0	0	0	555	497	0	0	0	0	
13	0	0	0	0	559	500	0	0	0	0	
14	0	0	0	0	563	504	0	0	0	0	
15	0	0	0	0	570	510	0	0	0	0	
0	0	0	0	0	576	515	0	0	0	0	
1	0	0	0	0	582	520	0	0	0	0	
2	0	0	0	0	586	524	0	0	0	0	
3	0	0	0	0	588	527	0	0	0	0	
4	0	0	0	0	590	529	0	0	0	0	
5	0	0	0	0	588	528	0	0	0	0	
6	0	0	0	0	583	526	0	0	0	0	
7	0	0	0	0	577	522	0	0	0	0	
8	0	0	0	0	570	517	0	0	0	0	
9	0	0	0	0	562	511	0	0	0	0	
10	0	0	0	0	553	504	0	0	0	0	
11	0	0	0	0	545	497	0	0	0	0	
12	0	0	0	0	537	490	0	0	0	0	
13	0	0	0	0	530	483	0	0	0	0	
14	0	0	0	0	525	478	0	0	0	0	
15	0	0	0	0	522	475	0	0	0	0	
0	0	0	0	0	522	473	0	0	0	0	
1	0	0	0	0	524	473	0	0	0	0	
2	0	0	0	0	531	477	0	0	0	0	
3	0	0	0	0	539	482	0	0	0	0	
4	0	0	0	0	547	489	0	0	0	0	
5	0	0	0	0	557	496	0	0	0	0	
6	0	0	0	0	565	502	0	0	0	0	
7	0	0	0	0	572	508	0	0	0	0	
8	0	0	0	0	575	511	0	0	0	0	
9	0	0	0	0	576	513	0	0	0	0	
10	0	0	0	0	574	512	0	0	0	0	
11	0	0	0	0	569	509	0	0	0	0	
12	0	0	0	0	560	504	0	0	0	0	
13	0	0	0	0	551	498	0	0	0	0	
14	0	0	0	0	539	490	0	0	0	0	
15	0	0	0	0	527	482	0	0	0	0	
0	0	0	0	0	516	473	0	0	0	0	
1	0	0	0	0	506	465	0	0	0	0	
2	0	0	0	0	498	458	0	0	0	0	
3	0	0	0	0	492	452	0	0	0	0	
4	0	0	0	0	487	448	0	0	0	0	
5	0	0	0	0	484	445	0	0	0	0	
6	0	0	0	0	484	443	0	0	0	0	
7	0	0	0	0	486	443	0	0	0	0	
8	0	0	0	0	490	446	0	0	0	0	
9	0	0	0	0	496	449	0	0	0	0	
10	0	0	0	0	504	456	0	0	0	0	
11	0	0	0	0	515	464	0	0	0	0	
12	0	0	0	0	529	475	0	0	0	0	
13	0	0	0	0	544	487	0	0	0	0	
14	0	0	0	0	560	499	0	0	0	0	
15	0	0	0	0	574	510	0	0	0	0	
0	0	0	0	0	587	520	0	0	0	0	
1	0	0	0	0	597	527	0	0	0	0	
2	0	0	0	0	603	531	0	0	0	0	
3	0	0	0	0	603	531	0	0	0	0	
4	0	0	0	0	599	528	0	0	0	0	
5	0	0	0	0	590	522	0	0	0	0	
6	0	0	0	0	579	514	0	0	0	0	
7	0	0	0	0	565	505	0	0	0	0	
8	0	0	0	0	550	495	0	0	0	0	
9	0	0	0	0	536	486	0	0	0	0	
10	0	0	0	0	524	479	0	0	0	0	
11	0	0	0	0	516	474	0	0	0	0	
12	0	0	0	0	511	472	0	0	0	0	
13	0	0	0	0	510	472	0	0	0	0	
14	0	0	0	0	512	474	0	0	0	0	
15	0	0	0	0	516	477	0	0	0	0	
0	0	0	0	0	522	481	0	0	0	0	
1	0	0	0	0	529	485	0	0	0	0	
2	0	0	0	0	534	487	0	0	0	0	
3	0	0	0	0	539	488	0	0	0	0	
4	0	0	0	0	542	488	0	0	0	0	
5	0	0	0	0	544	488	0	0	0	0	
6	0	0	0	0	544	486	0	0	0	0	
7	0	0	0	0	543	483	0	0	0	0	
8	0	0	0	0	539	480	0	0	0	0	
9	0	0	0	0	536	476	0	0	0	0	
10	0	0	0	0	534	474	0	0	0	0	
11	0	0	0	0	532	473	0	0	0	0	
12	0	0	0	0	531	473	0	0	0	0	
13	0	0	0	0	534	477	0	0	0	0	
14	0	0	0	0	540	483	0	0	0	0	
15	0	0	0	0	549	491	0	0	0	0	
0	0	0	0	0	558	499	0	0	0	0	
1	0	0	0	0	568	509	0	0	0	0	
2	0	0	0	0	578	518	0	0	0	0	
3	0	0	0	0	585	525	0	0	0	0	
4	0	0	0	0	591	531	0	0	0	0	
5	0	0	0	0	594	535	0	0	0	0	
6	0	0	0	0	595	536	0	0	0	0	
7	0	0	0	0	591	534	0	0	0	0	
8	0	0	0	0	585	530	0	0	0	0	
9	0	0	0	0	576	523	0	0	0	0	
10	0	0	0	0	564	514	0	0	0	0	
11	0	0	0	0	551	503	0	0	0	0	
12	0	0	0	0	537	491	0	0	0	0	
13	0	0	0	0	524	479	0	0	0	0	
14	0	0	0	0	512	469	0	0	0	0	
15	0	0	0	0	502	459	0	0	0	0	
0	0	0	0	0	496	452	0	0	0	0	
1	0	0	0	0	494	448	0	0	0	0	
2	0	0	0	0	495	448	0	0	0	0	
3	0	0	0	0	502	452	0	0	0	0	
4	0	0	0	0	512	459	0	0	0	0	
5	0	0	0	0	524	467	0	0	0	0	
6	0	0	0	0	537	476	0	0	0	0	
7	0	0	0	0	549	485	0	0	0	0	
8	0	0	0	0	559	492	0	0	0	0	
9	0	0	0	0	566	497	0	0	0	0	
10	0	0	0	0	568	499	0	0	0	0	
11	0	0	0	0	566	498	0	0	0	0	
12	0	0	0	0	559	494	0	0	0	0	
13	0	0	0	0	550	488	0	0	0	0	
14	0	0	0	0	539	481	0	0	0	0	
15	0	0	0	0	527	474	0	0	0	0	
0	0	0	0	0	516	468	0	0	0	0	
1	0	0	0	0	507	463	0	0	0	0	
2	0	0	0	0	502	461	0	0	0	0	
3	0	0	0	0	499	460	0	0	0	0	
4	0	0	0	0	499	460	0	0	0	0	
5	0	0	0	0	503	463	0	0	0	0	
6	0	0	0	0	508	466	0	0	0	0	
7	0	0	0	0	515	471	0	0	0	0	
8	0	0	0	0	522	475	0	0	0	0	
9	0	0	0	0	529	479	0	0	0	0	
10	0	0	0	0	536	482	0	0	0	0	
11	0	0	0	0	543	486	0	0	0	0	
12	0	0	0	0	550	490	0	0	0	0	
13	0	0	0	0	556	494	0	0	0	0	
14	0	0	0	0	561	499	0	0	0	0	
15	0	0	0	0	565	503	0	0	0	0	
0	0	0	0	0	568	506	0	0	0	0	
1	0	0	0	0	570	509	0	0	0	0	
2	0	0	0	0	569	510	0	0	0	0	
3	0	0	0	0	565	508	0	0	0	0	
4	0	0	0	0	559	504	0	0	0	0	
5	0	0	0	0	551	498	0	0	0	0	
6	0	0	0	0	543	492	0	0	0	0	
7	0	0	0	0	534	485	0	0	0	0	
8	0	0	0	0	526	479	0	0	0	0	
9	0	0	0	0	519	473	0	0	0	0	
10	0	0	0	0	515	468	0	0	0	0	
11	0	0	0	0	514	467	0	0	0	0	
12	0	0	0	0	516	468	0	0	0	0	
13	0	0	0	0	521	472	0	0	0	0	
14	0	0	0	0	529	478	0	0	0	0	
15	0	0	0	0	540	487	0	0	0	0	
0	0	0	0	0	553	498	0	0	0	0	
1	0	0	0	0	566	508	0	0	0	0	
2	0	0	0	0	579	519	0	0	0	0	
3	0	0	0	0	589	529	0	0	0	0	
4	0	0	0	0	597	535	0	0	0	0	
5	0	0	0	0	601	539	0	0	0	0	
6	0	0	0	0	601	539	0	0	0	0	
7	0	0	0	0	597	536	0	0	0	0	
8	0	0	0	0	590	529	0	0	0	0	
9	0	0	0	0	579	521	0	0	0	0	
10	0	0	0	0	567	512	0	0	0	0	
11	0	0	0	0	552	501	0	0	0	0	
12	0	0	0	0	539	490	0	0	0	0	
13	0	0	0	0	526	480	0	0	0	0	
14	0	0	0	0	515	472	0	0	0	0	
15	0	0	0	0	508	467	0	0	0	0	
0	0	0	0	0	505	465	0	0	0	0	
1	0	0	0	0	507	466	0	0	0	0	
2	0	0	0	0	511	470	0	0	0	0	
3	0	0	0	0	521	478	0	0	0	0	
4	0	0	0	0	535	488	0	0	0	0	
5	0	0	0	0	550	499	0	0	0	0	
6	0	0	0	0	565	511	0	0	0	0	
7	0	0	0	0	579	521	0	0	0	0	
8	0	0	0	0	591	529	0	0	0	0	
9	0	0	0	0	598	535	0	0	0	0	
10	0	0	0	0	600	536	0	0	0	0	
11	0	0	0	0	596	533	0	0	0	0	
12	0	0	0	0	588	526	0	0	0	0	
13	0	0	0	0	573	515	0	0	0	0	
14	0	0	0	0	556	502	0	0	0	0	
15	0	0	0	0	536	487	0	0	0	0	
0	0	0	0	0	517	472	0	0	0	0	
1	0	0	0	0	497	457	0	0	0	0	
2	0	0	0	0	480	444	0	0	0	0	
3	0	0	0	0	467	433	0	0	0	0	
4	0	0	0	0	457	425	0	0	0	0	
5	0	0	0	0	451	419	0	0	0	0	
6	0	0	0	0	449	416	0	0	0	0	
7	0	0	0	0	450	414	0	0	0	0	
8	0	0	0	0	454	415	0	0	0	0	
9	0	0	0	0	458	415	0	0	0	0	
10	0	0	0	0	463	416	0	0	0	0	
11	0	0	0	0	465	415	0	0	0	0	
12	0	0	0	0	466	413	0	0	0	0	
13	0	0	0	0	464	407	0	0	0	0	
14	0	0	0	0	457	399	0	0	0	0	
15	0	0	0	0	446	387	0	0	0	0	
0	0	0	0	0	430	371	0	0	0	0	
1	0	0	0	0	410	352	0	0	0	0	
2	0	0	0	0	387	331	0	0	0	0	
3	0	0	0	0	361	308	0	0	0	0	
4	0	0	0	0	335	285	0	0	0	0	
5	0	0	0	0	309	263	0	0	0	0	
6	0	0	0	0	287	245	0	0	0	0	
7	0	0	0	0	268	229	0	0	0	0	
8	0	0	0	0	255	219	0	0	0	0	
9	0	0	0	0	249	214	0	0	0	0	
10	0	0	0	0	251	214	0	0	0	0	
11	0	0	0	0	259	221	0	0	0	0	
12	0	0	0	0	273	232	0	0	0	0	
13	0	0	0	0	292	248	0	0	0	0	
14	0	0	0	0	316	267	0	0	0	0	
15	0	0	0	0	342	287	0	0	0	0	
0	0	0	0	0	371	310	0	0	0	0	
1	0	0	0	0	399	333	0	0	0	0	
2	0	0	0	0	427	357	0	0	0	0	
3	0	0	0	0	454	380	0	0	0	0	
4	0	0	0	0	478	401	0	0	0	0	
5	0	0	0	0	499	421	0	0	0	0	
6	0	0	0	0	518	439	0	0	0	0	
7	0	0	0	0	533	455	0	0	0	0	
8	0	0	0	0	547	469	0	0	0	0	
9	0	0	0	0	558	483	0	0	0	0	
10	0	0	0	0	568	495	0	0	0	0	
11	0	0	0	0	577	506	0	0	0	0	
12	0	0	0	0	585	517	0	0	0	0	
13	0	0	0	0	592	526	0	0	0	0	
14	0	0	0	0	598	535	0	0	0	0	
15	0	0	0	0	604	543	0	0	0	0	
0	0	0	0	0	610	551	0	0	0	0	
1	0	0	0	0	615	556	0	0	0	0	
2	0	0	0	0	617	561	0	0	0	0	
3	0	0	0	0	619	563	0	0	0	0	
4	0	0	0	0	619	563	0	0	0	0	
5	0	0	0	0	617	561	0	0	0	0	
6	0	0	0	0	614	558	0	0	0	0	
7	0	0	0	0	608	552	0	0	0	0	
8	0	0	0	0	601	545	0	0	0	0	
9	0	0	0	0	591	536	0	0	0	0	
10	0	0	0	0	580	526	0	0	0	0	
11	0	0	0	0	567	515	0	0	0	0	
12	0	0	0	0	553	503	0	0	0	0	
13	0	0	0	0	538	492	0	0	0	0	
14	0	0	0	0	526	481	0	0	0	0	
15	0	0	0	0	515	473	0	0	0	0	
0	0	0	0	0	508	468	0	0	0	0	
1	0	0	0	0	503	464	0	0	0	0	
2	0	0	0	0	500	463	0	0	0	0	
3	0	0	0	0	501	465	0	0	0	0	
4	0	0	0	0	505	467	0	0	0	0	
5	0	0	0	0	510	472	0	0	0	0	
6	0	0	0	0	516	476	0	0	0	0	
7	0	0	0	0	523	481	0	0	0	0	
8	0	0	0	0	531	487	0	0	0	0	
9	0	0	0	0	538	492	0	0	0	0	
10	0	0	0	0	544	496	0	0	0	0	
11	0	0	0	0	551	500	0	0	0	0	
12	0	0	0	0	556	504	0	0	0	0	
13	0	0	0	0	559	506	0	0	0	0	
14	0	0	0	0	563	508	0	0	0	0	
15	0	0	0	0	565	510	0	0	0	0	
0	0	0	0	0	567	511	0	0	0	0	
1	0	0	0	0	568	512	0	0	0	0	
2	0	0	0	0	569	513	0	0	0	0	
3	0	0	0	0	571	515	0	0	0	0	
4	0	0	0	0	572	516	0	0	0	0	
5	0	0	0	0	574	518	0	0	0	0	
6	0	0	0	0	576	521	0	0	0	0	
7	0	0	0	0	580	526	0	0	0	0	
8	0	0	0	0	585	531	0	0	0	0	
9	0	0	0	0	591	536	0	0	0	0	
10	0	0	0	0	597	542	0	0	0	0	
11	0	0	0	0	603	548	0	0	0	0	
12	0	0	0	0	608	553	0	0	0	0	
13	0	0	0	0	615	558	0	0	0	0	
14	0	0	0	0	620	561	0	0	0	0	
15	0	0	0	0	624	564	0	0	0	0	
0	0	0	0	0	626	565	0	0	0	0	
1	0	0	0	0	626	564	0	0	0	0	
2	0	0	0	0	623	560	0	0	0	0	
3	0	0	0	0	616	553	0	0	0	0	
4	0	0	0	0	606	544	0	0	0	0	
5	0	0	0	0	592	532	0	0	0	0	
6	0	0	0	0	576	519	0	0	0	0	
7	0	0	0	0	559	506	0	0	0	0	
8	0	0	0	0	541	492	0	0	0	0	
9	0	0	0	0	524	479	0	0	0	0	
10	0	0	0	0	510	469	0	0	0	0	
11	0	0	0	0	499	460	0	0	0	0	
12	0	0	0	0	492	456	0	0	0	0	
13	0	0	0	0	490	454	0	0	0	0	
14	0	0	0	0	492	455	0	0	0	0	
15	0	0	0	0	497	460	0	0	0	0	
0	0	0	0	0	507	467	0	0	0	0	
1	0	0	0	0	519	476	0	0	0	0	
2	0	0	0	0	532	486	0	0	0	0	
3	0	0	0	0	547	496	0	0	0	0	
4	0	0	0	0	562	506	0	0	0	0	
5	0	0	0	0	576	516	0	0	0	0	
6	0	0	0	0	591	526	0	0	0	0	
7	0	0	0	0	602	533	0	0	0	0	
8	0	0	0	0	611	539	0	0	0	0	
9	0	0	0	0	618	544	0	0	0	0	
10	0	0	0	0	623	547	0	0	0	0	
11	0	0	0	0	625	550	0	0	0	0	
12	0	0	0	0	624	550	0	0	0	0	
13	0	0	0	0	621	548	0	0	0	0	
14	0	0	0	0	614	544	0	0	0	0	
15	0	0	0	0	603	538	0	0	0	0	
0	0	0	0	0	589	529	0	0	0	0	
1	0	0	0	0	574	519	0	0	0	0	
2	0	0	0	0	556	508	0	0	0	0	
3	0	0	0	0	540	497	0	0	0	0	
4	0	0	0	0	524	487	0	0	0	0	
5	0	0	0	0	511	478	0	0	0	0	
6	0	0	0	0	500	471	0	0	0	0	
7	0	0	0	0	494	465	0	0	0	0	
8	0	0	0	0	491	461	0	0	0	0	
9	0	0	0	0	492	460	0	0	0	0	
10	0	0	0	0	496	461	0	0	0	0	
11	0	0	0	0	504	463	0	0	0	0	
12	0	0	0	0	512	467	0	0	0	0	
13	0	0	0	0	523	472	0	0	0	0	
14	0	0	0	0	532	476	0	0	0	0	
15	0	0	0	0	543	482	0	0	0	0	
0	0	0	0	0	551	487	0	0	0	0	
1	0	0	0	0	559	492	0	0	0	0	
2	0	0	0	0	564	496	0	0	0	0	
3	0	0	0	0	567	500	0	0	0	0	
4	0	0	0	0	570	505	0	0	0	0	
5	0	0	0	0	571	509	0	0	0	0	
6	0	0	0	0	572	512	0	0	0	0	
7	0	0	0	0	571	515	0	0	0	0	
8	0	0	0	0	568	516	0	0	0	0	
9	0	0	0	0	564	515	0	0	0	0	
10	0	0	0	0	560	512	0	0	0	0	
11	0	0	0	0	555	509	0	0	0	0	
12	0	0	0	0	550	505	0	0	0	0	
13	0	0	0	0	545	501	0	0	0	0	
14	0	0	0	0	543	498	0	0	0	0	
15	0	0	0	0	542	496	0	0	0	0	
0	0	0	0	0	542	493	0	0	0	0	
1	0	0	0	0	543	492	0	0	0	0	
2	0	0	0	0	545	491	0	0	0	0	
3	0	0	0	0	547	490	0	0	0	0	
4	0	0	0	0	550	490	0	0	0	0	
5	0	0	0	0	551	489	0	0	0	0	
6	0	0	0	0	550	489	0	0	0	0	
7	0	0	0	0	548	488	0	0	0	0	
8	0	0	0	0	546	487	0	0	0	0	
9	0	0	0	0	543	486	0	0	0	0	
10	0	0	0	0	539	484	0	0	0	0	
11	0	0	0	0	536	483	0	0	0	0	
12	0	0	0	0	531	481	0	0	0	0	
13	0	0	0	0	529	480	0	0	0	0	
14	0	0	0	0	526	479	0	0	0	0	
15	0	0	0	0	524	477	0	0	0	0	
0	0	0	0	0	522	475	0	0	0	0	
1	0	0	0	0	521	473	0	0	0	0	
2	0	0	0	0	521	472	0	0	0	0	
3	0	0	0	0	521	472	0	0	0	0	
4	0	0	0	0	523	472	0	0	0	0	
5	0	0	0	0	526	473	0	0	0	0	
6	0	0	0	0	529	475	0	0	0	0	
7	0	0	0	0	534	478	0	0	0	0	
8	0	0	0	0	540	481	0	0	0	0	
9	0	0	0	0	545	486	0	0	0	0	
10	0	0	0	0	551	490	0	0	0	0	
11	0	0	0	0	557	494	0	0	0	0	
12	0	0	0	0	563	499	0	0	0	0	
13	0	0	0	0	568	502	0	0	0	0	
14	0	0	0	0	572	506	0	0	0	0	
15	0	0	0	0	575	510	0	0	0	0	
0	0	0	0	0	576	512	0	0	0	0	
1	0	0	0	0	578	515	0	0	0	0	
2	0	0	0	0	578	516	0	0	0	0	
3	0	0	0	0	577	517	0	0	0	0	
4	0	0	0	0	575	517	0	0	0	0	
5	0	0	0	0	572	515	0	0	0	0	
6	0	0	0	0	568	512	0	0	0	0	
7	0	0	0	0	561	508	0	0	0	0	
8	0	0	0	0	554	502	0	0	0	0	
9	0	0	0	0	545	494	0	0	0	0	
10	0	0	0	0	535	486	0	0	0	0	
11	0	0	0	0	526	478	0	0	0	0	
12	0	0	0	0	517	470	0	0	0	0	
13	0	0	0	0	508	463	0	0	0	0	
14	0	0	0	0	502	457	0	0	0	0	
15	0	0	0	0	496	452	0	0	0	0	
0	0	0	0	0	495	451	0	0	0	0	
1	0	0	0	0	495	450	0	0	0	0	
2	0	0	0	0	497	452	0	0	0	0	
3	0	0	0	0	502	455	0	0	0	0	
4	0	0	0	0	506	459	0	0	0	0	
5	0	0	0	0	513	464	0	0	0	0	
6	0	0	0	0	520	469	0	0	0	0	
7	0	0	0	0	527	473	0	0	0	0	
8	0	0	0	0	532	478	0	0	0	0	
9	0	0	0	0	537	481	0	0	0	0	
10	0	0	0	0	543	485	0	0	0	0	
11	0	0	0	0	547	488	0	0	0	0	
12	0	0	0	0	551	491	0	0	0	0	
13	0	0	0	0	555	494	0	0	0	0	
14	0	0	0	0	558	496	0	0	0	0	
15	0	0	0	0	561	500	0	0	0	0	
0	0	0	0	0	563	503	0	0	0	0	
1	0	0	0	0	566	506	0	0	0	0	
2	0	0	0	0	568	509	0	0	0	0	
3	0	0	0	0	571	513	0	0	0	0	
4	0	0	0	0	575	519	0	0	0	0	
5	0	0	0	0	580	524	0	0	0	0	
6	0	0	0	0	584	530	0	0	0	0	
7	0	0	0	0	589	535	0	0	0	0	
8	0	0	0	0	592	539	0	0	0	0	
9	0	0	0	0	594	541	0	0	0	0	
10	0	0	0	0	592	540	0	0	0	0	
11	0	0	0	0	588	535	0	0	0	0	
12	0	0	0	0	580	527	0	0	0	0	
13	0	0	0	0	569	518	0	0	0	0	
14	0	0	0	0	559	507	0	0	0	0	
15	0	0	0	0	546	496	0	0	0	0	
0	0	0	0	0	534	485	0	0	0	0	
1	0	0	0	0	524	476	0	0	0	0	
2	0	0	0	0	515	468	0	0	0	0	
3	0	0	0	0	509	463	0	0	0	0	
4	0	0	0	0	507	460	0	0	0	0	
5	0	0	0	0	507	460	0	0	0	0	
6	0	0	0	0	509	463	0	0	0	0	
7	0	0	0	0	514	467	0	0	0	0	
8	0	0	0	0	521	474	0	0	0	0	
9	0	0	0	0	529	481	0	0	0	0	
10	0	0	0	0	538	489	0	0	0	0	
11	0	0	0	0	547	497	0	0	0	0	
12	0	0	0	0	556	505	0	0	0	0	
13	0	0	0	0	565	513	0	0	0	0	
14	0	0	0	0	572	519	0	0	0	0	
15	0	0	0	0	578	523	0	0	0	0	
0	0	0	0	0	581	525	0	0	0	0	
1	0	0	0	0	582	524	0	0	0	0	
2	0	0	0	0	579	521	0	0	0	0	
3	0	0	0	0	574	515	0	0	0	0	
4	0	0	0	0	566	508	0	0	0	0	
5	0	0	0	0	557	501	0	0	0	0	
6	0	0	0	0	547	494	0	0	0	0	
7	0	0	0	0	540	488	0	0	0	0	
8	0	0	0	0	533	484	0	0	0	0	
9	0	0	0	0	531	483	0	0	0	0	
10	0	0	0	0	531	485	0	0	0	0	
11	0	0	0	0	536	489	0	0	0	0	
12	0	0	0	0	543	496	0	0	0	0	
13	0	0	0	0	552	504	0	0	0	0	
14	0	0	0	0	560	511	0	0	0	0	
15	0	0	0	0	567	515	0	0	0	0	
0	0	0	0	0	570	516	0	0	0	0	
1	0	0	0	0	569	514	0	0	0	0	
2	0	0	0	0	564	508	0	0	0	0	
3	0	0	0	0	556	499	0	0	0	0	
4	0	0	0	0	544	487	0	0	0	0	
5	0	0	0	0	531	475	0	0	0	0	
6	0	0	0	0	517	463	0	0	0	0	
7	0	0	0	0	505	451	0	0	0	0	
8	0	0	0	0	494	442	0	0	0	0	
9	0	0	0	0	486	435	0	0	0	0	
10	0	0	0	0	481	431	0	0	0	0	
11	0	0	0	0	481	432	0	0	0	0	
12	0	0	0	0	485	435	0	0	0	0	
13	0	0	0	0	492	442	0	0	0	0	
14	0	0	0	0	501	450	0	0	0	0	
15	0	0	0	0	511	459	0	0	0	0	
0	0	0	0	0	521	468	0	0	0	0	
1	0	0	0	0	531	476	0	0	0	0	
2	0	0	0	0	540	484	0	0	0	0	
3	0	0	0	0	545	489	0	0	0	0	
4	0	0	0	0	550	493	0	0	0	0	
5	0	0	0	0	553	496	0	0	0	0	
6	0	0	0	0	553	497	0	0	0	0	
7	0	0	0	0	553	497	0	0	0	0	
8	0	0	0	0	551	496	0	0	0	0	
9	0	0	0	0	548	494	0	0	0	0	
10	0	0	0	0	545	491	0	0	0	0	
11	0	0	0	0	541	488	0	0	0	0	
12	0	0	0	0	536	484	0	0	0	0	
13	0	0	0	0	532	481	0	0	0	0	
14	0	0	0	0	528	478	0	0	0	0	
15	0	0	0	0	526	476	0	0	0	0	
0	0	0	0	0	525	476	0	0	0	0	
1	0	0	0	0	525	476	0	0	0	0	
2	0	0	0	0	526	477	0	0	0	0	
3	0	0	0	0	529	480	0	0	0	0	
4	0	0	0	0	533	483	0	0	0	0	
5	0	0	0	0	537	487	0	0	0	0	
6	0	0	0	0	541	491	0	0	0	0	
7	0	0	0	0	545	494	0	0	0	0	
8	0	0	0	0	549	497	0	0	0	0	
9	0	0	0	0	552	499	0	0	0	0	
10	0	0	0	0	556	502	0	0	0	0	
11	0	0	0	0	558	504	0	0	0	0	
12	0	0	0	0	562	505	0	0	0	0	
13	0	0	0	0	565	508	0	0	0	0	
14	0	0	0	0	569	510	0	0	0	0	
15	0	0	0	0	573	513	0	0	0	0	
0	0	0	0	0	578	516	0	0	0	0	
1	0	0	0	0	582	520	0	0	0	0	
2	0	0	0	0	586	523	0	0	0	0	
3	0	0	0	0	591	527	0	0	0	0	
4	0	0	0	0	594	530	0	0	0	0	
5	0	0	0	0	596	533	0	0	0	0	
6	0	0	0	0	598	535	0	0	0	0	
7	0	0	0	0	599	538	0	0	0	0	
8	0	0	0	0	599	539	0	0	0	0	
9	0	0	0	0	595	537	0	0	0	0	
10	0	0	0	0	590	534	0	0	0	0	
11	0	0	0	0	583	529	0	0	0	0	
12	0	0	0	0	574	524	0	0	0	0	
13	0	0	0	0	565	518	0	0	0	0	
14	0	0	0	0	556	511	0	0	0	0	
15	0	0	0	0	548	505	0	0	0	0	
0	0	0	0	0	542	500	0	0	0	0	
1	0	0	0	0	536	496	0	0	0	0	
2	0	0	0	0	534	493	0	0	0	0	
3	0	0	0	0	534	492	0	0	0	0	
4	0	0	0	0	536	493	0	0	0	0	
5	0	0	0	0	542	496	0	0	0	0	
6	0	0	0	0	549	501	0	0	0	0	
7	0	0	0	0	559	507	0	0	0	0	
8	0	0	0	0	568	513	0	0	0	0	
9	0	0	0	0	579	521	0	0	0	0	
10	0	0	0	0	589	527	0	0	0	0	
11	0	0	0	0	596	532	0	0	0	0	
12	0	0	0	0	601	536	0	0	0	0	
13	0	0	0	0	603	537	0	0	0	0	
14	0	0	0	0	600	535	0	0	0	0	
15	0	0	0	0	595	532	0	0	0	0	
0	0	0	0	0	588	527	0	0	0	0	
1	0	0	0	0	579	521	0	0	0	0	
2	0	0	0	0	568	514	0	0	0	0	
3	0	0	0	0	557	506	0	0	0	0	
4	0	0	0	0	545	496	0	0	0	0	
5	0	0	0	0	533	487	0	0	0	0	
6	0	0	0	0	521	478	0	0	0	0	
7	0	0	0	0	512	469	0	0	0	0	
8	0	0	0	0	504	462	0	0	0	0	
9	0	0	0	0	499	456	0	0	0	0	
10	0	0	0	0	495	451	0	0	0	0	
11	0	0	0	0	494	449	0	0	0	0	
12	0	0	0	0	495	448	0	0	0	0	
13	0	0	0	0	498	449	0	0	0	0	
14	0	0	0	0	502	451	0	0	0	0	
15	0	0	0	0	508	454	0	0	0	0	
0	0	0	0	0	514	458	0	0	0	0	
1	0	0	0	0	521	464	0	0	0	0	
2	0	0	0	0	529	470	0	0	0	0	
3	0	0	0	0	537	476	0	0	0	0	
4	0	0	0	0	543	482	0	0	0	0	
5	0	0	0	0	551	488	0	0	0	0	
6	0	0	0	0	557	493	0	0	0	0	
7	0	0	0	0	563	498	0	0	0	0	
8	0	0	0	0	567	503	0	0	0	0	
9	0	0	0	0	572	507	0	0	0	0	
10	0	0	0	0	575	511	0	0	0	0	
11	0	0	0	0	577	513	0	0	0	0	
12	0	0	0	0	579	515	0	0	0	0	
13	0	0	0	0	577	515	0	0	0	0	
14	0	0	0	0	575	514	0	0	0	0	
15	0	0	0	0	572	513	0	0	0	0	
0	0	0	0	0	567	511	0	0	0	0	
1	0	0	0	0	563	510	0	0	0	0	
2	0	0	0	0	559	509	0	0	0	0	
3	0	0	0	0	558	510	0	0	0	0	
4	0	0	0	0	559	512	0	0	0	0	
5	0	0	0	0	561	516	0	0	0	0	
6	0	0	0	0	567	521	0	0	0	0	
7	0	0	0	0	573	526	0	0	0	0	
8	0	0	0	0	581	532	0	0	0	0	
9	0	0	0	0	588	537	0	0	0	0	
10	0	0	0	0	594	541	0	0	0	0	
11	0	0	0	0	598	543	0	0	0	0	
12	0	0	0	0	599	542	0	0	0	0	
13	0	0	0	0	598	541	0	0	0	0	
14	0	0	0	0	595	538	0	0	0	0	
15	0	0	0	0	591	535	0	0	0	0	
0	0	0	0	0	586	532	0	0	0	0	
1	0	0	0	0	580	528	0	0	0	0	
2	0	0	0	0	574	526	0	0	0	0	
3	0	0	0	0	569	522	0	0	0	0	
4	0	0	0	0	563	519	0	0	0	0	
5	0	0	0	0	558	516	0	0	0	0	
6	0	0	0	0	554	514	0	0	0	0	
7	0	0	0	0	552	513	0	0	0	0	
8	0	0	0	0	551	512	0	0	0	0	
9	0	0	0	0	552	512	0	0	0	0	
10	0	0	0	0	554	512	0	0	0	0	
11	0	0	0	0	555	511	0	0	0	0	
12	0	0	0	0	557	511	0	0	0	0	
13	0	0	0	0	558	509	0	0	0	0	
14	0	0	0	0	558	507	0	0	0	0	
15	0	0	0	0	558	505	0	0	0	0	
0	0	0	0	0	556	502	0	0	0	0	
1	0	0	0	0	555	499	0	0	0	0	
2	0	0	0	0	553	496	0	0	0	0	
3	0	0	0	0	551	493	0	0	0	0	
4	0	0	0	0	550	492	0	0	0	0	
5	0	0	0	0	550	492	0	0	0	0	
6	0	0	0	0	551	493	0	0	0	0	
7	0	0	0	0	555	496	0	0	0	0	
8	0	0	0	0	560	502	0	0	0	0	
9	0	0	0	0	567	508	0	0	0	0	
10	0	0	0	0	575	516	0	0	0	0	
11	0	0	0	0	584	525	0	0	0	0	
12	0	0	0	0	595	534	0	0	0	0	
13	0	0	0	0	605	543	0	0	0	0	
14	0	0	0	0	613	550	0	0	0	0	
15	0	0	0	0	620	555	0	0	0	0	
0	0	0	0	0	623	558	0	0	0	0	
1	0	0	0	0	623	558	0	0	0	0	
2	0	0	0	0	620	555	0	0	0	0	
3	0	0	0	0	614	550	0	0	0	0	
4	0	0	0	0	605	543	0	0	0	0	
5	0	0	0	0	594	534	0	0	0	0	
6	0	0	0	0	581	524	0	0	0	0	
7	0	0	0	0	567	513	0	0	0	0	
8	0	0	0	0	552	502	0	0	0	0	
9	0	0	0	0	539	492	0	0	0	0	
10	0	0	0	0	526	483	0	0	0	0	
11	0	0	0	0	518	477	0	0	0	0	
12	0	0	0	0	511	473	0	0	0	0	
13	0	0	0	0	508	472	0	0	0	0	
14	0	0	0	0	509	473	0	0	0	0	
15	0	0	0	0	511	475	0	0	0	0	
0	0	0	0	0	517	479	0	0	0	0	
1	0	0	0	0	524	483	0	0	0	0	
2	0	0	0	0	531	489	0	0	0	0	
3	0	0	0	0	539	494	0	0	0	0	
4	0	0	0	0	547	499	0	0	0	0	
5	0	0	0	0	556	504	0	0	0	0	
6	0	0	0	0	562	508	0	0	0	0	
7	0	0	0	0	567	511	0	0	0	0	
8	0	0	0	0	571	512	0	0	0	0	
9	0	0	0	0	572	513	0	0	0	0	
10	0	0	0	0	573	513	0	0	0	0	
11	0	0	0	0	572	512	0	0	0	0	
12	0	0	0	0	571	511	0	0	0	0	
13	0	0	0	0	569	510	0	0	0	0	
14	0	0	0	0	568	508	0	0	0	0	
15	0	0	0	0	568	509	0	0	0	0	
0	0	0	0	0	568	510	0	0	0	0	
1	0	0	0	0	570	513	0	0	0	0	
2	0	0	0	0	573	516	0	0	0	0	
3	0	0	0	0	577	521	0	0	0	0	
4	0	0	0	0	582	527	0	0	0	0	
5	0	0	0	0	587	532	0	0	0	0	
6	0	0	0	0	593	537	0	0	0	0	
7	0	0	0	0	598	543	0	0	0	0	
8	0	0	0	0	603	548	0	0	0	0	
9	0	0	0	0	608	552	0	0	0	0	
10	0	0	0	0	611	555	0	0	0	0	
11	0	0	0	0	611	556	0	0	0	0	
12	0	0	0	0	609	554	0	0	0	0	
13	0	0	0	0	605	551	0	0	0	0	
14	0	0	0	0	600	545	0	0	0	0	
15	0	0	0	0	592	540	0	0	0	0	
0	0	0	0	0	584	533	0	0	0	0	
1	0	0	0	0	576	526	0	0	0	0	
2	0	0	0	0	568	520	0	0	0	0	
3	0	0	0	0	561	515	0	0	0	0	
4	0	0	0	0	556	510	0	0	0	0	
5	0	0	0	0	551	507	0	0	0	0	
6	0	0	0	0	550	505	0	0	0	0	
7	0	0	0	0	551	507	0	0	0	0	
8	0	0	0	0	554	510	0	0	0	0	
9	0	0	0	0	561	515	0	0	0	0	
10	0	0	0	0	570	523	0	0	0	0	
11	0	0	0	0	580	532	0	0	0	0	
12	0	0	0	0	592	542	0	0	0	0	
13	0	0	0	0	604	552	0	0	0	0	
14	0	0	0	0	615	560	0	0	0	0	
15	0	0	0	0	623	566	0	0	0	0	
0	0	0	0	0	626	568	0	0	0	0	
1	0	0	0	0	626	567	0	0	0	0	
2	0	0	0	0	622	563	0	0	0	0	
3	0	0	0	0	614	555	0	0	0	0	
4	0	0	0	0	603	545	0	0	0	0	
5	0	0	0	0	590	534	0	0	0	0	
6	0	0	0	0	576	522	0	0	0	0	
7	0	0	0	0	562	511	0	0	0	0	
8	0	0	0	0	548	500	0	0	0	0	
9	0	0	0	0	536	489	0	0	0	0	
10	0	0	0	0	524	480	0	0	0	0	
11	0	0	0	0	515	473	0	0	0	0	
12	0	0	0	0	509	468	0	0	0	0	
13	0	0	0	0	507	466	0	0	0	0	
14	0	0	0	0	508	467	0	0	0	0	
15	0	0	0	0	513	471	0	0	0	0	
0	0	0	0	0	522	477	0	0	0	0	
1	0	0	0	0	534	485	0	0	0	0	
2	0	0	0	0	547	495	0	0	0	0	
3	0	0	0	0	561	505	0	0	0	0	
4	0	0	0	0	575	516	0	0	0	0	
5	0	0	0	0	588	526	0	0	0	0	
6	0	0	0	0	600	535	0	0	0	0	
7	0	0	0	0	607	540	0	0	0	0	
8	0	0	0	0	611	543	0	0	0	0	
9	0	0	0	0	612	543	0	0	0	0	
10	0	0	0	0	608	540	0	0	0	0	
11	0	0	0	0	603	536	0	0	0	0	
12	0	0	0	0	596	532	0	0	0	0	
13	0	0	0	0	590	528	0	0	0	0	
14	0	0	0	0	584	526	0	0	0	0	
15	0	0	0	0	580	526	0	0	0	0	
0	0	0	0	0	579	528	0	0	0	0	
1	0	0	0	0	581	531	0	0	0	0	
2	0	0	0	0	585	537	0	0	0	0	
3	0	0	0	0	591	543	0	0	0	0	
4	0	0	0	0	598	549	0	0	0	0	
5	0	0	0	0	604	553	0	0	0	0	
6	0	0	0	0	606	555	0	0	0	0	
7	0	0	0	0	606	552	0	0	0	0	
8	0	0	0	0	601	546	0	0	0	0	
9	0	0	0	0	593	538	0	0	0	0	
10	0	0	0	0	583	528	0	0	0	0	
11	0	0	0	0	571	516	0	0	0	0	
12	0	0	0	0	558	505	0	0	0	0	
13	0	0	0	0	546	495	0	0	0	0	
14	0	0	0	0	536	487	0	0	0	0	
15	0	0	0	0	529	483	0	0	0	0	
0	0	0	0	0	526	481	0	0	0	0	
1	0	0	0	0	528	484	0	0	0	0	
2	0	0	0	0	534	490	0	0	0	0	
3	0	0	0	0	543	498	0	0	0	0	
4	0	0	0	0	555	508	0	0	0	0	
5	0	0	0	0	569	520	0	0	0	0	
6	0	0	0	0	583	531	0	0	0	0	
7	0	0	0	0	595	540	0	0	0	0	
8	0	0	0	0	605	548	0	0	0	0	
9	0	0	0	0	612	553	0	0	0	0	
10	0	0	0	0	617	555	0	0	0	0	
11	0	0	0	0	618	555	0	0	0	0	
12	0	0	0	0	618	553	0	0	0	0	
13	0	0	0	0	614	550	0	0	0	0	
14	0	0	0	0	610	546	0	0	0	0	
15	0	0	0	0	605	542	0	0	0	0	
0	0	0	0	0	598	536	0	0	0	0	
1	0	0	0	0	590	529	0	0	0	0	
2	0	0	0	0	582	523	0	0	0	0	
3	0	0	0	0	574	517	0	0	0	0	
4	0	0	0	0	567	512	0	0	0	0	
5	0	0	0	0	561	508	0	0	0	0	
6	0	0	0	0	556	505	0	0	0	0	
7	0	0	0	0	554	505	0	0	0	0	
8	0	0	0	0	554	506	0	0	0	0	
9	0	0	0	0	555	508	0	0	0	0	
10	0	0	0	0	558	511	0	0	0	0	
11	0	0	0	0	562	515	0	0	0	0	
12	0	0	0	0	566	518	0	0	0	0	
13	0	0	0	0	572	522	0	0	0	0	
14	0	0	0	0	575	525	0	0	0	0	
15	0	0	0	0	579	528	0	0	0	0	
0	0	0	0	0	581	528	0	0	0	0	
1	0	0	0	0	582	529	0	0	0	0	
2	0	0	0	0	582	528	0	0	0	0	
3	0	0	0	0	579	525	0	0	0	0	
4	0	0	0	0	575	520	0	0	0	0	
5	0	0	0	0	568	515	0	0	0	0	
6	0	0	0	0	561	508	0	0	0	0	
7	0	0	0	0	551	499	0	0	0	0	
8	0	0	0	0	542	490	0	0	0	0	
9	0	0	0	0	532	481	0	0	0	0	
10	0	0	0	0	523	473	0	0	0	0	
11	0	0	0	0	512	464	0	0	0	0	
12	0	0	0	0	504	456	0	0	0	0	
13	0	0	0	0	495	448	0	0	0	0	
14	0	0	0	0	486	440	0	0	0	0	
15	0	0	0	0	477	431	0	0	0	0	
0	0	0	0	0	467	420	0	0	0	0	
1	0	0	0	0	457	409	0	0	0	0	
2	0	0	0	0	445	396	0	0	0	0	
3	0	0	0	0	431	382	0	0	0	0	
4	0	0	0	0	415	366	0	0	0	0	
5	0	0	0	0	399	350	0	0	0	0	
6	0	0	0	0	382	333	0	0	0	0	
7	0	0	0	0	363	316	0	0	0	0	
8	0	0	0	0	346	300	0	0	0	0	
9	0	0	0	0	330	285	0	0	0	0	
10	0	0	0	0	316	272	0	0	0	0	
11	0	0	0	0	305	263	0	0	0	0	
12	0	0	0	0	299	256	0	0	0	0	
13	0	0	0	0	296	254	0	0	0	0	
14	0	0	0	0	299	256	0	0	0	0	
15	0	0	0	0	307	262	0	0	0	0	
0	0	0	0	0	320	273	0	0	0	0	
1	0	0	0	0	339	289	0	0	0	0	
2	0	0	0	0	363	308	0	0	0	0	
3	0	0	0	0	391	332	0	0	0	0	
4	0	0	0	0	424	359	0	0	0	0	
5	0	0	0	0	460	389	0	0	0	0	
6	0	0	0	0	497	420	0	0	0	0	
7	0	0	0	0	535	454	0	0	0	0	
8	0	0	0	0	573	487	0	0	0	0	
9	0	0	0	0	609	519	0	0	0	0	
10	0	0	0	0	643	551	0	0	0	0	
11	0	0	0	0	673	579	0	0	0	0	
12	0	0	0	0	697	603	0	0	0	0	
13	0	0	0	0	715	622	0	0	0	0	
14	0	0	0	0	725	635	0	0	0	0	
15	0	0	0	0	729	643	0	0	0	0	
0	0	0	0	0	724	643	0	0	0	0	
1	0	0	0	0	713	638	0	0	0	0	
2	0	0	0	0	695	627	0	0	0	0	
3	0	0	0	0	671	612	0	0	0	0	
4	0	0	0	0	645	593	0	0	0	0	
5	0	0	0	0	616	573	0	0	0	0	
6	0	0	0	0	588	551	0	0	0	0	
7	0	0	0	0	562	530	0	0	0	0	
8	0	0	0	0	538	511	0	0	0	0	
9	0	0	0	0	520	496	0	0	0	0	
10	0	0	0	0	509	484	0	0	0	0	
11	0	0	0	0	503	477	0	0	0	0	
12	0	0	0	0	504	474	0	0	0	0	
13	0	0	0	0	511	477	0	0	0	0	
14	0	0	0	0	523	483	0	0	0	0	
15	0	0	0	0	540	493	0	0	0	0	
0	0	0	0	0	558	504	0	0	0	0	
1	0	0	0	0	577	516	0	0	0	0	
2	0	0	0	0	593	528	0	0	0	0	
3	0	0	0	0	607	537	0	0	0	0	
4	0	0	0	0	616	543	0	0	0	0	
5	0	0	0	0	620	547	0	0	0	0	
6	0	0	0	0	620	547	0	0	0	0	
7	0	0	0	0	615	545	0	0	0	0	
8	0	0	0	0	607	541	0	0	0	0	
9	0	0	0	0	597	536	0	0	0	0	
10	0	0	0	0	586	530	0	0	0	0	
11	0	0	0	0	575	525	0	0	0	0	
12	0	0	0	0	564	519	0	0	0	0	
13	0	0	0	0	557	515	0	0	0	0	
14	0	0	0	0	551	513	0	0	0	0	
15	0	0	0	0	549	512	0	0	0	0	
0	0	0	0	0	551	513	0	0	0	0	
1	0	0	0	0	558	517	0	0	0	0	
2	0	0	0	0	568	524	0	0	0	0	
3	0	0	0	0	581	532	0	0	0	0	
4	0	0	0	0	596	542	0	0	0	0	
5	0	0	0	0	610	551	0	0	0	0	
6	0	0	0	0	624	559	0	0	0	0	
7	0	0	0	0	635	566	0	0	0	0	
8	0	0	0	0	643	572	0	0	0	0	
9	0	0	0	0	649	575	0	0	0	0	
10	0	0	0	0	651	577	0	0	0	0	
11	0	0	0	0	652	579	0	0	0	0	
12	0	0	0	0	652	582	0	0	0	0	
13	0	0	0	0	650	583	0	0	0	0	
14	0	0	0	0	648	584	0	0	0	0	
15	0	0	0	0	647	586	0	0	0	0	
0	0	0	0	0	647	589	0	0	0	0	
1	0	0	0	0	647	592	0	0	0	0	
2	0	0	0	0	648	594	0	0	0	0	
3	0	0	0	0	648	595	0	0	0	0	
4	0	0	0	0	647	594	0	0	0	0	
5	0	0	0	0	644	591	0	0	0	0	
6	0	0	0	0	639	587	0	0	0	0	
7	0	0	0	0	632	579	0	0	0	0	
8	0	0	0	0	624	571	0	0	0	0	
9	0	0	0	0	615	562	0	0	0	0	
10	0	0	0	0	606	554	0	0	0	0	
11	0	0	0	0	600	548	0	0	0	0	
12	0	0	0	0	595	543	0	0	0	0	
13	0	0	0	0	591	541	0	0	0	0	
14	0	0	0	0	591	540	0	0	0	0	
15	0	0	0	0	593	542	0	0	0	0	
0	0	0	0	0	595	544	0	0	0	0	
1	0	0	0	0	600	548	0	0	0	0	
2	0	0	0	0	605	553	0	0	0	0	
3	0	0	0	0	611	558	0	0	0	0	
4	0	0	0	0	616	563	0	0	0	0	
5	0	0	0	0	622	567	0	0	0	0	
6	0	0	0	0	624	569	0	0	0	0	
7	0	0	0	0	623	568	0	0	0	0	
8	0	0	0	0	618	563	0	0	0	0	
9	0	0	0	0	610	555	0	0	0	0	
10	0	0	0	0	599	545	0	0	0	0	
11	0	0	0	0	586	534	0	0	0	0	
12	0	0	0	0	573	523	0	0	0	0	
13	0	0	0	0	561	513	0	0	0	0	
14	0	0	0	0	551	505	0	0	0	0	
15	0	0	0	0	547	501	0	0	0	0	
0	0	0	0	0	546	500	0	0	0	0	
1	0	0	0	0	549	503	0	0	0	0	
2	0	0	0	0	556	508	0	0	0	0	
3	0	0	0	0	566	515	0	0	0	0	
4	0	0	0	0	577	524	0	0	0	0	
5	0	0	0	0	588	532	0	0	0	0	
6	0	0	0	0	599	539	0	0	0	0	
7	0	0	0	0	607	545	0	0	0	0	
8	0	0	0	0	612	550	0	0	0	0	
9	0	0	0	0	615	551	0	0	0	0	
10	0	0	0	0	615	550	0	0	0	0	
11	0	0	0	0	611	547	0	0	0	0	
12	0	0	0	0	605	543	0	0	0	0	
13	0	0	0	0	598	537	0	0	0	0	
14	0	0	0	0	590	531	0	0	0	0	
15	0	0	0	0	583	526	0	0	0	0	
0	0	0	0	0	577	523	0	0	0	0	
1	0	0	0	0	575	521	0	0	0	0	
2	0	0	0	0	575	523	0	0	0	0	
3	0	0	0	0	579	526	0	0	0	0	
4	0	0	0	0	587	532	0	0	0	0	
5	0	0	0	0	595	540	0	0	0	0	
6	0	0	0	0	605	548	0	0	0	0	
7	0	0	0	0	615	557	0	0	0	0	
8	0	0	0	0	625	565	0	0	0	0	
9	0	0	0	0	632	570	0	0	0	0	
10	0	0	0	0	636	573	0	0	0	0	
11	0	0	0	0	636	572	0	0	0	0	
12	0	0	0	0	632	568	0	0	0	0	
13	0	0	0	0	624	563	0	0	0	0	
14	0	0	0	0	614	555	0	0	0	0	
15	0	0	0	0	602	545	0	0	0	0	
0	0	0	0	0	589	536	0	0	0	0	
1	0	0	0	0	577	527	0	0	0	0	
2	0	0	0	0	567	519	0	0	0	0	
3	0	0	0	0	559	514	0	0	0	0	
4	0	0	0	0	553	510	0	0	0	0	
5	0	0	0	0	551	508	0	0	0	0	
6	0	0	0	0	551	508	0	0	0	0	
7	0	0	0	0	555	510	0	0	0	0	
8	0	0	0	0	560	513	0	0	0	0	
9	0	0	0	0	568	519	0	0	0	0	
10	0	0	0	0	575	524	0	0	0	0	
11	0	0	0	0	583	530	0	0	0	0	
12	0	0	0	0	593	537	0	0	0	0	
13	0	0	0	0	603	544	0	0	0	0	
14	0	0	0	0	611	551	0	0	0	0	
15	0	0	0	0	619	557	0	0	0	0	
0	0	0	0	0	626	563	0	0	0	0	
1	0	0	0	0	631	567	0	0	0	0	
2	0	0	0	0	634	569	0	0	0	0	
3	0	0	0	0	635	570	0	0	0	0	
4	0	0	0	0	635	571	0	0	0	0	
5	0	0	0	0	633	570	0	0	0	0	
6	0	0	0	0	632	570	0	0	0	0	
7	0	0	0	0	630	570	0	0	0	0	
8	0	0	0	0	629	570	0	0	0	0	
9	0	0	0	0	628	571	0	0	0	0	
10	0	0	0	0	628	572	0	0	0	0	
11	0	0	0	0	627	573	0	0	0	0	
12	0	0	0	0	627	573	0	0	0	0	
13	0	0	0	0	626	573	0	0	0	0	
14	0	0	0	0	622	571	0	0	0	0	
15	0	0	0	0	617	568	0	0	0	0	
0	0	0	0	0	611	562	0	0	0	0	
1	0	0	0	0	603	555	0	0	0	0	
2	0	0	0	0	592	546	0	0	0	0	
3	0	0	0	0	582	537	0	0	0	0	
4	0	0	0	0	572	528	0	0	0	0	
5	0	0	0	0	563	520	0	0	0	0	
6	0	0	0	0	556	512	0	0	0	0	
7	0	0	0	0	550	506	0	0	0	0	
8	0	0	0	0	545	500	0	0	0	0	
9	0	0	0	0	543	497	0	0	0	0	
10	0	0	0	0	543	495	0	0	0	0	
11	0	0	0	0	544	495	0	0	0	0	
12	0	0	0	0	547	496	0	0	0	0	
13	0	0	0	0	550	497	0	0	0	0	
14	0	0	0	0	554	499	0	0	0	0	
15	0	0	0	0	558	502	0	0	0	0	
0	0	0	0	0	562	504	0	0	0	0	
1	0	0	0	0	566	507	0	0	0	0	
2	0	0	0	0	569	510	0	0	0	0	
3	0	0	0	0	572	513	0	0	0	0	
4	0	0	0	0	575	515	0	0	0	0	
5	0	0	0	0	576	517	0	0	0	0	
6	0	0	0	0	576	518	0	0	0	0	
7	0	0	0	0	575	519	0	0	0	0	
8	0	0	0	0	575	520	0	0	0	0	
9	0	0	0	0	574	520	0	0	0	0	
10	0	0	0	0	572	521	0	0	0	0	
11	0	0	0	0	572	522	0	0	0	0	
12	0	0	0	0	571	523	0	0	0	0	
13	0	0	0	0	574	526	0	0	0	0	
14	0	0	0	0	577	529	0	0	0	0	
15	0	0	0	0	582	533	0	0	0	0	
0	0	0	0	0	587	537	0	0	0	0	
1	0	0	0	0	592	541	0	0	0	0	
2	0	0	0	0	597	545	0	0	0	0	
3	0	0	0	0	602	547	0	0	0	0	
4	0	0	0	0	606	550	0	0	0	0	
5	0	0	0	0	608	550	0	0	0	0	
6	0	0	0	0	608	550	0	0	0	0	
7	0	0	0	0	606	547	0	0	0	0	
8	0	0	0	0	602	543	0	0	0	0	
9	0	0	0	0	596	538	0	0	0	0	
10	0	0	0	0	588	531	0	0	0	0	
11	0	0	0	0	579	522	0	0	0	0	
12	0	0	0	0	569	515	0	0	0	0	
13	0	0	0	0	560	509	0	0	0	0	
14	0	0	0	0	552	503	0	0	0	0	
15	0	0	0	0	546	498	0	0	0	0	
0	0	0	0	0	542	496	0	0	0	0	
1	0	0	0	0	539	494	0	0	0	0	
2	0	0	0	0	540	496	0	0	0	0	
3	0	0	0	0	543	499	0	0	0	0	
4	0	0	0	0	548	504	0	0	0	0	
5	0	0	0	0	555	510	0	0	0	0	
6	0	0	0	0	564	518	0	0	0	0	
7	0	0	0	0	574	527	0	0	0	0	
8	0	0	0	0	583	534	0	0	0	0	
9	0	0	0	0	592	541	0	0	0	0	
10	0	0	0	0	600	547	0	0	0	0	
11	0	0	0	0	606	551	0	0	0	0	
12	0	0	0	0	612	555	0	0	0	0	
13	0	0	0	0	615	556	0	0	0	0	
14	0	0	0	0	616	556	0	0	0	0	
15	0	0	0	0	614	555	0	0	0	0	
0	0	0	0	0	609	551	0	0	0	0	
1	0	0	0	0	603	546	0	0	0	0	
2	0	0	0	0	595	540	0	0	0	0	
3	0	0	0	0	587	534	0	0	0	0	
4	0	0	0	0	578	528	0	0	0	0	
5	0	0	0	0	570	522	0	0	0	0	
6	0	0	0	0	562	517	0	0	0	0	
7	0	0	0	0	555	512	0	0	0	0	
8	0	0	0	0	549	507	0	0	0	0	
9	0	0	0	0	545	504	0	0	0	0	
10	0	0	0	0	543	502	0	0	0	0	
11	0	0	0	0	543	503	0	0	0	0	
12	0	0	0	0	547	505	0	0	0	0	
13	0	0	0	0	553	509	0	0	0	0	
14	0	0	0	0	561	515	0	0	0	0	
15	0	0	0	0	572	524	0	0	0	0	
0	0	0	0	0	584	534	0	0	0	0	
1	0	0	0	0	597	545	0	0	0	0	
2	0	0	0	0	610	556	0	0	0	0	
3	0	0	0	0	624	568	0	0	0	0	
4	0	0	0	0	636	577	0	0	0	0	
5	0	0	0	0	646	587	0	0	0	0	
6	0	0	0	0	652	592	0	0	0	0	
7	0	0	0	0	654	593	0	0	0	0	
8	0	0	0	0	650	591	0	0	0	0	
9	0	0	0	0	642	585	0	0	0	0	
10	0	0	0	0	631	576	0	0	0	0	
11	0	0	0	0	618	566	0	0	0	0	
12	0	0	0	0	603	553	0	0	0	0	
13	0	0	0	0	589	543	0	0	0	0	
14	0	0	0	0	578	534	0	0	0	0	
15	0	0	0	0	570	529	0	0	0	0	
0	0	0	0	0	566	526	0	0	0	0	
1	0	0	0	0	566	526	0	0	0	0	
2	0	0	0	0	568	527	0	0	0	0	
3	0	0	0	0	571	530	0	0	0	0	
4	0	0	0	0	576	534	0	0	0	0	
5	0	0	0	0	582	537	0	0	0	0	
6	0	0	0	0	586	539	0	0	0	0	
7	0	0	0	0	589	539	0	0	0	0	
8	0	0	0	0	588	537	0	0	0	0	
9	0	0	0	0	585	533	0	0	0	0	
10	0	0	0	0	579	527	0	0	0	0	
11	0	0	0	0	572	519	0	0	0	0	
12	0	0	0	0	563	512	0	0	0	0	
13	0	0	0	0	554	505	0	0	0	0	
14	0	0	0	0	547	500	0	0	0	0	
15	0	0	0	0	542	496	0	0	0	0	
0	0	0	0	0	538	493	0	0	0	0	
1	0	0	0	0	536	493	0	0	0	0	
2	0	0	0	0	537	495	0	0	0	0	
3	0	0	0	0	541	499	0	0	0	0	
4	0	0	0	0	547	504	0	0	0	0	
5	0	0	0	0	554	510	0	0	0	0	
6	0	0	0	0	563	519	0	0	0	0	
7	0	0	0	0	574	528	0	0	0	0	
8	0	0	0	0	587	540	0	0	0	0	
9	0	0	0	0	602	552	0	0	0	0	
10	0	0	0	0	617	564	0	0	0	0	
11	0	0	0	0	633	576	0	0	0	0	
12	0	0	0	0	646	585	0	0	0	0	
13	0	0	0	0	656	592	0	0	0	0	
14	0	0	0	0	660	593	0	0	0	0	
15	0	0	0	0	658	590	0	0	0	0	
0	0	0	0	0	648	581	0	0	0	0	
1	0	0	0	0	633	568	0	0	0	0	
2	0	0	0	0	613	552	0	0	0	0	
3	0	0	0	0	590	534	0	0	0	0	
4	0	0	0	0	566	516	0	0	0	0	
5	0	0	0	0	543	499	0	0	0	0	
6	0	0	0	0	523	485	0	0	0	0	
7	0	0	0	0	508	476	0	0	0	0	
8	0	0	0	0	498	470	0	0	0	0	
9	0	0	0	0	494	468	0	0	0	0	
10	0	0	0	0	495	470	0	0	0	0	
11	0	0	0	0	500	475	0	0	0	0	
12	0	0	0	0	509	482	0	0	0	0	
13	0	0	0	0	519	490	0	0	0	0	
14	0	0	0	0	532	499	0	0	0	0	
15	0	0	0	0	545	507	0	0	0	0	
0	0	0	0	0	558	515	0	0	0	0	
1	0	0	0	0	570	522	0	0	0	0	
2	0	0	0	0	580	528	0	0	0	0	
3	0	0	0	0	589	533	0	0	0	0	
4	0	0	0	0	596	536	0	0	0	0	
5	0	0	0	0	601	539	0	0	0	0	
6	0	0	0	0	605	541	0	0	0	0	
7	0	0	0	0	607	542	0	0	0	0	
8	0	0	0	0	609	543	0	0	0	0	
9	0	0	0	0	609	544	0	0	0	0	
10	0	0	0	0	608	544	0	0	0	0	
11	0	0	0	0	608	545	0	0	0	0	
12	0	0	0	0	605	544	0	0	0	0	
13	0	0	0	0	601	543	0	0	0	0	
14	0	0	0	0	595	540	0	0	0	0	
15	0	0	0	0	587	535	0	0	0	0	
0	0	0	0	0	579	530	0	0	0	0	
1	0	0	0	0	572	524	0	0	0	0	
2	0	0	0	0	564	519	0	0	0	0	
3	0	0	0	0	557	515	0	0	0	0	
4	0	0	0	0	552	511	0	0	0	0	
5	0	0	0	0	551	510	0	0	0	0	
6	0	0	0	0	551	510	0	0	0	0	
7	0	0	0	0	556	512	0	0	0	0	
8	0	0	0	0	561	517	0	0	0	0	
9	0	0	0	0	569	522	0	0	0	0	
10	0	0	0	0	579	528	0	0	0	0	
11	0	0	0	0	588	535	0	0	0	0	
12	0	0	0	0	596	541	0	0	0	0	
13	0	0	0	0	604	546	0	0	0	0	
14	0	0	0	0	609	549	0	0	0	0	
15	0	0	0	0	613	551	0	0	0	0	
0	0	0	0	0	615	552	0	0	0	0	
1	0	0	0	0	615	553	0	0	0	0	
2	0	0	0	0	614	552	0	0	0	0	
3	0	0	0	0	613	551	0	0	0	0	
4	0	0	0	0	611	551	0	0	0	0	
5	0	0	0	0	607	550	0	0	0	0	
6	0	0	0	0	604	548	0	0	0	0	
7	0	0	0	0	600	547	0	0	0	0	
8	0	0	0	0	598	547	0	0	0	0	
9	0	0	0	0	596	547	0	0	0	0	
10	0	0	0	0	595	547	0	0	0	0	
11	0	0	0	0	595	547	0	0	0	0	
12	0	0	0	0	594	547	0	0	0	0	
13	0	0	0	0	593	546	0	0	0	0	
14	0	0	0	0	592	544	0	0	0	0	
15	0	0	0	0	591	542	0	0	0	0	
0	0	0	0	0	590	540	0	0	0	0	
1	0	0	0	0	589	538	0	0	0	0	
2	0	0	0	0	588	537	0	0	0	0	
3	0	0	0	0	588	536	0	0	0	0	
4	0	0	0	0	587	534	0	0	0	0	
5	0	0	0	0	585	532	0	0	0	0	
6	0	0	0	0	582	530	0	0	0	0	
7	0	0	0	0	580	527	0	0	0	0	
8	0	0	0	0	578	525	0	0	0	0	
9	0	0	0	0	575	522	0	0	0	0	
10	0	0	0	0	572	519	0	0	0	0	
11	0	0	0	0	569	517	0	0	0	0	
12	0	0	0	0	566	514	0	0	0	0	
13	0	0	0	0	564	513	0	0	0	0	
14	0	0	0	0	563	512	0	0	0	0	
15	0	0	0	0	563	512	0	0	0	0	
0	0	0	0	0	563	511	0	0	0	0	
1	0	0	0	0	563	512	0	0	0	0	
2	0	0	0	0	564	511	0	0	0	0	
3	0	0	0	0	563	510	0	0	0	0	
4	0	0	0	0	561	507	0	0	0	0	
5	0	0	0	0	557	502	0	0	0	0	
6	0	0	0	0	552	497	0	0	0	0	
7	0	0	0	0	547	492	0	0	0	0	
8	0	0	0	0	543	489	0	0	0	0	
9	0	0	0	0	540	487	0	0	0	0	
10	0	0	0	0	540	487	0	0	0	0	
11	0	0	0	0	540	487	0	0	0	0	
12	0	0	0	0	544	491	0	0	0	0	
13	0	0	0	0	550	496	0	0	0	0	
14	0	0	0	0	557	502	0	0	0	0	
15	0	0	0	0	566	509	0	0	0	0	
0	0	0	0	0	576	518	0	0	0	0	
1	0	0	0	0	587	526	0	0	0	0	
2	0	0	0	0	598	535	0	0	0	0	
3	0	0	0	0	606	542	0	0	0	0	
4	0	0	0	0	614	547	0	0	0	0	
5	0	0	0	0	617	551	0	0	0	0	
6	0	0	0	0	618	551	0	0	0	0	
7	0	0	0	0	616	550	0	0	0	0	
8	0	0	0	0	611	547	0	0	0	0	
9	0	0	0	0	604	542	0	0	0	0	
10	0	0	0	0	598	538	0	0	0	0	
11	0	0	0	0	592	535	0	0	0	0	
12	0	0	0	0	588	532	0	0	0	0	
13	0	0	0	0	586	532	0	0	0	0	
14	0	0	0	0	587	533	0	0	0	0	
15	0	0	0	0	588	536	0	0	0	0	
0	0	0	0	0	591	538	0	0	0	0	
1	0	0	0	0	593	541	0	0	0	0	
2	0	0	0	0	593	542	0	0	0	0	
3	0	0	0	0	593	542	0	0	0	0	
4	0	0	0	0	590	539	0	0	0	0	
5	0	0	0	0	587	536	0	0	0	0	
6	0	0	0	0	581	532	0	0	0	0	
7	0	0	0	0	575	527	0	0	0	0	
8	0	0	0	0	568	521	0	0	0	0	
9	0	0	0	0	563	516	0	0	0	0	
10	0	0	0	0	559	513	0	0	0	0	
11	0	0	0	0	558	512	0	0	0	0	
12	0	0	0	0	559	512	0	0	0	0	
13	0	0	0	0	562	515	0	0	0	0	
14	0	0	0	0	570	521	0	0	0	0	
15	0	0	0	0	580	529	0	0	0	0	
0	0	0	0	0	592	539	0	0	0	0	
1	0	0	0	0	604	550	0	0	0	0	
2	0	0	0	0	616	559	0	0	0	0	
3	0	0	0	0	627	568	0	0	0	0	
4	0	0	0	0	637	576	0	0	0	0	
5	0	0	0	0	643	582	0	0	0	0	
6	0	0	0	0	645	584	0	0	0	0	
7	0	0	0	0	643	583	0	0	0	0	
8	0	0	0	0	637	578	0	0	0	0	
9	0	0	0	0	627	571	0	0	0	0	
10	0	0	0	0	615	561	0	0	0	0	
11	0	0	0	0	600	551	0	0	0	0	
12	0	0	0	0	587	540	0	0	0	0	
13	0	0	0	0	574	531	0	0	0	0	
14	0	0	0	0	563	523	0	0	0	0	
15	0	0	0	0	555	516	0	0	0	0	
0	0	0	0	0	548	510	0	0	0	0	
1	0	0	0	0	543	505	0	0	0	0	
2	0	0	0	0	539	501	0	0	0	0	
3	0	0	0	0	538	498	0	0	0	0	
4	0	0	0	0	537	496	0	0	0	0	
5	0	0	0	0	538	495	0	0	0	0	
6	0	0	0	0	540	494	0	0	0	0	
7	0	0	0	0	540	493	0	0	0	0	
8	0	0	0	0	543	493	0	0	0	0	
9	0	0	0	0	546	495	0	0	0	0	
10	0	0	0	0	551	498	0	0	0	0	
11	0	0	0	0	557	502	0	0	0	0	
12	0	0	0	0	564	508	0	0	0	0	
13	0	0	0	0	573	516	0	0	0	0	
14	0	0	0	0	582	523	0	0	0	0	
15	0	0	0	0	591	531	0	0	0	0	
0	0	0	0	0	599	538	0	0	0	0	
1	0	0	0	0	605	544	0	0	0	0	
2	0	0	0	0	611	551	0	0	0	0	
3	0	0	0	0	616	556	0	0	0	0	
4	0	0	0	0	619	559	0	0	0	0	
5	0	0	0	0	619	560	0	0	0	0	
6	0	0	0	0	616	559	0	0	0	0	
7	0	0	0	0	611	556	0	0	0	0	
8	0	0	0	0	603	549	0	0	0	0	
9	0	0	0	0	593	540	0	0	0	0	
10	0	0	0	0	581	530	0	0	0	0	
11	0	0	0	0	569	521	0	0	0	0	
12	0	0	0	0	558	512	0	0	0	0	
13	0	0	0	0	548	503	0	0	0	0	
14	0	0	0	0	540	497	0	0	0	0	
15	0	0	0	0	533	492	0	0	0	0	
0	0	0	0	0	529	488	0	0	0	0	
1	0	0	0	0	527	487	0	0	0	0	
2	0	0	0	0	528	488	0	0	0	0	
3	0	0	0	0	531	491	0	0	0	0	
4	0	0	0	0	536	494	0	0	0	0	
5	0	0	0	0	542	499	0	0	0	0	
6	0	0	0	0	551	505	0	0	0	0	
7	0	0	0	0	560	512	0	0	0	0	
8	0	0	0	0	569	519	0	0	0	0	
9	0	0	0	0	578	525	0	0	0	0	
10	0	0	0	0	587	531	0	0	0	0	
11	0	0	0	0	596	538	0	0	0	0	
12	0	0	0	0	604	545	0	0	0	0	
13	0	0	0	0	612	551	0	0	0	0	
14	0	0	0	0	620	559	0	0	0	0	
15	0	0	0	0	628	566	0	0	0	0	
0	0	0	0	0	635	573	0	0	0	0	
1	0	0	0	0	639	577	0	0	0	0	
2	0	0	0	0	639	580	0	0	0	0	
3	0	0	0	0	637	579	0	0	0	0	
4	0	0	0	0	630	575	0	0	0	0	
5	0	0	0	0	620	567	0	0	0	0	
6	0	0	0	0	607	556	0	0	0	0	
7	0	0	0	0	591	543	0	0	0	0	
8	0	0	0	0	574	529	0	0	0	0	
9	0	0	0	0	557	515	0	0	0	0	
10	0	0	0	0	543	503	0	0	0	0	
11	0	0	0	0	531	492	0	0	0	0	
12	0	0	0	0	524	486	0	0	0	0	
13	0	0	0	0	521	482	0	0	0	0	
14	0	0	0	0	524	483	0	0	0	0	
15	0	0	0	0	530	487	0	0	0	0	
0	0	0	0	0	540	494	0	0	0	0	
1	0	0	0	0	553	504	0	0	0	0	
2	0	0	0	0	568	514	0	0	0	0	
3	0	0	0	0	582	526	0	0	0	0	
4	0	0	0	0	597	538	0	0	0	0	
5	0	0	0	0	610	548	0	0	0	0	
6	0	0	0	0	620	557	0	0	0	0	
7	0	0	0	0	625	562	0	0	0	0	
8	0	0	0	0	624	563	0	0	0	0	
9	0	0	0	0	620	560	0	0	0	0	
10	0	0	0	0	609	553	0	0	0	0	
11	0	0	0	0	595	543	0	0	0	0	
12	0	0	0	0	579	530	0	0	0	0	
13	0	0	0	0	561	517	0	0	0	0	
14	0	0	0	0	545	504	0	0	0	0	
15	0	0	0	0	530	491	0	0	0	0	
0	0	0	0	0	517	480	0	0	0	0	
1	0	0	0	0	507	471	0	0	0	0	
2	0	0	0	0	500	464	0	0	0	0	
3	0	0	0	0	497	459	0	0	0	0	
4	0	0	0	0	496	456	0	0	0	0	
5	0	0	0	0	499	456	0	0	0	0	
6	0	0	0	0	503	459	0	0	0	0	
7	0	0	0	0	510	464	0	0	0	0	
8	0	0	0	0	519	471	0	0	0	0	
9	0	0	0	0	530	478	0	0	0	0	
10	0	0	0	0	540	487	0	0	0	0	
11	0	0	0	0	551	496	0	0	0	0	
12	0	0	0	0	560	504	0	0	0	0	
13	0	0	0	0	569	512	0	0	0	0	
14	0	0	0	0	575	518	0	0	0	0	
15	0	0	0	0	580	523	0	0	0	0	
0	0	0	0	0	582	525	0	0	0	0	
1	0	0	0	0	583	528	0	0	0	0	
2	0	0	0	0	584	529	0	0	0	0	
3	0	0	0	0	585	531	0	0	0	0	
4	0	0	0	0	587	534	0	0	0	0	
5	0	0	0	0	589	537	0	0	0	0	
6	0	0	0	0	591	541	0	0	0	0	
7	0	0	0	0	594	543	0	0	0	0	
8	0	0	0	0	597	546	0	0	0	0	
9	0	0	0	0	600	548	0	0	0	0	
10	0	0	0	0	600	549	0	0	0	0	
11	0	0	0	0	600	549	0	0	0	0	
12	0	0	0	0	597	546	0	0	0	0	
13	0	0	0	0	591	540	0	0	0	0	
14	0	0	0	0	582	532	0	0	0	0	
15	0	0	0	0	569	520	0	0	0	0	
0	0	0	0	0	554	508	0	0	0	0	
1	0	0	0	0	537	492	0	0	0	0	
2	0	0	0	0	520	477	0	0	0	0	
3	0	0	0	0	503	461	0	0	0	0	
4	0	0	0	0	487	446	0	0	0	0	
5	0	0	0	0	473	433	0	0	0	0	
6	0	0	0	0	462	420	0	0	0	0	
7	0	0	0	0	454	411	0	0	0	0	
8	0	0	0	0	448	403	0	0	0	0	
9	0	0	0	0	445	398	0	0	0	0	
10	0	0	0	0	445	396	0	0	0	0	
11	0	0	0	0	447	394	0	0	0	0	
12	0	0	0	0	448	391	0	0	0	0	
13	0	0	0	0	447	388	0	0	0	0	
14	0	0	0	0	441	382	0	0	0	0	
15	0	0	0	0	432	371	0	0	0	0	
0	0	0	0	0	418	357	0	0	0	0	
1	0	0	0	0	399	341	0	0	0	0	
2	0	0	0	0	378	323	0	0	0	0	
3	0	0	0	0	356	305	0	0	0	0	
4	0	0	0	0	334	288	0	0	0	0	
5	0	0	0	0	316	274	0	0	0	0	
6	0	0	0	0	302	264	0	0	0	0	
7	0	0	0	0	294	260	0	0	0	0	
8	0	0	0	0	294	261	0	0	0	0	
9	0	0	0	0	303	269	0	0	0	0	
10	0	0	0	0	320	283	0	0	0	0	
11	0	0	0	0	344	302	0	0	0	0	
12	0	0	0	0	374	325	0	0	0	0	
13	0	0	0	0	407	350	0	0	0	0	
14	0	0	0	0	441	377	0	0	0	0	
15	0	0	0	0	476	404	0	0	0	0	
0	0	0	0	0	510	432	0	0	0	0	
1	0	0	0	0	542	458	0	0	0	0	
2	0	0	0	0	572	483	0	0	0	0	
3	0	0	0	0	599	508	0	0	0	0	
4	0	0	0	0	622	530	0	0	0	0	
5	0	0	0	0	640	550	0	0	0	0	
6	0	0	0	0	653	565	0	0	0	0	
7	0	0	0	0	661	577	0	0	0	0	
8	0	0	0	0	663	584	0	0	0	0	
9	0	0	0	0	661	588	0	0	0	0	
10	0	0	0	0	654	589	0	0	0	0	
11	0	0	0	0	645	586	0	0	0	0	
12	0	0	0	0	634	582	0	0	0	0	
13	0	0	0	0	623	575	0	0	0	0	
14	0	0	0	0	610	568	0	0	0	0	
15	0	0	0	0	597	558	0	0	0	0	
0	0	0	0	0	583	546	0	0	0	0	
1	0	0	0	0	568	534	0	0	0	0	
2	0	0	0	0	556	522	0	0	0	0	
3	0	0	0	0	545	512	0	0	0	0	
4	0	0	0	0	537	503	0	0	0	0	
5	0	0	0	0	531	496	0	0	0	0	
6	0	0	0	0	527	491	0	0	0	0	
7	0	0	0	0	525	488	0	0	0	0	
8	0	0	0	0	524	486	0	0	0	0	
9	0	0	0	0	525	485	0	0	0	0	
10	0	0	0	0	527	485	0	0	0	0	
11	0	0	0	0	529	487	0	0	0	0	
12	0	0	0	0	534	490	0	0	0	0	
13	0	0	0	0	538	493	0	0	0	0	
14	0	0	0	0	543	497	0	0	0	0	
15	0	0	0	0	547	500	0	0	0	0	
0	0	0	0	0	552	504	0	0	0	0	
1	0	0	0	0	556	507	0	0	0	0	
2	0	0	0	0	559	508	0	0	0	0	
3	0	0	0	0	561	510	0	0	0	0	
4	0	0	0	0	563	511	0	0	0	0	
5	0	0	0	0	563	511	0	0	0	0	
6	0	0	0	0	564	511	0	0	0	0	
7	0	0	0	0	564	511	0	0	0	0	
8	0	0	0	0	564	512	0	0	0	0	
9	0	0	0	0	565	512	0	0	0	0	
10	0	0	0	0	566	514	0	0	0	0	
11	0	0	0	0	566	516	0	0	0	0	
12	0	0	0	0	568	519	0	0	0	0	
13	0	0	0	0	570	521	0	0	0	0	
14	0	0	0	0	572	524	0	0	0	0	
15	0	0	0	0	574	527	0	0	0	0	
0	0	0	0	0	576	530	0	0	0	0	
1	0	0	0	0	579	534	0	0	0	0	
2	0	0	0	0	583	538	0	0	0	0	
3	0	0	0	0	587	542	0	0	0	0	
4	0	0	0	0	591	546	0	0	0	0	
5	0	0	0	0	596	550	0	0	0	0	
6	0	0	0	0	601	554	0	0	0	0	
7	0	0	0	0	605	556	0	0	0	0	
8	0	0	0	0	608	558	0	0	0	0	
9	0	0	0	0	611	560	0	0	0	0	
10	0	0	0	0	613	561	0	0	0	0	
11	0	0	0	0	617	563	0	0	0	0	
12	0	0	0	0	620	566	0	0	0	0	
13	0	0	0	0	624	569	0	0	0	0	
14	0	0	0	0	628	572	0	0	0	0	
15	0	0	0	0	632	576	0	0	0	0	
0	0	0	0	0	635	580	0	0	0	0	
1	0	0	0	0	636	581	0	0	0	0	
2	0	0	0	0	635	582	0	0	0	0	
3	0	0	0	0	631	579	0	0	0	0	
4	0	0	0	0	625	575	0	0	0	0	
5	0	0	0	0	617	569	0	0	0	0	
6	0	0	0	0	607	561	0	0	0	0	
7	0	0	0	0	594	550	0	0	0	0	
8	0	0	0	0	580	537	0	0	0	0	
9	0	0	0	0	565	525	0	0	0	0	
10	0	0	0	0	551	511	0	0	0	0	
11	0	0	0	0	539	500	0	0	0	0	
12	0	0	0	0	529	490	0	0	0	0	
13	0	0	0	0	523	483	0	0	0	0	
14	0	0	0	0	519	479	0	0	0	0	
15	0	0	0	0	520	478	0	0	0	0	
0	0	0	0	0	525	480	0	0	0	0	
1	0	0	0	0	532	486	0	0	0	0	
2	0	0	0	0	543	493	0	0	0	0	
3	0	0	0	0	554	502	0	0	0	0	
4	0	0	0	0	567	512	0	0	0	0	
5	0	0	0	0	579	522	0	0	0	0	
6	0	0	0	0	590	532	0	0	0	0	
7	0	0	0	0	600	541	0	0	0	0	
8	0	0	0	0	608	548	0	0	0	0	
9	0	0	0	0	614	555	0	0	0	0	
10	0	0	0	0	616	559	0	0	0	0	
11	0	0	0	0	614	559	0	0	0	0	
12	0	0	0	0	609	556	0	0	0	0	
13	0	0	0	0	600	551	0	0	0	0	
14	0	0	0	0	590	544	0	0	0	0	
15	0	0	0	0	578	536	0	0	0	0	
0	0	0	0	0	566	526	0	0	0	0	
1	0	0	0	0	555	518	0	0	0	0	
2	0	0	0	0	545	510	0	0	0	0	
3	0	0	0	0	540	505	0	0	0	0	
4	0	0	0	0	537	501	0	0	0	0	
5	0	0	0	0	538	500	0	0	0	0	
6	0	0	0	0	543	503	0	0	0	0	
7	0	0	0	0	551	508	0	0	0	0	
8	0	0	0	0	562	515	0	0	0	0	
9	0	0	0	0	575	524	0	0	0	0	
10	0	0	0	0	587	532	0	0	0	0	
11	0	0	0	0	598	540	0	0	0	0	
12	0	0	0	0	606	544	0	0	0	0	
13	0	0	0	0	611	547	0	0	0	0	
14	0	0	0	0	612	547	0	0	0	0	
15	0	0	0	0	608	543	0	0	0	0	
0	0	0	0	0	600	535	0	0	0	0	
1	0	0	0	0	586	524	0	0	0	0	
2	0	0	0	0	569	511	0	0	0	0	
3	0	0	0	0	549	496	0	0	0	0	
4	0	0	0	0	528	480	0	0	0	0	
5	0	0	0	0	508	464	0	0	0	0	
6	0	0	0	0	490	451	0	0	0	0	
7	0	0	0	0	476	443	0	0	0	0	
8	0	0	0	0	468	437	0	0	0	0	
9	0	0	0	0	464	435	0	0	0	0	
10	0	0	0	0	467	438	0	0	0	0	
11	0	0	0	0	472	441	0	0	0	0	
12	0	0	0	0	483	449	0	0	0	0	
13	0	0	0	0	495	458	0	0	0	0	
14	0	0	0	0	509	467	0	0	0	0	
15	0	0	0	0	524	477	0	0	0	0	
0	0	0	0	0	540	487	0	0	0	0	
1	0	0	0	0	555	498	0	0	0	0	
2	0	0	0	0	569	509	0	0	0	0	
3	0	0	0	0	582	518	0	0	0	0	
4	0	0	0	0	592	526	0	0	0	0	
5	0	0	0	0	599	532	0	0	0	0	
6	0	0	0	0	603	535	0	0	0	0	
7	0	0	0	0	602	536	0	0	0	0	
8	0	0	0	0	598	534	0	0	0	0	
9	0	0	0	0	590	529	0	0	0	0	
10	0	0	0	0	580	524	0	0	0	0	
11	0	0	0	0	569	518	0	0	0	0	
12	0	0	0	0	559	512	0	0	0	0	
13	0	0	0	0	549	507	0	0	0	0	
14	0	0	0	0	541	503	0	0	0	0	
15	0	0	0	0	536	501	0	0	0	0	
0	0	0	0	0	534	500	0	0	0	0	
1	0	0	0	0	534	500	0	0	0	0	
2	0	0	0	0	536	502	0	0	0	0	
3	0	0	0	0	540	504	0	0	0	0	
4	0	0	0	0	543	505	0	0	0	0	
5	0	0	0	0	550	508	0	0	0	0	
6	0	0	0	0	556	511	0	0	0	0	
7	0	0	0	0	562	513	0	0	0	0	
8	0	0	0	0	568	516	0	0	0	0	
9	0	0	0	0	574	518	0	0	0	0	
10	0	0	0	0	579	522	0	0	0	0	
11	0	0	0	0	584	525	0	0	0	0	
12	0	0	0	0	589	528	0	0	0	0	
13	0	0	0	0	593	531	0	0	0	0	
14	0	0	0	0	596	534	0	0	0	0	
15	0	0	0	0	600	537	0	0	0	0	
0	0	0	0	0	600	539	0	0	0	0	
1	0	0	0	0	600	539	0	0	0	0	
2	0	0	0	0	596	538	0	0	0	0	
3	0	0	0	0	592	537	0	0	0	0	
4	0	0	0	0	588	536	0	0	0	0	
5	0	0	0	0	580	531	0	0	0	0	
6	0	0	0	0	572	526	0	0	0	0	
7	0	0	0	0	562	519	0	0	0	0	
8	0	0	0	0	551	511	0	0	0	0	
9	0	0	0	0	541	503	0	0	0	0	
10	0	0	0	0	531	494	0	0	0	0	
11	0	0	0	0	521	486	0	0	0	0	
12	0	0	0	0	514	478	0	0	0	0	
13	0	0	0	0	508	472	0	0	0	0	
14	0	0	0	0	506	468	0	0	0	0	
15	0	0	0	0	508	467	0	0	0	0	
0	0	0	0	0	512	470	0	0	0	0	
1	0	0	0	0	521	476	0	0	0	0	
2	0	0	0	0	532	483	0	0	0	0	
3	0	0	0	0	547	495	0	0	0	0	
4	0	0	0	0	562	508	0	0	0	0	
5	0	0	0	0	579	521	0	0	0	0	
6	0	0	0	0	594	536	0	0	0	0	
7	0	0	0	0	608	548	0	0	0	0	
8	0	0	0	0	619	558	0	0	0	0	
9	0	0	0	0	624	563	0	0	0	0	
10	0	0	0	0	625	565	0	0	0	0	
11	0	0	0	0	623	563	0	0	0	0	
12	0	0	0	0	617	559	0	0	0	0	
13	0	0	0	0	610	555	0	0	0	0	
14	0	0	0	0	601	547	0	0	0	0	
