# OpenSignals Text File Format. Version 1
# {"": {"position": 0, "device": "", "device name": "", "device connection": "", "sampling rate": 1000, "resolution": [4, 1, 1, 1, 1, 10, 10, 10, 10, 6, 6], "firmware version": 1281, "comments": "", "keywords": "", "mode": 0, "sync interval": 2, "date": "", "time": "", "channels": [1, 2, 3, 4, 5, 6], "sensor": ["RAW", "RAW", "RAW", "RAW", "RAW", "RAW"], "label": ["A1", "A2", "A3", "A4", "A5", "A6"], "column": ["nSeq", "I1", "I2", "O1", "O2", "A1", "A2", "A3", "A4", "A5", "A6"], "special": [{}, {}, {}, {}, {}, {}], "digital IO": [0, 0, 1, 1]}}
# EndOfHeader
0	0	0	0	0	506	537	1021	0	0	0	
1	0	0	0	0	506	534	1021	0	0	0	
2	0	0	0	0	504	530	1021	0	0	0	
3	0	0	0	0	501	526	1021	0	0	0	
4	0	0	0	0	496	521	1021	0	0	0	
5	0	0	0	0	489	517	1021	0	0	0	
6	0	0	0	0	483	513	1021	0	0	0	
7	0	0	0	0	476	511	1021	0	0	0	
8	0	0	0	0	471	511	1021	0	0	0	
9	0	0	0	0	466	512	1021	0	0	0	
10	0	0	0	0	463	514	1021	0	0	0	
11	0	0	0	0	463	517	1021	0	0	0	
12	0	0	0	0	464	521	1021	0	0	0	
13	0	0	0	0	467	526	1021	0	0	0	
14	0	0	0	0	471	529	1021	0	0	0	
15	0	0	0	0	476	532	1021	0	0	0	
0	0	0	0	0	481	534	1021	0	0	0	
1	0	0	0	0	486	534	1021	0	0	0	
2	0	0	0	0	489	533	1021	0	0	0	
3	0	0	0	0	492	531	1021	0	0	0	
4	0	0	0	0	495	529	1021	0	0	0	
5	0	0	0	0	498	528	1021	0	0	0	
6	0	0	0	0	501	528	1021	0	0	0	
7	0	0	0	0	504	528	1021	0	0	0	
8	0	0	0	0	507	530	1021	0	0	0	
9	0	0	0	0	511	534	1021	0	0	0	
10	0	0	0	0	513	538	1021	0	0	0	
11	0	0	0	0	517	543	1021	0	0	0	
12	0	0	0	0	520	549	1021	0	0	0	
13	0	0	0	0	522	555	1021	0	0	0	
14	0	0	0	0	523	559	1021	0	0	0	
15	0	0	0	0	523	563	1021	0	0	0	
0	0	0	0	0	522	565	1021	0	0	0	
1	0	0	0	0	519	566	1021	0	0	0	
2	0	0	0	0	516	564	1021	0	0	0	
3	0	0	0	0	512	562	1021	0	0	0	
4	0	0	0	0	508	558	1021	0	0	0	
5	0	0	0	0	504	552	1021	0	0	0	
6	0	0	0	0	499	547	1021	0	0	0	
7	0	0	0	0	496	540	1021	0	0	0	
8	0	0	0	0	493	535	1021	0	0	0	
9	0	0	0	0	492	531	1021	0	0	0	
10	0	0	0	0	492	528	1021	0	0	0	
11	0	0	0	0	493	527	1021	0	0	0	
12	0	0	0	0	496	527	1021	0	0	0	
13	0	0	0	0	499	529	1021	0	0	0	
14	0	0	0	0	504	532	1021	0	0	0	
15	0	0	0	0	508	536	1021	0	0	0	
0	0	0	0	0	512	541	1021	0	0	0	
1	0	0	0	0	515	545	1021	0	0	0	
2	0	0	0	0	516	548	1021	0	0	0	
3	0	0	0	0	516	550	1021	0	0	0	
4	0	0	0	0	513	550	1021	0	0	0	
5	0	0	0	0	509	548	1021	0	0	0	
6	0	0	0	0	503	545	1021	0	0	0	
7	0	0	0	0	496	541	1021	0	0	0	
8	0	0	0	0	490	536	1021	0	0	0	
9	0	0	0	0	484	531	1021	0	0	0	
10	0	0	0	0	480	527	1021	0	0	0	
11	0	0	0	0	476	522	1021	0	0	0	
12	0	0	0	0	475	518	1021	0	0	0	
13	0	0	0	0	473	513	1021	0	0	0	
14	0	0	0	0	473	510	1021	0	0	0	
15	0	0	0	0	474	507	1021	0	0	0	
0	0	0	0	0	475	505	1021	0	0	0	
1	0	0	0	0	477	505	1021	0	0	0	
2	0	0	0	0	480	505	1021	0	0	0	
3	0	0	0	0	481	506	1021	0	0	0	
4	0	0	0	0	483	508	1021	0	0	0	
5	0	0	0	0	484	510	1021	0	0	0	
6	0	0	0	0	486	513	1021	0	0	0	
7	0	0	0	0	487	515	1021	0	0	0	
8	0	0	0	0	487	519	1021	0	0	0	
9	0	0	0	0	487	521	1021	0	0	0	
10	0	0	0	0	488	524	1021	0	0	0	
11	0	0	0	0	489	525	1021	0	0	0	
12	0	0	0	0	492	527	1021	0	0	0	
13	0	0	0	0	494	527	1021	0	0	0	
14	0	0	0	0	496	526	1021	0	0	0	
15	0	0	0	0	498	524	1021	0	0	0	
0	0	0	0	0	500	521	1021	0	0	0	
1	0	0	0	0	501	518	1021	0	0	0	
2	0	0	0	0	502	514	1021	0	0	0	
3	0	0	0	0	502	510	1021	0	0	0	
4	0	0	0	0	502	507	1021	0	0	0	
5	0	0	0	0	502	504	1021	0	0	0	
6	0	0	0	0	503	505	1021	0	0	0	
7	0	0	0	0	505	507	1021	0	0	0	
8	0	0	0	0	508	512	1021	0	0	0	
9	0	0	0	0	511	518	1021	0	0	0	
10	0	0	0	0	516	525	1021	0	0	0	
11	0	0	0	0	521	533	1021	0	0	0	
12	0	0	0	0	526	540	1021	0	0	0	
13	0	0	0	0	531	547	1021	0	0	0	
14	0	0	0	0	535	551	1021	0	0	0	
15	0	0	0	0	537	555	1021	0	0	0	
0	0	0	0	0	539	556	1021	0	0	0	
1	0	0	0	0	540	556	1021	0	0	0	
2	0	0	0	0	539	555	1021	0	0	0	
3	0	0	0	0	538	552	1021	0	0	0	
4	0	0	0	0	536	550	1021	0	0	0	
5	0	0	0	0	534	548	1021	0	0	0	
6	0	0	0	0	532	546	1021	0	0	0	
7	0	0	0	0	530	545	1021	0	0	0	
8	0	0	0	0	528	545	1021	0	0	0	
9	0	0	0	0	527	547	1021	0	0	0	
10	0	0	0	0	527	549	1021	0	0	0	
11	0	0	0	0	527	553	1021	0	0	0	
12	0	0	0	0	528	557	1021	0	0	0	
13	0	0	0	0	529	561	1021	0	0	0	
14	0	0	0	0	528	563	1021	0	0	0	
15	0	0	0	0	527	564	1021	0	0	0	
0	0	0	0	0	524	563	1021	0	0	0	
1	0	0	0	0	519	560	1021	0	0	0	
2	0	0	0	0	513	555	1021	0	0	0	
3	0	0	0	0	506	548	1021	0	0	0	
4	0	0	0	0	499	540	1021	0	0	0	
5	0	0	0	0	492	531	1021	0	0	0	
6	0	0	0	0	485	523	1021	0	0	0	
7	0	0	0	0	481	516	1021	0	0	0	
8	0	0	0	0	477	509	1021	0	0	0	
9	0	0	0	0	476	505	1021	0	0	0	
10	0	0	0	0	477	502	1021	0	0	0	
11	0	0	0	0	479	502	1021	0	0	0	
12	0	0	0	0	483	504	1021	0	0	0	
13	0	0	0	0	487	508	1021	0	0	0	
14	0	0	0	0	493	514	1021	0	0	0	
15	0	0	0	0	499	520	1021	0	0	0	
0	0	0	0	0	504	528	1021	0	0	0	
1	0	0	0	0	510	536	1021	0	0	0	
2	0	0	0	0	514	542	1021	0	0	0	
3	0	0	0	0	518	550	1021	0	0	0	
4	0	0	0	0	521	555	1021	0	0	0	
5	0	0	0	0	524	559	1021	0	0	0	
6	0	0	0	0	524	561	1021	0	0	0	
7	0	0	0	0	524	561	1021	0	0	0	
8	0	0	0	0	524	560	1021	0	0	0	
9	0	0	0	0	524	559	1021	0	0	0	
10	0	0	0	0	526	557	1021	0	0	0	
11	0	0	0	0	528	556	1021	0	0	0	
12	0	0	0	0	532	556	1021	0	0	0	
13	0	0	0	0	539	558	1021	0	0	0	
14	0	0	0	0	546	561	1021	0	0	0	
15	0	0	0	0	556	566	1021	0	0	0	
0	0	0	0	0	566	572	1021	0	0	0	
1	0	0	0	0	575	579	1021	0	0	0	
2	0	0	0	0	583	585	1021	0	0	0	
3	0	0	0	0	589	591	1021	0	0	0	
4	0	0	0	0	592	594	1021	0	0	0	
5	0	0	0	0	591	594	1021	0	0	0	
6	0	0	0	0	587	593	1021	0	0	0	
7	0	0	0	0	579	589	1021	0	0	0	
8	0	0	0	0	569	582	1021	0	0	0	
9	0	0	0	0	556	574	1021	0	0	0	
10	0	0	0	0	542	563	1021	0	0	0	
11	0	0	0	0	527	551	1021	0	0	0	
12	0	0	0	0	513	540	1021	0	0	0	
13	0	0	0	0	499	527	1021	0	0	0	
14	0	0	0	0	487	515	1021	0	0	0	
15	0	0	0	0	477	504	1021	0	0	0	
0	0	0	0	0	469	494	1021	0	0	0	
1	0	0	0	0	464	485	1021	0	0	0	
2	0	0	0	0	463	479	1021	0	0	0	
3	0	0	0	0	463	476	1021	0	0	0	
4	0	0	0	0	467	475	1021	0	0	0	
5	0	0	0	0	474	478	1021	0	0	0	
6	0	0	0	0	482	483	1021	0	0	0	
7	0	0	0	0	492	492	1021	0	0	0	
8	0	0	0	0	501	502	1021	0	0	0	
9	0	0	0	0	511	513	1021	0	0	0	
10	0	0	0	0	519	523	1021	0	0	0	
11	0	0	0	0	525	533	1021	0	0	0	
12	0	0	0	0	529	542	1021	0	0	0	
13	0	0	0	0	530	548	1021	0	0	0	
14	0	0	0	0	528	552	1021	0	0	0	
15	0	0	0	0	524	552	1021	0	0	0	
0	0	0	0	0	517	551	1021	0	0	0	
1	0	0	0	0	508	546	1021	0	0	0	
2	0	0	0	0	499	540	1021	0	0	0	
3	0	0	0	0	489	532	1021	0	0	0	
4	0	0	0	0	481	525	1021	0	0	0	
5	0	0	0	0	475	518	1021	0	0	0	
6	0	0	0	0	470	511	1021	0	0	0	
7	0	0	0	0	467	507	1021	0	0	0	
8	0	0	0	0	467	504	1021	0	0	0	
9	0	0	0	0	468	503	1021	0	0	0	
10	0	0	0	0	472	504	1021	0	0	0	
11	0	0	0	0	476	506	1021	0	0	0	
12	0	0	0	0	480	509	1021	0	0	0	
13	0	0	0	0	486	514	1021	0	0	0	
14	0	0	0	0	493	519	1021	0	0	0	
15	0	0	0	0	500	526	1021	0	0	0	
0	0	0	0	0	507	534	1021	0	0	0	
1	0	0	0	0	515	541	1021	0	0	0	
2	0	0	0	0	522	548	1021	0	0	0	
3	0	0	0	0	528	553	1021	0	0	0	
4	0	0	0	0	533	556	1021	0	0	0	
5	0	0	0	0	536	557	1021	0	0	0	
6	0	0	0	0	536	556	1021	0	0	0	
7	0	0	0	0	534	552	1021	0	0	0	
8	0	0	0	0	530	546	1021	0	0	0	
9	0	0	0	0	526	540	1021	0	0	0	
10	0	0	0	0	519	532	1021	0	0	0	
11	0	0	0	0	513	525	1021	0	0	0	
12	0	0	0	0	507	518	1021	0	0	0	
13	0	0	0	0	502	512	1021	0	0	0	
14	0	0	0	0	497	508	1021	0	0	0	
15	0	0	0	0	494	507	1021	0	0	0	
0	0	0	0	0	492	506	1021	0	0	0	
1	0	0	0	0	492	507	1021	0	0	0	
2	0	0	0	0	493	510	1021	0	0	0	
3	0	0	0	0	496	514	1021	0	0	0	
4	0	0	0	0	499	518	1021	0	0	0	
5	0	0	0	0	504	523	1021	0	0	0	
6	0	0	0	0	508	526	1021	0	0	0	
7	0	0	0	0	511	528	1021	0	0	0	
8	0	0	0	0	515	530	1021	0	0	0	
9	0	0	0	0	516	529	1021	0	0	0	
10	0	0	0	0	516	528	1021	0	0	0	
11	0	0	0	0	515	525	1021	0	0	0	
12	0	0	0	0	513	521	1021	0	0	0	
13	0	0	0	0	511	517	1021	0	0	0	
14	0	0	0	0	508	512	1021	0	0	0	
15	0	0	0	0	504	509	1021	0	0	0	
0	0	0	0	0	502	506	1021	0	0	0	
1	0	0	0	0	500	505	1021	0	0	0	
2	0	0	0	0	501	507	1021	0	0	0	
3	0	0	0	0	503	509	1021	0	0	0	
4	0	0	0	0	506	513	1021	0	0	0	
5	0	0	0	0	510	518	1021	0	0	0	
6	0	0	0	0	515	523	1021	0	0	0	
7	0	0	0	0	520	529	1021	0	0	0	
8	0	0	0	0	525	534	1021	0	0	0	
9	0	0	0	0	529	539	1021	0	0	0	
10	0	0	0	0	533	542	1021	0	0	0	
11	0	0	0	0	536	544	1021	0	0	0	
12	0	0	0	0	538	545	1021	0	0	0	
13	0	0	0	0	540	545	1021	0	0	0	
14	0	0	0	0	540	543	1021	0	0	0	
15	0	0	0	0	540	539	1021	0	0	0	
0	0	0	0	0	538	535	1021	0	0	0	
1	0	0	0	0	536	529	1021	0	0	0	
2	0	0	0	0	534	524	1021	0	0	0	
3	0	0	0	0	532	519	1021	0	0	0	
4	0	0	0	0	530	515	1021	0	0	0	
5	0	0	0	0	529	513	1021	0	0	0	
6	0	0	0	0	530	513	1021	0	0	0	
7	0	0	0	0	532	515	1021	0	0	0	
8	0	0	0	0	535	518	1021	0	0	0	
9	0	0	0	0	539	522	1021	0	0	0	
10	0	0	0	0	543	526	1021	0	0	0	
11	0	0	0	0	545	530	1021	0	0	0	
12	0	0	0	0	547	531	1021	0	0	0	
13	0	0	0	0	547	532	1021	0	0	0	
14	0	0	0	0	545	529	1021	0	0	0	
15	0	0	0	0	542	526	1021	0	0	0	
0	0	0	0	0	536	521	1021	0	0	0	
1	0	0	0	0	529	514	1021	0	0	0	
2	0	0	0	0	520	506	1021	0	0	0	
3	0	0	0	0	510	497	1021	0	0	0	
4	0	0	0	0	500	488	1021	0	0	0	
5	0	0	0	0	490	480	1021	0	0	0	
6	0	0	0	0	481	472	1021	0	0	0	
7	0	0	0	0	473	466	1021	0	0	0	
8	0	0	0	0	467	462	1021	0	0	0	
9	0	0	0	0	463	461	1021	0	0	0	
10	0	0	0	0	461	462	1021	0	0	0	
11	0	0	0	0	461	465	1021	0	0	0	
12	0	0	0	0	463	470	1020	0	0	0	
13	0	0	0	0	469	477	1021	0	0	0	
14	0	0	0	0	475	484	1021	0	0	0	
15	0	0	0	0	482	492	1021	0	0	0	
0	0	0	0	0	489	499	1021	0	0	0	
1	0	0	0	0	497	505	1021	0	0	0	
2	0	0	0	0	505	510	1021	0	0	0	
3	0	0	0	0	511	514	1021	0	0	0	
4	0	0	0	0	517	516	1021	0	0	0	
5	0	0	0	0	520	516	1021	0	0	0	
6	0	0	0	0	522	515	1021	0	0	0	
7	0	0	0	0	521	512	1021	0	0	0	
8	0	0	0	0	519	508	1021	0	0	0	
9	0	0	0	0	515	503	1021	0	0	0	
10	0	0	0	0	510	498	1021	0	0	0	
11	0	0	0	0	504	493	1021	0	0	0	
12	0	0	0	0	499	489	1021	0	0	0	
13	0	0	0	0	493	486	1021	0	0	0	
14	0	0	0	0	487	483	1021	0	0	0	
15	0	0	0	0	483	482	1021	0	0	0	
0	0	0	0	0	478	482	1021	0	0	0	
1	0	0	0	0	474	482	1021	0	0	0	
2	0	0	0	0	471	482	1021	0	0	0	
3	0	0	0	0	468	483	1021	0	0	0	
4	0	0	0	0	466	484	1021	0	0	0	
5	0	0	0	0	465	485	1021	0	0	0	
6	0	0	0	0	465	486	1021	0	0	0	
7	0	0	0	0	467	488	1021	0	0	0	
8	0	0	0	0	470	491	1021	0	0	0	
9	0	0	0	0	474	492	1021	0	0	0	
10	0	0	0	0	479	494	1021	0	0	0	
11	0	0	0	0	485	496	1021	0	0	0	
12	0	0	0	0	491	498	1021	0	0	0	
13	0	0	0	0	499	500	1021	0	0	0	
14	0	0	0	0	507	503	1021	0	0	0	
15	0	0	0	0	515	506	1021	0	0	0	
0	0	0	0	0	524	510	1021	0	0	0	
1	0	0	0	0	533	513	1021	0	0	0	
2	0	0	0	0	541	517	1021	0	0	0	
3	0	0	0	0	547	520	1021	0	0	0	
4	0	0	0	0	551	523	1021	0	0	0	
5	0	0	0	0	554	523	1021	0	0	0	
6	0	0	0	0	555	524	1021	0	0	0	
7	0	0	0	0	555	524	1021	0	0	0	
8	0	0	0	0	552	523	1021	0	0	0	
9	0	0	0	0	549	521	1021	0	0	0	
10	0	0	0	0	545	519	1021	0	0	0	
11	0	0	0	0	541	515	1021	0	0	0	
12	0	0	0	0	536	512	1021	0	0	0	
13	0	0	0	0	531	508	1021	0	0	0	
14	0	0	0	0	527	504	1021	0	0	0	
15	0	0	0	0	522	500	1021	0	0	0	
0	0	0	0	0	518	496	1021	0	0	0	
1	0	0	0	0	515	493	1021	0	0	0	
2	0	0	0	0	512	490	1021	0	0	0	
3	0	0	0	0	511	489	1021	0	0	0	
4	0	0	0	0	511	489	1021	0	0	0	
5	0	0	0	0	511	490	1021	0	0	0	
6	0	0	0	0	514	494	1021	0	0	0	
7	0	0	0	0	518	498	1021	0	0	0	
8	0	0	0	0	522	504	1020	0	0	0	
9	0	0	0	0	528	511	1021	0	0	0	
10	0	0	0	0	533	517	1021	0	0	0	
11	0	0	0	0	538	523	1021	0	0	0	
12	0	0	0	0	542	527	1021	0	0	0	
13	0	0	0	0	543	529	1021	0	0	0	
14	0	0	0	0	543	529	1021	0	0	0	
15	0	0	0	0	542	527	1021	0	0	0	
0	0	0	0	0	538	522	1021	0	0	0	
1	0	0	0	0	532	515	1021	0	0	0	
2	0	0	0	0	525	507	1021	0	0	0	
3	0	0	0	0	516	496	1021	0	0	0	
4	0	0	0	0	507	486	1021	0	0	0	
5	0	0	0	0	497	475	1021	0	0	0	
6	0	0	0	0	487	464	1021	0	0	0	
7	0	0	0	0	479	456	1021	0	0	0	
8	0	0	0	0	472	449	1021	0	0	0	
9	0	0	0	0	466	445	1021	0	0	0	
10	0	0	0	0	462	443	1021	0	0	0	
11	0	0	0	0	460	443	1021	0	0	0	
12	0	0	0	0	459	446	1021	0	0	0	
13	0	0	0	0	460	450	1021	0	0	0	
14	0	0	0	0	462	455	1021	0	0	0	
15	0	0	0	0	465	461	1021	0	0	0	
0	0	0	0	0	468	467	1021	0	0	0	
1	0	0	0	0	472	472	1021	0	0	0	
2	0	0	0	0	476	476	1021	0	0	0	
3	0	0	0	0	479	478	1021	0	0	0	
4	0	0	0	0	481	479	1021	0	0	0	
5	0	0	0	0	483	478	1021	0	0	0	
6	0	0	0	0	483	476	1021	0	0	0	
7	0	0	0	0	483	473	1021	0	0	0	
8	0	0	0	0	483	470	1021	0	0	0	
9	0	0	0	0	482	467	1021	0	0	0	
10	0	0	0	0	482	464	1021	0	0	0	
11	0	0	0	0	481	462	1021	0	0	0	
12	0	0	0	0	481	462	1021	0	0	0	
13	0	0	0	0	481	462	1021	0	0	0	
14	0	0	0	0	482	464	1021	0	0	0	
15	0	0	0	0	484	468	1021	0	0	0	
0	0	0	0	0	487	473	1021	0	0	0	
1	0	0	0	0	492	480	1021	0	0	0	
2	0	0	0	0	498	487	1021	0	0	0	
3	0	0	0	0	506	497	1021	0	0	0	
4	0	0	0	0	515	505	1021	0	0	0	
5	0	0	0	0	524	513	1021	0	0	0	
6	0	0	0	0	534	521	1021	0	0	0	
7	0	0	0	0	543	527	1021	0	0	0	
8	0	0	0	0	550	531	1021	0	0	0	
9	0	0	0	0	555	532	1021	0	0	0	
10	0	0	0	0	558	531	1021	0	0	0	
11	0	0	0	0	557	527	1021	0	0	0	
12	0	0	0	0	554	521	1021	0	0	0	
13	0	0	0	0	548	513	1021	0	0	0	
14	0	0	0	0	541	505	1021	0	0	0	
15	0	0	0	0	534	498	1021	0	0	0	
0	0	0	0	0	528	492	1021	0	0	0	
1	0	0	0	0	523	487	1021	0	0	0	
2	0	0	0	0	519	486	1021	0	0	0	
3	0	0	0	0	518	487	1021	0	0	0	
4	0	0	0	0	518	489	1021	0	0	0	
5	0	0	0	0	519	493	1021	0	0	0	
6	0	0	0	0	520	497	1021	0	0	0	
7	0	0	0	0	522	502	1021	0	0	0	
8	0	0	0	0	524	505	1021	0	0	0	
9	0	0	0	0	524	506	1021	0	0	0	
10	0	0	0	0	523	506	1021	0	0	0	
11	0	0	0	0	521	503	1021	0	0	0	
12	0	0	0	0	518	499	1021	0	0	0	
13	0	0	0	0	513	493	1021	0	0	0	
14	0	0	0	0	509	487	1021	0	0	0	
15	0	0	0	0	504	480	1021	0	0	0	
0	0	0	0	0	499	473	1021	0	0	0	
1	0	0	0	0	496	468	1021	0	0	0	
2	0	0	0	0	492	464	1021	0	0	0	
3	0	0	0	0	489	462	1021	0	0	0	
4	0	0	0	0	488	462	1021	0	0	0	
5	0	0	0	0	487	463	1021	0	0	0	
6	0	0	0	0	488	466	1021	0	0	0	
7	0	0	0	0	490	471	1021	0	0	0	
8	0	0	0	0	493	477	1021	0	0	0	
9	0	0	0	0	496	483	1021	0	0	0	
10	0	0	0	0	500	490	1021	0	0	0	
11	0	0	0	0	503	496	1021	0	0	0	
12	0	0	0	0	505	499	1021	0	0	0	
13	0	0	0	0	504	501	1021	0	0	0	
14	0	0	0	0	503	500	1021	0	0	0	
15	0	0	0	0	499	497	1021	0	0	0	
0	0	0	0	0	495	492	1021	0	0	0	
1	0	0	0	0	490	487	1021	0	0	0	
2	0	0	0	0	485	480	1021	0	0	0	
3	0	0	0	0	480	473	1021	0	0	0	
4	0	0	0	0	476	467	1021	0	0	0	
5	0	0	0	0	475	464	1021	0	0	0	
6	0	0	0	0	475	462	1021	0	0	0	
7	0	0	0	0	477	462	1021	0	0	0	
8	0	0	0	0	481	465	1021	0	0	0	
9	0	0	0	0	488	470	1021	0	0	0	
10	0	0	0	0	496	476	1021	0	0	0	
11	0	0	0	0	504	484	1021	0	0	0	
12	0	0	0	0	512	491	1021	0	0	0	
13	0	0	0	0	519	499	1021	0	0	0	
14	0	0	0	0	525	505	1021	0	0	0	
15	0	0	0	0	529	509	1021	0	0	0	
0	0	0	0	0	531	512	1021	0	0	0	
1	0	0	0	0	531	513	1021	0	0	0	
2	0	0	0	0	528	511	1021	0	0	0	
3	0	0	0	0	524	508	1021	0	0	0	
4	0	0	0	0	519	504	1021	0	0	0	
5	0	0	0	0	512	498	1021	0	0	0	
6	0	0	0	0	505	492	1021	0	0	0	
7	0	0	0	0	498	486	1021	0	0	0	
8	0	0	0	0	492	479	1021	0	0	0	
9	0	0	0	0	485	473	1021	0	0	0	
10	0	0	0	0	479	469	1021	0	0	0	
11	0	0	0	0	473	465	1021	0	0	0	
12	0	0	0	0	468	462	1021	0	0	0	
13	0	0	0	0	463	459	1021	0	0	0	
14	0	0	0	0	459	456	1021	0	0	0	
15	0	0	0	0	453	454	1021	0	0	0	
0	0	0	0	0	448	451	1021	0	0	0	
1	0	0	0	0	443	448	1021	0	0	0	
2	0	0	0	0	438	444	1021	0	0	0	
3	0	0	0	0	433	440	1021	0	0	0	
4	0	0	0	0	429	435	1021	0	0	0	
5	0	0	0	0	425	430	1021	0	0	0	
6	0	0	0	0	423	423	1021	0	0	0	
7	0	0	0	0	421	417	1021	0	0	0	
8	0	0	0	0	420	409	1021	0	0	0	
9	0	0	0	0	418	400	1021	0	0	0	
10	0	0	0	0	416	390	1021	0	0	0	
11	0	0	0	0	412	377	1021	0	0	0	
12	0	0	0	0	406	362	1021	0	0	0	
13	0	0	0	0	397	347	1021	0	0	0	
14	0	0	0	0	387	331	1021	0	0	0	
15	0	0	0	0	376	315	1020	0	0	0	
0	0	0	0	0	365	302	1021	0	0	0	
1	0	0	0	0	355	291	1021	0	0	0	
2	0	0	0	0	347	285	1021	0	0	0	
3	0	0	0	0	342	284	1021	0	0	0	
4	0	0	0	0	339	287	1021	0	0	0	
5	0	0	0	0	341	294	1021	0	0	0	
6	0	0	0	0	346	307	1021	0	0	0	
7	0	0	0	0	356	323	1021	0	0	0	
8	0	0	0	0	369	344	1021	0	0	0	
9	0	0	0	0	386	365	1021	0	0	0	
10	0	0	0	0	404	388	1021	0	0	0	
11	0	0	0	0	425	412	1021	0	0	0	
12	0	0	0	0	446	434	1021	0	0	0	
13	0	0	0	0	467	455	1021	0	0	0	
14	0	0	0	0	487	475	1020	0	0	0	
15	0	0	0	0	506	492	1021	0	0	0	
0	0	0	0	0	523	507	1021	0	0	0	
1	0	0	0	0	537	521	1021	0	0	0	
2	0	0	0	0	548	532	1021	0	0	0	
3	0	0	0	0	557	541	1021	0	0	0	
4	0	0	0	0	562	549	1021	0	0	0	
5	0	0	0	0	565	555	1021	0	0	0	
6	0	0	0	0	564	559	1021	0	0	0	
7	0	0	0	0	562	563	1021	0	0	0	
8	0	0	0	0	559	565	1021	0	0	0	
9	0	0	0	0	554	566	1021	0	0	0	
10	0	0	0	0	549	566	1021	0	0	0	
11	0	0	0	0	543	564	1021	0	0	0	
12	0	0	0	0	537	561	1021	0	0	0	
13	0	0	0	0	531	557	1021	0	0	0	
14	0	0	0	0	525	552	1021	0	0	0	
15	0	0	0	0	519	545	1021	0	0	0	
0	0	0	0	0	515	539	1021	0	0	0	
1	0	0	0	0	511	532	1021	0	0	0	
2	0	0	0	0	507	525	1021	0	0	0	
3	0	0	0	0	505	518	1021	0	0	0	
4	0	0	0	0	503	511	1021	0	0	0	
5	0	0	0	0	503	506	1021	0	0	0	
6	0	0	0	0	503	502	1021	0	0	0	
7	0	0	0	0	504	500	1021	0	0	0	
8	0	0	0	0	507	499	1021	0	0	0	
9	0	0	0	0	510	500	1021	0	0	0	
10	0	0	0	0	514	504	1021	0	0	0	
11	0	0	0	0	519	510	1021	0	0	0	
12	0	0	0	0	526	518	1021	0	0	0	
13	0	0	0	0	533	527	1021	0	0	0	
14	0	0	0	0	541	537	1021	0	0	0	
15	0	0	0	0	549	547	1021	0	0	0	
0	0	0	0	0	557	558	1021	0	0	0	
1	0	0	0	0	564	567	1021	0	0	0	
2	0	0	0	0	570	574	1021	0	0	0	
3	0	0	0	0	574	577	1021	0	0	0	
4	0	0	0	0	574	577	1021	0	0	0	
5	0	0	0	0	571	572	1021	0	0	0	
6	0	0	0	0	564	564	1021	0	0	0	
7	0	0	0	0	556	553	1021	0	0	0	
8	0	0	0	0	546	542	1021	0	0	0	
9	0	0	0	0	535	529	1021	0	0	0	
10	0	0	0	0	525	517	1021	0	0	0	
11	0	0	0	0	515	507	1021	0	0	0	
12	0	0	0	0	508	498	1021	0	0	0	
13	0	0	0	0	503	492	1021	0	0	0	
14	0	0	0	0	499	489	1021	0	0	0	
15	0	0	0	0	498	489	1021	0	0	0	
0	0	0	0	0	499	491	1021	0	0	0	
1	0	0	0	0	502	495	1021	0	0	0	
2	0	0	0	0	507	502	1021	0	0	0	
3	0	0	0	0	514	509	1021	0	0	0	
4	0	0	0	0	522	518	1021	0	0	0	
5	0	0	0	0	531	527	1021	0	0	0	
6	0	0	0	0	540	534	1021	0	0	0	
7	0	0	0	0	548	541	1021	0	0	0	
8	0	0	0	0	555	546	1021	0	0	0	
9	0	0	0	0	559	548	1021	0	0	0	
10	0	0	0	0	561	548	1021	0	0	0	
11	0	0	0	0	561	545	1021	0	0	0	
12	0	0	0	0	558	541	1021	0	0	0	
13	0	0	0	0	553	535	1021	0	0	0	
14	0	0	0	0	547	529	1021	0	0	0	
15	0	0	0	0	541	523	1021	0	0	0	
0	0	0	0	0	535	518	1021	0	0	0	
1	0	0	0	0	530	515	1021	0	0	0	
2	0	0	0	0	527	513	1021	0	0	0	
3	0	0	0	0	524	514	1021	0	0	0	
4	0	0	0	0	523	515	1021	0	0	0	
5	0	0	0	0	523	519	1021	0	0	0	
6	0	0	0	0	523	521	1021	0	0	0	
7	0	0	0	0	524	524	1021	0	0	0	
8	0	0	0	0	524	525	1021	0	0	0	
9	0	0	0	0	524	526	1021	0	0	0	
10	0	0	0	0	523	526	1021	0	0	0	
11	0	0	0	0	523	524	1021	0	0	0	
12	0	0	0	0	521	523	1021	0	0	0	
13	0	0	0	0	521	520	1021	0	0	0	
14	0	0	0	0	522	519	1021	0	0	0	
15	0	0	0	0	524	518	1021	0	0	0	
0	0	0	0	0	527	518	1021	0	0	0	
1	0	0	0	0	532	519	1021	0	0	0	
2	0	0	0	0	539	524	1021	0	0	0	
3	0	0	0	0	547	529	1021	0	0	0	
4	0	0	0	0	557	536	1021	0	0	0	
5	0	0	0	0	567	544	1021	0	0	0	
6	0	0	0	0	577	553	1021	0	0	0	
7	0	0	0	0	587	562	1021	0	0	0	
8	0	0	0	0	594	570	1021	0	0	0	
9	0	0	0	0	599	576	1021	0	0	0	
10	0	0	0	0	603	582	1021	0	0	0	
11	0	0	0	0	603	585	1021	0	0	0	
12	0	0	0	0	600	586	1021	0	0	0	
13	0	0	0	0	595	584	1021	0	0	0	
14	0	0	0	0	587	580	1021	0	0	0	
15	0	0	0	0	577	574	1021	0	0	0	
0	0	0	0	0	566	566	1021	0	0	0	
1	0	0	0	0	553	555	1021	0	0	0	
2	0	0	0	0	540	543	1021	0	0	0	
3	0	0	0	0	528	531	1021	0	0	0	
4	0	0	0	0	517	519	1021	0	0	0	
5	0	0	0	0	509	510	1021	0	0	0	
6	0	0	0	0	503	502	1021	0	0	0	
7	0	0	0	0	499	496	1021	0	0	0	
8	0	0	0	0	498	493	1021	0	0	0	
9	0	0	0	0	500	492	1021	0	0	0	
10	0	0	0	0	504	495	1021	0	0	0	
11	0	0	0	0	510	500	1021	0	0	0	
12	0	0	0	0	516	507	1021	0	0	0	
13	0	0	0	0	523	514	1021	0	0	0	
14	0	0	0	0	529	522	1021	0	0	0	
15	0	0	0	0	535	530	1021	0	0	0	
0	0	0	0	0	540	538	1021	0	0	0	
1	0	0	0	0	545	545	1021	0	0	0	
2	0	0	0	0	550	552	1021	0	0	0	
3	0	0	0	0	555	557	1021	0	0	0	
4	0	0	0	0	561	562	1021	0	0	0	
5	0	0	0	0	567	565	1021	0	0	0	
6	0	0	0	0	572	567	1021	0	0	0	
7	0	0	0	0	577	567	1021	0	0	0	
8	0	0	0	0	582	566	1021	0	0	0	
9	0	0	0	0	584	564	1021	0	0	0	
10	0	0	0	0	585	560	1021	0	0	0	
11	0	0	0	0	584	556	1021	0	0	0	
12	0	0	0	0	583	552	1021	0	0	0	
13	0	0	0	0	580	548	1021	0	0	0	
14	0	0	0	0	576	545	1021	0	0	0	
15	0	0	0	0	573	543	1021	0	0	0	
0	0	0	0	0	569	543	1020	0	0	0	
1	0	0	0	0	565	542	1021	0	0	0	
2	0	0	0	0	562	542	1021	0	0	0	
3	0	0	0	0	559	542	1021	0	0	0	
4	0	0	0	0	556	543	1021	0	0	0	
5	0	0	0	0	553	543	1021	0	0	0	
6	0	0	0	0	551	542	1021	0	0	0	
7	0	0	0	0	548	541	1021	0	0	0	
8	0	0	0	0	545	539	1021	0	0	0	
9	0	0	0	0	542	536	1021	0	0	0	
10	0	0	0	0	540	532	1021	0	0	0	
11	0	0	0	0	538	528	1021	0	0	0	
12	0	0	0	0	536	525	1021	0	0	0	
13	0	0	0	0	536	521	1021	0	0	0	
14	0	0	0	0	536	519	1021	0	0	0	
15	0	0	0	0	536	518	1021	0	0	0	
0	0	0	0	0	537	517	1021	0	0	0	
1	0	0	0	0	540	519	1021	0	0	0	
2	0	0	0	0	543	521	1021	0	0	0	
3	0	0	0	0	546	525	1021	0	0	0	
4	0	0	0	0	550	530	1021	0	0	0	
5	0	0	0	0	555	535	1021	0	0	0	
6	0	0	0	0	559	541	1021	0	0	0	
7	0	0	0	0	563	547	1021	0	0	0	
8	0	0	0	0	566	552	1021	0	0	0	
9	0	0	0	0	568	556	1021	0	0	0	
10	0	0	0	0	568	558	1021	0	0	0	
11	0	0	0	0	568	559	1021	0	0	0	
12	0	0	0	0	565	557	1021	0	0	0	
13	0	0	0	0	562	553	1021	0	0	0	
14	0	0	0	0	557	548	1021	0	0	0	
15	0	0	0	0	552	542	1021	0	0	0	
0	0	0	0	0	547	536	1021	0	0	0	
1	0	0	0	0	543	529	1021	0	0	0	
2	0	0	0	0	540	524	1021	0	0	0	
3	0	0	0	0	537	521	1021	0	0	0	
4	0	0	0	0	537	519	1021	0	0	0	
5	0	0	0	0	539	520	1021	0	0	0	
6	0	0	0	0	543	524	1021	0	0	0	
7	0	0	0	0	549	531	1021	0	0	0	
8	0	0	0	0	556	539	1021	0	0	0	
9	0	0	0	0	564	547	1021	0	0	0	
10	0	0	0	0	573	557	1021	0	0	0	
11	0	0	0	0	581	567	1021	0	0	0	
12	0	0	0	0	588	575	1021	0	0	0	
13	0	0	0	0	594	581	1021	0	0	0	
14	0	0	0	0	598	585	1021	0	0	0	
15	0	0	0	0	599	586	1021	0	0	0	
0	0	0	0	0	598	584	1021	0	0	0	
1	0	0	0	0	593	579	1021	0	0	0	
2	0	0	0	0	586	571	1021	0	0	0	
3	0	0	0	0	576	560	1021	0	0	0	
4	0	0	0	0	566	549	1021	0	0	0	
5	0	0	0	0	554	537	1021	0	0	0	
6	0	0	0	0	543	527	1021	0	0	0	
7	0	0	0	0	535	519	1021	0	0	0	
8	0	0	0	0	528	513	1021	0	0	0	
9	0	0	0	0	525	511	1021	0	0	0	
10	0	0	0	0	524	512	1021	0	0	0	
11	0	0	0	0	525	515	1021	0	0	0	
12	0	0	0	0	528	519	1021	0	0	0	
13	0	0	0	0	531	524	1021	0	0	0	
14	0	0	0	0	535	530	1021	0	0	0	
15	0	0	0	0	537	534	1021	0	0	0	
0	0	0	0	0	539	537	1021	0	0	0	
1	0	0	0	0	538	537	1021	0	0	0	
2	0	0	0	0	536	536	1021	0	0	0	
3	0	0	0	0	534	534	1021	0	0	0	
4	0	0	0	0	531	530	1021	0	0	0	
5	0	0	0	0	528	526	1021	0	0	0	
6	0	0	0	0	525	521	1021	0	0	0	
7	0	0	0	0	523	516	1021	0	0	0	
8	0	0	0	0	520	511	1021	0	0	0	
9	0	0	0	0	518	506	1021	0	0	0	
10	0	0	0	0	517	503	1021	0	0	0	
11	0	0	0	0	516	500	1021	0	0	0	
12	0	0	0	0	516	499	1021	0	0	0	
13	0	0	0	0	519	501	1021	0	0	0	
14	0	0	0	0	524	506	1021	0	0	0	
15	0	0	0	0	531	514	1021	0	0	0	
0	0	0	0	0	541	525	1021	0	0	0	
1	0	0	0	0	553	538	1021	0	0	0	
2	0	0	0	0	565	551	1021	0	0	0	
3	0	0	0	0	577	563	1021	0	0	0	
4	0	0	0	0	587	574	1021	0	0	0	
5	0	0	0	0	595	583	1021	0	0	0	
6	0	0	0	0	601	588	1021	0	0	0	
7	0	0	0	0	604	590	1021	0	0	0	
8	0	0	0	0	604	590	1021	0	0	0	
9	0	0	0	0	601	586	1021	0	0	0	
10	0	0	0	0	596	580	1021	0	0	0	
11	0	0	0	0	591	574	1021	0	0	0	
12	0	0	0	0	583	565	1021	0	0	0	
13	0	0	0	0	575	557	1021	0	0	0	
14	0	0	0	0	567	548	1021	0	0	0	
15	0	0	0	0	559	541	1021	0	0	0	
0	0	0	0	0	552	534	1021	0	0	0	
1	0	0	0	0	547	530	1021	0	0	0	
2	0	0	0	0	543	527	1021	0	0	0	
3	0	0	0	0	541	527	1021	0	0	0	
4	0	0	0	0	540	528	1021	0	0	0	
5	0	0	0	0	540	530	1021	0	0	0	
6	0	0	0	0	542	532	1021	0	0	0	
7	0	0	0	0	543	535	1021	0	0	0	
8	0	0	0	0	546	538	1021	0	0	0	
9	0	0	0	0	548	540	1021	0	0	0	
10	0	0	0	0	550	542	1021	0	0	0	
11	0	0	0	0	552	544	1021	0	0	0	
12	0	0	0	0	554	545	1021	0	0	0	
13	0	0	0	0	556	545	1021	0	0	0	
14	0	0	0	0	557	545	1021	0	0	0	
15	0	0	0	0	558	544	1021	0	0	0	
0	0	0	0	0	558	543	1021	0	0	0	
1	0	0	0	0	557	542	1021	0	0	0	
2	0	0	0	0	556	540	1021	0	0	0	
3	0	0	0	0	554	539	1021	0	0	0	
4	0	0	0	0	551	537	1021	0	0	0	
5	0	0	0	0	548	536	1021	0	0	0	
6	0	0	0	0	545	535	1021	0	0	0	
7	0	0	0	0	542	535	1021	0	0	0	
8	0	0	0	0	539	536	1021	0	0	0	
9	0	0	0	0	537	537	1021	0	0	0	
10	0	0	0	0	536	540	1021	0	0	0	
11	0	0	0	0	536	543	1021	0	0	0	
12	0	0	0	0	538	547	1021	0	0	0	
13	0	0	0	0	540	551	1021	0	0	0	
14	0	0	0	0	543	553	1021	0	0	0	
15	0	0	0	0	546	555	1021	0	0	0	
0	0	0	0	0	548	554	1021	0	0	0	
1	0	0	0	0	550	551	1021	0	0	0	
2	0	0	0	0	550	547	1021	0	0	0	
3	0	0	0	0	548	540	1021	0	0	0	
4	0	0	0	0	547	534	1021	0	0	0	
5	0	0	0	0	544	527	1021	0	0	0	
6	0	0	0	0	540	520	1021	0	0	0	
7	0	0	0	0	538	515	1021	0	0	0	
8	0	0	0	0	536	513	1021	0	0	0	
9	0	0	0	0	536	514	1021	0	0	0	
10	0	0	0	0	539	519	1021	0	0	0	
11	0	0	0	0	544	526	1021	0	0	0	
12	0	0	0	0	551	536	1021	0	0	0	
13	0	0	0	0	560	547	1021	0	0	0	
14	0	0	0	0	568	558	1021	0	0	0	
15	0	0	0	0	576	567	1021	0	0	0	
0	0	0	0	0	582	574	1021	0	0	0	
1	0	0	0	0	586	578	1021	0	0	0	
2	0	0	0	0	587	578	1021	0	0	0	
3	0	0	0	0	585	574	1021	0	0	0	
4	0	0	0	0	579	567	1021	0	0	0	
5	0	0	0	0	572	557	1021	0	0	0	
6	0	0	0	0	563	547	1021	0	0	0	
7	0	0	0	0	555	536	1021	0	0	0	
8	0	0	0	0	547	526	1021	0	0	0	
9	0	0	0	0	540	519	1021	0	0	0	
10	0	0	0	0	536	514	1021	0	0	0	
11	0	0	0	0	535	512	1021	0	0	0	
12	0	0	0	0	535	512	1021	0	0	0	
13	0	0	0	0	536	514	1021	0	0	0	
14	0	0	0	0	539	518	1021	0	0	0	
15	0	0	0	0	541	523	1021	0	0	0	
0	0	0	0	0	543	527	1020	0	0	0	
1	0	0	0	0	544	530	1021	0	0	0	
2	0	0	0	0	544	533	1021	0	0	0	
3	0	0	0	0	542	535	1021	0	0	0	
4	0	0	0	0	540	535	1021	0	0	0	
5	0	0	0	0	538	533	1021	0	0	0	
6	0	0	0	0	534	531	1021	0	0	0	
7	0	0	0	0	529	526	1021	0	0	0	
8	0	0	0	0	525	519	1021	0	0	0	
9	0	0	0	0	519	512	1021	0	0	0	
10	0	0	0	0	513	505	1021	0	0	0	
11	0	0	0	0	508	497	1021	0	0	0	
12	0	0	0	0	504	490	1021	0	0	0	
13	0	0	0	0	502	484	1021	0	0	0	
14	0	0	0	0	501	481	1021	0	0	0	
15	0	0	0	0	503	480	1021	0	0	0	
0	0	0	0	0	507	481	1021	0	0	0	
1	0	0	0	0	513	486	1021	0	0	0	
2	0	0	0	0	521	492	1021	0	0	0	
3	0	0	0	0	530	500	1021	0	0	0	
4	0	0	0	0	539	508	1021	0	0	0	
5	0	0	0	0	547	518	1021	0	0	0	
6	0	0	0	0	553	526	1021	0	0	0	
7	0	0	0	0	559	532	1021	0	0	0	
8	0	0	0	0	562	538	1021	0	0	0	
9	0	0	0	0	563	541	1021	0	0	0	
10	0	0	0	0	562	542	1021	0	0	0	
11	0	0	0	0	560	542	1021	0	0	0	
12	0	0	0	0	556	540	1021	0	0	0	
13	0	0	0	0	551	537	1021	0	0	0	
14	0	0	0	0	546	534	1021	0	0	0	
15	0	0	0	0	543	531	1021	0	0	0	
0	0	0	0	0	539	528	1021	0	0	0	
1	0	0	0	0	537	526	1021	0	0	0	
2	0	0	0	0	537	526	1021	0	0	0	
3	0	0	0	0	538	527	1021	0	0	0	
4	0	0	0	0	540	528	1021	0	0	0	
5	0	0	0	0	542	531	1021	0	0	0	
6	0	0	0	0	544	533	1021	0	0	0	
7	0	0	0	0	545	535	1021	0	0	0	
8	0	0	0	0	545	536	1021	0	0	0	
9	0	0	0	0	544	536	1021	0	0	0	
10	0	0	0	0	542	534	1021	0	0	0	
11	0	0	0	0	537	530	1021	0	0	0	
12	0	0	0	0	532	526	1021	0	0	0	
13	0	0	0	0	527	520	1021	0	0	0	
14	0	0	0	0	523	515	1021	0	0	0	
15	0	0	0	0	519	510	1021	0	0	0	
0	0	0	0	0	516	505	1021	0	0	0	
1	0	0	0	0	515	502	1021	0	0	0	
2	0	0	0	0	515	499	1021	0	0	0	
3	0	0	0	0	517	498	1021	0	0	0	
4	0	0	0	0	519	498	1021	0	0	0	
5	0	0	0	0	524	500	1021	0	0	0	
6	0	0	0	0	528	503	1021	0	0	0	
7	0	0	0	0	533	506	1021	0	0	0	
8	0	0	0	0	539	511	1021	0	0	0	
9	0	0	0	0	544	516	1021	0	0	0	
10	0	0	0	0	550	522	1021	0	0	0	
11	0	0	0	0	554	527	1021	0	0	0	
12	0	0	0	0	557	532	1021	0	0	0	
13	0	0	0	0	559	536	1021	0	0	0	
14	0	0	0	0	560	540	1021	0	0	0	
15	0	0	0	0	559	542	1021	0	0	0	
0	0	0	0	0	557	542	1021	0	0	0	
1	0	0	0	0	554	542	1021	0	0	0	
2	0	0	0	0	550	540	1021	0	0	0	
3	0	0	0	0	546	538	1021	0	0	0	
4	0	0	0	0	543	536	1021	0	0	0	
5	0	0	0	0	541	534	1021	0	0	0	
6	0	0	0	0	540	534	1021	0	0	0	
7	0	0	0	0	542	534	1021	0	0	0	
8	0	0	0	0	546	536	1021	0	0	0	
9	0	0	0	0	551	539	1021	0	0	0	
10	0	0	0	0	558	543	1021	0	0	0	
11	0	0	0	0	564	546	1021	0	0	0	
12	0	0	0	0	569	549	1021	0	0	0	
13	0	0	0	0	574	550	1021	0	0	0	
14	0	0	0	0	575	551	1021	0	0	0	
15	0	0	0	0	574	549	1021	0	0	0	
0	0	0	0	0	570	546	1021	0	0	0	
1	0	0	0	0	564	542	1021	0	0	0	
2	0	0	0	0	557	536	1021	0	0	0	
3	0	0	0	0	549	531	1021	0	0	0	
4	0	0	0	0	541	524	1021	0	0	0	
5	0	0	0	0	533	519	1021	0	0	0	
6	0	0	0	0	526	513	1021	0	0	0	
7	0	0	0	0	520	507	1021	0	0	0	
8	0	0	0	0	515	502	1021	0	0	0	
9	0	0	0	0	511	496	1021	0	0	0	
10	0	0	0	0	509	492	1021	0	0	0	
11	0	0	0	0	508	488	1021	0	0	0	
12	0	0	0	0	507	484	1021	0	0	0	
13	0	0	0	0	507	482	1021	0	0	0	
14	0	0	0	0	507	481	1021	0	0	0	
15	0	0	0	0	508	481	1021	0	0	0	
0	0	0	0	0	508	482	1021	0	0	0	
1	0	0	0	0	510	485	1021	0	0	0	
2	0	0	0	0	512	489	1021	0	0	0	
3	0	0	0	0	515	496	1021	0	0	0	
4	0	0	0	0	519	503	1021	0	0	0	
5	0	0	0	0	524	512	1021	0	0	0	
6	0	0	0	0	532	521	1021	0	0	0	
7	0	0	0	0	540	532	1021	0	0	0	
8	0	0	0	0	551	542	1021	0	0	0	
9	0	0	0	0	561	551	1021	0	0	0	
10	0	0	0	0	572	559	1021	0	0	0	
11	0	0	0	0	582	565	1021	0	0	0	
12	0	0	0	0	590	568	1021	0	0	0	
13	0	0	0	0	596	567	1021	0	0	0	
14	0	0	0	0	599	564	1021	0	0	0	
15	0	0	0	0	598	559	1021	0	0	0	
0	0	0	0	0	595	551	1021	0	0	0	
1	0	0	0	0	589	543	1021	0	0	0	
2	0	0	0	0	580	533	1021	0	0	0	
3	0	0	0	0	570	524	1021	0	0	0	
4	0	0	0	0	559	515	1021	0	0	0	
5	0	0	0	0	548	507	1021	0	0	0	
6	0	0	0	0	537	500	1021	0	0	0	
7	0	0	0	0	528	496	1021	0	0	0	
8	0	0	0	0	520	494	1021	0	0	0	
9	0	0	0	0	515	493	1021	0	0	0	
10	0	0	0	0	512	493	1021	0	0	0	
11	0	0	0	0	511	495	1021	0	0	0	
12	0	0	0	0	512	497	1021	0	0	0	
13	0	0	0	0	514	500	1021	0	0	0	
14	0	0	0	0	517	502	1021	0	0	0	
15	0	0	0	0	521	504	1021	0	0	0	
0	0	0	0	0	526	505	1021	0	0	0	
1	0	0	0	0	531	506	1021	0	0	0	
2	0	0	0	0	536	506	1021	0	0	0	
3	0	0	0	0	541	505	1021	0	0	0	
4	0	0	0	0	545	504	1021	0	0	0	
5	0	0	0	0	548	503	1021	0	0	0	
6	0	0	0	0	551	502	1021	0	0	0	
7	0	0	0	0	551	501	1021	0	0	0	
8	0	0	0	0	552	502	1021	0	0	0	
9	0	0	0	0	553	503	1021	0	0	0	
10	0	0	0	0	555	506	1021	0	0	0	
11	0	0	0	0	556	510	1021	0	0	0	
12	0	0	0	0	557	515	1021	0	0	0	
13	0	0	0	0	558	520	1021	0	0	0	
14	0	0	0	0	559	525	1021	0	0	0	
15	0	0	0	0	560	529	1021	0	0	0	
0	0	0	0	0	559	531	1021	0	0	0	
1	0	0	0	0	558	533	1021	0	0	0	
2	0	0	0	0	557	533	1021	0	0	0	
3	0	0	0	0	555	530	1021	0	0	0	
4	0	0	0	0	552	527	1021	0	0	0	
5	0	0	0	0	550	523	1021	0	0	0	
6	0	0	0	0	547	519	1021	0	0	0	
7	0	0	0	0	544	513	1021	0	0	0	
8	0	0	0	0	543	508	1021	0	0	0	
9	0	0	0	0	541	504	1021	0	0	0	
10	0	0	0	0	540	500	1021	0	0	0	
11	0	0	0	0	539	497	1021	0	0	0	
12	0	0	0	0	539	495	1021	0	0	0	
13	0	0	0	0	539	494	1021	0	0	0	
14	0	0	0	0	540	495	1021	0	0	0	
15	0	0	0	0	541	497	1021	0	0	0	
0	0	0	0	0	543	501	1021	0	0	0	
1	0	0	0	0	548	507	1021	0	0	0	
2	0	0	0	0	553	513	1021	0	0	0	
3	0	0	0	0	559	520	1021	0	0	0	
4	0	0	0	0	566	528	1021	0	0	0	
5	0	0	0	0	572	535	1021	0	0	0	
6	0	0	0	0	577	540	1021	0	0	0	
7	0	0	0	0	582	543	1021	0	0	0	
8	0	0	0	0	583	544	1021	0	0	0	
9	0	0	0	0	583	543	1021	0	0	0	
10	0	0	0	0	581	540	1021	0	0	0	
11	0	0	0	0	576	535	1021	0	0	0	
12	0	0	0	0	571	529	1021	0	0	0	
13	0	0	0	0	566	523	1021	0	0	0	
14	0	0	0	0	560	518	1021	0	0	0	
15	0	0	0	0	556	513	1021	0	0	0	
0	0	0	0	0	553	510	1021	0	0	0	
1	0	0	0	0	551	508	1021	0	0	0	
2	0	0	0	0	548	507	1021	0	0	0	
3	0	0	0	0	547	506	1021	0	0	0	
4	0	0	0	0	547	507	1021	0	0	0	
5	0	0	0	0	545	507	1021	0	0	0	
6	0	0	0	0	543	506	1021	0	0	0	
7	0	0	0	0	541	505	1021	0	0	0	
8	0	0	0	0	537	503	1021	0	0	0	
9	0	0	0	0	532	499	1021	0	0	0	
10	0	0	0	0	528	495	1021	0	0	0	
11	0	0	0	0	524	491	1021	0	0	0	
12	0	0	0	0	521	487	1021	0	0	0	
13	0	0	0	0	518	482	1021	0	0	0	
14	0	0	0	0	515	478	1021	0	0	0	
15	0	0	0	0	514	475	1021	0	0	0	
0	0	0	0	0	514	472	1021	0	0	0	
1	0	0	0	0	515	471	1021	0	0	0	
2	0	0	0	0	519	472	1021	0	0	0	
3	0	0	0	0	524	476	1021	0	0	0	
4	0	0	0	0	529	481	1021	0	0	0	
5	0	0	0	0	538	489	1021	0	0	0	
6	0	0	0	0	547	498	1021	0	0	0	
7	0	0	0	0	556	508	1021	0	0	0	
8	0	0	0	0	567	519	1021	0	0	0	
9	0	0	0	0	576	531	1021	0	0	0	
10	0	0	0	0	585	540	1021	0	0	0	
11	0	0	0	0	591	549	1021	0	0	0	
12	0	0	0	0	596	555	1021	0	0	0	
13	0	0	0	0	599	559	1021	0	0	0	
14	0	0	0	0	599	561	1021	0	0	0	
15	0	0	0	0	597	560	1021	0	0	0	
0	0	0	0	0	593	557	1021	0	0	0	
1	0	0	0	0	588	552	1021	0	0	0	
2	0	0	0	0	583	547	1020	0	0	0	
3	0	0	0	0	578	541	1021	0	0	0	
4	0	0	0	0	573	535	1021	0	0	0	
5	0	0	0	0	569	529	1021	0	0	0	
6	0	0	0	0	565	524	1021	0	0	0	
7	0	0	0	0	563	521	1021	0	0	0	
8	0	0	0	0	562	519	1021	0	0	0	
9	0	0	0	0	562	519	1021	0	0	0	
10	0	0	0	0	564	520	1021	0	0	0	
11	0	0	0	0	567	523	1021	0	0	0	
12	0	0	0	0	570	526	1021	0	0	0	
13	0	0	0	0	573	528	1021	0	0	0	
14	0	0	0	0	575	531	1021	0	0	0	
15	0	0	0	0	577	534	1021	0	0	0	
0	0	0	0	0	577	534	1021	0	0	0	
1	0	0	0	0	575	533	1021	0	0	0	
2	0	0	0	0	571	531	1021	0	0	0	
3	0	0	0	0	567	527	1021	0	0	0	
4	0	0	0	0	561	522	1021	0	0	0	
5	0	0	0	0	555	517	1021	0	0	0	
6	0	0	0	0	550	512	1021	0	0	0	
7	0	0	0	0	545	507	1021	0	0	0	
8	0	0	0	0	543	504	1021	0	0	0	
9	0	0	0	0	542	502	1021	0	0	0	
10	0	0	0	0	543	502	1021	0	0	0	
11	0	0	0	0	547	504	1021	0	0	0	
12	0	0	0	0	551	507	1021	0	0	0	
13	0	0	0	0	557	511	1021	0	0	0	
14	0	0	0	0	563	517	1021	0	0	0	
15	0	0	0	0	569	523	1021	0	0	0	
0	0	0	0	0	575	528	1021	0	0	0	
1	0	0	0	0	579	533	1021	0	0	0	
2	0	0	0	0	583	538	1021	0	0	0	
3	0	0	0	0	585	542	1021	0	0	0	
4	0	0	0	0	587	545	1021	0	0	0	
5	0	0	0	0	587	548	1021	0	0	0	
6	0	0	0	0	588	550	1021	0	0	0	
7	0	0	0	0	587	551	1021	0	0	0	
8	0	0	0	0	587	551	1021	0	0	0	
9	0	0	0	0	585	551	1021	0	0	0	
10	0	0	0	0	583	550	1021	0	0	0	
11	0	0	0	0	582	547	1021	0	0	0	
12	0	0	0	0	579	544	1021	0	0	0	
13	0	0	0	0	575	540	1021	0	0	0	
14	0	0	0	0	572	536	1021	0	0	0	
15	0	0	0	0	568	531	1021	0	0	0	
0	0	0	0	0	564	527	1021	0	0	0	
1	0	0	0	0	560	523	1021	0	0	0	
2	0	0	0	0	556	519	1021	0	0	0	
3	0	0	0	0	552	515	1021	0	0	0	
4	0	0	0	0	548	513	1021	0	0	0	
5	0	0	0	0	544	511	1021	0	0	0	
6	0	0	0	0	541	509	1021	0	0	0	
7	0	0	0	0	537	507	1021	0	0	0	
8	0	0	0	0	533	504	1021	0	0	0	
9	0	0	0	0	529	502	1021	0	0	0	
10	0	0	0	0	524	499	1021	0	0	0	
11	0	0	0	0	519	494	1021	0	0	0	
12	0	0	0	0	513	487	1021	0	0	0	
13	0	0	0	0	505	480	1021	0	0	0	
14	0	0	0	0	498	473	1021	0	0	0	
15	0	0	0	0	491	464	1021	0	0	0	
0	0	0	0	0	483	454	1021	0	0	0	
1	0	0	0	0	476	444	1021	0	0	0	
2	0	0	0	0	467	434	1021	0	0	0	
3	0	0	0	0	458	423	1021	0	0	0	
4	0	0	0	0	447	411	1021	0	0	0	
5	0	0	0	0	436	399	1021	0	0	0	
6	0	0	0	0	424	387	1021	0	0	0	
7	0	0	0	0	411	374	1021	0	0	0	
8	0	0	0	0	397	361	1020	0	0	0	
9	0	0	0	0	383	349	1021	0	0	0	
10	0	0	0	0	370	338	1021	0	0	0	
11	0	0	0	0	358	327	1021	0	0	0	
12	0	0	0	0	348	319	1021	0	0	0	
13	0	0	0	0	340	313	1020	0	0	0	
14	0	0	0	0	336	309	1021	0	0	0	
15	0	0	0	0	335	307	1021	0	0	0	
0	0	0	0	0	338	309	1021	0	0	0	
1	0	0	0	0	345	313	1021	0	0	0	
2	0	0	0	0	355	320	1021	0	0	0	
3	0	0	0	0	369	329	1021	0	0	0	
4	0	0	0	0	387	342	1021	0	0	0	
5	0	0	0	0	408	358	1021	0	0	0	
6	0	0	0	0	431	376	1021	0	0	0	
7	0	0	0	0	456	397	1021	0	0	0	
8	0	0	0	0	483	420	1021	0	0	0	
9	0	0	0	0	510	445	1021	0	0	0	
10	0	0	0	0	537	470	1021	0	0	0	
11	0	0	0	0	562	495	1021	0	0	0	
12	0	0	0	0	585	519	1021	0	0	0	
13	0	0	0	0	604	540	1021	0	0	0	
14	0	0	0	0	619	558	1021	0	0	0	
15	0	0	0	0	630	573	1021	0	0	0	
0	0	0	0	0	636	583	1021	0	0	0	
1	0	0	0	0	636	589	1021	0	0	0	
2	0	0	0	0	633	590	1021	0	0	0	
3	0	0	0	0	625	585	1021	0	0	0	
4	0	0	0	0	614	578	1021	0	0	0	
5	0	0	0	0	600	568	1021	0	0	0	
6	0	0	0	0	585	556	1021	0	0	0	
7	0	0	0	0	572	544	1021	0	0	0	
8	0	0	0	0	560	533	1021	0	0	0	
9	0	0	0	0	551	525	1021	0	0	0	
10	0	0	0	0	545	519	1021	0	0	0	
11	0	0	0	0	542	515	1021	0	0	0	
12	0	0	0	0	543	515	1021	0	0	0	
13	0	0	0	0	547	518	1021	0	0	0	
14	0	0	0	0	554	523	1021	0	0	0	
15	0	0	0	0	562	529	1021	0	0	0	
0	0	0	0	0	572	537	1020	0	0	0	
1	0	0	0	0	581	544	1021	0	0	0	
2	0	0	0	0	591	553	1021	0	0	0	
3	0	0	0	0	600	560	1021	0	0	0	
4	0	0	0	0	607	568	1021	0	0	0	
5	0	0	0	0	613	574	1021	0	0	0	
6	0	0	0	0	617	577	1021	0	0	0	
7	0	0	0	0	620	579	1021	0	0	0	
8	0	0	0	0	619	579	1021	0	0	0	
9	0	0	0	0	617	576	1021	0	0	0	
10	0	0	0	0	612	572	1021	0	0	0	
11	0	0	0	0	607	567	1021	0	0	0	
12	0	0	0	0	601	561	1021	0	0	0	
13	0	0	0	0	595	556	1021	0	0	0	
14	0	0	0	0	590	552	1021	0	0	0	
15	0	0	0	0	584	548	1021	0	0	0	
0	0	0	0	0	580	546	1021	0	0	0	
1	0	0	0	0	577	544	1021	0	0	0	
2	0	0	0	0	575	545	1021	0	0	0	
3	0	0	0	0	575	547	1021	0	0	0	
4	0	0	0	0	577	551	1021	0	0	0	
5	0	0	0	0	579	556	1021	0	0	0	
6	0	0	0	0	583	561	1021	0	0	0	
7	0	0	0	0	587	566	1021	0	0	0	
8	0	0	0	0	591	572	1021	0	0	0	
9	0	0	0	0	595	575	1021	0	0	0	
10	0	0	0	0	597	577	1021	0	0	0	
11	0	0	0	0	598	577	1021	0	0	0	
12	0	0	0	0	597	574	1021	0	0	0	
13	0	0	0	0	594	569	1021	0	0	0	
14	0	0	0	0	589	563	1021	0	0	0	
15	0	0	0	0	583	554	1021	0	0	0	
0	0	0	0	0	575	544	1021	0	0	0	
1	0	0	0	0	568	536	1021	0	0	0	
2	0	0	0	0	561	528	1021	0	0	0	
3	0	0	0	0	557	523	1020	0	0	0	
4	0	0	0	0	555	521	1021	0	0	0	
5	0	0	0	0	557	522	1021	0	0	0	
6	0	0	0	0	562	527	1021	0	0	0	
7	0	0	0	0	569	535	1021	0	0	0	
8	0	0	0	0	579	546	1021	0	0	0	
9	0	0	0	0	591	558	1021	0	0	0	
10	0	0	0	0	604	571	1021	0	0	0	
11	0	0	0	0	616	583	1021	0	0	0	
12	0	0	0	0	628	596	1021	0	0	0	
13	0	0	0	0	638	607	1020	0	0	0	
14	0	0	0	0	646	614	1021	0	0	0	
15	0	0	0	0	651	619	1021	0	0	0	
0	0	0	0	0	652	620	1021	0	0	0	
1	0	0	0	0	649	617	1021	0	0	0	
2	0	0	0	0	643	610	1021	0	0	0	
3	0	0	0	0	635	601	1021	0	0	0	
4	0	0	0	0	624	590	1021	0	0	0	
5	0	0	0	0	613	579	1021	0	0	0	
6	0	0	0	0	601	569	1021	0	0	0	
7	0	0	0	0	591	560	1021	0	0	0	
8	0	0	0	0	584	554	1021	0	0	0	
9	0	0	0	0	579	551	1021	0	0	0	
10	0	0	0	0	576	551	1021	0	0	0	
11	0	0	0	0	576	552	1021	0	0	0	
12	0	0	0	0	578	556	1021	0	0	0	
13	0	0	0	0	582	561	1021	0	0	0	
14	0	0	0	0	587	566	1021	0	0	0	
15	0	0	0	0	592	572	1021	0	0	0	
0	0	0	0	0	598	576	1021	0	0	0	
1	0	0	0	0	602	579	1021	0	0	0	
2	0	0	0	0	606	580	1021	0	0	0	
3	0	0	0	0	607	579	1021	0	0	0	
4	0	0	0	0	606	576	1021	0	0	0	
5	0	0	0	0	602	570	1021	0	0	0	
6	0	0	0	0	595	561	1021	0	0	0	
7	0	0	0	0	588	552	1021	0	0	0	
8	0	0	0	0	578	543	1021	0	0	0	
9	0	0	0	0	568	532	1021	0	0	0	
10	0	0	0	0	559	524	1021	0	0	0	
11	0	0	0	0	550	516	1021	0	0	0	
12	0	0	0	0	543	511	1021	0	0	0	
13	0	0	0	0	539	509	1021	0	0	0	
14	0	0	0	0	537	509	1021	0	0	0	
15	0	0	0	0	538	512	1021	0	0	0	
0	0	0	0	0	542	518	1021	0	0	0	
1	0	0	0	0	548	526	1021	0	0	0	
2	0	0	0	0	558	536	1021	0	0	0	
3	0	0	0	0	568	547	1021	0	0	0	
4	0	0	0	0	579	558	1021	0	0	0	
5	0	0	0	0	590	568	1021	0	0	0	
6	0	0	0	0	599	575	1021	0	0	0	
7	0	0	0	0	607	580	1021	0	0	0	
8	0	0	0	0	611	583	1021	0	0	0	
9	0	0	0	0	612	582	1021	0	0	0	
10	0	0	0	0	611	579	1021	0	0	0	
11	0	0	0	0	607	575	1021	0	0	0	
12	0	0	0	0	601	569	1021	0	0	0	
13	0	0	0	0	595	563	1021	0	0	0	
14	0	0	0	0	590	559	1021	0	0	0	
15	0	0	0	0	585	555	1021	0	0	0	
0	0	0	0	0	582	553	1021	0	0	0	
1	0	0	0	0	580	552	1021	0	0	0	
2	0	0	0	0	579	554	1021	0	0	0	
3	0	0	0	0	579	556	1021	0	0	0	
4	0	0	0	0	582	559	1021	0	0	0	
5	0	0	0	0	584	563	1021	0	0	0	
6	0	0	0	0	587	567	1021	0	0	0	
7	0	0	0	0	590	571	1021	0	0	0	
8	0	0	0	0	593	574	1021	0	0	0	
9	0	0	0	0	596	576	1021	0	0	0	
10	0	0	0	0	599	579	1021	0	0	0	
11	0	0	0	0	600	579	1021	0	0	0	
12	0	0	0	0	600	578	1021	0	0	0	
13	0	0	0	0	597	575	1021	0	0	0	
14	0	0	0	0	594	571	1021	0	0	0	
15	0	0	0	0	589	567	1021	0	0	0	
0	0	0	0	0	584	561	1021	0	0	0	
1	0	0	0	0	579	556	1021	0	0	0	
2	0	0	0	0	572	550	1021	0	0	0	
3	0	0	0	0	567	545	1021	0	0	0	
4	0	0	0	0	562	540	1021	0	0	0	
5	0	0	0	0	558	537	1021	0	0	0	
6	0	0	0	0	556	536	1021	0	0	0	
7	0	0	0	0	557	537	1021	0	0	0	
8	0	0	0	0	560	540	1021	0	0	0	
9	0	0	0	0	564	545	1021	0	0	0	
10	0	0	0	0	571	551	1021	0	0	0	
11	0	0	0	0	578	558	1021	0	0	0	
12	0	0	0	0	585	563	1021	0	0	0	
13	0	0	0	0	591	569	1021	0	0	0	
14	0	0	0	0	596	573	1021	0	0	0	
15	0	0	0	0	600	575	1021	0	0	0	
0	0	0	0	0	602	575	1021	0	0	0	
1	0	0	0	0	602	574	1021	0	0	0	
2	0	0	0	0	600	571	1021	0	0	0	
3	0	0	0	0	598	568	1021	0	0	0	
4	0	0	0	0	596	564	1021	0	0	0	
5	0	0	0	0	593	561	1021	0	0	0	
6	0	0	0	0	591	560	1021	0	0	0	
7	0	0	0	0	590	559	1021	0	0	0	
8	0	0	0	0	590	561	1021	0	0	0	
9	0	0	0	0	591	563	1021	0	0	0	
10	0	0	0	0	593	567	1021	0	0	0	
11	0	0	0	0	594	571	1021	0	0	0	
12	0	0	0	0	595	574	1021	0	0	0	
13	0	0	0	0	595	576	1021	0	0	0	
14	0	0	0	0	594	576	1021	0	0	0	
15	0	0	0	0	591	576	1021	0	0	0	
0	0	0	0	0	588	575	1021	0	0	0	
1	0	0	0	0	585	572	1021	0	0	0	
2	0	0	0	0	581	569	1021	0	0	0	
3	0	0	0	0	578	564	1021	0	0	0	
4	0	0	0	0	575	560	1021	0	0	0	
5	0	0	0	0	572	556	1021	0	0	0	
6	0	0	0	0	571	551	1021	0	0	0	
7	0	0	0	0	569	547	1021	0	0	0	
8	0	0	0	0	569	544	1021	0	0	0	
9	0	0	0	0	569	543	1021	0	0	0	
10	0	0	0	0	572	543	1021	0	0	0	
11	0	0	0	0	575	545	1021	0	0	0	
12	0	0	0	0	579	549	1021	0	0	0	
13	0	0	0	0	585	555	1021	0	0	0	
14	0	0	0	0	591	561	1021	0	0	0	
15	0	0	0	0	596	569	1021	0	0	0	
0	0	0	0	0	602	576	1021	0	0	0	
1	0	0	0	0	607	584	1021	0	0	0	
2	0	0	0	0	612	590	1021	0	0	0	
3	0	0	0	0	615	595	1021	0	0	0	
4	0	0	0	0	617	599	1021	0	0	0	
5	0	0	0	0	619	601	1021	0	0	0	
6	0	0	0	0	618	601	1021	0	0	0	
7	0	0	0	0	616	599	1021	0	0	0	
8	0	0	0	0	613	595	1021	0	0	0	
9	0	0	0	0	608	590	1021	0	0	0	
10	0	0	0	0	601	583	1021	0	0	0	
11	0	0	0	0	595	575	1021	0	0	0	
12	0	0	0	0	588	567	1021	0	0	0	
13	0	0	0	0	581	559	1021	0	0	0	
14	0	0	0	0	575	553	1021	0	0	0	
15	0	0	0	0	572	548	1021	0	0	0	
0	0	0	0	0	569	545	1021	0	0	0	
1	0	0	0	0	569	546	1021	0	0	0	
2	0	0	0	0	572	548	1021	0	0	0	
3	0	0	0	0	577	553	1021	0	0	0	
4	0	0	0	0	583	560	1021	0	0	0	
5	0	0	0	0	591	569	1021	0	0	0	
6	0	0	0	0	601	578	1021	0	0	0	
7	0	0	0	0	610	587	1021	0	0	0	
8	0	0	0	0	618	595	1021	0	0	0	
9	0	0	0	0	625	603	1021	0	0	0	
10	0	0	0	0	630	607	1021	0	0	0	
11	0	0	0	0	633	610	1021	0	0	0	
12	0	0	0	0	634	610	1021	0	0	0	
13	0	0	0	0	631	607	1021	0	0	0	
14	0	0	0	0	627	602	1021	0	0	0	
15	0	0	0	0	620	595	1021	0	0	0	
0	0	0	0	0	611	585	1021	0	0	0	
1	0	0	0	0	602	576	1021	0	0	0	
2	0	0	0	0	593	567	1021	0	0	0	
3	0	0	0	0	584	559	1021	0	0	0	
4	0	0	0	0	576	551	1021	0	0	0	
5	0	0	0	0	570	546	1021	0	0	0	
6	0	0	0	0	565	543	1021	0	0	0	
7	0	0	0	0	563	542	1021	0	0	0	
8	0	0	0	0	563	543	1021	0	0	0	
9	0	0	0	0	565	546	1021	0	0	0	
10	0	0	0	0	569	551	1021	0	0	0	
11	0	0	0	0	575	558	1021	0	0	0	
12	0	0	0	0	581	564	1021	0	0	0	
13	0	0	0	0	588	571	1021	0	0	0	
14	0	0	0	0	594	577	1021	0	0	0	
15	0	0	0	0	600	583	1021	0	0	0	
0	0	0	0	0	606	586	1021	0	0	0	
1	0	0	0	0	609	589	1021	0	0	0	
2	0	0	0	0	613	591	1021	0	0	0	
3	0	0	0	0	615	591	1021	0	0	0	
4	0	0	0	0	617	592	1021	0	0	0	
5	0	0	0	0	620	592	1021	0	0	0	
6	0	0	0	0	620	592	1021	0	0	0	
7	0	0	0	0	621	593	1021	0	0	0	
8	0	0	0	0	622	594	1021	0	0	0	
9	0	0	0	0	622	595	1021	0	0	0	
10	0	0	0	0	623	598	1021	0	0	0	
11	0	0	0	0	624	600	1021	0	0	0	
12	0	0	0	0	625	603	1021	0	0	0	
13	0	0	0	0	624	604	1021	0	0	0	
14	0	0	0	0	623	604	1021	0	0	0	
15	0	0	0	0	619	603	1021	0	0	0	
0	0	0	0	0	614	599	1021	0	0	0	
1	0	0	0	0	608	594	1021	0	0	0	
2	0	0	0	0	601	589	1021	0	0	0	
3	0	0	0	0	595	582	1021	0	0	0	
4	0	0	0	0	588	574	1021	0	0	0	
5	0	0	0	0	582	568	1021	0	0	0	
6	0	0	0	0	577	561	1021	0	0	0	
7	0	0	0	0	574	556	1021	0	0	0	
8	0	0	0	0	571	551	1021	0	0	0	
9	0	0	0	0	569	547	1021	0	0	0	
10	0	0	0	0	568	545	1021	0	0	0	
11	0	0	0	0	567	543	1021	0	0	0	
12	0	0	0	0	566	543	1021	0	0	0	
13	0	0	0	0	567	543	1021	0	0	0	
14	0	0	0	0	568	545	1021	0	0	0	
15	0	0	0	0	568	548	1021	0	0	0	
0	0	0	0	0	571	553	1021	0	0	0	
1	0	0	0	0	573	558	1021	0	0	0	
2	0	0	0	0	576	563	1021	0	0	0	
3	0	0	0	0	579	568	1021	0	0	0	
4	0	0	0	0	583	574	1021	0	0	0	
5	0	0	0	0	588	579	1020	0	0	0	
6	0	0	0	0	591	583	1021	0	0	0	
7	0	0	0	0	596	586	1021	0	0	0	
8	0	0	0	0	600	588	1021	0	0	0	
9	0	0	0	0	604	590	1021	0	0	0	
10	0	0	0	0	608	591	1021	0	0	0	
11	0	0	0	0	612	591	1021	0	0	0	
12	0	0	0	0	615	590	1021	0	0	0	
13	0	0	0	0	618	589	1021	0	0	0	
14	0	0	0	0	619	587	1021	0	0	0	
15	0	0	0	0	619	585	1021	0	0	0	
0	0	0	0	0	619	583	1021	0	0	0	
1	0	0	0	0	617	580	1021	0	0	0	
2	0	0	0	0	615	579	1021	0	0	0	
3	0	0	0	0	613	579	1021	0	0	0	
4	0	0	0	0	610	578	1021	0	0	0	
5	0	0	0	0	608	579	1021	0	0	0	
6	0	0	0	0	606	579	1021	0	0	0	
7	0	0	0	0	604	579	1021	0	0	0	
8	0	0	0	0	600	579	1021	0	0	0	
9	0	0	0	0	597	577	1021	0	0	0	
10	0	0	0	0	592	574	1021	0	0	0	
11	0	0	0	0	588	569	1021	0	0	0	
12	0	0	0	0	582	564	1021	0	0	0	
13	0	0	0	0	577	559	1021	0	0	0	
14	0	0	0	0	572	553	1021	0	0	0	
15	0	0	0	0	568	548	1021	0	0	0	
0	0	0	0	0	564	544	1021	0	0	0	
1	0	0	0	0	561	540	1021	0	0	0	
2	0	0	0	0	559	538	1021	0	0	0	
3	0	0	0	0	559	537	1021	0	0	0	
4	0	0	0	0	560	538	1021	0	0	0	
5	0	0	0	0	561	540	1021	0	0	0	
6	0	0	0	0	564	543	1021	0	0	0	
7	0	0	0	0	568	548	1021	0	0	0	
8	0	0	0	0	572	552	1021	0	0	0	
9	0	0	0	0	575	557	1021	0	0	0	
10	0	0	0	0	580	561	1021	0	0	0	
11	0	0	0	0	583	565	1021	0	0	0	
12	0	0	0	0	586	568	1021	0	0	0	
13	0	0	0	0	587	569	1021	0	0	0	
14	0	0	0	0	587	568	1021	0	0	0	
15	0	0	0	0	585	566	1021	0	0	0	
0	0	0	0	0	582	562	1021	0	0	0	
1	0	0	0	0	578	556	1021	0	0	0	
2	0	0	0	0	574	551	1021	0	0	0	
3	0	0	0	0	571	545	1021	0	0	0	
4	0	0	0	0	568	541	1021	0	0	0	
5	0	0	0	0	568	538	1021	0	0	0	
6	0	0	0	0	569	537	1021	0	0	0	
7	0	0	0	0	572	539	1021	0	0	0	
8	0	0	0	0	576	542	1021	0	0	0	
9	0	0	0	0	581	547	1021	0	0	0	
10	0	0	0	0	588	552	1021	0	0	0	
11	0	0	0	0	594	559	1021	0	0	0	
12	0	0	0	0	599	565	1021	0	0	0	
13	0	0	0	0	604	571	1021	0	0	0	
14	0	0	0	0	608	575	1021	0	0	0	
15	0	0	0	0	611	579	1021	0	0	0	
0	0	0	0	0	611	582	1021	0	0	0	
1	0	0	0	0	610	582	1021	0	0	0	
2	0	0	0	0	607	580	1021	0	0	0	
3	0	0	0	0	603	577	1021	0	0	0	
4	0	0	0	0	597	572	1021	0	0	0	
5	0	0	0	0	590	566	1021	0	0	0	
6	0	0	0	0	581	559	1021	0	0	0	
7	0	0	0	0	573	551	1021	0	0	0	
8	0	0	0	0	565	543	1021	0	0	0	
9	0	0	0	0	557	536	1021	0	0	0	
10	0	0	0	0	551	530	1021	0	0	0	
11	0	0	0	0	545	525	1021	0	0	0	
12	0	0	0	0	542	522	1021	0	0	0	
13	0	0	0	0	540	521	1021	0	0	0	
14	0	0	0	0	541	522	1021	0	0	0	
15	0	0	0	0	543	524	1021	0	0	0	
0	0	0	0	0	547	528	1021	0	0	0	
1	0	0	0	0	552	534	1021	0	0	0	
2	0	0	0	0	558	540	1021	0	0	0	
3	0	0	0	0	566	547	1021	0	0	0	
4	0	0	0	0	573	553	1021	0	0	0	
5	0	0	0	0	580	559	1021	0	0	0	
6	0	0	0	0	588	564	1021	0	0	0	
7	0	0	0	0	594	568	1021	0	0	0	
8	0	0	0	0	601	572	1021	0	0	0	
9	0	0	0	0	606	574	1021	0	0	0	
10	0	0	0	0	611	577	1021	0	0	0	
11	0	0	0	0	615	578	1021	0	0	0	
12	0	0	0	0	618	579	1021	0	0	0	
13	0	0	0	0	619	579	1021	0	0	0	
14	0	0	0	0	617	577	1021	0	0	0	
15	0	0	0	0	614	575	1021	0	0	0	
0	0	0	0	0	608	571	1021	0	0	0	
1	0	0	0	0	600	566	1021	0	0	0	
2	0	0	0	0	591	560	1021	0	0	0	
3	0	0	0	0	581	555	1021	0	0	0	
4	0	0	0	0	571	549	1021	0	0	0	
5	0	0	0	0	561	543	1021	0	0	0	
6	0	0	0	0	554	539	1021	0	0	0	
7	0	0	0	0	549	536	1021	0	0	0	
8	0	0	0	0	545	534	1021	0	0	0	
9	0	0	0	0	544	533	1021	0	0	0	
10	0	0	0	0	545	533	1021	0	0	0	
11	0	0	0	0	548	533	1021	0	0	0	
12	0	0	0	0	553	534	1021	0	0	0	
13	0	0	0	0	559	535	1021	0	0	0	
14	0	0	0	0	565	536	1021	0	0	0	
15	0	0	0	0	572	536	1021	0	0	0	
0	0	0	0	0	578	537	1021	0	0	0	
1	0	0	0	0	583	539	1021	0	0	0	
2	0	0	0	0	588	540	1021	0	0	0	
3	0	0	0	0	592	541	1021	0	0	0	
4	0	0	0	0	595	543	1021	0	0	0	
5	0	0	0	0	598	545	1021	0	0	0	
6	0	0	0	0	600	549	1021	0	0	0	
7	0	0	0	0	601	552	1021	0	0	0	
8	0	0	0	0	601	556	1021	0	0	0	
9	0	0	0	0	600	559	1021	0	0	0	
10	0	0	0	0	599	561	1021	0	0	0	
11	0	0	0	0	595	563	1021	0	0	0	
12	0	0	0	0	592	565	1021	0	0	0	
13	0	0	0	0	589	565	1021	0	0	0	
14	0	0	0	0	586	565	1021	0	0	0	
15	0	0	0	0	583	563	1021	0	0	0	
0	0	0	0	0	581	562	1021	0	0	0	
1	0	0	0	0	580	560	1021	0	0	0	
2	0	0	0	0	580	558	1021	0	0	0	
3	0	0	0	0	582	557	1021	0	0	0	
4	0	0	0	0	584	556	1021	0	0	0	
5	0	0	0	0	588	556	1021	0	0	0	
6	0	0	0	0	592	556	1021	0	0	0	
7	0	0	0	0	595	556	1021	0	0	0	
8	0	0	0	0	599	556	1021	0	0	0	
9	0	0	0	0	601	556	1021	0	0	0	
10	0	0	0	0	602	557	1021	0	0	0	
11	0	0	0	0	601	557	1021	0	0	0	
12	0	0	0	0	600	557	1021	0	0	0	
13	0	0	0	0	596	556	1021	0	0	0	
14	0	0	0	0	591	555	1021	0	0	0	
15	0	0	0	0	586	553	1021	0	0	0	
0	0	0	0	0	579	551	1021	0	0	0	
1	0	0	0	0	573	549	1021	0	0	0	
2	0	0	0	0	568	546	1021	0	0	0	
3	0	0	0	0	563	543	1021	0	0	0	
4	0	0	0	0	560	541	1021	0	0	0	
5	0	0	0	0	558	540	1021	0	0	0	
6	0	0	0	0	559	539	1021	0	0	0	
7	0	0	0	0	561	540	1021	0	0	0	
8	0	0	0	0	566	542	1021	0	0	0	
9	0	0	0	0	572	544	1021	0	0	0	
10	0	0	0	0	579	547	1021	0	0	0	
11	0	0	0	0	585	551	1020	0	0	0	
12	0	0	0	0	592	553	1021	0	0	0	
13	0	0	0	0	596	555	1021	0	0	0	
14	0	0	0	0	598	555	1021	0	0	0	
15	0	0	0	0	599	554	1021	0	0	0	
0	0	0	0	0	596	552	1021	0	0	0	
1	0	0	0	0	593	550	1021	0	0	0	
2	0	0	0	0	590	549	1021	0	0	0	
3	0	0	0	0	587	547	1021	0	0	0	
4	0	0	0	0	583	547	1021	0	0	0	
5	0	0	0	0	581	547	1021	0	0	0	
6	0	0	0	0	580	546	1021	0	0	0	
7	0	0	0	0	579	545	1021	0	0	0	
8	0	0	0	0	579	543	1021	0	0	0	
9	0	0	0	0	579	542	1021	0	0	0	
10	0	0	0	0	580	540	1021	0	0	0	
11	0	0	0	0	581	537	1021	0	0	0	
12	0	0	0	0	582	536	1021	0	0	0	
13	0	0	0	0	583	534	1021	0	0	0	
14	0	0	0	0	583	533	1021	0	0	0	
15	0	0	0	0	583	534	1021	0	0	0	
0	0	0	0	0	585	534	1021	0	0	0	
1	0	0	0	0	586	536	1021	0	0	0	
2	0	0	0	0	586	538	1021	0	0	0	
3	0	0	0	0	587	540	1021	0	0	0	
4	0	0	0	0	586	543	1021	0	0	0	
5	0	0	0	0	585	545	1021	0	0	0	
6	0	0	0	0	585	547	1021	0	0	0	
7	0	0	0	0	585	550	1021	0	0	0	
8	0	0	0	0	584	551	1021	0	0	0	
9	0	0	0	0	583	552	1021	0	0	0	
10	0	0	0	0	583	552	1021	0	0	0	
11	0	0	0	0	582	551	1021	0	0	0	
12	0	0	0	0	580	551	1021	0	0	0	
13	0	0	0	0	579	548	1021	0	0	0	
14	0	0	0	0	577	545	1021	0	0	0	
15	0	0	0	0	575	542	1021	0	0	0	
0	0	0	0	0	572	538	1021	0	0	0	
1	0	0	0	0	569	534	1021	0	0	0	
2	0	0	0	0	567	531	1021	0	0	0	
3	0	0	0	0	565	528	1021	0	0	0	
4	0	0	0	0	563	527	1021	0	0	0	
5	0	0	0	0	563	527	1021	0	0	0	
6	0	0	0	0	563	529	1021	0	0	0	
7	0	0	0	0	565	532	1021	0	0	0	
8	0	0	0	0	567	536	1021	0	0	0	
9	0	0	0	0	569	541	1021	0	0	0	
10	0	0	0	0	572	545	1021	0	0	0	
11	0	0	0	0	574	548	1021	0	0	0	
12	0	0	0	0	574	550	1021	0	0	0	
13	0	0	0	0	572	550	1021	0	0	0	
14	0	0	0	0	569	548	1021	0	0	0	
15	0	0	0	0	564	543	1021	0	0	0	
0	0	0	0	0	558	538	1021	0	0	0	
1	0	0	0	0	551	530	1021	0	0	0	
2	0	0	0	0	544	524	1021	0	0	0	
3	0	0	0	0	539	516	1021	0	0	0	
4	0	0	0	0	535	511	1021	0	0	0	
5	0	0	0	0	533	507	1021	0	0	0	
6	0	0	0	0	534	504	1021	0	0	0	
7	0	0	0	0	536	504	1021	0	0	0	
8	0	0	0	0	540	505	1021	0	0	0	
9	0	0	0	0	547	508	1021	0	0	0	
10	0	0	0	0	555	514	1021	0	0	0	
11	0	0	0	0	564	521	1021	0	0	0	
12	0	0	0	0	575	530	1021	0	0	0	
13	0	0	0	0	586	539	1021	0	0	0	
14	0	0	0	0	596	547	1021	0	0	0	
15	0	0	0	0	605	553	1021	0	0	0	
0	0	0	0	0	611	558	1021	0	0	0	
1	0	0	0	0	614	559	1021	0	0	0	
2	0	0	0	0	615	558	1021	0	0	0	
3	0	0	0	0	612	553	1021	0	0	0	
4	0	0	0	0	608	547	1021	0	0	0	
5	0	0	0	0	603	540	1021	0	0	0	
6	0	0	0	0	596	533	1021	0	0	0	
7	0	0	0	0	590	525	1021	0	0	0	
8	0	0	0	0	585	519	1021	0	0	0	
9	0	0	0	0	580	514	1021	0	0	0	
10	0	0	0	0	576	510	1021	0	0	0	
11	0	0	0	0	573	507	1021	0	0	0	
12	0	0	0	0	569	505	1021	0	0	0	
13	0	0	0	0	567	504	1021	0	0	0	
14	0	0	0	0	564	505	1021	0	0	0	
15	0	0	0	0	561	506	1021	0	0	0	
0	0	0	0	0	559	508	1021	0	0	0	
1	0	0	0	0	558	511	1021	0	0	0	
2	0	0	0	0	558	514	1021	0	0	0	
3	0	0	0	0	559	518	1021	0	0	0	
4	0	0	0	0	560	522	1021	0	0	0	
5	0	0	0	0	563	526	1021	0	0	0	
6	0	0	0	0	567	529	1021	0	0	0	
7	0	0	0	0	571	531	1021	0	0	0	
8	0	0	0	0	575	532	1021	0	0	0	
9	0	0	0	0	579	532	1021	0	0	0	
10	0	0	0	0	583	532	1021	0	0	0	
11	0	0	0	0	586	531	1021	0	0	0	
12	0	0	0	0	589	529	1021	0	0	0	
13	0	0	0	0	590	528	1021	0	0	0	
14	0	0	0	0	590	526	1021	0	0	0	
15	0	0	0	0	589	525	1021	0	0	0	
0	0	0	0	0	586	524	1021	0	0	0	
1	0	0	0	0	583	523	1021	0	0	0	
2	0	0	0	0	579	524	1021	0	0	0	
3	0	0	0	0	574	524	1021	0	0	0	
4	0	0	0	0	569	526	1020	0	0	0	
5	0	0	0	0	564	527	1021	0	0	0	
6	0	0	0	0	560	528	1021	0	0	0	
7	0	0	0	0	556	531	1021	0	0	0	
8	0	0	0	0	553	532	1021	0	0	0	
9	0	0	0	0	551	535	1021	0	0	0	
10	0	0	0	0	551	536	1021	0	0	0	
11	0	0	0	0	552	538	1021	0	0	0	
12	0	0	0	0	554	539	1021	0	0	0	
13	0	0	0	0	557	540	1021	0	0	0	
14	0	0	0	0	560	539	1021	0	0	0	
15	0	0	0	0	562	538	1021	0	0	0	
0	0	0	0	0	565	536	1021	0	0	0	
1	0	0	0	0	566	533	1021	0	0	0	
2	0	0	0	0	567	530	1021	0	0	0	
3	0	0	0	0	566	526	1020	0	0	0	
4	0	0	0	0	564	523	1021	0	0	0	
5	0	0	0	0	563	519	1021	0	0	0	
6	0	0	0	0	562	518	1021	0	0	0	
7	0	0	0	0	561	517	1021	0	0	0	
8	0	0	0	0	560	518	1021	0	0	0	
9	0	0	0	0	561	521	1021	0	0	0	
10	0	0	0	0	563	524	1021	0	0	0	
11	0	0	0	0	566	528	1021	0	0	0	
12	0	0	0	0	568	533	1021	0	0	0	
13	0	0	0	0	571	537	1021	0	0	0	
14	0	0	0	0	574	540	1021	0	0	0	
15	0	0	0	0	576	543	1021	0	0	0	
0	0	0	0	0	578	544	1021	0	0	0	
1	0	0	0	0	579	543	1021	0	0	0	
2	0	0	0	0	580	543	1020	0	0	0	
3	0	0	0	0	580	542	1021	0	0	0	
4	0	0	0	0	580	539	1021	0	0	0	
5	0	0	0	0	579	536	1021	0	0	0	
6	0	0	0	0	577	533	1021	0	0	0	
7	0	0	0	0	576	531	1021	0	0	0	
8	0	0	0	0	574	528	1021	0	0	0	
9	0	0	0	0	574	527	1021	0	0	0	
10	0	0	0	0	573	527	1021	0	0	0	
11	0	0	0	0	572	527	1021	0	0	0	
12	0	0	0	0	571	528	1021	0	0	0	
13	0	0	0	0	571	529	1021	0	0	0	
14	0	0	0	0	571	531	1021	0	0	0	
15	0	0	0	0	571	532	1021	0	0	0	
0	0	0	0	0	570	534	1021	0	0	0	
1	0	0	0	0	570	534	1021	0	0	0	
2	0	0	0	0	569	532	1021	0	0	0	
3	0	0	0	0	568	529	1021	0	0	0	
4	0	0	0	0	566	525	1021	0	0	0	
5	0	0	0	0	561	517	1021	0	0	0	
6	0	0	0	0	553	507	1021	0	0	0	
7	0	0	0	0	544	494	1021	0	0	0	
8	0	0	0	0	533	479	1021	0	0	0	
9	0	0	0	0	520	463	1021	0	0	0	
10	0	0	0	0	506	447	1021	0	0	0	
11	0	0	0	0	492	431	1021	0	0	0	
12	0	0	0	0	478	416	1021	0	0	0	
13	0	0	0	0	465	403	1021	0	0	0	
14	0	0	0	0	452	391	1021	0	0	0	
15	0	0	0	0	441	380	1021	0	0	0	
0	0	0	0	0	431	371	1021	0	0	0	
1	0	0	0	0	422	364	1021	0	0	0	
2	0	0	0	0	415	358	1021	0	0	0	
3	0	0	0	0	410	354	1021	0	0	0	
4	0	0	0	0	406	351	1021	0	0	0	
5	0	0	0	0	403	347	1021	0	0	0	
6	0	0	0	0	401	344	1021	0	0	0	
7	0	0	0	0	400	341	1021	0	0	0	
8	0	0	0	0	399	337	1021	0	0	0	
9	0	0	0	0	398	333	1021	0	0	0	
10	0	0	0	0	398	328	1021	0	0	0	
11	0	0	0	0	397	324	1021	0	0	0	
12	0	0	0	0	398	320	1021	0	0	0	
13	0	0	0	0	399	318	1021	0	0	0	
14	0	0	0	0	402	319	1021	0	0	0	
15	0	0	0	0	407	323	1021	0	0	0	
0	0	0	0	0	415	330	1020	0	0	0	
1	0	0	0	0	425	342	1021	0	0	0	
2	0	0	0	0	439	357	1021	0	0	0	
3	0	0	0	0	455	375	1021	0	0	0	
4	0	0	0	0	472	395	1021	0	0	0	
5	0	0	0	0	490	417	1021	0	0	0	
6	0	0	0	0	508	439	1021	0	0	0	
7	0	0	0	0	526	460	1021	0	0	0	
8	0	0	0	0	543	480	1021	0	0	0	
9	0	0	0	0	557	497	1021	0	0	0	
10	0	0	0	0	569	512	1021	0	0	0	
11	0	0	0	0	578	522	1021	0	0	0	
12	0	0	0	0	583	529	1021	0	0	0	
13	0	0	0	0	585	531	1021	0	0	0	
14	0	0	0	0	583	531	1021	0	0	0	
15	0	0	0	0	579	527	1021	0	0	0	
0	0	0	0	0	574	522	1021	0	0	0	
1	0	0	0	0	567	516	1021	0	0	0	
2	0	0	0	0	559	510	1021	0	0	0	
3	0	0	0	0	552	505	1021	0	0	0	
4	0	0	0	0	547	501	1021	0	0	0	
5	0	0	0	0	545	499	1021	0	0	0	
6	0	0	0	0	545	501	1021	0	0	0	
7	0	0	0	0	549	505	1021	0	0	0	
8	0	0	0	0	555	511	1021	0	0	0	
9	0	0	0	0	564	520	1021	0	0	0	
10	0	0	0	0	575	529	1021	0	0	0	
11	0	0	0	0	587	541	1021	0	0	0	
12	0	0	0	0	599	551	1021	0	0	0	
13	0	0	0	0	611	561	1021	0	0	0	
14	0	0	0	0	620	569	1021	0	0	0	
15	0	0	0	0	627	575	1021	0	0	0	
0	0	0	0	0	631	578	1021	0	0	0	
1	0	0	0	0	632	578	1021	0	0	0	
2	0	0	0	0	628	574	1021	0	0	0	
3	0	0	0	0	621	568	1021	0	0	0	
4	0	0	0	0	612	558	1021	0	0	0	
5	0	0	0	0	600	548	1021	0	0	0	
6	0	0	0	0	588	537	1021	0	0	0	
7	0	0	0	0	577	527	1021	0	0	0	
8	0	0	0	0	567	519	1021	0	0	0	
9	0	0	0	0	559	513	1021	0	0	0	
10	0	0	0	0	554	510	1021	0	0	0	
11	0	0	0	0	551	510	1021	0	0	0	
12	0	0	0	0	552	512	1021	0	0	0	
13	0	0	0	0	556	516	1021	0	0	0	
14	0	0	0	0	562	521	1021	0	0	0	
15	0	0	0	0	569	528	1021	0	0	0	
0	0	0	0	0	577	534	1021	0	0	0	
1	0	0	0	0	585	539	1020	0	0	0	
2	0	0	0	0	591	541	1021	0	0	0	
3	0	0	0	0	595	541	1021	0	0	0	
4	0	0	0	0	596	539	1021	0	0	0	
5	0	0	0	0	595	533	1021	0	0	0	
6	0	0	0	0	591	526	1021	0	0	0	
7	0	0	0	0	585	517	1021	0	0	0	
8	0	0	0	0	579	507	1021	0	0	0	
9	0	0	0	0	572	498	1021	0	0	0	
10	0	0	0	0	564	489	1021	0	0	0	
11	0	0	0	0	558	483	1021	0	0	0	
12	0	0	0	0	553	478	1021	0	0	0	
13	0	0	0	0	550	476	1021	0	0	0	
14	0	0	0	0	548	476	1021	0	0	0	
15	0	0	0	0	548	478	1021	0	0	0	
0	0	0	0	0	550	482	1021	0	0	0	
1	0	0	0	0	553	488	1021	0	0	0	
2	0	0	0	0	557	495	1021	0	0	0	
3	0	0	0	0	562	503	1021	0	0	0	
4	0	0	0	0	568	510	1021	0	0	0	
5	0	0	0	0	574	518	1021	0	0	0	
6	0	0	0	0	580	524	1021	0	0	0	
7	0	0	0	0	586	529	1021	0	0	0	
8	0	0	0	0	591	533	1021	0	0	0	
9	0	0	0	0	594	534	1021	0	0	0	
10	0	0	0	0	596	535	1021	0	0	0	
11	0	0	0	0	597	533	1021	0	0	0	
12	0	0	0	0	595	530	1021	0	0	0	
13	0	0	0	0	593	526	1021	0	0	0	
14	0	0	0	0	589	522	1021	0	0	0	
15	0	0	0	0	585	518	1021	0	0	0	
0	0	0	0	0	582	515	1021	0	0	0	
1	0	0	0	0	578	513	1021	0	0	0	
2	0	0	0	0	575	512	1021	0	0	0	
3	0	0	0	0	573	513	1021	0	0	0	
4	0	0	0	0	573	516	1021	0	0	0	
5	0	0	0	0	574	519	1021	0	0	0	
6	0	0	0	0	576	525	1021	0	0	0	
7	0	0	0	0	579	530	1021	0	0	0	
8	0	0	0	0	583	535	1021	0	0	0	
9	0	0	0	0	586	539	1021	0	0	0	
10	0	0	0	0	590	541	1021	0	0	0	
11	0	0	0	0	592	543	1021	0	0	0	
12	0	0	0	0	594	543	1021	0	0	0	
13	0	0	0	0	595	542	1021	0	0	0	
14	0	0	0	0	595	540	1021	0	0	0	
15	0	0	0	0	595	536	1021	0	0	0	
0	0	0	0	0	593	531	1021	0	0	0	
1	0	0	0	0	591	527	1021	0	0	0	
2	0	0	0	0	589	523	1021	0	0	0	
3	0	0	0	0	588	520	1021	0	0	0	
4	0	0	0	0	587	519	1021	0	0	0	
5	0	0	0	0	588	519	1021	0	0	0	
6	0	0	0	0	588	521	1021	0	0	0	
7	0	0	0	0	590	525	1021	0	0	0	
8	0	0	0	0	593	529	1021	0	0	0	
9	0	0	0	0	595	534	1021	0	0	0	
10	0	0	0	0	598	539	1021	0	0	0	
11	0	0	0	0	600	543	1021	0	0	0	
12	0	0	0	0	601	546	1021	0	0	0	
13	0	0	0	0	602	548	1021	0	0	0	
14	0	0	0	0	601	548	1021	0	0	0	
15	0	0	0	0	600	547	1021	0	0	0	
0	0	0	0	0	596	543	1021	0	0	0	
1	0	0	0	0	592	539	1021	0	0	0	
2	0	0	0	0	586	532	1021	0	0	0	
3	0	0	0	0	580	525	1021	0	0	0	
4	0	0	0	0	573	518	1021	0	0	0	
5	0	0	0	0	565	512	1021	0	0	0	
6	0	0	0	0	559	506	1021	0	0	0	
7	0	0	0	0	553	501	1021	0	0	0	
8	0	0	0	0	549	498	1021	0	0	0	
9	0	0	0	0	546	496	1021	0	0	0	
10	0	0	0	0	544	496	1021	0	0	0	
11	0	0	0	0	545	498	1021	0	0	0	
12	0	0	0	0	547	501	1021	0	0	0	
13	0	0	0	0	551	504	1021	0	0	0	
14	0	0	0	0	554	507	1021	0	0	0	
15	0	0	0	0	557	509	1021	0	0	0	
0	0	0	0	0	560	510	1021	0	0	0	
1	0	0	0	0	562	510	1021	0	0	0	
2	0	0	0	0	564	509	1021	0	0	0	
3	0	0	0	0	565	508	1021	0	0	0	
4	0	0	0	0	566	506	1021	0	0	0	
5	0	0	0	0	567	504	1021	0	0	0	
6	0	0	0	0	567	502	1021	0	0	0	
7	0	0	0	0	568	500	1021	0	0	0	
8	0	0	0	0	569	499	1021	0	0	0	
9	0	0	0	0	571	499	1021	0	0	0	
10	0	0	0	0	572	501	1021	0	0	0	
11	0	0	0	0	575	503	1021	0	0	0	
12	0	0	0	0	578	507	1021	0	0	0	
13	0	0	0	0	582	511	1021	0	0	0	
14	0	0	0	0	585	516	1021	0	0	0	
15	0	0	0	0	588	522	1021	0	0	0	
0	0	0	0	0	591	527	1021	0	0	0	
1	0	0	0	0	593	532	1021	0	0	0	
2	0	0	0	0	595	537	1021	0	0	0	
3	0	0	0	0	596	540	1021	0	0	0	
4	0	0	0	0	598	544	1021	0	0	0	
5	0	0	0	0	599	547	1021	0	0	0	
6	0	0	0	0	600	548	1021	0	0	0	
7	0	0	0	0	600	548	1021	0	0	0	
8	0	0	0	0	599	547	1021	0	0	0	
9	0	0	0	0	599	545	1021	0	0	0	
10	0	0	0	0	597	542	1021	0	0	0	
11	0	0	0	0	596	539	1021	0	0	0	
12	0	0	0	0	596	537	1021	0	0	0	
13	0	0	0	0	595	535	1021	0	0	0	
14	0	0	0	0	595	533	1021	0	0	0	
15	0	0	0	0	595	531	1021	0	0	0	
0	0	0	0	0	594	531	1021	0	0	0	
1	0	0	0	0	594	531	1021	0	0	0	
2	0	0	0	0	593	532	1021	0	0	0	
3	0	0	0	0	593	533	1021	0	0	0	
4	0	0	0	0	591	535	1021	0	0	0	
5	0	0	0	0	591	537	1021	0	0	0	
6	0	0	0	0	590	540	1021	0	0	0	
7	0	0	0	0	589	542	1021	0	0	0	
8	0	0	0	0	588	543	1021	0	0	0	
9	0	0	0	0	587	544	1021	0	0	0	
10	0	0	0	0	585	545	1021	0	0	0	
11	0	0	0	0	583	543	1021	0	0	0	
12	0	0	0	0	580	540	1021	0	0	0	
13	0	0	0	0	577	537	1021	0	0	0	
14	0	0	0	0	574	533	1021	0	0	0	
15	0	0	0	0	571	529	1021	0	0	0	
0	0	0	0	0	568	525	1021	0	0	0	
1	0	0	0	0	567	524	1021	0	0	0	
2	0	0	0	0	568	523	1021	0	0	0	
3	0	0	0	0	569	524	1021	0	0	0	
4	0	0	0	0	572	528	1021	0	0	0	
5	0	0	0	0	578	534	1021	0	0	0	
6	0	0	0	0	585	542	1021	0	0	0	
7	0	0	0	0	593	552	1021	0	0	0	
8	0	0	0	0	602	563	1021	0	0	0	
9	0	0	0	0	612	576	1021	0	0	0	
10	0	0	0	0	623	588	1021	0	0	0	
11	0	0	0	0	634	601	1021	0	0	0	
12	0	0	0	0	644	613	1021	0	0	0	
13	0	0	0	0	653	623	1021	0	0	0	
14	0	0	0	0	659	629	1021	0	0	0	
15	0	0	0	0	662	632	1021	0	0	0	
0	0	0	0	0	662	629	1021	0	0	0	
1	0	0	0	0	656	622	1021	0	0	0	
2	0	0	0	0	646	609	1021	0	0	0	
3	0	0	0	0	632	593	1021	0	0	0	
4	0	0	0	0	615	573	1021	0	0	0	
5	0	0	0	0	595	552	1021	0	0	0	
6	0	0	0	0	575	531	1021	0	0	0	
7	0	0	0	0	555	512	1021	0	0	0	
8	0	0	0	0	537	495	1021	0	0	0	
9	0	0	0	0	521	482	1021	0	0	0	
10	0	0	0	0	508	471	1021	0	0	0	
11	0	0	0	0	499	464	1021	0	0	0	
12	0	0	0	0	491	460	1021	0	0	0	
13	0	0	0	0	486	457	1021	0	0	0	
14	0	0	0	0	484	458	1021	0	0	0	
15	0	0	0	0	486	461	1021	0	0	0	
0	0	0	0	0	490	467	1021	0	0	0	
1	0	0	0	0	497	473	1021	0	0	0	
2	0	0	0	0	507	482	1021	0	0	0	
3	0	0	0	0	519	490	1021	0	0	0	
4	0	0	0	0	531	499	1021	0	0	0	
5	0	0	0	0	545	507	1021	0	0	0	
6	0	0	0	0	559	515	1021	0	0	0	
7	0	0	0	0	572	523	1021	0	0	0	
8	0	0	0	0	583	528	1021	0	0	0	
9	0	0	0	0	592	533	1021	0	0	0	
10	0	0	0	0	601	537	1021	0	0	0	
11	0	0	0	0	607	541	1021	0	0	0	
12	0	0	0	0	611	545	1021	0	0	0	
13	0	0	0	0	615	549	1021	0	0	0	
14	0	0	0	0	617	553	1021	0	0	0	
15	0	0	0	0	618	558	1021	0	0	0	
0	0	0	0	0	618	561	1021	0	0	0	
1	0	0	0	0	616	565	1021	0	0	0	
2	0	0	0	0	614	568	1021	0	0	0	
3	0	0	0	0	610	571	1021	0	0	0	
4	0	0	0	0	607	573	1021	0	0	0	
5	0	0	0	0	604	574	1021	0	0	0	
6	0	0	0	0	601	575	1021	0	0	0	
7	0	0	0	0	599	573	1021	0	0	0	
8	0	0	0	0	595	570	1021	0	0	0	
9	0	0	0	0	592	566	1021	0	0	0	
10	0	0	0	0	587	559	1021	0	0	0	
11	0	0	0	0	582	552	1021	0	0	0	
12	0	0	0	0	576	544	1021	0	0	0	
13	0	0	0	0	572	537	1021	0	0	0	
14	0	0	0	0	568	531	1021	0	0	0	
15	0	0	0	0	566	527	1020	0	0	0	
0	0	0	0	0	567	526	1021	0	0	0	
1	0	0	0	0	569	527	1021	0	0	0	
2	0	0	0	0	573	530	1021	0	0	0	
3	0	0	0	0	579	536	1021	0	0	0	
4	0	0	0	0	586	544	1021	0	0	0	
5	0	0	0	0	593	553	1021	0	0	0	
6	0	0	0	0	601	562	1021	0	0	0	
7	0	0	0	0	609	572	1021	0	0	0	
8	0	0	0	0	616	581	1021	0	0	0	
9	0	0	0	0	622	588	1021	0	0	0	
10	0	0	0	0	625	593	1021	0	0	0	
11	0	0	0	0	627	596	1021	0	0	0	
12	0	0	0	0	627	596	1021	0	0	0	
13	0	0	0	0	626	594	1021	0	0	0	
14	0	0	0	0	622	590	1021	0	0	0	
15	0	0	0	0	616	584	1021	0	0	0	
0	0	0	0	0	610	576	1021	0	0	0	
1	0	0	0	0	602	568	1021	0	0	0	
2	0	0	0	0	594	560	1021	0	0	0	
3	0	0	0	0	586	553	1021	0	0	0	
4	0	0	0	0	579	547	1021	0	0	0	
5	0	0	0	0	574	543	1021	0	0	0	
6	0	0	0	0	569	540	1021	0	0	0	
7	0	0	0	0	564	539	1021	0	0	0	
8	0	0	0	0	561	538	1021	0	0	0	
9	0	0	0	0	558	538	1021	0	0	0	
10	0	0	0	0	556	539	1021	0	0	0	
11	0	0	0	0	553	540	1021	0	0	0	
12	0	0	0	0	551	539	1021	0	0	0	
13	0	0	0	0	548	539	1021	0	0	0	
14	0	0	0	0	546	537	1021	0	0	0	
15	0	0	0	0	544	536	1021	0	0	0	
0	0	0	0	0	543	533	1021	0	0	0	
1	0	0	0	0	543	531	1021	0	0	0	
2	0	0	0	0	544	529	1021	0	0	0	
3	0	0	0	0	547	528	1021	0	0	0	
4	0	0	0	0	553	528	1021	0	0	0	
5	0	0	0	0	560	530	1021	0	0	0	
6	0	0	0	0	569	534	1021	0	0	0	
7	0	0	0	0	580	539	1021	0	0	0	
8	0	0	0	0	592	546	1021	0	0	0	
9	0	0	0	0	605	555	1021	0	0	0	
10	0	0	0	0	618	564	1021	0	0	0	
11	0	0	0	0	628	572	1021	0	0	0	
12	0	0	0	0	637	580	1021	0	0	0	
13	0	0	0	0	642	585	1021	0	0	0	
14	0	0	0	0	644	588	1021	0	0	0	
15	0	0	0	0	641	589	1021	0	0	0	
0	0	0	0	0	635	587	1021	0	0	0	
1	0	0	0	0	625	582	1021	0	0	0	
2	0	0	0	0	614	575	1021	0	0	0	
3	0	0	0	0	601	566	1021	0	0	0	
4	0	0	0	0	588	557	1021	0	0	0	
5	0	0	0	0	575	547	1021	0	0	0	
6	0	0	0	0	564	539	1021	0	0	0	
7	0	0	0	0	556	532	1021	0	0	0	
8	0	0	0	0	551	526	1021	0	0	0	
9	0	0	0	0	548	523	1021	0	0	0	
10	0	0	0	0	549	522	1021	0	0	0	
11	0	0	0	0	552	524	1020	0	0	0	
12	0	0	0	0	558	527	1021	0	0	0	
13	0	0	0	0	565	533	1021	0	0	0	
14	0	0	0	0	574	540	1021	0	0	0	
15	0	0	0	0	582	548	1021	0	0	0	
0	0	0	0	0	589	556	1021	0	0	0	
1	0	0	0	0	595	563	1021	0	0	0	
2	0	0	0	0	601	570	1021	0	0	0	
3	0	0	0	0	605	575	1021	0	0	0	
4	0	0	0	0	607	579	1021	0	0	0	
5	0	0	0	0	607	579	1021	0	0	0	
6	0	0	0	0	604	579	1021	0	0	0	
7	0	0	0	0	600	576	1021	0	0	0	
8	0	0	0	0	595	571	1021	0	0	0	
9	0	0	0	0	590	565	1021	0	0	0	
10	0	0	0	0	583	559	1021	0	0	0	
11	0	0	0	0	578	552	1021	0	0	0	
12	0	0	0	0	573	546	1021	0	0	0	
13	0	0	0	0	568	540	1021	0	0	0	
14	0	0	0	0	565	536	1021	0	0	0	
15	0	0	0	0	563	533	1021	0	0	0	
0	0	0	0	0	562	532	1021	0	0	0	
1	0	0	0	0	564	534	1021	0	0	0	
2	0	0	0	0	567	537	1021	0	0	0	
3	0	0	0	0	571	543	1021	0	0	0	
4	0	0	0	0	576	550	1021	0	0	0	
5	0	0	0	0	583	558	1021	0	0	0	
6	0	0	0	0	591	567	1021	0	0	0	
7	0	0	0	0	598	576	1021	0	0	0	
8	0	0	0	0	604	585	1021	0	0	0	
9	0	0	0	0	611	592	1021	0	0	0	
10	0	0	0	0	616	598	1021	0	0	0	
11	0	0	0	0	620	602	1021	0	0	0	
12	0	0	0	0	621	603	1021	0	0	0	
13	0	0	0	0	620	602	1021	0	0	0	
14	0	0	0	0	616	598	1021	0	0	0	
15	0	0	0	0	609	591	1021	0	0	0	
0	0	0	0	0	600	582	1021	0	0	0	
1	0	0	0	0	588	571	1021	0	0	0	
2	0	0	0	0	574	558	1021	0	0	0	
3	0	0	0	0	560	545	1020	0	0	0	
4	0	0	0	0	546	533	1021	0	0	0	
5	0	0	0	0	534	521	1021	0	0	0	
6	0	0	0	0	523	512	1021	0	0	0	
7	0	0	0	0	515	505	1021	0	0	0	
8	0	0	0	0	509	501	1021	0	0	0	
9	0	0	0	0	508	499	1021	0	0	0	
10	0	0	0	0	510	501	1021	0	0	0	
11	0	0	0	0	516	505	1021	0	0	0	
12	0	0	0	0	525	512	1021	0	0	0	
13	0	0	0	0	537	520	1021	0	0	0	
14	0	0	0	0	551	529	1021	0	0	0	
15	0	0	0	0	565	538	1021	0	0	0	
0	0	0	0	0	579	546	1021	0	0	0	
1	0	0	0	0	592	553	1021	0	0	0	
2	0	0	0	0	602	559	1021	0	0	0	
3	0	0	0	0	609	562	1021	0	0	0	
4	0	0	0	0	614	563	1021	0	0	0	
5	0	0	0	0	616	564	1021	0	0	0	
6	0	0	0	0	616	563	1021	0	0	0	
7	0	0	0	0	614	563	1021	0	0	0	
8	0	0	0	0	612	562	1021	0	0	0	
9	0	0	0	0	608	562	1021	0	0	0	
10	0	0	0	0	603	561	1021	0	0	0	
11	0	0	0	0	598	560	1021	0	0	0	
12	0	0	0	0	593	559	1021	0	0	0	
13	0	0	0	0	588	558	1021	0	0	0	
14	0	0	0	0	583	557	1021	0	0	0	
15	0	0	0	0	579	556	1021	0	0	0	
0	0	0	0	0	576	555	1021	0	0	0	
1	0	0	0	0	574	553	1021	0	0	0	
2	0	0	0	0	572	552	1020	0	0	0	
3	0	0	0	0	571	550	1021	0	0	0	
4	0	0	0	0	571	547	1021	0	0	0	
5	0	0	0	0	571	545	1021	0	0	0	
6	0	0	0	0	572	544	1021	0	0	0	
7	0	0	0	0	573	543	1021	0	0	0	
8	0	0	0	0	575	542	1021	0	0	0	
9	0	0	0	0	578	543	1021	0	0	0	
10	0	0	0	0	582	544	1021	0	0	0	
11	0	0	0	0	586	547	1021	0	0	0	
12	0	0	0	0	590	551	1021	0	0	0	
13	0	0	0	0	594	555	1021	0	0	0	
14	0	0	0	0	599	560	1021	0	0	0	
15	0	0	0	0	603	566	1021	0	0	0	
0	0	0	0	0	607	571	1021	0	0	0	
1	0	0	0	0	611	577	1021	0	0	0	
2	0	0	0	0	615	583	1021	0	0	0	
3	0	0	0	0	619	588	1021	0	0	0	
4	0	0	0	0	622	591	1021	0	0	0	
5	0	0	0	0	623	593	1021	0	0	0	
6	0	0	0	0	622	593	1021	0	0	0	
7	0	0	0	0	621	592	1021	0	0	0	
8	0	0	0	0	618	589	1021	0	0	0	
9	0	0	0	0	614	585	1021	0	0	0	
10	0	0	0	0	611	582	1021	0	0	0	
11	0	0	0	0	607	577	1021	0	0	0	
12	0	0	0	0	604	574	1021	0	0	0	
13	0	0	0	0	602	571	1021	0	0	0	
14	0	0	0	0	600	570	1021	0	0	0	
15	0	0	0	0	600	570	1021	0	0	0	
0	0	0	0	0	600	572	1021	0	0	0	
1	0	0	0	0	600	574	1021	0	0	0	
2	0	0	0	0	602	578	1021	0	0	0	
3	0	0	0	0	604	583	1021	0	0	0	
4	0	0	0	0	606	587	1021	0	0	0	
5	0	0	0	0	608	590	1021	0	0	0	
6	0	0	0	0	610	593	1021	0	0	0	
7	0	0	0	0	611	594	1021	0	0	0	
8	0	0	0	0	613	593	1021	0	0	0	
9	0	0	0	0	613	591	1021	0	0	0	
10	0	0	0	0	613	588	1021	0	0	0	
11	0	0	0	0	611	582	1021	0	0	0	
12	0	0	0	0	608	575	1021	0	0	0	
13	0	0	0	0	604	566	1021	0	0	0	
14	0	0	0	0	598	557	1021	0	0	0	
15	0	0	0	0	592	547	1021	0	0	0	
0	0	0	0	0	585	540	1021	0	0	0	
1	0	0	0	0	578	533	1021	0	0	0	
2	0	0	0	0	572	528	1021	0	0	0	
3	0	0	0	0	567	525	1021	0	0	0	
4	0	0	0	0	563	524	1021	0	0	0	
5	0	0	0	0	560	526	1021	0	0	0	
6	0	0	0	0	559	530	1021	0	0	0	
7	0	0	0	0	560	536	1021	0	0	0	
8	0	0	0	0	563	543	1021	0	0	0	
9	0	0	0	0	567	550	1021	0	0	0	
10	0	0	0	0	571	557	1021	0	0	0	
11	0	0	0	0	575	564	1021	0	0	0	
12	0	0	0	0	579	568	1021	0	0	0	
13	0	0	0	0	582	572	1021	0	0	0	
14	0	0	0	0	585	574	1021	0	0	0	
15	0	0	0	0	586	574	1021	0	0	0	
0	0	0	0	0	586	572	1021	0	0	0	
1	0	0	0	0	585	568	1021	0	0	0	
2	0	0	0	0	583	563	1021	0	0	0	
3	0	0	0	0	581	558	1021	0	0	0	
4	0	0	0	0	578	554	1021	0	0	0	
5	0	0	0	0	576	550	1021	0	0	0	
6	0	0	0	0	575	547	1021	0	0	0	
7	0	0	0	0	574	545	1021	0	0	0	
8	0	0	0	0	575	545	1021	0	0	0	
9	0	0	0	0	575	546	1021	0	0	0	
10	0	0	0	0	577	548	1021	0	0	0	
11	0	0	0	0	580	551	1021	0	0	0	
12	0	0	0	0	583	556	1021	0	0	0	
13	0	0	0	0	586	560	1021	0	0	0	
14	0	0	0	0	590	565	1021	0	0	0	
15	0	0	0	0	593	569	1021	0	0	0	
0	0	0	0	0	596	574	1021	0	0	0	
1	0	0	0	0	599	576	1021	0	0	0	
2	0	0	0	0	601	579	1021	0	0	0	
3	0	0	0	0	603	579	1021	0	0	0	
4	0	0	0	0	604	580	1021	0	0	0	
5	0	0	0	0	605	579	1021	0	0	0	
6	0	0	0	0	606	577	1021	0	0	0	
7	0	0	0	0	606	575	1021	0	0	0	
8	0	0	0	0	606	573	1021	0	0	0	
9	0	0	0	0	606	571	1021	0	0	0	
10	0	0	0	0	606	569	1021	0	0	0	
11	0	0	0	0	606	568	1021	0	0	0	
12	0	0	0	0	605	567	1021	0	0	0	
13	0	0	0	0	605	567	1021	0	0	0	
14	0	0	0	0	605	568	1021	0	0	0	
15	0	0	0	0	605	568	1021	0	0	0	
0	0	0	0	0	604	569	1021	0	0	0	
1	0	0	0	0	604	572	1021	0	0	0	
2	0	0	0	0	604	573	1021	0	0	0	
3	0	0	0	0	603	575	1021	0	0	0	
4	0	0	0	0	602	577	1021	0	0	0	
5	0	0	0	0	600	577	1020	0	0	0	
6	0	0	0	0	597	578	1021	0	0	0	
7	0	0	0	0	595	578	1021	0	0	0	
8	0	0	0	0	593	578	1021	0	0	0	
9	0	0	0	0	591	577	1021	0	0	0	
10	0	0	0	0	588	577	1021	0	0	0	
11	0	0	0	0	588	577	1021	0	0	0	
12	0	0	0	0	588	578	1021	0	0	0	
13	0	0	0	0	590	579	1021	0	0	0	
14	0	0	0	0	592	580	1021	0	0	0	
15	0	0	0	0	595	581	1021	0	0	0	
0	0	0	0	0	598	582	1021	0	0	0	
1	0	0	0	0	601	583	1021	0	0	0	
2	0	0	0	0	604	582	1021	0	0	0	
3	0	0	0	0	606	581	1021	0	0	0	
4	0	0	0	0	608	579	1021	0	0	0	
5	0	0	0	0	607	575	1021	0	0	0	
6	0	0	0	0	606	571	1021	0	0	0	
7	0	0	0	0	604	567	1021	0	0	0	
8	0	0	0	0	600	561	1021	0	0	0	
9	0	0	0	0	595	555	1021	0	0	0	
10	0	0	0	0	589	548	1021	0	0	0	
11	0	0	0	0	582	540	1021	0	0	0	
12	0	0	0	0	574	533	1021	0	0	0	
13	0	0	0	0	566	526	1021	0	0	0	
14	0	0	0	0	558	519	1020	0	0	0	
15	0	0	0	0	551	513	1021	0	0	0	
0	0	0	0	0	544	508	1021	0	0	0	
1	0	0	0	0	539	505	1021	0	0	0	
2	0	0	0	0	535	503	1021	0	0	0	
3	0	0	0	0	533	502	1021	0	0	0	
4	0	0	0	0	531	504	1021	0	0	0	
5	0	0	0	0	533	506	1021	0	0	0	
6	0	0	0	0	536	511	1021	0	0	0	
7	0	0	0	0	541	517	1021	0	0	0	
8	0	0	0	0	547	524	1021	0	0	0	
9	0	0	0	0	555	533	1021	0	0	0	
10	0	0	0	0	564	542	1021	0	0	0	
11	0	0	0	0	574	550	1021	0	0	0	
12	0	0	0	0	583	559	1021	0	0	0	
13	0	0	0	0	593	567	1021	0	0	0	
14	0	0	0	0	603	574	1021	0	0	0	
15	0	0	0	0	611	579	1021	0	0	0	
0	0	0	0	0	617	582	1021	0	0	0	
1	0	0	0	0	622	583	1021	0	0	0	
2	0	0	0	0	624	583	1021	0	0	0	
3	0	0	0	0	623	581	1021	0	0	0	
4	0	0	0	0	621	577	1021	0	0	0	
5	0	0	0	0	616	572	1021	0	0	0	
6	0	0	0	0	611	567	1021	0	0	0	
7	0	0	0	0	605	561	1021	0	0	0	
8	0	0	0	0	598	556	1021	0	0	0	
9	0	0	0	0	591	551	1021	0	0	0	
10	0	0	0	0	586	548	1021	0	0	0	
11	0	0	0	0	581	546	1021	0	0	0	
12	0	0	0	0	576	545	1021	0	0	0	
13	0	0	0	0	574	545	1021	0	0	0	
14	0	0	0	0	572	545	1021	0	0	0	
15	0	0	0	0	571	547	1021	0	0	0	
0	0	0	0	0	571	548	1021	0	0	0	
1	0	0	0	0	572	550	1021	0	0	0	
2	0	0	0	0	574	551	1021	0	0	0	
3	0	0	0	0	576	552	1021	0	0	0	
4	0	0	0	0	579	553	1021	0	0	0	
5	0	0	0	0	583	555	1021	0	0	0	
6	0	0	0	0	587	556	1021	0	0	0	
7	0	0	0	0	591	558	1021	0	0	0	
8	0	0	0	0	598	561	1021	0	0	0	
9	0	0	0	0	604	564	1021	0	0	0	
10	0	0	0	0	611	569	1021	0	0	0	
11	0	0	0	0	619	575	1021	0	0	0	
12	0	0	0	0	627	583	1021	0	0	0	
13	0	0	0	0	635	591	1021	0	0	0	
14	0	0	0	0	643	600	1021	0	0	0	
15	0	0	0	0	651	608	1021	0	0	0	
0	0	0	0	0	657	617	1021	0	0	0	
1	0	0	0	0	663	624	1021	0	0	0	
2	0	0	0	0	667	629	1021	0	0	0	
3	0	0	0	0	668	633	1021	0	0	0	
4	0	0	0	0	668	634	1021	0	0	0	
5	0	0	0	0	664	631	1021	0	0	0	
6	0	0	0	0	656	625	1021	0	0	0	
7	0	0	0	0	647	615	1021	0	0	0	
8	0	0	0	0	633	601	1021	0	0	0	
9	0	0	0	0	617	586	1021	0	0	0	
10	0	0	0	0	600	569	1021	0	0	0	
11	0	0	0	0	583	552	1021	0	0	0	
12	0	0	0	0	567	537	1021	0	0	0	
13	0	0	0	0	552	524	1021	0	0	0	
14	0	0	0	0	542	514	1021	0	0	0	
15	0	0	0	0	535	507	1021	0	0	0	
0	0	0	0	0	531	504	1021	0	0	0	
1	0	0	0	0	533	505	1021	0	0	0	
2	0	0	0	0	539	510	1021	0	0	0	
3	0	0	0	0	547	517	1021	0	0	0	
4	0	0	0	0	556	524	1020	0	0	0	
5	0	0	0	0	566	533	1021	0	0	0	
6	0	0	0	0	576	541	1021	0	0	0	
7	0	0	0	0	584	547	1021	0	0	0	
8	0	0	0	0	591	552	1021	0	0	0	
9	0	0	0	0	595	556	1020	0	0	0	
10	0	0	0	0	598	558	1021	0	0	0	
11	0	0	0	0	600	558	1021	0	0	0	
12	0	0	0	0	600	558	1021	0	0	0	
13	0	0	0	0	601	557	1021	0	0	0	
14	0	0	0	0	602	556	1021	0	0	0	
15	0	0	0	0	603	555	1021	0	0	0	
0	0	0	0	0	604	553	1021	0	0	0	
1	0	0	0	0	604	552	1021	0	0	0	
2	0	0	0	0	604	551	1021	0	0	0	
3	0	0	0	0	603	549	1021	0	0	0	
4	0	0	0	0	600	547	1021	0	0	0	
5	0	0	0	0	596	543	1021	0	0	0	
6	0	0	0	0	591	540	1021	0	0	0	
7	0	0	0	0	583	535	1021	0	0	0	
8	0	0	0	0	575	529	1021	0	0	0	
9	0	0	0	0	565	523	1021	0	0	0	
10	0	0	0	0	555	516	1021	0	0	0	
11	0	0	0	0	544	508	1021	0	0	0	
12	0	0	0	0	532	499	1021	0	0	0	
13	0	0	0	0	521	491	1021	0	0	0	
14	0	0	0	0	510	481	1021	0	0	0	
15	0	0	0	0	499	470	1021	0	0	0	
0	0	0	0	0	487	459	1021	0	0	0	
1	0	0	0	0	476	448	1021	0	0	0	
2	0	0	0	0	465	435	1020	0	0	0	
3	0	0	0	0	454	423	1020	0	0	0	
4	0	0	0	0	443	409	1021	0	0	0	
5	0	0	0	0	432	396	1021	0	0	0	
6	0	0	0	0	420	383	1021	0	0	0	
7	0	0	0	0	409	371	1021	0	0	0	
8	0	0	0	0	399	360	1021	0	0	0	
9	0	0	0	0	391	351	1021	0	0	0	
10	0	0	0	0	384	345	1021	0	0	0	
11	0	0	0	0	380	341	1021	0	0	0	
12	0	0	0	0	379	340	1020	0	0	0	
13	0	0	0	0	380	342	1021	0	0	0	
14	0	0	0	0	385	347	1021	0	0	0	
15	0	0	0	0	393	355	1021	0	0	0	
0	0	0	0	0	403	364	1021	0	0	0	
1	0	0	0	0	416	376	1020	0	0	0	
2	0	0	0	0	432	389	1020	0	0	0	
3	0	0	0	0	451	403	1021	0	0	0	
4	0	0	0	0	471	419	1021	0	0	0	
5	0	0	0	0	492	435	1021	0	0	0	
6	0	0	0	0	514	452	1021	0	0	0	
7	0	0	0	0	536	469	1021	0	0	0	
8	0	0	0	0	558	486	1021	0	0	0	
9	0	0	0	0	579	503	1021	0	0	0	
10	0	0	0	0	597	519	1021	0	0	0	
11	0	0	0	0	614	534	1021	0	0	0	
12	0	0	0	0	627	547	1021	0	0	0	
13	0	0	0	0	638	559	1021	0	0	0	
14	0	0	0	0	645	569	1021	0	0	0	
15	0	0	0	0	648	577	1021	0	0	0	
0	0	0	0	0	647	582	1021	0	0	0	
1	0	0	0	0	644	586	1021	0	0	0	
2	0	0	0	0	639	587	1021	0	0	0	
3	0	0	0	0	633	587	1021	0	0	0	
4	0	0	0	0	624	585	1021	0	0	0	
5	0	0	0	0	616	582	1021	0	0	0	
6	0	0	0	0	606	576	1021	0	0	0	
7	0	0	0	0	597	570	1021	0	0	0	
8	0	0	0	0	588	562	1021	0	0	0	
9	0	0	0	0	580	554	1021	0	0	0	
10	0	0	0	0	573	545	1021	0	0	0	
11	0	0	0	0	568	538	1021	0	0	0	
12	0	0	0	0	564	532	1021	0	0	0	
13	0	0	0	0	562	527	1021	0	0	0	
14	0	0	0	0	561	523	1021	0	0	0	
15	0	0	0	0	562	521	1021	0	0	0	
0	0	0	0	0	564	520	1021	0	0	0	
1	0	0	0	0	569	523	1021	0	0	0	
2	0	0	0	0	574	527	1021	0	0	0	
3	0	0	0	0	580	532	1021	0	0	0	
4	0	0	0	0	587	539	1021	0	0	0	
5	0	0	0	0	594	547	1021	0	0	0	
6	0	0	0	0	601	555	1021	0	0	0	
7	0	0	0	0	608	563	1021	0	0	0	
8	0	0	0	0	614	569	1021	0	0	0	
9	0	0	0	0	620	575	1021	0	0	0	
10	0	0	0	0	624	580	1021	0	0	0	
11	0	0	0	0	627	583	1021	0	0	0	
12	0	0	0	0	629	585	1021	0	0	0	
13	0	0	0	0	630	585	1021	0	0	0	
14	0	0	0	0	630	584	1021	0	0	0	
15	0	0	0	0	628	582	1021	0	0	0	
0	0	0	0	0	627	579	1021	0	0	0	
1	0	0	0	0	626	577	1021	0	0	0	
2	0	0	0	0	625	575	1021	0	0	0	
3	0	0	0	0	623	574	1021	0	0	0	
4	0	0	0	0	620	572	1021	0	0	0	
5	0	0	0	0	617	570	1021	0	0	0	
6	0	0	0	0	614	569	1021	0	0	0	
7	0	0	0	0	610	568	1021	0	0	0	
8	0	0	0	0	605	566	1021	0	0	0	
9	0	0	0	0	600	565	1021	0	0	0	
10	0	0	0	0	595	563	1021	0	0	0	
11	0	0	0	0	591	561	1021	0	0	0	
12	0	0	0	0	587	559	1021	0	0	0	
13	0	0	0	0	584	556	1021	0	0	0	
14	0	0	0	0	582	553	1021	0	0	0	
15	0	0	0	0	580	550	1021	0	0	0	
0	0	0	0	0	580	547	1021	0	0	0	
1	0	0	0	0	582	543	1021	0	0	0	
2	0	0	0	0	583	541	1021	0	0	0	
3	0	0	0	0	587	539	1021	0	0	0	
4	0	0	0	0	591	537	1021	0	0	0	
5	0	0	0	0	596	538	1021	0	0	0	
6	0	0	0	0	603	540	1021	0	0	0	
7	0	0	0	0	610	544	1021	0	0	0	
8	0	0	0	0	618	549	1021	0	0	0	
9	0	0	0	0	625	556	1021	0	0	0	
10	0	0	0	0	631	562	1021	0	0	0	
11	0	0	0	0	636	569	1021	0	0	0	
12	0	0	0	0	640	576	1021	0	0	0	
13	0	0	0	0	642	582	1021	0	0	0	
14	0	0	0	0	644	587	1021	0	0	0	
15	0	0	0	0	644	591	1021	0	0	0	
0	0	0	0	0	643	595	1021	0	0	0	
1	0	0	0	0	643	598	1021	0	0	0	
2	0	0	0	0	643	600	1021	0	0	0	
3	0	0	0	0	642	602	1021	0	0	0	
4	0	0	0	0	641	602	1021	0	0	0	
5	0	0	0	0	640	601	1021	0	0	0	
6	0	0	0	0	638	598	1021	0	0	0	
7	0	0	0	0	635	594	1021	0	0	0	
8	0	0	0	0	632	590	1021	0	0	0	
9	0	0	0	0	629	585	1021	0	0	0	
10	0	0	0	0	625	579	1021	0	0	0	
11	0	0	0	0	620	573	1021	0	0	0	
12	0	0	0	0	614	566	1021	0	0	0	
13	0	0	0	0	607	559	1021	0	0	0	
14	0	0	0	0	598	551	1021	0	0	0	
15	0	0	0	0	588	543	1021	0	0	0	
0	0	0	0	0	579	535	1021	0	0	0	
1	0	0	0	0	570	528	1021	0	0	0	
2	0	0	0	0	563	523	1021	0	0	0	
3	0	0	0	0	559	520	1021	0	0	0	
4	0	0	0	0	556	518	1021	0	0	0	
5	0	0	0	0	555	518	1021	0	0	0	
6	0	0	0	0	556	517	1021	0	0	0	
7	0	0	0	0	558	517	1021	0	0	0	
8	0	0	0	0	560	517	1021	0	0	0	
9	0	0	0	0	563	518	1021	0	0	0	
10	0	0	0	0	568	518	1021	0	0	0	
11	0	0	0	0	572	520	1021	0	0	0	
12	0	0	0	0	577	523	1021	0	0	0	
13	0	0	0	0	583	526	1021	0	0	0	
14	0	0	0	0	589	530	1021	0	0	0	
15	0	0	0	0	596	536	1021	0	0	0	
0	0	0	0	0	604	544	1021	0	0	0	
1	0	0	0	0	612	552	1021	0	0	0	
2	0	0	0	0	620	561	1021	0	0	0	
3	0	0	0	0	628	570	1021	0	0	0	
4	0	0	0	0	634	578	1020	0	0	0	
5	0	0	0	0	638	583	1021	0	0	0	
6	0	0	0	0	640	587	1021	0	0	0	
7	0	0	0	0	639	587	1021	0	0	0	
8	0	0	0	0	633	584	1021	0	0	0	
9	0	0	0	0	625	578	1020	0	0	0	
10	0	0	0	0	615	570	1021	0	0	0	
11	0	0	0	0	604	560	1021	0	0	0	
12	0	0	0	0	593	550	1021	0	0	0	
13	0	0	0	0	583	541	1021	0	0	0	
14	0	0	0	0	575	532	1021	0	0	0	
15	0	0	0	0	569	526	1021	0	0	0	
0	0	0	0	0	567	522	1021	0	0	0	
1	0	0	0	0	566	521	1021	0	0	0	
2	0	0	0	0	568	521	1021	0	0	0	
3	0	0	0	0	572	524	1021	0	0	0	
4	0	0	0	0	577	528	1020	0	0	0	
5	0	0	0	0	585	535	1021	0	0	0	
6	0	0	0	0	593	543	1021	0	0	0	
7	0	0	0	0	603	553	1021	0	0	0	
8	0	0	0	0	615	566	1021	0	0	0	
9	0	0	0	0	628	580	1021	0	0	0	
10	0	0	0	0	644	596	1021	0	0	0	
11	0	0	0	0	660	614	1021	0	0	0	
12	0	0	0	0	675	629	1021	0	0	0	
13	0	0	0	0	688	643	1021	0	0	0	
14	0	0	0	0	696	651	1021	0	0	0	
15	0	0	0	0	701	655	1021	0	0	0	
0	0	0	0	0	699	653	1021	0	0	0	
1	0	0	0	0	692	645	1021	0	0	0	
2	0	0	0	0	680	632	1021	0	0	0	
3	0	0	0	0	663	615	1021	0	0	0	
4	0	0	0	0	642	595	1021	0	0	0	
5	0	0	0	0	619	572	1021	0	0	0	
6	0	0	0	0	593	548	1021	0	0	0	
7	0	0	0	0	569	526	1021	0	0	0	
8	0	0	0	0	546	505	1021	0	0	0	
9	0	0	0	0	526	489	1021	0	0	0	
10	0	0	0	0	511	476	1021	0	0	0	
11	0	0	0	0	501	468	1021	0	0	0	
12	0	0	0	0	495	464	1021	0	0	0	
13	0	0	0	0	495	464	1021	0	0	0	
14	0	0	0	0	499	469	1021	0	0	0	
15	0	0	0	0	509	478	1021	0	0	0	
0	0	0	0	0	521	488	1021	0	0	0	
1	0	0	0	0	536	501	1021	0	0	0	
2	0	0	0	0	553	514	1021	0	0	0	
3	0	0	0	0	570	526	1021	0	0	0	
4	0	0	0	0	584	537	1021	0	0	0	
5	0	0	0	0	597	545	1021	0	0	0	
6	0	0	0	0	606	551	1021	0	0	0	
7	0	0	0	0	613	553	1021	0	0	0	
8	0	0	0	0	615	554	1021	0	0	0	
9	0	0	0	0	615	552	1021	0	0	0	
10	0	0	0	0	614	550	1021	0	0	0	
11	0	0	0	0	609	547	1021	0	0	0	
12	0	0	0	0	604	543	1021	0	0	0	
13	0	0	0	0	598	540	1021	0	0	0	
14	0	0	0	0	592	537	1021	0	0	0	
15	0	0	0	0	587	535	1021	0	0	0	
0	0	0	0	0	582	534	1021	0	0	0	
1	0	0	0	0	578	533	1021	0	0	0	
2	0	0	0	0	576	534	1021	0	0	0	
3	0	0	0	0	576	536	1021	0	0	0	
4	0	0	0	0	577	537	1021	0	0	0	
5	0	0	0	0	580	540	1021	0	0	0	
6	0	0	0	0	584	543	1021	0	0	0	
7	0	0	0	0	590	547	1021	0	0	0	
8	0	0	0	0	595	550	1021	0	0	0	
9	0	0	0	0	601	553	1021	0	0	0	
10	0	0	0	0	608	557	1021	0	0	0	
11	0	0	0	0	614	560	1021	0	0	0	
12	0	0	0	0	620	564	1021	0	0	0	
13	0	0	0	0	624	568	1021	0	0	0	
14	0	0	0	0	628	571	1021	0	0	0	
15	0	0	0	0	630	573	1021	0	0	0	
0	0	0	0	0	631	574	1021	0	0	0	
1	0	0	0	0	629	575	1021	0	0	0	
2	0	0	0	0	626	574	1021	0	0	0	
3	0	0	0	0	621	573	1021	0	0	0	
4	0	0	0	0	615	570	1021	0	0	0	
5	0	0	0	0	608	566	1021	0	0	0	
6	0	0	0	0	599	561	1021	0	0	0	
7	0	0	0	0	588	554	1021	0	0	0	
8	0	0	0	0	577	545	1021	0	0	0	
9	0	0	0	0	565	537	1021	0	0	0	
10	0	0	0	0	555	527	1021	0	0	0	
11	0	0	0	0	545	519	1021	0	0	0	
12	0	0	0	0	538	512	1021	0	0	0	
13	0	0	0	0	534	507	1021	0	0	0	
14	0	0	0	0	533	504	1021	0	0	0	
15	0	0	0	0	536	503	1021	0	0	0	
0	0	0	0	0	541	504	1021	0	0	0	
1	0	0	0	0	550	508	1021	0	0	0	
2	0	0	0	0	561	515	1021	0	0	0	
3	0	0	0	0	574	524	1021	0	0	0	
4	0	0	0	0	588	534	1021	0	0	0	
5	0	0	0	0	604	547	1021	0	0	0	
6	0	0	0	0	619	560	1021	0	0	0	
7	0	0	0	0	634	574	1021	0	0	0	
8	0	0	0	0	648	588	1021	0	0	0	
9	0	0	0	0	661	601	1021	0	0	0	
10	0	0	0	0	672	614	1021	0	0	0	
11	0	0	0	0	680	624	1021	0	0	0	
12	0	0	0	0	686	633	1021	0	0	0	
13	0	0	0	0	688	638	1021	0	0	0	
14	0	0	0	0	685	638	1021	0	0	0	
15	0	0	0	0	677	634	1021	0	0	0	
0	0	0	0	0	664	624	1021	0	0	0	
1	0	0	0	0	646	611	1021	0	0	0	
2	0	0	0	0	624	593	1021	0	0	0	
3	0	0	0	0	601	573	1021	0	0	0	
4	0	0	0	0	577	552	1021	0	0	0	
5	0	0	0	0	554	531	1021	0	0	0	
6	0	0	0	0	534	513	1021	0	0	0	
7	0	0	0	0	519	500	1021	0	0	0	
8	0	0	0	0	511	491	1021	0	0	0	
9	0	0	0	0	509	488	1021	0	0	0	
10	0	0	0	0	514	492	1021	0	0	0	
11	0	0	0	0	524	500	1021	0	0	0	
12	0	0	0	0	540	513	1020	0	0	0	
13	0	0	0	0	559	529	1021	0	0	0	
14	0	0	0	0	580	547	1021	0	0	0	
15	0	0	0	0	601	565	1021	0	0	0	
0	0	0	0	0	620	580	1021	0	0	0	
1	0	0	0	0	635	592	1021	0	0	0	
2	0	0	0	0	646	600	1021	0	0	0	
3	0	0	0	0	651	603	1021	0	0	0	
4	0	0	0	0	651	600	1021	0	0	0	
5	0	0	0	0	644	593	1021	0	0	0	
6	0	0	0	0	634	583	1021	0	0	0	
7	0	0	0	0	620	570	1021	0	0	0	
8	0	0	0	0	604	555	1021	0	0	0	
9	0	0	0	0	587	541	1021	0	0	0	
10	0	0	0	0	571	528	1021	0	0	0	
11	0	0	0	0	558	519	1021	0	0	0	
12	0	0	0	0	549	513	1021	0	0	0	
13	0	0	0	0	545	512	1021	0	0	0	
14	0	0	0	0	547	516	1021	0	0	0	
15	0	0	0	0	553	524	1021	0	0	0	
0	0	0	0	0	565	535	1021	0	0	0	
1	0	0	0	0	579	548	1021	0	0	0	
2	0	0	0	0	595	563	1021	0	0	0	
3	0	0	0	0	611	576	1021	0	0	0	
4	0	0	0	0	625	588	1021	0	0	0	
5	0	0	0	0	638	597	1021	0	0	0	
6	0	0	0	0	647	603	1021	0	0	0	
7	0	0	0	0	653	605	1021	0	0	0	
8	0	0	0	0	655	604	1021	0	0	0	
9	0	0	0	0	654	600	1021	0	0	0	
10	0	0	0	0	651	595	1021	0	0	0	
11	0	0	0	0	646	589	1021	0	0	0	
12	0	0	0	0	639	582	1021	0	0	0	
13	0	0	0	0	632	574	1021	0	0	0	
14	0	0	0	0	624	566	1021	0	0	0	
15	0	0	0	0	615	558	1021	0	0	0	
0	0	0	0	0	605	550	1021	0	0	0	
1	0	0	0	0	595	542	1021	0	0	0	
2	0	0	0	0	585	535	1021	0	0	0	
3	0	0	0	0	576	528	1021	0	0	0	
4	0	0	0	0	569	523	1021	0	0	0	
5	0	0	0	0	563	520	1021	0	0	0	
6	0	0	0	0	561	519	1021	0	0	0	
7	0	0	0	0	561	520	1021	0	0	0	
8	0	0	0	0	565	524	1021	0	0	0	
9	0	0	0	0	570	529	1020	0	0	0	
10	0	0	0	0	579	536	1020	0	0	0	
11	0	0	0	0	588	542	1021	0	0	0	
12	0	0	0	0	598	549	1021	0	0	0	
13	0	0	0	0	607	554	1021	0	0	0	
14	0	0	0	0	615	559	1021	0	0	0	
15	0	0	0	0	620	561	1021	0	0	0	
0	0	0	0	0	623	560	1021	0	0	0	
1	0	0	0	0	622	557	1021	0	0	0	
2	0	0	0	0	618	553	1021	0	0	0	
3	0	0	0	0	612	547	1021	0	0	0	
4	0	0	0	0	606	542	1021	0	0	0	
5	0	0	0	0	599	537	1021	0	0	0	
6	0	0	0	0	593	535	1021	0	0	0	
7	0	0	0	0	589	534	1021	0	0	0	
8	0	0	0	0	588	536	1021	0	0	0	
9	0	0	0	0	588	539	1021	0	0	0	
10	0	0	0	0	592	545	1021	0	0	0	
11	0	0	0	0	597	551	1021	0	0	0	
12	0	0	0	0	603	558	1021	0	0	0	
13	0	0	0	0	608	564	1021	0	0	0	
14	0	0	0	0	614	569	1021	0	0	0	
15	0	0	0	0	620	573	1021	0	0	0	
0	0	0	0	0	624	576	1021	0	0	0	
1	0	0	0	0	628	578	1021	0	0	0	
2	0	0	0	0	631	579	1021	0	0	0	
3	0	0	0	0	632	578	1021	0	0	0	
4	0	0	0	0	631	575	1021	0	0	0	
5	0	0	0	0	626	570	1021	0	0	0	
6	0	0	0	0	619	563	1021	0	0	0	
7	0	0	0	0	608	554	1021	0	0	0	
8	0	0	0	0	596	544	1021	0	0	0	
9	0	0	0	0	583	535	1021	0	0	0	
10	0	0	0	0	571	526	1021	0	0	0	
11	0	0	0	0	560	518	1021	0	0	0	
12	0	0	0	0	550	511	1021	0	0	0	
13	0	0	0	0	543	507	1021	0	0	0	
14	0	0	0	0	540	505	1021	0	0	0	
15	0	0	0	0	540	507	1021	0	0	0	
0	0	0	0	0	543	510	1021	0	0	0	
1	0	0	0	0	550	515	1021	0	0	0	
2	0	0	0	0	558	520	1021	0	0	0	
3	0	0	0	0	567	525	1021	0	0	0	
4	0	0	0	0	576	530	1021	0	0	0	
5	0	0	0	0	584	534	1021	0	0	0	
6	0	0	0	0	592	537	1021	0	0	0	
7	0	0	0	0	598	539	1021	0	0	0	
8	0	0	0	0	603	540	1021	0	0	0	
9	0	0	0	0	605	540	1021	0	0	0	
10	0	0	0	0	606	539	1021	0	0	0	
11	0	0	0	0	605	538	1021	0	0	0	
12	0	0	0	0	603	537	1021	0	0	0	
13	0	0	0	0	601	536	1021	0	0	0	
14	0	0	0	0	598	536	1021	0	0	0	
15	0	0	0	0	594	536	1021	0	0	0	
0	0	0	0	0	591	538	1021	0	0	0	
1	0	0	0	0	588	540	1021	0	0	0	
2	0	0	0	0	585	542	1021	0	0	0	
3	0	0	0	0	584	545	1021	0	0	0	
4	0	0	0	0	585	549	1021	0	0	0	
5	0	0	0	0	588	553	1021	0	0	0	
6	0	0	0	0	591	556	1021	0	0	0	
7	0	0	0	0	596	559	1021	0	0	0	
8	0	0	0	0	600	561	1021	0	0	0	
9	0	0	0	0	605	562	1021	0	0	0	
10	0	0	0	0	609	562	1020	0	0	0	
11	0	0	0	0	613	561	1020	0	0	0	
12	0	0	0	0	617	559	1021	0	0	0	
13	0	0	0	0	617	557	1021	0	0	0	
14	0	0	0	0	617	554	1021	0	0	0	
15	0	0	0	0	615	551	1021	0	0	0	
0	0	0	0	0	610	546	1021	0	0	0	
1	0	0	0	0	603	540	1021	0	0	0	
2	0	0	0	0	594	533	1021	0	0	0	
3	0	0	0	0	584	526	1021	0	0	0	
4	0	0	0	0	574	519	1020	0	0	0	
5	0	0	0	0	564	513	1021	0	0	0	
6	0	0	0	0	558	509	1021	0	0	0	
7	0	0	0	0	553	506	1021	0	0	0	
8	0	0	0	0	551	506	1021	0	0	0	
9	0	0	0	0	552	507	1021	0	0	0	
10	0	0	0	0	556	510	1021	0	0	0	
11	0	0	0	0	562	515	1021	0	0	0	
12	0	0	0	0	569	519	1021	0	0	0	
13	0	0	0	0	576	522	1021	0	0	0	
14	0	0	0	0	583	525	1021	0	0	0	
15	0	0	0	0	589	526	1021	0	0	0	
0	0	0	0	0	593	527	1021	0	0	0	
1	0	0	0	0	596	526	1021	0	0	0	
2	0	0	0	0	597	525	1021	0	0	0	
3	0	0	0	0	596	523	1021	0	0	0	
4	0	0	0	0	593	521	1021	0	0	0	
5	0	0	0	0	590	518	1021	0	0	0	
6	0	0	0	0	585	516	1021	0	0	0	
7	0	0	0	0	581	515	1021	0	0	0	
8	0	0	0	0	577	515	1021	0	0	0	
9	0	0	0	0	575	516	1021	0	0	0	
10	0	0	0	0	574	519	1021	0	0	0	
11	0	0	0	0	574	521	1021	0	0	0	
12	0	0	0	0	575	524	1021	0	0	0	
13	0	0	0	0	578	528	1021	0	0	0	
14	0	0	0	0	580	531	1021	0	0	0	
15	0	0	0	0	583	533	1021	0	0	0	
0	0	0	0	0	587	535	1021	0	0	0	
1	0	0	0	0	591	536	1021	0	0	0	
2	0	0	0	0	594	536	1021	0	0	0	
3	0	0	0	0	597	537	1021	0	0	0	
4	0	0	0	0	601	537	1021	0	0	0	
5	0	0	0	0	603	538	1021	0	0	0	
6	0	0	0	0	605	537	1021	0	0	0	
7	0	0	0	0	605	536	1021	0	0	0	
8	0	0	0	0	605	535	1021	0	0	0	
9	0	0	0	0	603	533	1021	0	0	0	
10	0	0	0	0	600	531	1021	0	0	0	
11	0	0	0	0	595	529	1021	0	0	0	
12	0	0	0	0	590	527	1021	0	0	0	
13	0	0	0	0	586	524	1021	0	0	0	
14	0	0	0	0	581	522	1021	0	0	0	
15	0	0	0	0	577	520	1021	0	0	0	
0	0	0	0	0	574	519	1021	0	0	0	
1	0	0	0	0	572	517	1021	0	0	0	
2	0	0	0	0	571	517	1021	0	0	0	
3	0	0	0	0	571	516	1021	0	0	0	
4	0	0	0	0	572	515	1021	0	0	0	
5	0	0	0	0	574	515	1021	0	0	0	
6	0	0	0	0	575	514	1021	0	0	0	
7	0	0	0	0	579	514	1021	0	0	0	
8	0	0	0	0	582	514	1021	0	0	0	
9	0	0	0	0	584	514	1021	0	0	0	
10	0	0	0	0	587	514	1021	0	0	0	
11	0	0	0	0	590	515	1021	0	0	0	
12	0	0	0	0	591	515	1021	0	0	0	
13	0	0	0	0	594	517	1021	0	0	0	
14	0	0	0	0	596	519	1021	0	0	0	
15	0	0	0	0	598	521	1021	0	0	0	
0	0	0	0	0	599	524	1021	0	0	0	
1	0	0	0	0	600	527	1021	0	0	0	
2	0	0	0	0	599	528	1021	0	0	0	
3	0	0	0	0	598	530	1021	0	0	0	
4	0	0	0	0	595	530	1021	0	0	0	
5	0	0	0	0	592	528	1021	0	0	0	
6	0	0	0	0	588	526	1021	0	0	0	
7	0	0	0	0	584	522	1021	0	0	0	
8	0	0	0	0	579	517	1021	0	0	0	
9	0	0	0	0	575	512	1021	0	0	0	
10	0	0	0	0	572	508	1021	0	0	0	
11	0	0	0	0	569	504	1020	0	0	0	
12	0	0	0	0	569	502	1021	0	0	0	
13	0	0	0	0	571	502	1021	0	0	0	
14	0	0	0	0	575	504	1021	0	0	0	
15	0	0	0	0	581	508	1021	0	0	0	
0	0	0	0	0	589	515	1021	0	0	0	
1	0	0	0	0	598	523	1021	0	0	0	
2	0	0	0	0	607	530	1021	0	0	0	
3	0	0	0	0	614	536	1021	0	0	0	
4	0	0	0	0	619	542	1021	0	0	0	
5	0	0	0	0	621	544	1021	0	0	0	
6	0	0	0	0	620	544	1021	0	0	0	
7	0	0	0	0	616	542	1021	0	0	0	
8	0	0	0	0	609	536	1021	0	0	0	
9	0	0	0	0	600	529	1021	0	0	0	
10	0	0	0	0	589	520	1021	0	0	0	
11	0	0	0	0	579	511	1021	0	0	0	
12	0	0	0	0	569	503	1021	0	0	0	
13	0	0	0	0	561	495	1021	0	0	0	
14	0	0	0	0	554	489	1021	0	0	0	
15	0	0	0	0	551	485	1021	0	0	0	
0	0	0	0	0	550	482	1021	0	0	0	
1	0	0	0	0	551	480	1021	0	0	0	
2	0	0	0	0	553	480	1021	0	0	0	
3	0	0	0	0	557	482	1021	0	0	0	
4	0	0	0	0	561	484	1021	0	0	0	
5	0	0	0	0	568	488	1021	0	0	0	
6	0	0	0	0	575	493	1021	0	0	0	
7	0	0	0	0	580	498	1021	0	0	0	
8	0	0	0	0	585	503	1021	0	0	0	
9	0	0	0	0	589	507	1021	0	0	0	
10	0	0	0	0	590	508	1021	0	0	0	
11	0	0	0	0	588	508	1021	0	0	0	
12	0	0	0	0	583	504	1021	0	0	0	
13	0	0	0	0	575	498	1021	0	0	0	
14	0	0	0	0	564	490	1021	0	0	0	
15	0	0	0	0	552	480	1021	0	0	0	
0	0	0	0	0	542	471	1021	0	0	0	
1	0	0	0	0	532	463	1021	0	0	0	
2	0	0	0	0	526	456	1021	0	0	0	
3	0	0	0	0	522	452	1020	0	0	0	
4	0	0	0	0	523	452	1021	0	0	0	
5	0	0	0	0	528	455	1021	0	0	0	
6	0	0	0	0	536	461	1021	0	0	0	
7	0	0	0	0	547	469	1021	0	0	0	
8	0	0	0	0	561	480	1021	0	0	0	
9	0	0	0	0	576	492	1021	0	0	0	
10	0	0	0	0	591	505	1021	0	0	0	
11	0	0	0	0	606	518	1021	0	0	0	
12	0	0	0	0	619	531	1021	0	0	0	
13	0	0	0	0	631	542	1021	0	0	0	
14	0	0	0	0	638	551	1021	0	0	0	
15	0	0	0	0	642	556	1021	0	0	0	
0	0	0	0	0	642	559	1021	0	0	0	
1	0	0	0	0	637	556	1021	0	0	0	
2	0	0	0	0	627	551	1020	0	0	0	
3	0	0	0	0	615	541	1021	0	0	0	
4	0	0	0	0	601	529	1021	0	0	0	
5	0	0	0	0	584	515	1021	0	0	0	
6	0	0	0	0	568	499	1021	0	0	0	
7	0	0	0	0	552	485	1021	0	0	0	
8	0	0	0	0	539	473	1021	0	0	0	
9	0	0	0	0	528	462	1021	0	0	0	
10	0	0	0	0	523	455	1021	0	0	0	
11	0	0	0	0	519	451	1021	0	0	0	
12	0	0	0	0	521	451	1021	0	0	0	
13	0	0	0	0	525	452	1021	0	0	0	
14	0	0	0	0	531	456	1021	0	0	0	
15	0	0	0	0	539	462	1021	0	0	0	
0	0	0	0	0	547	469	1021	0	0	0	
1	0	0	0	0	556	477	1021	0	0	0	
2	0	0	0	0	564	484	1021	0	0	0	
3	0	0	0	0	570	490	1021	0	0	0	
4	0	0	0	0	574	494	1021	0	0	0	
5	0	0	0	0	575	496	1021	0	0	0	
6	0	0	0	0	574	496	1021	0	0	0	
7	0	0	0	0	569	493	1021	0	0	0	
8	0	0	0	0	563	488	1021	0	0	0	
9	0	0	0	0	555	482	1021	0	0	0	
10	0	0	0	0	547	475	1021	0	0	0	
11	0	0	0	0	540	469	1021	0	0	0	
12	0	0	0	0	535	464	1021	0	0	0	
13	0	0	0	0	532	461	1021	0	0	0	
14	0	0	0	0	533	461	1021	0	0	0	
15	0	0	0	0	537	463	1021	0	0	0	
0	0	0	0	0	545	470	1021	0	0	0	
1	0	0	0	0	556	478	1021	0	0	0	
2	0	0	0	0	568	489	1021	0	0	0	
3	0	0	0	0	582	500	1021	0	0	0	
4	0	0	0	0	594	511	1021	0	0	0	
5	0	0	0	0	606	522	1021	0	0	0	
6	0	0	0	0	615	531	1021	0	0	0	
7	0	0	0	0	620	537	1021	0	0	0	
8	0	0	0	0	623	541	1021	0	0	0	
9	0	0	0	0	622	542	1021	0	0	0	
10	0	0	0	0	619	540	1021	0	0	0	
11	0	0	0	0	613	535	1021	0	0	0	
12	0	0	0	0	606	530	1021	0	0	0	
13	0	0	0	0	598	523	1021	0	0	0	
14	0	0	0	0	590	515	1021	0	0	0	
15	0	0	0	0	581	506	1021	0	0	0	
0	0	0	0	0	573	498	1021	0	0	0	
1	0	0	0	0	566	490	1021	0	0	0	
2	0	0	0	0	560	483	1021	0	0	0	
3	0	0	0	0	555	478	1021	0	0	0	
4	0	0	0	0	551	475	1020	0	0	0	
5	0	0	0	0	549	472	1021	0	0	0	
6	0	0	0	0	549	473	1021	0	0	0	
7	0	0	0	0	550	474	1021	0	0	0	
8	0	0	0	0	552	477	1021	0	0	0	
9	0	0	0	0	555	481	1021	0	0	0	
10	0	0	0	0	560	486	1021	0	0	0	
11	0	0	0	0	566	491	1021	0	0	0	
12	0	0	0	0	571	496	1021	0	0	0	
13	0	0	0	0	575	500	1021	0	0	0	
14	0	0	0	0	580	503	1021	0	0	0	
15	0	0	0	0	583	505	1021	0	0	0	
0	0	0	0	0	585	505	1021	0	0	0	
1	0	0	0	0	585	504	1021	0	0	0	
2	0	0	0	0	584	502	1021	0	0	0	
3	0	0	0	0	582	498	1021	0	0	0	
4	0	0	0	0	579	494	1021	0	0	0	
5	0	0	0	0	575	489	1021	0	0	0	
6	0	0	0	0	570	484	1021	0	0	0	
7	0	0	0	0	564	479	1021	0	0	0	
8	0	0	0	0	559	474	1021	0	0	0	
9	0	0	0	0	553	471	1021	0	0	0	
10	0	0	0	0	550	469	1021	0	0	0	
11	0	0	0	0	547	469	1021	0	0	0	
12	0	0	0	0	545	471	1021	0	0	0	
13	0	0	0	0	546	474	1021	0	0	0	
14	0	0	0	0	548	478	1021	0	0	0	
15	0	0	0	0	551	483	1021	0	0	0	
0	0	0	0	0	556	489	1021	0	0	0	
1	0	0	0	0	561	495	1021	0	0	0	
2	0	0	0	0	568	501	1021	0	0	0	
3	0	0	0	0	574	506	1021	0	0	0	
4	0	0	0	0	580	510	1021	0	0	0	
5	0	0	0	0	586	514	1021	0	0	0	
6	0	0	0	0	590	515	1021	0	0	0	
7	0	0	0	0	593	516	1021	0	0	0	
8	0	0	0	0	595	515	1021	0	0	0	
9	0	0	0	0	595	514	1021	0	0	0	
10	0	0	0	0	594	512	1021	0	0	0	
11	0	0	0	0	592	511	1021	0	0	0	
12	0	0	0	0	590	510	1021	0	0	0	
13	0	0	0	0	588	510	1021	0	0	0	
14	0	0	0	0	586	511	1021	0	0	0	
15	0	0	0	0	584	512	1021	0	0	0	
0	0	0	0	0	583	514	1021	0	0	0	
1	0	0	0	0	583	517	1021	0	0	0	
2	0	0	0	0	583	521	1021	0	0	0	
3	0	0	0	0	586	524	1021	0	0	0	
4	0	0	0	0	588	527	1021	0	0	0	
5	0	0	0	0	590	529	1021	0	0	0	
6	0	0	0	0	590	528	1021	0	0	0	
7	0	0	0	0	588	524	1021	0	0	0	
8	0	0	0	0	583	517	1021	0	0	0	
9	0	0	0	0	574	506	1021	0	0	0	
10	0	0	0	0	561	493	1021	0	0	0	
11	0	0	0	0	547	477	1021	0	0	0	
12	0	0	0	0	529	459	1021	0	0	0	
13	0	0	0	0	511	440	1021	0	0	0	
14	0	0	0	0	492	422	1021	0	0	0	
15	0	0	0	0	475	406	1020	0	0	0	
0	0	0	0	0	460	392	1021	0	0	0	
1	0	0	0	0	448	381	1021	0	0	0	
2	0	0	0	0	440	374	1021	0	0	0	
3	0	0	0	0	435	369	1021	0	0	0	
4	0	0	0	0	433	368	1021	0	0	0	
5	0	0	0	0	432	368	1021	0	0	0	
6	0	0	0	0	432	368	1021	0	0	0	
7	0	0	0	0	432	367	1021	0	0	0	
8	0	0	0	0	428	363	1021	0	0	0	
9	0	0	0	0	423	358	1021	0	0	0	
10	0	0	0	0	413	348	1021	0	0	0	
11	0	0	0	0	401	335	1021	0	0	0	
12	0	0	0	0	387	321	1021	0	0	0	
13	0	0	0	0	371	305	1021	0	0	0	
14	0	0	0	0	356	291	1020	0	0	0	
15	0	0	0	0	344	279	1021	0	0	0	
0	0	0	0	0	335	270	1021	0	0	0	
1	0	0	0	0	331	265	1021	0	0	0	
2	0	0	0	0	333	266	1021	0	0	0	
3	0	0	0	0	340	271	1021	0	0	0	
4	0	0	0	0	354	282	1020	0	0	0	
5	0	0	0	0	373	298	1021	0	0	0	
6	0	0	0	0	398	319	1021	0	0	0	
7	0	0	0	0	426	343	1021	0	0	0	
8	0	0	0	0	457	370	1021	0	0	0	
9	0	0	0	0	488	399	1021	0	0	0	
10	0	0	0	0	520	428	1021	0	0	0	
11	0	0	0	0	549	455	1021	0	0	0	
12	0	0	0	0	574	479	1021	0	0	0	
13	0	0	0	0	593	498	1021	0	0	0	
14	0	0	0	0	606	512	1021	0	0	0	
15	0	0	0	0	615	521	1021	0	0	0	
0	0	0	0	0	617	526	1021	0	0	0	
1	0	0	0	0	615	525	1021	0	0	0	
2	0	0	0	0	609	521	1021	0	0	0	
3	0	0	0	0	600	514	1021	0	0	0	
4	0	0	0	0	589	505	1021	0	0	0	
5	0	0	0	0	578	497	1021	0	0	0	
6	0	0	0	0	568	488	1021	0	0	0	
7	0	0	0	0	558	481	1021	0	0	0	
8	0	0	0	0	551	476	1021	0	0	0	
9	0	0	0	0	547	473	1021	0	0	0	
10	0	0	0	0	544	473	1021	0	0	0	
11	0	0	0	0	545	475	1021	0	0	0	
12	0	0	0	0	547	478	1021	0	0	0	
13	0	0	0	0	551	483	1021	0	0	0	
14	0	0	0	0	556	488	1021	0	0	0	
15	0	0	0	0	562	493	1021	0	0	0	
0	0	0	0	0	567	498	1021	0	0	0	
1	0	0	0	0	570	501	1021	0	0	0	
2	0	0	0	0	572	502	1021	0	0	0	
3	0	0	0	0	572	500	1021	0	0	0	
4	0	0	0	0	571	498	1021	0	0	0	
5	0	0	0	0	568	494	1021	0	0	0	
6	0	0	0	0	564	489	1021	0	0	0	
7	0	0	0	0	560	484	1021	0	0	0	
8	0	0	0	0	556	480	1021	0	0	0	
9	0	0	0	0	554	478	1021	0	0	0	
10	0	0	0	0	552	477	1021	0	0	0	
11	0	0	0	0	554	478	1021	0	0	0	
12	0	0	0	0	557	481	1021	0	0	0	
13	0	0	0	0	563	487	1021	0	0	0	
14	0	0	0	0	572	495	1021	0	0	0	
15	0	0	0	0	582	505	1021	0	0	0	
0	0	0	0	0	592	515	1021	0	0	0	
1	0	0	0	0	603	525	1021	0	0	0	
2	0	0	0	0	612	535	1021	0	0	0	
3	0	0	0	0	621	543	1021	0	0	0	
4	0	0	0	0	627	550	1021	0	0	0	
5	0	0	0	0	630	554	1021	0	0	0	
6	0	0	0	0	630	556	1021	0	0	0	
7	0	0	0	0	628	555	1021	0	0	0	
8	0	0	0	0	623	552	1021	0	0	0	
9	0	0	0	0	617	546	1020	0	0	0	
10	0	0	0	0	609	540	1021	0	0	0	
11	0	0	0	0	601	533	1021	0	0	0	
12	0	0	0	0	593	525	1021	0	0	0	
13	0	0	0	0	585	518	1021	0	0	0	
14	0	0	0	0	579	511	1021	0	0	0	
15	0	0	0	0	573	506	1021	0	0	0	
0	0	0	0	0	569	503	1020	0	0	0	
1	0	0	0	0	568	502	1021	0	0	0	
2	0	0	0	0	569	502	1021	0	0	0	
3	0	0	0	0	571	504	1021	0	0	0	
4	0	0	0	0	574	508	1021	0	0	0	
5	0	0	0	0	577	513	1021	0	0	0	
6	0	0	0	0	583	518	1021	0	0	0	
7	0	0	0	0	587	524	1021	0	0	0	
8	0	0	0	0	591	528	1021	0	0	0	
9	0	0	0	0	593	531	1021	0	0	0	
10	0	0	0	0	594	532	1021	0	0	0	
11	0	0	0	0	595	532	1021	0	0	0	
12	0	0	0	0	593	530	1021	0	0	0	
13	0	0	0	0	591	526	1021	0	0	0	
14	0	0	0	0	587	520	1021	0	0	0	
15	0	0	0	0	582	514	1021	0	0	0	
0	0	0	0	0	577	507	1021	0	0	0	
1	0	0	0	0	572	500	1021	0	0	0	
2	0	0	0	0	568	493	1021	0	0	0	
3	0	0	0	0	563	487	1021	0	0	0	
4	0	0	0	0	559	483	1021	0	0	0	
5	0	0	0	0	556	480	1021	0	0	0	
6	0	0	0	0	554	480	1021	0	0	0	
7	0	0	0	0	554	480	1021	0	0	0	
8	0	0	0	0	555	483	1021	0	0	0	
9	0	0	0	0	558	488	1021	0	0	0	
10	0	0	0	0	562	494	1021	0	0	0	
11	0	0	0	0	568	500	1021	0	0	0	
12	0	0	0	0	573	508	1021	0	0	0	
13	0	0	0	0	579	514	1021	0	0	0	
14	0	0	0	0	584	519	1021	0	0	0	
15	0	0	0	0	588	524	1021	0	0	0	
0	0	0	0	0	591	526	1021	0	0	0	
1	0	0	0	0	592	527	1021	0	0	0	
2	0	0	0	0	593	527	1021	0	0	0	
3	0	0	0	0	592	525	1021	0	0	0	
4	0	0	0	0	591	521	1021	0	0	0	
5	0	0	0	0	588	517	1021	0	0	0	
6	0	0	0	0	583	511	1021	0	0	0	
7	0	0	0	0	578	505	1021	0	0	0	
8	0	0	0	0	574	500	1021	0	0	0	
9	0	0	0	0	570	497	1021	0	0	0	
10	0	0	0	0	569	496	1021	0	0	0	
11	0	0	0	0	569	496	1021	0	0	0	
12	0	0	0	0	571	498	1021	0	0	0	
13	0	0	0	0	572	500	1021	0	0	0	
14	0	0	0	0	575	504	1021	0	0	0	
15	0	0	0	0	577	505	1021	0	0	0	
0	0	0	0	0	578	506	1021	0	0	0	
1	0	0	0	0	578	506	1021	0	0	0	
2	0	0	0	0	576	504	1021	0	0	0	
3	0	0	0	0	574	500	1021	0	0	0	
4	0	0	0	0	569	496	1021	0	0	0	
5	0	0	0	0	563	489	1021	0	0	0	
6	0	0	0	0	556	483	1021	0	0	0	
7	0	0	0	0	549	476	1021	0	0	0	
8	0	0	0	0	542	471	1021	0	0	0	
9	0	0	0	0	536	466	1021	0	0	0	
10	0	0	0	0	533	463	1021	0	0	0	
11	0	0	0	0	531	463	1021	0	0	0	
12	0	0	0	0	532	466	1021	0	0	0	
13	0	0	0	0	536	471	1021	0	0	0	
14	0	0	0	0	543	479	1021	0	0	0	
15	0	0	0	0	553	490	1021	0	0	0	
0	0	0	0	0	565	502	1021	0	0	0	
1	0	0	0	0	578	515	1021	0	0	0	
2	0	0	0	0	591	529	1021	0	0	0	
3	0	0	0	0	604	540	1021	0	0	0	
4	0	0	0	0	614	550	1021	0	0	0	
5	0	0	0	0	622	556	1021	0	0	0	
6	0	0	0	0	625	557	1021	0	0	0	
7	0	0	0	0	625	555	1021	0	0	0	
8	0	0	0	0	620	548	1021	0	0	0	
9	0	0	0	0	612	538	1021	0	0	0	
10	0	0	0	0	601	526	1021	0	0	0	
11	0	0	0	0	589	512	1020	0	0	0	
12	0	0	0	0	576	499	1021	0	0	0	
13	0	0	0	0	563	486	1021	0	0	0	
14	0	0	0	0	553	476	1021	0	0	0	
15	0	0	0	0	543	467	1021	0	0	0	
0	0	0	0	0	537	462	1021	0	0	0	
1	0	0	0	0	533	460	1021	0	0	0	
2	0	0	0	0	532	461	1021	0	0	0	
3	0	0	0	0	535	465	1021	0	0	0	
4	0	0	0	0	540	472	1021	0	0	0	
5	0	0	0	0	547	480	1021	0	0	0	
6	0	0	0	0	557	490	1021	0	0	0	
7	0	0	0	0	567	501	1021	0	0	0	
8	0	0	0	0	577	511	1021	0	0	0	
9	0	0	0	0	587	519	1021	0	0	0	
10	0	0	0	0	595	527	1021	0	0	0	
11	0	0	0	0	601	531	1021	0	0	0	
12	0	0	0	0	606	534	1021	0	0	0	
13	0	0	0	0	608	535	1021	0	0	0	
14	0	0	0	0	609	533	1021	0	0	0	
15	0	0	0	0	608	530	1021	0	0	0	
0	0	0	0	0	605	526	1021	0	0	0	
1	0	0	0	0	600	521	1021	0	0	0	
2	0	0	0	0	595	516	1021	0	0	0	
3	0	0	0	0	591	512	1021	0	0	0	
4	0	0	0	0	586	509	1021	0	0	0	
5	0	0	0	0	583	508	1021	0	0	0	
6	0	0	0	0	581	508	1021	0	0	0	
7	0	0	0	0	579	510	1021	0	0	0	
8	0	0	0	0	580	514	1021	0	0	0	
9	0	0	0	0	582	519	1021	0	0	0	
10	0	0	0	0	585	524	1021	0	0	0	
11	0	0	0	0	589	529	1021	0	0	0	
12	0	0	0	0	593	534	1021	0	0	0	
13	0	0	0	0	596	538	1021	0	0	0	
14	0	0	0	0	598	540	1021	0	0	0	
15	0	0	0	0	599	540	1021	0	0	0	
0	0	0	0	0	599	538	1021	0	0	0	
1	0	0	0	0	596	533	1021	0	0	0	
2	0	0	0	0	592	527	1021	0	0	0	
3	0	0	0	0	587	519	1021	0	0	0	
4	0	0	0	0	581	511	1021	0	0	0	
5	0	0	0	0	575	503	1021	0	0	0	
6	0	0	0	0	571	497	1021	0	0	0	
7	0	0	0	0	567	493	1021	0	0	0	
8	0	0	0	0	565	491	1021	0	0	0	
9	0	0	0	0	564	492	1021	0	0	0	
10	0	0	0	0	566	494	1021	0	0	0	
11	0	0	0	0	568	499	1021	0	0	0	
12	0	0	0	0	571	504	1021	0	0	0	
13	0	0	0	0	575	511	1021	0	0	0	
14	0	0	0	0	579	519	1021	0	0	0	
15	0	0	0	0	583	525	1021	0	0	0	
0	0	0	0	0	585	530	1021	0	0	0	
1	0	0	0	0	586	532	1021	0	0	0	
2	0	0	0	0	585	532	1021	0	0	0	
3	0	0	0	0	583	530	1021	0	0	0	
4	0	0	0	0	580	527	1021	0	0	0	
5	0	0	0	0	576	521	1021	0	0	0	
6	0	0	0	0	572	515	1021	0	0	0	
7	0	0	0	0	568	510	1021	0	0	0	
8	0	0	0	0	566	505	1021	0	0	0	
9	0	0	0	0	563	501	1021	0	0	0	
10	0	0	0	0	562	497	1021	0	0	0	
11	0	0	0	0	560	495	1021	0	0	0	
12	0	0	0	0	560	494	1021	0	0	0	
13	0	0	0	0	561	495	1021	0	0	0	
14	0	0	0	0	562	496	1021	0	0	0	
15	0	0	0	0	563	499	1021	0	0	0	
0	0	0	0	0	565	503	1021	0	0	0	
1	0	0	0	0	567	506	1021	0	0	0	
2	0	0	0	0	568	510	1021	0	0	0	
3	0	0	0	0	570	513	1021	0	0	0	
4	0	0	0	0	571	517	1021	0	0	0	
5	0	0	0	0	572	519	1021	0	0	0	
6	0	0	0	0	574	522	1021	0	0	0	
7	0	0	0	0	575	524	1021	0	0	0	
8	0	0	0	0	577	524	1021	0	0	0	
9	0	0	0	0	580	526	1021	0	0	0	
10	0	0	0	0	583	527	1021	0	0	0	
11	0	0	0	0	587	529	1021	0	0	0	
12	0	0	0	0	591	531	1021	0	0	0	
13	0	0	0	0	595	531	1021	0	0	0	
14	0	0	0	0	598	532	1021	0	0	0	
15	0	0	0	0	600	532	1021	0	0	0	
0	0	0	0	0	601	532	1021	0	0	0	
1	0	0	0	0	601	532	1021	0	0	0	
2	0	0	0	0	600	532	1021	0	0	0	
3	0	0	0	0	598	532	1021	0	0	0	
4	0	0	0	0	595	531	1021	0	0	0	
5	0	0	0	0	592	532	1021	0	0	0	
6	0	0	0	0	591	533	1021	0	0	0	
7	0	0	0	0	589	533	1021	0	0	0	
8	0	0	0	0	588	534	1021	0	0	0	
9	0	0	0	0	586	534	1021	0	0	0	
10	0	0	0	0	584	533	1021	0	0	0	
11	0	0	0	0	583	531	1021	0	0	0	
12	0	0	0	0	582	528	1021	0	0	0	
13	0	0	0	0	580	525	1021	0	0	0	
14	0	0	0	0	578	521	1021	0	0	0	
15	0	0	0	0	575	516	1021	0	0	0	
0	0	0	0	0	573	511	1021	0	0	0	
1	0	0	0	0	569	506	1021	0	0	0	
2	0	0	0	0	566	502	1021	0	0	0	
3	0	0	0	0	563	499	1021	0	0	0	
4	0	0	0	0	560	496	1021	0	0	0	
5	0	0	0	0	559	496	1021	0	0	0	
6	0	0	0	0	560	498	1021	0	0	0	
7	0	0	0	0	561	502	1021	0	0	0	
8	0	0	0	0	565	508	1021	0	0	0	
9	0	0	0	0	571	515	1021	0	0	0	
10	0	0	0	0	576	522	1021	0	0	0	
11	0	0	0	0	583	529	1021	0	0	0	
12	0	0	0	0	588	535	1020	0	0	0	
13	0	0	0	0	592	539	1021	0	0	0	
14	0	0	0	0	595	542	1021	0	0	0	
15	0	0	0	0	596	541	1021	0	0	0	
0	0	0	0	0	595	539	1021	0	0	0	
1	0	0	0	0	593	535	1021	0	0	0	
2	0	0	0	0	590	528	1021	0	0	0	
3	0	0	0	0	583	521	1021	0	0	0	
4	0	0	0	0	577	513	1021	0	0	0	
5	0	0	0	0	569	505	1021	0	0	0	
6	0	0	0	0	561	497	1021	0	0	0	
7	0	0	0	0	553	491	1021	0	0	0	
8	0	0	0	0	547	487	1021	0	0	0	
9	0	0	0	0	544	486	1021	0	0	0	
10	0	0	0	0	544	488	1021	0	0	0	
11	0	0	0	0	546	492	1021	0	0	0	
12	0	0	0	0	552	499	1021	0	0	0	
13	0	0	0	0	559	508	1021	0	0	0	
14	0	0	0	0	568	518	1021	0	0	0	
15	0	0	0	0	578	527	1021	0	0	0	
0	0	0	0	0	588	536	1021	0	0	0	
1	0	0	0	0	596	544	1021	0	0	0	
2	0	0	0	0	603	550	1021	0	0	0	
3	0	0	0	0	608	553	1021	0	0	0	
4	0	0	0	0	611	555	1021	0	0	0	
5	0	0	0	0	611	555	1021	0	0	0	
6	0	0	0	0	609	553	1021	0	0	0	
7	0	0	0	0	605	549	1021	0	0	0	
8	0	0	0	0	600	545	1021	0	0	0	
9	0	0	0	0	593	540	1021	0	0	0	
10	0	0	0	0	588	536	1021	0	0	0	
11	0	0	0	0	584	533	1021	0	0	0	
12	0	0	0	0	581	532	1021	0	0	0	
13	0	0	0	0	581	533	1021	0	0	0	
14	0	0	0	0	582	535	1021	0	0	0	
15	0	0	0	0	584	538	1021	0	0	0	
0	0	0	0	0	588	542	1021	0	0	0	
1	0	0	0	0	592	545	1021	0	0	0	
2	0	0	0	0	595	548	1021	0	0	0	
3	0	0	0	0	599	551	1021	0	0	0	
4	0	0	0	0	600	551	1021	0	0	0	
5	0	0	0	0	601	551	1021	0	0	0	
6	0	0	0	0	600	550	1021	0	0	0	
7	0	0	0	0	599	547	1021	0	0	0	
8	0	0	0	0	596	543	1021	0	0	0	
9	0	0	0	0	592	538	1021	0	0	0	
10	0	0	0	0	589	534	1021	0	0	0	
11	0	0	0	0	584	529	1021	0	0	0	
12	0	0	0	0	581	524	1021	0	0	0	
13	0	0	0	0	577	520	1021	0	0	0	
14	0	0	0	0	574	517	1021	0	0	0	
15	0	0	0	0	571	515	1021	0	0	0	
0	0	0	0	0	569	514	1021	0	0	0	
1	0	0	0	0	568	515	1021	0	0	0	
2	0	0	0	0	567	517	1021	0	0	0	
3	0	0	0	0	568	520	1021	0	0	0	
4	0	0	0	0	569	524	1021	0	0	0	
5	0	0	0	0	572	529	1021	0	0	0	
6	0	0	0	0	575	535	1021	0	0	0	
7	0	0	0	0	578	540	1021	0	0	0	
8	0	0	0	0	582	545	1021	0	0	0	
9	0	0	0	0	584	548	1021	0	0	0	
10	0	0	0	0	586	549	1021	0	0	0	
11	0	0	0	0	586	548	1021	0	0	0	
12	0	0	0	0	584	546	1021	0	0	0	
13	0	0	0	0	581	542	1021	0	0	0	
14	0	0	0	0	576	535	1021	0	0	0	
15	0	0	0	0	571	529	1021	0	0	0	
0	0	0	0	0	565	522	1021	0	0	0	
1	0	0	0	0	559	515	1021	0	0	0	
2	0	0	0	0	555	510	1021	0	0	0	
3	0	0	0	0	552	507	1021	0	0	0	
4	0	0	0	0	552	507	1021	0	0	0	
5	0	0	0	0	555	508	1021	0	0	0	
6	0	0	0	0	559	513	1021	0	0	0	
7	0	0	0	0	565	519	1021	0	0	0	
8	0	0	0	0	571	525	1021	0	0	0	
9	0	0	0	0	577	532	1021	0	0	0	
10	0	0	0	0	583	539	1021	0	0	0	
11	0	0	0	0	588	545	1021	0	0	0	
12	0	0	0	0	592	550	1021	0	0	0	
13	0	0	0	0	594	553	1021	0	0	0	
14	0	0	0	0	596	555	1021	0	0	0	
15	0	0	0	0	596	556	1021	0	0	0	
0	0	0	0	0	596	556	1021	0	0	0	
1	0	0	0	0	595	555	1021	0	0	0	
2	0	0	0	0	593	554	1021	0	0	0	
3	0	0	0	0	592	553	1021	0	0	0	
4	0	0	0	0	591	551	1021	0	0	0	
5	0	0	0	0	588	550	1021	0	0	0	
6	0	0	0	0	586	548	1021	0	0	0	
7	0	0	0	0	583	546	1021	0	0	0	
8	0	0	0	0	581	544	1021	0	0	0	
9	0	0	0	0	578	543	1021	0	0	0	
10	0	0	0	0	574	541	1021	0	0	0	
11	0	0	0	0	571	539	1021	0	0	0	
12	0	0	0	0	568	537	1021	0	0	0	
13	0	0	0	0	565	537	1021	0	0	0	
14	0	0	0	0	564	536	1021	0	0	0	
15	0	0	0	0	563	536	1021	0	0	0	
0	0	0	0	0	563	537	1021	0	0	0	
1	0	0	0	0	563	537	1021	0	0	0	
2	0	0	0	0	564	536	1021	0	0	0	
3	0	0	0	0	565	536	1021	0	0	0	
4	0	0	0	0	566	536	1021	0	0	0	
5	0	0	0	0	568	536	1021	0	0	0	
6	0	0	0	0	569	535	1021	0	0	0	
7	0	0	0	0	572	535	1021	0	0	0	
8	0	0	0	0	573	535	1021	0	0	0	
9	0	0	0	0	575	535	1021	0	0	0	
10	0	0	0	0	576	535	1021	0	0	0	
11	0	0	0	0	577	534	1021	0	0	0	
12	0	0	0	0	577	534	1021	0	0	0	
13	0	0	0	0	578	535	1021	0	0	0	
14	0	0	0	0	578	536	1021	0	0	0	
15	0	0	0	0	579	537	1021	0	0	0	
0	0	0	0	0	580	539	1021	0	0	0	
1	0	0	0	0	580	541	1021	0	0	0	
2	0	0	0	0	581	543	1021	0	0	0	
3	0	0	0	0	580	544	1021	0	0	0	
4	0	0	0	0	579	545	1021	0	0	0	
5	0	0	0	0	579	545	1021	0	0	0	
6	0	0	0	0	576	543	1021	0	0	0	
7	0	0	0	0	574	542	1021	0	0	0	
8	0	0	0	0	571	539	1021	0	0	0	
9	0	0	0	0	568	536	1021	0	0	0	
10	0	0	0	0	566	532	1021	0	0	0	
11	0	0	0	0	563	529	1021	0	0	0	
12	0	0	0	0	561	527	1021	0	0	0	
13	0	0	0	0	561	525	1021	0	0	0	
14	0	0	0	0	561	524	1021	0	0	0	
15	0	0	0	0	563	526	1021	0	0	0	
0	0	0	0	0	566	529	1021	0	0	0	
1	0	0	0	0	571	534	1021	0	0	0	
2	0	0	0	0	577	540	1021	0	0	0	
3	0	0	0	0	584	548	1021	0	0	0	
4	0	0	0	0	591	556	1021	0	0	0	
5	0	0	0	0	599	564	1021	0	0	0	
6	0	0	0	0	606	572	1021	0	0	0	
7	0	0	0	0	611	578	1021	0	0	0	
8	0	0	0	0	614	582	1021	0	0	0	
9	0	0	0	0	614	583	1021	0	0	0	
10	0	0	0	0	612	583	1020	0	0	0	
11	0	0	0	0	608	578	1021	0	0	0	
12	0	0	0	0	600	572	1021	0	0	0	
13	0	0	0	0	591	562	1021	0	0	0	
14	0	0	0	0	580	551	1021	0	0	0	
15	0	0	0	0	568	538	1021	0	0	0	
0	0	0	0	0	556	525	1021	0	0	0	
1	0	0	0	0	544	513	1021	0	0	0	
2	0	0	0	0	535	503	1021	0	0	0	
3	0	0	0	0	528	495	1021	0	0	0	
4	0	0	0	0	524	491	1021	0	0	0	
5	0	0	0	0	524	491	1021	0	0	0	
6	0	0	0	0	527	494	1021	0	0	0	
7	0	0	0	0	535	502	1021	0	0	0	
8	0	0	0	0	545	512	1021	0	0	0	
9	0	0	0	0	559	526	1021	0	0	0	
10	0	0	0	0	575	541	1021	0	0	0	
11	0	0	0	0	591	557	1021	0	0	0	
12	0	0	0	0	606	571	1021	0	0	0	
13	0	0	0	0	619	583	1021	0	0	0	
14	0	0	0	0	628	590	1021	0	0	0	
15	0	0	0	0	632	594	1021	0	0	0	
0	0	0	0	0	632	592	1021	0	0	0	
1	0	0	0	0	628	587	1021	0	0	0	
2	0	0	0	0	620	578	1021	0	0	0	
3	0	0	0	0	610	568	1021	0	0	0	
4	0	0	0	0	600	556	1021	0	0	0	
5	0	0	0	0	588	545	1021	0	0	0	
6	0	0	0	0	578	535	1021	0	0	0	
7	0	0	0	0	568	524	1021	0	0	0	
8	0	0	0	0	560	517	1021	0	0	0	
9	0	0	0	0	554	511	1021	0	0	0	
10	0	0	0	0	550	508	1021	0	0	0	
11	0	0	0	0	546	504	1021	0	0	0	
12	0	0	0	0	544	503	1021	0	0	0	
13	0	0	0	0	542	501	1020	0	0	0	
14	0	0	0	0	541	500	1021	0	0	0	
15	0	0	0	0	540	500	1021	0	0	0	
0	0	0	0	0	541	500	1021	0	0	0	
1	0	0	0	0	543	501	1021	0	0	0	
2	0	0	0	0	546	503	1021	0	0	0	
3	0	0	0	0	551	505	1021	0	0	0	
4	0	0	0	0	557	509	1021	0	0	0	
5	0	0	0	0	564	513	1021	0	0	0	
6	0	0	0	0	571	516	1021	0	0	0	
7	0	0	0	0	577	520	1021	0	0	0	
8	0	0	0	0	582	523	1021	0	0	0	
9	0	0	0	0	585	524	1021	0	0	0	
10	0	0	0	0	586	524	1021	0	0	0	
11	0	0	0	0	585	523	1021	0	0	0	
12	0	0	0	0	581	521	1021	0	0	0	
13	0	0	0	0	577	519	1021	0	0	0	
14	0	0	0	0	572	516	1021	0	0	0	
15	0	0	0	0	566	515	1021	0	0	0	
0	0	0	0	0	560	514	1021	0	0	0	
1	0	0	0	0	556	513	1020	0	0	0	
2	0	0	0	0	553	514	1021	0	0	0	
3	0	0	0	0	551	516	1021	0	0	0	
4	0	0	0	0	550	519	1021	0	0	0	
5	0	0	0	0	551	522	1021	0	0	0	
6	0	0	0	0	552	525	1021	0	0	0	
7	0	0	0	0	554	528	1021	0	0	0	
8	0	0	0	0	557	531	1021	0	0	0	
9	0	0	0	0	560	533	1021	0	0	0	
10	0	0	0	0	564	534	1021	0	0	0	
11	0	0	0	0	569	536	1021	0	0	0	
12	0	0	0	0	575	536	1021	0	0	0	
13	0	0	0	0	579	536	1021	0	0	0	
14	0	0	0	0	582	534	1021	0	0	0	
15	0	0	0	0	585	532	1021	0	0	0	
0	0	0	0	0	586	530	1021	0	0	0	
1	0	0	0	0	587	529	1021	0	0	0	
2	0	0	0	0	587	527	1021	0	0	0	
3	0	0	0	0	586	527	1021	0	0	0	
4	0	0	0	0	585	529	1021	0	0	0	
5	0	0	0	0	584	531	1021	0	0	0	
6	0	0	0	0	584	534	1021	0	0	0	
7	0	0	0	0	584	537	1021	0	0	0	
8	0	0	0	0	584	541	1021	0	0	0	
9	0	0	0	0	585	545	1021	0	0	0	
10	0	0	0	0	585	548	1021	0	0	0	
11	0	0	0	0	587	551	1021	0	0	0	
12	0	0	0	0	588	553	1021	0	0	0	
13	0	0	0	0	588	553	1021	0	0	0	
14	0	0	0	0	588	553	1021	0	0	0	
15	0	0	0	0	587	551	1021	0	0	0	
0	0	0	0	0	588	551	1021	0	0	0	
1	0	0	0	0	588	550	1021	0	0	0	
2	0	0	0	0	588	550	1021	0	0	0	
3	0	0	0	0	590	551	1021	0	0	0	
4	0	0	0	0	591	553	1021	0	0	0	
5	0	0	0	0	594	556	1021	0	0	0	
6	0	0	0	0	596	561	1021	0	0	0	
7	0	0	0	0	598	565	1021	0	0	0	
8	0	0	0	0	599	569	1021	0	0	0	
9	0	0	0	0	600	574	1021	0	0	0	
10	0	0	0	0	601	578	1021	0	0	0	
11	0	0	0	0	602	583	1021	0	0	0	
12	0	0	0	0	604	588	1021	0	0	0	
13	0	0	0	0	608	593	1021	0	0	0	
14	0	0	0	0	614	600	1021	0	0	0	
15	0	0	0	0	620	605	1021	0	0	0	
0	0	0	0	0	626	609	1021	0	0	0	
1	0	0	0	0	630	610	1021	0	0	0	
2	0	0	0	0	632	608	1021	0	0	0	
3	0	0	0	0	630	602	1021	0	0	0	
4	0	0	0	0	625	593	1021	0	0	0	
5	0	0	0	0	616	581	1021	0	0	0	
6	0	0	0	0	606	568	1021	0	0	0	
7	0	0	0	0	593	555	1021	0	0	0	
8	0	0	0	0	582	544	1021	0	0	0	
9	0	0	0	0	572	536	1021	0	0	0	
10	0	0	0	0	564	531	1021	0	0	0	
11	0	0	0	0	558	528	1021	0	0	0	
12	0	0	0	0	554	528	1021	0	0	0	
13	0	0	0	0	551	530	1021	0	0	0	
14	0	0	0	0	549	531	1021	0	0	0	
15	0	0	0	0	547	532	1021	0	0	0	
0	0	0	0	0	544	532	1021	0	0	0	
1	0	0	0	0	541	531	1020	0	0	0	
2	0	0	0	0	537	529	1021	0	0	0	
3	0	0	0	0	534	526	1021	0	0	0	
4	0	0	0	0	531	523	1021	0	0	0	
5	0	0	0	0	529	520	1021	0	0	0	
6	0	0	0	0	530	519	1021	0	0	0	
7	0	0	0	0	532	519	1021	0	0	0	
8	0	0	0	0	537	521	1021	0	0	0	
9	0	0	0	0	543	524	1021	0	0	0	
10	0	0	0	0	551	527	1021	0	0	0	
11	0	0	0	0	559	532	1021	0	0	0	
12	0	0	0	0	568	536	1021	0	0	0	
13	0	0	0	0	577	542	1021	0	0	0	
14	0	0	0	0	584	547	1021	0	0	0	
15	0	0	0	0	591	551	1021	0	0	0	
0	0	0	0	0	596	556	1021	0	0	0	
1	0	0	0	0	600	559	1021	0	0	0	
2	0	0	0	0	603	562	1021	0	0	0	
3	0	0	0	0	604	564	1021	0	0	0	
4	0	0	0	0	604	566	1021	0	0	0	
5	0	0	0	0	601	566	1021	0	0	0	
6	0	0	0	0	599	565	1021	0	0	0	
7	0	0	0	0	596	564	1021	0	0	0	
8	0	0	0	0	595	563	1021	0	0	0	
9	0	0	0	0	593	562	1021	0	0	0	
10	0	0	0	0	593	562	1021	0	0	0	
11	0	0	0	0	593	562	1021	0	0	0	
12	0	0	0	0	595	563	1021	0	0	0	
13	0	0	0	0	595	563	1021	0	0	0	
14	0	0	0	0	595	563	1021	0	0	0	
15	0	0	0	0	593	561	1021	0	0	0	
0	0	0	0	0	589	557	1021	0	0	0	
1	0	0	0	0	583	552	1021	0	0	0	
2	0	0	0	0	576	547	1021	0	0	0	
3	0	0	0	0	567	540	1021	0	0	0	
4	0	0	0	0	559	534	1021	0	0	0	
5	0	0	0	0	550	527	1021	0	0	0	
6	0	0	0	0	544	523	1021	0	0	0	
7	0	0	0	0	539	519	1021	0	0	0	
8	0	0	0	0	536	517	1021	0	0	0	
9	0	0	0	0	536	515	1021	0	0	0	
10	0	0	0	0	536	515	1021	0	0	0	
11	0	0	0	0	539	516	1021	0	0	0	
12	0	0	0	0	544	519	1021	0	0	0	
13	0	0	0	0	550	521	1021	0	0	0	
14	0	0	0	0	556	525	1021	0	0	0	
15	0	0	0	0	564	529	1021	0	0	0	
0	0	0	0	0	572	534	1021	0	0	0	
1	0	0	0	0	579	537	1021	0	0	0	
2	0	0	0	0	585	541	1021	0	0	0	
3	0	0	0	0	590	543	1021	0	0	0	
4	0	0	0	0	593	546	1021	0	0	0	
5	0	0	0	0	595	548	1021	0	0	0	
6	0	0	0	0	595	550	1021	0	0	0	
7	0	0	0	0	593	551	1021	0	0	0	
8	0	0	0	0	591	553	1021	0	0	0	
9	0	0	0	0	588	554	1021	0	0	0	
10	0	0	0	0	583	554	1021	0	0	0	
11	0	0	0	0	577	551	1021	0	0	0	
12	0	0	0	0	569	547	1021	0	0	0	
13	0	0	0	0	559	541	1021	0	0	0	
14	0	0	0	0	547	532	1021	0	0	0	
15	0	0	0	0	534	520	1021	0	0	0	
0	0	0	0	0	521	508	1021	0	0	0	
1	0	0	0	0	507	493	1021	0	0	0	
2	0	0	0	0	493	478	1021	0	0	0	
3	0	0	0	0	478	462	1021	0	0	0	
4	0	0	0	0	464	446	1021	0	0	0	
5	0	0	0	0	451	430	1021	0	0	0	
6	0	0	0	0	439	416	1021	0	0	0	
7	0	0	0	0	428	404	1021	0	0	0	
8	0	0	0	0	420	394	1021	0	0	0	
9	0	0	0	0	413	387	1021	0	0	0	
10	0	0	0	0	409	383	1021	0	0	0	
11	0	0	0	0	406	381	1021	0	0	0	
12	0	0	0	0	403	380	1021	0	0	0	
13	0	0	0	0	401	378	1021	0	0	0	
14	0	0	0	0	399	377	1021	0	0	0	
15	0	0	0	0	397	376	1021	0	0	0	
0	0	0	0	0	396	375	1021	0	0	0	
1	0	0	0	0	397	375	1021	0	0	0	
2	0	0	0	0	401	378	1021	0	0	0	
3	0	0	0	0	409	384	1021	0	0	0	
4	0	0	0	0	423	393	1021	0	0	0	
5	0	0	0	0	441	407	1021	0	0	0	
6	0	0	0	0	463	423	1021	0	0	0	
7	0	0	0	0	486	440	1021	0	0	0	
8	0	0	0	0	511	458	1021	0	0	0	
9	0	0	0	0	533	475	1021	0	0	0	
10	0	0	0	0	552	489	1021	0	0	0	
11	0	0	0	0	567	500	1021	0	0	0	
12	0	0	0	0	576	508	1021	0	0	0	
13	0	0	0	0	581	512	1021	0	0	0	
14	0	0	0	0	580	514	1021	0	0	0	
15	0	0	0	0	576	514	1021	0	0	0	
0	0	0	0	0	570	513	1021	0	0	0	
1	0	0	0	0	564	513	1021	0	0	0	
2	0	0	0	0	558	514	1021	0	0	0	
3	0	0	0	0	554	515	1021	0	0	0	
4	0	0	0	0	551	518	1021	0	0	0	
5	0	0	0	0	551	521	1021	0	0	0	
6	0	0	0	0	551	524	1021	0	0	0	
7	0	0	0	0	553	526	1021	0	0	0	
8	0	0	0	0	556	527	1021	0	0	0	
9	0	0	0	0	558	528	1021	0	0	0	
10	0	0	0	0	560	527	1021	0	0	0	
11	0	0	0	0	560	524	1020	0	0	0	
12	0	0	0	0	560	520	1021	0	0	0	
13	0	0	0	0	560	516	1021	0	0	0	
14	0	0	0	0	560	512	1021	0	0	0	
15	0	0	0	0	560	508	1021	0	0	0	
0	0	0	0	0	560	507	1021	0	0	0	
1	0	0	0	0	562	507	1021	0	0	0	
2	0	0	0	0	565	509	1021	0	0	0	
3	0	0	0	0	571	515	1021	0	0	0	
4	0	0	0	0	577	522	1021	0	0	0	
5	0	0	0	0	585	531	1021	0	0	0	
6	0	0	0	0	595	542	1021	0	0	0	
7	0	0	0	0	603	551	1021	0	0	0	
8	0	0	0	0	612	561	1021	0	0	0	
9	0	0	0	0	619	568	1021	0	0	0	
10	0	0	0	0	624	574	1021	0	0	0	
11	0	0	0	0	628	578	1021	0	0	0	
12	0	0	0	0	629	578	1021	0	0	0	
13	0	0	0	0	627	575	1021	0	0	0	
14	0	0	0	0	622	570	1021	0	0	0	
15	0	0	0	0	615	562	1021	0	0	0	
0	0	0	0	0	606	553	1021	0	0	0	
1	0	0	0	0	596	542	1021	0	0	0	
2	0	0	0	0	585	531	1021	0	0	0	
3	0	0	0	0	574	521	1021	0	0	0	
4	0	0	0	0	564	513	1020	0	0	0	
5	0	0	0	0	558	508	1021	0	0	0	
6	0	0	0	0	553	504	1021	0	0	0	
7	0	0	0	0	551	505	1021	0	0	0	
8	0	0	0	0	553	509	1021	0	0	0	
9	0	0	0	0	558	515	1021	0	0	0	
10	0	0	0	0	565	523	1021	0	0	0	
11	0	0	0	0	573	531	1021	0	0	0	
12	0	0	0	0	582	540	1021	0	0	0	
13	0	0	0	0	590	548	1021	0	0	0	
14	0	0	0	0	598	555	1021	0	0	0	
15	0	0	0	0	604	560	1021	0	0	0	
0	0	0	0	0	608	562	1021	0	0	0	
1	0	0	0	0	609	562	1021	0	0	0	
2	0	0	0	0	609	560	1021	0	0	0	
3	0	0	0	0	606	556	1021	0	0	0	
4	0	0	0	0	602	551	1021	0	0	0	
5	0	0	0	0	598	546	1021	0	0	0	
6	0	0	0	0	593	541	1021	0	0	0	
7	0	0	0	0	588	537	1021	0	0	0	
8	0	0	0	0	584	535	1021	0	0	0	
9	0	0	0	0	582	534	1021	0	0	0	
10	0	0	0	0	581	535	1021	0	0	0	
11	0	0	0	0	582	539	1021	0	0	0	
12	0	0	0	0	584	543	1021	0	0	0	
13	0	0	0	0	588	549	1021	0	0	0	
14	0	0	0	0	593	556	1021	0	0	0	
15	0	0	0	0	598	563	1021	0	0	0	
0	0	0	0	0	604	569	1021	0	0	0	
1	0	0	0	0	608	575	1021	0	0	0	
2	0	0	0	0	612	578	1021	0	0	0	
3	0	0	0	0	615	580	1021	0	0	0	
4	0	0	0	0	616	581	1021	0	0	0	
5	0	0	0	0	616	580	1021	0	0	0	
6	0	0	0	0	615	579	1021	0	0	0	
7	0	0	0	0	614	577	1021	0	0	0	
8	0	0	0	0	612	575	1021	0	0	0	
9	0	0	0	0	611	573	1021	0	0	0	
10	0	0	0	0	610	572	1021	0	0	0	
11	0	0	0	0	608	570	1021	0	0	0	
12	0	0	0	0	608	569	1021	0	0	0	
13	0	0	0	0	607	568	1021	0	0	0	
14	0	0	0	0	606	569	1021	0	0	0	
15	0	0	0	0	607	571	1021	0	0	0	
0	0	0	0	0	607	572	1021	0	0	0	
1	0	0	0	0	608	574	1021	0	0	0	
2	0	0	0	0	608	575	1021	0	0	0	
3	0	0	0	0	607	576	1021	0	0	0	
4	0	0	0	0	606	576	1021	0	0	0	
5	0	0	0	0	604	574	1021	0	0	0	
6	0	0	0	0	603	572	1021	0	0	0	
7	0	0	0	0	601	569	1021	0	0	0	
8	0	0	0	0	600	567	1021	0	0	0	
9	0	0	0	0	598	563	1021	0	0	0	
10	0	0	0	0	597	560	1021	0	0	0	
11	0	0	0	0	596	557	1021	0	0	0	
12	0	0	0	0	596	554	1021	0	0	0	
13	0	0	0	0	596	552	1021	0	0	0	
14	0	0	0	0	596	551	1021	0	0	0	
15	0	0	0	0	598	551	1021	0	0	0	
0	0	0	0	0	601	552	1021	0	0	0	
1	0	0	0	0	605	556	1021	0	0	0	
2	0	0	0	0	610	561	1021	0	0	0	
3	0	0	0	0	616	568	1021	0	0	0	
4	0	0	0	0	622	575	1021	0	0	0	
5	0	0	0	0	628	583	1021	0	0	0	
6	0	0	0	0	633	588	1021	0	0	0	
7	0	0	0	0	636	592	1021	0	0	0	
8	0	0	0	0	637	593	1021	0	0	0	
9	0	0	0	0	636	592	1021	0	0	0	
10	0	0	0	0	633	589	1021	0	0	0	
11	0	0	0	0	628	582	1021	0	0	0	
12	0	0	0	0	620	572	1021	0	0	0	
13	0	0	0	0	611	560	1021	0	0	0	
14	0	0	0	0	600	547	1021	0	0	0	
15	0	0	0	0	590	534	1021	0	0	0	
0	0	0	0	0	581	522	1021	0	0	0	
1	0	0	0	0	574	512	1021	0	0	0	
2	0	0	0	0	569	505	1021	0	0	0	
3	0	0	0	0	567	501	1021	0	0	0	
4	0	0	0	0	568	500	1021	0	0	0	
5	0	0	0	0	572	503	1021	0	0	0	
6	0	0	0	0	579	509	1021	0	0	0	
7	0	0	0	0	587	517	1021	0	0	0	
8	0	0	0	0	594	524	1021	0	0	0	
9	0	0	0	0	601	532	1021	0	0	0	
10	0	0	0	0	605	537	1021	0	0	0	
11	0	0	0	0	606	539	1021	0	0	0	
12	0	0	0	0	604	540	1021	0	0	0	
13	0	0	0	0	600	537	1021	0	0	0	
14	0	0	0	0	593	533	1021	0	0	0	
15	0	0	0	0	586	528	1021	0	0	0	
0	0	0	0	0	579	522	1021	0	0	0	
1	0	0	0	0	572	516	1021	0	0	0	
2	0	0	0	0	567	511	1021	0	0	0	
3	0	0	0	0	563	508	1021	0	0	0	
4	0	0	0	0	563	505	1021	0	0	0	
5	0	0	0	0	564	505	1021	0	0	0	
6	0	0	0	0	568	507	1021	0	0	0	
7	0	0	0	0	573	510	1021	0	0	0	
8	0	0	0	0	579	514	1021	0	0	0	
9	0	0	0	0	588	520	1021	0	0	0	
10	0	0	0	0	596	528	1021	0	0	0	
11	0	0	0	0	604	536	1021	0	0	0	
12	0	0	0	0	612	544	1021	0	0	0	
13	0	0	0	0	620	553	1021	0	0	0	
14	0	0	0	0	627	561	1021	0	0	0	
15	0	0	0	0	632	569	1021	0	0	0	
0	0	0	0	0	638	576	1021	0	0	0	
1	0	0	0	0	641	582	1021	0	0	0	
2	0	0	0	0	644	585	1021	0	0	0	
3	0	0	0	0	646	587	1021	0	0	0	
4	0	0	0	0	645	586	1021	0	0	0	
5	0	0	0	0	642	582	1021	0	0	0	
6	0	0	0	0	638	576	1021	0	0	0	
7	0	0	0	0	633	569	1021	0	0	0	
8	0	0	0	0	627	561	1021	0	0	0	
9	0	0	0	0	620	551	1021	0	0	0	
10	0	0	0	0	612	543	1021	0	0	0	
11	0	0	0	0	604	534	1021	0	0	0	
12	0	0	0	0	596	526	1021	0	0	0	
13	0	0	0	0	590	520	1021	0	0	0	
14	0	0	0	0	584	516	1021	0	0	0	
15	0	0	0	0	579	513	1021	0	0	0	
0	0	0	0	0	576	511	1021	0	0	0	
1	0	0	0	0	574	511	1021	0	0	0	
2	0	0	0	0	574	512	1021	0	0	0	
3	0	0	0	0	574	513	1021	0	0	0	
4	0	0	0	0	576	515	1021	0	0	0	
5	0	0	0	0	578	517	1021	0	0	0	
6	0	0	0	0	580	518	1021	0	0	0	
7	0	0	0	0	582	519	1021	0	0	0	
8	0	0	0	0	583	517	1021	0	0	0	
9	0	0	0	0	583	515	1021	0	0	0	
10	0	0	0	0	581	512	1021	0	0	0	
11	0	0	0	0	579	509	1021	0	0	0	
12	0	0	0	0	577	507	1021	0	0	0	
13	0	0	0	0	576	506	1021	0	0	0	
14	0	0	0	0	577	507	1021	0	0	0	
15	0	0	0	0	579	510	1021	0	0	0	
0	0	0	0	0	584	516	1021	0	0	0	
1	0	0	0	0	591	524	1021	0	0	0	
2	0	0	0	0	599	534	1021	0	0	0	
3	0	0	0	0	607	543	1021	0	0	0	
4	0	0	0	0	615	550	1021	0	0	0	
5	0	0	0	0	620	556	1021	0	0	0	
6	0	0	0	0	624	560	1021	0	0	0	
7	0	0	0	0	626	561	1021	0	0	0	
8	0	0	0	0	625	560	1021	0	0	0	
9	0	0	0	0	622	556	1021	0	0	0	
10	0	0	0	0	617	551	1021	0	0	0	
11	0	0	0	0	611	544	1021	0	0	0	
12	0	0	0	0	604	537	1021	0	0	0	
13	0	0	0	0	599	530	1021	0	0	0	
14	0	0	0	0	594	525	1021	0	0	0	
15	0	0	0	0	592	521	1021	0	0	0	
0	0	0	0	0	593	521	1021	0	0	0	
1	0	0	0	0	596	522	1021	0	0	0	
2	0	0	0	0	601	526	1021	0	0	0	
3	0	0	0	0	608	531	1021	0	0	0	
4	0	0	0	0	615	537	1021	0	0	0	
5	0	0	0	0	623	544	1021	0	0	0	
6	0	0	0	0	630	551	1021	0	0	0	
7	0	0	0	0	636	557	1021	0	0	0	
8	0	0	0	0	640	562	1021	0	0	0	
9	0	0	0	0	643	566	1021	0	0	0	
10	0	0	0	0	644	568	1021	0	0	0	
11	0	0	0	0	644	568	1021	0	0	0	
12	0	0	0	0	641	567	1021	0	0	0	
13	0	0	0	0	636	564	1021	0	0	0	
14	0	0	0	0	629	559	1021	0	0	0	
15	0	0	0	0	621	552	1021	0	0	0	
0	0	0	0	0	612	545	1021	0	0	0	
1	0	0	0	0	603	537	1021	0	0	0	
2	0	0	0	0	595	529	1021	0	0	0	
3	0	0	0	0	587	522	1021	0	0	0	
4	0	0	0	0	581	516	1021	0	0	0	
5	0	0	0	0	577	511	1021	0	0	0	
6	0	0	0	0	575	508	1021	0	0	0	
7	0	0	0	0	575	508	1021	0	0	0	
8	0	0	0	0	577	510	1021	0	0	0	
9	0	0	0	0	580	513	1021	0	0	0	
10	0	0	0	0	586	518	1021	0	0	0	
11	0	0	0	0	592	524	1021	0	0	0	
12	0	0	0	0	598	531	1021	0	0	0	
13	0	0	0	0	604	537	1021	0	0	0	
14	0	0	0	0	611	544	1021	0	0	0	
15	0	0	0	0	615	551	1021	0	0	0	
0	0	0	0	0	619	556	1021	0	0	0	
1	0	0	0	0	622	560	1021	0	0	0	
2	0	0	0	0	623	563	1021	0	0	0	
3	0	0	0	0	623	566	1021	0	0	0	
4	0	0	0	0	623	566	1021	0	0	0	
5	0	0	0	0	620	565	1021	0	0	0	
6	0	0	0	0	617	563	1021	0	0	0	
7	0	0	0	0	614	560	1021	0	0	0	
8	0	0	0	0	609	556	1021	0	0	0	
9	0	0	0	0	606	551	1021	0	0	0	
10	0	0	0	0	602	547	1021	0	0	0	
11	0	0	0	0	600	544	1021	0	0	0	
12	0	0	0	0	599	542	1021	0	0	0	
13	0	0	0	0	599	542	1021	0	0	0	
14	0	0	0	0	600	542	1021	0	0	0	
15	0	0	0	0	602	544	1021	0	0	0	
0	0	0	0	0	604	547	1021	0	0	0	
1	0	0	0	0	608	551	1021	0	0	0	
2	0	0	0	0	611	555	1021	0	0	0	
3	0	0	0	0	614	558	1021	0	0	0	
4	0	0	0	0	615	561	1021	0	0	0	
5	0	0	0	0	617	563	1021	0	0	0	
6	0	0	0	0	617	563	1021	0	0	0	
7	0	0	0	0	616	562	1021	0	0	0	
8	0	0	0	0	614	560	1021	0	0	0	
9	0	0	0	0	612	557	1021	0	0	0	
10	0	0	0	0	609	553	1021	0	0	0	
11	0	0	0	0	607	551	1021	0	0	0	
12	0	0	0	0	606	549	1021	0	0	0	
13	0	0	0	0	606	548	1021	0	0	0	
14	0	0	0	0	607	550	1021	0	0	0	
15	0	0	0	0	610	552	1021	0	0	0	
0	0	0	0	0	614	557	1021	0	0	0	
1	0	0	0	0	619	563	1021	0	0	0	
2	0	0	0	0	623	568	1021	0	0	0	
3	0	0	0	0	627	573	1021	0	0	0	
4	0	0	0	0	628	576	1021	0	0	0	
5	0	0	0	0	627	578	1021	0	0	0	
6	0	0	0	0	625	578	1021	0	0	0	
7	0	0	0	0	620	575	1021	0	0	0	
8	0	0	0	0	614	572	1021	0	0	0	
9	0	0	0	0	606	568	1021	0	0	0	
10	0	0	0	0	598	561	1021	0	0	0	
11	0	0	0	0	590	555	1021	0	0	0	
12	0	0	0	0	583	549	1021	0	0	0	
13	0	0	0	0	577	544	1021	0	0	0	
14	0	0	0	0	575	540	1021	0	0	0	
15	0	0	0	0	575	540	1021	0	0	0	
0	0	0	0	0	580	542	1021	0	0	0	
1	0	0	0	0	589	547	1021	0	0	0	
2	0	0	0	0	600	555	1021	0	0	0	
3	0	0	0	0	614	564	1021	0	0	0	
4	0	0	0	0	627	575	1021	0	0	0	
5	0	0	0	0	642	587	1021	0	0	0	
6	0	0	0	0	656	598	1021	0	0	0	
7	0	0	0	0	668	608	1021	0	0	0	
8	0	0	0	0	676	616	1021	0	0	0	
9	0	0	0	0	680	622	1021	0	0	0	
10	0	0	0	0	681	623	1021	0	0	0	
11	0	0	0	0	675	620	1021	0	0	0	
12	0	0	0	0	665	612	1020	0	0	0	
13	0	0	0	0	651	601	1021	0	0	0	
14	0	0	0	0	632	587	1021	0	0	0	
15	0	0	0	0	614	570	1021	0	0	0	
0	0	0	0	0	595	554	1021	0	0	0	
1	0	0	0	0	577	538	1021	0	0	0	
2	0	0	0	0	563	525	1021	0	0	0	
3	0	0	0	0	553	515	1020	0	0	0	
4	0	0	0	0	548	509	1021	0	0	0	
5	0	0	0	0	547	506	1021	0	0	0	
6	0	0	0	0	550	506	1021	0	0	0	
7	0	0	0	0	556	509	1021	0	0	0	
8	0	0	0	0	563	514	1021	0	0	0	
9	0	0	0	0	574	521	1021	0	0	0	
10	0	0	0	0	583	529	1021	0	0	0	
11	0	0	0	0	593	537	1021	0	0	0	
12	0	0	0	0	600	544	1021	0	0	0	
13	0	0	0	0	606	551	1021	0	0	0	
14	0	0	0	0	611	556	1021	0	0	0	
15	0	0	0	0	613	559	1021	0	0	0	
0	0	0	0	0	613	562	1021	0	0	0	
1	0	0	0	0	612	562	1021	0	0	0	
2	0	0	0	0	609	561	1021	0	0	0	
3	0	0	0	0	606	559	1021	0	0	0	
4	0	0	0	0	602	556	1021	0	0	0	
5	0	0	0	0	598	553	1021	0	0	0	
6	0	0	0	0	595	550	1021	0	0	0	
7	0	0	0	0	592	547	1021	0	0	0	
8	0	0	0	0	590	545	1021	0	0	0	
9	0	0	0	0	589	543	1021	0	0	0	
10	0	0	0	0	588	541	1021	0	0	0	
11	0	0	0	0	588	540	1021	0	0	0	
12	0	0	0	0	587	539	1021	0	0	0	
