# OpenSignals Text File Format. Version 1
# {"": {"position": 0, "device": "", "device name": "", "device connection": "", "sampling rate": 1000, "resolution": [4, 1, 1, 1, 1, 10, 10, 10, 10, 6, 6], "firmware version": 1281, "comments": "", "keywords": "", "mode": 0, "sync interval": 2, "date": "", "time": "", "channels": [1, 2, 3, 4, 5, 6], "sensor": ["RAW", "RAW", "RAW", "RAW", "RAW", "RAW"], "label": ["A1", "A2", "A3", "A4", "A5", "A6"], "column": ["nSeq", "I1", "I2", "O1", "O2", "A1", "A2", "A3", "A4", "A5", "A6"], "special": [{}, {}, {}, {}, {}, {}], "digital IO": [0, 0, 1, 1]}}
# EndOfHeader
0	0	0	0	0	548	494	1021	0	0	0	
1	0	0	0	0	544	488	1021	0	0	0	
2	0	0	0	0	538	482	1021	0	0	0	
3	0	0	0	0	530	475	1021	0	0	0	
4	0	0	0	0	524	467	1021	0	0	0	
5	0	0	0	0	516	460	1021	0	0	0	
6	0	0	0	0	511	455	1021	0	0	0	
7	0	0	0	0	506	450	1021	0	0	0	
8	0	0	0	0	504	448	1021	0	0	0	
9	0	0	0	0	502	448	1021	0	0	0	
10	0	0	0	0	504	449	1021	0	0	0	
11	0	0	0	0	507	452	1021	0	0	0	
12	0	0	0	0	511	456	1021	0	0	0	
13	0	0	0	0	516	462	1020	0	0	0	
14	0	0	0	0	523	467	1021	0	0	0	
15	0	0	0	0	530	473	1021	0	0	0	
0	0	0	0	0	537	480	1021	0	0	0	
1	0	0	0	0	544	485	1021	0	0	0	
2	0	0	0	0	550	489	1021	0	0	0	
3	0	0	0	0	555	492	1021	0	0	0	
4	0	0	0	0	558	493	1021	0	0	0	
5	0	0	0	0	559	492	1021	0	0	0	
6	0	0	0	0	558	490	1021	0	0	0	
7	0	0	0	0	555	486	1020	0	0	0	
8	0	0	0	0	550	479	1021	0	0	0	
9	0	0	0	0	543	472	1021	0	0	0	
10	0	0	0	0	535	465	1021	0	0	0	
11	0	0	0	0	527	458	1021	0	0	0	
12	0	0	0	0	520	452	1021	0	0	0	
13	0	0	0	0	514	447	1021	0	0	0	
14	0	0	0	0	510	444	1021	0	0	0	
15	0	0	0	0	508	443	1021	0	0	0	
0	0	0	0	0	506	443	1021	0	0	0	
1	0	0	0	0	507	444	1021	0	0	0	
2	0	0	0	0	508	446	1021	0	0	0	
3	0	0	0	0	510	448	1021	0	0	0	
4	0	0	0	0	512	450	1021	0	0	0	
5	0	0	0	0	515	452	1021	0	0	0	
6	0	0	0	0	518	454	1021	0	0	0	
7	0	0	0	0	521	455	1021	0	0	0	
8	0	0	0	0	524	457	1021	0	0	0	
9	0	0	0	0	527	458	1021	0	0	0	
10	0	0	0	0	532	460	1021	0	0	0	
11	0	0	0	0	536	462	1021	0	0	0	
12	0	0	0	0	539	463	1020	0	0	0	
13	0	0	0	0	543	465	1021	0	0	0	
14	0	0	0	0	545	465	1021	0	0	0	
15	0	0	0	0	546	464	1021	0	0	0	
0	0	0	0	0	545	463	1021	0	0	0	
1	0	0	0	0	543	462	1021	0	0	0	
2	0	0	0	0	541	460	1021	0	0	0	
3	0	0	0	0	539	459	1021	0	0	0	
4	0	0	0	0	536	459	1021	0	0	0	
5	0	0	0	0	534	458	1021	0	0	0	
6	0	0	0	0	532	458	1021	0	0	0	
7	0	0	0	0	530	457	1021	0	0	0	
8	0	0	0	0	528	456	1021	0	0	0	
9	0	0	0	0	526	455	1021	0	0	0	
10	0	0	0	0	524	452	1021	0	0	0	
11	0	0	0	0	524	451	1021	0	0	0	
12	0	0	0	0	524	449	1021	0	0	0	
13	0	0	0	0	525	449	1021	0	0	0	
14	0	0	0	0	527	450	1021	0	0	0	
15	0	0	0	0	531	452	1021	0	0	0	
0	0	0	0	0	536	455	1021	0	0	0	
1	0	0	0	0	540	459	1021	0	0	0	
2	0	0	0	0	545	463	1021	0	0	0	
3	0	0	0	0	549	467	1021	0	0	0	
4	0	0	0	0	552	471	1021	0	0	0	
5	0	0	0	0	555	474	1021	0	0	0	
6	0	0	0	0	556	476	1021	0	0	0	
7	0	0	0	0	554	476	1021	0	0	0	
8	0	0	0	0	552	475	1021	0	0	0	
9	0	0	0	0	548	472	1021	0	0	0	
10	0	0	0	0	543	468	1021	0	0	0	
11	0	0	0	0	537	463	1021	0	0	0	
12	0	0	0	0	531	457	1021	0	0	0	
13	0	0	0	0	526	452	1021	0	0	0	
14	0	0	0	0	522	447	1021	0	0	0	
15	0	0	0	0	519	444	1020	0	0	0	
0	0	0	0	0	519	441	1021	0	0	0	
1	0	0	0	0	522	441	1021	0	0	0	
2	0	0	0	0	525	441	1021	0	0	0	
3	0	0	0	0	530	444	1021	0	0	0	
4	0	0	0	0	536	447	1020	0	0	0	
5	0	0	0	0	541	450	1021	0	0	0	
6	0	0	0	0	545	452	1021	0	0	0	
7	0	0	0	0	548	454	1021	0	0	0	
8	0	0	0	0	550	455	1021	0	0	0	
9	0	0	0	0	549	455	1021	0	0	0	
10	0	0	0	0	548	455	1021	0	0	0	
11	0	0	0	0	546	454	1021	0	0	0	
12	0	0	0	0	542	452	1021	0	0	0	
13	0	0	0	0	539	450	1020	0	0	0	
14	0	0	0	0	534	447	1021	0	0	0	
15	0	0	0	0	530	445	1021	0	0	0	
0	0	0	0	0	525	441	1021	0	0	0	
1	0	0	0	0	521	438	1021	0	0	0	
2	0	0	0	0	516	433	1021	0	0	0	
3	0	0	0	0	511	428	1021	0	0	0	
4	0	0	0	0	505	421	1021	0	0	0	
5	0	0	0	0	500	415	1021	0	0	0	
6	0	0	0	0	496	408	1021	0	0	0	
7	0	0	0	0	491	402	1020	0	0	0	
8	0	0	0	0	487	396	1021	0	0	0	
9	0	0	0	0	486	392	1021	0	0	0	
10	0	0	0	0	486	390	1021	0	0	0	
11	0	0	0	0	487	389	1021	0	0	0	
12	0	0	0	0	490	391	1021	0	0	0	
13	0	0	0	0	494	395	1021	0	0	0	
14	0	0	0	0	500	400	1021	0	0	0	
15	0	0	0	0	507	407	1021	0	0	0	
0	0	0	0	0	513	414	1021	0	0	0	
1	0	0	0	0	519	420	1021	0	0	0	
2	0	0	0	0	524	426	1021	0	0	0	
3	0	0	0	0	527	430	1021	0	0	0	
4	0	0	0	0	529	433	1021	0	0	0	
5	0	0	0	0	529	435	1021	0	0	0	
6	0	0	0	0	529	436	1021	0	0	0	
7	0	0	0	0	528	437	1021	0	0	0	
8	0	0	0	0	527	436	1021	0	0	0	
9	0	0	0	0	526	435	1021	0	0	0	
10	0	0	0	0	525	434	1021	0	0	0	
11	0	0	0	0	524	433	1020	0	0	0	
12	0	0	0	0	524	432	1021	0	0	0	
13	0	0	0	0	525	432	1021	0	0	0	
14	0	0	0	0	526	432	1021	0	0	0	
15	0	0	0	0	528	433	1021	0	0	0	
0	0	0	0	0	530	435	1021	0	0	0	
1	0	0	0	0	533	438	1021	0	0	0	
2	0	0	0	0	536	440	1021	0	0	0	
3	0	0	0	0	538	444	1021	0	0	0	
4	0	0	0	0	541	446	1021	0	0	0	
5	0	0	0	0	543	450	1021	0	0	0	
6	0	0	0	0	547	455	1021	0	0	0	
7	0	0	0	0	552	459	1021	0	0	0	
8	0	0	0	0	557	463	1021	0	0	0	
9	0	0	0	0	562	467	1021	0	0	0	
10	0	0	0	0	567	472	1021	0	0	0	
11	0	0	0	0	572	476	1021	0	0	0	
12	0	0	0	0	578	480	1021	0	0	0	
13	0	0	0	0	583	484	1021	0	0	0	
14	0	0	0	0	588	487	1021	0	0	0	
15	0	0	0	0	592	491	1021	0	0	0	
0	0	0	0	0	596	494	1021	0	0	0	
1	0	0	0	0	599	497	1021	0	0	0	
2	0	0	0	0	601	499	1021	0	0	0	
3	0	0	0	0	601	501	1021	0	0	0	
4	0	0	0	0	600	501	1021	0	0	0	
5	0	0	0	0	597	499	1021	0	0	0	
6	0	0	0	0	592	496	1021	0	0	0	
7	0	0	0	0	585	492	1021	0	0	0	
8	0	0	0	0	578	486	1021	0	0	0	
9	0	0	0	0	568	479	1021	0	0	0	
10	0	0	0	0	558	471	1021	0	0	0	
11	0	0	0	0	546	460	1021	0	0	0	
12	0	0	0	0	534	449	1021	0	0	0	
13	0	0	0	0	521	437	1021	0	0	0	
14	0	0	0	0	507	423	1021	0	0	0	
15	0	0	0	0	493	408	1021	0	0	0	
0	0	0	0	0	479	392	1021	0	0	0	
1	0	0	0	0	464	376	1021	0	0	0	
2	0	0	0	0	450	359	1021	0	0	0	
3	0	0	0	0	437	344	1021	0	0	0	
4	0	0	0	0	425	329	1020	0	0	0	
5	0	0	0	0	415	316	1021	0	0	0	
6	0	0	0	0	405	304	1021	0	0	0	
7	0	0	0	0	397	294	1021	0	0	0	
8	0	0	0	0	391	287	1021	0	0	0	
9	0	0	0	0	386	282	1021	0	0	0	
10	0	0	0	0	384	279	1021	0	0	0	
11	0	0	0	0	383	279	1021	0	0	0	
12	0	0	0	0	383	280	1021	0	0	0	
13	0	0	0	0	384	281	1020	0	0	0	
14	0	0	0	0	384	283	1020	0	0	0	
15	0	0	0	0	385	285	1021	0	0	0	
0	0	0	0	0	386	287	1021	0	0	0	
1	0	0	0	0	386	288	1021	0	0	0	
2	0	0	0	0	386	288	1021	0	0	0	
3	0	0	0	0	385	288	1020	0	0	0	
4	0	0	0	0	386	288	1021	0	0	0	
5	0	0	0	0	388	288	1021	0	0	0	
6	0	0	0	0	391	290	1021	0	0	0	
7	0	0	0	0	397	294	1021	0	0	0	
8	0	0	0	0	405	299	1021	0	0	0	
9	0	0	0	0	416	307	1021	0	0	0	
10	0	0	0	0	429	319	1021	0	0	0	
11	0	0	0	0	445	332	1021	0	0	0	
12	0	0	0	0	463	349	1020	0	0	0	
13	0	0	0	0	481	367	1021	0	0	0	
14	0	0	0	0	502	386	1021	0	0	0	
15	0	0	0	0	520	404	1021	0	0	0	
0	0	0	0	0	536	422	1021	0	0	0	
1	0	0	0	0	549	435	1021	0	0	0	
2	0	0	0	0	558	445	1021	0	0	0	
3	0	0	0	0	561	451	1021	0	0	0	
4	0	0	0	0	561	453	1021	0	0	0	
5	0	0	0	0	556	451	1021	0	0	0	
6	0	0	0	0	549	447	1021	0	0	0	
7	0	0	0	0	542	441	1021	0	0	0	
8	0	0	0	0	533	435	1021	0	0	0	
9	0	0	0	0	526	429	1021	0	0	0	
10	0	0	0	0	519	423	1021	0	0	0	
11	0	0	0	0	515	419	1021	0	0	0	
12	0	0	0	0	513	416	1021	0	0	0	
13	0	0	0	0	513	415	1021	0	0	0	
14	0	0	0	0	516	416	1021	0	0	0	
15	0	0	0	0	521	419	1021	0	0	0	
0	0	0	0	0	528	423	1021	0	0	0	
1	0	0	0	0	538	430	1021	0	0	0	
2	0	0	0	0	547	438	1021	0	0	0	
3	0	0	0	0	557	446	1021	0	0	0	
4	0	0	0	0	566	454	1021	0	0	0	
5	0	0	0	0	572	461	1021	0	0	0	
6	0	0	0	0	578	466	1021	0	0	0	
7	0	0	0	0	580	470	1021	0	0	0	
8	0	0	0	0	580	471	1021	0	0	0	
9	0	0	0	0	577	470	1021	0	0	0	
10	0	0	0	0	571	467	1021	0	0	0	
11	0	0	0	0	564	462	1021	0	0	0	
12	0	0	0	0	556	456	1021	0	0	0	
13	0	0	0	0	548	450	1021	0	0	0	
14	0	0	0	0	540	443	1021	0	0	0	
15	0	0	0	0	533	438	1021	0	0	0	
0	0	0	0	0	528	433	1021	0	0	0	
1	0	0	0	0	524	430	1021	0	0	0	
2	0	0	0	0	523	429	1021	0	0	0	
3	0	0	0	0	524	430	1021	0	0	0	
4	0	0	0	0	527	434	1021	0	0	0	
5	0	0	0	0	533	439	1021	0	0	0	
6	0	0	0	0	540	446	1021	0	0	0	
7	0	0	0	0	548	455	1021	0	0	0	
8	0	0	0	0	557	464	1021	0	0	0	
9	0	0	0	0	566	473	1021	0	0	0	
10	0	0	0	0	575	482	1021	0	0	0	
11	0	0	0	0	583	490	1021	0	0	0	
12	0	0	0	0	590	496	1021	0	0	0	
13	0	0	0	0	594	500	1021	0	0	0	
14	0	0	0	0	596	503	1021	0	0	0	
15	0	0	0	0	598	502	1021	0	0	0	
0	0	0	0	0	596	500	1021	0	0	0	
1	0	0	0	0	593	496	1021	0	0	0	
2	0	0	0	0	588	491	1021	0	0	0	
3	0	0	0	0	581	484	1021	0	0	0	
4	0	0	0	0	573	476	1021	0	0	0	
5	0	0	0	0	565	468	1021	0	0	0	
6	0	0	0	0	556	460	1021	0	0	0	
7	0	0	0	0	546	451	1021	0	0	0	
8	0	0	0	0	537	444	1021	0	0	0	
9	0	0	0	0	529	437	1021	0	0	0	
10	0	0	0	0	522	432	1021	0	0	0	
11	0	0	0	0	517	429	1021	0	0	0	
12	0	0	0	0	513	428	1021	0	0	0	
13	0	0	0	0	513	429	1021	0	0	0	
14	0	0	0	0	514	432	1021	0	0	0	
15	0	0	0	0	518	435	1021	0	0	0	
0	0	0	0	0	524	441	1021	0	0	0	
1	0	0	0	0	531	448	1021	0	0	0	
2	0	0	0	0	539	454	1021	0	0	0	
3	0	0	0	0	547	460	1021	0	0	0	
4	0	0	0	0	556	466	1021	0	0	0	
5	0	0	0	0	563	471	1021	0	0	0	
6	0	0	0	0	570	475	1021	0	0	0	
7	0	0	0	0	575	477	1021	0	0	0	
8	0	0	0	0	577	478	1021	0	0	0	
9	0	0	0	0	578	478	1021	0	0	0	
10	0	0	0	0	577	477	1021	0	0	0	
11	0	0	0	0	574	475	1021	0	0	0	
12	0	0	0	0	569	472	1021	0	0	0	
13	0	0	0	0	564	469	1021	0	0	0	
14	0	0	0	0	557	466	1021	0	0	0	
15	0	0	0	0	551	463	1021	0	0	0	
0	0	0	0	0	545	462	1021	0	0	0	
1	0	0	0	0	541	462	1021	0	0	0	
2	0	0	0	0	539	462	1021	0	0	0	
3	0	0	0	0	539	464	1021	0	0	0	
4	0	0	0	0	541	467	1021	0	0	0	
5	0	0	0	0	545	470	1021	0	0	0	
6	0	0	0	0	551	475	1021	0	0	0	
7	0	0	0	0	558	480	1021	0	0	0	
8	0	0	0	0	566	485	1021	0	0	0	
9	0	0	0	0	575	489	1021	0	0	0	
10	0	0	0	0	583	494	1021	0	0	0	
11	0	0	0	0	589	496	1021	0	0	0	
12	0	0	0	0	593	497	1021	0	0	0	
13	0	0	0	0	596	498	1021	0	0	0	
14	0	0	0	0	597	496	1021	0	0	0	
15	0	0	0	0	595	494	1021	0	0	0	
0	0	0	0	0	591	491	1021	0	0	0	
1	0	0	0	0	585	488	1020	0	0	0	
2	0	0	0	0	580	485	1021	0	0	0	
3	0	0	0	0	575	483	1021	0	0	0	
4	0	0	0	0	569	481	1021	0	0	0	
5	0	0	0	0	566	481	1021	0	0	0	
6	0	0	0	0	563	481	1020	0	0	0	
7	0	0	0	0	562	482	1021	0	0	0	
8	0	0	0	0	563	483	1021	0	0	0	
9	0	0	0	0	562	483	1021	0	0	0	
10	0	0	0	0	562	482	1020	0	0	0	
11	0	0	0	0	561	480	1020	0	0	0	
12	0	0	0	0	560	477	1021	0	0	0	
13	0	0	0	0	558	472	1021	0	0	0	
14	0	0	0	0	555	467	1021	0	0	0	
15	0	0	0	0	550	460	1021	0	0	0	
0	0	0	0	0	545	453	1021	0	0	0	
1	0	0	0	0	540	447	1021	0	0	0	
2	0	0	0	0	534	441	1021	0	0	0	
3	0	0	0	0	530	436	1021	0	0	0	
4	0	0	0	0	527	434	1021	0	0	0	
5	0	0	0	0	524	433	1020	0	0	0	
6	0	0	0	0	525	434	1021	0	0	0	
7	0	0	0	0	527	438	1021	0	0	0	
8	0	0	0	0	532	443	1021	0	0	0	
9	0	0	0	0	537	449	1021	0	0	0	
10	0	0	0	0	544	455	1021	0	0	0	
11	0	0	0	0	551	462	1021	0	0	0	
12	0	0	0	0	558	467	1021	0	0	0	
13	0	0	0	0	562	470	1021	0	0	0	
14	0	0	0	0	565	472	1021	0	0	0	
15	0	0	0	0	565	470	1020	0	0	0	
0	0	0	0	0	562	465	1021	0	0	0	
1	0	0	0	0	557	459	1021	0	0	0	
2	0	0	0	0	550	450	1021	0	0	0	
3	0	0	0	0	541	441	1021	0	0	0	
4	0	0	0	0	530	431	1020	0	0	0	
5	0	0	0	0	519	421	1021	0	0	0	
6	0	0	0	0	510	413	1021	0	0	0	
7	0	0	0	0	500	406	1021	0	0	0	
8	0	0	0	0	492	400	1021	0	0	0	
9	0	0	0	0	487	397	1021	0	0	0	
10	0	0	0	0	483	396	1021	0	0	0	
11	0	0	0	0	482	396	1021	0	0	0	
12	0	0	0	0	483	399	1021	0	0	0	
13	0	0	0	0	486	402	1021	0	0	0	
14	0	0	0	0	490	407	1021	0	0	0	
15	0	0	0	0	496	412	1021	0	0	0	
0	0	0	0	0	502	417	1021	0	0	0	
1	0	0	0	0	510	422	1021	0	0	0	
2	0	0	0	0	517	427	1021	0	0	0	
3	0	0	0	0	525	432	1021	0	0	0	
4	0	0	0	0	534	437	1021	0	0	0	
5	0	0	0	0	542	442	1021	0	0	0	
6	0	0	0	0	549	447	1021	0	0	0	
7	0	0	0	0	556	451	1021	0	0	0	
8	0	0	0	0	562	456	1021	0	0	0	
9	0	0	0	0	567	460	1021	0	0	0	
10	0	0	0	0	571	463	1021	0	0	0	
11	0	0	0	0	574	467	1021	0	0	0	
12	0	0	0	0	575	470	1021	0	0	0	
13	0	0	0	0	575	473	1020	0	0	0	
14	0	0	0	0	576	477	1021	0	0	0	
15	0	0	0	0	576	479	1021	0	0	0	
0	0	0	0	0	575	482	1021	0	0	0	
1	0	0	0	0	575	484	1021	0	0	0	
2	0	0	0	0	573	484	1021	0	0	0	
3	0	0	0	0	572	484	1021	0	0	0	
4	0	0	0	0	569	482	1021	0	0	0	
5	0	0	0	0	566	479	1021	0	0	0	
6	0	0	0	0	561	475	1021	0	0	0	
7	0	0	0	0	557	468	1021	0	0	0	
8	0	0	0	0	551	461	1021	0	0	0	
9	0	0	0	0	543	452	1021	0	0	0	
10	0	0	0	0	536	443	1021	0	0	0	
11	0	0	0	0	527	433	1021	0	0	0	
12	0	0	0	0	520	424	1021	0	0	0	
13	0	0	0	0	514	417	1021	0	0	0	
14	0	0	0	0	509	412	1021	0	0	0	
15	0	0	0	0	506	408	1021	0	0	0	
0	0	0	0	0	505	407	1021	0	0	0	
1	0	0	0	0	508	409	1021	0	0	0	
2	0	0	0	0	512	414	1021	0	0	0	
3	0	0	0	0	519	422	1021	0	0	0	
4	0	0	0	0	529	432	1021	0	0	0	
5	0	0	0	0	541	444	1021	0	0	0	
6	0	0	0	0	553	455	1021	0	0	0	
7	0	0	0	0	566	467	1021	0	0	0	
8	0	0	0	0	577	478	1021	0	0	0	
9	0	0	0	0	586	486	1021	0	0	0	
10	0	0	0	0	592	491	1021	0	0	0	
11	0	0	0	0	595	492	1021	0	0	0	
12	0	0	0	0	593	491	1021	0	0	0	
13	0	0	0	0	589	486	1021	0	0	0	
14	0	0	0	0	582	479	1021	0	0	0	
15	0	0	0	0	573	471	1021	0	0	0	
0	0	0	0	0	565	463	1021	0	0	0	
1	0	0	0	0	556	456	1021	0	0	0	
2	0	0	0	0	550	450	1021	0	0	0	
3	0	0	0	0	544	445	1021	0	0	0	
4	0	0	0	0	540	443	1021	0	0	0	
5	0	0	0	0	538	442	1021	0	0	0	
6	0	0	0	0	537	441	1021	0	0	0	
7	0	0	0	0	537	441	1021	0	0	0	
8	0	0	0	0	537	440	1021	0	0	0	
9	0	0	0	0	536	440	1021	0	0	0	
10	0	0	0	0	535	438	1021	0	0	0	
11	0	0	0	0	534	435	1021	0	0	0	
12	0	0	0	0	532	432	1021	0	0	0	
13	0	0	0	0	531	430	1021	0	0	0	
14	0	0	0	0	530	428	1021	0	0	0	
15	0	0	0	0	530	426	1021	0	0	0	
0	0	0	0	0	531	424	1021	0	0	0	
1	0	0	0	0	534	424	1021	0	0	0	
2	0	0	0	0	536	425	1021	0	0	0	
3	0	0	0	0	540	426	1021	0	0	0	
4	0	0	0	0	543	428	1021	0	0	0	
5	0	0	0	0	547	430	1021	0	0	0	
6	0	0	0	0	550	432	1021	0	0	0	
7	0	0	0	0	551	434	1021	0	0	0	
8	0	0	0	0	553	436	1021	0	0	0	
9	0	0	0	0	555	438	1021	0	0	0	
10	0	0	0	0	555	440	1021	0	0	0	
11	0	0	0	0	554	440	1021	0	0	0	
12	0	0	0	0	553	441	1021	0	0	0	
13	0	0	0	0	553	442	1021	0	0	0	
14	0	0	0	0	551	442	1020	0	0	0	
15	0	0	0	0	550	441	1021	0	0	0	
0	0	0	0	0	548	441	1021	0	0	0	
1	0	0	0	0	547	439	1021	0	0	0	
2	0	0	0	0	545	437	1021	0	0	0	
3	0	0	0	0	544	434	1021	0	0	0	
4	0	0	0	0	542	431	1021	0	0	0	
5	0	0	0	0	540	427	1021	0	0	0	
6	0	0	0	0	538	423	1021	0	0	0	
7	0	0	0	0	536	419	1021	0	0	0	
8	0	0	0	0	535	416	1021	0	0	0	
9	0	0	0	0	535	414	1021	0	0	0	
10	0	0	0	0	535	414	1021	0	0	0	
11	0	0	0	0	537	415	1021	0	0	0	
12	0	0	0	0	540	418	1021	0	0	0	
13	0	0	0	0	545	423	1021	0	0	0	
14	0	0	0	0	551	431	1021	0	0	0	
15	0	0	0	0	559	439	1021	0	0	0	
0	0	0	0	0	568	449	1021	0	0	0	
1	0	0	0	0	577	458	1021	0	0	0	
2	0	0	0	0	585	467	1021	0	0	0	
3	0	0	0	0	593	473	1021	0	0	0	
4	0	0	0	0	598	478	1021	0	0	0	
5	0	0	0	0	600	480	1021	0	0	0	
6	0	0	0	0	600	478	1021	0	0	0	
7	0	0	0	0	597	473	1021	0	0	0	
8	0	0	0	0	591	466	1021	0	0	0	
9	0	0	0	0	583	457	1021	0	0	0	
10	0	0	0	0	575	448	1021	0	0	0	
11	0	0	0	0	567	438	1021	0	0	0	
12	0	0	0	0	558	430	1021	0	0	0	
13	0	0	0	0	551	422	1021	0	0	0	
14	0	0	0	0	543	415	1021	0	0	0	
15	0	0	0	0	536	409	1021	0	0	0	
0	0	0	0	0	530	404	1021	0	0	0	
1	0	0	0	0	524	400	1021	0	0	0	
2	0	0	0	0	520	398	1021	0	0	0	
3	0	0	0	0	518	398	1021	0	0	0	
4	0	0	0	0	517	399	1021	0	0	0	
5	0	0	0	0	518	402	1021	0	0	0	
6	0	0	0	0	521	407	1021	0	0	0	
7	0	0	0	0	527	412	1021	0	0	0	
8	0	0	0	0	533	418	1021	0	0	0	
9	0	0	0	0	540	423	1021	0	0	0	
10	0	0	0	0	546	428	1021	0	0	0	
11	0	0	0	0	551	432	1021	0	0	0	
12	0	0	0	0	556	434	1021	0	0	0	
13	0	0	0	0	560	436	1021	0	0	0	
14	0	0	0	0	563	437	1021	0	0	0	
15	0	0	0	0	564	437	1021	0	0	0	
0	0	0	0	0	565	435	1021	0	0	0	
1	0	0	0	0	563	433	1021	0	0	0	
2	0	0	0	0	560	430	1021	0	0	0	
3	0	0	0	0	556	426	1021	0	0	0	
4	0	0	0	0	550	422	1021	0	0	0	
5	0	0	0	0	545	418	1021	0	0	0	
6	0	0	0	0	540	415	1021	0	0	0	
7	0	0	0	0	535	412	1021	0	0	0	
8	0	0	0	0	531	409	1021	0	0	0	
9	0	0	0	0	529	409	1021	0	0	0	
10	0	0	0	0	528	408	1021	0	0	0	
11	0	0	0	0	529	409	1021	0	0	0	
12	0	0	0	0	531	411	1021	0	0	0	
13	0	0	0	0	532	412	1021	0	0	0	
14	0	0	0	0	534	411	1021	0	0	0	
15	0	0	0	0	534	410	1021	0	0	0	
0	0	0	0	0	534	408	1021	0	0	0	
1	0	0	0	0	534	406	1021	0	0	0	
2	0	0	0	0	533	403	1021	0	0	0	
3	0	0	0	0	532	400	1020	0	0	0	
4	0	0	0	0	531	398	1020	0	0	0	
5	0	0	0	0	532	397	1021	0	0	0	
6	0	0	0	0	533	398	1021	0	0	0	
7	0	0	0	0	536	400	1021	0	0	0	
8	0	0	0	0	538	403	1021	0	0	0	
9	0	0	0	0	541	408	1021	0	0	0	
10	0	0	0	0	544	412	1021	0	0	0	
11	0	0	0	0	548	417	1021	0	0	0	
12	0	0	0	0	550	421	1021	0	0	0	
13	0	0	0	0	552	424	1021	0	0	0	
14	0	0	0	0	553	427	1021	0	0	0	
15	0	0	0	0	553	428	1021	0	0	0	
0	0	0	0	0	553	429	1021	0	0	0	
1	0	0	0	0	553	428	1021	0	0	0	
2	0	0	0	0	552	428	1020	0	0	0	
3	0	0	0	0	551	426	1020	0	0	0	
4	0	0	0	0	550	424	1021	0	0	0	
5	0	0	0	0	549	422	1021	0	0	0	
6	0	0	0	0	548	421	1021	0	0	0	
7	0	0	0	0	548	420	1021	0	0	0	
8	0	0	0	0	550	420	1021	0	0	0	
9	0	0	0	0	552	422	1021	0	0	0	
10	0	0	0	0	556	424	1021	0	0	0	
11	0	0	0	0	560	428	1021	0	0	0	
12	0	0	0	0	565	432	1021	0	0	0	
13	0	0	0	0	570	438	1021	0	0	0	
14	0	0	0	0	575	443	1021	0	0	0	
15	0	0	0	0	580	448	1021	0	0	0	
0	0	0	0	0	584	453	1021	0	0	0	
1	0	0	0	0	588	457	1021	0	0	0	
2	0	0	0	0	589	459	1021	0	0	0	
3	0	0	0	0	590	460	1021	0	0	0	
4	0	0	0	0	587	459	1021	0	0	0	
5	0	0	0	0	583	456	1021	0	0	0	
6	0	0	0	0	577	451	1021	0	0	0	
7	0	0	0	0	569	444	1021	0	0	0	
8	0	0	0	0	561	437	1021	0	0	0	
9	0	0	0	0	552	430	1021	0	0	0	
10	0	0	0	0	543	421	1021	0	0	0	
11	0	0	0	0	534	412	1021	0	0	0	
12	0	0	0	0	524	403	1021	0	0	0	
13	0	0	0	0	516	394	1021	0	0	0	
14	0	0	0	0	508	386	1021	0	0	0	
15	0	0	0	0	500	377	1021	0	0	0	
0	0	0	0	0	495	372	1021	0	0	0	
1	0	0	0	0	491	367	1020	0	0	0	
2	0	0	0	0	489	365	1021	0	0	0	
3	0	0	0	0	489	364	1021	0	0	0	
4	0	0	0	0	492	367	1021	0	0	0	
5	0	0	0	0	497	371	1020	0	0	0	
6	0	0	0	0	503	377	1020	0	0	0	
7	0	0	0	0	511	384	1021	0	0	0	
8	0	0	0	0	520	392	1021	0	0	0	
9	0	0	0	0	528	400	1021	0	0	0	
10	0	0	0	0	536	408	1020	0	0	0	
11	0	0	0	0	544	415	1021	0	0	0	
12	0	0	0	0	552	422	1021	0	0	0	
13	0	0	0	0	559	428	1021	0	0	0	
14	0	0	0	0	564	433	1021	0	0	0	
15	0	0	0	0	570	439	1021	0	0	0	
0	0	0	0	0	575	443	1021	0	0	0	
1	0	0	0	0	579	448	1021	0	0	0	
2	0	0	0	0	583	451	1021	0	0	0	
3	0	0	0	0	586	455	1021	0	0	0	
4	0	0	0	0	588	458	1021	0	0	0	
5	0	0	0	0	589	461	1020	0	0	0	
6	0	0	0	0	590	462	1021	0	0	0	
7	0	0	0	0	588	462	1021	0	0	0	
8	0	0	0	0	583	459	1021	0	0	0	
9	0	0	0	0	576	454	1021	0	0	0	
10	0	0	0	0	567	446	1021	0	0	0	
11	0	0	0	0	555	436	1021	0	0	0	
12	0	0	0	0	542	426	1021	0	0	0	
13	0	0	0	0	529	414	1021	0	0	0	
14	0	0	0	0	516	403	1021	0	0	0	
15	0	0	0	0	505	392	1020	0	0	0	
0	0	0	0	0	497	384	1021	0	0	0	
1	0	0	0	0	492	378	1021	0	0	0	
2	0	0	0	0	489	375	1021	0	0	0	
3	0	0	0	0	489	374	1021	0	0	0	
4	0	0	0	0	493	376	1020	0	0	0	
5	0	0	0	0	499	380	1021	0	0	0	
6	0	0	0	0	507	385	1021	0	0	0	
7	0	0	0	0	515	391	1021	0	0	0	
8	0	0	0	0	523	398	1021	0	0	0	
9	0	0	0	0	532	406	1021	0	0	0	
10	0	0	0	0	540	413	1021	0	0	0	
11	0	0	0	0	547	420	1021	0	0	0	
12	0	0	0	0	553	427	1021	0	0	0	
13	0	0	0	0	557	432	1021	0	0	0	
14	0	0	0	0	560	436	1021	0	0	0	
15	0	0	0	0	561	438	1021	0	0	0	
0	0	0	0	0	561	439	1021	0	0	0	
1	0	0	0	0	559	439	1021	0	0	0	
2	0	0	0	0	556	436	1021	0	0	0	
3	0	0	0	0	552	433	1021	0	0	0	
4	0	0	0	0	547	429	1021	0	0	0	
5	0	0	0	0	542	425	1021	0	0	0	
6	0	0	0	0	537	420	1021	0	0	0	
7	0	0	0	0	532	416	1021	0	0	0	
8	0	0	0	0	529	412	1021	0	0	0	
9	0	0	0	0	527	410	1021	0	0	0	
10	0	0	0	0	527	409	1021	0	0	0	
11	0	0	0	0	529	411	1021	0	0	0	
12	0	0	0	0	532	414	1021	0	0	0	
13	0	0	0	0	537	419	1021	0	0	0	
14	0	0	0	0	543	424	1021	0	0	0	
15	0	0	0	0	548	430	1021	0	0	0	
0	0	0	0	0	554	436	1021	0	0	0	
1	0	0	0	0	558	440	1021	0	0	0	
2	0	0	0	0	561	444	1021	0	0	0	
3	0	0	0	0	562	447	1021	0	0	0	
4	0	0	0	0	562	448	1021	0	0	0	
5	0	0	0	0	561	448	1021	0	0	0	
6	0	0	0	0	558	447	1021	0	0	0	
7	0	0	0	0	556	445	1021	0	0	0	
8	0	0	0	0	553	442	1021	0	0	0	
9	0	0	0	0	550	438	1021	0	0	0	
10	0	0	0	0	545	433	1021	0	0	0	
11	0	0	0	0	538	426	1021	0	0	0	
12	0	0	0	0	532	419	1021	0	0	0	
13	0	0	0	0	526	413	1021	0	0	0	
14	0	0	0	0	522	408	1021	0	0	0	
15	0	0	0	0	519	404	1021	0	0	0	
0	0	0	0	0	518	403	1021	0	0	0	
1	0	0	0	0	520	405	1021	0	0	0	
2	0	0	0	0	524	409	1021	0	0	0	
3	0	0	0	0	530	415	1021	0	0	0	
4	0	0	0	0	538	424	1021	0	0	0	
5	0	0	0	0	547	433	1021	0	0	0	
6	0	0	0	0	557	443	1021	0	0	0	
7	0	0	0	0	565	451	1021	0	0	0	
8	0	0	0	0	571	458	1021	0	0	0	
9	0	0	0	0	575	463	1021	0	0	0	
10	0	0	0	0	577	464	1021	0	0	0	
11	0	0	0	0	575	463	1021	0	0	0	
12	0	0	0	0	572	459	1021	0	0	0	
13	0	0	0	0	565	453	1021	0	0	0	
14	0	0	0	0	557	446	1021	0	0	0	
15	0	0	0	0	547	437	1021	0	0	0	
0	0	0	0	0	536	427	1021	0	0	0	
1	0	0	0	0	526	417	1021	0	0	0	
2	0	0	0	0	515	407	1021	0	0	0	
3	0	0	0	0	506	399	1021	0	0	0	
4	0	0	0	0	499	392	1021	0	0	0	
5	0	0	0	0	496	390	1021	0	0	0	
6	0	0	0	0	496	391	1021	0	0	0	
7	0	0	0	0	501	395	1021	0	0	0	
8	0	0	0	0	510	403	1021	0	0	0	
9	0	0	0	0	520	413	1021	0	0	0	
10	0	0	0	0	533	424	1021	0	0	0	
11	0	0	0	0	547	437	1021	0	0	0	
12	0	0	0	0	560	449	1021	0	0	0	
13	0	0	0	0	572	459	1020	0	0	0	
14	0	0	0	0	580	467	1021	0	0	0	
15	0	0	0	0	586	472	1021	0	0	0	
0	0	0	0	0	589	474	1021	0	0	0	
1	0	0	0	0	588	473	1021	0	0	0	
2	0	0	0	0	584	470	1021	0	0	0	
3	0	0	0	0	577	463	1021	0	0	0	
4	0	0	0	0	568	455	1021	0	0	0	
5	0	0	0	0	557	446	1021	0	0	0	
6	0	0	0	0	546	436	1021	0	0	0	
7	0	0	0	0	535	428	1021	0	0	0	
8	0	0	0	0	526	420	1021	0	0	0	
9	0	0	0	0	517	413	1021	0	0	0	
10	0	0	0	0	511	408	1021	0	0	0	
11	0	0	0	0	508	406	1021	0	0	0	
12	0	0	0	0	505	404	1021	0	0	0	
13	0	0	0	0	506	406	1021	0	0	0	
14	0	0	0	0	509	408	1021	0	0	0	
15	0	0	0	0	513	412	1021	0	0	0	
0	0	0	0	0	519	416	1021	0	0	0	
1	0	0	0	0	526	422	1021	0	0	0	
2	0	0	0	0	532	426	1021	0	0	0	
3	0	0	0	0	538	430	1021	0	0	0	
4	0	0	0	0	542	432	1021	0	0	0	
5	0	0	0	0	544	432	1021	0	0	0	
6	0	0	0	0	544	431	1021	0	0	0	
7	0	0	0	0	542	428	1021	0	0	0	
8	0	0	0	0	539	424	1021	0	0	0	
9	0	0	0	0	534	420	1021	0	0	0	
10	0	0	0	0	527	416	1021	0	0	0	
11	0	0	0	0	522	412	1021	0	0	0	
12	0	0	0	0	516	408	1021	0	0	0	
13	0	0	0	0	512	406	1021	0	0	0	
14	0	0	0	0	509	406	1021	0	0	0	
15	0	0	0	0	508	407	1021	0	0	0	
0	0	0	0	0	509	409	1021	0	0	0	
1	0	0	0	0	511	413	1021	0	0	0	
2	0	0	0	0	515	417	1021	0	0	0	
3	0	0	0	0	519	422	1021	0	0	0	
4	0	0	0	0	525	427	1021	0	0	0	
5	0	0	0	0	530	430	1021	0	0	0	
6	0	0	0	0	534	433	1021	0	0	0	
7	0	0	0	0	537	434	1021	0	0	0	
8	0	0	0	0	539	433	1021	0	0	0	
9	0	0	0	0	540	432	1021	0	0	0	
10	0	0	0	0	539	429	1021	0	0	0	
11	0	0	0	0	537	426	1021	0	0	0	
12	0	0	0	0	534	422	1021	0	0	0	
13	0	0	0	0	530	418	1021	0	0	0	
14	0	0	0	0	527	415	1021	0	0	0	
15	0	0	0	0	524	414	1021	0	0	0	
0	0	0	0	0	522	414	1021	0	0	0	
1	0	0	0	0	522	416	1021	0	0	0	
2	0	0	0	0	524	420	1021	0	0	0	
3	0	0	0	0	528	426	1021	0	0	0	
4	0	0	0	0	531	432	1021	0	0	0	
5	0	0	0	0	537	439	1021	0	0	0	
6	0	0	0	0	541	445	1020	0	0	0	
7	0	0	0	0	546	450	1021	0	0	0	
8	0	0	0	0	550	455	1021	0	0	0	
9	0	0	0	0	553	457	1021	0	0	0	
10	0	0	0	0	554	459	1021	0	0	0	
11	0	0	0	0	555	458	1021	0	0	0	
12	0	0	0	0	555	456	1021	0	0	0	
13	0	0	0	0	552	453	1021	0	0	0	
14	0	0	0	0	549	449	1021	0	0	0	
15	0	0	0	0	545	443	1021	0	0	0	
0	0	0	0	0	541	439	1021	0	0	0	
1	0	0	0	0	537	435	1021	0	0	0	
2	0	0	0	0	535	432	1021	0	0	0	
3	0	0	0	0	535	432	1021	0	0	0	
4	0	0	0	0	537	435	1021	0	0	0	
5	0	0	0	0	540	439	1021	0	0	0	
6	0	0	0	0	545	444	1021	0	0	0	
7	0	0	0	0	551	450	1021	0	0	0	
8	0	0	0	0	556	456	1021	0	0	0	
9	0	0	0	0	561	461	1021	0	0	0	
10	0	0	0	0	564	464	1021	0	0	0	
11	0	0	0	0	566	467	1021	0	0	0	
12	0	0	0	0	566	467	1021	0	0	0	
13	0	0	0	0	563	464	1021	0	0	0	
14	0	0	0	0	559	460	1021	0	0	0	
15	0	0	0	0	553	454	1021	0	0	0	
0	0	0	0	0	548	448	1021	0	0	0	
1	0	0	0	0	542	442	1021	0	0	0	
2	0	0	0	0	536	436	1021	0	0	0	
3	0	0	0	0	532	432	1021	0	0	0	
4	0	0	0	0	529	430	1020	0	0	0	
5	0	0	0	0	528	428	1021	0	0	0	
6	0	0	0	0	528	429	1021	0	0	0	
7	0	0	0	0	530	431	1021	0	0	0	
8	0	0	0	0	531	433	1021	0	0	0	
9	0	0	0	0	534	435	1021	0	0	0	
10	0	0	0	0	535	438	1021	0	0	0	
11	0	0	0	0	536	439	1021	0	0	0	
12	0	0	0	0	536	440	1021	0	0	0	
13	0	0	0	0	536	440	1021	0	0	0	
14	0	0	0	0	534	439	1021	0	0	0	
15	0	0	0	0	532	436	1021	0	0	0	
0	0	0	0	0	528	432	1021	0	0	0	
1	0	0	0	0	523	427	1020	0	0	0	
2	0	0	0	0	518	420	1021	0	0	0	
3	0	0	0	0	512	414	1021	0	0	0	
4	0	0	0	0	508	408	1021	0	0	0	
5	0	0	0	0	505	404	1021	0	0	0	
6	0	0	0	0	504	402	1021	0	0	0	
7	0	0	0	0	505	401	1021	0	0	0	
8	0	0	0	0	508	403	1021	0	0	0	
9	0	0	0	0	514	408	1021	0	0	0	
10	0	0	0	0	521	414	1021	0	0	0	
11	0	0	0	0	529	421	1021	0	0	0	
12	0	0	0	0	537	428	1021	0	0	0	
13	0	0	0	0	546	436	1021	0	0	0	
14	0	0	0	0	553	443	1021	0	0	0	
15	0	0	0	0	558	448	1021	0	0	0	
0	0	0	0	0	560	452	1021	0	0	0	
1	0	0	0	0	560	454	1021	0	0	0	
2	0	0	0	0	556	452	1021	0	0	0	
3	0	0	0	0	549	447	1021	0	0	0	
4	0	0	0	0	539	439	1021	0	0	0	
5	0	0	0	0	526	428	1021	0	0	0	
6	0	0	0	0	510	414	1021	0	0	0	
7	0	0	0	0	492	398	1021	0	0	0	
8	0	0	0	0	472	381	1021	0	0	0	
9	0	0	0	0	453	363	1021	0	0	0	
10	0	0	0	0	433	344	1021	0	0	0	
11	0	0	0	0	414	325	1021	0	0	0	
12	0	0	0	0	396	307	1021	0	0	0	
13	0	0	0	0	380	289	1021	0	0	0	
14	0	0	0	0	365	273	1021	0	0	0	
15	0	0	0	0	353	259	1021	0	0	0	
0	0	0	0	0	343	247	1021	0	0	0	
1	0	0	0	0	334	237	1021	0	0	0	
2	0	0	0	0	328	229	1021	0	0	0	
3	0	0	0	0	323	223	1021	0	0	0	
4	0	0	0	0	321	220	1021	0	0	0	
5	0	0	0	0	320	218	1021	0	0	0	
6	0	0	0	0	321	218	1021	0	0	0	
7	0	0	0	0	323	220	1021	0	0	0	
8	0	0	0	0	328	224	1021	0	0	0	
9	0	0	0	0	335	230	1021	0	0	0	
10	0	0	0	0	344	239	1021	0	0	0	
11	0	0	0	0	356	249	1020	0	0	0	
12	0	0	0	0	371	263	1021	0	0	0	
13	0	0	0	0	388	278	1021	0	0	0	
14	0	0	0	0	407	294	1021	0	0	0	
15	0	0	0	0	428	312	1021	0	0	0	
0	0	0	0	0	448	330	1021	0	0	0	
1	0	0	0	0	470	349	1021	0	0	0	
2	0	0	0	0	492	369	1021	0	0	0	
3	0	0	0	0	512	388	1021	0	0	0	
4	0	0	0	0	532	408	1021	0	0	0	
5	0	0	0	0	549	427	1021	0	0	0	
6	0	0	0	0	566	446	1021	0	0	0	
7	0	0	0	0	580	463	1021	0	0	0	
8	0	0	0	0	592	478	1021	0	0	0	
9	0	0	0	0	603	492	1021	0	0	0	
10	0	0	0	0	611	503	1021	0	0	0	
11	0	0	0	0	617	512	1021	0	0	0	
12	0	0	0	0	620	518	1021	0	0	0	
13	0	0	0	0	622	520	1021	0	0	0	
14	0	0	0	0	619	519	1021	0	0	0	
15	0	0	0	0	613	514	1021	0	0	0	
0	0	0	0	0	604	505	1021	0	0	0	
1	0	0	0	0	592	494	1021	0	0	0	
2	0	0	0	0	578	480	1021	0	0	0	
3	0	0	0	0	563	466	1021	0	0	0	
4	0	0	0	0	548	451	1021	0	0	0	
5	0	0	0	0	535	438	1021	0	0	0	
6	0	0	0	0	523	426	1021	0	0	0	
7	0	0	0	0	513	416	1021	0	0	0	
8	0	0	0	0	507	410	1021	0	0	0	
9	0	0	0	0	504	407	1021	0	0	0	
10	0	0	0	0	504	406	1021	0	0	0	
11	0	0	0	0	506	407	1021	0	0	0	
12	0	0	0	0	510	411	1021	0	0	0	
13	0	0	0	0	514	415	1021	0	0	0	
14	0	0	0	0	519	419	1021	0	0	0	
15	0	0	0	0	524	425	1021	0	0	0	
0	0	0	0	0	529	430	1021	0	0	0	
1	0	0	0	0	532	433	1021	0	0	0	
2	0	0	0	0	535	435	1021	0	0	0	
3	0	0	0	0	536	436	1020	0	0	0	
4	0	0	0	0	536	436	1021	0	0	0	
5	0	0	0	0	535	435	1021	0	0	0	
6	0	0	0	0	534	432	1021	0	0	0	
7	0	0	0	0	532	430	1021	0	0	0	
8	0	0	0	0	531	427	1021	0	0	0	
9	0	0	0	0	529	425	1021	0	0	0	
10	0	0	0	0	528	423	1021	0	0	0	
11	0	0	0	0	527	422	1021	0	0	0	
12	0	0	0	0	527	422	1021	0	0	0	
13	0	0	0	0	528	422	1021	0	0	0	
14	0	0	0	0	529	424	1021	0	0	0	
15	0	0	0	0	531	427	1021	0	0	0	
0	0	0	0	0	534	430	1021	0	0	0	
1	0	0	0	0	536	434	1020	0	0	0	
2	0	0	0	0	539	437	1021	0	0	0	
3	0	0	0	0	541	440	1021	0	0	0	
4	0	0	0	0	543	442	1021	0	0	0	
5	0	0	0	0	543	444	1021	0	0	0	
6	0	0	0	0	544	444	1021	0	0	0	
7	0	0	0	0	544	444	1021	0	0	0	
8	0	0	0	0	544	444	1021	0	0	0	
9	0	0	0	0	544	444	1021	0	0	0	
10	0	0	0	0	545	444	1021	0	0	0	
11	0	0	0	0	545	444	1021	0	0	0	
12	0	0	0	0	546	444	1020	0	0	0	
13	0	0	0	0	547	444	1021	0	0	0	
14	0	0	0	0	549	444	1021	0	0	0	
15	0	0	0	0	550	444	1021	0	0	0	
0	0	0	0	0	550	444	1021	0	0	0	
1	0	0	0	0	549	444	1021	0	0	0	
2	0	0	0	0	548	443	1021	0	0	0	
3	0	0	0	0	547	441	1021	0	0	0	
4	0	0	0	0	544	440	1021	0	0	0	
5	0	0	0	0	543	439	1021	0	0	0	
6	0	0	0	0	541	438	1021	0	0	0	
7	0	0	0	0	539	438	1021	0	0	0	
8	0	0	0	0	537	437	1021	0	0	0	
9	0	0	0	0	535	436	1020	0	0	0	
10	0	0	0	0	533	435	1021	0	0	0	
11	0	0	0	0	531	432	1020	0	0	0	
12	0	0	0	0	528	430	1021	0	0	0	
13	0	0	0	0	527	428	1021	0	0	0	
14	0	0	0	0	525	425	1021	0	0	0	
15	0	0	0	0	523	422	1021	0	0	0	
0	0	0	0	0	522	419	1020	0	0	0	
1	0	0	0	0	522	417	1021	0	0	0	
2	0	0	0	0	522	416	1021	0	0	0	
3	0	0	0	0	523	415	1021	0	0	0	
4	0	0	0	0	524	416	1021	0	0	0	
5	0	0	0	0	525	419	1021	0	0	0	
6	0	0	0	0	528	422	1021	0	0	0	
7	0	0	0	0	531	427	1021	0	0	0	
8	0	0	0	0	535	432	1021	0	0	0	
9	0	0	0	0	540	439	1021	0	0	0	
10	0	0	0	0	545	446	1021	0	0	0	
11	0	0	0	0	551	453	1021	0	0	0	
12	0	0	0	0	556	459	1021	0	0	0	
13	0	0	0	0	560	464	1021	0	0	0	
14	0	0	0	0	563	467	1021	0	0	0	
15	0	0	0	0	564	468	1021	0	0	0	
0	0	0	0	0	564	467	1021	0	0	0	
1	0	0	0	0	563	465	1021	0	0	0	
2	0	0	0	0	560	461	1021	0	0	0	
3	0	0	0	0	556	456	1021	0	0	0	
4	0	0	0	0	552	450	1021	0	0	0	
5	0	0	0	0	548	445	1021	0	0	0	
6	0	0	0	0	544	440	1021	0	0	0	
7	0	0	0	0	542	436	1021	0	0	0	
8	0	0	0	0	540	434	1021	0	0	0	
9	0	0	0	0	541	435	1021	0	0	0	
10	0	0	0	0	543	437	1021	0	0	0	
11	0	0	0	0	546	441	1021	0	0	0	
12	0	0	0	0	551	447	1021	0	0	0	
13	0	0	0	0	557	454	1021	0	0	0	
14	0	0	0	0	563	461	1021	0	0	0	
15	0	0	0	0	569	467	1021	0	0	0	
0	0	0	0	0	574	473	1021	0	0	0	
1	0	0	0	0	577	477	1021	0	0	0	
2	0	0	0	0	579	478	1021	0	0	0	
3	0	0	0	0	578	478	1021	0	0	0	
4	0	0	0	0	575	474	1021	0	0	0	
5	0	0	0	0	569	468	1021	0	0	0	
6	0	0	0	0	561	460	1021	0	0	0	
7	0	0	0	0	550	450	1021	0	0	0	
8	0	0	0	0	538	438	1021	0	0	0	
9	0	0	0	0	525	426	1021	0	0	0	
10	0	0	0	0	512	413	1021	0	0	0	
11	0	0	0	0	499	401	1021	0	0	0	
12	0	0	0	0	489	391	1021	0	0	0	
13	0	0	0	0	480	384	1020	0	0	0	
14	0	0	0	0	475	379	1021	0	0	0	
15	0	0	0	0	472	377	1021	0	0	0	
0	0	0	0	0	472	377	1021	0	0	0	
1	0	0	0	0	476	380	1021	0	0	0	
2	0	0	0	0	481	385	1021	0	0	0	
3	0	0	0	0	489	392	1021	0	0	0	
4	0	0	0	0	499	401	1021	0	0	0	
5	0	0	0	0	508	410	1021	0	0	0	
6	0	0	0	0	519	419	1020	0	0	0	
7	0	0	0	0	528	427	1021	0	0	0	
8	0	0	0	0	537	434	1021	0	0	0	
9	0	0	0	0	543	440	1021	0	0	0	
10	0	0	0	0	548	443	1021	0	0	0	
11	0	0	0	0	551	444	1021	0	0	0	
12	0	0	0	0	551	444	1021	0	0	0	
13	0	0	0	0	550	443	1021	0	0	0	
14	0	0	0	0	547	441	1021	0	0	0	
15	0	0	0	0	544	438	1021	0	0	0	
0	0	0	0	0	540	435	1021	0	0	0	
1	0	0	0	0	536	433	1021	0	0	0	
2	0	0	0	0	532	431	1021	0	0	0	
3	0	0	0	0	529	429	1021	0	0	0	
4	0	0	0	0	527	428	1021	0	0	0	
5	0	0	0	0	525	428	1021	0	0	0	
6	0	0	0	0	525	429	1021	0	0	0	
7	0	0	0	0	525	429	1021	0	0	0	
8	0	0	0	0	525	430	1021	0	0	0	
9	0	0	0	0	526	429	1021	0	0	0	
10	0	0	0	0	526	428	1021	0	0	0	
11	0	0	0	0	526	427	1021	0	0	0	
12	0	0	0	0	526	424	1021	0	0	0	
13	0	0	0	0	526	422	1021	0	0	0	
14	0	0	0	0	526	419	1021	0	0	0	
15	0	0	0	0	525	416	1021	0	0	0	
0	0	0	0	0	524	414	1021	0	0	0	
1	0	0	0	0	523	412	1021	0	0	0	
2	0	0	0	0	523	411	1021	0	0	0	
3	0	0	0	0	523	411	1021	0	0	0	
4	0	0	0	0	523	412	1021	0	0	0	
5	0	0	0	0	524	414	1021	0	0	0	
6	0	0	0	0	524	416	1021	0	0	0	
7	0	0	0	0	524	419	1021	0	0	0	
8	0	0	0	0	523	421	1021	0	0	0	
9	0	0	0	0	521	422	1021	0	0	0	
10	0	0	0	0	519	422	1021	0	0	0	
11	0	0	0	0	515	420	1021	0	0	0	
12	0	0	0	0	511	417	1021	0	0	0	
13	0	0	0	0	507	414	1021	0	0	0	
14	0	0	0	0	503	410	1021	0	0	0	
15	0	0	0	0	499	406	1021	0	0	0	
0	0	0	0	0	497	403	1021	0	0	0	
1	0	0	0	0	496	401	1021	0	0	0	
2	0	0	0	0	499	400	1021	0	0	0	
3	0	0	0	0	502	402	1021	0	0	0	
4	0	0	0	0	508	405	1021	0	0	0	
5	0	0	0	0	516	410	1021	0	0	0	
6	0	0	0	0	526	416	1021	0	0	0	
7	0	0	0	0	536	424	1021	0	0	0	
8	0	0	0	0	546	432	1021	0	0	0	
9	0	0	0	0	556	441	1021	0	0	0	
10	0	0	0	0	566	450	1021	0	0	0	
11	0	0	0	0	574	459	1021	0	0	0	
12	0	0	0	0	582	467	1021	0	0	0	
13	0	0	0	0	588	475	1021	0	0	0	
14	0	0	0	0	593	481	1021	0	0	0	
15	0	0	0	0	596	487	1021	0	0	0	
0	0	0	0	0	596	490	1021	0	0	0	
1	0	0	0	0	595	491	1021	0	0	0	
2	0	0	0	0	591	489	1021	0	0	0	
3	0	0	0	0	585	486	1021	0	0	0	
4	0	0	0	0	578	480	1021	0	0	0	
5	0	0	0	0	570	474	1021	0	0	0	
6	0	0	0	0	563	468	1021	0	0	0	
7	0	0	0	0	556	461	1021	0	0	0	
8	0	0	0	0	550	456	1021	0	0	0	
9	0	0	0	0	545	452	1021	0	0	0	
10	0	0	0	0	542	448	1021	0	0	0	
11	0	0	0	0	539	446	1021	0	0	0	
12	0	0	0	0	537	442	1021	0	0	0	
13	0	0	0	0	534	439	1021	0	0	0	
14	0	0	0	0	529	435	1021	0	0	0	
15	0	0	0	0	524	429	1021	0	0	0	
0	0	0	0	0	516	422	1021	0	0	0	
1	0	0	0	0	508	415	1021	0	0	0	
2	0	0	0	0	500	407	1021	0	0	0	
3	0	0	0	0	492	401	1021	0	0	0	
4	0	0	0	0	487	395	1021	0	0	0	
5	0	0	0	0	483	392	1021	0	0	0	
6	0	0	0	0	481	390	1021	0	0	0	
7	0	0	0	0	482	390	1021	0	0	0	
8	0	0	0	0	485	391	1021	0	0	0	
9	0	0	0	0	489	393	1021	0	0	0	
10	0	0	0	0	496	397	1021	0	0	0	
11	0	0	0	0	502	401	1021	0	0	0	
12	0	0	0	0	510	407	1021	0	0	0	
13	0	0	0	0	519	412	1021	0	0	0	
14	0	0	0	0	527	419	1021	0	0	0	
15	0	0	0	0	536	426	1021	0	0	0	
0	0	0	0	0	543	432	1021	0	0	0	
1	0	0	0	0	551	439	1021	0	0	0	
2	0	0	0	0	557	445	1021	0	0	0	
3	0	0	0	0	562	450	1021	0	0	0	
4	0	0	0	0	565	454	1021	0	0	0	
5	0	0	0	0	566	457	1021	0	0	0	
6	0	0	0	0	566	460	1021	0	0	0	
7	0	0	0	0	565	462	1021	0	0	0	
8	0	0	0	0	564	463	1021	0	0	0	
9	0	0	0	0	562	463	1021	0	0	0	
10	0	0	0	0	560	462	1021	0	0	0	
11	0	0	0	0	558	460	1021	0	0	0	
12	0	0	0	0	554	457	1021	0	0	0	
13	0	0	0	0	551	454	1021	0	0	0	
14	0	0	0	0	545	449	1021	0	0	0	
15	0	0	0	0	540	443	1021	0	0	0	
0	0	0	0	0	535	437	1021	0	0	0	
1	0	0	0	0	528	431	1021	0	0	0	
2	0	0	0	0	522	423	1021	0	0	0	
3	0	0	0	0	516	418	1021	0	0	0	
4	0	0	0	0	511	412	1021	0	0	0	
5	0	0	0	0	506	408	1021	0	0	0	
6	0	0	0	0	503	406	1021	0	0	0	
7	0	0	0	0	501	404	1021	0	0	0	
8	0	0	0	0	501	403	1021	0	0	0	
9	0	0	0	0	502	404	1021	0	0	0	
10	0	0	0	0	504	407	1021	0	0	0	
11	0	0	0	0	508	410	1021	0	0	0	
12	0	0	0	0	512	414	1021	0	0	0	
13	0	0	0	0	516	418	1021	0	0	0	
14	0	0	0	0	521	422	1021	0	0	0	
15	0	0	0	0	525	425	1020	0	0	0	
0	0	0	0	0	529	428	1021	0	0	0	
1	0	0	0	0	532	430	1021	0	0	0	
2	0	0	0	0	536	432	1021	0	0	0	
3	0	0	0	0	537	432	1021	0	0	0	
4	0	0	0	0	538	432	1021	0	0	0	
5	0	0	0	0	539	431	1021	0	0	0	
6	0	0	0	0	538	431	1021	0	0	0	
7	0	0	0	0	538	430	1021	0	0	0	
8	0	0	0	0	538	430	1021	0	0	0	
9	0	0	0	0	538	431	1020	0	0	0	
10	0	0	0	0	539	432	1021	0	0	0	
11	0	0	0	0	539	435	1021	0	0	0	
12	0	0	0	0	540	438	1021	0	0	0	
13	0	0	0	0	543	441	1021	0	0	0	
14	0	0	0	0	544	445	1020	0	0	0	
15	0	0	0	0	547	449	1021	0	0	0	
0	0	0	0	0	550	453	1021	0	0	0	
1	0	0	0	0	552	455	1021	0	0	0	
2	0	0	0	0	555	457	1021	0	0	0	
3	0	0	0	0	556	459	1021	0	0	0	
4	0	0	0	0	558	460	1021	0	0	0	
5	0	0	0	0	559	459	1021	0	0	0	
6	0	0	0	0	558	457	1021	0	0	0	
7	0	0	0	0	556	454	1021	0	0	0	
8	0	0	0	0	552	449	1021	0	0	0	
9	0	0	0	0	547	444	1021	0	0	0	
10	0	0	0	0	541	438	1021	0	0	0	
11	0	0	0	0	534	431	1021	0	0	0	
12	0	0	0	0	527	425	1021	0	0	0	
13	0	0	0	0	520	420	1020	0	0	0	
14	0	0	0	0	515	416	1021	0	0	0	
15	0	0	0	0	510	413	1021	0	0	0	
0	0	0	0	0	507	412	1021	0	0	0	
1	0	0	0	0	504	412	1021	0	0	0	
2	0	0	0	0	504	412	1021	0	0	0	
3	0	0	0	0	505	414	1021	0	0	0	
4	0	0	0	0	508	417	1021	0	0	0	
5	0	0	0	0	511	419	1021	0	0	0	
6	0	0	0	0	514	421	1021	0	0	0	
7	0	0	0	0	517	423	1021	0	0	0	
8	0	0	0	0	520	423	1021	0	0	0	
9	0	0	0	0	523	423	1021	0	0	0	
10	0	0	0	0	525	423	1021	0	0	0	
11	0	0	0	0	527	423	1021	0	0	0	
12	0	0	0	0	528	423	1021	0	0	0	
13	0	0	0	0	530	423	1021	0	0	0	
14	0	0	0	0	533	425	1021	0	0	0	
15	0	0	0	0	536	429	1021	0	0	0	
0	0	0	0	0	542	435	1021	0	0	0	
1	0	0	0	0	547	442	1020	0	0	0	
2	0	0	0	0	553	449	1021	0	0	0	
3	0	0	0	0	557	455	1021	0	0	0	
4	0	0	0	0	560	459	1021	0	0	0	
5	0	0	0	0	560	461	1021	0	0	0	
6	0	0	0	0	559	460	1021	0	0	0	
7	0	0	0	0	555	457	1021	0	0	0	
8	0	0	0	0	548	451	1021	0	0	0	
9	0	0	0	0	540	444	1021	0	0	0	
10	0	0	0	0	531	435	1021	0	0	0	
11	0	0	0	0	521	424	1021	0	0	0	
12	0	0	0	0	511	415	1021	0	0	0	
13	0	0	0	0	503	405	1021	0	0	0	
14	0	0	0	0	496	397	1021	0	0	0	
15	0	0	0	0	490	391	1021	0	0	0	
0	0	0	0	0	487	387	1021	0	0	0	
1	0	0	0	0	487	385	1021	0	0	0	
2	0	0	0	0	489	386	1021	0	0	0	
3	0	0	0	0	494	390	1021	0	0	0	
4	0	0	0	0	499	395	1021	0	0	0	
5	0	0	0	0	507	402	1021	0	0	0	
6	0	0	0	0	516	411	1021	0	0	0	
7	0	0	0	0	526	420	1021	0	0	0	
8	0	0	0	0	535	429	1021	0	0	0	
9	0	0	0	0	543	438	1021	0	0	0	
10	0	0	0	0	552	446	1021	0	0	0	
11	0	0	0	0	559	454	1021	0	0	0	
12	0	0	0	0	566	460	1021	0	0	0	
13	0	0	0	0	572	465	1021	0	0	0	
14	0	0	0	0	575	469	1021	0	0	0	
15	0	0	0	0	577	470	1021	0	0	0	
0	0	0	0	0	575	468	1021	0	0	0	
1	0	0	0	0	572	464	1021	0	0	0	
2	0	0	0	0	566	458	1021	0	0	0	
3	0	0	0	0	557	451	1021	0	0	0	
4	0	0	0	0	547	442	1021	0	0	0	
5	0	0	0	0	537	433	1021	0	0	0	
6	0	0	0	0	527	423	1021	0	0	0	
7	0	0	0	0	517	415	1021	0	0	0	
8	0	0	0	0	509	408	1021	0	0	0	
9	0	0	0	0	502	402	1021	0	0	0	
10	0	0	0	0	497	398	1021	0	0	0	
11	0	0	0	0	493	395	1021	0	0	0	
12	0	0	0	0	491	393	1021	0	0	0	
13	0	0	0	0	491	394	1021	0	0	0	
14	0	0	0	0	493	396	1020	0	0	0	
15	0	0	0	0	497	400	1021	0	0	0	
0	0	0	0	0	502	404	1021	0	0	0	
1	0	0	0	0	506	409	1021	0	0	0	
2	0	0	0	0	511	413	1021	0	0	0	
3	0	0	0	0	516	417	1021	0	0	0	
4	0	0	0	0	520	420	1021	0	0	0	
5	0	0	0	0	524	422	1021	0	0	0	
6	0	0	0	0	528	424	1021	0	0	0	
7	0	0	0	0	531	425	1021	0	0	0	
8	0	0	0	0	533	426	1021	0	0	0	
9	0	0	0	0	534	427	1021	0	0	0	
10	0	0	0	0	534	427	1021	0	0	0	
11	0	0	0	0	533	425	1020	0	0	0	
12	0	0	0	0	531	425	1021	0	0	0	
13	0	0	0	0	529	424	1021	0	0	0	
14	0	0	0	0	527	423	1021	0	0	0	
15	0	0	0	0	524	423	1021	0	0	0	
0	0	0	0	0	521	423	1021	0	0	0	
1	0	0	0	0	519	423	1021	0	0	0	
2	0	0	0	0	518	423	1021	0	0	0	
3	0	0	0	0	517	424	1021	0	0	0	
4	0	0	0	0	518	425	1021	0	0	0	
5	0	0	0	0	519	427	1021	0	0	0	
6	0	0	0	0	520	428	1021	0	0	0	
7	0	0	0	0	523	428	1021	0	0	0	
8	0	0	0	0	525	430	1021	0	0	0	
9	0	0	0	0	527	430	1021	0	0	0	
10	0	0	0	0	529	430	1021	0	0	0	
11	0	0	0	0	531	430	1021	0	0	0	
12	0	0	0	0	531	429	1021	0	0	0	
13	0	0	0	0	532	429	1021	0	0	0	
14	0	0	0	0	532	429	1021	0	0	0	
15	0	0	0	0	533	429	1021	0	0	0	
0	0	0	0	0	534	430	1021	0	0	0	
1	0	0	0	0	534	432	1021	0	0	0	
2	0	0	0	0	537	436	1021	0	0	0	
3	0	0	0	0	539	440	1021	0	0	0	
4	0	0	0	0	543	445	1021	0	0	0	
5	0	0	0	0	547	451	1021	0	0	0	
6	0	0	0	0	551	456	1021	0	0	0	
7	0	0	0	0	556	462	1021	0	0	0	
8	0	0	0	0	560	467	1021	0	0	0	
9	0	0	0	0	564	471	1021	0	0	0	
10	0	0	0	0	568	473	1021	0	0	0	
11	0	0	0	0	568	473	1021	0	0	0	
12	0	0	0	0	566	469	1021	0	0	0	
13	0	0	0	0	561	463	1021	0	0	0	
14	0	0	0	0	553	453	1021	0	0	0	
15	0	0	0	0	542	441	1021	0	0	0	
0	0	0	0	0	528	428	1021	0	0	0	
1	0	0	0	0	514	414	1021	0	0	0	
2	0	0	0	0	500	401	1021	0	0	0	
3	0	0	0	0	488	391	1021	0	0	0	
4	0	0	0	0	479	383	1021	0	0	0	
5	0	0	0	0	472	379	1020	0	0	0	
6	0	0	0	0	469	377	1021	0	0	0	
7	0	0	0	0	470	379	1021	0	0	0	
8	0	0	0	0	473	383	1021	0	0	0	
9	0	0	0	0	478	389	1020	0	0	0	
10	0	0	0	0	485	396	1021	0	0	0	
11	0	0	0	0	493	402	1021	0	0	0	
12	0	0	0	0	501	408	1021	0	0	0	
13	0	0	0	0	508	413	1021	0	0	0	
14	0	0	0	0	514	416	1021	0	0	0	
15	0	0	0	0	519	419	1021	0	0	0	
0	0	0	0	0	523	421	1021	0	0	0	
1	0	0	0	0	527	422	1021	0	0	0	
2	0	0	0	0	529	423	1021	0	0	0	
3	0	0	0	0	532	423	1021	0	0	0	
4	0	0	0	0	534	424	1021	0	0	0	
5	0	0	0	0	535	425	1021	0	0	0	
6	0	0	0	0	536	427	1021	0	0	0	
7	0	0	0	0	537	428	1021	0	0	0	
8	0	0	0	0	537	430	1021	0	0	0	
9	0	0	0	0	537	432	1021	0	0	0	
10	0	0	0	0	537	434	1021	0	0	0	
11	0	0	0	0	536	436	1021	0	0	0	
12	0	0	0	0	536	438	1021	0	0	0	
13	0	0	0	0	535	439	1021	0	0	0	
14	0	0	0	0	534	440	1021	0	0	0	
15	0	0	0	0	533	440	1021	0	0	0	
0	0	0	0	0	531	440	1021	0	0	0	
1	0	0	0	0	529	438	1021	0	0	0	
2	0	0	0	0	526	435	1021	0	0	0	
3	0	0	0	0	523	432	1021	0	0	0	
4	0	0	0	0	519	428	1021	0	0	0	
5	0	0	0	0	515	423	1021	0	0	0	
6	0	0	0	0	511	418	1021	0	0	0	
7	0	0	0	0	507	413	1021	0	0	0	
8	0	0	0	0	504	408	1021	0	0	0	
9	0	0	0	0	502	405	1021	0	0	0	
10	0	0	0	0	500	403	1021	0	0	0	
11	0	0	0	0	501	403	1021	0	0	0	
12	0	0	0	0	503	404	1021	0	0	0	
13	0	0	0	0	505	406	1021	0	0	0	
14	0	0	0	0	509	410	1021	0	0	0	
15	0	0	0	0	513	414	1021	0	0	0	
0	0	0	0	0	518	419	1021	0	0	0	
1	0	0	0	0	523	424	1021	0	0	0	
2	0	0	0	0	527	429	1021	0	0	0	
3	0	0	0	0	531	434	1021	0	0	0	
4	0	0	0	0	535	439	1021	0	0	0	
5	0	0	0	0	539	442	1021	0	0	0	
6	0	0	0	0	541	445	1021	0	0	0	
7	0	0	0	0	544	447	1021	0	0	0	
8	0	0	0	0	546	449	1021	0	0	0	
9	0	0	0	0	548	449	1021	0	0	0	
10	0	0	0	0	549	450	1021	0	0	0	
11	0	0	0	0	550	449	1021	0	0	0	
12	0	0	0	0	549	448	1021	0	0	0	
13	0	0	0	0	549	446	1021	0	0	0	
14	0	0	0	0	547	444	1021	0	0	0	
15	0	0	0	0	544	440	1021	0	0	0	
0	0	0	0	0	540	437	1021	0	0	0	
1	0	0	0	0	535	433	1021	0	0	0	
2	0	0	0	0	529	430	1021	0	0	0	
3	0	0	0	0	523	426	1021	0	0	0	
4	0	0	0	0	517	423	1021	0	0	0	
5	0	0	0	0	512	420	1021	0	0	0	
6	0	0	0	0	508	418	1021	0	0	0	
7	0	0	0	0	505	417	1021	0	0	0	
8	0	0	0	0	504	418	1021	0	0	0	
9	0	0	0	0	505	419	1021	0	0	0	
10	0	0	0	0	508	422	1021	0	0	0	
11	0	0	0	0	512	425	1021	0	0	0	
12	0	0	0	0	517	428	1021	0	0	0	
13	0	0	0	0	523	432	1021	0	0	0	
14	0	0	0	0	528	435	1021	0	0	0	
15	0	0	0	0	533	437	1021	0	0	0	
0	0	0	0	0	536	438	1021	0	0	0	
1	0	0	0	0	537	438	1021	0	0	0	
2	0	0	0	0	537	437	1021	0	0	0	
3	0	0	0	0	536	435	1021	0	0	0	
4	0	0	0	0	532	432	1021	0	0	0	
5	0	0	0	0	528	429	1020	0	0	0	
6	0	0	0	0	523	426	1021	0	0	0	
7	0	0	0	0	519	424	1021	0	0	0	
8	0	0	0	0	515	423	1021	0	0	0	
9	0	0	0	0	512	422	1021	0	0	0	
10	0	0	0	0	511	423	1021	0	0	0	
11	0	0	0	0	511	425	1021	0	0	0	
12	0	0	0	0	513	428	1021	0	0	0	
13	0	0	0	0	516	431	1021	0	0	0	
14	0	0	0	0	519	434	1020	0	0	0	
15	0	0	0	0	522	435	1021	0	0	0	
0	0	0	0	0	524	435	1021	0	0	0	
1	0	0	0	0	524	433	1021	0	0	0	
2	0	0	0	0	522	428	1021	0	0	0	
3	0	0	0	0	518	423	1021	0	0	0	
4	0	0	0	0	513	416	1020	0	0	0	
5	0	0	0	0	508	409	1021	0	0	0	
6	0	0	0	0	504	404	1021	0	0	0	
7	0	0	0	0	499	399	1021	0	0	0	
8	0	0	0	0	497	397	1021	0	0	0	
9	0	0	0	0	497	397	1021	0	0	0	
10	0	0	0	0	498	399	1021	0	0	0	
11	0	0	0	0	502	404	1021	0	0	0	
12	0	0	0	0	508	410	1021	0	0	0	
13	0	0	0	0	514	417	1021	0	0	0	
14	0	0	0	0	522	425	1021	0	0	0	
15	0	0	0	0	529	433	1021	0	0	0	
0	0	0	0	0	536	439	1021	0	0	0	
1	0	0	0	0	541	443	1021	0	0	0	
2	0	0	0	0	543	446	1021	0	0	0	
3	0	0	0	0	544	446	1021	0	0	0	
4	0	0	0	0	544	445	1021	0	0	0	
5	0	0	0	0	543	443	1021	0	0	0	
6	0	0	0	0	541	440	1021	0	0	0	
7	0	0	0	0	538	438	1021	0	0	0	
8	0	0	0	0	536	435	1021	0	0	0	
9	0	0	0	0	532	431	1021	0	0	0	
10	0	0	0	0	529	428	1021	0	0	0	
11	0	0	0	0	526	425	1021	0	0	0	
12	0	0	0	0	523	423	1021	0	0	0	
13	0	0	0	0	521	423	1021	0	0	0	
14	0	0	0	0	519	423	1021	0	0	0	
15	0	0	0	0	519	425	1021	0	0	0	
0	0	0	0	0	519	428	1021	0	0	0	
1	0	0	0	0	521	431	1021	0	0	0	
2	0	0	0	0	524	435	1021	0	0	0	
3	0	0	0	0	527	439	1021	0	0	0	
4	0	0	0	0	530	443	1021	0	0	0	
5	0	0	0	0	533	446	1021	0	0	0	
6	0	0	0	0	534	447	1021	0	0	0	
7	0	0	0	0	535	447	1021	0	0	0	
8	0	0	0	0	533	444	1021	0	0	0	
9	0	0	0	0	530	440	1021	0	0	0	
10	0	0	0	0	525	434	1021	0	0	0	
11	0	0	0	0	519	426	1021	0	0	0	
12	0	0	0	0	512	418	1021	0	0	0	
13	0	0	0	0	504	410	1021	0	0	0	
14	0	0	0	0	497	403	1021	0	0	0	
15	0	0	0	0	490	396	1021	0	0	0	
0	0	0	0	0	485	391	1021	0	0	0	
1	0	0	0	0	482	389	1021	0	0	0	
2	0	0	0	0	481	389	1021	0	0	0	
3	0	0	0	0	482	391	1021	0	0	0	
4	0	0	0	0	486	396	1021	0	0	0	
5	0	0	0	0	491	403	1021	0	0	0	
6	0	0	0	0	498	411	1021	0	0	0	
7	0	0	0	0	507	420	1021	0	0	0	
8	0	0	0	0	517	430	1021	0	0	0	
9	0	0	0	0	527	440	1021	0	0	0	
10	0	0	0	0	539	450	1021	0	0	0	
11	0	0	0	0	550	460	1021	0	0	0	
12	0	0	0	0	561	468	1021	0	0	0	
13	0	0	0	0	570	475	1021	0	0	0	
14	0	0	0	0	577	480	1021	0	0	0	
15	0	0	0	0	582	483	1021	0	0	0	
0	0	0	0	0	583	483	1021	0	0	0	
1	0	0	0	0	580	480	1021	0	0	0	
2	0	0	0	0	574	474	1021	0	0	0	
3	0	0	0	0	564	466	1021	0	0	0	
4	0	0	0	0	551	456	1021	0	0	0	
5	0	0	0	0	535	444	1021	0	0	0	
6	0	0	0	0	519	432	1021	0	0	0	
7	0	0	0	0	502	420	1021	0	0	0	
8	0	0	0	0	486	408	1021	0	0	0	
9	0	0	0	0	472	398	1021	0	0	0	
10	0	0	0	0	461	388	1021	0	0	0	
11	0	0	0	0	453	381	1021	0	0	0	
12	0	0	0	0	447	374	1021	0	0	0	
13	0	0	0	0	442	368	1021	0	0	0	
14	0	0	0	0	439	361	1021	0	0	0	
15	0	0	0	0	437	356	1021	0	0	0	
0	0	0	0	0	435	350	1021	0	0	0	
1	0	0	0	0	432	343	1021	0	0	0	
2	0	0	0	0	428	335	1021	0	0	0	
3	0	0	0	0	422	325	1021	0	0	0	
4	0	0	0	0	412	314	1021	0	0	0	
5	0	0	0	0	401	302	1021	0	0	0	
6	0	0	0	0	387	288	1021	0	0	0	
7	0	0	0	0	371	274	1021	0	0	0	
8	0	0	0	0	353	259	1021	0	0	0	
9	0	0	0	0	335	243	1021	0	0	0	
10	0	0	0	0	317	229	1021	0	0	0	
11	0	0	0	0	300	216	1021	0	0	0	
12	0	0	0	0	286	205	1020	0	0	0	
13	0	0	0	0	275	196	1021	0	0	0	
14	0	0	0	0	268	191	1021	0	0	0	
15	0	0	0	0	266	190	1021	0	0	0	
0	0	0	0	0	270	193	1021	0	0	0	
1	0	0	0	0	279	199	1021	0	0	0	
2	0	0	0	0	294	210	1021	0	0	0	
3	0	0	0	0	313	224	1021	0	0	0	
4	0	0	0	0	337	242	1021	0	0	0	
5	0	0	0	0	366	264	1021	0	0	0	
6	0	0	0	0	397	288	1021	0	0	0	
7	0	0	0	0	429	314	1021	0	0	0	
8	0	0	0	0	463	342	1021	0	0	0	
9	0	0	0	0	495	371	1021	0	0	0	
10	0	0	0	0	526	399	1021	0	0	0	
11	0	0	0	0	552	425	1021	0	0	0	
12	0	0	0	0	573	448	1021	0	0	0	
13	0	0	0	0	588	466	1021	0	0	0	
14	0	0	0	0	598	480	1021	0	0	0	
15	0	0	0	0	601	489	1021	0	0	0	
0	0	0	0	0	600	494	1021	0	0	0	
1	0	0	0	0	594	493	1021	0	0	0	
2	0	0	0	0	583	490	1021	0	0	0	
3	0	0	0	0	571	483	1021	0	0	0	
4	0	0	0	0	557	475	1021	0	0	0	
5	0	0	0	0	543	465	1021	0	0	0	
6	0	0	0	0	531	455	1021	0	0	0	
7	0	0	0	0	521	447	1021	0	0	0	
8	0	0	0	0	513	440	1021	0	0	0	
9	0	0	0	0	510	434	1021	0	0	0	
10	0	0	0	0	510	432	1021	0	0	0	
11	0	0	0	0	513	431	1021	0	0	0	
12	0	0	0	0	517	432	1021	0	0	0	
13	0	0	0	0	524	435	1021	0	0	0	
14	0	0	0	0	531	439	1021	0	0	0	
15	0	0	0	0	540	443	1021	0	0	0	
0	0	0	0	0	547	448	1021	0	0	0	
1	0	0	0	0	554	453	1021	0	0	0	
2	0	0	0	0	560	458	1021	0	0	0	
3	0	0	0	0	564	462	1021	0	0	0	
4	0	0	0	0	568	466	1021	0	0	0	
5	0	0	0	0	569	469	1021	0	0	0	
6	0	0	0	0	569	471	1021	0	0	0	
7	0	0	0	0	567	471	1021	0	0	0	
8	0	0	0	0	564	470	1021	0	0	0	
9	0	0	0	0	559	467	1021	0	0	0	
10	0	0	0	0	552	462	1021	0	0	0	
11	0	0	0	0	545	456	1021	0	0	0	
12	0	0	0	0	537	450	1021	0	0	0	
13	0	0	0	0	530	443	1021	0	0	0	
14	0	0	0	0	524	436	1021	0	0	0	
15	0	0	0	0	518	430	1021	0	0	0	
0	0	0	0	0	514	425	1021	0	0	0	
1	0	0	0	0	512	422	1021	0	0	0	
2	0	0	0	0	512	420	1021	0	0	0	
3	0	0	0	0	513	420	1021	0	0	0	
4	0	0	0	0	516	422	1021	0	0	0	
5	0	0	0	0	520	424	1021	0	0	0	
6	0	0	0	0	525	428	1021	0	0	0	
7	0	0	0	0	530	433	1021	0	0	0	
8	0	0	0	0	536	438	1021	0	0	0	
9	0	0	0	0	541	443	1021	0	0	0	
10	0	0	0	0	545	448	1021	0	0	0	
11	0	0	0	0	548	452	1021	0	0	0	
12	0	0	0	0	551	455	1021	0	0	0	
13	0	0	0	0	553	459	1021	0	0	0	
14	0	0	0	0	555	460	1021	0	0	0	
15	0	0	0	0	554	461	1021	0	0	0	
0	0	0	0	0	553	461	1021	0	0	0	
1	0	0	0	0	552	460	1021	0	0	0	
2	0	0	0	0	551	458	1021	0	0	0	
3	0	0	0	0	549	456	1021	0	0	0	
4	0	0	0	0	547	455	1021	0	0	0	
5	0	0	0	0	547	455	1021	0	0	0	
6	0	0	0	0	548	454	1021	0	0	0	
7	0	0	0	0	548	454	1021	0	0	0	
8	0	0	0	0	550	454	1021	0	0	0	
9	0	0	0	0	549	454	1021	0	0	0	
10	0	0	0	0	549	452	1021	0	0	0	
11	0	0	0	0	547	450	1021	0	0	0	
12	0	0	0	0	543	447	1021	0	0	0	
13	0	0	0	0	538	443	1021	0	0	0	
14	0	0	0	0	532	438	1021	0	0	0	
15	0	0	0	0	526	433	1021	0	0	0	
0	0	0	0	0	521	429	1021	0	0	0	
1	0	0	0	0	516	426	1021	0	0	0	
2	0	0	0	0	513	423	1021	0	0	0	
3	0	0	0	0	511	422	1021	0	0	0	
4	0	0	0	0	511	421	1021	0	0	0	
5	0	0	0	0	511	422	1021	0	0	0	
6	0	0	0	0	514	423	1021	0	0	0	
7	0	0	0	0	517	425	1021	0	0	0	
8	0	0	0	0	521	428	1021	0	0	0	
9	0	0	0	0	527	431	1021	0	0	0	
10	0	0	0	0	533	436	1021	0	0	0	
11	0	0	0	0	540	442	1021	0	0	0	
12	0	0	0	0	547	448	1021	0	0	0	
13	0	0	0	0	553	455	1021	0	0	0	
14	0	0	0	0	559	461	1021	0	0	0	
15	0	0	0	0	563	467	1021	0	0	0	
0	0	0	0	0	565	471	1020	0	0	0	
1	0	0	0	0	566	475	1021	0	0	0	
2	0	0	0	0	564	476	1021	0	0	0	
3	0	0	0	0	560	474	1021	0	0	0	
4	0	0	0	0	554	470	1021	0	0	0	
5	0	0	0	0	546	463	1021	0	0	0	
6	0	0	0	0	536	455	1021	0	0	0	
7	0	0	0	0	527	446	1021	0	0	0	
8	0	0	0	0	518	436	1021	0	0	0	
9	0	0	0	0	511	427	1021	0	0	0	
10	0	0	0	0	505	419	1021	0	0	0	
11	0	0	0	0	501	414	1021	0	0	0	
12	0	0	0	0	500	410	1021	0	0	0	
13	0	0	0	0	502	408	1021	0	0	0	
14	0	0	0	0	505	409	1021	0	0	0	
15	0	0	0	0	511	413	1021	0	0	0	
0	0	0	0	0	518	419	1021	0	0	0	
1	0	0	0	0	525	425	1021	0	0	0	
2	0	0	0	0	533	432	1021	0	0	0	
3	0	0	0	0	540	439	1021	0	0	0	
4	0	0	0	0	545	444	1021	0	0	0	
5	0	0	0	0	548	449	1021	0	0	0	
6	0	0	0	0	548	451	1021	0	0	0	
7	0	0	0	0	547	452	1021	0	0	0	
8	0	0	0	0	543	451	1021	0	0	0	
9	0	0	0	0	539	448	1021	0	0	0	
10	0	0	0	0	533	444	1021	0	0	0	
11	0	0	0	0	527	440	1021	0	0	0	
12	0	0	0	0	521	435	1021	0	0	0	
13	0	0	0	0	516	431	1021	0	0	0	
14	0	0	0	0	513	428	1021	0	0	0	
15	0	0	0	0	512	425	1021	0	0	0	
0	0	0	0	0	512	425	1021	0	0	0	
1	0	0	0	0	515	426	1021	0	0	0	
2	0	0	0	0	520	429	1021	0	0	0	
3	0	0	0	0	527	433	1021	0	0	0	
4	0	0	0	0	534	439	1021	0	0	0	
5	0	0	0	0	541	444	1021	0	0	0	
6	0	0	0	0	547	451	1021	0	0	0	
7	0	0	0	0	553	456	1021	0	0	0	
8	0	0	0	0	557	461	1021	0	0	0	
9	0	0	0	0	560	465	1021	0	0	0	
10	0	0	0	0	561	468	1021	0	0	0	
11	0	0	0	0	561	470	1021	0	0	0	
12	0	0	0	0	560	470	1021	0	0	0	
13	0	0	0	0	557	468	1021	0	0	0	
14	0	0	0	0	551	464	1021	0	0	0	
15	0	0	0	0	544	459	1021	0	0	0	
0	0	0	0	0	536	451	1021	0	0	0	
1	0	0	0	0	527	442	1021	0	0	0	
2	0	0	0	0	518	433	1021	0	0	0	
3	0	0	0	0	509	423	1021	0	0	0	
4	0	0	0	0	502	415	1020	0	0	0	
5	0	0	0	0	497	410	1021	0	0	0	
6	0	0	0	0	495	407	1021	0	0	0	
7	0	0	0	0	496	406	1021	0	0	0	
8	0	0	0	0	499	408	1021	0	0	0	
9	0	0	0	0	504	413	1021	0	0	0	
10	0	0	0	0	512	420	1021	0	0	0	
11	0	0	0	0	520	429	1021	0	0	0	
12	0	0	0	0	529	438	1021	0	0	0	
13	0	0	0	0	538	447	1021	0	0	0	
14	0	0	0	0	545	455	1021	0	0	0	
15	0	0	0	0	550	460	1021	0	0	0	
0	0	0	0	0	553	464	1021	0	0	0	
1	0	0	0	0	554	466	1021	0	0	0	
2	0	0	0	0	553	467	1021	0	0	0	
3	0	0	0	0	551	466	1021	0	0	0	
4	0	0	0	0	549	464	1021	0	0	0	
5	0	0	0	0	546	461	1021	0	0	0	
6	0	0	0	0	542	457	1021	0	0	0	
7	0	0	0	0	538	454	1021	0	0	0	
8	0	0	0	0	534	450	1021	0	0	0	
9	0	0	0	0	531	447	1021	0	0	0	
10	0	0	0	0	529	444	1021	0	0	0	
11	0	0	0	0	528	442	1021	0	0	0	
12	0	0	0	0	527	441	1021	0	0	0	
13	0	0	0	0	528	441	1021	0	0	0	
14	0	0	0	0	531	443	1021	0	0	0	
15	0	0	0	0	532	444	1021	0	0	0	
0	0	0	0	0	535	447	1021	0	0	0	
1	0	0	0	0	537	448	1021	0	0	0	
2	0	0	0	0	539	449	1021	0	0	0	
3	0	0	0	0	540	451	1021	0	0	0	
4	0	0	0	0	541	451	1021	0	0	0	
5	0	0	0	0	542	451	1021	0	0	0	
6	0	0	0	0	541	451	1021	0	0	0	
7	0	0	0	0	540	450	1021	0	0	0	
8	0	0	0	0	538	448	1021	0	0	0	
9	0	0	0	0	536	445	1021	0	0	0	
10	0	0	0	0	534	442	1021	0	0	0	
11	0	0	0	0	530	439	1021	0	0	0	
12	0	0	0	0	527	435	1020	0	0	0	
13	0	0	0	0	525	433	1021	0	0	0	
14	0	0	0	0	523	431	1021	0	0	0	
15	0	0	0	0	522	431	1021	0	0	0	
0	0	0	0	0	523	432	1021	0	0	0	
1	0	0	0	0	525	435	1021	0	0	0	
2	0	0	0	0	529	440	1021	0	0	0	
3	0	0	0	0	535	446	1021	0	0	0	
4	0	0	0	0	541	452	1021	0	0	0	
5	0	0	0	0	548	459	1021	0	0	0	
6	0	0	0	0	555	466	1021	0	0	0	
7	0	0	0	0	562	471	1021	0	0	0	
8	0	0	0	0	568	476	1021	0	0	0	
9	0	0	0	0	572	478	1021	0	0	0	
10	0	0	0	0	574	478	1021	0	0	0	
11	0	0	0	0	573	476	1021	0	0	0	
12	0	0	0	0	571	471	1021	0	0	0	
13	0	0	0	0	565	464	1021	0	0	0	
14	0	0	0	0	556	455	1021	0	0	0	
15	0	0	0	0	547	446	1021	0	0	0	
0	0	0	0	0	536	436	1021	0	0	0	
1	0	0	0	0	527	428	1021	0	0	0	
2	0	0	0	0	518	421	1021	0	0	0	
3	0	0	0	0	511	416	1021	0	0	0	
4	0	0	0	0	507	413	1021	0	0	0	
5	0	0	0	0	504	412	1021	0	0	0	
6	0	0	0	0	504	414	1021	0	0	0	
7	0	0	0	0	505	418	1021	0	0	0	
8	0	0	0	0	508	422	1021	0	0	0	
9	0	0	0	0	512	427	1021	0	0	0	
10	0	0	0	0	517	433	1021	0	0	0	
11	0	0	0	0	522	438	1021	0	0	0	
12	0	0	0	0	526	441	1021	0	0	0	
13	0	0	0	0	528	444	1021	0	0	0	
14	0	0	0	0	531	445	1021	0	0	0	
15	0	0	0	0	531	446	1021	0	0	0	
0	0	0	0	0	532	445	1021	0	0	0	
1	0	0	0	0	533	444	1021	0	0	0	
2	0	0	0	0	534	445	1021	0	0	0	
3	0	0	0	0	536	446	1021	0	0	0	
4	0	0	0	0	537	447	1021	0	0	0	
5	0	0	0	0	540	450	1021	0	0	0	
6	0	0	0	0	543	454	1021	0	0	0	
7	0	0	0	0	547	457	1021	0	0	0	
8	0	0	0	0	550	460	1021	0	0	0	
9	0	0	0	0	552	463	1021	0	0	0	
10	0	0	0	0	553	465	1021	0	0	0	
11	0	0	0	0	553	466	1021	0	0	0	
12	0	0	0	0	551	465	1021	0	0	0	
13	0	0	0	0	548	464	1021	0	0	0	
14	0	0	0	0	545	462	1021	0	0	0	
15	0	0	0	0	542	459	1021	0	0	0	
0	0	0	0	0	538	456	1021	0	0	0	
1	0	0	0	0	536	454	1021	0	0	0	
2	0	0	0	0	534	452	1021	0	0	0	
3	0	0	0	0	532	450	1021	0	0	0	
4	0	0	0	0	532	449	1021	0	0	0	
5	0	0	0	0	534	448	1021	0	0	0	
6	0	0	0	0	536	448	1021	0	0	0	
7	0	0	0	0	537	448	1021	0	0	0	
8	0	0	0	0	540	449	1021	0	0	0	
9	0	0	0	0	542	449	1021	0	0	0	
10	0	0	0	0	543	450	1021	0	0	0	
11	0	0	0	0	545	452	1021	0	0	0	
12	0	0	0	0	547	453	1021	0	0	0	
13	0	0	0	0	547	455	1021	0	0	0	
14	0	0	0	0	548	456	1021	0	0	0	
15	0	0	0	0	547	458	1021	0	0	0	
0	0	0	0	0	547	459	1021	0	0	0	
1	0	0	0	0	546	460	1021	0	0	0	
2	0	0	0	0	545	461	1021	0	0	0	
3	0	0	0	0	544	462	1021	0	0	0	
4	0	0	0	0	543	462	1021	0	0	0	
5	0	0	0	0	542	462	1021	0	0	0	
6	0	0	0	0	541	460	1021	0	0	0	
7	0	0	0	0	540	459	1021	0	0	0	
8	0	0	0	0	539	456	1021	0	0	0	
9	0	0	0	0	537	452	1021	0	0	0	
10	0	0	0	0	536	448	1021	0	0	0	
11	0	0	0	0	533	443	1021	0	0	0	
12	0	0	0	0	530	438	1021	0	0	0	
13	0	0	0	0	526	432	1021	0	0	0	
14	0	0	0	0	523	428	1021	0	0	0	
15	0	0	0	0	519	424	1021	0	0	0	
0	0	0	0	0	517	422	1021	0	0	0	
1	0	0	0	0	516	422	1021	0	0	0	
2	0	0	0	0	515	422	1021	0	0	0	
3	0	0	0	0	515	424	1021	0	0	0	
4	0	0	0	0	516	427	1021	0	0	0	
5	0	0	0	0	517	430	1021	0	0	0	
6	0	0	0	0	518	433	1021	0	0	0	
7	0	0	0	0	519	436	1021	0	0	0	
8	0	0	0	0	521	439	1021	0	0	0	
9	0	0	0	0	523	441	1021	0	0	0	
10	0	0	0	0	525	443	1021	0	0	0	
11	0	0	0	0	528	446	1021	0	0	0	
12	0	0	0	0	532	448	1021	0	0	0	
13	0	0	0	0	536	450	1021	0	0	0	
14	0	0	0	0	540	451	1021	0	0	0	
15	0	0	0	0	543	452	1021	0	0	0	
0	0	0	0	0	545	452	1021	0	0	0	
1	0	0	0	0	546	452	1021	0	0	0	
2	0	0	0	0	545	450	1021	0	0	0	
3	0	0	0	0	543	448	1021	0	0	0	
4	0	0	0	0	540	445	1021	0	0	0	
5	0	0	0	0	537	443	1021	0	0	0	
6	0	0	0	0	534	441	1021	0	0	0	
7	0	0	0	0	531	441	1021	0	0	0	
8	0	0	0	0	529	441	1021	0	0	0	
9	0	0	0	0	528	443	1021	0	0	0	
10	0	0	0	0	529	445	1021	0	0	0	
11	0	0	0	0	530	448	1021	0	0	0	
12	0	0	0	0	532	451	1021	0	0	0	
13	0	0	0	0	533	452	1021	0	0	0	
14	0	0	0	0	534	453	1021	0	0	0	
15	0	0	0	0	535	453	1021	0	0	0	
0	0	0	0	0	535	451	1021	0	0	0	
1	0	0	0	0	534	449	1021	0	0	0	
2	0	0	0	0	533	447	1021	0	0	0	
3	0	0	0	0	531	444	1021	0	0	0	
4	0	0	0	0	530	440	1021	0	0	0	
5	0	0	0	0	528	437	1021	0	0	0	
6	0	0	0	0	526	435	1021	0	0	0	
7	0	0	0	0	524	432	1021	0	0	0	
8	0	0	0	0	523	431	1021	0	0	0	
9	0	0	0	0	522	431	1021	0	0	0	
10	0	0	0	0	521	431	1021	0	0	0	
11	0	0	0	0	521	432	1021	0	0	0	
12	0	0	0	0	521	433	1021	0	0	0	
13	0	0	0	0	521	434	1021	0	0	0	
14	0	0	0	0	521	435	1021	0	0	0	
15	0	0	0	0	521	436	1021	0	0	0	
0	0	0	0	0	521	437	1021	0	0	0	
1	0	0	0	0	521	436	1021	0	0	0	
2	0	0	0	0	521	436	1021	0	0	0	
3	0	0	0	0	521	435	1021	0	0	0	
4	0	0	0	0	521	434	1021	0	0	0	
5	0	0	0	0	522	434	1021	0	0	0	
6	0	0	0	0	523	433	1021	0	0	0	
7	0	0	0	0	525	434	1021	0	0	0	
8	0	0	0	0	528	436	1021	0	0	0	
9	0	0	0	0	532	439	1021	0	0	0	
10	0	0	0	0	539	444	1021	0	0	0	
11	0	0	0	0	545	449	1021	0	0	0	
12	0	0	0	0	551	455	1021	0	0	0	
13	0	0	0	0	559	462	1021	0	0	0	
14	0	0	0	0	567	469	1021	0	0	0	
15	0	0	0	0	573	476	1021	0	0	0	
0	0	0	0	0	578	482	1021	0	0	0	
1	0	0	0	0	582	487	1021	0	0	0	
2	0	0	0	0	583	489	1021	0	0	0	
3	0	0	0	0	582	489	1021	0	0	0	
4	0	0	0	0	578	487	1021	0	0	0	
5	0	0	0	0	570	481	1021	0	0	0	
6	0	0	0	0	560	473	1021	0	0	0	
7	0	0	0	0	548	462	1021	0	0	0	
8	0	0	0	0	535	451	1021	0	0	0	
9	0	0	0	0	522	439	1021	0	0	0	
10	0	0	0	0	510	428	1021	0	0	0	
11	0	0	0	0	500	417	1021	0	0	0	
12	0	0	0	0	492	409	1021	0	0	0	
13	0	0	0	0	487	403	1021	0	0	0	
14	0	0	0	0	484	399	1021	0	0	0	
15	0	0	0	0	484	398	1021	0	0	0	
0	0	0	0	0	486	398	1021	0	0	0	
1	0	0	0	0	488	400	1021	0	0	0	
2	0	0	0	0	492	403	1021	0	0	0	
3	0	0	0	0	496	407	1021	0	0	0	
4	0	0	0	0	500	412	1021	0	0	0	
5	0	0	0	0	503	415	1021	0	0	0	
6	0	0	0	0	505	418	1021	0	0	0	
7	0	0	0	0	508	422	1021	0	0	0	
8	0	0	0	0	509	423	1021	0	0	0	
9	0	0	0	0	510	425	1021	0	0	0	
10	0	0	0	0	511	426	1021	0	0	0	
11	0	0	0	0	511	425	1021	0	0	0	
12	0	0	0	0	511	425	1021	0	0	0	
13	0	0	0	0	511	424	1021	0	0	0	
14	0	0	0	0	512	423	1021	0	0	0	
15	0	0	0	0	512	423	1021	0	0	0	
0	0	0	0	0	513	423	1021	0	0	0	
1	0	0	0	0	515	424	1021	0	0	0	
2	0	0	0	0	516	425	1021	0	0	0	
3	0	0	0	0	518	427	1021	0	0	0	
4	0	0	0	0	520	430	1021	0	0	0	
5	0	0	0	0	522	433	1021	0	0	0	
6	0	0	0	0	525	438	1021	0	0	0	
7	0	0	0	0	528	442	1021	0	0	0	
8	0	0	0	0	531	446	1021	0	0	0	
9	0	0	0	0	533	450	1021	0	0	0	
10	0	0	0	0	534	452	1021	0	0	0	
11	0	0	0	0	534	454	1021	0	0	0	
12	0	0	0	0	533	454	1021	0	0	0	
13	0	0	0	0	531	452	1020	0	0	0	
14	0	0	0	0	527	448	1021	0	0	0	
15	0	0	0	0	522	443	1021	0	0	0	
0	0	0	0	0	515	436	1021	0	0	0	
1	0	0	0	0	508	429	1021	0	0	0	
2	0	0	0	0	500	420	1021	0	0	0	
3	0	0	0	0	493	411	1021	0	0	0	
4	0	0	0	0	486	403	1021	0	0	0	
5	0	0	0	0	481	398	1021	0	0	0	
6	0	0	0	0	479	394	1021	0	0	0	
7	0	0	0	0	479	393	1021	0	0	0	
8	0	0	0	0	482	396	1021	0	0	0	
9	0	0	0	0	488	402	1021	0	0	0	
10	0	0	0	0	497	411	1021	0	0	0	
11	0	0	0	0	508	422	1021	0	0	0	
12	0	0	0	0	519	433	1021	0	0	0	
13	0	0	0	0	530	444	1021	0	0	0	
14	0	0	0	0	539	454	1021	0	0	0	
15	0	0	0	0	545	461	1021	0	0	0	
0	0	0	0	0	549	465	1021	0	0	0	
1	0	0	0	0	549	466	1021	0	0	0	
2	0	0	0	0	545	464	1021	0	0	0	
3	0	0	0	0	540	459	1021	0	0	0	
4	0	0	0	0	532	453	1021	0	0	0	
5	0	0	0	0	524	445	1021	0	0	0	
6	0	0	0	0	516	437	1021	0	0	0	
7	0	0	0	0	508	429	1021	0	0	0	
8	0	0	0	0	502	423	1021	0	0	0	
9	0	0	0	0	498	417	1021	0	0	0	
10	0	0	0	0	495	414	1021	0	0	0	
11	0	0	0	0	495	412	1021	0	0	0	
12	0	0	0	0	496	412	1020	0	0	0	
13	0	0	0	0	499	414	1021	0	0	0	
14	0	0	0	0	503	417	1021	0	0	0	
15	0	0	0	0	508	422	1021	0	0	0	
0	0	0	0	0	513	428	1020	0	0	0	
1	0	0	0	0	520	434	1021	0	0	0	
2	0	0	0	0	526	440	1021	0	0	0	
3	0	0	0	0	531	445	1021	0	0	0	
4	0	0	0	0	536	450	1021	0	0	0	
5	0	0	0	0	540	454	1021	0	0	0	
6	0	0	0	0	544	457	1021	0	0	0	
7	0	0	0	0	546	460	1021	0	0	0	
8	0	0	0	0	548	461	1021	0	0	0	
9	0	0	0	0	549	461	1021	0	0	0	
10	0	0	0	0	548	460	1021	0	0	0	
11	0	0	0	0	545	456	1021	0	0	0	
12	0	0	0	0	542	453	1021	0	0	0	
13	0	0	0	0	538	449	1021	0	0	0	
14	0	0	0	0	533	444	1021	0	0	0	
15	0	0	0	0	528	440	1021	0	0	0	
0	0	0	0	0	524	436	1021	0	0	0	
1	0	0	0	0	519	432	1021	0	0	0	
2	0	0	0	0	516	430	1021	0	0	0	
3	0	0	0	0	514	428	1021	0	0	0	
4	0	0	0	0	511	426	1021	0	0	0	
5	0	0	0	0	510	424	1021	0	0	0	
6	0	0	0	0	508	423	1021	0	0	0	
7	0	0	0	0	507	422	1021	0	0	0	
8	0	0	0	0	506	420	1021	0	0	0	
9	0	0	0	0	505	419	1021	0	0	0	
10	0	0	0	0	504	419	1021	0	0	0	
11	0	0	0	0	504	418	1021	0	0	0	
12	0	0	0	0	505	419	1021	0	0	0	
13	0	0	0	0	506	419	1021	0	0	0	
14	0	0	0	0	508	421	1021	0	0	0	
15	0	0	0	0	511	423	1021	0	0	0	
0	0	0	0	0	515	425	1021	0	0	0	
1	0	0	0	0	519	428	1021	0	0	0	
2	0	0	0	0	522	430	1021	0	0	0	
3	0	0	0	0	526	434	1021	0	0	0	
4	0	0	0	0	529	436	1021	0	0	0	
5	0	0	0	0	530	439	1021	0	0	0	
6	0	0	0	0	531	441	1021	0	0	0	
7	0	0	0	0	531	442	1021	0	0	0	
8	0	0	0	0	528	441	1021	0	0	0	
9	0	0	0	0	525	440	1021	0	0	0	
10	0	0	0	0	519	437	1021	0	0	0	
11	0	0	0	0	514	434	1021	0	0	0	
12	0	0	0	0	509	431	1021	0	0	0	
13	0	0	0	0	504	427	1021	0	0	0	
14	0	0	0	0	500	424	1021	0	0	0	
15	0	0	0	0	497	422	1021	0	0	0	
0	0	0	0	0	496	419	1021	0	0	0	
1	0	0	0	0	495	418	1021	0	0	0	
2	0	0	0	0	495	417	1021	0	0	0	
3	0	0	0	0	496	415	1021	0	0	0	
4	0	0	0	0	497	414	1021	0	0	0	
5	0	0	0	0	499	414	1021	0	0	0	
6	0	0	0	0	500	413	1021	0	0	0	
7	0	0	0	0	502	413	1021	0	0	0	
8	0	0	0	0	504	415	1021	0	0	0	
9	0	0	0	0	507	417	1021	0	0	0	
10	0	0	0	0	512	421	1021	0	0	0	
11	0	0	0	0	516	425	1021	0	0	0	
12	0	0	0	0	520	430	1021	0	0	0	
13	0	0	0	0	524	435	1021	0	0	0	
14	0	0	0	0	527	438	1021	0	0	0	
15	0	0	0	0	530	441	1021	0	0	0	
0	0	0	0	0	531	444	1021	0	0	0	
1	0	0	0	0	532	445	1021	0	0	0	
2	0	0	0	0	532	445	1021	0	0	0	
3	0	0	0	0	530	444	1021	0	0	0	
4	0	0	0	0	528	442	1021	0	0	0	
5	0	0	0	0	525	440	1021	0	0	0	
6	0	0	0	0	522	436	1021	0	0	0	
7	0	0	0	0	518	433	1021	0	0	0	
8	0	0	0	0	514	428	1021	0	0	0	
9	0	0	0	0	510	424	1021	0	0	0	
10	0	0	0	0	506	420	1021	0	0	0	
11	0	0	0	0	502	416	1021	0	0	0	
12	0	0	0	0	498	413	1021	0	0	0	
13	0	0	0	0	496	411	1021	0	0	0	
14	0	0	0	0	495	410	1021	0	0	0	
15	0	0	0	0	495	411	1021	0	0	0	
0	0	0	0	0	497	413	1021	0	0	0	
1	0	0	0	0	499	416	1021	0	0	0	
2	0	0	0	0	504	420	1021	0	0	0	
3	0	0	0	0	508	425	1021	0	0	0	
4	0	0	0	0	513	430	1021	0	0	0	
5	0	0	0	0	518	433	1021	0	0	0	
6	0	0	0	0	522	435	1021	0	0	0	
7	0	0	0	0	524	436	1021	0	0	0	
8	0	0	0	0	526	436	1021	0	0	0	
9	0	0	0	0	527	435	1021	0	0	0	
10	0	0	0	0	527	434	1021	0	0	0	
11	0	0	0	0	526	432	1021	0	0	0	
12	0	0	0	0	525	431	1021	0	0	0	
13	0	0	0	0	525	429	1021	0	0	0	
14	0	0	0	0	524	429	1021	0	0	0	
15	0	0	0	0	524	428	1021	0	0	0	
0	0	0	0	0	523	429	1021	0	0	0	
1	0	0	0	0	522	430	1021	0	0	0	
2	0	0	0	0	520	430	1021	0	0	0	
3	0	0	0	0	519	431	1021	0	0	0	
4	0	0	0	0	518	432	1021	0	0	0	
5	0	0	0	0	516	434	1021	0	0	0	
6	0	0	0	0	515	435	1021	0	0	0	
7	0	0	0	0	515	436	1021	0	0	0	
8	0	0	0	0	515	438	1021	0	0	0	
9	0	0	0	0	515	438	1021	0	0	0	
10	0	0	0	0	515	437	1021	0	0	0	
11	0	0	0	0	515	436	1021	0	0	0	
12	0	0	0	0	515	434	1021	0	0	0	
13	0	0	0	0	514	432	1021	0	0	0	
14	0	0	0	0	513	428	1021	0	0	0	
15	0	0	0	0	511	424	1021	0	0	0	
0	0	0	0	0	508	419	1021	0	0	0	
1	0	0	0	0	506	415	1021	0	0	0	
2	0	0	0	0	503	412	1021	0	0	0	
3	0	0	0	0	500	408	1021	0	0	0	
4	0	0	0	0	499	406	1021	0	0	0	
5	0	0	0	0	498	406	1021	0	0	0	
6	0	0	0	0	499	407	1021	0	0	0	
7	0	0	0	0	501	410	1021	0	0	0	
8	0	0	0	0	505	416	1021	0	0	0	
9	0	0	0	0	510	423	1021	0	0	0	
10	0	0	0	0	516	430	1021	0	0	0	
11	0	0	0	0	523	438	1021	0	0	0	
12	0	0	0	0	531	445	1021	0	0	0	
13	0	0	0	0	537	452	1021	0	0	0	
14	0	0	0	0	543	457	1021	0	0	0	
15	0	0	0	0	547	460	1021	0	0	0	
0	0	0	0	0	549	461	1021	0	0	0	
1	0	0	0	0	549	460	1021	0	0	0	
2	0	0	0	0	546	455	1021	0	0	0	
3	0	0	0	0	541	449	1021	0	0	0	
4	0	0	0	0	534	443	1021	0	0	0	
5	0	0	0	0	526	435	1021	0	0	0	
6	0	0	0	0	518	426	1021	0	0	0	
7	0	0	0	0	509	419	1021	0	0	0	
8	0	0	0	0	502	412	1021	0	0	0	
9	0	0	0	0	496	408	1021	0	0	0	
10	0	0	0	0	494	407	1021	0	0	0	
11	0	0	0	0	494	409	1021	0	0	0	
12	0	0	0	0	497	414	1021	0	0	0	
13	0	0	0	0	504	421	1021	0	0	0	
14	0	0	0	0	513	431	1021	0	0	0	
15	0	0	0	0	524	441	1021	0	0	0	
0	0	0	0	0	535	451	1021	0	0	0	
1	0	0	0	0	545	460	1021	0	0	0	
2	0	0	0	0	554	467	1021	0	0	0	
3	0	0	0	0	561	472	1021	0	0	0	
4	0	0	0	0	565	474	1021	0	0	0	
5	0	0	0	0	566	473	1021	0	0	0	
6	0	0	0	0	563	469	1021	0	0	0	
7	0	0	0	0	557	463	1021	0	0	0	
8	0	0	0	0	550	457	1021	0	0	0	
9	0	0	0	0	543	450	1021	0	0	0	
10	0	0	0	0	536	444	1021	0	0	0	
11	0	0	0	0	530	440	1021	0	0	0	
12	0	0	0	0	527	439	1021	0	0	0	
13	0	0	0	0	527	441	1021	0	0	0	
14	0	0	0	0	529	445	1021	0	0	0	
15	0	0	0	0	534	451	1021	0	0	0	
0	0	0	0	0	539	457	1021	0	0	0	
1	0	0	0	0	543	463	1021	0	0	0	
2	0	0	0	0	547	467	1021	0	0	0	
3	0	0	0	0	548	468	1021	0	0	0	
4	0	0	0	0	545	466	1021	0	0	0	
5	0	0	0	0	540	460	1021	0	0	0	
6	0	0	0	0	531	451	1021	0	0	0	
7	0	0	0	0	519	439	1021	0	0	0	
8	0	0	0	0	506	426	1021	0	0	0	
9	0	0	0	0	492	412	1021	0	0	0	
10	0	0	0	0	478	398	1021	0	0	0	
11	0	0	0	0	465	384	1021	0	0	0	
12	0	0	0	0	453	373	1021	0	0	0	
13	0	0	0	0	442	361	1021	0	0	0	
14	0	0	0	0	433	351	1021	0	0	0	
15	0	0	0	0	424	342	1021	0	0	0	
0	0	0	0	0	416	334	1021	0	0	0	
1	0	0	0	0	409	326	1021	0	0	0	
2	0	0	0	0	402	318	1021	0	0	0	
3	0	0	0	0	394	310	1021	0	0	0	
4	0	0	0	0	386	302	1021	0	0	0	
5	0	0	0	0	376	292	1021	0	0	0	
6	0	0	0	0	364	280	1021	0	0	0	
7	0	0	0	0	352	269	1021	0	0	0	
8	0	0	0	0	338	255	1021	0	0	0	
9	0	0	0	0	323	241	1021	0	0	0	
10	0	0	0	0	309	228	1021	0	0	0	
11	0	0	0	0	295	215	1021	0	0	0	
12	0	0	0	0	284	204	1021	0	0	0	
13	0	0	0	0	276	195	1021	0	0	0	
14	0	0	0	0	272	191	1021	0	0	0	
15	0	0	0	0	273	190	1021	0	0	0	
0	0	0	0	0	279	193	1021	0	0	0	
1	0	0	0	0	291	202	1021	0	0	0	
2	0	0	0	0	308	217	1021	0	0	0	
3	0	0	0	0	331	235	1021	0	0	0	
4	0	0	0	0	358	258	1021	0	0	0	
5	0	0	0	0	387	283	1021	0	0	0	
6	0	0	0	0	419	311	1021	0	0	0	
7	0	0	0	0	451	340	1021	0	0	0	
8	0	0	0	0	481	368	1021	0	0	0	
9	0	0	0	0	509	396	1021	0	0	0	
10	0	0	0	0	534	420	1021	0	0	0	
11	0	0	0	0	554	442	1021	0	0	0	
12	0	0	0	0	568	459	1021	0	0	0	
13	0	0	0	0	577	472	1021	0	0	0	
14	0	0	0	0	582	479	1021	0	0	0	
15	0	0	0	0	581	483	1021	0	0	0	
0	0	0	0	0	577	482	1021	0	0	0	
1	0	0	0	0	570	479	1021	0	0	0	
2	0	0	0	0	561	474	1021	0	0	0	
3	0	0	0	0	552	468	1021	0	0	0	
4	0	0	0	0	544	462	1021	0	0	0	
5	0	0	0	0	538	457	1021	0	0	0	
6	0	0	0	0	534	454	1021	0	0	0	
7	0	0	0	0	532	453	1021	0	0	0	
8	0	0	0	0	532	452	1021	0	0	0	
9	0	0	0	0	533	453	1021	0	0	0	
10	0	0	0	0	535	455	1021	0	0	0	
11	0	0	0	0	537	456	1021	0	0	0	
12	0	0	0	0	538	456	1021	0	0	0	
13	0	0	0	0	539	457	1020	0	0	0	
14	0	0	0	0	539	456	1021	0	0	0	
15	0	0	0	0	537	455	1021	0	0	0	
0	0	0	0	0	536	455	1021	0	0	0	
1	0	0	0	0	535	454	1021	0	0	0	
2	0	0	0	0	536	454	1021	0	0	0	
3	0	0	0	0	536	455	1021	0	0	0	
4	0	0	0	0	540	458	1021	0	0	0	
5	0	0	0	0	545	463	1021	0	0	0	
6	0	0	0	0	553	469	1021	0	0	0	
7	0	0	0	0	563	477	1021	0	0	0	
8	0	0	0	0	573	486	1021	0	0	0	
9	0	0	0	0	583	493	1021	0	0	0	
10	0	0	0	0	591	498	1021	0	0	0	
11	0	0	0	0	596	500	1021	0	0	0	
12	0	0	0	0	595	498	1021	0	0	0	
13	0	0	0	0	590	492	1021	0	0	0	
14	0	0	0	0	579	483	1021	0	0	0	
15	0	0	0	0	565	472	1021	0	0	0	
0	0	0	0	0	549	460	1021	0	0	0	
1	0	0	0	0	532	447	1021	0	0	0	
2	0	0	0	0	516	435	1021	0	0	0	
3	0	0	0	0	502	425	1021	0	0	0	
4	0	0	0	0	490	418	1021	0	0	0	
5	0	0	0	0	482	412	1021	0	0	0	
6	0	0	0	0	477	409	1021	0	0	0	
7	0	0	0	0	476	408	1021	0	0	0	
8	0	0	0	0	477	408	1021	0	0	0	
9	0	0	0	0	481	409	1021	0	0	0	
10	0	0	0	0	487	412	1021	0	0	0	
11	0	0	0	0	495	416	1021	0	0	0	
12	0	0	0	0	504	423	1021	0	0	0	
13	0	0	0	0	515	429	1021	0	0	0	
14	0	0	0	0	526	436	1021	0	0	0	
15	0	0	0	0	536	443	1021	0	0	0	
0	0	0	0	0	544	448	1021	0	0	0	
1	0	0	0	0	551	454	1021	0	0	0	
2	0	0	0	0	556	458	1021	0	0	0	
3	0	0	0	0	559	461	1021	0	0	0	
4	0	0	0	0	560	463	1021	0	0	0	
5	0	0	0	0	559	465	1021	0	0	0	
6	0	0	0	0	557	466	1021	0	0	0	
7	0	0	0	0	555	467	1021	0	0	0	
8	0	0	0	0	552	467	1021	0	0	0	
9	0	0	0	0	551	468	1021	0	0	0	
10	0	0	0	0	550	470	1021	0	0	0	
11	0	0	0	0	550	471	1021	0	0	0	
12	0	0	0	0	551	472	1021	0	0	0	
13	0	0	0	0	551	473	1021	0	0	0	
14	0	0	0	0	553	473	1021	0	0	0	
15	0	0	0	0	555	473	1021	0	0	0	
0	0	0	0	0	557	474	1021	0	0	0	
1	0	0	0	0	558	473	1021	0	0	0	
2	0	0	0	0	558	472	1021	0	0	0	
3	0	0	0	0	557	470	1021	0	0	0	
4	0	0	0	0	555	468	1021	0	0	0	
5	0	0	0	0	551	465	1021	0	0	0	
6	0	0	0	0	547	461	1021	0	0	0	
7	0	0	0	0	542	457	1021	0	0	0	
8	0	0	0	0	537	454	1021	0	0	0	
9	0	0	0	0	531	451	1021	0	0	0	
10	0	0	0	0	527	448	1021	0	0	0	
11	0	0	0	0	524	446	1021	0	0	0	
12	0	0	0	0	523	445	1021	0	0	0	
13	0	0	0	0	522	445	1021	0	0	0	
14	0	0	0	0	523	445	1021	0	0	0	
15	0	0	0	0	524	446	1021	0	0	0	
0	0	0	0	0	528	448	1021	0	0	0	
1	0	0	0	0	532	450	1021	0	0	0	
2	0	0	0	0	538	453	1021	0	0	0	
3	0	0	0	0	543	456	1021	0	0	0	
4	0	0	0	0	548	459	1021	0	0	0	
5	0	0	0	0	553	462	1021	0	0	0	
6	0	0	0	0	557	465	1021	0	0	0	
7	0	0	0	0	560	467	1021	0	0	0	
8	0	0	0	0	561	469	1021	0	0	0	
9	0	0	0	0	562	471	1021	0	0	0	
10	0	0	0	0	562	472	1021	0	0	0	
11	0	0	0	0	560	472	1021	0	0	0	
12	0	0	0	0	557	471	1021	0	0	0	
13	0	0	0	0	553	470	1021	0	0	0	
14	0	0	0	0	548	468	1021	0	0	0	
15	0	0	0	0	542	465	1021	0	0	0	
0	0	0	0	0	536	461	1021	0	0	0	
1	0	0	0	0	530	457	1021	0	0	0	
2	0	0	0	0	526	454	1021	0	0	0	
3	0	0	0	0	521	450	1021	0	0	0	
4	0	0	0	0	519	447	1021	0	0	0	
5	0	0	0	0	519	445	1021	0	0	0	
6	0	0	0	0	519	443	1021	0	0	0	
7	0	0	0	0	520	441	1021	0	0	0	
8	0	0	0	0	523	441	1021	0	0	0	
9	0	0	0	0	525	440	1021	0	0	0	
10	0	0	0	0	528	441	1021	0	0	0	
11	0	0	0	0	532	442	1021	0	0	0	
12	0	0	0	0	536	445	1021	0	0	0	
13	0	0	0	0	540	449	1021	0	0	0	
14	0	0	0	0	544	454	1021	0	0	0	
15	0	0	0	0	549	460	1021	0	0	0	
0	0	0	0	0	553	466	1021	0	0	0	
1	0	0	0	0	557	471	1021	0	0	0	
2	0	0	0	0	559	475	1021	0	0	0	
3	0	0	0	0	560	478	1021	0	0	0	
4	0	0	0	0	560	479	1021	0	0	0	
5	0	0	0	0	558	478	1021	0	0	0	
6	0	0	0	0	554	475	1021	0	0	0	
7	0	0	0	0	549	470	1021	0	0	0	
8	0	0	0	0	543	465	1021	0	0	0	
9	0	0	0	0	537	458	1021	0	0	0	
10	0	0	0	0	530	451	1021	0	0	0	
11	0	0	0	0	524	444	1021	0	0	0	
12	0	0	0	0	518	437	1021	0	0	0	
13	0	0	0	0	513	432	1021	0	0	0	
14	0	0	0	0	510	428	1021	0	0	0	
15	0	0	0	0	509	426	1021	0	0	0	
0	0	0	0	0	511	427	1021	0	0	0	
1	0	0	0	0	515	430	1021	0	0	0	
2	0	0	0	0	520	435	1021	0	0	0	
3	0	0	0	0	528	443	1021	0	0	0	
4	0	0	0	0	538	453	1021	0	0	0	
5	0	0	0	0	548	463	1021	0	0	0	
6	0	0	0	0	558	473	1021	0	0	0	
7	0	0	0	0	568	484	1021	0	0	0	
8	0	0	0	0	576	492	1021	0	0	0	
9	0	0	0	0	582	498	1021	0	0	0	
10	0	0	0	0	585	501	1021	0	0	0	
11	0	0	0	0	584	500	1021	0	0	0	
12	0	0	0	0	581	496	1021	0	0	0	
13	0	0	0	0	574	491	1021	0	0	0	
14	0	0	0	0	565	482	1021	0	0	0	
15	0	0	0	0	555	473	1021	0	0	0	
0	0	0	0	0	543	463	1021	0	0	0	
1	0	0	0	0	533	454	1021	0	0	0	
2	0	0	0	0	524	446	1021	0	0	0	
3	0	0	0	0	516	440	1021	0	0	0	
4	0	0	0	0	511	436	1021	0	0	0	
5	0	0	0	0	508	434	1021	0	0	0	
6	0	0	0	0	508	434	1021	0	0	0	
7	0	0	0	0	509	435	1021	0	0	0	
8	0	0	0	0	512	438	1021	0	0	0	
9	0	0	0	0	518	443	1021	0	0	0	
10	0	0	0	0	524	449	1021	0	0	0	
11	0	0	0	0	532	456	1021	0	0	0	
12	0	0	0	0	540	464	1021	0	0	0	
13	0	0	0	0	548	471	1021	0	0	0	
14	0	0	0	0	555	476	1021	0	0	0	
15	0	0	0	0	560	480	1021	0	0	0	
0	0	0	0	0	564	483	1021	0	0	0	
1	0	0	0	0	566	484	1021	0	0	0	
2	0	0	0	0	566	483	1021	0	0	0	
3	0	0	0	0	564	480	1021	0	0	0	
4	0	0	0	0	562	478	1021	0	0	0	
5	0	0	0	0	560	475	1021	0	0	0	
6	0	0	0	0	559	473	1021	0	0	0	
7	0	0	0	0	559	472	1021	0	0	0	
8	0	0	0	0	559	472	1020	0	0	0	
9	0	0	0	0	559	472	1021	0	0	0	
10	0	0	0	0	560	473	1021	0	0	0	
11	0	0	0	0	561	474	1021	0	0	0	
12	0	0	0	0	563	476	1021	0	0	0	
13	0	0	0	0	565	479	1021	0	0	0	
14	0	0	0	0	566	482	1021	0	0	0	
15	0	0	0	0	567	484	1021	0	0	0	
0	0	0	0	0	567	486	1021	0	0	0	
1	0	0	0	0	566	485	1021	0	0	0	
2	0	0	0	0	563	483	1021	0	0	0	
3	0	0	0	0	558	479	1021	0	0	0	
4	0	0	0	0	552	473	1021	0	0	0	
5	0	0	0	0	545	467	1021	0	0	0	
6	0	0	0	0	539	462	1021	0	0	0	
7	0	0	0	0	534	456	1021	0	0	0	
8	0	0	0	0	529	451	1021	0	0	0	
9	0	0	0	0	525	447	1021	0	0	0	
10	0	0	0	0	524	444	1021	0	0	0	
11	0	0	0	0	522	442	1021	0	0	0	
12	0	0	0	0	523	441	1021	0	0	0	
13	0	0	0	0	523	441	1021	0	0	0	
14	0	0	0	0	524	441	1021	0	0	0	
15	0	0	0	0	525	441	1021	0	0	0	
0	0	0	0	0	525	442	1021	0	0	0	
1	0	0	0	0	525	443	1021	0	0	0	
2	0	0	0	0	524	442	1021	0	0	0	
3	0	0	0	0	524	443	1021	0	0	0	
4	0	0	0	0	523	443	1021	0	0	0	
5	0	0	0	0	523	444	1021	0	0	0	
6	0	0	0	0	524	446	1021	0	0	0	
7	0	0	0	0	526	448	1021	0	0	0	
8	0	0	0	0	529	450	1021	0	0	0	
9	0	0	0	0	532	452	1021	0	0	0	
10	0	0	0	0	537	455	1021	0	0	0	
11	0	0	0	0	542	459	1021	0	0	0	
12	0	0	0	0	546	461	1021	0	0	0	
13	0	0	0	0	550	463	1021	0	0	0	
14	0	0	0	0	552	464	1021	0	0	0	
15	0	0	0	0	554	465	1021	0	0	0	
0	0	0	0	0	555	465	1020	0	0	0	
1	0	0	0	0	553	465	1021	0	0	0	
2	0	0	0	0	551	464	1021	0	0	0	
3	0	0	0	0	548	463	1021	0	0	0	
4	0	0	0	0	543	461	1021	0	0	0	
5	0	0	0	0	540	460	1021	0	0	0	
6	0	0	0	0	535	458	1021	0	0	0	
7	0	0	0	0	532	458	1021	0	0	0	
8	0	0	0	0	531	459	1021	0	0	0	
9	0	0	0	0	531	460	1021	0	0	0	
10	0	0	0	0	533	463	1021	0	0	0	
11	0	0	0	0	536	466	1021	0	0	0	
12	0	0	0	0	541	469	1021	0	0	0	
13	0	0	0	0	546	472	1021	0	0	0	
14	0	0	0	0	551	473	1021	0	0	0	
15	0	0	0	0	554	474	1021	0	0	0	
0	0	0	0	0	557	474	1021	0	0	0	
1	0	0	0	0	558	473	1021	0	0	0	
2	0	0	0	0	559	472	1021	0	0	0	
3	0	0	0	0	560	472	1021	0	0	0	
4	0	0	0	0	560	472	1021	0	0	0	
5	0	0	0	0	559	472	1021	0	0	0	
6	0	0	0	0	559	474	1021	0	0	0	
7	0	0	0	0	559	476	1021	0	0	0	
8	0	0	0	0	560	479	1021	0	0	0	
9	0	0	0	0	562	483	1021	0	0	0	
10	0	0	0	0	563	486	1021	0	0	0	
11	0	0	0	0	566	489	1021	0	0	0	
12	0	0	0	0	568	492	1021	0	0	0	
13	0	0	0	0	569	493	1021	0	0	0	
14	0	0	0	0	570	493	1021	0	0	0	
15	0	0	0	0	569	492	1021	0	0	0	
0	0	0	0	0	568	488	1021	0	0	0	
1	0	0	0	0	563	483	1021	0	0	0	
2	0	0	0	0	559	476	1021	0	0	0	
3	0	0	0	0	551	468	1021	0	0	0	
4	0	0	0	0	545	460	1021	0	0	0	
5	0	0	0	0	538	452	1021	0	0	0	
6	0	0	0	0	532	446	1021	0	0	0	
7	0	0	0	0	527	441	1021	0	0	0	
8	0	0	0	0	524	439	1021	0	0	0	
9	0	0	0	0	524	439	1021	0	0	0	
10	0	0	0	0	525	441	1021	0	0	0	
11	0	0	0	0	528	446	1021	0	0	0	
12	0	0	0	0	532	452	1021	0	0	0	
13	0	0	0	0	538	459	1021	0	0	0	
14	0	0	0	0	544	467	1021	0	0	0	
15	0	0	0	0	551	474	1021	0	0	0	
0	0	0	0	0	556	481	1021	0	0	0	
1	0	0	0	0	561	486	1021	0	0	0	
2	0	0	0	0	565	488	1021	0	0	0	
3	0	0	0	0	567	489	1021	0	0	0	
4	0	0	0	0	568	489	1021	0	0	0	
5	0	0	0	0	567	486	1021	0	0	0	
6	0	0	0	0	564	482	1021	0	0	0	
7	0	0	0	0	560	477	1021	0	0	0	
8	0	0	0	0	555	471	1021	0	0	0	
9	0	0	0	0	550	465	1021	0	0	0	
10	0	0	0	0	545	460	1021	0	0	0	
11	0	0	0	0	541	455	1020	0	0	0	
12	0	0	0	0	537	452	1021	0	0	0	
13	0	0	0	0	534	449	1021	0	0	0	
14	0	0	0	0	532	449	1021	0	0	0	
15	0	0	0	0	532	449	1021	0	0	0	
0	0	0	0	0	532	451	1021	0	0	0	
1	0	0	0	0	533	452	1021	0	0	0	
2	0	0	0	0	535	454	1021	0	0	0	
3	0	0	0	0	536	456	1021	0	0	0	
4	0	0	0	0	537	459	1021	0	0	0	
5	0	0	0	0	538	461	1021	0	0	0	
6	0	0	0	0	540	462	1021	0	0	0	
7	0	0	0	0	541	464	1021	0	0	0	
8	0	0	0	0	543	465	1021	0	0	0	
9	0	0	0	0	545	467	1021	0	0	0	
10	0	0	0	0	548	468	1021	0	0	0	
11	0	0	0	0	551	470	1021	0	0	0	
12	0	0	0	0	552	472	1021	0	0	0	
13	0	0	0	0	555	473	1021	0	0	0	
14	0	0	0	0	556	474	1021	0	0	0	
15	0	0	0	0	558	475	1021	0	0	0	
0	0	0	0	0	559	475	1021	0	0	0	
1	0	0	0	0	560	476	1021	0	0	0	
2	0	0	0	0	561	478	1021	0	0	0	
3	0	0	0	0	562	480	1021	0	0	0	
4	0	0	0	0	563	482	1021	0	0	0	
5	0	0	0	0	564	484	1021	0	0	0	
6	0	0	0	0	564	487	1021	0	0	0	
7	0	0	0	0	565	488	1021	0	0	0	
8	0	0	0	0	565	489	1021	0	0	0	
9	0	0	0	0	566	490	1021	0	0	0	
10	0	0	0	0	565	490	1021	0	0	0	
11	0	0	0	0	566	490	1021	0	0	0	
12	0	0	0	0	566	490	1021	0	0	0	
13	0	0	0	0	567	489	1021	0	0	0	
14	0	0	0	0	568	488	1021	0	0	0	
15	0	0	0	0	568	487	1021	0	0	0	
0	0	0	0	0	568	486	1021	0	0	0	
1	0	0	0	0	568	484	1021	0	0	0	
2	0	0	0	0	567	481	1021	0	0	0	
3	0	0	0	0	565	479	1021	0	0	0	
4	0	0	0	0	563	476	1021	0	0	0	
5	0	0	0	0	560	474	1021	0	0	0	
6	0	0	0	0	557	472	1021	0	0	0	
7	0	0	0	0	553	471	1021	0	0	0	
8	0	0	0	0	550	469	1021	0	0	0	
9	0	0	0	0	547	468	1021	0	0	0	
10	0	0	0	0	543	467	1021	0	0	0	
11	0	0	0	0	541	466	1021	0	0	0	
12	0	0	0	0	540	466	1021	0	0	0	
13	0	0	0	0	539	465	1021	0	0	0	
14	0	0	0	0	538	465	1021	0	0	0	
15	0	0	0	0	538	463	1021	0	0	0	
0	0	0	0	0	537	461	1021	0	0	0	
1	0	0	0	0	536	458	1021	0	0	0	
2	0	0	0	0	535	455	1021	0	0	0	
3	0	0	0	0	532	450	1021	0	0	0	
4	0	0	0	0	530	445	1021	0	0	0	
5	0	0	0	0	528	441	1021	0	0	0	
6	0	0	0	0	526	439	1021	0	0	0	
7	0	0	0	0	526	437	1021	0	0	0	
8	0	0	0	0	526	438	1021	0	0	0	
9	0	0	0	0	527	440	1021	0	0	0	
10	0	0	0	0	531	444	1021	0	0	0	
11	0	0	0	0	536	449	1021	0	0	0	
12	0	0	0	0	541	456	1021	0	0	0	
13	0	0	0	0	547	463	1021	0	0	0	
14	0	0	0	0	553	470	1021	0	0	0	
15	0	0	0	0	559	477	1021	0	0	0	
0	0	0	0	0	563	482	1021	0	0	0	
1	0	0	0	0	565	485	1021	0	0	0	
2	0	0	0	0	564	485	1021	0	0	0	
3	0	0	0	0	562	483	1021	0	0	0	
4	0	0	0	0	558	480	1021	0	0	0	
5	0	0	0	0	553	474	1021	0	0	0	
6	0	0	0	0	547	467	1021	0	0	0	
7	0	0	0	0	540	461	1021	0	0	0	
8	0	0	0	0	536	455	1021	0	0	0	
9	0	0	0	0	531	450	1021	0	0	0	
10	0	0	0	0	528	446	1021	0	0	0	
11	0	0	0	0	527	444	1021	0	0	0	
12	0	0	0	0	527	443	1021	0	0	0	
13	0	0	0	0	529	445	1021	0	0	0	
14	0	0	0	0	531	447	1021	0	0	0	
15	0	0	0	0	535	450	1021	0	0	0	
0	0	0	0	0	539	455	1021	0	0	0	
1	0	0	0	0	543	459	1021	0	0	0	
2	0	0	0	0	546	463	1021	0	0	0	
3	0	0	0	0	549	467	1021	0	0	0	
4	0	0	0	0	551	469	1021	0	0	0	
5	0	0	0	0	551	471	1021	0	0	0	
6	0	0	0	0	552	472	1021	0	0	0	
7	0	0	0	0	552	473	1021	0	0	0	
8	0	0	0	0	552	473	1021	0	0	0	
9	0	0	0	0	553	473	1021	0	0	0	
10	0	0	0	0	554	473	1021	0	0	0	
11	0	0	0	0	554	473	1021	0	0	0	
12	0	0	0	0	555	472	1021	0	0	0	
13	0	0	0	0	555	472	1021	0	0	0	
14	0	0	0	0	555	472	1021	0	0	0	
15	0	0	0	0	555	471	1021	0	0	0	
0	0	0	0	0	556	472	1020	0	0	0	
1	0	0	0	0	558	475	1021	0	0	0	
2	0	0	0	0	561	478	1021	0	0	0	
3	0	0	0	0	565	483	1021	0	0	0	
4	0	0	0	0	568	487	1021	0	0	0	
5	0	0	0	0	571	490	1021	0	0	0	
6	0	0	0	0	572	492	1021	0	0	0	
7	0	0	0	0	572	493	1021	0	0	0	
8	0	0	0	0	571	492	1021	0	0	0	
9	0	0	0	0	568	488	1021	0	0	0	
10	0	0	0	0	563	484	1021	0	0	0	
11	0	0	0	0	559	479	1021	0	0	0	
12	0	0	0	0	553	473	1021	0	0	0	
13	0	0	0	0	547	467	1021	0	0	0	
14	0	0	0	0	542	462	1021	0	0	0	
15	0	0	0	0	536	456	1021	0	0	0	
0	0	0	0	0	531	451	1021	0	0	0	
1	0	0	0	0	527	447	1021	0	0	0	
2	0	0	0	0	524	445	1021	0	0	0	
3	0	0	0	0	524	444	1021	0	0	0	
4	0	0	0	0	524	444	1021	0	0	0	
5	0	0	0	0	526	447	1021	0	0	0	
6	0	0	0	0	531	452	1021	0	0	0	
7	0	0	0	0	539	460	1021	0	0	0	
8	0	0	0	0	547	467	1021	0	0	0	
9	0	0	0	0	556	475	1021	0	0	0	
10	0	0	0	0	563	482	1021	0	0	0	
11	0	0	0	0	570	487	1021	0	0	0	
12	0	0	0	0	574	490	1021	0	0	0	
13	0	0	0	0	576	491	1021	0	0	0	
14	0	0	0	0	576	492	1020	0	0	0	
15	0	0	0	0	576	491	1021	0	0	0	
0	0	0	0	0	576	490	1021	0	0	0	
1	0	0	0	0	576	489	1021	0	0	0	
2	0	0	0	0	575	488	1021	0	0	0	
3	0	0	0	0	575	487	1021	0	0	0	
4	0	0	0	0	574	487	1021	0	0	0	
5	0	0	0	0	573	485	1021	0	0	0	
6	0	0	0	0	571	483	1021	0	0	0	
7	0	0	0	0	567	480	1021	0	0	0	
8	0	0	0	0	562	476	1021	0	0	0	
9	0	0	0	0	556	471	1021	0	0	0	
10	0	0	0	0	549	465	1021	0	0	0	
11	0	0	0	0	541	460	1021	0	0	0	
12	0	0	0	0	534	455	1021	0	0	0	
13	0	0	0	0	526	449	1021	0	0	0	
14	0	0	0	0	519	445	1021	0	0	0	
15	0	0	0	0	514	441	1021	0	0	0	
0	0	0	0	0	510	438	1021	0	0	0	
1	0	0	0	0	508	436	1021	0	0	0	
2	0	0	0	0	507	435	1021	0	0	0	
3	0	0	0	0	508	435	1021	0	0	0	
4	0	0	0	0	510	435	1021	0	0	0	
5	0	0	0	0	513	435	1021	0	0	0	
6	0	0	0	0	518	437	1021	0	0	0	
7	0	0	0	0	523	438	1021	0	0	0	
8	0	0	0	0	528	441	1021	0	0	0	
9	0	0	0	0	534	443	1021	0	0	0	
10	0	0	0	0	539	446	1021	0	0	0	
11	0	0	0	0	544	450	1021	0	0	0	
12	0	0	0	0	548	453	1021	0	0	0	
13	0	0	0	0	551	457	1021	0	0	0	
14	0	0	0	0	554	461	1021	0	0	0	
15	0	0	0	0	556	464	1021	0	0	0	
0	0	0	0	0	558	468	1021	0	0	0	
1	0	0	0	0	559	472	1021	0	0	0	
2	0	0	0	0	560	476	1021	0	0	0	
3	0	0	0	0	560	479	1021	0	0	0	
4	0	0	0	0	561	481	1021	0	0	0	
5	0	0	0	0	562	484	1021	0	0	0	
6	0	0	0	0	563	486	1021	0	0	0	
7	0	0	0	0	563	487	1021	0	0	0	
8	0	0	0	0	564	487	1021	0	0	0	
9	0	0	0	0	563	486	1021	0	0	0	
10	0	0	0	0	562	483	1021	0	0	0	
11	0	0	0	0	559	480	1021	0	0	0	
12	0	0	0	0	556	475	1021	0	0	0	
13	0	0	0	0	553	470	1021	0	0	0	
14	0	0	0	0	550	467	1021	0	0	0	
15	0	0	0	0	547	463	1021	0	0	0	
0	0	0	0	0	547	462	1021	0	0	0	
1	0	0	0	0	548	463	1021	0	0	0	
2	0	0	0	0	551	465	1021	0	0	0	
3	0	0	0	0	555	470	1021	0	0	0	
4	0	0	0	0	561	476	1021	0	0	0	
5	0	0	0	0	568	483	1021	0	0	0	
6	0	0	0	0	574	490	1021	0	0	0	
7	0	0	0	0	580	496	1021	0	0	0	
8	0	0	0	0	585	500	1021	0	0	0	
9	0	0	0	0	588	504	1021	0	0	0	
10	0	0	0	0	589	505	1021	0	0	0	
11	0	0	0	0	588	504	1021	0	0	0	
12	0	0	0	0	585	501	1021	0	0	0	
13	0	0	0	0	580	496	1021	0	0	0	
14	0	0	0	0	575	489	1021	0	0	0	
15	0	0	0	0	567	482	1021	0	0	0	
0	0	0	0	0	559	474	1021	0	0	0	
1	0	0	0	0	551	467	1021	0	0	0	
2	0	0	0	0	543	460	1021	0	0	0	
3	0	0	0	0	537	454	1021	0	0	0	
4	0	0	0	0	532	449	1021	0	0	0	
5	0	0	0	0	528	447	1021	0	0	0	
6	0	0	0	0	527	447	1021	0	0	0	
7	0	0	0	0	527	448	1021	0	0	0	
8	0	0	0	0	528	449	1021	0	0	0	
9	0	0	0	0	529	451	1021	0	0	0	
10	0	0	0	0	531	452	1021	0	0	0	
11	0	0	0	0	533	454	1021	0	0	0	
12	0	0	0	0	535	455	1021	0	0	0	
13	0	0	0	0	537	456	1021	0	0	0	
14	0	0	0	0	539	456	1021	0	0	0	
15	0	0	0	0	540	455	1021	0	0	0	
0	0	0	0	0	541	454	1021	0	0	0	
1	0	0	0	0	542	452	1021	0	0	0	
2	0	0	0	0	541	449	1021	0	0	0	
3	0	0	0	0	541	447	1021	0	0	0	
4	0	0	0	0	540	444	1021	0	0	0	
5	0	0	0	0	538	443	1021	0	0	0	
6	0	0	0	0	537	441	1021	0	0	0	
7	0	0	0	0	535	439	1021	0	0	0	
8	0	0	0	0	533	438	1021	0	0	0	
9	0	0	0	0	531	438	1021	0	0	0	
10	0	0	0	0	531	439	1021	0	0	0	
11	0	0	0	0	531	440	1021	0	0	0	
12	0	0	0	0	532	443	1020	0	0	0	
13	0	0	0	0	534	446	1021	0	0	0	
14	0	0	0	0	536	450	1021	0	0	0	
15	0	0	0	0	540	454	1021	0	0	0	
0	0	0	0	0	543	459	1021	0	0	0	
1	0	0	0	0	547	462	1021	0	0	0	
2	0	0	0	0	550	464	1021	0	0	0	
3	0	0	0	0	552	465	1021	0	0	0	
4	0	0	0	0	553	465	1021	0	0	0	
5	0	0	0	0	552	463	1021	0	0	0	
6	0	0	0	0	551	460	1021	0	0	0	
7	0	0	0	0	548	457	1021	0	0	0	
8	0	0	0	0	547	455	1021	0	0	0	
9	0	0	0	0	546	453	1021	0	0	0	
10	0	0	0	0	546	453	1021	0	0	0	
11	0	0	0	0	547	455	1021	0	0	0	
12	0	0	0	0	549	457	1021	0	0	0	
13	0	0	0	0	552	461	1021	0	0	0	
14	0	0	0	0	557	466	1021	0	0	0	
15	0	0	0	0	561	472	1021	0	0	0	
0	0	0	0	0	566	477	1021	0	0	0	
1	0	0	0	0	570	482	1021	0	0	0	
2	0	0	0	0	574	486	1021	0	0	0	
3	0	0	0	0	578	490	1021	0	0	0	
4	0	0	0	0	581	493	1021	0	0	0	
5	0	0	0	0	583	494	1021	0	0	0	
6	0	0	0	0	583	494	1021	0	0	0	
7	0	0	0	0	582	492	1021	0	0	0	
8	0	0	0	0	578	487	1021	0	0	0	
9	0	0	0	0	572	481	1021	0	0	0	
10	0	0	0	0	566	474	1021	0	0	0	
11	0	0	0	0	559	467	1021	0	0	0	
12	0	0	0	0	551	460	1021	0	0	0	
13	0	0	0	0	546	455	1021	0	0	0	
14	0	0	0	0	543	453	1021	0	0	0	
15	0	0	0	0	542	453	1021	0	0	0	
0	0	0	0	0	543	455	1020	0	0	0	
1	0	0	0	0	547	458	1021	0	0	0	
2	0	0	0	0	551	463	1021	0	0	0	
3	0	0	0	0	557	468	1021	0	0	0	
4	0	0	0	0	561	472	1021	0	0	0	
5	0	0	0	0	566	475	1021	0	0	0	
6	0	0	0	0	568	477	1021	0	0	0	
7	0	0	0	0	569	478	1021	0	0	0	
8	0	0	0	0	568	476	1021	0	0	0	
9	0	0	0	0	566	473	1021	0	0	0	
10	0	0	0	0	562	468	1021	0	0	0	
11	0	0	0	0	557	463	1021	0	0	0	
12	0	0	0	0	551	457	1021	0	0	0	
13	0	0	0	0	544	450	1021	0	0	0	
14	0	0	0	0	538	444	1021	0	0	0	
15	0	0	0	0	532	437	1021	0	0	0	
0	0	0	0	0	527	432	1021	0	0	0	
1	0	0	0	0	523	428	1021	0	0	0	
2	0	0	0	0	520	426	1021	0	0	0	
3	0	0	0	0	520	426	1021	0	0	0	
4	0	0	0	0	521	428	1021	0	0	0	
5	0	0	0	0	525	432	1021	0	0	0	
6	0	0	0	0	530	439	1021	0	0	0	
7	0	0	0	0	537	447	1021	0	0	0	
8	0	0	0	0	545	455	1021	0	0	0	
9	0	0	0	0	552	463	1021	0	0	0	
10	0	0	0	0	559	470	1021	0	0	0	
11	0	0	0	0	565	475	1021	0	0	0	
12	0	0	0	0	568	478	1021	0	0	0	
13	0	0	0	0	568	477	1021	0	0	0	
14	0	0	0	0	563	472	1020	0	0	0	
15	0	0	0	0	555	463	1021	0	0	0	
0	0	0	0	0	542	451	1021	0	0	0	
1	0	0	0	0	526	435	1021	0	0	0	
2	0	0	0	0	508	418	1021	0	0	0	
3	0	0	0	0	490	400	1021	0	0	0	
4	0	0	0	0	471	382	1021	0	0	0	
5	0	0	0	0	453	366	1021	0	0	0	
6	0	0	0	0	437	350	1021	0	0	0	
7	0	0	0	0	423	337	1021	0	0	0	
8	0	0	0	0	410	325	1020	0	0	0	
9	0	0	0	0	399	315	1021	0	0	0	
10	0	0	0	0	390	306	1021	0	0	0	
11	0	0	0	0	381	297	1021	0	0	0	
12	0	0	0	0	373	290	1021	0	0	0	
13	0	0	0	0	366	283	1021	0	0	0	
14	0	0	0	0	359	275	1021	0	0	0	
15	0	0	0	0	352	268	1021	0	0	0	
0	0	0	0	0	347	262	1021	0	0	0	
1	0	0	0	0	342	256	1021	0	0	0	
2	0	0	0	0	338	251	1021	0	0	0	
3	0	0	0	0	335	246	1021	0	0	0	
4	0	0	0	0	334	243	1021	0	0	0	
5	0	0	0	0	336	243	1021	0	0	0	
6	0	0	0	0	340	244	1021	0	0	0	
7	0	0	0	0	348	249	1021	0	0	0	
8	0	0	0	0	360	258	1021	0	0	0	
9	0	0	0	0	377	272	1021	0	0	0	
10	0	0	0	0	398	289	1021	0	0	0	
11	0	0	0	0	421	309	1021	0	0	0	
12	0	0	0	0	447	332	1021	0	0	0	
13	0	0	0	0	475	356	1021	0	0	0	
14	0	0	0	0	502	382	1021	0	0	0	
15	0	0	0	0	528	407	1021	0	0	0	
0	0	0	0	0	552	430	1021	0	0	0	
1	0	0	0	0	573	451	1021	0	0	0	
2	0	0	0	0	590	468	1021	0	0	0	
3	0	0	0	0	601	482	1021	0	0	0	
4	0	0	0	0	608	491	1021	0	0	0	
5	0	0	0	0	611	497	1021	0	0	0	
6	0	0	0	0	609	498	1021	0	0	0	
7	0	0	0	0	604	496	1021	0	0	0	
8	0	0	0	0	597	492	1021	0	0	0	
9	0	0	0	0	587	486	1021	0	0	0	
10	0	0	0	0	576	479	1021	0	0	0	
11	0	0	0	0	565	471	1021	0	0	0	
12	0	0	0	0	556	464	1021	0	0	0	
13	0	0	0	0	547	459	1021	0	0	0	
14	0	0	0	0	541	454	1021	0	0	0	
15	0	0	0	0	537	450	1021	0	0	0	
0	0	0	0	0	535	448	1021	0	0	0	
1	0	0	0	0	536	448	1021	0	0	0	
2	0	0	0	0	539	451	1021	0	0	0	
3	0	0	0	0	543	455	1021	0	0	0	
4	0	0	0	0	551	460	1021	0	0	0	
5	0	0	0	0	558	466	1021	0	0	0	
6	0	0	0	0	566	472	1021	0	0	0	
7	0	0	0	0	574	478	1021	0	0	0	
8	0	0	0	0	579	483	1021	0	0	0	
9	0	0	0	0	584	486	1021	0	0	0	
10	0	0	0	0	585	487	1021	0	0	0	
11	0	0	0	0	584	485	1021	0	0	0	
12	0	0	0	0	581	481	1021	0	0	0	
13	0	0	0	0	575	476	1021	0	0	0	
14	0	0	0	0	568	468	1021	0	0	0	
15	0	0	0	0	560	461	1021	0	0	0	
0	0	0	0	0	551	452	1021	0	0	0	
1	0	0	0	0	544	445	1021	0	0	0	
2	0	0	0	0	537	438	1021	0	0	0	
3	0	0	0	0	531	433	1021	0	0	0	
4	0	0	0	0	527	429	1021	0	0	0	
5	0	0	0	0	525	428	1021	0	0	0	
6	0	0	0	0	525	429	1021	0	0	0	
7	0	0	0	0	528	432	1021	0	0	0	
8	0	0	0	0	533	437	1021	0	0	0	
9	0	0	0	0	540	444	1021	0	0	0	
10	0	0	0	0	547	451	1021	0	0	0	
11	0	0	0	0	554	458	1021	0	0	0	
12	0	0	0	0	562	465	1021	0	0	0	
13	0	0	0	0	568	471	1021	0	0	0	
14	0	0	0	0	574	475	1021	0	0	0	
15	0	0	0	0	578	480	1021	0	0	0	
0	0	0	0	0	582	482	1021	0	0	0	
1	0	0	0	0	583	483	1021	0	0	0	
2	0	0	0	0	584	484	1021	0	0	0	
3	0	0	0	0	584	483	1021	0	0	0	
4	0	0	0	0	584	483	1021	0	0	0	
5	0	0	0	0	585	483	1021	0	0	0	
6	0	0	0	0	585	483	1021	0	0	0	
7	0	0	0	0	586	484	1021	0	0	0	
8	0	0	0	0	587	484	1021	0	0	0	
9	0	0	0	0	588	487	1021	0	0	0	
10	0	0	0	0	589	488	1021	0	0	0	
11	0	0	0	0	590	491	1021	0	0	0	
12	0	0	0	0	591	492	1021	0	0	0	
13	0	0	0	0	591	494	1021	0	0	0	
14	0	0	0	0	591	496	1021	0	0	0	
15	0	0	0	0	590	496	1021	0	0	0	
0	0	0	0	0	589	497	1021	0	0	0	
1	0	0	0	0	588	496	1021	0	0	0	
2	0	0	0	0	585	495	1021	0	0	0	
3	0	0	0	0	583	492	1021	0	0	0	
4	0	0	0	0	579	487	1021	0	0	0	
5	0	0	0	0	575	483	1021	0	0	0	
6	0	0	0	0	571	477	1021	0	0	0	
7	0	0	0	0	566	471	1021	0	0	0	
8	0	0	0	0	560	465	1021	0	0	0	
9	0	0	0	0	556	459	1021	0	0	0	
10	0	0	0	0	552	455	1021	0	0	0	
11	0	0	0	0	549	451	1021	0	0	0	
12	0	0	0	0	547	449	1021	0	0	0	
13	0	0	0	0	545	449	1021	0	0	0	
14	0	0	0	0	546	451	1021	0	0	0	
15	0	0	0	0	547	453	1021	0	0	0	
0	0	0	0	0	550	457	1021	0	0	0	
1	0	0	0	0	553	461	1021	0	0	0	
2	0	0	0	0	556	465	1021	0	0	0	
3	0	0	0	0	560	469	1021	0	0	0	
4	0	0	0	0	563	472	1021	0	0	0	
5	0	0	0	0	566	473	1021	0	0	0	
6	0	0	0	0	568	474	1021	0	0	0	
7	0	0	0	0	569	474	1021	0	0	0	
8	0	0	0	0	571	474	1021	0	0	0	
9	0	0	0	0	571	473	1021	0	0	0	
10	0	0	0	0	569	471	1021	0	0	0	
11	0	0	0	0	568	468	1021	0	0	0	
12	0	0	0	0	565	465	1021	0	0	0	
13	0	0	0	0	563	462	1021	0	0	0	
14	0	0	0	0	559	459	1021	0	0	0	
15	0	0	0	0	555	455	1021	0	0	0	
0	0	0	0	0	550	451	1021	0	0	0	
1	0	0	0	0	546	448	1021	0	0	0	
2	0	0	0	0	542	445	1021	0	0	0	
3	0	0	0	0	538	444	1021	0	0	0	
4	0	0	0	0	536	443	1021	0	0	0	
5	0	0	0	0	534	442	1021	0	0	0	
6	0	0	0	0	534	443	1021	0	0	0	
7	0	0	0	0	536	445	1021	0	0	0	
8	0	0	0	0	539	448	1021	0	0	0	
9	0	0	0	0	543	452	1021	0	0	0	
10	0	0	0	0	548	456	1021	0	0	0	
11	0	0	0	0	555	461	1021	0	0	0	
12	0	0	0	0	561	466	1021	0	0	0	
13	0	0	0	0	567	470	1021	0	0	0	
14	0	0	0	0	572	473	1021	0	0	0	
15	0	0	0	0	575	475	1021	0	0	0	
0	0	0	0	0	578	476	1021	0	0	0	
1	0	0	0	0	579	477	1021	0	0	0	
2	0	0	0	0	579	476	1021	0	0	0	
3	0	0	0	0	578	475	1021	0	0	0	
4	0	0	0	0	576	475	1021	0	0	0	
5	0	0	0	0	573	473	1021	0	0	0	
6	0	0	0	0	570	471	1021	0	0	0	
7	0	0	0	0	565	469	1021	0	0	0	
8	0	0	0	0	560	465	1021	0	0	0	
9	0	0	0	0	554	462	1021	0	0	0	
10	0	0	0	0	548	458	1021	0	0	0	
11	0	0	0	0	543	455	1021	0	0	0	
12	0	0	0	0	539	451	1021	0	0	0	
13	0	0	0	0	535	448	1020	0	0	0	
14	0	0	0	0	533	446	1021	0	0	0	
15	0	0	0	0	531	444	1021	0	0	0	
0	0	0	0	0	532	444	1021	0	0	0	
1	0	0	0	0	534	444	1021	0	0	0	
2	0	0	0	0	537	445	1021	0	0	0	
3	0	0	0	0	542	448	1021	0	0	0	
4	0	0	0	0	547	451	1021	0	0	0	
5	0	0	0	0	553	455	1021	0	0	0	
6	0	0	0	0	559	459	1021	0	0	0	
7	0	0	0	0	564	464	1021	0	0	0	
8	0	0	0	0	569	468	1021	0	0	0	
9	0	0	0	0	573	472	1021	0	0	0	
10	0	0	0	0	576	476	1021	0	0	0	
11	0	0	0	0	577	480	1021	0	0	0	
12	0	0	0	0	578	481	1021	0	0	0	
13	0	0	0	0	576	482	1020	0	0	0	
14	0	0	0	0	574	482	1021	0	0	0	
15	0	0	0	0	570	480	1021	0	0	0	
0	0	0	0	0	566	478	1021	0	0	0	
1	0	0	0	0	560	475	1021	0	0	0	
2	0	0	0	0	556	471	1021	0	0	0	
3	0	0	0	0	550	466	1021	0	0	0	
4	0	0	0	0	545	462	1021	0	0	0	
5	0	0	0	0	541	457	1021	0	0	0	
6	0	0	0	0	538	453	1021	0	0	0	
7	0	0	0	0	536	449	1021	0	0	0	
8	0	0	0	0	535	447	1021	0	0	0	
9	0	0	0	0	536	445	1021	0	0	0	
10	0	0	0	0	537	444	1021	0	0	0	
11	0	0	0	0	539	444	1021	0	0	0	
12	0	0	0	0	542	446	1021	0	0	0	
13	0	0	0	0	545	449	1021	0	0	0	
14	0	0	0	0	551	453	1021	0	0	0	
15	0	0	0	0	556	459	1021	0	0	0	
0	0	0	0	0	561	464	1021	0	0	0	
1	0	0	0	0	567	470	1021	0	0	0	
2	0	0	0	0	572	476	1021	0	0	0	
3	0	0	0	0	577	481	1021	0	0	0	
4	0	0	0	0	580	485	1021	0	0	0	
5	0	0	0	0	582	488	1021	0	0	0	
6	0	0	0	0	581	488	1021	0	0	0	
7	0	0	0	0	580	487	1021	0	0	0	
8	0	0	0	0	577	485	1021	0	0	0	
9	0	0	0	0	574	482	1021	0	0	0	
10	0	0	0	0	569	478	1021	0	0	0	
11	0	0	0	0	565	473	1021	0	0	0	
12	0	0	0	0	560	468	1021	0	0	0	
13	0	0	0	0	556	464	1021	0	0	0	
14	0	0	0	0	553	461	1021	0	0	0	
15	0	0	0	0	551	460	1021	0	0	0	
0	0	0	0	0	551	459	1021	0	0	0	
1	0	0	0	0	552	460	1021	0	0	0	
2	0	0	0	0	554	463	1021	0	0	0	
3	0	0	0	0	557	466	1021	0	0	0	
4	0	0	0	0	560	469	1021	0	0	0	
5	0	0	0	0	561	472	1021	0	0	0	
6	0	0	0	0	563	475	1021	0	0	0	
7	0	0	0	0	564	476	1021	0	0	0	
8	0	0	0	0	564	476	1021	0	0	0	
9	0	0	0	0	563	476	1021	0	0	0	
10	0	0	0	0	562	474	1021	0	0	0	
11	0	0	0	0	561	473	1021	0	0	0	
12	0	0	0	0	562	471	1021	0	0	0	
13	0	0	0	0	562	470	1021	0	0	0	
14	0	0	0	0	563	468	1021	0	0	0	
15	0	0	0	0	564	467	1021	0	0	0	
0	0	0	0	0	565	466	1021	0	0	0	
1	0	0	0	0	566	464	1021	0	0	0	
2	0	0	0	0	566	463	1021	0	0	0	
3	0	0	0	0	567	463	1021	0	0	0	
4	0	0	0	0	567	463	1021	0	0	0	
5	0	0	0	0	568	465	1021	0	0	0	
6	0	0	0	0	570	467	1021	0	0	0	
7	0	0	0	0	571	470	1021	0	0	0	
8	0	0	0	0	573	473	1021	0	0	0	
9	0	0	0	0	574	477	1021	0	0	0	
10	0	0	0	0	575	480	1021	0	0	0	
11	0	0	0	0	576	484	1021	0	0	0	
12	0	0	0	0	577	486	1021	0	0	0	
13	0	0	0	0	577	488	1021	0	0	0	
14	0	0	0	0	576	488	1021	0	0	0	
15	0	0	0	0	575	489	1021	0	0	0	
0	0	0	0	0	575	488	1021	0	0	0	
1	0	0	0	0	574	487	1021	0	0	0	
2	0	0	0	0	573	486	1021	0	0	0	
3	0	0	0	0	573	484	1021	0	0	0	
4	0	0	0	0	574	484	1021	0	0	0	
5	0	0	0	0	577	484	1021	0	0	0	
6	0	0	0	0	579	485	1021	0	0	0	
7	0	0	0	0	583	487	1021	0	0	0	
8	0	0	0	0	586	488	1021	0	0	0	
9	0	0	0	0	589	491	1021	0	0	0	
10	0	0	0	0	591	492	1021	0	0	0	
11	0	0	0	0	591	494	1021	0	0	0	
12	0	0	0	0	590	494	1021	0	0	0	
13	0	0	0	0	587	493	1021	0	0	0	
14	0	0	0	0	582	491	1021	0	0	0	
15	0	0	0	0	575	487	1021	0	0	0	
0	0	0	0	0	567	482	1021	0	0	0	
1	0	0	0	0	557	475	1021	0	0	0	
2	0	0	0	0	546	466	1021	0	0	0	
3	0	0	0	0	535	457	1021	0	0	0	
4	0	0	0	0	526	448	1021	0	0	0	
5	0	0	0	0	517	440	1021	0	0	0	
6	0	0	0	0	511	433	1021	0	0	0	
7	0	0	0	0	507	427	1021	0	0	0	
8	0	0	0	0	506	423	1021	0	0	0	
9	0	0	0	0	508	422	1021	0	0	0	
10	0	0	0	0	511	423	1021	0	0	0	
11	0	0	0	0	517	426	1021	0	0	0	
12	0	0	0	0	524	430	1021	0	0	0	
13	0	0	0	0	532	437	1021	0	0	0	
14	0	0	0	0	541	444	1021	0	0	0	
15	0	0	0	0	549	452	1021	0	0	0	
0	0	0	0	0	557	460	1021	0	0	0	
1	0	0	0	0	564	467	1020	0	0	0	
2	0	0	0	0	570	474	1021	0	0	0	
3	0	0	0	0	575	480	1021	0	0	0	
4	0	0	0	0	578	485	1021	0	0	0	
5	0	0	0	0	580	488	1021	0	0	0	
6	0	0	0	0	581	489	1021	0	0	0	
7	0	0	0	0	581	489	1021	0	0	0	
8	0	0	0	0	579	487	1021	0	0	0	
9	0	0	0	0	577	485	1021	0	0	0	
10	0	0	0	0	573	482	1021	0	0	0	
11	0	0	0	0	569	477	1021	0	0	0	
12	0	0	0	0	564	473	1021	0	0	0	
13	0	0	0	0	560	470	1021	0	0	0	
14	0	0	0	0	557	467	1021	0	0	0	
15	0	0	0	0	556	465	1021	0	0	0	
0	0	0	0	0	556	466	1021	0	0	0	
1	0	0	0	0	558	468	1021	0	0	0	
2	0	0	0	0	561	472	1021	0	0	0	
3	0	0	0	0	565	476	1021	0	0	0	
4	0	0	0	0	571	482	1021	0	0	0	
5	0	0	0	0	577	488	1021	0	0	0	
6	0	0	0	0	582	494	1021	0	0	0	
7	0	0	0	0	587	499	1021	0	0	0	
8	0	0	0	0	591	502	1021	0	0	0	
9	0	0	0	0	593	504	1021	0	0	0	
10	0	0	0	0	593	504	1021	0	0	0	
11	0	0	0	0	591	502	1021	0	0	0	
12	0	0	0	0	588	498	1021	0	0	0	
13	0	0	0	0	583	493	1021	0	0	0	
14	0	0	0	0	579	488	1021	0	0	0	
15	0	0	0	0	574	483	1021	0	0	0	
0	0	0	0	0	569	479	1021	0	0	0	
1	0	0	0	0	567	476	1021	0	0	0	
2	0	0	0	0	566	475	1021	0	0	0	
3	0	0	0	0	566	476	1021	0	0	0	
4	0	0	0	0	568	477	1021	0	0	0	
5	0	0	0	0	572	481	1021	0	0	0	
6	0	0	0	0	577	486	1021	0	0	0	
7	0	0	0	0	583	492	1021	0	0	0	
8	0	0	0	0	590	498	1021	0	0	0	
9	0	0	0	0	595	504	1021	0	0	0	
10	0	0	0	0	599	508	1021	0	0	0	
11	0	0	0	0	601	510	1021	0	0	0	
12	0	0	0	0	600	510	1021	0	0	0	
13	0	0	0	0	596	507	1021	0	0	0	
14	0	0	0	0	590	501	1021	0	0	0	
15	0	0	0	0	582	494	1021	0	0	0	
0	0	0	0	0	572	483	1021	0	0	0	
1	0	0	0	0	561	472	1021	0	0	0	
2	0	0	0	0	549	461	1021	0	0	0	
3	0	0	0	0	537	449	1021	0	0	0	
4	0	0	0	0	526	439	1021	0	0	0	
5	0	0	0	0	517	430	1021	0	0	0	
6	0	0	0	0	510	423	1021	0	0	0	
7	0	0	0	0	506	420	1021	0	0	0	
8	0	0	0	0	504	419	1021	0	0	0	
9	0	0	0	0	506	421	1021	0	0	0	
10	0	0	0	0	510	426	1021	0	0	0	
11	0	0	0	0	517	433	1021	0	0	0	
12	0	0	0	0	526	442	1021	0	0	0	
13	0	0	0	0	536	451	1021	0	0	0	
14	0	0	0	0	547	461	1021	0	0	0	
15	0	0	0	0	558	470	1021	0	0	0	
0	0	0	0	0	568	478	1021	0	0	0	
1	0	0	0	0	577	484	1021	0	0	0	
2	0	0	0	0	585	490	1021	0	0	0	
3	0	0	0	0	591	493	1021	0	0	0	
4	0	0	0	0	593	494	1021	0	0	0	
5	0	0	0	0	595	493	1021	0	0	0	
6	0	0	0	0	593	491	1021	0	0	0	
7	0	0	0	0	589	487	1021	0	0	0	
8	0	0	0	0	583	481	1021	0	0	0	
9	0	0	0	0	576	476	1021	0	0	0	
10	0	0	0	0	569	470	1021	0	0	0	
11	0	0	0	0	561	464	1021	0	0	0	
12	0	0	0	0	555	460	1021	0	0	0	
13	0	0	0	0	548	456	1021	0	0	0	
14	0	0	0	0	544	455	1021	0	0	0	
15	0	0	0	0	542	455	1021	0	0	0	
0	0	0	0	0	542	458	1021	0	0	0	
1	0	0	0	0	544	461	1021	0	0	0	
2	0	0	0	0	547	465	1021	0	0	0	
3	0	0	0	0	551	469	1021	0	0	0	
4	0	0	0	0	554	472	1021	0	0	0	
5	0	0	0	0	556	473	1021	0	0	0	
6	0	0	0	0	557	472	1021	0	0	0	
7	0	0	0	0	556	470	1021	0	0	0	
8	0	0	0	0	556	467	1021	0	0	0	
9	0	0	0	0	554	463	1021	0	0	0	
10	0	0	0	0	552	459	1021	0	0	0	
11	0	0	0	0	551	455	1021	0	0	0	
12	0	0	0	0	550	453	1021	0	0	0	
13	0	0	0	0	551	452	1021	0	0	0	
14	0	0	0	0	552	453	1021	0	0	0	
15	0	0	0	0	556	455	1021	0	0	0	
0	0	0	0	0	560	460	1021	0	0	0	
1	0	0	0	0	566	466	1021	0	0	0	
2	0	0	0	0	572	473	1021	0	0	0	
3	0	0	0	0	578	480	1021	0	0	0	
4	0	0	0	0	584	487	1021	0	0	0	
5	0	0	0	0	589	493	1021	0	0	0	
6	0	0	0	0	592	498	1021	0	0	0	
7	0	0	0	0	593	501	1021	0	0	0	
8	0	0	0	0	593	502	1021	0	0	0	
9	0	0	0	0	590	500	1021	0	0	0	
10	0	0	0	0	585	497	1021	0	0	0	
11	0	0	0	0	579	492	1021	0	0	0	
12	0	0	0	0	573	486	1021	0	0	0	
13	0	0	0	0	566	480	1021	0	0	0	
14	0	0	0	0	560	473	1021	0	0	0	
15	0	0	0	0	554	467	1021	0	0	0	
0	0	0	0	0	550	462	1021	0	0	0	
1	0	0	0	0	548	457	1021	0	0	0	
2	0	0	0	0	547	455	1021	0	0	0	
3	0	0	0	0	547	453	1021	0	0	0	
4	0	0	0	0	549	453	1021	0	0	0	
5	0	0	0	0	551	455	1021	0	0	0	
6	0	0	0	0	554	456	1021	0	0	0	
7	0	0	0	0	556	459	1021	0	0	0	
8	0	0	0	0	558	460	1021	0	0	0	
9	0	0	0	0	560	462	1021	0	0	0	
10	0	0	0	0	560	463	1021	0	0	0	
11	0	0	0	0	560	464	1021	0	0	0	
12	0	0	0	0	559	463	1021	0	0	0	
13	0	0	0	0	558	463	1021	0	0	0	
14	0	0	0	0	557	463	1021	0	0	0	
15	0	0	0	0	556	462	1021	0	0	0	
0	0	0	0	0	556	460	1021	0	0	0	
1	0	0	0	0	555	459	1021	0	0	0	
2	0	0	0	0	555	457	1021	0	0	0	
3	0	0	0	0	555	457	1021	0	0	0	
4	0	0	0	0	556	457	1021	0	0	0	
5	0	0	0	0	558	458	1021	0	0	0	
6	0	0	0	0	560	461	1021	0	0	0	
7	0	0	0	0	564	464	1021	0	0	0	
8	0	0	0	0	568	468	1021	0	0	0	
9	0	0	0	0	572	474	1021	0	0	0	
10	0	0	0	0	576	479	1021	0	0	0	
11	0	0	0	0	580	484	1021	0	0	0	
12	0	0	0	0	583	488	1021	0	0	0	
13	0	0	0	0	583	489	1021	0	0	0	
14	0	0	0	0	581	489	1021	0	0	0	
15	0	0	0	0	577	486	1021	0	0	0	
0	0	0	0	0	571	480	1021	0	0	0	
1	0	0	0	0	563	473	1021	0	0	0	
2	0	0	0	0	553	464	1021	0	0	0	
3	0	0	0	0	544	455	1021	0	0	0	
4	0	0	0	0	536	446	1021	0	0	0	
5	0	0	0	0	528	438	1021	0	0	0	
6	0	0	0	0	523	432	1021	0	0	0	
7	0	0	0	0	519	427	1021	0	0	0	
8	0	0	0	0	519	424	1021	0	0	0	
9	0	0	0	0	521	424	1021	0	0	0	
10	0	0	0	0	525	427	1021	0	0	0	
11	0	0	0	0	531	431	1021	0	0	0	
12	0	0	0	0	538	437	1021	0	0	0	
13	0	0	0	0	545	443	1021	0	0	0	
14	0	0	0	0	552	451	1021	0	0	0	
15	0	0	0	0	559	458	1021	0	0	0	
0	0	0	0	0	566	465	1021	0	0	0	
1	0	0	0	0	571	471	1021	0	0	0	
2	0	0	0	0	574	476	1021	0	0	0	
3	0	0	0	0	575	479	1021	0	0	0	
4	0	0	0	0	576	481	1021	0	0	0	
5	0	0	0	0	575	482	1021	0	0	0	
6	0	0	0	0	574	481	1021	0	0	0	
7	0	0	0	0	572	480	1021	0	0	0	
8	0	0	0	0	571	478	1021	0	0	0	
9	0	0	0	0	568	475	1021	0	0	0	
10	0	0	0	0	567	472	1021	0	0	0	
11	0	0	0	0	565	470	1021	0	0	0	
12	0	0	0	0	563	467	1021	0	0	0	
13	0	0	0	0	562	465	1021	0	0	0	
14	0	0	0	0	561	463	1021	0	0	0	
15	0	0	0	0	562	463	1021	0	0	0	
0	0	0	0	0	563	465	1021	0	0	0	
1	0	0	0	0	566	468	1021	0	0	0	
2	0	0	0	0	569	473	1021	0	0	0	
3	0	0	0	0	574	479	1021	0	0	0	
4	0	0	0	0	578	485	1021	0	0	0	
5	0	0	0	0	583	491	1021	0	0	0	
6	0	0	0	0	586	496	1021	0	0	0	
7	0	0	0	0	587	499	1021	0	0	0	
8	0	0	0	0	587	499	1021	0	0	0	
9	0	0	0	0	583	496	1021	0	0	0	
10	0	0	0	0	577	491	1021	0	0	0	
11	0	0	0	0	569	483	1021	0	0	0	
12	0	0	0	0	560	475	1021	0	0	0	
13	0	0	0	0	551	466	1021	0	0	0	
14	0	0	0	0	543	458	1021	0	0	0	
15	0	0	0	0	536	451	1021	0	0	0	
0	0	0	0	0	532	447	1021	0	0	0	
1	0	0	0	0	531	445	1021	0	0	0	
2	0	0	0	0	534	447	1021	0	0	0	
3	0	0	0	0	538	450	1021	0	0	0	
4	0	0	0	0	545	455	1021	0	0	0	
5	0	0	0	0	552	462	1021	0	0	0	
6	0	0	0	0	561	469	1021	0	0	0	
7	0	0	0	0	568	476	1021	0	0	0	
8	0	0	0	0	574	482	1021	0	0	0	
9	0	0	0	0	577	486	1021	0	0	0	
10	0	0	0	0	579	489	1021	0	0	0	
11	0	0	0	0	579	490	1021	0	0	0	
12	0	0	0	0	579	491	1021	0	0	0	
13	0	0	0	0	576	489	1021	0	0	0	
14	0	0	0	0	573	487	1021	0	0	0	
15	0	0	0	0	569	483	1021	0	0	0	
0	0	0	0	0	564	479	1021	0	0	0	
1	0	0	0	0	558	472	1021	0	0	0	
2	0	0	0	0	550	464	1021	0	0	0	
3	0	0	0	0	541	454	1021	0	0	0	
4	0	0	0	0	532	444	1021	0	0	0	
5	0	0	0	0	523	435	1021	0	0	0	
6	0	0	0	0	515	426	1021	0	0	0	
7	0	0	0	0	510	419	1021	0	0	0	
8	0	0	0	0	505	415	1021	0	0	0	
9	0	0	0	0	503	412	1021	0	0	0	
10	0	0	0	0	503	412	1021	0	0	0	
11	0	0	0	0	504	414	1021	0	0	0	
12	0	0	0	0	508	417	1021	0	0	0	
13	0	0	0	0	513	423	1021	0	0	0	
14	0	0	0	0	519	430	1021	0	0	0	
15	0	0	0	0	526	437	1021	0	0	0	
0	0	0	0	0	534	445	1021	0	0	0	
1	0	0	0	0	541	451	1021	0	0	0	
2	0	0	0	0	547	457	1021	0	0	0	
3	0	0	0	0	551	461	1021	0	0	0	
4	0	0	0	0	555	464	1021	0	0	0	
5	0	0	0	0	557	464	1021	0	0	0	
6	0	0	0	0	557	464	1021	0	0	0	
7	0	0	0	0	555	461	1021	0	0	0	
8	0	0	0	0	553	458	1021	0	0	0	
9	0	0	0	0	550	455	1021	0	0	0	
10	0	0	0	0	547	451	1021	0	0	0	
11	0	0	0	0	544	448	1021	0	0	0	
12	0	0	0	0	542	446	1021	0	0	0	
13	0	0	0	0	540	444	1021	0	0	0	
14	0	0	0	0	539	443	1021	0	0	0	
15	0	0	0	0	538	443	1021	0	0	0	
0	0	0	0	0	538	443	1021	0	0	0	
1	0	0	0	0	540	445	1021	0	0	0	
2	0	0	0	0	542	448	1021	0	0	0	
3	0	0	0	0	545	451	1021	0	0	0	
4	0	0	0	0	549	455	1021	0	0	0	
5	0	0	0	0	555	461	1021	0	0	0	
6	0	0	0	0	560	466	1021	0	0	0	
7	0	0	0	0	566	471	1021	0	0	0	
8	0	0	0	0	572	475	1021	0	0	0	
9	0	0	0	0	576	479	1021	0	0	0	
10	0	0	0	0	579	481	1021	0	0	0	
11	0	0	0	0	579	481	1021	0	0	0	
12	0	0	0	0	578	480	1021	0	0	0	
13	0	0	0	0	575	478	1021	0	0	0	
14	0	0	0	0	571	475	1021	0	0	0	
15	0	0	0	0	567	472	1021	0	0	0	
0	0	0	0	0	563	470	1021	0	0	0	
1	0	0	0	0	560	469	1021	0	0	0	
2	0	0	0	0	560	470	1021	0	0	0	
3	0	0	0	0	560	471	1021	0	0	0	
4	0	0	0	0	561	472	1021	0	0	0	
5	0	0	0	0	563	473	1021	0	0	0	
6	0	0	0	0	564	475	1021	0	0	0	
7	0	0	0	0	567	476	1021	0	0	0	
8	0	0	0	0	568	477	1021	0	0	0	
9	0	0	0	0	568	476	1021	0	0	0	
10	0	0	0	0	567	474	1021	0	0	0	
11	0	0	0	0	565	472	1021	0	0	0	
12	0	0	0	0	562	468	1021	0	0	0	
13	0	0	0	0	558	464	1021	0	0	0	
14	0	0	0	0	553	460	1021	0	0	0	
15	0	0	0	0	547	455	1021	0	0	0	
0	0	0	0	0	542	450	1021	0	0	0	
1	0	0	0	0	538	447	1021	0	0	0	
2	0	0	0	0	535	444	1021	0	0	0	
3	0	0	0	0	533	444	1021	0	0	0	
4	0	0	0	0	533	444	1021	0	0	0	
5	0	0	0	0	534	446	1021	0	0	0	
6	0	0	0	0	536	449	1021	0	0	0	
7	0	0	0	0	539	452	1021	0	0	0	
8	0	0	0	0	542	455	1021	0	0	0	
9	0	0	0	0	545	459	1021	0	0	0	
10	0	0	0	0	547	461	1021	0	0	0	
11	0	0	0	0	549	463	1021	0	0	0	
12	0	0	0	0	549	463	1021	0	0	0	
13	0	0	0	0	548	462	1021	0	0	0	
14	0	0	0	0	546	459	1021	0	0	0	
15	0	0	0	0	543	456	1021	0	0	0	
0	0	0	0	0	540	452	1021	0	0	0	
1	0	0	0	0	536	448	1021	0	0	0	
2	0	0	0	0	533	444	1021	0	0	0	
3	0	0	0	0	531	441	1021	0	0	0	
4	0	0	0	0	530	439	1021	0	0	0	
5	0	0	0	0	531	439	1021	0	0	0	
6	0	0	0	0	534	441	1021	0	0	0	
7	0	0	0	0	537	445	1021	0	0	0	
8	0	0	0	0	542	449	1021	0	0	0	
9	0	0	0	0	547	455	1021	0	0	0	
10	0	0	0	0	553	460	1021	0	0	0	
11	0	0	0	0	558	464	1021	0	0	0	
12	0	0	0	0	561	468	1021	0	0	0	
13	0	0	0	0	563	470	1021	0	0	0	
14	0	0	0	0	563	471	1021	0	0	0	
15	0	0	0	0	561	470	1021	0	0	0	
0	0	0	0	0	559	468	1021	0	0	0	
1	0	0	0	0	556	465	1021	0	0	0	
2	0	0	0	0	551	462	1021	0	0	0	
3	0	0	0	0	547	458	1021	0	0	0	
4	0	0	0	0	543	455	1021	0	0	0	
5	0	0	0	0	541	451	1021	0	0	0	
6	0	0	0	0	539	449	1021	0	0	0	
7	0	0	0	0	539	448	1021	0	0	0	
8	0	0	0	0	540	448	1021	0	0	0	
9	0	0	0	0	542	448	1021	0	0	0	
10	0	0	0	0	543	449	1021	0	0	0	
11	0	0	0	0	546	450	1021	0	0	0	
12	0	0	0	0	549	452	1021	0	0	0	
13	0	0	0	0	552	456	1021	0	0	0	
14	0	0	0	0	556	459	1021	0	0	0	
15	0	0	0	0	560	463	1021	0	0	0	
0	0	0	0	0	561	465	1021	0	0	0	
1	0	0	0	0	562	466	1021	0	0	0	
2	0	0	0	0	559	465	1021	0	0	0	
3	0	0	0	0	555	462	1021	0	0	0	
4	0	0	0	0	547	456	1021	0	0	0	
5	0	0	0	0	536	448	1021	0	0	0	
6	0	0	0	0	523	435	1021	0	0	0	
7	0	0	0	0	506	421	1021	0	0	0	
8	0	0	0	0	488	404	1021	0	0	0	
9	0	0	0	0	469	386	1021	0	0	0	
10	0	0	0	0	448	367	1021	0	0	0	
11	0	0	0	0	429	347	1021	0	0	0	
12	0	0	0	0	409	328	1021	0	0	0	
13	0	0	0	0	391	310	1021	0	0	0	
14	0	0	0	0	374	294	1021	0	0	0	
15	0	0	0	0	359	279	1021	0	0	0	
0	0	0	0	0	347	265	1021	0	0	0	
1	0	0	0	0	336	255	1021	0	0	0	
2	0	0	0	0	328	247	1021	0	0	0	
3	0	0	0	0	323	241	1021	0	0	0	
4	0	0	0	0	320	238	1021	0	0	0	
5	0	0	0	0	320	236	1021	0	0	0	
6	0	0	0	0	322	237	1021	0	0	0	
7	0	0	0	0	327	240	1021	0	0	0	
8	0	0	0	0	334	246	1021	0	0	0	
9	0	0	0	0	343	253	1021	0	0	0	
10	0	0	0	0	354	262	1021	0	0	0	
11	0	0	0	0	367	273	1021	0	0	0	
12	0	0	0	0	384	287	1021	0	0	0	
13	0	0	0	0	403	303	1021	0	0	0	
14	0	0	0	0	423	320	1021	0	0	0	
15	0	0	0	0	446	340	1021	0	0	0	
0	0	0	0	0	469	360	1021	0	0	0	
1	0	0	0	0	492	380	1021	0	0	0	
2	0	0	0	0	513	401	1021	0	0	0	
3	0	0	0	0	533	420	1021	0	0	0	
4	0	0	0	0	551	439	1021	0	0	0	
5	0	0	0	0	566	455	1021	0	0	0	
6	0	0	0	0	579	471	1021	0	0	0	
7	0	0	0	0	588	483	1021	0	0	0	
8	0	0	0	0	595	493	1021	0	0	0	
9	0	0	0	0	599	501	1021	0	0	0	
10	0	0	0	0	600	507	1021	0	0	0	
11	0	0	0	0	600	510	1021	0	0	0	
12	0	0	0	0	598	510	1021	0	0	0	
13	0	0	0	0	593	508	1021	0	0	0	
14	0	0	0	0	588	504	1021	0	0	0	
15	0	0	0	0	579	496	1021	0	0	0	
0	0	0	0	0	570	486	1021	0	0	0	
1	0	0	0	0	559	473	1021	0	0	0	
2	0	0	0	0	548	462	1021	0	0	0	
3	0	0	0	0	537	449	1021	0	0	0	
4	0	0	0	0	528	438	1021	0	0	0	
5	0	0	0	0	521	430	1021	0	0	0	
6	0	0	0	0	517	424	1021	0	0	0	
7	0	0	0	0	515	422	1021	0	0	0	
8	0	0	0	0	516	422	1021	0	0	0	
9	0	0	0	0	519	425	1021	0	0	0	
10	0	0	0	0	527	432	1021	0	0	0	
11	0	0	0	0	535	440	1021	0	0	0	
12	0	0	0	0	546	451	1021	0	0	0	
13	0	0	0	0	558	464	1021	0	0	0	
14	0	0	0	0	571	477	1021	0	0	0	
15	0	0	0	0	585	491	1021	0	0	0	
0	0	0	0	0	599	504	1021	0	0	0	
1	0	0	0	0	612	517	1021	0	0	0	
2	0	0	0	0	624	527	1021	0	0	0	
3	0	0	0	0	632	535	1021	0	0	0	
4	0	0	0	0	638	539	1021	0	0	0	
5	0	0	0	0	639	539	1021	0	0	0	
6	0	0	0	0	635	535	1021	0	0	0	
7	0	0	0	0	627	527	1021	0	0	0	
8	0	0	0	0	616	517	1021	0	0	0	
9	0	0	0	0	603	504	1021	0	0	0	
10	0	0	0	0	588	492	1021	0	0	0	
11	0	0	0	0	573	481	1021	0	0	0	
12	0	0	0	0	561	472	1021	0	0	0	
13	0	0	0	0	551	466	1021	0	0	0	
14	0	0	0	0	546	463	1021	0	0	0	
15	0	0	0	0	544	463	1021	0	0	0	
0	0	0	0	0	544	465	1021	0	0	0	
1	0	0	0	0	547	467	1021	0	0	0	
2	0	0	0	0	550	470	1021	0	0	0	
3	0	0	0	0	554	472	1021	0	0	0	
4	0	0	0	0	558	473	1021	0	0	0	
5	0	0	0	0	560	473	1021	0	0	0	
6	0	0	0	0	561	471	1021	0	0	0	
7	0	0	0	0	560	467	1021	0	0	0	
8	0	0	0	0	559	463	1021	0	0	0	
9	0	0	0	0	556	458	1021	0	0	0	
10	0	0	0	0	553	453	1021	0	0	0	
11	0	0	0	0	549	449	1021	0	0	0	
12	0	0	0	0	546	445	1021	0	0	0	
13	0	0	0	0	544	443	1021	0	0	0	
14	0	0	0	0	543	443	1021	0	0	0	
15	0	0	0	0	543	444	1021	0	0	0	
0	0	0	0	0	544	447	1021	0	0	0	
1	0	0	0	0	547	451	1021	0	0	0	
2	0	0	0	0	551	457	1021	0	0	0	
3	0	0	0	0	555	463	1021	0	0	0	
4	0	0	0	0	560	469	1021	0	0	0	
5	0	0	0	0	565	476	1021	0	0	0	
6	0	0	0	0	569	480	1021	0	0	0	
7	0	0	0	0	574	485	1021	0	0	0	
8	0	0	0	0	576	487	1021	0	0	0	
9	0	0	0	0	578	488	1021	0	0	0	
10	0	0	0	0	579	488	1021	0	0	0	
11	0	0	0	0	577	486	1021	0	0	0	
12	0	0	0	0	574	482	1021	0	0	0	
13	0	0	0	0	571	478	1021	0	0	0	
14	0	0	0	0	566	473	1021	0	0	0	
15	0	0	0	0	561	467	1021	0	0	0	
0	0	0	0	0	556	462	1021	0	0	0	
1	0	0	0	0	550	457	1021	0	0	0	
2	0	0	0	0	545	453	1021	0	0	0	
3	0	0	0	0	542	450	1021	0	0	0	
4	0	0	0	0	539	448	1021	0	0	0	
5	0	0	0	0	539	448	1021	0	0	0	
6	0	0	0	0	539	451	1021	0	0	0	
7	0	0	0	0	542	454	1021	0	0	0	
8	0	0	0	0	545	458	1021	0	0	0	
9	0	0	0	0	550	463	1021	0	0	0	
10	0	0	0	0	555	468	1021	0	0	0	
11	0	0	0	0	560	473	1021	0	0	0	
12	0	0	0	0	566	479	1021	0	0	0	
13	0	0	0	0	570	482	1021	0	0	0	
14	0	0	0	0	573	485	1021	0	0	0	
15	0	0	0	0	575	487	1021	0	0	0	
0	0	0	0	0	577	487	1021	0	0	0	
1	0	0	0	0	578	487	1021	0	0	0	
2	0	0	0	0	577	487	1021	0	0	0	
3	0	0	0	0	577	486	1021	0	0	0	
4	0	0	0	0	577	486	1021	0	0	0	
5	0	0	0	0	579	487	1021	0	0	0	
6	0	0	0	0	580	488	1021	0	0	0	
7	0	0	0	0	581	489	1021	0	0	0	
8	0	0	0	0	581	489	1021	0	0	0	
9	0	0	0	0	579	488	1021	0	0	0	
10	0	0	0	0	576	486	1021	0	0	0	
11	0	0	0	0	572	484	1021	0	0	0	
12	0	0	0	0	567	480	1021	0	0	0	
13	0	0	0	0	561	477	1021	0	0	0	
14	0	0	0	0	556	473	1021	0	0	0	
15	0	0	0	0	551	470	1021	0	0	0	
0	0	0	0	0	548	467	1021	0	0	0	
1	0	0	0	0	545	465	1021	0	0	0	
2	0	0	0	0	545	464	1021	0	0	0	
3	0	0	0	0	545	464	1021	0	0	0	
4	0	0	0	0	547	464	1021	0	0	0	
5	0	0	0	0	550	465	1021	0	0	0	
6	0	0	0	0	553	465	1021	0	0	0	
7	0	0	0	0	555	465	1021	0	0	0	
8	0	0	0	0	557	465	1021	0	0	0	
9	0	0	0	0	558	464	1021	0	0	0	
10	0	0	0	0	558	464	1021	0	0	0	
11	0	0	0	0	558	463	1021	0	0	0	
12	0	0	0	0	556	462	1021	0	0	0	
13	0	0	0	0	554	460	1021	0	0	0	
14	0	0	0	0	551	459	1021	0	0	0	
15	0	0	0	0	548	457	1021	0	0	0	
0	0	0	0	0	545	455	1021	0	0	0	
1	0	0	0	0	542	454	1021	0	0	0	
2	0	0	0	0	538	452	1021	0	0	0	
3	0	0	0	0	536	451	1021	0	0	0	
4	0	0	0	0	534	451	1021	0	0	0	
5	0	0	0	0	533	451	1021	0	0	0	
6	0	0	0	0	534	451	1021	0	0	0	
7	0	0	0	0	535	451	1021	0	0	0	
8	0	0	0	0	537	452	1021	0	0	0	
9	0	0	0	0	540	454	1021	0	0	0	
10	0	0	0	0	545	456	1021	0	0	0	
11	0	0	0	0	549	458	1021	0	0	0	
12	0	0	0	0	554	461	1021	0	0	0	
13	0	0	0	0	558	463	1021	0	0	0	
14	0	0	0	0	562	465	1021	0	0	0	
15	0	0	0	0	565	467	1021	0	0	0	
0	0	0	0	0	567	468	1021	0	0	0	
1	0	0	0	0	568	469	1021	0	0	0	
2	0	0	0	0	568	471	1021	0	0	0	
3	0	0	0	0	567	471	1021	0	0	0	
4	0	0	0	0	566	472	1021	0	0	0	
5	0	0	0	0	563	471	1021	0	0	0	
6	0	0	0	0	559	470	1021	0	0	0	
7	0	0	0	0	555	468	1021	0	0	0	
8	0	0	0	0	550	465	1021	0	0	0	
9	0	0	0	0	545	461	1021	0	0	0	
10	0	0	0	0	540	457	1021	0	0	0	
11	0	0	0	0	535	453	1021	0	0	0	
12	0	0	0	0	531	449	1021	0	0	0	
13	0	0	0	0	529	447	1021	0	0	0	
14	0	0	0	0	529	445	1021	0	0	0	
15	0	0	0	0	530	444	1021	0	0	0	
0	0	0	0	0	533	445	1021	0	0	0	
1	0	0	0	0	537	448	1021	0	0	0	
2	0	0	0	0	543	451	1021	0	0	0	
3	0	0	0	0	550	456	1021	0	0	0	
4	0	0	0	0	557	462	1021	0	0	0	
5	0	0	0	0	564	468	1021	0	0	0	
6	0	0	0	0	570	474	1021	0	0	0	
7	0	0	0	0	575	480	1021	0	0	0	
8	0	0	0	0	579	485	1021	0	0	0	
9	0	0	0	0	581	489	1021	0	0	0	
10	0	0	0	0	581	491	1021	0	0	0	
11	0	0	0	0	579	491	1021	0	0	0	
12	0	0	0	0	575	490	1021	0	0	0	
13	0	0	0	0	570	486	1021	0	0	0	
14	0	0	0	0	563	480	1021	0	0	0	
15	0	0	0	0	557	475	1021	0	0	0	
0	0	0	0	0	551	469	1021	0	0	0	
1	0	0	0	0	547	464	1021	0	0	0	
2	0	0	0	0	545	462	1021	0	0	0	
3	0	0	0	0	545	460	1021	0	0	0	
4	0	0	0	0	547	460	1021	0	0	0	
5	0	0	0	0	552	463	1021	0	0	0	
6	0	0	0	0	560	467	1021	0	0	0	
7	0	0	0	0	568	473	1021	0	0	0	
8	0	0	0	0	576	480	1021	0	0	0	
9	0	0	0	0	583	485	1021	0	0	0	
10	0	0	0	0	588	489	1021	0	0	0	
11	0	0	0	0	590	491	1021	0	0	0	
12	0	0	0	0	589	490	1021	0	0	0	
13	0	0	0	0	585	487	1021	0	0	0	
14	0	0	0	0	578	483	1021	0	0	0	
15	0	0	0	0	570	477	1021	0	0	0	
0	0	0	0	0	560	471	1021	0	0	0	
1	0	0	0	0	551	463	1021	0	0	0	
2	0	0	0	0	542	456	1021	0	0	0	
3	0	0	0	0	533	449	1021	0	0	0	
4	0	0	0	0	527	444	1021	0	0	0	
5	0	0	0	0	524	440	1021	0	0	0	
6	0	0	0	0	523	439	1021	0	0	0	
7	0	0	0	0	526	439	1021	0	0	0	
8	0	0	0	0	531	442	1021	0	0	0	
9	0	0	0	0	539	447	1021	0	0	0	
10	0	0	0	0	549	454	1021	0	0	0	
11	0	0	0	0	561	463	1021	0	0	0	
12	0	0	0	0	572	472	1021	0	0	0	
13	0	0	0	0	583	481	1020	0	0	0	
14	0	0	0	0	592	490	1021	0	0	0	
15	0	0	0	0	600	497	1021	0	0	0	
0	0	0	0	0	604	502	1021	0	0	0	
1	0	0	0	0	605	504	1021	0	0	0	
2	0	0	0	0	601	504	1021	0	0	0	
3	0	0	0	0	595	500	1021	0	0	0	
4	0	0	0	0	585	493	1021	0	0	0	
5	0	0	0	0	573	484	1021	0	0	0	
6	0	0	0	0	560	474	1021	0	0	0	
7	0	0	0	0	546	462	1021	0	0	0	
8	0	0	0	0	532	451	1021	0	0	0	
9	0	0	0	0	521	440	1021	0	0	0	
10	0	0	0	0	511	431	1021	0	0	0	
11	0	0	0	0	505	423	1021	0	0	0	
12	0	0	0	0	502	417	1021	0	0	0	
13	0	0	0	0	501	415	1021	0	0	0	
14	0	0	0	0	503	415	1021	0	0	0	
15	0	0	0	0	508	416	1021	0	0	0	
0	0	0	0	0	514	420	1021	0	0	0	
1	0	0	0	0	521	425	1021	0	0	0	
2	0	0	0	0	529	432	1021	0	0	0	
3	0	0	0	0	538	439	1021	0	0	0	
4	0	0	0	0	545	446	1021	0	0	0	
5	0	0	0	0	552	452	1021	0	0	0	
6	0	0	0	0	558	458	1021	0	0	0	
7	0	0	0	0	562	463	1021	0	0	0	
8	0	0	0	0	565	467	1021	0	0	0	
9	0	0	0	0	567	470	1021	0	0	0	
10	0	0	0	0	568	471	1021	0	0	0	
11	0	0	0	0	568	472	1021	0	0	0	
12	0	0	0	0	567	472	1021	0	0	0	
13	0	0	0	0	567	472	1021	0	0	0	
14	0	0	0	0	567	472	1021	0	0	0	
15	0	0	0	0	567	472	1021	0	0	0	
0	0	0	0	0	568	472	1021	0	0	0	
1	0	0	0	0	569	473	1021	0	0	0	
2	0	0	0	0	572	474	1021	0	0	0	
3	0	0	0	0	575	476	1021	0	0	0	
4	0	0	0	0	578	479	1021	0	0	0	
5	0	0	0	0	580	482	1021	0	0	0	
6	0	0	0	0	583	486	1021	0	0	0	
7	0	0	0	0	583	488	1021	0	0	0	
8	0	0	0	0	583	488	1021	0	0	0	
9	0	0	0	0	580	488	1020	0	0	0	
10	0	0	0	0	575	486	1021	0	0	0	
11	0	0	0	0	569	482	1021	0	0	0	
12	0	0	0	0	561	476	1021	0	0	0	
13	0	0	0	0	551	468	1021	0	0	0	
14	0	0	0	0	541	460	1021	0	0	0	
15	0	0	0	0	532	451	1021	0	0	0	
0	0	0	0	0	524	443	1021	0	0	0	
1	0	0	0	0	518	436	1021	0	0	0	
2	0	0	0	0	513	431	1021	0	0	0	
3	0	0	0	0	512	427	1021	0	0	0	
4	0	0	0	0	512	425	1021	0	0	0	
5	0	0	0	0	515	425	1021	0	0	0	
6	0	0	0	0	520	428	1021	0	0	0	
7	0	0	0	0	527	431	1021	0	0	0	
8	0	0	0	0	534	436	1021	0	0	0	
9	0	0	0	0	542	443	1021	0	0	0	
10	0	0	0	0	550	451	1021	0	0	0	
11	0	0	0	0	558	459	1021	0	0	0	
12	0	0	0	0	565	466	1021	0	0	0	
13	0	0	0	0	572	474	1021	0	0	0	
14	0	0	0	0	577	481	1021	0	0	0	
15	0	0	0	0	581	486	1021	0	0	0	
0	0	0	0	0	583	489	1021	0	0	0	
1	0	0	0	0	583	491	1021	0	0	0	
2	0	0	0	0	582	489	1021	0	0	0	
3	0	0	0	0	577	485	1021	0	0	0	
4	0	0	0	0	571	479	1021	0	0	0	
5	0	0	0	0	562	471	1021	0	0	0	
6	0	0	0	0	553	462	1021	0	0	0	
7	0	0	0	0	543	452	1021	0	0	0	
8	0	0	0	0	534	444	1021	0	0	0	
9	0	0	0	0	526	437	1021	0	0	0	
10	0	0	0	0	521	432	1021	0	0	0	
11	0	0	0	0	518	430	1021	0	0	0	
12	0	0	0	0	518	430	1021	0	0	0	
13	0	0	0	0	521	433	1021	0	0	0	
14	0	0	0	0	526	439	1021	0	0	0	
15	0	0	0	0	534	447	1021	0	0	0	
0	0	0	0	0	543	456	1021	0	0	0	
1	0	0	0	0	553	466	1021	0	0	0	
2	0	0	0	0	563	476	1021	0	0	0	
3	0	0	0	0	574	486	1021	0	0	0	
4	0	0	0	0	582	494	1021	0	0	0	
5	0	0	0	0	587	499	1021	0	0	0	
6	0	0	0	0	590	500	1021	0	0	0	
7	0	0	0	0	589	499	1021	0	0	0	
8	0	0	0	0	586	494	1021	0	0	0	
9	0	0	0	0	580	488	1021	0	0	0	
10	0	0	0	0	572	479	1021	0	0	0	
11	0	0	0	0	562	470	1021	0	0	0	
12	0	0	0	0	552	461	1021	0	0	0	
13	0	0	0	0	543	453	1021	0	0	0	
14	0	0	0	0	535	446	1021	0	0	0	
15	0	0	0	0	528	441	1021	0	0	0	
0	0	0	0	0	523	436	1021	0	0	0	
1	0	0	0	0	519	434	1021	0	0	0	
2	0	0	0	0	518	433	1021	0	0	0	
3	0	0	0	0	517	433	1021	0	0	0	
4	0	0	0	0	518	434	1021	0	0	0	
5	0	0	0	0	520	435	1021	0	0	0	
6	0	0	0	0	523	437	1021	0	0	0	
7	0	0	0	0	527	440	1021	0	0	0	
8	0	0	0	0	531	443	1021	0	0	0	
9	0	0	0	0	535	446	1021	0	0	0	
10	0	0	0	0	539	448	1021	0	0	0	
11	0	0	0	0	543	450	1021	0	0	0	
12	0	0	0	0	547	453	1021	0	0	0	
13	0	0	0	0	551	456	1021	0	0	0	
14	0	0	0	0	555	459	1021	0	0	0	
15	0	0	0	0	559	462	1021	0	0	0	
0	0	0	0	0	563	465	1021	0	0	0	
1	0	0	0	0	567	468	1021	0	0	0	
2	0	0	0	0	571	472	1021	0	0	0	
3	0	0	0	0	575	476	1021	0	0	0	
4	0	0	0	0	577	480	1021	0	0	0	
5	0	0	0	0	579	483	1021	0	0	0	
6	0	0	0	0	581	486	1021	0	0	0	
7	0	0	0	0	582	487	1021	0	0	0	
8	0	0	0	0	580	488	1021	0	0	0	
9	0	0	0	0	576	486	1021	0	0	0	
10	0	0	0	0	570	483	1021	0	0	0	
11	0	0	0	0	563	477	1021	0	0	0	
12	0	0	0	0	554	470	1021	0	0	0	
13	0	0	0	0	544	462	1021	0	0	0	
14	0	0	0	0	535	453	1021	0	0	0	
15	0	0	0	0	526	445	1021	0	0	0	
0	0	0	0	0	519	437	1021	0	0	0	
1	0	0	0	0	513	430	1021	0	0	0	
2	0	0	0	0	510	424	1021	0	0	0	
3	0	0	0	0	508	421	1021	0	0	0	
4	0	0	0	0	508	419	1021	0	0	0	
5	0	0	0	0	511	419	1021	0	0	0	
6	0	0	0	0	515	421	1021	0	0	0	
7	0	0	0	0	521	425	1021	0	0	0	
8	0	0	0	0	528	431	1021	0	0	0	
9	0	0	0	0	536	439	1021	0	0	0	
10	0	0	0	0	544	446	1021	0	0	0	
11	0	0	0	0	551	454	1021	0	0	0	
12	0	0	0	0	557	461	1021	0	0	0	
13	0	0	0	0	562	467	1021	0	0	0	
14	0	0	0	0	565	471	1021	0	0	0	
15	0	0	0	0	567	474	1021	0	0	0	
0	0	0	0	0	568	476	1021	0	0	0	
1	0	0	0	0	567	475	1021	0	0	0	
2	0	0	0	0	565	473	1021	0	0	0	
3	0	0	0	0	562	471	1021	0	0	0	
4	0	0	0	0	559	467	1021	0	0	0	
5	0	0	0	0	555	462	1021	0	0	0	
6	0	0	0	0	550	456	1021	0	0	0	
7	0	0	0	0	544	450	1021	0	0	0	
8	0	0	0	0	539	444	1021	0	0	0	
9	0	0	0	0	534	439	1021	0	0	0	
10	0	0	0	0	528	434	1021	0	0	0	
11	0	0	0	0	524	431	1021	0	0	0	
12	0	0	0	0	521	428	1021	0	0	0	
13	0	0	0	0	518	426	1021	0	0	0	
14	0	0	0	0	516	425	1021	0	0	0	
15	0	0	0	0	515	426	1021	0	0	0	
0	0	0	0	0	514	427	1021	0	0	0	
1	0	0	0	0	514	428	1020	0	0	0	
2	0	0	0	0	515	431	1021	0	0	0	
3	0	0	0	0	517	433	1021	0	0	0	
4	0	0	0	0	520	437	1021	0	0	0	
5	0	0	0	0	523	441	1021	0	0	0	
6	0	0	0	0	527	445	1021	0	0	0	
7	0	0	0	0	532	450	1021	0	0	0	
8	0	0	0	0	539	454	1021	0	0	0	
9	0	0	0	0	544	457	1021	0	0	0	
10	0	0	0	0	550	460	1021	0	0	0	
11	0	0	0	0	555	462	1021	0	0	0	
12	0	0	0	0	557	462	1021	0	0	0	
13	0	0	0	0	560	461	1021	0	0	0	
14	0	0	0	0	561	460	1021	0	0	0	
15	0	0	0	0	562	460	1021	0	0	0	
0	0	0	0	0	563	460	1021	0	0	0	
1	0	0	0	0	563	461	1021	0	0	0	
2	0	0	0	0	563	463	1021	0	0	0	
3	0	0	0	0	562	464	1021	0	0	0	
4	0	0	0	0	560	466	1021	0	0	0	
5	0	0	0	0	558	466	1021	0	0	0	
6	0	0	0	0	554	467	1021	0	0	0	
7	0	0	0	0	551	466	1021	0	0	0	
8	0	0	0	0	547	464	1021	0	0	0	
9	0	0	0	0	542	462	1021	0	0	0	
10	0	0	0	0	538	458	1021	0	0	0	
11	0	0	0	0	534	454	1021	0	0	0	
12	0	0	0	0	531	449	1021	0	0	0	
13	0	0	0	0	529	445	1021	0	0	0	
14	0	0	0	0	527	440	1021	0	0	0	
15	0	0	0	0	527	436	1021	0	0	0	
0	0	0	0	0	527	434	1021	0	0	0	
1	0	0	0	0	528	432	1021	0	0	0	
2	0	0	0	0	530	431	1021	0	0	0	
3	0	0	0	0	531	431	1021	0	0	0	
4	0	0	0	0	532	431	1021	0	0	0	
5	0	0	0	0	533	432	1021	0	0	0	
6	0	0	0	0	535	435	1021	0	0	0	
7	0	0	0	0	537	439	1021	0	0	0	
8	0	0	0	0	540	443	1021	0	0	0	
9	0	0	0	0	542	447	1021	0	0	0	
10	0	0	0	0	545	452	1021	0	0	0	
11	0	0	0	0	546	455	1021	0	0	0	
12	0	0	0	0	547	457	1021	0	0	0	
13	0	0	0	0	545	457	1021	0	0	0	
14	0	0	0	0	543	455	1021	0	0	0	
15	0	0	0	0	539	452	1021	0	0	0	
0	0	0	0	0	536	449	1021	0	0	0	
1	0	0	0	0	534	445	1021	0	0	0	
2	0	0	0	0	532	443	1021	0	0	0	
3	0	0	0	0	532	441	1021	0	0	0	
4	0	0	0	0	533	439	1021	0	0	0	
5	0	0	0	0	535	438	1021	0	0	0	
6	0	0	0	0	537	438	1021	0	0	0	
7	0	0	0	0	539	438	1021	0	0	0	
8	0	0	0	0	540	439	1021	0	0	0	
9	0	0	0	0	540	439	1021	0	0	0	
10	0	0	0	0	541	440	1021	0	0	0	
11	0	0	0	0	540	440	1021	0	0	0	
12	0	0	0	0	539	440	1021	0	0	0	
13	0	0	0	0	537	441	1021	0	0	0	
14	0	0	0	0	535	441	1021	0	0	0	
15	0	0	0	0	532	441	1021	0	0	0	
0	0	0	0	0	530	441	1021	0	0	0	
1	0	0	0	0	527	440	1021	0	0	0	
2	0	0	0	0	524	437	1021	0	0	0	
3	0	0	0	0	521	434	1021	0	0	0	
4	0	0	0	0	519	432	1021	0	0	0	
5	0	0	0	0	517	429	1021	0	0	0	
6	0	0	0	0	516	427	1021	0	0	0	
7	0	0	0	0	516	424	1021	0	0	0	
8	0	0	0	0	517	423	1021	0	0	0	
9	0	0	0	0	519	423	1021	0	0	0	
10	0	0	0	0	522	423	1021	0	0	0	
11	0	0	0	0	525	425	1021	0	0	0	
12	0	0	0	0	528	427	1021	0	0	0	
13	0	0	0	0	531	429	1021	0	0	0	
14	0	0	0	0	533	432	1021	0	0	0	
15	0	0	0	0	535	435	1021	0	0	0	
0	0	0	0	0	536	438	1021	0	0	0	
1	0	0	0	0	537	441	1020	0	0	0	
2	0	0	0	0	536	443	1021	0	0	0	
3	0	0	0	0	535	445	1021	0	0	0	
4	0	0	0	0	534	446	1021	0	0	0	
5	0	0	0	0	531	446	1021	0	0	0	
6	0	0	0	0	529	446	1021	0	0	0	
7	0	0	0	0	527	444	1021	0	0	0	
8	0	0	0	0	526	443	1021	0	0	0	
9	0	0	0	0	525	441	1021	0	0	0	
10	0	0	0	0	524	440	1021	0	0	0	
11	0	0	0	0	524	438	1021	0	0	0	
12	0	0	0	0	524	436	1021	0	0	0	
13	0	0	0	0	526	435	1021	0	0	0	
14	0	0	0	0	528	435	1021	0	0	0	
15	0	0	0	0	531	435	1021	0	0	0	
0	0	0	0	0	534	436	1021	0	0	0	
1	0	0	0	0	536	439	1021	0	0	0	
2	0	0	0	0	540	441	1021	0	0	0	
3	0	0	0	0	543	446	1021	0	0	0	
4	0	0	0	0	547	450	1021	0	0	0	
5	0	0	0	0	551	455	1021	0	0	0	
6	0	0	0	0	556	460	1021	0	0	0	
7	0	0	0	0	560	465	1021	0	0	0	
8	0	0	0	0	564	471	1021	0	0	0	
9	0	0	0	0	567	474	1021	0	0	0	
10	0	0	0	0	569	478	1021	0	0	0	
11	0	0	0	0	571	480	1021	0	0	0	
12	0	0	0	0	572	481	1021	0	0	0	
13	0	0	0	0	572	481	1021	0	0	0	
14	0	0	0	0	571	479	1021	0	0	0	
15	0	0	0	0	567	475	1021	0	0	0	
0	0	0	0	0	562	470	1021	0	0	0	
1	0	0	0	0	556	464	1021	0	0	0	
2	0	0	0	0	550	457	1021	0	0	0	
3	0	0	0	0	543	451	1021	0	0	0	
4	0	0	0	0	537	446	1021	0	0	0	
5	0	0	0	0	531	441	1021	0	0	0	
6	0	0	0	0	526	438	1021	0	0	0	
7	0	0	0	0	522	435	1021	0	0	0	
8	0	0	0	0	520	435	1021	0	0	0	
9	0	0	0	0	519	435	1021	0	0	0	
10	0	0	0	0	520	438	1021	0	0	0	
11	0	0	0	0	523	440	1021	0	0	0	
12	0	0	0	0	526	443	1021	0	0	0	
13	0	0	0	0	528	446	1021	0	0	0	
14	0	0	0	0	531	447	1021	0	0	0	
15	0	0	0	0	532	447	1021	0	0	0	
0	0	0	0	0	534	446	1021	0	0	0	
1	0	0	0	0	534	444	1021	0	0	0	
2	0	0	0	0	534	442	1021	0	0	0	
3	0	0	0	0	533	440	1021	0	0	0	
4	0	0	0	0	532	437	1021	0	0	0	
5	0	0	0	0	532	436	1021	0	0	0	
6	0	0	0	0	532	435	1021	0	0	0	
7	0	0	0	0	531	434	1021	0	0	0	
8	0	0	0	0	530	433	1021	0	0	0	
9	0	0	0	0	527	431	1021	0	0	0	
10	0	0	0	0	524	429	1021	0	0	0	
11	0	0	0	0	519	427	1021	0	0	0	
12	0	0	0	0	514	424	1021	0	0	0	
13	0	0	0	0	510	422	1021	0	0	0	
14	0	0	0	0	506	420	1021	0	0	0	
15	0	0	0	0	502	418	1021	0	0	0	
0	0	0	0	0	499	417	1021	0	0	0	
1	0	0	0	0	497	415	1021	0	0	0	
2	0	0	0	0	496	414	1021	0	0	0	
3	0	0	0	0	496	413	1021	0	0	0	
4	0	0	0	0	496	413	1021	0	0	0	
5	0	0	0	0	498	413	1021	0	0	0	
6	0	0	0	0	499	413	1021	0	0	0	
7	0	0	0	0	502	413	1021	0	0	0	
8	0	0	0	0	505	414	1021	0	0	0	
9	0	0	0	0	510	417	1021	0	0	0	
10	0	0	0	0	515	420	1021	0	0	0	
11	0	0	0	0	522	425	1021	0	0	0	
12	0	0	0	0	528	431	1021	0	0	0	
13	0	0	0	0	536	437	1021	0	0	0	
14	0	0	0	0	542	444	1021	0	0	0	
15	0	0	0	0	548	450	1021	0	0	0	
0	0	0	0	0	553	456	1021	0	0	0	
1	0	0	0	0	557	461	1021	0	0	0	
2	0	0	0	0	558	463	1021	0	0	0	
3	0	0	0	0	558	464	1021	0	0	0	
4	0	0	0	0	555	463	1021	0	0	0	
5	0	0	0	0	551	460	1021	0	0	0	
6	0	0	0	0	545	455	1021	0	0	0	
7	0	0	0	0	538	450	1021	0	0	0	
8	0	0	0	0	531	443	1021	0	0	0	
9	0	0	0	0	524	435	1021	0	0	0	
10	0	0	0	0	519	429	1021	0	0	0	
11	0	0	0	0	513	423	1021	0	0	0	
12	0	0	0	0	510	419	1021	0	0	0	
13	0	0	0	0	508	416	1021	0	0	0	
14	0	0	0	0	509	416	1021	0	0	0	
15	0	0	0	0	511	417	1021	0	0	0	
0	0	0	0	0	516	422	1021	0	0	0	
1	0	0	0	0	522	427	1021	0	0	0	
2	0	0	0	0	529	435	1021	0	0	0	
3	0	0	0	0	538	444	1021	0	0	0	
4	0	0	0	0	547	453	1021	0	0	0	
5	0	0	0	0	556	462	1021	0	0	0	
6	0	0	0	0	563	470	1021	0	0	0	
7	0	0	0	0	568	477	1021	0	0	0	
8	0	0	0	0	572	482	1021	0	0	0	
9	0	0	0	0	574	484	1021	0	0	0	
10	0	0	0	0	572	482	1021	0	0	0	
11	0	0	0	0	567	478	1021	0	0	0	
12	0	0	0	0	560	471	1021	0	0	0	
13	0	0	0	0	550	461	1021	0	0	0	
14	0	0	0	0	537	450	1021	0	0	0	
15	0	0	0	0	523	437	1021	0	0	0	
0	0	0	0	0	508	423	1021	0	0	0	
1	0	0	0	0	492	408	1021	0	0	0	
2	0	0	0	0	477	393	1021	0	0	0	
3	0	0	0	0	463	380	1021	0	0	0	
4	0	0	0	0	450	368	1021	0	0	0	
5	0	0	0	0	438	355	1021	0	0	0	
6	0	0	0	0	427	344	1021	0	0	0	
7	0	0	0	0	416	334	1021	0	0	0	
8	0	0	0	0	406	323	1021	0	0	0	
9	0	0	0	0	396	313	1021	0	0	0	
10	0	0	0	0	386	302	1021	0	0	0	
11	0	0	0	0	375	291	1021	0	0	0	
12	0	0	0	0	364	279	1021	0	0	0	
13	0	0	0	0	351	265	1021	0	0	0	
14	0	0	0	0	339	251	1021	0	0	0	
15	0	0	0	0	326	238	1021	0	0	0	
0	0	0	0	0	313	225	1021	0	0	0	
1	0	0	0	0	303	213	1021	0	0	0	
2	0	0	0	0	295	204	1021	0	0	0	
3	0	0	0	0	290	198	1021	0	0	0	
4	0	0	0	0	289	195	1021	0	0	0	
5	0	0	0	0	292	198	1021	0	0	0	
6	0	0	0	0	301	204	1021	0	0	0	
7	0	0	0	0	316	217	1021	0	0	0	
8	0	0	0	0	335	234	1021	0	0	0	
9	0	0	0	0	359	256	1021	0	0	0	
10	0	0	0	0	386	281	1021	0	0	0	
11	0	0	0	0	417	310	1021	0	0	0	
12	0	0	0	0	448	340	1021	0	0	0	
13	0	0	0	0	480	371	1021	0	0	0	
14	0	0	0	0	511	400	1021	0	0	0	
15	0	0	0	0	538	428	1021	0	0	0	
0	0	0	0	0	562	452	1021	0	0	0	
1	0	0	0	0	580	471	1021	0	0	0	
2	0	0	0	0	594	486	1021	0	0	0	
3	0	0	0	0	601	494	1021	0	0	0	
4	0	0	0	0	604	498	1021	0	0	0	
5	0	0	0	0	602	497	1021	0	0	0	
6	0	0	0	0	595	492	1021	0	0	0	
7	0	0	0	0	585	484	1021	0	0	0	
8	0	0	0	0	574	475	1021	0	0	0	
9	0	0	0	0	561	465	1021	0	0	0	
10	0	0	0	0	550	457	1021	0	0	0	
11	0	0	0	0	540	449	1021	0	0	0	
12	0	0	0	0	531	443	1021	0	0	0	
13	0	0	0	0	523	438	1021	0	0	0	
14	0	0	0	0	519	435	1021	0	0	0	
15	0	0	0	0	515	433	1021	0	0	0	
0	0	0	0	0	514	433	1021	0	0	0	
1	0	0	0	0	516	435	1021	0	0	0	
2	0	0	0	0	519	438	1021	0	0	0	
3	0	0	0	0	524	442	1021	0	0	0	
4	0	0	0	0	530	446	1021	0	0	0	
5	0	0	0	0	536	450	1021	0	0	0	
6	0	0	0	0	541	452	1021	0	0	0	
7	0	0	0	0	545	453	1021	0	0	0	
8	0	0	0	0	548	454	1021	0	0	0	
9	0	0	0	0	550	453	1021	0	0	0	
10	0	0	0	0	551	453	1021	0	0	0	
11	0	0	0	0	553	452	1021	0	0	0	
12	0	0	0	0	554	452	1021	0	0	0	
