# OpenSignals Text File Format. Version 1
# {"": {"position": 0, "device": "", "device name": "", "device connection": "", "sampling rate": 1000, "resolution": [4, 1, 1, 1, 1, 10, 10, 10, 10, 6, 6], "firmware version": 1281, "comments": "", "keywords": "", "mode": 0, "sync interval": 2, "date": "", "time": "", "channels": [1, 2, 3, 4, 5, 6], "sensor": ["RAW", "RAW", "RAW", "RAW", "RAW", "RAW"], "label": ["A1", "A2", "A3", "A4", "A5", "A6"], "column": ["nSeq", "I1", "I2", "O1", "O2", "A1", "A2", "A3", "A4", "A5", "A6"], "special": [{}, {}, {}, {}, {}, {}], "digital IO": [0, 0, 1, 1], "convertedValues": 0}}
# EndOfHeader
0	0	0	0	0	522	490	0	497	0	0	
1	0	0	0	0	518	505	0	490	0	0	
2	0	0	0	0	515	515	0	480	0	0	
3	0	0	0	0	513	520	0	468	0	0	
4	0	0	0	0	514	520	0	455	0	0	
5	0	0	0	0	515	514	0	443	0	0	
6	0	0	0	0	519	504	0	432	0	0	
7	0	0	0	0	522	489	0	424	0	0	
8	0	0	0	0	527	472	0	419	0	0	
9	0	0	0	0	531	455	0	419	0	0	
10	0	0	0	0	536	438	0	422	0	0	
11	0	0	0	0	540	424	0	430	0	0	
12	0	0	0	0	542	414	0	440	0	0	
13	0	0	0	0	542	409	0	452	0	0	
14	0	0	0	0	542	410	0	464	0	0	
15	0	0	0	0	540	415	0	477	0	0	
0	0	0	0	0	536	426	0	487	0	0	
1	0	0	0	0	532	441	0	496	0	0	
2	0	0	0	0	528	458	0	500	0	0	
3	0	0	0	0	522	475	0	500	0	0	
4	0	0	0	0	518	492	0	496	0	0	
5	0	0	0	0	515	507	0	489	0	0	
6	0	0	0	0	512	516	0	478	0	0	
7	0	0	0	0	511	521	0	465	0	0	
8	0	0	0	0	512	521	0	452	0	0	
9	0	0	0	0	515	515	0	439	0	0	
10	0	0	0	0	518	504	0	428	0	0	
11	0	0	0	0	523	490	0	421	0	0	
12	0	0	0	0	528	473	0	416	0	0	
13	0	0	0	0	532	455	0	415	0	0	
14	0	0	0	0	537	438	0	419	0	0	
15	0	0	0	0	541	424	0	427	0	0	
0	0	0	0	0	543	413	0	437	0	0	
1	0	0	0	0	544	408	0	449	0	0	
2	0	0	0	0	543	408	0	462	0	0	
3	0	0	0	0	541	414	0	475	0	0	
4	0	0	0	0	537	424	0	486	0	0	
5	0	0	0	0	533	439	0	494	0	0	
6	0	0	0	0	527	455	0	499	0	0	
7	0	0	0	0	524	474	0	499	0	0	
8	0	0	0	0	519	491	0	495	0	0	
9	0	0	0	0	515	505	0	488	0	0	
10	0	0	0	0	513	515	0	479	0	0	
11	0	0	0	0	512	520	0	466	0	0	
12	0	0	0	0	513	520	0	454	0	0	
13	0	0	0	0	516	514	0	440	0	0	
14	0	0	0	0	520	504	0	431	0	0	
15	0	0	0	0	524	489	0	422	0	0	
0	0	0	0	0	530	473	0	417	0	0	
1	0	0	0	0	534	455	0	416	0	0	
2	0	0	0	0	539	439	0	419	0	0	
3	0	0	0	0	543	425	0	427	0	0	
4	0	0	0	0	545	414	0	436	0	0	
5	0	0	0	0	545	408	0	448	0	0	
6	0	0	0	0	544	408	0	460	0	0	
7	0	0	0	0	543	414	0	473	0	0	
8	0	0	0	0	540	425	0	484	0	0	
9	0	0	0	0	535	439	0	492	0	0	
10	0	0	0	0	531	456	0	498	0	0	
11	0	0	0	0	526	474	0	499	0	0	
12	0	0	0	0	521	491	0	496	0	0	
13	0	0	0	0	518	505	0	491	0	0	
14	0	0	0	0	516	515	0	481	0	0	
15	0	0	0	0	515	520	0	471	0	0	
0	0	0	0	0	515	519	0	459	0	0	
1	0	0	0	0	517	512	0	446	0	0	
2	0	0	0	0	520	502	0	436	0	0	
3	0	0	0	0	524	486	0	428	0	0	
4	0	0	0	0	527	469	0	423	0	0	
5	0	0	0	0	532	451	0	422	0	0	
6	0	0	0	0	536	433	0	424	0	0	
7	0	0	0	0	539	419	0	430	0	0	
8	0	0	0	0	540	408	0	439	0	0	
9	0	0	0	0	540	402	0	450	0	0	
10	0	0	0	0	538	402	0	461	0	0	
11	0	0	0	0	535	406	0	473	0	0	
12	0	0	0	0	531	417	0	482	0	0	
13	0	0	0	0	525	431	0	489	0	0	
14	0	0	0	0	520	448	0	493	0	0	
15	0	0	0	0	515	466	0	493	0	0	
0	0	0	0	0	510	482	0	490	0	0	
1	0	0	0	0	507	498	0	483	0	0	
2	0	0	0	0	505	508	0	472	0	0	
3	0	0	0	0	505	514	0	461	0	0	
4	0	0	0	0	508	515	0	448	0	0	
5	0	0	0	0	511	509	0	438	0	0	
6	0	0	0	0	516	500	0	428	0	0	
7	0	0	0	0	521	486	0	420	0	0	
8	0	0	0	0	527	470	0	416	0	0	
9	0	0	0	0	533	452	0	416	0	0	
10	0	0	0	0	538	435	0	420	0	0	
11	0	0	0	0	542	421	0	428	0	0	
12	0	0	0	0	543	411	0	439	0	0	
13	0	0	0	0	543	406	0	451	0	0	
14	0	0	0	0	542	406	0	463	0	0	
15	0	0	0	0	539	412	0	476	0	0	
0	0	0	0	0	535	423	0	486	0	0	
1	0	0	0	0	530	437	0	495	0	0	
2	0	0	0	0	525	455	0	499	0	0	
3	0	0	0	0	521	473	0	499	0	0	
4	0	0	0	0	516	489	0	497	0	0	
5	0	0	0	0	513	505	0	490	0	0	
6	0	0	0	0	511	515	0	480	0	0	
7	0	0	0	0	511	519	0	469	0	0	
8	0	0	0	0	513	519	0	456	0	0	
9	0	0	0	0	515	512	0	444	0	0	
10	0	0	0	0	520	502	0	434	0	0	
11	0	0	0	0	524	487	0	425	0	0	
12	0	0	0	0	529	470	0	421	0	0	
13	0	0	0	0	534	452	0	419	0	0	
14	0	0	0	0	538	435	0	422	0	0	
15	0	0	0	0	542	422	0	429	0	0	
0	0	0	0	0	543	411	0	439	0	0	
1	0	0	0	0	543	407	0	450	0	0	
2	0	0	0	0	543	408	0	463	0	0	
3	0	0	0	0	540	414	0	475	0	0	
4	0	0	0	0	537	425	0	486	0	0	
5	0	0	0	0	532	440	0	495	0	0	
6	0	0	0	0	527	457	0	499	0	0	
7	0	0	0	0	523	476	0	500	0	0	
8	0	0	0	0	519	492	0	497	0	0	
9	0	0	0	0	515	506	0	490	0	0	
10	0	0	0	0	513	516	0	480	0	0	
11	0	0	0	0	513	521	0	467	0	0	
12	0	0	0	0	514	520	0	453	0	0	
13	0	0	0	0	517	514	0	441	0	0	
14	0	0	0	0	521	503	0	430	0	0	
15	0	0	0	0	525	488	0	421	0	0	
0	0	0	0	0	530	472	0	415	0	0	
1	0	0	0	0	535	454	0	413	0	0	
2	0	0	0	0	539	437	0	416	0	0	
3	0	0	0	0	543	423	0	423	0	0	
4	0	0	0	0	545	413	0	433	0	0	
5	0	0	0	0	545	408	0	445	0	0	
6	0	0	0	0	544	409	0	458	0	0	
7	0	0	0	0	541	414	0	472	0	0	
8	0	0	0	0	538	425	0	483	0	0	
9	0	0	0	0	533	439	0	492	0	0	
10	0	0	0	0	527	456	0	498	0	0	
11	0	0	0	0	522	473	0	499	0	0	
12	0	0	0	0	517	490	0	498	0	0	
13	0	0	0	0	513	504	0	491	0	0	
14	0	0	0	0	511	515	0	482	0	0	
15	0	0	0	0	511	519	0	470	0	0	
0	0	0	0	0	512	519	0	457	0	0	
1	0	0	0	0	515	512	0	444	0	0	
2	0	0	0	0	519	501	0	434	0	0	
3	0	0	0	0	524	487	0	426	0	0	
4	0	0	0	0	529	469	0	420	0	0	
5	0	0	0	0	534	451	0	419	0	0	
6	0	0	0	0	539	435	0	421	0	0	
7	0	0	0	0	543	421	0	428	0	0	
8	0	0	0	0	545	411	0	438	0	0	
9	0	0	0	0	546	406	0	449	0	0	
10	0	0	0	0	545	407	0	461	0	0	
11	0	0	0	0	543	413	0	472	0	0	
12	0	0	0	0	540	423	0	483	0	0	
13	0	0	0	0	536	439	0	491	0	0	
14	0	0	0	0	530	455	0	495	0	0	
15	0	0	0	0	525	473	0	495	0	0	
0	0	0	0	0	520	491	0	492	0	0	
1	0	0	0	0	517	505	0	486	0	0	
2	0	0	0	0	513	516	0	475	0	0	
3	0	0	0	0	512	521	0	463	0	0	
4	0	0	0	0	512	520	0	450	0	0	
5	0	0	0	0	514	515	0	438	0	0	
6	0	0	0	0	517	504	0	427	0	0	
7	0	0	0	0	520	489	0	419	0	0	
8	0	0	0	0	524	472	0	414	0	0	
9	0	0	0	0	528	454	0	412	0	0	
10	0	0	0	0	531	436	0	416	0	0	
11	0	0	0	0	534	422	0	423	0	0	
12	0	0	0	0	536	412	0	432	0	0	
13	0	0	0	0	536	406	0	444	0	0	
14	0	0	0	0	536	406	0	456	0	0	
15	0	0	0	0	534	412	0	469	0	0	
0	0	0	0	0	531	423	0	479	0	0	
1	0	0	0	0	527	437	0	487	0	0	
2	0	0	0	0	523	454	0	492	0	0	
3	0	0	0	0	518	472	0	493	0	0	
4	0	0	0	0	514	489	0	491	0	0	
5	0	0	0	0	511	504	0	483	0	0	
6	0	0	0	0	509	514	0	473	0	0	
7	0	0	0	0	508	519	0	461	0	0	
8	0	0	0	0	509	519	0	448	0	0	
9	0	0	0	0	510	512	0	436	0	0	
10	0	0	0	0	513	502	0	424	0	0	
11	0	0	0	0	516	486	0	416	0	0	
12	0	0	0	0	520	468	0	411	0	0	
13	0	0	0	0	524	450	0	409	0	0	
14	0	0	0	0	527	432	0	412	0	0	
15	0	0	0	0	531	418	0	419	0	0	
0	0	0	0	0	532	406	0	428	0	0	
1	0	0	0	0	532	400	0	439	0	0	
2	0	0	0	0	532	400	0	452	0	0	
3	0	0	0	0	530	405	0	464	0	0	
4	0	0	0	0	528	416	0	475	0	0	
5	0	0	0	0	524	430	0	483	0	0	
6	0	0	0	0	521	448	0	487	0	0	
7	0	0	0	0	517	466	0	489	0	0	
8	0	0	0	0	513	483	0	486	0	0	
9	0	0	0	0	510	499	0	480	0	0	
10	0	0	0	0	508	509	0	471	0	0	
11	0	0	0	0	508	515	0	460	0	0	
12	0	0	0	0	508	515	0	447	0	0	
13	0	0	0	0	510	509	0	435	0	0	
14	0	0	0	0	513	499	0	425	0	0	
15	0	0	0	0	516	483	0	417	0	0	
0	0	0	0	0	521	467	0	412	0	0	
1	0	0	0	0	524	449	0	412	0	0	
2	0	0	0	0	528	432	0	414	0	0	
3	0	0	0	0	532	419	0	422	0	0	
4	0	0	0	0	534	408	0	432	0	0	
5	0	0	0	0	535	403	0	444	0	0	
6	0	0	0	0	534	404	0	457	0	0	
7	0	0	0	0	532	409	0	469	0	0	
8	0	0	0	0	530	421	0	480	0	0	
9	0	0	0	0	526	435	0	488	0	0	
10	0	0	0	0	522	452	0	494	0	0	
11	0	0	0	0	518	470	0	495	0	0	
12	0	0	0	0	514	487	0	491	0	0	
13	0	0	0	0	511	502	0	484	0	0	
14	0	0	0	0	508	512	0	474	0	0	
15	0	0	0	0	508	517	0	462	0	0	
0	0	0	0	0	509	517	0	449	0	0	
1	0	0	0	0	511	511	0	437	0	0	
2	0	0	0	0	514	500	0	426	0	0	
3	0	0	0	0	518	486	0	418	0	0	
4	0	0	0	0	522	468	0	413	0	0	
5	0	0	0	0	527	450	0	412	0	0	
6	0	0	0	0	531	433	0	414	0	0	
7	0	0	0	0	535	419	0	421	0	0	
8	0	0	0	0	537	408	0	431	0	0	
9	0	0	0	0	537	403	0	443	0	0	
10	0	0	0	0	536	403	0	455	0	0	
11	0	0	0	0	535	409	0	467	0	0	
12	0	0	0	0	532	421	0	480	0	0	
13	0	0	0	0	528	436	0	488	0	0	
14	0	0	0	0	524	454	0	494	0	0	
15	0	0	0	0	519	472	0	495	0	0	
0	0	0	0	0	516	490	0	492	0	0	
1	0	0	0	0	513	505	0	486	0	0	
2	0	0	0	0	511	516	0	476	0	0	
3	0	0	0	0	511	522	0	465	0	0	
4	0	0	0	0	512	522	0	452	0	0	
5	0	0	0	0	515	517	0	439	0	0	
6	0	0	0	0	519	507	0	429	0	0	
7	0	0	0	0	523	492	0	420	0	0	
8	0	0	0	0	527	475	0	415	0	0	
9	0	0	0	0	531	456	0	414	0	0	
10	0	0	0	0	536	439	0	417	0	0	
11	0	0	0	0	539	424	0	424	0	0	
12	0	0	0	0	541	413	0	434	0	0	
13	0	0	0	0	542	406	0	447	0	0	
14	0	0	0	0	541	405	0	459	0	0	
15	0	0	0	0	539	410	0	472	0	0	
0	0	0	0	0	536	420	0	484	0	0	
1	0	0	0	0	531	434	0	493	0	0	
2	0	0	0	0	527	451	0	498	0	0	
3	0	0	0	0	522	469	0	499	0	0	
4	0	0	0	0	518	487	0	496	0	0	
5	0	0	0	0	515	503	0	490	0	0	
6	0	0	0	0	513	514	0	480	0	0	
7	0	0	0	0	512	521	0	468	0	0	
8	0	0	0	0	513	522	0	455	0	0	
9	0	0	0	0	515	518	0	443	0	0	
10	0	0	0	0	519	508	0	431	0	0	
11	0	0	0	0	522	494	0	422	0	0	
12	0	0	0	0	526	477	0	417	0	0	
13	0	0	0	0	530	459	0	415	0	0	
14	0	0	0	0	534	440	0	417	0	0	
15	0	0	0	0	537	425	0	423	0	0	
0	0	0	0	0	539	413	0	433	0	0	
1	0	0	0	0	540	406	0	444	0	0	
2	0	0	0	0	539	404	0	457	0	0	
3	0	0	0	0	536	409	0	468	0	0	
4	0	0	0	0	534	419	0	480	0	0	
5	0	0	0	0	530	432	0	488	0	0	
6	0	0	0	0	525	449	0	494	0	0	
7	0	0	0	0	521	467	0	495	0	0	
8	0	0	0	0	517	484	0	492	0	0	
9	0	0	0	0	514	500	0	486	0	0	
10	0	0	0	0	511	511	0	477	0	0	
11	0	0	0	0	510	518	0	465	0	0	
12	0	0	0	0	511	519	0	452	0	0	
13	0	0	0	0	512	513	0	440	0	0	
14	0	0	0	0	515	504	0	429	0	0	
15	0	0	0	0	518	490	0	420	0	0	
0	0	0	0	0	521	473	0	414	0	0	
1	0	0	0	0	526	456	0	412	0	0	
2	0	0	0	0	530	439	0	414	0	0	
3	0	0	0	0	533	423	0	419	0	0	
4	0	0	0	0	535	412	0	428	0	0	
5	0	0	0	0	536	406	0	440	0	0	
6	0	0	0	0	535	405	0	452	0	0	
7	0	0	0	0	534	409	0	464	0	0	
8	0	0	0	0	531	421	0	475	0	0	
9	0	0	0	0	528	435	0	484	0	0	
10	0	0	0	0	524	451	0	490	0	0	
11	0	0	0	0	520	470	0	492	0	0	
12	0	0	0	0	518	488	0	490	0	0	
13	0	0	0	0	515	504	0	485	0	0	
14	0	0	0	0	513	515	0	476	0	0	
15	0	0	0	0	513	522	0	464	0	0	
0	0	0	0	0	515	523	0	452	0	0	
1	0	0	0	0	517	517	0	440	0	0	
2	0	0	0	0	521	508	0	430	0	0	
3	0	0	0	0	525	494	0	422	0	0	
4	0	0	0	0	529	477	0	416	0	0	
5	0	0	0	0	534	459	0	415	0	0	
6	0	0	0	0	538	443	0	417	0	0	
7	0	0	0	0	541	428	0	423	0	0	
8	0	0	0	0	543	417	0	433	0	0	
9	0	0	0	0	543	411	0	445	0	0	
10	0	0	0	0	541	409	0	457	0	0	
11	0	0	0	0	538	413	0	470	0	0	
12	0	0	0	0	534	423	0	481	0	0	
13	0	0	0	0	528	436	0	489	0	0	
14	0	0	0	0	523	452	0	494	0	0	
15	0	0	0	0	518	469	0	496	0	0	
0	0	0	0	0	513	486	0	493	0	0	
1	0	0	0	0	510	501	0	487	0	0	
2	0	0	0	0	508	511	0	477	0	0	
3	0	0	0	0	507	517	0	466	0	0	
4	0	0	0	0	508	518	0	454	0	0	
5	0	0	0	0	511	514	0	441	0	0	
6	0	0	0	0	516	504	0	432	0	0	
7	0	0	0	0	521	490	0	423	0	0	
8	0	0	0	0	527	474	0	418	0	0	
9	0	0	0	0	531	456	0	417	0	0	
10	0	0	0	0	537	439	0	419	0	0	
11	0	0	0	0	542	425	0	427	0	0	
12	0	0	0	0	544	414	0	436	0	0	
13	0	0	0	0	545	408	0	448	0	0	
14	0	0	0	0	545	408	0	460	0	0	
15	0	0	0	0	543	413	0	472	0	0	
0	0	0	0	0	540	423	0	483	0	0	
1	0	0	0	0	536	438	0	492	0	0	
2	0	0	0	0	532	456	0	497	0	0	
3	0	0	0	0	526	473	0	499	0	0	
4	0	0	0	0	521	491	0	495	0	0	
5	0	0	0	0	518	507	0	489	0	0	
6	0	0	0	0	515	517	0	479	0	0	
7	0	0	0	0	513	523	0	467	0	0	
8	0	0	0	0	513	523	0	454	0	0	
9	0	0	0	0	514	517	0	441	0	0	
10	0	0	0	0	517	506	0	430	0	0	
11	0	0	0	0	520	491	0	421	0	0	
12	0	0	0	0	525	473	0	415	0	0	
13	0	0	0	0	528	455	0	413	0	0	
14	0	0	0	0	532	436	0	415	0	0	
15	0	0	0	0	536	421	0	422	0	0	
0	0	0	0	0	538	409	0	432	0	0	
1	0	0	0	0	538	401	0	444	0	0	
2	0	0	0	0	537	400	0	456	0	0	
3	0	0	0	0	535	405	0	468	0	0	
4	0	0	0	0	532	415	0	480	0	0	
5	0	0	0	0	527	428	0	488	0	0	
6	0	0	0	0	523	444	0	494	0	0	
7	0	0	0	0	517	462	0	495	0	0	
8	0	0	0	0	512	479	0	492	0	0	
9	0	0	0	0	508	494	0	484	0	0	
10	0	0	0	0	505	504	0	474	0	0	
11	0	0	0	0	504	510	0	461	0	0	
12	0	0	0	0	504	510	0	448	0	0	
13	0	0	0	0	505	504	0	434	0	0	
14	0	0	0	0	509	495	0	422	0	0	
15	0	0	0	0	512	479	0	412	0	0	
0	0	0	0	0	516	463	0	406	0	0	
1	0	0	0	0	520	445	0	404	0	0	
2	0	0	0	0	524	427	0	406	0	0	
3	0	0	0	0	527	413	0	412	0	0	
4	0	0	0	0	527	401	0	420	0	0	
5	0	0	0	0	527	396	0	432	0	0	
6	0	0	0	0	526	395	0	445	0	0	
7	0	0	0	0	522	399	0	457	0	0	
8	0	0	0	0	518	410	0	468	0	0	
9	0	0	0	0	513	423	0	477	0	0	
10	0	0	0	0	508	440	0	483	0	0	
11	0	0	0	0	503	459	0	484	0	0	
12	0	0	0	0	498	476	0	482	0	0	
13	0	0	0	0	496	492	0	476	0	0	
14	0	0	0	0	494	503	0	467	0	0	
15	0	0	0	0	494	508	0	455	0	0	
0	0	0	0	0	496	510	0	442	0	0	
1	0	0	0	0	499	505	0	429	0	0	
2	0	0	0	0	504	495	0	419	0	0	
3	0	0	0	0	510	481	0	410	0	0	
4	0	0	0	0	516	464	0	404	0	0	
5	0	0	0	0	521	446	0	403	0	0	
6	0	0	0	0	526	429	0	406	0	0	
7	0	0	0	0	531	415	0	413	0	0	
8	0	0	0	0	533	403	0	423	0	0	
9	0	0	0	0	534	397	0	436	0	0	
10	0	0	0	0	533	396	0	449	0	0	
11	0	0	0	0	531	402	0	462	0	0	
12	0	0	0	0	528	412	0	475	0	0	
13	0	0	0	0	524	426	0	485	0	0	
14	0	0	0	0	519	443	0	491	0	0	
15	0	0	0	0	515	462	0	494	0	0	
0	0	0	0	0	511	480	0	492	0	0	
1	0	0	0	0	508	495	0	486	0	0	
2	0	0	0	0	506	507	0	476	0	0	
3	0	0	0	0	505	513	0	464	0	0	
4	0	0	0	0	506	514	0	452	0	0	
5	0	0	0	0	509	509	0	439	0	0	
6	0	0	0	0	513	500	0	428	0	0	
7	0	0	0	0	517	486	0	419	0	0	
8	0	0	0	0	521	469	0	412	0	0	
9	0	0	0	0	526	451	0	410	0	0	
10	0	0	0	0	530	435	0	412	0	0	
11	0	0	0	0	534	420	0	419	0	0	
12	0	0	0	0	535	410	0	428	0	0	
13	0	0	0	0	537	404	0	440	0	0	
14	0	0	0	0	536	405	0	452	0	0	
15	0	0	0	0	534	411	0	464	0	0	
0	0	0	0	0	531	421	0	476	0	0	
1	0	0	0	0	527	436	0	485	0	0	
2	0	0	0	0	523	453	0	491	0	0	
3	0	0	0	0	518	471	0	492	0	0	
4	0	0	0	0	514	488	0	490	0	0	
5	0	0	0	0	510	503	0	484	0	0	
6	0	0	0	0	508	513	0	475	0	0	
7	0	0	0	0	507	519	0	463	0	0	
8	0	0	0	0	507	519	0	451	0	0	
9	0	0	0	0	509	513	0	439	0	0	
10	0	0	0	0	512	503	0	429	0	0	
11	0	0	0	0	515	488	0	420	0	0	
12	0	0	0	0	519	471	0	415	0	0	
13	0	0	0	0	523	453	0	414	0	0	
14	0	0	0	0	527	436	0	416	0	0	
15	0	0	0	0	531	421	0	423	0	0	
0	0	0	0	0	533	410	0	433	0	0	
1	0	0	0	0	534	404	0	445	0	0	
2	0	0	0	0	533	404	0	457	0	0	
3	0	0	0	0	531	409	0	470	0	0	
4	0	0	0	0	528	419	0	481	0	0	
5	0	0	0	0	524	433	0	489	0	0	
6	0	0	0	0	519	450	0	495	0	0	
7	0	0	0	0	515	468	0	496	0	0	
8	0	0	0	0	511	486	0	494	0	0	
9	0	0	0	0	507	501	0	488	0	0	
10	0	0	0	0	504	512	0	478	0	0	
11	0	0	0	0	503	518	0	467	0	0	
12	0	0	0	0	504	518	0	453	0	0	
13	0	0	0	0	505	512	0	441	0	0	
14	0	0	0	0	509	502	0	429	0	0	
15	0	0	0	0	512	487	0	419	0	0	
0	0	0	0	0	517	470	0	413	0	0	
1	0	0	0	0	521	451	0	409	0	0	
2	0	0	0	0	525	433	0	412	0	0	
3	0	0	0	0	529	418	0	417	0	0	
4	0	0	0	0	531	406	0	426	0	0	
5	0	0	0	0	532	399	0	437	0	0	
6	0	0	0	0	532	398	0	449	0	0	
7	0	0	0	0	529	402	0	462	0	0	
8	0	0	0	0	527	413	0	473	0	0	
9	0	0	0	0	523	426	0	482	0	0	
10	0	0	0	0	519	443	0	488	0	0	
11	0	0	0	0	515	462	0	491	0	0	
12	0	0	0	0	511	479	0	489	0	0	
13	0	0	0	0	510	496	0	484	0	0	
14	0	0	0	0	508	507	0	476	0	0	
15	0	0	0	0	508	514	0	465	0	0	
0	0	0	0	0	510	515	0	453	0	0	
1	0	0	0	0	512	510	0	441	0	0	
2	0	0	0	0	515	500	0	430	0	0	
3	0	0	0	0	518	484	0	419	0	0	
4	0	0	0	0	519	465	0	412	0	0	
5	0	0	0	0	520	445	0	406	0	0	
6	0	0	0	0	519	423	0	403	0	0	
7	0	0	0	0	517	403	0	403	0	0	
8	0	0	0	0	511	385	0	406	0	0	
9	0	0	0	0	504	371	0	409	0	0	
10	0	0	0	0	493	363	0	413	0	0	
11	0	0	0	0	481	357	0	417	0	0	
12	0	0	0	0	467	358	0	418	0	0	
13	0	0	0	0	452	361	0	417	0	0	
14	0	0	0	0	436	367	0	412	0	0	
15	0	0	0	0	420	375	0	403	0	0	
0	0	0	0	0	404	381	0	391	0	0	
1	0	0	0	0	389	386	0	374	0	0	
2	0	0	0	0	375	386	0	353	0	0	
3	0	0	0	0	363	382	0	331	0	0	
4	0	0	0	0	352	373	0	307	0	0	
5	0	0	0	0	343	357	0	283	0	0	
6	0	0	0	0	335	337	0	260	0	0	
7	0	0	0	0	328	311	0	238	0	0	
8	0	0	0	0	322	283	0	220	0	0	
9	0	0	0	0	316	254	0	206	0	0	
10	0	0	0	0	311	224	0	197	0	0	
11	0	0	0	0	307	199	0	195	0	0	
12	0	0	0	0	304	179	0	197	0	0	
13	0	0	0	0	302	166	0	206	0	0	
14	0	0	0	0	301	161	0	219	0	0	
15	0	0	0	0	302	165	0	236	0	0	
0	0	0	0	0	306	180	0	256	0	0	
1	0	0	0	0	312	201	0	277	0	0	
2	0	0	0	0	321	231	0	299	0	0	
3	0	0	0	0	333	265	0	319	0	0	
4	0	0	0	0	348	303	0	337	0	0	
5	0	0	0	0	366	341	0	353	0	0	
6	0	0	0	0	387	376	0	366	0	0	
7	0	0	0	0	410	409	0	377	0	0	
8	0	0	0	0	434	434	0	386	0	0	
9	0	0	0	0	459	453	0	393	0	0	
10	0	0	0	0	483	465	0	400	0	0	
11	0	0	0	0	506	469	0	406	0	0	
12	0	0	0	0	526	468	0	414	0	0	
13	0	0	0	0	543	462	0	422	0	0	
14	0	0	0	0	558	452	0	432	0	0	
15	0	0	0	0	568	443	0	444	0	0	
0	0	0	0	0	573	434	0	456	0	0	
1	0	0	0	0	574	428	0	470	0	0	
2	0	0	0	0	572	426	0	481	0	0	
3	0	0	0	0	567	427	0	493	0	0	
4	0	0	0	0	559	433	0	502	0	0	
5	0	0	0	0	549	443	0	508	0	0	
6	0	0	0	0	538	454	0	510	0	0	
7	0	0	0	0	527	468	0	509	0	0	
8	0	0	0	0	518	482	0	502	0	0	
9	0	0	0	0	511	495	0	494	0	0	
10	0	0	0	0	506	503	0	481	0	0	
11	0	0	0	0	504	509	0	468	0	0	
12	0	0	0	0	504	510	0	454	0	0	
13	0	0	0	0	507	506	0	440	0	0	
14	0	0	0	0	511	498	0	428	0	0	
15	0	0	0	0	518	486	0	420	0	0	
0	0	0	0	0	525	472	0	415	0	0	
1	0	0	0	0	531	455	0	414	0	0	
2	0	0	0	0	538	439	0	417	0	0	
3	0	0	0	0	543	426	0	424	0	0	
4	0	0	0	0	547	415	0	435	0	0	
5	0	0	0	0	550	409	0	448	0	0	
6	0	0	0	0	550	408	0	462	0	0	
7	0	0	0	0	549	414	0	475	0	0	
8	0	0	0	0	546	423	0	487	0	0	
9	0	0	0	0	542	437	0	496	0	0	
10	0	0	0	0	536	454	0	503	0	0	
11	0	0	0	0	531	471	0	505	0	0	
12	0	0	0	0	526	488	0	502	0	0	
13	0	0	0	0	522	504	0	497	0	0	
14	0	0	0	0	519	515	0	488	0	0	
15	0	0	0	0	518	521	0	477	0	0	
0	0	0	0	0	518	522	0	465	0	0	
1	0	0	0	0	520	518	0	454	0	0	
2	0	0	0	0	524	508	0	444	0	0	
3	0	0	0	0	528	494	0	436	0	0	
4	0	0	0	0	533	478	0	432	0	0	
5	0	0	0	0	539	460	0	431	0	0	
6	0	0	0	0	544	444	0	433	0	0	
7	0	0	0	0	549	429	0	440	0	0	
8	0	0	0	0	552	418	0	449	0	0	
9	0	0	0	0	553	412	0	461	0	0	
10	0	0	0	0	552	411	0	473	0	0	
11	0	0	0	0	551	415	0	484	0	0	
12	0	0	0	0	547	425	0	496	0	0	
13	0	0	0	0	543	439	0	503	0	0	
14	0	0	0	0	537	455	0	508	0	0	
15	0	0	0	0	533	473	0	508	0	0	
0	0	0	0	0	527	490	0	505	0	0	
1	0	0	0	0	523	504	0	499	0	0	
2	0	0	0	0	520	516	0	489	0	0	
3	0	0	0	0	519	522	0	477	0	0	
4	0	0	0	0	518	523	0	464	0	0	
5	0	0	0	0	519	518	0	452	0	0	
6	0	0	0	0	522	508	0	441	0	0	
7	0	0	0	0	526	494	0	432	0	0	
8	0	0	0	0	531	478	0	427	0	0	
9	0	0	0	0	535	459	0	426	0	0	
10	0	0	0	0	540	442	0	428	0	0	
11	0	0	0	0	544	428	0	435	0	0	
12	0	0	0	0	548	416	0	446	0	0	
13	0	0	0	0	550	409	0	458	0	0	
14	0	0	0	0	550	409	0	471	0	0	
15	0	0	0	0	550	414	0	484	0	0	
0	0	0	0	0	549	424	0	496	0	0	
1	0	0	0	0	546	438	0	505	0	0	
2	0	0	0	0	542	455	0	511	0	0	
3	0	0	0	0	539	473	0	513	0	0	
4	0	0	0	0	535	492	0	511	0	0	
5	0	0	0	0	532	508	0	506	0	0	
6	0	0	0	0	529	520	0	497	0	0	
7	0	0	0	0	528	527	0	485	0	0	
8	0	0	0	0	528	529	0	472	0	0	
9	0	0	0	0	530	525	0	459	0	0	
10	0	0	0	0	532	516	0	448	0	0	
11	0	0	0	0	536	502	0	438	0	0	
12	0	0	0	0	539	485	0	431	0	0	
13	0	0	0	0	542	467	0	428	0	0	
14	0	0	0	0	545	449	0	428	0	0	
15	0	0	0	0	548	432	0	433	0	0	
0	0	0	0	0	549	419	0	441	0	0	
1	0	0	0	0	548	411	0	451	0	0	
2	0	0	0	0	547	408	0	462	0	0	
3	0	0	0	0	543	411	0	473	0	0	
4	0	0	0	0	540	420	0	484	0	0	
5	0	0	0	0	534	432	0	492	0	0	
6	0	0	0	0	529	448	0	497	0	0	
7	0	0	0	0	524	465	0	499	0	0	
8	0	0	0	0	519	482	0	497	0	0	
9	0	0	0	0	515	498	0	492	0	0	
10	0	0	0	0	513	509	0	482	0	0	
11	0	0	0	0	512	516	0	471	0	0	
12	0	0	0	0	512	518	0	458	0	0	
13	0	0	0	0	515	514	0	445	0	0	
14	0	0	0	0	518	505	0	435	0	0	
15	0	0	0	0	523	491	0	425	0	0	
0	0	0	0	0	527	475	0	419	0	0	
1	0	0	0	0	531	457	0	417	0	0	
2	0	0	0	0	536	440	0	419	0	0	
3	0	0	0	0	540	425	0	425	0	0	
4	0	0	0	0	542	413	0	434	0	0	
5	0	0	0	0	543	406	0	445	0	0	
6	0	0	0	0	541	404	0	457	0	0	
7	0	0	0	0	539	408	0	470	0	0	
8	0	0	0	0	536	417	0	481	0	0	
9	0	0	0	0	531	430	0	490	0	0	
10	0	0	0	0	526	446	0	496	0	0	
11	0	0	0	0	520	464	0	497	0	0	
12	0	0	0	0	515	481	0	496	0	0	
13	0	0	0	0	511	497	0	490	0	0	
14	0	0	0	0	508	509	0	480	0	0	
15	0	0	0	0	508	516	0	469	0	0	
0	0	0	0	0	509	518	0	457	0	0	
1	0	0	0	0	512	515	0	444	0	0	
2	0	0	0	0	515	506	0	434	0	0	
3	0	0	0	0	520	492	0	425	0	0	
4	0	0	0	0	526	476	0	420	0	0	
5	0	0	0	0	531	457	0	419	0	0	
6	0	0	0	0	537	440	0	420	0	0	
7	0	0	0	0	541	425	0	428	0	0	
8	0	0	0	0	544	413	0	437	0	0	
9	0	0	0	0	545	405	0	449	0	0	
10	0	0	0	0	545	404	0	462	0	0	
11	0	0	0	0	543	408	0	475	0	0	
12	0	0	0	0	540	418	0	486	0	0	
13	0	0	0	0	536	431	0	494	0	0	
14	0	0	0	0	531	447	0	499	0	0	
15	0	0	0	0	526	465	0	500	0	0	
0	0	0	0	0	521	482	0	497	0	0	
1	0	0	0	0	517	497	0	491	0	0	
2	0	0	0	0	515	508	0	481	0	0	
3	0	0	0	0	513	515	0	468	0	0	
4	0	0	0	0	512	515	0	455	0	0	
5	0	0	0	0	515	511	0	441	0	0	
6	0	0	0	0	518	502	0	430	0	0	
7	0	0	0	0	521	487	0	420	0	0	
8	0	0	0	0	525	470	0	414	0	0	
9	0	0	0	0	529	452	0	412	0	0	
10	0	0	0	0	533	434	0	414	0	0	
11	0	0	0	0	537	419	0	421	0	0	
12	0	0	0	0	538	407	0	430	0	0	
13	0	0	0	0	540	400	0	442	0	0	
14	0	0	0	0	540	399	0	455	0	0	
15	0	0	0	0	537	403	0	468	0	0	
0	0	0	0	0	534	412	0	480	0	0	
1	0	0	0	0	531	425	0	490	0	0	
2	0	0	0	0	527	442	0	496	0	0	
3	0	0	0	0	521	459	0	499	0	0	
4	0	0	0	0	517	477	0	496	0	0	
5	0	0	0	0	513	493	0	491	0	0	
6	0	0	0	0	511	504	0	481	0	0	
7	0	0	0	0	509	511	0	470	0	0	
8	0	0	0	0	510	513	0	456	0	0	
9	0	0	0	0	511	509	0	443	0	0	
10	0	0	0	0	513	500	0	431	0	0	
11	0	0	0	0	516	487	0	422	0	0	
12	0	0	0	0	520	470	0	415	0	0	
13	0	0	0	0	524	452	0	412	0	0	
14	0	0	0	0	527	435	0	412	0	0	
15	0	0	0	0	531	419	0	418	0	0	
0	0	0	0	0	533	407	0	427	0	0	
1	0	0	0	0	534	400	0	438	0	0	
2	0	0	0	0	533	398	0	450	0	0	
3	0	0	0	0	531	402	0	463	0	0	
4	0	0	0	0	529	412	0	475	0	0	
5	0	0	0	0	526	425	0	485	0	0	
6	0	0	0	0	522	442	0	491	0	0	
7	0	0	0	0	518	460	0	494	0	0	
8	0	0	0	0	514	478	0	492	0	0	
9	0	0	0	0	511	494	0	487	0	0	
10	0	0	0	0	510	505	0	479	0	0	
11	0	0	0	0	508	512	0	467	0	0	
12	0	0	0	0	509	513	0	455	0	0	
13	0	0	0	0	511	508	0	442	0	0	
14	0	0	0	0	515	499	0	432	0	0	
15	0	0	0	0	518	485	0	423	0	0	
0	0	0	0	0	522	467	0	416	0	0	
1	0	0	0	0	527	450	0	413	0	0	
2	0	0	0	0	531	432	0	414	0	0	
3	0	0	0	0	534	415	0	420	0	0	
4	0	0	0	0	536	404	0	429	0	0	
5	0	0	0	0	536	396	0	440	0	0	
6	0	0	0	0	536	395	0	452	0	0	
7	0	0	0	0	534	399	0	464	0	0	
8	0	0	0	0	530	408	0	476	0	0	
9	0	0	0	0	527	421	0	486	0	0	
10	0	0	0	0	523	438	0	492	0	0	
11	0	0	0	0	518	456	0	494	0	0	
12	0	0	0	0	514	474	0	493	0	0	
13	0	0	0	0	511	490	0	488	0	0	
14	0	0	0	0	510	502	0	480	0	0	
15	0	0	0	0	509	510	0	469	0	0	
0	0	0	0	0	511	513	0	457	0	0	
1	0	0	0	0	514	509	0	444	0	0	
2	0	0	0	0	518	500	0	434	0	0	
3	0	0	0	0	522	487	0	425	0	0	
4	0	0	0	0	527	472	0	419	0	0	
5	0	0	0	0	531	454	0	416	0	0	
6	0	0	0	0	536	437	0	417	0	0	
7	0	0	0	0	539	422	0	424	0	0	
8	0	0	0	0	540	409	0	433	0	0	
9	0	0	0	0	542	402	0	444	0	0	
10	0	0	0	0	541	401	0	457	0	0	
11	0	0	0	0	538	404	0	470	0	0	
12	0	0	0	0	535	414	0	483	0	0	
13	0	0	0	0	531	428	0	492	0	0	
14	0	0	0	0	527	444	0	498	0	0	
15	0	0	0	0	523	462	0	500	0	0	
0	0	0	0	0	519	479	0	498	0	0	
1	0	0	0	0	516	495	0	492	0	0	
2	0	0	0	0	514	506	0	482	0	0	
3	0	0	0	0	514	513	0	470	0	0	
4	0	0	0	0	515	515	0	456	0	0	
5	0	0	0	0	518	511	0	442	0	0	
6	0	0	0	0	521	503	0	431	0	0	
7	0	0	0	0	526	490	0	421	0	0	
8	0	0	0	0	531	475	0	415	0	0	
9	0	0	0	0	536	457	0	412	0	0	
10	0	0	0	0	541	441	0	414	0	0	
11	0	0	0	0	545	428	0	420	0	0	
12	0	0	0	0	547	416	0	430	0	0	
13	0	0	0	0	548	409	0	441	0	0	
14	0	0	0	0	548	409	0	454	0	0	
15	0	0	0	0	546	413	0	467	0	0	
0	0	0	0	0	542	422	0	479	0	0	
1	0	0	0	0	539	435	0	488	0	0	
2	0	0	0	0	534	451	0	495	0	0	
3	0	0	0	0	528	467	0	497	0	0	
4	0	0	0	0	524	484	0	496	0	0	
5	0	0	0	0	520	500	0	491	0	0	
6	0	0	0	0	518	511	0	482	0	0	
7	0	0	0	0	516	518	0	471	0	0	
8	0	0	0	0	517	520	0	458	0	0	
9	0	0	0	0	519	516	0	446	0	0	
10	0	0	0	0	521	507	0	435	0	0	
11	0	0	0	0	525	495	0	425	0	0	
12	0	0	0	0	528	479	0	419	0	0	
13	0	0	0	0	532	462	0	415	0	0	
14	0	0	0	0	536	445	0	416	0	0	
15	0	0	0	0	539	430	0	421	0	0	
0	0	0	0	0	541	419	0	430	0	0	
1	0	0	0	0	541	412	0	440	0	0	
2	0	0	0	0	540	410	0	452	0	0	
3	0	0	0	0	538	414	0	464	0	0	
4	0	0	0	0	535	424	0	476	0	0	
5	0	0	0	0	531	437	0	485	0	0	
6	0	0	0	0	527	453	0	491	0	0	
7	0	0	0	0	523	471	0	494	0	0	
8	0	0	0	0	519	488	0	492	0	0	
9	0	0	0	0	516	504	0	487	0	0	
10	0	0	0	0	515	516	0	478	0	0	
11	0	0	0	0	515	524	0	468	0	0	
12	0	0	0	0	517	527	0	456	0	0	
13	0	0	0	0	521	524	0	444	0	0	
14	0	0	0	0	526	516	0	434	0	0	
15	0	0	0	0	532	503	0	426	0	0	
0	0	0	0	0	538	488	0	420	0	0	
1	0	0	0	0	544	471	0	418	0	0	
2	0	0	0	0	550	455	0	420	0	0	
3	0	0	0	0	554	440	0	426	0	0	
4	0	0	0	0	557	429	0	436	0	0	
5	0	0	0	0	558	422	0	447	0	0	
6	0	0	0	0	558	421	0	460	0	0	
7	0	0	0	0	556	425	0	473	0	0	
8	0	0	0	0	552	434	0	486	0	0	
9	0	0	0	0	547	447	0	495	0	0	
10	0	0	0	0	543	463	0	503	0	0	
11	0	0	0	0	537	481	0	506	0	0	
12	0	0	0	0	532	498	0	505	0	0	
13	0	0	0	0	528	514	0	502	0	0	
14	0	0	0	0	525	526	0	494	0	0	
15	0	0	0	0	524	533	0	484	0	0	
0	0	0	0	0	524	536	0	472	0	0	
1	0	0	0	0	526	533	0	460	0	0	
2	0	0	0	0	529	524	0	449	0	0	
3	0	0	0	0	534	511	0	440	0	0	
4	0	0	0	0	539	495	0	434	0	0	
5	0	0	0	0	543	478	0	430	0	0	
6	0	0	0	0	549	460	0	431	0	0	
7	0	0	0	0	553	444	0	435	0	0	
8	0	0	0	0	557	432	0	444	0	0	
9	0	0	0	0	559	424	0	454	0	0	
10	0	0	0	0	559	422	0	464	0	0	
11	0	0	0	0	557	425	0	476	0	0	
12	0	0	0	0	554	434	0	487	0	0	
13	0	0	0	0	550	447	0	496	0	0	
14	0	0	0	0	545	462	0	502	0	0	
15	0	0	0	0	540	480	0	504	0	0	
0	0	0	0	0	536	497	0	501	0	0	
1	0	0	0	0	531	512	0	496	0	0	
2	0	0	0	0	528	524	0	487	0	0	
3	0	0	0	0	526	530	0	476	0	0	
4	0	0	0	0	525	531	0	463	0	0	
5	0	0	0	0	526	527	0	451	0	0	
6	0	0	0	0	528	519	0	440	0	0	
7	0	0	0	0	531	505	0	431	0	0	
8	0	0	0	0	534	488	0	425	0	0	
9	0	0	0	0	538	471	0	422	0	0	
10	0	0	0	0	542	453	0	424	0	0	
11	0	0	0	0	545	438	0	430	0	0	
12	0	0	0	0	548	425	0	439	0	0	
13	0	0	0	0	549	418	0	450	0	0	
14	0	0	0	0	550	416	0	462	0	0	
15	0	0	0	0	548	420	0	475	0	0	
0	0	0	0	0	546	430	0	486	0	0	
1	0	0	0	0	543	442	0	496	0	0	
2	0	0	0	0	539	458	0	502	0	0	
3	0	0	0	0	535	476	0	503	0	0	
4	0	0	0	0	531	493	0	502	0	0	
5	0	0	0	0	527	509	0	496	0	0	
6	0	0	0	0	525	521	0	487	0	0	
7	0	0	0	0	524	528	0	476	0	0	
8	0	0	0	0	524	530	0	462	0	0	
9	0	0	0	0	525	526	0	450	0	0	
10	0	0	0	0	528	518	0	438	0	0	
11	0	0	0	0	531	504	0	428	0	0	
12	0	0	0	0	535	488	0	423	0	0	
13	0	0	0	0	539	471	0	420	0	0	
14	0	0	0	0	543	454	0	422	0	0	
15	0	0	0	0	546	440	0	428	0	0	
0	0	0	0	0	548	428	0	437	0	0	
1	0	0	0	0	549	420	0	449	0	0	
2	0	0	0	0	549	419	0	462	0	0	
3	0	0	0	0	547	423	0	475	0	0	
4	0	0	0	0	545	432	0	487	0	0	
5	0	0	0	0	541	445	0	497	0	0	
6	0	0	0	0	537	461	0	504	0	0	
7	0	0	0	0	533	479	0	506	0	0	
8	0	0	0	0	529	496	0	505	0	0	
9	0	0	0	0	525	512	0	499	0	0	
10	0	0	0	0	523	524	0	490	0	0	
11	0	0	0	0	521	531	0	478	0	0	
12	0	0	0	0	521	532	0	464	0	0	
13	0	0	0	0	522	528	0	451	0	0	
14	0	0	0	0	525	519	0	440	0	0	
15	0	0	0	0	528	505	0	430	0	0	
0	0	0	0	0	532	489	0	423	0	0	
1	0	0	0	0	537	472	0	419	0	0	
2	0	0	0	0	542	453	0	421	0	0	
3	0	0	0	0	545	438	0	426	0	0	
4	0	0	0	0	547	425	0	434	0	0	
5	0	0	0	0	549	417	0	445	0	0	
6	0	0	0	0	549	415	0	456	0	0	
7	0	0	0	0	547	418	0	469	0	0	
8	0	0	0	0	544	427	0	480	0	0	
9	0	0	0	0	540	439	0	489	0	0	
10	0	0	0	0	536	455	0	495	0	0	
11	0	0	0	0	531	473	0	497	0	0	
12	0	0	0	0	526	491	0	496	0	0	
13	0	0	0	0	523	507	0	491	0	0	
14	0	0	0	0	520	519	0	482	0	0	
15	0	0	0	0	519	527	0	472	0	0	
0	0	0	0	0	520	530	0	460	0	0	
1	0	0	0	0	522	527	0	449	0	0	
2	0	0	0	0	526	518	0	438	0	0	
3	0	0	0	0	531	505	0	430	0	0	
4	0	0	0	0	536	489	0	424	0	0	
5	0	0	0	0	542	472	0	422	0	0	
6	0	0	0	0	548	455	0	424	0	0	
7	0	0	0	0	553	440	0	430	0	0	
8	0	0	0	0	557	429	0	439	0	0	
9	0	0	0	0	559	422	0	451	0	0	
10	0	0	0	0	560	421	0	463	0	0	
11	0	0	0	0	558	424	0	476	0	0	
12	0	0	0	0	556	434	0	487	0	0	
13	0	0	0	0	553	447	0	497	0	0	
14	0	0	0	0	548	463	0	503	0	0	
15	0	0	0	0	544	482	0	505	0	0	
0	0	0	0	0	539	499	0	505	0	0	
1	0	0	0	0	535	515	0	499	0	0	
2	0	0	0	0	532	527	0	491	0	0	
3	0	0	0	0	530	534	0	480	0	0	
4	0	0	0	0	529	536	0	468	0	0	
5	0	0	0	0	531	532	0	456	0	0	
6	0	0	0	0	533	524	0	445	0	0	
7	0	0	0	0	536	510	0	436	0	0	
8	0	0	0	0	540	493	0	430	0	0	
9	0	0	0	0	544	475	0	427	0	0	
10	0	0	0	0	548	456	0	429	0	0	
11	0	0	0	0	552	441	0	435	0	0	
12	0	0	0	0	555	428	0	443	0	0	
13	0	0	0	0	556	421	0	454	0	0	
14	0	0	0	0	555	419	0	466	0	0	
15	0	0	0	0	553	422	0	478	0	0	
0	0	0	0	0	551	432	0	489	0	0	
1	0	0	0	0	547	444	0	497	0	0	
2	0	0	0	0	542	461	0	504	0	0	
3	0	0	0	0	537	479	0	505	0	0	
4	0	0	0	0	532	496	0	504	0	0	
5	0	0	0	0	528	513	0	499	0	0	
6	0	0	0	0	525	526	0	490	0	0	
7	0	0	0	0	523	533	0	479	0	0	
8	0	0	0	0	523	535	0	467	0	0	
9	0	0	0	0	524	531	0	455	0	0	
10	0	0	0	0	527	523	0	443	0	0	
11	0	0	0	0	530	509	0	434	0	0	
12	0	0	0	0	534	492	0	428	0	0	
13	0	0	0	0	538	475	0	425	0	0	
14	0	0	0	0	542	456	0	427	0	0	
15	0	0	0	0	546	441	0	433	0	0	
0	0	0	0	0	548	428	0	441	0	0	
1	0	0	0	0	550	420	0	453	0	0	
2	0	0	0	0	550	417	0	466	0	0	
3	0	0	0	0	548	420	0	478	0	0	
4	0	0	0	0	546	429	0	490	0	0	
5	0	0	0	0	542	441	0	499	0	0	
6	0	0	0	0	538	457	0	505	0	0	
7	0	0	0	0	534	474	0	507	0	0	
8	0	0	0	0	529	491	0	505	0	0	
9	0	0	0	0	525	507	0	499	0	0	
10	0	0	0	0	522	519	0	490	0	0	
11	0	0	0	0	520	526	0	478	0	0	
12	0	0	0	0	521	528	0	466	0	0	
13	0	0	0	0	522	524	0	453	0	0	
14	0	0	0	0	525	516	0	442	0	0	
15	0	0	0	0	529	503	0	433	0	0	
0	0	0	0	0	534	486	0	427	0	0	
1	0	0	0	0	537	469	0	424	0	0	
2	0	0	0	0	542	451	0	425	0	0	
3	0	0	0	0	545	436	0	431	0	0	
4	0	0	0	0	547	423	0	440	0	0	
5	0	0	0	0	547	416	0	451	0	0	
6	0	0	0	0	547	414	0	464	0	0	
7	0	0	0	0	545	417	0	476	0	0	
8	0	0	0	0	543	427	0	488	0	0	
9	0	0	0	0	540	440	0	497	0	0	
10	0	0	0	0	536	456	0	504	0	0	
11	0	0	0	0	533	475	0	507	0	0	
12	0	0	0	0	529	492	0	507	0	0	
13	0	0	0	0	527	508	0	501	0	0	
14	0	0	0	0	526	520	0	493	0	0	
15	0	0	0	0	525	528	0	482	0	0	
0	0	0	0	0	527	530	0	469	0	0	
1	0	0	0	0	529	527	0	457	0	0	
2	0	0	0	0	533	519	0	446	0	0	
3	0	0	0	0	538	507	0	438	0	0	
4	0	0	0	0	542	492	0	432	0	0	
5	0	0	0	0	547	475	0	430	0	0	
6	0	0	0	0	551	458	0	432	0	0	
7	0	0	0	0	555	443	0	438	0	0	
8	0	0	0	0	558	432	0	448	0	0	
9	0	0	0	0	558	425	0	459	0	0	
10	0	0	0	0	557	423	0	472	0	0	
11	0	0	0	0	555	427	0	485	0	0	
12	0	0	0	0	551	436	0	497	0	0	
13	0	0	0	0	547	449	0	507	0	0	
14	0	0	0	0	542	465	0	513	0	0	
15	0	0	0	0	536	483	0	515	0	0	
0	0	0	0	0	531	500	0	513	0	0	
1	0	0	0	0	527	516	0	508	0	0	
2	0	0	0	0	525	528	0	500	0	0	
3	0	0	0	0	524	535	0	488	0	0	
4	0	0	0	0	524	537	0	476	0	0	
5	0	0	0	0	526	534	0	463	0	0	
6	0	0	0	0	530	526	0	452	0	0	
7	0	0	0	0	534	512	0	443	0	0	
8	0	0	0	0	539	496	0	436	0	0	
9	0	0	0	0	543	478	0	433	0	0	
10	0	0	0	0	548	461	0	434	0	0	
11	0	0	0	0	552	446	0	440	0	0	
12	0	0	0	0	553	434	0	448	0	0	
13	0	0	0	0	556	427	0	459	0	0	
14	0	0	0	0	555	425	0	472	0	0	
15	0	0	0	0	552	428	0	484	0	0	
0	0	0	0	0	550	438	0	496	0	0	
1	0	0	0	0	546	451	0	505	0	0	
2	0	0	0	0	541	467	0	512	0	0	
3	0	0	0	0	536	484	0	515	0	0	
4	0	0	0	0	532	502	0	513	0	0	
5	0	0	0	0	529	519	0	509	0	0	
6	0	0	0	0	526	530	0	501	0	0	
7	0	0	0	0	525	537	0	490	0	0	
8	0	0	0	0	525	539	0	477	0	0	
9	0	0	0	0	526	536	0	464	0	0	
10	0	0	0	0	528	527	0	453	0	0	
11	0	0	0	0	531	513	0	444	0	0	
12	0	0	0	0	535	496	0	437	0	0	
13	0	0	0	0	539	478	0	434	0	0	
14	0	0	0	0	542	461	0	435	0	0	
15	0	0	0	0	545	445	0	440	0	0	
0	0	0	0	0	548	433	0	449	0	0	
1	0	0	0	0	550	426	0	460	0	0	
2	0	0	0	0	548	423	0	473	0	0	
3	0	0	0	0	547	426	0	484	0	0	
4	0	0	0	0	545	435	0	497	0	0	
5	0	0	0	0	543	448	0	507	0	0	
6	0	0	0	0	539	463	0	513	0	0	
7	0	0	0	0	535	481	0	515	0	0	
8	0	0	0	0	531	498	0	514	0	0	
9	0	0	0	0	528	514	0	509	0	0	
10	0	0	0	0	526	526	0	500	0	0	
11	0	0	0	0	526	534	0	488	0	0	
12	0	0	0	0	526	536	0	476	0	0	
13	0	0	0	0	527	532	0	463	0	0	
14	0	0	0	0	530	524	0	451	0	0	
15	0	0	0	0	533	510	0	440	0	0	
0	0	0	0	0	537	494	0	433	0	0	
1	0	0	0	0	540	475	0	430	0	0	
2	0	0	0	0	544	457	0	429	0	0	
3	0	0	0	0	547	442	0	434	0	0	
4	0	0	0	0	548	430	0	442	0	0	
5	0	0	0	0	549	422	0	453	0	0	
6	0	0	0	0	547	420	0	465	0	0	
7	0	0	0	0	546	423	0	478	0	0	
8	0	0	0	0	543	432	0	489	0	0	
9	0	0	0	0	539	445	0	498	0	0	
10	0	0	0	0	535	461	0	505	0	0	
11	0	0	0	0	531	479	0	508	0	0	
12	0	0	0	0	527	497	0	507	0	0	
13	0	0	0	0	524	513	0	503	0	0	
14	0	0	0	0	523	526	0	495	0	0	
15	0	0	0	0	522	534	0	484	0	0	
0	0	0	0	0	524	537	0	473	0	0	
1	0	0	0	0	527	534	0	461	0	0	
2	0	0	0	0	531	527	0	451	0	0	
3	0	0	0	0	535	514	0	442	0	0	
4	0	0	0	0	540	498	0	436	0	0	
5	0	0	0	0	544	481	0	434	0	0	
6	0	0	0	0	549	464	0	436	0	0	
7	0	0	0	0	553	450	0	441	0	0	
8	0	0	0	0	556	437	0	450	0	0	
9	0	0	0	0	557	430	0	461	0	0	
10	0	0	0	0	558	428	0	474	0	0	
11	0	0	0	0	557	432	0	487	0	0	
12	0	0	0	0	555	441	0	499	0	0	
13	0	0	0	0	551	454	0	508	0	0	
14	0	0	0	0	547	470	0	515	0	0	
15	0	0	0	0	543	488	0	518	0	0	
0	0	0	0	0	539	506	0	516	0	0	
1	0	0	0	0	535	522	0	511	0	0	
2	0	0	0	0	532	535	0	503	0	0	
3	0	0	0	0	530	542	0	491	0	0	
4	0	0	0	0	528	543	0	479	0	0	
5	0	0	0	0	529	540	0	466	0	0	
6	0	0	0	0	531	531	0	454	0	0	
7	0	0	0	0	535	518	0	444	0	0	
8	0	0	0	0	539	501	0	438	0	0	
9	0	0	0	0	543	483	0	435	0	0	
10	0	0	0	0	548	465	0	435	0	0	
11	0	0	0	0	553	450	0	442	0	0	
12	0	0	0	0	557	438	0	451	0	0	
13	0	0	0	0	559	430	0	463	0	0	
14	0	0	0	0	560	428	0	476	0	0	
15	0	0	0	0	560	432	0	489	0	0	
0	0	0	0	0	559	441	0	502	0	0	
1	0	0	0	0	556	455	0	513	0	0	
2	0	0	0	0	553	472	0	520	0	0	
3	0	0	0	0	548	489	0	524	0	0	
4	0	0	0	0	544	508	0	522	0	0	
5	0	0	0	0	540	524	0	517	0	0	
6	0	0	0	0	537	537	0	508	0	0	
7	0	0	0	0	535	544	0	496	0	0	
8	0	0	0	0	535	547	0	482	0	0	
9	0	0	0	0	535	542	0	468	0	0	
10	0	0	0	0	537	534	0	456	0	0	
11	0	0	0	0	540	520	0	445	0	0	
12	0	0	0	0	544	503	0	438	0	0	
13	0	0	0	0	548	484	0	434	0	0	
14	0	0	0	0	552	467	0	435	0	0	
15	0	0	0	0	556	451	0	440	0	0	
0	0	0	0	0	559	438	0	449	0	0	
1	0	0	0	0	560	429	0	460	0	0	
2	0	0	0	0	559	427	0	473	0	0	
3	0	0	0	0	558	430	0	486	0	0	
4	0	0	0	0	556	438	0	499	0	0	
5	0	0	0	0	551	451	0	509	0	0	
6	0	0	0	0	547	467	0	516	0	0	
7	0	0	0	0	543	484	0	519	0	0	
8	0	0	0	0	539	503	0	519	0	0	
9	0	0	0	0	535	519	0	514	0	0	
10	0	0	0	0	532	532	0	506	0	0	
11	0	0	0	0	531	541	0	496	0	0	
12	0	0	0	0	532	544	0	483	0	0	
13	0	0	0	0	535	542	0	472	0	0	
14	0	0	0	0	539	535	0	461	0	0	
15	0	0	0	0	543	522	0	451	0	0	
0	0	0	0	0	549	507	0	445	0	0	
1	0	0	0	0	554	489	0	443	0	0	
2	0	0	0	0	559	472	0	443	0	0	
3	0	0	0	0	563	456	0	448	0	0	
4	0	0	0	0	563	442	0	454	0	0	
5	0	0	0	0	562	432	0	462	0	0	
6	0	0	0	0	558	425	0	471	0	0	
7	0	0	0	0	551	424	0	478	0	0	
8	0	0	0	0	542	427	0	484	0	0	
9	0	0	0	0	529	432	0	486	0	0	
10	0	0	0	0	515	440	0	484	0	0	
11	0	0	0	0	500	448	0	478	0	0	
12	0	0	0	0	485	455	0	467	0	0	
13	0	0	0	0	469	461	0	451	0	0	
14	0	0	0	0	452	462	0	431	0	0	
15	0	0	0	0	439	458	0	408	0	0	
0	0	0	0	0	426	448	0	384	0	0	
1	0	0	0	0	415	433	0	359	0	0	
2	0	0	0	0	405	413	0	335	0	0	
3	0	0	0	0	397	388	0	312	0	0	
4	0	0	0	0	390	359	0	293	0	0	
5	0	0	0	0	382	329	0	277	0	0	
6	0	0	0	0	376	299	0	264	0	0	
7	0	0	0	0	369	271	0	257	0	0	
8	0	0	0	0	361	246	0	254	0	0	
9	0	0	0	0	353	225	0	254	0	0	
10	0	0	0	0	343	211	0	256	0	0	
11	0	0	0	0	333	203	0	260	0	0	
12	0	0	0	0	322	202	0	266	0	0	
13	0	0	0	0	313	208	0	272	0	0	
14	0	0	0	0	306	220	0	278	0	0	
15	0	0	0	0	300	239	0	283	0	0	
0	0	0	0	0	299	260	0	287	0	0	
1	0	0	0	0	302	284	0	290	0	0	
2	0	0	0	0	309	307	0	293	0	0	
3	0	0	0	0	322	330	0	296	0	0	
4	0	0	0	0	339	351	0	300	0	0	
5	0	0	0	0	362	368	0	306	0	0	
6	0	0	0	0	388	382	0	316	0	0	
7	0	0	0	0	417	391	0	327	0	0	
8	0	0	0	0	447	399	0	343	0	0	
9	0	0	0	0	478	403	0	361	0	0	
10	0	0	0	0	507	406	0	384	0	0	
11	0	0	0	0	534	410	0	409	0	0	
12	0	0	0	0	557	414	0	435	0	0	
13	0	0	0	0	575	421	0	462	0	0	
14	0	0	0	0	588	431	0	487	0	0	
15	0	0	0	0	596	443	0	510	0	0	
0	0	0	0	0	600	460	0	529	0	0	
1	0	0	0	0	598	478	0	544	0	0	
2	0	0	0	0	593	497	0	553	0	0	
3	0	0	0	0	585	517	0	556	0	0	
4	0	0	0	0	576	535	0	554	0	0	
5	0	0	0	0	566	551	0	546	0	0	
6	0	0	0	0	557	561	0	534	0	0	
7	0	0	0	0	548	567	0	518	0	0	
8	0	0	0	0	543	567	0	500	0	0	
9	0	0	0	0	540	560	0	482	0	0	
10	0	0	0	0	539	549	0	466	0	0	
11	0	0	0	0	541	533	0	452	0	0	
12	0	0	0	0	544	515	0	443	0	0	
13	0	0	0	0	549	496	0	438	0	0	
14	0	0	0	0	555	476	0	437	0	0	
15	0	0	0	0	561	460	0	443	0	0	
0	0	0	0	0	566	447	0	452	0	0	
1	0	0	0	0	570	439	0	465	0	0	
2	0	0	0	0	572	436	0	479	0	0	
3	0	0	0	0	574	440	0	495	0	0	
4	0	0	0	0	573	450	0	510	0	0	
5	0	0	0	0	571	463	0	523	0	0	
6	0	0	0	0	568	480	0	532	0	0	
7	0	0	0	0	563	498	0	537	0	0	
8	0	0	0	0	558	516	0	539	0	0	
9	0	0	0	0	554	533	0	535	0	0	
10	0	0	0	0	551	546	0	528	0	0	
11	0	0	0	0	548	555	0	518	0	0	
12	0	0	0	0	547	558	0	505	0	0	
13	0	0	0	0	549	555	0	494	0	0	
14	0	0	0	0	551	548	0	482	0	0	
15	0	0	0	0	556	536	0	472	0	0	
0	0	0	0	0	560	520	0	465	0	0	
1	0	0	0	0	566	504	0	461	0	0	
2	0	0	0	0	572	487	0	462	0	0	
3	0	0	0	0	577	472	0	466	0	0	
4	0	0	0	0	582	460	0	474	0	0	
5	0	0	0	0	584	452	0	484	0	0	
6	0	0	0	0	585	449	0	496	0	0	
7	0	0	0	0	583	451	0	509	0	0	
8	0	0	0	0	581	460	0	521	0	0	
9	0	0	0	0	576	471	0	530	0	0	
10	0	0	0	0	571	486	0	537	0	0	
11	0	0	0	0	565	503	0	540	0	0	
12	0	0	0	0	559	519	0	540	0	0	
13	0	0	0	0	553	535	0	535	0	0	
14	0	0	0	0	548	546	0	527	0	0	
15	0	0	0	0	545	553	0	515	0	0	
0	0	0	0	0	544	556	0	502	0	0	
1	0	0	0	0	545	552	0	489	0	0	
2	0	0	0	0	547	544	0	477	0	0	
3	0	0	0	0	550	531	0	466	0	0	
4	0	0	0	0	555	515	0	459	0	0	
5	0	0	0	0	559	497	0	455	0	0	
6	0	0	0	0	564	479	0	455	0	0	
7	0	0	0	0	569	464	0	459	0	0	
8	0	0	0	0	573	451	0	467	0	0	
9	0	0	0	0	576	443	0	477	0	0	
10	0	0	0	0	576	440	0	489	0	0	
11	0	0	0	0	576	442	0	502	0	0	
12	0	0	0	0	575	450	0	514	0	0	
13	0	0	0	0	572	462	0	524	0	0	
14	0	0	0	0	568	478	0	532	0	0	
15	0	0	0	0	564	496	0	536	0	0	
0	0	0	0	0	560	513	0	537	0	0	
1	0	0	0	0	556	530	0	533	0	0	
2	0	0	0	0	553	543	0	526	0	0	
3	0	0	0	0	551	551	0	516	0	0	
4	0	0	0	0	551	555	0	503	0	0	
5	0	0	0	0	552	551	0	490	0	0	
6	0	0	0	0	553	543	0	479	0	0	
7	0	0	0	0	557	530	0	469	0	0	
8	0	0	0	0	561	514	0	461	0	0	
9	0	0	0	0	564	496	0	456	0	0	
10	0	0	0	0	568	477	0	457	0	0	
11	0	0	0	0	572	461	0	461	0	0	
12	0	0	0	0	575	448	0	468	0	0	
13	0	0	0	0	576	440	0	479	0	0	
14	0	0	0	0	575	437	0	490	0	0	
15	0	0	0	0	574	439	0	503	0	0	
0	0	0	0	0	572	448	0	515	0	0	
1	0	0	0	0	569	460	0	524	0	0	
2	0	0	0	0	565	476	0	531	0	0	
3	0	0	0	0	561	494	0	535	0	0	
4	0	0	0	0	558	511	0	535	0	0	
5	0	0	0	0	555	528	0	530	0	0	
6	0	0	0	0	552	541	0	522	0	0	
7	0	0	0	0	551	549	0	512	0	0	
8	0	0	0	0	551	552	0	499	0	0	
9	0	0	0	0	553	549	0	486	0	0	
10	0	0	0	0	556	540	0	476	0	0	
11	0	0	0	0	560	528	0	466	0	0	
12	0	0	0	0	563	512	0	459	0	0	
13	0	0	0	0	567	494	0	456	0	0	
14	0	0	0	0	571	475	0	456	0	0	
15	0	0	0	0	574	459	0	462	0	0	
0	0	0	0	0	576	446	0	470	0	0	
1	0	0	0	0	577	437	0	480	0	0	
2	0	0	0	0	576	434	0	492	0	0	
3	0	0	0	0	574	437	0	504	0	0	
4	0	0	0	0	570	445	0	516	0	0	
5	0	0	0	0	567	458	0	525	0	0	
6	0	0	0	0	562	474	0	531	0	0	
7	0	0	0	0	556	492	0	534	0	0	
8	0	0	0	0	551	510	0	531	0	0	
9	0	0	0	0	547	526	0	526	0	0	
10	0	0	0	0	544	540	0	517	0	0	
11	0	0	0	0	542	547	0	505	0	0	
12	0	0	0	0	542	550	0	491	0	0	
13	0	0	0	0	543	547	0	478	0	0	
14	0	0	0	0	545	539	0	466	0	0	
15	0	0	0	0	549	526	0	456	0	0	
0	0	0	0	0	553	510	0	448	0	0	
1	0	0	0	0	557	491	0	445	0	0	
2	0	0	0	0	561	473	0	445	0	0	
3	0	0	0	0	565	457	0	451	0	0	
4	0	0	0	0	568	443	0	460	0	0	
5	0	0	0	0	568	434	0	471	0	0	
6	0	0	0	0	568	431	0	483	0	0	
7	0	0	0	0	566	432	0	496	0	0	
8	0	0	0	0	564	440	0	508	0	0	
9	0	0	0	0	560	451	0	518	0	0	
10	0	0	0	0	555	467	0	524	0	0	
11	0	0	0	0	550	484	0	527	0	0	
12	0	0	0	0	545	502	0	526	0	0	
13	0	0	0	0	541	519	0	522	0	0	
14	0	0	0	0	538	531	0	512	0	0	
15	0	0	0	0	536	540	0	500	0	0	
0	0	0	0	0	536	542	0	488	0	0	
1	0	0	0	0	538	540	0	474	0	0	
2	0	0	0	0	541	532	0	463	0	0	
3	0	0	0	0	545	519	0	453	0	0	
4	0	0	0	0	549	503	0	447	0	0	
5	0	0	0	0	554	485	0	443	0	0	
6	0	0	0	0	560	468	0	444	0	0	
7	0	0	0	0	564	452	0	449	0	0	
8	0	0	0	0	568	440	0	457	0	0	
9	0	0	0	0	569	431	0	469	0	0	
10	0	0	0	0	570	428	0	481	0	0	
11	0	0	0	0	569	431	0	493	0	0	
12	0	0	0	0	566	439	0	505	0	0	
13	0	0	0	0	562	451	0	515	0	0	
14	0	0	0	0	556	465	0	522	0	0	
15	0	0	0	0	551	482	0	524	0	0	
0	0	0	0	0	544	499	0	523	0	0	
1	0	0	0	0	539	514	0	518	0	0	
2	0	0	0	0	535	526	0	508	0	0	
3	0	0	0	0	531	532	0	497	0	0	
4	0	0	0	0	531	535	0	484	0	0	
5	0	0	0	0	532	532	0	470	0	0	
6	0	0	0	0	534	523	0	458	0	0	
7	0	0	0	0	538	511	0	448	0	0	
8	0	0	0	0	543	495	0	440	0	0	
9	0	0	0	0	547	477	0	437	0	0	
10	0	0	0	0	553	460	0	438	0	0	
11	0	0	0	0	558	444	0	444	0	0	
12	0	0	0	0	561	432	0	452	0	0	
13	0	0	0	0	564	424	0	463	0	0	
14	0	0	0	0	565	421	0	476	0	0	
15	0	0	0	0	564	424	0	489	0	0	
0	0	0	0	0	563	433	0	502	0	0	
1	0	0	0	0	559	446	0	511	0	0	
2	0	0	0	0	556	462	0	519	0	0	
3	0	0	0	0	551	480	0	522	0	0	
4	0	0	0	0	547	498	0	520	0	0	
5	0	0	0	0	543	515	0	516	0	0	
6	0	0	0	0	540	527	0	508	0	0	
7	0	0	0	0	538	536	0	497	0	0	
8	0	0	0	0	538	539	0	483	0	0	
9	0	0	0	0	539	536	0	471	0	0	
10	0	0	0	0	541	528	0	460	0	0	
11	0	0	0	0	544	515	0	450	0	0	
12	0	0	0	0	547	499	0	443	0	0	
13	0	0	0	0	551	481	0	440	0	0	
14	0	0	0	0	555	463	0	440	0	0	
15	0	0	0	0	558	446	0	446	0	0	
0	0	0	0	0	560	433	0	454	0	0	
1	0	0	0	0	561	424	0	465	0	0	
2	0	0	0	0	561	420	0	477	0	0	
3	0	0	0	0	560	423	0	490	0	0	
4	0	0	0	0	558	431	0	504	0	0	
5	0	0	0	0	554	443	0	514	0	0	
6	0	0	0	0	550	459	0	521	0	0	
7	0	0	0	0	545	476	0	525	0	0	
8	0	0	0	0	541	494	0	524	0	0	
9	0	0	0	0	537	511	0	519	0	0	
10	0	0	0	0	534	524	0	511	0	0	
11	0	0	0	0	532	532	0	499	0	0	
12	0	0	0	0	531	536	0	486	0	0	
13	0	0	0	0	532	534	0	472	0	0	
14	0	0	0	0	535	526	0	461	0	0	
15	0	0	0	0	538	513	0	450	0	0	
0	0	0	0	0	542	497	0	443	0	0	
1	0	0	0	0	547	481	0	439	0	0	
2	0	0	0	0	551	463	0	439	0	0	
3	0	0	0	0	556	446	0	444	0	0	
4	0	0	0	0	559	433	0	453	0	0	
5	0	0	0	0	562	425	0	464	0	0	
6	0	0	0	0	562	420	0	477	0	0	
7	0	0	0	0	562	423	0	490	0	0	
8	0	0	0	0	560	431	0	503	0	0	
9	0	0	0	0	557	442	0	513	0	0	
10	0	0	0	0	553	458	0	521	0	0	
11	0	0	0	0	549	476	0	525	0	0	
12	0	0	0	0	544	495	0	524	0	0	
13	0	0	0	0	540	512	0	520	0	0	
14	0	0	0	0	537	525	0	512	0	0	
15	0	0	0	0	535	535	0	500	0	0	
0	0	0	0	0	534	538	0	487	0	0	
1	0	0	0	0	535	536	0	474	0	0	
2	0	0	0	0	537	529	0	462	0	0	
3	0	0	0	0	541	517	0	452	0	0	
4	0	0	0	0	546	502	0	444	0	0	
5	0	0	0	0	550	483	0	441	0	0	
6	0	0	0	0	555	465	0	441	0	0	
7	0	0	0	0	560	450	0	446	0	0	
8	0	0	0	0	563	436	0	454	0	0	
9	0	0	0	0	565	428	0	465	0	0	
10	0	0	0	0	566	425	0	477	0	0	
11	0	0	0	0	564	427	0	490	0	0	
12	0	0	0	0	561	435	0	503	0	0	
13	0	0	0	0	557	448	0	512	0	0	
14	0	0	0	0	552	463	0	519	0	0	
15	0	0	0	0	547	480	0	523	0	0	
0	0	0	0	0	541	498	0	523	0	0	
1	0	0	0	0	536	514	0	518	0	0	
2	0	0	0	0	533	527	0	510	0	0	
3	0	0	0	0	531	535	0	499	0	0	
4	0	0	0	0	531	537	0	487	0	0	
5	0	0	0	0	534	535	0	475	0	0	
6	0	0	0	0	537	527	0	463	0	0	
7	0	0	0	0	542	515	0	454	0	0	
8	0	0	0	0	547	499	0	446	0	0	
9	0	0	0	0	552	481	0	443	0	0	
10	0	0	0	0	558	464	0	443	0	0	
11	0	0	0	0	562	449	0	448	0	0	
12	0	0	0	0	565	436	0	455	0	0	
13	0	0	0	0	567	427	0	466	0	0	
14	0	0	0	0	566	424	0	478	0	0	
15	0	0	0	0	565	427	0	489	0	0	
0	0	0	0	0	562	435	0	501	0	0	
1	0	0	0	0	558	447	0	510	0	0	
2	0	0	0	0	553	462	0	518	0	0	
3	0	0	0	0	548	480	0	521	0	0	
4	0	0	0	0	543	497	0	519	0	0	
5	0	0	0	0	540	514	0	516	0	0	
6	0	0	0	0	537	526	0	508	0	0	
7	0	0	0	0	536	535	0	497	0	0	
8	0	0	0	0	536	537	0	485	0	0	
9	0	0	0	0	537	535	0	472	0	0	
10	0	0	0	0	540	528	0	461	0	0	
11	0	0	0	0	543	515	0	451	0	0	
12	0	0	0	0	548	499	0	444	0	0	
13	0	0	0	0	552	482	0	441	0	0	
14	0	0	0	0	557	465	0	441	0	0	
15	0	0	0	0	561	449	0	447	0	0	
0	0	0	0	0	563	436	0	455	0	0	
1	0	0	0	0	565	428	0	466	0	0	
2	0	0	0	0	565	425	0	479	0	0	
3	0	0	0	0	563	428	0	492	0	0	
4	0	0	0	0	561	437	0	504	0	0	
5	0	0	0	0	558	449	0	515	0	0	
6	0	0	0	0	554	465	0	521	0	0	
7	0	0	0	0	550	483	0	524	0	0	
8	0	0	0	0	546	502	0	524	0	0	
9	0	0	0	0	542	519	0	520	0	0	
10	0	0	0	0	540	532	0	512	0	0	
11	0	0	0	0	539	542	0	501	0	0	
12	0	0	0	0	539	545	0	489	0	0	
13	0	0	0	0	541	543	0	476	0	0	
14	0	0	0	0	544	536	0	465	0	0	
15	0	0	0	0	548	524	0	455	0	0	
0	0	0	0	0	552	508	0	448	0	0	
1	0	0	0	0	556	490	0	444	0	0	
2	0	0	0	0	561	472	0	444	0	0	
3	0	0	0	0	565	456	0	450	0	0	
4	0	0	0	0	568	443	0	458	0	0	
5	0	0	0	0	569	434	0	470	0	0	
6	0	0	0	0	569	431	0	482	0	0	
7	0	0	0	0	569	433	0	495	0	0	
8	0	0	0	0	567	441	0	508	0	0	
9	0	0	0	0	564	453	0	517	0	0	
10	0	0	0	0	560	468	0	525	0	0	
11	0	0	0	0	556	486	0	528	0	0	
12	0	0	0	0	552	504	0	528	0	0	
13	0	0	0	0	549	521	0	523	0	0	
14	0	0	0	0	546	533	0	515	0	0	
15	0	0	0	0	544	541	0	503	0	0	
0	0	0	0	0	543	544	0	490	0	0	
1	0	0	0	0	544	541	0	476	0	0	
2	0	0	0	0	546	534	0	464	0	0	
3	0	0	0	0	548	520	0	454	0	0	
4	0	0	0	0	551	504	0	446	0	0	
5	0	0	0	0	553	486	0	442	0	0	
6	0	0	0	0	557	468	0	441	0	0	
7	0	0	0	0	560	451	0	446	0	0	
8	0	0	0	0	561	437	0	453	0	0	
9	0	0	0	0	561	427	0	464	0	0	
10	0	0	0	0	561	423	0	475	0	0	
11	0	0	0	0	559	425	0	488	0	0	
12	0	0	0	0	556	433	0	501	0	0	
13	0	0	0	0	552	444	0	511	0	0	
14	0	0	0	0	548	459	0	518	0	0	
15	0	0	0	0	544	477	0	521	0	0	
0	0	0	0	0	540	494	0	521	0	0	
1	0	0	0	0	536	511	0	516	0	0	
2	0	0	0	0	533	524	0	508	0	0	
3	0	0	0	0	531	533	0	497	0	0	
4	0	0	0	0	531	536	0	485	0	0	
5	0	0	0	0	533	535	0	471	0	0	
6	0	0	0	0	536	527	0	460	0	0	
7	0	0	0	0	539	515	0	449	0	0	
8	0	0	0	0	543	499	0	442	0	0	
9	0	0	0	0	547	483	0	438	0	0	
10	0	0	0	0	552	464	0	438	0	0	
11	0	0	0	0	556	448	0	442	0	0	
12	0	0	0	0	559	435	0	450	0	0	
13	0	0	0	0	561	427	0	460	0	0	
14	0	0	0	0	561	424	0	472	0	0	
15	0	0	0	0	560	426	0	485	0	0	
0	0	0	0	0	558	434	0	496	0	0	
1	0	0	0	0	554	446	0	506	0	0	
2	0	0	0	0	550	462	0	513	0	0	
3	0	0	0	0	545	480	0	516	0	0	
4	0	0	0	0	541	497	0	516	0	0	
5	0	0	0	0	537	514	0	512	0	0	
6	0	0	0	0	534	527	0	504	0	0	
7	0	0	0	0	532	536	0	494	0	0	
8	0	0	0	0	531	540	0	481	0	0	
9	0	0	0	0	532	537	0	469	0	0	
10	0	0	0	0	535	530	0	457	0	0	
11	0	0	0	0	539	517	0	448	0	0	
12	0	0	0	0	542	501	0	440	0	0	
13	0	0	0	0	547	483	0	436	0	0	
14	0	0	0	0	551	465	0	437	0	0	
15	0	0	0	0	555	449	0	441	0	0	
0	0	0	0	0	558	435	0	449	0	0	
1	0	0	0	0	559	426	0	460	0	0	
2	0	0	0	0	559	423	0	472	0	0	
3	0	0	0	0	557	424	0	484	0	0	
4	0	0	0	0	554	432	0	496	0	0	
5	0	0	0	0	550	443	0	505	0	0	
6	0	0	0	0	545	458	0	512	0	0	
7	0	0	0	0	540	475	0	515	0	0	
8	0	0	0	0	535	492	0	514	0	0	
9	0	0	0	0	529	508	0	508	0	0	
10	0	0	0	0	526	520	0	500	0	0	
11	0	0	0	0	524	528	0	489	0	0	
12	0	0	0	0	523	531	0	476	0	0	
13	0	0	0	0	524	528	0	463	0	0	
14	0	0	0	0	526	520	0	451	0	0	
15	0	0	0	0	530	507	0	441	0	0	
0	0	0	0	0	534	491	0	434	0	0	
1	0	0	0	0	538	473	0	430	0	0	
2	0	0	0	0	543	455	0	430	0	0	
3	0	0	0	0	547	439	0	435	0	0	
4	0	0	0	0	551	425	0	443	0	0	
5	0	0	0	0	553	416	0	454	0	0	
6	0	0	0	0	553	412	0	466	0	0	
7	0	0	0	0	552	415	0	479	0	0	
8	0	0	0	0	551	422	0	492	0	0	
9	0	0	0	0	548	435	0	502	0	0	
10	0	0	0	0	544	451	0	510	0	0	
11	0	0	0	0	540	469	0	514	0	0	
12	0	0	0	0	536	487	0	514	0	0	
13	0	0	0	0	532	504	0	510	0	0	
14	0	0	0	0	530	519	0	502	0	0	
15	0	0	0	0	528	528	0	492	0	0	
0	0	0	0	0	528	532	0	479	0	0	
1	0	0	0	0	529	531	0	465	0	0	
2	0	0	0	0	531	523	0	454	0	0	
3	0	0	0	0	535	511	0	444	0	0	
4	0	0	0	0	539	496	0	435	0	0	
5	0	0	0	0	542	478	0	431	0	0	
6	0	0	0	0	547	459	0	430	0	0	
7	0	0	0	0	550	443	0	435	0	0	
8	0	0	0	0	552	428	0	442	0	0	
9	0	0	0	0	554	419	0	452	0	0	
10	0	0	0	0	553	414	0	464	0	0	
11	0	0	0	0	551	415	0	476	0	0	
12	0	0	0	0	548	423	0	489	0	0	
13	0	0	0	0	543	434	0	499	0	0	
14	0	0	0	0	540	450	0	507	0	0	
15	0	0	0	0	536	467	0	511	0	0	
0	0	0	0	0	531	486	0	511	0	0	
1	0	0	0	0	528	503	0	507	0	0	
2	0	0	0	0	525	516	0	499	0	0	
3	0	0	0	0	524	526	0	488	0	0	
4	0	0	0	0	524	531	0	476	0	0	
5	0	0	0	0	526	530	0	463	0	0	
6	0	0	0	0	529	523	0	451	0	0	
7	0	0	0	0	533	512	0	440	0	0	
8	0	0	0	0	537	497	0	433	0	0	
9	0	0	0	0	542	480	0	429	0	0	
10	0	0	0	0	546	463	0	429	0	0	
11	0	0	0	0	550	447	0	434	0	0	
12	0	0	0	0	552	434	0	442	0	0	
13	0	0	0	0	553	425	0	454	0	0	
14	0	0	0	0	553	422	0	466	0	0	
15	0	0	0	0	552	424	0	479	0	0	
0	0	0	0	0	549	432	0	492	0	0	
1	0	0	0	0	545	444	0	502	0	0	
2	0	0	0	0	542	460	0	510	0	0	
3	0	0	0	0	536	477	0	514	0	0	
4	0	0	0	0	532	495	0	513	0	0	
5	0	0	0	0	528	512	0	510	0	0	
6	0	0	0	0	525	524	0	502	0	0	
7	0	0	0	0	523	533	0	492	0	0	
8	0	0	0	0	523	536	0	478	0	0	
9	0	0	0	0	524	534	0	465	0	0	
10	0	0	0	0	526	526	0	453	0	0	
11	0	0	0	0	530	513	0	443	0	0	
12	0	0	0	0	533	497	0	435	0	0	
13	0	0	0	0	537	480	0	430	0	0	
14	0	0	0	0	542	462	0	430	0	0	
15	0	0	0	0	546	446	0	433	0	0	
0	0	0	0	0	549	432	0	441	0	0	
1	0	0	0	0	551	423	0	451	0	0	
2	0	0	0	0	552	420	0	464	0	0	
3	0	0	0	0	551	422	0	477	0	0	
4	0	0	0	0	550	430	0	490	0	0	
5	0	0	0	0	547	442	0	501	0	0	
6	0	0	0	0	543	458	0	508	0	0	
7	0	0	0	0	540	476	0	513	0	0	
8	0	0	0	0	536	494	0	513	0	0	
9	0	0	0	0	531	510	0	509	0	0	
10	0	0	0	0	529	524	0	502	0	0	
11	0	0	0	0	527	532	0	492	0	0	
12	0	0	0	0	527	536	0	479	0	0	
13	0	0	0	0	527	534	0	466	0	0	
14	0	0	0	0	530	527	0	454	0	0	
15	0	0	0	0	532	514	0	443	0	0	
0	0	0	0	0	537	498	0	435	0	0	
1	0	0	0	0	540	481	0	430	0	0	
2	0	0	0	0	544	462	0	430	0	0	
3	0	0	0	0	548	446	0	434	0	0	
4	0	0	0	0	551	432	0	441	0	0	
5	0	0	0	0	552	423	0	451	0	0	
6	0	0	0	0	552	419	0	463	0	0	
7	0	0	0	0	551	420	0	476	0	0	
8	0	0	0	0	548	427	0	488	0	0	
9	0	0	0	0	544	438	0	498	0	0	
10	0	0	0	0	540	453	0	506	0	0	
11	0	0	0	0	536	471	0	509	0	0	
12	0	0	0	0	531	488	0	510	0	0	
13	0	0	0	0	526	506	0	506	0	0	
14	0	0	0	0	523	519	0	498	0	0	
15	0	0	0	0	521	529	0	488	0	0	
0	0	0	0	0	521	534	0	476	0	0	
1	0	0	0	0	523	532	0	464	0	0	
2	0	0	0	0	526	525	0	452	0	0	
3	0	0	0	0	530	515	0	442	0	0	
4	0	0	0	0	535	499	0	435	0	0	
5	0	0	0	0	540	483	0	430	0	0	
6	0	0	0	0	545	465	0	431	0	0	
7	0	0	0	0	549	450	0	435	0	0	
8	0	0	0	0	553	436	0	443	0	0	
9	0	0	0	0	555	428	0	454	0	0	
10	0	0	0	0	555	424	0	466	0	0	
11	0	0	0	0	554	426	0	479	0	0	
12	0	0	0	0	552	434	0	492	0	0	
13	0	0	0	0	549	445	0	502	0	0	
14	0	0	0	0	545	462	0	509	0	0	
15	0	0	0	0	541	479	0	514	0	0	
0	0	0	0	0	536	496	0	514	0	0	
1	0	0	0	0	533	513	0	510	0	0	
2	0	0	0	0	529	527	0	502	0	0	
3	0	0	0	0	527	536	0	491	0	0	
4	0	0	0	0	527	540	0	479	0	0	
5	0	0	0	0	528	538	0	466	0	0	
6	0	0	0	0	531	531	0	454	0	0	
7	0	0	0	0	534	518	0	443	0	0	
8	0	0	0	0	537	503	0	436	0	0	
9	0	0	0	0	541	484	0	431	0	0	
10	0	0	0	0	545	465	0	431	0	0	
11	0	0	0	0	548	449	0	435	0	0	
12	0	0	0	0	551	434	0	442	0	0	
13	0	0	0	0	551	425	0	451	0	0	
14	0	0	0	0	551	419	0	463	0	0	
15	0	0	0	0	549	420	0	476	0	0	
0	0	0	0	0	546	427	0	487	0	0	
1	0	0	0	0	542	438	0	496	0	0	
2	0	0	0	0	537	453	0	503	0	0	
3	0	0	0	0	532	470	0	507	0	0	
4	0	0	0	0	528	487	0	507	0	0	
5	0	0	0	0	524	504	0	503	0	0	
6	0	0	0	0	520	516	0	495	0	0	
7	0	0	0	0	518	525	0	484	0	0	
8	0	0	0	0	518	529	0	473	0	0	
9	0	0	0	0	520	527	0	460	0	0	
10	0	0	0	0	523	520	0	448	0	0	
11	0	0	0	0	526	508	0	438	0	0	
12	0	0	0	0	529	492	0	431	0	0	
13	0	0	0	0	534	474	0	426	0	0	
14	0	0	0	0	537	456	0	426	0	0	
15	0	0	0	0	541	440	0	429	0	0	
0	0	0	0	0	543	425	0	436	0	0	
1	0	0	0	0	544	416	0	447	0	0	
2	0	0	0	0	544	412	0	458	0	0	
3	0	0	0	0	542	413	0	471	0	0	
4	0	0	0	0	539	420	0	483	0	0	
5	0	0	0	0	535	432	0	493	0	0	
6	0	0	0	0	531	447	0	501	0	0	
7	0	0	0	0	526	464	0	505	0	0	
8	0	0	0	0	523	483	0	505	0	0	
9	0	0	0	0	519	499	0	502	0	0	
10	0	0	0	0	517	513	0	495	0	0	
11	0	0	0	0	516	521	0	484	0	0	
12	0	0	0	0	516	526	0	472	0	0	
13	0	0	0	0	518	524	0	459	0	0	
14	0	0	0	0	521	517	0	447	0	0	
15	0	0	0	0	525	505	0	436	0	0	
0	0	0	0	0	529	488	0	429	0	0	
1	0	0	0	0	533	472	0	423	0	0	
2	0	0	0	0	537	454	0	423	0	0	
3	0	0	0	0	540	437	0	427	0	0	
4	0	0	0	0	543	423	0	434	0	0	
5	0	0	0	0	544	414	0	444	0	0	
6	0	0	0	0	543	410	0	455	0	0	
7	0	0	0	0	542	411	0	468	0	0	
8	0	0	0	0	540	418	0	480	0	0	
9	0	0	0	0	536	430	0	491	0	0	
10	0	0	0	0	533	446	0	499	0	0	
11	0	0	0	0	528	463	0	504	0	0	
12	0	0	0	0	524	481	0	505	0	0	
13	0	0	0	0	520	499	0	502	0	0	
14	0	0	0	0	518	512	0	496	0	0	
15	0	0	0	0	516	521	0	486	0	0	
0	0	0	0	0	516	525	0	474	0	0	
1	0	0	0	0	518	524	0	461	0	0	
2	0	0	0	0	520	516	0	449	0	0	
3	0	0	0	0	524	505	0	439	0	0	
4	0	0	0	0	528	490	0	431	0	0	
5	0	0	0	0	532	472	0	427	0	0	
6	0	0	0	0	536	455	0	426	0	0	
7	0	0	0	0	540	439	0	430	0	0	
8	0	0	0	0	543	425	0	437	0	0	
9	0	0	0	0	544	416	0	447	0	0	
10	0	0	0	0	544	413	0	459	0	0	
11	0	0	0	0	543	414	0	472	0	0	
12	0	0	0	0	541	423	0	485	0	0	
13	0	0	0	0	538	435	0	495	0	0	
14	0	0	0	0	534	450	0	503	0	0	
15	0	0	0	0	529	469	0	507	0	0	
0	0	0	0	0	525	487	0	507	0	0	
1	0	0	0	0	521	504	0	504	0	0	
2	0	0	0	0	518	518	0	496	0	0	
3	0	0	0	0	516	527	0	485	0	0	
4	0	0	0	0	515	531	0	473	0	0	
5	0	0	0	0	517	529	0	460	0	0	
6	0	0	0	0	519	522	0	448	0	0	
7	0	0	0	0	522	509	0	437	0	0	
8	0	0	0	0	526	493	0	429	0	0	
9	0	0	0	0	530	475	0	424	0	0	
10	0	0	0	0	534	457	0	423	0	0	
11	0	0	0	0	539	440	0	427	0	0	
12	0	0	0	0	542	427	0	435	0	0	
13	0	0	0	0	544	417	0	445	0	0	
14	0	0	0	0	545	413	0	456	0	0	
15	0	0	0	0	545	415	0	470	0	0	
0	0	0	0	0	544	423	0	483	0	0	
1	0	0	0	0	542	435	0	494	0	0	
2	0	0	0	0	539	451	0	503	0	0	
3	0	0	0	0	535	469	0	508	0	0	
4	0	0	0	0	531	488	0	508	0	0	
5	0	0	0	0	528	505	0	506	0	0	
6	0	0	0	0	526	520	0	499	0	0	
7	0	0	0	0	525	530	0	491	0	0	
8	0	0	0	0	525	536	0	479	0	0	
9	0	0	0	0	527	534	0	468	0	0	
10	0	0	0	0	531	529	0	457	0	0	
11	0	0	0	0	534	518	0	447	0	0	
12	0	0	0	0	539	502	0	440	0	0	
13	0	0	0	0	542	484	0	435	0	0	
14	0	0	0	0	545	466	0	433	0	0	
15	0	0	0	0	547	448	0	435	0	0	
0	0	0	0	0	546	431	0	439	0	0	
1	0	0	0	0	543	418	0	444	0	0	
2	0	0	0	0	537	408	0	451	0	0	
3	0	0	0	0	529	403	0	457	0	0	
4	0	0	0	0	519	403	0	462	0	0	
5	0	0	0	0	507	406	0	463	0	0	
6	0	0	0	0	493	411	0	462	0	0	
7	0	0	0	0	478	419	0	456	0	0	
8	0	0	0	0	463	426	0	446	0	0	
9	0	0	0	0	448	432	0	432	0	0	
10	0	0	0	0	433	435	0	413	0	0	
11	0	0	0	0	420	433	0	391	0	0	
12	0	0	0	0	407	426	0	368	0	0	
13	0	0	0	0	396	414	0	343	0	0	
14	0	0	0	0	386	396	0	319	0	0	
15	0	0	0	0	377	372	0	296	0	0	
0	0	0	0	0	369	345	0	275	0	0	
1	0	0	0	0	361	316	0	258	0	0	
2	0	0	0	0	354	286	0	245	0	0	
3	0	0	0	0	346	257	0	237	0	0	
4	0	0	0	0	338	231	0	233	0	0	
5	0	0	0	0	329	208	0	233	0	0	
6	0	0	0	0	320	192	0	236	0	0	
7	0	0	0	0	312	184	0	242	0	0	
8	0	0	0	0	305	183	0	251	0	0	
9	0	0	0	0	300	190	0	262	0	0	
10	0	0	0	0	297	205	0	272	0	0	
11	0	0	0	0	297	225	0	284	0	0	
12	0	0	0	0	301	251	0	294	0	0	
13	0	0	0	0	310	280	0	303	0	0	
14	0	0	0	0	323	310	0	312	0	0	
15	0	0	0	0	340	339	0	319	0	0	
0	0	0	0	0	361	366	0	328	0	0	
1	0	0	0	0	387	388	0	336	0	0	
2	0	0	0	0	415	406	0	346	0	0	
3	0	0	0	0	444	419	0	358	0	0	
4	0	0	0	0	473	426	0	372	0	0	
5	0	0	0	0	500	430	0	387	0	0	
6	0	0	0	0	526	431	0	405	0	0	
7	0	0	0	0	549	431	0	425	0	0	
8	0	0	0	0	567	430	0	447	0	0	
9	0	0	0	0	580	430	0	468	0	0	
10	0	0	0	0	588	433	0	489	0	0	
11	0	0	0	0	591	440	0	508	0	0	
12	0	0	0	0	590	451	0	525	0	0	
13	0	0	0	0	585	463	0	537	0	0	
14	0	0	0	0	577	478	0	545	0	0	
15	0	0	0	0	568	495	0	547	0	0	
0	0	0	0	0	557	512	0	544	0	0	
1	0	0	0	0	547	527	0	537	0	0	
2	0	0	0	0	537	538	0	524	0	0	
3	0	0	0	0	529	545	0	510	0	0	
4	0	0	0	0	524	547	0	493	0	0	
5	0	0	0	0	522	543	0	475	0	0	
6	0	0	0	0	523	534	0	460	0	0	
7	0	0	0	0	525	521	0	447	0	0	
8	0	0	0	0	530	505	0	438	0	0	
9	0	0	0	0	535	486	0	433	0	0	
10	0	0	0	0	542	468	0	433	0	0	
11	0	0	0	0	548	451	0	438	0	0	
12	0	0	0	0	553	438	0	447	0	0	
13	0	0	0	0	558	429	0	460	0	0	
14	0	0	0	0	560	426	0	474	0	0	
15	0	0	0	0	561	428	0	488	0	0	
0	0	0	0	0	560	437	0	503	0	0	
1	0	0	0	0	558	449	0	515	0	0	
2	0	0	0	0	554	466	0	524	0	0	
3	0	0	0	0	549	484	0	529	0	0	
4	0	0	0	0	544	503	0	530	0	0	
5	0	0	0	0	540	521	0	527	0	0	
6	0	0	0	0	536	535	0	519	0	0	
7	0	0	0	0	532	545	0	508	0	0	
8	0	0	0	0	532	550	0	496	0	0	
9	0	0	0	0	533	549	0	482	0	0	
10	0	0	0	0	536	543	0	470	0	0	
11	0	0	0	0	539	532	0	460	0	0	
12	0	0	0	0	544	518	0	452	0	0	
13	0	0	0	0	549	501	0	448	0	0	
14	0	0	0	0	555	483	0	448	0	0	
15	0	0	0	0	561	468	0	452	0	0	
0	0	0	0	0	566	455	0	460	0	0	
1	0	0	0	0	569	446	0	471	0	0	
2	0	0	0	0	571	442	0	484	0	0	
3	0	0	0	0	572	444	0	497	0	0	
4	0	0	0	0	571	451	0	510	0	0	
5	0	0	0	0	569	463	0	522	0	0	
6	0	0	0	0	565	478	0	530	0	0	
7	0	0	0	0	561	496	0	536	0	0	
8	0	0	0	0	556	514	0	536	0	0	
9	0	0	0	0	551	531	0	534	0	0	
10	0	0	0	0	548	545	0	527	0	0	
11	0	0	0	0	545	554	0	517	0	0	
12	0	0	0	0	544	559	0	504	0	0	
13	0	0	0	0	545	557	0	492	0	0	
14	0	0	0	0	547	551	0	479	0	0	
15	0	0	0	0	550	538	0	468	0	0	
0	0	0	0	0	553	522	0	460	0	0	
1	0	0	0	0	558	504	0	455	0	0	
2	0	0	0	0	561	486	0	453	0	0	
3	0	0	0	0	564	469	0	456	0	0	
4	0	0	0	0	567	455	0	463	0	0	
5	0	0	0	0	568	444	0	473	0	0	
6	0	0	0	0	568	440	0	485	0	0	
7	0	0	0	0	567	440	0	497	0	0	
8	0	0	0	0	564	447	0	510	0	0	
9	0	0	0	0	560	458	0	520	0	0	
10	0	0	0	0	556	473	0	528	0	0	
11	0	0	0	0	551	491	0	533	0	0	
12	0	0	0	0	547	509	0	533	0	0	
13	0	0	0	0	543	527	0	530	0	0	
14	0	0	0	0	540	541	0	523	0	0	
15	0	0	0	0	539	551	0	512	0	0	
0	0	0	0	0	539	556	0	500	0	0	
1	0	0	0	0	541	555	0	487	0	0	
2	0	0	0	0	543	548	0	475	0	0	
3	0	0	0	0	547	536	0	465	0	0	
4	0	0	0	0	551	521	0	456	0	0	
5	0	0	0	0	556	503	0	452	0	0	
6	0	0	0	0	560	484	0	451	0	0	
7	0	0	0	0	563	468	0	455	0	0	
8	0	0	0	0	566	453	0	462	0	0	
9	0	0	0	0	566	443	0	471	0	0	
10	0	0	0	0	565	438	0	483	0	0	
11	0	0	0	0	563	438	0	495	0	0	
12	0	0	0	0	560	445	0	508	0	0	
13	0	0	0	0	557	456	0	518	0	0	
14	0	0	0	0	553	470	0	526	0	0	
15	0	0	0	0	549	489	0	529	0	0	
0	0	0	0	0	546	507	0	530	0	0	
1	0	0	0	0	543	524	0	527	0	0	
2	0	0	0	0	542	539	0	521	0	0	
3	0	0	0	0	542	550	0	510	0	0	
4	0	0	0	0	543	554	0	499	0	0	
5	0	0	0	0	545	554	0	486	0	0	
6	0	0	0	0	549	548	0	474	0	0	
7	0	0	0	0	553	536	0	463	0	0	
8	0	0	0	0	557	521	0	455	0	0	
9	0	0	0	0	560	503	0	450	0	0	
10	0	0	0	0	563	484	0	449	0	0	
11	0	0	0	0	566	467	0	452	0	0	
12	0	0	0	0	567	451	0	458	0	0	
13	0	0	0	0	566	440	0	467	0	0	
14	0	0	0	0	564	434	0	478	0	0	
15	0	0	0	0	561	434	0	490	0	0	
0	0	0	0	0	557	440	0	502	0	0	
1	0	0	0	0	552	449	0	512	0	0	
2	0	0	0	0	547	463	0	520	0	0	
3	0	0	0	0	542	480	0	524	0	0	
4	0	0	0	0	538	498	0	524	0	0	
5	0	0	0	0	535	515	0	521	0	0	
6	0	0	0	0	533	530	0	515	0	0	
7	0	0	0	0	532	540	0	504	0	0	
8	0	0	0	0	532	545	0	492	0	0	
9	0	0	0	0	535	544	0	480	0	0	
10	0	0	0	0	538	539	0	467	0	0	
11	0	0	0	0	543	527	0	457	0	0	
12	0	0	0	0	547	513	0	449	0	0	
13	0	0	0	0	551	496	0	445	0	0	
14	0	0	0	0	557	479	0	444	0	0	
15	0	0	0	0	561	463	0	449	0	0	
0	0	0	0	0	565	450	0	457	0	0	
1	0	0	0	0	567	440	0	467	0	0	
2	0	0	0	0	567	436	0	480	0	0	
3	0	0	0	0	567	438	0	493	0	0	
4	0	0	0	0	564	446	0	507	0	0	
5	0	0	0	0	561	457	0	518	0	0	
6	0	0	0	0	556	472	0	527	0	0	
7	0	0	0	0	551	489	0	531	0	0	
8	0	0	0	0	547	507	0	532	0	0	
9	0	0	0	0	543	524	0	528	0	0	
10	0	0	0	0	539	537	0	521	0	0	
11	0	0	0	0	537	546	0	510	0	0	
12	0	0	0	0	536	550	0	497	0	0	
13	0	0	0	0	537	548	0	484	0	0	
14	0	0	0	0	539	542	0	472	0	0	
15	0	0	0	0	542	529	0	459	0	0	
0	0	0	0	0	546	513	0	451	0	0	
1	0	0	0	0	549	495	0	445	0	0	
2	0	0	0	0	552	476	0	443	0	0	
3	0	0	0	0	556	459	0	445	0	0	
4	0	0	0	0	558	444	0	451	0	0	
5	0	0	0	0	559	433	0	460	0	0	
6	0	0	0	0	558	428	0	471	0	0	
7	0	0	0	0	556	427	0	483	0	0	
8	0	0	0	0	552	433	0	496	0	0	
9	0	0	0	0	548	444	0	507	0	0	
10	0	0	0	0	544	459	0	515	0	0	
11	0	0	0	0	539	476	0	520	0	0	
12	0	0	0	0	535	493	0	521	0	0	
13	0	0	0	0	531	511	0	519	0	0	
14	0	0	0	0	528	525	0	512	0	0	
15	0	0	0	0	528	536	0	504	0	0	
0	0	0	0	0	529	541	0	492	0	0	
1	0	0	0	0	531	540	0	480	0	0	
2	0	0	0	0	535	535	0	468	0	0	
3	0	0	0	0	539	524	0	458	0	0	
4	0	0	0	0	544	509	0	450	0	0	
5	0	0	0	0	549	492	0	445	0	0	
6	0	0	0	0	554	475	0	444	0	0	
7	0	0	0	0	559	459	0	447	0	0	
8	0	0	0	0	561	444	0	453	0	0	
9	0	0	0	0	563	434	0	463	0	0	
10	0	0	0	0	563	429	0	474	0	0	
11	0	0	0	0	560	429	0	487	0	0	
12	0	0	0	0	557	435	0	498	0	0	
13	0	0	0	0	552	447	0	508	0	0	
14	0	0	0	0	547	461	0	516	0	0	
15	0	0	0	0	542	479	0	520	0	0	
0	0	0	0	0	536	496	0	521	0	0	
1	0	0	0	0	532	514	0	517	0	0	
2	0	0	0	0	529	527	0	510	0	0	
3	0	0	0	0	527	538	0	500	0	0	
4	0	0	0	0	527	543	0	487	0	0	
5	0	0	0	0	529	542	0	476	0	0	
6	0	0	0	0	532	537	0	464	0	0	
7	0	0	0	0	537	526	0	454	0	0	
8	0	0	0	0	542	511	0	447	0	0	
9	0	0	0	0	547	495	0	443	0	0	
10	0	0	0	0	552	477	0	442	0	0	
11	0	0	0	0	557	461	0	446	0	0	
12	0	0	0	0	561	447	0	454	0	0	
13	0	0	0	0	563	437	0	463	0	0	
14	0	0	0	0	563	432	0	475	0	0	
15	0	0	0	0	561	432	0	487	0	0	
0	0	0	0	0	559	438	0	498	0	0	
1	0	0	0	0	555	448	0	508	0	0	
2	0	0	0	0	551	462	0	516	0	0	
3	0	0	0	0	545	479	0	519	0	0	
4	0	0	0	0	541	496	0	520	0	0	
5	0	0	0	0	537	512	0	516	0	0	
6	0	0	0	0	535	526	0	509	0	0	
7	0	0	0	0	533	535	0	499	0	0	
8	0	0	0	0	533	540	0	486	0	0	
9	0	0	0	0	534	538	0	474	0	0	
10	0	0	0	0	537	532	0	462	0	0	
11	0	0	0	0	541	520	0	451	0	0	
12	0	0	0	0	545	506	0	443	0	0	
13	0	0	0	0	549	489	0	438	0	0	
14	0	0	0	0	554	472	0	438	0	0	
15	0	0	0	0	558	456	0	441	0	0	
0	0	0	0	0	561	442	0	448	0	0	
1	0	0	0	0	563	433	0	459	0	0	
2	0	0	0	0	563	429	0	471	0	0	
3	0	0	0	0	561	430	0	483	0	0	
4	0	0	0	0	559	437	0	496	0	0	
5	0	0	0	0	556	448	0	506	0	0	
6	0	0	0	0	552	463	0	514	0	0	
7	0	0	0	0	547	480	0	519	0	0	
8	0	0	0	0	542	499	0	519	0	0	
9	0	0	0	0	537	516	0	515	0	0	
10	0	0	0	0	534	529	0	508	0	0	
11	0	0	0	0	531	540	0	497	0	0	
12	0	0	0	0	530	545	0	484	0	0	
13	0	0	0	0	530	543	0	470	0	0	
14	0	0	0	0	532	538	0	457	0	0	
15	0	0	0	0	535	526	0	445	0	0	
0	0	0	0	0	539	512	0	437	0	0	
1	0	0	0	0	543	495	0	431	0	0	
2	0	0	0	0	547	476	0	430	0	0	
3	0	0	0	0	551	460	0	433	0	0	
4	0	0	0	0	555	446	0	440	0	0	
5	0	0	0	0	557	435	0	450	0	0	
6	0	0	0	0	557	431	0	462	0	0	
7	0	0	0	0	556	431	0	475	0	0	
8	0	0	0	0	554	438	0	488	0	0	
9	0	0	0	0	551	449	0	499	0	0	
10	0	0	0	0	547	464	0	508	0	0	
11	0	0	0	0	542	481	0	512	0	0	
12	0	0	0	0	539	500	0	513	0	0	
13	0	0	0	0	535	518	0	510	0	0	
14	0	0	0	0	532	532	0	503	0	0	
15	0	0	0	0	531	543	0	493	0	0	
0	0	0	0	0	530	549	0	481	0	0	
1	0	0	0	0	532	549	0	468	0	0	
2	0	0	0	0	535	543	0	455	0	0	
3	0	0	0	0	538	532	0	444	0	0	
4	0	0	0	0	542	517	0	436	0	0	
5	0	0	0	0	546	500	0	431	0	0	
6	0	0	0	0	551	482	0	429	0	0	
7	0	0	0	0	555	465	0	432	0	0	
8	0	0	0	0	558	451	0	439	0	0	
9	0	0	0	0	560	441	0	448	0	0	
10	0	0	0	0	559	436	0	460	0	0	
11	0	0	0	0	558	436	0	473	0	0	
12	0	0	0	0	555	441	0	485	0	0	
13	0	0	0	0	551	452	0	496	0	0	
14	0	0	0	0	547	466	0	504	0	0	
15	0	0	0	0	543	483	0	508	0	0	
0	0	0	0	0	538	500	0	509	0	0	
1	0	0	0	0	534	518	0	507	0	0	
2	0	0	0	0	530	531	0	499	0	0	
3	0	0	0	0	529	541	0	490	0	0	
4	0	0	0	0	528	546	0	478	0	0	
5	0	0	0	0	529	546	0	465	0	0	
6	0	0	0	0	532	540	0	454	0	0	
7	0	0	0	0	536	529	0	444	0	0	
8	0	0	0	0	542	515	0	435	0	0	
9	0	0	0	0	547	498	0	432	0	0	
10	0	0	0	0	553	482	0	431	0	0	
11	0	0	0	0	558	466	0	435	0	0	
12	0	0	0	0	563	453	0	443	0	0	
13	0	0	0	0	566	444	0	453	0	0	
14	0	0	0	0	567	440	0	465	0	0	
15	0	0	0	0	566	440	0	478	0	0	
0	0	0	0	0	564	447	0	491	0	0	
1	0	0	0	0	561	458	0	502	0	0	
2	0	0	0	0	556	473	0	510	0	0	
3	0	0	0	0	551	489	0	515	0	0	
4	0	0	0	0	546	507	0	515	0	0	
5	0	0	0	0	542	524	0	513	0	0	
6	0	0	0	0	537	538	0	506	0	0	
7	0	0	0	0	535	547	0	496	0	0	
8	0	0	0	0	534	553	0	484	0	0	
9	0	0	0	0	534	552	0	472	0	0	
10	0	0	0	0	536	545	0	460	0	0	
11	0	0	0	0	539	535	0	450	0	0	
12	0	0	0	0	543	520	0	442	0	0	
13	0	0	0	0	547	503	0	437	0	0	
14	0	0	0	0	552	485	0	436	0	0	
15	0	0	0	0	557	468	0	439	0	0	
0	0	0	0	0	560	454	0	445	0	0	
1	0	0	0	0	563	443	0	454	0	0	
2	0	0	0	0	563	438	0	465	0	0	
3	0	0	0	0	562	438	0	476	0	0	
4	0	0	0	0	560	445	0	488	0	0	
5	0	0	0	0	556	455	0	498	0	0	
6	0	0	0	0	552	470	0	505	0	0	
7	0	0	0	0	547	487	0	510	0	0	
8	0	0	0	0	542	505	0	510	0	0	
9	0	0	0	0	538	522	0	507	0	0	
10	0	0	0	0	534	536	0	500	0	0	
11	0	0	0	0	532	545	0	491	0	0	
12	0	0	0	0	530	551	0	479	0	0	
13	0	0	0	0	531	550	0	467	0	0	
14	0	0	0	0	532	544	0	456	0	0	
15	0	0	0	0	536	532	0	446	0	0	
0	0	0	0	0	539	517	0	439	0	0	
1	0	0	0	0	543	499	0	434	0	0	
2	0	0	0	0	547	481	0	433	0	0	
3	0	0	0	0	551	464	0	436	0	0	
4	0	0	0	0	554	449	0	443	0	0	
5	0	0	0	0	556	439	0	452	0	0	
6	0	0	0	0	556	433	0	464	0	0	
7	0	0	0	0	556	434	0	475	0	0	
8	0	0	0	0	555	440	0	487	0	0	
9	0	0	0	0	552	451	0	497	0	0	
10	0	0	0	0	549	467	0	505	0	0	
11	0	0	0	0	544	483	0	510	0	0	
12	0	0	0	0	541	502	0	511	0	0	
13	0	0	0	0	537	519	0	509	0	0	
14	0	0	0	0	535	534	0	502	0	0	
15	0	0	0	0	533	544	0	493	0	0	
0	0	0	0	0	533	550	0	481	0	0	
1	0	0	0	0	534	550	0	468	0	0	
2	0	0	0	0	537	544	0	457	0	0	
3	0	0	0	0	540	533	0	446	0	0	
4	0	0	0	0	544	519	0	438	0	0	
5	0	0	0	0	548	501	0	433	0	0	
6	0	0	0	0	551	483	0	431	0	0	
7	0	0	0	0	555	465	0	433	0	0	
8	0	0	0	0	558	450	0	439	0	0	
9	0	0	0	0	558	438	0	448	0	0	
10	0	0	0	0	558	432	0	459	0	0	
11	0	0	0	0	556	432	0	470	0	0	
12	0	0	0	0	552	437	0	482	0	0	
13	0	0	0	0	548	447	0	492	0	0	
14	0	0	0	0	543	462	0	499	0	0	
15	0	0	0	0	538	478	0	504	0	0	
0	0	0	0	0	534	496	0	506	0	0	
1	0	0	0	0	529	514	0	503	0	0	
2	0	0	0	0	526	528	0	496	0	0	
3	0	0	0	0	525	538	0	487	0	0	
4	0	0	0	0	524	543	0	476	0	0	
5	0	0	0	0	526	543	0	463	0	0	
6	0	0	0	0	529	538	0	452	0	0	
7	0	0	0	0	533	527	0	441	0	0	
8	0	0	0	0	537	512	0	434	0	0	
9	0	0	0	0	542	495	0	429	0	0	
10	0	0	0	0	547	477	0	429	0	0	
11	0	0	0	0	551	460	0	433	0	0	
12	0	0	0	0	555	446	0	440	0	0	
13	0	0	0	0	557	436	0	451	0	0	
14	0	0	0	0	557	431	0	463	0	0	
15	0	0	0	0	556	432	0	476	0	0	
0	0	0	0	0	554	438	0	489	0	0	
1	0	0	0	0	550	449	0	500	0	0	
2	0	0	0	0	546	464	0	509	0	0	
3	0	0	0	0	541	482	0	513	0	0	
4	0	0	0	0	536	500	0	514	0	0	
5	0	0	0	0	531	517	0	511	0	0	
6	0	0	0	0	528	531	0	503	0	0	
7	0	0	0	0	526	542	0	492	0	0	
8	0	0	0	0	525	547	0	479	0	0	
9	0	0	0	0	525	545	0	465	0	0	
10	0	0	0	0	527	539	0	452	0	0	
11	0	0	0	0	530	527	0	441	0	0	
12	0	0	0	0	534	511	0	432	0	0	
13	0	0	0	0	538	494	0	425	0	0	
14	0	0	0	0	542	474	0	424	0	0	
15	0	0	0	0	545	457	0	426	0	0	
0	0	0	0	0	548	441	0	433	0	0	
1	0	0	0	0	550	430	0	442	0	0	
2	0	0	0	0	550	424	0	454	0	0	
3	0	0	0	0	548	424	0	467	0	0	
4	0	0	0	0	546	430	0	479	0	0	
5	0	0	0	0	543	440	0	491	0	0	
6	0	0	0	0	539	455	0	499	0	0	
7	0	0	0	0	534	472	0	505	0	0	
8	0	0	0	0	531	490	0	507	0	0	
9	0	0	0	0	527	508	0	505	0	0	
10	0	0	0	0	525	523	0	499	0	0	
11	0	0	0	0	523	534	0	489	0	0	
12	0	0	0	0	524	541	0	478	0	0	
13	0	0	0	0	526	542	0	466	0	0	
14	0	0	0	0	529	537	0	455	0	0	
15	0	0	0	0	534	527	0	444	0	0	
0	0	0	0	0	539	514	0	436	0	0	
1	0	0	0	0	543	498	0	430	0	0	
2	0	0	0	0	548	481	0	429	0	0	
3	0	0	0	0	552	465	0	432	0	0	
4	0	0	0	0	555	451	0	438	0	0	
5	0	0	0	0	557	440	0	448	0	0	
6	0	0	0	0	557	435	0	459	0	0	
7	0	0	0	0	556	435	0	471	0	0	
8	0	0	0	0	553	440	0	483	0	0	
9	0	0	0	0	550	450	0	494	0	0	
10	0	0	0	0	545	464	0	502	0	0	
11	0	0	0	0	540	480	0	507	0	0	
12	0	0	0	0	535	497	0	508	0	0	
13	0	0	0	0	531	513	0	505	0	0	
14	0	0	0	0	527	527	0	499	0	0	
15	0	0	0	0	524	536	0	490	0	0	
0	0	0	0	0	523	542	0	479	0	0	
1	0	0	0	0	523	541	0	466	0	0	
2	0	0	0	0	525	535	0	455	0	0	
3	0	0	0	0	528	525	0	445	0	0	
4	0	0	0	0	531	511	0	437	0	0	
5	0	0	0	0	536	494	0	432	0	0	
6	0	0	0	0	540	476	0	431	0	0	
7	0	0	0	0	544	460	0	435	0	0	
8	0	0	0	0	547	445	0	441	0	0	
9	0	0	0	0	549	435	0	451	0	0	
10	0	0	0	0	549	430	0	462	0	0	
11	0	0	0	0	548	430	0	474	0	0	
12	0	0	0	0	546	435	0	486	0	0	
13	0	0	0	0	542	446	0	496	0	0	
14	0	0	0	0	538	460	0	504	0	0	
15	0	0	0	0	533	476	0	508	0	0	
0	0	0	0	0	529	494	0	509	0	0	
1	0	0	0	0	525	510	0	505	0	0	
2	0	0	0	0	521	524	0	498	0	0	
3	0	0	0	0	519	534	0	488	0	0	
4	0	0	0	0	518	539	0	476	0	0	
5	0	0	0	0	519	539	0	463	0	0	
6	0	0	0	0	521	533	0	451	0	0	
7	0	0	0	0	525	522	0	440	0	0	
8	0	0	0	0	529	507	0	432	0	0	
9	0	0	0	0	533	490	0	427	0	0	
10	0	0	0	0	537	472	0	426	0	0	
11	0	0	0	0	542	455	0	429	0	0	
12	0	0	0	0	546	441	0	436	0	0	
13	0	0	0	0	548	431	0	446	0	0	
14	0	0	0	0	550	425	0	458	0	0	
15	0	0	0	0	550	425	0	471	0	0	
0	0	0	0	0	548	432	0	483	0	0	
1	0	0	0	0	546	442	0	494	0	0	
2	0	0	0	0	543	456	0	503	0	0	
3	0	0	0	0	538	475	0	508	0	0	
4	0	0	0	0	534	492	0	510	0	0	
5	0	0	0	0	531	511	0	508	0	0	
6	0	0	0	0	527	525	0	502	0	0	
7	0	0	0	0	525	536	0	493	0	0	
8	0	0	0	0	525	542	0	481	0	0	
9	0	0	0	0	526	542	0	469	0	0	
10	0	0	0	0	528	537	0	458	0	0	
11	0	0	0	0	531	527	0	448	0	0	
12	0	0	0	0	536	513	0	440	0	0	
13	0	0	0	0	541	496	0	435	0	0	
14	0	0	0	0	546	479	0	434	0	0	
15	0	0	0	0	551	462	0	437	0	0	
0	0	0	0	0	555	448	0	444	0	0	
1	0	0	0	0	557	437	0	453	0	0	
2	0	0	0	0	557	431	0	465	0	0	
3	0	0	0	0	556	431	0	476	0	0	
4	0	0	0	0	554	436	0	489	0	0	
5	0	0	0	0	550	446	0	499	0	0	
6	0	0	0	0	545	459	0	507	0	0	
7	0	0	0	0	540	476	0	511	0	0	
8	0	0	0	0	535	493	0	512	0	0	
9	0	0	0	0	530	509	0	509	0	0	
10	0	0	0	0	526	524	0	503	0	0	
11	0	0	0	0	524	535	0	492	0	0	
12	0	0	0	0	523	540	0	481	0	0	
13	0	0	0	0	524	540	0	468	0	0	
14	0	0	0	0	527	535	0	456	0	0	
15	0	0	0	0	531	524	0	445	0	0	
0	0	0	0	0	535	510	0	437	0	0	
1	0	0	0	0	540	493	0	433	0	0	
2	0	0	0	0	545	476	0	432	0	0	
3	0	0	0	0	550	459	0	435	0	0	
4	0	0	0	0	553	444	0	442	0	0	
5	0	0	0	0	556	434	0	452	0	0	
6	0	0	0	0	556	428	0	463	0	0	
7	0	0	0	0	555	428	0	476	0	0	
8	0	0	0	0	552	433	0	487	0	0	
9	0	0	0	0	548	443	0	498	0	0	
10	0	0	0	0	544	456	0	506	0	0	
11	0	0	0	0	538	472	0	511	0	0	
12	0	0	0	0	534	489	0	511	0	0	
13	0	0	0	0	529	506	0	508	0	0	
14	0	0	0	0	526	519	0	501	0	0	
15	0	0	0	0	524	529	0	491	0	0	
0	0	0	0	0	523	535	0	479	0	0	
1	0	0	0	0	524	534	0	466	0	0	
2	0	0	0	0	526	528	0	454	0	0	
3	0	0	0	0	530	519	0	443	0	0	
4	0	0	0	0	534	504	0	435	0	0	
5	0	0	0	0	539	488	0	429	0	0	
6	0	0	0	0	543	471	0	428	0	0	
7	0	0	0	0	548	455	0	431	0	0	
8	0	0	0	0	552	440	0	438	0	0	
9	0	0	0	0	555	430	0	447	0	0	
10	0	0	0	0	556	425	0	460	0	0	
11	0	0	0	0	556	426	0	472	0	0	
12	0	0	0	0	554	432	0	486	0	0	
13	0	0	0	0	551	444	0	498	0	0	
14	0	0	0	0	548	459	0	508	0	0	
15	0	0	0	0	543	476	0	514	0	0	
0	0	0	0	0	539	495	0	516	0	0	
1	0	0	0	0	536	513	0	515	0	0	
2	0	0	0	0	532	528	0	510	0	0	
3	0	0	0	0	531	540	0	501	0	0	
4	0	0	0	0	530	547	0	491	0	0	
5	0	0	0	0	531	547	0	479	0	0	
6	0	0	0	0	534	543	0	467	0	0	
7	0	0	0	0	537	533	0	456	0	0	
8	0	0	0	0	542	519	0	448	0	0	
9	0	0	0	0	547	502	0	443	0	0	
10	0	0	0	0	552	484	0	441	0	0	
11	0	0	0	0	557	467	0	443	0	0	
12	0	0	0	0	560	452	0	449	0	0	
13	0	0	0	0	563	440	0	457	0	0	
14	0	0	0	0	563	434	0	468	0	0	
15	0	0	0	0	563	433	0	479	0	0	
0	0	0	0	0	561	438	0	491	0	0	
1	0	0	0	0	557	447	0	502	0	0	
2	0	0	0	0	553	460	0	510	0	0	
3	0	0	0	0	547	476	0	514	0	0	
4	0	0	0	0	542	494	0	516	0	0	
5	0	0	0	0	537	510	0	514	0	0	
6	0	0	0	0	532	524	0	508	0	0	
7	0	0	0	0	528	534	0	499	0	0	
8	0	0	0	0	527	539	0	488	0	0	
9	0	0	0	0	528	539	0	476	0	0	
10	0	0	0	0	529	534	0	464	0	0	
11	0	0	0	0	532	524	0	454	0	0	
12	0	0	0	0	536	508	0	445	0	0	
13	0	0	0	0	540	492	0	440	0	0	
14	0	0	0	0	544	474	0	437	0	0	
15	0	0	0	0	548	456	0	439	0	0	
0	0	0	0	0	551	441	0	444	0	0	
1	0	0	0	0	552	428	0	452	0	0	
2	0	0	0	0	552	422	0	463	0	0	
3	0	0	0	0	550	420	0	473	0	0	
4	0	0	0	0	547	423	0	483	0	0	
5	0	0	0	0	543	432	0	493	0	0	
6	0	0	0	0	538	445	0	500	0	0	
7	0	0	0	0	532	461	0	504	0	0	
8	0	0	0	0	527	478	0	505	0	0	
9	0	0	0	0	523	495	0	502	0	0	
10	0	0	0	0	519	509	0	496	0	0	
11	0	0	0	0	517	519	0	486	0	0	
12	0	0	0	0	516	526	0	475	0	0	
13	0	0	0	0	516	526	0	463	0	0	
14	0	0	0	0	519	522	0	451	0	0	
15	0	0	0	0	521	511	0	440	0	0	
0	0	0	0	0	525	497	0	432	0	0	
1	0	0	0	0	529	481	0	426	0	0	
2	0	0	0	0	533	463	0	424	0	0	
3	0	0	0	0	537	447	0	427	0	0	
4	0	0	0	0	542	433	0	433	0	0	
5	0	0	0	0	544	423	0	443	0	0	
6	0	0	0	0	546	417	0	454	0	0	
7	0	0	0	0	546	417	0	467	0	0	
8	0	0	0	0	545	423	0	479	0	0	
9	0	0	0	0	544	433	0	491	0	0	
10	0	0	0	0	542	448	0	499	0	0	
11	0	0	0	0	539	465	0	505	0	0	
12	0	0	0	0	535	483	0	508	0	0	
13	0	0	0	0	532	501	0	507	0	0	
14	0	0	0	0	529	516	0	501	0	0	
15	0	0	0	0	527	527	0	492	0	0	
0	0	0	0	0	527	533	0	481	0	0	
1	0	0	0	0	527	533	0	470	0	0	
2	0	0	0	0	529	528	0	458	0	0	
3	0	0	0	0	532	518	0	447	0	0	
4	0	0	0	0	535	503	0	439	0	0	
5	0	0	0	0	539	486	0	433	0	0	
6	0	0	0	0	543	467	0	432	0	0	
7	0	0	0	0	547	451	0	434	0	0	
8	0	0	0	0	550	436	0	440	0	0	
9	0	0	0	0	552	425	0	450	0	0	
10	0	0	0	0	552	419	0	461	0	0	
11	0	0	0	0	552	419	0	473	0	0	
12	0	0	0	0	550	425	0	485	0	0	
13	0	0	0	0	547	435	0	497	0	0	
14	0	0	0	0	544	450	0	505	0	0	
15	0	0	0	0	540	467	0	510	0	0	
0	0	0	0	0	536	485	0	512	0	0	
1	0	0	0	0	531	503	0	510	0	0	
2	0	0	0	0	528	518	0	504	0	0	
3	0	0	0	0	526	528	0	494	0	0	
4	0	0	0	0	524	534	0	483	0	0	
5	0	0	0	0	525	534	0	470	0	0	
6	0	0	0	0	526	529	0	458	0	0	
7	0	0	0	0	529	517	0	447	0	0	
8	0	0	0	0	532	503	0	439	0	0	
9	0	0	0	0	536	485	0	432	0	0	
10	0	0	0	0	540	466	0	431	0	0	
11	0	0	0	0	544	448	0	432	0	0	
12	0	0	0	0	547	433	0	439	0	0	
13	0	0	0	0	550	422	0	448	0	0	
14	0	0	0	0	551	415	0	459	0	0	
15	0	0	0	0	551	414	0	471	0	0	
0	0	0	0	0	550	419	0	484	0	0	
1	0	0	0	0	547	429	0	495	0	0	
2	0	0	0	0	544	443	0	504	0	0	
3	0	0	0	0	540	460	0	509	0	0	
4	0	0	0	0	536	478	0	511	0	0	
5	0	0	0	0	531	495	0	508	0	0	
6	0	0	0	0	528	509	0	502	0	0	
7	0	0	0	0	525	520	0	492	0	0	
8	0	0	0	0	523	526	0	480	0	0	
9	0	0	0	0	523	526	0	467	0	0	
10	0	0	0	0	524	520	0	454	0	0	
11	0	0	0	0	526	510	0	443	0	0	
12	0	0	0	0	529	496	0	434	0	0	
13	0	0	0	0	533	479	0	428	0	0	
14	0	0	0	0	537	461	0	426	0	0	
15	0	0	0	0	541	444	0	429	0	0	
0	0	0	0	0	545	430	0	436	0	0	
1	0	0	0	0	547	419	0	446	0	0	
2	0	0	0	0	549	413	0	458	0	0	
3	0	0	0	0	549	414	0	470	0	0	
4	0	0	0	0	548	419	0	483	0	0	
5	0	0	0	0	546	430	0	495	0	0	
6	0	0	0	0	543	445	0	504	0	0	
7	0	0	0	0	540	463	0	510	0	0	
8	0	0	0	0	536	482	0	512	0	0	
9	0	0	0	0	534	501	0	511	0	0	
10	0	0	0	0	531	516	0	505	0	0	
11	0	0	0	0	530	528	0	497	0	0	
12	0	0	0	0	529	535	0	486	0	0	
13	0	0	0	0	531	536	0	473	0	0	
14	0	0	0	0	534	532	0	461	0	0	
15	0	0	0	0	536	521	0	449	0	0	
0	0	0	0	0	539	505	0	439	0	0	
1	0	0	0	0	541	487	0	431	0	0	
2	0	0	0	0	543	466	0	426	0	0	
3	0	0	0	0	543	446	0	424	0	0	
4	0	0	0	0	541	426	0	425	0	0	
5	0	0	0	0	537	408	0	428	0	0	
6	0	0	0	0	530	396	0	432	0	0	
7	0	0	0	0	521	388	0	436	0	0	
8	0	0	0	0	510	384	0	440	0	0	
9	0	0	0	0	497	385	0	442	0	0	
10	0	0	0	0	483	390	0	441	0	0	
11	0	0	0	0	468	396	0	436	0	0	
12	0	0	0	0	452	403	0	428	0	0	
13	0	0	0	0	437	411	0	415	0	0	
14	0	0	0	0	423	415	0	399	0	0	
15	0	0	0	0	408	415	0	379	0	0	
0	0	0	0	0	396	411	0	356	0	0	
1	0	0	0	0	384	400	0	332	0	0	
2	0	0	0	0	375	384	0	308	0	0	
3	0	0	0	0	366	363	0	285	0	0	
4	0	0	0	0	358	337	0	264	0	0	
5	0	0	0	0	351	308	0	246	0	0	
6	0	0	0	0	344	278	0	231	0	0	
7	0	0	0	0	337	249	0	221	0	0	
8	0	0	0	0	332	222	0	217	0	0	
9	0	0	0	0	326	199	0	217	0	0	
10	0	0	0	0	320	184	0	223	0	0	
11	0	0	0	0	316	177	0	232	0	0	
12	0	0	0	0	313	179	0	246	0	0	
13	0	0	0	0	313	190	0	262	0	0	
14	0	0	0	0	317	208	0	279	0	0	
15	0	0	0	0	322	234	0	296	0	0	
0	0	0	0	0	332	265	0	313	0	0	
1	0	0	0	0	345	300	0	330	0	0	
2	0	0	0	0	362	335	0	344	0	0	
3	0	0	0	0	383	369	0	358	0	0	
4	0	0	0	0	406	400	0	369	0	0	
5	0	0	0	0	432	427	0	379	0	0	
6	0	0	0	0	459	447	0	390	0	0	
7	0	0	0	0	486	460	0	399	0	0	
8	0	0	0	0	512	467	0	410	0	0	
9	0	0	0	0	535	468	0	420	0	0	
10	0	0	0	0	556	465	0	433	0	0	
11	0	0	0	0	573	460	0	446	0	0	
12	0	0	0	0	585	455	0	461	0	0	
13	0	0	0	0	593	449	0	476	0	0	
14	0	0	0	0	596	447	0	491	0	0	
15	0	0	0	0	595	448	0	505	0	0	
0	0	0	0	0	591	452	0	517	0	0	
1	0	0	0	0	583	460	0	527	0	0	
2	0	0	0	0	574	472	0	532	0	0	
3	0	0	0	0	563	485	0	535	0	0	
4	0	0	0	0	553	499	0	532	0	0	
5	0	0	0	0	543	513	0	526	0	0	
6	0	0	0	0	535	525	0	515	0	0	
7	0	0	0	0	528	533	0	501	0	0	
8	0	0	0	0	524	536	0	486	0	0	
9	0	0	0	0	524	536	0	470	0	0	
10	0	0	0	0	526	529	0	456	0	0	
11	0	0	0	0	529	519	0	444	0	0	
12	0	0	0	0	535	505	0	435	0	0	
13	0	0	0	0	541	488	0	431	0	0	
14	0	0	0	0	548	472	0	431	0	0	
15	0	0	0	0	555	456	0	436	0	0	
0	0	0	0	0	560	443	0	444	0	0	
1	0	0	0	0	565	434	0	456	0	0	
2	0	0	0	0	568	429	0	471	0	0	
3	0	0	0	0	568	430	0	485	0	0	
4	0	0	0	0	568	436	0	500	0	0	
5	0	0	0	0	565	447	0	513	0	0	
6	0	0	0	0	562	462	0	523	0	0	
7	0	0	0	0	557	479	0	529	0	0	
8	0	0	0	0	552	497	0	530	0	0	
9	0	0	0	0	548	515	0	528	0	0	
10	0	0	0	0	544	530	0	521	0	0	
11	0	0	0	0	542	540	0	511	0	0	
12	0	0	0	0	540	547	0	498	0	0	
13	0	0	0	0	541	547	0	484	0	0	
14	0	0	0	0	543	542	0	472	0	0	
15	0	0	0	0	546	531	0	460	0	0	
0	0	0	0	0	550	517	0	451	0	0	
1	0	0	0	0	555	501	0	446	0	0	
2	0	0	0	0	560	483	0	444	0	0	
3	0	0	0	0	565	466	0	448	0	0	
4	0	0	0	0	569	452	0	455	0	0	
5	0	0	0	0	572	442	0	465	0	0	
6	0	0	0	0	574	436	0	478	0	0	
7	0	0	0	0	574	436	0	491	0	0	
8	0	0	0	0	573	443	0	505	0	0	
9	0	0	0	0	570	453	0	517	0	0	
10	0	0	0	0	567	467	0	527	0	0	
11	0	0	0	0	563	485	0	533	0	0	
12	0	0	0	0	559	503	0	534	0	0	
13	0	0	0	0	555	521	0	533	0	0	
14	0	0	0	0	551	535	0	526	0	0	
15	0	0	0	0	548	545	0	517	0	0	
0	0	0	0	0	547	550	0	504	0	0	
1	0	0	0	0	547	550	0	491	0	0	
2	0	0	0	0	548	544	0	478	0	0	
3	0	0	0	0	551	532	0	466	0	0	
4	0	0	0	0	553	516	0	456	0	0	
5	0	0	0	0	556	498	0	450	0	0	
6	0	0	0	0	560	480	0	446	0	0	
7	0	0	0	0	563	462	0	448	0	0	
8	0	0	0	0	566	447	0	454	0	0	
9	0	0	0	0	568	435	0	462	0	0	
10	0	0	0	0	568	429	0	473	0	0	
11	0	0	0	0	567	428	0	486	0	0	
12	0	0	0	0	564	433	0	498	0	0	
13	0	0	0	0	561	443	0	510	0	0	
14	0	0	0	0	557	456	0	519	0	0	
15	0	0	0	0	552	473	0	525	0	0	
0	0	0	0	0	548	492	0	526	0	0	
1	0	0	0	0	544	510	0	524	0	0	
2	0	0	0	0	540	525	0	519	0	0	
3	0	0	0	0	539	536	0	509	0	0	
4	0	0	0	0	537	542	0	497	0	0	
5	0	0	0	0	537	543	0	483	0	0	
6	0	0	0	0	539	538	0	470	0	0	
7	0	0	0	0	541	528	0	459	0	0	
8	0	0	0	0	544	514	0	448	0	0	
9	0	0	0	0	547	496	0	442	0	0	
10	0	0	0	0	551	479	0	439	0	0	
11	0	0	0	0	555	461	0	441	0	0	
12	0	0	0	0	558	446	0	447	0	0	
13	0	0	0	0	560	434	0	456	0	0	
14	0	0	0	0	561	428	0	467	0	0	
15	0	0	0	0	561	428	0	480	0	0	
0	0	0	0	0	560	432	0	493	0	0	
1	0	0	0	0	558	442	0	505	0	0	
2	0	0	0	0	555	456	0	515	0	0	
3	0	0	0	0	551	473	0	522	0	0	
4	0	0	0	0	548	492	0	525	0	0	
5	0	0	0	0	545	510	0	524	0	0	
6	0	0	0	0	542	525	0	519	0	0	
7	0	0	0	0	540	536	0	510	0	0	
8	0	0	0	0	540	543	0	499	0	0	
9	0	0	0	0	540	544	0	486	0	0	
10	0	0	0	0	542	539	0	473	0	0	
11	0	0	0	0	544	529	0	462	0	0	
12	0	0	0	0	547	514	0	452	0	0	
13	0	0	0	0	550	497	0	445	0	0	
14	0	0	0	0	553	479	0	443	0	0	
15	0	0	0	0	556	461	0	444	0	0	
0	0	0	0	0	558	445	0	449	0	0	
1	0	0	0	0	559	432	0	458	0	0	
2	0	0	0	0	558	425	0	470	0	0	
3	0	0	0	0	557	424	0	481	0	0	
4	0	0	0	0	555	429	0	494	0	0	
5	0	0	0	0	551	438	0	505	0	0	
6	0	0	0	0	547	452	0	515	0	0	
7	0	0	0	0	543	469	0	520	0	0	
8	0	0	0	0	540	487	0	523	0	0	
9	0	0	0	0	536	505	0	521	0	0	
10	0	0	0	0	534	521	0	515	0	0	
11	0	0	0	0	532	534	0	507	0	0	
12	0	0	0	0	532	541	0	496	0	0	
13	0	0	0	0	534	543	0	483	0	0	
14	0	0	0	0	536	540	0	471	0	0	
15	0	0	0	0	540	531	0	460	0	0	
0	0	0	0	0	544	518	0	451	0	0	
1	0	0	0	0	548	502	0	446	0	0	
2	0	0	0	0	553	483	0	444	0	0	
3	0	0	0	0	557	467	0	447	0	0	
4	0	0	0	0	561	451	0	454	0	0	
5	0	0	0	0	563	440	0	463	0	0	
6	0	0	0	0	564	433	0	475	0	0	
7	0	0	0	0	564	433	0	487	0	0	
8	0	0	0	0	562	437	0	500	0	0	
9	0	0	0	0	560	446	0	511	0	0	
10	0	0	0	0	556	459	0	519	0	0	
11	0	0	0	0	551	475	0	524	0	0	
12	0	0	0	0	547	492	0	525	0	0	
13	0	0	0	0	543	509	0	522	0	0	
14	0	0	0	0	539	523	0	515	0	0	
15	0	0	0	0	536	534	0	505	0	0	
0	0	0	0	0	534	539	0	492	0	0	
1	0	0	0	0	534	540	0	478	0	0	
2	0	0	0	0	535	535	0	466	0	0	
3	0	0	0	0	537	525	0	455	0	0	
4	0	0	0	0	540	510	0	446	0	0	
5	0	0	0	0	544	494	0	440	0	0	
6	0	0	0	0	548	476	0	439	0	0	
7	0	0	0	0	551	459	0	441	0	0	
8	0	0	0	0	555	444	0	448	0	0	
9	0	0	0	0	557	433	0	458	0	0	
10	0	0	0	0	559	427	0	471	0	0	
11	0	0	0	0	558	426	0	483	0	0	
12	0	0	0	0	557	431	0	497	0	0	
13	0	0	0	0	554	441	0	508	0	0	
14	0	0	0	0	551	455	0	517	0	0	
15	0	0	0	0	546	472	0	522	0	0	
0	0	0	0	0	542	490	0	523	0	0	
1	0	0	0	0	538	508	0	521	0	0	
2	0	0	0	0	534	523	0	514	0	0	
3	0	0	0	0	531	534	0	503	0	0	
4	0	0	0	0	529	540	0	491	0	0	
5	0	0	0	0	529	541	0	476	0	0	
6	0	0	0	0	531	536	0	463	0	0	
7	0	0	0	0	533	525	0	450	0	0	
8	0	0	0	0	536	510	0	440	0	0	
9	0	0	0	0	539	492	0	433	0	0	
10	0	0	0	0	543	473	0	430	0	0	
11	0	0	0	0	546	455	0	432	0	0	
12	0	0	0	0	549	438	0	437	0	0	
13	0	0	0	0	550	427	0	446	0	0	
14	0	0	0	0	551	419	0	458	0	0	
15	0	0	0	0	551	418	0	471	0	0	
0	0	0	0	0	549	423	0	484	0	0	
1	0	0	0	0	546	432	0	496	0	0	
2	0	0	0	0	544	447	0	507	0	0	
3	0	0	0	0	540	463	0	514	0	0	
4	0	0	0	0	536	483	0	517	0	0	
5	0	0	0	0	533	502	0	516	0	0	
6	0	0	0	0	530	518	0	512	0	0	
7	0	0	0	0	529	530	0	503	0	0	
8	0	0	0	0	528	539	0	492	0	0	
9	0	0	0	0	529	540	0	480	0	0	
10	0	0	0	0	531	536	0	468	0	0	
11	0	0	0	0	535	527	0	457	0	0	
12	0	0	0	0	538	513	0	448	0	0	
13	0	0	0	0	542	496	0	442	0	0	
14	0	0	0	0	546	478	0	439	0	0	
15	0	0	0	0	550	460	0	441	0	0	
0	0	0	0	0	553	445	0	446	0	0	
1	0	0	0	0	556	433	0	455	0	0	
2	0	0	0	0	556	426	0	465	0	0	
3	0	0	0	0	555	424	0	477	0	0	
4	0	0	0	0	553	428	0	490	0	0	
5	0	0	0	0	550	436	0	501	0	0	
6	0	0	0	0	546	449	0	509	0	0	
7	0	0	0	0	541	465	0	514	0	0	
8	0	0	0	0	536	482	0	516	0	0	
9	0	0	0	0	531	498	0	514	0	0	
10	0	0	0	0	527	513	0	508	0	0	
11	0	0	0	0	525	524	0	498	0	0	
12	0	0	0	0	523	531	0	487	0	0	
13	0	0	0	0	524	531	0	475	0	0	
14	0	0	0	0	526	528	0	462	0	0	
15	0	0	0	0	529	519	0	451	0	0	
0	0	0	0	0	534	505	0	442	0	0	
1	0	0	0	0	538	489	0	436	0	0	
2	0	0	0	0	543	473	0	434	0	0	
3	0	0	0	0	548	456	0	437	0	0	
4	0	0	0	0	552	442	0	443	0	0	
5	0	0	0	0	555	430	0	452	0	0	
6	0	0	0	0	556	423	0	463	0	0	
7	0	0	0	0	555	423	0	475	0	0	
8	0	0	0	0	553	427	0	488	0	0	
9	0	0	0	0	550	435	0	499	0	0	
10	0	0	0	0	546	448	0	508	0	0	
11	0	0	0	0	541	463	0	512	0	0	
12	0	0	0	0	536	480	0	515	0	0	
13	0	0	0	0	531	497	0	513	0	0	
14	0	0	0	0	527	512	0	508	0	0	
15	0	0	0	0	524	523	0	499	0	0	
0	0	0	0	0	524	529	0	488	0	0	
1	0	0	0	0	525	531	0	475	0	0	
2	0	0	0	0	528	527	0	464	0	0	
3	0	0	0	0	531	518	0	454	0	0	
4	0	0	0	0	536	505	0	445	0	0	
5	0	0	0	0	541	489	0	440	0	0	
6	0	0	0	0	547	472	0	437	0	0	
7	0	0	0	0	551	455	0	440	0	0	
8	0	0	0	0	555	440	0	445	0	0	
9	0	0	0	0	558	428	0	454	0	0	
10	0	0	0	0	558	420	0	465	0	0	
11	0	0	0	0	557	419	0	477	0	0	
12	0	0	0	0	555	422	0	489	0	0	
13	0	0	0	0	550	430	0	500	0	0	
14	0	0	0	0	546	444	0	508	0	0	
15	0	0	0	0	540	460	0	514	0	0	
0	0	0	0	0	536	478	0	516	0	0	
1	0	0	0	0	530	495	0	513	0	0	
2	0	0	0	0	526	510	0	508	0	0	
3	0	0	0	0	524	522	0	498	0	0	
4	0	0	0	0	522	528	0	487	0	0	
5	0	0	0	0	523	529	0	473	0	0	
6	0	0	0	0	525	525	0	460	0	0	
7	0	0	0	0	528	515	0	449	0	0	
8	0	0	0	0	532	501	0	440	0	0	
9	0	0	0	0	537	485	0	433	0	0	
10	0	0	0	0	542	467	0	431	0	0	
11	0	0	0	0	547	451	0	433	0	0	
12	0	0	0	0	551	435	0	440	0	0	
13	0	0	0	0	555	425	0	449	0	0	
14	0	0	0	0	556	419	0	462	0	0	
15	0	0	0	0	556	419	0	475	0	0	
0	0	0	0	0	555	424	0	488	0	0	
1	0	0	0	0	552	435	0	501	0	0	
2	0	0	0	0	548	449	0	511	0	0	
3	0	0	0	0	544	467	0	517	0	0	
4	0	0	0	0	539	485	0	519	0	0	
5	0	0	0	0	535	503	0	518	0	0	
6	0	0	0	0	531	519	0	512	0	0	
7	0	0	0	0	528	530	0	503	0	0	
8	0	0	0	0	527	537	0	491	0	0	
9	0	0	0	0	527	538	0	478	0	0	
10	0	0	0	0	529	534	0	465	0	0	
11	0	0	0	0	533	524	0	454	0	0	
12	0	0	0	0	537	511	0	445	0	0	
13	0	0	0	0	542	495	0	439	0	0	
14	0	0	0	0	547	478	0	436	0	0	
15	0	0	0	0	551	462	0	439	0	0	
0	0	0	0	0	556	447	0	445	0	0	
1	0	0	0	0	559	436	0	454	0	0	
2	0	0	0	0	560	431	0	465	0	0	
3	0	0	0	0	560	430	0	478	0	0	
4	0	0	0	0	558	435	0	491	0	0	
5	0	0	0	0	555	445	0	503	0	0	
6	0	0	0	0	551	459	0	512	0	0	
7	0	0	0	0	546	476	0	518	0	0	
8	0	0	0	0	542	494	0	520	0	0	
9	0	0	0	0	537	511	0	519	0	0	
10	0	0	0	0	534	526	0	513	0	0	
11	0	0	0	0	531	537	0	504	0	0	
12	0	0	0	0	530	544	0	493	0	0	
13	0	0	0	0	530	545	0	480	0	0	
14	0	0	0	0	532	540	0	468	0	0	
15	0	0	0	0	535	531	0	456	0	0	
0	0	0	0	0	540	516	0	447	0	0	
1	0	0	0	0	544	500	0	440	0	0	
2	0	0	0	0	550	482	0	438	0	0	
3	0	0	0	0	555	465	0	439	0	0	
4	0	0	0	0	560	450	0	445	0	0	
5	0	0	0	0	564	439	0	454	0	0	
6	0	0	0	0	566	432	0	464	0	0	
7	0	0	0	0	567	432	0	477	0	0	
8	0	0	0	0	566	436	0	489	0	0	
9	0	0	0	0	563	446	0	501	0	0	
10	0	0	0	0	560	459	0	510	0	0	
11	0	0	0	0	555	475	0	516	0	0	
12	0	0	0	0	549	493	0	519	0	0	
13	0	0	0	0	543	510	0	518	0	0	
14	0	0	0	0	538	525	0	512	0	0	
15	0	0	0	0	534	536	0	504	0	0	
0	0	0	0	0	531	542	0	492	0	0	
1	0	0	0	0	529	543	0	479	0	0	
2	0	0	0	0	529	537	0	466	0	0	
3	0	0	0	0	531	528	0	455	0	0	
4	0	0	0	0	534	513	0	445	0	0	
5	0	0	0	0	536	497	0	438	0	0	
6	0	0	0	0	541	478	0	435	0	0	
7	0	0	0	0	545	461	0	436	0	0	
8	0	0	0	0	549	445	0	441	0	0	
9	0	0	0	0	553	433	0	450	0	0	
10	0	0	0	0	555	426	0	461	0	0	
11	0	0	0	0	555	425	0	472	0	0	
12	0	0	0	0	554	429	0	485	0	0	
13	0	0	0	0	552	438	0	497	0	0	
14	0	0	0	0	550	451	0	506	0	0	
15	0	0	0	0	545	468	0	512	0	0	
0	0	0	0	0	542	486	0	515	0	0	
1	0	0	0	0	537	504	0	514	0	0	
2	0	0	0	0	534	519	0	509	0	0	
3	0	0	0	0	532	532	0	501	0	0	
4	0	0	0	0	531	540	0	490	0	0	
5	0	0	0	0	531	541	0	478	0	0	
6	0	0	0	0	532	537	0	466	0	0	
7	0	0	0	0	535	529	0	455	0	0	
8	0	0	0	0	538	515	0	447	0	0	
9	0	0	0	0	542	499	0	440	0	0	
10	0	0	0	0	545	481	0	439	0	0	
11	0	0	0	0	548	463	0	440	0	0	
12	0	0	0	0	551	448	0	446	0	0	
13	0	0	0	0	553	436	0	455	0	0	
14	0	0	0	0	553	429	0	466	0	0	
15	0	0	0	0	553	427	0	478	0	0	
0	0	0	0	0	551	431	0	490	0	0	
1	0	0	0	0	548	440	0	501	0	0	
2	0	0	0	0	543	453	0	510	0	0	
3	0	0	0	0	539	470	0	515	0	0	
4	0	0	0	0	535	487	0	517	0	0	
5	0	0	0	0	530	505	0	515	0	0	
6	0	0	0	0	526	520	0	508	0	0	
7	0	0	0	0	523	531	0	499	0	0	
8	0	0	0	0	521	538	0	487	0	0	
9	0	0	0	0	520	539	0	473	0	0	
10	0	0	0	0	521	535	0	460	0	0	
11	0	0	0	0	524	524	0	447	0	0	
12	0	0	0	0	527	511	0	437	0	0	
13	0	0	0	0	530	494	0	430	0	0	
14	0	0	0	0	534	476	0	427	0	0	
15	0	0	0	0	538	458	0	428	0	0	
0	0	0	0	0	542	442	0	434	0	0	
1	0	0	0	0	545	431	0	443	0	0	
2	0	0	0	0	546	423	0	454	0	0	
3	0	0	0	0	546	422	0	466	0	0	
4	0	0	0	0	545	426	0	480	0	0	
5	0	0	0	0	543	435	0	492	0	0	
6	0	0	0	0	540	448	0	501	0	0	
7	0	0	0	0	536	464	0	507	0	0	
8	0	0	0	0	532	482	0	510	0	0	
9	0	0	0	0	528	499	0	509	0	0	
10	0	0	0	0	525	515	0	503	0	0	
11	0	0	0	0	522	527	0	494	0	0	
12	0	0	0	0	520	534	0	482	0	0	
13	0	0	0	0	520	536	0	469	0	0	
14	0	0	0	0	522	532	0	456	0	0	
15	0	0	0	0	525	524	0	444	0	0	
0	0	0	0	0	528	511	0	435	0	0	
1	0	0	0	0	532	494	0	428	0	0	
2	0	0	0	0	536	477	0	425	0	0	
3	0	0	0	0	541	460	0	428	0	0	
4	0	0	0	0	544	445	0	434	0	0	
5	0	0	0	0	548	433	0	443	0	0	
6	0	0	0	0	549	427	0	455	0	0	
7	0	0	0	0	549	426	0	468	0	0	
8	0	0	0	0	548	431	0	483	0	0	
9	0	0	0	0	546	440	0	495	0	0	
10	0	0	0	0	543	454	0	505	0	0	
11	0	0	0	0	540	471	0	512	0	0	
12	0	0	0	0	536	490	0	515	0	0	
13	0	0	0	0	533	508	0	514	0	0	
14	0	0	0	0	530	524	0	509	0	0	
15	0	0	0	0	528	535	0	500	0	0	
0	0	0	0	0	527	542	0	488	0	0	
1	0	0	0	0	527	543	0	476	0	0	
2	0	0	0	0	528	539	0	463	0	0	
3	0	0	0	0	531	528	0	450	0	0	
4	0	0	0	0	534	514	0	440	0	0	
5	0	0	0	0	537	496	0	433	0	0	
6	0	0	0	0	540	477	0	428	0	0	
7	0	0	0	0	543	458	0	429	0	0	
8	0	0	0	0	546	442	0	433	0	0	
9	0	0	0	0	548	430	0	441	0	0	
10	0	0	0	0	548	420	0	452	0	0	
11	0	0	0	0	547	419	0	463	0	0	
12	0	0	0	0	545	422	0	476	0	0	
13	0	0	0	0	542	431	0	488	0	0	
14	0	0	0	0	538	444	0	498	0	0	
15	0	0	0	0	534	460	0	505	0	0	
0	0	0	0	0	529	478	0	508	0	0	
1	0	0	0	0	526	496	0	508	0	0	
2	0	0	0	0	523	512	0	504	0	0	
3	0	0	0	0	521	526	0	496	0	0	
4	0	0	0	0	521	533	0	487	0	0	
5	0	0	0	0	523	536	0	475	0	0	
6	0	0	0	0	526	534	0	463	0	0	
7	0	0	0	0	530	525	0	452	0	0	
8	0	0	0	0	535	512	0	444	0	0	
9	0	0	0	0	539	497	0	437	0	0	
10	0	0	0	0	544	479	0	434	0	0	
11	0	0	0	0	547	462	0	435	0	0	
12	0	0	0	0	551	446	0	440	0	0	
13	0	0	0	0	553	434	0	448	0	0	
14	0	0	0	0	553	426	0	458	0	0	
15	0	0	0	0	551	424	0	470	0	0	
0	0	0	0	0	549	427	0	483	0	0	
1	0	0	0	0	546	436	0	494	0	0	
2	0	0	0	0	542	449	0	503	0	0	
3	0	0	0	0	537	464	0	509	0	0	
4	0	0	0	0	533	482	0	512	0	0	
5	0	0	0	0	529	500	0	512	0	0	
6	0	0	0	0	526	516	0	507	0	0	
7	0	0	0	0	524	527	0	498	0	0	
8	0	0	0	0	523	536	0	487	0	0	
9	0	0	0	0	524	537	0	475	0	0	
10	0	0	0	0	527	534	0	463	0	0	
11	0	0	0	0	531	524	0	452	0	0	
12	0	0	0	0	535	511	0	442	0	0	
13	0	0	0	0	539	494	0	435	0	0	
14	0	0	0	0	544	476	0	432	0	0	
15	0	0	0	0	548	459	0	434	0	0	
0	0	0	0	0	552	443	0	439	0	0	
1	0	0	0	0	555	431	0	448	0	0	
2	0	0	0	0	556	424	0	459	0	0	
3	0	0	0	0	555	423	0	472	0	0	
4	0	0	0	0	553	427	0	485	0	0	
5	0	0	0	0	551	436	0	497	0	0	
6	0	0	0	0	547	450	0	507	0	0	
7	0	0	0	0	542	467	0	513	0	0	
8	0	0	0	0	538	486	0	516	0	0	
9	0	0	0	0	533	504	0	516	0	0	
10	0	0	0	0	530	520	0	511	0	0	
11	0	0	0	0	527	533	0	503	0	0	
12	0	0	0	0	526	540	0	492	0	0	
13	0	0	0	0	527	542	0	480	0	0	
14	0	0	0	0	529	539	0	467	0	0	
15	0	0	0	0	531	529	0	455	0	0	
0	0	0	0	0	535	515	0	446	0	0	
1	0	0	0	0	539	498	0	439	0	0	
2	0	0	0	0	543	480	0	435	0	0	
3	0	0	0	0	546	461	0	436	0	0	
4	0	0	0	0	550	444	0	440	0	0	
5	0	0	0	0	551	430	0	448	0	0	
6	0	0	0	0	551	422	0	458	0	0	
7	0	0	0	0	551	418	0	470	0	0	
8	0	0	0	0	548	420	0	481	0	0	
9	0	0	0	0	545	428	0	493	0	0	
10	0	0	0	0	542	441	0	502	0	0	
11	0	0	0	0	537	456	0	509	0	0	
12	0	0	0	0	534	474	0	512	0	0	
13	0	0	0	0	530	492	0	511	0	0	
14	0	0	0	0	527	507	0	506	0	0	
15	0	0	0	0	525	519	0	498	0	0	
0	0	0	0	0	525	527	0	487	0	0	
1	0	0	0	0	526	529	0	475	0	0	
2	0	0	0	0	528	527	0	463	0	0	
3	0	0	0	0	531	518	0	451	0	0	
4	0	0	0	0	536	504	0	441	0	0	
5	0	0	0	0	540	488	0	435	0	0	
6	0	0	0	0	544	471	0	431	0	0	
7	0	0	0	0	548	453	0	432	0	0	
8	0	0	0	0	551	437	0	436	0	0	
9	0	0	0	0	554	425	0	445	0	0	
10	0	0	0	0	553	417	0	455	0	0	
11	0	0	0	0	552	415	0	467	0	0	
12	0	0	0	0	550	418	0	481	0	0	
13	0	0	0	0	547	427	0	493	0	0	
14	0	0	0	0	543	440	0	503	0	0	
15	0	0	0	0	538	456	0	510	0	0	
0	0	0	0	0	534	475	0	513	0	0	
1	0	0	0	0	530	493	0	513	0	0	
2	0	0	0	0	527	509	0	508	0	0	
3	0	0	0	0	525	522	0	500	0	0	
4	0	0	0	0	525	530	0	488	0	0	
5	0	0	0	0	526	532	0	476	0	0	
6	0	0	0	0	529	530	0	463	0	0	
7	0	0	0	0	533	520	0	451	0	0	
8	0	0	0	0	537	507	0	442	0	0	
9	0	0	0	0	542	492	0	435	0	0	
10	0	0	0	0	546	473	0	431	0	0	
11	0	0	0	0	551	456	0	432	0	0	
12	0	0	0	0	554	440	0	436	0	0	
13	0	0	0	0	556	428	0	445	0	0	
14	0	0	0	0	557	420	0	455	0	0	
15	0	0	0	0	556	418	0	467	0	0	
0	0	0	0	0	553	422	0	481	0	0	
1	0	0	0	0	551	431	0	493	0	0	
2	0	0	0	0	547	444	0	504	0	0	
3	0	0	0	0	542	460	0	511	0	0	
4	0	0	0	0	537	479	0	514	0	0	
5	0	0	0	0	532	497	0	514	0	0	
6	0	0	0	0	529	512	0	509	0	0	
7	0	0	0	0	526	525	0	500	0	0	
8	0	0	0	0	525	533	0	488	0	0	
9	0	0	0	0	526	535	0	476	0	0	
10	0	0	0	0	528	531	0	463	0	0	
11	0	0	0	0	531	523	0	450	0	0	
12	0	0	0	0	536	509	0	440	0	0	
13	0	0	0	0	540	493	0	432	0	0	
14	0	0	0	0	545	476	0	429	0	0	
15	0	0	0	0	549	458	0	430	0	0	
0	0	0	0	0	553	443	0	434	0	0	
1	0	0	0	0	555	431	0	442	0	0	
2	0	0	0	0	556	423	0	454	0	0	
3	0	0	0	0	555	420	0	466	0	0	
4	0	0	0	0	553	423	0	479	0	0	
5	0	0	0	0	549	432	0	491	0	0	
6	0	0	0	0	545	444	0	500	0	0	
7	0	0	0	0	540	460	0	507	0	0	
8	0	0	0	0	535	478	0	510	0	0	
9	0	0	0	0	531	495	0	510	0	0	
10	0	0	0	0	527	511	0	505	0	0	
11	0	0	0	0	524	523	0	496	0	0	
12	0	0	0	0	523	530	0	486	0	0	
13	0	0	0	0	524	532	0	473	0	0	
14	0	0	0	0	526	528	0	462	0	0	
15	0	0	0	0	529	519	0	450	0	0	
0	0	0	0	0	532	507	0	440	0	0	
1	0	0	0	0	537	491	0	433	0	0	
2	0	0	0	0	542	473	0	430	0	0	
3	0	0	0	0	546	456	0	430	0	0	
4	0	0	0	0	550	440	0	435	0	0	
5	0	0	0	0	552	428	0	443	0	0	
6	0	0	0	0	553	420	0	452	0	0	
7	0	0	0	0	552	418	0	464	0	0	
8	0	0	0	0	550	421	0	476	0	0	
9	0	0	0	0	547	429	0	487	0	0	
10	0	0	0	0	542	442	0	496	0	0	
11	0	0	0	0	537	456	0	502	0	0	
12	0	0	0	0	531	473	0	504	0	0	
13	0	0	0	0	527	491	0	503	0	0	
14	0	0	0	0	523	505	0	497	0	0	
15	0	0	0	0	519	516	0	488	0	0	
0	0	0	0	0	517	524	0	477	0	0	
1	0	0	0	0	517	525	0	464	0	0	
2	0	0	0	0	518	521	0	452	0	0	
3	0	0	0	0	521	513	0	440	0	0	
4	0	0	0	0	525	500	0	431	0	0	
5	0	0	0	0	528	484	0	424	0	0	
6	0	0	0	0	533	466	0	422	0	0	
7	0	0	0	0	537	449	0	423	0	0	
8	0	0	0	0	540	432	0	428	0	0	
9	0	0	0	0	543	420	0	436	0	0	
10	0	0	0	0	544	412	0	447	0	0	
11	0	0	0	0	543	409	0	459	0	0	
12	0	0	0	0	541	412	0	472	0	0	
13	0	0	0	0	538	419	0	483	0	0	
14	0	0	0	0	535	432	0	492	0	0	
15	0	0	0	0	529	448	0	498	0	0	
0	0	0	0	0	525	465	0	500	0	0	
1	0	0	0	0	521	483	0	499	0	0	
2	0	0	0	0	517	499	0	494	0	0	
3	0	0	0	0	515	512	0	485	0	0	
4	0	0	0	0	513	520	0	473	0	0	
5	0	0	0	0	514	524	0	461	0	0	
6	0	0	0	0	516	521	0	449	0	0	
7	0	0	0	0	519	513	0	438	0	0	
8	0	0	0	0	524	501	0	429	0	0	
9	0	0	0	0	529	486	0	423	0	0	
10	0	0	0	0	534	468	0	420	0	0	
11	0	0	0	0	540	451	0	423	0	0	
12	0	0	0	0	544	436	0	429	0	0	
13	0	0	0	0	547	424	0	438	0	0	
14	0	0	0	0	550	416	0	450	0	0	
15	0	0	0	0	550	413	0	463	0	0	
0	0	0	0	0	548	416	0	476	0	0	
1	0	0	0	0	546	424	0	488	0	0	
2	0	0	0	0	542	436	0	499	0	0	
3	0	0	0	0	538	452	0	506	0	0	
4	0	0	0	0	534	470	0	508	0	0	
5	0	0	0	0	529	488	0	508	0	0	
6	0	0	0	0	527	504	0	503	0	0	
7	0	0	0	0	525	518	0	494	0	0	
8	0	0	0	0	524	527	0	483	0	0	
9	0	0	0	0	525	530	0	470	0	0	
10	0	0	0	0	527	528	0	457	0	0	
11	0	0	0	0	531	520	0	446	0	0	
12	0	0	0	0	535	507	0	436	0	0	
13	0	0	0	0	539	492	0	429	0	0	
14	0	0	0	0	544	474	0	426	0	0	
15	0	0	0	0	549	456	0	428	0	0	
0	0	0	0	0	552	440	0	432	0	0	
1	0	0	0	0	555	427	0	442	0	0	
2	0	0	0	0	556	418	0	453	0	0	
3	0	0	0	0	556	415	0	465	0	0	
4	0	0	0	0	554	418	0	479	0	0	
5	0	0	0	0	551	425	0	491	0	0	
6	0	0	0	0	547	438	0	500	0	0	
7	0	0	0	0	542	453	0	507	0	0	
8	0	0	0	0	536	471	0	509	0	0	
9	0	0	0	0	531	488	0	508	0	0	
10	0	0	0	0	527	504	0	502	0	0	
11	0	0	0	0	524	515	0	493	0	0	
12	0	0	0	0	522	523	0	481	0	0	
13	0	0	0	0	521	525	0	468	0	0	
14	0	0	0	0	523	522	0	455	0	0	
15	0	0	0	0	525	513	0	443	0	0	
0	0	0	0	0	529	500	0	432	0	0	
1	0	0	0	0	533	483	0	425	0	0	
2	0	0	0	0	537	465	0	422	0	0	
3	0	0	0	0	542	448	0	423	0	0	
4	0	0	0	0	546	433	0	429	0	0	
5	0	0	0	0	548	420	0	438	0	0	
6	0	0	0	0	550	412	0	449	0	0	
7	0	0	0	0	550	410	0	462	0	0	
8	0	0	0	0	548	413	0	475	0	0	
9	0	0	0	0	545	421	0	487	0	0	
10	0	0	0	0	542	434	0	498	0	0	
11	0	0	0	0	538	451	0	505	0	0	
12	0	0	0	0	535	469	0	509	0	0	
13	0	0	0	0	531	487	0	509	0	0	
14	0	0	0	0	528	504	0	504	0	0	
15	0	0	0	0	527	518	0	496	0	0	
0	0	0	0	0	526	527	0	485	0	0	
1	0	0	0	0	527	530	0	473	0	0	
2	0	0	0	0	529	528	0	461	0	0	
3	0	0	0	0	533	520	0	449	0	0	
4	0	0	0	0	536	508	0	440	0	0	
5	0	0	0	0	540	493	0	433	0	0	
6	0	0	0	0	545	476	0	430	0	0	
7	0	0	0	0	550	460	0	432	0	0	
8	0	0	0	0	553	445	0	439	0	0	
9	0	0	0	0	557	433	0	448	0	0	
10	0	0	0	0	559	427	0	460	0	0	
11	0	0	0	0	560	425	0	474	0	0	
12	0	0	0	0	559	430	0	488	0	0	
13	0	0	0	0	556	438	0	501	0	0	
14	0	0	0	0	553	450	0	511	0	0	
15	0	0	0	0	548	465	0	516	0	0	
0	0	0	0	0	542	481	0	518	0	0	
1	0	0	0	0	535	496	0	514	0	0	
2	0	0	0	0	527	507	0	504	0	0	
3	0	0	0	0	519	514	0	491	0	0	
4	0	0	0	0	510	516	0	472	0	0	
5	0	0	0	0	502	510	0	452	0	0	
6	0	0	0	0	495	499	0	431	0	0	
7	0	0	0	0	487	481	0	409	0	0	
8	0	0	0	0	480	459	0	388	0	0	
9	0	0	0	0	472	432	0	371	0	0	
10	0	0	0	0	465	403	0	355	0	0	
11	0	0	0	0	458	375	0	345	0	0	
12	0	0	0	0	450	348	0	339	0	0	
13	0	0	0	0	441	324	0	335	0	0	
14	0	0	0	0	432	304	0	335	0	0	
15	0	0	0	0	420	290	0	336	0	0	
0	0	0	0	0	408	281	0	339	0	0	
1	0	0	0	0	394	278	0	340	0	0	
2	0	0	0	0	380	279	0	340	0	0	
3	0	0	0	0	364	284	0	337	0	0	
4	0	0	0	0	348	290	0	330	0	0	
5	0	0	0	0	332	298	0	319	0	0	
6	0	0	0	0	317	304	0	304	0	0	
7	0	0	0	0	303	307	0	286	0	0	
8	0	0	0	0	293	308	0	267	0	0	
9	0	0	0	0	285	304	0	247	0	0	
10	0	0	0	0	281	297	0	229	0	0	
11	0	0	0	0	281	287	0	214	0	0	
12	0	0	0	0	287	275	0	204	0	0	
13	0	0	0	0	296	263	0	200	0	0	
14	0	0	0	0	310	252	0	203	0	0	
15	0	0	0	0	328	244	0	215	0	0	
0	0	0	0	0	349	241	0	234	0	0	
1	0	0	0	0	373	243	0	261	0	0	
2	0	0	0	0	397	253	0	293	0	0	
3	0	0	0	0	423	270	0	329	0	0	
4	0	0	0	0	447	294	0	367	0	0	
5	0	0	0	0	470	324	0	405	0	0	
6	0	0	0	0	491	359	0	441	0	0	
7	0	0	0	0	510	398	0	472	0	0	
8	0	0	0	0	525	436	0	496	0	0	
9	0	0	0	0	537	474	0	515	0	0	
10	0	0	0	0	547	507	0	524	0	0	
11	0	0	0	0	553	534	0	527	0	0	
12	0	0	0	0	558	554	0	523	0	0	
13	0	0	0	0	561	565	0	513	0	0	
14	0	0	0	0	563	568	0	501	0	0	
15	0	0	0	0	563	560	0	487	0	0	
0	0	0	0	0	563	547	0	472	0	0	
1	0	0	0	0	562	528	0	460	0	0	
2	0	0	0	0	561	505	0	450	0	0	
3	0	0	0	0	559	482	0	444	0	0	
4	0	0	0	0	557	459	0	443	0	0	
5	0	0	0	0	556	441	0	445	0	0	
6	0	0	0	0	553	427	0	451	0	0	
7	0	0	0	0	551	419	0	461	0	0	
8	0	0	0	0	548	418	0	472	0	0	
9	0	0	0	0	545	423	0	483	0	0	
10	0	0	0	0	543	434	0	493	0	0	
11	0	0	0	0	540	450	0	502	0	0	
12	0	0	0	0	537	468	0	506	0	0	
13	0	0	0	0	535	488	0	508	0	0	
14	0	0	0	0	534	506	0	507	0	0	
15	0	0	0	0	533	521	0	501	0	0	
0	0	0	0	0	533	532	0	492	0	0	
1	0	0	0	0	534	538	0	482	0	0	
2	0	0	0	0	537	538	0	472	0	0	
3	0	0	0	0	540	532	0	462	0	0	
4	0	0	0	0	544	521	0	453	0	0	
5	0	0	0	0	548	506	0	447	0	0	
6	0	0	0	0	552	489	0	443	0	0	
7	0	0	0	0	556	472	0	444	0	0	
8	0	0	0	0	560	456	0	449	0	0	
9	0	0	0	0	562	444	0	456	0	0	
10	0	0	0	0	563	435	0	468	0	0	
11	0	0	0	0	563	432	0	480	0	0	
12	0	0	0	0	561	434	0	492	0	0	
13	0	0	0	0	559	442	0	504	0	0	
14	0	0	0	0	556	453	0	514	0	0	
15	0	0	0	0	552	469	0	521	0	0	
0	0	0	0	0	548	487	0	524	0	0	
1	0	0	0	0	545	504	0	523	0	0	
2	0	0	0	0	542	521	0	518	0	0	
3	0	0	0	0	539	534	0	509	0	0	
4	0	0	0	0	538	543	0	497	0	0	
5	0	0	0	0	538	547	0	484	0	0	
6	0	0	0	0	540	546	0	472	0	0	
7	0	0	0	0	542	539	0	460	0	0	
8	0	0	0	0	545	527	0	450	0	0	
9	0	0	0	0	549	513	0	444	0	0	
10	0	0	0	0	553	497	0	440	0	0	
11	0	0	0	0	557	480	0	442	0	0	
12	0	0	0	0	561	465	0	448	0	0	
13	0	0	0	0	564	452	0	456	0	0	
14	0	0	0	0	565	444	0	468	0	0	
15	0	0	0	0	565	441	0	481	0	0	
0	0	0	0	0	564	444	0	495	0	0	
1	0	0	0	0	562	451	0	508	0	0	
2	0	0	0	0	559	462	0	518	0	0	
3	0	0	0	0	555	477	0	526	0	0	
4	0	0	0	0	550	494	0	529	0	0	
5	0	0	0	0	546	511	0	529	0	0	
6	0	0	0	0	542	526	0	524	0	0	
7	0	0	0	0	539	539	0	516	0	0	
8	0	0	0	0	538	546	0	505	0	0	
9	0	0	0	0	538	548	0	492	0	0	
10	0	0	0	0	539	546	0	478	0	0	
11	0	0	0	0	542	537	0	465	0	0	
12	0	0	0	0	545	524	0	455	0	0	
13	0	0	0	0	549	509	0	447	0	0	
14	0	0	0	0	554	491	0	442	0	0	
15	0	0	0	0	558	473	0	443	0	0	
0	0	0	0	0	562	457	0	447	0	0	
1	0	0	0	0	565	445	0	455	0	0	
2	0	0	0	0	567	437	0	466	0	0	
3	0	0	0	0	567	435	0	479	0	0	
4	0	0	0	0	565	438	0	492	0	0	
5	0	0	0	0	563	446	0	505	0	0	
6	0	0	0	0	560	459	0	515	0	0	
7	0	0	0	0	556	475	0	523	0	0	
8	0	0	0	0	551	492	0	527	0	0	
9	0	0	0	0	547	511	0	528	0	0	
10	0	0	0	0	543	526	0	524	0	0	
11	0	0	0	0	541	539	0	517	0	0	
12	0	0	0	0	539	547	0	507	0	0	
13	0	0	0	0	539	551	0	494	0	0	
14	0	0	0	0	540	548	0	481	0	0	
15	0	0	0	0	542	540	0	470	0	0	
0	0	0	0	0	546	527	0	459	0	0	
1	0	0	0	0	549	510	0	451	0	0	
2	0	0	0	0	553	491	0	446	0	0	
3	0	0	0	0	556	473	0	445	0	0	
4	0	0	0	0	560	455	0	448	0	0	
5	0	0	0	0	562	441	0	455	0	0	
6	0	0	0	0	562	432	0	463	0	0	
7	0	0	0	0	562	428	0	475	0	0	
8	0	0	0	0	560	430	0	487	0	0	
9	0	0	0	0	556	437	0	498	0	0	
10	0	0	0	0	553	449	0	508	0	0	
11	0	0	0	0	550	464	0	514	0	0	
12	0	0	0	0	545	482	0	518	0	0	
13	0	0	0	0	542	500	0	517	0	0	
14	0	0	0	0	539	517	0	513	0	0	
15	0	0	0	0	537	530	0	505	0	0	
0	0	0	0	0	536	538	0	495	0	0	
1	0	0	0	0	537	542	0	483	0	0	
2	0	0	0	0	539	540	0	472	0	0	
3	0	0	0	0	541	532	0	460	0	0	
4	0	0	0	0	545	520	0	451	0	0	
5	0	0	0	0	548	504	0	443	0	0	
6	0	0	0	0	552	486	0	440	0	0	
7	0	0	0	0	556	468	0	440	0	0	
8	0	0	0	0	559	452	0	444	0	0	
9	0	0	0	0	562	439	0	451	0	0	
10	0	0	0	0	562	430	0	461	0	0	
11	0	0	0	0	561	427	0	472	0	0	
12	0	0	0	0	560	430	0	485	0	0	
13	0	0	0	0	557	438	0	496	0	0	
14	0	0	0	0	554	449	0	506	0	0	
15	0	0	0	0	550	465	0	513	0	0	
0	0	0	0	0	545	484	0	517	0	0	
1	0	0	0	0	542	502	0	517	0	0	
2	0	0	0	0	538	519	0	513	0	0	
3	0	0	0	0	536	532	0	505	0	0	
4	0	0	0	0	535	541	0	496	0	0	
5	0	0	0	0	535	544	0	483	0	0	
6	0	0	0	0	537	543	0	471	0	0	
7	0	0	0	0	539	534	0	459	0	0	
8	0	0	0	0	542	521	0	449	0	0	
9	0	0	0	0	546	505	0	442	0	0	
10	0	0	0	0	551	487	0	438	0	0	
11	0	0	0	0	555	470	0	438	0	0	
12	0	0	0	0	558	453	0	442	0	0	
13	0	0	0	0	561	439	0	450	0	0	
14	0	0	0	0	562	431	0	460	0	0	
15	0	0	0	0	563	428	0	472	0	0	
0	0	0	0	0	561	430	0	486	0	0	
1	0	0	0	0	559	438	0	497	0	0	
2	0	0	0	0	556	451	0	508	0	0	
3	0	0	0	0	552	467	0	514	0	0	
4	0	0	0	0	548	485	0	518	0	0	
5	0	0	0	0	543	503	0	518	0	0	
6	0	0	0	0	540	519	0	514	0	0	
7	0	0	0	0	536	532	0	505	0	0	
8	0	0	0	0	535	542	0	495	0	0	
9	0	0	0	0	535	545	0	482	0	0	
10	0	0	0	0	536	543	0	469	0	0	
11	0	0	0	0	538	535	0	457	0	0	
12	0	0	0	0	542	521	0	447	0	0	
13	0	0	0	0	545	505	0	440	0	0	
14	0	0	0	0	549	487	0	435	0	0	
15	0	0	0	0	553	469	0	435	0	0	
0	0	0	0	0	557	453	0	439	0	0	
1	0	0	0	0	560	440	0	446	0	0	
2	0	0	0	0	561	431	0	457	0	0	
3	0	0	0	0	560	427	0	468	0	0	
4	0	0	0	0	560	430	0	481	0	0	
5	0	0	0	0	557	437	0	492	0	0	
6	0	0	0	0	553	449	0	502	0	0	
7	0	0	0	0	549	465	0	509	0	0	
8	0	0	0	0	545	482	0	512	0	0	
9	0	0	0	0	541	500	0	512	0	0	
10	0	0	0	0	537	516	0	507	0	0	
11	0	0	0	0	535	530	0	499	0	0	
12	0	0	0	0	534	538	0	489	0	0	
13	0	0	0	0	534	542	0	477	0	0	
14	0	0	0	0	536	540	0	464	0	0	
15	0	0	0	0	540	532	0	453	0	0	
0	0	0	0	0	543	519	0	443	0	0	
1	0	0	0	0	547	504	0	435	0	0	
2	0	0	0	0	552	487	0	431	0	0	
3	0	0	0	0	556	469	0	431	0	0	
4	0	0	0	0	560	453	0	436	0	0	
5	0	0	0	0	562	439	0	444	0	0	
6	0	0	0	0	563	431	0	455	0	0	
7	0	0	0	0	562	428	0	467	0	0	
8	0	0	0	0	560	430	0	480	0	0	
9	0	0	0	0	557	438	0	492	0	0	
10	0	0	0	0	552	450	0	502	0	0	
11	0	0	0	0	547	465	0	510	0	0	
12	0	0	0	0	543	483	0	514	0	0	
13	0	0	0	0	538	501	0	514	0	0	
14	0	0	0	0	534	518	0	510	0	0	
15	0	0	0	0	531	530	0	502	0	0	
0	0	0	0	0	529	540	0	491	0	0	
1	0	0	0	0	530	543	0	478	0	0	
2	0	0	0	0	532	541	0	465	0	0	
3	0	0	0	0	535	533	0	453	0	0	
4	0	0	0	0	539	520	0	442	0	0	
5	0	0	0	0	543	504	0	434	0	0	
6	0	0	0	0	547	486	0	430	0	0	
7	0	0	0	0	551	467	0	429	0	0	
8	0	0	0	0	555	451	0	433	0	0	
9	0	0	0	0	557	436	0	440	0	0	
10	0	0	0	0	558	427	0	451	0	0	
11	0	0	0	0	556	423	0	463	0	0	
12	0	0	0	0	554	424	0	476	0	0	
13	0	0	0	0	550	430	0	487	0	0	
14	0	0	0	0	546	442	0	498	0	0	
15	0	0	0	0	541	457	0	505	0	0	
0	0	0	0	0	536	474	0	509	0	0	
1	0	0	0	0	531	492	0	509	0	0	
2	0	0	0	0	527	508	0	505	0	0	
3	0	0	0	0	525	521	0	497	0	0	
4	0	0	0	0	524	531	0	487	0	0	
5	0	0	0	0	526	535	0	475	0	0	
6	0	0	0	0	529	534	0	462	0	0	
7	0	0	0	0	534	527	0	450	0	0	
8	0	0	0	0	539	515	0	440	0	0	
9	0	0	0	0	545	501	0	433	0	0	
10	0	0	0	0	551	483	0	429	0	0	
11	0	0	0	0	556	466	0	429	0	0	
12	0	0	0	0	561	450	0	433	0	0	
13	0	0	0	0	565	437	0	441	0	0	
14	0	0	0	0	566	428	0	451	0	0	
15	0	0	0	0	565	424	0	463	0	0	
0	0	0	0	0	563	427	0	476	0	0	
1	0	0	0	0	559	433	0	488	0	0	
2	0	0	0	0	555	445	0	498	0	0	
3	0	0	0	0	549	460	0	506	0	0	
4	0	0	0	0	544	478	0	510	0	0	
5	0	0	0	0	540	496	0	511	0	0	
6	0	0	0	0	536	512	0	507	0	0	
7	0	0	0	0	533	526	0	500	0	0	
8	0	0	0	0	531	536	0	490	0	0	
9	0	0	0	0	532	540	0	478	0	0	
10	0	0	0	0	535	538	0	467	0	0	
11	0	0	0	0	538	531	0	455	0	0	
12	0	0	0	0	543	519	0	446	0	0	
13	0	0	0	0	547	504	0	439	0	0	
14	0	0	0	0	551	487	0	435	0	0	
15	0	0	0	0	556	469	0	435	0	0	
0	0	0	0	0	560	453	0	440	0	0	
1	0	0	0	0	562	439	0	447	0	0	
2	0	0	0	0	562	429	0	456	0	0	
3	0	0	0	0	561	424	0	468	0	0	
4	0	0	0	0	559	425	0	480	0	0	
5	0	0	0	0	555	432	0	491	0	0	
6	0	0	0	0	550	442	0	500	0	0	
7	0	0	0	0	545	456	0	506	0	0	
8	0	0	0	0	539	473	0	509	0	0	
9	0	0	0	0	535	491	0	508	0	0	
10	0	0	0	0	531	507	0	504	0	0	
11	0	0	0	0	528	520	0	496	0	0	
12	0	0	0	0	527	529	0	487	0	0	
13	0	0	0	0	528	534	0	475	0	0	
14	0	0	0	0	531	533	0	463	0	0	
15	0	0	0	0	535	526	0	451	0	0	
0	0	0	0	0	539	516	0	442	0	0	
1	0	0	0	0	545	501	0	436	0	0	
2	0	0	0	0	551	484	0	433	0	0	
3	0	0	0	0	556	468	0	434	0	0	
4	0	0	0	0	561	451	0	439	0	0	
5	0	0	0	0	564	439	0	448	0	0	
6	0	0	0	0	566	430	0	459	0	0	
7	0	0	0	0	566	426	0	472	0	0	
8	0	0	0	0	565	428	0	486	0	0	
9	0	0	0	0	562	435	0	498	0	0	
10	0	0	0	0	559	447	0	509	0	0	
11	0	0	0	0	555	462	0	517	0	0	
12	0	0	0	0	550	480	0	520	0	0	
13	0	0	0	0	545	498	0	521	0	0	
14	0	0	0	0	541	514	0	517	0	0	
15	0	0	0	0	538	528	0	509	0	0	
0	0	0	0	0	536	537	0	498	0	0	
1	0	0	0	0	536	541	0	485	0	0	
2	0	0	0	0	537	540	0	473	0	0	
3	0	0	0	0	540	532	0	461	0	0	
4	0	0	0	0	543	521	0	451	0	0	
5	0	0	0	0	547	505	0	443	0	0	
6	0	0	0	0	552	488	0	439	0	0	
7	0	0	0	0	557	471	0	440	0	0	
8	0	0	0	0	561	455	0	444	0	0	
9	0	0	0	0	566	441	0	452	0	0	
10	0	0	0	0	568	433	0	463	0	0	
11	0	0	0	0	568	430	0	476	0	0	
12	0	0	0	0	568	433	0	489	0	0	
13	0	0	0	0	567	441	0	502	0	0	
14	0	0	0	0	564	453	0	513	0	0	
15	0	0	0	0	561	469	0	521	0	0	
0	0	0	0	0	557	487	0	525	0	0	
1	0	0	0	0	553	506	0	526	0	0	
2	0	0	0	0	550	523	0	522	0	0	
3	0	0	0	0	547	536	0	514	0	0	
4	0	0	0	0	545	544	0	503	0	0	
5	0	0	0	0	544	549	0	490	0	0	
6	0	0	0	0	545	547	0	477	0	0	
7	0	0	0	0	547	539	0	464	0	0	
8	0	0	0	0	550	527	0	453	0	0	
9	0	0	0	0	553	511	0	445	0	0	
10	0	0	0	0	557	493	0	440	0	0	
11	0	0	0	0	560	474	0	439	0	0	
12	0	0	0	0	563	457	0	443	0	0	
13	0	0	0	0	565	443	0	450	0	0	
14	0	0	0	0	566	434	0	460	0	0	
15	0	0	0	0	565	429	0	471	0	0	
0	0	0	0	0	563	431	0	483	0	0	
1	0	0	0	0	560	437	0	496	0	0	
2	0	0	0	0	557	449	0	505	0	0	
3	0	0	0	0	552	464	0	512	0	0	
4	0	0	0	0	548	481	0	516	0	0	
5	0	0	0	0	544	500	0	517	0	0	
6	0	0	0	0	540	516	0	513	0	0	
7	0	0	0	0	538	530	0	505	0	0	
8	0	0	0	0	536	540	0	495	0	0	
9	0	0	0	0	537	544	0	483	0	0	
10	0	0	0	0	539	543	0	471	0	0	
11	0	0	0	0	542	536	0	460	0	0	
12	0	0	0	0	546	524	0	449	0	0	
13	0	0	0	0	551	509	0	441	0	0	
14	0	0	0	0	556	492	0	437	0	0	
15	0	0	0	0	560	475	0	437	0	0	
0	0	0	0	0	564	458	0	440	0	0	
1	0	0	0	0	568	445	0	448	0	0	
2	0	0	0	0	569	436	0	457	0	0	
3	0	0	0	0	569	432	0	470	0	0	
4	0	0	0	0	568	435	0	482	0	0	
5	0	0	0	0	566	441	0	495	0	0	
6	0	0	0	0	562	453	0	505	0	0	
7	0	0	0	0	557	468	0	513	0	0	
8	0	0	0	0	553	486	0	518	0	0	
9	0	0	0	0	548	503	0	519	0	0	
10	0	0	0	0	543	519	0	515	0	0	
11	0	0	0	0	540	532	0	508	0	0	
12	0	0	0	0	537	540	0	497	0	0	
13	0	0	0	0	537	543	0	484	0	0	
14	0	0	0	0	537	541	0	472	0	0	
15	0	0	0	0	540	532	0	459	0	0	
0	0	0	0	0	543	520	0	448	0	0	
1	0	0	0	0	546	504	0	440	0	0	
2	0	0	0	0	550	485	0	435	0	0	
3	0	0	0	0	553	467	0	434	0	0	
4	0	0	0	0	557	450	0	437	0	0	
5	0	0	0	0	559	436	0	444	0	0	
6	0	0	0	0	560	427	0	453	0	0	
7	0	0	0	0	560	423	0	464	0	0	
8	0	0	0	0	558	425	0	477	0	0	
9	0	0	0	0	556	432	0	489	0	0	
10	0	0	0	0	552	444	0	499	0	0	
11	0	0	0	0	547	460	0	507	0	0	
12	0	0	0	0	543	478	0	512	0	0	
13	0	0	0	0	539	496	0	512	0	0	
14	0	0	0	0	536	513	0	510	0	0	
15	0	0	0	0	534	527	0	503	0	0	
0	0	0	0	0	532	537	0	493	0	0	
1	0	0	0	0	533	542	0	481	0	0	
2	0	0	0	0	535	540	0	470	0	0	
3	0	0	0	0	538	534	0	458	0	0	
4	0	0	0	0	542	523	0	448	0	0	
5	0	0	0	0	546	508	0	440	0	0	
6	0	0	0	0	551	491	0	435	0	0	
7	0	0	0	0	556	474	0	435	0	0	
8	0	0	0	0	560	457	0	439	0	0	
9	0	0	0	0	563	444	0	446	0	0	
10	0	0	0	0	565	435	0	455	0	0	
11	0	0	0	0	565	431	0	467	0	0	
12	0	0	0	0	564	432	0	480	0	0	
13	0	0	0	0	563	440	0	493	0	0	
14	0	0	0	0	560	451	0	504	0	0	
15	0	0	0	0	556	468	0	512	0	0	
0	0	0	0	0	553	486	0	517	0	0	
1	0	0	0	0	550	505	0	519	0	0	
2	0	0	0	0	546	522	0	515	0	0	
3	0	0	0	0	544	537	0	508	0	0	
4	0	0	0	0	542	547	0	499	0	0	
5	0	0	0	0	542	551	0	486	0	0	
6	0	0	0	0	543	550	0	474	0	0	
7	0	0	0	0	545	543	0	462	0	0	
8	0	0	0	0	549	531	0	451	0	0	
9	0	0	0	0	552	515	0	442	0	0	
10	0	0	0	0	556	497	0	437	0	0	
11	0	0	0	0	559	479	0	436	0	0	
12	0	0	0	0	562	462	0	439	0	0	
13	0	0	0	0	564	448	0	446	0	0	
14	0	0	0	0	565	439	0	455	0	0	
15	0	0	0	0	564	434	0	466	0	0	
0	0	0	0	0	562	435	0	479	0	0	
1	0	0	0	0	559	442	0	491	0	0	
2	0	0	0	0	556	453	0	501	0	0	
3	0	0	0	0	551	468	0	509	0	0	
4	0	0	0	0	547	486	0	513	0	0	
5	0	0	0	0	543	504	0	515	0	0	
6	0	0	0	0	540	521	0	512	0	0	
7	0	0	0	0	538	535	0	505	0	0	
8	0	0	0	0	537	545	0	495	0	0	
9	0	0	0	0	537	550	0	483	0	0	
10	0	0	0	0	539	549	0	472	0	0	
11	0	0	0	0	542	542	0	460	0	0	
12	0	0	0	0	546	530	0	450	0	0	
13	0	0	0	0	549	515	0	441	0	0	
14	0	0	0	0	554	498	0	438	0	0	
15	0	0	0	0	558	480	0	437	0	0	
0	0	0	0	0	562	463	0	441	0	0	
1	0	0	0	0	565	450	0	449	0	0	
2	0	0	0	0	567	440	0	459	0	0	
3	0	0	0	0	567	436	0	472	0	0	
4	0	0	0	0	566	438	0	484	0	0	
5	0	0	0	0	563	445	0	497	0	0	
6	0	0	0	0	560	456	0	507	0	0	
7	0	0	0	0	556	471	0	514	0	0	
8	0	0	0	0	551	489	0	519	0	0	
9	0	0	0	0	547	507	0	519	0	0	
10	0	0	0	0	543	524	0	515	0	0	
11	0	0	0	0	539	537	0	507	0	0	
12	0	0	0	0	538	547	0	497	0	0	
13	0	0	0	0	537	552	0	485	0	0	
14	0	0	0	0	540	552	0	473	0	0	
15	0	0	0	0	542	546	0	461	0	0	
0	0	0	0	0	547	535	0	452	0	0	
1	0	0	0	0	551	521	0	445	0	0	
2	0	0	0	0	556	505	0	441	0	0	
3	0	0	0	0	562	489	0	443	0	0	
4	0	0	0	0	566	473	0	447	0	0	
5	0	0	0	0	570	460	0	455	0	0	
6	0	0	0	0	572	451	0	467	0	0	
7	0	0	0	0	572	447	0	479	0	0	
8	0	0	0	0	571	448	0	492	0	0	
9	0	0	0	0	568	454	0	504	0	0	
10	0	0	0	0	564	464	0	514	0	0	
11	0	0	0	0	558	478	0	520	0	0	
12	0	0	0	0	553	495	0	524	0	0	
13	0	0	0	0	547	512	0	523	0	0	
14	0	0	0	0	542	528	0	519	0	0	
15	0	0	0	0	539	541	0	510	0	0	
0	0	0	0	0	536	551	0	498	0	0	
1	0	0	0	0	535	555	0	485	0	0	
2	0	0	0	0	536	555	0	472	0	0	
3	0	0	0	0	538	548	0	459	0	0	
4	0	0	0	0	542	538	0	448	0	0	
5	0	0	0	0	546	523	0	440	0	0	
6	0	0	0	0	551	507	0	435	0	0	
7	0	0	0	0	555	489	0	435	0	0	
8	0	0	0	0	560	473	0	439	0	0	
9	0	0	0	0	563	460	0	446	0	0	
10	0	0	0	0	564	450	0	457	0	0	
11	0	0	0	0	565	445	0	469	0	0	
12	0	0	0	0	563	446	0	482	0	0	
13	0	0	0	0	561	452	0	495	0	0	
14	0	0	0	0	557	463	0	505	0	0	
15	0	0	0	0	552	476	0	513	0	0	
0	0	0	0	0	548	494	0	517	0	0	
1	0	0	0	0	543	511	0	518	0	0	
2	0	0	0	0	539	527	0	514	0	0	
3	0	0	0	0	536	540	0	506	0	0	
4	0	0	0	0	534	549	0	496	0	0	
5	0	0	0	0	534	554	0	483	0	0	
6	0	0	0	0	536	553	0	470	0	0	
7	0	0	0	0	539	546	0	458	0	0	
8	0	0	0	0	543	535	0	448	0	0	
9	0	0	0	0	547	520	0	440	0	0	
10	0	0	0	0	552	504	0	435	0	0	
11	0	0	0	0	557	487	0	435	0	0	
12	0	0	0	0	561	470	0	439	0	0	
13	0	0	0	0	564	457	0	447	0	0	
14	0	0	0	0	566	447	0	457	0	0	
15	0	0	0	0	566	443	0	468	0	0	
0	0	0	0	0	564	444	0	481	0	0	
1	0	0	0	0	561	450	0	493	0	0	
2	0	0	0	0	557	460	0	503	0	0	
3	0	0	0	0	552	475	0	511	0	0	
4	0	0	0	0	547	492	0	515	0	0	
5	0	0	0	0	543	509	0	515	0	0	
6	0	0	0	0	539	526	0	512	0	0	
7	0	0	0	0	536	539	0	505	0	0	
8	0	0	0	0	535	548	0	496	0	0	
9	0	0	0	0	536	553	0	484	0	0	
10	0	0	0	0	538	551	0	473	0	0	
11	0	0	0	0	541	545	0	462	0	0	
12	0	0	0	0	546	534	0	452	0	0	
13	0	0	0	0	551	519	0	445	0	0	
14	0	0	0	0	556	502	0	441	0	0	
15	0	0	0	0	561	484	0	441	0	0	
0	0	0	0	0	565	468	0	445	0	0	
1	0	0	0	0	568	455	0	452	0	0	
2	0	0	0	0	570	445	0	463	0	0	
3	0	0	0	0	570	441	0	474	0	0	
4	0	0	0	0	569	444	0	487	0	0	
5	0	0	0	0	566	451	0	500	0	0	
6	0	0	0	0	562	462	0	511	0	0	
7	0	0	0	0	557	478	0	519	0	0	
8	0	0	0	0	553	495	0	523	0	0	
9	0	0	0	0	548	513	0	524	0	0	
10	0	0	0	0	544	530	0	520	0	0	
11	0	0	0	0	541	544	0	513	0	0	
12	0	0	0	0	539	553	0	503	0	0	
13	0	0	0	0	540	557	0	490	0	0	
14	0	0	0	0	542	556	0	478	0	0	
15	0	0	0	0	544	549	0	465	0	0	
0	0	0	0	0	548	538	0	454	0	0	
1	0	0	0	0	553	522	0	447	0	0	
2	0	0	0	0	559	505	0	442	0	0	
3	0	0	0	0	563	488	0	441	0	0	
4	0	0	0	0	568	472	0	445	0	0	
5	0	0	0	0	572	458	0	452	0	0	
6	0	0	0	0	574	448	0	462	0	0	
7	0	0	0	0	575	444	0	473	0	0	
8	0	0	0	0	573	445	0	487	0	0	
9	0	0	0	0	570	451	0	498	0	0	
10	0	0	0	0	566	462	0	509	0	0	
11	0	0	0	0	561	476	0	516	0	0	
12	0	0	0	0	556	494	0	520	0	0	
13	0	0	0	0	550	512	0	521	0	0	
14	0	0	0	0	545	528	0	518	0	0	
15	0	0	0	0	540	541	0	510	0	0	
0	0	0	0	0	537	551	0	499	0	0	
1	0	0	0	0	536	555	0	487	0	0	
2	0	0	0	0	537	553	0	475	0	0	
3	0	0	0	0	540	546	0	463	0	0	
4	0	0	0	0	543	534	0	452	0	0	
5	0	0	0	0	548	519	0	444	0	0	
6	0	0	0	0	553	501	0	440	0	0	
7	0	0	0	0	559	483	0	439	0	0	
8	0	0	0	0	563	466	0	443	0	0	
9	0	0	0	0	568	452	0	450	0	0	
10	0	0	0	0	570	442	0	460	0	0	
11	0	0	0	0	571	438	0	472	0	0	
12	0	0	0	0	571	439	0	485	0	0	
13	0	0	0	0	568	445	0	497	0	0	
14	0	0	0	0	566	457	0	508	0	0	
15	0	0	0	0	562	472	0	516	0	0	
0	0	0	0	0	558	489	0	521	0	0	
1	0	0	0	0	554	508	0	522	0	0	
2	0	0	0	0	550	525	0	519	0	0	
3	0	0	0	0	547	540	0	512	0	0	
4	0	0	0	0	545	550	0	502	0	0	
5	0	0	0	0	545	555	0	490	0	0	
6	0	0	0	0	546	555	0	478	0	0	
7	0	0	0	0	549	549	0	466	0	0	
8	0	0	0	0	553	538	0	456	0	0	
9	0	0	0	0	557	524	0	449	0	0	
10	0	0	0	0	562	508	0	445	0	0	
11	0	0	0	0	568	491	0	446	0	0	
12	0	0	0	0	572	475	0	450	0	0	
13	0	0	0	0	576	461	0	457	0	0	
14	0	0	0	0	577	452	0	468	0	0	
15	0	0	0	0	577	447	0	480	0	0	
0	0	0	0	0	576	448	0	492	0	0	
1	0	0	0	0	573	453	0	504	0	0	
2	0	0	0	0	568	463	0	514	0	0	
3	0	0	0	0	563	476	0	521	0	0	
4	0	0	0	0	558	493	0	525	0	0	
5	0	0	0	0	552	510	0	525	0	0	
6	0	0	0	0	547	526	0	521	0	0	
7	0	0	0	0	544	539	0	513	0	0	
8	0	0	0	0	542	547	0	502	0	0	
9	0	0	0	0	541	552	0	490	0	0	
10	0	0	0	0	542	551	0	477	0	0	
11	0	0	0	0	545	544	0	464	0	0	
12	0	0	0	0	549	533	0	454	0	0	
13	0	0	0	0	552	519	0	446	0	0	
14	0	0	0	0	558	502	0	440	0	0	
15	0	0	0	0	563	485	0	441	0	0	
0	0	0	0	0	567	468	0	444	0	0	
1	0	0	0	0	570	455	0	452	0	0	
2	0	0	0	0	573	445	0	462	0	0	
3	0	0	0	0	574	441	0	475	0	0	
4	0	0	0	0	573	442	0	488	0	0	
5	0	0	0	0	571	449	0	500	0	0	
6	0	0	0	0	568	460	0	511	0	0	
7	0	0	0	0	564	475	0	519	0	0	
8	0	0	0	0	559	492	0	523	0	0	
9	0	0	0	0	554	510	0	523	0	0	
10	0	0	0	0	550	527	0	519	0	0	
11	0	0	0	0	546	540	0	511	0	0	
12	0	0	0	0	543	549	0	500	0	0	
13	0	0	0	0	541	553	0	486	0	0	
14	0	0	0	0	541	551	0	473	0	0	
15	0	0	0	0	543	544	0	460	0	0	
0	0	0	0	0	545	531	0	448	0	0	
1	0	0	0	0	548	515	0	439	0	0	
2	0	0	0	0	551	497	0	434	0	0	
3	0	0	0	0	555	479	0	433	0	0	
4	0	0	0	0	559	461	0	436	0	0	
5	0	0	0	0	561	446	0	443	0	0	
6	0	0	0	0	563	435	0	452	0	0	
7	0	0	0	0	563	431	0	465	0	0	
8	0	0	0	0	562	432	0	478	0	0	
9	0	0	0	0	559	437	0	491	0	0	
10	0	0	0	0	557	449	0	503	0	0	
11	0	0	0	0	553	465	0	511	0	0	
12	0	0	0	0	548	483	0	516	0	0	
13	0	0	0	0	545	502	0	519	0	0	
14	0	0	0	0	541	519	0	516	0	0	
15	0	0	0	0	539	534	0	510	0	0	
0	0	0	0	0	537	545	0	500	0	0	
1	0	0	0	0	537	551	0	488	0	0	
2	0	0	0	0	539	550	0	476	0	0	
3	0	0	0	0	542	545	0	464	0	0	
4	0	0	0	0	545	535	0	454	0	0	
5	0	0	0	0	550	520	0	446	0	0	
6	0	0	0	0	555	504	0	442	0	0	
7	0	0	0	0	560	487	0	442	0	0	
8	0	0	0	0	565	471	0	446	0	0	
9	0	0	0	0	569	457	0	453	0	0	
10	0	0	0	0	572	448	0	463	0	0	
11	0	0	0	0	573	444	0	476	0	0	
12	0	0	0	0	573	445	0	489	0	0	
13	0	0	0	0	571	452	0	502	0	0	
14	0	0	0	0	568	463	0	512	0	0	
15	0	0	0	0	564	478	0	520	0	0	
0	0	0	0	0	561	495	0	524	0	0	
1	0	0	0	0	557	513	0	526	0	0	
2	0	0	0	0	553	530	0	523	0	0	
3	0	0	0	0	550	544	0	515	0	0	
4	0	0	0	0	548	554	0	505	0	0	
5	0	0	0	0	548	559	0	493	0	0	
6	0	0	0	0	549	558	0	480	0	0	
7	0	0	0	0	551	551	0	468	0	0	
8	0	0	0	0	555	540	0	457	0	0	
9	0	0	0	0	558	524	0	448	0	0	
10	0	0	0	0	562	506	0	443	0	0	
11	0	0	0	0	566	487	0	442	0	0	
12	0	0	0	0	570	470	0	445	0	0	
13	0	0	0	0	574	456	0	452	0	0	
14	0	0	0	0	575	446	0	462	0	0	
15	0	0	0	0	575	440	0	473	0	0	
0	0	0	0	0	574	440	0	486	0	0	
1	0	0	0	0	572	447	0	499	0	0	
2	0	0	0	0	568	457	0	510	0	0	
3	0	0	0	0	564	472	0	518	0	0	
4	0	0	0	0	560	489	0	524	0	0	
5	0	0	0	0	556	508	0	525	0	0	
6	0	0	0	0	551	525	0	522	0	0	
7	0	0	0	0	550	540	0	516	0	0	
8	0	0	0	0	548	550	0	507	0	0	
9	0	0	0	0	549	556	0	496	0	0	
10	0	0	0	0	551	556	0	484	0	0	
11	0	0	0	0	555	550	0	472	0	0	
12	0	0	0	0	559	539	0	462	0	0	
13	0	0	0	0	563	524	0	454	0	0	
14	0	0	0	0	568	507	0	448	0	0	
15	0	0	0	0	573	489	0	448	0	0	
0	0	0	0	0	576	472	0	450	0	0	
1	0	0	0	0	578	457	0	456	0	0	
2	0	0	0	0	579	446	0	466	0	0	
3	0	0	0	0	578	441	0	478	0	0	
4	0	0	0	0	576	442	0	491	0	0	
5	0	0	0	0	572	448	0	503	0	0	
6	0	0	0	0	568	458	0	514	0	0	
7	0	0	0	0	563	473	0	523	0	0	
8	0	0	0	0	558	491	0	528	0	0	
9	0	0	0	0	553	508	0	529	0	0	
10	0	0	0	0	548	525	0	526	0	0	
11	0	0	0	0	545	539	0	519	0	0	
12	0	0	0	0	542	548	0	508	0	0	
13	0	0	0	0	542	553	0	496	0	0	
14	0	0	0	0	543	551	0	482	0	0	
15	0	0	0	0	545	545	0	469	0	0	
0	0	0	0	0	549	533	0	457	0	0	
1	0	0	0	0	552	518	0	448	0	0	
2	0	0	0	0	556	501	0	443	0	0	
3	0	0	0	0	561	483	0	442	0	0	
4	0	0	0	0	566	467	0	445	0	0	
5	0	0	0	0	568	453	0	451	0	0	
6	0	0	0	0	572	444	0	462	0	0	
7	0	0	0	0	574	439	0	475	0	0	
8	0	0	0	0	574	440	0	488	0	0	
9	0	0	0	0	573	447	0	501	0	0	
10	0	0	0	0	572	459	0	512	0	0	
11	0	0	0	0	568	474	0	521	0	0	
12	0	0	0	0	565	492	0	527	0	0	
13	0	0	0	0	562	511	0	529	0	0	
14	0	0	0	0	559	529	0	526	0	0	
15	0	0	0	0	556	543	0	520	0	0	
0	0	0	0	0	555	554	0	510	0	0	
1	0	0	0	0	553	559	0	497	0	0	
2	0	0	0	0	554	558	0	484	0	0	
3	0	0	0	0	555	551	0	470	0	0	
4	0	0	0	0	555	538	0	457	0	0	
5	0	0	0	0	555	521	0	445	0	0	
6	0	0	0	0	555	500	0	435	0	0	
7	0	0	0	0	555	478	0	429	0	0	
8	0	0	0	0	552	455	0	425	0	0	
9	0	0	0	0	548	434	0	425	0	0	
10	0	0	0	0	542	417	0	427	0	0	
11	0	0	0	0	534	403	0	430	0	0	
12	0	0	0	0	524	395	0	434	0	0	
13	0	0	0	0	511	391	0	437	0	0	
14	0	0	0	0	498	391	0	438	0	0	
15	0	0	0	0	483	395	0	436	0	0	
0	0	0	0	0	468	402	0	431	0	0	
1	0	0	0	0	453	409	0	422	0	0	
2	0	0	0	0	438	416	0	409	0	0	
3	0	0	0	0	423	420	0	392	0	0	
4	0	0	0	0	409	419	0	371	0	0	
5	0	0	0	0	397	414	0	348	0	0	
6	0	0	0	0	386	403	0	324	0	0	
7	0	0	0	0	376	386	0	300	0	0	
8	0	0	0	0	368	364	0	278	0	0	
9	0	0	0	0	360	338	0	257	0	0	
10	0	0	0	0	353	310	0	240	0	0	
11	0	0	0	0	348	281	0	228	0	0	
12	0	0	0	0	343	255	0	222	0	0	
13	0	0	0	0	339	231	0	222	0	0	
14	0	0	0	0	337	214	0	227	0	0	
15	0	0	0	0	336	204	0	238	0	0	
0	0	0	0	0	337	203	0	253	0	0	
1	0	0	0	0	341	211	0	271	0	0	
2	0	0	0	0	346	227	0	292	0	0	
3	0	0	0	0	354	251	0	314	0	0	
4	0	0	0	0	365	282	0	335	0	0	
5	0	0	0	0	379	316	0	356	0	0	
6	0	0	0	0	396	354	0	374	0	0	
7	0	0	0	0	415	391	0	390	0	0	
8	0	0	0	0	436	425	0	402	0	0	
9	0	0	0	0	459	455	0	412	0	0	
10	0	0	0	0	483	480	0	420	0	0	
11	0	0	0	0	508	496	0	428	0	0	
12	0	0	0	0	532	507	0	435	0	0	
13	0	0	0	0	555	511	0	442	0	0	
14	0	0	0	0	574	509	0	449	0	0	
15	0	0	0	0	591	504	0	458	0	0	
0	0	0	0	0	605	496	0	468	0	0	
1	0	0	0	0	614	487	0	480	0	0	
2	0	0	0	0	618	480	0	492	0	0	
3	0	0	0	0	620	476	0	504	0	0	
4	0	0	0	0	616	475	0	515	0	0	
5	0	0	0	0	609	477	0	525	0	0	
6	0	0	0	0	601	484	0	532	0	0	
7	0	0	0	0	590	494	0	537	0	0	
8	0	0	0	0	579	507	0	538	0	0	
9	0	0	0	0	568	521	0	536	0	0	
10	0	0	0	0	558	534	0	530	0	0	
11	0	0	0	0	550	545	0	521	0	0	
12	0	0	0	0	545	554	0	509	0	0	
13	0	0	0	0	543	559	0	496	0	0	
14	0	0	0	0	543	559	0	483	0	0	
15	0	0	0	0	546	554	0	471	0	0	
0	0	0	0	0	551	544	0	460	0	0	
1	0	0	0	0	557	532	0	453	0	0	
2	0	0	0	0	564	517	0	448	0	0	
3	0	0	0	0	572	501	0	449	0	0	
4	0	0	0	0	578	486	0	453	0	0	
5	0	0	0	0	583	473	0	462	0	0	
6	0	0	0	0	588	465	0	473	0	0	
7	0	0	0	0	590	461	0	486	0	0	
8	0	0	0	0	590	463	0	499	0	0	
9	0	0	0	0	589	469	0	512	0	0	
10	0	0	0	0	585	480	0	524	0	0	
11	0	0	0	0	582	495	0	533	0	0	
12	0	0	0	0	577	511	0	539	0	0	
13	0	0	0	0	572	529	0	540	0	0	
14	0	0	0	0	566	545	0	536	0	0	
15	0	0	0	0	562	558	0	530	0	0	
0	0	0	0	0	559	569	0	519	0	0	
1	0	0	0	0	557	573	0	507	0	0	
2	0	0	0	0	558	572	0	494	0	0	
3	0	0	0	0	559	566	0	481	0	0	
4	0	0	0	0	563	555	0	470	0	0	
5	0	0	0	0	567	540	0	462	0	0	
6	0	0	0	0	572	524	0	456	0	0	
7	0	0	0	0	577	507	0	455	0	0	
8	0	0	0	0	582	491	0	459	0	0	
9	0	0	0	0	587	477	0	466	0	0	
10	0	0	0	0	590	468	0	476	0	0	
11	0	0	0	0	591	464	0	488	0	0	
12	0	0	0	0	591	465	0	502	0	0	
13	0	0	0	0	590	471	0	514	0	0	
14	0	0	0	0	587	482	0	526	0	0	
15	0	0	0	0	583	497	0	534	0	0	
0	0	0	0	0	578	514	0	539	0	0	
1	0	0	0	0	573	532	0	540	0	0	
2	0	0	0	0	568	549	0	537	0	0	
3	0	0	0	0	563	563	0	531	0	0	
4	0	0	0	0	560	573	0	521	0	0	
5	0	0	0	0	559	579	0	510	0	0	
6	0	0	0	0	560	579	0	498	0	0	
7	0	0	0	0	563	573	0	486	0	0	
8	0	0	0	0	567	563	0	476	0	0	
9	0	0	0	0	572	548	0	467	0	0	
10	0	0	0	0	577	531	0	463	0	0	
11	0	0	0	0	583	514	0	462	0	0	
12	0	0	0	0	588	496	0	465	0	0	
13	0	0	0	0	593	483	0	471	0	0	
14	0	0	0	0	596	472	0	481	0	0	
15	0	0	0	0	597	467	0	492	0	0	
0	0	0	0	0	597	467	0	504	0	0	
1	0	0	0	0	595	473	0	516	0	0	
2	0	0	0	0	591	483	0	527	0	0	
3	0	0	0	0	586	497	0	534	0	0	
4	0	0	0	0	581	514	0	539	0	0	
5	0	0	0	0	575	532	0	540	0	0	
6	0	0	0	0	571	549	0	537	0	0	
7	0	0	0	0	566	563	0	530	0	0	
8	0	0	0	0	564	574	0	520	0	0	
9	0	0	0	0	563	579	0	508	0	0	
10	0	0	0	0	563	579	0	496	0	0	
11	0	0	0	0	565	572	0	483	0	0	
12	0	0	0	0	568	561	0	472	0	0	
13	0	0	0	0	572	545	0	463	0	0	
14	0	0	0	0	576	528	0	457	0	0	
15	0	0	0	0	580	509	0	456	0	0	
0	0	0	0	0	584	492	0	459	0	0	
1	0	0	0	0	588	478	0	465	0	0	
2	0	0	0	0	590	467	0	475	0	0	
3	0	0	0	0	590	462	0	487	0	0	
4	0	0	0	0	590	463	0	500	0	0	
5	0	0	0	0	588	469	0	513	0	0	
6	0	0	0	0	584	480	0	524	0	0	
7	0	0	0	0	580	496	0	533	0	0	
8	0	0	0	0	576	513	0	538	0	0	
9	0	0	0	0	572	531	0	540	0	0	
10	0	0	0	0	568	548	0	537	0	0	
11	0	0	0	0	564	563	0	529	0	0	
12	0	0	0	0	561	572	0	519	0	0	
13	0	0	0	0	560	577	0	506	0	0	
14	0	0	0	0	561	576	0	493	0	0	
15	0	0	0	0	562	570	0	480	0	0	
0	0	0	0	0	563	559	0	467	0	0	
1	0	0	0	0	568	543	0	459	0	0	
2	0	0	0	0	572	525	0	452	0	0	
3	0	0	0	0	575	507	0	450	0	0	
4	0	0	0	0	579	489	0	452	0	0	
5	0	0	0	0	583	474	0	458	0	0	
6	0	0	0	0	584	464	0	468	0	0	
7	0	0	0	0	585	459	0	479	0	0	
8	0	0	0	0	583	458	0	492	0	0	
9	0	0	0	0	581	463	0	504	0	0	
10	0	0	0	0	577	473	0	516	0	0	
11	0	0	0	0	574	487	0	525	0	0	
12	0	0	0	0	568	505	0	530	0	0	
13	0	0	0	0	563	522	0	532	0	0	
14	0	0	0	0	559	539	0	530	0	0	
15	0	0	0	0	556	552	0	524	0	0	
0	0	0	0	0	552	562	0	514	0	0	
1	0	0	0	0	552	567	0	502	0	0	
2	0	0	0	0	553	566	0	489	0	0	
3	0	0	0	0	555	560	0	476	0	0	
4	0	0	0	0	559	548	0	465	0	0	
5	0	0	0	0	563	533	0	457	0	0	
6	0	0	0	0	568	515	0	451	0	0	
7	0	0	0	0	573	496	0	450	0	0	
8	0	0	0	0	577	479	0	453	0	0	
9	0	0	0	0	580	463	0	459	0	0	
10	0	0	0	0	582	451	0	468	0	0	
11	0	0	0	0	582	445	0	479	0	0	
12	0	0	0	0	580	444	0	492	0	0	
13	0	0	0	0	577	449	0	503	0	0	
14	0	0	0	0	573	459	0	514	0	0	
15	0	0	0	0	568	473	0	522	0	0	
0	0	0	0	0	562	490	0	527	0	0	
1	0	0	0	0	557	508	0	528	0	0	
2	0	0	0	0	552	526	0	525	0	0	
3	0	0	0	0	548	540	0	519	0	0	
4	0	0	0	0	545	550	0	509	0	0	
5	0	0	0	0	544	556	0	496	0	0	
6	0	0	0	0	544	556	0	483	0	0	
7	0	0	0	0	546	549	0	471	0	0	
8	0	0	0	0	549	539	0	459	0	0	
9	0	0	0	0	553	524	0	450	0	0	
