# OpenSignals Text File Format. Version 1
# {"": {"position": 0, "device": "", "device name": "", "device connection": "", "sampling rate": 1000, "resolution": [4, 1, 1, 1, 1, 10, 10, 10, 10, 6, 6], "firmware version": 1281, "comments": "", "keywords": "", "mode": 0, "sync interval": 2, "date": "", "time": "", "channels": [1, 2, 3, 4, 5, 6], "sensor": ["RAW", "RAW", "RAW", "RAW", "RAW", "RAW"], "label": ["A1", "A2", "A3", "A4", "A5", "A6"], "column": ["nSeq", "I1", "I2", "O1", "O2", "A1", "A2", "A3", "A4", "A5", "A6"], "special": [{}, {}, {}, {}, {}, {}], "digital IO": [0, 0, 1, 1]}}
# EndOfHeader
0	0	0	0	0	590	519	1021	0	0	0	
1	0	0	0	0	585	517	1021	0	0	0	
2	0	0	0	0	579	513	1021	0	0	0	
3	0	0	0	0	571	507	1021	0	0	0	
4	0	0	0	0	563	500	1021	0	0	0	
5	0	0	0	0	555	493	1021	0	0	0	
6	0	0	0	0	547	486	1021	0	0	0	
7	0	0	0	0	540	480	1021	0	0	0	
8	0	0	0	0	535	475	1021	0	0	0	
9	0	0	0	0	532	472	1021	0	0	0	
10	0	0	0	0	529	470	1021	0	0	0	
11	0	0	0	0	529	469	1021	0	0	0	
12	0	0	0	0	530	470	1021	0	0	0	
13	0	0	0	0	533	472	1021	0	0	0	
14	0	0	0	0	537	476	1021	0	0	0	
15	0	0	0	0	542	481	1021	0	0	0	
0	0	0	0	0	547	486	1021	0	0	0	
1	0	0	0	0	551	492	1021	0	0	0	
2	0	0	0	0	555	496	1021	0	0	0	
3	0	0	0	0	556	499	1021	0	0	0	
4	0	0	0	0	555	499	1021	0	0	0	
5	0	0	0	0	551	497	1021	0	0	0	
6	0	0	0	0	545	492	1021	0	0	0	
7	0	0	0	0	537	485	1021	0	0	0	
8	0	0	0	0	527	475	1021	0	0	0	
9	0	0	0	0	516	464	1021	0	0	0	
10	0	0	0	0	505	453	1021	0	0	0	
11	0	0	0	0	494	442	1021	0	0	0	
12	0	0	0	0	484	432	1021	0	0	0	
13	0	0	0	0	476	423	1021	0	0	0	
14	0	0	0	0	471	417	1021	0	0	0	
15	0	0	0	0	469	415	1021	0	0	0	
0	0	0	0	0	470	416	1021	0	0	0	
1	0	0	0	0	474	421	1021	0	0	0	
2	0	0	0	0	481	428	1021	0	0	0	
3	0	0	0	0	490	439	1021	0	0	0	
4	0	0	0	0	501	450	1021	0	0	0	
5	0	0	0	0	513	463	1021	0	0	0	
6	0	0	0	0	524	476	1021	0	0	0	
7	0	0	0	0	536	488	1021	0	0	0	
8	0	0	0	0	545	499	1021	0	0	0	
9	0	0	0	0	554	508	1021	0	0	0	
10	0	0	0	0	562	516	1021	0	0	0	
11	0	0	0	0	568	521	1021	0	0	0	
12	0	0	0	0	572	526	1021	0	0	0	
13	0	0	0	0	575	527	1021	0	0	0	
14	0	0	0	0	578	529	1021	0	0	0	
15	0	0	0	0	579	530	1021	0	0	0	
0	0	0	0	0	582	531	1021	0	0	0	
1	0	0	0	0	583	532	1021	0	0	0	
2	0	0	0	0	586	534	1021	0	0	0	
3	0	0	0	0	588	535	1021	0	0	0	
4	0	0	0	0	590	536	1021	0	0	0	
5	0	0	0	0	591	537	1021	0	0	0	
6	0	0	0	0	590	537	1021	0	0	0	
7	0	0	0	0	587	536	1021	0	0	0	
8	0	0	0	0	582	534	1021	0	0	0	
9	0	0	0	0	575	531	1021	0	0	0	
10	0	0	0	0	568	527	1020	0	0	0	
11	0	0	0	0	559	523	1021	0	0	0	
12	0	0	0	0	551	519	1021	0	0	0	
13	0	0	0	0	545	516	1021	0	0	0	
14	0	0	0	0	540	514	1021	0	0	0	
15	0	0	0	0	538	513	1021	0	0	0	
0	0	0	0	0	538	513	1021	0	0	0	
1	0	0	0	0	540	513	1021	0	0	0	
2	0	0	0	0	543	515	1021	0	0	0	
3	0	0	0	0	548	515	1021	0	0	0	
4	0	0	0	0	552	516	1021	0	0	0	
5	0	0	0	0	557	517	1021	0	0	0	
6	0	0	0	0	561	518	1021	0	0	0	
7	0	0	0	0	565	518	1021	0	0	0	
8	0	0	0	0	569	519	1021	0	0	0	
9	0	0	0	0	571	520	1021	0	0	0	
10	0	0	0	0	573	521	1021	0	0	0	
11	0	0	0	0	574	521	1021	0	0	0	
12	0	0	0	0	573	521	1021	0	0	0	
13	0	0	0	0	572	521	1021	0	0	0	
14	0	0	0	0	569	521	1021	0	0	0	
15	0	0	0	0	565	520	1021	0	0	0	
0	0	0	0	0	561	519	1021	0	0	0	
1	0	0	0	0	556	518	1021	0	0	0	
2	0	0	0	0	552	518	1021	0	0	0	
3	0	0	0	0	548	516	1021	0	0	0	
4	0	0	0	0	545	515	1021	0	0	0	
5	0	0	0	0	543	515	1021	0	0	0	
6	0	0	0	0	543	515	1021	0	0	0	
7	0	0	0	0	543	514	1021	0	0	0	
8	0	0	0	0	544	514	1021	0	0	0	
9	0	0	0	0	545	514	1021	0	0	0	
10	0	0	0	0	546	513	1021	0	0	0	
11	0	0	0	0	546	512	1021	0	0	0	
12	0	0	0	0	544	508	1021	0	0	0	
13	0	0	0	0	539	504	1021	0	0	0	
14	0	0	0	0	531	496	1021	0	0	0	
15	0	0	0	0	519	487	1021	0	0	0	
0	0	0	0	0	504	474	1021	0	0	0	
1	0	0	0	0	487	460	1021	0	0	0	
2	0	0	0	0	470	446	1021	0	0	0	
3	0	0	0	0	454	432	1021	0	0	0	
4	0	0	0	0	440	422	1021	0	0	0	
5	0	0	0	0	432	414	1021	0	0	0	
6	0	0	0	0	428	411	1021	0	0	0	
7	0	0	0	0	429	412	1021	0	0	0	
8	0	0	0	0	436	417	1021	0	0	0	
9	0	0	0	0	448	426	1021	0	0	0	
10	0	0	0	0	464	438	1021	0	0	0	
11	0	0	0	0	483	452	1021	0	0	0	
12	0	0	0	0	502	467	1021	0	0	0	
13	0	0	0	0	521	481	1021	0	0	0	
14	0	0	0	0	539	495	1021	0	0	0	
15	0	0	0	0	553	507	1021	0	0	0	
0	0	0	0	0	563	515	1021	0	0	0	
1	0	0	0	0	568	521	1021	0	0	0	
2	0	0	0	0	570	524	1021	0	0	0	
3	0	0	0	0	568	524	1021	0	0	0	
4	0	0	0	0	563	524	1021	0	0	0	
5	0	0	0	0	557	521	1021	0	0	0	
6	0	0	0	0	549	519	1021	0	0	0	
7	0	0	0	0	542	516	1021	0	0	0	
8	0	0	0	0	535	513	1021	0	0	0	
9	0	0	0	0	529	510	1021	0	0	0	
10	0	0	0	0	524	507	1021	0	0	0	
11	0	0	0	0	519	503	1021	0	0	0	
12	0	0	0	0	515	498	1021	0	0	0	
13	0	0	0	0	512	493	1021	0	0	0	
14	0	0	0	0	510	488	1021	0	0	0	
15	0	0	0	0	508	485	1021	0	0	0	
0	0	0	0	0	508	482	1021	0	0	0	
1	0	0	0	0	510	481	1021	0	0	0	
2	0	0	0	0	513	482	1021	0	0	0	
3	0	0	0	0	517	485	1021	0	0	0	
4	0	0	0	0	523	490	1021	0	0	0	
5	0	0	0	0	529	496	1021	0	0	0	
6	0	0	0	0	536	503	1021	0	0	0	
7	0	0	0	0	542	511	1021	0	0	0	
8	0	0	0	0	546	517	1021	0	0	0	
9	0	0	0	0	548	522	1021	0	0	0	
10	0	0	0	0	548	526	1021	0	0	0	
11	0	0	0	0	544	526	1021	0	0	0	
12	0	0	0	0	537	524	1021	0	0	0	
13	0	0	0	0	527	519	1021	0	0	0	
14	0	0	0	0	515	511	1021	0	0	0	
15	0	0	0	0	500	501	1021	0	0	0	
0	0	0	0	0	484	489	1021	0	0	0	
1	0	0	0	0	468	476	1021	0	0	0	
2	0	0	0	0	454	464	1021	0	0	0	
3	0	0	0	0	441	453	1021	0	0	0	
4	0	0	0	0	432	444	1020	0	0	0	
5	0	0	0	0	426	438	1021	0	0	0	
6	0	0	0	0	425	435	1021	0	0	0	
7	0	0	0	0	428	435	1021	0	0	0	
8	0	0	0	0	435	439	1021	0	0	0	
9	0	0	0	0	446	445	1021	0	0	0	
10	0	0	0	0	460	455	1021	0	0	0	
11	0	0	0	0	477	467	1021	0	0	0	
12	0	0	0	0	496	480	1021	0	0	0	
13	0	0	0	0	515	495	1021	0	0	0	
14	0	0	0	0	534	509	1021	0	0	0	
15	0	0	0	0	551	523	1021	0	0	0	
0	0	0	0	0	567	535	1021	0	0	0	
1	0	0	0	0	580	546	1021	0	0	0	
2	0	0	0	0	591	556	1021	0	0	0	
3	0	0	0	0	599	563	1021	0	0	0	
4	0	0	0	0	604	568	1021	0	0	0	
5	0	0	0	0	607	572	1021	0	0	0	
6	0	0	0	0	607	573	1021	0	0	0	
7	0	0	0	0	607	573	1021	0	0	0	
8	0	0	0	0	604	572	1021	0	0	0	
9	0	0	0	0	601	569	1021	0	0	0	
10	0	0	0	0	597	565	1021	0	0	0	
11	0	0	0	0	593	562	1021	0	0	0	
12	0	0	0	0	590	558	1021	0	0	0	
13	0	0	0	0	588	556	1021	0	0	0	
14	0	0	0	0	586	554	1021	0	0	0	
15	0	0	0	0	587	554	1021	0	0	0	
0	0	0	0	0	588	556	1021	0	0	0	
1	0	0	0	0	590	558	1021	0	0	0	
2	0	0	0	0	592	561	1021	0	0	0	
3	0	0	0	0	595	563	1021	0	0	0	
4	0	0	0	0	597	567	1021	0	0	0	
5	0	0	0	0	598	569	1021	0	0	0	
6	0	0	0	0	598	570	1021	0	0	0	
7	0	0	0	0	596	569	1021	0	0	0	
8	0	0	0	0	592	567	1021	0	0	0	
9	0	0	0	0	587	562	1021	0	0	0	
10	0	0	0	0	579	556	1021	0	0	0	
11	0	0	0	0	572	550	1021	0	0	0	
12	0	0	0	0	563	543	1021	0	0	0	
13	0	0	0	0	556	536	1021	0	0	0	
14	0	0	0	0	550	531	1021	0	0	0	
15	0	0	0	0	544	527	1021	0	0	0	
0	0	0	0	0	540	524	1021	0	0	0	
1	0	0	0	0	537	522	1021	0	0	0	
2	0	0	0	0	536	521	1021	0	0	0	
3	0	0	0	0	536	523	1021	0	0	0	
4	0	0	0	0	538	527	1021	0	0	0	
5	0	0	0	0	542	532	1021	0	0	0	
6	0	0	0	0	548	539	1021	0	0	0	
7	0	0	0	0	556	546	1021	0	0	0	
8	0	0	0	0	564	555	1021	0	0	0	
9	0	0	0	0	573	563	1021	0	0	0	
10	0	0	0	0	581	571	1021	0	0	0	
11	0	0	0	0	589	578	1021	0	0	0	
12	0	0	0	0	596	584	1021	0	0	0	
13	0	0	0	0	601	589	1021	0	0	0	
14	0	0	0	0	606	591	1021	0	0	0	
15	0	0	0	0	608	592	1021	0	0	0	
0	0	0	0	0	608	592	1021	0	0	0	
1	0	0	0	0	606	590	1021	0	0	0	
2	0	0	0	0	602	584	1021	0	0	0	
3	0	0	0	0	595	578	1021	0	0	0	
4	0	0	0	0	585	569	1021	0	0	0	
5	0	0	0	0	573	557	1021	0	0	0	
6	0	0	0	0	555	542	1021	0	0	0	
7	0	0	0	0	534	525	1021	0	0	0	
8	0	0	0	0	510	505	1021	0	0	0	
9	0	0	0	0	485	484	1021	0	0	0	
10	0	0	0	0	459	463	1021	0	0	0	
11	0	0	0	0	433	442	1021	0	0	0	
12	0	0	0	0	409	422	1021	0	0	0	
13	0	0	0	0	387	403	1021	0	0	0	
14	0	0	0	0	367	386	1021	0	0	0	
15	0	0	0	0	350	371	1021	0	0	0	
0	0	0	0	0	337	358	1021	0	0	0	
1	0	0	0	0	325	346	1021	0	0	0	
2	0	0	0	0	317	336	1021	0	0	0	
3	0	0	0	0	312	328	1021	0	0	0	
4	0	0	0	0	309	322	1020	0	0	0	
5	0	0	0	0	310	318	1021	0	0	0	
6	0	0	0	0	312	317	1021	0	0	0	
7	0	0	0	0	319	319	1021	0	0	0	
8	0	0	0	0	329	324	1021	0	0	0	
9	0	0	0	0	340	333	1021	0	0	0	
10	0	0	0	0	355	345	1021	0	0	0	
11	0	0	0	0	373	360	1021	0	0	0	
12	0	0	0	0	393	380	1021	0	0	0	
13	0	0	0	0	415	401	1021	0	0	0	
14	0	0	0	0	440	426	1021	0	0	0	
15	0	0	0	0	466	453	1021	0	0	0	
0	0	0	0	0	495	481	1021	0	0	0	
1	0	0	0	0	523	511	1021	0	0	0	
2	0	0	0	0	551	539	1021	0	0	0	
3	0	0	0	0	577	565	1021	0	0	0	
4	0	0	0	0	598	586	1021	0	0	0	
5	0	0	0	0	614	602	1021	0	0	0	
6	0	0	0	0	624	612	1021	0	0	0	
7	0	0	0	0	626	616	1021	0	0	0	
8	0	0	0	0	621	613	1021	0	0	0	
9	0	0	0	0	610	603	1021	0	0	0	
10	0	0	0	0	592	588	1021	0	0	0	
11	0	0	0	0	571	568	1021	0	0	0	
12	0	0	0	0	547	547	1021	0	0	0	
13	0	0	0	0	523	527	1021	0	0	0	
14	0	0	0	0	502	508	1021	0	0	0	
15	0	0	0	0	485	493	1021	0	0	0	
0	0	0	0	0	474	484	1021	0	0	0	
1	0	0	0	0	469	479	1021	0	0	0	
2	0	0	0	0	470	480	1021	0	0	0	
3	0	0	0	0	476	484	1021	0	0	0	
4	0	0	0	0	486	493	1021	0	0	0	
5	0	0	0	0	499	504	1021	0	0	0	
6	0	0	0	0	513	515	1021	0	0	0	
7	0	0	0	0	528	526	1020	0	0	0	
8	0	0	0	0	543	537	1021	0	0	0	
9	0	0	0	0	556	547	1021	0	0	0	
10	0	0	0	0	567	557	1021	0	0	0	
11	0	0	0	0	576	564	1021	0	0	0	
12	0	0	0	0	583	571	1021	0	0	0	
13	0	0	0	0	587	575	1021	0	0	0	
14	0	0	0	0	588	579	1021	0	0	0	
15	0	0	0	0	587	579	1021	0	0	0	
0	0	0	0	0	583	579	1021	0	0	0	
1	0	0	0	0	577	577	1021	0	0	0	
2	0	0	0	0	568	572	1021	0	0	0	
3	0	0	0	0	559	567	1021	0	0	0	
4	0	0	0	0	548	561	1021	0	0	0	
5	0	0	0	0	538	555	1021	0	0	0	
6	0	0	0	0	528	548	1021	0	0	0	
7	0	0	0	0	520	543	1021	0	0	0	
8	0	0	0	0	515	539	1021	0	0	0	
9	0	0	0	0	513	537	1021	0	0	0	
10	0	0	0	0	513	536	1021	0	0	0	
11	0	0	0	0	517	538	1021	0	0	0	
12	0	0	0	0	524	540	1021	0	0	0	
13	0	0	0	0	532	544	1021	0	0	0	
14	0	0	0	0	543	550	1021	0	0	0	
15	0	0	0	0	555	555	1021	0	0	0	
0	0	0	0	0	567	561	1021	0	0	0	
1	0	0	0	0	578	568	1021	0	0	0	
2	0	0	0	0	588	572	1021	0	0	0	
3	0	0	0	0	595	577	1021	0	0	0	
4	0	0	0	0	599	579	1021	0	0	0	
5	0	0	0	0	600	581	1021	0	0	0	
6	0	0	0	0	599	582	1021	0	0	0	
7	0	0	0	0	595	582	1021	0	0	0	
8	0	0	0	0	590	581	1021	0	0	0	
9	0	0	0	0	585	581	1021	0	0	0	
10	0	0	0	0	579	580	1021	0	0	0	
11	0	0	0	0	573	579	1021	0	0	0	
12	0	0	0	0	567	577	1021	0	0	0	
13	0	0	0	0	561	575	1021	0	0	0	
14	0	0	0	0	557	572	1021	0	0	0	
15	0	0	0	0	552	568	1020	0	0	0	
0	0	0	0	0	548	563	1021	0	0	0	
1	0	0	0	0	545	557	1021	0	0	0	
2	0	0	0	0	542	551	1021	0	0	0	
3	0	0	0	0	540	546	1021	0	0	0	
4	0	0	0	0	539	542	1021	0	0	0	
5	0	0	0	0	539	538	1021	0	0	0	
6	0	0	0	0	540	536	1021	0	0	0	
7	0	0	0	0	542	536	1021	0	0	0	
8	0	0	0	0	545	538	1021	0	0	0	
9	0	0	0	0	549	541	1021	0	0	0	
10	0	0	0	0	554	546	1021	0	0	0	
11	0	0	0	0	560	551	1021	0	0	0	
12	0	0	0	0	564	556	1021	0	0	0	
13	0	0	0	0	568	560	1021	0	0	0	
14	0	0	0	0	571	563	1021	0	0	0	
15	0	0	0	0	573	565	1021	0	0	0	
0	0	0	0	0	574	566	1021	0	0	0	
1	0	0	0	0	574	565	1021	0	0	0	
2	0	0	0	0	572	563	1021	0	0	0	
3	0	0	0	0	570	561	1021	0	0	0	
4	0	0	0	0	568	560	1021	0	0	0	
5	0	0	0	0	567	558	1021	0	0	0	
6	0	0	0	0	566	556	1021	0	0	0	
7	0	0	0	0	564	555	1021	0	0	0	
8	0	0	0	0	563	554	1021	0	0	0	
9	0	0	0	0	562	553	1021	0	0	0	
10	0	0	0	0	560	551	1021	0	0	0	
11	0	0	0	0	558	550	1021	0	0	0	
12	0	0	0	0	555	548	1021	0	0	0	
13	0	0	0	0	550	545	1021	0	0	0	
14	0	0	0	0	544	542	1021	0	0	0	
15	0	0	0	0	538	537	1021	0	0	0	
0	0	0	0	0	530	532	1021	0	0	0	
1	0	0	0	0	522	526	1021	0	0	0	
2	0	0	0	0	514	520	1021	0	0	0	
3	0	0	0	0	507	515	1021	0	0	0	
4	0	0	0	0	501	510	1021	0	0	0	
5	0	0	0	0	496	506	1021	0	0	0	
6	0	0	0	0	494	504	1021	0	0	0	
7	0	0	0	0	492	501	1021	0	0	0	
8	0	0	0	0	492	499	1021	0	0	0	
9	0	0	0	0	493	499	1021	0	0	0	
10	0	0	0	0	496	499	1021	0	0	0	
11	0	0	0	0	501	500	1021	0	0	0	
12	0	0	0	0	507	503	1021	0	0	0	
13	0	0	0	0	515	507	1021	0	0	0	
14	0	0	0	0	525	513	1021	0	0	0	
15	0	0	0	0	536	521	1021	0	0	0	
0	0	0	0	0	547	531	1021	0	0	0	
1	0	0	0	0	558	540	1021	0	0	0	
2	0	0	0	0	567	550	1021	0	0	0	
3	0	0	0	0	573	556	1021	0	0	0	
4	0	0	0	0	577	563	1021	0	0	0	
5	0	0	0	0	579	567	1021	0	0	0	
6	0	0	0	0	577	569	1021	0	0	0	
7	0	0	0	0	575	569	1021	0	0	0	
8	0	0	0	0	569	567	1021	0	0	0	
9	0	0	0	0	562	563	1021	0	0	0	
10	0	0	0	0	553	556	1021	0	0	0	
11	0	0	0	0	543	547	1021	0	0	0	
12	0	0	0	0	532	536	1021	0	0	0	
13	0	0	0	0	521	524	1021	0	0	0	
14	0	0	0	0	510	512	1021	0	0	0	
15	0	0	0	0	501	500	1021	0	0	0	
0	0	0	0	0	494	489	1021	0	0	0	
1	0	0	0	0	488	480	1021	0	0	0	
2	0	0	0	0	486	474	1021	0	0	0	
3	0	0	0	0	487	471	1021	0	0	0	
4	0	0	0	0	491	471	1021	0	0	0	
5	0	0	0	0	498	475	1021	0	0	0	
6	0	0	0	0	507	481	1021	0	0	0	
7	0	0	0	0	517	489	1021	0	0	0	
8	0	0	0	0	528	499	1021	0	0	0	
9	0	0	0	0	540	511	1021	0	0	0	
10	0	0	0	0	551	521	1021	0	0	0	
11	0	0	0	0	561	531	1021	0	0	0	
12	0	0	0	0	569	541	1021	0	0	0	
13	0	0	0	0	576	548	1021	0	0	0	
14	0	0	0	0	581	554	1021	0	0	0	
15	0	0	0	0	584	558	1021	0	0	0	
0	0	0	0	0	585	559	1021	0	0	0	
1	0	0	0	0	585	559	1021	0	0	0	
2	0	0	0	0	583	557	1021	0	0	0	
3	0	0	0	0	579	554	1021	0	0	0	
4	0	0	0	0	574	550	1021	0	0	0	
5	0	0	0	0	568	545	1021	0	0	0	
6	0	0	0	0	563	540	1021	0	0	0	
7	0	0	0	0	558	536	1021	0	0	0	
8	0	0	0	0	555	534	1021	0	0	0	
9	0	0	0	0	555	535	1021	0	0	0	
10	0	0	0	0	557	539	1021	0	0	0	
11	0	0	0	0	561	544	1021	0	0	0	
12	0	0	0	0	568	551	1021	0	0	0	
13	0	0	0	0	574	559	1021	0	0	0	
14	0	0	0	0	580	565	1020	0	0	0	
15	0	0	0	0	585	570	1021	0	0	0	
0	0	0	0	0	588	572	1021	0	0	0	
1	0	0	0	0	588	573	1021	0	0	0	
2	0	0	0	0	585	569	1021	0	0	0	
3	0	0	0	0	579	564	1021	0	0	0	
4	0	0	0	0	570	556	1021	0	0	0	
5	0	0	0	0	560	546	1021	0	0	0	
6	0	0	0	0	550	536	1021	0	0	0	
7	0	0	0	0	538	525	1021	0	0	0	
8	0	0	0	0	528	515	1021	0	0	0	
9	0	0	0	0	519	506	1021	0	0	0	
10	0	0	0	0	513	499	1021	0	0	0	
11	0	0	0	0	510	496	1021	0	0	0	
12	0	0	0	0	510	496	1021	0	0	0	
13	0	0	0	0	514	499	1021	0	0	0	
14	0	0	0	0	521	505	1021	0	0	0	
15	0	0	0	0	529	513	1021	0	0	0	
0	0	0	0	0	538	521	1021	0	0	0	
1	0	0	0	0	546	528	1021	0	0	0	
2	0	0	0	0	552	534	1021	0	0	0	
3	0	0	0	0	556	538	1021	0	0	0	
4	0	0	0	0	556	539	1021	0	0	0	
5	0	0	0	0	555	538	1021	0	0	0	
6	0	0	0	0	551	536	1021	0	0	0	
7	0	0	0	0	547	532	1021	0	0	0	
8	0	0	0	0	543	527	1021	0	0	0	
9	0	0	0	0	537	521	1021	0	0	0	
10	0	0	0	0	532	515	1021	0	0	0	
11	0	0	0	0	527	508	1021	0	0	0	
12	0	0	0	0	521	500	1021	0	0	0	
13	0	0	0	0	515	492	1021	0	0	0	
14	0	0	0	0	509	484	1021	0	0	0	
15	0	0	0	0	504	478	1021	0	0	0	
0	0	0	0	0	499	472	1021	0	0	0	
1	0	0	0	0	494	467	1021	0	0	0	
2	0	0	0	0	492	465	1021	0	0	0	
3	0	0	0	0	492	465	1021	0	0	0	
4	0	0	0	0	492	467	1021	0	0	0	
5	0	0	0	0	495	471	1021	0	0	0	
6	0	0	0	0	499	476	1021	0	0	0	
7	0	0	0	0	505	483	1021	0	0	0	
8	0	0	0	0	512	489	1021	0	0	0	
9	0	0	0	0	519	497	1021	0	0	0	
10	0	0	0	0	526	504	1021	0	0	0	
11	0	0	0	0	532	510	1021	0	0	0	
12	0	0	0	0	538	516	1021	0	0	0	
13	0	0	0	0	543	520	1021	0	0	0	
14	0	0	0	0	548	524	1021	0	0	0	
15	0	0	0	0	551	526	1021	0	0	0	
0	0	0	0	0	555	528	1021	0	0	0	
1	0	0	0	0	557	529	1021	0	0	0	
2	0	0	0	0	559	531	1021	0	0	0	
3	0	0	0	0	562	532	1021	0	0	0	
4	0	0	0	0	564	533	1021	0	0	0	
5	0	0	0	0	565	534	1021	0	0	0	
6	0	0	0	0	567	536	1021	0	0	0	
7	0	0	0	0	568	536	1021	0	0	0	
8	0	0	0	0	569	537	1021	0	0	0	
9	0	0	0	0	569	538	1021	0	0	0	
10	0	0	0	0	569	539	1021	0	0	0	
11	0	0	0	0	568	540	1021	0	0	0	
12	0	0	0	0	568	540	1021	0	0	0	
13	0	0	0	0	566	540	1021	0	0	0	
14	0	0	0	0	563	539	1021	0	0	0	
15	0	0	0	0	561	537	1021	0	0	0	
0	0	0	0	0	557	535	1021	0	0	0	
1	0	0	0	0	553	531	1021	0	0	0	
2	0	0	0	0	551	528	1021	0	0	0	
3	0	0	0	0	548	525	1021	0	0	0	
4	0	0	0	0	547	523	1021	0	0	0	
5	0	0	0	0	547	521	1021	0	0	0	
6	0	0	0	0	548	520	1021	0	0	0	
7	0	0	0	0	549	521	1021	0	0	0	
8	0	0	0	0	551	522	1021	0	0	0	
9	0	0	0	0	553	524	1021	0	0	0	
10	0	0	0	0	555	525	1021	0	0	0	
11	0	0	0	0	556	526	1021	0	0	0	
12	0	0	0	0	556	527	1021	0	0	0	
13	0	0	0	0	556	528	1021	0	0	0	
14	0	0	0	0	553	528	1021	0	0	0	
15	0	0	0	0	551	528	1021	0	0	0	
0	0	0	0	0	548	527	1021	0	0	0	
1	0	0	0	0	544	526	1021	0	0	0	
2	0	0	0	0	542	524	1021	0	0	0	
3	0	0	0	0	539	523	1021	0	0	0	
4	0	0	0	0	536	521	1021	0	0	0	
5	0	0	0	0	536	519	1021	0	0	0	
6	0	0	0	0	536	519	1021	0	0	0	
7	0	0	0	0	537	519	1021	0	0	0	
8	0	0	0	0	540	519	1021	0	0	0	
9	0	0	0	0	543	521	1021	0	0	0	
10	0	0	0	0	548	523	1021	0	0	0	
11	0	0	0	0	551	525	1021	0	0	0	
12	0	0	0	0	554	526	1021	0	0	0	
13	0	0	0	0	555	527	1021	0	0	0	
14	0	0	0	0	555	526	1021	0	0	0	
15	0	0	0	0	554	525	1021	0	0	0	
0	0	0	0	0	552	523	1021	0	0	0	
1	0	0	0	0	549	519	1021	0	0	0	
2	0	0	0	0	545	517	1021	0	0	0	
3	0	0	0	0	542	513	1021	0	0	0	
4	0	0	0	0	539	510	1021	0	0	0	
5	0	0	0	0	535	506	1021	0	0	0	
6	0	0	0	0	532	502	1021	0	0	0	
7	0	0	0	0	528	497	1021	0	0	0	
8	0	0	0	0	524	492	1021	0	0	0	
9	0	0	0	0	519	486	1021	0	0	0	
10	0	0	0	0	514	480	1021	0	0	0	
11	0	0	0	0	508	474	1021	0	0	0	
12	0	0	0	0	504	468	1021	0	0	0	
13	0	0	0	0	500	463	1021	0	0	0	
14	0	0	0	0	497	460	1021	0	0	0	
15	0	0	0	0	496	459	1021	0	0	0	
0	0	0	0	0	498	460	1021	0	0	0	
1	0	0	0	0	500	463	1021	0	0	0	
2	0	0	0	0	505	467	1021	0	0	0	
3	0	0	0	0	511	472	1021	0	0	0	
4	0	0	0	0	517	478	1021	0	0	0	
5	0	0	0	0	523	484	1021	0	0	0	
6	0	0	0	0	529	490	1021	0	0	0	
7	0	0	0	0	534	494	1021	0	0	0	
8	0	0	0	0	538	498	1021	0	0	0	
9	0	0	0	0	541	501	1021	0	0	0	
10	0	0	0	0	543	503	1021	0	0	0	
11	0	0	0	0	545	504	1021	0	0	0	
12	0	0	0	0	547	505	1021	0	0	0	
13	0	0	0	0	548	507	1021	0	0	0	
14	0	0	0	0	551	508	1021	0	0	0	
15	0	0	0	0	554	510	1021	0	0	0	
0	0	0	0	0	558	513	1021	0	0	0	
1	0	0	0	0	562	517	1021	0	0	0	
2	0	0	0	0	568	522	1021	0	0	0	
3	0	0	0	0	574	527	1021	0	0	0	
4	0	0	0	0	579	531	1021	0	0	0	
5	0	0	0	0	582	535	1021	0	0	0	
6	0	0	0	0	584	537	1021	0	0	0	
7	0	0	0	0	583	537	1021	0	0	0	
8	0	0	0	0	580	535	1021	0	0	0	
9	0	0	0	0	573	530	1021	0	0	0	
10	0	0	0	0	564	524	1021	0	0	0	
11	0	0	0	0	553	515	1021	0	0	0	
12	0	0	0	0	541	505	1021	0	0	0	
13	0	0	0	0	528	496	1021	0	0	0	
14	0	0	0	0	515	486	1021	0	0	0	
15	0	0	0	0	505	478	1021	0	0	0	
0	0	0	0	0	497	471	1021	0	0	0	
1	0	0	0	0	492	466	1021	0	0	0	
2	0	0	0	0	490	463	1021	0	0	0	
3	0	0	0	0	491	462	1021	0	0	0	
4	0	0	0	0	496	463	1021	0	0	0	
5	0	0	0	0	503	466	1021	0	0	0	
6	0	0	0	0	512	471	1021	0	0	0	
7	0	0	0	0	524	478	1021	0	0	0	
8	0	0	0	0	536	486	1021	0	0	0	
9	0	0	0	0	547	493	1021	0	0	0	
10	0	0	0	0	559	500	1021	0	0	0	
11	0	0	0	0	568	507	1021	0	0	0	
12	0	0	0	0	575	512	1021	0	0	0	
13	0	0	0	0	579	516	1021	0	0	0	
14	0	0	0	0	581	519	1021	0	0	0	
15	0	0	0	0	580	519	1021	0	0	0	
0	0	0	0	0	577	518	1021	0	0	0	
1	0	0	0	0	573	515	1021	0	0	0	
2	0	0	0	0	566	511	1021	0	0	0	
3	0	0	0	0	557	504	1021	0	0	0	
4	0	0	0	0	547	496	1021	0	0	0	
5	0	0	0	0	537	487	1021	0	0	0	
6	0	0	0	0	528	480	1021	0	0	0	
7	0	0	0	0	520	472	1021	0	0	0	
8	0	0	0	0	514	464	1021	0	0	0	
9	0	0	0	0	510	459	1021	0	0	0	
10	0	0	0	0	508	455	1021	0	0	0	
11	0	0	0	0	508	455	1021	0	0	0	
12	0	0	0	0	511	455	1021	0	0	0	
13	0	0	0	0	515	458	1021	0	0	0	
14	0	0	0	0	520	462	1021	0	0	0	
15	0	0	0	0	527	468	1021	0	0	0	
0	0	0	0	0	535	474	1021	0	0	0	
1	0	0	0	0	543	481	1021	0	0	0	
2	0	0	0	0	551	488	1021	0	0	0	
3	0	0	0	0	560	496	1021	0	0	0	
4	0	0	0	0	568	504	1021	0	0	0	
5	0	0	0	0	576	511	1021	0	0	0	
6	0	0	0	0	582	516	1021	0	0	0	
7	0	0	0	0	586	520	1021	0	0	0	
8	0	0	0	0	588	522	1021	0	0	0	
9	0	0	0	0	587	521	1021	0	0	0	
10	0	0	0	0	582	518	1021	0	0	0	
11	0	0	0	0	575	513	1021	0	0	0	
12	0	0	0	0	566	507	1021	0	0	0	
13	0	0	0	0	555	498	1021	0	0	0	
14	0	0	0	0	544	489	1021	0	0	0	
15	0	0	0	0	533	480	1021	0	0	0	
0	0	0	0	0	524	472	1021	0	0	0	
1	0	0	0	0	516	464	1021	0	0	0	
2	0	0	0	0	511	458	1021	0	0	0	
3	0	0	0	0	507	453	1021	0	0	0	
4	0	0	0	0	504	450	1021	0	0	0	
5	0	0	0	0	503	447	1021	0	0	0	
6	0	0	0	0	503	444	1021	0	0	0	
7	0	0	0	0	503	443	1021	0	0	0	
8	0	0	0	0	504	442	1021	0	0	0	
9	0	0	0	0	506	443	1021	0	0	0	
10	0	0	0	0	508	444	1021	0	0	0	
11	0	0	0	0	510	446	1021	0	0	0	
12	0	0	0	0	513	448	1021	0	0	0	
13	0	0	0	0	516	451	1021	0	0	0	
14	0	0	0	0	519	454	1021	0	0	0	
15	0	0	0	0	521	456	1021	0	0	0	
0	0	0	0	0	523	458	1021	0	0	0	
1	0	0	0	0	524	459	1021	0	0	0	
2	0	0	0	0	525	459	1021	0	0	0	
3	0	0	0	0	526	460	1021	0	0	0	
4	0	0	0	0	526	460	1021	0	0	0	
5	0	0	0	0	527	462	1021	0	0	0	
6	0	0	0	0	529	463	1021	0	0	0	
7	0	0	0	0	532	465	1021	0	0	0	
8	0	0	0	0	535	467	1021	0	0	0	
9	0	0	0	0	537	468	1021	0	0	0	
10	0	0	0	0	539	470	1021	0	0	0	
11	0	0	0	0	541	471	1021	0	0	0	
12	0	0	0	0	542	471	1021	0	0	0	
13	0	0	0	0	543	472	1021	0	0	0	
14	0	0	0	0	544	473	1021	0	0	0	
15	0	0	0	0	545	472	1021	0	0	0	
0	0	0	0	0	545	473	1021	0	0	0	
1	0	0	0	0	546	473	1021	0	0	0	
2	0	0	0	0	547	473	1021	0	0	0	
3	0	0	0	0	547	472	1021	0	0	0	
4	0	0	0	0	546	471	1021	0	0	0	
5	0	0	0	0	545	470	1021	0	0	0	
6	0	0	0	0	545	469	1021	0	0	0	
7	0	0	0	0	545	467	1021	0	0	0	
8	0	0	0	0	544	467	1021	0	0	0	
9	0	0	0	0	543	466	1021	0	0	0	
10	0	0	0	0	542	465	1021	0	0	0	
11	0	0	0	0	541	464	1021	0	0	0	
12	0	0	0	0	539	463	1021	0	0	0	
13	0	0	0	0	537	463	1021	0	0	0	
14	0	0	0	0	537	463	1021	0	0	0	
15	0	0	0	0	536	465	1021	0	0	0	
0	0	0	0	0	537	467	1021	0	0	0	
1	0	0	0	0	539	468	1021	0	0	0	
2	0	0	0	0	540	470	1021	0	0	0	
3	0	0	0	0	541	471	1021	0	0	0	
4	0	0	0	0	543	472	1021	0	0	0	
5	0	0	0	0	546	473	1021	0	0	0	
6	0	0	0	0	548	473	1021	0	0	0	
7	0	0	0	0	549	472	1021	0	0	0	
8	0	0	0	0	550	470	1021	0	0	0	
9	0	0	0	0	548	466	1021	0	0	0	
10	0	0	0	0	547	462	1021	0	0	0	
11	0	0	0	0	543	458	1021	0	0	0	
12	0	0	0	0	540	454	1021	0	0	0	
13	0	0	0	0	537	451	1021	0	0	0	
14	0	0	0	0	535	451	1021	0	0	0	
15	0	0	0	0	535	451	1021	0	0	0	
0	0	0	0	0	536	454	1021	0	0	0	
1	0	0	0	0	540	457	1021	0	0	0	
2	0	0	0	0	544	463	1021	0	0	0	
3	0	0	0	0	549	468	1021	0	0	0	
4	0	0	0	0	554	473	1021	0	0	0	
5	0	0	0	0	560	479	1021	0	0	0	
6	0	0	0	0	564	484	1021	0	0	0	
7	0	0	0	0	568	488	1021	0	0	0	
8	0	0	0	0	569	490	1021	0	0	0	
9	0	0	0	0	569	489	1021	0	0	0	
10	0	0	0	0	567	487	1021	0	0	0	
11	0	0	0	0	563	484	1021	0	0	0	
12	0	0	0	0	557	479	1021	0	0	0	
13	0	0	0	0	550	473	1021	0	0	0	
14	0	0	0	0	543	467	1021	0	0	0	
15	0	0	0	0	538	462	1021	0	0	0	
0	0	0	0	0	532	457	1021	0	0	0	
1	0	0	0	0	528	453	1021	0	0	0	
2	0	0	0	0	524	449	1021	0	0	0	
3	0	0	0	0	521	445	1021	0	0	0	
4	0	0	0	0	519	443	1021	0	0	0	
5	0	0	0	0	516	440	1021	0	0	0	
6	0	0	0	0	516	438	1021	0	0	0	
7	0	0	0	0	515	436	1021	0	0	0	
8	0	0	0	0	516	435	1021	0	0	0	
9	0	0	0	0	517	435	1021	0	0	0	
10	0	0	0	0	519	436	1021	0	0	0	
11	0	0	0	0	521	437	1020	0	0	0	
12	0	0	0	0	523	438	1021	0	0	0	
13	0	0	0	0	525	438	1021	0	0	0	
14	0	0	0	0	527	440	1021	0	0	0	
15	0	0	0	0	530	441	1021	0	0	0	
0	0	0	0	0	533	444	1021	0	0	0	
1	0	0	0	0	537	447	1021	0	0	0	
2	0	0	0	0	542	451	1021	0	0	0	
3	0	0	0	0	547	456	1021	0	0	0	
4	0	0	0	0	554	462	1021	0	0	0	
5	0	0	0	0	561	468	1021	0	0	0	
6	0	0	0	0	568	475	1021	0	0	0	
7	0	0	0	0	575	482	1021	0	0	0	
8	0	0	0	0	581	487	1021	0	0	0	
9	0	0	0	0	584	491	1021	0	0	0	
10	0	0	0	0	586	494	1021	0	0	0	
11	0	0	0	0	585	494	1021	0	0	0	
12	0	0	0	0	582	493	1021	0	0	0	
13	0	0	0	0	577	489	1021	0	0	0	
14	0	0	0	0	570	484	1021	0	0	0	
15	0	0	0	0	562	478	1021	0	0	0	
0	0	0	0	0	553	471	1021	0	0	0	
1	0	0	0	0	545	463	1021	0	0	0	
2	0	0	0	0	536	455	1021	0	0	0	
3	0	0	0	0	529	448	1021	0	0	0	
4	0	0	0	0	522	441	1021	0	0	0	
5	0	0	0	0	516	435	1021	0	0	0	
6	0	0	0	0	513	429	1021	0	0	0	
7	0	0	0	0	511	426	1021	0	0	0	
8	0	0	0	0	510	423	1021	0	0	0	
9	0	0	0	0	510	422	1021	0	0	0	
10	0	0	0	0	512	423	1021	0	0	0	
11	0	0	0	0	515	426	1021	0	0	0	
12	0	0	0	0	520	430	1021	0	0	0	
13	0	0	0	0	525	434	1021	0	0	0	
14	0	0	0	0	529	438	1020	0	0	0	
15	0	0	0	0	532	441	1021	0	0	0	
0	0	0	0	0	534	443	1021	0	0	0	
1	0	0	0	0	535	443	1021	0	0	0	
2	0	0	0	0	534	443	1021	0	0	0	
3	0	0	0	0	531	441	1021	0	0	0	
4	0	0	0	0	527	438	1021	0	0	0	
5	0	0	0	0	525	435	1021	0	0	0	
6	0	0	0	0	522	433	1021	0	0	0	
7	0	0	0	0	520	431	1021	0	0	0	
8	0	0	0	0	519	430	1021	0	0	0	
9	0	0	0	0	519	430	1021	0	0	0	
10	0	0	0	0	520	430	1021	0	0	0	
11	0	0	0	0	523	433	1021	0	0	0	
12	0	0	0	0	527	436	1021	0	0	0	
13	0	0	0	0	531	440	1021	0	0	0	
14	0	0	0	0	536	444	1021	0	0	0	
15	0	0	0	0	541	449	1021	0	0	0	
0	0	0	0	0	546	455	1021	0	0	0	
1	0	0	0	0	550	459	1021	0	0	0	
2	0	0	0	0	554	463	1021	0	0	0	
3	0	0	0	0	556	467	1021	0	0	0	
4	0	0	0	0	558	469	1021	0	0	0	
5	0	0	0	0	559	471	1021	0	0	0	
6	0	0	0	0	558	471	1021	0	0	0	
7	0	0	0	0	557	471	1021	0	0	0	
8	0	0	0	0	555	468	1021	0	0	0	
9	0	0	0	0	553	465	1021	0	0	0	
10	0	0	0	0	550	462	1021	0	0	0	
11	0	0	0	0	547	458	1021	0	0	0	
12	0	0	0	0	544	454	1021	0	0	0	
13	0	0	0	0	542	450	1021	0	0	0	
14	0	0	0	0	540	447	1021	0	0	0	
15	0	0	0	0	539	445	1021	0	0	0	
0	0	0	0	0	539	444	1021	0	0	0	
1	0	0	0	0	540	445	1021	0	0	0	
2	0	0	0	0	542	447	1021	0	0	0	
3	0	0	0	0	545	451	1021	0	0	0	
4	0	0	0	0	550	456	1021	0	0	0	
5	0	0	0	0	554	462	1021	0	0	0	
6	0	0	0	0	559	468	1021	0	0	0	
7	0	0	0	0	563	473	1021	0	0	0	
8	0	0	0	0	567	479	1021	0	0	0	
9	0	0	0	0	570	483	1021	0	0	0	
10	0	0	0	0	573	486	1021	0	0	0	
11	0	0	0	0	575	488	1021	0	0	0	
12	0	0	0	0	577	489	1021	0	0	0	
13	0	0	0	0	577	489	1021	0	0	0	
14	0	0	0	0	577	487	1021	0	0	0	
15	0	0	0	0	575	484	1021	0	0	0	
0	0	0	0	0	572	480	1021	0	0	0	
1	0	0	0	0	568	476	1021	0	0	0	
2	0	0	0	0	564	471	1021	0	0	0	
3	0	0	0	0	558	465	1021	0	0	0	
4	0	0	0	0	551	459	1021	0	0	0	
5	0	0	0	0	543	451	1021	0	0	0	
6	0	0	0	0	534	444	1021	0	0	0	
7	0	0	0	0	525	437	1021	0	0	0	
8	0	0	0	0	516	430	1021	0	0	0	
9	0	0	0	0	510	425	1021	0	0	0	
10	0	0	0	0	504	421	1021	0	0	0	
11	0	0	0	0	501	418	1021	0	0	0	
12	0	0	0	0	500	417	1021	0	0	0	
13	0	0	0	0	502	419	1021	0	0	0	
14	0	0	0	0	505	421	1021	0	0	0	
15	0	0	0	0	510	424	1020	0	0	0	
0	0	0	0	0	515	429	1021	0	0	0	
1	0	0	0	0	523	433	1021	0	0	0	
2	0	0	0	0	530	438	1021	0	0	0	
3	0	0	0	0	538	444	1021	0	0	0	
4	0	0	0	0	545	449	1021	0	0	0	
5	0	0	0	0	551	453	1021	0	0	0	
6	0	0	0	0	555	455	1021	0	0	0	
7	0	0	0	0	557	458	1021	0	0	0	
8	0	0	0	0	557	459	1021	0	0	0	
9	0	0	0	0	556	459	1021	0	0	0	
10	0	0	0	0	555	459	1021	0	0	0	
11	0	0	0	0	552	458	1021	0	0	0	
12	0	0	0	0	550	458	1021	0	0	0	
13	0	0	0	0	547	457	1021	0	0	0	
14	0	0	0	0	544	456	1021	0	0	0	
15	0	0	0	0	542	455	1021	0	0	0	
0	0	0	0	0	541	456	1021	0	0	0	
1	0	0	0	0	540	457	1021	0	0	0	
2	0	0	0	0	542	460	1021	0	0	0	
3	0	0	0	0	544	462	1021	0	0	0	
4	0	0	0	0	547	465	1021	0	0	0	
5	0	0	0	0	551	468	1021	0	0	0	
6	0	0	0	0	555	472	1021	0	0	0	
7	0	0	0	0	558	473	1021	0	0	0	
8	0	0	0	0	560	474	1021	0	0	0	
9	0	0	0	0	560	473	1021	0	0	0	
10	0	0	0	0	559	470	1021	0	0	0	
11	0	0	0	0	555	465	1021	0	0	0	
12	0	0	0	0	550	460	1021	0	0	0	
13	0	0	0	0	543	453	1021	0	0	0	
14	0	0	0	0	537	448	1021	0	0	0	
15	0	0	0	0	533	444	1021	0	0	0	
0	0	0	0	0	531	443	1021	0	0	0	
1	0	0	0	0	530	443	1021	0	0	0	
2	0	0	0	0	533	447	1021	0	0	0	
3	0	0	0	0	537	451	1021	0	0	0	
4	0	0	0	0	543	456	1021	0	0	0	
5	0	0	0	0	548	461	1021	0	0	0	
6	0	0	0	0	551	464	1021	0	0	0	
7	0	0	0	0	552	464	1021	0	0	0	
8	0	0	0	0	550	461	1021	0	0	0	
9	0	0	0	0	544	455	1021	0	0	0	
10	0	0	0	0	536	448	1021	0	0	0	
11	0	0	0	0	524	437	1021	0	0	0	
12	0	0	0	0	510	425	1021	0	0	0	
13	0	0	0	0	495	412	1021	0	0	0	
14	0	0	0	0	480	397	1021	0	0	0	
15	0	0	0	0	464	384	1021	0	0	0	
0	0	0	0	0	450	371	1021	0	0	0	
1	0	0	0	0	436	359	1021	0	0	0	
2	0	0	0	0	424	347	1021	0	0	0	
3	0	0	0	0	413	336	1021	0	0	0	
4	0	0	0	0	403	326	1021	0	0	0	
5	0	0	0	0	394	315	1021	0	0	0	
6	0	0	0	0	385	304	1021	0	0	0	
7	0	0	0	0	377	294	1021	0	0	0	
8	0	0	0	0	371	285	1021	0	0	0	
9	0	0	0	0	364	276	1021	0	0	0	
10	0	0	0	0	358	268	1021	0	0	0	
11	0	0	0	0	352	259	1021	0	0	0	
12	0	0	0	0	346	251	1021	0	0	0	
13	0	0	0	0	340	242	1021	0	0	0	
14	0	0	0	0	334	235	1021	0	0	0	
15	0	0	0	0	328	227	1021	0	0	0	
0	0	0	0	0	323	222	1021	0	0	0	
1	0	0	0	0	319	218	1021	0	0	0	
2	0	0	0	0	319	217	1021	0	0	0	
3	0	0	0	0	320	219	1021	0	0	0	
4	0	0	0	0	326	225	1021	0	0	0	
5	0	0	0	0	335	234	1020	0	0	0	
6	0	0	0	0	347	247	1021	0	0	0	
7	0	0	0	0	364	264	1021	0	0	0	
8	0	0	0	0	385	284	1021	0	0	0	
9	0	0	0	0	408	307	1021	0	0	0	
10	0	0	0	0	433	331	1021	0	0	0	
11	0	0	0	0	460	355	1021	0	0	0	
12	0	0	0	0	486	380	1021	0	0	0	
13	0	0	0	0	511	402	1021	0	0	0	
14	0	0	0	0	532	422	1021	0	0	0	
15	0	0	0	0	550	438	1020	0	0	0	
0	0	0	0	0	564	451	1021	0	0	0	
1	0	0	0	0	574	461	1021	0	0	0	
2	0	0	0	0	580	467	1021	0	0	0	
3	0	0	0	0	583	470	1021	0	0	0	
4	0	0	0	0	582	471	1021	0	0	0	
5	0	0	0	0	579	469	1021	0	0	0	
6	0	0	0	0	574	465	1021	0	0	0	
7	0	0	0	0	568	460	1021	0	0	0	
8	0	0	0	0	560	455	1021	0	0	0	
9	0	0	0	0	553	449	1021	0	0	0	
10	0	0	0	0	546	444	1021	0	0	0	
11	0	0	0	0	540	439	1021	0	0	0	
12	0	0	0	0	536	436	1021	0	0	0	
13	0	0	0	0	533	434	1021	0	0	0	
14	0	0	0	0	531	434	1020	0	0	0	
15	0	0	0	0	531	435	1021	0	0	0	
0	0	0	0	0	532	437	1021	0	0	0	
1	0	0	0	0	534	440	1021	0	0	0	
2	0	0	0	0	536	442	1021	0	0	0	
3	0	0	0	0	539	445	1021	0	0	0	
4	0	0	0	0	542	448	1021	0	0	0	
5	0	0	0	0	545	450	1021	0	0	0	
6	0	0	0	0	548	452	1021	0	0	0	
7	0	0	0	0	551	454	1021	0	0	0	
8	0	0	0	0	552	455	1021	0	0	0	
9	0	0	0	0	555	455	1021	0	0	0	
10	0	0	0	0	556	455	1021	0	0	0	
11	0	0	0	0	556	455	1021	0	0	0	
12	0	0	0	0	556	455	1021	0	0	0	
13	0	0	0	0	557	455	1021	0	0	0	
14	0	0	0	0	557	455	1021	0	0	0	
15	0	0	0	0	558	456	1021	0	0	0	
0	0	0	0	0	559	458	1021	0	0	0	
1	0	0	0	0	560	460	1021	0	0	0	
2	0	0	0	0	561	462	1021	0	0	0	
3	0	0	0	0	563	464	1021	0	0	0	
4	0	0	0	0	566	468	1021	0	0	0	
5	0	0	0	0	569	471	1021	0	0	0	
6	0	0	0	0	572	475	1021	0	0	0	
7	0	0	0	0	575	478	1021	0	0	0	
8	0	0	0	0	578	480	1021	0	0	0	
9	0	0	0	0	582	484	1021	0	0	0	
10	0	0	0	0	586	487	1021	0	0	0	
11	0	0	0	0	591	492	1021	0	0	0	
12	0	0	0	0	596	496	1021	0	0	0	
13	0	0	0	0	603	502	1021	0	0	0	
14	0	0	0	0	610	508	1021	0	0	0	
15	0	0	0	0	615	513	1021	0	0	0	
0	0	0	0	0	621	518	1021	0	0	0	
1	0	0	0	0	624	520	1021	0	0	0	
2	0	0	0	0	626	522	1021	0	0	0	
3	0	0	0	0	626	523	1021	0	0	0	
4	0	0	0	0	624	521	1021	0	0	0	
5	0	0	0	0	618	516	1021	0	0	0	
6	0	0	0	0	610	509	1021	0	0	0	
7	0	0	0	0	599	499	1021	0	0	0	
8	0	0	0	0	584	487	1021	0	0	0	
9	0	0	0	0	568	472	1021	0	0	0	
10	0	0	0	0	550	457	1021	0	0	0	
11	0	0	0	0	532	441	1021	0	0	0	
12	0	0	0	0	516	427	1021	0	0	0	
13	0	0	0	0	502	413	1021	0	0	0	
14	0	0	0	0	490	402	1021	0	0	0	
15	0	0	0	0	483	394	1021	0	0	0	
0	0	0	0	0	478	388	1021	0	0	0	
1	0	0	0	0	478	385	1021	0	0	0	
2	0	0	0	0	480	384	1021	0	0	0	
3	0	0	0	0	486	385	1021	0	0	0	
4	0	0	0	0	492	388	1021	0	0	0	
5	0	0	0	0	501	393	1021	0	0	0	
6	0	0	0	0	509	398	1021	0	0	0	
7	0	0	0	0	518	404	1021	0	0	0	
8	0	0	0	0	527	411	1021	0	0	0	
9	0	0	0	0	535	418	1021	0	0	0	
10	0	0	0	0	541	424	1021	0	0	0	
11	0	0	0	0	547	431	1021	0	0	0	
12	0	0	0	0	551	436	1021	0	0	0	
13	0	0	0	0	555	441	1021	0	0	0	
14	0	0	0	0	557	444	1021	0	0	0	
15	0	0	0	0	559	448	1021	0	0	0	
0	0	0	0	0	560	450	1021	0	0	0	
1	0	0	0	0	560	451	1021	0	0	0	
2	0	0	0	0	561	453	1021	0	0	0	
3	0	0	0	0	562	454	1021	0	0	0	
4	0	0	0	0	563	455	1021	0	0	0	
5	0	0	0	0	565	457	1021	0	0	0	
6	0	0	0	0	568	458	1021	0	0	0	
7	0	0	0	0	569	460	1021	0	0	0	
8	0	0	0	0	571	461	1021	0	0	0	
9	0	0	0	0	571	462	1021	0	0	0	
10	0	0	0	0	570	462	1021	0	0	0	
11	0	0	0	0	569	461	1021	0	0	0	
12	0	0	0	0	567	461	1021	0	0	0	
13	0	0	0	0	564	460	1021	0	0	0	
14	0	0	0	0	562	460	1021	0	0	0	
15	0	0	0	0	560	458	1021	0	0	0	
0	0	0	0	0	558	457	1021	0	0	0	
1	0	0	0	0	556	455	1021	0	0	0	
2	0	0	0	0	555	454	1021	0	0	0	
3	0	0	0	0	555	453	1020	0	0	0	
4	0	0	0	0	555	452	1021	0	0	0	
5	0	0	0	0	556	452	1021	0	0	0	
6	0	0	0	0	559	452	1021	0	0	0	
7	0	0	0	0	561	453	1021	0	0	0	
8	0	0	0	0	565	455	1020	0	0	0	
9	0	0	0	0	568	455	1021	0	0	0	
10	0	0	0	0	571	456	1021	0	0	0	
11	0	0	0	0	571	455	1021	0	0	0	
12	0	0	0	0	570	454	1021	0	0	0	
13	0	0	0	0	567	451	1021	0	0	0	
14	0	0	0	0	563	448	1021	0	0	0	
15	0	0	0	0	558	444	1021	0	0	0	
0	0	0	0	0	552	441	1021	0	0	0	
1	0	0	0	0	547	439	1021	0	0	0	
2	0	0	0	0	542	437	1021	0	0	0	
3	0	0	0	0	537	435	1021	0	0	0	
4	0	0	0	0	535	434	1021	0	0	0	
5	0	0	0	0	532	433	1021	0	0	0	
6	0	0	0	0	530	432	1021	0	0	0	
7	0	0	0	0	528	430	1021	0	0	0	
8	0	0	0	0	528	428	1021	0	0	0	
9	0	0	0	0	528	428	1021	0	0	0	
10	0	0	0	0	531	428	1021	0	0	0	
11	0	0	0	0	536	431	1021	0	0	0	
12	0	0	0	0	544	436	1021	0	0	0	
13	0	0	0	0	554	443	1021	0	0	0	
14	0	0	0	0	566	451	1021	0	0	0	
15	0	0	0	0	578	460	1021	0	0	0	
0	0	0	0	0	590	468	1021	0	0	0	
1	0	0	0	0	599	475	1021	0	0	0	
2	0	0	0	0	605	479	1021	0	0	0	
3	0	0	0	0	608	481	1021	0	0	0	
4	0	0	0	0	606	480	1021	0	0	0	
5	0	0	0	0	599	476	1021	0	0	0	
6	0	0	0	0	588	468	1020	0	0	0	
7	0	0	0	0	573	458	1021	0	0	0	
8	0	0	0	0	556	446	1021	0	0	0	
9	0	0	0	0	539	433	1021	0	0	0	
10	0	0	0	0	521	421	1021	0	0	0	
11	0	0	0	0	504	409	1020	0	0	0	
12	0	0	0	0	492	400	1021	0	0	0	
13	0	0	0	0	483	392	1021	0	0	0	
14	0	0	0	0	478	387	1021	0	0	0	
15	0	0	0	0	476	385	1021	0	0	0	
0	0	0	0	0	479	386	1021	0	0	0	
1	0	0	0	0	486	390	1021	0	0	0	
2	0	0	0	0	495	395	1021	0	0	0	
3	0	0	0	0	507	402	1021	0	0	0	
4	0	0	0	0	519	411	1021	0	0	0	
5	0	0	0	0	532	420	1021	0	0	0	
6	0	0	0	0	545	429	1021	0	0	0	
7	0	0	0	0	556	439	1021	0	0	0	
8	0	0	0	0	567	448	1021	0	0	0	
9	0	0	0	0	575	456	1021	0	0	0	
10	0	0	0	0	581	463	1021	0	0	0	
11	0	0	0	0	584	467	1021	0	0	0	
12	0	0	0	0	584	470	1021	0	0	0	
13	0	0	0	0	582	470	1021	0	0	0	
14	0	0	0	0	577	468	1021	0	0	0	
15	0	0	0	0	571	464	1021	0	0	0	
0	0	0	0	0	563	459	1021	0	0	0	
1	0	0	0	0	556	452	1021	0	0	0	
2	0	0	0	0	548	447	1021	0	0	0	
3	0	0	0	0	541	441	1021	0	0	0	
4	0	0	0	0	535	436	1020	0	0	0	
5	0	0	0	0	532	433	1021	0	0	0	
6	0	0	0	0	531	431	1021	0	0	0	
7	0	0	0	0	532	431	1021	0	0	0	
8	0	0	0	0	536	433	1021	0	0	0	
9	0	0	0	0	540	436	1021	0	0	0	
10	0	0	0	0	545	440	1021	0	0	0	
11	0	0	0	0	550	443	1021	0	0	0	
12	0	0	0	0	553	446	1021	0	0	0	
13	0	0	0	0	557	449	1021	0	0	0	
14	0	0	0	0	559	451	1020	0	0	0	
15	0	0	0	0	561	452	1021	0	0	0	
0	0	0	0	0	563	455	1021	0	0	0	
1	0	0	0	0	566	457	1021	0	0	0	
2	0	0	0	0	570	461	1021	0	0	0	
3	0	0	0	0	574	465	1021	0	0	0	
4	0	0	0	0	579	470	1021	0	0	0	
5	0	0	0	0	587	476	1021	0	0	0	
6	0	0	0	0	593	482	1021	0	0	0	
7	0	0	0	0	600	487	1021	0	0	0	
8	0	0	0	0	606	492	1021	0	0	0	
9	0	0	0	0	610	496	1021	0	0	0	
10	0	0	0	0	613	498	1021	0	0	0	
11	0	0	0	0	612	497	1021	0	0	0	
12	0	0	0	0	608	493	1021	0	0	0	
13	0	0	0	0	600	486	1021	0	0	0	
14	0	0	0	0	588	476	1021	0	0	0	
15	0	0	0	0	574	464	1021	0	0	0	
0	0	0	0	0	556	450	1021	0	0	0	
1	0	0	0	0	538	435	1021	0	0	0	
2	0	0	0	0	520	421	1021	0	0	0	
3	0	0	0	0	503	407	1021	0	0	0	
4	0	0	0	0	489	395	1021	0	0	0	
5	0	0	0	0	478	386	1021	0	0	0	
6	0	0	0	0	471	379	1021	0	0	0	
7	0	0	0	0	468	376	1021	0	0	0	
8	0	0	0	0	471	377	1021	0	0	0	
9	0	0	0	0	478	380	1021	0	0	0	
10	0	0	0	0	487	386	1021	0	0	0	
11	0	0	0	0	499	393	1021	0	0	0	
12	0	0	0	0	512	402	1021	0	0	0	
13	0	0	0	0	524	411	1021	0	0	0	
14	0	0	0	0	537	419	1021	0	0	0	
15	0	0	0	0	548	427	1021	0	0	0	
0	0	0	0	0	558	435	1021	0	0	0	
1	0	0	0	0	566	441	1021	0	0	0	
2	0	0	0	0	572	447	1021	0	0	0	
3	0	0	0	0	575	451	1021	0	0	0	
4	0	0	0	0	576	454	1021	0	0	0	
5	0	0	0	0	575	455	1021	0	0	0	
6	0	0	0	0	571	454	1020	0	0	0	
7	0	0	0	0	564	451	1021	0	0	0	
8	0	0	0	0	558	448	1021	0	0	0	
9	0	0	0	0	550	444	1021	0	0	0	
10	0	0	0	0	542	440	1021	0	0	0	
11	0	0	0	0	535	435	1021	0	0	0	
12	0	0	0	0	529	431	1021	0	0	0	
13	0	0	0	0	524	427	1021	0	0	0	
14	0	0	0	0	520	423	1021	0	0	0	
15	0	0	0	0	518	420	1021	0	0	0	
0	0	0	0	0	517	417	1021	0	0	0	
1	0	0	0	0	517	415	1021	0	0	0	
2	0	0	0	0	518	412	1021	0	0	0	
3	0	0	0	0	520	412	1021	0	0	0	
4	0	0	0	0	524	412	1021	0	0	0	
5	0	0	0	0	528	413	1020	0	0	0	
6	0	0	0	0	533	416	1021	0	0	0	
7	0	0	0	0	539	420	1021	0	0	0	
8	0	0	0	0	544	425	1021	0	0	0	
9	0	0	0	0	550	431	1021	0	0	0	
10	0	0	0	0	554	436	1021	0	0	0	
11	0	0	0	0	557	441	1021	0	0	0	
12	0	0	0	0	561	446	1021	0	0	0	
13	0	0	0	0	563	450	1021	0	0	0	
14	0	0	0	0	563	453	1021	0	0	0	
15	0	0	0	0	563	455	1020	0	0	0	
0	0	0	0	0	563	455	1021	0	0	0	
1	0	0	0	0	562	455	1021	0	0	0	
2	0	0	0	0	561	455	1021	0	0	0	
3	0	0	0	0	561	455	1021	0	0	0	
4	0	0	0	0	562	455	1021	0	0	0	
5	0	0	0	0	563	456	1021	0	0	0	
6	0	0	0	0	565	457	1021	0	0	0	
7	0	0	0	0	568	458	1021	0	0	0	
8	0	0	0	0	570	459	1021	0	0	0	
9	0	0	0	0	571	460	1021	0	0	0	
10	0	0	0	0	572	460	1021	0	0	0	
11	0	0	0	0	572	460	1021	0	0	0	
12	0	0	0	0	571	459	1021	0	0	0	
13	0	0	0	0	569	459	1021	0	0	0	
14	0	0	0	0	567	458	1021	0	0	0	
15	0	0	0	0	564	457	1021	0	0	0	
0	0	0	0	0	562	456	1021	0	0	0	
1	0	0	0	0	559	455	1021	0	0	0	
2	0	0	0	0	556	454	1021	0	0	0	
3	0	0	0	0	552	451	1021	0	0	0	
4	0	0	0	0	547	447	1021	0	0	0	
5	0	0	0	0	543	442	1021	0	0	0	
6	0	0	0	0	538	437	1021	0	0	0	
7	0	0	0	0	534	431	1021	0	0	0	
8	0	0	0	0	530	425	1021	0	0	0	
9	0	0	0	0	527	420	1021	0	0	0	
10	0	0	0	0	527	418	1021	0	0	0	
11	0	0	0	0	527	417	1021	0	0	0	
12	0	0	0	0	530	417	1021	0	0	0	
13	0	0	0	0	534	420	1021	0	0	0	
14	0	0	0	0	539	424	1021	0	0	0	
15	0	0	0	0	545	430	1021	0	0	0	
0	0	0	0	0	553	438	1021	0	0	0	
1	0	0	0	0	563	448	1021	0	0	0	
2	0	0	0	0	574	459	1020	0	0	0	
3	0	0	0	0	584	470	1021	0	0	0	
4	0	0	0	0	595	480	1021	0	0	0	
5	0	0	0	0	603	489	1021	0	0	0	
6	0	0	0	0	609	496	1021	0	0	0	
7	0	0	0	0	611	499	1021	0	0	0	
8	0	0	0	0	609	499	1021	0	0	0	
9	0	0	0	0	603	494	1021	0	0	0	
10	0	0	0	0	593	487	1021	0	0	0	
11	0	0	0	0	581	476	1021	0	0	0	
12	0	0	0	0	566	464	1021	0	0	0	
13	0	0	0	0	551	451	1021	0	0	0	
14	0	0	0	0	535	438	1021	0	0	0	
15	0	0	0	0	521	426	1021	0	0	0	
0	0	0	0	0	508	415	1021	0	0	0	
1	0	0	0	0	499	406	1021	0	0	0	
2	0	0	0	0	493	400	1021	0	0	0	
3	0	0	0	0	490	396	1021	0	0	0	
4	0	0	0	0	490	394	1021	0	0	0	
5	0	0	0	0	492	395	1021	0	0	0	
6	0	0	0	0	497	398	1020	0	0	0	
7	0	0	0	0	504	402	1021	0	0	0	
8	0	0	0	0	511	407	1021	0	0	0	
9	0	0	0	0	519	413	1021	0	0	0	
10	0	0	0	0	527	419	1021	0	0	0	
11	0	0	0	0	534	423	1021	0	0	0	
12	0	0	0	0	539	427	1021	0	0	0	
13	0	0	0	0	543	429	1021	0	0	0	
14	0	0	0	0	545	431	1021	0	0	0	
15	0	0	0	0	546	431	1021	0	0	0	
0	0	0	0	0	546	431	1021	0	0	0	
1	0	0	0	0	544	430	1021	0	0	0	
2	0	0	0	0	543	428	1021	0	0	0	
3	0	0	0	0	541	427	1021	0	0	0	
4	0	0	0	0	537	425	1021	0	0	0	
5	0	0	0	0	534	424	1021	0	0	0	
6	0	0	0	0	531	422	1021	0	0	0	
7	0	0	0	0	527	422	1021	0	0	0	
8	0	0	0	0	526	422	1021	0	0	0	
9	0	0	0	0	524	423	1021	0	0	0	
10	0	0	0	0	525	425	1021	0	0	0	
11	0	0	0	0	527	428	1021	0	0	0	
12	0	0	0	0	530	431	1021	0	0	0	
13	0	0	0	0	533	433	1021	0	0	0	
14	0	0	0	0	536	435	1021	0	0	0	
15	0	0	0	0	537	437	1021	0	0	0	
0	0	0	0	0	538	437	1020	0	0	0	
1	0	0	0	0	537	435	1021	0	0	0	
2	0	0	0	0	536	433	1021	0	0	0	
3	0	0	0	0	533	430	1021	0	0	0	
4	0	0	0	0	529	426	1021	0	0	0	
5	0	0	0	0	526	422	1021	0	0	0	
6	0	0	0	0	522	418	1021	0	0	0	
7	0	0	0	0	519	415	1021	0	0	0	
8	0	0	0	0	517	413	1021	0	0	0	
9	0	0	0	0	517	412	1021	0	0	0	
10	0	0	0	0	519	414	1021	0	0	0	
11	0	0	0	0	525	418	1021	0	0	0	
12	0	0	0	0	533	426	1021	0	0	0	
13	0	0	0	0	543	435	1021	0	0	0	
14	0	0	0	0	556	447	1021	0	0	0	
15	0	0	0	0	571	460	1021	0	0	0	
0	0	0	0	0	585	472	1021	0	0	0	
1	0	0	0	0	598	484	1021	0	0	0	
2	0	0	0	0	607	493	1021	0	0	0	
3	0	0	0	0	612	498	1020	0	0	0	
4	0	0	0	0	613	499	1021	0	0	0	
5	0	0	0	0	609	495	1021	0	0	0	
6	0	0	0	0	600	487	1021	0	0	0	
7	0	0	0	0	588	476	1021	0	0	0	
8	0	0	0	0	571	462	1021	0	0	0	
9	0	0	0	0	553	446	1021	0	0	0	
10	0	0	0	0	534	430	1021	0	0	0	
11	0	0	0	0	517	415	1021	0	0	0	
12	0	0	0	0	502	402	1021	0	0	0	
13	0	0	0	0	491	393	1021	0	0	0	
14	0	0	0	0	485	387	1021	0	0	0	
15	0	0	0	0	484	385	1021	0	0	0	
0	0	0	0	0	487	388	1021	0	0	0	
1	0	0	0	0	495	393	1021	0	0	0	
2	0	0	0	0	506	402	1021	0	0	0	
3	0	0	0	0	518	412	1021	0	0	0	
4	0	0	0	0	531	423	1021	0	0	0	
5	0	0	0	0	545	434	1021	0	0	0	
6	0	0	0	0	558	445	1021	0	0	0	
7	0	0	0	0	568	454	1021	0	0	0	
8	0	0	0	0	576	461	1021	0	0	0	
9	0	0	0	0	581	466	1021	0	0	0	
10	0	0	0	0	583	469	1021	0	0	0	
11	0	0	0	0	582	469	1021	0	0	0	
12	0	0	0	0	577	468	1021	0	0	0	
13	0	0	0	0	572	465	1021	0	0	0	
14	0	0	0	0	565	460	1021	0	0	0	
15	0	0	0	0	556	455	1021	0	0	0	
0	0	0	0	0	547	449	1021	0	0	0	
1	0	0	0	0	537	442	1021	0	0	0	
2	0	0	0	0	528	436	1021	0	0	0	
3	0	0	0	0	521	431	1021	0	0	0	
4	0	0	0	0	517	428	1021	0	0	0	
5	0	0	0	0	514	426	1021	0	0	0	
6	0	0	0	0	513	425	1021	0	0	0	
7	0	0	0	0	514	425	1021	0	0	0	
8	0	0	0	0	516	425	1021	0	0	0	
9	0	0	0	0	519	426	1021	0	0	0	
10	0	0	0	0	523	426	1021	0	0	0	
11	0	0	0	0	527	427	1021	0	0	0	
12	0	0	0	0	531	428	1021	0	0	0	
13	0	0	0	0	534	428	1021	0	0	0	
14	0	0	0	0	536	429	1021	0	0	0	
15	0	0	0	0	537	429	1021	0	0	0	
0	0	0	0	0	538	429	1021	0	0	0	
1	0	0	0	0	537	428	1021	0	0	0	
2	0	0	0	0	536	428	1021	0	0	0	
3	0	0	0	0	533	427	1021	0	0	0	
4	0	0	0	0	530	426	1021	0	0	0	
5	0	0	0	0	527	424	1020	0	0	0	
6	0	0	0	0	523	423	1021	0	0	0	
7	0	0	0	0	519	421	1021	0	0	0	
8	0	0	0	0	517	420	1021	0	0	0	
9	0	0	0	0	515	419	1021	0	0	0	
10	0	0	0	0	513	419	1021	0	0	0	
11	0	0	0	0	512	419	1021	0	0	0	
12	0	0	0	0	512	419	1021	0	0	0	
13	0	0	0	0	513	420	1021	0	0	0	
14	0	0	0	0	515	420	1021	0	0	0	
15	0	0	0	0	516	421	1021	0	0	0	
0	0	0	0	0	519	422	1021	0	0	0	
1	0	0	0	0	521	423	1021	0	0	0	
2	0	0	0	0	524	423	1021	0	0	0	
3	0	0	0	0	526	424	1021	0	0	0	
4	0	0	0	0	527	424	1021	0	0	0	
5	0	0	0	0	529	425	1021	0	0	0	
6	0	0	0	0	531	426	1021	0	0	0	
7	0	0	0	0	533	428	1021	0	0	0	
8	0	0	0	0	535	430	1021	0	0	0	
9	0	0	0	0	538	432	1021	0	0	0	
10	0	0	0	0	541	436	1021	0	0	0	
11	0	0	0	0	544	439	1021	0	0	0	
12	0	0	0	0	547	443	1021	0	0	0	
13	0	0	0	0	550	447	1021	0	0	0	
14	0	0	0	0	553	451	1021	0	0	0	
15	0	0	0	0	556	454	1021	0	0	0	
0	0	0	0	0	559	456	1021	0	0	0	
1	0	0	0	0	561	459	1021	0	0	0	
2	0	0	0	0	563	460	1021	0	0	0	
3	0	0	0	0	564	461	1021	0	0	0	
4	0	0	0	0	566	460	1021	0	0	0	
5	0	0	0	0	566	460	1021	0	0	0	
6	0	0	0	0	567	460	1021	0	0	0	
7	0	0	0	0	568	460	1021	0	0	0	
8	0	0	0	0	568	460	1021	0	0	0	
9	0	0	0	0	570	460	1021	0	0	0	
10	0	0	0	0	571	461	1021	0	0	0	
11	0	0	0	0	572	462	1021	0	0	0	
12	0	0	0	0	572	463	1021	0	0	0	
13	0	0	0	0	572	463	1021	0	0	0	
14	0	0	0	0	571	463	1021	0	0	0	
15	0	0	0	0	569	462	1021	0	0	0	
0	0	0	0	0	567	462	1021	0	0	0	
1	0	0	0	0	565	461	1021	0	0	0	
2	0	0	0	0	563	461	1021	0	0	0	
3	0	0	0	0	563	462	1021	0	0	0	
4	0	0	0	0	565	464	1021	0	0	0	
5	0	0	0	0	567	468	1021	0	0	0	
6	0	0	0	0	571	473	1021	0	0	0	
7	0	0	0	0	575	478	1021	0	0	0	
8	0	0	0	0	580	483	1021	0	0	0	
9	0	0	0	0	583	487	1021	0	0	0	
10	0	0	0	0	585	489	1021	0	0	0	
11	0	0	0	0	585	489	1021	0	0	0	
12	0	0	0	0	582	487	1021	0	0	0	
13	0	0	0	0	578	483	1021	0	0	0	
14	0	0	0	0	572	476	1021	0	0	0	
15	0	0	0	0	564	469	1021	0	0	0	
0	0	0	0	0	555	460	1021	0	0	0	
1	0	0	0	0	545	450	1021	0	0	0	
2	0	0	0	0	536	441	1021	0	0	0	
3	0	0	0	0	527	432	1021	0	0	0	
4	0	0	0	0	519	425	1021	0	0	0	
5	0	0	0	0	513	420	1021	0	0	0	
6	0	0	0	0	510	417	1020	0	0	0	
7	0	0	0	0	508	415	1021	0	0	0	
8	0	0	0	0	508	415	1021	0	0	0	
9	0	0	0	0	510	417	1021	0	0	0	
10	0	0	0	0	512	418	1021	0	0	0	
11	0	0	0	0	515	420	1021	0	0	0	
12	0	0	0	0	518	422	1021	0	0	0	
13	0	0	0	0	521	423	1021	0	0	0	
14	0	0	0	0	524	425	1021	0	0	0	
15	0	0	0	0	526	426	1021	0	0	0	
0	0	0	0	0	530	428	1021	0	0	0	
1	0	0	0	0	532	431	1021	0	0	0	
2	0	0	0	0	536	433	1021	0	0	0	
3	0	0	0	0	540	437	1021	0	0	0	
4	0	0	0	0	543	440	1021	0	0	0	
5	0	0	0	0	546	443	1021	0	0	0	
6	0	0	0	0	548	447	1021	0	0	0	
7	0	0	0	0	551	449	1021	0	0	0	
8	0	0	0	0	551	451	1021	0	0	0	
9	0	0	0	0	550	451	1021	0	0	0	
10	0	0	0	0	548	449	1020	0	0	0	
11	0	0	0	0	544	446	1021	0	0	0	
12	0	0	0	0	540	443	1021	0	0	0	
13	0	0	0	0	534	438	1021	0	0	0	
14	0	0	0	0	529	433	1021	0	0	0	
15	0	0	0	0	524	428	1020	0	0	0	
0	0	0	0	0	519	422	1021	0	0	0	
1	0	0	0	0	515	416	1021	0	0	0	
2	0	0	0	0	512	412	1021	0	0	0	
3	0	0	0	0	510	407	1021	0	0	0	
4	0	0	0	0	509	404	1021	0	0	0	
5	0	0	0	0	510	403	1021	0	0	0	
6	0	0	0	0	513	403	1021	0	0	0	
7	0	0	0	0	517	405	1021	0	0	0	
8	0	0	0	0	522	409	1021	0	0	0	
9	0	0	0	0	528	414	1021	0	0	0	
10	0	0	0	0	533	420	1021	0	0	0	
11	0	0	0	0	538	425	1021	0	0	0	
12	0	0	0	0	543	432	1021	0	0	0	
13	0	0	0	0	546	437	1021	0	0	0	
14	0	0	0	0	548	442	1020	0	0	0	
15	0	0	0	0	551	446	1021	0	0	0	
0	0	0	0	0	551	451	1021	0	0	0	
1	0	0	0	0	552	454	1021	0	0	0	
2	0	0	0	0	554	458	1021	0	0	0	
3	0	0	0	0	555	461	1021	0	0	0	
4	0	0	0	0	556	464	1021	0	0	0	
5	0	0	0	0	558	467	1021	0	0	0	
6	0	0	0	0	560	469	1021	0	0	0	
7	0	0	0	0	561	469	1021	0	0	0	
8	0	0	0	0	562	468	1021	0	0	0	
9	0	0	0	0	561	466	1021	0	0	0	
10	0	0	0	0	560	462	1021	0	0	0	
11	0	0	0	0	558	457	1021	0	0	0	
12	0	0	0	0	554	452	1021	0	0	0	
13	0	0	0	0	550	446	1021	0	0	0	
14	0	0	0	0	546	441	1021	0	0	0	
15	0	0	0	0	542	437	1021	0	0	0	
0	0	0	0	0	538	433	1021	0	0	0	
1	0	0	0	0	535	431	1021	0	0	0	
2	0	0	0	0	532	431	1021	0	0	0	
3	0	0	0	0	531	431	1021	0	0	0	
4	0	0	0	0	531	432	1021	0	0	0	
5	0	0	0	0	530	432	1021	0	0	0	
6	0	0	0	0	530	433	1021	0	0	0	
7	0	0	0	0	529	433	1021	0	0	0	
8	0	0	0	0	528	432	1021	0	0	0	
9	0	0	0	0	526	431	1021	0	0	0	
10	0	0	0	0	525	430	1021	0	0	0	
11	0	0	0	0	524	428	1021	0	0	0	
12	0	0	0	0	523	426	1021	0	0	0	
13	0	0	0	0	523	425	1021	0	0	0	
14	0	0	0	0	525	426	1021	0	0	0	
15	0	0	0	0	528	428	1021	0	0	0	
0	0	0	0	0	532	431	1021	0	0	0	
1	0	0	0	0	538	436	1021	0	0	0	
2	0	0	0	0	545	441	1021	0	0	0	
3	0	0	0	0	552	448	1021	0	0	0	
4	0	0	0	0	559	455	1021	0	0	0	
5	0	0	0	0	565	460	1021	0	0	0	
6	0	0	0	0	569	465	1021	0	0	0	
7	0	0	0	0	572	468	1021	0	0	0	
8	0	0	0	0	573	471	1021	0	0	0	
9	0	0	0	0	572	471	1021	0	0	0	
10	0	0	0	0	570	470	1021	0	0	0	
11	0	0	0	0	568	468	1021	0	0	0	
12	0	0	0	0	563	464	1021	0	0	0	
13	0	0	0	0	558	459	1021	0	0	0	
14	0	0	0	0	551	453	1021	0	0	0	
15	0	0	0	0	545	446	1021	0	0	0	
0	0	0	0	0	537	438	1021	0	0	0	
1	0	0	0	0	529	430	1021	0	0	0	
2	0	0	0	0	521	422	1021	0	0	0	
3	0	0	0	0	514	414	1021	0	0	0	
4	0	0	0	0	507	407	1021	0	0	0	
5	0	0	0	0	501	400	1021	0	0	0	
6	0	0	0	0	496	396	1021	0	0	0	
7	0	0	0	0	492	391	1021	0	0	0	
8	0	0	0	0	489	388	1021	0	0	0	
9	0	0	0	0	486	385	1021	0	0	0	
10	0	0	0	0	483	383	1020	0	0	0	
11	0	0	0	0	480	380	1021	0	0	0	
12	0	0	0	0	478	377	1021	0	0	0	
13	0	0	0	0	475	375	1021	0	0	0	
14	0	0	0	0	472	371	1021	0	0	0	
15	0	0	0	0	467	366	1021	0	0	0	
0	0	0	0	0	461	360	1021	0	0	0	
1	0	0	0	0	454	352	1021	0	0	0	
2	0	0	0	0	445	343	1021	0	0	0	
3	0	0	0	0	434	332	1021	0	0	0	
4	0	0	0	0	422	319	1021	0	0	0	
5	0	0	0	0	408	305	1020	0	0	0	
6	0	0	0	0	394	290	1021	0	0	0	
7	0	0	0	0	379	275	1021	0	0	0	
8	0	0	0	0	365	260	1021	0	0	0	
9	0	0	0	0	351	246	1021	0	0	0	
10	0	0	0	0	338	233	1021	0	0	0	
11	0	0	0	0	326	220	1021	0	0	0	
12	0	0	0	0	315	209	1021	0	0	0	
13	0	0	0	0	306	199	1021	0	0	0	
14	0	0	0	0	298	191	1021	0	0	0	
15	0	0	0	0	293	185	1020	0	0	0	
0	0	0	0	0	291	182	1021	0	0	0	
1	0	0	0	0	292	183	1021	0	0	0	
2	0	0	0	0	297	187	1021	0	0	0	
3	0	0	0	0	307	195	1020	0	0	0	
4	0	0	0	0	321	208	1021	0	0	0	
5	0	0	0	0	340	225	1021	0	0	0	
6	0	0	0	0	361	244	1021	0	0	0	
7	0	0	0	0	385	266	1021	0	0	0	
8	0	0	0	0	410	288	1021	0	0	0	
9	0	0	0	0	434	311	1021	0	0	0	
10	0	0	0	0	458	333	1021	0	0	0	
11	0	0	0	0	480	355	1021	0	0	0	
12	0	0	0	0	500	374	1021	0	0	0	
13	0	0	0	0	518	392	1021	0	0	0	
14	0	0	0	0	533	409	1021	0	0	0	
15	0	0	0	0	546	423	1021	0	0	0	
0	0	0	0	0	556	436	1021	0	0	0	
1	0	0	0	0	564	447	1021	0	0	0	
2	0	0	0	0	570	455	1021	0	0	0	
3	0	0	0	0	572	461	1021	0	0	0	
4	0	0	0	0	574	464	1021	0	0	0	
5	0	0	0	0	572	465	1021	0	0	0	
6	0	0	0	0	568	464	1021	0	0	0	
7	0	0	0	0	563	461	1021	0	0	0	
8	0	0	0	0	558	456	1021	0	0	0	
9	0	0	0	0	551	451	1021	0	0	0	
10	0	0	0	0	547	446	1021	0	0	0	
11	0	0	0	0	543	442	1021	0	0	0	
12	0	0	0	0	542	440	1021	0	0	0	
13	0	0	0	0	543	440	1021	0	0	0	
14	0	0	0	0	548	441	1021	0	0	0	
15	0	0	0	0	553	444	1021	0	0	0	
0	0	0	0	0	561	449	1021	0	0	0	
1	0	0	0	0	569	455	1020	0	0	0	
2	0	0	0	0	578	460	1021	0	0	0	
3	0	0	0	0	586	466	1021	0	0	0	
4	0	0	0	0	592	472	1021	0	0	0	
5	0	0	0	0	597	475	1021	0	0	0	
6	0	0	0	0	599	477	1021	0	0	0	
7	0	0	0	0	598	478	1021	0	0	0	
8	0	0	0	0	595	477	1021	0	0	0	
9	0	0	0	0	591	475	1021	0	0	0	
10	0	0	0	0	586	473	1021	0	0	0	
11	0	0	0	0	581	471	1021	0	0	0	
12	0	0	0	0	576	469	1021	0	0	0	
13	0	0	0	0	572	467	1021	0	0	0	
14	0	0	0	0	568	464	1021	0	0	0	
15	0	0	0	0	563	460	1021	0	0	0	
0	0	0	0	0	558	456	1021	0	0	0	
1	0	0	0	0	553	452	1021	0	0	0	
2	0	0	0	0	549	448	1021	0	0	0	
3	0	0	0	0	545	443	1021	0	0	0	
4	0	0	0	0	541	439	1021	0	0	0	
5	0	0	0	0	536	433	1020	0	0	0	
6	0	0	0	0	532	428	1021	0	0	0	
7	0	0	0	0	528	423	1021	0	0	0	
8	0	0	0	0	524	417	1021	0	0	0	
9	0	0	0	0	521	412	1021	0	0	0	
10	0	0	0	0	519	409	1020	0	0	0	
11	0	0	0	0	518	406	1021	0	0	0	
12	0	0	0	0	519	404	1021	0	0	0	
13	0	0	0	0	520	404	1021	0	0	0	
14	0	0	0	0	524	404	1021	0	0	0	
15	0	0	0	0	526	405	1021	0	0	0	
0	0	0	0	0	529	407	1021	0	0	0	
1	0	0	0	0	532	408	1021	0	0	0	
2	0	0	0	0	534	409	1021	0	0	0	
3	0	0	0	0	534	409	1021	0	0	0	
4	0	0	0	0	534	410	1021	0	0	0	
5	0	0	0	0	532	409	1021	0	0	0	
6	0	0	0	0	531	410	1021	0	0	0	
7	0	0	0	0	529	411	1021	0	0	0	
8	0	0	0	0	529	412	1021	0	0	0	
9	0	0	0	0	530	415	1021	0	0	0	
10	0	0	0	0	533	420	1021	0	0	0	
11	0	0	0	0	538	427	1021	0	0	0	
12	0	0	0	0	545	435	1021	0	0	0	
13	0	0	0	0	554	444	1021	0	0	0	
14	0	0	0	0	563	453	1021	0	0	0	
15	0	0	0	0	573	461	1021	0	0	0	
0	0	0	0	0	580	468	1021	0	0	0	
1	0	0	0	0	587	473	1021	0	0	0	
2	0	0	0	0	591	475	1021	0	0	0	
3	0	0	0	0	591	475	1021	0	0	0	
4	0	0	0	0	590	471	1021	0	0	0	
5	0	0	0	0	584	465	1021	0	0	0	
6	0	0	0	0	575	456	1021	0	0	0	
7	0	0	0	0	565	446	1021	0	0	0	
8	0	0	0	0	553	435	1021	0	0	0	
9	0	0	0	0	542	424	1021	0	0	0	
10	0	0	0	0	530	414	1021	0	0	0	
11	0	0	0	0	520	406	1021	0	0	0	
12	0	0	0	0	513	399	1021	0	0	0	
13	0	0	0	0	508	395	1021	0	0	0	
14	0	0	0	0	505	393	1021	0	0	0	
15	0	0	0	0	505	393	1021	0	0	0	
0	0	0	0	0	508	395	1021	0	0	0	
1	0	0	0	0	512	399	1021	0	0	0	
2	0	0	0	0	517	403	1021	0	0	0	
3	0	0	0	0	523	408	1021	0	0	0	
4	0	0	0	0	529	413	1021	0	0	0	
5	0	0	0	0	536	419	1021	0	0	0	
6	0	0	0	0	540	423	1021	0	0	0	
7	0	0	0	0	544	426	1021	0	0	0	
8	0	0	0	0	547	428	1021	0	0	0	
9	0	0	0	0	550	430	1021	0	0	0	
10	0	0	0	0	552	431	1021	0	0	0	
11	0	0	0	0	554	432	1021	0	0	0	
12	0	0	0	0	556	433	1021	0	0	0	
13	0	0	0	0	558	434	1021	0	0	0	
14	0	0	0	0	560	434	1021	0	0	0	
15	0	0	0	0	561	435	1021	0	0	0	
0	0	0	0	0	560	433	1021	0	0	0	
1	0	0	0	0	559	432	1021	0	0	0	
2	0	0	0	0	557	430	1021	0	0	0	
3	0	0	0	0	553	428	1021	0	0	0	
4	0	0	0	0	550	425	1021	0	0	0	
5	0	0	0	0	545	423	1021	0	0	0	
6	0	0	0	0	541	420	1021	0	0	0	
7	0	0	0	0	536	417	1021	0	0	0	
8	0	0	0	0	532	415	1021	0	0	0	
9	0	0	0	0	528	413	1021	0	0	0	
10	0	0	0	0	524	410	1021	0	0	0	
11	0	0	0	0	519	408	1020	0	0	0	
12	0	0	0	0	517	405	1021	0	0	0	
13	0	0	0	0	515	403	1021	0	0	0	
14	0	0	0	0	514	401	1021	0	0	0	
15	0	0	0	0	513	401	1021	0	0	0	
0	0	0	0	0	514	400	1021	0	0	0	
1	0	0	0	0	515	400	1020	0	0	0	
2	0	0	0	0	516	400	1021	0	0	0	
3	0	0	0	0	517	399	1021	0	0	0	
4	0	0	0	0	517	398	1021	0	0	0	
5	0	0	0	0	517	396	1021	0	0	0	
6	0	0	0	0	515	394	1021	0	0	0	
7	0	0	0	0	513	391	1021	0	0	0	
8	0	0	0	0	510	389	1021	0	0	0	
9	0	0	0	0	507	387	1021	0	0	0	
10	0	0	0	0	504	384	1021	0	0	0	
11	0	0	0	0	501	382	1020	0	0	0	
12	0	0	0	0	499	380	1021	0	0	0	
13	0	0	0	0	497	378	1021	0	0	0	
14	0	0	0	0	496	377	1021	0	0	0	
15	0	0	0	0	495	376	1021	0	0	0	
0	0	0	0	0	496	375	1021	0	0	0	
1	0	0	0	0	497	375	1021	0	0	0	
2	0	0	0	0	498	376	1021	0	0	0	
3	0	0	0	0	502	378	1021	0	0	0	
4	0	0	0	0	505	380	1021	0	0	0	
5	0	0	0	0	508	382	1021	0	0	0	
6	0	0	0	0	512	385	1021	0	0	0	
7	0	0	0	0	516	389	1021	0	0	0	
8	0	0	0	0	520	393	1021	0	0	0	
9	0	0	0	0	525	398	1021	0	0	0	
10	0	0	0	0	530	403	1021	0	0	0	
11	0	0	0	0	536	410	1021	0	0	0	
12	0	0	0	0	543	419	1021	0	0	0	
13	0	0	0	0	551	428	1021	0	0	0	
14	0	0	0	0	560	438	1020	0	0	0	
15	0	0	0	0	571	449	1021	0	0	0	
0	0	0	0	0	582	461	1021	0	0	0	
1	0	0	0	0	592	472	1021	0	0	0	
2	0	0	0	0	603	481	1021	0	0	0	
3	0	0	0	0	609	488	1021	0	0	0	
4	0	0	0	0	612	492	1021	0	0	0	
5	0	0	0	0	611	490	1021	0	0	0	
6	0	0	0	0	606	485	1021	0	0	0	
7	0	0	0	0	595	476	1021	0	0	0	
8	0	0	0	0	582	463	1021	0	0	0	
9	0	0	0	0	566	449	1021	0	0	0	
10	0	0	0	0	548	433	1021	0	0	0	
11	0	0	0	0	530	417	1021	0	0	0	
12	0	0	0	0	513	401	1021	0	0	0	
13	0	0	0	0	498	388	1021	0	0	0	
14	0	0	0	0	486	377	1021	0	0	0	
15	0	0	0	0	478	369	1021	0	0	0	
0	0	0	0	0	473	365	1021	0	0	0	
1	0	0	0	0	471	363	1021	0	0	0	
2	0	0	0	0	472	363	1021	0	0	0	
3	0	0	0	0	476	366	1021	0	0	0	
4	0	0	0	0	480	369	1021	0	0	0	
5	0	0	0	0	486	373	1021	0	0	0	
6	0	0	0	0	492	378	1021	0	0	0	
7	0	0	0	0	499	382	1021	0	0	0	
8	0	0	0	0	504	386	1021	0	0	0	
9	0	0	0	0	510	389	1021	0	0	0	
10	0	0	0	0	514	392	1021	0	0	0	
11	0	0	0	0	517	394	1021	0	0	0	
12	0	0	0	0	519	395	1021	0	0	0	
13	0	0	0	0	521	395	1021	0	0	0	
14	0	0	0	0	522	396	1021	0	0	0	
15	0	0	0	0	522	395	1021	0	0	0	
0	0	0	0	0	522	395	1021	0	0	0	
1	0	0	0	0	521	396	1021	0	0	0	
2	0	0	0	0	520	396	1021	0	0	0	
3	0	0	0	0	519	397	1021	0	0	0	
4	0	0	0	0	519	398	1021	0	0	0	
5	0	0	0	0	519	400	1021	0	0	0	
6	0	0	0	0	520	403	1021	0	0	0	
7	0	0	0	0	523	407	1021	0	0	0	
8	0	0	0	0	526	411	1021	0	0	0	
9	0	0	0	0	530	415	1021	0	0	0	
10	0	0	0	0	534	419	1021	0	0	0	
11	0	0	0	0	539	422	1021	0	0	0	
12	0	0	0	0	543	424	1021	0	0	0	
13	0	0	0	0	546	426	1021	0	0	0	
14	0	0	0	0	548	427	1021	0	0	0	
15	0	0	0	0	550	426	1021	0	0	0	
0	0	0	0	0	549	425	1021	0	0	0	
1	0	0	0	0	547	422	1021	0	0	0	
2	0	0	0	0	544	419	1021	0	0	0	
3	0	0	0	0	542	417	1021	0	0	0	
4	0	0	0	0	538	415	1021	0	0	0	
5	0	0	0	0	535	413	1021	0	0	0	
6	0	0	0	0	532	412	1021	0	0	0	
7	0	0	0	0	529	411	1021	0	0	0	
8	0	0	0	0	527	411	1021	0	0	0	
9	0	0	0	0	526	410	1021	0	0	0	
10	0	0	0	0	524	410	1021	0	0	0	
11	0	0	0	0	524	410	1021	0	0	0	
12	0	0	0	0	524	410	1021	0	0	0	
13	0	0	0	0	523	409	1021	0	0	0	
14	0	0	0	0	521	407	1021	0	0	0	
15	0	0	0	0	518	404	1021	0	0	0	
0	0	0	0	0	515	401	1021	0	0	0	
1	0	0	0	0	512	397	1021	0	0	0	
2	0	0	0	0	510	394	1021	0	0	0	
3	0	0	0	0	507	391	1021	0	0	0	
4	0	0	0	0	507	390	1021	0	0	0	
5	0	0	0	0	508	390	1021	0	0	0	
6	0	0	0	0	510	392	1021	0	0	0	
7	0	0	0	0	513	395	1021	0	0	0	
8	0	0	0	0	516	397	1021	0	0	0	
9	0	0	0	0	520	401	1021	0	0	0	
10	0	0	0	0	524	405	1021	0	0	0	
11	0	0	0	0	528	409	1021	0	0	0	
12	0	0	0	0	533	414	1021	0	0	0	
13	0	0	0	0	537	418	1021	0	0	0	
14	0	0	0	0	542	423	1021	0	0	0	
15	0	0	0	0	547	428	1021	0	0	0	
0	0	0	0	0	552	433	1021	0	0	0	
1	0	0	0	0	556	437	1021	0	0	0	
2	0	0	0	0	559	440	1021	0	0	0	
3	0	0	0	0	559	440	1021	0	0	0	
4	0	0	0	0	557	439	1021	0	0	0	
5	0	0	0	0	552	434	1021	0	0	0	
6	0	0	0	0	547	430	1021	0	0	0	
7	0	0	0	0	540	423	1021	0	0	0	
8	0	0	0	0	535	418	1021	0	0	0	
9	0	0	0	0	530	414	1021	0	0	0	
10	0	0	0	0	527	412	1021	0	0	0	
11	0	0	0	0	527	411	1021	0	0	0	
12	0	0	0	0	528	412	1021	0	0	0	
13	0	0	0	0	531	415	1021	0	0	0	
14	0	0	0	0	534	418	1021	0	0	0	
15	0	0	0	0	537	421	1021	0	0	0	
0	0	0	0	0	540	423	1021	0	0	0	
1	0	0	0	0	540	424	1021	0	0	0	
2	0	0	0	0	539	423	1020	0	0	0	
3	0	0	0	0	535	420	1020	0	0	0	
4	0	0	0	0	530	416	1021	0	0	0	
5	0	0	0	0	525	412	1021	0	0	0	
6	0	0	0	0	519	408	1021	0	0	0	
7	0	0	0	0	515	404	1020	0	0	0	
8	0	0	0	0	511	401	1021	0	0	0	
9	0	0	0	0	509	399	1021	0	0	0	
10	0	0	0	0	509	398	1021	0	0	0	
11	0	0	0	0	510	399	1021	0	0	0	
12	0	0	0	0	513	400	1021	0	0	0	
13	0	0	0	0	518	403	1021	0	0	0	
14	0	0	0	0	523	408	1021	0	0	0	
15	0	0	0	0	529	412	1021	0	0	0	
0	0	0	0	0	536	418	1021	0	0	0	
1	0	0	0	0	543	423	1021	0	0	0	
2	0	0	0	0	549	429	1021	0	0	0	
3	0	0	0	0	553	432	1021	0	0	0	
4	0	0	0	0	556	435	1021	0	0	0	
5	0	0	0	0	556	436	1021	0	0	0	
6	0	0	0	0	554	434	1021	0	0	0	
7	0	0	0	0	549	431	1021	0	0	0	
8	0	0	0	0	542	425	1021	0	0	0	
9	0	0	0	0	532	417	1021	0	0	0	
10	0	0	0	0	520	408	1021	0	0	0	
11	0	0	0	0	509	398	1021	0	0	0	
12	0	0	0	0	496	388	1021	0	0	0	
13	0	0	0	0	485	377	1021	0	0	0	
14	0	0	0	0	476	369	1021	0	0	0	
15	0	0	0	0	468	362	1021	0	0	0	
0	0	0	0	0	465	359	1021	0	0	0	
1	0	0	0	0	467	358	1021	0	0	0	
2	0	0	0	0	471	360	1021	0	0	0	
3	0	0	0	0	479	366	1021	0	0	0	
4	0	0	0	0	489	372	1021	0	0	0	
5	0	0	0	0	501	381	1020	0	0	0	
6	0	0	0	0	513	390	1021	0	0	0	
7	0	0	0	0	524	399	1021	0	0	0	
8	0	0	0	0	533	406	1021	0	0	0	
9	0	0	0	0	540	413	1021	0	0	0	
10	0	0	0	0	544	417	1021	0	0	0	
11	0	0	0	0	546	421	1021	0	0	0	
12	0	0	0	0	546	423	1021	0	0	0	
13	0	0	0	0	544	423	1021	0	0	0	
14	0	0	0	0	541	423	1021	0	0	0	
15	0	0	0	0	538	423	1020	0	0	0	
0	0	0	0	0	535	423	1021	0	0	0	
1	0	0	0	0	532	423	1021	0	0	0	
2	0	0	0	0	530	422	1021	0	0	0	
3	0	0	0	0	529	422	1021	0	0	0	
4	0	0	0	0	530	423	1021	0	0	0	
5	0	0	0	0	531	423	1021	0	0	0	
6	0	0	0	0	533	424	1021	0	0	0	
7	0	0	0	0	535	424	1021	0	0	0	
8	0	0	0	0	536	424	1021	0	0	0	
9	0	0	0	0	537	423	1020	0	0	0	
10	0	0	0	0	537	422	1021	0	0	0	
11	0	0	0	0	537	420	1021	0	0	0	
12	0	0	0	0	537	420	1021	0	0	0	
13	0	0	0	0	536	420	1021	0	0	0	
14	0	0	0	0	537	421	1020	0	0	0	
15	0	0	0	0	538	423	1020	0	0	0	
0	0	0	0	0	541	426	1021	0	0	0	
1	0	0	0	0	543	429	1021	0	0	0	
2	0	0	0	0	546	432	1021	0	0	0	
3	0	0	0	0	548	435	1021	0	0	0	
4	0	0	0	0	551	437	1021	0	0	0	
5	0	0	0	0	551	437	1021	0	0	0	
6	0	0	0	0	551	436	1021	0	0	0	
7	0	0	0	0	549	435	1021	0	0	0	
8	0	0	0	0	547	433	1021	0	0	0	
9	0	0	0	0	545	431	1020	0	0	0	
10	0	0	0	0	543	428	1021	0	0	0	
11	0	0	0	0	541	425	1021	0	0	0	
12	0	0	0	0	538	422	1021	0	0	0	
13	0	0	0	0	534	419	1020	0	0	0	
14	0	0	0	0	530	415	1021	0	0	0	
15	0	0	0	0	525	412	1021	0	0	0	
0	0	0	0	0	520	409	1021	0	0	0	
1	0	0	0	0	516	406	1021	0	0	0	
2	0	0	0	0	512	404	1021	0	0	0	
3	0	0	0	0	509	403	1020	0	0	0	
4	0	0	0	0	507	402	1021	0	0	0	
5	0	0	0	0	507	402	1021	0	0	0	
6	0	0	0	0	507	403	1021	0	0	0	
7	0	0	0	0	508	403	1021	0	0	0	
8	0	0	0	0	509	403	1021	0	0	0	
9	0	0	0	0	510	402	1021	0	0	0	
10	0	0	0	0	510	400	1021	0	0	0	
11	0	0	0	0	510	399	1021	0	0	0	
12	0	0	0	0	509	397	1021	0	0	0	
13	0	0	0	0	508	395	1021	0	0	0	
14	0	0	0	0	506	393	1021	0	0	0	
15	0	0	0	0	504	391	1021	0	0	0	
0	0	0	0	0	503	388	1021	0	0	0	
1	0	0	0	0	500	387	1020	0	0	0	
2	0	0	0	0	499	386	1020	0	0	0	
3	0	0	0	0	499	386	1021	0	0	0	
4	0	0	0	0	499	387	1021	0	0	0	
5	0	0	0	0	501	390	1021	0	0	0	
6	0	0	0	0	504	393	1021	0	0	0	
7	0	0	0	0	509	399	1020	0	0	0	
8	0	0	0	0	515	406	1021	0	0	0	
9	0	0	0	0	524	413	1021	0	0	0	
10	0	0	0	0	532	422	1021	0	0	0	
11	0	0	0	0	540	429	1021	0	0	0	
12	0	0	0	0	547	435	1021	0	0	0	
13	0	0	0	0	553	440	1021	0	0	0	
14	0	0	0	0	556	443	1021	0	0	0	
15	0	0	0	0	557	444	1021	0	0	0	
0	0	0	0	0	556	442	1021	0	0	0	
1	0	0	0	0	551	438	1021	0	0	0	
2	0	0	0	0	545	432	1021	0	0	0	
3	0	0	0	0	537	425	1021	0	0	0	
4	0	0	0	0	527	416	1021	0	0	0	
5	0	0	0	0	518	408	1021	0	0	0	
6	0	0	0	0	508	400	1020	0	0	0	
7	0	0	0	0	500	394	1021	0	0	0	
8	0	0	0	0	494	390	1021	0	0	0	
9	0	0	0	0	489	387	1021	0	0	0	
10	0	0	0	0	487	387	1020	0	0	0	
11	0	0	0	0	489	389	1021	0	0	0	
12	0	0	0	0	493	392	1021	0	0	0	
13	0	0	0	0	498	397	1021	0	0	0	
14	0	0	0	0	505	402	1021	0	0	0	
15	0	0	0	0	512	408	1021	0	0	0	
0	0	0	0	0	520	414	1021	0	0	0	
1	0	0	0	0	529	419	1021	0	0	0	
2	0	0	0	0	537	425	1021	0	0	0	
3	0	0	0	0	544	430	1021	0	0	0	
4	0	0	0	0	549	433	1021	0	0	0	
5	0	0	0	0	551	435	1020	0	0	0	
6	0	0	0	0	552	434	1021	0	0	0	
7	0	0	0	0	550	432	1021	0	0	0	
8	0	0	0	0	545	428	1021	0	0	0	
9	0	0	0	0	539	423	1021	0	0	0	
10	0	0	0	0	532	418	1021	0	0	0	
11	0	0	0	0	526	414	1021	0	0	0	
12	0	0	0	0	521	411	1021	0	0	0	
13	0	0	0	0	517	410	1021	0	0	0	
14	0	0	0	0	515	410	1021	0	0	0	
15	0	0	0	0	514	411	1021	0	0	0	
0	0	0	0	0	515	414	1021	0	0	0	
1	0	0	0	0	518	417	1021	0	0	0	
2	0	0	0	0	521	420	1021	0	0	0	
3	0	0	0	0	525	424	1020	0	0	0	
4	0	0	0	0	529	427	1021	0	0	0	
5	0	0	0	0	532	428	1021	0	0	0	
6	0	0	0	0	534	428	1021	0	0	0	
7	0	0	0	0	535	428	1021	0	0	0	
8	0	0	0	0	534	426	1021	0	0	0	
9	0	0	0	0	532	424	1021	0	0	0	
10	0	0	0	0	529	420	1021	0	0	0	
11	0	0	0	0	525	416	1021	0	0	0	
12	0	0	0	0	520	412	1021	0	0	0	
13	0	0	0	0	515	408	1021	0	0	0	
14	0	0	0	0	511	405	1021	0	0	0	
15	0	0	0	0	508	403	1021	0	0	0	
0	0	0	0	0	506	403	1021	0	0	0	
1	0	0	0	0	507	406	1021	0	0	0	
2	0	0	0	0	511	411	1021	0	0	0	
3	0	0	0	0	517	418	1021	0	0	0	
4	0	0	0	0	527	428	1021	0	0	0	
5	0	0	0	0	539	440	1021	0	0	0	
6	0	0	0	0	553	452	1021	0	0	0	
7	0	0	0	0	567	465	1020	0	0	0	
8	0	0	0	0	580	475	1021	0	0	0	
9	0	0	0	0	588	481	1021	0	0	0	
10	0	0	0	0	591	482	1021	0	0	0	
11	0	0	0	0	588	478	1021	0	0	0	
12	0	0	0	0	578	468	1021	0	0	0	
13	0	0	0	0	563	455	1021	0	0	0	
14	0	0	0	0	544	438	1021	0	0	0	
15	0	0	0	0	523	419	1021	0	0	0	
0	0	0	0	0	500	401	1021	0	0	0	
1	0	0	0	0	479	384	1021	0	0	0	
2	0	0	0	0	460	369	1021	0	0	0	
3	0	0	0	0	447	358	1021	0	0	0	
4	0	0	0	0	438	352	1021	0	0	0	
5	0	0	0	0	433	350	1021	0	0	0	
6	0	0	0	0	435	352	1020	0	0	0	
7	0	0	0	0	440	356	1021	0	0	0	
8	0	0	0	0	449	363	1021	0	0	0	
9	0	0	0	0	461	371	1021	0	0	0	
10	0	0	0	0	474	380	1021	0	0	0	
11	0	0	0	0	487	388	1021	0	0	0	
12	0	0	0	0	499	395	1020	0	0	0	
13	0	0	0	0	510	401	1021	0	0	0	
14	0	0	0	0	518	404	1021	0	0	0	
15	0	0	0	0	524	406	1021	0	0	0	
0	0	0	0	0	526	406	1021	0	0	0	
1	0	0	0	0	526	405	1021	0	0	0	
2	0	0	0	0	525	403	1021	0	0	0	
3	0	0	0	0	522	402	1021	0	0	0	
4	0	0	0	0	519	401	1021	0	0	0	
5	0	0	0	0	516	401	1020	0	0	0	
6	0	0	0	0	514	403	1020	0	0	0	
7	0	0	0	0	514	405	1021	0	0	0	
8	0	0	0	0	514	409	1021	0	0	0	
9	0	0	0	0	515	414	1021	0	0	0	
10	0	0	0	0	517	419	1021	0	0	0	
11	0	0	0	0	520	425	1021	0	0	0	
12	0	0	0	0	524	430	1021	0	0	0	
13	0	0	0	0	527	434	1021	0	0	0	
14	0	0	0	0	530	436	1021	0	0	0	
15	0	0	0	0	530	436	1020	0	0	0	
0	0	0	0	0	529	434	1021	0	0	0	
1	0	0	0	0	526	429	1021	0	0	0	
2	0	0	0	0	521	423	1021	0	0	0	
3	0	0	0	0	515	416	1021	0	0	0	
4	0	0	0	0	509	409	1021	0	0	0	
5	0	0	0	0	503	402	1021	0	0	0	
6	0	0	0	0	498	396	1021	0	0	0	
7	0	0	0	0	495	393	1021	0	0	0	
8	0	0	0	0	493	391	1021	0	0	0	
9	0	0	0	0	493	391	1021	0	0	0	
10	0	0	0	0	494	392	1021	0	0	0	
11	0	0	0	0	497	396	1021	0	0	0	
12	0	0	0	0	500	399	1021	0	0	0	
13	0	0	0	0	504	404	1021	0	0	0	
14	0	0	0	0	507	409	1021	0	0	0	
15	0	0	0	0	511	414	1021	0	0	0	
0	0	0	0	0	515	419	1021	0	0	0	
1	0	0	0	0	519	424	1021	0	0	0	
2	0	0	0	0	522	427	1021	0	0	0	
3	0	0	0	0	523	428	1020	0	0	0	
4	0	0	0	0	522	428	1021	0	0	0	
5	0	0	0	0	519	424	1021	0	0	0	
6	0	0	0	0	513	419	1021	0	0	0	
7	0	0	0	0	509	414	1021	0	0	0	
8	0	0	0	0	503	408	1021	0	0	0	
9	0	0	0	0	498	402	1021	0	0	0	
10	0	0	0	0	495	398	1021	0	0	0	
11	0	0	0	0	492	395	1021	0	0	0	
12	0	0	0	0	492	393	1021	0	0	0	
13	0	0	0	0	493	393	1020	0	0	0	
14	0	0	0	0	495	396	1021	0	0	0	
15	0	0	0	0	500	400	1021	0	0	0	
0	0	0	0	0	506	405	1021	0	0	0	
1	0	0	0	0	512	411	1021	0	0	0	
2	0	0	0	0	518	415	1021	0	0	0	
3	0	0	0	0	521	419	1021	0	0	0	
4	0	0	0	0	525	422	1021	0	0	0	
5	0	0	0	0	526	423	1021	0	0	0	
6	0	0	0	0	524	422	1021	0	0	0	
7	0	0	0	0	521	419	1021	0	0	0	
8	0	0	0	0	516	414	1021	0	0	0	
9	0	0	0	0	510	409	1021	0	0	0	
10	0	0	0	0	504	403	1021	0	0	0	
11	0	0	0	0	497	398	1021	0	0	0	
12	0	0	0	0	491	392	1021	0	0	0	
13	0	0	0	0	486	388	1021	0	0	0	
14	0	0	0	0	483	384	1021	0	0	0	
15	0	0	0	0	480	382	1021	0	0	0	
0	0	0	0	0	479	382	1021	0	0	0	
1	0	0	0	0	480	383	1021	0	0	0	
2	0	0	0	0	481	385	1021	0	0	0	
3	0	0	0	0	485	389	1021	0	0	0	
4	0	0	0	0	490	394	1021	0	0	0	
5	0	0	0	0	496	400	1021	0	0	0	
6	0	0	0	0	503	407	1020	0	0	0	
7	0	0	0	0	510	413	1021	0	0	0	
8	0	0	0	0	515	419	1021	0	0	0	
9	0	0	0	0	520	423	1021	0	0	0	
10	0	0	0	0	525	427	1021	0	0	0	
11	0	0	0	0	527	430	1021	0	0	0	
12	0	0	0	0	529	431	1021	0	0	0	
13	0	0	0	0	531	432	1021	0	0	0	
14	0	0	0	0	533	433	1021	0	0	0	
15	0	0	0	0	536	434	1021	0	0	0	
0	0	0	0	0	539	437	1021	0	0	0	
1	0	0	0	0	543	440	1021	0	0	0	
2	0	0	0	0	550	445	1021	0	0	0	
3	0	0	0	0	557	451	1021	0	0	0	
4	0	0	0	0	564	456	1021	0	0	0	
5	0	0	0	0	571	463	1021	0	0	0	
6	0	0	0	0	577	468	1021	0	0	0	
7	0	0	0	0	582	472	1021	0	0	0	
8	0	0	0	0	584	473	1021	0	0	0	
9	0	0	0	0	583	472	1021	0	0	0	
10	0	0	0	0	577	467	1020	0	0	0	
11	0	0	0	0	569	461	1021	0	0	0	
12	0	0	0	0	559	453	1021	0	0	0	
13	0	0	0	0	547	444	1021	0	0	0	
14	0	0	0	0	535	435	1021	0	0	0	
15	0	0	0	0	523	426	1021	0	0	0	
0	0	0	0	0	511	418	1021	0	0	0	
1	0	0	0	0	502	411	1021	0	0	0	
2	0	0	0	0	495	406	1021	0	0	0	
3	0	0	0	0	491	403	1021	0	0	0	
4	0	0	0	0	489	402	1021	0	0	0	
5	0	0	0	0	491	403	1020	0	0	0	
6	0	0	0	0	494	404	1021	0	0	0	
7	0	0	0	0	499	407	1021	0	0	0	
8	0	0	0	0	503	409	1021	0	0	0	
9	0	0	0	0	507	411	1021	0	0	0	
10	0	0	0	0	511	412	1021	0	0	0	
11	0	0	0	0	512	412	1021	0	0	0	
12	0	0	0	0	514	412	1021	0	0	0	
13	0	0	0	0	514	411	1021	0	0	0	
14	0	0	0	0	512	408	1021	0	0	0	
15	0	0	0	0	510	405	1021	0	0	0	
0	0	0	0	0	506	400	1021	0	0	0	
1	0	0	0	0	501	396	1021	0	0	0	
2	0	0	0	0	496	391	1021	0	0	0	
3	0	0	0	0	490	385	1021	0	0	0	
4	0	0	0	0	485	381	1021	0	0	0	
5	0	0	0	0	480	377	1021	0	0	0	
6	0	0	0	0	477	374	1021	0	0	0	
7	0	0	0	0	475	372	1021	0	0	0	
8	0	0	0	0	473	371	1021	0	0	0	
9	0	0	0	0	473	370	1021	0	0	0	
10	0	0	0	0	473	370	1021	0	0	0	
11	0	0	0	0	473	370	1021	0	0	0	
12	0	0	0	0	473	370	1021	0	0	0	
13	0	0	0	0	472	370	1021	0	0	0	
14	0	0	0	0	472	369	1021	0	0	0	
15	0	0	0	0	472	368	1021	0	0	0	
0	0	0	0	0	471	368	1021	0	0	0	
1	0	0	0	0	469	366	1021	0	0	0	
2	0	0	0	0	467	364	1021	0	0	0	
3	0	0	0	0	463	361	1021	0	0	0	
4	0	0	0	0	459	357	1021	0	0	0	
5	0	0	0	0	451	350	1021	0	0	0	
6	0	0	0	0	441	340	1021	0	0	0	
7	0	0	0	0	427	327	1021	0	0	0	
8	0	0	0	0	409	309	1021	0	0	0	
9	0	0	0	0	388	289	1021	0	0	0	
10	0	0	0	0	365	266	1021	0	0	0	
11	0	0	0	0	339	242	1021	0	0	0	
12	0	0	0	0	313	217	1021	0	0	0	
13	0	0	0	0	288	192	1021	0	0	0	
14	0	0	0	0	265	169	1021	0	0	0	
15	0	0	0	0	244	150	1021	0	0	0	
0	0	0	0	0	228	133	1021	0	0	0	
1	0	0	0	0	217	120	1021	0	0	0	
2	0	0	0	0	211	113	1021	0	0	0	
3	0	0	0	0	212	110	1021	0	0	0	
4	0	0	0	0	219	114	1021	0	0	0	
5	0	0	0	0	231	124	1021	0	0	0	
6	0	0	0	0	249	138	1021	0	0	0	
7	0	0	0	0	273	158	1021	0	0	0	
8	0	0	0	0	300	181	1021	0	0	0	
9	0	0	0	0	329	207	1021	0	0	0	
10	0	0	0	0	361	235	1021	0	0	0	
11	0	0	0	0	394	264	1021	0	0	0	
12	0	0	0	0	426	293	1021	0	0	0	
13	0	0	0	0	456	322	1021	0	0	0	
14	0	0	0	0	486	351	1021	0	0	0	
15	0	0	0	0	512	377	1021	0	0	0	
0	0	0	0	0	536	402	1021	0	0	0	
1	0	0	0	0	558	424	1021	0	0	0	
2	0	0	0	0	575	443	1021	0	0	0	
3	0	0	0	0	590	460	1021	0	0	0	
4	0	0	0	0	602	475	1021	0	0	0	
5	0	0	0	0	611	486	1021	0	0	0	
6	0	0	0	0	618	495	1021	0	0	0	
7	0	0	0	0	622	502	1021	0	0	0	
8	0	0	0	0	623	505	1021	0	0	0	
9	0	0	0	0	622	507	1021	0	0	0	
10	0	0	0	0	617	505	1021	0	0	0	
11	0	0	0	0	610	501	1021	0	0	0	
12	0	0	0	0	601	495	1021	0	0	0	
13	0	0	0	0	590	487	1021	0	0	0	
14	0	0	0	0	577	477	1021	0	0	0	
15	0	0	0	0	563	466	1021	0	0	0	
0	0	0	0	0	548	454	1021	0	0	0	
1	0	0	0	0	534	441	1021	0	0	0	
2	0	0	0	0	519	428	1021	0	0	0	
3	0	0	0	0	506	415	1021	0	0	0	
4	0	0	0	0	494	403	1021	0	0	0	
5	0	0	0	0	483	391	1021	0	0	0	
6	0	0	0	0	476	383	1021	0	0	0	
7	0	0	0	0	470	376	1021	0	0	0	
8	0	0	0	0	468	373	1021	0	0	0	
9	0	0	0	0	469	372	1021	0	0	0	
10	0	0	0	0	473	375	1021	0	0	0	
11	0	0	0	0	481	381	1021	0	0	0	
12	0	0	0	0	491	388	1021	0	0	0	
13	0	0	0	0	502	398	1021	0	0	0	
14	0	0	0	0	513	407	1021	0	0	0	
15	0	0	0	0	523	415	1021	0	0	0	
0	0	0	0	0	531	424	1021	0	0	0	
1	0	0	0	0	539	430	1021	0	0	0	
2	0	0	0	0	543	435	1021	0	0	0	
3	0	0	0	0	546	438	1021	0	0	0	
4	0	0	0	0	546	440	1021	0	0	0	
5	0	0	0	0	544	440	1021	0	0	0	
6	0	0	0	0	542	438	1021	0	0	0	
7	0	0	0	0	538	435	1021	0	0	0	
8	0	0	0	0	535	433	1021	0	0	0	
9	0	0	0	0	532	432	1021	0	0	0	
10	0	0	0	0	531	431	1021	0	0	0	
11	0	0	0	0	531	431	1021	0	0	0	
12	0	0	0	0	533	432	1021	0	0	0	
13	0	0	0	0	536	434	1021	0	0	0	
14	0	0	0	0	539	437	1021	0	0	0	
15	0	0	0	0	543	440	1021	0	0	0	
0	0	0	0	0	546	442	1021	0	0	0	
1	0	0	0	0	548	445	1021	0	0	0	
2	0	0	0	0	550	446	1021	0	0	0	
3	0	0	0	0	549	446	1021	0	0	0	
4	0	0	0	0	547	444	1021	0	0	0	
5	0	0	0	0	542	440	1021	0	0	0	
6	0	0	0	0	536	435	1021	0	0	0	
7	0	0	0	0	528	429	1021	0	0	0	
8	0	0	0	0	520	423	1021	0	0	0	
9	0	0	0	0	513	416	1021	0	0	0	
10	0	0	0	0	507	411	1021	0	0	0	
11	0	0	0	0	504	407	1021	0	0	0	
12	0	0	0	0	503	405	1021	0	0	0	
13	0	0	0	0	504	405	1021	0	0	0	
14	0	0	0	0	508	407	1021	0	0	0	
15	0	0	0	0	515	411	1021	0	0	0	
0	0	0	0	0	523	416	1021	0	0	0	
1	0	0	0	0	531	423	1021	0	0	0	
2	0	0	0	0	540	430	1021	0	0	0	
3	0	0	0	0	550	438	1021	0	0	0	
4	0	0	0	0	560	447	1021	0	0	0	
5	0	0	0	0	569	455	1021	0	0	0	
6	0	0	0	0	576	463	1021	0	0	0	
7	0	0	0	0	582	469	1021	0	0	0	
8	0	0	0	0	583	472	1021	0	0	0	
9	0	0	0	0	582	472	1021	0	0	0	
10	0	0	0	0	577	469	1021	0	0	0	
11	0	0	0	0	569	463	1021	0	0	0	
12	0	0	0	0	558	455	1021	0	0	0	
13	0	0	0	0	546	446	1021	0	0	0	
14	0	0	0	0	532	434	1021	0	0	0	
15	0	0	0	0	519	422	1021	0	0	0	
0	0	0	0	0	506	410	1021	0	0	0	
1	0	0	0	0	496	400	1021	0	0	0	
2	0	0	0	0	488	391	1021	0	0	0	
3	0	0	0	0	485	387	1021	0	0	0	
4	0	0	0	0	485	384	1021	0	0	0	
5	0	0	0	0	489	385	1021	0	0	0	
6	0	0	0	0	496	390	1021	0	0	0	
7	0	0	0	0	506	396	1021	0	0	0	
8	0	0	0	0	518	405	1021	0	0	0	
9	0	0	0	0	529	415	1021	0	0	0	
10	0	0	0	0	541	425	1021	0	0	0	
11	0	0	0	0	551	435	1021	0	0	0	
12	0	0	0	0	559	443	1021	0	0	0	
13	0	0	0	0	564	448	1021	0	0	0	
14	0	0	0	0	567	452	1021	0	0	0	
15	0	0	0	0	565	453	1021	0	0	0	
0	0	0	0	0	562	451	1021	0	0	0	
1	0	0	0	0	557	449	1021	0	0	0	
2	0	0	0	0	551	444	1021	0	0	0	
3	0	0	0	0	544	439	1021	0	0	0	
4	0	0	0	0	536	432	1021	0	0	0	
5	0	0	0	0	527	425	1021	0	0	0	
6	0	0	0	0	519	417	1021	0	0	0	
7	0	0	0	0	512	410	1021	0	0	0	
8	0	0	0	0	506	403	1021	0	0	0	
9	0	0	0	0	502	399	1021	0	0	0	
10	0	0	0	0	499	396	1021	0	0	0	
11	0	0	0	0	499	396	1021	0	0	0	
12	0	0	0	0	502	398	1021	0	0	0	
13	0	0	0	0	508	403	1021	0	0	0	
14	0	0	0	0	517	410	1021	0	0	0	
15	0	0	0	0	528	420	1021	0	0	0	
0	0	0	0	0	541	431	1021	0	0	0	
1	0	0	0	0	554	443	1021	0	0	0	
2	0	0	0	0	566	454	1021	0	0	0	
3	0	0	0	0	577	463	1021	0	0	0	
4	0	0	0	0	584	471	1021	0	0	0	
5	0	0	0	0	588	474	1021	0	0	0	
6	0	0	0	0	587	473	1021	0	0	0	
7	0	0	0	0	581	469	1021	0	0	0	
8	0	0	0	0	571	461	1021	0	0	0	
9	0	0	0	0	558	450	1021	0	0	0	
10	0	0	0	0	543	438	1021	0	0	0	
11	0	0	0	0	529	427	1021	0	0	0	
12	0	0	0	0	516	415	1021	0	0	0	
13	0	0	0	0	505	406	1021	0	0	0	
14	0	0	0	0	496	398	1021	0	0	0	
15	0	0	0	0	491	392	1021	0	0	0	
0	0	0	0	0	488	389	1021	0	0	0	
1	0	0	0	0	489	388	1021	0	0	0	
2	0	0	0	0	491	389	1021	0	0	0	
3	0	0	0	0	495	391	1020	0	0	0	
4	0	0	0	0	499	393	1021	0	0	0	
5	0	0	0	0	502	395	1021	0	0	0	
6	0	0	0	0	505	395	1021	0	0	0	
7	0	0	0	0	506	395	1021	0	0	0	
8	0	0	0	0	506	394	1021	0	0	0	
9	0	0	0	0	505	392	1021	0	0	0	
10	0	0	0	0	504	391	1021	0	0	0	
11	0	0	0	0	503	390	1021	0	0	0	
12	0	0	0	0	502	390	1021	0	0	0	
13	0	0	0	0	501	390	1021	0	0	0	
14	0	0	0	0	503	393	1021	0	0	0	
15	0	0	0	0	505	397	1021	0	0	0	
0	0	0	0	0	511	403	1021	0	0	0	
1	0	0	0	0	518	411	1021	0	0	0	
2	0	0	0	0	526	420	1021	0	0	0	
3	0	0	0	0	536	429	1021	0	0	0	
4	0	0	0	0	544	438	1021	0	0	0	
5	0	0	0	0	551	446	1021	0	0	0	
6	0	0	0	0	557	451	1021	0	0	0	
7	0	0	0	0	560	454	1021	0	0	0	
8	0	0	0	0	561	455	1021	0	0	0	
9	0	0	0	0	559	453	1021	0	0	0	
10	0	0	0	0	556	450	1021	0	0	0	
11	0	0	0	0	550	444	1021	0	0	0	
12	0	0	0	0	542	436	1021	0	0	0	
13	0	0	0	0	533	427	1021	0	0	0	
14	0	0	0	0	523	417	1021	0	0	0	
15	0	0	0	0	513	407	1021	0	0	0	
0	0	0	0	0	504	398	1021	0	0	0	
1	0	0	0	0	496	390	1020	0	0	0	
2	0	0	0	0	489	383	1021	0	0	0	
3	0	0	0	0	483	377	1021	0	0	0	
4	0	0	0	0	479	372	1021	0	0	0	
5	0	0	0	0	476	368	1020	0	0	0	
6	0	0	0	0	474	366	1020	0	0	0	
7	0	0	0	0	476	366	1021	0	0	0	
8	0	0	0	0	479	368	1021	0	0	0	
9	0	0	0	0	484	372	1021	0	0	0	
10	0	0	0	0	491	379	1020	0	0	0	
11	0	0	0	0	501	387	1020	0	0	0	
12	0	0	0	0	512	397	1021	0	0	0	
13	0	0	0	0	523	408	1021	0	0	0	
14	0	0	0	0	533	418	1021	0	0	0	
15	0	0	0	0	543	427	1021	0	0	0	
0	0	0	0	0	550	434	1021	0	0	0	
1	0	0	0	0	555	440	1021	0	0	0	
2	0	0	0	0	558	443	1021	0	0	0	
3	0	0	0	0	559	443	1021	0	0	0	
4	0	0	0	0	557	442	1021	0	0	0	
5	0	0	0	0	554	439	1021	0	0	0	
6	0	0	0	0	551	435	1021	0	0	0	
7	0	0	0	0	546	431	1021	0	0	0	
8	0	0	0	0	542	426	1021	0	0	0	
9	0	0	0	0	538	422	1021	0	0	0	
10	0	0	0	0	535	419	1021	0	0	0	
11	0	0	0	0	532	417	1021	0	0	0	
12	0	0	0	0	531	417	1021	0	0	0	
13	0	0	0	0	530	416	1021	0	0	0	
14	0	0	0	0	529	416	1021	0	0	0	
15	0	0	0	0	529	415	1021	0	0	0	
0	0	0	0	0	528	415	1021	0	0	0	
1	0	0	0	0	526	414	1021	0	0	0	
2	0	0	0	0	524	412	1021	0	0	0	
3	0	0	0	0	522	410	1020	0	0	0	
4	0	0	0	0	519	408	1021	0	0	0	
5	0	0	0	0	518	407	1021	0	0	0	
6	0	0	0	0	517	406	1021	0	0	0	
7	0	0	0	0	517	405	1021	0	0	0	
8	0	0	0	0	518	405	1021	0	0	0	
9	0	0	0	0	519	405	1021	0	0	0	
10	0	0	0	0	520	406	1021	0	0	0	
11	0	0	0	0	522	407	1021	0	0	0	
12	0	0	0	0	524	409	1021	0	0	0	
13	0	0	0	0	527	411	1021	0	0	0	
14	0	0	0	0	529	414	1021	0	0	0	
15	0	0	0	0	533	417	1021	0	0	0	
0	0	0	0	0	536	421	1021	0	0	0	
1	0	0	0	0	538	425	1021	0	0	0	
2	0	0	0	0	541	428	1021	0	0	0	
3	0	0	0	0	544	432	1021	0	0	0	
4	0	0	0	0	547	436	1021	0	0	0	
5	0	0	0	0	549	440	1021	0	0	0	
6	0	0	0	0	551	443	1021	0	0	0	
7	0	0	0	0	552	444	1021	0	0	0	
8	0	0	0	0	553	444	1021	0	0	0	
9	0	0	0	0	552	443	1021	0	0	0	
10	0	0	0	0	550	441	1021	0	0	0	
11	0	0	0	0	546	437	1021	0	0	0	
12	0	0	0	0	541	431	1021	0	0	0	
13	0	0	0	0	535	425	1021	0	0	0	
14	0	0	0	0	530	419	1021	0	0	0	
15	0	0	0	0	524	413	1021	0	0	0	
0	0	0	0	0	520	408	1021	0	0	0	
1	0	0	0	0	517	405	1021	0	0	0	
2	0	0	0	0	514	402	1021	0	0	0	
3	0	0	0	0	513	400	1021	0	0	0	
4	0	0	0	0	511	399	1021	0	0	0	
5	0	0	0	0	511	397	1021	0	0	0	
6	0	0	0	0	509	396	1021	0	0	0	
7	0	0	0	0	508	395	1021	0	0	0	
8	0	0	0	0	507	394	1021	0	0	0	
9	0	0	0	0	506	393	1021	0	0	0	
10	0	0	0	0	505	393	1021	0	0	0	
11	0	0	0	0	504	393	1021	0	0	0	
12	0	0	0	0	504	393	1020	0	0	0	
13	0	0	0	0	505	394	1021	0	0	0	
14	0	0	0	0	507	396	1021	0	0	0	
15	0	0	0	0	510	398	1021	0	0	0	
0	0	0	0	0	514	401	1021	0	0	0	
1	0	0	0	0	520	406	1020	0	0	0	
2	0	0	0	0	527	411	1021	0	0	0	
3	0	0	0	0	534	416	1021	0	0	0	
4	0	0	0	0	541	422	1021	0	0	0	
5	0	0	0	0	548	428	1021	0	0	0	
6	0	0	0	0	554	433	1020	0	0	0	
7	0	0	0	0	560	439	1021	0	0	0	
8	0	0	0	0	565	444	1021	0	0	0	
9	0	0	0	0	569	448	1021	0	0	0	
10	0	0	0	0	572	454	1020	0	0	0	
11	0	0	0	0	575	458	1021	0	0	0	
12	0	0	0	0	577	463	1021	0	0	0	
13	0	0	0	0	579	466	1021	0	0	0	
14	0	0	0	0	579	468	1021	0	0	0	
15	0	0	0	0	577	468	1021	0	0	0	
0	0	0	0	0	573	465	1021	0	0	0	
1	0	0	0	0	566	458	1021	0	0	0	
2	0	0	0	0	555	448	1021	0	0	0	
3	0	0	0	0	542	435	1021	0	0	0	
4	0	0	0	0	527	421	1021	0	0	0	
5	0	0	0	0	513	406	1020	0	0	0	
6	0	0	0	0	502	393	1021	0	0	0	
7	0	0	0	0	492	383	1021	0	0	0	
8	0	0	0	0	486	375	1021	0	0	0	
9	0	0	0	0	484	372	1021	0	0	0	
10	0	0	0	0	488	374	1021	0	0	0	
11	0	0	0	0	496	380	1021	0	0	0	
12	0	0	0	0	507	389	1021	0	0	0	
13	0	0	0	0	519	399	1021	0	0	0	
14	0	0	0	0	530	410	1021	0	0	0	
15	0	0	0	0	540	419	1021	0	0	0	
0	0	0	0	0	547	426	1021	0	0	0	
1	0	0	0	0	551	430	1021	0	0	0	
2	0	0	0	0	551	431	1021	0	0	0	
3	0	0	0	0	547	429	1021	0	0	0	
4	0	0	0	0	541	425	1021	0	0	0	
5	0	0	0	0	534	419	1021	0	0	0	
6	0	0	0	0	526	412	1021	0	0	0	
7	0	0	0	0	518	406	1021	0	0	0	
8	0	0	0	0	511	399	1021	0	0	0	
9	0	0	0	0	505	393	1021	0	0	0	
10	0	0	0	0	500	388	1021	0	0	0	
11	0	0	0	0	498	385	1021	0	0	0	
12	0	0	0	0	498	385	1021	0	0	0	
13	0	0	0	0	502	387	1021	0	0	0	
14	0	0	0	0	507	391	1021	0	0	0	
15	0	0	0	0	513	396	1021	0	0	0	
0	0	0	0	0	521	402	1021	0	0	0	
1	0	0	0	0	528	408	1021	0	0	0	
2	0	0	0	0	534	413	1021	0	0	0	
3	0	0	0	0	537	417	1020	0	0	0	
4	0	0	0	0	540	420	1021	0	0	0	
5	0	0	0	0	539	421	1021	0	0	0	
6	0	0	0	0	537	421	1021	0	0	0	
7	0	0	0	0	532	419	1020	0	0	0	
8	0	0	0	0	527	416	1021	0	0	0	
9	0	0	0	0	521	412	1021	0	0	0	
10	0	0	0	0	515	409	1021	0	0	0	
11	0	0	0	0	510	405	1021	0	0	0	
12	0	0	0	0	505	401	1021	0	0	0	
13	0	0	0	0	502	398	1021	0	0	0	
14	0	0	0	0	500	396	1021	0	0	0	
15	0	0	0	0	500	394	1021	0	0	0	
0	0	0	0	0	501	395	1021	0	0	0	
1	0	0	0	0	504	396	1021	0	0	0	
2	0	0	0	0	507	399	1021	0	0	0	
3	0	0	0	0	512	402	1021	0	0	0	
4	0	0	0	0	517	406	1021	0	0	0	
5	0	0	0	0	522	410	1021	0	0	0	
6	0	0	0	0	527	415	1021	0	0	0	
7	0	0	0	0	531	419	1021	0	0	0	
8	0	0	0	0	534	422	1021	0	0	0	
9	0	0	0	0	537	425	1021	0	0	0	
10	0	0	0	0	539	427	1021	0	0	0	
11	0	0	0	0	540	430	1021	0	0	0	
12	0	0	0	0	542	431	1021	0	0	0	
13	0	0	0	0	543	432	1021	0	0	0	
14	0	0	0	0	544	433	1021	0	0	0	
15	0	0	0	0	545	433	1021	0	0	0	
0	0	0	0	0	545	432	1021	0	0	0	
1	0	0	0	0	544	430	1021	0	0	0	
2	0	0	0	0	542	427	1021	0	0	0	
3	0	0	0	0	539	423	1021	0	0	0	
4	0	0	0	0	535	419	1021	0	0	0	
5	0	0	0	0	530	415	1021	0	0	0	
6	0	0	0	0	526	410	1021	0	0	0	
7	0	0	0	0	521	406	1021	0	0	0	
8	0	0	0	0	517	403	1021	0	0	0	
9	0	0	0	0	514	402	1021	0	0	0	
10	0	0	0	0	513	402	1021	0	0	0	
11	0	0	0	0	513	404	1021	0	0	0	
12	0	0	0	0	516	407	1021	0	0	0	
13	0	0	0	0	519	411	1021	0	0	0	
14	0	0	0	0	524	415	1021	0	0	0	
15	0	0	0	0	527	419	1021	0	0	0	
0	0	0	0	0	531	422	1021	0	0	0	
1	0	0	0	0	532	423	1021	0	0	0	
2	0	0	0	0	533	423	1021	0	0	0	
3	0	0	0	0	532	421	1021	0	0	0	
4	0	0	0	0	529	418	1021	0	0	0	
5	0	0	0	0	527	414	1021	0	0	0	
6	0	0	0	0	523	409	1021	0	0	0	
7	0	0	0	0	519	406	1021	0	0	0	
8	0	0	0	0	515	402	1021	0	0	0	
9	0	0	0	0	512	398	1021	0	0	0	
10	0	0	0	0	510	395	1021	0	0	0	
11	0	0	0	0	508	393	1021	0	0	0	
12	0	0	0	0	508	393	1021	0	0	0	
13	0	0	0	0	509	394	1021	0	0	0	
14	0	0	0	0	511	396	1021	0	0	0	
15	0	0	0	0	514	399	1021	0	0	0	
0	0	0	0	0	518	403	1021	0	0	0	
1	0	0	0	0	521	407	1021	0	0	0	
2	0	0	0	0	526	412	1021	0	0	0	
3	0	0	0	0	529	417	1021	0	0	0	
4	0	0	0	0	534	422	1021	0	0	0	
5	0	0	0	0	539	427	1021	0	0	0	
6	0	0	0	0	543	432	1021	0	0	0	
7	0	0	0	0	547	435	1021	0	0	0	
8	0	0	0	0	549	437	1021	0	0	0	
9	0	0	0	0	550	437	1021	0	0	0	
10	0	0	0	0	550	436	1021	0	0	0	
11	0	0	0	0	549	435	1021	0	0	0	
12	0	0	0	0	548	433	1021	0	0	0	
13	0	0	0	0	547	432	1021	0	0	0	
14	0	0	0	0	547	432	1021	0	0	0	
15	0	0	0	0	547	432	1021	0	0	0	
0	0	0	0	0	547	432	1021	0	0	0	
1	0	0	0	0	546	432	1021	0	0	0	
2	0	0	0	0	544	430	1021	0	0	0	
3	0	0	0	0	540	428	1021	0	0	0	
4	0	0	0	0	536	424	1021	0	0	0	
5	0	0	0	0	528	419	1021	0	0	0	
6	0	0	0	0	520	412	1021	0	0	0	
7	0	0	0	0	510	403	1021	0	0	0	
8	0	0	0	0	498	394	1021	0	0	0	
9	0	0	0	0	488	385	1021	0	0	0	
10	0	0	0	0	478	376	1021	0	0	0	
11	0	0	0	0	471	370	1021	0	0	0	
12	0	0	0	0	465	365	1021	0	0	0	
13	0	0	0	0	463	363	1021	0	0	0	
14	0	0	0	0	464	362	1021	0	0	0	
15	0	0	0	0	469	365	1021	0	0	0	
0	0	0	0	0	476	369	1021	0	0	0	
1	0	0	0	0	485	375	1021	0	0	0	
2	0	0	0	0	495	381	1020	0	0	0	
3	0	0	0	0	505	389	1021	0	0	0	
4	0	0	0	0	516	397	1021	0	0	0	
5	0	0	0	0	526	405	1021	0	0	0	
6	0	0	0	0	535	413	1021	0	0	0	
7	0	0	0	0	540	420	1021	0	0	0	
8	0	0	0	0	545	425	1021	0	0	0	
9	0	0	0	0	547	429	1021	0	0	0	
10	0	0	0	0	545	430	1021	0	0	0	
11	0	0	0	0	542	429	1021	0	0	0	
12	0	0	0	0	536	426	1021	0	0	0	
13	0	0	0	0	530	422	1021	0	0	0	
14	0	0	0	0	523	417	1021	0	0	0	
15	0	0	0	0	516	411	1021	0	0	0	
0	0	0	0	0	510	406	1021	0	0	0	
1	0	0	0	0	504	401	1021	0	0	0	
2	0	0	0	0	500	397	1021	0	0	0	
3	0	0	0	0	499	395	1021	0	0	0	
4	0	0	0	0	498	395	1021	0	0	0	
5	0	0	0	0	500	395	1021	0	0	0	
6	0	0	0	0	504	398	1021	0	0	0	
7	0	0	0	0	509	403	1021	0	0	0	
8	0	0	0	0	517	410	1021	0	0	0	
9	0	0	0	0	526	418	1020	0	0	0	
10	0	0	0	0	536	428	1021	0	0	0	
11	0	0	0	0	547	437	1021	0	0	0	
12	0	0	0	0	557	446	1021	0	0	0	
13	0	0	0	0	565	454	1021	0	0	0	
14	0	0	0	0	572	460	1021	0	0	0	
15	0	0	0	0	575	463	1021	0	0	0	
0	0	0	0	0	578	465	1021	0	0	0	
1	0	0	0	0	577	465	1021	0	0	0	
2	0	0	0	0	575	464	1021	0	0	0	
3	0	0	0	0	571	460	1021	0	0	0	
4	0	0	0	0	566	456	1021	0	0	0	
5	0	0	0	0	560	451	1021	0	0	0	
6	0	0	0	0	553	446	1021	0	0	0	
7	0	0	0	0	546	440	1021	0	0	0	
8	0	0	0	0	539	434	1021	0	0	0	
9	0	0	0	0	532	428	1021	0	0	0	
10	0	0	0	0	526	423	1020	0	0	0	
11	0	0	0	0	522	418	1021	0	0	0	
12	0	0	0	0	518	415	1021	0	0	0	
13	0	0	0	0	515	412	1021	0	0	0	
14	0	0	0	0	513	409	1021	0	0	0	
15	0	0	0	0	511	408	1021	0	0	0	
0	0	0	0	0	510	406	1021	0	0	0	
1	0	0	0	0	510	405	1021	0	0	0	
2	0	0	0	0	510	405	1021	0	0	0	
3	0	0	0	0	511	404	1021	0	0	0	
4	0	0	0	0	512	405	1021	0	0	0	
5	0	0	0	0	515	407	1021	0	0	0	
6	0	0	0	0	520	411	1021	0	0	0	
7	0	0	0	0	526	415	1021	0	0	0	
8	0	0	0	0	534	422	1021	0	0	0	
9	0	0	0	0	543	430	1021	0	0	0	
10	0	0	0	0	555	439	1021	0	0	0	
11	0	0	0	0	567	449	1021	0	0	0	
12	0	0	0	0	579	460	1021	0	0	0	
13	0	0	0	0	590	470	1021	0	0	0	
14	0	0	0	0	599	477	1021	0	0	0	
15	0	0	0	0	604	482	1021	0	0	0	
0	0	0	0	0	603	482	1021	0	0	0	
1	0	0	0	0	598	478	1021	0	0	0	
2	0	0	0	0	588	469	1021	0	0	0	
3	0	0	0	0	573	457	1020	0	0	0	
4	0	0	0	0	555	443	1021	0	0	0	
5	0	0	0	0	535	427	1021	0	0	0	
6	0	0	0	0	514	410	1021	0	0	0	
7	0	0	0	0	494	394	1021	0	0	0	
8	0	0	0	0	476	380	1020	0	0	0	
9	0	0	0	0	463	369	1021	0	0	0	
10	0	0	0	0	454	361	1021	0	0	0	
11	0	0	0	0	449	356	1021	0	0	0	
12	0	0	0	0	450	356	1021	0	0	0	
13	0	0	0	0	455	359	1021	0	0	0	
14	0	0	0	0	464	364	1021	0	0	0	
15	0	0	0	0	478	373	1021	0	0	0	
0	0	0	0	0	493	384	1021	0	0	0	
1	0	0	0	0	508	395	1020	0	0	0	
2	0	0	0	0	524	406	1020	0	0	0	
3	0	0	0	0	537	415	1021	0	0	0	
4	0	0	0	0	546	422	1021	0	0	0	
5	0	0	0	0	551	427	1021	0	0	0	
6	0	0	0	0	552	427	1021	0	0	0	
7	0	0	0	0	548	425	1021	0	0	0	
8	0	0	0	0	542	421	1021	0	0	0	
9	0	0	0	0	532	415	1021	0	0	0	
10	0	0	0	0	521	408	1021	0	0	0	
11	0	0	0	0	510	401	1021	0	0	0	
12	0	0	0	0	500	393	1021	0	0	0	
13	0	0	0	0	491	387	1021	0	0	0	
14	0	0	0	0	484	382	1021	0	0	0	
15	0	0	0	0	480	379	1021	0	0	0	
0	0	0	0	0	479	377	1021	0	0	0	
1	0	0	0	0	479	377	1021	0	0	0	
2	0	0	0	0	484	380	1021	0	0	0	
3	0	0	0	0	492	386	1021	0	0	0	
4	0	0	0	0	502	393	1021	0	0	0	
5	0	0	0	0	513	402	1021	0	0	0	
6	0	0	0	0	526	412	1020	0	0	0	
7	0	0	0	0	540	423	1021	0	0	0	
8	0	0	0	0	553	434	1021	0	0	0	
9	0	0	0	0	566	445	1021	0	0	0	
10	0	0	0	0	575	454	1021	0	0	0	
11	0	0	0	0	582	461	1020	0	0	0	
12	0	0	0	0	585	464	1021	0	0	0	
13	0	0	0	0	585	465	1021	0	0	0	
14	0	0	0	0	580	463	1021	0	0	0	
15	0	0	0	0	572	457	1021	0	0	0	
0	0	0	0	0	562	449	1021	0	0	0	
1	0	0	0	0	550	440	1021	0	0	0	
2	0	0	0	0	536	429	1021	0	0	0	
3	0	0	0	0	523	418	1021	0	0	0	
4	0	0	0	0	510	406	1021	0	0	0	
5	0	0	0	0	498	395	1021	0	0	0	
6	0	0	0	0	489	386	1021	0	0	0	
7	0	0	0	0	482	379	1021	0	0	0	
8	0	0	0	0	478	374	1021	0	0	0	
9	0	0	0	0	477	372	1021	0	0	0	
10	0	0	0	0	479	372	1021	0	0	0	
11	0	0	0	0	483	376	1021	0	0	0	
12	0	0	0	0	490	381	1021	0	0	0	
13	0	0	0	0	499	388	1021	0	0	0	
14	0	0	0	0	509	396	1021	0	0	0	
15	0	0	0	0	519	406	1021	0	0	0	
0	0	0	0	0	529	415	1021	0	0	0	
1	0	0	0	0	539	423	1021	0	0	0	
2	0	0	0	0	547	430	1021	0	0	0	
3	0	0	0	0	553	435	1021	0	0	0	
4	0	0	0	0	556	438	1020	0	0	0	
5	0	0	0	0	557	439	1021	0	0	0	
6	0	0	0	0	555	438	1021	0	0	0	
7	0	0	0	0	551	435	1021	0	0	0	
8	0	0	0	0	544	429	1021	0	0	0	
9	0	0	0	0	537	423	1021	0	0	0	
10	0	0	0	0	529	417	1021	0	0	0	
11	0	0	0	0	522	412	1021	0	0	0	
12	0	0	0	0	516	409	1021	0	0	0	
13	0	0	0	0	512	408	1021	0	0	0	
14	0	0	0	0	511	408	1021	0	0	0	
15	0	0	0	0	513	412	1021	0	0	0	
0	0	0	0	0	519	418	1021	0	0	0	
1	0	0	0	0	526	426	1021	0	0	0	
2	0	0	0	0	535	434	1021	0	0	0	
3	0	0	0	0	543	442	1020	0	0	0	
4	0	0	0	0	553	449	1021	0	0	0	
5	0	0	0	0	560	455	1021	0	0	0	
6	0	0	0	0	566	459	1021	0	0	0	
7	0	0	0	0	568	459	1021	0	0	0	
8	0	0	0	0	568	457	1021	0	0	0	
9	0	0	0	0	565	452	1021	0	0	0	
10	0	0	0	0	560	446	1021	0	0	0	
11	0	0	0	0	554	439	1021	0	0	0	
12	0	0	0	0	547	432	1021	0	0	0	
13	0	0	0	0	539	424	1021	0	0	0	
14	0	0	0	0	531	416	1021	0	0	0	
15	0	0	0	0	524	409	1021	0	0	0	
0	0	0	0	0	518	404	1021	0	0	0	
1	0	0	0	0	513	400	1021	0	0	0	
2	0	0	0	0	509	397	1020	0	0	0	
3	0	0	0	0	507	395	1021	0	0	0	
4	0	0	0	0	506	395	1021	0	0	0	
5	0	0	0	0	507	396	1021	0	0	0	
6	0	0	0	0	509	399	1021	0	0	0	
7	0	0	0	0	512	403	1021	0	0	0	
8	0	0	0	0	516	407	1021	0	0	0	
9	0	0	0	0	520	412	1021	0	0	0	
10	0	0	0	0	525	416	1021	0	0	0	
11	0	0	0	0	529	420	1021	0	0	0	
12	0	0	0	0	532	423	1020	0	0	0	
13	0	0	0	0	535	425	1021	0	0	0	
14	0	0	0	0	536	425	1021	0	0	0	
15	0	0	0	0	535	423	1021	0	0	0	
0	0	0	0	0	532	419	1021	0	0	0	
1	0	0	0	0	526	413	1021	0	0	0	
2	0	0	0	0	518	404	1021	0	0	0	
3	0	0	0	0	507	392	1021	0	0	0	
4	0	0	0	0	493	378	1021	0	0	0	
5	0	0	0	0	475	361	1021	0	0	0	
6	0	0	0	0	455	343	1020	0	0	0	
7	0	0	0	0	433	323	1021	0	0	0	
8	0	0	0	0	411	303	1021	0	0	0	
9	0	0	0	0	388	283	1021	0	0	0	
10	0	0	0	0	367	264	1020	0	0	0	
11	0	0	0	0	347	247	1020	0	0	0	
12	0	0	0	0	330	231	1021	0	0	0	
13	0	0	0	0	314	217	1021	0	0	0	
14	0	0	0	0	302	205	1021	0	0	0	
15	0	0	0	0	291	193	1021	0	0	0	
0	0	0	0	0	283	184	1021	0	0	0	
1	0	0	0	0	277	176	1021	0	0	0	
2	0	0	0	0	273	169	1021	0	0	0	
3	0	0	0	0	272	164	1021	0	0	0	
4	0	0	0	0	273	160	1021	0	0	0	
5	0	0	0	0	276	159	1020	0	0	0	
6	0	0	0	0	282	160	1021	0	0	0	
7	0	0	0	0	291	166	1021	0	0	0	
8	0	0	0	0	303	174	1021	0	0	0	
9	0	0	0	0	318	185	1021	0	0	0	
10	0	0	0	0	336	201	1021	0	0	0	
11	0	0	0	0	356	220	1021	0	0	0	
12	0	0	0	0	379	241	1021	0	0	0	
13	0	0	0	0	402	264	1021	0	0	0	
14	0	0	0	0	426	289	1021	0	0	0	
15	0	0	0	0	451	314	1021	0	0	0	
0	0	0	0	0	475	339	1021	0	0	0	
1	0	0	0	0	496	363	1021	0	0	0	
2	0	0	0	0	516	384	1021	0	0	0	
3	0	0	0	0	532	403	1021	0	0	0	
4	0	0	0	0	545	419	1021	0	0	0	
5	0	0	0	0	556	431	1021	0	0	0	
6	0	0	0	0	563	440	1021	0	0	0	
7	0	0	0	0	568	446	1021	0	0	0	
8	0	0	0	0	569	449	1021	0	0	0	
9	0	0	0	0	569	450	1021	0	0	0	
10	0	0	0	0	568	449	1021	0	0	0	
11	0	0	0	0	565	447	1021	0	0	0	
12	0	0	0	0	561	444	1021	0	0	0	
13	0	0	0	0	558	441	1020	0	0	0	
14	0	0	0	0	555	439	1021	0	0	0	
15	0	0	0	0	552	437	1021	0	0	0	
0	0	0	0	0	551	436	1021	0	0	0	
1	0	0	0	0	550	435	1021	0	0	0	
2	0	0	0	0	548	436	1021	0	0	0	
3	0	0	0	0	549	437	1021	0	0	0	
4	0	0	0	0	549	438	1021	0	0	0	
5	0	0	0	0	550	440	1021	0	0	0	
6	0	0	0	0	551	441	1021	0	0	0	
7	0	0	0	0	551	441	1021	0	0	0	
8	0	0	0	0	551	441	1021	0	0	0	
9	0	0	0	0	550	440	1021	0	0	0	
10	0	0	0	0	550	439	1021	0	0	0	
11	0	0	0	0	549	439	1021	0	0	0	
12	0	0	0	0	550	438	1021	0	0	0	
13	0	0	0	0	551	439	1021	0	0	0	
14	0	0	0	0	554	440	1021	0	0	0	
15	0	0	0	0	558	444	1021	0	0	0	
0	0	0	0	0	563	448	1021	0	0	0	
1	0	0	0	0	568	452	1021	0	0	0	
2	0	0	0	0	573	456	1021	0	0	0	
3	0	0	0	0	577	460	1021	0	0	0	
4	0	0	0	0	580	463	1021	0	0	0	
5	0	0	0	0	582	466	1021	0	0	0	
6	0	0	0	0	582	467	1021	0	0	0	
7	0	0	0	0	583	470	1021	0	0	0	
8	0	0	0	0	585	473	1021	0	0	0	
9	0	0	0	0	587	476	1021	0	0	0	
10	0	0	0	0	591	481	1021	0	0	0	
11	0	0	0	0	595	487	1021	0	0	0	
12	0	0	0	0	603	493	1021	0	0	0	
13	0	0	0	0	611	501	1021	0	0	0	
14	0	0	0	0	620	509	1021	0	0	0	
15	0	0	0	0	629	516	1021	0	0	0	
0	0	0	0	0	636	521	1021	0	0	0	
1	0	0	0	0	640	523	1021	0	0	0	
2	0	0	0	0	641	521	1021	0	0	0	
3	0	0	0	0	636	515	1021	0	0	0	
4	0	0	0	0	626	505	1021	0	0	0	
5	0	0	0	0	611	491	1021	0	0	0	
6	0	0	0	0	592	474	1021	0	0	0	
7	0	0	0	0	570	456	1021	0	0	0	
8	0	0	0	0	546	436	1021	0	0	0	
9	0	0	0	0	523	417	1021	0	0	0	
10	0	0	0	0	500	400	1021	0	0	0	
11	0	0	0	0	481	385	1021	0	0	0	
12	0	0	0	0	467	374	1021	0	0	0	
13	0	0	0	0	457	366	1021	0	0	0	
14	0	0	0	0	453	363	1021	0	0	0	
15	0	0	0	0	454	363	1021	0	0	0	
0	0	0	0	0	460	367	1021	0	0	0	
1	0	0	0	0	472	376	1021	0	0	0	
2	0	0	0	0	487	386	1021	0	0	0	
3	0	0	0	0	504	397	1021	0	0	0	
4	0	0	0	0	521	408	1021	0	0	0	
5	0	0	0	0	536	419	1020	0	0	0	
6	0	0	0	0	551	428	1021	0	0	0	
7	0	0	0	0	561	435	1021	0	0	0	
8	0	0	0	0	568	439	1021	0	0	0	
9	0	0	0	0	570	441	1021	0	0	0	
10	0	0	0	0	569	440	1021	0	0	0	
11	0	0	0	0	565	439	1021	0	0	0	
12	0	0	0	0	559	436	1021	0	0	0	
13	0	0	0	0	551	432	1021	0	0	0	
14	0	0	0	0	544	431	1020	0	0	0	
15	0	0	0	0	539	430	1021	0	0	0	
0	0	0	0	0	536	430	1021	0	0	0	
1	0	0	0	0	535	433	1021	0	0	0	
2	0	0	0	0	536	436	1021	0	0	0	
3	0	0	0	0	540	440	1021	0	0	0	
4	0	0	0	0	543	445	1021	0	0	0	
5	0	0	0	0	549	449	1021	0	0	0	
6	0	0	0	0	553	451	1021	0	0	0	
7	0	0	0	0	557	452	1021	0	0	0	
8	0	0	0	0	557	451	1021	0	0	0	
9	0	0	0	0	555	447	1021	0	0	0	
10	0	0	0	0	550	441	1021	0	0	0	
11	0	0	0	0	543	433	1021	0	0	0	
12	0	0	0	0	535	425	1021	0	0	0	
13	0	0	0	0	526	416	1021	0	0	0	
14	0	0	0	0	518	409	1021	0	0	0	
15	0	0	0	0	511	404	1021	0	0	0	
0	0	0	0	0	508	402	1021	0	0	0	
1	0	0	0	0	508	403	1021	0	0	0	
2	0	0	0	0	510	407	1021	0	0	0	
3	0	0	0	0	516	412	1021	0	0	0	
4	0	0	0	0	524	420	1021	0	0	0	
5	0	0	0	0	532	428	1021	0	0	0	
6	0	0	0	0	541	436	1021	0	0	0	
7	0	0	0	0	550	444	1021	0	0	0	
8	0	0	0	0	558	451	1021	0	0	0	
9	0	0	0	0	564	455	1021	0	0	0	
10	0	0	0	0	569	459	1021	0	0	0	
11	0	0	0	0	571	460	1021	0	0	0	
12	0	0	0	0	572	460	1021	0	0	0	
13	0	0	0	0	571	459	1021	0	0	0	
14	0	0	0	0	569	457	1021	0	0	0	
15	0	0	0	0	568	456	1021	0	0	0	
0	0	0	0	0	567	456	1021	0	0	0	
1	0	0	0	0	567	457	1021	0	0	0	
2	0	0	0	0	567	458	1021	0	0	0	
3	0	0	0	0	569	461	1021	0	0	0	
4	0	0	0	0	572	464	1021	0	0	0	
5	0	0	0	0	574	467	1021	0	0	0	
6	0	0	0	0	575	468	1021	0	0	0	
7	0	0	0	0	577	469	1021	0	0	0	
8	0	0	0	0	575	468	1021	0	0	0	
9	0	0	0	0	573	465	1021	0	0	0	
10	0	0	0	0	569	462	1021	0	0	0	
11	0	0	0	0	565	457	1021	0	0	0	
12	0	0	0	0	560	452	1021	0	0	0	
13	0	0	0	0	556	447	1021	0	0	0	
14	0	0	0	0	551	443	1021	0	0	0	
15	0	0	0	0	548	439	1021	0	0	0	
0	0	0	0	0	544	435	1021	0	0	0	
1	0	0	0	0	541	432	1021	0	0	0	
2	0	0	0	0	537	428	1021	0	0	0	
3	0	0	0	0	534	425	1021	0	0	0	
4	0	0	0	0	530	422	1021	0	0	0	
5	0	0	0	0	527	419	1021	0	0	0	
6	0	0	0	0	526	419	1021	0	0	0	
7	0	0	0	0	524	418	1021	0	0	0	
8	0	0	0	0	525	419	1021	0	0	0	
9	0	0	0	0	526	421	1021	0	0	0	
10	0	0	0	0	528	424	1021	0	0	0	
11	0	0	0	0	531	427	1021	0	0	0	
12	0	0	0	0	535	431	1021	0	0	0	
13	0	0	0	0	538	435	1021	0	0	0	
14	0	0	0	0	541	438	1021	0	0	0	
15	0	0	0	0	544	440	1021	0	0	0	
0	0	0	0	0	545	442	1021	0	0	0	
1	0	0	0	0	546	442	1021	0	0	0	
2	0	0	0	0	545	441	1021	0	0	0	
3	0	0	0	0	544	439	1021	0	0	0	
4	0	0	0	0	542	436	1021	0	0	0	
5	0	0	0	0	540	434	1021	0	0	0	
6	0	0	0	0	539	431	1021	0	0	0	
7	0	0	0	0	538	430	1021	0	0	0	
8	0	0	0	0	539	429	1021	0	0	0	
9	0	0	0	0	540	430	1021	0	0	0	
10	0	0	0	0	543	432	1021	0	0	0	
11	0	0	0	0	547	435	1021	0	0	0	
12	0	0	0	0	551	440	1021	0	0	0	
13	0	0	0	0	555	444	1021	0	0	0	
14	0	0	0	0	558	448	1021	0	0	0	
15	0	0	0	0	562	452	1021	0	0	0	
0	0	0	0	0	564	456	1021	0	0	0	
1	0	0	0	0	567	460	1021	0	0	0	
2	0	0	0	0	569	463	1021	0	0	0	
3	0	0	0	0	570	465	1021	0	0	0	
4	0	0	0	0	572	467	1021	0	0	0	
5	0	0	0	0	573	469	1021	0	0	0	
6	0	0	0	0	574	471	1021	0	0	0	
7	0	0	0	0	574	471	1021	0	0	0	
8	0	0	0	0	572	470	1021	0	0	0	
9	0	0	0	0	569	467	1021	0	0	0	
10	0	0	0	0	564	462	1021	0	0	0	
11	0	0	0	0	559	457	1021	0	0	0	
12	0	0	0	0	552	450	1021	0	0	0	
13	0	0	0	0	545	444	1021	0	0	0	
14	0	0	0	0	539	437	1021	0	0	0	
15	0	0	0	0	532	431	1021	0	0	0	
0	0	0	0	0	527	425	1021	0	0	0	
1	0	0	0	0	522	420	1021	0	0	0	
2	0	0	0	0	518	417	1021	0	0	0	
3	0	0	0	0	515	414	1021	0	0	0	
4	0	0	0	0	513	412	1021	0	0	0	
5	0	0	0	0	513	413	1021	0	0	0	
6	0	0	0	0	514	414	1021	0	0	0	
7	0	0	0	0	517	417	1021	0	0	0	
8	0	0	0	0	521	420	1021	0	0	0	
9	0	0	0	0	526	423	1021	0	0	0	
10	0	0	0	0	532	428	1021	0	0	0	
11	0	0	0	0	537	431	1021	0	0	0	
12	0	0	0	0	542	434	1021	0	0	0	
13	0	0	0	0	546	436	1021	0	0	0	
14	0	0	0	0	549	438	1021	0	0	0	
15	0	0	0	0	551	438	1021	0	0	0	
0	0	0	0	0	551	438	1021	0	0	0	
1	0	0	0	0	549	437	1020	0	0	0	
2	0	0	0	0	548	437	1021	0	0	0	
3	0	0	0	0	546	438	1021	0	0	0	
4	0	0	0	0	546	439	1021	0	0	0	
5	0	0	0	0	545	441	1021	0	0	0	
6	0	0	0	0	545	443	1021	0	0	0	
7	0	0	0	0	546	445	1021	0	0	0	
8	0	0	0	0	546	446	1021	0	0	0	
9	0	0	0	0	546	447	1021	0	0	0	
10	0	0	0	0	545	446	1021	0	0	0	
11	0	0	0	0	543	444	1021	0	0	0	
12	0	0	0	0	540	440	1021	0	0	0	
13	0	0	0	0	536	435	1021	0	0	0	
14	0	0	0	0	532	430	1021	0	0	0	
15	0	0	0	0	527	423	1021	0	0	0	
0	0	0	0	0	522	417	1021	0	0	0	
1	0	0	0	0	518	412	1021	0	0	0	
2	0	0	0	0	515	408	1021	0	0	0	
3	0	0	0	0	512	405	1021	0	0	0	
4	0	0	0	0	511	404	1021	0	0	0	
5	0	0	0	0	511	404	1021	0	0	0	
6	0	0	0	0	514	407	1021	0	0	0	
7	0	0	0	0	517	410	1021	0	0	0	
8	0	0	0	0	522	415	1021	0	0	0	
9	0	0	0	0	527	421	1021	0	0	0	
10	0	0	0	0	534	427	1021	0	0	0	
11	0	0	0	0	540	433	1021	0	0	0	
12	0	0	0	0	545	440	1021	0	0	0	
13	0	0	0	0	550	444	1021	0	0	0	
14	0	0	0	0	554	449	1021	0	0	0	
15	0	0	0	0	556	451	1021	0	0	0	
0	0	0	0	0	557	453	1021	0	0	0	
1	0	0	0	0	558	453	1021	0	0	0	
2	0	0	0	0	556	452	1021	0	0	0	
3	0	0	0	0	554	450	1021	0	0	0	
4	0	0	0	0	551	448	1021	0	0	0	
5	0	0	0	0	548	444	1021	0	0	0	
6	0	0	0	0	545	441	1021	0	0	0	
7	0	0	0	0	541	438	1021	0	0	0	
8	0	0	0	0	539	435	1021	0	0	0	
9	0	0	0	0	536	433	1021	0	0	0	
10	0	0	0	0	536	433	1021	0	0	0	
11	0	0	0	0	538	435	1021	0	0	0	
12	0	0	0	0	541	439	1021	0	0	0	
13	0	0	0	0	546	443	1020	0	0	0	
14	0	0	0	0	552	449	1021	0	0	0	
15	0	0	0	0	557	454	1021	0	0	0	
0	0	0	0	0	563	459	1021	0	0	0	
1	0	0	0	0	568	464	1021	0	0	0	
2	0	0	0	0	572	467	1021	0	0	0	
3	0	0	0	0	575	470	1021	0	0	0	
4	0	0	0	0	575	472	1021	0	0	0	
5	0	0	0	0	577	473	1021	0	0	0	
6	0	0	0	0	577	474	1021	0	0	0	
7	0	0	0	0	577	474	1021	0	0	0	
8	0	0	0	0	575	473	1021	0	0	0	
9	0	0	0	0	573	471	1021	0	0	0	
10	0	0	0	0	569	468	1021	0	0	0	
11	0	0	0	0	564	463	1021	0	0	0	
12	0	0	0	0	557	458	1021	0	0	0	
13	0	0	0	0	550	451	1021	0	0	0	
14	0	0	0	0	543	445	1021	0	0	0	
15	0	0	0	0	536	440	1021	0	0	0	
0	0	0	0	0	530	435	1021	0	0	0	
1	0	0	0	0	527	432	1021	0	0	0	
2	0	0	0	0	526	432	1021	0	0	0	
3	0	0	0	0	527	434	1021	0	0	0	
4	0	0	0	0	533	439	1021	0	0	0	
5	0	0	0	0	540	444	1021	0	0	0	
6	0	0	0	0	547	451	1021	0	0	0	
7	0	0	0	0	556	459	1021	0	0	0	
8	0	0	0	0	565	467	1021	0	0	0	
9	0	0	0	0	574	473	1021	0	0	0	
10	0	0	0	0	580	477	1021	0	0	0	
11	0	0	0	0	584	480	1021	0	0	0	
12	0	0	0	0	585	479	1021	0	0	0	
13	0	0	0	0	583	475	1021	0	0	0	
14	0	0	0	0	580	470	1021	0	0	0	
15	0	0	0	0	574	463	1021	0	0	0	
0	0	0	0	0	566	455	1021	0	0	0	
1	0	0	0	0	556	447	1021	0	0	0	
2	0	0	0	0	546	438	1020	0	0	0	
3	0	0	0	0	537	431	1021	0	0	0	
4	0	0	0	0	528	425	1021	0	0	0	
5	0	0	0	0	521	421	1021	0	0	0	
6	0	0	0	0	517	419	1021	0	0	0	
7	0	0	0	0	514	418	1021	0	0	0	
8	0	0	0	0	514	420	1021	0	0	0	
9	0	0	0	0	516	423	1021	0	0	0	
10	0	0	0	0	519	427	1021	0	0	0	
11	0	0	0	0	524	431	1021	0	0	0	
12	0	0	0	0	528	436	1021	0	0	0	
13	0	0	0	0	535	440	1021	0	0	0	
14	0	0	0	0	539	444	1021	0	0	0	
15	0	0	0	0	543	446	1021	0	0	0	
0	0	0	0	0	546	446	1021	0	0	0	
1	0	0	0	0	546	444	1021	0	0	0	
2	0	0	0	0	545	441	1021	0	0	0	
3	0	0	0	0	543	437	1021	0	0	0	
4	0	0	0	0	540	433	1021	0	0	0	
5	0	0	0	0	536	428	1021	0	0	0	
6	0	0	0	0	531	424	1021	0	0	0	
7	0	0	0	0	526	420	1021	0	0	0	
8	0	0	0	0	522	417	1021	0	0	0	
9	0	0	0	0	519	416	1021	0	0	0	
10	0	0	0	0	517	415	1021	0	0	0	
11	0	0	0	0	515	415	1021	0	0	0	
12	0	0	0	0	515	416	1021	0	0	0	
13	0	0	0	0	515	417	1021	0	0	0	
14	0	0	0	0	516	418	1021	0	0	0	
15	0	0	0	0	517	419	1021	0	0	0	
0	0	0	0	0	518	420	1021	0	0	0	
1	0	0	0	0	519	420	1021	0	0	0	
2	0	0	0	0	519	420	1021	0	0	0	
3	0	0	0	0	520	420	1021	0	0	0	
4	0	0	0	0	520	419	1021	0	0	0	
5	0	0	0	0	520	419	1021	0	0	0	
6	0	0	0	0	521	420	1021	0	0	0	
7	0	0	0	0	523	420	1021	0	0	0	
8	0	0	0	0	524	422	1021	0	0	0	
9	0	0	0	0	525	424	1021	0	0	0	
10	0	0	0	0	527	427	1021	0	0	0	
11	0	0	0	0	531	431	1021	0	0	0	
12	0	0	0	0	535	435	1021	0	0	0	
13	0	0	0	0	539	440	1021	0	0	0	
14	0	0	0	0	543	445	1020	0	0	0	
15	0	0	0	0	547	450	1020	0	0	0	
0	0	0	0	0	551	454	1021	0	0	0	
1	0	0	0	0	554	456	1021	0	0	0	
2	0	0	0	0	555	457	1021	0	0	0	
3	0	0	0	0	555	457	1021	0	0	0	
4	0	0	0	0	553	455	1021	0	0	0	
5	0	0	0	0	552	453	1021	0	0	0	
6	0	0	0	0	551	451	1021	0	0	0	
7	0	0	0	0	550	449	1021	0	0	0	
8	0	0	0	0	548	448	1021	0	0	0	
9	0	0	0	0	548	446	1021	0	0	0	
10	0	0	0	0	547	445	1021	0	0	0	
11	0	0	0	0	547	444	1021	0	0	0	
12	0	0	0	0	546	443	1021	0	0	0	
13	0	0	0	0	544	441	1020	0	0	0	
14	0	0	0	0	543	440	1021	0	0	0	
15	0	0	0	0	540	438	1021	0	0	0	
0	0	0	0	0	539	438	1021	0	0	0	
1	0	0	0	0	538	437	1020	0	0	0	
2	0	0	0	0	538	439	1021	0	0	0	
3	0	0	0	0	541	442	1021	0	0	0	
4	0	0	0	0	545	447	1021	0	0	0	
5	0	0	0	0	551	453	1021	0	0	0	
6	0	0	0	0	559	460	1021	0	0	0	
7	0	0	0	0	567	466	1021	0	0	0	
8	0	0	0	0	574	472	1020	0	0	0	
9	0	0	0	0	579	476	1021	0	0	0	
10	0	0	0	0	583	477	1021	0	0	0	
11	0	0	0	0	583	476	1021	0	0	0	
12	0	0	0	0	579	472	1021	0	0	0	
13	0	0	0	0	573	466	1021	0	0	0	
14	0	0	0	0	566	458	1021	0	0	0	
15	0	0	0	0	556	450	1021	0	0	0	
0	0	0	0	0	546	442	1021	0	0	0	
1	0	0	0	0	536	434	1021	0	0	0	
2	0	0	0	0	526	427	1021	0	0	0	
3	0	0	0	0	519	420	1021	0	0	0	
4	0	0	0	0	512	416	1021	0	0	0	
5	0	0	0	0	508	413	1021	0	0	0	
6	0	0	0	0	504	412	1021	0	0	0	
7	0	0	0	0	504	412	1020	0	0	0	
8	0	0	0	0	505	413	1021	0	0	0	
9	0	0	0	0	507	415	1021	0	0	0	
10	0	0	0	0	511	417	1021	0	0	0	
11	0	0	0	0	515	420	1021	0	0	0	
12	0	0	0	0	520	424	1021	0	0	0	
13	0	0	0	0	526	428	1021	0	0	0	
14	0	0	0	0	531	432	1021	0	0	0	
15	0	0	0	0	536	434	1021	0	0	0	
0	0	0	0	0	540	436	1021	0	0	0	
1	0	0	0	0	543	439	1021	0	0	0	
2	0	0	0	0	546	440	1021	0	0	0	
3	0	0	0	0	548	441	1021	0	0	0	
4	0	0	0	0	550	443	1021	0	0	0	
5	0	0	0	0	551	444	1021	0	0	0	
6	0	0	0	0	551	445	1021	0	0	0	
7	0	0	0	0	550	446	1021	0	0	0	
8	0	0	0	0	548	445	1021	0	0	0	
9	0	0	0	0	545	444	1021	0	0	0	
10	0	0	0	0	542	443	1021	0	0	0	
11	0	0	0	0	537	440	1021	0	0	0	
12	0	0	0	0	533	438	1021	0	0	0	
13	0	0	0	0	528	436	1021	0	0	0	
14	0	0	0	0	524	434	1021	0	0	0	
15	0	0	0	0	521	432	1021	0	0	0	
0	0	0	0	0	518	430	1021	0	0	0	
1	0	0	0	0	517	428	1021	0	0	0	
2	0	0	0	0	517	428	1021	0	0	0	
3	0	0	0	0	518	427	1021	0	0	0	
4	0	0	0	0	520	428	1021	0	0	0	
5	0	0	0	0	523	428	1021	0	0	0	
6	0	0	0	0	527	430	1021	0	0	0	
7	0	0	0	0	531	432	1021	0	0	0	
8	0	0	0	0	535	434	1021	0	0	0	
9	0	0	0	0	540	437	1021	0	0	0	
10	0	0	0	0	544	440	1021	0	0	0	
11	0	0	0	0	548	444	1021	0	0	0	
12	0	0	0	0	551	446	1021	0	0	0	
13	0	0	0	0	553	448	1021	0	0	0	
14	0	0	0	0	553	449	1021	0	0	0	
15	0	0	0	0	553	449	1021	0	0	0	
0	0	0	0	0	551	449	1021	0	0	0	
1	0	0	0	0	550	448	1021	0	0	0	
2	0	0	0	0	547	447	1021	0	0	0	
3	0	0	0	0	545	445	1021	0	0	0	
4	0	0	0	0	541	443	1021	0	0	0	
5	0	0	0	0	537	440	1021	0	0	0	
6	0	0	0	0	531	435	1021	0	0	0	
7	0	0	0	0	525	430	1021	0	0	0	
8	0	0	0	0	519	423	1021	0	0	0	
9	0	0	0	0	512	417	1021	0	0	0	
10	0	0	0	0	506	411	1021	0	0	0	
11	0	0	0	0	500	406	1021	0	0	0	
12	0	0	0	0	497	402	1021	0	0	0	
13	0	0	0	0	495	400	1021	0	0	0	
14	0	0	0	0	496	400	1021	0	0	0	
15	0	0	0	0	500	404	1021	0	0	0	
0	0	0	0	0	508	410	1021	0	0	0	
1	0	0	0	0	518	419	1021	0	0	0	
2	0	0	0	0	531	431	1021	0	0	0	
3	0	0	0	0	545	444	1021	0	0	0	
4	0	0	0	0	561	459	1021	0	0	0	
5	0	0	0	0	578	475	1021	0	0	0	
6	0	0	0	0	594	492	1021	0	0	0	
7	0	0	0	0	609	507	1021	0	0	0	
8	0	0	0	0	622	520	1021	0	0	0	
9	0	0	0	0	632	530	1021	0	0	0	
10	0	0	0	0	638	536	1021	0	0	0	
11	0	0	0	0	639	539	1021	0	0	0	
12	0	0	0	0	636	536	1021	0	0	0	
13	0	0	0	0	627	529	1021	0	0	0	
14	0	0	0	0	615	519	1021	0	0	0	
15	0	0	0	0	600	505	1021	0	0	0	
0	0	0	0	0	582	490	1021	0	0	0	
1	0	0	0	0	562	474	1020	0	0	0	
2	0	0	0	0	544	457	1020	0	0	0	
3	0	0	0	0	527	442	1021	0	0	0	
4	0	0	0	0	510	428	1021	0	0	0	
5	0	0	0	0	497	415	1021	0	0	0	
6	0	0	0	0	486	404	1021	0	0	0	
7	0	0	0	0	477	395	1021	0	0	0	
8	0	0	0	0	472	389	1021	0	0	0	
9	0	0	0	0	471	386	1021	0	0	0	
10	0	0	0	0	472	385	1021	0	0	0	
11	0	0	0	0	476	386	1021	0	0	0	
12	0	0	0	0	482	388	1021	0	0	0	
13	0	0	0	0	487	391	1021	0	0	0	
14	0	0	0	0	494	394	1021	0	0	0	
15	0	0	0	0	499	397	1021	0	0	0	
0	0	0	0	0	505	400	1021	0	0	0	
1	0	0	0	0	510	403	1021	0	0	0	
2	0	0	0	0	515	408	1021	0	0	0	
3	0	0	0	0	520	412	1021	0	0	0	
4	0	0	0	0	526	418	1021	0	0	0	
5	0	0	0	0	531	423	1021	0	0	0	
6	0	0	0	0	538	431	1021	0	0	0	
7	0	0	0	0	544	438	1021	0	0	0	
8	0	0	0	0	551	445	1021	0	0	0	
9	0	0	0	0	556	451	1021	0	0	0	
10	0	0	0	0	560	457	1021	0	0	0	
11	0	0	0	0	562	460	1021	0	0	0	
12	0	0	0	0	561	461	1021	0	0	0	
13	0	0	0	0	558	459	1021	0	0	0	
14	0	0	0	0	552	455	1021	0	0	0	
15	0	0	0	0	544	449	1021	0	0	0	
0	0	0	0	0	536	443	1021	0	0	0	
1	0	0	0	0	527	435	1021	0	0	0	
2	0	0	0	0	519	428	1021	0	0	0	
3	0	0	0	0	512	421	1021	0	0	0	
4	0	0	0	0	507	415	1021	0	0	0	
5	0	0	0	0	504	412	1021	0	0	0	
6	0	0	0	0	504	411	1021	0	0	0	
7	0	0	0	0	507	412	1021	0	0	0	
8	0	0	0	0	511	414	1021	0	0	0	
9	0	0	0	0	515	418	1021	0	0	0	
10	0	0	0	0	521	422	1021	0	0	0	
11	0	0	0	0	527	426	1021	0	0	0	
12	0	0	0	0	532	431	1021	0	0	0	
13	0	0	0	0	536	434	1021	0	0	0	
14	0	0	0	0	539	436	1021	0	0	0	
15	0	0	0	0	540	438	1021	0	0	0	
0	0	0	0	0	540	439	1021	0	0	0	
1	0	0	0	0	539	438	1021	0	0	0	
2	0	0	0	0	537	437	1021	0	0	0	
3	0	0	0	0	533	434	1021	0	0	0	
4	0	0	0	0	530	431	1021	0	0	0	
5	0	0	0	0	526	428	1021	0	0	0	
6	0	0	0	0	522	424	1021	0	0	0	
7	0	0	0	0	519	421	1021	0	0	0	
8	0	0	0	0	516	419	1021	0	0	0	
9	0	0	0	0	514	416	1021	0	0	0	
10	0	0	0	0	513	415	1021	0	0	0	
11	0	0	0	0	513	415	1021	0	0	0	
12	0	0	0	0	515	415	1021	0	0	0	
13	0	0	0	0	517	418	1021	0	0	0	
14	0	0	0	0	521	422	1021	0	0	0	
15	0	0	0	0	527	428	1021	0	0	0	
0	0	0	0	0	534	435	1021	0	0	0	
1	0	0	0	0	542	442	1021	0	0	0	
2	0	0	0	0	549	451	1021	0	0	0	
3	0	0	0	0	558	459	1021	0	0	0	
4	0	0	0	0	565	467	1021	0	0	0	
5	0	0	0	0	571	474	1021	0	0	0	
6	0	0	0	0	576	479	1021	0	0	0	
7	0	0	0	0	579	482	1021	0	0	0	
8	0	0	0	0	582	484	1021	0	0	0	
9	0	0	0	0	582	484	1021	0	0	0	
10	0	0	0	0	579	481	1021	0	0	0	
11	0	0	0	0	574	476	1021	0	0	0	
12	0	0	0	0	566	468	1021	0	0	0	
13	0	0	0	0	556	458	1021	0	0	0	
14	0	0	0	0	545	448	1021	0	0	0	
15	0	0	0	0	533	438	1021	0	0	0	
0	0	0	0	0	523	428	1021	0	0	0	
1	0	0	0	0	513	420	1021	0	0	0	
2	0	0	0	0	507	414	1021	0	0	0	
3	0	0	0	0	503	411	1021	0	0	0	
4	0	0	0	0	502	411	1021	0	0	0	
5	0	0	0	0	504	414	1021	0	0	0	
6	0	0	0	0	510	420	1021	0	0	0	
7	0	0	0	0	517	428	1021	0	0	0	
8	0	0	0	0	526	437	1021	0	0	0	
9	0	0	0	0	536	447	1021	0	0	0	
10	0	0	0	0	547	456	1021	0	0	0	
11	0	0	0	0	556	464	1021	0	0	0	
12	0	0	0	0	564	471	1021	0	0	0	
13	0	0	0	0	570	475	1021	0	0	0	
14	0	0	0	0	574	478	1021	0	0	0	
15	0	0	0	0	575	478	1021	0	0	0	
0	0	0	0	0	574	476	1021	0	0	0	
1	0	0	0	0	571	472	1021	0	0	0	
2	0	0	0	0	567	467	1021	0	0	0	
3	0	0	0	0	560	462	1021	0	0	0	
4	0	0	0	0	553	455	1021	0	0	0	
5	0	0	0	0	545	448	1021	0	0	0	
6	0	0	0	0	536	440	1020	0	0	0	
7	0	0	0	0	528	434	1021	0	0	0	
8	0	0	0	0	520	428	1021	0	0	0	
9	0	0	0	0	513	424	1021	0	0	0	
10	0	0	0	0	509	422	1021	0	0	0	
11	0	0	0	0	505	421	1021	0	0	0	
12	0	0	0	0	504	421	1021	0	0	0	
13	0	0	0	0	503	421	1021	0	0	0	
14	0	0	0	0	504	421	1021	0	0	0	
15	0	0	0	0	505	423	1021	0	0	0	
0	0	0	0	0	508	424	1021	0	0	0	
1	0	0	0	0	512	426	1021	0	0	0	
2	0	0	0	0	515	428	1021	0	0	0	
3	0	0	0	0	518	429	1021	0	0	0	
4	0	0	0	0	521	429	1021	0	0	0	
5	0	0	0	0	524	429	1020	0	0	0	
6	0	0	0	0	526	429	1021	0	0	0	
7	0	0	0	0	528	429	1021	0	0	0	
8	0	0	0	0	530	429	1021	0	0	0	
9	0	0	0	0	531	429	1021	0	0	0	
10	0	0	0	0	532	429	1021	0	0	0	
11	0	0	0	0	532	429	1021	0	0	0	
12	0	0	0	0	532	430	1021	0	0	0	
13	0	0	0	0	531	430	1021	0	0	0	
14	0	0	0	0	529	429	1021	0	0	0	
15	0	0	0	0	525	428	1020	0	0	0	
0	0	0	0	0	520	425	1021	0	0	0	
1	0	0	0	0	514	421	1021	0	0	0	
2	0	0	0	0	506	415	1021	0	0	0	
3	0	0	0	0	496	407	1021	0	0	0	
4	0	0	0	0	484	397	1021	0	0	0	
5	0	0	0	0	471	385	1021	0	0	0	
6	0	0	0	0	456	371	1021	0	0	0	
7	0	0	0	0	440	356	1021	0	0	0	
8	0	0	0	0	424	340	1021	0	0	0	
9	0	0	0	0	407	323	1020	0	0	0	
10	0	0	0	0	390	305	1021	0	0	0	
11	0	0	0	0	373	287	1021	0	0	0	
12	0	0	0	0	356	271	1021	0	0	0	
13	0	0	0	0	340	254	1021	0	0	0	
14	0	0	0	0	326	239	1021	0	0	0	
15	0	0	0	0	312	225	1021	0	0	0	
0	0	0	0	0	299	212	1021	0	0	0	
1	0	0	0	0	288	202	1021	0	0	0	
2	0	0	0	0	279	193	1021	0	0	0	
3	0	0	0	0	271	186	1020	0	0	0	
4	0	0	0	0	267	182	1021	0	0	0	
5	0	0	0	0	265	180	1021	0	0	0	
6	0	0	0	0	266	182	1021	0	0	0	
7	0	0	0	0	272	187	1021	0	0	0	
8	0	0	0	0	282	196	1021	0	0	0	
9	0	0	0	0	296	208	1021	0	0	0	
10	0	0	0	0	315	224	1021	0	0	0	
11	0	0	0	0	337	243	1021	0	0	0	
12	0	0	0	0	362	264	1021	0	0	0	
13	0	0	0	0	390	286	1021	0	0	0	
14	0	0	0	0	418	310	1021	0	0	0	
15	0	0	0	0	448	335	1021	0	0	0	
0	0	0	0	0	477	359	1021	0	0	0	
1	0	0	0	0	504	384	1021	0	0	0	
2	0	0	0	0	529	407	1021	0	0	0	
3	0	0	0	0	551	428	1021	0	0	0	
4	0	0	0	0	568	445	1021	0	0	0	
5	0	0	0	0	580	460	1021	0	0	0	
6	0	0	0	0	588	470	1021	0	0	0	
7	0	0	0	0	591	478	1021	0	0	0	
8	0	0	0	0	591	483	1021	0	0	0	
9	0	0	0	0	587	484	1021	0	0	0	
10	0	0	0	0	581	483	1021	0	0	0	
11	0	0	0	0	573	480	1021	0	0	0	
12	0	0	0	0	564	475	1021	0	0	0	
13	0	0	0	0	555	468	1021	0	0	0	
14	0	0	0	0	546	462	1021	0	0	0	
15	0	0	0	0	538	453	1021	0	0	0	
0	0	0	0	0	531	446	1021	0	0	0	
1	0	0	0	0	524	439	1021	0	0	0	
2	0	0	0	0	521	433	1021	0	0	0	
3	0	0	0	0	518	428	1021	0	0	0	
4	0	0	0	0	518	426	1021	0	0	0	
5	0	0	0	0	519	425	1021	0	0	0	
6	0	0	0	0	522	427	1021	0	0	0	
7	0	0	0	0	527	431	1021	0	0	0	
8	0	0	0	0	533	436	1021	0	0	0	
9	0	0	0	0	539	443	1021	0	0	0	
10	0	0	0	0	545	449	1021	0	0	0	
11	0	0	0	0	553	457	1021	0	0	0	
12	0	0	0	0	560	465	1021	0	0	0	
13	0	0	0	0	567	473	1021	0	0	0	
14	0	0	0	0	573	480	1021	0	0	0	
15	0	0	0	0	579	487	1021	0	0	0	
0	0	0	0	0	584	493	1021	0	0	0	
1	0	0	0	0	588	497	1021	0	0	0	
2	0	0	0	0	590	499	1021	0	0	0	
3	0	0	0	0	591	499	1021	0	0	0	
4	0	0	0	0	590	497	1021	0	0	0	
5	0	0	0	0	587	494	1021	0	0	0	
6	0	0	0	0	582	488	1021	0	0	0	
7	0	0	0	0	576	482	1021	0	0	0	
8	0	0	0	0	569	475	1021	0	0	0	
9	0	0	0	0	563	467	1021	0	0	0	
10	0	0	0	0	555	460	1021	0	0	0	
11	0	0	0	0	549	455	1021	0	0	0	
12	0	0	0	0	543	449	1021	0	0	0	
13	0	0	0	0	536	445	1021	0	0	0	
14	0	0	0	0	531	441	1021	0	0	0	
15	0	0	0	0	527	439	1021	0	0	0	
0	0	0	0	0	524	439	1021	0	0	0	
1	0	0	0	0	523	439	1021	0	0	0	
2	0	0	0	0	523	441	1021	0	0	0	
3	0	0	0	0	526	444	1021	0	0	0	
4	0	0	0	0	529	448	1021	0	0	0	
5	0	0	0	0	534	452	1021	0	0	0	
6	0	0	0	0	539	457	1021	0	0	0	
7	0	0	0	0	544	461	1021	0	0	0	
8	0	0	0	0	550	465	1021	0	0	0	
9	0	0	0	0	556	469	1021	0	0	0	
10	0	0	0	0	561	472	1021	0	0	0	
11	0	0	0	0	564	474	1021	0	0	0	
12	0	0	0	0	567	475	1021	0	0	0	
13	0	0	0	0	568	475	1021	0	0	0	
14	0	0	0	0	568	474	1021	0	0	0	
15	0	0	0	0	566	473	1021	0	0	0	
0	0	0	0	0	564	471	1021	0	0	0	
1	0	0	0	0	561	469	1021	0	0	0	
2	0	0	0	0	558	466	1021	0	0	0	
3	0	0	0	0	555	464	1021	0	0	0	
4	0	0	0	0	551	461	1021	0	0	0	
5	0	0	0	0	548	460	1021	0	0	0	
6	0	0	0	0	545	458	1021	0	0	0	
7	0	0	0	0	543	457	1021	0	0	0	
8	0	0	0	0	543	456	1021	0	0	0	
9	0	0	0	0	543	455	1021	0	0	0	
10	0	0	0	0	542	455	1021	0	0	0	
11	0	0	0	0	542	454	1021	0	0	0	
12	0	0	0	0	541	452	1021	0	0	0	
13	0	0	0	0	540	451	1021	0	0	0	
14	0	0	0	0	537	448	1021	0	0	0	
15	0	0	0	0	535	447	1021	0	0	0	
0	0	0	0	0	533	444	1021	0	0	0	
1	0	0	0	0	531	443	1021	0	0	0	
2	0	0	0	0	530	442	1021	0	0	0	
3	0	0	0	0	529	443	1021	0	0	0	
4	0	0	0	0	531	444	1021	0	0	0	
5	0	0	0	0	533	448	1021	0	0	0	
6	0	0	0	0	538	452	1021	0	0	0	
7	0	0	0	0	544	458	1021	0	0	0	
8	0	0	0	0	553	466	1021	0	0	0	
9	0	0	0	0	564	475	1021	0	0	0	
10	0	0	0	0	575	484	1021	0	0	0	
11	0	0	0	0	586	492	1021	0	0	0	
12	0	0	0	0	595	499	1021	0	0	0	
13	0	0	0	0	600	502	1021	0	0	0	
14	0	0	0	0	600	501	1021	0	0	0	
15	0	0	0	0	596	498	1021	0	0	0	
0	0	0	0	0	589	491	1021	0	0	0	
1	0	0	0	0	579	483	1021	0	0	0	
2	0	0	0	0	568	473	1021	0	0	0	
3	0	0	0	0	556	464	1021	0	0	0	
4	0	0	0	0	545	456	1021	0	0	0	
5	0	0	0	0	537	450	1021	0	0	0	
6	0	0	0	0	530	445	1021	0	0	0	
7	0	0	0	0	527	443	1021	0	0	0	
8	0	0	0	0	527	443	1021	0	0	0	
9	0	0	0	0	527	444	1021	0	0	0	
10	0	0	0	0	530	446	1021	0	0	0	
11	0	0	0	0	532	447	1021	0	0	0	
12	0	0	0	0	534	449	1021	0	0	0	
13	0	0	0	0	536	450	1021	0	0	0	
14	0	0	0	0	536	449	1021	0	0	0	
15	0	0	0	0	535	449	1021	0	0	0	
0	0	0	0	0	534	448	1021	0	0	0	
1	0	0	0	0	532	447	1021	0	0	0	
2	0	0	0	0	531	447	1021	0	0	0	
3	0	0	0	0	531	446	1021	0	0	0	
4	0	0	0	0	531	446	1021	0	0	0	
5	0	0	0	0	530	445	1021	0	0	0	
6	0	0	0	0	529	444	1021	0	0	0	
7	0	0	0	0	528	442	1021	0	0	0	
8	0	0	0	0	526	440	1021	0	0	0	
9	0	0	0	0	524	438	1021	0	0	0	
10	0	0	0	0	522	435	1021	0	0	0	
11	0	0	0	0	520	434	1021	0	0	0	
12	0	0	0	0	518	433	1021	0	0	0	
13	0	0	0	0	516	432	1021	0	0	0	
14	0	0	0	0	514	431	1020	0	0	0	
15	0	0	0	0	513	431	1021	0	0	0	
0	0	0	0	0	513	431	1021	0	0	0	
1	0	0	0	0	513	432	1021	0	0	0	
2	0	0	0	0	514	433	1021	0	0	0	
3	0	0	0	0	515	435	1021	0	0	0	
4	0	0	0	0	518	438	1021	0	0	0	
5	0	0	0	0	521	441	1021	0	0	0	
6	0	0	0	0	526	445	1021	0	0	0	
7	0	0	0	0	531	449	1021	0	0	0	
8	0	0	0	0	536	453	1021	0	0	0	
9	0	0	0	0	542	457	1021	0	0	0	
10	0	0	0	0	548	462	1021	0	0	0	
11	0	0	0	0	553	466	1021	0	0	0	
12	0	0	0	0	559	470	1021	0	0	0	
13	0	0	0	0	563	474	1020	0	0	0	
14	0	0	0	0	567	478	1021	0	0	0	
15	0	0	0	0	570	481	1021	0	0	0	
0	0	0	0	0	572	484	1021	0	0	0	
1	0	0	0	0	572	487	1021	0	0	0	
2	0	0	0	0	572	487	1021	0	0	0	
3	0	0	0	0	569	487	1021	0	0	0	
4	0	0	0	0	565	485	1021	0	0	0	
5	0	0	0	0	560	482	1021	0	0	0	
6	0	0	0	0	553	478	1021	0	0	0	
7	0	0	0	0	545	472	1021	0	0	0	
8	0	0	0	0	538	467	1021	0	0	0	
9	0	0	0	0	531	461	1021	0	0	0	
10	0	0	0	0	526	456	1021	0	0	0	
11	0	0	0	0	521	452	1021	0	0	0	
12	0	0	0	0	519	449	1021	0	0	0	
13	0	0	0	0	519	447	1021	0	0	0	
14	0	0	0	0	521	447	1021	0	0	0	
15	0	0	0	0	524	448	1021	0	0	0	
0	0	0	0	0	529	450	1021	0	0	0	
1	0	0	0	0	534	452	1021	0	0	0	
2	0	0	0	0	538	454	1021	0	0	0	
3	0	0	0	0	542	456	1021	0	0	0	
4	0	0	0	0	545	459	1021	0	0	0	
5	0	0	0	0	548	462	1021	0	0	0	
6	0	0	0	0	551	465	1021	0	0	0	
7	0	0	0	0	554	470	1021	0	0	0	
8	0	0	0	0	558	475	1021	0	0	0	
9	0	0	0	0	563	481	1021	0	0	0	
10	0	0	0	0	568	488	1021	0	0	0	
11	0	0	0	0	573	495	1021	0	0	0	
12	0	0	0	0	576	499	1021	0	0	0	
13	0	0	0	0	579	503	1021	0	0	0	
14	0	0	0	0	578	502	1021	0	0	0	
15	0	0	0	0	574	498	1021	0	0	0	
0	0	0	0	0	566	492	1021	0	0	0	
1	0	0	0	0	556	482	1021	0	0	0	
2	0	0	0	0	545	472	1021	0	0	0	
3	0	0	0	0	533	462	1021	0	0	0	
4	0	0	0	0	522	451	1021	0	0	0	
5	0	0	0	0	512	443	1021	0	0	0	
6	0	0	0	0	504	436	1021	0	0	0	
7	0	0	0	0	500	432	1021	0	0	0	
8	0	0	0	0	499	430	1021	0	0	0	
9	0	0	0	0	500	431	1021	0	0	0	
10	0	0	0	0	505	434	1021	0	0	0	
11	0	0	0	0	512	439	1021	0	0	0	
12	0	0	0	0	521	446	1021	0	0	0	
13	0	0	0	0	530	453	1021	0	0	0	
14	0	0	0	0	539	460	1021	0	0	0	
15	0	0	0	0	547	466	1021	0	0	0	
0	0	0	0	0	552	471	1021	0	0	0	
1	0	0	0	0	556	473	1021	0	0	0	
2	0	0	0	0	558	474	1021	0	0	0	
3	0	0	0	0	556	472	1021	0	0	0	
4	0	0	0	0	553	469	1020	0	0	0	
5	0	0	0	0	548	464	1021	0	0	0	
6	0	0	0	0	543	460	1021	0	0	0	
7	0	0	0	0	537	455	1021	0	0	0	
8	0	0	0	0	531	449	1021	0	0	0	
9	0	0	0	0	524	444	1021	0	0	0	
10	0	0	0	0	517	439	1020	0	0	0	
11	0	0	0	0	511	434	1021	0	0	0	
12	0	0	0	0	505	430	1021	0	0	0	
13	0	0	0	0	501	426	1021	0	0	0	
14	0	0	0	0	498	423	1021	0	0	0	
15	0	0	0	0	497	423	1021	0	0	0	
0	0	0	0	0	497	424	1021	0	0	0	
1	0	0	0	0	500	426	1021	0	0	0	
2	0	0	0	0	504	429	1021	0	0	0	
3	0	0	0	0	509	432	1021	0	0	0	
4	0	0	0	0	515	436	1021	0	0	0	
5	0	0	0	0	521	439	1021	0	0	0	
6	0	0	0	0	527	443	1021	0	0	0	
7	0	0	0	0	531	444	1021	0	0	0	
8	0	0	0	0	535	446	1020	0	0	0	
9	0	0	0	0	537	447	1021	0	0	0	
10	0	0	0	0	539	448	1021	0	0	0	
11	0	0	0	0	540	448	1021	0	0	0	
12	0	0	0	0	541	449	1020	0	0	0	
13	0	0	0	0	543	451	1021	0	0	0	
14	0	0	0	0	545	455	1020	0	0	0	
15	0	0	0	0	548	459	1021	0	0	0	
0	0	0	0	0	551	464	1021	0	0	0	
1	0	0	0	0	554	469	1021	0	0	0	
2	0	0	0	0	557	473	1021	0	0	0	
3	0	0	0	0	559	476	1021	0	0	0	
4	0	0	0	0	560	479	1021	0	0	0	
5	0	0	0	0	560	480	1021	0	0	0	
6	0	0	0	0	559	480	1021	0	0	0	
7	0	0	0	0	556	478	1021	0	0	0	
8	0	0	0	0	554	477	1021	0	0	0	
9	0	0	0	0	553	475	1021	0	0	0	
10	0	0	0	0	551	472	1021	0	0	0	
11	0	0	0	0	551	471	1021	0	0	0	
12	0	0	0	0	550	469	1021	0	0	0	
13	0	0	0	0	550	468	1021	0	0	0	
14	0	0	0	0	550	467	1021	0	0	0	
15	0	0	0	0	550	466	1021	0	0	0	
0	0	0	0	0	550	465	1021	0	0	0	
1	0	0	0	0	549	465	1021	0	0	0	
2	0	0	0	0	549	465	1021	0	0	0	
3	0	0	0	0	549	465	1021	0	0	0	
4	0	0	0	0	548	465	1021	0	0	0	
5	0	0	0	0	547	465	1021	0	0	0	
6	0	0	0	0	546	464	1021	0	0	0	
7	0	0	0	0	545	465	1021	0	0	0	
8	0	0	0	0	543	464	1021	0	0	0	
9	0	0	0	0	542	463	1021	0	0	0	
10	0	0	0	0	540	462	1021	0	0	0	
11	0	0	0	0	537	462	1021	0	0	0	
12	0	0	0	0	536	461	1021	0	0	0	
13	0	0	0	0	536	460	1021	0	0	0	
14	0	0	0	0	536	460	1021	0	0	0	
15	0	0	0	0	537	461	1021	0	0	0	
0	0	0	0	0	539	463	1021	0	0	0	
1	0	0	0	0	543	465	1021	0	0	0	
2	0	0	0	0	548	469	1021	0	0	0	
3	0	0	0	0	555	474	1021	0	0	0	
4	0	0	0	0	561	479	1021	0	0	0	
5	0	0	0	0	567	483	1021	0	0	0	
6	0	0	0	0	572	488	1021	0	0	0	
7	0	0	0	0	577	493	1021	0	0	0	
8	0	0	0	0	581	497	1021	0	0	0	
9	0	0	0	0	583	500	1021	0	0	0	
10	0	0	0	0	584	503	1021	0	0	0	
11	0	0	0	0	585	506	1021	0	0	0	
12	0	0	0	0	585	508	1021	0	0	0	
13	0	0	0	0	583	508	1021	0	0	0	
14	0	0	0	0	578	505	1021	0	0	0	
15	0	0	0	0	572	500	1021	0	0	0	
0	0	0	0	0	563	493	1021	0	0	0	
1	0	0	0	0	551	483	1021	0	0	0	
2	0	0	0	0	538	471	1021	0	0	0	
3	0	0	0	0	525	459	1021	0	0	0	
4	0	0	0	0	512	447	1020	0	0	0	
5	0	0	0	0	501	435	1021	0	0	0	
6	0	0	0	0	492	425	1021	0	0	0	
7	0	0	0	0	484	416	1021	0	0	0	
8	0	0	0	0	479	409	1021	0	0	0	
9	0	0	0	0	476	404	1021	0	0	0	
10	0	0	0	0	477	403	1021	0	0	0	
11	0	0	0	0	481	404	1021	0	0	0	
12	0	0	0	0	487	408	1021	0	0	0	
13	0	0	0	0	496	414	1021	0	0	0	
14	0	0	0	0	505	422	1020	0	0	0	
15	0	0	0	0	515	430	1021	0	0	0	
0	0	0	0	0	525	438	1021	0	0	0	
1	0	0	0	0	534	446	1021	0	0	0	
2	0	0	0	0	540	452	1021	0	0	0	
3	0	0	0	0	545	457	1020	0	0	0	
4	0	0	0	0	548	460	1021	0	0	0	
5	0	0	0	0	549	462	1021	0	0	0	
6	0	0	0	0	549	463	1021	0	0	0	
7	0	0	0	0	548	464	1021	0	0	0	
8	0	0	0	0	548	465	1021	0	0	0	
9	0	0	0	0	548	467	1021	0	0	0	
10	0	0	0	0	550	469	1021	0	0	0	
11	0	0	0	0	552	472	1021	0	0	0	
12	0	0	0	0	555	476	1021	0	0	0	
13	0	0	0	0	559	480	1021	0	0	0	
14	0	0	0	0	563	485	1021	0	0	0	
15	0	0	0	0	567	489	1021	0	0	0	
0	0	0	0	0	571	493	1021	0	0	0	
1	0	0	0	0	573	496	1021	0	0	0	
2	0	0	0	0	574	497	1021	0	0	0	
3	0	0	0	0	574	498	1021	0	0	0	
4	0	0	0	0	572	496	1021	0	0	0	
5	0	0	0	0	568	493	1021	0	0	0	
6	0	0	0	0	562	488	1021	0	0	0	
7	0	0	0	0	555	482	1021	0	0	0	
8	0	0	0	0	547	476	1021	0	0	0	
9	0	0	0	0	539	469	1021	0	0	0	
10	0	0	0	0	531	462	1021	0	0	0	
11	0	0	0	0	523	454	1021	0	0	0	
12	0	0	0	0	515	448	1021	0	0	0	
13	0	0	0	0	508	441	1021	0	0	0	
14	0	0	0	0	504	437	1021	0	0	0	
15	0	0	0	0	500	433	1021	0	0	0	
0	0	0	0	0	499	432	1021	0	0	0	
1	0	0	0	0	499	432	1021	0	0	0	
2	0	0	0	0	503	435	1021	0	0	0	
3	0	0	0	0	508	439	1021	0	0	0	
4	0	0	0	0	515	445	1021	0	0	0	
5	0	0	0	0	521	451	1021	0	0	0	
6	0	0	0	0	529	458	1021	0	0	0	
7	0	0	0	0	536	464	1021	0	0	0	
8	0	0	0	0	542	470	1021	0	0	0	
9	0	0	0	0	546	473	1021	0	0	0	
10	0	0	0	0	549	475	1021	0	0	0	
11	0	0	0	0	550	475	1021	0	0	0	
12	0	0	0	0	550	474	1021	0	0	0	
13	0	0	0	0	549	473	1021	0	0	0	
14	0	0	0	0	547	471	1021	0	0	0	
15	0	0	0	0	545	468	1021	0	0	0	
0	0	0	0	0	542	465	1021	0	0	0	
1	0	0	0	0	539	463	1021	0	0	0	
2	0	0	0	0	537	460	1021	0	0	0	
3	0	0	0	0	535	458	1021	0	0	0	
4	0	0	0	0	534	457	1021	0	0	0	
5	0	0	0	0	534	457	1021	0	0	0	
6	0	0	0	0	536	460	1021	0	0	0	
7	0	0	0	0	540	464	1021	0	0	0	
8	0	0	0	0	546	471	1021	0	0	0	
9	0	0	0	0	554	480	1021	0	0	0	
10	0	0	0	0	563	490	1021	0	0	0	
11	0	0	0	0	572	501	1021	0	0	0	
12	0	0	0	0	581	510	1021	0	0	0	
13	0	0	0	0	587	517	1021	0	0	0	
14	0	0	0	0	589	520	1021	0	0	0	
15	0	0	0	0	588	519	1021	0	0	0	
0	0	0	0	0	582	515	1021	0	0	0	
1	0	0	0	0	573	507	1021	0	0	0	
2	0	0	0	0	561	496	1021	0	0	0	
3	0	0	0	0	548	484	1021	0	0	0	
4	0	0	0	0	535	472	1021	0	0	0	
5	0	0	0	0	523	460	1021	0	0	0	
6	0	0	0	0	513	451	1021	0	0	0	
7	0	0	0	0	505	442	1021	0	0	0	
8	0	0	0	0	498	435	1021	0	0	0	
9	0	0	0	0	494	431	1020	0	0	0	
10	0	0	0	0	492	428	1021	0	0	0	
11	0	0	0	0	493	428	1021	0	0	0	
12	0	0	0	0	495	430	1021	0	0	0	
13	0	0	0	0	498	433	1021	0	0	0	
14	0	0	0	0	502	436	1021	0	0	0	
15	0	0	0	0	507	441	1021	0	0	0	
0	0	0	0	0	513	448	1021	0	0	0	
1	0	0	0	0	520	455	1021	0	0	0	
2	0	0	0	0	529	463	1021	0	0	0	
3	0	0	0	0	536	470	1021	0	0	0	
4	0	0	0	0	543	477	1021	0	0	0	
5	0	0	0	0	550	482	1021	0	0	0	
6	0	0	0	0	555	487	1021	0	0	0	
7	0	0	0	0	558	489	1021	0	0	0	
8	0	0	0	0	560	490	1021	0	0	0	
9	0	0	0	0	561	491	1021	0	0	0	
10	0	0	0	0	563	491	1021	0	0	0	
11	0	0	0	0	563	491	1021	0	0	0	
12	0	0	0	0	564	490	1021	0	0	0	
13	0	0	0	0	563	488	1021	0	0	0	
14	0	0	0	0	559	485	1021	0	0	0	
15	0	0	0	0	556	481	1021	0	0	0	
0	0	0	0	0	550	477	1021	0	0	0	
1	0	0	0	0	543	472	1021	0	0	0	
2	0	0	0	0	535	467	1021	0	0	0	
3	0	0	0	0	526	461	1021	0	0	0	
4	0	0	0	0	518	456	1021	0	0	0	
5	0	0	0	0	510	451	1021	0	0	0	
6	0	0	0	0	502	446	1021	0	0	0	
7	0	0	0	0	496	442	1021	0	0	0	
8	0	0	0	0	490	439	1021	0	0	0	
9	0	0	0	0	487	436	1021	0	0	0	
10	0	0	0	0	486	435	1021	0	0	0	
11	0	0	0	0	487	436	1021	0	0	0	
12	0	0	0	0	490	437	1021	0	0	0	
13	0	0	0	0	495	440	1021	0	0	0	
14	0	0	0	0	503	445	1021	0	0	0	
15	0	0	0	0	511	451	1021	0	0	0	
0	0	0	0	0	521	457	1021	0	0	0	
1	0	0	0	0	531	465	1021	0	0	0	
2	0	0	0	0	539	472	1021	0	0	0	
3	0	0	0	0	548	478	1021	0	0	0	
4	0	0	0	0	554	483	1021	0	0	0	
5	0	0	0	0	558	487	1021	0	0	0	
6	0	0	0	0	560	491	1021	0	0	0	
7	0	0	0	0	559	492	1021	0	0	0	
8	0	0	0	0	557	492	1021	0	0	0	
9	0	0	0	0	554	492	1021	0	0	0	
10	0	0	0	0	550	491	1021	0	0	0	
11	0	0	0	0	547	489	1021	0	0	0	
12	0	0	0	0	543	488	1021	0	0	0	
13	0	0	0	0	542	487	1021	0	0	0	
14	0	0	0	0	541	487	1021	0	0	0	
15	0	0	0	0	541	487	1021	0	0	0	
0	0	0	0	0	541	487	1021	0	0	0	
1	0	0	0	0	541	486	1021	0	0	0	
2	0	0	0	0	541	484	1021	0	0	0	
3	0	0	0	0	539	481	1021	0	0	0	
4	0	0	0	0	537	478	1021	0	0	0	
5	0	0	0	0	535	475	1021	0	0	0	
6	0	0	0	0	532	471	1021	0	0	0	
7	0	0	0	0	529	468	1021	0	0	0	
8	0	0	0	0	527	467	1021	0	0	0	
9	0	0	0	0	525	465	1021	0	0	0	
10	0	0	0	0	524	464	1021	0	0	0	
11	0	0	0	0	523	464	1021	0	0	0	
12	0	0	0	0	523	465	1021	0	0	0	
13	0	0	0	0	524	466	1021	0	0	0	
14	0	0	0	0	524	467	1021	0	0	0	
15	0	0	0	0	525	467	1021	0	0	0	
0	0	0	0	0	526	468	1021	0	0	0	
1	0	0	0	0	527	468	1021	0	0	0	
2	0	0	0	0	527	468	1021	0	0	0	
3	0	0	0	0	528	468	1021	0	0	0	
4	0	0	0	0	529	468	1021	0	0	0	
5	0	0	0	0	531	468	1021	0	0	0	
6	0	0	0	0	533	469	1021	0	0	0	
7	0	0	0	0	536	472	1021	0	0	0	
8	0	0	0	0	541	474	1021	0	0	0	
9	0	0	0	0	546	478	1021	0	0	0	
10	0	0	0	0	551	483	1021	0	0	0	
11	0	0	0	0	558	489	1021	0	0	0	
12	0	0	0	0	565	496	1021	0	0	0	
13	0	0	0	0	572	503	1021	0	0	0	
14	0	0	0	0	578	510	1020	0	0	0	
15	0	0	0	0	583	515	1021	0	0	0	
0	0	0	0	0	587	519	1021	0	0	0	
1	0	0	0	0	588	520	1021	0	0	0	
2	0	0	0	0	585	519	1021	0	0	0	
3	0	0	0	0	580	515	1021	0	0	0	
4	0	0	0	0	573	508	1021	0	0	0	
5	0	0	0	0	564	500	1021	0	0	0	
6	0	0	0	0	552	490	1021	0	0	0	
7	0	0	0	0	540	479	1021	0	0	0	
8	0	0	0	0	527	466	1021	0	0	0	
9	0	0	0	0	514	454	1021	0	0	0	
10	0	0	0	0	502	441	1021	0	0	0	
11	0	0	0	0	492	431	1021	0	0	0	
12	0	0	0	0	484	422	1021	0	0	0	
13	0	0	0	0	478	415	1020	0	0	0	
14	0	0	0	0	475	411	1021	0	0	0	
15	0	0	0	0	473	408	1021	0	0	0	
0	0	0	0	0	473	408	1021	0	0	0	
1	0	0	0	0	475	409	1021	0	0	0	
2	0	0	0	0	478	412	1021	0	0	0	
3	0	0	0	0	482	416	1021	0	0	0	
4	0	0	0	0	487	422	1021	0	0	0	
5	0	0	0	0	495	429	1021	0	0	0	
6	0	0	0	0	504	438	1021	0	0	0	
7	0	0	0	0	512	447	1021	0	0	0	
8	0	0	0	0	523	456	1021	0	0	0	
9	0	0	0	0	533	465	1021	0	0	0	
10	0	0	0	0	542	474	1021	0	0	0	
11	0	0	0	0	551	480	1021	0	0	0	
12	0	0	0	0	557	485	1021	0	0	0	
13	0	0	0	0	562	489	1021	0	0	0	
14	0	0	0	0	564	490	1021	0	0	0	
15	0	0	0	0	565	489	1021	0	0	0	
0	0	0	0	0	563	487	1021	0	0	0	
1	0	0	0	0	559	484	1021	0	0	0	
2	0	0	0	0	553	480	1021	0	0	0	
3	0	0	0	0	546	475	1021	0	0	0	
4	0	0	0	0	539	472	1021	0	0	0	
5	0	0	0	0	533	468	1021	0	0	0	
6	0	0	0	0	528	465	1021	0	0	0	
7	0	0	0	0	525	465	1021	0	0	0	
8	0	0	0	0	523	465	1021	0	0	0	
9	0	0	0	0	523	465	1021	0	0	0	
10	0	0	0	0	523	465	1021	0	0	0	
11	0	0	0	0	522	464	1021	0	0	0	
12	0	0	0	0	521	462	1021	0	0	0	
13	0	0	0	0	520	459	1021	0	0	0	
14	0	0	0	0	519	456	1021	0	0	0	
15	0	0	0	0	517	454	1021	0	0	0	
0	0	0	0	0	516	451	1021	0	0	0	
1	0	0	0	0	516	451	1021	0	0	0	
2	0	0	0	0	519	451	1021	0	0	0	
3	0	0	0	0	522	454	1021	0	0	0	
4	0	0	0	0	527	457	1021	0	0	0	
5	0	0	0	0	533	462	1020	0	0	0	
6	0	0	0	0	540	468	1021	0	0	0	
7	0	0	0	0	547	474	1021	0	0	0	
8	0	0	0	0	553	480	1021	0	0	0	
9	0	0	0	0	558	485	1021	0	0	0	
10	0	0	0	0	561	489	1021	0	0	0	
11	0	0	0	0	563	492	1021	0	0	0	
12	0	0	0	0	563	494	1021	0	0	0	
13	0	0	0	0	562	493	1021	0	0	0	
14	0	0	0	0	559	492	1021	0	0	0	
15	0	0	0	0	555	489	1021	0	0	0	
0	0	0	0	0	551	487	1021	0	0	0	
1	0	0	0	0	547	484	1021	0	0	0	
2	0	0	0	0	543	480	1021	0	0	0	
3	0	0	0	0	541	478	1021	0	0	0	
4	0	0	0	0	539	475	1021	0	0	0	
5	0	0	0	0	537	473	1021	0	0	0	
6	0	0	0	0	536	471	1021	0	0	0	
7	0	0	0	0	536	470	1021	0	0	0	
8	0	0	0	0	536	468	1021	0	0	0	
9	0	0	0	0	535	468	1020	0	0	0	
10	0	0	0	0	534	467	1021	0	0	0	
11	0	0	0	0	533	466	1021	0	0	0	
12	0	0	0	0	531	465	1021	0	0	0	
13	0	0	0	0	530	464	1021	0	0	0	
14	0	0	0	0	527	463	1021	0	0	0	
15	0	0	0	0	525	462	1021	0	0	0	
0	0	0	0	0	523	461	1021	0	0	0	
1	0	0	0	0	520	460	1021	0	0	0	
2	0	0	0	0	518	459	1021	0	0	0	
3	0	0	0	0	516	458	1021	0	0	0	
4	0	0	0	0	514	456	1021	0	0	0	
5	0	0	0	0	513	456	1021	0	0	0	
6	0	0	0	0	513	456	1021	0	0	0	
7	0	0	0	0	515	457	1021	0	0	0	
8	0	0	0	0	518	459	1021	0	0	0	
9	0	0	0	0	523	462	1021	0	0	0	
10	0	0	0	0	529	465	1021	0	0	0	
11	0	0	0	0	536	471	1021	0	0	0	
12	0	0	0	0	543	476	1021	0	0	0	
13	0	0	0	0	551	481	1021	0	0	0	
14	0	0	0	0	556	484	1021	0	0	0	
15	0	0	0	0	560	487	1021	0	0	0	
0	0	0	0	0	560	487	1021	0	0	0	
1	0	0	0	0	558	484	1021	0	0	0	
2	0	0	0	0	553	480	1021	0	0	0	
3	0	0	0	0	546	475	1021	0	0	0	
4	0	0	0	0	537	467	1021	0	0	0	
5	0	0	0	0	526	459	1021	0	0	0	
6	0	0	0	0	514	450	1021	0	0	0	
7	0	0	0	0	500	439	1021	0	0	0	
8	0	0	0	0	486	428	1021	0	0	0	
9	0	0	0	0	470	415	1021	0	0	0	
10	0	0	0	0	454	401	1021	0	0	0	
11	0	0	0	0	437	386	1021	0	0	0	
12	0	0	0	0	419	370	1021	0	0	0	
13	0	0	0	0	403	354	1021	0	0	0	
14	0	0	0	0	388	339	1021	0	0	0	
15	0	0	0	0	374	324	1021	0	0	0	
0	0	0	0	0	362	310	1021	0	0	0	
1	0	0	0	0	351	297	1021	0	0	0	
2	0	0	0	0	341	283	1021	0	0	0	
3	0	0	0	0	332	271	1021	0	0	0	
4	0	0	0	0	324	260	1021	0	0	0	
5	0	0	0	0	316	249	1021	0	0	0	
6	0	0	0	0	310	240	1021	0	0	0	
7	0	0	0	0	303	231	1021	0	0	0	
8	0	0	0	0	297	224	1021	0	0	0	
9	0	0	0	0	292	218	1021	0	0	0	
10	0	0	0	0	289	215	1021	0	0	0	
11	0	0	0	0	287	213	1021	0	0	0	
12	0	0	0	0	287	214	1021	0	0	0	
