# OpenSignals Text File Format. Version 1
# {"": {"position": 0, "device": "", "device name": "", "device connection": "", "sampling rate": 1000, "resolution": [4, 1, 1, 1, 1, 10, 10, 10, 10, 6, 6], "firmware version": 1281, "comments": "", "keywords": "", "mode": 0, "sync interval": 2, "date": "", "time": "", "channels": [1, 2, 3, 4, 5, 6], "sensor": ["RAW", "RAW", "RAW", "RAW", "RAW", "RAW"], "label": ["A1", "A2", "A3", "A4", "A5", "A6"], "column": ["nSeq", "I1", "I2", "O1", "O2", "A1", "A2", "A3", "A4", "A5", "A6"], "special": [{}, {}, {}, {}, {}, {}], "digital IO": [0, 0, 1, 1], "convertedValues": 0}}
# EndOfHeader
0	0	0	0	0	563	518	0	535	0	0	
1	0	0	0	0	559	534	0	532	0	0	
2	0	0	0	0	556	548	0	524	0	0	
3	0	0	0	0	553	558	0	513	0	0	
4	0	0	0	0	551	562	0	500	0	0	
5	0	0	0	0	552	562	0	486	0	0	
6	0	0	0	0	553	556	0	474	0	0	
7	0	0	0	0	555	545	0	461	0	0	
8	0	0	0	0	558	530	0	452	0	0	
9	0	0	0	0	562	513	0	447	0	0	
10	0	0	0	0	565	495	0	446	0	0	
11	0	0	0	0	569	478	0	449	0	0	
12	0	0	0	0	572	464	0	456	0	0	
13	0	0	0	0	575	454	0	467	0	0	
14	0	0	0	0	575	448	0	480	0	0	
15	0	0	0	0	575	449	0	492	0	0	
0	0	0	0	0	574	455	0	505	0	0	
1	0	0	0	0	572	465	0	516	0	0	
2	0	0	0	0	569	480	0	525	0	0	
3	0	0	0	0	565	496	0	530	0	0	
4	0	0	0	0	561	514	0	530	0	0	
5	0	0	0	0	557	531	0	527	0	0	
6	0	0	0	0	553	544	0	519	0	0	
7	0	0	0	0	550	555	0	509	0	0	
8	0	0	0	0	548	559	0	497	0	0	
9	0	0	0	0	548	559	0	483	0	0	
10	0	0	0	0	548	552	0	471	0	0	
11	0	0	0	0	550	542	0	459	0	0	
12	0	0	0	0	552	527	0	451	0	0	
13	0	0	0	0	555	509	0	446	0	0	
14	0	0	0	0	559	492	0	444	0	0	
15	0	0	0	0	563	475	0	448	0	0	
0	0	0	0	0	566	461	0	455	0	0	
1	0	0	0	0	568	451	0	465	0	0	
2	0	0	0	0	569	446	0	477	0	0	
3	0	0	0	0	570	446	0	489	0	0	
4	0	0	0	0	569	452	0	502	0	0	
5	0	0	0	0	567	463	0	512	0	0	
6	0	0	0	0	564	477	0	520	0	0	
7	0	0	0	0	561	494	0	525	0	0	
8	0	0	0	0	558	511	0	525	0	0	
9	0	0	0	0	553	527	0	522	0	0	
10	0	0	0	0	550	540	0	514	0	0	
11	0	0	0	0	546	550	0	504	0	0	
12	0	0	0	0	544	554	0	491	0	0	
13	0	0	0	0	543	553	0	478	0	0	
14	0	0	0	0	544	546	0	465	0	0	
15	0	0	0	0	546	535	0	454	0	0	
0	0	0	0	0	548	519	0	444	0	0	
1	0	0	0	0	551	502	0	440	0	0	
2	0	0	0	0	555	483	0	438	0	0	
3	0	0	0	0	558	466	0	441	0	0	
4	0	0	0	0	561	451	0	448	0	0	
5	0	0	0	0	564	441	0	459	0	0	
6	0	0	0	0	565	435	0	471	0	0	
7	0	0	0	0	566	435	0	484	0	0	
8	0	0	0	0	565	441	0	497	0	0	
9	0	0	0	0	563	451	0	508	0	0	
10	0	0	0	0	560	466	0	516	0	0	
11	0	0	0	0	558	484	0	521	0	0	
12	0	0	0	0	553	501	0	523	0	0	
13	0	0	0	0	550	518	0	520	0	0	
14	0	0	0	0	546	532	0	513	0	0	
15	0	0	0	0	543	542	0	504	0	0	
0	0	0	0	0	543	548	0	491	0	0	
1	0	0	0	0	542	547	0	478	0	0	
2	0	0	0	0	543	542	0	466	0	0	
3	0	0	0	0	544	531	0	454	0	0	
4	0	0	0	0	547	516	0	445	0	0	
5	0	0	0	0	551	499	0	440	0	0	
6	0	0	0	0	554	481	0	438	0	0	
7	0	0	0	0	558	465	0	441	0	0	
8	0	0	0	0	561	450	0	446	0	0	
9	0	0	0	0	563	440	0	455	0	0	
10	0	0	0	0	564	435	0	466	0	0	
11	0	0	0	0	564	435	0	479	0	0	
12	0	0	0	0	563	440	0	492	0	0	
13	0	0	0	0	561	451	0	502	0	0	
14	0	0	0	0	558	466	0	511	0	0	
15	0	0	0	0	554	483	0	516	0	0	
0	0	0	0	0	550	501	0	517	0	0	
1	0	0	0	0	546	519	0	514	0	0	
2	0	0	0	0	543	533	0	508	0	0	
3	0	0	0	0	540	543	0	498	0	0	
4	0	0	0	0	538	548	0	487	0	0	
5	0	0	0	0	538	548	0	473	0	0	
6	0	0	0	0	539	542	0	462	0	0	
7	0	0	0	0	541	531	0	451	0	0	
8	0	0	0	0	543	515	0	442	0	0	
9	0	0	0	0	546	498	0	437	0	0	
10	0	0	0	0	550	479	0	435	0	0	
11	0	0	0	0	554	462	0	439	0	0	
12	0	0	0	0	557	447	0	444	0	0	
13	0	0	0	0	559	436	0	454	0	0	
14	0	0	0	0	560	430	0	465	0	0	
15	0	0	0	0	561	429	0	477	0	0	
0	0	0	0	0	560	434	0	489	0	0	
1	0	0	0	0	557	444	0	499	0	0	
2	0	0	0	0	554	458	0	507	0	0	
3	0	0	0	0	550	475	0	512	0	0	
4	0	0	0	0	546	492	0	513	0	0	
5	0	0	0	0	542	510	0	510	0	0	
6	0	0	0	0	539	524	0	503	0	0	
7	0	0	0	0	535	535	0	493	0	0	
8	0	0	0	0	534	540	0	481	0	0	
9	0	0	0	0	533	540	0	468	0	0	
10	0	0	0	0	533	535	0	456	0	0	
11	0	0	0	0	535	524	0	445	0	0	
12	0	0	0	0	537	511	0	437	0	0	
13	0	0	0	0	540	493	0	432	0	0	
14	0	0	0	0	543	476	0	431	0	0	
15	0	0	0	0	547	459	0	434	0	0	
0	0	0	0	0	550	444	0	440	0	0	
1	0	0	0	0	552	433	0	449	0	0	
2	0	0	0	0	554	427	0	461	0	0	
3	0	0	0	0	555	427	0	472	0	0	
4	0	0	0	0	554	432	0	485	0	0	
5	0	0	0	0	552	443	0	496	0	0	
6	0	0	0	0	550	457	0	504	0	0	
7	0	0	0	0	546	473	0	509	0	0	
8	0	0	0	0	543	492	0	509	0	0	
9	0	0	0	0	539	508	0	506	0	0	
10	0	0	0	0	535	522	0	498	0	0	
11	0	0	0	0	532	532	0	489	0	0	
12	0	0	0	0	531	537	0	476	0	0	
13	0	0	0	0	530	537	0	463	0	0	
14	0	0	0	0	531	531	0	451	0	0	
15	0	0	0	0	532	519	0	440	0	0	
0	0	0	0	0	535	505	0	432	0	0	
1	0	0	0	0	537	488	0	428	0	0	
2	0	0	0	0	540	470	0	427	0	0	
3	0	0	0	0	544	453	0	431	0	0	
4	0	0	0	0	546	439	0	438	0	0	
5	0	0	0	0	549	428	0	449	0	0	
6	0	0	0	0	550	423	0	461	0	0	
7	0	0	0	0	550	423	0	473	0	0	
8	0	0	0	0	550	429	0	487	0	0	
9	0	0	0	0	547	439	0	497	0	0	
10	0	0	0	0	545	453	0	505	0	0	
11	0	0	0	0	543	471	0	509	0	0	
12	0	0	0	0	539	488	0	509	0	0	
13	0	0	0	0	536	505	0	506	0	0	
14	0	0	0	0	533	519	0	497	0	0	
15	0	0	0	0	531	529	0	487	0	0	
0	0	0	0	0	530	534	0	475	0	0	
1	0	0	0	0	530	533	0	462	0	0	
2	0	0	0	0	531	527	0	449	0	0	
3	0	0	0	0	532	516	0	438	0	0	
4	0	0	0	0	534	502	0	430	0	0	
5	0	0	0	0	537	485	0	425	0	0	
6	0	0	0	0	540	466	0	424	0	0	
7	0	0	0	0	543	450	0	428	0	0	
8	0	0	0	0	545	436	0	435	0	0	
9	0	0	0	0	547	426	0	445	0	0	
10	0	0	0	0	548	421	0	457	0	0	
11	0	0	0	0	548	422	0	470	0	0	
12	0	0	0	0	547	428	0	483	0	0	
13	0	0	0	0	544	439	0	493	0	0	
14	0	0	0	0	542	455	0	501	0	0	
15	0	0	0	0	539	472	0	506	0	0	
0	0	0	0	0	535	489	0	507	0	0	
1	0	0	0	0	532	507	0	504	0	0	
2	0	0	0	0	529	521	0	496	0	0	
3	0	0	0	0	527	531	0	486	0	0	
4	0	0	0	0	525	536	0	475	0	0	
5	0	0	0	0	525	535	0	461	0	0	
6	0	0	0	0	526	529	0	449	0	0	
7	0	0	0	0	528	518	0	439	0	0	
8	0	0	0	0	531	504	0	430	0	0	
9	0	0	0	0	533	486	0	425	0	0	
10	0	0	0	0	537	468	0	424	0	0	
11	0	0	0	0	540	451	0	428	0	0	
12	0	0	0	0	543	437	0	435	0	0	
13	0	0	0	0	546	427	0	445	0	0	
14	0	0	0	0	547	423	0	456	0	0	
15	0	0	0	0	547	423	0	468	0	0	
0	0	0	0	0	547	429	0	481	0	0	
1	0	0	0	0	545	440	0	491	0	0	
2	0	0	0	0	543	455	0	499	0	0	
3	0	0	0	0	540	473	0	504	0	0	
4	0	0	0	0	537	490	0	504	0	0	
5	0	0	0	0	534	508	0	501	0	0	
6	0	0	0	0	531	521	0	494	0	0	
7	0	0	0	0	528	532	0	484	0	0	
8	0	0	0	0	527	536	0	472	0	0	
9	0	0	0	0	527	535	0	459	0	0	
10	0	0	0	0	528	529	0	448	0	0	
11	0	0	0	0	530	518	0	436	0	0	
12	0	0	0	0	532	503	0	428	0	0	
13	0	0	0	0	536	485	0	423	0	0	
14	0	0	0	0	539	467	0	423	0	0	
15	0	0	0	0	542	449	0	426	0	0	
0	0	0	0	0	545	435	0	434	0	0	
1	0	0	0	0	547	425	0	444	0	0	
2	0	0	0	0	548	420	0	456	0	0	
3	0	0	0	0	548	420	0	469	0	0	
4	0	0	0	0	548	427	0	482	0	0	
5	0	0	0	0	546	438	0	492	0	0	
6	0	0	0	0	544	454	0	500	0	0	
7	0	0	0	0	542	472	0	505	0	0	
8	0	0	0	0	539	490	0	507	0	0	
9	0	0	0	0	536	508	0	504	0	0	
10	0	0	0	0	534	523	0	498	0	0	
11	0	0	0	0	532	535	0	488	0	0	
12	0	0	0	0	532	540	0	477	0	0	
13	0	0	0	0	533	540	0	465	0	0	
14	0	0	0	0	535	535	0	454	0	0	
15	0	0	0	0	537	524	0	443	0	0	
0	0	0	0	0	541	510	0	435	0	0	
1	0	0	0	0	545	493	0	431	0	0	
2	0	0	0	0	549	474	0	430	0	0	
3	0	0	0	0	553	457	0	434	0	0	
4	0	0	0	0	557	444	0	440	0	0	
5	0	0	0	0	559	433	0	450	0	0	
6	0	0	0	0	560	428	0	461	0	0	
7	0	0	0	0	561	428	0	474	0	0	
8	0	0	0	0	560	434	0	486	0	0	
9	0	0	0	0	557	445	0	496	0	0	
10	0	0	0	0	554	460	0	504	0	0	
11	0	0	0	0	550	478	0	508	0	0	
12	0	0	0	0	546	496	0	509	0	0	
13	0	0	0	0	542	513	0	507	0	0	
14	0	0	0	0	538	528	0	499	0	0	
15	0	0	0	0	536	539	0	489	0	0	
0	0	0	0	0	535	545	0	478	0	0	
1	0	0	0	0	534	545	0	465	0	0	
2	0	0	0	0	536	540	0	454	0	0	
3	0	0	0	0	538	529	0	443	0	0	
4	0	0	0	0	541	515	0	435	0	0	
5	0	0	0	0	544	498	0	431	0	0	
6	0	0	0	0	548	480	0	430	0	0	
7	0	0	0	0	552	464	0	435	0	0	
8	0	0	0	0	555	450	0	440	0	0	
9	0	0	0	0	557	439	0	451	0	0	
10	0	0	0	0	559	435	0	462	0	0	
11	0	0	0	0	559	435	0	475	0	0	
12	0	0	0	0	558	441	0	488	0	0	
13	0	0	0	0	556	451	0	499	0	0	
14	0	0	0	0	553	466	0	507	0	0	
15	0	0	0	0	550	483	0	512	0	0	
0	0	0	0	0	546	500	0	513	0	0	
1	0	0	0	0	543	517	0	511	0	0	
2	0	0	0	0	540	531	0	504	0	0	
3	0	0	0	0	537	542	0	493	0	0	
4	0	0	0	0	536	547	0	481	0	0	
5	0	0	0	0	536	546	0	468	0	0	
6	0	0	0	0	537	540	0	456	0	0	
7	0	0	0	0	539	529	0	445	0	0	
8	0	0	0	0	542	515	0	436	0	0	
9	0	0	0	0	545	497	0	431	0	0	
10	0	0	0	0	548	479	0	430	0	0	
11	0	0	0	0	551	462	0	433	0	0	
12	0	0	0	0	555	447	0	440	0	0	
13	0	0	0	0	556	437	0	449	0	0	
14	0	0	0	0	558	432	0	462	0	0	
15	0	0	0	0	557	432	0	474	0	0	
0	0	0	0	0	556	438	0	487	0	0	
1	0	0	0	0	553	448	0	497	0	0	
2	0	0	0	0	550	463	0	505	0	0	
3	0	0	0	0	546	479	0	510	0	0	
4	0	0	0	0	542	496	0	510	0	0	
5	0	0	0	0	538	513	0	507	0	0	
6	0	0	0	0	535	527	0	499	0	0	
7	0	0	0	0	532	537	0	488	0	0	
8	0	0	0	0	531	542	0	476	0	0	
9	0	0	0	0	531	540	0	463	0	0	
10	0	0	0	0	531	534	0	450	0	0	
11	0	0	0	0	533	523	0	439	0	0	
12	0	0	0	0	536	508	0	430	0	0	
13	0	0	0	0	538	491	0	425	0	0	
14	0	0	0	0	542	472	0	425	0	0	
15	0	0	0	0	544	455	0	428	0	0	
0	0	0	0	0	547	441	0	435	0	0	
1	0	0	0	0	549	431	0	445	0	0	
2	0	0	0	0	551	426	0	457	0	0	
3	0	0	0	0	551	426	0	471	0	0	
4	0	0	0	0	550	432	0	483	0	0	
5	0	0	0	0	547	443	0	494	0	0	
6	0	0	0	0	545	457	0	502	0	0	
7	0	0	0	0	542	474	0	507	0	0	
8	0	0	0	0	539	492	0	508	0	0	
9	0	0	0	0	536	508	0	505	0	0	
10	0	0	0	0	533	522	0	498	0	0	
11	0	0	0	0	531	532	0	488	0	0	
12	0	0	0	0	530	537	0	476	0	0	
13	0	0	0	0	531	536	0	463	0	0	
14	0	0	0	0	531	530	0	451	0	0	
15	0	0	0	0	533	519	0	439	0	0	
0	0	0	0	0	536	504	0	430	0	0	
1	0	0	0	0	538	486	0	425	0	0	
2	0	0	0	0	541	468	0	423	0	0	
3	0	0	0	0	543	451	0	426	0	0	
4	0	0	0	0	546	437	0	433	0	0	
5	0	0	0	0	548	427	0	443	0	0	
6	0	0	0	0	549	422	0	454	0	0	
7	0	0	0	0	549	423	0	467	0	0	
8	0	0	0	0	548	429	0	480	0	0	
9	0	0	0	0	546	440	0	490	0	0	
10	0	0	0	0	543	455	0	498	0	0	
11	0	0	0	0	540	473	0	503	0	0	
12	0	0	0	0	536	491	0	504	0	0	
13	0	0	0	0	532	508	0	502	0	0	
14	0	0	0	0	528	523	0	495	0	0	
15	0	0	0	0	526	534	0	485	0	0	
0	0	0	0	0	524	540	0	473	0	0	
1	0	0	0	0	524	539	0	460	0	0	
2	0	0	0	0	525	533	0	448	0	0	
3	0	0	0	0	527	522	0	437	0	0	
4	0	0	0	0	529	507	0	428	0	0	
5	0	0	0	0	532	489	0	423	0	0	
6	0	0	0	0	536	471	0	421	0	0	
7	0	0	0	0	539	454	0	423	0	0	
8	0	0	0	0	543	440	0	430	0	0	
9	0	0	0	0	545	429	0	440	0	0	
10	0	0	0	0	547	423	0	451	0	0	
11	0	0	0	0	547	424	0	463	0	0	
12	0	0	0	0	547	430	0	476	0	0	
13	0	0	0	0	545	441	0	486	0	0	
14	0	0	0	0	543	456	0	495	0	0	
15	0	0	0	0	540	473	0	500	0	0	
0	0	0	0	0	537	491	0	501	0	0	
1	0	0	0	0	534	507	0	499	0	0	
2	0	0	0	0	530	521	0	492	0	0	
3	0	0	0	0	527	531	0	481	0	0	
4	0	0	0	0	525	536	0	470	0	0	
5	0	0	0	0	524	535	0	457	0	0	
6	0	0	0	0	524	529	0	444	0	0	
7	0	0	0	0	525	518	0	433	0	0	
8	0	0	0	0	526	503	0	424	0	0	
9	0	0	0	0	528	486	0	418	0	0	
10	0	0	0	0	531	467	0	416	0	0	
11	0	0	0	0	535	450	0	419	0	0	
12	0	0	0	0	537	436	0	425	0	0	
13	0	0	0	0	540	425	0	434	0	0	
14	0	0	0	0	541	419	0	447	0	0	
15	0	0	0	0	541	419	0	459	0	0	
0	0	0	0	0	540	425	0	472	0	0	
1	0	0	0	0	539	435	0	483	0	0	
2	0	0	0	0	536	449	0	492	0	0	
3	0	0	0	0	534	467	0	496	0	0	
4	0	0	0	0	530	484	0	498	0	0	
5	0	0	0	0	526	500	0	495	0	0	
6	0	0	0	0	523	515	0	488	0	0	
7	0	0	0	0	520	525	0	478	0	0	
8	0	0	0	0	518	529	0	467	0	0	
9	0	0	0	0	517	529	0	454	0	0	
10	0	0	0	0	518	522	0	441	0	0	
11	0	0	0	0	519	511	0	431	0	0	
12	0	0	0	0	521	497	0	422	0	0	
13	0	0	0	0	524	479	0	416	0	0	
14	0	0	0	0	527	461	0	415	0	0	
15	0	0	0	0	529	444	0	419	0	0	
0	0	0	0	0	533	429	0	425	0	0	
1	0	0	0	0	535	419	0	435	0	0	
2	0	0	0	0	536	414	0	447	0	0	
3	0	0	0	0	537	414	0	460	0	0	
4	0	0	0	0	536	420	0	473	0	0	
5	0	0	0	0	535	432	0	483	0	0	
6	0	0	0	0	533	447	0	492	0	0	
7	0	0	0	0	531	464	0	497	0	0	
8	0	0	0	0	528	483	0	498	0	0	
9	0	0	0	0	525	500	0	495	0	0	
10	0	0	0	0	522	515	0	488	0	0	
11	0	0	0	0	520	525	0	478	0	0	
12	0	0	0	0	519	530	0	466	0	0	
13	0	0	0	0	519	530	0	453	0	0	
14	0	0	0	0	519	524	0	441	0	0	
15	0	0	0	0	521	513	0	430	0	0	
0	0	0	0	0	523	498	0	422	0	0	
1	0	0	0	0	526	481	0	416	0	0	
2	0	0	0	0	529	463	0	415	0	0	
3	0	0	0	0	532	446	0	419	0	0	
4	0	0	0	0	535	431	0	426	0	0	
5	0	0	0	0	537	422	0	436	0	0	
6	0	0	0	0	539	415	0	449	0	0	
7	0	0	0	0	539	415	0	461	0	0	
8	0	0	0	0	538	421	0	474	0	0	
9	0	0	0	0	536	432	0	485	0	0	
10	0	0	0	0	534	446	0	494	0	0	
11	0	0	0	0	531	463	0	499	0	0	
12	0	0	0	0	527	481	0	499	0	0	
13	0	0	0	0	524	498	0	496	0	0	
14	0	0	0	0	521	512	0	488	0	0	
15	0	0	0	0	518	523	0	478	0	0	
0	0	0	0	0	517	528	0	466	0	0	
1	0	0	0	0	516	527	0	453	0	0	
2	0	0	0	0	518	522	0	441	0	0	
3	0	0	0	0	519	511	0	429	0	0	
4	0	0	0	0	523	496	0	421	0	0	
5	0	0	0	0	526	478	0	416	0	0	
6	0	0	0	0	529	460	0	415	0	0	
7	0	0	0	0	534	442	0	419	0	0	
8	0	0	0	0	537	428	0	426	0	0	
9	0	0	0	0	540	417	0	437	0	0	
10	0	0	0	0	541	412	0	449	0	0	
11	0	0	0	0	542	411	0	463	0	0	
12	0	0	0	0	541	417	0	476	0	0	
13	0	0	0	0	540	428	0	487	0	0	
14	0	0	0	0	536	444	0	496	0	0	
15	0	0	0	0	534	462	0	501	0	0	
0	0	0	0	0	530	480	0	503	0	0	
1	0	0	0	0	527	498	0	500	0	0	
2	0	0	0	0	523	512	0	492	0	0	
3	0	0	0	0	520	524	0	482	0	0	
4	0	0	0	0	519	529	0	469	0	0	
5	0	0	0	0	519	529	0	456	0	0	
6	0	0	0	0	519	523	0	444	0	0	
7	0	0	0	0	520	512	0	432	0	0	
8	0	0	0	0	522	497	0	424	0	0	
9	0	0	0	0	525	480	0	419	0	0	
10	0	0	0	0	527	461	0	418	0	0	
11	0	0	0	0	530	444	0	422	0	0	
12	0	0	0	0	533	428	0	428	0	0	
13	0	0	0	0	534	417	0	438	0	0	
14	0	0	0	0	535	411	0	450	0	0	
15	0	0	0	0	534	410	0	463	0	0	
0	0	0	0	0	532	415	0	475	0	0	
1	0	0	0	0	530	425	0	485	0	0	
2	0	0	0	0	528	440	0	492	0	0	
3	0	0	0	0	524	457	0	496	0	0	
4	0	0	0	0	521	474	0	497	0	0	
5	0	0	0	0	518	492	0	493	0	0	
6	0	0	0	0	515	506	0	486	0	0	
7	0	0	0	0	514	518	0	475	0	0	
8	0	0	0	0	513	523	0	463	0	0	
9	0	0	0	0	514	523	0	450	0	0	
10	0	0	0	0	516	518	0	438	0	0	
11	0	0	0	0	519	507	0	427	0	0	
12	0	0	0	0	522	493	0	419	0	0	
13	0	0	0	0	525	475	0	414	0	0	
14	0	0	0	0	530	457	0	414	0	0	
15	0	0	0	0	534	440	0	417	0	0	
0	0	0	0	0	537	426	0	424	0	0	
1	0	0	0	0	540	415	0	435	0	0	
2	0	0	0	0	541	410	0	447	0	0	
3	0	0	0	0	541	410	0	460	0	0	
4	0	0	0	0	540	416	0	473	0	0	
5	0	0	0	0	538	427	0	484	0	0	
6	0	0	0	0	535	441	0	492	0	0	
7	0	0	0	0	532	459	0	497	0	0	
8	0	0	0	0	528	477	0	498	0	0	
9	0	0	0	0	524	494	0	495	0	0	
10	0	0	0	0	520	509	0	487	0	0	
11	0	0	0	0	517	519	0	476	0	0	
12	0	0	0	0	515	525	0	463	0	0	
13	0	0	0	0	515	524	0	450	0	0	
14	0	0	0	0	515	518	0	438	0	0	
15	0	0	0	0	517	507	0	426	0	0	
0	0	0	0	0	519	492	0	417	0	0	
1	0	0	0	0	522	474	0	413	0	0	
2	0	0	0	0	526	456	0	411	0	0	
3	0	0	0	0	529	439	0	415	0	0	
4	0	0	0	0	532	425	0	421	0	0	
5	0	0	0	0	535	414	0	431	0	0	
6	0	0	0	0	536	408	0	444	0	0	
7	0	0	0	0	537	408	0	456	0	0	
8	0	0	0	0	536	414	0	470	0	0	
9	0	0	0	0	534	424	0	480	0	0	
10	0	0	0	0	531	438	0	488	0	0	
11	0	0	0	0	527	455	0	494	0	0	
12	0	0	0	0	524	473	0	494	0	0	
13	0	0	0	0	520	490	0	491	0	0	
14	0	0	0	0	516	504	0	483	0	0	
15	0	0	0	0	513	515	0	473	0	0	
0	0	0	0	0	511	519	0	461	0	0	
1	0	0	0	0	511	519	0	447	0	0	
2	0	0	0	0	512	513	0	435	0	0	
3	0	0	0	0	513	502	0	423	0	0	
4	0	0	0	0	515	487	0	415	0	0	
5	0	0	0	0	519	468	0	411	0	0	
6	0	0	0	0	523	451	0	409	0	0	
7	0	0	0	0	527	433	0	413	0	0	
8	0	0	0	0	531	418	0	420	0	0	
9	0	0	0	0	534	407	0	430	0	0	
10	0	0	0	0	536	401	0	442	0	0	
11	0	0	0	0	536	400	0	455	0	0	
12	0	0	0	0	535	406	0	468	0	0	
13	0	0	0	0	533	417	0	479	0	0	
14	0	0	0	0	529	432	0	487	0	0	
15	0	0	0	0	526	448	0	493	0	0	
0	0	0	0	0	522	467	0	494	0	0	
1	0	0	0	0	518	485	0	492	0	0	
2	0	0	0	0	514	500	0	484	0	0	
3	0	0	0	0	511	511	0	474	0	0	
4	0	0	0	0	509	517	0	462	0	0	
5	0	0	0	0	508	518	0	448	0	0	
6	0	0	0	0	508	512	0	435	0	0	
7	0	0	0	0	510	501	0	423	0	0	
8	0	0	0	0	511	487	0	414	0	0	
9	0	0	0	0	514	468	0	408	0	0	
10	0	0	0	0	517	450	0	406	0	0	
11	0	0	0	0	520	433	0	408	0	0	
12	0	0	0	0	523	417	0	414	0	0	
13	0	0	0	0	525	406	0	424	0	0	
14	0	0	0	0	526	400	0	435	0	0	
15	0	0	0	0	526	399	0	448	0	0	
0	0	0	0	0	524	404	0	460	0	0	
1	0	0	0	0	522	413	0	470	0	0	
2	0	0	0	0	519	427	0	479	0	0	
3	0	0	0	0	515	442	0	483	0	0	
4	0	0	0	0	511	460	0	484	0	0	
5	0	0	0	0	507	476	0	481	0	0	
6	0	0	0	0	503	489	0	473	0	0	
7	0	0	0	0	500	499	0	463	0	0	
8	0	0	0	0	498	505	0	450	0	0	
9	0	0	0	0	497	504	0	437	0	0	
10	0	0	0	0	497	498	0	425	0	0	
11	0	0	0	0	498	487	0	413	0	0	
12	0	0	0	0	501	473	0	405	0	0	
13	0	0	0	0	504	456	0	400	0	0	
14	0	0	0	0	508	439	0	399	0	0	
15	0	0	0	0	512	422	0	403	0	0	
0	0	0	0	0	515	408	0	410	0	0	
1	0	0	0	0	519	398	0	421	0	0	
2	0	0	0	0	521	393	0	434	0	0	
3	0	0	0	0	522	393	0	448	0	0	
4	0	0	0	0	522	399	0	461	0	0	
5	0	0	0	0	520	409	0	472	0	0	
6	0	0	0	0	519	424	0	480	0	0	
7	0	0	0	0	515	441	0	486	0	0	
8	0	0	0	0	512	460	0	487	0	0	
9	0	0	0	0	508	477	0	484	0	0	
10	0	0	0	0	505	492	0	477	0	0	
11	0	0	0	0	503	503	0	467	0	0	
12	0	0	0	0	502	508	0	454	0	0	
13	0	0	0	0	502	508	0	441	0	0	
14	0	0	0	0	503	503	0	429	0	0	
15	0	0	0	0	504	493	0	418	0	0	
0	0	0	0	0	507	479	0	409	0	0	
1	0	0	0	0	511	462	0	404	0	0	
2	0	0	0	0	515	444	0	403	0	0	
3	0	0	0	0	519	427	0	408	0	0	
4	0	0	0	0	523	413	0	415	0	0	
5	0	0	0	0	525	402	0	425	0	0	
6	0	0	0	0	527	396	0	439	0	0	
7	0	0	0	0	527	396	0	452	0	0	
8	0	0	0	0	527	402	0	465	0	0	
9	0	0	0	0	525	412	0	476	0	0	
10	0	0	0	0	522	427	0	485	0	0	
11	0	0	0	0	518	444	0	490	0	0	
12	0	0	0	0	515	462	0	492	0	0	
13	0	0	0	0	510	479	0	488	0	0	
14	0	0	0	0	507	494	0	481	0	0	
15	0	0	0	0	504	504	0	470	0	0	
0	0	0	0	0	503	510	0	458	0	0	
1	0	0	0	0	503	510	0	444	0	0	
2	0	0	0	0	504	504	0	432	0	0	
3	0	0	0	0	506	494	0	420	0	0	
4	0	0	0	0	509	479	0	411	0	0	
5	0	0	0	0	512	462	0	406	0	0	
6	0	0	0	0	516	444	0	404	0	0	
7	0	0	0	0	519	427	0	407	0	0	
8	0	0	0	0	523	412	0	414	0	0	
9	0	0	0	0	525	401	0	424	0	0	
10	0	0	0	0	526	396	0	435	0	0	
11	0	0	0	0	525	396	0	449	0	0	
12	0	0	0	0	524	401	0	462	0	0	
13	0	0	0	0	521	411	0	473	0	0	
14	0	0	0	0	518	425	0	482	0	0	
15	0	0	0	0	515	442	0	488	0	0	
0	0	0	0	0	511	460	0	489	0	0	
1	0	0	0	0	508	477	0	487	0	0	
2	0	0	0	0	505	492	0	480	0	0	
3	0	0	0	0	503	502	0	471	0	0	
4	0	0	0	0	501	507	0	459	0	0	
5	0	0	0	0	501	508	0	446	0	0	
6	0	0	0	0	502	502	0	433	0	0	
7	0	0	0	0	503	491	0	422	0	0	
8	0	0	0	0	505	476	0	413	0	0	
9	0	0	0	0	508	460	0	407	0	0	
10	0	0	0	0	512	442	0	406	0	0	
11	0	0	0	0	516	425	0	409	0	0	
12	0	0	0	0	520	412	0	416	0	0	
13	0	0	0	0	524	402	0	427	0	0	
14	0	0	0	0	526	397	0	439	0	0	
15	0	0	0	0	528	397	0	453	0	0	
0	0	0	0	0	528	404	0	467	0	0	
1	0	0	0	0	527	415	0	478	0	0	
2	0	0	0	0	525	430	0	486	0	0	
3	0	0	0	0	522	446	0	492	0	0	
4	0	0	0	0	518	463	0	491	0	0	
5	0	0	0	0	512	479	0	487	0	0	
6	0	0	0	0	505	491	0	476	0	0	
7	0	0	0	0	499	497	0	462	0	0	
8	0	0	0	0	492	498	0	445	0	0	
9	0	0	0	0	485	492	0	426	0	0	
10	0	0	0	0	479	479	0	406	0	0	
11	0	0	0	0	472	461	0	387	0	0	
12	0	0	0	0	465	438	0	368	0	0	
13	0	0	0	0	458	412	0	353	0	0	
14	0	0	0	0	451	384	0	342	0	0	
15	0	0	0	0	444	356	0	334	0	0	
0	0	0	0	0	436	331	0	330	0	0	
1	0	0	0	0	427	310	0	328	0	0	
2	0	0	0	0	417	293	0	329	0	0	
3	0	0	0	0	407	282	0	332	0	0	
4	0	0	0	0	395	276	0	335	0	0	
5	0	0	0	0	382	275	0	335	0	0	
6	0	0	0	0	368	278	0	334	0	0	
7	0	0	0	0	354	284	0	329	0	0	
8	0	0	0	0	339	291	0	320	0	0	
9	0	0	0	0	324	297	0	307	0	0	
10	0	0	0	0	310	302	0	289	0	0	
11	0	0	0	0	296	302	0	269	0	0	
12	0	0	0	0	285	298	0	246	0	0	
13	0	0	0	0	275	290	0	224	0	0	
14	0	0	0	0	269	278	0	203	0	0	
15	0	0	0	0	266	262	0	185	0	0	
0	0	0	0	0	266	245	0	172	0	0	
1	0	0	0	0	271	227	0	167	0	0	
2	0	0	0	0	280	212	0	168	0	0	
3	0	0	0	0	293	201	0	179	0	0	
4	0	0	0	0	310	196	0	197	0	0	
5	0	0	0	0	329	197	0	222	0	0	
6	0	0	0	0	351	206	0	254	0	0	
7	0	0	0	0	374	224	0	289	0	0	
8	0	0	0	0	398	250	0	327	0	0	
9	0	0	0	0	422	282	0	364	0	0	
10	0	0	0	0	445	320	0	399	0	0	
11	0	0	0	0	467	361	0	430	0	0	
12	0	0	0	0	486	403	0	455	0	0	
13	0	0	0	0	502	443	0	473	0	0	
14	0	0	0	0	516	479	0	485	0	0	
15	0	0	0	0	527	508	0	489	0	0	
0	0	0	0	0	536	528	0	488	0	0	
1	0	0	0	0	543	541	0	483	0	0	
2	0	0	0	0	548	543	0	475	0	0	
3	0	0	0	0	551	538	0	465	0	0	
4	0	0	0	0	552	526	0	455	0	0	
5	0	0	0	0	552	508	0	447	0	0	
6	0	0	0	0	551	487	0	441	0	0	
7	0	0	0	0	550	465	0	439	0	0	
8	0	0	0	0	547	445	0	440	0	0	
9	0	0	0	0	543	428	0	444	0	0	
10	0	0	0	0	540	417	0	451	0	0	
11	0	0	0	0	536	411	0	460	0	0	
12	0	0	0	0	531	411	0	469	0	0	
13	0	0	0	0	527	418	0	477	0	0	
14	0	0	0	0	523	430	0	484	0	0	
15	0	0	0	0	520	446	0	488	0	0	
0	0	0	0	0	517	463	0	489	0	0	
1	0	0	0	0	514	481	0	487	0	0	
2	0	0	0	0	513	497	0	482	0	0	
3	0	0	0	0	513	510	0	475	0	0	
4	0	0	0	0	514	519	0	464	0	0	
5	0	0	0	0	517	521	0	454	0	0	
6	0	0	0	0	520	519	0	444	0	0	
7	0	0	0	0	525	511	0	435	0	0	
8	0	0	0	0	529	499	0	428	0	0	
9	0	0	0	0	534	483	0	424	0	0	
10	0	0	0	0	539	467	0	424	0	0	
11	0	0	0	0	543	451	0	429	0	0	
12	0	0	0	0	547	437	0	437	0	0	
13	0	0	0	0	550	427	0	447	0	0	
14	0	0	0	0	551	422	0	460	0	0	
15	0	0	0	0	551	421	0	472	0	0	
0	0	0	0	0	550	427	0	486	0	0	
1	0	0	0	0	548	437	0	496	0	0	
2	0	0	0	0	545	451	0	503	0	0	
3	0	0	0	0	541	467	0	508	0	0	
4	0	0	0	0	537	484	0	508	0	0	
5	0	0	0	0	534	501	0	504	0	0	
6	0	0	0	0	530	516	0	497	0	0	
7	0	0	0	0	528	526	0	486	0	0	
8	0	0	0	0	526	531	0	474	0	0	
9	0	0	0	0	526	531	0	461	0	0	
10	0	0	0	0	527	525	0	448	0	0	
11	0	0	0	0	528	515	0	437	0	0	
12	0	0	0	0	531	500	0	429	0	0	
13	0	0	0	0	534	484	0	424	0	0	
14	0	0	0	0	537	466	0	423	0	0	
15	0	0	0	0	541	449	0	427	0	0	
0	0	0	0	0	544	435	0	433	0	0	
1	0	0	0	0	547	424	0	444	0	0	
2	0	0	0	0	547	419	0	456	0	0	
3	0	0	0	0	547	419	0	469	0	0	
4	0	0	0	0	546	425	0	482	0	0	
5	0	0	0	0	543	435	0	493	0	0	
6	0	0	0	0	540	449	0	500	0	0	
7	0	0	0	0	536	466	0	506	0	0	
8	0	0	0	0	532	483	0	507	0	0	
9	0	0	0	0	528	501	0	504	0	0	
10	0	0	0	0	525	515	0	496	0	0	
11	0	0	0	0	523	526	0	486	0	0	
12	0	0	0	0	521	531	0	473	0	0	
13	0	0	0	0	521	530	0	460	0	0	
14	0	0	0	0	522	524	0	448	0	0	
15	0	0	0	0	524	513	0	436	0	0	
0	0	0	0	0	526	498	0	428	0	0	
1	0	0	0	0	529	480	0	423	0	0	
2	0	0	0	0	533	461	0	422	0	0	
3	0	0	0	0	537	444	0	425	0	0	
4	0	0	0	0	540	428	0	432	0	0	
5	0	0	0	0	542	417	0	442	0	0	
6	0	0	0	0	543	411	0	455	0	0	
7	0	0	0	0	543	410	0	468	0	0	
8	0	0	0	0	543	416	0	482	0	0	
9	0	0	0	0	541	426	0	492	0	0	
10	0	0	0	0	538	441	0	501	0	0	
11	0	0	0	0	535	458	0	506	0	0	
12	0	0	0	0	531	476	0	507	0	0	
13	0	0	0	0	527	493	0	504	0	0	
14	0	0	0	0	523	508	0	496	0	0	
15	0	0	0	0	521	519	0	485	0	0	
0	0	0	0	0	519	524	0	472	0	0	
1	0	0	0	0	519	524	0	457	0	0	
2	0	0	0	0	519	518	0	444	0	0	
3	0	0	0	0	521	507	0	432	0	0	
4	0	0	0	0	523	492	0	423	0	0	
5	0	0	0	0	527	475	0	417	0	0	
6	0	0	0	0	530	456	0	415	0	0	
7	0	0	0	0	533	440	0	417	0	0	
8	0	0	0	0	537	425	0	424	0	0	
9	0	0	0	0	539	415	0	435	0	0	
10	0	0	0	0	540	409	0	448	0	0	
11	0	0	0	0	540	409	0	461	0	0	
12	0	0	0	0	539	415	0	474	0	0	
13	0	0	0	0	537	426	0	485	0	0	
14	0	0	0	0	534	441	0	494	0	0	
15	0	0	0	0	530	458	0	499	0	0	
0	0	0	0	0	526	476	0	501	0	0	
1	0	0	0	0	523	494	0	498	0	0	
2	0	0	0	0	519	509	0	491	0	0	
3	0	0	0	0	517	520	0	480	0	0	
4	0	0	0	0	516	526	0	469	0	0	
5	0	0	0	0	516	526	0	455	0	0	
6	0	0	0	0	517	521	0	443	0	0	
7	0	0	0	0	519	511	0	432	0	0	
8	0	0	0	0	521	497	0	422	0	0	
9	0	0	0	0	524	479	0	418	0	0	
10	0	0	0	0	528	461	0	416	0	0	
11	0	0	0	0	531	443	0	418	0	0	
12	0	0	0	0	534	428	0	425	0	0	
13	0	0	0	0	536	417	0	435	0	0	
14	0	0	0	0	537	411	0	447	0	0	
15	0	0	0	0	536	410	0	459	0	0	
0	0	0	0	0	535	415	0	472	0	0	
1	0	0	0	0	533	425	0	483	0	0	
2	0	0	0	0	530	440	0	490	0	0	
3	0	0	0	0	526	456	0	495	0	0	
4	0	0	0	0	523	474	0	496	0	0	
5	0	0	0	0	519	492	0	494	0	0	
6	0	0	0	0	516	507	0	487	0	0	
7	0	0	0	0	515	518	0	477	0	0	
8	0	0	0	0	514	524	0	465	0	0	
9	0	0	0	0	514	523	0	453	0	0	
10	0	0	0	0	516	518	0	441	0	0	
11	0	0	0	0	518	507	0	430	0	0	
12	0	0	0	0	521	493	0	422	0	0	
13	0	0	0	0	524	475	0	417	0	0	
14	0	0	0	0	527	456	0	416	0	0	
15	0	0	0	0	530	438	0	419	0	0	
0	0	0	0	0	533	423	0	426	0	0	
1	0	0	0	0	535	412	0	436	0	0	
2	0	0	0	0	535	405	0	447	0	0	
3	0	0	0	0	534	404	0	459	0	0	
4	0	0	0	0	532	409	0	471	0	0	
5	0	0	0	0	529	419	0	481	0	0	
6	0	0	0	0	526	433	0	488	0	0	
7	0	0	0	0	522	451	0	492	0	0	
8	0	0	0	0	518	468	0	493	0	0	
9	0	0	0	0	514	485	0	490	0	0	
10	0	0	0	0	511	499	0	482	0	0	
11	0	0	0	0	508	510	0	472	0	0	
12	0	0	0	0	508	516	0	461	0	0	
13	0	0	0	0	508	516	0	448	0	0	
14	0	0	0	0	510	511	0	436	0	0	
15	0	0	0	0	512	500	0	426	0	0	
0	0	0	0	0	515	486	0	419	0	0	
1	0	0	0	0	518	470	0	413	0	0	
2	0	0	0	0	522	452	0	412	0	0	
3	0	0	0	0	526	435	0	416	0	0	
4	0	0	0	0	529	421	0	423	0	0	
5	0	0	0	0	532	411	0	432	0	0	
6	0	0	0	0	533	405	0	445	0	0	
7	0	0	0	0	533	406	0	457	0	0	
8	0	0	0	0	532	411	0	469	0	0	
9	0	0	0	0	530	422	0	480	0	0	
10	0	0	0	0	528	436	0	489	0	0	
11	0	0	0	0	525	454	0	493	0	0	
12	0	0	0	0	521	471	0	494	0	0	
13	0	0	0	0	518	487	0	491	0	0	
14	0	0	0	0	515	502	0	484	0	0	
15	0	0	0	0	513	512	0	473	0	0	
0	0	0	0	0	512	516	0	462	0	0	
1	0	0	0	0	511	516	0	448	0	0	
2	0	0	0	0	512	510	0	436	0	0	
3	0	0	0	0	514	499	0	425	0	0	
4	0	0	0	0	516	484	0	416	0	0	
5	0	0	0	0	519	467	0	411	0	0	
6	0	0	0	0	521	449	0	408	0	0	
7	0	0	0	0	524	432	0	412	0	0	
8	0	0	0	0	527	417	0	417	0	0	
9	0	0	0	0	528	406	0	427	0	0	
10	0	0	0	0	529	400	0	439	0	0	
11	0	0	0	0	529	400	0	451	0	0	
12	0	0	0	0	527	406	0	463	0	0	
13	0	0	0	0	525	416	0	473	0	0	
14	0	0	0	0	523	432	0	481	0	0	
15	0	0	0	0	519	449	0	487	0	0	
0	0	0	0	0	516	467	0	488	0	0	
1	0	0	0	0	513	484	0	486	0	0	
2	0	0	0	0	510	499	0	479	0	0	
3	0	0	0	0	508	511	0	469	0	0	
4	0	0	0	0	508	516	0	457	0	0	
5	0	0	0	0	508	516	0	445	0	0	
6	0	0	0	0	510	511	0	433	0	0	
7	0	0	0	0	513	500	0	422	0	0	
8	0	0	0	0	516	486	0	414	0	0	
9	0	0	0	0	519	468	0	408	0	0	
10	0	0	0	0	523	450	0	407	0	0	
11	0	0	0	0	526	433	0	410	0	0	
12	0	0	0	0	529	419	0	416	0	0	
13	0	0	0	0	531	408	0	426	0	0	
14	0	0	0	0	531	402	0	438	0	0	
15	0	0	0	0	531	403	0	449	0	0	
0	0	0	0	0	530	408	0	462	0	0	
1	0	0	0	0	528	419	0	472	0	0	
2	0	0	0	0	525	433	0	480	0	0	
3	0	0	0	0	521	450	0	485	0	0	
4	0	0	0	0	518	468	0	486	0	0	
5	0	0	0	0	515	486	0	483	0	0	
6	0	0	0	0	512	501	0	476	0	0	
7	0	0	0	0	510	512	0	467	0	0	
8	0	0	0	0	510	517	0	456	0	0	
9	0	0	0	0	510	518	0	443	0	0	
10	0	0	0	0	512	512	0	432	0	0	
11	0	0	0	0	514	502	0	422	0	0	
12	0	0	0	0	517	487	0	414	0	0	
13	0	0	0	0	521	471	0	410	0	0	
14	0	0	0	0	525	453	0	409	0	0	
15	0	0	0	0	529	436	0	413	0	0	
0	0	0	0	0	532	422	0	420	0	0	
1	0	0	0	0	535	412	0	431	0	0	
2	0	0	0	0	536	406	0	443	0	0	
3	0	0	0	0	536	406	0	455	0	0	
4	0	0	0	0	536	411	0	468	0	0	
5	0	0	0	0	534	422	0	479	0	0	
6	0	0	0	0	531	436	0	487	0	0	
7	0	0	0	0	528	452	0	492	0	0	
8	0	0	0	0	524	471	0	493	0	0	
9	0	0	0	0	521	488	0	490	0	0	
10	0	0	0	0	518	503	0	483	0	0	
11	0	0	0	0	515	513	0	472	0	0	
12	0	0	0	0	514	519	0	460	0	0	
13	0	0	0	0	514	519	0	447	0	0	
14	0	0	0	0	515	513	0	434	0	0	
15	0	0	0	0	516	504	0	422	0	0	
0	0	0	0	0	519	489	0	414	0	0	
1	0	0	0	0	522	472	0	408	0	0	
2	0	0	0	0	526	455	0	407	0	0	
3	0	0	0	0	529	439	0	410	0	0	
4	0	0	0	0	532	425	0	417	0	0	
5	0	0	0	0	535	415	0	427	0	0	
6	0	0	0	0	536	409	0	440	0	0	
7	0	0	0	0	537	410	0	452	0	0	
8	0	0	0	0	536	415	0	465	0	0	
9	0	0	0	0	534	426	0	477	0	0	
10	0	0	0	0	531	440	0	486	0	0	
11	0	0	0	0	527	457	0	491	0	0	
12	0	0	0	0	523	475	0	492	0	0	
13	0	0	0	0	519	492	0	489	0	0	
14	0	0	0	0	514	506	0	483	0	0	
15	0	0	0	0	512	517	0	472	0	0	
0	0	0	0	0	510	522	0	460	0	0	
1	0	0	0	0	510	522	0	448	0	0	
2	0	0	0	0	511	516	0	435	0	0	
3	0	0	0	0	512	505	0	424	0	0	
4	0	0	0	0	515	491	0	415	0	0	
5	0	0	0	0	519	473	0	410	0	0	
6	0	0	0	0	524	455	0	408	0	0	
7	0	0	0	0	528	439	0	412	0	0	
8	0	0	0	0	532	424	0	419	0	0	
9	0	0	0	0	536	414	0	428	0	0	
10	0	0	0	0	538	408	0	440	0	0	
11	0	0	0	0	539	408	0	454	0	0	
12	0	0	0	0	539	413	0	466	0	0	
13	0	0	0	0	537	424	0	478	0	0	
14	0	0	0	0	535	439	0	486	0	0	
15	0	0	0	0	531	455	0	492	0	0	
0	0	0	0	0	527	474	0	493	0	0	
1	0	0	0	0	523	491	0	490	0	0	
2	0	0	0	0	519	506	0	483	0	0	
3	0	0	0	0	515	517	0	472	0	0	
4	0	0	0	0	513	522	0	461	0	0	
5	0	0	0	0	512	523	0	447	0	0	
6	0	0	0	0	512	517	0	435	0	0	
7	0	0	0	0	513	507	0	423	0	0	
8	0	0	0	0	515	492	0	414	0	0	
9	0	0	0	0	519	475	0	409	0	0	
10	0	0	0	0	523	457	0	408	0	0	
11	0	0	0	0	527	440	0	411	0	0	
12	0	0	0	0	530	427	0	418	0	0	
13	0	0	0	0	534	416	0	429	0	0	
14	0	0	0	0	536	412	0	441	0	0	
15	0	0	0	0	537	412	0	455	0	0	
0	0	0	0	0	537	418	0	469	0	0	
1	0	0	0	0	537	429	0	480	0	0	
2	0	0	0	0	535	444	0	489	0	0	
3	0	0	0	0	533	462	0	496	0	0	
4	0	0	0	0	530	480	0	498	0	0	
5	0	0	0	0	527	499	0	496	0	0	
6	0	0	0	0	524	514	0	489	0	0	
7	0	0	0	0	522	525	0	480	0	0	
8	0	0	0	0	521	531	0	468	0	0	
9	0	0	0	0	521	531	0	454	0	0	
10	0	0	0	0	521	526	0	441	0	0	
11	0	0	0	0	523	515	0	430	0	0	
12	0	0	0	0	526	501	0	420	0	0	
13	0	0	0	0	528	484	0	414	0	0	
14	0	0	0	0	531	466	0	412	0	0	
15	0	0	0	0	535	449	0	415	0	0	
0	0	0	0	0	537	434	0	422	0	0	
1	0	0	0	0	540	423	0	431	0	0	
2	0	0	0	0	542	417	0	444	0	0	
3	0	0	0	0	542	416	0	457	0	0	
4	0	0	0	0	542	422	0	470	0	0	
5	0	0	0	0	540	432	0	481	0	0	
6	0	0	0	0	537	447	0	490	0	0	
7	0	0	0	0	535	463	0	497	0	0	
8	0	0	0	0	531	481	0	499	0	0	
9	0	0	0	0	527	498	0	496	0	0	
10	0	0	0	0	524	513	0	490	0	0	
11	0	0	0	0	522	524	0	481	0	0	
12	0	0	0	0	520	529	0	468	0	0	
13	0	0	0	0	519	529	0	455	0	0	
14	0	0	0	0	520	524	0	443	0	0	
15	0	0	0	0	521	513	0	431	0	0	
0	0	0	0	0	524	498	0	423	0	0	
1	0	0	0	0	527	481	0	416	0	0	
2	0	0	0	0	530	463	0	415	0	0	
3	0	0	0	0	534	446	0	417	0	0	
4	0	0	0	0	536	431	0	424	0	0	
5	0	0	0	0	539	420	0	433	0	0	
6	0	0	0	0	540	415	0	446	0	0	
7	0	0	0	0	540	415	0	459	0	0	
8	0	0	0	0	539	420	0	472	0	0	
9	0	0	0	0	536	431	0	483	0	0	
10	0	0	0	0	533	446	0	491	0	0	
11	0	0	0	0	530	463	0	497	0	0	
12	0	0	0	0	527	480	0	498	0	0	
13	0	0	0	0	523	498	0	495	0	0	
14	0	0	0	0	520	513	0	487	0	0	
15	0	0	0	0	517	524	0	476	0	0	
0	0	0	0	0	516	528	0	463	0	0	
1	0	0	0	0	516	528	0	449	0	0	
2	0	0	0	0	517	522	0	436	0	0	
3	0	0	0	0	518	511	0	424	0	0	
4	0	0	0	0	521	496	0	415	0	0	
5	0	0	0	0	524	479	0	409	0	0	
6	0	0	0	0	527	460	0	408	0	0	
7	0	0	0	0	530	442	0	411	0	0	
8	0	0	0	0	534	428	0	418	0	0	
9	0	0	0	0	536	417	0	428	0	0	
10	0	0	0	0	537	411	0	440	0	0	
11	0	0	0	0	537	410	0	454	0	0	
12	0	0	0	0	536	416	0	467	0	0	
13	0	0	0	0	535	427	0	479	0	0	
14	0	0	0	0	532	441	0	487	0	0	
15	0	0	0	0	529	458	0	493	0	0	
0	0	0	0	0	525	476	0	494	0	0	
1	0	0	0	0	521	494	0	492	0	0	
2	0	0	0	0	518	509	0	484	0	0	
3	0	0	0	0	515	520	0	473	0	0	
4	0	0	0	0	514	526	0	460	0	0	
5	0	0	0	0	513	526	0	447	0	0	
6	0	0	0	0	513	520	0	434	0	0	
7	0	0	0	0	515	510	0	422	0	0	
8	0	0	0	0	517	495	0	413	0	0	
9	0	0	0	0	519	477	0	407	0	0	
10	0	0	0	0	522	459	0	405	0	0	
11	0	0	0	0	525	441	0	408	0	0	
12	0	0	0	0	528	427	0	415	0	0	
13	0	0	0	0	530	415	0	424	0	0	
14	0	0	0	0	531	409	0	437	0	0	
15	0	0	0	0	531	409	0	450	0	0	
0	0	0	0	0	530	414	0	464	0	0	
1	0	0	0	0	529	424	0	476	0	0	
2	0	0	0	0	526	439	0	485	0	0	
3	0	0	0	0	523	455	0	491	0	0	
4	0	0	0	0	520	473	0	492	0	0	
5	0	0	0	0	516	491	0	490	0	0	
6	0	0	0	0	513	506	0	483	0	0	
7	0	0	0	0	511	517	0	472	0	0	
8	0	0	0	0	510	522	0	460	0	0	
9	0	0	0	0	509	523	0	446	0	0	
10	0	0	0	0	510	517	0	432	0	0	
11	0	0	0	0	511	507	0	420	0	0	
12	0	0	0	0	513	492	0	411	0	0	
13	0	0	0	0	516	476	0	405	0	0	
14	0	0	0	0	519	457	0	403	0	0	
15	0	0	0	0	523	440	0	407	0	0	
0	0	0	0	0	526	425	0	414	0	0	
1	0	0	0	0	529	414	0	425	0	0	
2	0	0	0	0	531	409	0	437	0	0	
3	0	0	0	0	532	408	0	451	0	0	
4	0	0	0	0	531	413	0	465	0	0	
5	0	0	0	0	531	423	0	477	0	0	
6	0	0	0	0	529	437	0	486	0	0	
7	0	0	0	0	526	454	0	492	0	0	
8	0	0	0	0	523	471	0	493	0	0	
9	0	0	0	0	520	488	0	490	0	0	
10	0	0	0	0	516	503	0	483	0	0	
11	0	0	0	0	514	514	0	472	0	0	
12	0	0	0	0	512	520	0	459	0	0	
13	0	0	0	0	512	520	0	446	0	0	
14	0	0	0	0	513	515	0	433	0	0	
15	0	0	0	0	515	505	0	421	0	0	
0	0	0	0	0	516	491	0	412	0	0	
1	0	0	0	0	519	474	0	408	0	0	
2	0	0	0	0	523	457	0	406	0	0	
3	0	0	0	0	526	440	0	409	0	0	
4	0	0	0	0	529	426	0	416	0	0	
5	0	0	0	0	532	416	0	427	0	0	
6	0	0	0	0	534	411	0	440	0	0	
7	0	0	0	0	534	410	0	453	0	0	
8	0	0	0	0	533	416	0	467	0	0	
9	0	0	0	0	531	427	0	478	0	0	
10	0	0	0	0	529	441	0	486	0	0	
11	0	0	0	0	527	458	0	492	0	0	
12	0	0	0	0	524	475	0	493	0	0	
13	0	0	0	0	520	492	0	490	0	0	
14	0	0	0	0	516	506	0	482	0	0	
15	0	0	0	0	513	517	0	472	0	0	
0	0	0	0	0	511	521	0	459	0	0	
1	0	0	0	0	511	521	0	445	0	0	
2	0	0	0	0	511	515	0	432	0	0	
3	0	0	0	0	511	504	0	421	0	0	
4	0	0	0	0	513	489	0	412	0	0	
5	0	0	0	0	515	472	0	406	0	0	
6	0	0	0	0	519	454	0	404	0	0	
7	0	0	0	0	521	436	0	407	0	0	
8	0	0	0	0	524	422	0	414	0	0	
9	0	0	0	0	526	411	0	423	0	0	
10	0	0	0	0	527	406	0	435	0	0	
11	0	0	0	0	528	406	0	449	0	0	
12	0	0	0	0	527	411	0	462	0	0	
13	0	0	0	0	527	421	0	473	0	0	
14	0	0	0	0	524	436	0	482	0	0	
15	0	0	0	0	522	453	0	487	0	0	
0	0	0	0	0	519	470	0	489	0	0	
1	0	0	0	0	515	487	0	486	0	0	
2	0	0	0	0	513	502	0	479	0	0	
3	0	0	0	0	511	512	0	468	0	0	
4	0	0	0	0	509	518	0	456	0	0	
5	0	0	0	0	509	518	0	442	0	0	
6	0	0	0	0	510	512	0	429	0	0	
7	0	0	0	0	512	502	0	417	0	0	
8	0	0	0	0	514	487	0	408	0	0	
9	0	0	0	0	518	470	0	403	0	0	
10	0	0	0	0	521	453	0	401	0	0	
11	0	0	0	0	525	436	0	404	0	0	
12	0	0	0	0	528	422	0	411	0	0	
13	0	0	0	0	531	411	0	422	0	0	
14	0	0	0	0	532	405	0	435	0	0	
15	0	0	0	0	533	405	0	448	0	0	
0	0	0	0	0	532	410	0	462	0	0	
1	0	0	0	0	529	420	0	473	0	0	
2	0	0	0	0	527	435	0	482	0	0	
3	0	0	0	0	524	451	0	488	0	0	
4	0	0	0	0	520	469	0	489	0	0	
5	0	0	0	0	516	486	0	487	0	0	
6	0	0	0	0	513	500	0	480	0	0	
7	0	0	0	0	511	511	0	469	0	0	
8	0	0	0	0	509	517	0	457	0	0	
9	0	0	0	0	508	516	0	445	0	0	
10	0	0	0	0	510	512	0	433	0	0	
11	0	0	0	0	511	502	0	422	0	0	
12	0	0	0	0	514	487	0	413	0	0	
13	0	0	0	0	517	471	0	408	0	0	
14	0	0	0	0	521	453	0	408	0	0	
15	0	0	0	0	525	436	0	411	0	0	
0	0	0	0	0	529	422	0	418	0	0	
1	0	0	0	0	532	412	0	429	0	0	
2	0	0	0	0	534	406	0	441	0	0	
3	0	0	0	0	534	406	0	455	0	0	
4	0	0	0	0	534	412	0	468	0	0	
5	0	0	0	0	532	422	0	478	0	0	
6	0	0	0	0	529	437	0	486	0	0	
7	0	0	0	0	526	454	0	491	0	0	
8	0	0	0	0	523	471	0	492	0	0	
9	0	0	0	0	519	488	0	489	0	0	
10	0	0	0	0	515	503	0	481	0	0	
11	0	0	0	0	511	514	0	470	0	0	
12	0	0	0	0	511	519	0	457	0	0	
13	0	0	0	0	511	519	0	445	0	0	
14	0	0	0	0	511	514	0	432	0	0	
15	0	0	0	0	514	504	0	422	0	0	
0	0	0	0	0	517	490	0	414	0	0	
1	0	0	0	0	521	474	0	409	0	0	
2	0	0	0	0	526	456	0	409	0	0	
3	0	0	0	0	530	440	0	413	0	0	
4	0	0	0	0	534	425	0	420	0	0	
5	0	0	0	0	537	415	0	430	0	0	
6	0	0	0	0	539	410	0	444	0	0	
7	0	0	0	0	539	410	0	457	0	0	
8	0	0	0	0	538	415	0	470	0	0	
9	0	0	0	0	536	426	0	481	0	0	
10	0	0	0	0	533	440	0	490	0	0	
11	0	0	0	0	529	458	0	495	0	0	
12	0	0	0	0	525	475	0	496	0	0	
13	0	0	0	0	520	492	0	492	0	0	
14	0	0	0	0	516	507	0	485	0	0	
15	0	0	0	0	513	517	0	474	0	0	
0	0	0	0	0	512	522	0	462	0	0	
1	0	0	0	0	511	521	0	448	0	0	
2	0	0	0	0	511	515	0	435	0	0	
3	0	0	0	0	512	504	0	423	0	0	
4	0	0	0	0	514	489	0	414	0	0	
5	0	0	0	0	516	472	0	408	0	0	
6	0	0	0	0	519	453	0	406	0	0	
7	0	0	0	0	523	435	0	409	0	0	
8	0	0	0	0	527	420	0	415	0	0	
9	0	0	0	0	529	409	0	424	0	0	
10	0	0	0	0	531	403	0	436	0	0	
11	0	0	0	0	531	402	0	449	0	0	
12	0	0	0	0	531	408	0	462	0	0	
13	0	0	0	0	529	418	0	473	0	0	
14	0	0	0	0	527	432	0	481	0	0	
15	0	0	0	0	524	448	0	487	0	0	
0	0	0	0	0	520	466	0	487	0	0	
1	0	0	0	0	516	483	0	484	0	0	
2	0	0	0	0	513	498	0	477	0	0	
3	0	0	0	0	510	509	0	467	0	0	
4	0	0	0	0	508	515	0	455	0	0	
5	0	0	0	0	507	514	0	442	0	0	
6	0	0	0	0	507	509	0	430	0	0	
7	0	0	0	0	508	499	0	418	0	0	
8	0	0	0	0	510	483	0	411	0	0	
9	0	0	0	0	512	468	0	404	0	0	
10	0	0	0	0	515	449	0	403	0	0	
11	0	0	0	0	518	432	0	406	0	0	
12	0	0	0	0	521	417	0	412	0	0	
13	0	0	0	0	523	406	0	422	0	0	
14	0	0	0	0	524	401	0	433	0	0	
15	0	0	0	0	525	400	0	447	0	0	
0	0	0	0	0	525	405	0	460	0	0	
1	0	0	0	0	523	415	0	471	0	0	
2	0	0	0	0	521	430	0	479	0	0	
3	0	0	0	0	519	448	0	485	0	0	
4	0	0	0	0	516	466	0	487	0	0	
5	0	0	0	0	513	484	0	485	0	0	
6	0	0	0	0	511	499	0	479	0	0	
7	0	0	0	0	509	511	0	469	0	0	
8	0	0	0	0	508	517	0	458	0	0	
9	0	0	0	0	509	518	0	445	0	0	
10	0	0	0	0	511	513	0	433	0	0	
11	0	0	0	0	513	503	0	422	0	0	
12	0	0	0	0	516	488	0	413	0	0	
13	0	0	0	0	519	472	0	407	0	0	
14	0	0	0	0	523	454	0	406	0	0	
15	0	0	0	0	526	437	0	408	0	0	
0	0	0	0	0	529	422	0	414	0	0	
1	0	0	0	0	531	411	0	423	0	0	
2	0	0	0	0	532	404	0	435	0	0	
3	0	0	0	0	532	404	0	448	0	0	
4	0	0	0	0	531	409	0	461	0	0	
5	0	0	0	0	529	419	0	472	0	0	
6	0	0	0	0	527	434	0	481	0	0	
7	0	0	0	0	523	451	0	486	0	0	
8	0	0	0	0	520	468	0	488	0	0	
9	0	0	0	0	516	486	0	486	0	0	
10	0	0	0	0	512	500	0	480	0	0	
11	0	0	0	0	510	512	0	469	0	0	
12	0	0	0	0	508	518	0	457	0	0	
13	0	0	0	0	507	518	0	445	0	0	
14	0	0	0	0	507	512	0	432	0	0	
15	0	0	0	0	508	502	0	421	0	0	
0	0	0	0	0	510	487	0	412	0	0	
1	0	0	0	0	513	470	0	406	0	0	
2	0	0	0	0	516	452	0	404	0	0	
3	0	0	0	0	520	435	0	407	0	0	
4	0	0	0	0	524	420	0	413	0	0	
5	0	0	0	0	526	409	0	422	0	0	
6	0	0	0	0	528	403	0	434	0	0	
7	0	0	0	0	528	402	0	447	0	0	
8	0	0	0	0	527	407	0	460	0	0	
9	0	0	0	0	526	417	0	471	0	0	
10	0	0	0	0	524	431	0	479	0	0	
11	0	0	0	0	520	448	0	484	0	0	
12	0	0	0	0	517	465	0	486	0	0	
13	0	0	0	0	513	482	0	483	0	0	
14	0	0	0	0	511	497	0	476	0	0	
15	0	0	0	0	509	509	0	467	0	0	
0	0	0	0	0	508	515	0	456	0	0	
1	0	0	0	0	509	517	0	444	0	0	
2	0	0	0	0	511	513	0	433	0	0	
3	0	0	0	0	514	504	0	423	0	0	
4	0	0	0	0	517	492	0	416	0	0	
5	0	0	0	0	522	476	0	413	0	0	
6	0	0	0	0	527	459	0	412	0	0	
7	0	0	0	0	531	443	0	416	0	0	
8	0	0	0	0	535	428	0	423	0	0	
9	0	0	0	0	536	415	0	432	0	0	
10	0	0	0	0	536	407	0	443	0	0	
11	0	0	0	0	534	403	0	452	0	0	
12	0	0	0	0	529	403	0	461	0	0	
13	0	0	0	0	522	408	0	466	0	0	
14	0	0	0	0	512	415	0	468	0	0	
15	0	0	0	0	502	424	0	465	0	0	
0	0	0	0	0	489	433	0	456	0	0	
1	0	0	0	0	475	440	0	443	0	0	
2	0	0	0	0	461	445	0	424	0	0	
3	0	0	0	0	446	445	0	402	0	0	
4	0	0	0	0	432	439	0	377	0	0	
5	0	0	0	0	419	428	0	351	0	0	
6	0	0	0	0	406	411	0	326	0	0	
7	0	0	0	0	395	389	0	301	0	0	
8	0	0	0	0	383	362	0	280	0	0	
9	0	0	0	0	374	333	0	261	0	0	
10	0	0	0	0	364	303	0	247	0	0	
11	0	0	0	0	355	273	0	237	0	0	
12	0	0	0	0	346	246	0	231	0	0	
13	0	0	0	0	337	222	0	230	0	0	
14	0	0	0	0	328	203	0	231	0	0	
15	0	0	0	0	319	190	0	235	0	0	
0	0	0	0	0	310	184	0	240	0	0	
1	0	0	0	0	301	185	0	245	0	0	
2	0	0	0	0	292	192	0	249	0	0	
3	0	0	0	0	286	205	0	253	0	0	
4	0	0	0	0	281	222	0	256	0	0	
5	0	0	0	0	280	242	0	257	0	0	
6	0	0	0	0	281	263	0	257	0	0	
7	0	0	0	0	287	284	0	257	0	0	
8	0	0	0	0	298	303	0	257	0	0	
9	0	0	0	0	314	319	0	259	0	0	
10	0	0	0	0	334	334	0	263	0	0	
11	0	0	0	0	358	344	0	271	0	0	
12	0	0	0	0	384	352	0	283	0	0	
13	0	0	0	0	414	357	0	299	0	0	
14	0	0	0	0	444	361	0	320	0	0	
15	0	0	0	0	473	365	0	345	0	0	
0	0	0	0	0	501	370	0	372	0	0	
1	0	0	0	0	525	376	0	402	0	0	
2	0	0	0	0	545	387	0	432	0	0	
3	0	0	0	0	561	399	0	460	0	0	
4	0	0	0	0	572	416	0	487	0	0	
5	0	0	0	0	577	435	0	508	0	0	
6	0	0	0	0	579	455	0	524	0	0	
7	0	0	0	0	576	477	0	534	0	0	
8	0	0	0	0	572	499	0	537	0	0	
9	0	0	0	0	564	518	0	534	0	0	
10	0	0	0	0	556	534	0	525	0	0	
11	0	0	0	0	548	544	0	511	0	0	
12	0	0	0	0	541	548	0	495	0	0	
13	0	0	0	0	535	546	0	476	0	0	
14	0	0	0	0	530	538	0	458	0	0	
15	0	0	0	0	527	525	0	441	0	0	
0	0	0	0	0	526	507	0	428	0	0	
1	0	0	0	0	527	486	0	419	0	0	
2	0	0	0	0	529	465	0	415	0	0	
3	0	0	0	0	532	447	0	416	0	0	
4	0	0	0	0	536	430	0	422	0	0	
5	0	0	0	0	540	419	0	432	0	0	
6	0	0	0	0	543	412	0	445	0	0	
7	0	0	0	0	546	412	0	460	0	0	
8	0	0	0	0	548	419	0	475	0	0	
9	0	0	0	0	548	430	0	488	0	0	
10	0	0	0	0	548	446	0	499	0	0	
11	0	0	0	0	547	464	0	507	0	0	
12	0	0	0	0	545	483	0	510	0	0	
13	0	0	0	0	543	503	0	508	0	0	
14	0	0	0	0	539	518	0	502	0	0	
15	0	0	0	0	537	530	0	492	0	0	
0	0	0	0	0	536	537	0	481	0	0	
1	0	0	0	0	535	538	0	467	0	0	
2	0	0	0	0	536	533	0	455	0	0	
3	0	0	0	0	537	523	0	442	0	0	
4	0	0	0	0	539	509	0	432	0	0	
5	0	0	0	0	542	491	0	427	0	0	
6	0	0	0	0	544	473	0	424	0	0	
7	0	0	0	0	548	456	0	427	0	0	
8	0	0	0	0	551	441	0	433	0	0	
9	0	0	0	0	553	431	0	443	0	0	
10	0	0	0	0	554	424	0	455	0	0	
11	0	0	0	0	555	424	0	468	0	0	
12	0	0	0	0	554	430	0	482	0	0	
13	0	0	0	0	552	440	0	494	0	0	
14	0	0	0	0	551	455	0	503	0	0	
15	0	0	0	0	548	472	0	510	0	0	
0	0	0	0	0	544	491	0	512	0	0	
1	0	0	0	0	541	508	0	511	0	0	
2	0	0	0	0	538	524	0	505	0	0	
3	0	0	0	0	536	536	0	496	0	0	
4	0	0	0	0	535	543	0	484	0	0	
5	0	0	0	0	535	543	0	472	0	0	
6	0	0	0	0	536	538	0	460	0	0	
7	0	0	0	0	538	528	0	449	0	0	
8	0	0	0	0	540	513	0	440	0	0	
9	0	0	0	0	544	497	0	434	0	0	
10	0	0	0	0	548	478	0	432	0	0	
11	0	0	0	0	552	461	0	435	0	0	
12	0	0	0	0	555	446	0	441	0	0	
13	0	0	0	0	558	434	0	450	0	0	
14	0	0	0	0	560	428	0	462	0	0	
15	0	0	0	0	560	427	0	474	0	0	
0	0	0	0	0	559	432	0	487	0	0	
1	0	0	0	0	557	442	0	498	0	0	
2	0	0	0	0	554	456	0	507	0	0	
3	0	0	0	0	551	473	0	512	0	0	
4	0	0	0	0	547	491	0	514	0	0	
5	0	0	0	0	543	508	0	512	0	0	
6	0	0	0	0	539	524	0	505	0	0	
7	0	0	0	0	537	535	0	496	0	0	
8	0	0	0	0	536	541	0	485	0	0	
9	0	0	0	0	536	542	0	472	0	0	
10	0	0	0	0	537	536	0	460	0	0	
11	0	0	0	0	539	526	0	448	0	0	
12	0	0	0	0	542	512	0	440	0	0	
13	0	0	0	0	546	495	0	434	0	0	
14	0	0	0	0	550	477	0	432	0	0	
15	0	0	0	0	553	460	0	434	0	0	
0	0	0	0	0	556	444	0	440	0	0	
1	0	0	0	0	558	432	0	449	0	0	
2	0	0	0	0	559	425	0	461	0	0	
3	0	0	0	0	559	424	0	472	0	0	
4	0	0	0	0	558	429	0	484	0	0	
5	0	0	0	0	555	439	0	495	0	0	
6	0	0	0	0	552	453	0	503	0	0	
7	0	0	0	0	549	470	0	508	0	0	
8	0	0	0	0	545	487	0	510	0	0	
9	0	0	0	0	541	505	0	507	0	0	
10	0	0	0	0	537	519	0	500	0	0	
11	0	0	0	0	534	530	0	489	0	0	
12	0	0	0	0	533	537	0	478	0	0	
13	0	0	0	0	532	536	0	465	0	0	
14	0	0	0	0	534	531	0	452	0	0	
15	0	0	0	0	535	521	0	440	0	0	
0	0	0	0	0	537	507	0	431	0	0	
1	0	0	0	0	540	490	0	425	0	0	
2	0	0	0	0	543	471	0	423	0	0	
3	0	0	0	0	547	455	0	425	0	0	
4	0	0	0	0	549	439	0	431	0	0	
5	0	0	0	0	551	428	0	440	0	0	
6	0	0	0	0	551	423	0	452	0	0	
7	0	0	0	0	551	422	0	464	0	0	
8	0	0	0	0	549	427	0	478	0	0	
9	0	0	0	0	547	436	0	488	0	0	
10	0	0	0	0	543	451	0	497	0	0	
11	0	0	0	0	540	468	0	504	0	0	
12	0	0	0	0	537	485	0	506	0	0	
13	0	0	0	0	533	503	0	504	0	0	
14	0	0	0	0	530	518	0	498	0	0	
15	0	0	0	0	527	529	0	488	0	0	
0	0	0	0	0	526	535	0	477	0	0	
1	0	0	0	0	526	535	0	463	0	0	
2	0	0	0	0	527	530	0	451	0	0	
3	0	0	0	0	529	519	0	439	0	0	
4	0	0	0	0	532	505	0	430	0	0	
5	0	0	0	0	536	488	0	424	0	0	
6	0	0	0	0	540	471	0	422	0	0	
7	0	0	0	0	543	453	0	424	0	0	
8	0	0	0	0	548	439	0	431	0	0	
9	0	0	0	0	551	428	0	440	0	0	
10	0	0	0	0	552	422	0	451	0	0	
11	0	0	0	0	553	421	0	464	0	0	
12	0	0	0	0	552	426	0	478	0	0	
13	0	0	0	0	551	436	0	489	0	0	
14	0	0	0	0	547	449	0	499	0	0	
15	0	0	0	0	545	467	0	504	0	0	
0	0	0	0	0	540	485	0	507	0	0	
1	0	0	0	0	537	503	0	505	0	0	
2	0	0	0	0	532	518	0	499	0	0	
3	0	0	0	0	529	529	0	489	0	0	
4	0	0	0	0	527	535	0	477	0	0	
5	0	0	0	0	527	535	0	463	0	0	
6	0	0	0	0	527	530	0	451	0	0	
7	0	0	0	0	528	520	0	439	0	0	
8	0	0	0	0	531	506	0	429	0	0	
9	0	0	0	0	534	488	0	423	0	0	
10	0	0	0	0	538	471	0	420	0	0	
11	0	0	0	0	542	454	0	422	0	0	
12	0	0	0	0	546	439	0	428	0	0	
13	0	0	0	0	549	428	0	437	0	0	
14	0	0	0	0	551	422	0	448	0	0	
15	0	0	0	0	551	420	0	461	0	0	
0	0	0	0	0	551	425	0	474	0	0	
1	0	0	0	0	549	435	0	485	0	0	
2	0	0	0	0	546	449	0	493	0	0	
3	0	0	0	0	542	465	0	499	0	0	
4	0	0	0	0	538	482	0	501	0	0	
5	0	0	0	0	534	499	0	499	0	0	
6	0	0	0	0	529	514	0	493	0	0	
7	0	0	0	0	526	525	0	483	0	0	
8	0	0	0	0	523	531	0	471	0	0	
9	0	0	0	0	522	530	0	457	0	0	
10	0	0	0	0	522	525	0	445	0	0	
11	0	0	0	0	523	515	0	433	0	0	
12	0	0	0	0	525	501	0	424	0	0	
13	0	0	0	0	528	484	0	418	0	0	
14	0	0	0	0	531	466	0	416	0	0	
15	0	0	0	0	535	449	0	419	0	0	
0	0	0	0	0	539	434	0	426	0	0	
1	0	0	0	0	542	423	0	436	0	0	
2	0	0	0	0	543	417	0	448	0	0	
3	0	0	0	0	544	416	0	461	0	0	
4	0	0	0	0	544	421	0	474	0	0	
5	0	0	0	0	542	431	0	485	0	0	
6	0	0	0	0	540	445	0	494	0	0	
7	0	0	0	0	536	462	0	499	0	0	
8	0	0	0	0	533	479	0	501	0	0	
9	0	0	0	0	529	496	0	498	0	0	
10	0	0	0	0	525	511	0	491	0	0	
11	0	0	0	0	521	523	0	481	0	0	
12	0	0	0	0	520	529	0	469	0	0	
13	0	0	0	0	520	529	0	456	0	0	
14	0	0	0	0	520	524	0	444	0	0	
15	0	0	0	0	522	515	0	433	0	0	
0	0	0	0	0	524	501	0	424	0	0	
1	0	0	0	0	527	485	0	419	0	0	
2	0	0	0	0	531	467	0	417	0	0	
3	0	0	0	0	536	451	0	421	0	0	
4	0	0	0	0	540	436	0	428	0	0	
5	0	0	0	0	543	425	0	438	0	0	
6	0	0	0	0	545	418	0	451	0	0	
7	0	0	0	0	546	417	0	463	0	0	
8	0	0	0	0	545	422	0	476	0	0	
9	0	0	0	0	544	431	0	488	0	0	
10	0	0	0	0	542	445	0	497	0	0	
11	0	0	0	0	539	462	0	502	0	0	
12	0	0	0	0	536	479	0	504	0	0	
13	0	0	0	0	532	496	0	502	0	0	
14	0	0	0	0	529	511	0	495	0	0	
15	0	0	0	0	526	523	0	485	0	0	
0	0	0	0	0	525	529	0	474	0	0	
1	0	0	0	0	524	530	0	461	0	0	
2	0	0	0	0	525	525	0	449	0	0	
3	0	0	0	0	527	516	0	438	0	0	
4	0	0	0	0	529	503	0	430	0	0	
5	0	0	0	0	532	486	0	424	0	0	
6	0	0	0	0	536	469	0	423	0	0	
7	0	0	0	0	540	453	0	426	0	0	
8	0	0	0	0	543	439	0	432	0	0	
9	0	0	0	0	546	428	0	442	0	0	
10	0	0	0	0	547	423	0	454	0	0	
11	0	0	0	0	548	423	0	467	0	0	
12	0	0	0	0	548	429	0	480	0	0	
13	0	0	0	0	547	439	0	490	0	0	
14	0	0	0	0	545	454	0	498	0	0	
15	0	0	0	0	542	471	0	504	0	0	
0	0	0	0	0	540	487	0	505	0	0	
1	0	0	0	0	536	505	0	504	0	0	
2	0	0	0	0	534	519	0	497	0	0	
3	0	0	0	0	531	530	0	487	0	0	
4	0	0	0	0	530	536	0	476	0	0	
5	0	0	0	0	529	536	0	463	0	0	
6	0	0	0	0	530	530	0	451	0	0	
7	0	0	0	0	531	520	0	440	0	0	
8	0	0	0	0	533	506	0	432	0	0	
9	0	0	0	0	535	489	0	426	0	0	
10	0	0	0	0	538	470	0	424	0	0	
11	0	0	0	0	540	453	0	427	0	0	
12	0	0	0	0	543	438	0	432	0	0	
13	0	0	0	0	544	427	0	441	0	0	
14	0	0	0	0	545	419	0	453	0	0	
15	0	0	0	0	545	419	0	465	0	0	
0	0	0	0	0	543	423	0	477	0	0	
1	0	0	0	0	541	433	0	488	0	0	
2	0	0	0	0	539	447	0	496	0	0	
3	0	0	0	0	536	464	0	501	0	0	
4	0	0	0	0	532	481	0	503	0	0	
5	0	0	0	0	528	499	0	500	0	0	
6	0	0	0	0	526	514	0	493	0	0	
7	0	0	0	0	524	525	0	483	0	0	
8	0	0	0	0	523	531	0	472	0	0	
9	0	0	0	0	524	532	0	459	0	0	
10	0	0	0	0	525	527	0	447	0	0	
11	0	0	0	0	528	518	0	435	0	0	
12	0	0	0	0	531	504	0	427	0	0	
13	0	0	0	0	535	487	0	422	0	0	
14	0	0	0	0	540	470	0	420	0	0	
15	0	0	0	0	544	452	0	424	0	0	
0	0	0	0	0	547	438	0	431	0	0	
1	0	0	0	0	550	427	0	441	0	0	
2	0	0	0	0	551	420	0	453	0	0	
3	0	0	0	0	552	420	0	467	0	0	
4	0	0	0	0	551	425	0	480	0	0	
5	0	0	0	0	549	435	0	491	0	0	
6	0	0	0	0	546	450	0	500	0	0	
7	0	0	0	0	543	467	0	506	0	0	
8	0	0	0	0	540	486	0	508	0	0	
9	0	0	0	0	536	504	0	506	0	0	
10	0	0	0	0	533	519	0	499	0	0	
11	0	0	0	0	531	530	0	489	0	0	
12	0	0	0	0	530	536	0	477	0	0	
13	0	0	0	0	531	537	0	464	0	0	
14	0	0	0	0	532	532	0	452	0	0	
15	0	0	0	0	534	522	0	440	0	0	
0	0	0	0	0	537	508	0	432	0	0	
1	0	0	0	0	540	491	0	427	0	0	
2	0	0	0	0	543	473	0	425	0	0	
3	0	0	0	0	547	456	0	428	0	0	
4	0	0	0	0	549	441	0	434	0	0	
5	0	0	0	0	551	431	0	443	0	0	
6	0	0	0	0	552	425	0	455	0	0	
7	0	0	0	0	552	423	0	468	0	0	
8	0	0	0	0	551	428	0	481	0	0	
9	0	0	0	0	549	438	0	492	0	0	
10	0	0	0	0	546	452	0	502	0	0	
11	0	0	0	0	543	469	0	508	0	0	
12	0	0	0	0	539	486	0	510	0	0	
13	0	0	0	0	536	504	0	508	0	0	
14	0	0	0	0	532	519	0	502	0	0	
15	0	0	0	0	531	530	0	492	0	0	
0	0	0	0	0	529	536	0	480	0	0	
1	0	0	0	0	530	537	0	467	0	0	
2	0	0	0	0	531	532	0	455	0	0	
3	0	0	0	0	534	522	0	443	0	0	
4	0	0	0	0	536	508	0	434	0	0	
5	0	0	0	0	541	492	0	428	0	0	
6	0	0	0	0	545	474	0	426	0	0	
7	0	0	0	0	549	457	0	428	0	0	
8	0	0	0	0	553	443	0	435	0	0	
9	0	0	0	0	555	432	0	444	0	0	
10	0	0	0	0	557	425	0	455	0	0	
11	0	0	0	0	557	424	0	468	0	0	
12	0	0	0	0	556	429	0	481	0	0	
13	0	0	0	0	553	439	0	492	0	0	
14	0	0	0	0	550	452	0	500	0	0	
15	0	0	0	0	546	468	0	505	0	0	
0	0	0	0	0	542	486	0	507	0	0	
1	0	0	0	0	537	503	0	504	0	0	
2	0	0	0	0	533	517	0	496	0	0	
3	0	0	0	0	529	528	0	486	0	0	
4	0	0	0	0	528	533	0	474	0	0	
5	0	0	0	0	527	534	0	460	0	0	
6	0	0	0	0	528	528	0	448	0	0	
7	0	0	0	0	530	518	0	436	0	0	
8	0	0	0	0	532	504	0	427	0	0	
9	0	0	0	0	536	487	0	422	0	0	
10	0	0	0	0	540	469	0	420	0	0	
11	0	0	0	0	543	451	0	423	0	0	
12	0	0	0	0	547	437	0	430	0	0	
13	0	0	0	0	549	426	0	440	0	0	
14	0	0	0	0	551	420	0	452	0	0	
15	0	0	0	0	551	419	0	464	0	0	
0	0	0	0	0	550	424	0	477	0	0	
1	0	0	0	0	548	434	0	489	0	0	
2	0	0	0	0	545	448	0	498	0	0	
3	0	0	0	0	541	465	0	503	0	0	
4	0	0	0	0	537	483	0	505	0	0	
5	0	0	0	0	534	500	0	503	0	0	
6	0	0	0	0	531	515	0	496	0	0	
7	0	0	0	0	528	527	0	486	0	0	
8	0	0	0	0	527	532	0	475	0	0	
9	0	0	0	0	527	534	0	462	0	0	
10	0	0	0	0	528	529	0	449	0	0	
11	0	0	0	0	530	519	0	439	0	0	
12	0	0	0	0	532	505	0	430	0	0	
13	0	0	0	0	536	488	0	424	0	0	
14	0	0	0	0	539	471	0	422	0	0	
15	0	0	0	0	542	454	0	425	0	0	
0	0	0	0	0	545	438	0	431	0	0	
1	0	0	0	0	547	427	0	440	0	0	
2	0	0	0	0	548	420	0	451	0	0	
3	0	0	0	0	548	419	0	463	0	0	
4	0	0	0	0	547	424	0	475	0	0	
5	0	0	0	0	544	433	0	486	0	0	
6	0	0	0	0	542	448	0	495	0	0	
7	0	0	0	0	539	463	0	500	0	0	
8	0	0	0	0	535	481	0	501	0	0	
9	0	0	0	0	531	499	0	499	0	0	
10	0	0	0	0	528	513	0	492	0	0	
11	0	0	0	0	525	524	0	482	0	0	
12	0	0	0	0	524	530	0	471	0	0	
13	0	0	0	0	524	531	0	457	0	0	
14	0	0	0	0	525	527	0	446	0	0	
15	0	0	0	0	527	517	0	434	0	0	
0	0	0	0	0	529	503	0	425	0	0	
1	0	0	0	0	533	486	0	420	0	0	
2	0	0	0	0	537	468	0	419	0	0	
3	0	0	0	0	541	452	0	422	0	0	
4	0	0	0	0	544	437	0	428	0	0	
5	0	0	0	0	546	426	0	438	0	0	
6	0	0	0	0	548	419	0	450	0	0	
7	0	0	0	0	548	418	0	463	0	0	
8	0	0	0	0	547	423	0	476	0	0	
9	0	0	0	0	545	432	0	487	0	0	
10	0	0	0	0	542	446	0	496	0	0	
11	0	0	0	0	539	462	0	501	0	0	
12	0	0	0	0	535	480	0	503	0	0	
13	0	0	0	0	530	496	0	500	0	0	
14	0	0	0	0	526	511	0	493	0	0	
15	0	0	0	0	522	522	0	483	0	0	
0	0	0	0	0	520	527	0	471	0	0	
1	0	0	0	0	519	528	0	457	0	0	
2	0	0	0	0	519	524	0	444	0	0	
3	0	0	0	0	519	513	0	432	0	0	
4	0	0	0	0	521	499	0	423	0	0	
5	0	0	0	0	524	482	0	417	0	0	
6	0	0	0	0	527	465	0	416	0	0	
7	0	0	0	0	531	448	0	419	0	0	
8	0	0	0	0	535	432	0	424	0	0	
9	0	0	0	0	536	421	0	434	0	0	
10	0	0	0	0	539	415	0	446	0	0	
11	0	0	0	0	540	414	0	459	0	0	
12	0	0	0	0	541	419	0	472	0	0	
13	0	0	0	0	540	429	0	483	0	0	
14	0	0	0	0	538	444	0	492	0	0	
15	0	0	0	0	536	461	0	498	0	0	
0	0	0	0	0	533	478	0	500	0	0	
1	0	0	0	0	530	496	0	498	0	0	
2	0	0	0	0	527	511	0	491	0	0	
3	0	0	0	0	524	521	0	481	0	0	
4	0	0	0	0	522	527	0	470	0	0	
5	0	0	0	0	521	527	0	456	0	0	
6	0	0	0	0	521	521	0	443	0	0	
7	0	0	0	0	522	510	0	431	0	0	
8	0	0	0	0	523	495	0	422	0	0	
9	0	0	0	0	525	478	0	416	0	0	
10	0	0	0	0	528	459	0	414	0	0	
11	0	0	0	0	531	441	0	416	0	0	
12	0	0	0	0	534	427	0	423	0	0	
13	0	0	0	0	536	416	0	432	0	0	
14	0	0	0	0	538	410	0	444	0	0	
15	0	0	0	0	539	409	0	457	0	0	
0	0	0	0	0	539	415	0	471	0	0	
1	0	0	0	0	537	426	0	482	0	0	
2	0	0	0	0	535	441	0	492	0	0	
3	0	0	0	0	533	460	0	497	0	0	
4	0	0	0	0	531	479	0	499	0	0	
5	0	0	0	0	527	497	0	497	0	0	
6	0	0	0	0	525	514	0	491	0	0	
7	0	0	0	0	524	526	0	481	0	0	
8	0	0	0	0	522	533	0	469	0	0	
9	0	0	0	0	523	535	0	456	0	0	
10	0	0	0	0	523	530	0	444	0	0	
11	0	0	0	0	525	520	0	432	0	0	
12	0	0	0	0	527	507	0	423	0	0	
13	0	0	0	0	529	490	0	418	0	0	
14	0	0	0	0	533	471	0	416	0	0	
15	0	0	0	0	536	454	0	419	0	0	
0	0	0	0	0	539	439	0	426	0	0	
1	0	0	0	0	541	427	0	435	0	0	
2	0	0	0	0	542	419	0	448	0	0	
3	0	0	0	0	542	418	0	461	0	0	
4	0	0	0	0	542	423	0	474	0	0	
5	0	0	0	0	540	432	0	485	0	0	
6	0	0	0	0	538	446	0	494	0	0	
7	0	0	0	0	536	462	0	500	0	0	
8	0	0	0	0	533	480	0	502	0	0	
9	0	0	0	0	530	497	0	500	0	0	
10	0	0	0	0	527	512	0	494	0	0	
11	0	0	0	0	525	524	0	484	0	0	
12	0	0	0	0	524	531	0	473	0	0	
13	0	0	0	0	525	532	0	460	0	0	
14	0	0	0	0	526	528	0	448	0	0	
15	0	0	0	0	527	519	0	436	0	0	
0	0	0	0	0	529	505	0	427	0	0	
1	0	0	0	0	532	489	0	421	0	0	
2	0	0	0	0	535	471	0	419	0	0	
3	0	0	0	0	539	454	0	422	0	0	
4	0	0	0	0	541	439	0	428	0	0	
5	0	0	0	0	543	428	0	437	0	0	
6	0	0	0	0	545	421	0	448	0	0	
7	0	0	0	0	545	420	0	461	0	0	
8	0	0	0	0	543	424	0	473	0	0	
9	0	0	0	0	543	433	0	484	0	0	
10	0	0	0	0	540	447	0	492	0	0	
11	0	0	0	0	537	463	0	497	0	0	
12	0	0	0	0	534	479	0	499	0	0	
13	0	0	0	0	531	496	0	496	0	0	
14	0	0	0	0	527	510	0	489	0	0	
15	0	0	0	0	524	520	0	480	0	0	
0	0	0	0	0	523	526	0	468	0	0	
1	0	0	0	0	522	526	0	455	0	0	
2	0	0	0	0	522	521	0	444	0	0	
3	0	0	0	0	523	511	0	432	0	0	
4	0	0	0	0	524	497	0	424	0	0	
5	0	0	0	0	526	481	0	419	0	0	
6	0	0	0	0	529	463	0	417	0	0	
7	0	0	0	0	533	447	0	421	0	0	
8	0	0	0	0	536	432	0	428	0	0	
9	0	0	0	0	539	422	0	437	0	0	
10	0	0	0	0	542	417	0	449	0	0	
11	0	0	0	0	543	416	0	463	0	0	
12	0	0	0	0	543	422	0	476	0	0	
13	0	0	0	0	543	432	0	487	0	0	
14	0	0	0	0	541	447	0	496	0	0	
15	0	0	0	0	539	463	0	502	0	0	
0	0	0	0	0	536	481	0	504	0	0	
1	0	0	0	0	533	499	0	502	0	0	
2	0	0	0	0	530	514	0	496	0	0	
3	0	0	0	0	528	526	0	486	0	0	
4	0	0	0	0	526	531	0	474	0	0	
5	0	0	0	0	526	532	0	461	0	0	
6	0	0	0	0	526	527	0	448	0	0	
7	0	0	0	0	527	516	0	436	0	0	
8	0	0	0	0	528	502	0	427	0	0	
9	0	0	0	0	531	484	0	422	0	0	
10	0	0	0	0	534	467	0	419	0	0	
11	0	0	0	0	536	448	0	422	0	0	
12	0	0	0	0	539	433	0	428	0	0	
13	0	0	0	0	542	422	0	438	0	0	
14	0	0	0	0	543	415	0	450	0	0	
15	0	0	0	0	543	414	0	463	0	0	
0	0	0	0	0	543	419	0	477	0	0	
1	0	0	0	0	542	429	0	488	0	0	
2	0	0	0	0	540	444	0	498	0	0	
3	0	0	0	0	537	461	0	504	0	0	
4	0	0	0	0	534	479	0	507	0	0	
5	0	0	0	0	531	497	0	505	0	0	
6	0	0	0	0	527	513	0	499	0	0	
7	0	0	0	0	525	526	0	489	0	0	
8	0	0	0	0	524	534	0	477	0	0	
9	0	0	0	0	523	535	0	464	0	0	
10	0	0	0	0	524	531	0	451	0	0	
11	0	0	0	0	526	522	0	439	0	0	
12	0	0	0	0	528	508	0	429	0	0	
13	0	0	0	0	531	492	0	423	0	0	
14	0	0	0	0	535	473	0	422	0	0	
15	0	0	0	0	539	456	0	423	0	0	
0	0	0	0	0	542	441	0	430	0	0	
1	0	0	0	0	544	429	0	440	0	0	
2	0	0	0	0	546	422	0	452	0	0	
3	0	0	0	0	546	420	0	465	0	0	
4	0	0	0	0	545	425	0	479	0	0	
5	0	0	0	0	543	434	0	490	0	0	
6	0	0	0	0	540	447	0	499	0	0	
7	0	0	0	0	536	463	0	504	0	0	
8	0	0	0	0	532	480	0	506	0	0	
9	0	0	0	0	528	497	0	504	0	0	
10	0	0	0	0	524	512	0	497	0	0	
11	0	0	0	0	520	523	0	486	0	0	
12	0	0	0	0	519	529	0	473	0	0	
13	0	0	0	0	519	529	0	460	0	0	
14	0	0	0	0	519	524	0	447	0	0	
15	0	0	0	0	521	515	0	435	0	0	
0	0	0	0	0	524	500	0	425	0	0	
1	0	0	0	0	526	483	0	419	0	0	
2	0	0	0	0	530	465	0	416	0	0	
3	0	0	0	0	533	448	0	419	0	0	
4	0	0	0	0	536	432	0	425	0	0	
5	0	0	0	0	539	421	0	434	0	0	
6	0	0	0	0	540	414	0	447	0	0	
7	0	0	0	0	541	413	0	460	0	0	
8	0	0	0	0	540	417	0	472	0	0	
9	0	0	0	0	539	427	0	485	0	0	
10	0	0	0	0	536	441	0	495	0	0	
11	0	0	0	0	532	458	0	500	0	0	
12	0	0	0	0	529	476	0	503	0	0	
13	0	0	0	0	526	494	0	501	0	0	
14	0	0	0	0	522	509	0	495	0	0	
15	0	0	0	0	519	520	0	485	0	0	
0	0	0	0	0	518	527	0	473	0	0	
1	0	0	0	0	517	526	0	459	0	0	
2	0	0	0	0	517	521	0	445	0	0	
3	0	0	0	0	518	511	0	432	0	0	
4	0	0	0	0	519	496	0	422	0	0	
5	0	0	0	0	521	478	0	415	0	0	
6	0	0	0	0	524	459	0	411	0	0	
7	0	0	0	0	527	441	0	412	0	0	
8	0	0	0	0	529	426	0	417	0	0	
9	0	0	0	0	531	414	0	426	0	0	
10	0	0	0	0	532	407	0	437	0	0	
11	0	0	0	0	533	406	0	450	0	0	
12	0	0	0	0	532	411	0	464	0	0	
13	0	0	0	0	531	421	0	476	0	0	
14	0	0	0	0	529	435	0	486	0	0	
15	0	0	0	0	527	452	0	493	0	0	
0	0	0	0	0	525	471	0	496	0	0	
1	0	0	0	0	522	489	0	495	0	0	
2	0	0	0	0	519	505	0	490	0	0	
3	0	0	0	0	518	517	0	482	0	0	
4	0	0	0	0	516	524	0	470	0	0	
5	0	0	0	0	517	526	0	458	0	0	
6	0	0	0	0	518	521	0	446	0	0	
7	0	0	0	0	519	511	0	434	0	0	
8	0	0	0	0	522	497	0	425	0	0	
9	0	0	0	0	525	480	0	418	0	0	
10	0	0	0	0	529	462	0	416	0	0	
11	0	0	0	0	533	444	0	418	0	0	
12	0	0	0	0	536	429	0	424	0	0	
13	0	0	0	0	539	418	0	434	0	0	
14	0	0	0	0	540	412	0	446	0	0	
15	0	0	0	0	541	411	0	460	0	0	
0	0	0	0	0	541	416	0	473	0	0	
1	0	0	0	0	540	426	0	486	0	0	
2	0	0	0	0	537	440	0	495	0	0	
3	0	0	0	0	534	458	0	501	0	0	
4	0	0	0	0	531	476	0	504	0	0	
5	0	0	0	0	527	493	0	502	0	0	
6	0	0	0	0	524	509	0	495	0	0	
7	0	0	0	0	521	520	0	486	0	0	
8	0	0	0	0	519	526	0	473	0	0	
9	0	0	0	0	519	526	0	460	0	0	
10	0	0	0	0	519	521	0	446	0	0	
11	0	0	0	0	520	510	0	433	0	0	
12	0	0	0	0	522	496	0	423	0	0	
13	0	0	0	0	524	478	0	415	0	0	
14	0	0	0	0	527	460	0	413	0	0	
15	0	0	0	0	529	442	0	414	0	0	
0	0	0	0	0	532	427	0	419	0	0	
1	0	0	0	0	534	416	0	428	0	0	
2	0	0	0	0	534	409	0	440	0	0	
3	0	0	0	0	535	408	0	454	0	0	
4	0	0	0	0	534	414	0	467	0	0	
5	0	0	0	0	532	423	0	479	0	0	
6	0	0	0	0	530	438	0	488	0	0	
7	0	0	0	0	527	455	0	496	0	0	
8	0	0	0	0	525	472	0	499	0	0	
9	0	0	0	0	523	490	0	498	0	0	
10	0	0	0	0	520	506	0	492	0	0	
11	0	0	0	0	519	518	0	483	0	0	
12	0	0	0	0	519	525	0	472	0	0	
13	0	0	0	0	519	526	0	461	0	0	
14	0	0	0	0	521	521	0	448	0	0	
15	0	0	0	0	522	511	0	437	0	0	
0	0	0	0	0	524	496	0	427	0	0	
1	0	0	0	0	525	479	0	419	0	0	
2	0	0	0	0	526	458	0	414	0	0	
3	0	0	0	0	526	438	0	412	0	0	
4	0	0	0	0	524	418	0	413	0	0	
5	0	0	0	0	521	401	0	416	0	0	
6	0	0	0	0	515	388	0	420	0	0	
7	0	0	0	0	507	380	0	425	0	0	
8	0	0	0	0	496	375	0	430	0	0	
9	0	0	0	0	485	375	0	432	0	0	
10	0	0	0	0	472	379	0	431	0	0	
11	0	0	0	0	457	385	0	426	0	0	
12	0	0	0	0	443	392	0	417	0	0	
13	0	0	0	0	427	399	0	404	0	0	
14	0	0	0	0	412	404	0	387	0	0	
15	0	0	0	0	398	405	0	367	0	0	
0	0	0	0	0	385	401	0	343	0	0	
1	0	0	0	0	374	391	0	319	0	0	
2	0	0	0	0	363	376	0	295	0	0	
3	0	0	0	0	353	356	0	273	0	0	
4	0	0	0	0	345	331	0	252	0	0	
5	0	0	0	0	337	303	0	233	0	0	
6	0	0	0	0	329	273	0	219	0	0	
7	0	0	0	0	323	243	0	210	0	0	
8	0	0	0	0	316	216	0	206	0	0	
9	0	0	0	0	310	193	0	206	0	0	
10	0	0	0	0	304	176	0	211	0	0	
11	0	0	0	0	299	165	0	219	0	0	
12	0	0	0	0	295	164	0	231	0	0	
13	0	0	0	0	293	171	0	244	0	0	
14	0	0	0	0	293	186	0	258	0	0	
15	0	0	0	0	296	209	0	273	0	0	
0	0	0	0	0	303	237	0	287	0	0	
1	0	0	0	0	314	270	0	300	0	0	
2	0	0	0	0	328	304	0	312	0	0	
3	0	0	0	0	346	337	0	322	0	0	
4	0	0	0	0	368	368	0	332	0	0	
5	0	0	0	0	392	396	0	342	0	0	
6	0	0	0	0	419	418	0	352	0	0	
7	0	0	0	0	446	434	0	364	0	0	
8	0	0	0	0	473	444	0	376	0	0	
9	0	0	0	0	500	449	0	390	0	0	
10	0	0	0	0	524	450	0	405	0	0	
11	0	0	0	0	544	448	0	423	0	0	
12	0	0	0	0	562	445	0	441	0	0	
13	0	0	0	0	575	443	0	460	0	0	
14	0	0	0	0	583	443	0	480	0	0	
15	0	0	0	0	587	444	0	497	0	0	
0	0	0	0	0	587	451	0	512	0	0	
1	0	0	0	0	583	460	0	523	0	0	
2	0	0	0	0	576	472	0	530	0	0	
3	0	0	0	0	566	486	0	532	0	0	
4	0	0	0	0	556	500	0	530	0	0	
5	0	0	0	0	544	514	0	523	0	0	
6	0	0	0	0	534	525	0	511	0	0	
7	0	0	0	0	524	533	0	496	0	0	
8	0	0	0	0	516	537	0	479	0	0	
9	0	0	0	0	512	535	0	463	0	0	
10	0	0	0	0	510	528	0	447	0	0	
11	0	0	0	0	511	517	0	433	0	0	
12	0	0	0	0	513	502	0	423	0	0	
13	0	0	0	0	518	485	0	418	0	0	
14	0	0	0	0	524	467	0	417	0	0	
15	0	0	0	0	531	450	0	421	0	0	
0	0	0	0	0	538	436	0	430	0	0	
1	0	0	0	0	545	427	0	442	0	0	
2	0	0	0	0	551	421	0	457	0	0	
3	0	0	0	0	555	422	0	472	0	0	
4	0	0	0	0	558	428	0	488	0	0	
5	0	0	0	0	559	439	0	501	0	0	
6	0	0	0	0	558	455	0	512	0	0	
7	0	0	0	0	556	472	0	519	0	0	
8	0	0	0	0	553	492	0	521	0	0	
9	0	0	0	0	548	510	0	520	0	0	
10	0	0	0	0	544	526	0	513	0	0	
11	0	0	0	0	540	538	0	504	0	0	
12	0	0	0	0	538	544	0	491	0	0	
13	0	0	0	0	536	545	0	477	0	0	
14	0	0	0	0	536	541	0	464	0	0	
15	0	0	0	0	536	531	0	451	0	0	
0	0	0	0	0	538	516	0	442	0	0	
1	0	0	0	0	541	499	0	435	0	0	
2	0	0	0	0	543	481	0	433	0	0	
3	0	0	0	0	547	463	0	435	0	0	
4	0	0	0	0	550	448	0	441	0	0	
5	0	0	0	0	552	436	0	451	0	0	
6	0	0	0	0	555	429	0	463	0	0	
7	0	0	0	0	555	428	0	477	0	0	
8	0	0	0	0	555	433	0	491	0	0	
9	0	0	0	0	553	442	0	502	0	0	
10	0	0	0	0	551	456	0	512	0	0	
11	0	0	0	0	548	473	0	519	0	0	
12	0	0	0	0	544	492	0	521	0	0	
13	0	0	0	0	541	509	0	520	0	0	
14	0	0	0	0	537	525	0	514	0	0	
15	0	0	0	0	535	536	0	505	0	0	
0	0	0	0	0	532	544	0	492	0	0	
1	0	0	0	0	532	545	0	479	0	0	
2	0	0	0	0	532	540	0	466	0	0	
3	0	0	0	0	534	530	0	454	0	0	
4	0	0	0	0	536	516	0	443	0	0	
5	0	0	0	0	539	500	0	437	0	0	
6	0	0	0	0	542	481	0	434	0	0	
7	0	0	0	0	546	463	0	436	0	0	
8	0	0	0	0	549	449	0	441	0	0	
9	0	0	0	0	552	437	0	450	0	0	
10	0	0	0	0	553	430	0	462	0	0	
11	0	0	0	0	554	429	0	476	0	0	
12	0	0	0	0	553	433	0	489	0	0	
13	0	0	0	0	551	443	0	501	0	0	
14	0	0	0	0	549	457	0	511	0	0	
15	0	0	0	0	546	473	0	517	0	0	
0	0	0	0	0	542	491	0	519	0	0	
1	0	0	0	0	538	508	0	518	0	0	
2	0	0	0	0	534	523	0	512	0	0	
3	0	0	0	0	531	533	0	502	0	0	
4	0	0	0	0	529	539	0	489	0	0	
5	0	0	0	0	528	539	0	476	0	0	
6	0	0	0	0	529	534	0	462	0	0	
7	0	0	0	0	530	524	0	449	0	0	
8	0	0	0	0	532	510	0	439	0	0	
9	0	0	0	0	535	492	0	432	0	0	
10	0	0	0	0	538	475	0	428	0	0	
11	0	0	0	0	541	458	0	429	0	0	
12	0	0	0	0	544	443	0	434	0	0	
13	0	0	0	0	546	432	0	443	0	0	
14	0	0	0	0	548	425	0	455	0	0	
15	0	0	0	0	548	425	0	468	0	0	
0	0	0	0	0	547	430	0	481	0	0	
1	0	0	0	0	545	440	0	493	0	0	
2	0	0	0	0	543	454	0	503	0	0	
3	0	0	0	0	540	470	0	510	0	0	
4	0	0	0	0	537	487	0	513	0	0	
5	0	0	0	0	533	505	0	511	0	0	
6	0	0	0	0	530	520	0	505	0	0	
7	0	0	0	0	527	532	0	496	0	0	
8	0	0	0	0	526	538	0	485	0	0	
9	0	0	0	0	526	540	0	472	0	0	
10	0	0	0	0	526	535	0	460	0	0	
11	0	0	0	0	528	526	0	448	0	0	
12	0	0	0	0	530	512	0	439	0	0	
13	0	0	0	0	534	496	0	433	0	0	
14	0	0	0	0	537	479	0	431	0	0	
15	0	0	0	0	540	462	0	433	0	0	
0	0	0	0	0	543	447	0	439	0	0	
1	0	0	0	0	545	435	0	449	0	0	
2	0	0	0	0	547	428	0	460	0	0	
3	0	0	0	0	548	427	0	473	0	0	
4	0	0	0	0	547	431	0	486	0	0	
5	0	0	0	0	545	440	0	496	0	0	
6	0	0	0	0	543	454	0	505	0	0	
7	0	0	0	0	540	469	0	511	0	0	
8	0	0	0	0	537	487	0	513	0	0	
9	0	0	0	0	534	504	0	511	0	0	
10	0	0	0	0	530	518	0	504	0	0	
11	0	0	0	0	527	529	0	494	0	0	
12	0	0	0	0	525	536	0	482	0	0	
13	0	0	0	0	525	536	0	469	0	0	
14	0	0	0	0	526	531	0	456	0	0	
15	0	0	0	0	527	521	0	444	0	0	
0	0	0	0	0	529	508	0	435	0	0	
1	0	0	0	0	532	491	0	429	0	0	
2	0	0	0	0	536	473	0	427	0	0	
3	0	0	0	0	540	456	0	429	0	0	
4	0	0	0	0	543	441	0	435	0	0	
5	0	0	0	0	546	430	0	445	0	0	
6	0	0	0	0	547	423	0	458	0	0	
7	0	0	0	0	548	422	0	472	0	0	
8	0	0	0	0	547	427	0	486	0	0	
9	0	0	0	0	546	436	0	498	0	0	
10	0	0	0	0	543	451	0	508	0	0	
11	0	0	0	0	540	468	0	515	0	0	
12	0	0	0	0	537	486	0	518	0	0	
13	0	0	0	0	534	504	0	517	0	0	
14	0	0	0	0	530	519	0	511	0	0	
15	0	0	0	0	527	532	0	501	0	0	
0	0	0	0	0	526	539	0	490	0	0	
1	0	0	0	0	525	540	0	476	0	0	
2	0	0	0	0	525	536	0	463	0	0	
3	0	0	0	0	526	526	0	450	0	0	
4	0	0	0	0	528	512	0	440	0	0	
5	0	0	0	0	531	496	0	433	0	0	
6	0	0	0	0	534	477	0	431	0	0	
7	0	0	0	0	538	459	0	432	0	0	
8	0	0	0	0	541	444	0	438	0	0	
9	0	0	0	0	543	432	0	447	0	0	
10	0	0	0	0	545	424	0	458	0	0	
11	0	0	0	0	546	422	0	471	0	0	
12	0	0	0	0	546	426	0	484	0	0	
13	0	0	0	0	544	435	0	495	0	0	
14	0	0	0	0	542	448	0	504	0	0	
15	0	0	0	0	539	464	0	510	0	0	
0	0	0	0	0	536	482	0	512	0	0	
1	0	0	0	0	532	499	0	510	0	0	
2	0	0	0	0	527	514	0	503	0	0	
3	0	0	0	0	525	526	0	494	0	0	
4	0	0	0	0	523	532	0	481	0	0	
5	0	0	0	0	523	533	0	468	0	0	
6	0	0	0	0	524	528	0	455	0	0	
7	0	0	0	0	526	519	0	444	0	0	
8	0	0	0	0	528	505	0	434	0	0	
9	0	0	0	0	531	488	0	427	0	0	
10	0	0	0	0	535	470	0	425	0	0	
11	0	0	0	0	540	452	0	427	0	0	
12	0	0	0	0	543	437	0	433	0	0	
13	0	0	0	0	546	425	0	442	0	0	
14	0	0	0	0	547	419	0	454	0	0	
15	0	0	0	0	548	417	0	468	0	0	
0	0	0	0	0	547	421	0	481	0	0	
1	0	0	0	0	546	431	0	494	0	0	
2	0	0	0	0	543	444	0	504	0	0	
3	0	0	0	0	540	461	0	509	0	0	
4	0	0	0	0	536	479	0	512	0	0	
5	0	0	0	0	532	496	0	510	0	0	
6	0	0	0	0	528	512	0	504	0	0	
7	0	0	0	0	525	524	0	494	0	0	
8	0	0	0	0	523	531	0	483	0	0	
9	0	0	0	0	522	532	0	470	0	0	
10	0	0	0	0	522	528	0	457	0	0	
11	0	0	0	0	524	519	0	447	0	0	
12	0	0	0	0	526	506	0	438	0	0	
13	0	0	0	0	528	489	0	432	0	0	
14	0	0	0	0	532	472	0	430	0	0	
15	0	0	0	0	536	455	0	433	0	0	
0	0	0	0	0	539	440	0	438	0	0	
1	0	0	0	0	542	428	0	448	0	0	
2	0	0	0	0	543	422	0	459	0	0	
3	0	0	0	0	545	421	0	472	0	0	
4	0	0	0	0	545	425	0	484	0	0	
5	0	0	0	0	543	435	0	496	0	0	
6	0	0	0	0	542	448	0	504	0	0	
7	0	0	0	0	539	465	0	510	0	0	
8	0	0	0	0	536	483	0	512	0	0	
9	0	0	0	0	533	500	0	510	0	0	
10	0	0	0	0	530	516	0	503	0	0	
11	0	0	0	0	527	528	0	494	0	0	
12	0	0	0	0	526	536	0	482	0	0	
13	0	0	0	0	526	537	0	470	0	0	
14	0	0	0	0	527	533	0	457	0	0	
15	0	0	0	0	529	524	0	446	0	0	
0	0	0	0	0	531	510	0	437	0	0	
1	0	0	0	0	535	494	0	432	0	0	
2	0	0	0	0	539	476	0	430	0	0	
3	0	0	0	0	542	459	0	432	0	0	
4	0	0	0	0	545	444	0	439	0	0	
5	0	0	0	0	548	432	0	448	0	0	
6	0	0	0	0	550	425	0	460	0	0	
7	0	0	0	0	551	423	0	473	0	0	
8	0	0	0	0	550	428	0	486	0	0	
9	0	0	0	0	548	437	0	497	0	0	
10	0	0	0	0	545	450	0	505	0	0	
11	0	0	0	0	542	467	0	511	0	0	
12	0	0	0	0	538	484	0	512	0	0	
13	0	0	0	0	534	502	0	510	0	0	
14	0	0	0	0	531	517	0	503	0	0	
15	0	0	0	0	527	529	0	493	0	0	
0	0	0	0	0	526	536	0	481	0	0	
1	0	0	0	0	526	537	0	468	0	0	
2	0	0	0	0	525	533	0	455	0	0	
3	0	0	0	0	527	524	0	444	0	0	
4	0	0	0	0	530	510	0	434	0	0	
5	0	0	0	0	532	493	0	428	0	0	
6	0	0	0	0	536	475	0	427	0	0	
7	0	0	0	0	540	457	0	429	0	0	
8	0	0	0	0	543	442	0	435	0	0	
9	0	0	0	0	546	430	0	444	0	0	
10	0	0	0	0	548	423	0	456	0	0	
11	0	0	0	0	549	422	0	470	0	0	
12	0	0	0	0	548	427	0	483	0	0	
13	0	0	0	0	547	436	0	495	0	0	
14	0	0	0	0	544	450	0	504	0	0	
15	0	0	0	0	541	467	0	510	0	0	
0	0	0	0	0	537	484	0	512	0	0	
1	0	0	0	0	533	502	0	510	0	0	
2	0	0	0	0	529	518	0	504	0	0	
3	0	0	0	0	525	529	0	494	0	0	
4	0	0	0	0	523	536	0	482	0	0	
5	0	0	0	0	523	536	0	470	0	0	
6	0	0	0	0	523	532	0	457	0	0	
7	0	0	0	0	524	523	0	446	0	0	
8	0	0	0	0	526	508	0	436	0	0	
9	0	0	0	0	530	492	0	430	0	0	
10	0	0	0	0	534	474	0	428	0	0	
11	0	0	0	0	539	457	0	430	0	0	
12	0	0	0	0	543	441	0	436	0	0	
13	0	0	0	0	546	430	0	445	0	0	
14	0	0	0	0	548	423	0	457	0	0	
15	0	0	0	0	550	423	0	471	0	0	
0	0	0	0	0	550	428	0	484	0	0	
1	0	0	0	0	548	438	0	496	0	0	
2	0	0	0	0	546	452	0	506	0	0	
3	0	0	0	0	543	471	0	512	0	0	
4	0	0	0	0	541	489	0	515	0	0	
5	0	0	0	0	538	507	0	513	0	0	
6	0	0	0	0	535	523	0	508	0	0	
7	0	0	0	0	532	535	0	498	0	0	
8	0	0	0	0	530	543	0	486	0	0	
9	0	0	0	0	531	544	0	474	0	0	
10	0	0	0	0	531	540	0	461	0	0	
11	0	0	0	0	532	530	0	449	0	0	
12	0	0	0	0	534	516	0	440	0	0	
13	0	0	0	0	536	499	0	433	0	0	
14	0	0	0	0	540	481	0	431	0	0	
15	0	0	0	0	543	463	0	433	0	0	
0	0	0	0	0	545	448	0	438	0	0	
1	0	0	0	0	548	435	0	448	0	0	
2	0	0	0	0	549	429	0	459	0	0	
3	0	0	0	0	550	427	0	472	0	0	
4	0	0	0	0	549	431	0	485	0	0	
5	0	0	0	0	548	440	0	496	0	0	
6	0	0	0	0	546	454	0	506	0	0	
7	0	0	0	0	543	471	0	512	0	0	
8	0	0	0	0	541	489	0	515	0	0	
9	0	0	0	0	538	507	0	514	0	0	
10	0	0	0	0	536	523	0	509	0	0	
11	0	0	0	0	534	536	0	500	0	0	
12	0	0	0	0	534	543	0	490	0	0	
13	0	0	0	0	535	544	0	479	0	0	
14	0	0	0	0	536	541	0	467	0	0	
15	0	0	0	0	539	532	0	456	0	0	
0	0	0	0	0	541	519	0	448	0	0	
1	0	0	0	0	544	503	0	442	0	0	
2	0	0	0	0	548	485	0	440	0	0	
3	0	0	0	0	551	467	0	443	0	0	
4	0	0	0	0	555	452	0	449	0	0	
5	0	0	0	0	557	441	0	457	0	0	
6	0	0	0	0	558	434	0	468	0	0	
7	0	0	0	0	558	432	0	480	0	0	
8	0	0	0	0	558	437	0	492	0	0	
9	0	0	0	0	556	446	0	503	0	0	
10	0	0	0	0	553	460	0	511	0	0	
11	0	0	0	0	550	476	0	515	0	0	
12	0	0	0	0	547	494	0	518	0	0	
13	0	0	0	0	543	511	0	515	0	0	
14	0	0	0	0	540	527	0	509	0	0	
15	0	0	0	0	536	538	0	499	0	0	
0	0	0	0	0	535	545	0	488	0	0	
1	0	0	0	0	535	546	0	476	0	0	
2	0	0	0	0	535	542	0	464	0	0	
3	0	0	0	0	536	533	0	453	0	0	
4	0	0	0	0	539	519	0	444	0	0	
5	0	0	0	0	541	503	0	439	0	0	
6	0	0	0	0	545	486	0	437	0	0	
7	0	0	0	0	548	468	0	439	0	0	
8	0	0	0	0	551	453	0	445	0	0	
9	0	0	0	0	554	441	0	454	0	0	
10	0	0	0	0	555	435	0	465	0	0	
11	0	0	0	0	556	433	0	477	0	0	
12	0	0	0	0	555	438	0	490	0	0	
13	0	0	0	0	553	447	0	500	0	0	
14	0	0	0	0	550	460	0	509	0	0	
15	0	0	0	0	547	476	0	515	0	0	
0	0	0	0	0	543	495	0	516	0	0	
1	0	0	0	0	540	512	0	515	0	0	
2	0	0	0	0	536	527	0	508	0	0	
3	0	0	0	0	533	539	0	499	0	0	
4	0	0	0	0	531	546	0	487	0	0	
5	0	0	0	0	531	547	0	473	0	0	
6	0	0	0	0	532	542	0	461	0	0	
7	0	0	0	0	533	532	0	449	0	0	
8	0	0	0	0	536	518	0	440	0	0	
9	0	0	0	0	538	501	0	434	0	0	
10	0	0	0	0	542	483	0	431	0	0	
11	0	0	0	0	544	464	0	433	0	0	
12	0	0	0	0	548	449	0	439	0	0	
13	0	0	0	0	550	436	0	448	0	0	
14	0	0	0	0	551	429	0	459	0	0	
15	0	0	0	0	551	427	0	471	0	0	
0	0	0	0	0	551	431	0	483	0	0	
1	0	0	0	0	549	440	0	495	0	0	
2	0	0	0	0	546	453	0	503	0	0	
3	0	0	0	0	543	469	0	509	0	0	
4	0	0	0	0	540	487	0	511	0	0	
5	0	0	0	0	536	504	0	509	0	0	
6	0	0	0	0	532	519	0	502	0	0	
7	0	0	0	0	530	531	0	493	0	0	
8	0	0	0	0	528	537	0	481	0	0	
9	0	0	0	0	527	539	0	468	0	0	
10	0	0	0	0	527	534	0	456	0	0	
11	0	0	0	0	528	524	0	444	0	0	
12	0	0	0	0	529	511	0	435	0	0	
13	0	0	0	0	531	494	0	429	0	0	
14	0	0	0	0	535	476	0	427	0	0	
15	0	0	0	0	537	458	0	429	0	0	
0	0	0	0	0	540	442	0	435	0	0	
1	0	0	0	0	542	431	0	444	0	0	
2	0	0	0	0	543	423	0	455	0	0	
3	0	0	0	0	544	422	0	468	0	0	
4	0	0	0	0	543	425	0	480	0	0	
5	0	0	0	0	543	435	0	492	0	0	
6	0	0	0	0	540	448	0	500	0	0	
7	0	0	0	0	538	465	0	505	0	0	
8	0	0	0	0	535	483	0	507	0	0	
9	0	0	0	0	532	500	0	505	0	0	
10	0	0	0	0	529	515	0	498	0	0	
11	0	0	0	0	527	528	0	488	0	0	
12	0	0	0	0	526	535	0	476	0	0	
13	0	0	0	0	526	536	0	463	0	0	
14	0	0	0	0	527	531	0	451	0	0	
15	0	0	0	0	529	523	0	440	0	0	
0	0	0	0	0	531	508	0	431	0	0	
1	0	0	0	0	534	492	0	425	0	0	
2	0	0	0	0	538	474	0	423	0	0	
3	0	0	0	0	542	457	0	426	0	0	
4	0	0	0	0	545	442	0	432	0	0	
5	0	0	0	0	547	430	0	442	0	0	
6	0	0	0	0	548	423	0	455	0	0	
7	0	0	0	0	548	421	0	467	0	0	
8	0	0	0	0	547	425	0	481	0	0	
9	0	0	0	0	545	434	0	492	0	0	
10	0	0	0	0	542	447	0	501	0	0	
11	0	0	0	0	538	463	0	507	0	0	
12	0	0	0	0	534	480	0	509	0	0	
13	0	0	0	0	529	498	0	507	0	0	
14	0	0	0	0	526	513	0	500	0	0	
15	0	0	0	0	523	524	0	490	0	0	
0	0	0	0	0	521	531	0	478	0	0	
1	0	0	0	0	521	533	0	465	0	0	
2	0	0	0	0	522	528	0	452	0	0	
3	0	0	0	0	524	519	0	441	0	0	
4	0	0	0	0	527	506	0	431	0	0	
5	0	0	0	0	531	489	0	425	0	0	
6	0	0	0	0	536	472	0	423	0	0	
7	0	0	0	0	540	455	0	424	0	0	
8	0	0	0	0	543	440	0	431	0	0	
9	0	0	0	0	547	429	0	440	0	0	
10	0	0	0	0	549	423	0	452	0	0	
11	0	0	0	0	551	422	0	465	0	0	
12	0	0	0	0	550	427	0	479	0	0	
13	0	0	0	0	549	436	0	491	0	0	
14	0	0	0	0	547	451	0	500	0	0	
15	0	0	0	0	543	467	0	507	0	0	
0	0	0	0	0	540	485	0	510	0	0	
1	0	0	0	0	537	503	0	508	0	0	
2	0	0	0	0	533	518	0	503	0	0	
3	0	0	0	0	530	528	0	493	0	0	
4	0	0	0	0	529	535	0	481	0	0	
5	0	0	0	0	528	535	0	469	0	0	
6	0	0	0	0	529	530	0	455	0	0	
7	0	0	0	0	531	520	0	444	0	0	
8	0	0	0	0	532	505	0	433	0	0	
9	0	0	0	0	536	488	0	427	0	0	
10	0	0	0	0	539	471	0	424	0	0	
11	0	0	0	0	543	454	0	425	0	0	
12	0	0	0	0	546	439	0	431	0	0	
13	0	0	0	0	548	428	0	440	0	0	
14	0	0	0	0	550	422	0	452	0	0	
15	0	0	0	0	551	421	0	465	0	0	
0	0	0	0	0	550	426	0	479	0	0	
1	0	0	0	0	548	436	0	491	0	0	
2	0	0	0	0	546	450	0	501	0	0	
3	0	0	0	0	543	467	0	507	0	0	
4	0	0	0	0	540	485	0	510	0	0	
5	0	0	0	0	536	502	0	509	0	0	
6	0	0	0	0	532	518	0	503	0	0	
7	0	0	0	0	530	529	0	494	0	0	
8	0	0	0	0	529	535	0	482	0	0	
9	0	0	0	0	528	536	0	469	0	0	
10	0	0	0	0	529	532	0	455	0	0	
11	0	0	0	0	531	522	0	444	0	0	
12	0	0	0	0	534	508	0	435	0	0	
13	0	0	0	0	537	492	0	428	0	0	
14	0	0	0	0	541	473	0	425	0	0	
15	0	0	0	0	545	456	0	428	0	0	
0	0	0	0	0	548	441	0	434	0	0	
1	0	0	0	0	551	430	0	444	0	0	
2	0	0	0	0	552	423	0	456	0	0	
3	0	0	0	0	553	423	0	470	0	0	
4	0	0	0	0	553	427	0	483	0	0	
5	0	0	0	0	551	437	0	496	0	0	
6	0	0	0	0	549	451	0	505	0	0	
7	0	0	0	0	546	468	0	512	0	0	
8	0	0	0	0	543	485	0	514	0	0	
9	0	0	0	0	539	503	0	512	0	0	
10	0	0	0	0	536	519	0	506	0	0	
11	0	0	0	0	532	530	0	497	0	0	
12	0	0	0	0	531	536	0	485	0	0	
13	0	0	0	0	531	537	0	472	0	0	
14	0	0	0	0	531	533	0	459	0	0	
15	0	0	0	0	532	523	0	447	0	0	
0	0	0	0	0	534	509	0	436	0	0	
1	0	0	0	0	537	492	0	430	0	0	
2	0	0	0	0	540	475	0	427	0	0	
3	0	0	0	0	543	457	0	429	0	0	
4	0	0	0	0	546	442	0	435	0	0	
5	0	0	0	0	548	431	0	444	0	0	
6	0	0	0	0	551	424	0	455	0	0	
7	0	0	0	0	551	423	0	468	0	0	
8	0	0	0	0	551	428	0	482	0	0	
9	0	0	0	0	549	438	0	494	0	0	
10	0	0	0	0	547	452	0	504	0	0	
11	0	0	0	0	544	469	0	510	0	0	
12	0	0	0	0	541	487	0	513	0	0	
13	0	0	0	0	538	505	0	512	0	0	
14	0	0	0	0	535	521	0	507	0	0	
15	0	0	0	0	532	534	0	498	0	0	
0	0	0	0	0	532	541	0	487	0	0	
1	0	0	0	0	532	542	0	475	0	0	
2	0	0	0	0	533	539	0	463	0	0	
3	0	0	0	0	535	530	0	451	0	0	
4	0	0	0	0	537	516	0	442	0	0	
5	0	0	0	0	541	500	0	436	0	0	
6	0	0	0	0	544	482	0	433	0	0	
7	0	0	0	0	548	465	0	435	0	0	
8	0	0	0	0	551	449	0	440	0	0	
9	0	0	0	0	553	437	0	448	0	0	
10	0	0	0	0	554	430	0	460	0	0	
11	0	0	0	0	555	429	0	472	0	0	
12	0	0	0	0	555	433	0	485	0	0	
13	0	0	0	0	553	444	0	497	0	0	
14	0	0	0	0	551	458	0	507	0	0	
15	0	0	0	0	550	475	0	514	0	0	
0	0	0	0	0	547	494	0	516	0	0	
1	0	0	0	0	544	512	0	515	0	0	
2	0	0	0	0	541	527	0	510	0	0	
3	0	0	0	0	538	538	0	501	0	0	
4	0	0	0	0	536	544	0	489	0	0	
5	0	0	0	0	535	545	0	476	0	0	
6	0	0	0	0	534	540	0	463	0	0	
7	0	0	0	0	535	529	0	451	0	0	
8	0	0	0	0	536	515	0	442	0	0	
9	0	0	0	0	539	497	0	435	0	0	
10	0	0	0	0	541	479	0	432	0	0	
11	0	0	0	0	544	462	0	433	0	0	
12	0	0	0	0	547	447	0	439	0	0	
13	0	0	0	0	550	435	0	448	0	0	
14	0	0	0	0	551	428	0	459	0	0	
15	0	0	0	0	553	428	0	472	0	0	
0	0	0	0	0	553	432	0	485	0	0	
1	0	0	0	0	553	443	0	497	0	0	
2	0	0	0	0	551	457	0	507	0	0	
3	0	0	0	0	550	474	0	514	0	0	
4	0	0	0	0	549	492	0	518	0	0	
5	0	0	0	0	547	510	0	516	0	0	
6	0	0	0	0	545	526	0	512	0	0	
7	0	0	0	0	543	537	0	503	0	0	
8	0	0	0	0	543	544	0	492	0	0	
9	0	0	0	0	543	545	0	480	0	0	
10	0	0	0	0	543	540	0	467	0	0	
11	0	0	0	0	544	531	0	456	0	0	
12	0	0	0	0	545	516	0	447	0	0	
13	0	0	0	0	547	499	0	440	0	0	
14	0	0	0	0	549	480	0	437	0	0	
15	0	0	0	0	551	463	0	439	0	0	
0	0	0	0	0	553	447	0	444	0	0	
1	0	0	0	0	554	435	0	452	0	0	
2	0	0	0	0	554	427	0	462	0	0	
3	0	0	0	0	553	425	0	474	0	0	
4	0	0	0	0	551	429	0	486	0	0	
5	0	0	0	0	549	438	0	496	0	0	
6	0	0	0	0	545	451	0	504	0	0	
7	0	0	0	0	542	467	0	509	0	0	
8	0	0	0	0	538	484	0	511	0	0	
9	0	0	0	0	534	502	0	508	0	0	
10	0	0	0	0	530	517	0	502	0	0	
11	0	0	0	0	527	529	0	492	0	0	
12	0	0	0	0	526	536	0	481	0	0	
13	0	0	0	0	526	538	0	468	0	0	
14	0	0	0	0	527	534	0	456	0	0	
15	0	0	0	0	528	524	0	444	0	0	
0	0	0	0	0	531	511	0	435	0	0	
1	0	0	0	0	533	495	0	430	0	0	
2	0	0	0	0	537	476	0	428	0	0	
3	0	0	0	0	541	459	0	430	0	0	
4	0	0	0	0	544	443	0	435	0	0	
5	0	0	0	0	547	431	0	444	0	0	
6	0	0	0	0	547	423	0	455	0	0	
7	0	0	0	0	548	421	0	467	0	0	
8	0	0	0	0	547	424	0	480	0	0	
9	0	0	0	0	545	432	0	491	0	0	
10	0	0	0	0	542	445	0	499	0	0	
11	0	0	0	0	538	461	0	505	0	0	
12	0	0	0	0	535	478	0	508	0	0	
13	0	0	0	0	531	495	0	506	0	0	
14	0	0	0	0	527	510	0	501	0	0	
15	0	0	0	0	524	522	0	492	0	0	
0	0	0	0	0	523	529	0	481	0	0	
1	0	0	0	0	523	531	0	469	0	0	
2	0	0	0	0	524	528	0	457	0	0	
3	0	0	0	0	526	520	0	447	0	0	
4	0	0	0	0	530	508	0	438	0	0	
5	0	0	0	0	535	492	0	432	0	0	
6	0	0	0	0	539	476	0	430	0	0	
7	0	0	0	0	544	459	0	432	0	0	
8	0	0	0	0	549	445	0	438	0	0	
9	0	0	0	0	552	435	0	447	0	0	
10	0	0	0	0	555	428	0	458	0	0	
11	0	0	0	0	556	427	0	471	0	0	
12	0	0	0	0	556	431	0	483	0	0	
13	0	0	0	0	555	440	0	495	0	0	
14	0	0	0	0	552	454	0	504	0	0	
15	0	0	0	0	550	470	0	510	0	0	
0	0	0	0	0	546	487	0	512	0	0	
1	0	0	0	0	542	504	0	511	0	0	
2	0	0	0	0	539	519	0	506	0	0	
3	0	0	0	0	536	530	0	497	0	0	
4	0	0	0	0	533	537	0	486	0	0	
5	0	0	0	0	532	538	0	474	0	0	
6	0	0	0	0	532	533	0	461	0	0	
7	0	0	0	0	534	523	0	450	0	0	
8	0	0	0	0	535	509	0	440	0	0	
9	0	0	0	0	537	492	0	434	0	0	
10	0	0	0	0	541	474	0	432	0	0	
11	0	0	0	0	544	456	0	433	0	0	
12	0	0	0	0	547	440	0	439	0	0	
13	0	0	0	0	549	428	0	447	0	0	
14	0	0	0	0	550	421	0	457	0	0	
15	0	0	0	0	551	419	0	470	0	0	
0	0	0	0	0	550	423	0	482	0	0	
1	0	0	0	0	548	433	0	493	0	0	
2	0	0	0	0	545	447	0	502	0	0	
3	0	0	0	0	542	463	0	508	0	0	
4	0	0	0	0	540	481	0	510	0	0	
5	0	0	0	0	535	499	0	508	0	0	
6	0	0	0	0	532	514	0	503	0	0	
7	0	0	0	0	530	526	0	493	0	0	
8	0	0	0	0	528	533	0	482	0	0	
9	0	0	0	0	528	534	0	469	0	0	
10	0	0	0	0	529	530	0	456	0	0	
11	0	0	0	0	531	521	0	445	0	0	
12	0	0	0	0	534	508	0	435	0	0	
13	0	0	0	0	536	491	0	429	0	0	
14	0	0	0	0	541	473	0	427	0	0	
15	0	0	0	0	545	456	0	430	0	0	
0	0	0	0	0	550	442	0	435	0	0	
1	0	0	0	0	553	431	0	445	0	0	
2	0	0	0	0	556	424	0	457	0	0	
3	0	0	0	0	559	424	0	471	0	0	
4	0	0	0	0	559	429	0	484	0	0	
5	0	0	0	0	558	439	0	496	0	0	
6	0	0	0	0	556	453	0	506	0	0	
7	0	0	0	0	552	469	0	512	0	0	
8	0	0	0	0	548	486	0	514	0	0	
9	0	0	0	0	542	501	0	510	0	0	
10	0	0	0	0	535	514	0	502	0	0	
11	0	0	0	0	527	521	0	488	0	0	
12	0	0	0	0	519	523	0	471	0	0	
13	0	0	0	0	512	518	0	452	0	0	
14	0	0	0	0	504	507	0	431	0	0	
15	0	0	0	0	497	489	0	411	0	0	
0	0	0	0	0	489	467	0	391	0	0	
1	0	0	0	0	482	440	0	374	0	0	
2	0	0	0	0	474	412	0	360	0	0	
3	0	0	0	0	466	384	0	350	0	0	
4	0	0	0	0	458	357	0	344	0	0	
5	0	0	0	0	449	334	0	340	0	0	
6	0	0	0	0	440	315	0	340	0	0	
7	0	0	0	0	429	301	0	342	0	0	
8	0	0	0	0	417	294	0	344	0	0	
9	0	0	0	0	405	291	0	344	0	0	
10	0	0	0	0	391	292	0	344	0	0	
11	0	0	0	0	376	297	0	339	0	0	
12	0	0	0	0	362	304	0	332	0	0	
13	0	0	0	0	347	312	0	320	0	0	
14	0	0	0	0	332	318	0	304	0	0	
15	0	0	0	0	318	320	0	286	0	0	
0	0	0	0	0	306	319	0	265	0	0	
1	0	0	0	0	295	312	0	243	0	0	
2	0	0	0	0	288	302	0	223	0	0	
3	0	0	0	0	283	288	0	206	0	0	
4	0	0	0	0	282	272	0	193	0	0	
5	0	0	0	0	285	255	0	187	0	0	
6	0	0	0	0	292	239	0	187	0	0	
7	0	0	0	0	304	226	0	196	0	0	
8	0	0	0	0	320	219	0	213	0	0	
9	0	0	0	0	339	218	0	237	0	0	
10	0	0	0	0	361	226	0	268	0	0	
11	0	0	0	0	386	242	0	303	0	0	
12	0	0	0	0	411	267	0	340	0	0	
13	0	0	0	0	437	299	0	379	0	0	
14	0	0	0	0	462	337	0	415	0	0	
15	0	0	0	0	486	379	0	448	0	0	
0	0	0	0	0	507	422	0	475	0	0	
1	0	0	0	0	526	463	0	495	0	0	
2	0	0	0	0	542	501	0	508	0	0	
3	0	0	0	0	555	532	0	514	0	0	
4	0	0	0	0	565	555	0	515	0	0	
5	0	0	0	0	572	569	0	509	0	0	
6	0	0	0	0	577	573	0	501	0	0	
7	0	0	0	0	580	568	0	491	0	0	
8	0	0	0	0	581	556	0	480	0	0	
9	0	0	0	0	580	538	0	470	0	0	
10	0	0	0	0	578	516	0	463	0	0	
11	0	0	0	0	575	493	0	459	0	0	
12	0	0	0	0	572	472	0	459	0	0	
13	0	0	0	0	569	454	0	463	0	0	
14	0	0	0	0	565	441	0	470	0	0	
15	0	0	0	0	561	435	0	478	0	0	
0	0	0	0	0	558	435	0	489	0	0	
1	0	0	0	0	555	441	0	499	0	0	
2	0	0	0	0	551	454	0	508	0	0	
3	0	0	0	0	548	470	0	514	0	0	
4	0	0	0	0	547	488	0	518	0	0	
5	0	0	0	0	544	507	0	519	0	0	
6	0	0	0	0	543	524	0	514	0	0	
7	0	0	0	0	542	538	0	507	0	0	
8	0	0	0	0	542	547	0	497	0	0	
9	0	0	0	0	544	551	0	486	0	0	
10	0	0	0	0	547	549	0	474	0	0	
11	0	0	0	0	550	542	0	463	0	0	
12	0	0	0	0	554	530	0	454	0	0	
13	0	0	0	0	558	515	0	448	0	0	
14	0	0	0	0	563	498	0	446	0	0	
15	0	0	0	0	567	480	0	448	0	0	
0	0	0	0	0	571	466	0	453	0	0	
1	0	0	0	0	573	454	0	463	0	0	
2	0	0	0	0	575	448	0	474	0	0	
3	0	0	0	0	575	446	0	487	0	0	
4	0	0	0	0	574	451	0	499	0	0	
5	0	0	0	0	572	460	0	511	0	0	
6	0	0	0	0	569	473	0	521	0	0	
7	0	0	0	0	567	490	0	528	0	0	
8	0	0	0	0	563	508	0	530	0	0	
9	0	0	0	0	559	526	0	529	0	0	
10	0	0	0	0	555	541	0	524	0	0	
11	0	0	0	0	551	553	0	515	0	0	
12	0	0	0	0	550	560	0	504	0	0	
13	0	0	0	0	550	561	0	492	0	0	
14	0	0	0	0	550	557	0	479	0	0	
15	0	0	0	0	551	547	0	467	0	0	
0	0	0	0	0	553	534	0	457	0	0	
1	0	0	0	0	556	516	0	451	0	0	
2	0	0	0	0	560	498	0	448	0	0	
3	0	0	0	0	563	480	0	449	0	0	
4	0	0	0	0	566	464	0	454	0	0	
5	0	0	0	0	568	451	0	462	0	0	
6	0	0	0	0	570	444	0	473	0	0	
7	0	0	0	0	571	442	0	485	0	0	
8	0	0	0	0	569	446	0	497	0	0	
9	0	0	0	0	568	454	0	508	0	0	
10	0	0	0	0	564	467	0	517	0	0	
11	0	0	0	0	562	483	0	523	0	0	
12	0	0	0	0	558	501	0	524	0	0	
13	0	0	0	0	555	518	0	523	0	0	
14	0	0	0	0	551	534	0	516	0	0	
15	0	0	0	0	548	544	0	508	0	0	
0	0	0	0	0	546	553	0	496	0	0	
1	0	0	0	0	546	554	0	483	0	0	
2	0	0	0	0	547	551	0	471	0	0	
3	0	0	0	0	549	542	0	460	0	0	
4	0	0	0	0	551	529	0	450	0	0	
5	0	0	0	0	555	514	0	445	0	0	
6	0	0	0	0	559	496	0	444	0	0	
7	0	0	0	0	563	479	0	446	0	0	
8	0	0	0	0	566	463	0	451	0	0	
9	0	0	0	0	569	452	0	462	0	0	
10	0	0	0	0	571	444	0	473	0	0	
11	0	0	0	0	572	442	0	486	0	0	
12	0	0	0	0	571	445	0	499	0	0	
13	0	0	0	0	569	453	0	511	0	0	
14	0	0	0	0	566	466	0	519	0	0	
15	0	0	0	0	562	481	0	526	0	0	
0	0	0	0	0	558	497	0	527	0	0	
1	0	0	0	0	553	514	0	526	0	0	
2	0	0	0	0	549	529	0	519	0	0	
3	0	0	0	0	545	540	0	509	0	0	
4	0	0	0	0	543	546	0	497	0	0	
5	0	0	0	0	543	548	0	483	0	0	
6	0	0	0	0	543	543	0	470	0	0	
7	0	0	0	0	545	535	0	459	0	0	
8	0	0	0	0	547	522	0	449	0	0	
9	0	0	0	0	551	506	0	443	0	0	
10	0	0	0	0	555	489	0	441	0	0	
11	0	0	0	0	558	472	0	443	0	0	
12	0	0	0	0	562	457	0	448	0	0	
13	0	0	0	0	564	446	0	457	0	0	
14	0	0	0	0	566	440	0	469	0	0	
15	0	0	0	0	567	439	0	481	0	0	
0	0	0	0	0	566	443	0	495	0	0	
1	0	0	0	0	564	452	0	506	0	0	
2	0	0	0	0	560	465	0	515	0	0	
3	0	0	0	0	557	481	0	522	0	0	
4	0	0	0	0	553	498	0	524	0	0	
5	0	0	0	0	549	515	0	523	0	0	
6	0	0	0	0	546	530	0	517	0	0	
7	0	0	0	0	542	541	0	508	0	0	
8	0	0	0	0	541	547	0	496	0	0	
9	0	0	0	0	540	549	0	483	0	0	
10	0	0	0	0	541	544	0	470	0	0	
11	0	0	0	0	543	535	0	459	0	0	
12	0	0	0	0	545	521	0	449	0	0	
13	0	0	0	0	549	504	0	443	0	0	
14	0	0	0	0	552	487	0	440	0	0	
15	0	0	0	0	556	469	0	441	0	0	
0	0	0	0	0	559	454	0	447	0	0	
1	0	0	0	0	561	442	0	456	0	0	
2	0	0	0	0	563	435	0	467	0	0	
3	0	0	0	0	563	433	0	480	0	0	
4	0	0	0	0	562	437	0	493	0	0	
5	0	0	0	0	560	447	0	504	0	0	
6	0	0	0	0	558	460	0	514	0	0	
7	0	0	0	0	555	476	0	520	0	0	
8	0	0	0	0	551	495	0	523	0	0	
9	0	0	0	0	548	512	0	521	0	0	
10	0	0	0	0	545	528	0	515	0	0	
11	0	0	0	0	542	540	0	506	0	0	
12	0	0	0	0	542	547	0	494	0	0	
13	0	0	0	0	541	550	0	481	0	0	
14	0	0	0	0	542	546	0	469	0	0	
15	0	0	0	0	544	537	0	457	0	0	
0	0	0	0	0	546	523	0	448	0	0	
1	0	0	0	0	550	508	0	441	0	0	
2	0	0	0	0	554	489	0	439	0	0	
3	0	0	0	0	558	471	0	441	0	0	
4	0	0	0	0	562	455	0	447	0	0	
5	0	0	0	0	563	443	0	456	0	0	
6	0	0	0	0	566	435	0	467	0	0	
7	0	0	0	0	566	432	0	480	0	0	
8	0	0	0	0	565	435	0	492	0	0	
9	0	0	0	0	563	443	0	503	0	0	
10	0	0	0	0	559	455	0	512	0	0	
11	0	0	0	0	556	471	0	518	0	0	
12	0	0	0	0	552	487	0	519	0	0	
13	0	0	0	0	547	505	0	517	0	0	
14	0	0	0	0	544	520	0	511	0	0	
15	0	0	0	0	541	532	0	501	0	0	
0	0	0	0	0	539	539	0	489	0	0	
1	0	0	0	0	539	541	0	476	0	0	
2	0	0	0	0	540	537	0	464	0	0	
3	0	0	0	0	541	528	0	452	0	0	
4	0	0	0	0	544	515	0	442	0	0	
5	0	0	0	0	547	500	0	436	0	0	
6	0	0	0	0	551	482	0	434	0	0	
7	0	0	0	0	555	464	0	435	0	0	
8	0	0	0	0	559	449	0	441	0	0	
9	0	0	0	0	561	437	0	449	0	0	
10	0	0	0	0	562	429	0	461	0	0	
11	0	0	0	0	563	427	0	473	0	0	
12	0	0	0	0	562	430	0	486	0	0	
13	0	0	0	0	560	439	0	497	0	0	
14	0	0	0	0	557	452	0	506	0	0	
15	0	0	0	0	554	469	0	512	0	0	
0	0	0	0	0	551	487	0	514	0	0	
1	0	0	0	0	547	505	0	512	0	0	
2	0	0	0	0	543	521	0	507	0	0	
3	0	0	0	0	540	533	0	497	0	0	
4	0	0	0	0	538	540	0	486	0	0	
5	0	0	0	0	537	542	0	474	0	0	
6	0	0	0	0	537	539	0	461	0	0	
7	0	0	0	0	538	530	0	449	0	0	
8	0	0	0	0	540	517	0	440	0	0	
9	0	0	0	0	543	500	0	434	0	0	
10	0	0	0	0	546	482	0	432	0	0	
11	0	0	0	0	550	465	0	433	0	0	
12	0	0	0	0	553	449	0	439	0	0	
13	0	0	0	0	555	436	0	448	0	0	
14	0	0	0	0	557	428	0	459	0	0	
15	0	0	0	0	558	427	0	472	0	0	
0	0	0	0	0	557	430	0	484	0	0	
1	0	0	0	0	555	438	0	496	0	0	
2	0	0	0	0	552	451	0	505	0	0	
3	0	0	0	0	550	467	0	512	0	0	
4	0	0	0	0	547	484	0	515	0	0	
5	0	0	0	0	543	502	0	513	0	0	
6	0	0	0	0	539	517	0	508	0	0	
7	0	0	0	0	536	529	0	498	0	0	
8	0	0	0	0	535	536	0	487	0	0	
9	0	0	0	0	534	537	0	474	0	0	
10	0	0	0	0	534	534	0	461	0	0	
11	0	0	0	0	535	524	0	449	0	0	
12	0	0	0	0	536	511	0	440	0	0	
13	0	0	0	0	540	494	0	433	0	0	
14	0	0	0	0	543	476	0	431	0	0	
15	0	0	0	0	546	459	0	432	0	0	
0	0	0	0	0	550	443	0	437	0	0	
1	0	0	0	0	552	431	0	446	0	0	
2	0	0	0	0	555	423	0	457	0	0	
3	0	0	0	0	556	422	0	469	0	0	
4	0	0	0	0	556	425	0	481	0	0	
5	0	0	0	0	555	434	0	493	0	0	
6	0	0	0	0	553	448	0	502	0	0	
7	0	0	0	0	552	464	0	508	0	0	
8	0	0	0	0	549	482	0	511	0	0	
9	0	0	0	0	546	500	0	510	0	0	
10	0	0	0	0	543	516	0	504	0	0	
11	0	0	0	0	540	528	0	496	0	0	
12	0	0	0	0	539	536	0	485	0	0	
13	0	0	0	0	538	538	0	473	0	0	
14	0	0	0	0	538	535	0	460	0	0	
15	0	0	0	0	539	526	0	449	0	0	
0	0	0	0	0	540	513	0	440	0	0	
1	0	0	0	0	543	497	0	434	0	0	
2	0	0	0	0	545	479	0	432	0	0	
3	0	0	0	0	549	462	0	433	0	0	
4	0	0	0	0	551	447	0	438	0	0	
5	0	0	0	0	554	435	0	445	0	0	
6	0	0	0	0	555	428	0	456	0	0	
7	0	0	0	0	556	425	0	468	0	0	
8	0	0	0	0	556	429	0	480	0	0	
9	0	0	0	0	554	438	0	491	0	0	
10	0	0	0	0	551	451	0	499	0	0	
11	0	0	0	0	547	467	0	505	0	0	
12	0	0	0	0	544	484	0	508	0	0	
13	0	0	0	0	541	502	0	506	0	0	
14	0	0	0	0	537	517	0	500	0	0	
15	0	0	0	0	534	528	0	492	0	0	
0	0	0	0	0	533	535	0	481	0	0	
1	0	0	0	0	532	536	0	469	0	0	
2	0	0	0	0	533	532	0	457	0	0	
3	0	0	0	0	535	523	0	446	0	0	
4	0	0	0	0	537	510	0	437	0	0	
5	0	0	0	0	540	493	0	431	0	0	
6	0	0	0	0	543	475	0	429	0	0	
7	0	0	0	0	547	457	0	431	0	0	
8	0	0	0	0	550	441	0	436	0	0	
9	0	0	0	0	551	429	0	445	0	0	
10	0	0	0	0	554	422	0	456	0	0	
11	0	0	0	0	555	419	0	469	0	0	
12	0	0	0	0	554	423	0	481	0	0	
13	0	0	0	0	553	432	0	492	0	0	
14	0	0	0	0	551	445	0	501	0	0	
15	0	0	0	0	547	462	0	507	0	0	
0	0	0	0	0	545	480	0	510	0	0	
1	0	0	0	0	541	497	0	508	0	0	
2	0	0	0	0	539	513	0	503	0	0	
3	0	0	0	0	536	526	0	494	0	0	
4	0	0	0	0	534	534	0	483	0	0	
5	0	0	0	0	534	536	0	471	0	0	
6	0	0	0	0	535	533	0	459	0	0	
7	0	0	0	0	537	525	0	448	0	0	
8	0	0	0	0	540	512	0	440	0	0	
9	0	0	0	0	544	497	0	434	0	0	
10	0	0	0	0	548	480	0	432	0	0	
11	0	0	0	0	553	463	0	435	0	0	
12	0	0	0	0	557	448	0	441	0	0	
13	0	0	0	0	560	437	0	450	0	0	
14	0	0	0	0	561	430	0	461	0	0	
15	0	0	0	0	562	427	0	474	0	0	
0	0	0	0	0	561	431	0	487	0	0	
1	0	0	0	0	559	439	0	499	0	0	
2	0	0	0	0	556	452	0	508	0	0	
3	0	0	0	0	553	467	0	514	0	0	
4	0	0	0	0	549	485	0	517	0	0	
5	0	0	0	0	545	502	0	515	0	0	
6	0	0	0	0	542	518	0	508	0	0	
7	0	0	0	0	538	529	0	499	0	0	
8	0	0	0	0	536	537	0	486	0	0	
9	0	0	0	0	536	539	0	473	0	0	
10	0	0	0	0	536	535	0	460	0	0	
11	0	0	0	0	538	526	0	448	0	0	
12	0	0	0	0	541	513	0	438	0	0	
13	0	0	0	0	544	498	0	432	0	0	
14	0	0	0	0	549	481	0	430	0	0	
15	0	0	0	0	553	464	0	432	0	0	
0	0	0	0	0	557	450	0	438	0	0	
1	0	0	0	0	561	438	0	448	0	0	
2	0	0	0	0	563	432	0	460	0	0	
3	0	0	0	0	565	431	0	474	0	0	
4	0	0	0	0	565	435	0	487	0	0	
5	0	0	0	0	564	444	0	500	0	0	
6	0	0	0	0	562	458	0	509	0	0	
7	0	0	0	0	560	473	0	516	0	0	
8	0	0	0	0	556	491	0	519	0	0	
9	0	0	0	0	551	508	0	517	0	0	
10	0	0	0	0	548	523	0	511	0	0	
11	0	0	0	0	545	534	0	502	0	0	
12	0	0	0	0	542	540	0	488	0	0	
13	0	0	0	0	541	541	0	475	0	0	
14	0	0	0	0	541	537	0	462	0	0	
15	0	0	0	0	541	527	0	448	0	0	
0	0	0	0	0	543	514	0	438	0	0	
1	0	0	0	0	544	497	0	431	0	0	
2	0	0	0	0	547	479	0	428	0	0	
3	0	0	0	0	549	462	0	430	0	0	
4	0	0	0	0	552	446	0	435	0	0	
5	0	0	0	0	554	434	0	444	0	0	
6	0	0	0	0	555	427	0	455	0	0	
7	0	0	0	0	556	425	0	469	0	0	
8	0	0	0	0	555	428	0	482	0	0	
9	0	0	0	0	553	437	0	494	0	0	
10	0	0	0	0	551	450	0	504	0	0	
11	0	0	0	0	548	466	0	511	0	0	
12	0	0	0	0	545	484	0	513	0	0	
13	0	0	0	0	542	502	0	512	0	0	
14	0	0	0	0	538	517	0	506	0	0	
15	0	0	0	0	536	529	0	497	0	0	
0	0	0	0	0	534	537	0	485	0	0	
1	0	0	0	0	534	539	0	472	0	0	
2	0	0	0	0	535	536	0	460	0	0	
3	0	0	0	0	536	527	0	448	0	0	
4	0	0	0	0	539	514	0	438	0	0	
5	0	0	0	0	542	498	0	431	0	0	
6	0	0	0	0	546	481	0	428	0	0	
7	0	0	0	0	549	464	0	430	0	0	
8	0	0	0	0	552	448	0	435	0	0	
9	0	0	0	0	554	436	0	444	0	0	
10	0	0	0	0	556	429	0	455	0	0	
11	0	0	0	0	556	427	0	468	0	0	
12	0	0	0	0	555	430	0	480	0	0	
13	0	0	0	0	552	438	0	492	0	0	
14	0	0	0	0	550	450	0	502	0	0	
15	0	0	0	0	546	466	0	508	0	0	
0	0	0	0	0	542	483	0	510	0	0	
1	0	0	0	0	539	500	0	509	0	0	
2	0	0	0	0	535	515	0	504	0	0	
3	0	0	0	0	533	527	0	494	0	0	
4	0	0	0	0	532	535	0	483	0	0	
5	0	0	0	0	532	537	0	471	0	0	
6	0	0	0	0	534	533	0	457	0	0	
7	0	0	0	0	535	524	0	445	0	0	
8	0	0	0	0	537	511	0	435	0	0	
9	0	0	0	0	540	495	0	429	0	0	
10	0	0	0	0	543	478	0	426	0	0	
11	0	0	0	0	545	460	0	427	0	0	
12	0	0	0	0	548	445	0	433	0	0	
13	0	0	0	0	550	433	0	441	0	0	
14	0	0	0	0	551	426	0	452	0	0	
15	0	0	0	0	551	423	0	465	0	0	
0	0	0	0	0	550	426	0	477	0	0	
1	0	0	0	0	547	434	0	488	0	0	
2	0	0	0	0	544	446	0	497	0	0	
3	0	0	0	0	541	462	0	503	0	0	
4	0	0	0	0	538	479	0	505	0	0	
5	0	0	0	0	534	495	0	503	0	0	
6	0	0	0	0	531	510	0	497	0	0	
7	0	0	0	0	528	521	0	487	0	0	
8	0	0	0	0	526	529	0	476	0	0	
9	0	0	0	0	527	531	0	463	0	0	
10	0	0	0	0	527	527	0	450	0	0	
11	0	0	0	0	528	519	0	439	0	0	
12	0	0	0	0	530	506	0	429	0	0	
13	0	0	0	0	532	490	0	422	0	0	
14	0	0	0	0	536	472	0	419	0	0	
15	0	0	0	0	538	455	0	421	0	0	
0	0	0	0	0	541	440	0	426	0	0	
1	0	0	0	0	542	428	0	435	0	0	
2	0	0	0	0	543	421	0	446	0	0	
3	0	0	0	0	545	419	0	459	0	0	
4	0	0	0	0	543	422	0	472	0	0	
5	0	0	0	0	543	432	0	483	0	0	
6	0	0	0	0	541	445	0	492	0	0	
7	0	0	0	0	538	461	0	498	0	0	
8	0	0	0	0	536	479	0	501	0	0	
9	0	0	0	0	533	497	0	499	0	0	
10	0	0	0	0	531	513	0	495	0	0	
11	0	0	0	0	529	525	0	486	0	0	
12	0	0	0	0	528	532	0	474	0	0	
13	0	0	0	0	529	534	0	462	0	0	
14	0	0	0	0	529	530	0	449	0	0	
15	0	0	0	0	531	520	0	438	0	0	
0	0	0	0	0	534	507	0	428	0	0	
1	0	0	0	0	536	490	0	422	0	0	
2	0	0	0	0	539	472	0	419	0	0	
3	0	0	0	0	542	454	0	421	0	0	
4	0	0	0	0	544	438	0	427	0	0	
5	0	0	0	0	545	425	0	435	0	0	
6	0	0	0	0	545	417	0	447	0	0	
7	0	0	0	0	545	415	0	460	0	0	
8	0	0	0	0	544	419	0	472	0	0	
9	0	0	0	0	541	427	0	484	0	0	
10	0	0	0	0	539	440	0	494	0	0	
11	0	0	0	0	534	456	0	500	0	0	
12	0	0	0	0	531	474	0	503	0	0	
13	0	0	0	0	527	492	0	501	0	0	
14	0	0	0	0	524	508	0	495	0	0	
15	0	0	0	0	520	520	0	486	0	0	
0	0	0	0	0	519	528	0	473	0	0	
1	0	0	0	0	519	530	0	460	0	0	
2	0	0	0	0	521	527	0	448	0	0	
3	0	0	0	0	523	518	0	436	0	0	
4	0	0	0	0	525	505	0	426	0	0	
5	0	0	0	0	529	489	0	419	0	0	
6	0	0	0	0	533	472	0	417	0	0	
7	0	0	0	0	537	455	0	419	0	0	
8	0	0	0	0	540	439	0	424	0	0	
9	0	0	0	0	542	428	0	433	0	0	
10	0	0	0	0	544	420	0	445	0	0	
11	0	0	0	0	545	418	0	458	0	0	
12	0	0	0	0	544	422	0	471	0	0	
13	0	0	0	0	543	431	0	483	0	0	
14	0	0	0	0	541	444	0	493	0	0	
15	0	0	0	0	537	460	0	500	0	0	
0	0	0	0	0	535	478	0	503	0	0	
1	0	0	0	0	531	496	0	502	0	0	
2	0	0	0	0	528	511	0	496	0	0	
3	0	0	0	0	526	524	0	488	0	0	
4	0	0	0	0	524	531	0	476	0	0	
5	0	0	0	0	524	534	0	463	0	0	
6	0	0	0	0	525	530	0	450	0	0	
7	0	0	0	0	527	522	0	439	0	0	
8	0	0	0	0	529	509	0	429	0	0	
9	0	0	0	0	532	492	0	422	0	0	
10	0	0	0	0	536	475	0	419	0	0	
11	0	0	0	0	540	457	0	420	0	0	
12	0	0	0	0	543	442	0	425	0	0	
13	0	0	0	0	545	430	0	434	0	0	
14	0	0	0	0	546	422	0	446	0	0	
15	0	0	0	0	547	419	0	458	0	0	
0	0	0	0	0	546	423	0	471	0	0	
1	0	0	0	0	545	432	0	483	0	0	
2	0	0	0	0	542	444	0	493	0	0	
3	0	0	0	0	540	461	0	499	0	0	
4	0	0	0	0	536	479	0	502	0	0	
5	0	0	0	0	532	497	0	501	0	0	
6	0	0	0	0	530	513	0	496	0	0	
7	0	0	0	0	528	526	0	487	0	0	
8	0	0	0	0	526	534	0	477	0	0	
9	0	0	0	0	527	536	0	465	0	0	
10	0	0	0	0	527	534	0	453	0	0	
11	0	0	0	0	530	525	0	442	0	0	
12	0	0	0	0	532	513	0	433	0	0	
13	0	0	0	0	535	497	0	427	0	0	
14	0	0	0	0	539	480	0	425	0	0	
15	0	0	0	0	543	463	0	427	0	0	
0	0	0	0	0	545	447	0	432	0	0	
1	0	0	0	0	548	435	0	440	0	0	
2	0	0	0	0	549	427	0	451	0	0	
3	0	0	0	0	549	425	0	464	0	0	
4	0	0	0	0	547	428	0	476	0	0	
5	0	0	0	0	545	436	0	487	0	0	
6	0	0	0	0	542	449	0	496	0	0	
7	0	0	0	0	538	464	0	502	0	0	
8	0	0	0	0	535	481	0	505	0	0	
9	0	0	0	0	531	499	0	504	0	0	
10	0	0	0	0	527	515	0	498	0	0	
11	0	0	0	0	524	527	0	490	0	0	
12	0	0	0	0	522	535	0	479	0	0	
13	0	0	0	0	523	537	0	467	0	0	
14	0	0	0	0	524	534	0	455	0	0	
15	0	0	0	0	526	526	0	444	0	0	
0	0	0	0	0	529	513	0	436	0	0	
1	0	0	0	0	534	498	0	430	0	0	
2	0	0	0	0	538	481	0	428	0	0	
3	0	0	0	0	542	465	0	430	0	0	
4	0	0	0	0	546	450	0	435	0	0	
5	0	0	0	0	548	439	0	444	0	0	
6	0	0	0	0	550	433	0	455	0	0	
7	0	0	0	0	551	431	0	467	0	0	
8	0	0	0	0	551	435	0	480	0	0	
9	0	0	0	0	549	444	0	491	0	0	
10	0	0	0	0	547	457	0	500	0	0	
11	0	0	0	0	543	473	0	506	0	0	
12	0	0	0	0	540	491	0	509	0	0	
13	0	0	0	0	536	508	0	507	0	0	
14	0	0	0	0	533	523	0	502	0	0	
15	0	0	0	0	531	535	0	492	0	0	
0	0	0	0	0	529	541	0	480	0	0	
1	0	0	0	0	529	542	0	467	0	0	
2	0	0	0	0	530	537	0	455	0	0	
3	0	0	0	0	532	527	0	443	0	0	
4	0	0	0	0	535	513	0	433	0	0	
5	0	0	0	0	538	496	0	427	0	0	
6	0	0	0	0	542	478	0	423	0	0	
7	0	0	0	0	545	460	0	425	0	0	
8	0	0	0	0	548	445	0	430	0	0	
9	0	0	0	0	551	433	0	439	0	0	
10	0	0	0	0	552	425	0	450	0	0	
11	0	0	0	0	552	424	0	462	0	0	
12	0	0	0	0	551	428	0	475	0	0	
13	0	0	0	0	549	438	0	487	0	0	
14	0	0	0	0	546	452	0	496	0	0	
15	0	0	0	0	542	469	0	503	0	0	
0	0	0	0	0	539	487	0	505	0	0	
1	0	0	0	0	535	505	0	504	0	0	
2	0	0	0	0	531	521	0	499	0	0	
3	0	0	0	0	528	534	0	490	0	0	
4	0	0	0	0	526	541	0	479	0	0	
5	0	0	0	0	526	543	0	467	0	0	
6	0	0	0	0	527	539	0	454	0	0	
7	0	0	0	0	528	530	0	443	0	0	
8	0	0	0	0	531	516	0	434	0	0	
9	0	0	0	0	533	500	0	428	0	0	
10	0	0	0	0	537	481	0	426	0	0	
11	0	0	0	0	541	463	0	428	0	0	
12	0	0	0	0	544	448	0	435	0	0	
13	0	0	0	0	547	435	0	444	0	0	
14	0	0	0	0	548	427	0	455	0	0	
15	0	0	0	0	550	424	0	468	0	0	
0	0	0	0	0	549	427	0	481	0	0	
1	0	0	0	0	547	435	0	492	0	0	
2	0	0	0	0	545	448	0	500	0	0	
3	0	0	0	0	541	464	0	506	0	0	
4	0	0	0	0	538	481	0	508	0	0	
5	0	0	0	0	534	498	0	505	0	0	
6	0	0	0	0	530	513	0	498	0	0	
7	0	0	0	0	527	524	0	487	0	0	
8	0	0	0	0	525	531	0	475	0	0	
9	0	0	0	0	524	532	0	460	0	0	
10	0	0	0	0	524	529	0	446	0	0	
11	0	0	0	0	525	519	0	432	0	0	
12	0	0	0	0	526	506	0	422	0	0	
13	0	0	0	0	528	490	0	414	0	0	
14	0	0	0	0	531	472	0	411	0	0	
15	0	0	0	0	534	454	0	412	0	0	
0	0	0	0	0	536	438	0	417	0	0	
1	0	0	0	0	538	425	0	425	0	0	
2	0	0	0	0	538	417	0	436	0	0	
3	0	0	0	0	538	414	0	449	0	0	
4	0	0	0	0	537	417	0	462	0	0	
5	0	0	0	0	534	425	0	474	0	0	
6	0	0	0	0	531	437	0	483	0	0	
7	0	0	0	0	527	452	0	490	0	0	
8	0	0	0	0	523	469	0	492	0	0	
9	0	0	0	0	519	486	0	491	0	0	
10	0	0	0	0	514	500	0	484	0	0	
11	0	0	0	0	511	512	0	475	0	0	
12	0	0	0	0	508	519	0	462	0	0	
13	0	0	0	0	508	520	0	449	0	0	
14	0	0	0	0	508	516	0	435	0	0	
15	0	0	0	0	510	507	0	423	0	0	
0	0	0	0	0	512	494	0	412	0	0	
1	0	0	0	0	515	477	0	404	0	0	
2	0	0	0	0	519	459	0	400	0	0	
3	0	0	0	0	521	440	0	401	0	0	
4	0	0	0	0	524	424	0	406	0	0	
5	0	0	0	0	527	411	0	414	0	0	
6	0	0	0	0	527	402	0	425	0	0	
7	0	0	0	0	527	399	0	438	0	0	
8	0	0	0	0	526	401	0	451	0	0	
9	0	0	0	0	524	409	0	463	0	0	
10	0	0	0	0	520	422	0	473	0	0	
11	0	0	0	0	517	438	0	480	0	0	
12	0	0	0	0	513	456	0	484	0	0	
13	0	0	0	0	510	474	0	483	0	0	
14	0	0	0	0	507	491	0	478	0	0	
15	0	0	0	0	504	504	0	470	0	0	
0	0	0	0	0	504	512	0	459	0	0	
1	0	0	0	0	504	515	0	446	0	0	
2	0	0	0	0	505	512	0	434	0	0	
3	0	0	0	0	508	504	0	422	0	0	
4	0	0	0	0	510	491	0	412	0	0	
5	0	0	0	0	513	475	0	405	0	0	
6	0	0	0	0	517	458	0	402	0	0	
7	0	0	0	0	520	440	0	403	0	0	
8	0	0	0	0	524	424	0	408	0	0	
9	0	0	0	0	526	412	0	417	0	0	
10	0	0	0	0	529	404	0	428	0	0	
11	0	0	0	0	530	402	0	441	0	0	
12	0	0	0	0	529	406	0	454	0	0	
13	0	0	0	0	528	414	0	467	0	0	
14	0	0	0	0	526	428	0	476	0	0	
15	0	0	0	0	524	444	0	484	0	0	
0	0	0	0	0	521	461	0	487	0	0	
1	0	0	0	0	518	479	0	486	0	0	
2	0	0	0	0	515	495	0	481	0	0	
3	0	0	0	0	511	508	0	472	0	0	
4	0	0	0	0	511	516	0	461	0	0	
5	0	0	0	0	510	519	0	448	0	0	
6	0	0	0	0	510	516	0	435	0	0	
7	0	0	0	0	512	508	0	423	0	0	
8	0	0	0	0	513	495	0	413	0	0	
9	0	0	0	0	517	478	0	406	0	0	
10	0	0	0	0	519	461	0	403	0	0	
11	0	0	0	0	523	444	0	404	0	0	
12	0	0	0	0	526	428	0	410	0	0	
13	0	0	0	0	528	415	0	420	0	0	
14	0	0	0	0	531	408	0	432	0	0	
15	0	0	0	0	531	406	0	445	0	0	
0	0	0	0	0	531	408	0	459	0	0	
1	0	0	0	0	529	417	0	471	0	0	
2	0	0	0	0	527	429	0	481	0	0	
3	0	0	0	0	523	445	0	488	0	0	
4	0	0	0	0	520	462	0	491	0	0	
5	0	0	0	0	516	480	0	489	0	0	
6	0	0	0	0	512	496	0	484	0	0	
7	0	0	0	0	508	507	0	474	0	0	
8	0	0	0	0	507	515	0	462	0	0	
9	0	0	0	0	505	517	0	448	0	0	
10	0	0	0	0	505	513	0	433	0	0	
11	0	0	0	0	506	504	0	420	0	0	
12	0	0	0	0	508	491	0	409	0	0	
13	0	0	0	0	512	474	0	401	0	0	
14	0	0	0	0	515	456	0	398	0	0	
15	0	0	0	0	519	439	0	398	0	0	
0	0	0	0	0	522	423	0	403	0	0	
1	0	0	0	0	525	411	0	412	0	0	
2	0	0	0	0	527	403	0	424	0	0	
3	0	0	0	0	529	400	0	438	0	0	
4	0	0	0	0	529	404	0	452	0	0	
5	0	0	0	0	527	412	0	465	0	0	
6	0	0	0	0	526	425	0	476	0	0	
7	0	0	0	0	523	442	0	484	0	0	
8	0	0	0	0	520	460	0	487	0	0	
9	0	0	0	0	517	478	0	488	0	0	
10	0	0	0	0	514	494	0	483	0	0	
11	0	0	0	0	512	507	0	475	0	0	
12	0	0	0	0	512	516	0	464	0	0	
13	0	0	0	0	511	519	0	452	0	0	
14	0	0	0	0	512	516	0	439	0	0	
15	0	0	0	0	513	508	0	426	0	0	
0	0	0	0	0	513	494	0	415	0	0	
1	0	0	0	0	515	477	0	405	0	0	
2	0	0	0	0	515	456	0	399	0	0	
3	0	0	0	0	515	436	0	396	0	0	
4	0	0	0	0	513	416	0	397	0	0	
5	0	0	0	0	510	398	0	400	0	0	
6	0	0	0	0	505	384	0	405	0	0	
7	0	0	0	0	499	374	0	411	0	0	
8	0	0	0	0	489	369	0	416	0	0	
9	0	0	0	0	479	368	0	420	0	0	
10	0	0	0	0	467	371	0	422	0	0	
11	0	0	0	0	453	376	0	418	0	0	
12	0	0	0	0	440	383	0	412	0	0	
13	0	0	0	0	424	390	0	400	0	0	
14	0	0	0	0	409	394	0	384	0	0	
15	0	0	0	0	394	395	0	364	0	0	
0	0	0	0	0	380	392	0	341	0	0	
1	0	0	0	0	367	383	0	316	0	0	
2	0	0	0	0	355	368	0	290	0	0	
3	0	0	0	0	344	347	0	265	0	0	
4	0	0	0	0	333	322	0	242	0	0	
5	0	0	0	0	324	294	0	221	0	0	
6	0	0	0	0	315	264	0	204	0	0	
7	0	0	0	0	308	233	0	192	0	0	
8	0	0	0	0	300	205	0	184	0	0	
9	0	0	0	0	293	180	0	182	0	0	
10	0	0	0	0	286	160	0	183	0	0	
11	0	0	0	0	281	148	0	189	0	0	
12	0	0	0	0	276	145	0	199	0	0	
13	0	0	0	0	274	151	0	211	0	0	
14	0	0	0	0	274	165	0	224	0	0	
15	0	0	0	0	276	186	0	238	0	0	
0	0	0	0	0	283	213	0	252	0	0	
1	0	0	0	0	294	245	0	266	0	0	
2	0	0	0	0	307	279	0	279	0	0	
3	0	0	0	0	326	312	0	290	0	0	
4	0	0	0	0	347	343	0	301	0	0	
5	0	0	0	0	372	371	0	312	0	0	
6	0	0	0	0	399	393	0	323	0	0	
7	0	0	0	0	428	411	0	335	0	0	
8	0	0	0	0	457	422	0	348	0	0	
9	0	0	0	0	484	428	0	364	0	0	
10	0	0	0	0	511	429	0	380	0	0	
11	0	0	0	0	534	428	0	399	0	0	
12	0	0	0	0	554	426	0	419	0	0	
13	0	0	0	0	569	424	0	440	0	0	
14	0	0	0	0	578	424	0	459	0	0	
15	0	0	0	0	584	427	0	478	0	0	
0	0	0	0	0	584	432	0	494	0	0	
1	0	0	0	0	580	441	0	507	0	0	
2	0	0	0	0	574	453	0	515	0	0	
3	0	0	0	0	564	467	0	518	0	0	
4	0	0	0	0	554	482	0	516	0	0	
5	0	0	0	0	542	496	0	510	0	0	
6	0	0	0	0	531	508	0	499	0	0	
7	0	0	0	0	522	518	0	484	0	0	
8	0	0	0	0	515	523	0	468	0	0	
9	0	0	0	0	511	523	0	451	0	0	
10	0	0	0	0	508	518	0	436	0	0	
11	0	0	0	0	509	508	0	422	0	0	
12	0	0	0	0	511	494	0	412	0	0	
13	0	0	0	0	515	478	0	405	0	0	
14	0	0	0	0	522	460	0	403	0	0	
15	0	0	0	0	529	444	0	406	0	0	
0	0	0	0	0	535	428	0	414	0	0	
1	0	0	0	0	541	417	0	425	0	0	
2	0	0	0	0	547	411	0	439	0	0	
3	0	0	0	0	550	409	0	454	0	0	
4	0	0	0	0	551	414	0	469	0	0	
5	0	0	0	0	551	423	0	482	0	0	
6	0	0	0	0	549	437	0	493	0	0	
7	0	0	0	0	547	454	0	500	0	0	
8	0	0	0	0	542	472	0	503	0	0	
9	0	0	0	0	537	490	0	501	0	0	
10	0	0	0	0	532	505	0	495	0	0	
11	0	0	0	0	527	518	0	486	0	0	
12	0	0	0	0	524	525	0	473	0	0	
13	0	0	0	0	522	527	0	459	0	0	
14	0	0	0	0	522	524	0	445	0	0	
15	0	0	0	0	523	515	0	432	0	0	
0	0	0	0	0	524	502	0	422	0	0	
1	0	0	0	0	528	486	0	415	0	0	
2	0	0	0	0	532	467	0	412	0	0	
3	0	0	0	0	537	450	0	414	0	0	
4	0	0	0	0	541	434	0	419	0	0	
5	0	0	0	0	544	421	0	429	0	0	
6	0	0	0	0	547	413	0	440	0	0	
7	0	0	0	0	548	410	0	454	0	0	
8	0	0	0	0	547	413	0	467	0	0	
9	0	0	0	0	545	421	0	480	0	0	
10	0	0	0	0	542	434	0	491	0	0	
11	0	0	0	0	539	450	0	498	0	0	
12	0	0	0	0	535	467	0	502	0	0	
13	0	0	0	0	530	486	0	501	0	0	
14	0	0	0	0	526	501	0	496	0	0	
15	0	0	0	0	523	514	0	487	0	0	
0	0	0	0	0	520	522	0	476	0	0	
1	0	0	0	0	519	524	0	462	0	0	
2	0	0	0	0	520	521	0	449	0	0	
3	0	0	0	0	521	513	0	436	0	0	
4	0	0	0	0	523	500	0	425	0	0	
5	0	0	0	0	526	483	0	417	0	0	
6	0	0	0	0	530	465	0	412	0	0	
7	0	0	0	0	534	448	0	412	0	0	
8	0	0	0	0	537	431	0	416	0	0	
9	0	0	0	0	540	419	0	424	0	0	
10	0	0	0	0	543	410	0	435	0	0	
11	0	0	0	0	543	408	0	448	0	0	
12	0	0	0	0	542	411	0	461	0	0	
13	0	0	0	0	541	419	0	473	0	0	
14	0	0	0	0	538	432	0	483	0	0	
15	0	0	0	0	535	448	0	489	0	0	
0	0	0	0	0	531	466	0	493	0	0	
1	0	0	0	0	527	483	0	492	0	0	
2	0	0	0	0	524	500	0	487	0	0	
3	0	0	0	0	520	512	0	479	0	0	
4	0	0	0	0	518	520	0	467	0	0	
5	0	0	0	0	518	523	0	455	0	0	
6	0	0	0	0	518	519	0	441	0	0	
7	0	0	0	0	520	510	0	430	0	0	
8	0	0	0	0	522	496	0	419	0	0	
9	0	0	0	0	525	479	0	412	0	0	
10	0	0	0	0	529	461	0	409	0	0	
11	0	0	0	0	532	443	0	410	0	0	
12	0	0	0	0	536	427	0	415	0	0	
13	0	0	0	0	537	414	0	423	0	0	
14	0	0	0	0	538	406	0	435	0	0	
15	0	0	0	0	539	402	0	447	0	0	
0	0	0	0	0	537	405	0	460	0	0	
1	0	0	0	0	535	413	0	472	0	0	
2	0	0	0	0	532	426	0	481	0	0	
3	0	0	0	0	529	441	0	488	0	0	
4	0	0	0	0	525	459	0	491	0	0	
5	0	0	0	0	520	477	0	489	0	0	
6	0	0	0	0	516	492	0	483	0	0	
7	0	0	0	0	513	505	0	474	0	0	
8	0	0	0	0	511	512	0	463	0	0	
9	0	0	0	0	510	515	0	450	0	0	
10	0	0	0	0	510	511	0	436	0	0	
11	0	0	0	0	511	502	0	424	0	0	
12	0	0	0	0	513	489	0	414	0	0	
13	0	0	0	0	515	472	0	406	0	0	
14	0	0	0	0	519	454	0	403	0	0	
15	0	0	0	0	522	436	0	404	0	0	
0	0	0	0	0	526	420	0	409	0	0	
1	0	0	0	0	528	408	0	417	0	0	
2	0	0	0	0	530	400	0	429	0	0	
3	0	0	0	0	532	398	0	442	0	0	
4	0	0	0	0	532	401	0	455	0	0	
5	0	0	0	0	531	411	0	467	0	0	
6	0	0	0	0	529	424	0	478	0	0	
7	0	0	0	0	525	441	0	484	0	0	
8	0	0	0	0	522	459	0	487	0	0	
9	0	0	0	0	519	478	0	487	0	0	
10	0	0	0	0	515	494	0	482	0	0	
11	0	0	0	0	512	507	0	473	0	0	
12	0	0	0	0	510	515	0	461	0	0	
13	0	0	0	0	510	518	0	448	0	0	
14	0	0	0	0	510	515	0	434	0	0	
15	0	0	0	0	511	505	0	422	0	0	
0	0	0	0	0	512	492	0	411	0	0	
1	0	0	0	0	515	475	0	403	0	0	
2	0	0	0	0	518	456	0	399	0	0	
3	0	0	0	0	522	438	0	400	0	0	
4	0	0	0	0	525	422	0	405	0	0	
5	0	0	0	0	528	408	0	414	0	0	
6	0	0	0	0	529	399	0	425	0	0	
7	0	0	0	0	530	397	0	438	0	0	
8	0	0	0	0	530	399	0	451	0	0	
9	0	0	0	0	528	408	0	464	0	0	
10	0	0	0	0	526	421	0	475	0	0	
11	0	0	0	0	523	437	0	481	0	0	
12	0	0	0	0	520	455	0	484	0	0	
13	0	0	0	0	517	474	0	483	0	0	
14	0	0	0	0	513	490	0	478	0	0	
15	0	0	0	0	511	504	0	469	0	0	
0	0	0	0	0	509	511	0	457	0	0	
1	0	0	0	0	508	514	0	444	0	0	
2	0	0	0	0	508	511	0	431	0	0	
3	0	0	0	0	510	503	0	419	0	0	
4	0	0	0	0	512	490	0	409	0	0	
5	0	0	0	0	513	474	0	402	0	0	
6	0	0	0	0	517	456	0	399	0	0	
7	0	0	0	0	520	439	0	400	0	0	
8	0	0	0	0	523	423	0	405	0	0	
9	0	0	0	0	526	410	0	414	0	0	
10	0	0	0	0	526	402	0	425	0	0	
11	0	0	0	0	528	399	0	439	0	0	
12	0	0	0	0	527	402	0	452	0	0	
13	0	0	0	0	526	409	0	464	0	0	
14	0	0	0	0	524	422	0	474	0	0	
15	0	0	0	0	521	437	0	481	0	0	
0	0	0	0	0	518	455	0	484	0	0	
1	0	0	0	0	514	472	0	483	0	0	
2	0	0	0	0	511	487	0	478	0	0	
3	0	0	0	0	508	500	0	469	0	0	
4	0	0	0	0	506	508	0	458	0	0	
5	0	0	0	0	505	510	0	446	0	0	
6	0	0	0	0	505	507	0	433	0	0	
7	0	0	0	0	507	499	0	421	0	0	
8	0	0	0	0	509	486	0	411	0	0	
9	0	0	0	0	511	470	0	404	0	0	
10	0	0	0	0	515	452	0	400	0	0	
11	0	0	0	0	519	435	0	401	0	0	
12	0	0	0	0	522	419	0	406	0	0	
13	0	0	0	0	525	406	0	414	0	0	
14	0	0	0	0	526	397	0	424	0	0	
15	0	0	0	0	527	394	0	436	0	0	
0	0	0	0	0	526	396	0	449	0	0	
1	0	0	0	0	523	403	0	460	0	0	
2	0	0	0	0	519	416	0	468	0	0	
3	0	0	0	0	515	431	0	475	0	0	
4	0	0	0	0	511	448	0	477	0	0	
5	0	0	0	0	507	465	0	476	0	0	
6	0	0	0	0	502	481	0	470	0	0	
7	0	0	0	0	498	494	0	460	0	0	
8	0	0	0	0	496	501	0	448	0	0	
9	0	0	0	0	495	504	0	435	0	0	
10	0	0	0	0	495	502	0	423	0	0	
11	0	0	0	0	496	493	0	411	0	0	
12	0	0	0	0	498	480	0	401	0	0	
13	0	0	0	0	501	464	0	394	0	0	
14	0	0	0	0	506	447	0	391	0	0	
15	0	0	0	0	510	429	0	393	0	0	
0	0	0	0	0	514	413	0	398	0	0	
1	0	0	0	0	517	399	0	407	0	0	
2	0	0	0	0	519	391	0	417	0	0	
3	0	0	0	0	520	388	0	430	0	0	
4	0	0	0	0	520	391	0	443	0	0	
5	0	0	0	0	518	398	0	455	0	0	
6	0	0	0	0	515	410	0	465	0	0	
7	0	0	0	0	512	426	0	471	0	0	
8	0	0	0	0	508	444	0	474	0	0	
9	0	0	0	0	504	461	0	473	0	0	
10	0	0	0	0	500	477	0	467	0	0	
11	0	0	0	0	497	490	0	458	0	0	
12	0	0	0	0	495	498	0	447	0	0	
13	0	0	0	0	495	501	0	434	0	0	
14	0	0	0	0	496	498	0	422	0	0	
15	0	0	0	0	498	490	0	410	0	0	
0	0	0	0	0	500	477	0	400	0	0	
1	0	0	0	0	504	462	0	394	0	0	
2	0	0	0	0	508	444	0	391	0	0	
3	0	0	0	0	513	427	0	393	0	0	
4	0	0	0	0	516	411	0	399	0	0	
5	0	0	0	0	519	399	0	408	0	0	
6	0	0	0	0	521	391	0	420	0	0	
7	0	0	0	0	523	387	0	433	0	0	
8	0	0	0	0	522	390	0	446	0	0	
9	0	0	0	0	521	398	0	458	0	0	
10	0	0	0	0	517	410	0	468	0	0	
11	0	0	0	0	514	426	0	475	0	0	
12	0	0	0	0	511	444	0	478	0	0	
13	0	0	0	0	506	462	0	476	0	0	
14	0	0	0	0	502	479	0	471	0	0	
15	0	0	0	0	499	492	0	462	0	0	
0	0	0	0	0	496	501	0	451	0	0	
1	0	0	0	0	496	504	0	438	0	0	
2	0	0	0	0	496	502	0	425	0	0	
3	0	0	0	0	497	493	0	413	0	0	
4	0	0	0	0	499	480	0	402	0	0	
5	0	0	0	0	502	464	0	396	0	0	
6	0	0	0	0	506	446	0	393	0	0	
7	0	0	0	0	510	428	0	395	0	0	
8	0	0	0	0	514	411	0	399	0	0	
9	0	0	0	0	518	398	0	409	0	0	
10	0	0	0	0	519	390	0	420	0	0	
11	0	0	0	0	521	386	0	434	0	0	
12	0	0	0	0	521	389	0	447	0	0	
13	0	0	0	0	520	397	0	460	0	0	
14	0	0	0	0	518	410	0	470	0	0	
15	0	0	0	0	516	426	0	477	0	0	
0	0	0	0	0	512	444	0	480	0	0	
1	0	0	0	0	509	463	0	480	0	0	
2	0	0	0	0	505	480	0	475	0	0	
3	0	0	0	0	502	493	0	466	0	0	
4	0	0	0	0	500	502	0	455	0	0	
5	0	0	0	0	499	505	0	441	0	0	
6	0	0	0	0	499	503	0	428	0	0	
7	0	0	0	0	501	495	0	416	0	0	
8	0	0	0	0	504	482	0	406	0	0	
9	0	0	0	0	507	466	0	399	0	0	
10	0	0	0	0	510	448	0	396	0	0	
11	0	0	0	0	514	431	0	398	0	0	
12	0	0	0	0	518	415	0	403	0	0	
13	0	0	0	0	522	402	0	412	0	0	
14	0	0	0	0	524	394	0	424	0	0	
15	0	0	0	0	526	391	0	438	0	0	
0	0	0	0	0	526	395	0	451	0	0	
1	0	0	0	0	525	403	0	464	0	0	
2	0	0	0	0	524	417	0	475	0	0	
3	0	0	0	0	521	434	0	482	0	0	
4	0	0	0	0	518	452	0	486	0	0	
5	0	0	0	0	515	471	0	485	0	0	
6	0	0	0	0	512	487	0	480	0	0	
7	0	0	0	0	509	501	0	472	0	0	
8	0	0	0	0	507	509	0	460	0	0	
9	0	0	0	0	506	511	0	447	0	0	
10	0	0	0	0	507	508	0	433	0	0	
11	0	0	0	0	508	499	0	421	0	0	
12	0	0	0	0	510	485	0	410	0	0	
13	0	0	0	0	513	468	0	402	0	0	
14	0	0	0	0	516	450	0	399	0	0	
15	0	0	0	0	520	432	0	399	0	0	
0	0	0	0	0	524	416	0	404	0	0	
1	0	0	0	0	526	404	0	412	0	0	
2	0	0	0	0	529	396	0	423	0	0	
3	0	0	0	0	529	394	0	437	0	0	
4	0	0	0	0	529	398	0	450	0	0	
5	0	0	0	0	528	407	0	463	0	0	
6	0	0	0	0	526	420	0	474	0	0	
7	0	0	0	0	524	437	0	481	0	0	
8	0	0	0	0	521	456	0	486	0	0	
9	0	0	0	0	518	475	0	486	0	0	
10	0	0	0	0	514	491	0	481	0	0	
11	0	0	0	0	511	504	0	473	0	0	
12	0	0	0	0	510	513	0	462	0	0	
13	0	0	0	0	509	515	0	450	0	0	
14	0	0	0	0	510	512	0	436	0	0	
15	0	0	0	0	511	504	0	424	0	0	
0	0	0	0	0	513	490	0	414	0	0	
1	0	0	0	0	516	473	0	406	0	0	
2	0	0	0	0	519	455	0	402	0	0	
3	0	0	0	0	523	436	0	403	0	0	
4	0	0	0	0	527	420	0	407	0	0	
5	0	0	0	0	528	407	0	415	0	0	
6	0	0	0	0	531	398	0	427	0	0	
7	0	0	0	0	531	396	0	439	0	0	
8	0	0	0	0	531	399	0	452	0	0	
9	0	0	0	0	529	408	0	465	0	0	
10	0	0	0	0	527	420	0	476	0	0	
11	0	0	0	0	524	437	0	483	0	0	
12	0	0	0	0	521	455	0	487	0	0	
13	0	0	0	0	518	474	0	487	0	0	
14	0	0	0	0	514	490	0	482	0	0	
15	0	0	0	0	511	503	0	473	0	0	
0	0	0	0	0	509	511	0	462	0	0	
1	0	0	0	0	508	513	0	449	0	0	
2	0	0	0	0	508	509	0	436	0	0	
3	0	0	0	0	509	500	0	423	0	0	
4	0	0	0	0	510	486	0	413	0	0	
5	0	0	0	0	512	470	0	405	0	0	
6	0	0	0	0	515	451	0	401	0	0	
7	0	0	0	0	518	432	0	401	0	0	
8	0	0	0	0	520	415	0	405	0	0	
9	0	0	0	0	522	402	0	413	0	0	
10	0	0	0	0	524	394	0	424	0	0	
11	0	0	0	0	525	391	0	436	0	0	
12	0	0	0	0	525	395	0	449	0	0	
13	0	0	0	0	524	403	0	462	0	0	
14	0	0	0	0	521	417	0	472	0	0	
15	0	0	0	0	519	433	0	480	0	0	
0	0	0	0	0	516	451	0	483	0	0	
1	0	0	0	0	513	469	0	483	0	0	
2	0	0	0	0	510	486	0	478	0	0	
3	0	0	0	0	506	499	0	468	0	0	
4	0	0	0	0	504	506	0	457	0	0	
5	0	0	0	0	503	508	0	444	0	0	
6	0	0	0	0	504	506	0	431	0	0	
7	0	0	0	0	505	497	0	418	0	0	
8	0	0	0	0	506	484	0	408	0	0	
9	0	0	0	0	509	468	0	400	0	0	
10	0	0	0	0	513	450	0	396	0	0	
11	0	0	0	0	517	433	0	397	0	0	
12	0	0	0	0	521	417	0	401	0	0	
13	0	0	0	0	524	404	0	410	0	0	
14	0	0	0	0	527	396	0	421	0	0	
15	0	0	0	0	528	393	0	435	0	0	
0	0	0	0	0	527	396	0	448	0	0	
1	0	0	0	0	527	405	0	460	0	0	
2	0	0	0	0	524	417	0	470	0	0	
3	0	0	0	0	520	433	0	477	0	0	
4	0	0	0	0	517	451	0	480	0	0	
5	0	0	0	0	513	468	0	480	0	0	
6	0	0	0	0	510	484	0	475	0	0	
7	0	0	0	0	507	496	0	466	0	0	
8	0	0	0	0	504	504	0	455	0	0	
9	0	0	0	0	504	507	0	443	0	0	
10	0	0	0	0	504	504	0	430	0	0	
11	0	0	0	0	504	496	0	418	0	0	
12	0	0	0	0	507	483	0	408	0	0	
13	0	0	0	0	509	467	0	401	0	0	
14	0	0	0	0	513	450	0	398	0	0	
15	0	0	0	0	516	432	0	398	0	0	
0	0	0	0	0	520	417	0	404	0	0	
1	0	0	0	0	524	404	0	412	0	0	
2	0	0	0	0	526	396	0	423	0	0	
3	0	0	0	0	527	393	0	435	0	0	
4	0	0	0	0	527	396	0	448	0	0	
5	0	0	0	0	526	404	0	460	0	0	
6	0	0	0	0	524	417	0	470	0	0	
7	0	0	0	0	520	432	0	476	0	0	
8	0	0	0	0	517	450	0	479	0	0	
9	0	0	0	0	513	467	0	478	0	0	
10	0	0	0	0	508	483	0	472	0	0	
11	0	0	0	0	504	495	0	463	0	0	
12	0	0	0	0	502	504	0	452	0	0	
13	0	0	0	0	502	506	0	440	0	0	
14	0	0	0	0	502	503	0	427	0	0	
15	0	0	0	0	503	495	0	415	0	0	
0	0	0	0	0	505	482	0	405	0	0	
1	0	0	0	0	508	465	0	398	0	0	
2	0	0	0	0	512	448	0	395	0	0	
3	0	0	0	0	516	430	0	396	0	0	
4	0	0	0	0	519	414	0	401	0	0	
5	0	0	0	0	522	401	0	410	0	0	
6	0	0	0	0	524	393	0	421	0	0	
7	0	0	0	0	525	390	0	434	0	0	
8	0	0	0	0	524	393	0	447	0	0	
9	0	0	0	0	523	401	0	459	0	0	
10	0	0	0	0	521	413	0	470	0	0	
11	0	0	0	0	517	429	0	476	0	0	
12	0	0	0	0	514	446	0	480	0	0	
13	0	0	0	0	510	464	0	479	0	0	
14	0	0	0	0	506	480	0	474	0	0	
15	0	0	0	0	503	493	0	465	0	0	
0	0	0	0	0	501	502	0	454	0	0	
1	0	0	0	0	499	505	0	441	0	0	
2	0	0	0	0	499	502	0	428	0	0	
3	0	0	0	0	500	494	0	417	0	0	
4	0	0	0	0	502	482	0	407	0	0	
5	0	0	0	0	505	466	0	399	0	0	
6	0	0	0	0	508	449	0	396	0	0	
7	0	0	0	0	511	431	0	397	0	0	
8	0	0	0	0	515	416	0	402	0	0	
9	0	0	0	0	518	403	0	411	0	0	
10	0	0	0	0	519	395	0	422	0	0	
11	0	0	0	0	522	393	0	436	0	0	
12	0	0	0	0	522	396	0	449	0	0	
13	0	0	0	0	521	404	0	462	0	0	
14	0	0	0	0	520	417	0	473	0	0	
15	0	0	0	0	517	433	0	480	0	0	
0	0	0	0	0	515	451	0	484	0	0	
1	0	0	0	0	512	470	0	484	0	0	
2	0	0	0	0	508	486	0	480	0	0	
3	0	0	0	0	505	499	0	472	0	0	
4	0	0	0	0	504	508	0	460	0	0	
5	0	0	0	0	503	511	0	448	0	0	
6	0	0	0	0	503	508	0	435	0	0	
7	0	0	0	0	504	499	0	423	0	0	
8	0	0	0	0	505	486	0	413	0	0	
9	0	0	0	0	508	470	0	405	0	0	
10	0	0	0	0	511	452	0	401	0	0	
11	0	0	0	0	514	434	0	402	0	0	
12	0	0	0	0	518	417	0	407	0	0	
13	0	0	0	0	520	404	0	415	0	0	
14	0	0	0	0	523	396	0	425	0	0	
15	0	0	0	0	525	393	0	438	0	0	
0	0	0	0	0	525	396	0	451	0	0	
1	0	0	0	0	525	404	0	463	0	0	
2	0	0	0	0	524	417	0	473	0	0	
3	0	0	0	0	522	433	0	481	0	0	
4	0	0	0	0	519	451	0	484	0	0	
5	0	0	0	0	515	470	0	483	0	0	
6	0	0	0	0	512	485	0	479	0	0	
7	0	0	0	0	509	498	0	470	0	0	
8	0	0	0	0	507	505	0	459	0	0	
9	0	0	0	0	505	508	0	446	0	0	
10	0	0	0	0	504	504	0	433	0	0	
11	0	0	0	0	505	495	0	422	0	0	
12	0	0	0	0	507	482	0	412	0	0	
13	0	0	0	0	509	466	0	404	0	0	
14	0	0	0	0	513	448	0	401	0	0	
15	0	0	0	0	517	430	0	401	0	0	
0	0	0	0	0	520	413	0	407	0	0	
1	0	0	0	0	524	400	0	415	0	0	
2	0	0	0	0	526	391	0	427	0	0	
3	0	0	0	0	528	389	0	440	0	0	
4	0	0	0	0	528	391	0	454	0	0	
5	0	0	0	0	527	399	0	465	0	0	
6	0	0	0	0	526	412	0	476	0	0	
7	0	0	0	0	523	429	0	483	0	0	
8	0	0	0	0	521	447	0	486	0	0	
9	0	0	0	0	518	466	0	485	0	0	
10	0	0	0	0	514	482	0	480	0	0	
11	0	0	0	0	511	496	0	470	0	0	
12	0	0	0	0	508	504	0	459	0	0	
13	0	0	0	0	508	508	0	447	0	0	
14	0	0	0	0	507	505	0	434	0	0	
15	0	0	0	0	508	497	0	422	0	0	
0	0	0	0	0	508	484	0	412	0	0	
1	0	0	0	0	511	468	0	406	0	0	
2	0	0	0	0	514	449	0	403	0	0	
3	0	0	0	0	518	432	0	404	0	0	
4	0	0	0	0	521	415	0	409	0	0	
5	0	0	0	0	524	402	0	418	0	0	
6	0	0	0	0	526	394	0	429	0	0	
7	0	0	0	0	528	391	0	442	0	0	
8	0	0	0	0	527	394	0	455	0	0	
9	0	0	0	0	527	403	0	468	0	0	
10	0	0	0	0	526	415	0	478	0	0	
11	0	0	0	0	523	432	0	484	0	0	
12	0	0	0	0	520	451	0	488	0	0	
13	0	0	0	0	517	469	0	487	0	0	
14	0	0	0	0	513	486	0	483	0	0	
15	0	0	0	0	510	500	0	474	0	0	
0	0	0	0	0	508	509	0	462	0	0	
1	0	0	0	0	508	512	0	450	0	0	
2	0	0	0	0	508	510	0	437	0	0	
3	0	0	0	0	509	502	0	425	0	0	
4	0	0	0	0	510	489	0	415	0	0	
5	0	0	0	0	513	473	0	408	0	0	
6	0	0	0	0	517	455	0	404	0	0	
7	0	0	0	0	521	438	0	406	0	0	
8	0	0	0	0	524	421	0	410	0	0	
9	0	0	0	0	527	408	0	419	0	0	
10	0	0	0	0	529	399	0	430	0	0	
11	0	0	0	0	531	395	0	443	0	0	
12	0	0	0	0	531	397	0	455	0	0	
13	0	0	0	0	529	404	0	467	0	0	
14	0	0	0	0	527	416	0	477	0	0	
15	0	0	0	0	523	431	0	483	0	0	
0	0	0	0	0	519	448	0	486	0	0	
1	0	0	0	0	515	466	0	484	0	0	
2	0	0	0	0	511	482	0	479	0	0	
3	0	0	0	0	508	494	0	470	0	0	
4	0	0	0	0	505	503	0	459	0	0	
5	0	0	0	0	504	505	0	446	0	0	
6	0	0	0	0	504	503	0	432	0	0	
7	0	0	0	0	505	495	0	420	0	0	
8	0	0	0	0	507	482	0	410	0	0	
9	0	0	0	0	508	466	0	403	0	0	
10	0	0	0	0	512	448	0	399	0	0	
11	0	0	0	0	515	431	0	400	0	0	
12	0	0	0	0	518	415	0	405	0	0	
13	0	0	0	0	521	401	0	413	0	0	
14	0	0	0	0	522	393	0	424	0	0	
15	0	0	0	0	524	390	0	438	0	0	
0	0	0	0	0	524	393	0	451	0	0	
1	0	0	0	0	522	400	0	463	0	0	
2	0	0	0	0	520	413	0	473	0	0	
3	0	0	0	0	517	429	0	480	0	0	
4	0	0	0	0	515	448	0	484	0	0	
5	0	0	0	0	512	466	0	483	0	0	
6	0	0	0	0	510	482	0	479	0	0	
7	0	0	0	0	508	496	0	471	0	0	
8	0	0	0	0	506	504	0	460	0	0	
9	0	0	0	0	507	508	0	447	0	0	
10	0	0	0	0	508	505	0	434	0	0	
11	0	0	0	0	510	498	0	423	0	0	
12	0	0	0	0	512	486	0	413	0	0	
13	0	0	0	0	515	471	0	406	0	0	
14	0	0	0	0	519	454	0	402	0	0	
15	0	0	0	0	522	437	0	403	0	0	
0	0	0	0	0	525	422	0	408	0	0	
1	0	0	0	0	527	409	0	416	0	0	
2	0	0	0	0	528	401	0	428	0	0	
3	0	0	0	0	530	399	0	440	0	0	
4	0	0	0	0	530	402	0	454	0	0	
5	0	0	0	0	528	409	0	466	0	0	
6	0	0	0	0	526	423	0	476	0	0	
7	0	0	0	0	524	439	0	484	0	0	
8	0	0	0	0	522	456	0	487	0	0	
9	0	0	0	0	519	475	0	487	0	0	
10	0	0	0	0	516	490	0	482	0	0	
11	0	0	0	0	513	504	0	474	0	0	
12	0	0	0	0	511	512	0	463	0	0	
13	0	0	0	0	511	515	0	450	0	0	
14	0	0	0	0	512	512	0	438	0	0	
15	0	0	0	0	513	504	0	426	0	0	
0	0	0	0	0	515	491	0	416	0	0	
1	0	0	0	0	518	475	0	410	0	0	
2	0	0	0	0	520	457	0	407	0	0	
3	0	0	0	0	523	440	0	408	0	0	
4	0	0	0	0	526	423	0	413	0	0	
5	0	0	0	0	528	410	0	421	0	0	
6	0	0	0	0	529	402	0	432	0	0	
7	0	0	0	0	530	399	0	444	0	0	
8	0	0	0	0	529	401	0	455	0	0	
9	0	0	0	0	527	408	0	467	0	0	
10	0	0	0	0	524	421	0	476	0	0	
11	0	0	0	0	520	436	0	482	0	0	
12	0	0	0	0	518	454	0	484	0	0	
13	0	0	0	0	514	471	0	483	0	0	
14	0	0	0	0	511	487	0	478	0	0	
15	0	0	0	0	508	499	0	469	0	0	
0	0	0	0	0	506	507	0	457	0	0	
1	0	0	0	0	505	510	0	444	0	0	
2	0	0	0	0	505	506	0	431	0	0	
3	0	0	0	0	507	498	0	419	0	0	
4	0	0	0	0	509	484	0	408	0	0	
5	0	0	0	0	511	467	0	400	0	0	
6	0	0	0	0	514	449	0	396	0	0	
7	0	0	0	0	516	431	0	396	0	0	
8	0	0	0	0	519	414	0	401	0	0	
9	0	0	0	0	521	399	0	409	0	0	
10	0	0	0	0	521	390	0	419	0	0	
11	0	0	0	0	521	386	0	432	0	0	
12	0	0	0	0	520	388	0	444	0	0	
13	0	0	0	0	518	396	0	456	0	0	
14	0	0	0	0	515	408	0	466	0	0	
15	0	0	0	0	512	423	0	472	0	0	
0	0	0	0	0	509	441	0	476	0	0	
1	0	0	0	0	506	460	0	476	0	0	
2	0	0	0	0	503	476	0	472	0	0	
3	0	0	0	0	501	489	0	463	0	0	
4	0	0	0	0	500	499	0	452	0	0	
5	0	0	0	0	500	502	0	440	0	0	
6	0	0	0	0	502	499	0	428	0	0	
7	0	0	0	0	504	492	0	415	0	0	
8	0	0	0	0	506	480	0	405	0	0	
9	0	0	0	0	509	464	0	398	0	0	
10	0	0	0	0	512	447	0	395	0	0	
11	0	0	0	0	516	429	0	396	0	0	
12	0	0	0	0	519	413	0	400	0	0	
13	0	0	0	0	521	401	0	409	0	0	
14	0	0	0	0	522	393	0	420	0	0	
15	0	0	0	0	524	391	0	432	0	0	
0	0	0	0	0	523	394	0	446	0	0	
1	0	0	0	0	522	403	0	458	0	0	
2	0	0	0	0	519	415	0	468	0	0	
3	0	0	0	0	517	432	0	476	0	0	
4	0	0	0	0	515	451	0	480	0	0	
5	0	0	0	0	511	468	0	479	0	0	
6	0	0	0	0	509	485	0	474	0	0	
7	0	0	0	0	507	498	0	466	0	0	
8	0	0	0	0	505	507	0	454	0	0	
9	0	0	0	0	505	510	0	441	0	0	
10	0	0	0	0	505	508	0	428	0	0	
11	0	0	0	0	507	500	0	416	0	0	
12	0	0	0	0	509	487	0	407	0	0	
13	0	0	0	0	511	472	0	399	0	0	
14	0	0	0	0	515	455	0	396	0	0	
15	0	0	0	0	518	438	0	397	0	0	
0	0	0	0	0	522	422	0	403	0	0	
1	0	0	0	0	525	409	0	412	0	0	
2	0	0	0	0	527	401	0	424	0	0	
3	0	0	0	0	529	399	0	438	0	0	
4	0	0	0	0	530	402	0	452	0	0	
5	0	0	0	0	530	410	0	465	0	0	
6	0	0	0	0	528	423	0	476	0	0	
7	0	0	0	0	526	439	0	485	0	0	
8	0	0	0	0	524	457	0	489	0	0	
9	0	0	0	0	521	476	0	489	0	0	
10	0	0	0	0	519	492	0	485	0	0	
11	0	0	0	0	516	506	0	477	0	0	
12	0	0	0	0	514	515	0	466	0	0	
13	0	0	0	0	514	519	0	454	0	0	
14	0	0	0	0	515	517	0	441	0	0	
15	0	0	0	0	517	509	0	429	0	0	
0	0	0	0	0	518	497	0	418	0	0	
1	0	0	0	0	521	482	0	410	0	0	
2	0	0	0	0	524	464	0	407	0	0	
3	0	0	0	0	527	447	0	407	0	0	
4	0	0	0	0	531	431	0	411	0	0	
5	0	0	0	0	533	418	0	419	0	0	
6	0	0	0	0	535	409	0	431	0	0	
7	0	0	0	0	536	406	0	443	0	0	
8	0	0	0	0	536	409	0	457	0	0	
9	0	0	0	0	534	416	0	468	0	0	
10	0	0	0	0	532	429	0	480	0	0	
11	0	0	0	0	530	445	0	487	0	0	
12	0	0	0	0	527	463	0	491	0	0	
13	0	0	0	0	524	481	0	490	0	0	
14	0	0	0	0	520	498	0	486	0	0	
15	0	0	0	0	518	511	0	478	0	0	
0	0	0	0	0	516	520	0	467	0	0	
1	0	0	0	0	516	524	0	455	0	0	
2	0	0	0	0	517	521	0	442	0	0	
3	0	0	0	0	518	513	0	430	0	0	
4	0	0	0	0	521	500	0	421	0	0	
5	0	0	0	0	523	486	0	413	0	0	
6	0	0	0	0	528	468	0	410	0	0	
7	0	0	0	0	531	449	0	411	0	0	
8	0	0	0	0	534	434	0	416	0	0	
9	0	0	0	0	536	420	0	424	0	0	
10	0	0	0	0	539	412	0	435	0	0	
11	0	0	0	0	540	408	0	447	0	0	
12	0	0	0	0	539	410	0	460	0	0	
13	0	0	0	0	538	418	0	472	0	0	
14	0	0	0	0	535	430	0	481	0	0	
15	0	0	0	0	533	445	0	488	0	0	
0	0	0	0	0	529	463	0	492	0	0	
1	0	0	0	0	526	480	0	491	0	0	
2	0	0	0	0	522	496	0	486	0	0	
3	0	0	0	0	518	509	0	478	0	0	
4	0	0	0	0	517	518	0	467	0	0	
5	0	0	0	0	515	522	0	454	0	0	
6	0	0	0	0	515	519	0	441	0	0	
7	0	0	0	0	517	512	0	430	0	0	
8	0	0	0	0	519	500	0	420	0	0	
9	0	0	0	0	522	486	0	414	0	0	
10	0	0	0	0	526	469	0	411	0	0	
11	0	0	0	0	531	452	0	412	0	0	
12	0	0	0	0	535	436	0	418	0	0	
13	0	0	0	0	539	424	0	427	0	0	
14	0	0	0	0	542	416	0	439	0	0	
15	0	0	0	0	543	413	0	451	0	0	
0	0	0	0	0	543	415	0	463	0	0	
1	0	0	0	0	541	422	0	474	0	0	
2	0	0	0	0	537	432	0	482	0	0	
3	0	0	0	0	531	445	0	486	0	0	
4	0	0	0	0	524	459	0	485	0	0	
5	0	0	0	0	514	472	0	479	0	0	
6	0	0	0	0	504	482	0	468	0	0	
7	0	0	0	0	493	487	0	452	0	0	
8	0	0	0	0	483	488	0	433	0	0	
9	0	0	0	0	472	483	0	411	0	0	
10	0	0	0	0	462	470	0	388	0	0	
11	0	0	0	0	453	452	0	366	0	0	
12	0	0	0	0	444	430	0	345	0	0	
13	0	0	0	0	435	403	0	327	0	0	
14	0	0	0	0	428	374	0	312	0	0	
15	0	0	0	0	420	345	0	300	0	0	
0	0	0	0	0	412	318	0	294	0	0	
1	0	0	0	0	403	292	0	290	0	0	
2	0	0	0	0	395	272	0	289	0	0	
3	0	0	0	0	384	256	0	290	0	0	
4	0	0	0	0	371	246	0	291	0	0	
5	0	0	0	0	358	240	0	292	0	0	
6	0	0	0	0	342	239	0	291	0	0	
7	0	0	0	0	327	242	0	287	0	0	
8	0	0	0	0	310	248	0	280	0	0	
9	0	0	0	0	294	255	0	270	0	0	
10	0	0	0	0	279	262	0	257	0	0	
11	0	0	0	0	266	267	0	241	0	0	
12	0	0	0	0	257	271	0	225	0	0	
13	0	0	0	0	253	272	0	209	0	0	
14	0	0	0	0	253	271	0	196	0	0	
15	0	0	0	0	259	267	0	187	0	0	
0	0	0	0	0	270	262	0	184	0	0	
1	0	0	0	0	286	257	0	187	0	0	
2	0	0	0	0	307	254	0	198	0	0	
3	0	0	0	0	333	254	0	216	0	0	
4	0	0	0	0	362	258	0	242	0	0	
5	0	0	0	0	393	266	0	274	0	0	
6	0	0	0	0	425	281	0	310	0	0	
7	0	0	0	0	455	302	0	350	0	0	
8	0	0	0	0	484	328	0	390	0	0	
9	0	0	0	0	510	359	0	428	0	0	
10	0	0	0	0	531	393	0	463	0	0	
11	0	0	0	0	549	430	0	492	0	0	
12	0	0	0	0	562	466	0	513	0	0	
13	0	0	0	0	570	499	0	527	0	0	
14	0	0	0	0	574	528	0	532	0	0	
15	0	0	0	0	574	550	0	529	0	0	
0	0	0	0	0	572	564	0	519	0	0	
1	0	0	0	0	567	569	0	505	0	0	
2	0	0	0	0	561	567	0	487	0	0	
3	0	0	0	0	555	556	0	468	0	0	
4	0	0	0	0	548	539	0	449	0	0	
5	0	0	0	0	543	517	0	434	0	0	
6	0	0	0	0	538	492	0	422	0	0	
7	0	0	0	0	535	468	0	415	0	0	
8	0	0	0	0	533	446	0	413	0	0	
9	0	0	0	0	531	428	0	416	0	0	
10	0	0	0	0	531	415	0	425	0	0	
11	0	0	0	0	531	409	0	437	0	0	
12	0	0	0	0	532	411	0	451	0	0	
13	0	0	0	0	532	419	0	464	0	0	
14	0	0	0	0	534	433	0	477	0	0	
15	0	0	0	0	534	451	0	488	0	0	
0	0	0	0	0	535	471	0	496	0	0	
1	0	0	0	0	536	493	0	499	0	0	
2	0	0	0	0	535	512	0	498	0	0	
3	0	0	0	0	535	529	0	492	0	0	
4	0	0	0	0	536	540	0	484	0	0	
5	0	0	0	0	535	545	0	473	0	0	
6	0	0	0	0	536	544	0	461	0	0	
7	0	0	0	0	536	536	0	449	0	0	
8	0	0	0	0	537	524	0	439	0	0	
9	0	0	0	0	539	508	0	431	0	0	
10	0	0	0	0	541	489	0	427	0	0	
11	0	0	0	0	543	471	0	426	0	0	
12	0	0	0	0	545	453	0	430	0	0	
13	0	0	0	0	547	439	0	437	0	0	
14	0	0	0	0	548	430	0	446	0	0	
15	0	0	0	0	548	425	0	458	0	0	
0	0	0	0	0	548	427	0	470	0	0	
1	0	0	0	0	547	434	0	483	0	0	
2	0	0	0	0	545	446	0	492	0	0	
3	0	0	0	0	543	461	0	500	0	0	
4	0	0	0	0	541	479	0	504	0	0	
5	0	0	0	0	539	497	0	504	0	0	
6	0	0	0	0	536	513	0	501	0	0	
7	0	0	0	0	533	526	0	494	0	0	
8	0	0	0	0	532	535	0	484	0	0	
9	0	0	0	0	532	539	0	472	0	0	
10	0	0	0	0	532	536	0	460	0	0	
11	0	0	0	0	533	529	0	449	0	0	
12	0	0	0	0	535	516	0	439	0	0	
13	0	0	0	0	538	501	0	432	0	0	
14	0	0	0	0	540	483	0	428	0	0	
15	0	0	0	0	543	466	0	428	0	0	
0	0	0	0	0	546	449	0	432	0	0	
1	0	0	0	0	548	436	0	439	0	0	
2	0	0	0	0	551	428	0	449	0	0	
3	0	0	0	0	551	424	0	461	0	0	
4	0	0	0	0	551	427	0	473	0	0	
5	0	0	0	0	549	435	0	485	0	0	
6	0	0	0	0	547	447	0	495	0	0	
7	0	0	0	0	545	463	0	502	0	0	
8	0	0	0	0	542	480	0	506	0	0	
9	0	0	0	0	539	498	0	507	0	0	
10	0	0	0	0	536	515	0	503	0	0	
11	0	0	0	0	533	528	0	496	0	0	
12	0	0	0	0	531	536	0	486	0	0	
13	0	0	0	0	531	540	0	475	0	0	
14	0	0	0	0	532	537	0	462	0	0	
15	0	0	0	0	534	530	0	451	0	0	
0	0	0	0	0	536	518	0	441	0	0	
1	0	0	0	0	538	502	0	433	0	0	
2	0	0	0	0	542	484	0	429	0	0	
3	0	0	0	0	545	467	0	428	0	0	
4	0	0	0	0	548	450	0	431	0	0	
5	0	0	0	0	550	436	0	438	0	0	
6	0	0	0	0	551	428	0	447	0	0	
7	0	0	0	0	551	424	0	458	0	0	
8	0	0	0	0	551	427	0	470	0	0	
9	0	0	0	0	549	433	0	481	0	0	
10	0	0	0	0	546	445	0	490	0	0	
11	0	0	0	0	542	460	0	497	0	0	
12	0	0	0	0	539	477	0	500	0	0	
13	0	0	0	0	536	495	0	500	0	0	
14	0	0	0	0	532	511	0	496	0	0	
15	0	0	0	0	530	524	0	487	0	0	
0	0	0	0	0	528	532	0	478	0	0	
1	0	0	0	0	528	536	0	467	0	0	
2	0	0	0	0	529	533	0	455	0	0	
3	0	0	0	0	530	525	0	444	0	0	
4	0	0	0	0	532	513	0	435	0	0	
5	0	0	0	0	535	497	0	428	0	0	
6	0	0	0	0	539	480	0	424	0	0	
7	0	0	0	0	542	463	0	425	0	0	
8	0	0	0	0	545	446	0	430	0	0	
9	0	0	0	0	547	433	0	437	0	0	
10	0	0	0	0	549	425	0	447	0	0	
11	0	0	0	0	551	423	0	460	0	0	
12	0	0	0	0	550	425	0	472	0	0	
13	0	0	0	0	549	433	0	483	0	0	
14	0	0	0	0	547	445	0	492	0	0	
15	0	0	0	0	543	461	0	499	0	0	
0	0	0	0	0	541	478	0	502	0	0	
1	0	0	0	0	537	496	0	501	0	0	
2	0	0	0	0	533	512	0	496	0	0	
3	0	0	0	0	530	525	0	488	0	0	
4	0	0	0	0	527	534	0	477	0	0	
5	0	0	0	0	526	536	0	465	0	0	
6	0	0	0	0	526	535	0	453	0	0	
7	0	0	0	0	527	527	0	441	0	0	
8	0	0	0	0	529	514	0	432	0	0	
9	0	0	0	0	531	498	0	424	0	0	
