# OpenSignals Text File Format. Version 1
# {"": {"position": 0, "device": "", "device name": "", "device connection": "", "sampling rate": 1000, "resolution": [4, 1, 1, 1, 1, 10, 10, 10, 10, 6, 6], "firmware version": 1281, "comments": "", "keywords": "", "mode": 0, "sync interval": 2, "date": "", "time": "", "channels": [1, 2, 3, 4, 5, 6], "sensor": ["RAW", "RAW", "RAW", "RAW", "RAW", "RAW"], "label": ["A1", "A2", "A3", "A4", "A5", "A6"], "column": ["nSeq", "I1", "I2", "O1", "O2", "A1", "A2", "A3", "A4", "A5", "A6"], "special": [{}, {}, {}, {}, {}, {}], "digital IO": [0, 0, 1, 1], "convertedValues": 0}}
# EndOfHeader
0	0	0	0	0	548	440	0	495	0	0	
1	0	0	0	0	548	455	0	505	0	0	
2	0	0	0	0	547	473	0	511	0	0	
3	0	0	0	0	546	492	0	513	0	0	
4	0	0	0	0	545	511	0	511	0	0	
5	0	0	0	0	543	527	0	505	0	0	
6	0	0	0	0	541	540	0	495	0	0	
7	0	0	0	0	539	548	0	483	0	0	
8	0	0	0	0	537	550	0	470	0	0	
9	0	0	0	0	538	546	0	456	0	0	
10	0	0	0	0	538	536	0	444	0	0	
11	0	0	0	0	539	522	0	434	0	0	
12	0	0	0	0	540	504	0	427	0	0	
13	0	0	0	0	541	485	0	424	0	0	
14	0	0	0	0	543	465	0	425	0	0	
15	0	0	0	0	543	448	0	430	0	0	
0	0	0	0	0	544	433	0	437	0	0	
1	0	0	0	0	542	422	0	446	0	0	
2	0	0	0	0	540	417	0	456	0	0	
3	0	0	0	0	535	416	0	464	0	0	
4	0	0	0	0	528	420	0	471	0	0	
5	0	0	0	0	520	427	0	473	0	0	
6	0	0	0	0	510	436	0	472	0	0	
7	0	0	0	0	499	446	0	466	0	0	
8	0	0	0	0	487	455	0	454	0	0	
9	0	0	0	0	474	461	0	438	0	0	
10	0	0	0	0	460	462	0	418	0	0	
11	0	0	0	0	448	458	0	394	0	0	
12	0	0	0	0	434	448	0	369	0	0	
13	0	0	0	0	423	432	0	343	0	0	
14	0	0	0	0	411	411	0	319	0	0	
15	0	0	0	0	399	385	0	296	0	0	
0	0	0	0	0	388	355	0	278	0	0	
1	0	0	0	0	378	325	0	262	0	0	
2	0	0	0	0	369	295	0	251	0	0	
3	0	0	0	0	359	266	0	244	0	0	
4	0	0	0	0	349	241	0	242	0	0	
5	0	0	0	0	339	221	0	243	0	0	
6	0	0	0	0	329	207	0	247	0	0	
7	0	0	0	0	319	200	0	252	0	0	
8	0	0	0	0	311	200	0	259	0	0	
9	0	0	0	0	304	208	0	265	0	0	
10	0	0	0	0	299	222	0	271	0	0	
11	0	0	0	0	296	240	0	276	0	0	
12	0	0	0	0	297	263	0	280	0	0	
13	0	0	0	0	302	287	0	282	0	0	
14	0	0	0	0	311	311	0	284	0	0	
15	0	0	0	0	324	333	0	286	0	0	
0	0	0	0	0	341	352	0	288	0	0	
1	0	0	0	0	362	368	0	294	0	0	
2	0	0	0	0	387	380	0	302	0	0	
3	0	0	0	0	413	389	0	313	0	0	
4	0	0	0	0	441	395	0	329	0	0	
5	0	0	0	0	470	399	0	349	0	0	
6	0	0	0	0	498	403	0	373	0	0	
7	0	0	0	0	524	407	0	400	0	0	
8	0	0	0	0	548	413	0	429	0	0	
9	0	0	0	0	568	422	0	459	0	0	
10	0	0	0	0	583	434	0	487	0	0	
11	0	0	0	0	594	449	0	512	0	0	
12	0	0	0	0	600	468	0	534	0	0	
13	0	0	0	0	602	488	0	549	0	0	
14	0	0	0	0	599	509	0	558	0	0	
15	0	0	0	0	594	529	0	560	0	0	
0	0	0	0	0	585	547	0	556	0	0	
1	0	0	0	0	575	561	0	545	0	0	
2	0	0	0	0	565	569	0	530	0	0	
3	0	0	0	0	555	573	0	511	0	0	
4	0	0	0	0	546	569	0	491	0	0	
5	0	0	0	0	539	559	0	471	0	0	
6	0	0	0	0	535	545	0	454	0	0	
7	0	0	0	0	531	526	0	439	0	0	
8	0	0	0	0	531	505	0	429	0	0	
9	0	0	0	0	533	485	0	425	0	0	
10	0	0	0	0	538	465	0	427	0	0	
11	0	0	0	0	544	450	0	434	0	0	
12	0	0	0	0	550	439	0	446	0	0	
13	0	0	0	0	556	433	0	460	0	0	
14	0	0	0	0	562	435	0	477	0	0	
15	0	0	0	0	568	442	0	494	0	0	
0	0	0	0	0	571	455	0	510	0	0	
1	0	0	0	0	574	473	0	523	0	0	
2	0	0	0	0	573	493	0	531	0	0	
3	0	0	0	0	573	514	0	536	0	0	
4	0	0	0	0	571	534	0	536	0	0	
5	0	0	0	0	568	551	0	531	0	0	
6	0	0	0	0	564	564	0	521	0	0	
7	0	0	0	0	560	571	0	508	0	0	
8	0	0	0	0	556	572	0	494	0	0	
9	0	0	0	0	553	566	0	480	0	0	
10	0	0	0	0	551	555	0	467	0	0	
11	0	0	0	0	551	539	0	455	0	0	
12	0	0	0	0	551	520	0	447	0	0	
13	0	0	0	0	551	500	0	443	0	0	
14	0	0	0	0	555	481	0	444	0	0	
15	0	0	0	0	557	464	0	450	0	0	
0	0	0	0	0	560	451	0	459	0	0	
1	0	0	0	0	563	444	0	471	0	0	
2	0	0	0	0	566	443	0	484	0	0	
3	0	0	0	0	568	448	0	498	0	0	
4	0	0	0	0	568	459	0	510	0	0	
5	0	0	0	0	568	473	0	520	0	0	
6	0	0	0	0	568	491	0	528	0	0	
7	0	0	0	0	566	510	0	530	0	0	
8	0	0	0	0	563	529	0	529	0	0	
9	0	0	0	0	560	544	0	523	0	0	
10	0	0	0	0	558	556	0	514	0	0	
11	0	0	0	0	556	563	0	502	0	0	
12	0	0	0	0	553	563	0	488	0	0	
13	0	0	0	0	553	558	0	475	0	0	
14	0	0	0	0	553	547	0	463	0	0	
15	0	0	0	0	553	532	0	452	0	0	
0	0	0	0	0	554	514	0	445	0	0	
1	0	0	0	0	556	496	0	442	0	0	
2	0	0	0	0	559	478	0	444	0	0	
3	0	0	0	0	561	463	0	450	0	0	
4	0	0	0	0	563	452	0	460	0	0	
5	0	0	0	0	565	446	0	472	0	0	
6	0	0	0	0	566	446	0	486	0	0	
7	0	0	0	0	568	451	0	499	0	0	
8	0	0	0	0	568	462	0	512	0	0	
9	0	0	0	0	567	476	0	522	0	0	
10	0	0	0	0	564	494	0	529	0	0	
11	0	0	0	0	562	512	0	531	0	0	
12	0	0	0	0	560	529	0	529	0	0	
13	0	0	0	0	557	544	0	523	0	0	
14	0	0	0	0	553	555	0	512	0	0	
15	0	0	0	0	551	561	0	499	0	0	
0	0	0	0	0	547	561	0	484	0	0	
1	0	0	0	0	547	554	0	469	0	0	
2	0	0	0	0	546	543	0	456	0	0	
3	0	0	0	0	545	527	0	445	0	0	
4	0	0	0	0	546	508	0	438	0	0	
5	0	0	0	0	547	488	0	435	0	0	
6	0	0	0	0	550	469	0	437	0	0	
7	0	0	0	0	551	453	0	443	0	0	
8	0	0	0	0	554	440	0	454	0	0	
9	0	0	0	0	556	434	0	467	0	0	
10	0	0	0	0	557	433	0	480	0	0	
11	0	0	0	0	558	438	0	495	0	0	
12	0	0	0	0	558	449	0	508	0	0	
13	0	0	0	0	558	464	0	519	0	0	
14	0	0	0	0	556	482	0	525	0	0	
15	0	0	0	0	554	501	0	528	0	0	
0	0	0	0	0	551	520	0	526	0	0	
1	0	0	0	0	548	536	0	519	0	0	
2	0	0	0	0	545	547	0	508	0	0	
3	0	0	0	0	543	554	0	495	0	0	
4	0	0	0	0	540	555	0	479	0	0	
5	0	0	0	0	540	549	0	464	0	0	
6	0	0	0	0	540	538	0	451	0	0	
7	0	0	0	0	540	523	0	440	0	0	
8	0	0	0	0	541	505	0	432	0	0	
9	0	0	0	0	542	486	0	428	0	0	
10	0	0	0	0	546	468	0	430	0	0	
11	0	0	0	0	548	452	0	436	0	0	
12	0	0	0	0	551	441	0	446	0	0	
13	0	0	0	0	553	435	0	458	0	0	
14	0	0	0	0	554	435	0	472	0	0	
15	0	0	0	0	556	441	0	487	0	0	
0	0	0	0	0	556	452	0	501	0	0	
1	0	0	0	0	555	467	0	512	0	0	
2	0	0	0	0	553	486	0	519	0	0	
3	0	0	0	0	551	505	0	522	0	0	
4	0	0	0	0	550	523	0	521	0	0	
5	0	0	0	0	546	538	0	515	0	0	
6	0	0	0	0	543	550	0	506	0	0	
7	0	0	0	0	541	555	0	493	0	0	
8	0	0	0	0	540	555	0	479	0	0	
9	0	0	0	0	539	549	0	465	0	0	
10	0	0	0	0	539	538	0	452	0	0	
11	0	0	0	0	540	523	0	442	0	0	
12	0	0	0	0	540	504	0	435	0	0	
13	0	0	0	0	543	486	0	432	0	0	
14	0	0	0	0	547	467	0	435	0	0	
15	0	0	0	0	550	452	0	441	0	0	
0	0	0	0	0	553	441	0	451	0	0	
1	0	0	0	0	555	435	0	463	0	0	
2	0	0	0	0	558	434	0	477	0	0	
3	0	0	0	0	559	439	0	491	0	0	
4	0	0	0	0	558	450	0	504	0	0	
5	0	0	0	0	557	464	0	513	0	0	
6	0	0	0	0	555	481	0	520	0	0	
7	0	0	0	0	551	499	0	523	0	0	
8	0	0	0	0	547	517	0	520	0	0	
9	0	0	0	0	543	532	0	514	0	0	
10	0	0	0	0	540	543	0	504	0	0	
11	0	0	0	0	537	549	0	491	0	0	
12	0	0	0	0	535	549	0	476	0	0	
13	0	0	0	0	534	543	0	462	0	0	
14	0	0	0	0	534	532	0	449	0	0	
15	0	0	0	0	535	517	0	439	0	0	
0	0	0	0	0	536	499	0	432	0	0	
1	0	0	0	0	539	480	0	429	0	0	
2	0	0	0	0	542	462	0	431	0	0	
3	0	0	0	0	545	447	0	438	0	0	
4	0	0	0	0	549	436	0	448	0	0	
5	0	0	0	0	551	430	0	461	0	0	
6	0	0	0	0	553	430	0	475	0	0	
7	0	0	0	0	553	436	0	489	0	0	
8	0	0	0	0	553	447	0	502	0	0	
9	0	0	0	0	552	462	0	512	0	0	
10	0	0	0	0	550	481	0	519	0	0	
11	0	0	0	0	548	500	0	521	0	0	
12	0	0	0	0	544	519	0	519	0	0	
13	0	0	0	0	541	535	0	513	0	0	
14	0	0	0	0	538	546	0	502	0	0	
15	0	0	0	0	535	551	0	489	0	0	
0	0	0	0	0	535	551	0	475	0	0	
1	0	0	0	0	534	546	0	461	0	0	
2	0	0	0	0	534	534	0	448	0	0	
3	0	0	0	0	534	517	0	437	0	0	
4	0	0	0	0	536	498	0	430	0	0	
5	0	0	0	0	537	478	0	427	0	0	
6	0	0	0	0	540	458	0	428	0	0	
7	0	0	0	0	543	441	0	434	0	0	
8	0	0	0	0	545	428	0	443	0	0	
9	0	0	0	0	545	420	0	455	0	0	
10	0	0	0	0	546	420	0	468	0	0	
11	0	0	0	0	547	424	0	482	0	0	
12	0	0	0	0	547	435	0	495	0	0	
13	0	0	0	0	545	450	0	504	0	0	
14	0	0	0	0	543	469	0	510	0	0	
15	0	0	0	0	541	488	0	513	0	0	
0	0	0	0	0	539	507	0	511	0	0	
1	0	0	0	0	536	523	0	504	0	0	
2	0	0	0	0	534	535	0	494	0	0	
3	0	0	0	0	532	543	0	481	0	0	
4	0	0	0	0	531	543	0	468	0	0	
5	0	0	0	0	531	538	0	454	0	0	
6	0	0	0	0	532	527	0	441	0	0	
7	0	0	0	0	533	512	0	432	0	0	
8	0	0	0	0	535	494	0	426	0	0	
9	0	0	0	0	537	476	0	423	0	0	
10	0	0	0	0	540	459	0	426	0	0	
11	0	0	0	0	543	443	0	432	0	0	
12	0	0	0	0	545	432	0	443	0	0	
13	0	0	0	0	547	426	0	455	0	0	
14	0	0	0	0	548	425	0	469	0	0	
15	0	0	0	0	549	431	0	483	0	0	
0	0	0	0	0	549	442	0	496	0	0	
1	0	0	0	0	548	457	0	505	0	0	
2	0	0	0	0	546	475	0	512	0	0	
3	0	0	0	0	543	493	0	514	0	0	
4	0	0	0	0	541	511	0	512	0	0	
5	0	0	0	0	537	527	0	505	0	0	
6	0	0	0	0	534	537	0	495	0	0	
7	0	0	0	0	531	543	0	482	0	0	
8	0	0	0	0	529	543	0	468	0	0	
9	0	0	0	0	529	536	0	455	0	0	
10	0	0	0	0	529	525	0	443	0	0	
11	0	0	0	0	530	510	0	433	0	0	
12	0	0	0	0	532	493	0	427	0	0	
13	0	0	0	0	534	474	0	424	0	0	
14	0	0	0	0	539	456	0	427	0	0	
15	0	0	0	0	542	441	0	433	0	0	
0	0	0	0	0	546	430	0	444	0	0	
1	0	0	0	0	548	424	0	456	0	0	
2	0	0	0	0	551	425	0	470	0	0	
3	0	0	0	0	554	431	0	484	0	0	
4	0	0	0	0	553	442	0	496	0	0	
5	0	0	0	0	554	457	0	507	0	0	
6	0	0	0	0	553	475	0	513	0	0	
7	0	0	0	0	551	494	0	515	0	0	
8	0	0	0	0	548	512	0	513	0	0	
9	0	0	0	0	545	528	0	507	0	0	
10	0	0	0	0	543	539	0	497	0	0	
11	0	0	0	0	540	545	0	485	0	0	
12	0	0	0	0	537	545	0	471	0	0	
13	0	0	0	0	537	539	0	457	0	0	
14	0	0	0	0	537	527	0	444	0	0	
15	0	0	0	0	537	512	0	434	0	0	
0	0	0	0	0	538	494	0	428	0	0	
1	0	0	0	0	541	475	0	425	0	0	
2	0	0	0	0	543	457	0	428	0	0	
3	0	0	0	0	546	442	0	435	0	0	
4	0	0	0	0	548	431	0	445	0	0	
5	0	0	0	0	551	425	0	457	0	0	
6	0	0	0	0	552	426	0	472	0	0	
7	0	0	0	0	553	432	0	486	0	0	
8	0	0	0	0	553	444	0	499	0	0	
9	0	0	0	0	553	460	0	509	0	0	
10	0	0	0	0	552	478	0	515	0	0	
11	0	0	0	0	550	498	0	518	0	0	
12	0	0	0	0	547	516	0	516	0	0	
13	0	0	0	0	544	532	0	510	0	0	
14	0	0	0	0	542	543	0	500	0	0	
15	0	0	0	0	539	550	0	487	0	0	
0	0	0	0	0	538	550	0	474	0	0	
1	0	0	0	0	537	543	0	460	0	0	
2	0	0	0	0	536	532	0	448	0	0	
3	0	0	0	0	536	515	0	438	0	0	
4	0	0	0	0	538	497	0	432	0	0	
5	0	0	0	0	540	477	0	429	0	0	
6	0	0	0	0	543	459	0	432	0	0	
7	0	0	0	0	545	442	0	438	0	0	
8	0	0	0	0	548	430	0	448	0	0	
9	0	0	0	0	550	423	0	460	0	0	
10	0	0	0	0	551	423	0	473	0	0	
11	0	0	0	0	554	429	0	487	0	0	
12	0	0	0	0	553	440	0	499	0	0	
13	0	0	0	0	554	455	0	509	0	0	
14	0	0	0	0	552	473	0	515	0	0	
15	0	0	0	0	551	493	0	517	0	0	
0	0	0	0	0	549	512	0	515	0	0	
1	0	0	0	0	546	529	0	508	0	0	
2	0	0	0	0	543	541	0	498	0	0	
3	0	0	0	0	541	547	0	486	0	0	
4	0	0	0	0	540	550	0	472	0	0	
5	0	0	0	0	540	544	0	459	0	0	
6	0	0	0	0	540	534	0	448	0	0	
7	0	0	0	0	542	519	0	438	0	0	
8	0	0	0	0	543	502	0	432	0	0	
9	0	0	0	0	545	483	0	430	0	0	
10	0	0	0	0	549	466	0	433	0	0	
11	0	0	0	0	552	451	0	440	0	0	
12	0	0	0	0	555	439	0	450	0	0	
13	0	0	0	0	557	432	0	463	0	0	
14	0	0	0	0	557	432	0	477	0	0	
15	0	0	0	0	558	437	0	491	0	0	
0	0	0	0	0	558	447	0	504	0	0	
1	0	0	0	0	556	462	0	513	0	0	
2	0	0	0	0	554	479	0	520	0	0	
3	0	0	0	0	550	497	0	521	0	0	
4	0	0	0	0	547	515	0	519	0	0	
5	0	0	0	0	542	529	0	512	0	0	
6	0	0	0	0	539	540	0	502	0	0	
7	0	0	0	0	536	546	0	489	0	0	
8	0	0	0	0	534	546	0	474	0	0	
9	0	0	0	0	533	540	0	460	0	0	
10	0	0	0	0	532	529	0	448	0	0	
11	0	0	0	0	534	514	0	438	0	0	
12	0	0	0	0	536	497	0	431	0	0	
13	0	0	0	0	538	478	0	428	0	0	
14	0	0	0	0	542	461	0	431	0	0	
15	0	0	0	0	545	446	0	438	0	0	
0	0	0	0	0	549	436	0	449	0	0	
1	0	0	0	0	551	431	0	463	0	0	
2	0	0	0	0	554	431	0	477	0	0	
3	0	0	0	0	555	438	0	491	0	0	
4	0	0	0	0	556	449	0	504	0	0	
5	0	0	0	0	556	465	0	515	0	0	
6	0	0	0	0	554	483	0	521	0	0	
7	0	0	0	0	553	502	0	524	0	0	
8	0	0	0	0	550	520	0	521	0	0	
9	0	0	0	0	548	536	0	514	0	0	
10	0	0	0	0	545	547	0	504	0	0	
11	0	0	0	0	543	552	0	491	0	0	
12	0	0	0	0	542	552	0	476	0	0	
13	0	0	0	0	541	546	0	461	0	0	
14	0	0	0	0	540	535	0	448	0	0	
15	0	0	0	0	541	519	0	438	0	0	
0	0	0	0	0	542	501	0	431	0	0	
1	0	0	0	0	543	482	0	428	0	0	
2	0	0	0	0	546	464	0	430	0	0	
3	0	0	0	0	548	449	0	437	0	0	
4	0	0	0	0	551	438	0	447	0	0	
5	0	0	0	0	552	432	0	460	0	0	
6	0	0	0	0	554	433	0	474	0	0	
7	0	0	0	0	554	439	0	488	0	0	
8	0	0	0	0	553	449	0	501	0	0	
9	0	0	0	0	553	464	0	512	0	0	
10	0	0	0	0	550	482	0	518	0	0	
11	0	0	0	0	548	500	0	520	0	0	
12	0	0	0	0	545	518	0	518	0	0	
13	0	0	0	0	541	533	0	510	0	0	
14	0	0	0	0	537	543	0	499	0	0	
15	0	0	0	0	535	548	0	485	0	0	
0	0	0	0	0	532	547	0	470	0	0	
1	0	0	0	0	530	540	0	455	0	0	
2	0	0	0	0	529	528	0	442	0	0	
3	0	0	0	0	529	512	0	431	0	0	
4	0	0	0	0	530	494	0	424	0	0	
5	0	0	0	0	532	474	0	422	0	0	
6	0	0	0	0	535	455	0	423	0	0	
7	0	0	0	0	538	440	0	430	0	0	
8	0	0	0	0	541	428	0	440	0	0	
9	0	0	0	0	543	422	0	453	0	0	
10	0	0	0	0	545	422	0	467	0	0	
11	0	0	0	0	547	428	0	480	0	0	
12	0	0	0	0	547	439	0	493	0	0	
13	0	0	0	0	547	454	0	503	0	0	
14	0	0	0	0	545	472	0	509	0	0	
15	0	0	0	0	543	491	0	511	0	0	
0	0	0	0	0	540	509	0	508	0	0	
1	0	0	0	0	537	524	0	502	0	0	
2	0	0	0	0	534	536	0	492	0	0	
3	0	0	0	0	531	541	0	479	0	0	
4	0	0	0	0	530	541	0	465	0	0	
5	0	0	0	0	529	536	0	452	0	0	
6	0	0	0	0	529	524	0	439	0	0	
7	0	0	0	0	530	508	0	430	0	0	
8	0	0	0	0	531	489	0	424	0	0	
9	0	0	0	0	534	470	0	422	0	0	
10	0	0	0	0	537	452	0	424	0	0	
11	0	0	0	0	539	436	0	431	0	0	
12	0	0	0	0	542	424	0	441	0	0	
13	0	0	0	0	543	418	0	454	0	0	
14	0	0	0	0	544	417	0	467	0	0	
15	0	0	0	0	545	423	0	481	0	0	
0	0	0	0	0	544	434	0	492	0	0	
1	0	0	0	0	542	448	0	500	0	0	
2	0	0	0	0	540	466	0	507	0	0	
3	0	0	0	0	536	485	0	508	0	0	
4	0	0	0	0	534	503	0	505	0	0	
5	0	0	0	0	529	518	0	498	0	0	
6	0	0	0	0	526	529	0	487	0	0	
7	0	0	0	0	524	534	0	474	0	0	
8	0	0	0	0	522	534	0	460	0	0	
9	0	0	0	0	521	527	0	447	0	0	
10	0	0	0	0	521	516	0	435	0	0	
11	0	0	0	0	522	500	0	425	0	0	
12	0	0	0	0	523	482	0	419	0	0	
13	0	0	0	0	526	463	0	417	0	0	
14	0	0	0	0	528	445	0	420	0	0	
15	0	0	0	0	531	429	0	427	0	0	
0	0	0	0	0	534	419	0	437	0	0	
1	0	0	0	0	536	412	0	449	0	0	
2	0	0	0	0	537	413	0	463	0	0	
3	0	0	0	0	538	419	0	476	0	0	
4	0	0	0	0	537	431	0	488	0	0	
5	0	0	0	0	536	446	0	497	0	0	
6	0	0	0	0	534	464	0	504	0	0	
7	0	0	0	0	531	483	0	506	0	0	
8	0	0	0	0	528	502	0	504	0	0	
9	0	0	0	0	525	517	0	497	0	0	
10	0	0	0	0	522	528	0	487	0	0	
11	0	0	0	0	520	534	0	474	0	0	
12	0	0	0	0	519	534	0	460	0	0	
13	0	0	0	0	519	527	0	447	0	0	
14	0	0	0	0	520	515	0	435	0	0	
15	0	0	0	0	522	500	0	426	0	0	
0	0	0	0	0	524	482	0	420	0	0	
1	0	0	0	0	528	463	0	418	0	0	
2	0	0	0	0	531	445	0	421	0	0	
3	0	0	0	0	535	429	0	428	0	0	
4	0	0	0	0	537	418	0	438	0	0	
5	0	0	0	0	540	412	0	451	0	0	
6	0	0	0	0	542	412	0	464	0	0	
7	0	0	0	0	542	418	0	478	0	0	
8	0	0	0	0	541	429	0	491	0	0	
9	0	0	0	0	539	444	0	500	0	0	
10	0	0	0	0	537	462	0	506	0	0	
11	0	0	0	0	532	481	0	507	0	0	
12	0	0	0	0	529	499	0	504	0	0	
13	0	0	0	0	525	515	0	497	0	0	
14	0	0	0	0	522	527	0	486	0	0	
15	0	0	0	0	519	532	0	473	0	0	
0	0	0	0	0	518	532	0	459	0	0	
1	0	0	0	0	518	527	0	445	0	0	
2	0	0	0	0	518	515	0	433	0	0	
3	0	0	0	0	519	500	0	423	0	0	
4	0	0	0	0	521	481	0	417	0	0	
5	0	0	0	0	524	462	0	415	0	0	
6	0	0	0	0	527	443	0	417	0	0	
7	0	0	0	0	531	427	0	424	0	0	
8	0	0	0	0	533	415	0	434	0	0	
9	0	0	0	0	535	409	0	447	0	0	
10	0	0	0	0	536	409	0	461	0	0	
11	0	0	0	0	537	415	0	475	0	0	
12	0	0	0	0	536	426	0	487	0	0	
13	0	0	0	0	535	441	0	497	0	0	
14	0	0	0	0	532	460	0	504	0	0	
15	0	0	0	0	529	479	0	505	0	0	
0	0	0	0	0	527	497	0	503	0	0	
1	0	0	0	0	524	512	0	496	0	0	
2	0	0	0	0	521	523	0	486	0	0	
3	0	0	0	0	518	528	0	472	0	0	
4	0	0	0	0	517	528	0	458	0	0	
5	0	0	0	0	517	521	0	444	0	0	
6	0	0	0	0	517	510	0	432	0	0	
7	0	0	0	0	518	494	0	422	0	0	
8	0	0	0	0	519	475	0	415	0	0	
9	0	0	0	0	521	456	0	413	0	0	
10	0	0	0	0	524	438	0	415	0	0	
11	0	0	0	0	527	422	0	423	0	0	
12	0	0	0	0	530	411	0	432	0	0	
13	0	0	0	0	531	405	0	446	0	0	
14	0	0	0	0	533	406	0	460	0	0	
15	0	0	0	0	534	411	0	474	0	0	
0	0	0	0	0	535	423	0	487	0	0	
1	0	0	0	0	535	439	0	497	0	0	
2	0	0	0	0	534	458	0	504	0	0	
3	0	0	0	0	532	478	0	505	0	0	
4	0	0	0	0	530	496	0	504	0	0	
5	0	0	0	0	527	512	0	497	0	0	
6	0	0	0	0	526	524	0	487	0	0	
7	0	0	0	0	523	530	0	475	0	0	
8	0	0	0	0	522	530	0	461	0	0	
9	0	0	0	0	521	524	0	448	0	0	
10	0	0	0	0	521	513	0	435	0	0	
11	0	0	0	0	521	497	0	426	0	0	
12	0	0	0	0	522	480	0	419	0	0	
13	0	0	0	0	524	461	0	417	0	0	
14	0	0	0	0	526	444	0	420	0	0	
15	0	0	0	0	528	430	0	427	0	0	
0	0	0	0	0	531	419	0	436	0	0	
1	0	0	0	0	533	415	0	449	0	0	
2	0	0	0	0	534	416	0	463	0	0	
3	0	0	0	0	536	423	0	477	0	0	
4	0	0	0	0	536	435	0	490	0	0	
5	0	0	0	0	536	451	0	499	0	0	
6	0	0	0	0	535	469	0	506	0	0	
7	0	0	0	0	535	489	0	508	0	0	
8	0	0	0	0	532	507	0	506	0	0	
9	0	0	0	0	530	522	0	499	0	0	
10	0	0	0	0	527	532	0	489	0	0	
11	0	0	0	0	526	538	0	476	0	0	
12	0	0	0	0	524	537	0	463	0	0	
13	0	0	0	0	524	531	0	449	0	0	
14	0	0	0	0	524	519	0	436	0	0	
15	0	0	0	0	524	503	0	427	0	0	
0	0	0	0	0	526	484	0	421	0	0	
1	0	0	0	0	528	465	0	419	0	0	
2	0	0	0	0	531	448	0	422	0	0	
3	0	0	0	0	534	433	0	429	0	0	
4	0	0	0	0	536	422	0	440	0	0	
5	0	0	0	0	538	417	0	453	0	0	
6	0	0	0	0	539	418	0	467	0	0	
7	0	0	0	0	540	424	0	481	0	0	
8	0	0	0	0	540	437	0	494	0	0	
9	0	0	0	0	539	453	0	504	0	0	
10	0	0	0	0	537	471	0	510	0	0	
11	0	0	0	0	535	491	0	511	0	0	
12	0	0	0	0	532	509	0	508	0	0	
13	0	0	0	0	529	524	0	501	0	0	
14	0	0	0	0	526	535	0	491	0	0	
15	0	0	0	0	524	540	0	477	0	0	
0	0	0	0	0	523	539	0	463	0	0	
1	0	0	0	0	522	532	0	449	0	0	
2	0	0	0	0	522	520	0	436	0	0	
3	0	0	0	0	523	504	0	427	0	0	
4	0	0	0	0	525	486	0	421	0	0	
5	0	0	0	0	528	466	0	419	0	0	
6	0	0	0	0	531	448	0	421	0	0	
7	0	0	0	0	535	433	0	428	0	0	
8	0	0	0	0	538	423	0	439	0	0	
9	0	0	0	0	540	417	0	452	0	0	
10	0	0	0	0	543	419	0	466	0	0	
11	0	0	0	0	544	425	0	480	0	0	
12	0	0	0	0	544	437	0	492	0	0	
13	0	0	0	0	543	453	0	502	0	0	
14	0	0	0	0	542	471	0	508	0	0	
15	0	0	0	0	540	490	0	510	0	0	
0	0	0	0	0	536	508	0	508	0	0	
1	0	0	0	0	533	523	0	501	0	0	
2	0	0	0	0	529	534	0	490	0	0	
3	0	0	0	0	526	539	0	477	0	0	
4	0	0	0	0	525	538	0	462	0	0	
5	0	0	0	0	524	531	0	448	0	0	
6	0	0	0	0	523	519	0	435	0	0	
7	0	0	0	0	524	504	0	425	0	0	
8	0	0	0	0	525	485	0	419	0	0	
9	0	0	0	0	527	466	0	417	0	0	
10	0	0	0	0	530	448	0	419	0	0	
11	0	0	0	0	533	433	0	426	0	0	
12	0	0	0	0	536	422	0	437	0	0	
13	0	0	0	0	538	416	0	450	0	0	
14	0	0	0	0	540	416	0	463	0	0	
15	0	0	0	0	541	422	0	477	0	0	
0	0	0	0	0	541	433	0	489	0	0	
1	0	0	0	0	540	448	0	499	0	0	
2	0	0	0	0	539	465	0	505	0	0	
3	0	0	0	0	537	483	0	506	0	0	
4	0	0	0	0	535	500	0	503	0	0	
5	0	0	0	0	532	515	0	496	0	0	
6	0	0	0	0	529	526	0	484	0	0	
7	0	0	0	0	527	531	0	472	0	0	
8	0	0	0	0	526	531	0	457	0	0	
9	0	0	0	0	526	524	0	443	0	0	
10	0	0	0	0	525	513	0	430	0	0	
11	0	0	0	0	526	498	0	421	0	0	
12	0	0	0	0	527	480	0	415	0	0	
13	0	0	0	0	529	461	0	413	0	0	
14	0	0	0	0	531	444	0	415	0	0	
15	0	0	0	0	532	429	0	422	0	0	
0	0	0	0	0	534	419	0	432	0	0	
1	0	0	0	0	535	413	0	446	0	0	
2	0	0	0	0	536	414	0	459	0	0	
3	0	0	0	0	536	420	0	473	0	0	
4	0	0	0	0	536	432	0	485	0	0	
5	0	0	0	0	536	448	0	495	0	0	
6	0	0	0	0	534	466	0	500	0	0	
7	0	0	0	0	532	485	0	502	0	0	
8	0	0	0	0	530	502	0	500	0	0	
9	0	0	0	0	527	517	0	493	0	0	
10	0	0	0	0	526	527	0	483	0	0	
11	0	0	0	0	524	532	0	471	0	0	
12	0	0	0	0	524	531	0	457	0	0	
13	0	0	0	0	524	524	0	444	0	0	
14	0	0	0	0	524	512	0	433	0	0	
15	0	0	0	0	526	496	0	424	0	0	
0	0	0	0	0	527	478	0	419	0	0	
1	0	0	0	0	529	459	0	417	0	0	
2	0	0	0	0	533	441	0	419	0	0	
3	0	0	0	0	537	427	0	427	0	0	
4	0	0	0	0	539	416	0	437	0	0	
5	0	0	0	0	542	411	0	450	0	0	
6	0	0	0	0	543	412	0	463	0	0	
7	0	0	0	0	545	419	0	477	0	0	
8	0	0	0	0	545	431	0	489	0	0	
9	0	0	0	0	545	446	0	498	0	0	
10	0	0	0	0	543	465	0	505	0	0	
11	0	0	0	0	540	484	0	507	0	0	
12	0	0	0	0	538	502	0	504	0	0	
13	0	0	0	0	535	518	0	498	0	0	
14	0	0	0	0	532	529	0	488	0	0	
15	0	0	0	0	529	535	0	476	0	0	
0	0	0	0	0	528	535	0	463	0	0	
1	0	0	0	0	527	528	0	449	0	0	
2	0	0	0	0	527	517	0	438	0	0	
3	0	0	0	0	528	502	0	429	0	0	
4	0	0	0	0	530	483	0	423	0	0	
5	0	0	0	0	532	465	0	421	0	0	
6	0	0	0	0	535	446	0	424	0	0	
7	0	0	0	0	539	432	0	431	0	0	
8	0	0	0	0	542	420	0	441	0	0	
9	0	0	0	0	543	415	0	454	0	0	
10	0	0	0	0	546	415	0	467	0	0	
11	0	0	0	0	547	422	0	480	0	0	
12	0	0	0	0	547	433	0	492	0	0	
13	0	0	0	0	547	449	0	501	0	0	
14	0	0	0	0	545	467	0	507	0	0	
15	0	0	0	0	544	487	0	508	0	0	
0	0	0	0	0	541	505	0	505	0	0	
1	0	0	0	0	539	520	0	498	0	0	
2	0	0	0	0	536	531	0	488	0	0	
3	0	0	0	0	534	536	0	476	0	0	
4	0	0	0	0	532	536	0	462	0	0	
5	0	0	0	0	532	529	0	449	0	0	
6	0	0	0	0	531	517	0	437	0	0	
7	0	0	0	0	532	502	0	428	0	0	
8	0	0	0	0	532	483	0	422	0	0	
9	0	0	0	0	533	463	0	419	0	0	
10	0	0	0	0	536	444	0	422	0	0	
11	0	0	0	0	537	429	0	428	0	0	
12	0	0	0	0	539	417	0	438	0	0	
13	0	0	0	0	540	411	0	449	0	0	
14	0	0	0	0	540	411	0	463	0	0	
15	0	0	0	0	540	417	0	476	0	0	
0	0	0	0	0	540	429	0	488	0	0	
1	0	0	0	0	539	445	0	497	0	0	
2	0	0	0	0	537	464	0	504	0	0	
3	0	0	0	0	535	484	0	506	0	0	
4	0	0	0	0	534	503	0	504	0	0	
5	0	0	0	0	532	519	0	497	0	0	
6	0	0	0	0	531	531	0	487	0	0	
7	0	0	0	0	529	537	0	475	0	0	
8	0	0	0	0	530	537	0	462	0	0	
9	0	0	0	0	531	532	0	448	0	0	
10	0	0	0	0	532	521	0	437	0	0	
11	0	0	0	0	534	507	0	428	0	0	
12	0	0	0	0	536	490	0	423	0	0	
13	0	0	0	0	540	472	0	422	0	0	
14	0	0	0	0	544	455	0	426	0	0	
15	0	0	0	0	547	441	0	434	0	0	
0	0	0	0	0	551	431	0	446	0	0	
1	0	0	0	0	555	426	0	460	0	0	
2	0	0	0	0	556	427	0	474	0	0	
3	0	0	0	0	558	433	0	488	0	0	
4	0	0	0	0	556	443	0	500	0	0	
5	0	0	0	0	554	457	0	507	0	0	
6	0	0	0	0	550	472	0	512	0	0	
7	0	0	0	0	544	487	0	509	0	0	
8	0	0	0	0	537	501	0	502	0	0	
9	0	0	0	0	529	511	0	488	0	0	
10	0	0	0	0	519	515	0	471	0	0	
11	0	0	0	0	509	513	0	450	0	0	
12	0	0	0	0	499	504	0	427	0	0	
13	0	0	0	0	488	488	0	403	0	0	
14	0	0	0	0	477	466	0	380	0	0	
15	0	0	0	0	466	440	0	360	0	0	
0	0	0	0	0	455	410	0	342	0	0	
1	0	0	0	0	445	380	0	329	0	0	
2	0	0	0	0	436	350	0	320	0	0	
3	0	0	0	0	426	323	0	315	0	0	
4	0	0	0	0	417	301	0	315	0	0	
5	0	0	0	0	407	283	0	316	0	0	
6	0	0	0	0	397	271	0	319	0	0	
7	0	0	0	0	385	265	0	321	0	0	
8	0	0	0	0	374	263	0	323	0	0	
9	0	0	0	0	360	266	0	321	0	0	
10	0	0	0	0	345	272	0	316	0	0	
11	0	0	0	0	331	279	0	306	0	0	
12	0	0	0	0	316	285	0	293	0	0	
13	0	0	0	0	302	291	0	276	0	0	
14	0	0	0	0	289	293	0	256	0	0	
15	0	0	0	0	280	292	0	236	0	0	
0	0	0	0	0	273	287	0	217	0	0	
1	0	0	0	0	271	280	0	201	0	0	
2	0	0	0	0	273	270	0	190	0	0	
3	0	0	0	0	281	260	0	185	0	0	
4	0	0	0	0	294	249	0	187	0	0	
5	0	0	0	0	312	243	0	198	0	0	
6	0	0	0	0	334	240	0	217	0	0	
7	0	0	0	0	359	242	0	244	0	0	
8	0	0	0	0	387	252	0	278	0	0	
9	0	0	0	0	416	268	0	316	0	0	
10	0	0	0	0	447	292	0	356	0	0	
11	0	0	0	0	475	323	0	397	0	0	
12	0	0	0	0	502	359	0	436	0	0	
13	0	0	0	0	526	399	0	472	0	0	
14	0	0	0	0	546	440	0	500	0	0	
15	0	0	0	0	563	480	0	521	0	0	
0	0	0	0	0	575	517	0	534	0	0	
1	0	0	0	0	583	547	0	539	0	0	
2	0	0	0	0	586	570	0	536	0	0	
3	0	0	0	0	586	583	0	526	0	0	
4	0	0	0	0	584	587	0	512	0	0	
5	0	0	0	0	580	582	0	496	0	0	
6	0	0	0	0	574	568	0	480	0	0	
7	0	0	0	0	568	548	0	464	0	0	
8	0	0	0	0	561	524	0	451	0	0	
9	0	0	0	0	556	497	0	443	0	0	
10	0	0	0	0	551	472	0	439	0	0	
11	0	0	0	0	547	450	0	440	0	0	
12	0	0	0	0	545	433	0	446	0	0	
13	0	0	0	0	544	423	0	455	0	0	
14	0	0	0	0	544	419	0	467	0	0	
15	0	0	0	0	545	424	0	479	0	0	
0	0	0	0	0	547	435	0	492	0	0	
1	0	0	0	0	548	451	0	503	0	0	
2	0	0	0	0	550	470	0	511	0	0	
3	0	0	0	0	551	491	0	515	0	0	
4	0	0	0	0	553	511	0	515	0	0	
5	0	0	0	0	553	529	0	512	0	0	
6	0	0	0	0	553	543	0	504	0	0	
7	0	0	0	0	555	551	0	494	0	0	
8	0	0	0	0	555	552	0	483	0	0	
9	0	0	0	0	556	548	0	471	0	0	
10	0	0	0	0	557	538	0	460	0	0	
11	0	0	0	0	558	523	0	452	0	0	
12	0	0	0	0	560	506	0	447	0	0	
13	0	0	0	0	561	487	0	445	0	0	
14	0	0	0	0	563	470	0	447	0	0	
15	0	0	0	0	566	455	0	454	0	0	
0	0	0	0	0	567	444	0	463	0	0	
1	0	0	0	0	568	439	0	476	0	0	
2	0	0	0	0	568	440	0	488	0	0	
3	0	0	0	0	570	446	0	502	0	0	
4	0	0	0	0	569	457	0	513	0	0	
5	0	0	0	0	568	472	0	522	0	0	
6	0	0	0	0	566	490	0	527	0	0	
7	0	0	0	0	564	509	0	527	0	0	
8	0	0	0	0	561	527	0	524	0	0	
9	0	0	0	0	558	541	0	516	0	0	
10	0	0	0	0	555	551	0	505	0	0	
11	0	0	0	0	552	556	0	492	0	0	
12	0	0	0	0	551	555	0	477	0	0	
13	0	0	0	0	551	548	0	464	0	0	
14	0	0	0	0	551	536	0	452	0	0	
15	0	0	0	0	552	521	0	443	0	0	
0	0	0	0	0	555	503	0	438	0	0	
1	0	0	0	0	557	484	0	437	0	0	
2	0	0	0	0	561	467	0	441	0	0	
3	0	0	0	0	565	454	0	449	0	0	
4	0	0	0	0	568	444	0	459	0	0	
5	0	0	0	0	571	440	0	473	0	0	
6	0	0	0	0	574	441	0	487	0	0	
7	0	0	0	0	574	449	0	501	0	0	
8	0	0	0	0	574	461	0	513	0	0	
9	0	0	0	0	572	478	0	523	0	0	
10	0	0	0	0	569	496	0	528	0	0	
11	0	0	0	0	566	514	0	529	0	0	
12	0	0	0	0	562	531	0	525	0	0	
13	0	0	0	0	558	545	0	517	0	0	
14	0	0	0	0	554	555	0	505	0	0	
15	0	0	0	0	551	559	0	492	0	0	
0	0	0	0	0	548	556	0	477	0	0	
1	0	0	0	0	547	548	0	463	0	0	
2	0	0	0	0	547	535	0	450	0	0	
3	0	0	0	0	547	518	0	440	0	0	
4	0	0	0	0	549	499	0	434	0	0	
5	0	0	0	0	550	479	0	432	0	0	
6	0	0	0	0	553	461	0	434	0	0	
7	0	0	0	0	556	445	0	441	0	0	
8	0	0	0	0	558	434	0	451	0	0	
9	0	0	0	0	559	428	0	464	0	0	
10	0	0	0	0	561	429	0	478	0	0	
11	0	0	0	0	562	435	0	491	0	0	
12	0	0	0	0	561	446	0	503	0	0	
13	0	0	0	0	561	462	0	512	0	0	
14	0	0	0	0	559	480	0	518	0	0	
15	0	0	0	0	556	499	0	519	0	0	
0	0	0	0	0	554	517	0	516	0	0	
1	0	0	0	0	551	532	0	509	0	0	
2	0	0	0	0	547	542	0	497	0	0	
3	0	0	0	0	545	547	0	484	0	0	
4	0	0	0	0	544	546	0	470	0	0	
5	0	0	0	0	543	540	0	456	0	0	
6	0	0	0	0	543	527	0	444	0	0	
7	0	0	0	0	543	511	0	434	0	0	
8	0	0	0	0	544	493	0	428	0	0	
9	0	0	0	0	547	474	0	426	0	0	
10	0	0	0	0	550	456	0	429	0	0	
11	0	0	0	0	553	441	0	436	0	0	
12	0	0	0	0	556	431	0	447	0	0	
13	0	0	0	0	557	426	0	460	0	0	
14	0	0	0	0	559	428	0	474	0	0	
15	0	0	0	0	560	435	0	488	0	0	
0	0	0	0	0	560	447	0	501	0	0	
1	0	0	0	0	560	463	0	511	0	0	
2	0	0	0	0	558	481	0	517	0	0	
3	0	0	0	0	557	500	0	519	0	0	
4	0	0	0	0	556	519	0	516	0	0	
5	0	0	0	0	553	535	0	510	0	0	
6	0	0	0	0	552	545	0	500	0	0	
7	0	0	0	0	551	551	0	487	0	0	
8	0	0	0	0	551	551	0	475	0	0	
9	0	0	0	0	551	544	0	462	0	0	
10	0	0	0	0	551	533	0	450	0	0	
11	0	0	0	0	552	518	0	441	0	0	
12	0	0	0	0	553	499	0	435	0	0	
13	0	0	0	0	556	480	0	432	0	0	
14	0	0	0	0	558	461	0	435	0	0	
15	0	0	0	0	559	445	0	441	0	0	
0	0	0	0	0	560	434	0	450	0	0	
1	0	0	0	0	560	427	0	462	0	0	
2	0	0	0	0	560	427	0	474	0	0	
3	0	0	0	0	559	432	0	486	0	0	
4	0	0	0	0	557	443	0	497	0	0	
5	0	0	0	0	555	457	0	505	0	0	
6	0	0	0	0	551	474	0	510	0	0	
7	0	0	0	0	548	493	0	510	0	0	
8	0	0	0	0	544	510	0	507	0	0	
9	0	0	0	0	541	525	0	500	0	0	
10	0	0	0	0	538	536	0	489	0	0	
11	0	0	0	0	536	541	0	476	0	0	
12	0	0	0	0	534	540	0	463	0	0	
13	0	0	0	0	535	534	0	451	0	0	
14	0	0	0	0	536	523	0	440	0	0	
15	0	0	0	0	537	507	0	430	0	0	
0	0	0	0	0	540	489	0	425	0	0	
1	0	0	0	0	542	471	0	424	0	0	
2	0	0	0	0	546	453	0	428	0	0	
3	0	0	0	0	550	438	0	435	0	0	
4	0	0	0	0	552	427	0	445	0	0	
5	0	0	0	0	554	422	0	458	0	0	
6	0	0	0	0	555	423	0	471	0	0	
7	0	0	0	0	556	429	0	484	0	0	
8	0	0	0	0	556	440	0	495	0	0	
9	0	0	0	0	555	455	0	504	0	0	
10	0	0	0	0	551	472	0	508	0	0	
11	0	0	0	0	548	491	0	508	0	0	
12	0	0	0	0	545	508	0	504	0	0	
13	0	0	0	0	541	522	0	496	0	0	
14	0	0	0	0	537	532	0	484	0	0	
15	0	0	0	0	534	536	0	471	0	0	
0	0	0	0	0	531	534	0	456	0	0	
1	0	0	0	0	531	527	0	443	0	0	
2	0	0	0	0	529	513	0	430	0	0	
3	0	0	0	0	530	497	0	421	0	0	
4	0	0	0	0	531	479	0	416	0	0	
5	0	0	0	0	531	459	0	414	0	0	
6	0	0	0	0	534	441	0	417	0	0	
7	0	0	0	0	536	426	0	424	0	0	
8	0	0	0	0	539	416	0	435	0	0	
9	0	0	0	0	541	411	0	448	0	0	
10	0	0	0	0	542	412	0	462	0	0	
11	0	0	0	0	543	419	0	475	0	0	
12	0	0	0	0	543	432	0	487	0	0	
13	0	0	0	0	543	448	0	496	0	0	
14	0	0	0	0	542	466	0	500	0	0	
15	0	0	0	0	540	484	0	501	0	0	
0	0	0	0	0	537	502	0	498	0	0	
1	0	0	0	0	534	516	0	490	0	0	
2	0	0	0	0	531	527	0	479	0	0	
3	0	0	0	0	529	531	0	466	0	0	
4	0	0	0	0	527	529	0	452	0	0	
5	0	0	0	0	526	523	0	438	0	0	
6	0	0	0	0	526	510	0	427	0	0	
7	0	0	0	0	526	495	0	418	0	0	
8	0	0	0	0	528	476	0	413	0	0	
9	0	0	0	0	529	458	0	412	0	0	
10	0	0	0	0	533	441	0	416	0	0	
11	0	0	0	0	536	427	0	425	0	0	
12	0	0	0	0	539	417	0	435	0	0	
13	0	0	0	0	541	412	0	450	0	0	
14	0	0	0	0	543	414	0	464	0	0	
15	0	0	0	0	544	421	0	478	0	0	
0	0	0	0	0	543	433	0	490	0	0	
1	0	0	0	0	543	449	0	499	0	0	
2	0	0	0	0	541	468	0	504	0	0	
3	0	0	0	0	539	487	0	505	0	0	
4	0	0	0	0	537	505	0	501	0	0	
5	0	0	0	0	534	520	0	494	0	0	
6	0	0	0	0	532	531	0	482	0	0	
7	0	0	0	0	531	536	0	471	0	0	
8	0	0	0	0	531	535	0	457	0	0	
9	0	0	0	0	531	529	0	444	0	0	
10	0	0	0	0	532	518	0	433	0	0	
11	0	0	0	0	534	502	0	424	0	0	
12	0	0	0	0	536	485	0	420	0	0	
13	0	0	0	0	539	467	0	419	0	0	
14	0	0	0	0	543	451	0	423	0	0	
15	0	0	0	0	546	437	0	432	0	0	
0	0	0	0	0	549	428	0	443	0	0	
1	0	0	0	0	551	423	0	457	0	0	
2	0	0	0	0	554	425	0	471	0	0	
3	0	0	0	0	555	432	0	484	0	0	
4	0	0	0	0	555	444	0	497	0	0	
5	0	0	0	0	553	460	0	506	0	0	
6	0	0	0	0	551	478	0	511	0	0	
7	0	0	0	0	549	496	0	512	0	0	
8	0	0	0	0	545	513	0	508	0	0	
9	0	0	0	0	542	527	0	500	0	0	
10	0	0	0	0	539	537	0	490	0	0	
11	0	0	0	0	536	542	0	476	0	0	
12	0	0	0	0	535	540	0	462	0	0	
13	0	0	0	0	534	534	0	449	0	0	
14	0	0	0	0	534	521	0	437	0	0	
15	0	0	0	0	534	506	0	428	0	0	
0	0	0	0	0	536	488	0	423	0	0	
1	0	0	0	0	537	470	0	421	0	0	
2	0	0	0	0	540	453	0	424	0	0	
3	0	0	0	0	542	439	0	431	0	0	
4	0	0	0	0	544	429	0	441	0	0	
5	0	0	0	0	546	425	0	454	0	0	
6	0	0	0	0	547	426	0	467	0	0	
7	0	0	0	0	547	433	0	480	0	0	
8	0	0	0	0	547	445	0	491	0	0	
9	0	0	0	0	547	460	0	499	0	0	
10	0	0	0	0	545	478	0	504	0	0	
11	0	0	0	0	543	496	0	504	0	0	
12	0	0	0	0	542	513	0	501	0	0	
13	0	0	0	0	540	527	0	493	0	0	
14	0	0	0	0	537	536	0	482	0	0	
15	0	0	0	0	536	540	0	470	0	0	
0	0	0	0	0	535	539	0	456	0	0	
1	0	0	0	0	535	531	0	443	0	0	
2	0	0	0	0	536	520	0	432	0	0	
3	0	0	0	0	536	504	0	423	0	0	
4	0	0	0	0	537	487	0	418	0	0	
5	0	0	0	0	539	469	0	417	0	0	
6	0	0	0	0	542	452	0	421	0	0	
7	0	0	0	0	544	439	0	428	0	0	
8	0	0	0	0	547	430	0	440	0	0	
9	0	0	0	0	549	425	0	453	0	0	
10	0	0	0	0	550	427	0	467	0	0	
11	0	0	0	0	551	434	0	480	0	0	
12	0	0	0	0	551	447	0	492	0	0	
13	0	0	0	0	550	462	0	500	0	0	
14	0	0	0	0	548	479	0	506	0	0	
15	0	0	0	0	546	497	0	507	0	0	
0	0	0	0	0	543	514	0	503	0	0	
1	0	0	0	0	541	528	0	496	0	0	
2	0	0	0	0	539	537	0	485	0	0	
3	0	0	0	0	537	541	0	472	0	0	
4	0	0	0	0	536	540	0	457	0	0	
5	0	0	0	0	536	532	0	444	0	0	
6	0	0	0	0	537	520	0	432	0	0	
7	0	0	0	0	538	505	0	423	0	0	
8	0	0	0	0	541	487	0	418	0	0	
9	0	0	0	0	543	469	0	417	0	0	
10	0	0	0	0	547	453	0	422	0	0	
11	0	0	0	0	551	440	0	430	0	0	
12	0	0	0	0	555	431	0	441	0	0	
13	0	0	0	0	558	428	0	456	0	0	
14	0	0	0	0	559	430	0	471	0	0	
15	0	0	0	0	561	438	0	485	0	0	
0	0	0	0	0	561	451	0	497	0	0	
1	0	0	0	0	561	468	0	507	0	0	
2	0	0	0	0	559	487	0	513	0	0	
3	0	0	0	0	558	507	0	514	0	0	
4	0	0	0	0	555	525	0	511	0	0	
5	0	0	0	0	552	540	0	504	0	0	
6	0	0	0	0	550	551	0	493	0	0	
7	0	0	0	0	547	555	0	480	0	0	
8	0	0	0	0	546	554	0	467	0	0	
9	0	0	0	0	546	547	0	454	0	0	
10	0	0	0	0	546	535	0	443	0	0	
11	0	0	0	0	547	518	0	433	0	0	
12	0	0	0	0	550	499	0	429	0	0	
13	0	0	0	0	552	480	0	428	0	0	
14	0	0	0	0	556	462	0	431	0	0	
15	0	0	0	0	560	448	0	439	0	0	
0	0	0	0	0	563	438	0	450	0	0	
1	0	0	0	0	565	433	0	463	0	0	
2	0	0	0	0	568	435	0	476	0	0	
3	0	0	0	0	568	443	0	490	0	0	
4	0	0	0	0	568	455	0	501	0	0	
5	0	0	0	0	567	472	0	510	0	0	
6	0	0	0	0	565	491	0	515	0	0	
7	0	0	0	0	563	510	0	516	0	0	
8	0	0	0	0	560	528	0	512	0	0	
9	0	0	0	0	556	543	0	504	0	0	
10	0	0	0	0	553	552	0	493	0	0	
11	0	0	0	0	550	557	0	480	0	0	
12	0	0	0	0	548	555	0	466	0	0	
13	0	0	0	0	547	548	0	452	0	0	
14	0	0	0	0	546	535	0	440	0	0	
15	0	0	0	0	547	519	0	432	0	0	
0	0	0	0	0	547	499	0	427	0	0	
1	0	0	0	0	549	480	0	425	0	0	
2	0	0	0	0	551	462	0	429	0	0	
3	0	0	0	0	554	446	0	437	0	0	
4	0	0	0	0	556	436	0	448	0	0	
5	0	0	0	0	558	431	0	460	0	0	
6	0	0	0	0	559	431	0	473	0	0	
7	0	0	0	0	560	438	0	487	0	0	
8	0	0	0	0	559	449	0	497	0	0	
9	0	0	0	0	558	465	0	505	0	0	
10	0	0	0	0	556	483	0	510	0	0	
11	0	0	0	0	554	502	0	510	0	0	
12	0	0	0	0	551	519	0	506	0	0	
13	0	0	0	0	548	534	0	498	0	0	
14	0	0	0	0	546	543	0	486	0	0	
15	0	0	0	0	543	547	0	474	0	0	
0	0	0	0	0	542	547	0	460	0	0	
1	0	0	0	0	542	540	0	447	0	0	
2	0	0	0	0	542	528	0	435	0	0	
3	0	0	0	0	543	513	0	428	0	0	
4	0	0	0	0	545	495	0	423	0	0	
5	0	0	0	0	548	477	0	422	0	0	
6	0	0	0	0	551	460	0	427	0	0	
7	0	0	0	0	554	445	0	435	0	0	
8	0	0	0	0	556	435	0	447	0	0	
9	0	0	0	0	558	430	0	461	0	0	
10	0	0	0	0	559	432	0	475	0	0	
11	0	0	0	0	559	438	0	488	0	0	
12	0	0	0	0	559	451	0	500	0	0	
13	0	0	0	0	557	466	0	508	0	0	
14	0	0	0	0	555	484	0	512	0	0	
15	0	0	0	0	552	503	0	512	0	0	
0	0	0	0	0	549	519	0	508	0	0	
1	0	0	0	0	545	534	0	499	0	0	
2	0	0	0	0	542	543	0	487	0	0	
3	0	0	0	0	540	546	0	474	0	0	
4	0	0	0	0	539	544	0	459	0	0	
5	0	0	0	0	538	536	0	445	0	0	
6	0	0	0	0	538	523	0	433	0	0	
7	0	0	0	0	540	507	0	425	0	0	
8	0	0	0	0	542	489	0	420	0	0	
9	0	0	0	0	545	470	0	420	0	0	
10	0	0	0	0	549	454	0	424	0	0	
11	0	0	0	0	552	440	0	433	0	0	
12	0	0	0	0	555	431	0	444	0	0	
13	0	0	0	0	558	428	0	458	0	0	
14	0	0	0	0	558	430	0	473	0	0	
15	0	0	0	0	559	438	0	486	0	0	
0	0	0	0	0	559	450	0	498	0	0	
1	0	0	0	0	557	466	0	507	0	0	
2	0	0	0	0	555	484	0	512	0	0	
3	0	0	0	0	551	502	0	512	0	0	
4	0	0	0	0	549	518	0	508	0	0	
5	0	0	0	0	545	531	0	499	0	0	
6	0	0	0	0	542	540	0	488	0	0	
7	0	0	0	0	539	543	0	474	0	0	
8	0	0	0	0	539	540	0	460	0	0	
9	0	0	0	0	538	532	0	446	0	0	
10	0	0	0	0	538	519	0	435	0	0	
11	0	0	0	0	539	502	0	425	0	0	
12	0	0	0	0	540	483	0	419	0	0	
13	0	0	0	0	543	465	0	419	0	0	
14	0	0	0	0	547	448	0	423	0	0	
15	0	0	0	0	550	434	0	431	0	0	
0	0	0	0	0	553	425	0	441	0	0	
1	0	0	0	0	556	421	0	456	0	0	
2	0	0	0	0	556	423	0	470	0	0	
3	0	0	0	0	558	431	0	484	0	0	
4	0	0	0	0	557	444	0	496	0	0	
5	0	0	0	0	557	461	0	506	0	0	
6	0	0	0	0	554	479	0	511	0	0	
7	0	0	0	0	552	499	0	512	0	0	
8	0	0	0	0	549	516	0	508	0	0	
9	0	0	0	0	545	531	0	500	0	0	
10	0	0	0	0	542	541	0	489	0	0	
11	0	0	0	0	539	544	0	476	0	0	
12	0	0	0	0	538	543	0	462	0	0	
13	0	0	0	0	537	535	0	448	0	0	
14	0	0	0	0	537	522	0	436	0	0	
15	0	0	0	0	537	505	0	427	0	0	
0	0	0	0	0	538	487	0	421	0	0	
1	0	0	0	0	541	468	0	420	0	0	
2	0	0	0	0	543	451	0	423	0	0	
3	0	0	0	0	546	437	0	430	0	0	
4	0	0	0	0	548	427	0	440	0	0	
5	0	0	0	0	551	423	0	453	0	0	
6	0	0	0	0	551	425	0	466	0	0	
7	0	0	0	0	552	433	0	479	0	0	
8	0	0	0	0	552	445	0	490	0	0	
9	0	0	0	0	551	462	0	499	0	0	
10	0	0	0	0	550	480	0	504	0	0	
11	0	0	0	0	547	499	0	504	0	0	
12	0	0	0	0	544	516	0	500	0	0	
13	0	0	0	0	541	530	0	492	0	0	
14	0	0	0	0	538	539	0	481	0	0	
15	0	0	0	0	536	541	0	469	0	0	
0	0	0	0	0	534	540	0	455	0	0	
1	0	0	0	0	534	531	0	441	0	0	
2	0	0	0	0	534	518	0	430	0	0	
3	0	0	0	0	536	501	0	422	0	0	
4	0	0	0	0	537	482	0	417	0	0	
5	0	0	0	0	540	463	0	416	0	0	
6	0	0	0	0	543	446	0	421	0	0	
7	0	0	0	0	547	432	0	429	0	0	
8	0	0	0	0	550	423	0	440	0	0	
9	0	0	0	0	552	420	0	454	0	0	
10	0	0	0	0	553	422	0	467	0	0	
11	0	0	0	0	555	431	0	480	0	0	
12	0	0	0	0	554	444	0	492	0	0	
13	0	0	0	0	553	462	0	500	0	0	
14	0	0	0	0	551	481	0	505	0	0	
15	0	0	0	0	549	500	0	506	0	0	
0	0	0	0	0	547	519	0	502	0	0	
1	0	0	0	0	544	532	0	494	0	0	
2	0	0	0	0	542	543	0	483	0	0	
3	0	0	0	0	540	547	0	470	0	0	
4	0	0	0	0	539	545	0	456	0	0	
5	0	0	0	0	539	537	0	443	0	0	
6	0	0	0	0	539	524	0	432	0	0	
7	0	0	0	0	541	508	0	424	0	0	
8	0	0	0	0	542	489	0	420	0	0	
9	0	0	0	0	545	470	0	420	0	0	
10	0	0	0	0	548	453	0	425	0	0	
11	0	0	0	0	551	438	0	433	0	0	
12	0	0	0	0	554	429	0	444	0	0	
13	0	0	0	0	557	425	0	459	0	0	
14	0	0	0	0	558	427	0	473	0	0	
15	0	0	0	0	559	434	0	486	0	0	
0	0	0	0	0	559	447	0	498	0	0	
1	0	0	0	0	558	463	0	507	0	0	
2	0	0	0	0	556	482	0	512	0	0	
3	0	0	0	0	553	502	0	512	0	0	
4	0	0	0	0	551	519	0	508	0	0	
5	0	0	0	0	547	533	0	500	0	0	
6	0	0	0	0	545	543	0	488	0	0	
7	0	0	0	0	542	547	0	475	0	0	
8	0	0	0	0	541	544	0	460	0	0	
9	0	0	0	0	540	536	0	447	0	0	
10	0	0	0	0	540	523	0	434	0	0	
11	0	0	0	0	539	505	0	425	0	0	
12	0	0	0	0	540	486	0	419	0	0	
13	0	0	0	0	542	465	0	417	0	0	
14	0	0	0	0	543	447	0	420	0	0	
15	0	0	0	0	545	432	0	427	0	0	
0	0	0	0	0	546	421	0	438	0	0	
1	0	0	0	0	547	416	0	451	0	0	
2	0	0	0	0	547	418	0	465	0	0	
3	0	0	0	0	548	425	0	479	0	0	
4	0	0	0	0	548	438	0	491	0	0	
5	0	0	0	0	547	455	0	500	0	0	
6	0	0	0	0	546	474	0	507	0	0	
7	0	0	0	0	545	494	0	508	0	0	
8	0	0	0	0	543	513	0	505	0	0	
9	0	0	0	0	541	527	0	498	0	0	
10	0	0	0	0	540	538	0	488	0	0	
11	0	0	0	0	538	542	0	475	0	0	
12	0	0	0	0	538	540	0	461	0	0	
13	0	0	0	0	537	532	0	447	0	0	
14	0	0	0	0	538	519	0	435	0	0	
15	0	0	0	0	539	503	0	426	0	0	
0	0	0	0	0	540	483	0	420	0	0	
1	0	0	0	0	542	464	0	418	0	0	
2	0	0	0	0	544	446	0	421	0	0	
3	0	0	0	0	547	431	0	428	0	0	
4	0	0	0	0	548	420	0	439	0	0	
5	0	0	0	0	549	415	0	451	0	0	
6	0	0	0	0	551	417	0	464	0	0	
7	0	0	0	0	551	424	0	476	0	0	
8	0	0	0	0	550	436	0	488	0	0	
9	0	0	0	0	549	452	0	497	0	0	
10	0	0	0	0	547	471	0	502	0	0	
11	0	0	0	0	545	489	0	502	0	0	
12	0	0	0	0	543	507	0	499	0	0	
13	0	0	0	0	540	521	0	491	0	0	
14	0	0	0	0	539	531	0	480	0	0	
15	0	0	0	0	537	535	0	468	0	0	
0	0	0	0	0	536	533	0	455	0	0	
1	0	0	0	0	536	526	0	443	0	0	
2	0	0	0	0	536	513	0	432	0	0	
3	0	0	0	0	537	497	0	424	0	0	
4	0	0	0	0	540	480	0	420	0	0	
5	0	0	0	0	541	462	0	420	0	0	
6	0	0	0	0	544	445	0	424	0	0	
7	0	0	0	0	547	431	0	433	0	0	
8	0	0	0	0	549	421	0	444	0	0	
9	0	0	0	0	550	417	0	457	0	0	
10	0	0	0	0	551	419	0	471	0	0	
11	0	0	0	0	553	426	0	483	0	0	
12	0	0	0	0	552	438	0	495	0	0	
13	0	0	0	0	551	455	0	503	0	0	
14	0	0	0	0	549	472	0	507	0	0	
15	0	0	0	0	546	491	0	506	0	0	
0	0	0	0	0	543	508	0	501	0	0	
1	0	0	0	0	540	522	0	492	0	0	
2	0	0	0	0	537	531	1	480	0	0	
3	0	0	0	0	535	534	0	467	0	0	
4	0	0	0	0	533	532	0	452	0	0	
5	0	0	0	0	533	524	0	439	0	0	
6	0	0	0	0	533	511	0	427	0	0	
7	0	0	0	0	534	495	0	419	0	0	
8	0	0	0	0	535	476	0	414	0	0	
9	0	0	0	0	537	458	0	414	0	0	
10	0	0	0	0	541	441	0	419	0	0	
11	0	0	0	0	544	428	0	428	0	0	
12	0	0	0	0	547	419	0	440	0	0	
13	0	0	0	0	549	416	0	453	0	0	
14	0	0	0	0	550	418	0	468	0	0	
15	0	0	0	0	552	426	0	483	0	0	
0	0	0	0	0	551	439	0	495	0	0	
1	0	0	0	0	551	456	0	504	0	0	
2	0	0	0	0	550	475	0	509	0	0	
3	0	0	0	0	548	494	0	509	0	0	
4	0	0	0	0	545	512	0	504	0	0	
5	0	0	0	0	543	526	0	496	0	0	
6	0	0	0	0	541	535	0	484	0	0	
7	0	0	0	0	539	539	0	471	0	0	
8	0	0	0	0	537	536	0	456	0	0	
9	0	0	0	0	536	528	0	443	0	0	
10	0	0	0	0	536	516	0	431	0	0	
11	0	0	0	0	537	499	0	423	0	0	
12	0	0	0	0	538	481	0	417	0	0	
13	0	0	0	0	539	462	0	417	0	0	
14	0	0	0	0	542	445	0	421	0	0	
15	0	0	0	0	544	431	0	429	0	0	
0	0	0	0	0	547	422	0	441	0	0	
1	0	0	0	0	548	418	0	454	0	0	
2	0	0	0	0	548	420	0	467	0	0	
3	0	0	0	0	549	428	0	480	0	0	
4	0	0	0	0	549	440	0	492	0	0	
5	0	0	0	0	547	456	0	499	0	0	
6	0	0	0	0	545	474	0	504	0	0	
7	0	0	0	0	542	492	0	502	0	0	
8	0	0	0	0	539	508	0	497	0	0	
9	0	0	0	0	536	521	0	488	0	0	
10	0	0	0	0	532	529	0	475	0	0	
11	0	0	0	0	529	531	0	460	0	0	
12	0	0	0	0	528	529	0	446	0	0	
13	0	0	0	0	528	520	0	432	0	0	
14	0	0	0	0	528	507	0	419	0	0	
15	0	0	0	0	529	489	0	411	0	0	
0	0	0	0	0	531	470	0	406	0	0	
1	0	0	0	0	534	451	0	406	0	0	
2	0	0	0	0	536	434	0	410	0	0	
3	0	0	0	0	539	420	0	418	0	0	
4	0	0	0	0	542	411	0	430	0	0	
5	0	0	0	0	543	407	0	444	0	0	
6	0	0	0	0	544	409	0	457	0	0	
7	0	0	0	0	545	417	0	471	0	0	
8	0	0	0	0	544	430	0	483	0	0	
9	0	0	0	0	543	447	0	491	0	0	
10	0	0	0	0	540	465	0	495	0	0	
11	0	0	0	0	537	483	0	495	0	0	
12	0	0	0	0	534	500	0	490	0	0	
13	0	0	0	0	531	513	0	481	0	0	
14	0	0	0	0	528	522	0	468	0	0	
15	0	0	0	0	526	525	0	455	0	0	
0	0	0	0	0	525	523	0	440	0	0	
1	0	0	0	0	525	514	0	425	0	0	
2	0	0	0	0	526	502	0	414	0	0	
3	0	0	0	0	528	486	0	406	0	0	
4	0	0	0	0	530	467	0	401	0	0	
5	0	0	0	0	534	450	0	401	0	0	
6	0	0	0	0	538	434	0	406	0	0	
7	0	0	0	0	542	421	0	416	0	0	
8	0	0	0	0	545	413	0	428	0	0	
9	0	0	0	0	547	410	0	443	0	0	
10	0	0	0	0	550	414	0	458	0	0	
11	0	0	0	0	551	423	0	472	0	0	
12	0	0	0	0	550	438	0	485	0	0	
13	0	0	0	0	549	455	0	494	0	0	
14	0	0	0	0	547	475	0	499	0	0	
15	0	0	0	0	544	494	0	500	0	0	
0	0	0	0	0	540	512	0	496	0	0	
1	0	0	0	0	537	526	0	488	0	0	
2	0	0	0	0	534	535	0	477	0	0	
3	0	0	0	0	531	538	0	463	0	0	
4	0	0	0	0	529	535	0	449	0	0	
5	0	0	0	0	529	526	0	435	0	0	
6	0	0	0	0	529	513	0	424	0	0	
7	0	0	0	0	530	496	0	415	0	0	
8	0	0	0	0	532	477	0	411	0	0	
9	0	0	0	0	535	457	0	411	0	0	
10	0	0	0	0	538	440	0	415	0	0	
11	0	0	0	0	542	426	0	424	0	0	
12	0	0	0	0	545	417	0	436	0	0	
13	0	0	0	0	547	414	0	449	0	0	
14	0	0	0	0	549	416	0	464	0	0	
15	0	0	0	0	551	425	0	477	0	0	
0	0	0	0	0	551	439	0	489	0	0	
1	0	0	0	0	550	455	0	497	0	0	
2	0	0	0	0	547	475	0	502	0	0	
3	0	0	0	0	544	494	0	502	0	0	
4	0	0	0	0	542	512	0	497	0	0	
5	0	0	0	0	539	527	0	488	0	0	
6	0	0	0	0	535	536	0	477	0	0	
7	0	0	0	0	533	539	0	463	0	0	
8	0	0	0	0	531	537	0	449	0	0	
9	0	0	0	0	530	528	0	436	0	0	
10	0	0	0	0	530	515	0	425	0	0	
11	0	0	0	0	531	499	0	417	0	0	
12	0	0	0	0	532	480	0	412	0	0	
13	0	0	0	0	534	460	0	412	0	0	
14	0	0	0	0	537	443	0	416	0	0	
15	0	0	0	0	540	429	0	425	0	0	
0	0	0	0	0	542	419	0	436	0	0	
1	0	0	0	0	543	415	0	449	0	0	
2	0	0	0	0	544	417	0	463	0	0	
3	0	0	0	0	545	424	0	476	0	0	
4	0	0	0	0	544	437	0	486	0	0	
5	0	0	0	0	544	454	0	494	0	0	
6	0	0	0	0	542	472	0	499	0	0	
7	0	0	0	0	540	491	0	498	0	0	
8	0	0	0	0	538	509	0	493	0	0	
9	0	0	0	0	536	523	0	485	0	0	
10	0	0	0	0	534	532	0	473	0	0	
11	0	0	0	0	532	536	0	460	0	0	
12	0	0	0	0	531	534	0	446	0	0	
13	0	0	0	0	532	526	0	433	0	0	
14	0	0	0	0	532	513	0	421	0	0	
15	0	0	0	0	533	496	0	413	0	0	
0	0	0	0	0	535	477	0	409	0	0	
1	0	0	0	0	536	458	0	409	0	0	
2	0	0	0	0	540	440	0	413	0	0	
3	0	0	0	0	542	426	0	422	0	0	
4	0	0	0	0	544	416	0	433	0	0	
5	0	0	0	0	546	412	0	448	0	0	
6	0	0	0	0	548	415	0	463	0	0	
7	0	0	0	0	549	423	0	477	0	0	
8	0	0	0	0	550	438	0	489	0	0	
9	0	0	0	0	550	455	0	499	0	0	
10	0	0	0	0	549	475	0	504	0	0	
11	0	0	0	0	547	496	0	505	0	0	
12	0	0	0	0	545	515	0	502	0	0	
13	0	0	0	0	543	529	0	495	0	0	
14	0	0	0	0	541	539	0	483	0	0	
15	0	0	0	0	539	543	0	469	0	0	
0	0	0	0	0	537	540	0	455	0	0	
1	0	0	0	0	536	531	0	441	0	0	
2	0	0	0	0	533	515	0	427	0	0	
3	0	0	0	0	531	496	0	415	0	0	
4	0	0	0	0	528	473	0	406	0	0	
5	0	0	0	0	525	449	0	399	0	0	
6	0	0	0	0	521	427	0	397	0	0	
7	0	0	0	0	516	406	0	398	0	0	
8	0	0	0	0	510	389	0	401	0	0	
9	0	0	0	0	503	376	0	406	0	0	
10	0	0	0	0	495	369	0	409	0	0	
11	0	0	0	0	485	367	0	413	0	0	
12	0	0	0	0	475	369	0	414	0	0	
13	0	0	0	0	463	375	0	412	0	0	
14	0	0	0	0	450	382	0	406	0	0	
15	0	0	0	0	437	391	0	396	0	0	
0	0	0	0	0	423	397	0	382	0	0	
1	0	0	0	0	410	400	0	363	0	0	
2	0	0	0	0	397	399	0	342	0	0	
3	0	0	0	0	384	391	0	318	0	0	
4	0	0	0	0	372	377	0	293	0	0	
5	0	0	0	0	360	358	0	269	0	0	
6	0	0	0	0	349	334	0	245	0	0	
7	0	0	0	0	338	305	0	225	0	0	
8	0	0	0	0	328	275	0	209	0	0	
9	0	0	0	0	319	244	0	197	0	0	
10	0	0	0	0	311	217	0	191	0	0	
11	0	0	0	0	305	193	0	191	0	0	
12	0	0	0	0	301	176	0	197	0	0	
13	0	0	0	0	299	167	0	207	0	0	
14	0	0	0	0	300	167	0	222	0	0	
15	0	0	0	0	304	176	0	240	0	0	
0	0	0	0	0	311	195	0	260	0	0	
1	0	0	0	0	322	221	0	281	0	0	
2	0	0	0	0	336	254	0	302	0	0	
3	0	0	0	0	352	289	0	320	0	0	
4	0	0	0	0	372	328	0	337	0	0	
5	0	0	0	0	393	365	0	351	0	0	
6	0	0	0	0	416	399	0	362	0	0	
7	0	0	0	0	440	428	0	373	0	0	
8	0	0	0	0	465	450	0	381	0	0	
9	0	0	0	0	489	465	0	389	0	0	
10	0	0	0	0	511	474	0	397	0	0	
11	0	0	0	0	532	476	0	406	0	0	
12	0	0	0	0	550	472	0	416	0	0	
13	0	0	0	0	565	466	0	428	0	0	
14	0	0	0	0	578	458	0	442	0	0	
15	0	0	0	0	586	451	0	457	0	0	
0	0	0	0	0	591	446	0	473	0	0	
1	0	0	0	0	592	443	0	488	0	0	
2	0	0	0	0	590	445	0	502	0	0	
3	0	0	0	0	585	450	0	513	0	0	
4	0	0	0	0	578	459	0	521	0	0	
5	0	0	0	0	569	471	1	524	0	0	
6	0	0	0	0	560	485	0	525	0	0	
7	0	0	0	0	550	499	0	520	0	0	
8	0	0	0	0	541	513	0	511	0	0	
9	0	0	0	0	534	524	0	499	0	0	
10	0	0	0	0	528	531	0	484	0	0	
11	0	0	0	0	525	534	0	469	0	0	
12	0	0	0	0	524	531	0	454	0	0	
13	0	0	0	0	526	525	0	440	0	0	
14	0	0	0	0	529	513	0	430	0	0	
15	0	0	0	0	534	499	0	423	0	0	
0	0	0	0	0	540	483	0	421	0	0	
1	0	0	0	0	547	468	0	423	0	0	
2	0	0	0	0	554	454	0	430	0	0	
3	0	0	0	0	560	442	0	440	0	0	
4	0	0	0	0	565	435	0	454	0	0	
5	0	0	0	0	569	433	0	468	0	0	
6	0	0	0	0	571	436	0	484	0	0	
7	0	0	0	0	572	445	0	498	0	0	
8	0	0	0	0	571	457	0	510	0	0	
9	0	0	0	0	568	473	0	519	0	0	
10	0	0	0	0	564	491	0	523	0	0	
11	0	0	0	0	559	508	0	522	0	0	
12	0	0	0	0	555	524	0	517	0	0	
13	0	0	0	0	550	536	0	507	0	0	
14	0	0	0	0	545	543	0	495	0	0	
15	0	0	0	0	542	545	0	480	0	0	
0	0	0	0	0	539	542	0	464	0	0	
1	0	0	0	0	538	532	0	450	0	0	
2	0	0	0	0	538	519	0	438	0	0	
3	0	0	0	0	539	502	0	428	0	0	
4	0	0	0	0	540	483	0	423	0	0	
5	0	0	0	0	543	465	0	423	0	0	
6	0	0	0	0	547	449	0	427	0	0	
7	0	0	0	0	551	436	0	435	0	0	
8	0	0	0	0	554	428	0	448	0	0	
9	0	0	0	0	558	425	0	462	0	0	
10	0	0	0	0	560	429	0	476	0	0	
11	0	0	0	0	561	438	0	491	0	0	
12	0	0	0	0	563	452	0	503	0	0	
13	0	0	0	0	562	469	0	512	0	0	
14	0	0	0	0	561	487	0	518	0	0	
15	0	0	0	0	559	507	0	518	0	0	
0	0	0	0	0	556	524	0	514	0	0	
1	0	0	0	0	553	537	0	506	0	0	
2	0	0	0	0	551	546	0	495	0	0	
3	0	0	0	0	548	548	0	481	0	0	
4	0	0	0	0	547	545	0	467	0	0	
5	0	0	0	0	547	536	0	454	0	0	
6	0	0	0	0	546	523	0	443	0	0	
7	0	0	0	0	547	506	0	434	0	0	
8	0	0	0	0	549	487	0	430	0	0	
9	0	0	0	0	551	468	0	428	0	0	
10	0	0	0	0	554	451	0	432	0	0	
11	0	0	0	0	556	438	0	440	0	0	
12	0	0	0	0	558	428	0	450	0	0	
13	0	0	0	0	558	425	0	463	0	0	
14	0	0	0	0	559	427	0	475	0	0	
15	0	0	0	0	558	435	0	487	0	0	
0	0	0	0	0	556	447	0	498	0	0	
1	0	0	0	0	554	463	0	506	0	0	
2	0	0	0	0	551	481	0	510	0	0	
3	0	0	0	0	548	500	0	510	0	0	
4	0	0	0	0	545	518	0	505	0	0	
5	0	0	0	0	542	531	0	497	0	0	
6	0	0	0	0	540	540	0	487	0	0	
7	0	0	0	0	539	543	0	474	0	0	
8	0	0	0	0	539	541	0	460	0	0	
9	0	0	0	0	540	533	0	447	0	0	
10	0	0	0	0	541	520	0	436	0	0	
11	0	0	0	0	543	503	0	428	0	0	
12	0	0	0	0	545	484	0	424	0	0	
13	0	0	0	0	547	465	0	423	0	0	
14	0	0	0	0	551	448	0	428	0	0	
15	0	0	0	0	553	434	0	436	0	0	
0	0	0	0	0	556	425	0	448	0	0	
1	0	0	0	0	557	422	0	461	0	0	
2	0	0	0	0	558	424	0	475	0	0	
3	0	0	0	0	558	432	0	488	0	0	
4	0	0	0	0	557	445	0	500	0	0	
5	0	0	0	0	555	461	0	508	0	0	
6	0	0	0	0	552	479	0	512	0	0	
7	0	0	0	0	549	497	0	512	0	0	
8	0	0	0	0	545	514	0	507	0	0	
9	0	0	0	0	542	527	0	498	0	0	
10	0	0	0	0	540	535	0	486	0	0	
11	0	0	0	0	537	537	0	472	0	0	
12	0	0	0	0	535	534	0	457	0	0	
13	0	0	0	0	535	526	0	444	0	0	
14	0	0	0	0	536	512	0	432	0	0	
15	0	0	0	0	536	496	0	423	0	0	
0	0	0	0	0	538	477	0	417	0	0	
1	0	0	0	0	541	458	0	417	0	0	
2	0	0	0	0	544	442	0	421	0	0	
3	0	0	0	0	547	428	0	429	0	0	
4	0	0	0	0	549	419	0	440	0	0	
5	0	0	0	0	551	416	0	454	0	0	
6	0	0	0	0	551	419	0	467	0	0	
7	0	0	0	0	553	427	0	480	0	0	
8	0	0	0	0	552	440	0	492	0	0	
9	0	0	0	0	551	456	0	500	0	0	
10	0	0	0	0	548	474	0	505	0	0	
11	0	0	0	0	547	493	0	504	0	0	
12	0	0	0	0	543	509	0	500	0	0	
13	0	0	0	0	540	522	0	491	0	0	
14	0	0	0	0	537	530	0	480	0	0	
15	0	0	0	0	535	532	0	466	0	0	
0	0	0	0	0	534	529	0	451	0	0	
1	0	0	0	0	533	520	0	438	0	0	
2	0	0	0	0	533	506	0	426	0	0	
3	0	0	0	0	534	489	0	417	0	0	
4	0	0	0	0	535	470	0	413	0	0	
5	0	0	0	0	537	451	0	412	0	0	
6	0	0	0	0	540	435	0	416	0	0	
7	0	0	0	0	543	422	0	424	0	0	
8	0	0	0	0	545	414	0	436	0	0	
9	0	0	0	0	546	411	0	449	0	0	
10	0	0	0	0	547	414	0	463	0	0	
11	0	0	0	0	547	423	0	476	0	0	
12	0	0	0	0	547	437	0	487	0	0	
13	0	0	0	0	545	453	0	496	0	0	
14	0	0	0	0	542	472	0	500	0	0	
15	0	0	0	0	540	490	0	500	0	0	
0	0	0	0	0	536	506	0	497	0	0	
1	0	0	0	0	533	519	0	488	0	0	
2	0	0	0	0	530	527	1	476	0	0	
3	0	0	0	0	528	529	0	463	0	0	
4	0	0	0	0	526	526	0	449	0	0	
5	0	0	0	0	526	517	0	436	0	0	
6	0	0	0	0	526	503	0	424	0	0	
7	0	0	0	0	527	487	0	416	0	0	
8	0	0	0	0	529	468	0	412	0	0	
9	0	0	0	0	532	449	0	412	0	0	
10	0	0	0	0	536	433	0	416	0	0	
11	0	0	0	0	540	420	0	425	0	0	
12	0	0	0	0	543	412	0	438	0	0	
13	0	0	0	0	546	410	0	451	0	0	
14	0	0	0	0	547	413	0	466	0	0	
15	0	0	0	0	548	422	0	480	0	0	
0	0	0	0	0	548	436	0	491	0	0	
1	0	0	0	0	548	452	1	499	0	0	
2	0	0	0	0	546	471	0	504	0	0	
3	0	0	0	0	542	489	0	503	0	0	
4	0	0	0	0	539	506	0	498	0	0	
5	0	0	0	0	535	519	0	489	0	0	
6	0	0	0	0	531	527	0	476	0	0	
7	0	0	0	0	527	529	0	462	0	0	
8	0	0	0	0	525	525	0	447	0	0	
9	0	0	0	0	524	515	0	433	0	0	
10	0	0	0	0	524	502	0	422	0	0	
11	0	0	0	0	524	485	0	413	0	0	
12	0	0	0	0	525	465	0	408	0	0	
13	0	0	0	0	527	447	0	408	0	0	
14	0	0	0	0	531	431	0	412	0	0	
15	0	0	0	0	534	417	0	421	0	0	
0	0	0	0	0	537	409	0	433	0	0	
1	0	0	0	0	540	407	0	447	0	0	
2	0	0	0	0	541	411	0	462	0	0	
3	0	0	0	0	543	421	0	475	0	0	
4	0	0	0	0	544	436	0	487	0	0	
5	0	0	0	0	543	454	0	496	0	0	
6	0	0	0	0	542	473	0	501	0	0	
7	0	0	0	0	540	493	0	502	0	0	
8	0	0	0	0	537	511	0	497	0	0	
9	0	0	0	0	534	524	0	488	0	0	
10	0	0	0	0	531	532	0	476	0	0	
11	0	0	0	0	528	535	0	462	0	0	
12	0	0	0	0	527	531	0	447	0	0	
13	0	0	0	0	527	522	0	433	0	0	
14	0	0	0	0	527	507	0	420	0	0	
15	0	0	0	0	527	489	0	411	0	0	
0	0	0	0	0	528	469	0	407	0	0	
1	0	0	0	0	531	450	0	406	0	0	
2	0	0	0	0	533	432	0	411	0	0	
3	0	0	0	0	536	418	0	419	0	0	
4	0	0	0	0	538	409	0	431	0	0	
5	0	0	0	0	540	406	0	446	0	0	
6	0	0	0	0	540	409	0	460	0	0	
7	0	0	0	0	541	418	0	473	0	0	
8	0	0	0	0	541	432	0	485	0	0	
9	0	0	0	0	540	448	0	494	0	0	
10	0	0	0	0	540	467	0	498	0	0	
11	0	0	0	0	537	487	0	497	0	0	
12	0	0	0	0	536	504	0	493	0	0	
13	0	0	0	0	533	518	0	484	0	0	
14	0	0	0	0	531	526	0	472	0	0	
15	0	0	0	0	529	529	0	459	0	0	
0	0	0	0	0	527	526	0	445	0	0	
1	0	0	0	0	527	517	0	432	0	0	
2	0	0	0	0	527	504	0	420	0	0	
3	0	0	0	0	528	487	0	412	0	0	
4	0	0	0	0	530	468	0	408	0	0	
5	0	0	0	0	531	450	0	409	0	0	
6	0	0	0	0	535	434	0	414	0	0	
7	0	0	0	0	537	421	0	423	0	0	
8	0	0	0	0	540	413	0	436	0	0	
9	0	0	0	0	542	411	0	451	0	0	
10	0	0	0	0	542	415	0	465	0	0	
11	0	0	0	0	544	424	0	479	0	0	
12	0	0	0	0	544	438	0	490	0	0	
13	0	0	0	0	543	455	0	498	0	0	
14	0	0	0	0	542	474	0	503	0	0	
15	0	0	0	0	540	493	0	502	0	0	
0	0	0	0	0	537	510	0	497	0	0	
1	0	0	0	0	534	523	0	488	0	0	
2	0	0	0	0	531	531	0	475	0	0	
3	0	0	0	0	528	532	0	461	0	0	
4	0	0	0	0	527	528	0	446	0	0	
5	0	0	0	0	526	519	0	432	0	0	
6	0	0	0	0	525	504	0	419	0	0	
7	0	0	0	0	524	486	0	411	0	0	
8	0	0	0	0	526	466	0	406	0	0	
9	0	0	0	0	526	447	0	405	0	0	
10	0	0	0	0	529	430	0	408	0	0	
11	0	0	0	0	531	416	0	417	0	0	
12	0	0	0	0	534	408	0	428	0	0	
13	0	0	0	0	536	406	0	442	0	0	
14	0	0	0	0	537	409	0	456	0	0	
15	0	0	0	0	539	420	0	470	0	0	
0	0	0	0	0	539	434	0	481	0	0	
1	0	0	0	0	539	452	0	490	0	0	
2	0	0	0	0	538	472	0	496	0	0	
3	0	0	0	0	536	491	0	496	0	0	
4	0	0	0	0	536	509	0	493	0	0	
5	0	0	0	0	534	523	0	485	0	0	
6	0	0	0	0	532	532	0	474	0	0	
7	0	0	0	0	531	535	0	462	0	0	
8	0	0	0	0	530	532	0	449	0	0	
9	0	0	0	0	530	523	0	436	0	0	
10	0	0	0	0	530	509	0	425	0	0	
11	0	0	0	0	531	492	0	417	0	0	
12	0	0	0	0	532	472	0	413	0	0	
13	0	0	0	0	534	453	0	412	0	0	
14	0	0	0	0	536	436	0	416	0	0	
15	0	0	0	0	539	422	0	424	0	0	
0	0	0	0	0	540	413	0	435	0	0	
1	0	0	0	0	542	409	0	448	0	0	
2	0	0	0	0	542	412	0	462	0	0	
3	0	0	0	0	542	420	0	474	0	0	
4	0	0	0	0	541	433	0	486	0	0	
5	0	0	0	0	540	450	0	494	0	0	
6	0	0	0	0	538	469	0	498	0	0	
7	0	0	0	0	536	488	0	498	0	0	
8	0	0	0	0	534	505	0	494	0	0	
9	0	0	0	0	531	519	0	486	0	0	
10	0	0	0	0	531	528	0	475	0	0	
11	0	0	0	0	530	531	0	462	0	0	
12	0	0	0	0	530	529	0	448	0	0	
13	0	0	0	0	531	520	0	436	0	0	
14	0	0	0	0	532	508	0	425	0	0	
15	0	0	0	0	534	491	0	418	0	0	
0	0	0	0	0	536	472	0	414	0	0	
1	0	0	0	0	539	454	0	415	0	0	
2	0	0	0	0	543	438	0	420	0	0	
3	0	0	0	0	547	425	0	430	0	0	
4	0	0	0	0	550	417	0	442	0	0	
5	0	0	0	0	552	415	0	456	0	0	
6	0	0	0	0	553	418	0	471	0	0	
7	0	0	0	0	554	428	0	484	0	0	
8	0	0	0	0	554	441	0	496	0	0	
9	0	0	0	0	553	459	0	504	0	0	
10	0	0	0	0	550	477	0	508	0	0	
11	0	0	0	0	547	496	0	507	0	0	
12	0	0	0	0	545	513	0	502	0	0	
13	0	0	0	0	542	527	0	492	0	0	
14	0	0	0	0	540	535	0	480	0	0	
15	0	0	0	0	537	537	0	465	0	0	
0	0	0	0	0	537	533	0	451	0	0	
1	0	0	0	0	536	524	0	438	0	0	
2	0	0	0	0	537	509	0	426	0	0	
3	0	0	0	0	538	492	0	418	0	0	
4	0	0	0	0	540	473	0	414	0	0	
5	0	0	0	0	542	454	0	414	0	0	
6	0	0	0	0	546	438	0	419	0	0	
7	0	0	0	0	548	425	0	428	0	0	
8	0	0	0	0	551	417	0	440	0	0	
9	0	0	0	0	552	415	0	455	0	0	
10	0	0	0	0	553	419	0	468	0	0	
11	0	0	0	0	553	428	0	482	0	0	
12	0	0	0	0	552	442	0	494	0	0	
13	0	0	0	0	551	459	0	501	0	0	
14	0	0	0	0	548	478	0	505	0	0	
15	0	0	0	0	544	496	0	504	0	0	
0	0	0	0	0	541	512	0	499	0	0	
1	0	0	0	0	536	525	0	489	0	0	
2	0	0	0	0	533	532	0	478	0	0	
3	0	0	0	0	529	534	0	463	0	0	
4	0	0	0	0	528	530	0	448	0	0	
5	0	0	0	0	527	520	0	435	0	0	
6	0	0	0	0	527	506	0	423	0	0	
7	0	0	0	0	528	489	0	415	0	0	
8	0	0	0	0	530	470	0	411	0	0	
9	0	0	0	0	533	451	0	411	0	0	
10	0	0	0	0	536	435	0	416	0	0	
11	0	0	0	0	540	421	0	425	0	0	
12	0	0	0	0	543	413	0	436	0	0	
13	0	0	0	0	545	410	0	450	0	0	
14	0	0	0	0	546	413	0	464	0	0	
15	0	0	0	0	547	422	0	477	0	0	
0	0	0	0	0	547	435	0	487	0	0	
1	0	0	0	0	545	452	0	496	0	0	
2	0	0	0	0	543	471	0	499	0	0	
3	0	0	0	0	539	489	0	498	0	0	
4	0	0	0	0	536	505	0	492	0	0	
5	0	0	0	0	531	518	0	483	0	0	
6	0	0	0	0	528	526	0	471	0	0	
7	0	0	0	0	525	528	0	457	0	0	
8	0	0	0	0	524	525	0	442	0	0	
9	0	0	0	0	523	516	0	429	0	0	
10	0	0	0	0	523	502	0	417	0	0	
11	0	0	0	0	523	485	0	409	0	0	
12	0	0	0	0	524	466	0	404	0	0	
13	0	0	0	0	527	448	0	405	0	0	
14	0	0	0	0	529	431	0	410	0	0	
15	0	0	0	0	532	418	0	419	0	0	
0	0	0	0	0	535	410	0	430	0	0	
1	0	0	0	0	537	408	0	445	0	0	
2	0	0	0	0	538	412	0	459	0	0	
3	0	0	0	0	539	422	0	472	0	0	
4	0	0	0	0	538	435	0	483	0	0	
5	0	0	0	0	537	452	0	491	0	0	
6	0	0	0	0	536	471	0	495	0	0	
7	0	0	0	0	532	490	0	494	0	0	
8	0	0	0	0	529	506	0	488	0	0	
9	0	0	0	0	526	519	0	479	0	0	
10	0	0	0	0	524	526	0	467	0	0	
11	0	0	0	0	521	528	0	452	0	0	
12	0	0	0	0	520	524	0	438	0	0	
13	0	0	0	0	520	514	0	424	0	0	
14	0	0	0	0	520	499	0	413	0	0	
15	0	0	0	0	521	482	0	406	0	0	
0	0	0	0	0	523	462	0	401	0	0	
1	0	0	0	0	525	443	0	402	0	0	
2	0	0	0	0	528	427	0	408	0	0	
3	0	0	0	0	531	414	0	417	0	0	
4	0	0	0	0	534	406	0	428	0	0	
5	0	0	0	0	535	403	0	443	0	0	
6	0	0	0	0	537	408	0	456	0	0	
7	0	0	0	0	537	417	0	470	0	0	
8	0	0	0	0	537	432	0	480	0	0	
9	0	0	0	0	535	449	0	488	0	0	
10	0	0	0	0	533	468	0	492	0	0	
11	0	0	0	0	530	487	0	491	0	0	
12	0	0	0	0	528	504	0	486	0	0	
13	0	0	0	0	525	516	0	478	0	0	
14	0	0	0	0	523	524	0	466	0	0	
15	0	0	0	0	521	527	0	452	0	0	
0	0	0	0	0	520	523	0	440	0	0	
1	0	0	0	0	521	514	0	427	0	0	
2	0	0	0	0	523	500	0	417	0	0	
3	0	0	0	0	525	483	0	410	0	0	
4	0	0	0	0	527	465	0	407	0	0	
5	0	0	0	0	531	447	0	408	0	0	
6	0	0	0	0	534	431	0	414	0	0	
7	0	0	0	0	537	418	0	423	0	0	
8	0	0	0	0	540	411	0	435	0	0	
9	0	0	0	0	541	408	0	450	0	0	
10	0	0	0	0	542	412	0	464	0	0	
11	0	0	0	0	542	421	0	477	0	0	
12	0	0	0	0	542	435	0	488	0	0	
13	0	0	0	0	540	452	0	496	0	0	
14	0	0	0	0	536	472	0	499	0	0	
15	0	0	0	0	533	490	0	498	0	0	
0	0	0	0	0	531	507	0	492	0	0	
1	0	0	0	0	527	519	0	483	0	0	
2	0	0	0	0	525	527	0	471	0	0	
3	0	0	0	0	523	529	0	457	0	0	
4	0	0	0	0	523	526	0	442	0	0	
5	0	0	0	0	523	516	0	429	0	0	
6	0	0	0	0	524	502	0	417	0	0	
7	0	0	0	0	525	485	0	410	0	0	
8	0	0	0	0	527	466	0	406	0	0	
9	0	0	0	0	530	448	0	407	0	0	
10	0	0	0	0	534	432	0	412	0	0	
11	0	0	0	0	537	419	0	421	0	0	
12	0	0	0	0	540	412	0	434	0	0	
13	0	0	0	0	542	409	0	448	0	0	
14	0	0	0	0	544	414	0	462	0	0	
15	0	0	0	0	544	423	0	476	0	0	
0	0	0	0	0	544	437	0	487	0	0	
1	0	0	0	0	543	454	0	495	0	0	
2	0	0	0	0	541	473	0	499	0	0	
3	0	0	0	0	537	491	0	498	0	0	
4	0	0	0	0	534	507	0	492	0	0	
5	0	0	0	0	531	519	0	483	0	0	
6	0	0	0	0	527	526	0	470	0	0	
7	0	0	0	0	524	527	0	456	0	0	
8	0	0	0	0	522	523	0	441	0	0	
9	0	0	0	0	521	512	0	428	0	0	
10	0	0	0	0	520	498	0	416	0	0	
11	0	0	0	0	521	480	0	408	0	0	
12	0	0	0	0	522	461	0	403	0	0	
13	0	0	0	0	524	442	0	403	0	0	
14	0	0	0	0	527	425	0	408	0	0	
15	0	0	0	0	530	412	0	417	0	0	
0	0	0	0	0	533	404	0	430	0	0	
1	0	0	0	0	536	402	0	443	0	0	
2	0	0	0	0	536	405	0	457	0	0	
3	0	0	0	0	537	415	0	471	0	0	
4	0	0	0	0	537	428	0	482	0	0	
5	0	0	0	0	536	445	0	489	0	0	
6	0	0	0	0	534	463	0	494	0	0	
7	0	0	0	0	531	482	0	492	0	0	
8	0	0	0	0	528	498	0	487	0	0	
9	0	0	0	0	525	511	0	478	0	0	
10	0	0	0	0	523	518	0	466	0	0	
11	0	0	0	0	520	519	0	452	0	0	
12	0	0	0	0	519	515	0	438	0	0	
13	0	0	0	0	519	506	0	424	0	0	
14	0	0	0	0	519	492	0	414	0	0	
15	0	0	0	0	520	475	0	406	0	0	
0	0	0	0	0	522	456	0	403	0	0	
1	0	0	0	0	525	438	0	403	0	0	
2	0	0	0	0	527	422	0	408	0	0	
3	0	0	0	0	530	409	0	417	0	0	
4	0	0	0	0	531	401	0	429	0	0	
5	0	0	0	0	534	400	0	444	0	0	
6	0	0	0	0	534	404	0	458	0	0	
7	0	0	0	0	535	414	0	471	0	0	
8	0	0	0	0	535	428	0	483	0	0	
9	0	0	0	0	534	446	0	492	0	0	
10	0	0	0	0	532	465	0	496	0	0	
11	0	0	0	0	530	485	0	496	0	0	
12	0	0	0	0	528	502	0	492	0	0	
13	0	0	0	0	526	515	0	483	0	0	
14	0	0	0	0	524	524	0	472	0	0	
15	0	0	0	0	524	527	0	460	0	0	
0	0	0	0	0	524	523	0	446	0	0	
1	0	0	0	0	524	514	0	434	0	0	
2	0	0	0	0	525	500	0	423	0	0	
3	0	0	0	0	527	483	0	416	0	0	
4	0	0	0	0	529	465	0	413	0	0	
5	0	0	0	0	531	447	0	414	0	0	
6	0	0	0	0	534	431	0	418	0	0	
7	0	0	0	0	536	419	0	427	0	0	
8	0	0	0	0	538	411	0	439	0	0	
9	0	0	0	0	539	409	0	451	0	0	
10	0	0	0	0	539	413	0	465	0	0	
11	0	0	0	0	540	423	0	478	0	0	
12	0	0	0	0	538	436	0	487	0	0	
13	0	0	0	0	537	453	0	495	0	0	
14	0	0	0	0	534	471	0	498	0	0	
15	0	0	0	0	531	489	0	497	0	0	
0	0	0	0	0	528	505	0	491	0	0	
1	0	0	0	0	526	517	0	482	0	0	
2	0	0	0	0	523	524	0	469	0	0	
3	0	0	0	0	521	525	0	456	0	0	
4	0	0	0	0	519	520	0	442	0	0	
5	0	0	0	0	519	510	0	429	0	0	
6	0	0	0	0	519	495	0	418	0	0	
7	0	0	0	0	520	477	0	411	0	0	
8	0	0	0	0	521	458	0	407	0	0	
9	0	0	0	0	524	440	0	408	0	0	
10	0	0	0	0	526	423	0	413	0	0	
11	0	0	0	0	528	410	0	422	0	0	
12	0	0	0	0	531	402	0	433	0	0	
13	0	0	0	0	532	400	0	447	0	0	
14	0	0	0	0	533	404	0	460	0	0	
15	0	0	0	0	534	414	0	473	0	0	
0	0	0	0	0	535	429	0	483	0	0	
1	0	0	0	0	534	447	0	492	0	0	
2	0	0	0	0	532	466	0	495	0	0	
3	0	0	0	0	530	485	0	494	0	0	
4	0	0	0	0	529	503	0	489	0	0	
5	0	0	0	0	526	515	0	480	0	0	
6	0	0	0	0	524	524	0	469	0	0	
7	0	0	0	0	522	526	0	457	0	0	
8	0	0	0	0	521	523	0	444	0	0	
9	0	0	0	0	521	513	0	432	0	0	
10	0	0	0	0	521	499	0	422	0	0	
11	0	0	0	0	522	481	0	416	0	0	
12	0	0	0	0	524	463	0	413	0	0	
13	0	0	0	0	526	444	0	414	0	0	
14	0	0	0	0	529	428	0	419	0	0	
15	0	0	0	0	531	414	0	428	0	0	
0	0	0	0	0	533	406	0	440	0	0	
1	0	0	0	0	534	403	0	453	0	0	
2	0	0	0	0	536	407	0	466	0	0	
3	0	0	0	0	536	416	0	478	0	0	
4	0	0	0	0	535	429	0	488	0	0	
5	0	0	0	0	534	447	0	495	0	0	
6	0	0	0	0	532	465	0	498	0	0	
7	0	0	0	0	529	484	0	497	0	0	
8	0	0	0	0	527	500	0	491	0	0	
9	0	0	0	0	524	513	0	481	0	0	
10	0	0	0	0	522	522	0	470	0	0	
11	0	0	0	0	520	524	0	456	0	0	
12	0	0	0	0	519	520	0	442	0	0	
13	0	0	0	0	519	511	0	429	0	0	
14	0	0	0	0	520	497	0	418	0	0	
15	0	0	0	0	521	480	0	411	0	0	
0	0	0	0	0	524	462	0	407	0	0	
1	0	0	0	0	526	443	0	408	0	0	
2	0	0	0	0	529	427	0	413	0	0	
3	0	0	0	0	533	414	0	423	0	0	
4	0	0	0	0	535	406	0	434	0	0	
5	0	0	0	0	537	404	0	449	0	0	
6	0	0	0	0	539	408	0	463	0	0	
7	0	0	0	0	539	418	0	477	0	0	
8	0	0	0	0	539	432	0	488	0	0	
9	0	0	0	0	537	449	0	497	0	0	
10	0	0	0	0	535	468	0	501	0	0	
11	0	0	0	0	532	487	0	501	0	0	
12	0	0	0	0	530	504	0	496	0	0	
13	0	0	0	0	527	517	0	488	0	0	
14	0	0	0	0	525	526	0	476	0	0	
15	0	0	0	0	523	527	0	463	0	0	
0	0	0	0	0	522	524	0	450	0	0	
1	0	0	0	0	522	514	0	438	0	0	
2	0	0	0	0	523	500	0	427	0	0	
3	0	0	0	0	524	482	0	419	0	0	
4	0	0	0	0	526	463	0	416	0	0	
5	0	0	0	0	527	444	0	417	0	0	
6	0	0	0	0	531	428	0	422	0	0	
7	0	0	0	0	532	415	0	431	0	0	
8	0	0	0	0	534	407	0	443	0	0	
9	0	0	0	0	534	404	0	456	0	0	
10	0	0	0	0	535	408	0	470	0	0	
11	0	0	0	0	534	417	0	482	0	0	
12	0	0	0	0	533	430	0	492	0	0	
13	0	0	0	0	531	446	0	499	0	0	
14	0	0	0	0	528	464	0	501	0	0	
15	0	0	0	0	525	482	0	499	0	0	
0	0	0	0	0	521	498	0	492	0	0	
1	0	0	0	0	518	510	0	482	0	0	
2	0	0	0	0	515	517	0	468	0	0	
3	0	0	0	0	514	519	0	455	0	0	
4	0	0	0	0	512	514	0	441	0	0	
5	0	0	0	0	513	504	0	428	0	0	
6	0	0	0	0	514	490	0	417	0	0	
7	0	0	0	0	515	472	0	409	0	0	
8	0	0	0	0	517	453	0	406	0	0	
9	0	0	0	0	520	435	0	407	0	0	
10	0	0	0	0	524	418	0	412	0	0	
11	0	0	0	0	526	405	0	421	0	0	
12	0	0	0	0	529	397	0	433	0	0	
13	0	0	0	0	531	395	0	446	0	0	
14	0	0	0	0	531	398	0	459	0	0	
15	0	0	0	0	531	407	0	470	0	0	
0	0	0	0	0	529	420	0	480	0	0	
1	0	0	0	0	528	438	0	487	0	0	
2	0	0	0	0	525	455	0	489	0	0	
3	0	0	0	0	521	473	0	487	0	0	
4	0	0	0	0	519	490	0	481	0	0	
5	0	0	0	0	515	502	0	472	0	0	
6	0	0	0	0	513	511	0	460	0	0	
7	0	0	0	0	510	512	0	448	0	0	
8	0	0	0	0	510	509	0	434	0	0	
9	0	0	0	0	510	500	0	422	0	0	
10	0	0	0	0	510	487	0	412	0	0	
11	0	0	0	0	512	471	0	406	0	0	
12	0	0	0	0	514	453	0	403	0	0	
13	0	0	0	0	517	435	0	406	0	0	
14	0	0	0	0	521	420	0	412	0	0	
15	0	0	0	0	524	409	0	422	0	0	
0	0	0	0	0	527	402	0	435	0	0	
1	0	0	0	0	530	401	0	449	0	0	
2	0	0	0	0	531	406	0	463	0	0	
3	0	0	0	0	532	416	0	476	0	0	
4	0	0	0	0	532	431	0	487	0	0	
5	0	0	0	0	531	449	0	494	0	0	
6	0	0	0	0	529	468	0	497	0	0	
7	0	0	0	0	527	487	0	495	0	0	
8	0	0	0	0	524	504	0	490	0	0	
9	0	0	0	0	522	516	0	480	0	0	
10	0	0	0	0	519	524	0	468	0	0	
11	0	0	0	0	518	526	0	455	0	0	
12	0	0	0	0	517	522	0	443	0	0	
13	0	0	0	0	518	513	0	431	0	0	
14	0	0	0	0	519	499	0	420	0	0	
15	0	0	0	0	520	481	0	415	0	0	
0	0	0	0	0	523	463	0	412	0	0	
1	0	0	0	0	525	444	0	414	0	0	
2	0	0	0	0	529	428	0	419	0	0	
3	0	0	0	0	532	416	0	429	0	0	
4	0	0	0	0	534	408	0	440	0	0	
5	0	0	0	0	536	407	0	454	0	0	
6	0	0	0	0	537	411	0	467	0	0	
7	0	0	0	0	537	421	0	480	0	0	
8	0	0	0	0	536	435	0	489	0	0	
9	0	0	0	0	535	452	0	497	0	0	
10	0	0	0	0	531	470	0	500	0	0	
11	0	0	0	0	528	488	0	498	0	0	
12	0	0	0	0	526	504	0	493	0	0	
13	0	0	0	0	523	517	0	484	0	0	
14	0	0	0	0	520	524	0	472	0	0	
15	0	0	0	0	519	525	0	458	0	0	
0	0	0	0	0	518	521	0	446	0	0	
1	0	0	0	0	519	511	0	433	0	0	
2	0	0	0	0	519	497	0	423	0	0	
3	0	0	0	0	521	481	0	417	0	0	
4	0	0	0	0	524	462	0	414	0	0	
5	0	0	0	0	527	445	0	415	0	0	
6	0	0	0	0	529	429	0	421	0	0	
7	0	0	0	0	532	417	0	430	0	0	
8	0	0	0	0	534	409	0	441	0	0	
9	0	0	0	0	534	408	0	454	0	0	
10	0	0	0	0	534	412	0	467	0	0	
11	0	0	0	0	534	421	0	478	0	0	
12	0	0	0	0	533	435	0	488	0	0	
13	0	0	0	0	531	451	0	494	0	0	
14	0	0	0	0	529	468	0	497	0	0	
15	0	0	0	0	526	486	0	495	0	0	
0	0	0	0	0	523	502	0	488	0	0	
1	0	0	0	0	521	514	0	479	0	0	
2	0	0	0	0	519	520	0	466	0	0	
3	0	0	0	0	517	522	0	454	0	0	
4	0	0	0	0	516	517	0	440	0	0	
5	0	0	0	0	516	507	0	428	0	0	
6	0	0	0	0	518	493	0	417	0	0	
7	0	0	0	0	519	475	0	410	0	0	
8	0	0	0	0	521	457	0	408	0	0	
9	0	0	0	0	524	439	0	409	0	0	
10	0	0	0	0	527	424	0	415	0	0	
11	0	0	0	0	531	412	0	425	0	0	
12	0	0	0	0	534	406	0	438	0	0	
13	0	0	0	0	536	405	0	452	0	0	
14	0	0	0	0	537	411	0	465	0	0	
15	0	0	0	0	537	422	0	479	0	0	
0	0	0	0	0	537	436	0	489	0	0	
1	0	0	0	0	536	454	0	496	0	0	
2	0	0	0	0	534	473	0	499	0	0	
3	0	0	0	0	529	491	0	498	0	0	
4	0	0	0	0	527	507	0	491	0	0	
5	0	0	0	0	523	518	0	481	0	0	
6	0	0	0	0	518	523	0	467	0	0	
7	0	0	0	0	513	522	0	451	0	0	
8	0	0	0	0	509	514	0	434	0	0	
9	0	0	0	0	504	499	0	417	0	0	
10	0	0	0	0	499	480	0	401	0	0	
11	0	0	0	0	494	456	0	387	0	0	
12	0	0	0	0	488	430	0	377	0	0	
13	0	0	0	0	482	403	0	370	0	0	
14	0	0	0	0	476	379	0	367	0	0	
15	0	0	0	0	468	356	0	367	0	0	
0	0	0	0	0	460	339	0	369	0	0	
1	0	0	0	0	452	327	0	373	0	0	
2	0	0	0	0	441	320	0	376	0	0	
3	0	0	0	0	432	319	0	379	0	0	
4	0	0	0	0	419	321	0	379	0	0	
5	0	0	0	0	408	327	0	376	0	0	
6	0	0	0	0	395	335	0	369	0	0	
7	0	0	0	0	380	342	0	356	0	0	
8	0	0	0	0	366	347	0	339	0	0	
9	0	0	0	0	352	348	0	318	0	0	
10	0	0	0	0	337	344	0	294	0	0	
11	0	0	0	0	323	334	0	268	0	0	
12	0	0	0	0	310	318	0	242	0	0	
13	0	0	0	0	298	297	0	216	0	0	
14	0	0	0	0	288	274	0	195	0	0	
15	0	0	0	0	280	248	0	178	0	0	
0	0	0	0	0	276	222	0	168	0	0	
1	0	0	0	0	275	199	0	166	0	0	
2	0	0	0	0	279	182	0	172	0	0	
3	0	0	0	0	287	170	0	186	0	0	
4	0	0	0	0	298	168	0	207	0	0	
5	0	0	0	0	313	175	0	234	0	0	
6	0	0	0	0	331	192	0	265	0	0	
7	0	0	0	0	352	218	0	298	0	0	
8	0	0	0	0	374	252	0	332	0	0	
9	0	0	0	0	398	291	0	365	0	0	
10	0	0	0	0	422	334	0	394	0	0	
11	0	0	0	0	444	377	0	419	0	0	
12	0	0	0	0	467	419	0	436	0	0	
13	0	0	0	0	487	457	0	449	0	0	
14	0	0	0	0	505	487	0	456	0	0	
15	0	0	0	0	521	509	0	458	0	0	
0	0	0	0	0	535	522	0	457	0	0	
1	0	0	0	0	546	526	0	454	0	0	
2	0	0	0	0	554	521	0	450	0	0	
3	0	0	0	0	560	510	0	446	0	0	
4	0	0	0	0	563	495	0	445	0	0	
5	0	0	0	0	564	476	0	445	0	0	
6	0	0	0	0	564	459	0	448	0	0	
7	0	0	0	0	562	443	0	454	0	0	
8	0	0	0	0	559	431	0	462	0	0	
9	0	0	0	0	553	424	0	471	0	0	
10	0	0	0	0	548	423	0	480	0	0	
11	0	0	0	0	543	428	0	489	0	0	
12	0	0	0	0	537	437	0	496	0	0	
13	0	0	0	0	532	451	0	501	0	0	
14	0	0	0	0	527	467	0	503	0	0	
15	0	0	0	0	523	483	0	500	0	0	
0	0	0	0	0	520	499	0	494	0	0	
1	0	0	0	0	519	511	0	485	0	0	
2	0	0	0	0	518	519	0	474	0	0	
3	0	0	0	0	519	523	0	462	0	0	
4	0	0	0	0	520	519	0	450	0	0	
5	0	0	0	0	524	512	0	439	0	0	
6	0	0	0	0	527	500	0	431	0	0	
7	0	0	0	0	531	485	0	426	0	0	
8	0	0	0	0	535	468	0	424	0	0	
9	0	0	0	0	539	451	0	428	0	0	
10	0	0	0	0	543	438	0	435	0	0	
11	0	0	0	0	547	426	0	445	0	0	
12	0	0	0	0	550	420	0	458	0	0	
13	0	0	0	0	551	419	0	472	0	0	
14	0	0	0	0	551	424	0	485	0	0	
15	0	0	0	0	551	435	0	497	0	0	
0	0	0	0	0	548	449	0	506	0	0	
1	0	0	0	0	547	466	0	513	0	0	
2	0	0	0	0	543	485	0	515	0	0	
3	0	0	0	0	540	503	0	512	0	0	
4	0	0	0	0	537	519	0	506	0	0	
5	0	0	0	0	534	531	0	496	0	0	
6	0	0	0	0	531	537	0	483	0	0	
7	0	0	0	0	529	538	0	470	0	0	
8	0	0	0	0	528	534	0	456	0	0	
9	0	0	0	0	529	524	0	444	0	0	
10	0	0	0	0	530	510	0	434	0	0	
11	0	0	0	0	532	492	0	427	0	0	
12	0	0	0	0	535	473	0	425	0	0	
13	0	0	0	0	537	456	0	426	0	0	
14	0	0	0	0	541	440	0	432	0	0	
15	0	0	0	0	544	428	0	441	0	0	
0	0	0	0	0	546	422	0	454	0	0	
1	0	0	0	0	547	420	0	467	0	0	
2	0	0	0	0	548	425	0	480	0	0	
3	0	0	0	0	549	435	0	493	0	0	
4	0	0	0	0	548	449	0	503	0	0	
5	0	0	0	0	546	467	0	510	0	0	
6	0	0	0	0	543	485	0	512	0	0	
7	0	0	0	0	540	502	0	510	0	0	
8	0	0	0	0	536	518	0	504	0	0	
9	0	0	0	0	533	528	0	495	0	0	
10	0	0	0	0	529	534	0	482	0	0	
11	0	0	0	0	527	535	0	469	0	0	
12	0	0	0	0	526	528	0	455	0	0	
13	0	0	0	0	525	518	0	443	0	0	
14	0	0	0	0	526	503	0	433	0	0	
15	0	0	0	0	527	486	0	426	0	0	
0	0	0	0	0	528	467	0	423	0	0	
1	0	0	0	0	531	449	0	425	0	0	
2	0	0	0	0	534	434	0	431	0	0	
3	0	0	0	0	537	423	0	441	0	0	
4	0	0	0	0	540	417	0	453	0	0	
5	0	0	0	0	542	416	0	467	0	0	
6	0	0	0	0	542	422	0	480	0	0	
7	0	0	0	0	543	432	0	492	0	0	
8	0	0	0	0	542	447	0	502	0	0	
9	0	0	0	0	541	465	0	508	0	0	
10	0	0	0	0	539	483	0	510	0	0	
11	0	0	0	0	535	501	0	507	0	0	
12	0	0	0	0	531	516	0	500	0	0	
13	0	0	0	0	528	527	0	489	0	0	
14	0	0	0	0	524	533	0	476	0	0	
15	0	0	0	0	522	533	0	463	0	0	
0	0	0	0	0	520	528	0	448	0	0	
1	0	0	0	0	520	516	0	435	0	0	
2	0	0	0	0	520	501	0	424	0	0	
3	0	0	0	0	521	483	0	417	0	0	
4	0	0	0	0	522	463	0	415	0	0	
5	0	0	0	0	525	445	0	416	0	0	
6	0	0	0	0	528	429	0	422	0	0	
7	0	0	0	0	531	417	0	432	0	0	
8	0	0	0	0	534	411	0	445	0	0	
9	0	0	0	0	535	409	0	459	0	0	
10	0	0	0	0	536	415	0	472	0	0	
11	0	0	0	0	536	425	0	485	0	0	
12	0	0	0	0	536	440	0	495	0	0	
13	0	0	0	0	534	459	0	502	0	0	
14	0	0	0	0	531	477	0	504	0	0	
15	0	0	0	0	527	496	0	502	0	0	
0	0	0	0	0	524	511	0	496	0	0	
1	0	0	0	0	521	523	0	486	0	0	
2	0	0	0	0	518	529	0	473	0	0	
3	0	0	0	0	516	529	0	459	0	0	
4	0	0	0	0	515	524	0	445	0	0	
5	0	0	0	0	515	513	0	432	0	0	
6	0	0	0	0	515	497	0	421	0	0	
7	0	0	0	0	517	479	0	414	0	0	
8	0	0	0	0	519	460	0	412	0	0	
9	0	0	0	0	522	441	0	412	0	0	
10	0	0	0	0	525	425	0	419	0	0	
11	0	0	0	0	528	412	0	428	0	0	
12	0	0	0	0	530	406	0	441	0	0	
13	0	0	0	0	532	406	0	455	0	0	
14	0	0	0	0	533	411	0	469	0	0	
15	0	0	0	0	534	422	0	482	0	0	
0	0	0	0	0	533	437	0	492	0	0	
1	0	0	0	0	531	455	0	499	0	0	
2	0	0	0	0	529	475	0	502	0	0	
3	0	0	0	0	525	494	0	499	0	0	
4	0	0	0	0	523	510	0	493	0	0	
5	0	0	0	0	519	521	0	483	0	0	
6	0	0	0	0	516	527	0	470	0	0	
7	0	0	0	0	514	528	0	456	0	0	
8	0	0	0	0	513	523	0	441	0	0	
9	0	0	0	0	512	512	0	428	0	0	
10	0	0	0	0	512	496	0	418	0	0	
11	0	0	0	0	513	478	0	411	0	0	
12	0	0	0	0	515	458	0	408	0	0	
13	0	0	0	0	517	440	0	409	0	0	
14	0	0	0	0	519	423	0	415	0	0	
15	0	0	0	0	522	411	0	425	0	0	
0	0	0	0	0	524	403	0	437	0	0	
1	0	0	0	0	526	403	0	450	0	0	
2	0	0	0	0	526	407	0	464	0	0	
3	0	0	0	0	526	418	0	477	0	0	
4	0	0	0	0	526	433	0	487	0	0	
5	0	0	0	0	524	450	0	493	0	0	
6	0	0	0	0	521	468	0	496	0	0	
7	0	0	0	0	518	487	0	493	0	0	
8	0	0	0	0	516	504	0	487	0	0	
9	0	0	0	0	512	515	0	476	0	0	
10	0	0	0	0	510	523	0	463	0	0	
11	0	0	0	0	508	523	0	450	0	0	
12	0	0	0	0	507	518	0	436	0	0	
13	0	0	0	0	507	508	0	423	0	0	
14	0	0	0	0	508	493	0	414	0	0	
15	0	0	0	0	509	475	0	408	0	0	
0	0	0	0	0	511	456	0	406	0	0	
1	0	0	0	0	513	439	0	408	0	0	
2	0	0	0	0	516	423	0	415	0	0	
3	0	0	0	0	519	412	0	426	0	0	
4	0	0	0	0	522	407	0	438	0	0	
5	0	0	0	0	524	407	0	454	0	0	
6	0	0	0	0	524	412	0	467	0	0	
7	0	0	0	0	526	423	0	480	0	0	
8	0	0	0	0	526	438	0	490	0	0	
9	0	0	0	0	524	455	0	496	0	0	
10	0	0	0	0	523	473	0	499	0	0	
11	0	0	0	0	520	491	0	495	0	0	
12	0	0	0	0	518	505	0	488	0	0	
13	0	0	0	0	515	515	0	478	0	0	
14	0	0	0	0	513	520	0	464	0	0	
15	0	0	0	0	511	519	0	450	0	0	
0	0	0	0	0	509	513	0	435	0	0	
1	0	0	0	0	508	501	0	422	0	0	
2	0	0	0	0	508	485	0	412	0	0	
3	0	0	0	0	509	467	0	404	0	0	
4	0	0	0	0	511	448	0	402	0	0	
5	0	0	0	0	512	429	0	403	0	0	
6	0	0	0	0	515	415	0	409	0	0	
7	0	0	0	0	516	403	0	419	0	0	
8	0	0	0	0	518	398	0	431	0	0	
9	0	0	0	0	519	398	0	444	0	0	
10	0	0	0	0	519	404	0	458	0	0	
11	0	0	0	0	520	415	0	470	0	0	
12	0	0	0	0	519	430	0	480	0	0	
13	0	0	0	0	519	448	0	487	0	0	
14	0	0	0	0	516	467	0	490	0	0	
15	0	0	0	0	515	485	0	487	0	0	
0	0	0	0	0	512	501	0	481	0	0	
1	0	0	0	0	511	512	0	472	0	0	
2	0	0	0	0	509	518	0	459	0	0	
3	0	0	0	0	509	519	0	446	0	0	
4	0	0	0	0	508	513	0	433	0	0	
5	0	0	0	0	510	503	0	420	0	0	
6	0	0	0	0	511	488	0	411	0	0	
7	0	0	0	0	513	470	0	404	0	0	
8	0	0	0	0	515	451	0	402	0	0	
9	0	0	0	0	517	433	0	404	0	0	
10	0	0	0	0	520	418	0	410	0	0	
11	0	0	0	0	522	407	0	420	0	0	
12	0	0	0	0	524	400	0	433	0	0	
13	0	0	0	0	524	399	0	446	0	0	
14	0	0	0	0	524	405	0	460	0	0	
15	0	0	0	0	524	415	0	472	0	0	
0	0	0	0	0	522	429	0	482	0	0	
1	0	0	0	0	519	446	0	487	0	0	
2	0	0	0	0	517	464	0	490	0	0	
3	0	0	0	0	513	481	0	487	0	0	
4	0	0	0	0	510	497	0	480	0	0	
5	0	0	0	0	507	508	0	470	0	0	
6	0	0	0	0	504	514	0	456	0	0	
7	0	0	0	0	502	514	0	443	0	0	
8	0	0	0	0	502	509	0	429	0	0	
9	0	0	0	0	502	498	0	417	0	0	
10	0	0	0	0	503	483	0	408	0	0	
11	0	0	0	0	505	467	0	402	0	0	
12	0	0	0	0	508	449	0	400	0	0	
13	0	0	0	0	512	432	0	403	0	0	
14	0	0	0	0	516	417	0	411	0	0	
15	0	0	0	0	521	408	0	422	0	0	
0	0	0	0	0	524	403	0	436	0	0	
1	0	0	0	0	528	403	0	451	0	0	
2	0	0	0	0	530	409	0	465	0	0	
3	0	0	0	0	532	421	0	478	0	0	
4	0	0	0	0	532	436	0	488	0	0	
5	0	0	0	0	531	454	0	494	0	0	
6	0	0	0	0	528	472	0	496	0	0	
7	0	0	0	0	524	489	0	493	0	0	
8	0	0	0	0	521	504	0	486	0	0	
9	0	0	0	0	517	514	0	475	0	0	
10	0	0	0	0	513	519	0	462	0	0	
11	0	0	0	0	510	517	0	448	0	0	
12	0	0	0	0	507	511	0	433	0	0	
13	0	0	0	0	506	499	0	420	0	0	
14	0	0	0	0	505	483	0	409	0	0	
15	0	0	0	0	506	465	0	403	0	0	
0	0	0	0	0	507	446	0	400	0	0	
1	0	0	0	0	509	428	0	402	0	0	
2	0	0	0	0	512	413	0	408	0	0	
3	0	0	0	0	515	402	0	419	0	0	
4	0	0	0	0	518	396	0	431	0	0	
5	0	0	0	0	520	397	0	446	0	0	
6	0	0	0	0	521	403	0	459	0	0	
7	0	0	0	0	523	415	0	472	0	0	
8	0	0	0	0	523	431	0	482	0	0	
9	0	0	0	0	523	449	0	488	0	0	
10	0	0	0	0	521	469	0	491	0	0	
11	0	0	0	0	519	487	0	488	0	0	
12	0	0	0	0	517	504	0	482	0	0	
13	0	0	0	0	515	516	0	472	0	0	
14	0	0	0	0	512	523	0	460	0	0	
15	0	0	0	0	511	523	0	446	0	0	
0	0	0	0	0	509	518	0	433	0	0	
1	0	0	0	0	509	507	0	421	0	0	
2	0	0	0	0	509	492	0	412	0	0	
3	0	0	0	0	511	475	0	406	0	0	
4	0	0	0	0	513	456	0	404	0	0	
5	0	0	0	0	515	438	0	406	0	0	
6	0	0	0	0	519	423	0	413	0	0	
7	0	0	0	0	521	412	0	423	0	0	
8	0	0	0	0	524	406	0	435	0	0	
9	0	0	0	0	526	406	0	448	0	0	
10	0	0	0	0	527	411	0	461	0	0	
11	0	0	0	0	527	422	0	473	0	0	
12	0	0	0	0	526	436	0	482	0	0	
13	0	0	0	0	524	454	0	487	0	0	
14	0	0	0	0	521	472	0	488	0	0	
15	0	0	0	0	519	489	0	486	0	0	
0	0	0	0	0	516	505	0	479	0	0	
1	0	0	0	0	513	515	0	469	0	0	
2	0	0	0	0	512	521	0	456	0	0	
3	0	0	0	0	511	521	0	443	0	0	
4	0	0	0	0	510	516	0	430	0	0	
5	0	0	0	0	511	505	0	419	0	0	
6	0	0	0	0	512	490	0	410	0	0	
7	0	0	0	0	515	472	0	405	0	0	
8	0	0	0	0	518	454	0	404	0	0	
9	0	0	0	0	522	437	0	408	0	0	
10	0	0	0	0	526	423	0	415	0	0	
11	0	0	0	0	529	412	0	426	0	0	
12	0	0	0	0	532	406	0	439	0	0	
13	0	0	0	0	535	407	0	454	0	0	
14	0	0	0	0	535	412	0	468	0	0	
15	0	0	0	0	536	424	0	480	0	0	
0	0	0	0	0	535	439	0	491	0	0	
1	0	0	0	0	533	457	0	497	0	0	
2	0	0	0	0	531	476	0	499	0	0	
3	0	0	0	0	527	494	0	497	0	0	
4	0	0	0	0	524	510	0	490	0	0	
5	0	0	0	0	521	521	0	480	0	0	
6	0	0	0	0	518	528	0	467	0	0	
7	0	0	0	0	516	528	0	453	0	0	
8	0	0	0	0	515	523	0	439	0	0	
9	0	0	0	0	516	512	0	427	0	0	
10	0	0	0	0	516	497	0	417	0	0	
11	0	0	0	0	519	479	0	411	0	0	
12	0	0	0	0	521	460	0	409	0	0	
13	0	0	0	0	525	442	0	411	0	0	
14	0	0	0	0	528	427	0	418	0	0	
15	0	0	0	0	531	415	0	428	0	0	
0	0	0	0	0	534	409	0	441	0	0	
1	0	0	0	0	536	409	0	455	0	0	
2	0	0	0	0	536	414	0	470	0	0	
3	0	0	0	0	536	425	0	482	0	0	
4	0	0	0	0	536	440	0	492	0	0	
5	0	0	0	0	534	458	0	499	0	0	
6	0	0	0	0	531	477	0	501	0	0	
7	0	0	0	0	528	496	0	498	0	0	
8	0	0	0	0	525	511	0	491	0	0	
9	0	0	0	0	523	522	0	480	0	0	
10	0	0	0	0	520	528	0	467	0	0	
11	0	0	0	0	519	527	0	454	0	0	
12	0	0	0	0	518	523	0	440	0	0	
13	0	0	0	0	519	512	0	427	0	0	
14	0	0	0	0	519	497	0	417	0	0	
15	0	0	0	0	521	480	0	412	0	0	
0	0	0	0	0	523	462	0	411	0	0	
1	0	0	0	0	525	444	0	414	0	0	
2	0	0	0	0	528	429	0	421	0	0	
3	0	0	0	0	531	418	0	432	0	0	
4	0	0	0	0	534	412	0	445	0	0	
5	0	0	0	0	535	411	0	460	0	0	
6	0	0	0	0	535	417	0	473	0	0	
7	0	0	0	0	535	428	0	485	0	0	
8	0	0	0	0	534	442	0	495	0	0	
9	0	0	0	0	531	459	0	500	0	0	
10	0	0	0	0	527	477	0	501	0	0	
11	0	0	0	0	524	493	0	498	0	0	
12	0	0	0	0	520	508	0	489	0	0	
13	0	0	0	0	516	517	0	479	0	0	
14	0	0	0	0	513	523	0	465	0	0	
15	0	0	0	0	511	521	0	451	0	0	
0	0	0	0	0	510	515	0	436	0	0	
1	0	0	0	0	509	503	0	424	0	0	
2	0	0	0	0	510	487	0	414	0	0	
3	0	0	0	0	512	470	0	408	0	0	
4	0	0	0	0	514	451	0	407	0	0	
5	0	0	0	0	518	434	0	409	0	0	
6	0	0	0	0	522	419	0	416	0	0	
7	0	0	0	0	525	408	0	427	0	0	
8	0	0	0	0	528	403	0	439	0	0	
9	0	0	0	0	530	402	0	454	0	0	
10	0	0	0	0	531	409	0	467	0	0	
11	0	0	0	0	531	421	0	479	0	0	
12	0	0	0	0	530	436	0	489	0	0	
13	0	0	0	0	529	454	0	495	0	0	
14	0	0	0	0	526	473	0	497	0	0	
15	0	0	0	0	523	491	0	494	0	0	
0	0	0	0	0	519	506	0	487	0	0	
1	0	0	0	0	516	516	0	476	0	0	
2	0	0	0	0	513	521	0	462	0	0	
3	0	0	0	0	512	521	0	449	0	0	
4	0	0	0	0	510	514	0	435	0	0	
5	0	0	0	0	511	503	0	422	0	0	
6	0	0	0	0	512	487	0	412	0	0	
7	0	0	0	0	514	468	0	406	0	0	
8	0	0	0	0	516	448	0	403	0	0	
9	0	0	0	0	519	431	0	406	0	0	
10	0	0	0	0	523	416	0	412	0	0	
11	0	0	0	0	527	405	0	423	0	0	
12	0	0	0	0	529	400	0	436	0	0	
13	0	0	0	0	531	400	0	451	0	0	
14	0	0	0	0	532	407	0	464	0	0	
15	0	0	0	0	533	419	0	477	0	0	
0	0	0	0	0	532	435	0	487	0	0	
1	0	0	0	0	531	453	0	494	0	0	
2	0	0	0	0	529	472	0	496	0	0	
3	0	0	0	0	526	491	0	493	0	0	
4	0	0	0	0	523	506	0	486	0	0	
5	0	0	0	0	520	516	0	476	0	0	
6	0	0	0	0	517	521	0	462	0	0	
7	0	0	0	0	515	520	0	448	0	0	
8	0	0	0	0	513	513	0	433	0	0	
9	0	0	0	0	512	501	0	420	0	0	
10	0	0	0	0	512	485	0	410	0	0	
11	0	0	0	0	512	467	0	403	0	0	
12	0	0	0	0	513	447	0	400	0	0	
13	0	0	0	0	516	430	0	403	0	0	
14	0	0	0	0	519	414	0	410	0	0	
15	0	0	0	0	521	403	0	421	0	0	
0	0	0	0	0	524	398	0	434	0	0	
1	0	0	0	0	526	398	0	450	0	0	
2	0	0	0	0	528	406	0	464	0	0	
3	0	0	0	0	530	417	0	478	0	0	
4	0	0	0	0	530	434	0	489	0	0	
5	0	0	0	0	530	453	0	497	0	0	
6	0	0	0	0	528	472	0	500	0	0	
7	0	0	0	0	526	491	0	498	0	0	
8	0	0	0	0	524	507	0	492	0	0	
9	0	0	0	0	521	517	0	481	0	0	
10	0	0	0	0	519	523	0	469	0	0	
11	0	0	0	0	516	521	0	455	0	0	
12	0	0	0	0	515	514	0	440	0	0	
13	0	0	0	0	514	503	0	428	0	0	
14	0	0	0	0	513	486	0	417	0	0	
15	0	0	0	0	514	467	0	411	0	0	
0	0	0	0	0	515	447	0	408	0	0	
1	0	0	0	0	516	428	0	409	0	0	
2	0	0	0	0	518	413	0	415	0	0	
3	0	0	0	0	519	401	0	424	0	0	
4	0	0	0	0	521	395	0	437	0	0	
5	0	0	0	0	522	395	0	450	0	0	
6	0	0	0	0	522	401	0	463	0	0	
7	0	0	0	0	521	412	0	475	0	0	
8	0	0	0	0	521	428	0	484	0	0	
9	0	0	0	0	519	446	0	490	0	0	
10	0	0	0	0	518	465	0	493	0	0	
11	0	0	0	0	515	483	0	491	0	0	
12	0	0	0	0	513	499	0	485	0	0	
13	0	0	0	0	512	510	0	476	0	0	
14	0	0	0	0	511	515	0	464	0	0	
15	0	0	0	0	510	515	0	451	0	0	
0	0	0	0	0	510	509	0	439	0	0	
1	0	0	0	0	511	497	0	427	0	0	
2	0	0	0	0	512	482	0	418	0	0	
3	0	0	0	0	514	464	0	412	0	0	
4	0	0	0	0	516	445	0	410	0	0	
5	0	0	0	0	518	428	0	412	0	0	
6	0	0	0	0	521	413	0	419	0	0	
7	0	0	0	0	523	403	0	429	0	0	
8	0	0	0	0	525	398	0	441	0	0	
9	0	0	0	0	527	399	0	455	0	0	
10	0	0	0	0	527	406	0	468	0	0	
11	0	0	0	0	528	418	0	480	0	0	
12	0	0	0	0	527	434	0	490	0	0	
13	0	0	0	0	526	453	0	496	0	0	
14	0	0	0	0	525	472	0	498	0	0	
15	0	0	0	0	522	491	0	496	0	0	
0	0	0	0	0	519	506	0	489	0	0	
1	0	0	0	0	518	517	0	480	0	0	
2	0	0	0	0	515	522	0	467	0	0	
3	0	0	0	0	514	520	0	454	0	0	
4	0	0	0	0	513	514	0	440	0	0	
5	0	0	0	0	513	502	0	428	0	0	
6	0	0	0	0	514	486	0	419	0	0	
7	0	0	0	0	515	468	0	413	0	0	
8	0	0	0	0	517	448	0	412	0	0	
9	0	0	0	0	519	431	0	413	0	0	
10	0	0	0	0	521	415	0	420	0	0	
11	0	0	0	0	524	406	0	431	0	0	
12	0	0	0	0	525	400	0	443	0	0	
13	0	0	0	0	527	401	0	456	0	0	
14	0	0	0	0	527	407	0	470	0	0	
15	0	0	0	0	527	419	0	480	0	0	
0	0	0	0	0	526	435	0	490	0	0	
1	0	0	0	0	524	452	0	495	0	0	
2	0	0	0	0	522	471	0	496	0	0	
3	0	0	0	0	519	489	0	493	0	0	
4	0	0	0	0	517	504	0	486	0	0	
5	0	0	0	0	515	515	0	475	0	0	
6	0	0	0	0	514	520	0	462	0	0	
7	0	0	0	0	513	519	0	449	0	0	
8	0	0	0	0	513	513	0	435	0	0	
9	0	0	0	0	514	502	0	424	0	0	
10	0	0	0	0	515	487	0	415	0	0	
11	0	0	0	0	518	468	0	409	0	0	
12	0	0	0	0	520	450	0	408	0	0	
13	0	0	0	0	522	432	0	411	0	0	
14	0	0	0	0	525	417	0	418	0	0	
15	0	0	0	0	527	407	0	429	0	0	
0	0	0	0	0	528	401	0	441	0	0	
1	0	0	0	0	528	402	0	454	0	0	
2	0	0	0	0	527	408	0	468	0	0	
3	0	0	0	0	527	420	0	480	0	0	
4	0	0	0	0	525	435	0	488	0	0	
5	0	0	0	0	523	453	0	494	0	0	
6	0	0	0	0	520	472	0	495	0	0	
7	0	0	0	0	517	489	0	492	0	0	
8	0	0	0	0	515	504	0	484	0	0	
9	0	0	0	0	513	514	0	474	0	0	
10	0	0	0	0	511	519	0	462	0	0	
11	0	0	0	0	511	518	0	448	0	0	
12	0	0	0	0	511	511	0	435	0	0	
13	0	0	0	0	512	499	0	423	0	0	
14	0	0	0	0	513	483	0	415	0	0	
15	0	0	0	0	514	464	0	410	0	0	
0	0	0	0	0	517	446	0	409	0	0	
1	0	0	0	0	519	427	0	413	0	0	
2	0	0	0	0	523	413	0	420	0	0	
3	0	0	0	0	526	403	0	432	0	0	
4	0	0	0	0	527	397	0	444	0	0	
5	0	0	0	0	528	398	0	458	0	0	
6	0	0	0	0	529	406	0	471	0	0	
7	0	0	0	0	529	417	0	483	0	0	
8	0	0	0	0	528	434	0	492	0	0	
9	0	0	0	0	526	453	0	498	0	0	
10	0	0	0	0	524	472	0	499	0	0	
11	0	0	0	0	521	491	0	496	0	0	
12	0	0	0	0	519	507	0	488	0	0	
13	0	0	0	0	516	517	0	477	0	0	
14	0	0	0	0	514	523	0	464	0	0	
15	0	0	0	0	512	522	0	451	0	0	
0	0	0	0	0	511	515	0	437	0	0	
1	0	0	0	0	511	503	0	425	0	0	
2	0	0	0	0	512	487	0	416	0	0	
3	0	0	0	0	513	468	0	410	0	0	
4	0	0	0	0	515	448	0	409	0	0	
5	0	0	0	0	517	430	0	412	0	0	
6	0	0	0	0	520	414	0	420	0	0	
7	0	0	0	0	523	403	0	431	0	0	
8	0	0	0	0	526	398	0	444	0	0	
9	0	0	0	0	527	398	0	458	0	0	
10	0	0	0	0	527	405	0	471	0	0	
11	0	0	0	0	527	416	0	483	0	0	
12	0	0	0	0	527	432	0	492	0	0	
13	0	0	0	0	524	449	0	497	0	0	
14	0	0	0	0	521	467	0	498	0	0	
15	0	0	0	0	518	486	0	494	0	0	
0	0	0	0	0	514	500	0	486	0	0	
1	0	0	0	0	511	510	0	475	0	0	
2	0	0	0	0	507	514	0	460	0	0	
3	0	0	0	0	505	512	0	446	0	0	
4	0	0	0	0	503	505	0	431	0	0	
5	0	0	0	0	503	494	0	418	0	0	
6	0	0	0	0	503	477	0	407	0	0	
7	0	0	0	0	504	459	0	400	0	0	
8	0	0	0	0	505	439	0	398	0	0	
9	0	0	0	0	507	422	0	400	0	0	
10	0	0	0	0	510	407	0	408	0	0	
11	0	0	0	0	513	396	0	418	0	0	
12	0	0	0	0	515	391	0	431	0	0	
13	0	0	0	0	516	391	0	445	0	0	
14	0	0	0	0	516	399	0	459	0	0	
15	0	0	0	0	516	410	0	471	0	0	
0	0	0	0	0	516	426	0	481	0	0	
1	0	0	0	0	515	445	0	487	0	0	
2	0	0	0	0	513	464	0	489	0	0	
3	0	0	0	0	511	482	0	487	0	0	
4	0	0	0	0	508	497	0	480	0	0	
5	0	0	0	0	506	508	0	470	0	0	
6	0	0	0	0	504	513	0	457	0	0	
7	0	0	0	0	504	513	0	444	0	0	
8	0	0	0	0	503	506	0	430	0	0	
9	0	0	0	0	504	495	0	418	0	0	
10	0	0	0	0	504	478	0	408	0	0	
11	0	0	0	0	506	460	0	403	0	0	
12	0	0	0	0	508	442	0	401	0	0	
13	0	0	0	0	511	423	0	404	0	0	
14	0	0	0	0	514	410	0	411	0	0	
15	0	0	0	0	517	400	0	422	0	0	
0	0	0	0	0	519	395	0	435	0	0	
1	0	0	0	0	521	397	0	448	0	0	
2	0	0	0	0	521	404	0	463	0	0	
3	0	0	0	0	523	417	0	476	0	0	
4	0	0	0	0	523	433	0	486	0	0	
5	0	0	0	0	522	453	0	492	0	0	
6	0	0	0	0	521	472	0	495	0	0	
7	0	0	0	0	519	491	0	492	0	0	
8	0	0	0	0	517	506	0	486	0	0	
9	0	0	0	0	515	516	0	476	0	0	
10	0	0	0	0	514	521	0	464	0	0	
11	0	0	0	0	513	519	0	451	0	0	
12	0	0	0	0	512	512	0	437	0	0	
13	0	0	0	0	512	500	0	426	0	0	
14	0	0	0	0	513	483	0	417	0	0	
15	0	0	0	0	514	465	0	412	0	0	
0	0	0	0	0	515	446	0	409	0	0	
1	0	0	0	0	517	428	0	412	0	0	
2	0	0	0	0	520	414	0	419	0	0	
3	0	0	0	0	522	404	0	429	0	0	
4	0	0	0	0	524	400	0	441	0	0	
5	0	0	0	0	525	402	0	455	0	0	
6	0	0	0	0	526	409	0	467	0	0	
7	0	0	0	0	526	422	0	479	0	0	
8	0	0	0	0	525	438	0	488	0	0	
9	0	0	0	0	524	456	0	494	0	0	
10	0	0	0	0	521	475	0	495	0	0	
11	0	0	0	0	519	492	0	492	0	0	
12	0	0	0	0	516	507	0	485	0	0	
13	0	0	0	0	513	516	0	475	0	0	
14	0	0	0	0	511	520	0	462	0	0	
15	0	0	0	0	509	518	0	448	0	0	
0	0	0	0	0	508	511	0	436	0	0	
1	0	0	0	0	509	499	0	425	0	0	
2	0	0	0	0	510	482	0	416	0	0	
3	0	0	0	0	512	465	0	411	0	0	
4	0	0	0	0	514	446	0	411	0	0	
5	0	0	0	0	517	430	0	414	0	0	
6	0	0	0	0	520	415	0	422	0	0	
7	0	0	0	0	524	406	0	432	0	0	
8	0	0	0	0	526	402	0	445	0	0	
9	0	0	0	0	527	404	0	459	0	0	
10	0	0	0	0	527	411	0	471	0	0	
11	0	0	0	0	527	423	0	483	0	0	
12	0	0	0	0	526	439	0	491	0	0	
13	0	0	0	0	524	457	0	496	0	0	
14	0	0	0	0	521	476	0	496	0	0	
15	0	0	0	0	518	493	0	493	0	0	
0	0	0	0	0	516	508	0	485	0	0	
1	0	0	0	0	513	517	0	475	0	0	
2	0	0	0	0	511	523	0	462	0	0	
3	0	0	0	0	511	521	0	448	0	0	
4	0	0	0	0	511	515	0	435	0	0	
5	0	0	0	0	512	503	0	423	0	0	
6	0	0	0	0	514	487	0	415	0	0	
7	0	0	0	0	516	469	0	409	0	0	
8	0	0	0	0	519	450	0	408	0	0	
9	0	0	0	0	521	431	0	409	0	0	
10	0	0	0	0	523	415	0	415	0	0	
11	0	0	0	0	523	402	0	423	0	0	
12	0	0	0	0	521	393	0	432	0	0	
13	0	0	0	0	517	389	0	441	0	0	
14	0	0	0	0	510	389	0	449	0	0	
15	0	0	0	0	502	393	0	453	0	0	
0	0	0	0	0	492	401	0	453	0	0	
1	0	0	0	0	479	409	0	449	0	0	
2	0	0	0	0	465	418	0	440	0	0	
3	0	0	0	0	449	425	0	425	0	0	
4	0	0	0	0	434	429	0	406	0	0	
5	0	0	0	0	418	427	0	383	0	0	
6	0	0	0	0	403	421	0	359	0	0	
7	0	0	0	0	388	408	0	333	0	0	
8	0	0	0	0	374	390	0	307	0	0	
9	0	0	0	0	362	365	0	284	0	0	
10	0	0	0	0	351	337	0	262	0	0	
11	0	0	0	0	341	307	0	245	0	0	
12	0	0	0	0	332	275	0	231	0	0	
13	0	0	0	0	323	245	0	222	0	0	
14	0	0	0	0	316	217	0	218	0	0	
15	0	0	0	0	308	193	0	217	0	0	
0	0	0	0	0	301	176	0	221	0	0	
1	0	0	0	0	294	165	0	226	0	0	
2	0	0	0	0	287	162	0	233	0	0	
3	0	0	0	0	281	167	0	241	0	0	
4	0	0	0	0	278	179	0	249	0	0	
5	0	0	0	0	276	198	0	256	0	0	
6	0	0	0	0	278	221	0	263	0	0	
7	0	0	0	0	281	248	0	268	0	0	
8	0	0	0	0	290	275	0	273	0	0	
9	0	0	0	0	303	301	0	278	0	0	
10	0	0	0	0	319	326	0	283	0	0	
11	0	0	0	0	340	346	0	290	0	0	
12	0	0	0	0	364	363	0	298	0	0	
13	0	0	0	0	391	376	0	309	0	0	
14	0	0	0	0	419	384	0	323	0	0	
15	0	0	0	0	448	390	0	341	0	0	
0	0	0	0	0	476	393	0	362	0	0	
1	0	0	0	0	503	394	0	386	0	0	
2	0	0	0	0	527	397	0	411	0	0	
3	0	0	0	0	547	401	0	438	0	0	
4	0	0	0	0	563	408	0	463	0	0	
5	0	0	0	0	574	419	0	488	0	0	
6	0	0	0	0	580	433	0	509	0	0	
7	0	0	0	0	583	450	0	525	0	0	
8	0	0	0	0	582	469	0	536	0	0	
9	0	0	0	0	577	488	0	541	0	0	
10	0	0	0	0	569	508	0	540	0	0	
11	0	0	0	0	561	524	0	534	0	0	
12	0	0	0	0	551	537	0	521	0	0	
13	0	0	0	0	542	544	0	505	0	0	
14	0	0	0	0	534	547	0	487	0	0	
15	0	0	0	0	526	542	0	468	0	0	
0	0	0	0	0	521	531	0	450	0	0	
1	0	0	0	0	518	516	0	435	0	0	
2	0	0	0	0	517	497	0	423	0	0	
3	0	0	0	0	518	477	0	415	0	0	
4	0	0	0	0	521	456	0	414	0	0	
5	0	0	0	0	525	438	0	417	0	0	
6	0	0	0	0	531	423	0	425	0	0	
7	0	0	0	0	537	413	0	438	0	0	
8	0	0	0	0	542	410	0	452	0	0	
9	0	0	0	0	547	412	0	470	0	0	
10	0	0	0	0	550	421	0	485	0	0	
11	0	0	0	0	553	435	0	500	0	0	
12	0	0	0	0	554	452	0	511	0	0	
13	0	0	0	0	554	472	0	518	0	0	
14	0	0	0	0	551	492	0	521	0	0	
15	0	0	0	0	548	511	0	519	0	0	
0	0	0	0	0	545	526	0	512	0	0	
1	0	0	0	0	540	536	0	501	0	0	
2	0	0	0	0	537	541	0	487	0	0	
3	0	0	0	0	534	539	0	473	0	0	
4	0	0	0	0	531	531	0	459	0	0	
5	0	0	0	0	530	519	0	446	0	0	
6	0	0	0	0	529	503	0	436	0	0	
7	0	0	0	0	530	484	0	429	0	0	
8	0	0	0	0	531	465	0	428	0	0	
9	0	0	0	0	534	447	0	431	0	0	
10	0	0	0	0	538	432	0	437	0	0	
11	0	0	0	0	541	422	0	448	0	0	
12	0	0	0	0	543	417	0	462	0	0	
13	0	0	0	0	546	418	0	476	0	0	
14	0	0	0	0	547	424	0	490	0	0	
15	0	0	0	0	548	437	0	503	0	0	
0	0	0	0	0	548	452	0	513	0	0	
1	0	0	0	0	547	470	0	518	0	0	
2	0	0	0	0	545	489	0	521	0	0	
3	0	0	0	0	542	507	0	518	0	0	
4	0	0	0	0	540	522	0	511	0	0	
5	0	0	0	0	537	532	0	500	0	0	
6	0	0	0	0	535	536	0	487	0	0	
7	0	0	0	0	533	535	0	473	0	0	
8	0	0	0	0	531	528	0	459	0	0	
9	0	0	0	0	531	516	0	447	0	0	
10	0	0	0	0	532	501	0	437	0	0	
11	0	0	0	0	534	483	0	431	0	0	
12	0	0	0	0	535	464	0	428	0	0	
13	0	0	0	0	538	447	0	432	0	0	
14	0	0	0	0	541	433	0	438	0	0	
15	0	0	0	0	543	423	0	449	0	0	
0	0	0	0	0	545	419	0	462	0	0	
1	0	0	0	0	547	422	0	476	0	0	
2	0	0	0	0	547	429	0	489	0	0	
3	0	0	0	0	547	442	0	500	0	0	
4	0	0	0	0	546	457	0	509	0	0	
5	0	0	0	0	544	477	0	515	0	0	
6	0	0	0	0	541	495	0	516	0	0	
7	0	0	0	0	538	513	0	512	0	0	
8	0	0	0	0	535	527	0	504	0	0	
9	0	0	0	0	532	536	0	493	0	0	
10	0	0	0	0	529	540	0	479	0	0	
11	0	0	0	0	527	537	0	464	0	0	
12	0	0	0	0	526	529	0	450	0	0	
13	0	0	0	0	526	516	0	437	0	0	
14	0	0	0	0	526	499	0	427	0	0	
15	0	0	0	0	527	480	0	421	0	0	
0	0	0	0	0	529	460	0	419	0	0	
1	0	0	0	0	532	442	0	422	0	0	
2	0	0	0	0	535	427	0	430	0	0	
3	0	0	0	0	538	417	0	440	0	0	
4	0	0	0	0	540	412	0	453	0	0	
5	0	0	0	0	542	412	0	467	0	0	
6	0	0	0	0	542	420	0	480	0	0	
7	0	0	0	0	542	432	0	492	0	0	
8	0	0	0	0	541	448	0	502	0	0	
9	0	0	0	0	539	467	0	507	0	0	
10	0	0	0	0	536	485	0	509	0	0	
11	0	0	0	0	532	503	0	505	0	0	
12	0	0	0	0	529	517	0	498	0	0	
13	0	0	0	0	526	527	0	487	0	0	
14	0	0	0	0	523	531	0	474	0	0	
15	0	0	0	0	521	528	0	460	0	0	
0	0	0	0	0	519	520	0	446	0	0	
1	0	0	0	0	519	508	0	435	0	0	
2	0	0	0	0	519	490	0	425	0	0	
3	0	0	0	0	521	472	0	420	0	0	
4	0	0	0	0	523	452	0	419	0	0	
5	0	0	0	0	526	434	0	422	0	0	
6	0	0	0	0	529	420	0	429	0	0	
7	0	0	0	0	532	410	0	440	0	0	
8	0	0	0	0	535	406	0	453	0	0	
9	0	0	0	0	537	408	0	467	0	0	
10	0	0	0	0	538	415	0	480	0	0	
11	0	0	0	0	539	428	0	492	0	0	
12	0	0	0	0	539	444	0	501	0	0	
13	0	0	0	0	538	463	0	506	0	0	
14	0	0	0	0	536	482	0	507	0	0	
15	0	0	0	0	533	499	0	504	0	0	
0	0	0	0	0	531	515	0	496	0	0	
1	0	0	0	0	528	524	0	485	0	0	
2	0	0	0	0	526	528	0	472	0	0	
3	0	0	0	0	524	527	0	459	0	0	
4	0	0	0	0	522	519	0	446	0	0	
5	0	0	0	0	522	507	0	434	0	0	
6	0	0	0	0	523	491	0	425	0	0	
7	0	0	0	0	524	472	0	420	0	0	
8	0	0	0	0	526	454	0	419	0	0	
9	0	0	0	0	528	437	0	423	0	0	
10	0	0	0	0	532	423	0	431	0	0	
11	0	0	0	0	535	414	0	442	0	0	
12	0	0	0	0	537	411	0	455	0	0	
13	0	0	0	0	539	412	0	469	0	0	
14	0	0	0	0	539	420	0	483	0	0	
15	0	0	0	0	540	433	0	494	0	0	
0	0	0	0	0	539	449	0	503	0	0	
1	0	0	0	0	537	467	0	509	0	0	
2	0	0	0	0	535	486	0	510	0	0	
3	0	0	0	0	531	502	0	507	0	0	
4	0	0	0	0	529	516	0	499	0	0	
5	0	0	0	0	526	525	0	488	0	0	
6	0	0	0	0	523	528	0	475	0	0	
7	0	0	0	0	520	525	0	461	0	0	
8	0	0	0	0	518	518	0	447	0	0	
9	0	0	0	0	518	504	0	435	0	0	
10	0	0	0	0	518	487	0	425	0	0	
11	0	0	0	0	518	468	0	419	0	0	
12	0	0	0	0	519	449	0	418	0	0	
13	0	0	0	0	521	432	0	420	0	0	
14	0	0	0	0	524	417	0	427	0	0	
15	0	0	0	0	526	408	0	438	0	0	
0	0	0	0	0	527	403	0	450	0	0	
1	0	0	0	0	528	405	0	463	0	0	
2	0	0	0	0	528	413	0	476	0	0	
3	0	0	0	0	528	426	0	487	0	0	
4	0	0	0	0	527	442	0	496	0	0	
5	0	0	0	0	526	460	0	501	0	0	
6	0	0	0	0	523	479	0	502	0	0	
7	0	0	0	0	520	496	0	498	0	0	
8	0	0	0	0	518	511	0	490	0	0	
9	0	0	0	0	516	520	0	479	0	0	
10	0	0	0	0	514	524	0	466	0	0	
11	0	0	0	0	513	521	0	452	0	0	
12	0	0	0	0	513	513	0	439	0	0	
13	0	0	0	0	513	500	0	427	0	0	
14	0	0	0	0	515	484	0	418	0	0	
15	0	0	0	0	516	465	0	413	0	0	
0	0	0	0	0	518	445	0	412	0	0	
1	0	0	0	0	520	428	0	416	0	0	
2	0	0	0	0	523	414	0	423	0	0	
3	0	0	0	0	525	404	0	434	0	0	
4	0	0	0	0	526	399	0	447	0	0	
5	0	0	0	0	527	401	0	460	0	0	
6	0	0	0	0	526	408	0	473	0	0	
7	0	0	0	0	526	420	0	484	0	0	
8	0	0	0	0	524	436	0	492	0	0	
9	0	0	0	0	522	454	0	497	0	0	
10	0	0	0	0	519	473	0	498	0	0	
11	0	0	0	0	516	490	0	493	0	0	
12	0	0	0	0	513	505	0	485	0	0	
13	0	0	0	0	511	514	0	473	0	0	
14	0	0	0	0	509	519	0	461	0	0	
15	0	0	0	0	508	517	0	447	0	0	
0	0	0	0	0	508	509	0	434	0	0	
1	0	0	0	0	510	497	0	423	0	0	
2	0	0	0	0	511	481	0	415	0	0	
3	0	0	0	0	513	463	0	411	0	0	
4	0	0	0	0	516	445	0	411	0	0	
5	0	0	0	0	519	428	0	415	0	0	
6	0	0	0	0	524	415	0	424	0	0	
7	0	0	0	0	527	406	0	436	0	0	
8	0	0	0	0	529	402	0	449	0	0	
9	0	0	0	0	531	404	0	464	0	0	
10	0	0	0	0	531	412	0	478	0	0	
11	0	0	0	0	531	425	0	489	0	0	
12	0	0	0	0	530	441	0	498	0	0	
13	0	0	0	0	528	460	0	503	0	0	
14	0	0	0	0	524	479	0	504	0	0	
15	0	0	0	0	522	496	0	500	0	0	
0	0	0	0	0	519	511	0	492	0	0	
1	0	0	0	0	516	520	0	481	0	0	
2	0	0	0	0	514	524	0	467	0	0	
3	0	0	0	0	513	522	0	453	0	0	
4	0	0	0	0	512	515	0	440	0	0	
5	0	0	0	0	512	502	0	427	0	0	
6	0	0	0	0	512	486	0	418	0	0	
7	0	0	0	0	514	467	0	413	0	0	
8	0	0	0	0	515	448	0	412	0	0	
9	0	0	0	0	518	431	0	415	0	0	
10	0	0	0	0	521	417	0	423	0	0	
11	0	0	0	0	523	408	0	435	0	0	
12	0	0	0	0	526	404	0	448	0	0	
13	0	0	0	0	527	406	0	462	0	0	
14	0	0	0	0	527	414	0	476	0	0	
15	0	0	0	0	528	427	0	488	0	0	
0	0	0	0	0	527	444	0	497	0	0	
1	0	0	0	0	526	463	0	503	0	0	
2	0	0	0	0	524	482	0	504	0	0	
3	0	0	0	0	522	500	0	500	0	0	
4	0	0	0	0	519	515	0	493	0	0	
5	0	0	0	0	517	524	0	482	0	0	
6	0	0	0	0	515	528	0	468	0	0	
7	0	0	0	0	513	525	0	454	0	0	
8	0	0	0	0	512	518	0	440	0	0	
9	0	0	0	0	512	504	0	428	0	0	
10	0	0	0	0	512	486	0	419	0	0	
11	0	0	0	0	514	467	0	414	0	0	
12	0	0	0	0	515	447	0	412	0	0	
13	0	0	0	0	517	429	0	415	0	0	
14	0	0	0	0	520	414	0	423	0	0	
15	0	0	0	0	523	404	0	434	0	0	
0	0	0	0	0	524	400	0	446	0	0	
1	0	0	0	0	526	402	0	461	0	0	
2	0	0	0	0	527	409	0	474	0	0	
3	0	0	0	0	528	422	0	485	0	0	
4	0	0	0	0	528	439	0	494	0	0	
5	0	0	0	0	527	458	0	499	0	0	
6	0	0	0	0	525	477	0	499	0	0	
7	0	0	0	0	522	495	0	495	0	0	
8	0	0	0	0	520	510	0	487	0	0	
9	0	0	0	0	518	519	0	476	0	0	
10	0	0	0	0	515	523	0	463	0	0	
11	0	0	0	0	513	520	0	450	0	0	
12	0	0	0	0	512	513	0	438	0	0	
13	0	0	0	0	512	500	0	426	0	0	
14	0	0	0	0	513	484	0	418	0	0	
15	0	0	0	0	514	466	0	413	0	0	
0	0	0	0	0	516	448	0	414	0	0	
1	0	0	0	0	518	430	0	418	0	0	
2	0	0	0	0	521	417	0	426	0	0	
3	0	0	0	0	524	408	0	438	0	0	
4	0	0	0	0	525	404	0	451	0	0	
5	0	0	0	0	526	407	0	466	0	0	
6	0	0	0	0	527	415	0	480	0	0	
7	0	0	0	0	527	429	0	491	0	0	
8	0	0	0	0	527	446	0	500	0	0	
9	0	0	0	0	526	464	0	505	0	0	
10	0	0	0	0	524	483	0	506	0	0	
11	0	0	0	0	521	501	0	502	0	0	
12	0	0	0	0	519	516	0	493	0	0	
13	0	0	0	0	518	526	0	481	0	0	
14	0	0	0	0	516	529	0	468	0	0	
15	0	0	0	0	515	527	0	453	0	0	
0	0	0	0	0	515	519	0	440	0	0	
1	0	0	0	0	516	507	0	428	0	0	
2	0	0	0	0	518	490	0	419	0	0	
3	0	0	0	0	519	472	0	415	0	0	
4	0	0	0	0	522	453	0	415	0	0	
5	0	0	0	0	525	436	0	419	0	0	
6	0	0	0	0	528	422	0	427	0	0	
7	0	0	0	0	531	412	0	439	0	0	
8	0	0	0	0	533	408	0	453	0	0	
9	0	0	0	0	534	411	0	467	0	0	
10	0	0	0	0	534	418	0	481	0	0	
11	0	0	0	0	534	431	0	492	0	0	
12	0	0	0	0	532	447	0	502	0	0	
13	0	0	0	0	530	465	0	506	0	0	
14	0	0	0	0	527	484	0	506	0	0	
15	0	0	0	0	524	501	0	502	0	0	
0	0	0	0	0	521	515	0	495	0	0	
1	0	0	0	0	519	524	0	484	0	0	
2	0	0	0	0	518	528	0	471	0	0	
3	0	0	0	0	516	526	0	457	0	0	
4	0	0	0	0	517	518	0	445	0	0	
5	0	0	0	0	519	506	0	433	0	0	
6	0	0	0	0	520	490	0	425	0	0	
7	0	0	0	0	523	472	0	421	0	0	
8	0	0	0	0	527	455	0	421	0	0	
9	0	0	0	0	530	438	0	426	0	0	
10	0	0	0	0	534	425	0	434	0	0	
11	0	0	0	0	537	417	0	446	0	0	
12	0	0	0	0	539	413	0	459	0	0	
13	0	0	0	0	541	416	0	474	0	0	
14	0	0	0	0	542	424	0	487	0	0	
15	0	0	0	0	543	437	0	499	0	0	
0	0	0	0	0	542	453	0	508	0	0	
1	0	0	0	0	541	471	0	513	0	0	
2	0	0	0	0	538	489	0	514	0	0	
3	0	0	0	0	536	506	0	510	0	0	
4	0	0	0	0	534	521	0	502	0	0	
5	0	0	0	0	531	529	0	491	0	0	
6	0	0	0	0	529	534	0	477	0	0	
7	0	0	0	0	527	531	0	463	0	0	
8	0	0	0	0	526	523	0	449	0	0	
9	0	0	0	0	526	511	0	438	0	0	
10	0	0	0	0	526	494	0	429	0	0	
11	0	0	0	0	526	476	0	423	0	0	
12	0	0	0	0	527	457	0	423	0	0	
13	0	0	0	0	529	440	0	427	0	0	
14	0	0	0	0	531	427	0	435	0	0	
15	0	0	0	0	533	417	0	446	0	0	
0	0	0	0	0	534	413	0	459	0	0	
1	0	0	0	0	535	415	0	473	0	0	
2	0	0	0	0	535	423	0	486	0	0	
3	0	0	0	0	534	435	0	497	0	0	
4	0	0	0	0	533	451	0	506	0	0	
5	0	0	0	0	531	469	0	510	0	0	
6	0	0	0	0	528	486	0	511	0	0	
7	0	0	0	0	524	503	0	506	0	0	
8	0	0	0	0	521	516	0	497	0	0	
9	0	0	0	0	519	525	0	486	0	0	
10	0	0	0	0	515	527	0	472	0	0	
11	0	0	0	0	515	524	0	459	0	0	
12	0	0	0	0	513	515	0	445	0	0	
13	0	0	0	0	514	502	0	432	0	0	
14	0	0	0	0	515	484	0	423	0	0	
15	0	0	0	0	517	466	0	418	0	0	
0	0	0	0	0	519	447	0	418	0	0	
1	0	0	0	0	523	430	0	421	0	0	
2	0	0	0	0	526	416	0	429	0	0	
3	0	0	0	0	529	407	0	440	0	0	
4	0	0	0	0	532	403	0	454	0	0	
5	0	0	0	0	533	406	0	468	0	0	
6	0	0	0	0	534	414	0	481	0	0	
7	0	0	0	0	534	427	0	493	0	0	
8	0	0	0	0	532	444	0	501	0	0	
9	0	0	0	0	531	462	0	505	0	0	
10	0	0	0	0	527	481	0	505	0	0	
11	0	0	0	0	524	497	0	500	0	0	
12	0	0	0	0	521	512	0	492	0	0	
13	0	0	0	0	519	520	0	480	0	0	
14	0	0	0	0	517	524	0	466	0	0	
15	0	0	0	0	515	522	0	452	0	0	
0	0	0	0	0	515	514	0	440	0	0	
1	0	0	0	0	516	502	0	429	0	0	
2	0	0	0	0	518	485	0	421	0	0	
3	0	0	0	0	520	467	0	417	0	0	
4	0	0	0	0	523	449	0	418	0	0	
5	0	0	0	0	526	433	0	423	0	0	
6	0	0	0	0	529	420	0	433	0	0	
7	0	0	0	0	532	412	0	445	0	0	
8	0	0	0	0	534	408	0	459	0	0	
9	0	0	0	0	536	411	0	473	0	0	
10	0	0	0	0	536	419	0	487	0	0	
11	0	0	0	0	536	432	0	498	0	0	
12	0	0	0	0	535	447	0	506	0	0	
13	0	0	0	0	533	465	0	510	0	0	
14	0	0	0	0	529	483	0	510	0	0	
15	0	0	0	0	526	499	0	504	0	0	
0	0	0	0	0	522	512	0	495	0	0	
1	0	0	0	0	519	521	0	483	0	0	
2	0	0	0	0	517	524	0	469	0	0	
3	0	0	0	0	515	521	0	455	0	0	
4	0	0	0	0	514	512	0	441	0	0	
5	0	0	0	0	515	499	0	428	0	0	
6	0	0	0	0	515	482	0	420	0	0	
7	0	0	0	0	516	464	0	415	0	0	
8	0	0	0	0	518	446	0	415	0	0	
9	0	0	0	0	520	430	0	418	0	0	
10	0	0	0	0	523	416	0	427	0	0	
11	0	0	0	0	525	407	0	438	0	0	
12	0	0	0	0	527	404	0	452	0	0	
13	0	0	0	0	527	407	0	466	0	0	
14	0	0	0	0	528	415	0	480	0	0	
15	0	0	0	0	527	428	0	492	0	0	
0	0	0	0	0	527	444	0	501	0	0	
1	0	0	0	0	525	464	0	506	0	0	
2	0	0	0	0	523	483	0	507	0	0	
3	0	0	0	0	519	499	0	504	0	0	
4	0	0	0	0	517	513	0	495	0	0	
5	0	0	0	0	515	521	0	484	0	0	
6	0	0	0	0	512	525	0	471	0	0	
7	0	0	0	0	511	521	0	457	0	0	
8	0	0	0	0	511	513	0	444	0	0	
9	0	0	0	0	512	500	0	432	0	0	
10	0	0	0	0	513	483	0	423	0	0	
11	0	0	0	0	515	464	0	418	0	0	
12	0	0	0	0	517	445	0	417	0	0	
13	0	0	0	0	520	428	0	421	0	0	
14	0	0	0	0	523	415	0	429	0	0	
15	0	0	0	0	526	406	0	440	0	0	
0	0	0	0	0	527	403	0	453	0	0	
1	0	0	0	0	529	406	0	467	0	0	
2	0	0	0	0	529	414	0	480	0	0	
3	0	0	0	0	529	428	0	491	0	0	
4	0	0	0	0	528	444	0	499	0	0	
5	0	0	0	0	526	463	0	504	0	0	
6	0	0	0	0	523	480	0	504	0	0	
7	0	0	0	0	520	498	0	500	0	0	
8	0	0	0	0	517	511	0	492	0	0	
9	0	0	0	0	515	519	0	480	0	0	
10	0	0	0	0	513	523	0	467	0	0	
11	0	0	0	0	512	520	0	453	0	0	
12	0	0	0	0	511	511	0	440	0	0	
13	0	0	0	0	512	499	0	429	0	0	
14	0	0	0	0	514	481	0	421	0	0	
15	0	0	0	0	515	463	0	416	0	0	
0	0	0	0	0	518	445	0	415	0	0	
1	0	0	0	0	520	428	0	421	0	0	
2	0	0	0	0	524	416	0	429	0	0	
3	0	0	0	0	526	407	0	441	0	0	
4	0	0	0	0	528	405	0	454	0	0	
5	0	0	0	0	529	408	0	468	0	0	
6	0	0	0	0	529	416	0	481	0	0	
7	0	0	0	0	529	429	0	492	0	0	
8	0	0	0	0	529	446	0	500	0	0	
9	0	0	0	0	527	464	0	505	0	0	
10	0	0	0	0	525	483	0	504	0	0	
11	0	0	0	0	522	500	0	499	0	0	
12	0	0	0	0	519	513	0	491	0	0	
13	0	0	0	0	517	522	0	479	0	0	
14	0	0	0	0	515	524	0	465	0	0	
15	0	0	0	0	513	521	0	451	0	0	
0	0	0	0	0	513	511	0	439	0	0	
1	0	0	0	0	513	498	0	427	0	0	
2	0	0	0	0	513	480	0	419	0	0	
3	0	0	0	0	515	462	0	415	0	0	
4	0	0	0	0	517	443	0	414	0	0	
5	0	0	0	0	519	426	0	418	0	0	
6	0	0	0	0	522	412	0	427	0	0	
7	0	0	0	0	524	403	0	438	0	0	
8	0	0	0	0	525	399	0	450	0	0	
9	0	0	0	0	526	401	0	464	0	0	
10	0	0	0	0	526	409	0	476	0	0	
11	0	0	0	0	525	423	0	487	0	0	
12	0	0	0	0	524	440	0	496	0	0	
13	0	0	0	0	522	459	0	499	0	0	
14	0	0	0	0	519	478	0	499	0	0	
15	0	0	0	0	517	495	0	495	0	0	
0	0	0	0	0	515	509	0	487	0	0	
1	0	0	0	0	513	518	0	476	0	0	
2	0	0	0	0	512	521	0	463	0	0	
3	0	0	0	0	511	519	0	451	0	0	
4	0	0	0	0	511	510	0	437	0	0	
5	0	0	0	0	512	498	0	426	0	0	
6	0	0	0	0	513	481	0	418	0	0	
7	0	0	0	0	515	462	0	414	0	0	
8	0	0	0	0	517	443	0	414	0	0	
9	0	0	0	0	519	427	0	418	0	0	
10	0	0	0	0	523	413	0	426	0	0	
11	0	0	0	0	524	404	0	438	0	0	
12	0	0	0	0	527	401	0	451	0	0	
13	0	0	0	0	527	404	0	465	0	0	
14	0	0	0	0	527	413	0	477	0	0	
15	0	0	0	0	527	427	0	488	0	0	
0	0	0	0	0	526	444	0	497	0	0	
1	0	0	0	0	524	463	0	500	0	0	
2	0	0	0	0	522	483	0	502	0	0	
3	0	0	0	0	519	499	0	497	0	0	
4	0	0	0	0	516	514	0	488	0	0	
5	0	0	0	0	514	522	0	477	0	0	
6	0	0	0	0	512	525	0	464	0	0	
7	0	0	0	0	511	521	0	450	0	0	
8	0	0	0	0	510	513	0	437	0	0	
9	0	0	0	0	511	499	0	427	0	0	
10	0	0	0	0	512	482	0	419	0	0	
11	0	0	0	0	514	463	0	415	0	0	
12	0	0	0	0	517	444	0	415	0	0	
13	0	0	0	0	519	427	0	419	0	0	
14	0	0	0	0	523	413	0	428	0	0	
15	0	0	0	0	525	404	0	440	0	0	
0	0	0	0	0	527	401	0	453	0	0	
1	0	0	0	0	528	404	0	467	0	0	
2	0	0	0	0	529	414	0	479	0	0	
3	0	0	0	0	529	427	0	490	0	0	
4	0	0	0	0	528	444	0	498	0	0	
5	0	0	0	0	527	464	0	502	0	0	
6	0	0	0	0	524	483	0	501	0	0	
7	0	0	0	0	521	501	0	496	0	0	
8	0	0	0	0	518	515	0	487	0	0	
9	0	0	0	0	515	524	0	476	0	0	
10	0	0	0	0	514	528	0	463	0	0	
11	0	0	0	0	512	525	0	449	0	0	
12	0	0	0	0	512	518	0	436	0	0	
13	0	0	0	0	513	505	0	426	0	0	
14	0	0	0	0	514	488	0	418	0	0	
15	0	0	0	0	516	470	0	415	0	0	
0	0	0	0	0	519	451	0	415	0	0	
1	0	0	0	0	521	435	0	420	0	0	
2	0	0	0	0	525	421	0	429	0	0	
3	0	0	0	0	527	412	0	440	0	0	
4	0	0	0	0	530	409	0	454	0	0	
5	0	0	0	0	531	411	0	467	0	0	
6	0	0	0	0	531	420	0	480	0	0	
7	0	0	0	0	531	433	0	491	0	0	
8	0	0	0	0	530	449	0	498	0	0	
9	0	0	0	0	528	467	0	502	0	0	
10	0	0	0	0	526	486	0	502	0	0	
11	0	0	0	0	522	502	0	497	0	0	
12	0	0	0	0	519	515	0	488	0	0	
13	0	0	0	0	516	523	0	477	0	0	
14	0	0	0	0	514	525	0	464	0	0	
15	0	0	0	0	512	521	0	450	0	0	
0	0	0	0	0	511	512	0	436	0	0	
1	0	0	0	0	510	498	0	425	0	0	
2	0	0	0	0	510	480	0	417	0	0	
3	0	0	0	0	511	461	0	412	0	0	
4	0	0	0	0	512	443	0	412	0	0	
5	0	0	0	0	515	425	0	415	0	0	
6	0	0	0	0	517	412	0	423	0	0	
7	0	0	0	0	519	403	0	434	0	0	
8	0	0	0	0	521	399	0	448	0	0	
9	0	0	0	0	523	403	0	461	0	0	
10	0	0	0	0	524	411	0	474	0	0	
11	0	0	0	0	525	425	0	485	0	0	
12	0	0	0	0	525	442	0	493	0	0	
13	0	0	0	0	524	461	0	497	0	0	
14	0	0	0	0	522	481	0	498	0	0	
15	0	0	0	0	519	497	0	494	0	0	
0	0	0	0	0	517	512	0	485	0	0	
1	0	0	0	0	515	521	0	474	0	0	
2	0	0	0	0	513	524	0	461	0	0	
3	0	0	0	0	512	521	0	447	0	0	
4	0	0	0	0	511	512	0	434	0	0	
5	0	0	0	0	511	499	0	422	0	0	
6	0	0	0	0	512	481	0	414	0	0	
7	0	0	0	0	513	462	0	409	0	0	
8	0	0	0	0	515	443	0	408	0	0	
9	0	0	0	0	517	426	0	412	0	0	
10	0	0	0	0	520	411	0	420	0	0	
11	0	0	0	0	523	402	0	432	0	0	
12	0	0	0	0	524	398	0	444	0	0	
13	0	0	0	0	525	400	0	458	0	0	
14	0	0	0	0	525	409	0	471	0	0	
15	0	0	0	0	524	422	0	482	0	0	
0	0	0	0	0	523	438	0	490	0	0	
1	0	0	0	0	521	457	0	495	0	0	
2	0	0	0	0	518	476	0	495	0	0	
3	0	0	0	0	514	494	0	491	0	0	
4	0	0	0	0	512	508	0	483	0	0	
5	0	0	0	0	510	518	0	472	0	0	
6	0	0	0	0	508	521	0	460	0	0	
7	0	0	0	0	507	519	0	446	0	0	
8	0	0	0	0	508	512	0	433	0	0	
9	0	0	0	0	509	499	0	422	0	0	
10	0	0	0	0	511	484	0	414	0	0	
11	0	0	0	0	513	465	0	409	0	0	
12	0	0	0	0	517	447	0	410	0	0	
13	0	0	0	0	520	431	0	414	0	0	
14	0	0	0	0	524	417	0	423	0	0	
15	0	0	0	0	527	409	0	434	0	0	
0	0	0	0	0	530	406	0	448	0	0	
1	0	0	0	0	531	408	0	461	0	0	
2	0	0	0	0	531	417	0	475	0	0	
3	0	0	0	0	532	431	0	487	0	0	
4	0	0	0	0	531	447	0	495	0	0	
5	0	0	0	0	529	465	0	499	0	0	
6	0	0	0	0	525	484	0	499	0	0	
7	0	0	0	0	522	500	0	495	0	0	
8	0	0	0	0	519	514	0	486	0	0	
9	0	0	0	0	516	522	0	474	0	0	
10	0	0	0	0	514	524	0	460	0	0	
11	0	0	0	0	511	520	0	446	0	0	
12	0	0	0	0	511	510	0	432	0	0	
13	0	0	0	0	511	496	0	420	0	0	
14	0	0	0	0	511	480	0	412	0	0	
15	0	0	0	0	512	460	0	408	0	0	
0	0	0	0	0	514	441	0	408	0	0	
1	0	0	0	0	516	425	0	411	0	0	
2	0	0	0	0	519	412	0	420	0	0	
3	0	0	0	0	522	403	0	432	0	0	
4	0	0	0	0	524	400	0	444	0	0	
5	0	0	0	0	526	404	0	459	0	0	
6	0	0	0	0	526	412	0	471	0	0	
7	0	0	0	0	527	427	0	481	0	0	
8	0	0	0	0	526	444	0	489	0	0	
9	0	0	0	0	524	462	0	493	0	0	
10	0	0	0	0	522	480	0	493	0	0	
11	0	0	0	0	519	498	0	487	0	0	
12	0	0	0	0	516	511	0	479	0	0	
13	0	0	0	0	514	519	0	467	0	0	
14	0	0	0	0	512	521	0	454	0	0	
15	0	0	0	0	511	518	0	440	0	0	
0	0	0	0	0	511	509	0	426	0	0	
1	0	0	0	0	512	496	0	415	0	0	
2	0	0	0	0	513	479	0	408	0	0	
3	0	0	0	0	515	460	0	404	0	0	
4	0	0	0	0	517	441	0	405	0	0	
5	0	0	0	0	520	425	0	411	0	0	
6	0	0	0	0	524	412	0	420	0	0	
7	0	0	0	0	527	404	0	433	0	0	
8	0	0	0	0	529	401	0	448	0	0	
9	0	0	0	0	531	404	0	463	0	0	
10	0	0	0	0	531	414	0	476	0	0	
11	0	0	0	0	531	426	0	487	0	0	
12	0	0	0	0	528	441	0	493	0	0	
13	0	0	0	0	524	458	0	495	0	0	
14	0	0	0	0	518	473	0	491	0	0	
15	0	0	0	0	510	486	0	481	0	0	
0	0	0	0	0	502	494	0	466	0	0	
1	0	0	0	0	492	495	0	447	0	0	
2	0	0	0	0	481	490	0	425	0	0	
3	0	0	0	0	471	478	0	402	0	0	
4	0	0	0	0	459	459	0	378	0	0	
5	0	0	0	0	448	435	0	356	0	0	
6	0	0	0	0	436	407	0	336	0	0	
7	0	0	0	0	426	377	0	320	0	0	
8	0	0	0	0	416	346	0	308	0	0	
9	0	0	0	0	406	317	0	300	0	0	
10	0	0	0	0	397	292	0	296	0	0	
11	0	0	0	0	387	271	0	296	0	0	
12	0	0	0	0	378	256	0	298	0	0	
13	0	0	0	0	368	247	0	301	0	0	
14	0	0	0	0	357	243	0	304	0	0	
15	0	0	0	0	346	244	0	305	0	0	
0	0	0	0	0	334	249	0	303	0	0	
1	0	0	0	0	321	257	0	298	0	0	
2	0	0	0	0	307	265	0	289	0	0	
3	0	0	0	0	294	273	0	275	0	0	
4	0	0	0	0	281	280	0	259	0	0	
5	0	0	0	0	272	283	0	241	0	0	
6	0	0	0	0	265	282	0	224	0	0	
7	0	0	0	0	262	278	0	208	0	0	
8	0	0	0	0	263	271	0	196	0	0	
9	0	0	0	0	268	263	0	188	0	0	
10	0	0	0	0	279	255	0	188	0	0	
11	0	0	0	0	295	248	0	195	0	0	
12	0	0	0	0	315	243	0	211	0	0	
13	0	0	0	0	340	243	0	235	0	0	
14	0	0	0	0	367	250	0	265	0	0	
15	0	0	0	0	396	263	0	300	0	0	
0	0	0	0	0	425	283	0	340	0	0	
1	0	0	0	0	455	309	0	380	0	0	
2	0	0	0	0	482	340	0	420	0	0	
3	0	0	0	0	507	376	0	455	0	0	
4	0	0	0	0	527	414	0	486	0	0	
5	0	0	0	0	544	451	0	508	0	0	
6	0	0	0	0	555	486	0	523	0	0	
7	0	0	0	0	562	518	0	529	0	0	
8	0	0	0	0	566	542	0	528	0	0	
9	0	0	0	0	566	559	0	520	0	0	
10	0	0	0	0	563	566	0	507	0	0	
11	0	0	0	0	559	564	0	492	0	0	
12	0	0	0	0	553	555	0	475	0	0	
13	0	0	0	0	548	539	0	458	0	0	
14	0	0	0	0	542	518	0	444	0	0	
15	0	0	0	0	536	494	0	434	0	0	
0	0	0	0	0	532	470	0	428	0	0	
1	0	0	0	0	528	447	0	428	0	0	
2	0	0	0	0	526	428	0	432	0	0	
3	0	0	0	0	525	415	0	440	0	0	
4	0	0	0	0	524	409	0	451	0	0	
5	0	0	0	0	525	409	0	464	0	0	
6	0	0	0	0	525	417	0	477	0	0	
7	0	0	0	0	526	430	0	489	0	0	
8	0	0	0	0	527	448	0	499	0	0	
9	0	0	0	0	528	467	0	504	0	0	
10	0	0	0	0	528	488	0	507	0	0	
11	0	0	0	0	528	508	0	505	0	0	
12	0	0	0	0	528	523	0	499	0	0	
13	0	0	0	0	528	534	0	490	0	0	
14	0	0	0	0	529	539	0	478	0	0	
15	0	0	0	0	529	537	0	467	0	0	
0	0	0	0	0	530	529	0	455	0	0	
1	0	0	0	0	531	518	0	445	0	0	
2	0	0	0	0	533	502	0	438	0	0	
3	0	0	0	0	535	484	0	435	0	0	
4	0	0	0	0	537	466	0	435	0	0	
5	0	0	0	0	540	449	0	440	0	0	
6	0	0	0	0	543	437	0	448	0	0	
7	0	0	0	0	546	429	0	459	0	0	
8	0	0	0	0	548	426	0	472	0	0	
9	0	0	0	0	549	429	0	485	0	0	
10	0	0	0	0	549	438	0	498	0	0	
11	0	0	0	0	548	451	0	508	0	0	
12	0	0	0	0	547	467	0	515	0	0	
13	0	0	0	0	545	486	0	519	0	0	
14	0	0	0	0	542	504	0	518	0	0	
15	0	0	0	0	539	520	0	512	0	0	
0	0	0	0	0	536	533	0	504	0	0	
1	0	0	0	0	534	540	0	492	0	0	
2	0	0	0	0	532	542	0	479	0	0	
3	0	0	0	0	530	538	0	465	0	0	
4	0	0	0	0	529	528	0	453	0	0	
5	0	0	0	0	530	515	0	441	0	0	
6	0	0	0	0	531	498	0	434	0	0	
7	0	0	0	0	533	480	0	430	0	0	
8	0	0	0	0	535	461	0	431	0	0	
9	0	0	0	0	538	445	0	435	0	0	
10	0	0	0	0	541	433	0	443	0	0	
11	0	0	0	0	543	426	0	455	0	0	
12	0	0	0	0	545	423	0	467	0	0	
13	0	0	0	0	545	428	0	480	0	0	
14	0	0	0	0	546	437	0	492	0	0	
15	0	0	0	0	545	450	0	503	0	0	
0	0	0	0	0	544	467	0	510	0	0	
1	0	0	0	0	542	485	0	513	0	0	
2	0	0	0	0	539	503	0	513	0	0	
3	0	0	0	0	535	519	0	508	0	0	
4	0	0	0	0	532	532	0	499	0	0	
5	0	0	0	0	530	539	0	487	0	0	
6	0	0	0	0	528	541	0	474	0	0	
7	0	0	0	0	527	537	0	461	0	0	
8	0	0	0	0	526	527	0	449	0	0	
9	0	0	0	0	527	514	0	438	0	0	
10	0	0	0	0	528	497	0	431	0	0	
11	0	0	0	0	531	479	0	427	0	0	
12	0	0	0	0	534	461	0	428	0	0	
13	0	0	0	0	537	444	0	434	0	0	
14	0	0	0	0	540	432	0	443	0	0	
15	0	0	0	0	543	425	0	456	0	0	
0	0	0	0	0	545	423	0	470	0	0	
1	0	0	0	0	547	427	0	485	0	0	
2	0	0	0	0	548	436	0	498	0	0	
3	0	0	0	0	548	451	0	509	0	0	
4	0	0	0	0	547	467	0	517	0	0	
5	0	0	0	0	545	486	0	521	0	0	
6	0	0	0	0	543	504	0	520	0	0	
7	0	0	0	0	540	521	0	515	0	0	
8	0	0	0	0	537	534	0	506	0	0	
9	0	0	0	0	535	541	0	494	0	0	
10	0	0	0	0	533	544	0	480	0	0	
11	0	0	0	0	531	540	0	466	0	0	
12	0	0	0	0	531	531	0	453	0	0	
13	0	0	0	0	531	518	0	442	0	0	
14	0	0	0	0	532	500	0	435	0	0	
15	0	0	0	0	534	482	0	431	0	0	
0	0	0	0	0	536	464	0	431	0	0	
1	0	0	0	0	540	447	0	436	0	0	
2	0	0	0	0	543	435	0	444	0	0	
3	0	0	0	0	545	427	0	456	0	0	
4	0	0	0	0	547	425	0	469	0	0	
5	0	0	0	0	548	428	0	483	0	0	
6	0	0	0	0	548	438	0	495	0	0	
7	0	0	0	0	548	451	0	506	0	0	
8	0	0	0	0	547	467	0	513	0	0	
9	0	0	0	0	544	484	0	517	0	0	
10	0	0	0	0	541	502	0	516	0	0	
11	0	0	0	0	537	517	0	510	0	0	
12	0	0	0	0	535	529	0	501	0	0	
13	0	0	0	0	531	535	0	488	0	0	
14	0	0	0	0	529	536	0	474	0	0	
15	0	0	0	0	527	532	0	460	0	0	
0	0	0	0	0	526	521	0	447	0	0	
1	0	0	0	0	527	508	0	436	0	0	
2	0	0	0	0	528	490	0	428	0	0	
3	0	0	0	0	530	472	0	424	0	0	
4	0	0	0	0	532	454	0	425	0	0	
5	0	0	0	0	534	438	0	430	0	0	
6	0	0	0	0	537	425	0	439	0	0	
7	0	0	0	0	540	417	0	450	0	0	
8	0	0	0	0	541	415	0	464	0	0	
9	0	0	0	0	542	419	0	478	0	0	
10	0	0	0	0	542	429	0	490	0	0	
11	0	0	0	0	541	443	0	501	0	0	
12	0	0	0	0	539	460	0	509	0	0	
13	0	0	0	0	537	478	0	512	0	0	
14	0	0	0	0	534	496	0	512	0	0	
15	0	0	0	0	531	512	0	507	0	0	
0	0	0	0	0	528	526	0	498	0	0	
1	0	0	0	0	525	533	0	487	0	0	
2	0	0	0	0	524	535	0	474	0	0	
3	0	0	0	0	522	531	0	460	0	0	
4	0	0	0	0	522	521	0	448	0	0	
5	0	0	0	0	523	508	0	438	0	0	
6	0	0	0	0	524	491	0	430	0	0	
7	0	0	0	0	527	473	0	427	0	0	
8	0	0	0	0	529	454	0	427	0	0	
9	0	0	0	0	532	438	0	432	0	0	
10	0	0	0	0	536	425	0	441	0	0	
11	0	0	0	0	538	417	0	452	0	0	
12	0	0	0	0	540	415	0	465	0	0	
13	0	0	0	0	541	418	0	479	0	0	
14	0	0	0	0	541	427	0	492	0	0	
15	0	0	0	0	541	441	0	502	0	0	
0	0	0	0	0	540	458	0	510	0	0	
1	0	0	0	0	537	476	0	514	0	0	
2	0	0	0	0	535	495	0	513	0	0	
3	0	0	0	0	531	510	0	508	0	0	
4	0	0	0	0	529	524	0	498	0	0	
5	0	0	0	0	527	531	0	487	0	0	
6	0	0	0	0	525	533	0	473	0	0	
7	0	0	0	0	524	529	0	459	0	0	
8	0	0	0	0	524	520	0	446	0	0	
9	0	0	0	0	526	506	0	436	0	0	
10	0	0	0	0	527	489	0	428	0	0	
11	0	0	0	0	530	471	0	425	0	0	
12	0	0	0	0	534	452	0	427	0	0	
13	0	0	0	0	537	436	0	432	0	0	
14	0	0	0	0	540	423	0	441	0	0	
15	0	0	0	0	543	415	0	454	0	0	
0	0	0	0	0	544	414	0	467	0	0	
1	0	0	0	0	545	417	0	480	0	0	
2	0	0	0	0	544	426	0	493	0	0	
3	0	0	0	0	543	441	0	503	0	0	
4	0	0	0	0	541	457	0	510	0	0	
5	0	0	0	0	538	476	0	512	0	0	
6	0	0	0	0	535	494	0	511	0	0	
7	0	0	0	0	531	510	0	505	0	0	
8	0	0	0	0	527	523	0	495	0	0	
9	0	0	0	0	524	530	0	482	0	0	
10	0	0	0	0	522	531	0	467	0	0	
11	0	0	0	0	520	526	0	453	0	0	
12	0	0	0	0	519	517	0	440	0	0	
13	0	0	0	0	520	503	0	428	0	0	
14	0	0	0	0	521	485	0	420	0	0	
15	0	0	0	0	524	466	0	417	0	0	
0	0	0	0	0	527	448	0	419	0	0	
1	0	0	0	0	529	432	0	424	0	0	
2	0	0	0	0	533	419	0	434	0	0	
3	0	0	0	0	536	412	0	447	0	0	
4	0	0	0	0	537	410	0	461	0	0	
5	0	0	0	0	538	414	0	476	0	0	
6	0	0	0	0	538	423	0	490	0	0	
7	0	0	0	0	537	438	0	501	0	0	
8	0	0	0	0	536	455	0	510	0	0	
9	0	0	0	0	534	473	0	513	0	0	
10	0	0	0	0	531	492	0	513	0	0	
11	0	0	0	0	528	508	0	508	0	0	
12	0	0	0	0	525	521	0	499	0	0	
13	0	0	0	0	523	528	0	487	0	0	
14	0	0	0	0	521	531	0	473	0	0	
15	0	0	0	0	520	527	0	458	0	0	
0	0	0	0	0	519	518	0	444	0	0	
1	0	0	0	0	520	504	0	433	0	0	
2	0	0	0	0	521	487	0	425	0	0	
3	0	0	0	0	523	468	0	421	0	0	
4	0	0	0	0	526	449	0	422	0	0	
5	0	0	0	0	529	432	0	427	0	0	
6	0	0	0	0	532	420	0	435	0	0	
7	0	0	0	0	535	413	0	448	0	0	
8	0	0	0	0	537	412	0	462	0	0	
9	0	0	0	0	539	416	0	475	0	0	
10	0	0	0	0	540	425	0	489	0	0	
11	0	0	0	0	540	440	0	499	0	0	
12	0	0	0	0	539	458	0	507	0	0	
13	0	0	0	0	537	477	0	511	0	0	
14	0	0	0	0	534	495	0	510	0	0	
15	0	0	0	0	531	511	0	504	0	0	
0	0	0	0	0	528	524	0	496	0	0	
1	0	0	0	0	526	531	0	484	0	0	
2	0	0	0	0	524	532	0	471	0	0	
3	0	0	0	0	523	527	0	457	0	0	
4	0	0	0	0	522	517	0	445	0	0	
5	0	0	0	0	522	503	0	433	0	0	
6	0	0	0	0	523	486	0	426	0	0	
7	0	0	0	0	524	467	0	423	0	0	
8	0	0	0	0	526	448	0	423	0	0	
9	0	0	0	0	529	432	0	428	0	0	
10	0	0	0	0	532	420	0	437	0	0	
11	0	0	0	0	534	412	0	449	0	0	
12	0	0	0	0	536	410	0	462	0	0	
13	0	0	0	0	538	415	0	476	0	0	
14	0	0	0	0	538	424	0	488	0	0	
15	0	0	0	0	538	439	0	499	0	0	
0	0	0	0	0	537	455	0	506	0	0	
1	0	0	0	0	536	475	0	509	0	0	
2	0	0	0	0	533	494	0	508	0	0	
3	0	0	0	0	530	510	0	503	0	0	
4	0	0	0	0	527	524	0	493	0	0	
5	0	0	0	0	524	530	0	481	0	0	
6	0	0	0	0	522	532	0	467	0	0	
7	0	0	0	0	521	528	0	454	0	0	
8	0	0	0	0	520	519	0	441	0	0	
9	0	0	0	0	521	505	0	430	0	0	
10	0	0	0	0	522	487	0	423	0	0	
11	0	0	0	0	524	470	0	420	0	0	
12	0	0	0	0	527	451	0	422	0	0	
13	0	0	0	0	530	435	0	428	0	0	
14	0	0	0	0	533	423	0	437	0	0	
15	0	0	0	0	536	417	0	449	0	0	
0	0	0	0	0	538	416	0	463	0	0	
1	0	0	0	0	540	420	0	477	0	0	
2	0	0	0	0	541	430	0	490	0	0	
3	0	0	0	0	541	444	0	501	0	0	
4	0	0	0	0	541	461	0	508	0	0	
5	0	0	0	0	539	481	0	512	0	0	
6	0	0	0	0	536	499	0	511	0	0	
7	0	0	0	0	534	515	0	505	0	0	
8	0	0	0	0	531	528	0	496	0	0	
9	0	0	0	0	529	535	0	483	0	0	
10	0	0	0	0	527	537	0	470	0	0	
11	0	0	0	0	526	531	0	456	0	0	
12	0	0	0	0	525	522	0	443	0	0	
13	0	0	0	0	525	508	0	432	0	0	
14	0	0	0	0	526	491	0	425	0	0	
15	0	0	0	0	527	472	0	422	0	0	
0	0	0	0	0	529	454	0	423	0	0	
1	0	0	0	0	532	437	0	429	0	0	
2	0	0	0	0	536	426	0	438	0	0	
3	0	0	0	0	538	419	0	451	0	0	
4	0	0	0	0	540	417	0	465	0	0	
5	0	0	0	0	542	421	0	479	0	0	
6	0	0	0	0	542	432	0	492	0	0	
7	0	0	0	0	543	446	0	503	0	0	
8	0	0	0	0	542	463	0	511	0	0	
9	0	0	0	0	541	482	0	515	0	0	
10	0	0	0	0	539	500	0	514	0	0	
11	0	0	0	0	537	517	0	508	0	0	
12	0	0	0	0	535	530	0	499	0	0	
13	0	0	0	0	533	538	0	488	0	0	
14	0	0	0	0	532	540	0	475	0	0	
15	0	0	0	0	531	536	0	462	0	0	
0	0	0	0	0	531	527	0	451	0	0	
1	0	0	0	0	533	514	0	441	0	0	
2	0	0	0	0	534	496	0	434	0	0	
3	0	0	0	0	536	479	0	432	0	0	
4	0	0	0	0	539	460	0	434	0	0	
5	0	0	0	0	542	444	0	439	0	0	
6	0	0	0	0	545	432	0	449	0	0	
7	0	0	0	0	547	424	0	461	0	0	
8	0	0	0	0	549	422	0	475	0	0	
9	0	0	0	0	550	426	0	488	0	0	
10	0	0	0	0	549	435	0	501	0	0	
11	0	0	0	0	549	449	0	511	0	0	
12	0	0	0	0	548	466	0	518	0	0	
13	0	0	0	0	546	485	0	520	0	0	
14	0	0	0	0	542	503	0	518	0	0	
15	0	0	0	0	540	519	0	511	0	0	
0	0	0	0	0	537	532	0	502	0	0	
1	0	0	0	0	534	539	0	489	0	0	
2	0	0	0	0	532	541	0	475	0	0	
3	0	0	0	0	531	537	0	462	0	0	
4	0	0	0	0	531	527	0	448	0	0	
5	0	0	0	0	531	514	0	438	0	0	
6	0	0	0	0	532	497	0	431	0	0	
7	0	0	0	0	534	479	0	428	0	0	
8	0	0	0	0	537	461	0	430	0	0	
9	0	0	0	0	540	446	0	435	0	0	
10	0	0	0	0	544	435	0	445	0	0	
11	0	0	0	0	547	428	0	458	0	0	
12	0	0	0	0	550	427	0	472	0	0	
13	0	0	0	0	551	432	0	486	0	0	
14	0	0	0	0	551	442	0	499	0	0	
15	0	0	0	0	551	457	0	509	0	0	
0	0	0	0	0	550	475	0	516	0	0	
1	0	0	0	0	548	493	0	519	0	0	
2	0	0	0	0	546	512	0	518	0	0	
3	0	0	0	0	543	527	0	512	0	0	
4	0	0	0	0	540	540	0	503	0	0	
5	0	0	0	0	538	546	0	491	0	0	
6	0	0	0	0	536	547	0	477	0	0	
7	0	0	0	0	535	542	0	463	0	0	
8	0	0	0	0	534	532	0	450	0	0	
9	0	0	0	0	535	518	0	440	0	0	
10	0	0	0	0	536	500	0	433	0	0	
11	0	0	0	0	537	481	0	430	0	0	
12	0	0	0	0	540	463	0	431	0	0	
13	0	0	0	0	542	446	0	436	0	0	
14	0	0	0	0	544	434	0	445	0	0	
15	0	0	0	0	547	428	0	457	0	0	
0	0	0	0	0	548	426	0	471	0	0	
1	0	0	0	0	549	431	0	485	0	0	
2	0	0	0	0	548	440	0	497	0	0	
3	0	0	0	0	548	455	0	507	0	0	
4	0	0	0	0	547	472	0	515	0	0	
5	0	0	0	0	545	491	0	518	0	0	
6	0	0	0	0	542	509	0	516	0	0	
7	0	0	0	0	538	525	0	510	0	0	
8	0	0	0	0	535	537	0	501	0	0	
9	0	0	0	0	532	543	0	489	0	0	
10	0	0	0	0	530	544	0	475	0	0	
11	0	0	0	0	529	539	0	461	0	0	
12	0	0	0	0	528	529	0	448	0	0	
13	0	0	0	0	529	515	0	437	0	0	
14	0	0	0	0	530	496	0	430	0	0	
15	0	0	0	0	532	478	0	427	0	0	
0	0	0	0	0	535	459	0	427	0	0	
1	0	0	0	0	538	443	0	433	0	0	
2	0	0	0	0	542	430	0	442	0	0	
3	0	0	0	0	544	423	0	454	0	0	
4	0	0	0	0	545	420	0	468	0	0	
5	0	0	0	0	547	425	0	481	0	0	
6	0	0	0	0	547	434	0	494	0	0	
7	0	0	0	0	547	448	0	504	0	0	
8	0	0	0	0	545	466	0	512	0	0	
9	0	0	0	0	543	485	0	515	0	0	
10	0	0	0	0	540	503	0	513	0	0	
11	0	0	0	0	537	519	0	508	0	0	
12	0	0	0	0	534	531	0	498	0	0	
13	0	0	0	0	531	538	0	486	0	0	
14	0	0	0	0	529	539	0	472	0	0	
15	0	0	0	0	527	534	0	459	0	0	
0	0	0	0	0	526	524	0	445	0	0	
1	0	0	0	0	527	509	0	435	0	0	
2	0	0	0	0	528	492	0	428	0	0	
3	0	0	0	0	530	473	0	425	0	0	
4	0	0	0	0	532	455	0	426	0	0	
5	0	0	0	0	536	439	0	432	0	0	
6	0	0	0	0	539	427	0	440	0	0	
7	0	0	0	0	542	421	0	452	0	0	
8	0	0	0	0	544	419	0	465	0	0	
9	0	0	0	0	545	424	0	479	0	0	
10	0	0	0	0	545	433	0	492	0	0	
11	0	0	0	0	546	448	0	503	0	0	
12	0	0	0	0	545	465	0	510	0	0	
13	0	0	0	0	543	483	0	513	0	0	
14	0	0	0	0	540	502	0	512	0	0	
15	0	0	0	0	537	517	0	506	0	0	
0	0	0	0	0	534	529	0	496	0	0	
1	0	0	0	0	532	536	0	484	0	0	
2	0	0	0	0	531	537	0	471	0	0	
3	0	0	0	0	529	532	0	457	0	0	
4	0	0	0	0	528	522	0	445	0	0	
5	0	0	0	0	528	508	0	434	0	0	
6	0	0	0	0	530	491	0	428	0	0	
7	0	0	0	0	531	472	0	424	0	0	
8	0	0	0	0	533	454	0	426	0	0	
9	0	0	0	0	536	439	0	431	0	0	
10	0	0	0	0	539	427	0	441	0	0	
11	0	0	0	0	540	419	0	453	0	0	
12	0	0	0	0	542	419	0	467	0	0	
13	0	0	0	0	543	423	0	480	0	0	
14	0	0	0	0	543	434	0	492	0	0	
15	0	0	0	0	542	448	0	503	0	0	
0	0	0	0	0	542	465	0	510	0	0	
1	0	0	0	0	540	484	0	513	0	0	
2	0	0	0	0	537	503	0	512	0	0	
3	0	0	0	0	534	518	0	506	0	0	
4	0	0	0	0	532	531	0	497	0	0	
5	0	0	0	0	531	537	0	485	0	0	
6	0	0	0	0	529	539	0	471	0	0	
7	0	0	0	0	528	533	0	458	0	0	
8	0	0	0	0	528	524	0	446	0	0	
9	0	0	0	0	529	510	0	435	0	0	
10	0	0	0	0	530	492	0	429	0	0	
11	0	0	0	0	532	473	0	427	0	0	
12	0	0	0	0	534	455	0	428	0	0	
13	0	0	0	0	536	440	0	435	0	0	
14	0	0	0	0	539	428	0	444	0	0	
15	0	0	0	0	541	422	0	457	0	0	
0	0	0	0	0	543	421	0	471	0	0	
1	0	0	0	0	545	426	0	484	0	0	
2	0	0	0	0	545	436	0	497	0	0	
3	0	0	0	0	545	451	0	507	0	0	
4	0	0	0	0	545	468	0	514	0	0	
5	0	0	0	0	543	487	0	517	0	0	
6	0	0	0	0	541	505	0	516	0	0	
7	0	0	0	0	538	521	0	509	0	0	
8	0	0	0	0	536	532	0	500	0	0	
9	0	0	0	0	534	539	0	487	0	0	
10	0	0	0	0	533	540	0	473	0	0	
11	0	0	0	0	532	534	0	460	0	0	
12	0	0	0	0	532	524	0	447	0	0	
13	0	0	0	0	533	510	0	437	0	0	
14	0	0	0	0	535	492	0	430	0	0	
15	0	0	0	0	537	474	0	428	0	0	
0	0	0	0	0	540	456	0	430	0	0	
1	0	0	0	0	543	441	0	437	0	0	
2	0	0	0	0	546	431	0	447	0	0	
3	0	0	0	0	549	424	0	460	0	0	
4	0	0	0	0	551	424	0	473	0	0	
5	0	0	0	0	551	430	0	488	0	0	
6	0	0	0	0	551	440	0	501	0	0	
7	0	0	0	0	551	455	0	511	0	0	
8	0	0	0	0	550	472	0	519	0	0	
9	0	0	0	0	547	491	0	521	0	0	
10	0	0	0	0	544	508	0	519	0	0	
11	0	0	0	0	541	523	0	512	0	0	
12	0	0	0	0	538	535	0	502	0	0	
13	0	0	0	0	535	540	0	489	0	0	
14	0	0	0	0	533	540	0	475	0	0	
15	0	0	0	0	531	535	0	460	0	0	
0	0	0	0	0	531	524	0	448	0	0	
1	0	0	0	0	531	509	0	436	0	0	
2	0	0	0	0	533	491	0	430	0	0	
3	0	0	0	0	535	473	0	427	0	0	
4	0	0	0	0	537	455	0	428	0	0	
5	0	0	0	0	540	440	0	434	0	0	
6	0	0	0	0	543	429	0	444	0	0	
7	0	0	0	0	545	423	0	457	0	0	
8	0	0	0	0	547	422	0	471	0	0	
9	0	0	0	0	547	428	0	485	0	0	
10	0	0	0	0	547	439	0	497	0	0	
11	0	0	0	0	547	454	0	508	0	0	
12	0	0	0	0	546	472	0	515	0	0	
13	0	0	0	0	544	491	0	517	0	0	
14	0	0	0	0	541	510	0	516	0	0	
15	0	0	0	0	539	526	0	509	0	0	
0	0	0	0	0	536	538	0	500	0	0	
1	0	0	0	0	535	545	0	487	0	0	
2	0	0	0	0	534	545	0	473	0	0	
3	0	0	0	0	533	540	0	460	0	0	
4	0	0	0	0	533	529	0	448	0	0	
5	0	0	0	0	534	514	0	438	0	0	
6	0	0	0	0	536	496	0	432	0	0	
7	0	0	0	0	538	477	0	429	0	0	
8	0	0	0	0	541	458	0	431	0	0	
9	0	0	0	0	544	442	0	437	0	0	
10	0	0	0	0	547	431	0	447	0	0	
11	0	0	0	0	549	424	0	459	0	0	
12	0	0	0	0	550	423	0	472	0	0	
13	0	0	0	0	550	429	0	486	0	0	
14	0	0	0	0	551	439	0	499	0	0	
15	0	0	0	0	550	455	0	509	0	0	
0	0	0	0	0	548	472	0	516	0	0	
1	0	0	0	0	546	493	0	519	0	0	
2	0	0	0	0	543	511	0	516	0	0	
3	0	0	0	0	540	528	0	510	0	0	
4	0	0	0	0	538	541	0	501	0	0	
5	0	0	0	0	536	548	0	489	0	0	
6	0	0	0	0	535	549	0	475	0	0	
7	0	0	0	0	534	544	0	463	0	0	
8	0	0	0	0	534	534	0	451	0	0	
9	0	0	0	0	535	519	0	440	0	0	
10	0	0	0	0	537	502	0	435	0	0	
11	0	0	0	0	540	482	0	433	0	0	
12	0	0	0	0	543	464	0	435	0	0	
13	0	0	0	0	547	448	0	441	0	0	
14	0	0	0	0	550	436	0	452	0	0	
15	0	0	0	0	553	429	0	464	0	0	
0	0	0	0	0	555	428	0	478	0	0	
1	0	0	0	0	556	433	0	492	0	0	
2	0	0	0	0	557	442	0	504	0	0	
3	0	0	0	0	556	458	0	514	0	0	
4	0	0	0	0	555	476	0	521	0	0	
5	0	0	0	0	553	495	0	523	0	0	
6	0	0	0	0	550	513	0	521	0	0	
7	0	0	0	0	545	529	0	515	0	0	
8	0	0	0	0	543	542	0	505	0	0	
9	0	0	0	0	540	548	0	493	0	0	
10	0	0	0	0	538	549	0	479	0	0	
11	0	0	0	0	536	543	0	465	0	0	
12	0	0	0	0	536	533	0	452	0	0	
13	0	0	0	0	536	518	0	441	0	0	
14	0	0	0	0	537	500	0	435	0	0	
15	0	0	0	0	538	480	0	432	0	0	
0	0	0	0	0	541	462	0	433	0	0	
1	0	0	0	0	543	445	0	439	0	0	
2	0	0	0	0	546	433	0	447	0	0	
3	0	0	0	0	548	425	0	459	0	0	
4	0	0	0	0	550	423	0	472	0	0	
5	0	0	0	0	550	428	0	485	0	0	
6	0	0	0	0	549	438	0	497	0	0	
7	0	0	0	0	549	452	0	506	0	0	
8	0	0	0	0	547	469	0	513	0	0	
9	0	0	0	0	544	487	0	515	0	0	
10	0	0	0	0	540	504	0	513	0	0	
11	0	0	0	0	537	520	0	506	0	0	
12	0	0	0	0	534	532	0	495	0	0	
13	0	0	0	0	531	538	0	483	0	0	
14	0	0	0	0	528	539	0	469	0	0	
15	0	0	0	0	527	533	0	455	0	0	
0	0	0	0	0	527	522	0	442	0	0	
1	0	0	0	0	527	507	0	432	0	0	
2	0	0	0	0	529	489	0	425	0	0	
3	0	0	0	0	531	470	0	423	0	0	
4	0	0	0	0	534	451	0	424	0	0	
5	0	0	0	0	536	435	0	431	0	0	
6	0	0	0	0	539	424	0	440	0	0	
7	0	0	0	0	540	417	0	452	0	0	
8	0	0	0	0	541	416	0	465	0	0	
9	0	0	0	0	541	421	0	478	0	0	
10	0	0	0	0	540	432	0	490	0	0	
11	0	0	0	0	539	446	0	499	0	0	
12	0	0	0	0	536	463	0	505	0	0	
13	0	0	0	0	533	481	0	507	0	0	
14	0	0	0	0	529	498	0	504	0	0	
15	0	0	0	0	525	514	0	497	0	0	
0	0	0	0	0	523	525	0	487	0	0	
1	0	0	0	0	520	531	0	474	0	0	
2	0	0	0	0	518	531	0	460	0	0	
3	0	0	0	0	518	525	0	447	0	0	
4	0	0	0	0	518	515	0	434	0	0	
5	0	0	0	0	519	500	0	424	0	0	
6	0	0	0	0	521	483	0	418	0	0	
7	0	0	0	0	524	465	0	416	0	0	
8	0	0	0	0	528	447	0	418	0	0	
9	0	0	0	0	531	432	0	424	0	0	
10	0	0	0	0	536	422	0	435	0	0	
11	0	0	0	0	539	416	0	448	0	0	
12	0	0	0	0	541	416	0	462	0	0	
13	0	0	0	0	542	421	0	476	0	0	
14	0	0	0	0	542	433	0	489	0	0	
15	0	0	0	0	542	448	0	500	0	0	
0	0	0	0	0	540	465	0	507	0	0	
1	0	0	0	0	537	484	0	511	0	0	
2	0	0	0	0	535	502	0	509	0	0	
3	0	0	0	0	531	516	0	503	0	0	
4	0	0	0	0	529	527	0	493	0	0	
5	0	0	0	0	526	533	0	481	0	0	
6	0	0	0	0	524	532	0	467	0	0	
7	0	0	0	0	523	526	0	454	0	0	
8	0	0	0	0	522	515	0	441	0	0	
9	0	0	0	0	524	500	0	431	0	0	
10	0	0	0	0	524	482	0	424	0	0	
11	0	0	0	0	527	463	0	421	0	0	
12	0	0	0	0	528	446	0	423	0	0	
13	0	0	0	0	532	431	0	430	0	0	
14	0	0	0	0	535	420	0	440	0	0	
15	0	0	0	0	537	414	0	452	0	0	
0	0	0	0	0	539	414	0	466	0	0	
1	0	0	0	0	539	420	0	479	0	0	
2	0	0	0	0	539	431	0	492	0	0	
3	0	0	0	0	539	447	0	502	0	0	
4	0	0	0	0	538	464	0	509	0	0	
5	0	0	0	0	536	484	0	512	0	0	
6	0	0	0	0	534	502	0	510	0	0	
7	0	0	0	0	531	518	0	504	0	0	
8	0	0	0	0	529	529	0	494	0	0	
9	0	0	0	0	527	536	0	482	0	0	
10	0	0	0	0	526	536	0	467	0	0	
11	0	0	0	0	524	530	0	454	0	0	
12	0	0	0	0	524	518	0	441	0	0	
13	0	0	0	0	524	504	0	430	0	0	
14	0	0	0	0	526	485	0	423	0	0	
15	0	0	0	0	527	467	0	420	0	0	
0	0	0	0	0	529	449	0	422	0	0	
1	0	0	0	0	532	434	0	428	0	0	
2	0	0	0	0	536	423	0	437	0	0	
3	0	0	0	0	538	417	0	450	0	0	
4	0	0	0	0	540	417	0	463	0	0	
5	0	0	0	0	542	423	0	478	0	0	
6	0	0	0	0	543	435	0	490	0	0	
7	0	0	0	0	544	451	0	501	0	0	
8	0	0	0	0	543	469	0	508	0	0	
9	0	0	0	0	542	489	0	511	0	0	
10	0	0	0	0	540	508	0	510	0	0	
11	0	0	0	0	536	524	0	504	0	0	
12	0	0	0	0	534	535	0	494	0	0	
13	0	0	0	0	529	540	0	480	0	0	
14	0	0	0	0	526	539	0	465	0	0	
15	0	0	0	0	521	530	0	448	0	0	
0	0	0	0	0	516	515	0	431	0	0	
1	0	0	0	0	512	495	0	416	0	0	
2	0	0	0	0	507	471	0	403	0	0	
3	0	0	0	0	502	445	0	392	0	0	
4	0	0	0	0	495	417	0	385	0	0	
5	0	0	0	0	488	393	0	381	0	0	
6	0	0	0	0	481	371	0	381	0	0	
7	0	0	0	0	472	353	0	382	0	0	
8	0	0	0	0	463	341	0	385	0	0	
9	0	0	0	0	452	334	0	387	0	0	
10	0	0	0	0	440	333	0	388	0	0	
11	0	0	0	0	428	336	0	387	0	0	
12	0	0	0	0	415	342	0	383	0	0	
13	0	0	0	0	400	350	0	375	0	0	
14	0	0	0	0	386	356	0	362	0	0	
15	0	0	0	0	370	361	0	344	0	0	
0	0	0	0	0	355	361	0	324	0	0	
1	0	0	0	0	340	357	0	300	0	0	
2	0	0	0	0	326	346	0	274	0	0	
3	0	0	0	0	313	329	0	248	0	0	
4	0	0	0	0	300	307	0	224	0	0	
5	0	0	0	0	291	282	0	202	0	0	
6	0	0	0	0	283	255	0	186	0	0	
7	0	0	0	0	279	227	0	176	0	0	
8	0	0	0	0	277	203	0	172	0	0	
9	0	0	0	0	280	183	0	177	0	0	
10	0	0	0	0	285	171	0	188	0	0	
11	0	0	0	0	295	167	0	208	0	0	
12	0	0	0	0	309	174	0	233	0	0	
13	0	0	0	0	326	190	0	262	0	0	
14	0	0	0	0	345	216	0	294	0	0	
15	0	0	0	0	367	250	0	327	0	0	
0	0	0	0	0	391	291	0	359	0	0	
1	0	0	0	0	415	335	0	388	0	0	
2	0	0	0	0	439	380	0	413	0	0	
3	0	0	0	0	463	423	0	433	0	0	
4	0	0	0	0	484	463	0	447	0	0	
5	0	0	0	0	505	495	0	457	0	0	
6	0	0	0	0	523	518	0	462	0	0	
7	0	0	0	0	538	532	0	463	0	0	
8	0	0	0	0	551	537	0	464	0	0	
9	0	0	0	0	561	534	0	463	0	0	
