# OpenSignals Text File Format. Version 1
# {"": {"position": 0, "device": "", "device name": "", "device connection": "", "sampling rate": 1000, "resolution": [4, 1, 1, 1, 1, 10, 10, 10, 10, 6, 6], "firmware version": 1281, "comments": "", "keywords": "", "mode": 0, "sync interval": 2, "date": "", "time": "", "channels": [1, 2, 3, 4, 5, 6], "sensor": ["RAW", "RAW", "RAW", "RAW", "RAW", "RAW"], "label": ["A1", "A2", "A3", "A4", "A5", "A6"], "column": ["nSeq", "I1", "I2", "O1", "O2", "A1", "A2", "A3", "A4", "A5", "A6"], "special": [{}, {}, {}, {}, {}, {}], "digital IO": [0, 0, 1, 1]}}
# EndOfHeader
0	0	0	0	0	329	295	1021	0	0	0	
1	0	0	0	0	315	281	1021	0	0	0	
2	0	0	0	0	301	266	1021	0	0	0	
3	0	0	0	0	288	252	1021	0	0	0	
4	0	0	0	0	278	240	1021	0	0	0	
5	0	0	0	0	270	231	1021	0	0	0	
6	0	0	0	0	267	227	1020	0	0	0	
7	0	0	0	0	269	228	1021	0	0	0	
8	0	0	0	0	278	235	1021	0	0	0	
9	0	0	0	0	292	248	1021	0	0	0	
10	0	0	0	0	311	266	1020	0	0	0	
11	0	0	0	0	336	289	1021	0	0	0	
12	0	0	0	0	364	315	1021	0	0	0	
13	0	0	0	0	394	344	1021	0	0	0	
14	0	0	0	0	425	373	1021	0	0	0	
15	0	0	0	0	456	401	1021	0	0	0	
0	0	0	0	0	485	428	1021	0	0	0	
1	0	0	0	0	512	453	1021	0	0	0	
2	0	0	0	0	535	475	1021	0	0	0	
3	0	0	0	0	554	494	1021	0	0	0	
4	0	0	0	0	570	510	1021	0	0	0	
5	0	0	0	0	582	522	1021	0	0	0	
6	0	0	0	0	590	531	1021	0	0	0	
7	0	0	0	0	593	536	1021	0	0	0	
8	0	0	0	0	593	538	1021	0	0	0	
9	0	0	0	0	588	536	1020	0	0	0	
10	0	0	0	0	580	531	1021	0	0	0	
11	0	0	0	0	570	525	1021	0	0	0	
12	0	0	0	0	558	517	1021	0	0	0	
13	0	0	0	0	546	508	1021	0	0	0	
14	0	0	0	0	534	499	1021	0	0	0	
15	0	0	0	0	522	491	1021	0	0	0	
0	0	0	0	0	511	482	1021	0	0	0	
1	0	0	0	0	501	473	1021	0	0	0	
2	0	0	0	0	492	465	1021	0	0	0	
3	0	0	0	0	483	457	1020	0	0	0	
4	0	0	0	0	476	451	1021	0	0	0	
5	0	0	0	0	471	445	1021	0	0	0	
6	0	0	0	0	468	442	1021	0	0	0	
7	0	0	0	0	468	441	1021	0	0	0	
8	0	0	0	0	471	442	1021	0	0	0	
9	0	0	0	0	477	446	1021	0	0	0	
10	0	0	0	0	485	451	1021	0	0	0	
11	0	0	0	0	494	457	1021	0	0	0	
12	0	0	0	0	504	463	1021	0	0	0	
13	0	0	0	0	513	471	1020	0	0	0	
14	0	0	0	0	523	479	1021	0	0	0	
15	0	0	0	0	531	485	1021	0	0	0	
0	0	0	0	0	539	492	1021	0	0	0	
1	0	0	0	0	544	497	1021	0	0	0	
2	0	0	0	0	548	502	1021	0	0	0	
3	0	0	0	0	551	506	1021	0	0	0	
4	0	0	0	0	552	508	1021	0	0	0	
5	0	0	0	0	552	510	1021	0	0	0	
6	0	0	0	0	550	510	1021	0	0	0	
7	0	0	0	0	547	508	1021	0	0	0	
8	0	0	0	0	543	507	1021	0	0	0	
9	0	0	0	0	537	503	1021	0	0	0	
10	0	0	0	0	532	499	1021	0	0	0	
11	0	0	0	0	526	495	1021	0	0	0	
12	0	0	0	0	520	491	1021	0	0	0	
13	0	0	0	0	515	487	1021	0	0	0	
14	0	0	0	0	511	483	1021	0	0	0	
15	0	0	0	0	508	480	1021	0	0	0	
0	0	0	0	0	507	479	1021	0	0	0	
1	0	0	0	0	508	479	1021	0	0	0	
2	0	0	0	0	511	481	1021	0	0	0	
3	0	0	0	0	515	484	1021	0	0	0	
4	0	0	0	0	522	489	1021	0	0	0	
5	0	0	0	0	529	495	1021	0	0	0	
6	0	0	0	0	537	500	1021	0	0	0	
7	0	0	0	0	545	507	1021	0	0	0	
8	0	0	0	0	552	513	1021	0	0	0	
9	0	0	0	0	559	519	1021	0	0	0	
10	0	0	0	0	564	524	1021	0	0	0	
11	0	0	0	0	568	528	1021	0	0	0	
12	0	0	0	0	571	531	1021	0	0	0	
13	0	0	0	0	572	533	1021	0	0	0	
14	0	0	0	0	571	532	1021	0	0	0	
15	0	0	0	0	567	529	1020	0	0	0	
0	0	0	0	0	562	526	1021	0	0	0	
1	0	0	0	0	557	521	1021	0	0	0	
2	0	0	0	0	552	517	1021	0	0	0	
3	0	0	0	0	548	512	1021	0	0	0	
4	0	0	0	0	544	509	1021	0	0	0	
5	0	0	0	0	541	506	1021	0	0	0	
6	0	0	0	0	540	504	1021	0	0	0	
7	0	0	0	0	539	502	1021	0	0	0	
8	0	0	0	0	538	500	1021	0	0	0	
9	0	0	0	0	538	500	1021	0	0	0	
10	0	0	0	0	539	500	1020	0	0	0	
11	0	0	0	0	540	501	1021	0	0	0	
12	0	0	0	0	540	502	1021	0	0	0	
13	0	0	0	0	540	502	1021	0	0	0	
14	0	0	0	0	539	502	1020	0	0	0	
15	0	0	0	0	539	503	1021	0	0	0	
0	0	0	0	0	537	503	1021	0	0	0	
1	0	0	0	0	536	503	1021	0	0	0	
2	0	0	0	0	535	503	1021	0	0	0	
3	0	0	0	0	533	503	1021	0	0	0	
4	0	0	0	0	531	502	1021	0	0	0	
5	0	0	0	0	529	500	1021	0	0	0	
6	0	0	0	0	528	499	1021	0	0	0	
7	0	0	0	0	527	497	1021	0	0	0	
8	0	0	0	0	526	496	1021	0	0	0	
9	0	0	0	0	526	494	1021	0	0	0	
10	0	0	0	0	526	493	1021	0	0	0	
11	0	0	0	0	527	492	1021	0	0	0	
12	0	0	0	0	528	492	1021	0	0	0	
13	0	0	0	0	529	492	1021	0	0	0	
14	0	0	0	0	530	492	1020	0	0	0	
15	0	0	0	0	531	493	1021	0	0	0	
0	0	0	0	0	531	493	1021	0	0	0	
1	0	0	0	0	530	492	1021	0	0	0	
2	0	0	0	0	529	492	1021	0	0	0	
3	0	0	0	0	527	491	1021	0	0	0	
4	0	0	0	0	526	490	1021	0	0	0	
5	0	0	0	0	523	489	1021	0	0	0	
6	0	0	0	0	521	487	1021	0	0	0	
7	0	0	0	0	518	487	1021	0	0	0	
8	0	0	0	0	515	485	1021	0	0	0	
9	0	0	0	0	512	484	1021	0	0	0	
10	0	0	0	0	509	483	1021	0	0	0	
11	0	0	0	0	506	481	1021	0	0	0	
12	0	0	0	0	504	481	1021	0	0	0	
13	0	0	0	0	504	482	1021	0	0	0	
14	0	0	0	0	505	484	1021	0	0	0	
15	0	0	0	0	509	488	1021	0	0	0	
0	0	0	0	0	515	493	1021	0	0	0	
1	0	0	0	0	523	500	1020	0	0	0	
2	0	0	0	0	531	507	1021	0	0	0	
3	0	0	0	0	540	513	1021	0	0	0	
4	0	0	0	0	548	519	1021	0	0	0	
5	0	0	0	0	553	523	1020	0	0	0	
6	0	0	0	0	557	524	1021	0	0	0	
7	0	0	0	0	557	523	1021	0	0	0	
8	0	0	0	0	553	519	1021	0	0	0	
9	0	0	0	0	546	512	1021	0	0	0	
10	0	0	0	0	536	504	1021	0	0	0	
11	0	0	0	0	525	494	1021	0	0	0	
12	0	0	0	0	513	484	1021	0	0	0	
13	0	0	0	0	502	475	1021	0	0	0	
14	0	0	0	0	494	468	1021	0	0	0	
15	0	0	0	0	487	463	1021	0	0	0	
0	0	0	0	0	484	461	1020	0	0	0	
1	0	0	0	0	485	462	1021	0	0	0	
2	0	0	0	0	489	464	1021	0	0	0	
3	0	0	0	0	495	470	1021	0	0	0	
4	0	0	0	0	504	476	1021	0	0	0	
5	0	0	0	0	514	484	1020	0	0	0	
6	0	0	0	0	525	492	1021	0	0	0	
7	0	0	0	0	535	499	1021	0	0	0	
8	0	0	0	0	543	505	1021	0	0	0	
9	0	0	0	0	550	510	1021	0	0	0	
10	0	0	0	0	554	513	1021	0	0	0	
11	0	0	0	0	556	514	1021	0	0	0	
12	0	0	0	0	555	515	1021	0	0	0	
13	0	0	0	0	553	513	1021	0	0	0	
14	0	0	0	0	550	512	1021	0	0	0	
15	0	0	0	0	545	510	1021	0	0	0	
0	0	0	0	0	540	507	1021	0	0	0	
1	0	0	0	0	536	505	1021	0	0	0	
2	0	0	0	0	532	503	1021	0	0	0	
3	0	0	0	0	529	502	1021	0	0	0	
4	0	0	0	0	528	502	1020	0	0	0	
5	0	0	0	0	528	502	1021	0	0	0	
6	0	0	0	0	531	504	1021	0	0	0	
7	0	0	0	0	535	507	1021	0	0	0	
8	0	0	0	0	540	511	1021	0	0	0	
9	0	0	0	0	545	516	1020	0	0	0	
10	0	0	0	0	551	519	1021	0	0	0	
11	0	0	0	0	555	522	1021	0	0	0	
12	0	0	0	0	558	524	1021	0	0	0	
13	0	0	0	0	558	524	1021	0	0	0	
14	0	0	0	0	556	521	1021	0	0	0	
15	0	0	0	0	551	518	1021	0	0	0	
0	0	0	0	0	546	513	1021	0	0	0	
1	0	0	0	0	540	508	1021	0	0	0	
2	0	0	0	0	533	502	1021	0	0	0	
3	0	0	0	0	526	497	1021	0	0	0	
4	0	0	0	0	520	492	1021	0	0	0	
5	0	0	0	0	515	489	1021	0	0	0	
6	0	0	0	0	511	486	1021	0	0	0	
7	0	0	0	0	510	484	1021	0	0	0	
8	0	0	0	0	509	484	1021	0	0	0	
9	0	0	0	0	510	485	1021	0	0	0	
10	0	0	0	0	513	487	1021	0	0	0	
11	0	0	0	0	516	488	1021	0	0	0	
12	0	0	0	0	519	490	1021	0	0	0	
13	0	0	0	0	523	492	1021	0	0	0	
14	0	0	0	0	525	493	1021	0	0	0	
15	0	0	0	0	527	494	1021	0	0	0	
0	0	0	0	0	529	495	1021	0	0	0	
1	0	0	0	0	530	496	1021	0	0	0	
2	0	0	0	0	530	496	1021	0	0	0	
3	0	0	0	0	531	497	1021	0	0	0	
4	0	0	0	0	533	499	1021	0	0	0	
5	0	0	0	0	535	502	1021	0	0	0	
6	0	0	0	0	537	504	1021	0	0	0	
7	0	0	0	0	539	506	1021	0	0	0	
8	0	0	0	0	539	507	1021	0	0	0	
9	0	0	0	0	538	507	1021	0	0	0	
10	0	0	0	0	536	505	1021	0	0	0	
11	0	0	0	0	533	503	1021	0	0	0	
12	0	0	0	0	529	500	1021	0	0	0	
13	0	0	0	0	525	497	1021	0	0	0	
14	0	0	0	0	522	495	1021	0	0	0	
15	0	0	0	0	520	494	1021	0	0	0	
0	0	0	0	0	519	493	1021	0	0	0	
1	0	0	0	0	521	496	1021	0	0	0	
2	0	0	0	0	524	499	1021	0	0	0	
3	0	0	0	0	530	505	1021	0	0	0	
4	0	0	0	0	537	511	1021	0	0	0	
5	0	0	0	0	544	517	1020	0	0	0	
6	0	0	0	0	551	522	1021	0	0	0	
7	0	0	0	0	557	527	1021	0	0	0	
8	0	0	0	0	562	531	1021	0	0	0	
9	0	0	0	0	565	532	1021	0	0	0	
10	0	0	0	0	565	532	1021	0	0	0	
11	0	0	0	0	563	529	1021	0	0	0	
12	0	0	0	0	558	524	1021	0	0	0	
13	0	0	0	0	551	516	1021	0	0	0	
14	0	0	0	0	541	507	1021	0	0	0	
15	0	0	0	0	531	497	1021	0	0	0	
0	0	0	0	0	520	488	1021	0	0	0	
1	0	0	0	0	511	479	1021	0	0	0	
2	0	0	0	0	503	473	1021	0	0	0	
3	0	0	0	0	497	469	1021	0	0	0	
4	0	0	0	0	494	467	1021	0	0	0	
5	0	0	0	0	494	468	1020	0	0	0	
6	0	0	0	0	497	471	1021	0	0	0	
7	0	0	0	0	501	475	1021	0	0	0	
8	0	0	0	0	508	480	1021	0	0	0	
9	0	0	0	0	515	486	1021	0	0	0	
10	0	0	0	0	522	491	1021	0	0	0	
11	0	0	0	0	530	496	1021	0	0	0	
12	0	0	0	0	537	502	1021	0	0	0	
13	0	0	0	0	544	507	1021	0	0	0	
14	0	0	0	0	551	512	1021	0	0	0	
15	0	0	0	0	556	517	1020	0	0	0	
0	0	0	0	0	561	521	1021	0	0	0	
1	0	0	0	0	564	524	1021	0	0	0	
2	0	0	0	0	567	527	1021	0	0	0	
3	0	0	0	0	567	527	1021	0	0	0	
4	0	0	0	0	565	526	1021	0	0	0	
5	0	0	0	0	562	524	1021	0	0	0	
6	0	0	0	0	558	520	1021	0	0	0	
7	0	0	0	0	553	516	1021	0	0	0	
8	0	0	0	0	547	512	1021	0	0	0	
9	0	0	0	0	542	506	1021	0	0	0	
10	0	0	0	0	536	502	1021	0	0	0	
11	0	0	0	0	531	498	1021	0	0	0	
12	0	0	0	0	527	494	1021	0	0	0	
13	0	0	0	0	523	491	1021	0	0	0	
14	0	0	0	0	519	488	1021	0	0	0	
15	0	0	0	0	517	486	1021	0	0	0	
0	0	0	0	0	515	485	1020	0	0	0	
1	0	0	0	0	513	484	1021	0	0	0	
2	0	0	0	0	513	483	1021	0	0	0	
3	0	0	0	0	512	483	1021	0	0	0	
4	0	0	0	0	512	483	1021	0	0	0	
5	0	0	0	0	513	483	1021	0	0	0	
6	0	0	0	0	513	483	1021	0	0	0	
7	0	0	0	0	514	483	1021	0	0	0	
8	0	0	0	0	515	483	1021	0	0	0	
9	0	0	0	0	516	483	1021	0	0	0	
10	0	0	0	0	518	485	1021	0	0	0	
11	0	0	0	0	520	486	1021	0	0	0	
12	0	0	0	0	524	488	1021	0	0	0	
13	0	0	0	0	527	491	1021	0	0	0	
14	0	0	0	0	531	495	1021	0	0	0	
15	0	0	0	0	536	499	1021	0	0	0	
0	0	0	0	0	541	504	1021	0	0	0	
1	0	0	0	0	546	509	1021	0	0	0	
2	0	0	0	0	551	514	1021	0	0	0	
3	0	0	0	0	557	520	1021	0	0	0	
4	0	0	0	0	562	525	1021	0	0	0	
5	0	0	0	0	567	529	1021	0	0	0	
6	0	0	0	0	569	532	1021	0	0	0	
7	0	0	0	0	571	533	1020	0	0	0	
8	0	0	0	0	571	532	1021	0	0	0	
9	0	0	0	0	568	529	1021	0	0	0	
10	0	0	0	0	564	525	1021	0	0	0	
11	0	0	0	0	559	520	1021	0	0	0	
12	0	0	0	0	553	515	1020	0	0	0	
13	0	0	0	0	548	510	1021	0	0	0	
14	0	0	0	0	545	508	1021	0	0	0	
15	0	0	0	0	542	505	1021	0	0	0	
0	0	0	0	0	540	504	1021	0	0	0	
1	0	0	0	0	539	504	1020	0	0	0	
2	0	0	0	0	537	504	1021	0	0	0	
3	0	0	0	0	536	503	1021	0	0	0	
4	0	0	0	0	533	502	1021	0	0	0	
5	0	0	0	0	530	500	1021	0	0	0	
6	0	0	0	0	525	497	1020	0	0	0	
7	0	0	0	0	519	493	1021	0	0	0	
8	0	0	0	0	514	489	1020	0	0	0	
9	0	0	0	0	508	484	1021	0	0	0	
10	0	0	0	0	503	479	1021	0	0	0	
11	0	0	0	0	498	475	1021	0	0	0	
12	0	0	0	0	495	471	1021	0	0	0	
13	0	0	0	0	493	468	1021	0	0	0	
14	0	0	0	0	493	466	1021	0	0	0	
15	0	0	0	0	494	465	1021	0	0	0	
0	0	0	0	0	495	464	1020	0	0	0	
1	0	0	0	0	497	464	1021	0	0	0	
2	0	0	0	0	500	465	1021	0	0	0	
3	0	0	0	0	504	467	1021	0	0	0	
4	0	0	0	0	507	468	1021	0	0	0	
5	0	0	0	0	510	471	1020	0	0	0	
6	0	0	0	0	514	474	1021	0	0	0	
7	0	0	0	0	518	478	1020	0	0	0	
8	0	0	0	0	521	481	1021	0	0	0	
9	0	0	0	0	525	486	1021	0	0	0	
10	0	0	0	0	528	489	1021	0	0	0	
11	0	0	0	0	530	493	1021	0	0	0	
12	0	0	0	0	532	496	1021	0	0	0	
13	0	0	0	0	533	499	1021	0	0	0	
14	0	0	0	0	533	499	1021	0	0	0	
15	0	0	0	0	532	500	1020	0	0	0	
0	0	0	0	0	531	499	1021	0	0	0	
1	0	0	0	0	529	497	1021	0	0	0	
2	0	0	0	0	527	496	1021	0	0	0	
3	0	0	0	0	525	493	1021	0	0	0	
4	0	0	0	0	524	491	1021	0	0	0	
5	0	0	0	0	523	490	1021	0	0	0	
6	0	0	0	0	523	490	1021	0	0	0	
7	0	0	0	0	525	491	1021	0	0	0	
8	0	0	0	0	527	492	1021	0	0	0	
9	0	0	0	0	530	494	1021	0	0	0	
10	0	0	0	0	535	497	1021	0	0	0	
11	0	0	0	0	540	500	1021	0	0	0	
12	0	0	0	0	545	505	1021	0	0	0	
13	0	0	0	0	550	509	1021	0	0	0	
14	0	0	0	0	553	512	1021	0	0	0	
15	0	0	0	0	555	514	1021	0	0	0	
0	0	0	0	0	555	514	1021	0	0	0	
1	0	0	0	0	552	512	1021	0	0	0	
2	0	0	0	0	547	508	1021	0	0	0	
3	0	0	0	0	541	503	1021	0	0	0	
4	0	0	0	0	534	497	1021	0	0	0	
5	0	0	0	0	526	491	1021	0	0	0	
6	0	0	0	0	519	486	1021	0	0	0	
7	0	0	0	0	513	480	1021	0	0	0	
8	0	0	0	0	508	476	1021	0	0	0	
9	0	0	0	0	503	472	1021	0	0	0	
10	0	0	0	0	500	469	1021	0	0	0	
11	0	0	0	0	498	466	1021	0	0	0	
12	0	0	0	0	497	464	1021	0	0	0	
13	0	0	0	0	497	463	1021	0	0	0	
14	0	0	0	0	499	464	1021	0	0	0	
15	0	0	0	0	503	466	1021	0	0	0	
0	0	0	0	0	508	469	1021	0	0	0	
1	0	0	0	0	514	474	1021	0	0	0	
2	0	0	0	0	521	479	1021	0	0	0	
3	0	0	0	0	528	486	1021	0	0	0	
4	0	0	0	0	536	492	1021	0	0	0	
5	0	0	0	0	542	497	1021	0	0	0	
6	0	0	0	0	547	502	1021	0	0	0	
7	0	0	0	0	551	506	1021	0	0	0	
8	0	0	0	0	554	509	1021	0	0	0	
9	0	0	0	0	555	511	1021	0	0	0	
10	0	0	0	0	555	513	1021	0	0	0	
11	0	0	0	0	554	514	1021	0	0	0	
12	0	0	0	0	553	514	1021	0	0	0	
13	0	0	0	0	551	514	1021	0	0	0	
14	0	0	0	0	548	513	1021	0	0	0	
15	0	0	0	0	544	511	1021	0	0	0	
0	0	0	0	0	539	507	1021	0	0	0	
1	0	0	0	0	532	501	1021	0	0	0	
2	0	0	0	0	525	494	1021	0	0	0	
3	0	0	0	0	517	487	1021	0	0	0	
4	0	0	0	0	510	479	1021	0	0	0	
5	0	0	0	0	502	472	1021	0	0	0	
6	0	0	0	0	496	466	1021	0	0	0	
7	0	0	0	0	492	462	1021	0	0	0	
8	0	0	0	0	491	461	1021	0	0	0	
9	0	0	0	0	492	461	1021	0	0	0	
10	0	0	0	0	495	463	1021	0	0	0	
11	0	0	0	0	500	466	1021	0	0	0	
12	0	0	0	0	507	471	1021	0	0	0	
13	0	0	0	0	513	475	1021	0	0	0	
14	0	0	0	0	520	479	1021	0	0	0	
15	0	0	0	0	527	483	1021	0	0	0	
0	0	0	0	0	532	486	1021	0	0	0	
1	0	0	0	0	536	488	1021	0	0	0	
2	0	0	0	0	538	489	1021	0	0	0	
3	0	0	0	0	538	489	1021	0	0	0	
4	0	0	0	0	537	488	1021	0	0	0	
5	0	0	0	0	534	487	1021	0	0	0	
6	0	0	0	0	531	484	1021	0	0	0	
7	0	0	0	0	527	482	1021	0	0	0	
8	0	0	0	0	524	480	1021	0	0	0	
9	0	0	0	0	520	479	1021	0	0	0	
10	0	0	0	0	517	478	1021	0	0	0	
11	0	0	0	0	515	477	1021	0	0	0	
12	0	0	0	0	512	476	1021	0	0	0	
13	0	0	0	0	511	476	1021	0	0	0	
14	0	0	0	0	511	476	1021	0	0	0	
15	0	0	0	0	510	476	1020	0	0	0	
0	0	0	0	0	511	476	1021	0	0	0	
1	0	0	0	0	511	476	1021	0	0	0	
2	0	0	0	0	512	476	1021	0	0	0	
3	0	0	0	0	514	477	1021	0	0	0	
4	0	0	0	0	517	477	1021	0	0	0	
5	0	0	0	0	519	479	1021	0	0	0	
6	0	0	0	0	523	481	1021	0	0	0	
7	0	0	0	0	527	483	1021	0	0	0	
8	0	0	0	0	531	486	1021	0	0	0	
9	0	0	0	0	534	489	1021	0	0	0	
10	0	0	0	0	538	493	1021	0	0	0	
11	0	0	0	0	542	497	1021	0	0	0	
12	0	0	0	0	544	500	1021	0	0	0	
13	0	0	0	0	546	503	1021	0	0	0	
14	0	0	0	0	547	505	1021	0	0	0	
15	0	0	0	0	547	508	1020	0	0	0	
0	0	0	0	0	547	509	1021	0	0	0	
1	0	0	0	0	547	510	1021	0	0	0	
2	0	0	0	0	546	511	1021	0	0	0	
3	0	0	0	0	544	511	1021	0	0	0	
4	0	0	0	0	543	510	1021	0	0	0	
5	0	0	0	0	540	508	1021	0	0	0	
6	0	0	0	0	537	505	1021	0	0	0	
7	0	0	0	0	534	502	1021	0	0	0	
8	0	0	0	0	530	498	1020	0	0	0	
9	0	0	0	0	527	495	1021	0	0	0	
10	0	0	0	0	524	491	1021	0	0	0	
11	0	0	0	0	523	489	1021	0	0	0	
12	0	0	0	0	523	487	1021	0	0	0	
13	0	0	0	0	523	486	1021	0	0	0	
14	0	0	0	0	524	486	1021	0	0	0	
15	0	0	0	0	527	488	1021	0	0	0	
0	0	0	0	0	531	491	1020	0	0	0	
1	0	0	0	0	536	495	1021	0	0	0	
2	0	0	0	0	541	499	1021	0	0	0	
3	0	0	0	0	545	504	1021	0	0	0	
4	0	0	0	0	549	508	1021	0	0	0	
5	0	0	0	0	551	510	1021	0	0	0	
6	0	0	0	0	551	510	1021	0	0	0	
7	0	0	0	0	550	509	1021	0	0	0	
8	0	0	0	0	546	506	1021	0	0	0	
9	0	0	0	0	541	502	1021	0	0	0	
10	0	0	0	0	535	496	1021	0	0	0	
11	0	0	0	0	529	492	1021	0	0	0	
12	0	0	0	0	524	487	1021	0	0	0	
13	0	0	0	0	519	483	1021	0	0	0	
14	0	0	0	0	516	481	1021	0	0	0	
15	0	0	0	0	513	478	1021	0	0	0	
0	0	0	0	0	511	476	1021	0	0	0	
1	0	0	0	0	510	476	1021	0	0	0	
2	0	0	0	0	509	475	1021	0	0	0	
3	0	0	0	0	510	475	1021	0	0	0	
4	0	0	0	0	511	476	1021	0	0	0	
5	0	0	0	0	513	477	1021	0	0	0	
6	0	0	0	0	515	479	1021	0	0	0	
7	0	0	0	0	519	482	1021	0	0	0	
8	0	0	0	0	523	485	1021	0	0	0	
9	0	0	0	0	527	489	1021	0	0	0	
10	0	0	0	0	531	492	1021	0	0	0	
11	0	0	0	0	536	496	1021	0	0	0	
12	0	0	0	0	540	500	1021	0	0	0	
13	0	0	0	0	543	504	1021	0	0	0	
14	0	0	0	0	547	507	1021	0	0	0	
15	0	0	0	0	549	510	1021	0	0	0	
0	0	0	0	0	551	511	1021	0	0	0	
1	0	0	0	0	551	511	1021	0	0	0	
2	0	0	0	0	549	510	1021	0	0	0	
3	0	0	0	0	546	507	1021	0	0	0	
4	0	0	0	0	542	504	1021	0	0	0	
5	0	0	0	0	536	499	1021	0	0	0	
6	0	0	0	0	530	494	1021	0	0	0	
7	0	0	0	0	524	489	1021	0	0	0	
8	0	0	0	0	518	485	1021	0	0	0	
9	0	0	0	0	513	481	1021	0	0	0	
10	0	0	0	0	510	478	1020	0	0	0	
11	0	0	0	0	507	476	1021	0	0	0	
12	0	0	0	0	507	476	1021	0	0	0	
13	0	0	0	0	508	477	1021	0	0	0	
14	0	0	0	0	510	479	1021	0	0	0	
15	0	0	0	0	513	481	1020	0	0	0	
0	0	0	0	0	517	484	1021	0	0	0	
1	0	0	0	0	522	488	1021	0	0	0	
2	0	0	0	0	528	492	1021	0	0	0	
3	0	0	0	0	534	497	1021	0	0	0	
4	0	0	0	0	539	502	1020	0	0	0	
5	0	0	0	0	544	505	1021	0	0	0	
6	0	0	0	0	547	507	1021	0	0	0	
7	0	0	0	0	549	508	1021	0	0	0	
8	0	0	0	0	549	508	1021	0	0	0	
9	0	0	0	0	548	507	1020	0	0	0	
10	0	0	0	0	546	504	1021	0	0	0	
11	0	0	0	0	543	503	1021	0	0	0	
12	0	0	0	0	541	501	1021	0	0	0	
13	0	0	0	0	539	499	1021	0	0	0	
14	0	0	0	0	536	499	1020	0	0	0	
15	0	0	0	0	535	497	1021	0	0	0	
0	0	0	0	0	533	497	1021	0	0	0	
1	0	0	0	0	532	496	1021	0	0	0	
2	0	0	0	0	531	495	1021	0	0	0	
3	0	0	0	0	529	493	1021	0	0	0	
4	0	0	0	0	528	492	1021	0	0	0	
5	0	0	0	0	527	490	1021	0	0	0	
6	0	0	0	0	527	489	1021	0	0	0	
7	0	0	0	0	526	487	1021	0	0	0	
8	0	0	0	0	525	486	1020	0	0	0	
9	0	0	0	0	524	484	1021	0	0	0	
10	0	0	0	0	523	483	1021	0	0	0	
11	0	0	0	0	523	482	1021	0	0	0	
12	0	0	0	0	523	481	1021	0	0	0	
13	0	0	0	0	523	480	1021	0	0	0	
14	0	0	0	0	522	480	1021	0	0	0	
15	0	0	0	0	523	480	1021	0	0	0	
0	0	0	0	0	523	480	1021	0	0	0	
1	0	0	0	0	524	480	1021	0	0	0	
2	0	0	0	0	524	481	1020	0	0	0	
3	0	0	0	0	526	483	1021	0	0	0	
4	0	0	0	0	527	484	1021	0	0	0	
5	0	0	0	0	529	486	1021	0	0	0	
6	0	0	0	0	531	487	1021	0	0	0	
7	0	0	0	0	532	489	1021	0	0	0	
8	0	0	0	0	535	491	1021	0	0	0	
9	0	0	0	0	537	493	1021	0	0	0	
10	0	0	0	0	539	495	1021	0	0	0	
11	0	0	0	0	542	496	1021	0	0	0	
12	0	0	0	0	544	498	1021	0	0	0	
13	0	0	0	0	546	500	1021	0	0	0	
14	0	0	0	0	548	503	1021	0	0	0	
15	0	0	0	0	551	505	1021	0	0	0	
0	0	0	0	0	552	507	1021	0	0	0	
1	0	0	0	0	553	507	1021	0	0	0	
2	0	0	0	0	553	507	1021	0	0	0	
3	0	0	0	0	551	507	1021	0	0	0	
4	0	0	0	0	549	504	1021	0	0	0	
5	0	0	0	0	545	501	1021	0	0	0	
6	0	0	0	0	540	497	1020	0	0	0	
7	0	0	0	0	536	494	1020	0	0	0	
8	0	0	0	0	531	490	1021	0	0	0	
9	0	0	0	0	528	487	1021	0	0	0	
10	0	0	0	0	526	485	1021	0	0	0	
11	0	0	0	0	524	483	1021	0	0	0	
12	0	0	0	0	524	483	1021	0	0	0	
13	0	0	0	0	524	483	1021	0	0	0	
14	0	0	0	0	525	483	1021	0	0	0	
15	0	0	0	0	527	484	1021	0	0	0	
0	0	0	0	0	530	487	1020	0	0	0	
1	0	0	0	0	533	489	1021	0	0	0	
2	0	0	0	0	537	492	1021	0	0	0	
3	0	0	0	0	541	496	1021	0	0	0	
4	0	0	0	0	546	500	1021	0	0	0	
5	0	0	0	0	551	504	1021	0	0	0	
6	0	0	0	0	555	508	1021	0	0	0	
7	0	0	0	0	559	512	1021	0	0	0	
8	0	0	0	0	561	515	1021	0	0	0	
9	0	0	0	0	562	516	1021	0	0	0	
10	0	0	0	0	561	515	1021	0	0	0	
11	0	0	0	0	558	513	1020	0	0	0	
12	0	0	0	0	552	508	1021	0	0	0	
13	0	0	0	0	544	502	1021	0	0	0	
14	0	0	0	0	535	494	1021	0	0	0	
15	0	0	0	0	523	485	1020	0	0	0	
0	0	0	0	0	511	475	1021	0	0	0	
1	0	0	0	0	499	464	1021	0	0	0	
2	0	0	0	0	486	453	1021	0	0	0	
3	0	0	0	0	473	442	1021	0	0	0	
4	0	0	0	0	461	431	1021	0	0	0	
5	0	0	0	0	449	420	1021	0	0	0	
6	0	0	0	0	437	408	1021	0	0	0	
7	0	0	0	0	424	395	1021	0	0	0	
8	0	0	0	0	412	383	1021	0	0	0	
9	0	0	0	0	399	370	1021	0	0	0	
10	0	0	0	0	387	356	1020	0	0	0	
11	0	0	0	0	373	342	1021	0	0	0	
12	0	0	0	0	359	326	1021	0	0	0	
13	0	0	0	0	343	309	1021	0	0	0	
14	0	0	0	0	326	291	1021	0	0	0	
15	0	0	0	0	309	274	1021	0	0	0	
0	0	0	0	0	292	256	1020	0	0	0	
1	0	0	0	0	277	240	1021	0	0	0	
2	0	0	0	0	263	226	1021	0	0	0	
3	0	0	0	0	252	215	1021	0	0	0	
4	0	0	0	0	244	206	1020	0	0	0	
5	0	0	0	0	240	202	1021	0	0	0	
6	0	0	0	0	242	202	1021	0	0	0	
7	0	0	0	0	249	207	1021	0	0	0	
8	0	0	0	0	263	219	1021	0	0	0	
9	0	0	0	0	283	236	1020	0	0	0	
10	0	0	0	0	309	258	1021	0	0	0	
11	0	0	0	0	340	285	1021	0	0	0	
12	0	0	0	0	376	316	1021	0	0	0	
13	0	0	0	0	415	350	1021	0	0	0	
14	0	0	0	0	456	386	1020	0	0	0	
15	0	0	0	0	498	423	1021	0	0	0	
0	0	0	0	0	537	459	1021	0	0	0	
1	0	0	0	0	573	492	1021	0	0	0	
2	0	0	0	0	602	520	1021	0	0	0	
3	0	0	0	0	625	544	1020	0	0	0	
4	0	0	0	0	640	561	1021	0	0	0	
5	0	0	0	0	647	570	1021	0	0	0	
6	0	0	0	0	646	574	1021	0	0	0	
7	0	0	0	0	639	572	1021	0	0	0	
8	0	0	0	0	625	564	1021	0	0	0	
9	0	0	0	0	607	553	1021	0	0	0	
10	0	0	0	0	586	539	1021	0	0	0	
11	0	0	0	0	564	524	1021	0	0	0	
12	0	0	0	0	543	508	1021	0	0	0	
13	0	0	0	0	525	495	1020	0	0	0	
14	0	0	0	0	510	483	1021	0	0	0	
15	0	0	0	0	499	473	1021	0	0	0	
0	0	0	0	0	493	467	1021	0	0	0	
1	0	0	0	0	491	462	1021	0	0	0	
2	0	0	0	0	492	461	1021	0	0	0	
3	0	0	0	0	497	463	1021	0	0	0	
4	0	0	0	0	505	467	1021	0	0	0	
5	0	0	0	0	515	472	1021	0	0	0	
6	0	0	0	0	526	479	1020	0	0	0	
7	0	0	0	0	536	486	1021	0	0	0	
8	0	0	0	0	547	495	1021	0	0	0	
9	0	0	0	0	556	502	1021	0	0	0	
10	0	0	0	0	564	509	1021	0	0	0	
11	0	0	0	0	570	515	1020	0	0	0	
12	0	0	0	0	574	519	1021	0	0	0	
13	0	0	0	0	576	523	1021	0	0	0	
14	0	0	0	0	577	525	1021	0	0	0	
15	0	0	0	0	577	527	1021	0	0	0	
0	0	0	0	0	575	528	1021	0	0	0	
1	0	0	0	0	574	529	1021	0	0	0	
2	0	0	0	0	572	529	1021	0	0	0	
3	0	0	0	0	570	528	1021	0	0	0	
4	0	0	0	0	568	527	1021	0	0	0	
5	0	0	0	0	565	525	1021	0	0	0	
6	0	0	0	0	562	524	1021	0	0	0	
7	0	0	0	0	560	521	1021	0	0	0	
8	0	0	0	0	558	519	1021	0	0	0	
9	0	0	0	0	556	516	1021	0	0	0	
10	0	0	0	0	553	513	1021	0	0	0	
11	0	0	0	0	552	510	1021	0	0	0	
12	0	0	0	0	552	509	1021	0	0	0	
13	0	0	0	0	552	508	1021	0	0	0	
14	0	0	0	0	553	508	1021	0	0	0	
15	0	0	0	0	554	508	1021	0	0	0	
0	0	0	0	0	555	508	1021	0	0	0	
1	0	0	0	0	556	507	1021	0	0	0	
2	0	0	0	0	555	506	1021	0	0	0	
3	0	0	0	0	553	504	1021	0	0	0	
4	0	0	0	0	551	501	1021	0	0	0	
5	0	0	0	0	547	498	1021	0	0	0	
6	0	0	0	0	544	495	1021	0	0	0	
7	0	0	0	0	541	493	1021	0	0	0	
8	0	0	0	0	538	491	1021	0	0	0	
9	0	0	0	0	536	491	1020	0	0	0	
10	0	0	0	0	535	491	1021	0	0	0	
11	0	0	0	0	536	492	1021	0	0	0	
12	0	0	0	0	537	495	1021	0	0	0	
13	0	0	0	0	540	498	1021	0	0	0	
14	0	0	0	0	542	501	1020	0	0	0	
15	0	0	0	0	544	503	1021	0	0	0	
0	0	0	0	0	547	505	1020	0	0	0	
1	0	0	0	0	548	507	1021	0	0	0	
2	0	0	0	0	550	507	1021	0	0	0	
3	0	0	0	0	551	507	1020	0	0	0	
4	0	0	0	0	552	506	1021	0	0	0	
5	0	0	0	0	553	506	1021	0	0	0	
6	0	0	0	0	555	506	1021	0	0	0	
7	0	0	0	0	557	507	1021	0	0	0	
8	0	0	0	0	559	508	1021	0	0	0	
9	0	0	0	0	562	511	1021	0	0	0	
10	0	0	0	0	566	514	1021	0	0	0	
11	0	0	0	0	570	517	1021	0	0	0	
12	0	0	0	0	573	520	1021	0	0	0	
13	0	0	0	0	576	524	1020	0	0	0	
14	0	0	0	0	579	527	1021	0	0	0	
15	0	0	0	0	583	531	1021	0	0	0	
0	0	0	0	0	585	534	1021	0	0	0	
1	0	0	0	0	588	536	1021	0	0	0	
2	0	0	0	0	588	538	1020	0	0	0	
3	0	0	0	0	588	539	1021	0	0	0	
4	0	0	0	0	588	539	1021	0	0	0	
5	0	0	0	0	586	539	1021	0	0	0	
6	0	0	0	0	585	539	1021	0	0	0	
7	0	0	0	0	583	538	1021	0	0	0	
8	0	0	0	0	579	535	1021	0	0	0	
9	0	0	0	0	575	531	1021	0	0	0	
10	0	0	0	0	569	524	1021	0	0	0	
11	0	0	0	0	561	516	1021	0	0	0	
12	0	0	0	0	552	507	1021	0	0	0	
13	0	0	0	0	542	497	1021	0	0	0	
14	0	0	0	0	533	487	1021	0	0	0	
15	0	0	0	0	524	478	1021	0	0	0	
0	0	0	0	0	516	471	1021	0	0	0	
1	0	0	0	0	511	465	1021	0	0	0	
2	0	0	0	0	508	462	1021	0	0	0	
3	0	0	0	0	507	460	1021	0	0	0	
4	0	0	0	0	508	461	1021	0	0	0	
5	0	0	0	0	510	463	1021	0	0	0	
6	0	0	0	0	514	466	1021	0	0	0	
7	0	0	0	0	519	471	1021	0	0	0	
8	0	0	0	0	526	476	1021	0	0	0	
9	0	0	0	0	532	481	1021	0	0	0	
10	0	0	0	0	538	486	1021	0	0	0	
11	0	0	0	0	543	490	1020	0	0	0	
12	0	0	0	0	547	494	1021	0	0	0	
13	0	0	0	0	550	497	1021	0	0	0	
14	0	0	0	0	552	499	1021	0	0	0	
15	0	0	0	0	553	501	1021	0	0	0	
0	0	0	0	0	555	503	1020	0	0	0	
1	0	0	0	0	556	504	1021	0	0	0	
2	0	0	0	0	558	506	1021	0	0	0	
3	0	0	0	0	560	508	1021	0	0	0	
4	0	0	0	0	562	511	1021	0	0	0	
5	0	0	0	0	564	515	1020	0	0	0	
6	0	0	0	0	568	519	1021	0	0	0	
7	0	0	0	0	571	524	1021	0	0	0	
8	0	0	0	0	574	527	1021	0	0	0	
9	0	0	0	0	575	530	1021	0	0	0	
10	0	0	0	0	574	531	1021	0	0	0	
11	0	0	0	0	572	531	1021	0	0	0	
12	0	0	0	0	568	529	1021	0	0	0	
13	0	0	0	0	564	526	1021	0	0	0	
14	0	0	0	0	559	523	1021	0	0	0	
15	0	0	0	0	554	519	1021	0	0	0	
0	0	0	0	0	549	515	1021	0	0	0	
1	0	0	0	0	545	512	1021	0	0	0	
2	0	0	0	0	543	509	1021	0	0	0	
3	0	0	0	0	541	507	1021	0	0	0	
4	0	0	0	0	540	505	1021	0	0	0	
5	0	0	0	0	541	504	1021	0	0	0	
6	0	0	0	0	543	504	1021	0	0	0	
7	0	0	0	0	544	503	1021	0	0	0	
8	0	0	0	0	545	502	1021	0	0	0	
9	0	0	0	0	546	500	1020	0	0	0	
10	0	0	0	0	546	498	1021	0	0	0	
11	0	0	0	0	545	496	1021	0	0	0	
12	0	0	0	0	544	495	1021	0	0	0	
13	0	0	0	0	543	493	1021	0	0	0	
14	0	0	0	0	542	492	1020	0	0	0	
15	0	0	0	0	540	492	1021	0	0	0	
0	0	0	0	0	540	493	1021	0	0	0	
1	0	0	0	0	539	494	1021	0	0	0	
2	0	0	0	0	539	495	1021	0	0	0	
3	0	0	0	0	537	496	1020	0	0	0	
4	0	0	0	0	537	496	1021	0	0	0	
5	0	0	0	0	537	497	1021	0	0	0	
6	0	0	0	0	538	498	1021	0	0	0	
7	0	0	0	0	539	499	1021	0	0	0	
8	0	0	0	0	540	500	1020	0	0	0	
9	0	0	0	0	541	500	1021	0	0	0	
10	0	0	0	0	543	501	1021	0	0	0	
11	0	0	0	0	543	501	1021	0	0	0	
12	0	0	0	0	543	501	1021	0	0	0	
13	0	0	0	0	541	500	1021	0	0	0	
14	0	0	0	0	540	499	1021	0	0	0	
15	0	0	0	0	539	499	1021	0	0	0	
0	0	0	0	0	538	499	1021	0	0	0	
1	0	0	0	0	537	498	1020	0	0	0	
2	0	0	0	0	536	497	1021	0	0	0	
3	0	0	0	0	536	496	1021	0	0	0	
4	0	0	0	0	536	496	1021	0	0	0	
5	0	0	0	0	536	496	1021	0	0	0	
6	0	0	0	0	537	496	1020	0	0	0	
7	0	0	0	0	539	498	1021	0	0	0	
8	0	0	0	0	541	499	1021	0	0	0	
9	0	0	0	0	544	502	1021	0	0	0	
10	0	0	0	0	547	504	1021	0	0	0	
11	0	0	0	0	550	506	1021	0	0	0	
12	0	0	0	0	551	508	1021	0	0	0	
13	0	0	0	0	553	510	1021	0	0	0	
14	0	0	0	0	554	511	1021	0	0	0	
15	0	0	0	0	556	513	1021	0	0	0	
0	0	0	0	0	557	515	1021	0	0	0	
1	0	0	0	0	557	516	1021	0	0	0	
2	0	0	0	0	558	517	1021	0	0	0	
3	0	0	0	0	559	518	1021	0	0	0	
4	0	0	0	0	559	518	1021	0	0	0	
5	0	0	0	0	560	519	1021	0	0	0	
6	0	0	0	0	561	519	1021	0	0	0	
7	0	0	0	0	562	521	1021	0	0	0	
8	0	0	0	0	564	522	1021	0	0	0	
9	0	0	0	0	566	524	1021	0	0	0	
10	0	0	0	0	568	526	1020	0	0	0	
11	0	0	0	0	569	527	1021	0	0	0	
12	0	0	0	0	569	527	1021	0	0	0	
13	0	0	0	0	568	526	1021	0	0	0	
14	0	0	0	0	566	524	1021	0	0	0	
15	0	0	0	0	562	520	1021	0	0	0	
0	0	0	0	0	557	516	1021	0	0	0	
1	0	0	0	0	552	511	1021	0	0	0	
2	0	0	0	0	547	507	1021	0	0	0	
3	0	0	0	0	543	504	1021	0	0	0	
4	0	0	0	0	540	501	1021	0	0	0	
5	0	0	0	0	537	499	1021	0	0	0	
6	0	0	0	0	537	499	1021	0	0	0	
7	0	0	0	0	537	500	1021	0	0	0	
8	0	0	0	0	539	502	1021	0	0	0	
9	0	0	0	0	541	504	1021	0	0	0	
10	0	0	0	0	543	506	1021	0	0	0	
11	0	0	0	0	544	508	1021	0	0	0	
12	0	0	0	0	546	509	1021	0	0	0	
13	0	0	0	0	547	509	1021	0	0	0	
14	0	0	0	0	547	509	1021	0	0	0	
15	0	0	0	0	547	508	1021	0	0	0	
0	0	0	0	0	546	507	1021	0	0	0	
1	0	0	0	0	545	506	1021	0	0	0	
2	0	0	0	0	544	505	1021	0	0	0	
3	0	0	0	0	543	503	1021	0	0	0	
4	0	0	0	0	542	502	1021	0	0	0	
5	0	0	0	0	541	501	1021	0	0	0	
6	0	0	0	0	540	500	1021	0	0	0	
7	0	0	0	0	540	499	1021	0	0	0	
8	0	0	0	0	540	498	1021	0	0	0	
9	0	0	0	0	540	498	1021	0	0	0	
10	0	0	0	0	541	498	1021	0	0	0	
11	0	0	0	0	542	498	1021	0	0	0	
12	0	0	0	0	543	499	1021	0	0	0	
13	0	0	0	0	544	501	1020	0	0	0	
14	0	0	0	0	547	503	1021	0	0	0	
15	0	0	0	0	549	504	1021	0	0	0	
0	0	0	0	0	553	508	1020	0	0	0	
1	0	0	0	0	556	511	1021	0	0	0	
2	0	0	0	0	560	515	1021	0	0	0	
3	0	0	0	0	566	520	1021	0	0	0	
4	0	0	0	0	571	525	1021	0	0	0	
5	0	0	0	0	575	529	1021	0	0	0	
6	0	0	0	0	578	533	1021	0	0	0	
7	0	0	0	0	580	535	1021	0	0	0	
8	0	0	0	0	580	536	1021	0	0	0	
9	0	0	0	0	580	535	1021	0	0	0	
10	0	0	0	0	578	534	1021	0	0	0	
11	0	0	0	0	575	531	1021	0	0	0	
12	0	0	0	0	572	528	1021	0	0	0	
13	0	0	0	0	567	524	1020	0	0	0	
14	0	0	0	0	561	520	1021	0	0	0	
15	0	0	0	0	554	515	1021	0	0	0	
0	0	0	0	0	548	509	1021	0	0	0	
1	0	0	0	0	541	504	1021	0	0	0	
2	0	0	0	0	535	500	1020	0	0	0	
3	0	0	0	0	531	497	1021	0	0	0	
4	0	0	0	0	529	495	1021	0	0	0	
5	0	0	0	0	529	496	1021	0	0	0	
6	0	0	0	0	532	498	1021	0	0	0	
7	0	0	0	0	536	501	1021	0	0	0	
8	0	0	0	0	543	506	1021	0	0	0	
9	0	0	0	0	551	511	1021	0	0	0	
10	0	0	0	0	559	516	1021	0	0	0	
11	0	0	0	0	568	522	1021	0	0	0	
12	0	0	0	0	575	526	1021	0	0	0	
13	0	0	0	0	580	529	1021	0	0	0	
14	0	0	0	0	582	529	1021	0	0	0	
15	0	0	0	0	580	527	1021	0	0	0	
0	0	0	0	0	575	523	1021	0	0	0	
1	0	0	0	0	568	516	1021	0	0	0	
2	0	0	0	0	559	509	1021	0	0	0	
3	0	0	0	0	549	502	1021	0	0	0	
4	0	0	0	0	540	496	1021	0	0	0	
5	0	0	0	0	532	491	1021	0	0	0	
6	0	0	0	0	526	488	1021	0	0	0	
7	0	0	0	0	522	487	1021	0	0	0	
8	0	0	0	0	520	487	1021	0	0	0	
9	0	0	0	0	520	487	1021	0	0	0	
10	0	0	0	0	522	489	1021	0	0	0	
11	0	0	0	0	524	491	1021	0	0	0	
12	0	0	0	0	527	493	1021	0	0	0	
13	0	0	0	0	531	495	1021	0	0	0	
14	0	0	0	0	535	497	1021	0	0	0	
15	0	0	0	0	539	499	1021	0	0	0	
0	0	0	0	0	543	500	1020	0	0	0	
1	0	0	0	0	547	502	1021	0	0	0	
2	0	0	0	0	551	504	1021	0	0	0	
3	0	0	0	0	554	505	1021	0	0	0	
4	0	0	0	0	556	507	1021	0	0	0	
5	0	0	0	0	558	508	1021	0	0	0	
6	0	0	0	0	559	508	1021	0	0	0	
7	0	0	0	0	558	509	1021	0	0	0	
8	0	0	0	0	556	508	1021	0	0	0	
9	0	0	0	0	554	507	1021	0	0	0	
10	0	0	0	0	551	505	1021	0	0	0	
11	0	0	0	0	548	505	1021	0	0	0	
12	0	0	0	0	546	504	1021	0	0	0	
13	0	0	0	0	543	503	1021	0	0	0	
14	0	0	0	0	542	503	1021	0	0	0	
15	0	0	0	0	541	502	1021	0	0	0	
0	0	0	0	0	542	503	1021	0	0	0	
1	0	0	0	0	543	504	1021	0	0	0	
2	0	0	0	0	545	505	1021	0	0	0	
3	0	0	0	0	549	507	1021	0	0	0	
4	0	0	0	0	553	510	1021	0	0	0	
5	0	0	0	0	557	513	1021	0	0	0	
6	0	0	0	0	561	516	1021	0	0	0	
7	0	0	0	0	566	518	1021	0	0	0	
8	0	0	0	0	568	520	1021	0	0	0	
9	0	0	0	0	570	521	1021	0	0	0	
10	0	0	0	0	571	521	1021	0	0	0	
11	0	0	0	0	570	521	1021	0	0	0	
12	0	0	0	0	568	519	1021	0	0	0	
13	0	0	0	0	567	518	1021	0	0	0	
14	0	0	0	0	563	516	1021	0	0	0	
15	0	0	0	0	561	515	1021	0	0	0	
0	0	0	0	0	558	514	1020	0	0	0	
1	0	0	0	0	556	512	1021	0	0	0	
2	0	0	0	0	554	511	1021	0	0	0	
3	0	0	0	0	552	511	1021	0	0	0	
4	0	0	0	0	551	511	1021	0	0	0	
5	0	0	0	0	551	511	1021	0	0	0	
6	0	0	0	0	551	511	1021	0	0	0	
7	0	0	0	0	551	510	1021	0	0	0	
8	0	0	0	0	550	509	1021	0	0	0	
9	0	0	0	0	550	509	1021	0	0	0	
10	0	0	0	0	549	508	1021	0	0	0	
11	0	0	0	0	549	507	1021	0	0	0	
12	0	0	0	0	549	506	1021	0	0	0	
13	0	0	0	0	548	505	1021	0	0	0	
14	0	0	0	0	548	505	1021	0	0	0	
15	0	0	0	0	549	505	1021	0	0	0	
0	0	0	0	0	551	507	1021	0	0	0	
1	0	0	0	0	552	509	1021	0	0	0	
2	0	0	0	0	555	512	1021	0	0	0	
3	0	0	0	0	559	515	1021	0	0	0	
4	0	0	0	0	563	519	1021	0	0	0	
5	0	0	0	0	567	523	1021	0	0	0	
6	0	0	0	0	571	526	1021	0	0	0	
7	0	0	0	0	574	528	1021	0	0	0	
8	0	0	0	0	575	531	1021	0	0	0	
9	0	0	0	0	575	531	1021	0	0	0	
10	0	0	0	0	574	529	1021	0	0	0	
11	0	0	0	0	570	526	1021	0	0	0	
12	0	0	0	0	563	519	1021	0	0	0	
13	0	0	0	0	554	511	1021	0	0	0	
14	0	0	0	0	543	502	1021	0	0	0	
15	0	0	0	0	532	492	1021	0	0	0	
0	0	0	0	0	519	481	1021	0	0	0	
1	0	0	0	0	509	472	1021	0	0	0	
2	0	0	0	0	500	465	1021	0	0	0	
3	0	0	0	0	494	460	1021	0	0	0	
4	0	0	0	0	489	457	1021	0	0	0	
5	0	0	0	0	489	456	1021	0	0	0	
6	0	0	0	0	491	459	1021	0	0	0	
7	0	0	0	0	496	463	1021	0	0	0	
8	0	0	0	0	504	469	1021	0	0	0	
9	0	0	0	0	514	477	1021	0	0	0	
10	0	0	0	0	526	485	1021	0	0	0	
11	0	0	0	0	537	493	1021	0	0	0	
12	0	0	0	0	548	500	1021	0	0	0	
13	0	0	0	0	557	506	1021	0	0	0	
14	0	0	0	0	563	510	1021	0	0	0	
15	0	0	0	0	566	512	1020	0	0	0	
0	0	0	0	0	568	512	1021	0	0	0	
1	0	0	0	0	565	511	1021	0	0	0	
2	0	0	0	0	561	510	1021	0	0	0	
3	0	0	0	0	557	508	1021	0	0	0	
4	0	0	0	0	553	506	1021	0	0	0	
5	0	0	0	0	551	506	1021	0	0	0	
6	0	0	0	0	550	508	1021	0	0	0	
7	0	0	0	0	551	511	1021	0	0	0	
8	0	0	0	0	555	515	1021	0	0	0	
9	0	0	0	0	559	519	1021	0	0	0	
10	0	0	0	0	562	523	1021	0	0	0	
11	0	0	0	0	565	526	1021	0	0	0	
12	0	0	0	0	567	526	1021	0	0	0	
13	0	0	0	0	566	525	1021	0	0	0	
14	0	0	0	0	563	521	1021	0	0	0	
15	0	0	0	0	557	516	1021	0	0	0	
0	0	0	0	0	550	509	1021	0	0	0	
1	0	0	0	0	542	501	1021	0	0	0	
2	0	0	0	0	534	494	1021	0	0	0	
3	0	0	0	0	526	486	1021	0	0	0	
4	0	0	0	0	519	479	1021	0	0	0	
5	0	0	0	0	513	474	1021	0	0	0	
6	0	0	0	0	511	472	1021	0	0	0	
7	0	0	0	0	510	471	1021	0	0	0	
8	0	0	0	0	513	473	1021	0	0	0	
9	0	0	0	0	518	478	1021	0	0	0	
10	0	0	0	0	526	484	1021	0	0	0	
11	0	0	0	0	536	492	1021	0	0	0	
12	0	0	0	0	545	500	1021	0	0	0	
13	0	0	0	0	555	508	1021	0	0	0	
14	0	0	0	0	563	515	1020	0	0	0	
15	0	0	0	0	570	521	1021	0	0	0	
0	0	0	0	0	575	526	1021	0	0	0	
1	0	0	0	0	577	528	1021	0	0	0	
2	0	0	0	0	577	528	1021	0	0	0	
3	0	0	0	0	574	526	1021	0	0	0	
4	0	0	0	0	568	521	1021	0	0	0	
5	0	0	0	0	560	515	1021	0	0	0	
6	0	0	0	0	551	508	1021	0	0	0	
7	0	0	0	0	540	499	1021	0	0	0	
8	0	0	0	0	530	491	1021	0	0	0	
9	0	0	0	0	520	483	1021	0	0	0	
10	0	0	0	0	512	476	1021	0	0	0	
11	0	0	0	0	506	470	1021	0	0	0	
12	0	0	0	0	502	465	1021	0	0	0	
13	0	0	0	0	500	463	1021	0	0	0	
14	0	0	0	0	501	462	1021	0	0	0	
15	0	0	0	0	504	463	1021	0	0	0	
0	0	0	0	0	508	466	1021	0	0	0	
1	0	0	0	0	515	470	1021	0	0	0	
2	0	0	0	0	522	475	1021	0	0	0	
3	0	0	0	0	529	481	1021	0	0	0	
4	0	0	0	0	537	487	1021	0	0	0	
5	0	0	0	0	543	493	1021	0	0	0	
6	0	0	0	0	550	498	1021	0	0	0	
7	0	0	0	0	554	502	1021	0	0	0	
8	0	0	0	0	557	505	1021	0	0	0	
9	0	0	0	0	559	508	1021	0	0	0	
10	0	0	0	0	559	509	1021	0	0	0	
11	0	0	0	0	558	509	1021	0	0	0	
12	0	0	0	0	555	509	1021	0	0	0	
13	0	0	0	0	553	508	1021	0	0	0	
14	0	0	0	0	551	508	1021	0	0	0	
15	0	0	0	0	550	507	1021	0	0	0	
0	0	0	0	0	549	507	1021	0	0	0	
1	0	0	0	0	550	508	1021	0	0	0	
2	0	0	0	0	551	510	1021	0	0	0	
3	0	0	0	0	555	513	1021	0	0	0	
4	0	0	0	0	560	518	1021	0	0	0	
5	0	0	0	0	565	522	1021	0	0	0	
6	0	0	0	0	571	527	1021	0	0	0	
7	0	0	0	0	576	531	1021	0	0	0	
8	0	0	0	0	580	535	1021	0	0	0	
9	0	0	0	0	583	538	1021	0	0	0	
10	0	0	0	0	585	539	1021	0	0	0	
11	0	0	0	0	585	538	1021	0	0	0	
12	0	0	0	0	583	536	1021	0	0	0	
13	0	0	0	0	579	531	1021	0	0	0	
14	0	0	0	0	573	526	1021	0	0	0	
15	0	0	0	0	567	519	1021	0	0	0	
0	0	0	0	0	559	513	1020	0	0	0	
1	0	0	0	0	551	507	1021	0	0	0	
2	0	0	0	0	545	501	1021	0	0	0	
3	0	0	0	0	539	496	1021	0	0	0	
4	0	0	0	0	534	494	1021	0	0	0	
5	0	0	0	0	531	492	1020	0	0	0	
6	0	0	0	0	530	492	1021	0	0	0	
7	0	0	0	0	530	493	1020	0	0	0	
8	0	0	0	0	532	495	1021	0	0	0	
9	0	0	0	0	536	499	1021	0	0	0	
10	0	0	0	0	540	504	1021	0	0	0	
11	0	0	0	0	547	509	1021	0	0	0	
12	0	0	0	0	555	516	1021	0	0	0	
13	0	0	0	0	562	522	1021	0	0	0	
14	0	0	0	0	569	527	1021	0	0	0	
15	0	0	0	0	574	531	1021	0	0	0	
0	0	0	0	0	577	532	1021	0	0	0	
1	0	0	0	0	576	531	1021	0	0	0	
2	0	0	0	0	572	526	1021	0	0	0	
3	0	0	0	0	564	519	1021	0	0	0	
4	0	0	0	0	553	509	1021	0	0	0	
5	0	0	0	0	541	499	1021	0	0	0	
6	0	0	0	0	528	488	1021	0	0	0	
7	0	0	0	0	515	478	1021	0	0	0	
8	0	0	0	0	504	469	1021	0	0	0	
9	0	0	0	0	496	462	1021	0	0	0	
10	0	0	0	0	491	459	1021	0	0	0	
11	0	0	0	0	489	458	1021	0	0	0	
12	0	0	0	0	492	461	1021	0	0	0	
13	0	0	0	0	498	466	1021	0	0	0	
14	0	0	0	0	506	474	1020	0	0	0	
15	0	0	0	0	517	483	1021	0	0	0	
0	0	0	0	0	529	492	1021	0	0	0	
1	0	0	0	0	543	503	1021	0	0	0	
2	0	0	0	0	555	512	1021	0	0	0	
3	0	0	0	0	565	519	1021	0	0	0	
4	0	0	0	0	572	523	1021	0	0	0	
5	0	0	0	0	577	525	1021	0	0	0	
6	0	0	0	0	578	524	1021	0	0	0	
7	0	0	0	0	575	519	1021	0	0	0	
8	0	0	0	0	568	513	1021	0	0	0	
9	0	0	0	0	560	505	1021	0	0	0	
10	0	0	0	0	550	497	1021	0	0	0	
11	0	0	0	0	540	490	1021	0	0	0	
12	0	0	0	0	531	483	1021	0	0	0	
13	0	0	0	0	523	478	1021	0	0	0	
14	0	0	0	0	517	475	1021	0	0	0	
15	0	0	0	0	514	473	1021	0	0	0	
0	0	0	0	0	514	473	1021	0	0	0	
1	0	0	0	0	516	476	1021	0	0	0	
2	0	0	0	0	519	479	1021	0	0	0	
3	0	0	0	0	525	483	1021	0	0	0	
4	0	0	0	0	531	487	1021	0	0	0	
5	0	0	0	0	537	492	1021	0	0	0	
6	0	0	0	0	543	496	1021	0	0	0	
7	0	0	0	0	549	499	1021	0	0	0	
8	0	0	0	0	553	502	1021	0	0	0	
9	0	0	0	0	556	504	1021	0	0	0	
10	0	0	0	0	558	504	1021	0	0	0	
11	0	0	0	0	557	502	1021	0	0	0	
12	0	0	0	0	554	499	1021	0	0	0	
13	0	0	0	0	550	496	1021	0	0	0	
14	0	0	0	0	545	492	1021	0	0	0	
15	0	0	0	0	540	487	1021	0	0	0	
0	0	0	0	0	534	483	1021	0	0	0	
1	0	0	0	0	528	478	1021	0	0	0	
2	0	0	0	0	524	476	1021	0	0	0	
3	0	0	0	0	520	474	1021	0	0	0	
4	0	0	0	0	519	474	1021	0	0	0	
5	0	0	0	0	519	476	1021	0	0	0	
6	0	0	0	0	521	478	1021	0	0	0	
7	0	0	0	0	524	481	1021	0	0	0	
8	0	0	0	0	528	486	1020	0	0	0	
9	0	0	0	0	533	491	1021	0	0	0	
10	0	0	0	0	539	496	1021	0	0	0	
11	0	0	0	0	545	501	1021	0	0	0	
12	0	0	0	0	551	506	1021	0	0	0	
13	0	0	0	0	557	511	1021	0	0	0	
14	0	0	0	0	562	515	1021	0	0	0	
15	0	0	0	0	566	517	1021	0	0	0	
0	0	0	0	0	567	518	1021	0	0	0	
1	0	0	0	0	567	517	1021	0	0	0	
2	0	0	0	0	564	514	1021	0	0	0	
3	0	0	0	0	560	510	1021	0	0	0	
4	0	0	0	0	554	505	1021	0	0	0	
5	0	0	0	0	547	499	1021	0	0	0	
6	0	0	0	0	541	495	1021	0	0	0	
7	0	0	0	0	536	491	1021	0	0	0	
8	0	0	0	0	531	488	1021	0	0	0	
9	0	0	0	0	529	487	1021	0	0	0	
10	0	0	0	0	528	488	1020	0	0	0	
11	0	0	0	0	528	489	1021	0	0	0	
12	0	0	0	0	531	492	1021	0	0	0	
13	0	0	0	0	534	495	1021	0	0	0	
14	0	0	0	0	538	498	1021	0	0	0	
15	0	0	0	0	542	501	1021	0	0	0	
0	0	0	0	0	547	504	1021	0	0	0	
1	0	0	0	0	551	506	1021	0	0	0	
2	0	0	0	0	554	508	1021	0	0	0	
3	0	0	0	0	556	509	1021	0	0	0	
4	0	0	0	0	557	509	1021	0	0	0	
5	0	0	0	0	557	508	1021	0	0	0	
6	0	0	0	0	555	505	1020	0	0	0	
7	0	0	0	0	552	502	1021	0	0	0	
8	0	0	0	0	547	497	1021	0	0	0	
9	0	0	0	0	541	492	1020	0	0	0	
10	0	0	0	0	534	485	1021	0	0	0	
11	0	0	0	0	526	478	1021	0	0	0	
12	0	0	0	0	517	470	1021	0	0	0	
13	0	0	0	0	507	461	1021	0	0	0	
14	0	0	0	0	496	451	1020	0	0	0	
15	0	0	0	0	484	440	1021	0	0	0	
0	0	0	0	0	472	430	1021	0	0	0	
1	0	0	0	0	460	419	1021	0	0	0	
2	0	0	0	0	447	407	1021	0	0	0	
3	0	0	0	0	435	396	1021	0	0	0	
4	0	0	0	0	424	384	1021	0	0	0	
5	0	0	0	0	413	373	1021	0	0	0	
6	0	0	0	0	403	362	1021	0	0	0	
7	0	0	0	0	393	351	1021	0	0	0	
8	0	0	0	0	383	340	1021	0	0	0	
9	0	0	0	0	372	328	1021	0	0	0	
10	0	0	0	0	361	316	1021	0	0	0	
11	0	0	0	0	350	304	1021	0	0	0	
12	0	0	0	0	337	291	1020	0	0	0	
13	0	0	0	0	324	278	1021	0	0	0	
14	0	0	0	0	312	266	1021	0	0	0	
15	0	0	0	0	300	255	1021	0	0	0	
0	0	0	0	0	290	246	1021	0	0	0	
1	0	0	0	0	284	241	1021	0	0	0	
2	0	0	0	0	281	238	1021	0	0	0	
3	0	0	0	0	283	240	1021	0	0	0	
4	0	0	0	0	288	245	1021	0	0	0	
5	0	0	0	0	299	255	1021	0	0	0	
6	0	0	0	0	313	268	1021	0	0	0	
7	0	0	0	0	332	284	1021	0	0	0	
8	0	0	0	0	355	304	1021	0	0	0	
9	0	0	0	0	381	327	1021	0	0	0	
10	0	0	0	0	409	352	1021	0	0	0	
11	0	0	0	0	439	377	1021	0	0	0	
12	0	0	0	0	467	403	1021	0	0	0	
13	0	0	0	0	496	428	1021	0	0	0	
14	0	0	0	0	521	451	1021	0	0	0	
15	0	0	0	0	545	473	1021	0	0	0	
0	0	0	0	0	564	491	1021	0	0	0	
1	0	0	0	0	579	505	1021	0	0	0	
2	0	0	0	0	589	516	1021	0	0	0	
3	0	0	0	0	596	524	1021	0	0	0	
4	0	0	0	0	599	529	1021	0	0	0	
5	0	0	0	0	598	530	1021	0	0	0	
6	0	0	0	0	592	529	1021	0	0	0	
7	0	0	0	0	584	525	1021	0	0	0	
8	0	0	0	0	574	519	1021	0	0	0	
9	0	0	0	0	561	511	1021	0	0	0	
10	0	0	0	0	548	502	1021	0	0	0	
11	0	0	0	0	535	493	1021	0	0	0	
12	0	0	0	0	523	484	1021	0	0	0	
13	0	0	0	0	513	476	1021	0	0	0	
14	0	0	0	0	506	470	1021	0	0	0	
15	0	0	0	0	502	466	1021	0	0	0	
0	0	0	0	0	500	464	1021	0	0	0	
1	0	0	0	0	503	464	1021	0	0	0	
2	0	0	0	0	507	467	1021	0	0	0	
3	0	0	0	0	512	470	1021	0	0	0	
4	0	0	0	0	520	474	1021	0	0	0	
5	0	0	0	0	527	479	1021	0	0	0	
6	0	0	0	0	536	485	1021	0	0	0	
7	0	0	0	0	544	492	1021	0	0	0	
8	0	0	0	0	551	498	1021	0	0	0	
9	0	0	0	0	558	504	1021	0	0	0	
10	0	0	0	0	564	510	1021	0	0	0	
11	0	0	0	0	571	517	1021	0	0	0	
12	0	0	0	0	576	523	1021	0	0	0	
13	0	0	0	0	581	529	1021	0	0	0	
14	0	0	0	0	585	534	1021	0	0	0	
15	0	0	0	0	588	538	1021	0	0	0	
0	0	0	0	0	590	540	1021	0	0	0	
1	0	0	0	0	588	541	1021	0	0	0	
2	0	0	0	0	585	539	1021	0	0	0	
3	0	0	0	0	580	535	1021	0	0	0	
4	0	0	0	0	573	529	1021	0	0	0	
5	0	0	0	0	564	522	1021	0	0	0	
6	0	0	0	0	555	514	1021	0	0	0	
7	0	0	0	0	545	506	1021	0	0	0	
8	0	0	0	0	537	498	1021	0	0	0	
9	0	0	0	0	531	492	1021	0	0	0	
10	0	0	0	0	527	487	1021	0	0	0	
11	0	0	0	0	526	485	1021	0	0	0	
12	0	0	0	0	527	485	1021	0	0	0	
13	0	0	0	0	531	487	1021	0	0	0	
14	0	0	0	0	536	492	1020	0	0	0	
15	0	0	0	0	543	497	1021	0	0	0	
0	0	0	0	0	551	503	1021	0	0	0	
1	0	0	0	0	558	509	1021	0	0	0	
2	0	0	0	0	565	514	1021	0	0	0	
3	0	0	0	0	570	519	1021	0	0	0	
4	0	0	0	0	573	522	1021	0	0	0	
5	0	0	0	0	575	524	1021	0	0	0	
6	0	0	0	0	575	524	1021	0	0	0	
7	0	0	0	0	574	523	1021	0	0	0	
8	0	0	0	0	571	522	1021	0	0	0	
9	0	0	0	0	568	520	1021	0	0	0	
10	0	0	0	0	565	518	1021	0	0	0	
11	0	0	0	0	561	515	1021	0	0	0	
12	0	0	0	0	559	513	1021	0	0	0	
13	0	0	0	0	556	511	1021	0	0	0	
14	0	0	0	0	555	510	1021	0	0	0	
15	0	0	0	0	553	509	1021	0	0	0	
0	0	0	0	0	552	508	1021	0	0	0	
1	0	0	0	0	551	507	1021	0	0	0	
2	0	0	0	0	551	508	1021	0	0	0	
3	0	0	0	0	552	509	1021	0	0	0	
4	0	0	0	0	554	511	1021	0	0	0	
5	0	0	0	0	558	514	1021	0	0	0	
6	0	0	0	0	562	517	1021	0	0	0	
7	0	0	0	0	566	520	1021	0	0	0	
8	0	0	0	0	568	522	1021	0	0	0	
9	0	0	0	0	569	522	1021	0	0	0	
10	0	0	0	0	569	520	1021	0	0	0	
11	0	0	0	0	567	517	1021	0	0	0	
12	0	0	0	0	562	512	1021	0	0	0	
13	0	0	0	0	556	507	1021	0	0	0	
14	0	0	0	0	549	501	1021	0	0	0	
15	0	0	0	0	542	495	1021	0	0	0	
0	0	0	0	0	535	489	1020	0	0	0	
1	0	0	0	0	528	483	1021	0	0	0	
2	0	0	0	0	523	479	1021	0	0	0	
3	0	0	0	0	519	476	1021	0	0	0	
4	0	0	0	0	518	474	1021	0	0	0	
5	0	0	0	0	517	473	1021	0	0	0	
6	0	0	0	0	518	473	1021	0	0	0	
7	0	0	0	0	520	475	1021	0	0	0	
8	0	0	0	0	523	478	1021	0	0	0	
9	0	0	0	0	527	480	1021	0	0	0	
10	0	0	0	0	531	483	1021	0	0	0	
11	0	0	0	0	536	487	1021	0	0	0	
12	0	0	0	0	539	490	1021	0	0	0	
13	0	0	0	0	543	492	1021	0	0	0	
14	0	0	0	0	545	495	1021	0	0	0	
15	0	0	0	0	548	497	1021	0	0	0	
0	0	0	0	0	551	500	1021	0	0	0	
1	0	0	0	0	553	503	1021	0	0	0	
2	0	0	0	0	555	505	1021	0	0	0	
3	0	0	0	0	557	507	1021	0	0	0	
4	0	0	0	0	558	509	1021	0	0	0	
5	0	0	0	0	559	510	1021	0	0	0	
6	0	0	0	0	558	510	1021	0	0	0	
7	0	0	0	0	557	510	1021	0	0	0	
8	0	0	0	0	555	509	1021	0	0	0	
9	0	0	0	0	552	507	1021	0	0	0	
10	0	0	0	0	548	505	1021	0	0	0	
11	0	0	0	0	545	503	1021	0	0	0	
12	0	0	0	0	543	501	1021	0	0	0	
13	0	0	0	0	540	499	1021	0	0	0	
14	0	0	0	0	538	497	1021	0	0	0	
15	0	0	0	0	536	495	1021	0	0	0	
0	0	0	0	0	535	493	1021	0	0	0	
1	0	0	0	0	535	492	1021	0	0	0	
2	0	0	0	0	535	492	1021	0	0	0	
3	0	0	0	0	536	491	1021	0	0	0	
4	0	0	0	0	537	491	1021	0	0	0	
5	0	0	0	0	539	492	1021	0	0	0	
6	0	0	0	0	541	494	1021	0	0	0	
7	0	0	0	0	544	496	1021	0	0	0	
8	0	0	0	0	546	497	1021	0	0	0	
9	0	0	0	0	548	498	1021	0	0	0	
10	0	0	0	0	548	498	1021	0	0	0	
11	0	0	0	0	548	498	1021	0	0	0	
12	0	0	0	0	546	497	1021	0	0	0	
13	0	0	0	0	544	496	1021	0	0	0	
14	0	0	0	0	541	494	1020	0	0	0	
15	0	0	0	0	539	493	1021	0	0	0	
0	0	0	0	0	536	492	1021	0	0	0	
1	0	0	0	0	535	492	1021	0	0	0	
2	0	0	0	0	534	492	1021	0	0	0	
3	0	0	0	0	535	493	1021	0	0	0	
4	0	0	0	0	536	495	1021	0	0	0	
5	0	0	0	0	539	497	1021	0	0	0	
6	0	0	0	0	542	500	1021	0	0	0	
7	0	0	0	0	545	502	1021	0	0	0	
8	0	0	0	0	548	503	1021	0	0	0	
9	0	0	0	0	551	504	1021	0	0	0	
10	0	0	0	0	553	505	1021	0	0	0	
11	0	0	0	0	554	505	1021	0	0	0	
12	0	0	0	0	555	505	1021	0	0	0	
13	0	0	0	0	554	504	1021	0	0	0	
14	0	0	0	0	553	504	1021	0	0	0	
15	0	0	0	0	553	504	1021	0	0	0	
0	0	0	0	0	551	504	1021	0	0	0	
1	0	0	0	0	551	504	1021	0	0	0	
2	0	0	0	0	552	506	1021	0	0	0	
3	0	0	0	0	553	508	1021	0	0	0	
4	0	0	0	0	556	512	1021	0	0	0	
5	0	0	0	0	559	515	1021	0	0	0	
6	0	0	0	0	562	519	1021	0	0	0	
7	0	0	0	0	564	521	1021	0	0	0	
8	0	0	0	0	565	523	1021	0	0	0	
9	0	0	0	0	565	524	1021	0	0	0	
10	0	0	0	0	563	522	1021	0	0	0	
11	0	0	0	0	560	519	1021	0	0	0	
12	0	0	0	0	554	513	1021	0	0	0	
13	0	0	0	0	547	507	1021	0	0	0	
14	0	0	0	0	540	500	1021	0	0	0	
15	0	0	0	0	532	493	1021	0	0	0	
0	0	0	0	0	525	487	1021	0	0	0	
1	0	0	0	0	520	483	1021	0	0	0	
2	0	0	0	0	517	480	1021	0	0	0	
3	0	0	0	0	516	480	1021	0	0	0	
4	0	0	0	0	518	482	1021	0	0	0	
5	0	0	0	0	521	485	1020	0	0	0	
6	0	0	0	0	526	489	1021	0	0	0	
7	0	0	0	0	532	493	1021	0	0	0	
8	0	0	0	0	538	498	1021	0	0	0	
9	0	0	0	0	543	502	1021	0	0	0	
10	0	0	0	0	548	505	1021	0	0	0	
11	0	0	0	0	551	506	1021	0	0	0	
12	0	0	0	0	552	507	1021	0	0	0	
13	0	0	0	0	552	505	1021	0	0	0	
14	0	0	0	0	550	503	1021	0	0	0	
15	0	0	0	0	547	500	1021	0	0	0	
0	0	0	0	0	543	496	1021	0	0	0	
1	0	0	0	0	539	493	1021	0	0	0	
2	0	0	0	0	536	490	1021	0	0	0	
3	0	0	0	0	534	489	1021	0	0	0	
4	0	0	0	0	532	488	1021	0	0	0	
5	0	0	0	0	532	488	1021	0	0	0	
6	0	0	0	0	531	489	1021	0	0	0	
7	0	0	0	0	531	489	1021	0	0	0	
8	0	0	0	0	530	488	1021	0	0	0	
9	0	0	0	0	528	487	1021	0	0	0	
10	0	0	0	0	525	483	1021	0	0	0	
11	0	0	0	0	521	480	1021	0	0	0	
12	0	0	0	0	517	476	1021	0	0	0	
13	0	0	0	0	512	472	1021	0	0	0	
14	0	0	0	0	509	469	1021	0	0	0	
15	0	0	0	0	507	467	1021	0	0	0	
0	0	0	0	0	506	466	1021	0	0	0	
1	0	0	0	0	508	467	1021	0	0	0	
2	0	0	0	0	512	470	1021	0	0	0	
3	0	0	0	0	518	475	1021	0	0	0	
4	0	0	0	0	526	481	1021	0	0	0	
5	0	0	0	0	536	488	1021	0	0	0	
6	0	0	0	0	545	496	1021	0	0	0	
7	0	0	0	0	555	504	1021	0	0	0	
8	0	0	0	0	564	512	1021	0	0	0	
9	0	0	0	0	572	520	1021	0	0	0	
10	0	0	0	0	578	526	1021	0	0	0	
11	0	0	0	0	583	531	1021	0	0	0	
12	0	0	0	0	585	534	1021	0	0	0	
13	0	0	0	0	585	535	1021	0	0	0	
14	0	0	0	0	583	535	1021	0	0	0	
15	0	0	0	0	580	534	1021	0	0	0	
0	0	0	0	0	575	531	1021	0	0	0	
1	0	0	0	0	569	526	1021	0	0	0	
2	0	0	0	0	563	520	1021	0	0	0	
3	0	0	0	0	556	514	1021	0	0	0	
4	0	0	0	0	548	507	1021	0	0	0	
5	0	0	0	0	540	499	1021	0	0	0	
6	0	0	0	0	534	492	1021	0	0	0	
7	0	0	0	0	527	486	1021	0	0	0	
8	0	0	0	0	522	480	1021	0	0	0	
9	0	0	0	0	518	476	1021	0	0	0	
10	0	0	0	0	516	473	1021	0	0	0	
11	0	0	0	0	516	472	1021	0	0	0	
12	0	0	0	0	517	472	1021	0	0	0	
13	0	0	0	0	519	472	1021	0	0	0	
14	0	0	0	0	522	475	1021	0	0	0	
15	0	0	0	0	526	478	1021	0	0	0	
0	0	0	0	0	530	481	1021	0	0	0	
1	0	0	0	0	535	486	1021	0	0	0	
2	0	0	0	0	539	489	1021	0	0	0	
3	0	0	0	0	543	493	1021	0	0	0	
4	0	0	0	0	546	496	1021	0	0	0	
5	0	0	0	0	549	499	1021	0	0	0	
6	0	0	0	0	550	500	1021	0	0	0	
7	0	0	0	0	551	501	1021	0	0	0	
8	0	0	0	0	551	501	1021	0	0	0	
9	0	0	0	0	550	500	1021	0	0	0	
10	0	0	0	0	548	499	1021	0	0	0	
11	0	0	0	0	546	497	1021	0	0	0	
12	0	0	0	0	544	496	1021	0	0	0	
13	0	0	0	0	543	494	1021	0	0	0	
14	0	0	0	0	542	493	1021	0	0	0	
15	0	0	0	0	541	493	1021	0	0	0	
0	0	0	0	0	541	492	1021	0	0	0	
1	0	0	0	0	540	492	1021	0	0	0	
2	0	0	0	0	540	492	1021	0	0	0	
3	0	0	0	0	540	492	1021	0	0	0	
4	0	0	0	0	539	492	1021	0	0	0	
5	0	0	0	0	538	492	1021	0	0	0	
6	0	0	0	0	537	493	1021	0	0	0	
7	0	0	0	0	537	493	1021	0	0	0	
8	0	0	0	0	537	494	1021	0	0	0	
9	0	0	0	0	537	495	1021	0	0	0	
10	0	0	0	0	537	496	1021	0	0	0	
11	0	0	0	0	538	496	1021	0	0	0	
12	0	0	0	0	539	497	1021	0	0	0	
13	0	0	0	0	539	497	1021	0	0	0	
14	0	0	0	0	540	497	1021	0	0	0	
15	0	0	0	0	541	498	1021	0	0	0	
0	0	0	0	0	542	498	1021	0	0	0	
1	0	0	0	0	544	499	1021	0	0	0	
2	0	0	0	0	548	502	1021	0	0	0	
3	0	0	0	0	552	505	1021	0	0	0	
4	0	0	0	0	557	508	1021	0	0	0	
5	0	0	0	0	561	511	1021	0	0	0	
6	0	0	0	0	565	514	1021	0	0	0	
7	0	0	0	0	568	517	1021	0	0	0	
8	0	0	0	0	572	519	1021	0	0	0	
9	0	0	0	0	574	521	1021	0	0	0	
10	0	0	0	0	574	522	1020	0	0	0	
11	0	0	0	0	573	521	1021	0	0	0	
12	0	0	0	0	570	519	1021	0	0	0	
13	0	0	0	0	565	514	1021	0	0	0	
14	0	0	0	0	557	508	1021	0	0	0	
15	0	0	0	0	547	500	1020	0	0	0	
0	0	0	0	0	536	490	1021	0	0	0	
1	0	0	0	0	524	480	1021	0	0	0	
2	0	0	0	0	512	470	1021	0	0	0	
3	0	0	0	0	501	461	1020	0	0	0	
4	0	0	0	0	492	452	1021	0	0	0	
5	0	0	0	0	484	447	1021	0	0	0	
6	0	0	0	0	480	443	1021	0	0	0	
7	0	0	0	0	480	441	1021	0	0	0	
8	0	0	0	0	481	442	1021	0	0	0	
9	0	0	0	0	485	444	1021	0	0	0	
10	0	0	0	0	492	449	1021	0	0	0	
11	0	0	0	0	499	454	1021	0	0	0	
12	0	0	0	0	507	460	1021	0	0	0	
13	0	0	0	0	514	465	1021	0	0	0	
14	0	0	0	0	521	470	1021	0	0	0	
15	0	0	0	0	526	472	1021	0	0	0	
0	0	0	0	0	529	475	1021	0	0	0	
1	0	0	0	0	532	476	1021	0	0	0	
2	0	0	0	0	533	477	1021	0	0	0	
3	0	0	0	0	532	476	1021	0	0	0	
4	0	0	0	0	531	476	1021	0	0	0	
5	0	0	0	0	529	475	1021	0	0	0	
6	0	0	0	0	526	473	1021	0	0	0	
7	0	0	0	0	523	471	1021	0	0	0	
8	0	0	0	0	519	470	1021	0	0	0	
9	0	0	0	0	517	468	1021	0	0	0	
10	0	0	0	0	515	467	1021	0	0	0	
11	0	0	0	0	513	466	1021	0	0	0	
12	0	0	0	0	513	467	1021	0	0	0	
13	0	0	0	0	515	469	1021	0	0	0	
14	0	0	0	0	516	471	1021	0	0	0	
15	0	0	0	0	519	474	1021	0	0	0	
0	0	0	0	0	523	478	1021	0	0	0	
1	0	0	0	0	526	480	1021	0	0	0	
2	0	0	0	0	529	483	1021	0	0	0	
3	0	0	0	0	532	484	1021	0	0	0	
4	0	0	0	0	534	486	1021	0	0	0	
5	0	0	0	0	535	487	1021	0	0	0	
6	0	0	0	0	536	487	1021	0	0	0	
7	0	0	0	0	536	487	1021	0	0	0	
8	0	0	0	0	537	486	1021	0	0	0	
9	0	0	0	0	537	486	1021	0	0	0	
10	0	0	0	0	536	486	1021	0	0	0	
11	0	0	0	0	536	485	1021	0	0	0	
12	0	0	0	0	535	483	1021	0	0	0	
13	0	0	0	0	533	481	1021	0	0	0	
14	0	0	0	0	531	479	1020	0	0	0	
15	0	0	0	0	527	476	1021	0	0	0	
0	0	0	0	0	523	472	1020	0	0	0	
1	0	0	0	0	519	468	1021	0	0	0	
2	0	0	0	0	514	464	1021	0	0	0	
3	0	0	0	0	510	460	1021	0	0	0	
4	0	0	0	0	505	456	1021	0	0	0	
5	0	0	0	0	502	454	1021	0	0	0	
6	0	0	0	0	499	451	1021	0	0	0	
7	0	0	0	0	496	450	1021	0	0	0	
8	0	0	0	0	495	449	1021	0	0	0	
9	0	0	0	0	495	450	1021	0	0	0	
10	0	0	0	0	495	451	1021	0	0	0	
11	0	0	0	0	497	453	1021	0	0	0	
12	0	0	0	0	500	455	1021	0	0	0	
13	0	0	0	0	504	459	1021	0	0	0	
14	0	0	0	0	508	462	1021	0	0	0	
15	0	0	0	0	512	466	1020	0	0	0	
0	0	0	0	0	517	470	1021	0	0	0	
1	0	0	0	0	521	473	1021	0	0	0	
2	0	0	0	0	525	477	1021	0	0	0	
3	0	0	0	0	527	479	1021	0	0	0	
4	0	0	0	0	529	480	1021	0	0	0	
5	0	0	0	0	531	481	1021	0	0	0	
6	0	0	0	0	530	481	1021	0	0	0	
7	0	0	0	0	529	480	1021	0	0	0	
8	0	0	0	0	527	479	1021	0	0	0	
9	0	0	0	0	526	478	1021	0	0	0	
10	0	0	0	0	525	478	1021	0	0	0	
11	0	0	0	0	525	478	1021	0	0	0	
12	0	0	0	0	526	479	1021	0	0	0	
13	0	0	0	0	526	480	1021	0	0	0	
14	0	0	0	0	528	482	1021	0	0	0	
15	0	0	0	0	529	484	1021	0	0	0	
0	0	0	0	0	530	486	1021	0	0	0	
1	0	0	0	0	532	487	1021	0	0	0	
2	0	0	0	0	532	487	1021	0	0	0	
3	0	0	0	0	531	486	1021	0	0	0	
4	0	0	0	0	530	484	1021	0	0	0	
5	0	0	0	0	529	482	1021	0	0	0	
6	0	0	0	0	528	480	1021	0	0	0	
7	0	0	0	0	527	479	1021	0	0	0	
8	0	0	0	0	527	478	1021	0	0	0	
9	0	0	0	0	528	479	1021	0	0	0	
10	0	0	0	0	531	482	1021	0	0	0	
11	0	0	0	0	536	486	1021	0	0	0	
12	0	0	0	0	541	490	1021	0	0	0	
13	0	0	0	0	545	494	1021	0	0	0	
14	0	0	0	0	548	497	1021	0	0	0	
15	0	0	0	0	549	498	1021	0	0	0	
0	0	0	0	0	547	497	1021	0	0	0	
1	0	0	0	0	542	493	1021	0	0	0	
2	0	0	0	0	535	487	1021	0	0	0	
3	0	0	0	0	524	478	1021	0	0	0	
4	0	0	0	0	512	468	1021	0	0	0	
5	0	0	0	0	499	457	1021	0	0	0	
6	0	0	0	0	486	446	1021	0	0	0	
7	0	0	0	0	475	436	1021	0	0	0	
8	0	0	0	0	465	428	1021	0	0	0	
9	0	0	0	0	458	421	1021	0	0	0	
10	0	0	0	0	455	417	1021	0	0	0	
11	0	0	0	0	454	416	1021	0	0	0	
12	0	0	0	0	457	417	1021	0	0	0	
13	0	0	0	0	463	421	1021	0	0	0	
14	0	0	0	0	472	427	1021	0	0	0	
15	0	0	0	0	481	434	1021	0	0	0	
0	0	0	0	0	492	442	1021	0	0	0	
1	0	0	0	0	502	450	1021	0	0	0	
2	0	0	0	0	510	456	1021	0	0	0	
3	0	0	0	0	516	462	1021	0	0	0	
4	0	0	0	0	521	465	1021	0	0	0	
5	0	0	0	0	523	468	1021	0	0	0	
6	0	0	0	0	524	469	1021	0	0	0	
7	0	0	0	0	523	470	1021	0	0	0	
8	0	0	0	0	521	468	1021	0	0	0	
9	0	0	0	0	518	466	1021	0	0	0	
10	0	0	0	0	513	463	1021	0	0	0	
11	0	0	0	0	509	460	1021	0	0	0	
12	0	0	0	0	505	456	1021	0	0	0	
13	0	0	0	0	502	454	1021	0	0	0	
14	0	0	0	0	499	452	1021	0	0	0	
15	0	0	0	0	498	451	1021	0	0	0	
0	0	0	0	0	498	451	1020	0	0	0	
1	0	0	0	0	499	452	1021	0	0	0	
2	0	0	0	0	501	454	1021	0	0	0	
3	0	0	0	0	504	456	1021	0	0	0	
4	0	0	0	0	507	459	1021	0	0	0	
5	0	0	0	0	510	462	1021	0	0	0	
6	0	0	0	0	514	465	1021	0	0	0	
7	0	0	0	0	518	469	1021	0	0	0	
8	0	0	0	0	520	472	1021	0	0	0	
9	0	0	0	0	523	474	1021	0	0	0	
10	0	0	0	0	525	476	1020	0	0	0	
11	0	0	0	0	526	478	1021	0	0	0	
12	0	0	0	0	526	479	1021	0	0	0	
13	0	0	0	0	526	479	1021	0	0	0	
14	0	0	0	0	525	479	1021	0	0	0	
15	0	0	0	0	524	479	1021	0	0	0	
0	0	0	0	0	523	479	1021	0	0	0	
1	0	0	0	0	523	478	1021	0	0	0	
2	0	0	0	0	523	479	1021	0	0	0	
3	0	0	0	0	524	480	1021	0	0	0	
4	0	0	0	0	526	480	1021	0	0	0	
5	0	0	0	0	529	482	1021	0	0	0	
6	0	0	0	0	531	484	1021	0	0	0	
7	0	0	0	0	534	486	1021	0	0	0	
8	0	0	0	0	536	487	1021	0	0	0	
9	0	0	0	0	536	487	1021	0	0	0	
10	0	0	0	0	536	486	1021	0	0	0	
11	0	0	0	0	535	485	1021	0	0	0	
12	0	0	0	0	533	484	1021	0	0	0	
13	0	0	0	0	531	482	1021	0	0	0	
14	0	0	0	0	528	480	1021	0	0	0	
15	0	0	0	0	526	478	1021	0	0	0	
0	0	0	0	0	523	476	1021	0	0	0	
1	0	0	0	0	519	473	1021	0	0	0	
2	0	0	0	0	517	470	1021	0	0	0	
3	0	0	0	0	515	468	1021	0	0	0	
4	0	0	0	0	513	466	1021	0	0	0	
5	0	0	0	0	511	464	1021	0	0	0	
6	0	0	0	0	511	463	1021	0	0	0	
7	0	0	0	0	510	462	1021	0	0	0	
8	0	0	0	0	511	462	1021	0	0	0	
9	0	0	0	0	512	463	1021	0	0	0	
10	0	0	0	0	514	465	1021	0	0	0	
11	0	0	0	0	518	469	1021	0	0	0	
12	0	0	0	0	521	472	1021	0	0	0	
13	0	0	0	0	525	477	1021	0	0	0	
14	0	0	0	0	529	481	1020	0	0	0	
15	0	0	0	0	532	484	1021	0	0	0	
0	0	0	0	0	535	487	1021	0	0	0	
1	0	0	0	0	536	487	1021	0	0	0	
2	0	0	0	0	534	486	1021	0	0	0	
3	0	0	0	0	530	482	1021	0	0	0	
4	0	0	0	0	524	476	1021	0	0	0	
5	0	0	0	0	516	469	1021	0	0	0	
6	0	0	0	0	508	461	1021	0	0	0	
7	0	0	0	0	499	452	1021	0	0	0	
8	0	0	0	0	491	444	1021	0	0	0	
9	0	0	0	0	483	437	1021	0	0	0	
10	0	0	0	0	478	431	1021	0	0	0	
11	0	0	0	0	473	427	1021	0	0	0	
12	0	0	0	0	471	425	1021	0	0	0	
13	0	0	0	0	471	425	1021	0	0	0	
14	0	0	0	0	473	428	1021	0	0	0	
15	0	0	0	0	478	431	1021	0	0	0	
0	0	0	0	0	483	436	1021	0	0	0	
1	0	0	0	0	490	441	1021	0	0	0	
2	0	0	0	0	497	447	1021	0	0	0	
3	0	0	0	0	504	453	1021	0	0	0	
4	0	0	0	0	511	458	1021	0	0	0	
5	0	0	0	0	516	463	1021	0	0	0	
6	0	0	0	0	521	467	1021	0	0	0	
7	0	0	0	0	525	470	1021	0	0	0	
8	0	0	0	0	528	473	1021	0	0	0	
9	0	0	0	0	529	475	1021	0	0	0	
10	0	0	0	0	530	476	1021	0	0	0	
11	0	0	0	0	529	476	1021	0	0	0	
12	0	0	0	0	527	474	1021	0	0	0	
13	0	0	0	0	524	472	1021	0	0	0	
14	0	0	0	0	519	470	1021	0	0	0	
15	0	0	0	0	515	467	1021	0	0	0	
0	0	0	0	0	511	463	1021	0	0	0	
1	0	0	0	0	507	460	1021	0	0	0	
2	0	0	0	0	504	457	1021	0	0	0	
3	0	0	0	0	502	456	1021	0	0	0	
4	0	0	0	0	501	455	1021	0	0	0	
5	0	0	0	0	502	456	1021	0	0	0	
6	0	0	0	0	504	457	1021	0	0	0	
7	0	0	0	0	506	460	1021	0	0	0	
8	0	0	0	0	510	463	1021	0	0	0	
9	0	0	0	0	514	466	1021	0	0	0	
10	0	0	0	0	518	470	1021	0	0	0	
11	0	0	0	0	524	474	1021	0	0	0	
12	0	0	0	0	528	478	1021	0	0	0	
13	0	0	0	0	532	483	1021	0	0	0	
14	0	0	0	0	537	487	1021	0	0	0	
15	0	0	0	0	541	491	1021	0	0	0	
0	0	0	0	0	544	493	1021	0	0	0	
1	0	0	0	0	546	495	1021	0	0	0	
2	0	0	0	0	547	496	1021	0	0	0	
3	0	0	0	0	548	497	1021	0	0	0	
4	0	0	0	0	548	496	1021	0	0	0	
5	0	0	0	0	547	496	1021	0	0	0	
6	0	0	0	0	546	495	1021	0	0	0	
7	0	0	0	0	545	495	1021	0	0	0	
8	0	0	0	0	544	494	1021	0	0	0	
9	0	0	0	0	543	494	1021	0	0	0	
10	0	0	0	0	542	494	1021	0	0	0	
11	0	0	0	0	541	493	1021	0	0	0	
12	0	0	0	0	541	493	1021	0	0	0	
13	0	0	0	0	540	493	1021	0	0	0	
14	0	0	0	0	539	492	1021	0	0	0	
15	0	0	0	0	537	490	1021	0	0	0	
0	0	0	0	0	534	487	1021	0	0	0	
1	0	0	0	0	530	483	1021	0	0	0	
2	0	0	0	0	525	477	1021	0	0	0	
3	0	0	0	0	519	471	1021	0	0	0	
4	0	0	0	0	512	464	1021	0	0	0	
5	0	0	0	0	504	456	1021	0	0	0	
6	0	0	0	0	497	449	1021	0	0	0	
7	0	0	0	0	490	443	1021	0	0	0	
8	0	0	0	0	484	438	1020	0	0	0	
9	0	0	0	0	480	433	1021	0	0	0	
10	0	0	0	0	477	431	1021	0	0	0	
11	0	0	0	0	476	430	1021	0	0	0	
12	0	0	0	0	476	432	1021	0	0	0	
13	0	0	0	0	479	433	1021	0	0	0	
14	0	0	0	0	482	437	1021	0	0	0	
15	0	0	0	0	487	441	1021	0	0	0	
0	0	0	0	0	492	446	1021	0	0	0	
1	0	0	0	0	497	450	1021	0	0	0	
2	0	0	0	0	502	455	1021	0	0	0	
3	0	0	0	0	506	458	1021	0	0	0	
4	0	0	0	0	509	460	1021	0	0	0	
5	0	0	0	0	512	463	1021	0	0	0	
6	0	0	0	0	515	463	1021	0	0	0	
7	0	0	0	0	515	463	1021	0	0	0	
8	0	0	0	0	515	462	1021	0	0	0	
9	0	0	0	0	514	460	1021	0	0	0	
10	0	0	0	0	512	458	1021	0	0	0	
11	0	0	0	0	509	455	1021	0	0	0	
12	0	0	0	0	505	451	1021	0	0	0	
13	0	0	0	0	500	448	1021	0	0	0	
14	0	0	0	0	494	443	1021	0	0	0	
15	0	0	0	0	487	438	1021	0	0	0	
0	0	0	0	0	479	431	1021	0	0	0	
1	0	0	0	0	469	422	1021	0	0	0	
2	0	0	0	0	456	411	1021	0	0	0	
3	0	0	0	0	442	397	1021	0	0	0	
4	0	0	0	0	427	382	1021	0	0	0	
5	0	0	0	0	409	367	1021	0	0	0	
6	0	0	0	0	391	350	1021	0	0	0	
7	0	0	0	0	373	332	1021	0	0	0	
8	0	0	0	0	355	314	1021	0	0	0	
9	0	0	0	0	337	296	1021	0	0	0	
10	0	0	0	0	320	279	1021	0	0	0	
11	0	0	0	0	304	262	1021	0	0	0	
12	0	0	0	0	288	246	1021	0	0	0	
13	0	0	0	0	275	231	1021	0	0	0	
14	0	0	0	0	263	220	1021	0	0	0	
15	0	0	0	0	254	210	1021	0	0	0	
0	0	0	0	0	247	202	1021	0	0	0	
1	0	0	0	0	243	197	1021	0	0	0	
2	0	0	0	0	241	194	1021	0	0	0	
3	0	0	0	0	242	194	1021	0	0	0	
4	0	0	0	0	247	198	1021	0	0	0	
5	0	0	0	0	255	205	1021	0	0	0	
6	0	0	0	0	268	215	1021	0	0	0	
7	0	0	0	0	284	229	1021	0	0	0	
8	0	0	0	0	304	247	1021	0	0	0	
9	0	0	0	0	327	267	1021	0	0	0	
10	0	0	0	0	351	288	1021	0	0	0	
11	0	0	0	0	377	312	1021	0	0	0	
12	0	0	0	0	404	336	1021	0	0	0	
13	0	0	0	0	430	359	1021	0	0	0	
14	0	0	0	0	455	383	1021	0	0	0	
15	0	0	0	0	478	404	1021	0	0	0	
0	0	0	0	0	497	423	1021	0	0	0	
1	0	0	0	0	513	439	1021	0	0	0	
2	0	0	0	0	526	452	1021	0	0	0	
3	0	0	0	0	535	463	1021	0	0	0	
4	0	0	0	0	541	472	1021	0	0	0	
5	0	0	0	0	544	477	1021	0	0	0	
6	0	0	0	0	545	481	1021	0	0	0	
7	0	0	0	0	546	485	1021	0	0	0	
8	0	0	0	0	545	487	1021	0	0	0	
9	0	0	0	0	544	489	1021	0	0	0	
10	0	0	0	0	543	492	1021	0	0	0	
11	0	0	0	0	543	494	1021	0	0	0	
12	0	0	0	0	544	496	1021	0	0	0	
13	0	0	0	0	546	499	1021	0	0	0	
14	0	0	0	0	548	502	1021	0	0	0	
15	0	0	0	0	551	504	1021	0	0	0	
0	0	0	0	0	552	506	1021	0	0	0	
1	0	0	0	0	554	506	1021	0	0	0	
2	0	0	0	0	554	505	1021	0	0	0	
3	0	0	0	0	552	503	1021	0	0	0	
4	0	0	0	0	549	500	1021	0	0	0	
5	0	0	0	0	544	495	1021	0	0	0	
6	0	0	0	0	538	489	1021	0	0	0	
7	0	0	0	0	531	483	1021	0	0	0	
8	0	0	0	0	523	476	1021	0	0	0	
9	0	0	0	0	515	469	1021	0	0	0	
10	0	0	0	0	508	463	1021	0	0	0	
11	0	0	0	0	502	457	1021	0	0	0	
12	0	0	0	0	498	454	1021	0	0	0	
13	0	0	0	0	496	451	1021	0	0	0	
14	0	0	0	0	496	451	1021	0	0	0	
15	0	0	0	0	499	452	1021	0	0	0	
0	0	0	0	0	503	455	1021	0	0	0	
1	0	0	0	0	509	460	1021	0	0	0	
2	0	0	0	0	516	465	1021	0	0	0	
3	0	0	0	0	523	470	1021	0	0	0	
4	0	0	0	0	529	475	1021	0	0	0	
5	0	0	0	0	535	480	1021	0	0	0	
6	0	0	0	0	539	483	1021	0	0	0	
7	0	0	0	0	542	486	1021	0	0	0	
8	0	0	0	0	543	487	1021	0	0	0	
9	0	0	0	0	544	487	1021	0	0	0	
10	0	0	0	0	543	487	1021	0	0	0	
11	0	0	0	0	541	486	1021	0	0	0	
12	0	0	0	0	539	485	1021	0	0	0	
13	0	0	0	0	536	484	1021	0	0	0	
14	0	0	0	0	535	484	1021	0	0	0	
15	0	0	0	0	534	484	1021	0	0	0	
0	0	0	0	0	534	486	1021	0	0	0	
1	0	0	0	0	535	487	1021	0	0	0	
2	0	0	0	0	536	489	1021	0	0	0	
3	0	0	0	0	538	491	1021	0	0	0	
4	0	0	0	0	540	494	1021	0	0	0	
5	0	0	0	0	542	496	1021	0	0	0	
6	0	0	0	0	543	497	1021	0	0	0	
7	0	0	0	0	543	498	1021	0	0	0	
8	0	0	0	0	543	497	1021	0	0	0	
9	0	0	0	0	541	494	1021	0	0	0	
10	0	0	0	0	538	491	1021	0	0	0	
11	0	0	0	0	534	487	1021	0	0	0	
12	0	0	0	0	529	482	1021	0	0	0	
13	0	0	0	0	525	476	1021	0	0	0	
14	0	0	0	0	521	472	1021	0	0	0	
15	0	0	0	0	518	468	1021	0	0	0	
0	0	0	0	0	515	465	1021	0	0	0	
1	0	0	0	0	512	463	1021	0	0	0	
2	0	0	0	0	511	460	1021	0	0	0	
3	0	0	0	0	510	459	1021	0	0	0	
4	0	0	0	0	510	460	1021	0	0	0	
5	0	0	0	0	511	460	1021	0	0	0	
6	0	0	0	0	513	462	1021	0	0	0	
7	0	0	0	0	515	464	1021	0	0	0	
8	0	0	0	0	519	467	1021	0	0	0	
9	0	0	0	0	523	471	1021	0	0	0	
10	0	0	0	0	526	475	1021	0	0	0	
11	0	0	0	0	530	478	1021	0	0	0	
12	0	0	0	0	534	481	1021	0	0	0	
13	0	0	0	0	537	484	1021	0	0	0	
14	0	0	0	0	539	487	1021	0	0	0	
15	0	0	0	0	540	488	1021	0	0	0	
0	0	0	0	0	541	489	1021	0	0	0	
1	0	0	0	0	541	490	1021	0	0	0	
2	0	0	0	0	541	491	1021	0	0	0	
3	0	0	0	0	540	491	1021	0	0	0	
4	0	0	0	0	541	492	1021	0	0	0	
5	0	0	0	0	540	493	1021	0	0	0	
6	0	0	0	0	541	493	1021	0	0	0	
7	0	0	0	0	540	494	1021	0	0	0	
8	0	0	0	0	540	493	1021	0	0	0	
9	0	0	0	0	538	492	1021	0	0	0	
10	0	0	0	0	536	491	1021	0	0	0	
11	0	0	0	0	533	488	1021	0	0	0	
12	0	0	0	0	529	485	1021	0	0	0	
13	0	0	0	0	526	482	1021	0	0	0	
14	0	0	0	0	523	479	1020	0	0	0	
15	0	0	0	0	521	477	1021	0	0	0	
0	0	0	0	0	519	475	1021	0	0	0	
1	0	0	0	0	520	475	1021	0	0	0	
2	0	0	0	0	521	475	1021	0	0	0	
3	0	0	0	0	523	474	1021	0	0	0	
4	0	0	0	0	524	475	1021	0	0	0	
5	0	0	0	0	525	475	1021	0	0	0	
6	0	0	0	0	526	475	1021	0	0	0	
7	0	0	0	0	526	474	1021	0	0	0	
8	0	0	0	0	526	472	1021	0	0	0	
9	0	0	0	0	524	471	1021	0	0	0	
10	0	0	0	0	523	471	1021	0	0	0	
11	0	0	0	0	523	471	1021	0	0	0	
12	0	0	0	0	523	472	1021	0	0	0	
13	0	0	0	0	525	475	1021	0	0	0	
14	0	0	0	0	527	478	1021	0	0	0	
15	0	0	0	0	529	480	1021	0	0	0	
0	0	0	0	0	531	482	1021	0	0	0	
1	0	0	0	0	531	483	1021	0	0	0	
2	0	0	0	0	531	482	1021	0	0	0	
3	0	0	0	0	530	480	1021	0	0	0	
4	0	0	0	0	527	477	1021	0	0	0	
5	0	0	0	0	523	473	1021	0	0	0	
6	0	0	0	0	518	468	1021	0	0	0	
7	0	0	0	0	513	463	1021	0	0	0	
8	0	0	0	0	509	458	1021	0	0	0	
9	0	0	0	0	506	455	1021	0	0	0	
10	0	0	0	0	505	454	1021	0	0	0	
11	0	0	0	0	507	455	1021	0	0	0	
12	0	0	0	0	511	459	1021	0	0	0	
13	0	0	0	0	518	465	1021	0	0	0	
14	0	0	0	0	527	474	1021	0	0	0	
15	0	0	0	0	539	485	1021	0	0	0	
0	0	0	0	0	552	497	1021	0	0	0	
1	0	0	0	0	565	508	1021	0	0	0	
2	0	0	0	0	576	519	1021	0	0	0	
3	0	0	0	0	584	526	1021	0	0	0	
4	0	0	0	0	589	530	1021	0	0	0	
5	0	0	0	0	588	530	1021	0	0	0	
6	0	0	0	0	582	524	1021	0	0	0	
7	0	0	0	0	571	514	1021	0	0	0	
8	0	0	0	0	555	500	1021	0	0	0	
9	0	0	0	0	536	484	1021	0	0	0	
10	0	0	0	0	517	467	1021	0	0	0	
11	0	0	0	0	498	451	1021	0	0	0	
12	0	0	0	0	481	436	1021	0	0	0	
13	0	0	0	0	467	424	1021	0	0	0	
14	0	0	0	0	456	415	1021	0	0	0	
15	0	0	0	0	451	409	1021	0	0	0	
0	0	0	0	0	449	407	1021	0	0	0	
1	0	0	0	0	450	407	1021	0	0	0	
2	0	0	0	0	455	410	1021	0	0	0	
3	0	0	0	0	462	414	1021	0	0	0	
4	0	0	0	0	470	420	1021	0	0	0	
5	0	0	0	0	479	427	1021	0	0	0	
6	0	0	0	0	488	433	1021	0	0	0	
7	0	0	0	0	496	440	1021	0	0	0	
8	0	0	0	0	504	446	1021	0	0	0	
9	0	0	0	0	509	450	1021	0	0	0	
10	0	0	0	0	513	454	1021	0	0	0	
11	0	0	0	0	516	456	1021	0	0	0	
12	0	0	0	0	517	458	1021	0	0	0	
13	0	0	0	0	517	459	1021	0	0	0	
14	0	0	0	0	515	459	1021	0	0	0	
15	0	0	0	0	513	457	1021	0	0	0	
0	0	0	0	0	510	455	1021	0	0	0	
1	0	0	0	0	507	452	1021	0	0	0	
2	0	0	0	0	504	450	1021	0	0	0	
3	0	0	0	0	502	448	1021	0	0	0	
4	0	0	0	0	500	447	1021	0	0	0	
5	0	0	0	0	500	447	1021	0	0	0	
6	0	0	0	0	500	448	1021	0	0	0	
7	0	0	0	0	502	449	1021	0	0	0	
8	0	0	0	0	504	451	1021	0	0	0	
9	0	0	0	0	507	454	1021	0	0	0	
10	0	0	0	0	510	456	1021	0	0	0	
11	0	0	0	0	512	460	1021	0	0	0	
12	0	0	0	0	515	462	1021	0	0	0	
13	0	0	0	0	518	465	1021	0	0	0	
14	0	0	0	0	521	468	1021	0	0	0	
15	0	0	0	0	523	471	1021	0	0	0	
0	0	0	0	0	525	473	1021	0	0	0	
1	0	0	0	0	527	476	1021	0	0	0	
2	0	0	0	0	529	478	1021	0	0	0	
3	0	0	0	0	530	479	1021	0	0	0	
4	0	0	0	0	532	480	1021	0	0	0	
5	0	0	0	0	533	482	1021	0	0	0	
6	0	0	0	0	536	483	1021	0	0	0	
7	0	0	0	0	538	486	1021	0	0	0	
8	0	0	0	0	541	488	1021	0	0	0	
9	0	0	0	0	543	490	1021	0	0	0	
10	0	0	0	0	544	492	1021	0	0	0	
11	0	0	0	0	545	493	1021	0	0	0	
12	0	0	0	0	545	493	1021	0	0	0	
13	0	0	0	0	545	493	1021	0	0	0	
14	0	0	0	0	543	492	1020	0	0	0	
15	0	0	0	0	542	491	1021	0	0	0	
0	0	0	0	0	540	490	1021	0	0	0	
1	0	0	0	0	539	489	1021	0	0	0	
2	0	0	0	0	537	488	1021	0	0	0	
3	0	0	0	0	537	487	1021	0	0	0	
4	0	0	0	0	536	487	1021	0	0	0	
5	0	0	0	0	536	487	1021	0	0	0	
6	0	0	0	0	537	487	1021	0	0	0	
7	0	0	0	0	538	487	1021	0	0	0	
8	0	0	0	0	540	489	1021	0	0	0	
9	0	0	0	0	542	491	1021	0	0	0	
10	0	0	0	0	544	493	1021	0	0	0	
11	0	0	0	0	546	494	1021	0	0	0	
12	0	0	0	0	546	493	1021	0	0	0	
13	0	0	0	0	544	491	1021	0	0	0	
14	0	0	0	0	541	487	1021	0	0	0	
15	0	0	0	0	537	483	1021	0	0	0	
0	0	0	0	0	531	479	1021	0	0	0	
1	0	0	0	0	526	474	1021	0	0	0	
2	0	0	0	0	521	470	1021	0	0	0	
3	0	0	0	0	516	465	1021	0	0	0	
4	0	0	0	0	512	462	1021	0	0	0	
5	0	0	0	0	508	459	1021	0	0	0	
6	0	0	0	0	506	457	1021	0	0	0	
7	0	0	0	0	504	455	1021	0	0	0	
8	0	0	0	0	501	452	1021	0	0	0	
9	0	0	0	0	499	450	1021	0	0	0	
10	0	0	0	0	498	448	1021	0	0	0	
11	0	0	0	0	496	446	1021	0	0	0	
12	0	0	0	0	496	444	1021	0	0	0	
13	0	0	0	0	496	444	1020	0	0	0	
14	0	0	0	0	498	444	1021	0	0	0	
15	0	0	0	0	500	446	1021	0	0	0	
0	0	0	0	0	504	449	1021	0	0	0	
1	0	0	0	0	508	452	1021	0	0	0	
2	0	0	0	0	512	455	1021	0	0	0	
3	0	0	0	0	517	460	1021	0	0	0	
4	0	0	0	0	521	463	1021	0	0	0	
5	0	0	0	0	524	467	1021	0	0	0	
6	0	0	0	0	527	470	1021	0	0	0	
7	0	0	0	0	528	472	1021	0	0	0	
8	0	0	0	0	529	473	1021	0	0	0	
9	0	0	0	0	529	475	1021	0	0	0	
10	0	0	0	0	529	476	1021	0	0	0	
11	0	0	0	0	530	477	1021	0	0	0	
12	0	0	0	0	530	479	1021	0	0	0	
13	0	0	0	0	531	480	1021	0	0	0	
14	0	0	0	0	531	480	1021	0	0	0	
15	0	0	0	0	531	480	1021	0	0	0	
0	0	0	0	0	530	479	1021	0	0	0	
1	0	0	0	0	529	477	1021	0	0	0	
2	0	0	0	0	528	476	1021	0	0	0	
3	0	0	0	0	527	475	1021	0	0	0	
4	0	0	0	0	527	473	1021	0	0	0	
5	0	0	0	0	526	473	1021	0	0	0	
6	0	0	0	0	526	474	1021	0	0	0	
7	0	0	0	0	527	475	1021	0	0	0	
8	0	0	0	0	527	476	1021	0	0	0	
9	0	0	0	0	527	477	1021	0	0	0	
10	0	0	0	0	527	478	1021	0	0	0	
11	0	0	0	0	526	478	1021	0	0	0	
12	0	0	0	0	525	478	1021	0	0	0	
13	0	0	0	0	524	477	1021	0	0	0	
14	0	0	0	0	523	476	1021	0	0	0	
15	0	0	0	0	521	475	1021	0	0	0	
0	0	0	0	0	519	472	1021	0	0	0	
1	0	0	0	0	518	470	1021	0	0	0	
2	0	0	0	0	517	467	1021	0	0	0	
3	0	0	0	0	516	464	1021	0	0	0	
4	0	0	0	0	515	462	1021	0	0	0	
5	0	0	0	0	515	460	1021	0	0	0	
6	0	0	0	0	514	458	1021	0	0	0	
7	0	0	0	0	514	456	1021	0	0	0	
8	0	0	0	0	513	455	1021	0	0	0	
9	0	0	0	0	512	452	1021	0	0	0	
10	0	0	0	0	511	451	1021	0	0	0	
11	0	0	0	0	511	451	1021	0	0	0	
12	0	0	0	0	510	451	1021	0	0	0	
13	0	0	0	0	510	452	1021	0	0	0	
14	0	0	0	0	510	453	1021	0	0	0	
15	0	0	0	0	511	455	1021	0	0	0	
0	0	0	0	0	512	458	1021	0	0	0	
1	0	0	0	0	513	460	1021	0	0	0	
2	0	0	0	0	515	463	1021	0	0	0	
3	0	0	0	0	517	465	1021	0	0	0	
4	0	0	0	0	519	468	1021	0	0	0	
5	0	0	0	0	521	471	1021	0	0	0	
6	0	0	0	0	523	473	1021	0	0	0	
7	0	0	0	0	526	476	1021	0	0	0	
8	0	0	0	0	530	479	1021	0	0	0	
9	0	0	0	0	534	483	1021	0	0	0	
10	0	0	0	0	539	487	1021	0	0	0	
11	0	0	0	0	544	491	1021	0	0	0	
12	0	0	0	0	549	496	1021	0	0	0	
13	0	0	0	0	553	499	1021	0	0	0	
14	0	0	0	0	558	503	1021	0	0	0	
15	0	0	0	0	561	505	1021	0	0	0	
0	0	0	0	0	561	505	1021	0	0	0	
1	0	0	0	0	560	503	1020	0	0	0	
2	0	0	0	0	556	499	1021	0	0	0	
3	0	0	0	0	550	493	1021	0	0	0	
4	0	0	0	0	541	486	1021	0	0	0	
5	0	0	0	0	531	476	1021	0	0	0	
6	0	0	0	0	519	466	1021	0	0	0	
7	0	0	0	0	508	456	1021	0	0	0	
8	0	0	0	0	496	447	1021	0	0	0	
9	0	0	0	0	486	439	1021	0	0	0	
10	0	0	0	0	477	432	1021	0	0	0	
11	0	0	0	0	471	428	1021	0	0	0	
12	0	0	0	0	466	424	1021	0	0	0	
13	0	0	0	0	464	423	1021	0	0	0	
14	0	0	0	0	465	423	1021	0	0	0	
15	0	0	0	0	467	426	1021	0	0	0	
0	0	0	0	0	472	429	1021	0	0	0	
1	0	0	0	0	478	433	1021	0	0	0	
2	0	0	0	0	486	439	1021	0	0	0	
3	0	0	0	0	494	444	1021	0	0	0	
4	0	0	0	0	502	450	1021	0	0	0	
5	0	0	0	0	510	455	1021	0	0	0	
6	0	0	0	0	516	459	1021	0	0	0	
7	0	0	0	0	520	462	1021	0	0	0	
8	0	0	0	0	524	465	1021	0	0	0	
9	0	0	0	0	527	467	1021	0	0	0	
10	0	0	0	0	528	468	1020	0	0	0	
11	0	0	0	0	527	468	1021	0	0	0	
12	0	0	0	0	525	467	1021	0	0	0	
13	0	0	0	0	522	464	1021	0	0	0	
14	0	0	0	0	517	461	1021	0	0	0	
15	0	0	0	0	511	457	1021	0	0	0	
0	0	0	0	0	505	452	1021	0	0	0	
1	0	0	0	0	499	448	1021	0	0	0	
2	0	0	0	0	494	445	1021	0	0	0	
3	0	0	0	0	490	442	1021	0	0	0	
4	0	0	0	0	488	441	1021	0	0	0	
5	0	0	0	0	487	440	1021	0	0	0	
6	0	0	0	0	488	442	1021	0	0	0	
7	0	0	0	0	491	445	1021	0	0	0	
8	0	0	0	0	495	449	1021	0	0	0	
9	0	0	0	0	499	453	1021	0	0	0	
10	0	0	0	0	505	458	1021	0	0	0	
11	0	0	0	0	510	463	1021	0	0	0	
12	0	0	0	0	515	467	1021	0	0	0	
13	0	0	0	0	518	470	1021	0	0	0	
14	0	0	0	0	520	472	1021	0	0	0	
15	0	0	0	0	521	472	1021	0	0	0	
0	0	0	0	0	519	472	1021	0	0	0	
1	0	0	0	0	518	470	1021	0	0	0	
2	0	0	0	0	516	468	1021	0	0	0	
3	0	0	0	0	515	467	1021	0	0	0	
4	0	0	0	0	515	466	1021	0	0	0	
5	0	0	0	0	515	467	1021	0	0	0	
6	0	0	0	0	518	470	1021	0	0	0	
7	0	0	0	0	523	474	1021	0	0	0	
8	0	0	0	0	528	480	1021	0	0	0	
9	0	0	0	0	535	487	1021	0	0	0	
10	0	0	0	0	542	494	1021	0	0	0	
11	0	0	0	0	549	500	1021	0	0	0	
12	0	0	0	0	555	506	1021	0	0	0	
13	0	0	0	0	559	510	1021	0	0	0	
14	0	0	0	0	560	511	1021	0	0	0	
15	0	0	0	0	558	508	1021	0	0	0	
0	0	0	0	0	552	503	1021	0	0	0	
1	0	0	0	0	543	495	1021	0	0	0	
2	0	0	0	0	532	485	1021	0	0	0	
3	0	0	0	0	519	474	1021	0	0	0	
4	0	0	0	0	507	462	1021	0	0	0	
5	0	0	0	0	495	451	1021	0	0	0	
6	0	0	0	0	484	441	1021	0	0	0	
7	0	0	0	0	475	432	1021	0	0	0	
8	0	0	0	0	468	424	1021	0	0	0	
9	0	0	0	0	463	419	1021	0	0	0	
10	0	0	0	0	462	417	1021	0	0	0	
11	0	0	0	0	462	417	1021	0	0	0	
12	0	0	0	0	465	419	1021	0	0	0	
13	0	0	0	0	470	422	1021	0	0	0	
14	0	0	0	0	476	426	1021	0	0	0	
15	0	0	0	0	482	431	1021	0	0	0	
0	0	0	0	0	488	436	1021	0	0	0	
1	0	0	0	0	493	440	1021	0	0	0	
2	0	0	0	0	498	444	1021	0	0	0	
3	0	0	0	0	501	447	1021	0	0	0	
4	0	0	0	0	503	449	1021	0	0	0	
5	0	0	0	0	504	451	1021	0	0	0	
6	0	0	0	0	504	451	1021	0	0	0	
7	0	0	0	0	503	451	1021	0	0	0	
8	0	0	0	0	502	450	1021	0	0	0	
9	0	0	0	0	500	449	1021	0	0	0	
10	0	0	0	0	499	448	1021	0	0	0	
11	0	0	0	0	497	446	1021	0	0	0	
12	0	0	0	0	496	445	1021	0	0	0	
13	0	0	0	0	495	444	1021	0	0	0	
14	0	0	0	0	495	444	1021	0	0	0	
15	0	0	0	0	495	445	1021	0	0	0	
0	0	0	0	0	496	446	1021	0	0	0	
1	0	0	0	0	497	448	1021	0	0	0	
2	0	0	0	0	499	450	1021	0	0	0	
3	0	0	0	0	502	453	1021	0	0	0	
4	0	0	0	0	504	455	1021	0	0	0	
5	0	0	0	0	507	459	1021	0	0	0	
6	0	0	0	0	510	462	1021	0	0	0	
7	0	0	0	0	514	467	1021	0	0	0	
8	0	0	0	0	519	472	1021	0	0	0	
9	0	0	0	0	524	478	1021	0	0	0	
10	0	0	0	0	531	484	1021	0	0	0	
11	0	0	0	0	538	491	1021	0	0	0	
12	0	0	0	0	545	498	1021	0	0	0	
13	0	0	0	0	553	505	1021	0	0	0	
14	0	0	0	0	559	510	1021	0	0	0	
15	0	0	0	0	563	512	1021	0	0	0	
0	0	0	0	0	562	510	1021	0	0	0	
1	0	0	0	0	558	505	1021	0	0	0	
2	0	0	0	0	551	497	1021	0	0	0	
3	0	0	0	0	541	487	1021	0	0	0	
4	0	0	0	0	528	476	1021	0	0	0	
5	0	0	0	0	515	464	1021	0	0	0	
6	0	0	0	0	503	454	1021	0	0	0	
7	0	0	0	0	493	445	1021	0	0	0	
8	0	0	0	0	483	438	1021	0	0	0	
9	0	0	0	0	477	433	1021	0	0	0	
10	0	0	0	0	474	431	1021	0	0	0	
11	0	0	0	0	474	432	1021	0	0	0	
12	0	0	0	0	477	434	1021	0	0	0	
13	0	0	0	0	483	439	1021	0	0	0	
14	0	0	0	0	491	445	1021	0	0	0	
15	0	0	0	0	499	451	1021	0	0	0	
0	0	0	0	0	508	457	1021	0	0	0	
1	0	0	0	0	516	463	1021	0	0	0	
2	0	0	0	0	522	467	1021	0	0	0	
3	0	0	0	0	527	470	1021	0	0	0	
4	0	0	0	0	530	472	1021	0	0	0	
5	0	0	0	0	531	473	1021	0	0	0	
6	0	0	0	0	531	474	1021	0	0	0	
7	0	0	0	0	530	474	1021	0	0	0	
8	0	0	0	0	527	473	1021	0	0	0	
9	0	0	0	0	525	474	1021	0	0	0	
10	0	0	0	0	523	474	1021	0	0	0	
11	0	0	0	0	521	475	1021	0	0	0	
12	0	0	0	0	520	476	1021	0	0	0	
13	0	0	0	0	520	476	1021	0	0	0	
14	0	0	0	0	519	476	1021	0	0	0	
15	0	0	0	0	516	475	1021	0	0	0	
0	0	0	0	0	514	472	1021	0	0	0	
1	0	0	0	0	510	467	1021	0	0	0	
2	0	0	0	0	505	461	1021	0	0	0	
3	0	0	0	0	500	455	1021	0	0	0	
4	0	0	0	0	494	448	1021	0	0	0	
5	0	0	0	0	489	441	1021	0	0	0	
6	0	0	0	0	484	435	1021	0	0	0	
7	0	0	0	0	479	430	1021	0	0	0	
8	0	0	0	0	475	424	1021	0	0	0	
9	0	0	0	0	471	420	1021	0	0	0	
10	0	0	0	0	469	417	1021	0	0	0	
11	0	0	0	0	467	415	1021	0	0	0	
12	0	0	0	0	467	415	1021	0	0	0	
13	0	0	0	0	468	416	1021	0	0	0	
14	0	0	0	0	471	418	1021	0	0	0	
15	0	0	0	0	474	422	1021	0	0	0	
0	0	0	0	0	480	428	1021	0	0	0	
1	0	0	0	0	486	433	1021	0	0	0	
2	0	0	0	0	492	440	1021	0	0	0	
3	0	0	0	0	497	446	1021	0	0	0	
4	0	0	0	0	503	451	1021	0	0	0	
5	0	0	0	0	506	455	1021	0	0	0	
6	0	0	0	0	508	457	1021	0	0	0	
7	0	0	0	0	508	457	1021	0	0	0	
8	0	0	0	0	508	457	1021	0	0	0	
9	0	0	0	0	505	455	1021	0	0	0	
10	0	0	0	0	503	452	1021	0	0	0	
11	0	0	0	0	500	450	1020	0	0	0	
12	0	0	0	0	499	448	1021	0	0	0	
13	0	0	0	0	498	448	1021	0	0	0	
14	0	0	0	0	499	448	1021	0	0	0	
15	0	0	0	0	502	450	1021	0	0	0	
0	0	0	0	0	506	454	1021	0	0	0	
1	0	0	0	0	512	459	1021	0	0	0	
2	0	0	0	0	519	465	1021	0	0	0	
3	0	0	0	0	527	472	1021	0	0	0	
4	0	0	0	0	536	480	1021	0	0	0	
5	0	0	0	0	544	487	1021	0	0	0	
6	0	0	0	0	551	494	1021	0	0	0	
7	0	0	0	0	557	500	1021	0	0	0	
8	0	0	0	0	562	505	1021	0	0	0	
9	0	0	0	0	564	507	1021	0	0	0	
10	0	0	0	0	564	508	1021	0	0	0	
11	0	0	0	0	561	506	1021	0	0	0	
12	0	0	0	0	554	501	1021	0	0	0	
13	0	0	0	0	544	493	1021	0	0	0	
14	0	0	0	0	533	483	1021	0	0	0	
15	0	0	0	0	521	473	1021	0	0	0	
0	0	0	0	0	508	462	1021	0	0	0	
1	0	0	0	0	496	451	1021	0	0	0	
2	0	0	0	0	486	442	1021	0	0	0	
3	0	0	0	0	478	435	1021	0	0	0	
4	0	0	0	0	473	430	1021	0	0	0	
5	0	0	0	0	470	427	1021	0	0	0	
6	0	0	0	0	470	427	1021	0	0	0	
7	0	0	0	0	472	429	1021	0	0	0	
8	0	0	0	0	476	432	1021	0	0	0	
9	0	0	0	0	482	437	1021	0	0	0	
10	0	0	0	0	488	443	1021	0	0	0	
11	0	0	0	0	495	449	1021	0	0	0	
12	0	0	0	0	502	455	1021	0	0	0	
13	0	0	0	0	509	461	1021	0	0	0	
14	0	0	0	0	515	467	1021	0	0	0	
15	0	0	0	0	520	471	1021	0	0	0	
0	0	0	0	0	524	474	1021	0	0	0	
1	0	0	0	0	527	476	1021	0	0	0	
2	0	0	0	0	529	477	1021	0	0	0	
3	0	0	0	0	530	478	1021	0	0	0	
4	0	0	0	0	531	478	1021	0	0	0	
5	0	0	0	0	531	478	1021	0	0	0	
6	0	0	0	0	530	478	1021	0	0	0	
7	0	0	0	0	528	476	1021	0	0	0	
8	0	0	0	0	527	475	1021	0	0	0	
9	0	0	0	0	524	472	1021	0	0	0	
10	0	0	0	0	520	470	1021	0	0	0	
11	0	0	0	0	517	468	1021	0	0	0	
12	0	0	0	0	514	466	1021	0	0	0	
13	0	0	0	0	512	464	1021	0	0	0	
14	0	0	0	0	510	463	1021	0	0	0	
15	0	0	0	0	509	462	1021	0	0	0	
0	0	0	0	0	509	462	1021	0	0	0	
1	0	0	0	0	510	463	1021	0	0	0	
2	0	0	0	0	511	463	1021	0	0	0	
3	0	0	0	0	512	465	1021	0	0	0	
4	0	0	0	0	515	467	1021	0	0	0	
5	0	0	0	0	518	471	1021	0	0	0	
6	0	0	0	0	521	474	1021	0	0	0	
7	0	0	0	0	524	477	1021	0	0	0	
8	0	0	0	0	527	479	1021	0	0	0	
9	0	0	0	0	528	480	1021	0	0	0	
10	0	0	0	0	530	480	1021	0	0	0	
11	0	0	0	0	531	480	1021	0	0	0	
12	0	0	0	0	531	479	1021	0	0	0	
13	0	0	0	0	530	476	1021	0	0	0	
14	0	0	0	0	527	471	1021	0	0	0	
15	0	0	0	0	521	465	1021	0	0	0	
0	0	0	0	0	511	455	1021	0	0	0	
1	0	0	0	0	500	443	1021	0	0	0	
2	0	0	0	0	485	430	1021	0	0	0	
3	0	0	0	0	468	415	1021	0	0	0	
4	0	0	0	0	451	399	1021	0	0	0	
5	0	0	0	0	433	384	1021	0	0	0	
6	0	0	0	0	415	369	1021	0	0	0	
7	0	0	0	0	399	356	1021	0	0	0	
8	0	0	0	0	385	343	1021	0	0	0	
9	0	0	0	0	372	332	1021	0	0	0	
10	0	0	0	0	362	323	1021	0	0	0	
11	0	0	0	0	353	313	1021	0	0	0	
12	0	0	0	0	346	305	1021	0	0	0	
13	0	0	0	0	340	297	1021	0	0	0	
14	0	0	0	0	335	289	1021	0	0	0	
15	0	0	0	0	329	282	1021	0	0	0	
0	0	0	0	0	323	273	1021	0	0	0	
1	0	0	0	0	316	264	1021	0	0	0	
2	0	0	0	0	308	256	1021	0	0	0	
3	0	0	0	0	301	248	1021	0	0	0	
4	0	0	0	0	295	242	1021	0	0	0	
5	0	0	0	0	289	237	1020	0	0	0	
6	0	0	0	0	287	235	1021	0	0	0	
7	0	0	0	0	286	235	1021	0	0	0	
8	0	0	0	0	288	238	1021	0	0	0	
9	0	0	0	0	292	243	1021	0	0	0	
10	0	0	0	0	300	250	1021	0	0	0	
11	0	0	0	0	309	259	1021	0	0	0	
12	0	0	0	0	321	270	1021	0	0	0	
13	0	0	0	0	335	283	1021	0	0	0	
14	0	0	0	0	351	297	1021	0	0	0	
15	0	0	0	0	369	313	1021	0	0	0	
0	0	0	0	0	388	330	1021	0	0	0	
1	0	0	0	0	408	348	1021	0	0	0	
2	0	0	0	0	430	366	1021	0	0	0	
3	0	0	0	0	451	385	1021	0	0	0	
4	0	0	0	0	473	404	1021	0	0	0	
5	0	0	0	0	495	423	1021	0	0	0	
6	0	0	0	0	515	442	1021	0	0	0	
7	0	0	0	0	535	459	1021	0	0	0	
8	0	0	0	0	552	476	1021	0	0	0	
9	0	0	0	0	567	489	1021	0	0	0	
10	0	0	0	0	579	500	1021	0	0	0	
11	0	0	0	0	586	508	1021	0	0	0	
12	0	0	0	0	589	513	1021	0	0	0	
13	0	0	0	0	588	515	1021	0	0	0	
14	0	0	0	0	583	514	1021	0	0	0	
15	0	0	0	0	575	509	1021	0	0	0	
0	0	0	0	0	564	503	1021	0	0	0	
1	0	0	0	0	551	495	1021	0	0	0	
2	0	0	0	0	538	487	1021	0	0	0	
3	0	0	0	0	526	478	1021	0	0	0	
4	0	0	0	0	514	470	1021	0	0	0	
5	0	0	0	0	504	463	1021	0	0	0	
6	0	0	0	0	497	459	1021	0	0	0	
7	0	0	0	0	494	455	1021	0	0	0	
8	0	0	0	0	493	455	1021	0	0	0	
9	0	0	0	0	494	455	1021	0	0	0	
10	0	0	0	0	499	458	1021	0	0	0	
11	0	0	0	0	507	463	1021	0	0	0	
12	0	0	0	0	517	471	1021	0	0	0	
13	0	0	0	0	529	480	1021	0	0	0	
14	0	0	0	0	542	490	1021	0	0	0	
15	0	0	0	0	556	500	1021	0	0	0	
0	0	0	0	0	569	510	1021	0	0	0	
1	0	0	0	0	579	518	1021	0	0	0	
2	0	0	0	0	587	523	1021	0	0	0	
3	0	0	0	0	590	525	1021	0	0	0	
4	0	0	0	0	588	524	1021	0	0	0	
5	0	0	0	0	584	520	1021	0	0	0	
6	0	0	0	0	575	513	1021	0	0	0	
7	0	0	0	0	564	505	1021	0	0	0	
8	0	0	0	0	551	496	1021	0	0	0	
9	0	0	0	0	538	486	1020	0	0	0	
10	0	0	0	0	525	476	1021	0	0	0	
11	0	0	0	0	513	467	1021	0	0	0	
12	0	0	0	0	503	459	1021	0	0	0	
13	0	0	0	0	495	453	1021	0	0	0	
14	0	0	0	0	490	450	1021	0	0	0	
15	0	0	0	0	488	448	1021	0	0	0	
0	0	0	0	0	490	450	1021	0	0	0	
1	0	0	0	0	494	453	1021	0	0	0	
2	0	0	0	0	500	457	1021	0	0	0	
3	0	0	0	0	508	463	1021	0	0	0	
4	0	0	0	0	516	470	1021	0	0	0	
5	0	0	0	0	525	476	1021	0	0	0	
6	0	0	0	0	534	483	1021	0	0	0	
7	0	0	0	0	543	488	1021	0	0	0	
8	0	0	0	0	548	492	1021	0	0	0	
9	0	0	0	0	553	496	1021	0	0	0	
10	0	0	0	0	555	497	1021	0	0	0	
11	0	0	0	0	556	498	1021	0	0	0	
12	0	0	0	0	554	496	1021	0	0	0	
13	0	0	0	0	550	493	1021	0	0	0	
14	0	0	0	0	545	490	1021	0	0	0	
15	0	0	0	0	539	486	1021	0	0	0	
0	0	0	0	0	532	481	1021	0	0	0	
1	0	0	0	0	526	477	1021	0	0	0	
2	0	0	0	0	521	474	1021	0	0	0	
3	0	0	0	0	518	471	1021	0	0	0	
4	0	0	0	0	516	470	1021	0	0	0	
5	0	0	0	0	515	469	1021	0	0	0	
6	0	0	0	0	514	468	1021	0	0	0	
7	0	0	0	0	514	467	1021	0	0	0	
8	0	0	0	0	514	467	1021	0	0	0	
9	0	0	0	0	514	467	1021	0	0	0	
10	0	0	0	0	515	467	1021	0	0	0	
11	0	0	0	0	515	467	1021	0	0	0	
12	0	0	0	0	516	468	1021	0	0	0	
13	0	0	0	0	518	469	1021	0	0	0	
14	0	0	0	0	519	470	1021	0	0	0	
15	0	0	0	0	521	471	1021	0	0	0	
0	0	0	0	0	523	472	1021	0	0	0	
1	0	0	0	0	524	473	1021	0	0	0	
2	0	0	0	0	527	475	1021	0	0	0	
3	0	0	0	0	529	476	1021	0	0	0	
4	0	0	0	0	532	479	1021	0	0	0	
5	0	0	0	0	536	482	1021	0	0	0	
6	0	0	0	0	540	486	1021	0	0	0	
7	0	0	0	0	545	491	1021	0	0	0	
8	0	0	0	0	551	497	1021	0	0	0	
9	0	0	0	0	557	503	1021	0	0	0	
10	0	0	0	0	563	509	1021	0	0	0	
11	0	0	0	0	568	514	1021	0	0	0	
12	0	0	0	0	571	518	1021	0	0	0	
13	0	0	0	0	570	518	1021	0	0	0	
14	0	0	0	0	566	515	1021	0	0	0	
15	0	0	0	0	559	509	1021	0	0	0	
0	0	0	0	0	549	501	1021	0	0	0	
1	0	0	0	0	537	491	1021	0	0	0	
2	0	0	0	0	524	479	1021	0	0	0	
3	0	0	0	0	511	468	1021	0	0	0	
4	0	0	0	0	499	457	1021	0	0	0	
5	0	0	0	0	489	448	1021	0	0	0	
6	0	0	0	0	481	440	1021	0	0	0	
7	0	0	0	0	476	434	1021	0	0	0	
8	0	0	0	0	472	431	1021	0	0	0	
9	0	0	0	0	472	429	1021	0	0	0	
10	0	0	0	0	476	431	1020	0	0	0	
11	0	0	0	0	482	434	1021	0	0	0	
12	0	0	0	0	491	440	1021	0	0	0	
13	0	0	0	0	501	448	1021	0	0	0	
14	0	0	0	0	512	457	1021	0	0	0	
15	0	0	0	0	525	467	1021	0	0	0	
0	0	0	0	0	537	476	1021	0	0	0	
1	0	0	0	0	547	486	1021	0	0	0	
2	0	0	0	0	557	494	1021	0	0	0	
3	0	0	0	0	564	501	1021	0	0	0	
4	0	0	0	0	570	507	1021	0	0	0	
5	0	0	0	0	573	511	1021	0	0	0	
6	0	0	0	0	574	513	1021	0	0	0	
7	0	0	0	0	572	513	1021	0	0	0	
8	0	0	0	0	566	511	1021	0	0	0	
9	0	0	0	0	558	505	1021	0	0	0	
10	0	0	0	0	547	498	1021	0	0	0	
11	0	0	0	0	536	489	1021	0	0	0	
12	0	0	0	0	523	479	1021	0	0	0	
13	0	0	0	0	509	467	1021	0	0	0	
14	0	0	0	0	496	457	1021	0	0	0	
15	0	0	0	0	485	447	1021	0	0	0	
0	0	0	0	0	476	439	1021	0	0	0	
1	0	0	0	0	471	433	1020	0	0	0	
2	0	0	0	0	468	431	1021	0	0	0	
3	0	0	0	0	469	430	1021	0	0	0	
4	0	0	0	0	474	432	1021	0	0	0	
5	0	0	0	0	481	436	1021	0	0	0	
6	0	0	0	0	490	442	1021	0	0	0	
7	0	0	0	0	500	448	1021	0	0	0	
8	0	0	0	0	511	455	1021	0	0	0	
9	0	0	0	0	520	461	1021	0	0	0	
10	0	0	0	0	529	466	1021	0	0	0	
11	0	0	0	0	536	470	1020	0	0	0	
12	0	0	0	0	540	473	1021	0	0	0	
13	0	0	0	0	543	476	1021	0	0	0	
14	0	0	0	0	544	477	1021	0	0	0	
15	0	0	0	0	543	478	1021	0	0	0	
0	0	0	0	0	542	478	1021	0	0	0	
1	0	0	0	0	540	479	1021	0	0	0	
2	0	0	0	0	537	479	1021	0	0	0	
3	0	0	0	0	535	480	1021	0	0	0	
4	0	0	0	0	532	480	1021	0	0	0	
5	0	0	0	0	529	480	1021	0	0	0	
6	0	0	0	0	527	480	1021	0	0	0	
7	0	0	0	0	525	480	1021	0	0	0	
8	0	0	0	0	523	480	1021	0	0	0	
9	0	0	0	0	521	480	1021	0	0	0	
10	0	0	0	0	521	480	1021	0	0	0	
11	0	0	0	0	521	481	1021	0	0	0	
12	0	0	0	0	523	482	1021	0	0	0	
13	0	0	0	0	525	483	1021	0	0	0	
14	0	0	0	0	527	483	1021	0	0	0	
15	0	0	0	0	530	483	1021	0	0	0	
0	0	0	0	0	531	483	1021	0	0	0	
1	0	0	0	0	534	482	1021	0	0	0	
2	0	0	0	0	535	481	1021	0	0	0	
3	0	0	0	0	535	480	1021	0	0	0	
4	0	0	0	0	534	478	1021	0	0	0	
5	0	0	0	0	531	474	1021	0	0	0	
6	0	0	0	0	527	471	1021	0	0	0	
7	0	0	0	0	523	468	1021	0	0	0	
8	0	0	0	0	518	465	1021	0	0	0	
9	0	0	0	0	513	462	1021	0	0	0	
10	0	0	0	0	510	461	1021	0	0	0	
11	0	0	0	0	507	460	1021	0	0	0	
12	0	0	0	0	505	460	1021	0	0	0	
13	0	0	0	0	503	459	1021	0	0	0	
14	0	0	0	0	503	460	1021	0	0	0	
15	0	0	0	0	504	462	1021	0	0	0	
0	0	0	0	0	506	463	1021	0	0	0	
1	0	0	0	0	510	465	1021	0	0	0	
2	0	0	0	0	514	467	1021	0	0	0	
3	0	0	0	0	519	471	1021	0	0	0	
4	0	0	0	0	525	475	1021	0	0	0	
5	0	0	0	0	531	479	1020	0	0	0	
6	0	0	0	0	538	484	1021	0	0	0	
7	0	0	0	0	544	489	1021	0	0	0	
8	0	0	0	0	551	494	1021	0	0	0	
9	0	0	0	0	556	499	1021	0	0	0	
10	0	0	0	0	560	503	1021	0	0	0	
11	0	0	0	0	563	507	1021	0	0	0	
12	0	0	0	0	564	510	1021	0	0	0	
13	0	0	0	0	564	511	1021	0	0	0	
14	0	0	0	0	562	510	1021	0	0	0	
15	0	0	0	0	559	508	1021	0	0	0	
0	0	0	0	0	553	504	1021	0	0	0	
1	0	0	0	0	546	498	1021	0	0	0	
2	0	0	0	0	538	491	1021	0	0	0	
3	0	0	0	0	530	483	1021	0	0	0	
4	0	0	0	0	522	476	1021	0	0	0	
5	0	0	0	0	515	469	1021	0	0	0	
6	0	0	0	0	509	463	1021	0	0	0	
7	0	0	0	0	504	457	1021	0	0	0	
8	0	0	0	0	500	453	1021	0	0	0	
9	0	0	0	0	497	449	1020	0	0	0	
10	0	0	0	0	496	446	1021	0	0	0	
11	0	0	0	0	496	445	1021	0	0	0	
12	0	0	0	0	496	446	1021	0	0	0	
13	0	0	0	0	498	447	1021	0	0	0	
14	0	0	0	0	502	450	1020	0	0	0	
15	0	0	0	0	507	454	1021	0	0	0	
0	0	0	0	0	512	460	1021	0	0	0	
1	0	0	0	0	519	466	1021	0	0	0	
2	0	0	0	0	527	473	1021	0	0	0	
3	0	0	0	0	535	481	1021	0	0	0	
4	0	0	0	0	542	489	1021	0	0	0	
5	0	0	0	0	550	497	1021	0	0	0	
6	0	0	0	0	557	504	1021	0	0	0	
7	0	0	0	0	562	509	1021	0	0	0	
8	0	0	0	0	566	513	1021	0	0	0	
9	0	0	0	0	567	515	1021	0	0	0	
10	0	0	0	0	566	515	1021	0	0	0	
11	0	0	0	0	564	515	1021	0	0	0	
12	0	0	0	0	562	512	1021	0	0	0	
13	0	0	0	0	559	510	1021	0	0	0	
14	0	0	0	0	556	507	1021	0	0	0	
15	0	0	0	0	553	504	1021	0	0	0	
0	0	0	0	0	551	501	1021	0	0	0	
1	0	0	0	0	548	497	1021	0	0	0	
2	0	0	0	0	545	494	1021	0	0	0	
3	0	0	0	0	542	490	1021	0	0	0	
4	0	0	0	0	538	486	1021	0	0	0	
5	0	0	0	0	534	480	1021	0	0	0	
6	0	0	0	0	529	475	1021	0	0	0	
7	0	0	0	0	524	470	1021	0	0	0	
8	0	0	0	0	518	464	1021	0	0	0	
9	0	0	0	0	513	459	1021	0	0	0	
10	0	0	0	0	508	455	1021	0	0	0	
11	0	0	0	0	504	451	1021	0	0	0	
12	0	0	0	0	500	448	1021	0	0	0	
13	0	0	0	0	499	447	1021	0	0	0	
14	0	0	0	0	498	447	1021	0	0	0	
15	0	0	0	0	499	447	1021	0	0	0	
0	0	0	0	0	501	449	1021	0	0	0	
1	0	0	0	0	504	452	1021	0	0	0	
2	0	0	0	0	509	455	1021	0	0	0	
3	0	0	0	0	515	460	1021	0	0	0	
4	0	0	0	0	522	465	1021	0	0	0	
5	0	0	0	0	529	471	1021	0	0	0	
6	0	0	0	0	536	476	1021	0	0	0	
7	0	0	0	0	543	483	1021	0	0	0	
8	0	0	0	0	549	487	1021	0	0	0	
9	0	0	0	0	553	492	1021	0	0	0	
10	0	0	0	0	556	494	1021	0	0	0	
11	0	0	0	0	555	494	1021	0	0	0	
12	0	0	0	0	552	492	1021	0	0	0	
13	0	0	0	0	547	489	1021	0	0	0	
14	0	0	0	0	541	483	1021	0	0	0	
15	0	0	0	0	533	477	1021	0	0	0	
0	0	0	0	0	524	471	1020	0	0	0	
1	0	0	0	0	515	464	1021	0	0	0	
2	0	0	0	0	508	458	1021	0	0	0	
3	0	0	0	0	502	453	1021	0	0	0	
4	0	0	0	0	496	449	1021	0	0	0	
5	0	0	0	0	493	447	1021	0	0	0	
6	0	0	0	0	492	446	1021	0	0	0	
7	0	0	0	0	493	447	1021	0	0	0	
8	0	0	0	0	496	449	1021	0	0	0	
9	0	0	0	0	501	453	1021	0	0	0	
10	0	0	0	0	507	458	1021	0	0	0	
11	0	0	0	0	514	463	1021	0	0	0	
12	0	0	0	0	522	470	1021	0	0	0	
13	0	0	0	0	531	477	1021	0	0	0	
14	0	0	0	0	538	484	1021	0	0	0	
15	0	0	0	0	544	490	1020	0	0	0	
0	0	0	0	0	550	494	1021	0	0	0	
1	0	0	0	0	552	497	1021	0	0	0	
2	0	0	0	0	554	498	1021	0	0	0	
3	0	0	0	0	553	497	1021	0	0	0	
4	0	0	0	0	550	495	1021	0	0	0	
5	0	0	0	0	547	492	1021	0	0	0	
6	0	0	0	0	543	489	1021	0	0	0	
7	0	0	0	0	540	485	1021	0	0	0	
8	0	0	0	0	536	482	1021	0	0	0	
9	0	0	0	0	533	479	1021	0	0	0	
10	0	0	0	0	530	477	1021	0	0	0	
11	0	0	0	0	528	475	1021	0	0	0	
12	0	0	0	0	527	474	1021	0	0	0	
13	0	0	0	0	527	473	1021	0	0	0	
14	0	0	0	0	526	473	1021	0	0	0	
15	0	0	0	0	525	473	1021	0	0	0	
0	0	0	0	0	524	473	1021	0	0	0	
1	0	0	0	0	523	472	1021	0	0	0	
2	0	0	0	0	521	471	1021	0	0	0	
3	0	0	0	0	520	470	1021	0	0	0	
4	0	0	0	0	519	469	1021	0	0	0	
5	0	0	0	0	519	469	1021	0	0	0	
6	0	0	0	0	520	469	1021	0	0	0	
7	0	0	0	0	522	470	1021	0	0	0	
8	0	0	0	0	524	472	1021	0	0	0	
9	0	0	0	0	527	474	1021	0	0	0	
10	0	0	0	0	530	476	1021	0	0	0	
11	0	0	0	0	532	478	1021	0	0	0	
12	0	0	0	0	534	480	1021	0	0	0	
13	0	0	0	0	535	480	1021	0	0	0	
14	0	0	0	0	536	480	1021	0	0	0	
15	0	0	0	0	536	480	1021	0	0	0	
0	0	0	0	0	537	480	1021	0	0	0	
1	0	0	0	0	536	480	1021	0	0	0	
2	0	0	0	0	536	480	1021	0	0	0	
3	0	0	0	0	536	479	1021	0	0	0	
4	0	0	0	0	535	479	1021	0	0	0	
5	0	0	0	0	534	479	1021	0	0	0	
6	0	0	0	0	533	479	1021	0	0	0	
7	0	0	0	0	532	479	1021	0	0	0	
8	0	0	0	0	531	479	1021	0	0	0	
9	0	0	0	0	531	480	1021	0	0	0	
10	0	0	0	0	530	480	1020	0	0	0	
11	0	0	0	0	531	481	1021	0	0	0	
12	0	0	0	0	532	483	1021	0	0	0	
13	0	0	0	0	535	484	1021	0	0	0	
14	0	0	0	0	537	487	1021	0	0	0	
15	0	0	0	0	542	491	1021	0	0	0	
0	0	0	0	0	547	495	1021	0	0	0	
1	0	0	0	0	551	497	1021	0	0	0	
2	0	0	0	0	555	499	1021	0	0	0	
3	0	0	0	0	557	499	1021	0	0	0	
4	0	0	0	0	556	498	1021	0	0	0	
5	0	0	0	0	553	494	1021	0	0	0	
6	0	0	0	0	548	489	1021	0	0	0	
7	0	0	0	0	542	484	1021	0	0	0	
8	0	0	0	0	536	480	1021	0	0	0	
9	0	0	0	0	529	475	1020	0	0	0	
10	0	0	0	0	524	472	1021	0	0	0	
11	0	0	0	0	520	470	1020	0	0	0	
12	0	0	0	0	517	468	1021	0	0	0	
13	0	0	0	0	515	467	1021	0	0	0	
14	0	0	0	0	513	466	1021	0	0	0	
15	0	0	0	0	512	465	1021	0	0	0	
0	0	0	0	0	511	464	1020	0	0	0	
1	0	0	0	0	511	463	1021	0	0	0	
2	0	0	0	0	510	461	1021	0	0	0	
3	0	0	0	0	509	460	1021	0	0	0	
4	0	0	0	0	509	459	1021	0	0	0	
5	0	0	0	0	508	457	1021	0	0	0	
6	0	0	0	0	509	457	1021	0	0	0	
7	0	0	0	0	510	457	1021	0	0	0	
8	0	0	0	0	512	458	1021	0	0	0	
9	0	0	0	0	515	460	1021	0	0	0	
10	0	0	0	0	518	462	1021	0	0	0	
11	0	0	0	0	521	465	1021	0	0	0	
12	0	0	0	0	526	468	1021	0	0	0	
13	0	0	0	0	530	473	1021	0	0	0	
14	0	0	0	0	534	476	1021	0	0	0	
15	0	0	0	0	538	481	1021	0	0	0	
0	0	0	0	0	541	484	1021	0	0	0	
1	0	0	0	0	544	488	1021	0	0	0	
2	0	0	0	0	546	492	1020	0	0	0	
3	0	0	0	0	547	494	1021	0	0	0	
4	0	0	0	0	548	496	1021	0	0	0	
5	0	0	0	0	549	497	1021	0	0	0	
6	0	0	0	0	550	498	1021	0	0	0	
7	0	0	0	0	550	498	1021	0	0	0	
8	0	0	0	0	550	498	1021	0	0	0	
9	0	0	0	0	550	497	1021	0	0	0	
10	0	0	0	0	550	496	1021	0	0	0	
11	0	0	0	0	550	495	1021	0	0	0	
12	0	0	0	0	548	493	1021	0	0	0	
13	0	0	0	0	547	491	1021	0	0	0	
14	0	0	0	0	545	489	1021	0	0	0	
15	0	0	0	0	543	487	1021	0	0	0	
0	0	0	0	0	541	487	1021	0	0	0	
1	0	0	0	0	539	486	1021	0	0	0	
2	0	0	0	0	537	485	1021	0	0	0	
3	0	0	0	0	535	484	1021	0	0	0	
4	0	0	0	0	534	484	1021	0	0	0	
5	0	0	0	0	532	483	1021	0	0	0	
6	0	0	0	0	531	482	1021	0	0	0	
7	0	0	0	0	529	480	1021	0	0	0	
8	0	0	0	0	527	478	1021	0	0	0	
9	0	0	0	0	526	475	1021	0	0	0	
10	0	0	0	0	524	472	1021	0	0	0	
11	0	0	0	0	522	470	1021	0	0	0	
12	0	0	0	0	520	466	1021	0	0	0	
13	0	0	0	0	518	463	1021	0	0	0	
14	0	0	0	0	518	462	1021	0	0	0	
15	0	0	0	0	517	461	1021	0	0	0	
0	0	0	0	0	517	460	1021	0	0	0	
1	0	0	0	0	519	461	1021	0	0	0	
2	0	0	0	0	520	463	1021	0	0	0	
3	0	0	0	0	523	465	1021	0	0	0	
4	0	0	0	0	526	468	1021	0	0	0	
5	0	0	0	0	529	472	1021	0	0	0	
6	0	0	0	0	533	476	1021	0	0	0	
7	0	0	0	0	536	480	1021	0	0	0	
8	0	0	0	0	539	483	1021	0	0	0	
9	0	0	0	0	541	487	1021	0	0	0	
10	0	0	0	0	542	490	1021	0	0	0	
11	0	0	0	0	543	492	1021	0	0	0	
12	0	0	0	0	543	493	1021	0	0	0	
13	0	0	0	0	543	494	1021	0	0	0	
14	0	0	0	0	543	495	1021	0	0	0	
15	0	0	0	0	543	495	1021	0	0	0	
0	0	0	0	0	543	494	1021	0	0	0	
1	0	0	0	0	543	492	1021	0	0	0	
2	0	0	0	0	542	490	1021	0	0	0	
3	0	0	0	0	540	487	1021	0	0	0	
4	0	0	0	0	537	483	1021	0	0	0	
5	0	0	0	0	534	478	1021	0	0	0	
6	0	0	0	0	529	472	1021	0	0	0	
7	0	0	0	0	524	467	1021	0	0	0	
8	0	0	0	0	520	463	1021	0	0	0	
9	0	0	0	0	516	460	1021	0	0	0	
10	0	0	0	0	513	458	1021	0	0	0	
11	0	0	0	0	511	457	1021	0	0	0	
12	0	0	0	0	510	458	1021	0	0	0	
13	0	0	0	0	510	458	1021	0	0	0	
14	0	0	0	0	510	459	1021	0	0	0	
15	0	0	0	0	511	461	1021	0	0	0	
0	0	0	0	0	512	462	1021	0	0	0	
1	0	0	0	0	514	464	1021	0	0	0	
2	0	0	0	0	516	466	1021	0	0	0	
3	0	0	0	0	519	467	1021	0	0	0	
4	0	0	0	0	521	468	1021	0	0	0	
5	0	0	0	0	523	469	1020	0	0	0	
6	0	0	0	0	524	470	1021	0	0	0	
7	0	0	0	0	525	470	1021	0	0	0	
8	0	0	0	0	525	469	1021	0	0	0	
9	0	0	0	0	525	468	1021	0	0	0	
10	0	0	0	0	526	469	1021	0	0	0	
11	0	0	0	0	526	470	1021	0	0	0	
12	0	0	0	0	527	472	1021	0	0	0	
13	0	0	0	0	530	474	1021	0	0	0	
14	0	0	0	0	533	478	1021	0	0	0	
15	0	0	0	0	537	482	1021	0	0	0	
0	0	0	0	0	541	487	1021	0	0	0	
1	0	0	0	0	546	492	1021	0	0	0	
2	0	0	0	0	551	498	1021	0	0	0	
3	0	0	0	0	557	503	1021	0	0	0	
4	0	0	0	0	561	507	1021	0	0	0	
5	0	0	0	0	565	510	1021	0	0	0	
6	0	0	0	0	567	511	1021	0	0	0	
7	0	0	0	0	566	509	1021	0	0	0	
8	0	0	0	0	563	505	1021	0	0	0	
9	0	0	0	0	557	500	1021	0	0	0	
10	0	0	0	0	549	493	1021	0	0	0	
11	0	0	0	0	540	486	1021	0	0	0	
12	0	0	0	0	530	479	1021	0	0	0	
13	0	0	0	0	521	471	1021	0	0	0	
14	0	0	0	0	512	463	1021	0	0	0	
15	0	0	0	0	505	458	1021	0	0	0	
0	0	0	0	0	499	453	1021	0	0	0	
1	0	0	0	0	495	450	1021	0	0	0	
2	0	0	0	0	493	448	1021	0	0	0	
3	0	0	0	0	492	448	1021	0	0	0	
4	0	0	0	0	494	449	1021	0	0	0	
5	0	0	0	0	496	451	1021	0	0	0	
6	0	0	0	0	501	453	1021	0	0	0	
7	0	0	0	0	505	456	1021	0	0	0	
8	0	0	0	0	511	460	1021	0	0	0	
9	0	0	0	0	516	463	1021	0	0	0	
10	0	0	0	0	521	467	1021	0	0	0	
11	0	0	0	0	526	470	1021	0	0	0	
12	0	0	0	0	530	472	1021	0	0	0	
13	0	0	0	0	532	473	1021	0	0	0	
14	0	0	0	0	534	473	1021	0	0	0	
15	0	0	0	0	533	473	1021	0	0	0	
0	0	0	0	0	531	472	1020	0	0	0	
1	0	0	0	0	528	470	1021	0	0	0	
2	0	0	0	0	525	468	1021	0	0	0	
3	0	0	0	0	523	466	1021	0	0	0	
4	0	0	0	0	520	465	1021	0	0	0	
5	0	0	0	0	518	465	1021	0	0	0	
6	0	0	0	0	517	465	1021	0	0	0	
7	0	0	0	0	517	466	1021	0	0	0	
8	0	0	0	0	519	469	1021	0	0	0	
9	0	0	0	0	521	472	1021	0	0	0	
10	0	0	0	0	524	475	1021	0	0	0	
11	0	0	0	0	528	479	1021	0	0	0	
12	0	0	0	0	532	482	1021	0	0	0	
13	0	0	0	0	536	485	1021	0	0	0	
14	0	0	0	0	539	487	1021	0	0	0	
15	0	0	0	0	541	488	1021	0	0	0	
0	0	0	0	0	543	489	1021	0	0	0	
1	0	0	0	0	543	490	1021	0	0	0	
2	0	0	0	0	544	490	1021	0	0	0	
3	0	0	0	0	545	489	1021	0	0	0	
4	0	0	0	0	545	489	1021	0	0	0	
5	0	0	0	0	545	488	1021	0	0	0	
6	0	0	0	0	545	487	1020	0	0	0	
7	0	0	0	0	544	486	1021	0	0	0	
8	0	0	0	0	542	484	1021	0	0	0	
9	0	0	0	0	541	482	1021	0	0	0	
10	0	0	0	0	539	480	1021	0	0	0	
11	0	0	0	0	536	478	1021	0	0	0	
12	0	0	0	0	535	476	1021	0	0	0	
13	0	0	0	0	534	476	1021	0	0	0	
14	0	0	0	0	534	476	1021	0	0	0	
15	0	0	0	0	534	478	1021	0	0	0	
0	0	0	0	0	536	480	1021	0	0	0	
1	0	0	0	0	537	482	1021	0	0	0	
2	0	0	0	0	540	486	1021	0	0	0	
3	0	0	0	0	543	489	1021	0	0	0	
4	0	0	0	0	547	492	1021	0	0	0	
5	0	0	0	0	549	495	1021	0	0	0	
6	0	0	0	0	551	497	1021	0	0	0	
7	0	0	0	0	551	497	1021	0	0	0	
8	0	0	0	0	551	496	1021	0	0	0	
9	0	0	0	0	547	494	1021	0	0	0	
10	0	0	0	0	544	491	1021	0	0	0	
11	0	0	0	0	540	487	1021	0	0	0	
12	0	0	0	0	536	484	1021	0	0	0	
13	0	0	0	0	533	483	1021	0	0	0	
14	0	0	0	0	531	482	1021	0	0	0	
15	0	0	0	0	531	483	1021	0	0	0	
0	0	0	0	0	532	485	1021	0	0	0	
1	0	0	0	0	536	488	1021	0	0	0	
2	0	0	0	0	540	492	1021	0	0	0	
3	0	0	0	0	544	496	1021	0	0	0	
4	0	0	0	0	549	500	1021	0	0	0	
5	0	0	0	0	555	504	1021	0	0	0	
6	0	0	0	0	559	507	1021	0	0	0	
7	0	0	0	0	563	509	1021	0	0	0	
8	0	0	0	0	566	510	1021	0	0	0	
9	0	0	0	0	566	509	1021	0	0	0	
10	0	0	0	0	564	506	1021	0	0	0	
11	0	0	0	0	560	502	1021	0	0	0	
12	0	0	0	0	553	496	1021	0	0	0	
13	0	0	0	0	545	487	1021	0	0	0	
14	0	0	0	0	535	479	1021	0	0	0	
15	0	0	0	0	526	471	1021	0	0	0	
0	0	0	0	0	516	462	1021	0	0	0	
1	0	0	0	0	508	455	1021	0	0	0	
2	0	0	0	0	500	449	1021	0	0	0	
3	0	0	0	0	495	444	1020	0	0	0	
4	0	0	0	0	491	440	1021	0	0	0	
5	0	0	0	0	489	437	1021	0	0	0	
6	0	0	0	0	487	435	1021	0	0	0	
7	0	0	0	0	486	432	1021	0	0	0	
8	0	0	0	0	484	429	1021	0	0	0	
9	0	0	0	0	483	426	1021	0	0	0	
10	0	0	0	0	479	421	1021	0	0	0	
11	0	0	0	0	474	415	1021	0	0	0	
12	0	0	0	0	466	407	1021	0	0	0	
13	0	0	0	0	456	397	1021	0	0	0	
14	0	0	0	0	444	385	1021	0	0	0	
15	0	0	0	0	428	371	1021	0	0	0	
0	0	0	0	0	412	355	1021	0	0	0	
1	0	0	0	0	393	339	1021	0	0	0	
2	0	0	0	0	374	322	1021	0	0	0	
3	0	0	0	0	355	306	1021	0	0	0	
4	0	0	0	0	337	291	1021	0	0	0	
5	0	0	0	0	321	277	1021	0	0	0	
6	0	0	0	0	307	264	1021	0	0	0	
7	0	0	0	0	297	254	1021	0	0	0	
8	0	0	0	0	289	247	1021	0	0	0	
9	0	0	0	0	286	242	1021	0	0	0	
10	0	0	0	0	286	240	1021	0	0	0	
11	0	0	0	0	289	241	1021	0	0	0	
12	0	0	0	0	296	245	1021	0	0	0	
13	0	0	0	0	307	253	1021	0	0	0	
14	0	0	0	0	322	263	1021	0	0	0	
15	0	0	0	0	339	277	1021	0	0	0	
0	0	0	0	0	360	293	1021	0	0	0	
1	0	0	0	0	383	312	1020	0	0	0	
2	0	0	0	0	408	333	1021	0	0	0	
3	0	0	0	0	433	355	1021	0	0	0	
4	0	0	0	0	458	379	1021	0	0	0	
5	0	0	0	0	482	401	1021	0	0	0	
6	0	0	0	0	505	424	1021	0	0	0	
7	0	0	0	0	525	444	1021	0	0	0	
8	0	0	0	0	542	463	1021	0	0	0	
9	0	0	0	0	556	478	1021	0	0	0	
10	0	0	0	0	564	490	1021	0	0	0	
11	0	0	0	0	571	499	1021	0	0	0	
12	0	0	0	0	574	505	1021	0	0	0	
13	0	0	0	0	573	508	1021	0	0	0	
14	0	0	0	0	571	509	1021	0	0	0	
15	0	0	0	0	566	508	1021	0	0	0	
0	0	0	0	0	561	506	1021	0	0	0	
1	0	0	0	0	555	502	1021	0	0	0	
2	0	0	0	0	548	497	1021	0	0	0	
3	0	0	0	0	541	492	1021	0	0	0	
4	0	0	0	0	535	486	1021	0	0	0	
5	0	0	0	0	529	480	1021	0	0	0	
6	0	0	0	0	524	474	1021	0	0	0	
7	0	0	0	0	519	469	1021	0	0	0	
8	0	0	0	0	516	464	1021	0	0	0	
9	0	0	0	0	514	461	1021	0	0	0	
10	0	0	0	0	513	459	1020	0	0	0	
11	0	0	0	0	514	459	1021	0	0	0	
12	0	0	0	0	516	460	1021	0	0	0	
13	0	0	0	0	520	463	1021	0	0	0	
14	0	0	0	0	524	466	1021	0	0	0	
15	0	0	0	0	529	471	1021	0	0	0	
0	0	0	0	0	535	476	1021	0	0	0	
1	0	0	0	0	541	482	1021	0	0	0	
2	0	0	0	0	547	488	1021	0	0	0	
3	0	0	0	0	551	494	1020	0	0	0	
4	0	0	0	0	556	498	1021	0	0	0	
5	0	0	0	0	559	502	1021	0	0	0	
6	0	0	0	0	562	505	1021	0	0	0	
7	0	0	0	0	564	508	1021	0	0	0	
8	0	0	0	0	566	510	1021	0	0	0	
9	0	0	0	0	568	511	1021	0	0	0	
10	0	0	0	0	568	512	1021	0	0	0	
11	0	0	0	0	569	512	1021	0	0	0	
12	0	0	0	0	569	512	1021	0	0	0	
13	0	0	0	0	569	512	1021	0	0	0	
14	0	0	0	0	569	512	1021	0	0	0	
15	0	0	0	0	569	511	1021	0	0	0	
0	0	0	0	0	569	511	1021	0	0	0	
1	0	0	0	0	568	511	1021	0	0	0	
2	0	0	0	0	568	511	1021	0	0	0	
3	0	0	0	0	568	512	1021	0	0	0	
4	0	0	0	0	568	512	1021	0	0	0	
5	0	0	0	0	568	514	1021	0	0	0	
6	0	0	0	0	569	516	1021	0	0	0	
7	0	0	0	0	571	519	1021	0	0	0	
8	0	0	0	0	573	521	1021	0	0	0	
9	0	0	0	0	575	523	1021	0	0	0	
10	0	0	0	0	575	524	1021	0	0	0	
11	0	0	0	0	575	522	1021	0	0	0	
12	0	0	0	0	571	519	1021	0	0	0	
13	0	0	0	0	566	514	1021	0	0	0	
14	0	0	0	0	560	508	1021	0	0	0	
15	0	0	0	0	552	500	1021	0	0	0	
0	0	0	0	0	543	492	1021	0	0	0	
1	0	0	0	0	536	485	1021	0	0	0	
2	0	0	0	0	530	479	1021	0	0	0	
3	0	0	0	0	525	474	1021	0	0	0	
4	0	0	0	0	523	472	1021	0	0	0	
5	0	0	0	0	523	472	1021	0	0	0	
6	0	0	0	0	525	473	1021	0	0	0	
7	0	0	0	0	529	477	1020	0	0	0	
8	0	0	0	0	534	481	1021	0	0	0	
9	0	0	0	0	540	487	1021	0	0	0	
10	0	0	0	0	546	492	1021	0	0	0	
11	0	0	0	0	551	496	1021	0	0	0	
12	0	0	0	0	556	499	1021	0	0	0	
13	0	0	0	0	559	502	1021	0	0	0	
14	0	0	0	0	561	503	1021	0	0	0	
15	0	0	0	0	561	504	1021	0	0	0	
0	0	0	0	0	561	504	1021	0	0	0	
1	0	0	0	0	560	504	1021	0	0	0	
2	0	0	0	0	560	504	1021	0	0	0	
3	0	0	0	0	560	504	1021	0	0	0	
4	0	0	0	0	562	506	1021	0	0	0	
5	0	0	0	0	565	508	1021	0	0	0	
6	0	0	0	0	568	511	1021	0	0	0	
7	0	0	0	0	573	514	1021	0	0	0	
8	0	0	0	0	577	517	1021	0	0	0	
9	0	0	0	0	580	519	1021	0	0	0	
10	0	0	0	0	582	520	1021	0	0	0	
11	0	0	0	0	583	520	1021	0	0	0	
12	0	0	0	0	581	519	1021	0	0	0	
13	0	0	0	0	578	516	1021	0	0	0	
14	0	0	0	0	574	513	1021	0	0	0	
15	0	0	0	0	568	509	1021	0	0	0	
0	0	0	0	0	561	504	1021	0	0	0	
1	0	0	0	0	555	500	1021	0	0	0	
2	0	0	0	0	548	496	1021	0	0	0	
3	0	0	0	0	543	493	1021	0	0	0	
4	0	0	0	0	539	491	1021	0	0	0	
5	0	0	0	0	536	490	1020	0	0	0	
6	0	0	0	0	536	491	1021	0	0	0	
7	0	0	0	0	538	492	1021	0	0	0	
8	0	0	0	0	541	495	1021	0	0	0	
9	0	0	0	0	545	498	1021	0	0	0	
10	0	0	0	0	551	502	1021	0	0	0	
11	0	0	0	0	556	506	1021	0	0	0	
12	0	0	0	0	561	510	1021	0	0	0	
13	0	0	0	0	565	512	1021	0	0	0	
14	0	0	0	0	567	514	1021	0	0	0	
15	0	0	0	0	568	514	1021	0	0	0	
0	0	0	0	0	567	513	1021	0	0	0	
1	0	0	0	0	564	511	1021	0	0	0	
2	0	0	0	0	561	508	1021	0	0	0	
3	0	0	0	0	556	504	1021	0	0	0	
4	0	0	0	0	550	499	1021	0	0	0	
5	0	0	0	0	543	493	1021	0	0	0	
6	0	0	0	0	537	487	1021	0	0	0	
7	0	0	0	0	531	481	1021	0	0	0	
8	0	0	0	0	526	475	1021	0	0	0	
9	0	0	0	0	522	470	1021	0	0	0	
10	0	0	0	0	519	467	1021	0	0	0	
11	0	0	0	0	519	465	1021	0	0	0	
12	0	0	0	0	520	466	1021	0	0	0	
13	0	0	0	0	524	469	1021	0	0	0	
14	0	0	0	0	530	475	1021	0	0	0	
15	0	0	0	0	538	483	1021	0	0	0	
0	0	0	0	0	548	492	1021	0	0	0	
1	0	0	0	0	560	503	1021	0	0	0	
2	0	0	0	0	572	515	1021	0	0	0	
3	0	0	0	0	585	526	1021	0	0	0	
4	0	0	0	0	596	537	1021	0	0	0	
5	0	0	0	0	606	546	1021	0	0	0	
6	0	0	0	0	613	552	1021	0	0	0	
7	0	0	0	0	615	554	1021	0	0	0	
8	0	0	0	0	613	552	1021	0	0	0	
9	0	0	0	0	606	546	1021	0	0	0	
10	0	0	0	0	596	537	1021	0	0	0	
11	0	0	0	0	583	526	1021	0	0	0	
12	0	0	0	0	569	513	1021	0	0	0	
13	0	0	0	0	553	500	1021	0	0	0	
14	0	0	0	0	538	487	1021	0	0	0	
15	0	0	0	0	524	475	1021	0	0	0	
0	0	0	0	0	512	465	1021	0	0	0	
1	0	0	0	0	502	456	1021	0	0	0	
2	0	0	0	0	494	449	1021	0	0	0	
3	0	0	0	0	489	445	1021	0	0	0	
4	0	0	0	0	487	443	1021	0	0	0	
5	0	0	0	0	488	444	1021	0	0	0	
6	0	0	0	0	492	446	1021	0	0	0	
7	0	0	0	0	499	451	1020	0	0	0	
8	0	0	0	0	509	459	1021	0	0	0	
9	0	0	0	0	520	467	1021	0	0	0	
10	0	0	0	0	532	476	1021	0	0	0	
11	0	0	0	0	544	485	1021	0	0	0	
12	0	0	0	0	554	493	1021	0	0	0	
13	0	0	0	0	562	499	1021	0	0	0	
14	0	0	0	0	567	503	1021	0	0	0	
15	0	0	0	0	568	505	1021	0	0	0	
0	0	0	0	0	567	505	1021	0	0	0	
1	0	0	0	0	563	503	1021	0	0	0	
2	0	0	0	0	558	499	1021	0	0	0	
3	0	0	0	0	551	494	1021	0	0	0	
4	0	0	0	0	543	489	1021	0	0	0	
5	0	0	0	0	536	483	1021	0	0	0	
6	0	0	0	0	529	479	1021	0	0	0	
7	0	0	0	0	524	476	1021	0	0	0	
8	0	0	0	0	522	473	1021	0	0	0	
9	0	0	0	0	521	473	1021	0	0	0	
10	0	0	0	0	523	474	1021	0	0	0	
11	0	0	0	0	526	476	1020	0	0	0	
12	0	0	0	0	530	478	1021	0	0	0	
13	0	0	0	0	535	481	1021	0	0	0	
14	0	0	0	0	540	483	1021	0	0	0	
15	0	0	0	0	544	486	1021	0	0	0	
0	0	0	0	0	548	488	1021	0	0	0	
1	0	0	0	0	552	491	1021	0	0	0	
2	0	0	0	0	555	492	1021	0	0	0	
3	0	0	0	0	557	494	1021	0	0	0	
4	0	0	0	0	559	495	1021	0	0	0	
5	0	0	0	0	560	496	1021	0	0	0	
6	0	0	0	0	561	497	1021	0	0	0	
7	0	0	0	0	561	499	1021	0	0	0	
8	0	0	0	0	561	499	1021	0	0	0	
9	0	0	0	0	560	500	1021	0	0	0	
10	0	0	0	0	559	500	1021	0	0	0	
11	0	0	0	0	557	500	1021	0	0	0	
12	0	0	0	0	555	500	1021	0	0	0	
13	0	0	0	0	553	500	1021	0	0	0	
14	0	0	0	0	551	499	1021	0	0	0	
15	0	0	0	0	548	498	1021	0	0	0	
0	0	0	0	0	546	497	1021	0	0	0	
1	0	0	0	0	543	495	1021	0	0	0	
2	0	0	0	0	540	492	1021	0	0	0	
3	0	0	0	0	536	488	1021	0	0	0	
4	0	0	0	0	533	484	1021	0	0	0	
5	0	0	0	0	529	481	1021	0	0	0	
6	0	0	0	0	526	477	1021	0	0	0	
7	0	0	0	0	523	474	1021	0	0	0	
8	0	0	0	0	521	472	1021	0	0	0	
9	0	0	0	0	520	470	1021	0	0	0	
10	0	0	0	0	521	470	1021	0	0	0	
11	0	0	0	0	522	471	1021	0	0	0	
12	0	0	0	0	525	472	1021	0	0	0	
13	0	0	0	0	528	474	1021	0	0	0	
14	0	0	0	0	532	478	1021	0	0	0	
15	0	0	0	0	537	482	1021	0	0	0	
0	0	0	0	0	542	487	1021	0	0	0	
1	0	0	0	0	547	492	1021	0	0	0	
2	0	0	0	0	553	497	1021	0	0	0	
3	0	0	0	0	558	502	1021	0	0	0	
4	0	0	0	0	563	508	1021	0	0	0	
5	0	0	0	0	567	513	1021	0	0	0	
6	0	0	0	0	572	518	1021	0	0	0	
7	0	0	0	0	575	521	1021	0	0	0	
8	0	0	0	0	577	525	1021	0	0	0	
9	0	0	0	0	580	527	1021	0	0	0	
10	0	0	0	0	582	529	1021	0	0	0	
11	0	0	0	0	583	531	1021	0	0	0	
12	0	0	0	0	583	531	1021	0	0	0	
13	0	0	0	0	584	531	1021	0	0	0	
14	0	0	0	0	583	529	1021	0	0	0	
15	0	0	0	0	579	525	1021	0	0	0	
0	0	0	0	0	575	519	1021	0	0	0	
1	0	0	0	0	568	512	1021	0	0	0	
2	0	0	0	0	560	504	1021	0	0	0	
3	0	0	0	0	552	496	1021	0	0	0	
4	0	0	0	0	544	488	1021	0	0	0	
5	0	0	0	0	536	481	1021	0	0	0	
6	0	0	0	0	529	476	1021	0	0	0	
7	0	0	0	0	523	472	1021	0	0	0	
8	0	0	0	0	519	470	1021	0	0	0	
9	0	0	0	0	517	470	1021	0	0	0	
10	0	0	0	0	517	472	1021	0	0	0	
11	0	0	0	0	519	475	1021	0	0	0	
12	0	0	0	0	523	478	1021	0	0	0	
13	0	0	0	0	527	482	1021	0	0	0	
14	0	0	0	0	531	485	1021	0	0	0	
15	0	0	0	0	536	487	1021	0	0	0	
0	0	0	0	0	539	487	1021	0	0	0	
1	0	0	0	0	541	487	1021	0	0	0	
2	0	0	0	0	541	485	1021	0	0	0	
3	0	0	0	0	540	483	1021	0	0	0	
4	0	0	0	0	539	480	1021	0	0	0	
5	0	0	0	0	536	477	1021	0	0	0	
6	0	0	0	0	535	476	1021	0	0	0	
7	0	0	0	0	534	475	1021	0	0	0	
8	0	0	0	0	534	476	1021	0	0	0	
9	0	0	0	0	536	479	1021	0	0	0	
10	0	0	0	0	538	482	1021	0	0	0	
11	0	0	0	0	541	486	1021	0	0	0	
12	0	0	0	0	544	489	1021	0	0	0	
13	0	0	0	0	546	492	1021	0	0	0	
14	0	0	0	0	547	494	1021	0	0	0	
15	0	0	0	0	546	493	1021	0	0	0	
0	0	0	0	0	544	492	1021	0	0	0	
1	0	0	0	0	542	490	1021	0	0	0	
2	0	0	0	0	539	487	1021	0	0	0	
3	0	0	0	0	536	486	1021	0	0	0	
4	0	0	0	0	535	483	1021	0	0	0	
5	0	0	0	0	534	482	1021	0	0	0	
6	0	0	0	0	535	482	1021	0	0	0	
7	0	0	0	0	536	483	1021	0	0	0	
8	0	0	0	0	538	484	1021	0	0	0	
9	0	0	0	0	540	484	1021	0	0	0	
10	0	0	0	0	541	485	1021	0	0	0	
11	0	0	0	0	541	485	1021	0	0	0	
12	0	0	0	0	540	484	1021	0	0	0	
13	0	0	0	0	539	483	1021	0	0	0	
14	0	0	0	0	537	483	1021	0	0	0	
15	0	0	0	0	536	482	1021	0	0	0	
0	0	0	0	0	535	482	1021	0	0	0	
1	0	0	0	0	534	482	1021	0	0	0	
2	0	0	0	0	535	482	1021	0	0	0	
3	0	0	0	0	535	483	1021	0	0	0	
4	0	0	0	0	536	484	1021	0	0	0	
5	0	0	0	0	539	486	1021	0	0	0	
6	0	0	0	0	541	488	1021	0	0	0	
7	0	0	0	0	544	491	1021	0	0	0	
8	0	0	0	0	546	492	1021	0	0	0	
9	0	0	0	0	547	494	1021	0	0	0	
10	0	0	0	0	549	495	1021	0	0	0	
11	0	0	0	0	550	496	1021	0	0	0	
12	0	0	0	0	550	497	1021	0	0	0	
13	0	0	0	0	551	498	1021	0	0	0	
14	0	0	0	0	552	500	1021	0	0	0	
15	0	0	0	0	555	503	1021	0	0	0	
0	0	0	0	0	558	506	1021	0	0	0	
1	0	0	0	0	563	510	1021	0	0	0	
2	0	0	0	0	568	514	1021	0	0	0	
3	0	0	0	0	571	518	1021	0	0	0	
4	0	0	0	0	574	519	1021	0	0	0	
5	0	0	0	0	574	520	1021	0	0	0	
6	0	0	0	0	573	519	1021	0	0	0	
7	0	0	0	0	569	515	1021	0	0	0	
8	0	0	0	0	563	509	1021	0	0	0	
9	0	0	0	0	555	502	1021	0	0	0	
10	0	0	0	0	544	492	1021	0	0	0	
11	0	0	0	0	532	482	1021	0	0	0	
12	0	0	0	0	520	472	1021	0	0	0	
13	0	0	0	0	509	462	1021	0	0	0	
14	0	0	0	0	499	452	1021	0	0	0	
15	0	0	0	0	491	445	1021	0	0	0	
0	0	0	0	0	484	440	1021	0	0	0	
1	0	0	0	0	481	436	1021	0	0	0	
2	0	0	0	0	480	435	1021	0	0	0	
3	0	0	0	0	482	437	1021	0	0	0	
4	0	0	0	0	487	440	1021	0	0	0	
5	0	0	0	0	493	445	1021	0	0	0	
6	0	0	0	0	500	451	1021	0	0	0	
7	0	0	0	0	509	458	1021	0	0	0	
8	0	0	0	0	518	465	1021	0	0	0	
9	0	0	0	0	526	472	1021	0	0	0	
10	0	0	0	0	534	479	1021	0	0	0	
11	0	0	0	0	540	485	1021	0	0	0	
12	0	0	0	0	545	490	1021	0	0	0	
13	0	0	0	0	550	494	1021	0	0	0	
14	0	0	0	0	552	497	1021	0	0	0	
15	0	0	0	0	553	499	1021	0	0	0	
0	0	0	0	0	554	500	1021	0	0	0	
1	0	0	0	0	553	501	1021	0	0	0	
2	0	0	0	0	553	502	1021	0	0	0	
3	0	0	0	0	552	502	1021	0	0	0	
4	0	0	0	0	550	500	1021	0	0	0	
5	0	0	0	0	547	498	1021	0	0	0	
6	0	0	0	0	543	494	1021	0	0	0	
7	0	0	0	0	538	490	1021	0	0	0	
8	0	0	0	0	533	486	1021	0	0	0	
9	0	0	0	0	528	481	1021	0	0	0	
10	0	0	0	0	524	478	1021	0	0	0	
11	0	0	0	0	521	475	1021	0	0	0	
12	0	0	0	0	519	473	1021	0	0	0	
13	0	0	0	0	519	472	1021	0	0	0	
14	0	0	0	0	520	473	1021	0	0	0	
15	0	0	0	0	522	473	1021	0	0	0	
0	0	0	0	0	524	474	1021	0	0	0	
1	0	0	0	0	526	475	1021	0	0	0	
2	0	0	0	0	528	476	1021	0	0	0	
3	0	0	0	0	530	476	1021	0	0	0	
4	0	0	0	0	530	475	1021	0	0	0	
5	0	0	0	0	530	474	1021	0	0	0	
6	0	0	0	0	530	473	1021	0	0	0	
7	0	0	0	0	530	472	1021	0	0	0	
8	0	0	0	0	529	471	1021	0	0	0	
9	0	0	0	0	530	471	1021	0	0	0	
10	0	0	0	0	530	471	1021	0	0	0	
11	0	0	0	0	532	473	1021	0	0	0	
12	0	0	0	0	535	476	1021	0	0	0	
13	0	0	0	0	539	480	1021	0	0	0	
14	0	0	0	0	544	486	1021	0	0	0	
15	0	0	0	0	551	493	1021	0	0	0	
0	0	0	0	0	560	502	1021	0	0	0	
1	0	0	0	0	568	511	1021	0	0	0	
2	0	0	0	0	577	520	1021	0	0	0	
3	0	0	0	0	585	528	1021	0	0	0	
4	0	0	0	0	592	536	1021	0	0	0	
5	0	0	0	0	597	541	1021	0	0	0	
6	0	0	0	0	599	543	1021	0	0	0	
7	0	0	0	0	598	542	1021	0	0	0	
8	0	0	0	0	593	539	1021	0	0	0	
9	0	0	0	0	585	531	1021	0	0	0	
10	0	0	0	0	574	521	1021	0	0	0	
11	0	0	0	0	560	509	1021	0	0	0	
12	0	0	0	0	545	495	1021	0	0	0	
13	0	0	0	0	528	480	1021	0	0	0	
14	0	0	0	0	512	465	1020	0	0	0	
15	0	0	0	0	499	453	1021	0	0	0	
0	0	0	0	0	488	444	1021	0	0	0	
1	0	0	0	0	480	437	1021	0	0	0	
2	0	0	0	0	477	434	1021	0	0	0	
3	0	0	0	0	478	434	1021	0	0	0	
4	0	0	0	0	483	438	1021	0	0	0	
5	0	0	0	0	491	444	1021	0	0	0	
6	0	0	0	0	501	452	1021	0	0	0	
7	0	0	0	0	513	462	1021	0	0	0	
8	0	0	0	0	527	472	1021	0	0	0	
9	0	0	0	0	539	483	1021	0	0	0	
10	0	0	0	0	550	492	1021	0	0	0	
11	0	0	0	0	559	499	1021	0	0	0	
12	0	0	0	0	564	504	1021	0	0	0	
13	0	0	0	0	568	507	1020	0	0	0	
14	0	0	0	0	568	508	1021	0	0	0	
15	0	0	0	0	566	508	1021	0	0	0	
0	0	0	0	0	562	505	1021	0	0	0	
1	0	0	0	0	557	503	1021	0	0	0	
2	0	0	0	0	551	499	1021	0	0	0	
3	0	0	0	0	545	496	1021	0	0	0	
4	0	0	0	0	539	492	1021	0	0	0	
5	0	0	0	0	534	489	1021	0	0	0	
6	0	0	0	0	529	485	1021	0	0	0	
7	0	0	0	0	525	483	1021	0	0	0	
8	0	0	0	0	523	480	1021	0	0	0	
9	0	0	0	0	522	479	1021	0	0	0	
10	0	0	0	0	523	478	1021	0	0	0	
11	0	0	0	0	525	479	1021	0	0	0	
12	0	0	0	0	529	480	1021	0	0	0	
13	0	0	0	0	534	483	1021	0	0	0	
14	0	0	0	0	540	485	1021	0	0	0	
15	0	0	0	0	545	487	1021	0	0	0	
0	0	0	0	0	550	489	1021	0	0	0	
1	0	0	0	0	552	489	1021	0	0	0	
2	0	0	0	0	555	489	1021	0	0	0	
3	0	0	0	0	555	488	1021	0	0	0	
4	0	0	0	0	553	487	1021	0	0	0	
5	0	0	0	0	551	486	1021	0	0	0	
6	0	0	0	0	546	483	1021	0	0	0	
7	0	0	0	0	542	480	1021	0	0	0	
8	0	0	0	0	536	478	1021	0	0	0	
9	0	0	0	0	531	476	1021	0	0	0	
10	0	0	0	0	526	473	1021	0	0	0	
11	0	0	0	0	520	471	1021	0	0	0	
12	0	0	0	0	516	470	1021	0	0	0	
13	0	0	0	0	512	468	1021	0	0	0	
14	0	0	0	0	510	467	1021	0	0	0	
15	0	0	0	0	508	467	1021	0	0	0	
0	0	0	0	0	508	467	1021	0	0	0	
1	0	0	0	0	509	467	1021	0	0	0	
2	0	0	0	0	511	469	1021	0	0	0	
3	0	0	0	0	515	471	1021	0	0	0	
4	0	0	0	0	519	474	1021	0	0	0	
5	0	0	0	0	526	478	1021	0	0	0	
6	0	0	0	0	534	483	1021	0	0	0	
7	0	0	0	0	542	488	1021	0	0	0	
8	0	0	0	0	550	494	1021	0	0	0	
9	0	0	0	0	559	500	1021	0	0	0	
10	0	0	0	0	567	506	1021	0	0	0	
11	0	0	0	0	574	512	1021	0	0	0	
12	0	0	0	0	580	517	1021	0	0	0	
13	0	0	0	0	583	519	1021	0	0	0	
14	0	0	0	0	583	520	1021	0	0	0	
15	0	0	0	0	580	518	1021	0	0	0	
0	0	0	0	0	575	515	1021	0	0	0	
1	0	0	0	0	566	508	1021	0	0	0	
2	0	0	0	0	556	502	1021	0	0	0	
3	0	0	0	0	545	494	1021	0	0	0	
4	0	0	0	0	534	486	1021	0	0	0	
5	0	0	0	0	524	478	1021	0	0	0	
6	0	0	0	0	515	471	1021	0	0	0	
7	0	0	0	0	508	466	1021	0	0	0	
8	0	0	0	0	502	461	1021	0	0	0	
9	0	0	0	0	498	457	1021	0	0	0	
10	0	0	0	0	496	455	1021	0	0	0	
11	0	0	0	0	496	452	1021	0	0	0	
12	0	0	0	0	496	450	1021	0	0	0	
13	0	0	0	0	498	451	1021	0	0	0	
14	0	0	0	0	500	451	1021	0	0	0	
15	0	0	0	0	503	453	1021	0	0	0	
0	0	0	0	0	507	455	1021	0	0	0	
1	0	0	0	0	512	460	1021	0	0	0	
2	0	0	0	0	519	465	1021	0	0	0	
3	0	0	0	0	526	471	1021	0	0	0	
4	0	0	0	0	533	478	1021	0	0	0	
5	0	0	0	0	541	485	1021	0	0	0	
6	0	0	0	0	548	492	1021	0	0	0	
7	0	0	0	0	555	499	1021	0	0	0	
8	0	0	0	0	559	503	1021	0	0	0	
9	0	0	0	0	561	506	1021	0	0	0	
10	0	0	0	0	561	507	1021	0	0	0	
11	0	0	0	0	559	505	1021	0	0	0	
12	0	0	0	0	555	502	1021	0	0	0	
13	0	0	0	0	549	498	1021	0	0	0	
14	0	0	0	0	542	493	1021	0	0	0	
15	0	0	0	0	536	487	1021	0	0	0	
0	0	0	0	0	529	481	1021	0	0	0	
1	0	0	0	0	523	476	1021	0	0	0	
2	0	0	0	0	518	471	1021	0	0	0	
3	0	0	0	0	513	466	1021	0	0	0	
4	0	0	0	0	509	462	1021	0	0	0	
5	0	0	0	0	507	459	1021	0	0	0	
6	0	0	0	0	505	457	1021	0	0	0	
7	0	0	0	0	504	455	1021	0	0	0	
8	0	0	0	0	504	455	1021	0	0	0	
9	0	0	0	0	507	457	1021	0	0	0	
10	0	0	0	0	509	458	1021	0	0	0	
11	0	0	0	0	512	461	1021	0	0	0	
12	0	0	0	0	517	464	1021	0	0	0	
13	0	0	0	0	521	468	1021	0	0	0	
14	0	0	0	0	527	473	1021	0	0	0	
15	0	0	0	0	532	479	1021	0	0	0	
0	0	0	0	0	537	484	1021	0	0	0	
1	0	0	0	0	542	489	1021	0	0	0	
2	0	0	0	0	546	494	1021	0	0	0	
3	0	0	0	0	551	498	1021	0	0	0	
4	0	0	0	0	554	502	1021	0	0	0	
5	0	0	0	0	557	505	1021	0	0	0	
6	0	0	0	0	558	507	1021	0	0	0	
7	0	0	0	0	559	508	1021	0	0	0	
8	0	0	0	0	557	508	1021	0	0	0	
9	0	0	0	0	555	507	1021	0	0	0	
10	0	0	0	0	551	504	1021	0	0	0	
11	0	0	0	0	547	500	1021	0	0	0	
12	0	0	0	0	541	495	1021	0	0	0	
13	0	0	0	0	535	490	1021	0	0	0	
14	0	0	0	0	529	484	1021	0	0	0	
15	0	0	0	0	524	479	1021	0	0	0	
0	0	0	0	0	518	473	1021	0	0	0	
1	0	0	0	0	515	468	1021	0	0	0	
2	0	0	0	0	512	465	1021	0	0	0	
3	0	0	0	0	511	462	1021	0	0	0	
4	0	0	0	0	511	460	1021	0	0	0	
5	0	0	0	0	512	460	1021	0	0	0	
6	0	0	0	0	515	462	1021	0	0	0	
7	0	0	0	0	518	463	1021	0	0	0	
8	0	0	0	0	522	466	1021	0	0	0	
9	0	0	0	0	525	469	1021	0	0	0	
10	0	0	0	0	529	472	1021	0	0	0	
11	0	0	0	0	532	476	1021	0	0	0	
12	0	0	0	0	535	479	1021	0	0	0	
13	0	0	0	0	537	482	1021	0	0	0	
14	0	0	0	0	540	485	1021	0	0	0	
15	0	0	0	0	540	487	1021	0	0	0	
0	0	0	0	0	541	490	1021	0	0	0	
1	0	0	0	0	541	491	1021	0	0	0	
2	0	0	0	0	540	491	1021	0	0	0	
3	0	0	0	0	538	489	1021	0	0	0	
4	0	0	0	0	535	486	1021	0	0	0	
5	0	0	0	0	532	483	1021	0	0	0	
6	0	0	0	0	528	479	1021	0	0	0	
7	0	0	0	0	525	475	1021	0	0	0	
8	0	0	0	0	523	472	1021	0	0	0	
9	0	0	0	0	520	469	1021	0	0	0	
10	0	0	0	0	520	468	1021	0	0	0	
11	0	0	0	0	521	468	1021	0	0	0	
12	0	0	0	0	524	470	1021	0	0	0	
13	0	0	0	0	528	473	1021	0	0	0	
14	0	0	0	0	534	478	1021	0	0	0	
15	0	0	0	0	540	483	1021	0	0	0	
0	0	0	0	0	547	489	1021	0	0	0	
1	0	0	0	0	554	495	1021	0	0	0	
2	0	0	0	0	560	500	1021	0	0	0	
3	0	0	0	0	564	505	1021	0	0	0	
4	0	0	0	0	567	508	1021	0	0	0	
5	0	0	0	0	567	510	1021	0	0	0	
6	0	0	0	0	566	510	1021	0	0	0	
7	0	0	0	0	563	509	1021	0	0	0	
8	0	0	0	0	560	506	1021	0	0	0	
9	0	0	0	0	555	503	1021	0	0	0	
10	0	0	0	0	549	499	1021	0	0	0	
11	0	0	0	0	543	494	1021	0	0	0	
12	0	0	0	0	536	487	1021	0	0	0	
13	0	0	0	0	530	481	1021	0	0	0	
14	0	0	0	0	525	476	1021	0	0	0	
15	0	0	0	0	519	470	1021	0	0	0	
0	0	0	0	0	515	464	1021	0	0	0	
1	0	0	0	0	510	459	1021	0	0	0	
2	0	0	0	0	505	452	1021	0	0	0	
3	0	0	0	0	498	446	1021	0	0	0	
4	0	0	0	0	491	438	1021	0	0	0	
5	0	0	0	0	481	429	1021	0	0	0	
6	0	0	0	0	471	419	1021	0	0	0	
7	0	0	0	0	459	408	1020	0	0	0	
8	0	0	0	0	447	397	1021	0	0	0	
9	0	0	0	0	433	385	1021	0	0	0	
10	0	0	0	0	420	374	1021	0	0	0	
11	0	0	0	0	407	362	1021	0	0	0	
12	0	0	0	0	393	349	1021	0	0	0	
13	0	0	0	0	380	337	1021	0	0	0	
14	0	0	0	0	367	324	1021	0	0	0	
15	0	0	0	0	353	312	1021	0	0	0	
0	0	0	0	0	342	300	1021	0	0	0	
1	0	0	0	0	331	289	1021	0	0	0	
2	0	0	0	0	322	280	1021	0	0	0	
3	0	0	0	0	315	273	1021	0	0	0	
4	0	0	0	0	312	269	1021	0	0	0	
5	0	0	0	0	312	268	1021	0	0	0	
6	0	0	0	0	318	271	1021	0	0	0	
7	0	0	0	0	328	279	1021	0	0	0	
8	0	0	0	0	343	291	1021	0	0	0	
9	0	0	0	0	361	305	1021	0	0	0	
10	0	0	0	0	382	323	1021	0	0	0	
11	0	0	0	0	404	342	1021	0	0	0	
12	0	0	0	0	427	360	1021	0	0	0	
13	0	0	0	0	448	378	1021	0	0	0	
14	0	0	0	0	466	394	1021	0	0	0	
15	0	0	0	0	480	408	1021	0	0	0	
0	0	0	0	0	491	419	1021	0	0	0	
1	0	0	0	0	499	428	1021	0	0	0	
2	0	0	0	0	504	435	1021	0	0	0	
3	0	0	0	0	508	441	1021	0	0	0	
4	0	0	0	0	510	446	1021	0	0	0	
5	0	0	0	0	512	451	1020	0	0	0	
6	0	0	0	0	514	455	1021	0	0	0	
7	0	0	0	0	516	460	1021	0	0	0	
8	0	0	0	0	519	465	1021	0	0	0	
9	0	0	0	0	524	470	1021	0	0	0	
10	0	0	0	0	529	476	1020	0	0	0	
11	0	0	0	0	536	482	1021	0	0	0	
12	0	0	0	0	543	488	1021	0	0	0	
13	0	0	0	0	551	495	1021	0	0	0	
14	0	0	0	0	558	501	1021	0	0	0	
15	0	0	0	0	564	505	1021	0	0	0	
0	0	0	0	0	569	510	1021	0	0	0	
1	0	0	0	0	574	513	1021	0	0	0	
2	0	0	0	0	575	515	1021	0	0	0	
3	0	0	0	0	576	515	1021	0	0	0	
4	0	0	0	0	575	515	1021	0	0	0	
5	0	0	0	0	572	513	1021	0	0	0	
6	0	0	0	0	567	511	1021	0	0	0	
7	0	0	0	0	563	509	1021	0	0	0	
8	0	0	0	0	557	506	1021	0	0	0	
9	0	0	0	0	552	503	1021	0	0	0	
10	0	0	0	0	549	502	1021	0	0	0	
11	0	0	0	0	547	502	1021	0	0	0	
12	0	0	0	0	547	503	1021	0	0	0	
13	0	0	0	0	550	505	1021	0	0	0	
14	0	0	0	0	554	508	1021	0	0	0	
15	0	0	0	0	560	513	1021	0	0	0	
0	0	0	0	0	569	520	1021	0	0	0	
1	0	0	0	0	579	528	1021	0	0	0	
2	0	0	0	0	588	535	1021	0	0	0	
3	0	0	0	0	596	540	1021	0	0	0	
4	0	0	0	0	602	544	1021	0	0	0	
5	0	0	0	0	605	545	1021	0	0	0	
6	0	0	0	0	604	543	1021	0	0	0	
7	0	0	0	0	600	540	1021	0	0	0	
8	0	0	0	0	592	533	1021	0	0	0	
9	0	0	0	0	583	525	1021	0	0	0	
10	0	0	0	0	572	516	1021	0	0	0	
11	0	0	0	0	559	507	1021	0	0	0	
12	0	0	0	0	547	497	1021	0	0	0	
13	0	0	0	0	536	489	1021	0	0	0	
14	0	0	0	0	527	482	1021	0	0	0	
15	0	0	0	0	520	477	1021	0	0	0	
0	0	0	0	0	516	474	1021	0	0	0	
1	0	0	0	0	514	473	1021	0	0	0	
2	0	0	0	0	515	472	1021	0	0	0	
3	0	0	0	0	517	473	1021	0	0	0	
4	0	0	0	0	520	475	1021	0	0	0	
5	0	0	0	0	525	477	1021	0	0	0	
6	0	0	0	0	529	479	1021	0	0	0	
7	0	0	0	0	534	481	1020	0	0	0	
8	0	0	0	0	539	483	1021	0	0	0	
9	0	0	0	0	543	486	1021	0	0	0	
10	0	0	0	0	548	489	1021	0	0	0	
11	0	0	0	0	551	492	1021	0	0	0	
12	0	0	0	0	554	495	1021	0	0	0	
13	0	0	0	0	557	498	1021	0	0	0	
14	0	0	0	0	559	501	1021	0	0	0	
15	0	0	0	0	560	504	1021	0	0	0	
0	0	0	0	0	561	507	1021	0	0	0	
1	0	0	0	0	562	509	1021	0	0	0	
2	0	0	0	0	563	511	1021	0	0	0	
3	0	0	0	0	563	513	1021	0	0	0	
4	0	0	0	0	563	514	1021	0	0	0	
5	0	0	0	0	563	514	1021	0	0	0	
6	0	0	0	0	563	515	1021	0	0	0	
7	0	0	0	0	564	515	1021	0	0	0	
8	0	0	0	0	565	515	1021	0	0	0	
9	0	0	0	0	566	515	1021	0	0	0	
10	0	0	0	0	568	517	1021	0	0	0	
11	0	0	0	0	570	518	1021	0	0	0	
12	0	0	0	0	571	519	1021	0	0	0	
13	0	0	0	0	571	519	1021	0	0	0	
14	0	0	0	0	569	517	1021	0	0	0	
15	0	0	0	0	566	513	1021	0	0	0	
0	0	0	0	0	561	509	1021	0	0	0	
1	0	0	0	0	556	503	1021	0	0	0	
2	0	0	0	0	550	497	1021	0	0	0	
3	0	0	0	0	544	492	1021	0	0	0	
4	0	0	0	0	539	486	1021	0	0	0	
5	0	0	0	0	535	481	1021	0	0	0	
6	0	0	0	0	532	479	1021	0	0	0	
7	0	0	0	0	531	477	1021	0	0	0	
8	0	0	0	0	532	477	1021	0	0	0	
9	0	0	0	0	534	478	1021	0	0	0	
10	0	0	0	0	537	480	1021	0	0	0	
11	0	0	0	0	542	484	1021	0	0	0	
12	0	0	0	0	547	488	1021	0	0	0	
13	0	0	0	0	552	493	1021	0	0	0	
14	0	0	0	0	558	498	1021	0	0	0	
15	0	0	0	0	563	503	1021	0	0	0	
0	0	0	0	0	567	507	1021	0	0	0	
1	0	0	0	0	570	510	1021	0	0	0	
2	0	0	0	0	573	513	1021	0	0	0	
3	0	0	0	0	575	515	1021	0	0	0	
4	0	0	0	0	575	517	1021	0	0	0	
5	0	0	0	0	577	519	1021	0	0	0	
6	0	0	0	0	578	522	1021	0	0	0	
7	0	0	0	0	581	526	1021	0	0	0	
8	0	0	0	0	584	529	1021	0	0	0	
9	0	0	0	0	588	534	1021	0	0	0	
10	0	0	0	0	592	539	1021	0	0	0	
11	0	0	0	0	597	544	1021	0	0	0	
12	0	0	0	0	602	549	1021	0	0	0	
13	0	0	0	0	607	554	1021	0	0	0	
14	0	0	0	0	612	558	1021	0	0	0	
15	0	0	0	0	616	561	1021	0	0	0	
0	0	0	0	0	619	563	1021	0	0	0	
1	0	0	0	0	620	563	1021	0	0	0	
2	0	0	0	0	619	562	1021	0	0	0	
3	0	0	0	0	615	559	1021	0	0	0	
4	0	0	0	0	608	553	1021	0	0	0	
5	0	0	0	0	599	545	1021	0	0	0	
6	0	0	0	0	586	534	1021	0	0	0	
7	0	0	0	0	571	521	1021	0	0	0	
8	0	0	0	0	555	507	1021	0	0	0	
9	0	0	0	0	538	492	1021	0	0	0	
10	0	0	0	0	521	478	1021	0	0	0	
11	0	0	0	0	507	464	1021	0	0	0	
12	0	0	0	0	494	452	1021	0	0	0	
13	0	0	0	0	484	443	1021	0	0	0	
14	0	0	0	0	478	436	1021	0	0	0	
15	0	0	0	0	475	432	1021	0	0	0	
0	0	0	0	0	475	431	1021	0	0	0	
1	0	0	0	0	478	432	1021	0	0	0	
2	0	0	0	0	484	435	1021	0	0	0	
3	0	0	0	0	491	439	1021	0	0	0	
4	0	0	0	0	499	445	1021	0	0	0	
5	0	0	0	0	507	451	1021	0	0	0	
6	0	0	0	0	515	457	1021	0	0	0	
7	0	0	0	0	522	463	1021	0	0	0	
8	0	0	0	0	528	468	1021	0	0	0	
9	0	0	0	0	533	473	1021	0	0	0	
10	0	0	0	0	537	477	1021	0	0	0	
11	0	0	0	0	540	480	1020	0	0	0	
12	0	0	0	0	541	483	1021	0	0	0	
13	0	0	0	0	542	485	1021	0	0	0	
14	0	0	0	0	542	486	1021	0	0	0	
15	0	0	0	0	542	487	1021	0	0	0	
0	0	0	0	0	542	487	1021	0	0	0	
1	0	0	0	0	541	487	1021	0	0	0	
2	0	0	0	0	541	488	1021	0	0	0	
3	0	0	0	0	541	488	1021	0	0	0	
4	0	0	0	0	541	489	1021	0	0	0	
5	0	0	0	0	541	489	1021	0	0	0	
6	0	0	0	0	542	490	1021	0	0	0	
7	0	0	0	0	543	491	1021	0	0	0	
8	0	0	0	0	544	491	1021	0	0	0	
9	0	0	0	0	545	492	1021	0	0	0	
10	0	0	0	0	547	492	1021	0	0	0	
11	0	0	0	0	548	493	1021	0	0	0	
12	0	0	0	0	549	494	1021	0	0	0	
13	0	0	0	0	550	494	1021	0	0	0	
14	0	0	0	0	550	494	1021	0	0	0	
15	0	0	0	0	549	494	1021	0	0	0	
0	0	0	0	0	548	493	1021	0	0	0	
1	0	0	0	0	547	492	1021	0	0	0	
2	0	0	0	0	545	490	1021	0	0	0	
3	0	0	0	0	543	488	1021	0	0	0	
4	0	0	0	0	542	486	1021	0	0	0	
5	0	0	0	0	540	484	1021	0	0	0	
6	0	0	0	0	539	483	1021	0	0	0	
7	0	0	0	0	537	482	1021	0	0	0	
8	0	0	0	0	537	482	1021	0	0	0	
9	0	0	0	0	537	482	1021	0	0	0	
10	0	0	0	0	538	483	1021	0	0	0	
11	0	0	0	0	540	485	1021	0	0	0	
12	0	0	0	0	542	487	1021	0	0	0	
13	0	0	0	0	546	491	1021	0	0	0	
14	0	0	0	0	550	495	1021	0	0	0	
15	0	0	0	0	556	500	1021	0	0	0	
0	0	0	0	0	561	505	1021	0	0	0	
1	0	0	0	0	567	510	1021	0	0	0	
2	0	0	0	0	572	514	1021	0	0	0	
3	0	0	0	0	576	518	1021	0	0	0	
4	0	0	0	0	580	520	1021	0	0	0	
5	0	0	0	0	583	523	1021	0	0	0	
6	0	0	0	0	583	523	1021	0	0	0	
7	0	0	0	0	583	523	1021	0	0	0	
8	0	0	0	0	582	520	1021	0	0	0	
9	0	0	0	0	579	518	1021	0	0	0	
10	0	0	0	0	575	513	1021	0	0	0	
11	0	0	0	0	570	508	1021	0	0	0	
12	0	0	0	0	564	504	1021	0	0	0	
13	0	0	0	0	559	499	1021	0	0	0	
14	0	0	0	0	553	494	1021	0	0	0	
15	0	0	0	0	549	492	1021	0	0	0	
0	0	0	0	0	547	490	1021	0	0	0	
1	0	0	0	0	545	491	1021	0	0	0	
2	0	0	0	0	545	492	1021	0	0	0	
3	0	0	0	0	546	496	1021	0	0	0	
4	0	0	0	0	548	499	1021	0	0	0	
5	0	0	0	0	551	503	1021	0	0	0	
6	0	0	0	0	553	505	1021	0	0	0	
7	0	0	0	0	556	509	1021	0	0	0	
8	0	0	0	0	559	511	1021	0	0	0	
9	0	0	0	0	562	512	1021	0	0	0	
10	0	0	0	0	564	512	1021	0	0	0	
11	0	0	0	0	565	511	1021	0	0	0	
12	0	0	0	0	565	508	1021	0	0	0	
13	0	0	0	0	564	505	1021	0	0	0	
14	0	0	0	0	562	501	1021	0	0	0	
15	0	0	0	0	560	497	1021	0	0	0	
0	0	0	0	0	557	494	1021	0	0	0	
1	0	0	0	0	553	490	1021	0	0	0	
2	0	0	0	0	550	487	1021	0	0	0	
3	0	0	0	0	547	485	1021	0	0	0	
4	0	0	0	0	544	484	1021	0	0	0	
5	0	0	0	0	542	484	1021	0	0	0	
6	0	0	0	0	541	486	1021	0	0	0	
7	0	0	0	0	541	489	1021	0	0	0	
8	0	0	0	0	543	492	1021	0	0	0	
9	0	0	0	0	545	496	1021	0	0	0	
10	0	0	0	0	547	499	1021	0	0	0	
11	0	0	0	0	550	502	1021	0	0	0	
12	0	0	0	0	552	504	1021	0	0	0	
13	0	0	0	0	555	505	1021	0	0	0	
14	0	0	0	0	557	506	1021	0	0	0	
15	0	0	0	0	559	506	1021	0	0	0	
0	0	0	0	0	559	505	1021	0	0	0	
1	0	0	0	0	559	503	1021	0	0	0	
2	0	0	0	0	557	500	1021	0	0	0	
3	0	0	0	0	553	496	1021	0	0	0	
4	0	0	0	0	550	491	1021	0	0	0	
5	0	0	0	0	545	487	1021	0	0	0	
6	0	0	0	0	540	482	1021	0	0	0	
7	0	0	0	0	536	479	1021	0	0	0	
8	0	0	0	0	533	476	1021	0	0	0	
9	0	0	0	0	530	474	1021	0	0	0	
10	0	0	0	0	529	473	1021	0	0	0	
11	0	0	0	0	529	473	1021	0	0	0	
12	0	0	0	0	530	474	1021	0	0	0	
13	0	0	0	0	531	475	1021	0	0	0	
14	0	0	0	0	535	477	1021	0	0	0	
15	0	0	0	0	537	479	1021	0	0	0	
0	0	0	0	0	541	481	1021	0	0	0	
1	0	0	0	0	544	483	1021	0	0	0	
2	0	0	0	0	547	485	1021	0	0	0	
3	0	0	0	0	549	487	1021	0	0	0	
4	0	0	0	0	551	487	1021	0	0	0	
5	0	0	0	0	552	488	1021	0	0	0	
6	0	0	0	0	554	488	1021	0	0	0	
7	0	0	0	0	555	489	1021	0	0	0	
8	0	0	0	0	556	490	1021	0	0	0	
9	0	0	0	0	556	491	1021	0	0	0	
10	0	0	0	0	556	492	1021	0	0	0	
11	0	0	0	0	556	492	1021	0	0	0	
12	0	0	0	0	556	493	1021	0	0	0	
13	0	0	0	0	554	492	1021	0	0	0	
14	0	0	0	0	552	491	1021	0	0	0	
15	0	0	0	0	550	490	1021	0	0	0	
0	0	0	0	0	547	488	1021	0	0	0	
1	0	0	0	0	543	486	1021	0	0	0	
2	0	0	0	0	541	484	1021	0	0	0	
3	0	0	0	0	537	482	1021	0	0	0	
4	0	0	0	0	534	480	1021	0	0	0	
5	0	0	0	0	532	478	1021	0	0	0	
6	0	0	0	0	530	477	1021	0	0	0	
7	0	0	0	0	530	476	1021	0	0	0	
8	0	0	0	0	530	477	1021	0	0	0	
9	0	0	0	0	532	478	1021	0	0	0	
10	0	0	0	0	535	480	1021	0	0	0	
11	0	0	0	0	539	483	1021	0	0	0	
12	0	0	0	0	544	488	1021	0	0	0	
13	0	0	0	0	551	493	1021	0	0	0	
14	0	0	0	0	557	499	1021	0	0	0	
15	0	0	0	0	566	507	1021	0	0	0	
0	0	0	0	0	574	515	1021	0	0	0	
1	0	0	0	0	582	523	1021	0	0	0	
2	0	0	0	0	589	529	1021	0	0	0	
3	0	0	0	0	594	535	1021	0	0	0	
4	0	0	0	0	598	538	1021	0	0	0	
5	0	0	0	0	599	539	1021	0	0	0	
6	0	0	0	0	597	536	1021	0	0	0	
7	0	0	0	0	593	532	1021	0	0	0	
8	0	0	0	0	585	526	1021	0	0	0	
9	0	0	0	0	576	517	1021	0	0	0	
10	0	0	0	0	564	507	1021	0	0	0	
11	0	0	0	0	552	496	1021	0	0	0	
12	0	0	0	0	539	485	1021	0	0	0	
13	0	0	0	0	527	475	1021	0	0	0	
14	0	0	0	0	517	467	1021	0	0	0	
15	0	0	0	0	510	460	1021	0	0	0	
0	0	0	0	0	505	457	1021	0	0	0	
1	0	0	0	0	503	455	1021	0	0	0	
2	0	0	0	0	504	456	1021	0	0	0	
3	0	0	0	0	509	460	1021	0	0	0	
4	0	0	0	0	515	465	1021	0	0	0	
5	0	0	0	0	523	472	1021	0	0	0	
6	0	0	0	0	531	478	1021	0	0	0	
7	0	0	0	0	540	485	1021	0	0	0	
8	0	0	0	0	548	492	1021	0	0	0	
9	0	0	0	0	556	497	1021	0	0	0	
10	0	0	0	0	560	501	1021	0	0	0	
11	0	0	0	0	564	504	1021	0	0	0	
12	0	0	0	0	564	504	1021	0	0	0	
13	0	0	0	0	564	503	1021	0	0	0	
14	0	0	0	0	561	501	1021	0	0	0	
15	0	0	0	0	557	498	1021	0	0	0	
0	0	0	0	0	551	494	1021	0	0	0	
1	0	0	0	0	547	491	1021	0	0	0	
2	0	0	0	0	541	487	1021	0	0	0	
3	0	0	0	0	537	483	1021	0	0	0	
4	0	0	0	0	534	480	1021	0	0	0	
5	0	0	0	0	531	478	1021	0	0	0	
6	0	0	0	0	529	477	1021	0	0	0	
7	0	0	0	0	530	477	1021	0	0	0	
8	0	0	0	0	531	478	1021	0	0	0	
9	0	0	0	0	534	481	1021	0	0	0	
10	0	0	0	0	539	484	1021	0	0	0	
11	0	0	0	0	543	487	1021	0	0	0	
12	0	0	0	0	548	492	1021	0	0	0	
13	0	0	0	0	554	496	1021	0	0	0	
14	0	0	0	0	559	499	1021	0	0	0	
15	0	0	0	0	563	502	1021	0	0	0	
0	0	0	0	0	567	505	1021	0	0	0	
1	0	0	0	0	570	507	1021	0	0	0	
2	0	0	0	0	571	508	1021	0	0	0	
3	0	0	0	0	571	508	1021	0	0	0	
4	0	0	0	0	569	507	1021	0	0	0	
5	0	0	0	0	566	505	1021	0	0	0	
6	0	0	0	0	562	502	1021	0	0	0	
7	0	0	0	0	557	499	1021	0	0	0	
8	0	0	0	0	552	496	1021	0	0	0	
9	0	0	0	0	547	492	1021	0	0	0	
10	0	0	0	0	543	490	1021	0	0	0	
11	0	0	0	0	540	488	1021	0	0	0	
12	0	0	0	0	539	488	1021	0	0	0	
13	0	0	0	0	539	489	1021	0	0	0	
14	0	0	0	0	541	490	1021	0	0	0	
15	0	0	0	0	543	492	1021	0	0	0	
0	0	0	0	0	546	495	1021	0	0	0	
1	0	0	0	0	549	498	1021	0	0	0	
2	0	0	0	0	552	500	1021	0	0	0	
3	0	0	0	0	555	503	1021	0	0	0	
4	0	0	0	0	556	503	1021	0	0	0	
5	0	0	0	0	555	502	1021	0	0	0	
6	0	0	0	0	553	499	1021	0	0	0	
7	0	0	0	0	551	496	1021	0	0	0	
8	0	0	0	0	547	491	1021	0	0	0	
9	0	0	0	0	543	487	1021	0	0	0	
10	0	0	0	0	540	483	1021	0	0	0	
11	0	0	0	0	536	479	1021	0	0	0	
12	0	0	0	0	534	476	1021	0	0	0	
13	0	0	0	0	533	475	1021	0	0	0	
14	0	0	0	0	533	474	1021	0	0	0	
15	0	0	0	0	535	476	1021	0	0	0	
0	0	0	0	0	537	478	1021	0	0	0	
1	0	0	0	0	540	482	1021	0	0	0	
2	0	0	0	0	545	487	1021	0	0	0	
3	0	0	0	0	549	492	1021	0	0	0	
4	0	0	0	0	554	497	1021	0	0	0	
5	0	0	0	0	558	502	1021	0	0	0	
6	0	0	0	0	562	506	1021	0	0	0	
7	0	0	0	0	566	510	1021	0	0	0	
8	0	0	0	0	568	512	1021	0	0	0	
9	0	0	0	0	568	513	1021	0	0	0	
10	0	0	0	0	568	512	1021	0	0	0	
11	0	0	0	0	566	510	1021	0	0	0	
12	0	0	0	0	563	507	1021	0	0	0	
