# OpenSignals Text File Format. Version 1
# {"": {"position": 0, "device": "", "device name": "", "device connection": "", "sampling rate": 1000, "resolution": [4, 1, 1, 1, 1, 10, 10, 10, 10, 6, 6], "firmware version": 1281, "comments": "", "keywords": "", "mode": 0, "sync interval": 2, "date": "", "time": "", "channels": [1, 2, 3, 4, 5, 6], "sensor": ["RAW", "RAW", "RAW", "RAW", "RAW", "RAW"], "label": ["A1", "A2", "A3", "A4", "A5", "A6"], "column": ["nSeq", "I1", "I2", "O1", "O2", "A1", "A2", "A3", "A4", "A5", "A6"], "special": [{}, {}, {}, {}, {}, {}], "digital IO": [0, 0, 1, 1], "convertedValues": 0}}
# EndOfHeader
0	0	0	0	0	519	518	0	407	0	0	
1	0	0	0	0	517	500	0	396	0	0	
2	0	0	0	0	515	481	0	388	0	0	
3	0	0	0	0	515	460	0	385	0	0	
4	0	0	0	0	516	441	0	387	0	0	
5	0	0	0	0	518	426	0	393	0	0	
6	0	0	0	0	520	415	0	403	0	0	
7	0	0	0	0	523	409	0	416	0	0	
8	0	0	0	0	525	409	0	431	0	0	
9	0	0	0	0	526	416	0	445	0	0	
10	0	0	0	0	528	428	0	458	0	0	
11	0	0	0	0	529	444	0	468	0	0	
12	0	0	0	0	529	462	0	474	0	0	
13	0	0	0	0	529	481	0	476	0	0	
14	0	0	0	0	527	499	0	473	0	0	
15	0	0	0	0	525	515	0	465	0	0	
0	0	0	0	0	522	526	0	455	0	0	
1	0	0	0	0	519	531	0	441	0	0	
2	0	0	0	0	517	530	0	426	0	0	
3	0	0	0	0	514	523	0	411	0	0	
4	0	0	0	0	513	510	0	397	0	0	
5	0	0	0	0	512	494	0	387	0	0	
6	0	0	0	0	512	474	0	379	0	0	
7	0	0	0	0	512	454	0	376	0	0	
8	0	0	0	0	513	434	0	378	0	0	
9	0	0	0	0	515	418	0	384	0	0	
10	0	0	0	0	516	405	0	394	0	0	
11	0	0	0	0	518	399	0	407	0	0	
12	0	0	0	0	519	399	0	422	0	0	
13	0	0	0	0	519	404	0	436	0	0	
14	0	0	0	0	521	415	0	449	0	0	
15	0	0	0	0	521	432	0	460	0	0	
0	0	0	0	0	521	450	0	468	0	0	
1	0	0	0	0	519	469	0	471	0	0	
2	0	0	0	0	518	487	0	469	0	0	
3	0	0	0	0	515	503	0	463	0	0	
4	0	0	0	0	512	515	0	453	0	0	
5	0	0	0	0	510	521	0	440	0	0	
6	0	0	0	0	508	521	0	426	0	0	
7	0	0	0	0	507	515	0	412	0	0	
8	0	0	0	0	506	504	0	400	0	0	
9	0	0	0	0	506	489	0	390	0	0	
10	0	0	0	0	507	471	0	384	0	0	
11	0	0	0	0	508	452	0	382	0	0	
12	0	0	0	0	512	435	0	384	0	0	
13	0	0	0	0	515	420	0	391	0	0	
14	0	0	0	0	518	409	0	403	0	0	
15	0	0	0	0	521	404	0	416	0	0	
0	0	0	0	0	523	404	0	431	0	0	
1	0	0	0	0	524	410	0	445	0	0	
2	0	0	0	0	525	422	0	458	0	0	
3	0	0	0	0	525	437	0	468	0	0	
4	0	0	0	0	523	454	0	473	0	0	
5	0	0	0	0	520	472	0	474	0	0	
6	0	0	0	0	516	488	0	470	0	0	
7	0	0	0	0	513	503	0	462	0	0	
8	0	0	0	0	509	512	0	450	0	0	
9	0	0	0	0	506	517	0	436	0	0	
10	0	0	0	0	503	516	0	421	0	0	
11	0	0	0	0	502	509	0	407	0	0	
12	0	0	0	0	502	498	0	394	0	0	
13	0	0	0	0	502	483	0	384	0	0	
14	0	0	0	0	505	466	0	379	0	0	
15	0	0	0	0	508	448	0	379	0	0	
0	0	0	0	0	513	432	0	383	0	0	
1	0	0	0	0	519	418	0	391	0	0	
2	0	0	0	0	524	409	0	404	0	0	
3	0	0	0	0	529	404	0	418	0	0	
4	0	0	0	0	532	405	0	435	0	0	
5	0	0	0	0	535	412	0	449	0	0	
6	0	0	0	0	537	423	0	462	0	0	
7	0	0	0	0	536	438	0	472	0	0	
8	0	0	0	0	533	454	0	477	0	0	
9	0	0	0	0	529	472	0	477	0	0	
10	0	0	0	0	523	488	0	472	0	0	
11	0	0	0	0	518	501	0	463	0	0	
12	0	0	0	0	512	510	0	450	0	0	
13	0	0	0	0	506	514	0	435	0	0	
14	0	0	0	0	502	512	0	419	0	0	
15	0	0	0	0	499	504	0	404	0	0	
0	0	0	0	0	497	493	0	391	0	0	
1	0	0	0	0	497	478	0	382	0	0	
2	0	0	0	0	499	460	0	376	0	0	
3	0	0	0	0	502	443	0	375	0	0	
4	0	0	0	0	506	426	0	379	0	0	
5	0	0	0	0	511	412	0	387	0	0	
6	0	0	0	0	515	402	0	398	0	0	
7	0	0	0	0	519	396	0	412	0	0	
8	0	0	0	0	521	396	0	427	0	0	
9	0	0	0	0	523	403	0	441	0	0	
10	0	0	0	0	524	414	0	454	0	0	
11	0	0	0	0	524	430	0	464	0	0	
12	0	0	0	0	523	448	0	470	0	0	
13	0	0	0	0	521	467	0	472	0	0	
14	0	0	0	0	518	485	0	469	0	0	
15	0	0	0	0	516	500	0	462	0	0	
0	0	0	0	0	513	512	0	452	0	0	
1	0	0	0	0	511	518	0	440	0	0	
2	0	0	0	0	510	519	0	427	0	0	
3	0	0	0	0	510	513	0	414	0	0	
4	0	0	0	0	510	503	0	403	0	0	
5	0	0	0	0	510	488	0	393	0	0	
6	0	0	0	0	511	471	0	388	0	0	
7	0	0	0	0	513	452	0	386	0	0	
8	0	0	0	0	516	435	0	389	0	0	
9	0	0	0	0	519	420	0	396	0	0	
10	0	0	0	0	521	409	0	406	0	0	
11	0	0	0	0	523	403	0	419	0	0	
12	0	0	0	0	525	403	0	432	0	0	
13	0	0	0	0	525	409	0	444	0	0	
14	0	0	0	0	527	419	0	456	0	0	
15	0	0	0	0	526	434	0	465	0	0	
0	0	0	0	0	524	451	0	470	0	0	
1	0	0	0	0	521	470	0	471	0	0	
2	0	0	0	0	519	487	0	467	0	0	
3	0	0	0	0	516	501	0	460	0	0	
4	0	0	0	0	512	511	0	450	0	0	
5	0	0	0	0	510	517	0	438	0	0	
6	0	0	0	0	508	516	0	424	0	0	
7	0	0	0	0	505	511	0	411	0	0	
8	0	0	0	0	505	500	0	399	0	0	
9	0	0	0	0	506	486	0	391	0	0	
10	0	0	0	0	508	469	0	387	0	0	
11	0	0	0	0	510	451	0	386	0	0	
12	0	0	0	0	513	435	0	390	0	0	
13	0	0	0	0	518	421	0	398	0	0	
14	0	0	0	0	521	411	0	410	0	0	
15	0	0	0	0	525	407	0	423	0	0	
0	0	0	0	0	527	408	0	438	0	0	
1	0	0	0	0	529	414	0	452	0	0	
2	0	0	0	0	530	425	0	464	0	0	
3	0	0	0	0	531	441	0	474	0	0	
4	0	0	0	0	529	459	0	480	0	0	
5	0	0	0	0	528	478	0	481	0	0	
6	0	0	0	0	525	496	0	478	0	0	
7	0	0	0	0	523	511	0	470	0	0	
8	0	0	0	0	520	522	0	460	0	0	
9	0	0	0	0	518	527	0	446	0	0	
10	0	0	0	0	516	527	0	432	0	0	
11	0	0	0	0	515	521	0	419	0	0	
12	0	0	0	0	515	509	0	407	0	0	
13	0	0	0	0	515	494	0	397	0	0	
14	0	0	0	0	516	475	0	391	0	0	
15	0	0	0	0	518	456	0	389	0	0	
0	0	0	0	0	519	438	0	391	0	0	
1	0	0	0	0	521	422	0	398	0	0	
2	0	0	0	0	523	410	0	408	0	0	
3	0	0	0	0	524	404	0	420	0	0	
4	0	0	0	0	526	403	0	432	0	0	
5	0	0	0	0	526	408	0	445	0	0	
6	0	0	0	0	526	419	0	456	0	0	
7	0	0	0	0	525	433	0	465	0	0	
8	0	0	0	0	524	451	0	471	0	0	
9	0	0	0	0	521	470	0	472	0	0	
10	0	0	0	0	519	487	0	469	0	0	
11	0	0	0	0	516	503	0	463	0	0	
12	0	0	0	0	513	513	0	452	0	0	
13	0	0	0	0	511	519	0	440	0	0	
14	0	0	0	0	510	518	0	427	0	0	
15	0	0	0	0	509	511	0	414	0	0	
0	0	0	0	0	508	500	0	402	0	0	
1	0	0	0	0	508	484	0	393	0	0	
2	0	0	0	0	510	467	0	387	0	0	
3	0	0	0	0	511	447	0	385	0	0	
4	0	0	0	0	514	430	0	387	0	0	
5	0	0	0	0	517	415	0	393	0	0	
6	0	0	0	0	519	403	0	403	0	0	
7	0	0	0	0	521	398	0	415	0	0	
8	0	0	0	0	523	398	0	428	0	0	
9	0	0	0	0	523	404	0	440	0	0	
10	0	0	0	0	524	415	0	452	0	0	
11	0	0	0	0	523	431	0	461	0	0	
12	0	0	0	0	521	448	0	466	0	0	
13	0	0	0	0	519	467	0	468	0	0	
14	0	0	0	0	515	484	0	464	0	0	
15	0	0	0	0	513	499	0	457	0	0	
0	0	0	0	0	510	510	0	447	0	0	
1	0	0	0	0	508	515	0	434	0	0	
2	0	0	0	0	505	515	0	421	0	0	
3	0	0	0	0	505	508	0	407	0	0	
4	0	0	0	0	505	497	0	396	0	0	
5	0	0	0	0	506	482	0	387	0	0	
6	0	0	0	0	508	464	0	382	0	0	
7	0	0	0	0	510	445	0	381	0	0	
8	0	0	0	0	512	428	0	384	0	0	
9	0	0	0	0	515	413	0	391	0	0	
10	0	0	0	0	518	403	0	401	0	0	
11	0	0	0	0	520	397	0	414	0	0	
12	0	0	0	0	522	398	0	428	0	0	
13	0	0	0	0	523	404	0	441	0	0	
14	0	0	0	0	524	415	0	453	0	0	
15	0	0	0	0	524	431	0	462	0	0	
0	0	0	0	0	522	449	0	468	0	0	
1	0	0	0	0	519	468	0	468	0	0	
2	0	0	0	0	518	486	0	465	0	0	
3	0	0	0	0	515	501	0	457	0	0	
4	0	0	0	0	512	511	0	447	0	0	
5	0	0	0	0	510	516	0	433	0	0	
6	0	0	0	0	508	515	0	419	0	0	
7	0	0	0	0	506	508	0	404	0	0	
8	0	0	0	0	506	496	0	392	0	0	
9	0	0	0	0	506	481	0	383	0	0	
10	0	0	0	0	507	463	0	378	0	0	
11	0	0	0	0	509	444	0	377	0	0	
12	0	0	0	0	511	426	0	380	0	0	
13	0	0	0	0	515	411	0	388	0	0	
14	0	0	0	0	518	401	0	400	0	0	
15	0	0	0	0	521	396	0	414	0	0	
0	0	0	0	0	524	397	0	429	0	0	
1	0	0	0	0	524	404	0	443	0	0	
2	0	0	0	0	526	416	0	455	0	0	
3	0	0	0	0	527	433	0	465	0	0	
4	0	0	0	0	526	452	0	472	0	0	
5	0	0	0	0	525	472	0	473	0	0	
6	0	0	0	0	522	490	0	469	0	0	
7	0	0	0	0	519	505	0	462	0	0	
8	0	0	0	0	516	516	0	451	0	0	
9	0	0	0	0	513	520	0	437	0	0	
10	0	0	0	0	510	519	0	423	0	0	
11	0	0	0	0	507	511	0	409	0	0	
12	0	0	0	0	505	497	0	396	0	0	
13	0	0	0	0	505	481	0	387	0	0	
14	0	0	0	0	505	462	0	381	0	0	
15	0	0	0	0	506	442	0	379	0	0	
0	0	0	0	0	508	424	0	384	0	0	
1	0	0	0	0	511	410	0	391	0	0	
2	0	0	0	0	515	400	0	403	0	0	
3	0	0	0	0	519	397	0	417	0	0	
4	0	0	0	0	521	399	0	433	0	0	
5	0	0	0	0	525	408	0	448	0	0	
6	0	0	0	0	527	422	0	462	0	0	
7	0	0	0	0	529	440	0	472	0	0	
8	0	0	0	0	529	460	0	478	0	0	
9	0	0	0	0	527	480	0	479	0	0	
10	0	0	0	0	525	497	0	475	0	0	
11	0	0	0	0	520	510	0	465	0	0	
12	0	0	0	0	514	516	0	450	0	0	
13	0	0	0	0	506	516	0	432	0	0	
14	0	0	0	0	496	508	0	411	0	0	
15	0	0	0	0	487	492	0	388	0	0	
0	0	0	0	0	476	470	0	366	0	0	
1	0	0	0	0	464	443	0	345	0	0	
2	0	0	0	0	452	412	0	328	0	0	
3	0	0	0	0	440	381	0	313	0	0	
4	0	0	0	0	430	350	0	303	0	0	
5	0	0	0	0	419	322	0	296	0	0	
6	0	0	0	0	407	299	0	293	0	0	
7	0	0	0	0	397	280	0	293	0	0	
8	0	0	0	0	386	267	0	294	0	0	
9	0	0	0	0	375	260	0	295	0	0	
10	0	0	0	0	364	258	0	295	0	0	
11	0	0	0	0	351	260	0	293	0	0	
12	0	0	0	0	338	266	0	288	0	0	
13	0	0	0	0	324	272	0	278	0	0	
14	0	0	0	0	309	278	0	264	0	0	
15	0	0	0	0	295	282	0	246	0	0	
0	0	0	0	0	281	283	0	225	0	0	
1	0	0	0	0	268	279	0	204	0	0	
2	0	0	0	0	258	271	0	182	0	0	
3	0	0	0	0	251	260	0	162	0	0	
4	0	0	0	0	247	245	0	146	0	0	
5	0	0	0	0	247	230	0	136	0	0	
6	0	0	0	0	252	215	0	133	0	0	
7	0	0	0	0	262	202	0	138	0	0	
8	0	0	0	0	278	194	0	152	0	0	
9	0	0	0	0	298	192	0	175	0	0	
10	0	0	0	0	323	198	0	204	0	0	
11	0	0	0	0	350	212	0	240	0	0	
12	0	0	0	0	379	235	0	280	0	0	
13	0	0	0	0	410	266	0	321	0	0	
14	0	0	0	0	440	302	0	363	0	0	
15	0	0	0	0	468	344	0	400	0	0	
0	0	0	0	0	495	388	0	433	0	0	
1	0	0	0	0	516	431	0	459	0	0	
2	0	0	0	0	534	471	0	476	0	0	
3	0	0	0	0	547	504	0	485	0	0	
4	0	0	0	0	556	530	0	486	0	0	
5	0	0	0	0	559	547	0	480	0	0	
6	0	0	0	0	560	553	0	469	0	0	
7	0	0	0	0	559	551	0	455	0	0	
8	0	0	0	0	555	540	0	441	0	0	
9	0	0	0	0	549	523	0	427	0	0	
10	0	0	0	0	544	500	0	416	0	0	
11	0	0	0	0	539	477	0	409	0	0	
12	0	0	0	0	535	454	0	406	0	0	
13	0	0	0	0	531	433	0	407	0	0	
14	0	0	0	0	528	418	0	413	0	0	
15	0	0	0	0	527	408	0	422	0	0	
0	0	0	0	0	525	404	0	433	0	0	
1	0	0	0	0	525	408	0	445	0	0	
2	0	0	0	0	525	419	0	456	0	0	
3	0	0	0	0	526	434	0	466	0	0	
4	0	0	0	0	526	453	0	473	0	0	
5	0	0	0	0	526	473	0	476	0	0	
6	0	0	0	0	526	493	0	476	0	0	
7	0	0	0	0	526	511	0	471	0	0	
8	0	0	0	0	526	524	0	464	0	0	
9	0	0	0	0	526	532	0	454	0	0	
10	0	0	0	0	527	533	0	443	0	0	
11	0	0	0	0	528	529	0	431	0	0	
12	0	0	0	0	529	519	0	420	0	0	
13	0	0	0	0	531	504	0	412	0	0	
14	0	0	0	0	532	486	0	408	0	0	
15	0	0	0	0	534	467	0	406	0	0	
0	0	0	0	0	536	449	0	409	0	0	
1	0	0	0	0	538	434	0	416	0	0	
2	0	0	0	0	540	423	0	426	0	0	
3	0	0	0	0	541	417	0	439	0	0	
4	0	0	0	0	543	417	0	451	0	0	
5	0	0	0	0	543	423	0	464	0	0	
6	0	0	0	0	544	435	0	476	0	0	
7	0	0	0	0	543	450	0	484	0	0	
8	0	0	0	0	543	468	0	490	0	0	
9	0	0	0	0	541	487	0	491	0	0	
10	0	0	0	0	539	505	0	488	0	0	
11	0	0	0	0	537	520	0	481	0	0	
12	0	0	0	0	534	530	0	470	0	0	
13	0	0	0	0	531	535	0	458	0	0	
14	0	0	0	0	529	534	0	445	0	0	
15	0	0	0	0	529	527	0	432	0	0	
0	0	0	0	0	528	516	0	421	0	0	
1	0	0	0	0	528	501	0	413	0	0	
2	0	0	0	0	529	483	0	408	0	0	
3	0	0	0	0	531	465	0	408	0	0	
4	0	0	0	0	534	448	0	412	0	0	
5	0	0	0	0	537	434	0	419	0	0	
6	0	0	0	0	540	425	0	430	0	0	
7	0	0	0	0	543	421	0	444	0	0	
8	0	0	0	0	544	423	0	458	0	0	
9	0	0	0	0	547	430	0	471	0	0	
10	0	0	0	0	548	443	0	483	0	0	
11	0	0	0	0	549	459	0	492	0	0	
12	0	0	0	0	548	477	0	497	0	0	
13	0	0	0	0	546	496	0	497	0	0	
14	0	0	0	0	543	513	0	492	0	0	
15	0	0	0	0	540	527	0	484	0	0	
0	0	0	0	0	536	536	0	472	0	0	
1	0	0	0	0	533	540	0	459	0	0	
2	0	0	0	0	529	537	0	444	0	0	
3	0	0	0	0	527	528	0	430	0	0	
4	0	0	0	0	526	515	0	417	0	0	
5	0	0	0	0	524	498	0	408	0	0	
6	0	0	0	0	525	479	0	402	0	0	
7	0	0	0	0	526	460	0	401	0	0	
8	0	0	0	0	528	442	0	404	0	0	
9	0	0	0	0	531	428	0	412	0	0	
10	0	0	0	0	534	418	0	423	0	0	
11	0	0	0	0	537	415	0	436	0	0	
12	0	0	0	0	540	417	0	451	0	0	
13	0	0	0	0	542	424	0	464	0	0	
14	0	0	0	0	543	438	0	476	0	0	
15	0	0	0	0	543	454	0	485	0	0	
0	0	0	0	0	542	473	0	491	0	0	
1	0	0	0	0	540	491	0	492	0	0	
2	0	0	0	0	537	508	0	487	0	0	
3	0	0	0	0	534	523	0	480	0	0	
4	0	0	0	0	530	532	0	469	0	0	
5	0	0	0	0	527	536	0	456	0	0	
6	0	0	0	0	525	534	0	442	0	0	
7	0	0	0	0	523	526	0	428	0	0	
8	0	0	0	0	522	513	0	417	0	0	
9	0	0	0	0	521	496	0	408	0	0	
10	0	0	0	0	522	477	0	403	0	0	
11	0	0	0	0	523	458	0	402	0	0	
12	0	0	0	0	525	440	0	406	0	0	
13	0	0	0	0	529	425	0	414	0	0	
14	0	0	0	0	531	415	0	425	0	0	
15	0	0	0	0	535	411	0	439	0	0	
0	0	0	0	0	537	412	0	453	0	0	
1	0	0	0	0	538	420	0	466	0	0	
2	0	0	0	0	540	433	0	478	0	0	
3	0	0	0	0	540	449	0	487	0	0	
4	0	0	0	0	539	469	0	493	0	0	
5	0	0	0	0	536	487	0	493	0	0	
6	0	0	0	0	535	505	0	489	0	0	
7	0	0	0	0	532	519	0	481	0	0	
8	0	0	0	0	529	529	0	470	0	0	
9	0	0	0	0	526	533	0	455	0	0	
10	0	0	0	0	524	531	0	441	0	0	
11	0	0	0	0	522	522	0	427	0	0	
12	0	0	0	0	522	508	0	414	0	0	
13	0	0	0	0	522	491	0	404	0	0	
14	0	0	0	0	522	471	0	398	0	0	
15	0	0	0	0	523	451	0	396	0	0	
0	0	0	0	0	524	432	0	399	0	0	
1	0	0	0	0	526	417	0	407	0	0	
2	0	0	0	0	528	407	0	417	0	0	
3	0	0	0	0	529	403	0	430	0	0	
4	0	0	0	0	529	404	0	445	0	0	
5	0	0	0	0	530	412	0	459	0	0	
6	0	0	0	0	531	425	0	471	0	0	
7	0	0	0	0	530	442	0	480	0	0	
8	0	0	0	0	529	461	0	486	0	0	
9	0	0	0	0	527	480	0	486	0	0	
10	0	0	0	0	525	499	0	482	0	0	
11	0	0	0	0	523	514	0	473	0	0	
12	0	0	0	0	521	524	0	462	0	0	
13	0	0	0	0	519	528	0	448	0	0	
14	0	0	0	0	519	527	0	433	0	0	
15	0	0	0	0	519	519	0	420	0	0	
0	0	0	0	0	519	507	0	408	0	0	
1	0	0	0	0	519	490	0	400	0	0	
2	0	0	0	0	521	471	0	396	0	0	
3	0	0	0	0	523	452	0	396	0	0	
4	0	0	0	0	525	434	0	401	0	0	
5	0	0	0	0	529	420	0	411	0	0	
6	0	0	0	0	531	411	0	423	0	0	
7	0	0	0	0	534	407	0	438	0	0	
8	0	0	0	0	536	409	0	454	0	0	
9	0	0	0	0	536	417	0	468	0	0	
10	0	0	0	0	537	431	0	481	0	0	
11	0	0	0	0	537	447	0	491	0	0	
12	0	0	0	0	536	467	0	496	0	0	
13	0	0	0	0	534	487	0	498	0	0	
14	0	0	0	0	533	505	0	495	0	0	
15	0	0	0	0	530	519	0	487	0	0	
0	0	0	0	0	527	529	0	475	0	0	
1	0	0	0	0	525	533	0	461	0	0	
2	0	0	0	0	523	531	0	446	0	0	
3	0	0	0	0	520	522	0	431	0	0	
4	0	0	0	0	519	508	0	418	0	0	
5	0	0	0	0	518	491	0	408	0	0	
6	0	0	0	0	518	471	0	401	0	0	
7	0	0	0	0	519	451	0	399	0	0	
8	0	0	0	0	520	433	0	401	0	0	
9	0	0	0	0	522	418	0	408	0	0	
10	0	0	0	0	524	408	0	419	0	0	
11	0	0	0	0	527	404	0	432	0	0	
12	0	0	0	0	529	407	0	447	0	0	
13	0	0	0	0	531	415	0	460	0	0	
14	0	0	0	0	533	428	0	472	0	0	
15	0	0	0	0	534	445	0	482	0	0	
0	0	0	0	0	534	464	0	487	0	0	
1	0	0	0	0	533	483	0	489	0	0	
2	0	0	0	0	531	501	0	485	0	0	
3	0	0	0	0	529	515	0	478	0	0	
4	0	0	0	0	526	525	0	467	0	0	
5	0	0	0	0	524	529	0	454	0	0	
6	0	0	0	0	522	527	0	440	0	0	
7	0	0	0	0	521	519	0	426	0	0	
8	0	0	0	0	520	507	0	414	0	0	
9	0	0	0	0	520	491	0	405	0	0	
10	0	0	0	0	522	473	0	400	0	0	
11	0	0	0	0	524	455	0	400	0	0	
12	0	0	0	0	527	438	0	404	0	0	
13	0	0	0	0	531	425	0	412	0	0	
14	0	0	0	0	534	416	0	424	0	0	
15	0	0	0	0	538	413	0	439	0	0	
0	0	0	0	0	540	415	0	454	0	0	
1	0	0	0	0	542	424	0	468	0	0	
2	0	0	0	0	544	438	0	480	0	0	
3	0	0	0	0	543	455	0	490	0	0	
4	0	0	0	0	542	473	0	495	0	0	
5	0	0	0	0	540	492	0	496	0	0	
6	0	0	0	0	535	509	0	491	0	0	
7	0	0	0	0	531	523	0	482	0	0	
8	0	0	0	0	527	531	0	469	0	0	
9	0	0	0	0	523	535	0	455	0	0	
10	0	0	0	0	519	532	0	439	0	0	
11	0	0	0	0	517	524	0	424	0	0	
12	0	0	0	0	516	511	0	411	0	0	
13	0	0	0	0	517	494	0	401	0	0	
14	0	0	0	0	518	476	0	396	0	0	
15	0	0	0	0	520	457	0	395	0	0	
0	0	0	0	0	524	440	0	398	0	0	
1	0	0	0	0	528	426	0	406	0	0	
2	0	0	0	0	532	417	0	418	0	0	
3	0	0	0	0	535	414	0	433	0	0	
4	0	0	0	0	538	417	0	448	0	0	
5	0	0	0	0	541	425	0	462	0	0	
6	0	0	0	0	543	438	0	475	0	0	
7	0	0	0	0	543	455	0	485	0	0	
8	0	0	0	0	542	474	0	491	0	0	
9	0	0	0	0	540	493	0	493	0	0	
10	0	0	0	0	537	511	0	488	0	0	
11	0	0	0	0	535	525	0	481	0	0	
12	0	0	0	0	531	535	0	470	0	0	
13	0	0	0	0	528	538	0	456	0	0	
14	0	0	0	0	526	536	0	443	0	0	
15	0	0	0	0	524	528	0	429	0	0	
0	0	0	0	0	524	516	0	417	0	0	
1	0	0	0	0	523	499	0	408	0	0	
2	0	0	0	0	525	481	0	404	0	0	
3	0	0	0	0	527	463	0	404	0	0	
4	0	0	0	0	531	447	0	408	0	0	
5	0	0	0	0	535	433	0	418	0	0	
6	0	0	0	0	539	425	0	430	0	0	
7	0	0	0	0	542	422	0	444	0	0	
8	0	0	0	0	545	425	0	459	0	0	
9	0	0	0	0	547	433	0	473	0	0	
10	0	0	0	0	550	447	0	486	0	0	
11	0	0	0	0	549	463	0	495	0	0	
12	0	0	0	0	548	481	0	500	0	0	
13	0	0	0	0	545	499	0	499	0	0	
14	0	0	0	0	540	514	0	494	0	0	
15	0	0	0	0	537	527	0	485	0	0	
0	0	0	0	0	532	535	0	472	0	0	
1	0	0	0	0	528	536	0	457	0	0	
2	0	0	0	0	524	532	0	441	0	0	
3	0	0	0	0	523	524	0	427	0	0	
4	0	0	0	0	523	511	0	414	0	0	
5	0	0	0	0	523	494	0	405	0	0	
6	0	0	0	0	524	477	0	399	0	0	
7	0	0	0	0	527	459	0	399	0	0	
8	0	0	0	0	531	443	0	403	0	0	
9	0	0	0	0	535	431	0	412	0	0	
10	0	0	0	0	539	423	0	423	0	0	
11	0	0	0	0	543	421	0	437	0	0	
12	0	0	0	0	545	424	0	452	0	0	
13	0	0	0	0	545	432	0	465	0	0	
14	0	0	0	0	546	446	0	476	0	0	
15	0	0	0	0	545	462	0	485	0	0	
0	0	0	0	0	543	480	0	489	0	0	
1	0	0	0	0	539	497	0	489	0	0	
2	0	0	0	0	535	514	0	484	0	0	
3	0	0	0	0	531	527	0	476	0	0	
4	0	0	0	0	528	535	0	464	0	0	
5	0	0	0	0	526	539	0	451	0	0	
6	0	0	0	0	525	536	0	437	0	0	
7	0	0	0	0	525	528	0	424	0	0	
8	0	0	0	0	527	516	0	414	0	0	
9	0	0	0	0	529	500	0	406	0	0	
10	0	0	0	0	531	482	0	402	0	0	
11	0	0	0	0	535	464	0	403	0	0	
12	0	0	0	0	538	447	0	407	0	0	
13	0	0	0	0	542	434	0	415	0	0	
14	0	0	0	0	545	425	0	428	0	0	
15	0	0	0	0	547	422	0	441	0	0	
0	0	0	0	0	548	423	0	455	0	0	
1	0	0	0	0	549	432	0	468	0	0	
2	0	0	0	0	548	444	0	480	0	0	
3	0	0	0	0	547	460	0	487	0	0	
4	0	0	0	0	545	478	0	492	0	0	
5	0	0	0	0	541	496	0	491	0	0	
6	0	0	0	0	537	514	0	487	0	0	
7	0	0	0	0	534	527	0	478	0	0	
8	0	0	0	0	531	536	0	466	0	0	
9	0	0	0	0	527	539	0	451	0	0	
10	0	0	0	0	526	536	0	438	0	0	
11	0	0	0	0	524	528	0	423	0	0	
12	0	0	0	0	525	515	0	412	0	0	
13	0	0	0	0	526	499	0	404	0	0	
14	0	0	0	0	529	482	0	401	0	0	
15	0	0	0	0	532	464	0	402	0	0	
0	0	0	0	0	537	449	0	407	0	0	
1	0	0	0	0	541	436	0	416	0	0	
2	0	0	0	0	545	429	0	429	0	0	
3	0	0	0	0	550	426	0	443	0	0	
4	0	0	0	0	551	429	0	458	0	0	
5	0	0	0	0	554	438	0	472	0	0	
6	0	0	0	0	555	451	0	483	0	0	
7	0	0	0	0	553	466	0	492	0	0	
8	0	0	0	0	551	484	0	497	0	0	
9	0	0	0	0	547	501	0	496	0	0	
10	0	0	0	0	543	517	0	491	0	0	
11	0	0	0	0	539	530	0	482	0	0	
12	0	0	0	0	534	537	0	470	0	0	
13	0	0	0	0	529	540	0	456	0	0	
14	0	0	0	0	526	536	0	441	0	0	
15	0	0	0	0	523	527	0	427	0	0	
0	0	0	0	0	522	514	0	415	0	0	
1	0	0	0	0	522	497	0	406	0	0	
2	0	0	0	0	524	480	0	401	0	0	
3	0	0	0	0	526	462	0	401	0	0	
4	0	0	0	0	530	446	0	405	0	0	
5	0	0	0	0	534	433	0	413	0	0	
6	0	0	0	0	537	424	0	424	0	0	
7	0	0	0	0	541	422	0	438	0	0	
8	0	0	0	0	543	424	0	451	0	0	
9	0	0	0	0	544	432	0	464	0	0	
10	0	0	0	0	545	445	0	475	0	0	
11	0	0	0	0	544	460	0	483	0	0	
12	0	0	0	0	543	478	0	487	0	0	
13	0	0	0	0	540	496	0	486	0	0	
14	0	0	0	0	535	511	0	481	0	0	
15	0	0	0	0	532	524	0	472	0	0	
0	0	0	0	0	528	531	0	460	0	0	
1	0	0	0	0	525	533	0	446	0	0	
2	0	0	0	0	522	529	0	431	0	0	
3	0	0	0	0	520	519	0	417	0	0	
4	0	0	0	0	519	506	0	406	0	0	
5	0	0	0	0	519	489	0	397	0	0	
6	0	0	0	0	520	471	0	392	0	0	
7	0	0	0	0	523	453	0	392	0	0	
8	0	0	0	0	526	437	0	398	0	0	
9	0	0	0	0	531	425	0	407	0	0	
10	0	0	0	0	535	417	0	419	0	0	
11	0	0	0	0	538	415	0	433	0	0	
12	0	0	0	0	540	417	0	448	0	0	
13	0	0	0	0	543	427	0	461	0	0	
14	0	0	0	0	543	440	0	472	0	0	
15	0	0	0	0	543	456	0	481	0	0	
0	0	0	0	0	541	474	0	485	0	0	
1	0	0	0	0	538	492	0	484	0	0	
2	0	0	0	0	535	507	0	479	0	0	
3	0	0	0	0	531	520	0	470	0	0	
4	0	0	0	0	527	528	0	457	0	0	
5	0	0	0	0	523	530	0	443	0	0	
6	0	0	0	0	520	526	0	428	0	0	
7	0	0	0	0	519	517	0	414	0	0	
8	0	0	0	0	518	504	0	402	0	0	
9	0	0	0	0	518	487	0	393	0	0	
10	0	0	0	0	519	468	0	388	0	0	
11	0	0	0	0	521	450	0	388	0	0	
12	0	0	0	0	524	434	0	392	0	0	
13	0	0	0	0	527	421	0	401	0	0	
14	0	0	0	0	530	414	0	412	0	0	
15	0	0	0	0	533	411	0	426	0	0	
0	0	0	0	0	536	415	0	441	0	0	
1	0	0	0	0	538	424	0	454	0	0	
2	0	0	0	0	539	438	0	466	0	0	
3	0	0	0	0	539	454	0	474	0	0	
4	0	0	0	0	537	473	0	479	0	0	
5	0	0	0	0	535	491	0	479	0	0	
6	0	0	0	0	532	508	0	473	0	0	
7	0	0	0	0	529	520	0	465	0	0	
8	0	0	0	0	526	528	0	454	0	0	
9	0	0	0	0	523	531	0	440	0	0	
10	0	0	0	0	521	527	0	427	0	0	
11	0	0	0	0	520	518	0	414	0	0	
12	0	0	0	0	520	504	0	403	0	0	
13	0	0	0	0	521	487	0	396	0	0	
14	0	0	0	0	523	469	0	392	0	0	
15	0	0	0	0	525	450	0	393	0	0	
0	0	0	0	0	528	434	0	399	0	0	
1	0	0	0	0	531	421	0	408	0	0	
2	0	0	0	0	534	413	0	420	0	0	
3	0	0	0	0	536	410	0	434	0	0	
4	0	0	0	0	537	413	0	448	0	0	
5	0	0	0	0	539	422	0	460	0	0	
6	0	0	0	0	539	435	0	471	0	0	
7	0	0	0	0	538	452	0	478	0	0	
8	0	0	0	0	536	470	0	481	0	0	
9	0	0	0	0	532	488	0	479	0	0	
10	0	0	0	0	529	504	0	472	0	0	
11	0	0	0	0	526	516	0	463	0	0	
12	0	0	0	0	522	524	0	450	0	0	
13	0	0	0	0	519	526	0	435	0	0	
14	0	0	0	0	517	523	0	421	0	0	
15	0	0	0	0	515	513	0	408	0	0	
0	0	0	0	0	515	500	0	397	0	0	
1	0	0	0	0	516	483	0	389	0	0	
2	0	0	0	0	518	465	0	385	0	0	
3	0	0	0	0	521	447	0	386	0	0	
4	0	0	0	0	524	431	0	391	0	0	
5	0	0	0	0	528	418	0	400	0	0	
6	0	0	0	0	532	410	0	412	0	0	
7	0	0	0	0	535	408	0	427	0	0	
8	0	0	0	0	537	411	0	441	0	0	
9	0	0	0	0	539	421	0	455	0	0	
10	0	0	0	0	540	435	0	467	0	0	
11	0	0	0	0	540	453	0	476	0	0	
12	0	0	0	0	539	472	0	480	0	0	
13	0	0	0	0	539	492	0	481	0	0	
14	0	0	0	0	536	510	0	477	0	0	
15	0	0	0	0	535	524	0	470	0	0	
0	0	0	0	0	533	534	0	460	0	0	
1	0	0	0	0	531	537	0	447	0	0	
2	0	0	0	0	530	534	0	434	0	0	
3	0	0	0	0	530	526	0	422	0	0	
4	0	0	0	0	529	512	0	412	0	0	
5	0	0	0	0	530	495	0	404	0	0	
6	0	0	0	0	532	476	0	400	0	0	
7	0	0	0	0	534	457	0	400	0	0	
8	0	0	0	0	537	441	0	405	0	0	
9	0	0	0	0	540	428	0	413	0	0	
10	0	0	0	0	543	419	0	425	0	0	
11	0	0	0	0	545	415	0	438	0	0	
12	0	0	0	0	546	418	0	450	0	0	
13	0	0	0	0	546	427	0	464	0	0	
14	0	0	0	0	546	440	0	474	0	0	
15	0	0	0	0	545	457	0	483	0	0	
0	0	0	0	0	543	476	0	487	0	0	
1	0	0	0	0	542	495	0	487	0	0	
2	0	0	0	0	539	512	0	483	0	0	
3	0	0	0	0	537	527	0	475	0	0	
4	0	0	0	0	536	536	0	464	0	0	
5	0	0	0	0	535	540	0	452	0	0	
6	0	0	0	0	534	538	0	440	0	0	
7	0	0	0	0	533	530	0	428	0	0	
8	0	0	0	0	535	518	0	417	0	0	
9	0	0	0	0	536	502	0	410	0	0	
10	0	0	0	0	538	484	0	406	0	0	
11	0	0	0	0	540	465	0	407	0	0	
12	0	0	0	0	544	449	0	411	0	0	
13	0	0	0	0	547	436	0	419	0	0	
14	0	0	0	0	550	428	0	431	0	0	
15	0	0	0	0	552	425	0	444	0	0	
0	0	0	0	0	553	428	0	457	0	0	
1	0	0	0	0	554	436	0	469	0	0	
2	0	0	0	0	555	449	0	479	0	0	
3	0	0	0	0	553	465	0	486	0	0	
4	0	0	0	0	551	482	0	489	0	0	
5	0	0	0	0	548	499	0	488	0	0	
6	0	0	0	0	544	515	0	483	0	0	
7	0	0	0	0	541	527	0	473	0	0	
8	0	0	0	0	538	535	0	461	0	0	
9	0	0	0	0	535	537	0	447	0	0	
10	0	0	0	0	532	534	0	433	0	0	
11	0	0	0	0	530	525	0	420	0	0	
12	0	0	0	0	530	511	0	410	0	0	
13	0	0	0	0	531	495	0	402	0	0	
14	0	0	0	0	532	477	0	399	0	0	
15	0	0	0	0	534	459	0	400	0	0	
0	0	0	0	0	536	443	0	405	0	0	
1	0	0	0	0	540	431	0	414	0	0	
2	0	0	0	0	543	423	0	426	0	0	
3	0	0	0	0	546	422	0	440	0	0	
4	0	0	0	0	548	426	0	455	0	0	
5	0	0	0	0	549	435	0	468	0	0	
6	0	0	0	0	551	450	0	480	0	0	
7	0	0	0	0	551	467	0	488	0	0	
8	0	0	0	0	550	487	0	493	0	0	
9	0	0	0	0	548	505	0	493	0	0	
10	0	0	0	0	546	523	0	487	0	0	
11	0	0	0	0	544	536	0	479	0	0	
12	0	0	0	0	542	544	0	467	0	0	
13	0	0	0	0	540	546	0	452	0	0	
14	0	0	0	0	539	542	0	438	0	0	
15	0	0	0	0	537	532	0	424	0	0	
0	0	0	0	0	537	518	0	412	0	0	
1	0	0	0	0	537	500	0	404	0	0	
2	0	0	0	0	537	480	0	399	0	0	
3	0	0	0	0	538	461	0	400	0	0	
4	0	0	0	0	540	444	0	405	0	0	
5	0	0	0	0	543	431	0	414	0	0	
6	0	0	0	0	544	422	0	426	0	0	
7	0	0	0	0	545	420	0	440	0	0	
8	0	0	0	0	547	423	0	455	0	0	
9	0	0	0	0	547	432	0	467	0	0	
10	0	0	0	0	548	447	0	479	0	0	
11	0	0	0	0	548	464	0	487	0	0	
12	0	0	0	0	547	483	0	491	0	0	
13	0	0	0	0	546	502	0	491	0	0	
14	0	0	0	0	544	519	0	486	0	0	
15	0	0	0	0	542	533	0	478	0	0	
0	0	0	0	0	540	542	0	467	0	0	
1	0	0	0	0	539	545	0	454	0	0	
2	0	0	0	0	538	542	0	441	0	0	
3	0	0	0	0	537	532	0	429	0	0	
4	0	0	0	0	539	519	0	419	0	0	
5	0	0	0	0	540	503	0	412	0	0	
6	0	0	0	0	543	485	0	409	0	0	
7	0	0	0	0	547	467	0	411	0	0	
8	0	0	0	0	551	451	0	417	0	0	
9	0	0	0	0	555	440	0	427	0	0	
10	0	0	0	0	558	432	0	440	0	0	
11	0	0	0	0	562	431	0	454	0	0	
12	0	0	0	0	563	435	0	467	0	0	
13	0	0	0	0	564	444	0	480	0	0	
14	0	0	0	0	564	458	0	491	0	0	
15	0	0	0	0	562	475	0	498	0	0	
0	0	0	0	0	559	493	0	500	0	0	
1	0	0	0	0	555	511	0	499	0	0	
2	0	0	0	0	550	526	0	492	0	0	
3	0	0	0	0	546	538	0	482	0	0	
4	0	0	0	0	542	545	0	470	0	0	
5	0	0	0	0	539	547	0	455	0	0	
6	0	0	0	0	536	542	0	441	0	0	
7	0	0	0	0	536	532	0	427	0	0	
8	0	0	0	0	536	519	0	417	0	0	
9	0	0	0	0	538	502	0	409	0	0	
10	0	0	0	0	540	483	0	406	0	0	
11	0	0	0	0	543	465	0	407	0	0	
12	0	0	0	0	547	450	0	413	0	0	
13	0	0	0	0	552	438	0	423	0	0	
14	0	0	0	0	556	432	0	435	0	0	
15	0	0	0	0	559	431	0	450	0	0	
0	0	0	0	0	561	436	0	464	0	0	
1	0	0	0	0	562	446	0	479	0	0	
2	0	0	0	0	563	462	0	490	0	0	
3	0	0	0	0	563	480	0	499	0	0	
4	0	0	0	0	561	500	0	503	0	0	
5	0	0	0	0	558	519	0	502	0	0	
6	0	0	0	0	554	536	0	497	0	0	
7	0	0	0	0	551	548	0	487	0	0	
8	0	0	0	0	547	556	0	475	0	0	
9	0	0	0	0	544	557	0	460	0	0	
10	0	0	0	0	541	551	0	446	0	0	
11	0	0	0	0	539	541	0	432	0	0	
12	0	0	0	0	539	525	0	420	0	0	
13	0	0	0	0	538	506	0	411	0	0	
14	0	0	0	0	539	485	0	407	0	0	
15	0	0	0	0	540	465	0	406	0	0	
0	0	0	0	0	541	446	0	410	0	0	
1	0	0	0	0	543	432	0	419	0	0	
2	0	0	0	0	545	423	0	430	0	0	
3	0	0	0	0	547	420	0	443	0	0	
4	0	0	0	0	548	423	0	457	0	0	
5	0	0	0	0	548	433	0	470	0	0	
6	0	0	0	0	550	448	0	481	0	0	
7	0	0	0	0	550	466	0	489	0	0	
8	0	0	0	0	551	487	0	494	0	0	
9	0	0	0	0	550	507	0	493	0	0	
10	0	0	0	0	549	525	0	488	0	0	
11	0	0	0	0	548	540	0	480	0	0	
12	0	0	0	0	547	548	0	468	0	0	
13	0	0	0	0	545	551	0	454	0	0	
14	0	0	0	0	543	547	0	440	0	0	
15	0	0	0	0	542	537	0	426	0	0	
0	0	0	0	0	540	522	0	415	0	0	
1	0	0	0	0	540	504	0	406	0	0	
2	0	0	0	0	539	484	0	402	0	0	
3	0	0	0	0	539	464	0	402	0	0	
4	0	0	0	0	539	447	0	407	0	0	
5	0	0	0	0	542	433	0	416	0	0	
6	0	0	0	0	543	425	0	428	0	0	
7	0	0	0	0	546	423	0	443	0	0	
8	0	0	0	0	547	428	0	458	0	0	
9	0	0	0	0	549	438	0	472	0	0	
10	0	0	0	0	551	453	0	483	0	0	
11	0	0	0	0	553	472	0	492	0	0	
12	0	0	0	0	554	492	0	497	0	0	
13	0	0	0	0	554	511	0	497	0	0	
14	0	0	0	0	552	528	0	492	0	0	
15	0	0	0	0	551	542	0	483	0	0	
0	0	0	0	0	549	550	0	471	0	0	
1	0	0	0	0	547	552	0	456	0	0	
2	0	0	0	0	545	548	0	442	0	0	
3	0	0	0	0	543	538	0	428	0	0	
4	0	0	0	0	543	523	0	416	0	0	
5	0	0	0	0	542	506	0	408	0	0	
6	0	0	0	0	542	486	0	404	0	0	
7	0	0	0	0	543	467	0	405	0	0	
8	0	0	0	0	545	451	0	410	0	0	
9	0	0	0	0	547	438	0	420	0	0	
10	0	0	0	0	550	431	0	432	0	0	
11	0	0	0	0	552	429	0	447	0	0	
12	0	0	0	0	554	432	0	462	0	0	
13	0	0	0	0	556	443	0	476	0	0	
14	0	0	0	0	558	458	0	487	0	0	
15	0	0	0	0	558	476	0	496	0	0	
0	0	0	0	0	559	496	0	501	0	0	
1	0	0	0	0	559	515	0	501	0	0	
2	0	0	0	0	557	533	0	496	0	0	
3	0	0	0	0	556	547	0	488	0	0	
4	0	0	0	0	555	556	0	476	0	0	
5	0	0	0	0	553	558	0	463	0	0	
6	0	0	0	0	552	555	0	449	0	0	
7	0	0	0	0	551	545	0	436	0	0	
8	0	0	0	0	551	532	0	425	0	0	
9	0	0	0	0	552	515	0	417	0	0	
10	0	0	0	0	553	496	0	414	0	0	
11	0	0	0	0	556	478	0	415	0	0	
12	0	0	0	0	558	462	0	420	0	0	
13	0	0	0	0	560	449	0	430	0	0	
14	0	0	0	0	562	441	0	443	0	0	
15	0	0	0	0	564	438	0	457	0	0	
0	0	0	0	0	566	442	0	471	0	0	
1	0	0	0	0	566	451	0	485	0	0	
2	0	0	0	0	567	465	0	496	0	0	
3	0	0	0	0	566	482	0	504	0	0	
4	0	0	0	0	565	500	0	508	0	0	
5	0	0	0	0	563	519	0	507	0	0	
6	0	0	0	0	559	535	0	500	0	0	
7	0	0	0	0	557	547	0	491	0	0	
8	0	0	0	0	554	555	0	478	0	0	
9	0	0	0	0	552	557	0	463	0	0	
10	0	0	0	0	549	552	0	448	0	0	
11	0	0	0	0	548	543	0	435	0	0	
12	0	0	0	0	549	528	0	423	0	0	
13	0	0	0	0	549	511	0	415	0	0	
14	0	0	0	0	550	492	0	410	0	0	
15	0	0	0	0	551	473	0	410	0	0	
0	0	0	0	0	554	456	0	415	0	0	
1	0	0	0	0	557	444	0	423	0	0	
2	0	0	0	0	560	437	0	435	0	0	
3	0	0	0	0	562	435	0	449	0	0	
4	0	0	0	0	564	440	0	463	0	0	
5	0	0	0	0	565	451	0	476	0	0	
6	0	0	0	0	567	466	0	487	0	0	
7	0	0	0	0	567	484	0	495	0	0	
8	0	0	0	0	567	503	0	499	0	0	
9	0	0	0	0	565	523	0	499	0	0	
10	0	0	0	0	563	539	0	494	0	0	
11	0	0	0	0	561	552	0	485	0	0	
12	0	0	0	0	559	560	0	473	0	0	
13	0	0	0	0	557	562	0	460	0	0	
14	0	0	0	0	555	558	0	447	0	0	
15	0	0	0	0	554	548	0	435	0	0	
0	0	0	0	0	555	535	0	426	0	0	
1	0	0	0	0	556	518	0	419	0	0	
2	0	0	0	0	558	499	0	417	0	0	
3	0	0	0	0	560	481	0	419	0	0	
4	0	0	0	0	562	466	0	425	0	0	
5	0	0	0	0	565	454	0	434	0	0	
6	0	0	0	0	567	446	0	446	0	0	
7	0	0	0	0	568	443	0	458	0	0	
8	0	0	0	0	566	444	0	470	0	0	
9	0	0	0	0	564	451	0	479	0	0	
10	0	0	0	0	560	461	0	485	0	0	
11	0	0	0	0	554	473	0	487	0	0	
12	0	0	0	0	545	485	0	483	0	0	
13	0	0	0	0	535	496	0	472	0	0	
14	0	0	0	0	522	503	0	458	0	0	
15	0	0	0	0	509	505	0	438	0	0	
0	0	0	0	0	494	502	0	414	0	0	
1	0	0	0	0	479	491	0	388	0	0	
2	0	0	0	0	465	475	0	362	0	0	
3	0	0	0	0	450	452	0	336	0	0	
4	0	0	0	0	437	425	0	313	0	0	
5	0	0	0	0	424	394	0	292	0	0	
6	0	0	0	0	412	362	0	276	0	0	
7	0	0	0	0	401	330	0	264	0	0	
8	0	0	0	0	391	300	0	256	0	0	
9	0	0	0	0	382	275	0	253	0	0	
10	0	0	0	0	373	255	0	253	0	0	
11	0	0	0	0	365	240	0	255	0	0	
12	0	0	0	0	356	231	0	259	0	0	
13	0	0	0	0	347	229	0	261	0	0	
14	0	0	0	0	338	233	0	263	0	0	
15	0	0	0	0	329	242	0	263	0	0	
0	0	0	0	0	322	255	0	262	0	0	
1	0	0	0	0	315	269	0	257	0	0	
2	0	0	0	0	309	284	0	251	0	0	
3	0	0	0	0	307	299	0	243	0	0	
4	0	0	0	0	309	312	0	236	0	0	
5	0	0	0	0	315	323	0	231	0	0	
6	0	0	0	0	324	332	0	230	0	0	
7	0	0	0	0	340	338	0	232	0	0	
8	0	0	0	0	359	342	0	239	0	0	
9	0	0	0	0	383	345	0	253	0	0	
10	0	0	0	0	410	349	0	272	0	0	
11	0	0	0	0	439	353	0	297	0	0	
12	0	0	0	0	470	360	0	327	0	0	
13	0	0	0	0	500	370	0	361	0	0	
14	0	0	0	0	528	384	0	397	0	0	
15	0	0	0	0	553	403	0	433	0	0	
0	0	0	0	0	574	425	0	466	0	0	
1	0	0	0	0	591	450	0	496	0	0	
2	0	0	0	0	603	478	0	520	0	0	
3	0	0	0	0	610	506	0	537	0	0	
4	0	0	0	0	613	533	0	547	0	0	
5	0	0	0	0	611	557	0	548	0	0	
6	0	0	0	0	607	576	0	542	0	0	
7	0	0	0	0	600	590	0	531	0	0	
8	0	0	0	0	592	595	0	514	0	0	
9	0	0	0	0	583	594	0	495	0	0	
10	0	0	0	0	575	586	0	475	0	0	
11	0	0	0	0	568	572	0	455	0	0	
12	0	0	0	0	563	553	0	439	0	0	
13	0	0	0	0	559	531	0	427	0	0	
14	0	0	0	0	558	509	0	420	0	0	
15	0	0	0	0	558	487	0	419	0	0	
0	0	0	0	0	560	468	0	423	0	0	
1	0	0	0	0	564	455	0	432	0	0	
2	0	0	0	0	568	447	0	445	0	0	
3	0	0	0	0	572	446	0	461	0	0	
4	0	0	0	0	577	451	0	477	0	0	
5	0	0	0	0	582	463	0	492	0	0	
6	0	0	0	0	585	479	0	506	0	0	
7	0	0	0	0	587	498	0	516	0	0	
8	0	0	0	0	588	519	0	521	0	0	
9	0	0	0	0	588	539	0	522	0	0	
10	0	0	0	0	587	557	0	518	0	0	
11	0	0	0	0	585	571	0	509	0	0	
12	0	0	0	0	582	579	0	497	0	0	
13	0	0	0	0	579	581	0	483	0	0	
14	0	0	0	0	576	576	0	468	0	0	
15	0	0	0	0	574	566	0	454	0	0	
0	0	0	0	0	572	551	0	442	0	0	
1	0	0	0	0	571	532	0	433	0	0	
2	0	0	0	0	570	512	0	428	0	0	
3	0	0	0	0	570	492	0	428	0	0	
4	0	0	0	0	572	476	0	432	0	0	
5	0	0	0	0	574	463	0	441	0	0	
6	0	0	0	0	576	455	0	453	0	0	
7	0	0	0	0	578	454	0	467	0	0	
8	0	0	0	0	581	459	0	483	0	0	
9	0	0	0	0	583	470	0	497	0	0	
10	0	0	0	0	585	486	0	509	0	0	
11	0	0	0	0	587	505	0	518	0	0	
12	0	0	0	0	587	525	0	523	0	0	
13	0	0	0	0	585	545	0	524	0	0	
14	0	0	0	0	584	563	0	519	0	0	
15	0	0	0	0	583	576	0	511	0	0	
0	0	0	0	0	581	584	0	499	0	0	
1	0	0	0	0	579	586	0	486	0	0	
2	0	0	0	0	577	581	0	471	0	0	
3	0	0	0	0	575	570	0	457	0	0	
4	0	0	0	0	575	555	0	446	0	0	
5	0	0	0	0	574	536	0	438	0	0	
6	0	0	0	0	574	516	0	433	0	0	
7	0	0	0	0	575	496	0	433	0	0	
8	0	0	0	0	576	478	0	437	0	0	
9	0	0	0	0	578	464	0	445	0	0	
10	0	0	0	0	579	456	0	456	0	0	
11	0	0	0	0	580	454	0	469	0	0	
12	0	0	0	0	581	458	0	482	0	0	
13	0	0	0	0	582	467	0	495	0	0	
14	0	0	0	0	581	482	0	505	0	0	
15	0	0	0	0	580	499	0	512	0	0	
0	0	0	0	0	579	519	0	515	0	0	
1	0	0	0	0	577	537	0	514	0	0	
2	0	0	0	0	576	554	0	508	0	0	
3	0	0	0	0	574	567	0	499	0	0	
4	0	0	0	0	573	574	0	488	0	0	
5	0	0	0	0	572	576	0	476	0	0	
6	0	0	0	0	571	572	0	463	0	0	
7	0	0	0	0	570	561	0	450	0	0	
8	0	0	0	0	571	547	0	440	0	0	
9	0	0	0	0	571	530	0	433	0	0	
10	0	0	0	0	573	511	0	431	0	0	
11	0	0	0	0	574	492	0	432	0	0	
12	0	0	0	0	577	477	0	438	0	0	
13	0	0	0	0	579	465	0	447	0	0	
14	0	0	0	0	581	458	0	459	0	0	
15	0	0	0	0	583	457	0	472	0	0	
0	0	0	0	0	584	461	0	486	0	0	
1	0	0	0	0	585	471	0	497	0	0	
2	0	0	0	0	585	486	0	507	0	0	
3	0	0	0	0	584	502	0	514	0	0	
4	0	0	0	0	582	519	0	516	0	0	
5	0	0	0	0	579	537	0	514	0	0	
6	0	0	0	0	575	551	0	507	0	0	
7	0	0	0	0	571	562	0	496	0	0	
8	0	0	0	0	567	567	0	482	0	0	
9	0	0	0	0	564	567	0	467	0	0	
10	0	0	0	0	561	560	0	453	0	0	
11	0	0	0	0	559	549	0	439	0	0	
12	0	0	0	0	558	534	0	428	0	0	
13	0	0	0	0	558	515	0	421	0	0	
14	0	0	0	0	560	496	0	419	0	0	
15	0	0	0	0	562	478	0	420	0	0	
0	0	0	0	0	565	462	0	427	0	0	
1	0	0	0	0	569	451	0	437	0	0	
2	0	0	0	0	572	445	0	450	0	0	
3	0	0	0	0	574	445	0	464	0	0	
4	0	0	0	0	576	451	0	478	0	0	
5	0	0	0	0	576	462	0	490	0	0	
6	0	0	0	0	577	478	0	501	0	0	
7	0	0	0	0	577	496	0	508	0	0	
8	0	0	0	0	575	515	0	510	0	0	
9	0	0	0	0	572	534	0	508	0	0	
10	0	0	0	0	569	550	0	502	0	0	
11	0	0	0	0	567	562	0	492	0	0	
12	0	0	0	0	564	568	0	479	0	0	
13	0	0	0	0	561	568	0	465	0	0	
14	0	0	0	0	560	563	0	452	0	0	
15	0	0	0	0	560	551	0	440	0	0	
0	0	0	0	0	561	537	0	431	0	0	
1	0	0	0	0	562	519	0	425	0	0	
2	0	0	0	0	564	501	0	424	0	0	
3	0	0	0	0	568	483	0	428	0	0	
4	0	0	0	0	570	467	0	434	0	0	
5	0	0	0	0	573	456	0	445	0	0	
6	0	0	0	0	575	450	0	457	0	0	
7	0	0	0	0	577	449	0	471	0	0	
8	0	0	0	0	577	454	0	484	0	0	
9	0	0	0	0	577	463	0	496	0	0	
10	0	0	0	0	576	478	0	504	0	0	
11	0	0	0	0	575	495	0	510	0	0	
12	0	0	0	0	572	512	0	511	0	0	
13	0	0	0	0	568	529	0	507	0	0	
14	0	0	0	0	564	544	0	500	0	0	
15	0	0	0	0	561	555	0	489	0	0	
0	0	0	0	0	558	560	0	476	0	0	
1	0	0	0	0	555	560	0	462	0	0	
2	0	0	0	0	554	554	0	448	0	0	
3	0	0	0	0	552	542	0	435	0	0	
4	0	0	0	0	553	527	0	425	0	0	
5	0	0	0	0	555	509	0	419	0	0	
6	0	0	0	0	557	491	0	417	0	0	
7	0	0	0	0	560	472	0	419	0	0	
8	0	0	0	0	563	457	0	425	0	0	
9	0	0	0	0	567	447	0	436	0	0	
10	0	0	0	0	569	442	0	449	0	0	
11	0	0	0	0	571	443	0	463	0	0	
12	0	0	0	0	573	449	0	477	0	0	
13	0	0	0	0	574	461	0	489	0	0	
14	0	0	0	0	574	476	0	500	0	0	
15	0	0	0	0	572	494	0	506	0	0	
0	0	0	0	0	571	513	0	508	0	0	
1	0	0	0	0	568	531	0	506	0	0	
2	0	0	0	0	564	547	0	499	0	0	
3	0	0	0	0	562	558	0	488	0	0	
4	0	0	0	0	560	563	0	475	0	0	
5	0	0	0	0	558	563	0	461	0	0	
6	0	0	0	0	556	557	0	447	0	0	
7	0	0	0	0	556	545	0	434	0	0	
8	0	0	0	0	556	530	0	424	0	0	
9	0	0	0	0	556	512	0	417	0	0	
10	0	0	0	0	558	493	0	416	0	0	
11	0	0	0	0	560	475	0	418	0	0	
12	0	0	0	0	561	459	0	425	0	0	
13	0	0	0	0	564	448	0	436	0	0	
14	0	0	0	0	566	442	0	449	0	0	
15	0	0	0	0	568	441	0	463	0	0	
0	0	0	0	0	569	447	0	476	0	0	
1	0	0	0	0	569	457	0	490	0	0	
2	0	0	0	0	570	472	0	500	0	0	
3	0	0	0	0	568	490	0	506	0	0	
4	0	0	0	0	566	509	0	508	0	0	
5	0	0	0	0	563	527	0	506	0	0	
6	0	0	0	0	559	542	0	499	0	0	
7	0	0	0	0	557	554	0	488	0	0	
8	0	0	0	0	554	560	0	475	0	0	
9	0	0	0	0	551	560	0	460	0	0	
10	0	0	0	0	549	555	0	446	0	0	
11	0	0	0	0	548	544	0	432	0	0	
12	0	0	0	0	549	529	0	422	0	0	
13	0	0	0	0	549	511	0	416	0	0	
14	0	0	0	0	551	493	0	414	0	0	
15	0	0	0	0	553	475	0	416	0	0	
0	0	0	0	0	556	460	0	423	0	0	
1	0	0	0	0	560	449	0	434	0	0	
2	0	0	0	0	562	443	0	448	0	0	
3	0	0	0	0	564	443	0	462	0	0	
4	0	0	0	0	566	449	0	476	0	0	
5	0	0	0	0	566	460	0	489	0	0	
6	0	0	0	0	567	475	0	499	0	0	
7	0	0	0	0	567	493	0	506	0	0	
8	0	0	0	0	565	511	0	508	0	0	
9	0	0	0	0	562	528	0	506	0	0	
10	0	0	0	0	560	544	0	499	0	0	
11	0	0	0	0	559	556	0	489	0	0	
12	0	0	0	0	556	561	0	476	0	0	
13	0	0	0	0	555	562	0	463	0	0	
14	0	0	0	0	554	556	0	449	0	0	
15	0	0	0	0	554	545	0	437	0	0	
0	0	0	0	0	555	531	0	428	0	0	
1	0	0	0	0	556	513	0	422	0	0	
2	0	0	0	0	557	495	0	421	0	0	
3	0	0	0	0	560	476	0	423	0	0	
4	0	0	0	0	562	461	0	431	0	0	
5	0	0	0	0	565	451	0	441	0	0	
6	0	0	0	0	567	444	0	455	0	0	
7	0	0	0	0	569	444	0	469	0	0	
8	0	0	0	0	569	450	0	483	0	0	
9	0	0	0	0	570	461	0	496	0	0	
10	0	0	0	0	571	476	0	505	0	0	
11	0	0	0	0	570	495	0	512	0	0	
12	0	0	0	0	568	513	0	514	0	0	
13	0	0	0	0	566	532	0	512	0	0	
14	0	0	0	0	563	547	0	505	0	0	
15	0	0	0	0	561	558	0	495	0	0	
0	0	0	0	0	558	564	0	482	0	0	
1	0	0	0	0	556	563	0	467	0	0	
2	0	0	0	0	554	557	0	453	0	0	
3	0	0	0	0	552	545	0	440	0	0	
4	0	0	0	0	552	530	0	430	0	0	
5	0	0	0	0	552	512	0	423	0	0	
6	0	0	0	0	554	492	0	420	0	0	
7	0	0	0	0	556	474	0	422	0	0	
8	0	0	0	0	558	459	0	428	0	0	
9	0	0	0	0	561	448	0	438	0	0	
10	0	0	0	0	564	442	0	451	0	0	
11	0	0	0	0	566	443	0	465	0	0	
12	0	0	0	0	568	449	0	479	0	0	
13	0	0	0	0	570	461	0	492	0	0	
14	0	0	0	0	571	477	0	502	0	0	
15	0	0	0	0	571	495	0	509	0	0	
0	0	0	0	0	570	515	0	511	0	0	
1	0	0	0	0	568	533	0	509	0	0	
2	0	0	0	0	564	548	0	502	0	0	
3	0	0	0	0	562	559	0	492	0	0	
4	0	0	0	0	559	564	0	479	0	0	
5	0	0	0	0	556	563	0	464	0	0	
6	0	0	0	0	554	557	0	450	0	0	
7	0	0	0	0	552	544	0	436	0	0	
8	0	0	0	0	551	528	0	426	0	0	
9	0	0	0	0	550	509	0	419	0	0	
10	0	0	0	0	551	489	0	416	0	0	
11	0	0	0	0	552	470	0	417	0	0	
12	0	0	0	0	553	455	0	423	0	0	
13	0	0	0	0	556	443	0	432	0	0	
14	0	0	0	0	558	437	0	445	0	0	
15	0	0	0	0	559	436	0	458	0	0	
0	0	0	0	0	560	442	0	471	0	0	
1	0	0	0	0	561	453	0	484	0	0	
2	0	0	0	0	562	469	0	494	0	0	
3	0	0	0	0	561	487	0	500	0	0	
4	0	0	0	0	560	506	0	503	0	0	
5	0	0	0	0	558	524	0	501	0	0	
6	0	0	0	0	556	540	0	494	0	0	
7	0	0	0	0	554	552	0	484	0	0	
8	0	0	0	0	552	559	0	472	0	0	
9	0	0	0	0	551	559	0	459	0	0	
10	0	0	0	0	550	553	0	445	0	0	
11	0	0	0	0	551	543	0	433	0	0	
12	0	0	0	0	552	529	0	424	0	0	
13	0	0	0	0	554	512	0	418	0	0	
14	0	0	0	0	557	494	0	416	0	0	
15	0	0	0	0	561	476	0	419	0	0	
0	0	0	0	0	564	461	0	426	0	0	
1	0	0	0	0	568	451	0	437	0	0	
2	0	0	0	0	571	445	0	449	0	0	
3	0	0	0	0	574	446	0	463	0	0	
4	0	0	0	0	575	451	0	476	0	0	
5	0	0	0	0	574	461	0	487	0	0	
6	0	0	0	0	573	476	0	497	0	0	
7	0	0	0	0	571	493	0	502	0	0	
8	0	0	0	0	567	510	0	503	0	0	
9	0	0	0	0	563	527	0	499	0	0	
10	0	0	0	0	558	540	0	491	0	0	
11	0	0	0	0	553	550	0	480	0	0	
12	0	0	0	0	550	554	0	466	0	0	
13	0	0	0	0	546	552	0	451	0	0	
14	0	0	0	0	543	545	0	436	0	0	
15	0	0	0	0	541	532	0	424	0	0	
0	0	0	0	0	542	516	0	414	0	0	
1	0	0	0	0	542	498	0	407	0	0	
2	0	0	0	0	544	480	0	405	0	0	
3	0	0	0	0	547	462	0	408	0	0	
4	0	0	0	0	549	447	0	414	0	0	
5	0	0	0	0	553	437	0	425	0	0	
6	0	0	0	0	556	432	0	439	0	0	
7	0	0	0	0	559	433	0	453	0	0	
8	0	0	0	0	560	439	0	467	0	0	
9	0	0	0	0	562	451	0	480	0	0	
10	0	0	0	0	563	466	0	490	0	0	
11	0	0	0	0	561	484	0	496	0	0	
12	0	0	0	0	560	503	0	498	0	0	
13	0	0	0	0	558	520	0	496	0	0	
14	0	0	0	0	555	535	0	488	0	0	
15	0	0	0	0	552	545	0	478	0	0	
0	0	0	0	0	550	551	0	465	0	0	
1	0	0	0	0	548	550	0	451	0	0	
2	0	0	0	0	546	543	0	437	0	0	
3	0	0	0	0	545	532	0	424	0	0	
4	0	0	0	0	546	517	0	414	0	0	
5	0	0	0	0	547	499	0	408	0	0	
6	0	0	0	0	548	480	0	406	0	0	
7	0	0	0	0	551	463	0	408	0	0	
8	0	0	0	0	554	448	0	415	0	0	
9	0	0	0	0	556	437	0	425	0	0	
10	0	0	0	0	559	432	0	438	0	0	
11	0	0	0	0	560	432	0	451	0	0	
12	0	0	0	0	560	438	0	465	0	0	
13	0	0	0	0	560	449	0	477	0	0	
14	0	0	0	0	560	464	0	486	0	0	
15	0	0	0	0	559	482	0	492	0	0	
0	0	0	0	0	556	501	0	493	0	0	
1	0	0	0	0	553	518	0	490	0	0	
2	0	0	0	0	550	534	0	483	0	0	
3	0	0	0	0	548	545	0	472	0	0	
4	0	0	0	0	545	550	0	459	0	0	
5	0	0	0	0	544	550	0	445	0	0	
6	0	0	0	0	542	543	0	431	0	0	
7	0	0	0	0	542	532	0	418	0	0	
8	0	0	0	0	542	517	0	408	0	0	
9	0	0	0	0	543	499	0	401	0	0	
10	0	0	0	0	545	480	0	399	0	0	
11	0	0	0	0	547	463	0	401	0	0	
12	0	0	0	0	549	447	0	408	0	0	
13	0	0	0	0	552	436	0	418	0	0	
14	0	0	0	0	553	430	0	430	0	0	
15	0	0	0	0	555	430	0	444	0	0	
0	0	0	0	0	555	435	0	457	0	0	
1	0	0	0	0	554	446	0	468	0	0	
2	0	0	0	0	554	461	0	478	0	0	
3	0	0	0	0	552	478	0	483	0	0	
4	0	0	0	0	551	496	0	485	0	0	
5	0	0	0	0	548	513	0	482	0	0	
6	0	0	0	0	545	527	0	474	0	0	
7	0	0	0	0	543	538	0	464	0	0	
8	0	0	0	0	540	543	0	451	0	0	
9	0	0	0	0	539	542	0	437	0	0	
10	0	0	0	0	538	536	0	424	0	0	
11	0	0	0	0	537	524	0	412	0	0	
12	0	0	0	0	538	508	0	403	0	0	
13	0	0	0	0	540	490	0	398	0	0	
14	0	0	0	0	542	472	0	396	0	0	
15	0	0	0	0	544	454	0	400	0	0	
0	0	0	0	0	547	440	0	408	0	0	
1	0	0	0	0	551	429	0	418	0	0	
2	0	0	0	0	554	425	0	432	0	0	
3	0	0	0	0	556	425	0	446	0	0	
4	0	0	0	0	558	432	0	459	0	0	
5	0	0	0	0	558	444	0	471	0	0	
6	0	0	0	0	559	459	0	480	0	0	
7	0	0	0	0	558	477	0	485	0	0	
8	0	0	0	0	556	496	0	486	0	0	
9	0	0	0	0	552	512	0	483	0	0	
10	0	0	0	0	548	527	0	475	0	0	
11	0	0	0	0	545	537	0	464	0	0	
12	0	0	0	0	541	541	0	450	0	0	
13	0	0	0	0	538	540	0	436	0	0	
14	0	0	0	0	535	532	0	422	0	0	
15	0	0	0	0	534	521	0	410	0	0	
0	0	0	0	0	534	505	0	400	0	0	
1	0	0	0	0	535	487	0	395	0	0	
2	0	0	0	0	537	469	0	393	0	0	
3	0	0	0	0	541	451	0	398	0	0	
4	0	0	0	0	544	437	0	405	0	0	
5	0	0	0	0	550	428	0	417	0	0	
6	0	0	0	0	553	423	0	431	0	0	
7	0	0	0	0	557	425	0	447	0	0	
8	0	0	0	0	559	432	0	461	0	0	
9	0	0	0	0	560	444	0	473	0	0	
10	0	0	0	0	560	459	0	482	0	0	
11	0	0	0	0	558	477	0	487	0	0	
12	0	0	0	0	555	496	0	488	0	0	
13	0	0	0	0	551	514	0	483	0	0	
14	0	0	0	0	547	529	0	475	0	0	
15	0	0	0	0	543	540	0	462	0	0	
0	0	0	0	0	539	545	0	448	0	0	
1	0	0	0	0	536	544	0	432	0	0	
2	0	0	0	0	535	537	0	418	0	0	
3	0	0	0	0	532	525	0	405	0	0	
4	0	0	0	0	533	510	0	395	0	0	
5	0	0	0	0	534	492	0	389	0	0	
6	0	0	0	0	536	472	0	387	0	0	
7	0	0	0	0	540	455	0	391	0	0	
8	0	0	0	0	543	440	0	398	0	0	
9	0	0	0	0	547	429	0	409	0	0	
10	0	0	0	0	550	424	0	423	0	0	
11	0	0	0	0	552	425	0	438	0	0	
12	0	0	0	0	553	431	0	452	0	0	
13	0	0	0	0	555	443	0	465	0	0	
14	0	0	0	0	555	458	0	475	0	0	
15	0	0	0	0	553	476	0	481	0	0	
0	0	0	0	0	551	495	0	483	0	0	
1	0	0	0	0	547	513	0	481	0	0	
2	0	0	0	0	544	527	0	474	0	0	
3	0	0	0	0	541	538	0	464	0	0	
4	0	0	0	0	537	543	0	452	0	0	
5	0	0	0	0	535	543	0	439	0	0	
6	0	0	0	0	532	536	0	426	0	0	
7	0	0	0	0	531	524	0	414	0	0	
8	0	0	0	0	531	509	0	404	0	0	
9	0	0	0	0	532	492	0	399	0	0	
10	0	0	0	0	534	473	0	398	0	0	
11	0	0	0	0	536	456	0	402	0	0	
12	0	0	0	0	540	442	0	409	0	0	
13	0	0	0	0	543	432	0	420	0	0	
14	0	0	0	0	545	428	0	434	0	0	
15	0	0	0	0	548	429	0	448	0	0	
0	0	0	0	0	550	436	0	463	0	0	
1	0	0	0	0	551	448	0	475	0	0	
2	0	0	0	0	552	464	0	485	0	0	
3	0	0	0	0	552	482	0	491	0	0	
4	0	0	0	0	551	500	0	493	0	0	
5	0	0	0	0	549	518	0	489	0	0	
6	0	0	0	0	547	532	0	482	0	0	
7	0	0	0	0	544	543	0	471	0	0	
8	0	0	0	0	542	547	0	457	0	0	
9	0	0	0	0	540	545	0	442	0	0	
10	0	0	0	0	538	537	0	428	0	0	
11	0	0	0	0	536	525	0	414	0	0	
12	0	0	0	0	536	508	0	403	0	0	
13	0	0	0	0	535	489	0	396	0	0	
14	0	0	0	0	535	469	0	394	0	0	
15	0	0	0	0	536	450	0	396	0	0	
0	0	0	0	0	537	435	0	403	0	0	
1	0	0	0	0	539	424	0	413	0	0	
2	0	0	0	0	541	419	0	427	0	0	
3	0	0	0	0	543	420	0	441	0	0	
4	0	0	0	0	544	427	0	456	0	0	
5	0	0	0	0	545	440	0	469	0	0	
6	0	0	0	0	546	457	0	480	0	0	
7	0	0	0	0	546	476	0	487	0	0	
8	0	0	0	0	545	496	0	489	0	0	
9	0	0	0	0	544	514	0	486	0	0	
10	0	0	0	0	543	531	0	480	0	0	
11	0	0	0	0	542	542	0	471	0	0	
12	0	0	0	0	540	547	0	459	0	0	
13	0	0	0	0	540	547	0	445	0	0	
14	0	0	0	0	539	540	0	432	0	0	
15	0	0	0	0	539	529	0	420	0	0	
0	0	0	0	0	539	513	0	411	0	0	
1	0	0	0	0	540	494	0	405	0	0	
2	0	0	0	0	541	475	0	404	0	0	
3	0	0	0	0	543	457	0	407	0	0	
4	0	0	0	0	546	443	0	414	0	0	
5	0	0	0	0	548	432	0	424	0	0	
6	0	0	0	0	550	427	0	438	0	0	
7	0	0	0	0	552	428	0	451	0	0	
8	0	0	0	0	553	435	0	465	0	0	
9	0	0	0	0	554	447	0	477	0	0	
10	0	0	0	0	554	462	0	486	0	0	
11	0	0	0	0	552	480	0	492	0	0	
12	0	0	0	0	551	499	0	493	0	0	
13	0	0	0	0	547	516	0	489	0	0	
14	0	0	0	0	544	530	0	481	0	0	
15	0	0	0	0	541	540	0	470	0	0	
0	0	0	0	0	539	544	0	457	0	0	
1	0	0	0	0	536	542	0	444	0	0	
2	0	0	0	0	535	535	0	430	0	0	
3	0	0	0	0	534	523	0	419	0	0	
4	0	0	0	0	535	507	0	409	0	0	
5	0	0	0	0	536	488	0	404	0	0	
6	0	0	0	0	537	470	0	403	0	0	
7	0	0	0	0	539	452	0	405	0	0	
8	0	0	0	0	541	438	0	414	0	0	
9	0	0	0	0	544	428	0	424	0	0	
10	0	0	0	0	547	425	0	437	0	0	
11	0	0	0	0	549	426	0	450	0	0	
12	0	0	0	0	550	434	0	463	0	0	
13	0	0	0	0	551	446	0	476	0	0	
14	0	0	0	0	552	463	0	485	0	0	
15	0	0	0	0	553	481	0	491	0	0	
0	0	0	0	0	552	501	0	492	0	0	
1	0	0	0	0	550	519	0	490	0	0	
2	0	0	0	0	548	533	0	483	0	0	
3	0	0	0	0	546	543	0	473	0	0	
4	0	0	0	0	544	548	0	461	0	0	
5	0	0	0	0	542	547	0	448	0	0	
6	0	0	0	0	541	540	0	435	0	0	
7	0	0	0	0	540	528	0	423	0	0	
8	0	0	0	0	540	513	0	415	0	0	
9	0	0	0	0	540	495	0	409	0	0	
10	0	0	0	0	542	476	0	408	0	0	
11	0	0	0	0	543	459	0	412	0	0	
12	0	0	0	0	547	444	0	419	0	0	
13	0	0	0	0	549	435	0	430	0	0	
14	0	0	0	0	551	430	0	443	0	0	
15	0	0	0	0	553	431	0	457	0	0	
0	0	0	0	0	554	438	0	471	0	0	
1	0	0	0	0	554	449	0	482	0	0	
2	0	0	0	0	554	465	0	491	0	0	
3	0	0	0	0	552	482	0	496	0	0	
4	0	0	0	0	550	500	0	497	0	0	
5	0	0	0	0	547	516	0	493	0	0	
6	0	0	0	0	543	529	0	485	0	0	
7	0	0	0	0	540	537	0	473	0	0	
8	0	0	0	0	536	541	0	459	0	0	
9	0	0	0	0	534	538	0	444	0	0	
10	0	0	0	0	532	530	0	430	0	0	
11	0	0	0	0	531	517	0	416	0	0	
12	0	0	0	0	530	500	0	406	0	0	
13	0	0	0	0	531	481	0	399	0	0	
14	0	0	0	0	532	462	0	398	0	0	
15	0	0	0	0	534	444	0	401	0	0	
0	0	0	0	0	536	431	0	408	0	0	
1	0	0	0	0	540	421	0	419	0	0	
2	0	0	0	0	543	417	0	433	0	0	
3	0	0	0	0	544	419	0	447	0	0	
4	0	0	0	0	546	426	0	461	0	0	
5	0	0	0	0	546	438	0	473	0	0	
6	0	0	0	0	546	454	0	482	0	0	
7	0	0	0	0	545	471	0	487	0	0	
8	0	0	0	0	542	489	0	488	0	0	
9	0	0	0	0	539	506	0	484	0	0	
10	0	0	0	0	536	519	0	476	0	0	
11	0	0	0	0	533	527	0	465	0	0	
12	0	0	0	0	530	531	0	452	0	0	
13	0	0	0	0	527	528	0	438	0	0	
14	0	0	0	0	526	520	0	424	0	0	
15	0	0	0	0	525	507	0	412	0	0	
0	0	0	0	0	525	491	0	403	0	0	
1	0	0	0	0	527	473	0	399	0	0	
2	0	0	0	0	529	455	0	398	0	0	
3	0	0	0	0	532	439	0	403	0	0	
4	0	0	0	0	535	425	0	410	0	0	
5	0	0	0	0	539	417	0	422	0	0	
6	0	0	0	0	542	414	0	436	0	0	
7	0	0	0	0	545	417	0	451	0	0	
8	0	0	0	0	546	425	0	465	0	0	
9	0	0	0	0	547	438	0	478	0	0	
10	0	0	0	0	549	455	0	487	0	0	
11	0	0	0	0	549	475	0	492	0	0	
12	0	0	0	0	547	493	0	494	0	0	
13	0	0	0	0	545	511	0	489	0	0	
14	0	0	0	0	543	525	0	481	0	0	
15	0	0	0	0	540	534	0	471	0	0	
0	0	0	0	0	538	538	0	457	0	0	
1	0	0	0	0	536	536	0	443	0	0	
2	0	0	0	0	534	527	0	429	0	0	
3	0	0	0	0	532	514	0	417	0	0	
4	0	0	0	0	533	497	0	408	0	0	
5	0	0	0	0	533	479	0	403	0	0	
6	0	0	0	0	535	460	0	403	0	0	
7	0	0	0	0	537	442	0	407	0	0	
8	0	0	0	0	540	428	0	414	0	0	
9	0	0	0	0	543	419	0	425	0	0	
10	0	0	0	0	545	416	0	438	0	0	
11	0	0	0	0	547	418	0	452	0	0	
12	0	0	0	0	548	427	0	465	0	0	
13	0	0	0	0	549	439	0	476	0	0	
14	0	0	0	0	549	456	0	484	0	0	
15	0	0	0	0	548	475	0	489	0	0	
0	0	0	0	0	547	494	0	489	0	0	
1	0	0	0	0	544	511	0	484	0	0	
2	0	0	0	0	540	525	0	475	0	0	
3	0	0	0	0	539	535	0	463	0	0	
4	0	0	0	0	536	539	0	450	0	0	
5	0	0	0	0	535	537	0	436	0	0	
6	0	0	0	0	534	529	0	423	0	0	
7	0	0	0	0	534	517	0	411	0	0	
8	0	0	0	0	534	501	0	403	0	0	
9	0	0	0	0	535	482	0	398	0	0	
10	0	0	0	0	537	464	0	399	0	0	
11	0	0	0	0	539	446	0	403	0	0	
12	0	0	0	0	542	432	0	411	0	0	
13	0	0	0	0	545	423	0	424	0	0	
14	0	0	0	0	547	419	0	438	0	0	
15	0	0	0	0	550	421	0	453	0	0	
0	0	0	0	0	551	429	0	466	0	0	
1	0	0	0	0	551	442	0	479	0	0	
2	0	0	0	0	552	460	0	488	0	0	
3	0	0	0	0	551	478	0	492	0	0	
4	0	0	0	0	548	497	0	493	0	0	
5	0	0	0	0	545	515	0	488	0	0	
6	0	0	0	0	540	528	0	479	0	0	
7	0	0	0	0	536	537	0	466	0	0	
8	0	0	0	0	532	540	0	451	0	0	
9	0	0	0	0	528	537	0	436	0	0	
10	0	0	0	0	525	528	0	421	0	0	
11	0	0	0	0	523	514	0	408	0	0	
12	0	0	0	0	523	497	0	398	0	0	
13	0	0	0	0	524	478	0	393	0	0	
14	0	0	0	0	525	458	0	392	0	0	
15	0	0	0	0	528	440	0	396	0	0	
0	0	0	0	0	532	426	0	404	0	0	
1	0	0	0	0	536	417	0	417	0	0	
2	0	0	0	0	541	414	0	431	0	0	
3	0	0	0	0	545	417	0	446	0	0	
4	0	0	0	0	548	426	0	461	0	0	
5	0	0	0	0	551	440	0	473	0	0	
6	0	0	0	0	552	457	0	482	0	0	
7	0	0	0	0	552	476	0	487	0	0	
8	0	0	0	0	550	495	0	487	0	0	
9	0	0	0	0	546	511	0	482	0	0	
10	0	0	0	0	541	523	0	472	0	0	
11	0	0	0	0	535	531	0	458	0	0	
12	0	0	0	0	528	531	0	442	0	0	
13	0	0	0	0	521	524	0	423	0	0	
14	0	0	0	0	513	512	0	405	0	0	
15	0	0	0	0	505	493	0	388	0	0	
0	0	0	0	0	499	470	0	372	0	0	
1	0	0	0	0	491	444	0	360	0	0	
2	0	0	0	0	483	416	0	351	0	0	
3	0	0	0	0	476	389	0	345	0	0	
4	0	0	0	0	468	364	0	343	0	0	
5	0	0	0	0	461	344	0	343	0	0	
6	0	0	0	0	452	328	0	345	0	0	
7	0	0	0	0	443	318	0	348	0	0	
8	0	0	0	0	432	313	0	350	0	0	
9	0	0	0	0	421	313	0	350	0	0	
10	0	0	0	0	409	317	0	347	0	0	
11	0	0	0	0	396	323	0	340	0	0	
12	0	0	0	0	382	328	0	328	0	0	
13	0	0	0	0	366	333	0	312	0	0	
14	0	0	0	0	349	334	0	291	0	0	
15	0	0	0	0	332	331	0	266	0	0	
0	0	0	0	0	316	322	0	239	0	0	
1	0	0	0	0	300	307	0	212	0	0	
2	0	0	0	0	287	288	0	185	0	0	
3	0	0	0	0	274	265	0	161	0	0	
4	0	0	0	0	265	240	0	142	0	0	
5	0	0	0	0	259	214	0	129	0	0	
6	0	0	0	0	258	190	0	124	0	0	
7	0	0	0	0	260	170	0	128	0	0	
8	0	0	0	0	268	158	0	140	0	0	
9	0	0	0	0	280	153	0	159	0	0	
10	0	0	0	0	297	159	0	187	0	0	
11	0	0	0	0	317	174	0	219	0	0	
12	0	0	0	0	341	199	0	254	0	0	
13	0	0	0	0	367	233	0	290	0	0	
14	0	0	0	0	395	274	0	326	0	0	
15	0	0	0	0	423	318	0	359	0	0	
0	0	0	0	0	450	365	0	390	0	0	
1	0	0	0	0	475	411	0	413	0	0	
2	0	0	0	0	498	451	0	431	0	0	
3	0	0	0	0	519	487	0	442	0	0	
4	0	0	0	0	536	513	0	448	0	0	
5	0	0	0	0	551	529	0	448	0	0	
6	0	0	0	0	560	536	0	446	0	0	
7	0	0	0	0	569	535	0	441	0	0	
8	0	0	0	0	573	525	0	436	0	0	
9	0	0	0	0	575	509	0	431	0	0	
10	0	0	0	0	575	491	0	429	0	0	
11	0	0	0	0	573	471	0	429	0	0	
12	0	0	0	0	570	453	0	432	0	0	
13	0	0	0	0	566	438	0	437	0	0	
14	0	0	0	0	560	428	0	444	0	0	
15	0	0	0	0	554	424	0	453	0	0	
0	0	0	0	0	548	426	0	461	0	0	
1	0	0	0	0	543	434	0	468	0	0	
2	0	0	0	0	539	446	0	474	0	0	
3	0	0	0	0	535	462	0	477	0	0	
4	0	0	0	0	531	479	0	477	0	0	
5	0	0	0	0	527	495	0	473	0	0	
6	0	0	0	0	526	509	0	466	0	0	
7	0	0	0	0	524	519	0	456	0	0	
8	0	0	0	0	524	524	0	445	0	0	
9	0	0	0	0	525	524	0	433	0	0	
10	0	0	0	0	525	518	0	422	0	0	
11	0	0	0	0	527	507	0	412	0	0	
12	0	0	0	0	530	492	0	405	0	0	
13	0	0	0	0	533	476	0	401	0	0	
14	0	0	0	0	537	459	0	402	0	0	
15	0	0	0	0	541	443	0	407	0	0	
0	0	0	0	0	545	431	0	415	0	0	
1	0	0	0	0	549	423	0	428	0	0	
2	0	0	0	0	551	420	0	441	0	0	
3	0	0	0	0	553	423	0	455	0	0	
4	0	0	0	0	555	431	0	469	0	0	
5	0	0	0	0	555	444	0	480	0	0	
6	0	0	0	0	555	460	0	489	0	0	
7	0	0	0	0	553	477	0	494	0	0	
8	0	0	0	0	550	495	0	494	0	0	
9	0	0	0	0	546	511	0	489	0	0	
10	0	0	0	0	542	523	0	480	0	0	
11	0	0	0	0	539	531	0	467	0	0	
12	0	0	0	0	535	532	0	453	0	0	
13	0	0	0	0	532	529	0	438	0	0	
14	0	0	0	0	529	519	0	424	0	0	
15	0	0	0	0	528	505	0	412	0	0	
0	0	0	0	0	528	489	0	403	0	0	
1	0	0	0	0	529	470	0	398	0	0	
2	0	0	0	0	531	452	0	398	0	0	
3	0	0	0	0	534	435	0	403	0	0	
4	0	0	0	0	538	423	0	411	0	0	
5	0	0	0	0	542	414	0	423	0	0	
6	0	0	0	0	544	412	0	438	0	0	
7	0	0	0	0	547	415	0	452	0	0	
8	0	0	0	0	549	423	0	467	0	0	
9	0	0	0	0	550	438	0	479	0	0	
10	0	0	0	0	551	455	0	488	0	0	
11	0	0	0	0	550	473	0	493	0	0	
12	0	0	0	0	547	492	0	494	0	0	
13	0	0	0	0	544	509	0	489	0	0	
14	0	0	0	0	541	523	0	481	0	0	
15	0	0	0	0	537	531	0	469	0	0	
0	0	0	0	0	535	534	0	455	0	0	
1	0	0	0	0	532	531	0	440	0	0	
2	0	0	0	0	530	523	0	426	0	0	
3	0	0	0	0	529	510	0	414	0	0	
4	0	0	0	0	529	494	0	405	0	0	
5	0	0	0	0	531	475	0	400	0	0	
6	0	0	0	0	532	456	0	399	0	0	
7	0	0	0	0	535	440	0	403	0	0	
8	0	0	0	0	537	426	0	411	0	0	
9	0	0	0	0	540	417	0	422	0	0	
10	0	0	0	0	542	413	0	435	0	0	
11	0	0	0	0	543	415	0	449	0	0	
12	0	0	0	0	545	423	0	462	0	0	
13	0	0	0	0	545	435	0	473	0	0	
14	0	0	0	0	545	451	0	481	0	0	
15	0	0	0	0	543	469	0	485	0	0	
0	0	0	0	0	540	487	0	485	0	0	
1	0	0	0	0	537	504	0	480	0	0	
2	0	0	0	0	534	516	0	471	0	0	
3	0	0	0	0	530	525	0	459	0	0	
4	0	0	0	0	527	527	0	445	0	0	
5	0	0	0	0	524	524	0	431	0	0	
6	0	0	0	0	523	514	0	417	0	0	
7	0	0	0	0	521	500	0	405	0	0	
8	0	0	0	0	521	483	0	396	0	0	
9	0	0	0	0	523	465	0	392	0	0	
10	0	0	0	0	525	447	0	392	0	0	
11	0	0	0	0	529	430	0	398	0	0	
12	0	0	0	0	532	417	0	406	0	0	
13	0	0	0	0	536	409	0	419	0	0	
14	0	0	0	0	540	406	0	433	0	0	
15	0	0	0	0	542	409	0	448	0	0	
0	0	0	0	0	544	418	0	462	0	0	
1	0	0	0	0	545	432	0	473	0	0	
2	0	0	0	0	545	448	0	481	0	0	
3	0	0	0	0	544	466	0	485	0	0	
4	0	0	0	0	541	485	0	484	0	0	
5	0	0	0	0	539	502	0	479	0	0	
6	0	0	0	0	535	514	0	470	0	0	
7	0	0	0	0	532	522	0	457	0	0	
8	0	0	0	0	529	524	0	442	0	0	
9	0	0	0	0	526	520	0	427	0	0	
10	0	0	0	0	523	511	0	412	0	0	
11	0	0	0	0	522	497	0	400	0	0	
12	0	0	0	0	521	479	0	391	0	0	
13	0	0	0	0	521	460	0	386	0	0	
14	0	0	0	0	522	441	0	385	0	0	
15	0	0	0	0	524	423	0	390	0	0	
0	0	0	0	0	526	410	0	398	0	0	
1	0	0	0	0	528	401	0	409	0	0	
2	0	0	0	0	530	398	0	423	0	0	
3	0	0	0	0	532	401	0	438	0	0	
4	0	0	0	0	535	410	0	451	0	0	
5	0	0	0	0	535	424	0	463	0	0	
6	0	0	0	0	536	441	0	472	0	0	
7	0	0	0	0	536	462	0	478	0	0	
8	0	0	0	0	535	481	0	480	0	0	
9	0	0	0	0	535	499	0	476	0	0	
10	0	0	0	0	533	515	0	469	0	0	
11	0	0	0	0	532	524	0	458	0	0	
12	0	0	0	0	531	528	0	446	0	0	
13	0	0	0	0	531	526	0	432	0	0	
14	0	0	0	0	531	518	0	420	0	0	
15	0	0	0	0	531	505	0	408	0	0	
0	0	0	0	0	531	488	0	400	0	0	
1	0	0	0	0	531	468	0	396	0	0	
2	0	0	0	0	533	450	0	396	0	0	
3	0	0	0	0	534	432	0	400	0	0	
4	0	0	0	0	535	418	0	408	0	0	
5	0	0	0	0	536	409	0	419	0	0	
6	0	0	0	0	536	406	0	432	0	0	
7	0	0	0	0	536	407	0	445	0	0	
8	0	0	0	0	536	415	0	457	0	0	
9	0	0	0	0	534	428	0	469	0	0	
10	0	0	0	0	534	444	0	477	0	0	
11	0	0	0	0	532	462	0	481	0	0	
12	0	0	0	0	530	481	0	481	0	0	
13	0	0	0	0	528	497	0	476	0	0	
14	0	0	0	0	526	511	0	467	0	0	
15	0	0	0	0	524	519	0	456	0	0	
0	0	0	0	0	523	522	0	442	0	0	
1	0	0	0	0	521	518	0	428	0	0	
2	0	0	0	0	520	508	0	414	0	0	
3	0	0	0	0	519	494	0	400	0	0	
4	0	0	0	0	519	477	0	391	0	0	
5	0	0	0	0	520	457	0	385	0	0	
6	0	0	0	0	521	438	0	384	0	0	
7	0	0	0	0	523	420	0	387	0	0	
8	0	0	0	0	525	407	0	394	0	0	
9	0	0	0	0	527	398	0	405	0	0	
10	0	0	0	0	529	395	0	418	0	0	
11	0	0	0	0	531	399	0	433	0	0	
12	0	0	0	0	531	407	0	447	0	0	
13	0	0	0	0	532	422	0	459	0	0	
14	0	0	0	0	533	439	0	468	0	0	
15	0	0	0	0	533	459	0	474	0	0	
0	0	0	0	0	531	478	0	475	0	0	
1	0	0	0	0	528	495	0	472	0	0	
2	0	0	0	0	527	509	0	464	0	0	
3	0	0	0	0	524	517	0	453	0	0	
4	0	0	0	0	521	519	0	440	0	0	
5	0	0	0	0	519	515	0	427	0	0	
6	0	0	0	0	517	505	0	414	0	0	
7	0	0	0	0	516	492	0	402	0	0	
8	0	0	0	0	516	475	0	394	0	0	
9	0	0	0	0	516	455	0	390	0	0	
10	0	0	0	0	518	437	0	390	0	0	
11	0	0	0	0	520	420	0	394	0	0	
12	0	0	0	0	523	407	0	402	0	0	
13	0	0	0	0	526	399	0	413	0	0	
14	0	0	0	0	528	395	0	427	0	0	
15	0	0	0	0	529	399	0	440	0	0	
0	0	0	0	0	530	407	0	453	0	0	
1	0	0	0	0	530	421	0	463	0	0	
2	0	0	0	0	530	438	0	471	0	0	
3	0	0	0	0	528	456	0	475	0	0	
4	0	0	0	0	526	475	0	473	0	0	
5	0	0	0	0	522	491	0	468	0	0	
6	0	0	0	0	518	504	0	459	0	0	
7	0	0	0	0	515	511	0	447	0	0	
8	0	0	0	0	512	513	0	433	0	0	
9	0	0	0	0	510	509	0	419	0	0	
10	0	0	0	0	508	499	0	406	0	0	
11	0	0	0	0	507	485	0	395	0	0	
12	0	0	0	0	508	468	0	387	0	0	
13	0	0	0	0	509	449	0	383	0	0	
14	0	0	0	0	511	430	0	384	0	0	
15	0	0	0	0	514	414	0	390	0	0	
0	0	0	0	0	518	401	0	399	0	0	
1	0	0	0	0	522	394	0	412	0	0	
2	0	0	0	0	526	393	0	427	0	0	
3	0	0	0	0	530	398	0	443	0	0	
4	0	0	0	0	533	408	0	457	0	0	
5	0	0	0	0	535	423	0	468	0	0	
6	0	0	0	0	536	441	0	478	0	0	
7	0	0	0	0	536	461	0	482	0	0	
8	0	0	0	0	534	481	0	482	0	0	
9	0	0	0	0	532	498	0	478	0	0	
10	0	0	0	0	529	512	0	468	0	0	
11	0	0	0	0	527	520	0	457	0	0	
12	0	0	0	0	524	522	0	443	0	0	
13	0	0	0	0	522	519	0	430	0	0	
14	0	0	0	0	520	509	0	416	0	0	
15	0	0	0	0	519	495	0	405	0	0	
0	0	0	0	0	519	478	0	397	0	0	
1	0	0	0	0	519	459	0	393	0	0	
2	0	0	0	0	521	440	0	394	0	0	
3	0	0	0	0	523	424	0	399	0	0	
4	0	0	0	0	526	411	0	408	0	0	
5	0	0	0	0	529	403	0	419	0	0	
6	0	0	0	0	531	402	0	434	0	0	
7	0	0	0	0	534	407	0	448	0	0	
8	0	0	0	0	536	417	0	463	0	0	
9	0	0	0	0	537	432	0	474	0	0	
10	0	0	0	0	538	451	0	482	0	0	
11	0	0	0	0	538	471	0	487	0	0	
12	0	0	0	0	537	490	0	487	0	0	
13	0	0	0	0	536	508	0	482	0	0	
14	0	0	0	0	533	521	0	473	0	0	
15	0	0	0	0	531	529	0	461	0	0	
0	0	0	0	0	530	531	0	447	0	0	
1	0	0	0	0	529	527	0	433	0	0	
2	0	0	0	0	528	517	0	420	0	0	
3	0	0	0	0	527	503	0	408	0	0	
4	0	0	0	0	528	486	0	399	0	0	
5	0	0	0	0	529	467	0	395	0	0	
6	0	0	0	0	531	448	0	396	0	0	
7	0	0	0	0	534	431	0	400	0	0	
8	0	0	0	0	536	417	0	409	0	0	
9	0	0	0	0	539	410	0	421	0	0	
10	0	0	0	0	542	409	0	435	0	0	
11	0	0	0	0	543	414	0	450	0	0	
12	0	0	0	0	544	423	0	464	0	0	
13	0	0	0	0	545	439	0	476	0	0	
14	0	0	0	0	545	458	0	483	0	0	
15	0	0	0	0	544	478	0	488	0	0	
0	0	0	0	0	542	498	0	487	0	0	
1	0	0	0	0	538	515	0	483	0	0	
2	0	0	0	0	535	528	0	473	0	0	
3	0	0	0	0	532	536	0	460	0	0	
4	0	0	0	0	528	538	0	446	0	0	
5	0	0	0	0	526	533	0	432	0	0	
6	0	0	0	0	524	523	0	418	0	0	
7	0	0	0	0	522	507	0	406	0	0	
8	0	0	0	0	522	489	0	398	0	0	
9	0	0	0	0	523	470	0	394	0	0	
10	0	0	0	0	525	451	0	395	0	0	
11	0	0	0	0	529	433	0	400	0	0	
12	0	0	0	0	532	421	0	409	0	0	
13	0	0	0	0	536	413	0	423	0	0	
14	0	0	0	0	540	411	0	437	0	0	
15	0	0	0	0	543	415	0	452	0	0	
0	0	0	0	0	545	425	0	466	0	0	
1	0	0	0	0	546	440	0	478	0	0	
2	0	0	0	0	547	458	0	486	0	0	
3	0	0	0	0	546	477	0	490	0	0	
4	0	0	0	0	544	496	0	490	0	0	
5	0	0	0	0	541	513	0	485	0	0	
6	0	0	0	0	537	526	0	476	0	0	
7	0	0	0	0	535	534	0	464	0	0	
8	0	0	0	0	532	535	0	451	0	0	
9	0	0	0	0	530	531	0	438	0	0	
10	0	0	0	0	529	521	0	425	0	0	
11	0	0	0	0	528	507	0	415	0	0	
12	0	0	0	0	529	491	0	408	0	0	
13	0	0	0	0	531	472	0	405	0	0	
14	0	0	0	0	533	455	0	407	0	0	
15	0	0	0	0	535	439	0	412	0	0	
0	0	0	0	0	538	427	0	422	0	0	
1	0	0	0	0	541	420	0	434	0	0	
2	0	0	0	0	543	420	0	448	0	0	
3	0	0	0	0	544	424	0	462	0	0	
4	0	0	0	0	546	434	0	475	0	0	
5	0	0	0	0	545	448	0	485	0	0	
6	0	0	0	0	546	465	0	492	0	0	
7	0	0	0	0	544	484	0	496	0	0	
8	0	0	0	0	542	503	0	494	0	0	
9	0	0	0	0	539	518	0	488	0	0	
10	0	0	0	0	536	530	0	478	0	0	
11	0	0	0	0	532	536	0	465	0	0	
12	0	0	0	0	530	537	0	451	0	0	
13	0	0	0	0	528	532	0	437	0	0	
14	0	0	0	0	526	521	0	424	0	0	
15	0	0	0	0	525	506	0	413	0	0	
0	0	0	0	0	526	489	0	406	0	0	
1	0	0	0	0	527	470	0	403	0	0	
2	0	0	0	0	529	451	0	404	0	0	
3	0	0	0	0	532	434	0	410	0	0	
4	0	0	0	0	535	422	0	420	0	0	
5	0	0	0	0	539	415	0	432	0	0	
6	0	0	0	0	541	413	0	446	0	0	
7	0	0	0	0	543	417	0	460	0	0	
8	0	0	0	0	544	427	0	473	0	0	
9	0	0	0	0	544	440	0	483	0	0	
10	0	0	0	0	543	458	0	490	0	0	
11	0	0	0	0	542	477	0	493	0	0	
12	0	0	0	0	540	496	0	491	0	0	
13	0	0	0	0	536	512	0	485	0	0	
14	0	0	0	0	532	524	0	475	0	0	
15	0	0	0	0	529	531	0	462	0	0	
0	0	0	0	0	526	532	0	448	0	0	
1	0	0	0	0	523	528	0	433	0	0	
2	0	0	0	0	522	518	0	420	0	0	
3	0	0	0	0	520	504	0	409	0	0	
4	0	0	0	0	521	487	0	401	0	0	
5	0	0	0	0	523	467	0	398	0	0	
6	0	0	0	0	525	449	0	399	0	0	
7	0	0	0	0	527	432	0	405	0	0	
8	0	0	0	0	530	420	0	415	0	0	
9	0	0	0	0	533	412	0	427	0	0	
10	0	0	0	0	535	410	0	440	0	0	
11	0	0	0	0	536	414	0	454	0	0	
12	0	0	0	0	537	423	0	467	0	0	
13	0	0	0	0	537	436	0	476	0	0	
14	0	0	0	0	537	453	0	483	0	0	
15	0	0	0	0	535	471	0	486	0	0	
0	0	0	0	0	532	488	0	484	0	0	
1	0	0	0	0	529	504	0	478	0	0	
2	0	0	0	0	525	516	0	467	0	0	
3	0	0	0	0	523	524	0	455	0	0	
4	0	0	0	0	521	525	0	441	0	0	
5	0	0	0	0	519	521	0	427	0	0	
6	0	0	0	0	518	511	0	415	0	0	
7	0	0	0	0	518	497	0	403	0	0	
8	0	0	0	0	518	480	0	396	0	0	
9	0	0	0	0	519	461	0	392	0	0	
10	0	0	0	0	521	444	0	394	0	0	
11	0	0	0	0	524	428	0	399	0	0	
12	0	0	0	0	526	415	0	409	0	0	
13	0	0	0	0	529	409	0	422	0	0	
14	0	0	0	0	531	407	0	436	0	0	
15	0	0	0	0	532	411	0	450	0	0	
0	0	0	0	0	533	421	0	462	0	0	
1	0	0	0	0	532	435	0	474	0	0	
2	0	0	0	0	531	452	0	481	0	0	
3	0	0	0	0	529	470	0	484	0	0	
4	0	0	0	0	526	487	0	482	0	0	
5	0	0	0	0	523	502	0	476	0	0	
6	0	0	0	0	518	513	0	466	0	0	
7	0	0	0	0	516	520	0	453	0	0	
8	0	0	0	0	513	520	0	438	0	0	
9	0	0	0	0	511	514	0	423	0	0	
10	0	0	0	0	509	503	0	410	0	0	
11	0	0	0	0	508	488	0	399	0	0	
12	0	0	0	0	509	471	0	391	0	0	
13	0	0	0	0	510	452	0	387	0	0	
14	0	0	0	0	513	434	0	389	0	0	
15	0	0	0	0	516	419	0	395	0	0	
0	0	0	0	0	520	408	0	404	0	0	
1	0	0	0	0	524	402	0	417	0	0	
2	0	0	0	0	527	402	0	432	0	0	
3	0	0	0	0	531	408	0	448	0	0	
4	0	0	0	0	533	419	0	462	0	0	
5	0	0	0	0	533	434	0	474	0	0	
6	0	0	0	0	534	453	0	482	0	0	
7	0	0	0	0	533	472	0	486	0	0	
8	0	0	0	0	531	492	0	486	0	0	
9	0	0	0	0	528	508	0	480	0	0	
10	0	0	0	0	525	520	0	470	0	0	
11	0	0	0	0	522	527	0	458	0	0	
12	0	0	0	0	520	529	0	443	0	0	
13	0	0	0	0	517	523	0	428	0	0	
14	0	0	0	0	515	512	0	415	0	0	
15	0	0	0	0	514	497	0	403	0	0	
0	0	0	0	0	514	479	0	395	0	0	
1	0	0	0	0	515	459	0	391	0	0	
2	0	0	0	0	516	440	0	391	0	0	
3	0	0	0	0	519	423	0	397	0	0	
4	0	0	0	0	521	410	0	407	0	0	
5	0	0	0	0	524	403	0	419	0	0	
6	0	0	0	0	527	402	0	433	0	0	
7	0	0	0	0	529	407	0	448	0	0	
8	0	0	0	0	530	417	0	461	0	0	
9	0	0	0	0	531	432	0	472	0	0	
10	0	0	0	0	531	451	0	480	0	0	
11	0	0	0	0	531	470	0	485	0	0	
12	0	0	0	0	529	489	0	484	0	0	
13	0	0	0	0	526	505	0	478	0	0	
14	0	0	0	0	523	518	0	470	0	0	
15	0	0	0	0	520	525	0	457	0	0	
0	0	0	0	0	518	526	0	444	0	0	
1	0	0	0	0	515	520	0	429	0	0	
2	0	0	0	0	514	509	0	416	0	0	
3	0	0	0	0	512	494	0	405	0	0	
4	0	0	0	0	513	476	0	398	0	0	
5	0	0	0	0	514	457	0	394	0	0	
6	0	0	0	0	516	439	0	395	0	0	
7	0	0	0	0	519	423	0	400	0	0	
8	0	0	0	0	521	412	0	409	0	0	
9	0	0	0	0	524	405	0	421	0	0	
10	0	0	0	0	527	404	0	435	0	0	
11	0	0	0	0	529	409	0	449	0	0	
12	0	0	0	0	530	420	0	463	0	0	
13	0	0	0	0	531	435	0	473	0	0	
14	0	0	0	0	531	453	0	480	0	0	
15	0	0	0	0	530	472	0	484	0	0	
0	0	0	0	0	528	491	0	482	0	0	
1	0	0	0	0	526	507	0	476	0	0	
2	0	0	0	0	523	518	0	467	0	0	
3	0	0	0	0	521	525	0	455	0	0	
4	0	0	0	0	519	526	0	440	0	0	
5	0	0	0	0	517	520	0	427	0	0	
6	0	0	0	0	516	510	0	415	0	0	
7	0	0	0	0	515	494	0	404	0	0	
8	0	0	0	0	516	476	0	398	0	0	
9	0	0	0	0	518	458	0	396	0	0	
10	0	0	0	0	520	440	0	398	0	0	
11	0	0	0	0	524	424	0	405	0	0	
12	0	0	0	0	527	412	0	414	0	0	
13	0	0	0	0	531	406	0	428	0	0	
14	0	0	0	0	533	406	0	443	0	0	
15	0	0	0	0	535	411	0	458	0	0	
0	0	0	0	0	536	421	0	472	0	0	
1	0	0	0	0	536	436	0	482	0	0	
2	0	0	0	0	535	454	0	489	0	0	
3	0	0	0	0	534	473	0	492	0	0	
4	0	0	0	0	530	492	0	490	0	0	
5	0	0	0	0	527	508	0	484	0	0	
6	0	0	0	0	524	519	0	473	0	0	
7	0	0	0	0	521	526	0	460	0	0	
8	0	0	0	0	519	527	0	446	0	0	
9	0	0	0	0	516	522	0	432	0	0	
10	0	0	0	0	516	511	0	419	0	0	
11	0	0	0	0	515	496	0	409	0	0	
12	0	0	0	0	517	479	0	403	0	0	
13	0	0	0	0	519	461	0	401	0	0	
14	0	0	0	0	522	443	0	403	0	0	
15	0	0	0	0	525	428	0	410	0	0	
0	0	0	0	0	527	416	0	420	0	0	
1	0	0	0	0	531	410	0	434	0	0	
2	0	0	0	0	533	409	0	448	0	0	
3	0	0	0	0	535	414	0	463	0	0	
4	0	0	0	0	537	425	0	476	0	0	
5	0	0	0	0	537	440	0	486	0	0	
6	0	0	0	0	538	458	0	493	0	0	
7	0	0	0	0	538	477	0	496	0	0	
8	0	0	0	0	536	496	0	494	0	0	
9	0	0	0	0	535	512	0	487	0	0	
10	0	0	0	0	532	524	0	477	0	0	
11	0	0	0	0	530	530	0	465	0	0	
12	0	0	0	0	527	530	0	451	0	0	
13	0	0	0	0	525	525	0	437	0	0	
14	0	0	0	0	524	513	0	425	0	0	
15	0	0	0	0	522	499	0	414	0	0	
0	0	0	0	0	523	481	0	408	0	0	
1	0	0	0	0	523	461	0	405	0	0	
2	0	0	0	0	525	444	0	408	0	0	
3	0	0	0	0	528	428	0	414	0	0	
4	0	0	0	0	530	417	0	423	0	0	
5	0	0	0	0	534	412	0	436	0	0	
6	0	0	0	0	536	412	0	450	0	0	
7	0	0	0	0	539	417	0	464	0	0	
8	0	0	0	0	540	429	0	476	0	0	
9	0	0	0	0	541	444	0	487	0	0	
10	0	0	0	0	542	463	0	494	0	0	
11	0	0	0	0	542	483	0	496	0	0	
12	0	0	0	0	540	501	0	495	0	0	
13	0	0	0	0	538	517	0	488	0	0	
14	0	0	0	0	535	528	0	478	0	0	
15	0	0	0	0	533	535	0	465	0	0	
0	0	0	0	0	530	535	0	451	0	0	
1	0	0	0	0	527	528	0	436	0	0	
2	0	0	0	0	524	516	0	423	0	0	
3	0	0	0	0	523	500	0	413	0	0	
4	0	0	0	0	522	481	0	405	0	0	
5	0	0	0	0	522	461	0	401	0	0	
6	0	0	0	0	523	442	0	402	0	0	
7	0	0	0	0	524	425	0	408	0	0	
8	0	0	0	0	525	412	0	417	0	0	
9	0	0	0	0	527	406	0	429	0	0	
10	0	0	0	0	529	404	0	442	0	0	
11	0	0	0	0	530	408	0	455	0	0	
12	0	0	0	0	530	419	0	468	0	0	
13	0	0	0	0	530	433	0	478	0	0	
14	0	0	0	0	530	451	0	484	0	0	
15	0	0	0	0	528	470	0	487	0	0	
0	0	0	0	0	526	488	0	486	0	0	
1	0	0	0	0	523	503	0	480	0	0	
2	0	0	0	0	520	515	0	470	0	0	
3	0	0	0	0	518	522	0	458	0	0	
4	0	0	0	0	516	523	0	445	0	0	
5	0	0	0	0	515	518	0	431	0	0	
6	0	0	0	0	514	507	0	419	0	0	
7	0	0	0	0	514	492	0	409	0	0	
8	0	0	0	0	515	475	0	402	0	0	
9	0	0	0	0	516	455	0	399	0	0	
10	0	0	0	0	518	438	0	401	0	0	
11	0	0	0	0	520	421	0	407	0	0	
12	0	0	0	0	522	408	0	417	0	0	
13	0	0	0	0	524	402	0	428	0	0	
14	0	0	0	0	526	400	0	441	0	0	
15	0	0	0	0	526	404	0	454	0	0	
0	0	0	0	0	526	414	0	465	0	0	
1	0	0	0	0	526	428	0	476	0	0	
2	0	0	0	0	525	446	0	481	0	0	
3	0	0	0	0	523	464	0	484	0	0	
4	0	0	0	0	521	483	0	481	0	0	
5	0	0	0	0	518	499	0	475	0	0	
6	0	0	0	0	516	511	0	465	0	0	
7	0	0	0	0	515	519	0	453	0	0	
8	0	0	0	0	513	520	0	440	0	0	
9	0	0	0	0	513	516	0	427	0	0	
10	0	0	0	0	512	506	0	415	0	0	
11	0	0	0	0	513	491	0	405	0	0	
12	0	0	0	0	514	474	0	399	0	0	
13	0	0	0	0	516	455	0	397	0	0	
14	0	0	0	0	519	436	0	400	0	0	
15	0	0	0	0	521	420	0	407	0	0	
0	0	0	0	0	524	408	0	416	0	0	
1	0	0	0	0	527	401	0	430	0	0	
2	0	0	0	0	529	400	0	444	0	0	
3	0	0	0	0	531	406	0	458	0	0	
4	0	0	0	0	532	416	0	471	0	0	
5	0	0	0	0	532	431	0	480	0	0	
6	0	0	0	0	532	449	0	487	0	0	
7	0	0	0	0	530	468	0	489	0	0	
8	0	0	0	0	528	487	0	487	0	0	
9	0	0	0	0	525	503	0	480	0	0	
10	0	0	0	0	522	516	0	470	0	0	
11	0	0	0	0	520	523	0	458	0	0	
12	0	0	0	0	518	524	0	444	0	0	
13	0	0	0	0	517	519	0	431	0	0	
14	0	0	0	0	516	509	0	419	0	0	
15	0	0	0	0	516	495	0	409	0	0	
0	0	0	0	0	518	477	0	403	0	0	
1	0	0	0	0	520	459	0	401	0	0	
2	0	0	0	0	523	441	0	404	0	0	
3	0	0	0	0	526	425	0	411	0	0	
4	0	0	0	0	529	414	0	422	0	0	
5	0	0	0	0	533	408	0	435	0	0	
6	0	0	0	0	536	408	0	449	0	0	
7	0	0	0	0	537	414	0	463	0	0	
8	0	0	0	0	537	424	0	476	0	0	
9	0	0	0	0	537	439	0	486	0	0	
10	0	0	0	0	536	456	0	492	0	0	
11	0	0	0	0	534	475	0	495	0	0	
12	0	0	0	0	531	492	0	492	0	0	
13	0	0	0	0	527	507	0	485	0	0	
14	0	0	0	0	523	518	0	474	0	0	
15	0	0	0	0	520	523	0	461	0	0	
0	0	0	0	0	518	523	0	446	0	0	
1	0	0	0	0	516	516	0	431	0	0	
2	0	0	0	0	515	505	0	418	0	0	
3	0	0	0	0	515	490	0	407	0	0	
4	0	0	0	0	515	472	0	399	0	0	
5	0	0	0	0	517	454	0	397	0	0	
6	0	0	0	0	519	435	0	399	0	0	
7	0	0	0	0	521	420	0	405	0	0	
8	0	0	0	0	523	409	0	415	0	0	
9	0	0	0	0	525	403	0	428	0	0	
10	0	0	0	0	527	403	0	443	0	0	
11	0	0	0	0	528	408	0	457	0	0	
12	0	0	0	0	528	419	0	470	0	0	
13	0	0	0	0	528	435	0	480	0	0	
14	0	0	0	0	528	453	0	487	0	0	
15	0	0	0	0	526	471	0	489	0	0	
0	0	0	0	0	524	489	0	487	0	0	
1	0	0	0	0	521	504	0	480	0	0	
2	0	0	0	0	518	515	0	469	0	0	
3	0	0	0	0	515	521	0	456	0	0	
4	0	0	0	0	514	521	0	442	0	0	
5	0	0	0	0	512	515	0	429	0	0	
6	0	0	0	0	513	505	0	417	0	0	
7	0	0	0	0	514	491	0	408	0	0	
8	0	0	0	0	516	474	0	403	0	0	
9	0	0	0	0	519	456	0	403	0	0	
10	0	0	0	0	523	439	0	407	0	0	
11	0	0	0	0	526	424	0	415	0	0	
12	0	0	0	0	529	413	0	425	0	0	
13	0	0	0	0	531	407	0	437	0	0	
14	0	0	0	0	531	405	0	449	0	0	
15	0	0	0	0	529	408	0	460	0	0	
0	0	0	0	0	524	415	0	468	0	0	
1	0	0	0	0	518	424	0	471	0	0	
2	0	0	0	0	510	435	0	470	0	0	
3	0	0	0	0	499	446	0	463	0	0	
4	0	0	0	0	487	455	0	449	0	0	
5	0	0	0	0	473	461	0	432	0	0	
6	0	0	0	0	457	460	0	409	0	0	
7	0	0	0	0	443	454	0	383	0	0	
8	0	0	0	0	427	441	0	355	0	0	
9	0	0	0	0	411	422	0	328	0	0	
10	0	0	0	0	396	397	0	302	0	0	
11	0	0	0	0	381	368	0	279	0	0	
12	0	0	0	0	368	336	0	257	0	0	
13	0	0	0	0	355	303	0	241	0	0	
14	0	0	0	0	343	271	0	230	0	0	
15	0	0	0	0	332	240	0	223	0	0	
0	0	0	0	0	321	215	0	220	0	0	
1	0	0	0	0	311	194	0	220	0	0	
2	0	0	0	0	300	180	0	223	0	0	
3	0	0	0	0	291	173	0	227	0	0	
4	0	0	0	0	281	172	0	231	0	0	
5	0	0	0	0	273	177	0	235	0	0	
6	0	0	0	0	265	188	0	236	0	0	
7	0	0	0	0	260	203	0	236	0	0	
8	0	0	0	0	256	220	0	234	0	0	
9	0	0	0	0	255	237	0	230	0	0	
10	0	0	0	0	258	255	0	225	0	0	
11	0	0	0	0	265	270	0	220	0	0	
12	0	0	0	0	276	283	0	219	0	0	
13	0	0	0	0	291	293	0	220	0	0	
14	0	0	0	0	311	300	0	226	0	0	
15	0	0	0	0	334	307	0	236	0	0	
0	0	0	0	0	361	311	0	252	0	0	
1	0	0	0	0	391	316	0	275	0	0	
2	0	0	0	0	423	323	0	302	0	0	
3	0	0	0	0	454	332	0	334	0	0	
4	0	0	0	0	484	344	0	368	0	0	
5	0	0	0	0	513	360	0	404	0	0	
6	0	0	0	0	537	381	0	440	0	0	
7	0	0	0	0	558	405	0	472	0	0	
8	0	0	0	0	574	432	0	500	0	0	
9	0	0	0	0	583	460	0	522	0	0	
10	0	0	0	0	589	489	0	536	0	0	
11	0	0	0	0	588	515	0	543	0	0	
12	0	0	0	0	584	536	0	541	0	0	
13	0	0	0	0	576	553	0	532	0	0	
14	0	0	0	0	566	563	0	516	0	0	
15	0	0	0	0	555	565	0	497	0	0	
0	0	0	0	0	543	560	0	476	0	0	
1	0	0	0	0	532	549	0	454	0	0	
2	0	0	0	0	524	532	0	434	0	0	
3	0	0	0	0	517	510	0	418	0	0	
4	0	0	0	0	514	488	0	406	0	0	
5	0	0	0	0	513	465	0	400	0	0	
6	0	0	0	0	514	444	0	401	0	0	
7	0	0	0	0	518	428	0	408	0	0	
8	0	0	0	0	523	417	0	419	0	0	
9	0	0	0	0	530	412	0	434	0	0	
10	0	0	0	0	536	414	0	451	0	0	
11	0	0	0	0	543	423	0	468	0	0	
12	0	0	0	0	549	438	0	485	0	0	
13	0	0	0	0	554	456	0	498	0	0	
14	0	0	0	0	558	478	0	508	0	0	
15	0	0	0	0	559	499	0	513	0	0	
0	0	0	0	0	559	520	0	513	0	0	
1	0	0	0	0	558	537	0	508	0	0	
2	0	0	0	0	555	548	0	498	0	0	
3	0	0	0	0	552	555	0	486	0	0	
4	0	0	0	0	549	554	0	471	0	0	
5	0	0	0	0	547	547	0	456	0	0	
6	0	0	0	0	543	534	0	443	0	0	
7	0	0	0	0	542	518	0	432	0	0	
8	0	0	0	0	542	499	0	424	0	0	
9	0	0	0	0	542	479	0	422	0	0	
10	0	0	0	0	544	460	0	423	0	0	
11	0	0	0	0	546	444	0	430	0	0	
12	0	0	0	0	548	433	0	440	0	0	
13	0	0	0	0	551	428	0	452	0	0	
14	0	0	0	0	554	428	0	467	0	0	
15	0	0	0	0	556	435	0	481	0	0	
0	0	0	0	0	558	447	0	495	0	0	
1	0	0	0	0	558	464	0	505	0	0	
2	0	0	0	0	559	483	0	513	0	0	
3	0	0	0	0	558	502	0	515	0	0	
4	0	0	0	0	555	520	0	513	0	0	
5	0	0	0	0	551	535	0	506	0	0	
6	0	0	0	0	548	546	0	495	0	0	
7	0	0	0	0	544	550	0	482	0	0	
8	0	0	0	0	541	548	0	467	0	0	
9	0	0	0	0	538	540	0	453	0	0	
10	0	0	0	0	536	527	0	440	0	0	
11	0	0	0	0	534	510	0	428	0	0	
12	0	0	0	0	534	490	0	421	0	0	
13	0	0	0	0	535	470	0	419	0	0	
14	0	0	0	0	536	451	0	420	0	0	
15	0	0	0	0	538	435	0	427	0	0	
0	0	0	0	0	541	423	0	437	0	0	
1	0	0	0	0	543	418	0	449	0	0	
2	0	0	0	0	545	418	0	463	0	0	
3	0	0	0	0	546	424	0	477	0	0	
4	0	0	0	0	547	436	0	490	0	0	
5	0	0	0	0	547	451	0	499	0	0	
6	0	0	0	0	547	470	0	505	0	0	
7	0	0	0	0	545	488	0	507	0	0	
8	0	0	0	0	542	505	0	504	0	0	
9	0	0	0	0	539	521	0	497	0	0	
10	0	0	0	0	536	531	0	486	0	0	
11	0	0	0	0	534	536	0	472	0	0	
12	0	0	0	0	531	535	0	458	0	0	
13	0	0	0	0	530	528	0	444	0	0	
14	0	0	0	0	529	516	0	432	0	0	
15	0	0	0	0	529	501	0	422	0	0	
0	0	0	0	0	531	484	0	416	0	0	
1	0	0	0	0	533	465	0	415	0	0	
2	0	0	0	0	536	448	0	418	0	0	
3	0	0	0	0	539	434	0	425	0	0	
4	0	0	0	0	542	423	0	436	0	0	
5	0	0	0	0	545	419	0	449	0	0	
6	0	0	0	0	547	419	0	464	0	0	
7	0	0	0	0	548	425	0	477	0	0	
8	0	0	0	0	548	436	0	489	0	0	
9	0	0	0	0	547	451	0	499	0	0	
10	0	0	0	0	546	469	0	505	0	0	
11	0	0	0	0	543	487	0	506	0	0	
12	0	0	0	0	540	504	0	503	0	0	
13	0	0	0	0	536	518	0	495	0	0	
14	0	0	0	0	531	527	0	483	0	0	
15	0	0	0	0	529	533	0	470	0	0	
0	0	0	0	0	526	531	0	455	0	0	
1	0	0	0	0	524	524	0	442	0	0	
2	0	0	0	0	523	512	0	429	0	0	
3	0	0	0	0	523	497	0	419	0	0	
4	0	0	0	0	524	479	0	414	0	0	
5	0	0	0	0	526	460	0	412	0	0	
6	0	0	0	0	529	443	0	415	0	0	
7	0	0	0	0	533	429	0	423	0	0	
8	0	0	0	0	537	419	0	436	0	0	
9	0	0	0	0	541	415	0	450	0	0	
10	0	0	0	0	543	417	0	465	0	0	
11	0	0	0	0	545	424	0	479	0	0	
12	0	0	0	0	546	437	0	493	0	0	
13	0	0	0	0	545	453	0	504	0	0	
14	0	0	0	0	544	471	0	510	0	0	
15	0	0	0	0	542	490	0	512	0	0	
0	0	0	0	0	539	507	0	509	0	0	
1	0	0	0	0	536	521	0	502	0	0	
2	0	0	0	0	532	531	0	491	0	0	
3	0	0	0	0	529	536	0	477	0	0	
4	0	0	0	0	527	534	0	463	0	0	
5	0	0	0	0	525	527	0	449	0	0	
6	0	0	0	0	524	515	0	436	0	0	
7	0	0	0	0	525	499	0	427	0	0	
8	0	0	0	0	527	481	0	421	0	0	
9	0	0	0	0	529	463	0	420	0	0	
10	0	0	0	0	533	447	0	423	0	0	
11	0	0	0	0	537	433	0	431	0	0	
12	0	0	0	0	540	423	0	442	0	0	
13	0	0	0	0	543	420	0	455	0	0	
14	0	0	0	0	546	421	0	469	0	0	
15	0	0	0	0	547	428	0	483	0	0	
0	0	0	0	0	548	440	0	495	0	0	
1	0	0	0	0	548	457	0	504	0	0	
2	0	0	0	0	547	475	0	510	0	0	
3	0	0	0	0	545	493	0	511	0	0	
4	0	0	0	0	543	511	0	508	0	0	
5	0	0	0	0	541	525	0	501	0	0	
6	0	0	0	0	538	535	0	489	0	0	
7	0	0	0	0	536	539	0	476	0	0	
8	0	0	0	0	534	537	0	462	0	0	
9	0	0	0	0	533	530	0	448	0	0	
10	0	0	0	0	532	518	0	436	0	0	
11	0	0	0	0	531	501	0	427	0	0	
12	0	0	0	0	532	483	0	420	0	0	
13	0	0	0	0	533	464	0	419	0	0	
14	0	0	0	0	535	447	0	422	0	0	
15	0	0	0	0	536	433	0	430	0	0	
0	0	0	0	0	538	423	0	440	0	0	
1	0	0	0	0	541	419	0	452	0	0	
2	0	0	0	0	542	420	0	466	0	0	
3	0	0	0	0	544	428	0	480	0	0	
4	0	0	0	0	544	440	0	492	0	0	
5	0	0	0	0	545	455	0	501	0	0	
6	0	0	0	0	544	473	0	507	0	0	
7	0	0	0	0	543	492	0	508	0	0	
8	0	0	0	0	541	508	0	503	0	0	
9	0	0	0	0	538	522	0	496	0	0	
10	0	0	0	0	536	531	0	484	0	0	
11	0	0	0	0	534	535	0	470	0	0	
12	0	0	0	0	532	533	0	455	0	0	
13	0	0	0	0	530	525	0	441	0	0	
14	0	0	0	0	528	512	0	429	0	0	
15	0	0	0	0	528	495	0	419	0	0	
0	0	0	0	0	528	477	0	413	0	0	
1	0	0	0	0	529	458	0	412	0	0	
2	0	0	0	0	531	440	0	415	0	0	
3	0	0	0	0	533	425	0	423	0	0	
4	0	0	0	0	535	415	0	433	0	0	
5	0	0	0	0	537	411	0	446	0	0	
6	0	0	0	0	539	413	0	460	0	0	
7	0	0	0	0	540	419	0	473	0	0	
8	0	0	0	0	540	432	0	486	0	0	
9	0	0	0	0	540	448	0	495	0	0	
10	0	0	0	0	540	467	0	500	0	0	
11	0	0	0	0	539	487	0	502	0	0	
12	0	0	0	0	537	505	0	499	0	0	
13	0	0	0	0	535	520	0	492	0	0	
14	0	0	0	0	532	531	0	480	0	0	
15	0	0	0	0	531	537	0	467	0	0	
0	0	0	0	0	529	536	0	454	0	0	
1	0	0	0	0	527	529	0	440	0	0	
2	0	0	0	0	526	517	0	428	0	0	
3	0	0	0	0	526	502	0	420	0	0	
4	0	0	0	0	528	484	0	415	0	0	
5	0	0	0	0	529	466	0	414	0	0	
6	0	0	0	0	532	449	0	418	0	0	
7	0	0	0	0	535	435	0	427	0	0	
8	0	0	0	0	539	425	0	438	0	0	
9	0	0	0	0	541	420	0	451	0	0	
10	0	0	0	0	543	422	0	465	0	0	
11	0	0	0	0	545	428	0	478	0	0	
12	0	0	0	0	546	440	0	491	0	0	
13	0	0	0	0	546	455	0	499	0	0	
14	0	0	0	0	545	474	0	504	0	0	
15	0	0	0	0	543	492	0	504	0	0	
0	0	0	0	0	540	509	0	500	0	0	
1	0	0	0	0	537	523	0	492	0	0	
2	0	0	0	0	534	533	0	480	0	0	
3	0	0	0	0	531	537	0	466	0	0	
4	0	0	0	0	529	536	0	452	0	0	
5	0	0	0	0	527	529	0	438	0	0	
6	0	0	0	0	527	517	0	427	0	0	
7	0	0	0	0	527	501	0	417	0	0	
8	0	0	0	0	529	484	0	413	0	0	
9	0	0	0	0	532	466	0	413	0	0	
10	0	0	0	0	535	449	0	417	0	0	
11	0	0	0	0	539	435	0	427	0	0	
12	0	0	0	0	543	426	0	439	0	0	
13	0	0	0	0	547	423	0	453	0	0	
14	0	0	0	0	550	426	0	468	0	0	
15	0	0	0	0	552	434	0	483	0	0	
0	0	0	0	0	554	447	0	495	0	0	
1	0	0	0	0	554	464	0	504	0	0	
2	0	0	0	0	553	483	0	510	0	0	
3	0	0	0	0	551	502	0	511	0	0	
4	0	0	0	0	549	520	0	507	0	0	
5	0	0	0	0	545	534	0	499	0	0	
6	0	0	0	0	541	543	0	487	0	0	
7	0	0	0	0	539	547	0	474	0	0	
8	0	0	0	0	536	545	0	460	0	0	
9	0	0	0	0	534	537	0	446	0	0	
10	0	0	0	0	532	525	0	434	0	0	
11	0	0	0	0	532	508	0	426	0	0	
12	0	0	0	0	534	490	0	421	0	0	
13	0	0	0	0	536	471	0	421	0	0	
14	0	0	0	0	539	454	0	425	0	0	
15	0	0	0	0	542	440	0	434	0	0	
0	0	0	0	0	545	431	0	446	0	0	
1	0	0	0	0	549	428	0	460	0	0	
2	0	0	0	0	552	430	0	474	0	0	
3	0	0	0	0	554	438	0	488	0	0	
4	0	0	0	0	555	451	0	501	0	0	
5	0	0	0	0	555	467	0	510	0	0	
6	0	0	0	0	555	485	0	515	0	0	
7	0	0	0	0	553	504	0	516	0	0	
8	0	0	0	0	550	521	0	512	0	0	
9	0	0	0	0	547	535	0	504	0	0	
10	0	0	0	0	544	543	0	492	0	0	
11	0	0	0	0	541	547	0	479	0	0	
12	0	0	0	0	539	545	0	464	0	0	
13	0	0	0	0	537	537	0	449	0	0	
14	0	0	0	0	535	525	0	436	0	0	
15	0	0	0	0	535	508	0	427	0	0	
0	0	0	0	0	536	491	0	421	0	0	
1	0	0	0	0	537	473	0	420	0	0	
2	0	0	0	0	540	457	0	423	0	0	
3	0	0	0	0	543	444	0	432	0	0	
4	0	0	0	0	546	435	0	443	0	0	
5	0	0	0	0	549	432	0	457	0	0	
6	0	0	0	0	551	434	0	472	0	0	
7	0	0	0	0	553	442	0	486	0	0	
8	0	0	0	0	554	454	0	498	0	0	
9	0	0	0	0	554	470	0	507	0	0	
10	0	0	0	0	554	487	0	513	0	0	
11	0	0	0	0	552	505	0	514	0	0	
12	0	0	0	0	550	521	0	510	0	0	
13	0	0	0	0	547	534	0	502	0	0	
14	0	0	0	0	544	543	0	491	0	0	
15	0	0	0	0	542	547	0	478	0	0	
0	0	0	0	0	540	544	0	464	0	0	
1	0	0	0	0	540	537	0	450	0	0	
2	0	0	0	0	540	525	0	439	0	0	
3	0	0	0	0	540	509	0	430	0	0	
4	0	0	0	0	542	492	0	425	0	0	
5	0	0	0	0	544	475	0	424	0	0	
6	0	0	0	0	547	459	0	429	0	0	
7	0	0	0	0	551	447	0	438	0	0	
8	0	0	0	0	555	439	0	448	0	0	
9	0	0	0	0	558	436	0	462	0	0	
10	0	0	0	0	560	440	0	477	0	0	
11	0	0	0	0	562	448	0	491	0	0	
12	0	0	0	0	562	460	0	503	0	0	
13	0	0	0	0	561	476	0	512	0	0	
14	0	0	0	0	560	495	0	517	0	0	
15	0	0	0	0	557	512	0	518	0	0	
0	0	0	0	0	554	529	0	513	0	0	
1	0	0	0	0	550	541	0	505	0	0	
2	0	0	0	0	546	550	0	494	0	0	
3	0	0	0	0	543	553	0	480	0	0	
4	0	0	0	0	541	550	0	466	0	0	
5	0	0	0	0	540	541	0	452	0	0	
6	0	0	0	0	538	527	0	440	0	0	
7	0	0	0	0	538	511	0	431	0	0	
8	0	0	0	0	540	492	0	426	0	0	
9	0	0	0	0	542	473	0	426	0	0	
10	0	0	0	0	544	455	0	430	0	0	
11	0	0	0	0	547	442	0	439	0	0	
12	0	0	0	0	551	433	0	450	0	0	
13	0	0	0	0	553	431	0	464	0	0	
14	0	0	0	0	556	433	0	479	0	0	
15	0	0	0	0	558	442	0	493	0	0	
0	0	0	0	0	559	455	0	506	0	0	
1	0	0	0	0	560	473	0	515	0	0	
2	0	0	0	0	560	492	0	520	0	0	
3	0	0	0	0	559	511	0	520	0	0	
4	0	0	0	0	556	528	0	516	0	0	
5	0	0	0	0	553	542	0	508	0	0	
6	0	0	0	0	550	552	0	496	0	0	
7	0	0	0	0	548	555	0	482	0	0	
8	0	0	0	0	545	552	0	467	0	0	
9	0	0	0	0	544	544	0	453	0	0	
10	0	0	0	0	542	531	0	441	0	0	
11	0	0	0	0	542	514	0	432	0	0	
12	0	0	0	0	543	496	0	427	0	0	
13	0	0	0	0	543	476	0	426	0	0	
14	0	0	0	0	545	459	0	430	0	0	
15	0	0	0	0	547	444	0	439	0	0	
0	0	0	0	0	550	435	0	450	0	0	
1	0	0	0	0	552	431	0	463	0	0	
2	0	0	0	0	554	434	0	478	0	0	
3	0	0	0	0	556	441	0	491	0	0	
4	0	0	0	0	556	454	0	503	0	0	
5	0	0	0	0	557	471	0	512	0	0	
6	0	0	0	0	556	489	0	517	0	0	
7	0	0	0	0	555	508	0	517	0	0	
8	0	0	0	0	554	526	0	513	0	0	
9	0	0	0	0	551	540	0	505	0	0	
10	0	0	0	0	550	550	0	494	0	0	
11	0	0	0	0	548	554	0	481	0	0	
12	0	0	0	0	547	551	0	467	0	0	
13	0	0	0	0	546	544	0	453	0	0	
14	0	0	0	0	545	531	0	441	0	0	
15	0	0	0	0	545	514	0	432	0	0	
0	0	0	0	0	545	495	0	428	0	0	
1	0	0	0	0	546	476	0	427	0	0	
2	0	0	0	0	548	459	0	431	0	0	
3	0	0	0	0	550	444	0	439	0	0	
4	0	0	0	0	551	435	0	449	0	0	
5	0	0	0	0	553	431	0	463	0	0	
6	0	0	0	0	553	432	0	476	0	0	
7	0	0	0	0	554	440	0	489	0	0	
8	0	0	0	0	553	452	0	500	0	0	
9	0	0	0	0	552	468	0	508	0	0	
10	0	0	0	0	551	487	0	512	0	0	
11	0	0	0	0	548	504	0	512	0	0	
12	0	0	0	0	545	521	0	507	0	0	
13	0	0	0	0	542	534	0	498	0	0	
14	0	0	0	0	540	542	0	486	0	0	
15	0	0	0	0	538	546	0	472	0	0	
0	0	0	0	0	536	543	0	457	0	0	
1	0	0	0	0	535	535	0	443	0	0	
2	0	0	0	0	535	523	0	432	0	0	
3	0	0	0	0	535	506	0	422	0	0	
4	0	0	0	0	536	488	0	417	0	0	
5	0	0	0	0	537	470	0	417	0	0	
6	0	0	0	0	538	454	0	421	0	0	
7	0	0	0	0	540	440	0	430	0	0	
8	0	0	0	0	541	431	0	441	0	0	
9	0	0	0	0	543	428	0	454	0	0	
10	0	0	0	0	545	431	0	468	0	0	
11	0	0	0	0	547	439	0	482	0	0	
12	0	0	0	0	547	452	0	494	0	0	
13	0	0	0	0	547	468	0	502	0	0	
14	0	0	0	0	547	487	0	507	0	0	
15	0	0	0	0	545	505	0	508	0	0	
0	0	0	0	0	542	522	0	504	0	0	
1	0	0	0	0	540	535	0	495	0	0	
2	0	0	0	0	537	543	0	483	0	0	
3	0	0	0	0	535	547	0	469	0	0	
4	0	0	0	0	533	543	0	455	0	0	
5	0	0	0	0	531	535	0	441	0	0	
6	0	0	0	0	530	520	0	429	0	0	
7	0	0	0	0	529	504	0	420	0	0	
8	0	0	0	0	529	484	0	414	0	0	
9	0	0	0	0	531	465	0	414	0	0	
10	0	0	0	0	533	448	0	418	0	0	
11	0	0	0	0	535	434	0	426	0	0	
12	0	0	0	0	537	424	0	438	0	0	
13	0	0	0	0	539	421	0	450	0	0	
14	0	0	0	0	541	423	0	464	0	0	
15	0	0	0	0	542	432	0	478	0	0	
0	0	0	0	0	543	444	0	489	0	0	
1	0	0	0	0	543	461	0	498	0	0	
2	0	0	0	0	542	481	0	502	0	0	
3	0	0	0	0	540	500	0	503	0	0	
4	0	0	0	0	537	518	0	499	0	0	
5	0	0	0	0	535	532	0	490	0	0	
6	0	0	0	0	532	541	0	479	0	0	
7	0	0	0	0	530	545	0	465	0	0	
8	0	0	0	0	528	542	0	451	0	0	
9	0	0	0	0	527	533	0	438	0	0	
10	0	0	0	0	527	520	0	427	0	0	
11	0	0	0	0	527	503	0	419	0	0	
12	0	0	0	0	529	485	0	414	0	0	
13	0	0	0	0	531	466	0	414	0	0	
14	0	0	0	0	534	449	0	418	0	0	
15	0	0	0	0	537	435	0	427	0	0	
0	0	0	0	0	540	426	0	438	0	0	
1	0	0	0	0	543	423	0	451	0	0	
2	0	0	0	0	545	426	0	465	0	0	
3	0	0	0	0	546	434	0	479	0	0	
4	0	0	0	0	546	447	0	491	0	0	
5	0	0	0	0	546	463	0	499	0	0	
6	0	0	0	0	545	483	0	504	0	0	
7	0	0	0	0	543	502	0	505	0	0	
8	0	0	0	0	541	519	0	502	0	0	
9	0	0	0	0	538	533	0	494	0	0	
10	0	0	0	0	536	542	0	484	0	0	
11	0	0	0	0	535	546	0	471	0	0	
12	0	0	0	0	534	544	0	459	0	0	
13	0	0	0	0	533	536	0	446	0	0	
14	0	0	0	0	534	523	0	436	0	0	
15	0	0	0	0	535	507	0	428	0	0	
0	0	0	0	0	536	488	0	424	0	0	
1	0	0	0	0	539	470	0	424	0	0	
2	0	0	0	0	541	453	0	428	0	0	
3	0	0	0	0	544	440	0	436	0	0	
4	0	0	0	0	546	431	0	447	0	0	
5	0	0	0	0	549	428	0	460	0	0	
6	0	0	0	0	550	431	0	473	0	0	
7	0	0	0	0	551	439	0	486	0	0	
8	0	0	0	0	551	451	0	497	0	0	
9	0	0	0	0	550	467	0	504	0	0	
10	0	0	0	0	548	486	0	508	0	0	
11	0	0	0	0	546	505	0	509	0	0	
12	0	0	0	0	543	521	0	504	0	0	
13	0	0	0	0	539	535	0	495	0	0	
14	0	0	0	0	537	543	0	484	0	0	
15	0	0	0	0	535	547	0	471	0	0	
0	0	0	0	0	533	544	0	457	0	0	
1	0	0	0	0	532	536	0	445	0	0	
2	0	0	0	0	532	523	0	434	0	0	
3	0	0	0	0	532	506	0	426	0	0	
4	0	0	0	0	534	488	0	422	0	0	
5	0	0	0	0	537	471	0	423	0	0	
6	0	0	0	0	540	454	0	428	0	0	
7	0	0	0	0	543	441	0	437	0	0	
8	0	0	0	0	546	432	0	449	0	0	
9	0	0	0	0	550	430	0	463	0	0	
10	0	0	0	0	552	432	0	477	0	0	
11	0	0	0	0	554	440	0	491	0	0	
12	0	0	0	0	555	454	0	503	0	0	
13	0	0	0	0	555	470	0	511	0	0	
14	0	0	0	0	553	488	0	515	0	0	
15	0	0	0	0	551	507	0	515	0	0	
0	0	0	0	0	549	524	0	510	0	0	
1	0	0	0	0	547	537	0	501	0	0	
2	0	0	0	0	543	545	0	489	0	0	
3	0	0	0	0	541	549	0	475	0	0	
4	0	0	0	0	539	546	0	461	0	0	
5	0	0	0	0	537	538	0	447	0	0	
6	0	0	0	0	537	525	0	436	0	0	
7	0	0	0	0	536	509	0	428	0	0	
8	0	0	0	0	537	491	0	424	0	0	
9	0	0	0	0	539	472	0	425	0	0	
10	0	0	0	0	542	456	0	431	0	0	
11	0	0	0	0	545	443	0	440	0	0	
12	0	0	0	0	547	435	0	451	0	0	
13	0	0	0	0	550	433	0	466	0	0	
14	0	0	0	0	552	436	0	481	0	0	
15	0	0	0	0	553	444	0	494	0	0	
0	0	0	0	0	553	458	0	504	0	0	
1	0	0	0	0	553	474	0	514	0	0	
2	0	0	0	0	552	493	0	517	0	0	
3	0	0	0	0	550	512	0	516	0	0	
4	0	0	0	0	548	529	0	511	0	0	
5	0	0	0	0	545	542	0	502	0	0	
6	0	0	0	0	542	549	0	489	0	0	
7	0	0	0	0	541	552	0	475	0	0	
8	0	0	0	0	539	549	0	460	0	0	
9	0	0	0	0	539	540	0	447	0	0	
10	0	0	0	0	538	526	0	436	0	0	
11	0	0	0	0	539	510	0	428	0	0	
12	0	0	0	0	541	492	0	424	0	0	
13	0	0	0	0	543	474	0	425	0	0	
14	0	0	0	0	545	459	0	430	0	0	
15	0	0	0	0	548	446	0	439	0	0	
0	0	0	0	0	550	438	0	450	0	0	
1	0	0	0	0	552	436	0	464	0	0	
2	0	0	0	0	553	440	0	478	0	0	
3	0	0	0	0	553	449	0	491	0	0	
4	0	0	0	0	553	462	0	502	0	0	
5	0	0	0	0	552	478	0	509	0	0	
6	0	0	0	0	550	496	0	512	0	0	
7	0	0	0	0	548	514	0	511	0	0	
8	0	0	0	0	544	529	0	505	0	0	
9	0	0	0	0	540	540	0	496	0	0	
10	0	0	0	0	537	546	0	483	0	0	
11	0	0	0	0	534	547	0	469	0	0	
12	0	0	0	0	531	541	0	454	0	0	
13	0	0	0	0	528	530	0	440	0	0	
14	0	0	0	0	526	515	0	428	0	0	
15	0	0	0	0	526	496	0	419	0	0	
0	0	0	0	0	526	476	0	414	0	0	
1	0	0	0	0	527	457	0	413	0	0	
2	0	0	0	0	529	440	0	418	0	0	
3	0	0	0	0	531	426	0	426	0	0	
4	0	0	0	0	532	417	0	437	0	0	
5	0	0	0	0	535	415	0	450	0	0	
6	0	0	0	0	536	418	0	463	0	0	
7	0	0	0	0	537	427	0	476	0	0	
8	0	0	0	0	537	440	0	487	0	0	
9	0	0	0	0	537	457	0	495	0	0	
10	0	0	0	0	536	475	0	499	0	0	
11	0	0	0	0	535	494	0	499	0	0	
12	0	0	0	0	533	511	0	494	0	0	
13	0	0	0	0	530	524	0	485	0	0	
14	0	0	0	0	528	533	0	474	0	0	
15	0	0	0	0	526	536	0	460	0	0	
0	0	0	0	0	525	534	0	447	0	0	
1	0	0	0	0	524	526	0	435	0	0	
2	0	0	0	0	524	512	0	424	0	0	
3	0	0	0	0	525	496	0	417	0	0	
4	0	0	0	0	527	479	0	414	0	0	
5	0	0	0	0	530	461	0	415	0	0	
6	0	0	0	0	533	446	0	420	0	0	
7	0	0	0	0	537	433	0	431	0	0	
8	0	0	0	0	540	427	0	443	0	0	
9	0	0	0	0	544	425	0	457	0	0	
10	0	0	0	0	547	430	0	472	0	0	
11	0	0	0	0	550	439	0	486	0	0	
12	0	0	0	0	552	453	0	498	0	0	
13	0	0	0	0	552	471	0	507	0	0	
14	0	0	0	0	553	490	0	511	0	0	
15	0	0	0	0	551	509	0	511	0	0	
0	0	0	0	0	550	526	0	505	0	0	
1	0	0	0	0	547	539	0	497	0	0	
2	0	0	0	0	544	547	0	486	0	0	
3	0	0	0	0	542	550	0	472	0	0	
4	0	0	0	0	540	546	0	458	0	0	
5	0	0	0	0	538	537	0	445	0	0	
6	0	0	0	0	537	523	0	435	0	0	
7	0	0	0	0	537	507	0	427	0	0	
8	0	0	0	0	539	488	0	423	0	0	
9	0	0	0	0	541	470	0	425	0	0	
10	0	0	0	0	544	453	0	430	0	0	
11	0	0	0	0	547	440	0	439	0	0	
12	0	0	0	0	550	433	0	451	0	0	
13	0	0	0	0	553	431	0	464	0	0	
14	0	0	0	0	555	434	0	478	0	0	
15	0	0	0	0	556	443	0	491	0	0	
0	0	0	0	0	556	457	0	502	0	0	
1	0	0	0	0	556	473	0	508	0	0	
2	0	0	0	0	555	492	0	512	0	0	
3	0	0	0	0	552	511	0	511	0	0	
4	0	0	0	0	550	527	0	505	0	0	
5	0	0	0	0	547	540	0	496	0	0	
6	0	0	0	0	543	547	0	484	0	0	
7	0	0	0	0	541	550	0	470	0	0	
8	0	0	0	0	538	546	0	455	0	0	
9	0	0	0	0	537	537	0	442	0	0	
10	0	0	0	0	536	523	0	431	0	0	
11	0	0	0	0	535	505	0	423	0	0	
12	0	0	0	0	536	487	0	418	0	0	
13	0	0	0	0	538	468	0	419	0	0	
14	0	0	0	0	540	451	0	423	0	0	
15	0	0	0	0	542	438	0	432	0	0	
0	0	0	0	0	544	429	0	444	0	0	
1	0	0	0	0	546	427	0	457	0	0	
2	0	0	0	0	547	430	0	472	0	0	
3	0	0	0	0	547	438	0	484	0	0	
4	0	0	0	0	547	451	0	496	0	0	
5	0	0	0	0	545	466	0	503	0	0	
6	0	0	0	0	543	484	0	507	0	0	
7	0	0	0	0	540	502	0	506	0	0	
8	0	0	0	0	537	518	0	500	0	0	
9	0	0	0	0	534	531	0	491	0	0	
10	0	0	0	0	531	538	0	480	0	0	
11	0	0	0	0	529	542	0	466	0	0	
12	0	0	0	0	527	538	0	452	0	0	
13	0	0	0	0	527	529	0	440	0	0	
14	0	0	0	0	528	516	0	430	0	0	
15	0	0	0	0	529	500	0	423	0	0	
0	0	0	0	0	531	483	0	420	0	0	
1	0	0	0	0	535	465	0	421	0	0	
2	0	0	0	0	537	449	0	426	0	0	
3	0	0	0	0	540	436	0	434	0	0	
4	0	0	0	0	541	427	0	445	0	0	
5	0	0	0	0	542	423	0	455	0	0	
6	0	0	0	0	541	424	0	466	0	0	
7	0	0	0	0	538	430	0	474	0	0	
8	0	0	0	0	532	438	0	479	0	0	
9	0	0	0	0	526	449	0	479	0	0	
10	0	0	0	0	517	460	0	474	0	0	
11	0	0	0	0	506	470	0	464	0	0	
12	0	0	0	0	492	476	0	448	0	0	
13	0	0	0	0	478	478	0	428	0	0	
14	0	0	0	0	462	473	0	403	0	0	
15	0	0	0	0	447	462	0	378	0	0	
0	0	0	0	0	432	445	0	352	0	0	
1	0	0	0	0	417	423	0	327	0	0	
2	0	0	0	0	403	396	0	304	0	0	
3	0	0	0	0	390	366	0	285	0	0	
4	0	0	0	0	379	335	0	268	0	0	
5	0	0	0	0	368	304	0	257	0	0	
6	0	0	0	0	359	275	0	249	0	0	
7	0	0	0	0	350	249	0	246	0	0	
8	0	0	0	0	340	227	0	244	0	0	
9	0	0	0	0	331	211	0	245	0	0	
10	0	0	0	0	321	200	0	247	0	0	
11	0	0	0	0	310	196	0	248	0	0	
12	0	0	0	0	299	197	0	249	0	0	
13	0	0	0	0	288	203	0	247	0	0	
14	0	0	0	0	279	213	0	244	0	0	
15	0	0	0	0	270	225	0	239	0	0	
0	0	0	0	0	263	240	0	232	0	0	
1	0	0	0	0	260	254	0	224	0	0	
2	0	0	0	0	261	265	0	217	0	0	
3	0	0	0	0	267	277	0	211	0	0	
4	0	0	0	0	278	286	0	210	0	0	
5	0	0	0	0	294	294	0	212	0	0	
6	0	0	0	0	316	299	0	221	0	0	
7	0	0	0	0	342	305	0	235	0	0	
8	0	0	0	0	372	311	0	255	0	0	
9	0	0	0	0	405	317	0	282	0	0	
10	0	0	0	0	439	327	0	314	0	0	
11	0	0	0	0	473	341	0	350	0	0	
12	0	0	0	0	505	359	0	388	0	0	
13	0	0	0	0	535	380	0	428	0	0	
14	0	0	0	0	560	406	0	464	0	0	
15	0	0	0	0	580	434	0	496	0	0	
0	0	0	0	0	594	464	0	523	0	0	
1	0	0	0	0	603	494	0	543	0	0	
2	0	0	0	0	606	523	0	553	0	0	
3	0	0	0	0	604	547	0	556	0	0	
4	0	0	0	0	597	566	0	550	0	0	
5	0	0	0	0	588	577	0	537	0	0	
6	0	0	0	0	575	581	0	519	0	0	
7	0	0	0	0	564	579	0	498	0	0	
8	0	0	0	0	552	568	0	476	0	0	
9	0	0	0	0	542	552	0	454	0	0	
10	0	0	0	0	534	530	0	436	0	0	
11	0	0	0	0	528	507	0	423	0	0	
12	0	0	0	0	526	483	0	414	0	0	
13	0	0	0	0	526	461	0	412	0	0	
14	0	0	0	0	529	441	0	416	0	0	
15	0	0	0	0	534	428	0	426	0	0	
0	0	0	0	0	539	419	0	440	0	0	
1	0	0	0	0	546	419	0	456	0	0	
2	0	0	0	0	552	425	0	474	0	0	
3	0	0	0	0	558	438	0	491	0	0	
4	0	0	0	0	562	455	0	506	0	0	
5	0	0	0	0	565	474	0	517	0	0	
6	0	0	0	0	567	497	0	523	0	0	
7	0	0	0	0	567	518	0	525	0	0	
8	0	0	0	0	565	536	0	521	0	0	
9	0	0	0	0	562	550	0	513	0	0	
10	0	0	0	0	559	559	0	501	0	0	
11	0	0	0	0	556	562	0	487	0	0	
12	0	0	0	0	554	558	0	473	0	0	
13	0	0	0	0	551	547	0	459	0	0	
14	0	0	0	0	549	532	0	447	0	0	
15	0	0	0	0	548	514	0	438	0	0	
0	0	0	0	0	549	495	0	433	0	0	
1	0	0	0	0	551	476	0	433	0	0	
2	0	0	0	0	553	459	0	439	0	0	
3	0	0	0	0	556	446	0	448	0	0	
4	0	0	0	0	559	440	0	460	0	0	
5	0	0	0	0	563	438	0	473	0	0	
6	0	0	0	0	566	444	0	488	0	0	
7	0	0	0	0	568	455	0	502	0	0	
8	0	0	0	0	568	470	0	514	0	0	
9	0	0	0	0	569	489	0	522	0	0	
10	0	0	0	0	570	510	0	527	0	0	
11	0	0	0	0	569	530	0	527	0	0	
12	0	0	0	0	568	548	0	523	0	0	
13	0	0	0	0	566	561	0	515	0	0	
14	0	0	0	0	563	570	0	503	0	0	
15	0	0	0	0	562	572	0	489	0	0	
0	0	0	0	0	560	568	0	476	0	0	
1	0	0	0	0	558	557	0	462	0	0	
2	0	0	0	0	556	542	0	451	0	0	
3	0	0	0	0	555	523	0	441	0	0	
4	0	0	0	0	555	503	0	437	0	0	
5	0	0	0	0	555	483	0	437	0	0	
6	0	0	0	0	556	465	0	442	0	0	
7	0	0	0	0	558	451	0	451	0	0	
8	0	0	0	0	559	444	0	462	0	0	
9	0	0	0	0	562	442	0	475	0	0	
10	0	0	0	0	564	446	0	489	0	0	
11	0	0	0	0	566	456	0	503	0	0	
12	0	0	0	0	566	470	0	514	0	0	
13	0	0	0	0	566	488	0	522	0	0	
14	0	0	0	0	567	508	0	526	0	0	
15	0	0	0	0	565	526	0	526	0	0	
0	0	0	0	0	563	543	0	520	0	0	
1	0	0	0	0	560	554	0	511	0	0	
2	0	0	0	0	558	562	0	499	0	0	
3	0	0	0	0	556	563	0	485	0	0	
4	0	0	0	0	554	558	0	471	0	0	
5	0	0	0	0	553	547	0	458	0	0	
6	0	0	0	0	552	532	0	446	0	0	
7	0	0	0	0	552	515	0	438	0	0	
8	0	0	0	0	553	495	0	434	0	0	
9	0	0	0	0	555	476	0	435	0	0	
10	0	0	0	0	557	460	0	440	0	0	
11	0	0	0	0	559	448	0	449	0	0	
12	0	0	0	0	561	440	0	462	0	0	
13	0	0	0	0	563	439	0	475	0	0	
14	0	0	0	0	564	444	0	488	0	0	
15	0	0	0	0	565	454	0	501	0	0	
0	0	0	0	0	564	468	0	512	0	0	
1	0	0	0	0	563	486	0	519	0	0	
2	0	0	0	0	562	504	0	521	0	0	
3	0	0	0	0	560	522	0	519	0	0	
4	0	0	0	0	556	537	0	513	0	0	
5	0	0	0	0	553	548	0	503	0	0	
6	0	0	0	0	549	555	0	489	0	0	
7	0	0	0	0	547	556	0	475	0	0	
8	0	0	0	0	545	551	0	460	0	0	
9	0	0	0	0	544	540	0	447	0	0	
10	0	0	0	0	543	524	0	435	0	0	
11	0	0	0	0	544	508	0	428	0	0	
12	0	0	0	0	545	488	0	424	0	0	
13	0	0	0	0	548	470	0	425	0	0	
14	0	0	0	0	550	454	0	431	0	0	
15	0	0	0	0	553	442	0	441	0	0	
0	0	0	0	0	555	435	0	453	0	0	
1	0	0	0	0	557	435	0	467	0	0	
2	0	0	0	0	559	440	0	481	0	0	
3	0	0	0	0	560	450	0	494	0	0	
4	0	0	0	0	559	464	0	504	0	0	
5	0	0	0	0	558	481	0	512	0	0	
6	0	0	0	0	557	500	0	514	0	0	
7	0	0	0	0	555	518	0	513	0	0	
8	0	0	0	0	551	534	0	507	0	0	
9	0	0	0	0	547	544	0	497	0	0	
10	0	0	0	0	544	551	0	484	0	0	
11	0	0	0	0	542	551	0	470	0	0	
12	0	0	0	0	539	545	0	455	0	0	
13	0	0	0	0	537	535	0	441	0	0	
14	0	0	0	0	536	519	0	430	0	0	
15	0	0	0	0	535	502	0	423	0	0	
0	0	0	0	0	536	482	0	419	0	0	
1	0	0	0	0	537	463	0	420	0	0	
2	0	0	0	0	539	448	0	425	0	0	
3	0	0	0	0	541	435	0	435	0	0	
4	0	0	0	0	543	429	0	447	0	0	
5	0	0	0	0	546	428	0	460	0	0	
6	0	0	0	0	547	432	0	475	0	0	
7	0	0	0	0	548	443	0	487	0	0	
8	0	0	0	0	548	457	0	498	0	0	
9	0	0	0	0	548	475	0	505	0	0	
10	0	0	0	0	547	494	0	508	0	0	
11	0	0	0	0	545	512	0	506	0	0	
12	0	0	0	0	542	527	0	500	0	0	
13	0	0	0	0	539	538	0	490	0	0	
14	0	0	0	0	536	544	0	476	0	0	
15	0	0	0	0	535	544	0	463	0	0	
0	0	0	0	0	533	539	0	448	0	0	
1	0	0	0	0	532	527	0	435	0	0	
2	0	0	0	0	532	512	0	424	0	0	
3	0	0	0	0	532	495	0	417	0	0	
4	0	0	0	0	535	476	0	414	0	0	
5	0	0	0	0	538	458	0	417	0	0	
6	0	0	0	0	541	443	0	423	0	0	
7	0	0	0	0	544	432	0	434	0	0	
8	0	0	0	0	547	426	0	447	0	0	
9	0	0	0	0	551	425	0	462	0	0	
10	0	0	0	0	552	431	0	477	0	0	
11	0	0	0	0	553	440	0	490	0	0	
12	0	0	0	0	552	454	0	500	0	0	
13	0	0	0	0	551	471	0	507	0	0	
14	0	0	0	0	550	489	0	509	0	0	
15	0	0	0	0	547	506	0	507	0	0	
0	0	0	0	0	543	521	0	499	0	0	
1	0	0	0	0	540	531	0	488	0	0	
2	0	0	0	0	537	537	0	476	0	0	
3	0	0	0	0	535	538	0	461	0	0	
4	0	0	0	0	534	533	0	447	0	0	
5	0	0	0	0	533	522	0	434	0	0	
6	0	0	0	0	533	508	0	424	0	0	
7	0	0	0	0	534	491	0	417	0	0	
8	0	0	0	0	536	473	0	416	0	0	
9	0	0	0	0	539	456	0	419	0	0	
10	0	0	0	0	542	442	0	426	0	0	
11	0	0	0	0	546	431	0	438	0	0	
12	0	0	0	0	549	426	0	451	0	0	
13	0	0	0	0	552	427	0	466	0	0	
14	0	0	0	0	554	433	0	480	0	0	
15	0	0	0	0	556	443	0	493	0	0	
0	0	0	0	0	555	458	0	504	0	0	
1	0	0	0	0	555	475	0	509	0	0	
2	0	0	0	0	553	494	0	512	0	0	
3	0	0	0	0	551	511	0	509	0	0	
4	0	0	0	0	547	526	0	502	0	0	
5	0	0	0	0	542	536	0	491	0	0	
6	0	0	0	0	540	541	0	478	0	0	
7	0	0	0	0	537	540	0	463	0	0	
8	0	0	0	0	535	534	0	448	0	0	
9	0	0	0	0	534	522	0	435	0	0	
10	0	0	0	0	534	506	0	423	0	0	
11	0	0	0	0	535	488	0	416	0	0	
12	0	0	0	0	537	470	0	414	0	0	
13	0	0	0	0	540	452	0	417	0	0	
14	0	0	0	0	543	437	0	423	0	0	
15	0	0	0	0	547	425	0	434	0	0	
0	0	0	0	0	549	420	0	447	0	0	
1	0	0	0	0	552	421	0	461	0	0	
2	0	0	0	0	553	427	0	475	0	0	
3	0	0	0	0	554	438	0	487	0	0	
4	0	0	0	0	553	453	0	498	0	0	
5	0	0	0	0	551	470	0	505	0	0	
6	0	0	0	0	549	490	0	508	0	0	
7	0	0	0	0	546	508	0	505	0	0	
8	0	0	0	0	542	523	0	499	0	0	
9	0	0	0	0	538	534	0	487	0	0	
10	0	0	0	0	534	540	0	475	0	0	
11	0	0	0	0	532	541	0	460	0	0	
12	0	0	0	0	530	535	0	446	0	0	
13	0	0	0	0	529	525	0	433	0	0	
14	0	0	0	0	529	510	0	423	0	0	
15	0	0	0	0	530	493	0	416	0	0	
0	0	0	0	0	533	476	0	414	0	0	
1	0	0	0	0	536	459	0	417	0	0	
2	0	0	0	0	541	446	0	424	0	0	
3	0	0	0	0	545	435	0	435	0	0	
4	0	0	0	0	548	430	0	448	0	0	
5	0	0	0	0	552	431	0	463	0	0	
6	0	0	0	0	555	437	0	478	0	0	
7	0	0	0	0	556	448	0	491	0	0	
8	0	0	0	0	556	463	0	501	0	0	
9	0	0	0	0	556	480	0	507	0	0	
10	0	0	0	0	554	499	0	509	0	0	
11	0	0	0	0	551	516	0	507	0	0	
12	0	0	0	0	547	531	0	499	0	0	
13	0	0	0	0	544	541	0	489	0	0	
14	0	0	0	0	540	546	0	476	0	0	
15	0	0	0	0	537	545	0	460	0	0	
0	0	0	0	0	536	539	0	446	0	0	
1	0	0	0	0	534	527	0	433	0	0	
2	0	0	0	0	534	512	0	423	0	0	
3	0	0	0	0	534	494	0	416	0	0	
4	0	0	0	0	535	476	0	413	0	0	
5	0	0	0	0	537	457	0	415	0	0	
6	0	0	0	0	540	442	0	422	0	0	
7	0	0	0	0	543	431	0	433	0	0	
8	0	0	0	0	546	425	0	446	0	0	
9	0	0	0	0	548	425	0	460	0	0	
10	0	0	0	0	550	431	0	473	0	0	
11	0	0	0	0	551	441	0	486	0	0	
12	0	0	0	0	551	456	0	496	0	0	
13	0	0	0	0	550	474	0	502	0	0	
14	0	0	0	0	549	493	0	504	0	0	
15	0	0	0	0	546	510	0	501	0	0	
0	0	0	0	0	543	525	0	495	0	0	
1	0	0	0	0	540	536	0	484	0	0	
2	0	0	0	0	537	542	0	472	0	0	
3	0	0	0	0	536	542	0	457	0	0	
4	0	0	0	0	535	537	0	444	0	0	
5	0	0	0	0	534	526	0	432	0	0	
6	0	0	0	0	535	511	0	423	0	0	
7	0	0	0	0	536	493	0	415	0	0	
8	0	0	0	0	538	475	0	413	0	0	
9	0	0	0	0	540	456	0	415	0	0	
10	0	0	0	0	543	441	0	423	0	0	
11	0	0	0	0	547	431	0	432	0	0	
12	0	0	0	0	549	424	0	446	0	0	
13	0	0	0	0	551	425	0	459	0	0	
14	0	0	0	0	552	431	0	473	0	0	
15	0	0	0	0	553	441	0	486	0	0	
0	0	0	0	0	553	456	0	496	0	0	
1	0	0	0	0	551	475	0	503	0	0	
2	0	0	0	0	551	494	0	505	0	0	
3	0	0	0	0	549	513	0	504	0	0	
4	0	0	0	0	547	529	0	497	0	0	
5	0	0	0	0	543	541	0	487	0	0	
6	0	0	0	0	543	547	0	476	0	0	
7	0	0	0	0	541	548	0	462	0	0	
8	0	0	0	0	540	542	0	449	0	0	
9	0	0	0	0	540	532	0	437	0	0	
10	0	0	0	0	541	517	0	428	0	0	
11	0	0	0	0	542	499	0	422	0	0	
12	0	0	0	0	543	480	0	420	0	0	
13	0	0	0	0	546	463	0	422	0	0	
14	0	0	0	0	548	447	0	429	0	0	
15	0	0	0	0	551	436	0	439	0	0	
0	0	0	0	0	551	430	0	450	0	0	
1	0	0	0	0	553	429	0	463	0	0	
2	0	0	0	0	553	435	0	476	0	0	
3	0	0	0	0	553	445	0	487	0	0	
4	0	0	0	0	553	460	0	496	0	0	
5	0	0	0	0	551	478	0	502	0	0	
6	0	0	0	0	550	497	0	504	0	0	
7	0	0	0	0	547	515	0	502	0	0	
8	0	0	0	0	545	531	0	496	0	0	
9	0	0	0	0	543	543	0	486	0	0	
10	0	0	0	0	541	548	0	474	0	0	
11	0	0	0	0	540	550	0	460	0	0	
12	0	0	0	0	540	544	0	448	0	0	
13	0	0	0	0	541	534	0	436	0	0	
14	0	0	0	0	543	519	0	427	0	0	
15	0	0	0	0	543	502	0	421	0	0	
0	0	0	0	0	547	484	0	419	0	0	
1	0	0	0	0	549	466	0	422	0	0	
2	0	0	0	0	552	451	0	428	0	0	
3	0	0	0	0	555	441	0	439	0	0	
4	0	0	0	0	556	434	0	451	0	0	
5	0	0	0	0	558	435	0	464	0	0	
6	0	0	0	0	559	440	0	478	0	0	
7	0	0	0	0	558	451	0	490	0	0	
8	0	0	0	0	557	466	0	500	0	0	
9	0	0	0	0	555	483	0	507	0	0	
10	0	0	0	0	553	502	0	508	0	0	
11	0	0	0	0	550	519	0	506	0	0	
12	0	0	0	0	547	534	0	499	0	0	
13	0	0	0	0	543	544	0	489	0	0	
14	0	0	0	0	540	549	0	476	0	0	
15	0	0	0	0	539	549	0	461	0	0	
0	0	0	0	0	537	542	0	447	0	0	
1	0	0	0	0	536	531	0	435	0	0	
2	0	0	0	0	536	515	0	425	0	0	
3	0	0	0	0	537	497	0	418	0	0	
4	0	0	0	0	540	478	0	416	0	0	
5	0	0	0	0	542	460	0	419	0	0	
6	0	0	0	0	545	445	0	426	0	0	
7	0	0	0	0	547	434	0	436	0	0	
8	0	0	0	0	550	428	0	450	0	0	
9	0	0	0	0	551	428	0	463	0	0	
10	0	0	0	0	552	433	0	477	0	0	
11	0	0	0	0	552	444	0	489	0	0	
12	0	0	0	0	551	459	0	499	0	0	
13	0	0	0	0	550	476	0	504	0	0	
14	0	0	0	0	547	495	0	505	0	0	
15	0	0	0	0	545	512	0	502	0	0	
0	0	0	0	0	541	527	0	495	0	0	
1	0	0	0	0	538	537	0	484	0	0	
2	0	0	0	0	535	543	0	470	0	0	
3	0	0	0	0	533	543	0	456	0	0	
4	0	0	0	0	532	537	0	442	0	0	
5	0	0	0	0	531	526	0	429	0	0	
6	0	0	0	0	531	510	0	420	0	0	
7	0	0	0	0	532	492	0	413	0	0	
8	0	0	0	0	534	474	0	411	0	0	
9	0	0	0	0	536	457	0	414	0	0	
10	0	0	0	0	539	441	0	421	0	0	
11	0	0	0	0	543	431	0	432	0	0	
12	0	0	0	0	545	425	0	444	0	0	
13	0	0	0	0	548	426	0	459	0	0	
14	0	0	0	0	550	432	0	473	0	0	
15	0	0	0	0	551	443	0	486	0	0	
0	0	0	0	0	551	458	0	495	0	0	
1	0	0	0	0	550	476	0	502	0	0	
2	0	0	0	0	549	495	0	503	0	0	
3	0	0	0	0	546	513	0	500	0	0	
4	0	0	0	0	543	527	0	492	0	0	
5	0	0	0	0	539	538	0	481	0	0	
6	0	0	0	0	536	543	0	468	0	0	
7	0	0	0	0	533	543	0	453	0	0	
8	0	0	0	0	531	536	0	439	0	0	
9	0	0	0	0	530	525	0	426	0	0	
10	0	0	0	0	529	508	0	417	0	0	
11	0	0	0	0	529	490	0	410	0	0	
12	0	0	0	0	531	472	0	408	0	0	
13	0	0	0	0	532	454	0	410	0	0	
14	0	0	0	0	535	438	0	417	0	0	
15	0	0	0	0	537	427	0	428	0	0	
0	0	0	0	0	539	421	0	440	0	0	
1	0	0	0	0	541	421	0	454	0	0	
2	0	0	0	0	542	427	0	468	0	0	
3	0	0	0	0	543	437	0	480	0	0	
4	0	0	0	0	542	451	0	490	0	0	
5	0	0	0	0	541	470	0	496	0	0	
6	0	0	0	0	540	488	0	497	0	0	
7	0	0	0	0	538	505	0	495	0	0	
8	0	0	0	0	535	520	0	487	0	0	
9	0	0	0	0	532	530	0	476	0	0	
10	0	0	0	0	530	536	0	464	0	0	
11	0	0	0	0	529	536	0	451	0	0	
12	0	0	0	0	529	531	0	437	0	0	
13	0	0	0	0	529	520	0	425	0	0	
14	0	0	0	0	531	505	0	416	0	0	
15	0	0	0	0	533	489	0	411	0	0	
0	0	0	0	0	536	472	0	409	0	0	
1	0	0	0	0	540	455	0	413	0	0	
2	0	0	0	0	543	441	0	421	0	0	
3	0	0	0	0	547	432	0	432	0	0	
4	0	0	0	0	550	426	0	446	0	0	
5	0	0	0	0	553	428	0	460	0	0	
6	0	0	0	0	555	434	0	474	0	0	
7	0	0	0	0	555	445	0	486	0	0	
8	0	0	0	0	555	460	0	495	0	0	
9	0	0	0	0	552	476	0	501	0	0	
10	0	0	0	0	549	494	0	501	0	0	
11	0	0	0	0	545	511	0	497	0	0	
12	0	0	0	0	541	524	0	488	0	0	
13	0	0	0	0	536	534	0	476	0	0	
14	0	0	0	0	532	538	0	463	0	0	
15	0	0	0	0	529	537	0	448	0	0	
0	0	0	0	0	527	530	0	434	0	0	
1	0	0	0	0	527	519	0	422	0	0	
2	0	0	0	0	527	504	0	413	0	0	
3	0	0	0	0	528	486	0	408	0	0	
4	0	0	0	0	531	468	0	407	0	0	
5	0	0	0	0	535	451	0	411	0	0	
6	0	0	0	0	539	438	0	419	0	0	
7	0	0	0	0	542	427	0	431	0	0	
8	0	0	0	0	545	423	0	446	0	0	
9	0	0	0	0	549	425	0	461	0	0	
10	0	0	0	0	551	432	0	476	0	0	
11	0	0	0	0	553	444	0	489	0	0	
12	0	0	0	0	554	460	0	499	0	0	
13	0	0	0	0	553	479	0	506	0	0	
14	0	0	0	0	552	499	0	507	0	0	
15	0	0	0	0	550	517	0	505	0	0	
0	0	0	0	0	547	532	0	497	0	0	
1	0	0	0	0	544	543	0	487	0	0	
2	0	0	0	0	540	547	0	473	0	0	
3	0	0	0	0	539	547	0	458	0	0	
4	0	0	0	0	536	540	0	444	0	0	
5	0	0	0	0	535	527	0	430	0	0	
6	0	0	0	0	534	511	0	420	0	0	
7	0	0	0	0	533	492	0	412	0	0	
8	0	0	0	0	535	473	0	409	0	0	
9	0	0	0	0	536	455	0	411	0	0	
10	0	0	0	0	538	440	0	417	0	0	
11	0	0	0	0	540	428	0	428	0	0	
12	0	0	0	0	542	423	0	440	0	0	
13	0	0	0	0	543	424	0	454	0	0	
14	0	0	0	0	544	430	0	468	0	0	
15	0	0	0	0	545	441	0	480	0	0	
0	0	0	0	0	544	456	0	491	0	0	
1	0	0	0	0	543	475	0	497	0	0	
2	0	0	0	0	542	493	0	499	0	0	
3	0	0	0	0	540	511	0	497	0	0	
4	0	0	0	0	538	526	0	491	0	0	
5	0	0	0	0	536	536	0	481	0	0	
6	0	0	0	0	534	542	0	469	0	0	
7	0	0	0	0	534	541	0	455	0	0	
8	0	0	0	0	534	535	0	443	0	0	
9	0	0	0	0	534	523	0	431	0	0	
10	0	0	0	0	535	507	0	422	0	0	
11	0	0	0	0	535	490	0	415	0	0	
12	0	0	0	0	537	471	0	414	0	0	
13	0	0	0	0	539	453	0	416	0	0	
14	0	0	0	0	542	438	0	423	0	0	
15	0	0	0	0	544	427	0	433	0	0	
0	0	0	0	0	545	422	0	446	0	0	
1	0	0	0	0	547	423	0	460	0	0	
2	0	0	0	0	549	429	0	474	0	0	
3	0	0	0	0	550	441	0	487	0	0	
4	0	0	0	0	549	456	0	496	0	0	
5	0	0	0	0	548	475	0	503	0	0	
6	0	0	0	0	547	494	0	505	0	0	
7	0	0	0	0	544	512	0	503	0	0	
8	0	0	0	0	542	527	0	496	0	0	
9	0	0	0	0	539	537	0	486	0	0	
10	0	0	0	0	535	542	0	472	0	0	
11	0	0	0	0	534	541	0	458	0	0	
12	0	0	0	0	531	534	0	444	0	0	
13	0	0	0	0	530	522	0	431	0	0	
14	0	0	0	0	530	506	0	421	0	0	
15	0	0	0	0	530	488	0	415	0	0	
0	0	0	0	0	532	470	0	414	0	0	
1	0	0	0	0	534	452	0	416	0	0	
2	0	0	0	0	537	438	0	423	0	0	
3	0	0	0	0	539	428	0	434	0	0	
4	0	0	0	0	542	424	0	447	0	0	
5	0	0	0	0	544	425	0	462	0	0	
6	0	0	0	0	546	432	0	476	0	0	
7	0	0	0	0	547	444	0	488	0	0	
8	0	0	0	0	548	460	0	497	0	0	
9	0	0	0	0	547	478	0	503	0	0	
10	0	0	0	0	546	497	0	504	0	0	
11	0	0	0	0	544	514	0	501	0	0	
12	0	0	0	0	541	528	0	494	0	0	
13	0	0	0	0	538	537	0	482	0	0	
14	0	0	0	0	534	542	0	468	0	0	
15	0	0	0	0	531	540	0	454	0	0	
0	0	0	0	0	529	531	0	440	0	0	
1	0	0	0	0	527	519	0	427	0	0	
2	0	0	0	0	526	502	0	417	0	0	
3	0	0	0	0	526	483	0	411	0	0	
4	0	0	0	0	527	464	0	409	0	0	
5	0	0	0	0	529	446	0	412	0	0	
6	0	0	0	0	532	432	0	419	0	0	
7	0	0	0	0	534	421	0	430	0	0	
8	0	0	0	0	536	416	0	443	0	0	
9	0	0	0	0	538	418	0	457	0	0	
10	0	0	0	0	540	425	0	471	0	0	
11	0	0	0	0	541	437	0	483	0	0	
12	0	0	0	0	542	454	0	494	0	0	
13	0	0	0	0	542	472	0	500	0	0	
14	0	0	0	0	541	492	0	502	0	0	
15	0	0	0	0	540	511	0	499	0	0	
0	0	0	0	0	538	526	0	493	0	0	
1	0	0	0	0	536	537	0	483	0	0	
2	0	0	0	0	534	542	0	470	0	0	
3	0	0	0	0	532	540	0	455	0	0	
4	0	0	0	0	531	533	0	442	0	0	
5	0	0	0	0	529	520	0	429	0	0	
6	0	0	0	0	528	503	0	419	0	0	
7	0	0	0	0	527	482	0	412	0	0	
8	0	0	0	0	527	462	0	408	0	0	
9	0	0	0	0	528	442	0	409	0	0	
10	0	0	0	0	529	426	0	416	0	0	
11	0	0	0	0	530	414	0	425	0	0	
12	0	0	0	0	531	408	0	437	0	0	
13	0	0	0	0	531	407	0	451	0	0	
14	0	0	0	0	531	413	0	464	0	0	
15	0	0	0	0	531	424	0	476	0	0	
0	0	0	0	0	531	440	0	485	0	0	
1	0	0	0	0	530	457	0	492	0	0	
2	0	0	0	0	528	477	0	493	0	0	
3	0	0	0	0	526	495	0	490	0	0	
4	0	0	0	0	524	510	0	483	0	0	
5	0	0	0	0	522	520	0	472	0	0	
6	0	0	0	0	519	525	0	459	0	0	
7	0	0	0	0	519	525	0	445	0	0	
8	0	0	0	0	518	519	0	432	0	0	
9	0	0	0	0	518	507	0	420	0	0	
10	0	0	0	0	518	491	0	412	0	0	
11	0	0	0	0	520	474	0	407	0	0	
12	0	0	0	0	523	457	0	406	0	0	
13	0	0	0	0	526	441	0	411	0	0	
14	0	0	0	0	529	428	0	419	0	0	
15	0	0	0	0	532	418	0	431	0	0	
0	0	0	0	0	535	414	0	444	0	0	
1	0	0	0	0	537	416	0	458	0	0	
2	0	0	0	0	539	424	0	472	0	0	
3	0	0	0	0	540	436	0	484	0	0	
4	0	0	0	0	540	452	0	494	0	0	
5	0	0	0	0	539	469	0	499	0	0	
6	0	0	0	0	537	488	0	499	0	0	
7	0	0	0	0	534	505	0	495	0	0	
8	0	0	0	0	530	519	0	487	0	0	
9	0	0	0	0	527	528	0	476	0	0	
10	0	0	0	0	524	532	0	462	0	0	
11	0	0	0	0	521	531	0	447	0	0	
12	0	0	0	0	519	524	0	434	0	0	
13	0	0	0	0	519	512	0	422	0	0	
14	0	0	0	0	518	496	0	413	0	0	
15	0	0	0	0	519	478	0	408	0	0	
0	0	0	0	0	522	460	0	407	0	0	
1	0	0	0	0	525	444	0	411	0	0	
2	0	0	0	0	529	430	0	419	0	0	
3	0	0	0	0	533	421	0	431	0	0	
4	0	0	0	0	537	417	0	445	0	0	
5	0	0	0	0	541	420	0	460	0	0	
6	0	0	0	0	544	428	0	474	0	0	
7	0	0	0	0	547	442	0	487	0	0	
8	0	0	0	0	548	458	0	497	0	0	
9	0	0	0	0	548	477	0	503	0	0	
10	0	0	0	0	547	496	0	504	0	0	
11	0	0	0	0	545	514	0	501	0	0	
12	0	0	0	0	542	528	0	494	0	0	
13	0	0	0	0	539	537	0	483	0	0	
14	0	0	0	0	535	541	0	470	0	0	
15	0	0	0	0	532	539	0	455	0	0	
0	0	0	0	0	530	531	0	442	0	0	
1	0	0	0	0	528	519	0	430	0	0	
2	0	0	0	0	527	502	0	422	0	0	
3	0	0	0	0	527	483	0	416	0	0	
4	0	0	0	0	528	465	0	415	0	0	
5	0	0	0	0	530	447	0	418	0	0	
6	0	0	0	0	533	433	0	425	0	0	
7	0	0	0	0	535	422	0	436	0	0	
8	0	0	0	0	537	418	0	449	0	0	
9	0	0	0	0	539	419	0	462	0	0	
10	0	0	0	0	540	427	0	476	0	0	
11	0	0	0	0	540	439	0	487	0	0	
12	0	0	0	0	540	455	0	496	0	0	
13	0	0	0	0	538	474	0	500	0	0	
14	0	0	0	0	536	492	0	501	0	0	
15	0	0	0	0	532	510	0	497	0	0	
0	0	0	0	0	529	524	0	488	0	0	
1	0	0	0	0	526	533	0	477	0	0	
2	0	0	0	0	523	537	0	463	0	0	
3	0	0	0	0	521	536	0	449	0	0	
4	0	0	0	0	520	529	0	435	0	0	
5	0	0	0	0	520	517	0	423	0	0	
6	0	0	0	0	521	501	0	415	0	0	
7	0	0	0	0	522	483	0	409	0	0	
8	0	0	0	0	526	464	0	408	0	0	
9	0	0	0	0	529	448	0	412	0	0	
10	0	0	0	0	533	434	0	421	0	0	
11	0	0	0	0	536	424	0	432	0	0	
12	0	0	0	0	539	421	0	446	0	0	
13	0	0	0	0	542	423	0	461	0	0	
14	0	0	0	0	543	431	0	476	0	0	
15	0	0	0	0	544	443	0	488	0	0	
0	0	0	0	0	544	459	0	497	0	0	
1	0	0	0	0	542	476	0	502	0	0	
2	0	0	0	0	540	495	0	502	0	0	
3	0	0	0	0	536	511	0	496	0	0	
4	0	0	0	0	530	523	0	486	0	0	
5	0	0	0	0	524	529	0	471	0	0	
6	0	0	0	0	518	529	0	452	0	0	
7	0	0	0	0	510	522	0	432	0	0	
8	0	0	0	0	503	508	0	411	0	0	
9	0	0	0	0	495	489	0	391	0	0	
10	0	0	0	0	487	464	0	374	0	0	
11	0	0	0	0	478	437	0	359	0	0	
12	0	0	0	0	471	409	0	347	0	0	
13	0	0	0	0	463	381	0	340	0	0	
14	0	0	0	0	454	356	0	337	0	0	
15	0	0	0	0	445	334	0	337	0	0	
0	0	0	0	0	436	317	0	339	0	0	
1	0	0	0	0	426	307	0	342	0	0	
2	0	0	0	0	415	301	0	345	0	0	
3	0	0	0	0	404	301	0	347	0	0	
4	0	0	0	0	391	304	0	345	0	0	
5	0	0	0	0	378	310	0	339	0	0	
6	0	0	0	0	363	317	0	328	0	0	
7	0	0	0	0	348	323	0	313	0	0	
8	0	0	0	0	332	326	0	293	0	0	
9	0	0	0	0	316	324	0	270	0	0	
10	0	0	0	0	300	317	0	243	0	0	
11	0	0	0	0	287	305	0	217	0	0	
12	0	0	0	0	275	288	0	192	0	0	
13	0	0	0	0	265	267	0	170	0	0	
14	0	0	0	0	258	243	0	153	0	0	
15	0	0	0	0	255	221	0	143	0	0	
0	0	0	0	0	257	200	0	140	0	0	
1	0	0	0	0	265	184	0	147	0	0	
2	0	0	0	0	277	175	0	162	0	0	
3	0	0	0	0	294	174	0	186	0	0	
4	0	0	0	0	314	182	0	217	0	0	
5	0	0	0	0	339	201	0	252	0	0	
6	0	0	0	0	366	229	0	291	0	0	
7	0	0	0	0	394	265	0	331	0	0	
8	0	0	0	0	423	307	0	370	0	0	
9	0	0	0	0	452	354	0	406	0	0	
10	0	0	0	0	480	402	0	436	0	0	
11	0	0	0	0	505	448	0	460	0	0	
12	0	0	0	0	526	489	0	477	0	0	
13	0	0	0	0	544	523	0	486	0	0	
14	0	0	0	0	559	547	0	489	0	0	
15	0	0	0	0	569	562	0	487	0	0	
0	0	0	0	0	576	567	0	481	0	0	
1	0	0	0	0	580	563	0	472	0	0	
2	0	0	0	0	581	551	0	464	0	0	
3	0	0	0	0	579	532	0	456	0	0	
4	0	0	0	0	577	512	0	451	0	0	
5	0	0	0	0	573	491	0	449	0	0	
6	0	0	0	0	568	471	0	450	0	0	
7	0	0	0	0	565	455	0	455	0	0	
8	0	0	0	0	560	445	0	462	0	0	
9	0	0	0	0	556	441	0	471	0	0	
10	0	0	0	0	553	444	0	481	0	0	
11	0	0	0	0	551	452	0	490	0	0	
12	0	0	0	0	549	465	0	497	0	0	
13	0	0	0	0	547	482	0	502	0	0	
14	0	0	0	0	546	501	0	504	0	0	
15	0	0	0	0	545	519	0	502	0	0	
0	0	0	0	0	544	535	0	497	0	0	
1	0	0	0	0	544	546	0	489	0	0	
2	0	0	0	0	545	552	0	479	0	0	
3	0	0	0	0	546	553	0	468	0	0	
4	0	0	0	0	547	548	0	458	0	0	
5	0	0	0	0	548	538	0	449	0	0	
6	0	0	0	0	551	524	0	442	0	0	
7	0	0	0	0	553	508	0	439	0	0	
8	0	0	0	0	556	491	0	439	0	0	
9	0	0	0	0	560	476	0	444	0	0	
10	0	0	0	0	563	463	0	452	0	0	
11	0	0	0	0	567	454	0	463	0	0	
12	0	0	0	0	570	451	0	476	0	0	
13	0	0	0	0	573	454	0	489	0	0	
14	0	0	0	0	575	461	0	502	0	0	
15	0	0	0	0	575	473	0	513	0	0	
0	0	0	0	0	575	489	0	521	0	0	
1	0	0	0	0	575	507	0	524	0	0	
2	0	0	0	0	574	526	0	524	0	0	
3	0	0	0	0	571	542	0	520	0	0	
4	0	0	0	0	568	556	0	512	0	0	
5	0	0	0	0	565	565	0	502	0	0	
6	0	0	0	0	562	567	0	489	0	0	
7	0	0	0	0	560	566	0	475	0	0	
8	0	0	0	0	558	557	0	463	0	0	
9	0	0	0	0	556	544	0	452	0	0	
10	0	0	0	0	556	527	0	444	0	0	
11	0	0	0	0	556	508	0	439	0	0	
12	0	0	0	0	557	488	0	439	0	0	
13	0	0	0	0	558	471	0	444	0	0	
14	0	0	0	0	560	456	0	452	0	0	
15	0	0	0	0	562	447	0	463	0	0	
0	0	0	0	0	563	443	0	476	0	0	
1	0	0	0	0	564	446	0	489	0	0	
2	0	0	0	0	566	454	0	502	0	0	
3	0	0	0	0	566	467	0	513	0	0	
4	0	0	0	0	566	483	0	521	0	0	
5	0	0	0	0	564	502	0	525	0	0	
6	0	0	0	0	563	521	0	525	0	0	
7	0	0	0	0	561	538	0	520	0	0	
8	0	0	0	0	560	552	0	512	0	0	
9	0	0	0	0	557	562	0	500	0	0	
10	0	0	0	0	555	566	0	486	0	0	
11	0	0	0	0	554	563	0	472	0	0	
12	0	0	0	0	552	556	0	459	0	0	
13	0	0	0	0	551	543	0	447	0	0	
14	0	0	0	0	551	526	0	439	0	0	
15	0	0	0	0	551	507	0	434	0	0	
0	0	0	0	0	551	488	0	433	0	0	
1	0	0	0	0	554	471	0	438	0	0	
2	0	0	0	0	556	457	0	446	0	0	
3	0	0	0	0	559	448	0	457	0	0	
4	0	0	0	0	561	443	0	470	0	0	
5	0	0	0	0	563	446	0	483	0	0	
6	0	0	0	0	564	454	0	497	0	0	
7	0	0	0	0	565	466	0	508	0	0	
8	0	0	0	0	565	481	0	517	0	0	
9	0	0	0	0	564	499	0	522	0	0	
10	0	0	0	0	562	518	0	522	0	0	
11	0	0	0	0	559	535	0	518	0	0	
12	0	0	0	0	556	548	0	510	0	0	
13	0	0	0	0	551	558	0	498	0	0	
14	0	0	0	0	549	560	0	485	0	0	
15	0	0	0	0	546	558	0	470	0	0	
0	0	0	0	0	543	550	0	456	0	0	
1	0	0	0	0	541	536	0	444	0	0	
2	0	0	0	0	540	519	0	435	0	0	
3	0	0	0	0	540	500	0	429	0	0	
4	0	0	0	0	540	481	0	427	0	0	
5	0	0	0	0	542	463	0	430	0	0	
6	0	0	0	0	543	449	0	436	0	0	
7	0	0	0	0	545	439	0	446	0	0	
8	0	0	0	0	546	435	0	458	0	0	
9	0	0	0	0	548	438	0	472	0	0	
10	0	0	0	0	548	445	0	484	0	0	
11	0	0	0	0	550	457	0	495	0	0	
12	0	0	0	0	549	473	0	503	0	0	
13	0	0	0	0	548	491	0	508	0	0	
14	0	0	0	0	547	510	0	508	0	0	
15	0	0	0	0	546	528	0	505	0	0	
0	0	0	0	0	544	542	0	498	0	0	
1	0	0	0	0	543	551	0	488	0	0	
2	0	0	0	0	541	555	0	476	0	0	
3	0	0	0	0	541	554	0	462	0	0	
4	0	0	0	0	540	546	0	449	0	0	
5	0	0	0	0	541	534	0	438	0	0	
6	0	0	0	0	542	517	0	430	0	0	
7	0	0	0	0	543	499	0	425	0	0	
8	0	0	0	0	546	481	0	426	0	0	
9	0	0	0	0	548	463	0	430	0	0	
10	0	0	0	0	551	450	0	439	0	0	
11	0	0	0	0	554	441	0	450	0	0	
12	0	0	0	0	556	437	0	464	0	0	
13	0	0	0	0	558	440	0	478	0	0	
14	0	0	0	0	559	448	0	492	0	0	
15	0	0	0	0	559	460	0	504	0	0	
0	0	0	0	0	558	476	0	512	0	0	
1	0	0	0	0	555	494	0	516	0	0	
2	0	0	0	0	552	511	0	516	0	0	
3	0	0	0	0	548	527	0	512	0	0	
4	0	0	0	0	544	539	0	503	0	0	
5	0	0	0	0	540	546	0	491	0	0	
6	0	0	0	0	536	549	0	476	0	0	
7	0	0	0	0	534	544	0	462	0	0	
8	0	0	0	0	531	536	0	448	0	0	
9	0	0	0	0	531	522	0	436	0	0	
10	0	0	0	0	530	505	0	427	0	0	
11	0	0	0	0	531	487	0	422	0	0	
12	0	0	0	0	534	468	0	422	0	0	
13	0	0	0	0	536	451	0	426	0	0	
14	0	0	0	0	540	438	0	435	0	0	
15	0	0	0	0	543	430	0	447	0	0	
0	0	0	0	0	545	426	0	460	0	0	
1	0	0	0	0	547	429	0	474	0	0	
2	0	0	0	0	548	436	0	487	0	0	
3	0	0	0	0	548	449	0	499	0	0	
4	0	0	0	0	548	464	0	508	0	0	
5	0	0	0	0	547	482	0	512	0	0	
6	0	0	0	0	545	500	0	511	0	0	
7	0	0	0	0	542	516	0	507	0	0	
8	0	0	0	0	539	529	0	499	0	0	
9	0	0	0	0	536	538	0	488	0	0	
10	0	0	0	0	533	541	0	475	0	0	
11	0	0	0	0	531	539	0	461	0	0	
12	0	0	0	0	530	530	0	448	0	0	
13	0	0	0	0	529	518	0	437	0	0	
14	0	0	0	0	530	502	0	429	0	0	
15	0	0	0	0	530	483	0	424	0	0	
0	0	0	0	0	533	465	0	423	0	0	
1	0	0	0	0	535	449	0	427	0	0	
2	0	0	0	0	538	435	0	435	0	0	
3	0	0	0	0	540	427	0	446	0	0	
4	0	0	0	0	542	423	0	458	0	0	
5	0	0	0	0	543	426	0	472	0	0	
6	0	0	0	0	544	433	0	484	0	0	
7	0	0	0	0	545	446	0	495	0	0	
8	0	0	0	0	544	463	0	503	0	0	
9	0	0	0	0	542	482	0	506	0	0	
10	0	0	0	0	541	500	0	506	0	0	
11	0	0	0	0	538	517	0	501	0	0	
12	0	0	0	0	535	531	0	492	0	0	
13	0	0	0	0	531	539	0	480	0	0	
14	0	0	0	0	528	543	0	467	0	0	
15	0	0	0	0	526	540	0	452	0	0	
0	0	0	0	0	525	532	0	439	0	0	
1	0	0	0	0	524	519	0	428	0	0	
2	0	0	0	0	524	502	0	420	0	0	
3	0	0	0	0	524	484	0	415	0	0	
4	0	0	0	0	527	465	0	415	0	0	
5	0	0	0	0	530	449	0	420	0	0	
6	0	0	0	0	534	435	0	429	0	0	
7	0	0	0	0	537	427	0	440	0	0	
8	0	0	0	0	540	424	0	453	0	0	
9	0	0	0	0	543	427	0	467	0	0	
10	0	0	0	0	546	436	0	480	0	0	
11	0	0	0	0	547	449	0	492	0	0	
12	0	0	0	0	547	466	0	500	0	0	
13	0	0	0	0	546	485	0	504	0	0	
14	0	0	0	0	545	504	0	504	0	0	
15	0	0	0	0	542	521	0	499	0	0	
0	0	0	0	0	539	535	0	491	0	0	
1	0	0	0	0	536	542	0	479	0	0	
2	0	0	0	0	532	545	0	465	0	0	
3	0	0	0	0	531	542	0	451	0	0	
4	0	0	0	0	529	532	0	438	0	0	
5	0	0	0	0	528	518	0	426	0	0	
6	0	0	0	0	527	499	0	418	0	0	
7	0	0	0	0	527	481	0	413	0	0	
8	0	0	0	0	529	461	0	413	0	0	
9	0	0	0	0	531	444	0	418	0	0	
10	0	0	0	0	534	430	0	427	0	0	
11	0	0	0	0	536	421	0	438	0	0	
12	0	0	0	0	537	419	0	451	0	0	
13	0	0	0	0	539	422	0	466	0	0	
14	0	0	0	0	540	431	0	480	0	0	
15	0	0	0	0	541	445	0	492	0	0	
0	0	0	0	0	541	462	0	500	0	0	
1	0	0	0	0	540	482	0	505	0	0	
2	0	0	0	0	539	502	0	506	0	0	
3	0	0	0	0	537	520	0	502	0	0	
4	0	0	0	0	536	535	0	495	0	0	
5	0	0	0	0	534	544	0	484	0	0	
6	0	0	0	0	532	548	0	471	0	0	
7	0	0	0	0	532	547	0	457	0	0	
8	0	0	0	0	532	539	0	445	0	0	
9	0	0	0	0	533	527	0	434	0	0	
10	0	0	0	0	535	511	0	427	0	0	
11	0	0	0	0	536	492	0	423	0	0	
12	0	0	0	0	539	475	0	423	0	0	
13	0	0	0	0	543	459	0	428	0	0	
14	0	0	0	0	546	446	0	437	0	0	
15	0	0	0	0	548	438	0	449	0	0	
0	0	0	0	0	551	435	0	463	0	0	
1	0	0	0	0	552	439	0	477	0	0	
2	0	0	0	0	553	448	0	491	0	0	
3	0	0	0	0	554	462	0	502	0	0	
4	0	0	0	0	552	479	0	511	0	0	
5	0	0	0	0	551	497	0	515	0	0	
6	0	0	0	0	550	516	0	515	0	0	
7	0	0	0	0	547	533	0	510	0	0	
8	0	0	0	0	545	546	0	501	0	0	
9	0	0	0	0	542	554	0	487	0	0	
10	0	0	0	0	540	556	0	475	0	0	
11	0	0	0	0	539	552	0	460	0	0	
12	0	0	0	0	538	542	0	446	0	0	
13	0	0	0	0	538	529	0	433	0	0	
14	0	0	0	0	538	511	0	425	0	0	
15	0	0	0	0	539	492	0	420	0	0	
0	0	0	0	0	540	473	0	420	0	0	
1	0	0	0	0	542	456	0	424	0	0	
2	0	0	0	0	544	443	0	432	0	0	
3	0	0	0	0	547	434	0	444	0	0	
4	0	0	0	0	548	431	0	457	0	0	
5	0	0	0	0	550	435	0	471	0	0	
6	0	0	0	0	551	444	0	485	0	0	
7	0	0	0	0	552	458	0	496	0	0	
8	0	0	0	0	552	475	0	504	0	0	
9	0	0	0	0	551	493	0	508	0	0	
10	0	0	0	0	550	512	0	508	0	0	
11	0	0	0	0	547	528	0	504	0	0	
12	0	0	0	0	544	541	0	495	0	0	
13	0	0	0	0	542	548	0	483	0	0	
14	0	0	0	0	539	550	0	470	0	0	
15	0	0	0	0	536	545	0	455	0	0	
0	0	0	0	0	535	536	0	443	0	0	
1	0	0	0	0	533	521	0	432	0	0	
2	0	0	0	0	533	504	0	424	0	0	
3	0	0	0	0	534	484	0	420	0	0	
4	0	0	0	0	536	466	0	420	0	0	
5	0	0	0	0	537	449	0	425	0	0	
6	0	0	0	0	540	436	0	434	0	0	
7	0	0	0	0	543	428	0	447	0	0	
8	0	0	0	0	545	426	0	460	0	0	
9	0	0	0	0	548	431	0	474	0	0	
10	0	0	0	0	550	440	0	487	0	0	
11	0	0	0	0	550	454	0	499	0	0	
12	0	0	0	0	551	472	0	507	0	0	
13	0	0	0	0	550	491	0	511	0	0	
14	0	0	0	0	549	511	0	511	0	0	
15	0	0	0	0	547	528	0	507	0	0	
0	0	0	0	0	544	541	0	498	0	0	
1	0	0	0	0	542	550	0	487	0	0	
2	0	0	0	0	540	552	0	474	0	0	
3	0	0	0	0	539	550	0	460	0	0	
4	0	0	0	0	538	541	0	448	0	0	
5	0	0	0	0	537	527	0	437	0	0	
6	0	0	0	0	538	511	0	429	0	0	
7	0	0	0	0	539	492	0	424	0	0	
8	0	0	0	0	541	473	0	424	0	0	
9	0	0	0	0	543	456	0	429	0	0	
10	0	0	0	0	545	443	0	437	0	0	
11	0	0	0	0	548	434	0	449	0	0	
12	0	0	0	0	550	431	0	462	0	0	
13	0	0	0	0	551	435	0	474	0	0	
14	0	0	0	0	552	443	0	487	0	0	
15	0	0	0	0	552	456	0	498	0	0	
0	0	0	0	0	552	473	0	505	0	0	
1	0	0	0	0	551	491	0	509	0	0	
2	0	0	0	0	548	510	0	508	0	0	
3	0	0	0	0	545	526	0	504	0	0	
4	0	0	0	0	543	540	0	495	0	0	
5	0	0	0	0	540	547	0	483	0	0	
6	0	0	0	0	537	549	0	470	0	0	
7	0	0	0	0	535	546	0	456	0	0	
8	0	0	0	0	534	537	0	444	0	0	
9	0	0	0	0	533	523	0	433	0	0	
10	0	0	0	0	534	505	0	426	0	0	
11	0	0	0	0	534	487	0	423	0	0	
12	0	0	0	0	536	468	0	424	0	0	
13	0	0	0	0	539	451	0	429	0	0	
14	0	0	0	0	542	438	0	439	0	0	
15	0	0	0	0	544	429	0	451	0	0	
0	0	0	0	0	546	427	0	464	0	0	
1	0	0	0	0	547	431	0	478	0	0	
2	0	0	0	0	548	440	0	491	0	0	
3	0	0	0	0	548	453	0	502	0	0	
4	0	0	0	0	549	471	0	509	0	0	
5	0	0	0	0	547	489	0	512	0	0	
6	0	0	0	0	546	508	0	511	0	0	
7	0	0	0	0	543	524	0	504	0	0	
8	0	0	0	0	541	537	0	494	0	0	
9	0	0	0	0	538	544	0	481	0	0	
10	0	0	0	0	536	546	0	467	0	0	
11	0	0	0	0	534	542	0	451	0	0	
12	0	0	0	0	532	532	0	438	0	0	
13	0	0	0	0	531	518	0	426	0	0	
14	0	0	0	0	531	501	0	418	0	0	
15	0	0	0	0	532	482	0	414	0	0	
0	0	0	0	0	534	464	0	415	0	0	
1	0	0	0	0	537	448	0	421	0	0	
2	0	0	0	0	540	435	0	431	0	0	
3	0	0	0	0	543	428	0	445	0	0	
4	0	0	0	0	545	425	0	460	0	0	
5	0	0	0	0	548	431	0	475	0	0	
6	0	0	0	0	550	440	0	489	0	0	
7	0	0	0	0	550	454	0	500	0	0	
8	0	0	0	0	550	471	0	509	0	0	
9	0	0	0	0	548	490	0	512	0	0	
10	0	0	0	0	545	508	0	511	0	0	
11	0	0	0	0	543	525	0	505	0	0	
12	0	0	0	0	539	537	0	495	0	0	
13	0	0	0	0	536	544	0	482	0	0	
14	0	0	0	0	533	546	0	468	0	0	
15	0	0	0	0	531	542	0	453	0	0	
0	0	0	0	0	529	532	0	440	0	0	
1	0	0	0	0	528	518	0	428	0	0	
2	0	0	0	0	530	500	0	420	0	0	
3	0	0	0	0	531	481	0	417	0	0	
4	0	0	0	0	534	463	0	417	0	0	
5	0	0	0	0	536	446	0	423	0	0	
6	0	0	0	0	540	433	0	432	0	0	
7	0	0	0	0	542	424	0	444	0	0	
8	0	0	0	0	545	423	0	458	0	0	
9	0	0	0	0	547	427	0	471	0	0	
10	0	0	0	0	548	436	0	484	0	0	
11	0	0	0	0	548	450	0	495	0	0	
12	0	0	0	0	548	467	0	502	0	0	
13	0	0	0	0	546	486	0	504	0	0	
14	0	0	0	0	544	505	0	502	0	0	
15	0	0	0	0	541	521	0	496	0	0	
0	0	0	0	0	537	534	0	487	0	0	
1	0	0	0	0	535	542	0	474	0	0	
2	0	0	0	0	531	542	0	460	0	0	
3	0	0	0	0	530	539	0	446	0	0	
4	0	0	0	0	528	530	0	433	0	0	
5	0	0	0	0	527	515	0	423	0	0	
6	0	0	0	0	528	499	0	416	0	0	
7	0	0	0	0	528	480	0	412	0	0	
8	0	0	0	0	530	461	0	414	0	0	
9	0	0	0	0	532	444	0	419	0	0	
10	0	0	0	0	535	432	0	429	0	0	
11	0	0	0	0	537	424	0	441	0	0	
12	0	0	0	0	540	421	0	455	0	0	
13	0	0	0	0	542	425	0	468	0	0	
14	0	0	0	0	543	434	0	481	0	0	
15	0	0	0	0	543	448	0	492	0	0	
0	0	0	0	0	543	465	0	500	0	0	
1	0	0	0	0	541	483	0	503	0	0	
2	0	0	0	0	539	503	0	502	0	0	
3	0	0	0	0	536	519	0	497	0	0	
4	0	0	0	0	534	532	0	487	0	0	
5	0	0	0	0	531	540	0	476	0	0	
6	0	0	0	0	528	542	0	462	0	0	
7	0	0	0	0	527	539	0	448	0	0	
8	0	0	0	0	525	529	0	435	0	0	
9	0	0	0	0	524	515	0	424	0	0	
10	0	0	0	0	524	497	0	416	0	0	
11	0	0	0	0	525	478	0	413	0	0	
12	0	0	0	0	527	459	0	413	0	0	
13	0	0	0	0	530	443	0	418	0	0	
14	0	0	0	0	534	430	0	427	0	0	
15	0	0	0	0	536	422	0	439	0	0	
0	0	0	0	0	538	420	0	452	0	0	
1	0	0	0	0	541	423	0	465	0	0	
2	0	0	0	0	541	432	0	479	0	0	
3	0	0	0	0	541	446	0	489	0	0	
4	0	0	0	0	540	463	0	497	0	0	
5	0	0	0	0	538	480	0	501	0	0	
6	0	0	0	0	535	498	0	499	0	0	
7	0	0	0	0	532	514	0	494	0	0	
8	0	0	0	0	528	526	0	485	0	0	
9	0	0	0	0	526	533	0	473	0	0	
10	0	0	0	0	523	535	0	459	0	0	
11	0	0	0	0	521	531	0	446	0	0	
12	0	0	0	0	521	521	0	433	0	0	
13	0	0	0	0	521	508	0	422	0	0	
14	0	0	0	0	522	491	0	415	0	0	
15	0	0	0	0	524	472	0	412	0	0	
0	0	0	0	0	527	455	0	412	0	0	
1	0	0	0	0	530	439	0	418	0	0	
2	0	0	0	0	533	427	0	427	0	0	
3	0	0	0	0	536	419	0	439	0	0	
4	0	0	0	0	538	418	0	453	0	0	
5	0	0	0	0	540	423	0	467	0	0	
6	0	0	0	0	540	432	0	480	0	0	
7	0	0	0	0	540	447	0	492	0	0	
8	0	0	0	0	540	464	0	499	0	0	
9	0	0	0	0	537	482	0	504	0	0	
10	0	0	0	0	535	501	0	503	0	0	
11	0	0	0	0	532	518	0	498	0	0	
12	0	0	0	0	529	530	0	490	0	0	
13	0	0	0	0	527	537	0	479	0	0	
14	0	0	0	0	524	539	0	465	0	0	
15	0	0	0	0	524	535	0	452	0	0	
0	0	0	0	0	523	526	0	440	0	0	
1	0	0	0	0	524	512	0	430	0	0	
2	0	0	0	0	526	495	0	423	0	0	
3	0	0	0	0	527	476	0	421	0	0	
4	0	0	0	0	531	459	0	422	0	0	
5	0	0	0	0	534	444	0	428	0	0	
6	0	0	0	0	538	432	0	438	0	0	
7	0	0	0	0	541	425	0	451	0	0	
8	0	0	0	0	543	424	0	465	0	0	
9	0	0	0	0	547	428	0	480	0	0	
10	0	0	0	0	548	438	0	492	0	0	
11	0	0	0	0	548	452	0	504	0	0	
12	0	0	0	0	548	470	0	511	0	0	
13	0	0	0	0	547	488	0	514	0	0	
14	0	0	0	0	545	506	0	513	0	0	
15	0	0	0	0	542	522	0	507	0	0	
0	0	0	0	0	538	533	0	497	0	0	
1	0	0	0	0	536	540	0	484	0	0	
2	0	0	0	0	532	540	0	469	0	0	
3	0	0	0	0	530	536	0	454	0	0	
4	0	0	0	0	528	525	0	440	0	0	
5	0	0	0	0	527	510	0	429	0	0	
6	0	0	0	0	527	492	0	421	0	0	
7	0	0	0	0	528	472	0	417	0	0	
8	0	0	0	0	529	454	0	418	0	0	
9	0	0	0	0	532	438	0	423	0	0	
10	0	0	0	0	534	425	0	433	0	0	
11	0	0	0	0	537	418	0	446	0	0	
12	0	0	0	0	539	416	0	460	0	0	
13	0	0	0	0	540	422	0	474	0	0	
14	0	0	0	0	541	432	0	487	0	0	
15	0	0	0	0	542	446	0	499	0	0	
0	0	0	0	0	541	464	0	507	0	0	
1	0	0	0	0	540	483	0	510	0	0	
2	0	0	0	0	538	502	0	509	0	0	
3	0	0	0	0	536	519	0	504	0	0	
4	0	0	0	0	534	532	0	495	0	0	
5	0	0	0	0	531	540	0	483	0	0	
6	0	0	0	0	530	541	0	468	0	0	
7	0	0	0	0	529	537	0	454	0	0	
8	0	0	0	0	529	527	0	441	0	0	
9	0	0	0	0	529	513	0	430	0	0	
10	0	0	0	0	530	496	0	423	0	0	
11	0	0	0	0	532	476	0	419	0	0	
12	0	0	0	0	534	459	0	419	0	0	
13	0	0	0	0	537	443	0	425	0	0	
14	0	0	0	0	540	431	0	433	0	0	
15	0	0	0	0	542	423	0	446	0	0	
0	0	0	0	0	543	421	0	459	0	0	
1	0	0	0	0	544	425	0	472	0	0	
2	0	0	0	0	544	435	0	484	0	0	
3	0	0	0	0	544	448	0	495	0	0	
4	0	0	0	0	543	465	0	502	0	0	
5	0	0	0	0	540	483	0	505	0	0	
6	0	0	0	0	537	501	0	504	0	0	
7	0	0	0	0	535	517	0	498	0	0	
8	0	0	0	0	531	529	0	489	0	0	
9	0	0	0	0	529	536	0	477	0	0	
10	0	0	0	0	527	537	0	464	0	0	
11	0	0	0	0	526	533	0	450	0	0	
12	0	0	0	0	526	524	0	438	0	0	
13	0	0	0	0	527	510	0	427	0	0	
14	0	0	0	0	527	492	0	421	0	0	
15	0	0	0	0	529	473	0	418	0	0	
0	0	0	0	0	532	456	0	419	0	0	
1	0	0	0	0	535	441	0	425	0	0	
2	0	0	0	0	538	429	0	434	0	0	
3	0	0	0	0	540	423	0	447	0	0	
4	0	0	0	0	543	421	0	461	0	0	
5	0	0	0	0	545	427	0	475	0	0	
6	0	0	0	0	546	437	0	488	0	0	
7	0	0	0	0	547	451	0	499	0	0	
8	0	0	0	0	546	468	0	507	0	0	
9	0	0	0	0	544	487	0	509	0	0	
10	0	0	0	0	543	505	0	508	0	0	
11	0	0	0	0	539	520	0	502	0	0	
12	0	0	0	0	536	532	0	492	0	0	
13	0	0	0	0	532	539	0	480	0	0	
14	0	0	0	0	530	539	0	466	0	0	
15	0	0	0	0	527	535	0	451	0	0	
0	0	0	0	0	526	524	0	439	0	0	
1	0	0	0	0	526	510	0	428	0	0	
2	0	0	0	0	525	493	0	421	0	0	
3	0	0	0	0	526	473	0	417	0	0	
4	0	0	0	0	528	456	0	418	0	0	
5	0	0	0	0	530	440	0	423	0	0	
6	0	0	0	0	533	428	0	433	0	0	
7	0	0	0	0	536	421	0	446	0	0	
8	0	0	0	0	539	420	0	460	0	0	
9	0	0	0	0	541	425	0	474	0	0	
10	0	0	0	0	543	435	0	487	0	0	
11	0	0	0	0	543	449	0	498	0	0	
12	0	0	0	0	543	467	0	506	0	0	
13	0	0	0	0	542	486	0	509	0	0	
14	0	0	0	0	540	504	0	508	0	0	
15	0	0	0	0	537	519	0	501	0	0	
0	0	0	0	0	534	530	0	491	0	0	
1	0	0	0	0	530	535	0	478	0	0	
2	0	0	0	0	526	535	0	463	0	0	
3	0	0	0	0	523	528	0	448	0	0	
4	0	0	0	0	519	516	0	433	0	0	
5	0	0	0	0	516	499	0	422	0	0	
6	0	0	0	0	514	480	0	414	0	0	
7	0	0	0	0	513	460	0	409	0	0	
8	0	0	0	0	513	441	0	409	0	0	
9	0	0	0	0	514	424	0	415	0	0	
10	0	0	0	0	516	412	0	423	0	0	
11	0	0	0	0	518	404	0	435	0	0	
12	0	0	0	0	520	404	0	449	0	0	
13	0	0	0	0	522	409	0	462	0	0	
14	0	0	0	0	524	420	0	475	0	0	
15	0	0	0	0	525	436	0	486	0	0	
0	0	0	0	0	526	453	0	492	0	0	
1	0	0	0	0	525	472	0	495	0	0	
2	0	0	0	0	523	491	0	492	0	0	
3	0	0	0	0	521	507	0	486	0	0	
4	0	0	0	0	518	519	0	476	0	0	
5	0	0	0	0	515	526	0	463	0	0	
6	0	0	0	0	512	526	0	449	0	0	
7	0	0	0	0	511	521	0	434	0	0	
8	0	0	0	0	509	510	0	422	0	0	
9	0	0	0	0	508	496	0	411	0	0	
10	0	0	0	0	509	478	0	404	0	0	
11	0	0	0	0	510	459	0	401	0	0	
12	0	0	0	0	513	441	0	403	0	0	
13	0	0	0	0	516	425	0	411	0	0	
14	0	0	0	0	519	414	0	421	0	0	
15	0	0	0	0	523	407	0	435	0	0	
0	0	0	0	0	526	407	0	449	0	0	
1	0	0	0	0	529	412	0	465	0	0	
2	0	0	0	0	532	423	0	479	0	0	
3	0	0	0	0	533	439	0	491	0	0	
4	0	0	0	0	534	457	0	499	0	0	
5	0	0	0	0	532	477	0	503	0	0	
6	0	0	0	0	532	496	0	503	0	0	
7	0	0	0	0	529	513	0	497	0	0	
8	0	0	0	0	527	525	0	488	0	0	
9	0	0	0	0	524	531	0	476	0	0	
10	0	0	0	0	521	533	0	462	0	0	
11	0	0	0	0	521	528	0	447	0	0	
12	0	0	0	0	519	517	0	434	0	0	
13	0	0	0	0	519	502	0	423	0	0	
14	0	0	0	0	519	484	0	415	0	0	
15	0	0	0	0	520	465	0	412	0	0	
0	0	0	0	0	523	447	0	413	0	0	
1	0	0	0	0	525	431	0	418	0	0	
2	0	0	0	0	528	419	0	428	0	0	
3	0	0	0	0	531	412	0	440	0	0	
4	0	0	0	0	533	412	0	454	0	0	
5	0	0	0	0	535	417	0	468	0	0	
6	0	0	0	0	536	427	0	481	0	0	
7	0	0	0	0	536	442	0	492	0	0	
8	0	0	0	0	535	459	0	499	0	0	
9	0	0	0	0	532	478	0	502	0	0	
