# OpenSignals Text File Format. Version 1
# {"": {"position": 0, "device": "", "device name": "", "device connection": "", "sampling rate": 1000, "resolution": [4, 1, 1, 1, 1, 10, 10, 10, 10, 6, 6], "firmware version": 1281, "comments": "", "keywords": "", "mode": 0, "sync interval": 2, "date": "", "time": "", "channels": [1, 2, 3, 4, 5, 6], "sensor": ["RAW", "RAW", "RAW", "RAW", "RAW", "RAW"], "label": ["A1", "A2", "A3", "A4", "A5", "A6"], "column": ["nSeq", "I1", "I2", "O1", "O2", "A1", "A2", "A3", "A4", "A5", "A6"], "special": [{}, {}, {}, {}, {}, {}], "digital IO": [0, 0, 1, 1]}}
# EndOfHeader
0	0	0	0	0	537	499	1021	0	0	0	
1	0	0	0	0	523	490	1021	0	0	0	
2	0	0	0	0	508	479	1021	0	0	0	
3	0	0	0	0	495	468	1021	0	0	0	
4	0	0	0	0	484	457	1021	0	0	0	
5	0	0	0	0	476	448	1021	0	0	0	
6	0	0	0	0	471	440	1021	0	0	0	
7	0	0	0	0	467	433	1021	0	0	0	
8	0	0	0	0	466	429	1021	0	0	0	
9	0	0	0	0	466	425	1021	0	0	0	
10	0	0	0	0	467	424	1021	0	0	0	
11	0	0	0	0	467	424	1021	0	0	0	
12	0	0	0	0	467	424	1021	0	0	0	
13	0	0	0	0	466	425	1021	0	0	0	
14	0	0	0	0	467	428	1021	0	0	0	
15	0	0	0	0	468	431	1021	0	0	0	
0	0	0	0	0	472	436	1021	0	0	0	
1	0	0	0	0	479	443	1021	0	0	0	
2	0	0	0	0	489	452	1021	0	0	0	
3	0	0	0	0	502	462	1021	0	0	0	
4	0	0	0	0	515	473	1021	0	0	0	
5	0	0	0	0	530	485	1021	0	0	0	
6	0	0	0	0	543	495	1021	0	0	0	
7	0	0	0	0	554	503	1021	0	0	0	
8	0	0	0	0	562	509	1021	0	0	0	
9	0	0	0	0	568	512	1021	0	0	0	
10	0	0	0	0	570	512	1021	0	0	0	
11	0	0	0	0	571	509	1021	0	0	0	
12	0	0	0	0	570	502	1021	0	0	0	
13	0	0	0	0	567	493	1021	0	0	0	
14	0	0	0	0	562	482	1021	0	0	0	
15	0	0	0	0	553	470	1021	0	0	0	
0	0	0	0	0	542	457	1021	0	0	0	
1	0	0	0	0	527	444	1021	0	0	0	
2	0	0	0	0	512	433	1021	0	0	0	
3	0	0	0	0	497	424	1021	0	0	0	
4	0	0	0	0	482	417	1021	0	0	0	
5	0	0	0	0	470	413	1021	0	0	0	
6	0	0	0	0	461	412	1021	0	0	0	
7	0	0	0	0	455	413	1021	0	0	0	
8	0	0	0	0	455	417	1021	0	0	0	
9	0	0	0	0	457	423	1021	0	0	0	
10	0	0	0	0	465	431	1021	0	0	0	
11	0	0	0	0	475	440	1021	0	0	0	
12	0	0	0	0	486	449	1021	0	0	0	
13	0	0	0	0	497	458	1021	0	0	0	
14	0	0	0	0	507	465	1021	0	0	0	
15	0	0	0	0	515	470	1021	0	0	0	
0	0	0	0	0	521	473	1021	0	0	0	
1	0	0	0	0	523	474	1020	0	0	0	
2	0	0	0	0	523	473	1021	0	0	0	
3	0	0	0	0	521	471	1021	0	0	0	
4	0	0	0	0	519	468	1021	0	0	0	
5	0	0	0	0	515	465	1021	0	0	0	
6	0	0	0	0	514	463	1021	0	0	0	
7	0	0	0	0	514	464	1021	0	0	0	
8	0	0	0	0	516	466	1021	0	0	0	
9	0	0	0	0	522	472	1021	0	0	0	
10	0	0	0	0	529	480	1021	0	0	0	
11	0	0	0	0	539	491	1020	0	0	0	
12	0	0	0	0	548	503	1021	0	0	0	
13	0	0	0	0	556	515	1021	0	0	0	
14	0	0	0	0	561	524	1021	0	0	0	
15	0	0	0	0	562	530	1021	0	0	0	
0	0	0	0	0	559	531	1021	0	0	0	
1	0	0	0	0	551	527	1021	0	0	0	
2	0	0	0	0	540	518	1021	0	0	0	
3	0	0	0	0	526	504	1021	0	0	0	
4	0	0	0	0	512	486	1021	0	0	0	
5	0	0	0	0	498	466	1021	0	0	0	
6	0	0	0	0	485	445	1021	0	0	0	
7	0	0	0	0	475	426	1021	0	0	0	
8	0	0	0	0	467	410	1021	0	0	0	
9	0	0	0	0	463	396	1021	0	0	0	
10	0	0	0	0	462	387	1020	0	0	0	
11	0	0	0	0	463	382	1021	0	0	0	
12	0	0	0	0	465	381	1021	0	0	0	
13	0	0	0	0	468	383	1021	0	0	0	
14	0	0	0	0	471	387	1021	0	0	0	
15	0	0	0	0	472	394	1021	0	0	0	
0	0	0	0	0	473	402	1021	0	0	0	
1	0	0	0	0	474	412	1021	0	0	0	
2	0	0	0	0	475	422	1021	0	0	0	
3	0	0	0	0	475	431	1020	0	0	0	
4	0	0	0	0	476	440	1020	0	0	0	
5	0	0	0	0	479	449	1021	0	0	0	
6	0	0	0	0	483	456	1021	0	0	0	
7	0	0	0	0	488	464	1021	0	0	0	
8	0	0	0	0	496	472	1021	0	0	0	
9	0	0	0	0	505	480	1021	0	0	0	
10	0	0	0	0	518	488	1021	0	0	0	
11	0	0	0	0	532	497	1021	0	0	0	
12	0	0	0	0	546	505	1021	0	0	0	
13	0	0	0	0	559	511	1021	0	0	0	
14	0	0	0	0	568	514	1021	0	0	0	
15	0	0	0	0	574	515	1021	0	0	0	
0	0	0	0	0	575	514	1021	0	0	0	
1	0	0	0	0	572	510	1021	0	0	0	
2	0	0	0	0	565	504	1021	0	0	0	
3	0	0	0	0	555	496	1021	0	0	0	
4	0	0	0	0	543	487	1021	0	0	0	
5	0	0	0	0	527	476	1021	0	0	0	
6	0	0	0	0	512	465	1021	0	0	0	
7	0	0	0	0	497	454	1021	0	0	0	
8	0	0	0	0	483	444	1020	0	0	0	
9	0	0	0	0	473	435	1021	0	0	0	
10	0	0	0	0	465	428	1021	0	0	0	
11	0	0	0	0	461	423	1021	0	0	0	
12	0	0	0	0	460	421	1021	0	0	0	
13	0	0	0	0	463	421	1021	0	0	0	
14	0	0	0	0	467	422	1021	0	0	0	
15	0	0	0	0	474	425	1021	0	0	0	
0	0	0	0	0	481	429	1021	0	0	0	
1	0	0	0	0	488	433	1021	0	0	0	
2	0	0	0	0	495	437	1020	0	0	0	
3	0	0	0	0	501	440	1021	0	0	0	
4	0	0	0	0	505	443	1021	0	0	0	
5	0	0	0	0	507	445	1021	0	0	0	
6	0	0	0	0	507	446	1021	0	0	0	
7	0	0	0	0	505	448	1021	0	0	0	
8	0	0	0	0	503	448	1021	0	0	0	
9	0	0	0	0	500	451	1021	0	0	0	
10	0	0	0	0	496	453	1021	0	0	0	
11	0	0	0	0	494	456	1020	0	0	0	
12	0	0	0	0	492	461	1021	0	0	0	
13	0	0	0	0	494	467	1021	0	0	0	
14	0	0	0	0	497	475	1021	0	0	0	
15	0	0	0	0	503	484	1021	0	0	0	
0	0	0	0	0	511	494	1021	0	0	0	
1	0	0	0	0	520	503	1021	0	0	0	
2	0	0	0	0	529	510	1021	0	0	0	
3	0	0	0	0	536	515	1021	0	0	0	
4	0	0	0	0	541	516	1021	0	0	0	
5	0	0	0	0	542	513	1021	0	0	0	
6	0	0	0	0	540	507	1021	0	0	0	
7	0	0	0	0	537	497	1021	0	0	0	
8	0	0	0	0	531	486	1021	0	0	0	
9	0	0	0	0	526	474	1021	0	0	0	
10	0	0	0	0	520	462	1021	0	0	0	
11	0	0	0	0	515	451	1021	0	0	0	
12	0	0	0	0	511	443	1021	0	0	0	
13	0	0	0	0	509	438	1021	0	0	0	
14	0	0	0	0	509	436	1021	0	0	0	
15	0	0	0	0	510	438	1021	0	0	0	
0	0	0	0	0	513	442	1021	0	0	0	
1	0	0	0	0	516	448	1021	0	0	0	
2	0	0	0	0	521	455	1021	0	0	0	
3	0	0	0	0	525	463	1021	0	0	0	
4	0	0	0	0	528	470	1021	0	0	0	
5	0	0	0	0	529	476	1021	0	0	0	
6	0	0	0	0	529	478	1021	0	0	0	
7	0	0	0	0	526	478	1021	0	0	0	
8	0	0	0	0	520	475	1021	0	0	0	
9	0	0	0	0	512	470	1020	0	0	0	
10	0	0	0	0	502	461	1020	0	0	0	
11	0	0	0	0	492	451	1021	0	0	0	
12	0	0	0	0	480	441	1021	0	0	0	
13	0	0	0	0	470	431	1021	0	0	0	
14	0	0	0	0	460	422	1021	0	0	0	
15	0	0	0	0	453	414	1021	0	0	0	
0	0	0	0	0	449	409	1021	0	0	0	
1	0	0	0	0	448	407	1021	0	0	0	
2	0	0	0	0	449	408	1021	0	0	0	
3	0	0	0	0	455	412	1021	0	0	0	
4	0	0	0	0	463	418	1021	0	0	0	
5	0	0	0	0	473	428	1021	0	0	0	
6	0	0	0	0	485	438	1021	0	0	0	
7	0	0	0	0	499	451	1021	0	0	0	
8	0	0	0	0	513	464	1021	0	0	0	
9	0	0	0	0	527	477	1021	0	0	0	
10	0	0	0	0	539	489	1021	0	0	0	
11	0	0	0	0	548	499	1021	0	0	0	
12	0	0	0	0	552	505	1021	0	0	0	
13	0	0	0	0	552	509	1021	0	0	0	
14	0	0	0	0	547	508	1021	0	0	0	
15	0	0	0	0	539	504	1021	0	0	0	
0	0	0	0	0	528	497	1021	0	0	0	
1	0	0	0	0	516	487	1021	0	0	0	
2	0	0	0	0	504	476	1020	0	0	0	
3	0	0	0	0	492	465	1020	0	0	0	
4	0	0	0	0	483	453	1021	0	0	0	
5	0	0	0	0	478	443	1021	0	0	0	
6	0	0	0	0	476	435	1021	0	0	0	
7	0	0	0	0	479	428	1021	0	0	0	
8	0	0	0	0	487	424	1021	0	0	0	
9	0	0	0	0	498	423	1021	0	0	0	
10	0	0	0	0	510	426	1021	0	0	0	
11	0	0	0	0	521	430	1021	0	0	0	
12	0	0	0	0	531	436	1021	0	0	0	
13	0	0	0	0	538	443	1020	0	0	0	
14	0	0	0	0	543	450	1021	0	0	0	
15	0	0	0	0	545	457	1021	0	0	0	
0	0	0	0	0	545	463	1021	0	0	0	
1	0	0	0	0	543	467	1021	0	0	0	
2	0	0	0	0	539	470	1021	0	0	0	
3	0	0	0	0	534	471	1021	0	0	0	
4	0	0	0	0	527	471	1021	0	0	0	
5	0	0	0	0	520	470	1021	0	0	0	
6	0	0	0	0	514	468	1021	0	0	0	
7	0	0	0	0	508	467	1020	0	0	0	
8	0	0	0	0	503	465	1021	0	0	0	
9	0	0	0	0	498	464	1021	0	0	0	
10	0	0	0	0	492	463	1021	0	0	0	
11	0	0	0	0	485	462	1020	0	0	0	
12	0	0	0	0	479	460	1021	0	0	0	
13	0	0	0	0	472	459	1021	0	0	0	
14	0	0	0	0	464	458	1021	0	0	0	
15	0	0	0	0	460	458	1021	0	0	0	
0	0	0	0	0	457	457	1021	0	0	0	
1	0	0	0	0	457	458	1021	0	0	0	
2	0	0	0	0	462	458	1021	0	0	0	
3	0	0	0	0	469	459	1021	0	0	0	
4	0	0	0	0	479	460	1021	0	0	0	
5	0	0	0	0	490	460	1020	0	0	0	
6	0	0	0	0	502	459	1021	0	0	0	
7	0	0	0	0	512	458	1021	0	0	0	
8	0	0	0	0	521	455	1021	0	0	0	
9	0	0	0	0	527	452	1021	0	0	0	
10	0	0	0	0	527	447	1021	0	0	0	
11	0	0	0	0	524	441	1021	0	0	0	
12	0	0	0	0	517	434	1021	0	0	0	
13	0	0	0	0	507	427	1021	0	0	0	
14	0	0	0	0	496	420	1021	0	0	0	
15	0	0	0	0	485	415	1021	0	0	0	
0	0	0	0	0	475	411	1021	0	0	0	
1	0	0	0	0	466	410	1021	0	0	0	
2	0	0	0	0	460	411	1021	0	0	0	
3	0	0	0	0	457	414	1021	0	0	0	
4	0	0	0	0	458	419	1021	0	0	0	
5	0	0	0	0	462	427	1021	0	0	0	
6	0	0	0	0	470	436	1021	0	0	0	
7	0	0	0	0	481	447	1021	0	0	0	
8	0	0	0	0	493	457	1021	0	0	0	
9	0	0	0	0	506	467	1021	0	0	0	
10	0	0	0	0	519	477	1021	0	0	0	
11	0	0	0	0	531	486	1021	0	0	0	
12	0	0	0	0	542	493	1021	0	0	0	
13	0	0	0	0	551	499	1021	0	0	0	
14	0	0	0	0	556	503	1021	0	0	0	
15	0	0	0	0	559	505	1021	0	0	0	
0	0	0	0	0	559	506	1021	0	0	0	
1	0	0	0	0	555	505	1021	0	0	0	
2	0	0	0	0	548	502	1021	0	0	0	
3	0	0	0	0	540	498	1020	0	0	0	
4	0	0	0	0	529	494	1021	0	0	0	
5	0	0	0	0	519	488	1021	0	0	0	
6	0	0	0	0	509	482	1021	0	0	0	
7	0	0	0	0	499	475	1021	0	0	0	
8	0	0	0	0	490	468	1021	0	0	0	
9	0	0	0	0	483	461	1021	0	0	0	
10	0	0	0	0	479	455	1021	0	0	0	
11	0	0	0	0	476	448	1021	0	0	0	
12	0	0	0	0	476	442	1021	0	0	0	
13	0	0	0	0	477	436	1021	0	0	0	
14	0	0	0	0	479	432	1021	0	0	0	
15	0	0	0	0	483	428	1021	0	0	0	
0	0	0	0	0	487	426	1021	0	0	0	
1	0	0	0	0	491	426	1021	0	0	0	
2	0	0	0	0	495	427	1021	0	0	0	
3	0	0	0	0	499	430	1021	0	0	0	
4	0	0	0	0	502	434	1021	0	0	0	
5	0	0	0	0	504	439	1021	0	0	0	
6	0	0	0	0	506	444	1021	0	0	0	
7	0	0	0	0	508	450	1020	0	0	0	
8	0	0	0	0	511	455	1021	0	0	0	
9	0	0	0	0	515	460	1021	0	0	0	
10	0	0	0	0	521	465	1021	0	0	0	
11	0	0	0	0	527	469	1021	0	0	0	
12	0	0	0	0	535	472	1021	0	0	0	
13	0	0	0	0	540	472	1021	0	0	0	
14	0	0	0	0	543	471	1021	0	0	0	
15	0	0	0	0	543	468	1021	0	0	0	
0	0	0	0	0	539	462	1021	0	0	0	
1	0	0	0	0	531	455	1021	0	0	0	
2	0	0	0	0	520	448	1021	0	0	0	
3	0	0	0	0	507	439	1021	0	0	0	
4	0	0	0	0	492	431	1021	0	0	0	
5	0	0	0	0	478	423	1021	0	0	0	
6	0	0	0	0	465	417	1021	0	0	0	
7	0	0	0	0	454	414	1021	0	0	0	
8	0	0	0	0	446	412	1021	0	0	0	
9	0	0	0	0	442	413	1021	0	0	0	
10	0	0	0	0	442	416	1021	0	0	0	
11	0	0	0	0	446	421	1021	0	0	0	
12	0	0	0	0	453	428	1021	0	0	0	
13	0	0	0	0	462	435	1021	0	0	0	
14	0	0	0	0	471	444	1021	0	0	0	
15	0	0	0	0	481	451	1021	0	0	0	
0	0	0	0	0	489	459	1021	0	0	0	
1	0	0	0	0	498	465	1021	0	0	0	
2	0	0	0	0	506	472	1021	0	0	0	
3	0	0	0	0	513	477	1021	0	0	0	
4	0	0	0	0	519	483	1021	0	0	0	
5	0	0	0	0	525	487	1021	0	0	0	
6	0	0	0	0	530	491	1021	0	0	0	
7	0	0	0	0	534	494	1021	0	0	0	
8	0	0	0	0	537	496	1021	0	0	0	
9	0	0	0	0	539	496	1021	0	0	0	
10	0	0	0	0	539	494	1021	0	0	0	
11	0	0	0	0	539	490	1021	0	0	0	
12	0	0	0	0	537	485	1021	0	0	0	
13	0	0	0	0	535	478	1021	0	0	0	
14	0	0	0	0	532	472	1021	0	0	0	
15	0	0	0	0	530	464	1021	0	0	0	
0	0	0	0	0	528	456	1021	0	0	0	
1	0	0	0	0	526	450	1021	0	0	0	
2	0	0	0	0	526	444	1021	0	0	0	
3	0	0	0	0	526	439	1021	0	0	0	
4	0	0	0	0	525	434	1021	0	0	0	
5	0	0	0	0	524	430	1021	0	0	0	
6	0	0	0	0	520	426	1021	0	0	0	
7	0	0	0	0	513	423	1021	0	0	0	
8	0	0	0	0	505	421	1021	0	0	0	
9	0	0	0	0	495	420	1021	0	0	0	
10	0	0	0	0	483	420	1021	0	0	0	
11	0	0	0	0	473	422	1021	0	0	0	
12	0	0	0	0	463	424	1021	0	0	0	
13	0	0	0	0	456	428	1021	0	0	0	
14	0	0	0	0	451	432	1021	0	0	0	
15	0	0	0	0	449	436	1021	0	0	0	
0	0	0	0	0	452	442	1021	0	0	0	
1	0	0	0	0	458	449	1021	0	0	0	
2	0	0	0	0	469	456	1021	0	0	0	
3	0	0	0	0	482	463	1021	0	0	0	
4	0	0	0	0	497	471	1021	0	0	0	
5	0	0	0	0	512	477	1021	0	0	0	
6	0	0	0	0	524	482	1021	0	0	0	
7	0	0	0	0	534	485	1021	0	0	0	
8	0	0	0	0	540	486	1021	0	0	0	
9	0	0	0	0	542	484	1020	0	0	0	
10	0	0	0	0	540	480	1021	0	0	0	
11	0	0	0	0	532	475	1021	0	0	0	
12	0	0	0	0	523	467	1021	0	0	0	
13	0	0	0	0	511	459	1021	0	0	0	
14	0	0	0	0	498	450	1021	0	0	0	
15	0	0	0	0	486	441	1021	0	0	0	
0	0	0	0	0	475	433	1021	0	0	0	
1	0	0	0	0	465	425	1021	0	0	0	
2	0	0	0	0	455	418	1021	0	0	0	
3	0	0	0	0	448	412	1021	0	0	0	
4	0	0	0	0	441	405	1021	0	0	0	
5	0	0	0	0	434	398	1021	0	0	0	
6	0	0	0	0	427	390	1021	0	0	0	
7	0	0	0	0	419	382	1021	0	0	0	
8	0	0	0	0	410	373	1021	0	0	0	
9	0	0	0	0	402	363	1021	0	0	0	
10	0	0	0	0	393	352	1021	0	0	0	
11	0	0	0	0	382	341	1021	0	0	0	
12	0	0	0	0	369	329	1021	0	0	0	
13	0	0	0	0	355	316	1021	0	0	0	
14	0	0	0	0	339	301	1021	0	0	0	
15	0	0	0	0	323	287	1021	0	0	0	
0	0	0	0	0	307	272	1021	0	0	0	
1	0	0	0	0	291	258	1020	0	0	0	
2	0	0	0	0	278	245	1020	0	0	0	
3	0	0	0	0	268	234	1021	0	0	0	
4	0	0	0	0	262	226	1021	0	0	0	
5	0	0	0	0	260	222	1021	0	0	0	
6	0	0	0	0	264	220	1021	0	0	0	
7	0	0	0	0	272	223	1021	0	0	0	
8	0	0	0	0	284	230	1021	0	0	0	
9	0	0	0	0	300	240	1021	0	0	0	
10	0	0	0	0	318	253	1021	0	0	0	
11	0	0	0	0	338	268	1020	0	0	0	
12	0	0	0	0	359	284	1020	0	0	0	
13	0	0	0	0	383	302	1021	0	0	0	
14	0	0	0	0	406	322	1021	0	0	0	
15	0	0	0	0	430	342	1021	0	0	0	
0	0	0	0	0	454	362	1021	0	0	0	
1	0	0	0	0	476	383	1021	0	0	0	
2	0	0	0	0	496	403	1021	0	0	0	
3	0	0	0	0	514	423	1021	0	0	0	
4	0	0	0	0	528	440	1021	0	0	0	
5	0	0	0	0	538	455	1021	0	0	0	
6	0	0	0	0	544	468	1021	0	0	0	
7	0	0	0	0	548	478	1021	0	0	0	
8	0	0	0	0	548	485	1021	0	0	0	
9	0	0	0	0	545	489	1021	0	0	0	
10	0	0	0	0	541	492	1020	0	0	0	
11	0	0	0	0	535	492	1020	0	0	0	
12	0	0	0	0	529	492	1021	0	0	0	
13	0	0	0	0	523	489	1021	0	0	0	
14	0	0	0	0	516	485	1021	0	0	0	
15	0	0	0	0	509	479	1021	0	0	0	
0	0	0	0	0	503	472	1021	0	0	0	
1	0	0	0	0	498	464	1021	0	0	0	
2	0	0	0	0	494	456	1021	0	0	0	
3	0	0	0	0	490	448	1021	0	0	0	
4	0	0	0	0	487	441	1021	0	0	0	
5	0	0	0	0	484	434	1021	0	0	0	
6	0	0	0	0	481	429	1021	0	0	0	
7	0	0	0	0	478	425	1021	0	0	0	
8	0	0	0	0	476	423	1021	0	0	0	
9	0	0	0	0	474	423	1021	0	0	0	
10	0	0	0	0	474	424	1021	0	0	0	
11	0	0	0	0	478	428	1021	0	0	0	
12	0	0	0	0	485	435	1021	0	0	0	
13	0	0	0	0	496	443	1021	0	0	0	
14	0	0	0	0	509	452	1021	0	0	0	
15	0	0	0	0	523	463	1021	0	0	0	
0	0	0	0	0	537	474	1021	0	0	0	
1	0	0	0	0	550	484	1021	0	0	0	
2	0	0	0	0	560	494	1021	0	0	0	
3	0	0	0	0	568	501	1021	0	0	0	
4	0	0	0	0	572	507	1020	0	0	0	
5	0	0	0	0	575	512	1021	0	0	0	
6	0	0	0	0	575	514	1021	0	0	0	
7	0	0	0	0	571	515	1021	0	0	0	
8	0	0	0	0	566	513	1021	0	0	0	
9	0	0	0	0	558	508	1021	0	0	0	
10	0	0	0	0	547	502	1021	0	0	0	
11	0	0	0	0	535	494	1021	0	0	0	
12	0	0	0	0	521	484	1021	0	0	0	
13	0	0	0	0	507	474	1021	0	0	0	
14	0	0	0	0	494	463	1021	0	0	0	
15	0	0	0	0	483	454	1021	0	0	0	
0	0	0	0	0	475	446	1021	0	0	0	
1	0	0	0	0	470	439	1021	0	0	0	
2	0	0	0	0	468	434	1020	0	0	0	
3	0	0	0	0	470	432	1021	0	0	0	
4	0	0	0	0	475	431	1021	0	0	0	
5	0	0	0	0	483	432	1021	0	0	0	
6	0	0	0	0	492	436	1021	0	0	0	
7	0	0	0	0	503	441	1020	0	0	0	
8	0	0	0	0	513	448	1021	0	0	0	
9	0	0	0	0	525	456	1021	0	0	0	
10	0	0	0	0	536	465	1021	0	0	0	
11	0	0	0	0	544	473	1021	0	0	0	
12	0	0	0	0	551	481	1021	0	0	0	
13	0	0	0	0	555	488	1021	0	0	0	
14	0	0	0	0	556	493	1021	0	0	0	
15	0	0	0	0	554	495	1021	0	0	0	
0	0	0	0	0	549	495	1021	0	0	0	
1	0	0	0	0	542	492	1020	0	0	0	
2	0	0	0	0	533	487	1021	0	0	0	
3	0	0	0	0	526	481	1021	0	0	0	
4	0	0	0	0	520	475	1021	0	0	0	
5	0	0	0	0	515	468	1021	0	0	0	
6	0	0	0	0	511	462	1021	0	0	0	
7	0	0	0	0	508	456	1021	0	0	0	
8	0	0	0	0	505	452	1021	0	0	0	
9	0	0	0	0	503	449	1021	0	0	0	
10	0	0	0	0	501	448	1021	0	0	0	
11	0	0	0	0	500	448	1021	0	0	0	
12	0	0	0	0	500	450	1021	0	0	0	
13	0	0	0	0	501	454	1021	0	0	0	
14	0	0	0	0	503	459	1021	0	0	0	
15	0	0	0	0	506	465	1021	0	0	0	
0	0	0	0	0	511	473	1020	0	0	0	
1	0	0	0	0	517	480	1020	0	0	0	
2	0	0	0	0	524	487	1021	0	0	0	
3	0	0	0	0	531	492	1021	0	0	0	
4	0	0	0	0	536	494	1021	0	0	0	
5	0	0	0	0	540	495	1021	0	0	0	
6	0	0	0	0	542	494	1021	0	0	0	
7	0	0	0	0	541	490	1021	0	0	0	
8	0	0	0	0	538	485	1021	0	0	0	
9	0	0	0	0	535	479	1021	0	0	0	
10	0	0	0	0	530	474	1021	0	0	0	
11	0	0	0	0	525	468	1021	0	0	0	
12	0	0	0	0	522	465	1021	0	0	0	
13	0	0	0	0	519	464	1021	0	0	0	
14	0	0	0	0	519	465	1021	0	0	0	
15	0	0	0	0	521	468	1020	0	0	0	
0	0	0	0	0	525	473	1021	0	0	0	
1	0	0	0	0	529	478	1021	0	0	0	
2	0	0	0	0	533	484	1021	0	0	0	
3	0	0	0	0	536	489	1021	0	0	0	
4	0	0	0	0	536	493	1020	0	0	0	
5	0	0	0	0	533	494	1021	0	0	0	
6	0	0	0	0	529	493	1021	0	0	0	
7	0	0	0	0	523	489	1021	0	0	0	
8	0	0	0	0	516	484	1021	0	0	0	
9	0	0	0	0	510	478	1021	0	0	0	
10	0	0	0	0	504	472	1021	0	0	0	
11	0	0	0	0	501	467	1021	0	0	0	
12	0	0	0	0	500	463	1021	0	0	0	
13	0	0	0	0	503	463	1021	0	0	0	
14	0	0	0	0	509	464	1021	0	0	0	
15	0	0	0	0	515	467	1020	0	0	0	
0	0	0	0	0	520	469	1021	0	0	0	
1	0	0	0	0	524	471	1021	0	0	0	
2	0	0	0	0	524	471	1021	0	0	0	
3	0	0	0	0	521	469	1021	0	0	0	
4	0	0	0	0	517	465	1021	0	0	0	
5	0	0	0	0	511	461	1021	0	0	0	
6	0	0	0	0	505	455	1021	0	0	0	
7	0	0	0	0	500	451	1021	0	0	0	
8	0	0	0	0	499	447	1021	0	0	0	
9	0	0	0	0	499	443	1021	0	0	0	
10	0	0	0	0	503	440	1021	0	0	0	
11	0	0	0	0	508	439	1021	0	0	0	
12	0	0	0	0	513	437	1021	0	0	0	
13	0	0	0	0	517	435	1021	0	0	0	
14	0	0	0	0	518	434	1021	0	0	0	
15	0	0	0	0	516	432	1021	0	0	0	
0	0	0	0	0	511	431	1021	0	0	0	
1	0	0	0	0	506	431	1021	0	0	0	
2	0	0	0	0	501	433	1021	0	0	0	
3	0	0	0	0	496	436	1020	0	0	0	
4	0	0	0	0	494	441	1021	0	0	0	
5	0	0	0	0	492	448	1021	0	0	0	
6	0	0	0	0	492	454	1021	0	0	0	
7	0	0	0	0	492	460	1021	0	0	0	
8	0	0	0	0	492	466	1021	0	0	0	
9	0	0	0	0	493	470	1021	0	0	0	
10	0	0	0	0	494	472	1021	0	0	0	
11	0	0	0	0	496	473	1021	0	0	0	
12	0	0	0	0	496	472	1021	0	0	0	
13	0	0	0	0	497	470	1021	0	0	0	
14	0	0	0	0	497	467	1021	0	0	0	
15	0	0	0	0	496	463	1021	0	0	0	
0	0	0	0	0	495	458	1021	0	0	0	
1	0	0	0	0	493	454	1021	0	0	0	
2	0	0	0	0	490	451	1020	0	0	0	
3	0	0	0	0	487	448	1021	0	0	0	
4	0	0	0	0	485	446	1021	0	0	0	
5	0	0	0	0	483	444	1021	0	0	0	
6	0	0	0	0	482	443	1021	0	0	0	
7	0	0	0	0	482	443	1021	0	0	0	
8	0	0	0	0	483	443	1021	0	0	0	
9	0	0	0	0	486	444	1021	0	0	0	
10	0	0	0	0	488	445	1021	0	0	0	
11	0	0	0	0	491	446	1021	0	0	0	
12	0	0	0	0	493	447	1021	0	0	0	
13	0	0	0	0	496	448	1021	0	0	0	
14	0	0	0	0	498	449	1021	0	0	0	
15	0	0	0	0	499	450	1021	0	0	0	
0	0	0	0	0	500	450	1021	0	0	0	
1	0	0	0	0	500	451	1020	0	0	0	
2	0	0	0	0	500	451	1021	0	0	0	
3	0	0	0	0	499	451	1021	0	0	0	
4	0	0	0	0	499	452	1021	0	0	0	
5	0	0	0	0	499	453	1020	0	0	0	
6	0	0	0	0	501	455	1020	0	0	0	
7	0	0	0	0	505	458	1021	0	0	0	
8	0	0	0	0	511	463	1021	0	0	0	
9	0	0	0	0	519	469	1021	0	0	0	
10	0	0	0	0	528	477	1020	0	0	0	
11	0	0	0	0	539	486	1020	0	0	0	
12	0	0	0	0	550	496	1021	0	0	0	
13	0	0	0	0	560	505	1021	0	0	0	
14	0	0	0	0	567	513	1021	0	0	0	
15	0	0	0	0	571	519	1021	0	0	0	
0	0	0	0	0	571	523	1021	0	0	0	
1	0	0	0	0	568	524	1021	0	0	0	
2	0	0	0	0	564	523	1021	0	0	0	
3	0	0	0	0	558	520	1021	0	0	0	
4	0	0	0	0	552	515	1021	0	0	0	
5	0	0	0	0	546	510	1021	0	0	0	
6	0	0	0	0	542	503	1021	0	0	0	
7	0	0	0	0	537	495	1021	0	0	0	
8	0	0	0	0	532	487	1021	0	0	0	
9	0	0	0	0	529	480	1021	0	0	0	
10	0	0	0	0	526	472	1021	0	0	0	
11	0	0	0	0	524	464	1021	0	0	0	
12	0	0	0	0	521	458	1021	0	0	0	
13	0	0	0	0	519	452	1021	0	0	0	
14	0	0	0	0	518	448	1021	0	0	0	
15	0	0	0	0	518	444	1020	0	0	0	
0	0	0	0	0	518	442	1021	0	0	0	
1	0	0	0	0	516	441	1021	0	0	0	
2	0	0	0	0	514	441	1021	0	0	0	
3	0	0	0	0	512	442	1021	0	0	0	
4	0	0	0	0	511	444	1021	0	0	0	
5	0	0	0	0	510	448	1021	0	0	0	
6	0	0	0	0	510	452	1021	0	0	0	
7	0	0	0	0	511	458	1021	0	0	0	
8	0	0	0	0	512	465	1021	0	0	0	
9	0	0	0	0	515	472	1021	0	0	0	
10	0	0	0	0	518	478	1021	0	0	0	
11	0	0	0	0	521	484	1021	0	0	0	
12	0	0	0	0	523	487	1020	0	0	0	
13	0	0	0	0	525	489	1021	0	0	0	
14	0	0	0	0	525	489	1021	0	0	0	
15	0	0	0	0	525	487	1021	0	0	0	
0	0	0	0	0	524	483	1021	0	0	0	
1	0	0	0	0	521	478	1021	0	0	0	
2	0	0	0	0	520	472	1020	0	0	0	
3	0	0	0	0	518	468	1020	0	0	0	
4	0	0	0	0	517	465	1021	0	0	0	
5	0	0	0	0	518	465	1021	0	0	0	
6	0	0	0	0	518	466	1021	0	0	0	
7	0	0	0	0	519	468	1021	0	0	0	
8	0	0	0	0	520	472	1021	0	0	0	
9	0	0	0	0	519	473	1021	0	0	0	
10	0	0	0	0	517	473	1021	0	0	0	
11	0	0	0	0	512	471	1021	0	0	0	
12	0	0	0	0	505	466	1020	0	0	0	
13	0	0	0	0	497	459	1021	0	0	0	
14	0	0	0	0	488	451	1021	0	0	0	
15	0	0	0	0	480	443	1021	0	0	0	
0	0	0	0	0	474	435	1021	0	0	0	
1	0	0	0	0	470	429	1021	0	0	0	
2	0	0	0	0	468	423	1020	0	0	0	
3	0	0	0	0	468	419	1021	0	0	0	
4	0	0	0	0	471	417	1021	0	0	0	
5	0	0	0	0	474	417	1021	0	0	0	
6	0	0	0	0	478	420	1021	0	0	0	
7	0	0	0	0	484	424	1021	0	0	0	
8	0	0	0	0	491	430	1021	0	0	0	
9	0	0	0	0	499	437	1021	0	0	0	
10	0	0	0	0	508	445	1021	0	0	0	
11	0	0	0	0	515	452	1021	0	0	0	
12	0	0	0	0	523	458	1021	0	0	0	
13	0	0	0	0	529	464	1021	0	0	0	
14	0	0	0	0	533	468	1021	0	0	0	
15	0	0	0	0	536	471	1021	0	0	0	
0	0	0	0	0	536	473	1021	0	0	0	
1	0	0	0	0	534	473	1020	0	0	0	
2	0	0	0	0	531	473	1021	0	0	0	
3	0	0	0	0	526	472	1021	0	0	0	
4	0	0	0	0	520	470	1021	0	0	0	
5	0	0	0	0	513	467	1020	0	0	0	
6	0	0	0	0	507	464	1020	0	0	0	
7	0	0	0	0	500	461	1021	0	0	0	
8	0	0	0	0	495	459	1021	0	0	0	
9	0	0	0	0	489	455	1021	0	0	0	
10	0	0	0	0	486	454	1020	0	0	0	
11	0	0	0	0	486	454	1020	0	0	0	
12	0	0	0	0	487	454	1021	0	0	0	
13	0	0	0	0	490	456	1021	0	0	0	
14	0	0	0	0	494	460	1021	0	0	0	
15	0	0	0	0	499	463	1021	0	0	0	
0	0	0	0	0	506	469	1021	0	0	0	
1	0	0	0	0	512	475	1021	0	0	0	
2	0	0	0	0	520	482	1021	0	0	0	
3	0	0	0	0	527	489	1021	0	0	0	
4	0	0	0	0	534	496	1020	0	0	0	
5	0	0	0	0	539	501	1020	0	0	0	
6	0	0	0	0	544	505	1021	0	0	0	
7	0	0	0	0	546	507	1021	0	0	0	
8	0	0	0	0	546	506	1021	0	0	0	
9	0	0	0	0	543	503	1021	0	0	0	
10	0	0	0	0	538	497	1021	0	0	0	
11	0	0	0	0	531	489	1021	0	0	0	
12	0	0	0	0	520	479	1021	0	0	0	
13	0	0	0	0	509	467	1021	0	0	0	
14	0	0	0	0	496	456	1021	0	0	0	
15	0	0	0	0	484	446	1021	0	0	0	
0	0	0	0	0	473	438	1021	0	0	0	
1	0	0	0	0	464	433	1021	0	0	0	
2	0	0	0	0	458	431	1021	0	0	0	
3	0	0	0	0	455	431	1021	0	0	0	
4	0	0	0	0	455	433	1021	0	0	0	
5	0	0	0	0	457	436	1021	0	0	0	
6	0	0	0	0	461	440	1021	0	0	0	
7	0	0	0	0	466	443	1021	0	0	0	
8	0	0	0	0	472	444	1021	0	0	0	
9	0	0	0	0	478	445	1021	0	0	0	
10	0	0	0	0	484	445	1021	0	0	0	
11	0	0	0	0	491	445	1021	0	0	0	
12	0	0	0	0	497	445	1021	0	0	0	
13	0	0	0	0	505	446	1021	0	0	0	
14	0	0	0	0	515	448	1021	0	0	0	
15	0	0	0	0	524	451	1021	0	0	0	
0	0	0	0	0	533	455	1021	0	0	0	
1	0	0	0	0	541	460	1021	0	0	0	
2	0	0	0	0	547	464	1021	0	0	0	
3	0	0	0	0	550	467	1021	0	0	0	
4	0	0	0	0	551	469	1021	0	0	0	
5	0	0	0	0	548	469	1021	0	0	0	
6	0	0	0	0	543	467	1021	0	0	0	
7	0	0	0	0	536	464	1021	0	0	0	
8	0	0	0	0	528	460	1021	0	0	0	
9	0	0	0	0	519	455	1021	0	0	0	
10	0	0	0	0	511	452	1021	0	0	0	
11	0	0	0	0	503	450	1021	0	0	0	
12	0	0	0	0	496	449	1021	0	0	0	
13	0	0	0	0	492	451	1021	0	0	0	
14	0	0	0	0	489	454	1021	0	0	0	
15	0	0	0	0	491	460	1021	0	0	0	
0	0	0	0	0	494	466	1021	0	0	0	
1	0	0	0	0	500	473	1021	0	0	0	
2	0	0	0	0	509	480	1021	0	0	0	
3	0	0	0	0	518	486	1021	0	0	0	
4	0	0	0	0	527	490	1021	0	0	0	
5	0	0	0	0	535	493	1021	0	0	0	
6	0	0	0	0	540	494	1021	0	0	0	
7	0	0	0	0	545	494	1021	0	0	0	
8	0	0	0	0	547	493	1021	0	0	0	
9	0	0	0	0	546	491	1021	0	0	0	
10	0	0	0	0	542	487	1021	0	0	0	
11	0	0	0	0	535	483	1021	0	0	0	
12	0	0	0	0	527	477	1021	0	0	0	
13	0	0	0	0	517	472	1021	0	0	0	
14	0	0	0	0	505	465	1021	0	0	0	
15	0	0	0	0	494	459	1021	0	0	0	
0	0	0	0	0	484	454	1021	0	0	0	
1	0	0	0	0	477	449	1021	0	0	0	
2	0	0	0	0	472	444	1021	0	0	0	
3	0	0	0	0	470	441	1021	0	0	0	
4	0	0	0	0	472	438	1021	0	0	0	
5	0	0	0	0	475	435	1021	0	0	0	
6	0	0	0	0	482	433	1021	0	0	0	
7	0	0	0	0	489	433	1021	0	0	0	
8	0	0	0	0	498	435	1021	0	0	0	
9	0	0	0	0	507	437	1021	0	0	0	
10	0	0	0	0	515	440	1021	0	0	0	
11	0	0	0	0	522	445	1021	0	0	0	
12	0	0	0	0	528	451	1021	0	0	0	
13	0	0	0	0	533	457	1021	0	0	0	
14	0	0	0	0	536	463	1021	0	0	0	
15	0	0	0	0	539	470	1021	0	0	0	
0	0	0	0	0	541	476	1021	0	0	0	
1	0	0	0	0	542	482	1021	0	0	0	
2	0	0	0	0	542	487	1021	0	0	0	
3	0	0	0	0	540	489	1021	0	0	0	
4	0	0	0	0	536	489	1021	0	0	0	
5	0	0	0	0	531	488	1021	0	0	0	
6	0	0	0	0	524	484	1021	0	0	0	
7	0	0	0	0	515	479	1021	0	0	0	
8	0	0	0	0	507	472	1021	0	0	0	
9	0	0	0	0	499	464	1021	0	0	0	
10	0	0	0	0	493	456	1021	0	0	0	
11	0	0	0	0	488	449	1021	0	0	0	
12	0	0	0	0	486	443	1021	0	0	0	
13	0	0	0	0	484	438	1021	0	0	0	
14	0	0	0	0	484	434	1021	0	0	0	
15	0	0	0	0	485	432	1021	0	0	0	
0	0	0	0	0	487	431	1021	0	0	0	
1	0	0	0	0	490	432	1021	0	0	0	
2	0	0	0	0	494	434	1021	0	0	0	
3	0	0	0	0	499	438	1021	0	0	0	
4	0	0	0	0	504	442	1021	0	0	0	
5	0	0	0	0	510	448	1021	0	0	0	
6	0	0	0	0	513	453	1021	0	0	0	
7	0	0	0	0	516	459	1021	0	0	0	
8	0	0	0	0	517	463	1021	0	0	0	
9	0	0	0	0	517	468	1021	0	0	0	
10	0	0	0	0	515	472	1021	0	0	0	
11	0	0	0	0	512	474	1021	0	0	0	
12	0	0	0	0	509	476	1021	0	0	0	
13	0	0	0	0	505	477	1021	0	0	0	
14	0	0	0	0	503	479	1021	0	0	0	
15	0	0	0	0	502	480	1021	0	0	0	
0	0	0	0	0	502	481	1021	0	0	0	
1	0	0	0	0	504	482	1021	0	0	0	
2	0	0	0	0	508	483	1021	0	0	0	
3	0	0	0	0	512	483	1021	0	0	0	
4	0	0	0	0	517	483	1021	0	0	0	
5	0	0	0	0	522	483	1021	0	0	0	
6	0	0	0	0	527	482	1021	0	0	0	
7	0	0	0	0	532	482	1021	0	0	0	
8	0	0	0	0	536	481	1020	0	0	0	
9	0	0	0	0	539	480	1021	0	0	0	
10	0	0	0	0	540	479	1021	0	0	0	
11	0	0	0	0	539	476	1021	0	0	0	
12	0	0	0	0	534	473	1021	0	0	0	
13	0	0	0	0	527	470	1020	0	0	0	
14	0	0	0	0	520	467	1021	0	0	0	
15	0	0	0	0	511	463	1021	0	0	0	
0	0	0	0	0	503	460	1021	0	0	0	
1	0	0	0	0	497	459	1021	0	0	0	
2	0	0	0	0	494	459	1020	0	0	0	
3	0	0	0	0	494	460	1021	0	0	0	
4	0	0	0	0	498	464	1021	0	0	0	
5	0	0	0	0	505	470	1021	0	0	0	
6	0	0	0	0	515	476	1021	0	0	0	
7	0	0	0	0	525	483	1021	0	0	0	
8	0	0	0	0	536	488	1021	0	0	0	
9	0	0	0	0	543	492	1021	0	0	0	
10	0	0	0	0	548	492	1021	0	0	0	
11	0	0	0	0	548	491	1021	0	0	0	
12	0	0	0	0	543	487	1020	0	0	0	
13	0	0	0	0	534	480	1021	0	0	0	
14	0	0	0	0	523	474	1021	0	0	0	
15	0	0	0	0	510	467	1021	0	0	0	
0	0	0	0	0	497	460	1021	0	0	0	
1	0	0	0	0	486	455	1021	0	0	0	
2	0	0	0	0	479	451	1021	0	0	0	
3	0	0	0	0	476	451	1021	0	0	0	
4	0	0	0	0	476	452	1021	0	0	0	
5	0	0	0	0	479	454	1021	0	0	0	
6	0	0	0	0	483	457	1021	0	0	0	
7	0	0	0	0	489	461	1021	0	0	0	
8	0	0	0	0	496	464	1021	0	0	0	
9	0	0	0	0	501	466	1021	0	0	0	
10	0	0	0	0	505	467	1020	0	0	0	
11	0	0	0	0	507	466	1020	0	0	0	
12	0	0	0	0	509	464	1021	0	0	0	
13	0	0	0	0	510	462	1021	0	0	0	
14	0	0	0	0	511	459	1021	0	0	0	
15	0	0	0	0	512	456	1021	0	0	0	
0	0	0	0	0	514	454	1021	0	0	0	
1	0	0	0	0	517	452	1021	0	0	0	
2	0	0	0	0	520	452	1021	0	0	0	
3	0	0	0	0	524	452	1021	0	0	0	
4	0	0	0	0	529	453	1021	0	0	0	
5	0	0	0	0	533	455	1020	0	0	0	
6	0	0	0	0	537	456	1021	0	0	0	
7	0	0	0	0	541	458	1021	0	0	0	
8	0	0	0	0	544	460	1021	0	0	0	
9	0	0	0	0	547	463	1021	0	0	0	
10	0	0	0	0	547	466	1020	0	0	0	
11	0	0	0	0	547	470	1021	0	0	0	
12	0	0	0	0	547	474	1021	0	0	0	
13	0	0	0	0	544	478	1021	0	0	0	
14	0	0	0	0	540	481	1021	0	0	0	
15	0	0	0	0	536	484	1021	0	0	0	
0	0	0	0	0	531	487	1021	0	0	0	
1	0	0	0	0	527	489	1021	0	0	0	
2	0	0	0	0	522	489	1021	0	0	0	
3	0	0	0	0	516	488	1021	0	0	0	
4	0	0	0	0	511	486	1021	0	0	0	
5	0	0	0	0	505	482	1021	0	0	0	
6	0	0	0	0	500	478	1021	0	0	0	
7	0	0	0	0	496	473	1021	0	0	0	
8	0	0	0	0	492	469	1021	0	0	0	
9	0	0	0	0	488	464	1020	0	0	0	
10	0	0	0	0	485	460	1021	0	0	0	
11	0	0	0	0	483	455	1021	0	0	0	
12	0	0	0	0	481	451	1021	0	0	0	
13	0	0	0	0	480	446	1021	0	0	0	
14	0	0	0	0	479	441	1020	0	0	0	
15	0	0	0	0	479	437	1021	0	0	0	
0	0	0	0	0	480	433	1021	0	0	0	
1	0	0	0	0	482	430	1021	0	0	0	
2	0	0	0	0	486	428	1020	0	0	0	
3	0	0	0	0	491	428	1020	0	0	0	
4	0	0	0	0	497	429	1021	0	0	0	
5	0	0	0	0	504	432	1021	0	0	0	
6	0	0	0	0	512	437	1021	0	0	0	
7	0	0	0	0	520	443	1021	0	0	0	
8	0	0	0	0	528	450	1021	0	0	0	
9	0	0	0	0	535	457	1021	0	0	0	
10	0	0	0	0	540	463	1021	0	0	0	
11	0	0	0	0	542	469	1021	0	0	0	
12	0	0	0	0	542	473	1021	0	0	0	
13	0	0	0	0	539	476	1020	0	0	0	
14	0	0	0	0	534	478	1021	0	0	0	
15	0	0	0	0	527	478	1021	0	0	0	
0	0	0	0	0	520	478	1021	0	0	0	
1	0	0	0	0	512	476	1021	0	0	0	
2	0	0	0	0	506	475	1021	0	0	0	
3	0	0	0	0	501	472	1021	0	0	0	
4	0	0	0	0	497	468	1021	0	0	0	
5	0	0	0	0	494	464	1021	0	0	0	
6	0	0	0	0	492	460	1021	0	0	0	
7	0	0	0	0	492	456	1020	0	0	0	
8	0	0	0	0	494	452	1021	0	0	0	
9	0	0	0	0	497	449	1021	0	0	0	
10	0	0	0	0	502	448	1021	0	0	0	
11	0	0	0	0	508	447	1021	0	0	0	
12	0	0	0	0	515	447	1020	0	0	0	
13	0	0	0	0	523	449	1021	0	0	0	
14	0	0	0	0	531	451	1021	0	0	0	
15	0	0	0	0	537	455	1021	0	0	0	
0	0	0	0	0	543	460	1021	0	0	0	
1	0	0	0	0	548	465	1021	0	0	0	
2	0	0	0	0	552	472	1021	0	0	0	
3	0	0	0	0	555	479	1021	0	0	0	
4	0	0	0	0	557	486	1021	0	0	0	
5	0	0	0	0	559	492	1021	0	0	0	
6	0	0	0	0	559	499	1021	0	0	0	
7	0	0	0	0	558	503	1021	0	0	0	
8	0	0	0	0	555	506	1021	0	0	0	
9	0	0	0	0	550	508	1021	0	0	0	
10	0	0	0	0	544	507	1021	0	0	0	
11	0	0	0	0	536	504	1020	0	0	0	
12	0	0	0	0	527	499	1021	0	0	0	
13	0	0	0	0	517	491	1021	0	0	0	
14	0	0	0	0	507	483	1021	0	0	0	
15	0	0	0	0	497	473	1021	0	0	0	
0	0	0	0	0	488	464	1021	0	0	0	
1	0	0	0	0	480	454	1021	0	0	0	
2	0	0	0	0	474	446	1021	0	0	0	
3	0	0	0	0	468	439	1021	0	0	0	
4	0	0	0	0	464	433	1021	0	0	0	
5	0	0	0	0	463	430	1021	0	0	0	
6	0	0	0	0	463	429	1021	0	0	0	
7	0	0	0	0	465	430	1021	0	0	0	
8	0	0	0	0	471	435	1021	0	0	0	
9	0	0	0	0	478	442	1021	0	0	0	
10	0	0	0	0	486	451	1020	0	0	0	
11	0	0	0	0	496	461	1021	0	0	0	
12	0	0	0	0	505	471	1021	0	0	0	
13	0	0	0	0	513	480	1021	0	0	0	
14	0	0	0	0	520	487	1021	0	0	0	
15	0	0	0	0	527	492	1021	0	0	0	
0	0	0	0	0	532	495	1021	0	0	0	
1	0	0	0	0	536	496	1021	0	0	0	
2	0	0	0	0	539	495	1021	0	0	0	
3	0	0	0	0	539	491	1021	0	0	0	
4	0	0	0	0	536	486	1021	0	0	0	
5	0	0	0	0	532	479	1021	0	0	0	
6	0	0	0	0	527	472	1021	0	0	0	
7	0	0	0	0	521	463	1021	0	0	0	
8	0	0	0	0	515	455	1021	0	0	0	
9	0	0	0	0	509	447	1020	0	0	0	
10	0	0	0	0	504	440	1021	0	0	0	
11	0	0	0	0	498	434	1021	0	0	0	
12	0	0	0	0	492	429	1021	0	0	0	
13	0	0	0	0	487	425	1021	0	0	0	
14	0	0	0	0	481	423	1020	0	0	0	
15	0	0	0	0	477	422	1021	0	0	0	
0	0	0	0	0	472	420	1021	0	0	0	
1	0	0	0	0	467	418	1021	0	0	0	
2	0	0	0	0	462	416	1021	0	0	0	
3	0	0	0	0	457	413	1020	0	0	0	
4	0	0	0	0	451	409	1021	0	0	0	
5	0	0	0	0	445	403	1021	0	0	0	
6	0	0	0	0	439	397	1021	0	0	0	
7	0	0	0	0	432	390	1021	0	0	0	
8	0	0	0	0	425	381	1021	0	0	0	
9	0	0	0	0	419	372	1021	0	0	0	
10	0	0	0	0	412	364	1021	0	0	0	
11	0	0	0	0	403	354	1020	0	0	0	
12	0	0	0	0	393	344	1021	0	0	0	
13	0	0	0	0	382	334	1021	0	0	0	
14	0	0	0	0	369	323	1021	0	0	0	
15	0	0	0	0	355	312	1021	0	0	0	
0	0	0	0	0	339	299	1021	0	0	0	
1	0	0	0	0	323	287	1020	0	0	0	
2	0	0	0	0	307	274	1021	0	0	0	
3	0	0	0	0	291	260	1021	0	0	0	
4	0	0	0	0	278	248	1021	0	0	0	
5	0	0	0	0	267	239	1021	0	0	0	
6	0	0	0	0	260	231	1021	0	0	0	
7	0	0	0	0	259	229	1021	0	0	0	
8	0	0	0	0	263	230	1021	0	0	0	
9	0	0	0	0	273	236	1021	0	0	0	
10	0	0	0	0	288	247	1021	0	0	0	
11	0	0	0	0	308	261	1021	0	0	0	
12	0	0	0	0	333	279	1021	0	0	0	
13	0	0	0	0	361	300	1021	0	0	0	
14	0	0	0	0	392	324	1021	0	0	0	
15	0	0	0	0	423	350	1021	0	0	0	
0	0	0	0	0	455	377	1021	0	0	0	
1	0	0	0	0	486	403	1021	0	0	0	
2	0	0	0	0	513	430	1021	0	0	0	
3	0	0	0	0	537	455	1021	0	0	0	
4	0	0	0	0	556	477	1021	0	0	0	
5	0	0	0	0	570	496	1021	0	0	0	
6	0	0	0	0	579	511	1020	0	0	0	
7	0	0	0	0	585	522	1021	0	0	0	
8	0	0	0	0	587	529	1021	0	0	0	
9	0	0	0	0	585	531	1021	0	0	0	
10	0	0	0	0	580	529	1020	0	0	0	
11	0	0	0	0	572	524	1020	0	0	0	
12	0	0	0	0	562	515	1021	0	0	0	
13	0	0	0	0	549	504	1021	0	0	0	
14	0	0	0	0	535	490	1021	0	0	0	
15	0	0	0	0	520	475	1021	0	0	0	
0	0	0	0	0	507	461	1021	0	0	0	
1	0	0	0	0	494	448	1021	0	0	0	
2	0	0	0	0	483	436	1021	0	0	0	
3	0	0	0	0	475	427	1021	0	0	0	
4	0	0	0	0	470	420	1021	0	0	0	
5	0	0	0	0	468	417	1020	0	0	0	
6	0	0	0	0	471	417	1021	0	0	0	
7	0	0	0	0	477	420	1021	0	0	0	
8	0	0	0	0	487	426	1021	0	0	0	
9	0	0	0	0	500	433	1021	0	0	0	
10	0	0	0	0	515	443	1021	0	0	0	
11	0	0	0	0	532	454	1021	0	0	0	
12	0	0	0	0	550	465	1021	0	0	0	
13	0	0	0	0	564	476	1021	0	0	0	
14	0	0	0	0	575	487	1021	0	0	0	
15	0	0	0	0	580	495	1020	0	0	0	
0	0	0	0	0	582	500	1021	0	0	0	
1	0	0	0	0	577	503	1021	0	0	0	
2	0	0	0	0	568	503	1021	0	0	0	
3	0	0	0	0	555	501	1021	0	0	0	
4	0	0	0	0	538	496	1021	0	0	0	
5	0	0	0	0	522	491	1021	0	0	0	
6	0	0	0	0	506	485	1021	0	0	0	
7	0	0	0	0	492	479	1021	0	0	0	
8	0	0	0	0	480	474	1021	0	0	0	
9	0	0	0	0	471	470	1021	0	0	0	
10	0	0	0	0	465	466	1021	0	0	0	
11	0	0	0	0	461	463	1021	0	0	0	
12	0	0	0	0	460	461	1021	0	0	0	
13	0	0	0	0	462	460	1021	0	0	0	
14	0	0	0	0	466	459	1021	0	0	0	
15	0	0	0	0	473	461	1021	0	0	0	
0	0	0	0	0	483	464	1021	0	0	0	
1	0	0	0	0	496	469	1021	0	0	0	
2	0	0	0	0	512	476	1021	0	0	0	
3	0	0	0	0	528	483	1020	0	0	0	
4	0	0	0	0	545	491	1021	0	0	0	
5	0	0	0	0	560	499	1021	0	0	0	
6	0	0	0	0	571	505	1021	0	0	0	
7	0	0	0	0	577	509	1021	0	0	0	
8	0	0	0	0	578	512	1021	0	0	0	
9	0	0	0	0	576	512	1021	0	0	0	
10	0	0	0	0	571	511	1021	0	0	0	
11	0	0	0	0	563	507	1021	0	0	0	
12	0	0	0	0	554	502	1021	0	0	0	
13	0	0	0	0	544	496	1021	0	0	0	
14	0	0	0	0	536	490	1021	0	0	0	
15	0	0	0	0	527	483	1021	0	0	0	
0	0	0	0	0	520	478	1021	0	0	0	
1	0	0	0	0	514	472	1021	0	0	0	
2	0	0	0	0	510	467	1021	0	0	0	
3	0	0	0	0	507	464	1021	0	0	0	
4	0	0	0	0	504	461	1021	0	0	0	
5	0	0	0	0	503	459	1021	0	0	0	
6	0	0	0	0	503	457	1021	0	0	0	
7	0	0	0	0	503	457	1020	0	0	0	
8	0	0	0	0	504	458	1021	0	0	0	
9	0	0	0	0	507	459	1021	0	0	0	
10	0	0	0	0	511	461	1021	0	0	0	
11	0	0	0	0	515	464	1021	0	0	0	
12	0	0	0	0	520	468	1021	0	0	0	
13	0	0	0	0	526	472	1021	0	0	0	
14	0	0	0	0	532	476	1021	0	0	0	
15	0	0	0	0	537	479	1021	0	0	0	
0	0	0	0	0	542	482	1021	0	0	0	
1	0	0	0	0	546	484	1021	0	0	0	
2	0	0	0	0	548	485	1021	0	0	0	
3	0	0	0	0	548	486	1021	0	0	0	
4	0	0	0	0	546	485	1021	0	0	0	
5	0	0	0	0	542	484	1021	0	0	0	
6	0	0	0	0	537	483	1021	0	0	0	
7	0	0	0	0	532	483	1021	0	0	0	
8	0	0	0	0	527	482	1021	0	0	0	
9	0	0	0	0	523	482	1021	0	0	0	
10	0	0	0	0	518	481	1021	0	0	0	
11	0	0	0	0	515	480	1021	0	0	0	
12	0	0	0	0	511	478	1021	0	0	0	
13	0	0	0	0	508	476	1021	0	0	0	
14	0	0	0	0	505	473	1021	0	0	0	
15	0	0	0	0	502	470	1021	0	0	0	
0	0	0	0	0	501	469	1021	0	0	0	
1	0	0	0	0	501	468	1021	0	0	0	
2	0	0	0	0	504	470	1021	0	0	0	
3	0	0	0	0	509	473	1021	0	0	0	
4	0	0	0	0	516	478	1021	0	0	0	
5	0	0	0	0	527	484	1021	0	0	0	
6	0	0	0	0	537	490	1021	0	0	0	
7	0	0	0	0	547	496	1021	0	0	0	
8	0	0	0	0	555	501	1021	0	0	0	
9	0	0	0	0	559	505	1021	0	0	0	
10	0	0	0	0	561	507	1021	0	0	0	
11	0	0	0	0	559	506	1021	0	0	0	
12	0	0	0	0	553	504	1021	0	0	0	
13	0	0	0	0	545	498	1021	0	0	0	
14	0	0	0	0	533	490	1021	0	0	0	
15	0	0	0	0	521	481	1021	0	0	0	
0	0	0	0	0	507	471	1021	0	0	0	
1	0	0	0	0	495	460	1021	0	0	0	
2	0	0	0	0	486	451	1021	0	0	0	
3	0	0	0	0	479	444	1021	0	0	0	
4	0	0	0	0	475	439	1021	0	0	0	
5	0	0	0	0	474	437	1021	0	0	0	
6	0	0	0	0	477	437	1021	0	0	0	
7	0	0	0	0	482	440	1021	0	0	0	
8	0	0	0	0	491	444	1021	0	0	0	
9	0	0	0	0	500	450	1021	0	0	0	
10	0	0	0	0	511	456	1021	0	0	0	
11	0	0	0	0	522	462	1021	0	0	0	
12	0	0	0	0	531	467	1021	0	0	0	
13	0	0	0	0	539	471	1020	0	0	0	
14	0	0	0	0	543	473	1021	0	0	0	
15	0	0	0	0	546	475	1021	0	0	0	
0	0	0	0	0	547	476	1021	0	0	0	
1	0	0	0	0	544	475	1021	0	0	0	
2	0	0	0	0	540	475	1021	0	0	0	
3	0	0	0	0	534	473	1021	0	0	0	
4	0	0	0	0	527	472	1021	0	0	0	
5	0	0	0	0	519	470	1021	0	0	0	
6	0	0	0	0	511	468	1021	0	0	0	
7	0	0	0	0	504	466	1021	0	0	0	
8	0	0	0	0	497	464	1021	0	0	0	
9	0	0	0	0	492	463	1021	0	0	0	
10	0	0	0	0	490	463	1021	0	0	0	
11	0	0	0	0	490	463	1020	0	0	0	
12	0	0	0	0	492	464	1021	0	0	0	
13	0	0	0	0	495	466	1020	0	0	0	
14	0	0	0	0	500	468	1021	0	0	0	
15	0	0	0	0	505	470	1021	0	0	0	
0	0	0	0	0	511	471	1021	0	0	0	
1	0	0	0	0	516	471	1021	0	0	0	
2	0	0	0	0	521	471	1021	0	0	0	
3	0	0	0	0	527	471	1021	0	0	0	
4	0	0	0	0	534	471	1021	0	0	0	
5	0	0	0	0	541	472	1021	0	0	0	
6	0	0	0	0	547	473	1021	0	0	0	
7	0	0	0	0	553	476	1021	0	0	0	
8	0	0	0	0	559	479	1021	0	0	0	
9	0	0	0	0	562	483	1021	0	0	0	
10	0	0	0	0	563	486	1021	0	0	0	
11	0	0	0	0	561	488	1021	0	0	0	
12	0	0	0	0	557	490	1021	0	0	0	
13	0	0	0	0	551	490	1021	0	0	0	
14	0	0	0	0	544	488	1021	0	0	0	
15	0	0	0	0	536	486	1021	0	0	0	
0	0	0	0	0	527	481	1021	0	0	0	
1	0	0	0	0	518	475	1021	0	0	0	
2	0	0	0	0	508	469	1021	0	0	0	
3	0	0	0	0	497	462	1021	0	0	0	
4	0	0	0	0	488	455	1021	0	0	0	
5	0	0	0	0	479	449	1021	0	0	0	
6	0	0	0	0	472	444	1021	0	0	0	
7	0	0	0	0	467	441	1021	0	0	0	
8	0	0	0	0	466	440	1021	0	0	0	
9	0	0	0	0	467	441	1021	0	0	0	
10	0	0	0	0	471	444	1020	0	0	0	
11	0	0	0	0	478	448	1021	0	0	0	
12	0	0	0	0	487	453	1021	0	0	0	
13	0	0	0	0	496	459	1021	0	0	0	
14	0	0	0	0	507	467	1021	0	0	0	
15	0	0	0	0	517	475	1021	0	0	0	
0	0	0	0	0	528	483	1021	0	0	0	
1	0	0	0	0	539	492	1021	0	0	0	
2	0	0	0	0	549	500	1021	0	0	0	
3	0	0	0	0	557	506	1021	0	0	0	
4	0	0	0	0	564	509	1021	0	0	0	
5	0	0	0	0	567	510	1020	0	0	0	
6	0	0	0	0	568	508	1021	0	0	0	
7	0	0	0	0	564	504	1021	0	0	0	
8	0	0	0	0	558	498	1021	0	0	0	
9	0	0	0	0	550	491	1021	0	0	0	
10	0	0	0	0	540	481	1021	0	0	0	
11	0	0	0	0	531	473	1021	0	0	0	
12	0	0	0	0	523	465	1021	0	0	0	
13	0	0	0	0	516	457	1021	0	0	0	
14	0	0	0	0	511	451	1021	0	0	0	
15	0	0	0	0	507	446	1021	0	0	0	
0	0	0	0	0	505	442	1021	0	0	0	
1	0	0	0	0	505	441	1021	0	0	0	
2	0	0	0	0	506	441	1021	0	0	0	
3	0	0	0	0	508	444	1021	0	0	0	
4	0	0	0	0	511	448	1020	0	0	0	
5	0	0	0	0	516	454	1021	0	0	0	
6	0	0	0	0	522	463	1021	0	0	0	
7	0	0	0	0	529	473	1021	0	0	0	
8	0	0	0	0	538	487	1021	0	0	0	
9	0	0	0	0	548	500	1021	0	0	0	
10	0	0	0	0	559	515	1021	0	0	0	
11	0	0	0	0	569	528	1021	0	0	0	
12	0	0	0	0	577	539	1021	0	0	0	
13	0	0	0	0	581	546	1021	0	0	0	
14	0	0	0	0	582	548	1021	0	0	0	
15	0	0	0	0	578	546	1021	0	0	0	
0	0	0	0	0	569	538	1021	0	0	0	
1	0	0	0	0	558	526	1021	0	0	0	
2	0	0	0	0	543	511	1021	0	0	0	
3	0	0	0	0	527	493	1021	0	0	0	
4	0	0	0	0	511	475	1021	0	0	0	
5	0	0	0	0	497	459	1021	0	0	0	
6	0	0	0	0	486	445	1021	0	0	0	
7	0	0	0	0	478	436	1021	0	0	0	
8	0	0	0	0	476	431	1021	0	0	0	
9	0	0	0	0	479	431	1021	0	0	0	
10	0	0	0	0	486	435	1021	0	0	0	
11	0	0	0	0	497	443	1021	0	0	0	
12	0	0	0	0	508	452	1021	0	0	0	
13	0	0	0	0	521	463	1021	0	0	0	
14	0	0	0	0	532	474	1021	0	0	0	
15	0	0	0	0	542	483	1021	0	0	0	
0	0	0	0	0	549	490	1021	0	0	0	
1	0	0	0	0	553	494	1021	0	0	0	
2	0	0	0	0	554	495	1021	0	0	0	
3	0	0	0	0	551	493	1021	0	0	0	
4	0	0	0	0	547	488	1021	0	0	0	
5	0	0	0	0	540	482	1021	0	0	0	
6	0	0	0	0	531	476	1021	0	0	0	
7	0	0	0	0	523	470	1021	0	0	0	
8	0	0	0	0	516	465	1021	0	0	0	
9	0	0	0	0	510	462	1021	0	0	0	
10	0	0	0	0	505	460	1021	0	0	0	
11	0	0	0	0	502	460	1021	0	0	0	
12	0	0	0	0	501	461	1021	0	0	0	
13	0	0	0	0	502	463	1021	0	0	0	
14	0	0	0	0	504	465	1021	0	0	0	
15	0	0	0	0	505	468	1021	0	0	0	
0	0	0	0	0	506	470	1021	0	0	0	
1	0	0	0	0	506	470	1021	0	0	0	
2	0	0	0	0	504	468	1021	0	0	0	
3	0	0	0	0	501	466	1021	0	0	0	
4	0	0	0	0	497	463	1021	0	0	0	
5	0	0	0	0	494	460	1021	0	0	0	
6	0	0	0	0	492	457	1021	0	0	0	
7	0	0	0	0	491	455	1021	0	0	0	
8	0	0	0	0	493	454	1021	0	0	0	
9	0	0	0	0	496	454	1021	0	0	0	
10	0	0	0	0	500	455	1021	0	0	0	
11	0	0	0	0	508	459	1021	0	0	0	
12	0	0	0	0	515	463	1021	0	0	0	
13	0	0	0	0	525	470	1021	0	0	0	
14	0	0	0	0	534	478	1021	0	0	0	
15	0	0	0	0	543	486	1021	0	0	0	
0	0	0	0	0	551	494	1021	0	0	0	
1	0	0	0	0	557	500	1021	0	0	0	
2	0	0	0	0	561	504	1021	0	0	0	
3	0	0	0	0	563	506	1021	0	0	0	
4	0	0	0	0	563	505	1021	0	0	0	
5	0	0	0	0	562	502	1021	0	0	0	
6	0	0	0	0	558	497	1021	0	0	0	
7	0	0	0	0	551	489	1021	0	0	0	
8	0	0	0	0	543	481	1021	0	0	0	
9	0	0	0	0	533	473	1021	0	0	0	
10	0	0	0	0	526	467	1021	0	0	0	
11	0	0	0	0	519	463	1021	0	0	0	
12	0	0	0	0	513	460	1021	0	0	0	
13	0	0	0	0	510	461	1021	0	0	0	
14	0	0	0	0	507	463	1021	0	0	0	
15	0	0	0	0	507	468	1021	0	0	0	
0	0	0	0	0	510	474	1021	0	0	0	
1	0	0	0	0	513	481	1021	0	0	0	
2	0	0	0	0	519	489	1021	0	0	0	
3	0	0	0	0	525	496	1021	0	0	0	
4	0	0	0	0	530	500	1021	0	0	0	
5	0	0	0	0	534	503	1021	0	0	0	
6	0	0	0	0	535	501	1021	0	0	0	
7	0	0	0	0	532	496	1021	0	0	0	
8	0	0	0	0	529	490	1021	0	0	0	
9	0	0	0	0	523	481	1020	0	0	0	
10	0	0	0	0	516	473	1021	0	0	0	
11	0	0	0	0	510	464	1021	0	0	0	
12	0	0	0	0	503	456	1021	0	0	0	
13	0	0	0	0	497	449	1021	0	0	0	
14	0	0	0	0	492	444	1021	0	0	0	
15	0	0	0	0	490	441	1021	0	0	0	
0	0	0	0	0	489	441	1021	0	0	0	
1	0	0	0	0	492	443	1021	0	0	0	
2	0	0	0	0	496	447	1021	0	0	0	
3	0	0	0	0	502	453	1021	0	0	0	
4	0	0	0	0	511	460	1021	0	0	0	
5	0	0	0	0	519	468	1021	0	0	0	
6	0	0	0	0	529	476	1021	0	0	0	
7	0	0	0	0	538	483	1021	0	0	0	
8	0	0	0	0	545	488	1021	0	0	0	
9	0	0	0	0	550	491	1021	0	0	0	
10	0	0	0	0	553	493	1021	0	0	0	
11	0	0	0	0	553	492	1021	0	0	0	
12	0	0	0	0	551	489	1021	0	0	0	
13	0	0	0	0	547	486	1021	0	0	0	
14	0	0	0	0	541	481	1021	0	0	0	
15	0	0	0	0	533	475	1021	0	0	0	
0	0	0	0	0	524	470	1021	0	0	0	
1	0	0	0	0	513	464	1021	0	0	0	
2	0	0	0	0	504	460	1021	0	0	0	
3	0	0	0	0	495	456	1021	0	0	0	
4	0	0	0	0	488	455	1021	0	0	0	
5	0	0	0	0	484	454	1021	0	0	0	
6	0	0	0	0	482	455	1021	0	0	0	
7	0	0	0	0	483	458	1021	0	0	0	
8	0	0	0	0	486	461	1021	0	0	0	
9	0	0	0	0	492	466	1021	0	0	0	
10	0	0	0	0	499	472	1021	0	0	0	
11	0	0	0	0	507	477	1021	0	0	0	
12	0	0	0	0	514	481	1021	0	0	0	
13	0	0	0	0	521	484	1021	0	0	0	
14	0	0	0	0	525	485	1021	0	0	0	
15	0	0	0	0	527	483	1021	0	0	0	
0	0	0	0	0	527	479	1021	0	0	0	
1	0	0	0	0	525	474	1021	0	0	0	
2	0	0	0	0	521	468	1021	0	0	0	
3	0	0	0	0	516	462	1021	0	0	0	
4	0	0	0	0	510	455	1021	0	0	0	
5	0	0	0	0	503	448	1021	0	0	0	
6	0	0	0	0	495	443	1021	0	0	0	
7	0	0	0	0	487	439	1021	0	0	0	
8	0	0	0	0	481	436	1021	0	0	0	
9	0	0	0	0	476	434	1021	0	0	0	
10	0	0	0	0	474	434	1021	0	0	0	
11	0	0	0	0	474	435	1021	0	0	0	
12	0	0	0	0	478	440	1021	0	0	0	
13	0	0	0	0	485	447	1021	0	0	0	
14	0	0	0	0	496	455	1021	0	0	0	
15	0	0	0	0	509	467	1021	0	0	0	
0	0	0	0	0	524	480	1021	0	0	0	
1	0	0	0	0	540	493	1021	0	0	0	
2	0	0	0	0	557	506	1021	0	0	0	
3	0	0	0	0	572	518	1021	0	0	0	
4	0	0	0	0	584	528	1021	0	0	0	
5	0	0	0	0	594	536	1021	0	0	0	
6	0	0	0	0	600	540	1021	0	0	0	
7	0	0	0	0	600	540	1021	0	0	0	
8	0	0	0	0	596	534	1021	0	0	0	
9	0	0	0	0	587	525	1021	0	0	0	
10	0	0	0	0	574	512	1021	0	0	0	
11	0	0	0	0	560	497	1021	0	0	0	
12	0	0	0	0	545	480	1021	0	0	0	
13	0	0	0	0	531	465	1021	0	0	0	
14	0	0	0	0	519	452	1021	0	0	0	
15	0	0	0	0	510	442	1021	0	0	0	
0	0	0	0	0	504	435	1021	0	0	0	
1	0	0	0	0	500	432	1021	0	0	0	
2	0	0	0	0	501	433	1021	0	0	0	
3	0	0	0	0	504	437	1021	0	0	0	
4	0	0	0	0	509	444	1021	0	0	0	
5	0	0	0	0	517	451	1021	0	0	0	
6	0	0	0	0	525	460	1021	0	0	0	
7	0	0	0	0	532	469	1021	0	0	0	
8	0	0	0	0	538	478	1021	0	0	0	
9	0	0	0	0	542	485	1021	0	0	0	
10	0	0	0	0	543	489	1021	0	0	0	
11	0	0	0	0	542	492	1021	0	0	0	
12	0	0	0	0	538	492	1021	0	0	0	
13	0	0	0	0	531	488	1021	0	0	0	
14	0	0	0	0	524	483	1021	0	0	0	
15	0	0	0	0	516	477	1021	0	0	0	
0	0	0	0	0	509	470	1021	0	0	0	
1	0	0	0	0	503	463	1021	0	0	0	
2	0	0	0	0	497	458	1021	0	0	0	
3	0	0	0	0	495	455	1021	0	0	0	
4	0	0	0	0	495	454	1021	0	0	0	
5	0	0	0	0	496	455	1021	0	0	0	
6	0	0	0	0	499	458	1021	0	0	0	
7	0	0	0	0	502	463	1021	0	0	0	
8	0	0	0	0	506	469	1021	0	0	0	
9	0	0	0	0	510	475	1021	0	0	0	
10	0	0	0	0	514	481	1021	0	0	0	
11	0	0	0	0	517	486	1021	0	0	0	
12	0	0	0	0	519	488	1021	0	0	0	
13	0	0	0	0	521	490	1021	0	0	0	
14	0	0	0	0	520	489	1021	0	0	0	
15	0	0	0	0	519	488	1021	0	0	0	
0	0	0	0	0	517	484	1021	0	0	0	
1	0	0	0	0	514	480	1021	0	0	0	
2	0	0	0	0	512	475	1021	0	0	0	
3	0	0	0	0	511	470	1021	0	0	0	
4	0	0	0	0	511	465	1021	0	0	0	
5	0	0	0	0	513	461	1021	0	0	0	
6	0	0	0	0	515	457	1021	0	0	0	
7	0	0	0	0	518	454	1021	0	0	0	
8	0	0	0	0	520	451	1021	0	0	0	
9	0	0	0	0	522	448	1021	0	0	0	
10	0	0	0	0	522	446	1021	0	0	0	
11	0	0	0	0	521	445	1021	0	0	0	
12	0	0	0	0	519	445	1021	0	0	0	
13	0	0	0	0	517	447	1021	0	0	0	
14	0	0	0	0	513	448	1021	0	0	0	
15	0	0	0	0	508	451	1021	0	0	0	
0	0	0	0	0	503	454	1021	0	0	0	
1	0	0	0	0	498	457	1021	0	0	0	
2	0	0	0	0	495	461	1021	0	0	0	
3	0	0	0	0	493	464	1021	0	0	0	
4	0	0	0	0	493	467	1021	0	0	0	
5	0	0	0	0	495	470	1021	0	0	0	
6	0	0	0	0	497	472	1021	0	0	0	
7	0	0	0	0	502	473	1021	0	0	0	
8	0	0	0	0	507	476	1021	0	0	0	
9	0	0	0	0	513	478	1021	0	0	0	
10	0	0	0	0	520	480	1021	0	0	0	
11	0	0	0	0	527	484	1021	0	0	0	
12	0	0	0	0	536	487	1021	0	0	0	
13	0	0	0	0	543	491	1021	0	0	0	
14	0	0	0	0	551	494	1021	0	0	0	
15	0	0	0	0	557	497	1021	0	0	0	
0	0	0	0	0	561	500	1020	0	0	0	
1	0	0	0	0	564	501	1021	0	0	0	
2	0	0	0	0	565	500	1021	0	0	0	
3	0	0	0	0	564	497	1021	0	0	0	
4	0	0	0	0	561	494	1021	0	0	0	
5	0	0	0	0	557	489	1020	0	0	0	
6	0	0	0	0	552	484	1021	0	0	0	
7	0	0	0	0	547	480	1021	0	0	0	
8	0	0	0	0	543	477	1021	0	0	0	
9	0	0	0	0	539	474	1021	0	0	0	
10	0	0	0	0	536	472	1021	0	0	0	
11	0	0	0	0	533	471	1021	0	0	0	
12	0	0	0	0	530	471	1021	0	0	0	
13	0	0	0	0	527	471	1021	0	0	0	
14	0	0	0	0	524	472	1021	0	0	0	
15	0	0	0	0	521	472	1021	0	0	0	
0	0	0	0	0	519	474	1021	0	0	0	
1	0	0	0	0	517	476	1021	0	0	0	
2	0	0	0	0	515	477	1021	0	0	0	
3	0	0	0	0	515	478	1021	0	0	0	
4	0	0	0	0	515	479	1021	0	0	0	
5	0	0	0	0	516	480	1021	0	0	0	
6	0	0	0	0	517	480	1021	0	0	0	
7	0	0	0	0	519	480	1021	0	0	0	
8	0	0	0	0	520	479	1021	0	0	0	
9	0	0	0	0	523	480	1021	0	0	0	
10	0	0	0	0	526	480	1021	0	0	0	
11	0	0	0	0	529	481	1021	0	0	0	
12	0	0	0	0	532	481	1021	0	0	0	
13	0	0	0	0	536	482	1021	0	0	0	
14	0	0	0	0	539	482	1021	0	0	0	
15	0	0	0	0	540	481	1021	0	0	0	
0	0	0	0	0	541	480	1021	0	0	0	
1	0	0	0	0	540	478	1021	0	0	0	
2	0	0	0	0	536	475	1021	0	0	0	
3	0	0	0	0	531	471	1021	0	0	0	
4	0	0	0	0	525	467	1021	0	0	0	
5	0	0	0	0	519	464	1021	0	0	0	
6	0	0	0	0	512	461	1021	0	0	0	
7	0	0	0	0	507	460	1021	0	0	0	
8	0	0	0	0	504	459	1021	0	0	0	
9	0	0	0	0	502	460	1021	0	0	0	
10	0	0	0	0	503	462	1021	0	0	0	
11	0	0	0	0	504	464	1021	0	0	0	
12	0	0	0	0	506	466	1021	0	0	0	
13	0	0	0	0	507	467	1021	0	0	0	
14	0	0	0	0	507	467	1021	0	0	0	
15	0	0	0	0	505	466	1021	0	0	0	
0	0	0	0	0	504	463	1021	0	0	0	
1	0	0	0	0	501	460	1021	0	0	0	
2	0	0	0	0	501	458	1021	0	0	0	
3	0	0	0	0	502	456	1021	0	0	0	
4	0	0	0	0	504	455	1021	0	0	0	
5	0	0	0	0	508	456	1021	0	0	0	
6	0	0	0	0	513	457	1021	0	0	0	
7	0	0	0	0	519	460	1021	0	0	0	
8	0	0	0	0	525	463	1021	0	0	0	
9	0	0	0	0	531	467	1021	0	0	0	
10	0	0	0	0	538	472	1021	0	0	0	
11	0	0	0	0	543	478	1021	0	0	0	
12	0	0	0	0	548	482	1021	0	0	0	
13	0	0	0	0	551	485	1021	0	0	0	
14	0	0	0	0	552	486	1021	0	0	0	
15	0	0	0	0	553	484	1021	0	0	0	
0	0	0	0	0	553	480	1021	0	0	0	
1	0	0	0	0	552	474	1021	0	0	0	
2	0	0	0	0	549	466	1021	0	0	0	
3	0	0	0	0	544	458	1021	0	0	0	
4	0	0	0	0	536	450	1021	0	0	0	
5	0	0	0	0	526	442	1021	0	0	0	
6	0	0	0	0	513	436	1021	0	0	0	
7	0	0	0	0	500	432	1021	0	0	0	
8	0	0	0	0	487	430	1021	0	0	0	
9	0	0	0	0	476	431	1021	0	0	0	
10	0	0	0	0	467	433	1021	0	0	0	
11	0	0	0	0	462	438	1021	0	0	0	
12	0	0	0	0	463	446	1021	0	0	0	
13	0	0	0	0	469	457	1021	0	0	0	
14	0	0	0	0	481	472	1021	0	0	0	
15	0	0	0	0	498	487	1021	0	0	0	
0	0	0	0	0	517	504	1021	0	0	0	
1	0	0	0	0	539	520	1021	0	0	0	
2	0	0	0	0	560	535	1021	0	0	0	
3	0	0	0	0	580	547	1021	0	0	0	
4	0	0	0	0	596	555	1021	0	0	0	
5	0	0	0	0	609	559	1021	0	0	0	
6	0	0	0	0	616	558	1021	0	0	0	
7	0	0	0	0	616	551	1021	0	0	0	
8	0	0	0	0	609	540	1021	0	0	0	
9	0	0	0	0	596	524	1021	0	0	0	
10	0	0	0	0	576	505	1020	0	0	0	
11	0	0	0	0	552	485	1021	0	0	0	
12	0	0	0	0	526	465	1021	0	0	0	
13	0	0	0	0	500	446	1021	0	0	0	
14	0	0	0	0	477	431	1021	0	0	0	
15	0	0	0	0	459	419	1021	0	0	0	
0	0	0	0	0	446	411	1021	0	0	0	
1	0	0	0	0	440	408	1021	0	0	0	
2	0	0	0	0	440	410	1021	0	0	0	
3	0	0	0	0	445	415	1021	0	0	0	
4	0	0	0	0	455	423	1020	0	0	0	
5	0	0	0	0	469	434	1021	0	0	0	
6	0	0	0	0	486	447	1021	0	0	0	
7	0	0	0	0	505	461	1021	0	0	0	
8	0	0	0	0	527	476	1021	0	0	0	
9	0	0	0	0	551	494	1021	0	0	0	
10	0	0	0	0	575	511	1021	0	0	0	
11	0	0	0	0	598	528	1021	0	0	0	
12	0	0	0	0	617	542	1021	0	0	0	
13	0	0	0	0	632	551	1021	0	0	0	
14	0	0	0	0	638	556	1021	0	0	0	
15	0	0	0	0	636	555	1021	0	0	0	
0	0	0	0	0	624	546	1021	0	0	0	
1	0	0	0	0	604	532	1021	0	0	0	
2	0	0	0	0	576	514	1021	0	0	0	
3	0	0	0	0	543	492	1020	0	0	0	
4	0	0	0	0	510	469	1021	0	0	0	
5	0	0	0	0	477	445	1021	0	0	0	
6	0	0	0	0	446	422	1021	0	0	0	
7	0	0	0	0	418	400	1021	0	0	0	
8	0	0	0	0	394	381	1021	0	0	0	
9	0	0	0	0	374	363	1021	0	0	0	
10	0	0	0	0	356	347	1021	0	0	0	
11	0	0	0	0	342	334	1021	0	0	0	
12	0	0	0	0	331	322	1021	0	0	0	
13	0	0	0	0	321	310	1021	0	0	0	
14	0	0	0	0	313	299	1021	0	0	0	
15	0	0	0	0	308	287	1021	0	0	0	
0	0	0	0	0	303	276	1021	0	0	0	
1	0	0	0	0	299	263	1021	0	0	0	
2	0	0	0	0	295	252	1021	0	0	0	
3	0	0	0	0	292	240	1021	0	0	0	
4	0	0	0	0	290	229	1021	0	0	0	
5	0	0	0	0	288	220	1021	0	0	0	
6	0	0	0	0	288	214	1021	0	0	0	
7	0	0	0	0	291	211	1020	0	0	0	
8	0	0	0	0	297	214	1021	0	0	0	
9	0	0	0	0	307	221	1021	0	0	0	
10	0	0	0	0	321	233	1021	0	0	0	
11	0	0	0	0	340	249	1021	0	0	0	
12	0	0	0	0	361	271	1020	0	0	0	
13	0	0	0	0	387	295	1021	0	0	0	
14	0	0	0	0	412	320	1021	0	0	0	
15	0	0	0	0	439	348	1021	0	0	0	
0	0	0	0	0	464	376	1021	0	0	0	
1	0	0	0	0	488	403	1020	0	0	0	
2	0	0	0	0	509	430	1021	0	0	0	
3	0	0	0	0	528	455	1021	0	0	0	
4	0	0	0	0	545	478	1021	0	0	0	
5	0	0	0	0	560	498	1021	0	0	0	
6	0	0	0	0	572	515	1021	0	0	0	
7	0	0	0	0	583	528	1021	0	0	0	
8	0	0	0	0	590	537	1021	0	0	0	
9	0	0	0	0	596	543	1021	0	0	0	
10	0	0	0	0	597	545	1021	0	0	0	
11	0	0	0	0	595	542	1021	0	0	0	
12	0	0	0	0	590	537	1021	0	0	0	
13	0	0	0	0	583	530	1021	0	0	0	
14	0	0	0	0	573	521	1021	0	0	0	
15	0	0	0	0	563	511	1021	0	0	0	
0	0	0	0	0	553	502	1021	0	0	0	
1	0	0	0	0	545	494	1021	0	0	0	
2	0	0	0	0	537	486	1021	0	0	0	
3	0	0	0	0	531	480	1021	0	0	0	
4	0	0	0	0	526	476	1021	0	0	0	
5	0	0	0	0	521	473	1021	0	0	0	
6	0	0	0	0	518	472	1021	0	0	0	
7	0	0	0	0	516	471	1021	0	0	0	
8	0	0	0	0	515	472	1021	0	0	0	
9	0	0	0	0	516	474	1021	0	0	0	
10	0	0	0	0	519	476	1021	0	0	0	
11	0	0	0	0	524	479	1021	0	0	0	
12	0	0	0	0	530	482	1021	0	0	0	
13	0	0	0	0	537	485	1021	0	0	0	
14	0	0	0	0	546	487	1021	0	0	0	
15	0	0	0	0	554	490	1021	0	0	0	
0	0	0	0	0	561	492	1021	0	0	0	
1	0	0	0	0	567	492	1021	0	0	0	
2	0	0	0	0	571	492	1021	0	0	0	
3	0	0	0	0	572	492	1021	0	0	0	
4	0	0	0	0	572	493	1020	0	0	0	
5	0	0	0	0	570	493	1021	0	0	0	
6	0	0	0	0	567	494	1021	0	0	0	
7	0	0	0	0	563	496	1021	0	0	0	
8	0	0	0	0	560	499	1021	0	0	0	
9	0	0	0	0	556	501	1020	0	0	0	
10	0	0	0	0	554	504	1021	0	0	0	
11	0	0	0	0	552	507	1021	0	0	0	
12	0	0	0	0	551	510	1021	0	0	0	
13	0	0	0	0	549	511	1021	0	0	0	
14	0	0	0	0	547	511	1021	0	0	0	
15	0	0	0	0	546	512	1021	0	0	0	
0	0	0	0	0	545	511	1021	0	0	0	
1	0	0	0	0	543	510	1021	0	0	0	
2	0	0	0	0	541	509	1021	0	0	0	
3	0	0	0	0	539	508	1020	0	0	0	
4	0	0	0	0	536	506	1021	0	0	0	
5	0	0	0	0	532	505	1021	0	0	0	
6	0	0	0	0	532	504	1021	0	0	0	
7	0	0	0	0	532	504	1021	0	0	0	
8	0	0	0	0	534	504	1021	0	0	0	
9	0	0	0	0	539	506	1021	0	0	0	
10	0	0	0	0	544	507	1021	0	0	0	
11	0	0	0	0	551	509	1021	0	0	0	
12	0	0	0	0	558	512	1021	0	0	0	
13	0	0	0	0	564	514	1020	0	0	0	
14	0	0	0	0	569	515	1021	0	0	0	
15	0	0	0	0	572	516	1021	0	0	0	
0	0	0	0	0	572	516	1021	0	0	0	
1	0	0	0	0	570	515	1021	0	0	0	
2	0	0	0	0	565	511	1021	0	0	0	
3	0	0	0	0	558	507	1021	0	0	0	
4	0	0	0	0	550	502	1021	0	0	0	
5	0	0	0	0	541	496	1021	0	0	0	
6	0	0	0	0	533	491	1021	0	0	0	
7	0	0	0	0	527	488	1020	0	0	0	
8	0	0	0	0	524	487	1021	0	0	0	
9	0	0	0	0	526	491	1021	0	0	0	
10	0	0	0	0	533	498	1021	0	0	0	
11	0	0	0	0	544	507	1021	0	0	0	
12	0	0	0	0	559	519	1020	0	0	0	
13	0	0	0	0	575	530	1021	0	0	0	
14	0	0	0	0	591	541	1021	0	0	0	
15	0	0	0	0	605	549	1021	0	0	0	
0	0	0	0	0	614	553	1021	0	0	0	
1	0	0	0	0	618	552	1021	0	0	0	
2	0	0	0	0	615	547	1021	0	0	0	
3	0	0	0	0	607	539	1021	0	0	0	
4	0	0	0	0	594	526	1021	0	0	0	
5	0	0	0	0	579	512	1021	0	0	0	
6	0	0	0	0	562	497	1021	0	0	0	
7	0	0	0	0	545	483	1021	0	0	0	
8	0	0	0	0	529	471	1021	0	0	0	
9	0	0	0	0	516	460	1020	0	0	0	
10	0	0	0	0	507	453	1021	0	0	0	
11	0	0	0	0	502	449	1020	0	0	0	
12	0	0	0	0	500	449	1021	0	0	0	
13	0	0	0	0	501	452	1021	0	0	0	
14	0	0	0	0	505	456	1021	0	0	0	
15	0	0	0	0	510	463	1021	0	0	0	
0	0	0	0	0	516	470	1021	0	0	0	
1	0	0	0	0	523	478	1021	0	0	0	
2	0	0	0	0	528	484	1021	0	0	0	
3	0	0	0	0	533	490	1021	0	0	0	
4	0	0	0	0	536	494	1021	0	0	0	
5	0	0	0	0	539	498	1021	0	0	0	
6	0	0	0	0	540	500	1021	0	0	0	
7	0	0	0	0	541	501	1021	0	0	0	
8	0	0	0	0	542	502	1021	0	0	0	
9	0	0	0	0	542	501	1021	0	0	0	
10	0	0	0	0	543	500	1021	0	0	0	
11	0	0	0	0	545	500	1021	0	0	0	
12	0	0	0	0	548	499	1021	0	0	0	
13	0	0	0	0	552	498	1021	0	0	0	
14	0	0	0	0	555	496	1021	0	0	0	
15	0	0	0	0	556	494	1021	0	0	0	
0	0	0	0	0	557	492	1021	0	0	0	
1	0	0	0	0	557	489	1021	0	0	0	
2	0	0	0	0	554	487	1021	0	0	0	
3	0	0	0	0	550	484	1021	0	0	0	
4	0	0	0	0	545	481	1021	0	0	0	
5	0	0	0	0	541	479	1021	0	0	0	
6	0	0	0	0	536	477	1021	0	0	0	
7	0	0	0	0	531	476	1021	0	0	0	
8	0	0	0	0	526	475	1021	0	0	0	
9	0	0	0	0	522	475	1021	0	0	0	
10	0	0	0	0	519	476	1021	0	0	0	
11	0	0	0	0	519	478	1021	0	0	0	
12	0	0	0	0	519	480	1021	0	0	0	
13	0	0	0	0	521	483	1021	0	0	0	
14	0	0	0	0	524	485	1021	0	0	0	
15	0	0	0	0	527	487	1021	0	0	0	
0	0	0	0	0	531	490	1021	0	0	0	
1	0	0	0	0	535	492	1021	0	0	0	
2	0	0	0	0	537	493	1021	0	0	0	
3	0	0	0	0	540	494	1021	0	0	0	
4	0	0	0	0	542	494	1021	0	0	0	
5	0	0	0	0	544	494	1021	0	0	0	
6	0	0	0	0	547	493	1021	0	0	0	
7	0	0	0	0	550	492	1021	0	0	0	
8	0	0	0	0	551	491	1021	0	0	0	
9	0	0	0	0	552	489	1021	0	0	0	
10	0	0	0	0	553	489	1021	0	0	0	
11	0	0	0	0	554	488	1021	0	0	0	
12	0	0	0	0	556	489	1021	0	0	0	
13	0	0	0	0	557	492	1021	0	0	0	
14	0	0	0	0	560	495	1021	0	0	0	
15	0	0	0	0	563	498	1021	0	0	0	
0	0	0	0	0	566	502	1021	0	0	0	
1	0	0	0	0	568	506	1021	0	0	0	
2	0	0	0	0	569	509	1021	0	0	0	
3	0	0	0	0	569	513	1021	0	0	0	
4	0	0	0	0	569	517	1021	0	0	0	
5	0	0	0	0	568	519	1021	0	0	0	
6	0	0	0	0	566	523	1021	0	0	0	
7	0	0	0	0	564	525	1021	0	0	0	
8	0	0	0	0	561	527	1021	0	0	0	
9	0	0	0	0	558	528	1021	0	0	0	
10	0	0	0	0	555	529	1021	0	0	0	
11	0	0	0	0	551	528	1021	0	0	0	
12	0	0	0	0	547	527	1020	0	0	0	
13	0	0	0	0	543	524	1021	0	0	0	
14	0	0	0	0	540	520	1021	0	0	0	
15	0	0	0	0	537	515	1021	0	0	0	
0	0	0	0	0	534	509	1021	0	0	0	
1	0	0	0	0	531	502	1021	0	0	0	
2	0	0	0	0	528	494	1021	0	0	0	
3	0	0	0	0	525	487	1021	0	0	0	
4	0	0	0	0	522	480	1021	0	0	0	
5	0	0	0	0	519	473	1021	0	0	0	
6	0	0	0	0	518	469	1021	0	0	0	
7	0	0	0	0	517	466	1021	0	0	0	
8	0	0	0	0	518	464	1021	0	0	0	
9	0	0	0	0	519	464	1021	0	0	0	
10	0	0	0	0	523	465	1021	0	0	0	
11	0	0	0	0	527	467	1020	0	0	0	
12	0	0	0	0	532	471	1021	0	0	0	
13	0	0	0	0	537	474	1021	0	0	0	
14	0	0	0	0	542	478	1021	0	0	0	
15	0	0	0	0	545	483	1021	0	0	0	
0	0	0	0	0	550	488	1021	0	0	0	
1	0	0	0	0	554	494	1021	0	0	0	
2	0	0	0	0	559	499	1021	0	0	0	
3	0	0	0	0	564	503	1021	0	0	0	
4	0	0	0	0	570	506	1021	0	0	0	
5	0	0	0	0	575	508	1021	0	0	0	
6	0	0	0	0	579	508	1021	0	0	0	
7	0	0	0	0	578	506	1021	0	0	0	
8	0	0	0	0	574	503	1021	0	0	0	
9	0	0	0	0	566	498	1021	0	0	0	
10	0	0	0	0	555	493	1021	0	0	0	
11	0	0	0	0	543	488	1021	0	0	0	
12	0	0	0	0	532	485	1021	0	0	0	
13	0	0	0	0	523	483	1021	0	0	0	
14	0	0	0	0	515	483	1021	0	0	0	
15	0	0	0	0	512	484	1021	0	0	0	
0	0	0	0	0	511	487	1021	0	0	0	
1	0	0	0	0	513	491	1021	0	0	0	
2	0	0	0	0	519	496	1021	0	0	0	
3	0	0	0	0	527	500	1021	0	0	0	
4	0	0	0	0	536	504	1020	0	0	0	
5	0	0	0	0	546	507	1021	0	0	0	
6	0	0	0	0	556	508	1021	0	0	0	
7	0	0	0	0	564	508	1021	0	0	0	
8	0	0	0	0	571	508	1020	0	0	0	
9	0	0	0	0	574	505	1021	0	0	0	
10	0	0	0	0	573	502	1021	0	0	0	
11	0	0	0	0	569	497	1021	0	0	0	
12	0	0	0	0	562	492	1021	0	0	0	
13	0	0	0	0	553	487	1021	0	0	0	
14	0	0	0	0	543	483	1021	0	0	0	
15	0	0	0	0	534	480	1021	0	0	0	
0	0	0	0	0	527	477	1021	0	0	0	
1	0	0	0	0	521	475	1021	0	0	0	
2	0	0	0	0	519	475	1021	0	0	0	
3	0	0	0	0	518	476	1021	0	0	0	
4	0	0	0	0	520	479	1021	0	0	0	
5	0	0	0	0	523	481	1021	0	0	0	
6	0	0	0	0	528	485	1021	0	0	0	
7	0	0	0	0	534	489	1021	0	0	0	
8	0	0	0	0	541	492	1021	0	0	0	
9	0	0	0	0	548	497	1021	0	0	0	
10	0	0	0	0	556	502	1021	0	0	0	
11	0	0	0	0	565	507	1021	0	0	0	
12	0	0	0	0	575	514	1021	0	0	0	
13	0	0	0	0	584	522	1021	0	0	0	
14	0	0	0	0	593	531	1021	0	0	0	
15	0	0	0	0	601	540	1021	0	0	0	
0	0	0	0	0	606	547	1021	0	0	0	
1	0	0	0	0	608	553	1021	0	0	0	
2	0	0	0	0	607	556	1021	0	0	0	
3	0	0	0	0	602	556	1021	0	0	0	
4	0	0	0	0	594	554	1021	0	0	0	
5	0	0	0	0	582	547	1021	0	0	0	
6	0	0	0	0	566	538	1020	0	0	0	
7	0	0	0	0	550	526	1021	0	0	0	
8	0	0	0	0	534	514	1021	0	0	0	
9	0	0	0	0	520	502	1021	0	0	0	
10	0	0	0	0	510	492	1021	0	0	0	
11	0	0	0	0	504	482	1021	0	0	0	
12	0	0	0	0	503	475	1021	0	0	0	
13	0	0	0	0	507	470	1021	0	0	0	
14	0	0	0	0	513	466	1021	0	0	0	
15	0	0	0	0	522	464	1021	0	0	0	
0	0	0	0	0	530	463	1021	0	0	0	
1	0	0	0	0	537	464	1021	0	0	0	
2	0	0	0	0	543	465	1021	0	0	0	
3	0	0	0	0	546	465	1021	0	0	0	
4	0	0	0	0	548	467	1021	0	0	0	
5	0	0	0	0	548	467	1021	0	0	0	
6	0	0	0	0	547	469	1021	0	0	0	
7	0	0	0	0	547	470	1021	0	0	0	
8	0	0	0	0	545	471	1021	0	0	0	
9	0	0	0	0	545	473	1021	0	0	0	
10	0	0	0	0	543	475	1021	0	0	0	
11	0	0	0	0	543	477	1021	0	0	0	
12	0	0	0	0	542	479	1021	0	0	0	
13	0	0	0	0	540	482	1021	0	0	0	
14	0	0	0	0	539	484	1021	0	0	0	
15	0	0	0	0	536	487	1021	0	0	0	
0	0	0	0	0	535	491	1021	0	0	0	
1	0	0	0	0	533	495	1021	0	0	0	
2	0	0	0	0	531	498	1021	0	0	0	
3	0	0	0	0	529	501	1021	0	0	0	
4	0	0	0	0	527	503	1021	0	0	0	
5	0	0	0	0	526	504	1021	0	0	0	
6	0	0	0	0	526	505	1021	0	0	0	
7	0	0	0	0	526	505	1021	0	0	0	
8	0	0	0	0	526	504	1021	0	0	0	
9	0	0	0	0	528	502	1021	0	0	0	
10	0	0	0	0	530	500	1021	0	0	0	
11	0	0	0	0	532	499	1021	0	0	0	
12	0	0	0	0	535	497	1021	0	0	0	
13	0	0	0	0	536	496	1021	0	0	0	
14	0	0	0	0	536	494	1021	0	0	0	
15	0	0	0	0	536	493	1021	0	0	0	
0	0	0	0	0	536	492	1021	0	0	0	
1	0	0	0	0	535	491	1021	0	0	0	
2	0	0	0	0	536	489	1021	0	0	0	
3	0	0	0	0	538	488	1021	0	0	0	
4	0	0	0	0	541	487	1021	0	0	0	
5	0	0	0	0	544	485	1021	0	0	0	
6	0	0	0	0	546	482	1021	0	0	0	
7	0	0	0	0	547	479	1021	0	0	0	
8	0	0	0	0	545	475	1021	0	0	0	
9	0	0	0	0	542	472	1021	0	0	0	
10	0	0	0	0	537	467	1021	0	0	0	
11	0	0	0	0	531	463	1021	0	0	0	
12	0	0	0	0	526	460	1021	0	0	0	
13	0	0	0	0	521	457	1021	0	0	0	
14	0	0	0	0	518	456	1021	0	0	0	
15	0	0	0	0	515	456	1021	0	0	0	
0	0	0	0	0	514	457	1021	0	0	0	
1	0	0	0	0	514	460	1021	0	0	0	
2	0	0	0	0	516	464	1021	0	0	0	
3	0	0	0	0	519	470	1021	0	0	0	
4	0	0	0	0	524	476	1021	0	0	0	
5	0	0	0	0	529	484	1021	0	0	0	
6	0	0	0	0	536	492	1021	0	0	0	
7	0	0	0	0	543	501	1021	0	0	0	
8	0	0	0	0	553	510	1021	0	0	0	
9	0	0	0	0	564	520	1021	0	0	0	
10	0	0	0	0	576	531	1021	0	0	0	
11	0	0	0	0	588	540	1021	0	0	0	
12	0	0	0	0	598	548	1021	0	0	0	
13	0	0	0	0	607	556	1021	0	0	0	
14	0	0	0	0	614	560	1021	0	0	0	
15	0	0	0	0	617	562	1021	0	0	0	
0	0	0	0	0	616	560	1021	0	0	0	
1	0	0	0	0	611	556	1020	0	0	0	
2	0	0	0	0	604	549	1021	0	0	0	
3	0	0	0	0	593	539	1021	0	0	0	
4	0	0	0	0	579	527	1021	0	0	0	
5	0	0	0	0	563	513	1021	0	0	0	
6	0	0	0	0	548	499	1021	0	0	0	
7	0	0	0	0	535	487	1021	0	0	0	
8	0	0	0	0	524	475	1021	0	0	0	
9	0	0	0	0	516	466	1021	0	0	0	
10	0	0	0	0	512	459	1020	0	0	0	
11	0	0	0	0	511	455	1021	0	0	0	
12	0	0	0	0	513	453	1020	0	0	0	
13	0	0	0	0	518	454	1021	0	0	0	
14	0	0	0	0	524	456	1021	0	0	0	
15	0	0	0	0	531	460	1021	0	0	0	
0	0	0	0	0	537	465	1021	0	0	0	
1	0	0	0	0	543	471	1021	0	0	0	
2	0	0	0	0	549	476	1021	0	0	0	
3	0	0	0	0	551	480	1021	0	0	0	
4	0	0	0	0	553	485	1021	0	0	0	
5	0	0	0	0	553	489	1021	0	0	0	
6	0	0	0	0	552	492	1021	0	0	0	
7	0	0	0	0	551	495	1021	0	0	0	
8	0	0	0	0	550	497	1021	0	0	0	
9	0	0	0	0	547	498	1021	0	0	0	
10	0	0	0	0	546	498	1021	0	0	0	
11	0	0	0	0	544	498	1021	0	0	0	
12	0	0	0	0	543	499	1021	0	0	0	
13	0	0	0	0	543	499	1021	0	0	0	
14	0	0	0	0	545	501	1021	0	0	0	
15	0	0	0	0	549	504	1021	0	0	0	
0	0	0	0	0	555	509	1021	0	0	0	
1	0	0	0	0	563	515	1021	0	0	0	
2	0	0	0	0	571	521	1021	0	0	0	
3	0	0	0	0	577	526	1021	0	0	0	
4	0	0	0	0	581	528	1021	0	0	0	
5	0	0	0	0	582	529	1021	0	0	0	
6	0	0	0	0	579	527	1021	0	0	0	
7	0	0	0	0	573	521	1021	0	0	0	
8	0	0	0	0	563	513	1021	0	0	0	
9	0	0	0	0	551	503	1021	0	0	0	
10	0	0	0	0	538	492	1021	0	0	0	
11	0	0	0	0	525	480	1021	0	0	0	
12	0	0	0	0	513	470	1021	0	0	0	
13	0	0	0	0	503	460	1021	0	0	0	
14	0	0	0	0	495	451	1021	0	0	0	
15	0	0	0	0	491	446	1021	0	0	0	
0	0	0	0	0	491	443	1021	0	0	0	
1	0	0	0	0	494	443	1021	0	0	0	
2	0	0	0	0	501	445	1021	0	0	0	
3	0	0	0	0	510	449	1021	0	0	0	
4	0	0	0	0	520	454	1021	0	0	0	
5	0	0	0	0	531	460	1021	0	0	0	
6	0	0	0	0	541	466	1021	0	0	0	
7	0	0	0	0	549	472	1021	0	0	0	
8	0	0	0	0	556	477	1020	0	0	0	
9	0	0	0	0	560	481	1021	0	0	0	
10	0	0	0	0	561	484	1021	0	0	0	
11	0	0	0	0	561	485	1021	0	0	0	
12	0	0	0	0	558	485	1021	0	0	0	
13	0	0	0	0	553	484	1021	0	0	0	
14	0	0	0	0	547	483	1021	0	0	0	
15	0	0	0	0	542	483	1021	0	0	0	
0	0	0	0	0	537	484	1021	0	0	0	
1	0	0	0	0	532	485	1021	0	0	0	
2	0	0	0	0	529	486	1021	0	0	0	
3	0	0	0	0	527	488	1021	0	0	0	
4	0	0	0	0	526	491	1021	0	0	0	
5	0	0	0	0	527	494	1021	0	0	0	
6	0	0	0	0	529	497	1021	0	0	0	
7	0	0	0	0	534	500	1021	0	0	0	
8	0	0	0	0	539	503	1021	0	0	0	
9	0	0	0	0	545	506	1021	0	0	0	
10	0	0	0	0	552	508	1021	0	0	0	
11	0	0	0	0	558	510	1021	0	0	0	
12	0	0	0	0	562	511	1021	0	0	0	
13	0	0	0	0	564	512	1021	0	0	0	
14	0	0	0	0	566	513	1021	0	0	0	
15	0	0	0	0	564	513	1021	0	0	0	
0	0	0	0	0	561	513	1021	0	0	0	
1	0	0	0	0	556	512	1021	0	0	0	
2	0	0	0	0	549	509	1021	0	0	0	
3	0	0	0	0	542	505	1021	0	0	0	
4	0	0	0	0	535	501	1021	0	0	0	
5	0	0	0	0	527	495	1021	0	0	0	
6	0	0	0	0	521	489	1020	0	0	0	
7	0	0	0	0	516	484	1021	0	0	0	
8	0	0	0	0	512	480	1021	0	0	0	
9	0	0	0	0	510	477	1021	0	0	0	
10	0	0	0	0	511	476	1021	0	0	0	
11	0	0	0	0	513	475	1021	0	0	0	
12	0	0	0	0	517	476	1021	0	0	0	
13	0	0	0	0	524	479	1021	0	0	0	
14	0	0	0	0	532	481	1021	0	0	0	
15	0	0	0	0	542	485	1021	0	0	0	
0	0	0	0	0	552	488	1021	0	0	0	
1	0	0	0	0	562	492	1021	0	0	0	
2	0	0	0	0	571	494	1021	0	0	0	
3	0	0	0	0	576	495	1021	0	0	0	
4	0	0	0	0	577	495	1021	0	0	0	
5	0	0	0	0	572	493	1021	0	0	0	
6	0	0	0	0	564	490	1021	0	0	0	
7	0	0	0	0	555	487	1021	0	0	0	
8	0	0	0	0	543	485	1021	0	0	0	
9	0	0	0	0	533	484	1020	0	0	0	
10	0	0	0	0	525	484	1021	0	0	0	
11	0	0	0	0	519	486	1020	0	0	0	
12	0	0	0	0	518	489	1021	0	0	0	
13	0	0	0	0	519	494	1021	0	0	0	
14	0	0	0	0	525	500	1021	0	0	0	
15	0	0	0	0	533	507	1021	0	0	0	
0	0	0	0	0	543	515	1021	0	0	0	
1	0	0	0	0	556	522	1021	0	0	0	
2	0	0	0	0	567	528	1021	0	0	0	
3	0	0	0	0	575	532	1021	0	0	0	
4	0	0	0	0	580	533	1021	0	0	0	
5	0	0	0	0	582	531	1021	0	0	0	
6	0	0	0	0	582	527	1021	0	0	0	
7	0	0	0	0	578	522	1021	0	0	0	
8	0	0	0	0	574	516	1021	0	0	0	
9	0	0	0	0	568	509	1021	0	0	0	
10	0	0	0	0	564	503	1021	0	0	0	
11	0	0	0	0	560	497	1021	0	0	0	
12	0	0	0	0	558	492	1021	0	0	0	
13	0	0	0	0	556	489	1021	0	0	0	
14	0	0	0	0	554	486	1021	0	0	0	
15	0	0	0	0	551	483	1021	0	0	0	
0	0	0	0	0	549	482	1021	0	0	0	
1	0	0	0	0	546	481	1021	0	0	0	
2	0	0	0	0	541	481	1021	0	0	0	
3	0	0	0	0	537	480	1021	0	0	0	
4	0	0	0	0	532	481	1021	0	0	0	
5	0	0	0	0	527	481	1021	0	0	0	
6	0	0	0	0	524	481	1021	0	0	0	
7	0	0	0	0	522	481	1021	0	0	0	
8	0	0	0	0	521	481	1021	0	0	0	
9	0	0	0	0	522	481	1021	0	0	0	
10	0	0	0	0	524	481	1021	0	0	0	
11	0	0	0	0	527	481	1021	0	0	0	
12	0	0	0	0	530	480	1021	0	0	0	
13	0	0	0	0	533	479	1021	0	0	0	
14	0	0	0	0	536	479	1021	0	0	0	
15	0	0	0	0	539	479	1021	0	0	0	
0	0	0	0	0	543	480	1021	0	0	0	
1	0	0	0	0	548	483	1021	0	0	0	
2	0	0	0	0	554	487	1021	0	0	0	
3	0	0	0	0	560	493	1021	0	0	0	
4	0	0	0	0	565	499	1021	0	0	0	
5	0	0	0	0	568	506	1021	0	0	0	
6	0	0	0	0	568	512	1021	0	0	0	
7	0	0	0	0	565	517	1021	0	0	0	
8	0	0	0	0	560	520	1021	0	0	0	
9	0	0	0	0	552	522	1021	0	0	0	
10	0	0	0	0	544	521	1021	0	0	0	
11	0	0	0	0	536	518	1021	0	0	0	
12	0	0	0	0	529	513	1021	0	0	0	
13	0	0	0	0	523	505	1021	0	0	0	
14	0	0	0	0	518	496	1021	0	0	0	
15	0	0	0	0	515	487	1021	0	0	0	
0	0	0	0	0	513	477	1021	0	0	0	
1	0	0	0	0	512	467	1021	0	0	0	
2	0	0	0	0	513	459	1021	0	0	0	
3	0	0	0	0	515	453	1021	0	0	0	
4	0	0	0	0	517	449	1021	0	0	0	
5	0	0	0	0	520	447	1021	0	0	0	
6	0	0	0	0	525	448	1021	0	0	0	
7	0	0	0	0	531	451	1021	0	0	0	
8	0	0	0	0	538	456	1021	0	0	0	
9	0	0	0	0	547	462	1021	0	0	0	
10	0	0	0	0	556	469	1021	0	0	0	
11	0	0	0	0	565	477	1021	0	0	0	
12	0	0	0	0	573	484	1021	0	0	0	
13	0	0	0	0	580	491	1021	0	0	0	
14	0	0	0	0	583	497	1021	0	0	0	
15	0	0	0	0	583	502	1021	0	0	0	
0	0	0	0	0	579	504	1021	0	0	0	
1	0	0	0	0	572	506	1021	0	0	0	
2	0	0	0	0	561	506	1021	0	0	0	
3	0	0	0	0	548	504	1021	0	0	0	
4	0	0	0	0	534	500	1021	0	0	0	
5	0	0	0	0	519	494	1021	0	0	0	
6	0	0	0	0	504	488	1021	0	0	0	
7	0	0	0	0	490	481	1021	0	0	0	
8	0	0	0	0	479	475	1021	0	0	0	
9	0	0	0	0	471	471	1021	0	0	0	
10	0	0	0	0	467	467	1021	0	0	0	
11	0	0	0	0	466	466	1021	0	0	0	
12	0	0	0	0	470	468	1021	0	0	0	
13	0	0	0	0	478	472	1021	0	0	0	
14	0	0	0	0	490	478	1021	0	0	0	
15	0	0	0	0	505	487	1021	0	0	0	
0	0	0	0	0	522	496	1021	0	0	0	
1	0	0	0	0	540	504	1021	0	0	0	
2	0	0	0	0	557	512	1021	0	0	0	
3	0	0	0	0	572	517	1021	0	0	0	
4	0	0	0	0	584	519	1021	0	0	0	
5	0	0	0	0	591	519	1021	0	0	0	
6	0	0	0	0	595	515	1021	0	0	0	
7	0	0	0	0	593	509	1021	0	0	0	
8	0	0	0	0	587	501	1020	0	0	0	
9	0	0	0	0	577	492	1021	0	0	0	
10	0	0	0	0	564	483	1021	0	0	0	
11	0	0	0	0	551	475	1021	0	0	0	
12	0	0	0	0	538	468	1021	0	0	0	
13	0	0	0	0	527	463	1021	0	0	0	
14	0	0	0	0	519	461	1021	0	0	0	
15	0	0	0	0	515	462	1021	0	0	0	
0	0	0	0	0	514	465	1021	0	0	0	
1	0	0	0	0	516	472	1021	0	0	0	
2	0	0	0	0	521	481	1021	0	0	0	
3	0	0	0	0	527	490	1021	0	0	0	
4	0	0	0	0	534	499	1021	0	0	0	
5	0	0	0	0	541	508	1021	0	0	0	
6	0	0	0	0	547	514	1021	0	0	0	
7	0	0	0	0	552	518	1021	0	0	0	
8	0	0	0	0	555	519	1021	0	0	0	
9	0	0	0	0	554	518	1021	0	0	0	
10	0	0	0	0	551	514	1021	0	0	0	
11	0	0	0	0	547	508	1021	0	0	0	
12	0	0	0	0	542	503	1021	0	0	0	
13	0	0	0	0	538	499	1021	0	0	0	
14	0	0	0	0	535	496	1021	0	0	0	
15	0	0	0	0	534	495	1021	0	0	0	
0	0	0	0	0	533	495	1021	0	0	0	
1	0	0	0	0	534	495	1021	0	0	0	
2	0	0	0	0	534	494	1021	0	0	0	
3	0	0	0	0	533	492	1021	0	0	0	
4	0	0	0	0	532	488	1021	0	0	0	
5	0	0	0	0	529	483	1021	0	0	0	
6	0	0	0	0	525	475	1021	0	0	0	
7	0	0	0	0	519	466	1021	0	0	0	
8	0	0	0	0	510	455	1021	0	0	0	
9	0	0	0	0	501	443	1021	0	0	0	
10	0	0	0	0	491	432	1021	0	0	0	
11	0	0	0	0	480	419	1021	0	0	0	
12	0	0	0	0	470	407	1021	0	0	0	
13	0	0	0	0	460	396	1021	0	0	0	
14	0	0	0	0	451	388	1021	0	0	0	
15	0	0	0	0	443	380	1021	0	0	0	
0	0	0	0	0	435	374	1021	0	0	0	
1	0	0	0	0	428	369	1021	0	0	0	
2	0	0	0	0	421	364	1021	0	0	0	
3	0	0	0	0	413	359	1021	0	0	0	
4	0	0	0	0	403	351	1021	0	0	0	
5	0	0	0	0	391	342	1021	0	0	0	
6	0	0	0	0	377	329	1021	0	0	0	
7	0	0	0	0	361	316	1021	0	0	0	
8	0	0	0	0	345	300	1021	0	0	0	
9	0	0	0	0	331	285	1021	0	0	0	
10	0	0	0	0	317	271	1021	0	0	0	
11	0	0	0	0	305	257	1021	0	0	0	
12	0	0	0	0	295	246	1021	0	0	0	
13	0	0	0	0	290	239	1021	0	0	0	
14	0	0	0	0	289	236	1021	0	0	0	
15	0	0	0	0	293	238	1021	0	0	0	
0	0	0	0	0	302	246	1020	0	0	0	
1	0	0	0	0	316	260	1021	0	0	0	
2	0	0	0	0	335	279	1021	0	0	0	
3	0	0	0	0	357	302	1021	0	0	0	
4	0	0	0	0	383	328	1020	0	0	0	
5	0	0	0	0	410	357	1021	0	0	0	
6	0	0	0	0	438	386	1021	0	0	0	
7	0	0	0	0	465	415	1021	0	0	0	
8	0	0	0	0	492	443	1021	0	0	0	
9	0	0	0	0	517	466	1021	0	0	0	
10	0	0	0	0	539	486	1021	0	0	0	
11	0	0	0	0	559	502	1021	0	0	0	
12	0	0	0	0	576	513	1021	0	0	0	
13	0	0	0	0	589	520	1021	0	0	0	
14	0	0	0	0	598	524	1021	0	0	0	
15	0	0	0	0	603	524	1021	0	0	0	
0	0	0	0	0	604	522	1021	0	0	0	
1	0	0	0	0	603	518	1021	0	0	0	
2	0	0	0	0	598	513	1021	0	0	0	
3	0	0	0	0	591	508	1021	0	0	0	
4	0	0	0	0	583	502	1021	0	0	0	
5	0	0	0	0	573	496	1021	0	0	0	
6	0	0	0	0	562	490	1021	0	0	0	
7	0	0	0	0	551	483	1021	0	0	0	
8	0	0	0	0	540	477	1021	0	0	0	
9	0	0	0	0	531	472	1021	0	0	0	
10	0	0	0	0	522	466	1021	0	0	0	
11	0	0	0	0	517	462	1021	0	0	0	
12	0	0	0	0	513	460	1021	0	0	0	
13	0	0	0	0	511	458	1021	0	0	0	
14	0	0	0	0	510	457	1021	0	0	0	
15	0	0	0	0	510	458	1021	0	0	0	
0	0	0	0	0	511	460	1021	0	0	0	
1	0	0	0	0	513	463	1021	0	0	0	
2	0	0	0	0	518	469	1021	0	0	0	
3	0	0	0	0	523	475	1021	0	0	0	
4	0	0	0	0	530	482	1021	0	0	0	
5	0	0	0	0	539	490	1021	0	0	0	
6	0	0	0	0	548	497	1021	0	0	0	
7	0	0	0	0	557	505	1021	0	0	0	
8	0	0	0	0	565	512	1021	0	0	0	
9	0	0	0	0	572	516	1021	0	0	0	
10	0	0	0	0	575	520	1021	0	0	0	
11	0	0	0	0	576	521	1021	0	0	0	
12	0	0	0	0	574	521	1021	0	0	0	
13	0	0	0	0	571	520	1021	0	0	0	
14	0	0	0	0	565	518	1021	0	0	0	
15	0	0	0	0	560	516	1021	0	0	0	
0	0	0	0	0	556	515	1021	0	0	0	
1	0	0	0	0	554	515	1021	0	0	0	
2	0	0	0	0	556	518	1021	0	0	0	
3	0	0	0	0	560	523	1021	0	0	0	
4	0	0	0	0	568	529	1021	0	0	0	
5	0	0	0	0	575	535	1021	0	0	0	
6	0	0	0	0	583	540	1021	0	0	0	
7	0	0	0	0	588	544	1021	0	0	0	
8	0	0	0	0	589	546	1021	0	0	0	
9	0	0	0	0	587	545	1021	0	0	0	
10	0	0	0	0	580	540	1021	0	0	0	
11	0	0	0	0	570	533	1021	0	0	0	
12	0	0	0	0	558	523	1021	0	0	0	
13	0	0	0	0	546	512	1021	0	0	0	
14	0	0	0	0	535	500	1021	0	0	0	
15	0	0	0	0	525	489	1021	0	0	0	
0	0	0	0	0	518	479	1021	0	0	0	
1	0	0	0	0	514	470	1021	0	0	0	
2	0	0	0	0	512	464	1021	0	0	0	
3	0	0	0	0	514	461	1021	0	0	0	
4	0	0	0	0	519	460	1021	0	0	0	
5	0	0	0	0	525	463	1021	0	0	0	
6	0	0	0	0	533	467	1021	0	0	0	
7	0	0	0	0	542	473	1021	0	0	0	
8	0	0	0	0	551	480	1021	0	0	0	
9	0	0	0	0	559	488	1021	0	0	0	
10	0	0	0	0	564	495	1021	0	0	0	
11	0	0	0	0	568	502	1021	0	0	0	
12	0	0	0	0	569	509	1021	0	0	0	
13	0	0	0	0	568	515	1021	0	0	0	
14	0	0	0	0	566	519	1021	0	0	0	
15	0	0	0	0	563	522	1021	0	0	0	
0	0	0	0	0	561	524	1021	0	0	0	
1	0	0	0	0	560	526	1021	0	0	0	
2	0	0	0	0	559	525	1021	0	0	0	
3	0	0	0	0	559	523	1021	0	0	0	
4	0	0	0	0	557	519	1021	0	0	0	
5	0	0	0	0	555	514	1021	0	0	0	
6	0	0	0	0	551	508	1021	0	0	0	
7	0	0	0	0	545	500	1021	0	0	0	
8	0	0	0	0	538	492	1021	0	0	0	
9	0	0	0	0	531	483	1021	0	0	0	
10	0	0	0	0	522	475	1021	0	0	0	
11	0	0	0	0	515	469	1021	0	0	0	
12	0	0	0	0	510	465	1021	0	0	0	
13	0	0	0	0	508	464	1021	0	0	0	
14	0	0	0	0	509	466	1021	0	0	0	
15	0	0	0	0	512	471	1021	0	0	0	
0	0	0	0	0	519	479	1021	0	0	0	
1	0	0	0	0	527	487	1021	0	0	0	
2	0	0	0	0	538	498	1021	0	0	0	
3	0	0	0	0	551	509	1021	0	0	0	
4	0	0	0	0	566	519	1021	0	0	0	
5	0	0	0	0	579	527	1021	0	0	0	
6	0	0	0	0	591	533	1021	0	0	0	
7	0	0	0	0	599	536	1021	0	0	0	
8	0	0	0	0	602	536	1021	0	0	0	
9	0	0	0	0	601	532	1021	0	0	0	
10	0	0	0	0	595	527	1021	0	0	0	
11	0	0	0	0	587	519	1021	0	0	0	
12	0	0	0	0	574	509	1021	0	0	0	
13	0	0	0	0	560	499	1021	0	0	0	
14	0	0	0	0	545	490	1021	0	0	0	
15	0	0	0	0	531	481	1021	0	0	0	
0	0	0	0	0	518	474	1021	0	0	0	
1	0	0	0	0	508	468	1021	0	0	0	
2	0	0	0	0	500	465	1021	0	0	0	
3	0	0	0	0	495	463	1021	0	0	0	
4	0	0	0	0	495	464	1021	0	0	0	
5	0	0	0	0	499	467	1021	0	0	0	
6	0	0	0	0	508	472	1021	0	0	0	
7	0	0	0	0	521	477	1021	0	0	0	
8	0	0	0	0	536	483	1021	0	0	0	
9	0	0	0	0	554	489	1021	0	0	0	
10	0	0	0	0	571	494	1021	0	0	0	
11	0	0	0	0	583	499	1021	0	0	0	
12	0	0	0	0	592	503	1021	0	0	0	
13	0	0	0	0	595	505	1021	0	0	0	
14	0	0	0	0	594	507	1021	0	0	0	
15	0	0	0	0	589	508	1021	0	0	0	
0	0	0	0	0	580	510	1021	0	0	0	
1	0	0	0	0	569	510	1021	0	0	0	
2	0	0	0	0	557	511	1021	0	0	0	
3	0	0	0	0	544	510	1021	0	0	0	
4	0	0	0	0	534	510	1021	0	0	0	
5	0	0	0	0	525	508	1021	0	0	0	
6	0	0	0	0	520	507	1021	0	0	0	
7	0	0	0	0	518	506	1021	0	0	0	
8	0	0	0	0	520	504	1021	0	0	0	
9	0	0	0	0	525	504	1021	0	0	0	
10	0	0	0	0	532	504	1021	0	0	0	
11	0	0	0	0	541	505	1021	0	0	0	
12	0	0	0	0	550	507	1021	0	0	0	
13	0	0	0	0	558	509	1021	0	0	0	
14	0	0	0	0	564	512	1021	0	0	0	
15	0	0	0	0	568	514	1021	0	0	0	
0	0	0	0	0	568	516	1021	0	0	0	
1	0	0	0	0	567	517	1021	0	0	0	
2	0	0	0	0	564	516	1021	0	0	0	
3	0	0	0	0	560	515	1021	0	0	0	
4	0	0	0	0	555	513	1021	0	0	0	
5	0	0	0	0	550	511	1021	0	0	0	
6	0	0	0	0	545	507	1021	0	0	0	
7	0	0	0	0	542	503	1021	0	0	0	
8	0	0	0	0	540	499	1021	0	0	0	
9	0	0	0	0	538	495	1021	0	0	0	
10	0	0	0	0	537	491	1021	0	0	0	
11	0	0	0	0	536	487	1021	0	0	0	
12	0	0	0	0	535	483	1021	0	0	0	
13	0	0	0	0	533	480	1021	0	0	0	
14	0	0	0	0	532	477	1021	0	0	0	
15	0	0	0	0	531	475	1021	0	0	0	
0	0	0	0	0	531	475	1021	0	0	0	
1	0	0	0	0	532	476	1021	0	0	0	
2	0	0	0	0	535	478	1021	0	0	0	
3	0	0	0	0	539	482	1021	0	0	0	
4	0	0	0	0	543	487	1020	0	0	0	
5	0	0	0	0	547	494	1021	0	0	0	
6	0	0	0	0	551	500	1021	0	0	0	
7	0	0	0	0	555	507	1021	0	0	0	
8	0	0	0	0	558	513	1021	0	0	0	
9	0	0	0	0	560	519	1021	0	0	0	
10	0	0	0	0	563	522	1021	0	0	0	
11	0	0	0	0	566	525	1021	0	0	0	
12	0	0	0	0	569	527	1021	0	0	0	
13	0	0	0	0	573	527	1021	0	0	0	
14	0	0	0	0	577	527	1021	0	0	0	
15	0	0	0	0	579	525	1021	0	0	0	
0	0	0	0	0	579	523	1021	0	0	0	
1	0	0	0	0	577	519	1021	0	0	0	
2	0	0	0	0	572	514	1021	0	0	0	
3	0	0	0	0	566	508	1021	0	0	0	
4	0	0	0	0	557	503	1021	0	0	0	
5	0	0	0	0	547	496	1021	0	0	0	
6	0	0	0	0	539	489	1021	0	0	0	
7	0	0	0	0	529	481	1021	0	0	0	
8	0	0	0	0	520	474	1021	0	0	0	
9	0	0	0	0	511	467	1021	0	0	0	
10	0	0	0	0	503	460	1021	0	0	0	
11	0	0	0	0	496	455	1021	0	0	0	
12	0	0	0	0	490	451	1021	0	0	0	
13	0	0	0	0	487	451	1021	0	0	0	
14	0	0	0	0	488	452	1021	0	0	0	
15	0	0	0	0	492	457	1021	0	0	0	
0	0	0	0	0	499	465	1021	0	0	0	
1	0	0	0	0	510	476	1021	0	0	0	
2	0	0	0	0	524	488	1021	0	0	0	
3	0	0	0	0	540	502	1021	0	0	0	
4	0	0	0	0	556	515	1021	0	0	0	
5	0	0	0	0	573	529	1021	0	0	0	
6	0	0	0	0	587	540	1021	0	0	0	
7	0	0	0	0	599	550	1021	0	0	0	
8	0	0	0	0	608	557	1021	0	0	0	
9	0	0	0	0	612	560	1021	0	0	0	
10	0	0	0	0	612	560	1021	0	0	0	
11	0	0	0	0	608	556	1021	0	0	0	
12	0	0	0	0	599	547	1021	0	0	0	
13	0	0	0	0	586	534	1021	0	0	0	
14	0	0	0	0	570	519	1021	0	0	0	
15	0	0	0	0	551	502	1021	0	0	0	
0	0	0	0	0	532	484	1021	0	0	0	
1	0	0	0	0	514	468	1021	0	0	0	
2	0	0	0	0	498	454	1021	0	0	0	
3	0	0	0	0	484	443	1021	0	0	0	
4	0	0	0	0	476	436	1021	0	0	0	
5	0	0	0	0	473	433	1021	0	0	0	
6	0	0	0	0	475	434	1021	0	0	0	
7	0	0	0	0	480	438	1021	0	0	0	
8	0	0	0	0	487	445	1021	0	0	0	
9	0	0	0	0	497	453	1021	0	0	0	
10	0	0	0	0	508	462	1021	0	0	0	
11	0	0	0	0	519	472	1021	0	0	0	
12	0	0	0	0	529	482	1021	0	0	0	
13	0	0	0	0	537	491	1021	0	0	0	
14	0	0	0	0	545	499	1021	0	0	0	
15	0	0	0	0	552	506	1021	0	0	0	
0	0	0	0	0	558	511	1021	0	0	0	
1	0	0	0	0	562	515	1021	0	0	0	
2	0	0	0	0	564	518	1021	0	0	0	
3	0	0	0	0	565	518	1021	0	0	0	
4	0	0	0	0	564	518	1021	0	0	0	
5	0	0	0	0	563	516	1021	0	0	0	
6	0	0	0	0	559	513	1021	0	0	0	
7	0	0	0	0	554	510	1021	0	0	0	
8	0	0	0	0	550	506	1021	0	0	0	
9	0	0	0	0	544	502	1021	0	0	0	
10	0	0	0	0	540	498	1021	0	0	0	
11	0	0	0	0	537	494	1021	0	0	0	
12	0	0	0	0	536	490	1021	0	0	0	
13	0	0	0	0	535	487	1021	0	0	0	
14	0	0	0	0	537	484	1021	0	0	0	
15	0	0	0	0	539	482	1021	0	0	0	
0	0	0	0	0	542	481	1020	0	0	0	
1	0	0	0	0	545	482	1021	0	0	0	
2	0	0	0	0	548	485	1021	0	0	0	
3	0	0	0	0	551	488	1021	0	0	0	
4	0	0	0	0	554	493	1021	0	0	0	
5	0	0	0	0	559	499	1021	0	0	0	
6	0	0	0	0	564	505	1021	0	0	0	
7	0	0	0	0	572	513	1021	0	0	0	
8	0	0	0	0	579	520	1021	0	0	0	
9	0	0	0	0	585	527	1021	0	0	0	
10	0	0	0	0	589	532	1021	0	0	0	
11	0	0	0	0	590	535	1021	0	0	0	
12	0	0	0	0	589	536	1021	0	0	0	
13	0	0	0	0	583	533	1021	0	0	0	
14	0	0	0	0	576	528	1021	0	0	0	
15	0	0	0	0	566	521	1021	0	0	0	
0	0	0	0	0	555	512	1021	0	0	0	
1	0	0	0	0	543	503	1021	0	0	0	
2	0	0	0	0	532	492	1021	0	0	0	
3	0	0	0	0	523	483	1021	0	0	0	
4	0	0	0	0	515	473	1021	0	0	0	
5	0	0	0	0	510	465	1021	0	0	0	
6	0	0	0	0	507	459	1021	0	0	0	
7	0	0	0	0	505	455	1021	0	0	0	
8	0	0	0	0	506	453	1021	0	0	0	
9	0	0	0	0	508	454	1021	0	0	0	
10	0	0	0	0	513	459	1021	0	0	0	
11	0	0	0	0	520	466	1021	0	0	0	
12	0	0	0	0	529	477	1021	0	0	0	
13	0	0	0	0	541	489	1021	0	0	0	
14	0	0	0	0	553	503	1021	0	0	0	
15	0	0	0	0	564	516	1021	0	0	0	
0	0	0	0	0	574	529	1021	0	0	0	
1	0	0	0	0	581	538	1021	0	0	0	
2	0	0	0	0	585	545	1021	0	0	0	
3	0	0	0	0	585	547	1021	0	0	0	
4	0	0	0	0	580	544	1021	0	0	0	
5	0	0	0	0	572	537	1021	0	0	0	
6	0	0	0	0	560	526	1021	0	0	0	
7	0	0	0	0	545	512	1021	0	0	0	
8	0	0	0	0	529	496	1020	0	0	0	
9	0	0	0	0	513	479	1021	0	0	0	
10	0	0	0	0	500	465	1021	0	0	0	
11	0	0	0	0	490	452	1021	0	0	0	
12	0	0	0	0	485	443	1021	0	0	0	
13	0	0	0	0	484	438	1021	0	0	0	
14	0	0	0	0	488	437	1021	0	0	0	
15	0	0	0	0	497	441	1021	0	0	0	
0	0	0	0	0	509	447	1021	0	0	0	
1	0	0	0	0	521	455	1021	0	0	0	
2	0	0	0	0	534	463	1021	0	0	0	
3	0	0	0	0	546	473	1021	0	0	0	
4	0	0	0	0	556	482	1021	0	0	0	
5	0	0	0	0	564	490	1021	0	0	0	
6	0	0	0	0	569	496	1021	0	0	0	
7	0	0	0	0	572	502	1021	0	0	0	
8	0	0	0	0	572	507	1021	0	0	0	
9	0	0	0	0	572	511	1021	0	0	0	
10	0	0	0	0	569	515	1021	0	0	0	
11	0	0	0	0	567	519	1021	0	0	0	
12	0	0	0	0	563	522	1021	0	0	0	
13	0	0	0	0	558	523	1021	0	0	0	
14	0	0	0	0	552	524	1021	0	0	0	
15	0	0	0	0	546	522	1021	0	0	0	
0	0	0	0	0	539	519	1021	0	0	0	
1	0	0	0	0	531	514	1021	0	0	0	
2	0	0	0	0	524	507	1021	0	0	0	
3	0	0	0	0	518	499	1021	0	0	0	
4	0	0	0	0	513	491	1021	0	0	0	
5	0	0	0	0	510	482	1021	0	0	0	
6	0	0	0	0	508	474	1021	0	0	0	
7	0	0	0	0	508	467	1021	0	0	0	
8	0	0	0	0	510	461	1021	0	0	0	
9	0	0	0	0	512	457	1021	0	0	0	
10	0	0	0	0	516	456	1021	0	0	0	
11	0	0	0	0	521	456	1021	0	0	0	
12	0	0	0	0	528	459	1021	0	0	0	
13	0	0	0	0	535	464	1021	0	0	0	
14	0	0	0	0	542	470	1021	0	0	0	
15	0	0	0	0	550	478	1021	0	0	0	
0	0	0	0	0	556	486	1021	0	0	0	
1	0	0	0	0	563	494	1021	0	0	0	
2	0	0	0	0	568	502	1021	0	0	0	
3	0	0	0	0	573	510	1021	0	0	0	
4	0	0	0	0	576	515	1020	0	0	0	
5	0	0	0	0	579	520	1021	0	0	0	
6	0	0	0	0	580	524	1021	0	0	0	
7	0	0	0	0	580	526	1021	0	0	0	
8	0	0	0	0	578	526	1021	0	0	0	
9	0	0	0	0	575	525	1021	0	0	0	
10	0	0	0	0	569	522	1021	0	0	0	
11	0	0	0	0	561	518	1021	0	0	0	
12	0	0	0	0	552	512	1021	0	0	0	
13	0	0	0	0	543	504	1021	0	0	0	
14	0	0	0	0	535	496	1021	0	0	0	
15	0	0	0	0	526	487	1021	0	0	0	
0	0	0	0	0	518	479	1021	0	0	0	
1	0	0	0	0	512	471	1021	0	0	0	
2	0	0	0	0	506	463	1021	0	0	0	
3	0	0	0	0	502	455	1021	0	0	0	
4	0	0	0	0	498	449	1021	0	0	0	
5	0	0	0	0	496	444	1021	0	0	0	
6	0	0	0	0	496	441	1021	0	0	0	
7	0	0	0	0	497	440	1021	0	0	0	
8	0	0	0	0	500	440	1021	0	0	0	
9	0	0	0	0	505	442	1021	0	0	0	
10	0	0	0	0	511	446	1021	0	0	0	
11	0	0	0	0	518	452	1021	0	0	0	
12	0	0	0	0	526	459	1021	0	0	0	
13	0	0	0	0	534	467	1021	0	0	0	
14	0	0	0	0	542	477	1021	0	0	0	
15	0	0	0	0	550	487	1021	0	0	0	
0	0	0	0	0	557	496	1021	0	0	0	
1	0	0	0	0	564	505	1021	0	0	0	
2	0	0	0	0	568	512	1021	0	0	0	
3	0	0	0	0	571	516	1021	0	0	0	
4	0	0	0	0	569	517	1021	0	0	0	
5	0	0	0	0	566	516	1021	0	0	0	
6	0	0	0	0	561	513	1021	0	0	0	
7	0	0	0	0	555	509	1021	0	0	0	
8	0	0	0	0	549	504	1021	0	0	0	
9	0	0	0	0	545	499	1021	0	0	0	
10	0	0	0	0	543	496	1021	0	0	0	
11	0	0	0	0	544	492	1021	0	0	0	
12	0	0	0	0	545	489	1021	0	0	0	
13	0	0	0	0	547	486	1021	0	0	0	
14	0	0	0	0	548	482	1021	0	0	0	
15	0	0	0	0	547	478	1021	0	0	0	
0	0	0	0	0	545	474	1021	0	0	0	
1	0	0	0	0	543	472	1021	0	0	0	
2	0	0	0	0	540	471	1021	0	0	0	
3	0	0	0	0	536	471	1021	0	0	0	
4	0	0	0	0	534	474	1021	0	0	0	
5	0	0	0	0	531	478	1021	0	0	0	
6	0	0	0	0	528	482	1021	0	0	0	
7	0	0	0	0	525	486	1021	0	0	0	
8	0	0	0	0	521	490	1021	0	0	0	
9	0	0	0	0	518	492	1021	0	0	0	
10	0	0	0	0	514	492	1021	0	0	0	
11	0	0	0	0	511	492	1021	0	0	0	
12	0	0	0	0	508	489	1021	0	0	0	
13	0	0	0	0	505	486	1021	0	0	0	
14	0	0	0	0	505	483	1021	0	0	0	
15	0	0	0	0	507	480	1021	0	0	0	
0	0	0	0	0	511	478	1021	0	0	0	
1	0	0	0	0	516	476	1021	0	0	0	
2	0	0	0	0	522	476	1021	0	0	0	
3	0	0	0	0	529	476	1021	0	0	0	
4	0	0	0	0	535	477	1021	0	0	0	
5	0	0	0	0	539	479	1021	0	0	0	
6	0	0	0	0	542	482	1021	0	0	0	
7	0	0	0	0	542	485	1021	0	0	0	
8	0	0	0	0	542	488	1021	0	0	0	
9	0	0	0	0	541	491	1021	0	0	0	
10	0	0	0	0	540	495	1021	0	0	0	
11	0	0	0	0	539	498	1021	0	0	0	
12	0	0	0	0	539	500	1021	0	0	0	
13	0	0	0	0	542	504	1021	0	0	0	
14	0	0	0	0	547	509	1021	0	0	0	
15	0	0	0	0	553	513	1021	0	0	0	
0	0	0	0	0	561	518	1021	0	0	0	
1	0	0	0	0	569	522	1021	0	0	0	
2	0	0	0	0	576	524	1021	0	0	0	
3	0	0	0	0	581	524	1021	0	0	0	
4	0	0	0	0	583	520	1021	0	0	0	
5	0	0	0	0	580	515	1021	0	0	0	
6	0	0	0	0	575	507	1021	0	0	0	
7	0	0	0	0	568	498	1021	0	0	0	
8	0	0	0	0	560	489	1021	0	0	0	
9	0	0	0	0	552	481	1021	0	0	0	
10	0	0	0	0	545	476	1021	0	0	0	
11	0	0	0	0	540	472	1021	0	0	0	
12	0	0	0	0	537	471	1021	0	0	0	
13	0	0	0	0	536	471	1021	0	0	0	
14	0	0	0	0	535	472	1021	0	0	0	
15	0	0	0	0	534	473	1021	0	0	0	
0	0	0	0	0	531	475	1021	0	0	0	
1	0	0	0	0	529	476	1021	0	0	0	
2	0	0	0	0	525	476	1021	0	0	0	
3	0	0	0	0	520	475	1021	0	0	0	
4	0	0	0	0	515	474	1021	0	0	0	
5	0	0	0	0	511	473	1021	0	0	0	
6	0	0	0	0	508	472	1021	0	0	0	
7	0	0	0	0	507	472	1021	0	0	0	
8	0	0	0	0	508	472	1021	0	0	0	
9	0	0	0	0	511	473	1021	0	0	0	
10	0	0	0	0	517	475	1021	0	0	0	
11	0	0	0	0	524	476	1021	0	0	0	
12	0	0	0	0	533	479	1021	0	0	0	
13	0	0	0	0	541	482	1021	0	0	0	
14	0	0	0	0	547	484	1021	0	0	0	
15	0	0	0	0	553	487	1021	0	0	0	
0	0	0	0	0	557	488	1021	0	0	0	
1	0	0	0	0	559	489	1021	0	0	0	
2	0	0	0	0	559	490	1021	0	0	0	
3	0	0	0	0	557	489	1021	0	0	0	
4	0	0	0	0	552	489	1021	0	0	0	
5	0	0	0	0	545	487	1021	0	0	0	
6	0	0	0	0	537	485	1021	0	0	0	
7	0	0	0	0	528	483	1021	0	0	0	
8	0	0	0	0	519	481	1021	0	0	0	
9	0	0	0	0	512	480	1021	0	0	0	
10	0	0	0	0	506	479	1021	0	0	0	
11	0	0	0	0	503	478	1021	0	0	0	
12	0	0	0	0	502	479	1021	0	0	0	
13	0	0	0	0	504	480	1021	0	0	0	
14	0	0	0	0	509	482	1021	0	0	0	
15	0	0	0	0	516	484	1021	0	0	0	
0	0	0	0	0	525	487	1021	0	0	0	
1	0	0	0	0	536	490	1021	0	0	0	
2	0	0	0	0	545	493	1021	0	0	0	
3	0	0	0	0	556	496	1021	0	0	0	
4	0	0	0	0	564	498	1021	0	0	0	
5	0	0	0	0	570	499	1021	0	0	0	
6	0	0	0	0	574	499	1021	0	0	0	
7	0	0	0	0	574	499	1021	0	0	0	
8	0	0	0	0	572	499	1021	0	0	0	
9	0	0	0	0	569	499	1021	0	0	0	
10	0	0	0	0	566	501	1021	0	0	0	
11	0	0	0	0	563	504	1021	0	0	0	
12	0	0	0	0	562	507	1021	0	0	0	
13	0	0	0	0	562	511	1021	0	0	0	
14	0	0	0	0	562	516	1021	0	0	0	
15	0	0	0	0	563	520	1021	0	0	0	
0	0	0	0	0	565	523	1021	0	0	0	
1	0	0	0	0	565	524	1021	0	0	0	
2	0	0	0	0	565	525	1021	0	0	0	
3	0	0	0	0	564	523	1021	0	0	0	
4	0	0	0	0	563	519	1021	0	0	0	
5	0	0	0	0	560	514	1021	0	0	0	
6	0	0	0	0	557	507	1021	0	0	0	
7	0	0	0	0	555	499	1021	0	0	0	
8	0	0	0	0	552	491	1021	0	0	0	
9	0	0	0	0	550	483	1021	0	0	0	
10	0	0	0	0	547	476	1021	0	0	0	
11	0	0	0	0	544	471	1021	0	0	0	
12	0	0	0	0	542	468	1021	0	0	0	
13	0	0	0	0	540	467	1021	0	0	0	
14	0	0	0	0	540	467	1021	0	0	0	
15	0	0	0	0	539	470	1021	0	0	0	
0	0	0	0	0	537	473	1021	0	0	0	
1	0	0	0	0	535	477	1021	0	0	0	
2	0	0	0	0	531	480	1021	0	0	0	
3	0	0	0	0	527	483	1021	0	0	0	
4	0	0	0	0	524	484	1021	0	0	0	
5	0	0	0	0	519	485	1020	0	0	0	
6	0	0	0	0	518	486	1021	0	0	0	
7	0	0	0	0	516	485	1021	0	0	0	
8	0	0	0	0	516	485	1021	0	0	0	
9	0	0	0	0	518	484	1021	0	0	0	
10	0	0	0	0	520	483	1020	0	0	0	
11	0	0	0	0	525	483	1021	0	0	0	
12	0	0	0	0	530	482	1021	0	0	0	
13	0	0	0	0	536	482	1021	0	0	0	
14	0	0	0	0	540	482	1021	0	0	0	
15	0	0	0	0	543	481	1020	0	0	0	
0	0	0	0	0	543	480	1021	0	0	0	
1	0	0	0	0	540	478	1021	0	0	0	
2	0	0	0	0	534	476	1021	0	0	0	
3	0	0	0	0	524	474	1021	0	0	0	
4	0	0	0	0	515	472	1021	0	0	0	
5	0	0	0	0	505	471	1021	0	0	0	
6	0	0	0	0	499	471	1021	0	0	0	
7	0	0	0	0	495	472	1021	0	0	0	
8	0	0	0	0	496	474	1021	0	0	0	
9	0	0	0	0	502	478	1021	0	0	0	
10	0	0	0	0	511	481	1021	0	0	0	
11	0	0	0	0	523	486	1021	0	0	0	
12	0	0	0	0	537	491	1021	0	0	0	
13	0	0	0	0	551	494	1021	0	0	0	
14	0	0	0	0	563	496	1021	0	0	0	
15	0	0	0	0	572	496	1021	0	0	0	
0	0	0	0	0	577	495	1021	0	0	0	
1	0	0	0	0	577	492	1021	0	0	0	
2	0	0	0	0	572	487	1021	0	0	0	
3	0	0	0	0	564	482	1021	0	0	0	
4	0	0	0	0	554	478	1021	0	0	0	
5	0	0	0	0	542	474	1021	0	0	0	
6	0	0	0	0	531	472	1021	0	0	0	
7	0	0	0	0	521	472	1021	0	0	0	
8	0	0	0	0	512	473	1021	0	0	0	
9	0	0	0	0	506	476	1021	0	0	0	
10	0	0	0	0	502	480	1021	0	0	0	
11	0	0	0	0	501	484	1021	0	0	0	
12	0	0	0	0	503	487	1021	0	0	0	
13	0	0	0	0	507	490	1021	0	0	0	
14	0	0	0	0	512	492	1021	0	0	0	
15	0	0	0	0	518	492	1021	0	0	0	
0	0	0	0	0	524	491	1021	0	0	0	
1	0	0	0	0	528	487	1021	0	0	0	
2	0	0	0	0	531	483	1021	0	0	0	
3	0	0	0	0	533	479	1021	0	0	0	
4	0	0	0	0	533	474	1021	0	0	0	
5	0	0	0	0	531	469	1021	0	0	0	
6	0	0	0	0	527	464	1021	0	0	0	
7	0	0	0	0	521	460	1021	0	0	0	
8	0	0	0	0	515	457	1021	0	0	0	
9	0	0	0	0	510	456	1021	0	0	0	
10	0	0	0	0	507	457	1021	0	0	0	
11	0	0	0	0	507	461	1021	0	0	0	
12	0	0	0	0	510	466	1021	0	0	0	
13	0	0	0	0	516	474	1021	0	0	0	
14	0	0	0	0	524	482	1021	0	0	0	
15	0	0	0	0	534	491	1021	0	0	0	
0	0	0	0	0	544	499	1021	0	0	0	
1	0	0	0	0	553	507	1021	0	0	0	
2	0	0	0	0	561	512	1021	0	0	0	
3	0	0	0	0	567	516	1021	0	0	0	
4	0	0	0	0	569	517	1021	0	0	0	
5	0	0	0	0	569	515	1021	0	0	0	
6	0	0	0	0	564	510	1021	0	0	0	
7	0	0	0	0	557	503	1021	0	0	0	
8	0	0	0	0	547	493	1021	0	0	0	
9	0	0	0	0	535	483	1021	0	0	0	
10	0	0	0	0	522	472	1021	0	0	0	
11	0	0	0	0	509	463	1021	0	0	0	
12	0	0	0	0	498	454	1021	0	0	0	
13	0	0	0	0	488	447	1021	0	0	0	
14	0	0	0	0	479	441	1021	0	0	0	
15	0	0	0	0	470	436	1021	0	0	0	
0	0	0	0	0	462	431	1021	0	0	0	
1	0	0	0	0	453	424	1021	0	0	0	
2	0	0	0	0	442	415	1021	0	0	0	
3	0	0	0	0	430	403	1021	0	0	0	
4	0	0	0	0	415	385	1021	0	0	0	
5	0	0	0	0	398	364	1021	0	0	0	
6	0	0	0	0	380	339	1021	0	0	0	
7	0	0	0	0	364	313	1021	0	0	0	
8	0	0	0	0	348	286	1021	0	0	0	
9	0	0	0	0	335	262	1021	0	0	0	
10	0	0	0	0	324	240	1021	0	0	0	
11	0	0	0	0	317	223	1021	0	0	0	
12	0	0	0	0	313	215	1021	0	0	0	
13	0	0	0	0	315	212	1021	0	0	0	
14	0	0	0	0	321	218	1021	0	0	0	
15	0	0	0	0	330	230	1021	0	0	0	
0	0	0	0	0	342	247	1021	0	0	0	
1	0	0	0	0	355	268	1021	0	0	0	
2	0	0	0	0	369	291	1021	0	0	0	
3	0	0	0	0	383	316	1020	0	0	0	
4	0	0	0	0	397	340	1021	0	0	0	
5	0	0	0	0	412	364	1021	0	0	0	
6	0	0	0	0	428	386	1021	0	0	0	
7	0	0	0	0	445	405	1021	0	0	0	
8	0	0	0	0	461	422	1021	0	0	0	
9	0	0	0	0	476	435	1021	0	0	0	
10	0	0	0	0	490	446	1021	0	0	0	
11	0	0	0	0	502	455	1021	0	0	0	
12	0	0	0	0	513	463	1021	0	0	0	
13	0	0	0	0	520	468	1021	0	0	0	
14	0	0	0	0	527	472	1021	0	0	0	
15	0	0	0	0	531	476	1021	0	0	0	
0	0	0	0	0	535	479	1021	0	0	0	
1	0	0	0	0	536	481	1021	0	0	0	
2	0	0	0	0	537	483	1021	0	0	0	
3	0	0	0	0	537	485	1021	0	0	0	
4	0	0	0	0	538	487	1021	0	0	0	
5	0	0	0	0	540	489	1021	0	0	0	
6	0	0	0	0	543	491	1021	0	0	0	
7	0	0	0	0	546	494	1021	0	0	0	
8	0	0	0	0	550	498	1020	0	0	0	
9	0	0	0	0	555	502	1021	0	0	0	
10	0	0	0	0	559	507	1021	0	0	0	
11	0	0	0	0	563	511	1021	0	0	0	
12	0	0	0	0	567	515	1021	0	0	0	
13	0	0	0	0	569	518	1021	0	0	0	
14	0	0	0	0	571	520	1021	0	0	0	
15	0	0	0	0	573	522	1021	0	0	0	
0	0	0	0	0	573	523	1021	0	0	0	
1	0	0	0	0	570	521	1021	0	0	0	
2	0	0	0	0	566	519	1021	0	0	0	
3	0	0	0	0	560	516	1021	0	0	0	
4	0	0	0	0	555	513	1021	0	0	0	
5	0	0	0	0	549	508	1021	0	0	0	
6	0	0	0	0	544	505	1021	0	0	0	
7	0	0	0	0	541	501	1021	0	0	0	
8	0	0	0	0	540	499	1021	0	0	0	
9	0	0	0	0	542	498	1021	0	0	0	
10	0	0	0	0	546	499	1021	0	0	0	
11	0	0	0	0	553	501	1021	0	0	0	
12	0	0	0	0	561	504	1021	0	0	0	
13	0	0	0	0	570	508	1021	0	0	0	
14	0	0	0	0	579	511	1021	0	0	0	
15	0	0	0	0	587	514	1021	0	0	0	
0	0	0	0	0	593	514	1021	0	0	0	
1	0	0	0	0	597	513	1021	0	0	0	
2	0	0	0	0	598	509	1021	0	0	0	
3	0	0	0	0	595	504	1021	0	0	0	
4	0	0	0	0	590	498	1021	0	0	0	
5	0	0	0	0	582	492	1021	0	0	0	
6	0	0	0	0	573	486	1021	0	0	0	
7	0	0	0	0	563	482	1021	0	0	0	
8	0	0	0	0	554	480	1021	0	0	0	
9	0	0	0	0	545	480	1021	0	0	0	
10	0	0	0	0	537	482	1021	0	0	0	
11	0	0	0	0	531	487	1021	0	0	0	
12	0	0	0	0	527	493	1021	0	0	0	
13	0	0	0	0	527	501	1021	0	0	0	
14	0	0	0	0	529	509	1021	0	0	0	
15	0	0	0	0	535	517	1021	0	0	0	
0	0	0	0	0	541	524	1021	0	0	0	
1	0	0	0	0	548	528	1021	0	0	0	
2	0	0	0	0	556	532	1021	0	0	0	
3	0	0	0	0	564	534	1021	0	0	0	
4	0	0	0	0	571	535	1021	0	0	0	
5	0	0	0	0	577	535	1021	0	0	0	
6	0	0	0	0	583	535	1021	0	0	0	
7	0	0	0	0	588	536	1021	0	0	0	
8	0	0	0	0	594	536	1021	0	0	0	
9	0	0	0	0	599	534	1021	0	0	0	
10	0	0	0	0	603	533	1021	0	0	0	
11	0	0	0	0	604	531	1021	0	0	0	
12	0	0	0	0	604	528	1021	0	0	0	
13	0	0	0	0	600	524	1021	0	0	0	
14	0	0	0	0	593	518	1021	0	0	0	
15	0	0	0	0	585	511	1021	0	0	0	
0	0	0	0	0	575	505	1021	0	0	0	
1	0	0	0	0	566	498	1021	0	0	0	
2	0	0	0	0	557	492	1021	0	0	0	
3	0	0	0	0	549	487	1021	0	0	0	
4	0	0	0	0	544	484	1021	0	0	0	
5	0	0	0	0	540	481	1021	0	0	0	
6	0	0	0	0	539	481	1021	0	0	0	
7	0	0	0	0	538	481	1021	0	0	0	
8	0	0	0	0	539	481	1021	0	0	0	
9	0	0	0	0	539	483	1021	0	0	0	
10	0	0	0	0	538	483	1021	0	0	0	
11	0	0	0	0	537	485	1021	0	0	0	
12	0	0	0	0	536	487	1021	0	0	0	
13	0	0	0	0	535	488	1021	0	0	0	
14	0	0	0	0	533	490	1021	0	0	0	
15	0	0	0	0	531	492	1021	0	0	0	
0	0	0	0	0	530	495	1021	0	0	0	
1	0	0	0	0	529	498	1021	0	0	0	
2	0	0	0	0	532	503	1021	0	0	0	
3	0	0	0	0	537	510	1021	0	0	0	
4	0	0	0	0	544	516	1021	0	0	0	
5	0	0	0	0	553	524	1021	0	0	0	
6	0	0	0	0	562	531	1021	0	0	0	
7	0	0	0	0	571	536	1021	0	0	0	
8	0	0	0	0	578	540	1020	0	0	0	
9	0	0	0	0	583	542	1021	0	0	0	
10	0	0	0	0	587	541	1021	0	0	0	
11	0	0	0	0	586	537	1021	0	0	0	
12	0	0	0	0	583	530	1021	0	0	0	
13	0	0	0	0	576	520	1021	0	0	0	
14	0	0	0	0	568	508	1021	0	0	0	
15	0	0	0	0	558	495	1021	0	0	0	
0	0	0	0	0	549	482	1021	0	0	0	
1	0	0	0	0	540	470	1021	0	0	0	
2	0	0	0	0	532	458	1021	0	0	0	
3	0	0	0	0	527	451	1021	0	0	0	
4	0	0	0	0	524	447	1021	0	0	0	
5	0	0	0	0	526	447	1021	0	0	0	
6	0	0	0	0	530	451	1021	0	0	0	
7	0	0	0	0	538	458	1021	0	0	0	
8	0	0	0	0	549	469	1021	0	0	0	
9	0	0	0	0	561	482	1021	0	0	0	
10	0	0	0	0	574	495	1021	0	0	0	
11	0	0	0	0	584	508	1021	0	0	0	
12	0	0	0	0	593	519	1021	0	0	0	
13	0	0	0	0	599	527	1021	0	0	0	
14	0	0	0	0	602	534	1021	0	0	0	
15	0	0	0	0	603	537	1021	0	0	0	
0	0	0	0	0	601	539	1021	0	0	0	
1	0	0	0	0	598	537	1021	0	0	0	
2	0	0	0	0	593	534	1021	0	0	0	
3	0	0	0	0	587	528	1021	0	0	0	
4	0	0	0	0	578	522	1021	0	0	0	
5	0	0	0	0	569	514	1021	0	0	0	
6	0	0	0	0	558	506	1021	0	0	0	
7	0	0	0	0	548	498	1021	0	0	0	
8	0	0	0	0	540	491	1021	0	0	0	
9	0	0	0	0	533	486	1021	0	0	0	
10	0	0	0	0	528	481	1021	0	0	0	
11	0	0	0	0	527	479	1021	0	0	0	
12	0	0	0	0	527	478	1021	0	0	0	
13	0	0	0	0	531	479	1021	0	0	0	
14	0	0	0	0	537	482	1021	0	0	0	
15	0	0	0	0	545	486	1021	0	0	0	
0	0	0	0	0	553	491	1021	0	0	0	
1	0	0	0	0	563	497	1021	0	0	0	
2	0	0	0	0	572	503	1021	0	0	0	
3	0	0	0	0	581	508	1021	0	0	0	
4	0	0	0	0	588	513	1021	0	0	0	
5	0	0	0	0	592	516	1021	0	0	0	
6	0	0	0	0	593	516	1021	0	0	0	
7	0	0	0	0	589	514	1021	0	0	0	
8	0	0	0	0	581	508	1021	0	0	0	
9	0	0	0	0	569	499	1021	0	0	0	
10	0	0	0	0	555	489	1021	0	0	0	
11	0	0	0	0	538	477	1021	0	0	0	
12	0	0	0	0	521	466	1021	0	0	0	
13	0	0	0	0	504	455	1021	0	0	0	
14	0	0	0	0	489	447	1021	0	0	0	
15	0	0	0	0	478	441	1021	0	0	0	
0	0	0	0	0	471	439	1021	0	0	0	
1	0	0	0	0	468	440	1021	0	0	0	
2	0	0	0	0	472	445	1021	0	0	0	
3	0	0	0	0	480	454	1020	0	0	0	
4	0	0	0	0	493	465	1021	0	0	0	
5	0	0	0	0	509	477	1021	0	0	0	
6	0	0	0	0	527	491	1021	0	0	0	
7	0	0	0	0	545	504	1021	0	0	0	
8	0	0	0	0	561	515	1021	0	0	0	
9	0	0	0	0	575	523	1021	0	0	0	
10	0	0	0	0	586	529	1021	0	0	0	
11	0	0	0	0	593	533	1021	0	0	0	
12	0	0	0	0	598	535	1021	0	0	0	
13	0	0	0	0	600	535	1021	0	0	0	
14	0	0	0	0	600	532	1021	0	0	0	
15	0	0	0	0	597	529	1021	0	0	0	
0	0	0	0	0	593	525	1021	0	0	0	
1	0	0	0	0	588	520	1021	0	0	0	
2	0	0	0	0	580	515	1021	0	0	0	
3	0	0	0	0	572	510	1021	0	0	0	
4	0	0	0	0	564	504	1021	0	0	0	
5	0	0	0	0	556	499	1021	0	0	0	
6	0	0	0	0	547	494	1021	0	0	0	
7	0	0	0	0	539	488	1021	0	0	0	
8	0	0	0	0	531	483	1021	0	0	0	
9	0	0	0	0	525	480	1021	0	0	0	
10	0	0	0	0	519	477	1021	0	0	0	
11	0	0	0	0	515	475	1021	0	0	0	
12	0	0	0	0	513	474	1021	0	0	0	
13	0	0	0	0	513	474	1021	0	0	0	
14	0	0	0	0	517	475	1021	0	0	0	
15	0	0	0	0	524	478	1021	0	0	0	
0	0	0	0	0	535	481	1021	0	0	0	
1	0	0	0	0	547	485	1021	0	0	0	
2	0	0	0	0	560	490	1021	0	0	0	
3	0	0	0	0	574	495	1021	0	0	0	
4	0	0	0	0	587	501	1021	0	0	0	
5	0	0	0	0	599	508	1021	0	0	0	
6	0	0	0	0	607	513	1021	0	0	0	
7	0	0	0	0	611	518	1021	0	0	0	
8	0	0	0	0	610	522	1021	0	0	0	
9	0	0	0	0	606	526	1021	0	0	0	
10	0	0	0	0	598	528	1021	0	0	0	
11	0	0	0	0	587	529	1021	0	0	0	
12	0	0	0	0	576	529	1021	0	0	0	
13	0	0	0	0	563	527	1021	0	0	0	
14	0	0	0	0	550	524	1021	0	0	0	
15	0	0	0	0	537	518	1021	0	0	0	
0	0	0	0	0	526	511	1021	0	0	0	
1	0	0	0	0	515	503	1021	0	0	0	
2	0	0	0	0	507	494	1021	0	0	0	
3	0	0	0	0	501	485	1021	0	0	0	
4	0	0	0	0	498	478	1021	0	0	0	
5	0	0	0	0	497	472	1021	0	0	0	
6	0	0	0	0	499	467	1021	0	0	0	
7	0	0	0	0	503	465	1021	0	0	0	
8	0	0	0	0	509	465	1021	0	0	0	
9	0	0	0	0	516	467	1021	0	0	0	
10	0	0	0	0	525	471	1021	0	0	0	
11	0	0	0	0	534	476	1021	0	0	0	
12	0	0	0	0	541	482	1021	0	0	0	
13	0	0	0	0	547	487	1021	0	0	0	
14	0	0	0	0	551	491	1021	0	0	0	
15	0	0	0	0	553	495	1021	0	0	0	
0	0	0	0	0	554	497	1021	0	0	0	
1	0	0	0	0	554	499	1021	0	0	0	
2	0	0	0	0	554	499	1021	0	0	0	
3	0	0	0	0	553	499	1021	0	0	0	
4	0	0	0	0	553	499	1021	0	0	0	
5	0	0	0	0	551	497	1021	0	0	0	
6	0	0	0	0	549	497	1021	0	0	0	
7	0	0	0	0	547	496	1021	0	0	0	
8	0	0	0	0	545	496	1021	0	0	0	
9	0	0	0	0	543	497	1021	0	0	0	
10	0	0	0	0	543	499	1021	0	0	0	
11	0	0	0	0	543	502	1021	0	0	0	
12	0	0	0	0	545	506	1021	0	0	0	
13	0	0	0	0	549	510	1021	0	0	0	
14	0	0	0	0	554	514	1021	0	0	0	
15	0	0	0	0	559	518	1021	0	0	0	
0	0	0	0	0	565	520	1021	0	0	0	
1	0	0	0	0	571	522	1021	0	0	0	
2	0	0	0	0	575	522	1021	0	0	0	
3	0	0	0	0	578	521	1021	0	0	0	
4	0	0	0	0	578	517	1021	0	0	0	
5	0	0	0	0	576	513	1021	0	0	0	
6	0	0	0	0	572	507	1021	0	0	0	
7	0	0	0	0	566	501	1021	0	0	0	
8	0	0	0	0	559	494	1021	0	0	0	
9	0	0	0	0	551	487	1021	0	0	0	
10	0	0	0	0	542	480	1021	0	0	0	
11	0	0	0	0	534	474	1021	0	0	0	
12	0	0	0	0	526	469	1021	0	0	0	
13	0	0	0	0	520	466	1021	0	0	0	
14	0	0	0	0	515	463	1021	0	0	0	
15	0	0	0	0	512	463	1021	0	0	0	
0	0	0	0	0	511	463	1021	0	0	0	
1	0	0	0	0	510	465	1021	0	0	0	
2	0	0	0	0	511	467	1021	0	0	0	
3	0	0	0	0	513	470	1021	0	0	0	
4	0	0	0	0	516	473	1021	0	0	0	
5	0	0	0	0	521	476	1021	0	0	0	
6	0	0	0	0	527	479	1021	0	0	0	
7	0	0	0	0	535	483	1021	0	0	0	
8	0	0	0	0	544	487	1021	0	0	0	
9	0	0	0	0	555	493	1021	0	0	0	
10	0	0	0	0	564	499	1021	0	0	0	
11	0	0	0	0	572	505	1021	0	0	0	
12	0	0	0	0	577	511	1021	0	0	0	
13	0	0	0	0	579	515	1021	0	0	0	
14	0	0	0	0	576	518	1021	0	0	0	
15	0	0	0	0	570	518	1021	0	0	0	
0	0	0	0	0	560	516	1021	0	0	0	
1	0	0	0	0	548	512	1021	0	0	0	
2	0	0	0	0	534	505	1021	0	0	0	
3	0	0	0	0	520	497	1021	0	0	0	
4	0	0	0	0	508	489	1021	0	0	0	
5	0	0	0	0	499	480	1021	0	0	0	
6	0	0	0	0	493	473	1021	0	0	0	
7	0	0	0	0	492	467	1021	0	0	0	
8	0	0	0	0	494	462	1021	0	0	0	
9	0	0	0	0	499	460	1021	0	0	0	
10	0	0	0	0	507	458	1021	0	0	0	
11	0	0	0	0	515	458	1021	0	0	0	
12	0	0	0	0	524	458	1021	0	0	0	
13	0	0	0	0	532	459	1021	0	0	0	
14	0	0	0	0	541	462	1021	0	0	0	
15	0	0	0	0	549	464	1021	0	0	0	
0	0	0	0	0	556	468	1021	0	0	0	
1	0	0	0	0	562	472	1021	0	0	0	
2	0	0	0	0	567	476	1021	0	0	0	
3	0	0	0	0	569	480	1021	0	0	0	
4	0	0	0	0	570	483	1021	0	0	0	
5	0	0	0	0	568	485	1021	0	0	0	
6	0	0	0	0	564	487	1021	0	0	0	
7	0	0	0	0	559	487	1021	0	0	0	
8	0	0	0	0	552	487	1021	0	0	0	
9	0	0	0	0	545	486	1021	0	0	0	
10	0	0	0	0	537	485	1021	0	0	0	
11	0	0	0	0	530	484	1021	0	0	0	
12	0	0	0	0	524	483	1021	0	0	0	
13	0	0	0	0	521	484	1021	0	0	0	
14	0	0	0	0	521	486	1021	0	0	0	
15	0	0	0	0	522	488	1021	0	0	0	
0	0	0	0	0	527	492	1021	0	0	0	
1	0	0	0	0	532	496	1021	0	0	0	
2	0	0	0	0	540	499	1021	0	0	0	
3	0	0	0	0	548	502	1021	0	0	0	
4	0	0	0	0	555	504	1021	0	0	0	
5	0	0	0	0	559	504	1021	0	0	0	
6	0	0	0	0	561	502	1021	0	0	0	
7	0	0	0	0	561	500	1021	0	0	0	
8	0	0	0	0	560	498	1021	0	0	0	
9	0	0	0	0	556	495	1021	0	0	0	
10	0	0	0	0	553	492	1021	0	0	0	
11	0	0	0	0	549	490	1021	0	0	0	
12	0	0	0	0	545	489	1021	0	0	0	
13	0	0	0	0	542	488	1021	0	0	0	
14	0	0	0	0	539	487	1021	0	0	0	
15	0	0	0	0	535	486	1021	0	0	0	
0	0	0	0	0	531	484	1021	0	0	0	
1	0	0	0	0	528	483	1021	0	0	0	
2	0	0	0	0	526	482	1021	0	0	0	
3	0	0	0	0	524	480	1021	0	0	0	
4	0	0	0	0	524	479	1021	0	0	0	
5	0	0	0	0	524	478	1021	0	0	0	
6	0	0	0	0	526	476	1021	0	0	0	
7	0	0	0	0	527	475	1021	0	0	0	
8	0	0	0	0	529	474	1021	0	0	0	
9	0	0	0	0	531	474	1021	0	0	0	
10	0	0	0	0	533	472	1021	0	0	0	
11	0	0	0	0	535	471	1021	0	0	0	
12	0	0	0	0	536	469	1021	0	0	0	
13	0	0	0	0	537	468	1021	0	0	0	
14	0	0	0	0	537	467	1021	0	0	0	
15	0	0	0	0	537	467	1021	0	0	0	
0	0	0	0	0	537	467	1021	0	0	0	
1	0	0	0	0	537	467	1021	0	0	0	
2	0	0	0	0	538	470	1021	0	0	0	
3	0	0	0	0	539	472	1021	0	0	0	
4	0	0	0	0	540	473	1021	0	0	0	
5	0	0	0	0	541	475	1021	0	0	0	
6	0	0	0	0	542	477	1021	0	0	0	
7	0	0	0	0	543	477	1021	0	0	0	
8	0	0	0	0	543	477	1020	0	0	0	
9	0	0	0	0	543	477	1021	0	0	0	
10	0	0	0	0	544	478	1021	0	0	0	
11	0	0	0	0	544	478	1021	0	0	0	
12	0	0	0	0	544	480	1021	0	0	0	
13	0	0	0	0	543	482	1021	0	0	0	
14	0	0	0	0	543	484	1021	0	0	0	
15	0	0	0	0	543	489	1021	0	0	0	
0	0	0	0	0	544	494	1021	0	0	0	
1	0	0	0	0	547	500	1021	0	0	0	
2	0	0	0	0	550	506	1021	0	0	0	
3	0	0	0	0	555	513	1021	0	0	0	
4	0	0	0	0	560	521	1021	0	0	0	
5	0	0	0	0	567	527	1021	0	0	0	
6	0	0	0	0	574	535	1021	0	0	0	
7	0	0	0	0	581	541	1021	0	0	0	
8	0	0	0	0	589	546	1021	0	0	0	
9	0	0	0	0	596	551	1021	0	0	0	
10	0	0	0	0	601	554	1021	0	0	0	
11	0	0	0	0	604	555	1021	0	0	0	
12	0	0	0	0	604	553	1021	0	0	0	
13	0	0	0	0	600	548	1021	0	0	0	
14	0	0	0	0	591	541	1021	0	0	0	
15	0	0	0	0	578	530	1021	0	0	0	
0	0	0	0	0	561	515	1021	0	0	0	
1	0	0	0	0	542	499	1021	0	0	0	
2	0	0	0	0	522	483	1021	0	0	0	
3	0	0	0	0	502	467	1021	0	0	0	
4	0	0	0	0	484	452	1021	0	0	0	
5	0	0	0	0	468	439	1021	0	0	0	
6	0	0	0	0	457	428	1021	0	0	0	
7	0	0	0	0	449	420	1021	0	0	0	
8	0	0	0	0	445	415	1021	0	0	0	
9	0	0	0	0	446	413	1021	0	0	0	
10	0	0	0	0	450	414	1021	0	0	0	
11	0	0	0	0	458	418	1021	0	0	0	
12	0	0	0	0	467	423	1021	0	0	0	
13	0	0	0	0	479	430	1021	0	0	0	
14	0	0	0	0	491	439	1021	0	0	0	
15	0	0	0	0	502	447	1021	0	0	0	
0	0	0	0	0	511	455	1021	0	0	0	
1	0	0	0	0	519	462	1021	0	0	0	
2	0	0	0	0	527	468	1021	0	0	0	
3	0	0	0	0	532	473	1021	0	0	0	
4	0	0	0	0	536	477	1021	0	0	0	
5	0	0	0	0	538	480	1020	0	0	0	
6	0	0	0	0	540	483	1021	0	0	0	
7	0	0	0	0	541	485	1021	0	0	0	
8	0	0	0	0	542	486	1021	0	0	0	
9	0	0	0	0	541	487	1021	0	0	0	
10	0	0	0	0	540	487	1021	0	0	0	
11	0	0	0	0	538	486	1021	0	0	0	
12	0	0	0	0	537	485	1021	0	0	0	
13	0	0	0	0	536	484	1021	0	0	0	
14	0	0	0	0	536	484	1021	0	0	0	
15	0	0	0	0	537	484	1021	0	0	0	
0	0	0	0	0	539	484	1021	0	0	0	
1	0	0	0	0	541	485	1021	0	0	0	
2	0	0	0	0	543	486	1021	0	0	0	
3	0	0	0	0	544	487	1021	0	0	0	
4	0	0	0	0	546	488	1021	0	0	0	
5	0	0	0	0	546	488	1021	0	0	0	
6	0	0	0	0	547	489	1021	0	0	0	
7	0	0	0	0	547	490	1021	0	0	0	
8	0	0	0	0	547	491	1021	0	0	0	
9	0	0	0	0	548	492	1021	0	0	0	
10	0	0	0	0	549	494	1021	0	0	0	
11	0	0	0	0	551	497	1021	0	0	0	
12	0	0	0	0	554	500	1021	0	0	0	
13	0	0	0	0	556	503	1021	0	0	0	
14	0	0	0	0	559	505	1021	0	0	0	
15	0	0	0	0	560	507	1021	0	0	0	
0	0	0	0	0	561	506	1021	0	0	0	
1	0	0	0	0	560	504	1021	0	0	0	
2	0	0	0	0	558	502	1021	0	0	0	
3	0	0	0	0	553	499	1021	0	0	0	
4	0	0	0	0	549	495	1021	0	0	0	
5	0	0	0	0	545	492	1021	0	0	0	
6	0	0	0	0	543	492	1021	0	0	0	
7	0	0	0	0	541	492	1021	0	0	0	
8	0	0	0	0	542	495	1020	0	0	0	
9	0	0	0	0	545	499	1021	0	0	0	
10	0	0	0	0	550	505	1021	0	0	0	
11	0	0	0	0	555	511	1021	0	0	0	
12	0	0	0	0	560	518	1021	0	0	0	
13	0	0	0	0	564	523	1021	0	0	0	
14	0	0	0	0	566	527	1021	0	0	0	
15	0	0	0	0	564	528	1021	0	0	0	
0	0	0	0	0	559	526	1021	0	0	0	
1	0	0	0	0	551	520	1021	0	0	0	
2	0	0	0	0	540	511	1021	0	0	0	
3	0	0	0	0	529	501	1021	0	0	0	
4	0	0	0	0	519	492	1021	0	0	0	
5	0	0	0	0	510	481	1021	0	0	0	
6	0	0	0	0	504	472	1021	0	0	0	
7	0	0	0	0	500	464	1021	0	0	0	
8	0	0	0	0	499	457	1021	0	0	0	
9	0	0	0	0	501	454	1021	0	0	0	
10	0	0	0	0	505	453	1021	0	0	0	
11	0	0	0	0	511	454	1021	0	0	0	
12	0	0	0	0	519	456	1021	0	0	0	
13	0	0	0	0	529	461	1021	0	0	0	
14	0	0	0	0	540	468	1021	0	0	0	
15	0	0	0	0	553	475	1021	0	0	0	
0	0	0	0	0	566	482	1021	0	0	0	
1	0	0	0	0	577	489	1021	0	0	0	
2	0	0	0	0	587	496	1021	0	0	0	
3	0	0	0	0	594	501	1021	0	0	0	
4	0	0	0	0	598	504	1021	0	0	0	
5	0	0	0	0	598	506	1021	0	0	0	
6	0	0	0	0	593	507	1021	0	0	0	
7	0	0	0	0	585	506	1021	0	0	0	
8	0	0	0	0	575	504	1021	0	0	0	
9	0	0	0	0	562	501	1021	0	0	0	
10	0	0	0	0	548	497	1021	0	0	0	
11	0	0	0	0	534	492	1021	0	0	0	
12	0	0	0	0	521	487	1021	0	0	0	
13	0	0	0	0	511	484	1021	0	0	0	
14	0	0	0	0	502	480	1021	0	0	0	
15	0	0	0	0	496	477	1021	0	0	0	
0	0	0	0	0	492	474	1021	0	0	0	
1	0	0	0	0	490	472	1021	0	0	0	
2	0	0	0	0	491	471	1021	0	0	0	
3	0	0	0	0	494	470	1021	0	0	0	
4	0	0	0	0	499	472	1021	0	0	0	
5	0	0	0	0	507	474	1021	0	0	0	
6	0	0	0	0	515	479	1021	0	0	0	
7	0	0	0	0	525	484	1021	0	0	0	
8	0	0	0	0	534	490	1021	0	0	0	
9	0	0	0	0	543	496	1021	0	0	0	
10	0	0	0	0	550	501	1021	0	0	0	
11	0	0	0	0	555	504	1021	0	0	0	
12	0	0	0	0	557	507	1021	0	0	0	
13	0	0	0	0	557	507	1021	0	0	0	
14	0	0	0	0	553	505	1021	0	0	0	
15	0	0	0	0	547	501	1021	0	0	0	
0	0	0	0	0	539	495	1021	0	0	0	
1	0	0	0	0	529	487	1021	0	0	0	
2	0	0	0	0	518	479	1021	0	0	0	
3	0	0	0	0	507	471	1021	0	0	0	
4	0	0	0	0	497	462	1021	0	0	0	
5	0	0	0	0	487	455	1021	0	0	0	
6	0	0	0	0	480	449	1021	0	0	0	
7	0	0	0	0	474	445	1021	0	0	0	
8	0	0	0	0	471	443	1021	0	0	0	
9	0	0	0	0	471	442	1021	0	0	0	
10	0	0	0	0	472	443	1021	0	0	0	
11	0	0	0	0	477	446	1021	0	0	0	
12	0	0	0	0	483	450	1021	0	0	0	
13	0	0	0	0	490	455	1021	0	0	0	
14	0	0	0	0	499	461	1021	0	0	0	
15	0	0	0	0	508	467	1021	0	0	0	
0	0	0	0	0	518	474	1021	0	0	0	
1	0	0	0	0	528	480	1021	0	0	0	
2	0	0	0	0	536	485	1021	0	0	0	
3	0	0	0	0	544	488	1021	0	0	0	
4	0	0	0	0	550	491	1021	0	0	0	
5	0	0	0	0	553	492	1021	0	0	0	
6	0	0	0	0	556	493	1021	0	0	0	
7	0	0	0	0	555	492	1021	0	0	0	
8	0	0	0	0	553	490	1021	0	0	0	
9	0	0	0	0	549	488	1021	0	0	0	
10	0	0	0	0	545	487	1021	0	0	0	
11	0	0	0	0	540	486	1021	0	0	0	
12	0	0	0	0	535	484	1021	0	0	0	
13	0	0	0	0	529	482	1020	0	0	0	
14	0	0	0	0	524	480	1021	0	0	0	
15	0	0	0	0	520	478	1021	0	0	0	
0	0	0	0	0	516	476	1021	0	0	0	
1	0	0	0	0	513	474	1021	0	0	0	
2	0	0	0	0	512	473	1021	0	0	0	
3	0	0	0	0	511	472	1021	0	0	0	
4	0	0	0	0	511	473	1021	0	0	0	
5	0	0	0	0	512	475	1021	0	0	0	
6	0	0	0	0	515	478	1021	0	0	0	
7	0	0	0	0	519	482	1021	0	0	0	
8	0	0	0	0	525	487	1021	0	0	0	
9	0	0	0	0	533	494	1021	0	0	0	
10	0	0	0	0	541	500	1021	0	0	0	
11	0	0	0	0	549	506	1021	0	0	0	
12	0	0	0	0	556	511	1021	0	0	0	
13	0	0	0	0	560	513	1021	0	0	0	
14	0	0	0	0	561	515	1021	0	0	0	
15	0	0	0	0	560	513	1021	0	0	0	
0	0	0	0	0	556	510	1021	0	0	0	
1	0	0	0	0	550	505	1021	0	0	0	
2	0	0	0	0	543	500	1021	0	0	0	
3	0	0	0	0	536	493	1021	0	0	0	
4	0	0	0	0	529	487	1021	0	0	0	
5	0	0	0	0	524	481	1021	0	0	0	
6	0	0	0	0	519	476	1021	0	0	0	
7	0	0	0	0	515	472	1021	0	0	0	
8	0	0	0	0	513	470	1021	0	0	0	
9	0	0	0	0	513	468	1021	0	0	0	
10	0	0	0	0	514	469	1021	0	0	0	
11	0	0	0	0	516	471	1021	0	0	0	
12	0	0	0	0	519	472	1021	0	0	0	
13	0	0	0	0	523	476	1021	0	0	0	
14	0	0	0	0	526	479	1021	0	0	0	
15	0	0	0	0	529	482	1021	0	0	0	
0	0	0	0	0	531	486	1021	0	0	0	
1	0	0	0	0	532	489	1021	0	0	0	
2	0	0	0	0	532	492	1021	0	0	0	
3	0	0	0	0	533	495	1021	0	0	0	
4	0	0	0	0	534	496	1021	0	0	0	
5	0	0	0	0	536	498	1021	0	0	0	
6	0	0	0	0	538	499	1021	0	0	0	
7	0	0	0	0	541	499	1021	0	0	0	
8	0	0	0	0	545	499	1021	0	0	0	
9	0	0	0	0	548	497	1021	0	0	0	
10	0	0	0	0	550	496	1021	0	0	0	
11	0	0	0	0	550	492	1021	0	0	0	
12	0	0	0	0	546	487	1021	0	0	0	
13	0	0	0	0	540	481	1021	0	0	0	
14	0	0	0	0	532	474	1021	0	0	0	
15	0	0	0	0	521	466	1021	0	0	0	
0	0	0	0	0	508	458	1021	0	0	0	
1	0	0	0	0	494	451	1021	0	0	0	
2	0	0	0	0	480	443	1021	0	0	0	
3	0	0	0	0	465	436	1021	0	0	0	
4	0	0	0	0	451	428	1021	0	0	0	
5	0	0	0	0	437	421	1021	0	0	0	
6	0	0	0	0	424	412	1021	0	0	0	
7	0	0	0	0	412	402	1021	0	0	0	
8	0	0	0	0	401	390	1021	0	0	0	
9	0	0	0	0	392	375	1021	0	0	0	
10	0	0	0	0	383	358	1021	0	0	0	
11	0	0	0	0	373	339	1021	0	0	0	
12	0	0	0	0	362	319	1021	0	0	0	
13	0	0	0	0	349	298	1021	0	0	0	
14	0	0	0	0	334	277	1021	0	0	0	
15	0	0	0	0	318	256	1021	0	0	0	
0	0	0	0	0	301	238	1021	0	0	0	
1	0	0	0	0	286	224	1021	0	0	0	
2	0	0	0	0	274	214	1021	0	0	0	
3	0	0	0	0	265	209	1021	0	0	0	
4	0	0	0	0	261	211	1021	0	0	0	
5	0	0	0	0	263	219	1021	0	0	0	
6	0	0	0	0	271	231	1021	0	0	0	
7	0	0	0	0	284	249	1021	0	0	0	
8	0	0	0	0	303	271	1021	0	0	0	
9	0	0	0	0	327	296	1021	0	0	0	
10	0	0	0	0	354	322	1021	0	0	0	
11	0	0	0	0	383	348	1021	0	0	0	
12	0	0	0	0	412	374	1021	0	0	0	
13	0	0	0	0	440	397	1021	0	0	0	
14	0	0	0	0	465	419	1021	0	0	0	
15	0	0	0	0	487	437	1021	0	0	0	
0	0	0	0	0	506	452	1021	0	0	0	
1	0	0	0	0	521	465	1021	0	0	0	
2	0	0	0	0	532	473	1021	0	0	0	
3	0	0	0	0	541	481	1021	0	0	0	
4	0	0	0	0	546	485	1021	0	0	0	
5	0	0	0	0	549	488	1021	0	0	0	
6	0	0	0	0	549	489	1021	0	0	0	
7	0	0	0	0	547	489	1021	0	0	0	
8	0	0	0	0	544	490	1021	0	0	0	
9	0	0	0	0	541	489	1021	0	0	0	
10	0	0	0	0	537	489	1021	0	0	0	
11	0	0	0	0	533	489	1021	0	0	0	
12	0	0	0	0	530	489	1021	0	0	0	
13	0	0	0	0	527	490	1021	0	0	0	
14	0	0	0	0	526	491	1021	0	0	0	
15	0	0	0	0	527	493	1021	0	0	0	
0	0	0	0	0	529	494	1021	0	0	0	
1	0	0	0	0	534	495	1021	0	0	0	
2	0	0	0	0	539	496	1021	0	0	0	
3	0	0	0	0	546	498	1021	0	0	0	
4	0	0	0	0	553	500	1021	0	0	0	
5	0	0	0	0	560	502	1021	0	0	0	
6	0	0	0	0	566	504	1021	0	0	0	
7	0	0	0	0	569	505	1021	0	0	0	
8	0	0	0	0	571	506	1021	0	0	0	
9	0	0	0	0	571	508	1021	0	0	0	
10	0	0	0	0	568	509	1021	0	0	0	
11	0	0	0	0	563	511	1021	0	0	0	
12	0	0	0	0	558	513	1021	0	0	0	
13	0	0	0	0	552	514	1021	0	0	0	
14	0	0	0	0	547	515	1021	0	0	0	
15	0	0	0	0	544	516	1021	0	0	0	
0	0	0	0	0	543	516	1021	0	0	0	
1	0	0	0	0	542	516	1021	0	0	0	
2	0	0	0	0	544	514	1021	0	0	0	
3	0	0	0	0	547	512	1021	0	0	0	
4	0	0	0	0	551	509	1021	0	0	0	
5	0	0	0	0	555	506	1021	0	0	0	
6	0	0	0	0	558	503	1021	0	0	0	
7	0	0	0	0	560	499	1021	0	0	0	
8	0	0	0	0	560	496	1021	0	0	0	
9	0	0	0	0	558	493	1021	0	0	0	
10	0	0	0	0	554	491	1021	0	0	0	
11	0	0	0	0	548	490	1021	0	0	0	
12	0	0	0	0	543	489	1021	0	0	0	
13	0	0	0	0	537	488	1021	0	0	0	
14	0	0	0	0	532	489	1021	0	0	0	
15	0	0	0	0	528	490	1021	0	0	0	
0	0	0	0	0	525	492	1021	0	0	0	
1	0	0	0	0	524	494	1021	0	0	0	
2	0	0	0	0	524	496	1021	0	0	0	
3	0	0	0	0	526	499	1021	0	0	0	
4	0	0	0	0	528	501	1021	0	0	0	
5	0	0	0	0	531	503	1021	0	0	0	
6	0	0	0	0	535	504	1021	0	0	0	
7	0	0	0	0	538	504	1021	0	0	0	
8	0	0	0	0	540	503	1021	0	0	0	
9	0	0	0	0	542	502	1021	0	0	0	
10	0	0	0	0	543	501	1021	0	0	0	
11	0	0	0	0	544	500	1021	0	0	0	
12	0	0	0	0	545	499	1021	0	0	0	
13	0	0	0	0	545	498	1021	0	0	0	
14	0	0	0	0	545	498	1021	0	0	0	
15	0	0	0	0	546	499	1021	0	0	0	
0	0	0	0	0	548	501	1021	0	0	0	
1	0	0	0	0	551	503	1021	0	0	0	
2	0	0	0	0	555	506	1021	0	0	0	
3	0	0	0	0	559	510	1021	0	0	0	
4	0	0	0	0	564	513	1021	0	0	0	
5	0	0	0	0	569	518	1021	0	0	0	
6	0	0	0	0	573	522	1021	0	0	0	
7	0	0	0	0	576	526	1021	0	0	0	
8	0	0	0	0	579	530	1021	0	0	0	
9	0	0	0	0	582	533	1021	0	0	0	
10	0	0	0	0	583	536	1021	0	0	0	
11	0	0	0	0	584	537	1021	0	0	0	
12	0	0	0	0	583	538	1021	0	0	0	
13	0	0	0	0	582	537	1021	0	0	0	
14	0	0	0	0	579	536	1021	0	0	0	
15	0	0	0	0	575	532	1021	0	0	0	
0	0	0	0	0	570	528	1021	0	0	0	
1	0	0	0	0	565	524	1021	0	0	0	
2	0	0	0	0	559	518	1021	0	0	0	
3	0	0	0	0	554	514	1021	0	0	0	
4	0	0	0	0	551	510	1021	0	0	0	
5	0	0	0	0	548	507	1021	0	0	0	
6	0	0	0	0	547	505	1021	0	0	0	
7	0	0	0	0	547	504	1021	0	0	0	
8	0	0	0	0	547	503	1021	0	0	0	
9	0	0	0	0	546	502	1021	0	0	0	
10	0	0	0	0	543	500	1021	0	0	0	
11	0	0	0	0	539	497	1021	0	0	0	
12	0	0	0	0	533	494	1021	0	0	0	
13	0	0	0	0	525	490	1021	0	0	0	
14	0	0	0	0	517	485	1021	0	0	0	
15	0	0	0	0	509	480	1021	0	0	0	
0	0	0	0	0	503	476	1021	0	0	0	
1	0	0	0	0	497	472	1021	0	0	0	
2	0	0	0	0	494	469	1021	0	0	0	
3	0	0	0	0	493	467	1021	0	0	0	
4	0	0	0	0	494	466	1021	0	0	0	
5	0	0	0	0	496	467	1021	0	0	0	
6	0	0	0	0	500	468	1021	0	0	0	
7	0	0	0	0	506	470	1021	0	0	0	
8	0	0	0	0	512	473	1021	0	0	0	
9	0	0	0	0	519	476	1021	0	0	0	
10	0	0	0	0	527	480	1021	0	0	0	
11	0	0	0	0	534	483	1021	0	0	0	
12	0	0	0	0	541	486	1021	0	0	0	
13	0	0	0	0	547	489	1021	0	0	0	
14	0	0	0	0	551	491	1021	0	0	0	
15	0	0	0	0	553	493	1021	0	0	0	
0	0	0	0	0	553	494	1021	0	0	0	
1	0	0	0	0	552	494	1021	0	0	0	
2	0	0	0	0	549	494	1021	0	0	0	
3	0	0	0	0	544	493	1021	0	0	0	
4	0	0	0	0	539	491	1021	0	0	0	
5	0	0	0	0	533	489	1021	0	0	0	
6	0	0	0	0	526	487	1021	0	0	0	
7	0	0	0	0	521	486	1021	0	0	0	
8	0	0	0	0	517	484	1021	0	0	0	
9	0	0	0	0	514	483	1021	0	0	0	
10	0	0	0	0	513	483	1021	0	0	0	
11	0	0	0	0	515	483	1021	0	0	0	
12	0	0	0	0	518	485	1021	0	0	0	
13	0	0	0	0	524	487	1021	0	0	0	
14	0	0	0	0	531	491	1021	0	0	0	
15	0	0	0	0	540	495	1021	0	0	0	
0	0	0	0	0	549	499	1021	0	0	0	
1	0	0	0	0	557	504	1021	0	0	0	
2	0	0	0	0	565	508	1021	0	0	0	
3	0	0	0	0	569	511	1021	0	0	0	
4	0	0	0	0	572	513	1021	0	0	0	
5	0	0	0	0	573	513	1021	0	0	0	
6	0	0	0	0	571	513	1021	0	0	0	
7	0	0	0	0	566	511	1021	0	0	0	
8	0	0	0	0	559	509	1021	0	0	0	
9	0	0	0	0	551	505	1021	0	0	0	
10	0	0	0	0	542	500	1021	0	0	0	
11	0	0	0	0	532	496	1021	0	0	0	
12	0	0	0	0	524	491	1021	0	0	0	
13	0	0	0	0	516	486	1021	0	0	0	
14	0	0	0	0	510	481	1021	0	0	0	
15	0	0	0	0	505	478	1021	0	0	0	
0	0	0	0	0	504	476	1021	0	0	0	
1	0	0	0	0	504	475	1021	0	0	0	
2	0	0	0	0	506	475	1021	0	0	0	
3	0	0	0	0	511	477	1021	0	0	0	
4	0	0	0	0	516	480	1021	0	0	0	
5	0	0	0	0	524	484	1021	0	0	0	
6	0	0	0	0	532	488	1021	0	0	0	
7	0	0	0	0	541	493	1021	0	0	0	
8	0	0	0	0	548	497	1021	0	0	0	
9	0	0	0	0	555	501	1021	0	0	0	
10	0	0	0	0	559	505	1021	0	0	0	
11	0	0	0	0	563	509	1021	0	0	0	
12	0	0	0	0	564	511	1021	0	0	0	
13	0	0	0	0	565	514	1021	0	0	0	
14	0	0	0	0	564	515	1021	0	0	0	
15	0	0	0	0	563	518	1021	0	0	0	
0	0	0	0	0	562	519	1021	0	0	0	
1	0	0	0	0	561	519	1021	0	0	0	
2	0	0	0	0	559	519	1021	0	0	0	
3	0	0	0	0	558	520	1021	0	0	0	
4	0	0	0	0	557	521	1021	0	0	0	
5	0	0	0	0	557	521	1021	0	0	0	
6	0	0	0	0	558	521	1021	0	0	0	
7	0	0	0	0	559	520	1021	0	0	0	
8	0	0	0	0	559	519	1021	0	0	0	
9	0	0	0	0	559	515	1021	0	0	0	
10	0	0	0	0	558	510	1021	0	0	0	
11	0	0	0	0	555	504	1021	0	0	0	
12	0	0	0	0	551	497	1021	0	0	0	
13	0	0	0	0	545	490	1021	0	0	0	
14	0	0	0	0	539	483	1021	0	0	0	
15	0	0	0	0	532	478	1021	0	0	0	
0	0	0	0	0	526	473	1021	0	0	0	
1	0	0	0	0	519	470	1021	0	0	0	
2	0	0	0	0	514	468	1021	0	0	0	
3	0	0	0	0	510	468	1021	0	0	0	
4	0	0	0	0	507	470	1021	0	0	0	
5	0	0	0	0	505	472	1021	0	0	0	
6	0	0	0	0	506	476	1021	0	0	0	
7	0	0	0	0	508	481	1021	0	0	0	
8	0	0	0	0	513	487	1021	0	0	0	
9	0	0	0	0	519	494	1021	0	0	0	
10	0	0	0	0	527	501	1021	0	0	0	
11	0	0	0	0	535	507	1021	0	0	0	
12	0	0	0	0	542	513	1021	0	0	0	
13	0	0	0	0	548	518	1021	0	0	0	
14	0	0	0	0	553	521	1021	0	0	0	
15	0	0	0	0	558	524	1021	0	0	0	
0	0	0	0	0	561	526	1021	0	0	0	
1	0	0	0	0	563	525	1021	0	0	0	
2	0	0	0	0	563	522	1021	0	0	0	
3	0	0	0	0	562	518	1021	0	0	0	
4	0	0	0	0	559	512	1021	0	0	0	
5	0	0	0	0	556	505	1021	0	0	0	
6	0	0	0	0	552	499	1021	0	0	0	
7	0	0	0	0	549	494	1021	0	0	0	
8	0	0	0	0	547	490	1021	0	0	0	
9	0	0	0	0	545	487	1021	0	0	0	
10	0	0	0	0	545	486	1021	0	0	0	
11	0	0	0	0	548	486	1021	0	0	0	
12	0	0	0	0	552	489	1021	0	0	0	
13	0	0	0	0	559	492	1021	0	0	0	
14	0	0	0	0	566	497	1021	0	0	0	
15	0	0	0	0	573	502	1021	0	0	0	
0	0	0	0	0	580	508	1021	0	0	0	
1	0	0	0	0	585	513	1021	0	0	0	
2	0	0	0	0	590	518	1021	0	0	0	
3	0	0	0	0	592	522	1021	0	0	0	
4	0	0	0	0	592	525	1021	0	0	0	
5	0	0	0	0	589	527	1020	0	0	0	
6	0	0	0	0	584	527	1021	0	0	0	
7	0	0	0	0	577	527	1021	0	0	0	
8	0	0	0	0	569	526	1021	0	0	0	
9	0	0	0	0	560	525	1020	0	0	0	
10	0	0	0	0	551	524	1021	0	0	0	
11	0	0	0	0	543	523	1021	0	0	0	
12	0	0	0	0	537	521	1021	0	0	0	
13	0	0	0	0	532	520	1021	0	0	0	
14	0	0	0	0	531	519	1021	0	0	0	
15	0	0	0	0	530	517	1021	0	0	0	
0	0	0	0	0	532	516	1021	0	0	0	
1	0	0	0	0	535	515	1021	0	0	0	
2	0	0	0	0	539	514	1021	0	0	0	
3	0	0	0	0	542	512	1021	0	0	0	
4	0	0	0	0	545	509	1021	0	0	0	
5	0	0	0	0	547	507	1021	0	0	0	
6	0	0	0	0	548	504	1021	0	0	0	
7	0	0	0	0	548	502	1021	0	0	0	
8	0	0	0	0	547	498	1021	0	0	0	
9	0	0	0	0	545	496	1021	0	0	0	
10	0	0	0	0	543	493	1021	0	0	0	
11	0	0	0	0	540	491	1021	0	0	0	
12	0	0	0	0	537	489	1021	0	0	0	
13	0	0	0	0	536	488	1021	0	0	0	
14	0	0	0	0	534	487	1021	0	0	0	
15	0	0	0	0	533	488	1021	0	0	0	
0	0	0	0	0	533	489	1021	0	0	0	
1	0	0	0	0	534	491	1021	0	0	0	
2	0	0	0	0	536	494	1021	0	0	0	
3	0	0	0	0	539	497	1021	0	0	0	
4	0	0	0	0	542	502	1021	0	0	0	
5	0	0	0	0	547	506	1021	0	0	0	
6	0	0	0	0	551	510	1021	0	0	0	
7	0	0	0	0	556	514	1021	0	0	0	
8	0	0	0	0	560	518	1021	0	0	0	
9	0	0	0	0	563	520	1021	0	0	0	
10	0	0	0	0	566	521	1021	0	0	0	
11	0	0	0	0	567	521	1021	0	0	0	
12	0	0	0	0	567	520	1021	0	0	0	
13	0	0	0	0	566	518	1021	0	0	0	
14	0	0	0	0	564	515	1021	0	0	0	
15	0	0	0	0	561	512	1021	0	0	0	
0	0	0	0	0	557	507	1021	0	0	0	
1	0	0	0	0	553	502	1020	0	0	0	
2	0	0	0	0	549	496	1021	0	0	0	
3	0	0	0	0	545	492	1021	0	0	0	
4	0	0	0	0	543	488	1021	0	0	0	
5	0	0	0	0	542	485	1021	0	0	0	
6	0	0	0	0	541	483	1021	0	0	0	
7	0	0	0	0	540	482	1021	0	0	0	
8	0	0	0	0	541	484	1021	0	0	0	
9	0	0	0	0	542	487	1021	0	0	0	
10	0	0	0	0	545	492	1021	0	0	0	
11	0	0	0	0	549	500	1021	0	0	0	
12	0	0	0	0	553	508	1021	0	0	0	
13	0	0	0	0	559	516	1021	0	0	0	
14	0	0	0	0	563	524	1021	0	0	0	
15	0	0	0	0	567	531	1021	0	0	0	
0	0	0	0	0	570	535	1021	0	0	0	
1	0	0	0	0	572	537	1021	0	0	0	
2	0	0	0	0	571	537	1021	0	0	0	
3	0	0	0	0	568	535	1021	0	0	0	
4	0	0	0	0	564	530	1021	0	0	0	
5	0	0	0	0	558	524	1020	0	0	0	
6	0	0	0	0	552	517	1021	0	0	0	
7	0	0	0	0	546	509	1021	0	0	0	
8	0	0	0	0	540	501	1021	0	0	0	
9	0	0	0	0	533	494	1021	0	0	0	
10	0	0	0	0	528	487	1021	0	0	0	
11	0	0	0	0	525	482	1021	0	0	0	
12	0	0	0	0	523	479	1021	0	0	0	
13	0	0	0	0	523	477	1021	0	0	0	
14	0	0	0	0	524	478	1021	0	0	0	
15	0	0	0	0	527	480	1021	0	0	0	
0	0	0	0	0	531	483	1021	0	0	0	
1	0	0	0	0	536	487	1021	0	0	0	
2	0	0	0	0	540	491	1021	0	0	0	
3	0	0	0	0	545	495	1021	0	0	0	
4	0	0	0	0	549	499	1021	0	0	0	
5	0	0	0	0	552	502	1021	0	0	0	
6	0	0	0	0	555	505	1021	0	0	0	
7	0	0	0	0	557	507	1021	0	0	0	
8	0	0	0	0	558	508	1021	0	0	0	
9	0	0	0	0	559	508	1021	0	0	0	
10	0	0	0	0	558	508	1021	0	0	0	
11	0	0	0	0	558	508	1021	0	0	0	
12	0	0	0	0	557	508	1021	0	0	0	
13	0	0	0	0	556	507	1021	0	0	0	
14	0	0	0	0	554	506	1021	0	0	0	
15	0	0	0	0	553	505	1021	0	0	0	
0	0	0	0	0	552	505	1021	0	0	0	
1	0	0	0	0	551	505	1021	0	0	0	
2	0	0	0	0	551	506	1021	0	0	0	
3	0	0	0	0	551	507	1021	0	0	0	
4	0	0	0	0	551	507	1021	0	0	0	
5	0	0	0	0	551	507	1021	0	0	0	
6	0	0	0	0	551	507	1021	0	0	0	
7	0	0	0	0	550	506	1021	0	0	0	
8	0	0	0	0	549	505	1021	0	0	0	
9	0	0	0	0	548	504	1021	0	0	0	
10	0	0	0	0	546	503	1021	0	0	0	
11	0	0	0	0	545	502	1021	0	0	0	
12	0	0	0	0	543	499	1021	0	0	0	
13	0	0	0	0	541	497	1021	0	0	0	
14	0	0	0	0	539	495	1021	0	0	0	
15	0	0	0	0	537	493	1021	0	0	0	
0	0	0	0	0	536	492	1021	0	0	0	
1	0	0	0	0	535	490	1021	0	0	0	
2	0	0	0	0	535	489	1021	0	0	0	
3	0	0	0	0	535	489	1021	0	0	0	
4	0	0	0	0	535	489	1021	0	0	0	
5	0	0	0	0	536	491	1021	0	0	0	
6	0	0	0	0	537	492	1021	0	0	0	
7	0	0	0	0	539	495	1021	0	0	0	
8	0	0	0	0	542	497	1021	0	0	0	
9	0	0	0	0	545	501	1021	0	0	0	
10	0	0	0	0	548	504	1021	0	0	0	
11	0	0	0	0	552	507	1021	0	0	0	
12	0	0	0	0	555	509	1021	0	0	0	
13	0	0	0	0	558	511	1021	0	0	0	
14	0	0	0	0	560	512	1021	0	0	0	
15	0	0	0	0	561	512	1021	0	0	0	
0	0	0	0	0	562	511	1021	0	0	0	
1	0	0	0	0	562	509	1021	0	0	0	
2	0	0	0	0	561	506	1021	0	0	0	
3	0	0	0	0	559	503	1021	0	0	0	
4	0	0	0	0	556	500	1021	0	0	0	
5	0	0	0	0	553	496	1021	0	0	0	
6	0	0	0	0	550	493	1021	0	0	0	
7	0	0	0	0	547	491	1021	0	0	0	
8	0	0	0	0	547	492	1021	0	0	0	
9	0	0	0	0	546	492	1021	0	0	0	
10	0	0	0	0	547	495	1021	0	0	0	
11	0	0	0	0	548	498	1021	0	0	0	
12	0	0	0	0	550	502	1021	0	0	0	
13	0	0	0	0	552	507	1021	0	0	0	
14	0	0	0	0	554	511	1021	0	0	0	
15	0	0	0	0	555	515	1021	0	0	0	
0	0	0	0	0	555	518	1021	0	0	0	
1	0	0	0	0	552	519	1021	0	0	0	
2	0	0	0	0	550	518	1021	0	0	0	
3	0	0	0	0	546	515	1021	0	0	0	
4	0	0	0	0	541	510	1021	0	0	0	
5	0	0	0	0	536	504	1021	0	0	0	
6	0	0	0	0	531	499	1021	0	0	0	
7	0	0	0	0	526	493	1021	0	0	0	
8	0	0	0	0	524	489	1021	0	0	0	
9	0	0	0	0	522	486	1021	0	0	0	
10	0	0	0	0	522	484	1021	0	0	0	
11	0	0	0	0	524	485	1021	0	0	0	
12	0	0	0	0	527	487	1021	0	0	0	
13	0	0	0	0	532	490	1021	0	0	0	
14	0	0	0	0	538	494	1021	0	0	0	
15	0	0	0	0	544	499	1021	0	0	0	
0	0	0	0	0	551	505	1021	0	0	0	
1	0	0	0	0	558	511	1021	0	0	0	
2	0	0	0	0	563	517	1021	0	0	0	
3	0	0	0	0	568	521	1021	0	0	0	
4	0	0	0	0	571	524	1021	0	0	0	
5	0	0	0	0	572	526	1021	0	0	0	
6	0	0	0	0	571	525	1021	0	0	0	
7	0	0	0	0	568	523	1021	0	0	0	
8	0	0	0	0	564	519	1021	0	0	0	
9	0	0	0	0	558	512	1021	0	0	0	
10	0	0	0	0	550	506	1021	0	0	0	
11	0	0	0	0	543	499	1021	0	0	0	
12	0	0	0	0	537	493	1021	0	0	0	
13	0	0	0	0	531	487	1021	0	0	0	
14	0	0	0	0	525	483	1021	0	0	0	
15	0	0	0	0	521	480	1021	0	0	0	
0	0	0	0	0	518	477	1021	0	0	0	
1	0	0	0	0	515	476	1021	0	0	0	
2	0	0	0	0	515	475	1021	0	0	0	
3	0	0	0	0	515	474	1021	0	0	0	
4	0	0	0	0	515	474	1021	0	0	0	
5	0	0	0	0	517	476	1021	0	0	0	
6	0	0	0	0	519	477	1021	0	0	0	
7	0	0	0	0	522	479	1021	0	0	0	
8	0	0	0	0	525	481	1021	0	0	0	
9	0	0	0	0	528	485	1021	0	0	0	
10	0	0	0	0	532	487	1021	0	0	0	
11	0	0	0	0	535	491	1021	0	0	0	
12	0	0	0	0	538	493	1021	0	0	0	
13	0	0	0	0	540	495	1021	0	0	0	
14	0	0	0	0	542	497	1021	0	0	0	
15	0	0	0	0	543	498	1021	0	0	0	
0	0	0	0	0	545	499	1021	0	0	0	
1	0	0	0	0	545	500	1021	0	0	0	
2	0	0	0	0	546	502	1021	0	0	0	
3	0	0	0	0	547	503	1021	0	0	0	
4	0	0	0	0	547	504	1021	0	0	0	
5	0	0	0	0	548	504	1021	0	0	0	
6	0	0	0	0	548	504	1021	0	0	0	
7	0	0	0	0	547	504	1021	0	0	0	
8	0	0	0	0	546	504	1021	0	0	0	
9	0	0	0	0	545	503	1021	0	0	0	
10	0	0	0	0	543	503	1021	0	0	0	
11	0	0	0	0	541	501	1021	0	0	0	
12	0	0	0	0	539	499	1021	0	0	0	
13	0	0	0	0	536	497	1021	0	0	0	
14	0	0	0	0	535	496	1021	0	0	0	
15	0	0	0	0	534	494	1021	0	0	0	
0	0	0	0	0	535	494	1021	0	0	0	
1	0	0	0	0	536	493	1021	0	0	0	
2	0	0	0	0	538	493	1021	0	0	0	
3	0	0	0	0	540	494	1021	0	0	0	
4	0	0	0	0	543	494	1021	0	0	0	
5	0	0	0	0	545	495	1021	0	0	0	
6	0	0	0	0	547	495	1021	0	0	0	
7	0	0	0	0	548	496	1021	0	0	0	
8	0	0	0	0	550	497	1021	0	0	0	
9	0	0	0	0	552	499	1021	0	0	0	
10	0	0	0	0	555	502	1021	0	0	0	
11	0	0	0	0	557	504	1021	0	0	0	
12	0	0	0	0	559	506	1021	0	0	0	
13	0	0	0	0	560	508	1021	0	0	0	
14	0	0	0	0	561	510	1021	0	0	0	
15	0	0	0	0	561	511	1021	0	0	0	
0	0	0	0	0	560	512	1021	0	0	0	
1	0	0	0	0	558	511	1021	0	0	0	
2	0	0	0	0	556	511	1021	0	0	0	
3	0	0	0	0	551	508	1021	0	0	0	
4	0	0	0	0	548	506	1021	0	0	0	
5	0	0	0	0	543	504	1021	0	0	0	
6	0	0	0	0	539	501	1021	0	0	0	
7	0	0	0	0	535	499	1021	0	0	0	
8	0	0	0	0	532	496	1021	0	0	0	
9	0	0	0	0	531	495	1021	0	0	0	
10	0	0	0	0	531	495	1021	0	0	0	
11	0	0	0	0	534	494	1021	0	0	0	
12	0	0	0	0	537	495	1021	0	0	0	
13	0	0	0	0	543	496	1021	0	0	0	
14	0	0	0	0	549	498	1021	0	0	0	
15	0	0	0	0	554	499	1021	0	0	0	
0	0	0	0	0	559	500	1021	0	0	0	
1	0	0	0	0	562	501	1021	0	0	0	
2	0	0	0	0	563	501	1021	0	0	0	
3	0	0	0	0	561	500	1021	0	0	0	
4	0	0	0	0	558	499	1021	0	0	0	
5	0	0	0	0	552	497	1021	0	0	0	
6	0	0	0	0	545	494	1021	0	0	0	
7	0	0	0	0	538	492	1021	0	0	0	
8	0	0	0	0	530	489	1021	0	0	0	
9	0	0	0	0	523	487	1020	0	0	0	
10	0	0	0	0	516	486	1021	0	0	0	
11	0	0	0	0	512	486	1021	0	0	0	
12	0	0	0	0	509	486	1021	0	0	0	
13	0	0	0	0	510	487	1021	0	0	0	
14	0	0	0	0	512	490	1021	0	0	0	
15	0	0	0	0	517	493	1021	0	0	0	
0	0	0	0	0	524	497	1021	0	0	0	
1	0	0	0	0	534	502	1021	0	0	0	
2	0	0	0	0	543	506	1021	0	0	0	
3	0	0	0	0	552	510	1021	0	0	0	
4	0	0	0	0	560	514	1021	0	0	0	
5	0	0	0	0	568	516	1021	0	0	0	
6	0	0	0	0	572	518	1021	0	0	0	
7	0	0	0	0	573	518	1021	0	0	0	
8	0	0	0	0	571	516	1021	0	0	0	
9	0	0	0	0	567	514	1021	0	0	0	
10	0	0	0	0	561	510	1021	0	0	0	
11	0	0	0	0	553	505	1021	0	0	0	
12	0	0	0	0	545	502	1021	0	0	0	
13	0	0	0	0	537	497	1021	0	0	0	
14	0	0	0	0	530	492	1021	0	0	0	
15	0	0	0	0	523	489	1021	0	0	0	
0	0	0	0	0	518	486	1021	0	0	0	
1	0	0	0	0	513	483	1021	0	0	0	
2	0	0	0	0	511	480	1021	0	0	0	
3	0	0	0	0	510	478	1021	0	0	0	
4	0	0	0	0	510	477	1021	0	0	0	
5	0	0	0	0	511	477	1021	0	0	0	
6	0	0	0	0	513	478	1021	0	0	0	
7	0	0	0	0	516	478	1021	0	0	0	
8	0	0	0	0	519	480	1021	0	0	0	
9	0	0	0	0	523	483	1021	0	0	0	
10	0	0	0	0	527	485	1021	0	0	0	
11	0	0	0	0	531	487	1021	0	0	0	
12	0	0	0	0	534	491	1021	0	0	0	
13	0	0	0	0	536	492	1021	0	0	0	
14	0	0	0	0	537	495	1021	0	0	0	
15	0	0	0	0	538	496	1021	0	0	0	
0	0	0	0	0	539	497	1021	0	0	0	
1	0	0	0	0	539	497	1021	0	0	0	
2	0	0	0	0	538	497	1021	0	0	0	
3	0	0	0	0	538	496	1021	0	0	0	
4	0	0	0	0	538	494	1021	0	0	0	
5	0	0	0	0	537	491	1021	0	0	0	
6	0	0	0	0	536	488	1021	0	0	0	
7	0	0	0	0	535	485	1021	0	0	0	
8	0	0	0	0	535	483	1021	0	0	0	
9	0	0	0	0	534	481	1021	0	0	0	
10	0	0	0	0	534	481	1021	0	0	0	
11	0	0	0	0	535	482	1021	0	0	0	
12	0	0	0	0	536	483	1021	0	0	0	
13	0	0	0	0	539	487	1021	0	0	0	
14	0	0	0	0	542	490	1021	0	0	0	
15	0	0	0	0	545	495	1021	0	0	0	
0	0	0	0	0	548	499	1021	0	0	0	
1	0	0	0	0	550	503	1021	0	0	0	
2	0	0	0	0	551	507	1021	0	0	0	
3	0	0	0	0	549	510	1021	0	0	0	
4	0	0	0	0	546	512	1021	0	0	0	
5	0	0	0	0	542	512	1021	0	0	0	
6	0	0	0	0	536	512	1021	0	0	0	
7	0	0	0	0	532	510	1021	0	0	0	
8	0	0	0	0	528	509	1021	0	0	0	
9	0	0	0	0	527	507	1021	0	0	0	
10	0	0	0	0	527	505	1021	0	0	0	
11	0	0	0	0	528	505	1021	0	0	0	
12	0	0	0	0	530	504	1021	0	0	0	
13	0	0	0	0	533	503	1021	0	0	0	
14	0	0	0	0	536	502	1021	0	0	0	
15	0	0	0	0	537	501	1021	0	0	0	
0	0	0	0	0	538	500	1021	0	0	0	
1	0	0	0	0	539	500	1021	0	0	0	
2	0	0	0	0	538	499	1021	0	0	0	
3	0	0	0	0	537	499	1021	0	0	0	
4	0	0	0	0	536	498	1021	0	0	0	
5	0	0	0	0	535	498	1021	0	0	0	
6	0	0	0	0	535	498	1021	0	0	0	
7	0	0	0	0	534	499	1021	0	0	0	
8	0	0	0	0	534	499	1021	0	0	0	
9	0	0	0	0	534	499	1020	0	0	0	
10	0	0	0	0	535	499	1021	0	0	0	
11	0	0	0	0	536	500	1021	0	0	0	
12	0	0	0	0	537	500	1021	0	0	0	
13	0	0	0	0	539	501	1021	0	0	0	
14	0	0	0	0	540	502	1021	0	0	0	
15	0	0	0	0	543	504	1021	0	0	0	
0	0	0	0	0	544	505	1021	0	0	0	
1	0	0	0	0	546	506	1021	0	0	0	
2	0	0	0	0	547	507	1021	0	0	0	
3	0	0	0	0	548	507	1021	0	0	0	
4	0	0	0	0	548	507	1020	0	0	0	
5	0	0	0	0	547	504	1021	0	0	0	
6	0	0	0	0	543	502	1021	0	0	0	
7	0	0	0	0	539	497	1021	0	0	0	
8	0	0	0	0	531	490	1021	0	0	0	
9	0	0	0	0	521	481	1021	0	0	0	
10	0	0	0	0	509	472	1021	0	0	0	
11	0	0	0	0	495	460	1021	0	0	0	
12	0	0	0	0	478	446	1021	0	0	0	
13	0	0	0	0	460	431	1021	0	0	0	
14	0	0	0	0	441	414	1021	0	0	0	
15	0	0	0	0	423	396	1021	0	0	0	
0	0	0	0	0	404	377	1021	0	0	0	
1	0	0	0	0	386	358	1021	0	0	0	
2	0	0	0	0	368	339	1021	0	0	0	
3	0	0	0	0	351	321	1021	0	0	0	
4	0	0	0	0	335	304	1021	0	0	0	
5	0	0	0	0	321	288	1021	0	0	0	
6	0	0	0	0	308	274	1021	0	0	0	
7	0	0	0	0	297	262	1021	0	0	0	
8	0	0	0	0	289	253	1021	0	0	0	
9	0	0	0	0	285	247	1021	0	0	0	
10	0	0	0	0	284	245	1021	0	0	0	
11	0	0	0	0	288	246	1021	0	0	0	
12	0	0	0	0	295	250	1021	0	0	0	
13	0	0	0	0	305	258	1021	0	0	0	
14	0	0	0	0	318	269	1021	0	0	0	
15	0	0	0	0	334	283	1021	0	0	0	
0	0	0	0	0	351	299	1021	0	0	0	
1	0	0	0	0	369	315	1021	0	0	0	
2	0	0	0	0	387	333	1021	0	0	0	
3	0	0	0	0	405	351	1021	0	0	0	
4	0	0	0	0	421	370	1021	0	0	0	
5	0	0	0	0	436	388	1021	0	0	0	
6	0	0	0	0	451	406	1021	0	0	0	
7	0	0	0	0	467	424	1021	0	0	0	
8	0	0	0	0	483	442	1021	0	0	0	
9	0	0	0	0	500	459	1021	0	0	0	
10	0	0	0	0	517	476	1021	0	0	0	
11	0	0	0	0	534	490	1021	0	0	0	
12	0	0	0	0	547	502	1021	0	0	0	
