# OpenSignals Text File Format. Version 1
# {"": {"position": 0, "device": "", "device name": "", "device connection": "", "sampling rate": 1000, "resolution": [4, 1, 1, 1, 1, 10, 10, 10, 10, 6, 6], "firmware version": 1281, "comments": "", "keywords": "", "mode": 0, "sync interval": 2, "date": "", "time": "", "channels": [1, 2, 3, 4, 5, 6], "sensor": ["RAW", "RAW", "RAW", "RAW", "RAW", "RAW"], "label": ["A1", "A2", "A3", "A4", "A5", "A6"], "column": ["nSeq", "I1", "I2", "O1", "O2", "A1", "A2", "A3", "A4", "A5", "A6"], "special": [{}, {}, {}, {}, {}, {}], "digital IO": [0, 0, 1, 1], "convertedValues": 0}}
# EndOfHeader
0	0	0	0	0	497	491	0	399	0	0	
1	0	0	0	0	497	475	0	391	0	0	
2	0	0	0	0	499	457	0	387	0	0	
3	0	0	0	0	503	439	0	387	0	0	
4	0	0	0	0	507	423	0	392	0	0	
5	0	0	0	0	511	409	0	401	0	0	
6	0	0	0	0	516	401	0	413	0	0	
7	0	0	0	0	520	397	0	427	0	0	
8	0	0	0	0	524	399	0	442	0	0	
9	0	0	0	0	526	408	0	455	0	0	
10	0	0	0	0	528	420	0	467	0	0	
11	0	0	0	0	528	437	0	476	0	0	
12	0	0	0	0	527	455	0	480	0	0	
13	0	0	0	0	524	474	0	480	0	0	
14	0	0	0	0	520	490	0	476	0	0	
15	0	0	0	0	515	504	0	467	0	0	
0	0	0	0	0	511	513	0	455	0	0	
1	0	0	0	0	507	516	0	443	0	0	
2	0	0	0	0	503	514	0	428	0	0	
3	0	0	0	0	500	506	0	414	0	0	
4	0	0	0	0	499	493	0	403	0	0	
5	0	0	0	0	499	477	0	395	0	0	
6	0	0	0	0	500	459	0	390	0	0	
7	0	0	0	0	503	441	0	389	0	0	
8	0	0	0	0	507	424	0	393	0	0	
9	0	0	0	0	511	411	0	402	0	0	
10	0	0	0	0	515	403	0	413	0	0	
11	0	0	0	0	519	400	0	427	0	0	
12	0	0	0	0	523	403	0	441	0	0	
13	0	0	0	0	525	411	0	455	0	0	
14	0	0	0	0	527	423	0	466	0	0	
15	0	0	0	0	528	440	0	475	0	0	
0	0	0	0	0	527	458	0	480	0	0	
1	0	0	0	0	525	476	0	481	0	0	
2	0	0	0	0	523	492	0	477	0	0	
3	0	0	0	0	519	505	0	468	0	0	
4	0	0	0	0	515	514	0	457	0	0	
5	0	0	0	0	511	517	0	444	0	0	
6	0	0	0	0	508	514	0	429	0	0	
7	0	0	0	0	506	505	0	415	0	0	
8	0	0	0	0	504	492	0	403	0	0	
9	0	0	0	0	503	476	0	394	0	0	
10	0	0	0	0	504	457	0	388	0	0	
11	0	0	0	0	505	439	0	387	0	0	
12	0	0	0	0	508	422	0	391	0	0	
13	0	0	0	0	511	408	0	399	0	0	
14	0	0	0	0	514	399	0	410	0	0	
15	0	0	0	0	518	396	0	423	0	0	
0	0	0	0	0	520	398	0	438	0	0	
1	0	0	0	0	523	406	0	451	0	0	
2	0	0	0	0	524	419	0	463	0	0	
3	0	0	0	0	524	435	0	472	0	0	
4	0	0	0	0	523	454	0	477	0	0	
5	0	0	0	0	520	472	0	478	0	0	
6	0	0	0	0	517	488	0	475	0	0	
7	0	0	0	0	513	502	0	467	0	0	
8	0	0	0	0	509	511	0	457	0	0	
9	0	0	0	0	506	514	0	444	0	0	
10	0	0	0	0	502	511	0	430	0	0	
11	0	0	0	0	500	503	0	416	0	0	
12	0	0	0	0	499	490	0	404	0	0	
13	0	0	0	0	498	472	0	395	0	0	
14	0	0	0	0	499	454	0	389	0	0	
15	0	0	0	0	499	434	0	388	0	0	
0	0	0	0	0	503	416	0	391	0	0	
1	0	0	0	0	505	402	0	399	0	0	
2	0	0	0	0	508	392	0	410	0	0	
3	0	0	0	0	511	388	0	423	0	0	
4	0	0	0	0	514	390	0	437	0	0	
5	0	0	0	0	516	398	0	451	0	0	
6	0	0	0	0	518	411	0	462	0	0	
7	0	0	0	0	519	427	0	471	0	0	
8	0	0	0	0	518	446	0	475	0	0	
9	0	0	0	0	516	464	0	476	0	0	
10	0	0	0	0	514	482	0	471	0	0	
11	0	0	0	0	511	496	0	463	0	0	
12	0	0	0	0	508	505	0	451	0	0	
13	0	0	0	0	505	509	0	438	0	0	
14	0	0	0	0	504	507	0	423	0	0	
15	0	0	0	0	502	499	0	409	0	0	
0	0	0	0	0	501	486	0	398	0	0	
1	0	0	0	0	501	470	0	389	0	0	
2	0	0	0	0	503	452	0	384	0	0	
3	0	0	0	0	505	434	0	384	0	0	
4	0	0	0	0	507	417	0	388	0	0	
5	0	0	0	0	512	404	0	397	0	0	
6	0	0	0	0	515	396	0	409	0	0	
7	0	0	0	0	519	394	0	424	0	0	
8	0	0	0	0	522	398	0	440	0	0	
9	0	0	0	0	525	407	0	455	0	0	
10	0	0	0	0	527	421	0	468	0	0	
11	0	0	0	0	527	439	0	478	0	0	
12	0	0	0	0	526	458	0	484	0	0	
13	0	0	0	0	524	478	0	485	0	0	
14	0	0	0	0	521	495	0	481	0	0	
15	0	0	0	0	518	510	0	474	0	0	
0	0	0	0	0	515	519	0	463	0	0	
1	0	0	0	0	512	521	0	448	0	0	
2	0	0	0	0	509	519	0	435	0	0	
3	0	0	0	0	508	510	0	420	0	0	
4	0	0	0	0	508	497	0	408	0	0	
5	0	0	0	0	508	480	0	399	0	0	
6	0	0	0	0	509	461	0	395	0	0	
7	0	0	0	0	511	442	0	394	0	0	
8	0	0	0	0	514	425	0	398	0	0	
9	0	0	0	0	518	412	0	406	0	0	
10	0	0	0	0	522	403	0	418	0	0	
11	0	0	0	0	525	400	0	432	0	0	
12	0	0	0	0	528	403	0	446	0	0	
13	0	0	0	0	530	412	0	460	0	0	
14	0	0	0	0	531	425	0	472	0	0	
15	0	0	0	0	532	443	0	481	0	0	
0	0	0	0	0	531	462	0	486	0	0	
1	0	0	0	0	528	480	0	487	0	0	
2	0	0	0	0	525	499	0	482	0	0	
3	0	0	0	0	522	512	0	474	0	0	
4	0	0	0	0	519	521	0	463	0	0	
5	0	0	0	0	515	525	0	449	0	0	
6	0	0	0	0	512	522	0	435	0	0	
7	0	0	0	0	510	514	0	421	0	0	
8	0	0	0	0	509	499	0	409	0	0	
9	0	0	0	0	509	483	0	400	0	0	
10	0	0	0	0	509	463	0	395	0	0	
11	0	0	0	0	511	443	0	393	0	0	
12	0	0	0	0	512	425	0	396	0	0	
13	0	0	0	0	515	410	0	403	0	0	
14	0	0	0	0	518	399	0	413	0	0	
15	0	0	0	0	520	395	0	426	0	0	
0	0	0	0	0	522	396	0	439	0	0	
1	0	0	0	0	523	404	0	452	0	0	
2	0	0	0	0	524	416	0	463	0	0	
3	0	0	0	0	524	433	0	472	0	0	
4	0	0	0	0	523	451	0	477	0	0	
5	0	0	0	0	521	471	0	478	0	0	
6	0	0	0	0	519	488	0	474	0	0	
7	0	0	0	0	515	503	0	466	0	0	
8	0	0	0	0	513	512	0	456	0	0	
9	0	0	0	0	510	516	0	443	0	0	
10	0	0	0	0	508	515	0	430	0	0	
11	0	0	0	0	507	506	0	417	0	0	
12	0	0	0	0	506	495	0	406	0	0	
13	0	0	0	0	506	479	0	398	0	0	
14	0	0	0	0	507	460	0	393	0	0	
15	0	0	0	0	509	442	0	393	0	0	
0	0	0	0	0	512	425	0	398	0	0	
1	0	0	0	0	516	412	0	406	0	0	
2	0	0	0	0	519	403	0	418	0	0	
3	0	0	0	0	523	399	0	432	0	0	
4	0	0	0	0	525	400	0	446	0	0	
5	0	0	0	0	527	408	0	459	0	0	
6	0	0	0	0	528	420	0	470	0	0	
7	0	0	0	0	528	436	0	479	0	0	
8	0	0	0	0	527	454	0	482	0	0	
9	0	0	0	0	524	471	0	481	0	0	
10	0	0	0	0	520	487	0	476	0	0	
11	0	0	0	0	516	500	0	467	0	0	
12	0	0	0	0	511	509	0	454	0	0	
13	0	0	0	0	507	512	0	440	0	0	
14	0	0	0	0	503	508	0	425	0	0	
15	0	0	0	0	500	500	0	411	0	0	
0	0	0	0	0	498	487	0	399	0	0	
1	0	0	0	0	498	471	0	391	0	0	
2	0	0	0	0	499	452	0	387	0	0	
3	0	0	0	0	501	435	0	388	0	0	
4	0	0	0	0	505	418	0	393	0	0	
5	0	0	0	0	510	406	0	402	0	0	
6	0	0	0	0	515	398	0	415	0	0	
7	0	0	0	0	519	396	0	430	0	0	
8	0	0	0	0	524	400	0	445	0	0	
9	0	0	0	0	528	409	0	460	0	0	
10	0	0	0	0	531	423	0	472	0	0	
11	0	0	0	0	532	441	0	480	0	0	
12	0	0	0	0	531	460	0	485	0	0	
13	0	0	0	0	530	478	0	484	0	0	
14	0	0	0	0	527	495	0	480	0	0	
15	0	0	0	0	524	508	0	470	0	0	
0	0	0	0	0	519	516	0	458	0	0	
1	0	0	0	0	515	519	0	444	0	0	
2	0	0	0	0	511	515	0	429	0	0	
3	0	0	0	0	509	505	0	415	0	0	
4	0	0	0	0	507	491	0	403	0	0	
5	0	0	0	0	506	474	0	394	0	0	
6	0	0	0	0	506	455	0	390	0	0	
7	0	0	0	0	507	436	0	389	0	0	
8	0	0	0	0	511	420	0	394	0	0	
9	0	0	0	0	514	407	0	403	0	0	
10	0	0	0	0	518	399	0	415	0	0	
11	0	0	0	0	521	397	0	429	0	0	
12	0	0	0	0	524	400	0	444	0	0	
13	0	0	0	0	527	409	0	457	0	0	
14	0	0	0	0	529	423	0	469	0	0	
15	0	0	0	0	529	440	0	478	0	0	
0	0	0	0	0	529	459	0	482	0	0	
1	0	0	0	0	527	478	0	482	0	0	
2	0	0	0	0	524	494	0	476	0	0	
3	0	0	0	0	520	507	0	467	0	0	
4	0	0	0	0	515	515	0	454	0	0	
5	0	0	0	0	512	517	0	440	0	0	
6	0	0	0	0	508	513	0	424	0	0	
7	0	0	0	0	505	503	0	409	0	0	
8	0	0	0	0	503	488	0	398	0	0	
9	0	0	0	0	502	471	0	388	0	0	
10	0	0	0	0	502	452	0	384	0	0	
11	0	0	0	0	504	433	0	384	0	0	
12	0	0	0	0	506	416	0	389	0	0	
13	0	0	0	0	510	404	0	398	0	0	
14	0	0	0	0	514	396	0	411	0	0	
15	0	0	0	0	519	394	0	425	0	0	
0	0	0	0	0	523	398	0	441	0	0	
1	0	0	0	0	526	407	0	455	0	0	
2	0	0	0	0	528	422	0	468	0	0	
3	0	0	0	0	530	440	0	478	0	0	
4	0	0	0	0	530	459	0	482	0	0	
5	0	0	0	0	529	478	0	483	0	0	
6	0	0	0	0	527	496	0	478	0	0	
7	0	0	0	0	524	509	0	469	0	0	
8	0	0	0	0	519	516	0	455	0	0	
9	0	0	0	0	514	517	0	439	0	0	
10	0	0	0	0	508	511	0	421	0	0	
11	0	0	0	0	501	498	0	402	0	0	
12	0	0	0	0	494	479	0	384	0	0	
13	0	0	0	0	486	455	0	368	0	0	
14	0	0	0	0	477	428	0	355	0	0	
15	0	0	0	0	468	399	0	345	0	0	
0	0	0	0	0	459	371	0	339	0	0	
1	0	0	0	0	450	346	0	336	0	0	
2	0	0	0	0	441	325	0	336	0	0	
3	0	0	0	0	431	309	0	338	0	0	
4	0	0	0	0	420	298	0	340	0	0	
5	0	0	0	0	408	294	0	341	0	0	
6	0	0	0	0	397	293	0	341	0	0	
7	0	0	0	0	385	297	0	338	0	0	
8	0	0	0	0	371	304	0	331	0	0	
9	0	0	0	0	357	310	0	318	0	0	
10	0	0	0	0	342	316	0	302	0	0	
11	0	0	0	0	327	318	0	281	0	0	
12	0	0	0	0	312	316	0	258	0	0	
13	0	0	0	0	298	309	0	232	0	0	
14	0	0	0	0	285	297	0	207	0	0	
15	0	0	0	0	273	280	0	184	0	0	
0	0	0	0	0	264	258	0	163	0	0	
1	0	0	0	0	257	236	0	148	0	0	
2	0	0	0	0	255	213	0	140	0	0	
3	0	0	0	0	256	192	0	139	0	0	
4	0	0	0	0	262	175	0	146	0	0	
5	0	0	0	0	272	165	0	162	0	0	
6	0	0	0	0	287	163	0	184	0	0	
7	0	0	0	0	305	171	0	214	0	0	
8	0	0	0	0	326	188	0	247	0	0	
9	0	0	0	0	351	214	0	282	0	0	
10	0	0	0	0	376	248	0	318	0	0	
11	0	0	0	0	402	287	0	352	0	0	
12	0	0	0	0	428	332	0	384	0	0	
13	0	0	0	0	452	376	0	410	0	0	
14	0	0	0	0	474	419	0	430	0	0	
15	0	0	0	0	494	458	0	444	0	0	
0	0	0	0	0	510	489	0	450	0	0	
1	0	0	0	0	524	513	0	452	0	0	
2	0	0	0	0	534	526	0	450	0	0	
3	0	0	0	0	541	531	0	445	0	0	
4	0	0	0	0	547	526	0	439	0	0	
5	0	0	0	0	549	514	0	433	0	0	
6	0	0	0	0	550	497	0	429	0	0	
7	0	0	0	0	550	479	0	428	0	0	
8	0	0	0	0	549	459	0	429	0	0	
9	0	0	0	0	548	441	0	434	0	0	
10	0	0	0	0	546	429	0	442	0	0	
11	0	0	0	0	544	420	0	451	0	0	
12	0	0	0	0	542	419	0	461	0	0	
13	0	0	0	0	539	423	0	470	0	0	
14	0	0	0	0	537	432	0	478	0	0	
15	0	0	0	0	534	445	0	484	0	0	
0	0	0	0	0	531	462	0	487	0	0	
1	0	0	0	0	529	480	0	486	0	0	
2	0	0	0	0	526	496	0	481	0	0	
3	0	0	0	0	523	510	0	473	0	0	
4	0	0	0	0	521	520	0	463	0	0	
5	0	0	0	0	520	525	0	450	0	0	
6	0	0	0	0	519	524	0	438	0	0	
7	0	0	0	0	519	517	0	425	0	0	
8	0	0	0	0	520	506	0	416	0	0	
9	0	0	0	0	521	491	0	409	0	0	
10	0	0	0	0	524	474	0	406	0	0	
11	0	0	0	0	526	456	0	407	0	0	
12	0	0	0	0	529	441	0	412	0	0	
13	0	0	0	0	533	428	0	421	0	0	
14	0	0	0	0	536	419	0	433	0	0	
15	0	0	0	0	538	416	0	446	0	0	
0	0	0	0	0	540	419	0	460	0	0	
1	0	0	0	0	540	427	0	472	0	0	
2	0	0	0	0	540	439	0	483	0	0	
3	0	0	0	0	540	455	0	491	0	0	
4	0	0	0	0	538	473	0	495	0	0	
5	0	0	0	0	536	491	0	494	0	0	
6	0	0	0	0	533	507	0	489	0	0	
7	0	0	0	0	529	520	0	481	0	0	
8	0	0	0	0	527	528	0	469	0	0	
9	0	0	0	0	524	530	0	456	0	0	
10	0	0	0	0	522	527	0	444	0	0	
11	0	0	0	0	521	519	0	431	0	0	
12	0	0	0	0	521	505	0	420	0	0	
13	0	0	0	0	522	488	0	413	0	0	
14	0	0	0	0	524	470	0	409	0	0	
15	0	0	0	0	526	451	0	411	0	0	
0	0	0	0	0	529	435	0	416	0	0	
1	0	0	0	0	533	423	0	426	0	0	
2	0	0	0	0	537	414	0	438	0	0	
3	0	0	0	0	540	412	0	452	0	0	
4	0	0	0	0	542	415	0	466	0	0	
5	0	0	0	0	544	423	0	480	0	0	
6	0	0	0	0	545	437	0	490	0	0	
7	0	0	0	0	544	454	0	498	0	0	
8	0	0	0	0	542	472	0	501	0	0	
9	0	0	0	0	538	490	0	499	0	0	
10	0	0	0	0	535	506	0	493	0	0	
11	0	0	0	0	530	519	0	483	0	0	
12	0	0	0	0	525	527	0	470	0	0	
13	0	0	0	0	521	530	0	455	0	0	
14	0	0	0	0	517	526	0	440	0	0	
15	0	0	0	0	515	517	0	425	0	0	
0	0	0	0	0	514	504	0	413	0	0	
1	0	0	0	0	514	487	0	404	0	0	
2	0	0	0	0	515	469	0	399	0	0	
3	0	0	0	0	517	451	0	400	0	0	
4	0	0	0	0	521	434	0	404	0	0	
5	0	0	0	0	525	421	0	414	0	0	
6	0	0	0	0	528	412	0	425	0	0	
7	0	0	0	0	532	409	0	439	0	0	
8	0	0	0	0	534	412	0	454	0	0	
9	0	0	0	0	536	421	0	467	0	0	
10	0	0	0	0	538	434	0	479	0	0	
11	0	0	0	0	538	451	0	487	0	0	
12	0	0	0	0	536	469	0	492	0	0	
13	0	0	0	0	534	487	0	492	0	0	
14	0	0	0	0	530	504	0	487	0	0	
15	0	0	0	0	527	516	0	478	0	0	
0	0	0	0	0	523	525	0	467	0	0	
1	0	0	0	0	519	527	0	452	0	0	
2	0	0	0	0	517	524	0	438	0	0	
3	0	0	0	0	515	515	0	425	0	0	
4	0	0	0	0	514	501	0	413	0	0	
5	0	0	0	0	514	484	0	405	0	0	
6	0	0	0	0	515	465	0	400	0	0	
7	0	0	0	0	517	447	0	400	0	0	
8	0	0	0	0	520	430	0	405	0	0	
9	0	0	0	0	524	417	0	414	0	0	
10	0	0	0	0	528	409	0	426	0	0	
11	0	0	0	0	531	407	0	440	0	0	
12	0	0	0	0	534	410	0	454	0	0	
13	0	0	0	0	535	419	0	467	0	0	
14	0	0	0	0	536	432	0	479	0	0	
15	0	0	0	0	536	449	0	488	0	0	
0	0	0	0	0	535	468	0	492	0	0	
1	0	0	0	0	532	487	0	492	0	0	
2	0	0	0	0	529	503	0	487	0	0	
3	0	0	0	0	526	516	0	478	0	0	
4	0	0	0	0	522	524	0	465	0	0	
5	0	0	0	0	518	526	0	451	0	0	
6	0	0	0	0	515	521	0	435	0	0	
7	0	0	0	0	512	512	0	421	0	0	
8	0	0	0	0	511	497	0	408	0	0	
9	0	0	0	0	510	479	0	399	0	0	
10	0	0	0	0	510	460	0	394	0	0	
11	0	0	0	0	511	440	0	393	0	0	
12	0	0	0	0	513	423	0	397	0	0	
13	0	0	0	0	516	409	0	406	0	0	
14	0	0	0	0	519	400	0	418	0	0	
15	0	0	0	0	521	397	0	433	0	0	
0	0	0	0	0	524	400	0	447	0	0	
1	0	0	0	0	526	409	0	461	0	0	
2	0	0	0	0	527	423	0	473	0	0	
3	0	0	0	0	527	440	0	481	0	0	
4	0	0	0	0	526	459	0	486	0	0	
5	0	0	0	0	525	479	0	485	0	0	
6	0	0	0	0	522	496	0	480	0	0	
7	0	0	0	0	519	510	0	470	0	0	
8	0	0	0	0	514	518	0	457	0	0	
9	0	0	0	0	512	520	0	443	0	0	
10	0	0	0	0	509	517	0	427	0	0	
11	0	0	0	0	507	508	0	412	0	0	
12	0	0	0	0	506	494	0	401	0	0	
13	0	0	0	0	506	476	0	392	0	0	
14	0	0	0	0	507	457	0	388	0	0	
15	0	0	0	0	509	438	0	388	0	0	
0	0	0	0	0	512	421	0	393	0	0	
1	0	0	0	0	516	407	0	403	0	0	
2	0	0	0	0	520	399	0	416	0	0	
3	0	0	0	0	524	396	0	431	0	0	
4	0	0	0	0	527	399	0	446	0	0	
5	0	0	0	0	529	408	0	461	0	0	
6	0	0	0	0	531	422	0	473	0	0	
7	0	0	0	0	532	440	0	483	0	0	
8	0	0	0	0	531	460	0	487	0	0	
9	0	0	0	0	529	479	0	487	0	0	
10	0	0	0	0	527	497	0	483	0	0	
11	0	0	0	0	525	511	0	475	0	0	
12	0	0	0	0	521	519	0	463	0	0	
13	0	0	0	0	518	523	0	449	0	0	
14	0	0	0	0	515	519	0	435	0	0	
15	0	0	0	0	512	511	0	420	0	0	
0	0	0	0	0	510	496	0	408	0	0	
1	0	0	0	0	509	479	0	399	0	0	
2	0	0	0	0	509	460	0	393	0	0	
3	0	0	0	0	510	440	0	392	0	0	
4	0	0	0	0	512	423	0	396	0	0	
5	0	0	0	0	515	410	0	404	0	0	
6	0	0	0	0	517	401	0	415	0	0	
7	0	0	0	0	520	398	0	428	0	0	
8	0	0	0	0	522	400	0	443	0	0	
9	0	0	0	0	524	409	0	456	0	0	
10	0	0	0	0	526	422	0	467	0	0	
11	0	0	0	0	527	440	0	476	0	0	
12	0	0	0	0	526	458	0	480	0	0	
13	0	0	0	0	524	476	0	479	0	0	
14	0	0	0	0	521	494	0	474	0	0	
15	0	0	0	0	519	507	0	465	0	0	
0	0	0	0	0	515	515	0	453	0	0	
1	0	0	0	0	512	518	0	439	0	0	
2	0	0	0	0	510	515	0	424	0	0	
3	0	0	0	0	507	506	0	411	0	0	
4	0	0	0	0	506	493	0	399	0	0	
5	0	0	0	0	505	476	0	391	0	0	
6	0	0	0	0	505	458	0	387	0	0	
7	0	0	0	0	507	440	0	387	0	0	
8	0	0	0	0	508	424	0	391	0	0	
9	0	0	0	0	512	412	0	401	0	0	
10	0	0	0	0	515	404	0	413	0	0	
11	0	0	0	0	518	401	0	428	0	0	
12	0	0	0	0	521	404	1	442	0	0	
13	0	0	0	0	522	413	0	456	0	0	
14	0	0	0	0	524	425	0	468	0	0	
15	0	0	0	0	524	442	0	477	0	0	
0	0	0	0	0	523	460	0	481	0	0	
1	0	0	0	0	520	478	0	480	0	0	
2	0	0	0	0	517	493	0	475	0	0	
3	0	0	0	0	513	506	0	466	0	0	
4	0	0	0	0	510	514	0	453	0	0	
5	0	0	0	0	506	516	0	439	0	0	
6	0	0	0	0	504	513	0	424	0	0	
7	0	0	0	0	502	504	0	411	0	0	
8	0	0	0	0	501	491	0	399	0	0	
9	0	0	0	0	501	475	0	391	0	0	
10	0	0	0	0	503	457	0	387	0	0	
11	0	0	0	0	505	439	0	388	0	0	
12	0	0	0	0	508	423	0	392	0	0	
13	0	0	0	0	512	411	0	402	0	0	
14	0	0	0	0	516	404	0	415	0	0	
15	0	0	0	0	520	402	0	430	0	0	
0	0	0	0	0	524	406	0	445	0	0	
1	0	0	0	0	527	416	0	460	0	0	
2	0	0	0	0	529	430	0	472	0	0	
3	0	0	0	0	531	448	0	481	0	0	
4	0	0	0	0	531	467	0	487	0	0	
5	0	0	0	0	529	486	0	486	0	0	
6	0	0	0	0	526	503	0	481	0	0	
7	0	0	0	0	524	515	0	473	0	0	
8	0	0	0	0	520	524	0	461	0	0	
9	0	0	0	0	517	527	0	447	0	0	
10	0	0	0	0	515	523	0	433	0	0	
11	0	0	0	0	512	514	0	419	0	0	
12	0	0	0	0	512	500	0	408	0	0	
13	0	0	0	0	511	483	0	399	0	0	
14	0	0	0	0	512	464	0	395	0	0	
15	0	0	0	0	513	446	0	395	0	0	
0	0	0	0	0	515	429	0	399	0	0	
1	0	0	0	0	519	415	0	408	0	0	
2	0	0	0	0	522	407	0	419	0	0	
3	0	0	0	0	525	404	0	433	0	0	
4	0	0	0	0	527	407	0	447	0	0	
5	0	0	0	0	530	415	0	460	0	0	
6	0	0	0	0	531	429	0	471	0	0	
7	0	0	0	0	531	446	0	479	0	0	
8	0	0	0	0	531	465	0	483	0	0	
9	0	0	0	0	528	484	0	482	0	0	
10	0	0	0	0	526	501	0	477	0	0	
11	0	0	0	0	523	514	0	467	0	0	
12	0	0	0	0	519	523	0	455	0	0	
13	0	0	0	0	517	525	0	441	0	0	
14	0	0	0	0	515	521	0	427	0	0	
15	0	0	0	0	512	512	0	413	0	0	
0	0	0	0	0	511	497	0	401	0	0	
1	0	0	0	0	511	480	0	393	0	0	
2	0	0	0	0	512	462	0	389	0	0	
3	0	0	0	0	514	443	0	390	0	0	
4	0	0	0	0	516	426	0	394	0	0	
5	0	0	0	0	519	412	0	404	0	0	
6	0	0	0	0	523	404	0	416	0	0	
7	0	0	0	0	526	402	0	431	0	0	
8	0	0	0	0	528	406	0	445	0	0	
9	0	0	0	0	530	415	0	459	0	0	
10	0	0	0	0	531	428	0	471	0	0	
11	0	0	0	0	532	446	0	480	0	0	
12	0	0	0	0	531	465	0	485	0	0	
13	0	0	0	0	529	484	0	485	0	0	
14	0	0	0	0	526	500	0	480	0	0	
15	0	0	0	0	523	514	0	472	0	0	
0	0	0	0	0	519	523	0	461	0	0	
1	0	0	0	0	516	526	0	447	0	0	
2	0	0	0	0	513	523	0	434	0	0	
3	0	0	0	0	511	515	0	420	0	0	
4	0	0	0	0	511	501	0	410	0	0	
5	0	0	0	0	511	485	0	402	0	0	
6	0	0	0	0	512	467	0	398	0	0	
7	0	0	0	0	514	448	0	398	0	0	
8	0	0	0	0	518	432	0	401	0	0	
9	0	0	0	0	521	419	0	410	0	0	
10	0	0	0	0	525	412	0	422	0	0	
11	0	0	0	0	528	409	0	435	0	0	
12	0	0	0	0	531	412	0	449	0	0	
13	0	0	0	0	533	421	0	462	0	0	
14	0	0	0	0	534	434	0	473	0	0	
15	0	0	0	0	534	451	0	481	0	0	
0	0	0	0	0	533	469	0	485	0	0	
1	0	0	0	0	530	487	0	485	0	0	
2	0	0	0	0	527	503	0	480	0	0	
3	0	0	0	0	524	515	0	472	0	0	
4	0	0	0	0	521	523	0	460	0	0	
5	0	0	0	0	518	525	0	447	0	0	
6	0	0	0	0	515	521	0	432	0	0	
7	0	0	0	0	514	512	0	419	0	0	
8	0	0	0	0	513	499	0	408	0	0	
9	0	0	0	0	513	482	0	399	0	0	
10	0	0	0	0	514	463	0	395	0	0	
11	0	0	0	0	515	444	0	395	0	0	
12	0	0	0	0	519	428	0	398	0	0	
13	0	0	0	0	522	415	0	407	0	0	
14	0	0	0	0	525	407	0	418	0	0	
15	0	0	0	0	528	405	0	432	0	0	
0	0	0	0	0	531	408	0	446	0	0	
1	0	0	0	0	533	417	0	460	0	0	
2	0	0	0	0	535	431	0	472	0	0	
3	0	0	0	0	535	448	0	480	0	0	
4	0	0	0	0	534	466	0	485	0	0	
5	0	0	0	0	531	485	0	486	0	0	
6	0	0	0	0	529	502	0	482	0	0	
7	0	0	0	0	525	515	0	474	0	0	
8	0	0	0	0	522	524	0	463	0	0	
9	0	0	0	0	519	528	0	451	0	0	
10	0	0	0	0	516	526	0	437	0	0	
11	0	0	0	0	515	518	0	424	0	0	
12	0	0	0	0	515	506	0	414	0	0	
13	0	0	0	0	515	490	0	406	0	0	
14	0	0	0	0	517	473	0	401	0	0	
15	0	0	0	0	519	456	0	402	0	0	
0	0	0	0	0	524	441	0	407	0	0	
1	0	0	0	0	528	429	0	416	0	0	
2	0	0	0	0	532	422	0	428	0	0	
3	0	0	0	0	536	419	0	441	0	0	
4	0	0	0	0	539	423	0	456	0	0	
5	0	0	0	0	541	432	0	469	0	0	
6	0	0	0	0	542	444	0	480	0	0	
7	0	0	0	0	542	460	0	488	0	0	
8	0	0	0	0	540	477	0	492	0	0	
9	0	0	0	0	536	494	0	491	0	0	
10	0	0	0	0	532	509	0	485	0	0	
11	0	0	0	0	528	520	0	475	0	0	
12	0	0	0	0	523	527	0	462	0	0	
13	0	0	0	0	518	527	0	447	0	0	
14	0	0	0	0	514	523	0	432	0	0	
15	0	0	0	0	510	513	0	418	0	0	
0	0	0	0	0	508	498	0	406	0	0	
1	0	0	0	0	508	481	0	398	0	0	
2	0	0	0	0	508	462	0	393	0	0	
3	0	0	0	0	510	444	0	393	0	0	
4	0	0	0	0	512	428	0	399	0	0	
5	0	0	0	0	517	415	0	408	0	0	
6	0	0	0	0	521	408	0	421	0	0	
7	0	0	0	0	525	406	0	435	0	0	
8	0	0	0	0	528	409	0	450	0	0	
9	0	0	0	0	531	420	0	464	0	0	
10	0	0	0	0	533	433	0	476	0	0	
11	0	0	0	0	534	451	0	484	0	0	
12	0	0	0	0	533	470	0	488	0	0	
13	0	0	0	0	531	488	0	488	0	0	
14	0	0	0	0	528	505	0	482	0	0	
15	0	0	0	0	525	518	0	473	0	0	
0	0	0	0	0	521	526	0	460	0	0	
1	0	0	0	0	518	527	0	445	0	0	
2	0	0	0	0	515	524	0	430	0	0	
3	0	0	0	0	512	515	0	416	0	0	
4	0	0	0	0	512	501	0	404	0	0	
5	0	0	0	0	512	484	0	396	0	0	
6	0	0	0	0	513	466	0	391	0	0	
7	0	0	0	0	516	448	0	392	0	0	
8	0	0	0	0	519	432	0	397	0	0	
9	0	0	0	0	524	420	0	407	0	0	
10	0	0	0	0	527	412	0	420	0	0	
11	0	0	0	0	531	410	0	435	0	0	
12	0	0	0	0	534	414	0	450	0	0	
13	0	0	0	0	536	423	0	464	0	0	
14	0	0	0	0	538	437	0	476	0	0	
15	0	0	0	0	538	454	0	484	0	0	
0	0	0	0	0	536	472	0	488	0	0	
1	0	0	0	0	533	489	0	487	0	0	
2	0	0	0	0	529	505	0	481	0	0	
3	0	0	0	0	525	518	0	471	0	0	
4	0	0	0	0	521	525	0	459	0	0	
5	0	0	0	0	516	526	0	443	0	0	
6	0	0	0	0	513	523	0	428	0	0	
7	0	0	0	0	510	512	0	414	0	0	
8	0	0	0	0	508	497	0	402	0	0	
9	0	0	0	0	508	480	0	393	0	0	
10	0	0	0	0	508	460	0	389	0	0	
11	0	0	0	0	510	441	0	389	0	0	
12	0	0	0	0	512	424	0	393	0	0	
13	0	0	0	0	516	410	0	403	0	0	
14	0	0	0	0	519	402	0	415	0	0	
15	0	0	0	0	523	399	0	430	0	0	
0	0	0	0	0	525	401	0	444	0	0	
1	0	0	0	0	527	411	0	458	0	0	
2	0	0	0	0	529	424	0	470	0	0	
3	0	0	0	0	529	441	0	478	0	0	
4	0	0	0	0	528	460	0	483	0	0	
5	0	0	0	0	527	479	0	482	0	0	
6	0	0	0	0	524	497	0	478	0	0	
7	0	0	0	0	521	511	0	469	0	0	
8	0	0	0	0	518	520	0	458	0	0	
9	0	0	0	0	515	524	0	444	0	0	
10	0	0	0	0	513	521	0	430	0	0	
11	0	0	0	0	511	513	0	417	0	0	
12	0	0	0	0	511	501	0	406	0	0	
13	0	0	0	0	511	484	0	399	0	0	
14	0	0	0	0	512	466	0	395	0	0	
15	0	0	0	0	513	448	0	396	0	0	
0	0	0	0	0	516	432	0	401	0	0	
1	0	0	0	0	520	419	0	410	0	0	
2	0	0	0	0	524	411	0	423	0	0	
3	0	0	0	0	527	409	0	437	0	0	
4	0	0	0	0	530	412	0	451	0	0	
5	0	0	0	0	532	420	0	464	0	0	
6	0	0	0	0	535	433	0	475	0	0	
7	0	0	0	0	536	450	0	483	0	0	
8	0	0	0	0	536	468	0	487	0	0	
9	0	0	0	0	533	486	0	485	0	0	
10	0	0	0	0	531	503	0	480	0	0	
11	0	0	0	0	528	515	0	471	0	0	
12	0	0	0	0	524	523	0	459	0	0	
13	0	0	0	0	521	525	0	445	0	0	
14	0	0	0	0	519	521	0	430	0	0	
15	0	0	0	0	516	512	0	417	0	0	
0	0	0	0	0	515	499	0	406	0	0	
1	0	0	0	0	514	483	0	398	0	0	
2	0	0	0	0	515	464	0	395	0	0	
3	0	0	0	0	516	447	0	396	0	0	
4	0	0	0	0	518	431	0	401	0	0	
5	0	0	0	0	522	418	0	411	0	0	
6	0	0	0	0	526	410	0	424	0	0	
7	0	0	0	0	529	408	0	439	0	0	
8	0	0	0	0	532	412	0	453	0	0	
9	0	0	0	0	535	420	0	467	0	0	
10	0	0	0	0	537	435	0	479	0	0	
11	0	0	0	0	537	451	0	487	0	0	
12	0	0	0	0	537	470	0	491	0	0	
13	0	0	0	0	536	488	0	490	0	0	
14	0	0	0	0	532	505	0	485	0	0	
15	0	0	0	0	530	519	0	475	0	0	
0	0	0	0	0	527	527	0	463	0	0	
1	0	0	0	0	524	530	0	449	0	0	
2	0	0	0	0	522	527	0	435	0	0	
3	0	0	0	0	520	519	0	422	0	0	
4	0	0	0	0	520	505	0	412	0	0	
5	0	0	0	0	520	489	0	404	0	0	
6	0	0	0	0	521	472	0	401	0	0	
7	0	0	0	0	524	453	0	402	0	0	
8	0	0	0	0	526	437	0	407	0	0	
9	0	0	0	0	530	424	0	416	0	0	
10	0	0	0	0	534	417	0	429	0	0	
11	0	0	0	0	537	414	0	443	0	0	
12	0	0	0	0	539	418	0	458	0	0	
13	0	0	0	0	542	427	0	472	0	0	
14	0	0	0	0	543	440	0	483	0	0	
15	0	0	0	0	543	457	0	492	0	0	
0	0	0	0	0	542	475	0	496	0	0	
1	0	0	0	0	539	494	0	496	0	0	
2	0	0	0	0	536	510	0	491	0	0	
3	0	0	0	0	532	523	0	482	0	0	
4	0	0	0	0	528	530	0	470	0	0	
5	0	0	0	0	525	532	0	455	0	0	
6	0	0	0	0	522	528	0	441	0	0	
7	0	0	0	0	519	519	0	427	0	0	
8	0	0	0	0	519	505	0	415	0	0	
9	0	0	0	0	519	488	0	407	0	0	
10	0	0	0	0	520	470	0	402	0	0	
11	0	0	0	0	523	451	0	403	0	0	
12	0	0	0	0	526	435	0	407	0	0	
13	0	0	0	0	531	422	0	416	0	0	
14	0	0	0	0	535	414	0	429	0	0	
15	0	0	0	0	539	412	0	443	0	0	
0	0	0	0	0	542	415	0	458	0	0	
1	0	0	0	0	544	425	0	472	0	0	
2	0	0	0	0	547	439	0	484	0	0	
3	0	0	0	0	547	456	0	494	0	0	
4	0	0	0	0	547	476	0	499	0	0	
5	0	0	0	0	545	495	0	499	0	0	
6	0	0	0	0	542	512	0	494	0	0	
7	0	0	0	0	540	526	0	486	0	0	
8	0	0	0	0	536	535	0	474	0	0	
9	0	0	0	0	532	538	0	460	0	0	
10	0	0	0	0	529	535	0	445	0	0	
11	0	0	0	0	527	527	0	431	0	0	
12	0	0	0	0	527	513	0	419	0	0	
13	0	0	0	0	526	496	0	410	0	0	
14	0	0	0	0	527	477	0	405	0	0	
15	0	0	0	0	530	458	0	405	0	0	
0	0	0	0	0	533	441	0	409	0	0	
1	0	0	0	0	536	428	0	418	0	0	
2	0	0	0	0	540	419	0	429	0	0	
3	0	0	0	0	543	416	0	443	0	0	
4	0	0	0	0	545	419	0	457	0	0	
5	0	0	0	0	546	428	0	471	0	0	
6	0	0	0	0	547	441	0	482	0	0	
7	0	0	0	0	546	457	0	490	0	0	
8	0	0	0	0	544	476	0	495	0	0	
9	0	0	0	0	541	494	0	494	0	0	
10	0	0	0	0	536	510	0	489	0	0	
11	0	0	0	0	532	523	0	480	0	0	
12	0	0	0	0	528	531	0	468	0	0	
13	0	0	0	0	524	533	0	454	0	0	
14	0	0	0	0	521	529	0	440	0	0	
15	0	0	0	0	519	521	0	427	0	0	
0	0	0	0	0	518	507	0	416	0	0	
1	0	0	0	0	519	491	0	409	0	0	
2	0	0	0	0	519	472	0	405	0	0	
3	0	0	0	0	523	455	0	406	0	0	
4	0	0	0	0	526	439	0	411	0	0	
5	0	0	0	0	530	427	0	420	0	0	
6	0	0	0	0	534	419	0	433	0	0	
7	0	0	0	0	538	417	0	446	0	0	
8	0	0	0	0	540	420	0	460	0	0	
9	0	0	0	0	543	429	0	473	0	0	
10	0	0	0	0	544	443	0	484	0	0	
11	0	0	0	0	544	459	0	492	0	0	
12	0	0	0	0	543	478	0	496	0	0	
13	0	0	0	0	542	496	0	495	0	0	
14	0	0	0	0	539	512	0	489	0	0	
15	0	0	0	0	536	524	0	480	0	0	
0	0	0	0	0	532	532	0	468	0	0	
1	0	0	0	0	529	535	0	454	0	0	
2	0	0	0	0	526	531	0	440	0	0	
3	0	0	0	0	524	522	0	426	0	0	
4	0	0	0	0	523	508	0	415	0	0	
5	0	0	0	0	522	491	0	407	0	0	
6	0	0	0	0	522	473	0	403	0	0	
7	0	0	0	0	524	454	0	403	0	0	
8	0	0	0	0	525	438	0	407	0	0	
9	0	0	0	0	529	425	0	416	0	0	
10	0	0	0	0	531	417	0	428	0	0	
11	0	0	0	0	534	414	0	441	0	0	
12	0	0	0	0	536	416	0	454	0	0	
13	0	0	0	0	537	425	0	467	0	0	
14	0	0	0	0	538	437	0	477	0	0	
15	0	0	0	0	538	454	0	485	0	0	
0	0	0	0	0	536	471	0	489	0	0	
1	0	0	0	0	533	488	0	487	0	0	
2	0	0	0	0	531	504	0	483	0	0	
3	0	0	0	0	527	516	0	473	0	0	
4	0	0	0	0	523	524	0	461	0	0	
5	0	0	0	0	520	526	0	447	0	0	
6	0	0	0	0	517	521	0	432	0	0	
7	0	0	0	0	515	512	0	419	0	0	
8	0	0	0	0	513	499	0	407	0	0	
9	0	0	0	0	514	482	0	399	0	0	
10	0	0	0	0	515	464	0	395	0	0	
11	0	0	0	0	517	446	0	396	0	0	
12	0	0	0	0	520	430	0	401	0	0	
13	0	0	0	0	524	418	0	411	0	0	
14	0	0	0	0	528	411	0	423	0	0	
15	0	0	0	0	532	409	0	438	0	0	
0	0	0	0	0	536	413	0	453	0	0	
1	0	0	0	0	538	423	0	467	0	0	
2	0	0	0	0	540	438	0	480	0	0	
3	0	0	0	0	540	455	0	488	0	0	
4	0	0	0	0	539	474	0	494	0	0	
5	0	0	0	0	538	494	0	494	0	0	
6	0	0	0	0	535	511	0	489	0	0	
7	0	0	0	0	532	524	0	480	0	0	
8	0	0	0	0	528	534	0	469	0	0	
9	0	0	0	0	525	536	0	455	0	0	
10	0	0	0	0	523	534	0	441	0	0	
11	0	0	0	0	520	525	0	428	0	0	
12	0	0	0	0	520	511	0	417	0	0	
13	0	0	0	0	521	495	0	409	0	0	
14	0	0	0	0	523	476	0	406	0	0	
15	0	0	0	0	525	457	0	407	0	0	
0	0	0	0	0	529	441	0	412	0	0	
1	0	0	0	0	534	428	0	422	0	0	
2	0	0	0	0	538	420	0	435	0	0	
3	0	0	0	0	542	418	0	449	0	0	
4	0	0	0	0	545	421	0	464	0	0	
5	0	0	0	0	548	431	0	477	0	0	
6	0	0	0	0	550	444	0	488	0	0	
7	0	0	0	0	550	462	0	496	0	0	
8	0	0	0	0	549	481	0	500	0	0	
9	0	0	0	0	547	499	0	499	0	0	
10	0	0	0	0	543	516	0	493	0	0	
11	0	0	0	0	540	529	0	483	0	0	
12	0	0	0	0	535	537	0	471	0	0	
13	0	0	0	0	531	539	0	457	0	0	
14	0	0	0	0	527	536	0	443	0	0	
15	0	0	0	0	524	526	0	429	0	0	
0	0	0	0	0	523	511	0	418	0	0	
1	0	0	0	0	521	494	0	409	0	0	
2	0	0	0	0	521	475	0	406	0	0	
3	0	0	0	0	523	455	0	406	0	0	
4	0	0	0	0	526	439	0	411	0	0	
5	0	0	0	0	529	425	0	419	0	0	
6	0	0	0	0	533	417	0	432	0	0	
7	0	0	0	0	536	414	0	445	0	0	
8	0	0	0	0	540	417	0	459	0	0	
9	0	0	0	0	541	426	0	472	0	0	
10	0	0	0	0	543	439	0	482	0	0	
11	0	0	0	0	543	456	0	490	0	0	
12	0	0	0	0	543	474	0	494	0	0	
13	0	0	0	0	541	493	0	492	0	0	
14	0	0	0	0	538	509	0	487	0	0	
15	0	0	0	0	535	522	0	477	0	0	
0	0	0	0	0	531	529	0	465	0	0	
1	0	0	0	0	528	532	0	451	0	0	
2	0	0	0	0	526	528	0	436	0	0	
3	0	0	0	0	523	519	0	423	0	0	
4	0	0	0	0	522	506	0	412	0	0	
5	0	0	0	0	521	489	0	404	0	0	
6	0	0	0	0	523	472	0	401	0	0	
7	0	0	0	0	524	454	0	402	0	0	
8	0	0	0	0	527	439	0	408	0	0	
9	0	0	0	0	530	427	0	419	0	0	
10	0	0	0	0	534	419	0	432	0	0	
11	0	0	0	0	537	419	0	447	0	0	
12	0	0	0	0	540	423	0	462	0	0	
13	0	0	0	0	543	433	0	476	0	0	
14	0	0	0	0	544	447	0	487	0	0	
15	0	0	0	0	544	464	0	495	0	0	
0	0	0	0	0	543	483	0	498	0	0	
1	0	0	0	0	541	500	0	495	0	0	
2	0	0	0	0	536	515	0	487	0	0	
3	0	0	0	0	531	525	0	475	0	0	
4	0	0	0	0	524	529	0	458	0	0	
5	0	0	0	0	517	527	0	439	0	0	
6	0	0	0	0	509	518	0	419	0	0	
7	0	0	0	0	500	502	0	398	0	0	
8	0	0	0	0	492	480	0	380	0	0	
9	0	0	0	0	483	454	0	363	0	0	
10	0	0	0	0	473	426	0	350	0	0	
11	0	0	0	0	464	397	0	340	0	0	
12	0	0	0	0	455	370	0	334	0	0	
13	0	0	0	0	447	345	0	332	0	0	
14	0	0	0	0	439	326	0	334	0	0	
15	0	0	0	0	430	312	0	336	0	0	
0	0	0	0	0	420	303	0	340	0	0	
1	0	0	0	0	410	300	0	342	0	0	
2	0	0	0	0	400	302	0	343	0	0	
3	0	0	0	0	388	307	0	340	0	0	
4	0	0	0	0	376	314	0	334	0	0	
5	0	0	0	0	362	321	0	322	0	0	
6	0	0	0	0	347	327	0	306	0	0	
7	0	0	0	0	332	328	0	286	0	0	
8	0	0	0	0	318	326	0	263	0	0	
9	0	0	0	0	303	318	0	238	0	0	
10	0	0	0	0	290	305	0	214	0	0	
11	0	0	0	0	280	289	0	191	0	0	
12	0	0	0	0	273	270	0	172	0	0	
13	0	0	0	0	270	250	0	159	0	0	
14	0	0	0	0	271	231	0	154	0	0	
15	0	0	0	0	278	214	0	157	0	0	
0	0	0	0	0	288	202	0	168	0	0	
1	0	0	0	0	305	198	0	188	0	0	
2	0	0	0	0	326	202	0	216	0	0	
3	0	0	0	0	349	215	0	250	0	0	
4	0	0	0	0	376	237	0	287	0	0	
5	0	0	0	0	404	268	0	326	0	0	
6	0	0	0	0	434	305	0	365	0	0	
7	0	0	0	0	462	347	0	402	0	0	
8	0	0	0	0	489	392	0	435	0	0	
9	0	0	0	0	513	436	0	460	0	0	
10	0	0	0	0	533	478	0	479	0	0	
11	0	0	0	0	551	514	0	489	0	0	
12	0	0	0	0	563	541	0	494	0	0	
13	0	0	0	0	572	560	0	492	0	0	
14	0	0	0	0	577	569	0	485	0	0	
15	0	0	0	0	580	568	0	476	0	0	
0	0	0	0	0	580	560	0	465	0	0	
1	0	0	0	0	579	545	0	456	0	0	
2	0	0	0	0	576	525	0	448	0	0	
3	0	0	0	0	572	503	0	444	0	0	
4	0	0	0	0	569	481	0	443	0	0	
5	0	0	0	0	566	462	0	446	0	0	
6	0	0	0	0	563	448	0	452	0	0	
7	0	0	0	0	560	439	0	460	0	0	
8	0	0	0	0	557	436	0	470	0	0	
9	0	0	0	0	555	440	0	480	0	0	
10	0	0	0	0	553	450	0	489	0	0	
11	0	0	0	0	552	465	0	496	0	0	
12	0	0	0	0	551	482	0	501	0	0	
13	0	0	0	0	548	501	0	502	0	0	
14	0	0	0	0	547	518	0	498	0	0	
15	0	0	0	0	546	533	0	492	0	0	
0	0	0	0	0	545	543	0	482	0	0	
1	0	0	0	0	544	548	0	471	0	0	
2	0	0	0	0	543	546	0	459	0	0	
3	0	0	0	0	543	540	0	447	0	0	
4	0	0	0	0	544	528	0	438	0	0	
5	0	0	0	0	545	513	0	431	0	0	
6	0	0	0	0	547	496	0	428	0	0	
7	0	0	0	0	550	479	0	429	0	0	
8	0	0	0	0	553	463	0	434	0	0	
9	0	0	0	0	557	451	0	443	0	0	
10	0	0	0	0	561	444	0	455	0	0	
11	0	0	0	0	564	441	0	468	0	0	
12	0	0	0	0	566	445	0	482	0	0	
13	0	0	0	0	568	454	0	495	0	0	
14	0	0	0	0	569	467	0	506	0	0	
15	0	0	0	0	569	484	0	514	0	0	
0	0	0	0	0	568	502	0	518	0	0	
1	0	0	0	0	566	520	0	517	0	0	
2	0	0	0	0	564	536	0	512	0	0	
3	0	0	0	0	561	550	0	504	0	0	
4	0	0	0	0	558	558	0	493	0	0	
5	0	0	0	0	556	560	0	480	0	0	
6	0	0	0	0	553	556	0	467	0	0	
7	0	0	0	0	553	547	0	455	0	0	
8	0	0	0	0	552	534	0	444	0	0	
9	0	0	0	0	553	518	0	437	0	0	
10	0	0	0	0	554	499	0	433	0	0	
11	0	0	0	0	556	482	0	434	0	0	
12	0	0	0	0	558	466	0	438	0	0	
13	0	0	0	0	561	453	0	446	0	0	
14	0	0	0	0	564	446	0	457	0	0	
15	0	0	0	0	566	443	0	470	0	0	
0	0	0	0	0	566	446	0	482	0	0	
1	0	0	0	0	568	455	0	494	0	0	
2	0	0	0	0	567	467	0	504	0	0	
3	0	0	0	0	566	483	0	511	0	0	
4	0	0	0	0	564	501	0	514	0	0	
5	0	0	0	0	561	519	0	512	0	0	
6	0	0	0	0	558	535	0	507	0	0	
7	0	0	0	0	555	546	0	497	0	0	
8	0	0	0	0	552	553	0	486	0	0	
9	0	0	0	0	549	555	0	472	0	0	
10	0	0	0	0	547	551	0	459	0	0	
11	0	0	0	0	547	542	0	446	0	0	
12	0	0	0	0	546	528	0	436	0	0	
13	0	0	0	0	547	512	0	430	0	0	
14	0	0	0	0	548	494	0	427	0	0	
15	0	0	0	0	551	476	0	429	0	0	
0	0	0	0	0	555	460	0	435	0	0	
1	0	0	0	0	559	449	0	445	0	0	
2	0	0	0	0	562	442	0	458	0	0	
3	0	0	0	0	566	440	0	472	0	0	
4	0	0	0	0	568	445	0	487	0	0	
5	0	0	0	0	571	455	0	499	0	0	
6	0	0	0	0	572	469	0	510	0	0	
7	0	0	0	0	572	487	0	518	0	0	
8	0	0	0	0	571	505	0	520	0	0	
9	0	0	0	0	568	523	0	519	0	0	
10	0	0	0	0	566	539	0	513	0	0	
11	0	0	0	0	561	551	0	503	0	0	
12	0	0	0	0	558	559	0	491	0	0	
13	0	0	0	0	553	559	0	476	0	0	
14	0	0	0	0	550	555	0	461	0	0	
15	0	0	0	0	547	544	0	447	0	0	
0	0	0	0	0	545	529	0	435	0	0	
1	0	0	0	0	544	511	0	427	0	0	
2	0	0	0	0	544	492	0	423	0	0	
3	0	0	0	0	545	474	0	423	0	0	
4	0	0	0	0	548	457	0	428	0	0	
5	0	0	0	0	551	445	0	438	0	0	
6	0	0	0	0	555	438	0	450	0	0	
7	0	0	0	0	558	437	0	464	0	0	
8	0	0	0	0	562	442	0	478	0	0	
9	0	0	0	0	564	452	0	493	0	0	
10	0	0	0	0	567	467	0	505	0	0	
11	0	0	0	0	568	485	0	514	0	0	
12	0	0	0	0	569	504	0	518	0	0	
13	0	0	0	0	567	523	0	518	0	0	
14	0	0	0	0	566	540	0	513	0	0	
15	0	0	0	0	563	552	0	504	0	0	
0	0	0	0	0	560	559	0	492	0	0	
1	0	0	0	0	557	560	0	479	0	0	
2	0	0	0	0	554	555	0	464	0	0	
3	0	0	0	0	552	545	0	450	0	0	
4	0	0	0	0	552	530	0	439	0	0	
5	0	0	0	0	551	512	0	431	0	0	
6	0	0	0	0	553	493	0	427	0	0	
7	0	0	0	0	554	474	0	427	0	0	
8	0	0	0	0	556	457	0	432	0	0	
9	0	0	0	0	560	444	0	440	0	0	
10	0	0	0	0	563	437	0	452	0	0	
11	0	0	0	0	565	435	0	465	0	0	
12	0	0	0	0	568	439	0	479	0	0	
13	0	0	0	0	569	448	0	492	0	0	
14	0	0	0	0	569	462	0	503	0	0	
15	0	0	0	0	569	479	0	510	0	0	
0	0	0	0	0	568	499	0	515	0	0	
1	0	0	0	0	565	517	0	514	0	0	
2	0	0	0	0	562	534	0	509	0	0	
3	0	0	0	0	559	547	0	500	0	0	
4	0	0	0	0	555	555	0	488	0	0	
5	0	0	0	0	552	557	0	475	0	0	
6	0	0	0	0	550	553	0	461	0	0	
7	0	0	0	0	548	544	0	448	0	0	
8	0	0	0	0	547	530	0	437	0	0	
9	0	0	0	0	548	513	0	429	0	0	
10	0	0	0	0	548	494	0	426	0	0	
11	0	0	0	0	551	476	0	427	0	0	
12	0	0	0	0	553	460	0	432	0	0	
13	0	0	0	0	557	446	0	441	0	0	
14	0	0	0	0	560	439	0	453	0	0	
15	0	0	0	0	563	436	0	466	0	0	
0	0	0	0	0	565	439	0	480	0	0	
1	0	0	0	0	567	448	0	493	0	0	
2	0	0	0	0	568	461	0	503	0	0	
3	0	0	0	0	568	478	0	510	0	0	
4	0	0	0	0	566	496	0	513	0	0	
5	0	0	0	0	563	513	0	512	0	0	
6	0	0	0	0	560	529	0	505	0	0	
7	0	0	0	0	556	541	0	496	0	0	
8	0	0	0	0	552	548	0	483	0	0	
9	0	0	0	0	548	550	0	468	0	0	
10	0	0	0	0	545	546	0	454	0	0	
11	0	0	0	0	543	537	0	440	0	0	
12	0	0	0	0	542	523	0	429	0	0	
13	0	0	0	0	542	506	0	421	0	0	
14	0	0	0	0	543	488	0	417	0	0	
15	0	0	0	0	544	470	0	418	0	0	
0	0	0	0	0	547	454	0	423	0	0	
1	0	0	0	0	551	441	0	432	0	0	
2	0	0	0	0	554	434	0	445	0	0	
3	0	0	0	0	557	432	0	459	0	0	
4	0	0	0	0	560	436	0	473	0	0	
5	0	0	0	0	561	445	0	486	0	0	
6	0	0	0	0	563	459	0	496	0	0	
7	0	0	0	0	563	476	0	504	0	0	
8	0	0	0	0	562	495	0	508	0	0	
9	0	0	0	0	560	512	0	507	0	0	
10	0	0	0	0	556	529	0	501	0	0	
11	0	0	0	0	553	542	0	492	0	0	
12	0	0	0	0	550	549	0	480	0	0	
13	0	0	0	0	546	551	0	466	0	0	
14	0	0	0	0	543	547	0	452	0	0	
15	0	0	0	0	541	537	0	439	0	0	
0	0	0	0	0	540	523	0	428	0	0	
1	0	0	0	0	541	506	0	420	0	0	
2	0	0	0	0	542	487	0	417	0	0	
3	0	0	0	0	543	469	0	417	0	0	
4	0	0	0	0	546	452	0	422	0	0	
5	0	0	0	0	550	440	0	431	0	0	
6	0	0	0	0	553	432	0	443	0	0	
7	0	0	0	0	555	430	0	456	0	0	
8	0	0	0	0	556	434	0	470	0	0	
9	0	0	0	0	557	443	0	482	0	0	
10	0	0	0	0	558	457	0	492	0	0	
11	0	0	0	0	558	474	0	500	0	0	
12	0	0	0	0	556	492	0	504	0	0	
13	0	0	0	0	552	510	0	503	0	0	
14	0	0	0	0	549	526	0	497	0	0	
15	0	0	0	0	546	537	0	488	0	0	
0	0	0	0	0	542	544	0	477	0	0	
1	0	0	0	0	539	545	0	464	0	0	
2	0	0	0	0	537	540	0	450	0	0	
3	0	0	0	0	535	531	0	437	0	0	
4	0	0	0	0	535	516	0	427	0	0	
5	0	0	0	0	535	499	0	420	0	0	
6	0	0	0	0	537	481	0	417	0	0	
7	0	0	0	0	540	463	0	419	0	0	
8	0	0	0	0	543	448	0	424	0	0	
9	0	0	0	0	547	437	0	434	0	0	
10	0	0	0	0	551	431	0	447	0	0	
11	0	0	0	0	555	431	0	462	0	0	
12	0	0	0	0	559	435	0	476	0	0	
13	0	0	0	0	561	446	0	489	0	0	
14	0	0	0	0	563	462	0	500	0	0	
15	0	0	0	0	563	479	0	508	0	0	
0	0	0	0	0	563	499	0	511	0	0	
1	0	0	0	0	561	517	0	510	0	0	
2	0	0	0	0	557	534	0	503	0	0	
3	0	0	0	0	554	546	0	493	0	0	
4	0	0	0	0	550	553	0	480	0	0	
5	0	0	0	0	546	553	0	465	0	0	
6	0	0	0	0	543	549	0	451	0	0	
7	0	0	0	0	540	538	0	438	0	0	
8	0	0	0	0	539	524	0	427	0	0	
9	0	0	0	0	537	506	0	419	0	0	
10	0	0	0	0	539	487	0	416	0	0	
11	0	0	0	0	540	469	0	417	0	0	
12	0	0	0	0	543	453	0	423	0	0	
13	0	0	0	0	547	441	0	433	0	0	
14	0	0	0	0	551	434	0	446	0	0	
15	0	0	0	0	554	432	0	460	0	0	
0	0	0	0	0	557	436	0	474	0	0	
1	0	0	0	0	559	446	0	487	0	0	
2	0	0	0	0	561	460	0	499	0	0	
3	0	0	0	0	562	478	0	506	0	0	
4	0	0	0	0	562	497	0	510	0	0	
5	0	0	0	0	560	515	0	508	0	0	
6	0	0	0	0	556	531	0	502	0	0	
7	0	0	0	0	554	543	0	492	0	0	
8	0	0	0	0	550	551	0	480	0	0	
9	0	0	0	0	546	551	0	465	0	0	
10	0	0	0	0	543	547	0	451	0	0	
11	0	0	0	0	540	538	0	437	0	0	
12	0	0	0	0	540	524	0	426	0	0	
13	0	0	0	0	539	507	0	418	0	0	
14	0	0	0	0	540	488	0	414	0	0	
15	0	0	0	0	542	470	0	415	0	0	
0	0	0	0	0	545	454	0	421	0	0	
1	0	0	0	0	550	442	0	431	0	0	
2	0	0	0	0	553	435	0	444	0	0	
3	0	0	0	0	558	434	0	458	0	0	
4	0	0	0	0	561	438	0	473	0	0	
5	0	0	0	0	564	448	0	486	0	0	
6	0	0	0	0	567	462	0	498	0	0	
7	0	0	0	0	567	479	0	506	0	0	
8	0	0	0	0	567	497	0	509	0	0	
9	0	0	0	0	563	514	0	508	0	0	
10	0	0	0	0	561	530	0	502	0	0	
11	0	0	0	0	558	542	0	493	0	0	
12	0	0	0	0	553	548	0	480	0	0	
13	0	0	0	0	550	549	0	466	0	0	
14	0	0	0	0	547	544	0	451	0	0	
15	0	0	0	0	544	534	0	438	0	0	
0	0	0	0	0	542	520	0	427	0	0	
1	0	0	0	0	542	503	0	419	0	0	
2	0	0	0	0	542	484	0	416	0	0	
3	0	0	0	0	543	466	0	416	0	0	
4	0	0	0	0	544	450	0	422	0	0	
5	0	0	0	0	548	438	0	431	0	0	
6	0	0	0	0	551	431	0	443	0	0	
7	0	0	0	0	553	429	0	456	0	0	
8	0	0	0	0	555	433	0	470	0	0	
9	0	0	0	0	556	443	0	483	0	0	
10	0	0	0	0	558	457	0	494	0	0	
11	0	0	0	0	558	474	0	502	0	0	
12	0	0	0	0	557	492	0	506	0	0	
13	0	0	0	0	555	510	0	505	0	0	
14	0	0	0	0	552	526	0	499	0	0	
15	0	0	0	0	550	538	0	491	0	0	
0	0	0	0	0	548	545	0	479	0	0	
1	0	0	0	0	545	547	0	466	0	0	
2	0	0	0	0	544	543	0	452	0	0	
3	0	0	0	0	542	534	0	439	0	0	
4	0	0	0	0	542	520	0	428	0	0	
5	0	0	0	0	542	503	0	421	0	0	
6	0	0	0	0	543	485	0	417	0	0	
7	0	0	0	0	544	467	0	419	0	0	
8	0	0	0	0	547	451	0	423	0	0	
9	0	0	0	0	550	439	0	433	0	0	
10	0	0	0	0	553	433	0	445	0	0	
11	0	0	0	0	555	432	0	459	0	0	
12	0	0	0	0	557	436	0	473	0	0	
13	0	0	0	0	559	447	0	486	0	0	
14	0	0	0	0	560	462	0	497	0	0	
15	0	0	0	0	560	480	0	504	0	0	
0	0	0	0	0	559	499	0	508	0	0	
1	0	0	0	0	557	518	0	508	0	0	
2	0	0	0	0	554	535	0	502	0	0	
3	0	0	0	0	552	548	0	493	0	0	
4	0	0	0	0	549	555	0	481	0	0	
5	0	0	0	0	547	556	0	467	0	0	
6	0	0	0	0	545	551	0	452	0	0	
7	0	0	0	0	543	541	0	439	0	0	
8	0	0	0	0	543	526	0	428	0	0	
9	0	0	0	0	543	508	0	420	0	0	
10	0	0	0	0	544	488	0	416	0	0	
11	0	0	0	0	546	470	0	417	0	0	
12	0	0	0	0	548	453	0	422	0	0	
13	0	0	0	0	552	440	0	432	0	0	
14	0	0	0	0	556	432	0	444	0	0	
15	0	0	0	0	559	431	0	457	0	0	
0	0	0	0	0	561	435	0	472	0	0	
1	0	0	0	0	563	445	0	485	0	0	
2	0	0	0	0	564	459	0	497	0	0	
3	0	0	0	0	564	477	0	505	0	0	
4	0	0	0	0	563	496	0	508	0	0	
5	0	0	0	0	560	515	0	508	0	0	
6	0	0	0	0	556	531	0	501	0	0	
7	0	0	0	0	553	544	0	492	0	0	
8	0	0	0	0	549	551	0	479	0	0	
9	0	0	0	0	545	552	0	464	0	0	
10	0	0	0	0	540	547	0	450	0	0	
11	0	0	0	0	537	537	0	436	0	0	
12	0	0	0	0	536	521	0	424	0	0	
13	0	0	0	0	535	504	0	416	0	0	
14	0	0	0	0	535	484	0	412	0	0	
15	0	0	0	0	536	466	0	413	0	0	
0	0	0	0	0	538	449	0	418	0	0	
1	0	0	0	0	542	437	0	428	0	0	
2	0	0	0	0	545	430	0	440	0	0	
3	0	0	0	0	549	429	0	454	0	0	
4	0	0	0	0	552	433	0	468	0	0	
5	0	0	0	0	554	444	0	481	0	0	
6	0	0	0	0	557	458	0	492	0	0	
7	0	0	0	0	559	476	0	500	0	0	
8	0	0	0	0	558	494	0	504	0	0	
9	0	0	0	0	557	512	0	502	0	0	
10	0	0	0	0	555	528	0	497	0	0	
11	0	0	0	0	552	541	0	487	0	0	
12	0	0	0	0	549	548	0	475	0	0	
13	0	0	0	0	545	549	0	461	0	0	
14	0	0	0	0	542	543	0	446	0	0	
15	0	0	0	0	539	533	0	433	0	0	
0	0	0	0	0	536	518	0	421	0	0	
1	0	0	0	0	536	500	0	413	0	0	
2	0	0	0	0	535	480	0	409	0	0	
3	0	0	0	0	536	461	0	409	0	0	
4	0	0	0	0	537	444	0	414	0	0	
5	0	0	0	0	540	430	0	423	0	0	
6	0	0	0	0	543	422	0	435	0	0	
7	0	0	0	0	545	420	0	449	0	0	
8	0	0	0	0	547	424	0	463	0	0	
9	0	0	0	0	548	434	0	476	0	0	
10	0	0	0	0	551	448	0	487	0	0	
11	0	0	0	0	551	466	0	495	0	0	
12	0	0	0	0	551	486	0	499	0	0	
13	0	0	0	0	549	505	0	498	0	0	
14	0	0	0	0	547	522	0	493	0	0	
15	0	0	0	0	545	536	0	485	0	0	
0	0	0	0	0	543	543	0	473	0	0	
1	0	0	0	0	540	546	0	460	0	0	
2	0	0	0	0	539	542	0	447	0	0	
3	0	0	0	0	536	532	0	435	0	0	
4	0	0	0	0	536	518	0	425	0	0	
5	0	0	0	0	536	500	0	417	0	0	
6	0	0	0	0	537	481	0	414	0	0	
7	0	0	0	0	539	462	0	415	0	0	
8	0	0	0	0	542	445	0	420	0	0	
9	0	0	0	0	544	432	0	429	0	0	
10	0	0	0	0	547	424	0	441	0	0	
11	0	0	0	0	550	422	0	454	0	0	
12	0	0	0	0	552	425	0	467	0	0	
13	0	0	0	0	554	434	0	480	0	0	
14	0	0	0	0	555	448	0	491	0	0	
15	0	0	0	0	554	464	0	497	0	0	
0	0	0	0	0	552	483	0	501	0	0	
1	0	0	0	0	550	502	0	500	0	0	
2	0	0	0	0	546	518	0	494	0	0	
3	0	0	0	0	543	530	0	485	0	0	
4	0	0	0	0	540	538	0	473	0	0	
5	0	0	0	0	538	540	0	460	0	0	
6	0	0	0	0	536	536	0	446	0	0	
7	0	0	0	0	534	526	0	433	0	0	
8	0	0	0	0	534	512	0	423	0	0	
9	0	0	0	0	534	495	0	415	0	0	
10	0	0	0	0	536	476	0	412	0	0	
11	0	0	0	0	537	458	0	413	0	0	
12	0	0	0	0	541	442	0	418	0	0	
13	0	0	0	0	544	430	0	427	0	0	
14	0	0	0	0	547	423	0	439	0	0	
15	0	0	0	0	550	420	0	452	0	0	
0	0	0	0	0	551	424	0	466	0	0	
1	0	0	0	0	554	434	0	479	0	0	
2	0	0	0	0	555	448	0	489	0	0	
3	0	0	0	0	554	464	0	497	0	0	
4	0	0	0	0	552	483	0	500	0	0	
5	0	0	0	0	549	500	0	499	0	0	
6	0	0	0	0	546	516	0	494	0	0	
7	0	0	0	0	542	528	0	484	0	0	
8	0	0	0	0	538	535	0	473	0	0	
9	0	0	0	0	535	536	0	460	0	0	
10	0	0	0	0	531	532	0	447	0	0	
11	0	0	0	0	530	522	0	434	0	0	
12	0	0	0	0	530	509	0	425	0	0	
13	0	0	0	0	530	492	0	418	0	0	
14	0	0	0	0	532	475	0	416	0	0	
15	0	0	0	0	535	457	0	418	0	0	
0	0	0	0	0	539	442	0	424	0	0	
1	0	0	0	0	543	430	0	434	0	0	
2	0	0	0	0	547	424	0	446	0	0	
3	0	0	0	0	550	423	0	460	0	0	
4	0	0	0	0	552	428	0	473	0	0	
5	0	0	0	0	555	438	0	486	0	0	
6	0	0	0	0	556	452	0	496	0	0	
7	0	0	0	0	556	469	0	503	0	0	
8	0	0	0	0	554	487	0	505	0	0	
9	0	0	0	0	552	505	0	503	0	0	
10	0	0	0	0	549	521	0	497	0	0	
11	0	0	0	0	545	534	0	487	0	0	
12	0	0	0	0	542	541	0	475	0	0	
13	0	0	0	0	539	543	0	461	0	0	
14	0	0	0	0	536	538	0	448	0	0	
15	0	0	0	0	536	529	0	435	0	0	
0	0	0	0	0	535	515	0	425	0	0	
1	0	0	0	0	536	499	0	419	0	0	
2	0	0	0	0	537	480	0	417	0	0	
3	0	0	0	0	539	463	0	419	0	0	
4	0	0	0	0	543	448	0	426	0	0	
5	0	0	0	0	547	436	0	436	0	0	
6	0	0	0	0	551	430	0	448	0	0	
7	0	0	0	0	554	429	0	462	0	0	
8	0	0	0	0	556	434	0	476	0	0	
9	0	0	0	0	560	444	0	489	0	0	
10	0	0	0	0	560	459	0	499	0	0	
11	0	0	0	0	561	477	0	505	0	0	
12	0	0	0	0	560	496	0	508	0	0	
13	0	0	0	0	557	515	0	505	0	0	
14	0	0	0	0	554	531	0	499	0	0	
15	0	0	0	0	551	542	0	489	0	0	
0	0	0	0	0	547	549	0	476	0	0	
1	0	0	0	0	543	550	0	463	0	0	
2	0	0	0	0	541	545	0	448	0	0	
3	0	0	0	0	540	534	0	436	0	0	
4	0	0	0	0	538	519	0	425	0	0	
5	0	0	0	0	538	501	0	418	0	0	
6	0	0	0	0	539	481	0	416	0	0	
7	0	0	0	0	541	462	0	418	0	0	
8	0	0	0	0	544	446	0	423	0	0	
9	0	0	0	0	548	433	0	433	0	0	
10	0	0	0	0	551	426	0	446	0	0	
11	0	0	0	0	555	424	0	460	0	0	
12	0	0	0	0	558	428	0	474	0	0	
13	0	0	0	0	560	438	0	487	0	0	
14	0	0	0	0	561	452	0	497	0	0	
15	0	0	0	0	560	470	0	504	0	0	
0	0	0	0	0	558	488	0	506	0	0	
1	0	0	0	0	555	506	0	504	0	0	
2	0	0	0	0	551	522	0	496	0	0	
3	0	0	0	0	547	534	0	486	0	0	
4	0	0	0	0	541	541	0	472	0	0	
5	0	0	0	0	537	542	0	457	0	0	
6	0	0	0	0	533	537	0	443	0	0	
7	0	0	0	0	531	527	0	430	0	0	
8	0	0	0	0	530	513	0	419	0	0	
9	0	0	0	0	530	496	0	412	0	0	
10	0	0	0	0	531	478	0	409	0	0	
11	0	0	0	0	533	460	0	411	0	0	
12	0	0	0	0	537	445	0	417	0	0	
13	0	0	0	0	541	433	0	428	0	0	
14	0	0	0	0	544	427	0	440	0	0	
15	0	0	0	0	548	425	0	455	0	0	
0	0	0	0	0	551	430	0	470	0	0	
1	0	0	0	0	554	440	0	483	0	0	
2	0	0	0	0	555	454	0	495	0	0	
3	0	0	0	0	555	472	0	502	0	0	
4	0	0	0	0	554	490	0	505	0	0	
5	0	0	0	0	551	508	0	504	0	0	
6	0	0	0	0	548	524	0	497	0	0	
7	0	0	0	0	543	535	0	487	0	0	
8	0	0	0	0	539	541	0	473	0	0	
9	0	0	0	0	535	542	0	458	0	0	
10	0	0	0	0	531	536	0	443	0	0	
11	0	0	0	0	529	526	0	429	0	0	
12	0	0	0	0	527	511	0	417	0	0	
13	0	0	0	0	527	494	0	409	0	0	
14	0	0	0	0	527	475	0	406	0	0	
15	0	0	0	0	529	457	0	407	0	0	
0	0	0	0	0	532	442	0	413	0	0	
1	0	0	0	0	536	431	0	423	0	0	
2	0	0	0	0	541	425	0	436	0	0	
3	0	0	0	0	545	424	0	451	0	0	
4	0	0	0	0	548	430	0	466	0	0	
5	0	0	0	0	551	441	0	480	0	0	
6	0	0	0	0	554	456	0	492	0	0	
7	0	0	0	0	556	475	0	501	0	0	
8	0	0	0	0	556	494	0	505	0	0	
9	0	0	0	0	554	513	0	504	0	0	
10	0	0	0	0	552	529	0	499	0	0	
11	0	0	0	0	551	542	0	490	0	0	
12	0	0	0	0	548	549	0	478	0	0	
13	0	0	0	0	545	550	0	463	0	0	
14	0	0	0	0	542	545	0	450	0	0	
15	0	0	0	0	540	535	0	436	0	0	
0	0	0	0	0	540	520	0	426	0	0	
1	0	0	0	0	539	503	0	419	0	0	
2	0	0	0	0	540	484	0	415	0	0	
3	0	0	0	0	541	466	0	417	0	0	
4	0	0	0	0	543	451	0	423	0	0	
5	0	0	0	0	546	439	0	432	0	0	
6	0	0	0	0	550	432	0	444	0	0	
7	0	0	0	0	552	430	0	458	0	0	
8	0	0	0	0	554	435	0	472	0	0	
9	0	0	0	0	555	444	0	485	0	0	
10	0	0	0	0	557	458	0	496	0	0	
11	0	0	0	0	556	474	0	503	0	0	
12	0	0	0	0	554	492	0	505	0	0	
13	0	0	0	0	551	510	0	504	0	0	
14	0	0	0	0	547	524	0	496	0	0	
15	0	0	0	0	543	535	0	487	0	0	
0	0	0	0	0	539	541	0	473	0	0	
1	0	0	0	0	535	541	0	459	0	0	
2	0	0	0	0	531	535	0	444	0	0	
3	0	0	0	0	528	524	0	430	0	0	
4	0	0	0	0	526	509	0	419	0	0	
5	0	0	0	0	525	492	0	410	0	0	
6	0	0	0	0	525	472	0	406	0	0	
7	0	0	0	0	526	454	0	406	0	0	
8	0	0	0	0	528	437	0	411	0	0	
9	0	0	0	0	531	425	0	419	0	0	
10	0	0	0	0	534	417	0	432	0	0	
11	0	0	0	0	537	416	0	445	0	0	
12	0	0	0	0	540	420	0	459	0	0	
13	0	0	0	0	542	430	0	472	0	0	
14	0	0	0	0	543	444	0	483	0	0	
15	0	0	0	0	543	461	0	491	0	0	
0	0	0	0	0	543	480	0	495	0	0	
1	0	0	0	0	540	498	0	494	0	0	
2	0	0	0	0	537	515	0	488	0	0	
3	0	0	0	0	535	527	0	479	0	0	
4	0	0	0	0	531	535	0	467	0	0	
5	0	0	0	0	528	536	0	453	0	0	
6	0	0	0	0	526	531	0	439	0	0	
7	0	0	0	0	523	522	0	426	0	0	
8	0	0	0	0	522	507	0	415	0	0	
9	0	0	0	0	521	490	0	407	0	0	
10	0	0	0	0	522	472	0	404	0	0	
11	0	0	0	0	524	454	0	406	0	0	
12	0	0	0	0	527	438	0	411	0	0	
13	0	0	0	0	531	427	0	421	0	0	
14	0	0	0	0	534	420	0	433	0	0	
15	0	0	0	0	538	420	0	448	0	0	
0	0	0	0	0	541	426	0	462	0	0	
1	0	0	0	0	544	437	0	476	0	0	
2	0	0	0	0	547	452	0	487	0	0	
3	0	0	0	0	548	471	0	495	0	0	
4	0	0	0	0	548	490	0	498	0	0	
5	0	0	0	0	547	509	0	497	0	0	
6	0	0	0	0	544	525	0	491	0	0	
7	0	0	0	0	542	537	0	482	0	0	
8	0	0	0	0	539	543	0	470	0	0	
9	0	0	0	0	536	544	0	456	0	0	
10	0	0	0	0	534	540	0	442	0	0	
11	0	0	0	0	532	529	0	430	0	0	
12	0	0	0	0	532	515	0	420	0	0	
13	0	0	0	0	532	498	0	413	0	0	
14	0	0	0	0	533	480	0	411	0	0	
15	0	0	0	0	535	463	0	413	0	0	
0	0	0	0	0	537	448	0	420	0	0	
1	0	0	0	0	541	437	0	430	0	0	
2	0	0	0	0	544	431	0	444	0	0	
3	0	0	0	0	548	431	0	458	0	0	
4	0	0	0	0	551	436	0	472	0	0	
5	0	0	0	0	552	447	0	486	0	0	
6	0	0	0	0	553	461	0	496	0	0	
7	0	0	0	0	554	479	0	504	0	0	
8	0	0	0	0	552	497	0	507	0	0	
9	0	0	0	0	551	515	0	504	0	0	
10	0	0	0	0	547	530	0	497	0	0	
11	0	0	0	0	545	541	0	487	0	0	
12	0	0	0	0	542	547	0	474	0	0	
13	0	0	0	0	539	546	0	459	0	0	
14	0	0	0	0	536	541	0	444	0	0	
15	0	0	0	0	534	529	0	430	0	0	
0	0	0	0	0	535	514	0	419	0	0	
1	0	0	0	0	534	496	0	412	0	0	
2	0	0	0	0	536	477	0	409	0	0	
3	0	0	0	0	538	459	0	411	0	0	
4	0	0	0	0	540	443	0	417	0	0	
5	0	0	0	0	544	431	0	427	0	0	
6	0	0	0	0	547	425	0	440	0	0	
7	0	0	0	0	550	424	0	455	0	0	
8	0	0	0	0	551	429	0	470	0	0	
9	0	0	0	0	553	440	0	483	0	0	
10	0	0	0	0	553	455	0	494	0	0	
11	0	0	0	0	553	473	0	501	0	0	
12	0	0	0	0	551	492	0	504	0	0	
13	0	0	0	0	549	510	0	502	0	0	
14	0	0	0	0	545	525	0	496	0	0	
15	0	0	0	0	542	536	0	485	0	0	
0	0	0	0	0	537	542	0	472	0	0	
1	0	0	0	0	534	542	0	458	0	0	
2	0	0	0	0	531	536	0	443	0	0	
3	0	0	0	0	527	524	0	430	0	0	
4	0	0	0	0	526	508	0	419	0	0	
5	0	0	0	0	525	489	0	411	0	0	
6	0	0	0	0	526	470	0	408	0	0	
7	0	0	0	0	527	451	0	409	0	0	
8	0	0	0	0	529	436	0	416	0	0	
9	0	0	0	0	534	424	0	426	0	0	
10	0	0	0	0	538	419	0	440	0	0	
11	0	0	0	0	542	419	0	455	0	0	
12	0	0	0	0	546	425	0	470	0	0	
13	0	0	0	0	550	436	0	483	0	0	
14	0	0	0	0	552	452	0	495	0	0	
15	0	0	0	0	554	471	0	503	0	0	
0	0	0	0	0	553	490	0	505	0	0	
1	0	0	0	0	552	508	0	504	0	0	
2	0	0	0	0	547	523	0	495	0	0	
3	0	0	0	0	543	534	0	483	0	0	
4	0	0	0	0	537	537	0	467	0	0	
5	0	0	0	0	530	534	0	448	0	0	
6	0	0	0	0	522	524	0	428	0	0	
7	0	0	0	0	514	508	0	408	0	0	
8	0	0	0	0	505	486	0	389	0	0	
9	0	0	0	0	496	460	0	373	0	0	
10	0	0	0	0	487	432	0	361	0	0	
11	0	0	0	0	478	404	0	352	0	0	
12	0	0	0	0	468	378	0	347	0	0	
13	0	0	0	0	460	355	0	345	0	0	
14	0	0	0	0	452	337	0	347	0	0	
15	0	0	0	0	443	324	0	350	0	0	
0	0	0	0	0	433	317	0	353	0	0	
1	0	0	0	0	423	316	0	356	0	0	
2	0	0	0	0	414	319	0	356	0	0	
3	0	0	0	0	402	325	0	353	0	0	
4	0	0	0	0	390	332	0	346	0	0	
5	0	0	0	0	376	339	0	334	0	0	
6	0	0	0	0	361	344	0	316	0	0	
7	0	0	0	0	346	345	0	295	0	0	
8	0	0	0	0	331	341	0	271	0	0	
9	0	0	0	0	316	331	0	244	0	0	
10	0	0	0	0	302	316	0	219	0	0	
11	0	0	0	0	290	297	0	195	0	0	
12	0	0	0	0	281	274	0	174	0	0	
13	0	0	0	0	275	250	0	159	0	0	
14	0	0	0	0	273	227	0	152	0	0	
15	0	0	0	0	276	207	0	152	0	0	
0	0	0	0	0	284	192	0	161	0	0	
1	0	0	0	0	296	184	0	179	0	0	
2	0	0	0	0	314	186	0	204	0	0	
3	0	0	0	0	335	197	0	236	0	0	
4	0	0	0	0	359	217	0	271	0	0	
5	0	0	0	0	385	247	0	309	0	0	
6	0	0	0	0	414	285	0	347	0	0	
7	0	0	0	0	443	328	0	384	0	0	
8	0	0	0	0	470	374	0	416	0	0	
9	0	0	0	0	494	420	0	443	0	0	
10	0	0	0	0	516	464	0	462	0	0	
11	0	0	0	0	536	502	0	476	0	0	
12	0	0	0	0	552	532	0	482	0	0	
13	0	0	0	0	564	552	0	483	0	0	
14	0	0	0	0	573	563	0	480	0	0	
15	0	0	0	0	578	564	0	474	0	0	
0	0	0	0	0	581	557	0	467	0	0	
1	0	0	0	0	582	543	0	460	0	0	
2	0	0	0	0	580	524	0	454	0	0	
3	0	0	0	0	578	503	0	451	0	0	
4	0	0	0	0	574	482	0	451	0	0	
5	0	0	0	0	571	463	0	454	0	0	
6	0	0	0	0	567	449	0	460	0	0	
7	0	0	0	0	563	441	0	467	0	0	
8	0	0	0	0	558	438	0	475	0	0	
9	0	0	0	0	554	442	0	483	0	0	
10	0	0	0	0	551	451	0	490	0	0	
11	0	0	0	0	548	465	0	495	0	0	
12	0	0	0	0	545	482	0	497	0	0	
13	0	0	0	0	543	499	0	496	0	0	
14	0	0	0	0	541	516	0	491	0	0	
15	0	0	0	0	540	529	0	483	0	0	
0	0	0	0	0	539	539	0	473	0	0	
1	0	0	0	0	539	543	0	462	0	0	
2	0	0	0	0	540	541	0	451	0	0	
3	0	0	0	0	541	534	0	440	0	0	
4	0	0	0	0	544	523	0	433	0	0	
5	0	0	0	0	546	508	0	428	0	0	
6	0	0	0	0	550	492	0	427	0	0	
7	0	0	0	0	553	475	0	430	0	0	
8	0	0	0	0	557	461	0	437	0	0	
9	0	0	0	0	560	450	0	447	0	0	
10	0	0	0	0	563	443	0	460	0	0	
11	0	0	0	0	566	442	0	473	0	0	
12	0	0	0	0	568	446	0	487	0	0	
13	0	0	0	0	568	455	0	499	0	0	
14	0	0	0	0	569	468	0	508	0	0	
15	0	0	0	0	568	485	0	515	0	0	
0	0	0	0	0	566	503	0	516	0	0	
1	0	0	0	0	562	520	0	515	0	0	
2	0	0	0	0	559	536	0	508	0	0	
3	0	0	0	0	555	547	0	497	0	0	
4	0	0	0	0	551	554	0	484	0	0	
5	0	0	0	0	547	555	0	470	0	0	
6	0	0	0	0	544	550	0	455	0	0	
7	0	0	0	0	543	540	0	442	0	0	
8	0	0	0	0	543	526	0	432	0	0	
9	0	0	0	0	543	509	0	425	0	0	
10	0	0	0	0	544	491	0	422	0	0	
11	0	0	0	0	547	473	0	424	0	0	
12	0	0	0	0	550	459	0	431	0	0	
13	0	0	0	0	555	447	0	440	0	0	
14	0	0	0	0	558	441	0	453	0	0	
15	0	0	0	0	561	440	0	467	0	0	
0	0	0	0	0	564	444	0	481	0	0	
1	0	0	0	0	566	454	0	494	0	0	
2	0	0	0	0	567	468	0	504	0	0	
3	0	0	0	0	566	485	0	511	0	0	
4	0	0	0	0	565	503	0	513	0	0	
5	0	0	0	0	562	520	0	512	0	0	
6	0	0	0	0	559	536	0	505	0	0	
7	0	0	0	0	556	547	0	496	0	0	
8	0	0	0	0	552	553	0	483	0	0	
9	0	0	0	0	549	555	0	469	0	0	
10	0	0	0	0	547	550	0	455	0	0	
11	0	0	0	0	544	539	0	441	0	0	
12	0	0	0	0	543	524	0	432	0	0	
13	0	0	0	0	543	507	0	424	0	0	
14	0	0	0	0	543	487	0	422	0	0	
15	0	0	0	0	545	469	0	424	0	0	
0	0	0	0	0	548	454	0	430	0	0	
1	0	0	0	0	551	442	0	440	0	0	
2	0	0	0	0	555	435	0	453	0	0	
3	0	0	0	0	557	435	0	467	0	0	
4	0	0	0	0	560	440	0	480	0	0	
5	0	0	0	0	562	450	0	492	0	0	
6	0	0	0	0	563	464	0	502	0	0	
7	0	0	0	0	563	481	0	508	0	0	
8	0	0	0	0	561	499	0	510	0	0	
9	0	0	0	0	558	517	0	508	0	0	
10	0	0	0	0	556	532	0	500	0	0	
11	0	0	0	0	552	543	0	489	0	0	
12	0	0	0	0	548	548	0	476	0	0	
13	0	0	0	0	544	548	0	462	0	0	
14	0	0	0	0	540	542	0	448	0	0	
15	0	0	0	0	538	532	0	435	0	0	
0	0	0	0	0	536	517	0	424	0	0	
1	0	0	0	0	536	499	0	417	0	0	
2	0	0	0	0	537	481	0	415	0	0	
3	0	0	0	0	539	463	0	417	0	0	
4	0	0	0	0	542	448	0	423	0	0	
5	0	0	0	0	546	437	0	434	0	0	
6	0	0	0	0	550	431	0	447	0	0	
7	0	0	0	0	553	430	0	461	0	0	
8	0	0	0	0	556	435	0	475	0	0	
9	0	0	0	0	559	446	0	487	0	0	
10	0	0	0	0	560	460	0	497	0	0	
11	0	0	0	0	560	477	0	504	0	0	
12	0	0	0	0	558	495	0	505	0	0	
13	0	0	0	0	555	512	0	503	0	0	
14	0	0	0	0	551	527	0	495	0	0	
15	0	0	0	0	547	539	0	484	0	0	
0	0	0	0	0	543	544	0	471	0	0	
1	0	0	0	0	539	544	0	456	0	0	
2	0	0	0	0	536	539	0	442	0	0	
3	0	0	0	0	534	528	0	428	0	0	
4	0	0	0	0	532	513	0	418	0	0	
5	0	0	0	0	532	496	0	410	0	0	
6	0	0	0	0	532	478	0	408	0	0	
7	0	0	0	0	534	460	0	410	0	0	
8	0	0	0	0	537	445	0	416	0	0	
9	0	0	0	0	541	434	0	427	0	0	
10	0	0	0	0	544	428	0	441	0	0	
11	0	0	0	0	548	428	0	456	0	0	
12	0	0	0	0	551	433	0	471	0	0	
13	0	0	0	0	554	445	0	485	0	0	
14	0	0	0	0	556	460	0	497	0	0	
15	0	0	0	0	557	479	0	504	0	0	
0	0	0	0	0	556	498	0	508	0	0	
1	0	0	0	0	555	516	0	507	0	0	
2	0	0	0	0	552	532	0	500	0	0	
3	0	0	0	0	549	543	0	490	0	0	
4	0	0	0	0	546	550	0	477	0	0	
5	0	0	0	0	543	551	0	463	0	0	
6	0	0	0	0	539	544	0	448	0	0	
7	0	0	0	0	537	534	0	434	0	0	
8	0	0	0	0	536	519	0	423	0	0	
9	0	0	0	0	536	500	0	415	0	0	
10	0	0	0	0	537	481	0	412	0	0	
11	0	0	0	0	539	463	0	414	0	0	
12	0	0	0	0	543	448	0	419	0	0	
13	0	0	0	0	547	436	0	429	0	0	
14	0	0	0	0	550	430	0	442	0	0	
15	0	0	0	0	554	429	0	456	0	0	
0	0	0	0	0	556	434	0	471	0	0	
1	0	0	0	0	559	444	0	483	0	0	
2	0	0	0	0	561	459	0	494	0	0	
3	0	0	0	0	561	477	0	501	0	0	
4	0	0	0	0	560	496	0	504	0	0	
5	0	0	0	0	556	513	0	502	0	0	
6	0	0	0	0	553	529	0	495	0	0	
7	0	0	0	0	549	541	0	484	0	0	
8	0	0	0	0	545	547	0	472	0	0	
9	0	0	0	0	541	548	0	457	0	0	
10	0	0	0	0	537	542	0	443	0	0	
11	0	0	0	0	535	531	0	430	0	0	
12	0	0	0	0	533	516	0	419	0	0	
13	0	0	0	0	532	499	0	413	0	0	
14	0	0	0	0	532	479	0	410	0	0	
15	0	0	0	0	534	461	0	412	0	0	
0	0	0	0	0	536	445	0	419	0	0	
1	0	0	0	0	540	432	0	428	0	0	
2	0	0	0	0	543	425	0	441	0	0	
3	0	0	0	0	545	424	0	455	0	0	
4	0	0	0	0	547	428	0	469	0	0	
5	0	0	0	0	548	438	0	481	0	0	
6	0	0	0	0	550	452	0	491	0	0	
7	0	0	0	0	549	469	0	498	0	0	
8	0	0	0	0	548	487	0	500	0	0	
9	0	0	0	0	545	504	0	497	0	0	
10	0	0	0	0	543	519	0	490	0	0	
11	0	0	0	0	540	531	0	479	0	0	
12	0	0	0	0	537	537	0	466	0	0	
13	0	0	0	0	534	538	0	451	0	0	
14	0	0	0	0	531	533	0	436	0	0	
15	0	0	0	0	529	523	0	423	0	0	
0	0	0	0	0	528	508	0	412	0	0	
1	0	0	0	0	528	491	0	404	0	0	
2	0	0	0	0	529	473	0	402	0	0	
3	0	0	0	0	531	455	0	404	0	0	
4	0	0	0	0	534	440	0	410	0	0	
5	0	0	0	0	537	429	0	421	0	0	
6	0	0	0	0	540	422	0	435	0	0	
7	0	0	0	0	543	422	0	450	0	0	
8	0	0	0	0	546	428	0	465	0	0	
9	0	0	0	0	548	439	0	478	0	0	
10	0	0	0	0	550	454	0	489	0	0	
11	0	0	0	0	550	472	0	497	0	0	
12	0	0	0	0	549	491	0	501	0	0	
13	0	0	0	0	548	510	0	500	0	0	
14	0	0	0	0	545	526	0	494	0	0	
15	0	0	0	0	543	538	0	484	0	0	
0	0	0	0	0	539	545	0	471	0	0	
1	0	0	0	0	536	546	0	457	0	0	
2	0	0	0	0	534	542	0	444	0	0	
3	0	0	0	0	532	532	0	430	0	0	
4	0	0	0	0	532	518	0	420	0	0	
5	0	0	0	0	532	501	0	412	0	0	
6	0	0	0	0	534	483	0	409	0	0	
7	0	0	0	0	537	466	0	412	0	0	
8	0	0	0	0	540	450	0	417	0	0	
9	0	0	0	0	544	439	0	427	0	0	
10	0	0	0	0	548	432	0	440	0	0	
11	0	0	0	0	551	431	0	454	0	0	
12	0	0	0	0	554	435	0	468	0	0	
13	0	0	0	0	555	445	0	481	0	0	
14	0	0	0	0	557	459	0	491	0	0	
15	0	0	0	0	556	476	0	498	0	0	
0	0	0	0	0	556	495	0	501	0	0	
1	0	0	0	0	553	512	0	499	0	0	
2	0	0	0	0	550	527	0	492	0	0	
3	0	0	0	0	548	540	0	482	0	0	
4	0	0	0	0	544	546	0	470	0	0	
5	0	0	0	0	542	547	0	455	0	0	
6	0	0	0	0	539	543	0	441	0	0	
7	0	0	0	0	537	532	0	429	0	0	
8	0	0	0	0	537	518	0	419	0	0	
9	0	0	0	0	536	500	0	412	0	0	
10	0	0	0	0	537	483	0	409	0	0	
11	0	0	0	0	538	465	0	411	0	0	
12	0	0	0	0	541	449	0	416	0	0	
13	0	0	0	0	543	438	0	426	0	0	
14	0	0	0	0	546	431	0	439	0	0	
15	0	0	0	0	548	430	0	452	0	0	
0	0	0	0	0	550	435	0	466	0	0	
1	0	0	0	0	551	444	0	479	0	0	
2	0	0	0	0	552	459	0	488	0	0	
3	0	0	0	0	551	476	0	495	0	0	
4	0	0	0	0	550	494	0	497	0	0	
5	0	0	0	0	547	511	0	495	0	0	
6	0	0	0	0	543	526	0	488	0	0	
7	0	0	0	0	541	536	0	478	0	0	
8	0	0	0	0	537	542	0	464	0	0	
9	0	0	0	0	534	543	0	451	0	0	
10	0	0	0	0	532	537	0	437	0	0	
11	0	0	0	0	529	526	0	424	0	0	
12	0	0	0	0	530	511	0	415	0	0	
13	0	0	0	0	530	493	0	408	0	0	
14	0	0	0	0	531	474	0	406	0	0	
15	0	0	0	0	532	455	0	408	0	0	
0	0	0	0	0	535	440	0	415	0	0	
1	0	0	0	0	539	428	0	425	0	0	
2	0	0	0	0	542	423	0	438	0	0	
3	0	0	0	0	545	422	0	452	0	0	
4	0	0	0	0	547	427	0	467	0	0	
5	0	0	0	0	548	438	0	479	0	0	
6	0	0	0	0	550	452	0	489	0	0	
7	0	0	0	0	549	470	0	496	0	0	
8	0	0	0	0	547	489	0	498	0	0	
9	0	0	0	0	545	507	0	495	0	0	
10	0	0	0	0	541	522	0	487	0	0	
11	0	0	0	0	537	534	0	477	0	0	
12	0	0	0	0	534	540	0	464	0	0	
13	0	0	0	0	531	540	0	450	0	0	
14	0	0	0	0	528	535	0	436	0	0	
15	0	0	0	0	526	524	0	423	0	0	
0	0	0	0	0	526	509	0	413	0	0	
1	0	0	0	0	526	491	0	407	0	0	
2	0	0	0	0	528	472	0	404	0	0	
3	0	0	0	0	530	454	0	408	0	0	
4	0	0	0	0	534	440	0	414	0	0	
5	0	0	0	0	539	429	0	425	0	0	
6	0	0	0	0	543	423	0	439	0	0	
7	0	0	0	0	547	424	0	455	0	0	
8	0	0	0	0	551	431	0	470	0	0	
9	0	0	0	0	553	442	0	483	0	0	
10	0	0	0	0	556	458	0	494	0	0	
11	0	0	0	0	557	476	0	501	0	0	
12	0	0	0	0	556	496	0	504	0	0	
13	0	0	0	0	554	515	0	502	0	0	
14	0	0	0	0	551	530	0	495	0	0	
15	0	0	0	0	547	542	0	485	0	0	
0	0	0	0	0	544	548	0	472	0	0	
1	0	0	0	0	541	548	0	458	0	0	
2	0	0	0	0	538	543	0	444	0	0	
3	0	0	0	0	535	532	0	431	0	0	
4	0	0	0	0	535	517	0	420	0	0	
5	0	0	0	0	535	499	0	413	0	0	
6	0	0	0	0	536	480	0	410	0	0	
7	0	0	0	0	537	462	0	412	0	0	
8	0	0	0	0	540	446	0	418	0	0	
9	0	0	0	0	544	435	0	428	0	0	
10	0	0	0	0	547	429	0	441	0	0	
11	0	0	0	0	551	429	0	455	0	0	
12	0	0	0	0	554	435	0	470	0	0	
13	0	0	0	0	556	446	0	483	0	0	
14	0	0	0	0	558	461	0	494	0	0	
15	0	0	0	0	557	478	0	501	0	0	
0	0	0	0	0	557	497	0	504	0	0	
1	0	0	0	0	554	515	0	502	0	0	
2	0	0	0	0	550	530	0	496	0	0	
3	0	0	0	0	547	541	0	485	0	0	
4	0	0	0	0	542	547	0	472	0	0	
5	0	0	0	0	537	546	0	457	0	0	
6	0	0	0	0	533	539	0	442	0	0	
7	0	0	0	0	529	527	0	428	0	0	
8	0	0	0	0	528	511	0	416	0	0	
9	0	0	0	0	527	492	0	409	0	0	
10	0	0	0	0	527	472	0	405	0	0	
11	0	0	0	0	529	453	0	407	0	0	
12	0	0	0	0	531	438	0	412	0	0	
13	0	0	0	0	536	426	0	422	0	0	
14	0	0	0	0	540	420	0	435	0	0	
15	0	0	0	0	544	421	0	450	0	0	
0	0	0	0	0	547	427	0	464	0	0	
1	0	0	0	0	550	439	0	479	0	0	
2	0	0	0	0	553	456	0	490	0	0	
3	0	0	0	0	555	476	0	499	0	0	
4	0	0	0	0	555	496	0	502	0	0	
5	0	0	0	0	553	515	0	502	0	0	
6	0	0	0	0	550	532	0	496	0	0	
7	0	0	0	0	548	545	0	486	0	0	
8	0	0	0	0	545	551	0	474	0	0	
9	0	0	0	0	543	552	0	460	0	0	
10	0	0	0	0	540	547	0	447	0	0	
11	0	0	0	0	538	536	0	434	0	0	
12	0	0	0	0	538	521	0	424	0	0	
13	0	0	0	0	537	502	0	418	0	0	
14	0	0	0	0	538	483	0	415	0	0	
15	0	0	0	0	540	464	0	417	0	0	
0	0	0	0	0	542	448	0	424	0	0	
1	0	0	0	0	545	436	0	434	0	0	
2	0	0	0	0	548	430	0	447	0	0	
3	0	0	0	0	551	429	0	461	0	0	
4	0	0	0	0	552	434	0	475	0	0	
5	0	0	0	0	554	444	0	487	0	0	
6	0	0	0	0	554	459	0	496	0	0	
7	0	0	0	0	553	477	0	502	0	0	
8	0	0	0	0	551	495	0	504	0	0	
9	0	0	0	0	548	512	0	501	0	0	
10	0	0	0	0	544	529	0	494	0	0	
11	0	0	0	0	542	540	0	483	0	0	
12	0	0	0	0	539	546	0	470	0	0	
13	0	0	0	0	536	547	0	455	0	0	
14	0	0	0	0	534	541	0	441	0	0	
15	0	0	0	0	532	530	0	428	0	0	
0	0	0	0	0	532	514	0	417	0	0	
1	0	0	0	0	532	496	0	411	0	0	
2	0	0	0	0	534	477	0	408	0	0	
3	0	0	0	0	536	459	0	410	0	0	
4	0	0	0	0	539	443	0	416	0	0	
5	0	0	0	0	543	431	0	426	0	0	
6	0	0	0	0	546	424	0	439	0	0	
7	0	0	0	0	548	423	0	452	0	0	
8	0	0	0	0	550	428	0	467	0	0	
9	0	0	0	0	551	439	0	479	0	0	
10	0	0	0	0	552	454	0	489	0	0	
11	0	0	0	0	551	472	0	496	0	0	
12	0	0	0	0	549	490	0	497	0	0	
13	0	0	0	0	546	509	0	495	0	0	
14	0	0	0	0	543	524	0	488	0	0	
15	0	0	0	0	539	536	0	478	0	0	
0	0	0	0	0	535	542	0	466	0	0	
1	0	0	0	0	531	542	0	451	0	0	
2	0	0	0	0	529	536	0	438	0	0	
3	0	0	0	0	526	525	0	424	0	0	
4	0	0	0	0	526	510	0	414	0	0	
5	0	0	0	0	526	492	0	408	0	0	
6	0	0	0	0	528	473	0	405	0	0	
7	0	0	0	0	530	455	0	407	0	0	
8	0	0	0	0	533	439	0	414	0	0	
9	0	0	0	0	536	428	0	424	0	0	
10	0	0	0	0	539	422	0	436	0	0	
11	0	0	0	0	542	422	0	451	0	0	
12	0	0	0	0	545	428	0	465	0	0	
13	0	0	0	0	546	439	0	477	0	0	
14	0	0	0	0	547	454	0	487	0	0	
15	0	0	0	0	547	472	0	494	0	0	
0	0	0	0	0	546	491	0	496	0	0	
1	0	0	0	0	544	508	0	494	0	0	
2	0	0	0	0	540	524	0	487	0	0	
3	0	0	0	0	538	535	0	476	0	0	
4	0	0	0	0	535	540	0	463	0	0	
5	0	0	0	0	532	540	0	449	0	0	
6	0	0	0	0	530	534	0	435	0	0	
7	0	0	0	0	528	523	0	423	0	0	
8	0	0	0	0	527	508	0	414	0	0	
9	0	0	0	0	527	489	0	407	0	0	
10	0	0	0	0	529	471	0	406	0	0	
11	0	0	0	0	531	453	0	408	0	0	
12	0	0	0	0	535	438	0	414	0	0	
13	0	0	0	0	539	427	0	425	0	0	
14	0	0	0	0	542	421	0	439	0	0	
15	0	0	0	0	545	420	0	453	0	0	
0	0	0	0	0	548	426	0	467	0	0	
1	0	0	0	0	549	436	0	480	0	0	
2	0	0	0	0	551	452	0	491	0	0	
3	0	0	0	0	550	469	0	498	0	0	
4	0	0	0	0	549	488	0	500	0	0	
5	0	0	0	0	547	505	0	498	0	0	
6	0	0	0	0	543	520	0	491	0	0	
7	0	0	0	0	540	532	0	481	0	0	
8	0	0	0	0	537	537	0	468	0	0	
9	0	0	0	0	533	537	0	453	0	0	
10	0	0	0	0	529	531	0	439	0	0	
11	0	0	0	0	527	520	0	426	0	0	
12	0	0	0	0	527	505	0	416	0	0	
13	0	0	0	0	527	487	0	409	0	0	
14	0	0	0	0	527	469	0	408	0	0	
15	0	0	0	0	529	452	0	410	0	0	
0	0	0	0	0	532	437	0	417	0	0	
1	0	0	0	0	537	427	0	428	0	0	
2	0	0	0	0	540	422	0	441	0	0	
3	0	0	0	0	544	423	0	456	0	0	
4	0	0	0	0	547	429	0	471	0	0	
5	0	0	0	0	549	440	0	484	0	0	
6	0	0	0	0	551	456	0	496	0	0	
7	0	0	0	0	552	475	0	503	0	0	
8	0	0	0	0	551	495	0	505	0	0	
9	0	0	0	0	549	513	0	504	0	0	
10	0	0	0	0	547	529	0	497	0	0	
11	0	0	0	0	544	541	0	486	0	0	
12	0	0	0	0	541	547	0	473	0	0	
13	0	0	0	0	538	547	0	458	0	0	
14	0	0	0	0	535	542	0	443	0	0	
15	0	0	0	0	533	529	0	430	0	0	
0	0	0	0	0	533	514	0	419	0	0	
1	0	0	0	0	533	496	0	412	0	0	
2	0	0	0	0	534	477	0	409	0	0	
3	0	0	0	0	536	459	0	411	0	0	
4	0	0	0	0	538	443	0	417	0	0	
5	0	0	0	0	543	432	0	428	0	0	
6	0	0	0	0	546	425	0	441	0	0	
7	0	0	0	0	549	425	0	455	0	0	
8	0	0	0	0	551	430	0	470	0	0	
9	0	0	0	0	553	441	0	483	0	0	
10	0	0	0	0	554	455	0	493	0	0	
11	0	0	0	0	554	473	0	500	0	0	
12	0	0	0	0	553	492	0	502	0	0	
13	0	0	0	0	551	510	0	500	0	0	
14	0	0	0	0	547	525	0	493	0	0	
15	0	0	0	0	544	537	0	483	0	0	
0	0	0	0	0	541	543	0	470	0	0	
1	0	0	0	0	538	543	0	456	0	0	
2	0	0	0	0	536	537	0	442	0	0	
3	0	0	0	0	534	527	0	430	0	0	
4	0	0	0	0	534	512	0	419	0	0	
5	0	0	0	0	534	495	0	414	0	0	
6	0	0	0	0	536	477	0	412	0	0	
7	0	0	0	0	538	460	0	414	0	0	
8	0	0	0	0	541	446	0	421	0	0	
9	0	0	0	0	545	435	0	432	0	0	
10	0	0	0	0	548	430	0	446	0	0	
11	0	0	0	0	551	431	0	460	0	0	
12	0	0	0	0	554	437	0	474	0	0	
13	0	0	0	0	556	448	0	487	0	0	
14	0	0	0	0	557	463	0	497	0	0	
15	0	0	0	0	557	481	0	504	0	0	
0	0	0	0	0	556	500	0	506	0	0	
1	0	0	0	0	553	518	0	503	0	0	
2	0	0	0	0	550	532	0	496	0	0	
3	0	0	0	0	547	543	0	486	0	0	
4	0	0	0	0	543	548	0	472	0	0	
5	0	0	0	0	539	547	0	458	0	0	
6	0	0	0	0	537	541	0	444	0	0	
7	0	0	0	0	534	529	0	431	0	0	
8	0	0	0	0	533	513	0	421	0	0	
9	0	0	0	0	533	495	0	414	0	0	
10	0	0	0	0	534	476	0	412	0	0	
11	0	0	0	0	536	458	0	415	0	0	
12	0	0	0	0	539	443	0	421	0	0	
13	0	0	0	0	543	432	0	432	0	0	
14	0	0	0	0	546	426	0	444	0	0	
15	0	0	0	0	550	426	0	458	0	0	
0	0	0	0	0	552	431	0	472	0	0	
1	0	0	0	0	554	442	0	484	0	0	
2	0	0	0	0	555	457	0	494	0	0	
3	0	0	0	0	555	475	0	500	0	0	
4	0	0	0	0	554	494	0	503	0	0	
5	0	0	0	0	551	512	0	500	0	0	
6	0	0	0	0	547	527	0	493	0	0	
7	0	0	0	0	544	539	0	482	0	0	
8	0	0	0	0	540	545	0	469	0	0	
9	0	0	0	0	537	545	0	455	0	0	
10	0	0	0	0	534	539	0	440	0	0	
11	0	0	0	0	532	528	0	428	0	0	
12	0	0	0	0	531	513	0	417	0	0	
13	0	0	0	0	531	495	0	410	0	0	
14	0	0	0	0	531	476	0	408	0	0	
15	0	0	0	0	533	457	0	410	0	0	
0	0	0	0	0	536	442	0	416	0	0	
1	0	0	0	0	540	431	0	427	0	0	
2	0	0	0	0	543	425	0	440	0	0	
3	0	0	0	0	547	425	0	455	0	0	
4	0	0	0	0	549	430	0	470	0	0	
5	0	0	0	0	551	442	0	483	0	0	
6	0	0	0	0	553	457	0	493	0	0	
7	0	0	0	0	553	476	0	500	0	0	
8	0	0	0	0	553	495	0	503	0	0	
9	0	0	0	0	551	513	0	502	0	0	
10	0	0	0	0	548	529	0	495	0	0	
11	0	0	0	0	546	541	0	484	0	0	
12	0	0	0	0	543	547	0	471	0	0	
13	0	0	0	0	540	547	0	457	0	0	
14	0	0	0	0	538	541	0	443	0	0	
15	0	0	0	0	537	530	0	430	0	0	
0	0	0	0	0	536	515	0	419	0	0	
1	0	0	0	0	536	497	0	413	0	0	
2	0	0	0	0	536	478	0	410	0	0	
3	0	0	0	0	538	459	0	413	0	0	
4	0	0	0	0	540	444	0	419	0	0	
5	0	0	0	0	543	433	0	430	0	0	
6	0	0	0	0	546	428	0	443	0	0	
7	0	0	0	0	549	428	0	457	0	0	
8	0	0	0	0	551	434	0	472	0	0	
9	0	0	0	0	553	447	0	486	0	0	
10	0	0	0	0	555	463	0	497	0	0	
11	0	0	0	0	555	481	0	505	0	0	
12	0	0	0	0	554	501	0	508	0	0	
13	0	0	0	0	551	519	0	507	0	0	
14	0	0	0	0	549	536	0	500	0	0	
15	0	0	0	0	545	547	0	491	0	0	
0	0	0	0	0	542	553	0	478	0	0	
1	0	0	0	0	539	553	0	464	0	0	
2	0	0	0	0	536	546	0	450	0	0	
3	0	0	0	0	535	535	0	437	0	0	
4	0	0	0	0	534	519	0	427	0	0	
5	0	0	0	0	534	501	0	420	0	0	
6	0	0	0	0	535	482	0	417	0	0	
7	0	0	0	0	536	463	0	419	0	0	
8	0	0	0	0	540	448	0	425	0	0	
9	0	0	0	0	543	435	0	435	0	0	
10	0	0	0	0	546	429	0	448	0	0	
11	0	0	0	0	549	428	0	461	0	0	
12	0	0	0	0	551	432	0	475	0	0	
13	0	0	0	0	551	443	0	487	0	0	
14	0	0	0	0	553	457	0	496	0	0	
15	0	0	0	0	552	474	0	501	0	0	
0	0	0	0	0	550	492	0	502	0	0	
1	0	0	0	0	547	508	0	499	0	0	
2	0	0	0	0	543	523	0	490	0	0	
3	0	0	0	0	537	533	0	479	0	0	
4	0	0	0	0	533	538	0	465	0	0	
5	0	0	0	0	529	537	0	451	0	0	
6	0	0	0	0	525	531	0	436	0	0	
7	0	0	0	0	522	519	0	423	0	0	
8	0	0	0	0	521	504	0	412	0	0	
9	0	0	0	0	521	487	0	405	0	0	
10	0	0	0	0	523	468	0	403	0	0	
11	0	0	0	0	525	451	0	404	0	0	
12	0	0	0	0	529	436	0	411	0	0	
13	0	0	0	0	534	425	0	421	0	0	
14	0	0	0	0	538	420	0	434	0	0	
15	0	0	0	0	542	420	0	448	0	0	
0	0	0	0	0	546	427	0	463	0	0	
1	0	0	0	0	547	438	0	475	0	0	
2	0	0	0	0	548	453	0	484	0	0	
3	0	0	0	0	547	470	0	491	0	0	
4	0	0	0	0	545	489	0	492	0	0	
5	0	0	0	0	542	506	0	489	0	0	
6	0	0	0	0	538	521	0	482	0	0	
7	0	0	0	0	534	531	0	471	0	0	
8	0	0	0	0	529	536	0	458	0	0	
9	0	0	0	0	526	536	0	444	0	0	
10	0	0	0	0	524	531	0	430	0	0	
11	0	0	0	0	522	519	0	417	0	0	
12	0	0	0	0	523	505	0	407	0	0	
13	0	0	0	0	523	488	0	401	0	0	
14	0	0	0	0	526	470	0	400	0	0	
15	0	0	0	0	529	453	0	403	0	0	
0	0	0	0	0	533	438	0	411	0	0	
1	0	0	0	0	538	428	0	422	0	0	
2	0	0	0	0	542	422	0	436	0	0	
3	0	0	0	0	546	423	0	451	0	0	
4	0	0	0	0	549	430	0	467	0	0	
5	0	0	0	0	551	440	0	480	0	0	
6	0	0	0	0	552	456	0	490	0	0	
7	0	0	0	0	553	475	0	497	0	0	
8	0	0	0	0	551	494	0	500	0	0	
9	0	0	0	0	548	511	0	498	0	0	
10	0	0	0	0	545	527	0	491	0	0	
11	0	0	0	0	542	538	0	481	0	0	
12	0	0	0	0	538	544	0	468	0	0	
13	0	0	0	0	535	544	0	454	0	0	
14	0	0	0	0	533	538	0	440	0	0	
15	0	0	0	0	531	527	0	428	0	0	
0	0	0	0	0	530	513	0	417	0	0	
1	0	0	0	0	531	495	0	411	0	0	
2	0	0	0	0	532	477	0	408	0	0	
3	0	0	0	0	535	460	0	411	0	0	
4	0	0	0	0	538	445	0	417	0	0	
5	0	0	0	0	542	435	0	428	0	0	
6	0	0	0	0	546	430	0	440	0	0	
7	0	0	0	0	549	430	0	454	0	0	
8	0	0	0	0	552	436	0	468	0	0	
9	0	0	0	0	554	448	0	481	0	0	
10	0	0	0	0	556	463	0	492	0	0	
11	0	0	0	0	556	481	0	499	0	0	
12	0	0	0	0	556	500	0	502	0	0	
13	0	0	0	0	553	518	0	499	0	0	
14	0	0	0	0	550	532	0	493	0	0	
15	0	0	0	0	547	543	0	483	0	0	
0	0	0	0	0	543	548	0	470	0	0	
1	0	0	0	0	540	547	0	455	0	0	
2	0	0	0	0	536	539	0	441	0	0	
3	0	0	0	0	534	528	0	428	0	0	
4	0	0	0	0	533	512	0	417	0	0	
5	0	0	0	0	532	494	0	411	0	0	
6	0	0	0	0	533	475	0	408	0	0	
7	0	0	0	0	535	456	0	411	0	0	
8	0	0	0	0	537	441	0	417	0	0	
9	0	0	0	0	541	431	0	428	0	0	
10	0	0	0	0	544	426	0	440	0	0	
11	0	0	0	0	547	427	0	454	0	0	
12	0	0	0	0	550	433	0	469	0	0	
13	0	0	0	0	551	445	0	481	0	0	
14	0	0	0	0	553	461	0	492	0	0	
15	0	0	0	0	552	479	0	498	0	0	
0	0	0	0	0	551	499	0	501	0	0	
1	0	0	0	0	548	516	0	499	0	0	
2	0	0	0	0	544	532	0	492	0	0	
3	0	0	0	0	542	543	0	481	0	0	
4	0	0	0	0	538	549	0	468	0	0	
5	0	0	0	0	535	549	0	455	0	0	
6	0	0	0	0	533	543	0	440	0	0	
7	0	0	0	0	531	531	0	428	0	0	
8	0	0	0	0	531	516	0	418	0	0	
9	0	0	0	0	531	498	0	412	0	0	
10	0	0	0	0	533	479	0	409	0	0	
11	0	0	0	0	536	460	0	411	0	0	
12	0	0	0	0	538	445	0	417	0	0	
13	0	0	0	0	542	434	0	428	0	0	
14	0	0	0	0	546	428	0	441	0	0	
15	0	0	0	0	549	428	0	455	0	0	
0	0	0	0	0	551	434	0	470	0	0	
1	0	0	0	0	553	445	0	482	0	0	
2	0	0	0	0	555	461	0	493	0	0	
3	0	0	0	0	555	479	0	501	0	0	
4	0	0	0	0	554	498	0	504	0	0	
5	0	0	0	0	551	516	0	502	0	0	
6	0	0	0	0	547	531	0	495	0	0	
7	0	0	0	0	544	542	0	484	0	0	
8	0	0	0	0	540	546	0	470	0	0	
9	0	0	0	0	535	544	0	455	0	0	
10	0	0	0	0	530	536	0	438	0	0	
11	0	0	0	0	525	521	0	421	0	0	
12	0	0	0	0	519	502	0	406	0	0	
13	0	0	0	0	515	479	0	394	0	0	
14	0	0	0	0	509	454	0	385	0	0	
15	0	0	0	0	504	428	0	379	0	0	
0	0	0	0	0	498	405	0	376	0	0	
1	0	0	0	0	492	384	0	377	0	0	
2	0	0	0	0	485	368	0	380	0	0	
3	0	0	0	0	477	357	0	383	0	0	
4	0	0	0	0	468	351	0	385	0	0	
5	0	0	0	0	457	351	0	387	0	0	
6	0	0	0	0	447	354	0	386	0	0	
7	0	0	0	0	435	360	0	381	0	0	
8	0	0	0	0	420	367	0	372	0	0	
9	0	0	0	0	406	373	0	359	0	0	
10	0	0	0	0	390	376	0	340	0	0	
11	0	0	0	0	374	376	0	317	0	0	
12	0	0	0	0	358	370	0	292	0	0	
13	0	0	0	0	341	358	0	265	0	0	
14	0	0	0	0	325	340	0	239	0	0	
15	0	0	0	0	311	317	0	213	0	0	
0	0	0	0	0	298	291	0	190	0	0	
1	0	0	0	0	288	263	0	172	0	0	
2	0	0	0	0	281	235	0	160	0	0	
3	0	0	0	0	278	209	0	156	0	0	
4	0	0	0	0	278	189	0	158	0	0	
5	0	0	0	0	283	175	0	168	0	0	
6	0	0	0	0	292	170	0	186	0	0	
7	0	0	0	0	305	175	0	210	0	0	
8	0	0	0	0	321	190	0	238	0	0	
9	0	0	0	0	342	214	0	269	0	0	
10	0	0	0	0	365	247	0	301	0	0	
11	0	0	0	0	391	286	0	333	0	0	
12	0	0	0	0	416	329	0	362	0	0	
13	0	0	0	0	442	375	0	387	0	0	
14	0	0	0	0	467	419	0	408	0	0	
15	0	0	0	0	492	458	0	424	0	0	
0	0	0	0	0	513	491	0	435	0	0	
1	0	0	0	0	533	516	0	442	0	0	
2	0	0	0	0	549	532	0	446	0	0	
3	0	0	0	0	562	539	0	446	0	0	
4	0	0	0	0	573	538	0	446	0	0	
5	0	0	0	0	580	530	0	447	0	0	
6	0	0	0	0	585	518	0	448	0	0	
7	0	0	0	0	588	503	0	451	0	0	
8	0	0	0	0	588	487	0	457	0	0	
9	0	0	0	0	587	474	0	464	0	0	
10	0	0	0	0	584	464	0	473	0	0	
11	0	0	0	0	579	458	0	482	0	0	
12	0	0	0	0	575	458	0	491	0	0	
13	0	0	0	0	569	463	0	498	0	0	
14	0	0	0	0	564	473	0	504	0	0	
15	0	0	0	0	559	486	0	507	0	0	
0	0	0	0	0	554	501	0	506	0	0	
1	0	0	0	0	550	516	0	502	0	0	
2	0	0	0	0	545	530	0	494	0	0	
3	0	0	0	0	543	542	0	483	0	0	
4	0	0	0	0	541	548	0	471	0	0	
5	0	0	0	0	540	550	0	458	0	0	
6	0	0	0	0	541	546	0	445	0	0	
7	0	0	0	0	542	538	0	434	0	0	
8	0	0	0	0	544	526	0	425	0	0	
9	0	0	0	0	546	510	0	420	0	0	
10	0	0	0	0	550	494	0	420	0	0	
11	0	0	0	0	554	478	0	424	0	0	
12	0	0	0	0	557	464	0	432	0	0	
13	0	0	0	0	561	454	0	443	0	0	
14	0	0	0	0	564	448	0	457	0	0	
15	0	0	0	0	567	448	0	471	0	0	
0	0	0	0	0	568	453	0	485	0	0	
1	0	0	0	0	569	463	0	497	0	0	
2	0	0	0	0	569	477	0	507	0	0	
3	0	0	0	0	568	494	0	512	0	0	
4	0	0	0	0	567	511	0	514	0	0	
5	0	0	0	0	563	527	0	511	0	0	
6	0	0	0	0	559	542	0	503	0	0	
7	0	0	0	0	557	552	0	493	0	0	
8	0	0	0	0	553	557	0	479	0	0	
9	0	0	0	0	551	557	0	465	0	0	
10	0	0	0	0	549	551	0	451	0	0	
11	0	0	0	0	547	540	0	439	0	0	
12	0	0	0	0	548	526	0	430	0	0	
13	0	0	0	0	549	508	0	424	0	0	
14	0	0	0	0	551	490	0	423	0	0	
15	0	0	0	0	554	472	0	427	0	0	
0	0	0	0	0	558	458	0	435	0	0	
1	0	0	0	0	561	448	0	446	0	0	
2	0	0	0	0	565	442	0	460	0	0	
3	0	0	0	0	568	443	0	475	0	0	
4	0	0	0	0	569	449	0	489	0	0	
5	0	0	0	0	571	461	0	502	0	0	
6	0	0	0	0	572	476	0	511	0	0	
7	0	0	0	0	571	494	0	518	0	0	
8	0	0	0	0	568	513	0	519	0	0	
9	0	0	0	0	565	530	0	517	0	0	
10	0	0	0	0	562	545	0	510	0	0	
11	0	0	0	0	558	556	0	499	0	0	
12	0	0	0	0	554	560	0	485	0	0	
13	0	0	0	0	550	559	0	471	0	0	
14	0	0	0	0	547	552	0	456	0	0	
15	0	0	0	0	545	540	0	443	0	0	
0	0	0	0	0	544	524	0	433	0	0	
1	0	0	0	0	545	505	0	426	0	0	
2	0	0	0	0	546	487	0	424	0	0	
3	0	0	0	0	548	468	0	426	0	0	
4	0	0	0	0	552	453	0	433	0	0	
5	0	0	0	0	556	441	0	443	0	0	
6	0	0	0	0	559	435	0	456	0	0	
7	0	0	0	0	563	435	0	470	0	0	
8	0	0	0	0	565	440	0	484	0	0	
9	0	0	0	0	566	452	0	496	0	0	
10	0	0	0	0	567	467	0	505	0	0	
11	0	0	0	0	567	485	0	512	0	0	
12	0	0	0	0	565	504	0	513	0	0	
13	0	0	0	0	561	521	0	511	0	0	
14	0	0	0	0	558	537	0	503	0	0	
15	0	0	0	0	554	547	0	492	0	0	
0	0	0	0	0	550	553	0	479	0	0	
1	0	0	0	0	547	552	0	465	0	0	
2	0	0	0	0	544	546	0	451	0	0	
3	0	0	0	0	542	535	0	438	0	0	
4	0	0	0	0	541	520	0	428	0	0	
5	0	0	0	0	541	502	0	421	0	0	
6	0	0	0	0	543	483	0	419	0	0	
7	0	0	0	0	544	465	0	421	0	0	
8	0	0	0	0	547	450	0	428	0	0	
9	0	0	0	0	551	440	0	438	0	0	
10	0	0	0	0	555	434	0	451	0	0	
11	0	0	0	0	558	433	0	464	0	0	
12	0	0	0	0	559	439	0	478	0	0	
13	0	0	0	0	561	450	0	491	0	0	
14	0	0	0	0	562	465	0	500	0	0	
15	0	0	0	0	561	483	0	506	0	0	
0	0	0	0	0	559	501	0	508	0	0	
1	0	0	0	0	556	518	0	505	0	0	
2	0	0	0	0	552	533	0	498	0	0	
3	0	0	0	0	548	543	0	487	0	0	
4	0	0	0	0	545	549	0	473	0	0	
5	0	0	0	0	541	547	0	459	0	0	
6	0	0	0	0	539	541	0	444	0	0	
7	0	0	0	0	536	529	0	431	0	0	
8	0	0	0	0	535	514	0	420	0	0	
9	0	0	0	0	535	495	0	413	0	0	
10	0	0	0	0	536	476	0	411	0	0	
11	0	0	0	0	538	457	0	413	0	0	
12	0	0	0	0	540	441	0	419	0	0	
13	0	0	0	0	544	430	0	429	0	0	
14	0	0	0	0	547	424	0	442	0	0	
15	0	0	0	0	550	424	0	456	0	0	
0	0	0	0	0	553	431	0	471	0	0	
1	0	0	0	0	554	442	0	483	0	0	
2	0	0	0	0	555	458	0	494	0	0	
3	0	0	0	0	555	476	0	501	0	0	
4	0	0	0	0	554	495	0	504	0	0	
5	0	0	0	0	551	513	0	502	0	0	
6	0	0	0	0	548	528	0	496	0	0	
7	0	0	0	0	545	540	0	486	0	0	
8	0	0	0	0	543	545	0	473	0	0	
9	0	0	0	0	540	545	0	460	0	0	
10	0	0	0	0	539	539	0	446	0	0	
11	0	0	0	0	538	527	0	433	0	0	
12	0	0	0	0	538	512	0	423	0	0	
13	0	0	0	0	538	494	0	416	0	0	
14	0	0	0	0	540	475	0	414	0	0	
15	0	0	0	0	542	457	0	416	0	0	
0	0	0	0	0	544	442	0	422	0	0	
1	0	0	0	0	547	432	0	432	0	0	
2	0	0	0	0	550	426	0	444	0	0	
3	0	0	0	0	552	426	0	459	0	0	
4	0	0	0	0	555	433	0	472	0	0	
5	0	0	0	0	556	444	0	484	0	0	
6	0	0	0	0	557	460	0	494	0	0	
7	0	0	0	0	557	478	0	501	0	0	
8	0	0	0	0	556	496	0	503	0	0	
9	0	0	0	0	552	514	0	500	0	0	
10	0	0	0	0	550	529	0	494	0	0	
11	0	0	0	0	547	540	0	484	0	0	
12	0	0	0	0	544	545	0	472	0	0	
13	0	0	0	0	542	545	0	458	0	0	
14	0	0	0	0	540	539	0	444	0	0	
15	0	0	0	0	538	528	0	432	0	0	
0	0	0	0	0	537	513	0	422	0	0	
1	0	0	0	0	537	496	0	415	0	0	
2	0	0	0	0	538	477	0	413	0	0	
3	0	0	0	0	540	460	0	416	0	0	
4	0	0	0	0	542	445	0	422	0	0	
5	0	0	0	0	546	435	0	432	0	0	
6	0	0	0	0	548	429	0	445	0	0	
7	0	0	0	0	551	429	0	459	0	0	
8	0	0	0	0	552	435	0	472	0	0	
9	0	0	0	0	553	446	0	484	0	0	
10	0	0	0	0	555	461	0	494	0	0	
11	0	0	0	0	554	479	0	500	0	0	
12	0	0	0	0	552	497	0	502	0	0	
13	0	0	0	0	550	514	0	499	0	0	
14	0	0	0	0	546	528	0	492	0	0	
15	0	0	0	0	543	539	0	482	0	0	
0	0	0	0	0	539	543	0	469	0	0	
1	0	0	0	0	536	543	0	455	0	0	
2	0	0	0	0	533	536	0	441	0	0	
3	0	0	0	0	531	524	0	429	0	0	
4	0	0	0	0	530	508	0	419	0	0	
5	0	0	0	0	530	491	0	412	0	0	
6	0	0	0	0	531	472	0	410	0	0	
7	0	0	0	0	532	454	0	412	0	0	
8	0	0	0	0	536	440	0	419	0	0	
9	0	0	0	0	539	429	0	428	0	0	
10	0	0	0	0	542	424	0	441	0	0	
11	0	0	0	0	545	424	0	455	0	0	
12	0	0	0	0	547	430	0	468	0	0	
13	0	0	0	0	550	442	0	480	0	0	
14	0	0	0	0	551	457	0	489	0	0	
15	0	0	0	0	551	475	0	495	0	0	
0	0	0	0	0	549	492	0	497	0	0	
1	0	0	0	0	546	509	0	494	0	0	
2	0	0	0	0	543	524	0	487	0	0	
3	0	0	0	0	540	534	0	476	0	0	
4	0	0	0	0	537	539	0	463	0	0	
5	0	0	0	0	534	538	0	449	0	0	
6	0	0	0	0	531	531	0	435	0	0	
7	0	0	0	0	529	520	0	423	0	0	
8	0	0	0	0	528	505	0	413	0	0	
9	0	0	0	0	527	487	0	407	0	0	
10	0	0	0	0	528	469	0	404	0	0	
11	0	0	0	0	530	451	0	406	0	0	
12	0	0	0	0	532	437	0	413	0	0	
13	0	0	0	0	535	426	0	423	0	0	
14	0	0	0	0	538	421	0	436	0	0	
15	0	0	0	0	541	421	0	450	0	0	
0	0	0	0	0	543	427	0	464	0	0	
1	0	0	0	0	546	439	0	476	0	0	
2	0	0	0	0	548	454	0	486	0	0	
3	0	0	0	0	548	472	0	492	0	0	
4	0	0	0	0	548	491	0	495	0	0	
5	0	0	0	0	546	509	0	492	0	0	
6	0	0	0	0	544	525	0	486	0	0	
7	0	0	0	0	542	536	0	476	0	0	
8	0	0	0	0	539	542	0	463	0	0	
9	0	0	0	0	537	542	0	449	0	0	
10	0	0	0	0	535	536	0	436	0	0	
11	0	0	0	0	532	526	0	423	0	0	
12	0	0	0	0	532	511	0	414	0	0	
13	0	0	0	0	531	493	0	407	0	0	
14	0	0	0	0	532	475	0	405	0	0	
15	0	0	0	0	534	457	0	407	0	0	
0	0	0	0	0	536	442	0	413	0	0	
1	0	0	0	0	539	431	0	423	0	0	
2	0	0	0	0	542	425	0	436	0	0	
3	0	0	0	0	545	425	0	449	0	0	
4	0	0	0	0	547	430	0	463	0	0	
5	0	0	0	0	549	441	0	474	0	0	
6	0	0	0	0	550	455	0	484	0	0	
7	0	0	0	0	550	473	0	489	0	0	
8	0	0	0	0	548	490	0	491	0	0	
9	0	0	0	0	545	508	0	487	0	0	
10	0	0	0	0	543	522	0	481	0	0	
11	0	0	0	0	539	532	0	471	0	0	
12	0	0	0	0	536	537	0	458	0	0	
13	0	0	0	0	532	536	0	444	0	0	
14	0	0	0	0	530	529	0	430	0	0	
15	0	0	0	0	527	518	0	417	0	0	
0	0	0	0	0	526	502	0	407	0	0	
1	0	0	0	0	526	483	0	400	0	0	
2	0	0	0	0	527	465	0	398	0	0	
3	0	0	0	0	529	447	0	399	0	0	
4	0	0	0	0	531	432	0	406	0	0	
5	0	0	0	0	535	422	0	415	0	0	
6	0	0	0	0	538	416	0	428	0	0	
7	0	0	0	0	541	417	0	442	0	0	
8	0	0	0	0	543	424	0	456	0	0	
9	0	0	0	0	544	436	0	469	0	0	
10	0	0	0	0	545	452	0	479	0	0	
11	0	0	0	0	545	470	0	486	0	0	
12	0	0	0	0	543	489	0	488	0	0	
13	0	0	0	0	541	507	0	486	0	0	
14	0	0	0	0	538	522	0	479	0	0	
15	0	0	0	0	535	533	0	469	0	0	
0	0	0	0	0	531	538	0	456	0	0	
1	0	0	0	0	529	537	0	443	0	0	
2	0	0	0	0	527	531	0	430	0	0	
3	0	0	0	0	524	519	0	417	0	0	
4	0	0	0	0	525	504	0	407	0	0	
5	0	0	0	0	526	485	0	401	0	0	
6	0	0	0	0	527	466	0	400	0	0	
7	0	0	0	0	531	448	0	403	0	0	
8	0	0	0	0	534	434	0	410	0	0	
9	0	0	0	0	539	423	0	422	0	0	
10	0	0	0	0	543	418	0	435	0	0	
11	0	0	0	0	546	419	0	450	0	0	
12	0	0	0	0	549	426	0	464	0	0	
13	0	0	0	0	551	438	0	477	0	0	
14	0	0	0	0	551	453	0	486	0	0	
15	0	0	0	0	551	471	0	492	0	0	
0	0	0	0	0	548	490	0	494	0	0	
1	0	0	0	0	545	508	0	492	0	0	
2	0	0	0	0	541	522	0	483	0	0	
3	0	0	0	0	537	533	0	473	0	0	
4	0	0	0	0	533	537	0	460	0	0	
5	0	0	0	0	529	536	0	445	0	0	
6	0	0	0	0	527	529	0	432	0	0	
7	0	0	0	0	524	516	0	419	0	0	
8	0	0	0	0	524	501	0	409	0	0	
9	0	0	0	0	524	482	0	402	0	0	
10	0	0	0	0	526	463	0	400	0	0	
11	0	0	0	0	527	444	0	404	0	0	
12	0	0	0	0	531	431	0	411	0	0	
13	0	0	0	0	536	420	0	421	0	0	
14	0	0	0	0	540	416	0	435	0	0	
15	0	0	0	0	544	417	0	449	0	0	
0	0	0	0	0	548	424	0	464	0	0	
1	0	0	0	0	550	437	0	477	0	0	
2	0	0	0	0	553	454	0	487	0	0	
3	0	0	0	0	553	473	0	494	0	0	
4	0	0	0	0	552	493	0	496	0	0	
5	0	0	0	0	551	512	0	494	0	0	
6	0	0	0	0	547	528	0	487	0	0	
7	0	0	0	0	544	539	0	476	0	0	
8	0	0	0	0	540	544	0	463	0	0	
9	0	0	0	0	536	544	0	448	0	0	
10	0	0	0	0	533	537	0	434	0	0	
11	0	0	0	0	530	526	0	421	0	0	
12	0	0	0	0	528	510	0	411	0	0	
13	0	0	0	0	528	491	0	404	0	0	
14	0	0	0	0	528	472	0	401	0	0	
15	0	0	0	0	530	453	0	404	0	0	
0	0	0	0	0	532	438	0	410	0	0	
1	0	0	0	0	536	426	0	421	0	0	
2	0	0	0	0	539	421	0	434	0	0	
3	0	0	0	0	542	421	0	448	0	0	
4	0	0	0	0	545	427	0	463	0	0	
5	0	0	0	0	546	438	0	475	0	0	
6	0	0	0	0	547	454	0	485	0	0	
7	0	0	0	0	547	472	0	491	0	0	
8	0	0	0	0	546	491	0	493	0	0	
9	0	0	0	0	543	509	0	489	0	0	
10	0	0	0	0	540	524	0	482	0	0	
11	0	0	0	0	537	536	0	471	0	0	
12	0	0	0	0	534	541	0	458	0	0	
13	0	0	0	0	531	541	0	444	0	0	
14	0	0	0	0	528	535	0	430	0	0	
15	0	0	0	0	526	523	0	417	0	0	
0	0	0	0	0	526	507	0	407	0	0	
1	0	0	0	0	526	489	0	400	0	0	
2	0	0	0	0	526	471	0	399	0	0	
3	0	0	0	0	529	452	0	401	0	0	
4	0	0	0	0	531	437	0	408	0	0	
5	0	0	0	0	534	427	0	419	0	0	
6	0	0	0	0	537	421	0	432	0	0	
7	0	0	0	0	540	421	0	446	0	0	
8	0	0	0	0	541	427	0	460	0	0	
9	0	0	0	0	542	438	0	473	0	0	
10	0	0	0	0	542	454	0	483	0	0	
11	0	0	0	0	542	472	0	489	0	0	
12	0	0	0	0	540	491	0	491	0	0	
13	0	0	0	0	537	510	0	488	0	0	
14	0	0	0	0	534	524	0	481	0	0	
15	0	0	0	0	531	536	0	470	0	0	
0	0	0	0	0	528	541	0	457	0	0	
1	0	0	0	0	526	540	0	443	0	0	
2	0	0	0	0	524	533	0	429	0	0	
3	0	0	0	0	523	521	0	416	0	0	
4	0	0	0	0	524	505	0	406	0	0	
5	0	0	0	0	524	487	0	399	0	0	
6	0	0	0	0	527	467	0	396	0	0	
7	0	0	0	0	529	449	0	399	0	0	
8	0	0	0	0	533	434	0	405	0	0	
9	0	0	0	0	536	423	0	415	0	0	
10	0	0	0	0	540	417	0	428	0	0	
11	0	0	0	0	542	417	0	442	0	0	
12	0	0	0	0	544	423	0	456	0	0	
13	0	0	0	0	545	434	0	468	0	0	
14	0	0	0	0	546	450	0	478	0	0	
15	0	0	0	0	545	468	0	484	0	0	
0	0	0	0	0	543	487	0	487	0	0	
1	0	0	0	0	541	506	0	485	0	0	
2	0	0	0	0	538	521	0	478	0	0	
3	0	0	0	0	536	533	0	468	0	0	
4	0	0	0	0	533	539	0	456	0	0	
5	0	0	0	0	531	540	0	443	0	0	
6	0	0	0	0	529	534	0	430	0	0	
7	0	0	0	0	529	523	0	418	0	0	
8	0	0	0	0	529	507	0	409	0	0	
9	0	0	0	0	530	489	0	403	0	0	
10	0	0	0	0	533	470	0	402	0	0	
11	0	0	0	0	536	452	0	405	0	0	
12	0	0	0	0	539	437	0	412	0	0	
13	0	0	0	0	543	426	0	424	0	0	
14	0	0	0	0	547	421	0	438	0	0	
15	0	0	0	0	550	422	0	452	0	0	
0	0	0	0	0	552	428	0	466	0	0	
1	0	0	0	0	553	440	0	480	0	0	
2	0	0	0	0	554	457	0	491	0	0	
3	0	0	0	0	554	476	0	498	0	0	
4	0	0	0	0	551	495	0	501	0	0	
5	0	0	0	0	549	514	0	499	0	0	
6	0	0	0	0	546	529	0	492	0	0	
7	0	0	0	0	542	540	0	481	0	0	
8	0	0	0	0	539	545	0	468	0	0	
9	0	0	0	0	536	544	0	454	0	0	
10	0	0	0	0	533	537	0	440	0	0	
11	0	0	0	0	530	525	0	426	0	0	
12	0	0	0	0	529	509	0	415	0	0	
13	0	0	0	0	529	491	0	408	0	0	
14	0	0	0	0	530	471	0	406	0	0	
15	0	0	0	0	532	453	0	408	0	0	
0	0	0	0	0	535	438	0	413	0	0	
1	0	0	0	0	538	427	0	423	0	0	
2	0	0	0	0	541	422	0	436	0	0	
3	0	0	0	0	543	422	0	451	0	0	
4	0	0	0	0	546	428	0	465	0	0	
5	0	0	0	0	547	440	0	478	0	0	
6	0	0	0	0	549	456	0	489	0	0	
7	0	0	0	0	549	474	0	496	0	0	
8	0	0	0	0	548	493	0	499	0	0	
9	0	0	0	0	546	511	0	498	0	0	
10	0	0	0	0	544	526	0	491	0	0	
11	0	0	0	0	542	537	0	482	0	0	
12	0	0	0	0	539	542	0	470	0	0	
13	0	0	0	0	537	541	0	456	0	0	
14	0	0	0	0	536	535	0	443	0	0	
15	0	0	0	0	534	523	0	430	0	0	
0	0	0	0	0	534	508	0	420	0	0	
1	0	0	0	0	535	490	0	414	0	0	
2	0	0	0	0	537	471	0	411	0	0	
3	0	0	0	0	540	454	0	413	0	0	
4	0	0	0	0	543	438	0	419	0	0	
5	0	0	0	0	546	428	0	429	0	0	
6	0	0	0	0	549	422	0	441	0	0	
7	0	0	0	0	551	423	0	454	0	0	
8	0	0	0	0	555	429	0	467	0	0	
9	0	0	0	0	555	440	0	479	0	0	
10	0	0	0	0	556	455	0	487	0	0	
11	0	0	0	0	554	472	0	493	0	0	
12	0	0	0	0	551	491	0	495	0	0	
13	0	0	0	0	548	508	0	492	0	0	
14	0	0	0	0	543	523	0	484	0	0	
15	0	0	0	0	539	534	0	474	0	0	
0	0	0	0	0	535	539	0	461	0	0	
1	0	0	0	0	531	538	0	447	0	0	
2	0	0	0	0	529	531	0	433	0	0	
3	0	0	0	0	527	519	0	421	0	0	
4	0	0	0	0	527	504	0	412	0	0	
5	0	0	0	0	527	486	0	406	0	0	
6	0	0	0	0	530	467	0	405	0	0	
7	0	0	0	0	534	449	0	408	0	0	
8	0	0	0	0	537	435	0	415	0	0	
9	0	0	0	0	542	424	0	426	0	0	
10	0	0	0	0	547	420	0	440	0	0	
11	0	0	0	0	551	421	0	454	0	0	
12	0	0	0	0	554	428	0	468	0	0	
13	0	0	0	0	557	440	0	481	0	0	
14	0	0	0	0	558	456	0	492	0	0	
15	0	0	0	0	558	474	0	498	0	0	
0	0	0	0	0	556	494	0	500	0	0	
1	0	0	0	0	554	511	0	499	0	0	
2	0	0	0	0	550	526	0	492	0	0	
3	0	0	0	0	547	537	0	481	0	0	
4	0	0	0	0	543	542	0	469	0	0	
5	0	0	0	0	540	542	0	455	0	0	
6	0	0	0	0	536	535	0	442	0	0	
7	0	0	0	0	535	523	0	429	0	0	
8	0	0	0	0	534	508	0	420	0	0	
9	0	0	0	0	534	489	0	414	0	0	
10	0	0	0	0	536	470	0	412	0	0	
11	0	0	0	0	537	452	0	414	0	0	
12	0	0	0	0	541	438	0	420	0	0	
13	0	0	0	0	545	427	0	430	0	0	
14	0	0	0	0	548	422	0	442	0	0	
15	0	0	0	0	552	422	0	456	0	0	
0	0	0	0	0	554	428	0	469	0	0	
1	0	0	0	0	556	440	0	481	0	0	
2	0	0	0	0	557	455	0	490	0	0	
3	0	0	0	0	556	474	0	496	0	0	
4	0	0	0	0	555	493	0	498	0	0	
5	0	0	0	0	551	511	0	495	0	0	
6	0	0	0	0	548	526	0	488	0	0	
7	0	0	0	0	545	537	0	478	0	0	
8	0	0	0	0	541	542	0	465	0	0	
9	0	0	0	0	538	541	0	451	0	0	
10	0	0	0	0	535	535	0	438	0	0	
11	0	0	0	0	534	523	0	425	0	0	
12	0	0	0	0	533	507	0	416	0	0	
13	0	0	0	0	533	489	0	409	0	0	
14	0	0	0	0	534	470	0	408	0	0	
15	0	0	0	0	536	451	0	410	0	0	
0	0	0	0	0	539	436	0	416	0	0	
1	0	0	0	0	542	425	0	427	0	0	
2	0	0	0	0	545	420	0	439	0	0	
3	0	0	0	0	547	420	0	452	0	0	
4	0	0	0	0	550	426	0	465	0	0	
5	0	0	0	0	550	437	0	478	0	0	
6	0	0	0	0	551	452	0	487	0	0	
7	0	0	0	0	550	470	0	493	0	0	
8	0	0	0	0	548	488	0	494	0	0	
9	0	0	0	0	545	506	0	490	0	0	
10	0	0	0	0	542	521	0	483	0	0	
11	0	0	0	0	538	531	0	472	0	0	
12	0	0	0	0	535	537	0	459	0	0	
13	0	0	0	0	531	536	0	444	0	0	
14	0	0	0	0	528	529	0	431	0	0	
15	0	0	0	0	526	517	0	417	0	0	
0	0	0	0	0	525	502	0	407	0	0	
1	0	0	0	0	525	483	0	401	0	0	
2	0	0	0	0	526	464	0	399	0	0	
3	0	0	0	0	529	446	0	403	0	0	
4	0	0	0	0	531	431	0	409	0	0	
5	0	0	0	0	536	421	0	421	0	0	
6	0	0	0	0	540	415	0	435	0	0	
7	0	0	0	0	543	416	0	449	0	0	
8	0	0	0	0	547	422	0	464	0	0	
9	0	0	0	0	549	434	0	478	0	0	
10	0	0	0	0	550	450	0	488	0	0	
11	0	0	0	0	550	468	0	495	0	0	
12	0	0	0	0	549	487	0	496	0	0	
13	0	0	0	0	546	505	0	495	0	0	
14	0	0	0	0	542	521	0	488	0	0	
15	0	0	0	0	539	532	0	477	0	0	
0	0	0	0	0	535	538	0	464	0	0	
1	0	0	0	0	531	538	0	450	0	0	
2	0	0	0	0	529	531	0	436	0	0	
3	0	0	0	0	526	520	0	423	0	0	
4	0	0	0	0	526	504	0	414	0	0	
5	0	0	0	0	526	487	0	407	0	0	
6	0	0	0	0	527	467	0	406	0	0	
7	0	0	0	0	529	449	0	409	0	0	
8	0	0	0	0	532	435	0	416	0	0	
9	0	0	0	0	537	424	0	427	0	0	
10	0	0	0	0	541	419	0	441	0	0	
11	0	0	0	0	545	420	0	455	0	0	
12	0	0	0	0	548	428	0	470	0	0	
13	0	0	0	0	551	440	0	483	0	0	
14	0	0	0	0	553	456	0	494	0	0	
15	0	0	0	0	554	475	0	501	0	0	
0	0	0	0	0	553	495	0	503	0	0	
1	0	0	0	0	551	513	0	501	0	0	
2	0	0	0	0	548	529	0	494	0	0	
3	0	0	0	0	545	540	0	484	0	0	
4	0	0	0	0	542	545	0	471	0	0	
5	0	0	0	0	539	545	0	457	0	0	
6	0	0	0	0	536	539	0	443	0	0	
7	0	0	0	0	535	528	0	431	0	0	
8	0	0	0	0	534	513	0	421	0	0	
9	0	0	0	0	534	495	0	415	0	0	
10	0	0	0	0	536	477	0	414	0	0	
11	0	0	0	0	539	460	0	416	0	0	
12	0	0	0	0	542	445	0	424	0	0	
13	0	0	0	0	547	435	0	435	0	0	
14	0	0	0	0	550	430	0	448	0	0	
15	0	0	0	0	554	432	0	462	0	0	
0	0	0	0	0	557	439	0	476	0	0	
1	0	0	0	0	559	450	0	487	0	0	
2	0	0	0	0	561	467	0	497	0	0	
3	0	0	0	0	561	485	0	503	0	0	
4	0	0	0	0	559	504	0	504	0	0	
5	0	0	0	0	556	521	0	502	0	0	
6	0	0	0	0	552	536	0	494	0	0	
7	0	0	0	0	548	546	0	483	0	0	
8	0	0	0	0	544	551	0	470	0	0	
9	0	0	0	0	540	550	0	455	0	0	
10	0	0	0	0	537	543	0	441	0	0	
11	0	0	0	0	534	530	0	429	0	0	
12	0	0	0	0	533	514	0	419	0	0	
13	0	0	0	0	532	495	0	412	0	0	
14	0	0	0	0	533	476	0	411	0	0	
15	0	0	0	0	535	457	0	413	0	0	
0	0	0	0	0	538	442	0	420	0	0	
1	0	0	0	0	542	431	0	431	0	0	
2	0	0	0	0	545	425	0	444	0	0	
3	0	0	0	0	550	426	0	458	0	0	
4	0	0	0	0	553	433	0	472	0	0	
5	0	0	0	0	555	444	0	484	0	0	
6	0	0	0	0	556	459	0	494	0	0	
7	0	0	0	0	556	477	0	499	0	0	
8	0	0	0	0	555	496	0	500	0	0	
9	0	0	0	0	551	512	0	497	0	0	
10	0	0	0	0	547	527	0	489	0	0	
11	0	0	0	0	543	536	0	478	0	0	
12	0	0	0	0	538	541	0	464	0	0	
13	0	0	0	0	534	539	0	449	0	0	
14	0	0	0	0	530	531	0	434	0	0	
15	0	0	0	0	527	519	0	421	0	0	
0	0	0	0	0	525	504	0	410	0	0	
1	0	0	0	0	524	485	0	403	0	0	
2	0	0	0	0	524	466	0	401	0	0	
3	0	0	0	0	526	448	0	403	0	0	
4	0	0	0	0	528	433	0	409	0	0	
5	0	0	0	0	531	423	0	420	0	0	
6	0	0	0	0	534	418	0	433	0	0	
7	0	0	0	0	537	419	0	448	0	0	
8	0	0	0	0	539	425	0	462	0	0	
9	0	0	0	0	540	437	0	474	0	0	
10	0	0	0	0	541	452	0	484	0	0	
11	0	0	0	0	541	470	0	491	0	0	
12	0	0	0	0	539	488	0	492	0	0	
13	0	0	0	0	536	505	0	489	0	0	
14	0	0	0	0	533	519	0	481	0	0	
15	0	0	0	0	530	529	0	470	0	0	
0	0	0	0	0	527	534	0	456	0	0	
1	0	0	0	0	524	532	0	442	0	0	
2	0	0	0	0	521	525	0	428	0	0	
3	0	0	0	0	520	514	0	415	0	0	
4	0	0	0	0	520	498	0	405	0	0	
5	0	0	0	0	520	480	0	399	0	0	
6	0	0	0	0	522	461	0	397	0	0	
7	0	0	0	0	524	444	0	401	0	0	
8	0	0	0	0	528	430	0	409	0	0	
9	0	0	0	0	532	420	0	421	0	0	
10	0	0	0	0	536	415	0	435	0	0	
11	0	0	0	0	539	417	0	451	0	0	
12	0	0	0	0	542	425	0	467	0	0	
13	0	0	0	0	544	438	0	480	0	0	
14	0	0	0	0	546	454	0	491	0	0	
15	0	0	0	0	546	473	0	497	0	0	
0	0	0	0	0	545	492	0	499	0	0	
1	0	0	0	0	542	510	0	497	0	0	
2	0	0	0	0	540	525	0	489	0	0	
3	0	0	0	0	537	536	0	478	0	0	
4	0	0	0	0	535	541	0	465	0	0	
5	0	0	0	0	532	540	0	451	0	0	
6	0	0	0	0	531	534	0	436	0	0	
7	0	0	0	0	530	522	0	423	0	0	
8	0	0	0	0	530	507	0	413	0	0	
9	0	0	0	0	531	489	0	407	0	0	
10	0	0	0	0	533	471	0	405	0	0	
11	0	0	0	0	536	454	0	408	0	0	
12	0	0	0	0	540	440	0	415	0	0	
13	0	0	0	0	543	430	0	426	0	0	
14	0	0	0	0	547	426	0	440	0	0	
15	0	0	0	0	551	428	0	454	0	0	
0	0	0	0	0	553	435	0	469	0	0	
1	0	0	0	0	556	447	0	482	0	0	
2	0	0	0	0	557	464	0	493	0	0	
3	0	0	0	0	557	483	0	499	0	0	
4	0	0	0	0	556	502	0	502	0	0	
5	0	0	0	0	554	520	0	500	0	0	
6	0	0	0	0	551	536	0	494	0	0	
7	0	0	0	0	547	547	0	484	0	0	
8	0	0	0	0	544	551	0	472	0	0	
9	0	0	0	0	542	551	0	458	0	0	
10	0	0	0	0	539	545	0	444	0	0	
11	0	0	0	0	537	533	0	431	0	0	
12	0	0	0	0	536	518	0	422	0	0	
13	0	0	0	0	536	499	0	416	0	0	
14	0	0	0	0	537	480	0	414	0	0	
15	0	0	0	0	540	462	0	417	0	0	
0	0	0	0	0	542	446	0	424	0	0	
1	0	0	0	0	545	435	0	434	0	0	
2	0	0	0	0	549	431	0	447	0	0	
3	0	0	0	0	551	431	0	461	0	0	
4	0	0	0	0	553	437	0	475	0	0	
5	0	0	0	0	555	448	0	487	0	0	
6	0	0	0	0	556	463	0	496	0	0	
7	0	0	0	0	555	481	0	502	0	0	
8	0	0	0	0	553	499	0	503	0	0	
9	0	0	0	0	550	517	0	499	0	0	
10	0	0	0	0	546	531	0	492	0	0	
11	0	0	0	0	543	542	0	481	0	0	
12	0	0	0	0	540	547	0	467	0	0	
13	0	0	0	0	537	546	0	453	0	0	
14	0	0	0	0	535	539	0	440	0	0	
15	0	0	0	0	532	527	0	428	0	0	
0	0	0	0	0	532	511	0	418	0	0	
1	0	0	0	0	532	493	0	412	0	0	
2	0	0	0	0	533	473	0	410	0	0	
3	0	0	0	0	536	455	0	413	0	0	
4	0	0	0	0	538	440	0	420	0	0	
5	0	0	0	0	542	430	0	430	0	0	
6	0	0	0	0	544	424	0	443	0	0	
7	0	0	0	0	546	424	0	456	0	0	
8	0	0	0	0	547	430	0	469	0	0	
9	0	0	0	0	548	440	0	481	0	0	
10	0	0	0	0	548	455	0	489	0	0	
11	0	0	0	0	548	474	0	495	0	0	
12	0	0	0	0	546	492	0	497	0	0	
13	0	0	0	0	543	511	0	494	0	0	
14	0	0	0	0	541	527	0	487	0	0	
15	0	0	0	0	539	538	0	478	0	0	
0	0	0	0	0	537	544	0	467	0	0	
1	0	0	0	0	536	545	0	454	0	0	
2	0	0	0	0	535	540	0	442	0	0	
3	0	0	0	0	535	529	0	431	0	0	
4	0	0	0	0	535	514	0	422	0	0	
5	0	0	0	0	536	495	0	415	0	0	
6	0	0	0	0	536	475	0	412	0	0	
7	0	0	0	0	537	455	0	413	0	0	
8	0	0	0	0	536	437	0	416	0	0	
9	0	0	0	0	535	422	0	422	0	0	
10	0	0	0	0	532	411	0	428	0	0	
11	0	0	0	0	527	404	0	435	0	0	
12	0	0	0	0	520	402	0	440	0	0	
13	0	0	0	0	512	404	0	443	0	0	
14	0	0	0	0	502	410	0	443	0	0	
15	0	0	0	0	491	417	0	437	0	0	
0	0	0	0	0	478	425	0	428	0	0	
1	0	0	0	0	463	431	0	414	0	0	
2	0	0	0	0	447	434	0	395	0	0	
3	0	0	0	0	432	434	0	373	0	0	
4	0	0	0	0	417	428	0	349	0	0	
5	0	0	0	0	403	415	0	324	0	0	
6	0	0	0	0	389	398	0	300	0	0	
7	0	0	0	0	375	375	0	276	0	0	
8	0	0	0	0	363	348	0	255	0	0	
9	0	0	0	0	352	319	0	238	0	0	
10	0	0	0	0	342	288	0	224	0	0	
11	0	0	0	0	333	259	0	216	0	0	
12	0	0	0	0	325	231	0	211	0	0	
13	0	0	0	0	318	208	0	211	0	0	
14	0	0	0	0	312	192	0	216	0	0	
15	0	0	0	0	308	182	0	223	0	0	
0	0	0	0	0	305	181	0	231	0	0	
1	0	0	0	0	304	188	0	243	0	0	
2	0	0	0	0	306	203	0	254	0	0	
3	0	0	0	0	310	224	0	264	0	0	
4	0	0	0	0	317	250	0	274	0	0	
5	0	0	0	0	326	279	0	283	0	0	
6	0	0	0	0	338	308	0	290	0	0	
7	0	0	0	0	354	339	0	296	0	0	
8	0	0	0	0	373	365	0	303	0	0	
9	0	0	0	0	394	388	0	311	0	0	
10	0	0	0	0	416	406	0	320	0	0	
11	0	0	0	0	441	419	0	331	0	0	
12	0	0	0	0	466	428	0	344	0	0	
13	0	0	0	0	490	432	0	360	0	0	
14	0	0	0	0	514	434	0	379	0	0	
15	0	0	0	0	536	434	0	400	0	0	
0	0	0	0	0	555	435	0	423	0	0	
1	0	0	0	0	571	436	0	448	0	0	
2	0	0	0	0	583	440	0	471	0	0	
3	0	0	0	0	591	448	0	493	0	0	
4	0	0	0	0	595	457	0	511	0	0	
5	0	0	0	0	595	471	0	525	0	0	
6	0	0	0	0	593	487	0	534	0	0	
7	0	0	0	0	587	503	0	537	0	0	
8	0	0	0	0	578	518	0	535	0	0	
9	0	0	0	0	568	531	0	526	0	0	
10	0	0	0	0	557	542	0	512	0	0	
11	0	0	0	0	547	547	0	496	0	0	
12	0	0	0	0	537	547	0	476	0	0	
13	0	0	0	0	530	543	0	457	0	0	
14	0	0	0	0	524	532	0	439	0	0	
15	0	0	0	0	521	519	0	423	0	0	
0	0	0	0	0	521	502	0	412	0	0	
1	0	0	0	0	523	483	0	406	0	0	
2	0	0	0	0	527	465	0	405	0	0	
3	0	0	0	0	533	448	0	409	0	0	
4	0	0	0	0	540	435	0	419	0	0	
5	0	0	0	0	547	427	0	433	0	0	
6	0	0	0	0	554	423	0	449	0	0	
7	0	0	0	0	559	426	0	466	0	0	
8	0	0	0	0	563	435	0	482	0	0	
9	0	0	0	0	566	448	0	496	0	0	
10	0	0	0	0	568	465	0	508	0	0	
11	0	0	0	0	568	484	0	515	0	0	
12	0	0	0	0	566	504	0	517	0	0	
13	0	0	0	0	561	522	0	514	0	0	
14	0	0	0	0	558	537	0	507	0	0	
15	0	0	0	0	553	547	0	495	0	0	
0	0	0	0	0	549	552	0	481	0	0	
1	0	0	0	0	545	551	0	465	0	0	
2	0	0	0	0	542	543	0	449	0	0	
3	0	0	0	0	540	531	0	436	0	0	
4	0	0	0	0	539	514	0	425	0	0	
5	0	0	0	0	539	496	0	418	0	0	
6	0	0	0	0	540	477	0	416	0	0	
7	0	0	0	0	543	459	0	418	0	0	
8	0	0	0	0	545	444	0	425	0	0	
9	0	0	0	0	550	434	0	435	0	0	
10	0	0	0	0	553	429	0	448	0	0	
11	0	0	0	0	556	431	0	463	0	0	
12	0	0	0	0	559	437	0	477	0	0	
13	0	0	0	0	561	449	0	489	0	0	
14	0	0	0	0	561	464	0	499	0	0	
15	0	0	0	0	561	482	0	505	0	0	
0	0	0	0	0	559	500	0	507	0	0	
1	0	0	0	0	557	518	0	504	0	0	
2	0	0	0	0	553	531	0	496	0	0	
3	0	0	0	0	550	541	0	485	0	0	
4	0	0	0	0	545	545	0	471	0	0	
5	0	0	0	0	541	543	0	456	0	0	
6	0	0	0	0	537	534	0	441	0	0	
7	0	0	0	0	534	521	0	428	0	0	
8	0	0	0	0	532	504	0	417	0	0	
9	0	0	0	0	531	486	0	410	0	0	
10	0	0	0	0	532	466	0	408	0	0	
11	0	0	0	0	535	448	0	411	0	0	
12	0	0	0	0	537	433	0	417	0	0	
13	0	0	0	0	542	423	0	428	0	0	
14	0	0	0	0	545	418	0	441	0	0	
15	0	0	0	0	548	419	0	457	0	0	
0	0	0	0	0	551	425	0	471	0	0	
1	0	0	0	0	552	438	0	484	0	0	
2	0	0	0	0	553	454	0	494	0	0	
3	0	0	0	0	553	472	0	500	0	0	
4	0	0	0	0	551	491	0	501	0	0	
5	0	0	0	0	548	508	0	498	0	0	
6	0	0	0	0	544	521	0	490	0	0	
7	0	0	0	0	541	532	0	479	0	0	
8	0	0	0	0	536	536	0	464	0	0	
9	0	0	0	0	533	534	0	449	0	0	
10	0	0	0	0	530	526	0	434	0	0	
11	0	0	0	0	527	514	0	420	0	0	
12	0	0	0	0	527	498	0	410	0	0	
13	0	0	0	0	527	480	0	403	0	0	
14	0	0	0	0	529	462	0	401	0	0	
15	0	0	0	0	531	444	0	405	0	0	
0	0	0	0	0	535	430	0	412	0	0	
1	0	0	0	0	539	421	0	423	0	0	
2	0	0	0	0	543	417	0	436	0	0	
3	0	0	0	0	547	419	0	451	0	0	
4	0	0	0	0	550	427	0	466	0	0	
5	0	0	0	0	551	439	0	478	0	0	
6	0	0	0	0	553	455	0	488	0	0	
7	0	0	0	0	552	473	0	495	0	0	
8	0	0	0	0	551	492	0	496	0	0	
9	0	0	0	0	547	508	0	493	0	0	
10	0	0	0	0	543	522	0	486	0	0	
11	0	0	0	0	540	531	0	474	0	0	
12	0	0	0	0	536	535	0	461	0	0	
13	0	0	0	0	532	532	0	446	0	0	
14	0	0	0	0	529	524	0	432	0	0	
15	0	0	0	0	526	510	0	418	0	0	
0	0	0	0	0	525	493	0	408	0	0	
1	0	0	0	0	524	475	0	401	0	0	
2	0	0	0	0	524	455	0	399	0	0	
3	0	0	0	0	526	437	0	401	0	0	
4	0	0	0	0	528	422	0	407	0	0	
5	0	0	0	0	531	412	0	417	0	0	
6	0	0	0	0	535	407	0	431	0	0	
7	0	0	0	0	537	409	0	445	0	0	
8	0	0	0	0	540	416	0	459	0	0	
9	0	0	0	0	542	428	0	472	0	0	
10	0	0	0	0	543	445	0	481	0	0	
11	0	0	0	0	543	463	0	487	0	0	
12	0	0	0	0	543	483	0	489	0	0	
13	0	0	0	0	540	501	0	486	0	0	
14	0	0	0	0	538	515	0	479	0	0	
15	0	0	0	0	535	526	0	468	0	0	
0	0	0	0	0	532	531	0	456	0	0	
1	0	0	0	0	529	530	0	441	0	0	
2	0	0	0	0	527	523	0	428	0	0	
3	0	0	0	0	525	511	0	415	0	0	
4	0	0	0	0	525	496	0	406	0	0	
5	0	0	0	0	525	478	0	400	0	0	
6	0	0	0	0	527	459	0	399	0	0	
7	0	0	0	0	529	441	0	401	0	0	
8	0	0	0	0	531	427	0	408	0	0	
9	0	0	0	0	535	416	0	419	0	0	
10	0	0	0	0	539	411	0	433	0	0	
11	0	0	0	0	541	412	0	447	0	0	
12	0	0	0	0	543	419	0	460	0	0	
13	0	0	0	0	544	430	0	472	0	0	
14	0	0	0	0	544	446	0	482	0	0	
15	0	0	0	0	543	463	0	487	0	0	
0	0	0	0	0	542	482	0	488	0	0	
1	0	0	0	0	538	499	0	485	0	0	
2	0	0	0	0	534	514	0	476	0	0	
3	0	0	0	0	531	524	0	465	0	0	
4	0	0	0	0	527	528	0	451	0	0	
5	0	0	0	0	523	527	0	437	0	0	
6	0	0	0	0	521	519	0	423	0	0	
7	0	0	0	0	519	507	0	411	0	0	
8	0	0	0	0	518	491	0	401	0	0	
9	0	0	0	0	519	472	0	396	0	0	
10	0	0	0	0	519	453	0	394	0	0	
11	0	0	0	0	522	435	0	398	0	0	
12	0	0	0	0	525	421	0	404	0	0	
13	0	0	0	0	528	410	0	416	0	0	
14	0	0	0	0	532	406	0	430	0	0	
15	0	0	0	0	535	407	0	444	0	0	
0	0	0	0	0	537	414	0	459	0	0	
1	0	0	0	0	538	426	0	471	0	0	
2	0	0	0	0	539	442	0	480	0	0	
3	0	0	0	0	538	461	0	486	0	0	
4	0	0	0	0	536	480	0	487	0	0	
5	0	0	0	0	533	497	0	484	0	0	
6	0	0	0	0	528	512	0	475	0	0	
7	0	0	0	0	525	523	0	464	0	0	
8	0	0	0	0	521	527	0	450	0	0	
9	0	0	0	0	518	525	0	435	0	0	
10	0	0	0	0	514	518	0	421	0	0	
11	0	0	0	0	512	505	0	408	0	0	
12	0	0	0	0	511	489	0	398	0	0	
13	0	0	0	0	511	470	0	392	0	0	
14	0	0	0	0	512	451	0	390	0	0	
15	0	0	0	0	514	432	0	393	0	0	
0	0	0	0	0	517	417	0	400	0	0	
1	0	0	0	0	521	407	0	411	0	0	
2	0	0	0	0	524	401	0	423	0	0	
3	0	0	0	0	527	402	0	438	0	0	
4	0	0	0	0	530	408	0	452	0	0	
5	0	0	0	0	532	420	0	464	0	0	
6	0	0	0	0	534	436	0	473	0	0	
7	0	0	0	0	534	455	0	480	0	0	
8	0	0	0	0	533	473	0	481	0	0	
9	0	0	0	0	531	492	0	479	0	0	
10	0	0	0	0	528	507	0	472	0	0	
11	0	0	0	0	525	518	0	461	0	0	
12	0	0	0	0	522	523	0	449	0	0	
13	0	0	0	0	519	522	0	435	0	0	
14	0	0	0	0	517	515	0	422	0	0	
15	0	0	0	0	515	504	0	410	0	0	
0	0	0	0	0	515	487	0	400	0	0	
1	0	0	0	0	515	470	0	395	0	0	
2	0	0	0	0	516	451	0	393	0	0	
3	0	0	0	0	519	432	0	397	0	0	
4	0	0	0	0	520	417	0	403	0	0	
5	0	0	0	0	524	406	0	414	0	0	
6	0	0	0	0	527	400	0	427	0	0	
7	0	0	0	0	530	401	0	441	0	0	
8	0	0	0	0	531	407	0	454	0	0	
9	0	0	0	0	533	418	0	466	0	0	
10	0	0	0	0	534	434	0	475	0	0	
11	0	0	0	0	534	453	0	480	0	0	
12	0	0	0	0	533	472	0	481	0	0	
13	0	0	0	0	530	491	0	478	0	0	
14	0	0	0	0	528	507	0	471	0	0	
15	0	0	0	0	526	518	0	460	0	0	
0	0	0	0	0	523	524	0	447	0	0	
1	0	0	0	0	521	524	0	433	0	0	
2	0	0	0	0	519	518	0	419	0	0	
3	0	0	0	0	516	506	0	407	0	0	
4	0	0	0	0	517	491	0	398	0	0	
5	0	0	0	0	517	473	0	391	0	0	
6	0	0	0	0	518	454	0	390	0	0	
7	0	0	0	0	519	436	0	393	0	0	
8	0	0	0	0	522	421	0	399	0	0	
9	0	0	0	0	524	410	0	411	0	0	
10	0	0	0	0	527	404	0	423	0	0	
11	0	0	0	0	528	404	0	438	0	0	
12	0	0	0	0	529	411	0	451	0	0	
13	0	0	0	0	529	422	0	464	0	0	
14	0	0	0	0	529	437	0	473	0	0	
15	0	0	0	0	528	455	0	479	0	0	
0	0	0	0	0	526	474	0	479	0	0	
1	0	0	0	0	523	492	0	476	0	0	
2	0	0	0	0	519	506	0	468	0	0	
3	0	0	0	0	516	517	0	457	0	0	
4	0	0	0	0	513	522	0	443	0	0	
5	0	0	0	0	511	521	0	429	0	0	
6	0	0	0	0	510	514	0	415	0	0	
7	0	0	0	0	509	503	0	403	0	0	
8	0	0	0	0	510	487	0	394	0	0	
9	0	0	0	0	511	469	0	389	0	0	
10	0	0	0	0	513	451	0	388	0	0	
11	0	0	0	0	516	433	0	391	0	0	
12	0	0	0	0	519	419	0	399	0	0	
13	0	0	0	0	523	408	0	410	0	0	
14	0	0	0	0	526	403	0	423	0	0	
15	0	0	0	0	528	404	0	438	0	0	
0	0	0	0	0	529	409	0	452	0	0	
1	0	0	0	0	530	422	0	464	0	0	
2	0	0	0	0	530	437	0	473	0	0	
3	0	0	0	0	529	454	0	479	0	0	
4	0	0	0	0	526	473	0	479	0	0	
5	0	0	0	0	523	489	0	475	0	0	
6	0	0	0	0	518	504	0	466	0	0	
7	0	0	0	0	515	514	0	455	0	0	
8	0	0	0	0	511	518	0	441	0	0	
9	0	0	0	0	508	516	0	425	0	0	
10	0	0	0	0	505	508	0	411	0	0	
11	0	0	0	0	503	496	0	398	0	0	
12	0	0	0	0	503	480	0	389	0	0	
13	0	0	0	0	504	462	0	383	0	0	
14	0	0	0	0	505	443	0	383	0	0	
15	0	0	0	0	508	425	0	386	0	0	
0	0	0	0	0	512	411	0	394	0	0	
1	0	0	0	0	516	401	0	406	0	0	
2	0	0	0	0	520	397	0	420	0	0	
3	0	0	0	0	524	398	0	435	0	0	
4	0	0	0	0	527	406	0	449	0	0	
5	0	0	0	0	529	419	0	462	0	0	
6	0	0	0	0	530	435	0	471	0	0	
7	0	0	0	0	530	455	0	477	0	0	
8	0	0	0	0	529	475	0	478	0	0	
9	0	0	0	0	527	493	0	474	0	0	
10	0	0	0	0	524	508	0	466	0	0	
11	0	0	0	0	521	519	0	455	0	0	
12	0	0	0	0	518	524	0	442	0	0	
13	0	0	0	0	515	523	0	428	0	0	
14	0	0	0	0	512	516	0	414	0	0	
15	0	0	0	0	510	504	0	401	0	0	
0	0	0	0	0	509	487	0	391	0	0	
1	0	0	0	0	508	468	0	386	0	0	
2	0	0	0	0	509	448	0	384	0	0	
3	0	0	0	0	511	431	0	388	0	0	
4	0	0	0	0	513	416	0	396	0	0	
5	0	0	0	0	517	405	0	408	0	0	
6	0	0	0	0	519	400	0	422	0	0	
7	0	0	0	0	523	400	0	436	0	0	
8	0	0	0	0	525	406	0	451	0	0	
9	0	0	0	0	527	418	0	463	0	0	
10	0	0	0	0	529	433	0	473	0	0	
11	0	0	0	0	529	451	0	479	0	0	
12	0	0	0	0	527	470	0	479	0	0	
13	0	0	0	0	524	487	0	475	0	0	
14	0	0	0	0	521	501	0	467	0	0	
15	0	0	0	0	519	511	0	455	0	0	
0	0	0	0	0	515	516	0	441	0	0	
1	0	0	0	0	512	515	0	426	0	0	
2	0	0	0	0	509	508	0	411	0	0	
3	0	0	0	0	508	496	0	399	0	0	
4	0	0	0	0	507	480	0	389	0	0	
5	0	0	0	0	507	463	0	384	0	0	
6	0	0	0	0	508	444	0	383	0	0	
7	0	0	0	0	510	427	0	386	0	0	
8	0	0	0	0	512	412	0	395	0	0	
9	0	0	0	0	516	403	0	406	0	0	
10	0	0	0	0	519	398	0	421	0	0	
11	0	0	0	0	523	399	0	436	0	0	
12	0	0	0	0	526	406	0	451	0	0	
13	0	0	0	0	528	418	0	465	0	0	
14	0	0	0	0	529	435	0	475	0	0	
15	0	0	0	0	529	453	0	481	0	0	
0	0	0	0	0	527	472	0	483	0	0	
1	0	0	0	0	526	489	0	480	0	0	
2	0	0	0	0	521	504	0	472	0	0	
3	0	0	0	0	519	514	0	460	0	0	
4	0	0	0	0	515	519	0	447	0	0	
5	0	0	0	0	511	518	0	432	0	0	
6	0	0	0	0	508	510	0	417	0	0	
7	0	0	0	0	506	498	0	404	0	0	
8	0	0	0	0	505	482	0	393	0	0	
9	0	0	0	0	505	463	0	387	0	0	
10	0	0	0	0	507	444	0	385	0	0	
11	0	0	0	0	509	426	0	387	0	0	
12	0	0	0	0	512	412	0	394	0	0	
13	0	0	0	0	516	401	0	406	0	0	
14	0	0	0	0	519	396	0	419	0	0	
15	0	0	0	0	522	396	0	434	0	0	
0	0	0	0	0	524	403	0	448	0	0	
1	0	0	0	0	525	415	0	460	0	0	
2	0	0	0	0	526	431	0	470	0	0	
3	0	0	0	0	525	448	0	476	0	0	
4	0	0	0	0	523	467	0	478	0	0	
5	0	0	0	0	520	484	0	473	0	0	
6	0	0	0	0	516	498	0	465	0	0	
7	0	0	0	0	512	508	0	453	0	0	
8	0	0	0	0	508	512	0	439	0	0	
9	0	0	0	0	505	511	0	424	0	0	
10	0	0	0	0	503	504	0	409	0	0	
11	0	0	0	0	500	491	0	396	0	0	
12	0	0	0	0	500	475	0	385	0	0	
13	0	0	0	0	501	457	0	379	0	0	
14	0	0	0	0	503	438	0	377	0	0	
15	0	0	0	0	505	420	0	382	0	0	
0	0	0	0	0	508	406	0	389	0	0	
1	0	0	0	0	512	397	0	401	0	0	
2	0	0	0	0	516	393	0	415	0	0	
3	0	0	0	0	519	394	0	430	0	0	
4	0	0	0	0	522	402	0	445	0	0	
5	0	0	0	0	523	414	0	457	0	0	
6	0	0	0	0	524	431	0	467	0	0	
7	0	0	0	0	523	449	0	473	0	0	
8	0	0	0	0	521	469	0	475	0	0	
9	0	0	0	0	518	487	0	471	0	0	
10	0	0	0	0	514	502	0	462	0	0	
11	0	0	0	0	510	512	0	451	0	0	
12	0	0	0	0	507	517	0	438	0	0	
13	0	0	0	0	504	516	0	423	0	0	
14	0	0	0	0	501	509	0	409	0	0	
15	0	0	0	0	499	496	0	396	0	0	
0	0	0	0	0	499	481	0	387	0	0	
1	0	0	0	0	500	462	0	382	0	0	
2	0	0	0	0	502	443	0	381	0	0	
3	0	0	0	0	504	425	0	385	0	0	
4	0	0	0	0	507	410	0	393	0	0	
5	0	0	0	0	511	400	0	405	0	0	
6	0	0	0	0	515	396	0	419	0	0	
7	0	0	0	0	518	397	0	435	0	0	
8	0	0	0	0	520	404	0	448	0	0	
9	0	0	0	0	522	416	0	462	0	0	
10	0	0	0	0	524	433	0	472	0	0	
11	0	0	0	0	523	451	0	478	0	0	
12	0	0	0	0	522	471	0	479	0	0	
13	0	0	0	0	519	488	0	475	0	0	
14	0	0	0	0	515	502	0	467	0	0	
15	0	0	0	0	512	513	0	455	0	0	
0	0	0	0	0	509	517	0	441	0	0	
1	0	0	0	0	506	515	0	426	0	0	
2	0	0	0	0	504	507	0	412	0	0	
3	0	0	0	0	502	494	0	399	0	0	
4	0	0	0	0	501	478	0	388	0	0	
5	0	0	0	0	502	459	0	382	0	0	
6	0	0	0	0	503	440	0	380	0	0	
7	0	0	0	0	505	422	0	383	0	0	
8	0	0	0	0	508	407	0	390	0	0	
9	0	0	0	0	511	396	0	401	0	0	
10	0	0	0	0	514	391	0	415	0	0	
11	0	0	0	0	517	392	0	429	0	0	
12	0	0	0	0	519	399	0	444	0	0	
13	0	0	0	0	520	411	0	456	0	0	
14	0	0	0	0	521	428	0	465	0	0	
15	0	0	0	0	520	447	0	472	0	0	
0	0	0	0	0	519	466	0	473	0	0	
1	0	0	0	0	516	483	0	471	0	0	
2	0	0	0	0	514	499	0	463	0	0	
3	0	0	0	0	511	509	0	452	0	0	
4	0	0	0	0	509	515	0	439	0	0	
5	0	0	0	0	507	513	0	424	0	0	
6	0	0	0	0	505	507	0	411	0	0	
7	0	0	0	0	504	495	0	398	0	0	
8	0	0	0	0	505	480	0	388	0	0	
9	0	0	0	0	506	463	0	382	0	0	
10	0	0	0	0	508	446	0	382	0	0	
11	0	0	0	0	511	429	0	385	0	0	
12	0	0	0	0	514	415	0	393	0	0	
13	0	0	0	0	518	407	0	405	0	0	
14	0	0	0	0	521	403	0	419	0	0	
15	0	0	0	0	524	404	0	434	0	0	
0	0	0	0	0	526	412	0	449	0	0	
1	0	0	0	0	527	423	0	462	0	0	
2	0	0	0	0	528	440	0	472	0	0	
3	0	0	0	0	527	457	0	478	0	0	
4	0	0	0	0	525	476	0	479	0	0	
5	0	0	0	0	521	492	0	475	0	0	
6	0	0	0	0	517	506	0	466	0	0	
7	0	0	0	0	513	515	0	454	0	0	
8	0	0	0	0	509	519	0	440	0	0	
9	0	0	0	0	505	518	0	424	0	0	
10	0	0	0	0	502	509	0	410	0	0	
11	0	0	0	0	500	497	0	397	0	0	
12	0	0	0	0	500	482	0	387	0	0	
13	0	0	0	0	501	463	0	381	0	0	
14	0	0	0	0	503	444	0	379	0	0	
15	0	0	0	0	506	426	0	383	0	0	
0	0	0	0	0	510	411	0	391	0	0	
1	0	0	0	0	514	401	0	402	0	0	
2	0	0	0	0	517	395	0	416	0	0	
3	0	0	0	0	520	396	0	431	0	0	
4	0	0	0	0	523	402	0	446	0	0	
5	0	0	0	0	524	414	0	459	0	0	
6	0	0	0	0	526	430	0	469	0	0	
7	0	0	0	0	525	448	0	476	0	0	
8	0	0	0	0	523	466	0	478	0	0	
9	0	0	0	0	521	484	0	475	0	0	
10	0	0	0	0	517	499	0	467	0	0	
11	0	0	0	0	514	510	0	457	0	0	
12	0	0	0	0	511	515	0	444	0	0	
13	0	0	0	0	509	514	0	430	0	0	
14	0	0	0	0	506	508	0	416	0	0	
15	0	0	0	0	505	497	0	405	0	0	
0	0	0	0	0	505	482	0	395	0	0	
1	0	0	0	0	506	465	0	390	0	0	
2	0	0	0	0	508	447	0	388	0	0	
3	0	0	0	0	510	430	0	392	0	0	
4	0	0	0	0	513	416	0	399	0	0	
5	0	0	0	0	517	407	0	410	0	0	
6	0	0	0	0	521	403	0	423	0	0	
7	0	0	0	0	524	405	0	438	0	0	
8	0	0	0	0	527	412	0	452	0	0	
9	0	0	0	0	529	424	0	464	0	0	
10	0	0	0	0	530	440	0	474	0	0	
11	0	0	0	0	530	459	0	480	0	0	
12	0	0	0	0	528	477	0	481	0	0	
13	0	0	0	0	526	494	0	478	0	0	
14	0	0	0	0	522	508	0	471	0	0	
15	0	0	0	0	519	518	0	460	0	0	
0	0	0	0	0	515	522	0	447	0	0	
1	0	0	0	0	512	520	0	432	0	0	
2	0	0	0	0	509	512	0	419	0	0	
3	0	0	0	0	507	499	0	406	0	0	
4	0	0	0	0	506	484	0	396	0	0	
5	0	0	0	0	506	465	0	391	0	0	
6	0	0	0	0	507	447	0	389	0	0	
7	0	0	0	0	508	429	0	392	0	0	
8	0	0	0	0	511	415	0	400	0	0	
9	0	0	0	0	514	405	0	411	0	0	
10	0	0	0	0	518	401	0	424	0	0	
11	0	0	0	0	520	402	0	438	0	0	
12	0	0	0	0	523	409	0	452	0	0	
13	0	0	0	0	524	421	0	464	0	0	
14	0	0	0	0	526	437	0	474	0	0	
15	0	0	0	0	525	454	0	480	0	0	
0	0	0	0	0	524	473	0	481	0	0	
1	0	0	0	0	521	491	0	478	0	0	
2	0	0	0	0	518	504	0	470	0	0	
3	0	0	0	0	515	515	0	459	0	0	
4	0	0	0	0	511	519	0	446	0	0	
5	0	0	0	0	508	518	0	432	0	0	
6	0	0	0	0	505	510	0	418	0	0	
7	0	0	0	0	503	498	0	406	0	0	
8	0	0	0	0	502	482	0	396	0	0	
9	0	0	0	0	502	463	0	390	0	0	
10	0	0	0	0	504	444	0	389	0	0	
11	0	0	0	0	506	427	0	392	0	0	
12	0	0	0	0	509	412	0	399	0	0	
13	0	0	0	0	512	403	0	410	0	0	
14	0	0	0	0	516	399	0	423	0	0	
15	0	0	0	0	519	400	0	437	0	0	
0	0	0	0	0	521	408	0	451	0	0	
1	0	0	0	0	523	420	0	463	0	0	
2	0	0	0	0	524	438	0	473	0	0	
3	0	0	0	0	524	456	0	479	0	0	
4	0	0	0	0	522	476	0	480	0	0	
5	0	0	0	0	520	494	0	477	0	0	
6	0	0	0	0	516	508	0	469	0	0	
7	0	0	0	0	513	519	0	457	0	0	
8	0	0	0	0	510	523	0	444	0	0	
9	0	0	0	0	506	521	0	429	0	0	
10	0	0	0	0	503	513	0	415	0	0	
11	0	0	0	0	501	500	0	403	0	0	
12	0	0	0	0	500	484	0	392	0	0	
13	0	0	0	0	500	465	0	386	0	0	
14	0	0	0	0	500	446	0	384	0	0	
15	0	0	0	0	502	428	0	386	0	0	
0	0	0	0	0	504	412	0	392	0	0	
1	0	0	0	0	507	402	0	403	0	0	
2	0	0	0	0	510	397	0	415	0	0	
3	0	0	0	0	512	399	0	429	0	0	
4	0	0	0	0	515	406	0	443	0	0	
5	0	0	0	0	516	417	0	454	0	0	
6	0	0	0	0	518	435	0	463	0	0	
7	0	0	0	0	518	453	0	470	0	0	
8	0	0	0	0	517	472	0	472	0	0	
9	0	0	0	0	515	491	0	470	0	0	
10	0	0	0	0	513	506	0	463	0	0	
11	0	0	0	0	510	517	0	453	0	0	
12	0	0	0	0	508	522	0	441	0	0	
13	0	0	0	0	505	521	0	428	0	0	
14	0	0	0	0	503	514	0	415	0	0	
15	0	0	0	0	502	502	0	403	0	0	
0	0	0	0	0	502	487	0	395	0	0	
1	0	0	0	0	503	470	0	390	0	0	
2	0	0	0	0	504	451	0	388	0	0	
3	0	0	0	0	508	433	0	392	0	0	
4	0	0	0	0	511	419	0	400	0	0	
5	0	0	0	0	515	409	0	411	0	0	
6	0	0	0	0	519	404	0	424	0	0	
7	0	0	0	0	524	406	0	439	0	0	
8	0	0	0	0	526	412	0	453	0	0	
9	0	0	0	0	528	425	0	464	0	0	
10	0	0	0	0	530	441	0	474	0	0	
11	0	0	0	0	530	459	0	480	0	0	
12	0	0	0	0	529	478	0	480	0	0	
13	0	0	0	0	527	496	0	476	0	0	
14	0	0	0	0	523	510	0	469	0	0	
15	0	0	0	0	519	520	0	457	0	0	
0	0	0	0	0	516	524	0	443	0	0	
1	0	0	0	0	512	522	0	429	0	0	
2	0	0	0	0	510	515	0	415	0	0	
3	0	0	0	0	507	502	0	402	0	0	
4	0	0	0	0	507	486	0	392	0	0	
5	0	0	0	0	507	468	0	386	0	0	
6	0	0	0	0	508	449	0	385	0	0	
7	0	0	0	0	510	431	0	388	0	0	
8	0	0	0	0	512	416	0	396	0	0	
9	0	0	0	0	516	407	0	408	0	0	
10	0	0	0	0	520	403	0	422	0	0	
11	0	0	0	0	524	404	0	438	0	0	
12	0	0	0	0	527	413	0	453	0	0	
13	0	0	0	0	528	426	0	465	0	0	
14	0	0	0	0	530	444	0	476	0	0	
15	0	0	0	0	530	463	0	483	0	0	
0	0	0	0	0	529	483	0	485	0	0	
1	0	0	0	0	526	501	0	482	0	0	
2	0	0	0	0	524	516	0	474	0	0	
3	0	0	0	0	521	527	0	463	0	0	
4	0	0	0	0	518	531	0	449	0	0	
5	0	0	0	0	515	529	0	433	0	0	
6	0	0	0	0	513	521	0	419	0	0	
7	0	0	0	0	511	508	0	406	0	0	
8	0	0	0	0	510	491	0	395	0	0	
9	0	0	0	0	511	472	0	389	0	0	
10	0	0	0	0	511	452	0	387	0	0	
11	0	0	0	0	513	433	0	391	0	0	
12	0	0	0	0	516	419	0	398	0	0	
13	0	0	0	0	520	409	0	410	0	0	
14	0	0	0	0	523	404	0	424	0	0	
15	0	0	0	0	526	405	0	440	0	0	
0	0	0	0	0	528	412	0	455	0	0	
1	0	0	0	0	530	424	0	469	0	0	
2	0	0	0	0	531	440	0	480	0	0	
3	0	0	0	0	531	458	0	487	0	0	
4	0	0	0	0	530	477	0	489	0	0	
5	0	0	0	0	527	494	0	487	0	0	
6	0	0	0	0	524	508	0	479	0	0	
7	0	0	0	0	521	519	0	468	0	0	
8	0	0	0	0	517	524	0	454	0	0	
9	0	0	0	0	514	522	0	440	0	0	
10	0	0	0	0	511	515	0	425	0	0	
11	0	0	0	0	509	502	0	410	0	0	
12	0	0	0	0	508	486	0	400	0	0	
13	0	0	0	0	507	466	0	393	0	0	
14	0	0	0	0	508	447	0	390	0	0	
15	0	0	0	0	509	428	0	392	0	0	
0	0	0	0	0	511	412	0	398	0	0	
1	0	0	0	0	514	401	0	408	0	0	
2	0	0	0	0	517	396	0	420	0	0	
3	0	0	0	0	519	397	0	433	0	0	
4	0	0	0	0	521	403	0	447	0	0	
5	0	0	0	0	522	414	0	458	0	0	
6	0	0	0	0	523	431	0	467	0	0	
7	0	0	0	0	523	449	0	473	0	0	
8	0	0	0	0	521	468	0	474	0	0	
9	0	0	0	0	519	486	0	472	0	0	
10	0	0	0	0	516	500	0	464	0	0	
11	0	0	0	0	513	511	0	453	0	0	
12	0	0	0	0	510	516	0	440	0	0	
13	0	0	0	0	507	515	0	426	0	0	
14	0	0	0	0	504	507	0	412	0	0	
15	0	0	0	0	502	495	0	400	0	0	
0	0	0	0	0	501	479	0	391	0	0	
1	0	0	0	0	500	460	0	384	0	0	
2	0	0	0	0	501	441	0	383	0	0	
3	0	0	0	0	503	423	0	386	0	0	
4	0	0	0	0	505	407	0	393	0	0	
5	0	0	0	0	509	397	0	404	0	0	
6	0	0	0	0	512	393	0	417	0	0	
7	0	0	0	0	515	394	0	432	0	0	
8	0	0	0	0	518	400	0	447	0	0	
9	0	0	0	0	520	414	0	459	0	0	
10	0	0	0	0	522	430	0	469	0	0	
11	0	0	0	0	522	448	0	476	0	0	
12	0	0	0	0	521	468	0	478	0	0	
13	0	0	0	0	519	486	0	475	0	0	
14	0	0	0	0	516	502	0	467	0	0	
15	0	0	0	0	514	513	0	456	0	0	
0	0	0	0	0	511	518	0	443	0	0	
1	0	0	0	0	509	517	0	429	0	0	
2	0	0	0	0	507	510	0	415	0	0	
3	0	0	0	0	505	498	0	403	0	0	
4	0	0	0	0	505	481	0	393	0	0	
5	0	0	0	0	506	462	0	387	0	0	
6	0	0	0	0	507	443	0	386	0	0	
7	0	0	0	0	509	424	0	389	0	0	
8	0	0	0	0	512	409	0	396	0	0	
9	0	0	0	0	516	399	0	407	0	0	
10	0	0	0	0	519	394	0	421	0	0	
11	0	0	0	0	523	396	0	435	0	0	
12	0	0	0	0	525	403	0	449	0	0	
13	0	0	0	0	527	416	0	462	0	0	
14	0	0	0	0	528	433	0	472	0	0	
15	0	0	0	0	528	453	0	478	0	0	
0	0	0	0	0	527	473	0	481	0	0	
1	0	0	0	0	526	492	0	478	0	0	
2	0	0	0	0	523	508	0	471	0	0	
3	0	0	0	0	521	519	0	460	0	0	
4	0	0	0	0	518	524	0	448	0	0	
5	0	0	0	0	515	524	0	434	0	0	
6	0	0	0	0	513	517	0	421	0	0	
7	0	0	0	0	512	505	0	409	0	0	
8	0	0	0	0	512	490	0	401	0	0	
9	0	0	0	0	513	472	0	396	0	0	
10	0	0	0	0	515	454	0	395	0	0	
11	0	0	0	0	518	436	0	399	0	0	
12	0	0	0	0	521	423	0	407	0	0	
13	0	0	0	0	526	413	0	419	0	0	
14	0	0	0	0	529	408	0	433	0	0	
15	0	0	0	0	532	410	0	448	0	0	
0	0	0	0	0	536	418	0	462	0	0	
1	0	0	0	0	537	430	0	474	0	0	
2	0	0	0	0	538	447	0	483	0	0	
3	0	0	0	0	538	465	0	489	0	0	
4	0	0	0	0	536	484	0	490	0	0	
5	0	0	0	0	533	502	0	486	0	0	
6	0	0	0	0	529	517	0	478	0	0	
7	0	0	0	0	526	527	0	466	0	0	
8	0	0	0	0	522	531	0	452	0	0	
9	0	0	0	0	518	529	0	437	0	0	
10	0	0	0	0	515	520	0	423	0	0	
11	0	0	0	0	513	508	0	411	0	0	
12	0	0	0	0	512	491	0	400	0	0	
13	0	0	0	0	513	472	0	395	0	0	
14	0	0	0	0	514	452	0	393	0	0	
15	0	0	0	0	516	433	0	397	0	0	
0	0	0	0	0	519	419	0	404	0	0	
1	0	0	0	0	523	408	0	415	0	0	
2	0	0	0	0	526	403	0	429	0	0	
3	0	0	0	0	529	404	0	444	0	0	
4	0	0	0	0	531	411	0	458	0	0	
5	0	0	0	0	532	424	0	470	0	0	
6	0	0	0	0	532	440	0	480	0	0	
7	0	0	0	0	531	459	0	485	0	0	
8	0	0	0	0	529	478	0	486	0	0	
9	0	0	0	0	526	495	0	483	0	0	
10	0	0	0	0	523	511	0	475	0	0	
11	0	0	0	0	519	521	0	463	0	0	
12	0	0	0	0	517	527	0	450	0	0	
13	0	0	0	0	515	526	0	436	0	0	
14	0	0	0	0	513	519	0	423	0	0	
15	0	0	0	0	512	508	0	410	0	0	
0	0	0	0	0	513	493	0	401	0	0	
1	0	0	0	0	515	475	0	396	0	0	
2	0	0	0	0	518	456	0	395	0	0	
3	0	0	0	0	520	439	0	398	0	0	
4	0	0	0	0	523	424	0	404	0	0	
5	0	0	0	0	526	412	0	415	0	0	
6	0	0	0	0	527	406	0	426	0	0	
7	0	0	0	0	527	404	0	438	0	0	
8	0	0	0	0	525	406	0	448	0	0	
9	0	0	0	0	521	414	0	455	0	0	
10	0	0	0	0	515	423	0	458	0	0	
11	0	0	0	0	506	434	0	456	0	0	
12	0	0	0	0	495	445	0	449	0	0	
13	0	0	0	0	482	453	0	436	0	0	
14	0	0	0	0	468	458	0	418	0	0	
15	0	0	0	0	453	458	0	396	0	0	
0	0	0	0	0	437	451	0	371	0	0	
1	0	0	0	0	422	440	0	345	0	0	
2	0	0	0	0	407	422	0	320	0	0	
3	0	0	0	0	393	398	0	295	0	0	
4	0	0	0	0	380	371	0	274	0	0	
5	0	0	0	0	369	341	0	256	0	0	
6	0	0	0	0	359	310	0	243	0	0	
7	0	0	0	0	351	281	0	233	0	0	
8	0	0	0	0	343	253	0	228	0	0	
9	0	0	0	0	336	231	0	228	0	0	
10	0	0	0	0	329	213	0	231	0	0	
11	0	0	0	0	323	201	0	235	0	0	
12	0	0	0	0	316	196	0	240	0	0	
13	0	0	0	0	310	198	0	245	0	0	
14	0	0	0	0	304	205	0	249	0	0	
15	0	0	0	0	299	218	0	252	0	0	
0	0	0	0	0	295	235	0	254	0	0	
1	0	0	0	0	294	254	0	253	0	0	
2	0	0	0	0	294	274	0	251	0	0	
3	0	0	0	0	299	293	0	248	0	0	
4	0	0	0	0	307	310	0	247	0	0	
5	0	0	0	0	319	325	0	247	0	0	
6	0	0	0	0	335	335	0	250	0	0	
7	0	0	0	0	355	343	0	256	0	0	
8	0	0	0	0	377	349	0	268	0	0	
9	0	0	0	0	403	353	0	284	0	0	
10	0	0	0	0	429	356	0	304	0	0	
11	0	0	0	0	457	360	0	330	0	0	
12	0	0	0	0	484	366	0	359	0	0	
13	0	0	0	0	510	376	0	390	0	0	
14	0	0	0	0	533	388	0	422	0	0	
15	0	0	0	0	552	404	0	453	0	0	
0	0	0	0	0	567	423	0	480	0	0	
1	0	0	0	0	576	446	0	503	0	0	
2	0	0	0	0	582	470	0	519	0	0	
3	0	0	0	0	583	495	0	529	0	0	
4	0	0	0	0	579	517	0	532	0	0	
5	0	0	0	0	572	536	0	527	0	0	
6	0	0	0	0	563	550	0	517	0	0	
7	0	0	0	0	552	558	0	501	0	0	
8	0	0	0	0	541	559	0	483	0	0	
9	0	0	0	0	531	554	0	463	0	0	
10	0	0	0	0	523	543	0	444	0	0	
11	0	0	0	0	516	526	0	427	0	0	
12	0	0	0	0	512	507	0	414	0	0	
13	0	0	0	0	511	486	0	405	0	0	
14	0	0	0	0	512	465	0	403	0	0	
15	0	0	0	0	516	446	0	406	0	0	
0	0	0	0	0	520	431	0	414	0	0	
1	0	0	0	0	527	421	0	426	0	0	
2	0	0	0	0	535	417	0	441	0	0	
3	0	0	0	0	541	420	0	458	0	0	
4	0	0	0	0	547	428	0	474	0	0	
5	0	0	0	0	551	442	0	487	0	0	
6	0	0	0	0	555	460	0	499	0	0	
7	0	0	0	0	556	479	0	505	0	0	
8	0	0	0	0	555	499	0	507	0	0	
9	0	0	0	0	553	518	0	504	0	0	
10	0	0	0	0	548	532	0	496	0	0	
11	0	0	0	0	545	543	0	484	0	0	
12	0	0	0	0	540	548	0	470	0	0	
13	0	0	0	0	536	547	0	454	0	0	
14	0	0	0	0	531	539	0	440	0	0	
15	0	0	0	0	528	527	0	426	0	0	
0	0	0	0	0	527	510	0	416	0	0	
1	0	0	0	0	526	491	0	410	0	0	
2	0	0	0	0	527	472	0	409	0	0	
3	0	0	0	0	529	454	0	412	0	0	
4	0	0	0	0	531	440	0	419	0	0	
5	0	0	0	0	536	429	0	430	0	0	
6	0	0	0	0	539	424	0	444	0	0	
7	0	0	0	0	542	425	0	459	0	0	
8	0	0	0	0	545	432	0	473	0	0	
9	0	0	0	0	547	444	0	487	0	0	
10	0	0	0	0	548	462	0	497	0	0	
11	0	0	0	0	549	480	0	504	0	0	
12	0	0	0	0	548	500	0	507	0	0	
13	0	0	0	0	546	518	0	504	0	0	
14	0	0	0	0	543	532	0	497	0	0	
15	0	0	0	0	540	543	0	486	0	0	
0	0	0	0	0	537	548	0	473	0	0	
1	0	0	0	0	535	546	0	459	0	0	
2	0	0	0	0	532	539	0	445	0	0	
3	0	0	0	0	530	526	0	432	0	0	
4	0	0	0	0	530	510	0	423	0	0	
5	0	0	0	0	530	491	0	417	0	0	
6	0	0	0	0	531	472	0	415	0	0	
7	0	0	0	0	534	455	0	417	0	0	
8	0	0	0	0	536	440	0	425	0	0	
9	0	0	0	0	539	430	0	436	0	0	
10	0	0	0	0	542	426	0	449	0	0	
11	0	0	0	0	545	427	0	463	0	0	
12	0	0	0	0	547	434	0	476	0	0	
13	0	0	0	0	547	445	0	488	0	0	
14	0	0	0	0	548	462	0	497	0	0	
15	0	0	0	0	548	480	0	502	0	0	
0	0	0	0	0	546	498	0	502	0	0	
1	0	0	0	0	543	514	0	499	0	0	
2	0	0	0	0	540	528	0	490	0	0	
3	0	0	0	0	536	538	0	478	0	0	
4	0	0	0	0	532	542	0	464	0	0	
5	0	0	0	0	529	540	0	449	0	0	
6	0	0	0	0	526	532	0	435	0	0	
7	0	0	0	0	524	519	0	423	0	0	
8	0	0	0	0	523	503	0	413	0	0	
9	0	0	0	0	524	484	0	408	0	0	
10	0	0	0	0	524	465	0	407	0	0	
11	0	0	0	0	527	448	0	411	0	0	
12	0	0	0	0	530	434	0	418	0	0	
13	0	0	0	0	534	424	0	430	0	0	
14	0	0	0	0	537	419	0	444	0	0	
15	0	0	0	0	540	421	0	458	0	0	
0	0	0	0	0	543	428	0	472	0	0	
1	0	0	0	0	544	441	0	484	0	0	
2	0	0	0	0	546	457	0	493	0	0	
3	0	0	0	0	545	476	0	498	0	0	
4	0	0	0	0	544	495	0	499	0	0	
5	0	0	0	0	542	514	0	496	0	0	
6	0	0	0	0	539	528	0	488	0	0	
7	0	0	0	0	536	539	0	476	0	0	
8	0	0	0	0	532	543	0	463	0	0	
9	0	0	0	0	529	542	0	448	0	0	
10	0	0	0	0	527	534	0	435	0	0	
11	0	0	0	0	526	521	0	422	0	0	
12	0	0	0	0	525	505	0	412	0	0	
13	0	0	0	0	525	486	0	406	0	0	
14	0	0	0	0	527	467	0	404	0	0	
15	0	0	0	0	528	448	0	408	0	0	
0	0	0	0	0	531	434	0	415	0	0	
1	0	0	0	0	534	424	0	425	0	0	
2	0	0	0	0	537	419	0	439	0	0	
3	0	0	0	0	540	421	0	454	0	0	
4	0	0	0	0	542	428	0	468	0	0	
5	0	0	0	0	543	441	0	480	0	0	
6	0	0	0	0	545	457	0	490	0	0	
7	0	0	0	0	545	476	0	496	0	0	
8	0	0	0	0	543	496	0	497	0	0	
9	0	0	0	0	541	513	0	494	0	0	
10	0	0	0	0	538	528	0	486	0	0	
11	0	0	0	0	535	538	0	475	0	0	
12	0	0	0	0	532	542	0	462	0	0	
13	0	0	0	0	529	540	0	447	0	0	
14	0	0	0	0	527	532	0	432	0	0	
15	0	0	0	0	525	519	0	419	0	0	
0	0	0	0	0	524	503	0	409	0	0	
1	0	0	0	0	524	484	0	403	0	0	
2	0	0	0	0	525	464	0	401	0	0	
3	0	0	0	0	526	446	0	404	0	0	
4	0	0	0	0	528	432	0	411	0	0	
5	0	0	0	0	531	422	0	422	0	0	
6	0	0	0	0	534	417	0	435	0	0	
7	0	0	0	0	536	419	0	450	0	0	
8	0	0	0	0	539	426	0	464	0	0	
9	0	0	0	0	539	438	0	477	0	0	
10	0	0	0	0	540	455	0	486	0	0	
11	0	0	0	0	540	474	0	493	0	0	
12	0	0	0	0	538	493	0	494	0	0	
13	0	0	0	0	536	510	0	492	0	0	
14	0	0	0	0	532	525	0	484	0	0	
15	0	0	0	0	529	535	0	473	0	0	
0	0	0	0	0	526	538	0	460	0	0	
1	0	0	0	0	523	536	0	445	0	0	
2	0	0	0	0	520	528	0	431	0	0	
3	0	0	0	0	519	516	0	418	0	0	
4	0	0	0	0	519	499	0	408	0	0	
5	0	0	0	0	519	480	0	401	0	0	
6	0	0	0	0	520	461	0	399	0	0	
7	0	0	0	0	523	443	0	402	0	0	
8	0	0	0	0	525	428	0	409	0	0	
9	0	0	0	0	529	417	0	420	0	0	
10	0	0	0	0	531	412	0	433	0	0	
11	0	0	0	0	534	413	0	447	0	0	
12	0	0	0	0	535	419	0	460	0	0	
13	0	0	0	0	536	432	0	472	0	0	
14	0	0	0	0	536	447	0	481	0	0	
15	0	0	0	0	534	464	0	487	0	0	
0	0	0	0	0	531	482	0	487	0	0	
1	0	0	0	0	527	498	0	484	0	0	
2	0	0	0	0	523	512	0	475	0	0	
3	0	0	0	0	519	522	0	463	0	0	
4	0	0	0	0	515	526	0	449	0	0	
5	0	0	0	0	512	524	0	434	0	0	
6	0	0	0	0	510	517	0	420	0	0	
7	0	0	0	0	508	504	0	408	0	0	
8	0	0	0	0	509	488	0	398	0	0	
9	0	0	0	0	510	470	0	392	0	0	
10	0	0	0	0	512	451	0	391	0	0	
11	0	0	0	0	514	433	0	394	0	0	
12	0	0	0	0	518	419	0	402	0	0	
13	0	0	0	0	523	409	0	413	0	0	
14	0	0	0	0	526	404	0	427	0	0	
15	0	0	0	0	528	406	0	441	0	0	
0	0	0	0	0	531	413	0	455	0	0	
1	0	0	0	0	532	424	0	468	0	0	
2	0	0	0	0	534	440	0	478	0	0	
3	0	0	0	0	533	458	0	484	0	0	
4	0	0	0	0	532	477	0	486	0	0	
5	0	0	0	0	529	494	0	484	0	0	
6	0	0	0	0	526	509	0	476	0	0	
7	0	0	0	0	523	519	0	465	0	0	
8	0	0	0	0	520	523	0	452	0	0	
9	0	0	0	0	518	522	0	438	0	0	
10	0	0	0	0	515	515	0	423	0	0	
11	0	0	0	0	515	503	0	411	0	0	
12	0	0	0	0	514	487	0	402	0	0	
13	0	0	0	0	515	468	0	396	0	0	
14	0	0	0	0	517	450	0	395	0	0	
15	0	0	0	0	519	432	0	398	0	0	
0	0	0	0	0	521	417	0	406	0	0	
1	0	0	0	0	524	407	0	415	0	0	
2	0	0	0	0	527	403	0	429	0	0	
3	0	0	0	0	529	404	0	443	0	0	
4	0	0	0	0	531	412	0	456	0	0	
5	0	0	0	0	531	423	0	468	0	0	
6	0	0	0	0	532	440	0	477	0	0	
7	0	0	0	0	532	458	0	483	0	0	
8	0	0	0	0	530	478	0	484	0	0	
9	0	0	0	0	527	495	0	482	0	0	
10	0	0	0	0	524	510	0	475	0	0	
11	0	0	0	0	522	520	0	464	0	0	
12	0	0	0	0	519	525	0	451	0	0	
13	0	0	0	0	517	524	0	437	0	0	
14	0	0	0	0	515	516	0	424	0	0	
15	0	0	0	0	514	505	0	412	0	0	
0	0	0	0	0	514	490	0	403	0	0	
1	0	0	0	0	515	472	0	398	0	0	
2	0	0	0	0	516	454	0	397	0	0	
3	0	0	0	0	519	437	0	401	0	0	
4	0	0	0	0	522	423	0	408	0	0	
5	0	0	0	0	526	414	0	419	0	0	
6	0	0	0	0	530	410	0	433	0	0	
7	0	0	0	0	533	412	0	448	0	0	
8	0	0	0	0	536	419	0	462	0	0	
9	0	0	0	0	537	433	0	473	0	0	
10	0	0	0	0	539	449	0	483	0	0	
11	0	0	0	0	540	467	0	489	0	0	
12	0	0	0	0	538	486	0	491	0	0	
13	0	0	0	0	536	503	0	487	0	0	
14	0	0	0	0	533	517	0	480	0	0	
15	0	0	0	0	530	527	0	469	0	0	
0	0	0	0	0	527	531	0	455	0	0	
1	0	0	0	0	524	529	0	441	0	0	
2	0	0	0	0	521	521	0	428	0	0	
3	0	0	0	0	519	508	0	415	0	0	
4	0	0	0	0	519	492	0	405	0	0	
5	0	0	0	0	519	473	0	399	0	0	
6	0	0	0	0	520	455	0	397	0	0	
7	0	0	0	0	522	436	0	400	0	0	
8	0	0	0	0	524	422	0	407	0	0	
9	0	0	0	0	527	412	0	417	0	0	
10	0	0	0	0	530	407	0	430	0	0	
11	0	0	0	0	532	409	0	444	0	0	
12	0	0	0	0	534	416	0	457	0	0	
13	0	0	0	0	534	429	0	469	0	0	
14	0	0	0	0	536	445	0	478	0	0	
15	0	0	0	0	535	464	0	483	0	0	
0	0	0	0	0	533	483	0	484	0	0	
1	0	0	0	0	531	500	0	481	0	0	
2	0	0	0	0	527	515	0	473	0	0	
3	0	0	0	0	524	525	0	462	0	0	
4	0	0	0	0	521	529	0	448	0	0	
5	0	0	0	0	519	527	0	434	0	0	
6	0	0	0	0	516	519	0	420	0	0	
7	0	0	0	0	515	506	0	408	0	0	
8	0	0	0	0	514	490	0	398	0	0	
9	0	0	0	0	515	472	0	392	0	0	
10	0	0	0	0	516	453	0	391	0	0	
11	0	0	0	0	519	435	0	395	0	0	
12	0	0	0	0	522	422	0	402	0	0	
13	0	0	0	0	526	413	0	414	0	0	
14	0	0	0	0	530	409	0	428	0	0	
15	0	0	0	0	533	412	0	443	0	0	
0	0	0	0	0	536	419	0	457	0	0	
1	0	0	0	0	537	432	0	470	0	0	
2	0	0	0	0	538	449	0	480	0	0	
3	0	0	0	0	538	467	0	486	0	0	
4	0	0	0	0	536	486	0	487	0	0	
5	0	0	0	0	534	503	0	484	0	0	
6	0	0	0	0	529	517	0	476	0	0	
7	0	0	0	0	526	527	0	465	0	0	
8	0	0	0	0	522	530	0	452	0	0	
9	0	0	0	0	519	529	0	438	0	0	
10	0	0	0	0	516	521	0	425	0	0	
11	0	0	0	0	514	509	0	412	0	0	
12	0	0	0	0	514	492	0	403	0	0	
13	0	0	0	0	514	474	0	398	0	0	
14	0	0	0	0	516	455	0	396	0	0	
15	0	0	0	0	518	438	0	400	0	0	
0	0	0	0	0	521	424	0	407	0	0	
1	0	0	0	0	524	415	0	418	0	0	
2	0	0	0	0	527	411	0	431	0	0	
3	0	0	0	0	530	412	0	445	0	0	
4	0	0	0	0	532	420	0	459	0	0	
5	0	0	0	0	533	433	0	471	0	0	
6	0	0	0	0	535	449	0	481	0	0	
7	0	0	0	0	534	468	0	487	0	0	
8	0	0	0	0	532	487	0	488	0	0	
9	0	0	0	0	530	505	0	485	0	0	
10	0	0	0	0	527	520	0	477	0	0	
11	0	0	0	0	525	531	0	467	0	0	
12	0	0	0	0	522	536	0	454	0	0	
13	0	0	0	0	520	535	0	440	0	0	
14	0	0	0	0	519	528	0	427	0	0	
15	0	0	0	0	519	517	0	415	0	0	
0	0	0	0	0	519	501	0	406	0	0	
1	0	0	0	0	521	483	0	401	0	0	
2	0	0	0	0	523	465	0	400	0	0	
3	0	0	0	0	526	447	0	403	0	0	
4	0	0	0	0	529	433	0	411	0	0	
5	0	0	0	0	533	423	0	422	0	0	
6	0	0	0	0	535	418	0	435	0	0	
7	0	0	0	0	537	419	0	448	0	0	
8	0	0	0	0	538	425	0	462	0	0	
9	0	0	0	0	537	437	0	472	0	0	
10	0	0	0	0	537	451	0	481	0	0	
11	0	0	0	0	535	468	0	486	0	0	
12	0	0	0	0	531	486	0	486	0	0	
13	0	0	0	0	527	501	0	481	0	0	
14	0	0	0	0	523	515	0	472	0	0	
15	0	0	0	0	519	524	0	459	0	0	
0	0	0	0	0	515	527	0	445	0	0	
1	0	0	0	0	511	524	0	430	0	0	
2	0	0	0	0	509	516	0	416	0	0	
3	0	0	0	0	507	504	0	403	0	0	
4	0	0	0	0	508	487	0	395	0	0	
5	0	0	0	0	509	470	0	390	0	0	
6	0	0	0	0	511	451	0	389	0	0	
7	0	0	0	0	515	434	0	393	0	0	
8	0	0	0	0	519	420	0	402	0	0	
9	0	0	0	0	523	412	0	414	0	0	
10	0	0	0	0	527	408	0	429	0	0	
11	0	0	0	0	531	409	0	444	0	0	
12	0	0	0	0	533	417	0	459	0	0	
13	0	0	0	0	536	429	0	472	0	0	
14	0	0	0	0	536	446	0	482	0	0	
15	0	0	0	0	536	464	0	487	0	0	
0	0	0	0	0	534	482	0	488	0	0	
1	0	0	0	0	531	499	1	483	0	0	
2	0	0	0	0	527	513	0	476	0	0	
3	0	0	0	0	524	523	0	463	0	0	
4	0	0	0	0	520	527	0	449	0	0	
5	0	0	0	0	518	526	0	434	0	0	
6	0	0	0	0	515	518	0	419	0	0	
7	0	0	0	0	513	506	0	407	0	0	
8	0	0	0	0	513	490	0	397	0	0	
9	0	0	0	0	514	472	0	391	0	0	
10	0	0	0	0	516	452	0	391	0	0	
11	0	0	0	0	519	435	0	395	0	0	
12	0	0	0	0	522	421	0	403	0	0	
13	0	0	0	0	526	411	0	415	0	0	
14	0	0	0	0	529	407	0	430	0	0	
15	0	0	0	0	532	408	0	445	0	0	
0	0	0	0	0	534	415	0	460	0	0	
1	0	0	0	0	535	429	0	472	0	0	
2	0	0	0	0	536	445	0	483	0	0	
3	0	0	0	0	536	464	0	488	0	0	
4	0	0	0	0	534	483	0	490	0	0	
5	0	0	0	0	531	501	0	486	0	0	
6	0	0	0	0	527	515	0	478	0	0	
7	0	0	0	0	524	525	0	467	0	0	
8	0	0	0	0	521	529	0	454	0	0	
9	0	0	0	0	518	527	0	439	0	0	
10	0	0	0	0	516	519	0	425	0	0	
11	0	0	0	0	515	507	0	412	0	0	
12	0	0	0	0	515	491	0	402	0	0	
13	0	0	0	0	516	472	0	396	0	0	
14	0	0	0	0	518	454	0	395	0	0	
15	0	0	0	0	521	436	0	398	0	0	
0	0	0	0	0	524	423	0	405	0	0	
1	0	0	0	0	528	414	0	416	0	0	
2	0	0	0	0	531	410	0	430	0	0	
3	0	0	0	0	535	412	0	444	0	0	
4	0	0	0	0	536	420	0	457	0	0	
5	0	0	0	0	537	432	0	470	0	0	
6	0	0	0	0	538	449	0	480	0	0	
7	0	0	0	0	537	467	0	486	0	0	
8	0	0	0	0	536	486	0	487	0	0	
9	0	0	0	0	532	503	0	484	0	0	
10	0	0	0	0	529	518	0	478	0	0	
11	0	0	0	0	526	527	0	467	0	0	
12	0	0	0	0	523	532	0	454	0	0	
13	0	0	0	0	520	529	0	439	0	0	
14	0	0	0	0	518	521	0	425	0	0	
15	0	0	0	0	516	508	0	412	0	0	
0	0	0	0	0	515	492	0	402	0	0	
1	0	0	0	0	516	473	0	396	0	0	
2	0	0	0	0	517	454	0	394	0	0	
3	0	0	0	0	519	436	0	397	0	0	
4	0	0	0	0	521	422	0	403	0	0	
5	0	0	0	0	525	412	0	414	0	0	
6	0	0	0	0	527	408	0	427	0	0	
7	0	0	0	0	530	410	0	441	0	0	
8	0	0	0	0	532	418	0	455	0	0	
9	0	0	0	0	533	430	0	468	0	0	
