# OpenSignals Text File Format. Version 1
# {"": {"position": 0, "device": "", "device name": "", "device connection": "", "sampling rate": 1000, "resolution": [4, 1, 1, 1, 1, 10, 10, 10, 10, 6, 6], "firmware version": 1281, "comments": "", "keywords": "", "mode": 0, "sync interval": 2, "date": "", "time": "", "channels": [1, 2, 3, 4, 5, 6], "sensor": ["RAW", "RAW", "RAW", "RAW", "RAW", "RAW"], "label": ["A1", "A2", "A3", "A4", "A5", "A6"], "column": ["nSeq", "I1", "I2", "O1", "O2", "A1", "A2", "A3", "A4", "A5", "A6"], "special": [{}, {}, {}, {}, {}, {}], "digital IO": [0, 0, 1, 1]}}
# EndOfHeader
0	0	0	0	0	522	482	1021	0	0	0	
1	0	0	0	0	522	480	1021	0	0	0	
2	0	0	0	0	523	478	1021	0	0	0	
3	0	0	0	0	524	475	1021	0	0	0	
4	0	0	0	0	526	473	1021	0	0	0	
5	0	0	0	0	529	471	1021	0	0	0	
6	0	0	0	0	532	470	1021	0	0	0	
7	0	0	0	0	537	470	1021	0	0	0	
8	0	0	0	0	542	471	1021	0	0	0	
9	0	0	0	0	547	473	1021	0	0	0	
10	0	0	0	0	551	476	1020	0	0	0	
11	0	0	0	0	553	480	1021	0	0	0	
12	0	0	0	0	554	483	1021	0	0	0	
13	0	0	0	0	553	486	1021	0	0	0	
14	0	0	0	0	554	489	1021	0	0	0	
15	0	0	0	0	554	492	1021	0	0	0	
0	0	0	0	0	555	495	1021	0	0	0	
1	0	0	0	0	556	496	1021	0	0	0	
2	0	0	0	0	556	496	1021	0	0	0	
3	0	0	0	0	555	495	1020	0	0	0	
4	0	0	0	0	552	493	1021	0	0	0	
5	0	0	0	0	550	491	1021	0	0	0	
6	0	0	0	0	549	489	1021	0	0	0	
7	0	0	0	0	548	487	1021	0	0	0	
8	0	0	0	0	549	487	1021	0	0	0	
9	0	0	0	0	550	487	1020	0	0	0	
10	0	0	0	0	552	487	1021	0	0	0	
11	0	0	0	0	553	487	1021	0	0	0	
12	0	0	0	0	553	487	1021	0	0	0	
13	0	0	0	0	551	486	1021	0	0	0	
14	0	0	0	0	549	485	1021	0	0	0	
15	0	0	0	0	545	484	1021	0	0	0	
0	0	0	0	0	539	483	1021	0	0	0	
1	0	0	0	0	532	480	1021	0	0	0	
2	0	0	0	0	525	477	1020	0	0	0	
3	0	0	0	0	518	474	1020	0	0	0	
4	0	0	0	0	513	471	1021	0	0	0	
5	0	0	0	0	509	467	1020	0	0	0	
6	0	0	0	0	508	465	1021	0	0	0	
7	0	0	0	0	510	463	1021	0	0	0	
8	0	0	0	0	515	462	1021	0	0	0	
9	0	0	0	0	522	462	1021	0	0	0	
10	0	0	0	0	531	462	1021	0	0	0	
11	0	0	0	0	540	463	1021	0	0	0	
12	0	0	0	0	548	465	1021	0	0	0	
13	0	0	0	0	552	467	1021	0	0	0	
14	0	0	0	0	554	470	1021	0	0	0	
15	0	0	0	0	551	471	1021	0	0	0	
0	0	0	0	0	546	474	1021	0	0	0	
1	0	0	0	0	539	475	1021	0	0	0	
2	0	0	0	0	530	477	1021	0	0	0	
3	0	0	0	0	521	478	1021	0	0	0	
4	0	0	0	0	513	478	1021	0	0	0	
5	0	0	0	0	507	478	1021	0	0	0	
6	0	0	0	0	504	479	1021	0	0	0	
7	0	0	0	0	504	479	1021	0	0	0	
8	0	0	0	0	505	479	1021	0	0	0	
9	0	0	0	0	510	478	1021	0	0	0	
10	0	0	0	0	515	477	1021	0	0	0	
11	0	0	0	0	522	476	1021	0	0	0	
12	0	0	0	0	527	476	1021	0	0	0	
13	0	0	0	0	532	476	1021	0	0	0	
14	0	0	0	0	536	476	1021	0	0	0	
15	0	0	0	0	538	477	1021	0	0	0	
0	0	0	0	0	539	478	1021	0	0	0	
1	0	0	0	0	539	480	1021	0	0	0	
2	0	0	0	0	537	483	1021	0	0	0	
3	0	0	0	0	536	486	1021	0	0	0	
4	0	0	0	0	534	488	1021	0	0	0	
5	0	0	0	0	533	491	1021	0	0	0	
6	0	0	0	0	534	492	1021	0	0	0	
7	0	0	0	0	535	492	1021	0	0	0	
8	0	0	0	0	537	492	1021	0	0	0	
9	0	0	0	0	540	490	1021	0	0	0	
10	0	0	0	0	544	489	1021	0	0	0	
11	0	0	0	0	548	487	1020	0	0	0	
12	0	0	0	0	552	485	1021	0	0	0	
13	0	0	0	0	556	482	1021	0	0	0	
14	0	0	0	0	558	479	1021	0	0	0	
15	0	0	0	0	559	476	1021	0	0	0	
0	0	0	0	0	559	473	1021	0	0	0	
1	0	0	0	0	557	471	1021	0	0	0	
2	0	0	0	0	554	468	1021	0	0	0	
3	0	0	0	0	550	465	1021	0	0	0	
4	0	0	0	0	545	463	1020	0	0	0	
5	0	0	0	0	540	461	1021	0	0	0	
6	0	0	0	0	535	460	1021	0	0	0	
7	0	0	0	0	530	460	1021	0	0	0	
8	0	0	0	0	526	462	1021	0	0	0	
9	0	0	0	0	524	464	1020	0	0	0	
10	0	0	0	0	522	467	1021	0	0	0	
11	0	0	0	0	524	472	1021	0	0	0	
12	0	0	0	0	527	478	1021	0	0	0	
13	0	0	0	0	533	485	1021	0	0	0	
14	0	0	0	0	541	492	1020	0	0	0	
15	0	0	0	0	550	500	1021	0	0	0	
0	0	0	0	0	560	508	1021	0	0	0	
1	0	0	0	0	569	513	1021	0	0	0	
2	0	0	0	0	575	517	1021	0	0	0	
3	0	0	0	0	579	519	1020	0	0	0	
4	0	0	0	0	578	517	1021	0	0	0	
5	0	0	0	0	575	514	1021	0	0	0	
6	0	0	0	0	569	508	1021	0	0	0	
7	0	0	0	0	561	501	1021	0	0	0	
8	0	0	0	0	552	492	1020	0	0	0	
9	0	0	0	0	542	482	1021	0	0	0	
10	0	0	0	0	531	472	1021	0	0	0	
11	0	0	0	0	520	462	1021	0	0	0	
12	0	0	0	0	508	452	1021	0	0	0	
13	0	0	0	0	496	443	1020	0	0	0	
14	0	0	0	0	484	435	1021	0	0	0	
15	0	0	0	0	473	430	1021	0	0	0	
0	0	0	0	0	466	426	1021	0	0	0	
1	0	0	0	0	462	425	1021	0	0	0	
2	0	0	0	0	461	426	1020	0	0	0	
3	0	0	0	0	465	430	1021	0	0	0	
4	0	0	0	0	473	436	1021	0	0	0	
5	0	0	0	0	485	445	1021	0	0	0	
6	0	0	0	0	500	455	1021	0	0	0	
7	0	0	0	0	518	466	1020	0	0	0	
8	0	0	0	0	536	478	1021	0	0	0	
9	0	0	0	0	555	490	1021	0	0	0	
10	0	0	0	0	572	500	1021	0	0	0	
11	0	0	0	0	586	509	1021	0	0	0	
12	0	0	0	0	597	515	1020	0	0	0	
13	0	0	0	0	603	518	1021	0	0	0	
14	0	0	0	0	603	518	1021	0	0	0	
15	0	0	0	0	599	515	1021	0	0	0	
0	0	0	0	0	589	510	1021	0	0	0	
1	0	0	0	0	575	503	1020	0	0	0	
2	0	0	0	0	559	495	1020	0	0	0	
3	0	0	0	0	540	486	1021	0	0	0	
4	0	0	0	0	523	477	1021	0	0	0	
5	0	0	0	0	506	468	1021	0	0	0	
6	0	0	0	0	492	460	1020	0	0	0	
7	0	0	0	0	482	453	1021	0	0	0	
8	0	0	0	0	476	448	1021	0	0	0	
9	0	0	0	0	473	445	1021	0	0	0	
10	0	0	0	0	476	445	1021	0	0	0	
11	0	0	0	0	481	447	1021	0	0	0	
12	0	0	0	0	491	451	1021	0	0	0	
13	0	0	0	0	504	456	1021	0	0	0	
14	0	0	0	0	521	463	1021	0	0	0	
15	0	0	0	0	538	470	1021	0	0	0	
0	0	0	0	0	556	476	1020	0	0	0	
1	0	0	0	0	573	482	1021	0	0	0	
2	0	0	0	0	586	487	1021	0	0	0	
3	0	0	0	0	596	490	1021	0	0	0	
4	0	0	0	0	600	491	1021	0	0	0	
5	0	0	0	0	598	491	1021	0	0	0	
6	0	0	0	0	590	490	1021	0	0	0	
7	0	0	0	0	577	487	1021	0	0	0	
8	0	0	0	0	560	484	1021	0	0	0	
9	0	0	0	0	542	481	1021	0	0	0	
10	0	0	0	0	523	479	1021	0	0	0	
11	0	0	0	0	506	478	1021	0	0	0	
12	0	0	0	0	492	479	1021	0	0	0	
13	0	0	0	0	483	481	1021	0	0	0	
14	0	0	0	0	478	486	1021	0	0	0	
15	0	0	0	0	478	492	1021	0	0	0	
0	0	0	0	0	483	498	1020	0	0	0	
1	0	0	0	0	493	505	1021	0	0	0	
2	0	0	0	0	506	511	1021	0	0	0	
3	0	0	0	0	521	515	1021	0	0	0	
4	0	0	0	0	538	519	1021	0	0	0	
5	0	0	0	0	555	519	1021	0	0	0	
6	0	0	0	0	569	519	1021	0	0	0	
7	0	0	0	0	581	516	1021	0	0	0	
8	0	0	0	0	589	512	1021	0	0	0	
9	0	0	0	0	592	507	1021	0	0	0	
10	0	0	0	0	590	499	1021	0	0	0	
11	0	0	0	0	583	491	1021	0	0	0	
12	0	0	0	0	572	482	1021	0	0	0	
13	0	0	0	0	558	473	1021	0	0	0	
14	0	0	0	0	542	465	1021	0	0	0	
15	0	0	0	0	526	458	1021	0	0	0	
0	0	0	0	0	512	452	1021	0	0	0	
1	0	0	0	0	500	448	1021	0	0	0	
2	0	0	0	0	492	444	1021	0	0	0	
3	0	0	0	0	489	444	1021	0	0	0	
4	0	0	0	0	489	445	1021	0	0	0	
5	0	0	0	0	494	448	1021	0	0	0	
6	0	0	0	0	503	455	1021	0	0	0	
7	0	0	0	0	513	461	1021	0	0	0	
8	0	0	0	0	527	469	1021	0	0	0	
9	0	0	0	0	540	476	1021	0	0	0	
10	0	0	0	0	552	484	1021	0	0	0	
11	0	0	0	0	563	489	1021	0	0	0	
12	0	0	0	0	569	492	1021	0	0	0	
13	0	0	0	0	573	494	1021	0	0	0	
14	0	0	0	0	574	493	1021	0	0	0	
15	0	0	0	0	572	491	1021	0	0	0	
0	0	0	0	0	568	486	1021	0	0	0	
1	0	0	0	0	564	480	1021	0	0	0	
2	0	0	0	0	559	474	1021	0	0	0	
3	0	0	0	0	555	468	1021	0	0	0	
4	0	0	0	0	551	464	1021	0	0	0	
5	0	0	0	0	548	460	1021	0	0	0	
6	0	0	0	0	544	459	1021	0	0	0	
7	0	0	0	0	541	459	1021	0	0	0	
8	0	0	0	0	536	460	1021	0	0	0	
9	0	0	0	0	531	463	1021	0	0	0	
10	0	0	0	0	524	465	1020	0	0	0	
11	0	0	0	0	519	469	1021	0	0	0	
12	0	0	0	0	512	472	1021	0	0	0	
13	0	0	0	0	506	475	1021	0	0	0	
14	0	0	0	0	500	477	1021	0	0	0	
15	0	0	0	0	495	479	1021	0	0	0	
0	0	0	0	0	491	480	1021	0	0	0	
1	0	0	0	0	487	479	1021	0	0	0	
2	0	0	0	0	484	478	1021	0	0	0	
3	0	0	0	0	482	476	1021	0	0	0	
4	0	0	0	0	481	473	1021	0	0	0	
5	0	0	0	0	480	471	1021	0	0	0	
6	0	0	0	0	480	469	1021	0	0	0	
7	0	0	0	0	481	467	1021	0	0	0	
8	0	0	0	0	484	465	1021	0	0	0	
9	0	0	0	0	487	465	1021	0	0	0	
10	0	0	0	0	492	466	1021	0	0	0	
11	0	0	0	0	497	467	1021	0	0	0	
12	0	0	0	0	504	470	1021	0	0	0	
13	0	0	0	0	513	473	1021	0	0	0	
14	0	0	0	0	522	477	1021	0	0	0	
15	0	0	0	0	531	480	1021	0	0	0	
0	0	0	0	0	541	483	1021	0	0	0	
1	0	0	0	0	548	484	1021	0	0	0	
2	0	0	0	0	553	484	1021	0	0	0	
3	0	0	0	0	557	483	1021	0	0	0	
4	0	0	0	0	559	482	1021	0	0	0	
5	0	0	0	0	558	479	1021	0	0	0	
6	0	0	0	0	556	477	1021	0	0	0	
7	0	0	0	0	552	476	1021	0	0	0	
8	0	0	0	0	549	475	1021	0	0	0	
9	0	0	0	0	545	475	1021	0	0	0	
10	0	0	0	0	542	477	1020	0	0	0	
11	0	0	0	0	538	478	1021	0	0	0	
12	0	0	0	0	533	480	1021	0	0	0	
13	0	0	0	0	527	482	1021	0	0	0	
14	0	0	0	0	521	484	1021	0	0	0	
15	0	0	0	0	515	485	1020	0	0	0	
0	0	0	0	0	511	484	1021	0	0	0	
1	0	0	0	0	508	484	1021	0	0	0	
2	0	0	0	0	507	481	1021	0	0	0	
3	0	0	0	0	508	479	1021	0	0	0	
4	0	0	0	0	509	475	1021	0	0	0	
5	0	0	0	0	510	470	1021	0	0	0	
6	0	0	0	0	510	465	1021	0	0	0	
7	0	0	0	0	510	460	1021	0	0	0	
8	0	0	0	0	508	455	1021	0	0	0	
9	0	0	0	0	504	451	1020	0	0	0	
10	0	0	0	0	501	448	1021	0	0	0	
11	0	0	0	0	498	446	1021	0	0	0	
12	0	0	0	0	496	445	1021	0	0	0	
13	0	0	0	0	496	444	1021	0	0	0	
14	0	0	0	0	496	445	1021	0	0	0	
15	0	0	0	0	499	448	1021	0	0	0	
0	0	0	0	0	504	452	1021	0	0	0	
1	0	0	0	0	511	457	1021	0	0	0	
2	0	0	0	0	520	465	1021	0	0	0	
3	0	0	0	0	533	474	1021	0	0	0	
4	0	0	0	0	548	484	1021	0	0	0	
5	0	0	0	0	566	495	1021	0	0	0	
6	0	0	0	0	584	504	1021	0	0	0	
7	0	0	0	0	601	512	1021	0	0	0	
8	0	0	0	0	614	519	1020	0	0	0	
9	0	0	0	0	622	521	1021	0	0	0	
10	0	0	0	0	623	521	1021	0	0	0	
11	0	0	0	0	617	516	1021	0	0	0	
12	0	0	0	0	604	509	1021	0	0	0	
13	0	0	0	0	585	499	1021	0	0	0	
14	0	0	0	0	561	488	1021	0	0	0	
15	0	0	0	0	534	476	1021	0	0	0	
0	0	0	0	0	506	464	1021	0	0	0	
1	0	0	0	0	479	453	1021	0	0	0	
2	0	0	0	0	456	444	1021	0	0	0	
3	0	0	0	0	439	438	1020	0	0	0	
4	0	0	0	0	428	436	1021	0	0	0	
5	0	0	0	0	425	437	1021	0	0	0	
6	0	0	0	0	430	440	1021	0	0	0	
7	0	0	0	0	440	447	1021	0	0	0	
8	0	0	0	0	456	455	1021	0	0	0	
9	0	0	0	0	476	464	1021	0	0	0	
10	0	0	0	0	497	474	1021	0	0	0	
11	0	0	0	0	520	483	1021	0	0	0	
12	0	0	0	0	541	492	1021	0	0	0	
13	0	0	0	0	560	499	1021	0	0	0	
14	0	0	0	0	575	504	1021	0	0	0	
15	0	0	0	0	584	507	1021	0	0	0	
0	0	0	0	0	589	508	1021	0	0	0	
1	0	0	0	0	588	506	1021	0	0	0	
2	0	0	0	0	583	502	1021	0	0	0	
3	0	0	0	0	574	496	1021	0	0	0	
4	0	0	0	0	561	489	1021	0	0	0	
5	0	0	0	0	546	482	1021	0	0	0	
6	0	0	0	0	531	475	1021	0	0	0	
7	0	0	0	0	518	468	1021	0	0	0	
8	0	0	0	0	506	463	1021	0	0	0	
9	0	0	0	0	497	459	1021	0	0	0	
10	0	0	0	0	490	457	1021	0	0	0	
11	0	0	0	0	487	455	1021	0	0	0	
12	0	0	0	0	486	456	1021	0	0	0	
13	0	0	0	0	488	457	1021	0	0	0	
14	0	0	0	0	493	460	1021	0	0	0	
15	0	0	0	0	499	463	1021	0	0	0	
0	0	0	0	0	507	468	1021	0	0	0	
1	0	0	0	0	515	472	1021	0	0	0	
2	0	0	0	0	524	478	1021	0	0	0	
3	0	0	0	0	533	483	1021	0	0	0	
4	0	0	0	0	540	487	1021	0	0	0	
5	0	0	0	0	545	490	1021	0	0	0	
6	0	0	0	0	548	492	1021	0	0	0	
7	0	0	0	0	549	494	1021	0	0	0	
8	0	0	0	0	548	493	1021	0	0	0	
9	0	0	0	0	546	491	1021	0	0	0	
10	0	0	0	0	543	488	1021	0	0	0	
11	0	0	0	0	542	485	1021	0	0	0	
12	0	0	0	0	541	482	1021	0	0	0	
13	0	0	0	0	540	479	1021	0	0	0	
14	0	0	0	0	540	476	1021	0	0	0	
15	0	0	0	0	539	473	1021	0	0	0	
0	0	0	0	0	539	471	1021	0	0	0	
1	0	0	0	0	540	469	1021	0	0	0	
2	0	0	0	0	541	468	1021	0	0	0	
3	0	0	0	0	543	468	1021	0	0	0	
4	0	0	0	0	545	470	1021	0	0	0	
5	0	0	0	0	547	472	1021	0	0	0	
6	0	0	0	0	549	476	1021	0	0	0	
7	0	0	0	0	551	479	1021	0	0	0	
8	0	0	0	0	551	482	1021	0	0	0	
9	0	0	0	0	550	484	1021	0	0	0	
10	0	0	0	0	547	485	1021	0	0	0	
11	0	0	0	0	542	485	1021	0	0	0	
12	0	0	0	0	535	483	1021	0	0	0	
13	0	0	0	0	526	483	1021	0	0	0	
14	0	0	0	0	518	481	1021	0	0	0	
15	0	0	0	0	510	481	1021	0	0	0	
0	0	0	0	0	504	481	1021	0	0	0	
1	0	0	0	0	499	481	1020	0	0	0	
2	0	0	0	0	496	481	1021	0	0	0	
3	0	0	0	0	493	480	1021	0	0	0	
4	0	0	0	0	492	479	1021	0	0	0	
5	0	0	0	0	492	478	1021	0	0	0	
6	0	0	0	0	495	476	1021	0	0	0	
7	0	0	0	0	497	473	1021	0	0	0	
8	0	0	0	0	499	470	1020	0	0	0	
9	0	0	0	0	500	465	1021	0	0	0	
10	0	0	0	0	501	462	1021	0	0	0	
11	0	0	0	0	500	458	1021	0	0	0	
12	0	0	0	0	499	455	1021	0	0	0	
13	0	0	0	0	497	453	1021	0	0	0	
14	0	0	0	0	498	453	1021	0	0	0	
15	0	0	0	0	500	455	1021	0	0	0	
0	0	0	0	0	504	457	1021	0	0	0	
1	0	0	0	0	509	461	1021	0	0	0	
2	0	0	0	0	514	466	1021	0	0	0	
3	0	0	0	0	521	472	1021	0	0	0	
4	0	0	0	0	528	477	1021	0	0	0	
5	0	0	0	0	535	483	1021	0	0	0	
6	0	0	0	0	541	488	1021	0	0	0	
7	0	0	0	0	547	492	1021	0	0	0	
8	0	0	0	0	551	495	1021	0	0	0	
9	0	0	0	0	554	498	1021	0	0	0	
10	0	0	0	0	556	499	1021	0	0	0	
11	0	0	0	0	556	499	1021	0	0	0	
12	0	0	0	0	556	500	1021	0	0	0	
13	0	0	0	0	553	499	1021	0	0	0	
14	0	0	0	0	551	499	1021	0	0	0	
15	0	0	0	0	547	497	1021	0	0	0	
0	0	0	0	0	543	496	1021	0	0	0	
1	0	0	0	0	537	493	1021	0	0	0	
2	0	0	0	0	532	490	1021	0	0	0	
3	0	0	0	0	526	487	1021	0	0	0	
4	0	0	0	0	521	483	1021	0	0	0	
5	0	0	0	0	516	478	1021	0	0	0	
6	0	0	0	0	513	474	1020	0	0	0	
7	0	0	0	0	511	471	1021	0	0	0	
8	0	0	0	0	512	467	1021	0	0	0	
9	0	0	0	0	514	467	1021	0	0	0	
10	0	0	0	0	519	466	1021	0	0	0	
11	0	0	0	0	524	468	1021	0	0	0	
12	0	0	0	0	528	472	1021	0	0	0	
13	0	0	0	0	532	476	1021	0	0	0	
14	0	0	0	0	532	480	1021	0	0	0	
15	0	0	0	0	530	485	1021	0	0	0	
0	0	0	0	0	527	488	1021	0	0	0	
1	0	0	0	0	523	492	1021	0	0	0	
2	0	0	0	0	518	493	1021	0	0	0	
3	0	0	0	0	514	491	1021	0	0	0	
4	0	0	0	0	511	488	1021	0	0	0	
5	0	0	0	0	508	482	1021	0	0	0	
6	0	0	0	0	507	475	1021	0	0	0	
7	0	0	0	0	506	467	1021	0	0	0	
8	0	0	0	0	506	458	1021	0	0	0	
9	0	0	0	0	507	451	1021	0	0	0	
10	0	0	0	0	509	444	1021	0	0	0	
11	0	0	0	0	511	439	1021	0	0	0	
12	0	0	0	0	515	435	1021	0	0	0	
13	0	0	0	0	518	434	1021	0	0	0	
14	0	0	0	0	520	434	1021	0	0	0	
15	0	0	0	0	523	437	1021	0	0	0	
0	0	0	0	0	525	440	1021	0	0	0	
1	0	0	0	0	527	446	1021	0	0	0	
2	0	0	0	0	529	451	1021	0	0	0	
3	0	0	0	0	531	457	1021	0	0	0	
4	0	0	0	0	532	463	1020	0	0	0	
5	0	0	0	0	532	469	1021	0	0	0	
6	0	0	0	0	531	474	1021	0	0	0	
7	0	0	0	0	530	478	1021	0	0	0	
8	0	0	0	0	529	482	1021	0	0	0	
9	0	0	0	0	527	485	1020	0	0	0	
10	0	0	0	0	527	487	1021	0	0	0	
11	0	0	0	0	528	489	1021	0	0	0	
12	0	0	0	0	530	492	1021	0	0	0	
13	0	0	0	0	534	494	1021	0	0	0	
14	0	0	0	0	537	495	1021	0	0	0	
15	0	0	0	0	541	497	1021	0	0	0	
0	0	0	0	0	545	501	1021	0	0	0	
1	0	0	0	0	548	503	1021	0	0	0	
2	0	0	0	0	549	503	1021	0	0	0	
3	0	0	0	0	547	503	1021	0	0	0	
4	0	0	0	0	542	501	1021	0	0	0	
5	0	0	0	0	535	497	1021	0	0	0	
6	0	0	0	0	526	491	1021	0	0	0	
7	0	0	0	0	515	483	1021	0	0	0	
8	0	0	0	0	505	475	1021	0	0	0	
9	0	0	0	0	494	466	1021	0	0	0	
10	0	0	0	0	486	459	1021	0	0	0	
11	0	0	0	0	480	452	1021	0	0	0	
12	0	0	0	0	476	447	1021	0	0	0	
13	0	0	0	0	476	444	1021	0	0	0	
14	0	0	0	0	477	442	1021	0	0	0	
15	0	0	0	0	483	443	1021	0	0	0	
0	0	0	0	0	490	445	1021	0	0	0	
1	0	0	0	0	499	448	1021	0	0	0	
2	0	0	0	0	509	452	1021	0	0	0	
3	0	0	0	0	519	457	1021	0	0	0	
4	0	0	0	0	530	463	1021	0	0	0	
5	0	0	0	0	540	469	1021	0	0	0	
6	0	0	0	0	547	474	1021	0	0	0	
7	0	0	0	0	550	480	1021	0	0	0	
8	0	0	0	0	552	484	1021	0	0	0	
9	0	0	0	0	551	488	1021	0	0	0	
10	0	0	0	0	549	492	1021	0	0	0	
11	0	0	0	0	545	494	1021	0	0	0	
12	0	0	0	0	540	495	1021	0	0	0	
13	0	0	0	0	535	496	1021	0	0	0	
14	0	0	0	0	528	496	1021	0	0	0	
15	0	0	0	0	521	496	1021	0	0	0	
0	0	0	0	0	513	494	1021	0	0	0	
1	0	0	0	0	508	492	1021	0	0	0	
2	0	0	0	0	504	489	1021	0	0	0	
3	0	0	0	0	504	488	1021	0	0	0	
4	0	0	0	0	507	487	1021	0	0	0	
5	0	0	0	0	512	486	1021	0	0	0	
6	0	0	0	0	518	486	1021	0	0	0	
7	0	0	0	0	524	484	1021	0	0	0	
8	0	0	0	0	529	483	1021	0	0	0	
9	0	0	0	0	533	481	1021	0	0	0	
10	0	0	0	0	535	479	1021	0	0	0	
11	0	0	0	0	537	477	1020	0	0	0	
12	0	0	0	0	538	476	1021	0	0	0	
13	0	0	0	0	538	474	1021	0	0	0	
14	0	0	0	0	536	473	1021	0	0	0	
15	0	0	0	0	534	472	1021	0	0	0	
0	0	0	0	0	530	472	1020	0	0	0	
1	0	0	0	0	527	472	1021	0	0	0	
2	0	0	0	0	524	473	1021	0	0	0	
3	0	0	0	0	523	474	1021	0	0	0	
4	0	0	0	0	521	475	1021	0	0	0	
5	0	0	0	0	518	476	1020	0	0	0	
6	0	0	0	0	514	476	1021	0	0	0	
7	0	0	0	0	509	475	1021	0	0	0	
8	0	0	0	0	502	472	1021	0	0	0	
9	0	0	0	0	495	469	1021	0	0	0	
10	0	0	0	0	486	465	1020	0	0	0	
11	0	0	0	0	479	459	1021	0	0	0	
12	0	0	0	0	471	453	1021	0	0	0	
13	0	0	0	0	465	447	1021	0	0	0	
14	0	0	0	0	460	440	1021	0	0	0	
15	0	0	0	0	456	433	1020	0	0	0	
0	0	0	0	0	453	425	1021	0	0	0	
1	0	0	0	0	451	418	1021	0	0	0	
2	0	0	0	0	449	410	1021	0	0	0	
3	0	0	0	0	447	403	1021	0	0	0	
4	0	0	0	0	444	395	1020	0	0	0	
5	0	0	0	0	440	387	1021	0	0	0	
6	0	0	0	0	433	379	1021	0	0	0	
7	0	0	0	0	423	369	1021	0	0	0	
8	0	0	0	0	411	358	1021	0	0	0	
9	0	0	0	0	397	346	1020	0	0	0	
10	0	0	0	0	381	333	1021	0	0	0	
11	0	0	0	0	364	319	1021	0	0	0	
12	0	0	0	0	349	307	1021	0	0	0	
13	0	0	0	0	334	295	1021	0	0	0	
14	0	0	0	0	321	284	1020	0	0	0	
15	0	0	0	0	311	276	1021	0	0	0	
0	0	0	0	0	303	270	1021	0	0	0	
1	0	0	0	0	298	265	1021	0	0	0	
2	0	0	0	0	295	264	1021	0	0	0	
3	0	0	0	0	295	266	1020	0	0	0	
4	0	0	0	0	298	271	1021	0	0	0	
5	0	0	0	0	303	278	1021	0	0	0	
6	0	0	0	0	312	287	1021	0	0	0	
7	0	0	0	0	324	299	1021	0	0	0	
8	0	0	0	0	339	313	1021	0	0	0	
9	0	0	0	0	357	329	1021	0	0	0	
10	0	0	0	0	379	346	1021	0	0	0	
11	0	0	0	0	402	363	1021	0	0	0	
12	0	0	0	0	426	380	1021	0	0	0	
13	0	0	0	0	450	397	1021	0	0	0	
14	0	0	0	0	473	412	1021	0	0	0	
15	0	0	0	0	495	427	1021	0	0	0	
0	0	0	0	0	515	441	1021	0	0	0	
1	0	0	0	0	533	453	1021	0	0	0	
2	0	0	0	0	548	464	1020	0	0	0	
3	0	0	0	0	560	474	1021	0	0	0	
4	0	0	0	0	570	483	1021	0	0	0	
5	0	0	0	0	576	491	1021	0	0	0	
6	0	0	0	0	579	496	1021	0	0	0	
7	0	0	0	0	580	500	1021	0	0	0	
8	0	0	0	0	578	502	1021	0	0	0	
9	0	0	0	0	575	502	1021	0	0	0	
10	0	0	0	0	570	500	1021	0	0	0	
11	0	0	0	0	564	499	1021	0	0	0	
12	0	0	0	0	558	496	1021	0	0	0	
13	0	0	0	0	551	493	1021	0	0	0	
14	0	0	0	0	545	491	1021	0	0	0	
15	0	0	0	0	540	489	1021	0	0	0	
0	0	0	0	0	535	487	1021	0	0	0	
1	0	0	0	0	532	485	1021	0	0	0	
2	0	0	0	0	529	483	1020	0	0	0	
3	0	0	0	0	527	482	1021	0	0	0	
4	0	0	0	0	526	480	1020	0	0	0	
5	0	0	0	0	525	479	1021	0	0	0	
6	0	0	0	0	523	477	1021	0	0	0	
7	0	0	0	0	520	476	1021	0	0	0	
8	0	0	0	0	518	477	1021	0	0	0	
9	0	0	0	0	516	477	1021	0	0	0	
10	0	0	0	0	514	479	1021	0	0	0	
11	0	0	0	0	512	480	1021	0	0	0	
12	0	0	0	0	511	483	1021	0	0	0	
13	0	0	0	0	512	485	1021	0	0	0	
14	0	0	0	0	512	487	1021	0	0	0	
15	0	0	0	0	514	489	1021	0	0	0	
0	0	0	0	0	516	490	1021	0	0	0	
1	0	0	0	0	518	491	1021	0	0	0	
2	0	0	0	0	521	491	1021	0	0	0	
3	0	0	0	0	524	491	1021	0	0	0	
4	0	0	0	0	527	490	1021	0	0	0	
5	0	0	0	0	531	489	1021	0	0	0	
6	0	0	0	0	535	488	1021	0	0	0	
7	0	0	0	0	539	488	1021	0	0	0	
8	0	0	0	0	543	489	1021	0	0	0	
9	0	0	0	0	549	491	1021	0	0	0	
10	0	0	0	0	554	493	1021	0	0	0	
11	0	0	0	0	559	496	1021	0	0	0	
12	0	0	0	0	563	499	1021	0	0	0	
13	0	0	0	0	566	502	1021	0	0	0	
14	0	0	0	0	567	504	1021	0	0	0	
15	0	0	0	0	565	507	1020	0	0	0	
0	0	0	0	0	561	507	1021	0	0	0	
1	0	0	0	0	556	506	1021	0	0	0	
2	0	0	0	0	549	504	1021	0	0	0	
3	0	0	0	0	540	500	1021	0	0	0	
4	0	0	0	0	530	496	1020	0	0	0	
5	0	0	0	0	519	490	1021	0	0	0	
6	0	0	0	0	510	485	1021	0	0	0	
7	0	0	0	0	502	480	1021	0	0	0	
8	0	0	0	0	496	475	1021	0	0	0	
9	0	0	0	0	492	471	1021	0	0	0	
10	0	0	0	0	491	469	1020	0	0	0	
11	0	0	0	0	493	468	1021	0	0	0	
12	0	0	0	0	497	468	1021	0	0	0	
13	0	0	0	0	502	469	1021	0	0	0	
14	0	0	0	0	509	472	1021	0	0	0	
15	0	0	0	0	517	475	1021	0	0	0	
0	0	0	0	0	526	480	1021	0	0	0	
1	0	0	0	0	534	484	1021	0	0	0	
2	0	0	0	0	542	488	1021	0	0	0	
3	0	0	0	0	548	493	1021	0	0	0	
4	0	0	0	0	554	497	1021	0	0	0	
5	0	0	0	0	559	501	1021	0	0	0	
6	0	0	0	0	562	504	1021	0	0	0	
7	0	0	0	0	564	507	1021	0	0	0	
8	0	0	0	0	565	510	1021	0	0	0	
9	0	0	0	0	566	512	1021	0	0	0	
10	0	0	0	0	567	515	1021	0	0	0	
11	0	0	0	0	568	517	1021	0	0	0	
12	0	0	0	0	568	519	1021	0	0	0	
13	0	0	0	0	568	520	1021	0	0	0	
14	0	0	0	0	568	520	1021	0	0	0	
15	0	0	0	0	567	520	1021	0	0	0	
0	0	0	0	0	566	519	1021	0	0	0	
1	0	0	0	0	564	516	1021	0	0	0	
2	0	0	0	0	561	513	1020	0	0	0	
3	0	0	0	0	558	508	1021	0	0	0	
4	0	0	0	0	554	504	1021	0	0	0	
5	0	0	0	0	548	498	1021	0	0	0	
6	0	0	0	0	542	493	1021	0	0	0	
7	0	0	0	0	535	488	1020	0	0	0	
8	0	0	0	0	527	484	1021	0	0	0	
9	0	0	0	0	520	480	1021	0	0	0	
10	0	0	0	0	514	477	1021	0	0	0	
11	0	0	0	0	509	475	1021	0	0	0	
12	0	0	0	0	506	474	1021	0	0	0	
13	0	0	0	0	505	474	1021	0	0	0	
14	0	0	0	0	506	475	1021	0	0	0	
15	0	0	0	0	508	477	1021	0	0	0	
0	0	0	0	0	512	480	1021	0	0	0	
1	0	0	0	0	518	484	1020	0	0	0	
2	0	0	0	0	524	488	1021	0	0	0	
3	0	0	0	0	530	492	1021	0	0	0	
4	0	0	0	0	536	496	1021	0	0	0	
5	0	0	0	0	541	499	1021	0	0	0	
6	0	0	0	0	544	502	1020	0	0	0	
7	0	0	0	0	546	503	1021	0	0	0	
8	0	0	0	0	546	503	1021	0	0	0	
9	0	0	0	0	545	502	1021	0	0	0	
10	0	0	0	0	543	499	1021	0	0	0	
11	0	0	0	0	539	496	1020	0	0	0	
12	0	0	0	0	535	493	1021	0	0	0	
13	0	0	0	0	530	489	1021	0	0	0	
14	0	0	0	0	526	486	1021	0	0	0	
15	0	0	0	0	522	482	1021	0	0	0	
0	0	0	0	0	519	480	1020	0	0	0	
1	0	0	0	0	519	478	1021	0	0	0	
2	0	0	0	0	519	477	1021	0	0	0	
3	0	0	0	0	520	476	1021	0	0	0	
4	0	0	0	0	522	476	1021	0	0	0	
5	0	0	0	0	525	476	1021	0	0	0	
6	0	0	0	0	528	476	1021	0	0	0	
7	0	0	0	0	531	476	1021	0	0	0	
8	0	0	0	0	532	476	1021	0	0	0	
9	0	0	0	0	534	477	1021	0	0	0	
10	0	0	0	0	534	478	1021	0	0	0	
11	0	0	0	0	534	479	1021	0	0	0	
12	0	0	0	0	534	481	1021	0	0	0	
13	0	0	0	0	533	483	1021	0	0	0	
14	0	0	0	0	532	486	1021	0	0	0	
15	0	0	0	0	532	489	1021	0	0	0	
0	0	0	0	0	531	492	1021	0	0	0	
1	0	0	0	0	531	495	1021	0	0	0	
2	0	0	0	0	531	498	1021	0	0	0	
3	0	0	0	0	531	500	1021	0	0	0	
4	0	0	0	0	530	502	1021	0	0	0	
5	0	0	0	0	529	502	1020	0	0	0	
6	0	0	0	0	527	501	1021	0	0	0	
7	0	0	0	0	526	498	1021	0	0	0	
8	0	0	0	0	524	495	1021	0	0	0	
9	0	0	0	0	521	491	1021	0	0	0	
10	0	0	0	0	520	486	1020	0	0	0	
11	0	0	0	0	520	483	1021	0	0	0	
12	0	0	0	0	520	479	1021	0	0	0	
13	0	0	0	0	521	476	1021	0	0	0	
14	0	0	0	0	523	475	1020	0	0	0	
15	0	0	0	0	525	474	1021	0	0	0	
0	0	0	0	0	527	475	1021	0	0	0	
1	0	0	0	0	530	476	1021	0	0	0	
2	0	0	0	0	532	479	1021	0	0	0	
3	0	0	0	0	534	481	1021	0	0	0	
4	0	0	0	0	536	484	1021	0	0	0	
5	0	0	0	0	538	488	1021	0	0	0	
6	0	0	0	0	539	491	1021	0	0	0	
7	0	0	0	0	538	493	1021	0	0	0	
8	0	0	0	0	537	495	1020	0	0	0	
9	0	0	0	0	535	495	1021	0	0	0	
10	0	0	0	0	534	495	1021	0	0	0	
11	0	0	0	0	532	494	1021	0	0	0	
12	0	0	0	0	532	493	1021	0	0	0	
13	0	0	0	0	532	492	1021	0	0	0	
14	0	0	0	0	534	490	1021	0	0	0	
15	0	0	0	0	536	489	1021	0	0	0	
0	0	0	0	0	539	488	1021	0	0	0	
1	0	0	0	0	543	489	1021	0	0	0	
2	0	0	0	0	546	489	1021	0	0	0	
3	0	0	0	0	550	489	1020	0	0	0	
4	0	0	0	0	553	491	1021	0	0	0	
5	0	0	0	0	555	492	1021	0	0	0	
6	0	0	0	0	556	494	1021	0	0	0	
7	0	0	0	0	559	499	1020	0	0	0	
8	0	0	0	0	562	503	1020	0	0	0	
9	0	0	0	0	566	508	1021	0	0	0	
10	0	0	0	0	571	515	1021	0	0	0	
11	0	0	0	0	576	520	1021	0	0	0	
12	0	0	0	0	579	526	1021	0	0	0	
13	0	0	0	0	582	530	1021	0	0	0	
14	0	0	0	0	582	532	1021	0	0	0	
15	0	0	0	0	578	533	1021	0	0	0	
0	0	0	0	0	571	531	1020	0	0	0	
1	0	0	0	0	561	527	1021	0	0	0	
2	0	0	0	0	549	521	1020	0	0	0	
3	0	0	0	0	536	513	1021	0	0	0	
4	0	0	0	0	523	505	1021	0	0	0	
5	0	0	0	0	511	495	1021	0	0	0	
6	0	0	0	0	502	487	1021	0	0	0	
7	0	0	0	0	495	479	1021	0	0	0	
8	0	0	0	0	491	472	1021	0	0	0	
9	0	0	0	0	489	467	1021	0	0	0	
10	0	0	0	0	490	463	1021	0	0	0	
11	0	0	0	0	494	461	1021	0	0	0	
12	0	0	0	0	501	460	1021	0	0	0	
13	0	0	0	0	510	461	1021	0	0	0	
14	0	0	0	0	521	463	1021	0	0	0	
15	0	0	0	0	532	466	1021	0	0	0	
0	0	0	0	0	543	471	1021	0	0	0	
1	0	0	0	0	552	476	1021	0	0	0	
2	0	0	0	0	558	481	1021	0	0	0	
3	0	0	0	0	561	486	1021	0	0	0	
4	0	0	0	0	562	490	1021	0	0	0	
5	0	0	0	0	561	494	1021	0	0	0	
6	0	0	0	0	560	497	1020	0	0	0	
7	0	0	0	0	558	500	1021	0	0	0	
8	0	0	0	0	555	502	1021	0	0	0	
9	0	0	0	0	551	502	1021	0	0	0	
10	0	0	0	0	546	502	1020	0	0	0	
11	0	0	0	0	540	502	1021	0	0	0	
12	0	0	0	0	533	502	1021	0	0	0	
13	0	0	0	0	526	502	1021	0	0	0	
14	0	0	0	0	518	501	1021	0	0	0	
15	0	0	0	0	511	500	1021	0	0	0	
0	0	0	0	0	505	499	1021	0	0	0	
1	0	0	0	0	500	498	1021	0	0	0	
2	0	0	0	0	498	495	1021	0	0	0	
3	0	0	0	0	496	492	1021	0	0	0	
4	0	0	0	0	496	490	1021	0	0	0	
5	0	0	0	0	497	487	1021	0	0	0	
6	0	0	0	0	499	484	1021	0	0	0	
7	0	0	0	0	502	482	1021	0	0	0	
8	0	0	0	0	504	480	1021	0	0	0	
9	0	0	0	0	507	478	1021	0	0	0	
10	0	0	0	0	510	476	1021	0	0	0	
11	0	0	0	0	512	475	1021	0	0	0	
12	0	0	0	0	515	474	1021	0	0	0	
13	0	0	0	0	519	473	1021	0	0	0	
14	0	0	0	0	524	472	1021	0	0	0	
15	0	0	0	0	530	473	1020	0	0	0	
0	0	0	0	0	536	475	1021	0	0	0	
1	0	0	0	0	541	476	1021	0	0	0	
2	0	0	0	0	546	479	1021	0	0	0	
3	0	0	0	0	549	482	1021	0	0	0	
4	0	0	0	0	551	486	1020	0	0	0	
5	0	0	0	0	552	490	1021	0	0	0	
6	0	0	0	0	551	494	1021	0	0	0	
7	0	0	0	0	549	497	1021	0	0	0	
8	0	0	0	0	546	500	1021	0	0	0	
9	0	0	0	0	542	503	1021	0	0	0	
10	0	0	0	0	537	504	1021	0	0	0	
11	0	0	0	0	531	504	1021	0	0	0	
12	0	0	0	0	526	502	1021	0	0	0	
13	0	0	0	0	520	500	1021	0	0	0	
14	0	0	0	0	516	496	1020	0	0	0	
15	0	0	0	0	512	492	1021	0	0	0	
0	0	0	0	0	510	487	1021	0	0	0	
1	0	0	0	0	508	483	1021	0	0	0	
2	0	0	0	0	508	479	1021	0	0	0	
3	0	0	0	0	510	476	1020	0	0	0	
4	0	0	0	0	513	475	1021	0	0	0	
5	0	0	0	0	517	475	1021	0	0	0	
6	0	0	0	0	520	476	1021	0	0	0	
7	0	0	0	0	523	478	1020	0	0	0	
8	0	0	0	0	526	481	1021	0	0	0	
9	0	0	0	0	527	484	1021	0	0	0	
10	0	0	0	0	528	489	1021	0	0	0	
11	0	0	0	0	528	493	1021	0	0	0	
12	0	0	0	0	527	497	1021	0	0	0	
13	0	0	0	0	527	500	1021	0	0	0	
14	0	0	0	0	527	503	1021	0	0	0	
15	0	0	0	0	527	504	1021	0	0	0	
0	0	0	0	0	527	505	1021	0	0	0	
1	0	0	0	0	526	504	1021	0	0	0	
2	0	0	0	0	526	503	1021	0	0	0	
3	0	0	0	0	525	501	1021	0	0	0	
4	0	0	0	0	527	499	1021	0	0	0	
5	0	0	0	0	529	498	1021	0	0	0	
6	0	0	0	0	534	497	1021	0	0	0	
7	0	0	0	0	540	497	1021	0	0	0	
8	0	0	0	0	547	498	1021	0	0	0	
9	0	0	0	0	555	499	1021	0	0	0	
10	0	0	0	0	562	501	1021	0	0	0	
11	0	0	0	0	567	502	1021	0	0	0	
12	0	0	0	0	571	503	1021	0	0	0	
13	0	0	0	0	573	504	1021	0	0	0	
14	0	0	0	0	572	504	1021	0	0	0	
15	0	0	0	0	568	503	1021	0	0	0	
0	0	0	0	0	563	502	1020	0	0	0	
1	0	0	0	0	556	500	1020	0	0	0	
2	0	0	0	0	548	498	1021	0	0	0	
3	0	0	0	0	540	496	1021	0	0	0	
4	0	0	0	0	533	494	1021	0	0	0	
5	0	0	0	0	527	493	1021	0	0	0	
6	0	0	0	0	523	492	1021	0	0	0	
7	0	0	0	0	521	492	1021	0	0	0	
8	0	0	0	0	521	493	1020	0	0	0	
9	0	0	0	0	524	495	1021	0	0	0	
10	0	0	0	0	528	496	1021	0	0	0	
11	0	0	0	0	532	497	1021	0	0	0	
12	0	0	0	0	537	499	1021	0	0	0	
13	0	0	0	0	542	499	1021	0	0	0	
14	0	0	0	0	546	498	1021	0	0	0	
15	0	0	0	0	549	496	1021	0	0	0	
0	0	0	0	0	551	493	1021	0	0	0	
1	0	0	0	0	551	490	1021	0	0	0	
2	0	0	0	0	550	486	1021	0	0	0	
3	0	0	0	0	547	482	1021	0	0	0	
4	0	0	0	0	542	478	1021	0	0	0	
5	0	0	0	0	535	474	1021	0	0	0	
6	0	0	0	0	527	471	1021	0	0	0	
7	0	0	0	0	519	468	1021	0	0	0	
8	0	0	0	0	511	467	1021	0	0	0	
9	0	0	0	0	505	466	1021	0	0	0	
10	0	0	0	0	500	467	1020	0	0	0	
11	0	0	0	0	497	469	1021	0	0	0	
12	0	0	0	0	496	471	1021	0	0	0	
13	0	0	0	0	496	472	1021	0	0	0	
14	0	0	0	0	497	475	1021	0	0	0	
15	0	0	0	0	500	476	1021	0	0	0	
0	0	0	0	0	504	479	1021	0	0	0	
1	0	0	0	0	508	480	1021	0	0	0	
2	0	0	0	0	513	482	1021	0	0	0	
3	0	0	0	0	520	485	1020	0	0	0	
4	0	0	0	0	527	488	1021	0	0	0	
5	0	0	0	0	536	493	1021	0	0	0	
6	0	0	0	0	544	498	1021	0	0	0	
7	0	0	0	0	553	503	1021	0	0	0	
8	0	0	0	0	561	508	1020	0	0	0	
9	0	0	0	0	568	511	1021	0	0	0	
10	0	0	0	0	572	515	1021	0	0	0	
11	0	0	0	0	574	516	1021	0	0	0	
12	0	0	0	0	572	516	1021	0	0	0	
13	0	0	0	0	568	514	1020	0	0	0	
14	0	0	0	0	560	510	1021	0	0	0	
15	0	0	0	0	551	506	1021	0	0	0	
0	0	0	0	0	543	500	1021	0	0	0	
1	0	0	0	0	534	494	1021	0	0	0	
2	0	0	0	0	526	489	1020	0	0	0	
3	0	0	0	0	521	484	1021	0	0	0	
4	0	0	0	0	518	481	1021	0	0	0	
5	0	0	0	0	516	479	1021	0	0	0	
6	0	0	0	0	517	479	1021	0	0	0	
7	0	0	0	0	518	479	1020	0	0	0	
8	0	0	0	0	519	480	1021	0	0	0	
9	0	0	0	0	521	483	1021	0	0	0	
10	0	0	0	0	523	484	1021	0	0	0	
11	0	0	0	0	524	487	1020	0	0	0	
12	0	0	0	0	526	489	1020	0	0	0	
13	0	0	0	0	527	490	1021	0	0	0	
14	0	0	0	0	527	492	1021	0	0	0	
15	0	0	0	0	527	492	1021	0	0	0	
0	0	0	0	0	527	492	1021	0	0	0	
1	0	0	0	0	526	492	1020	0	0	0	
2	0	0	0	0	525	491	1021	0	0	0	
3	0	0	0	0	524	491	1021	0	0	0	
4	0	0	0	0	524	490	1021	0	0	0	
5	0	0	0	0	523	488	1021	0	0	0	
6	0	0	0	0	522	487	1020	0	0	0	
7	0	0	0	0	521	485	1021	0	0	0	
8	0	0	0	0	520	484	1021	0	0	0	
9	0	0	0	0	519	482	1021	0	0	0	
10	0	0	0	0	519	481	1021	0	0	0	
11	0	0	0	0	520	481	1020	0	0	0	
12	0	0	0	0	523	482	1021	0	0	0	
13	0	0	0	0	527	483	1021	0	0	0	
14	0	0	0	0	531	485	1021	0	0	0	
15	0	0	0	0	537	487	1021	0	0	0	
0	0	0	0	0	542	489	1021	0	0	0	
1	0	0	0	0	546	491	1021	0	0	0	
2	0	0	0	0	548	493	1021	0	0	0	
3	0	0	0	0	548	494	1021	0	0	0	
4	0	0	0	0	547	494	1021	0	0	0	
5	0	0	0	0	544	494	1021	0	0	0	
6	0	0	0	0	541	496	1021	0	0	0	
7	0	0	0	0	538	497	1021	0	0	0	
8	0	0	0	0	538	500	1021	0	0	0	
9	0	0	0	0	539	504	1021	0	0	0	
10	0	0	0	0	542	507	1021	0	0	0	
11	0	0	0	0	544	509	1021	0	0	0	
12	0	0	0	0	548	511	1021	0	0	0	
13	0	0	0	0	551	511	1021	0	0	0	
14	0	0	0	0	553	509	1020	0	0	0	
15	0	0	0	0	554	506	1021	0	0	0	
0	0	0	0	0	553	500	1021	0	0	0	
1	0	0	0	0	548	493	1021	0	0	0	
2	0	0	0	0	540	484	1021	0	0	0	
3	0	0	0	0	527	475	1021	0	0	0	
4	0	0	0	0	512	466	1021	0	0	0	
5	0	0	0	0	495	459	1021	0	0	0	
6	0	0	0	0	480	454	1021	0	0	0	
7	0	0	0	0	467	450	1021	0	0	0	
8	0	0	0	0	457	449	1021	0	0	0	
9	0	0	0	0	452	450	1021	0	0	0	
10	0	0	0	0	450	451	1021	0	0	0	
11	0	0	0	0	452	455	1021	0	0	0	
12	0	0	0	0	458	459	1021	0	0	0	
13	0	0	0	0	467	464	1021	0	0	0	
14	0	0	0	0	478	469	1021	0	0	0	
15	0	0	0	0	491	474	1021	0	0	0	
0	0	0	0	0	503	478	1021	0	0	0	
1	0	0	0	0	514	482	1021	0	0	0	
2	0	0	0	0	524	486	1021	0	0	0	
3	0	0	0	0	531	489	1021	0	0	0	
4	0	0	0	0	537	492	1021	0	0	0	
5	0	0	0	0	541	496	1021	0	0	0	
6	0	0	0	0	543	499	1021	0	0	0	
7	0	0	0	0	544	501	1021	0	0	0	
8	0	0	0	0	543	503	1020	0	0	0	
9	0	0	0	0	540	503	1021	0	0	0	
10	0	0	0	0	537	502	1021	0	0	0	
11	0	0	0	0	534	500	1021	0	0	0	
12	0	0	0	0	530	497	1021	0	0	0	
13	0	0	0	0	526	494	1021	0	0	0	
14	0	0	0	0	524	491	1021	0	0	0	
15	0	0	0	0	523	489	1020	0	0	0	
0	0	0	0	0	524	488	1021	0	0	0	
1	0	0	0	0	528	487	1021	0	0	0	
2	0	0	0	0	533	488	1021	0	0	0	
3	0	0	0	0	539	490	1020	0	0	0	
4	0	0	0	0	547	492	1021	0	0	0	
5	0	0	0	0	555	494	1021	0	0	0	
6	0	0	0	0	563	496	1021	0	0	0	
7	0	0	0	0	569	497	1021	0	0	0	
8	0	0	0	0	574	498	1021	0	0	0	
9	0	0	0	0	578	499	1021	0	0	0	
10	0	0	0	0	580	498	1021	0	0	0	
11	0	0	0	0	579	498	1021	0	0	0	
12	0	0	0	0	575	496	1021	0	0	0	
13	0	0	0	0	568	494	1021	0	0	0	
14	0	0	0	0	559	492	1020	0	0	0	
15	0	0	0	0	547	488	1021	0	0	0	
0	0	0	0	0	534	486	1021	0	0	0	
1	0	0	0	0	519	482	1021	0	0	0	
2	0	0	0	0	505	478	1020	0	0	0	
3	0	0	0	0	493	475	1021	0	0	0	
4	0	0	0	0	483	472	1021	0	0	0	
5	0	0	0	0	476	470	1021	0	0	0	
6	0	0	0	0	472	468	1021	0	0	0	
7	0	0	0	0	471	468	1020	0	0	0	
8	0	0	0	0	472	468	1021	0	0	0	
9	0	0	0	0	476	469	1021	0	0	0	
10	0	0	0	0	482	470	1021	0	0	0	
11	0	0	0	0	488	472	1020	0	0	0	
12	0	0	0	0	495	473	1020	0	0	0	
13	0	0	0	0	503	475	1021	0	0	0	
14	0	0	0	0	509	476	1021	0	0	0	
15	0	0	0	0	515	476	1021	0	0	0	
0	0	0	0	0	520	477	1021	0	0	0	
1	0	0	0	0	526	478	1021	0	0	0	
2	0	0	0	0	531	479	1021	0	0	0	
3	0	0	0	0	536	479	1021	0	0	0	
4	0	0	0	0	539	480	1021	0	0	0	
5	0	0	0	0	542	480	1021	0	0	0	
6	0	0	0	0	543	480	1021	0	0	0	
7	0	0	0	0	543	481	1021	0	0	0	
8	0	0	0	0	543	482	1021	0	0	0	
9	0	0	0	0	542	483	1021	0	0	0	
10	0	0	0	0	540	485	1021	0	0	0	
11	0	0	0	0	540	487	1021	0	0	0	
12	0	0	0	0	540	489	1021	0	0	0	
13	0	0	0	0	540	492	1021	0	0	0	
14	0	0	0	0	540	495	1021	0	0	0	
15	0	0	0	0	540	498	1021	0	0	0	
0	0	0	0	0	540	502	1021	0	0	0	
1	0	0	0	0	540	504	1021	0	0	0	
2	0	0	0	0	539	506	1021	0	0	0	
3	0	0	0	0	536	507	1021	0	0	0	
4	0	0	0	0	531	506	1021	0	0	0	
5	0	0	0	0	526	504	1021	0	0	0	
6	0	0	0	0	520	501	1021	0	0	0	
7	0	0	0	0	515	497	1021	0	0	0	
8	0	0	0	0	511	492	1021	0	0	0	
9	0	0	0	0	507	486	1021	0	0	0	
10	0	0	0	0	504	480	1020	0	0	0	
11	0	0	0	0	503	474	1021	0	0	0	
12	0	0	0	0	503	469	1021	0	0	0	
13	0	0	0	0	504	464	1021	0	0	0	
14	0	0	0	0	505	462	1020	0	0	0	
15	0	0	0	0	509	460	1020	0	0	0	
0	0	0	0	0	513	460	1021	0	0	0	
1	0	0	0	0	519	461	1021	0	0	0	
2	0	0	0	0	526	463	1021	0	0	0	
3	0	0	0	0	533	467	1021	0	0	0	
4	0	0	0	0	541	472	1020	0	0	0	
5	0	0	0	0	547	478	1021	0	0	0	
6	0	0	0	0	554	485	1021	0	0	0	
7	0	0	0	0	560	493	1021	0	0	0	
8	0	0	0	0	566	501	1021	0	0	0	
9	0	0	0	0	571	508	1020	0	0	0	
10	0	0	0	0	574	515	1021	0	0	0	
11	0	0	0	0	578	521	1021	0	0	0	
12	0	0	0	0	579	525	1021	0	0	0	
13	0	0	0	0	578	526	1020	0	0	0	
14	0	0	0	0	575	526	1021	0	0	0	
15	0	0	0	0	569	523	1021	0	0	0	
0	0	0	0	0	562	517	1021	0	0	0	
1	0	0	0	0	553	511	1021	0	0	0	
2	0	0	0	0	543	503	1021	0	0	0	
3	0	0	0	0	534	495	1020	0	0	0	
4	0	0	0	0	525	487	1021	0	0	0	
5	0	0	0	0	516	480	1021	0	0	0	
6	0	0	0	0	508	473	1021	0	0	0	
7	0	0	0	0	501	468	1021	0	0	0	
8	0	0	0	0	495	464	1021	0	0	0	
9	0	0	0	0	491	462	1021	0	0	0	
10	0	0	0	0	487	461	1021	0	0	0	
11	0	0	0	0	483	461	1021	0	0	0	
12	0	0	0	0	482	462	1021	0	0	0	
13	0	0	0	0	482	463	1021	0	0	0	
14	0	0	0	0	484	465	1021	0	0	0	
15	0	0	0	0	488	467	1021	0	0	0	
0	0	0	0	0	493	468	1021	0	0	0	
1	0	0	0	0	499	470	1021	0	0	0	
2	0	0	0	0	505	470	1021	0	0	0	
3	0	0	0	0	511	469	1021	0	0	0	
4	0	0	0	0	516	468	1021	0	0	0	
5	0	0	0	0	521	467	1021	0	0	0	
6	0	0	0	0	525	465	1021	0	0	0	
7	0	0	0	0	528	463	1021	0	0	0	
8	0	0	0	0	530	462	1021	0	0	0	
9	0	0	0	0	530	461	1021	0	0	0	
10	0	0	0	0	529	461	1021	0	0	0	
11	0	0	0	0	527	462	1020	0	0	0	
12	0	0	0	0	524	462	1021	0	0	0	
13	0	0	0	0	521	464	1021	0	0	0	
14	0	0	0	0	519	467	1021	0	0	0	
15	0	0	0	0	516	471	1021	0	0	0	
0	0	0	0	0	515	475	1020	0	0	0	
1	0	0	0	0	515	480	1020	0	0	0	
2	0	0	0	0	516	484	1021	0	0	0	
3	0	0	0	0	518	488	1021	0	0	0	
4	0	0	0	0	520	490	1021	0	0	0	
5	0	0	0	0	522	492	1021	0	0	0	
6	0	0	0	0	524	492	1021	0	0	0	
7	0	0	0	0	526	491	1021	0	0	0	
8	0	0	0	0	526	488	1021	0	0	0	
9	0	0	0	0	523	483	1021	0	0	0	
10	0	0	0	0	518	478	1021	0	0	0	
11	0	0	0	0	510	471	1021	0	0	0	
12	0	0	0	0	500	463	1021	0	0	0	
13	0	0	0	0	490	455	1021	0	0	0	
14	0	0	0	0	477	445	1021	0	0	0	
15	0	0	0	0	463	436	1021	0	0	0	
0	0	0	0	0	448	427	1020	0	0	0	
1	0	0	0	0	433	417	1021	0	0	0	
2	0	0	0	0	418	406	1021	0	0	0	
3	0	0	0	0	403	395	1021	0	0	0	
4	0	0	0	0	390	383	1021	0	0	0	
5	0	0	0	0	377	371	1020	0	0	0	
6	0	0	0	0	366	358	1021	0	0	0	
7	0	0	0	0	355	345	1021	0	0	0	
8	0	0	0	0	346	332	1021	0	0	0	
9	0	0	0	0	338	318	1021	0	0	0	
10	0	0	0	0	330	304	1020	0	0	0	
11	0	0	0	0	323	291	1021	0	0	0	
12	0	0	0	0	315	279	1020	0	0	0	
13	0	0	0	0	308	267	1021	0	0	0	
14	0	0	0	0	302	257	1021	0	0	0	
15	0	0	0	0	297	250	1021	0	0	0	
0	0	0	0	0	296	247	1021	0	0	0	
1	0	0	0	0	299	247	1021	0	0	0	
2	0	0	0	0	304	251	1021	0	0	0	
3	0	0	0	0	314	259	1021	0	0	0	
4	0	0	0	0	327	271	1020	0	0	0	
5	0	0	0	0	343	286	1021	0	0	0	
6	0	0	0	0	361	303	1021	0	0	0	
7	0	0	0	0	381	322	1021	0	0	0	
8	0	0	0	0	402	342	1021	0	0	0	
9	0	0	0	0	423	361	1021	0	0	0	
10	0	0	0	0	443	381	1021	0	0	0	
11	0	0	0	0	461	399	1021	0	0	0	
12	0	0	0	0	478	416	1021	0	0	0	
13	0	0	0	0	492	431	1021	0	0	0	
14	0	0	0	0	505	444	1021	0	0	0	
15	0	0	0	0	516	454	1021	0	0	0	
0	0	0	0	0	526	464	1021	0	0	0	
1	0	0	0	0	535	472	1021	0	0	0	
2	0	0	0	0	543	479	1021	0	0	0	
3	0	0	0	0	549	485	1021	0	0	0	
4	0	0	0	0	554	490	1021	0	0	0	
5	0	0	0	0	558	495	1021	0	0	0	
6	0	0	0	0	560	498	1021	0	0	0	
7	0	0	0	0	561	502	1021	0	0	0	
8	0	0	0	0	560	504	1021	0	0	0	
9	0	0	0	0	558	505	1021	0	0	0	
10	0	0	0	0	555	506	1021	0	0	0	
11	0	0	0	0	549	506	1021	0	0	0	
12	0	0	0	0	543	504	1021	0	0	0	
13	0	0	0	0	537	502	1021	0	0	0	
14	0	0	0	0	531	499	1021	0	0	0	
15	0	0	0	0	527	496	1021	0	0	0	
0	0	0	0	0	524	494	1021	0	0	0	
1	0	0	0	0	522	490	1021	0	0	0	
2	0	0	0	0	523	488	1020	0	0	0	
3	0	0	0	0	524	487	1021	0	0	0	
4	0	0	0	0	526	487	1021	0	0	0	
5	0	0	0	0	529	488	1021	0	0	0	
6	0	0	0	0	531	490	1021	0	0	0	
7	0	0	0	0	534	492	1021	0	0	0	
8	0	0	0	0	537	496	1021	0	0	0	
9	0	0	0	0	541	499	1021	0	0	0	
10	0	0	0	0	547	503	1021	0	0	0	
11	0	0	0	0	554	506	1021	0	0	0	
12	0	0	0	0	563	509	1021	0	0	0	
13	0	0	0	0	573	512	1021	0	0	0	
14	0	0	0	0	583	515	1021	0	0	0	
15	0	0	0	0	592	517	1021	0	0	0	
0	0	0	0	0	598	518	1021	0	0	0	
1	0	0	0	0	600	519	1020	0	0	0	
2	0	0	0	0	598	519	1021	0	0	0	
3	0	0	0	0	591	519	1021	0	0	0	
4	0	0	0	0	581	517	1021	0	0	0	
5	0	0	0	0	568	516	1021	0	0	0	
6	0	0	0	0	555	515	1021	0	0	0	
7	0	0	0	0	541	514	1021	0	0	0	
8	0	0	0	0	528	513	1021	0	0	0	
9	0	0	0	0	516	511	1021	0	0	0	
10	0	0	0	0	506	510	1021	0	0	0	
11	0	0	0	0	497	507	1021	0	0	0	
12	0	0	0	0	491	504	1021	0	0	0	
13	0	0	0	0	485	499	1021	0	0	0	
14	0	0	0	0	483	496	1021	0	0	0	
15	0	0	0	0	483	492	1021	0	0	0	
0	0	0	0	0	484	488	1021	0	0	0	
1	0	0	0	0	489	486	1021	0	0	0	
2	0	0	0	0	496	483	1021	0	0	0	
3	0	0	0	0	503	480	1021	0	0	0	
4	0	0	0	0	510	479	1021	0	0	0	
5	0	0	0	0	517	477	1021	0	0	0	
6	0	0	0	0	523	476	1021	0	0	0	
7	0	0	0	0	526	475	1021	0	0	0	
8	0	0	0	0	528	473	1021	0	0	0	
9	0	0	0	0	528	472	1021	0	0	0	
10	0	0	0	0	526	472	1021	0	0	0	
11	0	0	0	0	524	471	1021	0	0	0	
12	0	0	0	0	522	470	1021	0	0	0	
13	0	0	0	0	521	470	1021	0	0	0	
14	0	0	0	0	521	471	1020	0	0	0	
15	0	0	0	0	524	471	1021	0	0	0	
0	0	0	0	0	528	472	1021	0	0	0	
1	0	0	0	0	534	473	1021	0	0	0	
2	0	0	0	0	541	474	1021	0	0	0	
3	0	0	0	0	546	475	1021	0	0	0	
4	0	0	0	0	551	477	1020	0	0	0	
5	0	0	0	0	553	479	1021	0	0	0	
6	0	0	0	0	553	481	1021	0	0	0	
7	0	0	0	0	552	483	1021	0	0	0	
8	0	0	0	0	549	486	1020	0	0	0	
9	0	0	0	0	546	489	1021	0	0	0	
10	0	0	0	0	542	492	1021	0	0	0	
11	0	0	0	0	537	494	1021	0	0	0	
12	0	0	0	0	534	497	1021	0	0	0	
13	0	0	0	0	531	500	1021	0	0	0	
14	0	0	0	0	531	503	1021	0	0	0	
15	0	0	0	0	532	506	1021	0	0	0	
0	0	0	0	0	533	508	1021	0	0	0	
1	0	0	0	0	532	509	1021	0	0	0	
2	0	0	0	0	529	508	1021	0	0	0	
3	0	0	0	0	524	506	1021	0	0	0	
4	0	0	0	0	517	503	1021	0	0	0	
5	0	0	0	0	508	498	1021	0	0	0	
6	0	0	0	0	500	492	1021	0	0	0	
7	0	0	0	0	492	487	1021	0	0	0	
8	0	0	0	0	486	482	1021	0	0	0	
9	0	0	0	0	481	478	1021	0	0	0	
10	0	0	0	0	478	474	1021	0	0	0	
11	0	0	0	0	477	472	1021	0	0	0	
12	0	0	0	0	477	472	1021	0	0	0	
13	0	0	0	0	479	472	1020	0	0	0	
14	0	0	0	0	483	474	1021	0	0	0	
15	0	0	0	0	489	476	1021	0	0	0	
0	0	0	0	0	495	478	1021	0	0	0	
1	0	0	0	0	502	480	1021	0	0	0	
2	0	0	0	0	509	482	1021	0	0	0	
3	0	0	0	0	516	484	1021	0	0	0	
4	0	0	0	0	523	486	1021	0	0	0	
5	0	0	0	0	529	487	1021	0	0	0	
6	0	0	0	0	535	489	1021	0	0	0	
7	0	0	0	0	541	492	1020	0	0	0	
8	0	0	0	0	547	494	1021	0	0	0	
9	0	0	0	0	554	497	1021	0	0	0	
10	0	0	0	0	560	499	1021	0	0	0	
11	0	0	0	0	564	502	1021	0	0	0	
12	0	0	0	0	567	503	1021	0	0	0	
13	0	0	0	0	569	504	1021	0	0	0	
14	0	0	0	0	569	504	1021	0	0	0	
15	0	0	0	0	567	503	1021	0	0	0	
0	0	0	0	0	563	502	1021	0	0	0	
1	0	0	0	0	559	499	1021	0	0	0	
2	0	0	0	0	553	496	1021	0	0	0	
3	0	0	0	0	547	493	1021	0	0	0	
4	0	0	0	0	542	490	1021	0	0	0	
5	0	0	0	0	537	486	1020	0	0	0	
6	0	0	0	0	534	483	1021	0	0	0	
7	0	0	0	0	532	480	1020	0	0	0	
8	0	0	0	0	534	477	1021	0	0	0	
9	0	0	0	0	537	476	1021	0	0	0	
10	0	0	0	0	541	476	1021	0	0	0	
11	0	0	0	0	545	477	1021	0	0	0	
12	0	0	0	0	549	480	1021	0	0	0	
13	0	0	0	0	552	483	1021	0	0	0	
14	0	0	0	0	553	487	1021	0	0	0	
15	0	0	0	0	551	491	1021	0	0	0	
0	0	0	0	0	548	494	1021	0	0	0	
1	0	0	0	0	543	497	1021	0	0	0	
2	0	0	0	0	536	499	1021	0	0	0	
3	0	0	0	0	529	500	1021	0	0	0	
4	0	0	0	0	521	500	1021	0	0	0	
5	0	0	0	0	515	500	1021	0	0	0	
6	0	0	0	0	511	499	1021	0	0	0	
7	0	0	0	0	508	497	1021	0	0	0	
8	0	0	0	0	505	495	1021	0	0	0	
9	0	0	0	0	504	492	1021	0	0	0	
10	0	0	0	0	505	489	1021	0	0	0	
11	0	0	0	0	507	487	1021	0	0	0	
12	0	0	0	0	509	486	1021	0	0	0	
13	0	0	0	0	512	483	1021	0	0	0	
14	0	0	0	0	515	482	1020	0	0	0	
15	0	0	0	0	518	481	1021	0	0	0	
0	0	0	0	0	520	481	1020	0	0	0	
1	0	0	0	0	523	480	1021	0	0	0	
2	0	0	0	0	524	480	1021	0	0	0	
3	0	0	0	0	526	481	1020	0	0	0	
4	0	0	0	0	528	483	1021	0	0	0	
5	0	0	0	0	531	485	1021	0	0	0	
6	0	0	0	0	535	488	1021	0	0	0	
7	0	0	0	0	540	492	1021	0	0	0	
8	0	0	0	0	545	496	1021	0	0	0	
9	0	0	0	0	550	499	1021	0	0	0	
10	0	0	0	0	554	503	1021	0	0	0	
11	0	0	0	0	556	504	1021	0	0	0	
12	0	0	0	0	555	504	1021	0	0	0	
13	0	0	0	0	552	503	1021	0	0	0	
14	0	0	0	0	548	500	1021	0	0	0	
15	0	0	0	0	543	498	1021	0	0	0	
0	0	0	0	0	538	495	1021	0	0	0	
1	0	0	0	0	534	492	1021	0	0	0	
2	0	0	0	0	530	489	1021	0	0	0	
3	0	0	0	0	529	487	1021	0	0	0	
4	0	0	0	0	528	486	1021	0	0	0	
5	0	0	0	0	529	486	1021	0	0	0	
6	0	0	0	0	529	486	1021	0	0	0	
7	0	0	0	0	529	486	1021	0	0	0	
8	0	0	0	0	529	485	1021	0	0	0	
9	0	0	0	0	527	483	1021	0	0	0	
10	0	0	0	0	524	481	1021	0	0	0	
11	0	0	0	0	520	478	1021	0	0	0	
12	0	0	0	0	515	475	1021	0	0	0	
13	0	0	0	0	509	471	1021	0	0	0	
14	0	0	0	0	503	467	1021	0	0	0	
15	0	0	0	0	496	464	1021	0	0	0	
0	0	0	0	0	489	462	1021	0	0	0	
1	0	0	0	0	484	460	1021	0	0	0	
2	0	0	0	0	480	459	1021	0	0	0	
3	0	0	0	0	478	459	1021	0	0	0	
4	0	0	0	0	478	460	1021	0	0	0	
5	0	0	0	0	479	462	1021	0	0	0	
6	0	0	0	0	481	464	1020	0	0	0	
7	0	0	0	0	484	467	1021	0	0	0	
8	0	0	0	0	487	470	1021	0	0	0	
9	0	0	0	0	491	472	1021	0	0	0	
10	0	0	0	0	495	474	1021	0	0	0	
11	0	0	0	0	499	476	1021	0	0	0	
12	0	0	0	0	504	477	1021	0	0	0	
13	0	0	0	0	510	478	1021	0	0	0	
14	0	0	0	0	517	479	1021	0	0	0	
15	0	0	0	0	524	480	1021	0	0	0	
0	0	0	0	0	530	481	1021	0	0	0	
1	0	0	0	0	536	482	1021	0	0	0	
2	0	0	0	0	542	483	1021	0	0	0	
3	0	0	0	0	546	485	1021	0	0	0	
4	0	0	0	0	550	487	1021	0	0	0	
5	0	0	0	0	552	490	1021	0	0	0	
6	0	0	0	0	555	492	1021	0	0	0	
7	0	0	0	0	556	495	1021	0	0	0	
8	0	0	0	0	556	496	1021	0	0	0	
9	0	0	0	0	554	497	1021	0	0	0	
10	0	0	0	0	551	497	1020	0	0	0	
11	0	0	0	0	545	496	1021	0	0	0	
12	0	0	0	0	539	496	1021	0	0	0	
13	0	0	0	0	532	494	1021	0	0	0	
14	0	0	0	0	526	492	1021	0	0	0	
15	0	0	0	0	520	489	1021	0	0	0	
0	0	0	0	0	516	487	1021	0	0	0	
1	0	0	0	0	513	483	1021	0	0	0	
2	0	0	0	0	511	480	1021	0	0	0	
3	0	0	0	0	508	476	1021	0	0	0	
4	0	0	0	0	507	473	1021	0	0	0	
5	0	0	0	0	505	471	1021	0	0	0	
6	0	0	0	0	505	469	1021	0	0	0	
7	0	0	0	0	505	468	1021	0	0	0	
8	0	0	0	0	506	468	1021	0	0	0	
9	0	0	0	0	508	468	1021	0	0	0	
10	0	0	0	0	510	470	1020	0	0	0	
11	0	0	0	0	512	472	1021	0	0	0	
12	0	0	0	0	515	476	1021	0	0	0	
13	0	0	0	0	519	479	1021	0	0	0	
14	0	0	0	0	524	485	1020	0	0	0	
15	0	0	0	0	529	491	1021	0	0	0	
0	0	0	0	0	535	498	1021	0	0	0	
1	0	0	0	0	541	505	1021	0	0	0	
2	0	0	0	0	547	512	1021	0	0	0	
3	0	0	0	0	553	518	1020	0	0	0	
4	0	0	0	0	558	524	1021	0	0	0	
5	0	0	0	0	561	528	1021	0	0	0	
6	0	0	0	0	564	531	1021	0	0	0	
7	0	0	0	0	565	533	1021	0	0	0	
8	0	0	0	0	564	532	1021	0	0	0	
9	0	0	0	0	562	530	1021	0	0	0	
10	0	0	0	0	558	526	1021	0	0	0	
11	0	0	0	0	552	520	1021	0	0	0	
12	0	0	0	0	544	513	1021	0	0	0	
13	0	0	0	0	536	504	1021	0	0	0	
14	0	0	0	0	527	496	1021	0	0	0	
15	0	0	0	0	519	487	1021	0	0	0	
0	0	0	0	0	512	480	1021	0	0	0	
1	0	0	0	0	508	473	1021	0	0	0	
2	0	0	0	0	505	469	1021	0	0	0	
3	0	0	0	0	506	467	1021	0	0	0	
4	0	0	0	0	510	466	1021	0	0	0	
5	0	0	0	0	514	467	1021	0	0	0	
6	0	0	0	0	519	468	1021	0	0	0	
7	0	0	0	0	523	471	1021	0	0	0	
8	0	0	0	0	527	473	1021	0	0	0	
9	0	0	0	0	529	476	1021	0	0	0	
10	0	0	0	0	530	477	1021	0	0	0	
11	0	0	0	0	529	477	1021	0	0	0	
12	0	0	0	0	525	476	1021	0	0	0	
13	0	0	0	0	520	474	1021	0	0	0	
14	0	0	0	0	514	472	1021	0	0	0	
15	0	0	0	0	507	468	1021	0	0	0	
0	0	0	0	0	501	465	1021	0	0	0	
1	0	0	0	0	497	463	1021	0	0	0	
2	0	0	0	0	495	461	1021	0	0	0	
3	0	0	0	0	497	461	1021	0	0	0	
4	0	0	0	0	502	462	1021	0	0	0	
5	0	0	0	0	509	463	1021	0	0	0	
6	0	0	0	0	518	466	1020	0	0	0	
7	0	0	0	0	528	470	1021	0	0	0	
8	0	0	0	0	536	473	1021	0	0	0	
9	0	0	0	0	543	477	1020	0	0	0	
10	0	0	0	0	549	481	1021	0	0	0	
11	0	0	0	0	552	484	1021	0	0	0	
12	0	0	0	0	553	488	1021	0	0	0	
13	0	0	0	0	552	492	1021	0	0	0	
14	0	0	0	0	550	494	1021	0	0	0	
15	0	0	0	0	546	497	1021	0	0	0	
0	0	0	0	0	541	499	1020	0	0	0	
1	0	0	0	0	536	500	1021	0	0	0	
2	0	0	0	0	532	502	1021	0	0	0	
3	0	0	0	0	529	503	1021	0	0	0	
4	0	0	0	0	527	504	1021	0	0	0	
5	0	0	0	0	525	504	1021	0	0	0	
6	0	0	0	0	524	503	1021	0	0	0	
7	0	0	0	0	524	502	1021	0	0	0	
8	0	0	0	0	524	500	1021	0	0	0	
9	0	0	0	0	524	497	1021	0	0	0	
10	0	0	0	0	524	494	1021	0	0	0	
11	0	0	0	0	525	491	1021	0	0	0	
12	0	0	0	0	526	489	1021	0	0	0	
13	0	0	0	0	527	487	1021	0	0	0	
14	0	0	0	0	528	487	1021	0	0	0	
15	0	0	0	0	529	488	1021	0	0	0	
0	0	0	0	0	531	489	1021	0	0	0	
1	0	0	0	0	531	492	1021	0	0	0	
2	0	0	0	0	531	495	1021	0	0	0	
3	0	0	0	0	529	497	1021	0	0	0	
4	0	0	0	0	526	497	1021	0	0	0	
5	0	0	0	0	522	497	1021	0	0	0	
6	0	0	0	0	517	495	1021	0	0	0	
7	0	0	0	0	511	491	1021	0	0	0	
8	0	0	0	0	506	487	1021	0	0	0	
9	0	0	0	0	500	481	1021	0	0	0	
10	0	0	0	0	496	476	1021	0	0	0	
11	0	0	0	0	492	472	1021	0	0	0	
12	0	0	0	0	490	467	1021	0	0	0	
13	0	0	0	0	489	464	1021	0	0	0	
14	0	0	0	0	491	462	1020	0	0	0	
15	0	0	0	0	495	462	1021	0	0	0	
0	0	0	0	0	500	463	1021	0	0	0	
1	0	0	0	0	507	464	1021	0	0	0	
2	0	0	0	0	515	467	1021	0	0	0	
3	0	0	0	0	522	470	1021	0	0	0	
4	0	0	0	0	529	474	1021	0	0	0	
5	0	0	0	0	536	479	1021	0	0	0	
6	0	0	0	0	541	483	1021	0	0	0	
7	0	0	0	0	546	487	1021	0	0	0	
8	0	0	0	0	550	490	1020	0	0	0	
9	0	0	0	0	554	493	1021	0	0	0	
10	0	0	0	0	556	495	1021	0	0	0	
11	0	0	0	0	559	495	1021	0	0	0	
12	0	0	0	0	560	495	1021	0	0	0	
13	0	0	0	0	560	494	1021	0	0	0	
14	0	0	0	0	558	492	1021	0	0	0	
15	0	0	0	0	555	490	1021	0	0	0	
0	0	0	0	0	550	488	1021	0	0	0	
1	0	0	0	0	546	487	1021	0	0	0	
2	0	0	0	0	542	485	1021	0	0	0	
3	0	0	0	0	539	485	1021	0	0	0	
4	0	0	0	0	537	486	1021	0	0	0	
5	0	0	0	0	536	487	1021	0	0	0	
6	0	0	0	0	536	488	1021	0	0	0	
7	0	0	0	0	536	491	1020	0	0	0	
8	0	0	0	0	536	492	1021	0	0	0	
9	0	0	0	0	536	494	1021	0	0	0	
10	0	0	0	0	536	496	1021	0	0	0	
11	0	0	0	0	536	497	1021	0	0	0	
12	0	0	0	0	534	497	1021	0	0	0	
13	0	0	0	0	531	497	1021	0	0	0	
14	0	0	0	0	527	496	1021	0	0	0	
15	0	0	0	0	523	494	1021	0	0	0	
0	0	0	0	0	518	491	1021	0	0	0	
1	0	0	0	0	513	488	1021	0	0	0	
2	0	0	0	0	511	486	1021	0	0	0	
3	0	0	0	0	510	485	1021	0	0	0	
4	0	0	0	0	511	485	1021	0	0	0	
5	0	0	0	0	514	486	1021	0	0	0	
6	0	0	0	0	519	488	1021	0	0	0	
7	0	0	0	0	523	491	1021	0	0	0	
8	0	0	0	0	527	494	1021	0	0	0	
9	0	0	0	0	531	497	1021	0	0	0	
10	0	0	0	0	534	499	1021	0	0	0	
11	0	0	0	0	535	501	1021	0	0	0	
12	0	0	0	0	536	503	1021	0	0	0	
13	0	0	0	0	536	504	1021	0	0	0	
14	0	0	0	0	535	504	1021	0	0	0	
15	0	0	0	0	534	504	1021	0	0	0	
0	0	0	0	0	532	504	1020	0	0	0	
1	0	0	0	0	530	503	1021	0	0	0	
2	0	0	0	0	527	501	1021	0	0	0	
3	0	0	0	0	525	499	1021	0	0	0	
4	0	0	0	0	522	496	1021	0	0	0	
5	0	0	0	0	519	492	1021	0	0	0	
6	0	0	0	0	516	489	1021	0	0	0	
7	0	0	0	0	514	487	1020	0	0	0	
8	0	0	0	0	514	485	1021	0	0	0	
9	0	0	0	0	515	485	1021	0	0	0	
10	0	0	0	0	517	486	1021	0	0	0	
11	0	0	0	0	520	487	1021	0	0	0	
12	0	0	0	0	524	491	1021	0	0	0	
13	0	0	0	0	529	494	1021	0	0	0	
14	0	0	0	0	535	497	1021	0	0	0	
15	0	0	0	0	540	501	1021	0	0	0	
0	0	0	0	0	544	504	1021	0	0	0	
1	0	0	0	0	548	507	1021	0	0	0	
2	0	0	0	0	550	508	1021	0	0	0	
3	0	0	0	0	551	509	1021	0	0	0	
4	0	0	0	0	551	508	1021	0	0	0	
5	0	0	0	0	548	506	1021	0	0	0	
6	0	0	0	0	544	503	1021	0	0	0	
7	0	0	0	0	540	499	1021	0	0	0	
8	0	0	0	0	535	496	1021	0	0	0	
9	0	0	0	0	530	492	1021	0	0	0	
10	0	0	0	0	527	489	1020	0	0	0	
11	0	0	0	0	524	487	1021	0	0	0	
12	0	0	0	0	524	486	1021	0	0	0	
13	0	0	0	0	524	484	1021	0	0	0	
14	0	0	0	0	525	485	1020	0	0	0	
15	0	0	0	0	527	486	1021	0	0	0	
0	0	0	0	0	530	488	1021	0	0	0	
1	0	0	0	0	532	490	1021	0	0	0	
2	0	0	0	0	534	493	1021	0	0	0	
3	0	0	0	0	535	494	1021	0	0	0	
4	0	0	0	0	534	495	1021	0	0	0	
5	0	0	0	0	532	496	1021	0	0	0	
6	0	0	0	0	529	495	1021	0	0	0	
7	0	0	0	0	527	494	1021	0	0	0	
8	0	0	0	0	525	492	1020	0	0	0	
9	0	0	0	0	524	490	1021	0	0	0	
10	0	0	0	0	524	487	1021	0	0	0	
11	0	0	0	0	525	486	1021	0	0	0	
12	0	0	0	0	527	483	1021	0	0	0	
13	0	0	0	0	529	481	1021	0	0	0	
14	0	0	0	0	531	480	1021	0	0	0	
15	0	0	0	0	533	480	1021	0	0	0	
0	0	0	0	0	534	480	1021	0	0	0	
1	0	0	0	0	534	480	1021	0	0	0	
2	0	0	0	0	534	480	1021	0	0	0	
3	0	0	0	0	534	481	1021	0	0	0	
4	0	0	0	0	534	483	1021	0	0	0	
5	0	0	0	0	535	484	1021	0	0	0	
6	0	0	0	0	536	487	1021	0	0	0	
7	0	0	0	0	536	488	1021	0	0	0	
8	0	0	0	0	536	491	1021	0	0	0	
9	0	0	0	0	536	493	1021	0	0	0	
10	0	0	0	0	534	495	1021	0	0	0	
11	0	0	0	0	531	496	1021	0	0	0	
12	0	0	0	0	527	496	1021	0	0	0	
13	0	0	0	0	523	496	1021	0	0	0	
14	0	0	0	0	520	496	1021	0	0	0	
15	0	0	0	0	519	496	1021	0	0	0	
0	0	0	0	0	520	498	1021	0	0	0	
1	0	0	0	0	524	500	1021	0	0	0	
2	0	0	0	0	530	504	1021	0	0	0	
3	0	0	0	0	539	508	1021	0	0	0	
4	0	0	0	0	548	511	1021	0	0	0	
5	0	0	0	0	557	514	1021	0	0	0	
6	0	0	0	0	566	516	1021	0	0	0	
7	0	0	0	0	573	519	1021	0	0	0	
8	0	0	0	0	578	520	1021	0	0	0	
9	0	0	0	0	581	522	1021	0	0	0	
10	0	0	0	0	582	523	1021	0	0	0	
11	0	0	0	0	580	524	1021	0	0	0	
12	0	0	0	0	577	524	1021	0	0	0	
13	0	0	0	0	572	524	1021	0	0	0	
14	0	0	0	0	565	523	1021	0	0	0	
15	0	0	0	0	557	520	1021	0	0	0	
0	0	0	0	0	550	516	1021	0	0	0	
1	0	0	0	0	543	512	1021	0	0	0	
2	0	0	0	0	536	507	1021	0	0	0	
3	0	0	0	0	529	500	1021	0	0	0	
4	0	0	0	0	523	493	1021	0	0	0	
5	0	0	0	0	515	486	1021	0	0	0	
6	0	0	0	0	508	479	1021	0	0	0	
7	0	0	0	0	501	472	1021	0	0	0	
8	0	0	0	0	495	465	1021	0	0	0	
9	0	0	0	0	489	460	1021	0	0	0	
10	0	0	0	0	484	457	1020	0	0	0	
11	0	0	0	0	481	455	1021	0	0	0	
12	0	0	0	0	480	455	1021	0	0	0	
13	0	0	0	0	481	457	1021	0	0	0	
14	0	0	0	0	484	462	1021	0	0	0	
15	0	0	0	0	489	467	1021	0	0	0	
0	0	0	0	0	495	474	1021	0	0	0	
1	0	0	0	0	503	483	1021	0	0	0	
2	0	0	0	0	511	491	1021	0	0	0	
3	0	0	0	0	520	498	1021	0	0	0	
4	0	0	0	0	528	505	1021	0	0	0	
5	0	0	0	0	535	511	1021	0	0	0	
6	0	0	0	0	541	514	1021	0	0	0	
7	0	0	0	0	545	516	1021	0	0	0	
8	0	0	0	0	547	515	1021	0	0	0	
9	0	0	0	0	546	513	1021	0	0	0	
10	0	0	0	0	544	508	1021	0	0	0	
11	0	0	0	0	540	503	1021	0	0	0	
12	0	0	0	0	535	497	1021	0	0	0	
13	0	0	0	0	530	491	1021	0	0	0	
14	0	0	0	0	524	486	1020	0	0	0	
15	0	0	0	0	519	481	1021	0	0	0	
0	0	0	0	0	515	479	1021	0	0	0	
1	0	0	0	0	512	478	1021	0	0	0	
2	0	0	0	0	512	478	1021	0	0	0	
3	0	0	0	0	513	480	1021	0	0	0	
4	0	0	0	0	516	483	1021	0	0	0	
5	0	0	0	0	520	489	1021	0	0	0	
6	0	0	0	0	527	495	1021	0	0	0	
7	0	0	0	0	533	500	1021	0	0	0	
8	0	0	0	0	539	505	1020	0	0	0	
9	0	0	0	0	545	510	1021	0	0	0	
10	0	0	0	0	549	512	1021	0	0	0	
11	0	0	0	0	552	512	1021	0	0	0	
12	0	0	0	0	553	510	1021	0	0	0	
13	0	0	0	0	554	507	1021	0	0	0	
14	0	0	0	0	555	503	1021	0	0	0	
15	0	0	0	0	554	498	1021	0	0	0	
0	0	0	0	0	553	493	1021	0	0	0	
1	0	0	0	0	551	488	1021	0	0	0	
2	0	0	0	0	546	484	1020	0	0	0	
3	0	0	0	0	540	481	1021	0	0	0	
4	0	0	0	0	535	479	1021	0	0	0	
5	0	0	0	0	529	478	1021	0	0	0	
6	0	0	0	0	525	479	1021	0	0	0	
7	0	0	0	0	522	482	1020	0	0	0	
8	0	0	0	0	520	486	1021	0	0	0	
9	0	0	0	0	520	492	1021	0	0	0	
10	0	0	0	0	523	497	1021	0	0	0	
11	0	0	0	0	526	504	1021	0	0	0	
12	0	0	0	0	531	510	1021	0	0	0	
13	0	0	0	0	536	515	1021	0	0	0	
14	0	0	0	0	540	519	1021	0	0	0	
15	0	0	0	0	544	521	1021	0	0	0	
0	0	0	0	0	546	521	1021	0	0	0	
1	0	0	0	0	547	518	1021	0	0	0	
2	0	0	0	0	548	515	1021	0	0	0	
3	0	0	0	0	548	510	1021	0	0	0	
4	0	0	0	0	547	504	1021	0	0	0	
5	0	0	0	0	547	499	1021	0	0	0	
6	0	0	0	0	546	494	1020	0	0	0	
7	0	0	0	0	544	490	1021	0	0	0	
8	0	0	0	0	542	488	1020	0	0	0	
9	0	0	0	0	540	487	1021	0	0	0	
10	0	0	0	0	539	489	1021	0	0	0	
11	0	0	0	0	538	493	1020	0	0	0	
12	0	0	0	0	538	499	1021	0	0	0	
13	0	0	0	0	539	505	1021	0	0	0	
14	0	0	0	0	541	513	1021	0	0	0	
15	0	0	0	0	543	519	1021	0	0	0	
0	0	0	0	0	545	525	1020	0	0	0	
1	0	0	0	0	546	528	1021	0	0	0	
2	0	0	0	0	547	528	1021	0	0	0	
3	0	0	0	0	545	525	1021	0	0	0	
4	0	0	0	0	540	518	1021	0	0	0	
5	0	0	0	0	532	507	1021	0	0	0	
6	0	0	0	0	522	493	1021	0	0	0	
7	0	0	0	0	509	477	1021	0	0	0	
8	0	0	0	0	494	459	1021	0	0	0	
9	0	0	0	0	479	441	1021	0	0	0	
10	0	0	0	0	463	423	1020	0	0	0	
11	0	0	0	0	449	407	1021	0	0	0	
12	0	0	0	0	437	393	1021	0	0	0	
13	0	0	0	0	425	380	1021	0	0	0	
14	0	0	0	0	414	369	1021	0	0	0	
15	0	0	0	0	403	358	1020	0	0	0	
0	0	0	0	0	392	348	1021	0	0	0	
1	0	0	0	0	382	338	1021	0	0	0	
2	0	0	0	0	372	327	1021	0	0	0	
3	0	0	0	0	362	316	1021	0	0	0	
4	0	0	0	0	352	303	1021	0	0	0	
5	0	0	0	0	343	290	1020	0	0	0	
6	0	0	0	0	332	277	1021	0	0	0	
7	0	0	0	0	322	265	1021	0	0	0	
8	0	0	0	0	312	254	1021	0	0	0	
9	0	0	0	0	302	245	1021	0	0	0	
10	0	0	0	0	295	240	1020	0	0	0	
11	0	0	0	0	291	238	1021	0	0	0	
12	0	0	0	0	289	240	1021	0	0	0	
13	0	0	0	0	292	247	1021	0	0	0	
14	0	0	0	0	299	258	1021	0	0	0	
15	0	0	0	0	310	273	1021	0	0	0	
0	0	0	0	0	326	291	1021	0	0	0	
1	0	0	0	0	347	313	1021	0	0	0	
2	0	0	0	0	371	337	1021	0	0	0	
3	0	0	0	0	397	363	1020	0	0	0	
4	0	0	0	0	424	388	1021	0	0	0	
5	0	0	0	0	451	414	1021	0	0	0	
6	0	0	0	0	476	437	1021	0	0	0	
7	0	0	0	0	498	459	1020	0	0	0	
8	0	0	0	0	517	478	1021	0	0	0	
9	0	0	0	0	532	493	1020	0	0	0	
10	0	0	0	0	542	505	1021	0	0	0	
11	0	0	0	0	549	515	1021	0	0	0	
12	0	0	0	0	553	520	1021	0	0	0	
13	0	0	0	0	554	524	1021	0	0	0	
14	0	0	0	0	554	524	1021	0	0	0	
15	0	0	0	0	553	523	1021	0	0	0	
0	0	0	0	0	551	520	1021	0	0	0	
1	0	0	0	0	549	516	1021	0	0	0	
2	0	0	0	0	547	512	1021	0	0	0	
3	0	0	0	0	546	508	1021	0	0	0	
4	0	0	0	0	545	504	1021	0	0	0	
5	0	0	0	0	543	500	1021	0	0	0	
6	0	0	0	0	541	498	1021	0	0	0	
7	0	0	0	0	539	497	1021	0	0	0	
8	0	0	0	0	539	499	1021	0	0	0	
9	0	0	0	0	540	503	1021	0	0	0	
10	0	0	0	0	543	508	1021	0	0	0	
11	0	0	0	0	546	513	1021	0	0	0	
12	0	0	0	0	551	520	1021	0	0	0	
13	0	0	0	0	555	526	1021	0	0	0	
14	0	0	0	0	560	532	1020	0	0	0	
15	0	0	0	0	564	537	1021	0	0	0	
0	0	0	0	0	568	541	1020	0	0	0	
1	0	0	0	0	573	543	1021	0	0	0	
2	0	0	0	0	576	543	1020	0	0	0	
3	0	0	0	0	579	543	1021	0	0	0	
4	0	0	0	0	581	541	1021	0	0	0	
5	0	0	0	0	583	538	1021	0	0	0	
6	0	0	0	0	584	535	1021	0	0	0	
7	0	0	0	0	583	530	1021	0	0	0	
8	0	0	0	0	581	526	1021	0	0	0	
9	0	0	0	0	577	520	1021	0	0	0	
10	0	0	0	0	574	515	1021	0	0	0	
11	0	0	0	0	569	510	1021	0	0	0	
12	0	0	0	0	564	506	1021	0	0	0	
13	0	0	0	0	561	503	1021	0	0	0	
14	0	0	0	0	558	500	1021	0	0	0	
15	0	0	0	0	555	498	1021	0	0	0	
0	0	0	0	0	552	497	1021	0	0	0	
1	0	0	0	0	551	497	1020	0	0	0	
2	0	0	0	0	549	499	1021	0	0	0	
3	0	0	0	0	548	501	1021	0	0	0	
4	0	0	0	0	547	503	1021	0	0	0	
5	0	0	0	0	546	506	1021	0	0	0	
6	0	0	0	0	546	510	1020	0	0	0	
7	0	0	0	0	547	513	1021	0	0	0	
8	0	0	0	0	548	518	1021	0	0	0	
9	0	0	0	0	551	521	1021	0	0	0	
10	0	0	0	0	553	526	1020	0	0	0	
11	0	0	0	0	557	530	1021	0	0	0	
12	0	0	0	0	560	534	1021	0	0	0	
13	0	0	0	0	563	537	1021	0	0	0	
14	0	0	0	0	566	540	1021	0	0	0	
15	0	0	0	0	567	542	1021	0	0	0	
0	0	0	0	0	568	543	1021	0	0	0	
1	0	0	0	0	568	544	1021	0	0	0	
2	0	0	0	0	568	544	1021	0	0	0	
3	0	0	0	0	569	544	1021	0	0	0	
4	0	0	0	0	571	543	1021	0	0	0	
5	0	0	0	0	574	542	1021	0	0	0	
6	0	0	0	0	577	540	1021	0	0	0	
7	0	0	0	0	579	536	1021	0	0	0	
8	0	0	0	0	582	533	1021	0	0	0	
9	0	0	0	0	583	529	1021	0	0	0	
10	0	0	0	0	582	525	1021	0	0	0	
11	0	0	0	0	580	520	1021	0	0	0	
12	0	0	0	0	575	515	1021	0	0	0	
13	0	0	0	0	571	509	1021	0	0	0	
14	0	0	0	0	564	504	1020	0	0	0	
15	0	0	0	0	558	499	1021	0	0	0	
0	0	0	0	0	552	495	1021	0	0	0	
1	0	0	0	0	548	493	1021	0	0	0	
2	0	0	0	0	546	492	1021	0	0	0	
3	0	0	0	0	544	492	1021	0	0	0	
4	0	0	0	0	543	494	1021	0	0	0	
5	0	0	0	0	543	496	1021	0	0	0	
6	0	0	0	0	544	499	1021	0	0	0	
7	0	0	0	0	547	502	1021	0	0	0	
8	0	0	0	0	550	505	1021	0	0	0	
9	0	0	0	0	553	508	1021	0	0	0	
10	0	0	0	0	557	511	1021	0	0	0	
11	0	0	0	0	560	512	1021	0	0	0	
12	0	0	0	0	562	513	1021	0	0	0	
13	0	0	0	0	562	513	1021	0	0	0	
14	0	0	0	0	562	512	1021	0	0	0	
15	0	0	0	0	561	510	1021	0	0	0	
0	0	0	0	0	562	509	1021	0	0	0	
1	0	0	0	0	562	509	1021	0	0	0	
2	0	0	0	0	562	508	1021	0	0	0	
3	0	0	0	0	562	509	1020	0	0	0	
4	0	0	0	0	561	510	1021	0	0	0	
5	0	0	0	0	559	512	1021	0	0	0	
6	0	0	0	0	557	514	1021	0	0	0	
7	0	0	0	0	553	516	1020	0	0	0	
8	0	0	0	0	549	518	1021	0	0	0	
9	0	0	0	0	544	518	1021	0	0	0	
10	0	0	0	0	539	519	1021	0	0	0	
11	0	0	0	0	535	518	1021	0	0	0	
12	0	0	0	0	530	517	1020	0	0	0	
13	0	0	0	0	527	515	1021	0	0	0	
14	0	0	0	0	525	513	1021	0	0	0	
15	0	0	0	0	524	511	1021	0	0	0	
0	0	0	0	0	523	508	1021	0	0	0	
1	0	0	0	0	524	507	1021	0	0	0	
2	0	0	0	0	526	505	1021	0	0	0	
3	0	0	0	0	528	505	1021	0	0	0	
4	0	0	0	0	532	504	1021	0	0	0	
5	0	0	0	0	536	505	1021	0	0	0	
6	0	0	0	0	541	506	1021	0	0	0	
7	0	0	0	0	545	508	1021	0	0	0	
8	0	0	0	0	549	508	1021	0	0	0	
9	0	0	0	0	552	510	1021	0	0	0	
10	0	0	0	0	553	510	1021	0	0	0	
11	0	0	0	0	554	511	1020	0	0	0	
12	0	0	0	0	554	512	1021	0	0	0	
13	0	0	0	0	554	513	1021	0	0	0	
14	0	0	0	0	554	514	1021	0	0	0	
15	0	0	0	0	554	516	1020	0	0	0	
0	0	0	0	0	556	517	1021	0	0	0	
1	0	0	0	0	558	519	1020	0	0	0	
2	0	0	0	0	559	519	1021	0	0	0	
3	0	0	0	0	560	519	1021	0	0	0	
4	0	0	0	0	560	517	1021	0	0	0	
5	0	0	0	0	560	515	1021	0	0	0	
6	0	0	0	0	559	512	1021	0	0	0	
7	0	0	0	0	558	509	1021	0	0	0	
8	0	0	0	0	557	506	1021	0	0	0	
9	0	0	0	0	557	504	1021	0	0	0	
10	0	0	0	0	556	502	1021	0	0	0	
11	0	0	0	0	556	501	1021	0	0	0	
12	0	0	0	0	555	501	1021	0	0	0	
13	0	0	0	0	554	502	1021	0	0	0	
14	0	0	0	0	552	504	1021	0	0	0	
15	0	0	0	0	551	507	1021	0	0	0	
0	0	0	0	0	549	511	1021	0	0	0	
1	0	0	0	0	547	515	1021	0	0	0	
2	0	0	0	0	547	520	1021	0	0	0	
3	0	0	0	0	545	525	1021	0	0	0	
4	0	0	0	0	545	528	1021	0	0	0	
5	0	0	0	0	544	531	1021	0	0	0	
6	0	0	0	0	543	532	1021	0	0	0	
7	0	0	0	0	541	531	1021	0	0	0	
8	0	0	0	0	540	528	1021	0	0	0	
9	0	0	0	0	539	524	1021	0	0	0	
10	0	0	0	0	539	518	1021	0	0	0	
11	0	0	0	0	542	511	1021	0	0	0	
12	0	0	0	0	545	505	1021	0	0	0	
13	0	0	0	0	551	498	1021	0	0	0	
14	0	0	0	0	555	492	1021	0	0	0	
15	0	0	0	0	560	488	1021	0	0	0	
0	0	0	0	0	563	486	1020	0	0	0	
1	0	0	0	0	566	485	1021	0	0	0	
2	0	0	0	0	566	487	1021	0	0	0	
3	0	0	0	0	564	490	1021	0	0	0	
4	0	0	0	0	563	495	1021	0	0	0	
5	0	0	0	0	562	502	1021	0	0	0	
6	0	0	0	0	561	509	1021	0	0	0	
7	0	0	0	0	561	516	1021	0	0	0	
8	0	0	0	0	561	522	1021	0	0	0	
9	0	0	0	0	561	527	1021	0	0	0	
10	0	0	0	0	561	531	1021	0	0	0	
11	0	0	0	0	560	532	1021	0	0	0	
12	0	0	0	0	558	531	1021	0	0	0	
13	0	0	0	0	556	530	1021	0	0	0	
14	0	0	0	0	552	527	1021	0	0	0	
15	0	0	0	0	549	523	1021	0	0	0	
0	0	0	0	0	546	519	1021	0	0	0	
1	0	0	0	0	542	514	1021	0	0	0	
2	0	0	0	0	539	510	1021	0	0	0	
3	0	0	0	0	536	508	1021	0	0	0	
4	0	0	0	0	536	507	1021	0	0	0	
5	0	0	0	0	536	507	1021	0	0	0	
6	0	0	0	0	537	509	1021	0	0	0	
7	0	0	0	0	540	513	1020	0	0	0	
8	0	0	0	0	542	517	1021	0	0	0	
9	0	0	0	0	545	521	1021	0	0	0	
10	0	0	0	0	548	525	1021	0	0	0	
11	0	0	0	0	548	527	1020	0	0	0	
12	0	0	0	0	548	528	1021	0	0	0	
13	0	0	0	0	545	527	1021	0	0	0	
14	0	0	0	0	542	525	1021	0	0	0	
15	0	0	0	0	538	521	1021	0	0	0	
0	0	0	0	0	535	518	1021	0	0	0	
1	0	0	0	0	534	513	1021	0	0	0	
2	0	0	0	0	533	509	1021	0	0	0	
3	0	0	0	0	534	505	1021	0	0	0	
4	0	0	0	0	537	503	1021	0	0	0	
5	0	0	0	0	541	500	1021	0	0	0	
6	0	0	0	0	545	499	1021	0	0	0	
7	0	0	0	0	550	500	1021	0	0	0	
8	0	0	0	0	554	501	1021	0	0	0	
9	0	0	0	0	557	502	1021	0	0	0	
10	0	0	0	0	560	504	1021	0	0	0	
11	0	0	0	0	561	505	1021	0	0	0	
12	0	0	0	0	561	507	1021	0	0	0	
13	0	0	0	0	561	508	1021	0	0	0	
14	0	0	0	0	559	510	1021	0	0	0	
15	0	0	0	0	556	510	1021	0	0	0	
0	0	0	0	0	551	511	1021	0	0	0	
1	0	0	0	0	547	511	1021	0	0	0	
2	0	0	0	0	544	511	1021	0	0	0	
3	0	0	0	0	541	511	1021	0	0	0	
4	0	0	0	0	539	510	1021	0	0	0	
5	0	0	0	0	539	511	1020	0	0	0	
6	0	0	0	0	541	511	1021	0	0	0	
7	0	0	0	0	544	512	1021	0	0	0	
8	0	0	0	0	550	512	1021	0	0	0	
9	0	0	0	0	556	513	1021	0	0	0	
10	0	0	0	0	562	514	1020	0	0	0	
11	0	0	0	0	568	514	1021	0	0	0	
12	0	0	0	0	572	514	1021	0	0	0	
13	0	0	0	0	574	514	1021	0	0	0	
14	0	0	0	0	575	514	1021	0	0	0	
15	0	0	0	0	574	514	1021	0	0	0	
0	0	0	0	0	572	513	1021	0	0	0	
1	0	0	0	0	568	512	1021	0	0	0	
2	0	0	0	0	564	511	1021	0	0	0	
3	0	0	0	0	559	510	1021	0	0	0	
4	0	0	0	0	553	509	1021	0	0	0	
5	0	0	0	0	548	508	1021	0	0	0	
6	0	0	0	0	543	507	1021	0	0	0	
7	0	0	0	0	538	506	1021	0	0	0	
8	0	0	0	0	533	504	1021	0	0	0	
9	0	0	0	0	527	502	1021	0	0	0	
10	0	0	0	0	522	499	1021	0	0	0	
11	0	0	0	0	518	496	1021	0	0	0	
12	0	0	0	0	514	493	1021	0	0	0	
13	0	0	0	0	511	489	1021	0	0	0	
14	0	0	0	0	508	486	1020	0	0	0	
15	0	0	0	0	508	483	1021	0	0	0	
0	0	0	0	0	510	481	1021	0	0	0	
1	0	0	0	0	513	481	1021	0	0	0	
2	0	0	0	0	519	482	1021	0	0	0	
3	0	0	0	0	526	484	1021	0	0	0	
4	0	0	0	0	534	487	1021	0	0	0	
5	0	0	0	0	542	492	1021	0	0	0	
6	0	0	0	0	549	496	1021	0	0	0	
7	0	0	0	0	556	500	1021	0	0	0	
8	0	0	0	0	561	504	1021	0	0	0	
9	0	0	0	0	567	508	1021	0	0	0	
10	0	0	0	0	572	513	1021	0	0	0	
11	0	0	0	0	575	516	1021	0	0	0	
12	0	0	0	0	575	518	1021	0	0	0	
13	0	0	0	0	573	519	1021	0	0	0	
14	0	0	0	0	566	518	1021	0	0	0	
15	0	0	0	0	557	515	1021	0	0	0	
0	0	0	0	0	546	512	1021	0	0	0	
1	0	0	0	0	534	508	1021	0	0	0	
2	0	0	0	0	523	504	1021	0	0	0	
3	0	0	0	0	512	499	1021	0	0	0	
4	0	0	0	0	505	496	1021	0	0	0	
5	0	0	0	0	499	492	1021	0	0	0	
6	0	0	0	0	498	490	1021	0	0	0	
7	0	0	0	0	499	488	1021	0	0	0	
8	0	0	0	0	503	488	1021	0	0	0	
9	0	0	0	0	509	489	1021	0	0	0	
10	0	0	0	0	517	491	1021	0	0	0	
11	0	0	0	0	527	493	1021	0	0	0	
12	0	0	0	0	536	495	1021	0	0	0	
13	0	0	0	0	545	497	1021	0	0	0	
14	0	0	0	0	553	500	1021	0	0	0	
15	0	0	0	0	559	501	1021	0	0	0	
0	0	0	0	0	562	502	1021	0	0	0	
1	0	0	0	0	562	503	1020	0	0	0	
2	0	0	0	0	560	503	1021	0	0	0	
3	0	0	0	0	557	503	1021	0	0	0	
4	0	0	0	0	552	503	1021	0	0	0	
5	0	0	0	0	547	502	1021	0	0	0	
6	0	0	0	0	543	503	1021	0	0	0	
7	0	0	0	0	539	504	1021	0	0	0	
8	0	0	0	0	538	505	1021	0	0	0	
9	0	0	0	0	537	506	1021	0	0	0	
10	0	0	0	0	539	508	1021	0	0	0	
11	0	0	0	0	542	510	1020	0	0	0	
12	0	0	0	0	546	512	1021	0	0	0	
13	0	0	0	0	551	514	1021	0	0	0	
14	0	0	0	0	557	516	1021	0	0	0	
15	0	0	0	0	562	519	1021	0	0	0	
0	0	0	0	0	567	520	1020	0	0	0	
1	0	0	0	0	571	521	1021	0	0	0	
2	0	0	0	0	573	521	1021	0	0	0	
3	0	0	0	0	574	521	1021	0	0	0	
4	0	0	0	0	572	519	1021	0	0	0	
5	0	0	0	0	569	515	1021	0	0	0	
6	0	0	0	0	563	511	1021	0	0	0	
7	0	0	0	0	558	507	1021	0	0	0	
8	0	0	0	0	551	502	1021	0	0	0	
9	0	0	0	0	545	499	1021	0	0	0	
10	0	0	0	0	540	496	1021	0	0	0	
11	0	0	0	0	534	494	1021	0	0	0	
12	0	0	0	0	530	492	1021	0	0	0	
13	0	0	0	0	527	491	1021	0	0	0	
14	0	0	0	0	526	491	1021	0	0	0	
15	0	0	0	0	526	492	1021	0	0	0	
0	0	0	0	0	528	492	1021	0	0	0	
1	0	0	0	0	531	494	1021	0	0	0	
2	0	0	0	0	534	496	1021	0	0	0	
3	0	0	0	0	539	497	1021	0	0	0	
4	0	0	0	0	542	499	1021	0	0	0	
5	0	0	0	0	545	500	1021	0	0	0	
6	0	0	0	0	547	501	1021	0	0	0	
7	0	0	0	0	548	501	1021	0	0	0	
8	0	0	0	0	548	501	1021	0	0	0	
9	0	0	0	0	546	500	1021	0	0	0	
10	0	0	0	0	543	499	1021	0	0	0	
11	0	0	0	0	540	499	1021	0	0	0	
12	0	0	0	0	537	498	1021	0	0	0	
13	0	0	0	0	535	497	1021	0	0	0	
14	0	0	0	0	533	497	1020	0	0	0	
15	0	0	0	0	534	497	1021	0	0	0	
0	0	0	0	0	536	499	1021	0	0	0	
1	0	0	0	0	540	500	1021	0	0	0	
2	0	0	0	0	545	502	1021	0	0	0	
3	0	0	0	0	550	505	1020	0	0	0	
4	0	0	0	0	555	507	1021	0	0	0	
5	0	0	0	0	559	510	1021	0	0	0	
6	0	0	0	0	561	513	1021	0	0	0	
7	0	0	0	0	562	515	1021	0	0	0	
8	0	0	0	0	561	516	1021	0	0	0	
9	0	0	0	0	559	517	1021	0	0	0	
10	0	0	0	0	554	517	1021	0	0	0	
11	0	0	0	0	549	516	1021	0	0	0	
12	0	0	0	0	544	514	1021	0	0	0	
13	0	0	0	0	540	511	1020	0	0	0	
14	0	0	0	0	538	508	1021	0	0	0	
15	0	0	0	0	539	504	1020	0	0	0	
0	0	0	0	0	541	500	1021	0	0	0	
1	0	0	0	0	546	496	1021	0	0	0	
2	0	0	0	0	553	493	1020	0	0	0	
3	0	0	0	0	562	490	1021	0	0	0	
4	0	0	0	0	570	488	1021	0	0	0	
5	0	0	0	0	575	487	1021	0	0	0	
6	0	0	0	0	577	487	1021	0	0	0	
7	0	0	0	0	575	487	1020	0	0	0	
8	0	0	0	0	570	488	1021	0	0	0	
9	0	0	0	0	562	490	1021	0	0	0	
10	0	0	0	0	551	493	1021	0	0	0	
11	0	0	0	0	541	496	1021	0	0	0	
12	0	0	0	0	530	499	1021	0	0	0	
13	0	0	0	0	521	503	1021	0	0	0	
14	0	0	0	0	514	507	1021	0	0	0	
15	0	0	0	0	510	511	1021	0	0	0	
0	0	0	0	0	508	515	1021	0	0	0	
1	0	0	0	0	509	517	1020	0	0	0	
2	0	0	0	0	512	519	1021	0	0	0	
3	0	0	0	0	516	521	1021	0	0	0	
4	0	0	0	0	523	522	1021	0	0	0	
5	0	0	0	0	530	522	1021	0	0	0	
6	0	0	0	0	538	521	1021	0	0	0	
7	0	0	0	0	545	520	1021	0	0	0	
8	0	0	0	0	552	519	1021	0	0	0	
9	0	0	0	0	559	519	1021	0	0	0	
10	0	0	0	0	563	517	1021	0	0	0	
11	0	0	0	0	566	515	1021	0	0	0	
12	0	0	0	0	567	513	1021	0	0	0	
13	0	0	0	0	565	510	1021	0	0	0	
14	0	0	0	0	562	508	1021	0	0	0	
15	0	0	0	0	557	505	1021	0	0	0	
0	0	0	0	0	551	503	1021	0	0	0	
1	0	0	0	0	545	500	1021	0	0	0	
2	0	0	0	0	540	498	1021	0	0	0	
3	0	0	0	0	535	497	1021	0	0	0	
4	0	0	0	0	531	496	1021	0	0	0	
5	0	0	0	0	527	495	1021	0	0	0	
6	0	0	0	0	525	494	1021	0	0	0	
7	0	0	0	0	524	494	1021	0	0	0	
8	0	0	0	0	525	495	1021	0	0	0	
9	0	0	0	0	527	496	1021	0	0	0	
10	0	0	0	0	532	497	1021	0	0	0	
11	0	0	0	0	538	499	1021	0	0	0	
12	0	0	0	0	547	502	1021	0	0	0	
13	0	0	0	0	557	505	1021	0	0	0	
14	0	0	0	0	569	509	1021	0	0	0	
15	0	0	0	0	580	513	1021	0	0	0	
0	0	0	0	0	590	517	1021	0	0	0	
1	0	0	0	0	596	520	1021	0	0	0	
2	0	0	0	0	598	522	1021	0	0	0	
3	0	0	0	0	596	523	1021	0	0	0	
4	0	0	0	0	591	521	1021	0	0	0	
5	0	0	0	0	581	519	1021	0	0	0	
6	0	0	0	0	568	516	1021	0	0	0	
7	0	0	0	0	553	512	1021	0	0	0	
8	0	0	0	0	536	508	1021	0	0	0	
9	0	0	0	0	520	503	1021	0	0	0	
10	0	0	0	0	505	499	1021	0	0	0	
11	0	0	0	0	494	496	1021	0	0	0	
12	0	0	0	0	486	492	1021	0	0	0	
13	0	0	0	0	483	492	1021	0	0	0	
14	0	0	0	0	486	492	1021	0	0	0	
15	0	0	0	0	492	492	1021	0	0	0	
0	0	0	0	0	503	495	1021	0	0	0	
1	0	0	0	0	516	498	1021	0	0	0	
2	0	0	0	0	530	501	1021	0	0	0	
3	0	0	0	0	543	505	1021	0	0	0	
4	0	0	0	0	555	509	1021	0	0	0	
5	0	0	0	0	563	512	1021	0	0	0	
6	0	0	0	0	567	515	1021	0	0	0	
7	0	0	0	0	569	518	1021	0	0	0	
8	0	0	0	0	568	519	1021	0	0	0	
9	0	0	0	0	567	520	1021	0	0	0	
10	0	0	0	0	565	520	1021	0	0	0	
11	0	0	0	0	563	520	1021	0	0	0	
12	0	0	0	0	561	520	1021	0	0	0	
13	0	0	0	0	560	519	1021	0	0	0	
14	0	0	0	0	560	518	1021	0	0	0	
15	0	0	0	0	559	517	1021	0	0	0	
0	0	0	0	0	560	516	1021	0	0	0	
1	0	0	0	0	560	516	1020	0	0	0	
2	0	0	0	0	560	515	1021	0	0	0	
3	0	0	0	0	560	516	1021	0	0	0	
4	0	0	0	0	560	517	1021	0	0	0	
5	0	0	0	0	562	519	1021	0	0	0	
6	0	0	0	0	565	522	1021	0	0	0	
7	0	0	0	0	568	526	1021	0	0	0	
8	0	0	0	0	572	529	1021	0	0	0	
9	0	0	0	0	577	535	1021	0	0	0	
10	0	0	0	0	583	540	1021	0	0	0	
11	0	0	0	0	589	545	1021	0	0	0	
12	0	0	0	0	595	550	1021	0	0	0	
13	0	0	0	0	600	554	1021	0	0	0	
14	0	0	0	0	604	557	1021	0	0	0	
15	0	0	0	0	607	558	1021	0	0	0	
0	0	0	0	0	606	557	1021	0	0	0	
1	0	0	0	0	602	554	1021	0	0	0	
2	0	0	0	0	595	549	1021	0	0	0	
3	0	0	0	0	586	543	1021	0	0	0	
4	0	0	0	0	575	535	1021	0	0	0	
5	0	0	0	0	563	527	1021	0	0	0	
6	0	0	0	0	551	519	1021	0	0	0	
7	0	0	0	0	540	512	1021	0	0	0	
8	0	0	0	0	530	506	1021	0	0	0	
9	0	0	0	0	523	502	1021	0	0	0	
10	0	0	0	0	518	499	1021	0	0	0	
11	0	0	0	0	515	498	1020	0	0	0	
12	0	0	0	0	515	499	1021	0	0	0	
13	0	0	0	0	518	502	1021	0	0	0	
14	0	0	0	0	523	505	1021	0	0	0	
15	0	0	0	0	530	508	1021	0	0	0	
0	0	0	0	0	539	512	1021	0	0	0	
1	0	0	0	0	549	516	1021	0	0	0	
2	0	0	0	0	560	518	1021	0	0	0	
3	0	0	0	0	570	519	1021	0	0	0	
4	0	0	0	0	579	519	1021	0	0	0	
5	0	0	0	0	587	518	1021	0	0	0	
6	0	0	0	0	593	516	1021	0	0	0	
7	0	0	0	0	596	513	1021	0	0	0	
8	0	0	0	0	594	508	1021	0	0	0	
9	0	0	0	0	587	504	1021	0	0	0	
10	0	0	0	0	575	499	1021	0	0	0	
11	0	0	0	0	558	494	1021	0	0	0	
12	0	0	0	0	540	490	1021	0	0	0	
13	0	0	0	0	521	487	1021	0	0	0	
14	0	0	0	0	504	484	1021	0	0	0	
15	0	0	0	0	491	482	1021	0	0	0	
0	0	0	0	0	482	481	1020	0	0	0	
1	0	0	0	0	479	481	1021	0	0	0	
2	0	0	0	0	480	482	1021	0	0	0	
3	0	0	0	0	484	483	1020	0	0	0	
4	0	0	0	0	493	485	1021	0	0	0	
5	0	0	0	0	504	487	1021	0	0	0	
6	0	0	0	0	515	489	1021	0	0	0	
7	0	0	0	0	527	491	1021	0	0	0	
8	0	0	0	0	539	493	1021	0	0	0	
9	0	0	0	0	547	494	1021	0	0	0	
10	0	0	0	0	554	495	1021	0	0	0	
11	0	0	0	0	558	496	1021	0	0	0	
12	0	0	0	0	560	497	1021	0	0	0	
13	0	0	0	0	559	497	1021	0	0	0	
14	0	0	0	0	556	498	1021	0	0	0	
15	0	0	0	0	552	499	1021	0	0	0	
0	0	0	0	0	549	502	1021	0	0	0	
1	0	0	0	0	545	504	1021	0	0	0	
2	0	0	0	0	544	507	1021	0	0	0	
3	0	0	0	0	543	510	1021	0	0	0	
4	0	0	0	0	545	514	1021	0	0	0	
5	0	0	0	0	548	519	1021	0	0	0	
6	0	0	0	0	553	524	1021	0	0	0	
7	0	0	0	0	560	528	1021	0	0	0	
8	0	0	0	0	568	532	1021	0	0	0	
9	0	0	0	0	574	535	1021	0	0	0	
10	0	0	0	0	580	536	1021	0	0	0	
11	0	0	0	0	584	536	1021	0	0	0	
12	0	0	0	0	585	534	1021	0	0	0	
13	0	0	0	0	584	530	1021	0	0	0	
14	0	0	0	0	581	525	1021	0	0	0	
15	0	0	0	0	575	520	1021	0	0	0	
0	0	0	0	0	569	515	1021	0	0	0	
1	0	0	0	0	562	510	1020	0	0	0	
2	0	0	0	0	556	506	1021	0	0	0	
3	0	0	0	0	550	504	1021	0	0	0	
4	0	0	0	0	547	503	1021	0	0	0	
5	0	0	0	0	544	504	1021	0	0	0	
6	0	0	0	0	544	505	1021	0	0	0	
7	0	0	0	0	545	508	1021	0	0	0	
8	0	0	0	0	547	512	1021	0	0	0	
9	0	0	0	0	550	515	1021	0	0	0	
10	0	0	0	0	554	518	1021	0	0	0	
11	0	0	0	0	558	521	1021	0	0	0	
12	0	0	0	0	561	522	1021	0	0	0	
13	0	0	0	0	563	523	1021	0	0	0	
14	0	0	0	0	565	523	1021	0	0	0	
15	0	0	0	0	565	522	1021	0	0	0	
0	0	0	0	0	564	520	1020	0	0	0	
1	0	0	0	0	563	518	1021	0	0	0	
2	0	0	0	0	560	515	1021	0	0	0	
3	0	0	0	0	558	513	1021	0	0	0	
4	0	0	0	0	557	511	1021	0	0	0	
5	0	0	0	0	556	509	1021	0	0	0	
6	0	0	0	0	555	508	1021	0	0	0	
7	0	0	0	0	554	509	1021	0	0	0	
8	0	0	0	0	555	511	1020	0	0	0	
9	0	0	0	0	556	514	1021	0	0	0	
10	0	0	0	0	558	518	1021	0	0	0	
11	0	0	0	0	559	521	1021	0	0	0	
12	0	0	0	0	560	525	1021	0	0	0	
13	0	0	0	0	562	527	1021	0	0	0	
14	0	0	0	0	562	528	1021	0	0	0	
15	0	0	0	0	561	528	1021	0	0	0	
0	0	0	0	0	559	526	1021	0	0	0	
1	0	0	0	0	555	523	1021	0	0	0	
2	0	0	0	0	550	517	1021	0	0	0	
3	0	0	0	0	543	510	1021	0	0	0	
4	0	0	0	0	535	502	1021	0	0	0	
5	0	0	0	0	527	492	1021	0	0	0	
6	0	0	0	0	519	482	1021	0	0	0	
7	0	0	0	0	512	471	1021	0	0	0	
8	0	0	0	0	504	459	1021	0	0	0	
9	0	0	0	0	497	446	1021	0	0	0	
10	0	0	0	0	488	432	1021	0	0	0	
11	0	0	0	0	479	418	1021	0	0	0	
12	0	0	0	0	467	403	1021	0	0	0	
13	0	0	0	0	453	388	1021	0	0	0	
14	0	0	0	0	437	372	1021	0	0	0	
15	0	0	0	0	418	358	1021	0	0	0	
0	0	0	0	0	398	343	1021	0	0	0	
1	0	0	0	0	377	330	1021	0	0	0	
2	0	0	0	0	357	318	1021	0	0	0	
3	0	0	0	0	337	305	1021	0	0	0	
4	0	0	0	0	319	295	1021	0	0	0	
5	0	0	0	0	303	285	1021	0	0	0	
6	0	0	0	0	291	276	1021	0	0	0	
7	0	0	0	0	282	269	1021	0	0	0	
8	0	0	0	0	278	264	1021	0	0	0	
9	0	0	0	0	278	261	1021	0	0	0	
10	0	0	0	0	281	260	1021	0	0	0	
11	0	0	0	0	290	263	1021	0	0	0	
12	0	0	0	0	302	268	1021	0	0	0	
13	0	0	0	0	318	276	1021	0	0	0	
14	0	0	0	0	338	288	1020	0	0	0	
15	0	0	0	0	360	302	1021	0	0	0	
0	0	0	0	0	384	319	1021	0	0	0	
1	0	0	0	0	409	339	1021	0	0	0	
2	0	0	0	0	435	359	1021	0	0	0	
3	0	0	0	0	460	382	1021	0	0	0	
4	0	0	0	0	484	405	1021	0	0	0	
5	0	0	0	0	507	429	1021	0	0	0	
6	0	0	0	0	527	452	1021	0	0	0	
7	0	0	0	0	544	475	1021	0	0	0	
8	0	0	0	0	557	495	1021	0	0	0	
9	0	0	0	0	566	512	1021	0	0	0	
10	0	0	0	0	572	526	1021	0	0	0	
11	0	0	0	0	574	536	1021	0	0	0	
12	0	0	0	0	572	542	1021	0	0	0	
13	0	0	0	0	568	544	1021	0	0	0	
14	0	0	0	0	563	542	1021	0	0	0	
15	0	0	0	0	555	537	1021	0	0	0	
0	0	0	0	0	548	531	1021	0	0	0	
1	0	0	0	0	542	524	1020	0	0	0	
2	0	0	0	0	536	515	1021	0	0	0	
3	0	0	0	0	533	509	1021	0	0	0	
4	0	0	0	0	532	504	1021	0	0	0	
5	0	0	0	0	533	500	1021	0	0	0	
6	0	0	0	0	536	499	1021	0	0	0	
7	0	0	0	0	541	500	1021	0	0	0	
8	0	0	0	0	548	503	1021	0	0	0	
9	0	0	0	0	556	508	1021	0	0	0	
10	0	0	0	0	565	515	1021	0	0	0	
11	0	0	0	0	575	522	1020	0	0	0	
12	0	0	0	0	585	529	1021	0	0	0	
13	0	0	0	0	596	538	1021	0	0	0	
14	0	0	0	0	606	545	1021	0	0	0	
15	0	0	0	0	612	551	1021	0	0	0	
0	0	0	0	0	616	554	1021	0	0	0	
1	0	0	0	0	617	556	1021	0	0	0	
2	0	0	0	0	613	556	1021	0	0	0	
3	0	0	0	0	607	553	1021	0	0	0	
4	0	0	0	0	598	548	1021	0	0	0	
5	0	0	0	0	587	541	1021	0	0	0	
6	0	0	0	0	574	534	1021	0	0	0	
7	0	0	0	0	561	526	1021	0	0	0	
8	0	0	0	0	550	518	1021	0	0	0	
9	0	0	0	0	541	512	1021	0	0	0	
10	0	0	0	0	535	506	1021	0	0	0	
11	0	0	0	0	531	502	1021	0	0	0	
12	0	0	0	0	532	500	1021	0	0	0	
13	0	0	0	0	536	500	1021	0	0	0	
14	0	0	0	0	542	502	1021	0	0	0	
15	0	0	0	0	550	504	1021	0	0	0	
0	0	0	0	0	558	507	1021	0	0	0	
1	0	0	0	0	565	510	1021	0	0	0	
2	0	0	0	0	570	512	1021	0	0	0	
3	0	0	0	0	573	515	1021	0	0	0	
4	0	0	0	0	574	516	1021	0	0	0	
5	0	0	0	0	574	518	1021	0	0	0	
6	0	0	0	0	572	519	1021	0	0	0	
7	0	0	0	0	571	520	1020	0	0	0	
8	0	0	0	0	569	522	1021	0	0	0	
9	0	0	0	0	568	523	1021	0	0	0	
10	0	0	0	0	567	524	1021	0	0	0	
11	0	0	0	0	568	526	1021	0	0	0	
12	0	0	0	0	571	528	1021	0	0	0	
13	0	0	0	0	574	530	1021	0	0	0	
14	0	0	0	0	578	532	1021	0	0	0	
15	0	0	0	0	582	534	1021	0	0	0	
0	0	0	0	0	584	536	1021	0	0	0	
1	0	0	0	0	585	538	1021	0	0	0	
2	0	0	0	0	584	539	1021	0	0	0	
3	0	0	0	0	582	540	1021	0	0	0	
4	0	0	0	0	577	539	1021	0	0	0	
5	0	0	0	0	570	538	1021	0	0	0	
6	0	0	0	0	562	536	1021	0	0	0	
7	0	0	0	0	553	533	1021	0	0	0	
8	0	0	0	0	544	530	1020	0	0	0	
9	0	0	0	0	536	526	1021	0	0	0	
10	0	0	0	0	530	523	1021	0	0	0	
11	0	0	0	0	527	521	1021	0	0	0	
12	0	0	0	0	527	520	1021	0	0	0	
13	0	0	0	0	531	521	1021	0	0	0	
14	0	0	0	0	538	522	1021	0	0	0	
15	0	0	0	0	548	524	1021	0	0	0	
0	0	0	0	0	559	527	1021	0	0	0	
1	0	0	0	0	572	531	1021	0	0	0	
2	0	0	0	0	584	534	1021	0	0	0	
3	0	0	0	0	597	538	1021	0	0	0	
4	0	0	0	0	608	542	1021	0	0	0	
5	0	0	0	0	618	546	1021	0	0	0	
6	0	0	0	0	624	549	1021	0	0	0	
7	0	0	0	0	627	551	1021	0	0	0	
8	0	0	0	0	626	552	1021	0	0	0	
9	0	0	0	0	621	551	1021	0	0	0	
10	0	0	0	0	612	549	1021	0	0	0	
11	0	0	0	0	602	546	1021	0	0	0	
12	0	0	0	0	590	542	1021	0	0	0	
13	0	0	0	0	578	537	1021	0	0	0	
14	0	0	0	0	567	532	1021	0	0	0	
15	0	0	0	0	556	527	1021	0	0	0	
0	0	0	0	0	547	523	1021	0	0	0	
1	0	0	0	0	543	519	1021	0	0	0	
2	0	0	0	0	541	517	1021	0	0	0	
3	0	0	0	0	542	516	1021	0	0	0	
4	0	0	0	0	547	517	1021	0	0	0	
5	0	0	0	0	553	519	1021	0	0	0	
6	0	0	0	0	560	521	1021	0	0	0	
7	0	0	0	0	568	524	1021	0	0	0	
8	0	0	0	0	575	527	1021	0	0	0	
9	0	0	0	0	581	531	1021	0	0	0	
10	0	0	0	0	586	535	1021	0	0	0	
11	0	0	0	0	589	537	1021	0	0	0	
12	0	0	0	0	590	539	1021	0	0	0	
13	0	0	0	0	590	538	1021	0	0	0	
14	0	0	0	0	588	537	1021	0	0	0	
15	0	0	0	0	585	535	1021	0	0	0	
0	0	0	0	0	582	532	1021	0	0	0	
1	0	0	0	0	577	529	1021	0	0	0	
2	0	0	0	0	572	525	1021	0	0	0	
3	0	0	0	0	567	520	1021	0	0	0	
4	0	0	0	0	561	515	1021	0	0	0	
5	0	0	0	0	556	511	1021	0	0	0	
6	0	0	0	0	550	506	1021	0	0	0	
7	0	0	0	0	544	502	1021	0	0	0	
8	0	0	0	0	541	499	1020	0	0	0	
9	0	0	0	0	539	497	1021	0	0	0	
10	0	0	0	0	538	496	1021	0	0	0	
11	0	0	0	0	539	495	1021	0	0	0	
12	0	0	0	0	542	496	1021	0	0	0	
13	0	0	0	0	545	498	1021	0	0	0	
14	0	0	0	0	549	501	1021	0	0	0	
15	0	0	0	0	553	505	1021	0	0	0	
0	0	0	0	0	558	509	1021	0	0	0	
1	0	0	0	0	562	513	1021	0	0	0	
2	0	0	0	0	567	517	1021	0	0	0	
3	0	0	0	0	572	520	1021	0	0	0	
4	0	0	0	0	576	522	1021	0	0	0	
5	0	0	0	0	579	524	1021	0	0	0	
6	0	0	0	0	579	524	1021	0	0	0	
7	0	0	0	0	579	523	1020	0	0	0	
8	0	0	0	0	575	522	1021	0	0	0	
9	0	0	0	0	570	521	1021	0	0	0	
10	0	0	0	0	563	519	1020	0	0	0	
11	0	0	0	0	556	518	1021	0	0	0	
12	0	0	0	0	549	518	1021	0	0	0	
13	0	0	0	0	543	518	1021	0	0	0	
14	0	0	0	0	538	518	1021	0	0	0	
15	0	0	0	0	534	519	1021	0	0	0	
0	0	0	0	0	532	520	1021	0	0	0	
1	0	0	0	0	532	521	1021	0	0	0	
2	0	0	0	0	533	521	1021	0	0	0	
3	0	0	0	0	535	521	1021	0	0	0	
4	0	0	0	0	537	519	1021	0	0	0	
5	0	0	0	0	540	517	1021	0	0	0	
6	0	0	0	0	545	515	1021	0	0	0	
7	0	0	0	0	552	512	1021	0	0	0	
8	0	0	0	0	560	510	1021	0	0	0	
9	0	0	0	0	569	508	1021	0	0	0	
10	0	0	0	0	576	507	1021	0	0	0	
11	0	0	0	0	582	507	1021	0	0	0	
12	0	0	0	0	585	507	1021	0	0	0	
13	0	0	0	0	586	508	1021	0	0	0	
14	0	0	0	0	584	510	1021	0	0	0	
15	0	0	0	0	581	512	1021	0	0	0	
0	0	0	0	0	577	515	1021	0	0	0	
1	0	0	0	0	572	518	1021	0	0	0	
2	0	0	0	0	568	522	1021	0	0	0	
3	0	0	0	0	566	527	1021	0	0	0	
4	0	0	0	0	567	532	1021	0	0	0	
5	0	0	0	0	571	537	1021	0	0	0	
6	0	0	0	0	576	542	1021	0	0	0	
7	0	0	0	0	583	547	1021	0	0	0	
8	0	0	0	0	590	551	1021	0	0	0	
9	0	0	0	0	596	553	1021	0	0	0	
10	0	0	0	0	600	555	1021	0	0	0	
11	0	0	0	0	601	555	1021	0	0	0	
12	0	0	0	0	600	553	1021	0	0	0	
13	0	0	0	0	595	550	1021	0	0	0	
14	0	0	0	0	587	544	1021	0	0	0	
15	0	0	0	0	577	538	1021	0	0	0	
0	0	0	0	0	565	530	1021	0	0	0	
1	0	0	0	0	553	521	1021	0	0	0	
2	0	0	0	0	541	513	1020	0	0	0	
3	0	0	0	0	531	505	1021	0	0	0	
4	0	0	0	0	522	499	1021	0	0	0	
5	0	0	0	0	517	494	1021	0	0	0	
6	0	0	0	0	514	490	1021	0	0	0	
7	0	0	0	0	513	488	1021	0	0	0	
8	0	0	0	0	516	488	1021	0	0	0	
9	0	0	0	0	519	490	1021	0	0	0	
10	0	0	0	0	524	494	1021	0	0	0	
11	0	0	0	0	530	498	1021	0	0	0	
12	0	0	0	0	536	503	1020	0	0	0	
13	0	0	0	0	542	509	1021	0	0	0	
14	0	0	0	0	548	513	1021	0	0	0	
15	0	0	0	0	554	519	1021	0	0	0	
0	0	0	0	0	560	523	1021	0	0	0	
1	0	0	0	0	565	525	1021	0	0	0	
2	0	0	0	0	570	528	1021	0	0	0	
3	0	0	0	0	573	529	1021	0	0	0	
4	0	0	0	0	575	529	1021	0	0	0	
5	0	0	0	0	577	528	1021	0	0	0	
6	0	0	0	0	576	526	1021	0	0	0	
7	0	0	0	0	575	524	1021	0	0	0	
8	0	0	0	0	573	521	1021	0	0	0	
9	0	0	0	0	570	519	1021	0	0	0	
10	0	0	0	0	567	515	1021	0	0	0	
11	0	0	0	0	562	513	1021	0	0	0	
12	0	0	0	0	558	511	1021	0	0	0	
13	0	0	0	0	553	509	1021	0	0	0	
14	0	0	0	0	550	508	1021	0	0	0	
15	0	0	0	0	547	507	1021	0	0	0	
0	0	0	0	0	544	506	1020	0	0	0	
1	0	0	0	0	544	507	1021	0	0	0	
2	0	0	0	0	544	507	1021	0	0	0	
3	0	0	0	0	547	508	1021	0	0	0	
4	0	0	0	0	549	508	1020	0	0	0	
5	0	0	0	0	552	509	1021	0	0	0	
6	0	0	0	0	556	511	1021	0	0	0	
7	0	0	0	0	560	512	1021	0	0	0	
8	0	0	0	0	563	514	1021	0	0	0	
9	0	0	0	0	566	516	1021	0	0	0	
10	0	0	0	0	568	518	1021	0	0	0	
11	0	0	0	0	571	519	1021	0	0	0	
12	0	0	0	0	573	521	1021	0	0	0	
13	0	0	0	0	575	523	1021	0	0	0	
14	0	0	0	0	577	525	1021	0	0	0	
15	0	0	0	0	578	526	1021	0	0	0	
0	0	0	0	0	578	527	1021	0	0	0	
1	0	0	0	0	577	527	1021	0	0	0	
2	0	0	0	0	575	527	1021	0	0	0	
3	0	0	0	0	572	527	1021	0	0	0	
4	0	0	0	0	569	526	1021	0	0	0	
5	0	0	0	0	564	525	1021	0	0	0	
6	0	0	0	0	560	523	1021	0	0	0	
7	0	0	0	0	556	521	1021	0	0	0	
8	0	0	0	0	551	519	1021	0	0	0	
9	0	0	0	0	547	518	1021	0	0	0	
10	0	0	0	0	545	516	1021	0	0	0	
11	0	0	0	0	544	516	1021	0	0	0	
12	0	0	0	0	545	516	1021	0	0	0	
13	0	0	0	0	549	517	1021	0	0	0	
14	0	0	0	0	554	519	1020	0	0	0	
15	0	0	0	0	561	523	1021	0	0	0	
0	0	0	0	0	571	527	1021	0	0	0	
1	0	0	0	0	580	532	1021	0	0	0	
2	0	0	0	0	590	538	1021	0	0	0	
3	0	0	0	0	599	543	1021	0	0	0	
4	0	0	0	0	607	548	1021	0	0	0	
5	0	0	0	0	613	553	1021	0	0	0	
6	0	0	0	0	616	556	1021	0	0	0	
7	0	0	0	0	617	557	1021	0	0	0	
8	0	0	0	0	614	556	1021	0	0	0	
9	0	0	0	0	607	551	1021	0	0	0	
10	0	0	0	0	597	545	1021	0	0	0	
11	0	0	0	0	584	536	1021	0	0	0	
12	0	0	0	0	569	525	1021	0	0	0	
13	0	0	0	0	552	513	1021	0	0	0	
14	0	0	0	0	536	501	1021	0	0	0	
15	0	0	0	0	519	489	1021	0	0	0	
0	0	0	0	0	506	480	1021	0	0	0	
1	0	0	0	0	495	472	1021	0	0	0	
2	0	0	0	0	487	466	1021	0	0	0	
3	0	0	0	0	486	464	1021	0	0	0	
4	0	0	0	0	489	465	1021	0	0	0	
5	0	0	0	0	498	469	1021	0	0	0	
6	0	0	0	0	511	475	1021	0	0	0	
7	0	0	0	0	528	483	1021	0	0	0	
8	0	0	0	0	548	493	1021	0	0	0	
9	0	0	0	0	570	503	1021	0	0	0	
10	0	0	0	0	591	513	1021	0	0	0	
11	0	0	0	0	611	523	1021	0	0	0	
12	0	0	0	0	628	531	1021	0	0	0	
13	0	0	0	0	642	537	1021	0	0	0	
14	0	0	0	0	650	542	1021	0	0	0	
15	0	0	0	0	652	544	1021	0	0	0	
0	0	0	0	0	646	543	1021	0	0	0	
1	0	0	0	0	636	540	1021	0	0	0	
2	0	0	0	0	620	535	1021	0	0	0	
3	0	0	0	0	602	528	1021	0	0	0	
4	0	0	0	0	582	521	1021	0	0	0	
5	0	0	0	0	562	515	1021	0	0	0	
6	0	0	0	0	543	508	1021	0	0	0	
7	0	0	0	0	526	504	1021	0	0	0	
8	0	0	0	0	513	503	1021	0	0	0	
9	0	0	0	0	505	502	1021	0	0	0	
10	0	0	0	0	501	503	1021	0	0	0	
11	0	0	0	0	501	504	1021	0	0	0	
12	0	0	0	0	504	508	1021	0	0	0	
13	0	0	0	0	508	511	1021	0	0	0	
14	0	0	0	0	515	513	1021	0	0	0	
15	0	0	0	0	523	516	1021	0	0	0	
0	0	0	0	0	530	518	1021	0	0	0	
1	0	0	0	0	538	519	1021	0	0	0	
2	0	0	0	0	545	519	1021	0	0	0	
3	0	0	0	0	551	519	1021	0	0	0	
4	0	0	0	0	556	519	1021	0	0	0	
5	0	0	0	0	559	517	1021	0	0	0	
6	0	0	0	0	561	516	1021	0	0	0	
7	0	0	0	0	563	515	1021	0	0	0	
8	0	0	0	0	563	514	1021	0	0	0	
9	0	0	0	0	562	512	1021	0	0	0	
10	0	0	0	0	561	512	1021	0	0	0	
11	0	0	0	0	561	513	1021	0	0	0	
12	0	0	0	0	560	515	1021	0	0	0	
13	0	0	0	0	561	517	1021	0	0	0	
14	0	0	0	0	563	521	1021	0	0	0	
15	0	0	0	0	565	526	1021	0	0	0	
0	0	0	0	0	568	531	1021	0	0	0	
1	0	0	0	0	572	537	1021	0	0	0	
2	0	0	0	0	575	543	1021	0	0	0	
3	0	0	0	0	578	547	1021	0	0	0	
4	0	0	0	0	580	550	1021	0	0	0	
5	0	0	0	0	581	552	1021	0	0	0	
6	0	0	0	0	580	551	1021	0	0	0	
7	0	0	0	0	578	549	1021	0	0	0	
8	0	0	0	0	574	543	1021	0	0	0	
9	0	0	0	0	568	536	1021	0	0	0	
10	0	0	0	0	561	528	1021	0	0	0	
11	0	0	0	0	555	519	1021	0	0	0	
12	0	0	0	0	548	511	1021	0	0	0	
13	0	0	0	0	543	503	1021	0	0	0	
14	0	0	0	0	539	497	1021	0	0	0	
15	0	0	0	0	539	492	1021	0	0	0	
0	0	0	0	0	541	489	1021	0	0	0	
1	0	0	0	0	545	488	1021	0	0	0	
2	0	0	0	0	553	488	1021	0	0	0	
3	0	0	0	0	561	488	1021	0	0	0	
4	0	0	0	0	569	489	1021	0	0	0	
5	0	0	0	0	579	491	1021	0	0	0	
6	0	0	0	0	587	494	1021	0	0	0	
7	0	0	0	0	593	496	1021	0	0	0	
8	0	0	0	0	596	498	1021	0	0	0	
9	0	0	0	0	596	500	1021	0	0	0	
10	0	0	0	0	592	502	1021	0	0	0	
11	0	0	0	0	586	503	1021	0	0	0	
12	0	0	0	0	578	504	1021	0	0	0	
13	0	0	0	0	568	505	1021	0	0	0	
14	0	0	0	0	558	507	1021	0	0	0	
15	0	0	0	0	549	508	1021	0	0	0	
0	0	0	0	0	540	510	1021	0	0	0	
1	0	0	0	0	533	511	1021	0	0	0	
2	0	0	0	0	527	513	1021	0	0	0	
3	0	0	0	0	524	516	1021	0	0	0	
4	0	0	0	0	524	520	1021	0	0	0	
5	0	0	0	0	527	524	1021	0	0	0	
6	0	0	0	0	534	528	1021	0	0	0	
7	0	0	0	0	541	532	1021	0	0	0	
8	0	0	0	0	548	535	1021	0	0	0	
9	0	0	0	0	555	537	1021	0	0	0	
10	0	0	0	0	558	536	1021	0	0	0	
11	0	0	0	0	560	535	1021	0	0	0	
12	0	0	0	0	560	532	1021	0	0	0	
13	0	0	0	0	560	528	1021	0	0	0	
14	0	0	0	0	559	525	1021	0	0	0	
15	0	0	0	0	558	521	1021	0	0	0	
0	0	0	0	0	558	518	1021	0	0	0	
1	0	0	0	0	558	515	1021	0	0	0	
2	0	0	0	0	558	512	1021	0	0	0	
3	0	0	0	0	558	510	1021	0	0	0	
4	0	0	0	0	556	507	1021	0	0	0	
5	0	0	0	0	555	504	1021	0	0	0	
6	0	0	0	0	552	502	1021	0	0	0	
7	0	0	0	0	549	500	1021	0	0	0	
8	0	0	0	0	547	499	1021	0	0	0	
9	0	0	0	0	545	499	1021	0	0	0	
10	0	0	0	0	544	499	1021	0	0	0	
11	0	0	0	0	544	500	1021	0	0	0	
12	0	0	0	0	545	502	1021	0	0	0	
13	0	0	0	0	548	505	1021	0	0	0	
14	0	0	0	0	551	509	1021	0	0	0	
15	0	0	0	0	556	512	1021	0	0	0	
0	0	0	0	0	561	516	1021	0	0	0	
1	0	0	0	0	567	521	1021	0	0	0	
2	0	0	0	0	571	524	1021	0	0	0	
3	0	0	0	0	574	527	1021	0	0	0	
4	0	0	0	0	574	528	1021	0	0	0	
5	0	0	0	0	573	529	1021	0	0	0	
6	0	0	0	0	570	527	1021	0	0	0	
7	0	0	0	0	567	526	1021	0	0	0	
8	0	0	0	0	562	523	1021	0	0	0	
9	0	0	0	0	558	519	1021	0	0	0	
10	0	0	0	0	555	515	1021	0	0	0	
11	0	0	0	0	551	510	1021	0	0	0	
12	0	0	0	0	551	506	1021	0	0	0	
13	0	0	0	0	551	502	1021	0	0	0	
14	0	0	0	0	553	499	1021	0	0	0	
15	0	0	0	0	556	496	1021	0	0	0	
0	0	0	0	0	559	496	1021	0	0	0	
1	0	0	0	0	562	496	1021	0	0	0	
2	0	0	0	0	563	497	1021	0	0	0	
3	0	0	0	0	562	499	1021	0	0	0	
4	0	0	0	0	559	501	1021	0	0	0	
5	0	0	0	0	555	504	1021	0	0	0	
6	0	0	0	0	551	507	1021	0	0	0	
7	0	0	0	0	547	509	1021	0	0	0	
8	0	0	0	0	544	512	1021	0	0	0	
9	0	0	0	0	542	513	1021	0	0	0	
10	0	0	0	0	543	515	1021	0	0	0	
11	0	0	0	0	546	516	1021	0	0	0	
12	0	0	0	0	551	516	1021	0	0	0	
13	0	0	0	0	556	516	1021	0	0	0	
14	0	0	0	0	562	516	1021	0	0	0	
15	0	0	0	0	566	515	1021	0	0	0	
0	0	0	0	0	568	513	1021	0	0	0	
1	0	0	0	0	567	511	1021	0	0	0	
2	0	0	0	0	566	509	1021	0	0	0	
3	0	0	0	0	562	507	1021	0	0	0	
4	0	0	0	0	558	506	1021	0	0	0	
5	0	0	0	0	554	507	1021	0	0	0	
6	0	0	0	0	551	508	1021	0	0	0	
7	0	0	0	0	550	510	1021	0	0	0	
8	0	0	0	0	548	513	1021	0	0	0	
9	0	0	0	0	549	516	1021	0	0	0	
10	0	0	0	0	551	520	1021	0	0	0	
11	0	0	0	0	554	523	1021	0	0	0	
12	0	0	0	0	558	526	1021	0	0	0	
13	0	0	0	0	560	527	1021	0	0	0	
14	0	0	0	0	562	527	1021	0	0	0	
15	0	0	0	0	563	526	1021	0	0	0	
0	0	0	0	0	563	525	1021	0	0	0	
1	0	0	0	0	563	524	1021	0	0	0	
2	0	0	0	0	563	522	1021	0	0	0	
3	0	0	0	0	563	520	1021	0	0	0	
4	0	0	0	0	563	519	1021	0	0	0	
5	0	0	0	0	563	519	1021	0	0	0	
6	0	0	0	0	563	519	1021	0	0	0	
7	0	0	0	0	563	519	1020	0	0	0	
8	0	0	0	0	563	519	1021	0	0	0	
9	0	0	0	0	562	519	1021	0	0	0	
10	0	0	0	0	560	519	1021	0	0	0	
11	0	0	0	0	559	519	1021	0	0	0	
12	0	0	0	0	556	519	1021	0	0	0	
13	0	0	0	0	554	518	1021	0	0	0	
14	0	0	0	0	552	517	1021	0	0	0	
15	0	0	0	0	551	516	1021	0	0	0	
0	0	0	0	0	551	515	1021	0	0	0	
1	0	0	0	0	551	515	1021	0	0	0	
2	0	0	0	0	553	515	1021	0	0	0	
3	0	0	0	0	557	515	1021	0	0	0	
4	0	0	0	0	562	516	1021	0	0	0	
5	0	0	0	0	568	517	1021	0	0	0	
6	0	0	0	0	573	518	1021	0	0	0	
7	0	0	0	0	577	519	1021	0	0	0	
8	0	0	0	0	580	519	1021	0	0	0	
9	0	0	0	0	581	519	1021	0	0	0	
10	0	0	0	0	579	518	1021	0	0	0	
11	0	0	0	0	575	518	1021	0	0	0	
12	0	0	0	0	570	518	1021	0	0	0	
13	0	0	0	0	564	518	1021	0	0	0	
14	0	0	0	0	558	517	1021	0	0	0	
15	0	0	0	0	553	517	1021	0	0	0	
0	0	0	0	0	549	518	1021	0	0	0	
1	0	0	0	0	547	518	1021	0	0	0	
2	0	0	0	0	548	519	1021	0	0	0	
3	0	0	0	0	551	522	1021	0	0	0	
4	0	0	0	0	557	525	1020	0	0	0	
5	0	0	0	0	563	528	1021	0	0	0	
6	0	0	0	0	570	532	1021	0	0	0	
7	0	0	0	0	576	535	1021	0	0	0	
8	0	0	0	0	582	537	1021	0	0	0	
9	0	0	0	0	586	538	1021	0	0	0	
10	0	0	0	0	589	538	1021	0	0	0	
11	0	0	0	0	590	536	1021	0	0	0	
12	0	0	0	0	589	533	1021	0	0	0	
13	0	0	0	0	587	529	1021	0	0	0	
14	0	0	0	0	583	525	1021	0	0	0	
15	0	0	0	0	576	520	1021	0	0	0	
0	0	0	0	0	569	516	1021	0	0	0	
1	0	0	0	0	562	512	1021	0	0	0	
2	0	0	0	0	555	509	1021	0	0	0	
3	0	0	0	0	549	507	1021	0	0	0	
4	0	0	0	0	545	506	1021	0	0	0	
5	0	0	0	0	542	507	1021	0	0	0	
6	0	0	0	0	541	508	1021	0	0	0	
7	0	0	0	0	542	510	1021	0	0	0	
8	0	0	0	0	543	512	1021	0	0	0	
9	0	0	0	0	545	515	1021	0	0	0	
10	0	0	0	0	546	516	1021	0	0	0	
11	0	0	0	0	547	518	1021	0	0	0	
12	0	0	0	0	547	517	1021	0	0	0	
13	0	0	0	0	547	516	1021	0	0	0	
14	0	0	0	0	547	515	1020	0	0	0	
15	0	0	0	0	549	514	1021	0	0	0	
0	0	0	0	0	553	513	1021	0	0	0	
1	0	0	0	0	560	514	1021	0	0	0	
2	0	0	0	0	568	515	1021	0	0	0	
3	0	0	0	0	577	517	1021	0	0	0	
4	0	0	0	0	586	519	1021	0	0	0	
5	0	0	0	0	594	522	1021	0	0	0	
6	0	0	0	0	599	523	1021	0	0	0	
7	0	0	0	0	600	524	1021	0	0	0	
8	0	0	0	0	598	524	1021	0	0	0	
9	0	0	0	0	592	522	1021	0	0	0	
10	0	0	0	0	583	519	1021	0	0	0	
11	0	0	0	0	571	515	1021	0	0	0	
12	0	0	0	0	558	510	1021	0	0	0	
13	0	0	0	0	545	505	1021	0	0	0	
14	0	0	0	0	534	500	1020	0	0	0	
15	0	0	0	0	526	495	1021	0	0	0	
0	0	0	0	0	522	492	1021	0	0	0	
1	0	0	0	0	520	490	1021	0	0	0	
2	0	0	0	0	521	489	1021	0	0	0	
3	0	0	0	0	523	491	1021	0	0	0	
4	0	0	0	0	527	493	1021	0	0	0	
5	0	0	0	0	530	497	1021	0	0	0	
6	0	0	0	0	534	501	1021	0	0	0	
7	0	0	0	0	536	505	1021	0	0	0	
8	0	0	0	0	540	509	1021	0	0	0	
9	0	0	0	0	542	513	1021	0	0	0	
10	0	0	0	0	544	516	1021	0	0	0	
11	0	0	0	0	546	518	1021	0	0	0	
12	0	0	0	0	547	519	1021	0	0	0	
13	0	0	0	0	549	520	1021	0	0	0	
14	0	0	0	0	551	521	1021	0	0	0	
15	0	0	0	0	551	520	1021	0	0	0	
0	0	0	0	0	552	519	1021	0	0	0	
1	0	0	0	0	552	518	1021	0	0	0	
2	0	0	0	0	552	516	1021	0	0	0	
3	0	0	0	0	553	514	1021	0	0	0	
4	0	0	0	0	553	512	1021	0	0	0	
5	0	0	0	0	553	511	1021	0	0	0	
6	0	0	0	0	554	509	1021	0	0	0	
7	0	0	0	0	556	508	1021	0	0	0	
8	0	0	0	0	560	508	1021	0	0	0	
9	0	0	0	0	564	509	1021	0	0	0	
10	0	0	0	0	570	511	1021	0	0	0	
11	0	0	0	0	577	513	1021	0	0	0	
12	0	0	0	0	584	516	1021	0	0	0	
13	0	0	0	0	591	519	1021	0	0	0	
14	0	0	0	0	596	521	1021	0	0	0	
15	0	0	0	0	599	523	1021	0	0	0	
0	0	0	0	0	599	524	1021	0	0	0	
1	0	0	0	0	595	523	1021	0	0	0	
2	0	0	0	0	590	522	1021	0	0	0	
3	0	0	0	0	582	520	1021	0	0	0	
4	0	0	0	0	573	518	1020	0	0	0	
5	0	0	0	0	564	515	1021	0	0	0	
6	0	0	0	0	557	513	1021	0	0	0	
7	0	0	0	0	551	511	1021	0	0	0	
8	0	0	0	0	545	510	1021	0	0	0	
9	0	0	0	0	542	509	1021	0	0	0	
10	0	0	0	0	540	509	1021	0	0	0	
11	0	0	0	0	540	510	1021	0	0	0	
12	0	0	0	0	542	512	1021	0	0	0	
13	0	0	0	0	545	514	1021	0	0	0	
14	0	0	0	0	550	517	1021	0	0	0	
15	0	0	0	0	555	521	1021	0	0	0	
0	0	0	0	0	561	524	1021	0	0	0	
1	0	0	0	0	567	528	1021	0	0	0	
2	0	0	0	0	573	532	1021	0	0	0	
3	0	0	0	0	579	536	1020	0	0	0	
4	0	0	0	0	584	537	1021	0	0	0	
5	0	0	0	0	587	540	1021	0	0	0	
6	0	0	0	0	588	540	1021	0	0	0	
7	0	0	0	0	587	539	1021	0	0	0	
8	0	0	0	0	582	535	1021	0	0	0	
9	0	0	0	0	573	530	1021	0	0	0	
10	0	0	0	0	563	523	1021	0	0	0	
11	0	0	0	0	550	514	1021	0	0	0	
12	0	0	0	0	536	504	1021	0	0	0	
13	0	0	0	0	522	494	1021	0	0	0	
14	0	0	0	0	509	484	1021	0	0	0	
15	0	0	0	0	498	475	1021	0	0	0	
0	0	0	0	0	489	467	1021	0	0	0	
1	0	0	0	0	483	460	1021	0	0	0	
2	0	0	0	0	479	454	1021	0	0	0	
3	0	0	0	0	477	449	1021	0	0	0	
4	0	0	0	0	476	444	1021	0	0	0	
5	0	0	0	0	477	440	1021	0	0	0	
6	0	0	0	0	477	435	1021	0	0	0	
7	0	0	0	0	476	430	1021	0	0	0	
8	0	0	0	0	473	422	1020	0	0	0	
9	0	0	0	0	468	413	1021	0	0	0	
10	0	0	0	0	459	401	1021	0	0	0	
11	0	0	0	0	447	387	1021	0	0	0	
12	0	0	0	0	432	371	1021	0	0	0	
13	0	0	0	0	414	352	1021	0	0	0	
14	0	0	0	0	393	333	1021	0	0	0	
15	0	0	0	0	372	313	1021	0	0	0	
0	0	0	0	0	351	295	1021	0	0	0	
1	0	0	0	0	332	276	1021	0	0	0	
2	0	0	0	0	316	259	1021	0	0	0	
3	0	0	0	0	304	246	1021	0	0	0	
4	0	0	0	0	296	236	1021	0	0	0	
5	0	0	0	0	294	232	1021	0	0	0	
6	0	0	0	0	296	233	1021	0	0	0	
7	0	0	0	0	303	239	1021	0	0	0	
8	0	0	0	0	313	251	1021	0	0	0	
9	0	0	0	0	329	268	1021	0	0	0	
10	0	0	0	0	348	290	1021	0	0	0	
11	0	0	0	0	372	316	1021	0	0	0	
12	0	0	0	0	398	343	1021	0	0	0	
13	0	0	0	0	425	372	1021	0	0	0	
14	0	0	0	0	453	401	1021	0	0	0	
15	0	0	0	0	480	429	1021	0	0	0	
0	0	0	0	0	504	454	1021	0	0	0	
1	0	0	0	0	525	475	1021	0	0	0	
2	0	0	0	0	543	493	1021	0	0	0	
3	0	0	0	0	558	507	1021	0	0	0	
4	0	0	0	0	570	517	1021	0	0	0	
5	0	0	0	0	579	524	1021	0	0	0	
6	0	0	0	0	585	527	1021	0	0	0	
7	0	0	0	0	590	528	1021	0	0	0	
8	0	0	0	0	591	527	1021	0	0	0	
9	0	0	0	0	591	526	1021	0	0	0	
10	0	0	0	0	587	523	1020	0	0	0	
11	0	0	0	0	582	520	1021	0	0	0	
12	0	0	0	0	576	518	1021	0	0	0	
13	0	0	0	0	572	515	1021	0	0	0	
14	0	0	0	0	568	513	1021	0	0	0	
15	0	0	0	0	566	513	1021	0	0	0	
0	0	0	0	0	567	514	1021	0	0	0	
1	0	0	0	0	571	516	1021	0	0	0	
2	0	0	0	0	576	519	1021	0	0	0	
3	0	0	0	0	582	524	1021	0	0	0	
4	0	0	0	0	587	528	1021	0	0	0	
5	0	0	0	0	590	531	1021	0	0	0	
6	0	0	0	0	591	534	1021	0	0	0	
7	0	0	0	0	590	535	1021	0	0	0	
8	0	0	0	0	586	534	1021	0	0	0	
9	0	0	0	0	580	532	1021	0	0	0	
10	0	0	0	0	572	528	1021	0	0	0	
11	0	0	0	0	563	524	1021	0	0	0	
12	0	0	0	0	553	521	1021	0	0	0	
13	0	0	0	0	545	518	1021	0	0	0	
14	0	0	0	0	539	515	1021	0	0	0	
15	0	0	0	0	535	515	1021	0	0	0	
0	0	0	0	0	534	516	1021	0	0	0	
1	0	0	0	0	536	519	1021	0	0	0	
2	0	0	0	0	540	522	1021	0	0	0	
3	0	0	0	0	545	526	1021	0	0	0	
4	0	0	0	0	552	531	1021	0	0	0	
5	0	0	0	0	559	535	1021	0	0	0	
6	0	0	0	0	566	538	1021	0	0	0	
7	0	0	0	0	572	540	1021	0	0	0	
8	0	0	0	0	577	541	1021	0	0	0	
9	0	0	0	0	581	540	1021	0	0	0	
10	0	0	0	0	583	539	1021	0	0	0	
11	0	0	0	0	583	536	1021	0	0	0	
12	0	0	0	0	582	532	1021	0	0	0	
13	0	0	0	0	580	528	1021	0	0	0	
14	0	0	0	0	577	524	1020	0	0	0	
15	0	0	0	0	574	520	1021	0	0	0	
0	0	0	0	0	571	516	1021	0	0	0	
1	0	0	0	0	569	514	1021	0	0	0	
2	0	0	0	0	568	512	1021	0	0	0	
3	0	0	0	0	566	512	1021	0	0	0	
4	0	0	0	0	566	512	1021	0	0	0	
5	0	0	0	0	567	515	1021	0	0	0	
6	0	0	0	0	568	518	1021	0	0	0	
7	0	0	0	0	571	523	1021	0	0	0	
8	0	0	0	0	575	528	1021	0	0	0	
9	0	0	0	0	579	535	1021	0	0	0	
10	0	0	0	0	584	542	1021	0	0	0	
11	0	0	0	0	588	547	1021	0	0	0	
12	0	0	0	0	592	552	1021	0	0	0	
13	0	0	0	0	595	555	1021	0	0	0	
14	0	0	0	0	596	556	1021	0	0	0	
15	0	0	0	0	596	555	1021	0	0	0	
0	0	0	0	0	595	552	1021	0	0	0	
1	0	0	0	0	591	547	1021	0	0	0	
2	0	0	0	0	587	542	1021	0	0	0	
3	0	0	0	0	583	536	1021	0	0	0	
4	0	0	0	0	579	529	1021	0	0	0	
5	0	0	0	0	577	524	1021	0	0	0	
6	0	0	0	0	576	519	1021	0	0	0	
7	0	0	0	0	576	516	1021	0	0	0	
8	0	0	0	0	577	515	1021	0	0	0	
9	0	0	0	0	579	516	1021	0	0	0	
10	0	0	0	0	581	518	1021	0	0	0	
11	0	0	0	0	582	520	1021	0	0	0	
12	0	0	0	0	583	524	1021	0	0	0	
13	0	0	0	0	584	527	1021	0	0	0	
14	0	0	0	0	584	529	1021	0	0	0	
15	0	0	0	0	583	530	1021	0	0	0	
0	0	0	0	0	580	530	1021	0	0	0	
1	0	0	0	0	576	529	1021	0	0	0	
2	0	0	0	0	573	527	1021	0	0	0	
3	0	0	0	0	569	523	1021	0	0	0	
4	0	0	0	0	566	520	1021	0	0	0	
5	0	0	0	0	563	517	1020	0	0	0	
6	0	0	0	0	562	514	1021	0	0	0	
7	0	0	0	0	561	511	1021	0	0	0	
8	0	0	0	0	561	509	1021	0	0	0	
9	0	0	0	0	561	507	1021	0	0	0	
10	0	0	0	0	562	506	1021	0	0	0	
11	0	0	0	0	563	506	1021	0	0	0	
12	0	0	0	0	565	508	1021	0	0	0	
13	0	0	0	0	566	510	1021	0	0	0	
14	0	0	0	0	568	513	1021	0	0	0	
15	0	0	0	0	569	516	1021	0	0	0	
0	0	0	0	0	571	520	1021	0	0	0	
1	0	0	0	0	573	524	1021	0	0	0	
2	0	0	0	0	576	527	1021	0	0	0	
3	0	0	0	0	578	529	1021	0	0	0	
4	0	0	0	0	579	530	1021	0	0	0	
5	0	0	0	0	580	531	1021	0	0	0	
6	0	0	0	0	580	530	1021	0	0	0	
7	0	0	0	0	579	530	1021	0	0	0	
8	0	0	0	0	577	529	1021	0	0	0	
9	0	0	0	0	574	528	1021	0	0	0	
10	0	0	0	0	571	527	1021	0	0	0	
11	0	0	0	0	568	526	1021	0	0	0	
12	0	0	0	0	564	526	1021	0	0	0	
13	0	0	0	0	561	525	1021	0	0	0	
14	0	0	0	0	558	525	1021	0	0	0	
15	0	0	0	0	554	524	1021	0	0	0	
0	0	0	0	0	551	523	1021	0	0	0	
1	0	0	0	0	547	521	1021	0	0	0	
2	0	0	0	0	542	519	1021	0	0	0	
3	0	0	0	0	539	516	1021	0	0	0	
4	0	0	0	0	536	512	1021	0	0	0	
5	0	0	0	0	534	508	1021	0	0	0	
6	0	0	0	0	534	505	1021	0	0	0	
7	0	0	0	0	535	502	1021	0	0	0	
8	0	0	0	0	537	500	1021	0	0	0	
9	0	0	0	0	541	499	1021	0	0	0	
10	0	0	0	0	546	498	1021	0	0	0	
11	0	0	0	0	552	499	1021	0	0	0	
12	0	0	0	0	559	501	1021	0	0	0	
13	0	0	0	0	567	503	1021	0	0	0	
14	0	0	0	0	576	507	1021	0	0	0	
15	0	0	0	0	585	511	1021	0	0	0	
0	0	0	0	0	594	515	1021	0	0	0	
1	0	0	0	0	601	519	1021	0	0	0	
2	0	0	0	0	606	523	1021	0	0	0	
3	0	0	0	0	607	526	1021	0	0	0	
4	0	0	0	0	603	529	1021	0	0	0	
5	0	0	0	0	596	530	1021	0	0	0	
6	0	0	0	0	587	531	1021	0	0	0	
7	0	0	0	0	575	531	1021	0	0	0	
8	0	0	0	0	561	529	1021	0	0	0	
9	0	0	0	0	549	527	1021	0	0	0	
10	0	0	0	0	539	524	1021	0	0	0	
11	0	0	0	0	531	519	1021	0	0	0	
12	0	0	0	0	525	514	1021	0	0	0	
13	0	0	0	0	521	508	1021	0	0	0	
14	0	0	0	0	519	503	1021	0	0	0	
15	0	0	0	0	520	497	1021	0	0	0	
0	0	0	0	0	521	493	1021	0	0	0	
1	0	0	0	0	524	490	1021	0	0	0	
2	0	0	0	0	525	487	1021	0	0	0	
3	0	0	0	0	527	486	1021	0	0	0	
4	0	0	0	0	530	486	1021	0	0	0	
5	0	0	0	0	533	487	1021	0	0	0	
6	0	0	0	0	537	488	1021	0	0	0	
7	0	0	0	0	542	491	1021	0	0	0	
8	0	0	0	0	547	494	1021	0	0	0	
9	0	0	0	0	555	498	1021	0	0	0	
10	0	0	0	0	561	503	1021	0	0	0	
11	0	0	0	0	568	508	1021	0	0	0	
12	0	0	0	0	573	511	1021	0	0	0	
13	0	0	0	0	575	515	1021	0	0	0	
14	0	0	0	0	577	518	1021	0	0	0	
15	0	0	0	0	576	520	1021	0	0	0	
0	0	0	0	0	574	521	1021	0	0	0	
1	0	0	0	0	570	521	1021	0	0	0	
2	0	0	0	0	566	519	1021	0	0	0	
3	0	0	0	0	560	517	1021	0	0	0	
4	0	0	0	0	554	515	1021	0	0	0	
5	0	0	0	0	548	512	1021	0	0	0	
6	0	0	0	0	543	509	1021	0	0	0	
7	0	0	0	0	539	507	1021	0	0	0	
8	0	0	0	0	537	505	1021	0	0	0	
9	0	0	0	0	536	505	1021	0	0	0	
10	0	0	0	0	537	505	1021	0	0	0	
11	0	0	0	0	540	506	1021	0	0	0	
12	0	0	0	0	545	508	1021	0	0	0	
13	0	0	0	0	551	510	1021	0	0	0	
14	0	0	0	0	559	513	1021	0	0	0	
15	0	0	0	0	568	516	1021	0	0	0	
0	0	0	0	0	577	520	1021	0	0	0	
1	0	0	0	0	584	524	1021	0	0	0	
2	0	0	0	0	590	527	1021	0	0	0	
3	0	0	0	0	592	529	1021	0	0	0	
4	0	0	0	0	592	530	1021	0	0	0	
5	0	0	0	0	590	529	1021	0	0	0	
6	0	0	0	0	585	528	1021	0	0	0	
7	0	0	0	0	580	526	1021	0	0	0	
8	0	0	0	0	574	523	1021	0	0	0	
9	0	0	0	0	568	519	1020	0	0	0	
10	0	0	0	0	563	515	1021	0	0	0	
11	0	0	0	0	558	512	1021	0	0	0	
12	0	0	0	0	557	511	1021	0	0	0	
13	0	0	0	0	556	510	1021	0	0	0	
14	0	0	0	0	558	510	1021	0	0	0	
15	0	0	0	0	561	512	1021	0	0	0	
0	0	0	0	0	565	514	1021	0	0	0	
1	0	0	0	0	569	518	1021	0	0	0	
2	0	0	0	0	574	521	1021	0	0	0	
3	0	0	0	0	577	524	1021	0	0	0	
4	0	0	0	0	580	527	1021	0	0	0	
5	0	0	0	0	580	528	1021	0	0	0	
6	0	0	0	0	579	528	1021	0	0	0	
7	0	0	0	0	577	527	1021	0	0	0	
8	0	0	0	0	572	524	1020	0	0	0	
9	0	0	0	0	568	520	1021	0	0	0	
10	0	0	0	0	561	516	1021	0	0	0	
11	0	0	0	0	554	511	1021	0	0	0	
12	0	0	0	0	547	505	1021	0	0	0	
13	0	0	0	0	541	501	1021	0	0	0	
14	0	0	0	0	536	497	1021	0	0	0	
15	0	0	0	0	532	494	1021	0	0	0	
0	0	0	0	0	531	493	1021	0	0	0	
1	0	0	0	0	531	494	1021	0	0	0	
2	0	0	0	0	534	495	1021	0	0	0	
3	0	0	0	0	538	498	1021	0	0	0	
4	0	0	0	0	544	502	1021	0	0	0	
5	0	0	0	0	552	507	1021	0	0	0	
6	0	0	0	0	561	512	1021	0	0	0	
7	0	0	0	0	572	516	1021	0	0	0	
8	0	0	0	0	582	521	1021	0	0	0	
9	0	0	0	0	590	526	1021	0	0	0	
10	0	0	0	0	596	528	1021	0	0	0	
11	0	0	0	0	600	530	1021	0	0	0	
12	0	0	0	0	600	531	1021	0	0	0	
13	0	0	0	0	597	530	1021	0	0	0	
14	0	0	0	0	590	527	1020	0	0	0	
15	0	0	0	0	581	524	1021	0	0	0	
0	0	0	0	0	570	520	1021	0	0	0	
1	0	0	0	0	558	516	1021	0	0	0	
2	0	0	0	0	547	511	1021	0	0	0	
3	0	0	0	0	538	507	1021	0	0	0	
4	0	0	0	0	531	503	1021	0	0	0	
5	0	0	0	0	528	501	1021	0	0	0	
6	0	0	0	0	528	499	1021	0	0	0	
7	0	0	0	0	531	499	1021	0	0	0	
8	0	0	0	0	536	500	1021	0	0	0	
9	0	0	0	0	543	502	1021	0	0	0	
10	0	0	0	0	551	504	1021	0	0	0	
11	0	0	0	0	558	506	1021	0	0	0	
12	0	0	0	0	564	507	1021	0	0	0	
13	0	0	0	0	568	508	1021	0	0	0	
14	0	0	0	0	571	508	1021	0	0	0	
15	0	0	0	0	570	508	1021	0	0	0	
0	0	0	0	0	568	507	1021	0	0	0	
1	0	0	0	0	563	505	1021	0	0	0	
2	0	0	0	0	559	504	1021	0	0	0	
3	0	0	0	0	555	502	1021	0	0	0	
4	0	0	0	0	551	500	1021	0	0	0	
5	0	0	0	0	547	498	1021	0	0	0	
6	0	0	0	0	544	496	1021	0	0	0	
7	0	0	0	0	542	495	1021	0	0	0	
8	0	0	0	0	541	494	1021	0	0	0	
9	0	0	0	0	541	493	1021	0	0	0	
10	0	0	0	0	542	494	1021	0	0	0	
11	0	0	0	0	545	495	1021	0	0	0	
12	0	0	0	0	548	497	1021	0	0	0	
13	0	0	0	0	553	501	1021	0	0	0	
14	0	0	0	0	558	504	1021	0	0	0	
15	0	0	0	0	563	508	1021	0	0	0	
0	0	0	0	0	567	511	1021	0	0	0	
1	0	0	0	0	569	514	1021	0	0	0	
2	0	0	0	0	570	516	1021	0	0	0	
3	0	0	0	0	569	517	1021	0	0	0	
4	0	0	0	0	566	517	1021	0	0	0	
5	0	0	0	0	562	516	1021	0	0	0	
6	0	0	0	0	558	514	1021	0	0	0	
7	0	0	0	0	555	512	1021	0	0	0	
8	0	0	0	0	551	509	1021	0	0	0	
9	0	0	0	0	549	506	1021	0	0	0	
10	0	0	0	0	546	503	1021	0	0	0	
11	0	0	0	0	543	500	1021	0	0	0	
12	0	0	0	0	542	497	1021	0	0	0	
13	0	0	0	0	540	496	1021	0	0	0	
14	0	0	0	0	538	494	1021	0	0	0	
15	0	0	0	0	537	494	1021	0	0	0	
0	0	0	0	0	536	494	1021	0	0	0	
1	0	0	0	0	537	495	1021	0	0	0	
2	0	0	0	0	538	496	1021	0	0	0	
3	0	0	0	0	540	497	1021	0	0	0	
4	0	0	0	0	542	499	1021	0	0	0	
5	0	0	0	0	544	501	1021	0	0	0	
6	0	0	0	0	547	503	1021	0	0	0	
7	0	0	0	0	549	504	1021	0	0	0	
8	0	0	0	0	551	505	1021	0	0	0	
9	0	0	0	0	551	506	1021	0	0	0	
10	0	0	0	0	552	507	1021	0	0	0	
11	0	0	0	0	552	506	1021	0	0	0	
12	0	0	0	0	551	505	1021	0	0	0	
13	0	0	0	0	549	505	1021	0	0	0	
14	0	0	0	0	547	503	1021	0	0	0	
15	0	0	0	0	545	502	1021	0	0	0	
0	0	0	0	0	543	501	1021	0	0	0	
1	0	0	0	0	543	500	1021	0	0	0	
2	0	0	0	0	543	499	1021	0	0	0	
3	0	0	0	0	544	499	1021	0	0	0	
4	0	0	0	0	549	499	1021	0	0	0	
5	0	0	0	0	555	500	1021	0	0	0	
6	0	0	0	0	563	503	1021	0	0	0	
7	0	0	0	0	573	506	1021	0	0	0	
8	0	0	0	0	583	510	1021	0	0	0	
9	0	0	0	0	591	515	1021	0	0	0	
10	0	0	0	0	599	519	1021	0	0	0	
11	0	0	0	0	603	523	1021	0	0	0	
12	0	0	0	0	604	526	1021	0	0	0	
13	0	0	0	0	602	528	1021	0	0	0	
14	0	0	0	0	598	529	1021	0	0	0	
15	0	0	0	0	591	530	1021	0	0	0	
0	0	0	0	0	583	529	1021	0	0	0	
1	0	0	0	0	572	527	1020	0	0	0	
2	0	0	0	0	562	525	1021	0	0	0	
3	0	0	0	0	550	521	1021	0	0	0	
4	0	0	0	0	540	517	1021	0	0	0	
5	0	0	0	0	531	511	1021	0	0	0	
6	0	0	0	0	523	505	1021	0	0	0	
7	0	0	0	0	518	499	1021	0	0	0	
8	0	0	0	0	516	493	1021	0	0	0	
9	0	0	0	0	517	488	1021	0	0	0	
10	0	0	0	0	519	484	1021	0	0	0	
11	0	0	0	0	524	481	1021	0	0	0	
12	0	0	0	0	529	480	1021	0	0	0	
13	0	0	0	0	534	480	1021	0	0	0	
14	0	0	0	0	539	483	1021	0	0	0	
15	0	0	0	0	544	487	1021	0	0	0	
0	0	0	0	0	550	491	1021	0	0	0	
1	0	0	0	0	554	496	1021	0	0	0	
2	0	0	0	0	559	500	1021	0	0	0	
3	0	0	0	0	564	504	1021	0	0	0	
4	0	0	0	0	567	505	1021	0	0	0	
5	0	0	0	0	569	505	1021	0	0	0	
6	0	0	0	0	569	504	1021	0	0	0	
7	0	0	0	0	568	502	1021	0	0	0	
8	0	0	0	0	565	499	1020	0	0	0	
9	0	0	0	0	559	495	1021	0	0	0	
10	0	0	0	0	551	491	1021	0	0	0	
11	0	0	0	0	542	487	1020	0	0	0	
12	0	0	0	0	532	483	1021	0	0	0	
13	0	0	0	0	523	481	1021	0	0	0	
14	0	0	0	0	514	480	1021	0	0	0	
15	0	0	0	0	507	479	1021	0	0	0	
0	0	0	0	0	503	480	1021	0	0	0	
1	0	0	0	0	500	481	1021	0	0	0	
2	0	0	0	0	501	483	1021	0	0	0	
3	0	0	0	0	505	486	1021	0	0	0	
4	0	0	0	0	511	488	1021	0	0	0	
5	0	0	0	0	518	490	1021	0	0	0	
6	0	0	0	0	526	492	1020	0	0	0	
7	0	0	0	0	534	493	1021	0	0	0	
8	0	0	0	0	540	493	1021	0	0	0	
9	0	0	0	0	545	492	1021	0	0	0	
10	0	0	0	0	548	491	1021	0	0	0	
11	0	0	0	0	548	490	1021	0	0	0	
12	0	0	0	0	548	489	1021	0	0	0	
13	0	0	0	0	546	488	1021	0	0	0	
14	0	0	0	0	543	487	1021	0	0	0	
15	0	0	0	0	539	487	1021	0	0	0	
0	0	0	0	0	535	487	1021	0	0	0	
1	0	0	0	0	532	488	1021	0	0	0	
2	0	0	0	0	530	490	1021	0	0	0	
3	0	0	0	0	529	492	1021	0	0	0	
4	0	0	0	0	531	495	1021	0	0	0	
5	0	0	0	0	534	498	1021	0	0	0	
6	0	0	0	0	539	501	1021	0	0	0	
7	0	0	0	0	546	504	1021	0	0	0	
8	0	0	0	0	553	507	1021	0	0	0	
9	0	0	0	0	561	508	1021	0	0	0	
10	0	0	0	0	567	508	1021	0	0	0	
11	0	0	0	0	571	508	1021	0	0	0	
12	0	0	0	0	572	506	1021	0	0	0	
13	0	0	0	0	570	503	1021	0	0	0	
14	0	0	0	0	565	499	1021	0	0	0	
15	0	0	0	0	558	494	1021	0	0	0	
0	0	0	0	0	550	490	1021	0	0	0	
1	0	0	0	0	541	485	1021	0	0	0	
2	0	0	0	0	532	481	1021	0	0	0	
3	0	0	0	0	524	478	1021	0	0	0	
4	0	0	0	0	519	476	1021	0	0	0	
5	0	0	0	0	516	475	1021	0	0	0	
6	0	0	0	0	518	477	1021	0	0	0	
7	0	0	0	0	523	479	1021	0	0	0	
8	0	0	0	0	530	483	1021	0	0	0	
9	0	0	0	0	539	488	1021	0	0	0	
10	0	0	0	0	548	494	1021	0	0	0	
11	0	0	0	0	556	499	1021	0	0	0	
12	0	0	0	0	563	504	1021	0	0	0	
13	0	0	0	0	568	508	1021	0	0	0	
14	0	0	0	0	569	511	1021	0	0	0	
15	0	0	0	0	569	512	1021	0	0	0	
0	0	0	0	0	567	512	1021	0	0	0	
1	0	0	0	0	563	511	1021	0	0	0	
2	0	0	0	0	557	508	1021	0	0	0	
3	0	0	0	0	551	506	1021	0	0	0	
4	0	0	0	0	546	504	1021	0	0	0	
5	0	0	0	0	541	502	1021	0	0	0	
6	0	0	0	0	538	499	1021	0	0	0	
7	0	0	0	0	536	498	1021	0	0	0	
8	0	0	0	0	535	497	1021	0	0	0	
9	0	0	0	0	535	496	1021	0	0	0	
10	0	0	0	0	535	496	1021	0	0	0	
11	0	0	0	0	536	496	1021	0	0	0	
12	0	0	0	0	537	495	1021	0	0	0	
13	0	0	0	0	538	495	1021	0	0	0	
14	0	0	0	0	539	493	1021	0	0	0	
15	0	0	0	0	539	493	1021	0	0	0	
0	0	0	0	0	540	491	1021	0	0	0	
1	0	0	0	0	540	490	1021	0	0	0	
2	0	0	0	0	540	488	1021	0	0	0	
3	0	0	0	0	540	487	1021	0	0	0	
4	0	0	0	0	540	486	1021	0	0	0	
5	0	0	0	0	540	485	1021	0	0	0	
6	0	0	0	0	540	485	1021	0	0	0	
7	0	0	0	0	540	486	1021	0	0	0	
8	0	0	0	0	542	487	1021	0	0	0	
9	0	0	0	0	544	489	1021	0	0	0	
10	0	0	0	0	547	492	1021	0	0	0	
11	0	0	0	0	549	495	1021	0	0	0	
12	0	0	0	0	552	498	1021	0	0	0	
13	0	0	0	0	556	501	1021	0	0	0	
14	0	0	0	0	558	504	1021	0	0	0	
15	0	0	0	0	560	507	1021	0	0	0	
0	0	0	0	0	560	508	1021	0	0	0	
1	0	0	0	0	560	510	1021	0	0	0	
2	0	0	0	0	559	511	1021	0	0	0	
3	0	0	0	0	558	511	1021	0	0	0	
4	0	0	0	0	557	511	1021	0	0	0	
5	0	0	0	0	555	511	1021	0	0	0	
6	0	0	0	0	554	510	1021	0	0	0	
7	0	0	0	0	553	509	1021	0	0	0	
8	0	0	0	0	552	508	1021	0	0	0	
9	0	0	0	0	551	507	1021	0	0	0	
10	0	0	0	0	551	505	1021	0	0	0	
11	0	0	0	0	552	504	1021	0	0	0	
12	0	0	0	0	553	503	1021	0	0	0	
13	0	0	0	0	554	501	1021	0	0	0	
14	0	0	0	0	556	499	1021	0	0	0	
15	0	0	0	0	557	498	1021	0	0	0	
0	0	0	0	0	557	497	1021	0	0	0	
1	0	0	0	0	556	496	1021	0	0	0	
2	0	0	0	0	554	495	1021	0	0	0	
3	0	0	0	0	551	494	1020	0	0	0	
4	0	0	0	0	548	494	1021	0	0	0	
5	0	0	0	0	543	493	1021	0	0	0	
6	0	0	0	0	539	493	1021	0	0	0	
7	0	0	0	0	533	492	1021	0	0	0	
8	0	0	0	0	528	491	1021	0	0	0	
9	0	0	0	0	524	490	1021	0	0	0	
10	0	0	0	0	519	488	1021	0	0	0	
11	0	0	0	0	515	487	1021	0	0	0	
12	0	0	0	0	512	486	1021	0	0	0	
13	0	0	0	0	511	484	1020	0	0	0	
14	0	0	0	0	511	483	1021	0	0	0	
15	0	0	0	0	512	483	1021	0	0	0	
0	0	0	0	0	515	483	1021	0	0	0	
1	0	0	0	0	520	483	1021	0	0	0	
2	0	0	0	0	527	484	1021	0	0	0	
3	0	0	0	0	535	485	1021	0	0	0	
4	0	0	0	0	545	487	1021	0	0	0	
5	0	0	0	0	556	489	1021	0	0	0	
6	0	0	0	0	567	492	1021	0	0	0	
7	0	0	0	0	578	496	1021	0	0	0	
8	0	0	0	0	587	500	1021	0	0	0	
9	0	0	0	0	592	504	1021	0	0	0	
10	0	0	0	0	594	507	1021	0	0	0	
11	0	0	0	0	592	509	1021	0	0	0	
12	0	0	0	0	585	510	1021	0	0	0	
13	0	0	0	0	575	510	1021	0	0	0	
14	0	0	0	0	563	508	1021	0	0	0	
15	0	0	0	0	548	505	1021	0	0	0	
0	0	0	0	0	534	502	1021	0	0	0	
1	0	0	0	0	520	498	1020	0	0	0	
2	0	0	0	0	509	494	1021	0	0	0	
3	0	0	0	0	500	491	1021	0	0	0	
4	0	0	0	0	495	488	1021	0	0	0	
5	0	0	0	0	492	487	1021	0	0	0	
6	0	0	0	0	494	486	1021	0	0	0	
7	0	0	0	0	497	486	1021	0	0	0	
8	0	0	0	0	503	486	1021	0	0	0	
9	0	0	0	0	511	487	1021	0	0	0	
10	0	0	0	0	519	488	1021	0	0	0	
11	0	0	0	0	527	489	1020	0	0	0	
12	0	0	0	0	535	490	1021	0	0	0	
13	0	0	0	0	540	490	1021	0	0	0	
14	0	0	0	0	544	490	1021	0	0	0	
15	0	0	0	0	545	488	1021	0	0	0	
0	0	0	0	0	544	486	1021	0	0	0	
1	0	0	0	0	543	483	1021	0	0	0	
2	0	0	0	0	538	478	1021	0	0	0	
3	0	0	0	0	533	474	1021	0	0	0	
4	0	0	0	0	527	469	1021	0	0	0	
5	0	0	0	0	520	464	1021	0	0	0	
6	0	0	0	0	515	460	1021	0	0	0	
7	0	0	0	0	511	457	1021	0	0	0	
8	0	0	0	0	507	455	1021	0	0	0	
9	0	0	0	0	504	454	1021	0	0	0	
10	0	0	0	0	503	455	1021	0	0	0	
11	0	0	0	0	503	455	1021	0	0	0	
12	0	0	0	0	504	457	1021	0	0	0	
13	0	0	0	0	507	460	1021	0	0	0	
14	0	0	0	0	511	462	1021	0	0	0	
15	0	0	0	0	517	466	1021	0	0	0	
0	0	0	0	0	524	470	1021	0	0	0	
1	0	0	0	0	532	473	1021	0	0	0	
2	0	0	0	0	540	478	1021	0	0	0	
3	0	0	0	0	546	482	1021	0	0	0	
4	0	0	0	0	551	485	1021	0	0	0	
5	0	0	0	0	554	487	1021	0	0	0	
6	0	0	0	0	556	488	1021	0	0	0	
7	0	0	0	0	556	489	1021	0	0	0	
8	0	0	0	0	555	488	1021	0	0	0	
9	0	0	0	0	553	487	1021	0	0	0	
10	0	0	0	0	550	487	1021	0	0	0	
11	0	0	0	0	545	485	1021	0	0	0	
12	0	0	0	0	540	483	1021	0	0	0	
13	0	0	0	0	534	482	1021	0	0	0	
14	0	0	0	0	528	481	1021	0	0	0	
15	0	0	0	0	523	479	1021	0	0	0	
0	0	0	0	0	518	479	1021	0	0	0	
1	0	0	0	0	513	479	1021	0	0	0	
2	0	0	0	0	510	479	1021	0	0	0	
3	0	0	0	0	507	479	1021	0	0	0	
4	0	0	0	0	505	479	1021	0	0	0	
5	0	0	0	0	504	478	1021	0	0	0	
6	0	0	0	0	504	478	1021	0	0	0	
7	0	0	0	0	503	476	1021	0	0	0	
8	0	0	0	0	503	473	1021	0	0	0	
9	0	0	0	0	502	470	1021	0	0	0	
10	0	0	0	0	501	466	1021	0	0	0	
11	0	0	0	0	501	463	1021	0	0	0	
12	0	0	0	0	501	460	1021	0	0	0	
13	0	0	0	0	502	457	1021	0	0	0	
14	0	0	0	0	505	456	1020	0	0	0	
15	0	0	0	0	509	457	1021	0	0	0	
0	0	0	0	0	514	459	1021	0	0	0	
1	0	0	0	0	521	463	1021	0	0	0	
2	0	0	0	0	528	467	1021	0	0	0	
3	0	0	0	0	536	472	1021	0	0	0	
4	0	0	0	0	543	477	1021	0	0	0	
5	0	0	0	0	550	483	1021	0	0	0	
6	0	0	0	0	556	488	1021	0	0	0	
7	0	0	0	0	559	493	1021	0	0	0	
8	0	0	0	0	561	497	1021	0	0	0	
9	0	0	0	0	560	500	1021	0	0	0	
10	0	0	0	0	557	501	1021	0	0	0	
11	0	0	0	0	552	502	1021	0	0	0	
12	0	0	0	0	546	500	1021	0	0	0	
13	0	0	0	0	539	497	1021	0	0	0	
14	0	0	0	0	532	494	1021	0	0	0	
15	0	0	0	0	527	489	1021	0	0	0	
0	0	0	0	0	521	485	1021	0	0	0	
1	0	0	0	0	518	480	1021	0	0	0	
2	0	0	0	0	515	475	1021	0	0	0	
3	0	0	0	0	514	471	1021	0	0	0	
4	0	0	0	0	515	468	1021	0	0	0	
5	0	0	0	0	518	466	1021	0	0	0	
6	0	0	0	0	521	465	1021	0	0	0	
7	0	0	0	0	524	465	1021	0	0	0	
8	0	0	0	0	528	466	1021	0	0	0	
9	0	0	0	0	531	468	1021	0	0	0	
10	0	0	0	0	534	471	1021	0	0	0	
11	0	0	0	0	536	474	1021	0	0	0	
12	0	0	0	0	537	477	1021	0	0	0	
13	0	0	0	0	537	480	1021	0	0	0	
14	0	0	0	0	536	483	1021	0	0	0	
15	0	0	0	0	536	485	1021	0	0	0	
0	0	0	0	0	534	487	1021	0	0	0	
1	0	0	0	0	532	487	1021	0	0	0	
2	0	0	0	0	530	487	1021	0	0	0	
3	0	0	0	0	528	486	1021	0	0	0	
4	0	0	0	0	527	484	1021	0	0	0	
5	0	0	0	0	527	483	1021	0	0	0	
6	0	0	0	0	527	481	1021	0	0	0	
7	0	0	0	0	527	480	1021	0	0	0	
8	0	0	0	0	529	479	1021	0	0	0	
9	0	0	0	0	532	479	1021	0	0	0	
10	0	0	0	0	535	479	1021	0	0	0	
11	0	0	0	0	538	480	1021	0	0	0	
12	0	0	0	0	541	481	1021	0	0	0	
13	0	0	0	0	544	483	1021	0	0	0	
14	0	0	0	0	547	485	1021	0	0	0	
15	0	0	0	0	550	487	1021	0	0	0	
0	0	0	0	0	553	490	1021	0	0	0	
1	0	0	0	0	555	492	1021	0	0	0	
2	0	0	0	0	558	494	1021	0	0	0	
3	0	0	0	0	560	496	1021	0	0	0	
4	0	0	0	0	561	498	1021	0	0	0	
5	0	0	0	0	562	499	1021	0	0	0	
6	0	0	0	0	563	499	1021	0	0	0	
7	0	0	0	0	563	499	1021	0	0	0	
8	0	0	0	0	562	499	1021	0	0	0	
9	0	0	0	0	561	497	1021	0	0	0	
10	0	0	0	0	560	496	1021	0	0	0	
11	0	0	0	0	560	496	1021	0	0	0	
12	0	0	0	0	559	495	1021	0	0	0	
13	0	0	0	0	559	495	1021	0	0	0	
14	0	0	0	0	559	495	1021	0	0	0	
15	0	0	0	0	557	495	1021	0	0	0	
0	0	0	0	0	554	494	1021	0	0	0	
1	0	0	0	0	549	492	1021	0	0	0	
2	0	0	0	0	542	488	1021	0	0	0	
3	0	0	0	0	532	483	1020	0	0	0	
4	0	0	0	0	521	476	1021	0	0	0	
5	0	0	0	0	508	467	1021	0	0	0	
6	0	0	0	0	494	455	1021	0	0	0	
7	0	0	0	0	479	443	1021	0	0	0	
8	0	0	0	0	463	428	1021	0	0	0	
9	0	0	0	0	445	412	1021	0	0	0	
10	0	0	0	0	428	396	1021	0	0	0	
11	0	0	0	0	411	379	1021	0	0	0	
12	0	0	0	0	395	364	1021	0	0	0	
13	0	0	0	0	379	348	1021	0	0	0	
14	0	0	0	0	364	333	1020	0	0	0	
15	0	0	0	0	351	319	1021	0	0	0	
0	0	0	0	0	340	307	1021	0	0	0	
1	0	0	0	0	330	295	1021	0	0	0	
2	0	0	0	0	320	284	1021	0	0	0	
3	0	0	0	0	312	273	1021	0	0	0	
4	0	0	0	0	303	263	1021	0	0	0	
5	0	0	0	0	295	254	1021	0	0	0	
6	0	0	0	0	287	245	1021	0	0	0	
7	0	0	0	0	281	238	1021	0	0	0	
8	0	0	0	0	277	232	1021	0	0	0	
9	0	0	0	0	275	229	1021	0	0	0	
10	0	0	0	0	277	228	1021	0	0	0	
11	0	0	0	0	281	231	1021	0	0	0	
12	0	0	0	0	287	235	1021	0	0	0	
13	0	0	0	0	297	243	1021	0	0	0	
14	0	0	0	0	310	254	1021	0	0	0	
15	0	0	0	0	325	267	1021	0	0	0	
0	0	0	0	0	343	283	1021	0	0	0	
1	0	0	0	0	364	302	1021	0	0	0	
2	0	0	0	0	387	323	1021	0	0	0	
3	0	0	0	0	413	347	1021	0	0	0	
4	0	0	0	0	440	371	1021	0	0	0	
5	0	0	0	0	467	396	1021	0	0	0	
6	0	0	0	0	495	421	1021	0	0	0	
7	0	0	0	0	520	444	1021	0	0	0	
8	0	0	0	0	543	466	1021	0	0	0	
9	0	0	0	0	564	485	1021	0	0	0	
10	0	0	0	0	582	500	1021	0	0	0	
11	0	0	0	0	595	512	1021	0	0	0	
12	0	0	0	0	602	519	1021	0	0	0	
13	0	0	0	0	605	522	1021	0	0	0	
14	0	0	0	0	602	521	1021	0	0	0	
15	0	0	0	0	595	517	1021	0	0	0	
0	0	0	0	0	586	511	1021	0	0	0	
1	0	0	0	0	575	503	1021	0	0	0	
2	0	0	0	0	564	494	1021	0	0	0	
3	0	0	0	0	555	486	1021	0	0	0	
4	0	0	0	0	547	479	1021	0	0	0	
5	0	0	0	0	543	473	1021	0	0	0	
6	0	0	0	0	539	469	1021	0	0	0	
7	0	0	0	0	536	467	1021	0	0	0	
8	0	0	0	0	533	467	1021	0	0	0	
9	0	0	0	0	531	470	1021	0	0	0	
10	0	0	0	0	529	474	1021	0	0	0	
11	0	0	0	0	527	479	1021	0	0	0	
12	0	0	0	0	525	485	1021	0	0	0	
13	0	0	0	0	524	492	1021	0	0	0	
14	0	0	0	0	523	498	1021	0	0	0	
15	0	0	0	0	523	504	1021	0	0	0	
0	0	0	0	0	523	507	1021	0	0	0	
1	0	0	0	0	524	510	1021	0	0	0	
2	0	0	0	0	525	511	1021	0	0	0	
3	0	0	0	0	526	511	1021	0	0	0	
4	0	0	0	0	527	510	1021	0	0	0	
5	0	0	0	0	528	507	1021	0	0	0	
6	0	0	0	0	529	504	1021	0	0	0	
7	0	0	0	0	531	500	1021	0	0	0	
8	0	0	0	0	532	496	1021	0	0	0	
9	0	0	0	0	534	493	1021	0	0	0	
10	0	0	0	0	536	490	1021	0	0	0	
11	0	0	0	0	538	488	1021	0	0	0	
12	0	0	0	0	540	487	1021	0	0	0	
13	0	0	0	0	543	486	1021	0	0	0	
14	0	0	0	0	545	486	1021	0	0	0	
15	0	0	0	0	547	487	1021	0	0	0	
0	0	0	0	0	549	489	1021	0	0	0	
1	0	0	0	0	551	491	1021	0	0	0	
2	0	0	0	0	552	494	1021	0	0	0	
3	0	0	0	0	554	497	1021	0	0	0	
4	0	0	0	0	555	500	1021	0	0	0	
5	0	0	0	0	556	503	1021	0	0	0	
6	0	0	0	0	557	505	1021	0	0	0	
7	0	0	0	0	558	507	1021	0	0	0	
8	0	0	0	0	557	507	1021	0	0	0	
9	0	0	0	0	555	506	1021	0	0	0	
10	0	0	0	0	553	505	1021	0	0	0	
11	0	0	0	0	550	504	1021	0	0	0	
12	0	0	0	0	548	502	1021	0	0	0	
13	0	0	0	0	545	499	1021	0	0	0	
14	0	0	0	0	543	497	1021	0	0	0	
15	0	0	0	0	542	496	1021	0	0	0	
0	0	0	0	0	542	494	1021	0	0	0	
1	0	0	0	0	542	494	1021	0	0	0	
2	0	0	0	0	543	493	1021	0	0	0	
3	0	0	0	0	545	492	1021	0	0	0	
4	0	0	0	0	547	492	1021	0	0	0	
5	0	0	0	0	549	493	1021	0	0	0	
6	0	0	0	0	551	493	1021	0	0	0	
7	0	0	0	0	554	493	1021	0	0	0	
8	0	0	0	0	556	493	1021	0	0	0	
9	0	0	0	0	557	493	1020	0	0	0	
10	0	0	0	0	559	493	1021	0	0	0	
11	0	0	0	0	559	492	1021	0	0	0	
12	0	0	0	0	559	493	1021	0	0	0	
13	0	0	0	0	557	492	1021	0	0	0	
14	0	0	0	0	553	491	1021	0	0	0	
15	0	0	0	0	549	490	1021	0	0	0	
0	0	0	0	0	543	489	1021	0	0	0	
1	0	0	0	0	539	489	1021	0	0	0	
2	0	0	0	0	534	488	1021	0	0	0	
3	0	0	0	0	529	488	1021	0	0	0	
4	0	0	0	0	527	489	1021	0	0	0	
5	0	0	0	0	527	490	1021	0	0	0	
6	0	0	0	0	527	492	1021	0	0	0	
7	0	0	0	0	530	495	1021	0	0	0	
8	0	0	0	0	532	498	1021	0	0	0	
9	0	0	0	0	536	502	1021	0	0	0	
10	0	0	0	0	540	504	1021	0	0	0	
11	0	0	0	0	544	507	1021	0	0	0	
12	0	0	0	0	547	508	1021	0	0	0	
13	0	0	0	0	551	509	1021	0	0	0	
14	0	0	0	0	553	510	1021	0	0	0	
15	0	0	0	0	555	508	1021	0	0	0	
0	0	0	0	0	556	507	1020	0	0	0	
1	0	0	0	0	556	504	1021	0	0	0	
2	0	0	0	0	555	502	1021	0	0	0	
3	0	0	0	0	553	499	1021	0	0	0	
4	0	0	0	0	550	496	1021	0	0	0	
5	0	0	0	0	547	493	1021	0	0	0	
6	0	0	0	0	545	490	1021	0	0	0	
7	0	0	0	0	541	487	1021	0	0	0	
8	0	0	0	0	539	486	1021	0	0	0	
9	0	0	0	0	537	484	1021	0	0	0	
10	0	0	0	0	535	483	1021	0	0	0	
11	0	0	0	0	534	483	1021	0	0	0	
12	0	0	0	0	534	483	1021	0	0	0	
13	0	0	0	0	535	484	1021	0	0	0	
14	0	0	0	0	536	485	1021	0	0	0	
15	0	0	0	0	539	486	1021	0	0	0	
0	0	0	0	0	542	488	1021	0	0	0	
1	0	0	0	0	543	490	1021	0	0	0	
2	0	0	0	0	546	492	1021	0	0	0	
3	0	0	0	0	548	493	1021	0	0	0	
4	0	0	0	0	550	493	1021	0	0	0	
5	0	0	0	0	550	493	1021	0	0	0	
6	0	0	0	0	549	492	1020	0	0	0	
7	0	0	0	0	548	490	1021	0	0	0	
8	0	0	0	0	545	487	1021	0	0	0	
9	0	0	0	0	543	484	1021	0	0	0	
10	0	0	0	0	539	480	1021	0	0	0	
11	0	0	0	0	534	477	1021	0	0	0	
12	0	0	0	0	529	474	1021	0	0	0	
13	0	0	0	0	524	471	1021	0	0	0	
14	0	0	0	0	519	470	1021	0	0	0	
15	0	0	0	0	515	469	1021	0	0	0	
0	0	0	0	0	512	469	1021	0	0	0	
1	0	0	0	0	511	471	1021	0	0	0	
2	0	0	0	0	511	473	1021	0	0	0	
3	0	0	0	0	512	476	1021	0	0	0	
4	0	0	0	0	514	478	1021	0	0	0	
5	0	0	0	0	516	481	1021	0	0	0	
6	0	0	0	0	519	483	1021	0	0	0	
7	0	0	0	0	522	484	1021	0	0	0	
8	0	0	0	0	524	485	1021	0	0	0	
9	0	0	0	0	527	485	1021	0	0	0	
10	0	0	0	0	528	485	1021	0	0	0	
11	0	0	0	0	531	485	1021	0	0	0	
12	0	0	0	0	532	485	1021	0	0	0	
13	0	0	0	0	534	486	1021	0	0	0	
14	0	0	0	0	536	487	1021	0	0	0	
15	0	0	0	0	537	488	1021	0	0	0	
0	0	0	0	0	539	490	1021	0	0	0	
1	0	0	0	0	540	492	1021	0	0	0	
2	0	0	0	0	542	495	1021	0	0	0	
3	0	0	0	0	543	497	1021	0	0	0	
4	0	0	0	0	544	499	1021	0	0	0	
5	0	0	0	0	544	501	1021	0	0	0	
6	0	0	0	0	545	502	1021	0	0	0	
7	0	0	0	0	544	502	1021	0	0	0	
8	0	0	0	0	543	500	1021	0	0	0	
9	0	0	0	0	541	498	1020	0	0	0	
10	0	0	0	0	539	495	1021	0	0	0	
11	0	0	0	0	537	492	1021	0	0	0	
12	0	0	0	0	537	490	1021	0	0	0	
13	0	0	0	0	537	487	1021	0	0	0	
14	0	0	0	0	540	487	1021	0	0	0	
15	0	0	0	0	543	487	1021	0	0	0	
0	0	0	0	0	548	489	1021	0	0	0	
1	0	0	0	0	553	491	1021	0	0	0	
2	0	0	0	0	558	493	1021	0	0	0	
3	0	0	0	0	561	496	1021	0	0	0	
4	0	0	0	0	565	499	1021	0	0	0	
5	0	0	0	0	568	500	1021	0	0	0	
6	0	0	0	0	568	501	1021	0	0	0	
7	0	0	0	0	568	500	1021	0	0	0	
8	0	0	0	0	563	498	1020	0	0	0	
9	0	0	0	0	555	494	1021	0	0	0	
10	0	0	0	0	546	489	1021	0	0	0	
11	0	0	0	0	535	483	1021	0	0	0	
12	0	0	0	0	524	476	1021	0	0	0	
13	0	0	0	0	515	470	1021	0	0	0	
14	0	0	0	0	507	464	1021	0	0	0	
15	0	0	0	0	501	459	1021	0	0	0	
0	0	0	0	0	497	455	1021	0	0	0	
1	0	0	0	0	494	452	1021	0	0	0	
2	0	0	0	0	492	451	1020	0	0	0	
3	0	0	0	0	491	451	1021	0	0	0	
4	0	0	0	0	492	452	1021	0	0	0	
5	0	0	0	0	494	455	1021	0	0	0	
6	0	0	0	0	497	459	1021	0	0	0	
7	0	0	0	0	503	464	1021	0	0	0	
8	0	0	0	0	509	470	1021	0	0	0	
9	0	0	0	0	516	476	1021	0	0	0	
10	0	0	0	0	524	481	1021	0	0	0	
11	0	0	0	0	530	486	1021	0	0	0	
12	0	0	0	0	537	491	1020	0	0	0	
13	0	0	0	0	543	495	1021	0	0	0	
14	0	0	0	0	547	498	1021	0	0	0	
15	0	0	0	0	550	500	1021	0	0	0	
0	0	0	0	0	551	502	1021	0	0	0	
1	0	0	0	0	551	502	1021	0	0	0	
2	0	0	0	0	549	500	1021	0	0	0	
3	0	0	0	0	545	499	1021	0	0	0	
4	0	0	0	0	540	496	1021	0	0	0	
5	0	0	0	0	535	492	1021	0	0	0	
6	0	0	0	0	529	488	1021	0	0	0	
7	0	0	0	0	524	483	1021	0	0	0	
8	0	0	0	0	521	480	1021	0	0	0	
9	0	0	0	0	518	476	1021	0	0	0	
10	0	0	0	0	516	472	1021	0	0	0	
11	0	0	0	0	516	470	1021	0	0	0	
12	0	0	0	0	518	467	1021	0	0	0	
13	0	0	0	0	521	466	1021	0	0	0	
14	0	0	0	0	525	466	1021	0	0	0	
15	0	0	0	0	530	467	1021	0	0	0	
0	0	0	0	0	535	468	1020	0	0	0	
1	0	0	0	0	540	471	1021	0	0	0	
2	0	0	0	0	543	473	1021	0	0	0	
3	0	0	0	0	545	476	1021	0	0	0	
4	0	0	0	0	547	480	1021	0	0	0	
5	0	0	0	0	547	483	1021	0	0	0	
6	0	0	0	0	546	486	1021	0	0	0	
7	0	0	0	0	543	488	1021	0	0	0	
8	0	0	0	0	541	490	1021	0	0	0	
9	0	0	0	0	537	492	1021	0	0	0	
10	0	0	0	0	533	492	1021	0	0	0	
11	0	0	0	0	529	493	1021	0	0	0	
12	0	0	0	0	526	494	1021	0	0	0	
13	0	0	0	0	522	493	1021	0	0	0	
14	0	0	0	0	519	494	1021	0	0	0	
15	0	0	0	0	518	494	1021	0	0	0	
0	0	0	0	0	518	495	1021	0	0	0	
1	0	0	0	0	521	498	1021	0	0	0	
2	0	0	0	0	527	500	1021	0	0	0	
3	0	0	0	0	534	504	1021	0	0	0	
4	0	0	0	0	542	507	1021	0	0	0	
5	0	0	0	0	550	510	1021	0	0	0	
6	0	0	0	0	558	512	1021	0	0	0	
7	0	0	0	0	565	513	1021	0	0	0	
8	0	0	0	0	571	513	1021	0	0	0	
9	0	0	0	0	575	513	1021	0	0	0	
10	0	0	0	0	578	511	1021	0	0	0	
11	0	0	0	0	578	508	1021	0	0	0	
12	0	0	0	0	575	504	1021	0	0	0	
13	0	0	0	0	570	499	1021	0	0	0	
14	0	0	0	0	561	493	1021	0	0	0	
15	0	0	0	0	552	488	1021	0	0	0	
0	0	0	0	0	541	483	1021	0	0	0	
1	0	0	0	0	529	478	1021	0	0	0	
2	0	0	0	0	518	473	1021	0	0	0	
3	0	0	0	0	507	470	1021	0	0	0	
4	0	0	0	0	499	468	1021	0	0	0	
5	0	0	0	0	493	468	1021	0	0	0	
6	0	0	0	0	490	469	1021	0	0	0	
7	0	0	0	0	491	472	1021	0	0	0	
8	0	0	0	0	493	475	1021	0	0	0	
9	0	0	0	0	499	479	1021	0	0	0	
10	0	0	0	0	507	483	1021	0	0	0	
11	0	0	0	0	515	486	1021	0	0	0	
12	0	0	0	0	524	488	1021	0	0	0	
13	0	0	0	0	530	490	1021	0	0	0	
14	0	0	0	0	536	489	1021	0	0	0	
15	0	0	0	0	540	487	1021	0	0	0	
0	0	0	0	0	541	485	1021	0	0	0	
1	0	0	0	0	540	481	1021	0	0	0	
2	0	0	0	0	536	476	1020	0	0	0	
3	0	0	0	0	532	472	1021	0	0	0	
4	0	0	0	0	526	467	1021	0	0	0	
5	0	0	0	0	520	463	1021	0	0	0	
6	0	0	0	0	514	459	1021	0	0	0	
7	0	0	0	0	510	457	1021	0	0	0	
8	0	0	0	0	507	456	1021	0	0	0	
9	0	0	0	0	505	457	1021	0	0	0	
10	0	0	0	0	505	459	1020	0	0	0	
11	0	0	0	0	508	463	1021	0	0	0	
12	0	0	0	0	512	468	1021	0	0	0	
13	0	0	0	0	519	474	1021	0	0	0	
14	0	0	0	0	525	480	1021	0	0	0	
15	0	0	0	0	532	486	1021	0	0	0	
0	0	0	0	0	539	491	1021	0	0	0	
1	0	0	0	0	544	495	1021	0	0	0	
2	0	0	0	0	548	497	1021	0	0	0	
3	0	0	0	0	549	497	1021	0	0	0	
4	0	0	0	0	548	496	1021	0	0	0	
5	0	0	0	0	545	493	1021	0	0	0	
6	0	0	0	0	542	489	1021	0	0	0	
7	0	0	0	0	536	485	1021	0	0	0	
8	0	0	0	0	531	480	1021	0	0	0	
9	0	0	0	0	526	476	1021	0	0	0	
10	0	0	0	0	521	472	1021	0	0	0	
11	0	0	0	0	518	470	1021	0	0	0	
12	0	0	0	0	516	467	1021	0	0	0	
13	0	0	0	0	515	467	1021	0	0	0	
14	0	0	0	0	516	468	1021	0	0	0	
15	0	0	0	0	519	470	1021	0	0	0	
0	0	0	0	0	522	473	1020	0	0	0	
1	0	0	0	0	527	476	1021	0	0	0	
2	0	0	0	0	532	481	1021	0	0	0	
3	0	0	0	0	538	485	1021	0	0	0	
4	0	0	0	0	544	489	1021	0	0	0	
5	0	0	0	0	550	492	1021	0	0	0	
6	0	0	0	0	554	495	1021	0	0	0	
7	0	0	0	0	555	496	1021	0	0	0	
8	0	0	0	0	555	496	1021	0	0	0	
9	0	0	0	0	551	494	1021	0	0	0	
10	0	0	0	0	545	491	1021	0	0	0	
11	0	0	0	0	539	487	1021	0	0	0	
12	0	0	0	0	531	483	1021	0	0	0	
13	0	0	0	0	525	479	1021	0	0	0	
14	0	0	0	0	520	474	1021	0	0	0	
15	0	0	0	0	516	471	1021	0	0	0	
0	0	0	0	0	516	468	1021	0	0	0	
1	0	0	0	0	517	467	1021	0	0	0	
2	0	0	0	0	520	467	1021	0	0	0	
3	0	0	0	0	525	467	1021	0	0	0	
4	0	0	0	0	529	469	1021	0	0	0	
5	0	0	0	0	533	471	1021	0	0	0	
6	0	0	0	0	536	474	1021	0	0	0	
7	0	0	0	0	537	476	1021	0	0	0	
8	0	0	0	0	537	479	1021	0	0	0	
9	0	0	0	0	536	480	1021	0	0	0	
10	0	0	0	0	534	482	1021	0	0	0	
11	0	0	0	0	530	482	1021	0	0	0	
12	0	0	0	0	526	483	1021	0	0	0	
13	0	0	0	0	521	482	1021	0	0	0	
14	0	0	0	0	516	480	1021	0	0	0	
15	0	0	0	0	512	479	1021	0	0	0	
0	0	0	0	0	508	477	1021	0	0	0	
1	0	0	0	0	505	475	1021	0	0	0	
2	0	0	0	0	503	473	1021	0	0	0	
3	0	0	0	0	502	472	1021	0	0	0	
4	0	0	0	0	503	471	1021	0	0	0	
5	0	0	0	0	504	471	1021	0	0	0	
6	0	0	0	0	505	472	1021	0	0	0	
7	0	0	0	0	508	472	1021	0	0	0	
8	0	0	0	0	512	474	1021	0	0	0	
9	0	0	0	0	516	476	1021	0	0	0	
10	0	0	0	0	521	478	1021	0	0	0	
11	0	0	0	0	527	480	1021	0	0	0	
12	0	0	0	0	533	481	1021	0	0	0	
13	0	0	0	0	538	482	1021	0	0	0	
14	0	0	0	0	543	483	1021	0	0	0	
15	0	0	0	0	545	484	1021	0	0	0	
0	0	0	0	0	545	484	1021	0	0	0	
1	0	0	0	0	543	483	1021	0	0	0	
2	0	0	0	0	538	481	1021	0	0	0	
3	0	0	0	0	532	478	1021	0	0	0	
4	0	0	0	0	525	475	1021	0	0	0	
5	0	0	0	0	519	471	1021	0	0	0	
6	0	0	0	0	515	467	1021	0	0	0	
7	0	0	0	0	511	463	1021	0	0	0	
8	0	0	0	0	510	460	1021	0	0	0	
9	0	0	0	0	510	458	1021	0	0	0	
10	0	0	0	0	512	457	1021	0	0	0	
11	0	0	0	0	514	458	1021	0	0	0	
12	0	0	0	0	518	460	1021	0	0	0	
13	0	0	0	0	521	463	1021	0	0	0	
14	0	0	0	0	526	466	1021	0	0	0	
15	0	0	0	0	530	471	1021	0	0	0	
0	0	0	0	0	532	476	1021	0	0	0	
1	0	0	0	0	535	481	1021	0	0	0	
2	0	0	0	0	535	485	1021	0	0	0	
3	0	0	0	0	535	488	1021	0	0	0	
4	0	0	0	0	532	490	1021	0	0	0	
5	0	0	0	0	531	491	1021	0	0	0	
6	0	0	0	0	529	491	1021	0	0	0	
7	0	0	0	0	528	491	1021	0	0	0	
8	0	0	0	0	529	490	1021	0	0	0	
9	0	0	0	0	531	490	1021	0	0	0	
10	0	0	0	0	534	489	1021	0	0	0	
11	0	0	0	0	536	489	1021	0	0	0	
12	0	0	0	0	538	488	1021	0	0	0	
13	0	0	0	0	539	487	1021	0	0	0	
14	0	0	0	0	539	487	1021	0	0	0	
15	0	0	0	0	538	486	1021	0	0	0	
0	0	0	0	0	536	486	1021	0	0	0	
1	0	0	0	0	535	486	1021	0	0	0	
2	0	0	0	0	532	486	1021	0	0	0	
3	0	0	0	0	530	486	1021	0	0	0	
4	0	0	0	0	527	485	1021	0	0	0	
5	0	0	0	0	525	484	1020	0	0	0	
6	0	0	0	0	523	483	1021	0	0	0	
7	0	0	0	0	520	481	1021	0	0	0	
8	0	0	0	0	519	478	1021	0	0	0	
9	0	0	0	0	517	475	1021	0	0	0	
10	0	0	0	0	516	472	1020	0	0	0	
11	0	0	0	0	516	468	1021	0	0	0	
12	0	0	0	0	516	467	1021	0	0	0	
13	0	0	0	0	516	465	1021	0	0	0	
14	0	0	0	0	517	464	1021	0	0	0	
15	0	0	0	0	517	464	1021	0	0	0	
0	0	0	0	0	518	465	1021	0	0	0	
1	0	0	0	0	519	467	1021	0	0	0	
2	0	0	0	0	521	470	1021	0	0	0	
3	0	0	0	0	523	474	1021	0	0	0	
4	0	0	0	0	526	479	1021	0	0	0	
5	0	0	0	0	530	484	1021	0	0	0	
6	0	0	0	0	534	489	1021	0	0	0	
7	0	0	0	0	538	494	1021	0	0	0	
8	0	0	0	0	541	497	1021	0	0	0	
9	0	0	0	0	544	499	1021	0	0	0	
10	0	0	0	0	545	500	1021	0	0	0	
11	0	0	0	0	544	500	1021	0	0	0	
12	0	0	0	0	542	497	1021	0	0	0	
13	0	0	0	0	537	493	1021	0	0	0	
14	0	0	0	0	531	488	1021	0	0	0	
15	0	0	0	0	524	482	1021	0	0	0	
0	0	0	0	0	517	476	1021	0	0	0	
1	0	0	0	0	510	471	1021	0	0	0	
2	0	0	0	0	504	466	1021	0	0	0	
3	0	0	0	0	499	462	1021	0	0	0	
4	0	0	0	0	496	459	1021	0	0	0	
5	0	0	0	0	496	458	1021	0	0	0	
6	0	0	0	0	498	459	1021	0	0	0	
7	0	0	0	0	502	461	1021	0	0	0	
8	0	0	0	0	508	464	1021	0	0	0	
9	0	0	0	0	515	467	1021	0	0	0	
10	0	0	0	0	522	472	1021	0	0	0	
11	0	0	0	0	529	476	1021	0	0	0	
12	0	0	0	0	535	479	1021	0	0	0	
