# OpenSignals Text File Format. Version 1
# {"": {"position": 0, "device": "", "device name": "", "device connection": "", "sampling rate": 1000, "resolution": [4, 1, 1, 1, 1, 10, 10, 10, 10, 6, 6], "firmware version": 1281, "comments": "", "keywords": "", "mode": 0, "sync interval": 2, "date": "", "time": "", "channels": [1, 2, 3, 4, 5, 6], "sensor": ["RAW", "RAW", "RAW", "RAW", "RAW", "RAW"], "label": ["A1", "A2", "A3", "A4", "A5", "A6"], "column": ["nSeq", "I1", "I2", "O1", "O2", "A1", "A2", "A3", "A4", "A5", "A6"], "special": [{}, {}, {}, {}, {}, {}], "digital IO": [0, 0, 1, 1]}}
# EndOfHeader
0	0	0	0	0	371	302	1021	0	0	0	
1	0	0	0	0	395	325	1021	0	0	0	
2	0	0	0	0	421	349	1021	0	0	0	
3	0	0	0	0	447	375	1021	0	0	0	
4	0	0	0	0	474	401	1021	0	0	0	
5	0	0	0	0	500	427	1021	0	0	0	
6	0	0	0	0	525	452	1021	0	0	0	
7	0	0	0	0	548	475	1021	0	0	0	
8	0	0	0	0	569	496	1021	0	0	0	
9	0	0	0	0	585	513	1021	0	0	0	
10	0	0	0	0	599	526	1021	0	0	0	
11	0	0	0	0	606	535	1021	0	0	0	
12	0	0	0	0	610	540	1021	0	0	0	
13	0	0	0	0	609	540	1021	0	0	0	
14	0	0	0	0	604	537	1021	0	0	0	
15	0	0	0	0	594	530	1021	0	0	0	
0	0	0	0	0	582	521	1021	0	0	0	
1	0	0	0	0	568	511	1021	0	0	0	
2	0	0	0	0	553	499	1021	0	0	0	
3	0	0	0	0	539	488	1021	0	0	0	
4	0	0	0	0	526	478	1021	0	0	0	
5	0	0	0	0	514	469	1021	0	0	0	
6	0	0	0	0	505	461	1021	0	0	0	
7	0	0	0	0	499	455	1020	0	0	0	
8	0	0	0	0	496	451	1021	0	0	0	
9	0	0	0	0	496	449	1021	0	0	0	
10	0	0	0	0	499	450	1021	0	0	0	
11	0	0	0	0	505	454	1021	0	0	0	
12	0	0	0	0	514	460	1021	0	0	0	
13	0	0	0	0	526	468	1021	0	0	0	
14	0	0	0	0	539	479	1021	0	0	0	
15	0	0	0	0	555	492	1021	0	0	0	
0	0	0	0	0	571	505	1021	0	0	0	
1	0	0	0	0	586	519	1021	0	0	0	
2	0	0	0	0	600	532	1021	0	0	0	
3	0	0	0	0	613	545	1021	0	0	0	
4	0	0	0	0	622	554	1021	0	0	0	
5	0	0	0	0	627	560	1021	0	0	0	
6	0	0	0	0	628	563	1021	0	0	0	
7	0	0	0	0	625	563	1021	0	0	0	
8	0	0	0	0	619	559	1021	0	0	0	
9	0	0	0	0	607	551	1021	0	0	0	
10	0	0	0	0	592	540	1021	0	0	0	
11	0	0	0	0	575	527	1021	0	0	0	
12	0	0	0	0	556	512	1020	0	0	0	
13	0	0	0	0	538	496	1021	0	0	0	
14	0	0	0	0	521	482	1021	0	0	0	
15	0	0	0	0	507	470	1021	0	0	0	
0	0	0	0	0	496	459	1021	0	0	0	
1	0	0	0	0	490	452	1021	0	0	0	
2	0	0	0	0	488	448	1021	0	0	0	
3	0	0	0	0	489	447	1021	0	0	0	
4	0	0	0	0	495	449	1021	0	0	0	
5	0	0	0	0	504	454	1021	0	0	0	
6	0	0	0	0	515	462	1021	0	0	0	
7	0	0	0	0	528	471	1021	0	0	0	
8	0	0	0	0	542	481	1021	0	0	0	
9	0	0	0	0	556	492	1021	0	0	0	
10	0	0	0	0	568	502	1021	0	0	0	
11	0	0	0	0	578	511	1020	0	0	0	
12	0	0	0	0	586	518	1021	0	0	0	
13	0	0	0	0	590	522	1021	0	0	0	
14	0	0	0	0	591	524	1021	0	0	0	
15	0	0	0	0	588	524	1021	0	0	0	
0	0	0	0	0	583	522	1021	0	0	0	
1	0	0	0	0	575	517	1021	0	0	0	
2	0	0	0	0	566	511	1021	0	0	0	
3	0	0	0	0	555	503	1021	0	0	0	
4	0	0	0	0	543	494	1021	0	0	0	
5	0	0	0	0	531	486	1021	0	0	0	
6	0	0	0	0	522	479	1021	0	0	0	
7	0	0	0	0	514	472	1021	0	0	0	
8	0	0	0	0	509	468	1021	0	0	0	
9	0	0	0	0	506	465	1021	0	0	0	
10	0	0	0	0	505	465	1020	0	0	0	
11	0	0	0	0	508	465	1021	0	0	0	
12	0	0	0	0	511	467	1021	0	0	0	
13	0	0	0	0	516	471	1021	0	0	0	
14	0	0	0	0	522	475	1021	0	0	0	
15	0	0	0	0	528	479	1021	0	0	0	
0	0	0	0	0	535	483	1021	0	0	0	
1	0	0	0	0	541	487	1021	0	0	0	
2	0	0	0	0	548	492	1021	0	0	0	
3	0	0	0	0	553	497	1021	0	0	0	
4	0	0	0	0	558	501	1021	0	0	0	
5	0	0	0	0	562	504	1021	0	0	0	
6	0	0	0	0	565	508	1021	0	0	0	
7	0	0	0	0	567	510	1021	0	0	0	
8	0	0	0	0	568	512	1021	0	0	0	
9	0	0	0	0	568	513	1021	0	0	0	
10	0	0	0	0	567	513	1021	0	0	0	
11	0	0	0	0	565	513	1021	0	0	0	
12	0	0	0	0	563	513	1021	0	0	0	
13	0	0	0	0	561	513	1021	0	0	0	
14	0	0	0	0	560	513	1021	0	0	0	
15	0	0	0	0	559	513	1021	0	0	0	
0	0	0	0	0	559	514	1021	0	0	0	
1	0	0	0	0	558	514	1021	0	0	0	
2	0	0	0	0	558	515	1020	0	0	0	
3	0	0	0	0	559	515	1021	0	0	0	
4	0	0	0	0	559	513	1021	0	0	0	
5	0	0	0	0	557	511	1021	0	0	0	
6	0	0	0	0	556	508	1021	0	0	0	
7	0	0	0	0	552	504	1021	0	0	0	
8	0	0	0	0	548	499	1021	0	0	0	
9	0	0	0	0	543	494	1021	0	0	0	
10	0	0	0	0	538	488	1021	0	0	0	
11	0	0	0	0	534	483	1021	0	0	0	
12	0	0	0	0	529	480	1020	0	0	0	
13	0	0	0	0	526	476	1021	0	0	0	
14	0	0	0	0	524	474	1021	0	0	0	
15	0	0	0	0	524	475	1021	0	0	0	
0	0	0	0	0	526	477	1021	0	0	0	
1	0	0	0	0	530	480	1021	0	0	0	
2	0	0	0	0	536	486	1021	0	0	0	
3	0	0	0	0	543	494	1021	0	0	0	
4	0	0	0	0	552	502	1021	0	0	0	
5	0	0	0	0	561	509	1021	0	0	0	
6	0	0	0	0	569	517	1021	0	0	0	
7	0	0	0	0	576	523	1020	0	0	0	
8	0	0	0	0	581	527	1021	0	0	0	
9	0	0	0	0	582	528	1021	0	0	0	
10	0	0	0	0	581	527	1021	0	0	0	
11	0	0	0	0	576	523	1020	0	0	0	
12	0	0	0	0	569	516	1021	0	0	0	
13	0	0	0	0	560	508	1021	0	0	0	
14	0	0	0	0	550	499	1021	0	0	0	
15	0	0	0	0	539	490	1021	0	0	0	
0	0	0	0	0	529	481	1021	0	0	0	
1	0	0	0	0	521	474	1021	0	0	0	
2	0	0	0	0	515	469	1021	0	0	0	
3	0	0	0	0	512	467	1021	0	0	0	
4	0	0	0	0	512	467	1021	0	0	0	
5	0	0	0	0	514	469	1021	0	0	0	
6	0	0	0	0	519	473	1021	0	0	0	
7	0	0	0	0	526	480	1021	0	0	0	
8	0	0	0	0	534	486	1021	0	0	0	
9	0	0	0	0	542	492	1021	0	0	0	
10	0	0	0	0	550	499	1021	0	0	0	
11	0	0	0	0	556	504	1021	0	0	0	
12	0	0	0	0	561	508	1021	0	0	0	
13	0	0	0	0	564	511	1021	0	0	0	
14	0	0	0	0	566	513	1021	0	0	0	
15	0	0	0	0	567	514	1021	0	0	0	
0	0	0	0	0	567	513	1021	0	0	0	
1	0	0	0	0	565	513	1021	0	0	0	
2	0	0	0	0	563	511	1021	0	0	0	
3	0	0	0	0	560	509	1021	0	0	0	
4	0	0	0	0	557	507	1021	0	0	0	
5	0	0	0	0	554	504	1021	0	0	0	
6	0	0	0	0	551	502	1021	0	0	0	
7	0	0	0	0	549	500	1021	0	0	0	
8	0	0	0	0	546	498	1021	0	0	0	
9	0	0	0	0	544	496	1021	0	0	0	
10	0	0	0	0	543	495	1021	0	0	0	
11	0	0	0	0	541	493	1021	0	0	0	
12	0	0	0	0	539	491	1021	0	0	0	
13	0	0	0	0	537	489	1021	0	0	0	
14	0	0	0	0	535	487	1021	0	0	0	
15	0	0	0	0	532	484	1021	0	0	0	
0	0	0	0	0	529	483	1021	0	0	0	
1	0	0	0	0	527	480	1021	0	0	0	
2	0	0	0	0	526	479	1021	0	0	0	
3	0	0	0	0	524	478	1021	0	0	0	
4	0	0	0	0	524	478	1021	0	0	0	
5	0	0	0	0	524	479	1021	0	0	0	
6	0	0	0	0	526	481	1021	0	0	0	
7	0	0	0	0	529	484	1021	0	0	0	
8	0	0	0	0	533	488	1021	0	0	0	
9	0	0	0	0	540	493	1021	0	0	0	
10	0	0	0	0	545	498	1021	0	0	0	
11	0	0	0	0	552	504	1021	0	0	0	
12	0	0	0	0	558	508	1021	0	0	0	
13	0	0	0	0	563	512	1021	0	0	0	
14	0	0	0	0	567	514	1021	0	0	0	
15	0	0	0	0	568	515	1021	0	0	0	
0	0	0	0	0	568	514	1021	0	0	0	
1	0	0	0	0	566	512	1021	0	0	0	
2	0	0	0	0	562	510	1021	0	0	0	
3	0	0	0	0	558	506	1021	0	0	0	
4	0	0	0	0	553	502	1021	0	0	0	
5	0	0	0	0	548	499	1021	0	0	0	
6	0	0	0	0	543	495	1021	0	0	0	
7	0	0	0	0	537	492	1021	0	0	0	
8	0	0	0	0	533	488	1021	0	0	0	
9	0	0	0	0	530	486	1021	0	0	0	
10	0	0	0	0	527	484	1021	0	0	0	
11	0	0	0	0	526	483	1021	0	0	0	
12	0	0	0	0	527	483	1021	0	0	0	
13	0	0	0	0	528	484	1021	0	0	0	
14	0	0	0	0	531	485	1021	0	0	0	
15	0	0	0	0	535	488	1021	0	0	0	
0	0	0	0	0	540	491	1021	0	0	0	
1	0	0	0	0	544	494	1021	0	0	0	
2	0	0	0	0	550	497	1021	0	0	0	
3	0	0	0	0	554	499	1021	0	0	0	
4	0	0	0	0	557	502	1021	0	0	0	
5	0	0	0	0	559	503	1021	0	0	0	
6	0	0	0	0	559	502	1021	0	0	0	
7	0	0	0	0	557	501	1021	0	0	0	
8	0	0	0	0	553	499	1021	0	0	0	
9	0	0	0	0	549	496	1021	0	0	0	
10	0	0	0	0	544	493	1021	0	0	0	
11	0	0	0	0	538	489	1021	0	0	0	
12	0	0	0	0	534	486	1021	0	0	0	
13	0	0	0	0	529	483	1021	0	0	0	
14	0	0	0	0	526	481	1021	0	0	0	
15	0	0	0	0	523	479	1021	0	0	0	
0	0	0	0	0	521	477	1021	0	0	0	
1	0	0	0	0	521	476	1021	0	0	0	
2	0	0	0	0	522	475	1021	0	0	0	
3	0	0	0	0	523	476	1021	0	0	0	
4	0	0	0	0	526	477	1021	0	0	0	
5	0	0	0	0	530	480	1021	0	0	0	
6	0	0	0	0	535	484	1021	0	0	0	
7	0	0	0	0	541	489	1021	0	0	0	
8	0	0	0	0	547	494	1021	0	0	0	
9	0	0	0	0	554	500	1021	0	0	0	
10	0	0	0	0	560	506	1021	0	0	0	
11	0	0	0	0	566	512	1021	0	0	0	
12	0	0	0	0	572	518	1021	0	0	0	
13	0	0	0	0	576	523	1021	0	0	0	
14	0	0	0	0	580	527	1021	0	0	0	
15	0	0	0	0	582	529	1021	0	0	0	
0	0	0	0	0	582	530	1021	0	0	0	
1	0	0	0	0	578	528	1021	0	0	0	
2	0	0	0	0	573	524	1021	0	0	0	
3	0	0	0	0	566	518	1021	0	0	0	
4	0	0	0	0	557	510	1021	0	0	0	
5	0	0	0	0	549	503	1021	0	0	0	
6	0	0	0	0	541	496	1021	0	0	0	
7	0	0	0	0	535	491	1021	0	0	0	
8	0	0	0	0	531	487	1021	0	0	0	
9	0	0	0	0	529	486	1021	0	0	0	
10	0	0	0	0	529	486	1021	0	0	0	
11	0	0	0	0	532	487	1021	0	0	0	
12	0	0	0	0	536	491	1021	0	0	0	
13	0	0	0	0	540	494	1021	0	0	0	
14	0	0	0	0	545	498	1021	0	0	0	
15	0	0	0	0	550	502	1021	0	0	0	
0	0	0	0	0	553	504	1021	0	0	0	
1	0	0	0	0	556	506	1021	0	0	0	
2	0	0	0	0	558	507	1021	0	0	0	
3	0	0	0	0	559	508	1021	0	0	0	
4	0	0	0	0	558	507	1021	0	0	0	
5	0	0	0	0	556	505	1021	0	0	0	
6	0	0	0	0	553	503	1021	0	0	0	
7	0	0	0	0	550	499	1021	0	0	0	
8	0	0	0	0	547	497	1021	0	0	0	
9	0	0	0	0	544	495	1021	0	0	0	
10	0	0	0	0	542	493	1021	0	0	0	
11	0	0	0	0	540	492	1021	0	0	0	
12	0	0	0	0	540	491	1021	0	0	0	
13	0	0	0	0	540	491	1021	0	0	0	
14	0	0	0	0	541	492	1021	0	0	0	
15	0	0	0	0	543	494	1021	0	0	0	
0	0	0	0	0	547	497	1021	0	0	0	
1	0	0	0	0	552	501	1021	0	0	0	
2	0	0	0	0	557	506	1020	0	0	0	
3	0	0	0	0	563	512	1021	0	0	0	
4	0	0	0	0	569	516	1021	0	0	0	
5	0	0	0	0	575	521	1021	0	0	0	
6	0	0	0	0	577	523	1021	0	0	0	
7	0	0	0	0	578	524	1021	0	0	0	
8	0	0	0	0	576	521	1021	0	0	0	
9	0	0	0	0	571	517	1021	0	0	0	
10	0	0	0	0	564	511	1021	0	0	0	
11	0	0	0	0	555	504	1021	0	0	0	
12	0	0	0	0	545	496	1020	0	0	0	
13	0	0	0	0	535	487	1021	0	0	0	
14	0	0	0	0	526	480	1021	0	0	0	
15	0	0	0	0	518	474	1021	0	0	0	
0	0	0	0	0	512	469	1021	0	0	0	
1	0	0	0	0	508	467	1021	0	0	0	
2	0	0	0	0	508	466	1021	0	0	0	
3	0	0	0	0	511	468	1021	0	0	0	
4	0	0	0	0	518	474	1021	0	0	0	
5	0	0	0	0	527	481	1021	0	0	0	
6	0	0	0	0	538	491	1021	0	0	0	
7	0	0	0	0	550	500	1021	0	0	0	
8	0	0	0	0	563	510	1021	0	0	0	
9	0	0	0	0	573	519	1021	0	0	0	
10	0	0	0	0	580	524	1021	0	0	0	
11	0	0	0	0	583	526	1021	0	0	0	
12	0	0	0	0	582	525	1021	0	0	0	
13	0	0	0	0	577	520	1021	0	0	0	
14	0	0	0	0	569	513	1021	0	0	0	
15	0	0	0	0	557	504	1021	0	0	0	
0	0	0	0	0	542	492	1021	0	0	0	
1	0	0	0	0	527	481	1021	0	0	0	
2	0	0	0	0	513	470	1021	0	0	0	
3	0	0	0	0	502	462	1021	0	0	0	
4	0	0	0	0	492	455	1021	0	0	0	
5	0	0	0	0	487	451	1021	0	0	0	
6	0	0	0	0	485	450	1021	0	0	0	
7	0	0	0	0	488	453	1021	0	0	0	
8	0	0	0	0	494	457	1021	0	0	0	
9	0	0	0	0	503	464	1021	0	0	0	
10	0	0	0	0	513	472	1021	0	0	0	
11	0	0	0	0	524	479	1021	0	0	0	
12	0	0	0	0	535	486	1021	0	0	0	
13	0	0	0	0	543	492	1021	0	0	0	
14	0	0	0	0	551	497	1021	0	0	0	
15	0	0	0	0	556	500	1021	0	0	0	
0	0	0	0	0	559	502	1021	0	0	0	
1	0	0	0	0	561	504	1021	0	0	0	
2	0	0	0	0	562	505	1021	0	0	0	
3	0	0	0	0	562	505	1021	0	0	0	
4	0	0	0	0	561	506	1020	0	0	0	
5	0	0	0	0	559	506	1021	0	0	0	
6	0	0	0	0	558	506	1021	0	0	0	
7	0	0	0	0	556	505	1021	0	0	0	
8	0	0	0	0	554	504	1021	0	0	0	
9	0	0	0	0	551	503	1021	0	0	0	
10	0	0	0	0	549	501	1021	0	0	0	
11	0	0	0	0	546	498	1021	0	0	0	
12	0	0	0	0	543	495	1021	0	0	0	
13	0	0	0	0	539	491	1021	0	0	0	
14	0	0	0	0	534	487	1021	0	0	0	
15	0	0	0	0	530	482	1020	0	0	0	
0	0	0	0	0	526	478	1021	0	0	0	
1	0	0	0	0	522	473	1021	0	0	0	
2	0	0	0	0	519	470	1021	0	0	0	
3	0	0	0	0	517	468	1020	0	0	0	
4	0	0	0	0	516	466	1021	0	0	0	
5	0	0	0	0	517	466	1021	0	0	0	
6	0	0	0	0	519	467	1021	0	0	0	
7	0	0	0	0	523	470	1021	0	0	0	
8	0	0	0	0	527	473	1021	0	0	0	
9	0	0	0	0	533	478	1021	0	0	0	
10	0	0	0	0	539	483	1021	0	0	0	
11	0	0	0	0	544	487	1021	0	0	0	
12	0	0	0	0	549	492	1021	0	0	0	
13	0	0	0	0	553	496	1021	0	0	0	
14	0	0	0	0	556	500	1021	0	0	0	
15	0	0	0	0	559	503	1021	0	0	0	
0	0	0	0	0	560	506	1021	0	0	0	
1	0	0	0	0	561	507	1021	0	0	0	
2	0	0	0	0	560	508	1021	0	0	0	
3	0	0	0	0	559	508	1020	0	0	0	
4	0	0	0	0	557	506	1021	0	0	0	
5	0	0	0	0	553	504	1021	0	0	0	
6	0	0	0	0	550	502	1021	0	0	0	
7	0	0	0	0	546	499	1021	0	0	0	
8	0	0	0	0	543	496	1021	0	0	0	
9	0	0	0	0	539	492	1021	0	0	0	
10	0	0	0	0	536	490	1021	0	0	0	
11	0	0	0	0	534	487	1021	0	0	0	
12	0	0	0	0	532	485	1021	0	0	0	
13	0	0	0	0	531	483	1021	0	0	0	
14	0	0	0	0	530	481	1021	0	0	0	
15	0	0	0	0	529	480	1021	0	0	0	
0	0	0	0	0	529	478	1021	0	0	0	
1	0	0	0	0	528	477	1021	0	0	0	
2	0	0	0	0	527	476	1020	0	0	0	
3	0	0	0	0	527	475	1021	0	0	0	
4	0	0	0	0	527	475	1021	0	0	0	
5	0	0	0	0	527	476	1021	0	0	0	
6	0	0	0	0	528	477	1021	0	0	0	
7	0	0	0	0	531	480	1021	0	0	0	
8	0	0	0	0	532	482	1021	0	0	0	
9	0	0	0	0	536	486	1021	0	0	0	
10	0	0	0	0	540	490	1021	0	0	0	
11	0	0	0	0	544	495	1021	0	0	0	
12	0	0	0	0	549	500	1021	0	0	0	
13	0	0	0	0	555	505	1021	0	0	0	
14	0	0	0	0	560	509	1021	0	0	0	
15	0	0	0	0	565	513	1021	0	0	0	
0	0	0	0	0	569	516	1021	0	0	0	
1	0	0	0	0	571	519	1021	0	0	0	
2	0	0	0	0	573	519	1021	0	0	0	
3	0	0	0	0	573	519	1021	0	0	0	
4	0	0	0	0	571	517	1021	0	0	0	
5	0	0	0	0	568	514	1021	0	0	0	
6	0	0	0	0	562	509	1020	0	0	0	
7	0	0	0	0	555	502	1021	0	0	0	
8	0	0	0	0	545	494	1021	0	0	0	
9	0	0	0	0	533	483	1021	0	0	0	
10	0	0	0	0	519	471	1020	0	0	0	
11	0	0	0	0	505	458	1020	0	0	0	
12	0	0	0	0	492	446	1021	0	0	0	
13	0	0	0	0	479	435	1021	0	0	0	
14	0	0	0	0	470	426	1021	0	0	0	
15	0	0	0	0	463	420	1021	0	0	0	
0	0	0	0	0	460	417	1021	0	0	0	
1	0	0	0	0	463	419	1021	0	0	0	
2	0	0	0	0	469	424	1021	0	0	0	
3	0	0	0	0	480	432	1021	0	0	0	
4	0	0	0	0	494	443	1021	0	0	0	
5	0	0	0	0	509	456	1021	0	0	0	
6	0	0	0	0	526	470	1021	0	0	0	
7	0	0	0	0	542	483	1021	0	0	0	
8	0	0	0	0	557	495	1021	0	0	0	
9	0	0	0	0	568	504	1021	0	0	0	
10	0	0	0	0	575	511	1021	0	0	0	
11	0	0	0	0	578	515	1021	0	0	0	
12	0	0	0	0	577	515	1021	0	0	0	
13	0	0	0	0	572	513	1021	0	0	0	
14	0	0	0	0	566	510	1021	0	0	0	
15	0	0	0	0	557	505	1020	0	0	0	
0	0	0	0	0	548	499	1021	0	0	0	
1	0	0	0	0	540	493	1021	0	0	0	
2	0	0	0	0	531	487	1021	0	0	0	
3	0	0	0	0	524	482	1021	0	0	0	
4	0	0	0	0	519	478	1021	0	0	0	
5	0	0	0	0	516	476	1021	0	0	0	
6	0	0	0	0	515	474	1021	0	0	0	
7	0	0	0	0	517	474	1021	0	0	0	
8	0	0	0	0	519	474	1021	0	0	0	
9	0	0	0	0	523	476	1021	0	0	0	
10	0	0	0	0	527	478	1021	0	0	0	
11	0	0	0	0	533	481	1021	0	0	0	
12	0	0	0	0	538	485	1021	0	0	0	
13	0	0	0	0	543	488	1021	0	0	0	
14	0	0	0	0	546	492	1020	0	0	0	
15	0	0	0	0	550	494	1021	0	0	0	
0	0	0	0	0	551	496	1021	0	0	0	
1	0	0	0	0	551	496	1021	0	0	0	
2	0	0	0	0	548	495	1021	0	0	0	
3	0	0	0	0	544	492	1021	0	0	0	
4	0	0	0	0	540	488	1021	0	0	0	
5	0	0	0	0	533	484	1021	0	0	0	
6	0	0	0	0	526	479	1021	0	0	0	
7	0	0	0	0	519	473	1021	0	0	0	
8	0	0	0	0	513	469	1020	0	0	0	
9	0	0	0	0	508	465	1021	0	0	0	
10	0	0	0	0	504	462	1021	0	0	0	
11	0	0	0	0	502	460	1021	0	0	0	
12	0	0	0	0	502	459	1021	0	0	0	
13	0	0	0	0	504	460	1021	0	0	0	
14	0	0	0	0	508	462	1021	0	0	0	
15	0	0	0	0	513	466	1021	0	0	0	
0	0	0	0	0	520	471	1021	0	0	0	
1	0	0	0	0	528	478	1020	0	0	0	
2	0	0	0	0	538	485	1020	0	0	0	
3	0	0	0	0	548	493	1021	0	0	0	
4	0	0	0	0	557	500	1021	0	0	0	
5	0	0	0	0	565	507	1021	0	0	0	
6	0	0	0	0	571	512	1021	0	0	0	
7	0	0	0	0	574	515	1021	0	0	0	
8	0	0	0	0	574	515	1021	0	0	0	
9	0	0	0	0	570	512	1021	0	0	0	
10	0	0	0	0	563	507	1021	0	0	0	
11	0	0	0	0	553	499	1021	0	0	0	
12	0	0	0	0	542	490	1021	0	0	0	
13	0	0	0	0	529	480	1021	0	0	0	
14	0	0	0	0	518	472	1021	0	0	0	
15	0	0	0	0	508	464	1021	0	0	0	
0	0	0	0	0	501	460	1021	0	0	0	
1	0	0	0	0	498	457	1021	0	0	0	
2	0	0	0	0	498	457	1021	0	0	0	
3	0	0	0	0	502	460	1021	0	0	0	
4	0	0	0	0	508	464	1021	0	0	0	
5	0	0	0	0	516	470	1021	0	0	0	
6	0	0	0	0	524	475	1021	0	0	0	
7	0	0	0	0	533	481	1021	0	0	0	
8	0	0	0	0	541	487	1021	0	0	0	
9	0	0	0	0	548	491	1021	0	0	0	
10	0	0	0	0	552	494	1021	0	0	0	
11	0	0	0	0	556	496	1021	0	0	0	
12	0	0	0	0	558	497	1021	0	0	0	
13	0	0	0	0	558	497	1021	0	0	0	
14	0	0	0	0	556	497	1021	0	0	0	
15	0	0	0	0	553	497	1021	0	0	0	
0	0	0	0	0	551	496	1021	0	0	0	
1	0	0	0	0	548	495	1021	0	0	0	
2	0	0	0	0	544	494	1021	0	0	0	
3	0	0	0	0	541	492	1021	0	0	0	
4	0	0	0	0	537	489	1021	0	0	0	
5	0	0	0	0	533	486	1021	0	0	0	
6	0	0	0	0	528	481	1021	0	0	0	
7	0	0	0	0	524	478	1021	0	0	0	
8	0	0	0	0	519	473	1021	0	0	0	
9	0	0	0	0	515	470	1021	0	0	0	
10	0	0	0	0	513	467	1021	0	0	0	
11	0	0	0	0	511	465	1021	0	0	0	
12	0	0	0	0	511	465	1021	0	0	0	
13	0	0	0	0	513	466	1021	0	0	0	
14	0	0	0	0	515	468	1021	0	0	0	
15	0	0	0	0	519	472	1021	0	0	0	
0	0	0	0	0	524	476	1021	0	0	0	
1	0	0	0	0	530	481	1021	0	0	0	
2	0	0	0	0	536	486	1021	0	0	0	
3	0	0	0	0	543	491	1021	0	0	0	
4	0	0	0	0	548	496	1021	0	0	0	
5	0	0	0	0	554	501	1021	0	0	0	
6	0	0	0	0	558	504	1021	0	0	0	
7	0	0	0	0	560	507	1021	0	0	0	
8	0	0	0	0	561	507	1021	0	0	0	
9	0	0	0	0	560	506	1021	0	0	0	
10	0	0	0	0	556	504	1021	0	0	0	
11	0	0	0	0	551	500	1021	0	0	0	
12	0	0	0	0	544	495	1021	0	0	0	
13	0	0	0	0	536	488	1020	0	0	0	
14	0	0	0	0	527	481	1020	0	0	0	
15	0	0	0	0	519	474	1021	0	0	0	
0	0	0	0	0	512	467	1021	0	0	0	
1	0	0	0	0	506	462	1021	0	0	0	
2	0	0	0	0	502	458	1021	0	0	0	
3	0	0	0	0	500	456	1021	0	0	0	
4	0	0	0	0	500	455	1021	0	0	0	
5	0	0	0	0	502	455	1021	0	0	0	
6	0	0	0	0	506	457	1021	0	0	0	
7	0	0	0	0	511	460	1020	0	0	0	
8	0	0	0	0	515	464	1021	0	0	0	
9	0	0	0	0	521	467	1021	0	0	0	
10	0	0	0	0	527	471	1021	0	0	0	
11	0	0	0	0	531	474	1021	0	0	0	
12	0	0	0	0	534	476	1021	0	0	0	
13	0	0	0	0	536	478	1021	0	0	0	
14	0	0	0	0	536	478	1021	0	0	0	
15	0	0	0	0	535	477	1021	0	0	0	
0	0	0	0	0	534	476	1021	0	0	0	
1	0	0	0	0	531	476	1021	0	0	0	
2	0	0	0	0	530	476	1021	0	0	0	
3	0	0	0	0	529	476	1021	0	0	0	
4	0	0	0	0	529	477	1021	0	0	0	
5	0	0	0	0	529	479	1021	0	0	0	
6	0	0	0	0	530	480	1021	0	0	0	
7	0	0	0	0	531	483	1021	0	0	0	
8	0	0	0	0	532	484	1021	0	0	0	
9	0	0	0	0	534	486	1021	0	0	0	
10	0	0	0	0	535	487	1021	0	0	0	
11	0	0	0	0	536	489	1021	0	0	0	
12	0	0	0	0	537	490	1021	0	0	0	
13	0	0	0	0	539	492	1021	0	0	0	
14	0	0	0	0	541	494	1021	0	0	0	
15	0	0	0	0	544	496	1021	0	0	0	
0	0	0	0	0	548	499	1021	0	0	0	
1	0	0	0	0	554	503	1021	0	0	0	
2	0	0	0	0	559	507	1021	0	0	0	
3	0	0	0	0	566	512	1021	0	0	0	
4	0	0	0	0	571	516	1021	0	0	0	
5	0	0	0	0	575	519	1021	0	0	0	
6	0	0	0	0	579	522	1021	0	0	0	
7	0	0	0	0	579	523	1021	0	0	0	
8	0	0	0	0	577	521	1021	0	0	0	
9	0	0	0	0	572	518	1021	0	0	0	
10	0	0	0	0	565	512	1021	0	0	0	
11	0	0	0	0	556	504	1021	0	0	0	
12	0	0	0	0	544	496	1021	0	0	0	
13	0	0	0	0	532	486	1021	0	0	0	
14	0	0	0	0	521	477	1021	0	0	0	
15	0	0	0	0	510	467	1021	0	0	0	
0	0	0	0	0	500	459	1021	0	0	0	
1	0	0	0	0	493	452	1021	0	0	0	
2	0	0	0	0	488	447	1021	0	0	0	
3	0	0	0	0	486	444	1021	0	0	0	
4	0	0	0	0	486	443	1021	0	0	0	
5	0	0	0	0	488	444	1021	0	0	0	
6	0	0	0	0	493	446	1021	0	0	0	
7	0	0	0	0	499	449	1021	0	0	0	
8	0	0	0	0	505	454	1021	0	0	0	
9	0	0	0	0	512	459	1021	0	0	0	
10	0	0	0	0	519	464	1021	0	0	0	
11	0	0	0	0	527	470	1021	0	0	0	
12	0	0	0	0	535	476	1021	0	0	0	
13	0	0	0	0	541	482	1021	0	0	0	
14	0	0	0	0	546	487	1021	0	0	0	
15	0	0	0	0	551	492	1021	0	0	0	
0	0	0	0	0	555	496	1021	0	0	0	
1	0	0	0	0	558	499	1021	0	0	0	
2	0	0	0	0	559	502	1021	0	0	0	
3	0	0	0	0	560	504	1020	0	0	0	
4	0	0	0	0	560	505	1021	0	0	0	
5	0	0	0	0	559	505	1021	0	0	0	
6	0	0	0	0	558	505	1021	0	0	0	
7	0	0	0	0	555	504	1021	0	0	0	
8	0	0	0	0	550	500	1021	0	0	0	
9	0	0	0	0	545	496	1021	0	0	0	
10	0	0	0	0	538	489	1021	0	0	0	
11	0	0	0	0	531	483	1021	0	0	0	
12	0	0	0	0	523	476	1021	0	0	0	
13	0	0	0	0	515	469	1021	0	0	0	
14	0	0	0	0	509	464	1021	0	0	0	
15	0	0	0	0	505	461	1021	0	0	0	
0	0	0	0	0	504	459	1021	0	0	0	
1	0	0	0	0	504	460	1021	0	0	0	
2	0	0	0	0	505	461	1020	0	0	0	
3	0	0	0	0	509	464	1021	0	0	0	
4	0	0	0	0	513	467	1021	0	0	0	
5	0	0	0	0	517	470	1021	0	0	0	
6	0	0	0	0	521	472	1021	0	0	0	
7	0	0	0	0	523	472	1020	0	0	0	
8	0	0	0	0	523	471	1021	0	0	0	
9	0	0	0	0	521	468	1021	0	0	0	
10	0	0	0	0	516	463	1021	0	0	0	
11	0	0	0	0	508	455	1021	0	0	0	
12	0	0	0	0	498	446	1021	0	0	0	
13	0	0	0	0	487	435	1021	0	0	0	
14	0	0	0	0	474	424	1021	0	0	0	
15	0	0	0	0	461	413	1021	0	0	0	
0	0	0	0	0	449	403	1021	0	0	0	
1	0	0	0	0	437	392	1021	0	0	0	
2	0	0	0	0	426	383	1021	0	0	0	
3	0	0	0	0	415	373	1021	0	0	0	
4	0	0	0	0	406	364	1021	0	0	0	
5	0	0	0	0	396	355	1021	0	0	0	
6	0	0	0	0	385	345	1020	0	0	0	
7	0	0	0	0	374	335	1020	0	0	0	
8	0	0	0	0	363	323	1021	0	0	0	
9	0	0	0	0	351	311	1021	0	0	0	
10	0	0	0	0	338	296	1021	0	0	0	
11	0	0	0	0	323	282	1021	0	0	0	
12	0	0	0	0	309	267	1020	0	0	0	
13	0	0	0	0	295	252	1021	0	0	0	
14	0	0	0	0	283	239	1021	0	0	0	
15	0	0	0	0	273	229	1021	0	0	0	
0	0	0	0	0	268	222	1021	0	0	0	
1	0	0	0	0	265	219	1020	0	0	0	
2	0	0	0	0	269	220	1021	0	0	0	
3	0	0	0	0	279	227	1021	0	0	0	
4	0	0	0	0	294	240	1021	0	0	0	
5	0	0	0	0	315	258	1020	0	0	0	
6	0	0	0	0	340	280	1020	0	0	0	
7	0	0	0	0	370	306	1021	0	0	0	
8	0	0	0	0	403	335	1021	0	0	0	
9	0	0	0	0	438	367	1021	0	0	0	
10	0	0	0	0	472	399	1021	0	0	0	
11	0	0	0	0	505	429	1020	0	0	0	
12	0	0	0	0	536	457	1021	0	0	0	
13	0	0	0	0	561	483	1021	0	0	0	
14	0	0	0	0	581	503	1021	0	0	0	
15	0	0	0	0	595	518	1021	0	0	0	
0	0	0	0	0	602	527	1021	0	0	0	
1	0	0	0	0	603	531	1021	0	0	0	
2	0	0	0	0	599	530	1021	0	0	0	
3	0	0	0	0	590	526	1021	0	0	0	
4	0	0	0	0	578	518	1021	0	0	0	
5	0	0	0	0	564	509	1021	0	0	0	
6	0	0	0	0	549	499	1021	0	0	0	
7	0	0	0	0	536	490	1021	0	0	0	
8	0	0	0	0	524	481	1021	0	0	0	
9	0	0	0	0	514	474	1020	0	0	0	
10	0	0	0	0	508	470	1020	0	0	0	
11	0	0	0	0	506	468	1021	0	0	0	
12	0	0	0	0	507	469	1021	0	0	0	
13	0	0	0	0	512	473	1021	0	0	0	
14	0	0	0	0	520	479	1021	0	0	0	
15	0	0	0	0	530	487	1021	0	0	0	
0	0	0	0	0	542	496	1021	0	0	0	
1	0	0	0	0	554	505	1021	0	0	0	
2	0	0	0	0	564	513	1021	0	0	0	
3	0	0	0	0	574	520	1021	0	0	0	
4	0	0	0	0	582	526	1021	0	0	0	
5	0	0	0	0	586	530	1021	0	0	0	
6	0	0	0	0	588	531	1021	0	0	0	
7	0	0	0	0	586	530	1021	0	0	0	
8	0	0	0	0	582	527	1020	0	0	0	
9	0	0	0	0	575	523	1021	0	0	0	
10	0	0	0	0	568	517	1021	0	0	0	
11	0	0	0	0	559	511	1021	0	0	0	
12	0	0	0	0	551	505	1021	0	0	0	
13	0	0	0	0	543	499	1021	0	0	0	
14	0	0	0	0	537	495	1021	0	0	0	
15	0	0	0	0	533	493	1021	0	0	0	
0	0	0	0	0	531	491	1021	0	0	0	
1	0	0	0	0	531	491	1021	0	0	0	
2	0	0	0	0	532	492	1021	0	0	0	
3	0	0	0	0	536	493	1021	0	0	0	
4	0	0	0	0	539	495	1021	0	0	0	
5	0	0	0	0	543	497	1021	0	0	0	
6	0	0	0	0	547	499	1021	0	0	0	
7	0	0	0	0	550	500	1021	0	0	0	
8	0	0	0	0	552	501	1021	0	0	0	
9	0	0	0	0	553	500	1021	0	0	0	
10	0	0	0	0	553	499	1021	0	0	0	
11	0	0	0	0	550	496	1021	0	0	0	
12	0	0	0	0	547	492	1021	0	0	0	
13	0	0	0	0	541	488	1021	0	0	0	
14	0	0	0	0	537	485	1021	0	0	0	
15	0	0	0	0	532	482	1021	0	0	0	
0	0	0	0	0	529	481	1021	0	0	0	
1	0	0	0	0	528	482	1021	0	0	0	
2	0	0	0	0	528	484	1021	0	0	0	
3	0	0	0	0	532	488	1021	0	0	0	
4	0	0	0	0	537	494	1021	0	0	0	
5	0	0	0	0	543	500	1021	0	0	0	
6	0	0	0	0	551	508	1021	0	0	0	
7	0	0	0	0	560	517	1020	0	0	0	
8	0	0	0	0	571	526	1021	0	0	0	
9	0	0	0	0	580	534	1021	0	0	0	
10	0	0	0	0	589	541	1021	0	0	0	
11	0	0	0	0	596	547	1021	0	0	0	
12	0	0	0	0	600	551	1021	0	0	0	
13	0	0	0	0	603	552	1021	0	0	0	
14	0	0	0	0	602	550	1021	0	0	0	
15	0	0	0	0	597	545	1021	0	0	0	
0	0	0	0	0	588	537	1021	0	0	0	
1	0	0	0	0	577	527	1021	0	0	0	
2	0	0	0	0	564	515	1021	0	0	0	
3	0	0	0	0	549	502	1021	0	0	0	
4	0	0	0	0	534	489	1021	0	0	0	
5	0	0	0	0	519	477	1021	0	0	0	
6	0	0	0	0	507	466	1021	0	0	0	
7	0	0	0	0	497	458	1021	0	0	0	
8	0	0	0	0	491	453	1021	0	0	0	
9	0	0	0	0	488	451	1021	0	0	0	
10	0	0	0	0	489	451	1021	0	0	0	
11	0	0	0	0	492	454	1020	0	0	0	
12	0	0	0	0	498	458	1021	0	0	0	
13	0	0	0	0	506	464	1021	0	0	0	
14	0	0	0	0	515	470	1021	0	0	0	
15	0	0	0	0	524	477	1021	0	0	0	
0	0	0	0	0	533	484	1021	0	0	0	
1	0	0	0	0	541	489	1021	0	0	0	
2	0	0	0	0	548	495	1021	0	0	0	
3	0	0	0	0	552	498	1021	0	0	0	
4	0	0	0	0	555	500	1021	0	0	0	
5	0	0	0	0	556	501	1021	0	0	0	
6	0	0	0	0	556	502	1021	0	0	0	
7	0	0	0	0	554	501	1021	0	0	0	
8	0	0	0	0	551	500	1021	0	0	0	
9	0	0	0	0	548	500	1021	0	0	0	
10	0	0	0	0	545	499	1020	0	0	0	
11	0	0	0	0	543	498	1021	0	0	0	
12	0	0	0	0	540	497	1021	0	0	0	
13	0	0	0	0	538	496	1021	0	0	0	
14	0	0	0	0	536	495	1020	0	0	0	
15	0	0	0	0	536	495	1021	0	0	0	
0	0	0	0	0	535	494	1021	0	0	0	
1	0	0	0	0	536	494	1021	0	0	0	
2	0	0	0	0	537	495	1021	0	0	0	
3	0	0	0	0	539	495	1021	0	0	0	
4	0	0	0	0	540	496	1020	0	0	0	
5	0	0	0	0	542	496	1021	0	0	0	
6	0	0	0	0	543	496	1021	0	0	0	
7	0	0	0	0	543	495	1021	0	0	0	
8	0	0	0	0	543	494	1021	0	0	0	
9	0	0	0	0	542	493	1020	0	0	0	
10	0	0	0	0	541	491	1021	0	0	0	
11	0	0	0	0	540	490	1021	0	0	0	
12	0	0	0	0	538	488	1021	0	0	0	
13	0	0	0	0	536	487	1021	0	0	0	
14	0	0	0	0	534	486	1020	0	0	0	
15	0	0	0	0	534	485	1021	0	0	0	
0	0	0	0	0	533	485	1021	0	0	0	
1	0	0	0	0	533	485	1021	0	0	0	
2	0	0	0	0	532	486	1020	0	0	0	
3	0	0	0	0	532	486	1020	0	0	0	
4	0	0	0	0	532	486	1021	0	0	0	
5	0	0	0	0	531	485	1021	0	0	0	
6	0	0	0	0	531	485	1021	0	0	0	
7	0	0	0	0	530	485	1021	0	0	0	
8	0	0	0	0	531	486	1021	0	0	0	
9	0	0	0	0	533	488	1021	0	0	0	
10	0	0	0	0	536	492	1021	0	0	0	
11	0	0	0	0	541	496	1021	0	0	0	
12	0	0	0	0	547	502	1021	0	0	0	
13	0	0	0	0	554	508	1021	0	0	0	
14	0	0	0	0	560	514	1021	0	0	0	
15	0	0	0	0	566	519	1021	0	0	0	
0	0	0	0	0	569	522	1021	0	0	0	
1	0	0	0	0	570	522	1021	0	0	0	
2	0	0	0	0	569	520	1021	0	0	0	
3	0	0	0	0	565	516	1021	0	0	0	
4	0	0	0	0	560	512	1021	0	0	0	
5	0	0	0	0	553	505	1021	0	0	0	
6	0	0	0	0	545	500	1021	0	0	0	
7	0	0	0	0	539	495	1020	0	0	0	
8	0	0	0	0	532	489	1021	0	0	0	
9	0	0	0	0	526	485	1021	0	0	0	
10	0	0	0	0	521	481	1021	0	0	0	
11	0	0	0	0	518	478	1021	0	0	0	
12	0	0	0	0	516	476	1021	0	0	0	
13	0	0	0	0	515	475	1021	0	0	0	
14	0	0	0	0	515	474	1021	0	0	0	
15	0	0	0	0	515	474	1021	0	0	0	
0	0	0	0	0	516	474	1021	0	0	0	
1	0	0	0	0	518	474	1020	0	0	0	
2	0	0	0	0	519	474	1021	0	0	0	
3	0	0	0	0	521	474	1021	0	0	0	
4	0	0	0	0	523	474	1021	0	0	0	
5	0	0	0	0	525	475	1021	0	0	0	
6	0	0	0	0	526	476	1020	0	0	0	
7	0	0	0	0	529	478	1021	0	0	0	
8	0	0	0	0	532	480	1021	0	0	0	
9	0	0	0	0	535	483	1021	0	0	0	
10	0	0	0	0	539	487	1021	0	0	0	
11	0	0	0	0	542	491	1021	0	0	0	
12	0	0	0	0	546	495	1021	0	0	0	
13	0	0	0	0	550	499	1021	0	0	0	
14	0	0	0	0	553	503	1021	0	0	0	
15	0	0	0	0	555	505	1021	0	0	0	
0	0	0	0	0	557	507	1020	0	0	0	
1	0	0	0	0	558	508	1021	0	0	0	
2	0	0	0	0	557	507	1021	0	0	0	
3	0	0	0	0	555	505	1021	0	0	0	
4	0	0	0	0	551	501	1020	0	0	0	
5	0	0	0	0	546	496	1021	0	0	0	
6	0	0	0	0	540	491	1021	0	0	0	
7	0	0	0	0	534	486	1021	0	0	0	
8	0	0	0	0	527	480	1021	0	0	0	
9	0	0	0	0	520	474	1021	0	0	0	
10	0	0	0	0	515	470	1020	0	0	0	
11	0	0	0	0	511	467	1021	0	0	0	
12	0	0	0	0	508	465	1021	0	0	0	
13	0	0	0	0	507	465	1021	0	0	0	
14	0	0	0	0	508	467	1021	0	0	0	
15	0	0	0	0	512	471	1021	0	0	0	
0	0	0	0	0	518	476	1021	0	0	0	
1	0	0	0	0	526	482	1021	0	0	0	
2	0	0	0	0	534	489	1021	0	0	0	
3	0	0	0	0	543	496	1021	0	0	0	
4	0	0	0	0	553	504	1021	0	0	0	
5	0	0	0	0	562	511	1021	0	0	0	
6	0	0	0	0	571	518	1021	0	0	0	
7	0	0	0	0	578	524	1021	0	0	0	
8	0	0	0	0	584	530	1021	0	0	0	
9	0	0	0	0	589	534	1021	0	0	0	
10	0	0	0	0	591	536	1021	0	0	0	
11	0	0	0	0	591	537	1021	0	0	0	
12	0	0	0	0	588	536	1021	0	0	0	
13	0	0	0	0	584	533	1021	0	0	0	
14	0	0	0	0	578	529	1021	0	0	0	
15	0	0	0	0	572	524	1021	0	0	0	
0	0	0	0	0	565	519	1021	0	0	0	
1	0	0	0	0	557	514	1021	0	0	0	
2	0	0	0	0	550	508	1021	0	0	0	
3	0	0	0	0	542	501	1021	0	0	0	
4	0	0	0	0	534	495	1021	0	0	0	
5	0	0	0	0	526	487	1021	0	0	0	
6	0	0	0	0	519	480	1021	0	0	0	
7	0	0	0	0	510	472	1021	0	0	0	
8	0	0	0	0	502	464	1021	0	0	0	
9	0	0	0	0	495	456	1021	0	0	0	
10	0	0	0	0	488	450	1021	0	0	0	
11	0	0	0	0	483	444	1021	0	0	0	
12	0	0	0	0	480	441	1021	0	0	0	
13	0	0	0	0	480	440	1021	0	0	0	
14	0	0	0	0	482	441	1021	0	0	0	
15	0	0	0	0	486	444	1021	0	0	0	
0	0	0	0	0	492	448	1021	0	0	0	
1	0	0	0	0	500	455	1021	0	0	0	
2	0	0	0	0	509	462	1021	0	0	0	
3	0	0	0	0	519	471	1021	0	0	0	
4	0	0	0	0	531	481	1021	0	0	0	
5	0	0	0	0	543	491	1021	0	0	0	
6	0	0	0	0	556	502	1021	0	0	0	
7	0	0	0	0	567	512	1021	0	0	0	
8	0	0	0	0	578	522	1021	0	0	0	
9	0	0	0	0	587	530	1021	0	0	0	
10	0	0	0	0	594	537	1021	0	0	0	
11	0	0	0	0	599	541	1021	0	0	0	
12	0	0	0	0	599	543	1021	0	0	0	
13	0	0	0	0	596	541	1021	0	0	0	
14	0	0	0	0	591	537	1021	0	0	0	
15	0	0	0	0	582	530	1021	0	0	0	
0	0	0	0	0	572	523	1021	0	0	0	
1	0	0	0	0	561	514	1021	0	0	0	
2	0	0	0	0	550	505	1021	0	0	0	
3	0	0	0	0	539	497	1021	0	0	0	
4	0	0	0	0	528	488	1021	0	0	0	
5	0	0	0	0	519	481	1021	0	0	0	
6	0	0	0	0	511	474	1020	0	0	0	
7	0	0	0	0	505	468	1021	0	0	0	
8	0	0	0	0	500	464	1021	0	0	0	
9	0	0	0	0	498	461	1021	0	0	0	
10	0	0	0	0	496	459	1021	0	0	0	
11	0	0	0	0	497	458	1021	0	0	0	
12	0	0	0	0	499	458	1021	0	0	0	
13	0	0	0	0	501	459	1021	0	0	0	
14	0	0	0	0	504	461	1021	0	0	0	
15	0	0	0	0	508	463	1020	0	0	0	
0	0	0	0	0	511	465	1020	0	0	0	
1	0	0	0	0	515	467	1021	0	0	0	
2	0	0	0	0	519	470	1021	0	0	0	
3	0	0	0	0	522	472	1021	0	0	0	
4	0	0	0	0	524	473	1021	0	0	0	
5	0	0	0	0	526	475	1021	0	0	0	
6	0	0	0	0	527	475	1021	0	0	0	
7	0	0	0	0	527	475	1021	0	0	0	
8	0	0	0	0	527	475	1021	0	0	0	
9	0	0	0	0	526	474	1021	0	0	0	
10	0	0	0	0	524	474	1021	0	0	0	
11	0	0	0	0	524	474	1021	0	0	0	
12	0	0	0	0	523	474	1021	0	0	0	
13	0	0	0	0	523	475	1021	0	0	0	
14	0	0	0	0	524	476	1021	0	0	0	
15	0	0	0	0	526	479	1021	0	0	0	
0	0	0	0	0	527	481	1021	0	0	0	
1	0	0	0	0	530	483	1021	0	0	0	
2	0	0	0	0	532	486	1021	0	0	0	
3	0	0	0	0	534	488	1021	0	0	0	
4	0	0	0	0	536	490	1021	0	0	0	
5	0	0	0	0	539	492	1021	0	0	0	
6	0	0	0	0	542	496	1021	0	0	0	
7	0	0	0	0	545	499	1021	0	0	0	
8	0	0	0	0	548	503	1021	0	0	0	
9	0	0	0	0	551	505	1021	0	0	0	
10	0	0	0	0	553	507	1021	0	0	0	
11	0	0	0	0	553	507	1021	0	0	0	
12	0	0	0	0	551	504	1021	0	0	0	
13	0	0	0	0	546	500	1021	0	0	0	
14	0	0	0	0	540	494	1021	0	0	0	
15	0	0	0	0	531	487	1021	0	0	0	
0	0	0	0	0	521	478	1021	0	0	0	
1	0	0	0	0	511	469	1021	0	0	0	
2	0	0	0	0	502	460	1021	0	0	0	
3	0	0	0	0	494	454	1021	0	0	0	
4	0	0	0	0	489	449	1021	0	0	0	
5	0	0	0	0	487	448	1021	0	0	0	
6	0	0	0	0	490	451	1021	0	0	0	
7	0	0	0	0	496	456	1021	0	0	0	
8	0	0	0	0	505	465	1021	0	0	0	
9	0	0	0	0	517	475	1021	0	0	0	
10	0	0	0	0	530	486	1021	0	0	0	
11	0	0	0	0	543	495	1021	0	0	0	
12	0	0	0	0	553	504	1021	0	0	0	
13	0	0	0	0	562	510	1021	0	0	0	
14	0	0	0	0	568	515	1021	0	0	0	
15	0	0	0	0	572	518	1021	0	0	0	
0	0	0	0	0	575	519	1021	0	0	0	
1	0	0	0	0	575	519	1020	0	0	0	
2	0	0	0	0	574	519	1021	0	0	0	
3	0	0	0	0	571	516	1021	0	0	0	
4	0	0	0	0	567	514	1021	0	0	0	
5	0	0	0	0	561	510	1021	0	0	0	
6	0	0	0	0	555	505	1021	0	0	0	
7	0	0	0	0	547	499	1021	0	0	0	
8	0	0	0	0	539	493	1021	0	0	0	
9	0	0	0	0	530	486	1021	0	0	0	
10	0	0	0	0	522	479	1021	0	0	0	
11	0	0	0	0	514	473	1021	0	0	0	
12	0	0	0	0	508	467	1021	0	0	0	
13	0	0	0	0	503	463	1021	0	0	0	
14	0	0	0	0	500	459	1021	0	0	0	
15	0	0	0	0	499	457	1021	0	0	0	
0	0	0	0	0	499	457	1021	0	0	0	
1	0	0	0	0	502	459	1021	0	0	0	
2	0	0	0	0	506	461	1021	0	0	0	
3	0	0	0	0	512	465	1021	0	0	0	
4	0	0	0	0	518	470	1021	0	0	0	
5	0	0	0	0	523	474	1021	0	0	0	
6	0	0	0	0	527	478	1021	0	0	0	
7	0	0	0	0	531	481	1021	0	0	0	
8	0	0	0	0	535	484	1021	0	0	0	
9	0	0	0	0	536	485	1021	0	0	0	
10	0	0	0	0	537	487	1021	0	0	0	
11	0	0	0	0	536	487	1021	0	0	0	
12	0	0	0	0	535	486	1021	0	0	0	
13	0	0	0	0	532	485	1021	0	0	0	
14	0	0	0	0	528	481	1021	0	0	0	
15	0	0	0	0	523	478	1020	0	0	0	
0	0	0	0	0	518	473	1021	0	0	0	
1	0	0	0	0	512	469	1021	0	0	0	
2	0	0	0	0	507	465	1021	0	0	0	
3	0	0	0	0	504	462	1021	0	0	0	
4	0	0	0	0	501	460	1021	0	0	0	
5	0	0	0	0	500	459	1020	0	0	0	
6	0	0	0	0	503	460	1021	0	0	0	
7	0	0	0	0	506	463	1021	0	0	0	
8	0	0	0	0	511	466	1021	0	0	0	
9	0	0	0	0	517	471	1020	0	0	0	
10	0	0	0	0	524	476	1020	0	0	0	
11	0	0	0	0	532	481	1021	0	0	0	
12	0	0	0	0	539	487	1021	0	0	0	
13	0	0	0	0	545	491	1021	0	0	0	
14	0	0	0	0	550	494	1021	0	0	0	
15	0	0	0	0	552	496	1021	0	0	0	
0	0	0	0	0	553	496	1021	0	0	0	
1	0	0	0	0	552	495	1021	0	0	0	
2	0	0	0	0	549	492	1021	0	0	0	
3	0	0	0	0	545	489	1021	0	0	0	
4	0	0	0	0	540	485	1021	0	0	0	
5	0	0	0	0	534	480	1021	0	0	0	
6	0	0	0	0	529	477	1021	0	0	0	
7	0	0	0	0	524	474	1021	0	0	0	
8	0	0	0	0	521	472	1021	0	0	0	
9	0	0	0	0	520	472	1021	0	0	0	
10	0	0	0	0	521	473	1021	0	0	0	
11	0	0	0	0	525	477	1021	0	0	0	
12	0	0	0	0	529	481	1021	0	0	0	
13	0	0	0	0	535	486	1021	0	0	0	
14	0	0	0	0	542	492	1021	0	0	0	
15	0	0	0	0	548	497	1021	0	0	0	
0	0	0	0	0	555	502	1021	0	0	0	
1	0	0	0	0	559	505	1021	0	0	0	
2	0	0	0	0	562	508	1021	0	0	0	
3	0	0	0	0	563	508	1020	0	0	0	
4	0	0	0	0	562	506	1021	0	0	0	
5	0	0	0	0	559	504	1021	0	0	0	
6	0	0	0	0	554	500	1021	0	0	0	
7	0	0	0	0	548	495	1021	0	0	0	
8	0	0	0	0	541	489	1021	0	0	0	
9	0	0	0	0	535	483	1021	0	0	0	
10	0	0	0	0	527	477	1021	0	0	0	
11	0	0	0	0	520	471	1021	0	0	0	
12	0	0	0	0	515	466	1021	0	0	0	
13	0	0	0	0	510	462	1021	0	0	0	
14	0	0	0	0	508	459	1021	0	0	0	
15	0	0	0	0	507	457	1021	0	0	0	
0	0	0	0	0	508	458	1021	0	0	0	
1	0	0	0	0	511	460	1021	0	0	0	
2	0	0	0	0	515	464	1021	0	0	0	
3	0	0	0	0	522	469	1021	0	0	0	
4	0	0	0	0	529	476	1021	0	0	0	
5	0	0	0	0	536	482	1021	0	0	0	
6	0	0	0	0	543	488	1021	0	0	0	
7	0	0	0	0	547	492	1020	0	0	0	
8	0	0	0	0	551	495	1021	0	0	0	
9	0	0	0	0	553	497	1021	0	0	0	
10	0	0	0	0	553	497	1021	0	0	0	
11	0	0	0	0	551	497	1020	0	0	0	
12	0	0	0	0	548	496	1020	0	0	0	
13	0	0	0	0	546	494	1021	0	0	0	
14	0	0	0	0	543	492	1021	0	0	0	
15	0	0	0	0	540	491	1021	0	0	0	
0	0	0	0	0	538	490	1021	0	0	0	
1	0	0	0	0	536	489	1020	0	0	0	
2	0	0	0	0	536	489	1021	0	0	0	
3	0	0	0	0	536	489	1021	0	0	0	
4	0	0	0	0	538	490	1021	0	0	0	
5	0	0	0	0	539	491	1021	0	0	0	
6	0	0	0	0	540	491	1021	0	0	0	
7	0	0	0	0	540	490	1021	0	0	0	
8	0	0	0	0	539	489	1021	0	0	0	
9	0	0	0	0	538	487	1021	0	0	0	
10	0	0	0	0	536	485	1021	0	0	0	
11	0	0	0	0	532	482	1021	0	0	0	
12	0	0	0	0	529	479	1021	0	0	0	
13	0	0	0	0	525	475	1021	0	0	0	
14	0	0	0	0	521	472	1021	0	0	0	
15	0	0	0	0	517	468	1021	0	0	0	
0	0	0	0	0	513	465	1021	0	0	0	
1	0	0	0	0	510	462	1021	0	0	0	
2	0	0	0	0	508	459	1021	0	0	0	
3	0	0	0	0	506	457	1021	0	0	0	
4	0	0	0	0	505	455	1021	0	0	0	
5	0	0	0	0	505	455	1021	0	0	0	
6	0	0	0	0	507	456	1021	0	0	0	
7	0	0	0	0	509	458	1021	0	0	0	
8	0	0	0	0	512	460	1021	0	0	0	
9	0	0	0	0	516	463	1021	0	0	0	
10	0	0	0	0	519	466	1020	0	0	0	
11	0	0	0	0	522	470	1021	0	0	0	
12	0	0	0	0	526	473	1021	0	0	0	
13	0	0	0	0	527	476	1021	0	0	0	
14	0	0	0	0	528	477	1021	0	0	0	
15	0	0	0	0	527	478	1020	0	0	0	
0	0	0	0	0	526	476	1021	0	0	0	
1	0	0	0	0	523	474	1021	0	0	0	
2	0	0	0	0	518	470	1021	0	0	0	
3	0	0	0	0	512	466	1021	0	0	0	
4	0	0	0	0	506	461	1021	0	0	0	
5	0	0	0	0	501	455	1021	0	0	0	
6	0	0	0	0	496	451	1021	0	0	0	
7	0	0	0	0	493	448	1021	0	0	0	
8	0	0	0	0	491	446	1021	0	0	0	
9	0	0	0	0	491	445	1021	0	0	0	
10	0	0	0	0	494	446	1021	0	0	0	
11	0	0	0	0	499	449	1021	0	0	0	
12	0	0	0	0	505	455	1021	0	0	0	
13	0	0	0	0	514	461	1021	0	0	0	
14	0	0	0	0	523	468	1021	0	0	0	
15	0	0	0	0	532	477	1021	0	0	0	
0	0	0	0	0	542	486	1021	0	0	0	
1	0	0	0	0	550	493	1021	0	0	0	
2	0	0	0	0	557	501	1021	0	0	0	
3	0	0	0	0	563	508	1021	0	0	0	
4	0	0	0	0	569	513	1021	0	0	0	
5	0	0	0	0	572	517	1021	0	0	0	
6	0	0	0	0	574	520	1021	0	0	0	
7	0	0	0	0	574	521	1021	0	0	0	
8	0	0	0	0	573	521	1021	0	0	0	
9	0	0	0	0	571	520	1021	0	0	0	
10	0	0	0	0	568	518	1021	0	0	0	
11	0	0	0	0	563	515	1021	0	0	0	
12	0	0	0	0	556	509	1021	0	0	0	
13	0	0	0	0	547	502	1020	0	0	0	
14	0	0	0	0	538	493	1021	0	0	0	
15	0	0	0	0	527	484	1021	0	0	0	
0	0	0	0	0	516	474	1021	0	0	0	
1	0	0	0	0	505	464	1021	0	0	0	
2	0	0	0	0	496	456	1021	0	0	0	
3	0	0	0	0	489	450	1021	0	0	0	
4	0	0	0	0	484	445	1021	0	0	0	
5	0	0	0	0	482	443	1021	0	0	0	
6	0	0	0	0	483	442	1021	0	0	0	
7	0	0	0	0	486	444	1021	0	0	0	
8	0	0	0	0	492	447	1021	0	0	0	
9	0	0	0	0	499	452	1021	0	0	0	
10	0	0	0	0	508	458	1021	0	0	0	
11	0	0	0	0	517	464	1021	0	0	0	
12	0	0	0	0	526	470	1020	0	0	0	
13	0	0	0	0	535	476	1021	0	0	0	
14	0	0	0	0	544	483	1021	0	0	0	
15	0	0	0	0	552	489	1021	0	0	0	
0	0	0	0	0	560	496	1021	0	0	0	
1	0	0	0	0	566	503	1021	0	0	0	
2	0	0	0	0	573	509	1021	0	0	0	
3	0	0	0	0	578	515	1021	0	0	0	
4	0	0	0	0	583	521	1020	0	0	0	
5	0	0	0	0	586	525	1021	0	0	0	
6	0	0	0	0	587	528	1021	0	0	0	
7	0	0	0	0	585	528	1021	0	0	0	
8	0	0	0	0	579	526	1021	0	0	0	
9	0	0	0	0	571	520	1021	0	0	0	
10	0	0	0	0	559	511	1021	0	0	0	
11	0	0	0	0	544	500	1020	0	0	0	
12	0	0	0	0	529	487	1021	0	0	0	
13	0	0	0	0	512	473	1021	0	0	0	
14	0	0	0	0	496	460	1021	0	0	0	
15	0	0	0	0	481	447	1021	0	0	0	
0	0	0	0	0	469	435	1021	0	0	0	
1	0	0	0	0	460	425	1021	0	0	0	
2	0	0	0	0	453	418	1021	0	0	0	
3	0	0	0	0	450	414	1021	0	0	0	
4	0	0	0	0	451	412	1021	0	0	0	
5	0	0	0	0	454	412	1021	0	0	0	
6	0	0	0	0	461	416	1021	0	0	0	
7	0	0	0	0	470	421	1021	0	0	0	
8	0	0	0	0	480	428	1021	0	0	0	
9	0	0	0	0	492	437	1021	0	0	0	
10	0	0	0	0	503	445	1020	0	0	0	
11	0	0	0	0	513	453	1021	0	0	0	
12	0	0	0	0	523	461	1021	0	0	0	
13	0	0	0	0	530	467	1021	0	0	0	
14	0	0	0	0	535	473	1021	0	0	0	
15	0	0	0	0	538	477	1021	0	0	0	
0	0	0	0	0	540	480	1021	0	0	0	
1	0	0	0	0	539	481	1021	0	0	0	
2	0	0	0	0	538	483	1021	0	0	0	
3	0	0	0	0	536	483	1021	0	0	0	
4	0	0	0	0	534	482	1021	0	0	0	
5	0	0	0	0	531	482	1021	0	0	0	
6	0	0	0	0	529	482	1021	0	0	0	
7	0	0	0	0	527	481	1021	0	0	0	
8	0	0	0	0	525	480	1021	0	0	0	
9	0	0	0	0	523	479	1021	0	0	0	
10	0	0	0	0	521	478	1021	0	0	0	
11	0	0	0	0	519	475	1021	0	0	0	
12	0	0	0	0	517	472	1021	0	0	0	
13	0	0	0	0	514	468	1021	0	0	0	
14	0	0	0	0	511	465	1021	0	0	0	
15	0	0	0	0	509	461	1021	0	0	0	
0	0	0	0	0	506	457	1021	0	0	0	
1	0	0	0	0	503	453	1021	0	0	0	
2	0	0	0	0	500	449	1021	0	0	0	
3	0	0	0	0	497	446	1021	0	0	0	
4	0	0	0	0	495	443	1021	0	0	0	
5	0	0	0	0	492	440	1021	0	0	0	
6	0	0	0	0	490	438	1021	0	0	0	
7	0	0	0	0	488	436	1021	0	0	0	
8	0	0	0	0	487	435	1021	0	0	0	
9	0	0	0	0	486	434	1021	0	0	0	
10	0	0	0	0	486	435	1021	0	0	0	
11	0	0	0	0	487	436	1021	0	0	0	
12	0	0	0	0	490	438	1021	0	0	0	
13	0	0	0	0	494	441	1020	0	0	0	
14	0	0	0	0	498	445	1021	0	0	0	
15	0	0	0	0	504	450	1021	0	0	0	
0	0	0	0	0	510	456	1021	0	0	0	
1	0	0	0	0	516	462	1021	0	0	0	
2	0	0	0	0	524	468	1021	0	0	0	
3	0	0	0	0	532	476	1021	0	0	0	
4	0	0	0	0	540	483	1021	0	0	0	
5	0	0	0	0	548	491	1021	0	0	0	
6	0	0	0	0	557	500	1021	0	0	0	
7	0	0	0	0	566	508	1021	0	0	0	
8	0	0	0	0	575	516	1021	0	0	0	
9	0	0	0	0	582	524	1021	0	0	0	
10	0	0	0	0	588	529	1021	0	0	0	
11	0	0	0	0	591	532	1021	0	0	0	
12	0	0	0	0	590	532	1021	0	0	0	
13	0	0	0	0	585	528	1021	0	0	0	
14	0	0	0	0	576	521	1021	0	0	0	
15	0	0	0	0	563	511	1021	0	0	0	
0	0	0	0	0	547	497	1021	0	0	0	
1	0	0	0	0	529	482	1021	0	0	0	
2	0	0	0	0	509	465	1021	0	0	0	
3	0	0	0	0	489	449	1021	0	0	0	
4	0	0	0	0	471	434	1021	0	0	0	
5	0	0	0	0	456	422	1021	0	0	0	
6	0	0	0	0	445	412	1021	0	0	0	
7	0	0	0	0	439	406	1021	0	0	0	
8	0	0	0	0	437	404	1021	0	0	0	
9	0	0	0	0	440	406	1021	0	0	0	
10	0	0	0	0	447	411	1021	0	0	0	
11	0	0	0	0	457	417	1021	0	0	0	
12	0	0	0	0	468	425	1021	0	0	0	
13	0	0	0	0	481	434	1021	0	0	0	
14	0	0	0	0	493	442	1021	0	0	0	
15	0	0	0	0	504	449	1021	0	0	0	
0	0	0	0	0	513	455	1021	0	0	0	
1	0	0	0	0	521	460	1021	0	0	0	
2	0	0	0	0	527	463	1021	0	0	0	
3	0	0	0	0	530	467	1021	0	0	0	
4	0	0	0	0	532	468	1021	0	0	0	
5	0	0	0	0	532	470	1021	0	0	0	
6	0	0	0	0	533	472	1021	0	0	0	
7	0	0	0	0	532	474	1021	0	0	0	
8	0	0	0	0	533	477	1021	0	0	0	
9	0	0	0	0	534	480	1020	0	0	0	
10	0	0	0	0	536	483	1021	0	0	0	
11	0	0	0	0	538	487	1021	0	0	0	
12	0	0	0	0	541	490	1021	0	0	0	
13	0	0	0	0	544	493	1021	0	0	0	
14	0	0	0	0	546	495	1021	0	0	0	
15	0	0	0	0	547	496	1021	0	0	0	
0	0	0	0	0	549	497	1021	0	0	0	
1	0	0	0	0	550	497	1021	0	0	0	
2	0	0	0	0	550	496	1021	0	0	0	
3	0	0	0	0	550	495	1021	0	0	0	
4	0	0	0	0	547	494	1021	0	0	0	
5	0	0	0	0	546	492	1021	0	0	0	
6	0	0	0	0	543	489	1021	0	0	0	
7	0	0	0	0	538	485	1021	0	0	0	
8	0	0	0	0	532	480	1021	0	0	0	
9	0	0	0	0	524	473	1021	0	0	0	
10	0	0	0	0	516	467	1021	0	0	0	
11	0	0	0	0	508	460	1021	0	0	0	
12	0	0	0	0	499	453	1021	0	0	0	
13	0	0	0	0	491	445	1021	0	0	0	
14	0	0	0	0	483	438	1021	0	0	0	
15	0	0	0	0	475	432	1021	0	0	0	
0	0	0	0	0	468	424	1021	0	0	0	
1	0	0	0	0	462	417	1020	0	0	0	
2	0	0	0	0	455	411	1021	0	0	0	
3	0	0	0	0	450	404	1020	0	0	0	
4	0	0	0	0	445	397	1021	0	0	0	
5	0	0	0	0	440	390	1021	0	0	0	
6	0	0	0	0	434	384	1021	0	0	0	
7	0	0	0	0	428	376	1021	0	0	0	
8	0	0	0	0	421	368	1021	0	0	0	
9	0	0	0	0	414	360	1021	0	0	0	
10	0	0	0	0	406	352	1021	0	0	0	
11	0	0	0	0	397	344	1021	0	0	0	
12	0	0	0	0	387	334	1021	0	0	0	
13	0	0	0	0	376	323	1021	0	0	0	
14	0	0	0	0	363	312	1021	0	0	0	
15	0	0	0	0	351	300	1021	0	0	0	
0	0	0	0	0	337	287	1021	0	0	0	
1	0	0	0	0	323	275	1021	0	0	0	
2	0	0	0	0	311	263	1021	0	0	0	
3	0	0	0	0	300	253	1021	0	0	0	
4	0	0	0	0	291	245	1021	0	0	0	
5	0	0	0	0	285	239	1021	0	0	0	
6	0	0	0	0	283	237	1021	0	0	0	
7	0	0	0	0	285	239	1021	0	0	0	
8	0	0	0	0	291	244	1021	0	0	0	
9	0	0	0	0	302	254	1021	0	0	0	
10	0	0	0	0	316	266	1021	0	0	0	
11	0	0	0	0	334	280	1021	0	0	0	
12	0	0	0	0	353	297	1021	0	0	0	
13	0	0	0	0	374	315	1021	0	0	0	
14	0	0	0	0	395	333	1021	0	0	0	
15	0	0	0	0	417	352	1021	0	0	0	
0	0	0	0	0	438	371	1021	0	0	0	
1	0	0	0	0	459	391	1021	0	0	0	
2	0	0	0	0	478	408	1021	0	0	0	
3	0	0	0	0	495	425	1021	0	0	0	
4	0	0	0	0	511	440	1021	0	0	0	
5	0	0	0	0	524	454	1021	0	0	0	
6	0	0	0	0	535	466	1021	0	0	0	
7	0	0	0	0	542	476	1021	0	0	0	
8	0	0	0	0	548	483	1021	0	0	0	
9	0	0	0	0	551	488	1021	0	0	0	
10	0	0	0	0	551	491	1021	0	0	0	
11	0	0	0	0	551	492	1021	0	0	0	
12	0	0	0	0	548	492	1021	0	0	0	
13	0	0	0	0	545	492	1021	0	0	0	
14	0	0	0	0	543	491	1021	0	0	0	
15	0	0	0	0	540	490	1021	0	0	0	
0	0	0	0	0	540	491	1021	0	0	0	
1	0	0	0	0	542	493	1021	0	0	0	
2	0	0	0	0	547	497	1021	0	0	0	
3	0	0	0	0	553	503	1021	0	0	0	
4	0	0	0	0	561	511	1021	0	0	0	
5	0	0	0	0	572	520	1021	0	0	0	
6	0	0	0	0	583	530	1021	0	0	0	
7	0	0	0	0	595	539	1021	0	0	0	
8	0	0	0	0	605	548	1021	0	0	0	
9	0	0	0	0	614	556	1021	0	0	0	
10	0	0	0	0	619	560	1021	0	0	0	
11	0	0	0	0	620	561	1021	0	0	0	
12	0	0	0	0	616	558	1021	0	0	0	
13	0	0	0	0	607	551	1021	0	0	0	
14	0	0	0	0	593	539	1021	0	0	0	
15	0	0	0	0	575	524	1021	0	0	0	
0	0	0	0	0	553	507	1021	0	0	0	
1	0	0	0	0	531	488	1021	0	0	0	
2	0	0	0	0	509	470	1021	0	0	0	
3	0	0	0	0	488	452	1021	0	0	0	
4	0	0	0	0	472	438	1021	0	0	0	
5	0	0	0	0	458	426	1021	0	0	0	
6	0	0	0	0	449	418	1021	0	0	0	
7	0	0	0	0	446	414	1021	0	0	0	
8	0	0	0	0	447	413	1021	0	0	0	
9	0	0	0	0	454	415	1021	0	0	0	
10	0	0	0	0	463	421	1021	0	0	0	
11	0	0	0	0	476	430	1021	0	0	0	
12	0	0	0	0	492	440	1021	0	0	0	
13	0	0	0	0	507	450	1021	0	0	0	
14	0	0	0	0	523	461	1021	0	0	0	
15	0	0	0	0	537	472	1021	0	0	0	
0	0	0	0	0	550	481	1021	0	0	0	
1	0	0	0	0	560	489	1021	0	0	0	
2	0	0	0	0	567	496	1021	0	0	0	
3	0	0	0	0	571	502	1021	0	0	0	
4	0	0	0	0	573	505	1021	0	0	0	
5	0	0	0	0	571	507	1021	0	0	0	
6	0	0	0	0	568	508	1021	0	0	0	
7	0	0	0	0	564	508	1021	0	0	0	
8	0	0	0	0	559	507	1021	0	0	0	
9	0	0	0	0	553	506	1021	0	0	0	
10	0	0	0	0	547	504	1021	0	0	0	
11	0	0	0	0	543	502	1021	0	0	0	
12	0	0	0	0	539	499	1021	0	0	0	
13	0	0	0	0	536	497	1021	0	0	0	
14	0	0	0	0	534	495	1021	0	0	0	
15	0	0	0	0	533	493	1021	0	0	0	
0	0	0	0	0	535	494	1021	0	0	0	
1	0	0	0	0	539	495	1021	0	0	0	
2	0	0	0	0	543	498	1021	0	0	0	
3	0	0	0	0	550	502	1021	0	0	0	
4	0	0	0	0	556	505	1021	0	0	0	
5	0	0	0	0	561	508	1021	0	0	0	
6	0	0	0	0	564	510	1021	0	0	0	
7	0	0	0	0	565	510	1020	0	0	0	
8	0	0	0	0	564	509	1021	0	0	0	
9	0	0	0	0	560	505	1021	0	0	0	
10	0	0	0	0	554	499	1021	0	0	0	
11	0	0	0	0	546	493	1021	0	0	0	
12	0	0	0	0	536	485	1021	0	0	0	
13	0	0	0	0	526	477	1021	0	0	0	
14	0	0	0	0	517	469	1021	0	0	0	
15	0	0	0	0	508	462	1021	0	0	0	
0	0	0	0	0	502	457	1021	0	0	0	
1	0	0	0	0	496	453	1021	0	0	0	
2	0	0	0	0	495	451	1021	0	0	0	
3	0	0	0	0	495	452	1021	0	0	0	
4	0	0	0	0	499	455	1021	0	0	0	
5	0	0	0	0	505	460	1021	0	0	0	
6	0	0	0	0	512	466	1021	0	0	0	
7	0	0	0	0	523	474	1021	0	0	0	
8	0	0	0	0	534	483	1021	0	0	0	
9	0	0	0	0	545	492	1021	0	0	0	
10	0	0	0	0	557	501	1021	0	0	0	
11	0	0	0	0	566	508	1021	0	0	0	
12	0	0	0	0	573	514	1021	0	0	0	
13	0	0	0	0	577	517	1021	0	0	0	
14	0	0	0	0	578	518	1021	0	0	0	
15	0	0	0	0	576	516	1021	0	0	0	
0	0	0	0	0	571	513	1021	0	0	0	
1	0	0	0	0	565	509	1021	0	0	0	
2	0	0	0	0	558	504	1021	0	0	0	
3	0	0	0	0	550	500	1021	0	0	0	
4	0	0	0	0	543	496	1021	0	0	0	
5	0	0	0	0	537	492	1021	0	0	0	
6	0	0	0	0	533	490	1021	0	0	0	
7	0	0	0	0	530	489	1021	0	0	0	
8	0	0	0	0	529	488	1021	0	0	0	
9	0	0	0	0	528	489	1020	0	0	0	
10	0	0	0	0	530	491	1020	0	0	0	
11	0	0	0	0	532	492	1021	0	0	0	
12	0	0	0	0	535	493	1021	0	0	0	
13	0	0	0	0	536	493	1021	0	0	0	
14	0	0	0	0	537	492	1021	0	0	0	
15	0	0	0	0	536	490	1021	0	0	0	
0	0	0	0	0	535	487	1021	0	0	0	
1	0	0	0	0	532	484	1021	0	0	0	
2	0	0	0	0	529	480	1021	0	0	0	
3	0	0	0	0	526	476	1021	0	0	0	
4	0	0	0	0	522	472	1021	0	0	0	
5	0	0	0	0	519	468	1021	0	0	0	
6	0	0	0	0	516	465	1021	0	0	0	
7	0	0	0	0	514	463	1021	0	0	0	
8	0	0	0	0	512	461	1021	0	0	0	
9	0	0	0	0	511	460	1021	0	0	0	
10	0	0	0	0	511	460	1021	0	0	0	
11	0	0	0	0	511	460	1021	0	0	0	
12	0	0	0	0	512	462	1021	0	0	0	
13	0	0	0	0	513	463	1021	0	0	0	
14	0	0	0	0	515	465	1021	0	0	0	
15	0	0	0	0	518	468	1021	0	0	0	
0	0	0	0	0	520	471	1021	0	0	0	
1	0	0	0	0	523	473	1020	0	0	0	
2	0	0	0	0	526	476	1021	0	0	0	
3	0	0	0	0	529	480	1021	0	0	0	
4	0	0	0	0	533	483	1021	0	0	0	
5	0	0	0	0	537	487	1021	0	0	0	
6	0	0	0	0	542	491	1021	0	0	0	
7	0	0	0	0	545	494	1021	0	0	0	
8	0	0	0	0	549	497	1021	0	0	0	
9	0	0	0	0	552	499	1021	0	0	0	
10	0	0	0	0	556	502	1021	0	0	0	
11	0	0	0	0	558	504	1021	0	0	0	
12	0	0	0	0	560	506	1021	0	0	0	
13	0	0	0	0	563	509	1021	0	0	0	
14	0	0	0	0	564	511	1021	0	0	0	
15	0	0	0	0	566	513	1021	0	0	0	
0	0	0	0	0	565	514	1021	0	0	0	
1	0	0	0	0	563	513	1021	0	0	0	
2	0	0	0	0	558	511	1020	0	0	0	
3	0	0	0	0	551	506	1021	0	0	0	
4	0	0	0	0	543	500	1021	0	0	0	
5	0	0	0	0	535	493	1021	0	0	0	
6	0	0	0	0	526	486	1021	0	0	0	
7	0	0	0	0	517	478	1021	0	0	0	
8	0	0	0	0	509	470	1021	0	0	0	
9	0	0	0	0	501	463	1021	0	0	0	
10	0	0	0	0	495	456	1021	0	0	0	
11	0	0	0	0	490	451	1021	0	0	0	
12	0	0	0	0	487	447	1021	0	0	0	
13	0	0	0	0	486	445	1021	0	0	0	
14	0	0	0	0	487	444	1021	0	0	0	
15	0	0	0	0	489	445	1021	0	0	0	
0	0	0	0	0	492	447	1021	0	0	0	
1	0	0	0	0	495	449	1021	0	0	0	
2	0	0	0	0	500	453	1021	0	0	0	
3	0	0	0	0	505	457	1021	0	0	0	
4	0	0	0	0	511	462	1021	0	0	0	
5	0	0	0	0	516	466	1021	0	0	0	
6	0	0	0	0	521	471	1021	0	0	0	
7	0	0	0	0	527	477	1021	0	0	0	
8	0	0	0	0	532	482	1021	0	0	0	
9	0	0	0	0	538	487	1021	0	0	0	
10	0	0	0	0	544	494	1021	0	0	0	
11	0	0	0	0	550	500	1021	0	0	0	
12	0	0	0	0	558	507	1021	0	0	0	
13	0	0	0	0	564	513	1021	0	0	0	
14	0	0	0	0	570	519	1021	0	0	0	
15	0	0	0	0	575	523	1021	0	0	0	
0	0	0	0	0	578	526	1020	0	0	0	
1	0	0	0	0	580	528	1021	0	0	0	
2	0	0	0	0	581	528	1021	0	0	0	
3	0	0	0	0	579	527	1021	0	0	0	
4	0	0	0	0	576	524	1021	0	0	0	
5	0	0	0	0	570	520	1021	0	0	0	
6	0	0	0	0	563	513	1021	0	0	0	
7	0	0	0	0	553	505	1021	0	0	0	
8	0	0	0	0	543	496	1021	0	0	0	
9	0	0	0	0	531	487	1020	0	0	0	
10	0	0	0	0	520	478	1020	0	0	0	
11	0	0	0	0	511	470	1021	0	0	0	
12	0	0	0	0	502	463	1021	0	0	0	
13	0	0	0	0	495	456	1021	0	0	0	
14	0	0	0	0	490	451	1021	0	0	0	
15	0	0	0	0	486	448	1021	0	0	0	
0	0	0	0	0	485	447	1021	0	0	0	
1	0	0	0	0	486	447	1021	0	0	0	
2	0	0	0	0	488	448	1021	0	0	0	
3	0	0	0	0	492	450	1021	0	0	0	
4	0	0	0	0	497	454	1021	0	0	0	
5	0	0	0	0	504	458	1021	0	0	0	
6	0	0	0	0	511	463	1021	0	0	0	
7	0	0	0	0	519	468	1021	0	0	0	
8	0	0	0	0	527	475	1021	0	0	0	
9	0	0	0	0	535	481	1021	0	0	0	
10	0	0	0	0	543	487	1021	0	0	0	
11	0	0	0	0	550	494	1021	0	0	0	
12	0	0	0	0	557	500	1021	0	0	0	
13	0	0	0	0	563	505	1021	0	0	0	
14	0	0	0	0	568	511	1021	0	0	0	
15	0	0	0	0	573	516	1021	0	0	0	
0	0	0	0	0	575	520	1021	0	0	0	
1	0	0	0	0	577	523	1021	0	0	0	
2	0	0	0	0	577	525	1021	0	0	0	
3	0	0	0	0	576	525	1021	0	0	0	
4	0	0	0	0	573	524	1021	0	0	0	
5	0	0	0	0	568	519	1021	0	0	0	
6	0	0	0	0	560	513	1021	0	0	0	
7	0	0	0	0	550	505	1021	0	0	0	
8	0	0	0	0	540	496	1021	0	0	0	
9	0	0	0	0	528	486	1021	0	0	0	
10	0	0	0	0	518	476	1021	0	0	0	
11	0	0	0	0	509	468	1021	0	0	0	
12	0	0	0	0	502	460	1021	0	0	0	
13	0	0	0	0	497	456	1021	0	0	0	
14	0	0	0	0	496	453	1021	0	0	0	
15	0	0	0	0	497	452	1021	0	0	0	
0	0	0	0	0	500	454	1021	0	0	0	
1	0	0	0	0	506	457	1021	0	0	0	
2	0	0	0	0	513	463	1021	0	0	0	
3	0	0	0	0	521	469	1021	0	0	0	
4	0	0	0	0	530	476	1021	0	0	0	
5	0	0	0	0	539	483	1021	0	0	0	
6	0	0	0	0	548	491	1021	0	0	0	
7	0	0	0	0	556	499	1021	0	0	0	
8	0	0	0	0	564	506	1021	0	0	0	
9	0	0	0	0	570	513	1021	0	0	0	
10	0	0	0	0	575	518	1021	0	0	0	
11	0	0	0	0	579	523	1021	0	0	0	
12	0	0	0	0	581	526	1021	0	0	0	
13	0	0	0	0	583	528	1021	0	0	0	
14	0	0	0	0	583	528	1021	0	0	0	
15	0	0	0	0	582	527	1021	0	0	0	
0	0	0	0	0	579	525	1021	0	0	0	
1	0	0	0	0	576	523	1021	0	0	0	
2	0	0	0	0	572	519	1021	0	0	0	
3	0	0	0	0	567	514	1021	0	0	0	
4	0	0	0	0	560	508	1021	0	0	0	
5	0	0	0	0	554	503	1021	0	0	0	
6	0	0	0	0	547	497	1021	0	0	0	
7	0	0	0	0	541	492	1021	0	0	0	
8	0	0	0	0	535	487	1021	0	0	0	
9	0	0	0	0	530	484	1021	0	0	0	
10	0	0	0	0	526	481	1021	0	0	0	
11	0	0	0	0	524	479	1021	0	0	0	
12	0	0	0	0	522	477	1021	0	0	0	
13	0	0	0	0	521	476	1021	0	0	0	
14	0	0	0	0	522	477	1021	0	0	0	
15	0	0	0	0	524	478	1021	0	0	0	
0	0	0	0	0	527	480	1021	0	0	0	
1	0	0	0	0	532	483	1021	0	0	0	
2	0	0	0	0	537	487	1021	0	0	0	
3	0	0	0	0	543	491	1021	0	0	0	
4	0	0	0	0	548	495	1021	0	0	0	
5	0	0	0	0	552	498	1021	0	0	0	
6	0	0	0	0	556	500	1021	0	0	0	
7	0	0	0	0	558	502	1021	0	0	0	
8	0	0	0	0	557	502	1021	0	0	0	
9	0	0	0	0	555	500	1020	0	0	0	
10	0	0	0	0	551	497	1021	0	0	0	
11	0	0	0	0	546	494	1021	0	0	0	
12	0	0	0	0	540	489	1021	0	0	0	
13	0	0	0	0	532	483	1021	0	0	0	
14	0	0	0	0	525	478	1021	0	0	0	
15	0	0	0	0	517	473	1021	0	0	0	
0	0	0	0	0	511	468	1021	0	0	0	
1	0	0	0	0	507	464	1021	0	0	0	
2	0	0	0	0	504	462	1021	0	0	0	
3	0	0	0	0	503	460	1021	0	0	0	
4	0	0	0	0	504	460	1020	0	0	0	
5	0	0	0	0	508	462	1021	0	0	0	
6	0	0	0	0	513	466	1021	0	0	0	
7	0	0	0	0	520	471	1021	0	0	0	
8	0	0	0	0	528	476	1021	0	0	0	
9	0	0	0	0	537	483	1021	0	0	0	
10	0	0	0	0	547	490	1021	0	0	0	
11	0	0	0	0	557	498	1021	0	0	0	
12	0	0	0	0	567	505	1021	0	0	0	
13	0	0	0	0	575	512	1021	0	0	0	
14	0	0	0	0	580	517	1021	0	0	0	
15	0	0	0	0	584	521	1021	0	0	0	
0	0	0	0	0	585	523	1021	0	0	0	
1	0	0	0	0	583	523	1020	0	0	0	
2	0	0	0	0	577	519	1021	0	0	0	
3	0	0	0	0	570	515	1020	0	0	0	
4	0	0	0	0	560	508	1021	0	0	0	
5	0	0	0	0	550	500	1021	0	0	0	
6	0	0	0	0	538	492	1021	0	0	0	
7	0	0	0	0	527	483	1021	0	0	0	
8	0	0	0	0	518	476	1020	0	0	0	
9	0	0	0	0	511	469	1021	0	0	0	
10	0	0	0	0	505	464	1021	0	0	0	
11	0	0	0	0	502	460	1021	0	0	0	
12	0	0	0	0	501	457	1021	0	0	0	
13	0	0	0	0	502	456	1021	0	0	0	
14	0	0	0	0	505	456	1021	0	0	0	
15	0	0	0	0	509	458	1021	0	0	0	
0	0	0	0	0	513	461	1021	0	0	0	
1	0	0	0	0	519	464	1021	0	0	0	
2	0	0	0	0	524	468	1020	0	0	0	
3	0	0	0	0	530	473	1021	0	0	0	
4	0	0	0	0	535	478	1021	0	0	0	
5	0	0	0	0	540	482	1021	0	0	0	
6	0	0	0	0	543	486	1021	0	0	0	
7	0	0	0	0	546	489	1021	0	0	0	
8	0	0	0	0	547	492	1021	0	0	0	
9	0	0	0	0	549	494	1021	0	0	0	
10	0	0	0	0	549	495	1021	0	0	0	
11	0	0	0	0	548	495	1021	0	0	0	
12	0	0	0	0	547	495	1020	0	0	0	
13	0	0	0	0	546	494	1021	0	0	0	
14	0	0	0	0	545	493	1021	0	0	0	
15	0	0	0	0	544	492	1021	0	0	0	
0	0	0	0	0	544	493	1021	0	0	0	
1	0	0	0	0	545	493	1021	0	0	0	
2	0	0	0	0	546	494	1021	0	0	0	
3	0	0	0	0	547	495	1021	0	0	0	
4	0	0	0	0	548	496	1021	0	0	0	
5	0	0	0	0	548	496	1021	0	0	0	
6	0	0	0	0	548	495	1021	0	0	0	
7	0	0	0	0	546	494	1021	0	0	0	
8	0	0	0	0	544	492	1021	0	0	0	
9	0	0	0	0	541	489	1021	0	0	0	
10	0	0	0	0	538	487	1021	0	0	0	
11	0	0	0	0	534	483	1020	0	0	0	
12	0	0	0	0	531	480	1021	0	0	0	
13	0	0	0	0	527	477	1021	0	0	0	
14	0	0	0	0	524	474	1021	0	0	0	
15	0	0	0	0	521	471	1021	0	0	0	
0	0	0	0	0	519	468	1021	0	0	0	
1	0	0	0	0	516	465	1021	0	0	0	
2	0	0	0	0	515	463	1021	0	0	0	
3	0	0	0	0	514	462	1021	0	0	0	
4	0	0	0	0	513	461	1021	0	0	0	
5	0	0	0	0	513	460	1021	0	0	0	
6	0	0	0	0	514	461	1021	0	0	0	
7	0	0	0	0	516	463	1021	0	0	0	
8	0	0	0	0	520	467	1021	0	0	0	
9	0	0	0	0	525	472	1021	0	0	0	
10	0	0	0	0	531	478	1020	0	0	0	
11	0	0	0	0	539	485	1021	0	0	0	
12	0	0	0	0	547	493	1021	0	0	0	
13	0	0	0	0	556	501	1021	0	0	0	
14	0	0	0	0	564	509	1021	0	0	0	
15	0	0	0	0	571	515	1021	0	0	0	
0	0	0	0	0	576	519	1021	0	0	0	
1	0	0	0	0	579	522	1021	0	0	0	
2	0	0	0	0	579	522	1021	0	0	0	
3	0	0	0	0	577	520	1021	0	0	0	
4	0	0	0	0	572	515	1021	0	0	0	
5	0	0	0	0	564	509	1021	0	0	0	
6	0	0	0	0	554	500	1021	0	0	0	
7	0	0	0	0	543	491	1021	0	0	0	
8	0	0	0	0	531	481	1020	0	0	0	
9	0	0	0	0	520	472	1021	0	0	0	
10	0	0	0	0	510	463	1021	0	0	0	
11	0	0	0	0	503	457	1021	0	0	0	
12	0	0	0	0	497	452	1021	0	0	0	
13	0	0	0	0	494	450	1021	0	0	0	
14	0	0	0	0	494	450	1021	0	0	0	
15	0	0	0	0	495	451	1021	0	0	0	
0	0	0	0	0	499	455	1021	0	0	0	
1	0	0	0	0	504	459	1021	0	0	0	
2	0	0	0	0	509	463	1021	0	0	0	
3	0	0	0	0	516	468	1021	0	0	0	
4	0	0	0	0	522	473	1021	0	0	0	
5	0	0	0	0	528	478	1021	0	0	0	
6	0	0	0	0	533	482	1021	0	0	0	
7	0	0	0	0	537	486	1021	0	0	0	
8	0	0	0	0	542	489	1021	0	0	0	
9	0	0	0	0	544	492	1021	0	0	0	
10	0	0	0	0	547	494	1021	0	0	0	
11	0	0	0	0	549	496	1021	0	0	0	
12	0	0	0	0	551	498	1021	0	0	0	
13	0	0	0	0	553	500	1021	0	0	0	
14	0	0	0	0	555	502	1021	0	0	0	
15	0	0	0	0	557	504	1021	0	0	0	
0	0	0	0	0	558	505	1021	0	0	0	
1	0	0	0	0	560	506	1021	0	0	0	
2	0	0	0	0	561	507	1021	0	0	0	
3	0	0	0	0	562	508	1021	0	0	0	
4	0	0	0	0	563	508	1021	0	0	0	
5	0	0	0	0	562	508	1021	0	0	0	
6	0	0	0	0	560	507	1021	0	0	0	
7	0	0	0	0	557	504	1021	0	0	0	
8	0	0	0	0	552	500	1021	0	0	0	
9	0	0	0	0	546	494	1021	0	0	0	
10	0	0	0	0	538	487	1021	0	0	0	
11	0	0	0	0	529	480	1021	0	0	0	
12	0	0	0	0	519	471	1021	0	0	0	
13	0	0	0	0	509	462	1021	0	0	0	
14	0	0	0	0	500	453	1021	0	0	0	
15	0	0	0	0	492	446	1021	0	0	0	
0	0	0	0	0	484	439	1021	0	0	0	
1	0	0	0	0	480	435	1021	0	0	0	
2	0	0	0	0	478	432	1021	0	0	0	
3	0	0	0	0	478	433	1021	0	0	0	
4	0	0	0	0	481	435	1021	0	0	0	
5	0	0	0	0	487	440	1021	0	0	0	
6	0	0	0	0	496	448	1021	0	0	0	
7	0	0	0	0	505	456	1021	0	0	0	
8	0	0	0	0	515	465	1021	0	0	0	
9	0	0	0	0	526	473	1021	0	0	0	
10	0	0	0	0	536	482	1021	0	0	0	
11	0	0	0	0	544	489	1021	0	0	0	
12	0	0	0	0	551	495	1021	0	0	0	
13	0	0	0	0	557	500	1021	0	0	0	
14	0	0	0	0	561	504	1021	0	0	0	
15	0	0	0	0	564	507	1021	0	0	0	
0	0	0	0	0	565	508	1021	0	0	0	
1	0	0	0	0	564	508	1021	0	0	0	
2	0	0	0	0	563	506	1021	0	0	0	
3	0	0	0	0	560	504	1021	0	0	0	
4	0	0	0	0	556	501	1021	0	0	0	
5	0	0	0	0	551	497	1021	0	0	0	
6	0	0	0	0	547	493	1021	0	0	0	
7	0	0	0	0	542	488	1021	0	0	0	
8	0	0	0	0	536	483	1021	0	0	0	
9	0	0	0	0	531	479	1021	0	0	0	
10	0	0	0	0	525	473	1021	0	0	0	
11	0	0	0	0	519	469	1021	0	0	0	
12	0	0	0	0	514	464	1021	0	0	0	
13	0	0	0	0	509	459	1021	0	0	0	
14	0	0	0	0	504	455	1020	0	0	0	
15	0	0	0	0	502	452	1021	0	0	0	
0	0	0	0	0	499	450	1021	0	0	0	
1	0	0	0	0	499	448	1021	0	0	0	
2	0	0	0	0	500	449	1021	0	0	0	
3	0	0	0	0	502	450	1021	0	0	0	
4	0	0	0	0	506	453	1021	0	0	0	
5	0	0	0	0	512	457	1021	0	0	0	
6	0	0	0	0	519	463	1021	0	0	0	
7	0	0	0	0	527	470	1021	0	0	0	
8	0	0	0	0	534	476	1021	0	0	0	
9	0	0	0	0	541	481	1021	0	0	0	
10	0	0	0	0	548	487	1021	0	0	0	
11	0	0	0	0	553	492	1021	0	0	0	
12	0	0	0	0	557	495	1021	0	0	0	
13	0	0	0	0	560	498	1021	0	0	0	
14	0	0	0	0	561	499	1021	0	0	0	
15	0	0	0	0	561	500	1021	0	0	0	
0	0	0	0	0	560	500	1021	0	0	0	
1	0	0	0	0	557	499	1021	0	0	0	
2	0	0	0	0	553	497	1021	0	0	0	
3	0	0	0	0	550	495	1021	0	0	0	
4	0	0	0	0	545	493	1021	0	0	0	
5	0	0	0	0	542	491	1021	0	0	0	
6	0	0	0	0	540	489	1021	0	0	0	
7	0	0	0	0	538	488	1021	0	0	0	
8	0	0	0	0	537	487	1021	0	0	0	
9	0	0	0	0	538	488	1021	0	0	0	
10	0	0	0	0	539	488	1021	0	0	0	
11	0	0	0	0	540	488	1021	0	0	0	
12	0	0	0	0	540	488	1021	0	0	0	
13	0	0	0	0	540	487	1021	0	0	0	
14	0	0	0	0	538	485	1021	0	0	0	
15	0	0	0	0	535	482	1021	0	0	0	
0	0	0	0	0	530	477	1021	0	0	0	
1	0	0	0	0	525	473	1021	0	0	0	
2	0	0	0	0	520	468	1021	0	0	0	
3	0	0	0	0	515	465	1021	0	0	0	
4	0	0	0	0	511	462	1021	0	0	0	
5	0	0	0	0	509	461	1021	0	0	0	
6	0	0	0	0	508	460	1021	0	0	0	
7	0	0	0	0	508	461	1021	0	0	0	
8	0	0	0	0	510	463	1021	0	0	0	
9	0	0	0	0	513	465	1021	0	0	0	
10	0	0	0	0	518	469	1021	0	0	0	
11	0	0	0	0	523	472	1021	0	0	0	
12	0	0	0	0	529	477	1021	0	0	0	
13	0	0	0	0	535	481	1021	0	0	0	
14	0	0	0	0	540	485	1021	0	0	0	
15	0	0	0	0	545	488	1021	0	0	0	
0	0	0	0	0	549	491	1021	0	0	0	
1	0	0	0	0	553	494	1021	0	0	0	
2	0	0	0	0	555	496	1021	0	0	0	
3	0	0	0	0	557	497	1021	0	0	0	
4	0	0	0	0	558	499	1021	0	0	0	
5	0	0	0	0	559	501	1021	0	0	0	
6	0	0	0	0	559	503	1021	0	0	0	
7	0	0	0	0	558	503	1021	0	0	0	
8	0	0	0	0	557	504	1021	0	0	0	
9	0	0	0	0	556	504	1021	0	0	0	
10	0	0	0	0	554	503	1021	0	0	0	
11	0	0	0	0	553	502	1021	0	0	0	
12	0	0	0	0	551	501	1021	0	0	0	
13	0	0	0	0	550	500	1021	0	0	0	
14	0	0	0	0	548	499	1021	0	0	0	
15	0	0	0	0	547	498	1021	0	0	0	
0	0	0	0	0	546	496	1021	0	0	0	
1	0	0	0	0	544	495	1021	0	0	0	
2	0	0	0	0	542	492	1021	0	0	0	
3	0	0	0	0	539	489	1021	0	0	0	
4	0	0	0	0	535	486	1021	0	0	0	
5	0	0	0	0	530	481	1021	0	0	0	
6	0	0	0	0	525	476	1021	0	0	0	
7	0	0	0	0	519	470	1021	0	0	0	
8	0	0	0	0	513	464	1021	0	0	0	
9	0	0	0	0	507	459	1020	0	0	0	
10	0	0	0	0	503	454	1021	0	0	0	
11	0	0	0	0	500	451	1021	0	0	0	
12	0	0	0	0	499	450	1021	0	0	0	
13	0	0	0	0	500	450	1021	0	0	0	
14	0	0	0	0	503	453	1020	0	0	0	
15	0	0	0	0	508	456	1021	0	0	0	
0	0	0	0	0	515	461	1021	0	0	0	
1	0	0	0	0	522	467	1021	0	0	0	
2	0	0	0	0	530	472	1021	0	0	0	
3	0	0	0	0	537	478	1021	0	0	0	
4	0	0	0	0	543	482	1021	0	0	0	
5	0	0	0	0	547	486	1021	0	0	0	
6	0	0	0	0	550	487	1021	0	0	0	
7	0	0	0	0	550	488	1021	0	0	0	
8	0	0	0	0	548	487	1021	0	0	0	
9	0	0	0	0	543	485	1021	0	0	0	
10	0	0	0	0	539	482	1021	0	0	0	
11	0	0	0	0	532	478	1021	0	0	0	
12	0	0	0	0	525	473	1021	0	0	0	
13	0	0	0	0	519	469	1021	0	0	0	
14	0	0	0	0	513	466	1021	0	0	0	
15	0	0	0	0	510	464	1021	0	0	0	
0	0	0	0	0	509	465	1021	0	0	0	
1	0	0	0	0	510	467	1021	0	0	0	
2	0	0	0	0	514	470	1021	0	0	0	
3	0	0	0	0	520	475	1021	0	0	0	
4	0	0	0	0	527	480	1021	0	0	0	
5	0	0	0	0	536	487	1021	0	0	0	
6	0	0	0	0	544	493	1021	0	0	0	
7	0	0	0	0	553	499	1021	0	0	0	
8	0	0	0	0	560	503	1021	0	0	0	
9	0	0	0	0	564	506	1021	0	0	0	
10	0	0	0	0	567	507	1021	0	0	0	
11	0	0	0	0	566	505	1021	0	0	0	
12	0	0	0	0	563	502	1021	0	0	0	
13	0	0	0	0	556	496	1021	0	0	0	
14	0	0	0	0	547	489	1021	0	0	0	
15	0	0	0	0	537	481	1021	0	0	0	
0	0	0	0	0	527	473	1021	0	0	0	
1	0	0	0	0	516	465	1021	0	0	0	
2	0	0	0	0	508	460	1021	0	0	0	
3	0	0	0	0	502	455	1021	0	0	0	
4	0	0	0	0	497	452	1021	0	0	0	
5	0	0	0	0	496	452	1021	0	0	0	
6	0	0	0	0	499	454	1021	0	0	0	
7	0	0	0	0	503	458	1021	0	0	0	
8	0	0	0	0	511	464	1021	0	0	0	
9	0	0	0	0	520	472	1021	0	0	0	
10	0	0	0	0	531	480	1021	0	0	0	
11	0	0	0	0	543	488	1021	0	0	0	
12	0	0	0	0	553	496	1021	0	0	0	
13	0	0	0	0	562	502	1021	0	0	0	
14	0	0	0	0	569	507	1021	0	0	0	
15	0	0	0	0	574	509	1021	0	0	0	
0	0	0	0	0	575	510	1021	0	0	0	
1	0	0	0	0	574	508	1021	0	0	0	
2	0	0	0	0	571	506	1021	0	0	0	
3	0	0	0	0	566	502	1021	0	0	0	
4	0	0	0	0	559	497	1021	0	0	0	
5	0	0	0	0	551	491	1021	0	0	0	
6	0	0	0	0	542	485	1021	0	0	0	
7	0	0	0	0	532	478	1021	0	0	0	
8	0	0	0	0	523	472	1021	0	0	0	
9	0	0	0	0	514	466	1021	0	0	0	
10	0	0	0	0	506	460	1020	0	0	0	
11	0	0	0	0	500	456	1021	0	0	0	
12	0	0	0	0	496	452	1021	0	0	0	
13	0	0	0	0	492	449	1021	0	0	0	
14	0	0	0	0	490	446	1021	0	0	0	
15	0	0	0	0	490	445	1021	0	0	0	
0	0	0	0	0	491	445	1021	0	0	0	
1	0	0	0	0	494	446	1021	0	0	0	
2	0	0	0	0	497	447	1021	0	0	0	
3	0	0	0	0	501	448	1020	0	0	0	
4	0	0	0	0	505	451	1021	0	0	0	
5	0	0	0	0	510	454	1021	0	0	0	
6	0	0	0	0	515	457	1021	0	0	0	
7	0	0	0	0	521	462	1021	0	0	0	
8	0	0	0	0	527	466	1021	0	0	0	
9	0	0	0	0	532	471	1021	0	0	0	
10	0	0	0	0	538	476	1021	0	0	0	
11	0	0	0	0	544	482	1021	0	0	0	
12	0	0	0	0	550	488	1021	0	0	0	
13	0	0	0	0	555	493	1021	0	0	0	
14	0	0	0	0	560	498	1021	0	0	0	
15	0	0	0	0	563	502	1021	0	0	0	
0	0	0	0	0	565	505	1021	0	0	0	
1	0	0	0	0	566	507	1021	0	0	0	
2	0	0	0	0	564	507	1021	0	0	0	
3	0	0	0	0	562	506	1021	0	0	0	
4	0	0	0	0	558	504	1021	0	0	0	
5	0	0	0	0	553	501	1021	0	0	0	
6	0	0	0	0	548	497	1021	0	0	0	
7	0	0	0	0	542	492	1021	0	0	0	
8	0	0	0	0	536	487	1021	0	0	0	
9	0	0	0	0	529	482	1021	0	0	0	
10	0	0	0	0	524	478	1021	0	0	0	
11	0	0	0	0	519	473	1021	0	0	0	
12	0	0	0	0	515	470	1021	0	0	0	
13	0	0	0	0	513	467	1021	0	0	0	
14	0	0	0	0	512	465	1021	0	0	0	
15	0	0	0	0	512	463	1021	0	0	0	
0	0	0	0	0	512	462	1021	0	0	0	
1	0	0	0	0	512	461	1021	0	0	0	
2	0	0	0	0	513	460	1021	0	0	0	
3	0	0	0	0	513	458	1021	0	0	0	
4	0	0	0	0	512	455	1021	0	0	0	
5	0	0	0	0	510	452	1021	0	0	0	
6	0	0	0	0	506	448	1021	0	0	0	
7	0	0	0	0	500	442	1021	0	0	0	
8	0	0	0	0	491	435	1021	0	0	0	
9	0	0	0	0	480	424	1021	0	0	0	
10	0	0	0	0	466	412	1021	0	0	0	
11	0	0	0	0	450	398	1021	0	0	0	
12	0	0	0	0	432	382	1021	0	0	0	
13	0	0	0	0	412	364	1021	0	0	0	
14	0	0	0	0	391	344	1021	0	0	0	
15	0	0	0	0	369	325	1021	0	0	0	
0	0	0	0	0	347	304	1021	0	0	0	
1	0	0	0	0	326	285	1020	0	0	0	
2	0	0	0	0	306	265	1021	0	0	0	
3	0	0	0	0	288	248	1021	0	0	0	
4	0	0	0	0	272	231	1021	0	0	0	
5	0	0	0	0	260	218	1021	0	0	0	
6	0	0	0	0	251	207	1021	0	0	0	
7	0	0	0	0	245	200	1021	0	0	0	
8	0	0	0	0	244	198	1021	0	0	0	
9	0	0	0	0	249	199	1021	0	0	0	
10	0	0	0	0	257	204	1021	0	0	0	
11	0	0	0	0	271	213	1021	0	0	0	
12	0	0	0	0	287	227	1020	0	0	0	
13	0	0	0	0	308	244	1021	0	0	0	
14	0	0	0	0	332	264	1021	0	0	0	
15	0	0	0	0	359	286	1021	0	0	0	
0	0	0	0	0	386	310	1021	0	0	0	
1	0	0	0	0	414	335	1021	0	0	0	
2	0	0	0	0	443	361	1021	0	0	0	
3	0	0	0	0	470	387	1021	0	0	0	
4	0	0	0	0	494	411	1021	0	0	0	
5	0	0	0	0	516	433	1021	0	0	0	
6	0	0	0	0	535	453	1021	0	0	0	
7	0	0	0	0	550	470	1021	0	0	0	
8	0	0	0	0	560	483	1021	0	0	0	
9	0	0	0	0	566	493	1021	0	0	0	
10	0	0	0	0	568	499	1021	0	0	0	
11	0	0	0	0	567	501	1021	0	0	0	
12	0	0	0	0	563	500	1021	0	0	0	
13	0	0	0	0	555	497	1021	0	0	0	
14	0	0	0	0	547	491	1021	0	0	0	
15	0	0	0	0	537	484	1021	0	0	0	
0	0	0	0	0	527	478	1021	0	0	0	
1	0	0	0	0	519	471	1021	0	0	0	
2	0	0	0	0	512	465	1021	0	0	0	
3	0	0	0	0	507	461	1021	0	0	0	
4	0	0	0	0	505	459	1021	0	0	0	
5	0	0	0	0	506	459	1021	0	0	0	
6	0	0	0	0	510	461	1021	0	0	0	
7	0	0	0	0	516	465	1021	0	0	0	
8	0	0	0	0	525	472	1021	0	0	0	
9	0	0	0	0	536	480	1021	0	0	0	
10	0	0	0	0	547	490	1021	0	0	0	
11	0	0	0	0	561	502	1021	0	0	0	
12	0	0	0	0	575	513	1021	0	0	0	
13	0	0	0	0	588	524	1021	0	0	0	
14	0	0	0	0	600	535	1021	0	0	0	
15	0	0	0	0	610	544	1021	0	0	0	
0	0	0	0	0	619	553	1021	0	0	0	
1	0	0	0	0	625	559	1021	0	0	0	
2	0	0	0	0	628	564	1021	0	0	0	
3	0	0	0	0	629	566	1021	0	0	0	
4	0	0	0	0	625	564	1021	0	0	0	
5	0	0	0	0	619	559	1021	0	0	0	
6	0	0	0	0	608	551	1021	0	0	0	
7	0	0	0	0	595	540	1021	0	0	0	
8	0	0	0	0	579	527	1021	0	0	0	
9	0	0	0	0	562	512	1021	0	0	0	
10	0	0	0	0	545	497	1021	0	0	0	
11	0	0	0	0	529	483	1021	0	0	0	
12	0	0	0	0	515	471	1021	0	0	0	
13	0	0	0	0	504	460	1021	0	0	0	
14	0	0	0	0	495	452	1021	0	0	0	
15	0	0	0	0	491	447	1021	0	0	0	
0	0	0	0	0	489	444	1021	0	0	0	
1	0	0	0	0	491	444	1021	0	0	0	
2	0	0	0	0	496	447	1021	0	0	0	
3	0	0	0	0	502	451	1021	0	0	0	
4	0	0	0	0	511	457	1021	0	0	0	
5	0	0	0	0	520	463	1021	0	0	0	
6	0	0	0	0	530	470	1021	0	0	0	
7	0	0	0	0	539	476	1021	0	0	0	
8	0	0	0	0	546	483	1021	0	0	0	
9	0	0	0	0	553	487	1021	0	0	0	
10	0	0	0	0	558	492	1021	0	0	0	
11	0	0	0	0	561	495	1021	0	0	0	
12	0	0	0	0	563	498	1021	0	0	0	
13	0	0	0	0	564	500	1021	0	0	0	
14	0	0	0	0	565	502	1021	0	0	0	
15	0	0	0	0	565	504	1021	0	0	0	
0	0	0	0	0	565	507	1021	0	0	0	
1	0	0	0	0	566	509	1021	0	0	0	
2	0	0	0	0	566	511	1021	0	0	0	
3	0	0	0	0	567	514	1021	0	0	0	
4	0	0	0	0	568	516	1021	0	0	0	
5	0	0	0	0	569	518	1021	0	0	0	
6	0	0	0	0	569	519	1021	0	0	0	
7	0	0	0	0	568	518	1021	0	0	0	
8	0	0	0	0	567	518	1021	0	0	0	
9	0	0	0	0	564	515	1021	0	0	0	
10	0	0	0	0	562	513	1021	0	0	0	
11	0	0	0	0	559	509	1021	0	0	0	
12	0	0	0	0	554	505	1021	0	0	0	
13	0	0	0	0	550	501	1021	0	0	0	
14	0	0	0	0	546	497	1021	0	0	0	
15	0	0	0	0	543	492	1021	0	0	0	
0	0	0	0	0	539	489	1021	0	0	0	
1	0	0	0	0	537	486	1021	0	0	0	
2	0	0	0	0	536	484	1021	0	0	0	
3	0	0	0	0	535	483	1021	0	0	0	
4	0	0	0	0	536	483	1021	0	0	0	
5	0	0	0	0	537	484	1021	0	0	0	
6	0	0	0	0	539	486	1021	0	0	0	
7	0	0	0	0	541	487	1021	0	0	0	
8	0	0	0	0	544	490	1021	0	0	0	
9	0	0	0	0	548	493	1021	0	0	0	
10	0	0	0	0	551	496	1021	0	0	0	
11	0	0	0	0	556	499	1021	0	0	0	
12	0	0	0	0	560	504	1021	0	0	0	
13	0	0	0	0	565	508	1021	0	0	0	
14	0	0	0	0	569	512	1021	0	0	0	
15	0	0	0	0	572	515	1021	0	0	0	
0	0	0	0	0	575	518	1021	0	0	0	
1	0	0	0	0	575	519	1021	0	0	0	
2	0	0	0	0	575	519	1021	0	0	0	
3	0	0	0	0	574	519	1021	0	0	0	
4	0	0	0	0	572	517	1021	0	0	0	
5	0	0	0	0	569	515	1021	0	0	0	
6	0	0	0	0	566	513	1021	0	0	0	
7	0	0	0	0	563	510	1021	0	0	0	
8	0	0	0	0	559	507	1021	0	0	0	
9	0	0	0	0	556	505	1021	0	0	0	
10	0	0	0	0	555	504	1021	0	0	0	
11	0	0	0	0	554	503	1021	0	0	0	
12	0	0	0	0	555	503	1021	0	0	0	
13	0	0	0	0	557	505	1021	0	0	0	
14	0	0	0	0	560	507	1021	0	0	0	
15	0	0	0	0	564	510	1021	0	0	0	
0	0	0	0	0	568	513	1021	0	0	0	
1	0	0	0	0	572	516	1021	0	0	0	
2	0	0	0	0	575	519	1021	0	0	0	
3	0	0	0	0	577	520	1021	0	0	0	
4	0	0	0	0	579	520	1021	0	0	0	
5	0	0	0	0	578	519	1021	0	0	0	
6	0	0	0	0	575	517	1021	0	0	0	
7	0	0	0	0	571	513	1021	0	0	0	
8	0	0	0	0	565	507	1020	0	0	0	
9	0	0	0	0	558	501	1021	0	0	0	
10	0	0	0	0	550	494	1021	0	0	0	
11	0	0	0	0	542	488	1021	0	0	0	
12	0	0	0	0	535	482	1021	0	0	0	
13	0	0	0	0	528	477	1021	0	0	0	
14	0	0	0	0	524	474	1021	0	0	0	
15	0	0	0	0	521	472	1021	0	0	0	
0	0	0	0	0	520	472	1021	0	0	0	
1	0	0	0	0	522	472	1021	0	0	0	
2	0	0	0	0	525	475	1021	0	0	0	
3	0	0	0	0	529	479	1021	0	0	0	
4	0	0	0	0	535	483	1021	0	0	0	
5	0	0	0	0	541	487	1021	0	0	0	
6	0	0	0	0	547	491	1021	0	0	0	
7	0	0	0	0	552	494	1021	0	0	0	
8	0	0	0	0	555	495	1021	0	0	0	
9	0	0	0	0	556	495	1021	0	0	0	
10	0	0	0	0	555	493	1021	0	0	0	
11	0	0	0	0	552	490	1021	0	0	0	
12	0	0	0	0	548	486	1021	0	0	0	
13	0	0	0	0	544	482	1021	0	0	0	
14	0	0	0	0	539	478	1021	0	0	0	
15	0	0	0	0	535	475	1021	0	0	0	
0	0	0	0	0	531	473	1021	0	0	0	
1	0	0	0	0	528	472	1021	0	0	0	
2	0	0	0	0	527	472	1021	0	0	0	
3	0	0	0	0	528	474	1021	0	0	0	
4	0	0	0	0	531	478	1021	0	0	0	
5	0	0	0	0	536	484	1021	0	0	0	
6	0	0	0	0	543	490	1021	0	0	0	
7	0	0	0	0	550	497	1021	0	0	0	
8	0	0	0	0	557	504	1021	0	0	0	
9	0	0	0	0	563	510	1021	0	0	0	
10	0	0	0	0	568	514	1021	0	0	0	
11	0	0	0	0	571	515	1021	0	0	0	
12	0	0	0	0	569	514	1021	0	0	0	
13	0	0	0	0	566	510	1021	0	0	0	
14	0	0	0	0	559	504	1021	0	0	0	
15	0	0	0	0	550	496	1021	0	0	0	
0	0	0	0	0	540	487	1021	0	0	0	
1	0	0	0	0	528	476	1021	0	0	0	
2	0	0	0	0	517	467	1021	0	0	0	
3	0	0	0	0	508	459	1021	0	0	0	
4	0	0	0	0	501	453	1020	0	0	0	
5	0	0	0	0	496	450	1021	0	0	0	
6	0	0	0	0	496	450	1021	0	0	0	
7	0	0	0	0	499	453	1021	0	0	0	
8	0	0	0	0	505	459	1021	0	0	0	
9	0	0	0	0	515	467	1021	0	0	0	
10	0	0	0	0	527	477	1021	0	0	0	
11	0	0	0	0	539	487	1021	0	0	0	
12	0	0	0	0	553	497	1021	0	0	0	
13	0	0	0	0	565	507	1021	0	0	0	
14	0	0	0	0	575	515	1021	0	0	0	
15	0	0	0	0	582	519	1021	0	0	0	
0	0	0	0	0	584	520	1021	0	0	0	
1	0	0	0	0	583	519	1021	0	0	0	
2	0	0	0	0	577	513	1021	0	0	0	
3	0	0	0	0	568	505	1021	0	0	0	
4	0	0	0	0	555	495	1021	0	0	0	
5	0	0	0	0	540	483	1021	0	0	0	
6	0	0	0	0	526	471	1021	0	0	0	
7	0	0	0	0	512	460	1021	0	0	0	
8	0	0	0	0	502	452	1021	0	0	0	
9	0	0	0	0	494	446	1021	0	0	0	
10	0	0	0	0	489	443	1021	0	0	0	
11	0	0	0	0	491	444	1021	0	0	0	
12	0	0	0	0	496	449	1021	0	0	0	
13	0	0	0	0	506	457	1021	0	0	0	
14	0	0	0	0	519	468	1021	0	0	0	
15	0	0	0	0	534	481	1021	0	0	0	
0	0	0	0	0	550	494	1021	0	0	0	
1	0	0	0	0	566	507	1021	0	0	0	
2	0	0	0	0	580	518	1021	0	0	0	
3	0	0	0	0	591	527	1021	0	0	0	
4	0	0	0	0	598	533	1021	0	0	0	
5	0	0	0	0	601	535	1021	0	0	0	
6	0	0	0	0	600	534	1021	0	0	0	
7	0	0	0	0	595	530	1021	0	0	0	
8	0	0	0	0	587	524	1021	0	0	0	
9	0	0	0	0	576	516	1021	0	0	0	
10	0	0	0	0	563	506	1021	0	0	0	
11	0	0	0	0	550	496	1021	0	0	0	
12	0	0	0	0	537	487	1021	0	0	0	
13	0	0	0	0	526	479	1021	0	0	0	
14	0	0	0	0	517	473	1021	0	0	0	
15	0	0	0	0	512	469	1021	0	0	0	
0	0	0	0	0	510	468	1021	0	0	0	
1	0	0	0	0	511	470	1021	0	0	0	
2	0	0	0	0	515	473	1021	0	0	0	
3	0	0	0	0	521	478	1021	0	0	0	
4	0	0	0	0	529	484	1021	0	0	0	
5	0	0	0	0	539	491	1021	0	0	0	
6	0	0	0	0	547	497	1021	0	0	0	
7	0	0	0	0	556	503	1021	0	0	0	
8	0	0	0	0	562	508	1021	0	0	0	
9	0	0	0	0	567	510	1021	0	0	0	
10	0	0	0	0	570	511	1021	0	0	0	
11	0	0	0	0	570	511	1021	0	0	0	
12	0	0	0	0	568	509	1021	0	0	0	
13	0	0	0	0	566	507	1021	0	0	0	
14	0	0	0	0	562	504	1021	0	0	0	
15	0	0	0	0	559	501	1021	0	0	0	
0	0	0	0	0	555	498	1021	0	0	0	
1	0	0	0	0	551	495	1021	0	0	0	
2	0	0	0	0	547	493	1021	0	0	0	
3	0	0	0	0	543	490	1021	0	0	0	
4	0	0	0	0	540	487	1021	0	0	0	
5	0	0	0	0	536	484	1021	0	0	0	
6	0	0	0	0	533	482	1021	0	0	0	
7	0	0	0	0	529	478	1021	0	0	0	
8	0	0	0	0	525	475	1021	0	0	0	
9	0	0	0	0	521	471	1021	0	0	0	
10	0	0	0	0	517	467	1021	0	0	0	
11	0	0	0	0	513	464	1021	0	0	0	
12	0	0	0	0	511	462	1021	0	0	0	
13	0	0	0	0	510	460	1021	0	0	0	
14	0	0	0	0	508	459	1021	0	0	0	
15	0	0	0	0	509	460	1021	0	0	0	
0	0	0	0	0	510	460	1021	0	0	0	
1	0	0	0	0	513	462	1021	0	0	0	
2	0	0	0	0	516	465	1021	0	0	0	
3	0	0	0	0	521	469	1021	0	0	0	
4	0	0	0	0	527	474	1021	0	0	0	
5	0	0	0	0	533	480	1021	0	0	0	
6	0	0	0	0	540	487	1021	0	0	0	
7	0	0	0	0	548	494	1021	0	0	0	
8	0	0	0	0	557	502	1021	0	0	0	
9	0	0	0	0	565	509	1021	0	0	0	
10	0	0	0	0	572	515	1021	0	0	0	
11	0	0	0	0	578	521	1021	0	0	0	
12	0	0	0	0	582	526	1021	0	0	0	
13	0	0	0	0	584	527	1021	0	0	0	
14	0	0	0	0	583	527	1021	0	0	0	
15	0	0	0	0	580	525	1021	0	0	0	
0	0	0	0	0	575	520	1021	0	0	0	
1	0	0	0	0	568	515	1021	0	0	0	
2	0	0	0	0	560	508	1021	0	0	0	
3	0	0	0	0	551	501	1021	0	0	0	
4	0	0	0	0	543	493	1021	0	0	0	
5	0	0	0	0	533	486	1021	0	0	0	
6	0	0	0	0	526	479	1021	0	0	0	
7	0	0	0	0	519	473	1021	0	0	0	
8	0	0	0	0	515	470	1021	0	0	0	
9	0	0	0	0	513	467	1021	0	0	0	
10	0	0	0	0	512	467	1021	0	0	0	
11	0	0	0	0	515	468	1021	0	0	0	
12	0	0	0	0	519	472	1021	0	0	0	
13	0	0	0	0	525	476	1021	0	0	0	
14	0	0	0	0	532	482	1021	0	0	0	
15	0	0	0	0	540	487	1021	0	0	0	
0	0	0	0	0	547	493	1021	0	0	0	
1	0	0	0	0	554	498	1021	0	0	0	
2	0	0	0	0	560	503	1021	0	0	0	
3	0	0	0	0	564	505	1021	0	0	0	
4	0	0	0	0	568	508	1021	0	0	0	
5	0	0	0	0	570	509	1021	0	0	0	
6	0	0	0	0	571	511	1021	0	0	0	
7	0	0	0	0	572	512	1021	0	0	0	
8	0	0	0	0	572	512	1021	0	0	0	
9	0	0	0	0	571	512	1021	0	0	0	
10	0	0	0	0	569	512	1021	0	0	0	
11	0	0	0	0	566	510	1021	0	0	0	
12	0	0	0	0	562	508	1021	0	0	0	
13	0	0	0	0	558	505	1021	0	0	0	
14	0	0	0	0	552	501	1021	0	0	0	
15	0	0	0	0	547	498	1021	0	0	0	
0	0	0	0	0	542	494	1021	0	0	0	
1	0	0	0	0	537	490	1021	0	0	0	
2	0	0	0	0	532	486	1021	0	0	0	
3	0	0	0	0	527	482	1021	0	0	0	
4	0	0	0	0	523	478	1021	0	0	0	
5	0	0	0	0	518	472	1021	0	0	0	
6	0	0	0	0	512	467	1021	0	0	0	
7	0	0	0	0	507	460	1021	0	0	0	
8	0	0	0	0	500	454	1021	0	0	0	
9	0	0	0	0	495	448	1021	0	0	0	
10	0	0	0	0	489	442	1021	0	0	0	
11	0	0	0	0	485	438	1021	0	0	0	
12	0	0	0	0	482	435	1021	0	0	0	
13	0	0	0	0	481	433	1021	0	0	0	
14	0	0	0	0	482	434	1021	0	0	0	
15	0	0	0	0	486	437	1021	0	0	0	
0	0	0	0	0	492	442	1021	0	0	0	
1	0	0	0	0	499	448	1020	0	0	0	
2	0	0	0	0	509	456	1021	0	0	0	
3	0	0	0	0	519	465	1021	0	0	0	
4	0	0	0	0	530	475	1021	0	0	0	
5	0	0	0	0	542	484	1021	0	0	0	
6	0	0	0	0	553	494	1021	0	0	0	
7	0	0	0	0	563	503	1021	0	0	0	
8	0	0	0	0	572	510	1021	0	0	0	
9	0	0	0	0	580	516	1021	0	0	0	
10	0	0	0	0	584	520	1021	0	0	0	
11	0	0	0	0	587	522	1021	0	0	0	
12	0	0	0	0	585	520	1021	0	0	0	
13	0	0	0	0	582	518	1021	0	0	0	
14	0	0	0	0	576	513	1021	0	0	0	
15	0	0	0	0	568	507	1021	0	0	0	
0	0	0	0	0	558	500	1021	0	0	0	
1	0	0	0	0	548	493	1021	0	0	0	
2	0	0	0	0	539	486	1021	0	0	0	
3	0	0	0	0	530	481	1021	0	0	0	
4	0	0	0	0	522	476	1021	0	0	0	
5	0	0	0	0	516	472	1021	0	0	0	
6	0	0	0	0	511	469	1021	0	0	0	
7	0	0	0	0	510	468	1021	0	0	0	
8	0	0	0	0	510	469	1021	0	0	0	
9	0	0	0	0	512	471	1021	0	0	0	
10	0	0	0	0	517	474	1021	0	0	0	
11	0	0	0	0	523	478	1021	0	0	0	
12	0	0	0	0	531	484	1021	0	0	0	
13	0	0	0	0	540	490	1021	0	0	0	
14	0	0	0	0	549	497	1021	0	0	0	
15	0	0	0	0	558	503	1021	0	0	0	
0	0	0	0	0	565	508	1021	0	0	0	
1	0	0	0	0	571	512	1021	0	0	0	
2	0	0	0	0	573	513	1021	0	0	0	
3	0	0	0	0	573	513	1021	0	0	0	
4	0	0	0	0	570	510	1021	0	0	0	
5	0	0	0	0	564	504	1021	0	0	0	
6	0	0	0	0	556	499	1021	0	0	0	
7	0	0	0	0	547	492	1021	0	0	0	
8	0	0	0	0	538	485	1021	0	0	0	
9	0	0	0	0	529	478	1021	0	0	0	
10	0	0	0	0	522	473	1021	0	0	0	
11	0	0	0	0	517	470	1021	0	0	0	
12	0	0	0	0	514	467	1021	0	0	0	
13	0	0	0	0	513	467	1021	0	0	0	
14	0	0	0	0	515	468	1021	0	0	0	
15	0	0	0	0	519	472	1021	0	0	0	
0	0	0	0	0	525	476	1021	0	0	0	
1	0	0	0	0	533	483	1021	0	0	0	
2	0	0	0	0	541	489	1021	0	0	0	
3	0	0	0	0	549	495	1021	0	0	0	
4	0	0	0	0	556	499	1021	0	0	0	
5	0	0	0	0	560	502	1021	0	0	0	
6	0	0	0	0	562	502	1021	0	0	0	
7	0	0	0	0	561	500	1021	0	0	0	
8	0	0	0	0	557	496	1021	0	0	0	
9	0	0	0	0	550	490	1021	0	0	0	
10	0	0	0	0	542	483	1021	0	0	0	
11	0	0	0	0	532	475	1021	0	0	0	
12	0	0	0	0	523	467	1021	0	0	0	
13	0	0	0	0	514	461	1021	0	0	0	
14	0	0	0	0	507	456	1021	0	0	0	
15	0	0	0	0	503	454	1021	0	0	0	
0	0	0	0	0	502	454	1021	0	0	0	
1	0	0	0	0	504	457	1021	0	0	0	
2	0	0	0	0	509	463	1021	0	0	0	
3	0	0	0	0	518	471	1021	0	0	0	
4	0	0	0	0	529	480	1021	0	0	0	
5	0	0	0	0	541	491	1021	0	0	0	
6	0	0	0	0	555	503	1021	0	0	0	
7	0	0	0	0	568	513	1021	0	0	0	
8	0	0	0	0	579	523	1021	0	0	0	
9	0	0	0	0	589	531	1021	0	0	0	
10	0	0	0	0	596	536	1021	0	0	0	
11	0	0	0	0	600	539	1021	0	0	0	
12	0	0	0	0	600	538	1021	0	0	0	
13	0	0	0	0	595	534	1021	0	0	0	
14	0	0	0	0	586	526	1021	0	0	0	
15	0	0	0	0	573	515	1021	0	0	0	
0	0	0	0	0	557	503	1021	0	0	0	
1	0	0	0	0	540	489	1021	0	0	0	
2	0	0	0	0	522	476	1021	0	0	0	
3	0	0	0	0	507	463	1021	0	0	0	
4	0	0	0	0	492	452	1021	0	0	0	
5	0	0	0	0	483	444	1021	0	0	0	
6	0	0	0	0	477	440	1021	0	0	0	
7	0	0	0	0	476	439	1021	0	0	0	
8	0	0	0	0	480	443	1021	0	0	0	
9	0	0	0	0	490	449	1021	0	0	0	
10	0	0	0	0	504	460	1021	0	0	0	
11	0	0	0	0	521	473	1021	0	0	0	
12	0	0	0	0	540	488	1021	0	0	0	
13	0	0	0	0	560	503	1021	0	0	0	
14	0	0	0	0	577	515	1021	0	0	0	
15	0	0	0	0	590	525	1021	0	0	0	
0	0	0	0	0	597	529	1021	0	0	0	
1	0	0	0	0	599	529	1021	0	0	0	
2	0	0	0	0	595	525	1021	0	0	0	
3	0	0	0	0	585	517	1021	0	0	0	
4	0	0	0	0	571	505	1021	0	0	0	
5	0	0	0	0	554	492	1021	0	0	0	
6	0	0	0	0	536	478	1021	0	0	0	
7	0	0	0	0	519	465	1021	0	0	0	
8	0	0	0	0	504	455	1021	0	0	0	
9	0	0	0	0	493	447	1021	0	0	0	
10	0	0	0	0	485	442	1020	0	0	0	
11	0	0	0	0	483	441	1021	0	0	0	
12	0	0	0	0	484	443	1021	0	0	0	
13	0	0	0	0	490	448	1021	0	0	0	
14	0	0	0	0	498	454	1021	0	0	0	
15	0	0	0	0	508	461	1021	0	0	0	
0	0	0	0	0	519	468	1021	0	0	0	
1	0	0	0	0	528	475	1021	0	0	0	
2	0	0	0	0	538	481	1021	0	0	0	
3	0	0	0	0	545	486	1021	0	0	0	
4	0	0	0	0	551	490	1021	0	0	0	
5	0	0	0	0	555	493	1021	0	0	0	
6	0	0	0	0	558	496	1021	0	0	0	
7	0	0	0	0	560	498	1021	0	0	0	
8	0	0	0	0	560	500	1021	0	0	0	
9	0	0	0	0	560	502	1021	0	0	0	
10	0	0	0	0	559	504	1021	0	0	0	
11	0	0	0	0	559	505	1021	0	0	0	
12	0	0	0	0	557	505	1021	0	0	0	
13	0	0	0	0	555	505	1021	0	0	0	
14	0	0	0	0	552	504	1021	0	0	0	
15	0	0	0	0	549	501	1021	0	0	0	
0	0	0	0	0	544	498	1021	0	0	0	
1	0	0	0	0	540	493	1021	0	0	0	
2	0	0	0	0	534	487	1021	0	0	0	
3	0	0	0	0	528	481	1021	0	0	0	
4	0	0	0	0	522	475	1021	0	0	0	
5	0	0	0	0	516	469	1021	0	0	0	
6	0	0	0	0	511	463	1021	0	0	0	
7	0	0	0	0	508	459	1021	0	0	0	
8	0	0	0	0	507	457	1021	0	0	0	
9	0	0	0	0	509	457	1021	0	0	0	
10	0	0	0	0	513	460	1021	0	0	0	
11	0	0	0	0	519	466	1021	0	0	0	
12	0	0	0	0	528	472	1021	0	0	0	
13	0	0	0	0	537	481	1021	0	0	0	
14	0	0	0	0	548	490	1021	0	0	0	
15	0	0	0	0	558	499	1021	0	0	0	
0	0	0	0	0	567	507	1021	0	0	0	
1	0	0	0	0	573	513	1021	0	0	0	
2	0	0	0	0	577	516	1021	0	0	0	
3	0	0	0	0	578	518	1021	0	0	0	
4	0	0	0	0	575	516	1021	0	0	0	
5	0	0	0	0	572	513	1021	0	0	0	
6	0	0	0	0	566	508	1021	0	0	0	
7	0	0	0	0	559	503	1021	0	0	0	
8	0	0	0	0	551	497	1021	0	0	0	
9	0	0	0	0	544	492	1021	0	0	0	
10	0	0	0	0	537	486	1021	0	0	0	
11	0	0	0	0	531	480	1021	0	0	0	
12	0	0	0	0	526	475	1021	0	0	0	
13	0	0	0	0	521	471	1021	0	0	0	
14	0	0	0	0	517	467	1021	0	0	0	
15	0	0	0	0	515	465	1021	0	0	0	
0	0	0	0	0	513	463	1021	0	0	0	
1	0	0	0	0	513	462	1021	0	0	0	
2	0	0	0	0	513	462	1021	0	0	0	
3	0	0	0	0	517	464	1021	0	0	0	
4	0	0	0	0	521	467	1021	0	0	0	
5	0	0	0	0	526	471	1021	0	0	0	
6	0	0	0	0	531	475	1021	0	0	0	
7	0	0	0	0	538	480	1021	0	0	0	
8	0	0	0	0	544	486	1021	0	0	0	
9	0	0	0	0	551	491	1021	0	0	0	
10	0	0	0	0	556	495	1021	0	0	0	
11	0	0	0	0	559	498	1021	0	0	0	
12	0	0	0	0	560	500	1021	0	0	0	
13	0	0	0	0	560	500	1021	0	0	0	
14	0	0	0	0	557	499	1021	0	0	0	
15	0	0	0	0	552	495	1021	0	0	0	
0	0	0	0	0	545	490	1021	0	0	0	
1	0	0	0	0	538	484	1021	0	0	0	
2	0	0	0	0	530	478	1021	0	0	0	
3	0	0	0	0	523	472	1021	0	0	0	
4	0	0	0	0	516	467	1021	0	0	0	
5	0	0	0	0	511	462	1021	0	0	0	
6	0	0	0	0	507	459	1021	0	0	0	
7	0	0	0	0	505	457	1021	0	0	0	
8	0	0	0	0	505	457	1021	0	0	0	
9	0	0	0	0	507	458	1021	0	0	0	
10	0	0	0	0	510	460	1021	0	0	0	
11	0	0	0	0	514	463	1021	0	0	0	
12	0	0	0	0	519	467	1021	0	0	0	
13	0	0	0	0	525	471	1021	0	0	0	
14	0	0	0	0	531	475	1021	0	0	0	
15	0	0	0	0	536	479	1021	0	0	0	
0	0	0	0	0	540	483	1021	0	0	0	
1	0	0	0	0	545	487	1021	0	0	0	
2	0	0	0	0	550	491	1021	0	0	0	
3	0	0	0	0	554	495	1021	0	0	0	
4	0	0	0	0	557	499	1021	0	0	0	
5	0	0	0	0	561	503	1021	0	0	0	
6	0	0	0	0	564	507	1021	0	0	0	
7	0	0	0	0	566	510	1021	0	0	0	
8	0	0	0	0	568	513	1021	0	0	0	
9	0	0	0	0	568	514	1021	0	0	0	
10	0	0	0	0	567	513	1021	0	0	0	
11	0	0	0	0	563	511	1021	0	0	0	
12	0	0	0	0	558	506	1021	0	0	0	
13	0	0	0	0	550	499	1021	0	0	0	
14	0	0	0	0	540	492	1021	0	0	0	
15	0	0	0	0	531	483	1021	0	0	0	
0	0	0	0	0	521	475	1021	0	0	0	
1	0	0	0	0	512	467	1021	0	0	0	
2	0	0	0	0	504	460	1021	0	0	0	
3	0	0	0	0	499	455	1021	0	0	0	
4	0	0	0	0	495	451	1021	0	0	0	
5	0	0	0	0	495	450	1021	0	0	0	
6	0	0	0	0	497	451	1021	0	0	0	
7	0	0	0	0	502	454	1021	0	0	0	
8	0	0	0	0	508	459	1021	0	0	0	
9	0	0	0	0	516	464	1021	0	0	0	
10	0	0	0	0	525	472	1021	0	0	0	
11	0	0	0	0	534	479	1021	0	0	0	
12	0	0	0	0	543	486	1021	0	0	0	
13	0	0	0	0	550	491	1021	0	0	0	
14	0	0	0	0	556	496	1021	0	0	0	
15	0	0	0	0	560	499	1021	0	0	0	
0	0	0	0	0	561	501	1021	0	0	0	
1	0	0	0	0	560	500	1021	0	0	0	
2	0	0	0	0	558	499	1021	0	0	0	
3	0	0	0	0	555	497	1021	0	0	0	
4	0	0	0	0	551	494	1021	0	0	0	
5	0	0	0	0	546	492	1021	0	0	0	
6	0	0	0	0	541	488	1021	0	0	0	
7	0	0	0	0	536	485	1021	0	0	0	
8	0	0	0	0	532	482	1021	0	0	0	
9	0	0	0	0	528	480	1021	0	0	0	
10	0	0	0	0	525	478	1021	0	0	0	
11	0	0	0	0	521	475	1021	0	0	0	
12	0	0	0	0	519	472	1021	0	0	0	
13	0	0	0	0	515	468	1021	0	0	0	
14	0	0	0	0	512	465	1021	0	0	0	
15	0	0	0	0	508	461	1021	0	0	0	
0	0	0	0	0	504	456	1021	0	0	0	
1	0	0	0	0	499	451	1021	0	0	0	
2	0	0	0	0	495	448	1021	0	0	0	
3	0	0	0	0	492	445	1021	0	0	0	
4	0	0	0	0	489	442	1021	0	0	0	
5	0	0	0	0	488	441	1021	0	0	0	
6	0	0	0	0	489	441	1021	0	0	0	
7	0	0	0	0	490	442	1021	0	0	0	
8	0	0	0	0	493	444	1021	0	0	0	
9	0	0	0	0	497	448	1021	0	0	0	
10	0	0	0	0	503	451	1021	0	0	0	
11	0	0	0	0	508	455	1021	0	0	0	
12	0	0	0	0	514	460	1021	0	0	0	
13	0	0	0	0	520	466	1021	0	0	0	
14	0	0	0	0	527	471	1021	0	0	0	
15	0	0	0	0	535	477	1021	0	0	0	
0	0	0	0	0	541	482	1021	0	0	0	
1	0	0	0	0	547	487	1021	0	0	0	
2	0	0	0	0	553	493	1021	0	0	0	
3	0	0	0	0	559	498	1021	0	0	0	
4	0	0	0	0	563	503	1021	0	0	0	
5	0	0	0	0	568	507	1021	0	0	0	
6	0	0	0	0	571	510	1021	0	0	0	
7	0	0	0	0	573	513	1021	0	0	0	
8	0	0	0	0	574	515	1021	0	0	0	
9	0	0	0	0	573	515	1021	0	0	0	
10	0	0	0	0	571	513	1021	0	0	0	
11	0	0	0	0	566	510	1021	0	0	0	
12	0	0	0	0	561	506	1021	0	0	0	
13	0	0	0	0	555	502	1021	0	0	0	
14	0	0	0	0	548	496	1021	0	0	0	
15	0	0	0	0	542	491	1021	0	0	0	
0	0	0	0	0	536	486	1021	0	0	0	
1	0	0	0	0	532	482	1021	0	0	0	
2	0	0	0	0	530	480	1021	0	0	0	
3	0	0	0	0	530	480	1021	0	0	0	
4	0	0	0	0	532	481	1021	0	0	0	
5	0	0	0	0	537	484	1021	0	0	0	
6	0	0	0	0	543	489	1021	0	0	0	
7	0	0	0	0	551	495	1021	0	0	0	
8	0	0	0	0	560	502	1021	0	0	0	
9	0	0	0	0	569	509	1021	0	0	0	
10	0	0	0	0	576	515	1021	0	0	0	
11	0	0	0	0	582	520	1021	0	0	0	
12	0	0	0	0	584	522	1021	0	0	0	
13	0	0	0	0	583	521	1021	0	0	0	
14	0	0	0	0	577	518	1021	0	0	0	
15	0	0	0	0	569	511	1021	0	0	0	
0	0	0	0	0	559	503	1021	0	0	0	
1	0	0	0	0	547	493	1021	0	0	0	
2	0	0	0	0	533	482	1021	0	0	0	
3	0	0	0	0	519	471	1021	0	0	0	
4	0	0	0	0	506	460	1021	0	0	0	
5	0	0	0	0	494	451	1021	0	0	0	
6	0	0	0	0	485	443	1021	0	0	0	
7	0	0	0	0	479	438	1021	0	0	0	
8	0	0	0	0	476	435	1021	0	0	0	
9	0	0	0	0	478	435	1021	0	0	0	
10	0	0	0	0	482	438	1021	0	0	0	
11	0	0	0	0	490	443	1021	0	0	0	
12	0	0	0	0	500	451	1021	0	0	0	
13	0	0	0	0	512	460	1021	0	0	0	
14	0	0	0	0	525	469	1021	0	0	0	
15	0	0	0	0	538	479	1021	0	0	0	
0	0	0	0	0	550	488	1021	0	0	0	
1	0	0	0	0	559	496	1021	0	0	0	
2	0	0	0	0	567	502	1021	0	0	0	
3	0	0	0	0	571	507	1021	0	0	0	
4	0	0	0	0	573	509	1021	0	0	0	
5	0	0	0	0	572	509	1021	0	0	0	
6	0	0	0	0	569	508	1021	0	0	0	
7	0	0	0	0	563	504	1021	0	0	0	
8	0	0	0	0	557	500	1021	0	0	0	
9	0	0	0	0	550	495	1021	0	0	0	
10	0	0	0	0	542	489	1021	0	0	0	
11	0	0	0	0	533	482	1021	0	0	0	
12	0	0	0	0	524	474	1021	0	0	0	
13	0	0	0	0	514	465	1021	0	0	0	
14	0	0	0	0	503	455	1021	0	0	0	
15	0	0	0	0	492	444	1021	0	0	0	
0	0	0	0	0	479	432	1021	0	0	0	
1	0	0	0	0	465	420	1020	0	0	0	
2	0	0	0	0	452	406	1021	0	0	0	
3	0	0	0	0	437	391	1021	0	0	0	
4	0	0	0	0	423	377	1021	0	0	0	
5	0	0	0	0	408	362	1021	0	0	0	
6	0	0	0	0	395	348	1021	0	0	0	
7	0	0	0	0	382	334	1021	0	0	0	
8	0	0	0	0	370	323	1021	0	0	0	
9	0	0	0	0	360	312	1021	0	0	0	
10	0	0	0	0	352	303	1021	0	0	0	
11	0	0	0	0	344	294	1021	0	0	0	
12	0	0	0	0	337	286	1021	0	0	0	
13	0	0	0	0	331	279	1021	0	0	0	
14	0	0	0	0	324	271	1021	0	0	0	
15	0	0	0	0	317	263	1021	0	0	0	
0	0	0	0	0	310	255	1021	0	0	0	
1	0	0	0	0	302	247	1021	0	0	0	
2	0	0	0	0	295	239	1021	0	0	0	
3	0	0	0	0	290	234	1021	0	0	0	
4	0	0	0	0	287	231	1021	0	0	0	
5	0	0	0	0	287	231	1021	0	0	0	
6	0	0	0	0	292	235	1021	0	0	0	
7	0	0	0	0	302	244	1021	0	0	0	
8	0	0	0	0	317	258	1021	0	0	0	
9	0	0	0	0	336	276	1021	0	0	0	
10	0	0	0	0	359	297	1021	0	0	0	
11	0	0	0	0	386	320	1021	0	0	0	
12	0	0	0	0	415	347	1021	0	0	0	
13	0	0	0	0	446	375	1021	0	0	0	
14	0	0	0	0	476	403	1021	0	0	0	
15	0	0	0	0	506	431	1021	0	0	0	
0	0	0	0	0	534	457	1021	0	0	0	
1	0	0	0	0	558	479	1021	0	0	0	
2	0	0	0	0	576	497	1021	0	0	0	
3	0	0	0	0	590	511	1021	0	0	0	
4	0	0	0	0	598	519	1021	0	0	0	
5	0	0	0	0	599	523	1021	0	0	0	
6	0	0	0	0	595	523	1021	0	0	0	
7	0	0	0	0	588	518	1021	0	0	0	
8	0	0	0	0	575	510	1021	0	0	0	
9	0	0	0	0	562	500	1021	0	0	0	
10	0	0	0	0	547	490	1021	0	0	0	
11	0	0	0	0	533	480	1021	0	0	0	
12	0	0	0	0	520	471	1021	0	0	0	
13	0	0	0	0	510	464	1021	0	0	0	
14	0	0	0	0	502	459	1021	0	0	0	
15	0	0	0	0	498	456	1021	0	0	0	
0	0	0	0	0	497	456	1021	0	0	0	
1	0	0	0	0	501	459	1021	0	0	0	
2	0	0	0	0	506	463	1021	0	0	0	
3	0	0	0	0	514	469	1021	0	0	0	
4	0	0	0	0	524	475	1021	0	0	0	
5	0	0	0	0	534	482	1021	0	0	0	
6	0	0	0	0	544	488	1021	0	0	0	
7	0	0	0	0	553	493	1021	0	0	0	
8	0	0	0	0	560	497	1021	0	0	0	
9	0	0	0	0	564	499	1021	0	0	0	
10	0	0	0	0	567	500	1021	0	0	0	
11	0	0	0	0	568	501	1021	0	0	0	
12	0	0	0	0	566	500	1021	0	0	0	
13	0	0	0	0	564	499	1021	0	0	0	
14	0	0	0	0	560	497	1021	0	0	0	
15	0	0	0	0	557	496	1021	0	0	0	
0	0	0	0	0	553	495	1021	0	0	0	
1	0	0	0	0	550	494	1021	0	0	0	
2	0	0	0	0	547	494	1021	0	0	0	
3	0	0	0	0	546	495	1021	0	0	0	
4	0	0	0	0	547	498	1021	0	0	0	
5	0	0	0	0	550	501	1021	0	0	0	
6	0	0	0	0	553	504	1021	0	0	0	
7	0	0	0	0	558	509	1021	0	0	0	
8	0	0	0	0	562	513	1021	0	0	0	
9	0	0	0	0	568	517	1021	0	0	0	
10	0	0	0	0	572	520	1021	0	0	0	
11	0	0	0	0	576	523	1021	0	0	0	
12	0	0	0	0	580	524	1021	0	0	0	
13	0	0	0	0	581	524	1021	0	0	0	
14	0	0	0	0	580	523	1021	0	0	0	
15	0	0	0	0	578	519	1021	0	0	0	
0	0	0	0	0	573	514	1021	0	0	0	
1	0	0	0	0	567	508	1021	0	0	0	
2	0	0	0	0	559	503	1021	0	0	0	
3	0	0	0	0	552	496	1021	0	0	0	
4	0	0	0	0	544	490	1021	0	0	0	
5	0	0	0	0	538	485	1021	0	0	0	
6	0	0	0	0	532	481	1021	0	0	0	
7	0	0	0	0	528	478	1021	0	0	0	
8	0	0	0	0	526	476	1021	0	0	0	
9	0	0	0	0	524	475	1021	0	0	0	
10	0	0	0	0	524	474	1021	0	0	0	
11	0	0	0	0	525	474	1021	0	0	0	
12	0	0	0	0	527	475	1021	0	0	0	
13	0	0	0	0	529	476	1021	0	0	0	
14	0	0	0	0	531	477	1021	0	0	0	
15	0	0	0	0	534	479	1021	0	0	0	
0	0	0	0	0	537	480	1021	0	0	0	
1	0	0	0	0	540	482	1021	0	0	0	
2	0	0	0	0	543	485	1021	0	0	0	
3	0	0	0	0	546	488	1021	0	0	0	
4	0	0	0	0	548	490	1021	0	0	0	
5	0	0	0	0	551	492	1021	0	0	0	
6	0	0	0	0	553	495	1021	0	0	0	
7	0	0	0	0	555	497	1021	0	0	0	
8	0	0	0	0	557	499	1021	0	0	0	
9	0	0	0	0	559	501	1021	0	0	0	
10	0	0	0	0	560	502	1020	0	0	0	
11	0	0	0	0	561	504	1021	0	0	0	
12	0	0	0	0	562	505	1021	0	0	0	
13	0	0	0	0	563	505	1021	0	0	0	
14	0	0	0	0	563	505	1021	0	0	0	
15	0	0	0	0	562	504	1021	0	0	0	
0	0	0	0	0	560	502	1021	0	0	0	
1	0	0	0	0	556	499	1021	0	0	0	
2	0	0	0	0	552	495	1021	0	0	0	
3	0	0	0	0	546	489	1020	0	0	0	
4	0	0	0	0	539	483	1021	0	0	0	
5	0	0	0	0	532	478	1021	0	0	0	
6	0	0	0	0	525	472	1021	0	0	0	
7	0	0	0	0	519	467	1021	0	0	0	
8	0	0	0	0	515	464	1021	0	0	0	
9	0	0	0	0	512	461	1021	0	0	0	
10	0	0	0	0	511	460	1021	0	0	0	
11	0	0	0	0	511	461	1021	0	0	0	
12	0	0	0	0	513	463	1021	0	0	0	
13	0	0	0	0	517	467	1021	0	0	0	
14	0	0	0	0	524	472	1021	0	0	0	
15	0	0	0	0	531	479	1021	0	0	0	
0	0	0	0	0	540	486	1021	0	0	0	
1	0	0	0	0	549	494	1021	0	0	0	
2	0	0	0	0	558	500	1021	0	0	0	
3	0	0	0	0	565	506	1021	0	0	0	
4	0	0	0	0	571	511	1021	0	0	0	
5	0	0	0	0	575	514	1021	0	0	0	
6	0	0	0	0	576	515	1021	0	0	0	
7	0	0	0	0	575	514	1021	0	0	0	
8	0	0	0	0	572	512	1021	0	0	0	
9	0	0	0	0	567	507	1021	0	0	0	
10	0	0	0	0	560	502	1021	0	0	0	
11	0	0	0	0	551	495	1021	0	0	0	
12	0	0	0	0	542	487	1021	0	0	0	
13	0	0	0	0	531	480	1021	0	0	0	
14	0	0	0	0	521	471	1021	0	0	0	
15	0	0	0	0	512	464	1021	0	0	0	
0	0	0	0	0	504	458	1021	0	0	0	
1	0	0	0	0	499	454	1021	0	0	0	
2	0	0	0	0	496	451	1021	0	0	0	
3	0	0	0	0	496	451	1021	0	0	0	
4	0	0	0	0	499	453	1021	0	0	0	
5	0	0	0	0	505	457	1021	0	0	0	
6	0	0	0	0	512	463	1021	0	0	0	
7	0	0	0	0	521	468	1021	0	0	0	
8	0	0	0	0	530	475	1021	0	0	0	
9	0	0	0	0	539	481	1021	0	0	0	
10	0	0	0	0	546	486	1021	0	0	0	
11	0	0	0	0	552	490	1021	0	0	0	
12	0	0	0	0	557	494	1021	0	0	0	
13	0	0	0	0	559	495	1021	0	0	0	
14	0	0	0	0	561	497	1021	0	0	0	
15	0	0	0	0	561	498	1021	0	0	0	
0	0	0	0	0	560	498	1021	0	0	0	
1	0	0	0	0	559	499	1021	0	0	0	
2	0	0	0	0	557	499	1021	0	0	0	
3	0	0	0	0	556	499	1021	0	0	0	
4	0	0	0	0	555	500	1021	0	0	0	
5	0	0	0	0	554	501	1021	0	0	0	
6	0	0	0	0	553	502	1020	0	0	0	
7	0	0	0	0	554	503	1021	0	0	0	
8	0	0	0	0	555	504	1021	0	0	0	
9	0	0	0	0	556	505	1021	0	0	0	
10	0	0	0	0	556	505	1021	0	0	0	
11	0	0	0	0	557	505	1021	0	0	0	
12	0	0	0	0	558	505	1021	0	0	0	
13	0	0	0	0	559	504	1021	0	0	0	
14	0	0	0	0	558	503	1021	0	0	0	
15	0	0	0	0	557	501	1021	0	0	0	
0	0	0	0	0	555	497	1021	0	0	0	
1	0	0	0	0	552	495	1021	0	0	0	
2	0	0	0	0	549	491	1021	0	0	0	
3	0	0	0	0	545	487	1021	0	0	0	
4	0	0	0	0	543	484	1021	0	0	0	
5	0	0	0	0	541	483	1021	0	0	0	
6	0	0	0	0	541	483	1021	0	0	0	
7	0	0	0	0	542	485	1021	0	0	0	
8	0	0	0	0	545	488	1021	0	0	0	
9	0	0	0	0	550	493	1020	0	0	0	
10	0	0	0	0	556	498	1021	0	0	0	
11	0	0	0	0	561	503	1021	0	0	0	
12	0	0	0	0	566	508	1021	0	0	0	
13	0	0	0	0	569	511	1021	0	0	0	
14	0	0	0	0	569	511	1021	0	0	0	
15	0	0	0	0	567	508	1021	0	0	0	
0	0	0	0	0	561	503	1021	0	0	0	
1	0	0	0	0	553	495	1021	0	0	0	
2	0	0	0	0	542	484	1021	0	0	0	
3	0	0	0	0	529	473	1021	0	0	0	
4	0	0	0	0	515	461	1021	0	0	0	
5	0	0	0	0	504	451	1021	0	0	0	
6	0	0	0	0	494	442	1021	0	0	0	
7	0	0	0	0	487	436	1021	0	0	0	
8	0	0	0	0	484	434	1021	0	0	0	
9	0	0	0	0	486	435	1021	0	0	0	
10	0	0	0	0	491	440	1021	0	0	0	
11	0	0	0	0	500	448	1021	0	0	0	
12	0	0	0	0	512	458	1021	0	0	0	
13	0	0	0	0	525	470	1021	0	0	0	
14	0	0	0	0	539	480	1021	0	0	0	
15	0	0	0	0	551	491	1021	0	0	0	
0	0	0	0	0	562	499	1021	0	0	0	
1	0	0	0	0	571	506	1021	0	0	0	
2	0	0	0	0	575	510	1021	0	0	0	
3	0	0	0	0	578	511	1021	0	0	0	
4	0	0	0	0	577	510	1021	0	0	0	
5	0	0	0	0	574	507	1021	0	0	0	
6	0	0	0	0	568	503	1021	0	0	0	
7	0	0	0	0	560	497	1021	0	0	0	
8	0	0	0	0	551	491	1021	0	0	0	
9	0	0	0	0	543	484	1021	0	0	0	
10	0	0	0	0	534	478	1021	0	0	0	
11	0	0	0	0	526	472	1021	0	0	0	
12	0	0	0	0	519	468	1021	0	0	0	
13	0	0	0	0	514	464	1021	0	0	0	
14	0	0	0	0	510	462	1021	0	0	0	
15	0	0	0	0	507	459	1021	0	0	0	
0	0	0	0	0	506	457	1021	0	0	0	
1	0	0	0	0	506	457	1021	0	0	0	
2	0	0	0	0	508	457	1021	0	0	0	
3	0	0	0	0	511	460	1021	0	0	0	
4	0	0	0	0	516	462	1021	0	0	0	
5	0	0	0	0	522	466	1021	0	0	0	
6	0	0	0	0	528	471	1021	0	0	0	
7	0	0	0	0	535	475	1021	0	0	0	
8	0	0	0	0	541	479	1021	0	0	0	
9	0	0	0	0	547	483	1021	0	0	0	
10	0	0	0	0	552	487	1021	0	0	0	
11	0	0	0	0	557	490	1021	0	0	0	
12	0	0	0	0	560	492	1021	0	0	0	
13	0	0	0	0	561	494	1021	0	0	0	
14	0	0	0	0	562	494	1021	0	0	0	
15	0	0	0	0	562	495	1021	0	0	0	
0	0	0	0	0	560	495	1021	0	0	0	
1	0	0	0	0	559	495	1021	0	0	0	
2	0	0	0	0	557	495	1021	0	0	0	
3	0	0	0	0	556	495	1021	0	0	0	
4	0	0	0	0	553	495	1021	0	0	0	
5	0	0	0	0	551	495	1021	0	0	0	
6	0	0	0	0	550	494	1021	0	0	0	
7	0	0	0	0	548	494	1021	0	0	0	
8	0	0	0	0	547	494	1021	0	0	0	
9	0	0	0	0	546	494	1021	0	0	0	
10	0	0	0	0	546	495	1021	0	0	0	
11	0	0	0	0	546	494	1021	0	0	0	
12	0	0	0	0	546	495	1021	0	0	0	
13	0	0	0	0	548	495	1021	0	0	0	
14	0	0	0	0	549	496	1021	0	0	0	
15	0	0	0	0	550	496	1021	0	0	0	
0	0	0	0	0	552	497	1021	0	0	0	
1	0	0	0	0	556	500	1021	0	0	0	
2	0	0	0	0	560	502	1021	0	0	0	
3	0	0	0	0	564	505	1021	0	0	0	
4	0	0	0	0	569	509	1021	0	0	0	
5	0	0	0	0	572	512	1021	0	0	0	
6	0	0	0	0	575	514	1021	0	0	0	
7	0	0	0	0	577	515	1021	0	0	0	
8	0	0	0	0	576	514	1021	0	0	0	
9	0	0	0	0	572	512	1021	0	0	0	
10	0	0	0	0	566	507	1021	0	0	0	
11	0	0	0	0	558	501	1021	0	0	0	
12	0	0	0	0	548	493	1021	0	0	0	
13	0	0	0	0	538	485	1021	0	0	0	
14	0	0	0	0	527	476	1021	0	0	0	
15	0	0	0	0	517	468	1021	0	0	0	
0	0	0	0	0	508	461	1021	0	0	0	
1	0	0	0	0	502	455	1021	0	0	0	
2	0	0	0	0	499	452	1021	0	0	0	
3	0	0	0	0	498	451	1021	0	0	0	
4	0	0	0	0	500	453	1021	0	0	0	
5	0	0	0	0	506	457	1021	0	0	0	
6	0	0	0	0	513	462	1021	0	0	0	
7	0	0	0	0	523	470	1021	0	0	0	
8	0	0	0	0	533	477	1021	0	0	0	
9	0	0	0	0	543	485	1020	0	0	0	
10	0	0	0	0	552	492	1021	0	0	0	
11	0	0	0	0	559	497	1021	0	0	0	
12	0	0	0	0	564	502	1021	0	0	0	
13	0	0	0	0	567	504	1021	0	0	0	
14	0	0	0	0	568	506	1021	0	0	0	
15	0	0	0	0	568	505	1021	0	0	0	
0	0	0	0	0	566	505	1021	0	0	0	
1	0	0	0	0	563	504	1021	0	0	0	
2	0	0	0	0	561	503	1021	0	0	0	
3	0	0	0	0	558	502	1021	0	0	0	
4	0	0	0	0	556	500	1021	0	0	0	
5	0	0	0	0	556	501	1021	0	0	0	
6	0	0	0	0	556	502	1021	0	0	0	
7	0	0	0	0	558	503	1021	0	0	0	
8	0	0	0	0	560	505	1021	0	0	0	
9	0	0	0	0	563	507	1021	0	0	0	
10	0	0	0	0	565	508	1021	0	0	0	
11	0	0	0	0	568	510	1021	0	0	0	
12	0	0	0	0	568	509	1021	0	0	0	
13	0	0	0	0	568	508	1021	0	0	0	
14	0	0	0	0	566	506	1021	0	0	0	
15	0	0	0	0	563	504	1021	0	0	0	
0	0	0	0	0	560	501	1021	0	0	0	
1	0	0	0	0	556	497	1021	0	0	0	
2	0	0	0	0	551	493	1021	0	0	0	
3	0	0	0	0	545	489	1021	0	0	0	
4	0	0	0	0	540	484	1021	0	0	0	
5	0	0	0	0	534	480	1021	0	0	0	
6	0	0	0	0	529	476	1020	0	0	0	
7	0	0	0	0	524	471	1021	0	0	0	
8	0	0	0	0	519	467	1021	0	0	0	
9	0	0	0	0	516	463	1021	0	0	0	
10	0	0	0	0	513	460	1021	0	0	0	
11	0	0	0	0	510	457	1021	0	0	0	
12	0	0	0	0	508	454	1021	0	0	0	
13	0	0	0	0	505	451	1021	0	0	0	
14	0	0	0	0	503	448	1021	0	0	0	
15	0	0	0	0	500	446	1021	0	0	0	
0	0	0	0	0	499	444	1021	0	0	0	
1	0	0	0	0	497	442	1021	0	0	0	
2	0	0	0	0	499	443	1021	0	0	0	
3	0	0	0	0	500	444	1021	0	0	0	
4	0	0	0	0	504	448	1021	0	0	0	
5	0	0	0	0	509	451	1021	0	0	0	
6	0	0	0	0	515	456	1021	0	0	0	
7	0	0	0	0	521	462	1021	0	0	0	
8	0	0	0	0	528	468	1021	0	0	0	
9	0	0	0	0	535	474	1021	0	0	0	
10	0	0	0	0	542	479	1021	0	0	0	
11	0	0	0	0	547	483	1021	0	0	0	
12	0	0	0	0	551	487	1021	0	0	0	
13	0	0	0	0	554	490	1021	0	0	0	
14	0	0	0	0	556	492	1021	0	0	0	
15	0	0	0	0	556	493	1021	0	0	0	
0	0	0	0	0	555	493	1021	0	0	0	
1	0	0	0	0	554	493	1021	0	0	0	
2	0	0	0	0	551	492	1021	0	0	0	
3	0	0	0	0	549	492	1021	0	0	0	
4	0	0	0	0	547	491	1021	0	0	0	
5	0	0	0	0	544	489	1021	0	0	0	
6	0	0	0	0	542	488	1021	0	0	0	
7	0	0	0	0	540	487	1021	0	0	0	
8	0	0	0	0	539	487	1021	0	0	0	
9	0	0	0	0	537	485	1021	0	0	0	
10	0	0	0	0	536	484	1021	0	0	0	
11	0	0	0	0	536	483	1021	0	0	0	
12	0	0	0	0	536	482	1021	0	0	0	
13	0	0	0	0	537	482	1021	0	0	0	
14	0	0	0	0	539	483	1021	0	0	0	
15	0	0	0	0	542	484	1021	0	0	0	
0	0	0	0	0	545	487	1021	0	0	0	
1	0	0	0	0	549	489	1021	0	0	0	
2	0	0	0	0	554	492	1021	0	0	0	
3	0	0	0	0	558	496	1021	0	0	0	
4	0	0	0	0	561	498	1021	0	0	0	
5	0	0	0	0	564	500	1021	0	0	0	
6	0	0	0	0	567	503	1021	0	0	0	
7	0	0	0	0	568	504	1021	0	0	0	
8	0	0	0	0	568	504	1021	0	0	0	
9	0	0	0	0	566	503	1021	0	0	0	
10	0	0	0	0	563	500	1021	0	0	0	
11	0	0	0	0	559	496	1021	0	0	0	
12	0	0	0	0	553	492	1021	0	0	0	
13	0	0	0	0	547	487	1021	0	0	0	
14	0	0	0	0	540	480	1021	0	0	0	
15	0	0	0	0	532	474	1021	0	0	0	
0	0	0	0	0	524	467	1021	0	0	0	
1	0	0	0	0	515	460	1021	0	0	0	
2	0	0	0	0	506	452	1021	0	0	0	
3	0	0	0	0	497	444	1021	0	0	0	
4	0	0	0	0	488	436	1021	0	0	0	
5	0	0	0	0	481	430	1021	0	0	0	
6	0	0	0	0	476	425	1021	0	0	0	
7	0	0	0	0	473	422	1021	0	0	0	
8	0	0	0	0	473	421	1021	0	0	0	
9	0	0	0	0	476	423	1021	0	0	0	
10	0	0	0	0	482	428	1021	0	0	0	
11	0	0	0	0	491	435	1021	0	0	0	
12	0	0	0	0	502	444	1021	0	0	0	
13	0	0	0	0	515	454	1021	0	0	0	
14	0	0	0	0	528	464	1021	0	0	0	
15	0	0	0	0	542	476	1021	0	0	0	
0	0	0	0	0	556	487	1021	0	0	0	
1	0	0	0	0	568	498	1021	0	0	0	
2	0	0	0	0	577	506	1021	0	0	0	
3	0	0	0	0	583	511	1021	0	0	0	
4	0	0	0	0	585	514	1021	0	0	0	
5	0	0	0	0	583	514	1021	0	0	0	
6	0	0	0	0	579	511	1021	0	0	0	
7	0	0	0	0	571	506	1021	0	0	0	
8	0	0	0	0	561	499	1021	0	0	0	
9	0	0	0	0	551	492	1021	0	0	0	
10	0	0	0	0	540	485	1021	0	0	0	
11	0	0	0	0	531	478	1021	0	0	0	
12	0	0	0	0	523	472	1021	0	0	0	
13	0	0	0	0	516	468	1021	0	0	0	
14	0	0	0	0	511	465	1021	0	0	0	
15	0	0	0	0	509	463	1021	0	0	0	
0	0	0	0	0	508	462	1021	0	0	0	
1	0	0	0	0	509	462	1021	0	0	0	
2	0	0	0	0	512	464	1021	0	0	0	
3	0	0	0	0	518	468	1021	0	0	0	
4	0	0	0	0	524	472	1021	0	0	0	
5	0	0	0	0	533	479	1021	0	0	0	
6	0	0	0	0	542	486	1021	0	0	0	
7	0	0	0	0	552	493	1021	0	0	0	
8	0	0	0	0	563	502	1021	0	0	0	
9	0	0	0	0	574	510	1021	0	0	0	
10	0	0	0	0	583	518	1021	0	0	0	
11	0	0	0	0	592	525	1021	0	0	0	
12	0	0	0	0	599	531	1021	0	0	0	
13	0	0	0	0	603	535	1021	0	0	0	
14	0	0	0	0	604	536	1021	0	0	0	
15	0	0	0	0	601	534	1021	0	0	0	
0	0	0	0	0	593	527	1021	0	0	0	
1	0	0	0	0	582	519	1021	0	0	0	
2	0	0	0	0	567	507	1021	0	0	0	
3	0	0	0	0	550	494	1021	0	0	0	
4	0	0	0	0	532	480	1021	0	0	0	
5	0	0	0	0	515	466	1021	0	0	0	
6	0	0	0	0	500	455	1021	0	0	0	
7	0	0	0	0	488	445	1021	0	0	0	
8	0	0	0	0	481	439	1021	0	0	0	
9	0	0	0	0	477	435	1021	0	0	0	
10	0	0	0	0	476	433	1021	0	0	0	
11	0	0	0	0	479	434	1021	0	0	0	
12	0	0	0	0	484	437	1021	0	0	0	
13	0	0	0	0	492	441	1021	0	0	0	
14	0	0	0	0	499	446	1021	0	0	0	
15	0	0	0	0	507	450	1021	0	0	0	
0	0	0	0	0	515	455	1021	0	0	0	
1	0	0	0	0	524	461	1021	0	0	0	
2	0	0	0	0	531	467	1021	0	0	0	
3	0	0	0	0	538	472	1020	0	0	0	
4	0	0	0	0	544	477	1021	0	0	0	
5	0	0	0	0	550	482	1021	0	0	0	
6	0	0	0	0	554	487	1021	0	0	0	
7	0	0	0	0	558	491	1021	0	0	0	
8	0	0	0	0	560	495	1021	0	0	0	
9	0	0	0	0	562	497	1021	0	0	0	
10	0	0	0	0	563	499	1021	0	0	0	
11	0	0	0	0	563	501	1021	0	0	0	
12	0	0	0	0	562	502	1021	0	0	0	
13	0	0	0	0	561	501	1021	0	0	0	
14	0	0	0	0	558	500	1021	0	0	0	
15	0	0	0	0	555	498	1021	0	0	0	
0	0	0	0	0	551	495	1021	0	0	0	
1	0	0	0	0	547	492	1021	0	0	0	
2	0	0	0	0	541	487	1021	0	0	0	
3	0	0	0	0	535	481	1021	0	0	0	
4	0	0	0	0	529	476	1021	0	0	0	
5	0	0	0	0	525	472	1021	0	0	0	
6	0	0	0	0	521	469	1021	0	0	0	
7	0	0	0	0	519	467	1021	0	0	0	
8	0	0	0	0	520	467	1021	0	0	0	
9	0	0	0	0	523	470	1021	0	0	0	
10	0	0	0	0	527	473	1021	0	0	0	
11	0	0	0	0	533	478	1021	0	0	0	
12	0	0	0	0	540	483	1021	0	0	0	
13	0	0	0	0	546	488	1021	0	0	0	
14	0	0	0	0	552	493	1021	0	0	0	
15	0	0	0	0	557	496	1021	0	0	0	
0	0	0	0	0	559	498	1021	0	0	0	
1	0	0	0	0	559	498	1021	0	0	0	
2	0	0	0	0	556	495	1021	0	0	0	
3	0	0	0	0	551	492	1021	0	0	0	
4	0	0	0	0	543	485	1021	0	0	0	
5	0	0	0	0	534	478	1021	0	0	0	
6	0	0	0	0	525	470	1020	0	0	0	
7	0	0	0	0	516	462	1021	0	0	0	
8	0	0	0	0	508	455	1021	0	0	0	
9	0	0	0	0	501	450	1021	0	0	0	
10	0	0	0	0	497	446	1021	0	0	0	
11	0	0	0	0	495	444	1021	0	0	0	
12	0	0	0	0	496	444	1021	0	0	0	
13	0	0	0	0	499	446	1021	0	0	0	
14	0	0	0	0	505	451	1021	0	0	0	
15	0	0	0	0	514	457	1021	0	0	0	
0	0	0	0	0	525	465	1021	0	0	0	
1	0	0	0	0	537	476	1021	0	0	0	
2	0	0	0	0	550	486	1021	0	0	0	
3	0	0	0	0	562	498	1021	0	0	0	
4	0	0	0	0	575	508	1021	0	0	0	
5	0	0	0	0	585	518	1021	0	0	0	
6	0	0	0	0	593	526	1021	0	0	0	
7	0	0	0	0	597	530	1021	0	0	0	
8	0	0	0	0	598	532	1021	0	0	0	
9	0	0	0	0	594	531	1021	0	0	0	
10	0	0	0	0	586	526	1021	0	0	0	
11	0	0	0	0	575	517	1021	0	0	0	
12	0	0	0	0	559	506	1021	0	0	0	
13	0	0	0	0	542	492	1021	0	0	0	
14	0	0	0	0	523	477	1021	0	0	0	
15	0	0	0	0	504	462	1021	0	0	0	
0	0	0	0	0	487	447	1021	0	0	0	
1	0	0	0	0	472	434	1021	0	0	0	
2	0	0	0	0	461	424	1021	0	0	0	
3	0	0	0	0	454	417	1021	0	0	0	
4	0	0	0	0	452	413	1021	0	0	0	
5	0	0	0	0	454	413	1021	0	0	0	
6	0	0	0	0	460	417	1021	0	0	0	
7	0	0	0	0	469	423	1021	0	0	0	
8	0	0	0	0	481	431	1021	0	0	0	
9	0	0	0	0	494	441	1021	0	0	0	
10	0	0	0	0	508	451	1021	0	0	0	
11	0	0	0	0	522	463	1021	0	0	0	
12	0	0	0	0	536	473	1021	0	0	0	
13	0	0	0	0	547	483	1021	0	0	0	
14	0	0	0	0	557	492	1021	0	0	0	
15	0	0	0	0	563	498	1021	0	0	0	
0	0	0	0	0	567	502	1021	0	0	0	
1	0	0	0	0	568	504	1021	0	0	0	
2	0	0	0	0	565	503	1021	0	0	0	
3	0	0	0	0	560	500	1021	0	0	0	
4	0	0	0	0	553	495	1021	0	0	0	
5	0	0	0	0	545	490	1021	0	0	0	
6	0	0	0	0	537	484	1021	0	0	0	
7	0	0	0	0	529	479	1021	0	0	0	
8	0	0	0	0	523	473	1021	0	0	0	
9	0	0	0	0	518	470	1021	0	0	0	
10	0	0	0	0	515	468	1021	0	0	0	
11	0	0	0	0	515	467	1021	0	0	0	
12	0	0	0	0	515	468	1021	0	0	0	
13	0	0	0	0	518	470	1021	0	0	0	
14	0	0	0	0	521	472	1021	0	0	0	
15	0	0	0	0	526	475	1021	0	0	0	
0	0	0	0	0	529	478	1021	0	0	0	
1	0	0	0	0	534	481	1021	0	0	0	
2	0	0	0	0	538	484	1021	0	0	0	
3	0	0	0	0	542	487	1021	0	0	0	
4	0	0	0	0	547	491	1021	0	0	0	
5	0	0	0	0	553	496	1021	0	0	0	
6	0	0	0	0	558	500	1021	0	0	0	
7	0	0	0	0	564	505	1021	0	0	0	
8	0	0	0	0	569	510	1021	0	0	0	
9	0	0	0	0	574	513	1021	0	0	0	
10	0	0	0	0	578	517	1021	0	0	0	
11	0	0	0	0	580	520	1021	0	0	0	
12	0	0	0	0	581	521	1021	0	0	0	
13	0	0	0	0	579	520	1021	0	0	0	
14	0	0	0	0	574	516	1021	0	0	0	
15	0	0	0	0	567	511	1021	0	0	0	
0	0	0	0	0	557	504	1021	0	0	0	
1	0	0	0	0	546	495	1021	0	0	0	
2	0	0	0	0	533	486	1021	0	0	0	
3	0	0	0	0	520	476	1021	0	0	0	
4	0	0	0	0	508	465	1021	0	0	0	
5	0	0	0	0	497	455	1021	0	0	0	
6	0	0	0	0	486	446	1021	0	0	0	
7	0	0	0	0	477	437	1021	0	0	0	
8	0	0	0	0	470	430	1021	0	0	0	
9	0	0	0	0	464	423	1021	0	0	0	
10	0	0	0	0	461	419	1021	0	0	0	
11	0	0	0	0	461	417	1021	0	0	0	
12	0	0	0	0	463	416	1021	0	0	0	
13	0	0	0	0	466	417	1021	0	0	0	
14	0	0	0	0	472	421	1021	0	0	0	
15	0	0	0	0	479	426	1021	0	0	0	
0	0	0	0	0	487	432	1021	0	0	0	
1	0	0	0	0	496	439	1021	0	0	0	
2	0	0	0	0	506	448	1021	0	0	0	
3	0	0	0	0	516	457	1021	0	0	0	
4	0	0	0	0	526	465	1021	0	0	0	
5	0	0	0	0	535	474	1021	0	0	0	
6	0	0	0	0	543	481	1021	0	0	0	
7	0	0	0	0	550	489	1021	0	0	0	
8	0	0	0	0	556	495	1021	0	0	0	
9	0	0	0	0	559	499	1021	0	0	0	
10	0	0	0	0	561	502	1021	0	0	0	
11	0	0	0	0	561	502	1021	0	0	0	
12	0	0	0	0	559	502	1021	0	0	0	
13	0	0	0	0	557	499	1021	0	0	0	
14	0	0	0	0	552	496	1021	0	0	0	
15	0	0	0	0	547	492	1021	0	0	0	
0	0	0	0	0	542	488	1021	0	0	0	
1	0	0	0	0	537	484	1021	0	0	0	
2	0	0	0	0	532	480	1021	0	0	0	
3	0	0	0	0	528	477	1021	0	0	0	
4	0	0	0	0	525	475	1021	0	0	0	
5	0	0	0	0	523	473	1021	0	0	0	
6	0	0	0	0	523	473	1021	0	0	0	
7	0	0	0	0	524	473	1021	0	0	0	
8	0	0	0	0	526	475	1021	0	0	0	
9	0	0	0	0	529	477	1021	0	0	0	
10	0	0	0	0	532	479	1021	0	0	0	
11	0	0	0	0	535	481	1021	0	0	0	
12	0	0	0	0	539	483	1021	0	0	0	
13	0	0	0	0	541	485	1021	0	0	0	
14	0	0	0	0	543	486	1021	0	0	0	
15	0	0	0	0	543	486	1021	0	0	0	
0	0	0	0	0	543	487	1021	0	0	0	
1	0	0	0	0	543	487	1021	0	0	0	
2	0	0	0	0	543	487	1021	0	0	0	
3	0	0	0	0	542	486	1021	0	0	0	
4	0	0	0	0	540	485	1021	0	0	0	
5	0	0	0	0	537	485	1021	0	0	0	
6	0	0	0	0	535	483	1021	0	0	0	
7	0	0	0	0	531	480	1021	0	0	0	
8	0	0	0	0	528	478	1021	0	0	0	
9	0	0	0	0	524	474	1021	0	0	0	
10	0	0	0	0	519	471	1021	0	0	0	
11	0	0	0	0	514	466	1021	0	0	0	
12	0	0	0	0	509	461	1021	0	0	0	
13	0	0	0	0	504	457	1021	0	0	0	
14	0	0	0	0	500	452	1021	0	0	0	
15	0	0	0	0	497	449	1021	0	0	0	
0	0	0	0	0	495	447	1021	0	0	0	
1	0	0	0	0	495	447	1021	0	0	0	
2	0	0	0	0	497	448	1021	0	0	0	
3	0	0	0	0	500	451	1021	0	0	0	
4	0	0	0	0	504	455	1021	0	0	0	
5	0	0	0	0	510	459	1021	0	0	0	
6	0	0	0	0	516	464	1021	0	0	0	
7	0	0	0	0	522	469	1021	0	0	0	
8	0	0	0	0	528	473	1021	0	0	0	
9	0	0	0	0	535	478	1021	0	0	0	
10	0	0	0	0	540	482	1021	0	0	0	
11	0	0	0	0	545	485	1021	0	0	0	
12	0	0	0	0	548	487	1021	0	0	0	
13	0	0	0	0	551	489	1021	0	0	0	
14	0	0	0	0	552	490	1021	0	0	0	
15	0	0	0	0	554	491	1021	0	0	0	
0	0	0	0	0	555	492	1021	0	0	0	
1	0	0	0	0	556	493	1021	0	0	0	
2	0	0	0	0	557	494	1021	0	0	0	
3	0	0	0	0	559	497	1021	0	0	0	
4	0	0	0	0	561	499	1021	0	0	0	
5	0	0	0	0	564	502	1021	0	0	0	
6	0	0	0	0	567	504	1021	0	0	0	
7	0	0	0	0	569	507	1020	0	0	0	
8	0	0	0	0	572	508	1021	0	0	0	
9	0	0	0	0	573	510	1021	0	0	0	
10	0	0	0	0	573	511	1021	0	0	0	
11	0	0	0	0	571	509	1021	0	0	0	
12	0	0	0	0	566	505	1021	0	0	0	
13	0	0	0	0	558	499	1021	0	0	0	
14	0	0	0	0	546	489	1021	0	0	0	
15	0	0	0	0	532	478	1021	0	0	0	
0	0	0	0	0	516	464	1021	0	0	0	
1	0	0	0	0	499	449	1021	0	0	0	
2	0	0	0	0	481	433	1021	0	0	0	
3	0	0	0	0	464	419	1021	0	0	0	
4	0	0	0	0	447	403	1021	0	0	0	
5	0	0	0	0	432	389	1021	0	0	0	
6	0	0	0	0	416	374	1021	0	0	0	
7	0	0	0	0	402	360	1021	0	0	0	
8	0	0	0	0	388	346	1021	0	0	0	
9	0	0	0	0	375	332	1021	0	0	0	
10	0	0	0	0	360	316	1021	0	0	0	
11	0	0	0	0	346	301	1021	0	0	0	
12	0	0	0	0	330	285	1021	0	0	0	
13	0	0	0	0	315	270	1021	0	0	0	
14	0	0	0	0	300	255	1021	0	0	0	
15	0	0	0	0	285	240	1021	0	0	0	
0	0	0	0	0	272	227	1021	0	0	0	
1	0	0	0	0	262	216	1021	0	0	0	
2	0	0	0	0	252	207	1021	0	0	0	
3	0	0	0	0	247	202	1021	0	0	0	
4	0	0	0	0	245	199	1021	0	0	0	
5	0	0	0	0	247	200	1020	0	0	0	
6	0	0	0	0	254	206	1021	0	0	0	
7	0	0	0	0	265	216	1021	0	0	0	
8	0	0	0	0	283	231	1021	0	0	0	
9	0	0	0	0	304	249	1021	0	0	0	
10	0	0	0	0	329	271	1021	0	0	0	
11	0	0	0	0	357	295	1021	0	0	0	
12	0	0	0	0	386	320	1021	0	0	0	
13	0	0	0	0	415	345	1021	0	0	0	
14	0	0	0	0	443	370	1021	0	0	0	
15	0	0	0	0	468	393	1021	0	0	0	
0	0	0	0	0	490	414	1021	0	0	0	
1	0	0	0	0	509	431	1021	0	0	0	
2	0	0	0	0	524	446	1021	0	0	0	
3	0	0	0	0	534	458	1021	0	0	0	
4	0	0	0	0	542	467	1021	0	0	0	
5	0	0	0	0	547	475	1021	0	0	0	
6	0	0	0	0	549	480	1021	0	0	0	
7	0	0	0	0	550	484	1021	0	0	0	
8	0	0	0	0	551	487	1021	0	0	0	
9	0	0	0	0	551	491	1021	0	0	0	
10	0	0	0	0	551	494	1021	0	0	0	
11	0	0	0	0	553	498	1021	0	0	0	
12	0	0	0	0	556	502	1021	0	0	0	
13	0	0	0	0	560	507	1021	0	0	0	
14	0	0	0	0	565	513	1021	0	0	0	
15	0	0	0	0	571	519	1021	0	0	0	
0	0	0	0	0	576	524	1021	0	0	0	
1	0	0	0	0	582	528	1021	0	0	0	
2	0	0	0	0	586	532	1021	0	0	0	
3	0	0	0	0	588	533	1021	0	0	0	
4	0	0	0	0	588	532	1021	0	0	0	
5	0	0	0	0	584	528	1021	0	0	0	
6	0	0	0	0	579	523	1021	0	0	0	
7	0	0	0	0	570	515	1021	0	0	0	
8	0	0	0	0	560	505	1020	0	0	0	
9	0	0	0	0	550	497	1021	0	0	0	
10	0	0	0	0	540	489	1021	0	0	0	
11	0	0	0	0	531	482	1021	0	0	0	
12	0	0	0	0	525	477	1021	0	0	0	
13	0	0	0	0	521	474	1021	0	0	0	
14	0	0	0	0	519	472	1021	0	0	0	
15	0	0	0	0	520	473	1021	0	0	0	
0	0	0	0	0	523	476	1021	0	0	0	
1	0	0	0	0	527	479	1021	0	0	0	
2	0	0	0	0	532	483	1021	0	0	0	
3	0	0	0	0	539	488	1021	0	0	0	
4	0	0	0	0	545	493	1021	0	0	0	
5	0	0	0	0	551	497	1021	0	0	0	
6	0	0	0	0	555	501	1021	0	0	0	
7	0	0	0	0	558	503	1021	0	0	0	
8	0	0	0	0	558	503	1021	0	0	0	
9	0	0	0	0	557	501	1021	0	0	0	
10	0	0	0	0	553	498	1021	0	0	0	
11	0	0	0	0	549	494	1021	0	0	0	
12	0	0	0	0	543	489	1021	0	0	0	
13	0	0	0	0	538	485	1021	0	0	0	
14	0	0	0	0	535	482	1021	0	0	0	
15	0	0	0	0	532	480	1021	0	0	0	
0	0	0	0	0	532	480	1021	0	0	0	
1	0	0	0	0	534	482	1021	0	0	0	
2	0	0	0	0	537	486	1021	0	0	0	
3	0	0	0	0	543	491	1021	0	0	0	
4	0	0	0	0	550	497	1021	0	0	0	
5	0	0	0	0	558	503	1021	0	0	0	
6	0	0	0	0	566	509	1021	0	0	0	
7	0	0	0	0	574	516	1021	0	0	0	
8	0	0	0	0	580	521	1021	0	0	0	
9	0	0	0	0	585	526	1021	0	0	0	
10	0	0	0	0	589	529	1021	0	0	0	
11	0	0	0	0	590	531	1021	0	0	0	
12	0	0	0	0	590	530	1021	0	0	0	
13	0	0	0	0	587	529	1021	0	0	0	
14	0	0	0	0	583	525	1021	0	0	0	
15	0	0	0	0	575	519	1021	0	0	0	
0	0	0	0	0	567	512	1021	0	0	0	
1	0	0	0	0	557	504	1021	0	0	0	
2	0	0	0	0	546	495	1021	0	0	0	
3	0	0	0	0	536	486	1021	0	0	0	
4	0	0	0	0	526	476	1021	0	0	0	
5	0	0	0	0	517	469	1021	0	0	0	
6	0	0	0	0	511	463	1021	0	0	0	
7	0	0	0	0	508	460	1021	0	0	0	
8	0	0	0	0	507	458	1021	0	0	0	
9	0	0	0	0	509	459	1021	0	0	0	
10	0	0	0	0	514	463	1021	0	0	0	
11	0	0	0	0	521	468	1021	0	0	0	
12	0	0	0	0	531	476	1021	0	0	0	
13	0	0	0	0	543	486	1021	0	0	0	
14	0	0	0	0	555	496	1021	0	0	0	
15	0	0	0	0	567	506	1021	0	0	0	
0	0	0	0	0	577	515	1021	0	0	0	
1	0	0	0	0	585	522	1021	0	0	0	
2	0	0	0	0	590	526	1021	0	0	0	
3	0	0	0	0	590	525	1021	0	0	0	
4	0	0	0	0	586	521	1021	0	0	0	
5	0	0	0	0	577	515	1021	0	0	0	
6	0	0	0	0	567	505	1021	0	0	0	
7	0	0	0	0	553	494	1021	0	0	0	
8	0	0	0	0	539	483	1021	0	0	0	
9	0	0	0	0	526	472	1021	0	0	0	
10	0	0	0	0	513	462	1021	0	0	0	
11	0	0	0	0	503	455	1021	0	0	0	
12	0	0	0	0	495	449	1021	0	0	0	
13	0	0	0	0	491	446	1021	0	0	0	
14	0	0	0	0	489	445	1021	0	0	0	
15	0	0	0	0	489	446	1021	0	0	0	
0	0	0	0	0	492	448	1021	0	0	0	
1	0	0	0	0	497	451	1021	0	0	0	
2	0	0	0	0	502	454	1021	0	0	0	
3	0	0	0	0	508	458	1021	0	0	0	
4	0	0	0	0	515	463	1021	0	0	0	
5	0	0	0	0	521	468	1021	0	0	0	
6	0	0	0	0	528	473	1021	0	0	0	
7	0	0	0	0	534	477	1021	0	0	0	
8	0	0	0	0	539	481	1021	0	0	0	
9	0	0	0	0	543	485	1021	0	0	0	
10	0	0	0	0	547	488	1021	0	0	0	
11	0	0	0	0	550	492	1021	0	0	0	
12	0	0	0	0	553	495	1021	0	0	0	
13	0	0	0	0	556	499	1021	0	0	0	
14	0	0	0	0	559	503	1021	0	0	0	
15	0	0	0	0	562	507	1021	0	0	0	
0	0	0	0	0	565	511	1021	0	0	0	
1	0	0	0	0	568	514	1021	0	0	0	
2	0	0	0	0	569	516	1021	0	0	0	
3	0	0	0	0	570	517	1021	0	0	0	
4	0	0	0	0	569	516	1021	0	0	0	
5	0	0	0	0	567	515	1021	0	0	0	
6	0	0	0	0	564	512	1021	0	0	0	
7	0	0	0	0	560	508	1021	0	0	0	
8	0	0	0	0	555	504	1021	0	0	0	
9	0	0	0	0	550	501	1021	0	0	0	
10	0	0	0	0	545	496	1021	0	0	0	
11	0	0	0	0	541	492	1021	0	0	0	
12	0	0	0	0	536	488	1021	0	0	0	
13	0	0	0	0	533	484	1021	0	0	0	
14	0	0	0	0	530	481	1021	0	0	0	
15	0	0	0	0	528	480	1021	0	0	0	
0	0	0	0	0	528	479	1021	0	0	0	
1	0	0	0	0	530	480	1020	0	0	0	
2	0	0	0	0	533	482	1021	0	0	0	
3	0	0	0	0	538	486	1021	0	0	0	
4	0	0	0	0	544	491	1021	0	0	0	
5	0	0	0	0	551	497	1021	0	0	0	
6	0	0	0	0	557	502	1021	0	0	0	
7	0	0	0	0	561	505	1021	0	0	0	
8	0	0	0	0	563	508	1021	0	0	0	
9	0	0	0	0	564	508	1021	0	0	0	
10	0	0	0	0	560	505	1021	0	0	0	
11	0	0	0	0	556	501	1021	0	0	0	
12	0	0	0	0	548	495	1021	0	0	0	
13	0	0	0	0	540	488	1021	0	0	0	
14	0	0	0	0	532	482	1021	0	0	0	
15	0	0	0	0	525	476	1021	0	0	0	
0	0	0	0	0	519	471	1021	0	0	0	
1	0	0	0	0	514	467	1021	0	0	0	
2	0	0	0	0	511	464	1021	0	0	0	
3	0	0	0	0	510	463	1021	0	0	0	
4	0	0	0	0	511	463	1021	0	0	0	
5	0	0	0	0	512	465	1020	0	0	0	
6	0	0	0	0	516	467	1021	0	0	0	
7	0	0	0	0	519	470	1021	0	0	0	
8	0	0	0	0	523	472	1021	0	0	0	
9	0	0	0	0	526	474	1021	0	0	0	
10	0	0	0	0	529	476	1021	0	0	0	
11	0	0	0	0	532	477	1021	0	0	0	
12	0	0	0	0	534	478	1021	0	0	0	
13	0	0	0	0	538	480	1021	0	0	0	
14	0	0	0	0	542	483	1021	0	0	0	
15	0	0	0	0	547	487	1021	0	0	0	
0	0	0	0	0	552	493	1021	0	0	0	
1	0	0	0	0	559	498	1021	0	0	0	
2	0	0	0	0	564	504	1021	0	0	0	
3	0	0	0	0	569	508	1021	0	0	0	
4	0	0	0	0	571	510	1021	0	0	0	
5	0	0	0	0	571	510	1021	0	0	0	
6	0	0	0	0	568	509	1021	0	0	0	
7	0	0	0	0	563	505	1021	0	0	0	
8	0	0	0	0	555	500	1021	0	0	0	
9	0	0	0	0	547	495	1021	0	0	0	
10	0	0	0	0	539	488	1021	0	0	0	
11	0	0	0	0	531	483	1021	0	0	0	
12	0	0	0	0	524	479	1021	0	0	0	
13	0	0	0	0	519	476	1021	0	0	0	
14	0	0	0	0	517	474	1021	0	0	0	
15	0	0	0	0	515	473	1021	0	0	0	
0	0	0	0	0	516	473	1021	0	0	0	
1	0	0	0	0	517	473	1021	0	0	0	
2	0	0	0	0	519	474	1021	0	0	0	
3	0	0	0	0	521	473	1021	0	0	0	
4	0	0	0	0	523	473	1021	0	0	0	
5	0	0	0	0	525	473	1021	0	0	0	
6	0	0	0	0	527	473	1021	0	0	0	
7	0	0	0	0	529	474	1021	0	0	0	
8	0	0	0	0	531	475	1021	0	0	0	
9	0	0	0	0	532	476	1021	0	0	0	
10	0	0	0	0	534	478	1021	0	0	0	
11	0	0	0	0	535	479	1021	0	0	0	
12	0	0	0	0	536	480	1021	0	0	0	
13	0	0	0	0	536	481	1021	0	0	0	
14	0	0	0	0	536	483	1021	0	0	0	
15	0	0	0	0	536	484	1021	0	0	0	
0	0	0	0	0	536	486	1021	0	0	0	
1	0	0	0	0	536	487	1021	0	0	0	
2	0	0	0	0	536	487	1021	0	0	0	
3	0	0	0	0	535	487	1021	0	0	0	
4	0	0	0	0	534	486	1021	0	0	0	
5	0	0	0	0	533	484	1021	0	0	0	
6	0	0	0	0	531	482	1021	0	0	0	
7	0	0	0	0	529	480	1021	0	0	0	
8	0	0	0	0	527	478	1021	0	0	0	
9	0	0	0	0	526	476	1021	0	0	0	
10	0	0	0	0	526	475	1021	0	0	0	
11	0	0	0	0	527	475	1021	0	0	0	
12	0	0	0	0	528	476	1021	0	0	0	
13	0	0	0	0	531	478	1021	0	0	0	
14	0	0	0	0	535	481	1021	0	0	0	
15	0	0	0	0	539	484	1021	0	0	0	
0	0	0	0	0	544	488	1021	0	0	0	
1	0	0	0	0	549	492	1021	0	0	0	
2	0	0	0	0	552	496	1021	0	0	0	
3	0	0	0	0	555	498	1021	0	0	0	
4	0	0	0	0	557	500	1021	0	0	0	
5	0	0	0	0	559	503	1021	0	0	0	
6	0	0	0	0	560	504	1021	0	0	0	
7	0	0	0	0	560	505	1021	0	0	0	
8	0	0	0	0	559	505	1021	0	0	0	
9	0	0	0	0	558	505	1021	0	0	0	
10	0	0	0	0	556	504	1021	0	0	0	
11	0	0	0	0	551	500	1021	0	0	0	
12	0	0	0	0	546	496	1021	0	0	0	
13	0	0	0	0	540	491	1021	0	0	0	
14	0	0	0	0	532	484	1021	0	0	0	
15	0	0	0	0	525	477	1021	0	0	0	
0	0	0	0	0	518	471	1021	0	0	0	
1	0	0	0	0	511	464	1021	0	0	0	
2	0	0	0	0	507	460	1021	0	0	0	
3	0	0	0	0	504	457	1021	0	0	0	
4	0	0	0	0	504	457	1021	0	0	0	
5	0	0	0	0	508	460	1021	0	0	0	
6	0	0	0	0	513	464	1021	0	0	0	
7	0	0	0	0	521	471	1021	0	0	0	
8	0	0	0	0	531	479	1021	0	0	0	
9	0	0	0	0	541	487	1021	0	0	0	
10	0	0	0	0	551	496	1021	0	0	0	
11	0	0	0	0	560	503	1021	0	0	0	
12	0	0	0	0	568	510	1021	0	0	0	
13	0	0	0	0	573	516	1021	0	0	0	
14	0	0	0	0	577	519	1021	0	0	0	
15	0	0	0	0	578	521	1021	0	0	0	
0	0	0	0	0	575	519	1021	0	0	0	
1	0	0	0	0	572	516	1021	0	0	0	
2	0	0	0	0	566	511	1021	0	0	0	
3	0	0	0	0	558	505	1021	0	0	0	
4	0	0	0	0	550	498	1021	0	0	0	
5	0	0	0	0	541	491	1020	0	0	0	
6	0	0	0	0	533	485	1021	0	0	0	
7	0	0	0	0	527	480	1021	0	0	0	
8	0	0	0	0	522	476	1021	0	0	0	
9	0	0	0	0	519	474	1021	0	0	0	
10	0	0	0	0	516	472	1021	0	0	0	
11	0	0	0	0	515	471	1021	0	0	0	
12	0	0	0	0	515	470	1021	0	0	0	
13	0	0	0	0	515	470	1021	0	0	0	
14	0	0	0	0	515	469	1021	0	0	0	
15	0	0	0	0	515	468	1021	0	0	0	
0	0	0	0	0	516	468	1021	0	0	0	
1	0	0	0	0	518	468	1021	0	0	0	
2	0	0	0	0	519	467	1021	0	0	0	
3	0	0	0	0	520	468	1021	0	0	0	
4	0	0	0	0	522	468	1021	0	0	0	
5	0	0	0	0	524	469	1021	0	0	0	
6	0	0	0	0	526	470	1021	0	0	0	
7	0	0	0	0	527	472	1021	0	0	0	
8	0	0	0	0	529	473	1021	0	0	0	
9	0	0	0	0	530	475	1021	0	0	0	
10	0	0	0	0	531	476	1021	0	0	0	
11	0	0	0	0	532	478	1021	0	0	0	
12	0	0	0	0	533	479	1021	0	0	0	
13	0	0	0	0	534	481	1021	0	0	0	
14	0	0	0	0	535	483	1021	0	0	0	
15	0	0	0	0	536	484	1021	0	0	0	
0	0	0	0	0	537	486	1021	0	0	0	
1	0	0	0	0	537	487	1021	0	0	0	
2	0	0	0	0	537	487	1021	0	0	0	
3	0	0	0	0	537	488	1021	0	0	0	
4	0	0	0	0	537	488	1021	0	0	0	
5	0	0	0	0	538	489	1021	0	0	0	
6	0	0	0	0	538	489	1021	0	0	0	
7	0	0	0	0	539	489	1021	0	0	0	
8	0	0	0	0	539	490	1021	0	0	0	
9	0	0	0	0	540	490	1021	0	0	0	
10	0	0	0	0	541	490	1021	0	0	0	
11	0	0	0	0	542	490	1021	0	0	0	
12	0	0	0	0	543	490	1021	0	0	0	
13	0	0	0	0	543	490	1021	0	0	0	
14	0	0	0	0	544	490	1021	0	0	0	
15	0	0	0	0	545	491	1021	0	0	0	
0	0	0	0	0	545	492	1021	0	0	0	
1	0	0	0	0	545	492	1021	0	0	0	
2	0	0	0	0	544	492	1021	0	0	0	
3	0	0	0	0	543	491	1021	0	0	0	
4	0	0	0	0	540	489	1021	0	0	0	
5	0	0	0	0	537	487	1021	0	0	0	
6	0	0	0	0	534	485	1021	0	0	0	
7	0	0	0	0	531	484	1021	0	0	0	
8	0	0	0	0	529	482	1021	0	0	0	
9	0	0	0	0	527	481	1021	0	0	0	
10	0	0	0	0	526	480	1021	0	0	0	
11	0	0	0	0	525	478	1021	0	0	0	
12	0	0	0	0	524	478	1021	0	0	0	
13	0	0	0	0	524	477	1021	0	0	0	
14	0	0	0	0	526	478	1021	0	0	0	
15	0	0	0	0	528	480	1021	0	0	0	
0	0	0	0	0	532	483	1021	0	0	0	
1	0	0	0	0	538	487	1021	0	0	0	
2	0	0	0	0	545	493	1021	0	0	0	
3	0	0	0	0	552	498	1021	0	0	0	
4	0	0	0	0	559	504	1021	0	0	0	
5	0	0	0	0	565	508	1021	0	0	0	
6	0	0	0	0	569	511	1021	0	0	0	
7	0	0	0	0	572	513	1021	0	0	0	
8	0	0	0	0	573	515	1021	0	0	0	
9	0	0	0	0	572	514	1021	0	0	0	
10	0	0	0	0	569	512	1021	0	0	0	
11	0	0	0	0	564	509	1021	0	0	0	
12	0	0	0	0	558	504	1021	0	0	0	
13	0	0	0	0	550	498	1021	0	0	0	
14	0	0	0	0	541	492	1021	0	0	0	
15	0	0	0	0	533	486	1021	0	0	0	
0	0	0	0	0	524	479	1021	0	0	0	
1	0	0	0	0	518	474	1021	0	0	0	
2	0	0	0	0	512	470	1021	0	0	0	
3	0	0	0	0	508	467	1021	0	0	0	
4	0	0	0	0	507	465	1021	0	0	0	
5	0	0	0	0	507	464	1021	0	0	0	
6	0	0	0	0	509	466	1021	0	0	0	
7	0	0	0	0	512	468	1021	0	0	0	
8	0	0	0	0	518	472	1021	0	0	0	
9	0	0	0	0	525	477	1021	0	0	0	
10	0	0	0	0	532	482	1021	0	0	0	
11	0	0	0	0	540	487	1021	0	0	0	
12	0	0	0	0	547	493	1021	0	0	0	
13	0	0	0	0	554	498	1021	0	0	0	
14	0	0	0	0	559	502	1021	0	0	0	
15	0	0	0	0	563	505	1021	0	0	0	
0	0	0	0	0	564	507	1021	0	0	0	
1	0	0	0	0	563	506	1021	0	0	0	
2	0	0	0	0	560	503	1021	0	0	0	
3	0	0	0	0	555	499	1021	0	0	0	
4	0	0	0	0	549	494	1021	0	0	0	
5	0	0	0	0	542	488	1021	0	0	0	
6	0	0	0	0	534	482	1021	0	0	0	
7	0	0	0	0	527	477	1021	0	0	0	
8	0	0	0	0	521	472	1021	0	0	0	
9	0	0	0	0	516	467	1021	0	0	0	
10	0	0	0	0	513	465	1021	0	0	0	
11	0	0	0	0	511	463	1021	0	0	0	
12	0	0	0	0	511	463	1021	0	0	0	
13	0	0	0	0	513	465	1021	0	0	0	
14	0	0	0	0	517	467	1021	0	0	0	
15	0	0	0	0	522	472	1021	0	0	0	
0	0	0	0	0	529	478	1021	0	0	0	
1	0	0	0	0	537	484	1021	0	0	0	
2	0	0	0	0	546	491	1021	0	0	0	
3	0	0	0	0	553	499	1021	0	0	0	
4	0	0	0	0	561	505	1021	0	0	0	
5	0	0	0	0	566	509	1021	0	0	0	
6	0	0	0	0	569	512	1021	0	0	0	
7	0	0	0	0	569	511	1021	0	0	0	
8	0	0	0	0	566	509	1021	0	0	0	
9	0	0	0	0	560	504	1021	0	0	0	
10	0	0	0	0	553	499	1021	0	0	0	
11	0	0	0	0	544	492	1021	0	0	0	
12	0	0	0	0	535	484	1021	0	0	0	
13	0	0	0	0	526	477	1021	0	0	0	
14	0	0	0	0	518	472	1021	0	0	0	
15	0	0	0	0	512	467	1021	0	0	0	
0	0	0	0	0	508	465	1021	0	0	0	
1	0	0	0	0	507	464	1020	0	0	0	
2	0	0	0	0	508	466	1021	0	0	0	
3	0	0	0	0	512	470	1021	0	0	0	
4	0	0	0	0	518	475	1021	0	0	0	
5	0	0	0	0	526	481	1021	0	0	0	
6	0	0	0	0	535	488	1021	0	0	0	
7	0	0	0	0	543	495	1021	0	0	0	
8	0	0	0	0	552	500	1021	0	0	0	
9	0	0	0	0	558	504	1021	0	0	0	
10	0	0	0	0	561	507	1021	0	0	0	
11	0	0	0	0	562	506	1021	0	0	0	
12	0	0	0	0	560	503	1021	0	0	0	
13	0	0	0	0	555	499	1021	0	0	0	
14	0	0	0	0	548	492	1021	0	0	0	
15	0	0	0	0	540	485	1021	0	0	0	
0	0	0	0	0	532	478	1021	0	0	0	
1	0	0	0	0	523	470	1021	0	0	0	
2	0	0	0	0	515	463	1021	0	0	0	
3	0	0	0	0	509	457	1021	0	0	0	
4	0	0	0	0	504	454	1021	0	0	0	
5	0	0	0	0	501	451	1021	0	0	0	
6	0	0	0	0	501	451	1021	0	0	0	
7	0	0	0	0	503	454	1021	0	0	0	
8	0	0	0	0	508	458	1021	0	0	0	
9	0	0	0	0	515	464	1021	0	0	0	
10	0	0	0	0	523	472	1021	0	0	0	
11	0	0	0	0	532	480	1021	0	0	0	
12	0	0	0	0	542	489	1021	0	0	0	
13	0	0	0	0	551	496	1021	0	0	0	
14	0	0	0	0	559	502	1021	0	0	0	
15	0	0	0	0	563	505	1021	0	0	0	
0	0	0	0	0	565	506	1021	0	0	0	
1	0	0	0	0	564	505	1021	0	0	0	
2	0	0	0	0	560	501	1021	0	0	0	
3	0	0	0	0	552	495	1021	0	0	0	
4	0	0	0	0	543	487	1021	0	0	0	
5	0	0	0	0	534	478	1021	0	0	0	
6	0	0	0	0	523	470	1021	0	0	0	
7	0	0	0	0	513	462	1021	0	0	0	
8	0	0	0	0	504	455	1021	0	0	0	
9	0	0	0	0	496	449	1021	0	0	0	
10	0	0	0	0	492	445	1021	0	0	0	
11	0	0	0	0	489	444	1021	0	0	0	
12	0	0	0	0	491	445	1021	0	0	0	
13	0	0	0	0	494	448	1021	0	0	0	
14	0	0	0	0	500	454	1021	0	0	0	
15	0	0	0	0	508	461	1021	0	0	0	
0	0	0	0	0	518	469	1021	0	0	0	
1	0	0	0	0	529	478	1021	0	0	0	
2	0	0	0	0	540	486	1021	0	0	0	
3	0	0	0	0	550	494	1021	0	0	0	
4	0	0	0	0	559	502	1021	0	0	0	
5	0	0	0	0	567	508	1021	0	0	0	
6	0	0	0	0	572	513	1021	0	0	0	
7	0	0	0	0	576	516	1021	0	0	0	
8	0	0	0	0	578	519	1020	0	0	0	
9	0	0	0	0	578	519	1021	0	0	0	
10	0	0	0	0	576	519	1021	0	0	0	
11	0	0	0	0	573	518	1021	0	0	0	
12	0	0	0	0	568	515	1021	0	0	0	
13	0	0	0	0	563	512	1021	0	0	0	
14	0	0	0	0	556	507	1021	0	0	0	
15	0	0	0	0	549	503	1021	0	0	0	
0	0	0	0	0	542	496	1021	0	0	0	
1	0	0	0	0	534	489	1021	0	0	0	
2	0	0	0	0	526	482	1021	0	0	0	
3	0	0	0	0	519	475	1021	0	0	0	
4	0	0	0	0	512	469	1021	0	0	0	
5	0	0	0	0	507	463	1021	0	0	0	
6	0	0	0	0	503	459	1021	0	0	0	
7	0	0	0	0	501	456	1021	0	0	0	
8	0	0	0	0	502	455	1021	0	0	0	
9	0	0	0	0	506	458	1021	0	0	0	
10	0	0	0	0	513	463	1021	0	0	0	
11	0	0	0	0	522	470	1021	0	0	0	
12	0	0	0	0	532	478	1021	0	0	0	
13	0	0	0	0	542	485	1021	0	0	0	
14	0	0	0	0	551	492	1021	0	0	0	
15	0	0	0	0	558	498	1021	0	0	0	
0	0	0	0	0	561	500	1021	0	0	0	
1	0	0	0	0	562	500	1021	0	0	0	
2	0	0	0	0	559	497	1021	0	0	0	
3	0	0	0	0	553	493	1021	0	0	0	
4	0	0	0	0	545	487	1021	0	0	0	
5	0	0	0	0	536	480	1021	0	0	0	
6	0	0	0	0	527	473	1021	0	0	0	
7	0	0	0	0	520	468	1021	0	0	0	
8	0	0	0	0	514	465	1021	0	0	0	
9	0	0	0	0	511	463	1021	0	0	0	
10	0	0	0	0	511	464	1021	0	0	0	
11	0	0	0	0	514	467	1021	0	0	0	
12	0	0	0	0	520	472	1021	0	0	0	
13	0	0	0	0	529	481	1021	0	0	0	
14	0	0	0	0	541	491	1021	0	0	0	
15	0	0	0	0	555	504	1021	0	0	0	
0	0	0	0	0	570	516	1021	0	0	0	
1	0	0	0	0	584	529	1021	0	0	0	
2	0	0	0	0	598	540	1021	0	0	0	
3	0	0	0	0	609	549	1021	0	0	0	
4	0	0	0	0	615	555	1021	0	0	0	
5	0	0	0	0	617	556	1021	0	0	0	
6	0	0	0	0	614	553	1021	0	0	0	
7	0	0	0	0	606	547	1021	0	0	0	
8	0	0	0	0	593	536	1021	0	0	0	
9	0	0	0	0	577	523	1021	0	0	0	
10	0	0	0	0	558	508	1021	0	0	0	
11	0	0	0	0	539	492	1021	0	0	0	
12	0	0	0	0	521	477	1021	0	0	0	
13	0	0	0	0	504	464	1021	0	0	0	
14	0	0	0	0	492	454	1021	0	0	0	
15	0	0	0	0	482	446	1021	0	0	0	
0	0	0	0	0	476	441	1021	0	0	0	
1	0	0	0	0	475	439	1021	0	0	0	
2	0	0	0	0	478	440	1021	0	0	0	
3	0	0	0	0	483	443	1021	0	0	0	
4	0	0	0	0	491	448	1021	0	0	0	
5	0	0	0	0	500	454	1021	0	0	0	
6	0	0	0	0	511	461	1021	0	0	0	
7	0	0	0	0	522	468	1021	0	0	0	
8	0	0	0	0	532	475	1021	0	0	0	
9	0	0	0	0	542	482	1021	0	0	0	
10	0	0	0	0	550	487	1021	0	0	0	
11	0	0	0	0	556	492	1021	0	0	0	
12	0	0	0	0	560	495	1021	0	0	0	
13	0	0	0	0	561	497	1021	0	0	0	
14	0	0	0	0	561	497	1021	0	0	0	
15	0	0	0	0	559	496	1021	0	0	0	
0	0	0	0	0	554	494	1021	0	0	0	
1	0	0	0	0	548	490	1021	0	0	0	
2	0	0	0	0	541	486	1021	0	0	0	
3	0	0	0	0	534	480	1021	0	0	0	
4	0	0	0	0	525	474	1021	0	0	0	
5	0	0	0	0	518	468	1021	0	0	0	
6	0	0	0	0	510	463	1021	0	0	0	
7	0	0	0	0	504	457	1021	0	0	0	
8	0	0	0	0	498	453	1021	0	0	0	
9	0	0	0	0	495	450	1021	0	0	0	
10	0	0	0	0	493	448	1021	0	0	0	
11	0	0	0	0	493	448	1021	0	0	0	
12	0	0	0	0	495	449	1021	0	0	0	
13	0	0	0	0	498	452	1021	0	0	0	
14	0	0	0	0	503	455	1021	0	0	0	
15	0	0	0	0	509	460	1021	0	0	0	
0	0	0	0	0	516	465	1021	0	0	0	
1	0	0	0	0	524	470	1021	0	0	0	
2	0	0	0	0	531	476	1021	0	0	0	
3	0	0	0	0	537	480	1021	0	0	0	
4	0	0	0	0	543	485	1021	0	0	0	
5	0	0	0	0	547	489	1021	0	0	0	
6	0	0	0	0	550	491	1021	0	0	0	
7	0	0	0	0	551	492	1021	0	0	0	
8	0	0	0	0	552	493	1021	0	0	0	
9	0	0	0	0	552	493	1021	0	0	0	
10	0	0	0	0	551	492	1021	0	0	0	
11	0	0	0	0	549	492	1021	0	0	0	
12	0	0	0	0	547	491	1021	0	0	0	
13	0	0	0	0	545	491	1021	0	0	0	
14	0	0	0	0	545	491	1021	0	0	0	
15	0	0	0	0	546	493	1021	0	0	0	
0	0	0	0	0	548	496	1021	0	0	0	
1	0	0	0	0	551	499	1020	0	0	0	
2	0	0	0	0	556	504	1021	0	0	0	
3	0	0	0	0	560	508	1021	0	0	0	
4	0	0	0	0	563	510	1021	0	0	0	
5	0	0	0	0	565	512	1021	0	0	0	
6	0	0	0	0	564	511	1021	0	0	0	
7	0	0	0	0	561	508	1021	0	0	0	
8	0	0	0	0	556	504	1021	0	0	0	
9	0	0	0	0	550	498	1021	0	0	0	
10	0	0	0	0	543	492	1021	0	0	0	
11	0	0	0	0	535	484	1021	0	0	0	
12	0	0	0	0	527	478	1021	0	0	0	
13	0	0	0	0	520	472	1021	0	0	0	
14	0	0	0	0	514	467	1021	0	0	0	
15	0	0	0	0	510	464	1021	0	0	0	
0	0	0	0	0	508	463	1021	0	0	0	
1	0	0	0	0	507	462	1021	0	0	0	
2	0	0	0	0	508	462	1021	0	0	0	
3	0	0	0	0	510	463	1021	0	0	0	
4	0	0	0	0	512	465	1021	0	0	0	
5	0	0	0	0	516	467	1021	0	0	0	
6	0	0	0	0	520	469	1021	0	0	0	
7	0	0	0	0	524	471	1021	0	0	0	
8	0	0	0	0	528	473	1021	0	0	0	
9	0	0	0	0	531	474	1021	0	0	0	
10	0	0	0	0	534	475	1021	0	0	0	
11	0	0	0	0	535	476	1021	0	0	0	
12	0	0	0	0	537	477	1021	0	0	0	
13	0	0	0	0	538	479	1021	0	0	0	
14	0	0	0	0	540	480	1021	0	0	0	
15	0	0	0	0	542	482	1021	0	0	0	
0	0	0	0	0	543	485	1021	0	0	0	
1	0	0	0	0	546	488	1021	0	0	0	
2	0	0	0	0	550	492	1021	0	0	0	
3	0	0	0	0	552	495	1021	0	0	0	
4	0	0	0	0	556	498	1021	0	0	0	
5	0	0	0	0	559	502	1021	0	0	0	
6	0	0	0	0	563	505	1021	0	0	0	
7	0	0	0	0	565	508	1021	0	0	0	
8	0	0	0	0	566	510	1021	0	0	0	
9	0	0	0	0	567	511	1021	0	0	0	
10	0	0	0	0	566	511	1021	0	0	0	
11	0	0	0	0	563	510	1021	0	0	0	
12	0	0	0	0	559	507	1021	0	0	0	
13	0	0	0	0	553	502	1021	0	0	0	
14	0	0	0	0	545	496	1021	0	0	0	
15	0	0	0	0	536	489	1021	0	0	0	
0	0	0	0	0	528	481	1021	0	0	0	
1	0	0	0	0	519	474	1021	0	0	0	
2	0	0	0	0	512	468	1021	0	0	0	
3	0	0	0	0	507	463	1021	0	0	0	
4	0	0	0	0	504	460	1021	0	0	0	
5	0	0	0	0	503	459	1021	0	0	0	
6	0	0	0	0	505	459	1021	0	0	0	
7	0	0	0	0	508	461	1021	0	0	0	
8	0	0	0	0	513	464	1021	0	0	0	
9	0	0	0	0	519	468	1021	0	0	0	
10	0	0	0	0	527	473	1021	0	0	0	
11	0	0	0	0	534	478	1021	0	0	0	
12	0	0	0	0	540	483	1021	0	0	0	
13	0	0	0	0	546	487	1021	0	0	0	
14	0	0	0	0	549	488	1021	0	0	0	
15	0	0	0	0	549	488	1021	0	0	0	
0	0	0	0	0	546	486	1021	0	0	0	
1	0	0	0	0	539	480	1021	0	0	0	
2	0	0	0	0	529	471	1021	0	0	0	
3	0	0	0	0	515	460	1021	0	0	0	
4	0	0	0	0	499	446	1021	0	0	0	
5	0	0	0	0	481	430	1021	0	0	0	
6	0	0	0	0	460	412	1021	0	0	0	
7	0	0	0	0	439	394	1021	0	0	0	
8	0	0	0	0	418	375	1021	0	0	0	
9	0	0	0	0	398	357	1021	0	0	0	
10	0	0	0	0	379	339	1021	0	0	0	
11	0	0	0	0	361	323	1021	0	0	0	
12	0	0	0	0	348	309	1021	0	0	0	
13	0	0	0	0	336	296	1021	0	0	0	
14	0	0	0	0	328	287	1021	0	0	0	
15	0	0	0	0	324	281	1021	0	0	0	
0	0	0	0	0	323	278	1021	0	0	0	
1	0	0	0	0	324	277	1020	0	0	0	
2	0	0	0	0	328	278	1021	0	0	0	
3	0	0	0	0	333	280	1021	0	0	0	
4	0	0	0	0	339	284	1021	0	0	0	
5	0	0	0	0	345	287	1021	0	0	0	
6	0	0	0	0	351	291	1021	0	0	0	
7	0	0	0	0	357	295	1021	0	0	0	
8	0	0	0	0	362	300	1021	0	0	0	
9	0	0	0	0	367	304	1021	0	0	0	
10	0	0	0	0	372	310	1021	0	0	0	
11	0	0	0	0	379	316	1021	0	0	0	
12	0	0	0	0	385	323	1021	0	0	0	
