# OpenSignals Text File Format. Version 1
# {"": {"position": 0, "device": "", "device name": "", "device connection": "", "sampling rate": 1000, "resolution": [4, 1, 1, 1, 1, 10, 10, 10, 10, 6, 6], "firmware version": 1281, "comments": "", "keywords": "", "mode": 0, "sync interval": 2, "date": "", "time": "", "channels": [1, 2, 3, 4, 5, 6], "sensor": ["RAW", "RAW", "RAW", "RAW", "RAW", "RAW"], "label": ["A1", "A2", "A3", "A4", "A5", "A6"], "column": ["nSeq", "I1", "I2", "O1", "O2", "A1", "A2", "A3", "A4", "A5", "A6"], "special": [{}, {}, {}, {}, {}, {}], "digital IO": [0, 0, 1, 1]}}
# EndOfHeader
0	0	0	0	0	579	582	0	475	0	0	
1	0	0	0	0	580	572	0	471	0	0	
2	0	0	0	0	583	559	0	470	0	0	
3	0	0	0	0	587	547	0	472	0	0	
4	0	0	0	0	591	536	0	476	0	0	
5	0	0	0	0	596	526	0	483	0	0	
6	0	0	0	0	601	520	0	493	0	0	
7	0	0	0	0	605	518	0	502	0	0	
8	0	0	0	0	608	519	0	512	0	0	
9	0	0	0	0	610	524	0	521	0	0	
10	0	0	0	0	610	533	0	527	0	0	
11	0	0	0	0	609	545	0	532	0	0	
12	0	0	0	0	608	557	0	535	0	0	
13	0	0	0	0	604	569	0	533	0	0	
14	0	0	0	0	599	581	0	528	0	0	
15	0	0	0	0	594	590	0	521	0	0	
0	0	0	0	0	590	597	0	512	0	0	
1	0	0	0	0	585	598	0	503	0	0	
2	0	0	0	0	583	596	0	493	0	0	
3	0	0	0	0	581	591	0	484	0	0	
4	0	0	0	0	581	582	0	477	0	0	
5	0	0	0	0	583	571	0	472	0	0	
6	0	0	0	0	586	559	0	470	0	0	
7	0	0	0	0	591	547	0	472	0	0	
8	0	0	0	0	596	536	0	476	0	0	
9	0	0	0	0	602	527	0	482	0	0	
10	0	0	0	0	608	522	0	492	0	0	
11	0	0	0	0	613	520	0	501	0	0	
12	0	0	0	0	617	523	0	512	0	0	
13	0	0	0	0	619	530	0	520	0	0	
14	0	0	0	0	621	539	0	528	0	0	
15	0	0	0	0	620	552	0	534	0	0	
0	0	0	0	0	619	564	0	536	0	0	
1	0	0	0	0	615	578	0	536	0	0	
2	0	0	0	0	611	590	0	532	0	0	
3	0	0	0	0	606	600	0	526	0	0	
4	0	0	0	0	601	607	0	519	0	0	
5	0	0	0	0	596	609	0	510	0	0	
6	0	0	0	0	593	609	0	500	0	0	
7	0	0	0	0	591	604	0	492	0	0	
8	0	0	0	0	591	595	0	485	0	0	
9	0	0	0	0	591	584	0	481	0	0	
10	0	0	0	0	593	571	0	479	0	0	
11	0	0	0	0	598	559	0	481	0	0	
12	0	0	0	0	602	547	0	485	0	0	
13	0	0	0	0	607	536	0	491	0	0	
14	0	0	0	0	612	530	0	500	0	0	
15	0	0	0	0	616	527	0	509	0	0	
0	0	0	0	0	619	527	0	518	0	0	
1	0	0	0	0	620	532	0	526	0	0	
2	0	0	0	0	619	540	0	532	0	0	
3	0	0	0	0	617	551	0	537	0	0	
4	0	0	0	0	614	563	0	538	0	0	
5	0	0	0	0	609	575	0	536	0	0	
6	0	0	0	0	603	586	0	531	0	0	
7	0	0	0	0	597	594	0	523	0	0	
8	0	0	0	0	591	600	0	514	0	0	
9	0	0	0	0	587	601	0	504	0	0	
10	0	0	0	0	583	599	0	494	0	0	
11	0	0	0	0	581	593	0	485	0	0	
12	0	0	0	0	580	584	0	477	0	0	
13	0	0	0	0	581	572	0	472	0	0	
14	0	0	0	0	583	559	0	469	0	0	
15	0	0	0	0	586	545	0	470	0	0	
0	0	0	0	0	591	532	0	472	0	0	
1	0	0	0	0	595	521	0	478	0	0	
2	0	0	0	0	599	514	0	485	0	0	
3	0	0	0	0	602	510	0	493	0	0	
4	0	0	0	0	604	511	0	501	0	0	
5	0	0	0	0	606	515	0	509	0	0	
6	0	0	0	0	606	523	0	515	0	0	
7	0	0	0	0	605	535	0	519	0	0	
8	0	0	0	0	603	547	0	520	0	0	
9	0	0	0	0	598	560	0	519	0	0	
10	0	0	0	0	595	572	0	515	0	0	
11	0	0	0	0	590	582	0	509	0	0	
12	0	0	0	0	585	590	0	501	0	0	
13	0	0	0	0	580	592	0	492	0	0	
14	0	0	0	0	577	590	0	483	0	0	
15	0	0	0	0	574	585	0	476	0	0	
0	0	0	0	0	573	576	0	469	0	0	
1	0	0	0	0	574	566	0	465	0	0	
2	0	0	0	0	576	553	0	464	0	0	
3	0	0	0	0	580	540	0	465	0	0	
4	0	0	0	0	584	528	0	470	0	0	
5	0	0	0	0	590	519	0	477	0	0	
6	0	0	0	0	596	514	0	486	0	0	
7	0	0	0	0	601	512	0	496	0	0	
8	0	0	0	0	606	514	0	506	0	0	
9	0	0	0	0	608	520	0	515	0	0	
10	0	0	0	0	610	529	0	522	0	0	
11	0	0	0	0	610	540	0	527	0	0	
12	0	0	0	0	608	552	0	529	0	0	
13	0	0	0	0	603	564	0	527	0	0	
14	0	0	0	0	599	575	0	522	0	0	
15	0	0	0	0	592	583	0	514	0	0	
0	0	0	0	0	587	589	0	504	0	0	
1	0	0	0	0	581	589	0	494	0	0	
2	0	0	0	0	577	587	0	483	0	0	
3	0	0	0	0	573	580	0	472	0	0	
4	0	0	0	0	572	571	0	464	0	0	
5	0	0	0	0	572	559	0	459	0	0	
6	0	0	0	0	574	546	0	455	0	0	
7	0	0	0	0	577	532	0	455	0	0	
8	0	0	0	0	581	521	0	459	0	0	
9	0	0	0	0	585	511	0	464	0	0	
10	0	0	0	0	590	504	0	472	0	0	
11	0	0	0	0	594	502	0	480	0	0	
12	0	0	0	0	598	503	0	489	0	0	
13	0	0	0	0	599	507	0	498	0	0	
14	0	0	0	0	600	516	0	505	0	0	
15	0	0	0	0	600	527	0	511	0	0	
0	0	0	0	0	598	540	0	514	0	0	
1	0	0	0	0	594	553	0	514	0	0	
2	0	0	0	0	591	565	0	512	0	0	
3	0	0	0	0	587	575	0	506	0	0	
4	0	0	0	0	583	583	0	500	0	0	
5	0	0	0	0	580	587	0	492	0	0	
6	0	0	0	0	578	586	0	484	0	0	
7	0	0	0	0	577	582	0	476	0	0	
8	0	0	0	0	578	575	0	470	0	0	
9	0	0	0	0	579	565	0	465	0	0	
10	0	0	0	0	582	553	0	463	0	0	
11	0	0	0	0	586	540	0	463	0	0	
12	0	0	0	0	590	528	0	467	0	0	
13	0	0	0	0	595	519	0	472	0	0	
14	0	0	0	0	599	512	0	479	0	0	
15	0	0	0	0	602	508	0	486	0	0	
0	0	0	0	0	603	508	0	494	0	0	
1	0	0	0	0	604	512	0	501	0	0	
2	0	0	0	0	604	519	0	507	0	0	
3	0	0	0	0	601	529	0	511	0	0	
4	0	0	0	0	598	540	0	512	0	0	
5	0	0	0	0	594	551	0	511	0	0	
6	0	0	0	0	588	562	0	507	0	0	
7	0	0	0	0	583	572	0	500	0	0	
8	0	0	0	0	578	578	0	493	0	0	
9	0	0	0	0	574	581	0	484	0	0	
10	0	0	0	0	571	579	0	475	0	0	
11	0	0	0	0	569	575	0	466	0	0	
12	0	0	0	0	570	568	0	460	0	0	
13	0	0	0	0	571	558	0	455	0	0	
14	0	0	0	0	574	546	0	453	0	0	
15	0	0	0	0	578	534	0	454	0	0	
0	0	0	0	0	583	523	0	459	0	0	
1	0	0	0	0	590	515	0	465	0	0	
2	0	0	0	0	595	510	0	473	0	0	
3	0	0	0	0	600	508	0	483	0	0	
4	0	0	0	0	605	510	0	494	0	0	
5	0	0	0	0	608	516	0	503	0	0	
6	0	0	0	0	609	525	0	511	0	0	
7	0	0	0	0	609	537	0	517	0	0	
8	0	0	0	0	607	549	0	520	0	0	
9	0	0	0	0	604	561	0	520	0	0	
10	0	0	0	0	599	573	0	516	0	0	
11	0	0	0	0	592	582	0	509	0	0	
12	0	0	0	0	585	587	0	499	0	0	
13	0	0	0	0	578	587	0	487	0	0	
14	0	0	0	0	570	582	0	473	0	0	
15	0	0	0	0	561	572	0	458	0	0	
0	0	0	0	0	553	557	0	444	0	0	
1	0	0	0	0	546	539	0	430	0	0	
2	0	0	0	0	538	518	0	417	0	0	
3	0	0	0	0	531	495	0	407	0	0	
4	0	0	0	0	524	473	0	399	0	0	
5	0	0	0	0	517	451	0	392	0	0	
6	0	0	0	0	510	433	0	387	0	0	
7	0	0	0	0	502	418	0	384	0	0	
8	0	0	0	0	493	406	0	381	0	0	
9	0	0	0	0	483	399	0	377	0	0	
10	0	0	0	0	471	394	0	372	0	0	
11	0	0	0	0	458	392	0	365	0	0	
12	0	0	0	0	444	392	0	356	0	0	
13	0	0	0	0	428	392	0	343	0	0	
14	0	0	0	0	412	391	0	328	0	0	
15	0	0	0	0	393	388	0	310	0	0	
0	0	0	0	0	377	383	0	290	0	0	
1	0	0	0	0	361	374	0	270	0	0	
2	0	0	0	0	347	362	0	249	0	0	
3	0	0	0	0	335	347	0	230	0	0	
4	0	0	0	0	326	331	0	214	0	0	
5	0	0	0	0	321	313	0	202	0	0	
6	0	0	0	0	321	297	0	196	0	0	
7	0	0	0	0	326	284	0	197	0	0	
8	0	0	0	0	335	274	0	205	0	0	
9	0	0	0	0	349	271	0	219	0	0	
10	0	0	0	0	367	273	0	240	0	0	
11	0	0	0	0	388	283	0	266	0	0	
12	0	0	0	0	411	300	0	295	0	0	
13	0	0	0	0	434	324	0	326	0	0	
14	0	0	0	0	458	353	0	357	0	0	
15	0	0	0	0	482	387	0	387	0	0	
0	0	0	0	0	504	423	0	415	0	0	
1	0	0	0	0	524	459	0	439	0	0	
2	0	0	0	0	541	493	0	457	0	0	
3	0	0	0	0	556	524	0	471	0	0	
4	0	0	0	0	568	550	0	480	0	0	
5	0	0	0	0	578	569	0	486	0	0	
6	0	0	0	0	587	582	0	487	0	0	
7	0	0	0	0	592	588	0	487	0	0	
8	0	0	0	0	597	588	0	484	0	0	
9	0	0	0	0	601	583	0	482	0	0	
10	0	0	0	0	604	573	0	480	0	0	
11	0	0	0	0	606	560	0	480	0	0	
12	0	0	0	0	607	547	0	481	0	0	
13	0	0	0	0	608	535	0	483	0	0	
14	0	0	0	0	608	524	0	488	0	0	
15	0	0	0	0	606	517	0	493	0	0	
0	0	0	0	0	604	514	0	498	0	0	
1	0	0	0	0	600	514	0	503	0	0	
2	0	0	0	0	596	518	0	506	0	0	
3	0	0	0	0	592	526	0	508	0	0	
4	0	0	0	0	587	536	0	508	0	0	
5	0	0	0	0	582	546	0	507	0	0	
6	0	0	0	0	576	558	0	502	0	0	
7	0	0	0	0	572	568	0	496	0	0	
8	0	0	0	0	569	576	0	489	0	0	
9	0	0	0	0	568	580	0	481	0	0	
10	0	0	0	0	568	582	0	473	0	0	
11	0	0	0	0	569	580	0	467	0	0	
12	0	0	0	0	572	574	0	462	0	0	
13	0	0	0	0	577	566	0	460	0	0	
14	0	0	0	0	583	557	0	460	0	0	
15	0	0	0	0	591	546	0	463	0	0	
0	0	0	0	0	598	537	0	469	0	0	
1	0	0	0	0	605	529	0	477	0	0	
2	0	0	0	0	612	524	0	486	0	0	
3	0	0	0	0	617	522	0	497	0	0	
4	0	0	0	0	621	524	0	506	0	0	
5	0	0	0	0	622	528	0	515	0	0	
6	0	0	0	0	622	536	0	522	0	0	
7	0	0	0	0	620	546	0	526	0	0	
8	0	0	0	0	615	556	0	527	0	0	
9	0	0	0	0	610	567	0	525	0	0	
10	0	0	0	0	603	577	0	520	0	0	
11	0	0	0	0	595	586	0	512	0	0	
12	0	0	0	0	589	591	0	503	0	0	
13	0	0	0	0	583	594	0	492	0	0	
14	0	0	0	0	579	592	0	481	0	0	
15	0	0	0	0	577	587	0	472	0	0	
0	0	0	0	0	577	579	0	464	0	0	
1	0	0	0	0	579	570	0	460	0	0	
2	0	0	0	0	583	559	0	459	0	0	
3	0	0	0	0	589	547	0	461	0	0	
4	0	0	0	0	596	537	0	467	0	0	
5	0	0	0	0	604	529	0	475	0	0	
6	0	0	0	0	611	524	0	485	0	0	
7	0	0	0	0	617	522	0	496	0	0	
8	0	0	0	0	622	524	0	506	0	0	
9	0	0	0	0	625	528	0	515	0	0	
10	0	0	0	0	626	537	0	523	0	0	
11	0	0	0	0	625	548	0	527	0	0	
12	0	0	0	0	621	560	0	529	0	0	
13	0	0	0	0	616	571	0	527	0	0	
14	0	0	0	0	608	582	0	521	0	0	
15	0	0	0	0	600	589	0	513	0	0	
0	0	0	0	0	592	594	0	503	0	0	
1	0	0	0	0	584	595	0	492	0	0	
2	0	0	0	0	578	592	0	481	0	0	
3	0	0	0	0	574	585	0	471	0	0	
4	0	0	0	0	571	576	0	463	0	0	
5	0	0	0	0	571	564	0	457	0	0	
6	0	0	0	0	573	551	0	455	0	0	
7	0	0	0	0	576	538	0	457	0	0	
8	0	0	0	0	582	526	0	462	0	0	
9	0	0	0	0	589	518	0	469	0	0	
10	0	0	0	0	595	511	0	478	0	0	
11	0	0	0	0	601	509	0	488	0	0	
12	0	0	0	0	606	510	0	499	0	0	
13	0	0	0	0	608	515	0	508	0	0	
14	0	0	0	0	610	524	0	514	0	0	
15	0	0	0	0	609	535	0	519	0	0	
0	0	0	0	0	606	546	0	519	0	0	
1	0	0	0	0	600	558	0	518	0	0	
2	0	0	0	0	594	568	0	512	0	0	
3	0	0	0	0	588	577	0	504	0	0	
4	0	0	0	0	581	583	0	494	0	0	
5	0	0	0	0	575	585	0	483	0	0	
6	0	0	0	0	571	583	0	473	0	0	
7	0	0	0	0	568	577	0	463	0	0	
8	0	0	0	0	567	569	0	456	0	0	
9	0	0	0	0	568	558	0	451	0	0	
10	0	0	0	0	570	546	0	449	0	0	
11	0	0	0	0	575	534	0	451	0	0	
12	0	0	0	0	580	523	0	455	0	0	
13	0	0	0	0	587	515	0	462	0	0	
14	0	0	0	0	593	509	0	472	0	0	
15	0	0	0	0	598	507	0	481	0	0	
0	0	0	0	0	602	509	0	491	0	0	
1	0	0	0	0	605	514	0	500	0	0	
2	0	0	0	0	605	522	0	507	0	0	
3	0	0	0	0	604	533	0	512	0	0	
4	0	0	0	0	601	543	0	513	0	0	
5	0	0	0	0	596	555	0	512	0	0	
6	0	0	0	0	590	564	0	506	0	0	
7	0	0	0	0	584	572	0	500	0	0	
8	0	0	0	0	577	577	0	491	0	0	
9	0	0	0	0	572	578	0	481	0	0	
10	0	0	0	0	568	575	0	471	0	0	
11	0	0	0	0	565	570	0	461	0	0	
12	0	0	0	0	564	561	0	453	0	0	
13	0	0	0	0	565	550	0	448	0	0	
14	0	0	0	0	568	537	0	446	0	0	
15	0	0	0	0	572	525	0	447	0	0	
0	0	0	0	0	577	514	0	451	0	0	
1	0	0	0	0	583	505	0	458	0	0	
2	0	0	0	0	589	500	0	467	0	0	
3	0	0	0	0	593	498	0	477	0	0	
4	0	0	0	0	598	499	0	487	0	0	
5	0	0	0	0	600	505	0	497	0	0	
6	0	0	0	0	602	514	0	505	0	0	
7	0	0	0	0	601	526	0	511	0	0	
8	0	0	0	0	599	538	0	514	0	0	
9	0	0	0	0	596	550	0	513	0	0	
10	0	0	0	0	591	562	0	509	0	0	
11	0	0	0	0	585	571	0	503	0	0	
12	0	0	0	0	579	577	0	494	0	0	
13	0	0	0	0	575	579	0	484	0	0	
14	0	0	0	0	571	577	0	474	0	0	
15	0	0	0	0	568	572	0	464	0	0	
0	0	0	0	0	567	563	0	456	0	0	
1	0	0	0	0	567	551	0	451	0	0	
2	0	0	0	0	570	539	0	448	0	0	
3	0	0	0	0	574	527	0	449	0	0	
4	0	0	0	0	579	515	0	452	0	0	
5	0	0	0	0	584	507	0	459	0	0	
6	0	0	0	0	590	500	0	467	0	0	
7	0	0	0	0	595	498	0	476	0	0	
8	0	0	0	0	598	499	0	486	0	0	
9	0	0	0	0	600	504	0	494	0	0	
10	0	0	0	0	599	512	0	501	0	0	
11	0	0	0	0	597	521	0	505	0	0	
12	0	0	0	0	592	532	0	506	0	0	
13	0	0	0	0	587	542	0	504	0	0	
14	0	0	0	0	579	552	0	499	0	0	
15	0	0	0	0	572	560	0	492	0	0	
0	0	0	0	0	566	566	0	483	0	0	
1	0	0	0	0	560	568	0	474	0	0	
2	0	0	0	0	557	567	0	464	0	0	
3	0	0	0	0	555	562	0	456	0	0	
4	0	0	0	0	555	555	0	449	0	0	
5	0	0	0	0	557	545	0	444	0	0	
6	0	0	0	0	561	534	0	442	0	0	
7	0	0	0	0	566	522	0	443	0	0	
8	0	0	0	0	571	511	0	447	0	0	
9	0	0	0	0	577	502	0	453	0	0	
10	0	0	0	0	582	496	0	461	0	0	
11	0	0	0	0	587	494	0	471	0	0	
12	0	0	0	0	591	496	0	480	0	0	
13	0	0	0	0	593	500	0	489	0	0	
14	0	0	0	0	594	509	0	496	0	0	
15	0	0	0	0	593	520	0	502	0	0	
0	0	0	0	0	590	532	0	504	0	0	
1	0	0	0	0	586	543	0	503	0	0	
2	0	0	0	0	580	555	0	499	0	0	
3	0	0	0	0	574	563	0	492	0	0	
4	0	0	0	0	568	569	0	483	0	0	
5	0	0	0	0	563	571	0	474	0	0	
6	0	0	0	0	560	569	0	465	0	0	
7	0	0	0	0	558	564	0	456	0	0	
8	0	0	0	0	557	557	0	449	0	0	
9	0	0	0	0	558	547	0	444	0	0	
10	0	0	0	0	561	536	0	443	0	0	
11	0	0	0	0	566	524	0	444	0	0	
12	0	0	0	0	571	513	0	448	0	0	
13	0	0	0	0	576	505	0	455	0	0	
14	0	0	0	0	582	500	0	464	0	0	
15	0	0	0	0	587	498	0	473	0	0	
0	0	0	0	0	590	500	0	483	0	0	
1	0	0	0	0	593	505	0	492	0	0	
2	0	0	0	0	595	514	0	499	0	0	
3	0	0	0	0	594	525	0	504	0	0	
4	0	0	0	0	592	537	0	506	0	0	
5	0	0	0	0	589	549	0	505	0	0	
6	0	0	0	0	585	561	0	502	0	0	
7	0	0	0	0	580	571	0	495	0	0	
8	0	0	0	0	576	578	0	487	0	0	
9	0	0	0	0	573	580	0	478	0	0	
10	0	0	0	0	570	579	0	469	0	0	
11	0	0	0	0	570	575	0	461	0	0	
12	0	0	0	0	570	567	0	454	0	0	
13	0	0	0	0	572	557	0	450	0	0	
14	0	0	0	0	575	545	0	448	0	0	
15	0	0	0	0	580	533	0	449	0	0	
0	0	0	0	0	584	522	0	454	0	0	
1	0	0	0	0	590	513	0	460	0	0	
2	0	0	0	0	595	507	0	470	0	0	
3	0	0	0	0	599	504	0	480	0	0	
4	0	0	0	0	602	505	0	490	0	0	
5	0	0	0	0	603	510	0	498	0	0	
6	0	0	0	0	604	518	0	505	0	0	
7	0	0	0	0	603	528	0	510	0	0	
8	0	0	0	0	599	539	0	512	0	0	
9	0	0	0	0	594	551	0	511	0	0	
10	0	0	0	0	588	561	0	506	0	0	
11	0	0	0	0	582	570	0	498	0	0	
12	0	0	0	0	576	576	0	490	0	0	
13	0	0	0	0	571	578	0	480	0	0	
14	0	0	0	0	567	577	0	470	0	0	
15	0	0	0	0	564	572	0	460	0	0	
0	0	0	0	0	563	564	0	452	0	0	
1	0	0	0	0	564	554	0	447	0	0	
2	0	0	0	0	566	542	0	445	0	0	
3	0	0	0	0	570	529	0	446	0	0	
4	0	0	0	0	575	518	0	449	0	0	
5	0	0	0	0	581	508	0	455	0	0	
6	0	0	0	0	587	502	0	465	0	0	
7	0	0	0	0	591	498	0	475	0	0	
8	0	0	0	0	595	499	0	484	0	0	
9	0	0	0	0	596	503	0	493	0	0	
10	0	0	0	0	597	510	0	500	0	0	
11	0	0	0	0	595	520	0	505	0	0	
12	0	0	0	0	592	531	0	506	0	0	
13	0	0	0	0	587	542	0	504	0	0	
14	0	0	0	0	580	552	0	499	0	0	
15	0	0	0	0	574	561	0	492	0	0	
0	0	0	0	0	568	567	0	483	0	0	
1	0	0	0	0	561	568	0	473	0	0	
2	0	0	0	0	557	567	0	463	0	0	
3	0	0	0	0	554	561	0	453	0	0	
4	0	0	0	0	552	553	0	445	0	0	
5	0	0	0	0	553	543	0	440	0	0	
6	0	0	0	0	556	530	0	438	0	0	
7	0	0	0	0	560	518	0	438	0	0	
8	0	0	0	0	565	507	0	442	0	0	
9	0	0	0	0	571	497	0	448	0	0	
10	0	0	0	0	577	491	0	456	0	0	
11	0	0	0	0	583	488	0	466	0	0	
12	0	0	0	0	586	489	0	476	0	0	
13	0	0	0	0	590	494	0	485	0	0	
14	0	0	0	0	591	502	0	492	0	0	
15	0	0	0	0	591	513	0	497	0	0	
0	0	0	0	0	589	525	0	500	0	0	
1	0	0	0	0	585	538	0	499	0	0	
2	0	0	0	0	581	550	0	495	0	0	
3	0	0	0	0	575	559	0	489	0	0	
4	0	0	0	0	570	566	0	480	0	0	
5	0	0	0	0	565	569	0	471	0	0	
6	0	0	0	0	560	568	0	461	0	0	
7	0	0	0	0	559	563	0	452	0	0	
8	0	0	0	0	558	556	0	445	0	0	
9	0	0	0	0	559	545	0	440	0	0	
10	0	0	0	0	561	534	0	438	0	0	
11	0	0	0	0	565	521	0	439	0	0	
12	0	0	0	0	569	510	0	442	0	0	
13	0	0	0	0	575	501	0	449	0	0	
14	0	0	0	0	580	494	0	457	0	0	
15	0	0	0	0	585	492	0	467	0	0	
0	0	0	0	0	589	493	0	477	0	0	
1	0	0	0	0	591	497	0	486	0	0	
2	0	0	0	0	591	506	0	494	0	0	
3	0	0	0	0	591	517	0	499	0	0	
4	0	0	0	0	588	528	0	502	0	0	
5	0	0	0	0	584	541	0	502	0	0	
6	0	0	0	0	579	552	0	498	0	0	
7	0	0	0	0	573	561	0	492	0	0	
8	0	0	0	0	568	568	0	484	0	0	
9	0	0	0	0	563	571	0	475	0	0	
10	0	0	0	0	559	569	0	465	0	0	
11	0	0	0	0	557	565	0	456	0	0	
12	0	0	0	0	556	557	0	449	0	0	
13	0	0	0	0	557	546	0	444	0	0	
14	0	0	0	0	560	534	0	442	0	0	
15	0	0	0	0	565	522	0	443	0	0	
0	0	0	0	0	570	511	0	447	0	0	
1	0	0	0	0	576	502	0	453	0	0	
2	0	0	0	0	582	496	0	461	0	0	
3	0	0	0	0	588	494	0	471	0	0	
4	0	0	0	0	591	496	0	480	0	0	
5	0	0	0	0	594	501	0	489	0	0	
6	0	0	0	0	596	510	0	496	0	0	
7	0	0	0	0	596	522	0	502	0	0	
8	0	0	0	0	595	534	0	504	0	0	
9	0	0	0	0	591	547	0	504	0	0	
10	0	0	0	0	586	559	0	501	0	0	
11	0	0	0	0	581	568	0	496	0	0	
12	0	0	0	0	576	575	0	488	0	0	
13	0	0	0	0	572	577	0	480	0	0	
14	0	0	0	0	569	576	0	471	0	0	
15	0	0	0	0	566	572	0	463	0	0	
0	0	0	0	0	565	563	0	455	0	0	
1	0	0	0	0	566	552	0	450	0	0	
2	0	0	0	0	568	539	0	448	0	0	
3	0	0	0	0	571	527	0	448	0	0	
4	0	0	0	0	575	515	0	450	0	0	
5	0	0	0	0	579	505	0	455	0	0	
6	0	0	0	0	584	499	0	462	0	0	
7	0	0	0	0	588	497	0	470	0	0	
8	0	0	0	0	592	498	0	478	0	0	
9	0	0	0	0	593	503	0	486	0	0	
10	0	0	0	0	594	511	0	492	0	0	
11	0	0	0	0	593	522	0	497	0	0	
12	0	0	0	0	591	534	0	499	0	0	
13	0	0	0	0	588	545	0	497	0	0	
14	0	0	0	0	582	557	0	494	0	0	
15	0	0	0	0	577	566	0	487	0	0	
0	0	0	0	0	571	572	0	480	0	0	
1	0	0	0	0	567	575	0	472	0	0	
2	0	0	0	0	563	573	0	463	0	0	
3	0	0	0	0	560	568	0	455	0	0	
4	0	0	0	0	560	560	0	449	0	0	
5	0	0	0	0	560	549	0	445	0	0	
6	0	0	0	0	562	537	0	443	0	0	
7	0	0	0	0	565	524	0	444	0	0	
8	0	0	0	0	568	512	0	447	0	0	
9	0	0	0	0	572	502	0	452	0	0	
10	0	0	0	0	575	494	0	459	0	0	
11	0	0	0	0	579	490	0	467	0	0	
12	0	0	0	0	581	491	0	475	0	0	
13	0	0	0	0	582	495	0	483	0	0	
14	0	0	0	0	583	502	0	489	0	0	
15	0	0	0	0	583	513	0	494	0	0	
0	0	0	0	0	581	525	0	496	0	0	
1	0	0	0	0	578	537	0	496	0	0	
2	0	0	0	0	574	548	0	493	0	0	
3	0	0	0	0	570	559	0	487	0	0	
4	0	0	0	0	565	566	0	479	0	0	
5	0	0	0	0	562	569	0	471	0	0	
6	0	0	0	0	559	568	0	462	0	0	
7	0	0	0	0	557	563	0	454	0	0	
8	0	0	0	0	556	556	0	446	0	0	
9	0	0	0	0	557	545	0	442	0	0	
10	0	0	0	0	560	533	0	440	0	0	
11	0	0	0	0	564	521	0	440	0	0	
12	0	0	0	0	569	510	0	444	0	0	
13	0	0	0	0	574	501	0	450	0	0	
14	0	0	0	0	580	495	0	458	0	0	
15	0	0	0	0	584	492	0	467	0	0	
0	0	0	0	0	588	494	0	476	0	0	
1	0	0	0	0	590	498	0	486	0	0	
2	0	0	0	0	591	507	0	493	0	0	
3	0	0	0	0	590	517	0	499	0	0	
4	0	0	0	0	587	529	0	502	0	0	
5	0	0	0	0	583	541	0	501	0	0	
6	0	0	0	0	577	551	0	497	0	0	
7	0	0	0	0	570	560	0	490	0	0	
8	0	0	0	0	564	567	0	482	0	0	
9	0	0	0	0	559	568	0	472	0	0	
10	0	0	0	0	555	566	0	462	0	0	
11	0	0	0	0	552	561	0	452	0	0	
12	0	0	0	0	551	552	0	444	0	0	
13	0	0	0	0	553	542	0	439	0	0	
14	0	0	0	0	556	529	0	437	0	0	
15	0	0	0	0	561	517	0	439	0	0	
0	0	0	0	0	568	507	0	443	0	0	
1	0	0	0	0	574	498	0	451	0	0	
2	0	0	0	0	581	492	0	461	0	0	
3	0	0	0	0	587	491	0	472	0	0	
4	0	0	0	0	592	492	0	484	0	0	
5	0	0	0	0	595	497	0	494	0	0	
6	0	0	0	0	596	507	0	502	0	0	
7	0	0	0	0	595	518	0	508	0	0	
8	0	0	0	0	593	530	0	510	0	0	
9	0	0	0	0	590	542	0	509	0	0	
10	0	0	0	0	583	553	0	504	0	0	
11	0	0	0	0	578	563	0	497	0	0	
12	0	0	0	0	572	569	0	488	0	0	
13	0	0	0	0	567	572	0	478	0	0	
14	0	0	0	0	563	571	0	468	0	0	
15	0	0	0	0	560	566	0	459	0	0	
0	0	0	0	0	559	558	0	451	0	0	
1	0	0	0	0	560	547	0	446	0	0	
2	0	0	0	0	562	534	0	444	0	0	
3	0	0	0	0	567	521	0	445	0	0	
4	0	0	0	0	571	510	0	449	0	0	
5	0	0	0	0	577	501	0	455	0	0	
6	0	0	0	0	583	495	0	464	0	0	
7	0	0	0	0	587	492	0	474	0	0	
8	0	0	0	0	591	494	0	483	0	0	
9	0	0	0	0	593	499	0	492	0	0	
10	0	0	0	0	593	507	0	499	0	0	
11	0	0	0	0	593	518	0	505	0	0	
12	0	0	0	0	591	530	0	507	0	0	
13	0	0	0	0	588	542	0	506	0	0	
14	0	0	0	0	583	553	1	502	0	0	
15	0	0	0	0	578	562	0	496	0	0	
0	0	0	0	0	573	569	0	488	0	0	
1	0	0	0	0	568	571	0	479	0	0	
2	0	0	0	0	564	569	0	469	0	0	
3	0	0	0	0	562	564	0	461	0	0	
4	0	0	0	0	560	556	0	453	0	0	
5	0	0	0	0	561	546	0	449	0	0	
6	0	0	0	0	563	534	0	447	0	0	
7	0	0	0	0	568	521	0	448	0	0	
8	0	0	0	0	571	511	0	452	0	0	
9	0	0	0	0	577	502	0	458	0	0	
10	0	0	0	0	583	496	0	467	0	0	
11	0	0	0	0	588	494	0	477	0	0	
12	0	0	0	0	593	496	0	486	0	0	
13	0	0	0	0	595	501	0	494	0	0	
14	0	0	0	0	597	509	0	501	0	0	
15	0	0	0	0	596	520	0	505	0	0	
0	0	0	0	0	595	532	0	507	0	0	
1	0	0	0	0	591	544	0	505	0	0	
2	0	0	0	0	586	554	0	501	0	0	
3	0	0	0	0	580	563	0	494	0	0	
4	0	0	0	0	574	569	0	486	0	0	
5	0	0	0	0	568	572	0	476	0	0	
6	0	0	0	0	564	569	0	466	0	0	
7	0	0	0	0	560	564	0	457	0	0	
8	0	0	0	0	558	556	0	449	0	0	
9	0	0	0	0	558	544	0	444	0	0	
10	0	0	0	0	559	532	0	441	0	0	
11	0	0	0	0	562	520	0	442	0	0	
12	0	0	0	0	566	508	0	446	0	0	
13	0	0	0	0	572	499	0	452	0	0	
14	0	0	0	0	578	493	0	461	0	0	
15	0	0	0	0	583	491	0	471	0	0	
0	0	0	0	0	588	493	0	481	0	0	
1	0	0	0	0	591	497	0	491	0	0	
2	0	0	0	0	593	506	0	499	0	0	
3	0	0	0	0	593	517	0	505	0	0	
4	0	0	0	0	591	529	0	508	0	0	
5	0	0	0	0	588	541	0	508	0	0	
6	0	0	0	0	583	552	0	505	0	0	
7	0	0	0	0	577	562	0	499	0	0	
8	0	0	0	0	572	569	0	492	0	0	
9	0	0	0	0	568	571	0	482	0	0	
10	0	0	0	0	564	570	0	473	0	0	
11	0	0	0	0	562	566	0	464	0	0	
12	0	0	0	0	563	558	0	456	0	0	
13	0	0	0	0	564	548	0	451	0	0	
14	0	0	0	0	567	536	0	448	0	0	
15	0	0	0	0	571	524	0	448	0	0	
0	0	0	0	0	576	513	0	451	0	0	
1	0	0	0	0	582	504	0	457	0	0	
2	0	0	0	0	587	498	0	464	0	0	
3	0	0	0	0	591	494	0	473	0	0	
4	0	0	0	0	594	495	0	482	0	0	
5	0	0	0	0	595	499	0	490	0	0	
6	0	0	0	0	595	506	0	496	0	0	
7	0	0	0	0	593	516	0	502	0	0	
8	0	0	0	0	590	527	0	504	0	0	
9	0	0	0	0	585	537	0	503	0	0	
10	0	0	0	0	578	547	0	499	0	0	
11	0	0	0	0	572	555	0	493	0	0	
12	0	0	0	0	566	560	0	486	0	0	
13	0	0	0	0	561	563	0	478	0	0	
14	0	0	0	0	558	561	0	469	0	0	
15	0	0	0	0	556	557	0	462	0	0	
0	0	0	0	0	556	549	0	455	0	0	
1	0	0	0	0	558	540	0	452	0	0	
2	0	0	0	0	561	529	0	451	0	0	
3	0	0	0	0	567	519	0	452	0	0	
4	0	0	0	0	573	509	0	457	0	0	
5	0	0	0	0	580	502	0	463	0	0	
6	0	0	0	0	587	497	0	472	0	0	
7	0	0	0	0	592	495	0	482	0	0	
8	0	0	0	0	596	497	0	491	0	0	
9	0	0	0	0	599	503	0	500	0	0	
10	0	0	0	0	600	511	0	507	0	0	
11	0	0	0	0	598	521	0	512	0	0	
12	0	0	0	0	595	532	0	514	0	0	
13	0	0	0	0	591	543	0	512	0	0	
14	0	0	0	0	584	553	0	508	0	0	
15	0	0	0	0	577	562	0	500	0	0	
0	0	0	0	0	571	567	0	492	0	0	
1	0	0	0	0	565	569	0	481	0	0	
2	0	0	0	0	561	567	0	472	0	0	
3	0	0	0	0	558	561	0	462	0	0	
4	0	0	0	0	558	552	0	455	0	0	
5	0	0	0	0	559	542	0	450	0	0	
6	0	0	0	0	562	529	0	447	0	0	
7	0	0	0	0	566	517	0	448	0	0	
8	0	0	0	0	573	506	0	452	0	0	
9	0	0	0	0	579	497	0	459	0	0	
10	0	0	0	0	586	492	0	467	0	0	
11	0	0	0	0	591	490	0	478	0	0	
12	0	0	0	0	596	491	0	487	0	0	
13	0	0	0	0	598	497	0	496	0	0	
14	0	0	0	0	599	505	0	502	0	0	
15	0	0	0	0	597	515	0	508	0	0	
0	0	0	0	0	594	527	0	509	0	0	
1	0	0	0	0	589	539	0	508	0	0	
2	0	0	0	0	582	549	0	503	0	0	
3	0	0	0	0	575	558	0	495	0	0	
4	0	0	0	0	568	564	0	486	0	0	
5	0	0	0	0	562	566	0	476	0	0	
6	0	0	0	0	558	564	0	466	0	0	
7	0	0	0	0	555	559	0	456	0	0	
8	0	0	0	0	554	551	0	448	0	0	
9	0	0	0	0	556	541	0	444	0	0	
10	0	0	0	0	559	529	0	441	0	0	
11	0	0	0	0	563	517	0	442	0	0	
12	0	0	0	0	569	505	0	446	0	0	
13	0	0	0	0	575	496	0	452	0	0	
14	0	0	0	0	581	489	0	461	0	0	
15	0	0	0	0	586	487	0	470	0	0	
0	0	0	0	0	590	487	0	480	0	0	
1	0	0	0	0	591	491	0	487	0	0	
2	0	0	0	0	592	499	0	494	0	0	
3	0	0	0	0	591	508	0	499	0	0	
4	0	0	0	0	588	519	0	500	0	0	
5	0	0	0	0	583	530	0	498	0	0	
6	0	0	0	0	576	540	0	493	0	0	
7	0	0	0	0	569	548	0	486	0	0	
8	0	0	0	0	562	553	0	476	0	0	
9	0	0	0	0	556	554	0	465	0	0	
10	0	0	0	0	550	552	0	454	0	0	
11	0	0	0	0	546	545	0	445	0	0	
12	0	0	0	0	544	536	0	436	0	0	
13	0	0	0	0	544	524	0	431	0	0	
14	0	0	0	0	545	512	0	428	0	0	
15	0	0	0	0	549	498	0	428	0	0	
0	0	0	0	0	553	487	0	432	0	0	
1	0	0	0	0	559	478	0	438	0	0	
2	0	0	0	0	565	472	0	447	0	0	
3	0	0	0	0	571	470	0	457	0	0	
4	0	0	0	0	576	472	0	468	0	0	
5	0	0	0	0	579	478	0	477	0	0	
6	0	0	0	0	582	487	0	486	0	0	
7	0	0	0	0	583	499	0	492	0	0	
8	0	0	0	0	582	513	0	496	0	0	
9	0	0	0	0	579	527	0	496	0	0	
10	0	0	0	0	575	539	0	493	0	0	
11	0	0	0	0	570	550	0	487	0	0	
12	0	0	0	0	565	558	0	480	0	0	
13	0	0	0	0	561	561	0	471	0	0	
14	0	0	0	0	558	561	0	462	0	0	
15	0	0	0	0	556	556	0	453	0	0	
0	0	0	0	0	556	548	0	445	0	0	
1	0	0	0	0	557	538	0	440	0	0	
2	0	0	0	0	560	526	0	438	0	0	
3	0	0	0	0	564	514	0	438	0	0	
4	0	0	0	0	570	503	0	441	0	0	
5	0	0	0	0	576	494	0	448	0	0	
6	0	0	0	0	582	488	0	457	0	0	
7	0	0	0	0	588	486	0	467	0	0	
8	0	0	0	0	591	488	0	476	0	0	
9	0	0	0	0	595	493	0	487	0	0	
10	0	0	0	0	596	502	0	495	0	0	
11	0	0	0	0	595	513	0	501	0	0	
12	0	0	0	0	593	525	0	504	0	0	
13	0	0	0	0	590	537	0	504	0	0	
14	0	0	0	0	584	549	0	501	0	0	
15	0	0	0	0	578	558	0	494	0	0	
0	0	0	0	0	572	565	0	487	0	0	
1	0	0	0	0	567	568	0	476	0	0	
2	0	0	0	0	563	566	0	467	0	0	
3	0	0	0	0	560	560	0	457	0	0	
4	0	0	0	0	558	551	0	448	0	0	
5	0	0	0	0	559	540	0	442	0	0	
6	0	0	0	0	560	528	0	438	0	0	
7	0	0	0	0	563	515	0	438	0	0	
8	0	0	0	0	568	503	0	440	0	0	
9	0	0	0	0	572	494	0	445	0	0	
10	0	0	0	0	578	487	0	454	0	0	
11	0	0	0	0	583	484	0	463	0	0	
12	0	0	0	0	587	486	0	472	0	0	
13	0	0	0	0	589	491	0	481	0	0	
14	0	0	0	0	591	499	0	489	0	0	
15	0	0	0	0	591	510	0	495	0	0	
0	0	0	0	0	589	522	0	498	0	0	
1	0	0	0	0	585	535	0	498	0	0	
2	0	0	0	0	581	546	0	495	0	0	
3	0	0	0	0	575	555	0	489	0	0	
4	0	0	0	0	570	562	0	482	0	0	
5	0	0	0	0	565	565	0	473	0	0	
6	0	0	0	0	561	564	0	463	0	0	
7	0	0	0	0	558	559	0	455	0	0	
8	0	0	0	0	557	551	0	447	0	0	
9	0	0	0	0	558	540	0	442	0	0	
10	0	0	0	0	560	528	0	440	0	0	
11	0	0	0	0	564	516	0	440	0	0	
12	0	0	0	0	568	505	0	444	0	0	
13	0	0	0	0	575	496	0	450	0	0	
14	0	0	0	0	580	490	0	459	0	0	
15	0	0	0	0	586	487	0	469	0	0	
0	0	0	0	0	590	488	0	479	0	0	
1	0	0	0	0	593	492	0	488	0	0	
2	0	0	0	0	593	499	0	496	0	0	
3	0	0	0	0	593	510	0	502	0	0	
4	0	0	0	0	591	521	0	504	0	0	
5	0	0	0	0	587	532	0	504	0	0	
6	0	0	0	0	582	543	0	500	0	0	
7	0	0	0	0	576	551	0	493	0	0	
8	0	0	0	0	570	558	0	485	0	0	
9	0	0	0	0	564	559	0	475	0	0	
10	0	0	0	0	559	557	0	464	0	0	
11	0	0	0	0	555	551	0	454	0	0	
12	0	0	0	0	552	542	0	444	0	0	
13	0	0	0	0	551	530	0	437	0	0	
14	0	0	0	0	551	516	0	432	0	0	
15	0	0	0	0	552	502	0	429	0	0	
0	0	0	0	0	553	488	0	429	0	0	
1	0	0	0	0	554	475	0	430	0	0	
2	0	0	0	0	555	464	0	433	0	0	
3	0	0	0	0	554	457	0	436	0	0	
4	0	0	0	0	551	451	0	439	0	0	
5	0	0	0	0	545	449	0	440	0	0	
6	0	0	0	0	538	449	0	437	0	0	
7	0	0	0	0	528	450	0	433	0	0	
8	0	0	0	0	515	452	0	425	0	0	
9	0	0	0	0	500	453	0	413	0	0	
10	0	0	0	0	483	453	0	397	0	0	
11	0	0	0	0	466	450	0	379	0	0	
12	0	0	0	0	448	444	0	358	0	0	
13	0	0	0	0	430	435	0	336	0	0	
14	0	0	0	0	413	420	0	313	0	0	
15	0	0	0	0	397	403	0	290	0	0	
0	0	0	0	0	382	382	0	270	0	0	
1	0	0	0	0	369	358	0	250	0	0	
2	0	0	0	0	358	333	0	234	0	0	
3	0	0	0	0	349	307	0	221	0	0	
4	0	0	0	0	341	284	0	213	0	0	
5	0	0	0	0	336	263	0	208	0	0	
6	0	0	0	0	333	247	0	208	0	0	
7	0	0	0	0	333	236	0	212	0	0	
8	0	0	0	0	335	233	0	220	0	0	
9	0	0	0	0	339	236	0	232	0	0	
10	0	0	0	0	345	248	0	246	0	0	
11	0	0	0	0	355	265	0	262	0	0	
12	0	0	0	0	367	289	0	279	0	0	
13	0	0	0	0	380	316	0	296	0	0	
14	0	0	0	0	395	345	0	313	0	0	
15	0	0	0	0	412	376	0	328	0	0	
0	0	0	0	0	430	405	0	343	0	0	
1	0	0	0	0	450	431	0	356	0	0	
2	0	0	0	0	470	453	0	369	0	0	
3	0	0	0	0	490	471	0	381	0	0	
4	0	0	0	0	511	483	0	393	0	0	
5	0	0	0	0	531	492	0	406	0	0	
6	0	0	0	0	551	496	0	419	0	0	
7	0	0	0	0	569	498	0	433	0	0	
8	0	0	0	0	586	499	0	448	0	0	
9	0	0	0	0	600	499	0	464	0	0	
10	0	0	0	0	613	500	0	480	0	0	
11	0	0	0	0	622	503	0	495	0	0	
12	0	0	0	0	628	507	0	508	0	0	
13	0	0	0	0	631	513	0	519	0	0	
14	0	0	0	0	631	522	0	527	0	0	
15	0	0	0	0	627	532	0	531	0	0	
0	0	0	0	0	622	543	0	532	0	0	
1	0	0	0	0	614	555	0	528	0	0	
2	0	0	0	0	603	564	0	521	0	0	
3	0	0	0	0	593	571	0	510	0	0	
4	0	0	0	0	583	576	0	498	0	0	
5	0	0	0	0	574	577	0	484	0	0	
6	0	0	0	0	567	574	0	471	0	0	
7	0	0	0	0	561	568	0	459	0	0	
8	0	0	0	0	558	558	0	449	0	0	
9	0	0	0	0	558	547	0	443	0	0	
10	0	0	0	0	560	534	0	440	0	0	
11	0	0	0	0	566	520	0	440	0	0	
12	0	0	0	0	572	509	0	445	0	0	
13	0	0	0	0	579	500	0	452	0	0	
14	0	0	0	0	587	494	0	462	0	0	
15	0	0	0	0	594	492	0	473	0	0	
0	0	0	0	0	600	494	0	485	0	0	
1	0	0	0	0	605	499	0	496	0	0	
2	0	0	0	0	608	508	0	505	0	0	
3	0	0	0	0	608	520	0	512	0	0	
4	0	0	0	0	607	534	0	516	0	0	
5	0	0	0	0	604	547	0	516	0	0	
6	0	0	0	0	599	560	0	513	0	0	
7	0	0	0	0	592	571	0	508	0	0	
8	0	0	0	0	587	578	0	499	0	0	
9	0	0	0	0	581	582	0	490	0	0	
10	0	0	0	0	576	582	0	480	0	0	
11	0	0	0	0	572	576	0	471	0	0	
12	0	0	0	0	571	569	0	462	0	0	
13	0	0	0	0	571	559	0	456	0	0	
14	0	0	0	0	573	546	0	453	0	0	
15	0	0	0	0	577	533	0	452	0	0	
0	0	0	0	0	581	521	0	455	0	0	
1	0	0	0	0	587	511	0	461	0	0	
2	0	0	0	0	592	504	0	469	0	0	
3	0	0	0	0	597	500	0	478	0	0	
4	0	0	0	0	601	500	0	488	0	0	
5	0	0	0	0	603	504	0	497	0	0	
6	0	0	0	0	605	511	0	504	0	0	
7	0	0	0	0	604	521	0	510	0	0	
8	0	0	0	0	602	532	0	513	0	0	
9	0	0	0	0	599	544	0	513	0	0	
10	0	0	0	0	594	555	0	510	0	0	
11	0	0	0	0	588	565	0	504	0	0	
12	0	0	0	0	583	572	0	496	0	0	
13	0	0	0	0	578	575	0	487	0	0	
14	0	0	0	0	574	574	0	477	0	0	
15	0	0	0	0	572	570	0	468	0	0	
0	0	0	0	0	570	563	0	460	0	0	
1	0	0	0	0	571	553	0	455	0	0	
2	0	0	0	0	572	541	0	452	0	0	
3	0	0	0	0	576	529	0	452	0	0	
4	0	0	0	0	579	518	0	455	0	0	
5	0	0	0	0	585	508	0	460	0	0	
6	0	0	0	0	590	501	0	469	0	0	
7	0	0	0	0	594	497	0	478	0	0	
8	0	0	0	0	598	497	0	487	0	0	
9	0	0	0	0	599	500	0	495	0	0	
10	0	0	0	0	599	507	0	502	0	0	
11	0	0	0	0	598	516	0	507	0	0	
12	0	0	0	0	594	527	0	508	0	0	
13	0	0	0	0	590	538	0	507	0	0	
14	0	0	0	0	583	548	0	504	0	0	
15	0	0	0	0	577	556	0	496	0	0	
0	0	0	0	0	571	562	0	487	0	0	
1	0	0	0	0	566	565	0	478	0	0	
2	0	0	0	0	563	565	0	469	0	0	
3	0	0	0	0	560	560	0	461	0	0	
4	0	0	0	0	561	553	0	454	0	0	
5	0	0	0	0	563	543	0	451	0	0	
6	0	0	0	0	568	533	0	450	0	0	
7	0	0	0	0	573	521	0	452	0	0	
8	0	0	0	0	580	511	0	457	0	0	
9	0	0	0	0	587	503	0	463	0	0	
10	0	0	0	0	593	497	0	472	0	0	
11	0	0	0	0	599	495	0	482	0	0	
12	0	0	0	0	604	496	0	491	0	0	
13	0	0	0	0	606	500	0	499	0	0	
14	0	0	0	0	607	508	0	505	0	0	
15	0	0	0	0	606	518	0	511	0	0	
0	0	0	0	0	603	529	0	512	0	0	
1	0	0	0	0	599	542	0	510	0	0	
2	0	0	0	0	593	552	0	506	0	0	
3	0	0	0	0	586	562	0	499	0	0	
4	0	0	0	0	579	569	0	490	0	0	
5	0	0	0	0	573	572	0	480	0	0	
6	0	0	0	0	568	570	0	470	0	0	
7	0	0	0	0	564	565	0	460	0	0	
8	0	0	0	0	562	557	0	452	0	0	
9	0	0	0	0	562	546	0	446	0	0	
10	0	0	0	0	563	533	0	443	0	0	
11	0	0	0	0	567	519	0	443	0	0	
12	0	0	0	0	571	507	0	446	0	0	
13	0	0	0	0	576	498	0	452	0	0	
14	0	0	0	0	582	491	0	461	0	0	
15	0	0	0	0	588	488	0	471	0	0	
0	0	0	0	0	593	489	0	482	0	0	
1	0	0	0	0	596	495	0	492	0	0	
2	0	0	0	0	599	504	0	500	0	0	
3	0	0	0	0	601	516	0	508	0	0	
4	0	0	0	0	600	529	0	512	0	0	
5	0	0	0	0	598	544	0	513	0	0	
6	0	0	0	0	596	557	0	512	0	0	
7	0	0	0	0	592	568	0	507	0	0	
8	0	0	0	0	588	576	0	500	0	0	
9	0	0	0	0	583	580	0	492	0	0	
10	0	0	0	0	580	581	0	482	0	0	
11	0	0	0	0	577	576	0	472	0	0	
12	0	0	0	0	576	568	0	463	0	0	
13	0	0	0	0	575	557	0	457	0	0	
14	0	0	0	0	575	543	0	453	0	0	
15	0	0	0	0	577	529	0	451	0	0	
0	0	0	0	0	580	515	0	453	0	0	
1	0	0	0	0	583	503	0	456	0	0	
2	0	0	0	0	586	494	0	463	0	0	
3	0	0	0	0	589	489	0	472	0	0	
4	0	0	0	0	591	487	0	480	0	0	
5	0	0	0	0	591	490	0	487	0	0	
6	0	0	0	0	591	496	0	494	0	0	
7	0	0	0	0	590	506	0	499	0	0	
8	0	0	0	0	587	517	0	502	0	0	
9	0	0	0	0	584	529	0	502	0	0	
10	0	0	0	0	579	541	0	499	0	0	
11	0	0	0	0	575	551	0	492	0	0	
12	0	0	0	0	571	559	0	484	0	0	
13	0	0	0	0	567	562	0	475	0	0	
14	0	0	0	0	564	562	0	465	0	0	
15	0	0	0	0	562	558	0	456	0	0	
0	0	0	0	0	562	551	0	448	0	0	
1	0	0	0	0	563	540	0	443	0	0	
2	0	0	0	0	565	528	0	440	0	0	
3	0	0	0	0	568	515	0	440	0	0	
4	0	0	0	0	572	504	0	443	0	0	
5	0	0	0	0	576	493	0	448	0	0	
6	0	0	0	0	581	487	0	455	0	0	
7	0	0	0	0	585	483	0	464	0	0	
8	0	0	0	0	588	483	0	474	0	0	
9	0	0	0	0	589	487	0	483	0	0	
10	0	0	0	0	589	495	0	491	0	0	
11	0	0	0	0	589	506	0	497	0	0	
12	0	0	0	0	587	518	0	501	0	0	
13	0	0	0	0	584	531	0	502	0	0	
14	0	0	0	0	580	543	0	499	0	0	
15	0	0	0	0	575	553	0	494	0	0	
0	0	0	0	0	572	561	0	487	0	0	
1	0	0	0	0	568	564	0	479	0	0	
2	0	0	0	0	565	563	0	470	0	0	
3	0	0	0	0	563	559	0	461	0	0	
4	0	0	0	0	562	551	0	452	0	0	
5	0	0	0	0	562	541	0	447	0	0	
6	0	0	0	0	564	528	0	443	0	0	
7	0	0	0	0	567	515	0	442	0	0	
8	0	0	0	0	571	503	0	444	0	0	
9	0	0	0	0	576	493	0	449	0	0	
10	0	0	0	0	581	485	0	456	0	0	
11	0	0	0	0	585	481	0	464	0	0	
12	0	0	0	0	588	481	0	473	0	0	
13	0	0	0	0	590	484	0	482	0	0	
14	0	0	0	0	591	492	0	489	0	0	
15	0	0	0	0	591	502	0	495	0	0	
0	0	0	0	0	589	514	0	499	0	0	
1	0	0	0	0	587	527	0	499	0	0	
2	0	0	0	0	583	538	0	497	0	0	
3	0	0	0	0	578	548	0	492	0	0	
4	0	0	0	0	575	556	0	486	0	0	
5	0	0	0	0	571	560	0	478	0	0	
6	0	0	0	0	568	560	0	470	0	0	
7	0	0	0	0	567	557	0	462	0	0	
8	0	0	0	0	567	550	0	455	0	0	
9	0	0	0	0	568	540	0	450	0	0	
10	0	0	0	0	570	528	0	447	0	0	
11	0	0	0	0	574	516	0	447	0	0	
12	0	0	0	0	578	505	0	450	0	0	
13	0	0	0	0	582	496	0	455	0	0	
14	0	0	0	0	586	489	0	463	0	0	
15	0	0	0	0	590	485	0	471	0	0	
0	0	0	0	0	592	485	0	479	0	0	
1	0	0	0	0	593	489	0	487	0	0	
2	0	0	0	0	593	496	0	493	0	0	
3	0	0	0	0	591	505	0	499	0	0	
4	0	0	0	0	589	517	0	501	0	0	
5	0	0	0	0	585	529	0	501	0	0	
6	0	0	0	0	581	540	0	498	0	0	
7	0	0	0	0	577	551	0	493	0	0	
8	0	0	0	0	573	559	0	486	0	0	
9	0	0	0	0	570	563	0	479	0	0	
10	0	0	0	0	568	565	0	471	0	0	
11	0	0	0	0	568	561	0	463	0	0	
12	0	0	0	0	568	556	0	457	0	0	
13	0	0	0	0	570	547	0	454	0	0	
14	0	0	0	0	574	536	0	452	0	0	
15	0	0	0	0	578	525	0	453	0	0	
0	0	0	0	0	583	514	0	457	0	0	
1	0	0	0	0	589	505	0	463	0	0	
2	0	0	0	0	594	498	0	471	0	0	
3	0	0	0	0	599	495	0	481	0	0	
4	0	0	0	0	602	496	0	490	0	0	
5	0	0	0	0	604	499	0	499	0	0	
6	0	0	0	0	604	507	0	506	0	0	
7	0	0	0	0	603	517	0	511	0	0	
8	0	0	0	0	600	528	0	514	0	0	
9	0	0	0	0	597	540	0	514	0	0	
10	0	0	0	0	591	551	0	511	0	0	
11	0	0	0	0	585	561	0	505	0	0	
12	0	0	0	0	580	568	0	497	0	0	
13	0	0	0	0	575	572	0	488	0	0	
14	0	0	0	0	571	571	0	479	0	0	
15	0	0	0	0	569	567	0	470	0	0	
0	0	0	0	0	568	560	0	460	0	0	
1	0	0	0	0	569	549	0	455	0	0	
2	0	0	0	0	571	536	0	451	0	0	
3	0	0	0	0	574	523	0	450	0	0	
4	0	0	0	0	578	510	0	451	0	0	
5	0	0	0	0	583	499	0	455	0	0	
6	0	0	0	0	587	491	0	463	0	0	
7	0	0	0	0	591	486	0	470	0	0	
8	0	0	0	0	593	485	0	478	0	0	
9	0	0	0	0	594	487	0	486	0	0	
10	0	0	0	0	594	494	0	492	0	0	
11	0	0	0	0	592	504	0	497	0	0	
12	0	0	0	0	589	515	0	500	0	0	
13	0	0	0	0	585	527	0	499	0	0	
14	0	0	0	0	579	539	0	497	0	0	
15	0	0	0	0	575	550	0	491	0	0	
0	0	0	0	0	569	558	0	484	0	0	
1	0	0	0	0	566	562	0	476	0	0	
2	0	0	0	0	563	563	0	468	0	0	
3	0	0	0	0	561	561	0	460	0	0	
4	0	0	0	0	562	554	0	453	0	0	
5	0	0	0	0	564	545	0	449	0	0	
6	0	0	0	0	568	534	0	447	0	0	
7	0	0	0	0	572	521	0	447	0	0	
8	0	0	0	0	578	510	0	450	0	0	
9	0	0	0	0	584	500	0	455	0	0	
10	0	0	0	0	590	493	0	463	0	0	
11	0	0	0	0	595	489	0	472	0	0	
12	0	0	0	0	599	489	0	481	0	0	
13	0	0	0	0	601	493	0	489	0	0	
14	0	0	0	0	602	499	0	496	0	0	
15	0	0	0	0	600	508	0	501	0	0	
0	0	0	0	0	597	519	0	503	0	0	
1	0	0	0	0	591	530	0	502	0	0	
2	0	0	0	0	586	541	0	499	0	0	
3	0	0	0	0	578	549	0	492	0	0	
4	0	0	0	0	572	556	0	483	0	0	
5	0	0	0	0	565	559	0	473	0	0	
6	0	0	0	0	560	558	0	464	0	0	
7	0	0	0	0	556	555	0	455	0	0	
8	0	0	0	0	556	547	0	448	0	0	
9	0	0	0	0	557	538	0	443	0	0	
10	0	0	0	0	559	527	0	440	0	0	
11	0	0	0	0	564	516	0	441	0	0	
12	0	0	0	0	570	506	0	445	0	0	
13	0	0	0	0	576	498	0	451	0	0	
14	0	0	0	0	583	492	0	460	0	0	
15	0	0	0	0	590	489	0	470	0	0	
0	0	0	0	0	594	490	0	480	0	0	
1	0	0	0	0	597	495	0	489	0	0	
2	0	0	0	0	598	502	0	496	0	0	
3	0	0	0	0	598	511	0	502	0	0	
4	0	0	0	0	595	523	0	505	0	0	
5	0	0	0	0	591	534	0	504	0	0	
6	0	0	0	0	584	544	1	499	0	0	
7	0	0	0	0	577	552	0	493	0	0	
8	0	0	0	0	571	558	0	485	0	0	
9	0	0	0	0	565	560	0	475	0	0	
10	0	0	0	0	560	559	0	464	0	0	
11	0	0	0	0	557	553	0	455	0	0	
12	0	0	0	0	555	545	0	446	0	0	
13	0	0	0	0	555	535	0	440	0	0	
14	0	0	0	0	558	523	0	438	0	0	
15	0	0	0	0	562	511	0	438	0	0	
0	0	0	0	0	568	500	0	442	0	0	
1	0	0	0	0	575	492	0	448	0	0	
2	0	0	0	0	581	487	0	457	0	0	
3	0	0	0	0	588	486	0	468	0	0	
4	0	0	0	0	594	488	0	478	0	0	
5	0	0	0	0	599	494	0	489	0	0	
6	0	0	0	0	601	504	0	498	0	0	
7	0	0	0	0	602	515	0	505	0	0	
8	0	0	0	0	601	529	0	508	0	0	
9	0	0	0	0	598	542	0	509	0	0	
10	0	0	0	0	592	553	0	506	0	0	
11	0	0	0	0	587	563	0	499	0	0	
12	0	0	0	0	581	569	0	491	0	0	
13	0	0	0	0	575	572	0	481	0	0	
14	0	0	0	0	569	570	0	470	0	0	
15	0	0	0	0	566	565	0	460	0	0	
0	0	0	0	0	563	556	0	450	0	0	
1	0	0	0	0	563	544	0	443	0	0	
2	0	0	0	0	564	531	0	439	0	0	
3	0	0	0	0	567	517	0	437	0	0	
4	0	0	0	0	571	504	0	440	0	0	
5	0	0	0	0	577	494	0	444	0	0	
6	0	0	0	0	583	487	0	452	0	0	
7	0	0	0	0	588	483	0	462	0	0	
8	0	0	0	0	593	483	0	472	0	0	
9	0	0	0	0	596	488	0	481	0	0	
10	0	0	0	0	598	496	0	488	0	0	
11	0	0	0	0	597	506	0	495	0	0	
12	0	0	0	0	595	518	0	498	0	0	
13	0	0	0	0	591	530	0	498	0	0	
14	0	0	0	0	585	541	0	495	0	0	
15	0	0	0	0	579	550	0	488	0	0	
0	0	0	0	0	572	557	0	480	0	0	
1	0	0	0	0	566	560	0	471	0	0	
2	0	0	0	0	560	559	0	461	0	0	
3	0	0	0	0	556	555	0	452	0	0	
4	0	0	0	0	555	547	0	444	0	0	
5	0	0	0	0	555	536	0	438	0	0	
6	0	0	0	0	556	524	0	435	0	0	
7	0	0	0	0	560	511	0	435	0	0	
8	0	0	0	0	564	499	0	438	0	0	
9	0	0	0	0	569	488	0	442	0	0	
10	0	0	0	0	575	480	0	451	0	0	
11	0	0	0	0	580	476	0	460	0	0	
12	0	0	0	0	584	476	0	470	0	0	
13	0	0	0	0	587	480	0	479	0	0	
14	0	0	0	0	588	487	0	487	0	0	
15	0	0	0	0	588	498	0	493	0	0	
0	0	0	0	0	586	510	0	496	0	0	
1	0	0	0	0	583	523	0	497	0	0	
2	0	0	0	0	578	535	0	494	0	0	
3	0	0	0	0	572	545	0	487	0	0	
4	0	0	0	0	567	553	0	480	0	0	
5	0	0	0	0	563	558	0	471	0	0	
6	0	0	0	0	559	558	0	460	0	0	
7	0	0	0	0	556	554	0	451	0	0	
8	0	0	0	0	555	547	0	442	0	0	
9	0	0	0	0	555	536	0	435	0	0	
10	0	0	0	0	557	524	0	432	0	0	
11	0	0	0	0	560	511	0	431	0	0	
12	0	0	0	0	564	498	0	433	0	0	
13	0	0	0	0	569	487	0	439	0	0	
14	0	0	0	0	574	480	0	447	0	0	
15	0	0	0	0	579	476	0	456	0	0	
0	0	0	0	0	582	475	0	466	0	0	
1	0	0	0	0	583	478	0	476	0	0	
2	0	0	0	0	584	485	0	483	0	0	
3	0	0	0	0	583	495	0	489	0	0	
4	0	0	0	0	581	507	0	492	0	0	
5	0	0	0	0	577	519	0	492	0	0	
6	0	0	0	0	572	531	0	488	0	0	
7	0	0	0	0	566	541	0	483	0	0	
8	0	0	0	0	561	548	0	475	0	0	
9	0	0	0	0	556	553	0	465	0	0	
10	0	0	0	0	554	553	0	455	0	0	
11	0	0	0	0	551	550	0	446	0	0	
12	0	0	0	0	551	543	0	438	0	0	
13	0	0	0	0	552	534	0	432	0	0	
14	0	0	0	0	555	523	0	429	0	0	
15	0	0	0	0	560	510	0	429	0	0	
0	0	0	0	0	565	499	0	432	0	0	
1	0	0	0	0	571	489	0	438	0	0	
2	0	0	0	0	576	483	0	447	0	0	
3	0	0	0	0	582	479	0	457	0	0	
4	0	0	0	0	586	479	0	468	0	0	
5	0	0	0	0	588	483	0	478	0	0	
6	0	0	0	0	590	491	0	486	0	0	
7	0	0	0	0	590	501	0	492	0	0	
8	0	0	0	0	588	513	0	496	0	0	
9	0	0	0	0	584	525	0	497	0	0	
10	0	0	0	0	579	536	0	494	0	0	
11	0	0	0	0	573	547	0	487	0	0	
12	0	0	0	0	568	554	0	479	0	0	
13	0	0	0	0	562	557	0	469	0	0	
14	0	0	0	0	559	557	0	459	0	0	
15	0	0	0	0	555	552	0	448	0	0	
0	0	0	0	0	553	544	0	439	0	0	
1	0	0	0	0	553	533	0	433	0	0	
2	0	0	0	0	554	520	0	429	0	0	
3	0	0	0	0	557	507	0	428	0	0	
4	0	0	0	0	560	495	0	431	0	0	
5	0	0	0	0	565	485	0	435	0	0	
6	0	0	0	0	570	478	0	444	0	0	
7	0	0	0	0	574	473	0	453	0	0	
8	0	0	0	0	578	473	0	463	0	0	
9	0	0	0	0	580	478	0	472	0	0	
10	0	0	0	0	583	486	0	481	0	0	
11	0	0	0	0	583	496	0	488	0	0	
12	0	0	0	0	582	509	0	492	0	0	
13	0	0	0	0	580	522	0	494	0	0	
14	0	0	0	0	576	535	0	492	0	0	
15	0	0	0	0	572	546	0	488	0	0	
0	0	0	0	0	568	555	0	482	0	0	
1	0	0	0	0	564	559	0	474	0	0	
2	0	0	0	0	560	560	0	465	0	0	
3	0	0	0	0	558	556	0	457	0	0	
4	0	0	0	0	557	549	0	450	0	0	
5	0	0	0	0	557	539	0	444	0	0	
6	0	0	0	0	559	527	0	441	0	0	
7	0	0	0	0	562	514	0	440	0	0	
8	0	0	0	0	566	502	0	443	0	0	
9	0	0	0	0	570	492	0	448	0	0	
10	0	0	0	0	575	484	0	454	0	0	
11	0	0	0	0	579	480	0	463	0	0	
12	0	0	0	0	583	479	0	472	0	0	
13	0	0	0	0	585	481	0	480	0	0	
14	0	0	0	0	586	488	0	487	0	0	
15	0	0	0	0	585	498	0	493	0	0	
0	0	0	0	0	583	509	0	496	0	0	
1	0	0	0	0	580	521	0	496	0	0	
2	0	0	0	0	576	533	0	493	0	0	
3	0	0	0	0	571	543	0	487	0	0	
4	0	0	0	0	566	551	0	480	0	0	
5	0	0	0	0	561	555	0	472	0	0	
6	0	0	0	0	558	555	0	462	0	0	
7	0	0	0	0	556	551	0	453	0	0	
8	0	0	0	0	555	545	0	446	0	0	
9	0	0	0	0	556	536	0	440	0	0	
10	0	0	0	0	558	524	0	438	0	0	
11	0	0	0	0	563	512	0	438	0	0	
12	0	0	0	0	567	501	0	442	0	0	
13	0	0	0	0	572	492	0	448	0	0	
14	0	0	0	0	578	486	0	456	0	0	
15	0	0	0	0	583	483	0	466	0	0	
0	0	0	0	0	588	483	0	476	0	0	
1	0	0	0	0	591	487	0	486	0	0	
2	0	0	0	0	591	495	0	493	0	0	
3	0	0	0	0	591	505	0	499	0	0	
4	0	0	0	0	589	516	0	502	0	0	
5	0	0	0	0	585	528	0	502	0	0	
6	0	0	0	0	579	539	0	497	0	0	
7	0	0	0	0	573	548	0	492	0	0	
8	0	0	0	0	567	555	0	483	0	0	
9	0	0	0	0	561	558	0	473	0	0	
10	0	0	0	0	557	558	0	463	0	0	
11	0	0	0	0	554	553	0	454	0	0	
12	0	0	0	0	552	546	0	445	0	0	
13	0	0	0	0	553	536	0	439	0	0	
14	0	0	0	0	555	524	0	436	0	0	
15	0	0	0	0	559	513	0	436	0	0	
0	0	0	0	0	564	501	0	439	0	0	
1	0	0	0	0	570	492	0	444	0	0	
2	0	0	0	0	576	486	0	453	0	0	
3	0	0	0	0	582	483	0	463	0	0	
4	0	0	0	0	587	483	0	472	0	0	
5	0	0	0	0	590	487	0	482	0	0	
6	0	0	0	0	591	494	0	490	0	0	
7	0	0	0	0	591	504	0	496	0	0	
8	0	0	0	0	588	515	0	500	0	0	
9	0	0	0	0	585	526	0	501	0	0	
10	0	0	0	0	579	536	0	498	0	0	
11	0	0	0	0	573	545	0	492	0	0	
12	0	0	0	0	567	552	0	484	0	0	
13	0	0	0	0	561	555	0	475	0	0	
14	0	0	0	0	557	554	0	464	0	0	
15	0	0	0	0	553	550	0	455	0	0	
0	0	0	0	0	551	542	0	446	0	0	
1	0	0	0	0	551	532	0	440	0	0	
2	0	0	0	0	553	520	0	435	0	0	
3	0	0	0	0	557	508	0	434	0	0	
4	0	0	0	0	561	496	0	437	0	0	
5	0	0	0	0	567	487	0	442	0	0	
6	0	0	0	0	573	480	0	450	0	0	
7	0	0	0	0	578	477	0	460	0	0	
8	0	0	0	0	583	478	0	469	0	0	
9	0	0	0	0	586	481	0	480	0	0	
10	0	0	0	0	588	489	0	488	0	0	
11	0	0	0	0	588	500	0	495	0	0	
12	0	0	0	0	587	512	0	499	0	0	
13	0	0	0	0	584	525	0	500	0	0	
14	0	0	0	0	580	538	0	498	0	0	
15	0	0	0	0	575	548	0	493	0	0	
0	0	0	0	0	570	556	0	486	0	0	
1	0	0	0	0	566	561	0	477	0	0	
2	0	0	0	0	562	562	0	467	0	0	
3	0	0	0	0	560	558	0	459	0	0	
4	0	0	0	0	558	551	0	451	0	0	
5	0	0	0	0	559	542	0	446	0	0	
6	0	0	0	0	561	531	0	442	0	0	
7	0	0	0	0	564	519	0	442	0	0	
8	0	0	0	0	568	508	0	445	0	0	
9	0	0	0	0	574	497	0	450	0	0	
10	0	0	0	0	578	489	0	457	0	0	
11	0	0	0	0	582	484	0	465	0	0	
12	0	0	0	0	585	483	0	474	0	0	
13	0	0	0	0	587	485	0	481	0	0	
14	0	0	0	0	587	491	0	488	0	0	
15	0	0	0	0	586	500	0	493	0	0	
0	0	0	0	0	583	510	0	495	0	0	
1	0	0	0	0	579	521	0	494	0	0	
2	0	0	0	0	573	531	0	489	0	0	
3	0	0	0	0	568	541	0	483	0	0	
4	0	0	0	0	562	547	0	475	0	0	
5	0	0	0	0	556	551	0	465	0	0	
6	0	0	0	0	552	550	0	455	0	0	
7	0	0	0	0	549	547	0	447	0	0	
8	0	0	0	0	547	540	0	439	0	0	
9	0	0	0	0	547	530	0	434	0	0	
10	0	0	0	0	549	519	0	432	0	0	
11	0	0	0	0	553	507	0	432	0	0	
12	0	0	0	0	557	495	0	436	0	0	
13	0	0	0	0	561	486	0	442	0	0	
14	0	0	0	0	567	479	0	450	0	0	
15	0	0	0	0	571	475	0	460	0	0	
0	0	0	0	0	575	475	0	469	0	0	
1	0	0	0	0	577	478	0	478	0	0	
2	0	0	0	0	578	485	0	485	0	0	
3	0	0	0	0	577	495	0	490	0	0	
4	0	0	0	0	575	505	0	492	0	0	
5	0	0	0	0	571	517	0	492	0	0	
6	0	0	0	0	565	527	0	487	0	0	
7	0	0	0	0	559	536	0	481	0	0	
8	0	0	0	0	553	542	0	472	0	0	
9	0	0	0	0	547	544	0	462	0	0	
10	0	0	0	0	543	543	0	451	0	0	
11	0	0	0	0	540	538	0	442	0	0	
12	0	0	0	0	538	530	0	434	0	0	
13	0	0	0	0	539	519	0	428	0	0	
14	0	0	0	0	541	507	0	425	0	0	
15	0	0	0	0	545	495	0	426	0	0	
0	0	0	0	0	549	483	0	429	0	0	
1	0	0	0	0	556	473	0	435	0	0	
2	0	0	0	0	561	467	0	444	0	0	
3	0	0	0	0	567	463	0	454	0	0	
4	0	0	0	0	572	464	0	464	0	0	
5	0	0	0	0	575	468	0	473	0	0	
6	0	0	0	0	576	476	0	482	0	0	
7	0	0	0	0	576	486	0	488	0	0	
8	0	0	0	0	575	498	0	492	0	0	
9	0	0	0	0	571	511	0	492	0	0	
10	0	0	0	0	567	523	0	489	0	0	
11	0	0	0	0	560	534	0	484	0	0	
12	0	0	0	0	555	542	0	476	0	0	
13	0	0	0	0	550	546	0	467	0	0	
14	0	0	0	0	546	547	0	458	0	0	
15	0	0	0	0	544	543	0	449	0	0	
0	0	0	0	0	543	537	0	441	0	0	
1	0	0	0	0	544	529	0	437	0	0	
2	0	0	0	0	547	518	0	435	0	0	
3	0	0	0	0	553	507	0	435	0	0	
4	0	0	0	0	559	496	0	440	0	0	
5	0	0	0	0	566	487	0	446	0	0	
6	0	0	0	0	572	481	0	454	0	0	
7	0	0	0	0	578	477	0	464	0	0	
8	0	0	0	0	582	477	0	474	0	0	
9	0	0	0	0	584	480	0	484	0	0	
10	0	0	0	0	585	487	0	491	0	0	
11	0	0	0	0	583	496	0	497	0	0	
12	0	0	0	0	580	507	0	500	0	0	
13	0	0	0	0	576	518	0	500	0	0	
14	0	0	0	0	570	529	0	497	0	0	
15	0	0	0	0	564	539	0	492	0	0	
0	0	0	0	0	558	545	0	483	0	0	
1	0	0	0	0	553	548	0	474	0	0	
2	0	0	0	0	549	548	0	464	0	0	
3	0	0	0	0	547	544	0	455	0	0	
4	0	0	0	0	547	537	0	447	0	0	
5	0	0	0	0	548	527	0	441	0	0	
6	0	0	0	0	552	516	0	439	0	0	
7	0	0	0	0	557	505	0	439	0	0	
8	0	0	0	0	563	495	0	443	0	0	
9	0	0	0	0	571	487	0	449	0	0	
10	0	0	0	0	578	481	0	458	0	0	
11	0	0	0	0	585	479	0	468	0	0	
12	0	0	0	0	591	480	0	479	0	0	
13	0	0	0	0	595	485	0	489	0	0	
14	0	0	0	0	596	494	0	497	0	0	
15	0	0	0	0	596	504	0	504	0	0	
0	0	0	0	0	594	516	0	507	0	0	
1	0	0	0	0	590	529	0	507	0	0	
2	0	0	0	0	584	540	0	504	0	0	
3	0	0	0	0	577	549	0	497	0	0	
4	0	0	0	0	570	556	0	489	0	0	
5	0	0	0	0	563	559	0	479	0	0	
6	0	0	0	0	558	557	0	468	0	0	
7	0	0	0	0	553	552	0	457	0	0	
8	0	0	0	0	550	543	0	448	0	0	
9	0	0	0	0	549	532	0	441	0	0	
10	0	0	0	0	550	519	0	437	0	0	
11	0	0	0	0	553	507	0	435	0	0	
12	0	0	0	0	558	494	0	438	0	0	
13	0	0	0	0	563	483	0	443	0	0	
14	0	0	0	0	568	476	0	450	0	0	
15	0	0	0	0	573	471	0	459	0	0	
0	0	0	0	0	576	471	0	468	0	0	
1	0	0	0	0	580	473	0	477	0	0	
2	0	0	0	0	582	480	0	485	0	0	
3	0	0	0	0	582	489	0	491	0	0	
4	0	0	0	0	580	500	0	494	0	0	
5	0	0	0	0	578	512	0	495	0	0	
6	0	0	0	0	574	524	0	493	0	0	
7	0	0	0	0	569	535	0	487	0	0	
8	0	0	0	0	564	543	0	481	0	0	
9	0	0	0	0	560	547	0	472	0	0	
10	0	0	0	0	558	548	0	464	0	0	
11	0	0	0	0	556	546	0	456	0	0	
12	0	0	0	0	555	540	0	449	0	0	
13	0	0	0	0	556	531	0	444	0	0	
14	0	0	0	0	557	519	0	440	0	0	
15	0	0	0	0	560	506	0	439	0	0	
0	0	0	0	0	562	493	0	439	0	0	
1	0	0	0	0	565	481	0	441	0	0	
2	0	0	0	0	567	470	0	444	0	0	
3	0	0	0	0	566	462	0	448	0	0	
4	0	0	0	0	564	455	0	451	0	0	
5	0	0	0	0	559	452	0	453	0	0	
6	0	0	0	0	551	452	0	452	0	0	
7	0	0	0	0	542	453	0	449	0	0	
8	0	0	0	0	529	455	0	443	0	0	
9	0	0	0	0	515	457	0	433	0	0	
10	0	0	0	0	499	459	0	419	0	0	
11	0	0	0	0	482	458	0	403	0	0	
12	0	0	0	0	464	454	0	384	0	0	
13	0	0	0	0	447	446	0	363	0	0	
14	0	0	0	0	431	435	0	340	0	0	
15	0	0	0	0	415	419	0	318	0	0	
0	0	0	0	0	400	400	0	297	0	0	
1	0	0	0	0	387	378	0	278	0	0	
2	0	0	0	0	376	353	0	260	0	0	
3	0	0	0	0	366	328	0	246	0	0	
4	0	0	0	0	358	304	0	235	0	0	
5	0	0	0	0	352	281	0	227	0	0	
6	0	0	0	0	347	263	0	224	0	0	
7	0	0	0	0	344	248	0	224	0	0	
8	0	0	0	0	343	240	0	228	0	0	
9	0	0	0	0	343	238	0	235	0	0	
10	0	0	0	0	344	243	0	243	0	0	
11	0	0	0	0	348	254	0	254	0	0	
12	0	0	0	0	353	271	0	267	0	0	
13	0	0	0	0	361	293	0	279	0	0	
14	0	0	0	0	370	317	0	291	0	0	
15	0	0	0	0	381	343	0	303	0	0	
0	0	0	0	0	395	368	0	314	0	0	
1	0	0	0	0	410	393	0	326	0	0	
2	0	0	0	0	428	415	0	337	0	0	
3	0	0	0	0	448	433	0	349	0	0	
4	0	0	0	0	467	448	0	362	0	0	
5	0	0	0	0	489	458	0	376	0	0	
6	0	0	0	0	510	465	0	391	0	0	
7	0	0	0	0	531	470	0	407	0	0	
8	0	0	0	0	551	473	0	424	0	0	
9	0	0	0	0	569	476	0	442	0	0	
10	0	0	0	0	585	479	0	460	0	0	
11	0	0	0	0	598	483	0	477	0	0	
12	0	0	0	0	607	488	0	493	0	0	
13	0	0	0	0	613	495	0	507	0	0	
14	0	0	0	0	615	505	0	516	0	0	
15	0	0	0	0	614	516	0	524	0	0	
0	0	0	0	0	611	528	0	526	0	0	
1	0	0	0	0	604	539	0	524	0	0	
2	0	0	0	0	595	549	0	519	0	0	
3	0	0	0	0	585	558	0	509	0	0	
4	0	0	0	0	575	563	0	497	0	0	
5	0	0	0	0	566	563	0	484	0	0	
6	0	0	0	0	558	562	0	471	0	0	
7	0	0	0	0	552	556	0	458	0	0	
8	0	0	0	0	547	547	0	447	0	0	
9	0	0	0	0	547	536	0	439	0	0	
10	0	0	0	0	548	523	0	435	0	0	
11	0	0	0	0	553	510	0	434	0	0	
12	0	0	0	0	559	499	0	438	0	0	
13	0	0	0	0	567	489	0	444	0	0	
14	0	0	0	0	575	483	0	454	0	0	
15	0	0	0	0	583	480	0	465	0	0	
0	0	0	0	0	590	482	0	477	0	0	
1	0	0	0	0	595	487	0	489	0	0	
2	0	0	0	0	599	496	0	499	0	0	
3	0	0	0	0	601	508	0	508	0	0	
4	0	0	0	0	601	522	0	513	0	0	
5	0	0	0	0	599	536	0	516	0	0	
6	0	0	0	0	595	550	0	515	0	0	
7	0	0	0	0	590	561	0	510	0	0	
8	0	0	0	0	584	570	0	503	0	0	
9	0	0	0	0	579	575	0	495	0	0	
10	0	0	0	0	574	575	0	484	0	0	
11	0	0	0	0	571	571	0	475	0	0	
12	0	0	0	0	569	564	0	466	0	0	
13	0	0	0	0	568	554	0	460	0	0	
14	0	0	0	0	569	542	0	455	0	0	
15	0	0	0	0	573	529	0	455	0	0	
0	0	0	0	0	577	517	0	457	0	0	
1	0	0	0	0	583	507	0	462	0	0	
2	0	0	0	0	588	499	0	470	0	0	
3	0	0	0	0	592	495	0	479	0	0	
4	0	0	0	0	596	494	0	489	0	0	
5	0	0	0	0	599	497	0	499	0	0	
6	0	0	0	0	600	504	0	506	0	0	
7	0	0	0	0	600	513	0	513	0	0	
8	0	0	0	0	599	524	0	517	0	0	
9	0	0	0	0	595	536	0	517	0	0	
10	0	0	0	0	591	548	0	515	0	0	
11	0	0	0	0	586	558	0	508	0	0	
12	0	0	0	0	581	565	0	502	0	0	
13	0	0	0	0	576	569	0	492	0	0	
14	0	0	0	0	573	570	0	482	0	0	
15	0	0	0	0	570	567	0	473	0	0	
0	0	0	0	0	569	560	0	463	0	0	
1	0	0	0	0	569	550	0	457	0	0	
2	0	0	0	0	571	538	0	453	0	0	
3	0	0	0	0	573	526	0	452	0	0	
4	0	0	0	0	577	514	0	454	0	0	
5	0	0	0	0	582	504	0	458	0	0	
6	0	0	0	0	586	496	0	465	0	0	
7	0	0	0	0	591	491	0	474	0	0	
8	0	0	0	0	594	491	0	483	0	0	
9	0	0	0	0	596	494	0	492	0	0	
10	0	0	0	0	598	500	0	500	0	0	
11	0	0	0	0	598	510	0	507	0	0	
12	0	0	0	0	597	522	0	511	0	0	
13	0	0	0	0	595	535	0	513	0	0	
14	0	0	0	0	591	547	0	511	0	0	
15	0	0	0	0	588	558	0	507	0	0	
0	0	0	0	0	583	566	0	499	0	0	
1	0	0	0	0	579	571	0	491	0	0	
2	0	0	0	0	575	571	0	482	0	0	
3	0	0	0	0	572	567	0	472	0	0	
4	0	0	0	0	569	559	0	464	0	0	
5	0	0	0	0	569	548	0	457	0	0	
6	0	0	0	0	569	535	0	452	0	0	
7	0	0	0	0	571	521	0	451	0	0	
8	0	0	0	0	572	508	0	452	0	0	
9	0	0	0	0	576	496	0	456	0	0	
10	0	0	0	0	579	487	0	462	0	0	
11	0	0	0	0	583	483	0	471	0	0	
12	0	0	0	0	586	481	0	479	0	0	
13	0	0	0	0	588	483	0	487	0	0	
14	0	0	0	0	589	490	0	495	0	0	
15	0	0	0	0	590	500	0	501	0	0	
0	0	0	0	0	589	511	0	504	0	0	
1	0	0	0	0	587	524	0	504	0	0	
2	0	0	0	0	583	536	0	502	0	0	
3	0	0	0	0	579	547	0	497	0	0	
4	0	0	0	0	575	556	0	489	0	0	
5	0	0	0	0	570	561	0	481	0	0	
6	0	0	0	0	567	562	0	472	0	0	
7	0	0	0	0	564	558	0	462	0	0	
8	0	0	0	0	563	551	0	454	0	0	
9	0	0	0	0	563	542	0	448	0	0	
10	0	0	0	0	564	530	0	445	0	0	
11	0	0	0	0	568	518	0	445	0	0	
12	0	0	0	0	572	505	0	448	0	0	
13	0	0	0	0	577	495	0	453	0	0	
14	0	0	0	0	583	488	0	461	0	0	
15	0	0	0	0	589	484	0	470	0	0	
0	0	0	0	0	593	484	0	480	0	0	
1	0	0	0	0	598	487	0	489	0	0	
2	0	0	0	0	600	495	0	497	0	0	
3	0	0	0	0	600	505	0	503	0	0	
4	0	0	0	0	599	517	0	507	0	0	
5	0	0	0	0	596	529	0	507	0	0	
6	0	0	0	0	591	540	0	503	0	0	
7	0	0	0	0	585	550	0	496	0	0	
8	0	0	0	0	579	557	0	488	0	0	
9	0	0	0	0	572	560	0	478	0	0	
10	0	0	0	0	567	560	0	467	0	0	
11	0	0	0	0	561	555	0	457	0	0	
12	0	0	0	0	558	547	0	448	0	0	
13	0	0	0	0	556	536	0	441	0	0	
14	0	0	0	0	556	523	0	437	0	0	
15	0	0	0	0	556	510	0	436	0	0	
0	0	0	0	0	559	497	0	438	0	0	
1	0	0	0	0	563	485	0	442	0	0	
2	0	0	0	0	568	477	0	450	0	0	
3	0	0	0	0	572	473	0	460	0	0	
4	0	0	0	0	576	472	0	469	0	0	
5	0	0	0	0	579	475	0	478	0	0	
6	0	0	0	0	582	482	0	486	0	0	
7	0	0	0	0	583	493	0	493	0	0	
8	0	0	0	0	583	505	0	497	0	0	
9	0	0	0	0	581	519	0	499	0	0	
10	0	0	0	0	579	532	0	497	0	0	
11	0	0	0	0	575	543	0	492	0	0	
12	0	0	0	0	572	553	0	486	0	0	
13	0	0	0	0	569	559	0	478	0	0	
14	0	0	0	0	567	560	0	470	0	0	
15	0	0	0	0	565	559	0	462	0	0	
0	0	0	0	0	565	553	0	455	0	0	
1	0	0	0	0	566	544	0	449	0	0	
2	0	0	0	0	568	534	0	446	0	0	
3	0	0	0	0	572	521	0	446	0	0	
4	0	0	0	0	575	509	0	448	0	0	
5	0	0	0	0	580	499	0	452	0	0	
6	0	0	0	0	584	490	0	459	0	0	
7	0	0	0	0	588	485	0	467	0	0	
8	0	0	0	0	591	484	0	476	0	0	
9	0	0	0	0	591	486	0	484	0	0	
10	0	0	0	0	591	492	0	491	0	0	
11	0	0	0	0	590	500	0	496	0	0	
12	0	0	0	0	586	511	0	499	0	0	
13	0	0	0	0	582	522	0	499	0	0	
14	0	0	0	0	575	533	0	494	0	0	
15	0	0	0	0	569	543	0	489	0	0	
0	0	0	0	0	563	550	0	481	0	0	
1	0	0	0	0	557	553	0	472	0	0	
2	0	0	0	0	553	553	0	463	0	0	
3	0	0	0	0	551	549	0	454	0	0	
4	0	0	0	0	550	542	0	446	0	0	
5	0	0	0	0	551	533	0	440	0	0	
6	0	0	0	0	554	522	0	437	0	0	
7	0	0	0	0	559	510	0	437	0	0	
8	0	0	0	0	564	499	0	440	0	0	
9	0	0	0	0	570	489	0	445	0	0	
10	0	0	0	0	577	483	0	454	0	0	
11	0	0	0	0	582	479	0	463	0	0	
12	0	0	0	0	587	479	0	472	0	0	
13	0	0	0	0	589	482	0	481	0	0	
14	0	0	0	0	590	489	0	488	0	0	
15	0	0	0	0	589	499	0	494	0	0	
0	0	0	0	0	586	510	0	497	0	0	
1	0	0	0	0	582	521	0	497	0	0	
2	0	0	0	0	575	532	0	493	0	0	
3	0	0	0	0	568	542	0	487	0	0	
4	0	0	0	0	561	549	0	479	0	0	
5	0	0	0	0	554	551	0	470	0	0	
6	0	0	0	0	549	552	0	460	0	0	
7	0	0	0	0	546	548	0	450	0	0	
8	0	0	0	0	544	541	0	442	0	0	
9	0	0	0	0	545	532	0	437	0	0	
10	0	0	0	0	547	521	0	434	0	0	
11	0	0	0	0	552	509	0	434	0	0	
12	0	0	0	0	558	497	0	438	0	0	
13	0	0	0	0	564	488	0	444	0	0	
14	0	0	0	0	571	481	0	452	0	0	
15	0	0	0	0	576	478	0	461	0	0	
0	0	0	0	0	581	477	0	471	0	0	
1	0	0	0	0	585	480	0	480	0	0	
2	0	0	0	0	586	487	0	488	0	0	
3	0	0	0	0	587	497	0	494	0	0	
4	0	0	0	0	585	508	0	498	0	0	
5	0	0	0	0	583	521	0	499	0	0	
6	0	0	0	0	578	533	0	496	0	0	
7	0	0	0	0	574	543	0	491	0	0	
8	0	0	0	0	569	551	0	484	0	0	
9	0	0	0	0	565	556	0	476	0	0	
10	0	0	0	0	561	557	0	467	0	0	
11	0	0	0	0	559	554	0	459	0	0	
12	0	0	0	0	558	548	0	451	0	0	
13	0	0	0	0	559	538	0	446	0	0	
14	0	0	0	0	560	526	0	443	0	0	
15	0	0	0	0	563	513	0	442	0	0	
0	0	0	0	0	566	500	0	445	0	0	
1	0	0	0	0	570	489	0	449	0	0	
2	0	0	0	0	575	481	0	456	0	0	
3	0	0	0	0	578	476	0	465	0	0	
4	0	0	0	0	581	475	0	474	0	0	
5	0	0	0	0	583	477	0	483	0	0	
6	0	0	0	0	584	484	0	490	0	0	
7	0	0	0	0	583	494	0	496	0	0	
8	0	0	0	0	582	506	0	499	0	0	
9	0	0	0	0	579	519	0	499	0	0	
10	0	0	0	0	575	531	0	497	0	0	
11	0	0	0	0	570	542	0	491	0	0	
12	0	0	0	0	565	550	0	484	0	0	
13	0	0	0	0	560	555	0	475	0	0	
14	0	0	0	0	557	556	0	465	0	0	
15	0	0	0	0	554	552	0	456	0	0	
0	0	0	0	0	552	546	0	448	0	0	
1	0	0	0	0	552	536	0	443	0	0	
2	0	0	0	0	554	524	0	439	0	0	
3	0	0	0	0	557	512	0	438	0	0	
4	0	0	0	0	561	500	0	441	0	0	
5	0	0	0	0	566	489	0	446	0	0	
6	0	0	0	0	571	482	0	454	0	0	
7	0	0	0	0	575	477	0	463	0	0	
8	0	0	0	0	579	475	0	472	0	0	
9	0	0	0	0	581	478	0	480	0	0	
10	0	0	0	0	582	483	0	487	0	0	
11	0	0	0	0	582	492	0	492	0	0	
12	0	0	0	0	580	503	0	495	0	0	
13	0	0	0	0	577	514	0	495	0	0	
14	0	0	0	0	572	525	0	492	0	0	
15	0	0	0	0	568	535	0	486	0	0	
0	0	0	0	0	562	543	0	479	0	0	
1	0	0	0	0	558	547	0	470	0	0	
2	0	0	0	0	554	547	0	460	0	0	
3	0	0	0	0	551	543	0	451	0	0	
4	0	0	0	0	551	537	0	443	0	0	
5	0	0	0	0	551	527	0	438	0	0	
6	0	0	0	0	552	515	0	434	0	0	
7	0	0	0	0	556	503	0	434	0	0	
8	0	0	0	0	561	492	0	436	0	0	
9	0	0	0	0	565	482	0	441	0	0	
10	0	0	0	0	571	476	0	449	0	0	
11	0	0	0	0	575	472	0	458	0	0	
12	0	0	0	0	579	472	0	468	0	0	
13	0	0	0	0	582	476	0	477	0	0	
14	0	0	0	0	583	483	0	485	0	0	
15	0	0	0	0	583	493	0	492	0	0	
0	0	0	0	0	582	505	0	495	0	0	
1	0	0	0	0	579	517	0	496	0	0	
2	0	0	0	0	574	528	0	493	0	0	
3	0	0	0	0	568	538	0	487	0	0	
4	0	0	0	0	562	545	0	479	0	0	
5	0	0	0	0	556	548	0	470	0	0	
6	0	0	0	0	551	548	0	460	0	0	
7	0	0	0	0	548	543	0	451	0	0	
8	0	0	0	0	546	536	0	443	0	0	
9	0	0	0	0	546	527	0	437	0	0	
10	0	0	0	0	548	515	0	434	0	0	
11	0	0	0	0	551	504	0	435	0	0	
12	0	0	0	0	557	492	0	438	0	0	
13	0	0	0	0	563	483	0	444	0	0	
14	0	0	0	0	569	477	0	454	0	0	
15	0	0	0	0	576	474	0	464	0	0	
0	0	0	0	0	580	475	0	475	0	0	
1	0	0	0	0	585	479	0	485	0	0	
2	0	0	0	0	587	487	0	494	0	0	
3	0	0	0	0	587	496	0	500	0	0	
4	0	0	0	0	585	507	0	505	0	0	
5	0	0	0	0	583	520	0	505	0	0	
6	0	0	0	0	577	531	0	502	0	0	
7	0	0	0	0	572	541	0	496	0	0	
8	0	0	0	0	566	549	0	489	0	0	
9	0	0	0	0	561	553	0	480	0	0	
10	0	0	0	0	558	553	0	470	0	0	
11	0	0	0	0	554	550	0	461	0	0	
12	0	0	0	0	553	543	0	453	0	0	
13	0	0	0	0	554	534	0	447	0	0	
14	0	0	0	0	556	523	0	443	0	0	
15	0	0	0	0	558	510	0	442	0	0	
0	0	0	0	0	563	498	0	445	0	0	
1	0	0	0	0	568	488	0	450	0	0	
2	0	0	0	0	573	480	0	457	0	0	
3	0	0	0	0	577	476	0	466	0	0	
4	0	0	0	0	582	475	0	475	0	0	
5	0	0	0	0	584	478	0	484	0	0	
6	0	0	0	0	585	484	0	491	0	0	
7	0	0	0	0	586	494	0	498	0	0	
8	0	0	0	0	584	505	0	501	0	0	
9	0	0	0	0	582	517	0	502	0	0	
10	0	0	0	0	577	529	0	499	0	0	
11	0	0	0	0	572	539	0	494	0	0	
12	0	0	0	0	567	547	0	487	0	0	
13	0	0	0	0	562	551	0	478	0	0	
14	0	0	0	0	558	551	0	468	0	0	
15	0	0	0	0	555	548	0	459	0	0	
0	0	0	0	0	553	542	0	451	0	0	
1	0	0	0	0	553	533	0	445	0	0	
2	0	0	0	0	556	521	0	441	0	0	
3	0	0	0	0	559	509	0	441	0	0	
4	0	0	0	0	563	498	0	445	0	0	
5	0	0	0	0	569	487	0	450	0	0	
6	0	0	0	0	575	480	0	458	0	0	
7	0	0	0	0	580	476	0	467	0	0	
8	0	0	0	0	584	475	0	476	0	0	
9	0	0	0	0	586	478	0	486	0	0	
10	0	0	0	0	588	484	0	494	0	0	
11	0	0	0	0	588	494	0	499	0	0	
12	0	0	0	0	586	505	0	503	0	0	
13	0	0	0	0	583	517	0	503	0	0	
14	0	0	0	0	579	528	0	501	0	0	
15	0	0	0	0	573	539	0	495	0	0	
0	0	0	0	0	568	547	0	487	0	0	
1	0	0	0	0	563	551	0	478	0	0	
2	0	0	0	0	560	551	0	468	0	0	
3	0	0	0	0	557	548	0	459	0	0	
4	0	0	0	0	556	543	0	451	0	0	
5	0	0	0	0	556	534	0	444	0	0	
6	0	0	0	0	558	523	0	441	0	0	
7	0	0	0	0	561	511	0	440	0	0	
8	0	0	0	0	565	499	0	442	0	0	
9	0	0	0	0	569	489	0	447	0	0	
10	0	0	0	0	575	482	0	455	0	0	
11	0	0	0	0	579	478	0	464	0	0	
12	0	0	0	0	583	478	0	473	0	0	
13	0	0	0	0	584	480	0	482	0	0	
14	0	0	0	0	585	487	0	490	0	0	
15	0	0	0	0	585	496	0	496	0	0	
0	0	0	0	0	584	508	0	501	0	0	
1	0	0	0	0	581	520	0	502	0	0	
2	0	0	0	0	576	531	0	500	0	0	
3	0	0	0	0	572	542	0	495	0	0	
4	0	0	0	0	567	549	0	487	0	0	
5	0	0	0	0	561	553	0	478	0	0	
6	0	0	0	0	556	552	0	468	0	0	
7	0	0	0	0	552	547	0	459	0	0	
8	0	0	0	0	550	540	0	451	0	0	
9	0	0	0	0	548	529	0	444	0	0	
10	0	0	0	0	549	517	0	440	0	0	
11	0	0	0	0	551	504	0	440	0	0	
12	0	0	0	0	555	492	0	441	0	0	
13	0	0	0	0	560	482	0	446	0	0	
14	0	0	0	0	566	475	0	454	0	0	
15	0	0	0	0	572	471	0	462	0	0	
0	0	0	0	0	576	471	0	472	0	0	
1	0	0	0	0	580	475	0	481	0	0	
2	0	0	0	0	582	482	0	488	0	0	
3	0	0	0	0	583	492	0	494	0	0	
4	0	0	0	0	582	504	0	497	0	0	
5	0	0	0	0	579	516	0	498	0	0	
6	0	0	0	0	574	527	0	495	0	0	
7	0	0	0	0	569	538	0	489	0	0	
8	0	0	0	0	563	545	0	481	0	0	
9	0	0	0	0	558	550	0	472	0	0	
10	0	0	0	0	553	550	0	463	0	0	
11	0	0	0	0	550	546	0	454	0	0	
12	0	0	0	0	547	540	0	446	0	0	
13	0	0	0	0	547	531	0	440	0	0	
14	0	0	0	0	547	519	0	437	0	0	
15	0	0	0	0	551	507	0	436	0	0	
0	0	0	0	0	554	495	0	438	0	0	
1	0	0	0	0	559	484	0	443	0	0	
2	0	0	0	0	563	476	0	449	0	0	
3	0	0	0	0	568	471	0	458	0	0	
4	0	0	0	0	572	470	0	467	0	0	
5	0	0	0	0	575	472	0	476	0	0	
6	0	0	0	0	576	479	0	483	0	0	
7	0	0	0	0	576	488	0	489	0	0	
8	0	0	0	0	575	499	0	493	0	0	
9	0	0	0	0	573	512	0	493	0	0	
10	0	0	0	0	569	524	0	491	0	0	
11	0	0	0	0	563	536	0	486	0	0	
12	0	0	0	0	559	543	0	480	0	0	
13	0	0	0	0	554	548	0	471	0	0	
14	0	0	0	0	550	549	0	462	0	0	
15	0	0	0	0	548	546	0	454	0	0	
0	0	0	0	0	547	540	0	446	0	0	
1	0	0	0	0	547	531	0	441	0	0	
2	0	0	0	0	549	520	0	437	0	0	
3	0	0	0	0	552	509	0	437	0	0	
4	0	0	0	0	558	497	0	440	0	0	
5	0	0	0	0	563	487	0	445	0	0	
6	0	0	0	0	570	480	0	452	0	0	
7	0	0	0	0	575	476	0	461	0	0	
8	0	0	0	0	580	475	0	471	0	0	
9	0	0	0	0	583	478	0	480	0	0	
10	0	0	0	0	584	484	0	487	0	0	
11	0	0	0	0	583	493	0	494	0	0	
12	0	0	0	0	582	504	0	497	0	0	
13	0	0	0	0	577	515	0	498	0	0	
14	0	0	0	0	572	527	0	495	0	0	
15	0	0	0	0	566	536	0	489	0	0	
0	0	0	0	0	559	543	0	481	0	0	
1	0	0	0	0	553	547	0	472	0	0	
2	0	0	0	0	548	548	0	462	0	0	
3	0	0	0	0	544	544	0	452	0	0	
4	0	0	0	0	542	537	0	443	0	0	
5	0	0	0	0	542	528	0	436	0	0	
6	0	0	0	0	543	517	0	432	0	0	
7	0	0	0	0	547	505	0	431	0	0	
8	0	0	0	0	551	493	0	433	0	0	
9	0	0	0	0	557	483	0	438	0	0	
10	0	0	0	0	563	475	0	447	0	0	
11	0	0	0	0	568	471	0	456	0	0	
12	0	0	0	0	573	471	0	467	0	0	
13	0	0	0	0	577	475	0	477	0	0	
14	0	0	0	0	579	481	0	486	0	0	
15	0	0	0	0	581	492	0	494	0	0	
0	0	0	0	0	580	504	0	499	0	0	
1	0	0	0	0	579	517	0	500	0	0	
2	0	0	0	0	575	530	0	499	0	0	
3	0	0	0	0	572	542	0	495	0	0	
4	0	0	0	0	568	551	0	489	0	0	
5	0	0	0	0	564	557	0	481	0	0	
6	0	0	0	0	561	559	0	473	0	0	
7	0	0	0	0	559	558	0	464	0	0	
8	0	0	0	0	558	552	0	457	0	0	
9	0	0	0	0	558	544	0	451	0	0	
10	0	0	0	0	560	534	0	447	0	0	
11	0	0	0	0	563	522	0	447	0	0	
12	0	0	0	0	566	509	0	449	0	0	
13	0	0	0	0	570	498	0	452	0	0	
14	0	0	0	0	574	490	0	460	0	0	
15	0	0	0	0	578	484	0	467	0	0	
0	0	0	0	0	581	481	0	476	0	0	
1	0	0	0	0	583	483	0	484	0	0	
2	0	0	0	0	583	487	0	490	0	0	
3	0	0	0	0	582	495	0	496	0	0	
4	0	0	0	0	580	504	0	498	0	0	
5	0	0	0	0	576	515	0	498	0	0	
6	0	0	0	0	571	526	0	495	0	0	
7	0	0	0	0	566	535	0	489	0	0	
8	0	0	0	0	560	542	0	481	0	0	
9	0	0	0	0	555	545	0	471	0	0	
10	0	0	0	0	551	546	0	462	0	0	
11	0	0	0	0	548	543	0	452	0	0	
12	0	0	0	0	546	536	0	444	0	0	
13	0	0	0	0	547	527	0	438	0	0	
14	0	0	0	0	548	516	0	433	0	0	
15	0	0	0	0	551	504	0	433	0	0	
0	0	0	0	0	556	493	0	435	0	0	
1	0	0	0	0	561	483	0	440	0	0	
2	0	0	0	0	567	475	0	448	0	0	
3	0	0	0	0	572	471	0	457	0	0	
4	0	0	0	0	576	469	0	467	0	0	
5	0	0	0	0	580	473	0	476	0	0	
6	0	0	0	0	581	479	0	484	0	0	
7	0	0	0	0	582	488	0	492	0	0	
8	0	0	0	0	580	499	0	496	0	0	
9	0	0	0	0	578	511	0	497	0	0	
10	0	0	0	0	573	523	0	496	0	0	
11	0	0	0	0	568	533	0	491	0	0	
12	0	0	0	0	562	541	0	484	0	0	
13	0	0	0	0	557	546	0	475	0	0	
14	0	0	0	0	552	547	0	466	0	0	
15	0	0	0	0	550	544	0	457	0	0	
0	0	0	0	0	547	539	0	449	0	0	
1	0	0	0	0	547	530	0	443	0	0	
2	0	0	0	0	549	520	0	439	0	0	
3	0	0	0	0	552	508	0	438	0	0	
4	0	0	0	0	556	497	0	440	0	0	
5	0	0	0	0	561	487	0	445	0	0	
6	0	0	0	0	567	479	0	452	0	0	
7	0	0	0	0	572	475	0	460	0	0	
8	0	0	0	0	576	473	0	470	0	0	
9	0	0	0	0	579	476	0	479	0	0	
10	0	0	0	0	581	482	0	487	0	0	
11	0	0	0	0	582	491	0	493	0	0	
12	0	0	0	0	581	502	0	497	0	0	
13	0	0	0	0	578	514	0	497	0	0	
14	0	0	0	0	574	526	0	496	0	0	
15	0	0	0	0	569	536	0	490	0	0	
0	0	0	0	0	564	543	0	483	0	0	
1	0	0	0	0	559	548	0	474	0	0	
2	0	0	0	0	555	548	0	464	0	0	
3	0	0	0	0	552	545	0	455	0	0	
4	0	0	0	0	550	540	0	447	0	0	
5	0	0	0	0	550	530	0	440	0	0	
6	0	0	0	0	551	519	0	437	0	0	
7	0	0	0	0	553	508	0	436	0	0	
8	0	0	0	0	557	496	0	439	0	0	
9	0	0	0	0	562	486	0	444	0	0	
10	0	0	0	0	567	479	0	451	0	0	
11	0	0	0	0	572	475	0	460	0	0	
12	0	0	0	0	576	474	0	470	0	0	
13	0	0	0	0	579	476	0	479	0	0	
14	0	0	0	0	580	483	0	487	0	0	
15	0	0	0	0	580	492	0	494	0	0	
0	0	0	0	0	578	503	0	498	0	0	
1	0	0	0	0	575	515	0	499	0	0	
2	0	0	0	0	569	526	0	496	0	0	
3	0	0	0	0	563	536	0	491	0	0	
4	0	0	0	0	558	543	0	483	0	0	
5	0	0	0	0	551	547	0	474	0	0	
6	0	0	0	0	548	548	0	464	0	0	
7	0	0	0	0	545	545	0	454	0	0	
8	0	0	0	0	543	540	0	446	0	0	
9	0	0	0	0	543	530	0	439	0	0	
10	0	0	0	0	546	519	0	435	0	0	
11	0	0	0	0	549	508	0	434	0	0	
12	0	0	0	0	554	496	0	436	0	0	
13	0	0	0	0	560	487	0	441	0	0	
14	0	0	0	0	566	480	0	449	0	0	
15	0	0	0	0	571	475	0	457	0	0	
0	0	0	0	0	576	475	0	467	0	0	
1	0	0	0	0	579	477	0	476	0	0	
2	0	0	0	0	580	483	0	484	0	0	
3	0	0	0	0	580	491	0	491	0	0	
4	0	0	0	0	578	501	0	494	0	0	
5	0	0	0	0	574	512	0	494	0	0	
6	0	0	0	0	568	522	0	491	0	0	
7	0	0	0	0	561	530	0	483	0	0	
8	0	0	0	0	555	536	0	475	0	0	
9	0	0	0	0	547	539	0	465	0	0	
10	0	0	0	0	542	537	0	454	0	0	
11	0	0	0	0	537	532	0	443	0	0	
12	0	0	0	0	533	524	0	433	0	0	
13	0	0	0	0	532	514	0	426	0	0	
14	0	0	0	0	532	502	0	420	0	0	
15	0	0	0	0	534	488	0	419	0	0	
0	0	0	0	0	539	476	0	420	0	0	
1	0	0	0	0	543	466	0	425	0	0	
2	0	0	0	0	549	458	0	432	0	0	
3	0	0	0	0	554	454	0	441	0	0	
4	0	0	0	0	559	453	0	452	0	0	
5	0	0	0	0	563	457	0	462	0	0	
6	0	0	0	0	566	464	0	472	0	0	
7	0	0	0	0	567	474	0	479	0	0	
8	0	0	0	0	566	487	0	484	0	0	
9	0	0	0	0	564	500	0	486	0	0	
10	0	0	0	0	560	513	0	486	0	0	
11	0	0	0	0	556	524	0	482	0	0	
12	0	0	0	0	551	533	0	476	0	0	
13	0	0	0	0	546	539	0	468	0	0	
14	0	0	0	0	542	540	0	459	0	0	
15	0	0	0	0	540	537	0	450	0	0	
0	0	0	0	0	539	532	0	442	0	0	
1	0	0	0	0	540	523	0	436	0	0	
2	0	0	0	0	543	513	0	433	0	0	
3	0	0	0	0	547	503	0	433	0	0	
4	0	0	0	0	554	492	0	436	0	0	
5	0	0	0	0	560	483	0	441	0	0	
6	0	0	0	0	568	477	0	449	0	0	
7	0	0	0	0	574	474	0	459	0	0	
8	0	0	0	0	579	474	0	468	0	0	
9	0	0	0	0	584	478	0	479	0	0	
10	0	0	0	0	586	485	0	487	0	0	
11	0	0	0	0	587	494	0	494	0	0	
12	0	0	0	0	585	505	0	499	0	0	
13	0	0	0	0	582	516	0	500	0	0	
14	0	0	0	0	577	527	0	498	0	0	
15	0	0	0	0	571	537	0	493	0	0	
0	0	0	0	0	564	544	0	486	0	0	
1	0	0	0	0	559	547	0	477	0	0	
2	0	0	0	0	555	547	0	468	0	0	
3	0	0	0	0	551	544	0	459	0	0	
4	0	0	0	0	549	538	0	451	0	0	
5	0	0	0	0	550	529	0	444	0	0	
6	0	0	0	0	551	518	0	440	0	0	
7	0	0	0	0	555	506	0	439	0	0	
8	0	0	0	0	559	494	0	440	0	0	
9	0	0	0	0	565	484	0	445	0	0	
10	0	0	0	0	571	477	0	452	0	0	
11	0	0	0	0	576	473	0	460	0	0	
12	0	0	0	0	580	473	0	470	0	0	
13	0	0	0	0	583	476	0	479	0	0	
14	0	0	0	0	584	483	0	486	0	0	
15	0	0	0	0	584	493	0	493	0	0	
0	0	0	0	0	583	505	0	496	0	0	
1	0	0	0	0	580	517	0	497	0	0	
2	0	0	0	0	576	529	0	495	0	0	
3	0	0	0	0	571	541	0	490	0	0	
4	0	0	0	0	566	549	0	483	0	0	
5	0	0	0	0	561	554	0	475	0	0	
6	0	0	0	0	558	556	0	466	0	0	
7	0	0	0	0	556	553	0	458	0	0	
8	0	0	0	0	554	547	0	450	0	0	
9	0	0	0	0	555	537	0	445	0	0	
10	0	0	0	0	557	526	0	441	0	0	
11	0	0	0	0	560	513	0	441	0	0	
12	0	0	0	0	564	501	0	443	0	0	
13	0	0	0	0	569	490	0	448	0	0	
14	0	0	0	0	574	481	0	456	0	0	
15	0	0	0	0	578	476	0	464	0	0	
0	0	0	0	0	581	474	0	474	0	0	
1	0	0	0	0	583	476	0	483	0	0	
2	0	0	0	0	583	481	0	491	0	0	
3	0	0	0	0	583	490	0	498	0	0	
4	0	0	0	0	580	501	0	502	0	0	
5	0	0	0	0	576	513	0	503	0	0	
6	0	0	0	0	573	526	0	502	0	0	
7	0	0	0	0	568	536	0	496	0	0	
8	0	0	0	0	563	545	0	490	0	0	
9	0	0	0	0	559	550	0	481	0	0	
10	0	0	0	0	557	552	0	472	0	0	
11	0	0	0	0	555	550	0	463	0	0	
12	0	0	0	0	554	544	0	455	0	0	
13	0	0	0	0	555	535	0	448	0	0	
14	0	0	0	0	558	525	0	445	0	0	
15	0	0	0	0	562	512	0	444	0	0	
0	0	0	0	0	567	500	0	447	0	0	
1	0	0	0	0	573	491	0	452	0	0	
2	0	0	0	0	579	483	0	460	0	0	
3	0	0	0	0	584	479	0	469	0	0	
4	0	0	0	0	589	478	0	479	0	0	
5	0	0	0	0	591	481	0	489	0	0	
6	0	0	0	0	593	487	0	497	0	0	
7	0	0	0	0	592	496	0	503	0	0	
8	0	0	0	0	590	507	0	506	0	0	
9	0	0	0	0	585	518	0	506	0	0	
10	0	0	0	0	577	527	0	501	0	0	
11	0	0	0	0	568	534	0	493	0	0	
12	0	0	0	0	558	538	0	482	0	0	
13	0	0	0	0	547	538	0	467	0	0	
14	0	0	0	0	537	533	0	451	0	0	
15	0	0	0	0	527	523	0	434	0	0	
0	0	0	0	0	517	510	0	417	0	0	
1	0	0	0	0	509	492	0	402	0	0	
2	0	0	0	0	501	472	0	387	0	0	
3	0	0	0	0	495	451	0	376	0	0	
4	0	0	0	0	489	430	0	367	0	0	
5	0	0	0	0	485	410	0	361	0	0	
6	0	0	0	0	480	392	0	356	0	0	
7	0	0	0	0	476	377	0	354	0	0	
8	0	0	0	0	470	365	0	352	0	0	
9	0	0	0	0	462	355	0	351	0	0	
10	0	0	0	0	453	350	0	348	0	0	
11	0	0	0	0	441	347	0	343	0	0	
12	0	0	0	0	429	346	0	336	0	0	
13	0	0	0	0	413	346	0	326	0	0	
14	0	0	0	0	397	345	0	312	0	0	
15	0	0	0	0	378	344	0	295	0	0	
0	0	0	0	0	360	340	0	277	0	0	
1	0	0	0	0	343	334	0	257	0	0	
2	0	0	0	0	328	326	0	238	0	0	
3	0	0	0	0	316	316	0	222	0	0	
4	0	0	0	0	308	304	0	209	0	0	
5	0	0	0	0	306	293	0	200	0	0	
6	0	0	0	0	310	283	0	199	0	0	
7	0	0	0	0	319	275	0	204	0	0	
8	0	0	0	0	334	271	0	216	0	0	
9	0	0	0	0	354	271	0	235	0	0	
10	0	0	0	0	379	277	0	260	0	0	
11	0	0	0	0	406	289	0	289	0	0	
12	0	0	0	0	435	307	0	321	0	0	
13	0	0	0	0	463	331	0	355	0	0	
14	0	0	0	0	490	359	0	388	0	0	
15	0	0	0	0	516	392	0	419	0	0	
0	0	0	0	0	539	427	0	447	0	0	
1	0	0	0	0	558	462	0	469	0	0	
2	0	0	0	0	572	494	0	486	0	0	
3	0	0	0	0	583	524	0	496	0	0	
4	0	0	0	0	590	548	0	503	0	0	
5	0	0	0	0	594	566	0	503	0	0	
6	0	0	0	0	595	576	0	499	0	0	
7	0	0	0	0	594	580	0	492	0	0	
8	0	0	0	0	591	577	0	484	0	0	
9	0	0	0	0	590	569	0	476	0	0	
10	0	0	0	0	587	556	0	469	0	0	
11	0	0	0	0	585	540	0	463	0	0	
12	0	0	0	0	583	523	0	460	0	0	
13	0	0	0	0	583	508	0	460	0	0	
14	0	0	0	0	582	494	0	462	0	0	
15	0	0	0	0	583	485	0	467	0	0	
0	0	0	0	0	584	480	0	473	0	0	
1	0	0	0	0	585	479	0	480	0	0	
2	0	0	0	0	586	483	0	488	0	0	
3	0	0	0	0	587	491	0	495	0	0	
4	0	0	0	0	587	503	0	500	0	0	
5	0	0	0	0	587	517	0	503	0	0	
6	0	0	0	0	585	531	0	504	0	0	
7	0	0	0	0	584	543	0	502	0	0	
8	0	0	0	0	582	554	0	497	0	0	
9	0	0	0	0	579	561	0	491	0	0	
10	0	0	0	0	577	565	0	483	0	0	
11	0	0	0	0	575	564	0	475	0	0	
12	0	0	0	0	574	559	0	468	0	0	
13	0	0	0	0	574	551	0	462	0	0	
14	0	0	0	0	574	540	0	457	0	0	
15	0	0	0	0	576	528	0	456	0	0	
0	0	0	0	0	579	516	0	457	0	0	
1	0	0	0	0	583	505	0	462	0	0	
2	0	0	0	0	587	497	0	468	0	0	
3	0	0	0	0	591	492	0	476	0	0	
4	0	0	0	0	593	490	0	485	0	0	
5	0	0	0	0	595	492	0	494	0	0	
6	0	0	0	0	597	497	0	501	0	0	
7	0	0	0	0	597	506	0	508	0	0	
8	0	0	0	0	595	518	0	512	0	0	
9	0	0	0	0	591	530	0	513	0	0	
10	0	0	0	0	588	542	0	512	0	0	
11	0	0	0	0	582	553	0	508	0	0	
12	0	0	0	0	576	561	0	501	0	0	
13	0	0	0	0	571	567	0	492	0	0	
14	0	0	0	0	567	569	0	483	0	0	
15	0	0	0	0	564	567	0	474	0	0	
0	0	0	0	0	563	561	0	465	0	0	
1	0	0	0	0	563	553	0	460	0	0	
2	0	0	0	0	565	542	0	455	0	0	
3	0	0	0	0	569	530	0	454	0	0	
4	0	0	0	0	574	518	0	455	0	0	
5	0	0	0	0	579	508	0	460	0	0	
6	0	0	0	0	585	499	0	466	0	0	
7	0	0	0	0	591	494	0	475	0	0	
8	0	0	0	0	595	493	0	484	0	0	
9	0	0	0	0	598	494	0	493	0	0	
10	0	0	0	0	600	500	0	501	0	0	
11	0	0	0	0	600	510	0	508	0	0	
12	0	0	0	0	599	521	0	512	0	0	
13	0	0	0	0	596	534	0	514	0	0	
14	0	0	0	0	591	546	0	513	0	0	
15	0	0	0	0	586	557	0	508	0	0	
0	0	0	0	0	580	566	0	501	0	0	
1	0	0	0	0	576	572	0	492	0	0	
2	0	0	0	0	572	574	0	483	0	0	
3	0	0	0	0	568	571	0	474	0	0	
4	0	0	0	0	567	566	0	465	0	0	
5	0	0	0	0	567	557	0	459	0	0	
6	0	0	0	0	568	545	0	455	0	0	
7	0	0	0	0	571	533	0	453	0	0	
8	0	0	0	0	575	520	0	455	0	0	
9	0	0	0	0	579	510	0	460	0	0	
10	0	0	0	0	585	501	0	467	0	0	
11	0	0	0	0	590	496	0	476	0	0	
12	0	0	0	0	594	494	0	486	0	0	
13	0	0	0	0	597	495	0	495	0	0	
14	0	0	0	0	598	501	0	503	0	0	
15	0	0	0	0	597	510	0	509	0	0	
0	0	0	0	0	595	520	0	512	0	0	
1	0	0	0	0	591	532	0	513	0	0	
2	0	0	0	0	585	543	0	510	0	0	
3	0	0	0	0	579	553	0	505	0	0	
4	0	0	0	0	572	561	0	497	0	0	
5	0	0	0	0	566	565	0	487	0	0	
6	0	0	0	0	561	566	0	476	0	0	
7	0	0	0	0	557	562	0	467	0	0	
8	0	0	0	0	555	555	0	458	0	0	
9	0	0	0	0	554	545	0	451	0	0	
10	0	0	0	0	555	533	0	446	0	0	
11	0	0	0	0	557	519	0	445	0	0	
12	0	0	0	0	561	507	0	447	0	0	
13	0	0	0	0	566	496	0	451	0	0	
14	0	0	0	0	571	487	0	459	0	0	
15	0	0	0	0	576	482	0	467	0	0	
0	0	0	0	0	581	481	0	476	0	0	
1	0	0	0	0	584	483	0	486	0	0	
2	0	0	0	0	586	489	0	492	0	0	
3	0	0	0	0	587	499	0	499	0	0	
4	0	0	0	0	584	510	0	503	0	0	
5	0	0	0	0	581	521	0	503	0	0	
6	0	0	0	0	577	534	0	501	0	0	
7	0	0	0	0	571	544	0	496	0	0	
8	0	0	0	0	566	553	0	488	0	0	
9	0	0	0	0	561	559	0	479	0	0	
10	0	0	0	0	556	560	0	470	0	0	
11	0	0	0	0	553	557	0	461	0	0	
12	0	0	0	0	551	551	0	452	0	0	
13	0	0	0	0	551	541	0	446	0	0	
14	0	0	0	0	551	530	0	442	0	0	
15	0	0	0	0	554	517	0	440	0	0	
0	0	0	0	0	557	504	0	442	0	0	
1	0	0	0	0	561	494	0	445	0	0	
2	0	0	0	0	566	485	0	453	0	0	
3	0	0	0	0	570	480	0	461	0	0	
4	0	0	0	0	573	478	0	470	0	0	
5	0	0	0	0	575	480	0	479	0	0	
6	0	0	0	0	575	485	0	485	0	0	
7	0	0	0	0	575	494	0	492	0	0	
8	0	0	0	0	572	504	0	495	0	0	
9	0	0	0	0	569	515	0	496	0	0	
10	0	0	0	0	563	526	0	494	0	0	
11	0	0	0	0	558	536	0	488	0	0	
12	0	0	0	0	553	543	0	482	0	0	
13	0	0	0	0	548	548	0	474	0	0	
14	0	0	0	0	544	548	0	465	0	0	
15	0	0	0	0	541	545	0	456	0	0	
0	0	0	0	0	540	539	0	447	0	0	
1	0	0	0	0	540	530	0	442	0	0	
2	0	0	0	0	540	518	0	438	0	0	
3	0	0	0	0	543	505	0	437	0	0	
4	0	0	0	0	547	494	0	439	0	0	
5	0	0	0	0	552	483	0	443	0	0	
6	0	0	0	0	557	475	0	450	0	0	
7	0	0	0	0	562	470	0	459	0	0	
8	0	0	0	0	566	468	0	468	0	0	
9	0	0	0	0	568	471	0	477	0	0	
10	0	0	0	0	570	476	0	483	0	0	
11	0	0	0	0	570	485	0	490	0	0	
12	0	0	0	0	568	496	0	494	0	0	
13	0	0	0	0	566	508	0	494	0	0	
14	0	0	0	0	561	519	0	492	0	0	
15	0	0	0	0	557	530	0	486	0	0	
0	0	0	0	0	552	538	0	480	0	0	
1	0	0	0	0	548	543	0	471	0	0	
2	0	0	0	0	545	545	0	461	0	0	
3	0	0	0	0	542	543	0	452	0	0	
4	0	0	0	0	541	537	0	443	0	0	
5	0	0	0	0	542	527	0	437	0	0	
6	0	0	0	0	543	516	0	433	0	0	
7	0	0	0	0	547	504	0	431	0	0	
8	0	0	0	0	550	492	0	433	0	0	
9	0	0	0	0	556	481	0	437	0	0	
10	0	0	0	0	560	473	0	444	0	0	
11	0	0	0	0	566	468	0	453	0	0	
12	0	0	0	0	569	467	0	463	0	0	
13	0	0	0	0	572	470	0	472	0	0	
14	0	0	0	0	573	476	0	479	0	0	
15	0	0	0	0	572	485	0	486	0	0	
0	0	0	0	0	571	496	0	490	0	0	
1	0	0	0	0	568	508	0	491	0	0	
2	0	0	0	0	563	520	0	489	0	0	
3	0	0	0	0	558	531	0	484	0	0	
4	0	0	0	0	553	539	0	478	0	0	
5	0	0	0	0	548	544	0	469	0	0	
6	0	0	0	0	545	546	0	460	0	0	
7	0	0	0	0	542	543	0	451	0	0	
8	0	0	0	0	541	537	0	442	0	0	
9	0	0	0	0	542	528	0	436	0	0	
10	0	0	0	0	543	516	0	432	0	0	
11	0	0	0	0	547	504	0	431	0	0	
12	0	0	0	0	551	492	0	432	0	0	
13	0	0	0	0	556	480	0	436	0	0	
14	0	0	0	0	561	472	0	444	0	0	
15	0	0	0	0	567	466	0	452	0	0	
0	0	0	0	0	571	464	0	461	0	0	
1	0	0	0	0	573	466	0	471	0	0	
2	0	0	0	0	574	472	0	478	0	0	
3	0	0	0	0	574	481	0	486	0	0	
4	0	0	0	0	572	492	0	490	0	0	
5	0	0	0	0	569	504	0	492	0	0	
6	0	0	0	0	565	516	0	489	0	0	
7	0	0	0	0	560	527	0	485	0	0	
8	0	0	0	0	555	536	0	479	0	0	
9	0	0	0	0	550	542	0	469	0	0	
10	0	0	0	0	545	543	0	460	0	0	
11	0	0	0	0	543	541	0	451	0	0	
12	0	0	0	0	543	536	0	443	0	0	
13	0	0	0	0	543	527	0	436	0	0	
14	0	0	0	0	545	516	0	432	0	0	
15	0	0	0	0	548	503	0	431	0	0	
0	0	0	0	0	552	492	0	432	0	0	
1	0	0	0	0	557	481	0	436	0	0	
2	0	0	0	0	562	473	0	444	0	0	
3	0	0	0	0	567	467	0	452	0	0	
4	0	0	0	0	571	466	0	461	0	0	
5	0	0	0	0	573	467	0	471	0	0	
6	0	0	0	0	574	473	0	479	0	0	
7	0	0	0	0	574	482	0	486	0	0	
8	0	0	0	0	573	493	0	491	0	0	
9	0	0	0	0	570	505	0	492	0	0	
10	0	0	0	0	566	517	0	491	0	0	
11	0	0	0	0	560	528	0	487	0	0	
12	0	0	0	0	556	537	0	480	0	0	
13	0	0	0	0	551	543	0	472	0	0	
14	0	0	0	0	547	545	0	463	0	0	
15	0	0	0	0	544	544	0	454	0	0	
0	0	0	0	0	543	539	0	445	0	0	
1	0	0	0	0	544	531	0	439	0	0	
2	0	0	0	0	546	520	0	435	0	0	
3	0	0	0	0	550	508	0	433	0	0	
4	0	0	0	0	554	495	0	435	0	0	
5	0	0	0	0	559	484	0	439	0	0	
6	0	0	0	0	565	476	0	447	0	0	
7	0	0	0	0	571	471	0	455	0	0	
8	0	0	0	0	575	469	0	465	0	0	
9	0	0	0	0	579	471	0	475	0	0	
10	0	0	0	0	581	477	0	483	0	0	
11	0	0	0	0	582	487	0	490	0	0	
12	0	0	0	0	581	498	0	495	0	0	
13	0	0	0	0	578	511	0	497	0	0	
14	0	0	0	0	573	524	0	496	0	0	
15	0	0	0	0	568	535	0	491	0	0	
0	0	0	0	0	563	544	0	485	0	0	
1	0	0	0	0	558	550	0	476	0	0	
2	0	0	0	0	553	551	0	466	0	0	
3	0	0	0	0	550	549	0	456	0	0	
4	0	0	0	0	548	543	0	447	0	0	
5	0	0	0	0	548	534	0	440	0	0	
6	0	0	0	0	550	522	0	435	0	0	
7	0	0	0	0	552	510	0	433	0	0	
8	0	0	0	0	557	497	0	434	0	0	
9	0	0	0	0	562	486	0	438	0	0	
10	0	0	0	0	568	477	0	445	0	0	
11	0	0	0	0	573	472	0	453	0	0	
12	0	0	0	0	577	470	0	463	0	0	
13	0	0	0	0	580	472	0	473	0	0	
14	0	0	0	0	583	478	0	482	0	0	
15	0	0	0	0	583	487	0	489	0	0	
0	0	0	0	0	582	499	0	495	0	0	
1	0	0	0	0	579	512	0	497	0	0	
2	0	0	0	0	574	524	0	495	0	0	
3	0	0	0	0	569	535	0	492	0	0	
4	0	0	0	0	563	544	0	486	0	0	
5	0	0	0	0	558	550	0	478	0	0	
6	0	0	0	0	554	551	0	469	0	0	
7	0	0	0	0	551	550	0	460	0	0	
8	0	0	0	0	549	544	0	452	0	0	
9	0	0	0	0	549	535	0	446	0	0	
10	0	0	0	0	551	524	0	442	0	0	
11	0	0	0	0	555	512	0	440	0	0	
12	0	0	0	0	559	500	0	442	0	0	
13	0	0	0	0	564	489	0	446	0	0	
14	0	0	0	0	570	481	0	454	0	0	
15	0	0	0	0	575	476	0	461	0	0	
0	0	0	0	0	578	473	0	471	0	0	
1	0	0	0	0	583	476	0	480	0	0	
2	0	0	0	0	584	482	0	488	0	0	
3	0	0	0	0	585	491	0	496	0	0	
4	0	0	0	0	584	502	0	500	0	0	
5	0	0	0	0	582	515	0	502	0	0	
6	0	0	0	0	579	527	0	501	0	0	
7	0	0	0	0	573	537	0	496	0	0	
8	0	0	0	0	568	545	0	490	0	0	
9	0	0	0	0	562	550	0	481	0	0	
10	0	0	0	0	558	550	0	472	0	0	
11	0	0	0	0	553	547	0	462	0	0	
12	0	0	0	0	550	540	0	453	0	0	
13	0	0	0	0	549	530	0	447	0	0	
14	0	0	0	0	549	517	0	441	0	0	
15	0	0	0	0	551	504	0	440	0	0	
0	0	0	0	0	554	491	0	440	0	0	
1	0	0	0	0	558	480	0	444	0	0	
2	0	0	0	0	564	471	0	451	0	0	
3	0	0	0	0	569	466	0	459	0	0	
4	0	0	0	0	573	464	0	468	0	0	
5	0	0	0	0	577	467	0	477	0	0	
6	0	0	0	0	580	473	0	484	0	0	
7	0	0	0	0	581	483	0	492	0	0	
8	0	0	0	0	581	495	0	496	0	0	
9	0	0	0	0	579	508	0	497	0	0	
10	0	0	0	0	576	521	0	495	0	0	
11	0	0	0	0	571	533	0	491	0	0	
12	0	0	0	0	567	543	0	484	0	0	
13	0	0	0	0	562	549	0	476	0	0	
14	0	0	0	0	558	552	0	467	0	0	
15	0	0	0	0	556	551	0	459	0	0	
0	0	0	0	0	554	546	0	451	0	0	
1	0	0	0	0	555	538	0	446	0	0	
2	0	0	0	0	556	527	0	443	0	0	
3	0	0	0	0	559	515	0	442	0	0	
4	0	0	0	0	564	504	0	444	0	0	
5	0	0	0	0	568	492	0	449	0	0	
6	0	0	0	0	574	484	0	457	0	0	
7	0	0	0	0	578	478	0	466	0	0	
8	0	0	0	0	581	476	0	476	0	0	
9	0	0	0	0	584	477	0	485	0	0	
10	0	0	0	0	585	483	0	493	0	0	
11	0	0	0	0	585	491	0	500	0	0	
12	0	0	0	0	583	501	0	504	0	0	
13	0	0	0	0	580	513	0	505	0	0	
14	0	0	0	0	575	524	0	503	0	0	
15	0	0	0	0	570	535	0	498	0	0	
0	0	0	0	0	564	543	0	491	0	0	
1	0	0	0	0	559	549	0	482	0	0	
2	0	0	0	0	555	550	0	472	0	0	
3	0	0	0	0	552	548	0	463	0	0	
4	0	0	0	0	550	542	0	454	0	0	
5	0	0	0	0	550	533	0	448	0	0	
6	0	0	0	0	550	521	0	443	0	0	
7	0	0	0	0	552	509	0	442	0	0	
8	0	0	0	0	557	497	0	443	0	0	
9	0	0	0	0	561	486	0	447	0	0	
10	0	0	0	0	566	478	0	454	0	0	
11	0	0	0	0	571	472	0	462	0	0	
12	0	0	0	0	575	470	0	471	0	0	
13	0	0	0	0	579	471	0	480	0	0	
14	0	0	0	0	580	476	0	487	0	0	
15	0	0	0	0	580	484	0	495	0	0	
0	0	0	0	0	579	495	0	498	0	0	
1	0	0	0	0	576	505	0	499	0	0	
2	0	0	0	0	571	517	0	497	0	0	
3	0	0	0	0	565	527	0	492	0	0	
4	0	0	0	0	560	535	0	486	0	0	
5	0	0	0	0	554	539	0	476	0	0	
6	0	0	0	0	549	540	0	467	0	0	
7	0	0	0	0	546	537	0	457	0	0	
8	0	0	0	0	543	532	0	448	0	0	
9	0	0	0	0	543	523	0	442	0	0	
10	0	0	0	0	545	513	0	438	0	0	
11	0	0	0	0	547	501	0	436	0	0	
12	0	0	0	0	551	489	0	438	0	0	
13	0	0	0	0	556	479	0	442	0	0	
14	0	0	0	0	561	471	0	449	0	0	
15	0	0	0	0	566	466	0	457	0	0	
0	0	0	0	0	569	464	0	467	0	0	
1	0	0	0	0	571	466	0	476	0	0	
2	0	0	0	0	572	472	0	484	0	0	
3	0	0	0	0	572	480	0	491	0	0	
4	0	0	0	0	569	490	0	495	0	0	
5	0	0	0	0	567	502	0	496	0	0	
6	0	0	0	0	562	513	0	494	0	0	
7	0	0	0	0	556	523	0	489	0	0	
8	0	0	0	0	551	531	0	483	0	0	
9	0	0	0	0	545	536	0	473	0	0	
10	0	0	0	0	542	537	0	464	0	0	
11	0	0	0	0	539	535	0	455	0	0	
12	0	0	0	0	537	529	0	447	0	0	
13	0	0	0	0	538	520	0	440	0	0	
14	0	0	0	0	540	510	0	436	0	0	
15	0	0	0	0	543	498	0	435	0	0	
0	0	0	0	0	548	487	0	437	0	0	
1	0	0	0	0	554	477	0	440	0	0	
2	0	0	0	0	560	469	0	448	0	0	
3	0	0	0	0	565	465	0	457	0	0	
4	0	0	0	0	570	464	0	467	0	0	
5	0	0	0	0	575	467	0	476	0	0	
6	0	0	0	0	577	474	0	485	0	0	
7	0	0	0	0	578	484	0	493	0	0	
8	0	0	0	0	577	495	0	498	0	0	
9	0	0	0	0	576	508	0	500	0	0	
10	0	0	0	0	573	520	0	499	0	0	
11	0	0	0	0	568	531	0	496	0	0	
12	0	0	0	0	563	540	0	490	0	0	
13	0	0	0	0	558	545	0	481	0	0	
14	0	0	0	0	554	547	0	473	0	0	
15	0	0	0	0	550	545	0	464	0	0	
0	0	0	0	0	548	539	0	456	0	0	
1	0	0	0	0	547	530	0	450	0	0	
2	0	0	0	0	548	519	0	445	0	0	
3	0	0	0	0	550	507	0	443	0	0	
4	0	0	0	0	553	495	0	445	0	0	
5	0	0	0	0	558	484	0	448	0	0	
6	0	0	0	0	563	476	0	454	0	0	
7	0	0	0	0	567	471	0	462	0	0	
8	0	0	0	0	571	468	0	471	0	0	
9	0	0	0	0	574	470	0	480	0	0	
10	0	0	0	0	575	476	0	487	0	0	
11	0	0	0	0	576	485	0	495	0	0	
12	0	0	0	0	575	496	0	499	0	0	
13	0	0	0	0	574	509	0	500	0	0	
14	0	0	0	0	571	521	0	499	0	0	
15	0	0	0	0	566	533	0	495	0	0	
0	0	0	0	0	561	542	0	489	0	0	
1	0	0	0	0	558	549	0	481	0	0	
2	0	0	0	0	554	551	0	472	0	0	
3	0	0	0	0	551	550	0	463	0	0	
4	0	0	0	0	551	545	0	455	0	0	
5	0	0	0	0	552	537	0	449	0	0	
6	0	0	0	0	554	526	0	445	0	0	
7	0	0	0	0	557	515	0	444	0	0	
8	0	0	0	0	561	503	0	446	0	0	
9	0	0	0	0	566	492	0	451	0	0	
10	0	0	0	0	572	483	0	458	0	0	
11	0	0	0	0	576	477	0	467	0	0	
12	0	0	0	0	580	475	0	476	0	0	
13	0	0	0	0	583	476	0	485	0	0	
14	0	0	0	0	583	481	0	493	0	0	
15	0	0	0	0	583	490	0	499	0	0	
0	0	0	0	0	582	500	0	503	0	0	
1	0	0	0	0	578	512	0	504	0	0	
2	0	0	0	0	574	524	0	502	0	0	
3	0	0	0	0	568	535	0	497	0	0	
4	0	0	0	0	563	543	0	491	0	0	
5	0	0	0	0	557	549	0	481	0	0	
6	0	0	0	0	553	551	0	472	0	0	
7	0	0	0	0	550	549	0	463	0	0	
8	0	0	0	0	547	544	0	455	0	0	
9	0	0	0	0	547	536	0	448	0	0	
10	0	0	0	0	549	525	0	444	0	0	
11	0	0	0	0	552	513	0	443	0	0	
12	0	0	0	0	556	500	0	444	0	0	
13	0	0	0	0	560	489	0	448	0	0	
14	0	0	0	0	566	481	0	456	0	0	
15	0	0	0	0	571	475	0	465	0	0	
0	0	0	0	0	575	473	0	474	0	0	
1	0	0	0	0	577	474	0	483	0	0	
2	0	0	0	0	579	480	0	491	0	0	
3	0	0	0	0	579	488	0	498	0	0	
4	0	0	0	0	578	498	0	502	0	0	
5	0	0	0	0	575	510	0	504	0	0	
6	0	0	0	0	571	522	0	502	0	0	
7	0	0	0	0	565	533	0	497	0	0	
8	0	0	0	0	560	542	0	491	0	0	
9	0	0	0	0	555	546	0	482	0	0	
10	0	0	0	0	551	549	0	472	0	0	
11	0	0	0	0	547	546	0	462	0	0	
12	0	0	0	0	545	540	0	454	0	0	
13	0	0	0	0	544	531	0	447	0	0	
14	0	0	0	0	545	520	0	442	0	0	
15	0	0	0	0	548	507	0	441	0	0	
0	0	0	0	0	552	495	0	443	0	0	
1	0	0	0	0	557	484	0	447	0	0	
2	0	0	0	0	562	475	0	454	0	0	
3	0	0	0	0	567	470	0	463	0	0	
4	0	0	0	0	572	468	0	473	0	0	
5	0	0	0	0	575	471	0	483	0	0	
6	0	0	0	0	577	477	0	492	0	0	
7	0	0	0	0	578	487	0	499	0	0	
8	0	0	0	0	578	499	0	504	0	0	
9	0	0	0	0	576	513	0	506	0	0	
10	0	0	0	0	573	525	0	505	0	0	
11	0	0	0	0	569	537	0	501	0	0	
12	0	0	0	0	565	547	0	495	0	0	
13	0	0	0	0	561	552	0	487	0	0	
14	0	0	0	0	558	554	0	478	0	0	
15	0	0	0	0	555	552	0	468	0	0	
0	0	0	0	0	553	545	0	460	0	0	
1	0	0	0	0	553	536	0	453	0	0	
2	0	0	0	0	553	524	0	448	0	0	
3	0	0	0	0	556	511	0	446	0	0	
4	0	0	0	0	559	498	0	448	0	0	
5	0	0	0	0	563	486	0	451	0	0	
6	0	0	0	0	568	478	0	458	0	0	
7	0	0	0	0	572	472	0	466	0	0	
8	0	0	0	0	576	470	0	475	0	0	
9	0	0	0	0	579	472	0	484	0	0	
10	0	0	0	0	580	478	0	492	0	0	
11	0	0	0	0	580	487	0	499	0	0	
12	0	0	0	0	579	498	0	503	0	0	
13	0	0	0	0	576	510	0	504	0	0	
14	0	0	0	0	573	522	0	503	0	0	
15	0	0	0	0	568	533	0	498	0	0	
0	0	0	0	0	563	542	0	492	0	0	
1	0	0	0	0	559	548	0	483	0	0	
2	0	0	0	0	555	551	0	474	0	0	
3	0	0	0	0	553	550	0	465	0	0	
4	0	0	0	0	552	545	0	457	0	0	
5	0	0	0	0	553	537	0	452	0	0	
6	0	0	0	0	555	527	0	448	0	0	
7	0	0	0	0	559	516	0	447	0	0	
8	0	0	0	0	564	504	0	450	0	0	
9	0	0	0	0	570	495	0	454	0	0	
10	0	0	0	0	576	487	0	462	0	0	
11	0	0	0	0	582	482	0	470	0	0	
12	0	0	0	0	587	480	0	480	0	0	
13	0	0	0	0	590	482	0	489	0	0	
14	0	0	0	0	591	487	0	496	0	0	
15	0	0	0	0	591	495	0	503	0	0	
0	0	0	0	0	588	505	0	507	0	0	
1	0	0	0	0	584	516	0	507	0	0	
2	0	0	0	0	578	526	0	505	0	0	
3	0	0	0	0	572	536	0	499	0	0	
4	0	0	0	0	565	543	0	493	0	0	
5	0	0	0	0	558	547	0	483	0	0	
6	0	0	0	0	551	547	0	473	0	0	
7	0	0	0	0	546	544	0	463	0	0	
8	0	0	0	0	543	537	0	453	0	0	
9	0	0	0	0	541	527	0	445	0	0	
10	0	0	0	0	541	516	0	440	0	0	
11	0	0	0	0	543	504	0	436	0	0	
12	0	0	0	0	545	491	0	437	0	0	
13	0	0	0	0	550	480	0	440	0	0	
14	0	0	0	0	555	472	0	447	0	0	
15	0	0	0	0	560	466	0	454	0	0	
0	0	0	0	0	564	464	0	463	0	0	
1	0	0	0	0	568	466	0	472	0	0	
2	0	0	0	0	569	471	0	479	0	0	
3	0	0	0	0	569	479	0	486	0	0	
4	0	0	0	0	568	489	0	491	0	0	
5	0	0	0	0	564	500	0	492	0	0	
6	0	0	0	0	559	511	0	491	0	0	
7	0	0	0	0	554	521	0	485	0	0	
8	0	0	0	0	548	528	0	479	0	0	
9	0	0	0	0	542	533	0	470	0	0	
10	0	0	0	0	537	534	0	460	0	0	
11	0	0	0	0	533	530	0	450	0	0	
12	0	0	0	0	531	524	0	440	0	0	
13	0	0	0	0	530	514	0	434	0	0	
14	0	0	0	0	531	503	0	428	0	0	
15	0	0	0	0	532	490	0	426	0	0	
0	0	0	0	0	536	477	0	427	0	0	
1	0	0	0	0	540	466	0	429	0	0	
2	0	0	0	0	545	457	0	436	0	0	
3	0	0	0	0	550	452	0	444	0	0	
4	0	0	0	0	554	451	0	453	0	0	
5	0	0	0	0	557	453	0	463	0	0	
6	0	0	0	0	559	460	0	472	0	0	
7	0	0	0	0	560	469	0	479	0	0	
8	0	0	0	0	560	481	0	484	0	0	
9	0	0	0	0	558	495	0	487	0	0	
10	0	0	0	0	555	508	0	487	0	0	
11	0	0	0	0	551	520	0	483	0	0	
12	0	0	0	0	547	530	0	478	0	0	
13	0	0	0	0	543	537	0	471	0	0	
14	0	0	0	0	540	540	0	462	0	0	
15	0	0	0	0	539	539	0	454	0	0	
0	0	0	0	0	538	535	0	446	0	0	
1	0	0	0	0	539	526	0	439	0	0	
2	0	0	0	0	541	516	0	435	0	0	
3	0	0	0	0	545	504	0	434	0	0	
4	0	0	0	0	549	491	0	435	0	0	
5	0	0	0	0	555	480	0	440	0	0	
6	0	0	0	0	560	471	0	447	0	0	
7	0	0	0	0	565	465	0	455	0	0	
8	0	0	0	0	570	463	0	465	0	0	
9	0	0	0	0	572	464	0	475	0	0	
10	0	0	0	0	574	470	0	483	0	0	
11	0	0	0	0	574	478	0	491	0	0	
12	0	0	0	0	573	489	0	496	0	0	
13	0	0	0	0	570	502	0	497	0	0	
14	0	0	0	0	566	513	0	497	0	0	
15	0	0	0	0	561	525	0	493	0	0	
0	0	0	0	0	556	534	0	486	0	0	
1	0	0	0	0	551	540	0	478	0	0	
2	0	0	0	0	547	543	0	469	0	0	
3	0	0	0	0	544	541	0	461	0	0	
4	0	0	0	0	543	536	0	452	0	0	
5	0	0	0	0	543	529	0	447	0	0	
6	0	0	0	0	545	519	0	442	0	0	
7	0	0	0	0	550	507	0	440	0	0	
8	0	0	0	0	554	496	0	442	0	0	
9	0	0	0	0	559	485	0	446	0	0	
10	0	0	0	0	565	477	0	453	0	0	
11	0	0	0	0	570	472	0	461	0	0	
12	0	0	0	0	575	470	0	470	0	0	
13	0	0	0	0	578	472	0	479	0	0	
14	0	0	0	0	580	478	0	487	0	0	
15	0	0	0	0	580	487	0	495	0	0	
0	0	0	0	0	579	498	0	499	0	0	
1	0	0	0	0	576	510	0	501	0	0	
2	0	0	0	0	572	522	0	499	0	0	
3	0	0	0	0	566	532	0	495	0	0	
4	0	0	0	0	560	541	0	488	0	0	
5	0	0	0	0	555	546	0	479	0	0	
6	0	0	0	0	550	547	0	469	0	0	
7	0	0	0	0	546	545	0	460	0	0	
8	0	0	0	0	544	539	0	451	0	0	
9	0	0	0	0	543	530	0	444	0	0	
10	0	0	0	0	544	519	0	440	0	0	
11	0	0	0	0	546	507	0	438	0	0	
12	0	0	0	0	550	495	0	439	0	0	
13	0	0	0	0	554	484	0	442	0	0	
14	0	0	0	0	560	475	0	449	0	0	
15	0	0	0	0	564	470	0	456	0	0	
0	0	0	0	0	569	467	0	465	0	0	
1	0	0	0	0	571	469	0	475	0	0	
2	0	0	0	0	573	474	0	482	0	0	
3	0	0	0	0	573	483	0	490	0	0	
4	0	0	0	0	572	495	0	494	0	0	
5	0	0	0	0	569	507	0	496	0	0	
6	0	0	0	0	564	519	0	495	0	0	
7	0	0	0	0	560	531	0	492	0	0	
8	0	0	0	0	554	540	0	486	0	0	
9	0	0	0	0	549	547	0	478	0	0	
10	0	0	0	0	545	549	0	470	0	0	
11	0	0	0	0	542	547	0	460	0	0	
12	0	0	0	0	539	541	0	452	0	0	
13	0	0	0	0	538	531	0	445	0	0	
14	0	0	0	0	538	518	0	439	0	0	
15	0	0	0	0	539	504	0	435	0	0	
0	0	0	0	0	540	488	0	433	0	0	
1	0	0	0	0	541	473	0	432	0	0	
2	0	0	0	0	542	459	0	435	0	0	
3	0	0	0	0	542	448	0	436	0	0	
4	0	0	0	0	540	440	0	439	0	0	
5	0	0	0	0	537	435	0	440	0	0	
6	0	0	0	0	531	433	0	440	0	0	
7	0	0	0	0	524	433	0	438	0	0	
8	0	0	0	0	515	436	0	433	0	0	
9	0	0	0	0	503	440	0	424	0	0	
10	0	0	0	0	491	444	0	413	0	0	
11	0	0	0	0	476	446	0	399	0	0	
12	0	0	0	0	461	445	0	382	0	0	
13	0	0	0	0	446	441	0	363	0	0	
14	0	0	0	0	432	434	0	343	0	0	
15	0	0	0	0	418	422	0	322	0	0	
0	0	0	0	0	404	405	0	301	0	0	
1	0	0	0	0	392	385	0	283	0	0	
2	0	0	0	0	381	361	0	265	0	0	
3	0	0	0	0	371	336	0	251	0	0	
4	0	0	0	0	362	311	0	239	0	0	
5	0	0	0	0	353	286	0	230	0	0	
6	0	0	0	0	346	265	0	226	0	0	
7	0	0	0	0	340	247	0	224	0	0	
8	0	0	0	0	336	235	0	226	0	0	
9	0	0	0	0	333	229	0	231	0	0	
10	0	0	0	0	332	231	0	238	0	0	
11	0	0	0	0	335	239	0	248	0	0	
12	0	0	0	0	339	254	0	259	0	0	
13	0	0	0	0	345	275	0	271	0	0	
14	0	0	0	0	355	298	0	283	0	0	
15	0	0	0	0	366	325	0	295	0	0	
0	0	0	0	0	380	352	0	307	0	0	
1	0	0	0	0	397	380	0	320	0	0	
2	0	0	0	0	415	404	0	333	0	0	
3	0	0	0	0	436	425	0	345	0	0	
4	0	0	0	0	456	443	0	359	0	0	
5	0	0	0	0	478	456	0	373	0	0	
6	0	0	0	0	500	465	0	388	0	0	
7	0	0	0	0	521	472	0	404	0	0	
8	0	0	0	0	541	475	0	421	0	0	
9	0	0	0	0	559	477	0	438	0	0	
10	0	0	0	0	575	479	0	455	0	0	
11	0	0	0	0	587	481	0	472	0	0	
12	0	0	0	0	596	485	0	487	0	0	
13	0	0	0	0	601	491	0	500	0	0	
14	0	0	0	0	604	498	0	511	0	0	
15	0	0	0	0	604	507	0	519	0	0	
0	0	0	0	0	600	516	0	522	0	0	
1	0	0	0	0	593	528	0	521	0	0	
2	0	0	0	0	586	538	0	517	0	0	
3	0	0	0	0	577	547	0	510	0	0	
4	0	0	0	0	568	554	0	500	0	0	
5	0	0	0	0	559	558	0	488	0	0	
6	0	0	0	0	553	559	0	476	0	0	
7	0	0	0	0	548	555	0	465	0	0	
8	0	0	0	0	545	549	0	454	0	0	
9	0	0	0	0	544	540	0	447	0	0	
10	0	0	0	0	546	529	0	441	0	0	
11	0	0	0	0	550	517	0	440	0	0	
12	0	0	0	0	556	505	0	442	0	0	
13	0	0	0	0	562	495	0	447	0	0	
14	0	0	0	0	569	487	0	456	0	0	
15	0	0	0	0	576	483	0	466	0	0	
0	0	0	0	0	583	482	0	478	0	0	
1	0	0	0	0	589	485	0	489	0	0	
2	0	0	0	0	592	491	0	500	0	0	
3	0	0	0	0	594	500	0	510	0	0	
4	0	0	0	0	594	512	0	516	0	0	
5	0	0	0	0	592	525	0	519	0	0	
6	0	0	0	0	589	537	0	519	0	0	
7	0	0	0	0	584	548	0	515	0	0	
8	0	0	0	0	579	558	0	509	0	0	
9	0	0	0	0	573	563	0	500	0	0	
10	0	0	0	0	568	566	0	489	0	0	
11	0	0	0	0	564	563	0	479	0	0	
12	0	0	0	0	562	558	0	468	0	0	
13	0	0	0	0	561	549	0	461	0	0	
14	0	0	0	0	561	538	0	455	0	0	
15	0	0	0	0	563	526	0	451	0	0	
0	0	0	0	0	567	513	0	452	0	0	
1	0	0	0	0	572	502	0	456	0	0	
2	0	0	0	0	577	493	0	462	0	0	
3	0	0	0	0	582	488	0	472	0	0	
4	0	0	0	0	587	486	0	482	0	0	
5	0	0	0	0	591	488	0	492	0	0	
6	0	0	0	0	593	494	0	503	0	0	
7	0	0	0	0	595	503	0	511	0	0	
8	0	0	0	0	595	515	0	517	0	0	
9	0	0	0	0	593	527	0	520	0	0	
10	0	0	0	0	590	540	0	519	0	0	
11	0	0	0	0	584	552	0	516	0	0	
12	0	0	0	0	579	562	0	510	0	0	
13	0	0	0	0	574	568	0	502	0	0	
14	0	0	0	0	569	571	0	492	0	0	
15	0	0	0	0	567	569	0	482	0	0	
0	0	0	0	0	563	564	0	472	0	0	
1	0	0	0	0	561	555	0	465	0	0	
2	0	0	0	0	561	543	0	459	0	0	
3	0	0	0	0	562	529	0	456	0	0	
4	0	0	0	0	564	515	0	456	0	0	
5	0	0	0	0	567	503	0	459	0	0	
6	0	0	0	0	571	492	0	465	0	0	
7	0	0	0	0	575	485	0	473	0	0	
8	0	0	0	0	578	481	0	482	0	0	
9	0	0	0	0	582	483	0	492	0	0	
10	0	0	0	0	584	488	0	501	0	0	
11	0	0	0	0	586	497	0	509	0	0	
12	0	0	0	0	586	508	0	515	0	0	
13	0	0	0	0	585	522	0	517	0	0	
14	0	0	0	0	583	535	0	517	0	0	
15	0	0	0	0	579	547	0	513	0	0	
0	0	0	0	0	575	556	0	507	0	0	
1	0	0	0	0	571	563	0	499	0	0	
2	0	0	0	0	567	566	0	489	0	0	
3	0	0	0	0	564	563	0	479	0	0	
4	0	0	0	0	561	558	0	470	0	0	
5	0	0	0	0	560	548	0	462	0	0	
6	0	0	0	0	560	537	0	456	0	0	
7	0	0	0	0	562	524	0	453	0	0	
8	0	0	0	0	564	510	0	453	0	0	
9	0	0	0	0	568	498	0	456	0	0	
10	0	0	0	0	573	488	0	462	0	0	
11	0	0	0	0	577	482	0	470	0	0	
12	0	0	0	0	581	479	0	479	0	0	
13	0	0	0	0	584	480	0	488	0	0	
14	0	0	0	0	585	486	0	496	0	0	
15	0	0	0	0	585	494	0	503	0	0	
0	0	0	0	0	583	505	0	508	0	0	
1	0	0	0	0	580	517	0	510	0	0	
2	0	0	0	0	576	529	0	508	0	0	
3	0	0	0	0	571	541	0	504	0	0	
4	0	0	0	0	566	550	0	497	0	0	
5	0	0	0	0	561	556	0	488	0	0	
6	0	0	0	0	557	558	0	478	0	0	
7	0	0	0	0	554	556	0	468	0	0	
8	0	0	0	0	551	550	0	459	0	0	
9	0	0	0	0	551	542	0	452	0	0	
10	0	0	0	0	552	530	0	447	0	0	
11	0	0	0	0	554	517	0	445	0	0	
12	0	0	0	0	558	504	0	446	0	0	
13	0	0	0	0	561	492	0	451	0	0	
14	0	0	0	0	566	483	0	458	0	0	
15	0	0	0	0	571	477	0	466	0	0	
0	0	0	0	0	575	475	0	476	0	0	
1	0	0	0	0	578	476	0	486	0	0	
2	0	0	0	0	579	481	0	495	0	0	
3	0	0	0	0	579	491	0	503	0	0	
4	0	0	0	0	579	502	0	508	0	0	
5	0	0	0	0	576	515	0	510	0	0	
6	0	0	0	0	572	528	0	508	0	0	
7	0	0	0	0	568	540	0	505	0	0	
8	0	0	0	0	562	549	0	499	0	0	
9	0	0	0	0	558	556	0	490	0	0	
10	0	0	0	0	553	559	0	480	0	0	
11	0	0	0	0	550	557	0	471	0	0	
12	0	0	0	0	548	551	0	460	0	0	
13	0	0	0	0	548	543	0	453	0	0	
14	0	0	0	0	549	531	0	448	0	0	
15	0	0	0	0	551	519	0	445	0	0	
0	0	0	0	0	555	505	0	446	0	0	
1	0	0	0	0	560	494	0	448	0	0	
2	0	0	0	0	565	485	0	455	0	0	
3	0	0	0	0	570	478	0	463	0	0	
4	0	0	0	0	574	476	0	473	0	0	
5	0	0	0	0	577	477	0	483	0	0	
6	0	0	0	0	579	482	0	491	0	0	
7	0	0	0	0	579	491	0	500	0	0	
8	0	0	0	0	578	501	0	504	0	0	
9	0	0	0	0	576	514	0	507	0	0	
10	0	0	0	0	572	526	0	506	0	0	
11	0	0	0	0	567	537	0	501	0	0	
12	0	0	0	0	562	546	0	496	0	0	
13	0	0	0	0	557	552	0	487	0	0	
14	0	0	0	0	553	555	0	478	0	0	
15	0	0	0	0	550	552	0	468	0	0	
0	0	0	0	0	548	547	0	458	0	0	
1	0	0	0	0	547	537	0	451	0	0	
2	0	0	0	0	548	526	0	446	0	0	
3	0	0	0	0	551	512	0	444	0	0	
4	0	0	0	0	554	499	0	444	0	0	
5	0	0	0	0	559	487	0	448	0	0	
6	0	0	0	0	563	477	0	455	0	0	
7	0	0	0	0	568	471	0	463	0	0	
8	0	0	0	0	572	468	0	472	0	0	
9	0	0	0	0	574	468	0	482	0	0	
10	0	0	0	0	575	473	0	491	0	0	
11	0	0	0	0	575	481	0	497	0	0	
12	0	0	0	0	575	492	0	503	0	0	
13	0	0	0	0	572	504	0	505	0	0	
14	0	0	0	0	568	515	0	503	0	0	
15	0	0	0	0	564	526	0	499	0	0	
0	0	0	0	0	559	535	0	492	0	0	
1	0	0	0	0	554	542	0	484	0	0	
2	0	0	0	0	550	544	0	474	0	0	
3	0	0	0	0	547	543	0	465	0	0	
4	0	0	0	0	545	539	0	457	0	0	
5	0	0	0	0	544	531	0	451	0	0	
6	0	0	0	0	546	521	0	447	0	0	
7	0	0	0	0	549	511	0	445	0	0	
8	0	0	0	0	552	499	0	448	0	0	
9	0	0	0	0	558	489	0	451	0	0	
10	0	0	0	0	564	482	0	460	0	0	
11	0	0	0	0	570	478	0	468	0	0	
12	0	0	0	0	575	476	0	478	0	0	
13	0	0	0	0	578	479	0	487	0	0	
14	0	0	0	0	580	485	0	496	0	0	
15	0	0	0	0	581	494	0	503	0	0	
0	0	0	0	0	580	504	0	507	0	0	
1	0	0	0	0	577	517	0	509	0	0	
2	0	0	0	0	572	528	0	507	0	0	
3	0	0	0	0	567	539	0	502	0	0	
4	0	0	0	0	561	548	0	495	0	0	
5	0	0	0	0	555	553	0	486	0	0	
6	0	0	0	0	551	555	0	476	0	0	
7	0	0	0	0	547	552	0	466	0	0	
8	0	0	0	0	544	547	0	456	0	0	
9	0	0	0	0	543	537	0	450	0	0	
10	0	0	0	0	544	526	0	445	0	0	
11	0	0	0	0	547	514	0	443	0	0	
12	0	0	0	0	551	501	0	444	0	0	
13	0	0	0	0	556	490	0	448	0	0	
14	0	0	0	0	561	481	0	455	0	0	
15	0	0	0	0	567	476	0	464	0	0	
0	0	0	0	0	572	474	0	473	0	0	
1	0	0	0	0	576	476	0	483	0	0	
2	0	0	0	0	577	481	0	492	0	0	
3	0	0	0	0	578	491	0	499	0	0	
4	0	0	0	0	577	502	0	504	0	0	
5	0	0	0	0	575	515	0	505	0	0	
6	0	0	0	0	571	528	0	505	0	0	
7	0	0	0	0	565	540	0	500	0	0	
8	0	0	0	0	560	549	0	494	0	0	
9	0	0	0	0	554	555	0	486	0	0	
10	0	0	0	0	550	558	0	476	0	0	
11	0	0	0	0	546	557	0	468	0	0	
12	0	0	0	0	544	552	0	459	0	0	
13	0	0	0	0	544	544	0	452	0	0	
14	0	0	0	0	545	534	0	448	0	0	
15	0	0	0	0	548	521	0	446	0	0	
0	0	0	0	0	552	509	0	447	0	0	
1	0	0	0	0	558	497	0	451	0	0	
2	0	0	0	0	563	487	0	458	0	0	
3	0	0	0	0	569	481	0	467	0	0	
4	0	0	0	0	574	479	0	477	0	0	
5	0	0	0	0	578	479	0	487	0	0	
6	0	0	0	0	581	484	0	495	0	0	
7	0	0	0	0	582	492	0	504	0	0	
8	0	0	0	0	582	504	0	509	0	0	
9	0	0	0	0	580	516	0	511	0	0	
10	0	0	0	0	576	528	0	512	0	0	
11	0	0	0	0	572	540	0	507	0	0	
12	0	0	0	0	567	550	0	502	0	0	
13	0	0	0	0	562	556	0	493	0	0	
14	0	0	0	0	557	559	0	484	0	0	
15	0	0	0	0	553	558	0	475	0	0	
0	0	0	0	0	551	553	0	465	0	0	
1	0	0	0	0	549	544	0	458	0	0	
2	0	0	0	0	549	534	0	453	0	0	
3	0	0	0	0	550	522	0	450	0	0	
4	0	0	0	0	552	509	0	451	0	0	
5	0	0	0	0	556	498	0	453	0	0	
6	0	0	0	0	559	488	0	460	0	0	
7	0	0	0	0	563	482	0	467	0	0	
8	0	0	0	0	567	480	0	476	0	0	
9	0	0	0	0	569	480	0	485	0	0	
10	0	0	0	0	572	485	0	492	0	0	
11	0	0	0	0	572	493	0	500	0	0	
12	0	0	0	0	571	503	0	505	0	0	
13	0	0	0	0	569	515	0	507	0	0	
14	0	0	0	0	566	526	0	505	0	0	
15	0	0	0	0	561	536	0	501	0	0	
0	0	0	0	0	556	545	0	495	0	0	
1	0	0	0	0	551	551	0	485	0	0	
2	0	0	0	0	547	553	0	476	0	0	
3	0	0	0	0	544	551	0	466	0	0	
4	0	0	0	0	543	546	0	457	0	0	
5	0	0	0	0	542	537	0	451	0	0	
6	0	0	0	0	543	527	0	446	0	0	
7	0	0	0	0	546	515	0	444	0	0	
8	0	0	0	0	550	503	0	446	0	0	
9	0	0	0	0	555	492	0	449	0	0	
10	0	0	0	0	560	484	0	457	0	0	
11	0	0	0	0	564	479	0	466	0	0	
12	0	0	0	0	569	477	0	475	0	0	
13	0	0	0	0	572	478	0	485	0	0	
14	0	0	0	0	574	484	0	493	0	0	
15	0	0	0	0	574	492	0	501	0	0	
0	0	0	0	0	573	504	0	505	0	0	
1	0	0	0	0	571	516	0	508	0	0	
2	0	0	0	0	567	529	0	507	0	0	
3	0	0	0	0	563	540	0	503	0	0	
4	0	0	0	0	558	550	0	497	0	0	
5	0	0	0	0	554	557	0	490	0	0	
6	0	0	0	0	551	560	0	481	0	0	
7	0	0	0	0	549	560	0	473	0	0	
8	0	0	0	0	548	556	0	465	0	0	
9	0	0	0	0	549	548	0	458	0	0	
10	0	0	0	0	551	539	0	454	0	0	
11	0	0	0	0	554	527	0	452	0	0	
12	0	0	0	0	558	514	0	453	0	0	
13	0	0	0	0	563	503	0	457	0	0	
14	0	0	0	0	568	493	0	463	0	0	
15	0	0	0	0	573	487	0	471	0	0	
0	0	0	0	0	576	483	0	480	0	0	
1	0	0	0	0	579	483	0	489	0	0	
2	0	0	0	0	580	487	0	497	0	0	
3	0	0	0	0	579	495	0	504	0	0	
4	0	0	0	0	578	505	0	509	0	0	
5	0	0	0	0	575	517	0	511	0	0	
6	0	0	0	0	571	529	0	510	0	0	
7	0	0	0	0	566	541	0	507	0	0	
8	0	0	0	0	561	550	0	500	0	0	
9	0	0	0	0	557	557	0	493	0	0	
10	0	0	0	0	553	560	0	484	0	0	
11	0	0	0	0	550	559	0	475	0	0	
12	0	0	0	0	549	554	0	467	0	0	
13	0	0	0	0	550	546	0	461	0	0	
14	0	0	0	0	551	535	0	455	0	0	
15	0	0	0	0	553	523	0	453	0	0	
0	0	0	0	0	558	509	0	454	0	0	
1	0	0	0	0	562	497	0	457	0	0	
2	0	0	0	0	567	487	0	463	0	0	
3	0	0	0	0	571	480	0	470	0	0	
4	0	0	0	0	575	477	0	478	0	0	
5	0	0	0	0	577	477	0	486	0	0	
6	0	0	0	0	577	481	0	494	0	0	
7	0	0	0	0	577	489	0	500	0	0	
8	0	0	0	0	575	499	0	504	0	0	
9	0	0	0	0	570	511	0	506	0	0	
10	0	0	0	0	567	524	0	505	0	0	
11	0	0	0	0	561	535	0	501	0	0	
12	0	0	0	0	555	545	0	496	0	0	
13	0	0	0	0	550	552	0	487	0	0	
14	0	0	0	0	547	556	0	479	0	0	
15	0	0	0	0	544	556	0	470	0	0	
0	0	0	0	0	543	552	0	462	0	0	
1	0	0	0	0	544	545	0	456	0	0	
2	0	0	0	0	547	535	0	451	0	0	
3	0	0	0	0	551	524	0	449	0	0	
4	0	0	0	0	556	512	0	451	0	0	
5	0	0	0	0	562	501	0	454	0	0	
6	0	0	0	0	568	492	0	461	0	0	
7	0	0	0	0	574	486	0	469	0	0	
8	0	0	0	0	579	483	0	478	0	0	
9	0	0	0	0	582	484	0	488	0	0	
10	0	0	0	0	583	488	0	496	0	0	
11	0	0	0	0	583	495	0	503	0	0	
12	0	0	0	0	582	505	0	507	0	0	
13	0	0	0	0	578	516	0	509	0	0	
14	0	0	0	0	574	527	0	507	0	0	
15	0	0	0	0	567	536	0	502	0	0	
0	0	0	0	0	559	544	0	495	0	0	
1	0	0	0	0	552	549	0	484	0	0	
2	0	0	0	0	546	550	0	473	0	0	
3	0	0	0	0	540	547	0	462	0	0	
4	0	0	0	0	536	540	0	451	0	0	
5	0	0	0	0	533	531	0	442	0	0	
6	0	0	0	0	533	519	0	435	0	0	
7	0	0	0	0	535	506	0	432	0	0	
8	0	0	0	0	539	493	0	432	0	0	
9	0	0	0	0	543	481	0	436	0	0	
10	0	0	0	0	550	472	0	443	0	0	
11	0	0	0	0	557	466	0	452	0	0	
12	0	0	0	0	563	464	0	462	0	0	
13	0	0	0	0	568	466	0	473	0	0	
14	0	0	0	0	572	472	0	484	0	0	
15	0	0	0	0	574	481	0	492	0	0	
0	0	0	0	0	575	494	0	499	0	0	
1	0	0	0	0	574	507	0	502	0	0	
2	0	0	0	0	570	519	0	502	0	0	
3	0	0	0	0	566	532	0	498	0	0	
4	0	0	0	0	560	543	0	492	0	0	
5	0	0	0	0	555	550	0	483	0	0	
6	0	0	0	0	550	553	0	473	0	0	
7	0	0	0	0	546	552	0	463	0	0	
8	0	0	0	0	543	547	0	454	0	0	
9	0	0	0	0	542	540	0	447	0	0	
10	0	0	0	0	543	529	0	441	0	0	
11	0	0	0	0	545	518	0	439	0	0	
12	0	0	0	0	550	505	0	440	0	0	
13	0	0	0	0	555	495	0	444	0	0	
14	0	0	0	0	560	485	0	451	0	0	
15	0	0	0	0	566	479	0	460	0	0	
0	0	0	0	0	571	476	0	470	0	0	
1	0	0	0	0	574	477	0	479	0	0	
2	0	0	0	0	576	481	0	488	0	0	
3	0	0	0	0	577	489	0	495	0	0	
4	0	0	0	0	576	499	0	500	0	0	
5	0	0	0	0	573	510	0	503	0	0	
6	0	0	0	0	568	521	0	502	0	0	
7	0	0	0	0	563	532	0	497	0	0	
8	0	0	0	0	557	540	0	490	0	0	
9	0	0	0	0	551	546	0	481	0	0	
10	0	0	0	0	547	548	0	471	0	0	
11	0	0	0	0	543	547	0	461	0	0	
12	0	0	0	0	540	542	0	451	0	0	
13	0	0	0	0	540	534	0	444	0	0	
14	0	0	0	0	540	523	0	437	0	0	
15	0	0	0	0	542	511	0	434	0	0	
0	0	0	0	0	546	498	0	435	0	0	
1	0	0	0	0	551	487	0	439	0	0	
2	0	0	0	0	556	478	0	445	0	0	
3	0	0	0	0	561	471	0	454	0	0	
4	0	0	0	0	565	468	0	463	0	0	
5	0	0	0	0	568	469	0	474	0	0	
6	0	0	0	0	570	473	0	483	0	0	
7	0	0	0	0	571	481	0	492	0	0	
8	0	0	0	0	569	492	0	497	0	0	
9	0	0	0	0	567	504	0	500	0	0	
10	0	0	0	0	563	515	0	500	0	0	
11	0	0	0	0	558	526	0	497	0	0	
12	0	0	0	0	552	536	0	491	0	0	
13	0	0	0	0	547	542	0	483	0	0	
14	0	0	0	0	543	545	0	473	0	0	
15	0	0	0	0	540	543	0	464	0	0	
0	0	0	0	0	538	539	0	455	0	0	
1	0	0	0	0	538	531	0	448	0	0	
2	0	0	0	0	539	521	0	442	0	0	
3	0	0	0	0	542	509	0	439	0	0	
4	0	0	0	0	545	496	0	440	0	0	
5	0	0	0	0	550	485	0	443	0	0	
6	0	0	0	0	555	475	0	449	0	0	
7	0	0	0	0	560	469	0	456	0	0	
8	0	0	0	0	564	466	0	465	0	0	
9	0	0	0	0	566	467	0	473	0	0	
10	0	0	0	0	568	471	0	482	0	0	
11	0	0	0	0	568	479	0	489	0	0	
12	0	0	0	0	567	490	0	494	0	0	
13	0	0	0	0	565	502	0	496	0	0	
14	0	0	0	0	561	515	0	496	0	0	
15	0	0	0	0	556	526	0	492	0	0	
0	0	0	0	0	552	536	0	487	0	0	
1	0	0	0	0	548	543	0	480	0	0	
2	0	0	0	0	544	547	0	472	0	0	
3	0	0	0	0	541	547	0	464	0	0	
4	0	0	0	0	540	543	0	456	0	0	
5	0	0	0	0	541	536	0	451	0	0	
6	0	0	0	0	542	526	0	446	0	0	
7	0	0	0	0	546	515	0	445	0	0	
8	0	0	0	0	549	503	0	447	0	0	
9	0	0	0	0	554	492	0	450	0	0	
10	0	0	0	0	559	483	0	456	0	0	
11	0	0	0	0	564	476	0	464	0	0	
12	0	0	0	0	568	473	0	472	0	0	
13	0	0	0	0	571	473	0	481	0	0	
14	0	0	0	0	572	477	0	488	0	0	
15	0	0	0	0	572	484	0	495	0	0	
0	0	0	0	0	570	494	0	498	0	0	
1	0	0	0	0	567	505	0	500	0	0	
2	0	0	0	0	563	518	0	499	0	0	
3	0	0	0	0	558	529	0	495	0	0	
4	0	0	0	0	552	538	0	488	0	0	
5	0	0	0	0	547	545	0	480	0	0	
6	0	0	0	0	543	548	0	471	0	0	
7	0	0	0	0	539	547	0	462	0	0	
8	0	0	0	0	536	542	0	454	0	0	
9	0	0	0	0	536	534	0	448	0	0	
10	0	0	0	0	537	523	0	444	0	0	
11	0	0	0	0	540	511	0	442	0	0	
12	0	0	0	0	543	499	0	444	0	0	
13	0	0	0	0	548	487	0	448	0	0	
14	0	0	0	0	554	479	0	455	0	0	
15	0	0	0	0	559	473	0	464	0	0	
0	0	0	0	0	564	471	0	473	0	0	
1	0	0	0	0	568	472	0	482	0	0	
2	0	0	0	0	570	478	0	491	0	0	
3	0	0	0	0	571	487	0	498	0	0	
4	0	0	0	0	571	498	0	502	0	0	
5	0	0	0	0	569	511	0	504	0	0	
6	0	0	0	0	566	524	0	502	0	0	
7	0	0	0	0	561	535	0	499	0	0	
8	0	0	0	0	556	545	0	492	0	0	
9	0	0	0	0	551	551	0	483	0	0	
10	0	0	0	0	547	554	0	473	0	0	
11	0	0	0	0	543	553	0	463	0	0	
12	0	0	0	0	540	548	0	454	0	0	
13	0	0	0	0	540	540	0	446	0	0	
14	0	0	0	0	540	530	0	441	0	0	
15	0	0	0	0	543	518	0	438	0	0	
0	0	0	0	0	547	505	0	439	0	0	
1	0	0	0	0	552	494	0	442	0	0	
2	0	0	0	0	557	485	0	449	0	0	
3	0	0	0	0	563	479	0	458	0	0	
4	0	0	0	0	568	477	0	467	0	0	
5	0	0	0	0	571	477	0	478	0	0	
6	0	0	0	0	574	482	0	487	0	0	
7	0	0	0	0	575	490	0	495	0	0	
8	0	0	0	0	574	500	0	501	0	0	
9	0	0	0	0	571	512	0	503	0	0	
10	0	0	0	0	567	523	0	502	0	0	
11	0	0	0	0	561	534	0	498	0	0	
12	0	0	0	0	555	542	0	492	0	0	
13	0	0	0	0	548	547	0	483	0	0	
14	0	0	0	0	544	550	0	472	0	0	
15	0	0	0	0	540	548	0	462	0	0	
0	0	0	0	0	537	543	0	452	0	0	
1	0	0	0	0	536	535	0	444	0	0	
2	0	0	0	0	538	525	0	439	0	0	
3	0	0	0	0	541	513	0	436	0	0	
4	0	0	0	0	546	502	0	437	0	0	
5	0	0	0	0	553	492	0	441	0	0	
6	0	0	0	0	560	485	0	449	0	0	
7	0	0	0	0	567	480	0	458	0	0	
8	0	0	0	0	573	479	0	470	0	0	
9	0	0	0	0	578	482	0	480	0	0	
10	0	0	0	0	581	487	0	491	0	0	
11	0	0	0	0	583	496	0	500	0	0	
12	0	0	0	0	582	507	0	505	0	0	
13	0	0	0	0	579	519	0	508	0	0	
14	0	0	0	0	575	530	0	508	0	0	
15	0	0	0	0	569	541	0	504	0	0	
0	0	0	0	0	563	550	0	499	0	0	
1	0	0	0	0	558	555	0	489	0	0	
2	0	0	0	0	553	557	0	480	0	0	
3	0	0	0	0	548	556	0	469	0	0	
4	0	0	0	0	546	551	0	460	0	0	
5	0	0	0	0	545	543	0	453	0	0	
6	0	0	0	0	547	533	0	448	0	0	
7	0	0	0	0	550	522	0	445	0	0	
8	0	0	0	0	554	510	0	445	0	0	
9	0	0	0	0	560	499	0	449	0	0	
10	0	0	0	0	567	491	0	456	0	0	
11	0	0	0	0	573	485	0	464	0	0	
12	0	0	0	0	579	483	0	473	0	0	
13	0	0	0	0	583	483	0	483	0	0	
14	0	0	0	0	586	487	0	492	0	0	
15	0	0	0	0	587	495	0	499	0	0	
0	0	0	0	0	587	504	0	504	0	0	
1	0	0	0	0	584	515	0	506	0	0	
2	0	0	0	0	580	526	0	504	0	0	
3	0	0	0	0	575	536	0	500	0	0	
4	0	0	0	0	568	544	0	494	0	0	
5	0	0	0	0	562	549	0	486	0	0	
6	0	0	0	0	557	552	0	476	0	0	
7	0	0	0	0	553	551	0	466	0	0	
8	0	0	0	0	549	547	0	457	0	0	
9	0	0	0	0	548	539	0	451	0	0	
10	0	0	0	0	549	530	0	445	0	0	
11	0	0	0	0	551	519	0	442	0	0	
12	0	0	0	0	555	507	0	443	0	0	
13	0	0	0	0	559	496	0	446	0	0	
14	0	0	0	0	564	487	0	452	0	0	
15	0	0	0	0	570	481	0	459	0	0	
0	0	0	0	0	575	478	0	468	0	0	
1	0	0	0	0	579	478	0	477	0	0	
2	0	0	0	0	580	482	0	485	0	0	
3	0	0	0	0	581	489	0	492	0	0	
4	0	0	0	0	581	499	0	496	0	0	
5	0	0	0	0	579	510	0	499	0	0	
6	0	0	0	0	575	520	0	497	0	0	
7	0	0	0	0	570	531	0	494	0	0	
8	0	0	0	0	564	539	0	487	0	0	
9	0	0	0	0	558	545	0	478	0	0	
10	0	0	0	0	553	547	0	468	0	0	
11	0	0	0	0	549	545	0	458	0	0	
12	0	0	0	0	546	540	0	448	0	0	
13	0	0	0	0	545	532	0	441	0	0	
14	0	0	0	0	545	521	0	435	0	0	
15	0	0	0	0	547	510	0	432	0	0	
0	0	0	0	0	550	497	0	433	0	0	
1	0	0	0	0	555	487	0	436	0	0	
2	0	0	0	0	560	477	0	443	0	0	
3	0	0	0	0	566	471	0	451	0	0	
4	0	0	0	0	570	468	0	461	0	0	
5	0	0	0	0	573	469	0	470	0	0	
6	0	0	0	0	575	474	0	480	0	0	
7	0	0	0	0	576	481	0	487	0	0	
8	0	0	0	0	575	492	0	493	0	0	
9	0	0	0	0	573	504	0	496	0	0	
10	0	0	0	0	569	515	0	496	0	0	
11	0	0	0	0	564	527	0	493	0	0	
12	0	0	0	0	559	536	0	487	0	0	
13	0	0	0	0	554	543	0	480	0	0	
14	0	0	0	0	551	547	0	471	0	0	
15	0	0	0	0	548	547	0	462	0	0	
0	0	0	0	0	547	543	0	454	0	0	
1	0	0	0	0	547	536	0	448	0	0	
2	0	0	0	0	548	527	0	443	0	0	
3	0	0	0	0	551	516	0	441	0	0	
4	0	0	0	0	556	504	0	442	0	0	
5	0	0	0	0	562	494	0	446	0	0	
6	0	0	0	0	568	485	0	452	0	0	
7	0	0	0	0	574	479	0	460	0	0	
8	0	0	0	0	579	476	0	470	0	0	
9	0	0	0	0	583	477	0	480	0	0	
10	0	0	0	0	587	482	0	489	0	0	
11	0	0	0	0	588	490	0	497	0	0	
12	0	0	0	0	588	501	0	503	0	0	
13	0	0	0	0	587	513	0	505	0	0	
14	0	0	0	0	583	526	0	506	0	0	
15	0	0	0	0	579	538	0	503	0	0	
0	0	0	0	0	574	548	0	498	0	0	
1	0	0	0	0	568	555	0	489	0	0	
2	0	0	0	0	564	559	0	480	0	0	
3	0	0	0	0	560	558	0	471	0	0	
4	0	0	0	0	558	554	0	461	0	0	
5	0	0	0	0	557	547	0	454	0	0	
6	0	0	0	0	557	537	0	448	0	0	
7	0	0	0	0	560	526	0	445	0	0	
8	0	0	0	0	562	513	0	445	0	0	
9	0	0	0	0	567	502	0	448	0	0	
10	0	0	0	0	572	493	0	454	0	0	
11	0	0	0	0	577	487	0	462	0	0	
12	0	0	0	0	581	484	0	471	0	0	
13	0	0	0	0	583	484	0	480	0	0	
14	0	0	0	0	585	488	0	488	0	0	
15	0	0	0	0	584	495	0	496	0	0	
0	0	0	0	0	582	504	0	501	0	0	
1	0	0	0	0	578	515	0	503	0	0	
2	0	0	0	0	573	526	0	502	0	0	
3	0	0	0	0	567	536	0	498	0	0	
4	0	0	0	0	560	545	0	492	0	0	
5	0	0	0	0	553	551	0	483	0	0	
6	0	0	0	0	548	553	0	473	0	0	
7	0	0	0	0	543	551	0	463	0	0	
8	0	0	0	0	542	546	0	453	0	0	
9	0	0	0	0	540	538	0	446	0	0	
10	0	0	0	0	542	527	0	440	0	0	
11	0	0	0	0	544	515	0	438	0	0	
12	0	0	0	0	547	502	0	438	0	0	
13	0	0	0	0	553	491	0	440	0	0	
14	0	0	0	0	558	481	0	448	0	0	
15	0	0	0	0	564	475	0	455	0	0	
0	0	0	0	0	569	472	0	464	0	0	
1	0	0	0	0	572	472	0	473	0	0	
2	0	0	0	0	574	476	0	482	0	0	
3	0	0	0	0	575	484	0	491	0	0	
4	0	0	0	0	573	494	0	496	0	0	
5	0	0	0	0	571	506	0	499	0	0	
6	0	0	0	0	566	518	0	500	0	0	
7	0	0	0	0	561	528	0	496	0	0	
8	0	0	0	0	556	538	0	492	0	0	
9	0	0	0	0	550	545	0	484	0	0	
10	0	0	0	0	545	548	0	476	0	0	
11	0	0	0	0	542	547	0	467	0	0	
12	0	0	0	0	541	543	0	458	0	0	
13	0	0	0	0	542	536	0	451	0	0	
14	0	0	0	0	543	527	0	446	0	0	
15	0	0	0	0	547	516	0	444	0	0	
0	0	0	0	0	552	504	0	444	0	0	
1	0	0	0	0	558	493	0	446	0	0	
2	0	0	0	0	563	484	0	451	0	0	
3	0	0	0	0	568	477	0	456	0	0	
4	0	0	0	0	569	472	0	463	0	0	
5	0	0	0	0	569	469	0	468	0	0	
6	0	0	0	0	567	469	0	472	0	0	
7	0	0	0	0	562	471	0	475	0	0	
8	0	0	0	0	553	474	0	472	0	0	
9	0	0	0	0	543	478	0	467	0	0	
10	0	0	0	0	529	480	0	458	0	0	
11	0	0	0	0	514	481	0	444	0	0	
12	0	0	0	0	497	480	0	429	0	0	
13	0	0	0	0	481	476	0	411	0	0	
14	0	0	0	0	465	468	0	391	0	0	
15	0	0	0	0	449	456	0	371	0	0	
0	0	0	0	0	436	441	0	350	0	0	
1	0	0	0	0	424	422	0	332	0	0	
2	0	0	0	0	414	401	0	315	0	0	
3	0	0	0	0	406	379	0	300	0	0	
4	0	0	0	0	399	355	0	288	0	0	
5	0	0	0	0	393	332	0	279	0	0	
6	0	0	0	0	389	311	0	274	0	0	
7	0	0	0	0	384	291	0	269	0	0	
8	0	0	0	0	379	276	0	268	0	0	
9	0	0	0	0	372	264	0	268	0	0	
10	0	0	0	0	366	259	0	267	0	0	
11	0	0	0	0	359	258	0	269	0	0	
12	0	0	0	0	353	262	0	271	0	0	
13	0	0	0	0	348	271	0	273	0	0	
14	0	0	0	0	344	284	0	276	0	0	
15	0	0	0	0	343	300	0	278	0	0	
0	0	0	0	0	345	319	0	283	0	0	
1	0	0	0	0	351	337	0	286	0	0	
2	0	0	0	0	360	355	0	293	0	0	
3	0	0	0	0	375	372	0	301	0	0	
4	0	0	0	0	393	388	0	312	0	0	
5	0	0	0	0	415	402	0	325	0	0	
6	0	0	0	0	439	413	0	340	0	0	
7	0	0	0	0	465	422	0	359	0	0	
8	0	0	0	0	492	430	0	379	0	0	
9	0	0	0	0	518	437	0	401	0	0	
10	0	0	0	0	542	444	0	425	0	0	
11	0	0	0	0	564	452	0	448	0	0	
12	0	0	0	0	582	462	0	470	0	0	
13	0	0	0	0	596	473	0	490	0	0	
14	0	0	0	0	605	486	0	507	0	0	
15	0	0	0	0	610	499	0	521	0	0	
0	0	0	0	0	610	513	0	529	0	0	
1	0	0	0	0	608	528	0	534	0	0	
2	0	0	0	0	601	541	0	533	0	0	
3	0	0	0	0	592	552	0	528	0	0	
4	0	0	0	0	581	560	0	519	0	0	
5	0	0	0	0	570	563	0	507	0	0	
6	0	0	0	0	560	564	0	494	0	0	
7	0	0	0	0	552	560	0	480	0	0	
8	0	0	0	0	545	552	0	466	0	0	
9	0	0	0	0	541	542	0	455	0	0	
10	0	0	0	0	541	530	0	448	0	0	
11	0	0	0	0	543	516	0	443	0	0	
12	0	0	0	0	547	504	0	442	0	0	
13	0	0	0	0	553	492	0	446	0	0	
14	0	0	0	0	561	483	0	453	0	0	
15	0	0	0	0	569	478	0	462	0	0	
0	0	0	0	0	577	476	0	474	0	0	
1	0	0	0	0	583	478	0	486	0	0	
2	0	0	0	0	588	484	0	497	0	0	
3	0	0	0	0	592	494	0	508	0	0	
4	0	0	0	0	593	506	0	516	0	0	
5	0	0	0	0	593	519	0	521	0	0	
6	0	0	0	0	592	534	0	523	0	0	
7	0	0	0	0	589	547	0	521	0	0	
8	0	0	0	0	586	558	0	516	0	0	
9	0	0	0	0	582	567	0	508	0	0	
10	0	0	0	0	579	572	0	499	0	0	
11	0	0	0	0	576	573	0	490	0	0	
12	0	0	0	0	574	571	0	480	0	0	
13	0	0	0	0	574	564	0	472	0	0	
14	0	0	0	0	574	554	0	466	0	0	
15	0	0	0	0	575	542	0	463	0	0	
0	0	0	0	0	577	529	0	462	0	0	
1	0	0	0	0	579	516	0	464	0	0	
2	0	0	0	0	583	505	0	471	0	0	
3	0	0	0	0	587	497	0	478	0	0	
4	0	0	0	0	590	492	0	487	0	0	
5	0	0	0	0	591	490	0	497	0	0	
6	0	0	0	0	592	494	0	506	0	0	
7	0	0	0	0	592	500	0	515	0	0	
8	0	0	0	0	591	509	0	520	0	0	
9	0	0	0	0	589	519	0	523	0	0	
10	0	0	0	0	585	531	0	523	0	0	
11	0	0	0	0	580	543	0	519	0	0	
12	0	0	0	0	575	552	0	513	0	0	
13	0	0	0	0	569	559	0	504	0	0	
14	0	0	0	0	565	563	0	494	0	0	
15	0	0	0	0	562	563	0	484	0	0	
0	0	0	0	0	559	559	0	474	0	0	
1	0	0	0	0	558	551	0	465	0	0	
2	0	0	0	0	559	541	0	459	0	0	
3	0	0	0	0	561	529	0	454	0	0	
4	0	0	0	0	563	515	0	453	0	0	
5	0	0	0	0	567	504	0	455	0	0	
6	0	0	0	0	571	493	0	461	0	0	
7	0	0	0	0	575	486	0	468	0	0	
8	0	0	0	0	579	482	0	476	0	0	
9	0	0	0	0	582	481	0	486	0	0	
10	0	0	0	0	583	485	0	495	0	0	
11	0	0	0	0	583	492	0	503	0	0	
12	0	0	0	0	582	502	0	509	0	0	
13	0	0	0	0	580	514	0	513	0	0	
14	0	0	0	0	576	526	0	513	0	0	
15	0	0	0	0	572	538	0	511	0	0	
0	0	0	0	0	567	547	0	505	0	0	
1	0	0	0	0	562	555	0	499	0	0	
2	0	0	0	0	558	559	0	490	0	0	
3	0	0	0	0	555	559	0	480	0	0	
4	0	0	0	0	552	556	0	471	0	0	
5	0	0	0	0	551	549	0	464	0	0	
6	0	0	0	0	552	539	0	457	0	0	
7	0	0	0	0	555	528	0	454	0	0	
8	0	0	0	0	558	515	0	454	0	0	
9	0	0	0	0	562	504	0	456	0	0	
10	0	0	0	0	567	495	0	462	0	0	
11	0	0	0	0	571	487	0	470	0	0	
12	0	0	0	0	575	484	0	478	0	0	
13	0	0	0	0	579	483	0	488	0	0	
14	0	0	0	0	581	487	0	497	0	0	
15	0	0	0	0	582	495	0	505	0	0	
0	0	0	0	0	582	504	0	511	0	0	
1	0	0	0	0	580	516	0	513	0	0	
2	0	0	0	0	576	527	0	513	0	0	
3	0	0	0	0	572	539	0	511	0	0	
4	0	0	0	0	568	549	0	505	0	0	
5	0	0	0	0	563	556	0	497	0	0	
6	0	0	0	0	558	559	0	487	0	0	
7	0	0	0	0	555	559	0	478	0	0	
8	0	0	0	0	552	555	0	468	0	0	
9	0	0	0	0	551	547	0	460	0	0	
10	0	0	0	0	551	537	0	454	0	0	
11	0	0	0	0	554	525	0	450	0	0	
12	0	0	0	0	557	511	0	449	0	0	
13	0	0	0	0	561	499	0	451	0	0	
14	0	0	0	0	565	488	0	457	0	0	
15	0	0	0	0	569	481	0	463	0	0	
0	0	0	0	0	573	476	0	472	0	0	
1	0	0	0	0	575	476	0	481	0	0	
2	0	0	0	0	576	479	0	489	0	0	
3	0	0	0	0	576	486	0	497	0	0	
4	0	0	0	0	575	496	0	502	0	0	
5	0	0	0	0	572	508	0	506	0	0	
6	0	0	0	0	569	521	0	506	0	0	
7	0	0	0	0	564	533	0	504	0	0	
8	0	0	0	0	559	544	0	499	0	0	
9	0	0	0	0	553	551	0	491	0	0	
10	0	0	0	0	549	556	0	482	0	0	
11	0	0	0	0	544	555	0	473	0	0	
12	0	0	0	0	543	551	0	463	0	0	
13	0	0	0	0	542	543	0	456	0	0	
14	0	0	0	0	542	532	0	450	0	0	
15	0	0	0	0	544	520	0	447	0	0	
0	0	0	0	0	548	507	0	447	0	0	
1	0	0	0	0	554	495	0	448	0	0	
2	0	0	0	0	560	486	0	455	0	0	
3	0	0	0	0	566	479	0	463	0	0	
4	0	0	0	0	572	476	0	472	0	0	
5	0	0	0	0	576	476	0	483	0	0	
6	0	0	0	0	579	481	0	492	0	0	
7	0	0	0	0	581	489	0	501	0	0	
8	0	0	0	0	581	500	0	507	0	0	
9	0	0	0	0	579	512	0	511	0	0	
10	0	0	0	0	575	524	0	511	0	0	
11	0	0	0	0	570	536	0	508	0	0	
12	0	0	0	0	563	546	0	503	0	0	
13	0	0	0	0	558	553	0	494	0	0	
14	0	0	0	0	552	557	0	485	0	0	
15	0	0	0	0	547	556	0	475	0	0	
0	0	0	0	0	545	552	0	466	0	0	
1	0	0	0	0	544	544	0	459	0	0	
2	0	0	0	0	545	535	0	453	0	0	
3	0	0	0	0	547	523	0	450	0	0	
4	0	0	0	0	551	511	0	451	0	0	
5	0	0	0	0	558	499	0	454	0	0	
6	0	0	0	0	564	491	0	461	0	0	
7	0	0	0	0	571	484	0	469	0	0	
8	0	0	0	0	577	482	0	479	0	0	
9	0	0	0	0	582	483	0	488	0	0	
10	0	0	0	0	585	488	0	498	0	0	
11	0	0	0	0	588	496	0	505	0	0	
12	0	0	0	0	588	507	0	511	0	0	
13	0	0	0	0	586	519	0	514	0	0	
14	0	0	0	0	582	531	0	512	0	0	
15	0	0	0	0	576	542	0	509	0	0	
0	0	0	0	0	569	550	0	502	0	0	
1	0	0	0	0	563	556	0	493	0	0	
2	0	0	0	0	556	557	0	482	0	0	
3	0	0	0	0	551	555	0	472	0	0	
4	0	0	0	0	547	550	0	462	0	0	
5	0	0	0	0	545	542	0	454	0	0	
6	0	0	0	0	545	531	0	447	0	0	
7	0	0	0	0	547	519	0	444	0	0	
8	0	0	0	0	551	507	0	444	0	0	
9	0	0	0	0	556	496	0	447	0	0	
10	0	0	0	0	561	487	0	453	0	0	
11	0	0	0	0	567	480	0	462	0	0	
12	0	0	0	0	572	477	0	472	0	0	
13	0	0	0	0	577	478	0	481	0	0	
14	0	0	0	0	579	482	0	491	0	0	
15	0	0	0	0	580	489	0	499	0	0	
0	0	0	0	0	580	499	0	505	0	0	
1	0	0	0	0	578	510	0	508	0	0	
2	0	0	0	0	574	521	0	508	0	0	
3	0	0	0	0	568	532	0	504	0	0	
4	0	0	0	0	562	541	0	499	0	0	
5	0	0	0	0	556	547	0	490	0	0	
6	0	0	0	0	551	551	0	480	0	0	
7	0	0	0	0	546	550	0	471	0	0	
8	0	0	0	0	543	545	0	461	0	0	
9	0	0	0	0	542	537	0	453	0	0	
10	0	0	0	0	543	527	0	447	0	0	
11	0	0	0	0	545	516	0	444	0	0	
12	0	0	0	0	550	504	0	443	0	0	
13	0	0	0	0	554	492	0	446	0	0	
14	0	0	0	0	560	483	0	452	0	0	
15	0	0	0	0	566	477	0	460	0	0	
0	0	0	0	0	571	473	0	470	0	0	
1	0	0	0	0	576	475	0	480	0	0	
2	0	0	0	0	579	480	0	489	0	0	
3	0	0	0	0	581	487	0	498	0	0	
4	0	0	0	0	581	498	0	504	0	0	
5	0	0	0	0	580	511	0	508	0	0	
6	0	0	0	0	577	523	0	508	0	0	
7	0	0	0	0	572	535	0	505	0	0	
8	0	0	0	0	568	545	0	501	0	0	
9	0	0	0	0	563	552	0	493	0	0	
10	0	0	0	0	559	556	0	483	0	0	
11	0	0	0	0	556	557	0	474	0	0	
12	0	0	0	0	554	554	0	465	0	0	
13	0	0	0	0	553	547	0	458	0	0	
14	0	0	0	0	554	538	0	452	0	0	
15	0	0	0	0	556	527	0	448	0	0	
0	0	0	0	0	559	515	0	448	0	0	
1	0	0	0	0	563	503	0	451	0	0	
2	0	0	0	0	568	493	0	456	0	0	
3	0	0	0	0	572	485	0	464	0	0	
4	0	0	0	0	576	482	0	473	0	0	
5	0	0	0	0	580	481	0	482	0	0	
6	0	0	0	0	582	484	0	492	0	0	
7	0	0	0	0	583	492	0	500	0	0	
8	0	0	0	0	582	501	0	506	0	0	
9	0	0	0	0	580	512	0	509	0	0	
10	0	0	0	0	577	524	0	510	0	0	
11	0	0	0	0	572	536	0	508	0	0	
12	0	0	0	0	568	545	0	503	0	0	
13	0	0	0	0	563	553	0	496	0	0	
14	0	0	0	0	559	557	0	487	0	0	
15	0	0	0	0	555	556	0	478	0	0	
0	0	0	0	0	553	553	0	469	0	0	
1	0	0	0	0	553	546	0	461	0	0	
2	0	0	0	0	553	536	0	455	0	0	
3	0	0	0	0	556	524	0	451	0	0	
4	0	0	0	0	559	511	0	451	0	0	
5	0	0	0	0	563	499	0	453	0	0	
6	0	0	0	0	567	489	0	458	0	0	
7	0	0	0	0	572	481	0	465	0	0	
8	0	0	0	0	575	477	0	473	0	0	
9	0	0	0	0	577	476	0	482	0	0	
10	0	0	0	0	579	479	0	490	0	0	
11	0	0	0	0	579	486	0	498	0	0	
12	0	0	0	0	578	496	0	503	0	0	
13	0	0	0	0	576	507	0	506	0	0	
14	0	0	0	0	572	519	0	506	0	0	
15	0	0	0	0	568	531	0	503	0	0	
0	0	0	0	0	562	541	0	498	0	0	
1	0	0	0	0	557	549	0	489	0	0	
2	0	0	0	0	552	553	0	480	0	0	
3	0	0	0	0	548	553	0	471	0	0	
4	0	0	0	0	547	550	0	462	0	0	
5	0	0	0	0	546	543	0	454	0	0	
6	0	0	0	0	547	534	0	448	0	0	
7	0	0	0	0	550	523	0	445	0	0	
8	0	0	0	0	553	511	0	445	0	0	
9	0	0	0	0	559	499	0	448	0	0	
10	0	0	0	0	564	491	0	454	0	0	
11	0	0	0	0	571	484	0	461	0	0	
12	0	0	0	0	576	481	0	471	0	0	
13	0	0	0	0	580	482	0	481	0	0	
14	0	0	0	0	584	487	0	489	0	0	
15	0	0	0	0	586	495	0	499	0	0	
0	0	0	0	0	587	505	0	504	0	0	
1	0	0	0	0	585	517	0	508	0	0	
2	0	0	0	0	583	530	0	509	0	0	
3	0	0	0	0	578	541	0	507	0	0	
4	0	0	0	0	572	551	0	502	0	0	
5	0	0	0	0	566	557	0	494	0	0	
6	0	0	0	0	560	560	0	485	0	0	
7	0	0	0	0	556	560	0	475	0	0	
8	0	0	0	0	552	555	0	465	0	0	
9	0	0	0	0	551	547	0	458	0	0	
10	0	0	0	0	550	536	0	451	0	0	
11	0	0	0	0	552	524	0	448	0	0	
12	0	0	0	0	555	512	0	448	0	0	
13	0	0	0	0	560	500	0	450	0	0	
14	0	0	0	0	565	491	0	456	0	0	
15	0	0	0	0	571	483	0	463	0	0	
0	0	0	0	0	576	480	0	472	0	0	
1	0	0	0	0	581	480	0	482	0	0	
2	0	0	0	0	584	484	0	491	0	0	
3	0	0	0	0	586	492	0	500	0	0	
4	0	0	0	0	586	502	0	506	0	0	
5	0	0	0	0	584	514	0	510	0	0	
6	0	0	0	0	580	526	0	510	0	0	
7	0	0	0	0	575	539	0	507	0	0	
8	0	0	0	0	571	549	0	502	0	0	
9	0	0	0	0	565	557	0	495	0	0	
10	0	0	0	0	561	562	0	485	0	0	
11	0	0	0	0	558	563	0	476	0	0	
12	0	0	0	0	556	560	0	467	0	0	
13	0	0	0	0	555	553	0	460	0	0	
14	0	0	0	0	556	543	0	453	0	0	
15	0	0	0	0	559	532	0	449	0	0	
0	0	0	0	0	563	520	0	449	0	0	
1	0	0	0	0	568	508	0	451	0	0	
2	0	0	0	0	573	498	0	457	0	0	
3	0	0	0	0	578	491	0	464	0	0	
4	0	0	0	0	583	487	0	474	0	0	
5	0	0	0	0	587	487	0	483	0	0	
6	0	0	0	0	590	491	0	493	0	0	
7	0	0	0	0	591	498	0	503	0	0	
8	0	0	0	0	591	509	0	509	0	0	
9	0	0	0	0	590	521	0	513	0	0	
10	0	0	0	0	587	534	0	514	0	0	
11	0	0	0	0	583	547	0	512	0	0	
12	0	0	0	0	579	559	0	508	0	0	
13	0	0	0	0	575	568	0	500	0	0	
14	0	0	0	0	570	572	0	492	0	0	
15	0	0	0	0	566	573	0	483	0	0	
0	0	0	0	0	564	570	0	473	0	0	
1	0	0	0	0	562	563	0	465	0	0	
2	0	0	0	0	562	552	0	459	0	0	
3	0	0	0	0	563	540	0	455	0	0	
4	0	0	0	0	565	527	0	454	0	0	
5	0	0	0	0	569	515	0	456	0	0	
6	0	0	0	0	574	504	0	462	0	0	
7	0	0	0	0	579	497	0	468	0	0	
8	0	0	0	0	584	493	0	477	0	0	
9	0	0	0	0	588	493	0	487	0	0	
10	0	0	0	0	592	497	0	496	0	0	
11	0	0	0	0	595	505	0	504	0	0	
12	0	0	0	0	597	516	0	511	0	0	
13	0	0	0	0	598	529	0	515	0	0	
14	0	0	0	0	596	542	0	516	0	0	
15	0	0	0	0	593	555	0	513	0	0	
0	0	0	0	0	589	566	0	509	0	0	
1	0	0	0	0	584	574	0	501	0	0	
2	0	0	0	0	579	578	0	492	0	0	
3	0	0	0	0	574	577	0	483	0	0	
4	0	0	0	0	569	573	0	472	0	0	
5	0	0	0	0	566	564	0	465	0	0	
6	0	0	0	0	564	552	0	457	0	0	
7	0	0	0	0	563	539	0	452	0	0	
8	0	0	0	0	563	523	0	451	0	0	
9	0	0	0	0	564	509	0	451	0	0	
10	0	0	0	0	567	496	0	455	0	0	
11	0	0	0	0	569	486	0	461	0	0	
12	0	0	0	0	572	480	0	469	0	0	
13	0	0	0	0	573	477	0	477	0	0	
14	0	0	0	0	575	480	0	486	0	0	
15	0	0	0	0	575	486	0	494	0	0	
0	0	0	0	0	575	495	0	499	0	0	
1	0	0	0	0	573	507	0	502	0	0	
2	0	0	0	0	570	520	0	503	0	0	
3	0	0	0	0	567	533	0	500	0	0	
4	0	0	0	0	563	545	0	496	0	0	
5	0	0	0	0	560	554	0	489	0	0	
6	0	0	0	0	557	560	0	481	0	0	
7	0	0	0	0	555	562	0	472	0	0	
8	0	0	0	0	555	560	0	464	0	0	
9	0	0	0	0	555	555	0	458	0	0	
10	0	0	0	0	557	546	0	453	0	0	
11	0	0	0	0	560	536	0	450	0	0	
12	0	0	0	0	564	524	0	451	0	0	
13	0	0	0	0	569	512	0	453	0	0	
14	0	0	0	0	575	503	0	459	0	0	
15	0	0	0	0	579	495	0	465	0	0	
0	0	0	0	0	583	490	0	473	0	0	
1	0	0	0	0	586	489	0	482	0	0	
2	0	0	0	0	588	492	0	489	0	0	
3	0	0	0	0	588	498	0	497	0	0	
4	0	0	0	0	586	506	0	502	0	0	
5	0	0	0	0	583	516	0	504	0	0	
6	0	0	0	0	578	527	0	504	0	0	
7	0	0	0	0	573	539	0	500	0	0	
8	0	0	0	0	568	547	0	494	0	0	
9	0	0	0	0	562	555	0	486	0	0	
10	0	0	0	0	558	559	0	477	0	0	
11	0	0	0	0	554	559	0	467	0	0	
12	0	0	0	0	551	555	0	458	0	0	
13	0	0	0	0	551	548	0	450	0	0	
14	0	0	0	0	551	539	0	444	0	0	
15	0	0	0	0	553	528	0	440	0	0	
0	0	0	0	0	556	515	0	439	0	0	
1	0	0	0	0	560	504	0	441	0	0	
2	0	0	0	0	564	493	0	446	0	0	
3	0	0	0	0	569	486	0	454	0	0	
4	0	0	0	0	574	481	0	463	0	0	
5	0	0	0	0	577	480	0	471	0	0	
6	0	0	0	0	579	483	0	481	0	0	
7	0	0	0	0	579	489	0	489	0	0	
8	0	0	0	0	579	499	0	495	0	0	
9	0	0	0	0	577	511	0	499	0	0	
10	0	0	0	0	574	524	0	500	0	0	
11	0	0	0	0	570	536	0	499	0	0	
12	0	0	0	0	566	547	0	495	0	0	
13	0	0	0	0	561	556	0	488	0	0	
14	0	0	0	0	558	562	0	480	0	0	
15	0	0	0	0	555	563	0	471	0	0	
0	0	0	0	0	553	560	0	463	0	0	
1	0	0	0	0	552	554	0	455	0	0	
2	0	0	0	0	553	544	0	450	0	0	
3	0	0	0	0	556	533	0	447	0	0	
4	0	0	0	0	559	520	0	446	0	0	
5	0	0	0	0	563	508	0	449	0	0	
6	0	0	0	0	568	496	0	454	0	0	
7	0	0	0	0	574	488	0	462	0	0	
8	0	0	0	0	578	483	0	472	0	0	
9	0	0	0	0	583	483	0	481	0	0	
10	0	0	0	0	585	485	0	490	0	0	
11	0	0	0	0	587	492	0	498	0	0	
12	0	0	0	0	587	502	0	504	0	0	
13	0	0	0	0	586	513	0	507	0	0	
14	0	0	0	0	582	525	0	507	0	0	
15	0	0	0	0	577	537	0	504	0	0	
0	0	0	0	0	571	547	0	498	0	0	
1	0	0	0	0	566	555	0	490	0	0	
2	0	0	0	0	560	559	0	481	0	0	
3	0	0	0	0	556	559	0	471	0	0	
4	0	0	0	0	553	556	0	462	0	0	
5	0	0	0	0	551	549	0	455	0	0	
6	0	0	0	0	551	540	0	448	0	0	
7	0	0	0	0	553	528	0	445	0	0	
8	0	0	0	0	557	515	0	445	0	0	
9	0	0	0	0	561	504	0	448	0	0	
10	0	0	0	0	566	494	0	454	0	0	
11	0	0	0	0	571	486	0	461	0	0	
12	0	0	0	0	576	482	0	470	0	0	
13	0	0	0	0	580	481	0	480	0	0	
14	0	0	0	0	583	484	0	489	0	0	
15	0	0	0	0	584	492	0	497	0	0	
0	0	0	0	0	585	502	0	503	0	0	
1	0	0	0	0	584	514	0	506	0	0	
2	0	0	0	0	582	526	0	507	0	0	
3	0	0	0	0	578	539	0	504	0	0	
4	0	0	0	0	574	550	0	499	0	0	
5	0	0	0	0	569	558	0	491	0	0	
6	0	0	0	0	565	564	0	482	0	0	
7	0	0	0	0	562	565	0	472	0	0	
8	0	0	0	0	559	562	0	463	0	0	
9	0	0	0	0	558	557	0	456	0	0	
10	0	0	0	0	559	548	0	451	0	0	
11	0	0	0	0	561	537	0	448	0	0	
12	0	0	0	0	564	526	0	449	0	0	
13	0	0	0	0	569	515	0	452	0	0	
14	0	0	0	0	574	505	0	458	0	0	
15	0	0	0	0	579	497	0	466	0	0	
0	0	0	0	0	583	492	0	475	0	0	
1	0	0	0	0	585	490	0	483	0	0	
2	0	0	0	0	587	492	0	492	0	0	
3	0	0	0	0	586	497	0	499	0	0	
4	0	0	0	0	584	505	0	504	0	0	
5	0	0	0	0	580	516	0	505	0	0	
6	0	0	0	0	575	526	0	504	0	0	
7	0	0	0	0	568	537	0	500	0	0	
8	0	0	0	0	562	546	0	494	0	0	
9	0	0	0	0	556	553	0	484	0	0	
10	0	0	0	0	550	557	0	475	0	0	
11	0	0	0	0	546	557	0	465	0	0	
12	0	0	0	0	543	553	0	456	0	0	
13	0	0	0	0	543	547	0	448	0	0	
14	0	0	0	0	543	538	0	443	0	0	
15	0	0	0	0	547	527	0	440	0	0	
0	0	0	0	0	552	516	0	441	0	0	
1	0	0	0	0	558	505	0	444	0	0	
2	0	0	0	0	564	497	0	451	0	0	
3	0	0	0	0	571	491	0	460	0	0	
4	0	0	0	0	577	488	0	470	0	0	
5	0	0	0	0	583	488	0	480	0	0	
6	0	0	0	0	586	492	0	491	0	0	
7	0	0	0	0	588	500	0	499	0	0	
8	0	0	0	0	588	511	0	506	0	0	
9	0	0	0	0	587	523	0	510	0	0	
10	0	0	0	0	585	535	0	511	0	0	
11	0	0	0	0	580	547	0	508	0	0	
12	0	0	0	0	575	557	0	504	0	0	
13	0	0	0	0	570	564	0	496	0	0	
14	0	0	0	0	566	569	0	486	0	0	
15	0	0	0	0	562	569	0	477	0	0	
0	0	0	0	0	560	567	0	467	0	0	
1	0	0	0	0	559	560	0	460	0	0	
2	0	0	0	0	560	551	0	454	0	0	
3	0	0	0	0	562	540	0	450	0	0	
4	0	0	0	0	566	527	0	449	0	0	
5	0	0	0	0	571	516	0	452	0	0	
6	0	0	0	0	576	506	0	457	0	0	
7	0	0	0	0	581	499	0	465	0	0	
8	0	0	0	0	585	494	0	473	0	0	
9	0	0	0	0	588	493	0	483	0	0	
10	0	0	0	0	589	495	0	492	0	0	
11	0	0	0	0	589	501	0	500	0	0	
12	0	0	0	0	587	509	0	505	0	0	
13	0	0	0	0	583	519	0	508	0	0	
14	0	0	0	0	579	530	0	508	0	0	
15	0	0	0	0	573	541	0	505	0	0	
0	0	0	0	0	566	550	0	500	0	0	
1	0	0	0	0	560	557	0	492	0	0	
2	0	0	0	0	555	561	0	483	0	0	
3	0	0	0	0	551	562	0	473	0	0	
4	0	0	0	0	549	559	0	463	0	0	
5	0	0	0	0	549	553	0	455	0	0	
6	0	0	0	0	550	543	0	448	0	0	
7	0	0	0	0	551	533	0	444	0	0	
8	0	0	0	0	557	521	0	443	0	0	
9	0	0	0	0	561	509	0	444	0	0	
10	0	0	0	0	567	499	0	450	0	0	
11	0	0	0	0	572	492	0	457	0	0	
12	0	0	0	0	577	488	0	466	0	0	
13	0	0	0	0	581	487	0	476	0	0	
14	0	0	0	0	584	490	0	486	0	0	
15	0	0	0	0	586	497	0	495	0	0	
0	0	0	0	0	586	507	0	501	0	0	
1	0	0	0	0	585	518	0	505	0	0	
2	0	0	0	0	582	531	0	508	0	0	
3	0	0	0	0	578	543	0	505	0	0	
4	0	0	0	0	573	553	0	501	0	0	
5	0	0	0	0	568	561	0	493	0	0	
6	0	0	0	0	564	565	0	484	0	0	
7	0	0	0	0	560	566	0	475	0	0	
8	0	0	0	0	556	562	0	466	0	0	
9	0	0	0	0	556	556	0	458	0	0	
10	0	0	0	0	556	546	0	452	0	0	
11	0	0	0	0	558	536	0	448	0	0	
12	0	0	0	0	561	523	0	447	0	0	
13	0	0	0	0	565	511	0	449	0	0	
14	0	0	0	0	569	501	0	455	0	0	
15	0	0	0	0	574	493	0	462	0	0	
0	0	0	0	0	578	489	0	470	0	0	
1	0	0	0	0	581	487	0	480	0	0	
2	0	0	0	0	583	490	0	487	0	0	
3	0	0	0	0	582	496	0	495	0	0	
4	0	0	0	0	581	506	0	501	0	0	
5	0	0	0	0	578	517	0	504	0	0	
6	0	0	0	0	574	528	0	504	0	0	
7	0	0	0	0	568	540	0	500	0	0	
8	0	0	0	0	562	549	0	496	0	0	
9	0	0	0	0	556	556	0	486	0	0	
10	0	0	0	0	550	560	0	477	0	0	
11	0	0	0	0	546	560	0	466	0	0	
12	0	0	0	0	542	557	0	456	0	0	
13	0	0	0	0	541	550	0	448	0	0	
14	0	0	0	0	541	540	0	441	0	0	
15	0	0	0	0	542	528	0	436	0	0	
0	0	0	0	0	545	515	0	435	0	0	
1	0	0	0	0	550	503	0	437	0	0	
2	0	0	0	0	555	492	0	441	0	0	
3	0	0	0	0	560	484	0	448	0	0	
4	0	0	0	0	565	479	0	457	0	0	
5	0	0	0	0	569	478	0	466	0	0	
6	0	0	0	0	572	480	0	475	0	0	
7	0	0	0	0	573	487	0	484	0	0	
8	0	0	0	0	573	495	0	490	0	0	
9	0	0	0	0	572	507	0	494	0	0	
10	0	0	0	0	568	519	0	495	0	0	
11	0	0	0	0	563	530	0	493	0	0	
12	0	0	0	0	559	540	0	489	0	0	
13	0	0	0	0	553	547	0	482	0	0	
14	0	0	0	0	548	551	0	472	0	0	
15	0	0	0	0	544	551	0	464	0	0	
0	0	0	0	0	542	547	0	454	0	0	
1	0	0	0	0	540	541	0	446	0	0	
2	0	0	0	0	540	531	0	439	0	0	
3	0	0	0	0	542	520	0	435	0	0	
4	0	0	0	0	545	508	0	433	0	0	
5	0	0	0	0	550	496	0	435	0	0	
6	0	0	0	0	556	487	0	440	0	0	
7	0	0	0	0	561	480	0	447	0	0	
8	0	0	0	0	567	477	0	456	0	0	
9	0	0	0	0	571	476	0	466	0	0	
