# OpenSignals Text File Format. Version 1
# {"": {"position": 0, "device": "", "device name": "", "device connection": "", "sampling rate": 1000, "resolution": [4, 1, 1, 1, 1, 10, 10, 10, 10, 6, 6], "firmware version": 1281, "comments": "", "keywords": "", "mode": 0, "sync interval": 2, "date": "", "time": "", "channels": [1, 2, 3, 4, 5, 6], "sensor": ["RAW", "RAW", "RAW", "RAW", "RAW", "RAW"], "label": ["A1", "A2", "A3", "A4", "A5", "A6"], "column": ["nSeq", "I1", "I2", "O1", "O2", "A1", "A2", "A3", "A4", "A5", "A6"], "special": [{}, {}, {}, {}, {}, {}], "digital IO": [0, 0, 1, 1], "convertedValues": 0}}
# EndOfHeader
0	0	0	0	0	547	508	0	523	0	0	
1	0	0	0	0	543	522	0	517	0	0	
2	0	0	0	0	538	531	0	508	0	0	
3	0	0	0	0	532	536	0	497	0	0	
4	0	0	0	0	528	535	0	487	0	0	
5	0	0	0	0	525	529	0	476	0	0	
6	0	0	0	0	523	519	0	467	0	0	
7	0	0	0	0	521	505	0	460	0	0	
8	0	0	0	0	522	489	0	457	0	0	
9	0	0	0	0	523	473	0	456	0	0	
10	0	0	0	0	528	458	0	461	0	0	
11	0	0	0	0	533	446	0	468	0	0	
12	0	0	0	0	539	437	0	478	0	0	
13	0	0	0	0	545	433	0	489	0	0	
14	0	0	0	0	551	435	0	502	0	0	
15	0	0	0	0	555	441	0	512	0	0	
0	0	0	0	0	558	451	0	522	0	0	
1	0	0	0	0	560	464	0	528	0	0	
2	0	0	0	0	559	479	0	532	0	0	
3	0	0	0	0	556	494	0	531	0	0	
4	0	0	0	0	552	508	0	527	0	0	
5	0	0	0	0	547	520	0	519	0	0	
6	0	0	0	0	541	528	0	508	0	0	
7	0	0	0	0	534	531	0	496	0	0	
8	0	0	0	0	528	529	0	484	0	0	
9	0	0	0	0	523	522	0	472	0	0	
10	0	0	0	0	519	511	0	462	0	0	
11	0	0	0	0	516	497	0	455	0	0	
12	0	0	0	0	515	481	0	451	0	0	
13	0	0	0	0	516	465	0	451	0	0	
14	0	0	0	0	520	449	0	454	0	0	
15	0	0	0	0	524	437	0	462	0	0	
0	0	0	0	0	530	428	0	472	0	0	
1	0	0	0	0	536	424	0	483	0	0	
2	0	0	0	0	541	425	0	495	0	0	
3	0	0	0	0	545	431	0	506	0	0	
4	0	0	0	0	548	441	0	516	0	0	
5	0	0	0	0	550	455	0	523	0	0	
6	0	0	0	0	549	470	0	527	0	0	
7	0	0	0	0	547	485	0	527	0	0	
8	0	0	0	0	543	500	0	523	0	0	
9	0	0	0	0	538	512	0	515	0	0	
10	0	0	0	0	532	520	0	505	0	0	
11	0	0	0	0	526	524	0	494	0	0	
12	0	0	0	0	520	522	0	480	0	0	
13	0	0	0	0	516	515	0	469	0	0	
14	0	0	0	0	512	504	0	459	0	0	
15	0	0	0	0	510	490	0	451	0	0	
0	0	0	0	0	510	473	0	447	0	0	
1	0	0	0	0	510	457	0	446	0	0	
2	0	0	0	0	514	442	0	450	0	0	
3	0	0	0	0	519	431	0	456	0	0	
4	0	0	0	0	524	422	0	466	0	0	
5	0	0	0	0	529	419	0	477	0	0	
6	0	0	0	0	535	420	0	488	0	0	
7	0	0	0	0	540	427	0	500	0	0	
8	0	0	0	0	543	438	0	510	0	0	
9	0	0	0	0	546	452	0	517	0	0	
10	0	0	0	0	546	468	0	521	0	0	
11	0	0	0	0	545	484	0	522	0	0	
12	0	0	0	0	543	499	0	519	0	0	
13	0	0	0	0	539	512	0	513	0	0	
14	0	0	0	0	534	520	0	504	0	0	
15	0	0	0	0	528	523	0	492	0	0	
0	0	0	0	0	523	521	0	480	0	0	
1	0	0	0	0	519	515	0	468	0	0	
2	0	0	0	0	515	503	0	457	0	0	
3	0	0	0	0	512	488	0	448	0	0	
4	0	0	0	0	510	472	0	444	0	0	
5	0	0	0	0	510	455	0	442	0	0	
6	0	0	0	0	512	439	0	444	0	0	
7	0	0	0	0	515	425	0	449	0	0	
8	0	0	0	0	519	416	0	458	0	0	
9	0	0	0	0	523	412	0	468	0	0	
10	0	0	0	0	527	412	0	479	0	0	
11	0	0	0	0	531	419	0	490	0	0	
12	0	0	0	0	535	429	0	500	0	0	
13	0	0	0	0	537	444	0	508	0	0	
14	0	0	0	0	538	461	0	514	0	0	
15	0	0	0	0	538	478	0	516	0	0	
0	0	0	0	0	537	496	0	515	0	0	
1	0	0	0	0	535	511	0	511	0	0	
2	0	0	0	0	533	522	0	504	0	0	
3	0	0	0	0	530	529	0	496	0	0	
4	0	0	0	0	528	531	0	486	0	0	
5	0	0	0	0	527	527	0	477	0	0	
6	0	0	0	0	525	518	0	469	0	0	
7	0	0	0	0	524	505	0	463	0	0	
8	0	0	0	0	524	490	0	458	0	0	
9	0	0	0	0	524	472	0	456	0	0	
10	0	0	0	0	526	456	0	457	0	0	
11	0	0	0	0	527	441	0	461	0	0	
12	0	0	0	0	530	430	0	468	0	0	
13	0	0	0	0	532	423	0	476	0	0	
14	0	0	0	0	533	422	0	486	0	0	
15	0	0	0	0	535	425	0	495	0	0	
0	0	0	0	0	537	435	0	503	0	0	
1	0	0	0	0	538	448	0	510	0	0	
2	0	0	0	0	539	463	0	514	0	0	
3	0	0	0	0	539	480	0	515	0	0	
4	0	0	0	0	538	497	0	514	0	0	
5	0	0	0	0	536	511	0	510	0	0	
6	0	0	0	0	535	523	0	504	0	0	
7	0	0	0	0	533	530	0	496	0	0	
8	0	0	0	0	532	531	0	487	0	0	
9	0	0	0	0	531	528	0	480	0	0	
10	0	0	0	0	530	519	0	472	0	0	
11	0	0	0	0	529	507	0	467	0	0	
12	0	0	0	0	531	492	0	464	0	0	
13	0	0	0	0	532	476	0	464	0	0	
14	0	0	0	0	534	461	0	467	0	0	
15	0	0	0	0	536	447	0	473	0	0	
0	0	0	0	0	540	438	0	481	0	0	
1	0	0	0	0	542	432	0	491	0	0	
2	0	0	0	0	544	432	0	500	0	0	
3	0	0	0	0	547	436	0	510	0	0	
4	0	0	0	0	547	445	0	518	0	0	
5	0	0	0	0	548	458	0	523	0	0	
6	0	0	0	0	547	473	0	526	0	0	
7	0	0	0	0	544	488	0	526	0	0	
8	0	0	0	0	541	503	0	521	0	0	
9	0	0	0	0	536	515	0	515	0	0	
10	0	0	0	0	532	525	0	505	0	0	
11	0	0	0	0	527	529	0	495	0	0	
12	0	0	0	0	523	529	0	483	0	0	
13	0	0	0	0	521	524	0	473	0	0	
14	0	0	0	0	519	515	0	465	0	0	
15	0	0	0	0	519	502	0	459	0	0	
0	0	0	0	0	520	487	0	456	0	0	
1	0	0	0	0	522	472	0	457	0	0	
2	0	0	0	0	526	458	0	461	0	0	
3	0	0	0	0	529	446	0	468	0	0	
4	0	0	0	0	534	437	0	477	0	0	
5	0	0	0	0	538	432	0	487	0	0	
6	0	0	0	0	541	432	0	496	0	0	
7	0	0	0	0	543	436	0	506	0	0	
8	0	0	0	0	545	445	0	514	0	0	
9	0	0	0	0	545	457	0	519	0	0	
10	0	0	0	0	543	471	0	521	0	0	
11	0	0	0	0	542	486	0	520	0	0	
12	0	0	0	0	538	501	0	515	0	0	
13	0	0	0	0	534	513	0	508	0	0	
14	0	0	0	0	530	522	0	497	0	0	
15	0	0	0	0	526	526	0	486	0	0	
0	0	0	0	0	523	526	0	475	0	0	
1	0	0	0	0	520	521	0	464	0	0	
2	0	0	0	0	519	512	0	455	0	0	
3	0	0	0	0	518	499	0	449	0	0	
4	0	0	0	0	519	485	0	447	0	0	
5	0	0	0	0	522	470	0	448	0	0	
6	0	0	0	0	526	455	0	452	0	0	
7	0	0	0	0	530	444	0	460	0	0	
8	0	0	0	0	536	436	0	470	0	0	
9	0	0	0	0	540	432	0	482	0	0	
10	0	0	0	0	545	433	0	494	0	0	
11	0	0	0	0	549	439	0	505	0	0	
12	0	0	0	0	552	449	0	515	0	0	
13	0	0	0	0	553	463	0	522	0	0	
14	0	0	0	0	553	478	0	526	0	0	
15	0	0	0	0	551	495	0	526	0	0	
0	0	0	0	0	547	510	0	523	0	0	
1	0	0	0	0	542	522	0	515	0	0	
2	0	0	0	0	536	530	0	505	0	0	
3	0	0	0	0	530	533	0	492	0	0	
4	0	0	0	0	525	531	0	480	0	0	
5	0	0	0	0	519	523	0	467	0	0	
6	0	0	0	0	515	511	0	455	0	0	
7	0	0	0	0	512	495	0	447	0	0	
8	0	0	0	0	510	477	0	441	0	0	
9	0	0	0	0	511	459	0	439	0	0	
10	0	0	0	0	513	441	0	440	0	0	
11	0	0	0	0	516	428	0	446	0	0	
12	0	0	0	0	521	417	0	454	0	0	
13	0	0	0	0	526	413	0	465	0	0	
14	0	0	0	0	532	414	0	476	0	0	
15	0	0	0	0	537	420	0	489	0	0	
0	0	0	0	0	542	432	0	500	0	0	
1	0	0	0	0	545	447	0	509	0	0	
2	0	0	0	0	546	465	0	515	0	0	
3	0	0	0	0	547	483	0	518	0	0	
4	0	0	0	0	545	501	0	516	0	0	
5	0	0	0	0	542	516	0	511	0	0	
6	0	0	0	0	537	527	0	504	0	0	
7	0	0	0	0	532	533	0	494	0	0	
8	0	0	0	0	528	533	0	483	0	0	
9	0	0	0	0	525	528	0	472	0	0	
10	0	0	0	0	521	518	0	463	0	0	
11	0	0	0	0	519	504	0	455	0	0	
12	0	0	0	0	519	488	0	451	0	0	
13	0	0	0	0	520	471	0	449	0	0	
14	0	0	0	0	522	454	0	451	0	0	
15	0	0	0	0	526	440	0	457	0	0	
0	0	0	0	0	529	430	0	465	0	0	
1	0	0	0	0	534	423	0	476	0	0	
2	0	0	0	0	538	423	0	486	0	0	
3	0	0	0	0	541	427	0	496	0	0	
4	0	0	0	0	543	435	0	505	0	0	
5	0	0	0	0	544	448	0	512	0	0	
6	0	0	0	0	543	463	0	515	0	0	
7	0	0	0	0	541	478	0	516	0	0	
8	0	0	0	0	537	494	0	512	0	0	
9	0	0	0	0	532	507	0	506	0	0	
10	0	0	0	0	527	516	0	497	0	0	
11	0	0	0	0	521	522	0	487	0	0	
12	0	0	0	0	518	522	0	476	0	0	
13	0	0	0	0	514	517	0	465	0	0	
14	0	0	0	0	511	508	0	456	0	0	
15	0	0	0	0	510	496	0	449	0	0	
0	0	0	0	0	511	480	0	445	0	0	
1	0	0	0	0	513	465	0	444	0	0	
2	0	0	0	0	517	451	0	448	0	0	
3	0	0	0	0	522	439	0	454	0	0	
4	0	0	0	0	528	430	0	463	0	0	
5	0	0	0	0	534	427	0	475	0	0	
6	0	0	0	0	540	428	0	487	0	0	
7	0	0	0	0	544	434	0	498	0	0	
8	0	0	0	0	548	445	0	508	0	0	
9	0	0	0	0	551	459	0	515	0	0	
10	0	0	0	0	551	475	0	520	0	0	
11	0	0	0	0	550	491	0	521	0	0	
12	0	0	0	0	547	507	0	518	0	0	
13	0	0	0	0	542	519	0	512	0	0	
14	0	0	0	0	537	528	0	503	0	0	
15	0	0	0	0	532	533	0	493	0	0	
0	0	0	0	0	528	532	0	482	0	0	
1	0	0	0	0	524	527	0	472	0	0	
2	0	0	0	0	522	518	0	463	0	0	
3	0	0	0	0	521	504	0	455	0	0	
4	0	0	0	0	521	489	0	452	0	0	
5	0	0	0	0	523	473	0	451	0	0	
6	0	0	0	0	526	458	0	454	0	0	
7	0	0	0	0	530	446	0	459	0	0	
8	0	0	0	0	535	437	0	468	0	0	
9	0	0	0	0	539	432	0	478	0	0	
10	0	0	0	0	543	432	0	488	0	0	
11	0	0	0	0	547	437	0	498	0	0	
12	0	0	0	0	548	446	0	507	0	0	
13	0	0	0	0	549	459	0	513	0	0	
14	0	0	0	0	547	473	0	516	0	0	
15	0	0	0	0	545	488	0	516	0	0	
0	0	0	0	0	541	502	0	512	0	0	
1	0	0	0	0	537	515	0	505	0	0	
2	0	0	0	0	532	523	0	496	0	0	
3	0	0	0	0	527	528	0	486	0	0	
4	0	0	0	0	524	528	0	475	0	0	
5	0	0	0	0	521	522	0	464	0	0	
6	0	0	0	0	519	513	0	455	0	0	
7	0	0	0	0	518	499	0	448	0	0	
8	0	0	0	0	519	484	0	444	0	0	
9	0	0	0	0	520	468	0	444	0	0	
10	0	0	0	0	524	453	0	447	0	0	
11	0	0	0	0	528	440	0	453	0	0	
12	0	0	0	0	532	430	0	460	0	0	
13	0	0	0	0	535	425	0	470	0	0	
14	0	0	0	0	539	425	0	481	0	0	
15	0	0	0	0	542	430	0	491	0	0	
0	0	0	0	0	544	440	0	500	0	0	
1	0	0	0	0	545	453	0	507	0	0	
2	0	0	0	0	544	469	0	512	0	0	
3	0	0	0	0	543	486	0	513	0	0	
4	0	0	0	0	541	502	0	511	0	0	
5	0	0	0	0	538	516	0	506	0	0	
6	0	0	0	0	534	525	0	498	0	0	
7	0	0	0	0	529	531	0	488	0	0	
8	0	0	0	0	526	531	0	478	0	0	
9	0	0	0	0	524	526	0	468	0	0	
10	0	0	0	0	522	516	0	460	0	0	
11	0	0	0	0	521	503	0	452	0	0	
12	0	0	0	0	521	488	0	448	0	0	
13	0	0	0	0	523	473	0	447	0	0	
14	0	0	0	0	527	457	0	449	0	0	
15	0	0	0	0	530	445	0	455	0	0	
0	0	0	0	0	534	435	0	463	0	0	
1	0	0	0	0	537	430	0	472	0	0	
2	0	0	0	0	540	430	0	481	0	0	
3	0	0	0	0	542	433	0	489	0	0	
4	0	0	0	0	542	440	0	496	0	0	
5	0	0	0	0	539	450	0	499	0	0	
6	0	0	0	0	534	462	0	499	0	0	
7	0	0	0	0	527	473	0	495	0	0	
8	0	0	0	0	519	481	0	486	0	0	
9	0	0	0	0	508	487	0	472	0	0	
10	0	0	0	0	495	487	0	455	0	0	
11	0	0	0	0	481	483	0	436	0	0	
12	0	0	0	0	467	473	0	414	0	0	
13	0	0	0	0	453	456	0	393	0	0	
14	0	0	0	0	439	436	0	373	0	0	
15	0	0	0	0	425	412	0	355	0	0	
0	0	0	0	0	413	384	0	339	0	0	
1	0	0	0	0	402	357	0	327	0	0	
2	0	0	0	0	393	330	0	318	0	0	
3	0	0	0	0	384	305	0	312	0	0	
4	0	0	0	0	377	284	0	310	0	0	
5	0	0	0	0	369	268	0	308	0	0	
6	0	0	0	0	361	256	0	309	0	0	
7	0	0	0	0	354	249	0	309	0	0	
8	0	0	0	0	345	247	0	308	0	0	
9	0	0	0	0	335	248	0	305	0	0	
10	0	0	0	0	324	253	0	299	0	0	
11	0	0	0	0	313	260	0	290	0	0	
12	0	0	0	0	302	268	0	280	0	0	
13	0	0	0	0	291	276	0	268	0	0	
14	0	0	0	0	283	282	0	255	0	0	
15	0	0	0	0	278	287	0	243	0	0	
0	0	0	0	0	277	289	0	233	0	0	
1	0	0	0	0	280	291	0	228	0	0	
2	0	0	0	0	288	290	0	227	0	0	
3	0	0	0	0	300	289	0	232	0	0	
4	0	0	0	0	318	289	0	243	0	0	
5	0	0	0	0	340	290	0	261	0	0	
6	0	0	0	0	367	294	0	284	0	0	
7	0	0	0	0	396	302	0	313	0	0	
8	0	0	0	0	426	315	0	347	0	0	
9	0	0	0	0	456	332	0	383	0	0	
10	0	0	0	0	485	354	0	419	0	0	
11	0	0	0	0	513	381	0	454	0	0	
12	0	0	0	0	536	411	0	486	0	0	
13	0	0	0	0	555	443	0	512	0	0	
14	0	0	0	0	569	474	0	532	0	0	
15	0	0	0	0	577	504	0	545	0	0	
0	0	0	0	0	581	530	0	551	0	0	
1	0	0	0	0	580	551	0	550	0	0	
2	0	0	0	0	574	564	0	542	0	0	
3	0	0	0	0	566	570	0	529	0	0	
4	0	0	0	0	556	568	0	512	0	0	
5	0	0	0	0	546	559	0	495	0	0	
6	0	0	0	0	536	544	0	477	0	0	
7	0	0	0	0	526	524	0	462	0	0	
8	0	0	0	0	519	501	0	449	0	0	
9	0	0	0	0	513	478	0	440	0	0	
10	0	0	0	0	512	456	0	437	0	0	
11	0	0	0	0	513	438	0	438	0	0	
12	0	0	0	0	516	424	0	444	0	0	
13	0	0	0	0	521	416	0	453	0	0	
14	0	0	0	0	526	415	0	465	0	0	
15	0	0	0	0	532	420	0	478	0	0	
0	0	0	0	0	539	432	0	490	0	0	
1	0	0	0	0	543	447	0	501	0	0	
2	0	0	0	0	547	466	0	510	0	0	
3	0	0	0	0	549	486	0	515	0	0	
4	0	0	0	0	551	505	0	517	0	0	
5	0	0	0	0	550	523	0	515	0	0	
6	0	0	0	0	548	536	0	510	0	0	
7	0	0	0	0	545	543	0	503	0	0	
8	0	0	0	0	543	546	0	494	0	0	
9	0	0	0	0	541	543	0	485	0	0	
10	0	0	0	0	539	534	0	477	0	0	
11	0	0	0	0	537	522	0	470	0	0	
12	0	0	0	0	537	506	0	466	0	0	
13	0	0	0	0	538	489	0	465	0	0	
14	0	0	0	0	540	473	0	467	0	0	
15	0	0	0	0	543	459	0	472	0	0	
0	0	0	0	0	546	449	0	480	0	0	
1	0	0	0	0	549	444	0	491	0	0	
2	0	0	0	0	551	444	0	500	0	0	
3	0	0	0	0	554	448	0	510	0	0	
4	0	0	0	0	556	457	0	519	0	0	
5	0	0	0	0	556	470	0	525	0	0	
6	0	0	0	0	554	485	0	528	0	0	
7	0	0	0	0	552	500	0	528	0	0	
8	0	0	0	0	548	515	0	524	0	0	
9	0	0	0	0	544	528	0	517	0	0	
10	0	0	0	0	540	537	0	507	0	0	
11	0	0	0	0	535	542	0	496	0	0	
12	0	0	0	0	531	541	0	483	0	0	
13	0	0	0	0	528	536	0	472	0	0	
14	0	0	0	0	525	526	0	462	0	0	
15	0	0	0	0	524	512	0	454	0	0	
0	0	0	0	0	523	496	0	449	0	0	
1	0	0	0	0	523	479	0	448	0	0	
2	0	0	0	0	526	463	0	450	0	0	
3	0	0	0	0	528	450	0	456	0	0	
4	0	0	0	0	531	440	0	465	0	0	
5	0	0	0	0	535	435	0	475	0	0	
6	0	0	0	0	538	435	0	487	0	0	
7	0	0	0	0	543	441	0	499	0	0	
8	0	0	0	0	546	452	0	510	0	0	
9	0	0	0	0	548	466	0	519	0	0	
10	0	0	0	0	550	483	0	524	0	0	
11	0	0	0	0	551	502	0	527	0	0	
12	0	0	0	0	551	519	0	526	0	0	
13	0	0	0	0	549	534	0	521	0	0	
14	0	0	0	0	547	544	0	514	0	0	
15	0	0	0	0	544	550	0	504	0	0	
0	0	0	0	0	542	549	0	494	0	0	
1	0	0	0	0	540	544	0	483	0	0	
2	0	0	0	0	538	534	0	473	0	0	
3	0	0	0	0	536	519	0	466	0	0	
4	0	0	0	0	536	502	0	462	0	0	
5	0	0	0	0	536	485	0	459	0	0	
6	0	0	0	0	538	468	0	462	0	0	
7	0	0	0	0	540	454	0	467	0	0	
8	0	0	0	0	543	444	0	475	0	0	
9	0	0	0	0	545	438	0	484	0	0	
10	0	0	0	0	547	438	0	495	0	0	
11	0	0	0	0	549	443	0	505	0	0	
12	0	0	0	0	550	452	0	513	0	0	
13	0	0	0	0	549	465	0	519	0	0	
14	0	0	0	0	547	480	0	522	0	0	
15	0	0	0	0	544	496	0	522	0	0	
0	0	0	0	0	541	510	0	518	0	0	
1	0	0	0	0	536	522	0	511	0	0	
2	0	0	0	0	531	530	0	500	0	0	
3	0	0	0	0	527	534	0	489	0	0	
4	0	0	0	0	522	532	0	476	0	0	
5	0	0	0	0	520	526	0	465	0	0	
6	0	0	0	0	518	515	0	455	0	0	
7	0	0	0	0	518	502	0	449	0	0	
8	0	0	0	0	518	486	0	445	0	0	
9	0	0	0	0	521	470	0	445	0	0	
10	0	0	0	0	525	456	0	449	0	0	
11	0	0	0	0	530	444	0	457	0	0	
12	0	0	0	0	535	435	0	467	0	0	
13	0	0	0	0	540	432	0	479	0	0	
14	0	0	0	0	544	433	0	491	0	0	
15	0	0	0	0	548	439	0	504	0	0	
0	0	0	0	0	551	449	0	514	0	0	
1	0	0	0	0	552	463	0	522	0	0	
2	0	0	0	0	553	480	0	527	0	0	
3	0	0	0	0	551	496	0	527	0	0	
4	0	0	0	0	549	512	0	525	0	0	
5	0	0	0	0	545	525	0	519	0	0	
6	0	0	0	0	540	535	0	510	0	0	
7	0	0	0	0	536	539	0	498	0	0	
8	0	0	0	0	531	539	0	486	0	0	
9	0	0	0	0	528	533	0	474	0	0	
10	0	0	0	0	525	523	0	464	0	0	
11	0	0	0	0	523	508	0	456	0	0	
12	0	0	0	0	523	492	0	451	0	0	
13	0	0	0	0	523	476	0	450	0	0	
14	0	0	0	0	526	459	0	452	0	0	
15	0	0	0	0	528	445	0	458	0	0	
0	0	0	0	0	531	435	0	466	0	0	
1	0	0	0	0	534	429	0	476	0	0	
2	0	0	0	0	537	428	0	487	0	0	
3	0	0	0	0	539	432	0	496	0	0	
4	0	0	0	0	540	441	0	504	0	0	
5	0	0	0	0	540	453	0	511	0	0	
6	0	0	0	0	539	467	0	514	0	0	
7	0	0	0	0	536	483	0	513	0	0	
8	0	0	0	0	533	498	0	509	0	0	
9	0	0	0	0	529	511	0	502	0	0	
10	0	0	0	0	525	520	0	492	0	0	
11	0	0	0	0	521	525	0	481	0	0	
12	0	0	0	0	518	525	0	470	0	0	
13	0	0	0	0	515	519	0	459	0	0	
14	0	0	0	0	513	510	0	449	0	0	
15	0	0	0	0	512	496	0	443	0	0	
0	0	0	0	0	512	481	0	439	0	0	
1	0	0	0	0	515	466	0	439	0	0	
2	0	0	0	0	519	450	0	442	0	0	
3	0	0	0	0	523	438	0	449	0	0	
4	0	0	0	0	527	429	0	459	0	0	
5	0	0	0	0	532	424	0	471	0	0	
6	0	0	0	0	536	425	0	483	0	0	
7	0	0	0	0	540	431	0	495	0	0	
8	0	0	0	0	543	441	0	505	0	0	
9	0	0	0	0	544	455	0	512	0	0	
10	0	0	0	0	544	472	0	516	0	0	
11	0	0	0	0	542	488	0	516	0	0	
12	0	0	0	0	539	504	0	513	0	0	
13	0	0	0	0	534	516	0	506	0	0	
14	0	0	0	0	528	525	0	496	0	0	
15	0	0	0	0	523	529	0	483	0	0	
0	0	0	0	0	518	528	0	471	0	0	
1	0	0	0	0	513	522	0	459	0	0	
2	0	0	0	0	510	512	0	449	0	0	
3	0	0	0	0	509	498	0	441	0	0	
4	0	0	0	0	509	483	0	437	0	0	
5	0	0	0	0	511	466	0	436	0	0	
6	0	0	0	0	515	451	0	439	0	0	
7	0	0	0	0	519	439	0	446	0	0	
8	0	0	0	0	525	430	0	455	0	0	
9	0	0	0	0	531	426	0	467	0	0	
10	0	0	0	0	536	427	0	478	0	0	
11	0	0	0	0	541	432	0	490	0	0	
12	0	0	0	0	544	443	0	500	0	0	
13	0	0	0	0	546	456	0	508	0	0	
14	0	0	0	0	547	472	0	512	0	0	
15	0	0	0	0	544	489	0	513	0	0	
0	0	0	0	0	542	504	0	511	0	0	
1	0	0	0	0	538	517	0	504	0	0	
2	0	0	0	0	533	526	0	495	0	0	
3	0	0	0	0	527	530	0	483	0	0	
4	0	0	0	0	521	529	0	471	0	0	
5	0	0	0	0	518	523	0	459	0	0	
6	0	0	0	0	514	511	0	448	0	0	
7	0	0	0	0	511	497	0	440	0	0	
8	0	0	0	0	511	481	0	435	0	0	
9	0	0	0	0	511	464	0	433	0	0	
10	0	0	0	0	515	448	0	436	0	0	
11	0	0	0	0	519	435	0	443	0	0	
12	0	0	0	0	524	427	0	452	0	0	
13	0	0	0	0	529	423	0	464	0	0	
14	0	0	0	0	535	425	0	477	0	0	
15	0	0	0	0	539	432	0	489	0	0	
0	0	0	0	0	543	443	0	500	0	0	
1	0	0	0	0	545	457	0	509	0	0	
2	0	0	0	0	545	473	0	515	0	0	
3	0	0	0	0	544	491	0	516	0	0	
4	0	0	0	0	541	506	0	513	0	0	
5	0	0	0	0	537	519	0	507	0	0	
6	0	0	0	0	532	527	0	498	0	0	
7	0	0	0	0	526	531	0	487	0	0	
8	0	0	0	0	521	530	0	475	0	0	
9	0	0	0	0	517	523	0	463	0	0	
10	0	0	0	0	514	512	0	453	0	0	
11	0	0	0	0	512	499	0	446	0	0	
12	0	0	0	0	512	482	0	441	0	0	
13	0	0	0	0	514	465	0	440	0	0	
14	0	0	0	0	517	449	0	444	0	0	
15	0	0	0	0	521	436	0	450	0	0	
0	0	0	0	0	526	427	0	459	0	0	
1	0	0	0	0	531	423	0	471	0	0	
2	0	0	0	0	537	423	0	483	0	0	
3	0	0	0	0	541	429	0	494	0	0	
4	0	0	0	0	544	440	0	504	0	0	
5	0	0	0	0	547	453	0	511	0	0	
6	0	0	0	0	547	468	0	515	0	0	
7	0	0	0	0	546	484	0	515	0	0	
8	0	0	0	0	543	499	0	511	0	0	
9	0	0	0	0	538	512	0	504	0	0	
10	0	0	0	0	533	520	0	494	0	0	
11	0	0	0	0	527	524	0	482	0	0	
12	0	0	0	0	522	522	0	470	0	0	
13	0	0	0	0	518	516	0	458	0	0	
14	0	0	0	0	513	505	0	448	0	0	
15	0	0	0	0	511	491	0	440	0	0	
0	0	0	0	0	510	475	0	436	0	0	
1	0	0	0	0	511	459	0	436	0	0	
2	0	0	0	0	513	443	0	440	0	0	
3	0	0	0	0	518	431	0	447	0	0	
4	0	0	0	0	522	422	0	457	0	0	
5	0	0	0	0	527	418	0	469	0	0	
6	0	0	0	0	533	419	0	481	0	0	
7	0	0	0	0	537	426	0	493	0	0	
8	0	0	0	0	541	437	0	503	0	0	
9	0	0	0	0	544	451	0	511	0	0	
10	0	0	0	0	544	468	0	515	0	0	
11	0	0	0	0	544	485	0	516	0	0	
12	0	0	0	0	542	502	0	512	0	0	
13	0	0	0	0	538	515	0	505	0	0	
14	0	0	0	0	534	525	0	496	0	0	
15	0	0	0	0	528	529	0	484	0	0	
0	0	0	0	0	524	529	0	472	0	0	
1	0	0	0	0	520	523	0	461	0	0	
2	0	0	0	0	518	513	0	451	0	0	
3	0	0	0	0	515	499	0	443	0	0	
4	0	0	0	0	515	483	0	439	0	0	
5	0	0	0	0	516	466	0	438	0	0	
6	0	0	0	0	519	450	0	441	0	0	
7	0	0	0	0	524	438	0	448	0	0	
8	0	0	0	0	529	428	0	458	0	0	
9	0	0	0	0	534	424	0	470	0	0	
10	0	0	0	0	539	425	0	482	0	0	
11	0	0	0	0	543	432	0	494	0	0	
12	0	0	0	0	547	442	0	504	0	0	
13	0	0	0	0	548	455	0	512	0	0	
14	0	0	0	0	548	471	0	516	0	0	
15	0	0	0	0	546	487	0	517	0	0	
0	0	0	0	0	543	503	0	513	0	0	
1	0	0	0	0	537	515	0	506	0	0	
2	0	0	0	0	531	524	0	496	0	0	
3	0	0	0	0	525	527	0	484	0	0	
4	0	0	0	0	519	526	0	472	0	0	
5	0	0	0	0	515	520	0	460	0	0	
6	0	0	0	0	511	509	0	450	0	0	
7	0	0	0	0	509	495	0	442	0	0	
8	0	0	0	0	508	479	0	438	0	0	
9	0	0	0	0	510	462	0	436	0	0	
10	0	0	0	0	512	447	0	439	0	0	
11	0	0	0	0	516	433	0	445	0	0	
12	0	0	0	0	520	424	0	454	0	0	
13	0	0	0	0	526	419	0	465	0	0	
14	0	0	0	0	531	420	0	477	0	0	
15	0	0	0	0	536	426	0	488	0	0	
0	0	0	0	0	540	437	0	499	0	0	
1	0	0	0	0	543	451	0	507	0	0	
2	0	0	0	0	543	468	0	512	0	0	
3	0	0	0	0	543	485	0	513	0	0	
4	0	0	0	0	541	501	0	511	0	0	
5	0	0	0	0	538	515	0	505	0	0	
6	0	0	0	0	534	524	0	496	0	0	
7	0	0	0	0	529	529	0	485	0	0	
8	0	0	0	0	525	529	0	473	0	0	
9	0	0	0	0	521	523	0	462	0	0	
10	0	0	0	0	518	513	0	452	0	0	
11	0	0	0	0	516	500	0	445	0	0	
12	0	0	0	0	517	484	0	440	0	0	
13	0	0	0	0	519	468	0	439	0	0	
14	0	0	0	0	522	454	0	442	0	0	
15	0	0	0	0	526	440	0	448	0	0	
0	0	0	0	0	531	432	0	457	0	0	
1	0	0	0	0	537	427	0	468	0	0	
2	0	0	0	0	541	428	0	478	0	0	
3	0	0	0	0	545	433	0	489	0	0	
4	0	0	0	0	548	443	0	499	0	0	
5	0	0	0	0	550	456	0	507	0	0	
6	0	0	0	0	550	472	0	511	0	0	
7	0	0	0	0	547	489	0	512	0	0	
8	0	0	0	0	545	505	0	510	0	0	
9	0	0	0	0	541	519	0	504	0	0	
10	0	0	0	0	537	528	0	497	0	0	
11	0	0	0	0	532	534	0	488	0	0	
12	0	0	0	0	529	535	0	478	0	0	
13	0	0	0	0	527	531	0	469	0	0	
14	0	0	0	0	526	522	0	462	0	0	
15	0	0	0	0	526	511	0	457	0	0	
0	0	0	0	0	527	496	0	455	0	0	
1	0	0	0	0	530	482	0	455	0	0	
2	0	0	0	0	535	467	0	459	0	0	
3	0	0	0	0	540	455	0	466	0	0	
4	0	0	0	0	545	446	0	475	0	0	
5	0	0	0	0	550	441	0	485	0	0	
6	0	0	0	0	554	441	0	495	0	0	
7	0	0	0	0	557	446	0	505	0	0	
8	0	0	0	0	559	455	0	512	0	0	
9	0	0	0	0	560	468	0	518	0	0	
10	0	0	0	0	559	482	0	521	0	0	
11	0	0	0	0	556	497	0	520	0	0	
12	0	0	0	0	552	511	0	516	0	0	
13	0	0	0	0	546	523	0	508	0	0	
14	0	0	0	0	541	531	0	499	0	0	
15	0	0	0	0	536	535	0	487	0	0	
0	0	0	0	0	530	533	0	475	0	0	
1	0	0	0	0	526	527	0	464	0	0	
2	0	0	0	0	522	516	0	454	0	0	
3	0	0	0	0	519	502	0	446	0	0	
4	0	0	0	0	519	486	0	442	0	0	
5	0	0	0	0	519	469	0	440	0	0	
6	0	0	0	0	522	454	0	443	0	0	
7	0	0	0	0	525	440	0	449	0	0	
8	0	0	0	0	529	431	0	457	0	0	
9	0	0	0	0	533	425	0	467	0	0	
10	0	0	0	0	536	426	0	478	0	0	
11	0	0	0	0	540	431	0	489	0	0	
12	0	0	0	0	542	441	0	498	0	0	
13	0	0	0	0	542	454	0	505	0	0	
14	0	0	0	0	541	469	0	508	0	0	
15	0	0	0	0	540	485	0	509	0	0	
0	0	0	0	0	536	500	0	506	0	0	
1	0	0	0	0	532	512	0	499	0	0	
2	0	0	0	0	527	521	0	491	0	0	
3	0	0	0	0	523	525	0	480	0	0	
4	0	0	0	0	518	524	0	468	0	0	
5	0	0	0	0	515	519	0	458	0	0	
6	0	0	0	0	513	508	0	449	0	0	
7	0	0	0	0	512	495	0	442	0	0	
8	0	0	0	0	512	480	0	438	0	0	
9	0	0	0	0	515	464	0	438	0	0	
10	0	0	0	0	519	449	0	441	0	0	
11	0	0	0	0	523	437	0	448	0	0	
12	0	0	0	0	528	428	0	457	0	0	
13	0	0	0	0	534	424	0	467	0	0	
14	0	0	0	0	539	426	0	480	0	0	
15	0	0	0	0	543	432	0	491	0	0	
0	0	0	0	0	546	442	0	502	0	0	
1	0	0	0	0	548	456	0	509	0	0	
2	0	0	0	0	549	473	0	514	0	0	
3	0	0	0	0	547	489	0	515	0	0	
4	0	0	0	0	546	505	0	513	0	0	
5	0	0	0	0	542	519	0	508	0	0	
6	0	0	0	0	538	528	0	499	0	0	
7	0	0	0	0	534	533	0	489	0	0	
8	0	0	0	0	530	532	0	478	0	0	
9	0	0	0	0	526	527	0	467	0	0	
10	0	0	0	0	523	516	0	457	0	0	
11	0	0	0	0	521	502	0	449	0	0	
12	0	0	0	0	520	486	0	444	0	0	
13	0	0	0	0	521	469	0	441	0	0	
14	0	0	0	0	524	453	0	443	0	0	
15	0	0	0	0	526	439	0	448	0	0	
0	0	0	0	0	530	429	0	455	0	0	
1	0	0	0	0	534	423	0	464	0	0	
2	0	0	0	0	537	423	0	475	0	0	
3	0	0	0	0	541	429	0	485	0	0	
4	0	0	0	0	543	439	0	494	0	0	
5	0	0	0	0	545	452	0	501	0	0	
6	0	0	0	0	545	468	0	506	0	0	
7	0	0	0	0	543	485	0	507	0	0	
8	0	0	0	0	541	500	0	505	0	0	
9	0	0	0	0	537	514	0	500	0	0	
10	0	0	0	0	534	524	0	492	0	0	
11	0	0	0	0	530	529	0	483	0	0	
12	0	0	0	0	527	529	0	472	0	0	
13	0	0	0	0	524	524	0	462	0	0	
14	0	0	0	0	523	515	0	454	0	0	
15	0	0	0	0	523	502	0	447	0	0	
0	0	0	0	0	524	487	0	443	0	0	
1	0	0	0	0	526	472	0	441	0	0	
2	0	0	0	0	530	457	0	444	0	0	
3	0	0	0	0	535	445	0	450	0	0	
4	0	0	0	0	539	437	0	458	0	0	
5	0	0	0	0	544	432	0	468	0	0	
6	0	0	0	0	547	432	0	478	0	0	
7	0	0	0	0	551	438	0	489	0	0	
8	0	0	0	0	553	447	0	498	0	0	
9	0	0	0	0	554	460	0	505	0	0	
10	0	0	0	0	553	475	0	510	0	0	
11	0	0	0	0	551	491	0	510	0	0	
12	0	0	0	0	549	506	0	508	0	0	
13	0	0	0	0	545	519	0	503	0	0	
14	0	0	0	0	541	529	0	495	0	0	
15	0	0	0	0	537	534	0	484	0	0	
0	0	0	0	0	534	535	0	474	0	0	
1	0	0	0	0	532	530	0	464	0	0	
2	0	0	0	0	529	521	0	456	0	0	
3	0	0	0	0	528	508	0	449	0	0	
4	0	0	0	0	528	492	0	444	0	0	
5	0	0	0	0	528	476	0	443	0	0	
6	0	0	0	0	530	459	0	445	0	0	
7	0	0	0	0	532	445	0	450	0	0	
8	0	0	0	0	535	434	0	458	0	0	
9	0	0	0	0	536	428	0	467	0	0	
10	0	0	0	0	540	427	0	478	0	0	
11	0	0	0	0	543	431	0	487	0	0	
12	0	0	0	0	544	440	0	496	0	0	
13	0	0	0	0	544	451	0	502	0	0	
14	0	0	0	0	543	466	0	506	0	0	
15	0	0	0	0	542	482	0	506	0	0	
0	0	0	0	0	539	497	0	502	0	0	
1	0	0	0	0	535	509	0	496	0	0	
2	0	0	0	0	531	519	0	487	0	0	
3	0	0	0	0	527	523	0	476	0	0	
4	0	0	0	0	522	523	0	465	0	0	
5	0	0	0	0	520	518	0	455	0	0	
6	0	0	0	0	518	508	0	447	0	0	
7	0	0	0	0	517	496	0	440	0	0	
8	0	0	0	0	516	481	0	437	0	0	
9	0	0	0	0	519	465	0	437	0	0	
10	0	0	0	0	523	451	0	441	0	0	
11	0	0	0	0	527	440	0	449	0	0	
12	0	0	0	0	532	432	0	459	0	0	
13	0	0	0	0	538	429	0	471	0	0	
14	0	0	0	0	543	431	0	483	0	0	
15	0	0	0	0	548	438	0	495	0	0	
0	0	0	0	0	551	449	0	505	0	0	
1	0	0	0	0	554	463	0	513	0	0	
2	0	0	0	0	555	479	0	518	0	0	
3	0	0	0	0	553	496	0	518	0	0	
4	0	0	0	0	551	511	0	515	0	0	
5	0	0	0	0	547	524	0	508	0	0	
6	0	0	0	0	542	533	0	499	0	0	
7	0	0	0	0	537	537	0	487	0	0	
8	0	0	0	0	533	536	0	476	0	0	
9	0	0	0	0	528	530	0	464	0	0	
10	0	0	0	0	526	520	0	454	0	0	
11	0	0	0	0	524	506	0	446	0	0	
12	0	0	0	0	523	489	0	440	0	0	
13	0	0	0	0	524	472	0	438	0	0	
14	0	0	0	0	526	457	0	440	0	0	
15	0	0	0	0	528	443	0	446	0	0	
0	0	0	0	0	532	433	0	454	0	0	
1	0	0	0	0	536	428	0	464	0	0	
2	0	0	0	0	539	428	0	476	0	0	
3	0	0	0	0	543	433	0	487	0	0	
4	0	0	0	0	546	442	0	497	0	0	
5	0	0	0	0	547	455	0	505	0	0	
6	0	0	0	0	548	472	0	510	0	0	
7	0	0	0	0	547	488	0	512	0	0	
8	0	0	0	0	546	505	0	511	0	0	
9	0	0	0	0	544	519	0	506	0	0	
10	0	0	0	0	541	529	0	499	0	0	
11	0	0	0	0	538	536	0	490	0	0	
12	0	0	0	0	536	537	0	480	0	0	
13	0	0	0	0	535	534	0	471	0	0	
14	0	0	0	0	534	526	0	463	0	0	
15	0	0	0	0	533	514	0	456	0	0	
0	0	0	0	0	535	499	0	453	0	0	
1	0	0	0	0	536	484	0	452	0	0	
2	0	0	0	0	540	468	0	455	0	0	
3	0	0	0	0	543	455	0	461	0	0	
4	0	0	0	0	546	446	0	470	0	0	
5	0	0	0	0	550	440	0	479	0	0	
6	0	0	0	0	552	439	0	489	0	0	
7	0	0	0	0	554	443	0	499	0	0	
8	0	0	0	0	555	451	0	508	0	0	
9	0	0	0	0	555	464	0	514	0	0	
10	0	0	0	0	554	479	0	517	0	0	
11	0	0	0	0	552	495	0	518	0	0	
12	0	0	0	0	550	511	0	515	0	0	
13	0	0	0	0	546	525	0	509	0	0	
14	0	0	0	0	542	536	0	502	0	0	
15	0	0	0	0	538	541	0	492	0	0	
0	0	0	0	0	536	542	0	482	0	0	
1	0	0	0	0	534	538	0	472	0	0	
2	0	0	0	0	533	529	0	464	0	0	
3	0	0	0	0	533	517	0	458	0	0	
4	0	0	0	0	534	502	0	454	0	0	
5	0	0	0	0	537	486	0	454	0	0	
6	0	0	0	0	540	470	0	456	0	0	
7	0	0	0	0	544	457	0	462	0	0	
8	0	0	0	0	548	447	0	471	0	0	
9	0	0	0	0	552	441	0	481	0	0	
10	0	0	0	0	556	441	0	492	0	0	
11	0	0	0	0	559	446	0	502	0	0	
12	0	0	0	0	560	455	0	511	0	0	
13	0	0	0	0	561	467	0	519	0	0	
14	0	0	0	0	560	482	0	523	0	0	
15	0	0	0	0	558	497	0	524	0	0	
0	0	0	0	0	554	513	0	521	0	0	
1	0	0	0	0	550	526	0	514	0	0	
2	0	0	0	0	544	535	0	505	0	0	
3	0	0	0	0	539	539	0	494	0	0	
4	0	0	0	0	534	538	0	482	0	0	
5	0	0	0	0	531	533	0	471	0	0	
6	0	0	0	0	527	523	0	460	0	0	
7	0	0	0	0	526	510	0	452	0	0	
8	0	0	0	0	526	494	0	448	0	0	
9	0	0	0	0	527	478	0	446	0	0	
10	0	0	0	0	531	463	0	449	0	0	
11	0	0	0	0	534	449	0	454	0	0	
12	0	0	0	0	538	440	0	463	0	0	
13	0	0	0	0	543	435	0	472	0	0	
14	0	0	0	0	545	434	0	482	0	0	
15	0	0	0	0	548	439	0	492	0	0	
0	0	0	0	0	549	446	0	500	0	0	
1	0	0	0	0	550	458	0	506	0	0	
2	0	0	0	0	547	472	0	508	0	0	
3	0	0	0	0	545	486	0	508	0	0	
4	0	0	0	0	541	500	0	504	0	0	
5	0	0	0	0	536	512	0	497	0	0	
6	0	0	0	0	531	521	0	488	0	0	
7	0	0	0	0	526	525	0	478	0	0	
8	0	0	0	0	523	526	0	467	0	0	
9	0	0	0	0	520	521	0	458	0	0	
10	0	0	0	0	519	512	0	449	0	0	
11	0	0	0	0	519	500	0	444	0	0	
12	0	0	0	0	520	486	0	440	0	0	
13	0	0	0	0	524	470	0	440	0	0	
14	0	0	0	0	527	456	0	444	0	0	
15	0	0	0	0	532	444	0	450	0	0	
0	0	0	0	0	537	435	0	459	0	0	
1	0	0	0	0	542	431	0	469	0	0	
2	0	0	0	0	545	431	0	480	0	0	
3	0	0	0	0	550	436	0	490	0	0	
4	0	0	0	0	551	445	0	499	0	0	
5	0	0	0	0	553	459	0	507	0	0	
6	0	0	0	0	553	474	0	511	0	0	
7	0	0	0	0	551	490	0	511	0	0	
8	0	0	0	0	548	505	0	509	0	0	
9	0	0	0	0	545	519	0	504	0	0	
10	0	0	0	0	541	529	0	496	0	0	
11	0	0	0	0	537	535	0	487	0	0	
12	0	0	0	0	534	536	0	477	0	0	
13	0	0	0	0	531	531	0	468	0	0	
14	0	0	0	0	529	523	0	460	0	0	
15	0	0	0	0	529	511	0	454	0	0	
0	0	0	0	0	529	497	0	450	0	0	
1	0	0	0	0	532	482	0	450	0	0	
2	0	0	0	0	535	468	0	453	0	0	
3	0	0	0	0	540	456	0	460	0	0	
4	0	0	0	0	544	448	0	469	0	0	
5	0	0	0	0	550	444	0	480	0	0	
6	0	0	0	0	553	444	0	491	0	0	
7	0	0	0	0	557	449	0	502	0	0	
8	0	0	0	0	560	459	0	512	0	0	
9	0	0	0	0	561	472	0	519	0	0	
10	0	0	0	0	560	487	0	523	0	0	
11	0	0	0	0	558	502	0	523	0	0	
12	0	0	0	0	555	517	0	521	0	0	
13	0	0	0	0	551	529	0	514	0	0	
14	0	0	0	0	546	538	0	505	0	0	
15	0	0	0	0	540	542	0	494	0	0	
0	0	0	0	0	536	542	0	482	0	0	
1	0	0	0	0	532	536	0	470	0	0	
2	0	0	0	0	530	526	0	460	0	0	
3	0	0	0	0	528	513	0	451	0	0	
4	0	0	0	0	529	498	0	446	0	0	
5	0	0	0	0	530	482	0	445	0	0	
6	0	0	0	0	535	468	0	448	0	0	
7	0	0	0	0	539	456	0	454	0	0	
8	0	0	0	0	544	448	0	463	0	0	
9	0	0	0	0	549	444	0	474	0	0	
10	0	0	0	0	554	445	0	486	0	0	
11	0	0	0	0	558	450	0	496	0	0	
12	0	0	0	0	560	460	0	507	0	0	
13	0	0	0	0	561	473	0	514	0	0	
14	0	0	0	0	561	488	0	518	0	0	
15	0	0	0	0	559	504	0	519	0	0	
0	0	0	0	0	555	518	0	515	0	0	
1	0	0	0	0	550	530	0	508	0	0	
2	0	0	0	0	545	539	0	499	0	0	
3	0	0	0	0	539	542	0	488	0	0	
4	0	0	0	0	534	541	0	476	0	0	
5	0	0	0	0	529	535	0	464	0	0	
6	0	0	0	0	526	524	0	455	0	0	
7	0	0	0	0	524	511	0	447	0	0	
8	0	0	0	0	524	495	0	443	0	0	
9	0	0	0	0	526	479	0	442	0	0	
10	0	0	0	0	528	464	0	445	0	0	
11	0	0	0	0	533	451	0	451	0	0	
12	0	0	0	0	538	443	0	460	0	0	
13	0	0	0	0	543	439	0	471	0	0	
14	0	0	0	0	548	440	0	483	0	0	
15	0	0	0	0	552	446	0	494	0	0	
0	0	0	0	0	556	456	0	504	0	0	
1	0	0	0	0	558	470	0	512	0	0	
2	0	0	0	0	559	487	0	517	0	0	
3	0	0	0	0	559	504	0	519	0	0	
4	0	0	0	0	557	520	0	516	0	0	
5	0	0	0	0	554	535	0	511	0	0	
6	0	0	0	0	550	545	0	503	0	0	
7	0	0	0	0	545	550	0	492	0	0	
8	0	0	0	0	542	550	0	481	0	0	
9	0	0	0	0	539	546	0	471	0	0	
10	0	0	0	0	536	536	0	461	0	0	
11	0	0	0	0	535	524	0	454	0	0	
12	0	0	0	0	535	508	0	449	0	0	
13	0	0	0	0	536	492	0	448	0	0	
14	0	0	0	0	539	476	0	449	0	0	
15	0	0	0	0	542	463	0	454	0	0	
0	0	0	0	0	544	451	0	460	0	0	
1	0	0	0	0	545	443	0	467	0	0	
2	0	0	0	0	545	439	0	472	0	0	
3	0	0	0	0	544	440	0	477	0	0	
4	0	0	0	0	539	442	0	479	0	0	
5	0	0	0	0	533	448	0	478	0	0	
6	0	0	0	0	524	455	0	474	0	0	
7	0	0	0	0	512	462	0	465	0	0	
8	0	0	0	0	500	467	0	453	0	0	
9	0	0	0	0	487	472	0	438	0	0	
10	0	0	0	0	472	471	0	419	0	0	
11	0	0	0	0	457	467	0	399	0	0	
12	0	0	0	0	444	457	0	379	0	0	
13	0	0	0	0	430	443	0	358	0	0	
14	0	0	0	0	417	424	0	339	0	0	
15	0	0	0	0	404	401	0	321	0	0	
0	0	0	0	0	393	376	0	306	0	0	
1	0	0	0	0	384	349	0	294	0	0	
2	0	0	0	0	376	322	0	286	0	0	
3	0	0	0	0	368	297	0	281	0	0	
4	0	0	0	0	361	274	0	278	0	0	
5	0	0	0	0	354	256	0	278	0	0	
6	0	0	0	0	347	243	0	278	0	0	
7	0	0	0	0	341	236	0	280	0	0	
8	0	0	0	0	335	235	0	281	0	0	
9	0	0	0	0	329	239	0	282	0	0	
10	0	0	0	0	325	248	0	284	0	0	
11	0	0	0	0	321	263	0	284	0	0	
12	0	0	0	0	320	280	0	283	0	0	
13	0	0	0	0	322	299	0	283	0	0	
14	0	0	0	0	327	318	0	283	0	0	
15	0	0	0	0	335	335	0	284	0	0	
0	0	0	0	0	347	351	0	287	0	0	
1	0	0	0	0	362	364	0	293	0	0	
2	0	0	0	0	381	375	0	301	0	0	
3	0	0	0	0	402	382	0	314	0	0	
4	0	0	0	0	426	387	0	330	0	0	
5	0	0	0	0	450	391	0	349	0	0	
6	0	0	0	0	476	396	0	371	0	0	
7	0	0	0	0	500	400	0	396	0	0	
8	0	0	0	0	524	407	0	422	0	0	
9	0	0	0	0	544	416	0	448	0	0	
10	0	0	0	0	561	428	0	472	0	0	
11	0	0	0	0	575	443	0	493	0	0	
12	0	0	0	0	583	461	0	511	0	0	
13	0	0	0	0	589	480	0	524	0	0	
14	0	0	0	0	590	501	0	531	0	0	
15	0	0	0	0	588	520	0	534	0	0	
0	0	0	0	0	583	537	0	531	0	0	
1	0	0	0	0	575	551	0	524	0	0	
2	0	0	0	0	566	560	0	512	0	0	
3	0	0	0	0	557	564	0	499	0	0	
4	0	0	0	0	547	561	0	484	0	0	
5	0	0	0	0	540	554	0	470	0	0	
6	0	0	0	0	535	542	0	457	0	0	
7	0	0	0	0	531	526	0	448	0	0	
8	0	0	0	0	528	508	0	441	0	0	
9	0	0	0	0	530	489	0	439	0	0	
10	0	0	0	0	533	473	0	441	0	0	
11	0	0	0	0	538	459	0	447	0	0	
12	0	0	0	0	544	449	0	456	0	0	
13	0	0	0	0	551	444	0	467	0	0	
14	0	0	0	0	557	445	0	480	0	0	
15	0	0	0	0	563	451	0	492	0	0	
0	0	0	0	0	567	461	0	503	0	0	
1	0	0	0	0	569	476	0	511	0	0	
2	0	0	0	0	571	492	0	517	0	0	
3	0	0	0	0	569	510	0	519	0	0	
4	0	0	0	0	567	526	0	518	0	0	
5	0	0	0	0	563	541	0	513	0	0	
6	0	0	0	0	559	551	0	505	0	0	
7	0	0	0	0	554	558	0	496	0	0	
8	0	0	0	0	550	559	0	485	0	0	
9	0	0	0	0	547	556	0	475	0	0	
10	0	0	0	0	544	547	0	466	0	0	
11	0	0	0	0	544	535	0	459	0	0	
12	0	0	0	0	544	520	0	455	0	0	
13	0	0	0	0	547	505	0	454	0	0	
14	0	0	0	0	551	490	0	456	0	0	
15	0	0	0	0	555	477	0	462	0	0	
0	0	0	0	0	561	467	0	472	0	0	
1	0	0	0	0	566	463	0	482	0	0	
2	0	0	0	0	570	462	0	492	0	0	
3	0	0	0	0	574	467	0	503	0	0	
4	0	0	0	0	576	476	0	511	0	0	
5	0	0	0	0	577	487	0	518	0	0	
6	0	0	0	0	576	502	0	521	0	0	
7	0	0	0	0	573	517	0	520	0	0	
8	0	0	0	0	569	530	0	516	0	0	
9	0	0	0	0	563	542	0	508	0	0	
10	0	0	0	0	557	551	0	498	0	0	
11	0	0	0	0	551	554	0	486	0	0	
12	0	0	0	0	546	553	0	474	0	0	
13	0	0	0	0	542	548	0	463	0	0	
14	0	0	0	0	539	538	0	453	0	0	
15	0	0	0	0	537	525	0	446	0	0	
0	0	0	0	0	538	510	0	441	0	0	
1	0	0	0	0	539	494	0	442	0	0	
2	0	0	0	0	543	479	0	445	0	0	
3	0	0	0	0	548	467	0	452	0	0	
4	0	0	0	0	553	458	0	462	0	0	
5	0	0	0	0	559	454	0	474	0	0	
6	0	0	0	0	563	454	0	486	0	0	
7	0	0	0	0	568	459	0	497	0	0	
8	0	0	0	0	571	468	0	507	0	0	
9	0	0	0	0	572	481	0	515	0	0	
10	0	0	0	0	572	496	0	519	0	0	
11	0	0	0	0	570	511	0	519	0	0	
12	0	0	0	0	568	526	0	516	0	0	
13	0	0	0	0	563	539	0	510	0	0	
14	0	0	0	0	559	548	0	501	0	0	
15	0	0	0	0	554	553	0	489	0	0	
0	0	0	0	0	550	553	0	478	0	0	
1	0	0	0	0	546	548	0	466	0	0	
2	0	0	0	0	544	540	0	456	0	0	
3	0	0	0	0	542	527	0	448	0	0	
4	0	0	0	0	542	511	0	443	0	0	
5	0	0	0	0	542	495	0	441	0	0	
6	0	0	0	0	545	480	0	444	0	0	
7	0	0	0	0	548	466	0	449	0	0	
8	0	0	0	0	551	456	0	457	0	0	
9	0	0	0	0	554	450	0	467	0	0	
10	0	0	0	0	556	448	0	477	0	0	
11	0	0	0	0	560	452	0	487	0	0	
12	0	0	0	0	562	461	0	497	0	0	
13	0	0	0	0	563	474	0	505	0	0	
14	0	0	0	0	563	489	0	509	0	0	
15	0	0	0	0	563	506	0	512	0	0	
0	0	0	0	0	562	522	0	510	0	0	
1	0	0	0	0	559	536	0	506	0	0	
2	0	0	0	0	556	547	0	499	0	0	
3	0	0	0	0	553	553	0	489	0	0	
4	0	0	0	0	550	555	0	479	0	0	
5	0	0	0	0	548	552	0	470	0	0	
6	0	0	0	0	547	544	0	461	0	0	
7	0	0	0	0	547	532	0	455	0	0	
8	0	0	0	0	548	518	0	451	0	0	
9	0	0	0	0	550	503	0	449	0	0	
10	0	0	0	0	553	488	0	451	0	0	
11	0	0	0	0	556	475	0	456	0	0	
12	0	0	0	0	560	465	0	463	0	0	
13	0	0	0	0	563	459	0	472	0	0	
14	0	0	0	0	565	458	0	481	0	0	
15	0	0	0	0	568	461	0	490	0	0	
0	0	0	0	0	568	468	0	497	0	0	
1	0	0	0	0	567	479	0	503	0	0	
2	0	0	0	0	566	492	0	505	0	0	
3	0	0	0	0	562	506	0	505	0	0	
4	0	0	0	0	558	519	0	501	0	0	
5	0	0	0	0	552	530	0	494	0	0	
6	0	0	0	0	546	538	0	485	0	0	
7	0	0	0	0	541	542	0	475	0	0	
8	0	0	0	0	536	541	0	463	0	0	
9	0	0	0	0	533	536	0	453	0	0	
10	0	0	0	0	531	527	0	444	0	0	
11	0	0	0	0	530	514	0	437	0	0	
12	0	0	0	0	531	499	0	433	0	0	
13	0	0	0	0	532	484	0	433	0	0	
14	0	0	0	0	537	470	0	437	0	0	
15	0	0	0	0	542	458	0	444	0	0	
0	0	0	0	0	547	450	0	453	0	0	
1	0	0	0	0	552	446	0	464	0	0	
2	0	0	0	0	558	448	0	476	0	0	
3	0	0	0	0	562	454	0	487	0	0	
4	0	0	0	0	565	464	0	497	0	0	
5	0	0	0	0	566	477	0	505	0	0	
6	0	0	0	0	566	492	0	510	0	0	
7	0	0	0	0	564	508	0	510	0	0	
8	0	0	0	0	561	524	0	507	0	0	
9	0	0	0	0	557	536	0	500	0	0	
10	0	0	0	0	551	545	0	491	0	0	
11	0	0	0	0	546	549	0	480	0	0	
12	0	0	0	0	540	548	0	467	0	0	
13	0	0	0	0	537	543	0	456	0	0	
14	0	0	0	0	534	533	0	447	0	0	
15	0	0	0	0	531	519	0	439	0	0	
0	0	0	0	0	530	504	0	435	0	0	
1	0	0	0	0	531	488	0	434	0	0	
2	0	0	0	0	534	473	0	437	0	0	
3	0	0	0	0	537	460	0	444	0	0	
4	0	0	0	0	542	451	0	454	0	0	
5	0	0	0	0	547	446	0	465	0	0	
6	0	0	0	0	551	446	0	476	0	0	
7	0	0	0	0	555	452	0	488	0	0	
8	0	0	0	0	558	462	0	498	0	0	
9	0	0	0	0	559	475	0	504	0	0	
10	0	0	0	0	560	490	0	509	0	0	
11	0	0	0	0	558	506	0	509	0	0	
12	0	0	0	0	556	522	0	506	0	0	
13	0	0	0	0	551	534	0	499	0	0	
14	0	0	0	0	547	543	0	489	0	0	
15	0	0	0	0	542	547	0	478	0	0	
0	0	0	0	0	537	547	0	465	0	0	
1	0	0	0	0	535	542	0	454	0	0	
2	0	0	0	0	532	531	0	444	0	0	
3	0	0	0	0	531	518	0	436	0	0	
4	0	0	0	0	530	502	0	432	0	0	
5	0	0	0	0	531	485	0	430	0	0	
6	0	0	0	0	533	468	0	432	0	0	
7	0	0	0	0	536	455	0	438	0	0	
8	0	0	0	0	539	444	0	446	0	0	
9	0	0	0	0	542	439	0	456	0	0	
10	0	0	0	0	544	438	0	467	0	0	
11	0	0	0	0	548	442	0	478	0	0	
12	0	0	0	0	549	451	0	487	0	0	
13	0	0	0	0	550	463	0	495	0	0	
14	0	0	0	0	550	478	0	499	0	0	
15	0	0	0	0	547	493	0	499	0	0	
0	0	0	0	0	545	508	0	497	0	0	
1	0	0	0	0	542	521	0	491	0	0	
2	0	0	0	0	537	531	0	482	0	0	
3	0	0	0	0	534	536	0	472	0	0	
4	0	0	0	0	529	536	0	460	0	0	
5	0	0	0	0	527	531	0	449	0	0	
6	0	0	0	0	524	522	0	440	0	0	
7	0	0	0	0	523	509	0	433	0	0	
8	0	0	0	0	522	494	0	428	0	0	
9	0	0	0	0	523	478	0	427	0	0	
10	0	0	0	0	526	462	0	429	0	0	
11	0	0	0	0	529	449	0	435	0	0	
12	0	0	0	0	532	439	0	444	0	0	
13	0	0	0	0	535	432	0	453	0	0	
14	0	0	0	0	539	432	0	464	0	0	
15	0	0	0	0	541	436	0	474	0	0	
0	0	0	0	0	543	444	0	483	0	0	
1	0	0	0	0	544	457	0	491	0	0	
2	0	0	0	0	544	473	0	496	0	0	
3	0	0	0	0	543	489	0	497	0	0	
4	0	0	0	0	541	505	0	495	0	0	
5	0	0	0	0	537	519	0	489	0	0	
6	0	0	0	0	534	530	0	481	0	0	
7	0	0	0	0	530	536	0	471	0	0	
8	0	0	0	0	527	536	0	460	0	0	
9	0	0	0	0	525	532	0	449	0	0	
10	0	0	0	0	523	523	0	440	0	0	
11	0	0	0	0	522	510	0	432	0	0	
12	0	0	0	0	523	495	0	427	0	0	
13	0	0	0	0	524	478	0	427	0	0	
14	0	0	0	0	528	463	0	429	0	0	
15	0	0	0	0	532	449	0	435	0	0	
0	0	0	0	0	537	439	0	444	0	0	
1	0	0	0	0	543	433	0	455	0	0	
2	0	0	0	0	546	431	0	466	0	0	
3	0	0	0	0	551	435	0	478	0	0	
4	0	0	0	0	553	444	0	487	0	0	
5	0	0	0	0	555	455	0	496	0	0	
6	0	0	0	0	555	470	0	500	0	0	
7	0	0	0	0	553	486	0	501	0	0	
8	0	0	0	0	550	500	0	499	0	0	
9	0	0	0	0	546	513	0	493	0	0	
10	0	0	0	0	541	523	0	484	0	0	
11	0	0	0	0	536	527	0	472	0	0	
12	0	0	0	0	531	527	0	460	0	0	
13	0	0	0	0	527	523	0	448	0	0	
14	0	0	0	0	524	513	0	438	0	0	
15	0	0	0	0	521	499	0	430	0	0	
0	0	0	0	0	521	483	0	424	0	0	
1	0	0	0	0	522	467	0	422	0	0	
2	0	0	0	0	525	452	0	425	0	0	
3	0	0	0	0	529	439	0	431	0	0	
4	0	0	0	0	533	429	0	440	0	0	
5	0	0	0	0	540	424	0	452	0	0	
6	0	0	0	0	544	424	0	464	0	0	
7	0	0	0	0	549	430	0	477	0	0	
8	0	0	0	0	553	439	0	488	0	0	
9	0	0	0	0	555	453	0	497	0	0	
10	0	0	0	0	556	468	0	503	0	0	
11	0	0	0	0	555	484	0	505	0	0	
12	0	0	0	0	553	500	0	503	0	0	
13	0	0	0	0	548	513	0	497	0	0	
14	0	0	0	0	544	523	0	489	0	0	
15	0	0	0	0	538	527	0	479	0	0	
0	0	0	0	0	534	528	0	467	0	0	
1	0	0	0	0	530	523	0	455	0	0	
2	0	0	0	0	527	513	0	444	0	0	
3	0	0	0	0	524	500	0	435	0	0	
4	0	0	0	0	524	484	0	429	0	0	
5	0	0	0	0	523	467	0	426	0	0	
6	0	0	0	0	526	450	0	427	0	0	
7	0	0	0	0	529	436	0	432	0	0	
8	0	0	0	0	533	425	0	440	0	0	
9	0	0	0	0	537	420	0	450	0	0	
10	0	0	0	0	541	419	0	460	0	0	
11	0	0	0	0	545	423	0	472	0	0	
12	0	0	0	0	548	432	0	482	0	0	
13	0	0	0	0	550	444	0	490	0	0	
14	0	0	0	0	551	460	0	496	0	0	
15	0	0	0	0	549	476	0	497	0	0	
0	0	0	0	0	547	492	0	496	0	0	
1	0	0	0	0	543	506	0	491	0	0	
2	0	0	0	0	539	515	0	483	0	0	
3	0	0	0	0	534	521	0	472	0	0	
4	0	0	0	0	529	521	0	461	0	0	
5	0	0	0	0	526	515	0	450	0	0	
6	0	0	0	0	523	506	0	440	0	0	
7	0	0	0	0	521	492	0	433	0	0	
8	0	0	0	0	521	477	0	428	0	0	
9	0	0	0	0	522	460	0	427	0	0	
10	0	0	0	0	526	445	0	430	0	0	
11	0	0	0	0	530	432	0	436	0	0	
12	0	0	0	0	535	423	0	445	0	0	
13	0	0	0	0	540	418	0	456	0	0	
14	0	0	0	0	545	418	0	468	0	0	
15	0	0	0	0	550	424	0	481	0	0	
0	0	0	0	0	554	434	0	492	0	0	
1	0	0	0	0	556	449	0	500	0	0	
2	0	0	0	0	558	465	0	506	0	0	
3	0	0	0	0	556	483	0	508	0	0	
4	0	0	0	0	555	499	0	506	0	0	
5	0	0	0	0	551	513	0	500	0	0	
6	0	0	0	0	546	524	0	492	0	0	
7	0	0	0	0	541	529	0	481	0	0	
8	0	0	0	0	536	529	0	469	0	0	
9	0	0	0	0	532	525	0	457	0	0	
10	0	0	0	0	528	515	0	447	0	0	
11	0	0	0	0	527	502	0	439	0	0	
12	0	0	0	0	526	486	0	433	0	0	
13	0	0	0	0	527	469	0	431	0	0	
14	0	0	0	0	529	454	0	433	0	0	
15	0	0	0	0	532	440	0	439	0	0	
0	0	0	0	0	537	430	0	448	0	0	
1	0	0	0	0	542	424	0	458	0	0	
2	0	0	0	0	546	423	0	470	0	0	
3	0	0	0	0	551	428	0	481	0	0	
4	0	0	0	0	555	438	0	492	0	0	
5	0	0	0	0	557	451	0	500	0	0	
6	0	0	0	0	558	467	0	505	0	0	
7	0	0	0	0	557	483	0	507	0	0	
8	0	0	0	0	556	499	0	505	0	0	
9	0	0	0	0	552	513	0	499	0	0	
10	0	0	0	0	548	523	0	491	0	0	
11	0	0	0	0	543	528	0	480	0	0	
12	0	0	0	0	538	528	0	468	0	0	
13	0	0	0	0	534	523	0	456	0	0	
14	0	0	0	0	530	514	0	446	0	0	
15	0	0	0	0	528	500	0	438	0	0	
0	0	0	0	0	527	484	0	433	0	0	
1	0	0	0	0	527	467	0	431	0	0	
2	0	0	0	0	529	451	0	432	0	0	
3	0	0	0	0	533	437	0	437	0	0	
4	0	0	0	0	537	426	0	445	0	0	
5	0	0	0	0	541	419	0	455	0	0	
6	0	0	0	0	546	418	0	465	0	0	
7	0	0	0	0	550	422	0	475	0	0	
8	0	0	0	0	553	430	0	485	0	0	
9	0	0	0	0	555	442	0	492	0	0	
10	0	0	0	0	554	457	0	496	0	0	
11	0	0	0	0	553	472	0	496	0	0	
12	0	0	0	0	550	487	0	493	0	0	
13	0	0	0	0	545	501	0	487	0	0	
14	0	0	0	0	540	510	0	477	0	0	
15	0	0	0	0	534	515	0	466	0	0	
0	0	0	0	0	530	515	0	454	0	0	
1	0	0	0	0	525	511	0	443	0	0	
2	0	0	0	0	522	502	0	433	0	0	
3	0	0	0	0	520	489	0	425	0	0	
4	0	0	0	0	519	474	0	421	0	0	
5	0	0	0	0	520	459	0	419	0	0	
6	0	0	0	0	523	444	0	422	0	0	
7	0	0	0	0	527	432	0	428	0	0	
8	0	0	0	0	532	422	0	437	0	0	
9	0	0	0	0	536	417	0	448	0	0	
10	0	0	0	0	542	418	0	460	0	0	
11	0	0	0	0	545	423	0	471	0	0	
12	0	0	0	0	548	432	0	481	0	0	
13	0	0	0	0	551	445	0	490	0	0	
14	0	0	0	0	551	460	0	495	0	0	
15	0	0	0	0	550	476	0	496	0	0	
0	0	0	0	0	548	492	0	495	0	0	
1	0	0	0	0	544	505	0	489	0	0	
2	0	0	0	0	540	515	0	481	0	0	
3	0	0	0	0	536	520	0	471	0	0	
4	0	0	0	0	532	521	0	459	0	0	
5	0	0	0	0	529	516	0	448	0	0	
6	0	0	0	0	526	507	0	439	0	0	
7	0	0	0	0	524	494	0	431	0	0	
8	0	0	0	0	524	478	0	427	0	0	
9	0	0	0	0	525	462	0	425	0	0	
10	0	0	0	0	527	446	0	427	0	0	
11	0	0	0	0	531	433	0	433	0	0	
12	0	0	0	0	534	423	0	441	0	0	
13	0	0	0	0	539	417	0	451	0	0	
14	0	0	0	0	542	417	0	462	0	0	
15	0	0	0	0	545	422	0	473	0	0	
0	0	0	0	0	547	431	0	483	0	0	
1	0	0	0	0	548	444	0	490	0	0	
2	0	0	0	0	548	459	0	494	0	0	
3	0	0	0	0	547	476	0	495	0	0	
4	0	0	0	0	544	491	0	492	0	0	
5	0	0	0	0	540	504	0	486	0	0	
6	0	0	0	0	536	514	0	477	0	0	
7	0	0	0	0	531	519	0	466	0	0	
8	0	0	0	0	527	519	0	454	0	0	
9	0	0	0	0	524	514	0	444	0	0	
10	0	0	0	0	521	504	0	433	0	0	
11	0	0	0	0	519	491	0	426	0	0	
12	0	0	0	0	519	475	0	422	0	0	
13	0	0	0	0	520	459	0	420	0	0	
14	0	0	0	0	524	444	0	423	0	0	
15	0	0	0	0	527	430	0	429	0	0	
0	0	0	0	0	532	421	0	438	0	0	
1	0	0	0	0	537	416	0	448	0	0	
2	0	0	0	0	541	416	0	460	0	0	
3	0	0	0	0	546	422	0	472	0	0	
4	0	0	0	0	549	432	0	481	0	0	
5	0	0	0	0	551	446	0	489	0	0	
6	0	0	0	0	551	462	0	495	0	0	
7	0	0	0	0	551	478	0	496	0	0	
8	0	0	0	0	548	494	0	493	0	0	
9	0	0	0	0	543	508	0	487	0	0	
10	0	0	0	0	539	518	0	478	0	0	
11	0	0	0	0	534	523	0	467	0	0	
12	0	0	0	0	529	523	0	455	0	0	
13	0	0	0	0	525	518	0	444	0	0	
14	0	0	0	0	522	508	0	434	0	0	
15	0	0	0	0	520	494	0	426	0	0	
0	0	0	0	0	519	478	0	420	0	0	
1	0	0	0	0	520	461	0	420	0	0	
2	0	0	0	0	524	446	0	422	0	0	
3	0	0	0	0	528	432	0	428	0	0	
4	0	0	0	0	533	422	0	437	0	0	
5	0	0	0	0	538	417	0	449	0	0	
6	0	0	0	0	543	417	0	461	0	0	
7	0	0	0	0	548	423	0	473	0	0	
8	0	0	0	0	551	434	0	483	0	0	
9	0	0	0	0	553	448	0	492	0	0	
10	0	0	0	0	554	464	0	497	0	0	
11	0	0	0	0	553	481	0	499	0	0	
12	0	0	0	0	551	498	0	496	0	0	
13	0	0	0	0	547	512	0	490	0	0	
14	0	0	0	0	543	522	0	481	0	0	
15	0	0	0	0	538	527	0	471	0	0	
0	0	0	0	0	533	528	0	460	0	0	
1	0	0	0	0	530	523	0	448	0	0	
2	0	0	0	0	527	514	0	439	0	0	
3	0	0	0	0	525	500	0	431	0	0	
4	0	0	0	0	524	484	0	426	0	0	
5	0	0	0	0	525	467	0	425	0	0	
6	0	0	0	0	528	452	0	427	0	0	
7	0	0	0	0	531	438	0	433	0	0	
8	0	0	0	0	535	428	0	441	0	0	
9	0	0	0	0	538	422	0	451	0	0	
10	0	0	0	0	542	421	0	462	0	0	
11	0	0	0	0	546	425	0	472	0	0	
12	0	0	0	0	547	434	0	482	0	0	
13	0	0	0	0	549	447	0	489	0	0	
14	0	0	0	0	549	462	0	494	0	0	
15	0	0	0	0	547	478	0	495	0	0	
0	0	0	0	0	545	494	0	492	0	0	
1	0	0	0	0	542	508	0	487	0	0	
2	0	0	0	0	537	517	0	478	0	0	
3	0	0	0	0	534	523	0	468	0	0	
4	0	0	0	0	529	523	0	456	0	0	
5	0	0	0	0	527	518	0	446	0	0	
6	0	0	0	0	525	509	0	436	0	0	
7	0	0	0	0	524	496	0	428	0	0	
8	0	0	0	0	524	480	0	423	0	0	
9	0	0	0	0	525	464	0	422	0	0	
10	0	0	0	0	528	449	0	424	0	0	
11	0	0	0	0	532	436	0	430	0	0	
12	0	0	0	0	536	426	0	438	0	0	
13	0	0	0	0	540	421	0	449	0	0	
14	0	0	0	0	543	420	0	460	0	0	
15	0	0	0	0	547	425	0	471	0	0	
0	0	0	0	0	550	435	0	481	0	0	
1	0	0	0	0	550	449	0	489	0	0	
2	0	0	0	0	550	464	0	495	0	0	
3	0	0	0	0	547	481	0	496	0	0	
4	0	0	0	0	545	497	0	494	0	0	
5	0	0	0	0	541	510	0	488	0	0	
6	0	0	0	0	536	519	0	480	0	0	
7	0	0	0	0	531	524	0	470	0	0	
8	0	0	0	0	526	524	0	458	0	0	
9	0	0	0	0	523	519	0	447	0	0	
10	0	0	0	0	521	510	0	438	0	0	
11	0	0	0	0	519	497	0	430	0	0	
12	0	0	0	0	520	481	0	425	0	0	
13	0	0	0	0	523	465	0	423	0	0	
14	0	0	0	0	526	450	0	426	0	0	
15	0	0	0	0	531	437	0	432	0	0	
0	0	0	0	0	536	428	0	441	0	0	
1	0	0	0	0	542	423	0	452	0	0	
2	0	0	0	0	545	423	0	463	0	0	
3	0	0	0	0	550	428	0	475	0	0	
4	0	0	0	0	553	438	0	485	0	0	
5	0	0	0	0	554	451	0	492	0	0	
6	0	0	0	0	554	466	0	497	0	0	
7	0	0	0	0	552	483	0	498	0	0	
8	0	0	0	0	549	499	0	496	0	0	
9	0	0	0	0	545	512	0	490	0	0	
10	0	0	0	0	541	523	0	481	0	0	
11	0	0	0	0	536	529	0	471	0	0	
12	0	0	0	0	532	530	0	459	0	0	
13	0	0	0	0	530	526	0	448	0	0	
14	0	0	0	0	527	517	0	438	0	0	
15	0	0	0	0	526	504	0	431	0	0	
0	0	0	0	0	527	489	0	427	0	0	
1	0	0	0	0	529	473	0	425	0	0	
2	0	0	0	0	533	458	0	428	0	0	
3	0	0	0	0	537	444	0	433	0	0	
4	0	0	0	0	542	434	0	442	0	0	
5	0	0	0	0	547	428	0	453	0	0	
6	0	0	0	0	551	427	0	464	0	0	
7	0	0	0	0	554	431	0	475	0	0	
8	0	0	0	0	556	440	0	484	0	0	
9	0	0	0	0	557	452	0	491	0	0	
10	0	0	0	0	556	467	0	496	0	0	
11	0	0	0	0	554	483	0	496	0	0	
12	0	0	0	0	551	499	0	493	0	0	
13	0	0	0	0	546	512	0	487	0	0	
14	0	0	0	0	540	522	0	478	0	0	
15	0	0	0	0	535	527	0	467	0	0	
0	0	0	0	0	531	527	0	456	0	0	
1	0	0	0	0	527	523	0	445	0	0	
2	0	0	0	0	524	513	0	435	0	0	
3	0	0	0	0	523	500	0	428	0	0	
4	0	0	0	0	522	484	0	424	0	0	
5	0	0	0	0	524	467	0	423	0	0	
6	0	0	0	0	527	452	0	425	0	0	
7	0	0	0	0	532	438	0	431	0	0	
8	0	0	0	0	536	428	0	440	0	0	
9	0	0	0	0	540	422	0	450	0	0	
10	0	0	0	0	545	422	0	461	0	0	
11	0	0	0	0	549	426	0	471	0	0	
12	0	0	0	0	551	435	0	480	0	0	
13	0	0	0	0	552	448	0	487	0	0	
14	0	0	0	0	551	463	0	492	0	0	
15	0	0	0	0	551	479	0	492	0	0	
0	0	0	0	0	547	495	0	489	0	0	
1	0	0	0	0	544	508	0	483	0	0	
2	0	0	0	0	540	518	0	475	0	0	
3	0	0	0	0	535	524	0	464	0	0	
4	0	0	0	0	531	524	0	453	0	0	
5	0	0	0	0	528	519	0	443	0	0	
6	0	0	0	0	526	510	0	433	0	0	
7	0	0	0	0	525	497	0	427	0	0	
8	0	0	0	0	526	481	0	423	0	0	
9	0	0	0	0	527	464	0	422	0	0	
10	0	0	0	0	531	449	0	425	0	0	
11	0	0	0	0	535	435	0	430	0	0	
12	0	0	0	0	539	425	0	439	0	0	
13	0	0	0	0	543	419	0	449	0	0	
14	0	0	0	0	546	417	0	459	0	0	
15	0	0	0	0	549	422	0	470	0	0	
0	0	0	0	0	550	430	0	478	0	0	
1	0	0	0	0	551	442	0	484	0	0	
2	0	0	0	0	550	456	0	488	0	0	
3	0	0	0	0	547	472	0	488	0	0	
4	0	0	0	0	544	488	0	485	0	0	
5	0	0	0	0	540	502	0	479	0	0	
6	0	0	0	0	536	512	0	470	0	0	
7	0	0	0	0	531	518	0	460	0	0	
8	0	0	0	0	527	519	0	448	0	0	
9	0	0	0	0	524	515	0	438	0	0	
10	0	0	0	0	523	506	0	428	0	0	
11	0	0	0	0	521	493	0	421	0	0	
12	0	0	0	0	522	478	0	416	0	0	
13	0	0	0	0	523	462	0	417	0	0	
14	0	0	0	0	526	447	0	420	0	0	
15	0	0	0	0	530	434	0	427	0	0	
0	0	0	0	0	535	424	0	436	0	0	
1	0	0	0	0	539	419	0	448	0	0	
2	0	0	0	0	543	419	0	459	0	0	
3	0	0	0	0	547	423	0	471	0	0	
4	0	0	0	0	550	433	0	481	0	0	
5	0	0	0	0	551	446	0	488	0	0	
6	0	0	0	0	551	462	0	493	0	0	
7	0	0	0	0	550	479	0	494	0	0	
8	0	0	0	0	547	495	0	491	0	0	
9	0	0	0	0	543	508	0	485	0	0	
10	0	0	0	0	539	519	0	476	0	0	
11	0	0	0	0	534	524	0	465	0	0	
12	0	0	0	0	531	526	0	454	0	0	
13	0	0	0	0	528	521	0	443	0	0	
14	0	0	0	0	526	512	0	433	0	0	
15	0	0	0	0	526	499	0	426	0	0	
0	0	0	0	0	526	485	0	422	0	0	
1	0	0	0	0	528	469	0	421	0	0	
2	0	0	0	0	531	454	0	424	0	0	
3	0	0	0	0	536	441	0	431	0	0	
4	0	0	0	0	540	431	0	440	0	0	
5	0	0	0	0	545	426	0	452	0	0	
6	0	0	0	0	550	425	0	464	0	0	
7	0	0	0	0	553	430	0	476	0	0	
8	0	0	0	0	556	439	0	487	0	0	
9	0	0	0	0	557	451	0	494	0	0	
10	0	0	0	0	556	466	0	499	0	0	
11	0	0	0	0	555	482	0	500	0	0	
12	0	0	0	0	551	497	0	497	0	0	
13	0	0	0	0	548	511	0	491	0	0	
14	0	0	0	0	543	521	0	482	0	0	
15	0	0	0	0	538	527	0	471	0	0	
0	0	0	0	0	534	527	0	459	0	0	
1	0	0	0	0	531	523	0	447	0	0	
2	0	0	0	0	529	514	0	437	0	0	
3	0	0	0	0	528	501	0	430	0	0	
4	0	0	0	0	529	486	0	424	0	0	
5	0	0	0	0	530	469	0	423	0	0	
6	0	0	0	0	534	454	0	425	0	0	
7	0	0	0	0	537	440	0	432	0	0	
8	0	0	0	0	542	430	0	440	0	0	
9	0	0	0	0	544	424	0	451	0	0	
10	0	0	0	0	549	424	0	463	0	0	
11	0	0	0	0	553	428	0	475	0	0	
12	0	0	0	0	555	438	0	485	0	0	
13	0	0	0	0	556	450	0	492	0	0	
14	0	0	0	0	555	464	0	498	0	0	
15	0	0	0	0	553	480	0	499	0	0	
0	0	0	0	0	551	495	0	496	0	0	
1	0	0	0	0	547	508	0	491	0	0	
2	0	0	0	0	542	518	0	482	0	0	
3	0	0	0	0	538	523	0	472	0	0	
4	0	0	0	0	534	524	0	460	0	0	
5	0	0	0	0	532	519	0	449	0	0	
6	0	0	0	0	529	510	0	439	0	0	
7	0	0	0	0	528	497	0	431	0	0	
8	0	0	0	0	528	482	0	426	0	0	
9	0	0	0	0	529	466	0	424	0	0	
10	0	0	0	0	532	451	0	426	0	0	
11	0	0	0	0	536	438	0	432	0	0	
12	0	0	0	0	539	427	0	439	0	0	
13	0	0	0	0	543	422	0	449	0	0	
14	0	0	0	0	546	421	0	461	0	0	
15	0	0	0	0	550	425	0	472	0	0	
0	0	0	0	0	552	435	0	481	0	0	
1	0	0	0	0	553	448	0	490	0	0	
2	0	0	0	0	554	464	0	496	0	0	
3	0	0	0	0	553	480	0	497	0	0	
4	0	0	0	0	552	497	0	496	0	0	
5	0	0	0	0	550	512	0	492	0	0	
6	0	0	0	0	547	523	0	484	0	0	
7	0	0	0	0	543	529	0	475	0	0	
8	0	0	0	0	540	531	0	464	0	0	
9	0	0	0	0	539	527	0	454	0	0	
10	0	0	0	0	537	519	0	444	0	0	
11	0	0	0	0	536	506	0	436	0	0	
12	0	0	0	0	536	490	0	431	0	0	
13	0	0	0	0	536	473	0	428	0	0	
14	0	0	0	0	537	455	0	428	0	0	
15	0	0	0	0	538	439	0	430	0	0	
0	0	0	0	0	539	426	0	435	0	0	
1	0	0	0	0	540	416	0	441	0	0	
2	0	0	0	0	538	411	0	446	0	0	
3	0	0	0	0	536	409	0	451	0	0	
4	0	0	0	0	531	412	0	454	0	0	
5	0	0	0	0	526	418	0	454	0	0	
6	0	0	0	0	517	425	0	451	0	0	
7	0	0	0	0	507	433	0	443	0	0	
8	0	0	0	0	496	440	0	432	0	0	
9	0	0	0	0	482	445	0	417	0	0	
10	0	0	0	0	468	446	0	400	0	0	
11	0	0	0	0	453	442	0	380	0	0	
12	0	0	0	0	438	433	0	359	0	0	
13	0	0	0	0	424	418	0	337	0	0	
14	0	0	0	0	410	399	0	317	0	0	
15	0	0	0	0	397	375	0	298	0	0	
0	0	0	0	0	385	349	0	282	0	0	
1	0	0	0	0	374	321	0	269	0	0	
2	0	0	0	0	364	292	0	259	0	0	
3	0	0	0	0	355	265	0	251	0	0	
4	0	0	0	0	348	241	0	247	0	0	
5	0	0	0	0	340	222	0	246	0	0	
6	0	0	0	0	332	208	0	246	0	0	
7	0	0	0	0	327	201	0	248	0	0	
8	0	0	0	0	322	202	0	251	0	0	
9	0	0	0	0	319	208	0	255	0	0	
10	0	0	0	0	317	221	0	259	0	0	
11	0	0	0	0	318	240	0	264	0	0	
12	0	0	0	0	322	262	0	268	0	0	
13	0	0	0	0	328	285	0	273	0	0	
14	0	0	0	0	337	309	0	278	0	0	
15	0	0	0	0	350	332	0	284	0	0	
0	0	0	0	0	366	352	0	291	0	0	
1	0	0	0	0	385	369	0	300	0	0	
2	0	0	0	0	407	384	0	311	0	0	
3	0	0	0	0	429	393	0	325	0	0	
4	0	0	0	0	454	400	0	342	0	0	
5	0	0	0	0	478	405	0	361	0	0	
6	0	0	0	0	503	409	0	383	0	0	
7	0	0	0	0	526	412	0	407	0	0	
8	0	0	0	0	547	417	0	431	0	0	
9	0	0	0	0	564	423	0	455	0	0	
10	0	0	0	0	579	433	0	478	0	0	
11	0	0	0	0	590	446	0	497	0	0	
12	0	0	0	0	596	461	0	513	0	0	
13	0	0	0	0	599	477	0	524	0	0	
14	0	0	0	0	596	494	0	530	0	0	
15	0	0	0	0	591	512	0	531	0	0	
0	0	0	0	0	583	527	0	527	0	0	
1	0	0	0	0	574	539	0	517	0	0	
2	0	0	0	0	562	547	0	504	0	0	
3	0	0	0	0	551	550	0	489	0	0	
4	0	0	0	0	540	547	0	472	0	0	
5	0	0	0	0	533	539	0	457	0	0	
6	0	0	0	0	526	526	0	443	0	0	
7	0	0	0	0	522	510	0	432	0	0	
8	0	0	0	0	520	492	0	425	0	0	
9	0	0	0	0	522	473	0	423	0	0	
10	0	0	0	0	527	456	0	424	0	0	
11	0	0	0	0	532	441	0	431	0	0	
12	0	0	0	0	539	431	0	440	0	0	
13	0	0	0	0	547	426	0	453	0	0	
14	0	0	0	0	555	426	0	466	0	0	
15	0	0	0	0	561	432	0	479	0	0	
0	0	0	0	0	567	443	0	492	0	0	
1	0	0	0	0	571	457	0	502	0	0	
2	0	0	0	0	572	474	0	508	0	0	
3	0	0	0	0	572	493	0	511	0	0	
4	0	0	0	0	571	510	0	510	0	0	
5	0	0	0	0	567	526	0	506	0	0	
6	0	0	0	0	562	538	0	498	0	0	
7	0	0	0	0	558	545	0	488	0	0	
8	0	0	0	0	553	547	0	476	0	0	
9	0	0	0	0	550	543	0	465	0	0	
10	0	0	0	0	546	535	0	455	0	0	
11	0	0	0	0	545	522	0	448	0	0	
12	0	0	0	0	544	506	0	443	0	0	
13	0	0	0	0	546	490	0	440	0	0	
14	0	0	0	0	548	474	0	443	0	0	
15	0	0	0	0	552	460	0	448	0	0	
0	0	0	0	0	557	450	0	457	0	0	
1	0	0	0	0	561	444	0	468	0	0	
2	0	0	0	0	567	444	0	479	0	0	
3	0	0	0	0	571	448	0	491	0	0	
4	0	0	0	0	574	456	0	501	0	0	
5	0	0	0	0	575	469	0	509	0	0	
6	0	0	0	0	575	484	0	514	0	0	
7	0	0	0	0	575	500	0	516	0	0	
8	0	0	0	0	572	516	0	514	0	0	
9	0	0	0	0	568	529	0	508	0	0	
10	0	0	0	0	563	539	0	499	0	0	
11	0	0	0	0	558	545	0	489	0	0	
12	0	0	0	0	554	545	0	478	0	0	
13	0	0	0	0	550	540	0	466	0	0	
14	0	0	0	0	546	531	0	456	0	0	
15	0	0	0	0	543	518	0	448	0	0	
0	0	0	0	0	542	502	0	443	0	0	
1	0	0	0	0	542	485	0	440	0	0	
2	0	0	0	0	544	469	0	442	0	0	
3	0	0	0	0	547	455	0	447	0	0	
4	0	0	0	0	551	444	0	455	0	0	
5	0	0	0	0	555	438	0	464	0	0	
6	0	0	0	0	560	438	0	474	0	0	
7	0	0	0	0	563	442	0	485	0	0	
8	0	0	0	0	566	451	0	494	0	0	
9	0	0	0	0	568	463	0	502	0	0	
10	0	0	0	0	568	478	0	505	0	0	
11	0	0	0	0	567	495	0	506	0	0	
12	0	0	0	0	564	510	0	503	0	0	
13	0	0	0	0	559	523	0	496	0	0	
14	0	0	0	0	555	532	0	487	0	0	
15	0	0	0	0	549	537	0	477	0	0	
0	0	0	0	0	544	537	0	465	0	0	
1	0	0	0	0	540	532	0	454	0	0	
2	0	0	0	0	536	522	0	444	0	0	
3	0	0	0	0	534	509	0	436	0	0	
4	0	0	0	0	532	493	0	432	0	0	
5	0	0	0	0	534	476	0	431	0	0	
6	0	0	0	0	537	460	0	433	0	0	
7	0	0	0	0	541	447	0	440	0	0	
8	0	0	0	0	547	437	0	449	0	0	
9	0	0	0	0	552	432	0	460	0	0	
10	0	0	0	0	557	431	0	471	0	0	
11	0	0	0	0	562	436	0	483	0	0	
12	0	0	0	0	565	445	0	493	0	0	
13	0	0	0	0	567	458	0	500	0	0	
14	0	0	0	0	567	473	0	506	0	0	
15	0	0	0	0	565	489	0	507	0	0	
0	0	0	0	0	562	505	0	505	0	0	
1	0	0	0	0	557	519	0	499	0	0	
2	0	0	0	0	551	528	0	490	0	0	
3	0	0	0	0	545	534	0	479	0	0	
4	0	0	0	0	539	534	0	467	0	0	
5	0	0	0	0	535	529	0	455	0	0	
6	0	0	0	0	531	519	0	445	0	0	
7	0	0	0	0	529	507	0	436	0	0	
8	0	0	0	0	528	491	0	431	0	0	
9	0	0	0	0	529	474	0	430	0	0	
10	0	0	0	0	532	458	0	432	0	0	
11	0	0	0	0	537	445	0	437	0	0	
12	0	0	0	0	542	435	0	446	0	0	
13	0	0	0	0	548	430	0	457	0	0	
14	0	0	0	0	553	429	0	468	0	0	
15	0	0	0	0	558	435	0	480	0	0	
0	0	0	0	0	561	444	0	491	0	0	
1	0	0	0	0	564	457	0	499	0	0	
2	0	0	0	0	565	472	0	505	0	0	
3	0	0	0	0	563	488	0	507	0	0	
4	0	0	0	0	562	504	0	505	0	0	
5	0	0	0	0	558	518	0	500	0	0	
6	0	0	0	0	553	528	0	492	0	0	
7	0	0	0	0	548	534	0	481	0	0	
8	0	0	0	0	544	534	0	470	0	0	
9	0	0	0	0	540	530	0	459	0	0	
10	0	0	0	0	536	520	0	448	0	0	
11	0	0	0	0	534	508	0	440	0	0	
12	0	0	0	0	533	492	0	434	0	0	
13	0	0	0	0	533	475	0	431	0	0	
14	0	0	0	0	536	460	0	432	0	0	
15	0	0	0	0	538	445	0	436	0	0	
0	0	0	0	0	542	435	0	444	0	0	
1	0	0	0	0	545	428	0	452	0	0	
2	0	0	0	0	549	427	0	462	0	0	
3	0	0	0	0	553	432	0	472	0	0	
4	0	0	0	0	555	440	0	482	0	0	
5	0	0	0	0	556	453	0	489	0	0	
6	0	0	0	0	556	467	0	494	0	0	
7	0	0	0	0	553	484	0	496	0	0	
8	0	0	0	0	551	500	0	494	0	0	
9	0	0	0	0	547	514	0	489	0	0	
10	0	0	0	0	542	524	0	481	0	0	
11	0	0	0	0	537	529	0	471	0	0	
12	0	0	0	0	532	531	0	460	0	0	
13	0	0	0	0	530	527	0	449	0	0	
14	0	0	0	0	527	518	0	439	0	0	
15	0	0	0	0	526	505	0	431	0	0	
0	0	0	0	0	526	489	0	425	0	0	
1	0	0	0	0	527	473	0	423	0	0	
2	0	0	0	0	530	457	0	424	0	0	
3	0	0	0	0	534	443	0	428	0	0	
4	0	0	0	0	539	432	0	436	0	0	
5	0	0	0	0	543	425	0	446	0	0	
6	0	0	0	0	546	425	0	456	0	0	
7	0	0	0	0	550	429	0	467	0	0	
8	0	0	0	0	551	438	0	477	0	0	
9	0	0	0	0	552	451	0	485	0	0	
10	0	0	0	0	551	466	0	490	0	0	
11	0	0	0	0	550	483	0	492	0	0	
12	0	0	0	0	546	499	0	490	0	0	
13	0	0	0	0	542	512	0	485	0	0	
14	0	0	0	0	537	523	0	477	0	0	
15	0	0	0	0	532	528	0	467	0	0	
0	0	0	0	0	528	529	0	456	0	0	
1	0	0	0	0	525	525	0	445	0	0	
2	0	0	0	0	524	516	0	435	0	0	
3	0	0	0	0	522	503	0	428	0	0	
4	0	0	0	0	524	487	0	423	0	0	
5	0	0	0	0	524	471	0	421	0	0	
6	0	0	0	0	528	455	0	423	0	0	
7	0	0	0	0	532	441	0	429	0	0	
8	0	0	0	0	536	430	0	437	0	0	
9	0	0	0	0	540	424	0	447	0	0	
10	0	0	0	0	543	423	0	458	0	0	
11	0	0	0	0	547	427	0	469	0	0	
12	0	0	0	0	549	436	0	479	0	0	
13	0	0	0	0	550	448	0	486	0	0	
14	0	0	0	0	549	463	0	491	0	0	
15	0	0	0	0	547	479	0	491	0	0	
0	0	0	0	0	544	495	0	488	0	0	
1	0	0	0	0	540	508	0	482	0	0	
2	0	0	0	0	536	519	0	473	0	0	
3	0	0	0	0	531	524	0	463	0	0	
4	0	0	0	0	527	524	0	451	0	0	
5	0	0	0	0	524	519	0	439	0	0	
6	0	0	0	0	522	510	0	429	0	0	
7	0	0	0	0	521	497	0	422	0	0	
8	0	0	0	0	520	481	0	417	0	0	
9	0	0	0	0	522	464	0	415	0	0	
10	0	0	0	0	525	449	0	417	0	0	
11	0	0	0	0	529	435	0	423	0	0	
12	0	0	0	0	533	424	0	432	0	0	
13	0	0	0	0	536	419	0	441	0	0	
14	0	0	0	0	541	418	0	453	0	0	
15	0	0	0	0	543	422	0	464	0	0	
0	0	0	0	0	546	431	0	474	0	0	
1	0	0	0	0	547	444	0	481	0	0	
2	0	0	0	0	547	459	0	487	0	0	
3	0	0	0	0	545	475	0	487	0	0	
4	0	0	0	0	543	491	0	485	0	0	
5	0	0	0	0	540	506	0	479	0	0	
6	0	0	0	0	536	517	0	471	0	0	
7	0	0	0	0	532	523	0	460	0	0	
8	0	0	0	0	528	525	0	449	0	0	
9	0	0	0	0	525	522	0	438	0	0	
10	0	0	0	0	523	513	0	428	0	0	
11	0	0	0	0	521	502	0	420	0	0	
12	0	0	0	0	521	487	0	415	0	0	
13	0	0	0	0	523	471	0	413	0	0	
14	0	0	0	0	526	455	0	415	0	0	
15	0	0	0	0	529	441	0	421	0	0	
0	0	0	0	0	534	431	0	429	0	0	
1	0	0	0	0	538	424	0	440	0	0	
2	0	0	0	0	542	423	0	450	0	0	
3	0	0	0	0	546	427	0	462	0	0	
4	0	0	0	0	548	436	0	472	0	0	
5	0	0	0	0	549	448	0	479	0	0	
6	0	0	0	0	548	463	0	484	0	0	
7	0	0	0	0	546	478	0	486	0	0	
8	0	0	0	0	543	494	0	484	0	0	
9	0	0	0	0	539	508	0	478	0	0	
10	0	0	0	0	534	518	0	469	0	0	
11	0	0	0	0	529	524	0	460	0	0	
12	0	0	0	0	524	525	0	448	0	0	
13	0	0	0	0	522	521	0	438	0	0	
14	0	0	0	0	519	513	0	428	0	0	
15	0	0	0	0	519	501	0	420	0	0	
0	0	0	0	0	519	487	0	416	0	0	
1	0	0	0	0	521	471	0	415	0	0	
2	0	0	0	0	525	456	0	417	0	0	
3	0	0	0	0	530	444	0	423	0	0	
4	0	0	0	0	535	434	0	432	0	0	
5	0	0	0	0	541	429	0	443	0	0	
6	0	0	0	0	545	428	0	455	0	0	
7	0	0	0	0	550	433	0	466	0	0	
8	0	0	0	0	552	442	0	476	0	0	
9	0	0	0	0	553	455	0	485	0	0	
10	0	0	0	0	553	470	0	490	0	0	
11	0	0	0	0	551	487	0	491	0	0	
12	0	0	0	0	548	502	0	488	0	0	
13	0	0	0	0	544	515	0	482	0	0	
14	0	0	0	0	539	525	0	473	0	0	
15	0	0	0	0	533	530	0	462	0	0	
0	0	0	0	0	529	531	0	449	0	0	
1	0	0	0	0	525	526	0	437	0	0	
2	0	0	0	0	522	517	0	426	0	0	
3	0	0	0	0	520	504	0	417	0	0	
4	0	0	0	0	520	488	0	412	0	0	
5	0	0	0	0	521	472	0	409	0	0	
6	0	0	0	0	524	456	0	412	0	0	
7	0	0	0	0	527	442	0	416	0	0	
8	0	0	0	0	532	432	0	425	0	0	
9	0	0	0	0	537	427	0	436	0	0	
10	0	0	0	0	541	426	0	448	0	0	
11	0	0	0	0	545	431	0	461	0	0	
12	0	0	0	0	549	440	0	472	0	0	
13	0	0	0	0	551	453	0	481	0	0	
14	0	0	0	0	551	469	0	487	0	0	
15	0	0	0	0	550	486	0	489	0	0	
0	0	0	0	0	548	502	0	488	0	0	
1	0	0	0	0	544	516	0	483	0	0	
2	0	0	0	0	540	526	0	474	0	0	
3	0	0	0	0	534	531	0	464	0	0	
4	0	0	0	0	529	532	0	451	0	0	
5	0	0	0	0	525	528	0	439	0	0	
6	0	0	0	0	521	519	0	428	0	0	
7	0	0	0	0	518	505	0	419	0	0	
8	0	0	0	0	517	489	0	413	0	0	
9	0	0	0	0	517	472	0	411	0	0	
10	0	0	0	0	519	456	0	412	0	0	
11	0	0	0	0	523	442	0	417	0	0	
12	0	0	0	0	527	431	0	426	0	0	
13	0	0	0	0	532	424	0	436	0	0	
14	0	0	0	0	536	423	0	448	0	0	
15	0	0	0	0	541	427	0	460	0	0	
0	0	0	0	0	544	435	0	470	0	0	
1	0	0	0	0	547	448	0	478	0	0	
2	0	0	0	0	548	463	0	484	0	0	
3	0	0	0	0	547	480	0	486	0	0	
4	0	0	0	0	545	496	0	484	0	0	
5	0	0	0	0	542	510	0	479	0	0	
6	0	0	0	0	537	520	0	471	0	0	
7	0	0	0	0	533	526	0	461	0	0	
8	0	0	0	0	528	527	0	449	0	0	
9	0	0	0	0	525	522	0	438	0	0	
10	0	0	0	0	521	513	0	428	0	0	
11	0	0	0	0	520	501	0	421	0	0	
12	0	0	0	0	520	487	0	416	0	0	
13	0	0	0	0	521	471	0	414	0	0	
14	0	0	0	0	525	455	0	417	0	0	
15	0	0	0	0	529	442	0	423	0	0	
0	0	0	0	0	534	433	0	432	0	0	
1	0	0	0	0	539	428	0	444	0	0	
2	0	0	0	0	543	427	0	455	0	0	
3	0	0	0	0	547	432	0	466	0	0	
4	0	0	0	0	550	440	0	476	0	0	
5	0	0	0	0	552	453	0	484	0	0	
6	0	0	0	0	552	468	0	489	0	0	
7	0	0	0	0	551	484	0	490	0	0	
8	0	0	0	0	549	500	0	488	0	0	
9	0	0	0	0	545	514	0	482	0	0	
10	0	0	0	0	540	524	0	473	0	0	
11	0	0	0	0	536	530	0	463	0	0	
12	0	0	0	0	531	531	0	451	0	0	
13	0	0	0	0	528	528	0	439	0	0	
14	0	0	0	0	525	519	0	429	0	0	
15	0	0	0	0	523	508	0	421	0	0	
0	0	0	0	0	522	493	0	415	0	0	
1	0	0	0	0	523	477	0	413	0	0	
2	0	0	0	0	526	461	0	415	0	0	
3	0	0	0	0	529	448	0	419	0	0	
4	0	0	0	0	533	437	0	428	0	0	
5	0	0	0	0	537	430	0	438	0	0	
6	0	0	0	0	541	428	0	449	0	0	
7	0	0	0	0	545	432	0	460	0	0	
8	0	0	0	0	547	440	0	470	0	0	
9	0	0	0	0	550	451	0	478	0	0	
10	0	0	0	0	550	465	0	483	0	0	
11	0	0	0	0	548	480	0	484	0	0	
12	0	0	0	0	546	495	0	482	0	0	
13	0	0	0	0	542	508	0	477	0	0	
14	0	0	0	0	536	518	0	468	0	0	
15	0	0	0	0	531	524	0	458	0	0	
0	0	0	0	0	526	524	0	447	0	0	
1	0	0	0	0	522	521	0	436	0	0	
2	0	0	0	0	518	512	0	426	0	0	
3	0	0	0	0	516	501	0	419	0	0	
4	0	0	0	0	515	486	0	414	0	0	
5	0	0	0	0	516	471	0	412	0	0	
6	0	0	0	0	519	456	0	415	0	0	
7	0	0	0	0	524	443	0	421	0	0	
8	0	0	0	0	529	433	0	430	0	0	
9	0	0	0	0	534	427	0	440	0	0	
10	0	0	0	0	538	425	0	451	0	0	
11	0	0	0	0	543	429	0	463	0	0	
12	0	0	0	0	546	438	0	473	0	0	
13	0	0	0	0	548	449	0	481	0	0	
14	0	0	0	0	548	463	0	486	0	0	
15	0	0	0	0	547	479	0	487	0	0	
0	0	0	0	0	544	495	0	486	0	0	
1	0	0	0	0	540	508	0	480	0	0	
2	0	0	0	0	536	519	0	472	0	0	
3	0	0	0	0	531	524	0	461	0	0	
4	0	0	0	0	526	525	0	449	0	0	
5	0	0	0	0	523	522	0	438	0	0	
6	0	0	0	0	520	513	0	428	0	0	
7	0	0	0	0	518	501	0	420	0	0	
8	0	0	0	0	517	486	0	414	0	0	
9	0	0	0	0	518	470	0	412	0	0	
10	0	0	0	0	520	453	0	412	0	0	
11	0	0	0	0	524	439	0	417	0	0	
12	0	0	0	0	527	428	0	424	0	0	
13	0	0	0	0	531	421	0	433	0	0	
14	0	0	0	0	535	419	0	444	0	0	
15	0	0	0	0	539	422	0	454	0	0	
0	0	0	0	0	542	430	0	464	0	0	
1	0	0	0	0	543	441	0	471	0	0	
2	0	0	0	0	543	455	0	476	0	0	
3	0	0	0	0	541	471	0	478	0	0	
4	0	0	0	0	539	486	0	476	0	0	
5	0	0	0	0	534	499	0	470	0	0	
6	0	0	0	0	529	510	0	461	0	0	
7	0	0	0	0	524	515	0	451	0	0	
8	0	0	0	0	519	516	0	440	0	0	
9	0	0	0	0	515	512	0	429	0	0	
10	0	0	0	0	512	504	0	419	0	0	
11	0	0	0	0	510	491	0	412	0	0	
12	0	0	0	0	508	476	0	407	0	0	
13	0	0	0	0	510	460	0	406	0	0	
14	0	0	0	0	511	444	0	408	0	0	
15	0	0	0	0	515	430	0	414	0	0	
0	0	0	0	0	519	420	0	423	0	0	
1	0	0	0	0	524	414	0	434	0	0	
2	0	0	0	0	528	412	0	446	0	0	
3	0	0	0	0	533	417	0	458	0	0	
4	0	0	0	0	537	425	0	468	0	0	
5	0	0	0	0	540	439	0	477	0	0	
6	0	0	0	0	541	454	0	482	0	0	
7	0	0	0	0	541	470	0	484	0	0	
8	0	0	0	0	540	487	0	482	0	0	
9	0	0	0	0	537	501	0	476	0	0	
10	0	0	0	0	533	512	0	467	0	0	
11	0	0	0	0	529	519	0	457	0	0	
12	0	0	0	0	525	521	0	446	0	0	
13	0	0	0	0	521	518	0	434	0	0	
14	0	0	0	0	518	509	0	424	0	0	
15	0	0	0	0	515	496	0	417	0	0	
0	0	0	0	0	515	481	0	412	0	0	
1	0	0	0	0	515	465	0	410	0	0	
2	0	0	0	0	517	449	0	412	0	0	
3	0	0	0	0	520	435	0	418	0	0	
4	0	0	0	0	525	424	0	427	0	0	
5	0	0	0	0	529	418	0	438	0	0	
6	0	0	0	0	533	416	0	449	0	0	
7	0	0	0	0	537	420	0	460	0	0	
8	0	0	0	0	540	428	0	471	0	0	
9	0	0	0	0	542	440	0	479	0	0	
10	0	0	0	0	542	455	0	484	0	0	
11	0	0	0	0	541	472	0	485	0	0	
12	0	0	0	0	538	488	0	483	0	0	
13	0	0	0	0	534	502	0	478	0	0	
14	0	0	0	0	529	513	0	470	0	0	
15	0	0	0	0	524	519	0	459	0	0	
0	0	0	0	0	520	521	0	448	0	0	
1	0	0	0	0	516	519	0	437	0	0	
2	0	0	0	0	513	510	0	427	0	0	
3	0	0	0	0	511	498	0	420	0	0	
4	0	0	0	0	511	483	0	415	0	0	
5	0	0	0	0	513	467	0	414	0	0	
6	0	0	0	0	516	452	0	416	0	0	
7	0	0	0	0	520	438	0	423	0	0	
8	0	0	0	0	526	427	0	432	0	0	
9	0	0	0	0	530	420	0	442	0	0	
10	0	0	0	0	535	419	0	453	0	0	
11	0	0	0	0	538	423	0	464	0	0	
12	0	0	0	0	540	431	0	475	0	0	
13	0	0	0	0	541	443	0	482	0	0	
14	0	0	0	0	540	457	0	486	0	0	
15	0	0	0	0	539	473	0	487	0	0	
0	0	0	0	0	535	488	0	484	0	0	
1	0	0	0	0	531	502	0	479	0	0	
2	0	0	0	0	526	512	0	469	0	0	
3	0	0	0	0	520	517	0	458	0	0	
4	0	0	0	0	516	518	0	446	0	0	
5	0	0	0	0	513	514	0	435	0	0	
6	0	0	0	0	511	505	0	424	0	0	
7	0	0	0	0	510	493	0	416	0	0	
8	0	0	0	0	510	478	0	411	0	0	
9	0	0	0	0	512	463	0	409	0	0	
10	0	0	0	0	515	447	0	412	0	0	
11	0	0	0	0	519	434	0	418	0	0	
12	0	0	0	0	525	424	0	427	0	0	
13	0	0	0	0	529	418	0	438	0	0	
14	0	0	0	0	534	418	0	450	0	0	
15	0	0	0	0	539	422	0	462	0	0	
0	0	0	0	0	542	431	0	472	0	0	
1	0	0	0	0	543	443	0	481	0	0	
2	0	0	0	0	543	457	0	487	0	0	
3	0	0	0	0	541	474	0	488	0	0	
4	0	0	0	0	538	489	0	486	0	0	
5	0	0	0	0	534	503	0	480	0	0	
6	0	0	0	0	528	513	0	472	0	0	
7	0	0	0	0	523	519	0	461	0	0	
8	0	0	0	0	518	520	0	449	0	0	
9	0	0	0	0	514	517	0	437	0	0	
10	0	0	0	0	512	509	0	427	0	0	
11	0	0	0	0	511	497	0	419	0	0	
12	0	0	0	0	510	482	0	413	0	0	
13	0	0	0	0	512	466	0	412	0	0	
14	0	0	0	0	515	451	0	414	0	0	
15	0	0	0	0	520	438	0	419	0	0	
0	0	0	0	0	525	428	0	428	0	0	
1	0	0	0	0	531	422	0	439	0	0	
2	0	0	0	0	535	420	0	451	0	0	
3	0	0	0	0	540	424	0	463	0	0	
4	0	0	0	0	543	433	0	474	0	0	
5	0	0	0	0	545	445	0	483	0	0	
6	0	0	0	0	546	460	0	488	0	0	
7	0	0	0	0	544	476	0	491	0	0	
8	0	0	0	0	542	492	0	489	0	0	
9	0	0	0	0	539	507	0	484	0	0	
10	0	0	0	0	535	517	0	476	0	0	
11	0	0	0	0	529	524	0	465	0	0	
12	0	0	0	0	525	524	0	454	0	0	
13	0	0	0	0	522	521	0	443	0	0	
14	0	0	0	0	519	512	0	433	0	0	
15	0	0	0	0	518	499	0	424	0	0	
0	0	0	0	0	518	484	0	419	0	0	
1	0	0	0	0	519	468	0	416	0	0	
2	0	0	0	0	521	452	0	418	0	0	
3	0	0	0	0	525	438	0	423	0	0	
4	0	0	0	0	529	428	0	431	0	0	
5	0	0	0	0	533	421	0	441	0	0	
6	0	0	0	0	537	420	0	453	0	0	
7	0	0	0	0	542	424	0	464	0	0	
8	0	0	0	0	544	433	0	475	0	0	
9	0	0	0	0	547	446	0	484	0	0	
10	0	0	0	0	548	462	0	490	0	0	
11	0	0	0	0	548	479	0	492	0	0	
12	0	0	0	0	546	495	0	491	0	0	
13	0	0	0	0	543	509	0	486	0	0	
14	0	0	0	0	539	520	0	478	0	0	
15	0	0	0	0	535	526	0	468	0	0	
0	0	0	0	0	531	528	0	457	0	0	
1	0	0	0	0	527	524	0	446	0	0	
2	0	0	0	0	524	515	0	435	0	0	
3	0	0	0	0	522	503	0	427	0	0	
4	0	0	0	0	521	487	0	421	0	0	
5	0	0	0	0	521	471	0	419	0	0	
6	0	0	0	0	523	455	0	420	0	0	
7	0	0	0	0	526	440	0	425	0	0	
8	0	0	0	0	529	428	0	432	0	0	
9	0	0	0	0	532	420	0	442	0	0	
10	0	0	0	0	536	418	0	452	0	0	
11	0	0	0	0	539	420	0	463	0	0	
12	0	0	0	0	541	428	0	472	0	0	
13	0	0	0	0	542	439	0	479	0	0	
14	0	0	0	0	541	452	0	483	0	0	
15	0	0	0	0	540	468	0	483	0	0	
0	0	0	0	0	536	483	0	480	0	0	
1	0	0	0	0	532	496	0	473	0	0	
2	0	0	0	0	527	506	0	464	0	0	
3	0	0	0	0	522	512	0	454	0	0	
4	0	0	0	0	517	512	0	441	0	0	
5	0	0	0	0	513	508	0	430	0	0	
6	0	0	0	0	510	499	0	420	0	0	
7	0	0	0	0	508	486	0	412	0	0	
8	0	0	0	0	507	470	0	407	0	0	
9	0	0	0	0	507	453	0	404	0	0	
10	0	0	0	0	509	437	0	406	0	0	
11	0	0	0	0	512	423	0	411	0	0	
12	0	0	0	0	515	411	0	419	0	0	
13	0	0	0	0	519	404	0	430	0	0	
14	0	0	0	0	523	403	0	440	0	0	
15	0	0	0	0	527	407	0	451	0	0	
0	0	0	0	0	530	415	0	462	0	0	
1	0	0	0	0	532	428	0	470	0	0	
2	0	0	0	0	532	444	0	476	0	0	
3	0	0	0	0	532	460	0	478	0	0	
4	0	0	0	0	530	477	0	476	0	0	
5	0	0	0	0	527	492	0	471	0	0	
6	0	0	0	0	524	504	0	462	0	0	
7	0	0	0	0	519	510	0	452	0	0	
8	0	0	0	0	515	512	0	441	0	0	
9	0	0	0	0	512	509	0	430	0	0	
10	0	0	0	0	511	501	0	420	0	0	
11	0	0	0	0	509	489	0	412	0	0	
12	0	0	0	0	510	474	0	408	0	0	
13	0	0	0	0	511	457	0	406	0	0	
14	0	0	0	0	514	442	0	408	0	0	
15	0	0	0	0	518	428	0	414	0	0	
0	0	0	0	0	523	417	0	423	0	0	
1	0	0	0	0	527	411	0	433	0	0	
2	0	0	0	0	531	409	0	445	0	0	
3	0	0	0	0	536	413	0	456	0	0	
4	0	0	0	0	539	422	0	466	0	0	
5	0	0	0	0	540	434	0	473	0	0	
6	0	0	0	0	540	448	0	478	0	0	
7	0	0	0	0	539	465	0	479	0	0	
8	0	0	0	0	537	481	0	477	0	0	
9	0	0	0	0	532	495	0	471	0	0	
10	0	0	0	0	528	506	0	462	0	0	
11	0	0	0	0	523	513	0	451	0	0	
12	0	0	0	0	518	514	0	439	0	0	
13	0	0	0	0	515	511	0	428	0	0	
14	0	0	0	0	512	503	0	418	0	0	
15	0	0	0	0	511	491	0	410	0	0	
0	0	0	0	0	511	477	0	406	0	0	
1	0	0	0	0	513	462	0	404	0	0	
2	0	0	0	0	517	447	0	407	0	0	
3	0	0	0	0	523	434	0	414	0	0	
4	0	0	0	0	528	424	0	423	0	0	
5	0	0	0	0	534	419	0	435	0	0	
6	0	0	0	0	540	419	0	447	0	0	
7	0	0	0	0	545	423	0	460	0	0	
8	0	0	0	0	548	432	0	472	0	0	
9	0	0	0	0	551	446	0	481	0	0	
10	0	0	0	0	551	461	0	487	0	0	
11	0	0	0	0	550	478	0	489	0	0	
12	0	0	0	0	547	494	0	487	0	0	
13	0	0	0	0	543	508	0	482	0	0	
14	0	0	0	0	538	519	0	474	0	0	
15	0	0	0	0	532	525	0	463	0	0	
0	0	0	0	0	527	526	0	451	0	0	
1	0	0	0	0	522	522	0	439	0	0	
2	0	0	0	0	518	513	0	428	0	0	
3	0	0	0	0	515	501	0	419	0	0	
4	0	0	0	0	514	486	0	413	0	0	
5	0	0	0	0	514	470	0	411	0	0	
6	0	0	0	0	517	455	0	412	0	0	
7	0	0	0	0	521	441	0	417	0	0	
8	0	0	0	0	525	431	0	425	0	0	
9	0	0	0	0	530	424	0	435	0	0	
10	0	0	0	0	534	423	0	446	0	0	
11	0	0	0	0	538	427	0	457	0	0	
12	0	0	0	0	542	436	0	467	0	0	
13	0	0	0	0	543	448	0	476	0	0	
14	0	0	0	0	543	463	0	481	0	0	
15	0	0	0	0	542	479	0	483	0	0	
0	0	0	0	0	540	495	0	481	0	0	
1	0	0	0	0	536	508	0	475	0	0	
2	0	0	0	0	531	518	0	467	0	0	
3	0	0	0	0	526	524	0	456	0	0	
4	0	0	0	0	520	524	0	444	0	0	
5	0	0	0	0	517	519	0	432	0	0	
6	0	0	0	0	513	510	0	422	0	0	
7	0	0	0	0	511	496	0	413	0	0	
8	0	0	0	0	510	480	0	408	0	0	
9	0	0	0	0	511	464	0	405	0	0	
10	0	0	0	0	514	448	0	407	0	0	
11	0	0	0	0	518	434	0	413	0	0	
12	0	0	0	0	523	423	0	422	0	0	
13	0	0	0	0	528	417	0	432	0	0	
14	0	0	0	0	532	416	0	445	0	0	
15	0	0	0	0	536	419	0	456	0	0	
0	0	0	0	0	539	428	0	466	0	0	
1	0	0	0	0	538	439	0	473	0	0	
2	0	0	0	0	536	452	0	476	0	0	
3	0	0	0	0	531	465	0	474	0	0	
4	0	0	0	0	524	477	0	468	0	0	
5	0	0	0	0	514	486	0	456	0	0	
6	0	0	0	0	502	489	0	440	0	0	
7	0	0	0	0	487	487	0	421	0	0	
8	0	0	0	0	473	480	0	400	0	0	
9	0	0	0	0	459	465	0	377	0	0	
10	0	0	0	0	445	447	0	356	0	0	
11	0	0	0	0	431	423	0	336	0	0	
12	0	0	0	0	418	396	0	318	0	0	
13	0	0	0	0	407	368	0	303	0	0	
14	0	0	0	0	398	341	0	292	0	0	
15	0	0	0	0	389	315	0	285	0	0	
0	0	0	0	0	382	292	0	282	0	0	
1	0	0	0	0	376	274	0	281	0	0	
2	0	0	0	0	369	260	0	282	0	0	
3	0	0	0	0	362	252	0	283	0	0	
4	0	0	0	0	355	249	0	283	0	0	
5	0	0	0	0	346	249	0	282	0	0	
6	0	0	0	0	336	254	0	279	0	0	
7	0	0	0	0	325	261	0	272	0	0	
8	0	0	0	0	314	269	0	263	0	0	
9	0	0	0	0	303	276	0	251	0	0	
10	0	0	0	0	294	283	0	239	0	0	
11	0	0	0	0	287	288	0	226	0	0	
12	0	0	0	0	283	291	0	216	0	0	
13	0	0	0	0	284	292	0	207	0	0	
14	0	0	0	0	289	292	0	204	0	0	
15	0	0	0	0	298	290	0	207	0	0	
0	0	0	0	0	313	288	0	215	0	0	
1	0	0	0	0	333	288	0	230	0	0	
2	0	0	0	0	358	291	0	251	0	0	
3	0	0	0	0	385	296	0	278	0	0	
4	0	0	0	0	415	306	0	310	0	0	
5	0	0	0	0	445	320	0	345	0	0	
6	0	0	0	0	474	339	0	380	0	0	
7	0	0	0	0	502	364	0	415	0	0	
8	0	0	0	0	526	391	0	446	0	0	
9	0	0	0	0	545	420	0	473	0	0	
10	0	0	0	0	560	451	0	494	0	0	
11	0	0	0	0	569	481	0	508	0	0	
12	0	0	0	0	575	508	0	515	0	0	
13	0	0	0	0	574	531	0	515	0	0	
14	0	0	0	0	571	548	0	509	0	0	
15	0	0	0	0	564	559	0	499	0	0	
0	0	0	0	0	556	562	0	486	0	0	
1	0	0	0	0	548	558	0	471	0	0	
2	0	0	0	0	541	547	0	456	0	0	
3	0	0	0	0	533	532	0	444	0	0	
4	0	0	0	0	528	513	0	433	0	0	
5	0	0	0	0	524	492	0	427	0	0	
6	0	0	0	0	524	472	0	424	0	0	
7	0	0	0	0	525	453	0	426	0	0	
8	0	0	0	0	528	439	0	432	0	0	
9	0	0	0	0	531	429	0	441	0	0	
10	0	0	0	0	536	425	0	452	0	0	
11	0	0	0	0	541	428	0	463	0	0	
12	0	0	0	0	545	435	0	474	0	0	
13	0	0	0	0	548	448	0	484	0	0	
14	0	0	0	0	550	463	0	491	0	0	
15	0	0	0	0	550	480	0	494	0	0	
0	0	0	0	0	549	498	0	495	0	0	
1	0	0	0	0	547	514	0	491	0	0	
2	0	0	0	0	543	527	0	485	0	0	
3	0	0	0	0	540	535	0	476	0	0	
4	0	0	0	0	535	537	0	466	0	0	
5	0	0	0	0	533	536	0	455	0	0	
6	0	0	0	0	531	529	0	446	0	0	
7	0	0	0	0	529	518	0	439	0	0	
8	0	0	0	0	529	503	0	434	0	0	
9	0	0	0	0	530	487	0	432	0	0	
10	0	0	0	0	533	472	0	434	0	0	
11	0	0	0	0	537	458	0	439	0	0	
12	0	0	0	0	541	447	0	447	0	0	
13	0	0	0	0	545	441	0	457	0	0	
14	0	0	0	0	550	440	0	468	0	0	
15	0	0	0	0	553	444	0	479	0	0	
0	0	0	0	0	556	452	0	489	0	0	
1	0	0	0	0	558	465	0	498	0	0	
2	0	0	0	0	559	480	0	504	0	0	
3	0	0	0	0	558	497	0	506	0	0	
4	0	0	0	0	556	514	0	505	0	0	
5	0	0	0	0	552	529	0	500	0	0	
6	0	0	0	0	548	540	0	493	0	0	
7	0	0	0	0	544	547	0	483	0	0	
8	0	0	0	0	540	549	0	472	0	0	
9	0	0	0	0	536	545	0	461	0	0	
10	0	0	0	0	534	537	0	451	0	0	
11	0	0	0	0	532	525	0	444	0	0	
12	0	0	0	0	532	509	0	438	0	0	
13	0	0	0	0	533	493	0	436	0	0	
14	0	0	0	0	536	477	0	438	0	0	
15	0	0	0	0	540	462	0	443	0	0	
0	0	0	0	0	544	451	0	451	0	0	
1	0	0	0	0	549	444	0	461	0	0	
2	0	0	0	0	552	441	0	472	0	0	
3	0	0	0	0	557	445	0	483	0	0	
4	0	0	0	0	559	453	0	493	0	0	
5	0	0	0	0	561	465	0	502	0	0	
6	0	0	0	0	561	480	0	507	0	0	
7	0	0	0	0	559	497	0	509	0	0	
8	0	0	0	0	557	513	0	507	0	0	
9	0	0	0	0	553	527	0	502	0	0	
10	0	0	0	0	549	538	0	494	0	0	
11	0	0	0	0	544	545	0	483	0	0	
12	0	0	0	0	540	546	0	472	0	0	
13	0	0	0	0	536	542	0	460	0	0	
14	0	0	0	0	534	534	0	450	0	0	
15	0	0	0	0	532	520	0	442	0	0	
0	0	0	0	0	532	504	0	435	0	0	
1	0	0	0	0	533	487	0	434	0	0	
2	0	0	0	0	536	471	0	436	0	0	
3	0	0	0	0	540	456	0	441	0	0	
4	0	0	0	0	544	445	0	449	0	0	
5	0	0	0	0	548	438	0	460	0	0	
6	0	0	0	0	552	435	0	472	0	0	
7	0	0	0	0	556	439	0	483	0	0	
8	0	0	0	0	558	447	0	493	0	0	
9	0	0	0	0	560	460	0	502	0	0	
10	0	0	0	0	559	474	0	507	0	0	
11	0	0	0	0	556	490	0	508	0	0	
12	0	0	0	0	553	506	0	506	0	0	
13	0	0	0	0	548	520	0	500	0	0	
14	0	0	0	0	543	531	0	491	0	0	
15	0	0	0	0	538	536	0	480	0	0	
0	0	0	0	0	533	538	0	468	0	0	
1	0	0	0	0	529	534	0	456	0	0	
2	0	0	0	0	527	526	0	446	0	0	
3	0	0	0	0	526	513	0	439	0	0	
4	0	0	0	0	527	498	0	434	0	0	
5	0	0	0	0	528	481	0	432	0	0	
6	0	0	0	0	532	466	0	435	0	0	
7	0	0	0	0	537	452	0	441	0	0	
8	0	0	0	0	543	442	0	450	0	0	
9	0	0	0	0	548	436	0	461	0	0	
10	0	0	0	0	554	435	0	472	0	0	
11	0	0	0	0	558	439	0	483	0	0	
12	0	0	0	0	561	448	0	494	0	0	
13	0	0	0	0	562	461	0	501	0	0	
14	0	0	0	0	561	476	0	505	0	0	
15	0	0	0	0	560	493	0	507	0	0	
0	0	0	0	0	556	509	0	505	0	0	
1	0	0	0	0	551	523	0	499	0	0	
2	0	0	0	0	547	535	0	491	0	0	
3	0	0	0	0	541	541	0	481	0	0	
4	0	0	0	0	536	542	0	469	0	0	
5	0	0	0	0	532	539	0	458	0	0	
6	0	0	0	0	529	531	0	449	0	0	
7	0	0	0	0	528	519	0	441	0	0	
8	0	0	0	0	527	503	0	436	0	0	
9	0	0	0	0	529	487	0	435	0	0	
10	0	0	0	0	534	471	0	437	0	0	
11	0	0	0	0	538	456	0	443	0	0	
12	0	0	0	0	543	444	0	451	0	0	
13	0	0	0	0	548	437	0	461	0	0	
14	0	0	0	0	553	435	0	472	0	0	
15	0	0	0	0	558	439	0	483	0	0	
0	0	0	0	0	561	447	0	494	0	0	
1	0	0	0	0	562	459	0	502	0	0	
2	0	0	0	0	562	473	0	508	0	0	
3	0	0	0	0	560	489	0	509	0	0	
4	0	0	0	0	558	506	0	507	0	0	
5	0	0	0	0	553	520	0	501	0	0	
6	0	0	0	0	547	531	0	493	0	0	
7	0	0	0	0	542	537	0	482	0	0	
8	0	0	0	0	536	539	0	470	0	0	
9	0	0	0	0	532	535	0	458	0	0	
10	0	0	0	0	528	527	0	448	0	0	
11	0	0	0	0	526	514	0	439	0	0	
12	0	0	0	0	525	499	0	433	0	0	
13	0	0	0	0	526	483	0	430	0	0	
14	0	0	0	0	529	467	0	432	0	0	
15	0	0	0	0	533	453	0	438	0	0	
0	0	0	0	0	538	442	0	446	0	0	
1	0	0	0	0	543	435	0	456	0	0	
2	0	0	0	0	548	435	0	468	0	0	
3	0	0	0	0	553	439	0	480	0	0	
4	0	0	0	0	557	448	0	491	0	0	
5	0	0	0	0	560	460	0	500	0	0	
6	0	0	0	0	560	476	0	506	0	0	
7	0	0	0	0	560	493	0	508	0	0	
8	0	0	0	0	557	510	0	507	0	0	
9	0	0	0	0	553	524	0	502	0	0	
10	0	0	0	0	548	535	0	494	0	0	
11	0	0	0	0	544	542	0	483	0	0	
12	0	0	0	0	539	544	0	472	0	0	
13	0	0	0	0	535	540	0	461	0	0	
14	0	0	0	0	531	532	0	451	0	0	
15	0	0	0	0	529	520	0	443	0	0	
0	0	0	0	0	527	505	0	438	0	0	
1	0	0	0	0	529	489	0	435	0	0	
2	0	0	0	0	531	474	0	436	0	0	
3	0	0	0	0	535	460	0	441	0	0	
4	0	0	0	0	540	449	0	449	0	0	
5	0	0	0	0	544	443	0	460	0	0	
6	0	0	0	0	549	442	0	470	0	0	
7	0	0	0	0	553	445	0	481	0	0	
8	0	0	0	0	557	454	0	491	0	0	
9	0	0	0	0	559	465	0	499	0	0	
10	0	0	0	0	559	479	0	504	0	0	
11	0	0	0	0	558	495	0	504	0	0	
12	0	0	0	0	555	510	0	502	0	0	
13	0	0	0	0	551	524	0	496	0	0	
14	0	0	0	0	547	534	0	487	0	0	
15	0	0	0	0	541	540	0	477	0	0	
0	0	0	0	0	536	541	0	466	0	0	
1	0	0	0	0	532	537	0	454	0	0	
2	0	0	0	0	529	529	0	445	0	0	
3	0	0	0	0	528	516	0	437	0	0	
4	0	0	0	0	527	502	0	432	0	0	
5	0	0	0	0	528	486	0	430	0	0	
6	0	0	0	0	531	470	0	433	0	0	
7	0	0	0	0	536	457	0	439	0	0	
8	0	0	0	0	540	446	0	448	0	0	
9	0	0	0	0	545	440	0	457	0	0	
10	0	0	0	0	549	438	0	470	0	0	
11	0	0	0	0	554	441	0	481	0	0	
12	0	0	0	0	557	450	0	492	0	0	
13	0	0	0	0	559	462	0	499	0	0	
14	0	0	0	0	559	476	0	505	0	0	
15	0	0	0	0	558	493	0	507	0	0	
0	0	0	0	0	555	509	0	505	0	0	
1	0	0	0	0	551	522	0	500	0	0	
2	0	0	0	0	547	533	0	492	0	0	
3	0	0	0	0	542	540	0	482	0	0	
4	0	0	0	0	537	542	0	471	0	0	
5	0	0	0	0	533	538	0	460	0	0	
6	0	0	0	0	529	530	0	449	0	0	
7	0	0	0	0	527	518	0	442	0	0	
8	0	0	0	0	526	503	0	436	0	0	
9	0	0	0	0	527	487	0	434	0	0	
10	0	0	0	0	528	471	0	435	0	0	
11	0	0	0	0	532	457	0	440	0	0	
12	0	0	0	0	536	446	0	448	0	0	
13	0	0	0	0	541	438	0	458	0	0	
14	0	0	0	0	545	436	0	468	0	0	
15	0	0	0	0	550	439	0	479	0	0	
0	0	0	0	0	552	446	0	488	0	0	
1	0	0	0	0	555	458	0	496	0	0	
2	0	0	0	0	556	473	0	501	0	0	
3	0	0	0	0	555	488	0	502	0	0	
4	0	0	0	0	553	505	0	501	0	0	
5	0	0	0	0	550	519	0	496	0	0	
6	0	0	0	0	547	531	0	488	0	0	
7	0	0	0	0	543	538	0	479	0	0	
8	0	0	0	0	539	540	0	468	0	0	
9	0	0	0	0	536	538	0	459	0	0	
10	0	0	0	0	534	531	0	449	0	0	
11	0	0	0	0	533	520	0	443	0	0	
12	0	0	0	0	533	506	0	439	0	0	
13	0	0	0	0	535	490	0	437	0	0	
14	0	0	0	0	537	476	0	440	0	0	
15	0	0	0	0	541	462	0	445	0	0	
0	0	0	0	0	545	452	0	453	0	0	
1	0	0	0	0	549	446	0	463	0	0	
2	0	0	0	0	552	444	0	474	0	0	
3	0	0	0	0	555	448	0	484	0	0	
4	0	0	0	0	557	455	0	494	0	0	
5	0	0	0	0	558	467	0	501	0	0	
6	0	0	0	0	556	480	0	505	0	0	
7	0	0	0	0	554	496	0	505	0	0	
8	0	0	0	0	551	511	0	502	0	0	
9	0	0	0	0	546	523	0	496	0	0	
10	0	0	0	0	541	533	0	487	0	0	
11	0	0	0	0	536	539	0	476	0	0	
12	0	0	0	0	531	539	0	464	0	0	
13	0	0	0	0	527	535	0	452	0	0	
14	0	0	0	0	524	526	0	442	0	0	
15	0	0	0	0	522	514	0	435	0	0	
0	0	0	0	0	522	499	0	430	0	0	
1	0	0	0	0	523	483	0	428	0	0	
2	0	0	0	0	526	467	0	430	0	0	
3	0	0	0	0	530	454	0	436	0	0	
4	0	0	0	0	535	444	0	446	0	0	
5	0	0	0	0	540	438	0	456	0	0	
6	0	0	0	0	543	436	0	468	0	0	
7	0	0	0	0	547	441	0	480	0	0	
8	0	0	0	0	550	449	0	490	0	0	
9	0	0	0	0	552	462	0	498	0	0	
10	0	0	0	0	551	476	0	504	0	0	
11	0	0	0	0	551	493	0	505	0	0	
12	0	0	0	0	548	509	0	503	0	0	
13	0	0	0	0	544	524	0	498	0	0	
14	0	0	0	0	539	534	0	489	0	0	
15	0	0	0	0	534	540	0	478	0	0	
0	0	0	0	0	529	541	0	466	0	0	
1	0	0	0	0	525	537	0	454	0	0	
2	0	0	0	0	522	528	0	444	0	0	
3	0	0	0	0	519	515	0	435	0	0	
4	0	0	0	0	519	499	0	430	0	0	
5	0	0	0	0	519	482	0	427	0	0	
6	0	0	0	0	522	465	0	428	0	0	
7	0	0	0	0	525	450	0	433	0	0	
8	0	0	0	0	529	438	0	441	0	0	
9	0	0	0	0	533	431	0	451	0	0	
10	0	0	0	0	538	429	0	463	0	0	
11	0	0	0	0	543	434	0	475	0	0	
12	0	0	0	0	547	443	0	487	0	0	
13	0	0	0	0	551	457	0	496	0	0	
14	0	0	0	0	553	474	0	504	0	0	
15	0	0	0	0	554	492	0	507	0	0	
0	0	0	0	0	554	511	0	507	0	0	
1	0	0	0	0	553	528	0	504	0	0	
2	0	0	0	0	551	542	0	497	0	0	
3	0	0	0	0	548	551	0	489	0	0	
4	0	0	0	0	544	554	0	479	0	0	
5	0	0	0	0	543	552	0	468	0	0	
6	0	0	0	0	540	545	0	459	0	0	
7	0	0	0	0	539	533	0	451	0	0	
8	0	0	0	0	538	517	0	445	0	0	
9	0	0	0	0	538	500	0	443	0	0	
10	0	0	0	0	540	483	0	443	0	0	
11	0	0	0	0	542	467	0	448	0	0	
12	0	0	0	0	545	455	0	455	0	0	
13	0	0	0	0	547	446	0	463	0	0	
14	0	0	0	0	550	443	0	473	0	0	
15	0	0	0	0	553	445	0	483	0	0	
0	0	0	0	0	555	453	0	493	0	0	
1	0	0	0	0	555	464	0	500	0	0	
2	0	0	0	0	556	479	0	505	0	0	
3	0	0	0	0	554	495	0	507	0	0	
4	0	0	0	0	552	512	0	505	0	0	
5	0	0	0	0	549	527	0	501	0	0	
6	0	0	0	0	545	539	0	494	0	0	
7	0	0	0	0	541	545	0	484	0	0	
8	0	0	0	0	537	548	0	474	0	0	
9	0	0	0	0	535	545	0	464	0	0	
10	0	0	0	0	532	538	0	455	0	0	
11	0	0	0	0	531	526	0	448	0	0	
12	0	0	0	0	531	511	0	444	0	0	
13	0	0	0	0	533	495	0	443	0	0	
14	0	0	0	0	537	479	0	445	0	0	
15	0	0	0	0	541	465	0	451	0	0	
0	0	0	0	0	546	454	0	459	0	0	
1	0	0	0	0	551	448	0	470	0	0	
2	0	0	0	0	556	447	0	482	0	0	
3	0	0	0	0	561	451	0	493	0	0	
4	0	0	0	0	564	459	0	503	0	0	
5	0	0	0	0	567	472	0	511	0	0	
6	0	0	0	0	567	487	0	517	0	0	
7	0	0	0	0	566	504	0	518	0	0	
8	0	0	0	0	563	520	0	516	0	0	
9	0	0	0	0	559	534	0	510	0	0	
10	0	0	0	0	553	545	0	502	0	0	
11	0	0	0	0	547	551	0	491	0	0	
12	0	0	0	0	542	553	0	478	0	0	
13	0	0	0	0	538	549	0	466	0	0	
14	0	0	0	0	534	539	0	455	0	0	
15	0	0	0	0	531	527	0	446	0	0	
0	0	0	0	0	530	511	0	440	0	0	
1	0	0	0	0	530	494	0	437	0	0	
2	0	0	0	0	532	477	0	438	0	0	
3	0	0	0	0	535	462	0	443	0	0	
4	0	0	0	0	539	451	0	451	0	0	
5	0	0	0	0	543	444	0	461	0	0	
6	0	0	0	0	547	441	0	472	0	0	
7	0	0	0	0	551	446	0	484	0	0	
8	0	0	0	0	554	454	0	495	0	0	
9	0	0	0	0	556	466	0	503	0	0	
10	0	0	0	0	556	481	0	509	0	0	
11	0	0	0	0	556	498	0	511	0	0	
12	0	0	0	0	553	515	0	510	0	0	
13	0	0	0	0	549	529	0	504	0	0	
14	0	0	0	0	545	540	0	496	0	0	
15	0	0	0	0	540	547	0	486	0	0	
0	0	0	0	0	535	547	0	473	0	0	
1	0	0	0	0	531	544	0	460	0	0	
2	0	0	0	0	528	535	0	448	0	0	
3	0	0	0	0	525	522	0	439	0	0	
4	0	0	0	0	524	506	0	432	0	0	
5	0	0	0	0	524	488	0	428	0	0	
6	0	0	0	0	526	472	0	428	0	0	
7	0	0	0	0	528	457	0	432	0	0	
8	0	0	0	0	532	446	0	440	0	0	
9	0	0	0	0	537	440	0	450	0	0	
10	0	0	0	0	541	439	0	463	0	0	
11	0	0	0	0	546	443	0	476	0	0	
12	0	0	0	0	550	452	0	487	0	0	
13	0	0	0	0	553	465	0	498	0	0	
14	0	0	0	0	555	481	0	505	0	0	
15	0	0	0	0	555	499	0	509	0	0	
0	0	0	0	0	553	516	0	509	0	0	
1	0	0	0	0	551	531	0	506	0	0	
2	0	0	0	0	548	543	0	499	0	0	
3	0	0	0	0	543	550	0	490	0	0	
4	0	0	0	0	540	552	0	479	0	0	
5	0	0	0	0	536	549	0	467	0	0	
6	0	0	0	0	533	540	0	457	0	0	
7	0	0	0	0	530	527	0	449	0	0	
8	0	0	0	0	529	512	0	443	0	0	
9	0	0	0	0	529	494	0	439	0	0	
10	0	0	0	0	531	478	0	439	0	0	
11	0	0	0	0	533	462	0	443	0	0	
12	0	0	0	0	536	450	0	449	0	0	
13	0	0	0	0	540	443	0	459	0	0	
14	0	0	0	0	544	441	0	469	0	0	
15	0	0	0	0	548	444	0	479	0	0	
0	0	0	0	0	551	453	0	489	0	0	
1	0	0	0	0	552	465	0	497	0	0	
2	0	0	0	0	554	480	0	503	0	0	
3	0	0	0	0	552	496	0	505	0	0	
4	0	0	0	0	551	513	0	504	0	0	
5	0	0	0	0	548	528	0	500	0	0	
6	0	0	0	0	544	540	0	494	0	0	
7	0	0	0	0	540	547	0	485	0	0	
8	0	0	0	0	536	550	0	475	0	0	
9	0	0	0	0	534	547	0	465	0	0	
10	0	0	0	0	532	540	0	456	0	0	
11	0	0	0	0	531	528	0	449	0	0	
12	0	0	0	0	531	514	0	445	0	0	
13	0	0	0	0	533	498	0	444	0	0	
14	0	0	0	0	537	483	0	445	0	0	
15	0	0	0	0	541	469	0	450	0	0	
0	0	0	0	0	546	459	0	458	0	0	
1	0	0	0	0	551	452	0	468	0	0	
2	0	0	0	0	555	449	0	479	0	0	
3	0	0	0	0	560	452	0	489	0	0	
4	0	0	0	0	562	460	0	499	0	0	
5	0	0	0	0	563	471	0	507	0	0	
6	0	0	0	0	563	484	0	511	0	0	
7	0	0	0	0	560	499	0	512	0	0	
8	0	0	0	0	557	514	0	510	0	0	
9	0	0	0	0	552	526	0	504	0	0	
10	0	0	0	0	546	536	0	495	0	0	
11	0	0	0	0	540	542	0	484	0	0	
12	0	0	0	0	534	542	0	471	0	0	
13	0	0	0	0	529	537	0	460	0	0	
14	0	0	0	0	525	527	0	449	0	0	
15	0	0	0	0	522	515	0	440	0	0	
0	0	0	0	0	521	499	0	435	0	0	
1	0	0	0	0	522	483	0	432	0	0	
2	0	0	0	0	526	467	0	435	0	0	
3	0	0	0	0	531	454	0	441	0	0	
4	0	0	0	0	536	444	0	450	0	0	
5	0	0	0	0	543	438	0	462	0	0	
6	0	0	0	0	548	438	0	474	0	0	
7	0	0	0	0	555	443	0	487	0	0	
8	0	0	0	0	559	452	0	498	0	0	
9	0	0	0	0	561	465	0	508	0	0	
10	0	0	0	0	563	481	0	514	0	0	
11	0	0	0	0	562	497	0	516	0	0	
12	0	0	0	0	560	513	0	515	0	0	
13	0	0	0	0	556	526	0	510	0	0	
14	0	0	0	0	551	537	0	501	0	0	
15	0	0	0	0	545	542	0	490	0	0	
0	0	0	0	0	539	543	0	477	0	0	
1	0	0	0	0	535	538	0	464	0	0	
2	0	0	0	0	530	528	0	452	0	0	
3	0	0	0	0	527	515	0	442	0	0	
4	0	0	0	0	524	498	0	435	0	0	
5	0	0	0	0	524	481	0	431	0	0	
6	0	0	0	0	526	465	0	431	0	0	
7	0	0	0	0	528	451	0	436	0	0	
8	0	0	0	0	533	441	0	444	0	0	
9	0	0	0	0	537	435	0	455	0	0	
10	0	0	0	0	543	435	0	467	0	0	
11	0	0	0	0	548	441	0	481	0	0	
12	0	0	0	0	552	451	0	493	0	0	
13	0	0	0	0	556	466	0	504	0	0	
14	0	0	0	0	559	483	0	513	0	0	
15	0	0	0	0	560	501	0	517	0	0	
0	0	0	0	0	560	519	0	518	0	0	
1	0	0	0	0	559	535	0	515	0	0	
2	0	0	0	0	557	547	0	509	0	0	
3	0	0	0	0	554	554	0	499	0	0	
4	0	0	0	0	550	556	0	489	0	0	
5	0	0	0	0	547	553	0	478	0	0	
6	0	0	0	0	545	543	0	467	0	0	
7	0	0	0	0	543	530	0	458	0	0	
8	0	0	0	0	542	514	0	451	0	0	
9	0	0	0	0	541	496	0	448	0	0	
10	0	0	0	0	543	480	0	448	0	0	
11	0	0	0	0	545	463	0	451	0	0	
12	0	0	0	0	548	451	0	458	0	0	
13	0	0	0	0	551	444	0	467	0	0	
14	0	0	0	0	553	440	0	477	0	0	
15	0	0	0	0	556	444	0	487	0	0	
0	0	0	0	0	558	451	0	497	0	0	
1	0	0	0	0	559	463	0	505	0	0	
2	0	0	0	0	558	478	0	511	0	0	
3	0	0	0	0	557	495	0	513	0	0	
4	0	0	0	0	556	512	0	512	0	0	
5	0	0	0	0	552	526	0	508	0	0	
6	0	0	0	0	547	538	0	500	0	0	
7	0	0	0	0	543	545	0	491	0	0	
8	0	0	0	0	539	547	0	480	0	0	
9	0	0	0	0	535	544	0	469	0	0	
10	0	0	0	0	532	536	0	459	0	0	
11	0	0	0	0	530	524	0	450	0	0	
12	0	0	0	0	530	508	0	444	0	0	
13	0	0	0	0	531	492	0	442	0	0	
14	0	0	0	0	534	476	0	443	0	0	
15	0	0	0	0	538	462	0	448	0	0	
0	0	0	0	0	543	451	0	456	0	0	
1	0	0	0	0	548	444	0	466	0	0	
2	0	0	0	0	553	442	0	477	0	0	
3	0	0	0	0	558	446	0	488	0	0	
4	0	0	0	0	562	454	0	499	0	0	
5	0	0	0	0	564	465	0	508	0	0	
6	0	0	0	0	565	480	0	513	0	0	
7	0	0	0	0	564	496	0	516	0	0	
8	0	0	0	0	562	512	0	515	0	0	
9	0	0	0	0	558	526	0	509	0	0	
10	0	0	0	0	553	537	0	502	0	0	
11	0	0	0	0	548	544	0	492	0	0	
12	0	0	0	0	543	545	0	481	0	0	
13	0	0	0	0	540	543	0	470	0	0	
14	0	0	0	0	536	535	0	460	0	0	
15	0	0	0	0	535	524	0	452	0	0	
0	0	0	0	0	534	509	0	448	0	0	
1	0	0	0	0	534	493	0	445	0	0	
2	0	0	0	0	536	478	0	447	0	0	
3	0	0	0	0	539	463	0	452	0	0	
4	0	0	0	0	543	452	0	459	0	0	
5	0	0	0	0	547	444	0	469	0	0	
6	0	0	0	0	551	441	0	479	0	0	
7	0	0	0	0	555	444	0	489	0	0	
8	0	0	0	0	557	451	0	498	0	0	
9	0	0	0	0	559	462	0	504	0	0	
10	0	0	0	0	558	475	0	508	0	0	
11	0	0	0	0	557	489	0	509	0	0	
12	0	0	0	0	554	504	0	506	0	0	
13	0	0	0	0	549	517	0	499	0	0	
14	0	0	0	0	544	527	0	489	0	0	
15	0	0	0	0	538	532	0	478	0	0	
0	0	0	0	0	532	534	0	466	0	0	
1	0	0	0	0	527	530	0	454	0	0	
2	0	0	0	0	524	522	0	443	0	0	
3	0	0	0	0	520	510	0	434	0	0	
4	0	0	0	0	519	494	0	429	0	0	
5	0	0	0	0	519	479	0	426	0	0	
6	0	0	0	0	522	463	0	428	0	0	
7	0	0	0	0	525	448	0	433	0	0	
8	0	0	0	0	530	438	0	441	0	0	
9	0	0	0	0	535	431	0	452	0	0	
10	0	0	0	0	541	430	0	464	0	0	
11	0	0	0	0	546	433	0	476	0	0	
12	0	0	0	0	550	441	0	487	0	0	
13	0	0	0	0	552	454	0	495	0	0	
14	0	0	0	0	554	469	0	501	0	0	
15	0	0	0	0	553	486	0	504	0	0	
0	0	0	0	0	552	503	0	503	0	0	
1	0	0	0	0	549	518	0	499	0	0	
2	0	0	0	0	545	529	0	491	0	0	
3	0	0	0	0	540	536	0	481	0	0	
4	0	0	0	0	536	537	0	470	0	0	
5	0	0	0	0	532	534	0	459	0	0	
6	0	0	0	0	529	525	0	448	0	0	
7	0	0	0	0	527	513	0	440	0	0	
8	0	0	0	0	525	497	0	434	0	0	
9	0	0	0	0	526	481	0	431	0	0	
10	0	0	0	0	528	464	0	432	0	0	
11	0	0	0	0	531	450	0	437	0	0	
12	0	0	0	0	535	439	0	445	0	0	
13	0	0	0	0	539	432	0	455	0	0	
14	0	0	0	0	544	431	0	466	0	0	
15	0	0	0	0	548	434	0	478	0	0	
0	0	0	0	0	552	443	0	489	0	0	
1	0	0	0	0	555	455	0	498	0	0	
2	0	0	0	0	555	471	0	504	0	0	
3	0	0	0	0	555	489	0	507	0	0	
4	0	0	0	0	554	506	0	507	0	0	
5	0	0	0	0	551	521	0	503	0	0	
6	0	0	0	0	547	532	0	496	0	0	
7	0	0	0	0	543	540	0	487	0	0	
8	0	0	0	0	539	542	0	475	0	0	
9	0	0	0	0	535	539	0	465	0	0	
10	0	0	0	0	532	530	0	454	0	0	
11	0	0	0	0	530	516	0	446	0	0	
12	0	0	0	0	528	500	0	440	0	0	
13	0	0	0	0	528	483	0	436	0	0	
14	0	0	0	0	529	465	0	436	0	0	
15	0	0	0	0	532	449	0	440	0	0	
0	0	0	0	0	535	436	0	447	0	0	
1	0	0	0	0	538	428	0	455	0	0	
2	0	0	0	0	541	426	0	466	0	0	
3	0	0	0	0	544	429	0	476	0	0	
4	0	0	0	0	547	436	0	486	0	0	
5	0	0	0	0	548	449	0	494	0	0	
6	0	0	0	0	548	463	0	499	0	0	
7	0	0	0	0	546	480	0	500	0	0	
8	0	0	0	0	543	497	0	499	0	0	
9	0	0	0	0	539	512	0	494	0	0	
10	0	0	0	0	535	523	0	485	0	0	
11	0	0	0	0	529	530	0	475	0	0	
12	0	0	0	0	524	532	0	463	0	0	
13	0	0	0	0	520	529	0	451	0	0	
14	0	0	0	0	518	521	0	440	0	0	
15	0	0	0	0	516	508	0	431	0	0	
0	0	0	0	0	515	493	0	424	0	0	
1	0	0	0	0	516	477	0	421	0	0	
2	0	0	0	0	519	461	0	422	0	0	
3	0	0	0	0	523	446	0	426	0	0	
4	0	0	0	0	527	435	0	433	0	0	
5	0	0	0	0	531	427	0	443	0	0	
6	0	0	0	0	535	425	0	454	0	0	
7	0	0	0	0	539	428	0	465	0	0	
8	0	0	0	0	542	436	0	476	0	0	
9	0	0	0	0	544	449	0	486	0	0	
10	0	0	0	0	544	464	0	493	0	0	
11	0	0	0	0	543	481	0	496	0	0	
12	0	0	0	0	542	498	0	496	0	0	
13	0	0	0	0	539	513	0	492	0	0	
14	0	0	0	0	536	524	0	486	0	0	
15	0	0	0	0	531	531	0	477	0	0	
0	0	0	0	0	529	535	0	467	0	0	
1	0	0	0	0	527	532	0	456	0	0	
2	0	0	0	0	525	525	0	447	0	0	
3	0	0	0	0	524	512	0	439	0	0	
4	0	0	0	0	524	497	0	432	0	0	
5	0	0	0	0	525	480	0	428	0	0	
6	0	0	0	0	526	462	0	428	0	0	
7	0	0	0	0	527	444	0	428	0	0	
8	0	0	0	0	527	428	0	431	0	0	
9	0	0	0	0	525	415	0	435	0	0	
10	0	0	0	0	521	407	0	439	0	0	
11	0	0	0	0	516	401	0	441	0	0	
12	0	0	0	0	509	400	0	442	0	0	
13	0	0	0	0	499	402	0	440	0	0	
14	0	0	0	0	487	406	0	434	0	0	
15	0	0	0	0	474	411	0	424	0	0	
0	0	0	0	0	459	416	0	411	0	0	
1	0	0	0	0	442	419	0	393	0	0	
2	0	0	0	0	425	419	0	374	0	0	
3	0	0	0	0	408	414	0	351	0	0	
4	0	0	0	0	391	404	0	327	0	0	
5	0	0	0	0	375	390	0	303	0	0	
6	0	0	0	0	360	370	0	280	0	0	
7	0	0	0	0	346	345	0	259	0	0	
8	0	0	0	0	334	319	0	240	0	0	
9	0	0	0	0	323	289	0	225	0	0	
10	0	0	0	0	314	260	0	214	0	0	
11	0	0	0	0	307	232	0	207	0	0	
12	0	0	0	0	301	208	0	204	0	0	
13	0	0	0	0	296	189	0	206	0	0	
14	0	0	0	0	294	177	0	211	0	0	
15	0	0	0	0	293	172	0	220	0	0	
0	0	0	0	0	294	176	0	231	0	0	
1	0	0	0	0	298	188	0	243	0	0	
2	0	0	0	0	304	207	0	257	0	0	
3	0	0	0	0	312	233	0	270	0	0	
4	0	0	0	0	323	262	0	283	0	0	
5	0	0	0	0	336	294	0	296	0	0	
6	0	0	0	0	351	326	0	308	0	0	
7	0	0	0	0	368	355	0	319	0	0	
8	0	0	0	0	387	383	0	330	0	0	
9	0	0	0	0	409	405	0	342	0	0	
10	0	0	0	0	432	422	0	355	0	0	
11	0	0	0	0	454	433	0	368	0	0	
12	0	0	0	0	477	440	0	383	0	0	
13	0	0	0	0	499	443	0	399	0	0	
14	0	0	0	0	519	443	0	416	0	0	
15	0	0	0	0	538	441	0	435	0	0	
0	0	0	0	0	555	440	0	455	0	0	
1	0	0	0	0	568	440	0	473	0	0	
2	0	0	0	0	577	444	0	491	0	0	
3	0	0	0	0	584	450	0	505	0	0	
4	0	0	0	0	587	459	0	518	0	0	
5	0	0	0	0	587	471	0	526	0	0	
6	0	0	0	0	583	485	0	529	0	0	
7	0	0	0	0	578	499	0	527	0	0	
8	0	0	0	0	570	513	0	522	0	0	
9	0	0	0	0	560	525	0	512	0	0	
10	0	0	0	0	550	534	0	499	0	0	
11	0	0	0	0	540	538	0	484	0	0	
12	0	0	0	0	531	537	0	468	0	0	
13	0	0	0	0	524	532	0	453	0	0	
14	0	0	0	0	518	521	0	440	0	0	
15	0	0	0	0	514	507	0	429	0	0	
0	0	0	0	0	513	491	0	422	0	0	
1	0	0	0	0	514	473	0	419	0	0	
2	0	0	0	0	518	456	0	420	0	0	
3	0	0	0	0	523	441	0	425	0	0	
4	0	0	0	0	529	430	0	435	0	0	
5	0	0	0	0	536	423	0	447	0	0	
6	0	0	0	0	543	422	0	459	0	0	
7	0	0	0	0	550	427	0	473	0	0	
8	0	0	0	0	555	435	0	485	0	0	
9	0	0	0	0	559	449	0	496	0	0	
10	0	0	0	0	560	465	0	504	0	0	
11	0	0	0	0	560	483	0	507	0	0	
12	0	0	0	0	559	501	0	508	0	0	
13	0	0	0	0	555	516	0	504	0	0	
14	0	0	0	0	551	529	0	497	0	0	
15	0	0	0	0	545	537	0	487	0	0	
0	0	0	0	0	540	540	0	476	0	0	
1	0	0	0	0	536	537	0	465	0	0	
2	0	0	0	0	532	529	0	455	0	0	
3	0	0	0	0	530	518	0	447	0	0	
4	0	0	0	0	529	503	0	441	0	0	
5	0	0	0	0	529	486	0	439	0	0	
6	0	0	0	0	532	470	0	440	0	0	
7	0	0	0	0	536	456	0	444	0	0	
8	0	0	0	0	540	444	0	451	0	0	
9	0	0	0	0	546	437	0	461	0	0	
10	0	0	0	0	551	435	0	472	0	0	
11	0	0	0	0	556	439	0	483	0	0	
12	0	0	0	0	560	447	0	494	0	0	
13	0	0	0	0	563	459	0	503	0	0	
14	0	0	0	0	564	474	0	509	0	0	
15	0	0	0	0	564	491	0	511	0	0	
0	0	0	0	0	562	508	0	511	0	0	
1	0	0	0	0	559	522	0	507	0	0	
2	0	0	0	0	555	534	0	499	0	0	
3	0	0	0	0	549	540	0	489	0	0	
4	0	0	0	0	543	542	0	478	0	0	
5	0	0	0	0	539	539	0	467	0	0	
6	0	0	0	0	536	530	0	456	0	0	
7	0	0	0	0	532	517	0	448	0	0	
8	0	0	0	0	530	501	0	441	0	0	
9	0	0	0	0	530	483	0	438	0	0	
10	0	0	0	0	531	466	0	438	0	0	
11	0	0	0	0	534	451	0	442	0	0	
12	0	0	0	0	538	439	0	449	0	0	
13	0	0	0	0	542	431	0	459	0	0	
14	0	0	0	0	545	428	0	469	0	0	
15	0	0	0	0	550	431	0	479	0	0	
0	0	0	0	0	552	439	0	489	0	0	
1	0	0	0	0	554	451	0	497	0	0	
2	0	0	0	0	556	466	0	503	0	0	
3	0	0	0	0	554	482	0	505	0	0	
4	0	0	0	0	553	499	0	504	0	0	
5	0	0	0	0	549	514	0	499	0	0	
6	0	0	0	0	545	525	0	491	0	0	
7	0	0	0	0	540	531	0	481	0	0	
8	0	0	0	0	535	533	0	470	0	0	
9	0	0	0	0	531	530	0	458	0	0	
10	0	0	0	0	527	521	0	447	0	0	
11	0	0	0	0	524	508	0	438	0	0	
12	0	0	0	0	522	492	0	431	0	0	
13	0	0	0	0	521	475	0	428	0	0	
14	0	0	0	0	523	459	0	428	0	0	
15	0	0	0	0	525	443	0	432	0	0	
0	0	0	0	0	529	432	0	440	0	0	
1	0	0	0	0	533	424	0	449	0	0	
2	0	0	0	0	537	422	0	460	0	0	
3	0	0	0	0	543	425	0	472	0	0	
4	0	0	0	0	547	433	0	483	0	0	
5	0	0	0	0	550	446	0	492	0	0	
6	0	0	0	0	551	461	0	499	0	0	
7	0	0	0	0	552	478	0	502	0	0	
8	0	0	0	0	551	495	0	501	0	0	
9	0	0	0	0	549	510	0	497	0	0	
10	0	0	0	0	545	522	0	490	0	0	
11	0	0	0	0	541	529	0	481	0	0	
12	0	0	0	0	536	532	0	470	0	0	
13	0	0	0	0	532	529	0	459	0	0	
14	0	0	0	0	528	521	0	449	0	0	
15	0	0	0	0	525	509	0	440	0	0	
0	0	0	0	0	524	494	0	435	0	0	
1	0	0	0	0	522	477	0	431	0	0	
2	0	0	0	0	524	460	0	432	0	0	
3	0	0	0	0	526	444	0	436	0	0	
4	0	0	0	0	528	432	0	443	0	0	
5	0	0	0	0	532	424	0	452	0	0	
6	0	0	0	0	535	420	0	463	0	0	
7	0	0	0	0	539	422	0	473	0	0	
8	0	0	0	0	541	429	0	483	0	0	
9	0	0	0	0	543	440	0	490	0	0	
10	0	0	0	0	544	455	0	496	0	0	
11	0	0	0	0	543	470	0	497	0	0	
12	0	0	0	0	541	487	0	495	0	0	
13	0	0	0	0	538	502	0	490	0	0	
14	0	0	0	0	534	513	0	482	0	0	
15	0	0	0	0	530	520	0	472	0	0	
0	0	0	0	0	526	524	0	461	0	0	
1	0	0	0	0	523	521	0	449	0	0	
2	0	0	0	0	520	514	0	439	0	0	
3	0	0	0	0	518	502	0	430	0	0	
4	0	0	0	0	519	487	0	424	0	0	
5	0	0	0	0	519	471	0	422	0	0	
6	0	0	0	0	521	455	0	422	0	0	
7	0	0	0	0	525	440	0	427	0	0	
8	0	0	0	0	529	428	0	435	0	0	
9	0	0	0	0	534	421	0	445	0	0	
10	0	0	0	0	537	418	0	456	0	0	
11	0	0	0	0	541	421	0	467	0	0	
12	0	0	0	0	543	428	0	478	0	0	
13	0	0	0	0	545	440	0	487	0	0	
14	0	0	0	0	545	455	0	493	0	0	
15	0	0	0	0	543	470	0	496	0	0	
0	0	0	0	0	540	487	0	495	0	0	
1	0	0	0	0	536	500	0	489	0	0	
2	0	0	0	0	531	511	0	482	0	0	
3	0	0	0	0	526	518	0	471	0	0	
4	0	0	0	0	521	519	0	460	0	0	
5	0	0	0	0	518	516	0	448	0	0	
6	0	0	0	0	515	508	0	437	0	0	
7	0	0	0	0	513	495	0	428	0	0	
8	0	0	0	0	513	480	0	422	0	0	
9	0	0	0	0	513	463	0	418	0	0	
10	0	0	0	0	516	447	0	419	0	0	
11	0	0	0	0	519	432	0	423	0	0	
12	0	0	0	0	524	419	0	430	0	0	
13	0	0	0	0	527	412	0	439	0	0	
14	0	0	0	0	531	408	0	449	0	0	
15	0	0	0	0	534	412	0	460	0	0	
0	0	0	0	0	536	419	0	469	0	0	
1	0	0	0	0	537	431	0	477	0	0	
2	0	0	0	0	537	445	0	482	0	0	
3	0	0	0	0	534	460	0	483	0	0	
4	0	0	0	0	531	477	0	480	0	0	
5	0	0	0	0	526	491	0	475	0	0	
6	0	0	0	0	521	503	0	466	0	0	
7	0	0	0	0	515	509	0	455	0	0	
8	0	0	0	0	510	511	0	444	0	0	
9	0	0	0	0	506	508	0	433	0	0	
10	0	0	0	0	503	500	0	423	0	0	
11	0	0	0	0	500	487	0	415	0	0	
12	0	0	0	0	501	473	0	411	0	0	
13	0	0	0	0	502	457	0	409	0	0	
14	0	0	0	0	505	442	0	412	0	0	
15	0	0	0	0	510	428	0	418	0	0	
0	0	0	0	0	515	417	0	427	0	0	
1	0	0	0	0	520	410	0	438	0	0	
2	0	0	0	0	527	409	0	450	0	0	
3	0	0	0	0	532	413	0	461	0	0	
4	0	0	0	0	536	422	0	472	0	0	
5	0	0	0	0	538	435	0	480	0	0	
6	0	0	0	0	539	450	0	486	0	0	
7	0	0	0	0	537	466	0	487	0	0	
8	0	0	0	0	535	483	0	486	0	0	
9	0	0	0	0	531	498	0	480	0	0	
10	0	0	0	0	525	509	0	472	0	0	
11	0	0	0	0	521	516	0	461	0	0	
12	0	0	0	0	516	518	0	449	0	0	
13	0	0	0	0	512	515	0	437	0	0	
14	0	0	0	0	510	506	0	426	0	0	
15	0	0	0	0	508	493	0	417	0	0	
0	0	0	0	0	507	477	0	411	0	0	
1	0	0	0	0	508	460	0	408	0	0	
2	0	0	0	0	510	443	0	409	0	0	
3	0	0	0	0	514	428	0	415	0	0	
4	0	0	0	0	518	417	0	423	0	0	
5	0	0	0	0	523	409	0	435	0	0	
6	0	0	0	0	527	407	0	446	0	0	
7	0	0	0	0	531	410	0	459	0	0	
8	0	0	0	0	534	418	0	470	0	0	
9	0	0	0	0	536	431	0	479	0	0	
10	0	0	0	0	536	446	0	486	0	0	
11	0	0	0	0	535	462	0	489	0	0	
12	0	0	0	0	534	480	0	488	0	0	
13	0	0	0	0	531	495	0	484	0	0	
14	0	0	0	0	527	508	0	476	0	0	
15	0	0	0	0	524	515	0	467	0	0	
0	0	0	0	0	520	518	0	456	0	0	
1	0	0	0	0	518	516	0	444	0	0	
2	0	0	0	0	515	508	0	434	0	0	
3	0	0	0	0	515	497	0	425	0	0	
4	0	0	0	0	515	482	0	419	0	0	
5	0	0	0	0	515	465	0	417	0	0	
6	0	0	0	0	519	449	0	417	0	0	
7	0	0	0	0	523	435	0	422	0	0	
8	0	0	0	0	526	423	0	429	0	0	
9	0	0	0	0	531	416	0	439	0	0	
10	0	0	0	0	534	413	0	449	0	0	
11	0	0	0	0	537	415	0	460	0	0	
12	0	0	0	0	540	423	0	471	0	0	
13	0	0	0	0	540	434	0	479	0	0	
14	0	0	0	0	540	448	0	485	0	0	
15	0	0	0	0	538	464	0	488	0	0	
0	0	0	0	0	535	481	0	487	0	0	
1	0	0	0	0	531	496	0	483	0	0	
2	0	0	0	0	526	508	0	476	0	0	
3	0	0	0	0	522	516	0	466	0	0	
4	0	0	0	0	517	519	0	455	0	0	
5	0	0	0	0	514	517	0	444	0	0	
6	0	0	0	0	511	510	0	434	0	0	
7	0	0	0	0	509	498	0	426	0	0	
8	0	0	0	0	508	483	0	420	0	0	
9	0	0	0	0	509	467	0	418	0	0	
10	0	0	0	0	511	451	0	418	0	0	
11	0	0	0	0	515	437	0	423	0	0	
12	0	0	0	0	519	425	0	430	0	0	
13	0	0	0	0	523	417	0	440	0	0	
14	0	0	0	0	528	414	0	450	0	0	
15	0	0	0	0	532	416	0	462	0	0	
0	0	0	0	0	535	423	0	472	0	0	
1	0	0	0	0	537	435	0	480	0	0	
2	0	0	0	0	538	449	0	486	0	0	
3	0	0	0	0	537	465	0	488	0	0	
4	0	0	0	0	536	482	0	487	0	0	
5	0	0	0	0	533	497	0	483	0	0	
6	0	0	0	0	529	510	0	475	0	0	
7	0	0	0	0	525	518	0	465	0	0	
8	0	0	0	0	521	521	0	454	0	0	
9	0	0	0	0	518	520	0	443	0	0	
10	0	0	0	0	515	513	0	432	0	0	
11	0	0	0	0	514	502	0	424	0	0	
12	0	0	0	0	514	488	0	418	0	0	
13	0	0	0	0	515	472	0	415	0	0	
14	0	0	0	0	517	456	0	417	0	0	
15	0	0	0	0	521	442	0	422	0	0	
0	0	0	0	0	525	431	0	431	0	0	
1	0	0	0	0	530	423	0	441	0	0	
2	0	0	0	0	533	420	0	453	0	0	
3	0	0	0	0	537	423	0	465	0	0	
4	0	0	0	0	540	430	0	475	0	0	
5	0	0	0	0	542	441	0	484	0	0	
6	0	0	0	0	542	455	0	490	0	0	
7	0	0	0	0	541	472	0	492	0	0	
8	0	0	0	0	539	487	0	491	0	0	
9	0	0	0	0	535	502	0	486	0	0	
10	0	0	0	0	530	513	0	477	0	0	
11	0	0	0	0	525	519	0	467	0	0	
12	0	0	0	0	520	521	0	455	0	0	
13	0	0	0	0	516	518	0	443	0	0	
14	0	0	0	0	513	510	0	432	0	0	
15	0	0	0	0	511	498	0	423	0	0	
0	0	0	0	0	509	483	0	417	0	0	
1	0	0	0	0	510	467	0	414	0	0	
2	0	0	0	0	512	451	0	415	0	0	
3	0	0	0	0	516	436	0	420	0	0	
4	0	0	0	0	521	425	0	428	0	0	
5	0	0	0	0	526	417	0	438	0	0	
6	0	0	0	0	530	415	0	449	0	0	
7	0	0	0	0	535	418	0	461	0	0	
8	0	0	0	0	539	426	0	472	0	0	
9	0	0	0	0	542	438	0	481	0	0	
10	0	0	0	0	542	453	0	487	0	0	
11	0	0	0	0	542	470	0	490	0	0	
12	0	0	0	0	540	486	0	489	0	0	
13	0	0	0	0	536	501	0	484	0	0	
14	0	0	0	0	531	513	0	476	0	0	
15	0	0	0	0	527	521	0	467	0	0	
0	0	0	0	0	522	524	0	455	0	0	
1	0	0	0	0	519	521	0	444	0	0	
2	0	0	0	0	516	514	0	434	0	0	
3	0	0	0	0	515	503	0	426	0	0	
4	0	0	0	0	514	488	0	421	0	0	
5	0	0	0	0	515	472	0	418	0	0	
6	0	0	0	0	519	457	0	420	0	0	
7	0	0	0	0	523	443	0	425	0	0	
8	0	0	0	0	528	431	0	433	0	0	
9	0	0	0	0	532	423	0	444	0	0	
10	0	0	0	0	536	422	0	454	0	0	
11	0	0	0	0	541	424	0	465	0	0	
12	0	0	0	0	543	431	0	476	0	0	
13	0	0	0	0	544	443	0	484	0	0	
14	0	0	0	0	544	457	0	489	0	0	
15	0	0	0	0	542	473	0	491	0	0	
0	0	0	0	0	540	489	0	489	0	0	
1	0	0	0	0	536	504	0	485	0	0	
2	0	0	0	0	531	516	0	477	0	0	
3	0	0	0	0	526	524	0	467	0	0	
4	0	0	0	0	521	527	0	456	0	0	
5	0	0	0	0	518	524	0	446	0	0	
6	0	0	0	0	515	516	0	435	0	0	
7	0	0	0	0	513	504	0	427	0	0	
8	0	0	0	0	511	488	0	420	0	0	
9	0	0	0	0	512	472	0	417	0	0	
10	0	0	0	0	514	455	0	417	0	0	
11	0	0	0	0	517	440	0	421	0	0	
12	0	0	0	0	521	428	0	428	0	0	
13	0	0	0	0	524	420	0	436	0	0	
14	0	0	0	0	529	417	0	447	0	0	
15	0	0	0	0	533	420	0	458	0	0	
0	0	0	0	0	536	428	0	468	0	0	
1	0	0	0	0	539	440	0	476	0	0	
2	0	0	0	0	539	454	0	483	0	0	
3	0	0	0	0	539	471	0	485	0	0	
4	0	0	0	0	536	487	0	486	0	0	
5	0	0	0	0	534	502	0	481	0	0	
6	0	0	0	0	529	514	0	474	0	0	
7	0	0	0	0	525	521	0	464	0	0	
8	0	0	0	0	520	523	0	453	0	0	
9	0	0	0	0	517	520	0	441	0	0	
10	0	0	0	0	514	513	0	432	0	0	
11	0	0	0	0	511	501	0	423	0	0	
12	0	0	0	0	510	487	0	417	0	0	
13	0	0	0	0	510	471	0	414	0	0	
14	0	0	0	0	512	454	0	415	0	0	
15	0	0	0	0	514	439	0	419	0	0	
0	0	0	0	0	518	428	0	427	0	0	
1	0	0	0	0	523	420	0	436	0	0	
2	0	0	0	0	526	417	0	448	0	0	
3	0	0	0	0	531	420	0	459	0	0	
4	0	0	0	0	534	428	0	470	0	0	
5	0	0	0	0	537	440	0	478	0	0	
6	0	0	0	0	538	454	0	485	0	0	
7	0	0	0	0	537	471	0	487	0	0	
8	0	0	0	0	536	487	0	487	0	0	
9	0	0	0	0	533	502	0	482	0	0	
10	0	0	0	0	529	515	0	475	0	0	
11	0	0	0	0	525	522	0	465	0	0	
12	0	0	0	0	521	524	0	454	0	0	
13	0	0	0	0	518	522	0	443	0	0	
14	0	0	0	0	515	515	0	432	0	0	
15	0	0	0	0	514	503	0	423	0	0	
0	0	0	0	0	513	488	0	417	0	0	
1	0	0	0	0	514	471	0	416	0	0	
2	0	0	0	0	517	456	0	417	0	0	
3	0	0	0	0	521	442	0	422	0	0	
4	0	0	0	0	525	431	0	430	0	0	
5	0	0	0	0	530	423	0	441	0	0	
6	0	0	0	0	534	421	0	452	0	0	
7	0	0	0	0	538	424	0	463	0	0	
8	0	0	0	0	541	432	0	474	0	0	
9	0	0	0	0	543	444	0	482	0	0	
10	0	0	0	0	543	457	0	488	0	0	
11	0	0	0	0	542	473	0	490	0	0	
12	0	0	0	0	540	490	0	488	0	0	
13	0	0	0	0	536	503	0	483	0	0	
14	0	0	0	0	531	514	0	475	0	0	
15	0	0	0	0	525	521	0	464	0	0	
0	0	0	0	0	520	522	0	452	0	0	
1	0	0	0	0	516	519	0	440	0	0	
2	0	0	0	0	512	511	0	430	0	0	
3	0	0	0	0	510	498	0	420	0	0	
4	0	0	0	0	509	483	0	414	0	0	
5	0	0	0	0	509	465	0	411	0	0	
6	0	0	0	0	511	449	0	410	0	0	
7	0	0	0	0	514	435	0	414	0	0	
8	0	0	0	0	518	423	0	422	0	0	
9	0	0	0	0	521	415	0	431	0	0	
10	0	0	0	0	525	412	0	441	0	0	
11	0	0	0	0	528	414	0	453	0	0	
12	0	0	0	0	531	422	0	463	0	0	
13	0	0	0	0	532	432	0	472	0	0	
14	0	0	0	0	532	447	0	478	0	0	
15	0	0	0	0	531	462	0	481	0	0	
0	0	0	0	0	529	479	0	480	0	0	
1	0	0	0	0	526	493	0	476	0	0	
2	0	0	0	0	522	505	0	469	0	0	
3	0	0	0	0	518	512	0	460	0	0	
4	0	0	0	0	513	514	0	448	0	0	
5	0	0	0	0	510	511	0	437	0	0	
6	0	0	0	0	507	504	0	427	0	0	
7	0	0	0	0	505	492	0	417	0	0	
8	0	0	0	0	504	476	0	412	0	0	
9	0	0	0	0	505	460	0	408	0	0	
10	0	0	0	0	508	444	0	408	0	0	
11	0	0	0	0	511	429	0	413	0	0	
12	0	0	0	0	516	417	0	420	0	0	
13	0	0	0	0	520	410	0	430	0	0	
14	0	0	0	0	525	408	0	441	0	0	
15	0	0	0	0	529	411	0	452	0	0	
0	0	0	0	0	532	419	0	464	0	0	
1	0	0	0	0	534	431	0	472	0	0	
2	0	0	0	0	535	447	0	480	0	0	
3	0	0	0	0	534	463	0	483	0	0	
4	0	0	0	0	532	481	0	482	0	0	
5	0	0	0	0	529	496	0	478	0	0	
6	0	0	0	0	525	508	0	471	0	0	
7	0	0	0	0	521	515	0	462	0	0	
8	0	0	0	0	517	518	0	450	0	0	
9	0	0	0	0	514	515	0	439	0	0	
10	0	0	0	0	511	507	0	429	0	0	
11	0	0	0	0	510	496	0	421	0	0	
12	0	0	0	0	510	480	0	415	0	0	
13	0	0	0	0	510	464	0	412	0	0	
14	0	0	0	0	513	448	0	414	0	0	
15	0	0	0	0	516	433	0	419	0	0	
0	0	0	0	0	521	421	0	427	0	0	
1	0	0	0	0	525	414	0	437	0	0	
2	0	0	0	0	529	411	0	449	0	0	
3	0	0	0	0	534	415	0	461	0	0	
4	0	0	0	0	537	423	0	473	0	0	
5	0	0	0	0	540	435	0	482	0	0	
6	0	0	0	0	541	451	0	489	0	0	
7	0	0	0	0	541	467	0	494	0	0	
8	0	0	0	0	540	484	0	493	0	0	
9	0	0	0	0	537	500	0	489	0	0	
10	0	0	0	0	533	512	0	482	0	0	
11	0	0	0	0	529	520	0	473	0	0	
12	0	0	0	0	524	523	0	462	0	0	
13	0	0	0	0	521	520	0	450	0	0	
14	0	0	0	0	518	513	0	439	0	0	
15	0	0	0	0	516	501	0	430	0	0	
0	0	0	0	0	515	486	0	423	0	0	
1	0	0	0	0	514	469	0	419	0	0	
2	0	0	0	0	516	452	0	419	0	0	
3	0	0	0	0	519	436	0	422	0	0	
4	0	0	0	0	523	424	0	429	0	0	
5	0	0	0	0	527	416	0	439	0	0	
6	0	0	0	0	531	413	0	449	0	0	
7	0	0	0	0	535	416	0	461	0	0	
8	0	0	0	0	538	423	0	472	0	0	
9	0	0	0	0	541	436	0	481	0	0	
10	0	0	0	0	543	451	0	487	0	0	
11	0	0	0	0	542	467	0	490	0	0	
12	0	0	0	0	541	485	0	489	0	0	
13	0	0	0	0	538	500	0	485	0	0	
14	0	0	0	0	534	512	0	478	0	0	
15	0	0	0	0	530	519	0	468	0	0	
0	0	0	0	0	525	521	0	457	0	0	
1	0	0	0	0	522	518	0	446	0	0	
2	0	0	0	0	519	510	0	436	0	0	
3	0	0	0	0	517	498	0	427	0	0	
4	0	0	0	0	516	483	0	422	0	0	
5	0	0	0	0	517	466	0	419	0	0	
6	0	0	0	0	519	449	0	421	0	0	
7	0	0	0	0	522	434	0	426	0	0	
8	0	0	0	0	527	422	0	434	0	0	
9	0	0	0	0	531	415	0	444	0	0	
10	0	0	0	0	536	412	0	455	0	0	
11	0	0	0	0	539	415	0	467	0	0	
12	0	0	0	0	542	423	0	477	0	0	
13	0	0	0	0	544	435	0	486	0	0	
14	0	0	0	0	545	451	0	492	0	0	
15	0	0	0	0	544	467	0	493	0	0	
0	0	0	0	0	542	485	0	492	0	0	
1	0	0	0	0	539	500	0	487	0	0	
2	0	0	0	0	535	513	0	479	0	0	
3	0	0	0	0	530	520	0	470	0	0	
4	0	0	0	0	526	523	0	458	0	0	
5	0	0	0	0	522	520	0	447	0	0	
6	0	0	0	0	519	512	0	437	0	0	
7	0	0	0	0	517	500	0	428	0	0	
8	0	0	0	0	516	484	0	423	0	0	
9	0	0	0	0	517	467	0	421	0	0	
10	0	0	0	0	520	451	0	422	0	0	
11	0	0	0	0	524	436	0	428	0	0	
12	0	0	0	0	528	424	0	435	0	0	
13	0	0	0	0	533	416	0	446	0	0	
14	0	0	0	0	537	414	0	457	0	0	
15	0	0	0	0	542	417	0	468	0	0	
0	0	0	0	0	545	425	0	479	0	0	
1	0	0	0	0	547	437	0	487	0	0	
2	0	0	0	0	547	451	0	493	0	0	
3	0	0	0	0	547	468	0	495	0	0	
4	0	0	0	0	545	486	0	494	0	0	
5	0	0	0	0	541	500	0	489	0	0	
6	0	0	0	0	536	512	0	480	0	0	
7	0	0	0	0	530	519	0	470	0	0	
8	0	0	0	0	525	521	0	459	0	0	
9	0	0	0	0	520	519	0	447	0	0	
10	0	0	0	0	516	511	0	436	0	0	
11	0	0	0	0	514	499	0	428	0	0	
12	0	0	0	0	512	483	0	422	0	0	
13	0	0	0	0	512	467	0	419	0	0	
14	0	0	0	0	515	451	0	420	0	0	
15	0	0	0	0	518	436	0	425	0	0	
0	0	0	0	0	523	424	0	432	0	0	
1	0	0	0	0	527	417	0	443	0	0	
2	0	0	0	0	531	414	0	453	0	0	
3	0	0	0	0	536	417	0	464	0	0	
4	0	0	0	0	540	425	0	475	0	0	
5	0	0	0	0	542	437	0	483	0	0	
6	0	0	0	0	543	451	0	489	0	0	
7	0	0	0	0	542	467	0	491	0	0	
8	0	0	0	0	540	484	0	489	0	0	
9	0	0	0	0	536	499	0	484	0	0	
10	0	0	0	0	530	510	0	476	0	0	
11	0	0	0	0	525	517	0	465	0	0	
12	0	0	0	0	519	518	0	454	0	0	
13	0	0	0	0	515	515	0	442	0	0	
14	0	0	0	0	512	506	0	432	0	0	
15	0	0	0	0	510	493	0	422	0	0	
0	0	0	0	0	508	477	0	415	0	0	
1	0	0	0	0	508	460	0	412	0	0	
2	0	0	0	0	510	443	0	412	0	0	
3	0	0	0	0	513	428	0	416	0	0	
4	0	0	0	0	517	415	0	424	0	0	
5	0	0	0	0	521	408	0	434	0	0	
6	0	0	0	0	526	405	0	445	0	0	
7	0	0	0	0	530	408	0	456	0	0	
8	0	0	0	0	534	416	0	467	0	0	
9	0	0	0	0	536	429	0	476	0	0	
10	0	0	0	0	537	443	0	483	0	0	
11	0	0	0	0	536	461	0	486	0	0	
12	0	0	0	0	536	478	0	486	0	0	
13	0	0	0	0	533	493	0	481	0	0	
14	0	0	0	0	529	505	0	474	0	0	
15	0	0	0	0	525	512	0	465	0	0	
0	0	0	0	0	521	516	0	454	0	0	
1	0	0	0	0	519	514	0	443	0	0	
2	0	0	0	0	516	507	0	433	0	0	
3	0	0	0	0	516	496	0	425	0	0	
4	0	0	0	0	516	481	0	420	0	0	
5	0	0	0	0	517	465	0	417	0	0	
6	0	0	0	0	520	449	0	419	0	0	
7	0	0	0	0	524	435	0	424	0	0	
8	0	0	0	0	529	424	0	432	0	0	
9	0	0	0	0	533	417	0	442	0	0	
10	0	0	0	0	537	415	0	453	0	0	
11	0	0	0	0	542	419	0	465	0	0	
12	0	0	0	0	544	427	0	476	0	0	
13	0	0	0	0	546	440	0	485	0	0	
14	0	0	0	0	546	455	0	491	0	0	
15	0	0	0	0	545	472	0	493	0	0	
0	0	0	0	0	543	489	0	492	0	0	
1	0	0	0	0	539	504	0	487	0	0	
2	0	0	0	0	534	516	0	479	0	0	
3	0	0	0	0	529	523	0	468	0	0	
4	0	0	0	0	525	525	0	456	0	0	
5	0	0	0	0	521	522	0	444	0	0	
6	0	0	0	0	518	513	0	433	0	0	
7	0	0	0	0	516	501	0	424	0	0	
8	0	0	0	0	516	486	0	418	0	0	
9	0	0	0	0	517	469	0	415	0	0	
10	0	0	0	0	519	452	0	415	0	0	
11	0	0	0	0	523	437	0	420	0	0	
12	0	0	0	0	527	425	0	428	0	0	
13	0	0	0	0	531	418	0	438	0	0	
14	0	0	0	0	536	415	0	449	0	0	
15	0	0	0	0	539	419	0	460	0	0	
0	0	0	0	0	542	426	0	470	0	0	
1	0	0	0	0	543	439	0	479	0	0	
2	0	0	0	0	544	453	0	485	0	0	
3	0	0	0	0	543	469	0	487	0	0	
4	0	0	0	0	540	486	0	486	0	0	
5	0	0	0	0	536	499	0	481	0	0	
6	0	0	0	0	532	510	0	473	0	0	
7	0	0	0	0	527	516	0	463	0	0	
8	0	0	0	0	522	517	0	452	0	0	
9	0	0	0	0	518	514	0	440	0	0	
10	0	0	0	0	515	505	0	430	0	0	
11	0	0	0	0	512	493	0	422	0	0	
12	0	0	0	0	512	478	0	416	0	0	
13	0	0	0	0	513	462	0	414	0	0	
14	0	0	0	0	516	446	0	415	0	0	
15	0	0	0	0	520	433	0	420	0	0	
0	0	0	0	0	525	422	0	429	0	0	
1	0	0	0	0	531	416	0	440	0	0	
2	0	0	0	0	536	415	0	451	0	0	
3	0	0	0	0	541	419	0	463	0	0	
4	0	0	0	0	545	428	0	475	0	0	
5	0	0	0	0	548	441	0	484	0	0	
6	0	0	0	0	549	456	0	491	0	0	
7	0	0	0	0	549	473	0	494	0	0	
8	0	0	0	0	547	491	0	492	0	0	
9	0	0	0	0	544	506	0	487	0	0	
10	0	0	0	0	540	517	0	479	0	0	
11	0	0	0	0	534	523	0	468	0	0	
12	0	0	0	0	529	524	0	455	0	0	
13	0	0	0	0	524	519	0	440	0	0	
14	0	0	0	0	518	508	0	427	0	0	
15	0	0	0	0	512	492	0	413	0	0	
0	0	0	0	0	507	472	0	402	0	0	
1	0	0	0	0	502	449	0	392	0	0	
2	0	0	0	0	497	426	0	385	0	0	
3	0	0	0	0	493	403	0	382	0	0	
4	0	0	0	0	487	383	0	380	0	0	
5	0	0	0	0	482	365	0	380	0	0	
6	0	0	0	0	476	352	0	381	0	0	
7	0	0	0	0	468	343	0	381	0	0	
8	0	0	0	0	460	339	0	381	0	0	
9	0	0	0	0	450	339	0	379	0	0	
10	0	0	0	0	439	343	0	374	0	0	
11	0	0	0	0	425	347	0	366	0	0	
12	0	0	0	0	411	352	0	353	0	0	
13	0	0	0	0	396	356	0	338	0	0	
14	0	0	0	0	379	356	0	318	0	0	
15	0	0	0	0	361	352	0	296	0	0	
0	0	0	0	0	344	342	0	272	0	0	
1	0	0	0	0	327	327	0	247	0	0	
2	0	0	0	0	310	307	0	223	0	0	
3	0	0	0	0	295	282	0	200	0	0	
4	0	0	0	0	281	255	0	180	0	0	
5	0	0	0	0	270	225	0	165	0	0	
6	0	0	0	0	262	198	0	155	0	0	
7	0	0	0	0	257	173	0	152	0	0	
8	0	0	0	0	257	154	0	155	0	0	
9	0	0	0	0	260	142	0	164	0	0	
10	0	0	0	0	268	140	0	179	0	0	
11	0	0	0	0	280	147	0	199	0	0	
12	0	0	0	0	295	163	0	224	0	0	
13	0	0	0	0	314	188	0	251	0	0	
14	0	0	0	0	335	221	0	279	0	0	
15	0	0	0	0	359	260	0	305	0	0	
0	0	0	0	0	383	302	0	331	0	0	
1	0	0	0	0	408	344	0	355	0	0	
2	0	0	0	0	432	385	0	375	0	0	
3	0	0	0	0	455	422	0	392	0	0	
4	0	0	0	0	477	452	0	406	0	0	
5	0	0	0	0	498	476	0	416	0	0	
6	0	0	0	0	516	491	0	424	0	0	
7	0	0	0	0	533	498	0	432	0	0	
8	0	0	0	0	546	497	0	438	0	0	
9	0	0	0	0	556	492	0	443	0	0	
10	0	0	0	0	566	482	0	449	0	0	
11	0	0	0	0	572	470	0	456	0	0	
12	0	0	0	0	575	458	0	463	0	0	
13	0	0	0	0	576	448	0	471	0	0	
14	0	0	0	0	575	441	0	477	0	0	
15	0	0	0	0	572	439	0	483	0	0	
0	0	0	0	0	568	440	0	488	0	0	
1	0	0	0	0	562	446	0	491	0	0	
2	0	0	0	0	555	454	0	491	0	0	
3	0	0	0	0	548	466	0	488	0	0	
4	0	0	0	0	541	478	0	483	0	0	
5	0	0	0	0	534	490	0	476	0	0	
6	0	0	0	0	528	500	0	466	0	0	
7	0	0	0	0	523	508	0	455	0	0	
8	0	0	0	0	519	511	0	445	0	0	
9	0	0	0	0	518	510	0	435	0	0	
10	0	0	0	0	518	505	0	427	0	0	
11	0	0	0	0	519	496	0	420	0	0	
12	0	0	0	0	521	484	0	417	0	0	
13	0	0	0	0	525	471	0	417	0	0	
14	0	0	0	0	531	457	0	420	0	0	
15	0	0	0	0	538	445	0	428	0	0	
0	0	0	0	0	544	435	0	437	0	0	
1	0	0	0	0	550	429	0	449	0	0	
2	0	0	0	0	555	428	0	461	0	0	
3	0	0	0	0	560	431	0	473	0	0	
4	0	0	0	0	563	439	0	485	0	0	
5	0	0	0	0	564	450	0	494	0	0	
6	0	0	0	0	564	464	0	500	0	0	
7	0	0	0	0	563	481	0	502	0	0	
8	0	0	0	0	560	497	0	502	0	0	
9	0	0	0	0	556	512	0	497	0	0	
10	0	0	0	0	551	525	0	490	0	0	
11	0	0	0	0	545	532	0	481	0	0	
12	0	0	0	0	541	536	0	470	0	0	
13	0	0	0	0	538	535	0	460	0	0	
14	0	0	0	0	536	527	0	450	0	0	
15	0	0	0	0	535	517	0	443	0	0	
0	0	0	0	0	535	503	0	437	0	0	
1	0	0	0	0	536	487	0	435	0	0	
2	0	0	0	0	540	471	0	436	0	0	
3	0	0	0	0	543	456	0	440	0	0	
4	0	0	0	0	548	444	0	448	0	0	
5	0	0	0	0	553	436	0	457	0	0	
6	0	0	0	0	557	432	0	467	0	0	
7	0	0	0	0	560	434	0	478	0	0	
8	0	0	0	0	563	441	0	487	0	0	
9	0	0	0	0	564	451	0	495	0	0	
10	0	0	0	0	563	465	0	500	0	0	
11	0	0	0	0	562	481	0	501	0	0	
12	0	0	0	0	559	497	0	499	0	0	
13	0	0	0	0	555	511	0	494	0	0	
14	0	0	0	0	549	523	0	486	0	0	
15	0	0	0	0	545	530	0	476	0	0	
0	0	0	0	0	540	533	0	464	0	0	
1	0	0	0	0	536	531	0	453	0	0	
2	0	0	0	0	533	523	0	443	0	0	
3	0	0	0	0	531	512	0	436	0	0	
4	0	0	0	0	531	498	0	431	0	0	
5	0	0	0	0	532	482	0	429	0	0	
6	0	0	0	0	536	466	0	431	0	0	
7	0	0	0	0	540	452	0	436	0	0	
8	0	0	0	0	544	440	0	445	0	0	
9	0	0	0	0	550	432	0	455	0	0	
10	0	0	0	0	554	429	0	467	0	0	
11	0	0	0	0	559	432	0	478	0	0	
12	0	0	0	0	562	440	0	488	0	0	
13	0	0	0	0	564	451	0	497	0	0	
14	0	0	0	0	564	465	0	503	0	0	
15	0	0	0	0	563	481	0	506	0	0	
0	0	0	0	0	561	498	0	504	0	0	
1	0	0	0	0	557	512	0	499	0	0	
2	0	0	0	0	552	524	0	491	0	0	
3	0	0	0	0	547	531	0	480	0	0	
4	0	0	0	0	541	532	0	468	0	0	
5	0	0	0	0	537	530	0	456	0	0	
6	0	0	0	0	533	521	0	445	0	0	
7	0	0	0	0	531	509	0	436	0	0	
8	0	0	0	0	529	494	0	430	0	0	
9	0	0	0	0	530	477	0	427	0	0	
10	0	0	0	0	532	461	0	427	0	0	
11	0	0	0	0	536	447	0	432	0	0	
12	0	0	0	0	540	435	0	440	0	0	
13	0	0	0	0	546	428	0	449	0	0	
14	0	0	0	0	551	425	0	460	0	0	
15	0	0	0	0	556	429	0	472	0	0	
0	0	0	0	0	560	436	0	483	0	0	
1	0	0	0	0	562	449	0	492	0	0	
2	0	0	0	0	563	464	0	497	0	0	
3	0	0	0	0	562	480	0	499	0	0	
4	0	0	0	0	560	497	0	499	0	0	
5	0	0	0	0	557	512	0	494	0	0	
6	0	0	0	0	552	524	0	487	0	0	
7	0	0	0	0	547	531	0	477	0	0	
8	0	0	0	0	542	534	0	465	0	0	
9	0	0	0	0	538	531	0	454	0	0	
10	0	0	0	0	534	522	0	443	0	0	
11	0	0	0	0	531	510	0	433	0	0	
12	0	0	0	0	529	494	0	427	0	0	
13	0	0	0	0	529	477	0	422	0	0	
14	0	0	0	0	531	460	0	422	0	0	
15	0	0	0	0	533	444	0	425	0	0	
0	0	0	0	0	536	432	0	432	0	0	
1	0	0	0	0	540	423	0	441	0	0	
2	0	0	0	0	543	420	0	451	0	0	
3	0	0	0	0	547	423	0	463	0	0	
4	0	0	0	0	550	430	0	473	0	0	
5	0	0	0	0	552	441	0	482	0	0	
6	0	0	0	0	553	456	0	489	0	0	
7	0	0	0	0	552	472	0	492	0	0	
8	0	0	0	0	551	488	0	492	0	0	
9	0	0	0	0	548	504	0	489	0	0	
10	0	0	0	0	544	515	0	482	0	0	
11	0	0	0	0	541	523	0	473	0	0	
12	0	0	0	0	537	525	0	463	0	0	
13	0	0	0	0	534	523	0	452	0	0	
14	0	0	0	0	532	515	0	441	0	0	
15	0	0	0	0	530	504	0	433	0	0	
0	0	0	0	0	530	489	0	427	0	0	
1	0	0	0	0	530	472	0	424	0	0	
2	0	0	0	0	532	456	0	423	0	0	
3	0	0	0	0	536	441	0	428	0	0	
4	0	0	0	0	539	429	0	434	0	0	
5	0	0	0	0	542	421	0	444	0	0	
6	0	0	0	0	545	417	0	454	0	0	
7	0	0	0	0	548	420	0	464	0	0	
8	0	0	0	0	550	427	0	475	0	0	
9	0	0	0	0	551	439	0	483	0	0	
10	0	0	0	0	551	453	0	489	0	0	
11	0	0	0	0	550	470	0	491	0	0	
12	0	0	0	0	548	486	0	491	0	0	
13	0	0	0	0	545	502	0	487	0	0	
14	0	0	0	0	542	513	0	479	0	0	
15	0	0	0	0	539	521	0	470	0	0	
0	0	0	0	0	536	524	0	460	0	0	
1	0	0	0	0	532	521	0	448	0	0	
2	0	0	0	0	531	514	0	438	0	0	
3	0	0	0	0	529	502	0	430	0	0	
4	0	0	0	0	529	487	0	424	0	0	
5	0	0	0	0	531	470	0	422	0	0	
6	0	0	0	0	534	454	0	422	0	0	
7	0	0	0	0	537	439	0	427	0	0	
8	0	0	0	0	541	428	0	434	0	0	
9	0	0	0	0	545	420	0	443	0	0	
10	0	0	0	0	549	417	0	456	0	0	
11	0	0	0	0	553	420	0	467	0	0	
12	0	0	0	0	555	428	0	477	0	0	
13	0	0	0	0	556	440	0	485	0	0	
14	0	0	0	0	556	454	0	490	0	0	
15	0	0	0	0	555	470	0	492	0	0	
0	0	0	0	0	551	487	0	490	0	0	
1	0	0	0	0	547	502	0	485	0	0	
2	0	0	0	0	543	513	0	476	0	0	
3	0	0	0	0	537	520	0	465	0	0	
4	0	0	0	0	531	522	0	453	0	0	
5	0	0	0	0	527	519	0	441	0	0	
6	0	0	0	0	524	512	0	430	0	0	
7	0	0	0	0	521	499	0	421	0	0	
8	0	0	0	0	520	484	0	415	0	0	
9	0	0	0	0	520	468	0	412	0	0	
10	0	0	0	0	523	452	0	413	0	0	
11	0	0	0	0	526	438	0	418	0	0	
12	0	0	0	0	531	427	0	427	0	0	
13	0	0	0	0	536	419	0	438	0	0	
14	0	0	0	0	541	417	0	450	0	0	
15	0	0	0	0	546	421	0	462	0	0	
0	0	0	0	0	550	429	0	474	0	0	
1	0	0	0	0	552	440	0	483	0	0	
2	0	0	0	0	554	455	0	490	0	0	
3	0	0	0	0	553	472	0	493	0	0	
4	0	0	0	0	552	489	0	492	0	0	
5	0	0	0	0	549	503	0	488	0	0	
6	0	0	0	0	545	515	0	480	0	0	
7	0	0	0	0	540	522	0	471	0	0	
8	0	0	0	0	536	524	0	460	0	0	
9	0	0	0	0	532	522	0	448	0	0	
10	0	0	0	0	530	514	0	438	0	0	
11	0	0	0	0	527	502	0	429	0	0	
12	0	0	0	0	527	488	0	423	0	0	
13	0	0	0	0	528	472	0	420	0	0	
14	0	0	0	0	531	455	0	421	0	0	
15	0	0	0	0	533	440	0	425	0	0	
0	0	0	0	0	537	429	0	433	0	0	
1	0	0	0	0	542	422	0	443	0	0	
2	0	0	0	0	545	418	0	454	0	0	
3	0	0	0	0	549	422	0	464	0	0	
4	0	0	0	0	551	429	0	475	0	0	
5	0	0	0	0	553	441	0	483	0	0	
6	0	0	0	0	554	455	0	489	0	0	
7	0	0	0	0	553	472	0	491	0	0	
8	0	0	0	0	551	489	0	490	0	0	
9	0	0	0	0	548	504	0	486	0	0	
10	0	0	0	0	544	515	0	477	0	0	
11	0	0	0	0	540	523	0	468	0	0	
12	0	0	0	0	536	525	0	456	0	0	
13	0	0	0	0	532	522	0	445	0	0	
14	0	0	0	0	530	514	0	434	0	0	
15	0	0	0	0	527	502	0	426	0	0	
0	0	0	0	0	527	487	0	420	0	0	
1	0	0	0	0	527	470	0	418	0	0	
2	0	0	0	0	529	454	0	419	0	0	
3	0	0	0	0	532	439	0	423	0	0	
4	0	0	0	0	536	427	0	432	0	0	
5	0	0	0	0	540	420	0	442	0	0	
6	0	0	0	0	544	418	0	453	0	0	
7	0	0	0	0	548	421	0	464	0	0	
8	0	0	0	0	551	428	0	475	0	0	
9	0	0	0	0	552	440	0	483	0	0	
10	0	0	0	0	553	455	0	489	0	0	
11	0	0	0	0	553	472	0	491	0	0	
12	0	0	0	0	551	488	0	490	0	0	
13	0	0	0	0	547	503	0	486	0	0	
14	0	0	0	0	544	515	0	478	0	0	
15	0	0	0	0	540	522	0	468	0	0	
0	0	0	0	0	536	524	0	456	0	0	
1	0	0	0	0	533	521	0	444	0	0	
2	0	0	0	0	530	514	0	434	0	0	
3	0	0	0	0	528	502	0	425	0	0	
4	0	0	0	0	528	487	0	419	0	0	
5	0	0	0	0	528	469	0	415	0	0	
6	0	0	0	0	530	454	0	415	0	0	
7	0	0	0	0	533	439	0	419	0	0	
8	0	0	0	0	536	427	0	426	0	0	
9	0	0	0	0	539	419	0	435	0	0	
10	0	0	0	0	543	415	0	447	0	0	
11	0	0	0	0	546	419	0	458	0	0	
12	0	0	0	0	548	427	0	469	0	0	
13	0	0	0	0	549	439	0	478	0	0	
14	0	0	0	0	550	454	0	484	0	0	
15	0	0	0	0	548	470	0	487	0	0	
0	0	0	0	0	547	487	0	487	0	0	
1	0	0	0	0	544	503	0	484	0	0	
2	0	0	0	0	540	514	0	477	0	0	
3	0	0	0	0	537	523	0	468	0	0	
4	0	0	0	0	533	525	0	458	0	0	
5	0	0	0	0	530	523	0	447	0	0	
6	0	0	0	0	528	516	0	437	0	0	
7	0	0	0	0	527	504	0	428	0	0	
8	0	0	0	0	526	489	0	422	0	0	
9	0	0	0	0	527	473	0	419	0	0	
10	0	0	0	0	529	457	0	419	0	0	
11	0	0	0	0	533	443	0	423	0	0	
12	0	0	0	0	537	431	0	430	0	0	
13	0	0	0	0	541	423	0	440	0	0	
14	0	0	0	0	545	421	0	451	0	0	
15	0	0	0	0	550	424	0	462	0	0	
0	0	0	0	0	553	432	0	472	0	0	
1	0	0	0	0	555	443	0	481	0	0	
2	0	0	0	0	556	458	0	487	0	0	
3	0	0	0	0	555	473	0	490	0	0	
4	0	0	0	0	553	490	0	489	0	0	
5	0	0	0	0	550	504	0	484	0	0	
6	0	0	0	0	545	516	0	477	0	0	
7	0	0	0	0	540	523	0	468	0	0	
8	0	0	0	0	535	524	0	456	0	0	
9	0	0	0	0	531	521	0	446	0	0	
10	0	0	0	0	528	513	0	435	0	0	
11	0	0	0	0	526	501	0	427	0	0	
12	0	0	0	0	524	486	0	421	0	0	
13	0	0	0	0	524	469	0	418	0	0	
14	0	0	0	0	527	453	0	419	0	0	
15	0	0	0	0	530	438	0	423	0	0	
0	0	0	0	0	534	426	0	431	0	0	
1	0	0	0	0	538	419	0	440	0	0	
2	0	0	0	0	542	415	0	450	0	0	
3	0	0	0	0	546	419	0	460	0	0	
4	0	0	0	0	549	426	0	470	0	0	
5	0	0	0	0	551	438	0	479	0	0	
6	0	0	0	0	552	453	0	484	0	0	
7	0	0	0	0	551	470	0	487	0	0	
8	0	0	0	0	550	487	0	487	0	0	
9	0	0	0	0	546	502	0	483	0	0	
10	0	0	0	0	543	514	0	476	0	0	
11	0	0	0	0	539	522	0	468	0	0	
12	0	0	0	0	535	525	0	457	0	0	
13	0	0	0	0	532	524	0	448	0	0	
14	0	0	0	0	529	516	0	440	0	0	
15	0	0	0	0	527	505	0	432	0	0	
0	0	0	0	0	527	491	0	427	0	0	
1	0	0	0	0	528	475	0	427	0	0	
2	0	0	0	0	531	460	0	428	0	0	
3	0	0	0	0	534	446	0	433	0	0	
4	0	0	0	0	539	435	0	440	0	0	
5	0	0	0	0	544	428	0	450	0	0	
6	0	0	0	0	548	425	0	461	0	0	
7	0	0	0	0	552	429	0	471	0	0	
8	0	0	0	0	556	436	0	481	0	0	
9	0	0	0	0	558	448	0	488	0	0	
10	0	0	0	0	557	461	0	494	0	0	
11	0	0	0	0	556	477	0	496	0	0	
12	0	0	0	0	553	493	0	494	0	0	
13	0	0	0	0	549	507	0	488	0	0	
14	0	0	0	0	544	517	0	480	0	0	
15	0	0	0	0	538	524	0	470	0	0	
0	0	0	0	0	532	525	0	458	0	0	
1	0	0	0	0	528	522	0	446	0	0	
2	0	0	0	0	524	513	0	435	0	0	
3	0	0	0	0	522	501	0	426	0	0	
4	0	0	0	0	521	486	0	420	0	0	
5	0	0	0	0	521	469	0	417	0	0	
6	0	0	0	0	524	454	0	417	0	0	
7	0	0	0	0	527	439	0	421	0	0	
8	0	0	0	0	531	427	0	428	0	0	
9	0	0	0	0	537	420	0	438	0	0	
10	0	0	0	0	542	418	0	449	0	0	
11	0	0	0	0	547	422	0	460	0	0	
12	0	0	0	0	550	429	0	472	0	0	
13	0	0	0	0	552	441	0	480	0	0	
14	0	0	0	0	552	456	0	487	0	0	
15	0	0	0	0	551	472	0	490	0	0	
0	0	0	0	0	549	488	0	489	0	0	
1	0	0	0	0	545	503	0	485	0	0	
2	0	0	0	0	541	515	0	478	0	0	
3	0	0	0	0	536	521	0	468	0	0	
4	0	0	0	0	531	523	0	457	0	0	
5	0	0	0	0	527	520	0	446	0	0	
6	0	0	0	0	524	512	0	436	0	0	
7	0	0	0	0	522	500	0	427	0	0	
8	0	0	0	0	521	485	0	421	0	0	
9	0	0	0	0	522	468	0	418	0	0	
10	0	0	0	0	524	452	0	419	0	0	
11	0	0	0	0	527	438	0	423	0	0	
12	0	0	0	0	531	426	0	430	0	0	
13	0	0	0	0	536	418	0	440	0	0	
14	0	0	0	0	540	415	0	450	0	0	
15	0	0	0	0	543	418	0	461	0	0	
0	0	0	0	0	547	426	0	471	0	0	
1	0	0	0	0	549	437	0	480	0	0	
2	0	0	0	0	550	452	0	485	0	0	
3	0	0	0	0	549	467	0	487	0	0	
4	0	0	0	0	547	484	0	486	0	0	
5	0	0	0	0	543	499	0	481	0	0	
6	0	0	0	0	538	510	0	474	0	0	
7	0	0	0	0	534	517	0	464	0	0	
8	0	0	0	0	528	519	0	453	0	0	
9	0	0	0	0	524	515	0	441	0	0	
10	0	0	0	0	521	507	0	431	0	0	
11	0	0	0	0	518	495	0	422	0	0	
12	0	0	0	0	517	479	0	415	0	0	
13	0	0	0	0	516	462	0	412	0	0	
14	0	0	0	0	519	444	0	412	0	0	
15	0	0	0	0	521	429	0	416	0	0	
0	0	0	0	0	525	416	0	423	0	0	
1	0	0	0	0	530	408	0	433	0	0	
2	0	0	0	0	534	405	0	444	0	0	
3	0	0	0	0	538	408	0	455	0	0	
4	0	0	0	0	542	416	0	466	0	0	
5	0	0	0	0	544	428	0	475	0	0	
6	0	0	0	0	545	443	0	481	0	0	
7	0	0	0	0	544	461	0	484	0	0	
8	0	0	0	0	543	478	0	483	0	0	
9	0	0	0	0	540	494	0	479	0	0	
10	0	0	0	0	536	506	0	472	0	0	
11	0	0	0	0	532	514	0	462	0	0	
12	0	0	0	0	528	517	0	451	0	0	
13	0	0	0	0	524	516	0	440	0	0	
14	0	0	0	0	521	509	0	430	0	0	
15	0	0	0	0	519	497	0	421	0	0	
0	0	0	0	0	519	483	0	415	0	0	
1	0	0	0	0	519	466	0	413	0	0	
2	0	0	0	0	521	450	0	414	0	0	
3	0	0	0	0	524	435	0	419	0	0	
4	0	0	0	0	528	423	0	426	0	0	
5	0	0	0	0	532	415	0	436	0	0	
6	0	0	0	0	536	412	0	447	0	0	
7	0	0	0	0	540	414	0	459	0	0	
8	0	0	0	0	543	421	0	469	0	0	
9	0	0	0	0	544	432	0	477	0	0	
10	0	0	0	0	544	446	0	483	0	0	
11	0	0	0	0	542	462	0	485	0	0	
12	0	0	0	0	540	478	0	483	0	0	
13	0	0	0	0	536	493	0	479	0	0	
14	0	0	0	0	531	505	0	471	0	0	
15	0	0	0	0	527	513	0	461	0	0	
0	0	0	0	0	523	516	0	450	0	0	
1	0	0	0	0	521	515	0	440	0	0	
2	0	0	0	0	519	507	0	430	0	0	
3	0	0	0	0	518	496	0	422	0	0	
4	0	0	0	0	518	482	0	416	0	0	
5	0	0	0	0	519	466	0	414	0	0	
6	0	0	0	0	522	450	0	415	0	0	
7	0	0	0	0	526	436	0	420	0	0	
8	0	0	0	0	530	424	0	428	0	0	
9	0	0	0	0	535	417	0	437	0	0	
10	0	0	0	0	538	415	0	448	0	0	
11	0	0	0	0	543	417	0	460	0	0	
12	0	0	0	0	545	425	0	470	0	0	
13	0	0	0	0	547	437	0	479	0	0	
14	0	0	0	0	548	452	0	486	0	0	
15	0	0	0	0	547	470	0	489	0	0	
0	0	0	0	0	545	486	0	489	0	0	
1	0	0	0	0	541	502	0	485	0	0	
2	0	0	0	0	536	514	0	478	0	0	
3	0	0	0	0	532	521	0	468	0	0	
4	0	0	0	0	527	524	0	456	0	0	
5	0	0	0	0	524	521	0	445	0	0	
6	0	0	0	0	520	512	0	434	0	0	
7	0	0	0	0	518	500	0	425	0	0	
8	0	0	0	0	518	484	0	419	0	0	
9	0	0	0	0	518	467	0	415	0	0	
10	0	0	0	0	521	451	0	416	0	0	
11	0	0	0	0	524	435	0	420	0	0	
12	0	0	0	0	529	423	0	428	0	0	
13	0	0	0	0	534	415	0	438	0	0	
14	0	0	0	0	538	413	0	449	0	0	
15	0	0	0	0	542	415	0	460	0	0	
0	0	0	0	0	545	423	0	471	0	0	
1	0	0	0	0	547	435	0	480	0	0	
2	0	0	0	0	548	449	0	486	0	0	
3	0	0	0	0	546	466	0	488	0	0	
4	0	0	0	0	544	483	0	487	0	0	
5	0	0	0	0	541	497	0	483	0	0	
6	0	0	0	0	536	509	0	475	0	0	
7	0	0	0	0	531	516	0	465	0	0	
8	0	0	0	0	526	519	0	453	0	0	
9	0	0	0	0	522	516	0	442	0	0	
10	0	0	0	0	519	508	0	432	0	0	
11	0	0	0	0	517	497	0	423	0	0	
12	0	0	0	0	516	482	0	416	0	0	
13	0	0	0	0	516	466	0	413	0	0	
14	0	0	0	0	519	450	0	415	0	0	
15	0	0	0	0	523	435	0	419	0	0	
0	0	0	0	0	527	424	0	427	0	0	
1	0	0	0	0	532	416	0	438	0	0	
2	0	0	0	0	536	414	0	448	0	0	
3	0	0	0	0	540	417	0	460	0	0	
4	0	0	0	0	543	424	0	471	0	0	
5	0	0	0	0	545	435	0	480	0	0	
6	0	0	0	0	547	451	0	486	0	0	
7	0	0	0	0	545	467	0	488	0	0	
8	0	0	0	0	543	484	0	487	0	0	
9	0	0	0	0	540	499	0	483	0	0	
10	0	0	0	0	536	512	0	476	0	0	
11	0	0	0	0	532	519	0	466	0	0	
12	0	0	0	0	528	523	0	455	0	0	
13	0	0	0	0	525	520	0	444	0	0	
14	0	0	0	0	521	513	0	433	0	0	
15	0	0	0	0	520	501	0	425	0	0	
0	0	0	0	0	519	487	0	419	0	0	
1	0	0	0	0	519	470	0	415	0	0	
2	0	0	0	0	521	454	0	416	0	0	
3	0	0	0	0	524	439	0	420	0	0	
4	0	0	0	0	528	428	0	428	0	0	
5	0	0	0	0	532	420	0	438	0	0	
6	0	0	0	0	536	417	0	448	0	0	
7	0	0	0	0	539	420	0	460	0	0	
8	0	0	0	0	541	428	0	470	0	0	
9	0	0	0	0	543	440	0	479	0	0	
10	0	0	0	0	543	454	0	485	0	0	
11	0	0	0	0	542	470	0	488	0	0	
12	0	0	0	0	540	487	0	487	0	0	
13	0	0	0	0	536	502	0	483	0	0	
14	0	0	0	0	532	513	0	475	0	0	
15	0	0	0	0	527	520	0	465	0	0	
0	0	0	0	0	522	523	0	453	0	0	
1	0	0	0	0	519	520	0	441	0	0	
2	0	0	0	0	516	512	0	430	0	0	
3	0	0	0	0	515	500	0	420	0	0	
4	0	0	0	0	514	484	0	414	0	0	
5	0	0	0	0	515	467	0	411	0	0	
6	0	0	0	0	517	450	0	410	0	0	
7	0	0	0	0	521	435	0	415	0	0	
8	0	0	0	0	525	423	0	422	0	0	
9	0	0	0	0	529	415	0	432	0	0	
10	0	0	0	0	533	412	0	443	0	0	
11	0	0	0	0	537	414	0	454	0	0	
12	0	0	0	0	540	420	0	465	0	0	
13	0	0	0	0	542	432	0	473	0	0	
14	0	0	0	0	542	446	0	480	0	0	
15	0	0	0	0	540	462	0	482	0	0	
0	0	0	0	0	538	478	0	481	0	0	
1	0	0	0	0	534	492	0	476	0	0	
2	0	0	0	0	529	504	0	468	0	0	
3	0	0	0	0	524	511	0	457	0	0	
4	0	0	0	0	519	513	0	446	0	0	
5	0	0	0	0	515	512	0	434	0	0	
6	0	0	0	0	512	504	0	423	0	0	
7	0	0	0	0	511	493	0	414	0	0	
8	0	0	0	0	510	479	0	408	0	0	
9	0	0	0	0	510	463	0	406	0	0	
