# OpenSignals Text File Format. Version 1
# {"": {"position": 0, "device": "", "device name": "", "device connection": "", "sampling rate": 1000, "resolution": [4, 1, 1, 1, 1, 10, 10, 10, 10, 6, 6], "firmware version": 1281, "comments": "", "keywords": "", "mode": 0, "sync interval": 2, "date": "", "time": "", "channels": [1, 2, 3, 4, 5, 6], "sensor": ["RAW", "RAW", "RAW", "RAW", "RAW", "RAW"], "label": ["A1", "A2", "A3", "A4", "A5", "A6"], "column": ["nSeq", "I1", "I2", "O1", "O2", "A1", "A2", "A3", "A4", "A5", "A6"], "special": [{}, {}, {}, {}, {}, {}], "digital IO": [0, 0, 1, 1]}}
# EndOfHeader
0	0	0	0	0	394	475	1021	0	0	0	
1	0	0	0	0	406	483	1021	0	0	0	
2	0	0	0	0	418	493	1021	0	0	0	
3	0	0	0	0	431	506	1021	0	0	0	
4	0	0	0	0	443	520	1021	0	0	0	
5	0	0	0	0	454	535	1021	0	0	0	
6	0	0	0	0	464	550	1021	0	0	0	
7	0	0	0	0	472	563	1021	0	0	0	
8	0	0	0	0	478	575	1020	0	0	0	
9	0	0	0	0	484	587	1021	0	0	0	
10	0	0	0	0	488	595	1021	0	0	0	
11	0	0	0	0	491	600	1021	0	0	0	
12	0	0	0	0	490	603	1021	0	0	0	
13	0	0	0	0	487	600	1020	0	0	0	
14	0	0	0	0	482	594	1021	0	0	0	
15	0	0	0	0	474	584	1021	0	0	0	
0	0	0	0	0	464	572	1021	0	0	0	
1	0	0	0	0	452	556	1021	0	0	0	
2	0	0	0	0	439	540	1021	0	0	0	
3	0	0	0	0	426	525	1021	0	0	0	
4	0	0	0	0	415	511	1021	0	0	0	
5	0	0	0	0	405	501	1021	0	0	0	
6	0	0	0	0	399	494	1021	0	0	0	
7	0	0	0	0	396	492	1021	0	0	0	
8	0	0	0	0	396	492	1021	0	0	0	
9	0	0	0	0	398	496	1021	0	0	0	
10	0	0	0	0	401	500	1021	0	0	0	
11	0	0	0	0	405	507	1021	0	0	0	
12	0	0	0	0	410	513	1020	0	0	0	
13	0	0	0	0	415	519	1021	0	0	0	
14	0	0	0	0	419	522	1021	0	0	0	
15	0	0	0	0	420	523	1021	0	0	0	
0	0	0	0	0	420	522	1021	0	0	0	
1	0	0	0	0	418	518	1021	0	0	0	
2	0	0	0	0	415	511	1021	0	0	0	
3	0	0	0	0	409	504	1021	0	0	0	
4	0	0	0	0	403	494	1021	0	0	0	
5	0	0	0	0	396	484	1021	0	0	0	
6	0	0	0	0	388	476	1021	0	0	0	
7	0	0	0	0	382	468	1021	0	0	0	
8	0	0	0	0	377	463	1021	0	0	0	
9	0	0	0	0	375	460	1021	0	0	0	
10	0	0	0	0	374	460	1021	0	0	0	
11	0	0	0	0	375	463	1020	0	0	0	
12	0	0	0	0	380	468	1021	0	0	0	
13	0	0	0	0	386	476	1021	0	0	0	
14	0	0	0	0	394	485	1021	0	0	0	
15	0	0	0	0	404	496	1021	0	0	0	
0	0	0	0	0	415	507	1021	0	0	0	
1	0	0	0	0	426	519	1021	0	0	0	
2	0	0	0	0	438	530	1021	0	0	0	
3	0	0	0	0	449	540	1021	0	0	0	
4	0	0	0	0	460	548	1021	0	0	0	
5	0	0	0	0	468	555	1021	0	0	0	
6	0	0	0	0	475	559	1021	0	0	0	
7	0	0	0	0	478	560	1021	0	0	0	
8	0	0	0	0	480	559	1021	0	0	0	
9	0	0	0	0	478	556	1021	0	0	0	
10	0	0	0	0	474	551	1020	0	0	0	
11	0	0	0	0	469	547	1021	0	0	0	
12	0	0	0	0	463	542	1021	0	0	0	
13	0	0	0	0	456	537	1021	0	0	0	
14	0	0	0	0	449	534	1021	0	0	0	
15	0	0	0	0	443	532	1021	0	0	0	
0	0	0	0	0	439	532	1021	0	0	0	
1	0	0	0	0	435	533	1021	0	0	0	
2	0	0	0	0	433	535	1021	0	0	0	
3	0	0	0	0	432	537	1021	0	0	0	
4	0	0	0	0	431	539	1021	0	0	0	
5	0	0	0	0	430	540	1021	0	0	0	
6	0	0	0	0	430	540	1021	0	0	0	
7	0	0	0	0	430	540	1021	0	0	0	
8	0	0	0	0	432	540	1021	0	0	0	
9	0	0	0	0	434	541	1020	0	0	0	
10	0	0	0	0	439	542	1021	0	0	0	
11	0	0	0	0	445	543	1021	0	0	0	
12	0	0	0	0	451	544	1021	0	0	0	
13	0	0	0	0	457	544	1021	0	0	0	
14	0	0	0	0	460	544	1020	0	0	0	
15	0	0	0	0	463	543	1021	0	0	0	
0	0	0	0	0	464	542	1021	0	0	0	
1	0	0	0	0	463	541	1021	0	0	0	
2	0	0	0	0	461	540	1020	0	0	0	
3	0	0	0	0	457	539	1020	0	0	0	
4	0	0	0	0	455	540	1021	0	0	0	
5	0	0	0	0	451	540	1021	0	0	0	
6	0	0	0	0	450	542	1021	0	0	0	
7	0	0	0	0	448	544	1021	0	0	0	
8	0	0	0	0	447	546	1021	0	0	0	
9	0	0	0	0	446	547	1021	0	0	0	
10	0	0	0	0	444	547	1021	0	0	0	
11	0	0	0	0	439	543	1021	0	0	0	
12	0	0	0	0	432	536	1021	0	0	0	
13	0	0	0	0	422	527	1021	0	0	0	
14	0	0	0	0	412	515	1021	0	0	0	
15	0	0	0	0	400	502	1021	0	0	0	
0	0	0	0	0	389	489	1021	0	0	0	
1	0	0	0	0	380	477	1021	0	0	0	
2	0	0	0	0	371	467	1021	0	0	0	
3	0	0	0	0	367	461	1021	0	0	0	
4	0	0	0	0	366	458	1021	0	0	0	
5	0	0	0	0	368	459	1021	0	0	0	
6	0	0	0	0	374	463	1021	0	0	0	
7	0	0	0	0	383	471	1021	0	0	0	
8	0	0	0	0	395	482	1021	0	0	0	
9	0	0	0	0	409	495	1021	0	0	0	
10	0	0	0	0	423	509	1021	0	0	0	
11	0	0	0	0	437	522	1021	0	0	0	
12	0	0	0	0	450	534	1021	0	0	0	
13	0	0	0	0	462	545	1021	0	0	0	
14	0	0	0	0	470	552	1021	0	0	0	
15	0	0	0	0	477	558	1021	0	0	0	
0	0	0	0	0	480	560	1021	0	0	0	
1	0	0	0	0	481	560	1021	0	0	0	
2	0	0	0	0	478	557	1021	0	0	0	
3	0	0	0	0	472	550	1021	0	0	0	
4	0	0	0	0	462	542	1021	0	0	0	
5	0	0	0	0	450	531	1021	0	0	0	
6	0	0	0	0	438	520	1021	0	0	0	
7	0	0	0	0	423	509	1021	0	0	0	
8	0	0	0	0	411	499	1021	0	0	0	
9	0	0	0	0	400	492	1021	0	0	0	
10	0	0	0	0	391	486	1021	0	0	0	
11	0	0	0	0	387	483	1021	0	0	0	
12	0	0	0	0	386	484	1021	0	0	0	
13	0	0	0	0	389	488	1021	0	0	0	
14	0	0	0	0	396	494	1021	0	0	0	
15	0	0	0	0	406	502	1021	0	0	0	
0	0	0	0	0	418	510	1021	0	0	0	
1	0	0	0	0	430	518	1021	0	0	0	
2	0	0	0	0	442	524	1021	0	0	0	
3	0	0	0	0	453	529	1021	0	0	0	
4	0	0	0	0	460	531	1021	0	0	0	
5	0	0	0	0	465	531	1021	0	0	0	
6	0	0	0	0	467	528	1021	0	0	0	
7	0	0	0	0	465	524	1021	0	0	0	
8	0	0	0	0	461	518	1021	0	0	0	
9	0	0	0	0	454	510	1021	0	0	0	
10	0	0	0	0	447	503	1021	0	0	0	
11	0	0	0	0	438	497	1021	0	0	0	
12	0	0	0	0	431	493	1021	0	0	0	
13	0	0	0	0	424	491	1021	0	0	0	
14	0	0	0	0	420	491	1021	0	0	0	
15	0	0	0	0	419	494	1021	0	0	0	
0	0	0	0	0	420	499	1021	0	0	0	
1	0	0	0	0	423	506	1021	0	0	0	
2	0	0	0	0	429	514	1021	0	0	0	
3	0	0	0	0	437	523	1021	0	0	0	
4	0	0	0	0	445	531	1021	0	0	0	
5	0	0	0	0	454	539	1021	0	0	0	
6	0	0	0	0	463	546	1021	0	0	0	
7	0	0	0	0	471	551	1021	0	0	0	
8	0	0	0	0	478	554	1021	0	0	0	
9	0	0	0	0	481	554	1021	0	0	0	
10	0	0	0	0	482	551	1021	0	0	0	
11	0	0	0	0	480	545	1021	0	0	0	
12	0	0	0	0	476	537	1021	0	0	0	
13	0	0	0	0	469	528	1021	0	0	0	
14	0	0	0	0	463	520	1021	0	0	0	
15	0	0	0	0	456	513	1021	0	0	0	
0	0	0	0	0	451	509	1021	0	0	0	
1	0	0	0	0	448	507	1021	0	0	0	
2	0	0	0	0	446	508	1021	0	0	0	
3	0	0	0	0	446	511	1021	0	0	0	
4	0	0	0	0	448	515	1021	0	0	0	
5	0	0	0	0	449	520	1021	0	0	0	
6	0	0	0	0	450	525	1021	0	0	0	
7	0	0	0	0	451	529	1020	0	0	0	
8	0	0	0	0	450	531	1021	0	0	0	
9	0	0	0	0	448	531	1021	0	0	0	
10	0	0	0	0	444	529	1021	0	0	0	
11	0	0	0	0	439	525	1021	0	0	0	
12	0	0	0	0	432	518	1021	0	0	0	
13	0	0	0	0	422	508	1021	0	0	0	
14	0	0	0	0	412	497	1021	0	0	0	
15	0	0	0	0	401	485	1021	0	0	0	
0	0	0	0	0	388	471	1021	0	0	0	
1	0	0	0	0	374	457	1021	0	0	0	
2	0	0	0	0	359	442	1021	0	0	0	
3	0	0	0	0	344	427	1021	0	0	0	
4	0	0	0	0	330	414	1021	0	0	0	
5	0	0	0	0	317	401	1021	0	0	0	
6	0	0	0	0	305	391	1021	0	0	0	
7	0	0	0	0	294	381	1021	0	0	0	
8	0	0	0	0	285	374	1021	0	0	0	
9	0	0	0	0	276	366	1021	0	0	0	
10	0	0	0	0	269	360	1021	0	0	0	
11	0	0	0	0	261	354	1021	0	0	0	
12	0	0	0	0	254	347	1020	0	0	0	
13	0	0	0	0	246	339	1021	0	0	0	
14	0	0	0	0	238	330	1021	0	0	0	
15	0	0	0	0	230	320	1021	0	0	0	
0	0	0	0	0	221	309	1021	0	0	0	
1	0	0	0	0	213	298	1021	0	0	0	
2	0	0	0	0	206	288	1021	0	0	0	
3	0	0	0	0	201	279	1021	0	0	0	
4	0	0	0	0	198	273	1020	0	0	0	
5	0	0	0	0	200	270	1021	0	0	0	
6	0	0	0	0	206	272	1020	0	0	0	
7	0	0	0	0	216	279	1021	0	0	0	
8	0	0	0	0	232	291	1021	0	0	0	
9	0	0	0	0	251	307	1020	0	0	0	
10	0	0	0	0	274	330	1021	0	0	0	
11	0	0	0	0	299	355	1020	0	0	0	
12	0	0	0	0	325	384	1021	0	0	0	
13	0	0	0	0	352	413	1021	0	0	0	
14	0	0	0	0	377	441	1021	0	0	0	
15	0	0	0	0	399	468	1021	0	0	0	
0	0	0	0	0	419	492	1021	0	0	0	
1	0	0	0	0	435	511	1021	0	0	0	
2	0	0	0	0	448	527	1021	0	0	0	
3	0	0	0	0	457	538	1021	0	0	0	
4	0	0	0	0	462	545	1021	0	0	0	
5	0	0	0	0	465	547	1021	0	0	0	
6	0	0	0	0	465	545	1021	0	0	0	
7	0	0	0	0	462	540	1021	0	0	0	
8	0	0	0	0	456	532	1021	0	0	0	
9	0	0	0	0	448	522	1021	0	0	0	
10	0	0	0	0	439	510	1021	0	0	0	
11	0	0	0	0	429	500	1021	0	0	0	
12	0	0	0	0	420	492	1021	0	0	0	
13	0	0	0	0	412	486	1021	0	0	0	
14	0	0	0	0	408	484	1021	0	0	0	
15	0	0	0	0	406	486	1021	0	0	0	
0	0	0	0	0	407	491	1021	0	0	0	
1	0	0	0	0	411	499	1021	0	0	0	
2	0	0	0	0	418	509	1021	0	0	0	
3	0	0	0	0	426	520	1021	0	0	0	
4	0	0	0	0	434	529	1021	0	0	0	
5	0	0	0	0	441	537	1021	0	0	0	
6	0	0	0	0	446	541	1021	0	0	0	
7	0	0	0	0	449	541	1021	0	0	0	
8	0	0	0	0	449	537	1021	0	0	0	
9	0	0	0	0	447	531	1021	0	0	0	
10	0	0	0	0	443	524	1021	0	0	0	
11	0	0	0	0	439	515	1021	0	0	0	
12	0	0	0	0	434	507	1021	0	0	0	
13	0	0	0	0	430	500	1021	0	0	0	
14	0	0	0	0	428	495	1020	0	0	0	
15	0	0	0	0	429	494	1021	0	0	0	
0	0	0	0	0	433	496	1021	0	0	0	
1	0	0	0	0	441	502	1021	0	0	0	
2	0	0	0	0	451	511	1021	0	0	0	
3	0	0	0	0	462	521	1021	0	0	0	
4	0	0	0	0	473	532	1021	0	0	0	
5	0	0	0	0	482	542	1021	0	0	0	
6	0	0	0	0	488	549	1021	0	0	0	
7	0	0	0	0	491	553	1021	0	0	0	
8	0	0	0	0	490	554	1021	0	0	0	
9	0	0	0	0	484	551	1021	0	0	0	
10	0	0	0	0	475	544	1021	0	0	0	
11	0	0	0	0	460	533	1021	0	0	0	
12	0	0	0	0	442	518	1021	0	0	0	
13	0	0	0	0	422	500	1020	0	0	0	
14	0	0	0	0	401	482	1021	0	0	0	
15	0	0	0	0	381	464	1021	0	0	0	
0	0	0	0	0	363	448	1021	0	0	0	
1	0	0	0	0	348	435	1021	0	0	0	
2	0	0	0	0	339	425	1021	0	0	0	
3	0	0	0	0	334	420	1021	0	0	0	
4	0	0	0	0	335	419	1021	0	0	0	
5	0	0	0	0	340	423	1021	0	0	0	
6	0	0	0	0	350	430	1021	0	0	0	
7	0	0	0	0	364	440	1021	0	0	0	
8	0	0	0	0	381	453	1021	0	0	0	
9	0	0	0	0	399	467	1021	0	0	0	
10	0	0	0	0	418	481	1021	0	0	0	
11	0	0	0	0	435	496	1021	0	0	0	
12	0	0	0	0	451	508	1020	0	0	0	
13	0	0	0	0	465	520	1021	0	0	0	
14	0	0	0	0	477	529	1021	0	0	0	
15	0	0	0	0	486	536	1021	0	0	0	
0	0	0	0	0	492	541	1021	0	0	0	
1	0	0	0	0	496	544	1021	0	0	0	
2	0	0	0	0	497	545	1021	0	0	0	
3	0	0	0	0	497	545	1021	0	0	0	
4	0	0	0	0	495	542	1021	0	0	0	
5	0	0	0	0	491	540	1021	0	0	0	
6	0	0	0	0	487	538	1021	0	0	0	
7	0	0	0	0	485	537	1021	0	0	0	
8	0	0	0	0	484	538	1021	0	0	0	
9	0	0	0	0	483	540	1021	0	0	0	
10	0	0	0	0	483	543	1021	0	0	0	
11	0	0	0	0	484	547	1020	0	0	0	
12	0	0	0	0	486	552	1021	0	0	0	
13	0	0	0	0	488	557	1021	0	0	0	
14	0	0	0	0	489	561	1021	0	0	0	
15	0	0	0	0	489	563	1021	0	0	0	
0	0	0	0	0	487	563	1021	0	0	0	
1	0	0	0	0	483	560	1021	0	0	0	
2	0	0	0	0	475	553	1021	0	0	0	
3	0	0	0	0	463	542	1021	0	0	0	
4	0	0	0	0	448	527	1021	0	0	0	
5	0	0	0	0	432	511	1021	0	0	0	
6	0	0	0	0	415	494	1021	0	0	0	
7	0	0	0	0	400	478	1021	0	0	0	
8	0	0	0	0	387	464	1021	0	0	0	
9	0	0	0	0	376	452	1021	0	0	0	
10	0	0	0	0	369	444	1020	0	0	0	
11	0	0	0	0	367	439	1021	0	0	0	
12	0	0	0	0	369	439	1021	0	0	0	
13	0	0	0	0	376	443	1021	0	0	0	
14	0	0	0	0	385	449	1021	0	0	0	
15	0	0	0	0	397	460	1021	0	0	0	
0	0	0	0	0	411	472	1021	0	0	0	
1	0	0	0	0	426	484	1021	0	0	0	
2	0	0	0	0	441	498	1021	0	0	0	
3	0	0	0	0	455	511	1021	0	0	0	
4	0	0	0	0	467	522	1020	0	0	0	
5	0	0	0	0	478	531	1021	0	0	0	
6	0	0	0	0	487	539	1021	0	0	0	
7	0	0	0	0	492	544	1021	0	0	0	
8	0	0	0	0	495	547	1020	0	0	0	
9	0	0	0	0	495	548	1021	0	0	0	
10	0	0	0	0	495	547	1021	0	0	0	
11	0	0	0	0	492	543	1021	0	0	0	
12	0	0	0	0	488	540	1021	0	0	0	
13	0	0	0	0	483	535	1021	0	0	0	
14	0	0	0	0	478	529	1021	0	0	0	
15	0	0	0	0	472	524	1021	0	0	0	
0	0	0	0	0	467	519	1021	0	0	0	
1	0	0	0	0	463	516	1021	0	0	0	
2	0	0	0	0	459	513	1021	0	0	0	
3	0	0	0	0	455	512	1021	0	0	0	
4	0	0	0	0	452	511	1021	0	0	0	
5	0	0	0	0	448	509	1021	0	0	0	
6	0	0	0	0	445	508	1021	0	0	0	
7	0	0	0	0	441	507	1021	0	0	0	
8	0	0	0	0	435	503	1021	0	0	0	
9	0	0	0	0	430	499	1021	0	0	0	
10	0	0	0	0	423	493	1021	0	0	0	
11	0	0	0	0	416	487	1021	0	0	0	
12	0	0	0	0	411	481	1021	0	0	0	
13	0	0	0	0	406	476	1021	0	0	0	
14	0	0	0	0	405	472	1021	0	0	0	
15	0	0	0	0	406	471	1021	0	0	0	
0	0	0	0	0	411	472	1021	0	0	0	
1	0	0	0	0	416	474	1021	0	0	0	
2	0	0	0	0	424	479	1021	0	0	0	
3	0	0	0	0	435	485	1021	0	0	0	
4	0	0	0	0	445	493	1021	0	0	0	
5	0	0	0	0	455	501	1021	0	0	0	
6	0	0	0	0	465	510	1020	0	0	0	
7	0	0	0	0	472	518	1021	0	0	0	
8	0	0	0	0	478	524	1021	0	0	0	
9	0	0	0	0	480	529	1021	0	0	0	
10	0	0	0	0	480	532	1021	0	0	0	
11	0	0	0	0	478	535	1021	0	0	0	
12	0	0	0	0	474	536	1021	0	0	0	
13	0	0	0	0	470	536	1021	0	0	0	
14	0	0	0	0	464	534	1021	0	0	0	
15	0	0	0	0	457	531	1021	0	0	0	
0	0	0	0	0	451	527	1021	0	0	0	
1	0	0	0	0	445	523	1021	0	0	0	
2	0	0	0	0	441	518	1021	0	0	0	
3	0	0	0	0	438	514	1021	0	0	0	
4	0	0	0	0	438	511	1021	0	0	0	
5	0	0	0	0	439	508	1021	0	0	0	
6	0	0	0	0	442	506	1021	0	0	0	
7	0	0	0	0	446	505	1021	0	0	0	
8	0	0	0	0	449	504	1021	0	0	0	
9	0	0	0	0	451	502	1021	0	0	0	
10	0	0	0	0	450	500	1021	0	0	0	
11	0	0	0	0	448	497	1021	0	0	0	
12	0	0	0	0	443	495	1021	0	0	0	
13	0	0	0	0	437	491	1021	0	0	0	
14	0	0	0	0	429	488	1021	0	0	0	
15	0	0	0	0	421	486	1021	0	0	0	
0	0	0	0	0	414	484	1021	0	0	0	
1	0	0	0	0	409	483	1021	0	0	0	
2	0	0	0	0	406	483	1021	0	0	0	
3	0	0	0	0	405	484	1021	0	0	0	
4	0	0	0	0	407	485	1021	0	0	0	
5	0	0	0	0	410	486	1021	0	0	0	
6	0	0	0	0	415	487	1021	0	0	0	
7	0	0	0	0	421	487	1021	0	0	0	
8	0	0	0	0	428	487	1021	0	0	0	
9	0	0	0	0	433	486	1020	0	0	0	
10	0	0	0	0	437	484	1021	0	0	0	
11	0	0	0	0	438	480	1021	0	0	0	
12	0	0	0	0	435	475	1021	0	0	0	
13	0	0	0	0	430	469	1021	0	0	0	
14	0	0	0	0	422	462	1021	0	0	0	
15	0	0	0	0	413	456	1021	0	0	0	
0	0	0	0	0	405	452	1021	0	0	0	
1	0	0	0	0	399	451	1021	0	0	0	
2	0	0	0	0	396	452	1021	0	0	0	
3	0	0	0	0	396	456	1021	0	0	0	
4	0	0	0	0	402	465	1021	0	0	0	
5	0	0	0	0	411	476	1021	0	0	0	
6	0	0	0	0	424	489	1021	0	0	0	
7	0	0	0	0	441	504	1021	0	0	0	
8	0	0	0	0	461	520	1021	0	0	0	
9	0	0	0	0	481	536	1021	0	0	0	
10	0	0	0	0	501	550	1021	0	0	0	
11	0	0	0	0	518	561	1021	0	0	0	
12	0	0	0	0	531	569	1021	0	0	0	
13	0	0	0	0	541	574	1021	0	0	0	
14	0	0	0	0	544	574	1021	0	0	0	
15	0	0	0	0	543	571	1021	0	0	0	
0	0	0	0	0	535	564	1021	0	0	0	
1	0	0	0	0	520	553	1021	0	0	0	
2	0	0	0	0	501	539	1021	0	0	0	
3	0	0	0	0	477	523	1021	0	0	0	
4	0	0	0	0	452	507	1021	0	0	0	
5	0	0	0	0	428	492	1021	0	0	0	
6	0	0	0	0	406	478	1021	0	0	0	
7	0	0	0	0	388	468	1021	0	0	0	
8	0	0	0	0	377	462	1021	0	0	0	
9	0	0	0	0	372	459	1021	0	0	0	
10	0	0	0	0	374	460	1021	0	0	0	
11	0	0	0	0	380	463	1020	0	0	0	
12	0	0	0	0	390	467	1021	0	0	0	
13	0	0	0	0	403	471	1021	0	0	0	
14	0	0	0	0	416	475	1021	0	0	0	
15	0	0	0	0	429	478	1021	0	0	0	
0	0	0	0	0	440	480	1021	0	0	0	
1	0	0	0	0	449	480	1021	0	0	0	
2	0	0	0	0	455	481	1021	0	0	0	
3	0	0	0	0	461	481	1021	0	0	0	
4	0	0	0	0	463	481	1021	0	0	0	
5	0	0	0	0	465	483	1021	0	0	0	
6	0	0	0	0	466	486	1021	0	0	0	
7	0	0	0	0	466	490	1021	0	0	0	
8	0	0	0	0	466	495	1021	0	0	0	
9	0	0	0	0	467	501	1021	0	0	0	
10	0	0	0	0	467	507	1021	0	0	0	
11	0	0	0	0	467	513	1021	0	0	0	
12	0	0	0	0	466	518	1021	0	0	0	
13	0	0	0	0	465	521	1021	0	0	0	
14	0	0	0	0	462	522	1021	0	0	0	
15	0	0	0	0	460	521	1021	0	0	0	
0	0	0	0	0	457	518	1021	0	0	0	
1	0	0	0	0	454	513	1021	0	0	0	
2	0	0	0	0	451	508	1021	0	0	0	
3	0	0	0	0	448	501	1021	0	0	0	
4	0	0	0	0	446	495	1021	0	0	0	
5	0	0	0	0	446	489	1021	0	0	0	
6	0	0	0	0	446	484	1021	0	0	0	
7	0	0	0	0	448	481	1021	0	0	0	
8	0	0	0	0	451	480	1021	0	0	0	
9	0	0	0	0	455	481	1021	0	0	0	
10	0	0	0	0	459	484	1020	0	0	0	
11	0	0	0	0	464	487	1020	0	0	0	
12	0	0	0	0	468	492	1021	0	0	0	
13	0	0	0	0	471	495	1021	0	0	0	
14	0	0	0	0	471	497	1020	0	0	0	
15	0	0	0	0	469	499	1021	0	0	0	
0	0	0	0	0	465	499	1021	0	0	0	
1	0	0	0	0	460	498	1021	0	0	0	
2	0	0	0	0	452	496	1021	0	0	0	
3	0	0	0	0	444	492	1021	0	0	0	
4	0	0	0	0	435	486	1021	0	0	0	
5	0	0	0	0	427	480	1021	0	0	0	
6	0	0	0	0	418	474	1021	0	0	0	
7	0	0	0	0	411	468	1021	0	0	0	
8	0	0	0	0	405	463	1021	0	0	0	
9	0	0	0	0	401	459	1020	0	0	0	
10	0	0	0	0	399	456	1020	0	0	0	
11	0	0	0	0	399	455	1021	0	0	0	
12	0	0	0	0	402	455	1021	0	0	0	
13	0	0	0	0	406	456	1021	0	0	0	
14	0	0	0	0	411	459	1021	0	0	0	
15	0	0	0	0	416	463	1021	0	0	0	
0	0	0	0	0	423	468	1021	0	0	0	
1	0	0	0	0	429	473	1021	0	0	0	
2	0	0	0	0	434	478	1021	0	0	0	
3	0	0	0	0	439	483	1021	0	0	0	
4	0	0	0	0	442	487	1021	0	0	0	
5	0	0	0	0	445	490	1021	0	0	0	
6	0	0	0	0	448	493	1021	0	0	0	
7	0	0	0	0	448	494	1021	0	0	0	
8	0	0	0	0	448	493	1021	0	0	0	
9	0	0	0	0	445	490	1021	0	0	0	
10	0	0	0	0	441	485	1021	0	0	0	
11	0	0	0	0	436	480	1021	0	0	0	
12	0	0	0	0	430	473	1021	0	0	0	
13	0	0	0	0	424	467	1021	0	0	0	
14	0	0	0	0	420	463	1021	0	0	0	
15	0	0	0	0	417	460	1021	0	0	0	
0	0	0	0	0	416	459	1021	0	0	0	
1	0	0	0	0	419	461	1021	0	0	0	
2	0	0	0	0	423	466	1021	0	0	0	
3	0	0	0	0	431	474	1021	0	0	0	
4	0	0	0	0	440	484	1021	0	0	0	
5	0	0	0	0	451	496	1021	0	0	0	
6	0	0	0	0	463	509	1021	0	0	0	
7	0	0	0	0	476	521	1021	0	0	0	
8	0	0	0	0	487	532	1021	0	0	0	
9	0	0	0	0	496	541	1021	0	0	0	
10	0	0	0	0	503	547	1021	0	0	0	
11	0	0	0	0	505	550	1021	0	0	0	
12	0	0	0	0	505	548	1020	0	0	0	
13	0	0	0	0	500	543	1021	0	0	0	
14	0	0	0	0	491	534	1021	0	0	0	
15	0	0	0	0	479	523	1021	0	0	0	
0	0	0	0	0	465	509	1021	0	0	0	
1	0	0	0	0	449	495	1021	0	0	0	
2	0	0	0	0	434	481	1021	0	0	0	
3	0	0	0	0	419	468	1021	0	0	0	
4	0	0	0	0	407	458	1021	0	0	0	
5	0	0	0	0	397	451	1021	0	0	0	
6	0	0	0	0	391	447	1021	0	0	0	
7	0	0	0	0	391	448	1021	0	0	0	
8	0	0	0	0	395	452	1021	0	0	0	
9	0	0	0	0	403	460	1021	0	0	0	
10	0	0	0	0	414	470	1021	0	0	0	
11	0	0	0	0	427	480	1021	0	0	0	
12	0	0	0	0	440	492	1021	0	0	0	
13	0	0	0	0	452	502	1021	0	0	0	
14	0	0	0	0	464	510	1021	0	0	0	
15	0	0	0	0	472	516	1021	0	0	0	
0	0	0	0	0	478	520	1021	0	0	0	
1	0	0	0	0	480	519	1021	0	0	0	
2	0	0	0	0	478	515	1021	0	0	0	
3	0	0	0	0	471	507	1021	0	0	0	
4	0	0	0	0	461	496	1021	0	0	0	
5	0	0	0	0	448	484	1020	0	0	0	
6	0	0	0	0	434	471	1021	0	0	0	
7	0	0	0	0	421	459	1021	0	0	0	
8	0	0	0	0	410	449	1021	0	0	0	
9	0	0	0	0	400	442	1021	0	0	0	
10	0	0	0	0	395	439	1021	0	0	0	
11	0	0	0	0	392	439	1021	0	0	0	
12	0	0	0	0	394	443	1021	0	0	0	
13	0	0	0	0	400	450	1021	0	0	0	
14	0	0	0	0	408	460	1021	0	0	0	
15	0	0	0	0	419	471	1021	0	0	0	
0	0	0	0	0	430	482	1020	0	0	0	
1	0	0	0	0	442	494	1021	0	0	0	
2	0	0	0	0	454	504	1021	0	0	0	
3	0	0	0	0	466	515	1021	0	0	0	
4	0	0	0	0	477	525	1021	0	0	0	
5	0	0	0	0	487	534	1021	0	0	0	
6	0	0	0	0	496	540	1021	0	0	0	
7	0	0	0	0	504	546	1021	0	0	0	
8	0	0	0	0	509	550	1021	0	0	0	
9	0	0	0	0	511	550	1021	0	0	0	
10	0	0	0	0	509	547	1021	0	0	0	
11	0	0	0	0	504	543	1021	0	0	0	
12	0	0	0	0	495	534	1021	0	0	0	
13	0	0	0	0	482	524	1021	0	0	0	
14	0	0	0	0	466	512	1021	0	0	0	
15	0	0	0	0	449	500	1020	0	0	0	
0	0	0	0	0	433	488	1021	0	0	0	
1	0	0	0	0	417	477	1021	0	0	0	
2	0	0	0	0	402	467	1021	0	0	0	
3	0	0	0	0	390	459	1021	0	0	0	
4	0	0	0	0	381	454	1021	0	0	0	
5	0	0	0	0	376	451	1021	0	0	0	
6	0	0	0	0	377	452	1021	0	0	0	
7	0	0	0	0	382	455	1021	0	0	0	
8	0	0	0	0	391	461	1021	0	0	0	
9	0	0	0	0	403	467	1020	0	0	0	
10	0	0	0	0	416	473	1021	0	0	0	
11	0	0	0	0	428	478	1021	0	0	0	
12	0	0	0	0	439	481	1021	0	0	0	
13	0	0	0	0	448	482	1021	0	0	0	
14	0	0	0	0	454	481	1020	0	0	0	
15	0	0	0	0	458	480	1021	0	0	0	
0	0	0	0	0	460	478	1021	0	0	0	
1	0	0	0	0	461	477	1021	0	0	0	
2	0	0	0	0	460	476	1021	0	0	0	
3	0	0	0	0	457	476	1021	0	0	0	
4	0	0	0	0	454	476	1021	0	0	0	
5	0	0	0	0	449	477	1021	0	0	0	
6	0	0	0	0	443	478	1021	0	0	0	
7	0	0	0	0	436	478	1021	0	0	0	
8	0	0	0	0	428	478	1021	0	0	0	
9	0	0	0	0	421	476	1021	0	0	0	
10	0	0	0	0	413	474	1021	0	0	0	
11	0	0	0	0	406	471	1021	0	0	0	
12	0	0	0	0	401	468	1021	0	0	0	
13	0	0	0	0	397	464	1021	0	0	0	
14	0	0	0	0	396	462	1021	0	0	0	
15	0	0	0	0	398	460	1021	0	0	0	
0	0	0	0	0	403	459	1021	0	0	0	
1	0	0	0	0	411	460	1021	0	0	0	
2	0	0	0	0	421	463	1021	0	0	0	
3	0	0	0	0	433	468	1021	0	0	0	
4	0	0	0	0	448	476	1021	0	0	0	
5	0	0	0	0	463	486	1021	0	0	0	
6	0	0	0	0	478	497	1021	0	0	0	
7	0	0	0	0	492	509	1020	0	0	0	
8	0	0	0	0	504	520	1021	0	0	0	
9	0	0	0	0	513	529	1021	0	0	0	
10	0	0	0	0	517	536	1021	0	0	0	
11	0	0	0	0	516	539	1021	0	0	0	
12	0	0	0	0	510	537	1021	0	0	0	
13	0	0	0	0	501	533	1021	0	0	0	
14	0	0	0	0	487	525	1021	0	0	0	
15	0	0	0	0	472	514	1021	0	0	0	
0	0	0	0	0	455	502	1021	0	0	0	
1	0	0	0	0	440	491	1021	0	0	0	
2	0	0	0	0	427	480	1021	0	0	0	
3	0	0	0	0	419	472	1021	0	0	0	
4	0	0	0	0	415	467	1021	0	0	0	
5	0	0	0	0	415	467	1020	0	0	0	
6	0	0	0	0	422	470	1021	0	0	0	
7	0	0	0	0	433	476	1021	0	0	0	
8	0	0	0	0	449	487	1021	0	0	0	
9	0	0	0	0	467	500	1021	0	0	0	
10	0	0	0	0	487	515	1021	0	0	0	
11	0	0	0	0	507	531	1021	0	0	0	
12	0	0	0	0	526	545	1021	0	0	0	
13	0	0	0	0	541	558	1021	0	0	0	
14	0	0	0	0	551	566	1021	0	0	0	
15	0	0	0	0	555	569	1021	0	0	0	
0	0	0	0	0	552	568	1021	0	0	0	
1	0	0	0	0	544	561	1021	0	0	0	
2	0	0	0	0	531	551	1021	0	0	0	
3	0	0	0	0	515	537	1021	0	0	0	
4	0	0	0	0	497	522	1021	0	0	0	
5	0	0	0	0	478	507	1021	0	0	0	
6	0	0	0	0	461	492	1021	0	0	0	
7	0	0	0	0	445	479	1021	0	0	0	
8	0	0	0	0	431	467	1021	0	0	0	
9	0	0	0	0	419	458	1021	0	0	0	
10	0	0	0	0	409	451	1021	0	0	0	
11	0	0	0	0	401	445	1021	0	0	0	
12	0	0	0	0	395	441	1021	0	0	0	
13	0	0	0	0	390	439	1021	0	0	0	
14	0	0	0	0	387	438	1021	0	0	0	
15	0	0	0	0	386	438	1021	0	0	0	
0	0	0	0	0	386	439	1021	0	0	0	
1	0	0	0	0	387	440	1021	0	0	0	
2	0	0	0	0	390	443	1021	0	0	0	
3	0	0	0	0	394	446	1021	0	0	0	
4	0	0	0	0	400	450	1021	0	0	0	
5	0	0	0	0	407	454	1021	0	0	0	
6	0	0	0	0	415	459	1021	0	0	0	
7	0	0	0	0	424	464	1021	0	0	0	
8	0	0	0	0	433	468	1021	0	0	0	
9	0	0	0	0	442	472	1021	0	0	0	
10	0	0	0	0	450	475	1021	0	0	0	
11	0	0	0	0	458	478	1021	0	0	0	
12	0	0	0	0	463	479	1021	0	0	0	
13	0	0	0	0	467	479	1021	0	0	0	
14	0	0	0	0	467	478	1021	0	0	0	
15	0	0	0	0	464	474	1021	0	0	0	
0	0	0	0	0	459	470	1021	0	0	0	
1	0	0	0	0	451	464	1021	0	0	0	
2	0	0	0	0	442	459	1021	0	0	0	
3	0	0	0	0	433	454	1021	0	0	0	
4	0	0	0	0	425	450	1021	0	0	0	
5	0	0	0	0	420	449	1021	0	0	0	
6	0	0	0	0	416	448	1021	0	0	0	
7	0	0	0	0	415	451	1021	0	0	0	
8	0	0	0	0	416	454	1021	0	0	0	
9	0	0	0	0	419	459	1021	0	0	0	
10	0	0	0	0	424	465	1021	0	0	0	
11	0	0	0	0	429	471	1021	0	0	0	
12	0	0	0	0	435	477	1020	0	0	0	
13	0	0	0	0	441	483	1021	0	0	0	
14	0	0	0	0	448	488	1021	0	0	0	
15	0	0	0	0	454	495	1021	0	0	0	
0	0	0	0	0	461	500	1021	0	0	0	
1	0	0	0	0	467	506	1020	0	0	0	
2	0	0	0	0	474	511	1021	0	0	0	
3	0	0	0	0	479	514	1021	0	0	0	
4	0	0	0	0	483	516	1021	0	0	0	
5	0	0	0	0	485	516	1021	0	0	0	
6	0	0	0	0	484	515	1021	0	0	0	
7	0	0	0	0	482	512	1021	0	0	0	
8	0	0	0	0	477	507	1021	0	0	0	
9	0	0	0	0	471	502	1021	0	0	0	
10	0	0	0	0	463	496	1021	0	0	0	
11	0	0	0	0	455	490	1021	0	0	0	
12	0	0	0	0	449	485	1021	0	0	0	
13	0	0	0	0	444	481	1021	0	0	0	
14	0	0	0	0	440	478	1021	0	0	0	
15	0	0	0	0	436	475	1021	0	0	0	
0	0	0	0	0	435	472	1021	0	0	0	
1	0	0	0	0	434	470	1021	0	0	0	
2	0	0	0	0	435	468	1021	0	0	0	
3	0	0	0	0	435	466	1021	0	0	0	
4	0	0	0	0	436	463	1021	0	0	0	
5	0	0	0	0	436	461	1021	0	0	0	
6	0	0	0	0	436	459	1020	0	0	0	
7	0	0	0	0	435	456	1021	0	0	0	
8	0	0	0	0	435	455	1021	0	0	0	
9	0	0	0	0	434	455	1021	0	0	0	
10	0	0	0	0	433	455	1021	0	0	0	
11	0	0	0	0	432	457	1021	0	0	0	
12	0	0	0	0	433	460	1021	0	0	0	
13	0	0	0	0	433	464	1021	0	0	0	
14	0	0	0	0	434	468	1021	0	0	0	
15	0	0	0	0	435	472	1021	0	0	0	
0	0	0	0	0	435	475	1021	0	0	0	
1	0	0	0	0	437	478	1021	0	0	0	
2	0	0	0	0	438	480	1021	0	0	0	
3	0	0	0	0	441	481	1021	0	0	0	
4	0	0	0	0	444	483	1021	0	0	0	
5	0	0	0	0	449	485	1020	0	0	0	
6	0	0	0	0	456	487	1021	0	0	0	
7	0	0	0	0	464	491	1021	0	0	0	
8	0	0	0	0	474	495	1021	0	0	0	
9	0	0	0	0	484	500	1021	0	0	0	
10	0	0	0	0	496	508	1020	0	0	0	
11	0	0	0	0	508	516	1021	0	0	0	
12	0	0	0	0	519	526	1021	0	0	0	
13	0	0	0	0	530	536	1021	0	0	0	
14	0	0	0	0	538	544	1021	0	0	0	
15	0	0	0	0	542	551	1021	0	0	0	
0	0	0	0	0	543	555	1021	0	0	0	
1	0	0	0	0	539	555	1021	0	0	0	
2	0	0	0	0	530	551	1021	0	0	0	
3	0	0	0	0	517	543	1021	0	0	0	
4	0	0	0	0	500	532	1021	0	0	0	
5	0	0	0	0	481	519	1021	0	0	0	
6	0	0	0	0	460	503	1021	0	0	0	
7	0	0	0	0	440	485	1021	0	0	0	
8	0	0	0	0	419	468	1021	0	0	0	
9	0	0	0	0	402	451	1021	0	0	0	
10	0	0	0	0	387	436	1021	0	0	0	
11	0	0	0	0	376	423	1021	0	0	0	
12	0	0	0	0	369	413	1021	0	0	0	
13	0	0	0	0	366	405	1021	0	0	0	
14	0	0	0	0	366	401	1021	0	0	0	
15	0	0	0	0	368	400	1021	0	0	0	
0	0	0	0	0	374	401	1021	0	0	0	
1	0	0	0	0	381	406	1021	0	0	0	
2	0	0	0	0	390	413	1021	0	0	0	
3	0	0	0	0	400	422	1020	0	0	0	
4	0	0	0	0	411	432	1021	0	0	0	
5	0	0	0	0	423	443	1021	0	0	0	
6	0	0	0	0	433	454	1021	0	0	0	
7	0	0	0	0	443	464	1021	0	0	0	
8	0	0	0	0	451	473	1021	0	0	0	
9	0	0	0	0	458	480	1021	0	0	0	
10	0	0	0	0	462	485	1021	0	0	0	
11	0	0	0	0	464	488	1021	0	0	0	
12	0	0	0	0	465	489	1021	0	0	0	
13	0	0	0	0	464	489	1021	0	0	0	
14	0	0	0	0	462	487	1021	0	0	0	
15	0	0	0	0	460	485	1021	0	0	0	
0	0	0	0	0	456	482	1021	0	0	0	
1	0	0	0	0	453	478	1021	0	0	0	
2	0	0	0	0	448	473	1020	0	0	0	
3	0	0	0	0	445	469	1021	0	0	0	
4	0	0	0	0	441	465	1021	0	0	0	
5	0	0	0	0	439	463	1021	0	0	0	
6	0	0	0	0	436	461	1021	0	0	0	
7	0	0	0	0	436	462	1021	0	0	0	
8	0	0	0	0	436	464	1021	0	0	0	
9	0	0	0	0	439	468	1021	0	0	0	
10	0	0	0	0	443	473	1021	0	0	0	
11	0	0	0	0	449	480	1021	0	0	0	
12	0	0	0	0	455	487	1021	0	0	0	
13	0	0	0	0	463	495	1021	0	0	0	
14	0	0	0	0	471	501	1021	0	0	0	
15	0	0	0	0	477	505	1021	0	0	0	
0	0	0	0	0	480	508	1020	0	0	0	
1	0	0	0	0	482	507	1020	0	0	0	
2	0	0	0	0	480	504	1021	0	0	0	
3	0	0	0	0	476	497	1021	0	0	0	
4	0	0	0	0	468	487	1021	0	0	0	
5	0	0	0	0	458	477	1021	0	0	0	
6	0	0	0	0	446	465	1020	0	0	0	
7	0	0	0	0	434	454	1021	0	0	0	
8	0	0	0	0	423	445	1021	0	0	0	
9	0	0	0	0	413	438	1021	0	0	0	
10	0	0	0	0	406	433	1021	0	0	0	
11	0	0	0	0	402	433	1021	0	0	0	
12	0	0	0	0	401	434	1021	0	0	0	
13	0	0	0	0	403	438	1021	0	0	0	
14	0	0	0	0	409	445	1021	0	0	0	
15	0	0	0	0	417	453	1021	0	0	0	
0	0	0	0	0	430	464	1021	0	0	0	
1	0	0	0	0	444	477	1021	0	0	0	
2	0	0	0	0	460	491	1021	0	0	0	
3	0	0	0	0	478	504	1021	0	0	0	
4	0	0	0	0	495	518	1021	0	0	0	
5	0	0	0	0	511	531	1021	0	0	0	
6	0	0	0	0	527	542	1021	0	0	0	
7	0	0	0	0	540	552	1021	0	0	0	
8	0	0	0	0	551	561	1021	0	0	0	
9	0	0	0	0	560	568	1021	0	0	0	
10	0	0	0	0	565	572	1021	0	0	0	
11	0	0	0	0	568	576	1021	0	0	0	
12	0	0	0	0	569	579	1021	0	0	0	
13	0	0	0	0	568	580	1021	0	0	0	
14	0	0	0	0	563	580	1021	0	0	0	
15	0	0	0	0	557	578	1021	0	0	0	
0	0	0	0	0	548	575	1021	0	0	0	
1	0	0	0	0	538	569	1021	0	0	0	
2	0	0	0	0	525	562	1021	0	0	0	
3	0	0	0	0	511	553	1021	0	0	0	
4	0	0	0	0	494	540	1020	0	0	0	
5	0	0	0	0	476	524	1021	0	0	0	
6	0	0	0	0	456	506	1021	0	0	0	
7	0	0	0	0	435	487	1021	0	0	0	
8	0	0	0	0	415	466	1021	0	0	0	
9	0	0	0	0	396	447	1021	0	0	0	
10	0	0	0	0	380	429	1021	0	0	0	
11	0	0	0	0	368	414	1021	0	0	0	
12	0	0	0	0	359	401	1021	0	0	0	
13	0	0	0	0	355	393	1021	0	0	0	
14	0	0	0	0	355	389	1021	0	0	0	
15	0	0	0	0	359	388	1021	0	0	0	
0	0	0	0	0	366	391	1021	0	0	0	
1	0	0	0	0	376	397	1021	0	0	0	
2	0	0	0	0	387	404	1021	0	0	0	
3	0	0	0	0	398	412	1020	0	0	0	
4	0	0	0	0	409	422	1021	0	0	0	
5	0	0	0	0	420	432	1021	0	0	0	
6	0	0	0	0	429	440	1021	0	0	0	
7	0	0	0	0	437	448	1021	0	0	0	
8	0	0	0	0	442	455	1021	0	0	0	
9	0	0	0	0	445	459	1021	0	0	0	
10	0	0	0	0	444	460	1021	0	0	0	
11	0	0	0	0	439	457	1021	0	0	0	
12	0	0	0	0	430	451	1021	0	0	0	
13	0	0	0	0	416	440	1021	0	0	0	
14	0	0	0	0	398	424	1021	0	0	0	
15	0	0	0	0	376	405	1021	0	0	0	
0	0	0	0	0	350	381	1021	0	0	0	
1	0	0	0	0	321	355	1021	0	0	0	
2	0	0	0	0	291	327	1021	0	0	0	
3	0	0	0	0	260	299	1021	0	0	0	
4	0	0	0	0	232	274	1021	0	0	0	
5	0	0	0	0	208	253	1021	0	0	0	
6	0	0	0	0	190	236	1021	0	0	0	
7	0	0	0	0	178	226	1021	0	0	0	
8	0	0	0	0	175	224	1021	0	0	0	
9	0	0	0	0	179	228	1021	0	0	0	
10	0	0	0	0	193	240	1021	0	0	0	
11	0	0	0	0	214	257	1021	0	0	0	
12	0	0	0	0	241	279	1021	0	0	0	
13	0	0	0	0	272	304	1021	0	0	0	
14	0	0	0	0	305	330	1021	0	0	0	
15	0	0	0	0	339	357	1021	0	0	0	
0	0	0	0	0	372	382	1021	0	0	0	
1	0	0	0	0	402	406	1021	0	0	0	
2	0	0	0	0	428	426	1021	0	0	0	
3	0	0	0	0	451	444	1021	0	0	0	
4	0	0	0	0	467	459	1021	0	0	0	
5	0	0	0	0	480	472	1021	0	0	0	
6	0	0	0	0	488	483	1021	0	0	0	
7	0	0	0	0	494	493	1021	0	0	0	
8	0	0	0	0	496	502	1021	0	0	0	
9	0	0	0	0	498	511	1021	0	0	0	
10	0	0	0	0	499	521	1021	0	0	0	
11	0	0	0	0	502	531	1021	0	0	0	
12	0	0	0	0	506	543	1021	0	0	0	
13	0	0	0	0	511	554	1021	0	0	0	
14	0	0	0	0	517	565	1021	0	0	0	
15	0	0	0	0	523	574	1021	0	0	0	
0	0	0	0	0	527	580	1021	0	0	0	
1	0	0	0	0	530	582	1021	0	0	0	
2	0	0	0	0	529	580	1021	0	0	0	
3	0	0	0	0	526	575	1021	0	0	0	
4	0	0	0	0	518	564	1021	0	0	0	
5	0	0	0	0	508	551	1021	0	0	0	
6	0	0	0	0	496	536	1021	0	0	0	
7	0	0	0	0	483	519	1021	0	0	0	
8	0	0	0	0	469	502	1021	0	0	0	
9	0	0	0	0	455	485	1021	0	0	0	
10	0	0	0	0	442	471	1021	0	0	0	
11	0	0	0	0	432	460	1021	0	0	0	
12	0	0	0	0	425	454	1021	0	0	0	
13	0	0	0	0	423	451	1021	0	0	0	
14	0	0	0	0	424	454	1021	0	0	0	
15	0	0	0	0	430	462	1021	0	0	0	
0	0	0	0	0	439	472	1021	0	0	0	
1	0	0	0	0	451	485	1021	0	0	0	
2	0	0	0	0	465	499	1021	0	0	0	
3	0	0	0	0	478	512	1021	0	0	0	
4	0	0	0	0	491	524	1021	0	0	0	
5	0	0	0	0	501	533	1021	0	0	0	
6	0	0	0	0	507	539	1021	0	0	0	
7	0	0	0	0	510	542	1021	0	0	0	
8	0	0	0	0	509	540	1021	0	0	0	
9	0	0	0	0	504	536	1021	0	0	0	
10	0	0	0	0	497	530	1021	0	0	0	
11	0	0	0	0	487	522	1021	0	0	0	
12	0	0	0	0	475	513	1021	0	0	0	
13	0	0	0	0	463	503	1021	0	0	0	
14	0	0	0	0	451	494	1021	0	0	0	
15	0	0	0	0	441	486	1021	0	0	0	
0	0	0	0	0	433	480	1021	0	0	0	
1	0	0	0	0	427	476	1021	0	0	0	
2	0	0	0	0	423	475	1020	0	0	0	
3	0	0	0	0	424	476	1021	0	0	0	
4	0	0	0	0	429	481	1021	0	0	0	
5	0	0	0	0	436	488	1021	0	0	0	
6	0	0	0	0	444	496	1021	0	0	0	
7	0	0	0	0	454	505	1021	0	0	0	
8	0	0	0	0	463	514	1021	0	0	0	
9	0	0	0	0	471	521	1021	0	0	0	
10	0	0	0	0	478	527	1021	0	0	0	
11	0	0	0	0	483	531	1021	0	0	0	
12	0	0	0	0	487	536	1020	0	0	0	
13	0	0	0	0	492	539	1021	0	0	0	
14	0	0	0	0	496	542	1021	0	0	0	
15	0	0	0	0	501	544	1021	0	0	0	
0	0	0	0	0	506	547	1021	0	0	0	
1	0	0	0	0	510	548	1021	0	0	0	
2	0	0	0	0	513	549	1021	0	0	0	
3	0	0	0	0	514	548	1021	0	0	0	
4	0	0	0	0	513	545	1020	0	0	0	
5	0	0	0	0	509	541	1021	0	0	0	
6	0	0	0	0	503	535	1021	0	0	0	
7	0	0	0	0	495	528	1020	0	0	0	
8	0	0	0	0	486	521	1021	0	0	0	
9	0	0	0	0	475	513	1021	0	0	0	
10	0	0	0	0	465	505	1021	0	0	0	
11	0	0	0	0	454	497	1021	0	0	0	
12	0	0	0	0	444	489	1021	0	0	0	
13	0	0	0	0	435	483	1021	0	0	0	
14	0	0	0	0	428	478	1021	0	0	0	
15	0	0	0	0	424	476	1021	0	0	0	
0	0	0	0	0	423	475	1021	0	0	0	
1	0	0	0	0	426	477	1021	0	0	0	
2	0	0	0	0	434	483	1021	0	0	0	
3	0	0	0	0	445	492	1021	0	0	0	
4	0	0	0	0	459	503	1021	0	0	0	
5	0	0	0	0	476	515	1021	0	0	0	
6	0	0	0	0	494	530	1021	0	0	0	
7	0	0	0	0	511	543	1021	0	0	0	
8	0	0	0	0	526	556	1021	0	0	0	
9	0	0	0	0	538	568	1021	0	0	0	
10	0	0	0	0	545	575	1021	0	0	0	
11	0	0	0	0	547	579	1021	0	0	0	
12	0	0	0	0	544	579	1021	0	0	0	
13	0	0	0	0	536	574	1021	0	0	0	
14	0	0	0	0	524	567	1021	0	0	0	
15	0	0	0	0	509	558	1021	0	0	0	
0	0	0	0	0	493	546	1021	0	0	0	
1	0	0	0	0	477	535	1021	0	0	0	
2	0	0	0	0	464	524	1021	0	0	0	
3	0	0	0	0	453	515	1021	0	0	0	
4	0	0	0	0	446	508	1021	0	0	0	
5	0	0	0	0	442	502	1021	0	0	0	
6	0	0	0	0	441	497	1021	0	0	0	
7	0	0	0	0	441	493	1021	0	0	0	
8	0	0	0	0	442	489	1021	0	0	0	
9	0	0	0	0	444	486	1021	0	0	0	
10	0	0	0	0	446	483	1021	0	0	0	
11	0	0	0	0	448	482	1021	0	0	0	
12	0	0	0	0	451	482	1021	0	0	0	
13	0	0	0	0	455	484	1021	0	0	0	
14	0	0	0	0	460	489	1021	0	0	0	
15	0	0	0	0	466	496	1021	0	0	0	
0	0	0	0	0	474	505	1021	0	0	0	
1	0	0	0	0	483	515	1021	0	0	0	
2	0	0	0	0	491	525	1021	0	0	0	
3	0	0	0	0	499	533	1021	0	0	0	
4	0	0	0	0	504	539	1021	0	0	0	
5	0	0	0	0	507	541	1021	0	0	0	
6	0	0	0	0	504	538	1021	0	0	0	
7	0	0	0	0	496	531	1021	0	0	0	
8	0	0	0	0	484	519	1021	0	0	0	
9	0	0	0	0	469	505	1021	0	0	0	
10	0	0	0	0	453	491	1021	0	0	0	
11	0	0	0	0	437	476	1021	0	0	0	
12	0	0	0	0	422	462	1021	0	0	0	
13	0	0	0	0	409	449	1021	0	0	0	
14	0	0	0	0	400	439	1021	0	0	0	
15	0	0	0	0	394	432	1021	0	0	0	
0	0	0	0	0	392	429	1021	0	0	0	
1	0	0	0	0	394	429	1021	0	0	0	
2	0	0	0	0	400	433	1021	0	0	0	
3	0	0	0	0	409	440	1020	0	0	0	
4	0	0	0	0	421	450	1021	0	0	0	
5	0	0	0	0	433	461	1021	0	0	0	
6	0	0	0	0	446	472	1021	0	0	0	
7	0	0	0	0	458	484	1021	0	0	0	
8	0	0	0	0	468	495	1021	0	0	0	
9	0	0	0	0	476	503	1021	0	0	0	
10	0	0	0	0	481	510	1021	0	0	0	
11	0	0	0	0	483	514	1021	0	0	0	
12	0	0	0	0	484	516	1021	0	0	0	
13	0	0	0	0	483	518	1021	0	0	0	
14	0	0	0	0	482	518	1021	0	0	0	
15	0	0	0	0	481	518	1021	0	0	0	
0	0	0	0	0	482	518	1021	0	0	0	
1	0	0	0	0	483	519	1021	0	0	0	
2	0	0	0	0	486	520	1021	0	0	0	
3	0	0	0	0	491	524	1021	0	0	0	
4	0	0	0	0	496	529	1021	0	0	0	
5	0	0	0	0	504	536	1021	0	0	0	
6	0	0	0	0	510	543	1021	0	0	0	
7	0	0	0	0	517	551	1021	0	0	0	
8	0	0	0	0	523	557	1021	0	0	0	
9	0	0	0	0	526	561	1021	0	0	0	
10	0	0	0	0	526	563	1021	0	0	0	
11	0	0	0	0	523	561	1021	0	0	0	
12	0	0	0	0	516	556	1021	0	0	0	
13	0	0	0	0	507	547	1021	0	0	0	
14	0	0	0	0	495	537	1021	0	0	0	
15	0	0	0	0	482	525	1021	0	0	0	
0	0	0	0	0	471	514	1021	0	0	0	
1	0	0	0	0	460	503	1021	0	0	0	
2	0	0	0	0	451	494	1021	0	0	0	
3	0	0	0	0	443	484	1021	0	0	0	
4	0	0	0	0	437	476	1021	0	0	0	
5	0	0	0	0	431	469	1021	0	0	0	
6	0	0	0	0	427	464	1021	0	0	0	
7	0	0	0	0	425	460	1021	0	0	0	
8	0	0	0	0	424	459	1021	0	0	0	
9	0	0	0	0	425	460	1021	0	0	0	
10	0	0	0	0	428	463	1021	0	0	0	
11	0	0	0	0	433	468	1021	0	0	0	
12	0	0	0	0	439	473	1021	0	0	0	
13	0	0	0	0	444	478	1021	0	0	0	
14	0	0	0	0	450	482	1021	0	0	0	
15	0	0	0	0	454	485	1021	0	0	0	
0	0	0	0	0	457	487	1021	0	0	0	
1	0	0	0	0	458	487	1021	0	0	0	
2	0	0	0	0	459	486	1021	0	0	0	
3	0	0	0	0	459	484	1021	0	0	0	
4	0	0	0	0	459	482	1021	0	0	0	
5	0	0	0	0	460	481	1020	0	0	0	
6	0	0	0	0	464	481	1021	0	0	0	
7	0	0	0	0	470	484	1021	0	0	0	
8	0	0	0	0	478	489	1021	0	0	0	
9	0	0	0	0	487	496	1021	0	0	0	
10	0	0	0	0	498	504	1021	0	0	0	
11	0	0	0	0	508	511	1021	0	0	0	
12	0	0	0	0	515	518	1021	0	0	0	
13	0	0	0	0	520	523	1021	0	0	0	
14	0	0	0	0	523	527	1021	0	0	0	
15	0	0	0	0	521	528	1021	0	0	0	
0	0	0	0	0	518	527	1021	0	0	0	
1	0	0	0	0	511	525	1021	0	0	0	
2	0	0	0	0	502	520	1021	0	0	0	
3	0	0	0	0	492	514	1021	0	0	0	
4	0	0	0	0	480	507	1021	0	0	0	
5	0	0	0	0	470	500	1021	0	0	0	
6	0	0	0	0	459	492	1021	0	0	0	
7	0	0	0	0	449	484	1021	0	0	0	
8	0	0	0	0	440	476	1021	0	0	0	
9	0	0	0	0	432	467	1021	0	0	0	
10	0	0	0	0	426	459	1021	0	0	0	
11	0	0	0	0	421	452	1021	0	0	0	
12	0	0	0	0	418	446	1021	0	0	0	
13	0	0	0	0	416	442	1021	0	0	0	
14	0	0	0	0	416	440	1021	0	0	0	
15	0	0	0	0	419	440	1021	0	0	0	
0	0	0	0	0	423	441	1021	0	0	0	
1	0	0	0	0	428	446	1021	0	0	0	
2	0	0	0	0	435	451	1021	0	0	0	
3	0	0	0	0	441	458	1020	0	0	0	
4	0	0	0	0	449	465	1021	0	0	0	
5	0	0	0	0	457	474	1021	0	0	0	
6	0	0	0	0	465	481	1021	0	0	0	
7	0	0	0	0	472	487	1021	0	0	0	
8	0	0	0	0	477	493	1021	0	0	0	
9	0	0	0	0	482	497	1021	0	0	0	
10	0	0	0	0	486	500	1021	0	0	0	
11	0	0	0	0	487	501	1021	0	0	0	
12	0	0	0	0	488	500	1021	0	0	0	
13	0	0	0	0	488	499	1021	0	0	0	
14	0	0	0	0	487	497	1021	0	0	0	
15	0	0	0	0	486	494	1021	0	0	0	
0	0	0	0	0	484	491	1021	0	0	0	
1	0	0	0	0	482	487	1020	0	0	0	
2	0	0	0	0	481	485	1021	0	0	0	
3	0	0	0	0	480	484	1021	0	0	0	
4	0	0	0	0	479	484	1021	0	0	0	
5	0	0	0	0	479	485	1021	0	0	0	
6	0	0	0	0	478	487	1021	0	0	0	
7	0	0	0	0	479	491	1021	0	0	0	
8	0	0	0	0	479	494	1021	0	0	0	
9	0	0	0	0	480	498	1021	0	0	0	
10	0	0	0	0	480	501	1021	0	0	0	
11	0	0	0	0	479	504	1021	0	0	0	
12	0	0	0	0	477	504	1021	0	0	0	
13	0	0	0	0	474	503	1021	0	0	0	
14	0	0	0	0	471	501	1021	0	0	0	
15	0	0	0	0	466	497	1021	0	0	0	
0	0	0	0	0	462	492	1021	0	0	0	
1	0	0	0	0	457	487	1021	0	0	0	
2	0	0	0	0	454	481	1021	0	0	0	
3	0	0	0	0	449	475	1021	0	0	0	
4	0	0	0	0	445	467	1021	0	0	0	
5	0	0	0	0	441	461	1021	0	0	0	
6	0	0	0	0	438	454	1021	0	0	0	
7	0	0	0	0	434	448	1021	0	0	0	
8	0	0	0	0	431	443	1021	0	0	0	
9	0	0	0	0	430	440	1021	0	0	0	
10	0	0	0	0	429	438	1021	0	0	0	
11	0	0	0	0	429	439	1020	0	0	0	
12	0	0	0	0	432	442	1021	0	0	0	
13	0	0	0	0	436	448	1021	0	0	0	
14	0	0	0	0	442	456	1021	0	0	0	
15	0	0	0	0	450	466	1021	0	0	0	
0	0	0	0	0	459	476	1021	0	0	0	
1	0	0	0	0	467	486	1021	0	0	0	
2	0	0	0	0	474	494	1021	0	0	0	
3	0	0	0	0	480	499	1021	0	0	0	
4	0	0	0	0	482	502	1021	0	0	0	
5	0	0	0	0	482	501	1021	0	0	0	
6	0	0	0	0	479	497	1021	0	0	0	
7	0	0	0	0	475	492	1021	0	0	0	
8	0	0	0	0	471	485	1021	0	0	0	
9	0	0	0	0	465	478	1021	0	0	0	
10	0	0	0	0	461	472	1020	0	0	0	
11	0	0	0	0	459	468	1021	0	0	0	
12	0	0	0	0	459	467	1021	0	0	0	
13	0	0	0	0	460	467	1021	0	0	0	
14	0	0	0	0	463	470	1021	0	0	0	
15	0	0	0	0	466	474	1021	0	0	0	
0	0	0	0	0	470	480	1021	0	0	0	
1	0	0	0	0	473	485	1021	0	0	0	
2	0	0	0	0	475	490	1021	0	0	0	
3	0	0	0	0	475	494	1021	0	0	0	
4	0	0	0	0	474	495	1021	0	0	0	
5	0	0	0	0	471	494	1021	0	0	0	
6	0	0	0	0	464	489	1021	0	0	0	
7	0	0	0	0	457	483	1021	0	0	0	
8	0	0	0	0	448	474	1021	0	0	0	
9	0	0	0	0	439	465	1021	0	0	0	
10	0	0	0	0	431	455	1021	0	0	0	
11	0	0	0	0	424	447	1021	0	0	0	
12	0	0	0	0	420	440	1021	0	0	0	
13	0	0	0	0	419	436	1021	0	0	0	
14	0	0	0	0	420	434	1021	0	0	0	
15	0	0	0	0	425	437	1021	0	0	0	
0	0	0	0	0	434	444	1021	0	0	0	
1	0	0	0	0	446	454	1021	0	0	0	
2	0	0	0	0	459	466	1021	0	0	0	
3	0	0	0	0	473	481	1021	0	0	0	
4	0	0	0	0	489	496	1021	0	0	0	
5	0	0	0	0	503	511	1021	0	0	0	
6	0	0	0	0	516	526	1021	0	0	0	
7	0	0	0	0	526	537	1021	0	0	0	
8	0	0	0	0	533	547	1021	0	0	0	
9	0	0	0	0	536	551	1021	0	0	0	
10	0	0	0	0	536	553	1021	0	0	0	
11	0	0	0	0	532	550	1021	0	0	0	
12	0	0	0	0	525	543	1021	0	0	0	
13	0	0	0	0	514	534	1021	0	0	0	
14	0	0	0	0	503	521	1021	0	0	0	
15	0	0	0	0	490	508	1021	0	0	0	
0	0	0	0	0	476	493	1021	0	0	0	
1	0	0	0	0	463	478	1021	0	0	0	
2	0	0	0	0	449	463	1021	0	0	0	
3	0	0	0	0	437	449	1021	0	0	0	
4	0	0	0	0	427	437	1021	0	0	0	
5	0	0	0	0	418	428	1021	0	0	0	
6	0	0	0	0	412	422	1021	0	0	0	
7	0	0	0	0	408	418	1021	0	0	0	
8	0	0	0	0	408	418	1021	0	0	0	
9	0	0	0	0	409	420	1021	0	0	0	
10	0	0	0	0	413	424	1021	0	0	0	
11	0	0	0	0	418	430	1021	0	0	0	
12	0	0	0	0	423	436	1021	0	0	0	
13	0	0	0	0	430	443	1021	0	0	0	
14	0	0	0	0	436	449	1021	0	0	0	
15	0	0	0	0	443	455	1021	0	0	0	
0	0	0	0	0	449	460	1021	0	0	0	
1	0	0	0	0	454	463	1021	0	0	0	
2	0	0	0	0	460	467	1021	0	0	0	
3	0	0	0	0	466	471	1021	0	0	0	
4	0	0	0	0	472	473	1021	0	0	0	
5	0	0	0	0	478	476	1021	0	0	0	
6	0	0	0	0	483	479	1021	0	0	0	
7	0	0	0	0	490	482	1021	0	0	0	
8	0	0	0	0	496	486	1021	0	0	0	
9	0	0	0	0	500	490	1021	0	0	0	
10	0	0	0	0	504	494	1021	0	0	0	
11	0	0	0	0	505	497	1021	0	0	0	
12	0	0	0	0	505	500	1021	0	0	0	
13	0	0	0	0	501	501	1021	0	0	0	
14	0	0	0	0	495	500	1021	0	0	0	
15	0	0	0	0	487	498	1021	0	0	0	
0	0	0	0	0	478	495	1021	0	0	0	
1	0	0	0	0	468	490	1021	0	0	0	
2	0	0	0	0	458	485	1021	0	0	0	
3	0	0	0	0	449	478	1021	0	0	0	
4	0	0	0	0	440	471	1021	0	0	0	
5	0	0	0	0	433	464	1021	0	0	0	
6	0	0	0	0	428	457	1021	0	0	0	
7	0	0	0	0	425	450	1021	0	0	0	
8	0	0	0	0	424	445	1021	0	0	0	
9	0	0	0	0	423	440	1021	0	0	0	
10	0	0	0	0	424	436	1021	0	0	0	
11	0	0	0	0	426	434	1021	0	0	0	
12	0	0	0	0	429	434	1021	0	0	0	
13	0	0	0	0	433	435	1021	0	0	0	
14	0	0	0	0	437	438	1021	0	0	0	
15	0	0	0	0	442	443	1021	0	0	0	
0	0	0	0	0	448	449	1021	0	0	0	
1	0	0	0	0	455	456	1021	0	0	0	
2	0	0	0	0	461	464	1021	0	0	0	
3	0	0	0	0	467	472	1021	0	0	0	
4	0	0	0	0	472	479	1021	0	0	0	
5	0	0	0	0	475	485	1021	0	0	0	
6	0	0	0	0	476	488	1021	0	0	0	
7	0	0	0	0	473	489	1021	0	0	0	
8	0	0	0	0	470	487	1021	0	0	0	
9	0	0	0	0	466	485	1021	0	0	0	
10	0	0	0	0	463	483	1021	0	0	0	
11	0	0	0	0	460	481	1021	0	0	0	
12	0	0	0	0	461	481	1021	0	0	0	
13	0	0	0	0	465	484	1021	0	0	0	
14	0	0	0	0	472	488	1021	0	0	0	
15	0	0	0	0	481	495	1021	0	0	0	
0	0	0	0	0	493	504	1021	0	0	0	
1	0	0	0	0	505	513	1021	0	0	0	
2	0	0	0	0	518	522	1021	0	0	0	
3	0	0	0	0	528	531	1021	0	0	0	
4	0	0	0	0	535	535	1021	0	0	0	
5	0	0	0	0	537	537	1021	0	0	0	
6	0	0	0	0	533	534	1021	0	0	0	
7	0	0	0	0	526	527	1021	0	0	0	
8	0	0	0	0	512	516	1021	0	0	0	
9	0	0	0	0	496	503	1021	0	0	0	
10	0	0	0	0	477	488	1021	0	0	0	
11	0	0	0	0	457	473	1021	0	0	0	
12	0	0	0	0	438	458	1021	0	0	0	
13	0	0	0	0	421	446	1021	0	0	0	
14	0	0	0	0	407	436	1021	0	0	0	
15	0	0	0	0	397	430	1021	0	0	0	
0	0	0	0	0	392	427	1021	0	0	0	
1	0	0	0	0	392	427	1021	0	0	0	
2	0	0	0	0	398	432	1021	0	0	0	
3	0	0	0	0	408	439	1021	0	0	0	
4	0	0	0	0	422	448	1021	0	0	0	
5	0	0	0	0	438	459	1021	0	0	0	
6	0	0	0	0	453	470	1021	0	0	0	
7	0	0	0	0	467	481	1021	0	0	0	
8	0	0	0	0	480	490	1021	0	0	0	
9	0	0	0	0	489	496	1021	0	0	0	
10	0	0	0	0	495	501	1021	0	0	0	
11	0	0	0	0	497	502	1021	0	0	0	
12	0	0	0	0	495	501	1021	0	0	0	
13	0	0	0	0	491	497	1021	0	0	0	
14	0	0	0	0	483	492	1021	0	0	0	
15	0	0	0	0	475	486	1021	0	0	0	
0	0	0	0	0	466	480	1021	0	0	0	
1	0	0	0	0	459	474	1021	0	0	0	
2	0	0	0	0	452	469	1021	0	0	0	
3	0	0	0	0	449	467	1021	0	0	0	
4	0	0	0	0	449	467	1021	0	0	0	
5	0	0	0	0	452	470	1021	0	0	0	
6	0	0	0	0	459	476	1021	0	0	0	
7	0	0	0	0	469	485	1021	0	0	0	
8	0	0	0	0	482	496	1021	0	0	0	
9	0	0	0	0	496	509	1021	0	0	0	
10	0	0	0	0	511	522	1021	0	0	0	
11	0	0	0	0	525	535	1021	0	0	0	
12	0	0	0	0	537	547	1021	0	0	0	
13	0	0	0	0	546	556	1021	0	0	0	
14	0	0	0	0	551	561	1021	0	0	0	
15	0	0	0	0	551	561	1021	0	0	0	
0	0	0	0	0	544	557	1021	0	0	0	
1	0	0	0	0	533	548	1021	0	0	0	
2	0	0	0	0	517	535	1021	0	0	0	
3	0	0	0	0	499	520	1021	0	0	0	
4	0	0	0	0	480	503	1021	0	0	0	
5	0	0	0	0	461	487	1021	0	0	0	
6	0	0	0	0	444	471	1021	0	0	0	
7	0	0	0	0	429	458	1021	0	0	0	
8	0	0	0	0	419	448	1021	0	0	0	
9	0	0	0	0	413	440	1021	0	0	0	
10	0	0	0	0	411	438	1021	0	0	0	
11	0	0	0	0	413	438	1021	0	0	0	
12	0	0	0	0	418	440	1021	0	0	0	
13	0	0	0	0	425	444	1021	0	0	0	
14	0	0	0	0	432	448	1021	0	0	0	
15	0	0	0	0	438	453	1021	0	0	0	
0	0	0	0	0	442	456	1021	0	0	0	
1	0	0	0	0	446	459	1021	0	0	0	
2	0	0	0	0	448	462	1021	0	0	0	
3	0	0	0	0	450	464	1021	0	0	0	
4	0	0	0	0	451	467	1021	0	0	0	
5	0	0	0	0	452	469	1021	0	0	0	
6	0	0	0	0	453	470	1021	0	0	0	
7	0	0	0	0	454	471	1021	0	0	0	
8	0	0	0	0	454	471	1021	0	0	0	
9	0	0	0	0	455	471	1021	0	0	0	
10	0	0	0	0	456	471	1021	0	0	0	
11	0	0	0	0	456	469	1021	0	0	0	
12	0	0	0	0	457	467	1021	0	0	0	
13	0	0	0	0	456	465	1021	0	0	0	
14	0	0	0	0	456	463	1021	0	0	0	
15	0	0	0	0	455	461	1021	0	0	0	
0	0	0	0	0	455	460	1021	0	0	0	
1	0	0	0	0	454	459	1021	0	0	0	
2	0	0	0	0	453	459	1021	0	0	0	
3	0	0	0	0	453	460	1021	0	0	0	
4	0	0	0	0	454	462	1021	0	0	0	
5	0	0	0	0	455	464	1021	0	0	0	
6	0	0	0	0	456	468	1021	0	0	0	
7	0	0	0	0	458	472	1021	0	0	0	
8	0	0	0	0	460	476	1021	0	0	0	
9	0	0	0	0	463	480	1021	0	0	0	
10	0	0	0	0	465	484	1021	0	0	0	
11	0	0	0	0	468	487	1021	0	0	0	
12	0	0	0	0	471	489	1021	0	0	0	
13	0	0	0	0	473	491	1021	0	0	0	
14	0	0	0	0	476	492	1021	0	0	0	
15	0	0	0	0	480	493	1021	0	0	0	
0	0	0	0	0	483	495	1021	0	0	0	
1	0	0	0	0	487	497	1021	0	0	0	
2	0	0	0	0	492	499	1021	0	0	0	
3	0	0	0	0	496	503	1021	0	0	0	
4	0	0	0	0	500	506	1021	0	0	0	
5	0	0	0	0	504	510	1021	0	0	0	
6	0	0	0	0	507	513	1021	0	0	0	
7	0	0	0	0	508	516	1021	0	0	0	
8	0	0	0	0	510	520	1021	0	0	0	
9	0	0	0	0	509	523	1021	0	0	0	
10	0	0	0	0	508	525	1021	0	0	0	
11	0	0	0	0	507	527	1021	0	0	0	
12	0	0	0	0	505	529	1021	0	0	0	
13	0	0	0	0	505	530	1021	0	0	0	
14	0	0	0	0	504	532	1021	0	0	0	
15	0	0	0	0	505	533	1021	0	0	0	
0	0	0	0	0	508	535	1020	0	0	0	
1	0	0	0	0	511	537	1021	0	0	0	
2	0	0	0	0	516	540	1021	0	0	0	
3	0	0	0	0	521	541	1021	0	0	0	
4	0	0	0	0	525	541	1021	0	0	0	
5	0	0	0	0	527	538	1021	0	0	0	
6	0	0	0	0	525	532	1021	0	0	0	
7	0	0	0	0	521	525	1021	0	0	0	
8	0	0	0	0	513	515	1021	0	0	0	
9	0	0	0	0	501	502	1021	0	0	0	
10	0	0	0	0	486	487	1021	0	0	0	
11	0	0	0	0	468	473	1021	0	0	0	
12	0	0	0	0	450	459	1021	0	0	0	
13	0	0	0	0	432	446	1021	0	0	0	
14	0	0	0	0	416	435	1021	0	0	0	
15	0	0	0	0	404	428	1021	0	0	0	
0	0	0	0	0	397	426	1021	0	0	0	
1	0	0	0	0	396	428	1021	0	0	0	
2	0	0	0	0	402	435	1021	0	0	0	
3	0	0	0	0	413	446	1021	0	0	0	
4	0	0	0	0	428	458	1021	0	0	0	
5	0	0	0	0	446	471	1021	0	0	0	
6	0	0	0	0	463	482	1021	0	0	0	
7	0	0	0	0	479	490	1021	0	0	0	
8	0	0	0	0	490	495	1021	0	0	0	
9	0	0	0	0	497	495	1021	0	0	0	
10	0	0	0	0	499	492	1021	0	0	0	
11	0	0	0	0	496	486	1021	0	0	0	
12	0	0	0	0	490	478	1021	0	0	0	
13	0	0	0	0	480	469	1021	0	0	0	
14	0	0	0	0	468	461	1020	0	0	0	
15	0	0	0	0	455	454	1021	0	0	0	
0	0	0	0	0	444	448	1021	0	0	0	
1	0	0	0	0	435	444	1021	0	0	0	
2	0	0	0	0	427	442	1021	0	0	0	
3	0	0	0	0	423	443	1021	0	0	0	
4	0	0	0	0	422	445	1021	0	0	0	
5	0	0	0	0	424	449	1021	0	0	0	
6	0	0	0	0	430	454	1021	0	0	0	
7	0	0	0	0	436	459	1021	0	0	0	
8	0	0	0	0	444	464	1021	0	0	0	
9	0	0	0	0	452	468	1021	0	0	0	
10	0	0	0	0	461	472	1021	0	0	0	
11	0	0	0	0	470	475	1021	0	0	0	
12	0	0	0	0	478	479	1021	0	0	0	
13	0	0	0	0	487	482	1021	0	0	0	
14	0	0	0	0	494	486	1021	0	0	0	
15	0	0	0	0	502	490	1021	0	0	0	
0	0	0	0	0	508	495	1021	0	0	0	
1	0	0	0	0	513	500	1021	0	0	0	
2	0	0	0	0	516	505	1021	0	0	0	
3	0	0	0	0	517	509	1021	0	0	0	
4	0	0	0	0	517	513	1021	0	0	0	
5	0	0	0	0	515	515	1021	0	0	0	
6	0	0	0	0	510	516	1021	0	0	0	
7	0	0	0	0	504	515	1021	0	0	0	
8	0	0	0	0	496	512	1021	0	0	0	
9	0	0	0	0	488	507	1021	0	0	0	
10	0	0	0	0	479	500	1021	0	0	0	
11	0	0	0	0	470	493	1021	0	0	0	
12	0	0	0	0	462	485	1021	0	0	0	
13	0	0	0	0	455	477	1021	0	0	0	
14	0	0	0	0	451	470	1021	0	0	0	
15	0	0	0	0	449	464	1021	0	0	0	
0	0	0	0	0	448	459	1021	0	0	0	
1	0	0	0	0	451	456	1021	0	0	0	
2	0	0	0	0	454	454	1021	0	0	0	
3	0	0	0	0	459	454	1021	0	0	0	
4	0	0	0	0	463	454	1021	0	0	0	
5	0	0	0	0	466	454	1021	0	0	0	
6	0	0	0	0	467	453	1021	0	0	0	
7	0	0	0	0	468	453	1021	0	0	0	
8	0	0	0	0	467	454	1021	0	0	0	
9	0	0	0	0	466	454	1021	0	0	0	
10	0	0	0	0	464	455	1021	0	0	0	
11	0	0	0	0	462	455	1021	0	0	0	
12	0	0	0	0	460	457	1021	0	0	0	
13	0	0	0	0	458	460	1021	0	0	0	
14	0	0	0	0	457	463	1021	0	0	0	
15	0	0	0	0	458	465	1021	0	0	0	
0	0	0	0	0	459	469	1021	0	0	0	
1	0	0	0	0	462	473	1021	0	0	0	
2	0	0	0	0	465	477	1021	0	0	0	
3	0	0	0	0	470	480	1021	0	0	0	
4	0	0	0	0	473	483	1021	0	0	0	
5	0	0	0	0	477	484	1021	0	0	0	
6	0	0	0	0	480	484	1021	0	0	0	
7	0	0	0	0	481	484	1021	0	0	0	
8	0	0	0	0	482	483	1021	0	0	0	
9	0	0	0	0	482	481	1021	0	0	0	
10	0	0	0	0	481	479	1021	0	0	0	
11	0	0	0	0	480	479	1021	0	0	0	
12	0	0	0	0	480	479	1021	0	0	0	
13	0	0	0	0	480	480	1021	0	0	0	
14	0	0	0	0	480	482	1021	0	0	0	
15	0	0	0	0	480	484	1021	0	0	0	
0	0	0	0	0	480	486	1021	0	0	0	
1	0	0	0	0	480	488	1021	0	0	0	
2	0	0	0	0	481	490	1021	0	0	0	
3	0	0	0	0	480	490	1021	0	0	0	
4	0	0	0	0	479	488	1021	0	0	0	
5	0	0	0	0	476	484	1021	0	0	0	
6	0	0	0	0	473	480	1021	0	0	0	
7	0	0	0	0	469	474	1021	0	0	0	
8	0	0	0	0	465	467	1021	0	0	0	
9	0	0	0	0	460	460	1020	0	0	0	
10	0	0	0	0	456	454	1021	0	0	0	
11	0	0	0	0	451	448	1021	0	0	0	
12	0	0	0	0	446	443	1021	0	0	0	
13	0	0	0	0	440	438	1021	0	0	0	
14	0	0	0	0	435	434	1021	0	0	0	
15	0	0	0	0	430	431	1021	0	0	0	
0	0	0	0	0	424	428	1021	0	0	0	
1	0	0	0	0	419	425	1021	0	0	0	
2	0	0	0	0	410	420	1021	0	0	0	
3	0	0	0	0	398	411	1021	0	0	0	
4	0	0	0	0	383	399	1021	0	0	0	
5	0	0	0	0	363	382	1021	0	0	0	
6	0	0	0	0	340	362	1021	0	0	0	
7	0	0	0	0	315	338	1021	0	0	0	
8	0	0	0	0	287	311	1021	0	0	0	
9	0	0	0	0	259	284	1021	0	0	0	
10	0	0	0	0	233	257	1021	0	0	0	
11	0	0	0	0	212	234	1021	0	0	0	
12	0	0	0	0	195	214	1021	0	0	0	
13	0	0	0	0	185	201	1020	0	0	0	
14	0	0	0	0	185	195	1021	0	0	0	
15	0	0	0	0	192	196	1021	0	0	0	
0	0	0	0	0	208	205	1021	0	0	0	
1	0	0	0	0	232	222	1021	0	0	0	
2	0	0	0	0	262	245	1021	0	0	0	
3	0	0	0	0	295	273	1021	0	0	0	
4	0	0	0	0	332	305	1021	0	0	0	
5	0	0	0	0	369	339	1021	0	0	0	
6	0	0	0	0	403	371	1021	0	0	0	
7	0	0	0	0	435	403	1021	0	0	0	
8	0	0	0	0	461	431	1021	0	0	0	
9	0	0	0	0	482	455	1021	0	0	0	
10	0	0	0	0	496	473	1021	0	0	0	
11	0	0	0	0	505	487	1021	0	0	0	
12	0	0	0	0	508	494	1021	0	0	0	
13	0	0	0	0	506	496	1021	0	0	0	
14	0	0	0	0	500	495	1021	0	0	0	
15	0	0	0	0	491	488	1021	0	0	0	
0	0	0	0	0	479	480	1021	0	0	0	
1	0	0	0	0	467	470	1021	0	0	0	
2	0	0	0	0	455	459	1021	0	0	0	
3	0	0	0	0	444	449	1021	0	0	0	
4	0	0	0	0	435	441	1021	0	0	0	
5	0	0	0	0	429	435	1021	0	0	0	
6	0	0	0	0	426	433	1021	0	0	0	
7	0	0	0	0	427	435	1021	0	0	0	
8	0	0	0	0	434	441	1021	0	0	0	
9	0	0	0	0	445	453	1021	0	0	0	
10	0	0	0	0	462	469	1021	0	0	0	
11	0	0	0	0	481	487	1021	0	0	0	
12	0	0	0	0	502	507	1021	0	0	0	
13	0	0	0	0	523	526	1021	0	0	0	
14	0	0	0	0	542	543	1021	0	0	0	
15	0	0	0	0	557	556	1021	0	0	0	
0	0	0	0	0	567	564	1020	0	0	0	
1	0	0	0	0	569	566	1021	0	0	0	
2	0	0	0	0	565	561	1021	0	0	0	
3	0	0	0	0	554	550	1021	0	0	0	
4	0	0	0	0	537	535	1021	0	0	0	
5	0	0	0	0	516	516	1021	0	0	0	
6	0	0	0	0	493	496	1021	0	0	0	
7	0	0	0	0	470	477	1021	0	0	0	
8	0	0	0	0	448	460	1021	0	0	0	
9	0	0	0	0	429	445	1021	0	0	0	
10	0	0	0	0	415	435	1021	0	0	0	
11	0	0	0	0	407	431	1021	0	0	0	
12	0	0	0	0	405	431	1021	0	0	0	
13	0	0	0	0	409	435	1021	0	0	0	
14	0	0	0	0	419	444	1021	0	0	0	
15	0	0	0	0	432	455	1021	0	0	0	
0	0	0	0	0	448	467	1021	0	0	0	
1	0	0	0	0	464	480	1021	0	0	0	
2	0	0	0	0	480	493	1021	0	0	0	
3	0	0	0	0	494	503	1021	0	0	0	
4	0	0	0	0	504	511	1021	0	0	0	
5	0	0	0	0	511	515	1021	0	0	0	
6	0	0	0	0	514	516	1021	0	0	0	
7	0	0	0	0	514	514	1021	0	0	0	
8	0	0	0	0	511	511	1021	0	0	0	
9	0	0	0	0	504	505	1021	0	0	0	
10	0	0	0	0	497	499	1021	0	0	0	
11	0	0	0	0	491	495	1021	0	0	0	
12	0	0	0	0	486	492	1021	0	0	0	
13	0	0	0	0	483	492	1021	0	0	0	
14	0	0	0	0	483	495	1020	0	0	0	
15	0	0	0	0	487	500	1021	0	0	0	
0	0	0	0	0	492	508	1021	0	0	0	
1	0	0	0	0	499	515	1021	0	0	0	
2	0	0	0	0	507	523	1021	0	0	0	
3	0	0	0	0	514	529	1021	0	0	0	
4	0	0	0	0	520	535	1021	0	0	0	
5	0	0	0	0	524	538	1021	0	0	0	
6	0	0	0	0	527	539	1021	0	0	0	
7	0	0	0	0	527	538	1021	0	0	0	
8	0	0	0	0	526	536	1021	0	0	0	
9	0	0	0	0	524	531	1021	0	0	0	
10	0	0	0	0	521	527	1021	0	0	0	
11	0	0	0	0	519	524	1021	0	0	0	
12	0	0	0	0	518	521	1021	0	0	0	
13	0	0	0	0	517	519	1021	0	0	0	
14	0	0	0	0	518	520	1021	0	0	0	
15	0	0	0	0	521	523	1021	0	0	0	
0	0	0	0	0	525	527	1021	0	0	0	
1	0	0	0	0	529	531	1021	0	0	0	
2	0	0	0	0	532	535	1021	0	0	0	
3	0	0	0	0	533	537	1021	0	0	0	
4	0	0	0	0	532	539	1021	0	0	0	
5	0	0	0	0	528	538	1021	0	0	0	
6	0	0	0	0	523	535	1021	0	0	0	
7	0	0	0	0	514	529	1021	0	0	0	
8	0	0	0	0	504	521	1021	0	0	0	
9	0	0	0	0	492	511	1021	0	0	0	
10	0	0	0	0	478	499	1021	0	0	0	
11	0	0	0	0	465	487	1021	0	0	0	
12	0	0	0	0	452	474	1021	0	0	0	
13	0	0	0	0	442	463	1021	0	0	0	
14	0	0	0	0	435	454	1021	0	0	0	
15	0	0	0	0	431	448	1021	0	0	0	
0	0	0	0	0	431	444	1021	0	0	0	
1	0	0	0	0	432	442	1021	0	0	0	
2	0	0	0	0	436	442	1021	0	0	0	
3	0	0	0	0	442	444	1021	0	0	0	
4	0	0	0	0	449	448	1021	0	0	0	
5	0	0	0	0	457	454	1021	0	0	0	
6	0	0	0	0	465	460	1021	0	0	0	
7	0	0	0	0	472	467	1021	0	0	0	
8	0	0	0	0	479	475	1021	0	0	0	
9	0	0	0	0	486	482	1021	0	0	0	
10	0	0	0	0	492	489	1021	0	0	0	
11	0	0	0	0	498	496	1021	0	0	0	
12	0	0	0	0	503	504	1021	0	0	0	
13	0	0	0	0	508	510	1021	0	0	0	
14	0	0	0	0	512	515	1021	0	0	0	
15	0	0	0	0	515	519	1021	0	0	0	
0	0	0	0	0	518	521	1021	0	0	0	
1	0	0	0	0	518	521	1021	0	0	0	
2	0	0	0	0	518	521	1021	0	0	0	
3	0	0	0	0	517	519	1021	0	0	0	
4	0	0	0	0	516	516	1021	0	0	0	
5	0	0	0	0	514	514	1021	0	0	0	
6	0	0	0	0	512	511	1021	0	0	0	
7	0	0	0	0	511	509	1021	0	0	0	
8	0	0	0	0	510	508	1021	0	0	0	
9	0	0	0	0	510	508	1021	0	0	0	
10	0	0	0	0	510	509	1021	0	0	0	
11	0	0	0	0	508	510	1021	0	0	0	
12	0	0	0	0	507	510	1021	0	0	0	
13	0	0	0	0	504	510	1021	0	0	0	
14	0	0	0	0	499	509	1021	0	0	0	
15	0	0	0	0	492	505	1021	0	0	0	
0	0	0	0	0	484	501	1021	0	0	0	
1	0	0	0	0	476	495	1021	0	0	0	
2	0	0	0	0	467	488	1021	0	0	0	
3	0	0	0	0	458	480	1021	0	0	0	
4	0	0	0	0	450	472	1021	0	0	0	
5	0	0	0	0	444	466	1021	0	0	0	
6	0	0	0	0	440	460	1021	0	0	0	
7	0	0	0	0	438	455	1021	0	0	0	
8	0	0	0	0	438	452	1021	0	0	0	
9	0	0	0	0	440	450	1021	0	0	0	
10	0	0	0	0	443	451	1021	0	0	0	
11	0	0	0	0	449	453	1021	0	0	0	
12	0	0	0	0	456	457	1021	0	0	0	
13	0	0	0	0	463	462	1021	0	0	0	
14	0	0	0	0	471	468	1021	0	0	0	
15	0	0	0	0	478	476	1021	0	0	0	
0	0	0	0	0	484	483	1021	0	0	0	
1	0	0	0	0	490	490	1021	0	0	0	
2	0	0	0	0	494	496	1021	0	0	0	
3	0	0	0	0	496	502	1021	0	0	0	
4	0	0	0	0	498	506	1021	0	0	0	
5	0	0	0	0	498	509	1021	0	0	0	
6	0	0	0	0	498	511	1021	0	0	0	
7	0	0	0	0	497	512	1021	0	0	0	
8	0	0	0	0	496	511	1021	0	0	0	
9	0	0	0	0	495	511	1021	0	0	0	
10	0	0	0	0	496	510	1021	0	0	0	
11	0	0	0	0	497	509	1021	0	0	0	
12	0	0	0	0	499	509	1021	0	0	0	
13	0	0	0	0	504	510	1021	0	0	0	
14	0	0	0	0	509	514	1021	0	0	0	
15	0	0	0	0	516	518	1021	0	0	0	
0	0	0	0	0	524	523	1021	0	0	0	
1	0	0	0	0	530	528	1021	0	0	0	
2	0	0	0	0	536	533	1021	0	0	0	
3	0	0	0	0	540	537	1021	0	0	0	
4	0	0	0	0	541	540	1021	0	0	0	
5	0	0	0	0	540	541	1021	0	0	0	
6	0	0	0	0	536	540	1021	0	0	0	
7	0	0	0	0	529	538	1021	0	0	0	
8	0	0	0	0	522	536	1021	0	0	0	
9	0	0	0	0	514	532	1021	0	0	0	
10	0	0	0	0	505	527	1021	0	0	0	
11	0	0	0	0	496	522	1021	0	0	0	
12	0	0	0	0	487	516	1021	0	0	0	
13	0	0	0	0	479	510	1021	0	0	0	
14	0	0	0	0	472	504	1021	0	0	0	
15	0	0	0	0	466	497	1021	0	0	0	
0	0	0	0	0	461	491	1021	0	0	0	
1	0	0	0	0	457	485	1021	0	0	0	
2	0	0	0	0	455	480	1021	0	0	0	
3	0	0	0	0	455	477	1021	0	0	0	
4	0	0	0	0	455	476	1021	0	0	0	
5	0	0	0	0	457	476	1021	0	0	0	
6	0	0	0	0	459	478	1021	0	0	0	
7	0	0	0	0	463	481	1021	0	0	0	
8	0	0	0	0	466	486	1021	0	0	0	
9	0	0	0	0	471	491	1021	0	0	0	
10	0	0	0	0	476	497	1021	0	0	0	
11	0	0	0	0	481	502	1021	0	0	0	
12	0	0	0	0	487	508	1021	0	0	0	
13	0	0	0	0	491	512	1021	0	0	0	
14	0	0	0	0	495	514	1021	0	0	0	
15	0	0	0	0	498	515	1021	0	0	0	
0	0	0	0	0	499	514	1021	0	0	0	
1	0	0	0	0	500	512	1021	0	0	0	
2	0	0	0	0	500	509	1021	0	0	0	
3	0	0	0	0	499	505	1021	0	0	0	
4	0	0	0	0	498	502	1021	0	0	0	
5	0	0	0	0	496	498	1021	0	0	0	
6	0	0	0	0	494	494	1021	0	0	0	
7	0	0	0	0	491	491	1021	0	0	0	
8	0	0	0	0	489	488	1021	0	0	0	
9	0	0	0	0	487	486	1021	0	0	0	
10	0	0	0	0	485	485	1021	0	0	0	
11	0	0	0	0	483	485	1021	0	0	0	
12	0	0	0	0	482	486	1021	0	0	0	
13	0	0	0	0	482	487	1021	0	0	0	
14	0	0	0	0	481	489	1021	0	0	0	
15	0	0	0	0	481	491	1021	0	0	0	
0	0	0	0	0	481	493	1021	0	0	0	
1	0	0	0	0	481	494	1021	0	0	0	
2	0	0	0	0	481	495	1021	0	0	0	
3	0	0	0	0	482	496	1021	0	0	0	
4	0	0	0	0	483	496	1021	0	0	0	
5	0	0	0	0	486	497	1021	0	0	0	
6	0	0	0	0	488	497	1021	0	0	0	
7	0	0	0	0	491	497	1021	0	0	0	
8	0	0	0	0	493	497	1021	0	0	0	
9	0	0	0	0	494	497	1021	0	0	0	
10	0	0	0	0	495	496	1021	0	0	0	
11	0	0	0	0	494	496	1021	0	0	0	
12	0	0	0	0	493	496	1021	0	0	0	
13	0	0	0	0	491	496	1021	0	0	0	
14	0	0	0	0	489	497	1021	0	0	0	
15	0	0	0	0	488	499	1021	0	0	0	
0	0	0	0	0	487	502	1021	0	0	0	
1	0	0	0	0	487	504	1021	0	0	0	
2	0	0	0	0	486	507	1021	0	0	0	
3	0	0	0	0	486	509	1021	0	0	0	
4	0	0	0	0	487	512	1021	0	0	0	
5	0	0	0	0	487	515	1021	0	0	0	
6	0	0	0	0	487	516	1021	0	0	0	
7	0	0	0	0	488	517	1021	0	0	0	
8	0	0	0	0	489	518	1021	0	0	0	
9	0	0	0	0	492	518	1021	0	0	0	
10	0	0	0	0	495	519	1021	0	0	0	
11	0	0	0	0	499	520	1021	0	0	0	
12	0	0	0	0	505	522	1021	0	0	0	
13	0	0	0	0	511	524	1021	0	0	0	
14	0	0	0	0	517	525	1021	0	0	0	
15	0	0	0	0	522	526	1021	0	0	0	
0	0	0	0	0	525	527	1021	0	0	0	
1	0	0	0	0	526	526	1021	0	0	0	
2	0	0	0	0	525	524	1021	0	0	0	
3	0	0	0	0	521	522	1021	0	0	0	
4	0	0	0	0	516	520	1021	0	0	0	
5	0	0	0	0	510	518	1021	0	0	0	
6	0	0	0	0	503	515	1021	0	0	0	
7	0	0	0	0	495	513	1021	0	0	0	
8	0	0	0	0	488	512	1021	0	0	0	
9	0	0	0	0	483	511	1021	0	0	0	
10	0	0	0	0	478	510	1021	0	0	0	
11	0	0	0	0	475	509	1021	0	0	0	
12	0	0	0	0	472	508	1021	0	0	0	
13	0	0	0	0	472	508	1021	0	0	0	
14	0	0	0	0	473	508	1021	0	0	0	
15	0	0	0	0	475	508	1021	0	0	0	
0	0	0	0	0	478	508	1021	0	0	0	
1	0	0	0	0	482	508	1021	0	0	0	
2	0	0	0	0	486	507	1021	0	0	0	
3	0	0	0	0	489	507	1021	0	0	0	
4	0	0	0	0	494	508	1021	0	0	0	
5	0	0	0	0	498	508	1021	0	0	0	
6	0	0	0	0	502	511	1021	0	0	0	
7	0	0	0	0	507	515	1021	0	0	0	
8	0	0	0	0	512	521	1021	0	0	0	
9	0	0	0	0	517	527	1021	0	0	0	
10	0	0	0	0	521	532	1021	0	0	0	
11	0	0	0	0	524	536	1021	0	0	0	
12	0	0	0	0	524	538	1021	0	0	0	
13	0	0	0	0	521	537	1021	0	0	0	
14	0	0	0	0	516	533	1021	0	0	0	
15	0	0	0	0	508	526	1021	0	0	0	
0	0	0	0	0	498	515	1021	0	0	0	
1	0	0	0	0	487	504	1021	0	0	0	
2	0	0	0	0	475	491	1021	0	0	0	
3	0	0	0	0	465	479	1021	0	0	0	
4	0	0	0	0	455	467	1021	0	0	0	
5	0	0	0	0	449	458	1021	0	0	0	
6	0	0	0	0	445	452	1021	0	0	0	
7	0	0	0	0	444	448	1021	0	0	0	
8	0	0	0	0	445	446	1021	0	0	0	
9	0	0	0	0	448	447	1021	0	0	0	
10	0	0	0	0	452	450	1021	0	0	0	
11	0	0	0	0	458	455	1021	0	0	0	
12	0	0	0	0	465	463	1021	0	0	0	
13	0	0	0	0	472	471	1021	0	0	0	
14	0	0	0	0	479	479	1021	0	0	0	
15	0	0	0	0	485	487	1020	0	0	0	
0	0	0	0	0	491	495	1020	0	0	0	
1	0	0	0	0	495	500	1021	0	0	0	
2	0	0	0	0	497	504	1021	0	0	0	
3	0	0	0	0	497	504	1021	0	0	0	
4	0	0	0	0	496	502	1021	0	0	0	
5	0	0	0	0	493	498	1021	0	0	0	
6	0	0	0	0	489	494	1021	0	0	0	
7	0	0	0	0	485	487	1021	0	0	0	
8	0	0	0	0	481	482	1021	0	0	0	
9	0	0	0	0	477	476	1021	0	0	0	
10	0	0	0	0	473	472	1021	0	0	0	
11	0	0	0	0	471	469	1021	0	0	0	
12	0	0	0	0	470	467	1021	0	0	0	
13	0	0	0	0	471	467	1021	0	0	0	
14	0	0	0	0	473	468	1021	0	0	0	
15	0	0	0	0	477	471	1021	0	0	0	
0	0	0	0	0	482	475	1021	0	0	0	
1	0	0	0	0	488	480	1021	0	0	0	
2	0	0	0	0	495	485	1021	0	0	0	
3	0	0	0	0	501	491	1021	0	0	0	
4	0	0	0	0	507	496	1021	0	0	0	
5	0	0	0	0	513	502	1021	0	0	0	
6	0	0	0	0	518	507	1021	0	0	0	
7	0	0	0	0	524	512	1021	0	0	0	
8	0	0	0	0	528	517	1021	0	0	0	
9	0	0	0	0	534	522	1021	0	0	0	
10	0	0	0	0	539	527	1021	0	0	0	
11	0	0	0	0	545	533	1021	0	0	0	
12	0	0	0	0	551	537	1021	0	0	0	
13	0	0	0	0	556	542	1021	0	0	0	
14	0	0	0	0	561	545	1021	0	0	0	
15	0	0	0	0	564	547	1021	0	0	0	
0	0	0	0	0	566	548	1021	0	0	0	
1	0	0	0	0	566	547	1020	0	0	0	
2	0	0	0	0	563	546	1021	0	0	0	
3	0	0	0	0	556	542	1021	0	0	0	
4	0	0	0	0	548	538	1021	0	0	0	
5	0	0	0	0	538	532	1021	0	0	0	
6	0	0	0	0	527	525	1021	0	0	0	
7	0	0	0	0	515	518	1021	0	0	0	
8	0	0	0	0	503	510	1021	0	0	0	
9	0	0	0	0	493	504	1021	0	0	0	
10	0	0	0	0	485	498	1021	0	0	0	
11	0	0	0	0	479	493	1021	0	0	0	
12	0	0	0	0	475	487	1021	0	0	0	
13	0	0	0	0	471	483	1021	0	0	0	
14	0	0	0	0	470	477	1021	0	0	0	
15	0	0	0	0	468	471	1021	0	0	0	
0	0	0	0	0	468	465	1021	0	0	0	
1	0	0	0	0	469	460	1021	0	0	0	
2	0	0	0	0	471	457	1021	0	0	0	
3	0	0	0	0	475	456	1021	0	0	0	
4	0	0	0	0	480	457	1021	0	0	0	
5	0	0	0	0	487	461	1021	0	0	0	
6	0	0	0	0	495	467	1021	0	0	0	
7	0	0	0	0	504	475	1021	0	0	0	
8	0	0	0	0	513	484	1021	0	0	0	
9	0	0	0	0	521	495	1021	0	0	0	
10	0	0	0	0	530	504	1021	0	0	0	
11	0	0	0	0	536	513	1021	0	0	0	
12	0	0	0	0	540	520	1021	0	0	0	
13	0	0	0	0	542	523	1021	0	0	0	
14	0	0	0	0	541	523	1021	0	0	0	
15	0	0	0	0	537	520	1021	0	0	0	
0	0	0	0	0	532	514	1021	0	0	0	
1	0	0	0	0	524	506	1021	0	0	0	
2	0	0	0	0	516	496	1021	0	0	0	
3	0	0	0	0	508	485	1021	0	0	0	
4	0	0	0	0	501	475	1021	0	0	0	
5	0	0	0	0	494	466	1021	0	0	0	
6	0	0	0	0	488	457	1021	0	0	0	
7	0	0	0	0	484	451	1021	0	0	0	
8	0	0	0	0	483	447	1021	0	0	0	
9	0	0	0	0	483	446	1021	0	0	0	
10	0	0	0	0	485	447	1021	0	0	0	
11	0	0	0	0	489	451	1021	0	0	0	
12	0	0	0	0	496	456	1021	0	0	0	
13	0	0	0	0	504	464	1021	0	0	0	
14	0	0	0	0	512	473	1021	0	0	0	
15	0	0	0	0	520	482	1021	0	0	0	
0	0	0	0	0	528	491	1021	0	0	0	
1	0	0	0	0	536	499	1021	0	0	0	
2	0	0	0	0	543	505	1021	0	0	0	
3	0	0	0	0	548	510	1021	0	0	0	
4	0	0	0	0	552	514	1020	0	0	0	
5	0	0	0	0	556	517	1021	0	0	0	
6	0	0	0	0	559	519	1021	0	0	0	
7	0	0	0	0	561	519	1021	0	0	0	
8	0	0	0	0	562	519	1021	0	0	0	
9	0	0	0	0	562	518	1021	0	0	0	
10	0	0	0	0	562	518	1021	0	0	0	
11	0	0	0	0	561	516	1021	0	0	0	
12	0	0	0	0	560	515	1021	0	0	0	
13	0	0	0	0	559	514	1021	0	0	0	
14	0	0	0	0	558	513	1021	0	0	0	
15	0	0	0	0	555	513	1021	0	0	0	
0	0	0	0	0	553	512	1021	0	0	0	
1	0	0	0	0	550	511	1021	0	0	0	
2	0	0	0	0	547	509	1021	0	0	0	
3	0	0	0	0	542	507	1021	0	0	0	
4	0	0	0	0	537	503	1021	0	0	0	
5	0	0	0	0	532	499	1021	0	0	0	
6	0	0	0	0	527	494	1021	0	0	0	
7	0	0	0	0	523	489	1021	0	0	0	
8	0	0	0	0	519	485	1020	0	0	0	
9	0	0	0	0	519	481	1021	0	0	0	
10	0	0	0	0	519	478	1021	0	0	0	
11	0	0	0	0	520	476	1021	0	0	0	
12	0	0	0	0	523	476	1021	0	0	0	
13	0	0	0	0	527	476	1021	0	0	0	
14	0	0	0	0	532	478	1021	0	0	0	
15	0	0	0	0	537	481	1021	0	0	0	
0	0	0	0	0	543	485	1021	0	0	0	
1	0	0	0	0	549	489	1021	0	0	0	
2	0	0	0	0	554	495	1021	0	0	0	
3	0	0	0	0	559	500	1021	0	0	0	
4	0	0	0	0	562	506	1021	0	0	0	
5	0	0	0	0	564	510	1021	0	0	0	
6	0	0	0	0	564	513	1021	0	0	0	
7	0	0	0	0	563	514	1021	0	0	0	
8	0	0	0	0	560	514	1021	0	0	0	
9	0	0	0	0	556	512	1021	0	0	0	
10	0	0	0	0	551	509	1021	0	0	0	
11	0	0	0	0	544	504	1021	0	0	0	
12	0	0	0	0	538	498	1021	0	0	0	
13	0	0	0	0	530	491	1021	0	0	0	
14	0	0	0	0	524	483	1021	0	0	0	
15	0	0	0	0	517	475	1021	0	0	0	
0	0	0	0	0	512	467	1021	0	0	0	
1	0	0	0	0	508	461	1021	0	0	0	
2	0	0	0	0	505	455	1021	0	0	0	
3	0	0	0	0	504	451	1021	0	0	0	
4	0	0	0	0	504	449	1021	0	0	0	
5	0	0	0	0	505	448	1021	0	0	0	
6	0	0	0	0	508	448	1021	0	0	0	
7	0	0	0	0	511	450	1021	0	0	0	
8	0	0	0	0	515	453	1021	0	0	0	
9	0	0	0	0	519	456	1021	0	0	0	
10	0	0	0	0	524	461	1021	0	0	0	
11	0	0	0	0	529	465	1021	0	0	0	
12	0	0	0	0	534	470	1021	0	0	0	
13	0	0	0	0	539	475	1021	0	0	0	
14	0	0	0	0	544	479	1021	0	0	0	
15	0	0	0	0	549	482	1021	0	0	0	
0	0	0	0	0	553	485	1020	0	0	0	
1	0	0	0	0	556	486	1021	0	0	0	
2	0	0	0	0	559	487	1021	0	0	0	
3	0	0	0	0	561	486	1021	0	0	0	
4	0	0	0	0	562	485	1021	0	0	0	
5	0	0	0	0	563	483	1021	0	0	0	
6	0	0	0	0	563	482	1021	0	0	0	
7	0	0	0	0	563	482	1021	0	0	0	
8	0	0	0	0	564	483	1021	0	0	0	
9	0	0	0	0	566	484	1021	0	0	0	
10	0	0	0	0	567	487	1021	0	0	0	
11	0	0	0	0	569	491	1021	0	0	0	
12	0	0	0	0	572	496	1021	0	0	0	
13	0	0	0	0	575	501	1021	0	0	0	
14	0	0	0	0	579	507	1021	0	0	0	
15	0	0	0	0	582	512	1021	0	0	0	
0	0	0	0	0	584	516	1021	0	0	0	
1	0	0	0	0	585	519	1021	0	0	0	
2	0	0	0	0	583	519	1021	0	0	0	
3	0	0	0	0	579	516	1021	0	0	0	
4	0	0	0	0	572	510	1021	0	0	0	
5	0	0	0	0	563	501	1021	0	0	0	
6	0	0	0	0	552	490	1021	0	0	0	
7	0	0	0	0	539	478	1021	0	0	0	
8	0	0	0	0	526	465	1021	0	0	0	
9	0	0	0	0	514	454	1021	0	0	0	
10	0	0	0	0	504	445	1021	0	0	0	
11	0	0	0	0	497	439	1021	0	0	0	
12	0	0	0	0	495	437	1021	0	0	0	
13	0	0	0	0	496	438	1021	0	0	0	
14	0	0	0	0	500	443	1021	0	0	0	
15	0	0	0	0	508	451	1021	0	0	0	
0	0	0	0	0	517	460	1021	0	0	0	
1	0	0	0	0	527	470	1021	0	0	0	
2	0	0	0	0	536	478	1021	0	0	0	
3	0	0	0	0	544	486	1021	0	0	0	
4	0	0	0	0	550	492	1021	0	0	0	
5	0	0	0	0	555	497	1021	0	0	0	
6	0	0	0	0	556	499	1021	0	0	0	
7	0	0	0	0	556	499	1021	0	0	0	
8	0	0	0	0	554	498	1021	0	0	0	
9	0	0	0	0	550	496	1021	0	0	0	
10	0	0	0	0	546	492	1021	0	0	0	
11	0	0	0	0	542	488	1021	0	0	0	
12	0	0	0	0	536	483	1021	0	0	0	
13	0	0	0	0	530	478	1021	0	0	0	
14	0	0	0	0	524	472	1021	0	0	0	
15	0	0	0	0	517	466	1021	0	0	0	
0	0	0	0	0	511	461	1021	0	0	0	
1	0	0	0	0	505	456	1021	0	0	0	
2	0	0	0	0	500	453	1021	0	0	0	
3	0	0	0	0	496	452	1021	0	0	0	
4	0	0	0	0	495	453	1021	0	0	0	
5	0	0	0	0	496	455	1021	0	0	0	
6	0	0	0	0	497	457	1021	0	0	0	
7	0	0	0	0	500	460	1021	0	0	0	
8	0	0	0	0	503	464	1021	0	0	0	
9	0	0	0	0	506	467	1021	0	0	0	
10	0	0	0	0	508	469	1021	0	0	0	
11	0	0	0	0	510	471	1021	0	0	0	
12	0	0	0	0	511	471	1021	0	0	0	
13	0	0	0	0	511	470	1021	0	0	0	
14	0	0	0	0	510	469	1021	0	0	0	
15	0	0	0	0	508	467	1021	0	0	0	
0	0	0	0	0	506	464	1021	0	0	0	
1	0	0	0	0	503	460	1021	0	0	0	
2	0	0	0	0	499	458	1021	0	0	0	
3	0	0	0	0	497	456	1021	0	0	0	
4	0	0	0	0	496	456	1021	0	0	0	
5	0	0	0	0	495	457	1021	0	0	0	
6	0	0	0	0	496	460	1021	0	0	0	
7	0	0	0	0	499	466	1021	0	0	0	
8	0	0	0	0	504	472	1021	0	0	0	
9	0	0	0	0	510	480	1021	0	0	0	
10	0	0	0	0	515	488	1021	0	0	0	
11	0	0	0	0	521	495	1021	0	0	0	
12	0	0	0	0	525	501	1021	0	0	0	
13	0	0	0	0	528	504	1021	0	0	0	
14	0	0	0	0	528	506	1021	0	0	0	
15	0	0	0	0	527	505	1021	0	0	0	
0	0	0	0	0	523	503	1021	0	0	0	
1	0	0	0	0	518	499	1021	0	0	0	
2	0	0	0	0	512	493	1021	0	0	0	
3	0	0	0	0	505	487	1021	0	0	0	
4	0	0	0	0	498	480	1021	0	0	0	
5	0	0	0	0	491	473	1021	0	0	0	
6	0	0	0	0	484	467	1021	0	0	0	
7	0	0	0	0	479	463	1021	0	0	0	
8	0	0	0	0	475	460	1021	0	0	0	
9	0	0	0	0	473	459	1021	0	0	0	
10	0	0	0	0	472	459	1021	0	0	0	
11	0	0	0	0	473	462	1021	0	0	0	
12	0	0	0	0	477	466	1021	0	0	0	
13	0	0	0	0	482	472	1021	0	0	0	
14	0	0	0	0	488	479	1021	0	0	0	
15	0	0	0	0	495	487	1021	0	0	0	
0	0	0	0	0	502	495	1021	0	0	0	
1	0	0	0	0	510	503	1021	0	0	0	
2	0	0	0	0	516	509	1021	0	0	0	
3	0	0	0	0	520	513	1021	0	0	0	
4	0	0	0	0	524	515	1021	0	0	0	
5	0	0	0	0	524	515	1021	0	0	0	
6	0	0	0	0	524	513	1021	0	0	0	
7	0	0	0	0	521	508	1021	0	0	0	
8	0	0	0	0	517	503	1021	0	0	0	
9	0	0	0	0	510	495	1021	0	0	0	
10	0	0	0	0	502	488	1021	0	0	0	
11	0	0	0	0	494	480	1021	0	0	0	
12	0	0	0	0	486	474	1021	0	0	0	
13	0	0	0	0	479	469	1021	0	0	0	
14	0	0	0	0	474	467	1021	0	0	0	
15	0	0	0	0	472	467	1021	0	0	0	
0	0	0	0	0	472	470	1021	0	0	0	
1	0	0	0	0	475	475	1021	0	0	0	
2	0	0	0	0	479	481	1021	0	0	0	
3	0	0	0	0	483	486	1021	0	0	0	
4	0	0	0	0	487	490	1021	0	0	0	
5	0	0	0	0	489	493	1021	0	0	0	
6	0	0	0	0	490	493	1021	0	0	0	
7	0	0	0	0	489	492	1021	0	0	0	
8	0	0	0	0	487	489	1021	0	0	0	
9	0	0	0	0	485	486	1021	0	0	0	
10	0	0	0	0	483	482	1021	0	0	0	
11	0	0	0	0	481	478	1021	0	0	0	
12	0	0	0	0	480	475	1021	0	0	0	
13	0	0	0	0	480	472	1021	0	0	0	
14	0	0	0	0	481	471	1021	0	0	0	
15	0	0	0	0	484	472	1021	0	0	0	
0	0	0	0	0	487	473	1021	0	0	0	
1	0	0	0	0	491	477	1021	0	0	0	
2	0	0	0	0	496	482	1021	0	0	0	
3	0	0	0	0	501	488	1021	0	0	0	
4	0	0	0	0	507	495	1021	0	0	0	
5	0	0	0	0	512	502	1021	0	0	0	
6	0	0	0	0	517	509	1021	0	0	0	
7	0	0	0	0	520	515	1021	0	0	0	
8	0	0	0	0	520	517	1021	0	0	0	
9	0	0	0	0	517	515	1021	0	0	0	
10	0	0	0	0	510	510	1021	0	0	0	
11	0	0	0	0	499	501	1021	0	0	0	
12	0	0	0	0	484	488	1021	0	0	0	
13	0	0	0	0	466	472	1021	0	0	0	
14	0	0	0	0	446	454	1021	0	0	0	
15	0	0	0	0	427	435	1021	0	0	0	
0	0	0	0	0	407	416	1021	0	0	0	
1	0	0	0	0	389	399	1021	0	0	0	
2	0	0	0	0	373	384	1021	0	0	0	
3	0	0	0	0	361	371	1021	0	0	0	
4	0	0	0	0	353	362	1021	0	0	0	
5	0	0	0	0	348	356	1021	0	0	0	
6	0	0	0	0	347	354	1021	0	0	0	
7	0	0	0	0	348	354	1021	0	0	0	
8	0	0	0	0	351	356	1021	0	0	0	
9	0	0	0	0	355	359	1021	0	0	0	
10	0	0	0	0	358	361	1021	0	0	0	
11	0	0	0	0	361	363	1021	0	0	0	
12	0	0	0	0	361	362	1021	0	0	0	
13	0	0	0	0	358	360	1021	0	0	0	
14	0	0	0	0	353	355	1021	0	0	0	
15	0	0	0	0	346	348	1021	0	0	0	
0	0	0	0	0	337	340	1021	0	0	0	
1	0	0	0	0	328	331	1021	0	0	0	
2	0	0	0	0	319	322	1021	0	0	0	
3	0	0	0	0	310	313	1021	0	0	0	
4	0	0	0	0	302	305	1021	0	0	0	
5	0	0	0	0	297	300	1021	0	0	0	
6	0	0	0	0	296	298	1021	0	0	0	
7	0	0	0	0	300	300	1021	0	0	0	
8	0	0	0	0	309	308	1021	0	0	0	
9	0	0	0	0	322	320	1021	0	0	0	
10	0	0	0	0	339	335	1021	0	0	0	
11	0	0	0	0	359	353	1021	0	0	0	
12	0	0	0	0	382	373	1021	0	0	0	
13	0	0	0	0	404	394	1021	0	0	0	
14	0	0	0	0	426	415	1021	0	0	0	
15	0	0	0	0	446	434	1021	0	0	0	
0	0	0	0	0	464	451	1021	0	0	0	
1	0	0	0	0	479	467	1021	0	0	0	
2	0	0	0	0	491	479	1021	0	0	0	
3	0	0	0	0	499	488	1021	0	0	0	
4	0	0	0	0	504	495	1021	0	0	0	
5	0	0	0	0	507	498	1021	0	0	0	
6	0	0	0	0	507	499	1021	0	0	0	
7	0	0	0	0	505	500	1021	0	0	0	
8	0	0	0	0	503	499	1021	0	0	0	
9	0	0	0	0	501	499	1021	0	0	0	
10	0	0	0	0	499	499	1021	0	0	0	
11	0	0	0	0	500	501	1021	0	0	0	
12	0	0	0	0	502	504	1021	0	0	0	
13	0	0	0	0	505	508	1021	0	0	0	
14	0	0	0	0	510	513	1021	0	0	0	
15	0	0	0	0	515	519	1021	0	0	0	
0	0	0	0	0	522	525	1021	0	0	0	
1	0	0	0	0	528	531	1021	0	0	0	
2	0	0	0	0	534	536	1021	0	0	0	
3	0	0	0	0	539	541	1021	0	0	0	
4	0	0	0	0	542	543	1021	0	0	0	
5	0	0	0	0	543	544	1021	0	0	0	
6	0	0	0	0	541	542	1021	0	0	0	
7	0	0	0	0	537	538	1021	0	0	0	
8	0	0	0	0	531	531	1021	0	0	0	
9	0	0	0	0	523	523	1021	0	0	0	
10	0	0	0	0	514	514	1021	0	0	0	
11	0	0	0	0	505	504	1021	0	0	0	
12	0	0	0	0	495	495	1021	0	0	0	
13	0	0	0	0	486	486	1021	0	0	0	
14	0	0	0	0	478	478	1021	0	0	0	
15	0	0	0	0	472	472	1021	0	0	0	
0	0	0	0	0	467	469	1021	0	0	0	
1	0	0	0	0	465	468	1021	0	0	0	
2	0	0	0	0	466	470	1021	0	0	0	
3	0	0	0	0	470	475	1021	0	0	0	
4	0	0	0	0	476	483	1021	0	0	0	
5	0	0	0	0	483	492	1021	0	0	0	
6	0	0	0	0	492	502	1021	0	0	0	
7	0	0	0	0	502	513	1021	0	0	0	
8	0	0	0	0	512	524	1021	0	0	0	
9	0	0	0	0	522	533	1021	0	0	0	
10	0	0	0	0	530	540	1021	0	0	0	
11	0	0	0	0	536	546	1021	0	0	0	
12	0	0	0	0	542	550	1021	0	0	0	
13	0	0	0	0	544	552	1021	0	0	0	
14	0	0	0	0	546	553	1021	0	0	0	
15	0	0	0	0	545	552	1021	0	0	0	
0	0	0	0	0	544	550	1021	0	0	0	
1	0	0	0	0	542	547	1021	0	0	0	
2	0	0	0	0	539	544	1021	0	0	0	
3	0	0	0	0	535	541	1021	0	0	0	
4	0	0	0	0	531	538	1021	0	0	0	
5	0	0	0	0	527	534	1021	0	0	0	
6	0	0	0	0	522	530	1021	0	0	0	
7	0	0	0	0	517	526	1021	0	0	0	
8	0	0	0	0	512	521	1021	0	0	0	
9	0	0	0	0	506	518	1021	0	0	0	
10	0	0	0	0	501	514	1021	0	0	0	
11	0	0	0	0	496	510	1021	0	0	0	
12	0	0	0	0	491	507	1021	0	0	0	
13	0	0	0	0	487	504	1021	0	0	0	
14	0	0	0	0	485	502	1021	0	0	0	
15	0	0	0	0	483	499	1021	0	0	0	
0	0	0	0	0	483	498	1020	0	0	0	
1	0	0	0	0	483	496	1021	0	0	0	
2	0	0	0	0	484	496	1021	0	0	0	
3	0	0	0	0	485	495	1021	0	0	0	
4	0	0	0	0	487	495	1021	0	0	0	
5	0	0	0	0	489	494	1021	0	0	0	
6	0	0	0	0	490	493	1021	0	0	0	
7	0	0	0	0	491	492	1021	0	0	0	
8	0	0	0	0	490	491	1021	0	0	0	
9	0	0	0	0	489	491	1021	0	0	0	
10	0	0	0	0	488	490	1021	0	0	0	
11	0	0	0	0	487	491	1021	0	0	0	
12	0	0	0	0	488	495	1021	0	0	0	
13	0	0	0	0	491	499	1021	0	0	0	
14	0	0	0	0	495	506	1021	0	0	0	
15	0	0	0	0	501	513	1021	0	0	0	
0	0	0	0	0	508	522	1021	0	0	0	
1	0	0	0	0	517	531	1021	0	0	0	
2	0	0	0	0	527	541	1021	0	0	0	
3	0	0	0	0	537	549	1021	0	0	0	
4	0	0	0	0	546	555	1021	0	0	0	
5	0	0	0	0	553	558	1021	0	0	0	
6	0	0	0	0	556	559	1021	0	0	0	
7	0	0	0	0	557	555	1021	0	0	0	
8	0	0	0	0	553	549	1021	0	0	0	
9	0	0	0	0	547	541	1021	0	0	0	
10	0	0	0	0	539	531	1021	0	0	0	
11	0	0	0	0	529	521	1021	0	0	0	
12	0	0	0	0	519	512	1021	0	0	0	
13	0	0	0	0	509	504	1021	0	0	0	
14	0	0	0	0	500	497	1021	0	0	0	
15	0	0	0	0	493	494	1021	0	0	0	
0	0	0	0	0	489	494	1021	0	0	0	
1	0	0	0	0	489	496	1021	0	0	0	
2	0	0	0	0	491	501	1021	0	0	0	
3	0	0	0	0	496	507	1021	0	0	0	
4	0	0	0	0	502	514	1021	0	0	0	
5	0	0	0	0	510	521	1021	0	0	0	
6	0	0	0	0	517	527	1021	0	0	0	
7	0	0	0	0	524	532	1021	0	0	0	
8	0	0	0	0	530	535	1021	0	0	0	
9	0	0	0	0	535	536	1021	0	0	0	
10	0	0	0	0	537	536	1021	0	0	0	
11	0	0	0	0	538	533	1021	0	0	0	
12	0	0	0	0	537	529	1021	0	0	0	
13	0	0	0	0	535	525	1021	0	0	0	
14	0	0	0	0	531	521	1021	0	0	0	
15	0	0	0	0	527	517	1021	0	0	0	
0	0	0	0	0	522	513	1021	0	0	0	
1	0	0	0	0	518	511	1021	0	0	0	
2	0	0	0	0	514	510	1021	0	0	0	
3	0	0	0	0	511	510	1021	0	0	0	
4	0	0	0	0	510	512	1021	0	0	0	
5	0	0	0	0	509	515	1021	0	0	0	
6	0	0	0	0	509	518	1021	0	0	0	
7	0	0	0	0	510	521	1021	0	0	0	
8	0	0	0	0	511	524	1021	0	0	0	
9	0	0	0	0	512	526	1021	0	0	0	
10	0	0	0	0	513	527	1021	0	0	0	
11	0	0	0	0	512	527	1021	0	0	0	
12	0	0	0	0	510	524	1021	0	0	0	
13	0	0	0	0	507	519	1020	0	0	0	
14	0	0	0	0	502	513	1021	0	0	0	
15	0	0	0	0	496	505	1021	0	0	0	
0	0	0	0	0	491	497	1021	0	0	0	
1	0	0	0	0	486	490	1021	0	0	0	
2	0	0	0	0	482	485	1021	0	0	0	
3	0	0	0	0	480	483	1021	0	0	0	
4	0	0	0	0	480	482	1021	0	0	0	
5	0	0	0	0	483	485	1021	0	0	0	
6	0	0	0	0	487	489	1021	0	0	0	
7	0	0	0	0	492	494	1021	0	0	0	
8	0	0	0	0	497	501	1021	0	0	0	
9	0	0	0	0	503	507	1021	0	0	0	
10	0	0	0	0	507	513	1021	0	0	0	
11	0	0	0	0	510	517	1021	0	0	0	
12	0	0	0	0	511	520	1021	0	0	0	
13	0	0	0	0	512	522	1021	0	0	0	
14	0	0	0	0	511	522	1021	0	0	0	
15	0	0	0	0	510	521	1021	0	0	0	
0	0	0	0	0	508	519	1021	0	0	0	
1	0	0	0	0	506	515	1021	0	0	0	
2	0	0	0	0	504	512	1021	0	0	0	
3	0	0	0	0	502	508	1021	0	0	0	
4	0	0	0	0	499	504	1021	0	0	0	
5	0	0	0	0	497	499	1021	0	0	0	
6	0	0	0	0	495	496	1021	0	0	0	
7	0	0	0	0	493	493	1021	0	0	0	
8	0	0	0	0	493	492	1021	0	0	0	
9	0	0	0	0	495	494	1021	0	0	0	
10	0	0	0	0	498	497	1021	0	0	0	
11	0	0	0	0	503	502	1021	0	0	0	
12	0	0	0	0	509	510	1021	0	0	0	
13	0	0	0	0	517	519	1021	0	0	0	
14	0	0	0	0	525	528	1021	0	0	0	
15	0	0	0	0	533	537	1021	0	0	0	
0	0	0	0	0	540	546	1021	0	0	0	
1	0	0	0	0	546	553	1021	0	0	0	
2	0	0	0	0	550	557	1021	0	0	0	
3	0	0	0	0	552	560	1021	0	0	0	
4	0	0	0	0	552	559	1021	0	0	0	
5	0	0	0	0	550	556	1021	0	0	0	
6	0	0	0	0	546	552	1021	0	0	0	
7	0	0	0	0	541	547	1021	0	0	0	
8	0	0	0	0	536	540	1021	0	0	0	
9	0	0	0	0	530	535	1020	0	0	0	
10	0	0	0	0	526	530	1021	0	0	0	
11	0	0	0	0	523	528	1021	0	0	0	
12	0	0	0	0	522	528	1021	0	0	0	
13	0	0	0	0	524	530	1021	0	0	0	
14	0	0	0	0	527	534	1021	0	0	0	
15	0	0	0	0	532	541	1021	0	0	0	
0	0	0	0	0	539	549	1021	0	0	0	
1	0	0	0	0	546	557	1021	0	0	0	
2	0	0	0	0	552	565	1021	0	0	0	
3	0	0	0	0	558	571	1021	0	0	0	
4	0	0	0	0	560	575	1021	0	0	0	
5	0	0	0	0	560	575	1021	0	0	0	
6	0	0	0	0	556	571	1021	0	0	0	
7	0	0	0	0	549	564	1021	0	0	0	
8	0	0	0	0	539	554	1021	0	0	0	
9	0	0	0	0	527	542	1021	0	0	0	
10	0	0	0	0	515	529	1021	0	0	0	
11	0	0	0	0	504	516	1021	0	0	0	
12	0	0	0	0	494	504	1021	0	0	0	
13	0	0	0	0	485	494	1021	0	0	0	
14	0	0	0	0	479	486	1021	0	0	0	
15	0	0	0	0	475	480	1021	0	0	0	
0	0	0	0	0	474	477	1021	0	0	0	
1	0	0	0	0	475	477	1021	0	0	0	
2	0	0	0	0	478	480	1020	0	0	0	
3	0	0	0	0	483	485	1021	0	0	0	
4	0	0	0	0	489	492	1021	0	0	0	
5	0	0	0	0	496	499	1021	0	0	0	
6	0	0	0	0	502	507	1021	0	0	0	
7	0	0	0	0	507	513	1021	0	0	0	
8	0	0	0	0	512	520	1021	0	0	0	
9	0	0	0	0	516	525	1021	0	0	0	
10	0	0	0	0	519	530	1021	0	0	0	
11	0	0	0	0	522	533	1021	0	0	0	
12	0	0	0	0	524	534	1021	0	0	0	
13	0	0	0	0	524	534	1021	0	0	0	
14	0	0	0	0	524	533	1021	0	0	0	
15	0	0	0	0	524	531	1021	0	0	0	
0	0	0	0	0	524	531	1021	0	0	0	
1	0	0	0	0	527	530	1021	0	0	0	
2	0	0	0	0	530	531	1021	0	0	0	
3	0	0	0	0	534	534	1021	0	0	0	
4	0	0	0	0	538	536	1021	0	0	0	
5	0	0	0	0	541	539	1021	0	0	0	
6	0	0	0	0	543	541	1021	0	0	0	
7	0	0	0	0	545	543	1021	0	0	0	
8	0	0	0	0	544	545	1021	0	0	0	
9	0	0	0	0	543	547	1021	0	0	0	
10	0	0	0	0	540	547	1021	0	0	0	
11	0	0	0	0	536	546	1021	0	0	0	
12	0	0	0	0	531	544	1021	0	0	0	
13	0	0	0	0	526	541	1021	0	0	0	
14	0	0	0	0	520	537	1021	0	0	0	
15	0	0	0	0	515	534	1021	0	0	0	
0	0	0	0	0	511	530	1021	0	0	0	
1	0	0	0	0	508	527	1021	0	0	0	
2	0	0	0	0	508	526	1021	0	0	0	
3	0	0	0	0	510	525	1021	0	0	0	
4	0	0	0	0	511	524	1021	0	0	0	
5	0	0	0	0	514	524	1021	0	0	0	
6	0	0	0	0	516	524	1021	0	0	0	
7	0	0	0	0	518	523	1021	0	0	0	
8	0	0	0	0	518	521	1021	0	0	0	
9	0	0	0	0	517	519	1021	0	0	0	
10	0	0	0	0	513	516	1021	0	0	0	
11	0	0	0	0	510	512	1021	0	0	0	
12	0	0	0	0	504	509	1021	0	0	0	
13	0	0	0	0	499	505	1021	0	0	0	
14	0	0	0	0	492	501	1021	0	0	0	
15	0	0	0	0	486	498	1021	0	0	0	
0	0	0	0	0	481	495	1021	0	0	0	
1	0	0	0	0	478	494	1021	0	0	0	
2	0	0	0	0	477	495	1021	0	0	0	
3	0	0	0	0	480	497	1021	0	0	0	
4	0	0	0	0	486	502	1021	0	0	0	
5	0	0	0	0	496	509	1021	0	0	0	
6	0	0	0	0	508	518	1021	0	0	0	
7	0	0	0	0	524	528	1021	0	0	0	
8	0	0	0	0	540	540	1021	0	0	0	
9	0	0	0	0	556	550	1021	0	0	0	
10	0	0	0	0	569	559	1021	0	0	0	
11	0	0	0	0	578	564	1021	0	0	0	
12	0	0	0	0	580	565	1021	0	0	0	
13	0	0	0	0	575	560	1021	0	0	0	
14	0	0	0	0	563	551	1021	0	0	0	
15	0	0	0	0	546	538	1021	0	0	0	
0	0	0	0	0	524	522	1021	0	0	0	
1	0	0	0	0	502	506	1021	0	0	0	
2	0	0	0	0	479	492	1021	0	0	0	
3	0	0	0	0	459	479	1021	0	0	0	
4	0	0	0	0	443	470	1021	0	0	0	
5	0	0	0	0	433	464	1021	0	0	0	
6	0	0	0	0	428	462	1021	0	0	0	
7	0	0	0	0	428	463	1021	0	0	0	
8	0	0	0	0	435	467	1021	0	0	0	
9	0	0	0	0	445	473	1021	0	0	0	
10	0	0	0	0	459	482	1021	0	0	0	
11	0	0	0	0	475	491	1021	0	0	0	
12	0	0	0	0	492	499	1021	0	0	0	
13	0	0	0	0	508	508	1021	0	0	0	
14	0	0	0	0	524	518	1021	0	0	0	
15	0	0	0	0	539	527	1021	0	0	0	
0	0	0	0	0	551	534	1021	0	0	0	
1	0	0	0	0	559	539	1021	0	0	0	
2	0	0	0	0	562	542	1021	0	0	0	
3	0	0	0	0	561	542	1021	0	0	0	
4	0	0	0	0	555	540	1021	0	0	0	
5	0	0	0	0	546	535	1021	0	0	0	
6	0	0	0	0	534	529	1021	0	0	0	
7	0	0	0	0	521	522	1021	0	0	0	
8	0	0	0	0	508	516	1021	0	0	0	
9	0	0	0	0	496	510	1021	0	0	0	
10	0	0	0	0	486	505	1021	0	0	0	
11	0	0	0	0	478	500	1021	0	0	0	
12	0	0	0	0	472	496	1021	0	0	0	
13	0	0	0	0	467	493	1021	0	0	0	
14	0	0	0	0	466	489	1021	0	0	0	
15	0	0	0	0	467	487	1021	0	0	0	
0	0	0	0	0	469	484	1021	0	0	0	
1	0	0	0	0	473	483	1021	0	0	0	
2	0	0	0	0	477	483	1021	0	0	0	
3	0	0	0	0	483	483	1021	0	0	0	
4	0	0	0	0	489	485	1021	0	0	0	
5	0	0	0	0	496	488	1021	0	0	0	
6	0	0	0	0	502	492	1021	0	0	0	
7	0	0	0	0	507	497	1021	0	0	0	
8	0	0	0	0	512	503	1021	0	0	0	
9	0	0	0	0	516	508	1021	0	0	0	
10	0	0	0	0	519	515	1021	0	0	0	
11	0	0	0	0	521	520	1021	0	0	0	
12	0	0	0	0	522	526	1021	0	0	0	
13	0	0	0	0	524	531	1021	0	0	0	
14	0	0	0	0	526	537	1021	0	0	0	
15	0	0	0	0	529	541	1021	0	0	0	
0	0	0	0	0	532	545	1021	0	0	0	
1	0	0	0	0	536	548	1021	0	0	0	
2	0	0	0	0	540	551	1021	0	0	0	
3	0	0	0	0	543	552	1021	0	0	0	
4	0	0	0	0	546	552	1021	0	0	0	
5	0	0	0	0	547	551	1020	0	0	0	
6	0	0	0	0	547	548	1021	0	0	0	
7	0	0	0	0	545	546	1021	0	0	0	
8	0	0	0	0	543	543	1021	0	0	0	
9	0	0	0	0	540	540	1021	0	0	0	
10	0	0	0	0	535	536	1020	0	0	0	
11	0	0	0	0	529	532	1021	0	0	0	
12	0	0	0	0	521	527	1021	0	0	0	
13	0	0	0	0	511	520	1021	0	0	0	
14	0	0	0	0	501	514	1021	0	0	0	
15	0	0	0	0	491	508	1020	0	0	0	
0	0	0	0	0	481	502	1021	0	0	0	
1	0	0	0	0	474	496	1021	0	0	0	
2	0	0	0	0	468	492	1021	0	0	0	
3	0	0	0	0	464	487	1021	0	0	0	
4	0	0	0	0	463	485	1021	0	0	0	
5	0	0	0	0	465	484	1020	0	0	0	
6	0	0	0	0	470	486	1021	0	0	0	
7	0	0	0	0	478	490	1021	0	0	0	
8	0	0	0	0	487	496	1021	0	0	0	
9	0	0	0	0	499	502	1021	0	0	0	
10	0	0	0	0	510	508	1021	0	0	0	
11	0	0	0	0	519	515	1021	0	0	0	
12	0	0	0	0	528	521	1021	0	0	0	
13	0	0	0	0	535	525	1021	0	0	0	
14	0	0	0	0	539	528	1021	0	0	0	
15	0	0	0	0	540	530	1021	0	0	0	
0	0	0	0	0	540	531	1021	0	0	0	
1	0	0	0	0	538	531	1021	0	0	0	
2	0	0	0	0	534	531	1021	0	0	0	
3	0	0	0	0	531	531	1021	0	0	0	
4	0	0	0	0	527	530	1021	0	0	0	
5	0	0	0	0	523	529	1021	0	0	0	
6	0	0	0	0	519	529	1021	0	0	0	
7	0	0	0	0	517	527	1021	0	0	0	
8	0	0	0	0	515	526	1021	0	0	0	
9	0	0	0	0	514	524	1021	0	0	0	
10	0	0	0	0	513	522	1021	0	0	0	
11	0	0	0	0	514	520	1021	0	0	0	
12	0	0	0	0	515	518	1021	0	0	0	
13	0	0	0	0	516	518	1021	0	0	0	
14	0	0	0	0	519	517	1021	0	0	0	
15	0	0	0	0	523	519	1021	0	0	0	
0	0	0	0	0	527	521	1021	0	0	0	
1	0	0	0	0	531	524	1021	0	0	0	
2	0	0	0	0	535	528	1021	0	0	0	
3	0	0	0	0	537	532	1021	0	0	0	
4	0	0	0	0	539	537	1021	0	0	0	
5	0	0	0	0	539	540	1021	0	0	0	
6	0	0	0	0	537	543	1021	0	0	0	
7	0	0	0	0	535	544	1021	0	0	0	
8	0	0	0	0	531	544	1021	0	0	0	
9	0	0	0	0	526	542	1021	0	0	0	
10	0	0	0	0	520	538	1021	0	0	0	
11	0	0	0	0	514	532	1021	0	0	0	
12	0	0	0	0	508	524	1021	0	0	0	
13	0	0	0	0	501	516	1021	0	0	0	
14	0	0	0	0	496	508	1021	0	0	0	
15	0	0	0	0	492	500	1021	0	0	0	
0	0	0	0	0	489	494	1021	0	0	0	
1	0	0	0	0	489	489	1021	0	0	0	
2	0	0	0	0	489	486	1021	0	0	0	
3	0	0	0	0	492	484	1021	0	0	0	
4	0	0	0	0	495	484	1021	0	0	0	
5	0	0	0	0	500	487	1021	0	0	0	
6	0	0	0	0	507	492	1021	0	0	0	
7	0	0	0	0	514	499	1021	0	0	0	
8	0	0	0	0	522	507	1021	0	0	0	
9	0	0	0	0	530	516	1021	0	0	0	
10	0	0	0	0	538	525	1021	0	0	0	
11	0	0	0	0	545	534	1021	0	0	0	
12	0	0	0	0	551	541	1021	0	0	0	
13	0	0	0	0	555	548	1021	0	0	0	
14	0	0	0	0	558	553	1021	0	0	0	
15	0	0	0	0	560	556	1021	0	0	0	
0	0	0	0	0	558	556	1021	0	0	0	
1	0	0	0	0	555	552	1021	0	0	0	
2	0	0	0	0	550	547	1021	0	0	0	
3	0	0	0	0	542	540	1021	0	0	0	
4	0	0	0	0	533	530	1021	0	0	0	
5	0	0	0	0	522	519	1021	0	0	0	
6	0	0	0	0	511	507	1021	0	0	0	
7	0	0	0	0	500	497	1021	0	0	0	
8	0	0	0	0	490	488	1021	0	0	0	
9	0	0	0	0	483	481	1021	0	0	0	
10	0	0	0	0	477	477	1021	0	0	0	
11	0	0	0	0	474	475	1021	0	0	0	
12	0	0	0	0	475	476	1021	0	0	0	
13	0	0	0	0	477	480	1021	0	0	0	
14	0	0	0	0	482	486	1021	0	0	0	
15	0	0	0	0	490	494	1021	0	0	0	
0	0	0	0	0	499	504	1021	0	0	0	
1	0	0	0	0	510	514	1021	0	0	0	
2	0	0	0	0	522	525	1021	0	0	0	
3	0	0	0	0	533	535	1021	0	0	0	
4	0	0	0	0	543	542	1021	0	0	0	
5	0	0	0	0	551	547	1021	0	0	0	
6	0	0	0	0	556	548	1021	0	0	0	
7	0	0	0	0	557	547	1021	0	0	0	
8	0	0	0	0	556	543	1021	0	0	0	
9	0	0	0	0	552	537	1021	0	0	0	
10	0	0	0	0	546	531	1021	0	0	0	
11	0	0	0	0	540	524	1021	0	0	0	
12	0	0	0	0	533	519	1021	0	0	0	
13	0	0	0	0	527	515	1021	0	0	0	
14	0	0	0	0	523	514	1021	0	0	0	
15	0	0	0	0	520	515	1021	0	0	0	
0	0	0	0	0	520	519	1021	0	0	0	
1	0	0	0	0	522	524	1021	0	0	0	
2	0	0	0	0	527	532	1021	0	0	0	
3	0	0	0	0	532	540	1021	0	0	0	
4	0	0	0	0	539	548	1021	0	0	0	
5	0	0	0	0	546	555	1021	0	0	0	
6	0	0	0	0	552	561	1021	0	0	0	
7	0	0	0	0	558	564	1021	0	0	0	
8	0	0	0	0	560	565	1021	0	0	0	
9	0	0	0	0	561	563	1021	0	0	0	
10	0	0	0	0	560	559	1021	0	0	0	
11	0	0	0	0	558	554	1021	0	0	0	
12	0	0	0	0	553	547	1021	0	0	0	
13	0	0	0	0	547	539	1021	0	0	0	
14	0	0	0	0	541	530	1020	0	0	0	
15	0	0	0	0	533	521	1021	0	0	0	
0	0	0	0	0	525	513	1021	0	0	0	
1	0	0	0	0	518	505	1021	0	0	0	
2	0	0	0	0	511	499	1021	0	0	0	
3	0	0	0	0	505	494	1021	0	0	0	
4	0	0	0	0	500	492	1021	0	0	0	
5	0	0	0	0	497	490	1021	0	0	0	
6	0	0	0	0	494	489	1021	0	0	0	
7	0	0	0	0	492	489	1021	0	0	0	
8	0	0	0	0	491	488	1021	0	0	0	
9	0	0	0	0	490	488	1021	0	0	0	
10	0	0	0	0	490	489	1021	0	0	0	
11	0	0	0	0	491	489	1021	0	0	0	
12	0	0	0	0	493	489	1021	0	0	0	
13	0	0	0	0	496	490	1020	0	0	0	
14	0	0	0	0	499	492	1021	0	0	0	
15	0	0	0	0	504	493	1021	0	0	0	
0	0	0	0	0	509	495	1021	0	0	0	
1	0	0	0	0	514	497	1021	0	0	0	
2	0	0	0	0	519	500	1021	0	0	0	
3	0	0	0	0	525	504	1021	0	0	0	
4	0	0	0	0	531	508	1021	0	0	0	
5	0	0	0	0	537	513	1021	0	0	0	
6	0	0	0	0	544	521	1021	0	0	0	
7	0	0	0	0	552	530	1021	0	0	0	
8	0	0	0	0	560	540	1021	0	0	0	
9	0	0	0	0	567	548	1021	0	0	0	
10	0	0	0	0	572	556	1021	0	0	0	
11	0	0	0	0	574	560	1021	0	0	0	
12	0	0	0	0	573	560	1021	0	0	0	
13	0	0	0	0	568	558	1021	0	0	0	
14	0	0	0	0	560	551	1021	0	0	0	
15	0	0	0	0	550	542	1021	0	0	0	
0	0	0	0	0	537	530	1021	0	0	0	
1	0	0	0	0	523	517	1021	0	0	0	
2	0	0	0	0	510	503	1021	0	0	0	
3	0	0	0	0	497	489	1021	0	0	0	
4	0	0	0	0	486	476	1021	0	0	0	
5	0	0	0	0	475	465	1021	0	0	0	
6	0	0	0	0	467	455	1021	0	0	0	
7	0	0	0	0	462	448	1021	0	0	0	
8	0	0	0	0	459	444	1021	0	0	0	
9	0	0	0	0	458	442	1021	0	0	0	
10	0	0	0	0	460	443	1021	0	0	0	
11	0	0	0	0	465	447	1020	0	0	0	
12	0	0	0	0	472	454	1021	0	0	0	
13	0	0	0	0	482	463	1021	0	0	0	
14	0	0	0	0	492	474	1021	0	0	0	
15	0	0	0	0	504	486	1021	0	0	0	
0	0	0	0	0	516	498	1021	0	0	0	
1	0	0	0	0	530	511	1021	0	0	0	
2	0	0	0	0	543	524	1021	0	0	0	
3	0	0	0	0	556	536	1021	0	0	0	
4	0	0	0	0	568	547	1021	0	0	0	
5	0	0	0	0	580	557	1021	0	0	0	
6	0	0	0	0	591	565	1021	0	0	0	
7	0	0	0	0	598	570	1021	0	0	0	
8	0	0	0	0	601	571	1021	0	0	0	
9	0	0	0	0	599	567	1021	0	0	0	
10	0	0	0	0	591	557	1021	0	0	0	
11	0	0	0	0	577	543	1021	0	0	0	
12	0	0	0	0	559	526	1021	0	0	0	
13	0	0	0	0	538	508	1021	0	0	0	
14	0	0	0	0	516	490	1021	0	0	0	
15	0	0	0	0	496	474	1021	0	0	0	
0	0	0	0	0	478	461	1021	0	0	0	
1	0	0	0	0	464	452	1021	0	0	0	
2	0	0	0	0	455	447	1021	0	0	0	
3	0	0	0	0	449	444	1021	0	0	0	
4	0	0	0	0	448	446	1021	0	0	0	
5	0	0	0	0	451	450	1021	0	0	0	
6	0	0	0	0	457	455	1021	0	0	0	
7	0	0	0	0	466	462	1021	0	0	0	
8	0	0	0	0	476	468	1021	0	0	0	
9	0	0	0	0	487	475	1021	0	0	0	
10	0	0	0	0	498	480	1021	0	0	0	
11	0	0	0	0	508	484	1021	0	0	0	
12	0	0	0	0	516	488	1021	0	0	0	
13	0	0	0	0	524	490	1021	0	0	0	
14	0	0	0	0	529	493	1021	0	0	0	
15	0	0	0	0	534	495	1021	0	0	0	
0	0	0	0	0	537	498	1021	0	0	0	
1	0	0	0	0	540	501	1021	0	0	0	
2	0	0	0	0	541	505	1021	0	0	0	
3	0	0	0	0	542	510	1021	0	0	0	
4	0	0	0	0	543	516	1021	0	0	0	
5	0	0	0	0	544	523	1021	0	0	0	
6	0	0	0	0	546	530	1021	0	0	0	
7	0	0	0	0	547	536	1021	0	0	0	
8	0	0	0	0	547	541	1021	0	0	0	
9	0	0	0	0	547	544	1021	0	0	0	
10	0	0	0	0	545	543	1021	0	0	0	
11	0	0	0	0	542	541	1021	0	0	0	
12	0	0	0	0	537	535	1021	0	0	0	
13	0	0	0	0	530	527	1021	0	0	0	
14	0	0	0	0	522	516	1021	0	0	0	
15	0	0	0	0	513	504	1021	0	0	0	
0	0	0	0	0	505	493	1021	0	0	0	
1	0	0	0	0	496	481	1021	0	0	0	
2	0	0	0	0	490	471	1021	0	0	0	
3	0	0	0	0	485	464	1021	0	0	0	
4	0	0	0	0	482	460	1021	0	0	0	
5	0	0	0	0	483	459	1021	0	0	0	
6	0	0	0	0	485	461	1021	0	0	0	
7	0	0	0	0	490	467	1021	0	0	0	
8	0	0	0	0	497	474	1021	0	0	0	
9	0	0	0	0	504	483	1021	0	0	0	
10	0	0	0	0	512	492	1021	0	0	0	
11	0	0	0	0	520	501	1021	0	0	0	
12	0	0	0	0	526	508	1021	0	0	0	
13	0	0	0	0	530	514	1021	0	0	0	
14	0	0	0	0	531	517	1021	0	0	0	
15	0	0	0	0	531	517	1021	0	0	0	
0	0	0	0	0	529	515	1020	0	0	0	
1	0	0	0	0	525	511	1021	0	0	0	
2	0	0	0	0	520	507	1021	0	0	0	
3	0	0	0	0	515	502	1021	0	0	0	
4	0	0	0	0	511	496	1021	0	0	0	
5	0	0	0	0	508	492	1021	0	0	0	
6	0	0	0	0	505	489	1021	0	0	0	
7	0	0	0	0	505	489	1021	0	0	0	
8	0	0	0	0	506	491	1021	0	0	0	
9	0	0	0	0	508	494	1021	0	0	0	
10	0	0	0	0	510	496	1021	0	0	0	
11	0	0	0	0	511	499	1021	0	0	0	
12	0	0	0	0	510	500	1021	0	0	0	
13	0	0	0	0	506	499	1021	0	0	0	
14	0	0	0	0	500	496	1021	0	0	0	
15	0	0	0	0	493	490	1021	0	0	0	
0	0	0	0	0	484	483	1021	0	0	0	
1	0	0	0	0	474	474	1021	0	0	0	
2	0	0	0	0	463	464	1021	0	0	0	
3	0	0	0	0	451	452	1021	0	0	0	
4	0	0	0	0	439	439	1021	0	0	0	
5	0	0	0	0	426	424	1021	0	0	0	
6	0	0	0	0	411	409	1021	0	0	0	
7	0	0	0	0	396	392	1021	0	0	0	
8	0	0	0	0	380	375	1021	0	0	0	
9	0	0	0	0	362	356	1021	0	0	0	
10	0	0	0	0	345	338	1021	0	0	0	
11	0	0	0	0	328	321	1021	0	0	0	
12	0	0	0	0	313	305	1021	0	0	0	
13	0	0	0	0	298	290	1021	0	0	0	
14	0	0	0	0	285	278	1021	0	0	0	
15	0	0	0	0	275	268	1021	0	0	0	
0	0	0	0	0	268	261	1021	0	0	0	
1	0	0	0	0	264	258	1021	0	0	0	
2	0	0	0	0	265	260	1021	0	0	0	
3	0	0	0	0	271	265	1021	0	0	0	
4	0	0	0	0	281	275	1021	0	0	0	
5	0	0	0	0	295	288	1021	0	0	0	
6	0	0	0	0	314	304	1021	0	0	0	
7	0	0	0	0	335	322	1021	0	0	0	
8	0	0	0	0	359	342	1021	0	0	0	
9	0	0	0	0	384	363	1021	0	0	0	
10	0	0	0	0	410	384	1021	0	0	0	
11	0	0	0	0	436	404	1021	0	0	0	
12	0	0	0	0	460	425	1021	0	0	0	
13	0	0	0	0	483	444	1021	0	0	0	
14	0	0	0	0	501	460	1021	0	0	0	
15	0	0	0	0	516	475	1021	0	0	0	
0	0	0	0	0	526	487	1021	0	0	0	
1	0	0	0	0	534	497	1021	0	0	0	
2	0	0	0	0	538	507	1021	0	0	0	
3	0	0	0	0	540	515	1021	0	0	0	
4	0	0	0	0	542	523	1021	0	0	0	
5	0	0	0	0	541	529	1021	0	0	0	
6	0	0	0	0	540	534	1021	0	0	0	
7	0	0	0	0	539	538	1021	0	0	0	
8	0	0	0	0	537	540	1021	0	0	0	
9	0	0	0	0	536	542	1021	0	0	0	
10	0	0	0	0	533	540	1021	0	0	0	
11	0	0	0	0	531	537	1021	0	0	0	
12	0	0	0	0	528	533	1021	0	0	0	
13	0	0	0	0	524	527	1021	0	0	0	
14	0	0	0	0	521	521	1021	0	0	0	
15	0	0	0	0	518	513	1021	0	0	0	
0	0	0	0	0	514	506	1021	0	0	0	
1	0	0	0	0	511	499	1021	0	0	0	
2	0	0	0	0	507	493	1021	0	0	0	
3	0	0	0	0	503	488	1021	0	0	0	
4	0	0	0	0	500	484	1021	0	0	0	
5	0	0	0	0	498	482	1021	0	0	0	
6	0	0	0	0	497	482	1021	0	0	0	
7	0	0	0	0	496	483	1021	0	0	0	
8	0	0	0	0	497	487	1021	0	0	0	
9	0	0	0	0	499	493	1021	0	0	0	
10	0	0	0	0	502	499	1021	0	0	0	
11	0	0	0	0	506	507	1021	0	0	0	
12	0	0	0	0	511	515	1021	0	0	0	
13	0	0	0	0	516	523	1021	0	0	0	
14	0	0	0	0	523	531	1021	0	0	0	
15	0	0	0	0	529	538	1021	0	0	0	
0	0	0	0	0	536	544	1021	0	0	0	
1	0	0	0	0	544	551	1021	0	0	0	
2	0	0	0	0	552	556	1021	0	0	0	
3	0	0	0	0	559	561	1021	0	0	0	
4	0	0	0	0	566	564	1021	0	0	0	
5	0	0	0	0	571	566	1021	0	0	0	
6	0	0	0	0	574	567	1021	0	0	0	
7	0	0	0	0	575	566	1021	0	0	0	
8	0	0	0	0	574	563	1021	0	0	0	
9	0	0	0	0	570	560	1021	0	0	0	
10	0	0	0	0	563	554	1021	0	0	0	
11	0	0	0	0	554	548	1021	0	0	0	
12	0	0	0	0	544	540	1021	0	0	0	
13	0	0	0	0	533	532	1021	0	0	0	
14	0	0	0	0	521	524	1021	0	0	0	
15	0	0	0	0	510	516	1021	0	0	0	
0	0	0	0	0	499	510	1021	0	0	0	
1	0	0	0	0	491	503	1021	0	0	0	
2	0	0	0	0	484	498	1021	0	0	0	
3	0	0	0	0	480	494	1021	0	0	0	
4	0	0	0	0	478	491	1021	0	0	0	
5	0	0	0	0	478	490	1021	0	0	0	
6	0	0	0	0	481	490	1021	0	0	0	
7	0	0	0	0	485	491	1021	0	0	0	
8	0	0	0	0	491	494	1021	0	0	0	
9	0	0	0	0	499	497	1021	0	0	0	
10	0	0	0	0	508	503	1021	0	0	0	
11	0	0	0	0	518	509	1021	0	0	0	
12	0	0	0	0	528	517	1021	0	0	0	
13	0	0	0	0	539	526	1021	0	0	0	
14	0	0	0	0	549	535	1021	0	0	0	
15	0	0	0	0	558	545	1021	0	0	0	
0	0	0	0	0	568	556	1021	0	0	0	
1	0	0	0	0	576	566	1021	0	0	0	
2	0	0	0	0	583	576	1021	0	0	0	
3	0	0	0	0	587	583	1021	0	0	0	
4	0	0	0	0	588	588	1021	0	0	0	
5	0	0	0	0	587	590	1021	0	0	0	
6	0	0	0	0	582	588	1021	0	0	0	
7	0	0	0	0	575	584	1021	0	0	0	
8	0	0	0	0	566	577	1021	0	0	0	
9	0	0	0	0	556	570	1021	0	0	0	
10	0	0	0	0	545	560	1021	0	0	0	
11	0	0	0	0	535	551	1021	0	0	0	
12	0	0	0	0	526	541	1021	0	0	0	
13	0	0	0	0	517	531	1020	0	0	0	
14	0	0	0	0	510	524	1021	0	0	0	
15	0	0	0	0	505	517	1021	0	0	0	
0	0	0	0	0	501	512	1021	0	0	0	
1	0	0	0	0	499	508	1021	0	0	0	
2	0	0	0	0	498	506	1021	0	0	0	
3	0	0	0	0	497	506	1021	0	0	0	
4	0	0	0	0	499	507	1021	0	0	0	
5	0	0	0	0	502	508	1021	0	0	0	
6	0	0	0	0	504	510	1021	0	0	0	
7	0	0	0	0	507	513	1021	0	0	0	
8	0	0	0	0	510	515	1021	0	0	0	
9	0	0	0	0	513	519	1021	0	0	0	
10	0	0	0	0	516	521	1021	0	0	0	
11	0	0	0	0	519	524	1021	0	0	0	
12	0	0	0	0	522	526	1021	0	0	0	
13	0	0	0	0	525	528	1021	0	0	0	
14	0	0	0	0	527	529	1021	0	0	0	
15	0	0	0	0	528	529	1021	0	0	0	
0	0	0	0	0	528	528	1021	0	0	0	
1	0	0	0	0	527	527	1020	0	0	0	
2	0	0	0	0	525	523	1021	0	0	0	
3	0	0	0	0	522	519	1021	0	0	0	
4	0	0	0	0	519	516	1021	0	0	0	
5	0	0	0	0	515	512	1021	0	0	0	
6	0	0	0	0	512	510	1021	0	0	0	
7	0	0	0	0	509	508	1021	0	0	0	
8	0	0	0	0	507	508	1021	0	0	0	
9	0	0	0	0	507	511	1021	0	0	0	
10	0	0	0	0	508	514	1021	0	0	0	
11	0	0	0	0	510	518	1020	0	0	0	
12	0	0	0	0	513	522	1021	0	0	0	
13	0	0	0	0	515	526	1021	0	0	0	
14	0	0	0	0	516	527	1021	0	0	0	
15	0	0	0	0	515	526	1021	0	0	0	
0	0	0	0	0	513	523	1021	0	0	0	
1	0	0	0	0	508	518	1021	0	0	0	
2	0	0	0	0	504	513	1021	0	0	0	
3	0	0	0	0	498	506	1021	0	0	0	
4	0	0	0	0	494	501	1021	0	0	0	
5	0	0	0	0	492	496	1021	0	0	0	
6	0	0	0	0	490	494	1021	0	0	0	
7	0	0	0	0	491	493	1021	0	0	0	
8	0	0	0	0	494	495	1021	0	0	0	
9	0	0	0	0	499	499	1021	0	0	0	
10	0	0	0	0	505	505	1021	0	0	0	
11	0	0	0	0	513	513	1021	0	0	0	
12	0	0	0	0	522	524	1021	0	0	0	
13	0	0	0	0	532	536	1021	0	0	0	
14	0	0	0	0	541	547	1021	0	0	0	
15	0	0	0	0	549	557	1021	0	0	0	
0	0	0	0	0	555	565	1021	0	0	0	
1	0	0	0	0	559	572	1021	0	0	0	
2	0	0	0	0	561	574	1021	0	0	0	
3	0	0	0	0	559	574	1021	0	0	0	
4	0	0	0	0	555	570	1021	0	0	0	
5	0	0	0	0	548	563	1021	0	0	0	
6	0	0	0	0	540	555	1021	0	0	0	
7	0	0	0	0	531	545	1021	0	0	0	
8	0	0	0	0	523	536	1021	0	0	0	
9	0	0	0	0	514	527	1020	0	0	0	
10	0	0	0	0	508	519	1021	0	0	0	
11	0	0	0	0	503	512	1021	0	0	0	
12	0	0	0	0	499	508	1021	0	0	0	
13	0	0	0	0	496	504	1021	0	0	0	
14	0	0	0	0	493	501	1021	0	0	0	
15	0	0	0	0	491	499	1021	0	0	0	
0	0	0	0	0	489	498	1021	0	0	0	
1	0	0	0	0	487	497	1021	0	0	0	
2	0	0	0	0	486	498	1021	0	0	0	
3	0	0	0	0	485	498	1021	0	0	0	
4	0	0	0	0	485	499	1021	0	0	0	
5	0	0	0	0	485	502	1021	0	0	0	
6	0	0	0	0	487	504	1021	0	0	0	
7	0	0	0	0	489	506	1021	0	0	0	
8	0	0	0	0	492	508	1021	0	0	0	
9	0	0	0	0	495	508	1021	0	0	0	
10	0	0	0	0	497	509	1021	0	0	0	
11	0	0	0	0	499	508	1021	0	0	0	
12	0	0	0	0	501	508	1021	0	0	0	
13	0	0	0	0	502	506	1021	0	0	0	
14	0	0	0	0	503	504	1021	0	0	0	
15	0	0	0	0	503	503	1021	0	0	0	
0	0	0	0	0	503	503	1021	0	0	0	
1	0	0	0	0	504	504	1021	0	0	0	
2	0	0	0	0	505	505	1021	0	0	0	
3	0	0	0	0	507	509	1021	0	0	0	
4	0	0	0	0	510	514	1021	0	0	0	
5	0	0	0	0	512	519	1021	0	0	0	
6	0	0	0	0	515	526	1021	0	0	0	
7	0	0	0	0	519	532	1021	0	0	0	
8	0	0	0	0	523	539	1021	0	0	0	
9	0	0	0	0	527	545	1021	0	0	0	
10	0	0	0	0	531	551	1021	0	0	0	
11	0	0	0	0	534	556	1021	0	0	0	
12	0	0	0	0	537	560	1021	0	0	0	
13	0	0	0	0	541	563	1021	0	0	0	
14	0	0	0	0	544	565	1021	0	0	0	
15	0	0	0	0	548	566	1021	0	0	0	
0	0	0	0	0	551	566	1021	0	0	0	
1	0	0	0	0	552	564	1020	0	0	0	
2	0	0	0	0	552	560	1021	0	0	0	
3	0	0	0	0	550	555	1021	0	0	0	
4	0	0	0	0	546	549	1021	0	0	0	
5	0	0	0	0	541	542	1021	0	0	0	
6	0	0	0	0	535	536	1021	0	0	0	
7	0	0	0	0	528	529	1021	0	0	0	
8	0	0	0	0	521	524	1021	0	0	0	
9	0	0	0	0	513	519	1021	0	0	0	
10	0	0	0	0	506	515	1021	0	0	0	
11	0	0	0	0	498	511	1021	0	0	0	
12	0	0	0	0	491	508	1021	0	0	0	
13	0	0	0	0	485	506	1021	0	0	0	
14	0	0	0	0	479	504	1021	0	0	0	
15	0	0	0	0	476	502	1021	0	0	0	
0	0	0	0	0	474	502	1021	0	0	0	
1	0	0	0	0	474	502	1021	0	0	0	
2	0	0	0	0	476	502	1021	0	0	0	
3	0	0	0	0	479	503	1021	0	0	0	
4	0	0	0	0	484	505	1021	0	0	0	
5	0	0	0	0	491	507	1021	0	0	0	
6	0	0	0	0	497	508	1021	0	0	0	
7	0	0	0	0	504	511	1021	0	0	0	
8	0	0	0	0	510	513	1021	0	0	0	
9	0	0	0	0	515	516	1021	0	0	0	
10	0	0	0	0	519	519	1021	0	0	0	
11	0	0	0	0	521	521	1020	0	0	0	
12	0	0	0	0	522	524	1021	0	0	0	
13	0	0	0	0	521	525	1021	0	0	0	
14	0	0	0	0	518	526	1021	0	0	0	
15	0	0	0	0	514	526	1021	0	0	0	
0	0	0	0	0	510	525	1021	0	0	0	
1	0	0	0	0	505	525	1021	0	0	0	
2	0	0	0	0	501	525	1021	0	0	0	
3	0	0	0	0	499	524	1021	0	0	0	
4	0	0	0	0	497	524	1021	0	0	0	
5	0	0	0	0	496	523	1021	0	0	0	
6	0	0	0	0	497	523	1021	0	0	0	
7	0	0	0	0	498	521	1021	0	0	0	
8	0	0	0	0	500	519	1021	0	0	0	
9	0	0	0	0	502	518	1020	0	0	0	
10	0	0	0	0	505	517	1021	0	0	0	
11	0	0	0	0	509	518	1021	0	0	0	
12	0	0	0	0	513	519	1021	0	0	0	
13	0	0	0	0	518	521	1021	0	0	0	
14	0	0	0	0	522	523	1021	0	0	0	
15	0	0	0	0	525	525	1021	0	0	0	
0	0	0	0	0	526	527	1021	0	0	0	
1	0	0	0	0	526	527	1021	0	0	0	
2	0	0	0	0	524	527	1021	0	0	0	
3	0	0	0	0	520	525	1021	0	0	0	
4	0	0	0	0	515	522	1021	0	0	0	
5	0	0	0	0	508	518	1021	0	0	0	
6	0	0	0	0	502	512	1021	0	0	0	
7	0	0	0	0	495	507	1021	0	0	0	
8	0	0	0	0	489	500	1021	0	0	0	
9	0	0	0	0	483	493	1021	0	0	0	
10	0	0	0	0	480	487	1021	0	0	0	
11	0	0	0	0	477	483	1021	0	0	0	
12	0	0	0	0	476	478	1021	0	0	0	
13	0	0	0	0	477	476	1021	0	0	0	
14	0	0	0	0	480	476	1021	0	0	0	
15	0	0	0	0	486	479	1021	0	0	0	
0	0	0	0	0	492	483	1021	0	0	0	
1	0	0	0	0	500	489	1021	0	0	0	
2	0	0	0	0	509	497	1021	0	0	0	
3	0	0	0	0	517	505	1021	0	0	0	
4	0	0	0	0	524	514	1021	0	0	0	
5	0	0	0	0	529	520	1021	0	0	0	
6	0	0	0	0	532	526	1021	0	0	0	
7	0	0	0	0	531	528	1021	0	0	0	
8	0	0	0	0	527	528	1021	0	0	0	
9	0	0	0	0	521	525	1021	0	0	0	
10	0	0	0	0	512	519	1021	0	0	0	
11	0	0	0	0	502	512	1021	0	0	0	
12	0	0	0	0	491	504	1021	0	0	0	
13	0	0	0	0	482	496	1021	0	0	0	
14	0	0	0	0	475	489	1021	0	0	0	
15	0	0	0	0	470	483	1021	0	0	0	
0	0	0	0	0	469	480	1021	0	0	0	
1	0	0	0	0	470	479	1021	0	0	0	
2	0	0	0	0	475	480	1021	0	0	0	
3	0	0	0	0	482	483	1021	0	0	0	
4	0	0	0	0	491	488	1021	0	0	0	
5	0	0	0	0	499	493	1021	0	0	0	
6	0	0	0	0	508	499	1021	0	0	0	
7	0	0	0	0	515	505	1021	0	0	0	
8	0	0	0	0	522	511	1021	0	0	0	
9	0	0	0	0	526	516	1021	0	0	0	
10	0	0	0	0	527	519	1021	0	0	0	
11	0	0	0	0	527	521	1021	0	0	0	
12	0	0	0	0	525	522	1021	0	0	0	
13	0	0	0	0	522	523	1021	0	0	0	
14	0	0	0	0	519	521	1021	0	0	0	
15	0	0	0	0	514	519	1021	0	0	0	
0	0	0	0	0	510	515	1021	0	0	0	
1	0	0	0	0	504	510	1021	0	0	0	
2	0	0	0	0	497	503	1021	0	0	0	
3	0	0	0	0	490	495	1021	0	0	0	
4	0	0	0	0	483	485	1021	0	0	0	
5	0	0	0	0	476	477	1021	0	0	0	
6	0	0	0	0	470	468	1021	0	0	0	
7	0	0	0	0	464	461	1021	0	0	0	
8	0	0	0	0	460	455	1021	0	0	0	
9	0	0	0	0	459	452	1021	0	0	0	
10	0	0	0	0	458	451	1021	0	0	0	
11	0	0	0	0	459	453	1021	0	0	0	
12	0	0	0	0	462	457	1021	0	0	0	
13	0	0	0	0	466	463	1021	0	0	0	
14	0	0	0	0	472	469	1021	0	0	0	
15	0	0	0	0	477	476	1021	0	0	0	
0	0	0	0	0	482	483	1021	0	0	0	
1	0	0	0	0	486	488	1021	0	0	0	
2	0	0	0	0	489	491	1021	0	0	0	
3	0	0	0	0	489	492	1021	0	0	0	
4	0	0	0	0	488	491	1021	0	0	0	
5	0	0	0	0	486	487	1021	0	0	0	
6	0	0	0	0	482	483	1021	0	0	0	
7	0	0	0	0	478	478	1021	0	0	0	
8	0	0	0	0	473	473	1021	0	0	0	
9	0	0	0	0	470	468	1021	0	0	0	
10	0	0	0	0	468	466	1021	0	0	0	
11	0	0	0	0	469	465	1021	0	0	0	
12	0	0	0	0	471	468	1021	0	0	0	
13	0	0	0	0	476	472	1021	0	0	0	
14	0	0	0	0	481	478	1021	0	0	0	
15	0	0	0	0	487	486	1020	0	0	0	
0	0	0	0	0	494	493	1021	0	0	0	
1	0	0	0	0	500	500	1021	0	0	0	
2	0	0	0	0	505	507	1021	0	0	0	
3	0	0	0	0	509	513	1021	0	0	0	
4	0	0	0	0	513	518	1021	0	0	0	
5	0	0	0	0	517	523	1021	0	0	0	
6	0	0	0	0	521	528	1021	0	0	0	
7	0	0	0	0	526	532	1021	0	0	0	
8	0	0	0	0	531	536	1021	0	0	0	
9	0	0	0	0	535	539	1021	0	0	0	
10	0	0	0	0	540	541	1021	0	0	0	
11	0	0	0	0	543	541	1021	0	0	0	
12	0	0	0	0	544	540	1021	0	0	0	
13	0	0	0	0	544	536	1021	0	0	0	
14	0	0	0	0	542	532	1021	0	0	0	
15	0	0	0	0	538	526	1021	0	0	0	
0	0	0	0	0	532	519	1021	0	0	0	
1	0	0	0	0	526	511	1021	0	0	0	
2	0	0	0	0	518	504	1021	0	0	0	
3	0	0	0	0	509	496	1021	0	0	0	
4	0	0	0	0	499	490	1021	0	0	0	
5	0	0	0	0	489	484	1021	0	0	0	
6	0	0	0	0	480	478	1021	0	0	0	
7	0	0	0	0	470	473	1021	0	0	0	
8	0	0	0	0	461	468	1021	0	0	0	
9	0	0	0	0	455	465	1021	0	0	0	
10	0	0	0	0	449	462	1021	0	0	0	
11	0	0	0	0	445	459	1021	0	0	0	
12	0	0	0	0	443	457	1021	0	0	0	
13	0	0	0	0	442	455	1021	0	0	0	
14	0	0	0	0	445	455	1021	0	0	0	
15	0	0	0	0	449	455	1021	0	0	0	
0	0	0	0	0	455	457	1021	0	0	0	
1	0	0	0	0	463	460	1021	0	0	0	
2	0	0	0	0	472	464	1021	0	0	0	
3	0	0	0	0	481	470	1021	0	0	0	
4	0	0	0	0	491	476	1021	0	0	0	
5	0	0	0	0	500	484	1021	0	0	0	
6	0	0	0	0	510	492	1021	0	0	0	
7	0	0	0	0	517	500	1021	0	0	0	
8	0	0	0	0	524	508	1021	0	0	0	
9	0	0	0	0	529	515	1021	0	0	0	
10	0	0	0	0	532	520	1021	0	0	0	
11	0	0	0	0	533	523	1021	0	0	0	
12	0	0	0	0	531	524	1021	0	0	0	
13	0	0	0	0	526	523	1021	0	0	0	
14	0	0	0	0	520	520	1021	0	0	0	
15	0	0	0	0	512	514	1021	0	0	0	
0	0	0	0	0	504	508	1021	0	0	0	
1	0	0	0	0	497	502	1021	0	0	0	
2	0	0	0	0	491	496	1021	0	0	0	
3	0	0	0	0	486	491	1021	0	0	0	
4	0	0	0	0	483	487	1021	0	0	0	
5	0	0	0	0	482	484	1021	0	0	0	
6	0	0	0	0	483	482	1021	0	0	0	
7	0	0	0	0	484	482	1021	0	0	0	
8	0	0	0	0	487	482	1021	0	0	0	
9	0	0	0	0	489	483	1021	0	0	0	
10	0	0	0	0	492	484	1021	0	0	0	
11	0	0	0	0	494	485	1021	0	0	0	
12	0	0	0	0	495	487	1021	0	0	0	
13	0	0	0	0	494	487	1021	0	0	0	
14	0	0	0	0	493	487	1021	0	0	0	
15	0	0	0	0	491	487	1021	0	0	0	
0	0	0	0	0	488	487	1021	0	0	0	
1	0	0	0	0	485	486	1021	0	0	0	
2	0	0	0	0	481	484	1021	0	0	0	
3	0	0	0	0	477	482	1021	0	0	0	
4	0	0	0	0	474	479	1021	0	0	0	
5	0	0	0	0	472	477	1021	0	0	0	
6	0	0	0	0	470	475	1021	0	0	0	
7	0	0	0	0	471	474	1021	0	0	0	
8	0	0	0	0	472	473	1021	0	0	0	
9	0	0	0	0	475	475	1020	0	0	0	
10	0	0	0	0	480	477	1021	0	0	0	
11	0	0	0	0	487	481	1021	0	0	0	
12	0	0	0	0	495	486	1021	0	0	0	
13	0	0	0	0	503	493	1021	0	0	0	
14	0	0	0	0	511	500	1021	0	0	0	
15	0	0	0	0	519	508	1021	0	0	0	
0	0	0	0	0	527	516	1021	0	0	0	
1	0	0	0	0	533	524	1021	0	0	0	
2	0	0	0	0	538	531	1021	0	0	0	
3	0	0	0	0	542	537	1021	0	0	0	
4	0	0	0	0	543	541	1021	0	0	0	
5	0	0	0	0	543	543	1021	0	0	0	
6	0	0	0	0	540	543	1021	0	0	0	
7	0	0	0	0	534	540	1021	0	0	0	
8	0	0	0	0	527	535	1021	0	0	0	
9	0	0	0	0	519	529	1021	0	0	0	
10	0	0	0	0	511	523	1021	0	0	0	
11	0	0	0	0	504	516	1021	0	0	0	
12	0	0	0	0	497	508	1021	0	0	0	
13	0	0	0	0	490	502	1021	0	0	0	
14	0	0	0	0	484	496	1021	0	0	0	
15	0	0	0	0	481	491	1021	0	0	0	
0	0	0	0	0	479	488	1021	0	0	0	
1	0	0	0	0	479	487	1021	0	0	0	
2	0	0	0	0	481	488	1021	0	0	0	
3	0	0	0	0	484	492	1021	0	0	0	
4	0	0	0	0	490	496	1021	0	0	0	
5	0	0	0	0	496	500	1021	0	0	0	
6	0	0	0	0	500	504	1021	0	0	0	
7	0	0	0	0	505	506	1021	0	0	0	
8	0	0	0	0	507	508	1021	0	0	0	
9	0	0	0	0	509	509	1021	0	0	0	
10	0	0	0	0	510	510	1021	0	0	0	
11	0	0	0	0	511	509	1021	0	0	0	
12	0	0	0	0	510	508	1021	0	0	0	
13	0	0	0	0	509	507	1021	0	0	0	
14	0	0	0	0	509	506	1021	0	0	0	
15	0	0	0	0	508	505	1021	0	0	0	
0	0	0	0	0	508	505	1021	0	0	0	
1	0	0	0	0	508	504	1021	0	0	0	
2	0	0	0	0	507	503	1021	0	0	0	
3	0	0	0	0	506	502	1021	0	0	0	
4	0	0	0	0	504	499	1021	0	0	0	
5	0	0	0	0	501	497	1021	0	0	0	
6	0	0	0	0	498	495	1021	0	0	0	
7	0	0	0	0	494	494	1021	0	0	0	
8	0	0	0	0	492	493	1021	0	0	0	
9	0	0	0	0	489	494	1021	0	0	0	
10	0	0	0	0	488	495	1021	0	0	0	
11	0	0	0	0	488	497	1021	0	0	0	
12	0	0	0	0	488	500	1021	0	0	0	
13	0	0	0	0	490	502	1021	0	0	0	
14	0	0	0	0	492	504	1021	0	0	0	
15	0	0	0	0	494	506	1021	0	0	0	
0	0	0	0	0	495	506	1021	0	0	0	
1	0	0	0	0	496	506	1021	0	0	0	
2	0	0	0	0	498	505	1021	0	0	0	
3	0	0	0	0	499	503	1021	0	0	0	
4	0	0	0	0	499	500	1021	0	0	0	
5	0	0	0	0	498	497	1021	0	0	0	
6	0	0	0	0	496	494	1021	0	0	0	
7	0	0	0	0	495	491	1021	0	0	0	
8	0	0	0	0	494	489	1021	0	0	0	
9	0	0	0	0	492	488	1021	0	0	0	
10	0	0	0	0	492	489	1021	0	0	0	
11	0	0	0	0	493	492	1021	0	0	0	
12	0	0	0	0	496	496	1021	0	0	0	
13	0	0	0	0	498	501	1021	0	0	0	
14	0	0	0	0	501	506	1021	0	0	0	
15	0	0	0	0	504	510	1021	0	0	0	
0	0	0	0	0	506	513	1021	0	0	0	
1	0	0	0	0	507	516	1021	0	0	0	
2	0	0	0	0	506	516	1021	0	0	0	
3	0	0	0	0	504	513	1021	0	0	0	
4	0	0	0	0	499	509	1021	0	0	0	
5	0	0	0	0	493	503	1021	0	0	0	
6	0	0	0	0	487	496	1021	0	0	0	
7	0	0	0	0	480	488	1021	0	0	0	
8	0	0	0	0	474	481	1021	0	0	0	
9	0	0	0	0	469	475	1021	0	0	0	
10	0	0	0	0	466	471	1021	0	0	0	
11	0	0	0	0	467	470	1021	0	0	0	
12	0	0	0	0	470	472	1021	0	0	0	
13	0	0	0	0	475	477	1021	0	0	0	
14	0	0	0	0	483	485	1021	0	0	0	
15	0	0	0	0	495	496	1021	0	0	0	
0	0	0	0	0	508	509	1021	0	0	0	
1	0	0	0	0	523	524	1021	0	0	0	
2	0	0	0	0	538	539	1021	0	0	0	
3	0	0	0	0	551	552	1021	0	0	0	
4	0	0	0	0	563	563	1021	0	0	0	
5	0	0	0	0	570	571	1021	0	0	0	
6	0	0	0	0	572	574	1021	0	0	0	
7	0	0	0	0	568	570	1021	0	0	0	
8	0	0	0	0	558	562	1021	0	0	0	
9	0	0	0	0	543	549	1021	0	0	0	
10	0	0	0	0	526	534	1021	0	0	0	
11	0	0	0	0	505	515	1021	0	0	0	
12	0	0	0	0	485	496	1021	0	0	0	
13	0	0	0	0	465	479	1021	0	0	0	
14	0	0	0	0	449	463	1021	0	0	0	
15	0	0	0	0	435	451	1021	0	0	0	
0	0	0	0	0	428	443	1021	0	0	0	
1	0	0	0	0	424	440	1021	0	0	0	
2	0	0	0	0	427	442	1021	0	0	0	
3	0	0	0	0	435	448	1021	0	0	0	
4	0	0	0	0	446	458	1021	0	0	0	
5	0	0	0	0	460	470	1021	0	0	0	
6	0	0	0	0	473	483	1021	0	0	0	
7	0	0	0	0	488	494	1021	0	0	0	
8	0	0	0	0	500	504	1021	0	0	0	
9	0	0	0	0	510	513	1021	0	0	0	
10	0	0	0	0	518	519	1021	0	0	0	
11	0	0	0	0	521	521	1021	0	0	0	
12	0	0	0	0	522	521	1021	0	0	0	
13	0	0	0	0	520	518	1021	0	0	0	
14	0	0	0	0	515	513	1021	0	0	0	
15	0	0	0	0	510	507	1021	0	0	0	
0	0	0	0	0	504	501	1021	0	0	0	
1	0	0	0	0	498	496	1021	0	0	0	
2	0	0	0	0	494	492	1021	0	0	0	
3	0	0	0	0	491	489	1021	0	0	0	
4	0	0	0	0	490	488	1021	0	0	0	
5	0	0	0	0	490	488	1021	0	0	0	
6	0	0	0	0	490	489	1021	0	0	0	
7	0	0	0	0	490	491	1021	0	0	0	
8	0	0	0	0	492	492	1021	0	0	0	
9	0	0	0	0	492	494	1021	0	0	0	
10	0	0	0	0	492	496	1021	0	0	0	
11	0	0	0	0	491	496	1021	0	0	0	
12	0	0	0	0	489	496	1021	0	0	0	
13	0	0	0	0	487	496	1021	0	0	0	
14	0	0	0	0	484	494	1021	0	0	0	
15	0	0	0	0	481	492	1021	0	0	0	
0	0	0	0	0	478	489	1021	0	0	0	
1	0	0	0	0	475	486	1021	0	0	0	
2	0	0	0	0	474	484	1021	0	0	0	
3	0	0	0	0	473	481	1021	0	0	0	
4	0	0	0	0	474	480	1021	0	0	0	
5	0	0	0	0	476	480	1021	0	0	0	
6	0	0	0	0	480	480	1021	0	0	0	
7	0	0	0	0	484	483	1021	0	0	0	
8	0	0	0	0	489	486	1021	0	0	0	
9	0	0	0	0	495	491	1021	0	0	0	
10	0	0	0	0	499	496	1021	0	0	0	
11	0	0	0	0	505	502	1020	0	0	0	
12	0	0	0	0	509	508	1021	0	0	0	
13	0	0	0	0	512	513	1021	0	0	0	
14	0	0	0	0	515	519	1021	0	0	0	
15	0	0	0	0	518	524	1021	0	0	0	
0	0	0	0	0	520	528	1021	0	0	0	
1	0	0	0	0	523	533	1021	0	0	0	
2	0	0	0	0	526	537	1021	0	0	0	
3	0	0	0	0	529	540	1021	0	0	0	
4	0	0	0	0	532	543	1021	0	0	0	
5	0	0	0	0	536	545	1021	0	0	0	
6	0	0	0	0	538	546	1021	0	0	0	
7	0	0	0	0	540	546	1021	0	0	0	
8	0	0	0	0	540	543	1021	0	0	0	
9	0	0	0	0	537	539	1021	0	0	0	
10	0	0	0	0	532	532	1021	0	0	0	
11	0	0	0	0	526	525	1021	0	0	0	
12	0	0	0	0	518	517	1021	0	0	0	
13	0	0	0	0	509	509	1021	0	0	0	
14	0	0	0	0	500	502	1021	0	0	0	
15	0	0	0	0	491	496	1021	0	0	0	
0	0	0	0	0	484	491	1021	0	0	0	
1	0	0	0	0	477	487	1021	0	0	0	
2	0	0	0	0	472	485	1021	0	0	0	
3	0	0	0	0	468	483	1021	0	0	0	
4	0	0	0	0	465	483	1021	0	0	0	
5	0	0	0	0	465	484	1021	0	0	0	
6	0	0	0	0	466	486	1021	0	0	0	
7	0	0	0	0	469	488	1021	0	0	0	
8	0	0	0	0	473	490	1021	0	0	0	
9	0	0	0	0	478	493	1021	0	0	0	
10	0	0	0	0	484	496	1021	0	0	0	
11	0	0	0	0	490	498	1021	0	0	0	
12	0	0	0	0	496	500	1021	0	0	0	
13	0	0	0	0	500	501	1021	0	0	0	
14	0	0	0	0	503	502	1021	0	0	0	
15	0	0	0	0	505	501	1021	0	0	0	
0	0	0	0	0	505	500	1021	0	0	0	
1	0	0	0	0	503	497	1021	0	0	0	
2	0	0	0	0	498	493	1021	0	0	0	
3	0	0	0	0	490	487	1021	0	0	0	
4	0	0	0	0	480	479	1021	0	0	0	
5	0	0	0	0	466	470	1021	0	0	0	
6	0	0	0	0	451	459	1021	0	0	0	
7	0	0	0	0	434	446	1021	0	0	0	
8	0	0	0	0	417	433	1021	0	0	0	
9	0	0	0	0	399	419	1021	0	0	0	
10	0	0	0	0	381	404	1021	0	0	0	
11	0	0	0	0	363	388	1021	0	0	0	
12	0	0	0	0	345	371	1021	0	0	0	
13	0	0	0	0	327	353	1021	0	0	0	
14	0	0	0	0	308	334	1021	0	0	0	
15	0	0	0	0	291	314	1021	0	0	0	
0	0	0	0	0	275	294	1021	0	0	0	
1	0	0	0	0	259	275	1021	0	0	0	
2	0	0	0	0	248	260	1021	0	0	0	
3	0	0	0	0	239	248	1021	0	0	0	
4	0	0	0	0	236	241	1021	0	0	0	
5	0	0	0	0	236	238	1021	0	0	0	
6	0	0	0	0	242	241	1021	0	0	0	
7	0	0	0	0	252	249	1021	0	0	0	
8	0	0	0	0	266	262	1021	0	0	0	
9	0	0	0	0	284	279	1021	0	0	0	
10	0	0	0	0	305	300	1021	0	0	0	
11	0	0	0	0	328	322	1021	0	0	0	
12	0	0	0	0	352	346	1021	0	0	0	
13	0	0	0	0	377	371	1021	0	0	0	
14	0	0	0	0	402	395	1021	0	0	0	
15	0	0	0	0	425	417	1021	0	0	0	
0	0	0	0	0	447	437	1021	0	0	0	
1	0	0	0	0	466	455	1021	0	0	0	
2	0	0	0	0	482	470	1021	0	0	0	
3	0	0	0	0	495	481	1021	0	0	0	
4	0	0	0	0	504	489	1021	0	0	0	
5	0	0	0	0	510	495	1021	0	0	0	
6	0	0	0	0	512	498	1021	0	0	0	
7	0	0	0	0	514	500	1021	0	0	0	
8	0	0	0	0	513	502	1021	0	0	0	
9	0	0	0	0	513	504	1021	0	0	0	
10	0	0	0	0	513	507	1021	0	0	0	
11	0	0	0	0	514	510	1021	0	0	0	
12	0	0	0	0	515	514	1021	0	0	0	
13	0	0	0	0	518	519	1021	0	0	0	
14	0	0	0	0	520	524	1021	0	0	0	
15	0	0	0	0	523	528	1021	0	0	0	
0	0	0	0	0	525	531	1021	0	0	0	
1	0	0	0	0	527	534	1021	0	0	0	
2	0	0	0	0	529	535	1021	0	0	0	
3	0	0	0	0	529	535	1021	0	0	0	
4	0	0	0	0	528	532	1021	0	0	0	
5	0	0	0	0	526	528	1021	0	0	0	
6	0	0	0	0	523	524	1021	0	0	0	
7	0	0	0	0	519	518	1021	0	0	0	
8	0	0	0	0	516	512	1021	0	0	0	
9	0	0	0	0	512	507	1021	0	0	0	
10	0	0	0	0	509	503	1021	0	0	0	
11	0	0	0	0	506	499	1021	0	0	0	
12	0	0	0	0	504	497	1021	0	0	0	
13	0	0	0	0	504	497	1021	0	0	0	
14	0	0	0	0	504	499	1021	0	0	0	
15	0	0	0	0	507	504	1021	0	0	0	
0	0	0	0	0	512	510	1021	0	0	0	
1	0	0	0	0	519	519	1021	0	0	0	
2	0	0	0	0	526	529	1021	0	0	0	
3	0	0	0	0	535	539	1021	0	0	0	
4	0	0	0	0	543	549	1021	0	0	0	
5	0	0	0	0	551	558	1021	0	0	0	
6	0	0	0	0	558	565	1021	0	0	0	
7	0	0	0	0	562	570	1021	0	0	0	
8	0	0	0	0	565	573	1021	0	0	0	
9	0	0	0	0	566	573	1021	0	0	0	
10	0	0	0	0	564	570	1021	0	0	0	
11	0	0	0	0	560	563	1021	0	0	0	
12	0	0	0	0	553	554	1021	0	0	0	
13	0	0	0	0	543	542	1021	0	0	0	
14	0	0	0	0	531	529	1021	0	0	0	
15	0	0	0	0	519	516	1021	0	0	0	
0	0	0	0	0	508	503	1021	0	0	0	
1	0	0	0	0	497	493	1021	0	0	0	
2	0	0	0	0	489	485	1021	0	0	0	
3	0	0	0	0	484	481	1021	0	0	0	
4	0	0	0	0	482	481	1021	0	0	0	
5	0	0	0	0	483	484	1021	0	0	0	
6	0	0	0	0	487	490	1021	0	0	0	
7	0	0	0	0	494	497	1021	0	0	0	
8	0	0	0	0	501	505	1021	0	0	0	
9	0	0	0	0	509	514	1021	0	0	0	
10	0	0	0	0	516	522	1021	0	0	0	
11	0	0	0	0	524	529	1021	0	0	0	
12	0	0	0	0	529	534	1021	0	0	0	
13	0	0	0	0	534	537	1021	0	0	0	
14	0	0	0	0	538	540	1021	0	0	0	
15	0	0	0	0	542	543	1021	0	0	0	
0	0	0	0	0	547	545	1021	0	0	0	
1	0	0	0	0	552	549	1021	0	0	0	
2	0	0	0	0	558	552	1021	0	0	0	
3	0	0	0	0	562	556	1021	0	0	0	
4	0	0	0	0	566	557	1021	0	0	0	
5	0	0	0	0	566	557	1021	0	0	0	
6	0	0	0	0	564	556	1021	0	0	0	
7	0	0	0	0	559	552	1021	0	0	0	
8	0	0	0	0	552	547	1021	0	0	0	
9	0	0	0	0	543	541	1021	0	0	0	
10	0	0	0	0	532	534	1021	0	0	0	
11	0	0	0	0	520	526	1021	0	0	0	
12	0	0	0	0	509	519	1021	0	0	0	
13	0	0	0	0	499	512	1021	0	0	0	
14	0	0	0	0	491	505	1021	0	0	0	
15	0	0	0	0	484	500	1021	0	0	0	
0	0	0	0	0	479	496	1021	0	0	0	
1	0	0	0	0	477	493	1021	0	0	0	
2	0	0	0	0	478	491	1021	0	0	0	
3	0	0	0	0	480	491	1021	0	0	0	
4	0	0	0	0	484	492	1021	0	0	0	
5	0	0	0	0	491	495	1021	0	0	0	
6	0	0	0	0	499	499	1021	0	0	0	
7	0	0	0	0	507	504	1021	0	0	0	
8	0	0	0	0	516	510	1021	0	0	0	
9	0	0	0	0	524	516	1021	0	0	0	
10	0	0	0	0	531	523	1021	0	0	0	
11	0	0	0	0	536	528	1021	0	0	0	
12	0	0	0	0	540	534	1021	0	0	0	
13	0	0	0	0	542	537	1021	0	0	0	
14	0	0	0	0	542	541	1021	0	0	0	
15	0	0	0	0	541	543	1021	0	0	0	
0	0	0	0	0	537	544	1021	0	0	0	
1	0	0	0	0	533	543	1021	0	0	0	
2	0	0	0	0	528	542	1021	0	0	0	
3	0	0	0	0	523	539	1021	0	0	0	
4	0	0	0	0	516	535	1021	0	0	0	
5	0	0	0	0	509	527	1021	0	0	0	
6	0	0	0	0	502	520	1021	0	0	0	
7	0	0	0	0	496	512	1021	0	0	0	
8	0	0	0	0	490	504	1021	0	0	0	
9	0	0	0	0	485	497	1021	0	0	0	
10	0	0	0	0	483	491	1021	0	0	0	
11	0	0	0	0	482	487	1021	0	0	0	
12	0	0	0	0	484	486	1021	0	0	0	
13	0	0	0	0	487	487	1021	0	0	0	
14	0	0	0	0	493	489	1021	0	0	0	
15	0	0	0	0	499	493	1021	0	0	0	
0	0	0	0	0	507	500	1021	0	0	0	
1	0	0	0	0	515	508	1021	0	0	0	
2	0	0	0	0	524	515	1021	0	0	0	
3	0	0	0	0	532	523	1021	0	0	0	
4	0	0	0	0	539	530	1021	0	0	0	
5	0	0	0	0	544	537	1021	0	0	0	
6	0	0	0	0	548	542	1021	0	0	0	
7	0	0	0	0	551	545	1021	0	0	0	
8	0	0	0	0	551	545	1021	0	0	0	
9	0	0	0	0	548	542	1021	0	0	0	
10	0	0	0	0	543	537	1021	0	0	0	
11	0	0	0	0	536	530	1021	0	0	0	
12	0	0	0	0	527	521	1021	0	0	0	
13	0	0	0	0	518	512	1021	0	0	0	
14	0	0	0	0	510	503	1021	0	0	0	
15	0	0	0	0	503	496	1021	0	0	0	
0	0	0	0	0	497	490	1021	0	0	0	
1	0	0	0	0	493	487	1021	0	0	0	
2	0	0	0	0	491	486	1021	0	0	0	
3	0	0	0	0	489	485	1021	0	0	0	
4	0	0	0	0	489	486	1021	0	0	0	
5	0	0	0	0	489	487	1021	0	0	0	
6	0	0	0	0	489	489	1021	0	0	0	
7	0	0	0	0	489	490	1021	0	0	0	
8	0	0	0	0	488	491	1021	0	0	0	
9	0	0	0	0	488	492	1021	0	0	0	
10	0	0	0	0	488	492	1021	0	0	0	
11	0	0	0	0	488	492	1021	0	0	0	
12	0	0	0	0	488	492	1021	0	0	0	
13	0	0	0	0	489	491	1021	0	0	0	
14	0	0	0	0	492	491	1021	0	0	0	
15	0	0	0	0	494	490	1021	0	0	0	
0	0	0	0	0	497	491	1021	0	0	0	
1	0	0	0	0	503	492	1021	0	0	0	
2	0	0	0	0	508	495	1021	0	0	0	
3	0	0	0	0	515	499	1021	0	0	0	
4	0	0	0	0	523	504	1021	0	0	0	
5	0	0	0	0	531	510	1021	0	0	0	
6	0	0	0	0	539	517	1021	0	0	0	
7	0	0	0	0	547	525	1021	0	0	0	
8	0	0	0	0	555	534	1021	0	0	0	
9	0	0	0	0	561	541	1021	0	0	0	
10	0	0	0	0	566	548	1021	0	0	0	
11	0	0	0	0	569	554	1021	0	0	0	
12	0	0	0	0	571	558	1021	0	0	0	
13	0	0	0	0	571	560	1021	0	0	0	
14	0	0	0	0	568	560	1021	0	0	0	
15	0	0	0	0	564	559	1021	0	0	0	
0	0	0	0	0	559	555	1021	0	0	0	
1	0	0	0	0	552	548	1021	0	0	0	
2	0	0	0	0	545	542	1021	0	0	0	
3	0	0	0	0	537	533	1021	0	0	0	
4	0	0	0	0	529	524	1021	0	0	0	
5	0	0	0	0	520	515	1021	0	0	0	
6	0	0	0	0	512	506	1021	0	0	0	
7	0	0	0	0	504	498	1021	0	0	0	
8	0	0	0	0	497	490	1021	0	0	0	
9	0	0	0	0	490	483	1021	0	0	0	
10	0	0	0	0	484	478	1021	0	0	0	
11	0	0	0	0	479	473	1021	0	0	0	
12	0	0	0	0	475	471	1021	0	0	0	
13	0	0	0	0	472	470	1021	0	0	0	
14	0	0	0	0	471	470	1021	0	0	0	
15	0	0	0	0	472	472	1021	0	0	0	
0	0	0	0	0	474	476	1021	0	0	0	
1	0	0	0	0	479	479	1021	0	0	0	
2	0	0	0	0	484	483	1021	0	0	0	
3	0	0	0	0	490	488	1021	0	0	0	
4	0	0	0	0	497	493	1021	0	0	0	
5	0	0	0	0	504	498	1021	0	0	0	
6	0	0	0	0	512	502	1021	0	0	0	
7	0	0	0	0	520	507	1021	0	0	0	
8	0	0	0	0	527	511	1021	0	0	0	
9	0	0	0	0	534	515	1021	0	0	0	
10	0	0	0	0	540	519	1021	0	0	0	
11	0	0	0	0	545	524	1021	0	0	0	
12	0	0	0	0	549	527	1021	0	0	0	
13	0	0	0	0	552	531	1021	0	0	0	
14	0	0	0	0	555	536	1021	0	0	0	
15	0	0	0	0	558	541	1021	0	0	0	
0	0	0	0	0	560	545	1021	0	0	0	
1	0	0	0	0	561	550	1021	0	0	0	
2	0	0	0	0	561	554	1021	0	0	0	
3	0	0	0	0	560	556	1021	0	0	0	
4	0	0	0	0	556	556	1021	0	0	0	
5	0	0	0	0	549	552	1021	0	0	0	
6	0	0	0	0	540	545	1021	0	0	0	
7	0	0	0	0	529	536	1021	0	0	0	
8	0	0	0	0	518	526	1021	0	0	0	
9	0	0	0	0	506	515	1021	0	0	0	
10	0	0	0	0	496	504	1021	0	0	0	
11	0	0	0	0	488	494	1021	0	0	0	
12	0	0	0	0	481	484	1021	0	0	0	
13	0	0	0	0	477	476	1021	0	0	0	
14	0	0	0	0	475	471	1021	0	0	0	
15	0	0	0	0	475	467	1021	0	0	0	
0	0	0	0	0	478	466	1021	0	0	0	
1	0	0	0	0	483	468	1021	0	0	0	
2	0	0	0	0	491	473	1021	0	0	0	
3	0	0	0	0	499	480	1021	0	0	0	
4	0	0	0	0	508	488	1021	0	0	0	
5	0	0	0	0	518	498	1021	0	0	0	
6	0	0	0	0	527	508	1021	0	0	0	
7	0	0	0	0	536	519	1021	0	0	0	
8	0	0	0	0	541	527	1021	0	0	0	
9	0	0	0	0	546	534	1021	0	0	0	
10	0	0	0	0	548	538	1021	0	0	0	
11	0	0	0	0	547	540	1021	0	0	0	
12	0	0	0	0	545	539	1021	0	0	0	
13	0	0	0	0	540	536	1021	0	0	0	
14	0	0	0	0	534	531	1021	0	0	0	
15	0	0	0	0	527	523	1021	0	0	0	
0	0	0	0	0	519	515	1021	0	0	0	
1	0	0	0	0	510	505	1021	0	0	0	
2	0	0	0	0	502	496	1021	0	0	0	
3	0	0	0	0	496	488	1021	0	0	0	
4	0	0	0	0	491	482	1021	0	0	0	
5	0	0	0	0	488	478	1021	0	0	0	
6	0	0	0	0	488	476	1021	0	0	0	
7	0	0	0	0	489	477	1021	0	0	0	
8	0	0	0	0	491	478	1021	0	0	0	
9	0	0	0	0	493	480	1021	0	0	0	
10	0	0	0	0	496	483	1021	0	0	0	
11	0	0	0	0	497	485	1021	0	0	0	
12	0	0	0	0	498	487	1021	0	0	0	
13	0	0	0	0	499	488	1021	0	0	0	
14	0	0	0	0	498	488	1021	0	0	0	
15	0	0	0	0	498	488	1021	0	0	0	
0	0	0	0	0	497	487	1021	0	0	0	
1	0	0	0	0	497	487	1021	0	0	0	
2	0	0	0	0	498	487	1021	0	0	0	
3	0	0	0	0	501	488	1021	0	0	0	
4	0	0	0	0	504	491	1021	0	0	0	
5	0	0	0	0	509	493	1021	0	0	0	
6	0	0	0	0	514	496	1021	0	0	0	
7	0	0	0	0	519	499	1021	0	0	0	
8	0	0	0	0	524	503	1021	0	0	0	
9	0	0	0	0	527	506	1021	0	0	0	
10	0	0	0	0	530	509	1021	0	0	0	
11	0	0	0	0	532	512	1021	0	0	0	
12	0	0	0	0	534	514	1021	0	0	0	
13	0	0	0	0	534	516	1021	0	0	0	
14	0	0	0	0	532	516	1021	0	0	0	
15	0	0	0	0	529	516	1021	0	0	0	
0	0	0	0	0	526	515	1021	0	0	0	
1	0	0	0	0	521	513	1021	0	0	0	
2	0	0	0	0	515	509	1021	0	0	0	
3	0	0	0	0	510	505	1021	0	0	0	
4	0	0	0	0	505	501	1021	0	0	0	
5	0	0	0	0	500	497	1021	0	0	0	
6	0	0	0	0	497	494	1021	0	0	0	
7	0	0	0	0	495	490	1021	0	0	0	
8	0	0	0	0	493	487	1021	0	0	0	
9	0	0	0	0	492	485	1020	0	0	0	
10	0	0	0	0	492	483	1021	0	0	0	
11	0	0	0	0	493	482	1021	0	0	0	
12	0	0	0	0	495	483	1021	0	0	0	
13	0	0	0	0	497	484	1021	0	0	0	
14	0	0	0	0	500	486	1021	0	0	0	
15	0	0	0	0	502	488	1021	0	0	0	
0	0	0	0	0	504	491	1021	0	0	0	
1	0	0	0	0	504	492	1021	0	0	0	
2	0	0	0	0	504	493	1021	0	0	0	
3	0	0	0	0	503	494	1021	0	0	0	
4	0	0	0	0	501	493	1021	0	0	0	
5	0	0	0	0	500	494	1021	0	0	0	
6	0	0	0	0	499	494	1021	0	0	0	
7	0	0	0	0	500	495	1021	0	0	0	
8	0	0	0	0	502	496	1021	0	0	0	
9	0	0	0	0	505	498	1021	0	0	0	
10	0	0	0	0	509	501	1021	0	0	0	
11	0	0	0	0	513	504	1021	0	0	0	
12	0	0	0	0	518	507	1021	0	0	0	
13	0	0	0	0	522	508	1021	0	0	0	
14	0	0	0	0	524	510	1021	0	0	0	
15	0	0	0	0	526	509	1021	0	0	0	
0	0	0	0	0	526	509	1021	0	0	0	
1	0	0	0	0	526	508	1021	0	0	0	
2	0	0	0	0	526	509	1021	0	0	0	
3	0	0	0	0	526	511	1021	0	0	0	
4	0	0	0	0	528	516	1021	0	0	0	
5	0	0	0	0	531	521	1021	0	0	0	
6	0	0	0	0	535	526	1021	0	0	0	
7	0	0	0	0	539	532	1021	0	0	0	
8	0	0	0	0	542	536	1021	0	0	0	
9	0	0	0	0	546	539	1021	0	0	0	
10	0	0	0	0	546	540	1021	0	0	0	
11	0	0	0	0	544	536	1021	0	0	0	
12	0	0	0	0	539	529	1021	0	0	0	
13	0	0	0	0	530	519	1021	0	0	0	
14	0	0	0	0	519	507	1021	0	0	0	
15	0	0	0	0	506	492	1021	0	0	0	
0	0	0	0	0	492	478	1021	0	0	0	
1	0	0	0	0	479	464	1021	0	0	0	
2	0	0	0	0	467	452	1021	0	0	0	
3	0	0	0	0	457	442	1021	0	0	0	
4	0	0	0	0	451	436	1021	0	0	0	
5	0	0	0	0	448	433	1021	0	0	0	
6	0	0	0	0	449	435	1021	0	0	0	
7	0	0	0	0	455	441	1021	0	0	0	
8	0	0	0	0	464	451	1021	0	0	0	
9	0	0	0	0	476	463	1021	0	0	0	
10	0	0	0	0	491	477	1021	0	0	0	
11	0	0	0	0	507	492	1021	0	0	0	
12	0	0	0	0	522	505	1021	0	0	0	
13	0	0	0	0	536	518	1021	0	0	0	
14	0	0	0	0	548	527	1021	0	0	0	
15	0	0	0	0	556	533	1021	0	0	0	
0	0	0	0	0	559	535	1021	0	0	0	
1	0	0	0	0	559	533	1021	0	0	0	
2	0	0	0	0	554	527	1021	0	0	0	
3	0	0	0	0	544	518	1021	0	0	0	
4	0	0	0	0	532	507	1021	0	0	0	
5	0	0	0	0	518	494	1021	0	0	0	
6	0	0	0	0	502	480	1021	0	0	0	
7	0	0	0	0	487	468	1021	0	0	0	
8	0	0	0	0	473	457	1021	0	0	0	
9	0	0	0	0	463	450	1021	0	0	0	
10	0	0	0	0	455	446	1020	0	0	0	
11	0	0	0	0	451	445	1021	0	0	0	
12	0	0	0	0	451	448	1021	0	0	0	
13	0	0	0	0	454	453	1021	0	0	0	
14	0	0	0	0	460	460	1021	0	0	0	
15	0	0	0	0	468	470	1021	0	0	0	
0	0	0	0	0	479	479	1021	0	0	0	
1	0	0	0	0	490	489	1021	0	0	0	
2	0	0	0	0	502	499	1021	0	0	0	
3	0	0	0	0	513	507	1021	0	0	0	
4	0	0	0	0	523	513	1021	0	0	0	
5	0	0	0	0	531	517	1021	0	0	0	
6	0	0	0	0	537	519	1021	0	0	0	
7	0	0	0	0	540	519	1021	0	0	0	
8	0	0	0	0	541	517	1021	0	0	0	
9	0	0	0	0	539	513	1021	0	0	0	
10	0	0	0	0	535	508	1021	0	0	0	
11	0	0	0	0	530	504	1021	0	0	0	
12	0	0	0	0	525	500	1021	0	0	0	
13	0	0	0	0	520	497	1021	0	0	0	
14	0	0	0	0	516	497	1021	0	0	0	
15	0	0	0	0	513	498	1021	0	0	0	
0	0	0	0	0	513	501	1021	0	0	0	
1	0	0	0	0	513	505	1021	0	0	0	
2	0	0	0	0	516	511	1021	0	0	0	
3	0	0	0	0	519	516	1021	0	0	0	
4	0	0	0	0	521	520	1021	0	0	0	
5	0	0	0	0	523	524	1021	0	0	0	
6	0	0	0	0	524	525	1021	0	0	0	
7	0	0	0	0	523	524	1021	0	0	0	
8	0	0	0	0	521	521	1021	0	0	0	
9	0	0	0	0	518	516	1021	0	0	0	
10	0	0	0	0	514	512	1021	0	0	0	
11	0	0	0	0	511	507	1021	0	0	0	
12	0	0	0	0	507	502	1021	0	0	0	
13	0	0	0	0	504	497	1021	0	0	0	
14	0	0	0	0	502	494	1021	0	0	0	
15	0	0	0	0	501	492	1021	0	0	0	
0	0	0	0	0	503	492	1021	0	0	0	
1	0	0	0	0	505	494	1021	0	0	0	
2	0	0	0	0	508	497	1021	0	0	0	
3	0	0	0	0	511	499	1021	0	0	0	
4	0	0	0	0	515	503	1021	0	0	0	
5	0	0	0	0	516	505	1021	0	0	0	
6	0	0	0	0	517	506	1021	0	0	0	
7	0	0	0	0	515	505	1021	0	0	0	
8	0	0	0	0	511	502	1021	0	0	0	
9	0	0	0	0	506	498	1021	0	0	0	
10	0	0	0	0	500	493	1021	0	0	0	
11	0	0	0	0	492	486	1021	0	0	0	
12	0	0	0	0	485	480	1021	0	0	0	
13	0	0	0	0	479	473	1021	0	0	0	
14	0	0	0	0	475	468	1021	0	0	0	
15	0	0	0	0	472	465	1021	0	0	0	
0	0	0	0	0	473	463	1021	0	0	0	
1	0	0	0	0	476	465	1021	0	0	0	
2	0	0	0	0	481	467	1021	0	0	0	
3	0	0	0	0	488	472	1021	0	0	0	
4	0	0	0	0	497	479	1021	0	0	0	
5	0	0	0	0	505	487	1021	0	0	0	
6	0	0	0	0	514	496	1021	0	0	0	
7	0	0	0	0	522	505	1021	0	0	0	
8	0	0	0	0	530	515	1021	0	0	0	
9	0	0	0	0	536	523	1021	0	0	0	
10	0	0	0	0	541	531	1021	0	0	0	
11	0	0	0	0	543	536	1021	0	0	0	
12	0	0	0	0	543	538	1021	0	0	0	
13	0	0	0	0	541	537	1021	0	0	0	
14	0	0	0	0	535	534	1021	0	0	0	
15	0	0	0	0	527	526	1021	0	0	0	
0	0	0	0	0	516	516	1021	0	0	0	
1	0	0	0	0	505	504	1021	0	0	0	
2	0	0	0	0	494	492	1021	0	0	0	
3	0	0	0	0	483	481	1021	0	0	0	
4	0	0	0	0	474	470	1021	0	0	0	
5	0	0	0	0	467	462	1021	0	0	0	
6	0	0	0	0	463	455	1021	0	0	0	
7	0	0	0	0	462	452	1021	0	0	0	
8	0	0	0	0	463	452	1021	0	0	0	
9	0	0	0	0	468	455	1021	0	0	0	
10	0	0	0	0	475	461	1021	0	0	0	
11	0	0	0	0	483	468	1021	0	0	0	
12	0	0	0	0	492	477	1021	0	0	0	
13	0	0	0	0	501	485	1021	0	0	0	
14	0	0	0	0	508	493	1021	0	0	0	
15	0	0	0	0	515	499	1021	0	0	0	
0	0	0	0	0	519	504	1021	0	0	0	
1	0	0	0	0	521	508	1021	0	0	0	
2	0	0	0	0	521	509	1021	0	0	0	
3	0	0	0	0	520	509	1021	0	0	0	
4	0	0	0	0	519	508	1021	0	0	0	
5	0	0	0	0	516	505	1021	0	0	0	
6	0	0	0	0	514	504	1021	0	0	0	
7	0	0	0	0	513	503	1021	0	0	0	
8	0	0	0	0	512	501	1021	0	0	0	
9	0	0	0	0	512	501	1020	0	0	0	
10	0	0	0	0	514	500	1021	0	0	0	
11	0	0	0	0	515	500	1021	0	0	0	
12	0	0	0	0	516	500	1021	0	0	0	
13	0	0	0	0	517	500	1021	0	0	0	
14	0	0	0	0	518	499	1021	0	0	0	
15	0	0	0	0	517	499	1021	0	0	0	
0	0	0	0	0	516	498	1021	0	0	0	
1	0	0	0	0	515	498	1021	0	0	0	
2	0	0	0	0	514	497	1021	0	0	0	
3	0	0	0	0	513	498	1021	0	0	0	
4	0	0	0	0	512	498	1021	0	0	0	
5	0	0	0	0	511	499	1021	0	0	0	
6	0	0	0	0	510	500	1021	0	0	0	
7	0	0	0	0	509	500	1021	0	0	0	
8	0	0	0	0	508	499	1021	0	0	0	
9	0	0	0	0	506	497	1021	0	0	0	
10	0	0	0	0	503	494	1021	0	0	0	
11	0	0	0	0	500	491	1021	0	0	0	
12	0	0	0	0	497	487	1021	0	0	0	
13	0	0	0	0	495	484	1021	0	0	0	
14	0	0	0	0	494	482	1021	0	0	0	
15	0	0	0	0	495	482	1021	0	0	0	
0	0	0	0	0	497	484	1021	0	0	0	
1	0	0	0	0	502	488	1021	0	0	0	
2	0	0	0	0	509	496	1021	0	0	0	
3	0	0	0	0	518	505	1021	0	0	0	
4	0	0	0	0	529	516	1021	0	0	0	
5	0	0	0	0	539	527	1021	0	0	0	
6	0	0	0	0	548	537	1021	0	0	0	
7	0	0	0	0	555	546	1021	0	0	0	
8	0	0	0	0	558	551	1021	0	0	0	
9	0	0	0	0	558	552	1021	0	0	0	
10	0	0	0	0	552	549	1021	0	0	0	
11	0	0	0	0	543	542	1021	0	0	0	
12	0	0	0	0	531	531	1021	0	0	0	
13	0	0	0	0	516	517	1021	0	0	0	
14	0	0	0	0	500	501	1021	0	0	0	
15	0	0	0	0	483	484	1021	0	0	0	
0	0	0	0	0	467	469	1021	0	0	0	
1	0	0	0	0	454	454	1021	0	0	0	
2	0	0	0	0	443	442	1021	0	0	0	
3	0	0	0	0	436	434	1021	0	0	0	
4	0	0	0	0	434	430	1021	0	0	0	
5	0	0	0	0	435	429	1021	0	0	0	
6	0	0	0	0	440	432	1021	0	0	0	
7	0	0	0	0	448	438	1021	0	0	0	
8	0	0	0	0	459	447	1021	0	0	0	
9	0	0	0	0	471	459	1021	0	0	0	
10	0	0	0	0	484	472	1021	0	0	0	
11	0	0	0	0	498	486	1021	0	0	0	
12	0	0	0	0	512	500	1021	0	0	0	
13	0	0	0	0	525	514	1021	0	0	0	
14	0	0	0	0	538	528	1021	0	0	0	
15	0	0	0	0	550	540	1021	0	0	0	
0	0	0	0	0	560	550	1021	0	0	0	
1	0	0	0	0	567	556	1021	0	0	0	
2	0	0	0	0	569	558	1021	0	0	0	
3	0	0	0	0	568	556	1021	0	0	0	
4	0	0	0	0	563	549	1021	0	0	0	
5	0	0	0	0	554	538	1021	0	0	0	
6	0	0	0	0	542	525	1021	0	0	0	
7	0	0	0	0	527	511	1021	0	0	0	
8	0	0	0	0	512	496	1021	0	0	0	
9	0	0	0	0	497	483	1021	0	0	0	
10	0	0	0	0	483	471	1021	0	0	0	
11	0	0	0	0	471	461	1021	0	0	0	
12	0	0	0	0	460	454	1021	0	0	0	
13	0	0	0	0	452	449	1021	0	0	0	
14	0	0	0	0	447	446	1021	0	0	0	
15	0	0	0	0	444	445	1021	0	0	0	
0	0	0	0	0	444	446	1021	0	0	0	
1	0	0	0	0	447	449	1021	0	0	0	
2	0	0	0	0	451	454	1021	0	0	0	
3	0	0	0	0	458	459	1021	0	0	0	
4	0	0	0	0	465	463	1021	0	0	0	
5	0	0	0	0	473	468	1021	0	0	0	
6	0	0	0	0	482	473	1021	0	0	0	
7	0	0	0	0	491	478	1021	0	0	0	
8	0	0	0	0	500	482	1021	0	0	0	
9	0	0	0	0	508	486	1021	0	0	0	
10	0	0	0	0	514	489	1021	0	0	0	
11	0	0	0	0	519	492	1021	0	0	0	
12	0	0	0	0	524	495	1021	0	0	0	
13	0	0	0	0	527	498	1021	0	0	0	
14	0	0	0	0	530	501	1021	0	0	0	
15	0	0	0	0	531	505	1021	0	0	0	
0	0	0	0	0	533	509	1021	0	0	0	
1	0	0	0	0	534	513	1021	0	0	0	
2	0	0	0	0	534	517	1021	0	0	0	
3	0	0	0	0	533	520	1021	0	0	0	
4	0	0	0	0	532	523	1021	0	0	0	
5	0	0	0	0	531	525	1021	0	0	0	
6	0	0	0	0	529	526	1021	0	0	0	
7	0	0	0	0	527	526	1021	0	0	0	
8	0	0	0	0	524	523	1021	0	0	0	
9	0	0	0	0	521	520	1021	0	0	0	
10	0	0	0	0	519	517	1021	0	0	0	
11	0	0	0	0	516	513	1021	0	0	0	
12	0	0	0	0	514	509	1021	0	0	0	
13	0	0	0	0	512	505	1021	0	0	0	
14	0	0	0	0	510	502	1021	0	0	0	
15	0	0	0	0	509	497	1021	0	0	0	
0	0	0	0	0	507	494	1021	0	0	0	
1	0	0	0	0	503	490	1021	0	0	0	
2	0	0	0	0	499	487	1021	0	0	0	
3	0	0	0	0	495	483	1021	0	0	0	
4	0	0	0	0	491	480	1021	0	0	0	
5	0	0	0	0	487	479	1021	0	0	0	
6	0	0	0	0	484	477	1021	0	0	0	
7	0	0	0	0	482	477	1020	0	0	0	
8	0	0	0	0	483	479	1021	0	0	0	
9	0	0	0	0	486	481	1021	0	0	0	
10	0	0	0	0	491	486	1021	0	0	0	
11	0	0	0	0	498	491	1021	0	0	0	
12	0	0	0	0	507	497	1021	0	0	0	
13	0	0	0	0	517	504	1021	0	0	0	
14	0	0	0	0	528	511	1021	0	0	0	
15	0	0	0	0	538	518	1021	0	0	0	
0	0	0	0	0	547	523	1021	0	0	0	
1	0	0	0	0	554	526	1021	0	0	0	
2	0	0	0	0	557	527	1021	0	0	0	
3	0	0	0	0	557	527	1021	0	0	0	
4	0	0	0	0	553	523	1021	0	0	0	
5	0	0	0	0	546	518	1021	0	0	0	
6	0	0	0	0	536	512	1021	0	0	0	
7	0	0	0	0	526	505	1021	0	0	0	
8	0	0	0	0	515	500	1021	0	0	0	
9	0	0	0	0	507	497	1021	0	0	0	
10	0	0	0	0	501	497	1021	0	0	0	
11	0	0	0	0	498	499	1021	0	0	0	
12	0	0	0	0	497	502	1021	0	0	0	
13	0	0	0	0	500	507	1021	0	0	0	
14	0	0	0	0	504	512	1021	0	0	0	
15	0	0	0	0	509	516	1021	0	0	0	
0	0	0	0	0	514	519	1021	0	0	0	
1	0	0	0	0	517	520	1021	0	0	0	
2	0	0	0	0	519	518	1021	0	0	0	
3	0	0	0	0	517	513	1021	0	0	0	
4	0	0	0	0	512	505	1021	0	0	0	
5	0	0	0	0	504	495	1021	0	0	0	
6	0	0	0	0	492	482	1021	0	0	0	
7	0	0	0	0	478	468	1021	0	0	0	
8	0	0	0	0	462	452	1021	0	0	0	
9	0	0	0	0	444	436	1021	0	0	0	
10	0	0	0	0	425	419	1021	0	0	0	
11	0	0	0	0	405	404	1021	0	0	0	
12	0	0	0	0	387	390	1021	0	0	0	
