# OpenSignals Text File Format. Version 1
# {"": {"position": 0, "device": "", "device name": "", "device connection": "", "sampling rate": 1000, "resolution": [4, 1, 1, 1, 1, 10, 10, 10, 10, 6, 6], "firmware version": 1281, "comments": "", "keywords": "", "mode": 0, "sync interval": 2, "date": "", "time": "", "channels": [1, 2, 3, 4, 5, 6], "sensor": ["RAW", "RAW", "RAW", "RAW", "RAW", "RAW"], "label": ["A1", "A2", "A3", "A4", "A5", "A6"], "column": ["nSeq", "I1", "I2", "O1", "O2", "A1", "A2", "A3", "A4", "A5", "A6"], "special": [{}, {}, {}, {}, {}, {}], "digital IO": [0, 0, 1, 1]}}
# EndOfHeader
0	0	0	0	0	833	1021	0	0	0	0	
1	0	0	0	0	826	1021	0	0	0	0	
2	0	0	0	0	817	1021	0	0	0	0	
3	0	0	0	0	808	1021	0	0	0	0	
4	0	0	0	0	799	1022	0	0	0	0	
5	0	0	0	0	790	1021	0	0	0	0	
6	0	0	0	0	782	1021	0	0	0	0	
7	0	0	0	0	776	1021	0	0	0	0	
8	0	0	0	0	771	1021	0	0	0	0	
9	0	0	0	0	769	1021	0	0	0	0	
10	0	0	0	0	768	1021	0	0	0	0	
11	0	0	0	0	769	1021	0	0	0	0	
12	0	0	0	0	771	1021	0	0	0	0	
13	0	0	0	0	776	1021	0	0	0	0	
14	0	0	0	0	781	1021	0	0	0	0	
15	0	0	0	0	785	1021	0	0	0	0	
0	0	0	0	0	791	1021	0	0	0	0	
1	0	0	0	0	795	1021	0	0	0	0	
2	0	0	0	0	799	1021	0	0	0	0	
3	0	0	0	0	801	1022	0	0	0	0	
4	0	0	0	0	801	1021	0	0	0	0	
5	0	0	0	0	799	1021	0	0	0	0	
6	0	0	0	0	795	1021	0	0	0	0	
7	0	0	0	0	787	1022	0	0	0	0	
8	0	0	0	0	779	1021	0	0	0	0	
9	0	0	0	0	767	1021	0	0	0	0	
10	0	0	0	0	755	1021	0	0	0	0	
11	0	0	0	0	743	1021	0	0	0	0	
12	0	0	0	0	733	1021	0	0	0	0	
13	0	0	0	0	724	1021	0	0	0	0	
14	0	0	0	0	719	1021	0	0	0	0	
15	0	0	0	0	717	1021	0	0	0	0	
0	0	0	0	0	718	1021	0	0	0	0	
1	0	0	0	0	722	1021	0	0	0	0	
2	0	0	0	0	728	1021	0	0	0	0	
3	0	0	0	0	734	1021	0	0	0	0	
4	0	0	0	0	742	1021	0	0	0	0	
5	0	0	0	0	750	1021	0	0	0	0	
6	0	0	0	0	757	1021	0	0	0	0	
7	0	0	0	0	762	1021	0	0	0	0	
8	0	0	0	0	766	1021	0	0	0	0	
9	0	0	0	0	766	1021	0	0	0	0	
10	0	0	0	0	765	1021	0	0	0	0	
11	0	0	0	0	760	1021	0	0	0	0	
12	0	0	0	0	755	1022	0	0	0	0	
13	0	0	0	0	751	1021	0	0	0	0	
14	0	0	0	0	748	1021	0	0	0	0	
15	0	0	0	0	748	1021	0	0	0	0	
0	0	0	0	0	750	1021	0	0	0	0	
1	0	0	0	0	755	1022	0	0	0	0	
2	0	0	0	0	763	1021	0	0	0	0	
3	0	0	0	0	771	1021	0	0	0	0	
4	0	0	0	0	779	1021	0	0	0	0	
5	0	0	0	0	786	1021	0	0	0	0	
6	0	0	0	0	792	1022	0	0	0	0	
7	0	0	0	0	796	1021	0	0	0	0	
8	0	0	0	0	797	1021	0	0	0	0	
9	0	0	0	0	796	1021	0	0	0	0	
10	0	0	0	0	793	1021	0	0	0	0	
11	0	0	0	0	788	1022	0	0	0	0	
12	0	0	0	0	782	1021	0	0	0	0	
13	0	0	0	0	775	1021	0	0	0	0	
14	0	0	0	0	768	1021	0	0	0	0	
15	0	0	0	0	760	1021	0	0	0	0	
0	0	0	0	0	753	1022	0	0	0	0	
1	0	0	0	0	745	1021	0	0	0	0	
2	0	0	0	0	738	1021	0	0	0	0	
3	0	0	0	0	732	1021	0	0	0	0	
4	0	0	0	0	725	1021	0	0	0	0	
5	0	0	0	0	718	1022	0	0	0	0	
6	0	0	0	0	712	1021	0	0	0	0	
7	0	0	0	0	706	1021	0	0	0	0	
8	0	0	0	0	700	1021	0	0	0	0	
9	0	0	0	0	695	1021	0	0	0	0	
10	0	0	0	0	690	1022	0	0	0	0	
11	0	0	0	0	686	1021	0	0	0	0	
12	0	0	0	0	683	1021	0	0	0	0	
13	0	0	0	0	681	1021	0	0	0	0	
14	0	0	0	0	679	1021	0	0	0	0	
15	0	0	0	0	679	1021	0	0	0	0	
0	0	0	0	0	682	1021	0	0	0	0	
1	0	0	0	0	686	1021	0	0	0	0	
2	0	0	0	0	692	1021	0	0	0	0	
3	0	0	0	0	700	1021	0	0	0	0	
4	0	0	0	0	709	1021	0	0	0	0	
5	0	0	0	0	719	1021	0	0	0	0	
6	0	0	0	0	728	1021	0	0	0	0	
7	0	0	0	0	735	1021	0	0	0	0	
8	0	0	0	0	741	1021	0	0	0	0	
9	0	0	0	0	743	1021	0	0	0	0	
10	0	0	0	0	743	1021	0	0	0	0	
11	0	0	0	0	740	1021	0	0	0	0	
12	0	0	0	0	734	1021	0	0	0	0	
13	0	0	0	0	728	1021	0	0	0	0	
14	0	0	0	0	719	1021	0	0	0	0	
15	0	0	0	0	711	1021	0	0	0	0	
0	0	0	0	0	703	1021	0	0	0	0	
1	0	0	0	0	695	1021	0	0	0	0	
2	0	0	0	0	686	1021	0	0	0	0	
3	0	0	0	0	678	1021	0	0	0	0	
4	0	0	0	0	671	1021	0	0	0	0	
5	0	0	0	0	663	1021	0	0	0	0	
6	0	0	0	0	655	1021	0	0	0	0	
7	0	0	0	0	648	1021	0	0	0	0	
8	0	0	0	0	641	1021	0	0	0	0	
9	0	0	0	0	633	1021	0	0	0	0	
10	0	0	0	0	624	1021	0	0	0	0	
11	0	0	0	0	615	1021	0	0	0	0	
12	0	0	0	0	603	1021	0	0	0	0	
13	0	0	0	0	590	1021	0	0	0	0	
14	0	0	0	0	576	1021	0	0	0	0	
15	0	0	0	0	560	1021	0	0	0	0	
0	0	0	0	0	544	1021	0	0	0	0	
1	0	0	0	0	527	1021	0	0	0	0	
2	0	0	0	0	510	1021	0	0	0	0	
3	0	0	0	0	495	1021	0	0	0	0	
4	0	0	0	0	482	1021	0	0	0	0	
5	0	0	0	0	473	1021	0	0	0	0	
6	0	0	0	0	470	1021	0	0	0	0	
7	0	0	0	0	472	1021	0	0	0	0	
8	0	0	0	0	481	1021	0	0	0	0	
9	0	0	0	0	496	1021	0	0	0	0	
10	0	0	0	0	515	1021	0	0	0	0	
11	0	0	0	0	539	1021	0	0	0	0	
12	0	0	0	0	563	1021	0	0	0	0	
13	0	0	0	0	586	1021	0	0	0	0	
14	0	0	0	0	608	1021	0	0	0	0	
15	0	0	0	0	625	1021	0	0	0	0	
0	0	0	0	0	638	1021	0	0	0	0	
1	0	0	0	0	648	1021	0	0	0	0	
2	0	0	0	0	655	1021	0	0	0	0	
3	0	0	0	0	660	1021	0	0	0	0	
4	0	0	0	0	664	1021	0	0	0	0	
5	0	0	0	0	670	1021	0	0	0	0	
6	0	0	0	0	676	1021	0	0	0	0	
7	0	0	0	0	684	1021	0	0	0	0	
8	0	0	0	0	695	1021	0	0	0	0	
9	0	0	0	0	708	1021	0	0	0	0	
10	0	0	0	0	723	1021	0	0	0	0	
11	0	0	0	0	739	1021	0	0	0	0	
12	0	0	0	0	755	1021	0	0	0	0	
13	0	0	0	0	769	1021	0	0	0	0	
14	0	0	0	0	781	1021	0	0	0	0	
15	0	0	0	0	791	1021	0	0	0	0	
0	0	0	0	0	797	1021	0	0	0	0	
1	0	0	0	0	799	1021	0	0	0	0	
2	0	0	0	0	797	1021	0	0	0	0	
3	0	0	0	0	791	1021	0	0	0	0	
4	0	0	0	0	783	1021	0	0	0	0	
5	0	0	0	0	772	1021	0	0	0	0	
6	0	0	0	0	763	1021	0	0	0	0	
7	0	0	0	0	752	1021	0	0	0	0	
8	0	0	0	0	743	1021	0	0	0	0	
9	0	0	0	0	737	1021	0	0	0	0	
10	0	0	0	0	732	1021	0	0	0	0	
11	0	0	0	0	732	1021	0	0	0	0	
12	0	0	0	0	735	1021	0	0	0	0	
13	0	0	0	0	742	1021	0	0	0	0	
14	0	0	0	0	752	1021	0	0	0	0	
15	0	0	0	0	765	1022	0	0	0	0	
0	0	0	0	0	781	1021	0	0	0	0	
1	0	0	0	0	798	1021	0	0	0	0	
2	0	0	0	0	814	1021	0	0	0	0	
3	0	0	0	0	829	1021	0	0	0	0	
4	0	0	0	0	840	1021	0	0	0	0	
5	0	0	0	0	846	1021	0	0	0	0	
6	0	0	0	0	845	1021	0	0	0	0	
7	0	0	0	0	835	1021	0	0	0	0	
8	0	0	0	0	816	1022	0	0	0	0	
9	0	0	0	0	787	1022	0	0	0	0	
10	0	0	0	0	751	1021	0	0	0	0	
11	0	0	0	0	709	1021	0	0	0	0	
12	0	0	0	0	664	1021	0	0	0	0	
13	0	0	0	0	622	1021	0	0	0	0	
14	0	0	0	0	585	1021	0	0	0	0	
15	0	0	0	0	559	1021	0	0	0	0	
0	0	0	0	0	545	1021	0	0	0	0	
1	0	0	0	0	546	1021	0	0	0	0	
2	0	0	0	0	562	1021	0	0	0	0	
3	0	0	0	0	592	1021	0	0	0	0	
4	0	0	0	0	635	1021	0	0	0	0	
5	0	0	0	0	684	1021	0	0	0	0	
6	0	0	0	0	737	1021	0	0	0	0	
7	0	0	0	0	789	1021	0	0	0	0	
8	0	0	0	0	837	1021	0	0	0	0	
9	0	0	0	0	877	1021	0	0	0	0	
10	0	0	0	0	907	1022	0	0	0	0	
11	0	0	0	0	926	1021	0	0	0	0	
12	0	0	0	0	933	1021	0	0	0	0	
13	0	0	0	0	927	1021	0	0	0	0	
14	0	0	0	0	911	1021	0	0	0	0	
15	0	0	0	0	885	1021	0	0	0	0	
0	0	0	0	0	853	1021	0	0	0	0	
1	0	0	0	0	817	1021	0	0	0	0	
2	0	0	0	0	780	1021	0	0	0	0	
3	0	0	0	0	743	1021	0	0	0	0	
4	0	0	0	0	711	1021	0	0	0	0	
5	0	0	0	0	682	1021	0	0	0	0	
6	0	0	0	0	660	1021	0	0	0	0	
7	0	0	0	0	644	1021	0	0	0	0	
8	0	0	0	0	636	1021	0	0	0	0	
9	0	0	0	0	635	1021	0	0	0	0	
10	0	0	0	0	639	1021	0	0	0	0	
11	0	0	0	0	649	1021	0	0	0	0	
12	0	0	0	0	662	1021	0	0	0	0	
13	0	0	0	0	676	1021	0	0	0	0	
14	0	0	0	0	691	1021	0	0	0	0	
15	0	0	0	0	704	1021	0	0	0	0	
0	0	0	0	0	715	1021	0	0	0	0	
1	0	0	0	0	721	1022	0	0	0	0	
2	0	0	0	0	725	1021	0	0	0	0	
3	0	0	0	0	725	1021	0	0	0	0	
4	0	0	0	0	720	1021	0	0	0	0	
5	0	0	0	0	713	1021	0	0	0	0	
6	0	0	0	0	704	1021	0	0	0	0	
7	0	0	0	0	693	1021	0	0	0	0	
8	0	0	0	0	680	1021	0	0	0	0	
9	0	0	0	0	668	1021	0	0	0	0	
10	0	0	0	0	656	1022	0	0	0	0	
11	0	0	0	0	645	1021	0	0	0	0	
12	0	0	0	0	636	1021	0	0	0	0	
13	0	0	0	0	628	1021	0	0	0	0	
14	0	0	0	0	623	1021	0	0	0	0	
15	0	0	0	0	621	1021	0	0	0	0	
0	0	0	0	0	622	1021	0	0	0	0	
1	0	0	0	0	626	1021	0	0	0	0	
2	0	0	0	0	633	1021	0	0	0	0	
3	0	0	0	0	644	1021	0	0	0	0	
4	0	0	0	0	658	1021	0	0	0	0	
5	0	0	0	0	673	1021	0	0	0	0	
6	0	0	0	0	691	1021	0	0	0	0	
7	0	0	0	0	707	1021	0	0	0	0	
8	0	0	0	0	724	1021	0	0	0	0	
9	0	0	0	0	740	1021	0	0	0	0	
10	0	0	0	0	753	1021	0	0	0	0	
11	0	0	0	0	763	1021	0	0	0	0	
12	0	0	0	0	771	1021	0	0	0	0	
13	0	0	0	0	774	1021	0	0	0	0	
14	0	0	0	0	775	1021	0	0	0	0	
15	0	0	0	0	772	1021	0	0	0	0	
0	0	0	0	0	767	1021	0	0	0	0	
1	0	0	0	0	760	1021	0	0	0	0	
2	0	0	0	0	751	1021	0	0	0	0	
3	0	0	0	0	743	1022	0	0	0	0	
4	0	0	0	0	734	1021	0	0	0	0	
5	0	0	0	0	726	1021	0	0	0	0	
6	0	0	0	0	719	1021	0	0	0	0	
7	0	0	0	0	714	1021	0	0	0	0	
8	0	0	0	0	710	1022	0	0	0	0	
9	0	0	0	0	706	1021	0	0	0	0	
10	0	0	0	0	704	1021	0	0	0	0	
11	0	0	0	0	702	1021	0	0	0	0	
12	0	0	0	0	700	1021	0	0	0	0	
13	0	0	0	0	698	1021	0	0	0	0	
14	0	0	0	0	696	1021	0	0	0	0	
15	0	0	0	0	693	1021	0	0	0	0	
0	0	0	0	0	689	1021	0	0	0	0	
1	0	0	0	0	683	1021	0	0	0	0	
2	0	0	0	0	675	1021	0	0	0	0	
3	0	0	0	0	664	1021	0	0	0	0	
4	0	0	0	0	652	1021	0	0	0	0	
5	0	0	0	0	639	1021	0	0	0	0	
6	0	0	0	0	625	1021	0	0	0	0	
7	0	0	0	0	611	1021	0	0	0	0	
8	0	0	0	0	597	1021	0	0	0	0	
9	0	0	0	0	585	1021	0	0	0	0	
10	0	0	0	0	575	1021	0	0	0	0	
11	0	0	0	0	566	1021	0	0	0	0	
12	0	0	0	0	560	1021	0	0	0	0	
13	0	0	0	0	558	1021	0	0	0	0	
14	0	0	0	0	560	1021	0	0	0	0	
15	0	0	0	0	568	1021	0	0	0	0	
0	0	0	0	0	581	1021	0	0	0	0	
1	0	0	0	0	600	1021	0	0	0	0	
2	0	0	0	0	623	1021	0	0	0	0	
3	0	0	0	0	651	1021	0	0	0	0	
4	0	0	0	0	683	1021	0	0	0	0	
5	0	0	0	0	716	1021	0	0	0	0	
6	0	0	0	0	749	1021	0	0	0	0	
7	0	0	0	0	780	1021	0	0	0	0	
8	0	0	0	0	806	1021	0	0	0	0	
9	0	0	0	0	825	1021	0	0	0	0	
10	0	0	0	0	836	1021	0	0	0	0	
11	0	0	0	0	838	1021	0	0	0	0	
12	0	0	0	0	831	1021	0	0	0	0	
13	0	0	0	0	816	1021	0	0	0	0	
14	0	0	0	0	794	1021	0	0	0	0	
15	0	0	0	0	767	1021	0	0	0	0	
0	0	0	0	0	737	1021	0	0	0	0	
1	0	0	0	0	707	1021	0	0	0	0	
2	0	0	0	0	677	1021	0	0	0	0	
3	0	0	0	0	651	1021	0	0	0	0	
4	0	0	0	0	628	1021	0	0	0	0	
5	0	0	0	0	612	1021	0	0	0	0	
6	0	0	0	0	601	1021	0	0	0	0	
7	0	0	0	0	598	1021	0	0	0	0	
8	0	0	0	0	600	1022	0	0	0	0	
9	0	0	0	0	606	1021	0	0	0	0	
10	0	0	0	0	617	1021	0	0	0	0	
11	0	0	0	0	630	1021	0	0	0	0	
12	0	0	0	0	643	1021	0	0	0	0	
13	0	0	0	0	657	1021	0	0	0	0	
14	0	0	0	0	670	1021	0	0	0	0	
15	0	0	0	0	680	1021	0	0	0	0	
0	0	0	0	0	689	1021	0	0	0	0	
1	0	0	0	0	695	1021	0	0	0	0	
2	0	0	0	0	699	1021	0	0	0	0	
3	0	0	0	0	700	1021	0	0	0	0	
4	0	0	0	0	699	1021	0	0	0	0	
5	0	0	0	0	694	1021	0	0	0	0	
6	0	0	0	0	687	1021	0	0	0	0	
7	0	0	0	0	678	1021	0	0	0	0	
8	0	0	0	0	668	1021	0	0	0	0	
9	0	0	0	0	656	1021	0	0	0	0	
10	0	0	0	0	644	1021	0	0	0	0	
11	0	0	0	0	633	1021	0	0	0	0	
12	0	0	0	0	622	1021	0	0	0	0	
13	0	0	0	0	612	1021	0	0	0	0	
14	0	0	0	0	604	1021	0	0	0	0	
15	0	0	0	0	599	1021	0	0	0	0	
0	0	0	0	0	595	1021	0	0	0	0	
1	0	0	0	0	595	1021	0	0	0	0	
2	0	0	0	0	599	1021	0	0	0	0	
3	0	0	0	0	607	1021	0	0	0	0	
4	0	0	0	0	619	1021	0	0	0	0	
5	0	0	0	0	633	1021	0	0	0	0	
6	0	0	0	0	650	1021	0	0	0	0	
7	0	0	0	0	668	1021	0	0	0	0	
8	0	0	0	0	687	1021	0	0	0	0	
9	0	0	0	0	705	1021	0	0	0	0	
10	0	0	0	0	721	1021	0	0	0	0	
11	0	0	0	0	734	1021	0	0	0	0	
12	0	0	0	0	743	1021	0	0	0	0	
13	0	0	0	0	748	1021	0	0	0	0	
14	0	0	0	0	749	1022	0	0	0	0	
15	0	0	0	0	748	1021	0	0	0	0	
0	0	0	0	0	745	1022	0	0	0	0	
1	0	0	0	0	740	1021	0	0	0	0	
2	0	0	0	0	735	1021	0	0	0	0	
3	0	0	0	0	728	1022	0	0	0	0	
4	0	0	0	0	723	1021	0	0	0	0	
5	0	0	0	0	716	1021	0	0	0	0	
6	0	0	0	0	711	1021	0	0	0	0	
7	0	0	0	0	705	1021	0	0	0	0	
8	0	0	0	0	699	1022	0	0	0	0	
9	0	0	0	0	693	1021	0	0	0	0	
10	0	0	0	0	687	1021	0	0	0	0	
11	0	0	0	0	681	1021	0	0	0	0	
12	0	0	0	0	676	1021	0	0	0	0	
13	0	0	0	0	672	1022	0	0	0	0	
14	0	0	0	0	669	1021	0	0	0	0	
15	0	0	0	0	667	1021	0	0	0	0	
0	0	0	0	0	667	1021	0	0	0	0	
1	0	0	0	0	667	1021	0	0	0	0	
2	0	0	0	0	667	1022	0	0	0	0	
3	0	0	0	0	667	1021	0	0	0	0	
4	0	0	0	0	666	1021	0	0	0	0	
5	0	0	0	0	662	1021	0	0	0	0	
6	0	0	0	0	655	1021	0	0	0	0	
7	0	0	0	0	645	1021	0	0	0	0	
8	0	0	0	0	633	1021	0	0	0	0	
9	0	0	0	0	620	1021	0	0	0	0	
10	0	0	0	0	609	1021	0	0	0	0	
11	0	0	0	0	601	1021	0	0	0	0	
12	0	0	0	0	598	1021	0	0	0	0	
13	0	0	0	0	601	1021	0	0	0	0	
14	0	0	0	0	610	1021	0	0	0	0	
15	0	0	0	0	625	1021	0	0	0	0	
0	0	0	0	0	643	1021	0	0	0	0	
1	0	0	0	0	663	1021	0	0	0	0	
2	0	0	0	0	683	1021	0	0	0	0	
3	0	0	0	0	702	1021	0	0	0	0	
4	0	0	0	0	717	1021	0	0	0	0	
5	0	0	0	0	729	1021	0	0	0	0	
6	0	0	0	0	736	1021	0	0	0	0	
7	0	0	0	0	739	1021	0	0	0	0	
8	0	0	0	0	737	1021	0	0	0	0	
9	0	0	0	0	732	1021	0	0	0	0	
10	0	0	0	0	722	1021	0	0	0	0	
11	0	0	0	0	711	1022	0	0	0	0	
12	0	0	0	0	700	1021	0	0	0	0	
13	0	0	0	0	688	1021	0	0	0	0	
14	0	0	0	0	678	1021	0	0	0	0	
15	0	0	0	0	670	1021	0	0	0	0	
0	0	0	0	0	664	1021	0	0	0	0	
1	0	0	0	0	659	1021	0	0	0	0	
2	0	0	0	0	658	1021	0	0	0	0	
3	0	0	0	0	659	1021	0	0	0	0	
4	0	0	0	0	662	1021	0	0	0	0	
5	0	0	0	0	665	1021	0	0	0	0	
6	0	0	0	0	670	1021	0	0	0	0	
7	0	0	0	0	674	1021	0	0	0	0	
8	0	0	0	0	677	1021	0	0	0	0	
9	0	0	0	0	678	1021	0	0	0	0	
10	0	0	0	0	678	1021	0	0	0	0	
11	0	0	0	0	674	1021	0	0	0	0	
12	0	0	0	0	668	1021	0	0	0	0	
13	0	0	0	0	658	1021	0	0	0	0	
14	0	0	0	0	647	1021	0	0	0	0	
15	0	0	0	0	634	1021	0	0	0	0	
0	0	0	0	0	620	1021	0	0	0	0	
1	0	0	0	0	607	1021	0	0	0	0	
2	0	0	0	0	598	1021	0	0	0	0	
3	0	0	0	0	594	1021	0	0	0	0	
4	0	0	0	0	596	1021	0	0	0	0	
5	0	0	0	0	606	1021	0	0	0	0	
6	0	0	0	0	624	1021	0	0	0	0	
7	0	0	0	0	647	1021	0	0	0	0	
8	0	0	0	0	676	1021	0	0	0	0	
9	0	0	0	0	706	1022	0	0	0	0	
10	0	0	0	0	737	1021	0	0	0	0	
11	0	0	0	0	767	1021	0	0	0	0	
12	0	0	0	0	793	1021	0	0	0	0	
13	0	0	0	0	814	1021	0	0	0	0	
14	0	0	0	0	828	1022	0	0	0	0	
15	0	0	0	0	836	1021	0	0	0	0	
0	0	0	0	0	836	1021	0	0	0	0	
1	0	0	0	0	830	1021	0	0	0	0	
2	0	0	0	0	818	1021	0	0	0	0	
3	0	0	0	0	803	1022	0	0	0	0	
4	0	0	0	0	786	1021	0	0	0	0	
5	0	0	0	0	768	1021	0	0	0	0	
6	0	0	0	0	751	1021	0	0	0	0	
7	0	0	0	0	735	1021	0	0	0	0	
8	0	0	0	0	721	1021	0	0	0	0	
9	0	0	0	0	709	1021	0	0	0	0	
10	0	0	0	0	699	1021	0	0	0	0	
11	0	0	0	0	690	1021	0	0	0	0	
12	0	0	0	0	683	1021	0	0	0	0	
13	0	0	0	0	676	1021	0	0	0	0	
14	0	0	0	0	671	1021	0	0	0	0	
15	0	0	0	0	666	1021	0	0	0	0	
0	0	0	0	0	661	1021	0	0	0	0	
1	0	0	0	0	656	1021	0	0	0	0	
2	0	0	0	0	651	1022	0	0	0	0	
3	0	0	0	0	646	1021	0	0	0	0	
4	0	0	0	0	640	1021	0	0	0	0	
5	0	0	0	0	635	1021	0	0	0	0	
6	0	0	0	0	629	1021	0	0	0	0	
7	0	0	0	0	623	1021	0	0	0	0	
8	0	0	0	0	618	1021	0	0	0	0	
9	0	0	0	0	612	1021	0	0	0	0	
10	0	0	0	0	608	1021	0	0	0	0	
11	0	0	0	0	605	1021	0	0	0	0	
12	0	0	0	0	604	1021	0	0	0	0	
13	0	0	0	0	605	1021	0	0	0	0	
14	0	0	0	0	609	1022	0	0	0	0	
15	0	0	0	0	616	1021	0	0	0	0	
0	0	0	0	0	626	1021	0	0	0	0	
1	0	0	0	0	637	1021	0	0	0	0	
2	0	0	0	0	650	1021	0	0	0	0	
3	0	0	0	0	663	1021	0	0	0	0	
4	0	0	0	0	676	1021	0	0	0	0	
5	0	0	0	0	688	1021	0	0	0	0	
6	0	0	0	0	699	1022	0	0	0	0	
7	0	0	0	0	708	1021	0	0	0	0	
8	0	0	0	0	716	1021	0	0	0	0	
9	0	0	0	0	722	1021	0	0	0	0	
10	0	0	0	0	726	1021	0	0	0	0	
11	0	0	0	0	727	1021	0	0	0	0	
12	0	0	0	0	726	1021	0	0	0	0	
13	0	0	0	0	722	1021	0	0	0	0	
14	0	0	0	0	716	1021	0	0	0	0	
15	0	0	0	0	709	1021	0	0	0	0	
0	0	0	0	0	700	1021	0	0	0	0	
1	0	0	0	0	690	1021	0	0	0	0	
2	0	0	0	0	680	1021	0	0	0	0	
3	0	0	0	0	671	1021	0	0	0	0	
4	0	0	0	0	662	1021	0	0	0	0	
5	0	0	0	0	655	1021	0	0	0	0	
6	0	0	0	0	651	1021	0	0	0	0	
7	0	0	0	0	648	1021	0	0	0	0	
8	0	0	0	0	647	1021	0	0	0	0	
9	0	0	0	0	648	1021	0	0	0	0	
10	0	0	0	0	650	1021	0	0	0	0	
11	0	0	0	0	651	1021	0	0	0	0	
12	0	0	0	0	652	1021	0	0	0	0	
13	0	0	0	0	650	1021	0	0	0	0	
14	0	0	0	0	647	1021	0	0	0	0	
15	0	0	0	0	640	1021	0	0	0	0	
0	0	0	0	0	632	1021	0	0	0	0	
1	0	0	0	0	620	1021	0	0	0	0	
2	0	0	0	0	608	1021	0	0	0	0	
3	0	0	0	0	596	1021	0	0	0	0	
4	0	0	0	0	584	1021	0	0	0	0	
5	0	0	0	0	575	1021	0	0	0	0	
6	0	0	0	0	568	1021	0	0	0	0	
7	0	0	0	0	565	1021	0	0	0	0	
8	0	0	0	0	568	1021	0	0	0	0	
9	0	0	0	0	575	1021	0	0	0	0	
10	0	0	0	0	587	1021	0	0	0	0	
11	0	0	0	0	603	1021	0	0	0	0	
12	0	0	0	0	622	1021	0	0	0	0	
13	0	0	0	0	641	1021	0	0	0	0	
14	0	0	0	0	660	1021	0	0	0	0	
15	0	0	0	0	679	1021	0	0	0	0	
0	0	0	0	0	695	1021	0	0	0	0	
1	0	0	0	0	707	1021	0	0	0	0	
2	0	0	0	0	716	1022	0	0	0	0	
3	0	0	0	0	721	1022	0	0	0	0	
4	0	0	0	0	723	1021	0	0	0	0	
5	0	0	0	0	721	1021	0	0	0	0	
6	0	0	0	0	717	1021	0	0	0	0	
7	0	0	0	0	711	1021	0	0	0	0	
8	0	0	0	0	705	1021	0	0	0	0	
9	0	0	0	0	699	1021	0	0	0	0	
10	0	0	0	0	694	1021	0	0	0	0	
11	0	0	0	0	688	1021	0	0	0	0	
12	0	0	0	0	682	1022	0	0	0	0	
13	0	0	0	0	676	1021	0	0	0	0	
14	0	0	0	0	670	1021	0	0	0	0	
15	0	0	0	0	664	1021	0	0	0	0	
0	0	0	0	0	659	1021	0	0	0	0	
1	0	0	0	0	653	1022	0	0	0	0	
2	0	0	0	0	649	1021	0	0	0	0	
3	0	0	0	0	645	1021	0	0	0	0	
4	0	0	0	0	642	1021	0	0	0	0	
5	0	0	0	0	639	1021	0	0	0	0	
6	0	0	0	0	639	1021	0	0	0	0	
7	0	0	0	0	639	1021	0	0	0	0	
8	0	0	0	0	639	1021	0	0	0	0	
9	0	0	0	0	643	1021	0	0	0	0	
10	0	0	0	0	647	1021	0	0	0	0	
11	0	0	0	0	652	1021	0	0	0	0	
12	0	0	0	0	657	1021	0	0	0	0	
13	0	0	0	0	661	1021	0	0	0	0	
14	0	0	0	0	664	1021	0	0	0	0	
15	0	0	0	0	664	1021	0	0	0	0	
0	0	0	0	0	660	1021	0	0	0	0	
1	0	0	0	0	653	1021	0	0	0	0	
2	0	0	0	0	643	1021	0	0	0	0	
3	0	0	0	0	630	1021	0	0	0	0	
4	0	0	0	0	615	1021	0	0	0	0	
5	0	0	0	0	600	1021	0	0	0	0	
6	0	0	0	0	587	1021	0	0	0	0	
7	0	0	0	0	575	1021	0	0	0	0	
8	0	0	0	0	568	1021	0	0	0	0	
9	0	0	0	0	566	1021	0	0	0	0	
10	0	0	0	0	569	1021	0	0	0	0	
11	0	0	0	0	578	1021	0	0	0	0	
12	0	0	0	0	592	1021	0	0	0	0	
13	0	0	0	0	609	1021	0	0	0	0	
14	0	0	0	0	628	1021	0	0	0	0	
15	0	0	0	0	648	1021	0	0	0	0	
0	0	0	0	0	668	1021	0	0	0	0	
1	0	0	0	0	686	1021	0	0	0	0	
2	0	0	0	0	700	1021	0	0	0	0	
3	0	0	0	0	710	1021	0	0	0	0	
4	0	0	0	0	717	1021	0	0	0	0	
5	0	0	0	0	719	1021	0	0	0	0	
6	0	0	0	0	718	1021	0	0	0	0	
7	0	0	0	0	712	1021	0	0	0	0	
8	0	0	0	0	705	1021	0	0	0	0	
9	0	0	0	0	697	1021	0	0	0	0	
10	0	0	0	0	689	1021	0	0	0	0	
11	0	0	0	0	682	1021	0	0	0	0	
12	0	0	0	0	677	1021	0	0	0	0	
13	0	0	0	0	674	1021	0	0	0	0	
14	0	0	0	0	672	1021	0	0	0	0	
15	0	0	0	0	672	1021	0	0	0	0	
0	0	0	0	0	673	1021	0	0	0	0	
1	0	0	0	0	673	1021	0	0	0	0	
2	0	0	0	0	673	1021	0	0	0	0	
3	0	0	0	0	672	1021	0	0	0	0	
4	0	0	0	0	668	1021	0	0	0	0	
5	0	0	0	0	663	1021	0	0	0	0	
6	0	0	0	0	655	1021	0	0	0	0	
7	0	0	0	0	645	1021	0	0	0	0	
8	0	0	0	0	634	1021	0	0	0	0	
9	0	0	0	0	622	1021	0	0	0	0	
10	0	0	0	0	610	1021	0	0	0	0	
11	0	0	0	0	600	1021	0	0	0	0	
12	0	0	0	0	592	1021	0	0	0	0	
13	0	0	0	0	587	1021	0	0	0	0	
14	0	0	0	0	586	1021	0	0	0	0	
15	0	0	0	0	591	1021	0	0	0	0	
0	0	0	0	0	601	1021	0	0	0	0	
1	0	0	0	0	616	1021	0	0	0	0	
2	0	0	0	0	635	1021	0	0	0	0	
3	0	0	0	0	657	1022	0	0	0	0	
4	0	0	0	0	681	1021	0	0	0	0	
5	0	0	0	0	704	1021	0	0	0	0	
6	0	0	0	0	724	1021	0	0	0	0	
7	0	0	0	0	742	1021	0	0	0	0	
8	0	0	0	0	754	1021	0	0	0	0	
9	0	0	0	0	761	1021	0	0	0	0	
10	0	0	0	0	763	1021	0	0	0	0	
11	0	0	0	0	759	1021	0	0	0	0	
12	0	0	0	0	750	1022	0	0	0	0	
13	0	0	0	0	737	1021	0	0	0	0	
14	0	0	0	0	722	1021	0	0	0	0	
15	0	0	0	0	706	1021	0	0	0	0	
0	0	0	0	0	690	1021	0	0	0	0	
1	0	0	0	0	676	1021	0	0	0	0	
2	0	0	0	0	664	1021	0	0	0	0	
3	0	0	0	0	656	1021	0	0	0	0	
4	0	0	0	0	651	1021	0	0	0	0	
5	0	0	0	0	650	1021	0	0	0	0	
6	0	0	0	0	653	1021	0	0	0	0	
7	0	0	0	0	659	1021	0	0	0	0	
8	0	0	0	0	668	1021	0	0	0	0	
9	0	0	0	0	679	1021	0	0	0	0	
10	0	0	0	0	691	1021	0	0	0	0	
11	0	0	0	0	703	1021	0	0	0	0	
12	0	0	0	0	715	1021	0	0	0	0	
13	0	0	0	0	727	1021	0	0	0	0	
14	0	0	0	0	736	1021	0	0	0	0	
15	0	0	0	0	742	1021	0	0	0	0	
0	0	0	0	0	743	1021	0	0	0	0	
1	0	0	0	0	739	1021	0	0	0	0	
2	0	0	0	0	730	1021	0	0	0	0	
3	0	0	0	0	716	1021	0	0	0	0	
4	0	0	0	0	697	1021	0	0	0	0	
5	0	0	0	0	675	1021	0	0	0	0	
6	0	0	0	0	652	1021	0	0	0	0	
7	0	0	0	0	627	1021	0	0	0	0	
8	0	0	0	0	604	1021	0	0	0	0	
9	0	0	0	0	585	1021	0	0	0	0	
10	0	0	0	0	571	1021	0	0	0	0	
11	0	0	0	0	562	1021	0	0	0	0	
12	0	0	0	0	560	1021	0	0	0	0	
13	0	0	0	0	564	1021	0	0	0	0	
14	0	0	0	0	574	1021	0	0	0	0	
15	0	0	0	0	590	1021	0	0	0	0	
0	0	0	0	0	608	1021	0	0	0	0	
1	0	0	0	0	629	1021	0	0	0	0	
2	0	0	0	0	649	1021	0	0	0	0	
3	0	0	0	0	668	1021	0	0	0	0	
4	0	0	0	0	685	1021	0	0	0	0	
5	0	0	0	0	697	1021	0	0	0	0	
6	0	0	0	0	705	1021	0	0	0	0	
7	0	0	0	0	708	1021	0	0	0	0	
8	0	0	0	0	707	1021	0	0	0	0	
9	0	0	0	0	701	1021	0	0	0	0	
10	0	0	0	0	692	1021	0	0	0	0	
11	0	0	0	0	681	1021	0	0	0	0	
12	0	0	0	0	668	1021	0	0	0	0	
13	0	0	0	0	655	1021	0	0	0	0	
14	0	0	0	0	641	1021	0	0	0	0	
15	0	0	0	0	627	1021	0	0	0	0	
0	0	0	0	0	614	1021	0	0	0	0	
1	0	0	0	0	601	1021	0	0	0	0	
2	0	0	0	0	591	1021	0	0	0	0	
3	0	0	0	0	582	1022	0	0	0	0	
4	0	0	0	0	576	1021	0	0	0	0	
5	0	0	0	0	573	1021	0	0	0	0	
6	0	0	0	0	574	1021	0	0	0	0	
7	0	0	0	0	580	1021	0	0	0	0	
8	0	0	0	0	592	1021	0	0	0	0	
9	0	0	0	0	609	1021	0	0	0	0	
10	0	0	0	0	632	1021	0	0	0	0	
11	0	0	0	0	656	1021	0	0	0	0	
12	0	0	0	0	682	1021	0	0	0	0	
13	0	0	0	0	707	1021	0	0	0	0	
14	0	0	0	0	729	1021	0	0	0	0	
15	0	0	0	0	748	1021	0	0	0	0	
0	0	0	0	0	763	1021	0	0	0	0	
1	0	0	0	0	771	1021	0	0	0	0	
2	0	0	0	0	775	1022	0	0	0	0	
3	0	0	0	0	773	1021	0	0	0	0	
4	0	0	0	0	767	1021	0	0	0	0	
5	0	0	0	0	758	1021	0	0	0	0	
6	0	0	0	0	747	1021	0	0	0	0	
7	0	0	0	0	735	1021	0	0	0	0	
8	0	0	0	0	724	1021	0	0	0	0	
9	0	0	0	0	714	1021	0	0	0	0	
10	0	0	0	0	705	1021	0	0	0	0	
11	0	0	0	0	699	1021	0	0	0	0	
12	0	0	0	0	695	1021	0	0	0	0	
13	0	0	0	0	691	1021	0	0	0	0	
14	0	0	0	0	688	1021	0	0	0	0	
15	0	0	0	0	686	1021	0	0	0	0	
0	0	0	0	0	684	1021	0	0	0	0	
1	0	0	0	0	681	1021	0	0	0	0	
2	0	0	0	0	679	1021	0	0	0	0	
3	0	0	0	0	676	1021	0	0	0	0	
4	0	0	0	0	674	1021	0	0	0	0	
5	0	0	0	0	671	1021	0	0	0	0	
6	0	0	0	0	668	1021	0	0	0	0	
7	0	0	0	0	665	1021	0	0	0	0	
8	0	0	0	0	662	1021	0	0	0	0	
9	0	0	0	0	657	1021	0	0	0	0	
10	0	0	0	0	653	1021	0	0	0	0	
11	0	0	0	0	647	1021	0	0	0	0	
12	0	0	0	0	641	1021	0	0	0	0	
13	0	0	0	0	633	1021	0	0	0	0	
14	0	0	0	0	625	1021	0	0	0	0	
15	0	0	0	0	616	1021	0	0	0	0	
0	0	0	0	0	608	1021	0	0	0	0	
1	0	0	0	0	601	1021	0	0	0	0	
2	0	0	0	0	596	1021	0	0	0	0	
3	0	0	0	0	595	1021	0	0	0	0	
4	0	0	0	0	596	1021	0	0	0	0	
5	0	0	0	0	602	1021	0	0	0	0	
6	0	0	0	0	611	1021	0	0	0	0	
7	0	0	0	0	623	1021	0	0	0	0	
8	0	0	0	0	638	1021	0	0	0	0	
9	0	0	0	0	654	1021	0	0	0	0	
10	0	0	0	0	670	1021	0	0	0	0	
11	0	0	0	0	684	1021	0	0	0	0	
12	0	0	0	0	696	1021	0	0	0	0	
13	0	0	0	0	705	1021	0	0	0	0	
14	0	0	0	0	711	1021	0	0	0	0	
15	0	0	0	0	713	1021	0	0	0	0	
0	0	0	0	0	712	1021	0	0	0	0	
1	0	0	0	0	707	1021	0	0	0	0	
2	0	0	0	0	700	1021	0	0	0	0	
3	0	0	0	0	689	1021	0	0	0	0	
4	0	0	0	0	678	1021	0	0	0	0	
5	0	0	0	0	665	1021	0	0	0	0	
6	0	0	0	0	653	1021	0	0	0	0	
7	0	0	0	0	642	1021	0	0	0	0	
8	0	0	0	0	632	1021	0	0	0	0	
9	0	0	0	0	624	1021	0	0	0	0	
10	0	0	0	0	619	1021	0	0	0	0	
11	0	0	0	0	615	1021	0	0	0	0	
12	0	0	0	0	613	1021	0	0	0	0	
13	0	0	0	0	614	1021	0	0	0	0	
14	0	0	0	0	616	1021	0	0	0	0	
15	0	0	0	0	619	1021	0	0	0	0	
0	0	0	0	0	624	1021	0	0	0	0	
1	0	0	0	0	627	1021	0	0	0	0	
2	0	0	0	0	631	1021	0	0	0	0	
3	0	0	0	0	633	1021	0	0	0	0	
4	0	0	0	0	634	1021	0	0	0	0	
5	0	0	0	0	633	1021	0	0	0	0	
6	0	0	0	0	630	1021	0	0	0	0	
7	0	0	0	0	625	1021	0	0	0	0	
8	0	0	0	0	620	1021	0	0	0	0	
9	0	0	0	0	615	1021	0	0	0	0	
10	0	0	0	0	610	1021	0	0	0	0	
11	0	0	0	0	608	1021	0	0	0	0	
12	0	0	0	0	608	1021	0	0	0	0	
13	0	0	0	0	613	1021	0	0	0	0	
14	0	0	0	0	622	1021	0	0	0	0	
15	0	0	0	0	634	1021	0	0	0	0	
0	0	0	0	0	649	1021	0	0	0	0	
1	0	0	0	0	666	1021	0	0	0	0	
2	0	0	0	0	685	1022	0	0	0	0	
3	0	0	0	0	704	1021	0	0	0	0	
4	0	0	0	0	721	1021	0	0	0	0	
5	0	0	0	0	737	1021	0	0	0	0	
6	0	0	0	0	750	1021	0	0	0	0	
7	0	0	0	0	759	1021	0	0	0	0	
8	0	0	0	0	762	1021	0	0	0	0	
9	0	0	0	0	760	1021	0	0	0	0	
10	0	0	0	0	753	1021	0	0	0	0	
11	0	0	0	0	741	1021	0	0	0	0	
12	0	0	0	0	724	1022	0	0	0	0	
13	0	0	0	0	705	1021	0	0	0	0	
14	0	0	0	0	684	1021	0	0	0	0	
15	0	0	0	0	662	1021	0	0	0	0	
0	0	0	0	0	641	1021	0	0	0	0	
1	0	0	0	0	622	1021	0	0	0	0	
2	0	0	0	0	605	1021	0	0	0	0	
3	0	0	0	0	592	1021	0	0	0	0	
4	0	0	0	0	583	1021	0	0	0	0	
5	0	0	0	0	577	1021	0	0	0	0	
6	0	0	0	0	575	1021	0	0	0	0	
7	0	0	0	0	575	1021	0	0	0	0	
8	0	0	0	0	579	1021	0	0	0	0	
9	0	0	0	0	583	1021	0	0	0	0	
10	0	0	0	0	588	1021	0	0	0	0	
11	0	0	0	0	593	1021	0	0	0	0	
12	0	0	0	0	599	1021	0	0	0	0	
13	0	0	0	0	601	1021	0	0	0	0	
14	0	0	0	0	602	1021	0	0	0	0	
15	0	0	0	0	601	1021	0	0	0	0	
0	0	0	0	0	599	1021	0	0	0	0	
1	0	0	0	0	594	1021	0	0	0	0	
2	0	0	0	0	587	1021	0	0	0	0	
3	0	0	0	0	578	1021	0	0	0	0	
4	0	0	0	0	567	1021	0	0	0	0	
5	0	0	0	0	553	1021	0	0	0	0	
6	0	0	0	0	539	1021	0	0	0	0	
7	0	0	0	0	526	1021	0	0	0	0	
8	0	0	0	0	512	1021	0	0	0	0	
9	0	0	0	0	501	1021	0	0	0	0	
10	0	0	0	0	492	1021	0	0	0	0	
11	0	0	0	0	484	1021	0	0	0	0	
12	0	0	0	0	481	1021	0	0	0	0	
13	0	0	0	0	480	1021	0	0	0	0	
14	0	0	0	0	482	1021	0	0	0	0	
15	0	0	0	0	486	1021	0	0	0	0	
0	0	0	0	0	490	1021	0	0	0	0	
1	0	0	0	0	494	1021	0	0	0	0	
2	0	0	0	0	498	1021	0	0	0	0	
3	0	0	0	0	499	1021	0	0	0	0	
4	0	0	0	0	498	1021	0	0	0	0	
5	0	0	0	0	495	1021	0	0	0	0	
6	0	0	0	0	489	1021	0	0	0	0	
7	0	0	0	0	482	1021	0	0	0	0	
8	0	0	0	0	475	1021	0	0	0	0	
9	0	0	0	0	469	1021	0	0	0	0	
10	0	0	0	0	464	1021	0	0	0	0	
11	0	0	0	0	463	1021	0	0	0	0	
12	0	0	0	0	463	1021	0	0	0	0	
13	0	0	0	0	468	1021	0	0	0	0	
14	0	0	0	0	476	1021	0	0	0	0	
15	0	0	0	0	489	1021	0	0	0	0	
0	0	0	0	0	505	1021	0	0	0	0	
1	0	0	0	0	525	1021	0	0	0	0	
2	0	0	0	0	547	1021	0	0	0	0	
3	0	0	0	0	572	1021	0	0	0	0	
4	0	0	0	0	595	1021	0	0	0	0	
5	0	0	0	0	618	1021	0	0	0	0	
6	0	0	0	0	639	1021	0	0	0	0	
7	0	0	0	0	655	1021	0	0	0	0	
8	0	0	0	0	668	1021	0	0	0	0	
9	0	0	0	0	676	1021	0	0	0	0	
10	0	0	0	0	678	1021	0	0	0	0	
11	0	0	0	0	676	1022	0	0	0	0	
12	0	0	0	0	670	1021	0	0	0	0	
13	0	0	0	0	661	1021	0	0	0	0	
14	0	0	0	0	652	1021	0	0	0	0	
15	0	0	0	0	642	1021	0	0	0	0	
0	0	0	0	0	634	1021	0	0	0	0	
1	0	0	0	0	627	1021	0	0	0	0	
2	0	0	0	0	624	1021	0	0	0	0	
3	0	0	0	0	623	1021	0	0	0	0	
4	0	0	0	0	623	1021	0	0	0	0	
5	0	0	0	0	625	1021	0	0	0	0	
6	0	0	0	0	629	1021	0	0	0	0	
7	0	0	0	0	632	1021	0	0	0	0	
8	0	0	0	0	636	1022	0	0	0	0	
9	0	0	0	0	640	1021	0	0	0	0	
10	0	0	0	0	643	1021	0	0	0	0	
11	0	0	0	0	646	1021	0	0	0	0	
12	0	0	0	0	647	1021	0	0	0	0	
13	0	0	0	0	647	1021	0	0	0	0	
14	0	0	0	0	646	1021	0	0	0	0	
15	0	0	0	0	645	1021	0	0	0	0	
0	0	0	0	0	643	1021	0	0	0	0	
1	0	0	0	0	641	1021	0	0	0	0	
2	0	0	0	0	641	1021	0	0	0	0	
3	0	0	0	0	640	1021	0	0	0	0	
4	0	0	0	0	640	1021	0	0	0	0	
5	0	0	0	0	640	1021	0	0	0	0	
6	0	0	0	0	643	1021	0	0	0	0	
7	0	0	0	0	644	1021	0	0	0	0	
8	0	0	0	0	646	1021	0	0	0	0	
9	0	0	0	0	648	1021	0	0	0	0	
10	0	0	0	0	650	1021	0	0	0	0	
11	0	0	0	0	652	1021	0	0	0	0	
12	0	0	0	0	653	1021	0	0	0	0	
13	0	0	0	0	654	1021	0	0	0	0	
14	0	0	0	0	653	1021	0	0	0	0	
15	0	0	0	0	652	1021	0	0	0	0	
0	0	0	0	0	650	1021	0	0	0	0	
1	0	0	0	0	647	1021	0	0	0	0	
2	0	0	0	0	645	1021	0	0	0	0	
3	0	0	0	0	641	1021	0	0	0	0	
4	0	0	0	0	638	1021	0	0	0	0	
5	0	0	0	0	635	1021	0	0	0	0	
6	0	0	0	0	634	1021	0	0	0	0	
7	0	0	0	0	634	1021	0	0	0	0	
8	0	0	0	0	636	1021	0	0	0	0	
9	0	0	0	0	640	1021	0	0	0	0	
10	0	0	0	0	645	1021	0	0	0	0	
11	0	0	0	0	652	1021	0	0	0	0	
12	0	0	0	0	658	1021	0	0	0	0	
13	0	0	0	0	665	1021	0	0	0	0	
14	0	0	0	0	671	1021	0	0	0	0	
15	0	0	0	0	675	1021	0	0	0	0	
0	0	0	0	0	680	1021	0	0	0	0	
1	0	0	0	0	684	1021	0	0	0	0	
2	0	0	0	0	686	1021	0	0	0	0	
3	0	0	0	0	688	1021	0	0	0	0	
4	0	0	0	0	688	1021	0	0	0	0	
5	0	0	0	0	688	1021	0	0	0	0	
6	0	0	0	0	687	1021	0	0	0	0	
7	0	0	0	0	685	1021	0	0	0	0	
8	0	0	0	0	682	1021	0	0	0	0	
9	0	0	0	0	679	1021	0	0	0	0	
10	0	0	0	0	675	1021	0	0	0	0	
11	0	0	0	0	671	1021	0	0	0	0	
12	0	0	0	0	666	1021	0	0	0	0	
13	0	0	0	0	661	1021	0	0	0	0	
14	0	0	0	0	656	1021	0	0	0	0	
15	0	0	0	0	652	1021	0	0	0	0	
0	0	0	0	0	648	1021	0	0	0	0	
1	0	0	0	0	644	1021	0	0	0	0	
2	0	0	0	0	643	1021	0	0	0	0	
3	0	0	0	0	641	1021	0	0	0	0	
4	0	0	0	0	641	1021	0	0	0	0	
5	0	0	0	0	643	1021	0	0	0	0	
6	0	0	0	0	647	1021	0	0	0	0	
7	0	0	0	0	652	1021	0	0	0	0	
8	0	0	0	0	659	1021	0	0	0	0	
9	0	0	0	0	665	1021	0	0	0	0	
10	0	0	0	0	672	1021	0	0	0	0	
11	0	0	0	0	678	1021	0	0	0	0	
12	0	0	0	0	680	1021	0	0	0	0	
13	0	0	0	0	681	1021	0	0	0	0	
14	0	0	0	0	678	1021	0	0	0	0	
15	0	0	0	0	672	1021	0	0	0	0	
0	0	0	0	0	665	1021	0	0	0	0	
1	0	0	0	0	656	1021	0	0	0	0	
2	0	0	0	0	648	1021	0	0	0	0	
3	0	0	0	0	640	1021	0	0	0	0	
4	0	0	0	0	635	1021	0	0	0	0	
5	0	0	0	0	631	1021	0	0	0	0	
6	0	0	0	0	630	1021	0	0	0	0	
7	0	0	0	0	632	1021	0	0	0	0	
8	0	0	0	0	635	1021	0	0	0	0	
9	0	0	0	0	639	1021	0	0	0	0	
10	0	0	0	0	647	1021	0	0	0	0	
11	0	0	0	0	654	1021	0	0	0	0	
12	0	0	0	0	661	1021	0	0	0	0	
13	0	0	0	0	667	1021	0	0	0	0	
14	0	0	0	0	672	1021	0	0	0	0	
15	0	0	0	0	675	1021	0	0	0	0	
0	0	0	0	0	675	1021	0	0	0	0	
1	0	0	0	0	673	1022	0	0	0	0	
2	0	0	0	0	669	1021	0	0	0	0	
3	0	0	0	0	663	1021	0	0	0	0	
4	0	0	0	0	655	1021	0	0	0	0	
5	0	0	0	0	647	1021	0	0	0	0	
6	0	0	0	0	640	1021	0	0	0	0	
7	0	0	0	0	633	1021	0	0	0	0	
8	0	0	0	0	628	1021	0	0	0	0	
9	0	0	0	0	625	1021	0	0	0	0	
10	0	0	0	0	624	1021	0	0	0	0	
11	0	0	0	0	624	1021	0	0	0	0	
12	0	0	0	0	627	1021	0	0	0	0	
13	0	0	0	0	632	1021	0	0	0	0	
14	0	0	0	0	638	1021	0	0	0	0	
15	0	0	0	0	646	1021	0	0	0	0	
0	0	0	0	0	654	1021	0	0	0	0	
1	0	0	0	0	664	1021	0	0	0	0	
2	0	0	0	0	671	1021	0	0	0	0	
3	0	0	0	0	679	1021	0	0	0	0	
4	0	0	0	0	686	1021	0	0	0	0	
5	0	0	0	0	691	1021	0	0	0	0	
6	0	0	0	0	696	1021	0	0	0	0	
7	0	0	0	0	699	1021	0	0	0	0	
8	0	0	0	0	701	1021	0	0	0	0	
9	0	0	0	0	701	1021	0	0	0	0	
10	0	0	0	0	699	1021	0	0	0	0	
11	0	0	0	0	694	1021	0	0	0	0	
12	0	0	0	0	687	1021	0	0	0	0	
13	0	0	0	0	677	1021	0	0	0	0	
14	0	0	0	0	667	1021	0	0	0	0	
15	0	0	0	0	655	1021	0	0	0	0	
0	0	0	0	0	644	1021	0	0	0	0	
1	0	0	0	0	634	1021	0	0	0	0	
2	0	0	0	0	625	1021	0	0	0	0	
3	0	0	0	0	619	1021	0	0	0	0	
4	0	0	0	0	615	1021	0	0	0	0	
5	0	0	0	0	613	1021	0	0	0	0	
6	0	0	0	0	614	1021	0	0	0	0	
7	0	0	0	0	618	1021	0	0	0	0	
8	0	0	0	0	622	1021	0	0	0	0	
9	0	0	0	0	628	1021	0	0	0	0	
10	0	0	0	0	633	1021	0	0	0	0	
11	0	0	0	0	638	1021	0	0	0	0	
12	0	0	0	0	641	1021	0	0	0	0	
13	0	0	0	0	643	1021	0	0	0	0	
14	0	0	0	0	642	1021	0	0	0	0	
15	0	0	0	0	640	1021	0	0	0	0	
0	0	0	0	0	637	1021	0	0	0	0	
1	0	0	0	0	632	1021	0	0	0	0	
2	0	0	0	0	627	1021	0	0	0	0	
3	0	0	0	0	622	1021	0	0	0	0	
4	0	0	0	0	617	1021	0	0	0	0	
5	0	0	0	0	613	1021	0	0	0	0	
6	0	0	0	0	610	1021	0	0	0	0	
7	0	0	0	0	608	1021	0	0	0	0	
8	0	0	0	0	607	1021	0	0	0	0	
9	0	0	0	0	607	1021	0	0	0	0	
10	0	0	0	0	608	1021	0	0	0	0	
11	0	0	0	0	609	1021	0	0	0	0	
12	0	0	0	0	610	1021	0	0	0	0	
13	0	0	0	0	612	1021	0	0	0	0	
14	0	0	0	0	613	1021	0	0	0	0	
15	0	0	0	0	615	1021	0	0	0	0	
0	0	0	0	0	618	1021	0	0	0	0	
1	0	0	0	0	622	1021	0	0	0	0	
2	0	0	0	0	626	1021	0	0	0	0	
3	0	0	0	0	632	1022	0	0	0	0	
4	0	0	0	0	638	1021	0	0	0	0	
5	0	0	0	0	644	1021	0	0	0	0	
6	0	0	0	0	651	1021	0	0	0	0	
7	0	0	0	0	656	1021	0	0	0	0	
8	0	0	0	0	660	1021	0	0	0	0	
9	0	0	0	0	663	1021	0	0	0	0	
10	0	0	0	0	663	1021	0	0	0	0	
11	0	0	0	0	662	1021	0	0	0	0	
12	0	0	0	0	657	1021	0	0	0	0	
13	0	0	0	0	652	1021	0	0	0	0	
14	0	0	0	0	644	1021	0	0	0	0	
15	0	0	0	0	636	1021	0	0	0	0	
0	0	0	0	0	626	1021	0	0	0	0	
1	0	0	0	0	617	1021	0	0	0	0	
2	0	0	0	0	608	1021	0	0	0	0	
3	0	0	0	0	600	1021	0	0	0	0	
4	0	0	0	0	592	1021	0	0	0	0	
5	0	0	0	0	585	1021	0	0	0	0	
6	0	0	0	0	579	1021	0	0	0	0	
7	0	0	0	0	573	1021	0	0	0	0	
8	0	0	0	0	568	1021	0	0	0	0	
9	0	0	0	0	564	1021	0	0	0	0	
10	0	0	0	0	560	1021	0	0	0	0	
11	0	0	0	0	558	1021	0	0	0	0	
12	0	0	0	0	557	1021	0	0	0	0	
13	0	0	0	0	558	1021	0	0	0	0	
14	0	0	0	0	560	1021	0	0	0	0	
15	0	0	0	0	563	1021	0	0	0	0	
0	0	0	0	0	569	1021	0	0	0	0	
1	0	0	0	0	574	1021	0	0	0	0	
2	0	0	0	0	580	1021	0	0	0	0	
3	0	0	0	0	586	1021	0	0	0	0	
4	0	0	0	0	593	1021	0	0	0	0	
5	0	0	0	0	600	1021	0	0	0	0	
6	0	0	0	0	607	1021	0	0	0	0	
7	0	0	0	0	615	1021	0	0	0	0	
8	0	0	0	0	626	1021	0	0	0	0	
9	0	0	0	0	638	1021	0	0	0	0	
10	0	0	0	0	651	1021	0	0	0	0	
11	0	0	0	0	665	1021	0	0	0	0	
12	0	0	0	0	679	1021	0	0	0	0	
13	0	0	0	0	692	1021	0	0	0	0	
14	0	0	0	0	704	1021	0	0	0	0	
15	0	0	0	0	712	1021	0	0	0	0	
0	0	0	0	0	716	1021	0	0	0	0	
1	0	0	0	0	717	1021	0	0	0	0	
2	0	0	0	0	713	1021	0	0	0	0	
3	0	0	0	0	706	1021	0	0	0	0	
4	0	0	0	0	696	1021	0	0	0	0	
5	0	0	0	0	684	1021	0	0	0	0	
6	0	0	0	0	670	1021	0	0	0	0	
7	0	0	0	0	655	1021	0	0	0	0	
8	0	0	0	0	641	1021	0	0	0	0	
9	0	0	0	0	626	1022	0	0	0	0	
10	0	0	0	0	613	1021	0	0	0	0	
11	0	0	0	0	600	1021	0	0	0	0	
12	0	0	0	0	588	1021	0	0	0	0	
13	0	0	0	0	576	1021	0	0	0	0	
14	0	0	0	0	567	1021	0	0	0	0	
15	0	0	0	0	560	1021	0	0	0	0	
0	0	0	0	0	555	1021	0	0	0	0	
1	0	0	0	0	552	1021	0	0	0	0	
2	0	0	0	0	552	1021	0	0	0	0	
3	0	0	0	0	554	1021	0	0	0	0	
4	0	0	0	0	557	1021	0	0	0	0	
5	0	0	0	0	562	1021	0	0	0	0	
6	0	0	0	0	568	1021	0	0	0	0	
7	0	0	0	0	574	1021	0	0	0	0	
8	0	0	0	0	580	1021	0	0	0	0	
9	0	0	0	0	585	1021	0	0	0	0	
10	0	0	0	0	589	1021	0	0	0	0	
11	0	0	0	0	592	1021	0	0	0	0	
12	0	0	0	0	593	1021	0	0	0	0	
13	0	0	0	0	593	1021	0	0	0	0	
14	0	0	0	0	592	1021	0	0	0	0	
15	0	0	0	0	591	1021	0	0	0	0	
0	0	0	0	0	589	1021	0	0	0	0	
1	0	0	0	0	588	1021	0	0	0	0	
2	0	0	0	0	588	1021	0	0	0	0	
3	0	0	0	0	588	1021	0	0	0	0	
4	0	0	0	0	591	1021	0	0	0	0	
5	0	0	0	0	595	1021	0	0	0	0	
6	0	0	0	0	600	1021	0	0	0	0	
7	0	0	0	0	607	1021	0	0	0	0	
8	0	0	0	0	614	1021	0	0	0	0	
9	0	0	0	0	621	1021	0	0	0	0	
10	0	0	0	0	628	1021	0	0	0	0	
11	0	0	0	0	635	1021	0	0	0	0	
12	0	0	0	0	640	1021	0	0	0	0	
13	0	0	0	0	645	1021	0	0	0	0	
14	0	0	0	0	649	1021	0	0	0	0	
15	0	0	0	0	653	1021	0	0	0	0	
0	0	0	0	0	655	1021	0	0	0	0	
1	0	0	0	0	657	1021	0	0	0	0	
2	0	0	0	0	660	1021	0	0	0	0	
3	0	0	0	0	661	1021	0	0	0	0	
4	0	0	0	0	661	1021	0	0	0	0	
5	0	0	0	0	660	1021	0	0	0	0	
6	0	0	0	0	658	1021	0	0	0	0	
7	0	0	0	0	655	1021	0	0	0	0	
8	0	0	0	0	650	1021	0	0	0	0	
9	0	0	0	0	644	1021	0	0	0	0	
10	0	0	0	0	639	1021	0	0	0	0	
11	0	0	0	0	633	1022	0	0	0	0	
12	0	0	0	0	628	1021	0	0	0	0	
13	0	0	0	0	624	1021	0	0	0	0	
14	0	0	0	0	621	1021	0	0	0	0	
15	0	0	0	0	619	1021	0	0	0	0	
0	0	0	0	0	620	1021	0	0	0	0	
1	0	0	0	0	620	1021	0	0	0	0	
2	0	0	0	0	623	1021	0	0	0	0	
3	0	0	0	0	625	1021	0	0	0	0	
4	0	0	0	0	628	1021	0	0	0	0	
5	0	0	0	0	630	1021	0	0	0	0	
6	0	0	0	0	632	1021	0	0	0	0	
7	0	0	0	0	633	1021	0	0	0	0	
8	0	0	0	0	634	1021	0	0	0	0	
9	0	0	0	0	633	1021	0	0	0	0	
10	0	0	0	0	633	1021	0	0	0	0	
11	0	0	0	0	632	1021	0	0	0	0	
12	0	0	0	0	631	1021	0	0	0	0	
13	0	0	0	0	629	1021	0	0	0	0	
14	0	0	0	0	629	1021	0	0	0	0	
15	0	0	0	0	630	1021	0	0	0	0	
0	0	0	0	0	632	1021	0	0	0	0	
1	0	0	0	0	635	1021	0	0	0	0	
2	0	0	0	0	639	1021	0	0	0	0	
3	0	0	0	0	643	1021	0	0	0	0	
4	0	0	0	0	647	1021	0	0	0	0	
5	0	0	0	0	651	1021	0	0	0	0	
6	0	0	0	0	654	1021	0	0	0	0	
7	0	0	0	0	656	1021	0	0	0	0	
8	0	0	0	0	658	1021	0	0	0	0	
9	0	0	0	0	659	1021	0	0	0	0	
10	0	0	0	0	661	1021	0	0	0	0	
11	0	0	0	0	662	1021	0	0	0	0	
12	0	0	0	0	664	1021	0	0	0	0	
13	0	0	0	0	664	1021	0	0	0	0	
14	0	0	0	0	665	1021	0	0	0	0	
15	0	0	0	0	666	1021	0	0	0	0	
0	0	0	0	0	667	1021	0	0	0	0	
1	0	0	0	0	666	1021	0	0	0	0	
2	0	0	0	0	665	1021	0	0	0	0	
3	0	0	0	0	664	1021	0	0	0	0	
4	0	0	0	0	660	1021	0	0	0	0	
5	0	0	0	0	656	1021	0	0	0	0	
6	0	0	0	0	651	1021	0	0	0	0	
7	0	0	0	0	644	1021	0	0	0	0	
8	0	0	0	0	636	1021	0	0	0	0	
9	0	0	0	0	629	1021	0	0	0	0	
10	0	0	0	0	622	1021	0	0	0	0	
11	0	0	0	0	615	1021	0	0	0	0	
12	0	0	0	0	610	1021	0	0	0	0	
13	0	0	0	0	606	1021	0	0	0	0	
14	0	0	0	0	603	1021	0	0	0	0	
15	0	0	0	0	601	1021	0	0	0	0	
0	0	0	0	0	600	1021	0	0	0	0	
1	0	0	0	0	599	1021	0	0	0	0	
2	0	0	0	0	599	1022	0	0	0	0	
3	0	0	0	0	599	1021	0	0	0	0	
4	0	0	0	0	599	1021	0	0	0	0	
5	0	0	0	0	599	1021	0	0	0	0	
6	0	0	0	0	600	1021	0	0	0	0	
7	0	0	0	0	600	1021	0	0	0	0	
8	0	0	0	0	600	1021	0	0	0	0	
9	0	0	0	0	600	1021	0	0	0	0	
10	0	0	0	0	598	1021	0	0	0	0	
11	0	0	0	0	595	1021	0	0	0	0	
12	0	0	0	0	590	1021	0	0	0	0	
13	0	0	0	0	584	1021	0	0	0	0	
14	0	0	0	0	578	1021	0	0	0	0	
15	0	0	0	0	570	1021	0	0	0	0	
0	0	0	0	0	562	1021	0	0	0	0	
1	0	0	0	0	555	1021	0	0	0	0	
2	0	0	0	0	547	1021	0	0	0	0	
3	0	0	0	0	542	1021	0	0	0	0	
4	0	0	0	0	538	1021	0	0	0	0	
5	0	0	0	0	536	1021	0	0	0	0	
6	0	0	0	0	536	1021	0	0	0	0	
7	0	0	0	0	538	1021	0	0	0	0	
8	0	0	0	0	542	1021	0	0	0	0	
9	0	0	0	0	546	1021	0	0	0	0	
10	0	0	0	0	552	1021	0	0	0	0	
11	0	0	0	0	558	1021	0	0	0	0	
12	0	0	0	0	564	1021	0	0	0	0	
13	0	0	0	0	570	1021	0	0	0	0	
14	0	0	0	0	575	1021	0	0	0	0	
15	0	0	0	0	579	1021	0	0	0	0	
0	0	0	0	0	583	1021	0	0	0	0	
1	0	0	0	0	585	1021	0	0	0	0	
2	0	0	0	0	586	1021	0	0	0	0	
3	0	0	0	0	587	1021	0	0	0	0	
4	0	0	0	0	587	1021	0	0	0	0	
5	0	0	0	0	585	1021	0	0	0	0	
6	0	0	0	0	583	1021	0	0	0	0	
7	0	0	0	0	582	1021	0	0	0	0	
8	0	0	0	0	579	1021	0	0	0	0	
9	0	0	0	0	577	1021	0	0	0	0	
10	0	0	0	0	577	1021	0	0	0	0	
11	0	0	0	0	577	1021	0	0	0	0	
12	0	0	0	0	578	1021	0	0	0	0	
13	0	0	0	0	579	1021	0	0	0	0	
14	0	0	0	0	580	1021	0	0	0	0	
15	0	0	0	0	582	1021	0	0	0	0	
0	0	0	0	0	583	1021	0	0	0	0	
1	0	0	0	0	584	1021	0	0	0	0	
2	0	0	0	0	585	1021	0	0	0	0	
3	0	0	0	0	586	1021	0	0	0	0	
4	0	0	0	0	586	1021	0	0	0	0	
5	0	0	0	0	588	1021	0	0	0	0	
6	0	0	0	0	590	1021	0	0	0	0	
7	0	0	0	0	593	1021	0	0	0	0	
8	0	0	0	0	598	1021	0	0	0	0	
9	0	0	0	0	604	1021	0	0	0	0	
10	0	0	0	0	611	1021	0	0	0	0	
11	0	0	0	0	620	1021	0	0	0	0	
12	0	0	0	0	627	1021	0	0	0	0	
13	0	0	0	0	634	1021	0	0	0	0	
14	0	0	0	0	640	1021	0	0	0	0	
15	0	0	0	0	645	1021	0	0	0	0	
0	0	0	0	0	648	1021	0	0	0	0	
1	0	0	0	0	650	1021	0	0	0	0	
2	0	0	0	0	649	1021	0	0	0	0	
3	0	0	0	0	647	1021	0	0	0	0	
4	0	0	0	0	642	1021	0	0	0	0	
5	0	0	0	0	636	1021	0	0	0	0	
6	0	0	0	0	627	1021	0	0	0	0	
7	0	0	0	0	617	1021	0	0	0	0	
8	0	0	0	0	608	1021	0	0	0	0	
9	0	0	0	0	597	1021	0	0	0	0	
10	0	0	0	0	587	1021	0	0	0	0	
11	0	0	0	0	579	1021	0	0	0	0	
12	0	0	0	0	571	1021	0	0	0	0	
13	0	0	0	0	565	1022	0	0	0	0	
14	0	0	0	0	562	1021	0	0	0	0	
15	0	0	0	0	561	1021	0	0	0	0	
0	0	0	0	0	563	1021	0	0	0	0	
1	0	0	0	0	567	1021	0	0	0	0	
2	0	0	0	0	572	1021	0	0	0	0	
3	0	0	0	0	581	1021	0	0	0	0	
4	0	0	0	0	590	1021	0	0	0	0	
5	0	0	0	0	599	1021	0	0	0	0	
6	0	0	0	0	607	1021	0	0	0	0	
7	0	0	0	0	615	1021	0	0	0	0	
8	0	0	0	0	622	1021	0	0	0	0	
9	0	0	0	0	627	1021	0	0	0	0	
10	0	0	0	0	630	1021	0	0	0	0	
11	0	0	0	0	630	1021	0	0	0	0	
12	0	0	0	0	627	1021	0	0	0	0	
13	0	0	0	0	621	1021	0	0	0	0	
14	0	0	0	0	613	1021	0	0	0	0	
15	0	0	0	0	604	1021	0	0	0	0	
0	0	0	0	0	594	1021	0	0	0	0	
1	0	0	0	0	585	1021	0	0	0	0	
2	0	0	0	0	579	1021	0	0	0	0	
3	0	0	0	0	575	1021	0	0	0	0	
4	0	0	0	0	575	1021	0	0	0	0	
5	0	0	0	0	580	1021	0	0	0	0	
6	0	0	0	0	587	1021	0	0	0	0	
7	0	0	0	0	598	1021	0	0	0	0	
8	0	0	0	0	609	1021	0	0	0	0	
9	0	0	0	0	621	1021	0	0	0	0	
10	0	0	0	0	632	1021	0	0	0	0	
11	0	0	0	0	639	1021	0	0	0	0	
12	0	0	0	0	645	1021	0	0	0	0	
13	0	0	0	0	647	1021	0	0	0	0	
14	0	0	0	0	647	1021	0	0	0	0	
15	0	0	0	0	644	1021	0	0	0	0	
0	0	0	0	0	640	1021	0	0	0	0	
1	0	0	0	0	634	1021	0	0	0	0	
2	0	0	0	0	628	1021	0	0	0	0	
3	0	0	0	0	622	1021	0	0	0	0	
4	0	0	0	0	615	1021	0	0	0	0	
5	0	0	0	0	610	1021	0	0	0	0	
6	0	0	0	0	605	1021	0	0	0	0	
7	0	0	0	0	603	1021	0	0	0	0	
8	0	0	0	0	601	1021	0	0	0	0	
9	0	0	0	0	601	1021	0	0	0	0	
10	0	0	0	0	603	1021	0	0	0	0	
11	0	0	0	0	605	1021	0	0	0	0	
12	0	0	0	0	608	1021	0	0	0	0	
13	0	0	0	0	612	1021	0	0	0	0	
14	0	0	0	0	616	1021	0	0	0	0	
15	0	0	0	0	620	1021	0	0	0	0	
0	0	0	0	0	623	1021	0	0	0	0	
1	0	0	0	0	624	1021	0	0	0	0	
2	0	0	0	0	624	1021	0	0	0	0	
3	0	0	0	0	622	1021	0	0	0	0	
4	0	0	0	0	618	1021	0	0	0	0	
5	0	0	0	0	613	1021	0	0	0	0	
6	0	0	0	0	607	1021	0	0	0	0	
7	0	0	0	0	600	1021	0	0	0	0	
8	0	0	0	0	595	1021	0	0	0	0	
9	0	0	0	0	590	1021	0	0	0	0	
10	0	0	0	0	588	1021	0	0	0	0	
11	0	0	0	0	588	1021	0	0	0	0	
12	0	0	0	0	591	1021	0	0	0	0	
13	0	0	0	0	596	1021	0	0	0	0	
14	0	0	0	0	605	1021	0	0	0	0	
15	0	0	0	0	615	1021	0	0	0	0	
0	0	0	0	0	626	1021	0	0	0	0	
1	0	0	0	0	637	1021	0	0	0	0	
2	0	0	0	0	646	1021	0	0	0	0	
3	0	0	0	0	652	1021	0	0	0	0	
4	0	0	0	0	655	1021	0	0	0	0	
5	0	0	0	0	655	1021	0	0	0	0	
6	0	0	0	0	651	1021	0	0	0	0	
7	0	0	0	0	645	1021	0	0	0	0	
8	0	0	0	0	637	1021	0	0	0	0	
9	0	0	0	0	627	1021	0	0	0	0	
10	0	0	0	0	616	1021	0	0	0	0	
11	0	0	0	0	606	1021	0	0	0	0	
12	0	0	0	0	595	1021	0	0	0	0	
13	0	0	0	0	584	1021	0	0	0	0	
14	0	0	0	0	575	1021	0	0	0	0	
15	0	0	0	0	567	1021	0	0	0	0	
0	0	0	0	0	561	1021	0	0	0	0	
1	0	0	0	0	557	1021	0	0	0	0	
2	0	0	0	0	555	1021	0	0	0	0	
3	0	0	0	0	556	1021	0	0	0	0	
4	0	0	0	0	558	1021	0	0	0	0	
5	0	0	0	0	562	1021	0	0	0	0	
6	0	0	0	0	568	1021	0	0	0	0	
7	0	0	0	0	574	1021	0	0	0	0	
8	0	0	0	0	580	1021	0	0	0	0	
9	0	0	0	0	587	1021	0	0	0	0	
10	0	0	0	0	591	1021	0	0	0	0	
11	0	0	0	0	595	1021	0	0	0	0	
12	0	0	0	0	597	1021	0	0	0	0	
13	0	0	0	0	597	1021	0	0	0	0	
14	0	0	0	0	596	1021	0	0	0	0	
15	0	0	0	0	592	1021	0	0	0	0	
0	0	0	0	0	588	1021	0	0	0	0	
1	0	0	0	0	583	1021	0	0	0	0	
2	0	0	0	0	578	1021	0	0	0	0	
3	0	0	0	0	575	1021	0	0	0	0	
4	0	0	0	0	573	1021	0	0	0	0	
5	0	0	0	0	574	1021	0	0	0	0	
6	0	0	0	0	577	1021	0	0	0	0	
7	0	0	0	0	583	1021	0	0	0	0	
8	0	0	0	0	593	1021	0	0	0	0	
9	0	0	0	0	606	1021	0	0	0	0	
10	0	0	0	0	620	1021	0	0	0	0	
11	0	0	0	0	635	1021	0	0	0	0	
12	0	0	0	0	650	1021	0	0	0	0	
13	0	0	0	0	663	1021	0	0	0	0	
14	0	0	0	0	673	1021	0	0	0	0	
15	0	0	0	0	679	1021	0	0	0	0	
0	0	0	0	0	680	1021	0	0	0	0	
1	0	0	0	0	679	1021	0	0	0	0	
2	0	0	0	0	673	1021	0	0	0	0	
3	0	0	0	0	664	1021	0	0	0	0	
4	0	0	0	0	655	1021	0	0	0	0	
5	0	0	0	0	643	1021	0	0	0	0	
6	0	0	0	0	632	1021	0	0	0	0	
7	0	0	0	0	622	1021	0	0	0	0	
8	0	0	0	0	614	1021	0	0	0	0	
9	0	0	0	0	607	1021	0	0	0	0	
10	0	0	0	0	602	1021	0	0	0	0	
11	0	0	0	0	598	1021	0	0	0	0	
12	0	0	0	0	594	1021	0	0	0	0	
13	0	0	0	0	592	1021	0	0	0	0	
14	0	0	0	0	591	1021	0	0	0	0	
15	0	0	0	0	590	1021	0	0	0	0	
0	0	0	0	0	590	1021	0	0	0	0	
1	0	0	0	0	590	1021	0	0	0	0	
2	0	0	0	0	590	1021	0	0	0	0	
3	0	0	0	0	590	1021	0	0	0	0	
4	0	0	0	0	590	1021	0	0	0	0	
5	0	0	0	0	590	1021	0	0	0	0	
6	0	0	0	0	590	1021	0	0	0	0	
7	0	0	0	0	588	1021	0	0	0	0	
8	0	0	0	0	587	1021	0	0	0	0	
9	0	0	0	0	586	1021	0	0	0	0	
10	0	0	0	0	585	1021	0	0	0	0	
11	0	0	0	0	584	1021	0	0	0	0	
12	0	0	0	0	585	1021	0	0	0	0	
13	0	0	0	0	588	1021	0	0	0	0	
14	0	0	0	0	591	1021	0	0	0	0	
15	0	0	0	0	595	1021	0	0	0	0	
0	0	0	0	0	601	1021	0	0	0	0	
1	0	0	0	0	608	1021	0	0	0	0	
2	0	0	0	0	615	1021	0	0	0	0	
3	0	0	0	0	621	1021	0	0	0	0	
4	0	0	0	0	627	1021	0	0	0	0	
5	0	0	0	0	632	1021	0	0	0	0	
6	0	0	0	0	636	1021	0	0	0	0	
7	0	0	0	0	638	1021	0	0	0	0	
8	0	0	0	0	638	1021	0	0	0	0	
9	0	0	0	0	637	1021	0	0	0	0	
10	0	0	0	0	635	1021	0	0	0	0	
11	0	0	0	0	631	1021	0	0	0	0	
12	0	0	0	0	627	1021	0	0	0	0	
13	0	0	0	0	624	1021	0	0	0	0	
14	0	0	0	0	622	1021	0	0	0	0	
15	0	0	0	0	622	1021	0	0	0	0	
0	0	0	0	0	625	1021	0	0	0	0	
1	0	0	0	0	629	1021	0	0	0	0	
2	0	0	0	0	635	1021	0	0	0	0	
3	0	0	0	0	641	1021	0	0	0	0	
4	0	0	0	0	647	1021	0	0	0	0	
5	0	0	0	0	650	1021	0	0	0	0	
6	0	0	0	0	652	1021	0	0	0	0	
7	0	0	0	0	650	1021	0	0	0	0	
8	0	0	0	0	644	1021	0	0	0	0	
9	0	0	0	0	636	1021	0	0	0	0	
10	0	0	0	0	624	1021	0	0	0	0	
11	0	0	0	0	610	1021	0	0	0	0	
12	0	0	0	0	594	1021	0	0	0	0	
13	0	0	0	0	577	1021	0	0	0	0	
14	0	0	0	0	561	1021	0	0	0	0	
15	0	0	0	0	545	1021	0	0	0	0	
0	0	0	0	0	530	1021	0	0	0	0	
1	0	0	0	0	518	1021	0	0	0	0	
2	0	0	0	0	507	1021	0	0	0	0	
3	0	0	0	0	497	1021	0	0	0	0	
4	0	0	0	0	489	1021	0	0	0	0	
5	0	0	0	0	481	1021	0	0	0	0	
6	0	0	0	0	474	1021	0	0	0	0	
7	0	0	0	0	467	1021	0	0	0	0	
8	0	0	0	0	459	1021	0	0	0	0	
9	0	0	0	0	451	1021	0	0	0	0	
10	0	0	0	0	443	1021	0	0	0	0	
11	0	0	0	0	435	1021	0	0	0	0	
12	0	0	0	0	428	1021	0	0	0	0	
13	0	0	0	0	423	1021	0	0	0	0	
14	0	0	0	0	421	1021	0	0	0	0	
15	0	0	0	0	421	1021	0	0	0	0	
0	0	0	0	0	423	1021	0	0	0	0	
1	0	0	0	0	427	1021	0	0	0	0	
2	0	0	0	0	432	1021	0	0	0	0	
3	0	0	0	0	440	1021	0	0	0	0	
4	0	0	0	0	448	1021	0	0	0	0	
5	0	0	0	0	459	1021	0	0	0	0	
6	0	0	0	0	472	1021	0	0	0	0	
7	0	0	0	0	487	1021	0	0	0	0	
8	0	0	0	0	505	1021	0	0	0	0	
9	0	0	0	0	526	1021	0	0	0	0	
10	0	0	0	0	549	1021	0	0	0	0	
11	0	0	0	0	575	1021	0	0	0	0	
12	0	0	0	0	602	1021	0	0	0	0	
13	0	0	0	0	629	1021	0	0	0	0	
14	0	0	0	0	656	1021	0	0	0	0	
15	0	0	0	0	683	1021	0	0	0	0	
0	0	0	0	0	707	1021	0	0	0	0	
1	0	0	0	0	728	1021	0	0	0	0	
2	0	0	0	0	744	1021	0	0	0	0	
3	0	0	0	0	756	1021	0	0	0	0	
4	0	0	0	0	763	1021	0	0	0	0	
5	0	0	0	0	764	1021	0	0	0	0	
6	0	0	0	0	760	1021	0	0	0	0	
7	0	0	0	0	752	1021	0	0	0	0	
8	0	0	0	0	740	1021	0	0	0	0	
9	0	0	0	0	726	1021	0	0	0	0	
10	0	0	0	0	711	1021	0	0	0	0	
11	0	0	0	0	697	1021	0	0	0	0	
12	0	0	0	0	684	1021	0	0	0	0	
13	0	0	0	0	672	1021	0	0	0	0	
14	0	0	0	0	663	1021	0	0	0	0	
15	0	0	0	0	657	1021	0	0	0	0	
0	0	0	0	0	654	1021	0	0	0	0	
1	0	0	0	0	655	1021	0	0	0	0	
2	0	0	0	0	658	1021	0	0	0	0	
3	0	0	0	0	664	1021	0	0	0	0	
4	0	0	0	0	673	1021	0	0	0	0	
5	0	0	0	0	683	1021	0	0	0	0	
6	0	0	0	0	694	1021	0	0	0	0	
7	0	0	0	0	704	1021	0	0	0	0	
8	0	0	0	0	713	1021	0	0	0	0	
9	0	0	0	0	721	1021	0	0	0	0	
10	0	0	0	0	727	1021	0	0	0	0	
11	0	0	0	0	729	1021	0	0	0	0	
12	0	0	0	0	728	1021	0	0	0	0	
13	0	0	0	0	723	1021	0	0	0	0	
14	0	0	0	0	714	1021	0	0	0	0	
15	0	0	0	0	703	1021	0	0	0	0	
0	0	0	0	0	689	1021	0	0	0	0	
1	0	0	0	0	673	1021	0	0	0	0	
2	0	0	0	0	656	1021	0	0	0	0	
3	0	0	0	0	639	1021	0	0	0	0	
4	0	0	0	0	624	1021	0	0	0	0	
5	0	0	0	0	610	1021	0	0	0	0	
6	0	0	0	0	600	1021	0	0	0	0	
7	0	0	0	0	593	1021	0	0	0	0	
8	0	0	0	0	590	1021	0	0	0	0	
9	0	0	0	0	591	1021	0	0	0	0	
10	0	0	0	0	597	1021	0	0	0	0	
11	0	0	0	0	607	1021	0	0	0	0	
12	0	0	0	0	620	1021	0	0	0	0	
13	0	0	0	0	636	1021	0	0	0	0	
14	0	0	0	0	654	1021	0	0	0	0	
15	0	0	0	0	672	1021	0	0	0	0	
0	0	0	0	0	692	1021	0	0	0	0	
1	0	0	0	0	711	1021	0	0	0	0	
2	0	0	0	0	728	1021	0	0	0	0	
3	0	0	0	0	743	1021	0	0	0	0	
4	0	0	0	0	754	1021	0	0	0	0	
5	0	0	0	0	763	1021	0	0	0	0	
6	0	0	0	0	768	1021	0	0	0	0	
7	0	0	0	0	769	1021	0	0	0	0	
8	0	0	0	0	766	1021	0	0	0	0	
9	0	0	0	0	760	1021	0	0	0	0	
10	0	0	0	0	751	1021	0	0	0	0	
11	0	0	0	0	741	1021	0	0	0	0	
12	0	0	0	0	729	1021	0	0	0	0	
13	0	0	0	0	718	1021	0	0	0	0	
14	0	0	0	0	706	1021	0	0	0	0	
15	0	0	0	0	696	1021	0	0	0	0	
0	0	0	0	0	688	1021	0	0	0	0	
1	0	0	0	0	681	1021	0	0	0	0	
2	0	0	0	0	677	1021	0	0	0	0	
3	0	0	0	0	674	1021	0	0	0	0	
4	0	0	0	0	674	1021	0	0	0	0	
5	0	0	0	0	675	1021	0	0	0	0	
6	0	0	0	0	678	1021	0	0	0	0	
7	0	0	0	0	681	1021	0	0	0	0	
8	0	0	0	0	685	1021	0	0	0	0	
9	0	0	0	0	689	1021	0	0	0	0	
10	0	0	0	0	692	1021	0	0	0	0	
11	0	0	0	0	695	1021	0	0	0	0	
12	0	0	0	0	697	1021	0	0	0	0	
13	0	0	0	0	698	1021	0	0	0	0	
14	0	0	0	0	700	1021	0	0	0	0	
15	0	0	0	0	703	1021	0	0	0	0	
0	0	0	0	0	707	1021	0	0	0	0	
1	0	0	0	0	711	1021	0	0	0	0	
2	0	0	0	0	716	1021	0	0	0	0	
3	0	0	0	0	722	1021	0	0	0	0	
4	0	0	0	0	727	1021	0	0	0	0	
5	0	0	0	0	732	1021	0	0	0	0	
6	0	0	0	0	737	1021	0	0	0	0	
7	0	0	0	0	740	1021	0	0	0	0	
8	0	0	0	0	743	1021	0	0	0	0	
9	0	0	0	0	745	1022	0	0	0	0	
10	0	0	0	0	747	1021	0	0	0	0	
11	0	0	0	0	748	1021	0	0	0	0	
12	0	0	0	0	749	1021	0	0	0	0	
13	0	0	0	0	750	1021	0	0	0	0	
14	0	0	0	0	751	1021	0	0	0	0	
15	0	0	0	0	753	1021	0	0	0	0	
0	0	0	0	0	755	1021	0	0	0	0	
1	0	0	0	0	757	1021	0	0	0	0	
2	0	0	0	0	760	1021	0	0	0	0	
3	0	0	0	0	760	1021	0	0	0	0	
4	0	0	0	0	759	1021	0	0	0	0	
5	0	0	0	0	755	1021	0	0	0	0	
6	0	0	0	0	748	1021	0	0	0	0	
7	0	0	0	0	737	1021	0	0	0	0	
8	0	0	0	0	724	1021	0	0	0	0	
9	0	0	0	0	709	1021	0	0	0	0	
10	0	0	0	0	693	1021	0	0	0	0	
11	0	0	0	0	676	1021	0	0	0	0	
12	0	0	0	0	660	1021	0	0	0	0	
13	0	0	0	0	646	1021	0	0	0	0	
14	0	0	0	0	636	1021	0	0	0	0	
15	0	0	0	0	632	1021	0	0	0	0	
0	0	0	0	0	631	1021	0	0	0	0	
1	0	0	0	0	636	1021	0	0	0	0	
2	0	0	0	0	647	1021	0	0	0	0	
3	0	0	0	0	662	1021	0	0	0	0	
4	0	0	0	0	680	1021	0	0	0	0	
5	0	0	0	0	701	1021	0	0	0	0	
6	0	0	0	0	722	1021	0	0	0	0	
7	0	0	0	0	743	1021	0	0	0	0	
8	0	0	0	0	761	1021	0	0	0	0	
9	0	0	0	0	777	1021	0	0	0	0	
10	0	0	0	0	788	1021	0	0	0	0	
11	0	0	0	0	795	1021	0	0	0	0	
12	0	0	0	0	797	1021	0	0	0	0	
13	0	0	0	0	795	1021	0	0	0	0	
14	0	0	0	0	790	1021	0	0	0	0	
15	0	0	0	0	782	1021	0	0	0	0	
0	0	0	0	0	771	1021	0	0	0	0	
1	0	0	0	0	759	1021	0	0	0	0	
2	0	0	0	0	747	1021	0	0	0	0	
3	0	0	0	0	733	1021	0	0	0	0	
4	0	0	0	0	720	1021	0	0	0	0	
5	0	0	0	0	709	1021	0	0	0	0	
6	0	0	0	0	699	1021	0	0	0	0	
7	0	0	0	0	692	1021	0	0	0	0	
8	0	0	0	0	688	1021	0	0	0	0	
9	0	0	0	0	687	1021	0	0	0	0	
10	0	0	0	0	688	1021	0	0	0	0	
11	0	0	0	0	691	1021	0	0	0	0	
12	0	0	0	0	696	1021	0	0	0	0	
13	0	0	0	0	702	1021	0	0	0	0	
14	0	0	0	0	709	1021	0	0	0	0	
15	0	0	0	0	717	1021	0	0	0	0	
0	0	0	0	0	726	1021	0	0	0	0	
1	0	0	0	0	734	1021	0	0	0	0	
2	0	0	0	0	742	1021	0	0	0	0	
3	0	0	0	0	750	1021	0	0	0	0	
4	0	0	0	0	756	1021	0	0	0	0	
5	0	0	0	0	763	1021	0	0	0	0	
6	0	0	0	0	768	1021	0	0	0	0	
7	0	0	0	0	773	1021	0	0	0	0	
8	0	0	0	0	777	1021	0	0	0	0	
9	0	0	0	0	779	1021	0	0	0	0	
10	0	0	0	0	782	1021	0	0	0	0	
11	0	0	0	0	782	1021	0	0	0	0	
12	0	0	0	0	782	1021	0	0	0	0	
13	0	0	0	0	781	1021	0	0	0	0	
14	0	0	0	0	780	1021	0	0	0	0	
15	0	0	0	0	778	1021	0	0	0	0	
0	0	0	0	0	777	1021	0	0	0	0	
1	0	0	0	0	777	1021	0	0	0	0	
2	0	0	0	0	777	1021	0	0	0	0	
3	0	0	0	0	780	1021	0	0	0	0	
4	0	0	0	0	781	1022	0	0	0	0	
5	0	0	0	0	783	1021	0	0	0	0	
6	0	0	0	0	785	1021	0	0	0	0	
7	0	0	0	0	787	1021	0	0	0	0	
8	0	0	0	0	787	1021	0	0	0	0	
9	0	0	0	0	787	1021	0	0	0	0	
10	0	0	0	0	785	1021	0	0	0	0	
11	0	0	0	0	782	1021	0	0	0	0	
12	0	0	0	0	777	1021	0	0	0	0	
13	0	0	0	0	771	1021	0	0	0	0	
14	0	0	0	0	764	1021	0	0	0	0	
15	0	0	0	0	756	1021	0	0	0	0	
0	0	0	0	0	748	1021	0	0	0	0	
1	0	0	0	0	740	1021	0	0	0	0	
2	0	0	0	0	733	1021	0	0	0	0	
3	0	0	0	0	727	1021	0	0	0	0	
4	0	0	0	0	722	1021	0	0	0	0	
5	0	0	0	0	719	1021	0	0	0	0	
6	0	0	0	0	716	1021	0	0	0	0	
7	0	0	0	0	716	1021	0	0	0	0	
8	0	0	0	0	716	1021	0	0	0	0	
9	0	0	0	0	719	1021	0	0	0	0	
10	0	0	0	0	723	1021	0	0	0	0	
11	0	0	0	0	728	1021	0	0	0	0	
12	0	0	0	0	733	1021	0	0	0	0	
13	0	0	0	0	739	1021	0	0	0	0	
14	0	0	0	0	745	1021	0	0	0	0	
15	0	0	0	0	751	1021	0	0	0	0	
0	0	0	0	0	755	1021	0	0	0	0	
1	0	0	0	0	758	1021	0	0	0	0	
2	0	0	0	0	759	1021	0	0	0	0	
3	0	0	0	0	759	1021	0	0	0	0	
4	0	0	0	0	756	1021	0	0	0	0	
5	0	0	0	0	751	1021	0	0	0	0	
6	0	0	0	0	744	1021	0	0	0	0	
7	0	0	0	0	736	1021	0	0	0	0	
8	0	0	0	0	728	1021	0	0	0	0	
9	0	0	0	0	719	1021	0	0	0	0	
10	0	0	0	0	711	1021	0	0	0	0	
11	0	0	0	0	704	1021	0	0	0	0	
12	0	0	0	0	699	1021	0	0	0	0	
13	0	0	0	0	697	1021	0	0	0	0	
14	0	0	0	0	697	1021	0	0	0	0	
15	0	0	0	0	702	1021	0	0	0	0	
0	0	0	0	0	709	1021	0	0	0	0	
1	0	0	0	0	719	1021	0	0	0	0	
2	0	0	0	0	731	1021	0	0	0	0	
3	0	0	0	0	744	1021	0	0	0	0	
4	0	0	0	0	758	1021	0	0	0	0	
5	0	0	0	0	770	1021	0	0	0	0	
6	0	0	0	0	782	1021	0	0	0	0	
7	0	0	0	0	790	1021	0	0	0	0	
8	0	0	0	0	796	1021	0	0	0	0	
9	0	0	0	0	797	1021	0	0	0	0	
10	0	0	0	0	796	1021	0	0	0	0	
11	0	0	0	0	792	1021	0	0	0	0	
12	0	0	0	0	786	1021	0	0	0	0	
13	0	0	0	0	779	1021	0	0	0	0	
14	0	0	0	0	771	1021	0	0	0	0	
15	0	0	0	0	764	1021	0	0	0	0	
0	0	0	0	0	759	1021	0	0	0	0	
1	0	0	0	0	756	1021	0	0	0	0	
2	0	0	0	0	755	1021	0	0	0	0	
3	0	0	0	0	755	1021	0	0	0	0	
4	0	0	0	0	758	1021	0	0	0	0	
5	0	0	0	0	763	1021	0	0	0	0	
6	0	0	0	0	768	1021	0	0	0	0	
7	0	0	0	0	774	1021	0	0	0	0	
8	0	0	0	0	780	1021	0	0	0	0	
9	0	0	0	0	786	1021	0	0	0	0	
10	0	0	0	0	790	1022	0	0	0	0	
11	0	0	0	0	793	1021	0	0	0	0	
12	0	0	0	0	795	1021	0	0	0	0	
13	0	0	0	0	796	1021	0	0	0	0	
14	0	0	0	0	795	1021	0	0	0	0	
15	0	0	0	0	793	1021	0	0	0	0	
0	0	0	0	0	791	1021	0	0	0	0	
1	0	0	0	0	787	1021	0	0	0	0	
2	0	0	0	0	783	1021	0	0	0	0	
3	0	0	0	0	779	1021	0	0	0	0	
4	0	0	0	0	774	1021	0	0	0	0	
5	0	0	0	0	769	1021	0	0	0	0	
6	0	0	0	0	764	1021	0	0	0	0	
7	0	0	0	0	759	1021	0	0	0	0	
8	0	0	0	0	755	1021	0	0	0	0	
9	0	0	0	0	750	1021	0	0	0	0	
10	0	0	0	0	745	1021	0	0	0	0	
11	0	0	0	0	742	1021	0	0	0	0	
12	0	0	0	0	738	1021	0	0	0	0	
13	0	0	0	0	736	1021	0	0	0	0	
14	0	0	0	0	736	1021	0	0	0	0	
15	0	0	0	0	737	1021	0	0	0	0	
0	0	0	0	0	739	1021	0	0	0	0	
1	0	0	0	0	742	1021	0	0	0	0	
2	0	0	0	0	745	1021	0	0	0	0	
3	0	0	0	0	748	1021	0	0	0	0	
4	0	0	0	0	751	1021	0	0	0	0	
5	0	0	0	0	753	1021	0	0	0	0	
6	0	0	0	0	755	1021	0	0	0	0	
7	0	0	0	0	755	1021	0	0	0	0	
8	0	0	0	0	755	1021	0	0	0	0	
9	0	0	0	0	755	1021	0	0	0	0	
10	0	0	0	0	755	1021	0	0	0	0	
11	0	0	0	0	753	1021	0	0	0	0	
12	0	0	0	0	752	1021	0	0	0	0	
13	0	0	0	0	749	1021	0	0	0	0	
14	0	0	0	0	746	1021	0	0	0	0	
15	0	0	0	0	743	1021	0	0	0	0	
0	0	0	0	0	739	1021	0	0	0	0	
1	0	0	0	0	736	1021	0	0	0	0	
2	0	0	0	0	735	1021	0	0	0	0	
3	0	0	0	0	735	1021	0	0	0	0	
4	0	0	0	0	736	1021	0	0	0	0	
5	0	0	0	0	739	1021	0	0	0	0	
6	0	0	0	0	743	1021	0	0	0	0	
7	0	0	0	0	748	1021	0	0	0	0	
8	0	0	0	0	753	1021	0	0	0	0	
9	0	0	0	0	759	1021	0	0	0	0	
10	0	0	0	0	766	1021	0	0	0	0	
11	0	0	0	0	772	1021	0	0	0	0	
12	0	0	0	0	778	1021	0	0	0	0	
13	0	0	0	0	784	1021	0	0	0	0	
14	0	0	0	0	790	1021	0	0	0	0	
15	0	0	0	0	796	1021	0	0	0	0	
0	0	0	0	0	801	1021	0	0	0	0	
1	0	0	0	0	806	1021	0	0	0	0	
2	0	0	0	0	811	1021	0	0	0	0	
3	0	0	0	0	815	1021	0	0	0	0	
4	0	0	0	0	818	1021	0	0	0	0	
5	0	0	0	0	819	1021	0	0	0	0	
6	0	0	0	0	819	1021	0	0	0	0	
7	0	0	0	0	817	1021	0	0	0	0	
8	0	0	0	0	813	1021	0	0	0	0	
9	0	0	0	0	807	1021	0	0	0	0	
10	0	0	0	0	799	1021	0	0	0	0	
11	0	0	0	0	789	1021	0	0	0	0	
12	0	0	0	0	779	1021	0	0	0	0	
13	0	0	0	0	768	1021	0	0	0	0	
14	0	0	0	0	757	1021	0	0	0	0	
15	0	0	0	0	747	1021	0	0	0	0	
0	0	0	0	0	739	1021	0	0	0	0	
1	0	0	0	0	734	1021	0	0	0	0	
2	0	0	0	0	732	1021	0	0	0	0	
3	0	0	0	0	732	1021	0	0	0	0	
4	0	0	0	0	735	1021	0	0	0	0	
5	0	0	0	0	741	1021	0	0	0	0	
6	0	0	0	0	748	1021	0	0	0	0	
7	0	0	0	0	757	1021	0	0	0	0	
8	0	0	0	0	766	1021	0	0	0	0	
9	0	0	0	0	775	1021	0	0	0	0	
10	0	0	0	0	783	1021	0	0	0	0	
11	0	0	0	0	791	1021	0	0	0	0	
12	0	0	0	0	796	1021	0	0	0	0	
13	0	0	0	0	799	1021	0	0	0	0	
14	0	0	0	0	801	1021	0	0	0	0	
15	0	0	0	0	801	1021	0	0	0	0	
0	0	0	0	0	799	1021	0	0	0	0	
1	0	0	0	0	795	1021	0	0	0	0	
2	0	0	0	0	790	1021	0	0	0	0	
3	0	0	0	0	784	1021	0	0	0	0	
4	0	0	0	0	778	1021	0	0	0	0	
5	0	0	0	0	772	1021	0	0	0	0	
6	0	0	0	0	766	1021	0	0	0	0	
7	0	0	0	0	761	1021	0	0	0	0	
8	0	0	0	0	756	1021	0	0	0	0	
9	0	0	0	0	753	1021	0	0	0	0	
10	0	0	0	0	751	1021	0	0	0	0	
11	0	0	0	0	750	1021	0	0	0	0	
12	0	0	0	0	752	1021	0	0	0	0	
13	0	0	0	0	755	1021	0	0	0	0	
14	0	0	0	0	760	1021	0	0	0	0	
15	0	0	0	0	766	1021	0	0	0	0	
0	0	0	0	0	774	1021	0	0	0	0	
1	0	0	0	0	782	1021	0	0	0	0	
2	0	0	0	0	791	1021	0	0	0	0	
3	0	0	0	0	799	1022	0	0	0	0	
4	0	0	0	0	807	1021	0	0	0	0	
5	0	0	0	0	815	1021	0	0	0	0	
6	0	0	0	0	819	1021	0	0	0	0	
7	0	0	0	0	822	1021	0	0	0	0	
8	0	0	0	0	822	1021	0	0	0	0	
9	0	0	0	0	819	1021	0	0	0	0	
10	0	0	0	0	815	1021	0	0	0	0	
11	0	0	0	0	808	1021	0	0	0	0	
12	0	0	0	0	801	1021	0	0	0	0	
13	0	0	0	0	794	1021	0	0	0	0	
14	0	0	0	0	787	1021	0	0	0	0	
15	0	0	0	0	783	1021	0	0	0	0	
0	0	0	0	0	779	1021	0	0	0	0	
1	0	0	0	0	778	1021	0	0	0	0	
2	0	0	0	0	779	1021	0	0	0	0	
3	0	0	0	0	781	1021	0	0	0	0	
4	0	0	0	0	785	1021	0	0	0	0	
5	0	0	0	0	791	1021	0	0	0	0	
6	0	0	0	0	796	1021	0	0	0	0	
7	0	0	0	0	801	1021	0	0	0	0	
8	0	0	0	0	805	1021	0	0	0	0	
9	0	0	0	0	808	1021	0	0	0	0	
10	0	0	0	0	809	1021	0	0	0	0	
11	0	0	0	0	808	1021	0	0	0	0	
12	0	0	0	0	805	1021	0	0	0	0	
13	0	0	0	0	801	1021	0	0	0	0	
14	0	0	0	0	796	1021	0	0	0	0	
15	0	0	0	0	791	1021	0	0	0	0	
0	0	0	0	0	785	1021	0	0	0	0	
1	0	0	0	0	780	1021	0	0	0	0	
2	0	0	0	0	775	1021	0	0	0	0	
3	0	0	0	0	772	1021	0	0	0	0	
4	0	0	0	0	769	1021	0	0	0	0	
5	0	0	0	0	768	1021	0	0	0	0	
6	0	0	0	0	768	1021	0	0	0	0	
7	0	0	0	0	768	1021	0	0	0	0	
8	0	0	0	0	770	1021	0	0	0	0	
9	0	0	0	0	773	1021	0	0	0	0	
10	0	0	0	0	777	1021	0	0	0	0	
11	0	0	0	0	781	1021	0	0	0	0	
12	0	0	0	0	786	1021	0	0	0	0	
13	0	0	0	0	792	1021	0	0	0	0	
14	0	0	0	0	798	1021	0	0	0	0	
15	0	0	0	0	803	1021	0	0	0	0	
0	0	0	0	0	806	1021	0	0	0	0	
1	0	0	0	0	809	1021	0	0	0	0	
2	0	0	0	0	810	1021	0	0	0	0	
3	0	0	0	0	809	1021	0	0	0	0	
4	0	0	0	0	806	1021	0	0	0	0	
5	0	0	0	0	803	1021	0	0	0	0	
6	0	0	0	0	798	1021	0	0	0	0	
7	0	0	0	0	793	1021	0	0	0	0	
8	0	0	0	0	788	1021	0	0	0	0	
9	0	0	0	0	784	1021	0	0	0	0	
10	0	0	0	0	781	1021	0	0	0	0	
11	0	0	0	0	779	1021	0	0	0	0	
12	0	0	0	0	777	1021	0	0	0	0	
13	0	0	0	0	775	1021	0	0	0	0	
14	0	0	0	0	774	1021	0	0	0	0	
15	0	0	0	0	773	1021	0	0	0	0	
0	0	0	0	0	771	1021	0	0	0	0	
1	0	0	0	0	770	1021	0	0	0	0	
2	0	0	0	0	769	1021	0	0	0	0	
3	0	0	0	0	769	1021	0	0	0	0	
4	0	0	0	0	771	1021	0	0	0	0	
5	0	0	0	0	775	1021	0	0	0	0	
6	0	0	0	0	780	1021	0	0	0	0	
7	0	0	0	0	787	1021	0	0	0	0	
8	0	0	0	0	796	1021	0	0	0	0	
9	0	0	0	0	805	1021	0	0	0	0	
10	0	0	0	0	813	1021	0	0	0	0	
11	0	0	0	0	819	1021	0	0	0	0	
12	0	0	0	0	823	1021	0	0	0	0	
13	0	0	0	0	824	1021	0	0	0	0	
14	0	0	0	0	823	1021	0	0	0	0	
15	0	0	0	0	817	1021	0	0	0	0	
0	0	0	0	0	811	1021	0	0	0	0	
1	0	0	0	0	802	1021	0	0	0	0	
2	0	0	0	0	792	1021	0	0	0	0	
3	0	0	0	0	783	1022	0	0	0	0	
4	0	0	0	0	775	1021	0	0	0	0	
5	0	0	0	0	769	1021	0	0	0	0	
6	0	0	0	0	763	1021	0	0	0	0	
7	0	0	0	0	759	1021	0	0	0	0	
8	0	0	0	0	756	1021	0	0	0	0	
9	0	0	0	0	754	1021	0	0	0	0	
10	0	0	0	0	753	1021	0	0	0	0	
11	0	0	0	0	754	1021	0	0	0	0	
12	0	0	0	0	756	1021	0	0	0	0	
13	0	0	0	0	759	1021	0	0	0	0	
14	0	0	0	0	762	1021	0	0	0	0	
15	0	0	0	0	766	1021	0	0	0	0	
0	0	0	0	0	769	1021	0	0	0	0	
1	0	0	0	0	772	1021	0	0	0	0	
2	0	0	0	0	775	1021	0	0	0	0	
3	0	0	0	0	778	1021	0	0	0	0	
4	0	0	0	0	780	1021	0	0	0	0	
5	0	0	0	0	781	1021	0	0	0	0	
6	0	0	0	0	780	1021	0	0	0	0	
7	0	0	0	0	780	1021	0	0	0	0	
8	0	0	0	0	778	1021	0	0	0	0	
9	0	0	0	0	775	1021	0	0	0	0	
10	0	0	0	0	773	1021	0	0	0	0	
11	0	0	0	0	771	1021	0	0	0	0	
12	0	0	0	0	768	1021	0	0	0	0	
13	0	0	0	0	766	1021	0	0	0	0	
14	0	0	0	0	764	1021	0	0	0	0	
15	0	0	0	0	763	1021	0	0	0	0	
0	0	0	0	0	761	1021	0	0	0	0	
1	0	0	0	0	760	1022	0	0	0	0	
2	0	0	0	0	760	1021	0	0	0	0	
3	0	0	0	0	761	1021	0	0	0	0	
4	0	0	0	0	763	1021	0	0	0	0	
5	0	0	0	0	766	1021	0	0	0	0	
6	0	0	0	0	770	1021	0	0	0	0	
7	0	0	0	0	775	1021	0	0	0	0	
8	0	0	0	0	781	1021	0	0	0	0	
9	0	0	0	0	787	1021	0	0	0	0	
10	0	0	0	0	794	1021	0	0	0	0	
11	0	0	0	0	800	1021	0	0	0	0	
12	0	0	0	0	806	1021	0	0	0	0	
13	0	0	0	0	811	1021	0	0	0	0	
14	0	0	0	0	814	1021	0	0	0	0	
15	0	0	0	0	817	1021	0	0	0	0	
0	0	0	0	0	819	1021	0	0	0	0	
1	0	0	0	0	821	1021	0	0	0	0	
2	0	0	0	0	823	1021	0	0	0	0	
3	0	0	0	0	824	1021	0	0	0	0	
4	0	0	0	0	827	1021	0	0	0	0	
5	0	0	0	0	830	1021	0	0	0	0	
6	0	0	0	0	833	1021	0	0	0	0	
7	0	0	0	0	837	1021	0	0	0	0	
8	0	0	0	0	840	1021	0	0	0	0	
9	0	0	0	0	842	1021	0	0	0	0	
10	0	0	0	0	842	1021	0	0	0	0	
11	0	0	0	0	840	1021	0	0	0	0	
12	0	0	0	0	835	1021	0	0	0	0	
13	0	0	0	0	827	1021	0	0	0	0	
14	0	0	0	0	817	1021	0	0	0	0	
15	0	0	0	0	804	1021	0	0	0	0	
0	0	0	0	0	791	1021	0	0	0	0	
1	0	0	0	0	776	1022	0	0	0	0	
2	0	0	0	0	762	1021	0	0	0	0	
3	0	0	0	0	748	1021	0	0	0	0	
4	0	0	0	0	735	1021	0	0	0	0	
5	0	0	0	0	725	1021	0	0	0	0	
6	0	0	0	0	718	1021	0	0	0	0	
7	0	0	0	0	713	1021	0	0	0	0	
8	0	0	0	0	711	1021	0	0	0	0	
9	0	0	0	0	712	1021	0	0	0	0	
10	0	0	0	0	716	1021	0	0	0	0	
11	0	0	0	0	723	1021	0	0	0	0	
12	0	0	0	0	731	1021	0	0	0	0	
13	0	0	0	0	742	1021	0	0	0	0	
14	0	0	0	0	754	1021	0	0	0	0	
15	0	0	0	0	768	1021	0	0	0	0	
0	0	0	0	0	783	1021	0	0	0	0	
1	0	0	0	0	797	1021	0	0	0	0	
2	0	0	0	0	809	1021	0	0	0	0	
3	0	0	0	0	820	1021	0	0	0	0	
4	0	0	0	0	828	1021	0	0	0	0	
5	0	0	0	0	832	1021	0	0	0	0	
6	0	0	0	0	832	1021	0	0	0	0	
7	0	0	0	0	830	1021	0	0	0	0	
8	0	0	0	0	824	1021	0	0	0	0	
9	0	0	0	0	815	1021	0	0	0	0	
10	0	0	0	0	803	1021	0	0	0	0	
11	0	0	0	0	790	1021	0	0	0	0	
12	0	0	0	0	775	1021	0	0	0	0	
13	0	0	0	0	759	1021	0	0	0	0	
14	0	0	0	0	744	1021	0	0	0	0	
15	0	0	0	0	729	1021	0	0	0	0	
0	0	0	0	0	717	1021	0	0	0	0	
1	0	0	0	0	707	1021	0	0	0	0	
2	0	0	0	0	700	1021	0	0	0	0	
3	0	0	0	0	697	1021	0	0	0	0	
4	0	0	0	0	699	1021	0	0	0	0	
5	0	0	0	0	704	1021	0	0	0	0	
6	0	0	0	0	715	1021	0	0	0	0	
7	0	0	0	0	728	1021	0	0	0	0	
8	0	0	0	0	743	1021	0	0	0	0	
9	0	0	0	0	758	1021	0	0	0	0	
10	0	0	0	0	774	1021	0	0	0	0	
11	0	0	0	0	787	1021	0	0	0	0	
12	0	0	0	0	798	1021	0	0	0	0	
13	0	0	0	0	806	1021	0	0	0	0	
14	0	0	0	0	811	1021	0	0	0	0	
15	0	0	0	0	814	1021	0	0	0	0	
0	0	0	0	0	815	1021	0	0	0	0	
1	0	0	0	0	816	1021	0	0	0	0	
2	0	0	0	0	815	1021	0	0	0	0	
3	0	0	0	0	815	1021	0	0	0	0	
4	0	0	0	0	816	1021	0	0	0	0	
5	0	0	0	0	818	1021	0	0	0	0	
6	0	0	0	0	821	1021	0	0	0	0	
7	0	0	0	0	825	1021	0	0	0	0	
8	0	0	0	0	830	1021	0	0	0	0	
9	0	0	0	0	836	1021	0	0	0	0	
10	0	0	0	0	843	1021	0	0	0	0	
11	0	0	0	0	849	1021	0	0	0	0	
12	0	0	0	0	856	1021	0	0	0	0	
13	0	0	0	0	862	1021	0	0	0	0	
14	0	0	0	0	866	1021	0	0	0	0	
15	0	0	0	0	869	1021	0	0	0	0	
0	0	0	0	0	870	1021	0	0	0	0	
1	0	0	0	0	870	1021	0	0	0	0	
2	0	0	0	0	867	1021	0	0	0	0	
3	0	0	0	0	865	1021	0	0	0	0	
4	0	0	0	0	862	1021	0	0	0	0	
5	0	0	0	0	859	1021	0	0	0	0	
6	0	0	0	0	857	1021	0	0	0	0	
7	0	0	0	0	856	1021	0	0	0	0	
8	0	0	0	0	856	1021	0	0	0	0	
9	0	0	0	0	858	1021	0	0	0	0	
10	0	0	0	0	862	1021	0	0	0	0	
11	0	0	0	0	867	1021	0	0	0	0	
12	0	0	0	0	875	1021	0	0	0	0	
13	0	0	0	0	883	1021	0	0	0	0	
14	0	0	0	0	891	1021	0	0	0	0	
15	0	0	0	0	898	1021	0	0	0	0	
0	0	0	0	0	904	1021	0	0	0	0	
1	0	0	0	0	908	1021	0	0	0	0	
2	0	0	0	0	910	1021	0	0	0	0	
3	0	0	0	0	908	1021	0	0	0	0	
4	0	0	0	0	903	1021	0	0	0	0	
5	0	0	0	0	894	1021	0	0	0	0	
6	0	0	0	0	882	1021	0	0	0	0	
7	0	0	0	0	867	1021	0	0	0	0	
8	0	0	0	0	850	1021	0	0	0	0	
9	0	0	0	0	831	1021	0	0	0	0	
10	0	0	0	0	812	1021	0	0	0	0	
11	0	0	0	0	794	1021	0	0	0	0	
12	0	0	0	0	777	1021	0	0	0	0	
13	0	0	0	0	762	1021	0	0	0	0	
14	0	0	0	0	751	1021	0	0	0	0	
15	0	0	0	0	742	1021	0	0	0	0	
0	0	0	0	0	737	1021	0	0	0	0	
1	0	0	0	0	735	1021	0	0	0	0	
2	0	0	0	0	736	1021	0	0	0	0	
3	0	0	0	0	737	1021	0	0	0	0	
4	0	0	0	0	742	1021	0	0	0	0	
5	0	0	0	0	748	1021	0	0	0	0	
6	0	0	0	0	753	1021	0	0	0	0	
7	0	0	0	0	757	1021	0	0	0	0	
8	0	0	0	0	761	1021	0	0	0	0	
9	0	0	0	0	762	1021	0	0	0	0	
10	0	0	0	0	761	1021	0	0	0	0	
11	0	0	0	0	758	1021	0	0	0	0	
12	0	0	0	0	753	1021	0	0	0	0	
13	0	0	0	0	747	1021	0	0	0	0	
14	0	0	0	0	739	1021	0	0	0	0	
15	0	0	0	0	733	1021	0	0	0	0	
0	0	0	0	0	728	1021	0	0	0	0	
1	0	0	0	0	726	1021	0	0	0	0	
2	0	0	0	0	727	1021	0	0	0	0	
3	0	0	0	0	732	1021	0	0	0	0	
4	0	0	0	0	742	1021	0	0	0	0	
5	0	0	0	0	755	1021	0	0	0	0	
6	0	0	0	0	773	1021	0	0	0	0	
7	0	0	0	0	794	1021	0	0	0	0	
8	0	0	0	0	818	1021	0	0	0	0	
9	0	0	0	0	843	1021	0	0	0	0	
10	0	0	0	0	868	1021	0	0	0	0	
11	0	0	0	0	893	1021	0	0	0	0	
12	0	0	0	0	916	1021	0	0	0	0	
13	0	0	0	0	937	1021	0	0	0	0	
14	0	0	0	0	954	1021	0	0	0	0	
15	0	0	0	0	967	1021	0	0	0	0	
0	0	0	0	0	976	1021	0	0	0	0	
1	0	0	0	0	979	1022	0	0	0	0	
2	0	0	0	0	980	1021	0	0	0	0	
3	0	0	0	0	977	1021	0	0	0	0	
4	0	0	0	0	971	1021	0	0	0	0	
5	0	0	0	0	963	1021	0	0	0	0	
6	0	0	0	0	954	1021	0	0	0	0	
7	0	0	0	0	945	1021	0	0	0	0	
8	0	0	0	0	937	1021	0	0	0	0	
9	0	0	0	0	930	1021	0	0	0	0	
10	0	0	0	0	926	1021	0	0	0	0	
11	0	0	0	0	924	1021	0	0	0	0	
12	0	0	0	0	924	1021	0	0	0	0	
13	0	0	0	0	928	1021	0	0	0	0	
14	0	0	0	0	934	1021	0	0	0	0	
15	0	0	0	0	941	1021	0	0	0	0	
0	0	0	0	0	949	1022	0	0	0	0	
1	0	0	0	0	958	1021	0	0	0	0	
2	0	0	0	0	966	1021	0	0	0	0	
3	0	0	0	0	972	1021	0	0	0	0	
4	0	0	0	0	977	1021	0	0	0	0	
5	0	0	0	0	980	1021	0	0	0	0	
6	0	0	0	0	979	1021	0	0	0	0	
7	0	0	0	0	976	1021	0	0	0	0	
8	0	0	0	0	970	1021	0	0	0	0	
9	0	0	0	0	962	1021	0	0	0	0	
10	0	0	0	0	952	1021	0	0	0	0	
11	0	0	0	0	942	1021	0	0	0	0	
12	0	0	0	0	932	1021	0	0	0	0	
13	0	0	0	0	923	1021	0	0	0	0	
14	0	0	0	0	913	1021	0	0	0	0	
15	0	0	0	0	905	1021	0	0	0	0	
0	0	0	0	0	897	1021	0	0	0	0	
1	0	0	0	0	891	1021	0	0	0	0	
2	0	0	0	0	887	1021	0	0	0	0	
3	0	0	0	0	883	1021	0	0	0	0	
4	0	0	0	0	882	1022	0	0	0	0	
5	0	0	0	0	882	1021	0	0	0	0	
6	0	0	0	0	884	1021	0	0	0	0	
7	0	0	0	0	888	1021	0	0	0	0	
8	0	0	0	0	894	1021	0	0	0	0	
9	0	0	0	0	903	1021	0	0	0	0	
10	0	0	0	0	913	1021	0	0	0	0	
11	0	0	0	0	925	1021	0	0	0	0	
12	0	0	0	0	936	1021	0	0	0	0	
13	0	0	0	0	949	1021	0	0	0	0	
14	0	0	0	0	961	1021	0	0	0	0	
15	0	0	0	0	972	1021	0	0	0	0	
0	0	0	0	0	983	1021	0	0	0	0	
1	0	0	0	0	992	1021	0	0	0	0	
2	0	0	0	0	998	1021	0	0	0	0	
3	0	0	0	0	1001	1022	0	0	0	0	
4	0	0	0	0	1004	1021	0	0	0	0	
5	0	0	0	0	1004	1021	0	0	0	0	
6	0	0	0	0	1000	1021	0	0	0	0	
7	0	0	0	0	995	1021	0	0	0	0	
8	0	0	0	0	987	1021	0	0	0	0	
9	0	0	0	0	977	1021	0	0	0	0	
10	0	0	0	0	967	1021	0	0	0	0	
11	0	0	0	0	955	1021	0	0	0	0	
12	0	0	0	0	944	1021	0	0	0	0	
13	0	0	0	0	934	1021	0	0	0	0	
14	0	0	0	0	925	1021	0	0	0	0	
15	0	0	0	0	920	1021	0	0	0	0	
0	0	0	0	0	917	1021	0	0	0	0	
1	0	0	0	0	918	1021	0	0	0	0	
2	0	0	0	0	923	1021	0	0	0	0	
3	0	0	0	0	931	1021	0	0	0	0	
4	0	0	0	0	942	1021	0	0	0	0	
5	0	0	0	0	954	1021	0	0	0	0	
6	0	0	0	0	966	1021	0	0	0	0	
7	0	0	0	0	977	1021	0	0	0	0	
8	0	0	0	0	984	1021	0	0	0	0	
9	0	0	0	0	989	1021	0	0	0	0	
10	0	0	0	0	989	1021	0	0	0	0	
11	0	0	0	0	985	1021	0	0	0	0	
12	0	0	0	0	978	1021	0	0	0	0	
13	0	0	0	0	967	1021	0	0	0	0	
14	0	0	0	0	955	1021	0	0	0	0	
15	0	0	0	0	940	1021	0	0	0	0	
0	0	0	0	0	925	1022	0	0	0	0	
1	0	0	0	0	912	1021	0	0	0	0	
2	0	0	0	0	898	1021	0	0	0	0	
3	0	0	0	0	887	1021	0	0	0	0	
4	0	0	0	0	878	1021	0	0	0	0	
5	0	0	0	0	872	1021	0	0	0	0	
6	0	0	0	0	868	1021	0	0	0	0	
7	0	0	0	0	868	1021	0	0	0	0	
8	0	0	0	0	868	1021	0	0	0	0	
9	0	0	0	0	869	1021	0	0	0	0	
10	0	0	0	0	871	1021	0	0	0	0	
11	0	0	0	0	871	1022	0	0	0	0	
12	0	0	0	0	873	1021	0	0	0	0	
13	0	0	0	0	875	1021	0	0	0	0	
14	0	0	0	0	876	1021	0	0	0	0	
15	0	0	0	0	877	1021	0	0	0	0	
0	0	0	0	0	880	1021	0	0	0	0	
1	0	0	0	0	882	1021	0	0	0	0	
2	0	0	0	0	887	1021	0	0	0	0	
3	0	0	0	0	891	1021	0	0	0	0	
4	0	0	0	0	896	1021	0	0	0	0	
5	0	0	0	0	901	1021	0	0	0	0	
6	0	0	0	0	906	1021	0	0	0	0	
7	0	0	0	0	912	1021	0	0	0	0	
8	0	0	0	0	916	1021	0	0	0	0	
9	0	0	0	0	920	1021	0	0	0	0	
10	0	0	0	0	923	1021	0	0	0	0	
11	0	0	0	0	924	1021	0	0	0	0	
12	0	0	0	0	925	1021	0	0	0	0	
13	0	0	0	0	924	1021	0	0	0	0	
14	0	0	0	0	923	1021	0	0	0	0	
15	0	0	0	0	920	1021	0	0	0	0	
0	0	0	0	0	915	1021	0	0	0	0	
1	0	0	0	0	910	1021	0	0	0	0	
2	0	0	0	0	905	1021	0	0	0	0	
3	0	0	0	0	899	1021	0	0	0	0	
4	0	0	0	0	893	1021	0	0	0	0	
5	0	0	0	0	888	1021	0	0	0	0	
6	0	0	0	0	885	1021	0	0	0	0	
7	0	0	0	0	884	1021	0	0	0	0	
8	0	0	0	0	886	1021	0	0	0	0	
9	0	0	0	0	890	1021	0	0	0	0	
10	0	0	0	0	896	1021	0	0	0	0	
11	0	0	0	0	903	1021	0	0	0	0	
12	0	0	0	0	911	1021	0	0	0	0	
13	0	0	0	0	920	1021	0	0	0	0	
14	0	0	0	0	928	1022	0	0	0	0	
15	0	0	0	0	935	1021	0	0	0	0	
0	0	0	0	0	940	1021	0	0	0	0	
1	0	0	0	0	944	1021	0	0	0	0	
2	0	0	0	0	945	1021	0	0	0	0	
3	0	0	0	0	946	1022	0	0	0	0	
4	0	0	0	0	945	1021	0	0	0	0	
5	0	0	0	0	944	1021	0	0	0	0	
6	0	0	0	0	942	1021	0	0	0	0	
7	0	0	0	0	940	1021	0	0	0	0	
8	0	0	0	0	940	1021	0	0	0	0	
9	0	0	0	0	942	1021	0	0	0	0	
10	0	0	0	0	945	1021	0	0	0	0	
11	0	0	0	0	950	1021	0	0	0	0	
12	0	0	0	0	956	1021	0	0	0	0	
13	0	0	0	0	962	1021	0	0	0	0	
14	0	0	0	0	968	1021	0	0	0	0	
15	0	0	0	0	972	1021	0	0	0	0	
0	0	0	0	0	975	1021	0	0	0	0	
1	0	0	0	0	977	1021	0	0	0	0	
2	0	0	0	0	977	1021	0	0	0	0	
3	0	0	0	0	974	1021	0	0	0	0	
4	0	0	0	0	971	1021	0	0	0	0	
5	0	0	0	0	964	1021	0	0	0	0	
6	0	0	0	0	958	1021	0	0	0	0	
7	0	0	0	0	949	1021	0	0	0	0	
8	0	0	0	0	941	1021	0	0	0	0	
9	0	0	0	0	933	1021	0	0	0	0	
10	0	0	0	0	925	1021	0	0	0	0	
11	0	0	0	0	920	1021	0	0	0	0	
12	0	0	0	0	915	1021	0	0	0	0	
13	0	0	0	0	913	1021	0	0	0	0	
14	0	0	0	0	913	1021	0	0	0	0	
15	0	0	0	0	915	1021	0	0	0	0	
0	0	0	0	0	918	1021	0	0	0	0	
1	0	0	0	0	923	1021	0	0	0	0	
2	0	0	0	0	927	1021	0	0	0	0	
3	0	0	0	0	933	1021	0	0	0	0	
4	0	0	0	0	937	1021	0	0	0	0	
5	0	0	0	0	942	1021	0	0	0	0	
6	0	0	0	0	946	1021	0	0	0	0	
7	0	0	0	0	951	1021	0	0	0	0	
8	0	0	0	0	956	1021	0	0	0	0	
9	0	0	0	0	961	1021	0	0	0	0	
10	0	0	0	0	967	1021	0	0	0	0	
11	0	0	0	0	974	1021	0	0	0	0	
12	0	0	0	0	981	1021	0	0	0	0	
13	0	0	0	0	991	1021	0	0	0	0	
14	0	0	0	0	1000	1021	0	0	0	0	
15	0	0	0	0	1011	1021	0	0	0	0	
0	0	0	0	0	1021	1021	0	0	0	0	
1	0	0	0	0	1021	1021	0	0	0	0	
2	0	0	0	0	1021	1021	0	0	0	0	
3	0	0	0	0	1021	1021	0	0	0	0	
4	0	0	0	0	1021	1021	0	0	0	0	
5	0	0	0	0	1021	1021	0	0	0	0	
6	0	0	0	0	1021	1021	0	0	0	0	
7	0	0	0	0	1018	1021	0	0	0	0	
8	0	0	0	0	1013	1021	0	0	0	0	
9	0	0	0	0	1008	1021	0	0	0	0	
10	0	0	0	0	1001	1022	0	0	0	0	
11	0	0	0	0	994	1021	0	0	0	0	
12	0	0	0	0	987	1021	0	0	0	0	
13	0	0	0	0	979	1021	0	0	0	0	
14	0	0	0	0	972	1021	0	0	0	0	
15	0	0	0	0	964	1021	0	0	0	0	
0	0	0	0	0	958	1021	0	0	0	0	
1	0	0	0	0	952	1021	0	0	0	0	
2	0	0	0	0	948	1021	0	0	0	0	
3	0	0	0	0	946	1021	0	0	0	0	
4	0	0	0	0	946	1022	0	0	0	0	
5	0	0	0	0	949	1021	0	0	0	0	
6	0	0	0	0	953	1021	0	0	0	0	
7	0	0	0	0	958	1021	0	0	0	0	
8	0	0	0	0	965	1021	0	0	0	0	
9	0	0	0	0	971	1021	0	0	0	0	
10	0	0	0	0	977	1021	0	0	0	0	
11	0	0	0	0	982	1021	0	0	0	0	
12	0	0	0	0	984	1021	0	0	0	0	
13	0	0	0	0	984	1021	0	0	0	0	
14	0	0	0	0	983	1021	0	0	0	0	
15	0	0	0	0	979	1021	0	0	0	0	
0	0	0	0	0	975	1021	0	0	0	0	
1	0	0	0	0	969	1021	0	0	0	0	
2	0	0	0	0	963	1021	0	0	0	0	
3	0	0	0	0	958	1022	0	0	0	0	
4	0	0	0	0	952	1021	0	0	0	0	
5	0	0	0	0	950	1021	0	0	0	0	
6	0	0	0	0	947	1021	0	0	0	0	
7	0	0	0	0	947	1021	0	0	0	0	
8	0	0	0	0	948	1021	0	0	0	0	
9	0	0	0	0	952	1021	0	0	0	0	
10	0	0	0	0	956	1021	0	0	0	0	
11	0	0	0	0	961	1021	0	0	0	0	
12	0	0	0	0	967	1021	0	0	0	0	
13	0	0	0	0	973	1021	0	0	0	0	
14	0	0	0	0	979	1021	0	0	0	0	
15	0	0	0	0	984	1021	0	0	0	0	
0	0	0	0	0	988	1021	0	0	0	0	
1	0	0	0	0	991	1021	0	0	0	0	
2	0	0	0	0	992	1022	0	0	0	0	
3	0	0	0	0	994	1021	0	0	0	0	
4	0	0	0	0	995	1021	0	0	0	0	
5	0	0	0	0	995	1021	0	0	0	0	
6	0	0	0	0	994	1021	0	0	0	0	
7	0	0	0	0	993	1021	0	0	0	0	
8	0	0	0	0	992	1021	0	0	0	0	
9	0	0	0	0	991	1021	0	0	0	0	
10	0	0	0	0	990	1021	0	0	0	0	
11	0	0	0	0	988	1021	0	0	0	0	
12	0	0	0	0	986	1022	0	0	0	0	
13	0	0	0	0	984	1021	0	0	0	0	
14	0	0	0	0	982	1021	0	0	0	0	
15	0	0	0	0	979	1021	0	0	0	0	
0	0	0	0	0	976	1021	0	0	0	0	
1	0	0	0	0	973	1022	0	0	0	0	
2	0	0	0	0	970	1021	0	0	0	0	
3	0	0	0	0	966	1021	0	0	0	0	
4	0	0	0	0	962	1021	0	0	0	0	
5	0	0	0	0	958	1021	0	0	0	0	
6	0	0	0	0	953	1021	0	0	0	0	
7	0	0	0	0	949	1021	0	0	0	0	
8	0	0	0	0	945	1021	0	0	0	0	
9	0	0	0	0	942	1021	0	0	0	0	
10	0	0	0	0	939	1021	0	0	0	0	
11	0	0	0	0	937	1022	0	0	0	0	
12	0	0	0	0	937	1021	0	0	0	0	
13	0	0	0	0	937	1021	0	0	0	0	
14	0	0	0	0	937	1021	0	0	0	0	
15	0	0	0	0	939	1021	0	0	0	0	
0	0	0	0	0	941	1022	0	0	0	0	
1	0	0	0	0	944	1021	0	0	0	0	
2	0	0	0	0	947	1021	0	0	0	0	
3	0	0	0	0	951	1021	0	0	0	0	
4	0	0	0	0	955	1021	0	0	0	0	
5	0	0	0	0	958	1021	0	0	0	0	
6	0	0	0	0	963	1021	0	0	0	0	
7	0	0	0	0	967	1021	0	0	0	0	
8	0	0	0	0	971	1021	0	0	0	0	
9	0	0	0	0	975	1021	0	0	0	0	
10	0	0	0	0	980	1022	0	0	0	0	
11	0	0	0	0	986	1021	0	0	0	0	
12	0	0	0	0	992	1021	0	0	0	0	
13	0	0	0	0	999	1021	0	0	0	0	
14	0	0	0	0	1004	1021	0	0	0	0	
15	0	0	0	0	1009	1021	0	0	0	0	
0	0	0	0	0	1015	1021	0	0	0	0	
1	0	0	0	0	1018	1021	0	0	0	0	
2	0	0	0	0	1020	1021	0	0	0	0	
3	0	0	0	0	1021	1022	0	0	0	0	
4	0	0	0	0	1019	1021	0	0	0	0	
5	0	0	0	0	1017	1021	0	0	0	0	
6	0	0	0	0	1014	1021	0	0	0	0	
7	0	0	0	0	1010	1021	0	0	0	0	
8	0	0	0	0	1005	1021	0	0	0	0	
9	0	0	0	0	999	1022	0	0	0	0	
10	0	0	0	0	995	1021	0	0	0	0	
11	0	0	0	0	990	1021	0	0	0	0	
12	0	0	0	0	986	1021	0	0	0	0	
13	0	0	0	0	982	1021	0	0	0	0	
14	0	0	0	0	979	1021	0	0	0	0	
15	0	0	0	0	976	1021	0	0	0	0	
0	0	0	0	0	974	1021	0	0	0	0	
1	0	0	0	0	972	1021	0	0	0	0	
2	0	0	0	0	971	1021	0	0	0	0	
3	0	0	0	0	970	1022	0	0	0	0	
4	0	0	0	0	971	1021	0	0	0	0	
5	0	0	0	0	971	1021	0	0	0	0	
6	0	0	0	0	972	1021	0	0	0	0	
7	0	0	0	0	972	1021	0	0	0	0	
8	0	0	0	0	972	1021	0	0	0	0	
9	0	0	0	0	973	1021	0	0	0	0	
10	0	0	0	0	973	1021	0	0	0	0	
11	0	0	0	0	972	1021	0	0	0	0	
12	0	0	0	0	971	1021	0	0	0	0	
13	0	0	0	0	970	1022	0	0	0	0	
14	0	0	0	0	970	1021	0	0	0	0	
15	0	0	0	0	971	1021	0	0	0	0	
0	0	0	0	0	971	1021	0	0	0	0	
1	0	0	0	0	973	1021	0	0	0	0	
2	0	0	0	0	975	1022	0	0	0	0	
3	0	0	0	0	979	1021	0	0	0	0	
4	0	0	0	0	983	1021	0	0	0	0	
5	0	0	0	0	987	1021	0	0	0	0	
6	0	0	0	0	991	1021	0	0	0	0	
7	0	0	0	0	996	1021	0	0	0	0	
8	0	0	0	0	1000	1021	0	0	0	0	
9	0	0	0	0	1005	1021	0	0	0	0	
10	0	0	0	0	1009	1021	0	0	0	0	
11	0	0	0	0	1013	1021	0	0	0	0	
12	0	0	0	0	1017	1021	0	0	0	0	
13	0	0	0	0	1021	1021	0	0	0	0	
14	0	0	0	0	1021	1021	0	0	0	0	
15	0	0	0	0	1021	1021	0	0	0	0	
0	0	0	0	0	1021	1021	0	0	0	0	
1	0	0	0	0	1021	1022	0	0	0	0	
2	0	0	0	0	1021	1021	0	0	0	0	
3	0	0	0	0	1021	1021	0	0	0	0	
4	0	0	0	0	1021	1021	0	0	0	0	
5	0	0	0	0	1021	1021	0	0	0	0	
6	0	0	0	0	1021	1022	0	0	0	0	
7	0	0	0	0	1021	1021	0	0	0	0	
8	0	0	0	0	1021	1021	0	0	0	0	
9	0	0	0	0	1021	1021	0	0	0	0	
10	0	0	0	0	1021	1021	0	0	0	0	
11	0	0	0	0	1019	1021	0	0	0	0	
12	0	0	0	0	1014	1022	0	0	0	0	
13	0	0	0	0	1009	1021	0	0	0	0	
14	0	0	0	0	1002	1021	0	0	0	0	
15	0	0	0	0	993	1021	0	0	0	0	
0	0	0	0	0	984	1021	0	0	0	0	
1	0	0	0	0	976	1021	0	0	0	0	
2	0	0	0	0	969	1021	0	0	0	0	
3	0	0	0	0	964	1021	0	0	0	0	
4	0	0	0	0	963	1021	0	0	0	0	
5	0	0	0	0	963	1022	0	0	0	0	
6	0	0	0	0	968	1021	0	0	0	0	
7	0	0	0	0	976	1021	0	0	0	0	
8	0	0	0	0	985	1021	0	0	0	0	
9	0	0	0	0	997	1021	0	0	0	0	
10	0	0	0	0	1010	1022	0	0	0	0	
11	0	0	0	0	1021	1021	0	0	0	0	
12	0	0	0	0	1021	1021	0	0	0	0	
13	0	0	0	0	1021	1021	0	0	0	0	
14	0	0	0	0	1021	1021	0	0	0	0	
15	0	0	0	0	1021	1021	0	0	0	0	
0	0	0	0	0	1021	1021	0	0	0	0	
1	0	0	0	0	1021	1021	0	0	0	0	
2	0	0	0	0	1021	1022	0	0	0	0	
3	0	0	0	0	1021	1021	0	0	0	0	
4	0	0	0	0	1021	1022	0	0	0	0	
5	0	0	0	0	1021	1021	0	0	0	0	
6	0	0	0	0	1021	1021	0	0	0	0	
7	0	0	0	0	1021	1021	0	0	0	0	
8	0	0	0	0	1021	1021	0	0	0	0	
9	0	0	0	0	1021	1022	0	0	0	0	
10	0	0	0	0	1021	1022	0	0	0	0	
11	0	0	0	0	1021	1021	0	0	0	0	
12	0	0	0	0	1021	1021	0	0	0	0	
13	0	0	0	0	1021	1021	0	0	0	0	
14	0	0	0	0	1021	1021	0	0	0	0	
15	0	0	0	0	1021	1021	0	0	0	0	
0	0	0	0	0	1021	1021	0	0	0	0	
1	0	0	0	0	1021	1021	0	0	0	0	
2	0	0	0	0	1021	1021	0	0	0	0	
3	0	0	0	0	1021	1022	0	0	0	0	
4	0	0	0	0	1021	1021	0	0	0	0	
5	0	0	0	0	1021	1021	0	0	0	0	
6	0	0	0	0	1021	1021	0	0	0	0	
7	0	0	0	0	1021	1021	0	0	0	0	
8	0	0	0	0	1021	1021	0	0	0	0	
9	0	0	0	0	1021	1021	0	0	0	0	
10	0	0	0	0	1021	1021	0	0	0	0	
11	0	0	0	0	1021	1021	0	0	0	0	
12	0	0	0	0	1021	1021	0	0	0	0	
13	0	0	0	0	1021	1021	0	0	0	0	
14	0	0	0	0	1021	1021	0	0	0	0	
15	0	0	0	0	1021	1021	0	0	0	0	
0	0	0	0	0	1021	1021	0	0	0	0	
1	0	0	0	0	1021	1021	0	0	0	0	
2	0	0	0	0	1021	1022	0	0	0	0	
3	0	0	0	0	1021	1021	0	0	0	0	
4	0	0	0	0	1021	1021	0	0	0	0	
5	0	0	0	0	1021	1021	0	0	0	0	
6	0	0	0	0	1021	1021	0	0	0	0	
7	0	0	0	0	1021	1021	0	0	0	0	
8	0	0	0	0	1021	1021	0	0	0	0	
9	0	0	0	0	1021	1021	0	0	0	0	
10	0	0	0	0	1021	1021	0	0	0	0	
11	0	0	0	0	1021	1021	0	0	0	0	
12	0	0	0	0	1021	1021	0	0	0	0	
13	0	0	0	0	1021	1021	0	0	0	0	
14	0	0	0	0	1021	1021	0	0	0	0	
15	0	0	0	0	1021	1021	0	0	0	0	
0	0	0	0	0	1021	1021	0	0	0	0	
1	0	0	0	0	1021	1022	0	0	0	0	
2	0	0	0	0	1021	1021	0	0	0	0	
3	0	0	0	0	1021	1021	0	0	0	0	
4	0	0	0	0	1021	1021	0	0	0	0	
5	0	0	0	0	1021	1021	0	0	0	0	
6	0	0	0	0	1021	1021	0	0	0	0	
7	0	0	0	0	1021	1021	0	0	0	0	
8	0	0	0	0	1021	1021	0	0	0	0	
9	0	0	0	0	1021	1021	0	0	0	0	
10	0	0	0	0	1021	1021	0	0	0	0	
11	0	0	0	0	1021	1021	0	0	0	0	
12	0	0	0	0	1021	1021	0	0	0	0	
13	0	0	0	0	1021	1021	0	0	0	0	
14	0	0	0	0	1021	1021	0	0	0	0	
15	0	0	0	0	1021	1021	0	0	0	0	
0	0	0	0	0	1021	1022	0	0	0	0	
1	0	0	0	0	1021	1021	0	0	0	0	
2	0	0	0	0	1021	1021	0	0	0	0	
3	0	0	0	0	1021	1021	0	0	0	0	
4	0	0	0	0	1021	1021	0	0	0	0	
5	0	0	0	0	1021	1021	0	0	0	0	
6	0	0	0	0	1021	1021	0	0	0	0	
7	0	0	0	0	1021	1021	0	0	0	0	
8	0	0	0	0	1021	1021	0	0	0	0	
9	0	0	0	0	1021	1021	0	0	0	0	
10	0	0	0	0	1021	1021	0	0	0	0	
11	0	0	0	0	1021	1021	0	0	0	0	
12	0	0	0	0	1021	1021	0	0	0	0	
13	0	0	0	0	1021	1021	0	0	0	0	
14	0	0	0	0	1021	1021	0	0	0	0	
15	0	0	0	0	1021	1022	0	0	0	0	
0	0	0	0	0	1021	1021	0	0	0	0	
1	0	0	0	0	1021	1021	0	0	0	0	
2	0	0	0	0	1021	1021	0	0	0	0	
3	0	0	0	0	1021	1021	0	0	0	0	
4	0	0	0	0	1021	1021	0	0	0	0	
5	0	0	0	0	1021	1021	0	0	0	0	
6	0	0	0	0	1021	1021	0	0	0	0	
7	0	0	0	0	1021	1021	0	0	0	0	
8	0	0	0	0	1021	1021	0	0	0	0	
9	0	0	0	0	1021	1021	0	0	0	0	
10	0	0	0	0	1021	1021	0	0	0	0	
11	0	0	0	0	1021	1021	0	0	0	0	
12	0	0	0	0	1021	1022	0	0	0	0	
13	0	0	0	0	1021	1021	0	0	0	0	
14	0	0	0	0	1021	1022	0	0	0	0	
15	0	0	0	0	1021	1021	0	0	0	0	
0	0	0	0	0	1021	1021	0	0	0	0	
1	0	0	0	0	1021	1021	0	0	0	0	
2	0	0	0	0	1021	1021	0	0	0	0	
3	0	0	0	0	1021	1022	0	0	0	0	
4	0	0	0	0	1021	1021	0	0	0	0	
5	0	0	0	0	1021	1021	0	0	0	0	
6	0	0	0	0	1021	1021	0	0	0	0	
7	0	0	0	0	1021	1021	0	0	0	0	
8	0	0	0	0	1021	1022	0	0	0	0	
9	0	0	0	0	1021	1021	0	0	0	0	
10	0	0	0	0	1021	1021	0	0	0	0	
11	0	0	0	0	1021	1021	0	0	0	0	
12	0	0	0	0	1021	1021	0	0	0	0	
13	0	0	0	0	1021	1021	0	0	0	0	
14	0	0	0	0	1021	1021	0	0	0	0	
15	0	0	0	0	1021	1021	0	0	0	0	
0	0	0	0	0	1021	1021	0	0	0	0	
1	0	0	0	0	1021	1021	0	0	0	0	
2	0	0	0	0	1021	1021	0	0	0	0	
3	0	0	0	0	1021	1021	0	0	0	0	
4	0	0	0	0	1021	1021	0	0	0	0	
5	0	0	0	0	1021	1021	0	0	0	0	
6	0	0	0	0	1021	1021	0	0	0	0	
7	0	0	0	0	1021	1021	0	0	0	0	
8	0	0	0	0	1021	1021	0	0	0	0	
9	0	0	0	0	1021	1021	0	0	0	0	
10	0	0	0	0	1021	1021	0	0	0	0	
11	0	0	0	0	1021	1021	0	0	0	0	
12	0	0	0	0	1021	1021	0	0	0	0	
13	0	0	0	0	1021	1021	0	0	0	0	
14	0	0	0	0	1021	1021	0	0	0	0	
15	0	0	0	0	1021	1021	0	0	0	0	
0	0	0	0	0	1021	1021	0	0	0	0	
1	0	0	0	0	1021	1022	0	0	0	0	
2	0	0	0	0	1021	1021	0	0	0	0	
3	0	0	0	0	1021	1021	0	0	0	0	
4	0	0	0	0	1021	1021	0	0	0	0	
5	0	0	0	0	1021	1021	0	0	0	0	
6	0	0	0	0	1021	1021	0	0	0	0	
7	0	0	0	0	1021	1021	0	0	0	0	
8	0	0	0	0	1021	1021	0	0	0	0	
9	0	0	0	0	1021	1021	0	0	0	0	
10	0	0	0	0	1021	1021	0	0	0	0	
11	0	0	0	0	1021	1021	0	0	0	0	
12	0	0	0	0	1021	1021	0	0	0	0	
13	0	0	0	0	1021	1021	0	0	0	0	
14	0	0	0	0	1021	1021	0	0	0	0	
15	0	0	0	0	1021	1021	0	0	0	0	
0	0	0	0	0	1021	1022	0	0	0	0	
1	0	0	0	0	1021	1021	0	0	0	0	
2	0	0	0	0	1021	1021	0	0	0	0	
3	0	0	0	0	1021	1021	0	0	0	0	
4	0	0	0	0	1021	1021	0	0	0	0	
5	0	0	0	0	1021	1021	0	0	0	0	
6	0	0	0	0	1021	1021	0	0	0	0	
7	0	0	0	0	1021	1021	0	0	0	0	
8	0	0	0	0	1021	1021	0	0	0	0	
9	0	0	0	0	1021	1021	0	0	0	0	
10	0	0	0	0	1021	1021	0	0	0	0	
11	0	0	0	0	1021	1021	0	0	0	0	
12	0	0	0	0	1021	1021	0	0	0	0	
13	0	0	0	0	1021	1021	0	0	0	0	
14	0	0	0	0	1021	1021	0	0	0	0	
15	0	0	0	0	1021	1022	0	0	0	0	
0	0	0	0	0	1021	1021	0	0	0	0	
1	0	0	0	0	1021	1021	0	0	0	0	
2	0	0	0	0	1021	1021	0	0	0	0	
3	0	0	0	0	1021	1021	0	0	0	0	
4	0	0	0	0	1021	1022	0	0	0	0	
5	0	0	0	0	1021	1021	0	0	0	0	
6	0	0	0	0	1021	1021	0	0	0	0	
7	0	0	0	0	1021	1021	0	0	0	0	
8	0	0	0	0	1021	1021	0	0	0	0	
9	0	0	0	0	1021	1021	0	0	0	0	
10	0	0	0	0	1021	1021	0	0	0	0	
11	0	0	0	0	1021	1021	0	0	0	0	
12	0	0	0	0	1021	1021	0	0	0	0	
13	0	0	0	0	1021	1021	0	0	0	0	
14	0	0	0	0	1021	1022	0	0	0	0	
15	0	0	0	0	1021	1021	0	0	0	0	
0	0	0	0	0	1021	1021	0	0	0	0	
1	0	0	0	0	1021	1021	0	0	0	0	
2	0	0	0	0	1021	1021	0	0	0	0	
3	0	0	0	0	1021	1021	0	0	0	0	
4	0	0	0	0	1021	1021	0	0	0	0	
5	0	0	0	0	1021	1021	0	0	0	0	
6	0	0	0	0	1021	1021	0	0	0	0	
7	0	0	0	0	1021	1021	0	0	0	0	
8	0	0	0	0	1021	1021	0	0	0	0	
9	0	0	0	0	1021	1021	0	0	0	0	
10	0	0	0	0	1021	1021	0	0	0	0	
11	0	0	0	0	1021	1021	0	0	0	0	
12	0	0	0	0	1021	1021	0	0	0	0	
13	0	0	0	0	1021	1022	0	0	0	0	
14	0	0	0	0	1021	1021	0	0	0	0	
15	0	0	0	0	1021	1021	0	0	0	0	
0	0	0	0	0	1021	1021	0	0	0	0	
1	0	0	0	0	1021	1021	0	0	0	0	
2	0	0	0	0	1021	1021	0	0	0	0	
3	0	0	0	0	1021	1021	0	0	0	0	
4	0	0	0	0	1021	1021	0	0	0	0	
5	0	0	0	0	1021	1021	0	0	0	0	
6	0	0	0	0	1021	1021	0	0	0	0	
7	0	0	0	0	1021	1022	0	0	0	0	
8	0	0	0	0	1021	1021	0	0	0	0	
9	0	0	0	0	1021	1021	0	0	0	0	
10	0	0	0	0	1021	1021	0	0	0	0	
11	0	0	0	0	1021	1021	0	0	0	0	
12	0	0	0	0	1021	1022	0	0	0	0	
13	0	0	0	0	1021	1021	0	0	0	0	
14	0	0	0	0	1021	1021	0	0	0	0	
15	0	0	0	0	1021	1021	0	0	0	0	
0	0	0	0	0	1021	1021	0	0	0	0	
1	0	0	0	0	1021	1021	0	0	0	0	
2	0	0	0	0	1021	1021	0	0	0	0	
3	0	0	0	0	1021	1021	0	0	0	0	
4	0	0	0	0	1021	1021	0	0	0	0	
5	0	0	0	0	1021	1021	0	0	0	0	
6	0	0	0	0	1021	1022	0	0	0	0	
7	0	0	0	0	1021	1021	0	0	0	0	
8	0	0	0	0	1021	1021	0	0	0	0	
9	0	0	0	0	1021	1021	0	0	0	0	
10	0	0	0	0	1021	1021	0	0	0	0	
11	0	0	0	0	1021	1022	0	0	0	0	
12	0	0	0	0	1021	1021	0	0	0	0	
13	0	0	0	0	1021	1021	0	0	0	0	
14	0	0	0	0	1021	1021	0	0	0	0	
15	0	0	0	0	1021	1021	0	0	0	0	
0	0	0	0	0	1021	1021	0	0	0	0	
1	0	0	0	0	1021	1021	0	0	0	0	
2	0	0	0	0	1021	1021	0	0	0	0	
3	0	0	0	0	1021	1022	0	0	0	0	
4	0	0	0	0	1021	1021	0	0	0	0	
5	0	0	0	0	1021	1022	0	0	0	0	
6	0	0	0	0	1021	1021	0	0	0	0	
7	0	0	0	0	1021	1021	0	0	0	0	
8	0	0	0	0	1021	1021	0	0	0	0	
9	0	0	0	0	1021	1021	0	0	0	0	
10	0	0	0	0	1021	1021	0	0	0	0	
11	0	0	0	0	1021	1021	0	0	0	0	
12	0	0	0	0	1021	1021	0	0	0	0	
13	0	0	0	0	1021	1021	0	0	0	0	
14	0	0	0	0	1021	1022	0	0	0	0	
15	0	0	0	0	1021	1021	0	0	0	0	
0	0	0	0	0	1021	1021	0	0	0	0	
1	0	0	0	0	1021	1021	0	0	0	0	
2	0	0	0	0	1021	1021	0	0	0	0	
3	0	0	0	0	1021	1021	0	0	0	0	
4	0	0	0	0	1021	1022	0	0	0	0	
5	0	0	0	0	1021	1021	0	0	0	0	
6	0	0	0	0	1021	1021	0	0	0	0	
7	0	0	0	0	1021	1021	0	0	0	0	
8	0	0	0	0	1021	1021	0	0	0	0	
9	0	0	0	0	1021	1022	0	0	0	0	
10	0	0	0	0	1021	1021	0	0	0	0	
11	0	0	0	0	1021	1021	0	0	0	0	
12	0	0	0	0	1021	1021	0	0	0	0	
13	0	0	0	0	1021	1021	0	0	0	0	
14	0	0	0	0	1021	1021	0	0	0	0	
15	0	0	0	0	1021	1021	0	0	0	0	
0	0	0	0	0	1021	1021	0	0	0	0	
1	0	0	0	0	1021	1021	0	0	0	0	
2	0	0	0	0	1021	1021	0	0	0	0	
3	0	0	0	0	1021	1021	0	0	0	0	
4	0	0	0	0	1021	1021	0	0	0	0	
5	0	0	0	0	1021	1021	0	0	0	0	
6	0	0	0	0	1021	1021	0	0	0	0	
7	0	0	0	0	1021	1021	0	0	0	0	
8	0	0	0	0	1021	1022	0	0	0	0	
9	0	0	0	0	1021	1021	0	0	0	0	
10	0	0	0	0	1021	1021	0	0	0	0	
11	0	0	0	0	1021	1021	0	0	0	0	
12	0	0	0	0	1021	1021	0	0	0	0	
13	0	0	0	0	1021	1022	0	0	0	0	
14	0	0	0	0	1021	1021	0	0	0	0	
15	0	0	0	0	1021	1021	0	0	0	0	
0	0	0	0	0	1021	1021	0	0	0	0	
1	0	0	0	0	1021	1022	0	0	0	0	
2	0	0	0	0	1021	1022	0	0	0	0	
3	0	0	0	0	1021	1021	0	0	0	0	
4	0	0	0	0	1021	1021	0	0	0	0	
5	0	0	0	0	1021	1021	0	0	0	0	
6	0	0	0	0	1021	1021	0	0	0	0	
7	0	0	0	0	1021	1022	0	0	0	0	
8	0	0	0	0	1021	1021	0	0	0	0	
9	0	0	0	0	1021	1021	0	0	0	0	
10	0	0	0	0	1021	1021	0	0	0	0	
11	0	0	0	0	1021	1021	0	0	0	0	
12	0	0	0	0	1021	1021	0	0	0	0	
13	0	0	0	0	1021	1022	0	0	0	0	
14	0	0	0	0	1021	1021	0	0	0	0	
15	0	0	0	0	1021	1021	0	0	0	0	
0	0	0	0	0	1021	1021	0	0	0	0	
1	0	0	0	0	1021	1022	0	0	0	0	
2	0	0	0	0	1021	1021	0	0	0	0	
3	0	0	0	0	1021	1021	0	0	0	0	
4	0	0	0	0	1021	1021	0	0	0	0	
5	0	0	0	0	1021	1021	0	0	0	0	
6	0	0	0	0	1022	1021	0	0	0	0	
7	0	0	0	0	1021	1021	0	0	0	0	
8	0	0	0	0	1021	1021	0	0	0	0	
9	0	0	0	0	1021	1021	0	0	0	0	
10	0	0	0	0	1021	1021	0	0	0	0	
11	0	0	0	0	1021	1021	0	0	0	0	
12	0	0	0	0	1021	1021	0	0	0	0	
13	0	0	0	0	1021	1021	0	0	0	0	
14	0	0	0	0	1021	1021	0	0	0	0	
15	0	0	0	0	1021	1021	0	0	0	0	
0	0	0	0	0	1021	1022	0	0	0	0	
1	0	0	0	0	1021	1021	0	0	0	0	
2	0	0	0	0	1021	1021	0	0	0	0	
3	0	0	0	0	1021	1021	0	0	0	0	
4	0	0	0	0	1021	1021	0	0	0	0	
5	0	0	0	0	1021	1022	0	0	0	0	
6	0	0	0	0	1021	1021	0	0	0	0	
7	0	0	0	0	1021	1021	0	0	0	0	
8	0	0	0	0	1021	1021	0	0	0	0	
9	0	0	0	0	1021	1021	0	0	0	0	
10	0	0	0	0	1021	1022	0	0	0	0	
11	0	0	0	0	1021	1021	0	0	0	0	
12	0	0	0	0	1021	1021	0	0	0	0	
13	0	0	0	0	1021	1021	0	0	0	0	
14	0	0	0	0	1021	1021	0	0	0	0	
15	0	0	0	0	1021	1021	0	0	0	0	
0	0	0	0	0	1021	1021	0	0	0	0	
1	0	0	0	0	1021	1021	0	0	0	0	
2	0	0	0	0	1021	1021	0	0	0	0	
3	0	0	0	0	1021	1021	0	0	0	0	
4	0	0	0	0	1021	1021	0	0	0	0	
5	0	0	0	0	1021	1021	0	0	0	0	
6	0	0	0	0	1021	1021	0	0	0	0	
7	0	0	0	0	1021	1021	0	0	0	0	
8	0	0	0	0	1021	1021	0	0	0	0	
9	0	0	0	0	1021	1021	0	0	0	0	
10	0	0	0	0	1021	1021	0	0	0	0	
11	0	0	0	0	1021	1021	0	0	0	0	
12	0	0	0	0	1021	1021	0	0	0	0	
13	0	0	0	0	1021	1021	0	0	0	0	
14	0	0	0	0	1021	1021	0	0	0	0	
15	0	0	0	0	1021	1022	0	0	0	0	
0	0	0	0	0	1021	1021	0	0	0	0	
1	0	0	0	0	1021	1021	0	0	0	0	
2	0	0	0	0	1021	1022	0	0	0	0	
3	0	0	0	0	1021	1022	0	0	0	0	
4	0	0	0	0	1021	1021	0	0	0	0	
5	0	0	0	0	1021	1021	0	0	0	0	
6	0	0	0	0	1021	1021	0	0	0	0	
7	0	0	0	0	1021	1021	0	0	0	0	
8	0	0	0	0	1021	1021	0	0	0	0	
9	0	0	0	0	1021	1021	0	0	0	0	
10	0	0	0	0	1021	1021	0	0	0	0	
11	0	0	0	0	1021	1021	0	0	0	0	
12	0	0	0	0	1021	1021	0	0	0	0	
13	0	0	0	0	1021	1021	0	0	0	0	
14	0	0	0	0	1021	1021	0	0	0	0	
15	0	0	0	0	1021	1021	0	0	0	0	
0	0	0	0	0	1021	1021	0	0	0	0	
1	0	0	0	0	1021	1021	0	0	0	0	
2	0	0	0	0	1021	1021	0	0	0	0	
3	0	0	0	0	1021	1021	0	0	0	0	
4	0	0	0	0	1021	1021	0	0	0	0	
5	0	0	0	0	1021	1021	0	0	0	0	
6	0	0	0	0	1021	1021	0	0	0	0	
7	0	0	0	0	1021	1022	0	0	0	0	
8	0	0	0	0	1021	1021	0	0	0	0	
9	0	0	0	0	1021	1021	0	0	0	0	
10	0	0	0	0	1021	1021	0	0	0	0	
11	0	0	0	0	1021	1021	0	0	0	0	
12	0	0	0	0	1021	1022	0	0	0	0	
13	0	0	0	0	1021	1021	0	0	0	0	
14	0	0	0	0	1021	1021	0	0	0	0	
15	0	0	0	0	1021	1021	0	0	0	0	
0	0	0	0	0	1021	1021	0	0	0	0	
1	0	0	0	0	1021	1022	0	0	0	0	
2	0	0	0	0	1021	1021	0	0	0	0	
3	0	0	0	0	1021	1021	0	0	0	0	
4	0	0	0	0	1021	1021	0	0	0	0	
5	0	0	0	0	1021	1021	0	0	0	0	
6	0	0	0	0	1021	1022	0	0	0	0	
7	0	0	0	0	1021	1021	0	0	0	0	
8	0	0	0	0	1021	1021	0	0	0	0	
9	0	0	0	0	1021	1021	0	0	0	0	
10	0	0	0	0	1021	1021	0	0	0	0	
11	0	0	0	0	1021	1021	0	0	0	0	
12	0	0	0	0	1021	1021	0	0	0	0	
13	0	0	0	0	1021	1021	0	0	0	0	
14	0	0	0	0	1021	1021	0	0	0	0	
15	0	0	0	0	1021	1021	0	0	0	0	
0	0	0	0	0	1021	1022	0	0	0	0	
1	0	0	0	0	1021	1021	0	0	0	0	
2	0	0	0	0	1021	1021	0	0	0	0	
3	0	0	0	0	1021	1021	0	0	0	0	
4	0	0	0	0	1021	1021	0	0	0	0	
5	0	0	0	0	1021	1022	0	0	0	0	
6	0	0	0	0	1021	1021	0	0	0	0	
7	0	0	0	0	1021	1021	0	0	0	0	
8	0	0	0	0	1021	1021	0	0	0	0	
9	0	0	0	0	1021	1021	0	0	0	0	
10	0	0	0	0	1021	1022	0	0	0	0	
11	0	0	0	0	1021	1021	0	0	0	0	
12	0	0	0	0	1021	1021	0	0	0	0	
13	0	0	0	0	1021	1021	0	0	0	0	
14	0	0	0	0	1021	1021	0	0	0	0	
15	0	0	0	0	1021	1022	0	0	0	0	
0	0	0	0	0	1021	1021	0	0	0	0	
1	0	0	0	0	1021	1021	0	0	0	0	
2	0	0	0	0	1021	1021	0	0	0	0	
3	0	0	0	0	1021	1022	0	0	0	0	
4	0	0	0	0	1021	1022	0	0	0	0	
5	0	0	0	0	1021	1021	0	0	0	0	
6	0	0	0	0	1021	1021	0	0	0	0	
7	0	0	0	0	1021	1021	0	0	0	0	
8	0	0	0	0	1021	1021	0	0	0	0	
9	0	0	0	0	1021	1022	0	0	0	0	
10	0	0	0	0	1021	1021	0	0	0	0	
11	0	0	0	0	1021	1021	0	0	0	0	
12	0	0	0	0	1021	1021	0	0	0	0	
13	0	0	0	0	1021	1021	0	0	0	0	
14	0	0	0	0	1021	1022	0	0	0	0	
15	0	0	0	0	1021	1021	0	0	0	0	
0	0	0	0	0	1021	1021	0	0	0	0	
1	0	0	0	0	1021	1021	0	0	0	0	
2	0	0	0	0	1021	1021	0	0	0	0	
3	0	0	0	0	1021	1022	0	0	0	0	
4	0	0	0	0	1021	1021	0	0	0	0	
5	0	0	0	0	1021	1021	0	0	0	0	
6	0	0	0	0	1021	1021	0	0	0	0	
7	0	0	0	0	1021	1021	0	0	0	0	
8	0	0	0	0	1021	1022	0	0	0	0	
9	0	0	0	0	1021	1021	0	0	0	0	
10	0	0	0	0	1021	1021	0	0	0	0	
11	0	0	0	0	1021	1021	0	0	0	0	
12	0	0	0	0	1021	1021	0	0	0	0	
13	0	0	0	0	1021	1022	0	0	0	0	
14	0	0	0	0	1021	1022	0	0	0	0	
15	0	0	0	0	1021	1021	0	0	0	0	
0	0	0	0	0	1021	1021	0	0	0	0	
1	0	0	0	0	1021	1021	0	0	0	0	
2	0	0	0	0	1021	1021	0	0	0	0	
3	0	0	0	0	1021	1021	0	0	0	0	
4	0	0	0	0	1021	1021	0	0	0	0	
5	0	0	0	0	1021	1021	0	0	0	0	
6	0	0	0	0	1021	1021	0	0	0	0	
7	0	0	0	0	1021	1022	0	0	0	0	
8	0	0	0	0	1021	1021	0	0	0	0	
9	0	0	0	0	1021	1021	0	0	0	0	
10	0	0	0	0	1021	1021	0	0	0	0	
11	0	0	0	0	1021	1021	0	0	0	0	
12	0	0	0	0	1021	1021	0	0	0	0	
13	0	0	0	0	1021	1021	0	0	0	0	
14	0	0	0	0	1021	1021	0	0	0	0	
15	0	0	0	0	1021	1021	0	0	0	0	
0	0	0	0	0	1021	1021	0	0	0	0	
1	0	0	0	0	1021	1022	0	0	0	0	
2	0	0	0	0	1021	1021	0	0	0	0	
3	0	0	0	0	1021	1021	0	0	0	0	
4	0	0	0	0	1021	1021	0	0	0	0	
5	0	0	0	0	1021	1021	0	0	0	0	
6	0	0	0	0	1021	1022	0	0	0	0	
7	0	0	0	0	1021	1021	0	0	0	0	
8	0	0	0	0	1021	1021	0	0	0	0	
9	0	0	0	0	1021	1021	0	0	0	0	
10	0	0	0	0	1021	1021	0	0	0	0	
11	0	0	0	0	1021	1022	0	0	0	0	
12	0	0	0	0	1021	1021	0	0	0	0	
13	0	0	0	0	1021	1021	0	0	0	0	
14	0	0	0	0	1021	1021	0	0	0	0	
15	0	0	0	0	1021	1021	0	0	0	0	
0	0	0	0	0	1021	1022	0	0	0	0	
1	0	0	0	0	1021	1021	0	0	0	0	
2	0	0	0	0	1021	1021	0	0	0	0	
3	0	0	0	0	1021	1021	0	0	0	0	
4	0	0	0	0	1021	1021	0	0	0	0	
5	0	0	0	0	1021	1021	0	0	0	0	
6	0	0	0	0	1021	1022	0	0	0	0	
7	0	0	0	0	1021	1021	0	0	0	0	
8	0	0	0	0	1021	1021	0	0	0	0	
9	0	0	0	0	1021	1021	0	0	0	0	
10	0	0	0	0	1021	1021	0	0	0	0	
11	0	0	0	0	1021	1021	0	0	0	0	
12	0	0	0	0	1021	1021	0	0	0	0	
13	0	0	0	0	1021	1021	0	0	0	0	
14	0	0	0	0	1021	1021	0	0	0	0	
15	0	0	0	0	1021	1022	0	0	0	0	
0	0	0	0	0	1021	1021	0	0	0	0	
1	0	0	0	0	1021	1021	0	0	0	0	
2	0	0	0	0	1021	1021	0	0	0	0	
3	0	0	0	0	1021	1021	0	0	0	0	
4	0	0	0	0	1021	1022	0	0	0	0	
5	0	0	0	0	1021	1021	0	0	0	0	
6	0	0	0	0	1021	1021	0	0	0	0	
7	0	0	0	0	1021	1021	0	0	0	0	
8	0	0	0	0	1021	1021	0	0	0	0	
9	0	0	0	0	1021	1022	0	0	0	0	
10	0	0	0	0	1021	1021	0	0	0	0	
11	0	0	0	0	1021	1021	0	0	0	0	
12	0	0	0	0	1021	1021	0	0	0	0	
13	0	0	0	0	1021	1021	0	0	0	0	
14	0	0	0	0	1021	1022	0	0	0	0	
15	0	0	0	0	1021	1021	0	0	0	0	
0	0	0	0	0	1021	1021	0	0	0	0	
1	0	0	0	0	1021	1021	0	0	0	0	
2	0	0	0	0	1021	1021	0	0	0	0	
3	0	0	0	0	1021	1021	0	0	0	0	
4	0	0	0	0	1021	1021	0	0	0	0	
5	0	0	0	0	1021	1021	0	0	0	0	
6	0	0	0	0	1021	1021	0	0	0	0	
7	0	0	0	0	1021	1021	0	0	0	0	
8	0	0	0	0	1021	1022	0	0	0	0	
9	0	0	0	0	1021	1021	0	0	0	0	
10	0	0	0	0	1021	1021	0	0	0	0	
11	0	0	0	0	1021	1021	0	0	0	0	
12	0	0	0	0	1021	1021	0	0	0	0	
13	0	0	0	0	1021	1022	0	0	0	0	
14	0	0	0	0	1021	1021	0	0	0	0	
15	0	0	0	0	1021	1021	0	0	0	0	
0	0	0	0	0	1021	1021	0	0	0	0	
1	0	0	0	0	1021	1021	0	0	0	0	
2	0	0	0	0	1021	1022	0	0	0	0	
3	0	0	0	0	1021	1021	0	0	0	0	
4	0	0	0	0	1021	1021	0	0	0	0	
5	0	0	0	0	1021	1021	0	0	0	0	
6	0	0	0	0	1021	1021	0	0	0	0	
7	0	0	0	0	1021	1022	0	0	0	0	
8	0	0	0	0	1021	1021	0	0	0	0	
9	0	0	0	0	1021	1021	0	0	0	0	
10	0	0	0	0	1021	1021	0	0	0	0	
11	0	0	0	0	1021	1022	0	0	0	0	
12	0	0	0	0	1021	1022	0	0	0	0	
13	0	0	0	0	1021	1021	0	0	0	0	
14	0	0	0	0	1021	1021	0	0	0	0	
15	0	0	0	0	1021	1021	0	0	0	0	
0	0	0	0	0	1021	1021	0	0	0	0	
1	0	0	0	0	1021	1022	0	0	0	0	
2	0	0	0	0	1021	1021	0	0	0	0	
3	0	0	0	0	1021	1021	0	0	0	0	
4	0	0	0	0	1021	1021	0	0	0	0	
5	0	0	0	0	1021	1021	0	0	0	0	
6	0	0	0	0	1021	1022	0	0	0	0	
7	0	0	0	0	1021	1022	0	0	0	0	
8	0	0	0	0	1021	1021	0	0	0	0	
9	0	0	0	0	1021	1021	0	0	0	0	
10	0	0	0	0	1021	1021	0	0	0	0	
11	0	0	0	0	1021	1021	0	0	0	0	
12	0	0	0	0	1021	1022	0	0	0	0	
13	0	0	0	0	1021	1021	0	0	0	0	
14	0	0	0	0	1021	1021	0	0	0	0	
15	0	0	0	0	1021	1021	0	0	0	0	
0	0	0	0	0	1021	1022	0	0	0	0	
1	0	0	0	0	1021	1021	0	0	0	0	
2	0	0	0	0	1021	1021	0	0	0	0	
3	0	0	0	0	1021	1021	0	0	0	0	
4	0	0	0	0	1021	1021	0	0	0	0	
5	0	0	0	0	1021	1022	0	0	0	0	
6	0	0	0	0	1021	1021	0	0	0	0	
7	0	0	0	0	1021	1021	0	0	0	0	
8	0	0	0	0	1021	1021	0	0	0	0	
9	0	0	0	0	1021	1021	0	0	0	0	
10	0	0	0	0	1021	1022	0	0	0	0	
11	0	0	0	0	1021	1022	0	0	0	0	
12	0	0	0	0	1021	1021	0	0	0	0	
13	0	0	0	0	1021	1022	0	0	0	0	
14	0	0	0	0	1021	1021	0	0	0	0	
15	0	0	0	0	1021	1022	0	0	0	0	
0	0	0	0	0	1021	1022	0	0	0	0	
1	0	0	0	0	1021	1021	0	0	0	0	
2	0	0	0	0	1021	1021	0	0	0	0	
3	0	0	0	0	1021	1021	0	0	0	0	
4	0	0	0	0	1021	1022	0	0	0	0	
5	0	0	0	0	1021	1022	0	0	0	0	
6	0	0	0	0	1021	1021	0	0	0	0	
7	0	0	0	0	1021	1021	0	0	0	0	
8	0	0	0	0	1021	1021	0	0	0	0	
9	0	0	0	0	1021	1021	0	0	0	0	
10	0	0	0	0	1021	1021	0	0	0	0	
11	0	0	0	0	1021	1021	0	0	0	0	
12	0	0	0	0	1021	1021	0	0	0	0	
13	0	0	0	0	1021	1021	0	0	0	0	
14	0	0	0	0	1021	1022	0	0	0	0	
15	0	0	0	0	1021	1021	0	0	0	0	
0	0	0	0	0	1021	1021	0	0	0	0	
1	0	0	0	0	1021	1021	0	0	0	0	
2	0	0	0	0	1021	1021	0	0	0	0	
3	0	0	0	0	1021	1021	0	0	0	0	
4	0	0	0	0	1021	1021	0	0	0	0	
5	0	0	0	0	1021	1021	0	0	0	0	
6	0	0	0	0	1021	1021	0	0	0	0	
7	0	0	0	0	1021	1021	0	0	0	0	
8	0	0	0	0	1021	1021	0	0	0	0	
9	0	0	0	0	1021	1021	0	0	0	0	
10	0	0	0	0	1021	1021	0	0	0	0	
11	0	0	0	0	1021	1021	0	0	0	0	
12	0	0	0	0	1021	1021	0	0	0	0	
13	0	0	0	0	1021	1021	0	0	0	0	
14	0	0	0	0	1021	1022	0	0	0	0	
15	0	0	0	0	1021	1021	0	0	0	0	
0	0	0	0	0	1021	1021	0	0	0	0	
1	0	0	0	0	1021	1021	0	0	0	0	
2	0	0	0	0	1021	1022	0	0	0	0	
3	0	0	0	0	1021	1021	0	0	0	0	
4	0	0	0	0	1021	1021	0	0	0	0	
5	0	0	0	0	1021	1021	0	0	0	0	
6	0	0	0	0	1021	1021	0	0	0	0	
7	0	0	0	0	1021	1021	0	0	0	0	
8	0	0	0	0	1021	1021	0	0	0	0	
9	0	0	0	0	1021	1021	0	0	0	0	
10	0	0	0	0	1021	1021	0	0	0	0	
11	0	0	0	0	1021	1021	0	0	0	0	
12	0	0	0	0	1021	1022	0	0	0	0	
13	0	0	0	0	1021	1021	0	0	0	0	
14	0	0	0	0	1021	1021	0	0	0	0	
15	0	0	0	0	1021	1021	0	0	0	0	
0	0	0	0	0	1021	1021	0	0	0	0	
1	0	0	0	0	1021	1022	0	0	0	0	
2	0	0	0	0	1021	1021	0	0	0	0	
3	0	0	0	0	1021	1021	0	0	0	0	
4	0	0	0	0	1021	1021	0	0	0	0	
5	0	0	0	0	1021	1021	0	0	0	0	
6	0	0	0	0	1021	1022	0	0	0	0	
7	0	0	0	0	1021	1021	0	0	0	0	
8	0	0	0	0	1021	1021	0	0	0	0	
9	0	0	0	0	1021	1021	0	0	0	0	
10	0	0	0	0	1021	1021	0	0	0	0	
11	0	0	0	0	1021	1022	0	0	0	0	
12	0	0	0	0	1021	1021	0	0	0	0	
13	0	0	0	0	1021	1021	0	0	0	0	
14	0	0	0	0	1021	1021	0	0	0	0	
15	0	0	0	0	1021	1021	0	0	0	0	
0	0	0	0	0	1021	1021	0	0	0	0	
1	0	0	0	0	1021	1021	0	0	0	0	
2	0	0	0	0	1021	1021	0	0	0	0	
3	0	0	0	0	1021	1021	0	0	0	0	
4	0	0	0	0	1021	1021	0	0	0	0	
5	0	0	0	0	1021	1022	0	0	0	0	
6	0	0	0	0	1021	1021	0	0	0	0	
7	0	0	0	0	1021	1021	0	0	0	0	
8	0	0	0	0	1021	1021	0	0	0	0	
9	0	0	0	0	1021	1021	0	0	0	0	
10	0	0	0	0	1017	1022	0	0	0	0	
11	0	0	0	0	1012	1021	0	0	0	0	
12	0	0	0	0	1005	1021	0	0	0	0	
13	0	0	0	0	996	1021	0	0	0	0	
14	0	0	0	0	986	1021	0	0	0	0	
15	0	0	0	0	977	1022	0	0	0	0	
0	0	0	0	0	971	1021	0	0	0	0	
1	0	0	0	0	967	1021	0	0	0	0	
2	0	0	0	0	967	1021	0	0	0	0	
3	0	0	0	0	973	1021	0	0	0	0	
4	0	0	0	0	983	1022	0	0	0	0	
5	0	0	0	0	998	1021	0	0	0	0	
6	0	0	0	0	1016	1021	0	0	0	0	
7	0	0	0	0	1021	1021	0	0	0	0	
8	0	0	0	0	1021	1021	0	0	0	0	
9	0	0	0	0	1021	1021	0	0	0	0	
10	0	0	0	0	1021	1021	0	0	0	0	
11	0	0	0	0	1021	1021	0	0	0	0	
12	0	0	0	0	1021	1021	0	0	0	0	
13	0	0	0	0	1021	1021	0	0	0	0	
14	0	0	0	0	1021	1022	0	0	0	0	
15	0	0	0	0	1021	1021	0	0	0	0	
0	0	0	0	0	1021	1021	0	0	0	0	
1	0	0	0	0	1021	1021	0	0	0	0	
2	0	0	0	0	1021	1021	0	0	0	0	
3	0	0	0	0	1021	1022	0	0	0	0	
4	0	0	0	0	1021	1021	0	0	0	0	
5	0	0	0	0	1021	1021	0	0	0	0	
6	0	0	0	0	1021	1021	0	0	0	0	
7	0	0	0	0	1021	1021	0	0	0	0	
8	0	0	0	0	1021	1021	0	0	0	0	
9	0	0	0	0	1021	1021	0	0	0	0	
10	0	0	0	0	1021	1021	0	0	0	0	
11	0	0	0	0	1021	1021	0	0	0	0	
12	0	0	0	0	1021	1021	0	0	0	0	
13	0	0	0	0	1021	1021	0	0	0	0	
14	0	0	0	0	1021	1021	0	0	0	0	
15	0	0	0	0	1021	1021	0	0	0	0	
0	0	0	0	0	1020	1021	0	0	0	0	
1	0	0	0	0	1015	1021	0	0	0	0	
2	0	0	0	0	1007	1021	0	0	0	0	
3	0	0	0	0	997	1021	0	0	0	0	
4	0	0	0	0	988	1021	0	0	0	0	
5	0	0	0	0	977	1021	0	0	0	0	
6	0	0	0	0	967	1022	0	0	0	0	
7	0	0	0	0	959	1022	0	0	0	0	
8	0	0	0	0	953	1021	0	0	0	0	
9	0	0	0	0	949	1021	0	0	0	0	
10	0	0	0	0	947	1021	0	0	0	0	
11	0	0	0	0	949	1021	0	0	0	0	
12	0	0	0	0	953	1022	0	0	0	0	
13	0	0	0	0	961	1022	0	0	0	0	
14	0	0	0	0	970	1021	0	0	0	0	
15	0	0	0	0	981	1021	0	0	0	0	
0	0	0	0	0	993	1021	0	0	0	0	
1	0	0	0	0	1005	1022	0	0	0	0	
2	0	0	0	0	1015	1022	0	0	0	0	
3	0	0	0	0	1021	1021	0	0	0	0	
4	0	0	0	0	1021	1021	0	0	0	0	
5	0	0	0	0	1021	1021	0	0	0	0	
6	0	0	0	0	1021	1022	0	0	0	0	
7	0	0	0	0	1021	1021	0	0	0	0	
8	0	0	0	0	1021	1021	0	0	0	0	
9	0	0	0	0	1021	1021	0	0	0	0	
10	0	0	0	0	1021	1022	0	0	0	0	
11	0	0	0	0	1021	1022	0	0	0	0	
12	0	0	0	0	1021	1021	0	0	0	0	
13	0	0	0	0	1021	1021	0	0	0	0	
14	0	0	0	0	1021	1021	0	0	0	0	
15	0	0	0	0	1021	1021	0	0	0	0	
0	0	0	0	0	1021	1022	0	0	0	0	
1	0	0	0	0	1021	1021	0	0	0	0	
2	0	0	0	0	1021	1021	0	0	0	0	
3	0	0	0	0	1021	1021	0	0	0	0	
4	0	0	0	0	1021	1021	0	0	0	0	
5	0	0	0	0	1021	1022	0	0	0	0	
6	0	0	0	0	1021	1021	0	0	0	0	
7	0	0	0	0	1021	1021	0	0	0	0	
8	0	0	0	0	1021	1021	0	0	0	0	
9	0	0	0	0	1021	1021	0	0	0	0	
10	0	0	0	0	1021	1022	0	0	0	0	
11	0	0	0	0	1021	1021	0	0	0	0	
12	0	0	0	0	1021	1021	0	0	0	0	
13	0	0	0	0	1021	1021	0	0	0	0	
14	0	0	0	0	1021	1021	0	0	0	0	
15	0	0	0	0	1021	1021	0	0	0	0	
0	0	0	0	0	1021	1021	0	0	0	0	
1	0	0	0	0	1021	1021	0	0	0	0	
2	0	0	0	0	1021	1021	0	0	0	0	
3	0	0	0	0	1021	1022	0	0	0	0	
4	0	0	0	0	1021	1022	0	0	0	0	
5	0	0	0	0	1021	1021	0	0	0	0	
6	0	0	0	0	1021	1021	0	0	0	0	
7	0	0	0	0	1021	1021	0	0	0	0	
8	0	0	0	0	1021	1021	0	0	0	0	
9	0	0	0	0	1021	1021	0	0	0	0	
10	0	0	0	0	1021	1021	0	0	0	0	
11	0	0	0	0	1021	1021	0	0	0	0	
12	0	0	0	0	1021	1021	0	0	0	0	
13	0	0	0	0	1021	1021	0	0	0	0	
14	0	0	0	0	1021	1022	0	0	0	0	
15	0	0	0	0	1021	1022	0	0	0	0	
0	0	0	0	0	1021	1021	0	0	0	0	
1	0	0	0	0	1021	1021	0	0	0	0	
2	0	0	0	0	1021	1022	0	0	0	0	
3	0	0	0	0	1021	1022	0	0	0	0	
4	0	0	0	0	1021	1021	0	0	0	0	
5	0	0	0	0	1021	1021	0	0	0	0	
6	0	0	0	0	1021	1021	0	0	0	0	
7	0	0	0	0	1021	1021	0	0	0	0	
8	0	0	0	0	1021	1022	0	0	0	0	
9	0	0	0	0	1021	1022	0	0	0	0	
10	0	0	0	0	1021	1021	0	0	0	0	
11	0	0	0	0	1021	1021	0	0	0	0	
12	0	0	0	0	1021	1021	0	0	0	0	
13	0	0	0	0	1021	1022	0	0	0	0	
14	0	0	0	0	1021	1022	0	0	0	0	
15	0	0	0	0	1021	1021	0	0	0	0	
0	0	0	0	0	1021	1021	0	0	0	0	
1	0	0	0	0	1021	1021	0	0	0	0	
2	0	0	0	0	1021	1021	0	0	0	0	
3	0	0	0	0	1021	1022	0	0	0	0	
4	0	0	0	0	1021	1021	0	0	0	0	
5	0	0	0	0	1021	1021	0	0	0	0	
6	0	0	0	0	1021	1021	0	0	0	0	
7	0	0	0	0	1021	1021	0	0	0	0	
8	0	0	0	0	1021	1021	0	0	0	0	
9	0	0	0	0	1021	1021	0	0	0	0	
10	0	0	0	0	1021	1021	0	0	0	0	
11	0	0	0	0	1021	1021	0	0	0	0	
12	0	0	0	0	1021	1021	0	0	0	0	
13	0	0	0	0	1021	1022	0	0	0	0	
14	0	0	0	0	1021	1021	0	0	0	0	
15	0	0	0	0	1021	1021	0	0	0	0	
0	0	0	0	0	1021	1021	0	0	0	0	
1	0	0	0	0	1021	1022	0	0	0	0	
2	0	0	0	0	1019	1022	0	0	0	0	
3	0	0	0	0	1016	1021	0	0	0	0	
4	0	0	0	0	1011	1022	0	0	0	0	
5	0	0	0	0	1008	1021	0	0	0	0	
6	0	0	0	0	1004	1022	0	0	0	0	
7	0	0	0	0	1001	1021	0	0	0	0	
8	0	0	0	0	1000	1021	0	0	0	0	
9	0	0	0	0	999	1021	0	0	0	0	
10	0	0	0	0	1000	1021	0	0	0	0	
11	0	0	0	0	1002	1022	0	0	0	0	
12	0	0	0	0	1004	1022	0	0	0	0	
13	0	0	0	0	1007	1021	0	0	0	0	
14	0	0	0	0	1008	1021	0	0	0	0	
15	0	0	0	0	1009	1021	0	0	0	0	
0	0	0	0	0	1008	1022	0	0	0	0	
1	0	0	0	0	1006	1021	0	0	0	0	
2	0	0	0	0	1001	1021	0	0	0	0	
3	0	0	0	0	995	1021	0	0	0	0	
4	0	0	0	0	986	1021	0	0	0	0	
5	0	0	0	0	977	1022	0	0	0	0	
6	0	0	0	0	966	1022	0	0	0	0	
7	0	0	0	0	957	1021	0	0	0	0	
8	0	0	0	0	947	1021	0	0	0	0	
9	0	0	0	0	940	1021	0	0	0	0	
10	0	0	0	0	933	1022	0	0	0	0	
11	0	0	0	0	930	1021	0	0	0	0	
12	0	0	0	0	928	1021	0	0	0	0	
13	0	0	0	0	930	1021	0	0	0	0	
14	0	0	0	0	933	1021	0	0	0	0	
15	0	0	0	0	938	1021	0	0	0	0	
0	0	0	0	0	944	1021	0	0	0	0	
1	0	0	0	0	952	1021	0	0	0	0	
2	0	0	0	0	959	1021	0	0	0	0	
3	0	0	0	0	967	1021	0	0	0	0	
4	0	0	0	0	974	1021	0	0	0	0	
5	0	0	0	0	979	1021	0	0	0	0	
6	0	0	0	0	985	1021	0	0	0	0	
7	0	0	0	0	986	1021	0	0	0	0	
8	0	0	0	0	986	1022	0	0	0	0	
9	0	0	0	0	985	1021	0	0	0	0	
10	0	0	0	0	983	1021	0	0	0	0	
11	0	0	0	0	981	1021	0	0	0	0	
12	0	0	0	0	979	1021	0	0	0	0	
13	0	0	0	0	976	1021	0	0	0	0	
14	0	0	0	0	974	1022	0	0	0	0	
15	0	0	0	0	972	1021	0	0	0	0	
0	0	0	0	0	970	1021	0	0	0	0	
1	0	0	0	0	967	1021	0	0	0	0	
2	0	0	0	0	965	1021	0	0	0	0	
3	0	0	0	0	963	1022	0	0	0	0	
4	0	0	0	0	960	1022	0	0	0	0	
5	0	0	0	0	959	1021	0	0	0	0	
6	0	0	0	0	956	1021	0	0	0	0	
7	0	0	0	0	953	1021	0	0	0	0	
8	0	0	0	0	951	1021	0	0	0	0	
9	0	0	0	0	948	1022	0	0	0	0	
10	0	0	0	0	947	1021	0	0	0	0	
11	0	0	0	0	946	1021	0	0	0	0	
12	0	0	0	0	946	1021	0	0	0	0	
13	0	0	0	0	946	1022	0	0	0	0	
14	0	0	0	0	947	1021	0	0	0	0	
15	0	0	0	0	948	1021	0	0	0	0	
0	0	0	0	0	950	1021	0	0	0	0	
1	0	0	0	0	952	1021	0	0	0	0	
2	0	0	0	0	955	1022	0	0	0	0	
3	0	0	0	0	957	1022	0	0	0	0	
4	0	0	0	0	960	1021	0	0	0	0	
5	0	0	0	0	962	1021	0	0	0	0	
6	0	0	0	0	962	1021	0	0	0	0	
7	0	0	0	0	961	1022	0	0	0	0	
8	0	0	0	0	960	1022	0	0	0	0	
9	0	0	0	0	957	1021	0	0	0	0	
10	0	0	0	0	952	1021	0	0	0	0	
11	0	0	0	0	947	1021	0	0	0	0	
12	0	0	0	0	940	1021	0	0	0	0	
13	0	0	0	0	934	1022	0	0	0	0	
14	0	0	0	0	928	1021	0	0	0	0	
15	0	0	0	0	923	1021	0	0	0	0	
0	0	0	0	0	918	1021	0	0	0	0	
1	0	0	0	0	915	1021	0	0	0	0	
2	0	0	0	0	911	1022	0	0	0	0	
3	0	0	0	0	910	1021	0	0	0	0	
4	0	0	0	0	909	1021	0	0	0	0	
5	0	0	0	0	908	1021	0	0	0	0	
6	0	0	0	0	907	1021	0	0	0	0	
7	0	0	0	0	906	1021	0	0	0	0	
8	0	0	0	0	906	1021	0	0	0	0	
9	0	0	0	0	904	1021	0	0	0	0	
10	0	0	0	0	903	1021	0	0	0	0	
11	0	0	0	0	900	1022	0	0	0	0	
12	0	0	0	0	896	1022	0	0	0	0	
13	0	0	0	0	892	1021	0	0	0	0	
14	0	0	0	0	887	1021	0	0	0	0	
15	0	0	0	0	881	1021	0	0	0	0	
0	0	0	0	0	873	1022	0	0	0	0	
1	0	0	0	0	865	1021	0	0	0	0	
2	0	0	0	0	856	1021	0	0	0	0	
3	0	0	0	0	846	1021	0	0	0	0	
4	0	0	0	0	836	1021	0	0	0	0	
5	0	0	0	0	826	1021	0	0	0	0	
6	0	0	0	0	816	1022	0	0	0	0	
7	0	0	0	0	807	1021	0	0	0	0	
8	0	0	0	0	797	1021	0	0	0	0	
9	0	0	0	0	787	1021	0	0	0	0	
10	0	0	0	0	778	1021	0	0	0	0	
11	0	0	0	0	768	1022	0	0	0	0	
12	0	0	0	0	760	1021	0	0	0	0	
13	0	0	0	0	751	1021	0	0	0	0	
14	0	0	0	0	742	1021	0	0	0	0	
15	0	0	0	0	732	1021	0	0	0	0	
0	0	0	0	0	723	1021	0	0	0	0	
1	0	0	0	0	716	1021	0	0	0	0	
2	0	0	0	0	710	1021	0	0	0	0	
3	0	0	0	0	707	1021	0	0	0	0	
4	0	0	0	0	708	1022	0	0	0	0	
5	0	0	0	0	714	1022	0	0	0	0	
6	0	0	0	0	726	1021	0	0	0	0	
7	0	0	0	0	742	1021	0	0	0	0	
8	0	0	0	0	762	1021	0	0	0	0	
9	0	0	0	0	787	1021	0	0	0	0	
10	0	0	0	0	814	1021	0	0	0	0	
11	0	0	0	0	845	1021	0	0	0	0	
12	0	0	0	0	876	1021	0	0	0	0	
13	0	0	0	0	907	1021	0	0	0	0	
14	0	0	0	0	936	1021	0	0	0	0	
15	0	0	0	0	963	1021	0	0	0	0	
0	0	0	0	0	986	1021	0	0	0	0	
1	0	0	0	0	1004	1021	0	0	0	0	
2	0	0	0	0	1017	1021	0	0	0	0	
3	0	0	0	0	1021	1022	0	0	0	0	
4	0	0	0	0	1021	1021	0	0	0	0	
5	0	0	0	0	1014	1021	0	0	0	0	
6	0	0	0	0	1002	1021	0	0	0	0	
7	0	0	0	0	987	1021	0	0	0	0	
8	0	0	0	0	968	1021	0	0	0	0	
9	0	0	0	0	950	1022	0	0	0	0	
10	0	0	0	0	935	1021	0	0	0	0	
11	0	0	0	0	920	1021	0	0	0	0	
12	0	0	0	0	910	1021	0	0	0	0	
13	0	0	0	0	905	1022	0	0	0	0	
14	0	0	0	0	903	1022	0	0	0	0	
15	0	0	0	0	908	1021	0	0	0	0	
0	0	0	0	0	917	1021	0	0	0	0	
1	0	0	0	0	929	1021	0	0	0	0	
2	0	0	0	0	942	1021	0	0	0	0	
3	0	0	0	0	955	1022	0	0	0	0	
4	0	0	0	0	968	1021	0	0	0	0	
5	0	0	0	0	978	1021	0	0	0	0	
6	0	0	0	0	985	1021	0	0	0	0	
7	0	0	0	0	987	1021	0	0	0	0	
8	0	0	0	0	985	1021	0	0	0	0	
9	0	0	0	0	978	1021	0	0	0	0	
10	0	0	0	0	968	1021	0	0	0	0	
11	0	0	0	0	956	1021	0	0	0	0	
12	0	0	0	0	942	1021	0	0	0	0	
13	0	0	0	0	927	1022	0	0	0	0	
14	0	0	0	0	915	1021	0	0	0	0	
15	0	0	0	0	904	1021	0	0	0	0	
0	0	0	0	0	896	1021	0	0	0	0	
1	0	0	0	0	891	1021	0	0	0	0	
2	0	0	0	0	889	1021	0	0	0	0	
3	0	0	0	0	891	1021	0	0	0	0	
4	0	0	0	0	896	1021	0	0	0	0	
5	0	0	0	0	903	1021	0	0	0	0	
6	0	0	0	0	911	1021	0	0	0	0	
7	0	0	0	0	922	1021	0	0	0	0	
8	0	0	0	0	933	1021	0	0	0	0	
9	0	0	0	0	944	1021	0	0	0	0	
10	0	0	0	0	954	1021	0	0	0	0	
11	0	0	0	0	963	1021	0	0	0	0	
12	0	0	0	0	968	1022	0	0	0	0	
13	0	0	0	0	974	1021	0	0	0	0	
14	0	0	0	0	975	1021	0	0	0	0	
15	0	0	0	0	975	1021	0	0	0	0	
0	0	0	0	0	973	1022	0	0	0	0	
1	0	0	0	0	971	1021	0	0	0	0	
2	0	0	0	0	967	1021	0	0	0	0	
3	0	0	0	0	964	1021	0	0	0	0	
4	0	0	0	0	962	1022	0	0	0	0	
5	0	0	0	0	961	1022	0	0	0	0	
6	0	0	0	0	961	1021	0	0	0	0	
7	0	0	0	0	962	1021	0	0	0	0	
8	0	0	0	0	963	1021	0	0	0	0	
9	0	0	0	0	965	1021	0	0	0	0	
10	0	0	0	0	967	1022	0	0	0	0	
11	0	0	0	0	967	1022	0	0	0	0	
12	0	0	0	0	969	1021	0	0	0	0	
13	0	0	0	0	970	1021	0	0	0	0	
14	0	0	0	0	971	1021	0	0	0	0	
15	0	0	0	0	971	1022	0	0	0	0	
0	0	0	0	0	971	1021	0	0	0	0	
1	0	0	0	0	971	1021	0	0	0	0	
2	0	0	0	0	969	1021	0	0	0	0	
3	0	0	0	0	967	1021	0	0	0	0	
4	0	0	0	0	964	1021	0	0	0	0	
5	0	0	0	0	960	1021	0	0	0	0	
6	0	0	0	0	955	1021	0	0	0	0	
7	0	0	0	0	948	1021	0	0	0	0	
8	0	0	0	0	941	1021	0	0	0	0	
9	0	0	0	0	933	1022	0	0	0	0	
10	0	0	0	0	926	1021	0	0	0	0	
11	0	0	0	0	918	1021	0	0	0	0	
12	0	0	0	0	911	1021	0	0	0	0	
13	0	0	0	0	906	1021	0	0	0	0	
14	0	0	0	0	903	1022	0	0	0	0	
15	0	0	0	0	902	1021	0	0	0	0	
0	0	0	0	0	903	1021	0	0	0	0	
1	0	0	0	0	904	1021	0	0	0	0	
2	0	0	0	0	907	1021	0	0	0	0	
3	0	0	0	0	909	1021	0	0	0	0	
4	0	0	0	0	910	1021	0	0	0	0	
5	0	0	0	0	910	1021	0	0	0	0	
6	0	0	0	0	908	1021	0	0	0	0	
7	0	0	0	0	904	1021	0	0	0	0	
8	0	0	0	0	898	1022	0	0	0	0	
9	0	0	0	0	892	1021	0	0	0	0	
10	0	0	0	0	886	1021	0	0	0	0	
11	0	0	0	0	880	1021	0	0	0	0	
12	0	0	0	0	874	1021	0	0	0	0	
13	0	0	0	0	870	1021	0	0	0	0	
14	0	0	0	0	867	1022	0	0	0	0	
15	0	0	0	0	866	1021	0	0	0	0	
0	0	0	0	0	867	1021	0	0	0	0	
1	0	0	0	0	869	1021	0	0	0	0	
2	0	0	0	0	871	1022	0	0	0	0	
3	0	0	0	0	873	1021	0	0	0	0	
4	0	0	0	0	875	1021	0	0	0	0	
5	0	0	0	0	876	1021	0	0	0	0	
6	0	0	0	0	877	1021	0	0	0	0	
7	0	0	0	0	877	1022	0	0	0	0	
8	0	0	0	0	878	1021	0	0	0	0	
9	0	0	0	0	879	1021	0	0	0	0	
10	0	0	0	0	881	1021	0	0	0	0	
11	0	0	0	0	883	1021	0	0	0	0	
12	0	0	0	0	884	1021	0	0	0	0	
13	0	0	0	0	887	1021	0	0	0	0	
14	0	0	0	0	889	1021	0	0	0	0	
15	0	0	0	0	890	1021	0	0	0	0	
0	0	0	0	0	891	1021	0	0	0	0	
1	0	0	0	0	891	1022	0	0	0	0	
2	0	0	0	0	891	1021	0	0	0	0	
3	0	0	0	0	890	1021	0	0	0	0	
4	0	0	0	0	888	1021	0	0	0	0	
5	0	0	0	0	886	1021	0	0	0	0	
6	0	0	0	0	883	1022	0	0	0	0	
7	0	0	0	0	881	1022	0	0	0	0	
8	0	0	0	0	880	1021	0	0	0	0	
9	0	0	0	0	880	1021	0	0	0	0	
10	0	0	0	0	881	1021	0	0	0	0	
11	0	0	0	0	885	1021	0	0	0	0	
12	0	0	0	0	889	1022	0	0	0	0	
13	0	0	0	0	897	1021	0	0	0	0	
14	0	0	0	0	905	1021	0	0	0	0	
15	0	0	0	0	912	1021	0	0	0	0	
0	0	0	0	0	920	1022	0	0	0	0	
1	0	0	0	0	926	1021	0	0	0	0	
2	0	0	0	0	930	1021	0	0	0	0	
3	0	0	0	0	932	1021	0	0	0	0	
4	0	0	0	0	932	1021	0	0	0	0	
5	0	0	0	0	929	1021	0	0	0	0	
6	0	0	0	0	924	1022	0	0	0	0	
7	0	0	0	0	918	1021	0	0	0	0	
8	0	0	0	0	911	1021	0	0	0	0	
9	0	0	0	0	903	1021	0	0	0	0	
10	0	0	0	0	895	1021	0	0	0	0	
11	0	0	0	0	886	1022	0	0	0	0	
12	0	0	0	0	879	1021	0	0	0	0	
13	0	0	0	0	873	1021	0	0	0	0	
14	0	0	0	0	867	1021	0	0	0	0	
15	0	0	0	0	863	1021	0	0	0	0	
0	0	0	0	0	858	1022	0	0	0	0	
1	0	0	0	0	855	1021	0	0	0	0	
2	0	0	0	0	851	1021	0	0	0	0	
3	0	0	0	0	848	1021	0	0	0	0	
4	0	0	0	0	844	1022	0	0	0	0	
5	0	0	0	0	840	1021	0	0	0	0	
6	0	0	0	0	836	1021	0	0	0	0	
7	0	0	0	0	831	1021	0	0	0	0	
8	0	0	0	0	827	1021	0	0	0	0	
9	0	0	0	0	823	1022	0	0	0	0	
10	0	0	0	0	820	1021	0	0	0	0	
11	0	0	0	0	818	1021	0	0	0	0	
12	0	0	0	0	818	1021	0	0	0	0	
13	0	0	0	0	819	1021	0	0	0	0	
14	0	0	0	0	822	1022	0	0	0	0	
15	0	0	0	0	826	1021	0	0	0	0	
0	0	0	0	0	831	1021	0	0	0	0	
1	0	0	0	0	837	1021	0	0	0	0	
2	0	0	0	0	842	1021	0	0	0	0	
3	0	0	0	0	847	1021	0	0	0	0	
4	0	0	0	0	851	1021	0	0	0	0	
5	0	0	0	0	852	1021	0	0	0	0	
6	0	0	0	0	851	1021	0	0	0	0	
7	0	0	0	0	847	1021	0	0	0	0	
8	0	0	0	0	841	1022	0	0	0	0	
9	0	0	0	0	834	1022	0	0	0	0	
10	0	0	0	0	825	1021	0	0	0	0	
11	0	0	0	0	817	1021	0	0	0	0	
12	0	0	0	0	808	1021	0	0	0	0	
13	0	0	0	0	801	1021	0	0	0	0	
14	0	0	0	0	796	1021	0	0	0	0	
15	0	0	0	0	792	1021	0	0	0	0	
0	0	0	0	0	789	1021	0	0	0	0	
1	0	0	0	0	788	1021	0	0	0	0	
2	0	0	0	0	788	1022	0	0	0	0	
3	0	0	0	0	792	1022	0	0	0	0	
4	0	0	0	0	796	1021	0	0	0	0	
5	0	0	0	0	803	1021	0	0	0	0	
6	0	0	0	0	810	1021	0	0	0	0	
7	0	0	0	0	818	1021	0	0	0	0	
8	0	0	0	0	828	1021	0	0	0	0	
9	0	0	0	0	838	1021	0	0	0	0	
10	0	0	0	0	847	1021	0	0	0	0	
11	0	0	0	0	855	1021	0	0	0	0	
12	0	0	0	0	862	1022	0	0	0	0	
13	0	0	0	0	866	1022	0	0	0	0	
14	0	0	0	0	869	1021	0	0	0	0	
15	0	0	0	0	868	1021	0	0	0	0	
0	0	0	0	0	864	1021	0	0	0	0	
1	0	0	0	0	857	1021	0	0	0	0	
2	0	0	0	0	847	1021	0	0	0	0	
3	0	0	0	0	835	1021	0	0	0	0	
4	0	0	0	0	822	1021	0	0	0	0	
5	0	0	0	0	810	1021	0	0	0	0	
6	0	0	0	0	799	1021	0	0	0	0	
7	0	0	0	0	789	1022	0	0	0	0	
8	0	0	0	0	783	1021	0	0	0	0	
9	0	0	0	0	780	1021	0	0	0	0	
10	0	0	0	0	780	1021	0	0	0	0	
11	0	0	0	0	783	1021	0	0	0	0	
12	0	0	0	0	788	1022	0	0	0	0	
13	0	0	0	0	798	1021	0	0	0	0	
14	0	0	0	0	809	1021	0	0	0	0	
15	0	0	0	0	823	1021	0	0	0	0	
0	0	0	0	0	836	1022	0	0	0	0	
1	0	0	0	0	851	1022	0	0	0	0	
2	0	0	0	0	865	1021	0	0	0	0	
3	0	0	0	0	878	1021	0	0	0	0	
4	0	0	0	0	888	1021	0	0	0	0	
5	0	0	0	0	895	1022	0	0	0	0	
6	0	0	0	0	899	1021	0	0	0	0	
7	0	0	0	0	900	1021	0	0	0	0	
8	0	0	0	0	898	1021	0	0	0	0	
9	0	0	0	0	893	1021	0	0	0	0	
10	0	0	0	0	886	1021	0	0	0	0	
11	0	0	0	0	875	1022	0	0	0	0	
12	0	0	0	0	864	1021	0	0	0	0	
13	0	0	0	0	851	1021	0	0	0	0	
14	0	0	0	0	839	1021	0	0	0	0	
15	0	0	0	0	827	1021	0	0	0	0	
0	0	0	0	0	816	1021	0	0	0	0	
1	0	0	0	0	807	1021	0	0	0	0	
2	0	0	0	0	799	1021	0	0	0	0	
3	0	0	0	0	792	1021	0	0	0	0	
4	0	0	0	0	787	1021	0	0	0	0	
5	0	0	0	0	783	1022	0	0	0	0	
6	0	0	0	0	783	1021	0	0	0	0	
7	0	0	0	0	783	1021	0	0	0	0	
8	0	0	0	0	785	1021	0	0	0	0	
9	0	0	0	0	788	1021	0	0	0	0	
10	0	0	0	0	794	1021	0	0	0	0	
11	0	0	0	0	801	1021	0	0	0	0	
12	0	0	0	0	808	1021	0	0	0	0	
13	0	0	0	0	818	1021	0	0	0	0	
14	0	0	0	0	829	1021	0	0	0	0	
15	0	0	0	0	840	1021	0	0	0	0	
0	0	0	0	0	853	1021	0	0	0	0	
1	0	0	0	0	864	1021	0	0	0	0	
2	0	0	0	0	875	1021	0	0	0	0	
3	0	0	0	0	882	1021	0	0	0	0	
4	0	0	0	0	888	1022	0	0	0	0	
5	0	0	0	0	890	1021	0	0	0	0	
6	0	0	0	0	888	1021	0	0	0	0	
7	0	0	0	0	882	1021	0	0	0	0	
8	0	0	0	0	873	1021	0	0	0	0	
9	0	0	0	0	861	1021	0	0	0	0	
10	0	0	0	0	848	1021	0	0	0	0	
11	0	0	0	0	833	1021	0	0	0	0	
12	0	0	0	0	819	1021	0	0	0	0	
13	0	0	0	0	804	1022	0	0	0	0	
14	0	0	0	0	792	1021	0	0	0	0	
15	0	0	0	0	781	1021	0	0	0	0	
0	0	0	0	0	772	1021	0	0	0	0	
1	0	0	0	0	765	1021	0	0	0	0	
2	0	0	0	0	760	1022	0	0	0	0	
3	0	0	0	0	757	1021	0	0	0	0	
4	0	0	0	0	755	1021	0	0	0	0	
5	0	0	0	0	755	1021	0	0	0	0	
6	0	0	0	0	755	1021	0	0	0	0	
7	0	0	0	0	756	1021	0	0	0	0	
8	0	0	0	0	759	1021	0	0	0	0	
9	0	0	0	0	763	1021	0	0	0	0	
10	0	0	0	0	769	1021	0	0	0	0	
11	0	0	0	0	776	1021	0	0	0	0	
12	0	0	0	0	785	1021	0	0	0	0	
13	0	0	0	0	796	1021	0	0	0	0	
14	0	0	0	0	808	1021	0	0	0	0	
15	0	0	0	0	820	1021	0	0	0	0	
0	0	0	0	0	831	1021	0	0	0	0	
1	0	0	0	0	840	1021	0	0	0	0	
2	0	0	0	0	848	1021	0	0	0	0	
3	0	0	0	0	853	1021	0	0	0	0	
4	0	0	0	0	854	1021	0	0	0	0	
5	0	0	0	0	851	1021	0	0	0	0	
6	0	0	0	0	845	1022	0	0	0	0	
7	0	0	0	0	835	1021	0	0	0	0	
8	0	0	0	0	823	1021	0	0	0	0	
9	0	0	0	0	808	1021	0	0	0	0	
10	0	0	0	0	793	1021	0	0	0	0	
11	0	0	0	0	777	1021	0	0	0	0	
12	0	0	0	0	763	1021	0	0	0	0	
13	0	0	0	0	750	1021	0	0	0	0	
14	0	0	0	0	740	1021	0	0	0	0	
15	0	0	0	0	732	1021	0	0	0	0	
0	0	0	0	0	727	1021	0	0	0	0	
1	0	0	0	0	724	1021	0	0	0	0	
2	0	0	0	0	724	1021	0	0	0	0	
3	0	0	0	0	725	1021	0	0	0	0	
4	0	0	0	0	728	1021	0	0	0	0	
5	0	0	0	0	731	1021	0	0	0	0	
6	0	0	0	0	735	1022	0	0	0	0	
7	0	0	0	0	739	1021	0	0	0	0	
8	0	0	0	0	743	1021	0	0	0	0	
9	0	0	0	0	748	1021	0	0	0	0	
10	0	0	0	0	751	1021	0	0	0	0	
11	0	0	0	0	755	1022	0	0	0	0	
12	0	0	0	0	761	1021	0	0	0	0	
13	0	0	0	0	764	1022	0	0	0	0	
14	0	0	0	0	771	1021	0	0	0	0	
15	0	0	0	0	776	1021	0	0	0	0	
0	0	0	0	0	782	1021	0	0	0	0	
1	0	0	0	0	790	1021	0	0	0	0	
2	0	0	0	0	798	1021	0	0	0	0	
3	0	0	0	0	805	1021	0	0	0	0	
4	0	0	0	0	814	1021	0	0	0	0	
5	0	0	0	0	820	1022	0	0	0	0	
6	0	0	0	0	828	1021	0	0	0	0	
7	0	0	0	0	833	1021	0	0	0	0	
8	0	0	0	0	837	1021	0	0	0	0	
9	0	0	0	0	839	1022	0	0	0	0	
10	0	0	0	0	839	1022	0	0	0	0	
11	0	0	0	0	836	1021	0	0	0	0	
12	0	0	0	0	831	1021	0	0	0	0	
13	0	0	0	0	824	1021	0	0	0	0	
14	0	0	0	0	814	1021	0	0	0	0	
15	0	0	0	0	804	1022	0	0	0	0	
0	0	0	0	0	794	1021	0	0	0	0	
1	0	0	0	0	783	1021	0	0	0	0	
2	0	0	0	0	774	1021	0	0	0	0	
3	0	0	0	0	765	1022	0	0	0	0	
4	0	0	0	0	758	1021	0	0	0	0	
5	0	0	0	0	752	1021	0	0	0	0	
6	0	0	0	0	747	1021	0	0	0	0	
7	0	0	0	0	744	1021	0	0	0	0	
8	0	0	0	0	741	1021	0	0	0	0	
9	0	0	0	0	739	1021	0	0	0	0	
10	0	0	0	0	736	1021	0	0	0	0	
11	0	0	0	0	734	1021	0	0	0	0	
12	0	0	0	0	732	1021	0	0	0	0	
13	0	0	0	0	729	1021	0	0	0	0	
14	0	0	0	0	727	1022	0	0	0	0	
15	0	0	0	0	724	1021	0	0	0	0	
0	0	0	0	0	723	1021	0	0	0	0	
1	0	0	0	0	721	1021	0	0	0	0	
2	0	0	0	0	721	1021	0	0	0	0	
3	0	0	0	0	721	1022	0	0	0	0	
4	0	0	0	0	723	1021	0	0	0	0	
5	0	0	0	0	725	1021	0	0	0	0	
6	0	0	0	0	728	1021	0	0	0	0	
7	0	0	0	0	732	1021	0	0	0	0	
8	0	0	0	0	737	1022	0	0	0	0	
9	0	0	0	0	742	1021	0	0	0	0	
10	0	0	0	0	747	1021	0	0	0	0	
11	0	0	0	0	752	1021	0	0	0	0	
12	0	0	0	0	756	1022	0	0	0	0	
13	0	0	0	0	758	1021	0	0	0	0	
14	0	0	0	0	759	1021	0	0	0	0	
15	0	0	0	0	757	1021	0	0	0	0	
0	0	0	0	0	752	1021	0	0	0	0	
1	0	0	0	0	743	1021	0	0	0	0	
2	0	0	0	0	733	1021	0	0	0	0	
3	0	0	0	0	721	1021	0	0	0	0	
4	0	0	0	0	708	1021	0	0	0	0	
5	0	0	0	0	696	1021	0	0	0	0	
6	0	0	0	0	684	1022	0	0	0	0	
7	0	0	0	0	674	1022	0	0	0	0	
8	0	0	0	0	667	1021	0	0	0	0	
9	0	0	0	0	661	1021	0	0	0	0	
10	0	0	0	0	657	1021	0	0	0	0	
11	0	0	0	0	655	1021	0	0	0	0	
12	0	0	0	0	653	1022	0	0	0	0	
13	0	0	0	0	653	1021	0	0	0	0	
14	0	0	0	0	653	1021	0	0	0	0	
15	0	0	0	0	653	1021	0	0	0	0	
0	0	0	0	0	653	1021	0	0	0	0	
1	0	0	0	0	652	1021	0	0	0	0	
2	0	0	0	0	654	1021	0	0	0	0	
3	0	0	0	0	655	1021	0	0	0	0	
4	0	0	0	0	659	1021	0	0	0	0	
5	0	0	0	0	664	1021	0	0	0	0	
6	0	0	0	0	671	1021	0	0	0	0	
7	0	0	0	0	681	1021	0	0	0	0	
8	0	0	0	0	692	1021	0	0	0	0	
9	0	0	0	0	706	1021	0	0	0	0	
10	0	0	0	0	720	1021	0	0	0	0	
11	0	0	0	0	735	1022	0	0	0	0	
12	0	0	0	0	749	1021	0	0	0	0	
13	0	0	0	0	762	1021	0	0	0	0	
14	0	0	0	0	773	1021	0	0	0	0	
15	0	0	0	0	782	1021	0	0	0	0	
0	0	0	0	0	788	1021	0	0	0	0	
1	0	0	0	0	792	1021	0	0	0	0	
2	0	0	0	0	793	1021	0	0	0	0	
3	0	0	0	0	791	1021	0	0	0	0	
4	0	0	0	0	786	1022	0	0	0	0	
5	0	0	0	0	777	1022	0	0	0	0	
6	0	0	0	0	767	1021	0	0	0	0	
7	0	0	0	0	753	1021	0	0	0	0	
8	0	0	0	0	739	1021	0	0	0	0	
9	0	0	0	0	723	1021	0	0	0	0	
10	0	0	0	0	709	1021	0	0	0	0	
11	0	0	0	0	696	1021	0	0	0	0	
12	0	0	0	0	686	1021	0	0	0	0	
13	0	0	0	0	677	1021	0	0	0	0	
14	0	0	0	0	671	1021	0	0	0	0	
15	0	0	0	0	668	1022	0	0	0	0	
0	0	0	0	0	668	1021	0	0	0	0	
1	0	0	0	0	671	1021	0	0	0	0	
2	0	0	0	0	678	1021	0	0	0	0	
3	0	0	0	0	688	1021	0	0	0	0	
4	0	0	0	0	700	1022	0	0	0	0	
5	0	0	0	0	713	1021	0	0	0	0	
6	0	0	0	0	725	1021	0	0	0	0	
7	0	0	0	0	736	1021	0	0	0	0	
8	0	0	0	0	743	1022	0	0	0	0	
9	0	0	0	0	746	1022	0	0	0	0	
10	0	0	0	0	746	1021	0	0	0	0	
11	0	0	0	0	741	1021	0	0	0	0	
12	0	0	0	0	733	1021	0	0	0	0	
13	0	0	0	0	723	1021	0	0	0	0	
14	0	0	0	0	711	1021	0	0	0	0	
15	0	0	0	0	702	1021	0	0	0	0	
0	0	0	0	0	693	1021	0	0	0	0	
1	0	0	0	0	688	1021	0	0	0	0	
2	0	0	0	0	686	1021	0	0	0	0	
3	0	0	0	0	687	1021	0	0	0	0	
4	0	0	0	0	691	1021	0	0	0	0	
5	0	0	0	0	699	1021	0	0	0	0	
6	0	0	0	0	710	1021	0	0	0	0	
7	0	0	0	0	721	1021	0	0	0	0	
8	0	0	0	0	734	1021	0	0	0	0	
9	0	0	0	0	746	1021	0	0	0	0	
10	0	0	0	0	756	1021	0	0	0	0	
11	0	0	0	0	765	1021	0	0	0	0	
12	0	0	0	0	771	1022	0	0	0	0	
13	0	0	0	0	773	1022	0	0	0	0	
14	0	0	0	0	773	1021	0	0	0	0	
15	0	0	0	0	770	1021	0	0	0	0	
0	0	0	0	0	765	1021	0	0	0	0	
1	0	0	0	0	759	1021	0	0	0	0	
2	0	0	0	0	752	1021	0	0	0	0	
3	0	0	0	0	746	1021	0	0	0	0	
4	0	0	0	0	740	1021	0	0	0	0	
5	0	0	0	0	735	1021	0	0	0	0	
6	0	0	0	0	732	1021	0	0	0	0	
7	0	0	0	0	731	1021	0	0	0	0	
8	0	0	0	0	731	1021	0	0	0	0	
9	0	0	0	0	734	1021	0	0	0	0	
10	0	0	0	0	737	1021	0	0	0	0	
11	0	0	0	0	742	1021	0	0	0	0	
12	0	0	0	0	748	1021	0	0	0	0	
13	0	0	0	0	755	1021	0	0	0	0	
14	0	0	0	0	761	1021	0	0	0	0	
15	0	0	0	0	767	1021	0	0	0	0	
0	0	0	0	0	771	1022	0	0	0	0	
1	0	0	0	0	775	1021	0	0	0	0	
2	0	0	0	0	779	1021	0	0	0	0	
3	0	0	0	0	780	1021	0	0	0	0	
4	0	0	0	0	780	1021	0	0	0	0	
5	0	0	0	0	779	1022	0	0	0	0	
6	0	0	0	0	777	1021	0	0	0	0	
7	0	0	0	0	775	1021	0	0	0	0	
8	0	0	0	0	771	1021	0	0	0	0	
9	0	0	0	0	768	1021	0	0	0	0	
10	0	0	0	0	764	1022	0	0	0	0	
11	0	0	0	0	760	1021	0	0	0	0	
12	0	0	0	0	756	1021	0	0	0	0	
13	0	0	0	0	752	1021	0	0	0	0	
14	0	0	0	0	748	1021	0	0	0	0	
15	0	0	0	0	741	1021	0	0	0	0	
0	0	0	0	0	734	1021	0	0	0	0	
1	0	0	0	0	725	1021	0	0	0	0	
2	0	0	0	0	716	1021	0	0	0	0	
3	0	0	0	0	706	1021	0	0	0	0	
4	0	0	0	0	696	1022	0	0	0	0	
5	0	0	0	0	688	1021	0	0	0	0	
6	0	0	0	0	680	1021	0	0	0	0	
7	0	0	0	0	675	1021	0	0	0	0	
8	0	0	0	0	673	1021	0	0	0	0	
9	0	0	0	0	672	1021	0	0	0	0	
10	0	0	0	0	675	1021	0	0	0	0	
11	0	0	0	0	679	1021	0	0	0	0	
12	0	0	0	0	684	1021	0	0	0	0	
13	0	0	0	0	688	1021	0	0	0	0	
14	0	0	0	0	694	1021	0	0	0	0	
15	0	0	0	0	698	1021	0	0	0	0	
0	0	0	0	0	702	1021	0	0	0	0	
1	0	0	0	0	705	1021	0	0	0	0	
2	0	0	0	0	709	1021	0	0	0	0	
3	0	0	0	0	713	1021	0	0	0	0	
4	0	0	0	0	716	1021	0	0	0	0	
5	0	0	0	0	719	1021	0	0	0	0	
6	0	0	0	0	721	1021	0	0	0	0	
7	0	0	0	0	724	1021	0	0	0	0	
8	0	0	0	0	726	1021	0	0	0	0	
9	0	0	0	0	727	1021	0	0	0	0	
10	0	0	0	0	728	1021	0	0	0	0	
11	0	0	0	0	728	1021	0	0	0	0	
12	0	0	0	0	726	1021	0	0	0	0	
13	0	0	0	0	724	1021	0	0	0	0	
14	0	0	0	0	720	1022	0	0	0	0	
15	0	0	0	0	716	1021	0	0	0	0	
0	0	0	0	0	712	1021	0	0	0	0	
1	0	0	0	0	708	1021	0	0	0	0	
2	0	0	0	0	705	1021	0	0	0	0	
3	0	0	0	0	703	1021	0	0	0	0	
4	0	0	0	0	702	1021	0	0	0	0	
5	0	0	0	0	702	1021	0	0	0	0	
6	0	0	0	0	704	1021	0	0	0	0	
7	0	0	0	0	708	1021	0	0	0	0	
8	0	0	0	0	712	1022	0	0	0	0	
9	0	0	0	0	718	1021	0	0	0	0	
10	0	0	0	0	723	1021	0	0	0	0	
11	0	0	0	0	727	1021	0	0	0	0	
12	0	0	0	0	728	1021	0	0	0	0	
13	0	0	0	0	729	1022	0	0	0	0	
14	0	0	0	0	728	1021	0	0	0	0	
15	0	0	0	0	726	1021	0	0	0	0	
0	0	0	0	0	721	1021	0	0	0	0	
1	0	0	0	0	715	1021	0	0	0	0	
2	0	0	0	0	708	1021	0	0	0	0	
3	0	0	0	0	702	1021	0	0	0	0	
4	0	0	0	0	696	1021	0	0	0	0	
5	0	0	0	0	692	1021	0	0	0	0	
6	0	0	0	0	689	1021	0	0	0	0	
7	0	0	0	0	688	1021	0	0	0	0	
8	0	0	0	0	689	1021	0	0	0	0	
9	0	0	0	0	690	1021	0	0	0	0	
10	0	0	0	0	691	1021	0	0	0	0	
11	0	0	0	0	692	1021	0	0	0	0	
12	0	0	0	0	693	1021	0	0	0	0	
13	0	0	0	0	694	1021	0	0	0	0	
14	0	0	0	0	695	1021	0	0	0	0	
15	0	0	0	0	696	1021	0	0	0	0	
0	0	0	0	0	696	1021	0	0	0	0	
1	0	0	0	0	697	1021	0	0	0	0	
2	0	0	0	0	698	1021	0	0	0	0	
3	0	0	0	0	698	1021	0	0	0	0	
4	0	0	0	0	697	1021	0	0	0	0	
5	0	0	0	0	697	1021	0	0	0	0	
6	0	0	0	0	697	1021	0	0	0	0	
7	0	0	0	0	698	1021	0	0	0	0	
8	0	0	0	0	699	1021	0	0	0	0	
9	0	0	0	0	701	1021	0	0	0	0	
10	0	0	0	0	704	1021	0	0	0	0	
11	0	0	0	0	708	1022	0	0	0	0	
12	0	0	0	0	714	1021	0	0	0	0	
13	0	0	0	0	719	1021	0	0	0	0	
14	0	0	0	0	723	1021	0	0	0	0	
15	0	0	0	0	724	1021	0	0	0	0	
0	0	0	0	0	724	1021	0	0	0	0	
1	0	0	0	0	720	1021	0	0	0	0	
2	0	0	0	0	714	1021	0	0	0	0	
3	0	0	0	0	707	1021	0	0	0	0	
4	0	0	0	0	699	1021	0	0	0	0	
5	0	0	0	0	692	1022	0	0	0	0	
6	0	0	0	0	688	1021	0	0	0	0	
7	0	0	0	0	686	1021	0	0	0	0	
8	0	0	0	0	687	1021	0	0	0	0	
9	0	0	0	0	691	1021	0	0	0	0	
10	0	0	0	0	697	1022	0	0	0	0	
11	0	0	0	0	707	1021	0	0	0	0	
12	0	0	0	0	716	1021	0	0	0	0	
13	0	0	0	0	726	1021	0	0	0	0	
14	0	0	0	0	736	1021	0	0	0	0	
15	0	0	0	0	744	1022	0	0	0	0	
0	0	0	0	0	751	1021	0	0	0	0	
1	0	0	0	0	755	1021	0	0	0	0	
2	0	0	0	0	757	1021	0	0	0	0	
3	0	0	0	0	757	1022	0	0	0	0	
4	0	0	0	0	754	1021	0	0	0	0	
5	0	0	0	0	750	1021	0	0	0	0	
6	0	0	0	0	745	1021	0	0	0	0	
7	0	0	0	0	739	1022	0	0	0	0	
8	0	0	0	0	735	1021	0	0	0	0	
9	0	0	0	0	731	1022	0	0	0	0	
10	0	0	0	0	727	1021	0	0	0	0	
11	0	0	0	0	723	1021	0	0	0	0	
12	0	0	0	0	718	1021	0	0	0	0	
13	0	0	0	0	712	1021	0	0	0	0	
14	0	0	0	0	705	1021	0	0	0	0	
15	0	0	0	0	696	1021	0	0	0	0	
0	0	0	0	0	686	1021	0	0	0	0	
1	0	0	0	0	675	1021	0	0	0	0	
2	0	0	0	0	667	1021	0	0	0	0	
3	0	0	0	0	660	1022	0	0	0	0	
4	0	0	0	0	657	1021	0	0	0	0	
5	0	0	0	0	656	1021	0	0	0	0	
6	0	0	0	0	661	1021	0	0	0	0	
7	0	0	0	0	668	1021	0	0	0	0	
8	0	0	0	0	678	1021	0	0	0	0	
9	0	0	0	0	689	1021	0	0	0	0	
10	0	0	0	0	702	1021	0	0	0	0	
11	0	0	0	0	713	1022	0	0	0	0	
12	0	0	0	0	723	1022	0	0	0	0	
13	0	0	0	0	730	1022	0	0	0	0	
14	0	0	0	0	735	1021	0	0	0	0	
15	0	0	0	0	735	1021	0	0	0	0	
0	0	0	0	0	733	1021	0	0	0	0	
1	0	0	0	0	728	1021	0	0	0	0	
2	0	0	0	0	720	1022	0	0	0	0	
3	0	0	0	0	713	1021	0	0	0	0	
4	0	0	0	0	704	1021	0	0	0	0	
5	0	0	0	0	694	1021	0	0	0	0	
6	0	0	0	0	684	1021	0	0	0	0	
7	0	0	0	0	673	1022	0	0	0	0	
8	0	0	0	0	664	1021	0	0	0	0	
9	0	0	0	0	655	1021	0	0	0	0	
10	0	0	0	0	647	1021	0	0	0	0	
11	0	0	0	0	639	1022	0	0	0	0	
12	0	0	0	0	630	1022	0	0	0	0	
13	0	0	0	0	621	1021	0	0	0	0	
14	0	0	0	0	610	1021	0	0	0	0	
15	0	0	0	0	598	1021	0	0	0	0	
0	0	0	0	0	584	1021	0	0	0	0	
1	0	0	0	0	569	1022	0	0	0	0	
2	0	0	0	0	554	1021	0	0	0	0	
3	0	0	0	0	538	1021	0	0	0	0	
4	0	0	0	0	522	1021	0	0	0	0	
5	0	0	0	0	507	1022	0	0	0	0	
6	0	0	0	0	494	1021	0	0	0	0	
7	0	0	0	0	484	1021	0	0	0	0	
8	0	0	0	0	478	1021	0	0	0	0	
9	0	0	0	0	475	1021	0	0	0	0	
10	0	0	0	0	478	1021	0	0	0	0	
11	0	0	0	0	485	1021	0	0	0	0	
12	0	0	0	0	499	1021	0	0	0	0	
13	0	0	0	0	518	1021	0	0	0	0	
14	0	0	0	0	541	1021	0	0	0	0	
15	0	0	0	0	569	1021	0	0	0	0	
0	0	0	0	0	600	1021	0	0	0	0	
1	0	0	0	0	633	1021	0	0	0	0	
2	0	0	0	0	668	1021	0	0	0	0	
3	0	0	0	0	701	1021	0	0	0	0	
4	0	0	0	0	733	1021	0	0	0	0	
5	0	0	0	0	761	1022	0	0	0	0	
6	0	0	0	0	787	1021	0	0	0	0	
7	0	0	0	0	807	1021	0	0	0	0	
8	0	0	0	0	822	1021	0	0	0	0	
9	0	0	0	0	830	1021	0	0	0	0	
10	0	0	0	0	831	1021	0	0	0	0	
11	0	0	0	0	826	1021	0	0	0	0	
12	0	0	0	0	815	1021	0	0	0	0	
13	0	0	0	0	800	1021	0	0	0	0	
14	0	0	0	0	782	1021	0	0	0	0	
15	0	0	0	0	763	1021	0	0	0	0	
0	0	0	0	0	744	1021	0	0	0	0	
1	0	0	0	0	727	1021	0	0	0	0	
2	0	0	0	0	711	1021	0	0	0	0	
3	0	0	0	0	700	1022	0	0	0	0	
4	0	0	0	0	694	1022	0	0	0	0	
5	0	0	0	0	692	1021	0	0	0	0	
6	0	0	0	0	694	1021	0	0	0	0	
7	0	0	0	0	699	1021	0	0	0	0	
8	0	0	0	0	707	1021	0	0	0	0	
9	0	0	0	0	716	1021	0	0	0	0	
10	0	0	0	0	727	1021	0	0	0	0	
11	0	0	0	0	736	1021	0	0	0	0	
12	0	0	0	0	744	1021	0	0	0	0	
13	0	0	0	0	749	1021	0	0	0	0	
14	0	0	0	0	751	1022	0	0	0	0	
15	0	0	0	0	751	1021	0	0	0	0	
0	0	0	0	0	747	1021	0	0	0	0	
1	0	0	0	0	740	1021	0	0	0	0	
2	0	0	0	0	731	1021	0	0	0	0	
3	0	0	0	0	719	1022	0	0	0	0	
4	0	0	0	0	709	1021	0	0	0	0	
5	0	0	0	0	699	1021	0	0	0	0	
6	0	0	0	0	692	1021	0	0	0	0	
7	0	0	0	0	687	1021	0	0	0	0	
8	0	0	0	0	684	1021	0	0	0	0	
9	0	0	0	0	684	1021	0	0	0	0	
10	0	0	0	0	687	1021	0	0	0	0	
11	0	0	0	0	691	1021	0	0	0	0	
12	0	0	0	0	698	1022	0	0	0	0	
13	0	0	0	0	707	1022	0	0	0	0	
14	0	0	0	0	716	1021	0	0	0	0	
15	0	0	0	0	727	1021	0	0	0	0	
0	0	0	0	0	737	1021	0	0	0	0	
1	0	0	0	0	747	1021	0	0	0	0	
2	0	0	0	0	755	1021	0	0	0	0	
3	0	0	0	0	762	1021	0	0	0	0	
4	0	0	0	0	767	1021	0	0	0	0	
5	0	0	0	0	770	1021	0	0	0	0	
6	0	0	0	0	772	1022	0	0	0	0	
7	0	0	0	0	773	1021	0	0	0	0	
8	0	0	0	0	772	1021	0	0	0	0	
9	0	0	0	0	771	1021	0	0	0	0	
10	0	0	0	0	769	1021	0	0	0	0	
11	0	0	0	0	765	1021	0	0	0	0	
12	0	0	0	0	760	1022	0	0	0	0	
13	0	0	0	0	754	1021	0	0	0	0	
14	0	0	0	0	746	1021	0	0	0	0	
15	0	0	0	0	737	1021	0	0	0	0	
0	0	0	0	0	728	1021	0	0	0	0	
1	0	0	0	0	719	1022	0	0	0	0	
2	0	0	0	0	711	1021	0	0	0	0	
3	0	0	0	0	706	1021	0	0	0	0	
4	0	0	0	0	703	1021	0	0	0	0	
5	0	0	0	0	703	1021	0	0	0	0	
6	0	0	0	0	705	1022	0	0	0	0	
7	0	0	0	0	711	1021	0	0	0	0	
8	0	0	0	0	720	1021	0	0	0	0	
9	0	0	0	0	731	1021	0	0	0	0	
10	0	0	0	0	742	1022	0	0	0	0	
11	0	0	0	0	754	1022	0	0	0	0	
12	0	0	0	0	767	1021	0	0	0	0	
13	0	0	0	0	778	1021	0	0	0	0	
14	0	0	0	0	788	1021	0	0	0	0	
15	0	0	0	0	795	1021	0	0	0	0	
0	0	0	0	0	799	1021	0	0	0	0	
1	0	0	0	0	799	1021	0	0	0	0	
2	0	0	0	0	796	1021	0	0	0	0	
3	0	0	0	0	790	1022	0	0	0	0	
4	0	0	0	0	780	1021	0	0	0	0	
5	0	0	0	0	768	1021	0	0	0	0	
6	0	0	0	0	753	1021	0	0	0	0	
7	0	0	0	0	738	1021	0	0	0	0	
8	0	0	0	0	723	1021	0	0	0	0	
9	0	0	0	0	709	1022	0	0	0	0	
10	0	0	0	0	697	1022	0	0	0	0	
11	0	0	0	0	689	1021	0	0	0	0	
12	0	0	0	0	685	1021	0	0	0	0	
13	0	0	0	0	684	1021	0	0	0	0	
14	0	0	0	0	687	1021	0	0	0	0	
15	0	0	0	0	692	1021	0	0	0	0	
0	0	0	0	0	700	1021	0	0	0	0	
1	0	0	0	0	709	1021	0	0	0	0	
2	0	0	0	0	719	1021	0	0	0	0	
3	0	0	0	0	728	1022	0	0	0	0	
4	0	0	0	0	737	1022	0	0	0	0	
5	0	0	0	0	744	1021	0	0	0	0	
6	0	0	0	0	749	1021	0	0	0	0	
7	0	0	0	0	752	1021	0	0	0	0	
8	0	0	0	0	753	1021	0	0	0	0	
9	0	0	0	0	752	1022	0	0	0	0	
10	0	0	0	0	752	1021	0	0	0	0	
11	0	0	0	0	750	1021	0	0	0	0	
12	0	0	0	0	748	1021	0	0	0	0	
13	0	0	0	0	747	1021	0	0	0	0	
14	0	0	0	0	745	1022	0	0	0	0	
15	0	0	0	0	743	1021	0	0	0	0	
0	0	0	0	0	742	1021	0	0	0	0	
1	0	0	0	0	740	1021	0	0	0	0	
2	0	0	0	0	739	1022	0	0	0	0	
3	0	0	0	0	737	1022	0	0	0	0	
4	0	0	0	0	736	1021	0	0	0	0	
5	0	0	0	0	733	1021	0	0	0	0	
6	0	0	0	0	732	1021	0	0	0	0	
7	0	0	0	0	731	1021	0	0	0	0	
8	0	0	0	0	731	1022	0	0	0	0	
9	0	0	0	0	734	1021	0	0	0	0	
10	0	0	0	0	737	1021	0	0	0	0	
11	0	0	0	0	743	1022	0	0	0	0	
12	0	0	0	0	751	1021	0	0	0	0	
13	0	0	0	0	759	1022	0	0	0	0	
14	0	0	0	0	770	1021	0	0	0	0	
15	0	0	0	0	781	1021	0	0	0	0	
0	0	0	0	0	792	1021	0	0	0	0	
1	0	0	0	0	802	1022	0	0	0	0	
2	0	0	0	0	812	1022	0	0	0	0	
3	0	0	0	0	821	1021	0	0	0	0	
