# OpenSignals Text File Format. Version 1
# {"": {"position": 0, "device": "", "device name": "", "device connection": "", "sampling rate": 1000, "resolution": [4, 1, 1, 1, 1, 10, 10, 10, 10, 6, 6], "firmware version": 1281, "comments": "", "keywords": "", "mode": 0, "sync interval": 2, "date": "", "time": "", "channels": [1, 2, 3, 4, 5, 6], "sensor": ["RAW", "RAW", "RAW", "RAW", "RAW", "RAW"], "label": ["A1", "A2", "A3", "A4", "A5", "A6"], "column": ["nSeq", "I1", "I2", "O1", "O2", "A1", "A2", "A3", "A4", "A5", "A6"], "special": [{}, {}, {}, {}, {}, {}], "digital IO": [0, 0, 1, 1]}}
# EndOfHeader
0	0	0	0	0	540	541	1021	0	0	0	
1	0	0	0	0	543	544	1021	0	0	0	
2	0	0	0	0	547	547	1021	0	0	0	
3	0	0	0	0	551	551	1021	0	0	0	
4	0	0	0	0	554	554	1021	0	0	0	
5	0	0	0	0	556	556	1021	0	0	0	
6	0	0	0	0	557	556	1021	0	0	0	
7	0	0	0	0	556	556	1021	0	0	0	
8	0	0	0	0	554	554	1021	0	0	0	
9	0	0	0	0	551	552	1021	0	0	0	
10	0	0	0	0	548	550	1021	0	0	0	
11	0	0	0	0	544	547	1021	0	0	0	
12	0	0	0	0	540	542	1021	0	0	0	
13	0	0	0	0	533	536	1020	0	0	0	
14	0	0	0	0	527	530	1021	0	0	0	
15	0	0	0	0	520	524	1021	0	0	0	
0	0	0	0	0	513	516	1021	0	0	0	
1	0	0	0	0	507	509	1021	0	0	0	
2	0	0	0	0	502	504	1021	0	0	0	
3	0	0	0	0	498	500	1021	0	0	0	
4	0	0	0	0	497	497	1021	0	0	0	
5	0	0	0	0	498	497	1021	0	0	0	
6	0	0	0	0	500	499	1021	0	0	0	
7	0	0	0	0	505	504	1021	0	0	0	
8	0	0	0	0	512	509	1021	0	0	0	
9	0	0	0	0	520	516	1021	0	0	0	
10	0	0	0	0	529	524	1021	0	0	0	
11	0	0	0	0	537	533	1021	0	0	0	
12	0	0	0	0	546	541	1020	0	0	0	
13	0	0	0	0	554	548	1021	0	0	0	
14	0	0	0	0	560	555	1021	0	0	0	
15	0	0	0	0	565	559	1021	0	0	0	
0	0	0	0	0	568	563	1021	0	0	0	
1	0	0	0	0	569	563	1021	0	0	0	
2	0	0	0	0	568	563	1021	0	0	0	
3	0	0	0	0	566	561	1021	0	0	0	
4	0	0	0	0	562	558	1021	0	0	0	
5	0	0	0	0	558	555	1021	0	0	0	
6	0	0	0	0	553	551	1020	0	0	0	
7	0	0	0	0	550	548	1021	0	0	0	
8	0	0	0	0	546	544	1021	0	0	0	
9	0	0	0	0	543	542	1021	0	0	0	
10	0	0	0	0	541	541	1020	0	0	0	
11	0	0	0	0	540	540	1021	0	0	0	
12	0	0	0	0	541	542	1021	0	0	0	
13	0	0	0	0	543	543	1021	0	0	0	
14	0	0	0	0	545	546	1021	0	0	0	
15	0	0	0	0	548	549	1021	0	0	0	
0	0	0	0	0	550	551	1021	0	0	0	
1	0	0	0	0	552	554	1021	0	0	0	
2	0	0	0	0	553	556	1021	0	0	0	
3	0	0	0	0	553	556	1021	0	0	0	
4	0	0	0	0	552	557	1021	0	0	0	
5	0	0	0	0	550	556	1021	0	0	0	
6	0	0	0	0	548	553	1021	0	0	0	
7	0	0	0	0	545	550	1021	0	0	0	
8	0	0	0	0	541	546	1021	0	0	0	
9	0	0	0	0	536	541	1021	0	0	0	
10	0	0	0	0	531	536	1021	0	0	0	
11	0	0	0	0	527	532	1021	0	0	0	
12	0	0	0	0	524	528	1021	0	0	0	
13	0	0	0	0	521	525	1021	0	0	0	
14	0	0	0	0	520	524	1020	0	0	0	
15	0	0	0	0	520	525	1021	0	0	0	
0	0	0	0	0	523	527	1021	0	0	0	
1	0	0	0	0	526	531	1021	0	0	0	
2	0	0	0	0	530	535	1021	0	0	0	
3	0	0	0	0	535	540	1021	0	0	0	
4	0	0	0	0	539	544	1021	0	0	0	
5	0	0	0	0	543	547	1021	0	0	0	
6	0	0	0	0	545	550	1021	0	0	0	
7	0	0	0	0	548	552	1021	0	0	0	
8	0	0	0	0	550	554	1021	0	0	0	
9	0	0	0	0	551	556	1021	0	0	0	
10	0	0	0	0	553	557	1021	0	0	0	
11	0	0	0	0	554	558	1021	0	0	0	
12	0	0	0	0	555	558	1021	0	0	0	
13	0	0	0	0	554	557	1021	0	0	0	
14	0	0	0	0	552	556	1021	0	0	0	
15	0	0	0	0	550	553	1021	0	0	0	
0	0	0	0	0	547	550	1021	0	0	0	
1	0	0	0	0	543	547	1021	0	0	0	
2	0	0	0	0	539	544	1021	0	0	0	
3	0	0	0	0	534	541	1021	0	0	0	
4	0	0	0	0	531	539	1021	0	0	0	
5	0	0	0	0	528	537	1021	0	0	0	
6	0	0	0	0	526	536	1021	0	0	0	
7	0	0	0	0	526	536	1021	0	0	0	
8	0	0	0	0	527	538	1021	0	0	0	
9	0	0	0	0	529	541	1021	0	0	0	
10	0	0	0	0	532	544	1021	0	0	0	
11	0	0	0	0	536	547	1021	0	0	0	
12	0	0	0	0	540	550	1021	0	0	0	
13	0	0	0	0	543	552	1021	0	0	0	
14	0	0	0	0	546	553	1021	0	0	0	
15	0	0	0	0	547	553	1021	0	0	0	
0	0	0	0	0	548	552	1021	0	0	0	
1	0	0	0	0	547	550	1021	0	0	0	
2	0	0	0	0	545	547	1021	0	0	0	
3	0	0	0	0	543	544	1021	0	0	0	
4	0	0	0	0	540	541	1021	0	0	0	
5	0	0	0	0	536	538	1021	0	0	0	
6	0	0	0	0	532	535	1020	0	0	0	
7	0	0	0	0	528	531	1021	0	0	0	
8	0	0	0	0	523	527	1021	0	0	0	
9	0	0	0	0	519	524	1021	0	0	0	
10	0	0	0	0	514	521	1021	0	0	0	
11	0	0	0	0	510	518	1021	0	0	0	
12	0	0	0	0	505	515	1020	0	0	0	
13	0	0	0	0	500	511	1021	0	0	0	
14	0	0	0	0	496	508	1021	0	0	0	
15	0	0	0	0	491	503	1021	0	0	0	
0	0	0	0	0	486	496	1021	0	0	0	
1	0	0	0	0	479	490	1021	0	0	0	
2	0	0	0	0	473	482	1021	0	0	0	
3	0	0	0	0	465	473	1021	0	0	0	
4	0	0	0	0	455	462	1021	0	0	0	
5	0	0	0	0	444	449	1021	0	0	0	
6	0	0	0	0	430	435	1021	0	0	0	
7	0	0	0	0	415	420	1021	0	0	0	
8	0	0	0	0	399	403	1021	0	0	0	
9	0	0	0	0	381	387	1021	0	0	0	
10	0	0	0	0	362	370	1021	0	0	0	
11	0	0	0	0	344	354	1021	0	0	0	
12	0	0	0	0	327	339	1021	0	0	0	
13	0	0	0	0	312	327	1021	0	0	0	
14	0	0	0	0	300	317	1021	0	0	0	
15	0	0	0	0	291	310	1021	0	0	0	
0	0	0	0	0	286	307	1021	0	0	0	
1	0	0	0	0	286	307	1021	0	0	0	
2	0	0	0	0	290	311	1021	0	0	0	
3	0	0	0	0	299	318	1021	0	0	0	
4	0	0	0	0	312	329	1021	0	0	0	
5	0	0	0	0	328	343	1021	0	0	0	
6	0	0	0	0	348	360	1021	0	0	0	
7	0	0	0	0	371	379	1021	0	0	0	
8	0	0	0	0	396	400	1021	0	0	0	
9	0	0	0	0	423	422	1021	0	0	0	
10	0	0	0	0	450	445	1021	0	0	0	
11	0	0	0	0	476	467	1021	0	0	0	
12	0	0	0	0	502	489	1021	0	0	0	
13	0	0	0	0	525	510	1021	0	0	0	
14	0	0	0	0	545	529	1021	0	0	0	
15	0	0	0	0	563	547	1021	0	0	0	
0	0	0	0	0	578	561	1021	0	0	0	
1	0	0	0	0	588	574	1021	0	0	0	
2	0	0	0	0	596	583	1021	0	0	0	
3	0	0	0	0	599	590	1021	0	0	0	
4	0	0	0	0	600	594	1021	0	0	0	
5	0	0	0	0	596	595	1021	0	0	0	
6	0	0	0	0	590	593	1021	0	0	0	
7	0	0	0	0	582	589	1021	0	0	0	
8	0	0	0	0	572	583	1021	0	0	0	
9	0	0	0	0	561	575	1021	0	0	0	
10	0	0	0	0	550	568	1021	0	0	0	
11	0	0	0	0	541	560	1021	0	0	0	
12	0	0	0	0	534	553	1021	0	0	0	
13	0	0	0	0	528	548	1021	0	0	0	
14	0	0	0	0	526	544	1021	0	0	0	
15	0	0	0	0	527	543	1021	0	0	0	
0	0	0	0	0	532	545	1021	0	0	0	
1	0	0	0	0	538	548	1021	0	0	0	
2	0	0	0	0	547	553	1021	0	0	0	
3	0	0	0	0	556	560	1021	0	0	0	
4	0	0	0	0	565	566	1021	0	0	0	
5	0	0	0	0	572	572	1021	0	0	0	
6	0	0	0	0	577	576	1021	0	0	0	
7	0	0	0	0	580	579	1021	0	0	0	
8	0	0	0	0	579	580	1021	0	0	0	
9	0	0	0	0	575	579	1021	0	0	0	
10	0	0	0	0	570	576	1021	0	0	0	
11	0	0	0	0	562	571	1021	0	0	0	
12	0	0	0	0	553	566	1021	0	0	0	
13	0	0	0	0	543	559	1020	0	0	0	
14	0	0	0	0	535	552	1021	0	0	0	
15	0	0	0	0	527	546	1021	0	0	0	
0	0	0	0	0	520	540	1021	0	0	0	
1	0	0	0	0	515	537	1021	0	0	0	
2	0	0	0	0	513	534	1020	0	0	0	
3	0	0	0	0	514	533	1021	0	0	0	
4	0	0	0	0	516	534	1021	0	0	0	
5	0	0	0	0	521	537	1021	0	0	0	
6	0	0	0	0	528	542	1021	0	0	0	
7	0	0	0	0	535	548	1020	0	0	0	
8	0	0	0	0	544	555	1021	0	0	0	
9	0	0	0	0	552	562	1021	0	0	0	
10	0	0	0	0	560	569	1021	0	0	0	
11	0	0	0	0	568	575	1021	0	0	0	
12	0	0	0	0	573	582	1021	0	0	0	
13	0	0	0	0	578	587	1021	0	0	0	
14	0	0	0	0	582	591	1021	0	0	0	
15	0	0	0	0	584	594	1021	0	0	0	
0	0	0	0	0	585	595	1021	0	0	0	
1	0	0	0	0	584	595	1021	0	0	0	
2	0	0	0	0	582	593	1021	0	0	0	
3	0	0	0	0	579	590	1021	0	0	0	
4	0	0	0	0	573	584	1021	0	0	0	
5	0	0	0	0	568	579	1021	0	0	0	
6	0	0	0	0	561	572	1021	0	0	0	
7	0	0	0	0	554	566	1021	0	0	0	
8	0	0	0	0	547	559	1021	0	0	0	
9	0	0	0	0	540	553	1021	0	0	0	
10	0	0	0	0	535	547	1021	0	0	0	
11	0	0	0	0	531	544	1021	0	0	0	
12	0	0	0	0	528	543	1021	0	0	0	
13	0	0	0	0	527	543	1021	0	0	0	
14	0	0	0	0	527	544	1021	0	0	0	
15	0	0	0	0	530	548	1020	0	0	0	
0	0	0	0	0	533	553	1021	0	0	0	
1	0	0	0	0	537	558	1021	0	0	0	
2	0	0	0	0	542	563	1021	0	0	0	
3	0	0	0	0	545	568	1021	0	0	0	
4	0	0	0	0	549	572	1021	0	0	0	
5	0	0	0	0	551	574	1020	0	0	0	
6	0	0	0	0	554	575	1021	0	0	0	
7	0	0	0	0	555	575	1021	0	0	0	
8	0	0	0	0	556	574	1021	0	0	0	
9	0	0	0	0	555	571	1021	0	0	0	
10	0	0	0	0	553	568	1021	0	0	0	
11	0	0	0	0	551	564	1021	0	0	0	
12	0	0	0	0	549	560	1021	0	0	0	
13	0	0	0	0	547	556	1021	0	0	0	
14	0	0	0	0	546	553	1021	0	0	0	
15	0	0	0	0	545	551	1021	0	0	0	
0	0	0	0	0	545	551	1021	0	0	0	
1	0	0	0	0	547	553	1021	0	0	0	
2	0	0	0	0	549	556	1021	0	0	0	
3	0	0	0	0	552	559	1021	0	0	0	
4	0	0	0	0	557	565	1021	0	0	0	
5	0	0	0	0	561	571	1021	0	0	0	
6	0	0	0	0	567	577	1021	0	0	0	
7	0	0	0	0	572	583	1021	0	0	0	
8	0	0	0	0	576	588	1021	0	0	0	
9	0	0	0	0	579	591	1021	0	0	0	
10	0	0	0	0	580	591	1021	0	0	0	
11	0	0	0	0	578	590	1021	0	0	0	
12	0	0	0	0	574	586	1021	0	0	0	
13	0	0	0	0	567	580	1021	0	0	0	
14	0	0	0	0	559	572	1021	0	0	0	
15	0	0	0	0	550	564	1021	0	0	0	
0	0	0	0	0	541	556	1021	0	0	0	
1	0	0	0	0	532	548	1021	0	0	0	
2	0	0	0	0	525	542	1021	0	0	0	
3	0	0	0	0	520	537	1021	0	0	0	
4	0	0	0	0	517	536	1021	0	0	0	
5	0	0	0	0	517	536	1021	0	0	0	
6	0	0	0	0	518	537	1021	0	0	0	
7	0	0	0	0	520	540	1021	0	0	0	
8	0	0	0	0	524	544	1021	0	0	0	
9	0	0	0	0	527	547	1021	0	0	0	
10	0	0	0	0	531	551	1021	0	0	0	
11	0	0	0	0	535	554	1021	0	0	0	
12	0	0	0	0	537	556	1021	0	0	0	
13	0	0	0	0	539	556	1021	0	0	0	
14	0	0	0	0	539	555	1021	0	0	0	
15	0	0	0	0	539	553	1021	0	0	0	
0	0	0	0	0	539	551	1021	0	0	0	
1	0	0	0	0	537	548	1021	0	0	0	
2	0	0	0	0	536	547	1021	0	0	0	
3	0	0	0	0	535	544	1021	0	0	0	
4	0	0	0	0	533	542	1021	0	0	0	
5	0	0	0	0	531	540	1021	0	0	0	
6	0	0	0	0	529	538	1021	0	0	0	
7	0	0	0	0	529	538	1021	0	0	0	
8	0	0	0	0	529	540	1021	0	0	0	
9	0	0	0	0	531	543	1021	0	0	0	
10	0	0	0	0	534	547	1021	0	0	0	
11	0	0	0	0	538	552	1021	0	0	0	
12	0	0	0	0	544	560	1021	0	0	0	
13	0	0	0	0	551	567	1021	0	0	0	
14	0	0	0	0	557	574	1021	0	0	0	
15	0	0	0	0	563	579	1021	0	0	0	
0	0	0	0	0	567	582	1021	0	0	0	
1	0	0	0	0	569	583	1021	0	0	0	
2	0	0	0	0	568	582	1021	0	0	0	
3	0	0	0	0	566	578	1021	0	0	0	
4	0	0	0	0	561	572	1021	0	0	0	
5	0	0	0	0	554	564	1021	0	0	0	
6	0	0	0	0	547	556	1021	0	0	0	
7	0	0	0	0	539	547	1021	0	0	0	
8	0	0	0	0	531	539	1021	0	0	0	
9	0	0	0	0	523	532	1021	0	0	0	
10	0	0	0	0	517	528	1021	0	0	0	
11	0	0	0	0	513	525	1021	0	0	0	
12	0	0	0	0	511	524	1021	0	0	0	
13	0	0	0	0	510	526	1021	0	0	0	
14	0	0	0	0	511	528	1021	0	0	0	
15	0	0	0	0	512	531	1020	0	0	0	
0	0	0	0	0	515	534	1021	0	0	0	
1	0	0	0	0	517	537	1021	0	0	0	
2	0	0	0	0	520	540	1021	0	0	0	
3	0	0	0	0	523	542	1021	0	0	0	
4	0	0	0	0	526	543	1021	0	0	0	
5	0	0	0	0	527	545	1021	0	0	0	
6	0	0	0	0	530	545	1021	0	0	0	
7	0	0	0	0	532	545	1021	0	0	0	
8	0	0	0	0	533	545	1021	0	0	0	
9	0	0	0	0	534	544	1021	0	0	0	
10	0	0	0	0	535	544	1021	0	0	0	
11	0	0	0	0	536	543	1021	0	0	0	
12	0	0	0	0	537	543	1021	0	0	0	
13	0	0	0	0	536	542	1021	0	0	0	
14	0	0	0	0	535	541	1021	0	0	0	
15	0	0	0	0	534	541	1021	0	0	0	
0	0	0	0	0	532	540	1021	0	0	0	
1	0	0	0	0	530	540	1021	0	0	0	
2	0	0	0	0	527	540	1021	0	0	0	
3	0	0	0	0	525	540	1021	0	0	0	
4	0	0	0	0	523	540	1021	0	0	0	
5	0	0	0	0	523	541	1021	0	0	0	
6	0	0	0	0	523	542	1021	0	0	0	
7	0	0	0	0	524	544	1021	0	0	0	
8	0	0	0	0	525	545	1021	0	0	0	
9	0	0	0	0	527	547	1021	0	0	0	
10	0	0	0	0	531	549	1021	0	0	0	
11	0	0	0	0	535	551	1021	0	0	0	
12	0	0	0	0	538	553	1021	0	0	0	
13	0	0	0	0	541	553	1021	0	0	0	
14	0	0	0	0	543	553	1021	0	0	0	
15	0	0	0	0	544	552	1021	0	0	0	
0	0	0	0	0	543	550	1021	0	0	0	
1	0	0	0	0	540	547	1021	0	0	0	
2	0	0	0	0	536	542	1021	0	0	0	
3	0	0	0	0	531	538	1021	0	0	0	
4	0	0	0	0	527	534	1021	0	0	0	
5	0	0	0	0	523	531	1021	0	0	0	
6	0	0	0	0	519	530	1021	0	0	0	
7	0	0	0	0	518	529	1021	0	0	0	
8	0	0	0	0	518	530	1021	0	0	0	
9	0	0	0	0	518	531	1021	0	0	0	
10	0	0	0	0	519	534	1021	0	0	0	
11	0	0	0	0	522	536	1021	0	0	0	
12	0	0	0	0	525	538	1021	0	0	0	
13	0	0	0	0	527	540	1021	0	0	0	
14	0	0	0	0	531	543	1021	0	0	0	
15	0	0	0	0	533	545	1021	0	0	0	
0	0	0	0	0	536	547	1021	0	0	0	
1	0	0	0	0	536	548	1021	0	0	0	
2	0	0	0	0	538	549	1021	0	0	0	
3	0	0	0	0	539	550	1021	0	0	0	
4	0	0	0	0	539	550	1021	0	0	0	
5	0	0	0	0	538	549	1021	0	0	0	
6	0	0	0	0	537	548	1021	0	0	0	
7	0	0	0	0	535	547	1021	0	0	0	
8	0	0	0	0	532	545	1021	0	0	0	
9	0	0	0	0	529	542	1021	0	0	0	
10	0	0	0	0	527	540	1021	0	0	0	
11	0	0	0	0	523	537	1021	0	0	0	
12	0	0	0	0	520	534	1021	0	0	0	
13	0	0	0	0	518	531	1021	0	0	0	
14	0	0	0	0	515	528	1021	0	0	0	
15	0	0	0	0	513	526	1021	0	0	0	
0	0	0	0	0	511	523	1021	0	0	0	
1	0	0	0	0	510	520	1021	0	0	0	
2	0	0	0	0	508	518	1021	0	0	0	
3	0	0	0	0	507	515	1021	0	0	0	
4	0	0	0	0	506	512	1021	0	0	0	
5	0	0	0	0	505	510	1021	0	0	0	
6	0	0	0	0	504	508	1020	0	0	0	
7	0	0	0	0	504	507	1021	0	0	0	
8	0	0	0	0	504	506	1021	0	0	0	
9	0	0	0	0	504	506	1021	0	0	0	
10	0	0	0	0	505	506	1021	0	0	0	
11	0	0	0	0	505	508	1020	0	0	0	
12	0	0	0	0	507	510	1021	0	0	0	
13	0	0	0	0	509	513	1021	0	0	0	
14	0	0	0	0	512	516	1021	0	0	0	
15	0	0	0	0	515	521	1021	0	0	0	
0	0	0	0	0	518	525	1021	0	0	0	
1	0	0	0	0	521	530	1021	0	0	0	
2	0	0	0	0	524	534	1021	0	0	0	
3	0	0	0	0	527	537	1021	0	0	0	
4	0	0	0	0	529	539	1021	0	0	0	
5	0	0	0	0	529	540	1021	0	0	0	
6	0	0	0	0	530	540	1021	0	0	0	
7	0	0	0	0	529	540	1021	0	0	0	
8	0	0	0	0	527	538	1021	0	0	0	
9	0	0	0	0	526	536	1021	0	0	0	
10	0	0	0	0	524	534	1021	0	0	0	
11	0	0	0	0	522	532	1021	0	0	0	
12	0	0	0	0	521	531	1021	0	0	0	
13	0	0	0	0	521	530	1021	0	0	0	
14	0	0	0	0	521	530	1021	0	0	0	
15	0	0	0	0	523	530	1021	0	0	0	
0	0	0	0	0	523	530	1021	0	0	0	
1	0	0	0	0	523	530	1021	0	0	0	
2	0	0	0	0	523	530	1021	0	0	0	
3	0	0	0	0	522	530	1021	0	0	0	
4	0	0	0	0	520	529	1020	0	0	0	
5	0	0	0	0	520	529	1021	0	0	0	
6	0	0	0	0	519	529	1021	0	0	0	
7	0	0	0	0	518	528	1021	0	0	0	
8	0	0	0	0	518	528	1020	0	0	0	
9	0	0	0	0	518	528	1021	0	0	0	
10	0	0	0	0	519	529	1021	0	0	0	
11	0	0	0	0	520	530	1021	0	0	0	
12	0	0	0	0	523	531	1021	0	0	0	
13	0	0	0	0	526	533	1021	0	0	0	
14	0	0	0	0	530	535	1021	0	0	0	
15	0	0	0	0	534	538	1021	0	0	0	
0	0	0	0	0	539	542	1021	0	0	0	
1	0	0	0	0	544	545	1021	0	0	0	
2	0	0	0	0	547	548	1021	0	0	0	
3	0	0	0	0	551	551	1021	0	0	0	
4	0	0	0	0	553	553	1021	0	0	0	
5	0	0	0	0	555	555	1021	0	0	0	
6	0	0	0	0	555	556	1021	0	0	0	
7	0	0	0	0	554	557	1021	0	0	0	
8	0	0	0	0	552	557	1021	0	0	0	
9	0	0	0	0	550	556	1021	0	0	0	
10	0	0	0	0	546	554	1021	0	0	0	
11	0	0	0	0	541	551	1021	0	0	0	
12	0	0	0	0	535	547	1021	0	0	0	
13	0	0	0	0	528	541	1021	0	0	0	
14	0	0	0	0	520	535	1021	0	0	0	
15	0	0	0	0	513	527	1021	0	0	0	
0	0	0	0	0	506	520	1021	0	0	0	
1	0	0	0	0	499	513	1021	0	0	0	
2	0	0	0	0	494	506	1021	0	0	0	
3	0	0	0	0	490	501	1021	0	0	0	
4	0	0	0	0	488	498	1021	0	0	0	
5	0	0	0	0	488	497	1021	0	0	0	
6	0	0	0	0	490	497	1021	0	0	0	
7	0	0	0	0	495	500	1021	0	0	0	
8	0	0	0	0	500	504	1021	0	0	0	
9	0	0	0	0	507	510	1021	0	0	0	
10	0	0	0	0	515	517	1021	0	0	0	
11	0	0	0	0	523	524	1021	0	0	0	
12	0	0	0	0	530	532	1021	0	0	0	
13	0	0	0	0	537	539	1021	0	0	0	
14	0	0	0	0	542	545	1021	0	0	0	
15	0	0	0	0	545	549	1021	0	0	0	
0	0	0	0	0	547	551	1021	0	0	0	
1	0	0	0	0	546	551	1021	0	0	0	
2	0	0	0	0	543	550	1021	0	0	0	
3	0	0	0	0	537	545	1021	0	0	0	
4	0	0	0	0	531	540	1021	0	0	0	
5	0	0	0	0	525	534	1021	0	0	0	
6	0	0	0	0	519	528	1021	0	0	0	
7	0	0	0	0	513	522	1021	0	0	0	
8	0	0	0	0	509	518	1021	0	0	0	
9	0	0	0	0	506	514	1021	0	0	0	
10	0	0	0	0	505	512	1021	0	0	0	
11	0	0	0	0	505	513	1021	0	0	0	
12	0	0	0	0	508	515	1021	0	0	0	
13	0	0	0	0	512	519	1021	0	0	0	
14	0	0	0	0	517	524	1021	0	0	0	
15	0	0	0	0	522	529	1021	0	0	0	
0	0	0	0	0	527	534	1021	0	0	0	
1	0	0	0	0	533	540	1021	0	0	0	
2	0	0	0	0	537	544	1021	0	0	0	
3	0	0	0	0	541	547	1021	0	0	0	
4	0	0	0	0	542	548	1021	0	0	0	
5	0	0	0	0	541	547	1021	0	0	0	
6	0	0	0	0	539	545	1021	0	0	0	
7	0	0	0	0	535	542	1021	0	0	0	
8	0	0	0	0	529	536	1021	0	0	0	
9	0	0	0	0	522	529	1021	0	0	0	
10	0	0	0	0	515	523	1021	0	0	0	
11	0	0	0	0	509	518	1021	0	0	0	
12	0	0	0	0	504	512	1021	0	0	0	
13	0	0	0	0	499	509	1020	0	0	0	
14	0	0	0	0	497	507	1021	0	0	0	
15	0	0	0	0	496	506	1021	0	0	0	
0	0	0	0	0	496	507	1021	0	0	0	
1	0	0	0	0	499	510	1021	0	0	0	
2	0	0	0	0	502	513	1021	0	0	0	
3	0	0	0	0	507	518	1021	0	0	0	
4	0	0	0	0	512	524	1021	0	0	0	
5	0	0	0	0	518	529	1021	0	0	0	
6	0	0	0	0	523	533	1021	0	0	0	
7	0	0	0	0	526	536	1021	0	0	0	
8	0	0	0	0	527	536	1021	0	0	0	
9	0	0	0	0	527	535	1021	0	0	0	
10	0	0	0	0	525	533	1021	0	0	0	
11	0	0	0	0	522	530	1021	0	0	0	
12	0	0	0	0	519	526	1021	0	0	0	
13	0	0	0	0	516	523	1021	0	0	0	
14	0	0	0	0	514	521	1021	0	0	0	
15	0	0	0	0	515	521	1021	0	0	0	
0	0	0	0	0	516	523	1021	0	0	0	
1	0	0	0	0	520	526	1021	0	0	0	
2	0	0	0	0	525	531	1021	0	0	0	
3	0	0	0	0	531	536	1020	0	0	0	
4	0	0	0	0	538	543	1021	0	0	0	
5	0	0	0	0	545	549	1021	0	0	0	
6	0	0	0	0	550	554	1021	0	0	0	
7	0	0	0	0	553	557	1021	0	0	0	
8	0	0	0	0	555	559	1021	0	0	0	
9	0	0	0	0	554	559	1021	0	0	0	
10	0	0	0	0	551	557	1021	0	0	0	
11	0	0	0	0	546	553	1021	0	0	0	
12	0	0	0	0	540	548	1021	0	0	0	
13	0	0	0	0	533	542	1021	0	0	0	
14	0	0	0	0	526	536	1021	0	0	0	
15	0	0	0	0	519	530	1021	0	0	0	
0	0	0	0	0	513	525	1021	0	0	0	
1	0	0	0	0	508	521	1021	0	0	0	
2	0	0	0	0	504	518	1021	0	0	0	
3	0	0	0	0	503	516	1021	0	0	0	
4	0	0	0	0	502	515	1021	0	0	0	
5	0	0	0	0	503	516	1021	0	0	0	
6	0	0	0	0	505	517	1021	0	0	0	
7	0	0	0	0	507	519	1021	0	0	0	
8	0	0	0	0	508	520	1021	0	0	0	
9	0	0	0	0	510	521	1021	0	0	0	
10	0	0	0	0	511	522	1021	0	0	0	
11	0	0	0	0	511	523	1021	0	0	0	
12	0	0	0	0	511	522	1021	0	0	0	
13	0	0	0	0	510	522	1021	0	0	0	
14	0	0	0	0	509	522	1021	0	0	0	
15	0	0	0	0	508	521	1021	0	0	0	
0	0	0	0	0	507	521	1021	0	0	0	
1	0	0	0	0	506	520	1021	0	0	0	
2	0	0	0	0	505	521	1021	0	0	0	
3	0	0	0	0	506	521	1021	0	0	0	
4	0	0	0	0	507	522	1021	0	0	0	
5	0	0	0	0	509	524	1021	0	0	0	
6	0	0	0	0	512	526	1021	0	0	0	
7	0	0	0	0	516	529	1021	0	0	0	
8	0	0	0	0	522	533	1021	0	0	0	
9	0	0	0	0	527	537	1021	0	0	0	
10	0	0	0	0	533	542	1021	0	0	0	
11	0	0	0	0	538	545	1021	0	0	0	
12	0	0	0	0	542	547	1021	0	0	0	
13	0	0	0	0	543	549	1021	0	0	0	
14	0	0	0	0	543	548	1021	0	0	0	
15	0	0	0	0	542	547	1021	0	0	0	
0	0	0	0	0	537	545	1021	0	0	0	
1	0	0	0	0	533	542	1021	0	0	0	
2	0	0	0	0	527	538	1021	0	0	0	
3	0	0	0	0	521	534	1021	0	0	0	
4	0	0	0	0	516	530	1020	0	0	0	
5	0	0	0	0	510	526	1021	0	0	0	
6	0	0	0	0	506	522	1021	0	0	0	
7	0	0	0	0	501	518	1021	0	0	0	
8	0	0	0	0	497	514	1021	0	0	0	
9	0	0	0	0	495	511	1021	0	0	0	
10	0	0	0	0	494	508	1021	0	0	0	
11	0	0	0	0	494	508	1021	0	0	0	
12	0	0	0	0	496	508	1021	0	0	0	
13	0	0	0	0	499	510	1021	0	0	0	
14	0	0	0	0	503	513	1020	0	0	0	
15	0	0	0	0	508	518	1020	0	0	0	
0	0	0	0	0	513	522	1021	0	0	0	
1	0	0	0	0	517	526	1021	0	0	0	
2	0	0	0	0	521	530	1021	0	0	0	
3	0	0	0	0	523	532	1021	0	0	0	
4	0	0	0	0	524	534	1021	0	0	0	
5	0	0	0	0	525	535	1021	0	0	0	
6	0	0	0	0	525	536	1021	0	0	0	
7	0	0	0	0	524	536	1021	0	0	0	
8	0	0	0	0	524	536	1021	0	0	0	
9	0	0	0	0	524	536	1021	0	0	0	
10	0	0	0	0	524	536	1021	0	0	0	
11	0	0	0	0	524	536	1021	0	0	0	
12	0	0	0	0	525	536	1021	0	0	0	
13	0	0	0	0	525	536	1020	0	0	0	
14	0	0	0	0	526	536	1021	0	0	0	
15	0	0	0	0	527	536	1021	0	0	0	
0	0	0	0	0	527	537	1021	0	0	0	
1	0	0	0	0	528	537	1021	0	0	0	
2	0	0	0	0	528	538	1021	0	0	0	
3	0	0	0	0	529	538	1021	0	0	0	
4	0	0	0	0	529	539	1021	0	0	0	
5	0	0	0	0	528	540	1021	0	0	0	
6	0	0	0	0	528	540	1021	0	0	0	
7	0	0	0	0	527	541	1021	0	0	0	
8	0	0	0	0	527	542	1021	0	0	0	
9	0	0	0	0	526	543	1021	0	0	0	
10	0	0	0	0	526	544	1021	0	0	0	
11	0	0	0	0	526	545	1021	0	0	0	
12	0	0	0	0	526	545	1021	0	0	0	
13	0	0	0	0	526	545	1020	0	0	0	
14	0	0	0	0	527	545	1021	0	0	0	
15	0	0	0	0	529	544	1021	0	0	0	
0	0	0	0	0	530	543	1021	0	0	0	
1	0	0	0	0	531	542	1021	0	0	0	
2	0	0	0	0	532	541	1020	0	0	0	
3	0	0	0	0	533	539	1021	0	0	0	
4	0	0	0	0	532	536	1021	0	0	0	
5	0	0	0	0	531	534	1021	0	0	0	
6	0	0	0	0	529	530	1021	0	0	0	
7	0	0	0	0	525	527	1021	0	0	0	
8	0	0	0	0	520	523	1021	0	0	0	
9	0	0	0	0	515	519	1021	0	0	0	
10	0	0	0	0	510	516	1021	0	0	0	
11	0	0	0	0	504	513	1021	0	0	0	
12	0	0	0	0	499	511	1021	0	0	0	
13	0	0	0	0	496	510	1021	0	0	0	
14	0	0	0	0	493	510	1021	0	0	0	
15	0	0	0	0	493	512	1021	0	0	0	
0	0	0	0	0	495	515	1021	0	0	0	
1	0	0	0	0	498	519	1021	0	0	0	
2	0	0	0	0	504	524	1021	0	0	0	
3	0	0	0	0	511	529	1021	0	0	0	
4	0	0	0	0	518	534	1021	0	0	0	
5	0	0	0	0	525	539	1021	0	0	0	
6	0	0	0	0	532	543	1021	0	0	0	
7	0	0	0	0	540	547	1021	0	0	0	
8	0	0	0	0	546	551	1021	0	0	0	
9	0	0	0	0	551	554	1021	0	0	0	
10	0	0	0	0	555	556	1021	0	0	0	
11	0	0	0	0	558	559	1021	0	0	0	
12	0	0	0	0	559	560	1021	0	0	0	
13	0	0	0	0	559	561	1021	0	0	0	
14	0	0	0	0	558	562	1021	0	0	0	
15	0	0	0	0	555	561	1021	0	0	0	
0	0	0	0	0	551	560	1021	0	0	0	
1	0	0	0	0	546	558	1021	0	0	0	
2	0	0	0	0	540	555	1021	0	0	0	
3	0	0	0	0	534	551	1021	0	0	0	
4	0	0	0	0	527	546	1021	0	0	0	
5	0	0	0	0	521	541	1021	0	0	0	
6	0	0	0	0	515	536	1021	0	0	0	
7	0	0	0	0	510	531	1021	0	0	0	
8	0	0	0	0	505	525	1021	0	0	0	
9	0	0	0	0	501	520	1021	0	0	0	
10	0	0	0	0	498	516	1021	0	0	0	
11	0	0	0	0	496	513	1021	0	0	0	
12	0	0	0	0	496	511	1021	0	0	0	
13	0	0	0	0	497	512	1021	0	0	0	
14	0	0	0	0	500	513	1021	0	0	0	
15	0	0	0	0	504	517	1021	0	0	0	
0	0	0	0	0	510	523	1021	0	0	0	
1	0	0	0	0	516	529	1021	0	0	0	
2	0	0	0	0	523	536	1021	0	0	0	
3	0	0	0	0	529	542	1021	0	0	0	
4	0	0	0	0	534	547	1021	0	0	0	
5	0	0	0	0	538	550	1021	0	0	0	
6	0	0	0	0	539	551	1021	0	0	0	
7	0	0	0	0	538	551	1021	0	0	0	
8	0	0	0	0	535	547	1021	0	0	0	
9	0	0	0	0	530	543	1021	0	0	0	
10	0	0	0	0	524	537	1021	0	0	0	
11	0	0	0	0	517	531	1021	0	0	0	
12	0	0	0	0	510	525	1021	0	0	0	
13	0	0	0	0	504	519	1021	0	0	0	
14	0	0	0	0	499	515	1021	0	0	0	
15	0	0	0	0	496	512	1021	0	0	0	
0	0	0	0	0	495	510	1021	0	0	0	
1	0	0	0	0	495	510	1021	0	0	0	
2	0	0	0	0	497	512	1021	0	0	0	
3	0	0	0	0	501	516	1021	0	0	0	
4	0	0	0	0	506	520	1021	0	0	0	
5	0	0	0	0	512	526	1021	0	0	0	
6	0	0	0	0	518	531	1021	0	0	0	
7	0	0	0	0	523	536	1021	0	0	0	
8	0	0	0	0	528	541	1021	0	0	0	
9	0	0	0	0	531	544	1021	0	0	0	
10	0	0	0	0	533	546	1021	0	0	0	
11	0	0	0	0	534	546	1021	0	0	0	
12	0	0	0	0	532	545	1021	0	0	0	
13	0	0	0	0	529	543	1021	0	0	0	
14	0	0	0	0	526	540	1021	0	0	0	
15	0	0	0	0	523	537	1021	0	0	0	
0	0	0	0	0	519	533	1021	0	0	0	
1	0	0	0	0	515	529	1021	0	0	0	
2	0	0	0	0	513	526	1021	0	0	0	
3	0	0	0	0	512	524	1021	0	0	0	
4	0	0	0	0	512	523	1021	0	0	0	
5	0	0	0	0	513	523	1021	0	0	0	
6	0	0	0	0	515	524	1021	0	0	0	
7	0	0	0	0	519	527	1021	0	0	0	
8	0	0	0	0	524	532	1021	0	0	0	
9	0	0	0	0	529	537	1021	0	0	0	
10	0	0	0	0	536	543	1021	0	0	0	
11	0	0	0	0	540	549	1021	0	0	0	
12	0	0	0	0	545	555	1021	0	0	0	
13	0	0	0	0	550	560	1021	0	0	0	
14	0	0	0	0	552	563	1021	0	0	0	
15	0	0	0	0	552	563	1021	0	0	0	
0	0	0	0	0	551	563	1020	0	0	0	
1	0	0	0	0	548	560	1021	0	0	0	
2	0	0	0	0	543	555	1021	0	0	0	
3	0	0	0	0	537	549	1021	0	0	0	
4	0	0	0	0	529	542	1021	0	0	0	
5	0	0	0	0	521	534	1021	0	0	0	
6	0	0	0	0	514	527	1021	0	0	0	
7	0	0	0	0	508	520	1021	0	0	0	
8	0	0	0	0	504	515	1021	0	0	0	
9	0	0	0	0	500	511	1021	0	0	0	
10	0	0	0	0	499	509	1021	0	0	0	
11	0	0	0	0	499	509	1021	0	0	0	
12	0	0	0	0	501	510	1021	0	0	0	
13	0	0	0	0	503	513	1021	0	0	0	
14	0	0	0	0	506	516	1021	0	0	0	
15	0	0	0	0	509	519	1021	0	0	0	
0	0	0	0	0	512	524	1021	0	0	0	
1	0	0	0	0	515	527	1021	0	0	0	
2	0	0	0	0	517	529	1021	0	0	0	
3	0	0	0	0	518	531	1021	0	0	0	
4	0	0	0	0	519	533	1021	0	0	0	
5	0	0	0	0	519	534	1021	0	0	0	
6	0	0	0	0	520	535	1021	0	0	0	
7	0	0	0	0	522	536	1021	0	0	0	
8	0	0	0	0	524	537	1021	0	0	0	
9	0	0	0	0	527	539	1021	0	0	0	
10	0	0	0	0	531	542	1021	0	0	0	
11	0	0	0	0	537	547	1021	0	0	0	
12	0	0	0	0	544	552	1021	0	0	0	
13	0	0	0	0	551	559	1021	0	0	0	
14	0	0	0	0	559	565	1021	0	0	0	
15	0	0	0	0	565	572	1021	0	0	0	
0	0	0	0	0	571	577	1021	0	0	0	
1	0	0	0	0	574	582	1021	0	0	0	
2	0	0	0	0	575	584	1021	0	0	0	
3	0	0	0	0	574	585	1021	0	0	0	
4	0	0	0	0	571	583	1021	0	0	0	
5	0	0	0	0	566	580	1021	0	0	0	
6	0	0	0	0	558	575	1021	0	0	0	
7	0	0	0	0	548	567	1021	0	0	0	
8	0	0	0	0	536	557	1020	0	0	0	
9	0	0	0	0	523	545	1021	0	0	0	
10	0	0	0	0	510	532	1021	0	0	0	
11	0	0	0	0	495	518	1021	0	0	0	
12	0	0	0	0	480	503	1021	0	0	0	
13	0	0	0	0	465	488	1020	0	0	0	
14	0	0	0	0	452	474	1021	0	0	0	
15	0	0	0	0	439	460	1021	0	0	0	
0	0	0	0	0	428	448	1021	0	0	0	
1	0	0	0	0	418	437	1021	0	0	0	
2	0	0	0	0	410	428	1021	0	0	0	
3	0	0	0	0	403	421	1021	0	0	0	
4	0	0	0	0	399	415	1021	0	0	0	
5	0	0	0	0	395	409	1021	0	0	0	
6	0	0	0	0	391	405	1021	0	0	0	
7	0	0	0	0	388	400	1021	0	0	0	
8	0	0	0	0	384	396	1021	0	0	0	
9	0	0	0	0	379	391	1021	0	0	0	
10	0	0	0	0	373	385	1021	0	0	0	
11	0	0	0	0	365	377	1021	0	0	0	
12	0	0	0	0	356	368	1021	0	0	0	
13	0	0	0	0	345	357	1021	0	0	0	
14	0	0	0	0	332	344	1021	0	0	0	
15	0	0	0	0	319	332	1021	0	0	0	
0	0	0	0	0	307	319	1021	0	0	0	
1	0	0	0	0	295	309	1020	0	0	0	
2	0	0	0	0	286	300	1021	0	0	0	
3	0	0	0	0	281	294	1021	0	0	0	
4	0	0	0	0	280	294	1021	0	0	0	
5	0	0	0	0	284	296	1021	0	0	0	
6	0	0	0	0	294	305	1021	0	0	0	
7	0	0	0	0	308	319	1021	0	0	0	
8	0	0	0	0	328	338	1021	0	0	0	
9	0	0	0	0	353	361	1021	0	0	0	
10	0	0	0	0	382	387	1021	0	0	0	
11	0	0	0	0	412	415	1021	0	0	0	
12	0	0	0	0	445	445	1021	0	0	0	
13	0	0	0	0	478	475	1021	0	0	0	
14	0	0	0	0	511	505	1021	0	0	0	
15	0	0	0	0	540	531	1021	0	0	0	
0	0	0	0	0	566	555	1021	0	0	0	
1	0	0	0	0	588	575	1021	0	0	0	
2	0	0	0	0	604	590	1021	0	0	0	
3	0	0	0	0	614	600	1021	0	0	0	
4	0	0	0	0	618	604	1021	0	0	0	
5	0	0	0	0	615	604	1021	0	0	0	
6	0	0	0	0	608	600	1021	0	0	0	
7	0	0	0	0	595	592	1021	0	0	0	
8	0	0	0	0	580	582	1021	0	0	0	
9	0	0	0	0	563	570	1021	0	0	0	
10	0	0	0	0	545	557	1021	0	0	0	
11	0	0	0	0	528	545	1021	0	0	0	
12	0	0	0	0	514	535	1021	0	0	0	
13	0	0	0	0	502	526	1021	0	0	0	
14	0	0	0	0	494	519	1021	0	0	0	
15	0	0	0	0	489	516	1021	0	0	0	
0	0	0	0	0	488	515	1021	0	0	0	
1	0	0	0	0	491	516	1021	0	0	0	
2	0	0	0	0	496	519	1021	0	0	0	
3	0	0	0	0	503	524	1021	0	0	0	
4	0	0	0	0	511	530	1021	0	0	0	
5	0	0	0	0	521	537	1021	0	0	0	
6	0	0	0	0	531	545	1021	0	0	0	
7	0	0	0	0	542	553	1021	0	0	0	
8	0	0	0	0	551	561	1021	0	0	0	
9	0	0	0	0	561	568	1021	0	0	0	
10	0	0	0	0	568	575	1021	0	0	0	
11	0	0	0	0	575	580	1021	0	0	0	
12	0	0	0	0	580	584	1021	0	0	0	
13	0	0	0	0	583	588	1021	0	0	0	
14	0	0	0	0	584	589	1021	0	0	0	
15	0	0	0	0	583	588	1021	0	0	0	
0	0	0	0	0	580	587	1021	0	0	0	
1	0	0	0	0	574	583	1021	0	0	0	
2	0	0	0	0	568	578	1021	0	0	0	
3	0	0	0	0	560	572	1021	0	0	0	
4	0	0	0	0	551	566	1021	0	0	0	
5	0	0	0	0	543	560	1021	0	0	0	
6	0	0	0	0	537	556	1021	0	0	0	
7	0	0	0	0	531	551	1021	0	0	0	
8	0	0	0	0	527	547	1021	0	0	0	
9	0	0	0	0	525	544	1021	0	0	0	
10	0	0	0	0	524	542	1021	0	0	0	
11	0	0	0	0	524	540	1021	0	0	0	
12	0	0	0	0	524	539	1021	0	0	0	
13	0	0	0	0	526	538	1021	0	0	0	
14	0	0	0	0	527	538	1021	0	0	0	
15	0	0	0	0	531	538	1021	0	0	0	
0	0	0	0	0	535	540	1021	0	0	0	
1	0	0	0	0	539	542	1021	0	0	0	
2	0	0	0	0	542	545	1021	0	0	0	
3	0	0	0	0	546	548	1021	0	0	0	
4	0	0	0	0	549	551	1021	0	0	0	
5	0	0	0	0	551	553	1021	0	0	0	
6	0	0	0	0	550	554	1021	0	0	0	
7	0	0	0	0	549	554	1021	0	0	0	
8	0	0	0	0	546	552	1021	0	0	0	
9	0	0	0	0	543	551	1021	0	0	0	
10	0	0	0	0	539	548	1021	0	0	0	
11	0	0	0	0	535	546	1021	0	0	0	
12	0	0	0	0	531	543	1021	0	0	0	
13	0	0	0	0	528	542	1021	0	0	0	
14	0	0	0	0	527	540	1021	0	0	0	
15	0	0	0	0	526	539	1021	0	0	0	
0	0	0	0	0	526	539	1021	0	0	0	
1	0	0	0	0	527	539	1021	0	0	0	
2	0	0	0	0	530	539	1021	0	0	0	
3	0	0	0	0	534	541	1021	0	0	0	
4	0	0	0	0	537	543	1021	0	0	0	
5	0	0	0	0	542	546	1021	0	0	0	
6	0	0	0	0	546	549	1021	0	0	0	
7	0	0	0	0	549	551	1021	0	0	0	
8	0	0	0	0	552	553	1021	0	0	0	
9	0	0	0	0	553	555	1021	0	0	0	
10	0	0	0	0	554	556	1021	0	0	0	
11	0	0	0	0	553	556	1021	0	0	0	
12	0	0	0	0	551	556	1021	0	0	0	
13	0	0	0	0	550	555	1021	0	0	0	
14	0	0	0	0	547	554	1021	0	0	0	
15	0	0	0	0	544	553	1021	0	0	0	
0	0	0	0	0	542	552	1021	0	0	0	
1	0	0	0	0	540	551	1021	0	0	0	
2	0	0	0	0	539	551	1021	0	0	0	
3	0	0	0	0	538	551	1021	0	0	0	
4	0	0	0	0	538	551	1021	0	0	0	
5	0	0	0	0	539	551	1020	0	0	0	
6	0	0	0	0	540	552	1021	0	0	0	
7	0	0	0	0	542	553	1021	0	0	0	
8	0	0	0	0	543	554	1021	0	0	0	
9	0	0	0	0	544	555	1021	0	0	0	
10	0	0	0	0	545	555	1021	0	0	0	
11	0	0	0	0	546	556	1021	0	0	0	
12	0	0	0	0	546	555	1021	0	0	0	
13	0	0	0	0	546	555	1021	0	0	0	
14	0	0	0	0	546	555	1021	0	0	0	
15	0	0	0	0	546	555	1021	0	0	0	
0	0	0	0	0	545	554	1021	0	0	0	
1	0	0	0	0	545	553	1021	0	0	0	
2	0	0	0	0	544	551	1021	0	0	0	
3	0	0	0	0	542	550	1021	0	0	0	
4	0	0	0	0	540	547	1021	0	0	0	
5	0	0	0	0	537	544	1021	0	0	0	
6	0	0	0	0	535	542	1021	0	0	0	
7	0	0	0	0	532	539	1021	0	0	0	
8	0	0	0	0	530	536	1021	0	0	0	
9	0	0	0	0	527	534	1020	0	0	0	
10	0	0	0	0	526	532	1021	0	0	0	
11	0	0	0	0	526	532	1021	0	0	0	
12	0	0	0	0	527	532	1021	0	0	0	
13	0	0	0	0	528	535	1021	0	0	0	
14	0	0	0	0	531	538	1021	0	0	0	
15	0	0	0	0	534	542	1021	0	0	0	
0	0	0	0	0	538	546	1021	0	0	0	
1	0	0	0	0	543	551	1021	0	0	0	
2	0	0	0	0	547	556	1021	0	0	0	
3	0	0	0	0	551	561	1021	0	0	0	
4	0	0	0	0	553	564	1021	0	0	0	
5	0	0	0	0	555	567	1021	0	0	0	
6	0	0	0	0	556	568	1021	0	0	0	
7	0	0	0	0	555	569	1021	0	0	0	
8	0	0	0	0	554	568	1021	0	0	0	
9	0	0	0	0	551	567	1021	0	0	0	
10	0	0	0	0	550	564	1021	0	0	0	
11	0	0	0	0	548	563	1021	0	0	0	
12	0	0	0	0	545	560	1021	0	0	0	
13	0	0	0	0	543	557	1021	0	0	0	
14	0	0	0	0	541	555	1021	0	0	0	
15	0	0	0	0	540	552	1021	0	0	0	
0	0	0	0	0	539	551	1021	0	0	0	
1	0	0	0	0	539	550	1021	0	0	0	
2	0	0	0	0	539	550	1021	0	0	0	
3	0	0	0	0	540	551	1021	0	0	0	
4	0	0	0	0	541	553	1021	0	0	0	
5	0	0	0	0	542	555	1021	0	0	0	
6	0	0	0	0	542	556	1021	0	0	0	
7	0	0	0	0	542	556	1021	0	0	0	
8	0	0	0	0	540	556	1021	0	0	0	
9	0	0	0	0	538	554	1021	0	0	0	
10	0	0	0	0	536	552	1021	0	0	0	
11	0	0	0	0	532	548	1021	0	0	0	
12	0	0	0	0	529	545	1021	0	0	0	
13	0	0	0	0	526	543	1021	0	0	0	
14	0	0	0	0	525	540	1021	0	0	0	
15	0	0	0	0	524	539	1021	0	0	0	
0	0	0	0	0	525	538	1021	0	0	0	
1	0	0	0	0	526	539	1020	0	0	0	
2	0	0	0	0	529	540	1021	0	0	0	
3	0	0	0	0	532	541	1021	0	0	0	
4	0	0	0	0	535	543	1021	0	0	0	
5	0	0	0	0	536	544	1021	0	0	0	
6	0	0	0	0	537	545	1021	0	0	0	
7	0	0	0	0	537	545	1021	0	0	0	
8	0	0	0	0	536	544	1021	0	0	0	
9	0	0	0	0	534	544	1021	0	0	0	
10	0	0	0	0	531	542	1021	0	0	0	
11	0	0	0	0	528	541	1021	0	0	0	
12	0	0	0	0	527	540	1021	0	0	0	
13	0	0	0	0	525	540	1021	0	0	0	
14	0	0	0	0	524	539	1021	0	0	0	
15	0	0	0	0	523	537	1021	0	0	0	
0	0	0	0	0	521	536	1021	0	0	0	
1	0	0	0	0	519	534	1021	0	0	0	
2	0	0	0	0	519	532	1021	0	0	0	
3	0	0	0	0	517	530	1021	0	0	0	
4	0	0	0	0	516	528	1021	0	0	0	
5	0	0	0	0	515	527	1021	0	0	0	
6	0	0	0	0	515	526	1021	0	0	0	
7	0	0	0	0	515	525	1021	0	0	0	
8	0	0	0	0	515	524	1021	0	0	0	
9	0	0	0	0	515	524	1021	0	0	0	
10	0	0	0	0	516	524	1021	0	0	0	
11	0	0	0	0	517	525	1021	0	0	0	
12	0	0	0	0	518	527	1021	0	0	0	
13	0	0	0	0	521	529	1021	0	0	0	
14	0	0	0	0	524	533	1021	0	0	0	
15	0	0	0	0	527	537	1021	0	0	0	
0	0	0	0	0	531	542	1021	0	0	0	
1	0	0	0	0	535	547	1021	0	0	0	
2	0	0	0	0	539	551	1021	0	0	0	
3	0	0	0	0	542	556	1021	0	0	0	
4	0	0	0	0	544	558	1021	0	0	0	
5	0	0	0	0	545	560	1021	0	0	0	
6	0	0	0	0	546	561	1021	0	0	0	
7	0	0	0	0	547	561	1021	0	0	0	
8	0	0	0	0	546	561	1021	0	0	0	
9	0	0	0	0	545	560	1021	0	0	0	
10	0	0	0	0	544	558	1021	0	0	0	
11	0	0	0	0	542	555	1021	0	0	0	
12	0	0	0	0	539	551	1021	0	0	0	
13	0	0	0	0	536	548	1021	0	0	0	
14	0	0	0	0	532	544	1021	0	0	0	
15	0	0	0	0	529	541	1021	0	0	0	
0	0	0	0	0	526	539	1021	0	0	0	
1	0	0	0	0	524	537	1021	0	0	0	
2	0	0	0	0	522	536	1021	0	0	0	
3	0	0	0	0	520	535	1021	0	0	0	
4	0	0	0	0	519	535	1021	0	0	0	
5	0	0	0	0	519	536	1021	0	0	0	
6	0	0	0	0	520	538	1021	0	0	0	
7	0	0	0	0	522	540	1021	0	0	0	
8	0	0	0	0	523	541	1021	0	0	0	
9	0	0	0	0	525	542	1021	0	0	0	
10	0	0	0	0	527	543	1021	0	0	0	
11	0	0	0	0	528	543	1021	0	0	0	
12	0	0	0	0	531	543	1021	0	0	0	
13	0	0	0	0	532	543	1021	0	0	0	
14	0	0	0	0	535	543	1021	0	0	0	
15	0	0	0	0	537	544	1021	0	0	0	
0	0	0	0	0	540	546	1021	0	0	0	
1	0	0	0	0	543	548	1021	0	0	0	
2	0	0	0	0	546	550	1021	0	0	0	
3	0	0	0	0	549	553	1021	0	0	0	
4	0	0	0	0	552	557	1021	0	0	0	
5	0	0	0	0	555	560	1021	0	0	0	
6	0	0	0	0	557	563	1021	0	0	0	
7	0	0	0	0	557	564	1021	0	0	0	
8	0	0	0	0	556	564	1021	0	0	0	
9	0	0	0	0	552	562	1021	0	0	0	
10	0	0	0	0	547	557	1021	0	0	0	
11	0	0	0	0	540	551	1021	0	0	0	
12	0	0	0	0	532	543	1021	0	0	0	
13	0	0	0	0	524	536	1021	0	0	0	
14	0	0	0	0	515	527	1021	0	0	0	
15	0	0	0	0	508	519	1021	0	0	0	
0	0	0	0	0	501	513	1021	0	0	0	
1	0	0	0	0	495	507	1021	0	0	0	
2	0	0	0	0	491	503	1021	0	0	0	
3	0	0	0	0	490	502	1021	0	0	0	
4	0	0	0	0	491	503	1021	0	0	0	
5	0	0	0	0	495	506	1021	0	0	0	
6	0	0	0	0	501	512	1021	0	0	0	
7	0	0	0	0	509	519	1021	0	0	0	
8	0	0	0	0	519	529	1021	0	0	0	
9	0	0	0	0	530	539	1021	0	0	0	
10	0	0	0	0	542	549	1021	0	0	0	
11	0	0	0	0	552	558	1021	0	0	0	
12	0	0	0	0	562	568	1021	0	0	0	
13	0	0	0	0	571	575	1021	0	0	0	
14	0	0	0	0	577	581	1021	0	0	0	
15	0	0	0	0	581	584	1021	0	0	0	
0	0	0	0	0	581	584	1021	0	0	0	
1	0	0	0	0	579	582	1021	0	0	0	
2	0	0	0	0	574	577	1021	0	0	0	
3	0	0	0	0	566	571	1021	0	0	0	
4	0	0	0	0	556	563	1021	0	0	0	
5	0	0	0	0	545	553	1021	0	0	0	
6	0	0	0	0	534	544	1021	0	0	0	
7	0	0	0	0	523	536	1021	0	0	0	
8	0	0	0	0	513	527	1021	0	0	0	
9	0	0	0	0	504	521	1021	0	0	0	
10	0	0	0	0	498	515	1021	0	0	0	
11	0	0	0	0	493	513	1021	0	0	0	
12	0	0	0	0	492	512	1021	0	0	0	
13	0	0	0	0	493	514	1021	0	0	0	
14	0	0	0	0	497	519	1021	0	0	0	
15	0	0	0	0	504	524	1021	0	0	0	
0	0	0	0	0	511	530	1021	0	0	0	
1	0	0	0	0	519	536	1021	0	0	0	
2	0	0	0	0	527	540	1021	0	0	0	
3	0	0	0	0	532	544	1021	0	0	0	
4	0	0	0	0	537	546	1021	0	0	0	
5	0	0	0	0	539	546	1021	0	0	0	
6	0	0	0	0	540	545	1021	0	0	0	
7	0	0	0	0	540	543	1021	0	0	0	
8	0	0	0	0	539	542	1021	0	0	0	
9	0	0	0	0	537	540	1021	0	0	0	
10	0	0	0	0	536	539	1021	0	0	0	
11	0	0	0	0	535	538	1021	0	0	0	
12	0	0	0	0	535	538	1021	0	0	0	
13	0	0	0	0	535	538	1021	0	0	0	
14	0	0	0	0	535	538	1021	0	0	0	
15	0	0	0	0	534	537	1021	0	0	0	
0	0	0	0	0	533	536	1021	0	0	0	
1	0	0	0	0	531	535	1021	0	0	0	
2	0	0	0	0	529	533	1021	0	0	0	
3	0	0	0	0	527	533	1021	0	0	0	
4	0	0	0	0	526	532	1021	0	0	0	
5	0	0	0	0	524	531	1021	0	0	0	
6	0	0	0	0	522	531	1021	0	0	0	
7	0	0	0	0	520	530	1021	0	0	0	
8	0	0	0	0	519	529	1021	0	0	0	
9	0	0	0	0	517	528	1021	0	0	0	
10	0	0	0	0	516	528	1021	0	0	0	
11	0	0	0	0	515	527	1021	0	0	0	
12	0	0	0	0	515	526	1021	0	0	0	
13	0	0	0	0	514	525	1021	0	0	0	
14	0	0	0	0	514	524	1021	0	0	0	
15	0	0	0	0	515	523	1021	0	0	0	
0	0	0	0	0	515	522	1021	0	0	0	
1	0	0	0	0	515	520	1021	0	0	0	
2	0	0	0	0	513	519	1021	0	0	0	
3	0	0	0	0	512	517	1021	0	0	0	
4	0	0	0	0	511	516	1021	0	0	0	
5	0	0	0	0	510	516	1021	0	0	0	
6	0	0	0	0	510	516	1021	0	0	0	
7	0	0	0	0	510	518	1020	0	0	0	
8	0	0	0	0	511	519	1021	0	0	0	
9	0	0	0	0	513	522	1021	0	0	0	
10	0	0	0	0	517	527	1021	0	0	0	
11	0	0	0	0	521	531	1021	0	0	0	
12	0	0	0	0	527	536	1021	0	0	0	
13	0	0	0	0	534	542	1021	0	0	0	
14	0	0	0	0	540	547	1021	0	0	0	
15	0	0	0	0	546	551	1021	0	0	0	
0	0	0	0	0	551	554	1021	0	0	0	
1	0	0	0	0	554	555	1021	0	0	0	
2	0	0	0	0	556	556	1021	0	0	0	
3	0	0	0	0	556	554	1021	0	0	0	
4	0	0	0	0	556	552	1021	0	0	0	
5	0	0	0	0	553	550	1021	0	0	0	
6	0	0	0	0	551	547	1021	0	0	0	
7	0	0	0	0	548	545	1021	0	0	0	
8	0	0	0	0	545	543	1021	0	0	0	
9	0	0	0	0	543	543	1021	0	0	0	
10	0	0	0	0	540	542	1021	0	0	0	
11	0	0	0	0	539	543	1021	0	0	0	
12	0	0	0	0	538	544	1021	0	0	0	
13	0	0	0	0	539	546	1021	0	0	0	
14	0	0	0	0	540	547	1021	0	0	0	
15	0	0	0	0	542	550	1021	0	0	0	
0	0	0	0	0	543	551	1020	0	0	0	
1	0	0	0	0	545	553	1021	0	0	0	
2	0	0	0	0	547	554	1021	0	0	0	
3	0	0	0	0	548	554	1021	0	0	0	
4	0	0	0	0	548	552	1021	0	0	0	
5	0	0	0	0	546	549	1021	0	0	0	
6	0	0	0	0	543	544	1021	0	0	0	
7	0	0	0	0	539	540	1021	0	0	0	
8	0	0	0	0	535	536	1021	0	0	0	
9	0	0	0	0	530	531	1021	0	0	0	
10	0	0	0	0	525	527	1021	0	0	0	
11	0	0	0	0	522	526	1021	0	0	0	
12	0	0	0	0	520	526	1021	0	0	0	
13	0	0	0	0	519	527	1021	0	0	0	
14	0	0	0	0	521	530	1021	0	0	0	
15	0	0	0	0	524	534	1021	0	0	0	
0	0	0	0	0	528	538	1021	0	0	0	
1	0	0	0	0	532	543	1021	0	0	0	
2	0	0	0	0	536	546	1021	0	0	0	
3	0	0	0	0	538	548	1021	0	0	0	
4	0	0	0	0	540	548	1021	0	0	0	
5	0	0	0	0	540	548	1021	0	0	0	
6	0	0	0	0	540	546	1021	0	0	0	
7	0	0	0	0	539	544	1021	0	0	0	
8	0	0	0	0	537	541	1021	0	0	0	
9	0	0	0	0	534	537	1021	0	0	0	
10	0	0	0	0	531	534	1021	0	0	0	
11	0	0	0	0	528	531	1021	0	0	0	
12	0	0	0	0	526	528	1021	0	0	0	
13	0	0	0	0	525	527	1021	0	0	0	
14	0	0	0	0	523	526	1020	0	0	0	
15	0	0	0	0	523	525	1021	0	0	0	
0	0	0	0	0	523	525	1021	0	0	0	
1	0	0	0	0	522	525	1021	0	0	0	
2	0	0	0	0	520	524	1021	0	0	0	
3	0	0	0	0	518	523	1021	0	0	0	
4	0	0	0	0	515	521	1021	0	0	0	
5	0	0	0	0	513	521	1021	0	0	0	
6	0	0	0	0	512	521	1021	0	0	0	
7	0	0	0	0	512	521	1021	0	0	0	
8	0	0	0	0	512	522	1021	0	0	0	
9	0	0	0	0	514	523	1021	0	0	0	
10	0	0	0	0	516	525	1021	0	0	0	
11	0	0	0	0	519	526	1021	0	0	0	
12	0	0	0	0	522	527	1021	0	0	0	
13	0	0	0	0	525	528	1021	0	0	0	
14	0	0	0	0	528	529	1021	0	0	0	
15	0	0	0	0	531	530	1021	0	0	0	
0	0	0	0	0	533	530	1021	0	0	0	
1	0	0	0	0	533	530	1021	0	0	0	
2	0	0	0	0	533	529	1021	0	0	0	
3	0	0	0	0	531	528	1021	0	0	0	
4	0	0	0	0	529	528	1021	0	0	0	
5	0	0	0	0	527	527	1021	0	0	0	
6	0	0	0	0	524	527	1021	0	0	0	
7	0	0	0	0	521	526	1021	0	0	0	
8	0	0	0	0	519	525	1021	0	0	0	
9	0	0	0	0	516	525	1021	0	0	0	
10	0	0	0	0	515	524	1021	0	0	0	
11	0	0	0	0	514	525	1021	0	0	0	
12	0	0	0	0	514	525	1021	0	0	0	
13	0	0	0	0	515	526	1021	0	0	0	
14	0	0	0	0	518	527	1021	0	0	0	
15	0	0	0	0	521	529	1021	0	0	0	
0	0	0	0	0	525	532	1021	0	0	0	
1	0	0	0	0	530	535	1021	0	0	0	
2	0	0	0	0	536	539	1021	0	0	0	
3	0	0	0	0	543	545	1021	0	0	0	
4	0	0	0	0	550	551	1021	0	0	0	
5	0	0	0	0	558	557	1021	0	0	0	
6	0	0	0	0	566	563	1021	0	0	0	
7	0	0	0	0	571	569	1021	0	0	0	
8	0	0	0	0	575	572	1021	0	0	0	
9	0	0	0	0	575	573	1021	0	0	0	
10	0	0	0	0	572	572	1021	0	0	0	
11	0	0	0	0	567	567	1021	0	0	0	
12	0	0	0	0	559	561	1021	0	0	0	
13	0	0	0	0	549	553	1021	0	0	0	
14	0	0	0	0	538	544	1021	0	0	0	
15	0	0	0	0	527	535	1021	0	0	0	
0	0	0	0	0	515	526	1021	0	0	0	
1	0	0	0	0	506	518	1021	0	0	0	
2	0	0	0	0	499	512	1021	0	0	0	
3	0	0	0	0	494	508	1021	0	0	0	
4	0	0	0	0	492	506	1021	0	0	0	
5	0	0	0	0	494	506	1021	0	0	0	
6	0	0	0	0	497	508	1021	0	0	0	
7	0	0	0	0	502	511	1021	0	0	0	
8	0	0	0	0	508	515	1021	0	0	0	
9	0	0	0	0	514	520	1021	0	0	0	
10	0	0	0	0	522	527	1021	0	0	0	
11	0	0	0	0	529	534	1021	0	0	0	
12	0	0	0	0	536	541	1021	0	0	0	
13	0	0	0	0	543	548	1021	0	0	0	
14	0	0	0	0	548	554	1020	0	0	0	
15	0	0	0	0	553	560	1021	0	0	0	
0	0	0	0	0	556	564	1021	0	0	0	
1	0	0	0	0	557	566	1021	0	0	0	
2	0	0	0	0	556	566	1021	0	0	0	
3	0	0	0	0	553	563	1021	0	0	0	
4	0	0	0	0	548	559	1021	0	0	0	
5	0	0	0	0	541	552	1021	0	0	0	
6	0	0	0	0	534	544	1021	0	0	0	
7	0	0	0	0	525	536	1021	0	0	0	
8	0	0	0	0	517	526	1021	0	0	0	
9	0	0	0	0	508	518	1020	0	0	0	
10	0	0	0	0	502	509	1021	0	0	0	
11	0	0	0	0	496	503	1021	0	0	0	
12	0	0	0	0	492	498	1021	0	0	0	
13	0	0	0	0	490	494	1021	0	0	0	
14	0	0	0	0	489	492	1021	0	0	0	
15	0	0	0	0	490	492	1021	0	0	0	
0	0	0	0	0	492	494	1021	0	0	0	
1	0	0	0	0	495	496	1021	0	0	0	
2	0	0	0	0	499	501	1021	0	0	0	
3	0	0	0	0	504	505	1021	0	0	0	
4	0	0	0	0	509	511	1021	0	0	0	
5	0	0	0	0	514	517	1021	0	0	0	
6	0	0	0	0	520	524	1021	0	0	0	
7	0	0	0	0	525	529	1021	0	0	0	
8	0	0	0	0	530	534	1021	0	0	0	
9	0	0	0	0	534	539	1021	0	0	0	
10	0	0	0	0	537	543	1021	0	0	0	
11	0	0	0	0	541	547	1021	0	0	0	
12	0	0	0	0	545	551	1021	0	0	0	
13	0	0	0	0	548	554	1021	0	0	0	
14	0	0	0	0	551	557	1021	0	0	0	
15	0	0	0	0	554	560	1021	0	0	0	
0	0	0	0	0	557	562	1021	0	0	0	
1	0	0	0	0	559	564	1021	0	0	0	
2	0	0	0	0	560	565	1021	0	0	0	
3	0	0	0	0	559	565	1021	0	0	0	
4	0	0	0	0	558	564	1021	0	0	0	
5	0	0	0	0	556	562	1021	0	0	0	
6	0	0	0	0	552	560	1021	0	0	0	
7	0	0	0	0	547	556	1021	0	0	0	
8	0	0	0	0	542	552	1021	0	0	0	
9	0	0	0	0	536	548	1021	0	0	0	
10	0	0	0	0	531	545	1021	0	0	0	
11	0	0	0	0	527	541	1021	0	0	0	
12	0	0	0	0	523	539	1021	0	0	0	
13	0	0	0	0	520	536	1021	0	0	0	
14	0	0	0	0	518	534	1021	0	0	0	
15	0	0	0	0	518	532	1021	0	0	0	
0	0	0	0	0	518	531	1021	0	0	0	
1	0	0	0	0	519	531	1021	0	0	0	
2	0	0	0	0	520	531	1021	0	0	0	
3	0	0	0	0	523	531	1021	0	0	0	
4	0	0	0	0	526	533	1021	0	0	0	
5	0	0	0	0	530	536	1021	0	0	0	
6	0	0	0	0	534	538	1021	0	0	0	
7	0	0	0	0	537	542	1021	0	0	0	
8	0	0	0	0	541	546	1021	0	0	0	
9	0	0	0	0	544	549	1021	0	0	0	
10	0	0	0	0	545	552	1021	0	0	0	
11	0	0	0	0	545	553	1021	0	0	0	
12	0	0	0	0	544	553	1021	0	0	0	
13	0	0	0	0	541	551	1021	0	0	0	
14	0	0	0	0	537	549	1021	0	0	0	
15	0	0	0	0	532	545	1021	0	0	0	
0	0	0	0	0	527	542	1020	0	0	0	
1	0	0	0	0	522	538	1021	0	0	0	
2	0	0	0	0	518	534	1021	0	0	0	
3	0	0	0	0	513	530	1021	0	0	0	
4	0	0	0	0	510	526	1021	0	0	0	
5	0	0	0	0	506	521	1021	0	0	0	
6	0	0	0	0	504	518	1021	0	0	0	
7	0	0	0	0	502	515	1021	0	0	0	
8	0	0	0	0	502	513	1021	0	0	0	
9	0	0	0	0	503	513	1021	0	0	0	
10	0	0	0	0	505	514	1021	0	0	0	
11	0	0	0	0	509	518	1021	0	0	0	
12	0	0	0	0	515	524	1021	0	0	0	
13	0	0	0	0	523	531	1021	0	0	0	
14	0	0	0	0	531	540	1021	0	0	0	
15	0	0	0	0	540	549	1021	0	0	0	
0	0	0	0	0	548	558	1021	0	0	0	
1	0	0	0	0	556	567	1021	0	0	0	
2	0	0	0	0	563	574	1021	0	0	0	
3	0	0	0	0	567	578	1021	0	0	0	
4	0	0	0	0	568	580	1021	0	0	0	
5	0	0	0	0	567	579	1021	0	0	0	
6	0	0	0	0	563	576	1021	0	0	0	
7	0	0	0	0	556	569	1021	0	0	0	
8	0	0	0	0	547	560	1021	0	0	0	
9	0	0	0	0	536	550	1021	0	0	0	
10	0	0	0	0	525	539	1021	0	0	0	
11	0	0	0	0	514	528	1021	0	0	0	
12	0	0	0	0	504	519	1021	0	0	0	
13	0	0	0	0	495	511	1021	0	0	0	
14	0	0	0	0	488	505	1021	0	0	0	
15	0	0	0	0	485	503	1021	0	0	0	
0	0	0	0	0	484	503	1021	0	0	0	
1	0	0	0	0	486	505	1021	0	0	0	
2	0	0	0	0	490	509	1021	0	0	0	
3	0	0	0	0	496	514	1021	0	0	0	
4	0	0	0	0	502	521	1021	0	0	0	
5	0	0	0	0	510	528	1021	0	0	0	
6	0	0	0	0	517	534	1021	0	0	0	
7	0	0	0	0	524	540	1021	0	0	0	
8	0	0	0	0	531	545	1021	0	0	0	
9	0	0	0	0	536	549	1021	0	0	0	
10	0	0	0	0	539	551	1021	0	0	0	
11	0	0	0	0	541	552	1021	0	0	0	
12	0	0	0	0	541	551	1021	0	0	0	
13	0	0	0	0	540	549	1021	0	0	0	
14	0	0	0	0	538	547	1021	0	0	0	
15	0	0	0	0	535	544	1021	0	0	0	
0	0	0	0	0	533	542	1021	0	0	0	
1	0	0	0	0	532	541	1021	0	0	0	
2	0	0	0	0	531	542	1021	0	0	0	
3	0	0	0	0	534	545	1021	0	0	0	
4	0	0	0	0	537	550	1021	0	0	0	
5	0	0	0	0	543	555	1021	0	0	0	
6	0	0	0	0	548	561	1021	0	0	0	
7	0	0	0	0	552	565	1021	0	0	0	
8	0	0	0	0	555	568	1021	0	0	0	
9	0	0	0	0	555	568	1021	0	0	0	
10	0	0	0	0	552	566	1021	0	0	0	
11	0	0	0	0	548	562	1021	0	0	0	
12	0	0	0	0	542	556	1021	0	0	0	
13	0	0	0	0	535	549	1021	0	0	0	
14	0	0	0	0	527	542	1021	0	0	0	
15	0	0	0	0	519	534	1021	0	0	0	
0	0	0	0	0	512	527	1021	0	0	0	
1	0	0	0	0	507	521	1021	0	0	0	
2	0	0	0	0	503	517	1021	0	0	0	
3	0	0	0	0	502	515	1021	0	0	0	
4	0	0	0	0	502	514	1021	0	0	0	
5	0	0	0	0	504	515	1021	0	0	0	
6	0	0	0	0	508	518	1021	0	0	0	
7	0	0	0	0	512	521	1021	0	0	0	
8	0	0	0	0	518	526	1021	0	0	0	
9	0	0	0	0	524	532	1021	0	0	0	
10	0	0	0	0	529	537	1021	0	0	0	
11	0	0	0	0	535	542	1021	0	0	0	
12	0	0	0	0	538	546	1021	0	0	0	
13	0	0	0	0	540	549	1021	0	0	0	
14	0	0	0	0	541	550	1021	0	0	0	
15	0	0	0	0	540	550	1021	0	0	0	
0	0	0	0	0	536	547	1021	0	0	0	
1	0	0	0	0	531	543	1021	0	0	0	
2	0	0	0	0	525	538	1021	0	0	0	
3	0	0	0	0	518	531	1021	0	0	0	
4	0	0	0	0	509	524	1021	0	0	0	
5	0	0	0	0	501	516	1021	0	0	0	
6	0	0	0	0	492	508	1021	0	0	0	
7	0	0	0	0	484	501	1021	0	0	0	
8	0	0	0	0	477	494	1021	0	0	0	
9	0	0	0	0	470	486	1020	0	0	0	
10	0	0	0	0	463	480	1021	0	0	0	
11	0	0	0	0	456	472	1021	0	0	0	
12	0	0	0	0	448	465	1021	0	0	0	
13	0	0	0	0	440	457	1021	0	0	0	
14	0	0	0	0	429	448	1021	0	0	0	
15	0	0	0	0	418	436	1021	0	0	0	
0	0	0	0	0	405	424	1021	0	0	0	
1	0	0	0	0	390	410	1021	0	0	0	
2	0	0	0	0	374	395	1021	0	0	0	
3	0	0	0	0	355	377	1021	0	0	0	
4	0	0	0	0	336	359	1021	0	0	0	
5	0	0	0	0	316	340	1021	0	0	0	
6	0	0	0	0	297	321	1021	0	0	0	
7	0	0	0	0	279	303	1021	0	0	0	
8	0	0	0	0	263	287	1021	0	0	0	
9	0	0	0	0	251	274	1021	0	0	0	
10	0	0	0	0	243	266	1021	0	0	0	
11	0	0	0	0	242	262	1021	0	0	0	
12	0	0	0	0	247	264	1021	0	0	0	
13	0	0	0	0	258	272	1021	0	0	0	
14	0	0	0	0	275	285	1021	0	0	0	
15	0	0	0	0	299	305	1021	0	0	0	
0	0	0	0	0	327	328	1021	0	0	0	
1	0	0	0	0	359	355	1021	0	0	0	
2	0	0	0	0	393	385	1021	0	0	0	
3	0	0	0	0	428	415	1021	0	0	0	
4	0	0	0	0	462	445	1021	0	0	0	
5	0	0	0	0	493	474	1021	0	0	0	
6	0	0	0	0	520	500	1021	0	0	0	
7	0	0	0	0	543	523	1021	0	0	0	
8	0	0	0	0	560	542	1021	0	0	0	
9	0	0	0	0	572	556	1021	0	0	0	
10	0	0	0	0	579	567	1021	0	0	0	
11	0	0	0	0	580	573	1021	0	0	0	
12	0	0	0	0	578	575	1021	0	0	0	
13	0	0	0	0	572	575	1021	0	0	0	
14	0	0	0	0	563	572	1021	0	0	0	
15	0	0	0	0	554	568	1021	0	0	0	
0	0	0	0	0	544	562	1021	0	0	0	
1	0	0	0	0	536	556	1021	0	0	0	
2	0	0	0	0	529	551	1021	0	0	0	
3	0	0	0	0	524	548	1021	0	0	0	
4	0	0	0	0	522	545	1021	0	0	0	
5	0	0	0	0	522	545	1021	0	0	0	
6	0	0	0	0	524	545	1021	0	0	0	
7	0	0	0	0	526	545	1021	0	0	0	
8	0	0	0	0	529	547	1021	0	0	0	
9	0	0	0	0	534	548	1021	0	0	0	
10	0	0	0	0	537	549	1021	0	0	0	
11	0	0	0	0	540	549	1021	0	0	0	
12	0	0	0	0	542	549	1021	0	0	0	
13	0	0	0	0	543	549	1021	0	0	0	
14	0	0	0	0	544	549	1021	0	0	0	
15	0	0	0	0	545	549	1021	0	0	0	
0	0	0	0	0	545	549	1021	0	0	0	
1	0	0	0	0	546	550	1021	0	0	0	
2	0	0	0	0	547	550	1021	0	0	0	
3	0	0	0	0	547	550	1021	0	0	0	
4	0	0	0	0	547	551	1021	0	0	0	
5	0	0	0	0	547	551	1021	0	0	0	
6	0	0	0	0	547	551	1020	0	0	0	
7	0	0	0	0	547	551	1021	0	0	0	
8	0	0	0	0	546	552	1021	0	0	0	
9	0	0	0	0	546	552	1021	0	0	0	
10	0	0	0	0	545	552	1021	0	0	0	
11	0	0	0	0	545	553	1021	0	0	0	
12	0	0	0	0	545	553	1021	0	0	0	
13	0	0	0	0	545	555	1021	0	0	0	
14	0	0	0	0	546	556	1021	0	0	0	
15	0	0	0	0	548	558	1021	0	0	0	
0	0	0	0	0	549	559	1021	0	0	0	
1	0	0	0	0	551	560	1021	0	0	0	
2	0	0	0	0	551	561	1021	0	0	0	
3	0	0	0	0	552	561	1021	0	0	0	
4	0	0	0	0	552	560	1021	0	0	0	
5	0	0	0	0	551	558	1021	0	0	0	
6	0	0	0	0	548	555	1021	0	0	0	
7	0	0	0	0	544	551	1021	0	0	0	
8	0	0	0	0	539	546	1021	0	0	0	
9	0	0	0	0	535	542	1021	0	0	0	
10	0	0	0	0	530	539	1021	0	0	0	
11	0	0	0	0	526	536	1021	0	0	0	
12	0	0	0	0	523	535	1021	0	0	0	
13	0	0	0	0	523	536	1021	0	0	0	
14	0	0	0	0	525	539	1021	0	0	0	
15	0	0	0	0	529	543	1021	0	0	0	
0	0	0	0	0	536	550	1021	0	0	0	
1	0	0	0	0	543	557	1021	0	0	0	
2	0	0	0	0	551	564	1021	0	0	0	
3	0	0	0	0	558	570	1021	0	0	0	
4	0	0	0	0	564	575	1021	0	0	0	
5	0	0	0	0	568	577	1021	0	0	0	
6	0	0	0	0	570	578	1021	0	0	0	
7	0	0	0	0	568	575	1021	0	0	0	
8	0	0	0	0	564	571	1021	0	0	0	
9	0	0	0	0	558	564	1021	0	0	0	
10	0	0	0	0	549	556	1021	0	0	0	
11	0	0	0	0	541	549	1021	0	0	0	
12	0	0	0	0	534	543	1021	0	0	0	
13	0	0	0	0	527	539	1021	0	0	0	
14	0	0	0	0	524	537	1020	0	0	0	
15	0	0	0	0	524	538	1021	0	0	0	
0	0	0	0	0	526	541	1021	0	0	0	
1	0	0	0	0	531	546	1021	0	0	0	
2	0	0	0	0	537	551	1021	0	0	0	
3	0	0	0	0	544	559	1021	0	0	0	
4	0	0	0	0	552	566	1021	0	0	0	
5	0	0	0	0	559	573	1021	0	0	0	
6	0	0	0	0	566	579	1021	0	0	0	
7	0	0	0	0	572	583	1021	0	0	0	
8	0	0	0	0	576	587	1021	0	0	0	
9	0	0	0	0	579	590	1021	0	0	0	
10	0	0	0	0	580	590	1021	0	0	0	
11	0	0	0	0	579	590	1021	0	0	0	
12	0	0	0	0	577	587	1021	0	0	0	
13	0	0	0	0	573	583	1021	0	0	0	
14	0	0	0	0	568	577	1021	0	0	0	
15	0	0	0	0	561	571	1021	0	0	0	
0	0	0	0	0	553	564	1021	0	0	0	
1	0	0	0	0	546	558	1021	0	0	0	
2	0	0	0	0	540	552	1021	0	0	0	
3	0	0	0	0	535	547	1021	0	0	0	
4	0	0	0	0	530	544	1021	0	0	0	
5	0	0	0	0	527	542	1021	0	0	0	
6	0	0	0	0	525	540	1021	0	0	0	
7	0	0	0	0	524	540	1021	0	0	0	
8	0	0	0	0	524	540	1021	0	0	0	
9	0	0	0	0	525	540	1021	0	0	0	
10	0	0	0	0	526	541	1021	0	0	0	
11	0	0	0	0	527	541	1020	0	0	0	
12	0	0	0	0	527	541	1021	0	0	0	
13	0	0	0	0	527	540	1021	0	0	0	
14	0	0	0	0	527	539	1021	0	0	0	
15	0	0	0	0	526	537	1021	0	0	0	
0	0	0	0	0	525	535	1021	0	0	0	
1	0	0	0	0	524	532	1021	0	0	0	
2	0	0	0	0	522	530	1021	0	0	0	
3	0	0	0	0	521	528	1021	0	0	0	
4	0	0	0	0	521	527	1021	0	0	0	
5	0	0	0	0	521	527	1021	0	0	0	
6	0	0	0	0	521	527	1021	0	0	0	
7	0	0	0	0	523	529	1021	0	0	0	
8	0	0	0	0	525	531	1021	0	0	0	
9	0	0	0	0	527	534	1021	0	0	0	
10	0	0	0	0	528	536	1021	0	0	0	
11	0	0	0	0	530	539	1021	0	0	0	
12	0	0	0	0	531	541	1021	0	0	0	
13	0	0	0	0	533	543	1021	0	0	0	
14	0	0	0	0	535	546	1021	0	0	0	
15	0	0	0	0	536	548	1021	0	0	0	
0	0	0	0	0	539	551	1021	0	0	0	
1	0	0	0	0	542	553	1021	0	0	0	
2	0	0	0	0	545	557	1021	0	0	0	
3	0	0	0	0	549	560	1021	0	0	0	
4	0	0	0	0	553	564	1021	0	0	0	
5	0	0	0	0	557	566	1021	0	0	0	
6	0	0	0	0	560	568	1021	0	0	0	
7	0	0	0	0	563	570	1021	0	0	0	
8	0	0	0	0	565	570	1021	0	0	0	
9	0	0	0	0	566	570	1021	0	0	0	
10	0	0	0	0	564	568	1021	0	0	0	
11	0	0	0	0	562	567	1021	0	0	0	
12	0	0	0	0	559	564	1021	0	0	0	
13	0	0	0	0	555	560	1021	0	0	0	
14	0	0	0	0	549	557	1021	0	0	0	
15	0	0	0	0	543	553	1021	0	0	0	
0	0	0	0	0	537	549	1021	0	0	0	
1	0	0	0	0	531	545	1021	0	0	0	
2	0	0	0	0	526	541	1021	0	0	0	
3	0	0	0	0	520	537	1021	0	0	0	
4	0	0	0	0	515	533	1021	0	0	0	
5	0	0	0	0	511	529	1021	0	0	0	
6	0	0	0	0	508	526	1021	0	0	0	
7	0	0	0	0	505	524	1021	0	0	0	
8	0	0	0	0	505	522	1021	0	0	0	
9	0	0	0	0	506	522	1021	0	0	0	
10	0	0	0	0	509	523	1021	0	0	0	
11	0	0	0	0	513	525	1021	0	0	0	
12	0	0	0	0	519	529	1021	0	0	0	
13	0	0	0	0	526	535	1021	0	0	0	
14	0	0	0	0	533	541	1020	0	0	0	
15	0	0	0	0	541	548	1021	0	0	0	
0	0	0	0	0	548	556	1021	0	0	0	
1	0	0	0	0	555	563	1021	0	0	0	
2	0	0	0	0	560	569	1021	0	0	0	
3	0	0	0	0	565	575	1021	0	0	0	
4	0	0	0	0	568	580	1021	0	0	0	
5	0	0	0	0	570	583	1021	0	0	0	
6	0	0	0	0	571	586	1021	0	0	0	
7	0	0	0	0	571	587	1021	0	0	0	
8	0	0	0	0	569	586	1021	0	0	0	
9	0	0	0	0	568	584	1021	0	0	0	
10	0	0	0	0	565	582	1021	0	0	0	
11	0	0	0	0	562	578	1021	0	0	0	
12	0	0	0	0	558	573	1021	0	0	0	
13	0	0	0	0	553	567	1020	0	0	0	
14	0	0	0	0	548	560	1021	0	0	0	
15	0	0	0	0	543	555	1021	0	0	0	
0	0	0	0	0	538	548	1021	0	0	0	
1	0	0	0	0	534	543	1021	0	0	0	
2	0	0	0	0	529	539	1021	0	0	0	
3	0	0	0	0	526	535	1021	0	0	0	
4	0	0	0	0	524	534	1021	0	0	0	
5	0	0	0	0	524	533	1021	0	0	0	
6	0	0	0	0	524	534	1021	0	0	0	
7	0	0	0	0	525	536	1021	0	0	0	
8	0	0	0	0	527	538	1021	0	0	0	
9	0	0	0	0	530	540	1021	0	0	0	
10	0	0	0	0	532	543	1021	0	0	0	
11	0	0	0	0	536	545	1021	0	0	0	
12	0	0	0	0	538	547	1021	0	0	0	
13	0	0	0	0	541	550	1021	0	0	0	
14	0	0	0	0	543	551	1021	0	0	0	
15	0	0	0	0	546	551	1021	0	0	0	
0	0	0	0	0	547	552	1021	0	0	0	
1	0	0	0	0	548	552	1021	0	0	0	
2	0	0	0	0	548	551	1021	0	0	0	
3	0	0	0	0	547	550	1021	0	0	0	
4	0	0	0	0	546	549	1021	0	0	0	
5	0	0	0	0	545	548	1021	0	0	0	
6	0	0	0	0	543	548	1021	0	0	0	
7	0	0	0	0	542	548	1021	0	0	0	
8	0	0	0	0	540	548	1021	0	0	0	
9	0	0	0	0	540	550	1021	0	0	0	
10	0	0	0	0	540	551	1021	0	0	0	
11	0	0	0	0	540	552	1021	0	0	0	
12	0	0	0	0	541	555	1021	0	0	0	
13	0	0	0	0	543	558	1021	0	0	0	
14	0	0	0	0	546	560	1021	0	0	0	
15	0	0	0	0	548	561	1021	0	0	0	
0	0	0	0	0	550	562	1021	0	0	0	
1	0	0	0	0	550	561	1021	0	0	0	
2	0	0	0	0	549	560	1021	0	0	0	
3	0	0	0	0	548	557	1021	0	0	0	
4	0	0	0	0	546	554	1021	0	0	0	
5	0	0	0	0	543	551	1021	0	0	0	
6	0	0	0	0	540	547	1021	0	0	0	
7	0	0	0	0	537	545	1021	0	0	0	
8	0	0	0	0	535	542	1021	0	0	0	
9	0	0	0	0	532	540	1021	0	0	0	
10	0	0	0	0	531	539	1021	0	0	0	
11	0	0	0	0	530	539	1021	0	0	0	
12	0	0	0	0	530	539	1021	0	0	0	
13	0	0	0	0	531	539	1021	0	0	0	
14	0	0	0	0	531	540	1021	0	0	0	
15	0	0	0	0	532	542	1021	0	0	0	
0	0	0	0	0	535	544	1021	0	0	0	
1	0	0	0	0	537	547	1021	0	0	0	
2	0	0	0	0	541	551	1021	0	0	0	
3	0	0	0	0	545	556	1021	0	0	0	
4	0	0	0	0	550	560	1021	0	0	0	
5	0	0	0	0	555	564	1021	0	0	0	
6	0	0	0	0	560	569	1021	0	0	0	
7	0	0	0	0	565	573	1021	0	0	0	
8	0	0	0	0	570	576	1021	0	0	0	
9	0	0	0	0	574	579	1021	0	0	0	
10	0	0	0	0	577	580	1021	0	0	0	
11	0	0	0	0	579	582	1021	0	0	0	
12	0	0	0	0	579	580	1021	0	0	0	
13	0	0	0	0	579	579	1021	0	0	0	
14	0	0	0	0	576	576	1021	0	0	0	
15	0	0	0	0	572	573	1021	0	0	0	
0	0	0	0	0	568	571	1021	0	0	0	
1	0	0	0	0	563	567	1021	0	0	0	
2	0	0	0	0	559	564	1021	0	0	0	
3	0	0	0	0	555	562	1021	0	0	0	
4	0	0	0	0	551	560	1021	0	0	0	
5	0	0	0	0	548	559	1021	0	0	0	
6	0	0	0	0	547	559	1021	0	0	0	
7	0	0	0	0	546	559	1021	0	0	0	
8	0	0	0	0	546	558	1021	0	0	0	
9	0	0	0	0	548	559	1021	0	0	0	
10	0	0	0	0	550	560	1021	0	0	0	
11	0	0	0	0	553	561	1021	0	0	0	
12	0	0	0	0	556	563	1021	0	0	0	
13	0	0	0	0	559	564	1021	0	0	0	
14	0	0	0	0	561	565	1021	0	0	0	
15	0	0	0	0	562	565	1021	0	0	0	
0	0	0	0	0	562	564	1021	0	0	0	
1	0	0	0	0	560	563	1021	0	0	0	
2	0	0	0	0	558	560	1021	0	0	0	
3	0	0	0	0	555	558	1021	0	0	0	
4	0	0	0	0	552	556	1021	0	0	0	
5	0	0	0	0	550	555	1021	0	0	0	
6	0	0	0	0	548	555	1021	0	0	0	
7	0	0	0	0	547	554	1021	0	0	0	
8	0	0	0	0	547	555	1021	0	0	0	
9	0	0	0	0	547	556	1021	0	0	0	
10	0	0	0	0	547	557	1021	0	0	0	
11	0	0	0	0	547	557	1021	0	0	0	
12	0	0	0	0	547	557	1021	0	0	0	
13	0	0	0	0	546	556	1020	0	0	0	
14	0	0	0	0	544	555	1021	0	0	0	
15	0	0	0	0	543	552	1021	0	0	0	
0	0	0	0	0	541	550	1021	0	0	0	
1	0	0	0	0	539	546	1021	0	0	0	
2	0	0	0	0	537	544	1021	0	0	0	
3	0	0	0	0	536	543	1021	0	0	0	
4	0	0	0	0	537	543	1021	0	0	0	
5	0	0	0	0	538	543	1021	0	0	0	
6	0	0	0	0	540	545	1021	0	0	0	
7	0	0	0	0	543	547	1021	0	0	0	
8	0	0	0	0	547	551	1021	0	0	0	
9	0	0	0	0	551	555	1021	0	0	0	
10	0	0	0	0	554	559	1021	0	0	0	
11	0	0	0	0	557	562	1021	0	0	0	
12	0	0	0	0	558	564	1021	0	0	0	
13	0	0	0	0	559	565	1021	0	0	0	
14	0	0	0	0	559	565	1021	0	0	0	
15	0	0	0	0	559	564	1021	0	0	0	
0	0	0	0	0	557	562	1021	0	0	0	
1	0	0	0	0	555	560	1021	0	0	0	
2	0	0	0	0	553	557	1021	0	0	0	
3	0	0	0	0	551	555	1021	0	0	0	
4	0	0	0	0	550	553	1021	0	0	0	
5	0	0	0	0	548	551	1021	0	0	0	
6	0	0	0	0	547	549	1021	0	0	0	
7	0	0	0	0	546	547	1021	0	0	0	
8	0	0	0	0	545	546	1021	0	0	0	
9	0	0	0	0	544	545	1020	0	0	0	
10	0	0	0	0	543	543	1021	0	0	0	
11	0	0	0	0	540	541	1021	0	0	0	
12	0	0	0	0	536	538	1021	0	0	0	
13	0	0	0	0	532	535	1021	0	0	0	
14	0	0	0	0	526	531	1021	0	0	0	
15	0	0	0	0	520	527	1021	0	0	0	
0	0	0	0	0	514	524	1021	0	0	0	
1	0	0	0	0	509	521	1021	0	0	0	
2	0	0	0	0	504	518	1021	0	0	0	
3	0	0	0	0	501	515	1021	0	0	0	
4	0	0	0	0	499	513	1021	0	0	0	
5	0	0	0	0	499	513	1021	0	0	0	
6	0	0	0	0	501	514	1021	0	0	0	
7	0	0	0	0	505	516	1021	0	0	0	
8	0	0	0	0	511	519	1021	0	0	0	
9	0	0	0	0	519	524	1021	0	0	0	
10	0	0	0	0	528	530	1021	0	0	0	
11	0	0	0	0	538	537	1021	0	0	0	
12	0	0	0	0	549	545	1021	0	0	0	
13	0	0	0	0	559	553	1021	0	0	0	
14	0	0	0	0	569	561	1021	0	0	0	
15	0	0	0	0	577	569	1021	0	0	0	
0	0	0	0	0	584	576	1021	0	0	0	
1	0	0	0	0	588	581	1021	0	0	0	
2	0	0	0	0	591	583	1021	0	0	0	
3	0	0	0	0	590	584	1021	0	0	0	
4	0	0	0	0	587	583	1021	0	0	0	
5	0	0	0	0	582	581	1021	0	0	0	
6	0	0	0	0	576	577	1021	0	0	0	
7	0	0	0	0	568	571	1021	0	0	0	
8	0	0	0	0	560	565	1021	0	0	0	
9	0	0	0	0	553	558	1021	0	0	0	
10	0	0	0	0	546	552	1021	0	0	0	
11	0	0	0	0	541	547	1021	0	0	0	
12	0	0	0	0	537	543	1021	0	0	0	
13	0	0	0	0	535	540	1021	0	0	0	
14	0	0	0	0	533	537	1021	0	0	0	
15	0	0	0	0	534	537	1021	0	0	0	
0	0	0	0	0	535	537	1021	0	0	0	
1	0	0	0	0	537	538	1021	0	0	0	
2	0	0	0	0	539	540	1021	0	0	0	
3	0	0	0	0	541	541	1021	0	0	0	
4	0	0	0	0	543	543	1021	0	0	0	
5	0	0	0	0	544	545	1021	0	0	0	
6	0	0	0	0	544	545	1021	0	0	0	
7	0	0	0	0	544	546	1021	0	0	0	
8	0	0	0	0	543	546	1021	0	0	0	
9	0	0	0	0	542	545	1021	0	0	0	
10	0	0	0	0	540	544	1021	0	0	0	
11	0	0	0	0	537	543	1021	0	0	0	
12	0	0	0	0	536	541	1021	0	0	0	
13	0	0	0	0	533	539	1021	0	0	0	
14	0	0	0	0	531	537	1021	0	0	0	
15	0	0	0	0	530	535	1021	0	0	0	
0	0	0	0	0	529	534	1021	0	0	0	
1	0	0	0	0	529	532	1021	0	0	0	
2	0	0	0	0	529	532	1021	0	0	0	
3	0	0	0	0	531	533	1021	0	0	0	
4	0	0	0	0	532	534	1021	0	0	0	
5	0	0	0	0	535	535	1021	0	0	0	
6	0	0	0	0	537	537	1021	0	0	0	
7	0	0	0	0	540	540	1021	0	0	0	
8	0	0	0	0	542	543	1021	0	0	0	
9	0	0	0	0	544	545	1021	0	0	0	
10	0	0	0	0	546	548	1021	0	0	0	
11	0	0	0	0	547	550	1021	0	0	0	
12	0	0	0	0	549	552	1021	0	0	0	
13	0	0	0	0	549	553	1021	0	0	0	
14	0	0	0	0	549	552	1021	0	0	0	
15	0	0	0	0	548	551	1021	0	0	0	
0	0	0	0	0	545	548	1021	0	0	0	
1	0	0	0	0	542	545	1021	0	0	0	
2	0	0	0	0	539	542	1021	0	0	0	
3	0	0	0	0	536	537	1021	0	0	0	
4	0	0	0	0	533	534	1021	0	0	0	
5	0	0	0	0	531	531	1021	0	0	0	
6	0	0	0	0	529	530	1021	0	0	0	
7	0	0	0	0	530	529	1021	0	0	0	
8	0	0	0	0	532	531	1021	0	0	0	
9	0	0	0	0	535	533	1021	0	0	0	
10	0	0	0	0	538	536	1021	0	0	0	
11	0	0	0	0	542	540	1021	0	0	0	
12	0	0	0	0	546	544	1021	0	0	0	
13	0	0	0	0	550	548	1021	0	0	0	
14	0	0	0	0	553	552	1021	0	0	0	
15	0	0	0	0	556	556	1021	0	0	0	
0	0	0	0	0	558	560	1021	0	0	0	
1	0	0	0	0	559	563	1021	0	0	0	
2	0	0	0	0	559	564	1021	0	0	0	
3	0	0	0	0	558	565	1021	0	0	0	
4	0	0	0	0	555	564	1021	0	0	0	
5	0	0	0	0	552	563	1021	0	0	0	
6	0	0	0	0	548	559	1021	0	0	0	
7	0	0	0	0	544	555	1021	0	0	0	
8	0	0	0	0	540	550	1021	0	0	0	
9	0	0	0	0	535	544	1021	0	0	0	
10	0	0	0	0	530	540	1021	0	0	0	
11	0	0	0	0	526	535	1021	0	0	0	
12	0	0	0	0	523	531	1021	0	0	0	
13	0	0	0	0	522	529	1021	0	0	0	
14	0	0	0	0	522	528	1021	0	0	0	
15	0	0	0	0	524	529	1021	0	0	0	
0	0	0	0	0	528	533	1021	0	0	0	
1	0	0	0	0	533	538	1021	0	0	0	
2	0	0	0	0	540	543	1021	0	0	0	
3	0	0	0	0	547	551	1021	0	0	0	
4	0	0	0	0	554	558	1021	0	0	0	
5	0	0	0	0	560	564	1021	0	0	0	
6	0	0	0	0	565	569	1021	0	0	0	
7	0	0	0	0	568	572	1021	0	0	0	
8	0	0	0	0	569	572	1021	0	0	0	
9	0	0	0	0	567	570	1021	0	0	0	
10	0	0	0	0	563	567	1021	0	0	0	
11	0	0	0	0	558	561	1021	0	0	0	
12	0	0	0	0	552	555	1021	0	0	0	
13	0	0	0	0	545	548	1021	0	0	0	
14	0	0	0	0	539	541	1021	0	0	0	
15	0	0	0	0	533	536	1021	0	0	0	
0	0	0	0	0	529	531	1021	0	0	0	
1	0	0	0	0	527	529	1021	0	0	0	
2	0	0	0	0	526	528	1021	0	0	0	
3	0	0	0	0	527	529	1021	0	0	0	
4	0	0	0	0	531	533	1021	0	0	0	
5	0	0	0	0	536	538	1021	0	0	0	
6	0	0	0	0	542	544	1021	0	0	0	
7	0	0	0	0	548	551	1021	0	0	0	
8	0	0	0	0	555	558	1021	0	0	0	
9	0	0	0	0	561	564	1021	0	0	0	
10	0	0	0	0	566	569	1021	0	0	0	
11	0	0	0	0	570	572	1021	0	0	0	
12	0	0	0	0	571	573	1021	0	0	0	
13	0	0	0	0	570	572	1021	0	0	0	
14	0	0	0	0	568	569	1021	0	0	0	
15	0	0	0	0	563	563	1021	0	0	0	
0	0	0	0	0	556	556	1021	0	0	0	
1	0	0	0	0	549	549	1021	0	0	0	
2	0	0	0	0	542	542	1021	0	0	0	
3	0	0	0	0	535	536	1021	0	0	0	
4	0	0	0	0	529	531	1021	0	0	0	
5	0	0	0	0	525	527	1021	0	0	0	
6	0	0	0	0	524	526	1021	0	0	0	
7	0	0	0	0	524	527	1021	0	0	0	
8	0	0	0	0	527	531	1021	0	0	0	
9	0	0	0	0	532	536	1021	0	0	0	
10	0	0	0	0	538	542	1021	0	0	0	
11	0	0	0	0	545	548	1021	0	0	0	
12	0	0	0	0	552	555	1021	0	0	0	
13	0	0	0	0	559	562	1021	0	0	0	
14	0	0	0	0	564	567	1021	0	0	0	
15	0	0	0	0	569	571	1021	0	0	0	
0	0	0	0	0	571	572	1021	0	0	0	
1	0	0	0	0	571	572	1021	0	0	0	
2	0	0	0	0	568	570	1021	0	0	0	
3	0	0	0	0	564	566	1021	0	0	0	
4	0	0	0	0	558	561	1021	0	0	0	
5	0	0	0	0	551	555	1021	0	0	0	
6	0	0	0	0	545	549	1021	0	0	0	
7	0	0	0	0	539	544	1021	0	0	0	
8	0	0	0	0	535	542	1021	0	0	0	
9	0	0	0	0	532	540	1021	0	0	0	
10	0	0	0	0	532	541	1021	0	0	0	
11	0	0	0	0	535	544	1021	0	0	0	
12	0	0	0	0	539	549	1021	0	0	0	
13	0	0	0	0	545	555	1021	0	0	0	
14	0	0	0	0	552	561	1021	0	0	0	
15	0	0	0	0	559	568	1021	0	0	0	
0	0	0	0	0	566	573	1021	0	0	0	
1	0	0	0	0	572	578	1021	0	0	0	
2	0	0	0	0	576	582	1021	0	0	0	
3	0	0	0	0	579	583	1021	0	0	0	
4	0	0	0	0	580	583	1021	0	0	0	
5	0	0	0	0	579	582	1021	0	0	0	
6	0	0	0	0	577	580	1021	0	0	0	
7	0	0	0	0	574	576	1021	0	0	0	
8	0	0	0	0	570	573	1021	0	0	0	
9	0	0	0	0	567	570	1021	0	0	0	
10	0	0	0	0	563	567	1021	0	0	0	
11	0	0	0	0	561	565	1021	0	0	0	
12	0	0	0	0	558	563	1021	0	0	0	
13	0	0	0	0	556	563	1021	0	0	0	
14	0	0	0	0	556	563	1021	0	0	0	
15	0	0	0	0	554	563	1021	0	0	0	
0	0	0	0	0	554	564	1021	0	0	0	
1	0	0	0	0	553	564	1021	0	0	0	
2	0	0	0	0	552	564	1021	0	0	0	
3	0	0	0	0	550	563	1021	0	0	0	
4	0	0	0	0	546	560	1021	0	0	0	
5	0	0	0	0	542	556	1021	0	0	0	
6	0	0	0	0	536	551	1021	0	0	0	
7	0	0	0	0	531	545	1021	0	0	0	
8	0	0	0	0	524	538	1021	0	0	0	
9	0	0	0	0	519	532	1021	0	0	0	
10	0	0	0	0	514	527	1021	0	0	0	
11	0	0	0	0	512	524	1021	0	0	0	
12	0	0	0	0	511	523	1020	0	0	0	
13	0	0	0	0	513	523	1021	0	0	0	
14	0	0	0	0	518	526	1021	0	0	0	
15	0	0	0	0	526	531	1021	0	0	0	
0	0	0	0	0	535	539	1021	0	0	0	
1	0	0	0	0	545	547	1021	0	0	0	
2	0	0	0	0	556	556	1021	0	0	0	
3	0	0	0	0	566	565	1021	0	0	0	
4	0	0	0	0	576	574	1021	0	0	0	
5	0	0	0	0	583	581	1021	0	0	0	
6	0	0	0	0	588	587	1021	0	0	0	
7	0	0	0	0	590	590	1021	0	0	0	
8	0	0	0	0	589	591	1021	0	0	0	
9	0	0	0	0	586	590	1021	0	0	0	
10	0	0	0	0	581	587	1021	0	0	0	
11	0	0	0	0	574	582	1021	0	0	0	
12	0	0	0	0	566	575	1021	0	0	0	
13	0	0	0	0	556	568	1021	0	0	0	
14	0	0	0	0	549	562	1021	0	0	0	
15	0	0	0	0	542	555	1021	0	0	0	
0	0	0	0	0	536	550	1021	0	0	0	
1	0	0	0	0	533	546	1021	0	0	0	
2	0	0	0	0	531	543	1021	0	0	0	
3	0	0	0	0	532	543	1021	0	0	0	
4	0	0	0	0	535	543	1021	0	0	0	
5	0	0	0	0	539	547	1021	0	0	0	
6	0	0	0	0	545	551	1021	0	0	0	
7	0	0	0	0	551	556	1021	0	0	0	
8	0	0	0	0	559	562	1021	0	0	0	
9	0	0	0	0	565	568	1021	0	0	0	
10	0	0	0	0	571	573	1021	0	0	0	
11	0	0	0	0	575	577	1021	0	0	0	
12	0	0	0	0	578	580	1021	0	0	0	
13	0	0	0	0	578	582	1021	0	0	0	
14	0	0	0	0	576	581	1021	0	0	0	
15	0	0	0	0	572	578	1021	0	0	0	
0	0	0	0	0	566	574	1020	0	0	0	
1	0	0	0	0	559	569	1021	0	0	0	
2	0	0	0	0	552	563	1021	0	0	0	
3	0	0	0	0	545	557	1021	0	0	0	
4	0	0	0	0	539	551	1021	0	0	0	
5	0	0	0	0	534	546	1021	0	0	0	
6	0	0	0	0	530	542	1021	0	0	0	
7	0	0	0	0	528	539	1021	0	0	0	
8	0	0	0	0	528	537	1021	0	0	0	
9	0	0	0	0	530	537	1021	0	0	0	
10	0	0	0	0	533	539	1021	0	0	0	
11	0	0	0	0	537	542	1021	0	0	0	
12	0	0	0	0	543	547	1021	0	0	0	
13	0	0	0	0	550	551	1021	0	0	0	
14	0	0	0	0	556	556	1021	0	0	0	
15	0	0	0	0	560	560	1021	0	0	0	
0	0	0	0	0	564	565	1021	0	0	0	
1	0	0	0	0	567	567	1021	0	0	0	
2	0	0	0	0	568	569	1021	0	0	0	
3	0	0	0	0	567	569	1021	0	0	0	
4	0	0	0	0	564	568	1021	0	0	0	
5	0	0	0	0	560	566	1021	0	0	0	
6	0	0	0	0	555	563	1021	0	0	0	
7	0	0	0	0	550	559	1021	0	0	0	
8	0	0	0	0	545	556	1021	0	0	0	
9	0	0	0	0	541	553	1021	0	0	0	
10	0	0	0	0	539	551	1021	0	0	0	
11	0	0	0	0	539	551	1021	0	0	0	
12	0	0	0	0	540	551	1021	0	0	0	
13	0	0	0	0	542	552	1021	0	0	0	
14	0	0	0	0	545	554	1021	0	0	0	
15	0	0	0	0	549	557	1021	0	0	0	
0	0	0	0	0	553	559	1021	0	0	0	
1	0	0	0	0	556	561	1021	0	0	0	
2	0	0	0	0	559	563	1021	0	0	0	
3	0	0	0	0	560	564	1021	0	0	0	
4	0	0	0	0	560	564	1021	0	0	0	
5	0	0	0	0	557	561	1021	0	0	0	
6	0	0	0	0	551	555	1021	0	0	0	
7	0	0	0	0	541	547	1021	0	0	0	
8	0	0	0	0	528	536	1021	0	0	0	
9	0	0	0	0	513	523	1021	0	0	0	
10	0	0	0	0	496	507	1021	0	0	0	
11	0	0	0	0	478	491	1021	0	0	0	
12	0	0	0	0	459	474	1021	0	0	0	
13	0	0	0	0	440	456	1021	0	0	0	
14	0	0	0	0	421	439	1021	0	0	0	
15	0	0	0	0	403	422	1021	0	0	0	
0	0	0	0	0	387	407	1021	0	0	0	
1	0	0	0	0	373	392	1021	0	0	0	
2	0	0	0	0	363	381	1021	0	0	0	
3	0	0	0	0	355	372	1021	0	0	0	
4	0	0	0	0	349	365	1021	0	0	0	
5	0	0	0	0	345	359	1021	0	0	0	
6	0	0	0	0	343	355	1021	0	0	0	
7	0	0	0	0	342	352	1021	0	0	0	
8	0	0	0	0	341	349	1021	0	0	0	
9	0	0	0	0	339	346	1021	0	0	0	
10	0	0	0	0	338	344	1021	0	0	0	
11	0	0	0	0	337	341	1021	0	0	0	
12	0	0	0	0	336	339	1021	0	0	0	
13	0	0	0	0	335	338	1021	0	0	0	
14	0	0	0	0	337	338	1021	0	0	0	
15	0	0	0	0	340	340	1021	0	0	0	
0	0	0	0	0	345	344	1021	0	0	0	
1	0	0	0	0	353	351	1021	0	0	0	
2	0	0	0	0	365	360	1021	0	0	0	
3	0	0	0	0	379	372	1021	0	0	0	
4	0	0	0	0	396	388	1021	0	0	0	
5	0	0	0	0	417	407	1021	0	0	0	
6	0	0	0	0	440	428	1021	0	0	0	
7	0	0	0	0	465	452	1021	0	0	0	
8	0	0	0	0	491	477	1021	0	0	0	
9	0	0	0	0	517	502	1021	0	0	0	
10	0	0	0	0	542	526	1021	0	0	0	
11	0	0	0	0	563	547	1021	0	0	0	
12	0	0	0	0	580	565	1021	0	0	0	
13	0	0	0	0	593	578	1021	0	0	0	
14	0	0	0	0	600	587	1021	0	0	0	
15	0	0	0	0	603	591	1021	0	0	0	
0	0	0	0	0	600	590	1021	0	0	0	
1	0	0	0	0	593	587	1021	0	0	0	
2	0	0	0	0	583	580	1021	0	0	0	
3	0	0	0	0	572	571	1021	0	0	0	
4	0	0	0	0	559	561	1021	0	0	0	
5	0	0	0	0	546	551	1021	0	0	0	
6	0	0	0	0	534	542	1021	0	0	0	
7	0	0	0	0	525	534	1021	0	0	0	
8	0	0	0	0	519	528	1021	0	0	0	
9	0	0	0	0	515	525	1021	0	0	0	
10	0	0	0	0	514	524	1021	0	0	0	
11	0	0	0	0	515	525	1021	0	0	0	
12	0	0	0	0	520	529	1021	0	0	0	
13	0	0	0	0	526	534	1021	0	0	0	
14	0	0	0	0	534	541	1021	0	0	0	
15	0	0	0	0	542	548	1021	0	0	0	
0	0	0	0	0	550	556	1021	0	0	0	
1	0	0	0	0	558	563	1021	0	0	0	
2	0	0	0	0	564	569	1021	0	0	0	
3	0	0	0	0	570	574	1021	0	0	0	
4	0	0	0	0	574	578	1021	0	0	0	
5	0	0	0	0	577	580	1021	0	0	0	
6	0	0	0	0	578	582	1021	0	0	0	
7	0	0	0	0	579	582	1021	0	0	0	
8	0	0	0	0	578	580	1021	0	0	0	
9	0	0	0	0	577	579	1021	0	0	0	
10	0	0	0	0	575	576	1021	0	0	0	
11	0	0	0	0	573	573	1021	0	0	0	
12	0	0	0	0	570	570	1021	0	0	0	
13	0	0	0	0	566	566	1021	0	0	0	
14	0	0	0	0	563	563	1021	0	0	0	
15	0	0	0	0	560	561	1021	0	0	0	
0	0	0	0	0	559	560	1021	0	0	0	
1	0	0	0	0	559	562	1021	0	0	0	
2	0	0	0	0	560	563	1021	0	0	0	
3	0	0	0	0	561	567	1021	0	0	0	
4	0	0	0	0	564	570	1021	0	0	0	
5	0	0	0	0	567	574	1021	0	0	0	
6	0	0	0	0	569	577	1021	0	0	0	
7	0	0	0	0	570	578	1021	0	0	0	
8	0	0	0	0	569	577	1021	0	0	0	
9	0	0	0	0	568	575	1021	0	0	0	
10	0	0	0	0	564	573	1021	0	0	0	
11	0	0	0	0	561	569	1021	0	0	0	
12	0	0	0	0	557	564	1021	0	0	0	
13	0	0	0	0	553	560	1021	0	0	0	
14	0	0	0	0	551	557	1021	0	0	0	
15	0	0	0	0	549	554	1021	0	0	0	
0	0	0	0	0	548	552	1021	0	0	0	
1	0	0	0	0	548	551	1021	0	0	0	
2	0	0	0	0	549	551	1021	0	0	0	
3	0	0	0	0	551	551	1021	0	0	0	
4	0	0	0	0	552	553	1021	0	0	0	
5	0	0	0	0	553	555	1021	0	0	0	
6	0	0	0	0	555	556	1021	0	0	0	
7	0	0	0	0	556	558	1021	0	0	0	
8	0	0	0	0	556	560	1021	0	0	0	
9	0	0	0	0	556	561	1021	0	0	0	
10	0	0	0	0	557	564	1021	0	0	0	
11	0	0	0	0	558	566	1021	0	0	0	
12	0	0	0	0	559	567	1021	0	0	0	
13	0	0	0	0	559	569	1021	0	0	0	
14	0	0	0	0	559	569	1021	0	0	0	
15	0	0	0	0	558	568	1021	0	0	0	
0	0	0	0	0	557	567	1021	0	0	0	
1	0	0	0	0	555	564	1021	0	0	0	
2	0	0	0	0	553	561	1021	0	0	0	
3	0	0	0	0	551	558	1021	0	0	0	
4	0	0	0	0	549	555	1021	0	0	0	
5	0	0	0	0	547	552	1021	0	0	0	
6	0	0	0	0	545	550	1021	0	0	0	
7	0	0	0	0	544	548	1021	0	0	0	
8	0	0	0	0	544	549	1021	0	0	0	
9	0	0	0	0	546	551	1021	0	0	0	
10	0	0	0	0	548	553	1021	0	0	0	
11	0	0	0	0	552	557	1021	0	0	0	
12	0	0	0	0	557	562	1021	0	0	0	
13	0	0	0	0	561	566	1021	0	0	0	
14	0	0	0	0	566	571	1021	0	0	0	
15	0	0	0	0	570	574	1021	0	0	0	
0	0	0	0	0	572	575	1021	0	0	0	
1	0	0	0	0	573	576	1021	0	0	0	
2	0	0	0	0	572	576	1021	0	0	0	
3	0	0	0	0	571	574	1021	0	0	0	
4	0	0	0	0	568	571	1021	0	0	0	
5	0	0	0	0	563	567	1021	0	0	0	
6	0	0	0	0	559	563	1021	0	0	0	
7	0	0	0	0	553	558	1021	0	0	0	
8	0	0	0	0	547	553	1021	0	0	0	
9	0	0	0	0	542	549	1021	0	0	0	
10	0	0	0	0	536	544	1021	0	0	0	
11	0	0	0	0	530	540	1021	0	0	0	
12	0	0	0	0	525	536	1021	0	0	0	
13	0	0	0	0	521	533	1021	0	0	0	
14	0	0	0	0	518	531	1021	0	0	0	
15	0	0	0	0	516	530	1021	0	0	0	
0	0	0	0	0	516	530	1021	0	0	0	
1	0	0	0	0	518	531	1021	0	0	0	
2	0	0	0	0	520	533	1021	0	0	0	
3	0	0	0	0	524	536	1021	0	0	0	
4	0	0	0	0	528	539	1021	0	0	0	
5	0	0	0	0	532	542	1021	0	0	0	
6	0	0	0	0	537	544	1021	0	0	0	
7	0	0	0	0	541	547	1021	0	0	0	
8	0	0	0	0	544	548	1021	0	0	0	
9	0	0	0	0	546	550	1021	0	0	0	
10	0	0	0	0	547	550	1021	0	0	0	
11	0	0	0	0	547	550	1021	0	0	0	
12	0	0	0	0	547	548	1021	0	0	0	
13	0	0	0	0	546	548	1021	0	0	0	
14	0	0	0	0	543	547	1021	0	0	0	
15	0	0	0	0	541	546	1021	0	0	0	
0	0	0	0	0	539	545	1021	0	0	0	
1	0	0	0	0	537	545	1021	0	0	0	
2	0	0	0	0	535	545	1021	0	0	0	
3	0	0	0	0	532	545	1021	0	0	0	
4	0	0	0	0	531	546	1021	0	0	0	
5	0	0	0	0	530	547	1021	0	0	0	
6	0	0	0	0	531	548	1021	0	0	0	
7	0	0	0	0	532	551	1021	0	0	0	
8	0	0	0	0	535	552	1021	0	0	0	
9	0	0	0	0	539	554	1021	0	0	0	
10	0	0	0	0	543	556	1021	0	0	0	
11	0	0	0	0	547	557	1021	0	0	0	
12	0	0	0	0	552	558	1021	0	0	0	
13	0	0	0	0	556	559	1021	0	0	0	
14	0	0	0	0	559	560	1021	0	0	0	
15	0	0	0	0	562	560	1021	0	0	0	
0	0	0	0	0	563	559	1021	0	0	0	
1	0	0	0	0	563	558	1021	0	0	0	
2	0	0	0	0	560	557	1021	0	0	0	
3	0	0	0	0	557	556	1021	0	0	0	
4	0	0	0	0	553	553	1021	0	0	0	
5	0	0	0	0	548	551	1021	0	0	0	
6	0	0	0	0	542	549	1021	0	0	0	
7	0	0	0	0	536	546	1021	0	0	0	
8	0	0	0	0	528	543	1021	0	0	0	
9	0	0	0	0	522	540	1021	0	0	0	
10	0	0	0	0	516	536	1021	0	0	0	
11	0	0	0	0	511	534	1021	0	0	0	
12	0	0	0	0	508	531	1021	0	0	0	
13	0	0	0	0	507	531	1021	0	0	0	
14	0	0	0	0	508	531	1021	0	0	0	
15	0	0	0	0	511	532	1021	0	0	0	
0	0	0	0	0	517	535	1021	0	0	0	
1	0	0	0	0	524	539	1021	0	0	0	
2	0	0	0	0	531	544	1021	0	0	0	
3	0	0	0	0	540	548	1021	0	0	0	
4	0	0	0	0	549	553	1021	0	0	0	
5	0	0	0	0	556	558	1021	0	0	0	
6	0	0	0	0	562	561	1021	0	0	0	
7	0	0	0	0	566	564	1021	0	0	0	
8	0	0	0	0	568	565	1021	0	0	0	
9	0	0	0	0	568	564	1021	0	0	0	
10	0	0	0	0	565	563	1021	0	0	0	
11	0	0	0	0	560	560	1021	0	0	0	
12	0	0	0	0	554	556	1021	0	0	0	
13	0	0	0	0	547	552	1021	0	0	0	
14	0	0	0	0	540	547	1021	0	0	0	
15	0	0	0	0	532	542	1021	0	0	0	
0	0	0	0	0	525	537	1021	0	0	0	
1	0	0	0	0	518	532	1021	0	0	0	
2	0	0	0	0	513	529	1021	0	0	0	
3	0	0	0	0	510	526	1021	0	0	0	
4	0	0	0	0	508	524	1021	0	0	0	
5	0	0	0	0	508	522	1021	0	0	0	
6	0	0	0	0	509	521	1021	0	0	0	
7	0	0	0	0	510	521	1021	0	0	0	
8	0	0	0	0	511	520	1021	0	0	0	
9	0	0	0	0	513	520	1021	0	0	0	
10	0	0	0	0	515	520	1021	0	0	0	
11	0	0	0	0	518	521	1021	0	0	0	
12	0	0	0	0	520	524	1021	0	0	0	
13	0	0	0	0	523	526	1021	0	0	0	
14	0	0	0	0	526	529	1021	0	0	0	
15	0	0	0	0	527	531	1020	0	0	0	
0	0	0	0	0	531	534	1021	0	0	0	
1	0	0	0	0	532	537	1021	0	0	0	
2	0	0	0	0	535	540	1021	0	0	0	
3	0	0	0	0	536	542	1020	0	0	0	
4	0	0	0	0	538	543	1021	0	0	0	
5	0	0	0	0	540	545	1021	0	0	0	
6	0	0	0	0	541	547	1021	0	0	0	
7	0	0	0	0	543	548	1021	0	0	0	
8	0	0	0	0	545	549	1021	0	0	0	
9	0	0	0	0	547	550	1021	0	0	0	
10	0	0	0	0	548	551	1021	0	0	0	
11	0	0	0	0	550	552	1021	0	0	0	
12	0	0	0	0	551	552	1021	0	0	0	
13	0	0	0	0	551	552	1021	0	0	0	
14	0	0	0	0	549	551	1021	0	0	0	
15	0	0	0	0	547	550	1021	0	0	0	
0	0	0	0	0	545	549	1021	0	0	0	
1	0	0	0	0	542	547	1021	0	0	0	
2	0	0	0	0	539	546	1021	0	0	0	
3	0	0	0	0	535	544	1021	0	0	0	
4	0	0	0	0	531	542	1021	0	0	0	
5	0	0	0	0	528	540	1021	0	0	0	
6	0	0	0	0	525	538	1021	0	0	0	
7	0	0	0	0	523	536	1021	0	0	0	
8	0	0	0	0	520	534	1021	0	0	0	
9	0	0	0	0	519	531	1021	0	0	0	
10	0	0	0	0	519	530	1021	0	0	0	
11	0	0	0	0	519	529	1021	0	0	0	
12	0	0	0	0	520	529	1021	0	0	0	
13	0	0	0	0	522	529	1021	0	0	0	
14	0	0	0	0	524	531	1021	0	0	0	
15	0	0	0	0	527	532	1021	0	0	0	
0	0	0	0	0	531	535	1021	0	0	0	
1	0	0	0	0	534	537	1021	0	0	0	
2	0	0	0	0	538	540	1021	0	0	0	
3	0	0	0	0	542	544	1021	0	0	0	
4	0	0	0	0	547	549	1021	0	0	0	
5	0	0	0	0	551	554	1021	0	0	0	
6	0	0	0	0	556	559	1021	0	0	0	
7	0	0	0	0	560	563	1021	0	0	0	
8	0	0	0	0	563	567	1021	0	0	0	
9	0	0	0	0	564	570	1021	0	0	0	
10	0	0	0	0	566	572	1021	0	0	0	
11	0	0	0	0	564	572	1021	0	0	0	
12	0	0	0	0	562	570	1021	0	0	0	
13	0	0	0	0	558	567	1021	0	0	0	
14	0	0	0	0	553	563	1021	0	0	0	
15	0	0	0	0	548	558	1021	0	0	0	
0	0	0	0	0	543	553	1021	0	0	0	
1	0	0	0	0	539	549	1021	0	0	0	
2	0	0	0	0	535	545	1021	0	0	0	
3	0	0	0	0	532	542	1021	0	0	0	
4	0	0	0	0	531	540	1021	0	0	0	
5	0	0	0	0	529	539	1021	0	0	0	
6	0	0	0	0	529	538	1021	0	0	0	
7	0	0	0	0	528	537	1021	0	0	0	
8	0	0	0	0	528	537	1021	0	0	0	
9	0	0	0	0	528	536	1021	0	0	0	
10	0	0	0	0	529	537	1021	0	0	0	
11	0	0	0	0	529	537	1021	0	0	0	
12	0	0	0	0	529	536	1021	0	0	0	
13	0	0	0	0	529	535	1021	0	0	0	
14	0	0	0	0	527	532	1021	0	0	0	
15	0	0	0	0	525	528	1021	0	0	0	
0	0	0	0	0	521	524	1020	0	0	0	
1	0	0	0	0	517	519	1021	0	0	0	
2	0	0	0	0	513	515	1021	0	0	0	
3	0	0	0	0	510	512	1021	0	0	0	
4	0	0	0	0	507	509	1021	0	0	0	
5	0	0	0	0	505	507	1021	0	0	0	
6	0	0	0	0	504	505	1021	0	0	0	
7	0	0	0	0	504	506	1021	0	0	0	
8	0	0	0	0	505	506	1021	0	0	0	
9	0	0	0	0	507	508	1021	0	0	0	
10	0	0	0	0	510	511	1021	0	0	0	
11	0	0	0	0	513	514	1021	0	0	0	
12	0	0	0	0	518	518	1021	0	0	0	
13	0	0	0	0	523	523	1021	0	0	0	
14	0	0	0	0	527	527	1021	0	0	0	
15	0	0	0	0	532	531	1021	0	0	0	
0	0	0	0	0	536	536	1021	0	0	0	
1	0	0	0	0	540	540	1021	0	0	0	
2	0	0	0	0	543	543	1021	0	0	0	
3	0	0	0	0	545	545	1021	0	0	0	
4	0	0	0	0	547	547	1021	0	0	0	
5	0	0	0	0	547	547	1021	0	0	0	
6	0	0	0	0	548	548	1021	0	0	0	
7	0	0	0	0	548	549	1021	0	0	0	
8	0	0	0	0	548	550	1021	0	0	0	
9	0	0	0	0	548	550	1021	0	0	0	
10	0	0	0	0	548	550	1021	0	0	0	
11	0	0	0	0	548	551	1021	0	0	0	
12	0	0	0	0	549	551	1021	0	0	0	
13	0	0	0	0	549	551	1021	0	0	0	
14	0	0	0	0	549	551	1021	0	0	0	
15	0	0	0	0	549	552	1021	0	0	0	
0	0	0	0	0	548	552	1021	0	0	0	
1	0	0	0	0	547	552	1021	0	0	0	
2	0	0	0	0	545	551	1021	0	0	0	
3	0	0	0	0	543	550	1021	0	0	0	
4	0	0	0	0	539	547	1021	0	0	0	
5	0	0	0	0	535	544	1021	0	0	0	
6	0	0	0	0	531	540	1021	0	0	0	
7	0	0	0	0	526	536	1021	0	0	0	
8	0	0	0	0	521	530	1021	0	0	0	
9	0	0	0	0	516	526	1021	0	0	0	
10	0	0	0	0	513	521	1021	0	0	0	
11	0	0	0	0	510	518	1021	0	0	0	
12	0	0	0	0	509	515	1021	0	0	0	
13	0	0	0	0	508	513	1021	0	0	0	
14	0	0	0	0	509	512	1021	0	0	0	
15	0	0	0	0	511	513	1021	0	0	0	
0	0	0	0	0	512	513	1021	0	0	0	
1	0	0	0	0	515	515	1021	0	0	0	
2	0	0	0	0	518	517	1021	0	0	0	
3	0	0	0	0	520	519	1021	0	0	0	
4	0	0	0	0	523	522	1021	0	0	0	
5	0	0	0	0	526	526	1021	0	0	0	
6	0	0	0	0	528	530	1021	0	0	0	
7	0	0	0	0	531	533	1021	0	0	0	
8	0	0	0	0	533	536	1021	0	0	0	
9	0	0	0	0	534	538	1021	0	0	0	
10	0	0	0	0	535	539	1021	0	0	0	
11	0	0	0	0	534	538	1021	0	0	0	
12	0	0	0	0	532	536	1021	0	0	0	
13	0	0	0	0	529	533	1020	0	0	0	
14	0	0	0	0	526	529	1021	0	0	0	
15	0	0	0	0	523	524	1021	0	0	0	
0	0	0	0	0	519	519	1021	0	0	0	
1	0	0	0	0	515	514	1020	0	0	0	
2	0	0	0	0	511	509	1021	0	0	0	
3	0	0	0	0	509	505	1021	0	0	0	
4	0	0	0	0	507	503	1021	0	0	0	
5	0	0	0	0	506	502	1021	0	0	0	
6	0	0	0	0	505	502	1021	0	0	0	
7	0	0	0	0	506	503	1021	0	0	0	
8	0	0	0	0	507	505	1021	0	0	0	
9	0	0	0	0	509	508	1021	0	0	0	
10	0	0	0	0	511	512	1021	0	0	0	
11	0	0	0	0	512	515	1021	0	0	0	
12	0	0	0	0	513	518	1021	0	0	0	
13	0	0	0	0	514	520	1021	0	0	0	
14	0	0	0	0	515	521	1021	0	0	0	
15	0	0	0	0	515	523	1021	0	0	0	
0	0	0	0	0	515	523	1021	0	0	0	
1	0	0	0	0	515	522	1021	0	0	0	
2	0	0	0	0	515	522	1021	0	0	0	
3	0	0	0	0	516	522	1021	0	0	0	
4	0	0	0	0	518	522	1021	0	0	0	
5	0	0	0	0	520	522	1021	0	0	0	
6	0	0	0	0	524	524	1021	0	0	0	
7	0	0	0	0	527	526	1021	0	0	0	
8	0	0	0	0	532	529	1021	0	0	0	
9	0	0	0	0	537	532	1021	0	0	0	
10	0	0	0	0	542	536	1021	0	0	0	
11	0	0	0	0	546	539	1021	0	0	0	
12	0	0	0	0	550	542	1021	0	0	0	
13	0	0	0	0	551	543	1021	0	0	0	
14	0	0	0	0	552	545	1021	0	0	0	
15	0	0	0	0	551	544	1021	0	0	0	
0	0	0	0	0	549	543	1021	0	0	0	
1	0	0	0	0	546	542	1021	0	0	0	
2	0	0	0	0	543	540	1021	0	0	0	
3	0	0	0	0	539	538	1021	0	0	0	
4	0	0	0	0	536	536	1021	0	0	0	
5	0	0	0	0	533	534	1021	0	0	0	
6	0	0	0	0	530	532	1021	0	0	0	
7	0	0	0	0	528	531	1021	0	0	0	
8	0	0	0	0	525	528	1021	0	0	0	
9	0	0	0	0	523	526	1021	0	0	0	
10	0	0	0	0	521	524	1021	0	0	0	
11	0	0	0	0	520	522	1021	0	0	0	
12	0	0	0	0	519	520	1021	0	0	0	
13	0	0	0	0	519	519	1021	0	0	0	
14	0	0	0	0	519	519	1021	0	0	0	
15	0	0	0	0	519	519	1021	0	0	0	
0	0	0	0	0	519	520	1021	0	0	0	
1	0	0	0	0	521	521	1021	0	0	0	
2	0	0	0	0	522	523	1021	0	0	0	
3	0	0	0	0	523	525	1021	0	0	0	
4	0	0	0	0	524	526	1021	0	0	0	
5	0	0	0	0	524	528	1021	0	0	0	
6	0	0	0	0	525	530	1021	0	0	0	
7	0	0	0	0	526	532	1021	0	0	0	
8	0	0	0	0	528	535	1021	0	0	0	
9	0	0	0	0	531	537	1021	0	0	0	
10	0	0	0	0	535	541	1021	0	0	0	
11	0	0	0	0	537	543	1021	0	0	0	
12	0	0	0	0	539	543	1021	0	0	0	
13	0	0	0	0	540	543	1021	0	0	0	
14	0	0	0	0	538	540	1021	0	0	0	
15	0	0	0	0	536	537	1021	0	0	0	
0	0	0	0	0	531	532	1021	0	0	0	
1	0	0	0	0	527	527	1021	0	0	0	
2	0	0	0	0	521	522	1021	0	0	0	
3	0	0	0	0	516	517	1021	0	0	0	
4	0	0	0	0	512	514	1021	0	0	0	
5	0	0	0	0	510	513	1021	0	0	0	
6	0	0	0	0	508	512	1021	0	0	0	
7	0	0	0	0	509	513	1021	0	0	0	
8	0	0	0	0	510	515	1021	0	0	0	
9	0	0	0	0	512	518	1021	0	0	0	
10	0	0	0	0	515	521	1021	0	0	0	
11	0	0	0	0	519	524	1021	0	0	0	
12	0	0	0	0	522	526	1021	0	0	0	
13	0	0	0	0	525	528	1021	0	0	0	
14	0	0	0	0	528	530	1021	0	0	0	
15	0	0	0	0	530	531	1021	0	0	0	
0	0	0	0	0	532	531	1021	0	0	0	
1	0	0	0	0	534	531	1021	0	0	0	
2	0	0	0	0	535	531	1021	0	0	0	
3	0	0	0	0	537	532	1021	0	0	0	
4	0	0	0	0	539	534	1021	0	0	0	
5	0	0	0	0	541	536	1021	0	0	0	
6	0	0	0	0	544	540	1021	0	0	0	
7	0	0	0	0	547	544	1021	0	0	0	
8	0	0	0	0	551	549	1021	0	0	0	
9	0	0	0	0	555	555	1021	0	0	0	
10	0	0	0	0	560	561	1021	0	0	0	
11	0	0	0	0	566	568	1021	0	0	0	
12	0	0	0	0	570	575	1021	0	0	0	
13	0	0	0	0	574	581	1021	0	0	0	
14	0	0	0	0	577	585	1021	0	0	0	
15	0	0	0	0	577	587	1021	0	0	0	
0	0	0	0	0	576	586	1020	0	0	0	
1	0	0	0	0	573	583	1021	0	0	0	
2	0	0	0	0	568	578	1021	0	0	0	
3	0	0	0	0	562	572	1021	0	0	0	
4	0	0	0	0	556	564	1021	0	0	0	
5	0	0	0	0	549	556	1021	0	0	0	
6	0	0	0	0	542	547	1021	0	0	0	
7	0	0	0	0	536	540	1021	0	0	0	
8	0	0	0	0	531	532	1021	0	0	0	
9	0	0	0	0	527	527	1021	0	0	0	
10	0	0	0	0	524	522	1021	0	0	0	
11	0	0	0	0	521	519	1021	0	0	0	
12	0	0	0	0	520	519	1021	0	0	0	
13	0	0	0	0	520	519	1021	0	0	0	
14	0	0	0	0	521	521	1021	0	0	0	
15	0	0	0	0	523	524	1021	0	0	0	
0	0	0	0	0	524	527	1021	0	0	0	
1	0	0	0	0	524	529	1021	0	0	0	
2	0	0	0	0	524	530	1021	0	0	0	
3	0	0	0	0	523	529	1021	0	0	0	
4	0	0	0	0	520	528	1021	0	0	0	
5	0	0	0	0	516	524	1021	0	0	0	
6	0	0	0	0	513	520	1021	0	0	0	
7	0	0	0	0	510	517	1021	0	0	0	
8	0	0	0	0	506	513	1021	0	0	0	
9	0	0	0	0	504	510	1021	0	0	0	
10	0	0	0	0	504	508	1021	0	0	0	
11	0	0	0	0	506	509	1021	0	0	0	
12	0	0	0	0	509	511	1021	0	0	0	
13	0	0	0	0	514	514	1021	0	0	0	
14	0	0	0	0	519	519	1021	0	0	0	
15	0	0	0	0	525	523	1021	0	0	0	
0	0	0	0	0	531	528	1021	0	0	0	
1	0	0	0	0	536	534	1021	0	0	0	
2	0	0	0	0	540	539	1021	0	0	0	
3	0	0	0	0	543	543	1021	0	0	0	
4	0	0	0	0	546	546	1021	0	0	0	
5	0	0	0	0	547	549	1021	0	0	0	
6	0	0	0	0	547	550	1021	0	0	0	
7	0	0	0	0	546	551	1021	0	0	0	
8	0	0	0	0	544	550	1021	0	0	0	
9	0	0	0	0	542	548	1021	0	0	0	
10	0	0	0	0	540	547	1021	0	0	0	
11	0	0	0	0	539	546	1021	0	0	0	
12	0	0	0	0	540	546	1021	0	0	0	
13	0	0	0	0	541	546	1021	0	0	0	
14	0	0	0	0	542	547	1021	0	0	0	
15	0	0	0	0	545	547	1021	0	0	0	
0	0	0	0	0	546	546	1021	0	0	0	
1	0	0	0	0	547	545	1021	0	0	0	
2	0	0	0	0	546	544	1021	0	0	0	
3	0	0	0	0	545	542	1021	0	0	0	
4	0	0	0	0	543	540	1021	0	0	0	
5	0	0	0	0	540	538	1021	0	0	0	
6	0	0	0	0	537	536	1021	0	0	0	
7	0	0	0	0	534	535	1021	0	0	0	
8	0	0	0	0	531	534	1021	0	0	0	
9	0	0	0	0	529	532	1021	0	0	0	
10	0	0	0	0	526	531	1021	0	0	0	
11	0	0	0	0	524	531	1021	0	0	0	
12	0	0	0	0	523	531	1021	0	0	0	
13	0	0	0	0	522	531	1021	0	0	0	
14	0	0	0	0	522	532	1021	0	0	0	
15	0	0	0	0	524	533	1021	0	0	0	
0	0	0	0	0	525	534	1021	0	0	0	
1	0	0	0	0	527	535	1021	0	0	0	
2	0	0	0	0	529	534	1021	0	0	0	
3	0	0	0	0	530	535	1021	0	0	0	
4	0	0	0	0	531	534	1021	0	0	0	
5	0	0	0	0	531	533	1021	0	0	0	
6	0	0	0	0	532	532	1021	0	0	0	
7	0	0	0	0	532	532	1021	0	0	0	
8	0	0	0	0	533	532	1021	0	0	0	
9	0	0	0	0	535	534	1021	0	0	0	
10	0	0	0	0	536	536	1021	0	0	0	
11	0	0	0	0	538	538	1021	0	0	0	
12	0	0	0	0	539	541	1021	0	0	0	
13	0	0	0	0	542	544	1021	0	0	0	
14	0	0	0	0	543	546	1021	0	0	0	
15	0	0	0	0	544	548	1021	0	0	0	
0	0	0	0	0	544	548	1021	0	0	0	
1	0	0	0	0	543	548	1021	0	0	0	
2	0	0	0	0	542	547	1021	0	0	0	
3	0	0	0	0	540	545	1021	0	0	0	
4	0	0	0	0	537	543	1021	0	0	0	
5	0	0	0	0	535	540	1021	0	0	0	
6	0	0	0	0	532	539	1021	0	0	0	
7	0	0	0	0	532	538	1021	0	0	0	
8	0	0	0	0	532	538	1021	0	0	0	
9	0	0	0	0	534	539	1021	0	0	0	
10	0	0	0	0	537	542	1021	0	0	0	
11	0	0	0	0	540	546	1021	0	0	0	
12	0	0	0	0	544	550	1021	0	0	0	
13	0	0	0	0	549	555	1021	0	0	0	
14	0	0	0	0	554	559	1021	0	0	0	
15	0	0	0	0	558	564	1021	0	0	0	
0	0	0	0	0	561	568	1021	0	0	0	
1	0	0	0	0	565	573	1021	0	0	0	
2	0	0	0	0	567	575	1021	0	0	0	
3	0	0	0	0	568	577	1021	0	0	0	
4	0	0	0	0	567	576	1021	0	0	0	
5	0	0	0	0	563	574	1021	0	0	0	
6	0	0	0	0	559	568	1021	0	0	0	
7	0	0	0	0	552	562	1021	0	0	0	
8	0	0	0	0	545	555	1021	0	0	0	
9	0	0	0	0	538	547	1021	0	0	0	
10	0	0	0	0	531	540	1021	0	0	0	
11	0	0	0	0	525	533	1021	0	0	0	
12	0	0	0	0	520	528	1021	0	0	0	
13	0	0	0	0	517	524	1021	0	0	0	
14	0	0	0	0	514	520	1021	0	0	0	
15	0	0	0	0	513	519	1021	0	0	0	
0	0	0	0	0	512	518	1021	0	0	0	
1	0	0	0	0	513	518	1021	0	0	0	
2	0	0	0	0	513	519	1021	0	0	0	
3	0	0	0	0	515	520	1021	0	0	0	
4	0	0	0	0	515	522	1021	0	0	0	
5	0	0	0	0	517	524	1021	0	0	0	
6	0	0	0	0	519	527	1021	0	0	0	
7	0	0	0	0	521	529	1021	0	0	0	
8	0	0	0	0	523	531	1021	0	0	0	
9	0	0	0	0	525	534	1021	0	0	0	
10	0	0	0	0	528	536	1021	0	0	0	
11	0	0	0	0	531	539	1021	0	0	0	
12	0	0	0	0	535	542	1021	0	0	0	
13	0	0	0	0	539	546	1020	0	0	0	
14	0	0	0	0	544	551	1021	0	0	0	
15	0	0	0	0	550	556	1021	0	0	0	
0	0	0	0	0	556	561	1021	0	0	0	
1	0	0	0	0	562	567	1021	0	0	0	
2	0	0	0	0	568	572	1021	0	0	0	
3	0	0	0	0	574	577	1021	0	0	0	
4	0	0	0	0	578	582	1021	0	0	0	
5	0	0	0	0	582	585	1021	0	0	0	
6	0	0	0	0	584	588	1021	0	0	0	
7	0	0	0	0	584	588	1021	0	0	0	
8	0	0	0	0	583	587	1021	0	0	0	
9	0	0	0	0	579	584	1021	0	0	0	
10	0	0	0	0	573	579	1021	0	0	0	
11	0	0	0	0	566	573	1021	0	0	0	
12	0	0	0	0	556	565	1021	0	0	0	
13	0	0	0	0	547	557	1020	0	0	0	
14	0	0	0	0	536	547	1021	0	0	0	
15	0	0	0	0	526	538	1021	0	0	0	
0	0	0	0	0	515	527	1021	0	0	0	
1	0	0	0	0	505	518	1020	0	0	0	
2	0	0	0	0	496	508	1021	0	0	0	
3	0	0	0	0	488	500	1021	0	0	0	
4	0	0	0	0	482	493	1021	0	0	0	
5	0	0	0	0	476	487	1021	0	0	0	
6	0	0	0	0	471	481	1021	0	0	0	
7	0	0	0	0	465	475	1021	0	0	0	
8	0	0	0	0	460	469	1021	0	0	0	
9	0	0	0	0	453	463	1021	0	0	0	
10	0	0	0	0	446	455	1021	0	0	0	
11	0	0	0	0	437	447	1021	0	0	0	
12	0	0	0	0	426	438	1020	0	0	0	
13	0	0	0	0	414	426	1021	0	0	0	
14	0	0	0	0	400	413	1021	0	0	0	
15	0	0	0	0	384	399	1021	0	0	0	
0	0	0	0	0	369	384	1020	0	0	0	
1	0	0	0	0	352	368	1021	0	0	0	
2	0	0	0	0	336	353	1021	0	0	0	
3	0	0	0	0	321	337	1021	0	0	0	
4	0	0	0	0	306	322	1021	0	0	0	
5	0	0	0	0	294	308	1021	0	0	0	
6	0	0	0	0	283	296	1021	0	0	0	
7	0	0	0	0	275	287	1021	0	0	0	
8	0	0	0	0	271	281	1021	0	0	0	
9	0	0	0	0	271	278	1021	0	0	0	
10	0	0	0	0	274	279	1021	0	0	0	
11	0	0	0	0	281	284	1021	0	0	0	
12	0	0	0	0	293	294	1021	0	0	0	
13	0	0	0	0	309	307	1021	0	0	0	
14	0	0	0	0	328	324	1021	0	0	0	
15	0	0	0	0	351	344	1021	0	0	0	
0	0	0	0	0	377	368	1021	0	0	0	
1	0	0	0	0	405	394	1021	0	0	0	
2	0	0	0	0	435	422	1021	0	0	0	
3	0	0	0	0	466	450	1021	0	0	0	
4	0	0	0	0	497	479	1021	0	0	0	
5	0	0	0	0	527	508	1021	0	0	0	
6	0	0	0	0	555	534	1021	0	0	0	
7	0	0	0	0	579	557	1021	0	0	0	
8	0	0	0	0	599	577	1021	0	0	0	
9	0	0	0	0	614	592	1021	0	0	0	
10	0	0	0	0	623	603	1021	0	0	0	
11	0	0	0	0	628	610	1021	0	0	0	
12	0	0	0	0	628	613	1021	0	0	0	
13	0	0	0	0	624	612	1021	0	0	0	
14	0	0	0	0	617	610	1021	0	0	0	
15	0	0	0	0	607	605	1021	0	0	0	
0	0	0	0	0	597	599	1021	0	0	0	
1	0	0	0	0	587	593	1021	0	0	0	
2	0	0	0	0	576	587	1021	0	0	0	
3	0	0	0	0	567	580	1021	0	0	0	
4	0	0	0	0	558	575	1021	0	0	0	
5	0	0	0	0	551	570	1021	0	0	0	
6	0	0	0	0	547	566	1021	0	0	0	
7	0	0	0	0	543	562	1021	0	0	0	
8	0	0	0	0	542	560	1021	0	0	0	
9	0	0	0	0	542	558	1021	0	0	0	
10	0	0	0	0	543	557	1021	0	0	0	
11	0	0	0	0	545	557	1021	0	0	0	
12	0	0	0	0	549	557	1021	0	0	0	
13	0	0	0	0	553	558	1021	0	0	0	
14	0	0	0	0	558	560	1021	0	0	0	
15	0	0	0	0	563	563	1021	0	0	0	
0	0	0	0	0	569	567	1021	0	0	0	
1	0	0	0	0	575	571	1021	0	0	0	
2	0	0	0	0	580	576	1020	0	0	0	
3	0	0	0	0	584	580	1021	0	0	0	
4	0	0	0	0	587	584	1021	0	0	0	
5	0	0	0	0	589	588	1021	0	0	0	
6	0	0	0	0	589	591	1021	0	0	0	
7	0	0	0	0	589	592	1021	0	0	0	
8	0	0	0	0	586	592	1021	0	0	0	
9	0	0	0	0	583	592	1021	0	0	0	
10	0	0	0	0	579	591	1021	0	0	0	
11	0	0	0	0	575	590	1021	0	0	0	
12	0	0	0	0	572	588	1021	0	0	0	
13	0	0	0	0	569	586	1020	0	0	0	
14	0	0	0	0	568	585	1021	0	0	0	
15	0	0	0	0	568	584	1021	0	0	0	
0	0	0	0	0	568	583	1021	0	0	0	
1	0	0	0	0	569	582	1020	0	0	0	
2	0	0	0	0	569	579	1021	0	0	0	
3	0	0	0	0	569	576	1021	0	0	0	
4	0	0	0	0	567	571	1021	0	0	0	
5	0	0	0	0	564	566	1021	0	0	0	
6	0	0	0	0	561	561	1021	0	0	0	
7	0	0	0	0	558	558	1021	0	0	0	
8	0	0	0	0	556	556	1021	0	0	0	
9	0	0	0	0	556	556	1021	0	0	0	
10	0	0	0	0	558	558	1021	0	0	0	
11	0	0	0	0	560	561	1021	0	0	0	
12	0	0	0	0	564	565	1021	0	0	0	
13	0	0	0	0	569	572	1021	0	0	0	
14	0	0	0	0	575	577	1021	0	0	0	
15	0	0	0	0	580	582	1021	0	0	0	
0	0	0	0	0	584	586	1021	0	0	0	
1	0	0	0	0	586	588	1021	0	0	0	
2	0	0	0	0	586	588	1021	0	0	0	
3	0	0	0	0	583	585	1021	0	0	0	
4	0	0	0	0	579	581	1021	0	0	0	
5	0	0	0	0	573	574	1021	0	0	0	
6	0	0	0	0	566	567	1021	0	0	0	
7	0	0	0	0	558	559	1021	0	0	0	
8	0	0	0	0	549	551	1021	0	0	0	
9	0	0	0	0	542	544	1021	0	0	0	
10	0	0	0	0	535	537	1021	0	0	0	
11	0	0	0	0	529	533	1021	0	0	0	
12	0	0	0	0	526	530	1021	0	0	0	
13	0	0	0	0	524	529	1021	0	0	0	
14	0	0	0	0	524	530	1021	0	0	0	
15	0	0	0	0	525	531	1021	0	0	0	
0	0	0	0	0	527	535	1021	0	0	0	
1	0	0	0	0	531	539	1021	0	0	0	
2	0	0	0	0	536	543	1021	0	0	0	
3	0	0	0	0	541	547	1021	0	0	0	
4	0	0	0	0	546	551	1021	0	0	0	
5	0	0	0	0	551	555	1021	0	0	0	
6	0	0	0	0	555	559	1021	0	0	0	
7	0	0	0	0	559	561	1021	0	0	0	
8	0	0	0	0	563	564	1021	0	0	0	
9	0	0	0	0	566	566	1021	0	0	0	
10	0	0	0	0	569	568	1021	0	0	0	
11	0	0	0	0	573	571	1021	0	0	0	
12	0	0	0	0	576	574	1021	0	0	0	
13	0	0	0	0	579	577	1021	0	0	0	
14	0	0	0	0	580	580	1020	0	0	0	
15	0	0	0	0	583	583	1021	0	0	0	
0	0	0	0	0	584	587	1021	0	0	0	
1	0	0	0	0	584	589	1021	0	0	0	
2	0	0	0	0	584	591	1021	0	0	0	
3	0	0	0	0	584	592	1021	0	0	0	
4	0	0	0	0	583	592	1021	0	0	0	
5	0	0	0	0	582	593	1021	0	0	0	
6	0	0	0	0	580	594	1021	0	0	0	
7	0	0	0	0	579	594	1021	0	0	0	
8	0	0	0	0	578	593	1021	0	0	0	
9	0	0	0	0	577	591	1021	0	0	0	
10	0	0	0	0	575	589	1021	0	0	0	
11	0	0	0	0	573	585	1021	0	0	0	
12	0	0	0	0	569	579	1021	0	0	0	
13	0	0	0	0	564	573	1021	0	0	0	
14	0	0	0	0	559	565	1021	0	0	0	
15	0	0	0	0	552	557	1021	0	0	0	
0	0	0	0	0	545	549	1021	0	0	0	
1	0	0	0	0	539	541	1021	0	0	0	
2	0	0	0	0	533	535	1021	0	0	0	
3	0	0	0	0	528	529	1021	0	0	0	
4	0	0	0	0	525	527	1021	0	0	0	
5	0	0	0	0	523	525	1021	0	0	0	
6	0	0	0	0	522	526	1021	0	0	0	
7	0	0	0	0	523	528	1021	0	0	0	
8	0	0	0	0	525	531	1021	0	0	0	
9	0	0	0	0	528	535	1021	0	0	0	
10	0	0	0	0	533	540	1021	0	0	0	
11	0	0	0	0	537	545	1021	0	0	0	
12	0	0	0	0	542	549	1021	0	0	0	
13	0	0	0	0	547	554	1021	0	0	0	
14	0	0	0	0	553	558	1021	0	0	0	
15	0	0	0	0	557	561	1021	0	0	0	
0	0	0	0	0	562	565	1021	0	0	0	
1	0	0	0	0	566	568	1021	0	0	0	
2	0	0	0	0	570	569	1021	0	0	0	
3	0	0	0	0	573	572	1021	0	0	0	
4	0	0	0	0	576	573	1021	0	0	0	
5	0	0	0	0	579	575	1021	0	0	0	
6	0	0	0	0	582	577	1021	0	0	0	
7	0	0	0	0	584	579	1021	0	0	0	
8	0	0	0	0	586	580	1021	0	0	0	
9	0	0	0	0	587	582	1021	0	0	0	
10	0	0	0	0	586	583	1021	0	0	0	
11	0	0	0	0	585	582	1021	0	0	0	
12	0	0	0	0	582	582	1021	0	0	0	
13	0	0	0	0	578	580	1021	0	0	0	
14	0	0	0	0	573	578	1021	0	0	0	
15	0	0	0	0	568	576	1021	0	0	0	
0	0	0	0	0	563	573	1021	0	0	0	
1	0	0	0	0	559	571	1021	0	0	0	
2	0	0	0	0	556	570	1021	0	0	0	
3	0	0	0	0	554	568	1021	0	0	0	
4	0	0	0	0	553	567	1021	0	0	0	
5	0	0	0	0	553	566	1021	0	0	0	
6	0	0	0	0	552	563	1021	0	0	0	
7	0	0	0	0	552	561	1021	0	0	0	
8	0	0	0	0	551	558	1021	0	0	0	
9	0	0	0	0	551	556	1021	0	0	0	
10	0	0	0	0	551	553	1021	0	0	0	
11	0	0	0	0	551	551	1021	0	0	0	
12	0	0	0	0	551	551	1021	0	0	0	
13	0	0	0	0	552	551	1021	0	0	0	
14	0	0	0	0	552	551	1021	0	0	0	
15	0	0	0	0	554	553	1021	0	0	0	
0	0	0	0	0	555	555	1021	0	0	0	
1	0	0	0	0	557	557	1021	0	0	0	
2	0	0	0	0	558	559	1021	0	0	0	
3	0	0	0	0	560	560	1021	0	0	0	
4	0	0	0	0	560	562	1021	0	0	0	
5	0	0	0	0	561	562	1021	0	0	0	
6	0	0	0	0	561	563	1021	0	0	0	
7	0	0	0	0	561	562	1021	0	0	0	
8	0	0	0	0	560	561	1021	0	0	0	
9	0	0	0	0	559	560	1021	0	0	0	
10	0	0	0	0	558	559	1021	0	0	0	
11	0	0	0	0	556	558	1021	0	0	0	
12	0	0	0	0	554	556	1021	0	0	0	
13	0	0	0	0	553	554	1021	0	0	0	
14	0	0	0	0	551	553	1021	0	0	0	
15	0	0	0	0	550	553	1021	0	0	0	
0	0	0	0	0	551	553	1021	0	0	0	
1	0	0	0	0	551	554	1021	0	0	0	
2	0	0	0	0	552	555	1021	0	0	0	
3	0	0	0	0	555	558	1021	0	0	0	
4	0	0	0	0	557	559	1021	0	0	0	
5	0	0	0	0	560	562	1021	0	0	0	
6	0	0	0	0	562	563	1021	0	0	0	
7	0	0	0	0	563	564	1021	0	0	0	
8	0	0	0	0	564	564	1021	0	0	0	
9	0	0	0	0	563	563	1021	0	0	0	
10	0	0	0	0	562	561	1021	0	0	0	
11	0	0	0	0	559	557	1021	0	0	0	
12	0	0	0	0	555	553	1021	0	0	0	
13	0	0	0	0	551	549	1021	0	0	0	
14	0	0	0	0	546	543	1021	0	0	0	
15	0	0	0	0	542	540	1021	0	0	0	
0	0	0	0	0	539	537	1021	0	0	0	
1	0	0	0	0	536	535	1021	0	0	0	
2	0	0	0	0	537	536	1021	0	0	0	
3	0	0	0	0	539	538	1021	0	0	0	
4	0	0	0	0	543	542	1021	0	0	0	
5	0	0	0	0	549	548	1021	0	0	0	
6	0	0	0	0	556	555	1021	0	0	0	
7	0	0	0	0	565	563	1021	0	0	0	
8	0	0	0	0	574	570	1021	0	0	0	
9	0	0	0	0	581	577	1021	0	0	0	
10	0	0	0	0	587	583	1021	0	0	0	
11	0	0	0	0	590	585	1021	0	0	0	
12	0	0	0	0	591	587	1021	0	0	0	
13	0	0	0	0	590	586	1021	0	0	0	
14	0	0	0	0	588	584	1021	0	0	0	
15	0	0	0	0	584	581	1021	0	0	0	
0	0	0	0	0	581	578	1021	0	0	0	
1	0	0	0	0	578	575	1021	0	0	0	
2	0	0	0	0	575	571	1021	0	0	0	
3	0	0	0	0	572	568	1021	0	0	0	
4	0	0	0	0	569	564	1021	0	0	0	
5	0	0	0	0	565	561	1021	0	0	0	
6	0	0	0	0	561	557	1021	0	0	0	
7	0	0	0	0	558	554	1021	0	0	0	
8	0	0	0	0	553	551	1021	0	0	0	
9	0	0	0	0	549	549	1021	0	0	0	
10	0	0	0	0	545	547	1021	0	0	0	
11	0	0	0	0	542	545	1021	0	0	0	
12	0	0	0	0	539	543	1021	0	0	0	
13	0	0	0	0	537	543	1021	0	0	0	
14	0	0	0	0	536	543	1021	0	0	0	
15	0	0	0	0	536	544	1021	0	0	0	
0	0	0	0	0	537	544	1021	0	0	0	
1	0	0	0	0	539	546	1021	0	0	0	
2	0	0	0	0	542	547	1021	0	0	0	
3	0	0	0	0	545	549	1021	0	0	0	
4	0	0	0	0	550	551	1021	0	0	0	
5	0	0	0	0	555	555	1021	0	0	0	
6	0	0	0	0	561	559	1021	0	0	0	
7	0	0	0	0	568	563	1021	0	0	0	
8	0	0	0	0	575	568	1021	0	0	0	
9	0	0	0	0	580	572	1021	0	0	0	
10	0	0	0	0	585	576	1021	0	0	0	
11	0	0	0	0	589	579	1021	0	0	0	
12	0	0	0	0	591	582	1021	0	0	0	
13	0	0	0	0	592	583	1021	0	0	0	
14	0	0	0	0	591	584	1021	0	0	0	
15	0	0	0	0	588	584	1021	0	0	0	
0	0	0	0	0	584	583	1021	0	0	0	
1	0	0	0	0	580	581	1021	0	0	0	
2	0	0	0	0	574	578	1021	0	0	0	
3	0	0	0	0	568	575	1021	0	0	0	
4	0	0	0	0	563	570	1021	0	0	0	
5	0	0	0	0	558	565	1021	0	0	0	
6	0	0	0	0	553	560	1021	0	0	0	
7	0	0	0	0	551	557	1021	0	0	0	
8	0	0	0	0	549	553	1021	0	0	0	
9	0	0	0	0	549	551	1021	0	0	0	
10	0	0	0	0	550	550	1021	0	0	0	
11	0	0	0	0	551	550	1021	0	0	0	
12	0	0	0	0	555	551	1021	0	0	0	
13	0	0	0	0	558	552	1021	0	0	0	
14	0	0	0	0	562	554	1021	0	0	0	
15	0	0	0	0	566	557	1021	0	0	0	
0	0	0	0	0	569	560	1021	0	0	0	
1	0	0	0	0	572	563	1021	0	0	0	
2	0	0	0	0	574	566	1021	0	0	0	
3	0	0	0	0	575	568	1021	0	0	0	
4	0	0	0	0	575	569	1021	0	0	0	
5	0	0	0	0	575	571	1021	0	0	0	
6	0	0	0	0	573	571	1021	0	0	0	
7	0	0	0	0	571	571	1021	0	0	0	
8	0	0	0	0	568	569	1021	0	0	0	
9	0	0	0	0	565	567	1021	0	0	0	
10	0	0	0	0	563	566	1021	0	0	0	
11	0	0	0	0	561	564	1021	0	0	0	
12	0	0	0	0	560	562	1021	0	0	0	
13	0	0	0	0	559	561	1021	0	0	0	
14	0	0	0	0	559	559	1021	0	0	0	
15	0	0	0	0	560	557	1021	0	0	0	
0	0	0	0	0	560	556	1021	0	0	0	
1	0	0	0	0	561	555	1021	0	0	0	
2	0	0	0	0	563	554	1021	0	0	0	
3	0	0	0	0	565	555	1021	0	0	0	
4	0	0	0	0	568	557	1021	0	0	0	
5	0	0	0	0	571	560	1021	0	0	0	
6	0	0	0	0	574	563	1021	0	0	0	
7	0	0	0	0	577	566	1021	0	0	0	
8	0	0	0	0	579	569	1021	0	0	0	
9	0	0	0	0	581	572	1021	0	0	0	
10	0	0	0	0	582	574	1021	0	0	0	
11	0	0	0	0	582	575	1021	0	0	0	
12	0	0	0	0	582	575	1021	0	0	0	
13	0	0	0	0	579	575	1021	0	0	0	
14	0	0	0	0	578	573	1021	0	0	0	
15	0	0	0	0	575	571	1021	0	0	0	
0	0	0	0	0	571	567	1021	0	0	0	
1	0	0	0	0	566	562	1021	0	0	0	
2	0	0	0	0	560	558	1021	0	0	0	
3	0	0	0	0	556	552	1021	0	0	0	
4	0	0	0	0	552	548	1021	0	0	0	
5	0	0	0	0	550	545	1021	0	0	0	
6	0	0	0	0	548	542	1021	0	0	0	
7	0	0	0	0	547	542	1021	0	0	0	
8	0	0	0	0	548	542	1021	0	0	0	
9	0	0	0	0	550	543	1021	0	0	0	
10	0	0	0	0	551	544	1021	0	0	0	
11	0	0	0	0	552	545	1021	0	0	0	
12	0	0	0	0	551	545	1021	0	0	0	
13	0	0	0	0	550	544	1021	0	0	0	
14	0	0	0	0	548	542	1021	0	0	0	
15	0	0	0	0	544	539	1021	0	0	0	
0	0	0	0	0	540	535	1021	0	0	0	
1	0	0	0	0	536	531	1021	0	0	0	
2	0	0	0	0	531	527	1021	0	0	0	
3	0	0	0	0	528	524	1021	0	0	0	
4	0	0	0	0	525	521	1021	0	0	0	
5	0	0	0	0	523	518	1021	0	0	0	
6	0	0	0	0	522	518	1021	0	0	0	
7	0	0	0	0	523	518	1021	0	0	0	
8	0	0	0	0	525	520	1021	0	0	0	
9	0	0	0	0	528	523	1021	0	0	0	
10	0	0	0	0	532	527	1021	0	0	0	
11	0	0	0	0	538	533	1021	0	0	0	
12	0	0	0	0	545	540	1021	0	0	0	
13	0	0	0	0	553	548	1021	0	0	0	
14	0	0	0	0	563	558	1021	0	0	0	
15	0	0	0	0	572	568	1021	0	0	0	
0	0	0	0	0	582	578	1021	0	0	0	
1	0	0	0	0	592	588	1021	0	0	0	
2	0	0	0	0	600	597	1021	0	0	0	
3	0	0	0	0	607	603	1021	0	0	0	
4	0	0	0	0	610	607	1021	0	0	0	
5	0	0	0	0	611	607	1021	0	0	0	
6	0	0	0	0	608	604	1021	0	0	0	
7	0	0	0	0	602	597	1021	0	0	0	
8	0	0	0	0	594	589	1021	0	0	0	
9	0	0	0	0	584	578	1021	0	0	0	
10	0	0	0	0	573	567	1021	0	0	0	
11	0	0	0	0	563	556	1021	0	0	0	
12	0	0	0	0	553	546	1021	0	0	0	
13	0	0	0	0	545	539	1021	0	0	0	
14	0	0	0	0	540	533	1021	0	0	0	
15	0	0	0	0	536	530	1021	0	0	0	
0	0	0	0	0	536	530	1021	0	0	0	
1	0	0	0	0	538	532	1021	0	0	0	
2	0	0	0	0	542	535	1021	0	0	0	
3	0	0	0	0	546	540	1021	0	0	0	
4	0	0	0	0	551	545	1021	0	0	0	
5	0	0	0	0	557	551	1021	0	0	0	
6	0	0	0	0	561	555	1021	0	0	0	
7	0	0	0	0	565	559	1021	0	0	0	
8	0	0	0	0	568	560	1021	0	0	0	
9	0	0	0	0	568	561	1021	0	0	0	
10	0	0	0	0	568	561	1021	0	0	0	
11	0	0	0	0	566	559	1021	0	0	0	
12	0	0	0	0	563	556	1021	0	0	0	
13	0	0	0	0	560	553	1021	0	0	0	
14	0	0	0	0	556	549	1021	0	0	0	
15	0	0	0	0	553	545	1021	0	0	0	
0	0	0	0	0	549	541	1021	0	0	0	
1	0	0	0	0	546	538	1021	0	0	0	
2	0	0	0	0	543	535	1021	0	0	0	
3	0	0	0	0	541	532	1021	0	0	0	
4	0	0	0	0	540	531	1021	0	0	0	
5	0	0	0	0	540	532	1021	0	0	0	
6	0	0	0	0	542	532	1021	0	0	0	
7	0	0	0	0	543	534	1020	0	0	0	
8	0	0	0	0	545	536	1021	0	0	0	
9	0	0	0	0	547	538	1021	0	0	0	
10	0	0	0	0	549	540	1021	0	0	0	
11	0	0	0	0	551	542	1021	0	0	0	
12	0	0	0	0	553	543	1021	0	0	0	
13	0	0	0	0	556	545	1021	0	0	0	
14	0	0	0	0	559	547	1021	0	0	0	
15	0	0	0	0	562	550	1021	0	0	0	
0	0	0	0	0	565	551	1021	0	0	0	
1	0	0	0	0	567	552	1021	0	0	0	
2	0	0	0	0	568	552	1021	0	0	0	
3	0	0	0	0	567	551	1021	0	0	0	
4	0	0	0	0	565	549	1021	0	0	0	
5	0	0	0	0	561	546	1021	0	0	0	
6	0	0	0	0	556	542	1021	0	0	0	
7	0	0	0	0	551	537	1021	0	0	0	
8	0	0	0	0	544	532	1021	0	0	0	
9	0	0	0	0	538	529	1021	0	0	0	
10	0	0	0	0	533	525	1021	0	0	0	
11	0	0	0	0	529	523	1021	0	0	0	
12	0	0	0	0	527	521	1021	0	0	0	
13	0	0	0	0	526	521	1021	0	0	0	
14	0	0	0	0	526	522	1021	0	0	0	
15	0	0	0	0	528	524	1021	0	0	0	
0	0	0	0	0	531	525	1021	0	0	0	
1	0	0	0	0	534	527	1021	0	0	0	
2	0	0	0	0	538	529	1021	0	0	0	
3	0	0	0	0	543	532	1021	0	0	0	
4	0	0	0	0	546	533	1021	0	0	0	
5	0	0	0	0	549	534	1021	0	0	0	
6	0	0	0	0	551	533	1021	0	0	0	
7	0	0	0	0	551	533	1021	0	0	0	
8	0	0	0	0	551	531	1021	0	0	0	
9	0	0	0	0	550	531	1021	0	0	0	
10	0	0	0	0	548	530	1021	0	0	0	
11	0	0	0	0	546	529	1021	0	0	0	
12	0	0	0	0	545	530	1021	0	0	0	
13	0	0	0	0	544	532	1021	0	0	0	
14	0	0	0	0	545	535	1021	0	0	0	
15	0	0	0	0	547	538	1021	0	0	0	
0	0	0	0	0	550	542	1021	0	0	0	
1	0	0	0	0	554	548	1021	0	0	0	
2	0	0	0	0	560	553	1021	0	0	0	
3	0	0	0	0	565	559	1021	0	0	0	
4	0	0	0	0	571	563	1021	0	0	0	
5	0	0	0	0	576	568	1021	0	0	0	
6	0	0	0	0	581	572	1021	0	0	0	
7	0	0	0	0	586	575	1021	0	0	0	
8	0	0	0	0	590	577	1021	0	0	0	
9	0	0	0	0	594	580	1021	0	0	0	
10	0	0	0	0	597	581	1021	0	0	0	
11	0	0	0	0	599	583	1021	0	0	0	
12	0	0	0	0	600	583	1021	0	0	0	
13	0	0	0	0	600	584	1021	0	0	0	
14	0	0	0	0	600	584	1021	0	0	0	
15	0	0	0	0	598	584	1021	0	0	0	
0	0	0	0	0	598	585	1021	0	0	0	
1	0	0	0	0	596	586	1021	0	0	0	
2	0	0	0	0	596	587	1021	0	0	0	
3	0	0	0	0	595	589	1021	0	0	0	
4	0	0	0	0	595	591	1021	0	0	0	
5	0	0	0	0	596	592	1021	0	0	0	
6	0	0	0	0	595	593	1021	0	0	0	
7	0	0	0	0	595	592	1021	0	0	0	
8	0	0	0	0	593	591	1021	0	0	0	
9	0	0	0	0	591	588	1021	0	0	0	
10	0	0	0	0	587	583	1021	0	0	0	
11	0	0	0	0	582	577	1021	0	0	0	
12	0	0	0	0	576	569	1021	0	0	0	
13	0	0	0	0	570	562	1021	0	0	0	
14	0	0	0	0	564	553	1021	0	0	0	
15	0	0	0	0	557	547	1021	0	0	0	
0	0	0	0	0	551	540	1021	0	0	0	
1	0	0	0	0	547	536	1021	0	0	0	
2	0	0	0	0	543	531	1021	0	0	0	
3	0	0	0	0	540	529	1021	0	0	0	
4	0	0	0	0	537	528	1021	0	0	0	
5	0	0	0	0	536	527	1021	0	0	0	
6	0	0	0	0	535	527	1021	0	0	0	
7	0	0	0	0	534	527	1021	0	0	0	
8	0	0	0	0	533	527	1021	0	0	0	
9	0	0	0	0	534	528	1021	0	0	0	
10	0	0	0	0	534	529	1021	0	0	0	
11	0	0	0	0	534	528	1021	0	0	0	
12	0	0	0	0	534	527	1021	0	0	0	
13	0	0	0	0	533	524	1021	0	0	0	
14	0	0	0	0	531	521	1021	0	0	0	
15	0	0	0	0	529	518	1021	0	0	0	
0	0	0	0	0	527	515	1021	0	0	0	
1	0	0	0	0	526	513	1021	0	0	0	
2	0	0	0	0	525	511	1021	0	0	0	
3	0	0	0	0	526	510	1021	0	0	0	
4	0	0	0	0	526	509	1021	0	0	0	
5	0	0	0	0	527	509	1021	0	0	0	
6	0	0	0	0	528	510	1021	0	0	0	
7	0	0	0	0	530	512	1021	0	0	0	
8	0	0	0	0	532	515	1021	0	0	0	
9	0	0	0	0	535	517	1021	0	0	0	
10	0	0	0	0	537	520	1021	0	0	0	
11	0	0	0	0	539	522	1021	0	0	0	
12	0	0	0	0	540	524	1021	0	0	0	
13	0	0	0	0	540	525	1021	0	0	0	
14	0	0	0	0	540	526	1021	0	0	0	
15	0	0	0	0	540	526	1021	0	0	0	
0	0	0	0	0	539	526	1021	0	0	0	
1	0	0	0	0	536	525	1021	0	0	0	
2	0	0	0	0	535	523	1021	0	0	0	
3	0	0	0	0	533	522	1021	0	0	0	
4	0	0	0	0	531	520	1021	0	0	0	
5	0	0	0	0	529	518	1021	0	0	0	
6	0	0	0	0	528	517	1021	0	0	0	
7	0	0	0	0	528	516	1021	0	0	0	
8	0	0	0	0	528	516	1021	0	0	0	
9	0	0	0	0	529	517	1021	0	0	0	
10	0	0	0	0	532	519	1021	0	0	0	
11	0	0	0	0	537	523	1021	0	0	0	
12	0	0	0	0	542	528	1021	0	0	0	
13	0	0	0	0	550	535	1021	0	0	0	
14	0	0	0	0	558	543	1021	0	0	0	
15	0	0	0	0	568	551	1021	0	0	0	
0	0	0	0	0	577	560	1021	0	0	0	
1	0	0	0	0	586	568	1021	0	0	0	
2	0	0	0	0	593	576	1021	0	0	0	
3	0	0	0	0	600	582	1021	0	0	0	
4	0	0	0	0	604	588	1021	0	0	0	
5	0	0	0	0	607	591	1021	0	0	0	
6	0	0	0	0	608	594	1021	0	0	0	
7	0	0	0	0	609	596	1021	0	0	0	
8	0	0	0	0	609	597	1021	0	0	0	
9	0	0	0	0	609	599	1021	0	0	0	
10	0	0	0	0	609	600	1021	0	0	0	
11	0	0	0	0	610	602	1021	0	0	0	
12	0	0	0	0	610	603	1021	0	0	0	
13	0	0	0	0	610	602	1021	0	0	0	
14	0	0	0	0	608	600	1021	0	0	0	
15	0	0	0	0	605	596	1021	0	0	0	
0	0	0	0	0	599	591	1021	0	0	0	
1	0	0	0	0	591	583	1021	0	0	0	
2	0	0	0	0	581	574	1021	0	0	0	
3	0	0	0	0	570	563	1021	0	0	0	
4	0	0	0	0	558	551	1021	0	0	0	
5	0	0	0	0	545	540	1021	0	0	0	
6	0	0	0	0	533	530	1021	0	0	0	
7	0	0	0	0	522	520	1021	0	0	0	
8	0	0	0	0	513	511	1021	0	0	0	
9	0	0	0	0	505	504	1021	0	0	0	
10	0	0	0	0	500	499	1021	0	0	0	
11	0	0	0	0	497	495	1021	0	0	0	
12	0	0	0	0	496	493	1021	0	0	0	
13	0	0	0	0	497	492	1021	0	0	0	
14	0	0	0	0	501	492	1021	0	0	0	
15	0	0	0	0	505	494	1021	0	0	0	
0	0	0	0	0	512	497	1021	0	0	0	
1	0	0	0	0	519	502	1021	0	0	0	
2	0	0	0	0	527	507	1021	0	0	0	
3	0	0	0	0	535	513	1021	0	0	0	
4	0	0	0	0	543	521	1021	0	0	0	
5	0	0	0	0	551	528	1021	0	0	0	
6	0	0	0	0	558	536	1021	0	0	0	
7	0	0	0	0	564	543	1021	0	0	0	
8	0	0	0	0	568	549	1021	0	0	0	
9	0	0	0	0	571	554	1021	0	0	0	
10	0	0	0	0	572	558	1021	0	0	0	
11	0	0	0	0	572	559	1021	0	0	0	
12	0	0	0	0	569	559	1021	0	0	0	
13	0	0	0	0	566	556	1021	0	0	0	
14	0	0	0	0	561	553	1021	0	0	0	
15	0	0	0	0	555	547	1021	0	0	0	
0	0	0	0	0	549	542	1021	0	0	0	
1	0	0	0	0	543	536	1021	0	0	0	
2	0	0	0	0	538	530	1021	0	0	0	
3	0	0	0	0	535	526	1021	0	0	0	
4	0	0	0	0	533	523	1021	0	0	0	
5	0	0	0	0	532	522	1021	0	0	0	
6	0	0	0	0	535	524	1021	0	0	0	
7	0	0	0	0	539	527	1021	0	0	0	
8	0	0	0	0	545	532	1021	0	0	0	
9	0	0	0	0	552	539	1021	0	0	0	
10	0	0	0	0	561	547	1021	0	0	0	
11	0	0	0	0	570	556	1021	0	0	0	
12	0	0	0	0	578	563	1021	0	0	0	
13	0	0	0	0	585	571	1021	0	0	0	
14	0	0	0	0	589	575	1021	0	0	0	
15	0	0	0	0	590	576	1021	0	0	0	
0	0	0	0	0	588	575	1021	0	0	0	
1	0	0	0	0	583	572	1021	0	0	0	
2	0	0	0	0	577	566	1021	0	0	0	
3	0	0	0	0	568	558	1021	0	0	0	
4	0	0	0	0	558	548	1021	0	0	0	
5	0	0	0	0	547	539	1021	0	0	0	
6	0	0	0	0	536	528	1021	0	0	0	
7	0	0	0	0	526	518	1021	0	0	0	
8	0	0	0	0	516	508	1021	0	0	0	
9	0	0	0	0	508	501	1021	0	0	0	
10	0	0	0	0	502	494	1021	0	0	0	
11	0	0	0	0	495	487	1020	0	0	0	
12	0	0	0	0	488	481	1021	0	0	0	
13	0	0	0	0	481	474	1021	0	0	0	
14	0	0	0	0	473	465	1021	0	0	0	
15	0	0	0	0	463	455	1021	0	0	0	
0	0	0	0	0	450	443	1021	0	0	0	
1	0	0	0	0	436	429	1021	0	0	0	
2	0	0	0	0	419	413	1021	0	0	0	
3	0	0	0	0	400	395	1021	0	0	0	
4	0	0	0	0	379	375	1021	0	0	0	
5	0	0	0	0	357	352	1021	0	0	0	
6	0	0	0	0	333	330	1021	0	0	0	
7	0	0	0	0	310	307	1021	0	0	0	
8	0	0	0	0	287	285	1021	0	0	0	
9	0	0	0	0	267	264	1020	0	0	0	
10	0	0	0	0	252	247	1021	0	0	0	
11	0	0	0	0	239	234	1021	0	0	0	
12	0	0	0	0	234	227	1021	0	0	0	
13	0	0	0	0	235	225	1021	0	0	0	
14	0	0	0	0	243	230	1021	0	0	0	
15	0	0	0	0	258	242	1021	0	0	0	
0	0	0	0	0	280	260	1021	0	0	0	
1	0	0	0	0	308	284	1021	0	0	0	
2	0	0	0	0	342	313	1021	0	0	0	
3	0	0	0	0	380	347	1021	0	0	0	
4	0	0	0	0	419	383	1021	0	0	0	
5	0	0	0	0	460	420	1021	0	0	0	
6	0	0	0	0	499	456	1021	0	0	0	
7	0	0	0	0	534	489	1021	0	0	0	
8	0	0	0	0	565	519	1021	0	0	0	
9	0	0	0	0	590	543	1021	0	0	0	
10	0	0	0	0	609	563	1021	0	0	0	
11	0	0	0	0	621	576	1021	0	0	0	
12	0	0	0	0	625	583	1021	0	0	0	
13	0	0	0	0	625	585	1021	0	0	0	
14	0	0	0	0	618	583	1021	0	0	0	
15	0	0	0	0	608	576	1021	0	0	0	
0	0	0	0	0	595	568	1021	0	0	0	
1	0	0	0	0	580	558	1021	0	0	0	
2	0	0	0	0	566	549	1021	0	0	0	
3	0	0	0	0	553	541	1021	0	0	0	
4	0	0	0	0	543	535	1021	0	0	0	
5	0	0	0	0	536	531	1021	0	0	0	
6	0	0	0	0	532	529	1021	0	0	0	
7	0	0	0	0	531	529	1021	0	0	0	
8	0	0	0	0	531	530	1021	0	0	0	
9	0	0	0	0	535	533	1021	0	0	0	
10	0	0	0	0	540	536	1021	0	0	0	
11	0	0	0	0	545	540	1021	0	0	0	
12	0	0	0	0	552	543	1021	0	0	0	
13	0	0	0	0	558	546	1021	0	0	0	
14	0	0	0	0	564	550	1021	0	0	0	
15	0	0	0	0	571	554	1021	0	0	0	
0	0	0	0	0	577	557	1021	0	0	0	
1	0	0	0	0	581	559	1021	0	0	0	
2	0	0	0	0	585	561	1021	0	0	0	
3	0	0	0	0	587	562	1021	0	0	0	
4	0	0	0	0	588	561	1021	0	0	0	
5	0	0	0	0	587	561	1021	0	0	0	
6	0	0	0	0	584	559	1021	0	0	0	
7	0	0	0	0	581	557	1021	0	0	0	
8	0	0	0	0	577	555	1021	0	0	0	
9	0	0	0	0	574	553	1021	0	0	0	
10	0	0	0	0	571	552	1021	0	0	0	
11	0	0	0	0	568	552	1021	0	0	0	
12	0	0	0	0	567	552	1020	0	0	0	
13	0	0	0	0	566	553	1021	0	0	0	
14	0	0	0	0	566	555	1021	0	0	0	
15	0	0	0	0	567	557	1021	0	0	0	
0	0	0	0	0	569	559	1021	0	0	0	
1	0	0	0	0	572	561	1021	0	0	0	
2	0	0	0	0	575	563	1021	0	0	0	
3	0	0	0	0	578	564	1021	0	0	0	
4	0	0	0	0	580	565	1021	0	0	0	
5	0	0	0	0	583	566	1021	0	0	0	
6	0	0	0	0	584	566	1021	0	0	0	
7	0	0	0	0	585	565	1021	0	0	0	
8	0	0	0	0	585	565	1021	0	0	0	
9	0	0	0	0	585	564	1021	0	0	0	
10	0	0	0	0	584	563	1021	0	0	0	
11	0	0	0	0	583	563	1021	0	0	0	
12	0	0	0	0	582	563	1021	0	0	0	
13	0	0	0	0	580	562	1021	0	0	0	
14	0	0	0	0	578	561	1021	0	0	0	
15	0	0	0	0	576	560	1021	0	0	0	
0	0	0	0	0	574	560	1021	0	0	0	
1	0	0	0	0	572	559	1021	0	0	0	
2	0	0	0	0	570	559	1021	0	0	0	
3	0	0	0	0	568	557	1021	0	0	0	
4	0	0	0	0	567	556	1021	0	0	0	
5	0	0	0	0	565	555	1021	0	0	0	
6	0	0	0	0	565	554	1021	0	0	0	
7	0	0	0	0	564	553	1021	0	0	0	
8	0	0	0	0	565	553	1021	0	0	0	
9	0	0	0	0	566	552	1021	0	0	0	
10	0	0	0	0	567	553	1021	0	0	0	
11	0	0	0	0	569	553	1021	0	0	0	
12	0	0	0	0	571	553	1021	0	0	0	
13	0	0	0	0	572	554	1021	0	0	0	
14	0	0	0	0	573	553	1021	0	0	0	
15	0	0	0	0	574	554	1021	0	0	0	
0	0	0	0	0	574	553	1021	0	0	0	
1	0	0	0	0	574	552	1021	0	0	0	
2	0	0	0	0	573	551	1021	0	0	0	
3	0	0	0	0	572	550	1021	0	0	0	
4	0	0	0	0	570	549	1021	0	0	0	
5	0	0	0	0	569	547	1021	0	0	0	
6	0	0	0	0	566	544	1021	0	0	0	
7	0	0	0	0	563	541	1021	0	0	0	
8	0	0	0	0	559	538	1021	0	0	0	
9	0	0	0	0	555	534	1021	0	0	0	
10	0	0	0	0	551	529	1021	0	0	0	
11	0	0	0	0	545	524	1021	0	0	0	
12	0	0	0	0	540	518	1021	0	0	0	
13	0	0	0	0	534	512	1021	0	0	0	
14	0	0	0	0	528	506	1021	0	0	0	
15	0	0	0	0	524	502	1021	0	0	0	
0	0	0	0	0	520	499	1021	0	0	0	
1	0	0	0	0	519	497	1021	0	0	0	
2	0	0	0	0	519	497	1021	0	0	0	
3	0	0	0	0	521	500	1021	0	0	0	
4	0	0	0	0	527	505	1021	0	0	0	
5	0	0	0	0	534	512	1021	0	0	0	
6	0	0	0	0	543	522	1021	0	0	0	
7	0	0	0	0	554	532	1021	0	0	0	
8	0	0	0	0	565	543	1021	0	0	0	
9	0	0	0	0	577	555	1021	0	0	0	
10	0	0	0	0	589	565	1021	0	0	0	
11	0	0	0	0	599	574	1021	0	0	0	
12	0	0	0	0	606	581	1021	0	0	0	
13	0	0	0	0	611	586	1021	0	0	0	
14	0	0	0	0	615	588	1021	0	0	0	
15	0	0	0	0	615	588	1021	0	0	0	
0	0	0	0	0	614	587	1021	0	0	0	
1	0	0	0	0	611	583	1021	0	0	0	
2	0	0	0	0	606	579	1021	0	0	0	
3	0	0	0	0	601	575	1021	0	0	0	
4	0	0	0	0	594	570	1021	0	0	0	
5	0	0	0	0	588	564	1021	0	0	0	
6	0	0	0	0	580	558	1020	0	0	0	
7	0	0	0	0	573	553	1021	0	0	0	
8	0	0	0	0	567	548	1021	0	0	0	
9	0	0	0	0	561	543	1021	0	0	0	
10	0	0	0	0	555	540	1021	0	0	0	
11	0	0	0	0	550	536	1021	0	0	0	
12	0	0	0	0	545	532	1021	0	0	0	
13	0	0	0	0	542	528	1021	0	0	0	
14	0	0	0	0	538	524	1021	0	0	0	
15	0	0	0	0	535	521	1021	0	0	0	
0	0	0	0	0	532	517	1021	0	0	0	
1	0	0	0	0	529	513	1021	0	0	0	
2	0	0	0	0	527	510	1021	0	0	0	
3	0	0	0	0	527	507	1021	0	0	0	
4	0	0	0	0	526	505	1021	0	0	0	
5	0	0	0	0	527	504	1021	0	0	0	
6	0	0	0	0	529	504	1021	0	0	0	
7	0	0	0	0	532	506	1021	0	0	0	
8	0	0	0	0	536	509	1021	0	0	0	
9	0	0	0	0	541	513	1021	0	0	0	
10	0	0	0	0	547	518	1021	0	0	0	
11	0	0	0	0	552	524	1021	0	0	0	
12	0	0	0	0	559	531	1021	0	0	0	
13	0	0	0	0	563	538	1021	0	0	0	
14	0	0	0	0	568	544	1021	0	0	0	
15	0	0	0	0	570	548	1021	0	0	0	
0	0	0	0	0	571	552	1021	0	0	0	
1	0	0	0	0	571	554	1021	0	0	0	
2	0	0	0	0	571	555	1021	0	0	0	
3	0	0	0	0	569	556	1021	0	0	0	
4	0	0	0	0	568	554	1021	0	0	0	
5	0	0	0	0	566	553	1021	0	0	0	
6	0	0	0	0	565	551	1021	0	0	0	
7	0	0	0	0	564	549	1021	0	0	0	
8	0	0	0	0	563	547	1021	0	0	0	
9	0	0	0	0	563	545	1021	0	0	0	
10	0	0	0	0	563	543	1021	0	0	0	
11	0	0	0	0	563	542	1021	0	0	0	
12	0	0	0	0	564	542	1021	0	0	0	
13	0	0	0	0	564	541	1021	0	0	0	
14	0	0	0	0	565	540	1021	0	0	0	
15	0	0	0	0	564	540	1021	0	0	0	
0	0	0	0	0	564	540	1021	0	0	0	
1	0	0	0	0	562	539	1021	0	0	0	
2	0	0	0	0	560	537	1021	0	0	0	
3	0	0	0	0	556	535	1021	0	0	0	
4	0	0	0	0	552	532	1021	0	0	0	
5	0	0	0	0	548	530	1021	0	0	0	
6	0	0	0	0	543	527	1021	0	0	0	
7	0	0	0	0	539	523	1021	0	0	0	
8	0	0	0	0	536	519	1021	0	0	0	
9	0	0	0	0	532	517	1021	0	0	0	
10	0	0	0	0	530	515	1021	0	0	0	
11	0	0	0	0	530	514	1021	0	0	0	
12	0	0	0	0	531	514	1021	0	0	0	
13	0	0	0	0	533	515	1021	0	0	0	
14	0	0	0	0	536	517	1021	0	0	0	
15	0	0	0	0	540	519	1021	0	0	0	
0	0	0	0	0	545	523	1021	0	0	0	
1	0	0	0	0	550	526	1021	0	0	0	
2	0	0	0	0	555	529	1021	0	0	0	
3	0	0	0	0	559	532	1021	0	0	0	
4	0	0	0	0	563	536	1021	0	0	0	
5	0	0	0	0	566	538	1021	0	0	0	
6	0	0	0	0	569	540	1021	0	0	0	
7	0	0	0	0	571	542	1021	0	0	0	
8	0	0	0	0	571	542	1021	0	0	0	
9	0	0	0	0	571	543	1021	0	0	0	
10	0	0	0	0	570	542	1021	0	0	0	
11	0	0	0	0	568	542	1021	0	0	0	
12	0	0	0	0	566	541	1021	0	0	0	
13	0	0	0	0	564	540	1021	0	0	0	
14	0	0	0	0	561	539	1021	0	0	0	
15	0	0	0	0	559	537	1021	0	0	0	
0	0	0	0	0	557	536	1021	0	0	0	
1	0	0	0	0	556	535	1021	0	0	0	
2	0	0	0	0	555	534	1021	0	0	0	
3	0	0	0	0	556	535	1021	0	0	0	
4	0	0	0	0	557	536	1021	0	0	0	
5	0	0	0	0	560	538	1021	0	0	0	
6	0	0	0	0	564	540	1021	0	0	0	
7	0	0	0	0	568	543	1021	0	0	0	
8	0	0	0	0	573	547	1021	0	0	0	
9	0	0	0	0	578	551	1021	0	0	0	
10	0	0	0	0	583	556	1021	0	0	0	
11	0	0	0	0	586	559	1021	0	0	0	
12	0	0	0	0	590	563	1021	0	0	0	
13	0	0	0	0	591	565	1021	0	0	0	
14	0	0	0	0	591	566	1021	0	0	0	
15	0	0	0	0	591	566	1021	0	0	0	
0	0	0	0	0	588	563	1021	0	0	0	
1	0	0	0	0	585	560	1021	0	0	0	
2	0	0	0	0	581	556	1021	0	0	0	
3	0	0	0	0	577	552	1021	0	0	0	
4	0	0	0	0	572	547	1021	0	0	0	
5	0	0	0	0	568	543	1021	0	0	0	
6	0	0	0	0	564	537	1021	0	0	0	
7	0	0	0	0	561	534	1021	0	0	0	
8	0	0	0	0	558	530	1021	0	0	0	
9	0	0	0	0	556	527	1021	0	0	0	
10	0	0	0	0	554	526	1021	0	0	0	
11	0	0	0	0	554	526	1021	0	0	0	
12	0	0	0	0	554	527	1021	0	0	0	
13	0	0	0	0	555	528	1021	0	0	0	
14	0	0	0	0	556	530	1021	0	0	0	
15	0	0	0	0	558	533	1021	0	0	0	
0	0	0	0	0	559	535	1021	0	0	0	
1	0	0	0	0	561	537	1021	0	0	0	
2	0	0	0	0	562	539	1021	0	0	0	
3	0	0	0	0	562	539	1021	0	0	0	
4	0	0	0	0	562	539	1021	0	0	0	
5	0	0	0	0	561	537	1021	0	0	0	
6	0	0	0	0	559	535	1021	0	0	0	
7	0	0	0	0	556	532	1021	0	0	0	
8	0	0	0	0	553	528	1021	0	0	0	
9	0	0	0	0	549	524	1021	0	0	0	
10	0	0	0	0	544	519	1021	0	0	0	
11	0	0	0	0	539	514	1021	0	0	0	
12	0	0	0	0	534	509	1021	0	0	0	
13	0	0	0	0	530	505	1021	0	0	0	
14	0	0	0	0	527	503	1021	0	0	0	
15	0	0	0	0	526	502	1021	0	0	0	
0	0	0	0	0	526	504	1021	0	0	0	
1	0	0	0	0	529	507	1021	0	0	0	
2	0	0	0	0	533	511	1021	0	0	0	
3	0	0	0	0	539	516	1021	0	0	0	
4	0	0	0	0	544	520	1021	0	0	0	
5	0	0	0	0	551	526	1021	0	0	0	
6	0	0	0	0	556	531	1021	0	0	0	
7	0	0	0	0	560	534	1021	0	0	0	
8	0	0	0	0	565	537	1021	0	0	0	
9	0	0	0	0	568	539	1021	0	0	0	
10	0	0	0	0	569	541	1021	0	0	0	
11	0	0	0	0	571	543	1021	0	0	0	
12	0	0	0	0	572	543	1021	0	0	0	
13	0	0	0	0	572	543	1021	0	0	0	
14	0	0	0	0	572	543	1021	0	0	0	
15	0	0	0	0	572	543	1021	0	0	0	
0	0	0	0	0	572	543	1021	0	0	0	
1	0	0	0	0	572	543	1021	0	0	0	
2	0	0	0	0	572	542	1021	0	0	0	
3	0	0	0	0	571	541	1021	0	0	0	
4	0	0	0	0	570	541	1021	0	0	0	
5	0	0	0	0	568	540	1021	0	0	0	
6	0	0	0	0	565	537	1021	0	0	0	
7	0	0	0	0	561	534	1021	0	0	0	
8	0	0	0	0	556	530	1021	0	0	0	
9	0	0	0	0	552	526	1021	0	0	0	
10	0	0	0	0	547	522	1021	0	0	0	
11	0	0	0	0	542	518	1021	0	0	0	
12	0	0	0	0	538	515	1021	0	0	0	
13	0	0	0	0	535	512	1021	0	0	0	
14	0	0	0	0	534	510	1021	0	0	0	
15	0	0	0	0	534	509	1021	0	0	0	
0	0	0	0	0	535	509	1021	0	0	0	
1	0	0	0	0	536	509	1020	0	0	0	
2	0	0	0	0	539	510	1021	0	0	0	
3	0	0	0	0	543	512	1021	0	0	0	
4	0	0	0	0	546	514	1021	0	0	0	
5	0	0	0	0	550	517	1021	0	0	0	
6	0	0	0	0	554	520	1021	0	0	0	
7	0	0	0	0	559	525	1021	0	0	0	
8	0	0	0	0	563	530	1021	0	0	0	
9	0	0	0	0	569	536	1021	0	0	0	
10	0	0	0	0	574	542	1021	0	0	0	
11	0	0	0	0	578	548	1021	0	0	0	
12	0	0	0	0	583	553	1021	0	0	0	
13	0	0	0	0	586	558	1021	0	0	0	
14	0	0	0	0	588	560	1021	0	0	0	
15	0	0	0	0	588	560	1021	0	0	0	
0	0	0	0	0	586	558	1021	0	0	0	
1	0	0	0	0	582	553	1021	0	0	0	
2	0	0	0	0	575	546	1021	0	0	0	
3	0	0	0	0	568	538	1021	0	0	0	
4	0	0	0	0	559	529	1021	0	0	0	
5	0	0	0	0	549	519	1021	0	0	0	
6	0	0	0	0	540	510	1021	0	0	0	
7	0	0	0	0	533	503	1021	0	0	0	
8	0	0	0	0	527	496	1021	0	0	0	
9	0	0	0	0	522	492	1021	0	0	0	
10	0	0	0	0	520	490	1021	0	0	0	
11	0	0	0	0	519	489	1021	0	0	0	
12	0	0	0	0	519	490	1021	0	0	0	
13	0	0	0	0	519	491	1021	0	0	0	
14	0	0	0	0	521	494	1021	0	0	0	
15	0	0	0	0	524	496	1021	0	0	0	
0	0	0	0	0	526	500	1021	0	0	0	
1	0	0	0	0	529	504	1021	0	0	0	
2	0	0	0	0	532	507	1021	0	0	0	
3	0	0	0	0	536	510	1021	0	0	0	
4	0	0	0	0	538	512	1021	0	0	0	
5	0	0	0	0	540	514	1021	0	0	0	
6	0	0	0	0	543	516	1021	0	0	0	
7	0	0	0	0	545	517	1021	0	0	0	
8	0	0	0	0	546	517	1021	0	0	0	
9	0	0	0	0	547	517	1021	0	0	0	
10	0	0	0	0	548	518	1021	0	0	0	
11	0	0	0	0	550	519	1021	0	0	0	
12	0	0	0	0	551	519	1021	0	0	0	
13	0	0	0	0	551	520	1021	0	0	0	
14	0	0	0	0	553	521	1021	0	0	0	
15	0	0	0	0	553	523	1021	0	0	0	
0	0	0	0	0	555	525	1021	0	0	0	
1	0	0	0	0	556	527	1021	0	0	0	
2	0	0	0	0	558	529	1021	0	0	0	
3	0	0	0	0	559	531	1021	0	0	0	
4	0	0	0	0	559	532	1021	0	0	0	
5	0	0	0	0	560	533	1021	0	0	0	
6	0	0	0	0	558	532	1021	0	0	0	
7	0	0	0	0	556	530	1021	0	0	0	
8	0	0	0	0	552	526	1021	0	0	0	
9	0	0	0	0	547	521	1021	0	0	0	
10	0	0	0	0	540	516	1021	0	0	0	
11	0	0	0	0	534	510	1021	0	0	0	
12	0	0	0	0	527	503	1021	0	0	0	
13	0	0	0	0	519	497	1021	0	0	0	
14	0	0	0	0	513	492	1021	0	0	0	
15	0	0	0	0	508	487	1021	0	0	0	
0	0	0	0	0	505	484	1021	0	0	0	
1	0	0	0	0	503	482	1021	0	0	0	
2	0	0	0	0	504	482	1020	0	0	0	
3	0	0	0	0	506	484	1021	0	0	0	
4	0	0	0	0	511	488	1021	0	0	0	
5	0	0	0	0	518	494	1021	0	0	0	
6	0	0	0	0	527	501	1021	0	0	0	
7	0	0	0	0	535	508	1021	0	0	0	
8	0	0	0	0	544	515	1021	0	0	0	
9	0	0	0	0	552	521	1021	0	0	0	
10	0	0	0	0	560	527	1021	0	0	0	
11	0	0	0	0	566	531	1021	0	0	0	
12	0	0	0	0	572	535	1021	0	0	0	
13	0	0	0	0	575	537	1021	0	0	0	
14	0	0	0	0	576	538	1021	0	0	0	
15	0	0	0	0	576	538	1021	0	0	0	
0	0	0	0	0	574	536	1021	0	0	0	
1	0	0	0	0	571	535	1020	0	0	0	
2	0	0	0	0	568	532	1021	0	0	0	
3	0	0	0	0	564	531	1021	0	0	0	
4	0	0	0	0	560	529	1021	0	0	0	
5	0	0	0	0	558	528	1021	0	0	0	
6	0	0	0	0	556	529	1021	0	0	0	
7	0	0	0	0	556	530	1021	0	0	0	
8	0	0	0	0	557	533	1021	0	0	0	
9	0	0	0	0	559	536	1021	0	0	0	
10	0	0	0	0	563	540	1021	0	0	0	
11	0	0	0	0	567	543	1021	0	0	0	
12	0	0	0	0	571	547	1021	0	0	0	
13	0	0	0	0	576	551	1021	0	0	0	
14	0	0	0	0	580	555	1021	0	0	0	
15	0	0	0	0	584	558	1021	0	0	0	
0	0	0	0	0	587	559	1021	0	0	0	
1	0	0	0	0	588	558	1021	0	0	0	
2	0	0	0	0	587	556	1021	0	0	0	
3	0	0	0	0	583	552	1021	0	0	0	
4	0	0	0	0	577	547	1021	0	0	0	
5	0	0	0	0	569	540	1021	0	0	0	
6	0	0	0	0	560	531	1021	0	0	0	
7	0	0	0	0	551	524	1021	0	0	0	
8	0	0	0	0	542	517	1021	0	0	0	
9	0	0	0	0	535	511	1021	0	0	0	
10	0	0	0	0	529	507	1021	0	0	0	
11	0	0	0	0	526	505	1021	0	0	0	
12	0	0	0	0	527	507	1021	0	0	0	
13	0	0	0	0	529	511	1021	0	0	0	
14	0	0	0	0	535	516	1021	0	0	0	
15	0	0	0	0	542	523	1021	0	0	0	
0	0	0	0	0	548	529	1021	0	0	0	
1	0	0	0	0	555	535	1021	0	0	0	
2	0	0	0	0	560	539	1021	0	0	0	
3	0	0	0	0	563	540	1021	0	0	0	
4	0	0	0	0	563	540	1021	0	0	0	
5	0	0	0	0	561	537	1021	0	0	0	
6	0	0	0	0	557	532	1021	0	0	0	
7	0	0	0	0	551	526	1021	0	0	0	
8	0	0	0	0	544	518	1021	0	0	0	
9	0	0	0	0	537	510	1021	0	0	0	
10	0	0	0	0	530	503	1021	0	0	0	
11	0	0	0	0	525	497	1021	0	0	0	
12	0	0	0	0	520	492	1021	0	0	0	
13	0	0	0	0	518	490	1021	0	0	0	
14	0	0	0	0	518	489	1021	0	0	0	
15	0	0	0	0	519	491	1021	0	0	0	
0	0	0	0	0	523	494	1021	0	0	0	
1	0	0	0	0	527	499	1021	0	0	0	
2	0	0	0	0	534	504	1021	0	0	0	
3	0	0	0	0	540	511	1021	0	0	0	
4	0	0	0	0	546	517	1021	0	0	0	
5	0	0	0	0	552	524	1021	0	0	0	
6	0	0	0	0	558	530	1021	0	0	0	
7	0	0	0	0	563	535	1021	0	0	0	
8	0	0	0	0	565	538	1021	0	0	0	
9	0	0	0	0	566	539	1021	0	0	0	
10	0	0	0	0	565	539	1021	0	0	0	
11	0	0	0	0	562	537	1021	0	0	0	
12	0	0	0	0	557	533	1021	0	0	0	
13	0	0	0	0	551	527	1021	0	0	0	
14	0	0	0	0	545	521	1021	0	0	0	
15	0	0	0	0	538	514	1021	0	0	0	
0	0	0	0	0	531	508	1021	0	0	0	
1	0	0	0	0	526	502	1021	0	0	0	
2	0	0	0	0	521	496	1021	0	0	0	
3	0	0	0	0	518	492	1021	0	0	0	
4	0	0	0	0	515	490	1021	0	0	0	
5	0	0	0	0	515	489	1021	0	0	0	
6	0	0	0	0	515	489	1021	0	0	0	
7	0	0	0	0	517	491	1021	0	0	0	
8	0	0	0	0	519	493	1021	0	0	0	
9	0	0	0	0	523	496	1021	0	0	0	
10	0	0	0	0	527	500	1021	0	0	0	
11	0	0	0	0	531	505	1021	0	0	0	
12	0	0	0	0	536	510	1021	0	0	0	
13	0	0	0	0	541	515	1021	0	0	0	
14	0	0	0	0	546	520	1021	0	0	0	
15	0	0	0	0	551	525	1021	0	0	0	
0	0	0	0	0	556	529	1021	0	0	0	
1	0	0	0	0	561	534	1021	0	0	0	
2	0	0	0	0	565	538	1021	0	0	0	
3	0	0	0	0	571	543	1021	0	0	0	
4	0	0	0	0	575	547	1021	0	0	0	
5	0	0	0	0	579	551	1021	0	0	0	
6	0	0	0	0	583	554	1021	0	0	0	
7	0	0	0	0	586	557	1021	0	0	0	
8	0	0	0	0	588	559	1021	0	0	0	
9	0	0	0	0	589	560	1021	0	0	0	
10	0	0	0	0	589	560	1021	0	0	0	
11	0	0	0	0	588	560	1021	0	0	0	
12	0	0	0	0	585	559	1021	0	0	0	
13	0	0	0	0	582	556	1021	0	0	0	
14	0	0	0	0	578	553	1021	0	0	0	
15	0	0	0	0	572	549	1021	0	0	0	
0	0	0	0	0	566	543	1021	0	0	0	
1	0	0	0	0	559	537	1021	0	0	0	
2	0	0	0	0	552	531	1021	0	0	0	
3	0	0	0	0	545	524	1021	0	0	0	
4	0	0	0	0	540	518	1021	0	0	0	
5	0	0	0	0	536	514	1021	0	0	0	
6	0	0	0	0	532	510	1021	0	0	0	
7	0	0	0	0	532	509	1021	0	0	0	
8	0	0	0	0	532	509	1021	0	0	0	
9	0	0	0	0	534	510	1021	0	0	0	
10	0	0	0	0	536	511	1021	0	0	0	
11	0	0	0	0	538	512	1021	0	0	0	
12	0	0	0	0	540	514	1021	0	0	0	
13	0	0	0	0	542	515	1021	0	0	0	
14	0	0	0	0	542	515	1021	0	0	0	
15	0	0	0	0	542	514	1021	0	0	0	
0	0	0	0	0	540	513	1021	0	0	0	
1	0	0	0	0	538	511	1021	0	0	0	
2	0	0	0	0	536	509	1021	0	0	0	
3	0	0	0	0	533	506	1021	0	0	0	
4	0	0	0	0	530	504	1021	0	0	0	
5	0	0	0	0	527	501	1021	0	0	0	
6	0	0	0	0	527	499	1021	0	0	0	
7	0	0	0	0	527	499	1021	0	0	0	
8	0	0	0	0	527	499	1021	0	0	0	
9	0	0	0	0	529	499	1021	0	0	0	
10	0	0	0	0	533	502	1021	0	0	0	
11	0	0	0	0	537	505	1021	0	0	0	
12	0	0	0	0	543	511	1021	0	0	0	
13	0	0	0	0	550	516	1021	0	0	0	
14	0	0	0	0	556	523	1021	0	0	0	
15	0	0	0	0	563	530	1021	0	0	0	
0	0	0	0	0	570	536	1021	0	0	0	
1	0	0	0	0	575	542	1021	0	0	0	
2	0	0	0	0	580	547	1021	0	0	0	
3	0	0	0	0	583	550	1021	0	0	0	
4	0	0	0	0	583	552	1021	0	0	0	
5	0	0	0	0	582	552	1021	0	0	0	
6	0	0	0	0	579	551	1021	0	0	0	
7	0	0	0	0	575	547	1021	0	0	0	
8	0	0	0	0	569	542	1021	0	0	0	
9	0	0	0	0	563	536	1021	0	0	0	
10	0	0	0	0	556	530	1021	0	0	0	
11	0	0	0	0	550	525	1021	0	0	0	
12	0	0	0	0	545	520	1021	0	0	0	
13	0	0	0	0	541	517	1021	0	0	0	
14	0	0	0	0	539	515	1021	0	0	0	
15	0	0	0	0	539	514	1021	0	0	0	
0	0	0	0	0	539	514	1021	0	0	0	
1	0	0	0	0	540	515	1021	0	0	0	
2	0	0	0	0	540	516	1020	0	0	0	
3	0	0	0	0	542	518	1021	0	0	0	
4	0	0	0	0	544	520	1021	0	0	0	
5	0	0	0	0	545	522	1021	0	0	0	
6	0	0	0	0	547	524	1021	0	0	0	
7	0	0	0	0	548	526	1021	0	0	0	
8	0	0	0	0	550	528	1021	0	0	0	
9	0	0	0	0	551	529	1021	0	0	0	
10	0	0	0	0	551	531	1021	0	0	0	
11	0	0	0	0	552	530	1021	0	0	0	
12	0	0	0	0	552	529	1021	0	0	0	
13	0	0	0	0	551	527	1021	0	0	0	
14	0	0	0	0	550	524	1021	0	0	0	
15	0	0	0	0	547	520	1021	0	0	0	
0	0	0	0	0	543	516	1021	0	0	0	
1	0	0	0	0	540	511	1021	0	0	0	
2	0	0	0	0	537	506	1021	0	0	0	
3	0	0	0	0	534	502	1021	0	0	0	
4	0	0	0	0	531	498	1021	0	0	0	
5	0	0	0	0	528	496	1021	0	0	0	
6	0	0	0	0	527	494	1021	0	0	0	
7	0	0	0	0	527	494	1021	0	0	0	
8	0	0	0	0	530	496	1021	0	0	0	
9	0	0	0	0	532	499	1021	0	0	0	
10	0	0	0	0	537	504	1021	0	0	0	
11	0	0	0	0	543	511	1021	0	0	0	
12	0	0	0	0	549	518	1020	0	0	0	
13	0	0	0	0	556	525	1021	0	0	0	
14	0	0	0	0	561	532	1021	0	0	0	
15	0	0	0	0	567	539	1021	0	0	0	
0	0	0	0	0	571	544	1020	0	0	0	
1	0	0	0	0	575	548	1021	0	0	0	
2	0	0	0	0	576	551	1021	0	0	0	
3	0	0	0	0	577	553	1021	0	0	0	
4	0	0	0	0	577	554	1021	0	0	0	
5	0	0	0	0	577	554	1021	0	0	0	
6	0	0	0	0	577	553	1021	0	0	0	
7	0	0	0	0	577	553	1021	0	0	0	
8	0	0	0	0	576	552	1021	0	0	0	
9	0	0	0	0	575	550	1021	0	0	0	
10	0	0	0	0	573	547	1021	0	0	0	
11	0	0	0	0	569	543	1021	0	0	0	
12	0	0	0	0	564	539	1021	0	0	0	
13	0	0	0	0	558	534	1021	0	0	0	
14	0	0	0	0	551	527	1021	0	0	0	
15	0	0	0	0	543	520	1021	0	0	0	
0	0	0	0	0	533	512	1021	0	0	0	
1	0	0	0	0	523	504	1021	0	0	0	
2	0	0	0	0	512	494	1021	0	0	0	
3	0	0	0	0	499	482	1021	0	0	0	
4	0	0	0	0	486	470	1021	0	0	0	
5	0	0	0	0	472	456	1021	0	0	0	
6	0	0	0	0	459	443	1021	0	0	0	
7	0	0	0	0	446	429	1021	0	0	0	
8	0	0	0	0	434	415	1021	0	0	0	
9	0	0	0	0	422	402	1021	0	0	0	
10	0	0	0	0	411	389	1021	0	0	0	
11	0	0	0	0	400	377	1021	0	0	0	
12	0	0	0	0	389	364	1021	0	0	0	
13	0	0	0	0	378	352	1021	0	0	0	
14	0	0	0	0	367	340	1021	0	0	0	
15	0	0	0	0	355	328	1021	0	0	0	
0	0	0	0	0	344	317	1021	0	0	0	
1	0	0	0	0	335	307	1021	0	0	0	
2	0	0	0	0	325	298	1021	0	0	0	
3	0	0	0	0	318	292	1021	0	0	0	
4	0	0	0	0	314	288	1021	0	0	0	
5	0	0	0	0	313	288	1021	0	0	0	
6	0	0	0	0	317	293	1021	0	0	0	
7	0	0	0	0	326	302	1021	0	0	0	
8	0	0	0	0	340	315	1021	0	0	0	
9	0	0	0	0	358	331	1021	0	0	0	
10	0	0	0	0	380	351	1021	0	0	0	
11	0	0	0	0	405	373	1021	0	0	0	
12	0	0	0	0	431	396	1021	0	0	0	
13	0	0	0	0	457	418	1021	0	0	0	
14	0	0	0	0	482	439	1021	0	0	0	
15	0	0	0	0	504	456	1021	0	0	0	
0	0	0	0	0	522	472	1021	0	0	0	
1	0	0	0	0	536	484	1021	0	0	0	
2	0	0	0	0	547	495	1021	0	0	0	
3	0	0	0	0	555	503	1021	0	0	0	
4	0	0	0	0	560	510	1021	0	0	0	
5	0	0	0	0	563	515	1021	0	0	0	
6	0	0	0	0	564	520	1021	0	0	0	
7	0	0	0	0	565	524	1021	0	0	0	
8	0	0	0	0	565	529	1021	0	0	0	
9	0	0	0	0	564	532	1021	0	0	0	
10	0	0	0	0	565	536	1021	0	0	0	
11	0	0	0	0	565	540	1021	0	0	0	
12	0	0	0	0	566	543	1021	0	0	0	
13	0	0	0	0	568	547	1021	0	0	0	
14	0	0	0	0	571	550	1021	0	0	0	
15	0	0	0	0	574	553	1021	0	0	0	
0	0	0	0	0	576	555	1021	0	0	0	
1	0	0	0	0	578	555	1020	0	0	0	
2	0	0	0	0	578	553	1021	0	0	0	
3	0	0	0	0	576	550	1021	0	0	0	
4	0	0	0	0	572	544	1021	0	0	0	
5	0	0	0	0	567	537	1021	0	0	0	
6	0	0	0	0	560	531	1021	0	0	0	
7	0	0	0	0	553	524	1021	0	0	0	
8	0	0	0	0	546	517	1021	0	0	0	
9	0	0	0	0	540	512	1021	0	0	0	
10	0	0	0	0	536	509	1021	0	0	0	
11	0	0	0	0	534	508	1021	0	0	0	
12	0	0	0	0	533	509	1021	0	0	0	
13	0	0	0	0	536	512	1021	0	0	0	
14	0	0	0	0	540	517	1021	0	0	0	
15	0	0	0	0	545	523	1021	0	0	0	
0	0	0	0	0	552	529	1021	0	0	0	
1	0	0	0	0	559	535	1021	0	0	0	
2	0	0	0	0	565	540	1021	0	0	0	
3	0	0	0	0	571	545	1021	0	0	0	
4	0	0	0	0	576	548	1021	0	0	0	
5	0	0	0	0	580	551	1021	0	0	0	
6	0	0	0	0	583	552	1021	0	0	0	
7	0	0	0	0	585	552	1021	0	0	0	
8	0	0	0	0	585	551	1021	0	0	0	
9	0	0	0	0	584	550	1021	0	0	0	
10	0	0	0	0	582	547	1021	0	0	0	
11	0	0	0	0	577	543	1021	0	0	0	
12	0	0	0	0	572	540	1021	0	0	0	
13	0	0	0	0	567	536	1021	0	0	0	
14	0	0	0	0	560	531	1021	0	0	0	
15	0	0	0	0	555	527	1021	0	0	0	
0	0	0	0	0	548	524	1021	0	0	0	
1	0	0	0	0	543	520	1021	0	0	0	
2	0	0	0	0	538	517	1021	0	0	0	
3	0	0	0	0	534	514	1021	0	0	0	
4	0	0	0	0	532	512	1021	0	0	0	
5	0	0	0	0	530	511	1021	0	0	0	
6	0	0	0	0	531	511	1021	0	0	0	
7	0	0	0	0	533	512	1021	0	0	0	
8	0	0	0	0	537	515	1021	0	0	0	
9	0	0	0	0	542	518	1020	0	0	0	
10	0	0	0	0	548	522	1021	0	0	0	
11	0	0	0	0	555	527	1021	0	0	0	
12	0	0	0	0	561	532	1021	0	0	0	
13	0	0	0	0	569	538	1021	0	0	0	
14	0	0	0	0	576	544	1021	0	0	0	
15	0	0	0	0	583	550	1021	0	0	0	
0	0	0	0	0	590	556	1021	0	0	0	
1	0	0	0	0	595	562	1021	0	0	0	
2	0	0	0	0	599	566	1021	0	0	0	
3	0	0	0	0	602	569	1021	0	0	0	
4	0	0	0	0	603	571	1021	0	0	0	
5	0	0	0	0	602	571	1021	0	0	0	
6	0	0	0	0	599	569	1021	0	0	0	
7	0	0	0	0	595	566	1021	0	0	0	
8	0	0	0	0	589	561	1021	0	0	0	
9	0	0	0	0	583	556	1021	0	0	0	
10	0	0	0	0	576	550	1021	0	0	0	
11	0	0	0	0	570	545	1021	0	0	0	
12	0	0	0	0	565	540	1021	0	0	0	
13	0	0	0	0	561	536	1021	0	0	0	
14	0	0	0	0	559	534	1021	0	0	0	
15	0	0	0	0	559	534	1021	0	0	0	
0	0	0	0	0	561	535	1021	0	0	0	
1	0	0	0	0	564	538	1021	0	0	0	
2	0	0	0	0	569	542	1021	0	0	0	
3	0	0	0	0	575	546	1021	0	0	0	
4	0	0	0	0	581	551	1021	0	0	0	
5	0	0	0	0	586	556	1021	0	0	0	
6	0	0	0	0	590	560	1021	0	0	0	
7	0	0	0	0	593	562	1021	0	0	0	
8	0	0	0	0	594	563	1021	0	0	0	
9	0	0	0	0	594	564	1021	0	0	0	
10	0	0	0	0	592	563	1021	0	0	0	
11	0	0	0	0	588	559	1021	0	0	0	
12	0	0	0	0	582	554	1021	0	0	0	
13	0	0	0	0	574	548	1021	0	0	0	
14	0	0	0	0	567	541	1021	0	0	0	
15	0	0	0	0	559	535	1021	0	0	0	
0	0	0	0	0	552	528	1021	0	0	0	
1	0	0	0	0	546	522	1020	0	0	0	
2	0	0	0	0	541	518	1021	0	0	0	
3	0	0	0	0	539	515	1021	0	0	0	
4	0	0	0	0	537	513	1021	0	0	0	
5	0	0	0	0	538	514	1021	0	0	0	
6	0	0	0	0	540	515	1021	0	0	0	
7	0	0	0	0	544	518	1021	0	0	0	
8	0	0	0	0	548	522	1021	0	0	0	
9	0	0	0	0	553	526	1021	0	0	0	
10	0	0	0	0	558	530	1021	0	0	0	
11	0	0	0	0	562	533	1021	0	0	0	
12	0	0	0	0	566	537	1021	0	0	0	
13	0	0	0	0	568	540	1021	0	0	0	
14	0	0	0	0	569	541	1021	0	0	0	
15	0	0	0	0	569	541	1021	0	0	0	
0	0	0	0	0	567	540	1021	0	0	0	
1	0	0	0	0	564	537	1021	0	0	0	
2	0	0	0	0	560	535	1021	0	0	0	
3	0	0	0	0	556	531	1021	0	0	0	
4	0	0	0	0	552	528	1021	0	0	0	
5	0	0	0	0	549	525	1021	0	0	0	
6	0	0	0	0	545	522	1021	0	0	0	
7	0	0	0	0	544	520	1021	0	0	0	
8	0	0	0	0	542	519	1021	0	0	0	
9	0	0	0	0	542	518	1021	0	0	0	
10	0	0	0	0	543	517	1021	0	0	0	
11	0	0	0	0	543	518	1021	0	0	0	
12	0	0	0	0	546	519	1021	0	0	0	
