# OpenSignals Text File Format. Version 1
# {"": {"position": 0, "device": "", "device name": "", "device connection": "", "sampling rate": 1000, "resolution": [4, 1, 1, 1, 1, 10, 10, 10, 10, 6, 6], "firmware version": 1281, "comments": "", "keywords": "", "mode": 0, "sync interval": 2, "date": "", "time": "", "channels": [1, 2, 3, 4, 5, 6], "sensor": ["RAW", "RAW", "RAW", "RAW", "RAW", "RAW"], "label": ["A1", "A2", "A3", "A4", "A5", "A6"], "column": ["nSeq", "I1", "I2", "O1", "O2", "A1", "A2", "A3", "A4", "A5", "A6"], "special": [{}, {}, {}, {}, {}, {}], "digital IO": [0, 0, 1, 1]}}
# EndOfHeader
0	0	0	0	0	579	531	1021	0	0	0	
1	0	0	0	0	580	531	1021	0	0	0	
2	0	0	0	0	580	530	1021	0	0	0	
3	0	0	0	0	579	528	1021	0	0	0	
4	0	0	0	0	577	525	1021	0	0	0	
5	0	0	0	0	574	521	1021	0	0	0	
6	0	0	0	0	571	518	1021	0	0	0	
7	0	0	0	0	568	515	1021	0	0	0	
8	0	0	0	0	566	513	1021	0	0	0	
9	0	0	0	0	565	511	1021	0	0	0	
10	0	0	0	0	565	511	1021	0	0	0	
11	0	0	0	0	566	513	1021	0	0	0	
12	0	0	0	0	568	515	1021	0	0	0	
13	0	0	0	0	571	519	1021	0	0	0	
14	0	0	0	0	575	523	1021	0	0	0	
15	0	0	0	0	579	527	1021	0	0	0	
0	0	0	0	0	584	533	1021	0	0	0	
1	0	0	0	0	590	538	1021	0	0	0	
2	0	0	0	0	595	543	1021	0	0	0	
3	0	0	0	0	600	547	1021	0	0	0	
4	0	0	0	0	603	551	1021	0	0	0	
5	0	0	0	0	607	555	1021	0	0	0	
6	0	0	0	0	608	557	1021	0	0	0	
7	0	0	0	0	610	559	1021	0	0	0	
8	0	0	0	0	611	560	1021	0	0	0	
9	0	0	0	0	612	561	1021	0	0	0	
10	0	0	0	0	611	561	1021	0	0	0	
11	0	0	0	0	610	560	1021	0	0	0	
12	0	0	0	0	607	557	1021	0	0	0	
13	0	0	0	0	603	553	1021	0	0	0	
14	0	0	0	0	596	548	1021	0	0	0	
15	0	0	0	0	589	542	1021	0	0	0	
0	0	0	0	0	581	535	1021	0	0	0	
1	0	0	0	0	571	526	1020	0	0	0	
2	0	0	0	0	562	518	1021	0	0	0	
3	0	0	0	0	553	509	1021	0	0	0	
4	0	0	0	0	545	501	1021	0	0	0	
5	0	0	0	0	538	494	1021	0	0	0	
6	0	0	0	0	532	487	1021	0	0	0	
7	0	0	0	0	528	482	1021	0	0	0	
8	0	0	0	0	526	478	1021	0	0	0	
9	0	0	0	0	524	475	1021	0	0	0	
10	0	0	0	0	525	473	1021	0	0	0	
11	0	0	0	0	526	472	1021	0	0	0	
12	0	0	0	0	527	472	1021	0	0	0	
13	0	0	0	0	529	472	1021	0	0	0	
14	0	0	0	0	531	473	1021	0	0	0	
15	0	0	0	0	534	474	1021	0	0	0	
0	0	0	0	0	535	475	1020	0	0	0	
1	0	0	0	0	536	476	1021	0	0	0	
2	0	0	0	0	538	478	1021	0	0	0	
3	0	0	0	0	539	479	1021	0	0	0	
4	0	0	0	0	540	481	1021	0	0	0	
5	0	0	0	0	540	483	1020	0	0	0	
6	0	0	0	0	540	485	1021	0	0	0	
7	0	0	0	0	542	487	1021	0	0	0	
8	0	0	0	0	543	489	1021	0	0	0	
9	0	0	0	0	544	492	1021	0	0	0	
10	0	0	0	0	545	494	1021	0	0	0	
11	0	0	0	0	545	495	1020	0	0	0	
12	0	0	0	0	546	496	1021	0	0	0	
13	0	0	0	0	546	496	1021	0	0	0	
14	0	0	0	0	545	496	1021	0	0	0	
15	0	0	0	0	544	495	1021	0	0	0	
0	0	0	0	0	543	494	1021	0	0	0	
1	0	0	0	0	542	492	1021	0	0	0	
2	0	0	0	0	540	491	1021	0	0	0	
3	0	0	0	0	540	489	1021	0	0	0	
4	0	0	0	0	539	489	1021	0	0	0	
5	0	0	0	0	539	489	1021	0	0	0	
6	0	0	0	0	540	489	1021	0	0	0	
7	0	0	0	0	542	491	1021	0	0	0	
8	0	0	0	0	543	492	1021	0	0	0	
9	0	0	0	0	544	494	1021	0	0	0	
10	0	0	0	0	545	495	1020	0	0	0	
11	0	0	0	0	547	496	1021	0	0	0	
12	0	0	0	0	549	498	1021	0	0	0	
13	0	0	0	0	551	500	1021	0	0	0	
14	0	0	0	0	553	502	1021	0	0	0	
15	0	0	0	0	556	505	1021	0	0	0	
0	0	0	0	0	559	507	1021	0	0	0	
1	0	0	0	0	562	509	1021	0	0	0	
2	0	0	0	0	564	511	1021	0	0	0	
3	0	0	0	0	567	512	1021	0	0	0	
4	0	0	0	0	568	514	1021	0	0	0	
5	0	0	0	0	569	514	1021	0	0	0	
6	0	0	0	0	570	515	1021	0	0	0	
7	0	0	0	0	571	515	1021	0	0	0	
8	0	0	0	0	570	515	1021	0	0	0	
9	0	0	0	0	570	515	1021	0	0	0	
10	0	0	0	0	569	514	1021	0	0	0	
11	0	0	0	0	568	513	1021	0	0	0	
12	0	0	0	0	566	512	1021	0	0	0	
13	0	0	0	0	563	511	1021	0	0	0	
14	0	0	0	0	561	510	1021	0	0	0	
15	0	0	0	0	558	508	1021	0	0	0	
0	0	0	0	0	556	508	1021	0	0	0	
1	0	0	0	0	554	507	1021	0	0	0	
2	0	0	0	0	553	507	1021	0	0	0	
3	0	0	0	0	553	508	1021	0	0	0	
4	0	0	0	0	554	508	1021	0	0	0	
5	0	0	0	0	556	509	1021	0	0	0	
6	0	0	0	0	558	510	1021	0	0	0	
7	0	0	0	0	560	510	1021	0	0	0	
8	0	0	0	0	562	511	1020	0	0	0	
9	0	0	0	0	565	512	1021	0	0	0	
10	0	0	0	0	568	514	1021	0	0	0	
11	0	0	0	0	571	516	1021	0	0	0	
12	0	0	0	0	573	519	1021	0	0	0	
13	0	0	0	0	576	522	1021	0	0	0	
14	0	0	0	0	579	526	1021	0	0	0	
15	0	0	0	0	583	531	1021	0	0	0	
0	0	0	0	0	587	536	1021	0	0	0	
1	0	0	0	0	591	541	1021	0	0	0	
2	0	0	0	0	595	546	1020	0	0	0	
3	0	0	0	0	599	550	1021	0	0	0	
4	0	0	0	0	603	554	1021	0	0	0	
5	0	0	0	0	605	557	1021	0	0	0	
6	0	0	0	0	607	559	1021	0	0	0	
7	0	0	0	0	607	559	1021	0	0	0	
8	0	0	0	0	605	556	1021	0	0	0	
9	0	0	0	0	601	552	1021	0	0	0	
10	0	0	0	0	596	547	1021	0	0	0	
11	0	0	0	0	588	540	1020	0	0	0	
12	0	0	0	0	579	532	1020	0	0	0	
13	0	0	0	0	570	523	1021	0	0	0	
14	0	0	0	0	560	514	1021	0	0	0	
15	0	0	0	0	550	505	1021	0	0	0	
0	0	0	0	0	540	497	1021	0	0	0	
1	0	0	0	0	532	490	1021	0	0	0	
2	0	0	0	0	525	484	1021	0	0	0	
3	0	0	0	0	521	481	1021	0	0	0	
4	0	0	0	0	518	479	1021	0	0	0	
5	0	0	0	0	517	478	1021	0	0	0	
6	0	0	0	0	518	478	1021	0	0	0	
7	0	0	0	0	520	480	1021	0	0	0	
8	0	0	0	0	524	483	1021	0	0	0	
9	0	0	0	0	529	487	1021	0	0	0	
10	0	0	0	0	534	490	1021	0	0	0	
11	0	0	0	0	540	494	1021	0	0	0	
12	0	0	0	0	545	497	1021	0	0	0	
13	0	0	0	0	550	500	1021	0	0	0	
14	0	0	0	0	553	502	1021	0	0	0	
15	0	0	0	0	556	503	1021	0	0	0	
0	0	0	0	0	558	503	1021	0	0	0	
1	0	0	0	0	559	503	1021	0	0	0	
2	0	0	0	0	559	503	1021	0	0	0	
3	0	0	0	0	558	502	1021	0	0	0	
4	0	0	0	0	556	501	1021	0	0	0	
5	0	0	0	0	555	499	1021	0	0	0	
6	0	0	0	0	553	499	1021	0	0	0	
7	0	0	0	0	551	498	1021	0	0	0	
8	0	0	0	0	548	497	1021	0	0	0	
9	0	0	0	0	546	497	1021	0	0	0	
10	0	0	0	0	544	496	1021	0	0	0	
11	0	0	0	0	543	496	1021	0	0	0	
12	0	0	0	0	541	496	1021	0	0	0	
13	0	0	0	0	540	496	1021	0	0	0	
14	0	0	0	0	538	495	1021	0	0	0	
15	0	0	0	0	537	494	1021	0	0	0	
0	0	0	0	0	536	493	1021	0	0	0	
1	0	0	0	0	536	492	1021	0	0	0	
2	0	0	0	0	535	491	1021	0	0	0	
3	0	0	0	0	534	488	1021	0	0	0	
4	0	0	0	0	532	486	1021	0	0	0	
5	0	0	0	0	531	484	1021	0	0	0	
6	0	0	0	0	529	482	1021	0	0	0	
7	0	0	0	0	528	480	1021	0	0	0	
8	0	0	0	0	527	480	1021	0	0	0	
9	0	0	0	0	529	480	1021	0	0	0	
10	0	0	0	0	531	483	1021	0	0	0	
11	0	0	0	0	535	487	1021	0	0	0	
12	0	0	0	0	539	491	1021	0	0	0	
13	0	0	0	0	544	497	1021	0	0	0	
14	0	0	0	0	551	503	1021	0	0	0	
15	0	0	0	0	558	510	1021	0	0	0	
0	0	0	0	0	565	517	1021	0	0	0	
1	0	0	0	0	572	524	1021	0	0	0	
2	0	0	0	0	578	529	1021	0	0	0	
3	0	0	0	0	584	534	1021	0	0	0	
4	0	0	0	0	588	538	1021	0	0	0	
5	0	0	0	0	591	540	1021	0	0	0	
6	0	0	0	0	593	541	1021	0	0	0	
7	0	0	0	0	593	541	1021	0	0	0	
8	0	0	0	0	592	540	1021	0	0	0	
9	0	0	0	0	591	537	1021	0	0	0	
10	0	0	0	0	588	536	1021	0	0	0	
11	0	0	0	0	585	534	1021	0	0	0	
12	0	0	0	0	582	532	1021	0	0	0	
13	0	0	0	0	580	531	1021	0	0	0	
14	0	0	0	0	579	531	1021	0	0	0	
15	0	0	0	0	579	532	1021	0	0	0	
0	0	0	0	0	579	534	1021	0	0	0	
1	0	0	0	0	579	536	1021	0	0	0	
2	0	0	0	0	580	537	1021	0	0	0	
3	0	0	0	0	581	539	1021	0	0	0	
4	0	0	0	0	582	540	1021	0	0	0	
5	0	0	0	0	583	541	1021	0	0	0	
6	0	0	0	0	582	540	1021	0	0	0	
7	0	0	0	0	581	538	1021	0	0	0	
8	0	0	0	0	578	535	1021	0	0	0	
9	0	0	0	0	574	530	1021	0	0	0	
10	0	0	0	0	568	524	1021	0	0	0	
11	0	0	0	0	560	516	1021	0	0	0	
12	0	0	0	0	551	508	1021	0	0	0	
13	0	0	0	0	543	499	1021	0	0	0	
14	0	0	0	0	533	491	1021	0	0	0	
15	0	0	0	0	526	484	1021	0	0	0	
0	0	0	0	0	519	478	1021	0	0	0	
1	0	0	0	0	514	474	1021	0	0	0	
2	0	0	0	0	512	472	1021	0	0	0	
3	0	0	0	0	511	472	1021	0	0	0	
4	0	0	0	0	513	473	1021	0	0	0	
5	0	0	0	0	517	476	1021	0	0	0	
6	0	0	0	0	522	480	1021	0	0	0	
7	0	0	0	0	529	486	1021	0	0	0	
8	0	0	0	0	537	492	1021	0	0	0	
9	0	0	0	0	545	498	1021	0	0	0	
10	0	0	0	0	552	504	1021	0	0	0	
11	0	0	0	0	559	509	1020	0	0	0	
12	0	0	0	0	565	514	1021	0	0	0	
13	0	0	0	0	568	516	1021	0	0	0	
14	0	0	0	0	570	518	1021	0	0	0	
15	0	0	0	0	570	518	1021	0	0	0	
0	0	0	0	0	568	515	1021	0	0	0	
1	0	0	0	0	564	511	1021	0	0	0	
2	0	0	0	0	558	506	1021	0	0	0	
3	0	0	0	0	550	500	1021	0	0	0	
4	0	0	0	0	542	492	1021	0	0	0	
5	0	0	0	0	533	485	1020	0	0	0	
6	0	0	0	0	524	478	1021	0	0	0	
7	0	0	0	0	517	472	1021	0	0	0	
8	0	0	0	0	511	468	1021	0	0	0	
9	0	0	0	0	507	466	1020	0	0	0	
10	0	0	0	0	506	465	1020	0	0	0	
11	0	0	0	0	507	467	1021	0	0	0	
12	0	0	0	0	511	470	1021	0	0	0	
13	0	0	0	0	516	474	1021	0	0	0	
14	0	0	0	0	523	479	1021	0	0	0	
15	0	0	0	0	529	484	1021	0	0	0	
0	0	0	0	0	537	490	1021	0	0	0	
1	0	0	0	0	544	494	1021	0	0	0	
2	0	0	0	0	550	497	1021	0	0	0	
3	0	0	0	0	555	500	1021	0	0	0	
4	0	0	0	0	557	502	1021	0	0	0	
5	0	0	0	0	560	503	1021	0	0	0	
6	0	0	0	0	561	504	1021	0	0	0	
7	0	0	0	0	560	504	1021	0	0	0	
8	0	0	0	0	560	504	1021	0	0	0	
9	0	0	0	0	558	504	1021	0	0	0	
10	0	0	0	0	558	504	1021	0	0	0	
11	0	0	0	0	557	506	1021	0	0	0	
12	0	0	0	0	557	508	1021	0	0	0	
13	0	0	0	0	558	510	1021	0	0	0	
14	0	0	0	0	559	512	1021	0	0	0	
15	0	0	0	0	561	515	1021	0	0	0	
0	0	0	0	0	563	519	1021	0	0	0	
1	0	0	0	0	566	521	1021	0	0	0	
2	0	0	0	0	568	523	1021	0	0	0	
3	0	0	0	0	569	524	1020	0	0	0	
4	0	0	0	0	569	523	1021	0	0	0	
5	0	0	0	0	568	521	1021	0	0	0	
6	0	0	0	0	565	518	1021	0	0	0	
7	0	0	0	0	560	512	1021	0	0	0	
8	0	0	0	0	554	505	1021	0	0	0	
9	0	0	0	0	546	497	1021	0	0	0	
10	0	0	0	0	538	489	1021	0	0	0	
11	0	0	0	0	529	482	1021	0	0	0	
12	0	0	0	0	521	475	1021	0	0	0	
13	0	0	0	0	515	471	1021	0	0	0	
14	0	0	0	0	512	469	1021	0	0	0	
15	0	0	0	0	511	470	1021	0	0	0	
0	0	0	0	0	515	474	1021	0	0	0	
1	0	0	0	0	521	481	1021	0	0	0	
2	0	0	0	0	530	491	1020	0	0	0	
3	0	0	0	0	542	502	1021	0	0	0	
4	0	0	0	0	555	513	1021	0	0	0	
5	0	0	0	0	568	526	1021	0	0	0	
6	0	0	0	0	581	537	1020	0	0	0	
7	0	0	0	0	593	547	1021	0	0	0	
8	0	0	0	0	604	556	1021	0	0	0	
9	0	0	0	0	612	564	1021	0	0	0	
10	0	0	0	0	619	569	1021	0	0	0	
11	0	0	0	0	622	572	1021	0	0	0	
12	0	0	0	0	622	571	1021	0	0	0	
13	0	0	0	0	617	568	1021	0	0	0	
14	0	0	0	0	610	561	1021	0	0	0	
15	0	0	0	0	600	553	1021	0	0	0	
0	0	0	0	0	588	543	1021	0	0	0	
1	0	0	0	0	574	532	1020	0	0	0	
2	0	0	0	0	561	521	1021	0	0	0	
3	0	0	0	0	547	511	1021	0	0	0	
4	0	0	0	0	536	501	1021	0	0	0	
5	0	0	0	0	525	493	1021	0	0	0	
6	0	0	0	0	516	487	1020	0	0	0	
7	0	0	0	0	511	482	1021	0	0	0	
8	0	0	0	0	507	479	1021	0	0	0	
9	0	0	0	0	505	477	1021	0	0	0	
10	0	0	0	0	504	476	1020	0	0	0	
11	0	0	0	0	507	476	1021	0	0	0	
12	0	0	0	0	508	476	1021	0	0	0	
13	0	0	0	0	511	477	1021	0	0	0	
14	0	0	0	0	514	477	1021	0	0	0	
15	0	0	0	0	516	478	1021	0	0	0	
0	0	0	0	0	519	478	1021	0	0	0	
1	0	0	0	0	519	477	1021	0	0	0	
2	0	0	0	0	520	477	1021	0	0	0	
3	0	0	0	0	520	476	1021	0	0	0	
4	0	0	0	0	520	476	1021	0	0	0	
5	0	0	0	0	519	476	1021	0	0	0	
6	0	0	0	0	519	476	1021	0	0	0	
7	0	0	0	0	519	477	1021	0	0	0	
8	0	0	0	0	519	478	1021	0	0	0	
9	0	0	0	0	519	480	1021	0	0	0	
10	0	0	0	0	519	482	1021	0	0	0	
11	0	0	0	0	521	483	1021	0	0	0	
12	0	0	0	0	522	485	1021	0	0	0	
13	0	0	0	0	524	487	1021	0	0	0	
14	0	0	0	0	526	489	1021	0	0	0	
15	0	0	0	0	528	491	1021	0	0	0	
0	0	0	0	0	532	494	1021	0	0	0	
1	0	0	0	0	536	497	1021	0	0	0	
2	0	0	0	0	540	500	1021	0	0	0	
3	0	0	0	0	545	504	1021	0	0	0	
4	0	0	0	0	548	507	1020	0	0	0	
5	0	0	0	0	552	510	1021	0	0	0	
6	0	0	0	0	556	513	1021	0	0	0	
7	0	0	0	0	558	515	1021	0	0	0	
8	0	0	0	0	559	516	1021	0	0	0	
9	0	0	0	0	559	517	1020	0	0	0	
10	0	0	0	0	558	517	1021	0	0	0	
11	0	0	0	0	556	516	1021	0	0	0	
12	0	0	0	0	554	515	1021	0	0	0	
13	0	0	0	0	551	513	1021	0	0	0	
14	0	0	0	0	547	511	1020	0	0	0	
15	0	0	0	0	543	508	1021	0	0	0	
0	0	0	0	0	540	506	1021	0	0	0	
1	0	0	0	0	536	504	1021	0	0	0	
2	0	0	0	0	534	502	1021	0	0	0	
3	0	0	0	0	533	501	1021	0	0	0	
4	0	0	0	0	533	500	1021	0	0	0	
5	0	0	0	0	534	500	1021	0	0	0	
6	0	0	0	0	536	501	1021	0	0	0	
7	0	0	0	0	538	502	1021	0	0	0	
8	0	0	0	0	541	504	1021	0	0	0	
9	0	0	0	0	544	505	1021	0	0	0	
10	0	0	0	0	547	508	1021	0	0	0	
11	0	0	0	0	550	510	1021	0	0	0	
12	0	0	0	0	552	512	1021	0	0	0	
13	0	0	0	0	554	514	1020	0	0	0	
14	0	0	0	0	555	515	1021	0	0	0	
15	0	0	0	0	555	517	1021	0	0	0	
0	0	0	0	0	555	519	1021	0	0	0	
1	0	0	0	0	555	519	1021	0	0	0	
2	0	0	0	0	554	521	1020	0	0	0	
3	0	0	0	0	553	522	1021	0	0	0	
4	0	0	0	0	552	522	1021	0	0	0	
5	0	0	0	0	551	523	1021	0	0	0	
6	0	0	0	0	550	523	1021	0	0	0	
7	0	0	0	0	549	522	1021	0	0	0	
8	0	0	0	0	548	521	1021	0	0	0	
9	0	0	0	0	548	520	1021	0	0	0	
10	0	0	0	0	549	520	1021	0	0	0	
11	0	0	0	0	550	519	1021	0	0	0	
12	0	0	0	0	551	519	1021	0	0	0	
13	0	0	0	0	553	519	1021	0	0	0	
14	0	0	0	0	555	519	1021	0	0	0	
15	0	0	0	0	557	519	1021	0	0	0	
0	0	0	0	0	559	521	1021	0	0	0	
1	0	0	0	0	562	523	1020	0	0	0	
2	0	0	0	0	566	526	1021	0	0	0	
3	0	0	0	0	568	528	1021	0	0	0	
4	0	0	0	0	570	531	1021	0	0	0	
5	0	0	0	0	571	533	1021	0	0	0	
6	0	0	0	0	571	535	1020	0	0	0	
7	0	0	0	0	571	536	1021	0	0	0	
8	0	0	0	0	570	536	1021	0	0	0	
9	0	0	0	0	568	536	1021	0	0	0	
10	0	0	0	0	565	534	1020	0	0	0	
11	0	0	0	0	562	532	1020	0	0	0	
12	0	0	0	0	559	529	1021	0	0	0	
13	0	0	0	0	554	525	1021	0	0	0	
14	0	0	0	0	549	520	1021	0	0	0	
15	0	0	0	0	543	514	1021	0	0	0	
0	0	0	0	0	537	508	1021	0	0	0	
1	0	0	0	0	532	502	1021	0	0	0	
2	0	0	0	0	527	497	1021	0	0	0	
3	0	0	0	0	524	492	1021	0	0	0	
4	0	0	0	0	522	490	1020	0	0	0	
5	0	0	0	0	521	489	1020	0	0	0	
6	0	0	0	0	523	490	1021	0	0	0	
7	0	0	0	0	525	492	1021	0	0	0	
8	0	0	0	0	528	495	1021	0	0	0	
9	0	0	0	0	532	499	1021	0	0	0	
10	0	0	0	0	537	504	1021	0	0	0	
11	0	0	0	0	542	508	1021	0	0	0	
12	0	0	0	0	546	512	1021	0	0	0	
13	0	0	0	0	550	516	1021	0	0	0	
14	0	0	0	0	552	519	1021	0	0	0	
15	0	0	0	0	555	520	1021	0	0	0	
0	0	0	0	0	556	521	1021	0	0	0	
1	0	0	0	0	556	521	1021	0	0	0	
2	0	0	0	0	556	520	1021	0	0	0	
3	0	0	0	0	555	519	1021	0	0	0	
4	0	0	0	0	553	518	1021	0	0	0	
5	0	0	0	0	552	517	1021	0	0	0	
6	0	0	0	0	550	515	1021	0	0	0	
7	0	0	0	0	548	513	1021	0	0	0	
8	0	0	0	0	545	512	1021	0	0	0	
9	0	0	0	0	542	509	1020	0	0	0	
10	0	0	0	0	539	507	1021	0	0	0	
11	0	0	0	0	534	504	1021	0	0	0	
12	0	0	0	0	529	500	1021	0	0	0	
13	0	0	0	0	524	496	1021	0	0	0	
14	0	0	0	0	518	491	1020	0	0	0	
15	0	0	0	0	513	486	1021	0	0	0	
0	0	0	0	0	508	481	1021	0	0	0	
1	0	0	0	0	504	476	1021	0	0	0	
2	0	0	0	0	500	472	1021	0	0	0	
3	0	0	0	0	497	467	1021	0	0	0	
4	0	0	0	0	496	463	1021	0	0	0	
5	0	0	0	0	494	461	1021	0	0	0	
6	0	0	0	0	495	459	1021	0	0	0	
7	0	0	0	0	496	458	1021	0	0	0	
8	0	0	0	0	499	460	1020	0	0	0	
9	0	0	0	0	504	463	1021	0	0	0	
10	0	0	0	0	510	468	1021	0	0	0	
11	0	0	0	0	517	474	1021	0	0	0	
12	0	0	0	0	525	482	1021	0	0	0	
13	0	0	0	0	532	490	1021	0	0	0	
14	0	0	0	0	540	497	1021	0	0	0	
15	0	0	0	0	546	504	1021	0	0	0	
0	0	0	0	0	550	510	1021	0	0	0	
1	0	0	0	0	553	513	1021	0	0	0	
2	0	0	0	0	553	515	1020	0	0	0	
3	0	0	0	0	552	515	1021	0	0	0	
4	0	0	0	0	550	515	1021	0	0	0	
5	0	0	0	0	547	513	1021	0	0	0	
6	0	0	0	0	543	511	1021	0	0	0	
7	0	0	0	0	540	509	1021	0	0	0	
8	0	0	0	0	537	507	1021	0	0	0	
9	0	0	0	0	536	506	1021	0	0	0	
10	0	0	0	0	537	507	1021	0	0	0	
11	0	0	0	0	540	509	1021	0	0	0	
12	0	0	0	0	545	513	1021	0	0	0	
13	0	0	0	0	552	519	1021	0	0	0	
14	0	0	0	0	560	527	1021	0	0	0	
15	0	0	0	0	570	534	1021	0	0	0	
0	0	0	0	0	580	543	1021	0	0	0	
1	0	0	0	0	589	551	1020	0	0	0	
2	0	0	0	0	598	559	1021	0	0	0	
3	0	0	0	0	604	565	1021	0	0	0	
4	0	0	0	0	608	568	1021	0	0	0	
5	0	0	0	0	608	570	1021	0	0	0	
6	0	0	0	0	606	568	1021	0	0	0	
7	0	0	0	0	600	564	1021	0	0	0	
8	0	0	0	0	592	557	1021	0	0	0	
9	0	0	0	0	582	548	1021	0	0	0	
10	0	0	0	0	570	538	1021	0	0	0	
11	0	0	0	0	557	527	1020	0	0	0	
12	0	0	0	0	546	517	1021	0	0	0	
13	0	0	0	0	536	508	1021	0	0	0	
14	0	0	0	0	529	501	1021	0	0	0	
15	0	0	0	0	524	496	1021	0	0	0	
0	0	0	0	0	523	494	1020	0	0	0	
1	0	0	0	0	526	495	1021	0	0	0	
2	0	0	0	0	532	499	1021	0	0	0	
3	0	0	0	0	541	506	1021	0	0	0	
4	0	0	0	0	551	514	1021	0	0	0	
5	0	0	0	0	561	521	1021	0	0	0	
6	0	0	0	0	568	526	1021	0	0	0	
7	0	0	0	0	572	528	1021	0	0	0	
8	0	0	0	0	572	527	1021	0	0	0	
9	0	0	0	0	566	522	1020	0	0	0	
10	0	0	0	0	557	514	1020	0	0	0	
11	0	0	0	0	545	504	1021	0	0	0	
12	0	0	0	0	530	492	1021	0	0	0	
13	0	0	0	0	515	480	1021	0	0	0	
14	0	0	0	0	501	469	1021	0	0	0	
15	0	0	0	0	487	459	1021	0	0	0	
0	0	0	0	0	478	451	1021	0	0	0	
1	0	0	0	0	471	446	1021	0	0	0	
2	0	0	0	0	467	444	1021	0	0	0	
3	0	0	0	0	468	445	1020	0	0	0	
4	0	0	0	0	473	449	1020	0	0	0	
5	0	0	0	0	483	455	1021	0	0	0	
6	0	0	0	0	495	465	1021	0	0	0	
7	0	0	0	0	510	477	1021	0	0	0	
8	0	0	0	0	526	489	1021	0	0	0	
9	0	0	0	0	542	503	1021	0	0	0	
10	0	0	0	0	558	515	1021	0	0	0	
11	0	0	0	0	572	527	1021	0	0	0	
12	0	0	0	0	583	536	1021	0	0	0	
13	0	0	0	0	590	543	1021	0	0	0	
14	0	0	0	0	593	547	1021	0	0	0	
15	0	0	0	0	592	547	1021	0	0	0	
0	0	0	0	0	588	545	1021	0	0	0	
1	0	0	0	0	579	538	1021	0	0	0	
2	0	0	0	0	566	529	1021	0	0	0	
3	0	0	0	0	551	517	1020	0	0	0	
4	0	0	0	0	536	504	1021	0	0	0	
5	0	0	0	0	518	489	1021	0	0	0	
6	0	0	0	0	501	474	1021	0	0	0	
7	0	0	0	0	484	459	1021	0	0	0	
8	0	0	0	0	468	444	1021	0	0	0	
9	0	0	0	0	454	430	1021	0	0	0	
10	0	0	0	0	440	417	1021	0	0	0	
11	0	0	0	0	428	403	1021	0	0	0	
12	0	0	0	0	416	391	1021	0	0	0	
13	0	0	0	0	406	379	1021	0	0	0	
14	0	0	0	0	395	367	1021	0	0	0	
15	0	0	0	0	385	355	1021	0	0	0	
0	0	0	0	0	375	344	1021	0	0	0	
1	0	0	0	0	365	332	1021	0	0	0	
2	0	0	0	0	356	322	1021	0	0	0	
3	0	0	0	0	346	312	1021	0	0	0	
4	0	0	0	0	337	303	1021	0	0	0	
5	0	0	0	0	329	295	1021	0	0	0	
6	0	0	0	0	323	287	1021	0	0	0	
7	0	0	0	0	317	282	1021	0	0	0	
8	0	0	0	0	314	278	1021	0	0	0	
9	0	0	0	0	313	277	1021	0	0	0	
10	0	0	0	0	316	278	1021	0	0	0	
11	0	0	0	0	321	282	1021	0	0	0	
12	0	0	0	0	330	289	1021	0	0	0	
13	0	0	0	0	342	299	1021	0	0	0	
14	0	0	0	0	358	312	1021	0	0	0	
15	0	0	0	0	375	327	1021	0	0	0	
0	0	0	0	0	395	344	1021	0	0	0	
1	0	0	0	0	417	364	1021	0	0	0	
2	0	0	0	0	440	385	1021	0	0	0	
3	0	0	0	0	463	407	1021	0	0	0	
4	0	0	0	0	484	428	1021	0	0	0	
5	0	0	0	0	504	448	1021	0	0	0	
6	0	0	0	0	522	466	1021	0	0	0	
7	0	0	0	0	537	482	1021	0	0	0	
8	0	0	0	0	550	496	1021	0	0	0	
9	0	0	0	0	559	507	1021	0	0	0	
10	0	0	0	0	564	516	1021	0	0	0	
11	0	0	0	0	569	523	1021	0	0	0	
12	0	0	0	0	572	529	1021	0	0	0	
13	0	0	0	0	574	533	1021	0	0	0	
14	0	0	0	0	576	536	1021	0	0	0	
15	0	0	0	0	576	539	1021	0	0	0	
0	0	0	0	0	577	540	1021	0	0	0	
1	0	0	0	0	576	540	1021	0	0	0	
2	0	0	0	0	576	540	1021	0	0	0	
3	0	0	0	0	575	539	1021	0	0	0	
4	0	0	0	0	574	537	1021	0	0	0	
5	0	0	0	0	573	536	1021	0	0	0	
6	0	0	0	0	572	533	1021	0	0	0	
7	0	0	0	0	570	530	1021	0	0	0	
8	0	0	0	0	567	527	1021	0	0	0	
9	0	0	0	0	564	524	1021	0	0	0	
10	0	0	0	0	560	519	1021	0	0	0	
11	0	0	0	0	556	515	1021	0	0	0	
12	0	0	0	0	551	511	1021	0	0	0	
13	0	0	0	0	546	508	1021	0	0	0	
14	0	0	0	0	542	504	1021	0	0	0	
15	0	0	0	0	538	502	1021	0	0	0	
0	0	0	0	0	536	500	1021	0	0	0	
1	0	0	0	0	534	499	1021	0	0	0	
2	0	0	0	0	534	498	1021	0	0	0	
3	0	0	0	0	535	498	1021	0	0	0	
4	0	0	0	0	535	498	1020	0	0	0	
5	0	0	0	0	537	499	1021	0	0	0	
6	0	0	0	0	539	499	1021	0	0	0	
7	0	0	0	0	540	499	1021	0	0	0	
8	0	0	0	0	540	499	1021	0	0	0	
9	0	0	0	0	539	499	1021	0	0	0	
10	0	0	0	0	539	497	1021	0	0	0	
11	0	0	0	0	537	497	1021	0	0	0	
12	0	0	0	0	536	496	1021	0	0	0	
13	0	0	0	0	535	496	1021	0	0	0	
14	0	0	0	0	535	497	1021	0	0	0	
15	0	0	0	0	536	499	1021	0	0	0	
0	0	0	0	0	537	503	1021	0	0	0	
1	0	0	0	0	540	506	1021	0	0	0	
2	0	0	0	0	543	510	1021	0	0	0	
3	0	0	0	0	547	514	1020	0	0	0	
4	0	0	0	0	553	518	1021	0	0	0	
5	0	0	0	0	558	521	1021	0	0	0	
6	0	0	0	0	563	524	1021	0	0	0	
7	0	0	0	0	566	525	1021	0	0	0	
8	0	0	0	0	567	524	1021	0	0	0	
9	0	0	0	0	566	522	1021	0	0	0	
10	0	0	0	0	562	517	1021	0	0	0	
11	0	0	0	0	556	511	1021	0	0	0	
12	0	0	0	0	547	503	1021	0	0	0	
13	0	0	0	0	536	493	1021	0	0	0	
14	0	0	0	0	524	484	1021	0	0	0	
15	0	0	0	0	513	476	1021	0	0	0	
0	0	0	0	0	504	470	1021	0	0	0	
1	0	0	0	0	496	466	1021	0	0	0	
2	0	0	0	0	492	463	1020	0	0	0	
3	0	0	0	0	490	464	1021	0	0	0	
4	0	0	0	0	492	467	1021	0	0	0	
5	0	0	0	0	497	472	1021	0	0	0	
6	0	0	0	0	506	480	1021	0	0	0	
7	0	0	0	0	517	489	1021	0	0	0	
8	0	0	0	0	529	499	1021	0	0	0	
9	0	0	0	0	543	509	1021	0	0	0	
10	0	0	0	0	556	519	1021	0	0	0	
11	0	0	0	0	568	527	1021	0	0	0	
12	0	0	0	0	578	534	1020	0	0	0	
13	0	0	0	0	586	539	1021	0	0	0	
14	0	0	0	0	590	541	1021	0	0	0	
15	0	0	0	0	592	542	1021	0	0	0	
0	0	0	0	0	591	541	1021	0	0	0	
1	0	0	0	0	588	539	1020	0	0	0	
2	0	0	0	0	583	536	1021	0	0	0	
3	0	0	0	0	576	531	1021	0	0	0	
4	0	0	0	0	570	527	1020	0	0	0	
5	0	0	0	0	563	524	1021	0	0	0	
6	0	0	0	0	556	520	1020	0	0	0	
7	0	0	0	0	551	518	1021	0	0	0	
8	0	0	0	0	547	515	1021	0	0	0	
9	0	0	0	0	543	513	1021	0	0	0	
10	0	0	0	0	540	511	1020	0	0	0	
11	0	0	0	0	538	510	1021	0	0	0	
12	0	0	0	0	537	508	1021	0	0	0	
13	0	0	0	0	536	506	1021	0	0	0	
14	0	0	0	0	536	504	1021	0	0	0	
15	0	0	0	0	536	502	1021	0	0	0	
0	0	0	0	0	536	500	1020	0	0	0	
1	0	0	0	0	537	498	1021	0	0	0	
2	0	0	0	0	538	497	1021	0	0	0	
3	0	0	0	0	539	496	1021	0	0	0	
4	0	0	0	0	541	495	1020	0	0	0	
5	0	0	0	0	542	496	1021	0	0	0	
6	0	0	0	0	544	497	1021	0	0	0	
7	0	0	0	0	546	499	1021	0	0	0	
8	0	0	0	0	547	502	1021	0	0	0	
9	0	0	0	0	548	504	1021	0	0	0	
10	0	0	0	0	548	505	1020	0	0	0	
11	0	0	0	0	548	507	1021	0	0	0	
12	0	0	0	0	547	507	1021	0	0	0	
13	0	0	0	0	544	507	1021	0	0	0	
14	0	0	0	0	541	505	1021	0	0	0	
15	0	0	0	0	537	503	1021	0	0	0	
0	0	0	0	0	534	500	1021	0	0	0	
1	0	0	0	0	531	497	1021	0	0	0	
2	0	0	0	0	528	494	1021	0	0	0	
3	0	0	0	0	527	491	1021	0	0	0	
4	0	0	0	0	525	489	1021	0	0	0	
5	0	0	0	0	525	487	1021	0	0	0	
6	0	0	0	0	526	487	1021	0	0	0	
7	0	0	0	0	527	487	1021	0	0	0	
8	0	0	0	0	529	488	1021	0	0	0	
9	0	0	0	0	531	491	1021	0	0	0	
10	0	0	0	0	534	493	1021	0	0	0	
11	0	0	0	0	537	496	1021	0	0	0	
12	0	0	0	0	540	499	1021	0	0	0	
13	0	0	0	0	543	502	1021	0	0	0	
14	0	0	0	0	546	505	1021	0	0	0	
15	0	0	0	0	548	508	1021	0	0	0	
0	0	0	0	0	551	511	1021	0	0	0	
1	0	0	0	0	552	513	1021	0	0	0	
2	0	0	0	0	552	514	1021	0	0	0	
3	0	0	0	0	552	515	1021	0	0	0	
4	0	0	0	0	552	514	1021	0	0	0	
5	0	0	0	0	551	513	1021	0	0	0	
6	0	0	0	0	550	512	1021	0	0	0	
7	0	0	0	0	547	510	1021	0	0	0	
8	0	0	0	0	545	508	1021	0	0	0	
9	0	0	0	0	543	504	1021	0	0	0	
10	0	0	0	0	539	500	1021	0	0	0	
11	0	0	0	0	534	496	1021	0	0	0	
12	0	0	0	0	529	492	1021	0	0	0	
13	0	0	0	0	524	487	1021	0	0	0	
14	0	0	0	0	519	483	1021	0	0	0	
15	0	0	0	0	513	478	1021	0	0	0	
0	0	0	0	0	509	474	1021	0	0	0	
1	0	0	0	0	504	470	1021	0	0	0	
2	0	0	0	0	500	467	1021	0	0	0	
3	0	0	0	0	498	464	1021	0	0	0	
4	0	0	0	0	497	463	1021	0	0	0	
5	0	0	0	0	497	462	1021	0	0	0	
6	0	0	0	0	499	463	1021	0	0	0	
7	0	0	0	0	502	465	1021	0	0	0	
8	0	0	0	0	507	468	1021	0	0	0	
9	0	0	0	0	513	473	1021	0	0	0	
10	0	0	0	0	520	479	1021	0	0	0	
11	0	0	0	0	528	486	1020	0	0	0	
12	0	0	0	0	536	492	1021	0	0	0	
13	0	0	0	0	543	498	1021	0	0	0	
14	0	0	0	0	551	504	1021	0	0	0	
15	0	0	0	0	557	510	1021	0	0	0	
0	0	0	0	0	562	515	1021	0	0	0	
1	0	0	0	0	566	519	1021	0	0	0	
2	0	0	0	0	568	523	1021	0	0	0	
3	0	0	0	0	571	526	1021	0	0	0	
4	0	0	0	0	572	527	1021	0	0	0	
5	0	0	0	0	572	529	1021	0	0	0	
6	0	0	0	0	571	529	1020	0	0	0	
7	0	0	0	0	569	529	1021	0	0	0	
8	0	0	0	0	567	527	1021	0	0	0	
9	0	0	0	0	563	525	1021	0	0	0	
10	0	0	0	0	559	521	1021	0	0	0	
11	0	0	0	0	554	517	1021	0	0	0	
12	0	0	0	0	549	512	1021	0	0	0	
13	0	0	0	0	543	507	1021	0	0	0	
14	0	0	0	0	537	501	1021	0	0	0	
15	0	0	0	0	531	495	1021	0	0	0	
0	0	0	0	0	526	489	1021	0	0	0	
1	0	0	0	0	520	484	1021	0	0	0	
2	0	0	0	0	515	478	1021	0	0	0	
3	0	0	0	0	510	472	1021	0	0	0	
4	0	0	0	0	504	467	1021	0	0	0	
5	0	0	0	0	501	464	1021	0	0	0	
6	0	0	0	0	499	461	1021	0	0	0	
7	0	0	0	0	498	460	1021	0	0	0	
8	0	0	0	0	499	461	1021	0	0	0	
9	0	0	0	0	502	463	1021	0	0	0	
10	0	0	0	0	507	467	1021	0	0	0	
11	0	0	0	0	512	472	1021	0	0	0	
12	0	0	0	0	519	479	1021	0	0	0	
13	0	0	0	0	527	486	1021	0	0	0	
14	0	0	0	0	535	493	1021	0	0	0	
15	0	0	0	0	543	499	1021	0	0	0	
0	0	0	0	0	548	505	1021	0	0	0	
1	0	0	0	0	553	509	1021	0	0	0	
2	0	0	0	0	555	511	1021	0	0	0	
3	0	0	0	0	555	511	1021	0	0	0	
4	0	0	0	0	553	509	1021	0	0	0	
5	0	0	0	0	550	506	1021	0	0	0	
6	0	0	0	0	546	503	1021	0	0	0	
7	0	0	0	0	541	498	1021	0	0	0	
8	0	0	0	0	535	494	1021	0	0	0	
9	0	0	0	0	530	489	1021	0	0	0	
10	0	0	0	0	525	486	1021	0	0	0	
11	0	0	0	0	520	483	1021	0	0	0	
12	0	0	0	0	517	480	1021	0	0	0	
13	0	0	0	0	514	479	1021	0	0	0	
14	0	0	0	0	512	478	1021	0	0	0	
15	0	0	0	0	512	478	1021	0	0	0	
0	0	0	0	0	511	478	1021	0	0	0	
1	0	0	0	0	512	479	1021	0	0	0	
2	0	0	0	0	513	479	1021	0	0	0	
3	0	0	0	0	515	480	1021	0	0	0	
4	0	0	0	0	516	481	1021	0	0	0	
5	0	0	0	0	518	481	1021	0	0	0	
6	0	0	0	0	519	481	1021	0	0	0	
7	0	0	0	0	519	480	1021	0	0	0	
8	0	0	0	0	520	479	1021	0	0	0	
9	0	0	0	0	520	479	1021	0	0	0	
10	0	0	0	0	520	478	1021	0	0	0	
11	0	0	0	0	521	477	1021	0	0	0	
12	0	0	0	0	523	478	1021	0	0	0	
13	0	0	0	0	524	479	1020	0	0	0	
14	0	0	0	0	527	481	1021	0	0	0	
15	0	0	0	0	530	485	1021	0	0	0	
0	0	0	0	0	533	487	1021	0	0	0	
1	0	0	0	0	536	491	1021	0	0	0	
2	0	0	0	0	539	495	1021	0	0	0	
3	0	0	0	0	542	497	1021	0	0	0	
4	0	0	0	0	544	500	1021	0	0	0	
5	0	0	0	0	545	502	1021	0	0	0	
6	0	0	0	0	546	502	1021	0	0	0	
7	0	0	0	0	545	502	1021	0	0	0	
8	0	0	0	0	545	501	1021	0	0	0	
9	0	0	0	0	543	500	1021	0	0	0	
10	0	0	0	0	541	498	1021	0	0	0	
11	0	0	0	0	540	496	1021	0	0	0	
12	0	0	0	0	537	495	1020	0	0	0	
13	0	0	0	0	535	492	1021	0	0	0	
14	0	0	0	0	533	491	1021	0	0	0	
15	0	0	0	0	532	490	1021	0	0	0	
0	0	0	0	0	531	489	1021	0	0	0	
1	0	0	0	0	531	489	1021	0	0	0	
2	0	0	0	0	531	491	1021	0	0	0	
3	0	0	0	0	534	493	1021	0	0	0	
4	0	0	0	0	536	495	1021	0	0	0	
5	0	0	0	0	540	498	1021	0	0	0	
6	0	0	0	0	543	501	1021	0	0	0	
7	0	0	0	0	546	504	1021	0	0	0	
8	0	0	0	0	548	506	1021	0	0	0	
9	0	0	0	0	549	507	1021	0	0	0	
10	0	0	0	0	548	505	1021	0	0	0	
11	0	0	0	0	546	503	1021	0	0	0	
12	0	0	0	0	542	498	1021	0	0	0	
13	0	0	0	0	536	493	1021	0	0	0	
14	0	0	0	0	529	487	1021	0	0	0	
15	0	0	0	0	522	480	1021	0	0	0	
0	0	0	0	0	515	474	1021	0	0	0	
1	0	0	0	0	508	468	1021	0	0	0	
2	0	0	0	0	503	464	1021	0	0	0	
3	0	0	0	0	499	461	1021	0	0	0	
4	0	0	0	0	496	460	1021	0	0	0	
5	0	0	0	0	496	460	1021	0	0	0	
6	0	0	0	0	497	461	1021	0	0	0	
7	0	0	0	0	499	463	1021	0	0	0	
8	0	0	0	0	503	467	1021	0	0	0	
9	0	0	0	0	508	470	1021	0	0	0	
10	0	0	0	0	512	473	1020	0	0	0	
11	0	0	0	0	517	477	1021	0	0	0	
12	0	0	0	0	522	481	1021	0	0	0	
13	0	0	0	0	526	484	1021	0	0	0	
14	0	0	0	0	530	486	1021	0	0	0	
15	0	0	0	0	532	488	1021	0	0	0	
0	0	0	0	0	534	489	1021	0	0	0	
1	0	0	0	0	535	489	1021	0	0	0	
2	0	0	0	0	535	489	1021	0	0	0	
3	0	0	0	0	535	490	1021	0	0	0	
4	0	0	0	0	536	490	1021	0	0	0	
5	0	0	0	0	536	491	1021	0	0	0	
6	0	0	0	0	537	492	1021	0	0	0	
7	0	0	0	0	538	494	1021	0	0	0	
8	0	0	0	0	539	495	1021	0	0	0	
9	0	0	0	0	539	496	1021	0	0	0	
10	0	0	0	0	539	496	1021	0	0	0	
11	0	0	0	0	537	495	1021	0	0	0	
12	0	0	0	0	534	492	1021	0	0	0	
13	0	0	0	0	530	489	1021	0	0	0	
14	0	0	0	0	526	485	1021	0	0	0	
15	0	0	0	0	521	480	1021	0	0	0	
0	0	0	0	0	515	476	1021	0	0	0	
1	0	0	0	0	510	472	1021	0	0	0	
2	0	0	0	0	504	467	1021	0	0	0	
3	0	0	0	0	500	463	1021	0	0	0	
4	0	0	0	0	496	460	1021	0	0	0	
5	0	0	0	0	493	456	1021	0	0	0	
6	0	0	0	0	490	454	1021	0	0	0	
7	0	0	0	0	489	451	1021	0	0	0	
8	0	0	0	0	488	450	1021	0	0	0	
9	0	0	0	0	488	449	1021	0	0	0	
10	0	0	0	0	489	449	1021	0	0	0	
11	0	0	0	0	491	450	1021	0	0	0	
12	0	0	0	0	493	451	1021	0	0	0	
13	0	0	0	0	495	453	1020	0	0	0	
14	0	0	0	0	499	456	1021	0	0	0	
15	0	0	0	0	502	459	1021	0	0	0	
0	0	0	0	0	506	463	1021	0	0	0	
1	0	0	0	0	510	467	1020	0	0	0	
2	0	0	0	0	514	471	1021	0	0	0	
3	0	0	0	0	519	476	1021	0	0	0	
4	0	0	0	0	522	480	1021	0	0	0	
5	0	0	0	0	526	483	1021	0	0	0	
6	0	0	0	0	528	486	1021	0	0	0	
7	0	0	0	0	530	487	1021	0	0	0	
8	0	0	0	0	531	489	1021	0	0	0	
9	0	0	0	0	531	489	1021	0	0	0	
10	0	0	0	0	531	488	1021	0	0	0	
11	0	0	0	0	531	487	1021	0	0	0	
12	0	0	0	0	530	487	1020	0	0	0	
13	0	0	0	0	532	489	1021	0	0	0	
14	0	0	0	0	535	491	1021	0	0	0	
15	0	0	0	0	538	494	1021	0	0	0	
0	0	0	0	0	543	497	1021	0	0	0	
1	0	0	0	0	547	502	1021	0	0	0	
2	0	0	0	0	552	506	1021	0	0	0	
3	0	0	0	0	556	510	1021	0	0	0	
4	0	0	0	0	558	512	1021	0	0	0	
5	0	0	0	0	560	513	1021	0	0	0	
6	0	0	0	0	558	513	1021	0	0	0	
7	0	0	0	0	556	512	1021	0	0	0	
8	0	0	0	0	553	511	1021	0	0	0	
9	0	0	0	0	547	507	1021	0	0	0	
10	0	0	0	0	542	503	1021	0	0	0	
11	0	0	0	0	535	498	1021	0	0	0	
12	0	0	0	0	529	494	1021	0	0	0	
13	0	0	0	0	524	489	1021	0	0	0	
14	0	0	0	0	519	486	1021	0	0	0	
15	0	0	0	0	515	482	1021	0	0	0	
0	0	0	0	0	514	480	1021	0	0	0	
1	0	0	0	0	513	478	1021	0	0	0	
2	0	0	0	0	513	477	1021	0	0	0	
3	0	0	0	0	513	476	1021	0	0	0	
4	0	0	0	0	513	474	1021	0	0	0	
5	0	0	0	0	513	472	1021	0	0	0	
6	0	0	0	0	512	471	1021	0	0	0	
7	0	0	0	0	511	468	1021	0	0	0	
8	0	0	0	0	510	467	1021	0	0	0	
9	0	0	0	0	507	464	1021	0	0	0	
10	0	0	0	0	505	462	1021	0	0	0	
11	0	0	0	0	502	460	1021	0	0	0	
12	0	0	0	0	500	459	1021	0	0	0	
13	0	0	0	0	498	458	1021	0	0	0	
14	0	0	0	0	496	458	1021	0	0	0	
15	0	0	0	0	496	458	1021	0	0	0	
0	0	0	0	0	496	459	1021	0	0	0	
1	0	0	0	0	497	460	1021	0	0	0	
2	0	0	0	0	499	460	1021	0	0	0	
3	0	0	0	0	500	461	1021	0	0	0	
4	0	0	0	0	503	462	1021	0	0	0	
5	0	0	0	0	504	462	1021	0	0	0	
6	0	0	0	0	506	463	1021	0	0	0	
7	0	0	0	0	508	463	1021	0	0	0	
8	0	0	0	0	508	463	1021	0	0	0	
9	0	0	0	0	510	463	1021	0	0	0	
10	0	0	0	0	511	463	1021	0	0	0	
11	0	0	0	0	512	464	1021	0	0	0	
12	0	0	0	0	513	466	1021	0	0	0	
13	0	0	0	0	514	468	1021	0	0	0	
14	0	0	0	0	515	470	1021	0	0	0	
15	0	0	0	0	517	473	1021	0	0	0	
0	0	0	0	0	519	475	1021	0	0	0	
1	0	0	0	0	520	477	1021	0	0	0	
2	0	0	0	0	520	479	1021	0	0	0	
3	0	0	0	0	521	480	1021	0	0	0	
4	0	0	0	0	520	479	1021	0	0	0	
5	0	0	0	0	519	478	1021	0	0	0	
6	0	0	0	0	517	476	1021	0	0	0	
7	0	0	0	0	515	473	1021	0	0	0	
8	0	0	0	0	513	472	1021	0	0	0	
9	0	0	0	0	511	470	1021	0	0	0	
10	0	0	0	0	511	469	1021	0	0	0	
11	0	0	0	0	511	469	1021	0	0	0	
12	0	0	0	0	512	469	1021	0	0	0	
13	0	0	0	0	514	471	1021	0	0	0	
14	0	0	0	0	517	473	1021	0	0	0	
15	0	0	0	0	519	475	1021	0	0	0	
0	0	0	0	0	522	476	1021	0	0	0	
1	0	0	0	0	522	477	1021	0	0	0	
2	0	0	0	0	522	476	1021	0	0	0	
3	0	0	0	0	519	474	1021	0	0	0	
4	0	0	0	0	515	470	1021	0	0	0	
5	0	0	0	0	509	465	1021	0	0	0	
6	0	0	0	0	501	458	1021	0	0	0	
7	0	0	0	0	493	451	1021	0	0	0	
8	0	0	0	0	485	444	1021	0	0	0	
9	0	0	0	0	477	437	1021	0	0	0	
10	0	0	0	0	471	431	1021	0	0	0	
11	0	0	0	0	467	427	1021	0	0	0	
12	0	0	0	0	465	425	1021	0	0	0	
13	0	0	0	0	467	425	1021	0	0	0	
14	0	0	0	0	471	428	1021	0	0	0	
15	0	0	0	0	477	433	1021	0	0	0	
0	0	0	0	0	486	440	1021	0	0	0	
1	0	0	0	0	497	449	1021	0	0	0	
2	0	0	0	0	509	460	1021	0	0	0	
3	0	0	0	0	521	470	1021	0	0	0	
4	0	0	0	0	534	481	1021	0	0	0	
5	0	0	0	0	545	492	1021	0	0	0	
6	0	0	0	0	556	501	1021	0	0	0	
7	0	0	0	0	564	510	1021	0	0	0	
8	0	0	0	0	571	517	1021	0	0	0	
9	0	0	0	0	577	523	1021	0	0	0	
10	0	0	0	0	580	527	1021	0	0	0	
11	0	0	0	0	583	529	1021	0	0	0	
12	0	0	0	0	583	531	1021	0	0	0	
13	0	0	0	0	582	531	1021	0	0	0	
14	0	0	0	0	580	530	1021	0	0	0	
15	0	0	0	0	576	527	1021	0	0	0	
0	0	0	0	0	570	523	1021	0	0	0	
1	0	0	0	0	563	517	1021	0	0	0	
2	0	0	0	0	553	509	1021	0	0	0	
3	0	0	0	0	543	499	1021	0	0	0	
4	0	0	0	0	531	489	1021	0	0	0	
5	0	0	0	0	518	478	1021	0	0	0	
6	0	0	0	0	507	467	1021	0	0	0	
7	0	0	0	0	497	458	1021	0	0	0	
8	0	0	0	0	488	450	1021	0	0	0	
9	0	0	0	0	483	445	1021	0	0	0	
10	0	0	0	0	480	441	1020	0	0	0	
11	0	0	0	0	480	440	1021	0	0	0	
12	0	0	0	0	481	441	1021	0	0	0	
13	0	0	0	0	486	444	1021	0	0	0	
14	0	0	0	0	492	448	1021	0	0	0	
15	0	0	0	0	499	453	1020	0	0	0	
0	0	0	0	0	507	458	1021	0	0	0	
1	0	0	0	0	514	463	1021	0	0	0	
2	0	0	0	0	520	467	1021	0	0	0	
3	0	0	0	0	526	471	1021	0	0	0	
4	0	0	0	0	530	473	1021	0	0	0	
5	0	0	0	0	532	476	1021	0	0	0	
6	0	0	0	0	534	477	1021	0	0	0	
7	0	0	0	0	533	477	1021	0	0	0	
8	0	0	0	0	530	476	1021	0	0	0	
9	0	0	0	0	527	473	1021	0	0	0	
10	0	0	0	0	521	471	1021	0	0	0	
11	0	0	0	0	515	467	1021	0	0	0	
12	0	0	0	0	509	463	1021	0	0	0	
13	0	0	0	0	504	459	1021	0	0	0	
14	0	0	0	0	498	455	1021	0	0	0	
15	0	0	0	0	493	451	1021	0	0	0	
0	0	0	0	0	490	448	1021	0	0	0	
1	0	0	0	0	487	447	1021	0	0	0	
2	0	0	0	0	487	445	1021	0	0	0	
3	0	0	0	0	487	445	1021	0	0	0	
4	0	0	0	0	490	446	1021	0	0	0	
5	0	0	0	0	493	449	1021	0	0	0	
6	0	0	0	0	498	452	1021	0	0	0	
7	0	0	0	0	503	456	1021	0	0	0	
8	0	0	0	0	508	460	1021	0	0	0	
9	0	0	0	0	513	464	1021	0	0	0	
10	0	0	0	0	518	467	1021	0	0	0	
11	0	0	0	0	521	470	1021	0	0	0	
12	0	0	0	0	523	472	1021	0	0	0	
13	0	0	0	0	524	472	1020	0	0	0	
14	0	0	0	0	523	472	1021	0	0	0	
15	0	0	0	0	521	472	1021	0	0	0	
0	0	0	0	0	519	470	1021	0	0	0	
1	0	0	0	0	517	469	1021	0	0	0	
2	0	0	0	0	514	467	1021	0	0	0	
3	0	0	0	0	511	464	1021	0	0	0	
4	0	0	0	0	509	463	1021	0	0	0	
5	0	0	0	0	506	460	1021	0	0	0	
6	0	0	0	0	504	459	1021	0	0	0	
7	0	0	0	0	501	456	1020	0	0	0	
8	0	0	0	0	500	455	1021	0	0	0	
9	0	0	0	0	499	454	1021	0	0	0	
10	0	0	0	0	498	453	1021	0	0	0	
11	0	0	0	0	497	452	1021	0	0	0	
12	0	0	0	0	498	452	1021	0	0	0	
13	0	0	0	0	500	453	1021	0	0	0	
14	0	0	0	0	503	455	1021	0	0	0	
15	0	0	0	0	507	458	1021	0	0	0	
0	0	0	0	0	513	463	1021	0	0	0	
1	0	0	0	0	521	470	1021	0	0	0	
2	0	0	0	0	530	479	1021	0	0	0	
3	0	0	0	0	541	489	1021	0	0	0	
4	0	0	0	0	552	499	1021	0	0	0	
5	0	0	0	0	563	509	1021	0	0	0	
6	0	0	0	0	571	518	1020	0	0	0	
7	0	0	0	0	578	525	1021	0	0	0	
8	0	0	0	0	582	529	1021	0	0	0	
9	0	0	0	0	583	530	1021	0	0	0	
10	0	0	0	0	579	528	1021	0	0	0	
11	0	0	0	0	573	523	1021	0	0	0	
12	0	0	0	0	564	515	1021	0	0	0	
13	0	0	0	0	553	506	1021	0	0	0	
14	0	0	0	0	540	494	1021	0	0	0	
15	0	0	0	0	527	482	1021	0	0	0	
0	0	0	0	0	514	471	1021	0	0	0	
1	0	0	0	0	502	459	1021	0	0	0	
2	0	0	0	0	491	449	1021	0	0	0	
3	0	0	0	0	483	442	1021	0	0	0	
4	0	0	0	0	477	436	1021	0	0	0	
5	0	0	0	0	474	433	1021	0	0	0	
6	0	0	0	0	474	432	1021	0	0	0	
7	0	0	0	0	477	434	1021	0	0	0	
8	0	0	0	0	482	438	1020	0	0	0	
9	0	0	0	0	490	443	1021	0	0	0	
10	0	0	0	0	498	449	1020	0	0	0	
11	0	0	0	0	508	456	1021	0	0	0	
12	0	0	0	0	516	463	1021	0	0	0	
13	0	0	0	0	525	470	1021	0	0	0	
14	0	0	0	0	532	475	1021	0	0	0	
15	0	0	0	0	537	479	1021	0	0	0	
0	0	0	0	0	541	481	1021	0	0	0	
1	0	0	0	0	542	481	1021	0	0	0	
2	0	0	0	0	542	480	1021	0	0	0	
3	0	0	0	0	539	478	1021	0	0	0	
4	0	0	0	0	535	475	1021	0	0	0	
5	0	0	0	0	530	471	1021	0	0	0	
6	0	0	0	0	524	467	1021	0	0	0	
7	0	0	0	0	519	463	1021	0	0	0	
8	0	0	0	0	514	460	1021	0	0	0	
9	0	0	0	0	510	457	1021	0	0	0	
10	0	0	0	0	507	455	1021	0	0	0	
11	0	0	0	0	505	455	1021	0	0	0	
12	0	0	0	0	505	455	1021	0	0	0	
13	0	0	0	0	505	455	1021	0	0	0	
14	0	0	0	0	505	456	1020	0	0	0	
15	0	0	0	0	506	457	1021	0	0	0	
0	0	0	0	0	507	458	1021	0	0	0	
1	0	0	0	0	508	459	1021	0	0	0	
2	0	0	0	0	509	459	1021	0	0	0	
3	0	0	0	0	510	460	1020	0	0	0	
4	0	0	0	0	511	460	1021	0	0	0	
5	0	0	0	0	512	460	1021	0	0	0	
6	0	0	0	0	513	461	1021	0	0	0	
7	0	0	0	0	515	461	1021	0	0	0	
8	0	0	0	0	516	462	1021	0	0	0	
9	0	0	0	0	518	463	1021	0	0	0	
10	0	0	0	0	520	463	1021	0	0	0	
11	0	0	0	0	522	465	1021	0	0	0	
12	0	0	0	0	524	466	1021	0	0	0	
13	0	0	0	0	526	467	1020	0	0	0	
14	0	0	0	0	529	470	1021	0	0	0	
15	0	0	0	0	532	472	1021	0	0	0	
0	0	0	0	0	534	474	1021	0	0	0	
1	0	0	0	0	536	476	1021	0	0	0	
2	0	0	0	0	537	477	1021	0	0	0	
3	0	0	0	0	537	478	1021	0	0	0	
4	0	0	0	0	537	478	1021	0	0	0	
5	0	0	0	0	536	477	1021	0	0	0	
6	0	0	0	0	534	476	1021	0	0	0	
7	0	0	0	0	531	474	1021	0	0	0	
8	0	0	0	0	529	472	1021	0	0	0	
9	0	0	0	0	527	470	1021	0	0	0	
10	0	0	0	0	524	468	1021	0	0	0	
11	0	0	0	0	521	465	1021	0	0	0	
12	0	0	0	0	519	463	1021	0	0	0	
13	0	0	0	0	516	460	1021	0	0	0	
14	0	0	0	0	514	458	1021	0	0	0	
15	0	0	0	0	511	455	1021	0	0	0	
0	0	0	0	0	508	452	1021	0	0	0	
1	0	0	0	0	504	448	1021	0	0	0	
2	0	0	0	0	499	444	1021	0	0	0	
3	0	0	0	0	494	439	1021	0	0	0	
4	0	0	0	0	486	431	1021	0	0	0	
5	0	0	0	0	476	423	1021	0	0	0	
6	0	0	0	0	465	413	1021	0	0	0	
7	0	0	0	0	453	402	1021	0	0	0	
8	0	0	0	0	440	390	1021	0	0	0	
9	0	0	0	0	425	376	1021	0	0	0	
10	0	0	0	0	410	363	1021	0	0	0	
11	0	0	0	0	394	348	1020	0	0	0	
12	0	0	0	0	378	333	1021	0	0	0	
13	0	0	0	0	363	318	1021	0	0	0	
14	0	0	0	0	347	302	1021	0	0	0	
15	0	0	0	0	332	287	1021	0	0	0	
0	0	0	0	0	318	272	1021	0	0	0	
1	0	0	0	0	304	258	1021	0	0	0	
2	0	0	0	0	291	244	1021	0	0	0	
3	0	0	0	0	281	233	1021	0	0	0	
4	0	0	0	0	272	223	1021	0	0	0	
5	0	0	0	0	267	216	1021	0	0	0	
6	0	0	0	0	264	212	1021	0	0	0	
7	0	0	0	0	265	211	1021	0	0	0	
8	0	0	0	0	271	215	1021	0	0	0	
9	0	0	0	0	281	223	1021	0	0	0	
10	0	0	0	0	295	235	1021	0	0	0	
11	0	0	0	0	314	251	1021	0	0	0	
12	0	0	0	0	338	271	1021	0	0	0	
13	0	0	0	0	364	294	1021	0	0	0	
14	0	0	0	0	394	320	1021	0	0	0	
15	0	0	0	0	424	348	1021	0	0	0	
0	0	0	0	0	456	377	1021	0	0	0	
1	0	0	0	0	487	406	1021	0	0	0	
2	0	0	0	0	516	434	1021	0	0	0	
3	0	0	0	0	543	459	1021	0	0	0	
4	0	0	0	0	566	482	1021	0	0	0	
5	0	0	0	0	584	500	1021	0	0	0	
6	0	0	0	0	597	515	1021	0	0	0	
7	0	0	0	0	605	526	1021	0	0	0	
8	0	0	0	0	608	531	1021	0	0	0	
9	0	0	0	0	607	533	1021	0	0	0	
10	0	0	0	0	601	532	1021	0	0	0	
11	0	0	0	0	593	527	1021	0	0	0	
12	0	0	0	0	582	521	1021	0	0	0	
13	0	0	0	0	570	514	1021	0	0	0	
14	0	0	0	0	556	505	1021	0	0	0	
15	0	0	0	0	544	496	1021	0	0	0	
0	0	0	0	0	532	487	1021	0	0	0	
1	0	0	0	0	522	479	1021	0	0	0	
2	0	0	0	0	514	472	1021	0	0	0	
3	0	0	0	0	507	465	1020	0	0	0	
4	0	0	0	0	504	460	1021	0	0	0	
5	0	0	0	0	501	456	1021	0	0	0	
6	0	0	0	0	501	453	1021	0	0	0	
7	0	0	0	0	501	451	1021	0	0	0	
8	0	0	0	0	503	450	1021	0	0	0	
9	0	0	0	0	505	449	1021	0	0	0	
10	0	0	0	0	508	450	1021	0	0	0	
11	0	0	0	0	511	451	1021	0	0	0	
12	0	0	0	0	514	452	1021	0	0	0	
13	0	0	0	0	516	454	1020	0	0	0	
14	0	0	0	0	519	456	1021	0	0	0	
15	0	0	0	0	521	459	1021	0	0	0	
0	0	0	0	0	523	461	1021	0	0	0	
1	0	0	0	0	524	463	1021	0	0	0	
2	0	0	0	0	524	464	1020	0	0	0	
3	0	0	0	0	523	466	1021	0	0	0	
4	0	0	0	0	523	467	1021	0	0	0	
5	0	0	0	0	522	468	1021	0	0	0	
6	0	0	0	0	522	469	1021	0	0	0	
7	0	0	0	0	523	470	1020	0	0	0	
8	0	0	0	0	525	472	1021	0	0	0	
9	0	0	0	0	527	475	1021	0	0	0	
10	0	0	0	0	532	478	1021	0	0	0	
11	0	0	0	0	538	482	1021	0	0	0	
12	0	0	0	0	544	486	1020	0	0	0	
13	0	0	0	0	551	491	1021	0	0	0	
14	0	0	0	0	558	496	1021	0	0	0	
15	0	0	0	0	564	500	1021	0	0	0	
0	0	0	0	0	568	503	1021	0	0	0	
1	0	0	0	0	571	504	1021	0	0	0	
2	0	0	0	0	572	505	1021	0	0	0	
3	0	0	0	0	571	504	1021	0	0	0	
4	0	0	0	0	567	501	1021	0	0	0	
5	0	0	0	0	561	497	1021	0	0	0	
6	0	0	0	0	553	492	1021	0	0	0	
7	0	0	0	0	545	486	1021	0	0	0	
8	0	0	0	0	536	479	1021	0	0	0	
9	0	0	0	0	527	473	1021	0	0	0	
10	0	0	0	0	520	468	1021	0	0	0	
11	0	0	0	0	514	463	1020	0	0	0	
12	0	0	0	0	511	460	1021	0	0	0	
13	0	0	0	0	509	457	1021	0	0	0	
14	0	0	0	0	508	457	1021	0	0	0	
15	0	0	0	0	509	456	1021	0	0	0	
0	0	0	0	0	511	457	1021	0	0	0	
1	0	0	0	0	515	458	1021	0	0	0	
2	0	0	0	0	519	460	1021	0	0	0	
3	0	0	0	0	522	462	1021	0	0	0	
4	0	0	0	0	525	463	1021	0	0	0	
5	0	0	0	0	527	465	1021	0	0	0	
6	0	0	0	0	529	467	1021	0	0	0	
7	0	0	0	0	529	467	1021	0	0	0	
8	0	0	0	0	529	467	1021	0	0	0	
9	0	0	0	0	527	467	1020	0	0	0	
10	0	0	0	0	525	466	1020	0	0	0	
11	0	0	0	0	522	465	1021	0	0	0	
12	0	0	0	0	519	464	1021	0	0	0	
13	0	0	0	0	516	463	1021	0	0	0	
14	0	0	0	0	514	462	1021	0	0	0	
15	0	0	0	0	513	462	1021	0	0	0	
0	0	0	0	0	513	462	1021	0	0	0	
1	0	0	0	0	514	463	1021	0	0	0	
2	0	0	0	0	515	463	1021	0	0	0	
3	0	0	0	0	518	464	1021	0	0	0	
4	0	0	0	0	520	465	1021	0	0	0	
5	0	0	0	0	523	466	1021	0	0	0	
6	0	0	0	0	525	467	1021	0	0	0	
7	0	0	0	0	527	467	1021	0	0	0	
8	0	0	0	0	527	468	1021	0	0	0	
9	0	0	0	0	528	468	1021	0	0	0	
10	0	0	0	0	528	468	1021	0	0	0	
11	0	0	0	0	528	469	1021	0	0	0	
12	0	0	0	0	527	470	1021	0	0	0	
13	0	0	0	0	527	471	1021	0	0	0	
14	0	0	0	0	528	472	1021	0	0	0	
15	0	0	0	0	528	474	1021	0	0	0	
0	0	0	0	0	529	476	1021	0	0	0	
1	0	0	0	0	530	477	1020	0	0	0	
2	0	0	0	0	530	478	1021	0	0	0	
3	0	0	0	0	530	478	1020	0	0	0	
4	0	0	0	0	530	477	1021	0	0	0	
5	0	0	0	0	529	476	1021	0	0	0	
6	0	0	0	0	528	474	1021	0	0	0	
7	0	0	0	0	526	471	1021	0	0	0	
8	0	0	0	0	524	468	1021	0	0	0	
9	0	0	0	0	523	465	1021	0	0	0	
10	0	0	0	0	521	463	1021	0	0	0	
11	0	0	0	0	519	460	1021	0	0	0	
12	0	0	0	0	518	458	1021	0	0	0	
13	0	0	0	0	516	456	1021	0	0	0	
14	0	0	0	0	515	456	1021	0	0	0	
15	0	0	0	0	515	456	1021	0	0	0	
0	0	0	0	0	515	457	1021	0	0	0	
1	0	0	0	0	515	458	1021	0	0	0	
2	0	0	0	0	515	460	1021	0	0	0	
3	0	0	0	0	517	461	1021	0	0	0	
4	0	0	0	0	518	463	1021	0	0	0	
5	0	0	0	0	519	465	1021	0	0	0	
6	0	0	0	0	520	466	1021	0	0	0	
7	0	0	0	0	521	467	1021	0	0	0	
8	0	0	0	0	521	467	1021	0	0	0	
9	0	0	0	0	522	467	1021	0	0	0	
10	0	0	0	0	522	465	1021	0	0	0	
11	0	0	0	0	521	464	1021	0	0	0	
12	0	0	0	0	522	464	1021	0	0	0	
13	0	0	0	0	522	463	1021	0	0	0	
14	0	0	0	0	523	463	1021	0	0	0	
15	0	0	0	0	524	463	1021	0	0	0	
0	0	0	0	0	524	464	1021	0	0	0	
1	0	0	0	0	525	465	1021	0	0	0	
2	0	0	0	0	526	466	1021	0	0	0	
3	0	0	0	0	526	467	1021	0	0	0	
4	0	0	0	0	526	467	1021	0	0	0	
5	0	0	0	0	525	467	1021	0	0	0	
6	0	0	0	0	524	466	1021	0	0	0	
7	0	0	0	0	521	465	1021	0	0	0	
8	0	0	0	0	519	463	1021	0	0	0	
9	0	0	0	0	516	462	1021	0	0	0	
10	0	0	0	0	513	460	1021	0	0	0	
11	0	0	0	0	511	459	1021	0	0	0	
12	0	0	0	0	509	458	1021	0	0	0	
13	0	0	0	0	508	457	1021	0	0	0	
14	0	0	0	0	507	457	1021	0	0	0	
15	0	0	0	0	507	457	1021	0	0	0	
0	0	0	0	0	508	458	1021	0	0	0	
1	0	0	0	0	509	459	1021	0	0	0	
2	0	0	0	0	510	461	1021	0	0	0	
3	0	0	0	0	512	463	1021	0	0	0	
4	0	0	0	0	514	464	1021	0	0	0	
5	0	0	0	0	517	467	1021	0	0	0	
6	0	0	0	0	519	467	1021	0	0	0	
7	0	0	0	0	520	468	1021	0	0	0	
8	0	0	0	0	521	468	1021	0	0	0	
9	0	0	0	0	520	467	1021	0	0	0	
10	0	0	0	0	520	466	1021	0	0	0	
11	0	0	0	0	518	464	1021	0	0	0	
12	0	0	0	0	517	463	1021	0	0	0	
13	0	0	0	0	515	461	1021	0	0	0	
14	0	0	0	0	513	460	1021	0	0	0	
15	0	0	0	0	511	458	1021	0	0	0	
0	0	0	0	0	510	457	1021	0	0	0	
1	0	0	0	0	510	457	1021	0	0	0	
2	0	0	0	0	511	457	1021	0	0	0	
3	0	0	0	0	512	459	1021	0	0	0	
4	0	0	0	0	515	460	1021	0	0	0	
5	0	0	0	0	518	463	1021	0	0	0	
6	0	0	0	0	522	467	1021	0	0	0	
7	0	0	0	0	526	470	1021	0	0	0	
8	0	0	0	0	529	473	1021	0	0	0	
9	0	0	0	0	532	476	1021	0	0	0	
10	0	0	0	0	534	479	1021	0	0	0	
11	0	0	0	0	536	481	1021	0	0	0	
12	0	0	0	0	536	482	1021	0	0	0	
13	0	0	0	0	535	483	1021	0	0	0	
14	0	0	0	0	534	483	1021	0	0	0	
15	0	0	0	0	531	482	1021	0	0	0	
0	0	0	0	0	529	480	1021	0	0	0	
1	0	0	0	0	526	478	1021	0	0	0	
2	0	0	0	0	522	475	1021	0	0	0	
3	0	0	0	0	519	472	1021	0	0	0	
4	0	0	0	0	515	469	1021	0	0	0	
5	0	0	0	0	513	466	1021	0	0	0	
6	0	0	0	0	510	463	1021	0	0	0	
7	0	0	0	0	508	460	1021	0	0	0	
8	0	0	0	0	508	459	1021	0	0	0	
9	0	0	0	0	508	457	1021	0	0	0	
10	0	0	0	0	508	457	1021	0	0	0	
11	0	0	0	0	511	457	1021	0	0	0	
12	0	0	0	0	513	459	1021	0	0	0	
13	0	0	0	0	516	460	1021	0	0	0	
14	0	0	0	0	519	463	1021	0	0	0	
15	0	0	0	0	523	466	1021	0	0	0	
0	0	0	0	0	526	469	1021	0	0	0	
1	0	0	0	0	529	472	1021	0	0	0	
2	0	0	0	0	532	475	1021	0	0	0	
3	0	0	0	0	534	477	1021	0	0	0	
4	0	0	0	0	536	479	1021	0	0	0	
5	0	0	0	0	536	480	1021	0	0	0	
6	0	0	0	0	536	480	1021	0	0	0	
7	0	0	0	0	535	480	1021	0	0	0	
8	0	0	0	0	535	480	1021	0	0	0	
9	0	0	0	0	534	480	1021	0	0	0	
10	0	0	0	0	534	480	1021	0	0	0	
11	0	0	0	0	534	479	1021	0	0	0	
12	0	0	0	0	535	480	1021	0	0	0	
13	0	0	0	0	535	480	1021	0	0	0	
14	0	0	0	0	536	480	1021	0	0	0	
15	0	0	0	0	536	480	1021	0	0	0	
0	0	0	0	0	536	480	1021	0	0	0	
1	0	0	0	0	536	480	1021	0	0	0	
2	0	0	0	0	536	479	1021	0	0	0	
3	0	0	0	0	536	479	1021	0	0	0	
4	0	0	0	0	534	477	1021	0	0	0	
5	0	0	0	0	532	476	1021	0	0	0	
6	0	0	0	0	530	474	1021	0	0	0	
7	0	0	0	0	527	472	1021	0	0	0	
8	0	0	0	0	524	469	1021	0	0	0	
9	0	0	0	0	520	466	1021	0	0	0	
10	0	0	0	0	515	462	1021	0	0	0	
11	0	0	0	0	511	459	1021	0	0	0	
12	0	0	0	0	506	455	1021	0	0	0	
13	0	0	0	0	502	451	1021	0	0	0	
14	0	0	0	0	498	448	1021	0	0	0	
15	0	0	0	0	496	445	1021	0	0	0	
0	0	0	0	0	495	444	1021	0	0	0	
1	0	0	0	0	496	445	1021	0	0	0	
2	0	0	0	0	500	447	1021	0	0	0	
3	0	0	0	0	505	449	1021	0	0	0	
4	0	0	0	0	511	454	1020	0	0	0	
5	0	0	0	0	519	460	1021	0	0	0	
6	0	0	0	0	527	466	1021	0	0	0	
7	0	0	0	0	536	473	1021	0	0	0	
8	0	0	0	0	543	480	1021	0	0	0	
9	0	0	0	0	550	486	1020	0	0	0	
10	0	0	0	0	554	491	1021	0	0	0	
11	0	0	0	0	556	493	1021	0	0	0	
12	0	0	0	0	555	494	1021	0	0	0	
13	0	0	0	0	551	492	1021	0	0	0	
14	0	0	0	0	545	488	1021	0	0	0	
15	0	0	0	0	537	483	1020	0	0	0	
0	0	0	0	0	528	476	1021	0	0	0	
1	0	0	0	0	519	469	1021	0	0	0	
2	0	0	0	0	511	462	1021	0	0	0	
3	0	0	0	0	503	455	1020	0	0	0	
4	0	0	0	0	496	449	1021	0	0	0	
5	0	0	0	0	492	445	1021	0	0	0	
6	0	0	0	0	491	443	1021	0	0	0	
7	0	0	0	0	491	443	1021	0	0	0	
8	0	0	0	0	493	444	1020	0	0	0	
9	0	0	0	0	498	447	1021	0	0	0	
10	0	0	0	0	504	451	1021	0	0	0	
11	0	0	0	0	510	455	1021	0	0	0	
12	0	0	0	0	516	460	1021	0	0	0	
13	0	0	0	0	523	465	1021	0	0	0	
14	0	0	0	0	528	470	1020	0	0	0	
15	0	0	0	0	533	473	1021	0	0	0	
0	0	0	0	0	536	476	1021	0	0	0	
1	0	0	0	0	537	476	1021	0	0	0	
2	0	0	0	0	537	477	1020	0	0	0	
3	0	0	0	0	536	475	1020	0	0	0	
4	0	0	0	0	533	473	1021	0	0	0	
5	0	0	0	0	529	470	1021	0	0	0	
6	0	0	0	0	526	467	1021	0	0	0	
7	0	0	0	0	521	464	1021	0	0	0	
8	0	0	0	0	518	461	1021	0	0	0	
9	0	0	0	0	516	460	1021	0	0	0	
10	0	0	0	0	514	458	1021	0	0	0	
11	0	0	0	0	513	457	1021	0	0	0	
12	0	0	0	0	512	457	1021	0	0	0	
13	0	0	0	0	511	456	1020	0	0	0	
14	0	0	0	0	511	457	1021	0	0	0	
15	0	0	0	0	512	458	1021	0	0	0	
0	0	0	0	0	512	459	1021	0	0	0	
1	0	0	0	0	513	460	1021	0	0	0	
2	0	0	0	0	515	462	1021	0	0	0	
3	0	0	0	0	516	464	1021	0	0	0	
4	0	0	0	0	518	466	1021	0	0	0	
5	0	0	0	0	520	467	1021	0	0	0	
6	0	0	0	0	522	469	1021	0	0	0	
7	0	0	0	0	524	470	1020	0	0	0	
8	0	0	0	0	526	471	1021	0	0	0	
9	0	0	0	0	528	472	1021	0	0	0	
10	0	0	0	0	530	473	1021	0	0	0	
11	0	0	0	0	531	473	1021	0	0	0	
12	0	0	0	0	532	473	1021	0	0	0	
13	0	0	0	0	533	472	1021	0	0	0	
14	0	0	0	0	533	472	1021	0	0	0	
15	0	0	0	0	533	471	1021	0	0	0	
0	0	0	0	0	532	470	1021	0	0	0	
1	0	0	0	0	531	469	1021	0	0	0	
2	0	0	0	0	529	467	1021	0	0	0	
3	0	0	0	0	527	466	1021	0	0	0	
4	0	0	0	0	524	465	1021	0	0	0	
5	0	0	0	0	520	463	1020	0	0	0	
6	0	0	0	0	516	462	1021	0	0	0	
7	0	0	0	0	512	460	1021	0	0	0	
8	0	0	0	0	509	458	1021	0	0	0	
9	0	0	0	0	506	456	1020	0	0	0	
10	0	0	0	0	503	454	1021	0	0	0	
11	0	0	0	0	500	452	1020	0	0	0	
12	0	0	0	0	499	451	1021	0	0	0	
13	0	0	0	0	499	449	1021	0	0	0	
14	0	0	0	0	499	449	1021	0	0	0	
15	0	0	0	0	500	449	1021	0	0	0	
0	0	0	0	0	503	450	1021	0	0	0	
1	0	0	0	0	506	451	1021	0	0	0	
2	0	0	0	0	510	454	1021	0	0	0	
3	0	0	0	0	514	456	1021	0	0	0	
4	0	0	0	0	518	459	1021	0	0	0	
5	0	0	0	0	521	462	1021	0	0	0	
6	0	0	0	0	524	463	1021	0	0	0	
7	0	0	0	0	525	464	1021	0	0	0	
8	0	0	0	0	525	465	1021	0	0	0	
9	0	0	0	0	525	466	1021	0	0	0	
10	0	0	0	0	523	466	1021	0	0	0	
11	0	0	0	0	522	466	1021	0	0	0	
12	0	0	0	0	520	465	1021	0	0	0	
13	0	0	0	0	519	464	1021	0	0	0	
14	0	0	0	0	516	462	1021	0	0	0	
15	0	0	0	0	513	460	1021	0	0	0	
0	0	0	0	0	511	457	1021	0	0	0	
1	0	0	0	0	508	455	1021	0	0	0	
2	0	0	0	0	505	452	1021	0	0	0	
3	0	0	0	0	504	450	1021	0	0	0	
4	0	0	0	0	502	448	1021	0	0	0	
5	0	0	0	0	500	447	1021	0	0	0	
6	0	0	0	0	500	446	1021	0	0	0	
7	0	0	0	0	500	446	1021	0	0	0	
8	0	0	0	0	500	445	1021	0	0	0	
9	0	0	0	0	501	446	1021	0	0	0	
10	0	0	0	0	503	447	1021	0	0	0	
11	0	0	0	0	504	448	1021	0	0	0	
12	0	0	0	0	505	450	1021	0	0	0	
13	0	0	0	0	507	451	1021	0	0	0	
14	0	0	0	0	507	451	1021	0	0	0	
15	0	0	0	0	508	452	1021	0	0	0	
0	0	0	0	0	508	452	1021	0	0	0	
1	0	0	0	0	508	452	1021	0	0	0	
2	0	0	0	0	509	453	1021	0	0	0	
3	0	0	0	0	511	454	1021	0	0	0	
4	0	0	0	0	513	456	1021	0	0	0	
5	0	0	0	0	518	460	1021	0	0	0	
6	0	0	0	0	523	464	1021	0	0	0	
7	0	0	0	0	529	469	1021	0	0	0	
8	0	0	0	0	536	475	1021	0	0	0	
9	0	0	0	0	543	481	1021	0	0	0	
10	0	0	0	0	551	488	1021	0	0	0	
11	0	0	0	0	559	495	1021	0	0	0	
12	0	0	0	0	566	501	1021	0	0	0	
13	0	0	0	0	572	507	1021	0	0	0	
14	0	0	0	0	575	510	1021	0	0	0	
15	0	0	0	0	576	511	1021	0	0	0	
0	0	0	0	0	573	510	1021	0	0	0	
1	0	0	0	0	566	505	1021	0	0	0	
2	0	0	0	0	556	498	1021	0	0	0	
3	0	0	0	0	543	488	1021	0	0	0	
4	0	0	0	0	529	477	1021	0	0	0	
5	0	0	0	0	513	464	1021	0	0	0	
6	0	0	0	0	497	452	1021	0	0	0	
7	0	0	0	0	483	439	1021	0	0	0	
8	0	0	0	0	470	428	1021	0	0	0	
9	0	0	0	0	460	419	1021	0	0	0	
10	0	0	0	0	452	411	1021	0	0	0	
11	0	0	0	0	447	405	1021	0	0	0	
12	0	0	0	0	444	401	1021	0	0	0	
13	0	0	0	0	445	399	1021	0	0	0	
14	0	0	0	0	449	400	1021	0	0	0	
15	0	0	0	0	455	403	1021	0	0	0	
0	0	0	0	0	463	408	1021	0	0	0	
1	0	0	0	0	472	415	1021	0	0	0	
2	0	0	0	0	483	422	1021	0	0	0	
3	0	0	0	0	493	430	1021	0	0	0	
4	0	0	0	0	503	439	1021	0	0	0	
5	0	0	0	0	512	447	1020	0	0	0	
6	0	0	0	0	520	455	1021	0	0	0	
7	0	0	0	0	527	462	1021	0	0	0	
8	0	0	0	0	531	468	1021	0	0	0	
9	0	0	0	0	534	472	1021	0	0	0	
10	0	0	0	0	536	476	1021	0	0	0	
11	0	0	0	0	534	477	1021	0	0	0	
12	0	0	0	0	533	478	1021	0	0	0	
13	0	0	0	0	530	478	1021	0	0	0	
14	0	0	0	0	527	477	1021	0	0	0	
15	0	0	0	0	524	476	1021	0	0	0	
0	0	0	0	0	522	474	1021	0	0	0	
1	0	0	0	0	520	473	1021	0	0	0	
2	0	0	0	0	519	472	1021	0	0	0	
3	0	0	0	0	519	472	1021	0	0	0	
4	0	0	0	0	519	471	1021	0	0	0	
5	0	0	0	0	520	471	1021	0	0	0	
6	0	0	0	0	521	470	1021	0	0	0	
7	0	0	0	0	522	471	1021	0	0	0	
8	0	0	0	0	523	471	1021	0	0	0	
9	0	0	0	0	524	471	1021	0	0	0	
10	0	0	0	0	526	472	1021	0	0	0	
11	0	0	0	0	527	473	1021	0	0	0	
12	0	0	0	0	528	474	1021	0	0	0	
13	0	0	0	0	529	475	1021	0	0	0	
14	0	0	0	0	529	475	1021	0	0	0	
15	0	0	0	0	527	474	1021	0	0	0	
0	0	0	0	0	525	472	1021	0	0	0	
1	0	0	0	0	522	470	1021	0	0	0	
2	0	0	0	0	517	466	1021	0	0	0	
3	0	0	0	0	513	462	1021	0	0	0	
4	0	0	0	0	508	458	1021	0	0	0	
5	0	0	0	0	504	455	1021	0	0	0	
6	0	0	0	0	500	451	1021	0	0	0	
7	0	0	0	0	496	448	1021	0	0	0	
8	0	0	0	0	494	446	1021	0	0	0	
9	0	0	0	0	493	446	1021	0	0	0	
10	0	0	0	0	494	446	1021	0	0	0	
11	0	0	0	0	496	448	1021	0	0	0	
12	0	0	0	0	500	452	1021	0	0	0	
13	0	0	0	0	505	457	1021	0	0	0	
14	0	0	0	0	512	463	1021	0	0	0	
15	0	0	0	0	520	470	1021	0	0	0	
0	0	0	0	0	529	477	1021	0	0	0	
1	0	0	0	0	537	484	1020	0	0	0	
2	0	0	0	0	545	491	1021	0	0	0	
3	0	0	0	0	551	496	1021	0	0	0	
4	0	0	0	0	557	500	1021	0	0	0	
5	0	0	0	0	559	502	1021	0	0	0	
6	0	0	0	0	560	502	1021	0	0	0	
7	0	0	0	0	558	500	1021	0	0	0	
8	0	0	0	0	553	497	1021	0	0	0	
9	0	0	0	0	549	493	1021	0	0	0	
10	0	0	0	0	543	488	1021	0	0	0	
11	0	0	0	0	536	483	1021	0	0	0	
12	0	0	0	0	530	478	1021	0	0	0	
13	0	0	0	0	524	474	1021	0	0	0	
14	0	0	0	0	520	471	1021	0	0	0	
15	0	0	0	0	517	470	1021	0	0	0	
0	0	0	0	0	515	469	1021	0	0	0	
1	0	0	0	0	515	469	1021	0	0	0	
2	0	0	0	0	515	470	1021	0	0	0	
3	0	0	0	0	516	472	1021	0	0	0	
4	0	0	0	0	519	474	1021	0	0	0	
5	0	0	0	0	521	476	1021	0	0	0	
6	0	0	0	0	524	477	1021	0	0	0	
7	0	0	0	0	526	479	1021	0	0	0	
8	0	0	0	0	528	480	1021	0	0	0	
9	0	0	0	0	530	480	1021	0	0	0	
10	0	0	0	0	530	479	1021	0	0	0	
11	0	0	0	0	530	477	1021	0	0	0	
12	0	0	0	0	528	475	1021	0	0	0	
13	0	0	0	0	527	473	1021	0	0	0	
14	0	0	0	0	524	470	1021	0	0	0	
15	0	0	0	0	521	467	1021	0	0	0	
0	0	0	0	0	517	464	1021	0	0	0	
1	0	0	0	0	514	462	1021	0	0	0	
2	0	0	0	0	511	461	1021	0	0	0	
3	0	0	0	0	510	460	1021	0	0	0	
4	0	0	0	0	508	460	1021	0	0	0	
5	0	0	0	0	507	460	1021	0	0	0	
6	0	0	0	0	508	460	1021	0	0	0	
7	0	0	0	0	508	461	1021	0	0	0	
8	0	0	0	0	510	462	1021	0	0	0	
9	0	0	0	0	511	463	1021	0	0	0	
10	0	0	0	0	512	463	1021	0	0	0	
11	0	0	0	0	513	463	1021	0	0	0	
12	0	0	0	0	515	463	1021	0	0	0	
13	0	0	0	0	515	463	1021	0	0	0	
14	0	0	0	0	515	462	1021	0	0	0	
15	0	0	0	0	515	461	1021	0	0	0	
0	0	0	0	0	514	460	1021	0	0	0	
1	0	0	0	0	513	458	1021	0	0	0	
2	0	0	0	0	512	456	1021	0	0	0	
3	0	0	0	0	510	454	1021	0	0	0	
4	0	0	0	0	508	452	1021	0	0	0	
5	0	0	0	0	506	450	1021	0	0	0	
6	0	0	0	0	504	449	1021	0	0	0	
7	0	0	0	0	502	447	1021	0	0	0	
8	0	0	0	0	501	446	1021	0	0	0	
9	0	0	0	0	499	446	1021	0	0	0	
10	0	0	0	0	498	445	1021	0	0	0	
11	0	0	0	0	498	445	1021	0	0	0	
12	0	0	0	0	498	445	1021	0	0	0	
13	0	0	0	0	499	445	1021	0	0	0	
14	0	0	0	0	499	446	1021	0	0	0	
15	0	0	0	0	499	446	1021	0	0	0	
0	0	0	0	0	500	446	1021	0	0	0	
1	0	0	0	0	501	446	1021	0	0	0	
2	0	0	0	0	502	447	1021	0	0	0	
3	0	0	0	0	502	447	1021	0	0	0	
4	0	0	0	0	503	448	1021	0	0	0	
5	0	0	0	0	503	448	1021	0	0	0	
6	0	0	0	0	504	448	1021	0	0	0	
7	0	0	0	0	504	450	1021	0	0	0	
8	0	0	0	0	505	451	1021	0	0	0	
9	0	0	0	0	506	454	1021	0	0	0	
10	0	0	0	0	508	456	1021	0	0	0	
11	0	0	0	0	511	460	1021	0	0	0	
12	0	0	0	0	514	463	1021	0	0	0	
13	0	0	0	0	517	467	1021	0	0	0	
14	0	0	0	0	521	472	1021	0	0	0	
15	0	0	0	0	525	476	1021	0	0	0	
0	0	0	0	0	529	480	1021	0	0	0	
1	0	0	0	0	533	484	1021	0	0	0	
2	0	0	0	0	536	486	1021	0	0	0	
3	0	0	0	0	538	488	1021	0	0	0	
4	0	0	0	0	539	488	1021	0	0	0	
5	0	0	0	0	538	487	1021	0	0	0	
6	0	0	0	0	536	486	1021	0	0	0	
7	0	0	0	0	533	482	1021	0	0	0	
8	0	0	0	0	529	479	1021	0	0	0	
9	0	0	0	0	525	475	1021	0	0	0	
10	0	0	0	0	521	471	1021	0	0	0	
11	0	0	0	0	517	468	1021	0	0	0	
12	0	0	0	0	514	465	1021	0	0	0	
13	0	0	0	0	512	464	1021	0	0	0	
14	0	0	0	0	512	464	1021	0	0	0	
15	0	0	0	0	512	465	1021	0	0	0	
0	0	0	0	0	514	467	1021	0	0	0	
1	0	0	0	0	515	469	1021	0	0	0	
2	0	0	0	0	518	472	1021	0	0	0	
3	0	0	0	0	520	472	1021	0	0	0	
4	0	0	0	0	521	473	1021	0	0	0	
5	0	0	0	0	521	473	1021	0	0	0	
6	0	0	0	0	520	471	1021	0	0	0	
7	0	0	0	0	519	469	1021	0	0	0	
8	0	0	0	0	516	466	1021	0	0	0	
9	0	0	0	0	514	463	1021	0	0	0	
10	0	0	0	0	511	460	1021	0	0	0	
11	0	0	0	0	508	457	1021	0	0	0	
12	0	0	0	0	506	455	1021	0	0	0	
13	0	0	0	0	505	454	1021	0	0	0	
14	0	0	0	0	506	454	1021	0	0	0	
15	0	0	0	0	507	455	1021	0	0	0	
0	0	0	0	0	508	456	1021	0	0	0	
1	0	0	0	0	510	458	1021	0	0	0	
2	0	0	0	0	512	460	1021	0	0	0	
3	0	0	0	0	512	460	1021	0	0	0	
4	0	0	0	0	511	459	1021	0	0	0	
5	0	0	0	0	508	456	1021	0	0	0	
6	0	0	0	0	502	451	1021	0	0	0	
7	0	0	0	0	494	444	1021	0	0	0	
8	0	0	0	0	484	434	1021	0	0	0	
9	0	0	0	0	472	423	1021	0	0	0	
10	0	0	0	0	457	410	1021	0	0	0	
11	0	0	0	0	441	395	1021	0	0	0	
12	0	0	0	0	425	380	1021	0	0	0	
13	0	0	0	0	408	363	1021	0	0	0	
14	0	0	0	0	390	347	1021	0	0	0	
15	0	0	0	0	373	330	1021	0	0	0	
0	0	0	0	0	356	314	1021	0	0	0	
1	0	0	0	0	340	299	1021	0	0	0	
2	0	0	0	0	326	285	1021	0	0	0	
3	0	0	0	0	314	273	1021	0	0	0	
4	0	0	0	0	304	263	1021	0	0	0	
5	0	0	0	0	295	254	1021	0	0	0	
6	0	0	0	0	288	248	1021	0	0	0	
7	0	0	0	0	285	244	1021	0	0	0	
8	0	0	0	0	284	242	1020	0	0	0	
9	0	0	0	0	285	243	1021	0	0	0	
10	0	0	0	0	289	246	1021	0	0	0	
11	0	0	0	0	296	251	1021	0	0	0	
12	0	0	0	0	307	260	1021	0	0	0	
13	0	0	0	0	320	271	1021	0	0	0	
14	0	0	0	0	336	284	1021	0	0	0	
15	0	0	0	0	354	299	1021	0	0	0	
0	0	0	0	0	374	316	1021	0	0	0	
1	0	0	0	0	395	334	1021	0	0	0	
2	0	0	0	0	417	352	1021	0	0	0	
3	0	0	0	0	438	371	1021	0	0	0	
4	0	0	0	0	459	390	1021	0	0	0	
5	0	0	0	0	478	407	1021	0	0	0	
6	0	0	0	0	496	423	1021	0	0	0	
7	0	0	0	0	511	439	1021	0	0	0	
8	0	0	0	0	523	452	1021	0	0	0	
9	0	0	0	0	533	463	1021	0	0	0	
10	0	0	0	0	541	473	1021	0	0	0	
11	0	0	0	0	547	480	1021	0	0	0	
12	0	0	0	0	550	487	1021	0	0	0	
13	0	0	0	0	553	492	1021	0	0	0	
14	0	0	0	0	554	496	1021	0	0	0	
15	0	0	0	0	556	501	1021	0	0	0	
0	0	0	0	0	557	504	1021	0	0	0	
1	0	0	0	0	557	507	1021	0	0	0	
2	0	0	0	0	558	509	1021	0	0	0	
3	0	0	0	0	557	510	1021	0	0	0	
4	0	0	0	0	557	510	1021	0	0	0	
5	0	0	0	0	555	508	1021	0	0	0	
6	0	0	0	0	553	506	1021	0	0	0	
7	0	0	0	0	551	503	1021	0	0	0	
8	0	0	0	0	547	499	1021	0	0	0	
9	0	0	0	0	544	495	1021	0	0	0	
10	0	0	0	0	540	491	1021	0	0	0	
11	0	0	0	0	536	486	1021	0	0	0	
12	0	0	0	0	533	482	1021	0	0	0	
13	0	0	0	0	529	478	1021	0	0	0	
14	0	0	0	0	527	475	1021	0	0	0	
15	0	0	0	0	524	472	1021	0	0	0	
0	0	0	0	0	521	469	1021	0	0	0	
1	0	0	0	0	518	467	1021	0	0	0	
2	0	0	0	0	516	464	1021	0	0	0	
3	0	0	0	0	513	463	1021	0	0	0	
4	0	0	0	0	511	461	1021	0	0	0	
5	0	0	0	0	509	460	1021	0	0	0	
6	0	0	0	0	508	458	1021	0	0	0	
7	0	0	0	0	505	457	1021	0	0	0	
8	0	0	0	0	505	457	1021	0	0	0	
9	0	0	0	0	505	457	1021	0	0	0	
10	0	0	0	0	505	457	1021	0	0	0	
11	0	0	0	0	507	458	1021	0	0	0	
12	0	0	0	0	509	460	1021	0	0	0	
13	0	0	0	0	513	463	1021	0	0	0	
14	0	0	0	0	518	467	1021	0	0	0	
15	0	0	0	0	523	471	1021	0	0	0	
0	0	0	0	0	529	476	1021	0	0	0	
1	0	0	0	0	536	481	1021	0	0	0	
2	0	0	0	0	542	487	1021	0	0	0	
3	0	0	0	0	549	493	1021	0	0	0	
4	0	0	0	0	555	498	1021	0	0	0	
5	0	0	0	0	559	503	1021	0	0	0	
6	0	0	0	0	561	506	1021	0	0	0	
7	0	0	0	0	562	508	1021	0	0	0	
8	0	0	0	0	560	507	1021	0	0	0	
9	0	0	0	0	556	504	1021	0	0	0	
10	0	0	0	0	550	499	1021	0	0	0	
11	0	0	0	0	542	492	1021	0	0	0	
12	0	0	0	0	534	486	1021	0	0	0	
13	0	0	0	0	526	478	1021	0	0	0	
14	0	0	0	0	518	470	1021	0	0	0	
15	0	0	0	0	511	463	1021	0	0	0	
0	0	0	0	0	505	458	1021	0	0	0	
1	0	0	0	0	503	454	1021	0	0	0	
2	0	0	0	0	502	452	1021	0	0	0	
3	0	0	0	0	503	452	1021	0	0	0	
4	0	0	0	0	506	454	1021	0	0	0	
5	0	0	0	0	511	457	1021	0	0	0	
6	0	0	0	0	516	462	1021	0	0	0	
7	0	0	0	0	523	467	1021	0	0	0	
8	0	0	0	0	529	473	1021	0	0	0	
9	0	0	0	0	536	479	1021	0	0	0	
10	0	0	0	0	542	485	1021	0	0	0	
11	0	0	0	0	547	490	1021	0	0	0	
12	0	0	0	0	551	494	1021	0	0	0	
13	0	0	0	0	555	497	1021	0	0	0	
14	0	0	0	0	557	499	1021	0	0	0	
15	0	0	0	0	558	500	1021	0	0	0	
0	0	0	0	0	557	500	1021	0	0	0	
1	0	0	0	0	556	500	1021	0	0	0	
2	0	0	0	0	554	498	1021	0	0	0	
3	0	0	0	0	552	497	1021	0	0	0	
4	0	0	0	0	550	495	1021	0	0	0	
5	0	0	0	0	547	493	1021	0	0	0	
6	0	0	0	0	545	491	1021	0	0	0	
7	0	0	0	0	543	489	1021	0	0	0	
8	0	0	0	0	543	488	1021	0	0	0	
9	0	0	0	0	542	488	1021	0	0	0	
10	0	0	0	0	543	489	1021	0	0	0	
11	0	0	0	0	544	489	1021	0	0	0	
12	0	0	0	0	547	491	1021	0	0	0	
13	0	0	0	0	548	493	1021	0	0	0	
14	0	0	0	0	551	495	1021	0	0	0	
15	0	0	0	0	553	498	1021	0	0	0	
0	0	0	0	0	556	500	1021	0	0	0	
1	0	0	0	0	558	502	1021	0	0	0	
2	0	0	0	0	560	504	1021	0	0	0	
3	0	0	0	0	560	504	1021	0	0	0	
4	0	0	0	0	560	504	1021	0	0	0	
5	0	0	0	0	558	502	1021	0	0	0	
6	0	0	0	0	554	499	1021	0	0	0	
7	0	0	0	0	549	494	1021	0	0	0	
8	0	0	0	0	543	488	1021	0	0	0	
9	0	0	0	0	536	482	1021	0	0	0	
10	0	0	0	0	529	475	1021	0	0	0	
11	0	0	0	0	522	468	1021	0	0	0	
12	0	0	0	0	515	463	1021	0	0	0	
13	0	0	0	0	509	457	1021	0	0	0	
14	0	0	0	0	505	455	1021	0	0	0	
15	0	0	0	0	503	453	1021	0	0	0	
0	0	0	0	0	502	453	1021	0	0	0	
1	0	0	0	0	503	454	1021	0	0	0	
2	0	0	0	0	506	457	1021	0	0	0	
3	0	0	0	0	511	462	1021	0	0	0	
4	0	0	0	0	517	467	1021	0	0	0	
5	0	0	0	0	524	472	1021	0	0	0	
6	0	0	0	0	531	478	1021	0	0	0	
7	0	0	0	0	539	483	1021	0	0	0	
8	0	0	0	0	545	488	1021	0	0	0	
9	0	0	0	0	551	492	1021	0	0	0	
10	0	0	0	0	556	495	1021	0	0	0	
11	0	0	0	0	558	496	1021	0	0	0	
12	0	0	0	0	560	497	1021	0	0	0	
13	0	0	0	0	560	497	1021	0	0	0	
14	0	0	0	0	560	496	1021	0	0	0	
15	0	0	0	0	560	496	1021	0	0	0	
0	0	0	0	0	559	496	1021	0	0	0	
1	0	0	0	0	558	497	1021	0	0	0	
2	0	0	0	0	558	497	1021	0	0	0	
3	0	0	0	0	558	498	1021	0	0	0	
4	0	0	0	0	558	499	1021	0	0	0	
5	0	0	0	0	557	499	1020	0	0	0	
6	0	0	0	0	556	499	1021	0	0	0	
7	0	0	0	0	553	498	1021	0	0	0	
8	0	0	0	0	551	496	1021	0	0	0	
9	0	0	0	0	547	493	1021	0	0	0	
10	0	0	0	0	543	490	1021	0	0	0	
11	0	0	0	0	538	486	1021	0	0	0	
12	0	0	0	0	534	482	1021	0	0	0	
13	0	0	0	0	529	478	1021	0	0	0	
14	0	0	0	0	526	475	1021	0	0	0	
15	0	0	0	0	523	471	1021	0	0	0	
0	0	0	0	0	521	468	1021	0	0	0	
1	0	0	0	0	520	467	1021	0	0	0	
2	0	0	0	0	521	467	1021	0	0	0	
3	0	0	0	0	522	467	1021	0	0	0	
4	0	0	0	0	524	467	1021	0	0	0	
5	0	0	0	0	526	469	1021	0	0	0	
6	0	0	0	0	529	471	1021	0	0	0	
7	0	0	0	0	531	473	1021	0	0	0	
8	0	0	0	0	534	476	1021	0	0	0	
9	0	0	0	0	535	477	1021	0	0	0	
10	0	0	0	0	537	479	1021	0	0	0	
11	0	0	0	0	538	480	1021	0	0	0	
12	0	0	0	0	539	481	1021	0	0	0	
13	0	0	0	0	540	481	1021	0	0	0	
14	0	0	0	0	540	482	1021	0	0	0	
15	0	0	0	0	540	482	1021	0	0	0	
0	0	0	0	0	542	482	1021	0	0	0	
1	0	0	0	0	542	483	1021	0	0	0	
2	0	0	0	0	544	484	1021	0	0	0	
3	0	0	0	0	545	484	1021	0	0	0	
4	0	0	0	0	546	485	1021	0	0	0	
5	0	0	0	0	547	486	1021	0	0	0	
6	0	0	0	0	548	486	1021	0	0	0	
7	0	0	0	0	547	485	1021	0	0	0	
8	0	0	0	0	547	484	1020	0	0	0	
9	0	0	0	0	545	483	1021	0	0	0	
10	0	0	0	0	543	481	1021	0	0	0	
11	0	0	0	0	540	479	1021	0	0	0	
12	0	0	0	0	536	476	1021	0	0	0	
13	0	0	0	0	532	474	1021	0	0	0	
14	0	0	0	0	528	471	1021	0	0	0	
15	0	0	0	0	524	468	1021	0	0	0	
0	0	0	0	0	520	465	1021	0	0	0	
1	0	0	0	0	517	463	1021	0	0	0	
2	0	0	0	0	515	462	1021	0	0	0	
3	0	0	0	0	513	460	1021	0	0	0	
4	0	0	0	0	512	460	1021	0	0	0	
5	0	0	0	0	513	460	1021	0	0	0	
6	0	0	0	0	514	461	1021	0	0	0	
7	0	0	0	0	516	463	1021	0	0	0	
8	0	0	0	0	519	465	1021	0	0	0	
9	0	0	0	0	525	470	1021	0	0	0	
10	0	0	0	0	530	474	1021	0	0	0	
11	0	0	0	0	536	479	1021	0	0	0	
12	0	0	0	0	543	484	1021	0	0	0	
13	0	0	0	0	547	488	1021	0	0	0	
14	0	0	0	0	551	491	1021	0	0	0	
15	0	0	0	0	555	493	1021	0	0	0	
0	0	0	0	0	556	494	1021	0	0	0	
1	0	0	0	0	554	492	1021	0	0	0	
2	0	0	0	0	551	490	1021	0	0	0	
3	0	0	0	0	547	487	1021	0	0	0	
4	0	0	0	0	542	482	1021	0	0	0	
5	0	0	0	0	536	477	1021	0	0	0	
6	0	0	0	0	530	472	1021	0	0	0	
7	0	0	0	0	524	467	1021	0	0	0	
8	0	0	0	0	519	463	1021	0	0	0	
9	0	0	0	0	517	461	1021	0	0	0	
10	0	0	0	0	516	460	1021	0	0	0	
11	0	0	0	0	517	460	1021	0	0	0	
12	0	0	0	0	519	461	1021	0	0	0	
13	0	0	0	0	523	464	1021	0	0	0	
14	0	0	0	0	528	467	1021	0	0	0	
15	0	0	0	0	533	472	1021	0	0	0	
0	0	0	0	0	539	475	1021	0	0	0	
1	0	0	0	0	543	479	1021	0	0	0	
2	0	0	0	0	547	483	1021	0	0	0	
3	0	0	0	0	550	486	1021	0	0	0	
4	0	0	0	0	552	488	1021	0	0	0	
5	0	0	0	0	552	490	1021	0	0	0	
6	0	0	0	0	552	491	1021	0	0	0	
7	0	0	0	0	550	491	1021	0	0	0	
8	0	0	0	0	548	490	1021	0	0	0	
9	0	0	0	0	545	489	1021	0	0	0	
10	0	0	0	0	542	487	1021	0	0	0	
11	0	0	0	0	537	483	1021	0	0	0	
12	0	0	0	0	534	480	1021	0	0	0	
13	0	0	0	0	530	477	1021	0	0	0	
14	0	0	0	0	527	473	1021	0	0	0	
15	0	0	0	0	524	470	1021	0	0	0	
0	0	0	0	0	521	467	1021	0	0	0	
1	0	0	0	0	519	464	1021	0	0	0	
2	0	0	0	0	518	463	1021	0	0	0	
3	0	0	0	0	518	462	1021	0	0	0	
4	0	0	0	0	518	462	1021	0	0	0	
5	0	0	0	0	519	462	1021	0	0	0	
6	0	0	0	0	521	464	1021	0	0	0	
7	0	0	0	0	523	466	1021	0	0	0	
8	0	0	0	0	526	468	1021	0	0	0	
9	0	0	0	0	529	471	1021	0	0	0	
10	0	0	0	0	531	473	1021	0	0	0	
11	0	0	0	0	534	476	1021	0	0	0	
12	0	0	0	0	536	478	1021	0	0	0	
13	0	0	0	0	538	480	1021	0	0	0	
14	0	0	0	0	540	482	1021	0	0	0	
15	0	0	0	0	541	484	1021	0	0	0	
0	0	0	0	0	542	485	1021	0	0	0	
1	0	0	0	0	543	486	1021	0	0	0	
2	0	0	0	0	544	486	1021	0	0	0	
3	0	0	0	0	544	486	1021	0	0	0	
4	0	0	0	0	544	484	1021	0	0	0	
5	0	0	0	0	543	483	1021	0	0	0	
6	0	0	0	0	542	481	1021	0	0	0	
7	0	0	0	0	541	478	1021	0	0	0	
8	0	0	0	0	540	476	1020	0	0	0	
9	0	0	0	0	540	476	1021	0	0	0	
10	0	0	0	0	540	476	1021	0	0	0	
11	0	0	0	0	542	477	1021	0	0	0	
12	0	0	0	0	545	480	1021	0	0	0	
13	0	0	0	0	548	483	1021	0	0	0	
14	0	0	0	0	553	487	1021	0	0	0	
15	0	0	0	0	558	492	1021	0	0	0	
0	0	0	0	0	562	497	1021	0	0	0	
1	0	0	0	0	566	502	1021	0	0	0	
2	0	0	0	0	568	504	1021	0	0	0	
3	0	0	0	0	568	506	1021	0	0	0	
4	0	0	0	0	567	505	1021	0	0	0	
5	0	0	0	0	563	503	1021	0	0	0	
6	0	0	0	0	557	498	1021	0	0	0	
7	0	0	0	0	550	492	1021	0	0	0	
8	0	0	0	0	541	486	1021	0	0	0	
9	0	0	0	0	532	478	1021	0	0	0	
10	0	0	0	0	524	471	1021	0	0	0	
11	0	0	0	0	515	464	1021	0	0	0	
12	0	0	0	0	509	457	1021	0	0	0	
13	0	0	0	0	504	453	1021	0	0	0	
14	0	0	0	0	501	449	1021	0	0	0	
15	0	0	0	0	500	448	1021	0	0	0	
0	0	0	0	0	501	449	1021	0	0	0	
1	0	0	0	0	505	451	1021	0	0	0	
2	0	0	0	0	511	456	1021	0	0	0	
3	0	0	0	0	518	463	1021	0	0	0	
4	0	0	0	0	527	470	1021	0	0	0	
5	0	0	0	0	536	477	1021	0	0	0	
6	0	0	0	0	545	484	1021	0	0	0	
7	0	0	0	0	552	490	1021	0	0	0	
8	0	0	0	0	559	494	1021	0	0	0	
9	0	0	0	0	563	497	1021	0	0	0	
10	0	0	0	0	564	497	1021	0	0	0	
11	0	0	0	0	563	496	1021	0	0	0	
12	0	0	0	0	560	494	1021	0	0	0	
13	0	0	0	0	556	490	1021	0	0	0	
14	0	0	0	0	551	486	1021	0	0	0	
15	0	0	0	0	545	482	1021	0	0	0	
0	0	0	0	0	540	478	1021	0	0	0	
1	0	0	0	0	536	476	1021	0	0	0	
2	0	0	0	0	532	473	1021	0	0	0	
3	0	0	0	0	529	472	1021	0	0	0	
4	0	0	0	0	527	471	1021	0	0	0	
5	0	0	0	0	526	471	1021	0	0	0	
6	0	0	0	0	526	471	1021	0	0	0	
7	0	0	0	0	527	472	1021	0	0	0	
8	0	0	0	0	530	475	1021	0	0	0	
9	0	0	0	0	533	477	1021	0	0	0	
10	0	0	0	0	536	480	1021	0	0	0	
11	0	0	0	0	540	483	1021	0	0	0	
12	0	0	0	0	543	485	1021	0	0	0	
13	0	0	0	0	546	486	1021	0	0	0	
14	0	0	0	0	548	488	1021	0	0	0	
15	0	0	0	0	549	488	1021	0	0	0	
0	0	0	0	0	550	489	1021	0	0	0	
1	0	0	0	0	550	488	1021	0	0	0	
2	0	0	0	0	549	488	1021	0	0	0	
3	0	0	0	0	547	487	1021	0	0	0	
4	0	0	0	0	545	486	1021	0	0	0	
5	0	0	0	0	543	486	1021	0	0	0	
6	0	0	0	0	543	485	1021	0	0	0	
7	0	0	0	0	542	485	1021	0	0	0	
8	0	0	0	0	542	486	1021	0	0	0	
9	0	0	0	0	542	487	1021	0	0	0	
10	0	0	0	0	543	488	1021	0	0	0	
11	0	0	0	0	545	491	1021	0	0	0	
12	0	0	0	0	548	492	1021	0	0	0	
13	0	0	0	0	550	494	1021	0	0	0	
14	0	0	0	0	551	494	1021	0	0	0	
15	0	0	0	0	552	494	1021	0	0	0	
0	0	0	0	0	552	493	1021	0	0	0	
1	0	0	0	0	551	490	1021	0	0	0	
2	0	0	0	0	547	485	1021	0	0	0	
3	0	0	0	0	541	479	1021	0	0	0	
4	0	0	0	0	535	472	1021	0	0	0	
5	0	0	0	0	527	465	1021	0	0	0	
6	0	0	0	0	519	458	1021	0	0	0	
7	0	0	0	0	513	452	1021	0	0	0	
8	0	0	0	0	507	447	1021	0	0	0	
9	0	0	0	0	502	444	1021	0	0	0	
10	0	0	0	0	500	442	1021	0	0	0	
11	0	0	0	0	500	444	1021	0	0	0	
12	0	0	0	0	502	447	1021	0	0	0	
13	0	0	0	0	507	452	1021	0	0	0	
14	0	0	0	0	512	459	1021	0	0	0	
15	0	0	0	0	519	465	1021	0	0	0	
0	0	0	0	0	527	472	1021	0	0	0	
1	0	0	0	0	534	478	1021	0	0	0	
2	0	0	0	0	540	483	1021	0	0	0	
3	0	0	0	0	545	486	1021	0	0	0	
4	0	0	0	0	549	488	1021	0	0	0	
5	0	0	0	0	551	489	1021	0	0	0	
6	0	0	0	0	551	489	1021	0	0	0	
7	0	0	0	0	550	487	1021	0	0	0	
8	0	0	0	0	547	484	1021	0	0	0	
9	0	0	0	0	543	480	1021	0	0	0	
10	0	0	0	0	539	476	1021	0	0	0	
11	0	0	0	0	534	471	1021	0	0	0	
12	0	0	0	0	528	467	1021	0	0	0	
13	0	0	0	0	523	463	1021	0	0	0	
14	0	0	0	0	519	459	1021	0	0	0	
15	0	0	0	0	515	456	1021	0	0	0	
0	0	0	0	0	512	454	1021	0	0	0	
1	0	0	0	0	509	451	1021	0	0	0	
2	0	0	0	0	507	450	1021	0	0	0	
3	0	0	0	0	506	448	1021	0	0	0	
4	0	0	0	0	506	448	1021	0	0	0	
5	0	0	0	0	505	446	1021	0	0	0	
6	0	0	0	0	505	445	1021	0	0	0	
7	0	0	0	0	505	444	1021	0	0	0	
8	0	0	0	0	506	444	1021	0	0	0	
9	0	0	0	0	507	444	1021	0	0	0	
10	0	0	0	0	508	445	1021	0	0	0	
11	0	0	0	0	510	446	1021	0	0	0	
12	0	0	0	0	513	448	1021	0	0	0	
13	0	0	0	0	515	451	1021	0	0	0	
14	0	0	0	0	518	453	1021	0	0	0	
15	0	0	0	0	521	456	1021	0	0	0	
0	0	0	0	0	523	458	1021	0	0	0	
1	0	0	0	0	525	461	1021	0	0	0	
2	0	0	0	0	527	463	1021	0	0	0	
3	0	0	0	0	529	466	1021	0	0	0	
4	0	0	0	0	532	469	1021	0	0	0	
5	0	0	0	0	534	472	1021	0	0	0	
6	0	0	0	0	537	475	1021	0	0	0	
7	0	0	0	0	540	478	1021	0	0	0	
8	0	0	0	0	542	480	1021	0	0	0	
9	0	0	0	0	543	483	1021	0	0	0	
10	0	0	0	0	545	484	1021	0	0	0	
11	0	0	0	0	546	486	1021	0	0	0	
12	0	0	0	0	547	487	1021	0	0	0	
13	0	0	0	0	547	488	1021	0	0	0	
14	0	0	0	0	547	487	1021	0	0	0	
15	0	0	0	0	546	487	1020	0	0	0	
0	0	0	0	0	546	486	1021	0	0	0	
1	0	0	0	0	545	485	1021	0	0	0	
2	0	0	0	0	544	483	1021	0	0	0	
3	0	0	0	0	542	481	1021	0	0	0	
4	0	0	0	0	540	479	1020	0	0	0	
5	0	0	0	0	537	477	1021	0	0	0	
6	0	0	0	0	536	475	1021	0	0	0	
7	0	0	0	0	534	474	1021	0	0	0	
8	0	0	0	0	531	472	1021	0	0	0	
9	0	0	0	0	531	472	1021	0	0	0	
10	0	0	0	0	529	472	1021	0	0	0	
11	0	0	0	0	529	472	1021	0	0	0	
12	0	0	0	0	529	473	1021	0	0	0	
13	0	0	0	0	530	474	1021	0	0	0	
14	0	0	0	0	531	475	1020	0	0	0	
15	0	0	0	0	533	477	1021	0	0	0	
0	0	0	0	0	536	479	1021	0	0	0	
1	0	0	0	0	539	482	1021	0	0	0	
2	0	0	0	0	543	484	1021	0	0	0	
3	0	0	0	0	545	486	1021	0	0	0	
4	0	0	0	0	547	488	1021	0	0	0	
5	0	0	0	0	549	489	1021	0	0	0	
6	0	0	0	0	550	489	1021	0	0	0	
7	0	0	0	0	550	489	1021	0	0	0	
8	0	0	0	0	548	487	1021	0	0	0	
9	0	0	0	0	546	487	1021	0	0	0	
10	0	0	0	0	544	485	1021	0	0	0	
11	0	0	0	0	542	483	1021	0	0	0	
12	0	0	0	0	540	482	1021	0	0	0	
13	0	0	0	0	538	481	1021	0	0	0	
14	0	0	0	0	536	480	1021	0	0	0	
15	0	0	0	0	535	481	1021	0	0	0	
0	0	0	0	0	535	481	1021	0	0	0	
1	0	0	0	0	535	481	1021	0	0	0	
2	0	0	0	0	536	482	1021	0	0	0	
3	0	0	0	0	536	482	1021	0	0	0	
4	0	0	0	0	538	483	1021	0	0	0	
5	0	0	0	0	540	484	1021	0	0	0	
6	0	0	0	0	542	484	1021	0	0	0	
7	0	0	0	0	543	485	1020	0	0	0	
8	0	0	0	0	544	486	1021	0	0	0	
9	0	0	0	0	544	485	1021	0	0	0	
10	0	0	0	0	544	484	1021	0	0	0	
11	0	0	0	0	543	483	1021	0	0	0	
12	0	0	0	0	543	482	1021	0	0	0	
13	0	0	0	0	541	480	1021	0	0	0	
14	0	0	0	0	540	480	1021	0	0	0	
15	0	0	0	0	540	479	1021	0	0	0	
0	0	0	0	0	540	479	1021	0	0	0	
1	0	0	0	0	541	480	1021	0	0	0	
2	0	0	0	0	542	482	1021	0	0	0	
3	0	0	0	0	544	484	1021	0	0	0	
4	0	0	0	0	546	486	1021	0	0	0	
5	0	0	0	0	547	488	1021	0	0	0	
6	0	0	0	0	548	488	1021	0	0	0	
7	0	0	0	0	547	488	1021	0	0	0	
8	0	0	0	0	547	488	1021	0	0	0	
9	0	0	0	0	545	487	1021	0	0	0	
10	0	0	0	0	543	484	1021	0	0	0	
11	0	0	0	0	541	482	1021	0	0	0	
12	0	0	0	0	539	480	1021	0	0	0	
13	0	0	0	0	537	478	1021	0	0	0	
14	0	0	0	0	536	477	1021	0	0	0	
15	0	0	0	0	535	476	1021	0	0	0	
0	0	0	0	0	534	475	1021	0	0	0	
1	0	0	0	0	534	475	1021	0	0	0	
2	0	0	0	0	535	475	1021	0	0	0	
3	0	0	0	0	536	476	1021	0	0	0	
4	0	0	0	0	538	478	1021	0	0	0	
5	0	0	0	0	540	479	1021	0	0	0	
6	0	0	0	0	542	481	1021	0	0	0	
7	0	0	0	0	543	483	1021	0	0	0	
8	0	0	0	0	545	484	1021	0	0	0	
9	0	0	0	0	547	486	1021	0	0	0	
10	0	0	0	0	548	487	1021	0	0	0	
11	0	0	0	0	549	487	1021	0	0	0	
12	0	0	0	0	550	488	1021	0	0	0	
13	0	0	0	0	551	489	1021	0	0	0	
14	0	0	0	0	551	489	1021	0	0	0	
15	0	0	0	0	551	489	1021	0	0	0	
0	0	0	0	0	551	490	1021	0	0	0	
1	0	0	0	0	552	491	1021	0	0	0	
2	0	0	0	0	552	492	1021	0	0	0	
3	0	0	0	0	552	492	1021	0	0	0	
4	0	0	0	0	552	493	1021	0	0	0	
5	0	0	0	0	551	493	1021	0	0	0	
6	0	0	0	0	551	493	1021	0	0	0	
7	0	0	0	0	549	492	1021	0	0	0	
8	0	0	0	0	548	492	1021	0	0	0	
9	0	0	0	0	545	490	1021	0	0	0	
10	0	0	0	0	542	488	1021	0	0	0	
11	0	0	0	0	539	486	1021	0	0	0	
12	0	0	0	0	536	483	1021	0	0	0	
13	0	0	0	0	531	479	1021	0	0	0	
14	0	0	0	0	526	475	1021	0	0	0	
15	0	0	0	0	521	470	1021	0	0	0	
0	0	0	0	0	516	465	1021	0	0	0	
1	0	0	0	0	512	460	1021	0	0	0	
2	0	0	0	0	508	456	1021	0	0	0	
3	0	0	0	0	506	452	1021	0	0	0	
4	0	0	0	0	504	450	1021	0	0	0	
5	0	0	0	0	505	449	1021	0	0	0	
6	0	0	0	0	506	449	1021	0	0	0	
7	0	0	0	0	509	450	1021	0	0	0	
8	0	0	0	0	512	452	1021	0	0	0	
9	0	0	0	0	515	455	1021	0	0	0	
10	0	0	0	0	519	458	1021	0	0	0	
11	0	0	0	0	522	460	1021	0	0	0	
12	0	0	0	0	524	462	1021	0	0	0	
13	0	0	0	0	524	463	1021	0	0	0	
14	0	0	0	0	525	464	1021	0	0	0	
15	0	0	0	0	525	465	1021	0	0	0	
0	0	0	0	0	525	466	1021	0	0	0	
1	0	0	0	0	525	467	1021	0	0	0	
2	0	0	0	0	525	468	1021	0	0	0	
3	0	0	0	0	526	470	1021	0	0	0	
4	0	0	0	0	528	472	1021	0	0	0	
5	0	0	0	0	531	475	1021	0	0	0	
6	0	0	0	0	535	478	1021	0	0	0	
7	0	0	0	0	539	481	1021	0	0	0	
8	0	0	0	0	543	484	1021	0	0	0	
9	0	0	0	0	548	487	1021	0	0	0	
10	0	0	0	0	552	490	1021	0	0	0	
11	0	0	0	0	556	492	1021	0	0	0	
12	0	0	0	0	559	494	1021	0	0	0	
13	0	0	0	0	561	496	1021	0	0	0	
14	0	0	0	0	563	498	1021	0	0	0	
15	0	0	0	0	565	500	1021	0	0	0	
0	0	0	0	0	567	502	1021	0	0	0	
1	0	0	0	0	567	504	1021	0	0	0	
2	0	0	0	0	568	505	1021	0	0	0	
3	0	0	0	0	568	505	1021	0	0	0	
4	0	0	0	0	567	505	1021	0	0	0	
5	0	0	0	0	564	504	1021	0	0	0	
6	0	0	0	0	561	501	1021	0	0	0	
7	0	0	0	0	558	498	1021	0	0	0	
8	0	0	0	0	554	495	1021	0	0	0	
9	0	0	0	0	549	490	1021	0	0	0	
10	0	0	0	0	543	484	1021	0	0	0	
11	0	0	0	0	538	479	1021	0	0	0	
12	0	0	0	0	532	473	1021	0	0	0	
13	0	0	0	0	528	469	1021	0	0	0	
14	0	0	0	0	525	466	1021	0	0	0	
15	0	0	0	0	522	463	1021	0	0	0	
0	0	0	0	0	521	463	1021	0	0	0	
1	0	0	0	0	522	464	1021	0	0	0	
2	0	0	0	0	524	466	1021	0	0	0	
3	0	0	0	0	527	469	1021	0	0	0	
4	0	0	0	0	531	472	1021	0	0	0	
5	0	0	0	0	534	476	1021	0	0	0	
6	0	0	0	0	538	480	1021	0	0	0	
7	0	0	0	0	542	484	1021	0	0	0	
8	0	0	0	0	545	488	1021	0	0	0	
9	0	0	0	0	548	491	1020	0	0	0	
10	0	0	0	0	551	492	1021	0	0	0	
11	0	0	0	0	551	493	1021	0	0	0	
12	0	0	0	0	551	493	1021	0	0	0	
13	0	0	0	0	551	491	1021	0	0	0	
14	0	0	0	0	548	488	1021	0	0	0	
15	0	0	0	0	545	485	1021	0	0	0	
0	0	0	0	0	540	481	1021	0	0	0	
1	0	0	0	0	535	476	1021	0	0	0	
2	0	0	0	0	529	471	1021	0	0	0	
3	0	0	0	0	522	464	1021	0	0	0	
4	0	0	0	0	514	457	1021	0	0	0	
5	0	0	0	0	505	451	1021	0	0	0	
6	0	0	0	0	497	444	1021	0	0	0	
7	0	0	0	0	487	435	1021	0	0	0	
8	0	0	0	0	478	427	1021	0	0	0	
9	0	0	0	0	467	417	1021	0	0	0	
10	0	0	0	0	456	408	1021	0	0	0	
11	0	0	0	0	446	398	1021	0	0	0	
12	0	0	0	0	435	388	1021	0	0	0	
13	0	0	0	0	425	379	1021	0	0	0	
14	0	0	0	0	416	369	1021	0	0	0	
15	0	0	0	0	407	360	1021	0	0	0	
0	0	0	0	0	399	351	1021	0	0	0	
1	0	0	0	0	390	342	1021	0	0	0	
2	0	0	0	0	381	332	1021	0	0	0	
3	0	0	0	0	372	321	1021	0	0	0	
4	0	0	0	0	363	311	1021	0	0	0	
5	0	0	0	0	354	300	1021	0	0	0	
6	0	0	0	0	345	291	1021	0	0	0	
7	0	0	0	0	337	281	1021	0	0	0	
8	0	0	0	0	330	274	1021	0	0	0	
9	0	0	0	0	324	268	1021	0	0	0	
10	0	0	0	0	321	263	1021	0	0	0	
11	0	0	0	0	320	262	1021	0	0	0	
12	0	0	0	0	322	263	1021	0	0	0	
13	0	0	0	0	327	268	1021	0	0	0	
14	0	0	0	0	335	275	1021	0	0	0	
15	0	0	0	0	347	285	1021	0	0	0	
0	0	0	0	0	361	298	1021	0	0	0	
1	0	0	0	0	379	313	1021	0	0	0	
2	0	0	0	0	397	329	1021	0	0	0	
3	0	0	0	0	417	348	1021	0	0	0	
4	0	0	0	0	439	367	1021	0	0	0	
5	0	0	0	0	460	386	1021	0	0	0	
6	0	0	0	0	480	405	1021	0	0	0	
7	0	0	0	0	499	423	1021	0	0	0	
8	0	0	0	0	516	440	1021	0	0	0	
9	0	0	0	0	531	455	1021	0	0	0	
10	0	0	0	0	544	468	1021	0	0	0	
11	0	0	0	0	554	479	1021	0	0	0	
12	0	0	0	0	561	487	1021	0	0	0	
13	0	0	0	0	566	494	1021	0	0	0	
14	0	0	0	0	568	499	1021	0	0	0	
15	0	0	0	0	569	502	1021	0	0	0	
0	0	0	0	0	569	504	1021	0	0	0	
1	0	0	0	0	568	505	1021	0	0	0	
2	0	0	0	0	566	505	1021	0	0	0	
3	0	0	0	0	564	505	1021	0	0	0	
4	0	0	0	0	561	504	1021	0	0	0	
5	0	0	0	0	558	502	1021	0	0	0	
6	0	0	0	0	554	499	1021	0	0	0	
7	0	0	0	0	550	496	1021	0	0	0	
8	0	0	0	0	546	493	1021	0	0	0	
9	0	0	0	0	542	490	1021	0	0	0	
10	0	0	0	0	539	487	1021	0	0	0	
11	0	0	0	0	536	484	1021	0	0	0	
12	0	0	0	0	533	482	1021	0	0	0	
13	0	0	0	0	532	482	1021	0	0	0	
14	0	0	0	0	532	482	1021	0	0	0	
15	0	0	0	0	534	483	1021	0	0	0	
0	0	0	0	0	536	485	1021	0	0	0	
1	0	0	0	0	539	487	1021	0	0	0	
2	0	0	0	0	542	490	1021	0	0	0	
3	0	0	0	0	545	493	1021	0	0	0	
4	0	0	0	0	549	496	1021	0	0	0	
5	0	0	0	0	552	499	1021	0	0	0	
6	0	0	0	0	555	500	1021	0	0	0	
7	0	0	0	0	557	502	1021	0	0	0	
8	0	0	0	0	558	503	1021	0	0	0	
9	0	0	0	0	559	503	1021	0	0	0	
10	0	0	0	0	558	503	1021	0	0	0	
11	0	0	0	0	557	502	1021	0	0	0	
12	0	0	0	0	556	501	1021	0	0	0	
13	0	0	0	0	556	499	1021	0	0	0	
14	0	0	0	0	555	498	1021	0	0	0	
15	0	0	0	0	554	497	1021	0	0	0	
0	0	0	0	0	554	496	1021	0	0	0	
1	0	0	0	0	554	496	1021	0	0	0	
2	0	0	0	0	553	495	1021	0	0	0	
3	0	0	0	0	554	495	1021	0	0	0	
4	0	0	0	0	554	496	1021	0	0	0	
5	0	0	0	0	555	496	1021	0	0	0	
6	0	0	0	0	556	498	1021	0	0	0	
7	0	0	0	0	557	499	1021	0	0	0	
8	0	0	0	0	559	502	1021	0	0	0	
9	0	0	0	0	561	504	1021	0	0	0	
10	0	0	0	0	563	506	1021	0	0	0	
11	0	0	0	0	565	508	1021	0	0	0	
12	0	0	0	0	567	510	1021	0	0	0	
13	0	0	0	0	568	511	1021	0	0	0	
14	0	0	0	0	569	512	1021	0	0	0	
15	0	0	0	0	570	514	1021	0	0	0	
0	0	0	0	0	571	514	1021	0	0	0	
1	0	0	0	0	570	514	1021	0	0	0	
2	0	0	0	0	569	513	1021	0	0	0	
3	0	0	0	0	568	512	1021	0	0	0	
4	0	0	0	0	566	510	1021	0	0	0	
5	0	0	0	0	564	508	1021	0	0	0	
6	0	0	0	0	561	505	1021	0	0	0	
7	0	0	0	0	559	504	1021	0	0	0	
8	0	0	0	0	556	502	1021	0	0	0	
9	0	0	0	0	554	500	1021	0	0	0	
10	0	0	0	0	552	499	1021	0	0	0	
11	0	0	0	0	551	499	1021	0	0	0	
12	0	0	0	0	551	498	1021	0	0	0	
13	0	0	0	0	551	499	1021	0	0	0	
14	0	0	0	0	550	499	1021	0	0	0	
15	0	0	0	0	551	499	1021	0	0	0	
0	0	0	0	0	551	500	1021	0	0	0	
1	0	0	0	0	553	501	1021	0	0	0	
2	0	0	0	0	554	502	1021	0	0	0	
3	0	0	0	0	555	504	1021	0	0	0	
4	0	0	0	0	557	504	1021	0	0	0	
5	0	0	0	0	559	505	1021	0	0	0	
6	0	0	0	0	560	506	1021	0	0	0	
7	0	0	0	0	560	507	1021	0	0	0	
8	0	0	0	0	561	507	1021	0	0	0	
9	0	0	0	0	562	508	1021	0	0	0	
10	0	0	0	0	563	508	1021	0	0	0	
11	0	0	0	0	565	509	1021	0	0	0	
12	0	0	0	0	566	509	1021	0	0	0	
13	0	0	0	0	568	511	1021	0	0	0	
14	0	0	0	0	569	512	1021	0	0	0	
15	0	0	0	0	571	513	1021	0	0	0	
0	0	0	0	0	572	514	1021	0	0	0	
1	0	0	0	0	574	515	1021	0	0	0	
2	0	0	0	0	574	516	1021	0	0	0	
3	0	0	0	0	574	516	1021	0	0	0	
4	0	0	0	0	573	515	1021	0	0	0	
5	0	0	0	0	570	513	1021	0	0	0	
6	0	0	0	0	567	510	1021	0	0	0	
7	0	0	0	0	562	507	1021	0	0	0	
8	0	0	0	0	557	502	1021	0	0	0	
9	0	0	0	0	551	497	1021	0	0	0	
10	0	0	0	0	546	492	1021	0	0	0	
11	0	0	0	0	540	487	1021	0	0	0	
12	0	0	0	0	536	483	1021	0	0	0	
13	0	0	0	0	532	479	1021	0	0	0	
14	0	0	0	0	530	476	1021	0	0	0	
15	0	0	0	0	529	475	1021	0	0	0	
0	0	0	0	0	530	475	1021	0	0	0	
1	0	0	0	0	531	476	1021	0	0	0	
2	0	0	0	0	535	478	1021	0	0	0	
3	0	0	0	0	539	481	1021	0	0	0	
4	0	0	0	0	543	484	1021	0	0	0	
5	0	0	0	0	548	487	1021	0	0	0	
6	0	0	0	0	552	492	1021	0	0	0	
7	0	0	0	0	557	495	1021	0	0	0	
8	0	0	0	0	561	499	1021	0	0	0	
9	0	0	0	0	565	502	1021	0	0	0	
10	0	0	0	0	567	504	1021	0	0	0	
11	0	0	0	0	569	506	1021	0	0	0	
12	0	0	0	0	570	507	1021	0	0	0	
13	0	0	0	0	569	507	1021	0	0	0	
14	0	0	0	0	568	506	1021	0	0	0	
15	0	0	0	0	566	504	1021	0	0	0	
0	0	0	0	0	563	502	1021	0	0	0	
1	0	0	0	0	559	499	1021	0	0	0	
2	0	0	0	0	555	496	1021	0	0	0	
3	0	0	0	0	551	492	1021	0	0	0	
4	0	0	0	0	546	489	1021	0	0	0	
5	0	0	0	0	542	486	1021	0	0	0	
6	0	0	0	0	538	483	1021	0	0	0	
7	0	0	0	0	536	480	1021	0	0	0	
8	0	0	0	0	533	478	1021	0	0	0	
9	0	0	0	0	532	478	1020	0	0	0	
10	0	0	0	0	532	478	1020	0	0	0	
11	0	0	0	0	533	479	1021	0	0	0	
12	0	0	0	0	536	480	1021	0	0	0	
13	0	0	0	0	539	483	1021	0	0	0	
14	0	0	0	0	542	485	1021	0	0	0	
15	0	0	0	0	545	487	1021	0	0	0	
0	0	0	0	0	549	491	1021	0	0	0	
1	0	0	0	0	552	493	1021	0	0	0	
2	0	0	0	0	555	495	1021	0	0	0	
3	0	0	0	0	556	496	1021	0	0	0	
4	0	0	0	0	557	497	1021	0	0	0	
5	0	0	0	0	557	497	1021	0	0	0	
6	0	0	0	0	556	496	1021	0	0	0	
7	0	0	0	0	555	495	1021	0	0	0	
8	0	0	0	0	554	495	1021	0	0	0	
9	0	0	0	0	552	494	1021	0	0	0	
10	0	0	0	0	551	494	1021	0	0	0	
11	0	0	0	0	551	493	1021	0	0	0	
12	0	0	0	0	550	494	1021	0	0	0	
13	0	0	0	0	550	493	1021	0	0	0	
14	0	0	0	0	549	493	1021	0	0	0	
15	0	0	0	0	550	494	1021	0	0	0	
0	0	0	0	0	551	494	1021	0	0	0	
1	0	0	0	0	551	494	1021	0	0	0	
2	0	0	0	0	552	493	1021	0	0	0	
3	0	0	0	0	552	492	1021	0	0	0	
4	0	0	0	0	552	491	1021	0	0	0	
5	0	0	0	0	552	490	1021	0	0	0	
6	0	0	0	0	551	488	1021	0	0	0	
7	0	0	0	0	551	487	1020	0	0	0	
8	0	0	0	0	550	487	1021	0	0	0	
9	0	0	0	0	548	487	1021	0	0	0	
10	0	0	0	0	548	487	1021	0	0	0	
11	0	0	0	0	548	487	1021	0	0	0	
12	0	0	0	0	549	489	1021	0	0	0	
13	0	0	0	0	550	491	1021	0	0	0	
14	0	0	0	0	552	493	1021	0	0	0	
15	0	0	0	0	555	497	1021	0	0	0	
0	0	0	0	0	557	500	1021	0	0	0	
1	0	0	0	0	560	503	1021	0	0	0	
2	0	0	0	0	563	506	1021	0	0	0	
3	0	0	0	0	564	508	1021	0	0	0	
4	0	0	0	0	564	509	1021	0	0	0	
5	0	0	0	0	563	508	1021	0	0	0	
6	0	0	0	0	560	506	1021	0	0	0	
7	0	0	0	0	556	502	1021	0	0	0	
8	0	0	0	0	551	497	1021	0	0	0	
9	0	0	0	0	544	491	1021	0	0	0	
10	0	0	0	0	537	484	1021	0	0	0	
11	0	0	0	0	531	477	1021	0	0	0	
12	0	0	0	0	524	470	1021	0	0	0	
13	0	0	0	0	518	464	1021	0	0	0	
14	0	0	0	0	514	460	1021	0	0	0	
15	0	0	0	0	513	459	1021	0	0	0	
0	0	0	0	0	515	460	1021	0	0	0	
1	0	0	0	0	519	464	1021	0	0	0	
2	0	0	0	0	526	470	1021	0	0	0	
3	0	0	0	0	535	478	1021	0	0	0	
4	0	0	0	0	545	487	1021	0	0	0	
5	0	0	0	0	556	497	1021	0	0	0	
6	0	0	0	0	566	506	1021	0	0	0	
7	0	0	0	0	576	515	1021	0	0	0	
8	0	0	0	0	584	524	1021	0	0	0	
9	0	0	0	0	591	530	1021	0	0	0	
10	0	0	0	0	596	534	1021	0	0	0	
11	0	0	0	0	598	536	1021	0	0	0	
12	0	0	0	0	598	537	1021	0	0	0	
13	0	0	0	0	597	536	1021	0	0	0	
14	0	0	0	0	594	533	1021	0	0	0	
15	0	0	0	0	590	529	1021	0	0	0	
0	0	0	0	0	585	524	1021	0	0	0	
1	0	0	0	0	579	520	1021	0	0	0	
2	0	0	0	0	574	515	1021	0	0	0	
3	0	0	0	0	569	511	1021	0	0	0	
4	0	0	0	0	564	507	1021	0	0	0	
5	0	0	0	0	559	504	1021	0	0	0	
6	0	0	0	0	555	500	1021	0	0	0	
7	0	0	0	0	551	497	1021	0	0	0	
8	0	0	0	0	547	495	1021	0	0	0	
9	0	0	0	0	545	493	1021	0	0	0	
10	0	0	0	0	542	491	1021	0	0	0	
11	0	0	0	0	541	489	1021	0	0	0	
12	0	0	0	0	540	488	1021	0	0	0	
13	0	0	0	0	539	487	1021	0	0	0	
14	0	0	0	0	537	485	1021	0	0	0	
15	0	0	0	0	536	483	1021	0	0	0	
0	0	0	0	0	536	481	1021	0	0	0	
1	0	0	0	0	535	480	1021	0	0	0	
2	0	0	0	0	535	478	1021	0	0	0	
3	0	0	0	0	534	477	1021	0	0	0	
4	0	0	0	0	534	475	1021	0	0	0	
5	0	0	0	0	534	475	1021	0	0	0	
6	0	0	0	0	535	475	1021	0	0	0	
7	0	0	0	0	536	476	1021	0	0	0	
8	0	0	0	0	539	477	1020	0	0	0	
9	0	0	0	0	541	480	1021	0	0	0	
10	0	0	0	0	545	483	1021	0	0	0	
11	0	0	0	0	548	486	1021	0	0	0	
12	0	0	0	0	551	489	1021	0	0	0	
13	0	0	0	0	555	492	1021	0	0	0	
14	0	0	0	0	557	494	1021	0	0	0	
15	0	0	0	0	559	496	1021	0	0	0	
0	0	0	0	0	559	497	1021	0	0	0	
1	0	0	0	0	559	498	1021	0	0	0	
2	0	0	0	0	558	497	1021	0	0	0	
3	0	0	0	0	556	496	1021	0	0	0	
4	0	0	0	0	555	495	1021	0	0	0	
5	0	0	0	0	552	492	1021	0	0	0	
6	0	0	0	0	550	490	1021	0	0	0	
7	0	0	0	0	547	488	1021	0	0	0	
8	0	0	0	0	546	486	1021	0	0	0	
9	0	0	0	0	544	484	1021	0	0	0	
10	0	0	0	0	543	482	1021	0	0	0	
11	0	0	0	0	543	481	1021	0	0	0	
12	0	0	0	0	543	480	1021	0	0	0	
13	0	0	0	0	543	480	1021	0	0	0	
14	0	0	0	0	544	480	1021	0	0	0	
15	0	0	0	0	546	481	1021	0	0	0	
0	0	0	0	0	547	483	1021	0	0	0	
1	0	0	0	0	548	484	1021	0	0	0	
2	0	0	0	0	550	486	1021	0	0	0	
3	0	0	0	0	551	487	1021	0	0	0	
4	0	0	0	0	552	488	1021	0	0	0	
5	0	0	0	0	551	489	1021	0	0	0	
6	0	0	0	0	551	488	1021	0	0	0	
7	0	0	0	0	550	488	1021	0	0	0	
8	0	0	0	0	550	488	1021	0	0	0	
9	0	0	0	0	549	488	1021	0	0	0	
10	0	0	0	0	549	488	1021	0	0	0	
11	0	0	0	0	549	488	1021	0	0	0	
12	0	0	0	0	550	487	1021	0	0	0	
13	0	0	0	0	551	488	1021	0	0	0	
14	0	0	0	0	551	489	1021	0	0	0	
15	0	0	0	0	553	489	1021	0	0	0	
0	0	0	0	0	554	490	1021	0	0	0	
1	0	0	0	0	555	492	1021	0	0	0	
2	0	0	0	0	557	493	1021	0	0	0	
3	0	0	0	0	558	494	1021	0	0	0	
4	0	0	0	0	559	495	1021	0	0	0	
5	0	0	0	0	559	495	1021	0	0	0	
6	0	0	0	0	559	496	1021	0	0	0	
7	0	0	0	0	559	496	1021	0	0	0	
8	0	0	0	0	559	496	1021	0	0	0	
9	0	0	0	0	558	495	1020	0	0	0	
10	0	0	0	0	556	494	1021	0	0	0	
11	0	0	0	0	554	492	1021	0	0	0	
12	0	0	0	0	553	491	1021	0	0	0	
13	0	0	0	0	551	489	1021	0	0	0	
14	0	0	0	0	550	487	1021	0	0	0	
15	0	0	0	0	548	486	1021	0	0	0	
0	0	0	0	0	547	485	1021	0	0	0	
1	0	0	0	0	547	484	1021	0	0	0	
2	0	0	0	0	547	483	1021	0	0	0	
3	0	0	0	0	548	484	1021	0	0	0	
4	0	0	0	0	549	484	1021	0	0	0	
5	0	0	0	0	550	486	1021	0	0	0	
6	0	0	0	0	552	487	1021	0	0	0	
7	0	0	0	0	555	490	1021	0	0	0	
8	0	0	0	0	559	494	1021	0	0	0	
9	0	0	0	0	563	498	1021	0	0	0	
10	0	0	0	0	567	502	1021	0	0	0	
11	0	0	0	0	571	507	1021	0	0	0	
12	0	0	0	0	575	511	1021	0	0	0	
13	0	0	0	0	577	515	1021	0	0	0	
14	0	0	0	0	579	516	1021	0	0	0	
15	0	0	0	0	579	517	1021	0	0	0	
0	0	0	0	0	577	517	1021	0	0	0	
1	0	0	0	0	575	515	1021	0	0	0	
2	0	0	0	0	572	513	1021	0	0	0	
3	0	0	0	0	569	511	1021	0	0	0	
4	0	0	0	0	565	507	1021	0	0	0	
5	0	0	0	0	561	504	1021	0	0	0	
6	0	0	0	0	558	501	1021	0	0	0	
7	0	0	0	0	555	498	1021	0	0	0	
8	0	0	0	0	552	496	1021	0	0	0	
9	0	0	0	0	550	493	1021	0	0	0	
10	0	0	0	0	548	491	1021	0	0	0	
11	0	0	0	0	546	489	1021	0	0	0	
12	0	0	0	0	544	487	1021	0	0	0	
13	0	0	0	0	543	486	1021	0	0	0	
14	0	0	0	0	541	485	1021	0	0	0	
15	0	0	0	0	540	484	1021	0	0	0	
0	0	0	0	0	540	483	1021	0	0	0	
1	0	0	0	0	539	482	1021	0	0	0	
2	0	0	0	0	539	481	1021	0	0	0	
3	0	0	0	0	539	482	1021	0	0	0	
4	0	0	0	0	540	482	1021	0	0	0	
5	0	0	0	0	542	483	1021	0	0	0	
6	0	0	0	0	544	484	1021	0	0	0	
7	0	0	0	0	545	484	1021	0	0	0	
8	0	0	0	0	546	485	1021	0	0	0	
9	0	0	0	0	547	485	1021	0	0	0	
10	0	0	0	0	547	484	1021	0	0	0	
11	0	0	0	0	546	484	1021	0	0	0	
12	0	0	0	0	545	483	1021	0	0	0	
13	0	0	0	0	543	483	1021	0	0	0	
14	0	0	0	0	543	482	1021	0	0	0	
15	0	0	0	0	542	482	1021	0	0	0	
0	0	0	0	0	542	482	1021	0	0	0	
1	0	0	0	0	541	481	1021	0	0	0	
2	0	0	0	0	540	481	1021	0	0	0	
3	0	0	0	0	540	480	1021	0	0	0	
4	0	0	0	0	538	478	1021	0	0	0	
5	0	0	0	0	537	476	1021	0	0	0	
6	0	0	0	0	534	474	1021	0	0	0	
7	0	0	0	0	532	472	1021	0	0	0	
8	0	0	0	0	530	470	1021	0	0	0	
9	0	0	0	0	527	468	1021	0	0	0	
10	0	0	0	0	526	467	1021	0	0	0	
11	0	0	0	0	525	467	1021	0	0	0	
12	0	0	0	0	525	466	1021	0	0	0	
13	0	0	0	0	526	467	1021	0	0	0	
14	0	0	0	0	527	469	1021	0	0	0	
15	0	0	0	0	529	471	1021	0	0	0	
0	0	0	0	0	531	474	1021	0	0	0	
1	0	0	0	0	534	477	1021	0	0	0	
2	0	0	0	0	537	480	1021	0	0	0	
3	0	0	0	0	541	484	1021	0	0	0	
4	0	0	0	0	544	487	1021	0	0	0	
5	0	0	0	0	547	490	1021	0	0	0	
6	0	0	0	0	550	492	1021	0	0	0	
7	0	0	0	0	551	494	1021	0	0	0	
8	0	0	0	0	552	494	1021	0	0	0	
9	0	0	0	0	552	494	1021	0	0	0	
10	0	0	0	0	551	493	1021	0	0	0	
11	0	0	0	0	550	491	1021	0	0	0	
12	0	0	0	0	548	489	1021	0	0	0	
13	0	0	0	0	546	487	1021	0	0	0	
14	0	0	0	0	544	484	1021	0	0	0	
15	0	0	0	0	542	482	1021	0	0	0	
0	0	0	0	0	540	480	1021	0	0	0	
1	0	0	0	0	539	479	1021	0	0	0	
2	0	0	0	0	539	478	1021	0	0	0	
3	0	0	0	0	538	477	1021	0	0	0	
4	0	0	0	0	537	477	1021	0	0	0	
5	0	0	0	0	537	478	1021	0	0	0	
6	0	0	0	0	538	478	1021	0	0	0	
7	0	0	0	0	538	479	1021	0	0	0	
8	0	0	0	0	538	480	1021	0	0	0	
9	0	0	0	0	539	481	1021	0	0	0	
10	0	0	0	0	539	481	1021	0	0	0	
11	0	0	0	0	539	481	1021	0	0	0	
12	0	0	0	0	539	482	1021	0	0	0	
13	0	0	0	0	540	483	1021	0	0	0	
14	0	0	0	0	541	483	1021	0	0	0	
15	0	0	0	0	542	483	1021	0	0	0	
0	0	0	0	0	544	484	1021	0	0	0	
1	0	0	0	0	545	484	1021	0	0	0	
2	0	0	0	0	547	485	1021	0	0	0	
3	0	0	0	0	549	486	1021	0	0	0	
4	0	0	0	0	550	485	1021	0	0	0	
5	0	0	0	0	551	486	1021	0	0	0	
6	0	0	0	0	551	487	1021	0	0	0	
7	0	0	0	0	551	487	1021	0	0	0	
8	0	0	0	0	550	488	1020	0	0	0	
9	0	0	0	0	549	488	1021	0	0	0	
10	0	0	0	0	547	489	1021	0	0	0	
11	0	0	0	0	546	490	1021	0	0	0	
12	0	0	0	0	544	490	1021	0	0	0	
13	0	0	0	0	543	490	1021	0	0	0	
14	0	0	0	0	542	490	1021	0	0	0	
15	0	0	0	0	541	491	1021	0	0	0	
0	0	0	0	0	541	491	1021	0	0	0	
1	0	0	0	0	541	491	1021	0	0	0	
2	0	0	0	0	542	490	1021	0	0	0	
3	0	0	0	0	542	490	1021	0	0	0	
4	0	0	0	0	543	489	1021	0	0	0	
5	0	0	0	0	543	488	1021	0	0	0	
6	0	0	0	0	543	486	1021	0	0	0	
7	0	0	0	0	542	484	1021	0	0	0	
8	0	0	0	0	542	482	1021	0	0	0	
9	0	0	0	0	540	480	1021	0	0	0	
10	0	0	0	0	540	479	1021	0	0	0	
11	0	0	0	0	538	478	1021	0	0	0	
12	0	0	0	0	537	477	1021	0	0	0	
13	0	0	0	0	537	477	1021	0	0	0	
14	0	0	0	0	537	478	1021	0	0	0	
15	0	0	0	0	538	480	1021	0	0	0	
0	0	0	0	0	539	481	1021	0	0	0	
1	0	0	0	0	540	483	1021	0	0	0	
2	0	0	0	0	542	486	1021	0	0	0	
3	0	0	0	0	544	489	1021	0	0	0	
4	0	0	0	0	546	491	1021	0	0	0	
5	0	0	0	0	548	493	1021	0	0	0	
6	0	0	0	0	550	494	1021	0	0	0	
7	0	0	0	0	550	494	1021	0	0	0	
8	0	0	0	0	551	495	1021	0	0	0	
9	0	0	0	0	550	494	1021	0	0	0	
10	0	0	0	0	550	494	1021	0	0	0	
11	0	0	0	0	550	493	1021	0	0	0	
12	0	0	0	0	550	493	1021	0	0	0	
13	0	0	0	0	550	493	1021	0	0	0	
14	0	0	0	0	551	494	1021	0	0	0	
15	0	0	0	0	551	495	1021	0	0	0	
0	0	0	0	0	553	496	1021	0	0	0	
1	0	0	0	0	554	497	1021	0	0	0	
2	0	0	0	0	555	498	1021	0	0	0	
3	0	0	0	0	556	499	1021	0	0	0	
4	0	0	0	0	556	499	1021	0	0	0	
5	0	0	0	0	556	499	1021	0	0	0	
6	0	0	0	0	555	497	1021	0	0	0	
7	0	0	0	0	553	496	1021	0	0	0	
8	0	0	0	0	551	495	1021	0	0	0	
9	0	0	0	0	550	493	1021	0	0	0	
10	0	0	0	0	547	491	1021	0	0	0	
11	0	0	0	0	546	490	1021	0	0	0	
12	0	0	0	0	545	489	1021	0	0	0	
13	0	0	0	0	544	488	1021	0	0	0	
14	0	0	0	0	543	487	1021	0	0	0	
15	0	0	0	0	543	487	1021	0	0	0	
0	0	0	0	0	543	487	1021	0	0	0	
1	0	0	0	0	543	487	1021	0	0	0	
2	0	0	0	0	544	488	1021	0	0	0	
3	0	0	0	0	545	489	1021	0	0	0	
4	0	0	0	0	547	491	1021	0	0	0	
5	0	0	0	0	548	493	1021	0	0	0	
6	0	0	0	0	550	495	1021	0	0	0	
7	0	0	0	0	551	496	1021	0	0	0	
8	0	0	0	0	551	497	1021	0	0	0	
9	0	0	0	0	551	498	1021	0	0	0	
10	0	0	0	0	550	498	1021	0	0	0	
11	0	0	0	0	549	497	1021	0	0	0	
12	0	0	0	0	546	495	1021	0	0	0	
13	0	0	0	0	543	493	1021	0	0	0	
14	0	0	0	0	540	491	1021	0	0	0	
15	0	0	0	0	537	489	1021	0	0	0	
0	0	0	0	0	536	487	1021	0	0	0	
1	0	0	0	0	535	486	1021	0	0	0	
2	0	0	0	0	535	485	1021	0	0	0	
3	0	0	0	0	535	485	1021	0	0	0	
4	0	0	0	0	537	486	1021	0	0	0	
5	0	0	0	0	540	487	1021	0	0	0	
6	0	0	0	0	543	489	1021	0	0	0	
7	0	0	0	0	547	492	1021	0	0	0	
8	0	0	0	0	551	495	1021	0	0	0	
9	0	0	0	0	556	497	1021	0	0	0	
10	0	0	0	0	559	500	1021	0	0	0	
11	0	0	0	0	561	502	1021	0	0	0	
12	0	0	0	0	561	502	1021	0	0	0	
13	0	0	0	0	561	501	1021	0	0	0	
14	0	0	0	0	558	499	1021	0	0	0	
15	0	0	0	0	554	496	1021	0	0	0	
0	0	0	0	0	548	492	1021	0	0	0	
1	0	0	0	0	542	487	1021	0	0	0	
2	0	0	0	0	535	481	1021	0	0	0	
3	0	0	0	0	527	476	1021	0	0	0	
4	0	0	0	0	520	470	1021	0	0	0	
5	0	0	0	0	514	464	1021	0	0	0	
6	0	0	0	0	509	460	1021	0	0	0	
7	0	0	0	0	505	456	1021	0	0	0	
8	0	0	0	0	503	455	1021	0	0	0	
9	0	0	0	0	503	454	1021	0	0	0	
10	0	0	0	0	504	454	1021	0	0	0	
11	0	0	0	0	507	455	1021	0	0	0	
12	0	0	0	0	511	458	1021	0	0	0	
13	0	0	0	0	516	462	1021	0	0	0	
14	0	0	0	0	523	466	1021	0	0	0	
15	0	0	0	0	529	472	1021	0	0	0	
0	0	0	0	0	536	476	1021	0	0	0	
1	0	0	0	0	542	481	1021	0	0	0	
2	0	0	0	0	546	485	1021	0	0	0	
3	0	0	0	0	550	489	1021	0	0	0	
4	0	0	0	0	552	491	1021	0	0	0	
5	0	0	0	0	553	493	1021	0	0	0	
6	0	0	0	0	554	495	1021	0	0	0	
7	0	0	0	0	553	495	1021	0	0	0	
8	0	0	0	0	553	496	1021	0	0	0	
9	0	0	0	0	551	496	1021	0	0	0	
10	0	0	0	0	551	496	1021	0	0	0	
11	0	0	0	0	551	496	1021	0	0	0	
12	0	0	0	0	550	496	1021	0	0	0	
13	0	0	0	0	551	497	1021	0	0	0	
14	0	0	0	0	551	497	1021	0	0	0	
15	0	0	0	0	552	497	1021	0	0	0	
0	0	0	0	0	553	498	1021	0	0	0	
1	0	0	0	0	554	499	1021	0	0	0	
2	0	0	0	0	555	499	1021	0	0	0	
3	0	0	0	0	556	499	1021	0	0	0	
4	0	0	0	0	556	499	1021	0	0	0	
5	0	0	0	0	555	498	1021	0	0	0	
6	0	0	0	0	554	498	1021	0	0	0	
7	0	0	0	0	552	498	1021	0	0	0	
8	0	0	0	0	551	498	1021	0	0	0	
9	0	0	0	0	549	497	1021	0	0	0	
10	0	0	0	0	548	497	1021	0	0	0	
11	0	0	0	0	546	495	1021	0	0	0	
12	0	0	0	0	544	494	1021	0	0	0	
13	0	0	0	0	543	492	1021	0	0	0	
14	0	0	0	0	540	490	1021	0	0	0	
15	0	0	0	0	539	487	1020	0	0	0	
0	0	0	0	0	537	486	1021	0	0	0	
1	0	0	0	0	537	485	1021	0	0	0	
2	0	0	0	0	537	484	1021	0	0	0	
3	0	0	0	0	538	484	1021	0	0	0	
4	0	0	0	0	540	486	1021	0	0	0	
5	0	0	0	0	543	487	1021	0	0	0	
6	0	0	0	0	547	491	1021	0	0	0	
7	0	0	0	0	551	495	1021	0	0	0	
8	0	0	0	0	556	499	1021	0	0	0	
9	0	0	0	0	560	503	1021	0	0	0	
10	0	0	0	0	563	506	1021	0	0	0	
11	0	0	0	0	565	508	1021	0	0	0	
12	0	0	0	0	566	510	1021	0	0	0	
13	0	0	0	0	566	510	1021	0	0	0	
14	0	0	0	0	564	508	1021	0	0	0	
15	0	0	0	0	561	506	1021	0	0	0	
0	0	0	0	0	557	503	1021	0	0	0	
1	0	0	0	0	553	499	1021	0	0	0	
2	0	0	0	0	547	494	1021	0	0	0	
3	0	0	0	0	541	489	1021	0	0	0	
4	0	0	0	0	535	484	1021	0	0	0	
5	0	0	0	0	529	479	1021	0	0	0	
6	0	0	0	0	525	475	1021	0	0	0	
7	0	0	0	0	521	472	1021	0	0	0	
8	0	0	0	0	518	471	1020	0	0	0	
9	0	0	0	0	516	470	1021	0	0	0	
10	0	0	0	0	516	471	1021	0	0	0	
11	0	0	0	0	516	472	1021	0	0	0	
12	0	0	0	0	518	475	1021	0	0	0	
13	0	0	0	0	520	477	1021	0	0	0	
14	0	0	0	0	523	480	1021	0	0	0	
15	0	0	0	0	526	483	1021	0	0	0	
0	0	0	0	0	530	486	1021	0	0	0	
1	0	0	0	0	535	489	1021	0	0	0	
2	0	0	0	0	539	491	1021	0	0	0	
3	0	0	0	0	543	494	1021	0	0	0	
4	0	0	0	0	546	496	1021	0	0	0	
5	0	0	0	0	549	496	1021	0	0	0	
6	0	0	0	0	551	497	1021	0	0	0	
7	0	0	0	0	551	496	1021	0	0	0	
8	0	0	0	0	551	495	1021	0	0	0	
9	0	0	0	0	549	493	1021	0	0	0	
10	0	0	0	0	545	489	1021	0	0	0	
11	0	0	0	0	541	485	1021	0	0	0	
12	0	0	0	0	535	480	1021	0	0	0	
13	0	0	0	0	528	475	1021	0	0	0	
14	0	0	0	0	521	469	1021	0	0	0	
15	0	0	0	0	514	464	1021	0	0	0	
0	0	0	0	0	507	458	1021	0	0	0	
1	0	0	0	0	499	452	1021	0	0	0	
2	0	0	0	0	491	446	1021	0	0	0	
3	0	0	0	0	483	439	1021	0	0	0	
4	0	0	0	0	475	432	1021	0	0	0	
5	0	0	0	0	465	423	1021	0	0	0	
6	0	0	0	0	455	412	1021	0	0	0	
7	0	0	0	0	444	401	1021	0	0	0	
8	0	0	0	0	432	388	1021	0	0	0	
9	0	0	0	0	418	373	1021	0	0	0	
10	0	0	0	0	403	357	1021	0	0	0	
11	0	0	0	0	386	340	1021	0	0	0	
12	0	0	0	0	369	321	1021	0	0	0	
13	0	0	0	0	351	304	1021	0	0	0	
14	0	0	0	0	334	286	1021	0	0	0	
15	0	0	0	0	318	271	1021	0	0	0	
0	0	0	0	0	304	256	1021	0	0	0	
1	0	0	0	0	292	246	1021	0	0	0	
2	0	0	0	0	286	239	1021	0	0	0	
3	0	0	0	0	284	237	1021	0	0	0	
4	0	0	0	0	287	239	1021	0	0	0	
5	0	0	0	0	295	246	1021	0	0	0	
6	0	0	0	0	309	257	1021	0	0	0	
7	0	0	0	0	327	273	1021	0	0	0	
8	0	0	0	0	348	292	1021	0	0	0	
9	0	0	0	0	373	313	1020	0	0	0	
10	0	0	0	0	399	336	1021	0	0	0	
11	0	0	0	0	426	359	1021	0	0	0	
12	0	0	0	0	452	382	1021	0	0	0	
13	0	0	0	0	476	404	1021	0	0	0	
14	0	0	0	0	498	424	1021	0	0	0	
15	0	0	0	0	517	442	1021	0	0	0	
0	0	0	0	0	531	457	1021	0	0	0	
1	0	0	0	0	544	470	1021	0	0	0	
2	0	0	0	0	552	480	1021	0	0	0	
3	0	0	0	0	558	488	1021	0	0	0	
4	0	0	0	0	560	494	1021	0	0	0	
5	0	0	0	0	560	497	1021	0	0	0	
6	0	0	0	0	559	499	1021	0	0	0	
7	0	0	0	0	556	500	1021	0	0	0	
8	0	0	0	0	553	500	1021	0	0	0	
9	0	0	0	0	550	499	1021	0	0	0	
10	0	0	0	0	545	498	1021	0	0	0	
11	0	0	0	0	542	496	1021	0	0	0	
12	0	0	0	0	540	495	1021	0	0	0	
13	0	0	0	0	537	493	1021	0	0	0	
14	0	0	0	0	536	491	1021	0	0	0	
15	0	0	0	0	535	488	1021	0	0	0	
0	0	0	0	0	536	487	1021	0	0	0	
1	0	0	0	0	536	486	1021	0	0	0	
2	0	0	0	0	538	484	1021	0	0	0	
3	0	0	0	0	540	483	1021	0	0	0	
4	0	0	0	0	541	483	1021	0	0	0	
5	0	0	0	0	543	483	1021	0	0	0	
6	0	0	0	0	544	483	1021	0	0	0	
7	0	0	0	0	545	483	1021	0	0	0	
8	0	0	0	0	545	483	1021	0	0	0	
9	0	0	0	0	545	484	1021	0	0	0	
10	0	0	0	0	544	484	1021	0	0	0	
11	0	0	0	0	543	485	1021	0	0	0	
12	0	0	0	0	542	486	1021	0	0	0	
13	0	0	0	0	541	487	1021	0	0	0	
14	0	0	0	0	541	488	1021	0	0	0	
15	0	0	0	0	542	491	1021	0	0	0	
0	0	0	0	0	544	494	1021	0	0	0	
1	0	0	0	0	546	497	1021	0	0	0	
2	0	0	0	0	549	499	1021	0	0	0	
3	0	0	0	0	552	502	1021	0	0	0	
4	0	0	0	0	555	504	1021	0	0	0	
5	0	0	0	0	557	506	1021	0	0	0	
6	0	0	0	0	560	507	1021	0	0	0	
7	0	0	0	0	561	508	1021	0	0	0	
8	0	0	0	0	561	508	1021	0	0	0	
9	0	0	0	0	562	508	1021	0	0	0	
10	0	0	0	0	562	507	1021	0	0	0	
11	0	0	0	0	562	507	1021	0	0	0	
12	0	0	0	0	562	506	1021	0	0	0	
13	0	0	0	0	561	505	1021	0	0	0	
14	0	0	0	0	561	506	1021	0	0	0	
15	0	0	0	0	560	506	1021	0	0	0	
0	0	0	0	0	561	507	1021	0	0	0	
1	0	0	0	0	561	508	1021	0	0	0	
2	0	0	0	0	561	509	1021	0	0	0	
3	0	0	0	0	562	510	1021	0	0	0	
4	0	0	0	0	562	510	1021	0	0	0	
5	0	0	0	0	562	509	1021	0	0	0	
6	0	0	0	0	561	508	1021	0	0	0	
7	0	0	0	0	559	507	1021	0	0	0	
8	0	0	0	0	556	505	1021	0	0	0	
9	0	0	0	0	553	503	1021	0	0	0	
10	0	0	0	0	551	500	1021	0	0	0	
11	0	0	0	0	547	498	1021	0	0	0	
12	0	0	0	0	544	495	1021	0	0	0	
13	0	0	0	0	542	494	1021	0	0	0	
14	0	0	0	0	541	493	1021	0	0	0	
15	0	0	0	0	541	493	1021	0	0	0	
0	0	0	0	0	542	494	1021	0	0	0	
1	0	0	0	0	544	496	1021	0	0	0	
2	0	0	0	0	549	499	1021	0	0	0	
3	0	0	0	0	553	503	1021	0	0	0	
4	0	0	0	0	559	507	1021	0	0	0	
5	0	0	0	0	564	511	1021	0	0	0	
6	0	0	0	0	569	515	1021	0	0	0	
7	0	0	0	0	574	519	1021	0	0	0	
8	0	0	0	0	579	523	1021	0	0	0	
9	0	0	0	0	581	525	1021	0	0	0	
10	0	0	0	0	583	527	1021	0	0	0	
11	0	0	0	0	584	527	1021	0	0	0	
12	0	0	0	0	583	526	1021	0	0	0	
13	0	0	0	0	580	523	1021	0	0	0	
14	0	0	0	0	576	519	1021	0	0	0	
15	0	0	0	0	570	514	1021	0	0	0	
0	0	0	0	0	563	508	1021	0	0	0	
1	0	0	0	0	556	501	1021	0	0	0	
2	0	0	0	0	549	495	1021	0	0	0	
3	0	0	0	0	542	489	1021	0	0	0	
4	0	0	0	0	536	485	1021	0	0	0	
5	0	0	0	0	532	482	1020	0	0	0	
6	0	0	0	0	529	480	1021	0	0	0	
7	0	0	0	0	529	480	1021	0	0	0	
8	0	0	0	0	530	480	1021	0	0	0	
9	0	0	0	0	531	483	1020	0	0	0	
10	0	0	0	0	535	485	1021	0	0	0	
11	0	0	0	0	538	488	1021	0	0	0	
12	0	0	0	0	542	491	1021	0	0	0	
13	0	0	0	0	545	494	1021	0	0	0	
14	0	0	0	0	548	496	1021	0	0	0	
15	0	0	0	0	549	496	1021	0	0	0	
0	0	0	0	0	550	496	1021	0	0	0	
1	0	0	0	0	550	495	1021	0	0	0	
2	0	0	0	0	549	494	1021	0	0	0	
3	0	0	0	0	547	492	1021	0	0	0	
4	0	0	0	0	545	489	1021	0	0	0	
5	0	0	0	0	543	488	1021	0	0	0	
6	0	0	0	0	542	487	1021	0	0	0	
7	0	0	0	0	541	487	1021	0	0	0	
8	0	0	0	0	540	487	1021	0	0	0	
9	0	0	0	0	540	489	1021	0	0	0	
10	0	0	0	0	541	491	1021	0	0	0	
11	0	0	0	0	542	493	1021	0	0	0	
12	0	0	0	0	543	494	1021	0	0	0	
13	0	0	0	0	543	495	1021	0	0	0	
14	0	0	0	0	543	496	1021	0	0	0	
15	0	0	0	0	543	495	1021	0	0	0	
0	0	0	0	0	543	494	1021	0	0	0	
1	0	0	0	0	541	492	1021	0	0	0	
2	0	0	0	0	539	490	1021	0	0	0	
3	0	0	0	0	536	487	1021	0	0	0	
4	0	0	0	0	535	485	1021	0	0	0	
5	0	0	0	0	533	484	1021	0	0	0	
6	0	0	0	0	532	483	1021	0	0	0	
7	0	0	0	0	533	483	1021	0	0	0	
8	0	0	0	0	534	483	1021	0	0	0	
9	0	0	0	0	536	486	1021	0	0	0	
10	0	0	0	0	539	489	1021	0	0	0	
11	0	0	0	0	543	492	1021	0	0	0	
12	0	0	0	0	545	495	1021	0	0	0	
13	0	0	0	0	548	498	1021	0	0	0	
14	0	0	0	0	551	501	1021	0	0	0	
15	0	0	0	0	552	503	1021	0	0	0	
0	0	0	0	0	553	504	1021	0	0	0	
1	0	0	0	0	553	505	1020	0	0	0	
2	0	0	0	0	552	505	1021	0	0	0	
3	0	0	0	0	551	505	1021	0	0	0	
4	0	0	0	0	549	504	1021	0	0	0	
5	0	0	0	0	546	502	1021	0	0	0	
6	0	0	0	0	542	499	1021	0	0	0	
7	0	0	0	0	537	494	1021	0	0	0	
8	0	0	0	0	532	489	1021	0	0	0	
9	0	0	0	0	527	483	1021	0	0	0	
10	0	0	0	0	521	477	1021	0	0	0	
11	0	0	0	0	516	471	1021	0	0	0	
12	0	0	0	0	511	466	1021	0	0	0	
13	0	0	0	0	508	461	1021	0	0	0	
14	0	0	0	0	505	458	1021	0	0	0	
15	0	0	0	0	504	456	1021	0	0	0	
0	0	0	0	0	504	455	1021	0	0	0	
1	0	0	0	0	505	455	1021	0	0	0	
2	0	0	0	0	509	459	1021	0	0	0	
3	0	0	0	0	513	463	1021	0	0	0	
4	0	0	0	0	519	468	1021	0	0	0	
5	0	0	0	0	526	474	1021	0	0	0	
6	0	0	0	0	532	481	1021	0	0	0	
7	0	0	0	0	539	487	1021	0	0	0	
8	0	0	0	0	545	492	1021	0	0	0	
9	0	0	0	0	550	497	1021	0	0	0	
10	0	0	0	0	553	499	1021	0	0	0	
11	0	0	0	0	555	500	1021	0	0	0	
12	0	0	0	0	555	500	1021	0	0	0	
13	0	0	0	0	554	499	1021	0	0	0	
14	0	0	0	0	552	498	1021	0	0	0	
15	0	0	0	0	550	495	1021	0	0	0	
0	0	0	0	0	547	492	1021	0	0	0	
1	0	0	0	0	544	490	1021	0	0	0	
2	0	0	0	0	543	489	1021	0	0	0	
3	0	0	0	0	541	487	1021	0	0	0	
4	0	0	0	0	541	487	1021	0	0	0	
5	0	0	0	0	541	488	1021	0	0	0	
6	0	0	0	0	542	491	1021	0	0	0	
7	0	0	0	0	544	493	1021	0	0	0	
8	0	0	0	0	547	496	1021	0	0	0	
9	0	0	0	0	549	499	1021	0	0	0	
10	0	0	0	0	551	502	1021	0	0	0	
11	0	0	0	0	554	504	1021	0	0	0	
12	0	0	0	0	555	504	1021	0	0	0	
13	0	0	0	0	555	504	1021	0	0	0	
14	0	0	0	0	553	502	1021	0	0	0	
15	0	0	0	0	551	500	1021	0	0	0	
0	0	0	0	0	548	496	1021	0	0	0	
1	0	0	0	0	544	492	1021	0	0	0	
2	0	0	0	0	540	488	1021	0	0	0	
3	0	0	0	0	536	485	1021	0	0	0	
4	0	0	0	0	534	483	1021	0	0	0	
5	0	0	0	0	533	482	1021	0	0	0	
6	0	0	0	0	534	482	1021	0	0	0	
7	0	0	0	0	535	483	1021	0	0	0	
8	0	0	0	0	537	484	1021	0	0	0	
9	0	0	0	0	539	486	1021	0	0	0	
10	0	0	0	0	541	487	1021	0	0	0	
11	0	0	0	0	544	489	1021	0	0	0	
12	0	0	0	0	547	492	1021	0	0	0	
13	0	0	0	0	551	494	1021	0	0	0	
14	0	0	0	0	554	497	1021	0	0	0	
15	0	0	0	0	557	500	1021	0	0	0	
0	0	0	0	0	559	502	1021	0	0	0	
1	0	0	0	0	560	504	1021	0	0	0	
2	0	0	0	0	561	504	1021	0	0	0	
3	0	0	0	0	560	504	1021	0	0	0	
4	0	0	0	0	558	503	1021	0	0	0	
5	0	0	0	0	555	500	1021	0	0	0	
6	0	0	0	0	551	497	1021	0	0	0	
7	0	0	0	0	547	494	1021	0	0	0	
8	0	0	0	0	543	490	1021	0	0	0	
9	0	0	0	0	539	487	1021	0	0	0	
10	0	0	0	0	536	484	1021	0	0	0	
11	0	0	0	0	533	482	1021	0	0	0	
12	0	0	0	0	532	481	1021	0	0	0	
13	0	0	0	0	532	482	1021	0	0	0	
14	0	0	0	0	534	484	1021	0	0	0	
15	0	0	0	0	536	487	1021	0	0	0	
0	0	0	0	0	540	491	1021	0	0	0	
1	0	0	0	0	543	494	1021	0	0	0	
2	0	0	0	0	547	498	1021	0	0	0	
3	0	0	0	0	551	501	1021	0	0	0	
4	0	0	0	0	553	504	1021	0	0	0	
5	0	0	0	0	555	505	1021	0	0	0	
6	0	0	0	0	556	504	1021	0	0	0	
7	0	0	0	0	554	503	1021	0	0	0	
8	0	0	0	0	551	499	1021	0	0	0	
9	0	0	0	0	548	495	1021	0	0	0	
10	0	0	0	0	543	489	1021	0	0	0	
11	0	0	0	0	537	483	1021	0	0	0	
12	0	0	0	0	531	477	1021	0	0	0	
13	0	0	0	0	527	472	1021	0	0	0	
14	0	0	0	0	523	467	1021	0	0	0	
15	0	0	0	0	520	464	1021	0	0	0	
0	0	0	0	0	519	463	1021	0	0	0	
1	0	0	0	0	518	464	1021	0	0	0	
2	0	0	0	0	519	466	1021	0	0	0	
3	0	0	0	0	522	469	1021	0	0	0	
4	0	0	0	0	525	473	1021	0	0	0	
5	0	0	0	0	529	477	1021	0	0	0	
6	0	0	0	0	532	482	1021	0	0	0	
7	0	0	0	0	536	485	1021	0	0	0	
8	0	0	0	0	539	488	1021	0	0	0	
9	0	0	0	0	540	489	1021	0	0	0	
10	0	0	0	0	540	488	1021	0	0	0	
11	0	0	0	0	538	487	1021	0	0	0	
12	0	0	0	0	536	484	1021	0	0	0	
13	0	0	0	0	534	480	1021	0	0	0	
14	0	0	0	0	530	476	1021	0	0	0	
15	0	0	0	0	527	472	1021	0	0	0	
0	0	0	0	0	524	469	1021	0	0	0	
1	0	0	0	0	523	467	1021	0	0	0	
2	0	0	0	0	522	465	1021	0	0	0	
3	0	0	0	0	522	465	1021	0	0	0	
4	0	0	0	0	523	465	1021	0	0	0	
5	0	0	0	0	524	467	1021	0	0	0	
6	0	0	0	0	526	468	1021	0	0	0	
7	0	0	0	0	527	470	1021	0	0	0	
8	0	0	0	0	529	472	1021	0	0	0	
9	0	0	0	0	531	474	1021	0	0	0	
10	0	0	0	0	532	476	1021	0	0	0	
11	0	0	0	0	534	477	1021	0	0	0	
12	0	0	0	0	534	478	1021	0	0	0	
13	0	0	0	0	533	478	1021	0	0	0	
14	0	0	0	0	532	476	1021	0	0	0	
15	0	0	0	0	531	476	1021	0	0	0	
0	0	0	0	0	530	475	1021	0	0	0	
1	0	0	0	0	529	474	1021	0	0	0	
2	0	0	0	0	529	474	1021	0	0	0	
3	0	0	0	0	529	474	1021	0	0	0	
4	0	0	0	0	529	475	1021	0	0	0	
5	0	0	0	0	531	476	1021	0	0	0	
6	0	0	0	0	533	477	1021	0	0	0	
7	0	0	0	0	536	480	1021	0	0	0	
8	0	0	0	0	540	482	1021	0	0	0	
9	0	0	0	0	543	485	1021	0	0	0	
10	0	0	0	0	547	489	1021	0	0	0	
11	0	0	0	0	551	492	1021	0	0	0	
12	0	0	0	0	555	496	1021	0	0	0	
13	0	0	0	0	557	499	1021	0	0	0	
14	0	0	0	0	558	501	1021	0	0	0	
15	0	0	0	0	558	502	1021	0	0	0	
0	0	0	0	0	557	502	1021	0	0	0	
1	0	0	0	0	555	500	1021	0	0	0	
2	0	0	0	0	551	499	1021	0	0	0	
3	0	0	0	0	548	496	1021	0	0	0	
4	0	0	0	0	545	493	1021	0	0	0	
5	0	0	0	0	542	491	1021	0	0	0	
6	0	0	0	0	540	489	1021	0	0	0	
7	0	0	0	0	539	487	1021	0	0	0	
8	0	0	0	0	539	487	1021	0	0	0	
9	0	0	0	0	539	487	1021	0	0	0	
10	0	0	0	0	540	487	1021	0	0	0	
11	0	0	0	0	542	488	1021	0	0	0	
12	0	0	0	0	544	489	1021	0	0	0	
13	0	0	0	0	545	489	1021	0	0	0	
14	0	0	0	0	547	490	1021	0	0	0	
15	0	0	0	0	547	491	1021	0	0	0	
0	0	0	0	0	547	491	1021	0	0	0	
1	0	0	0	0	545	490	1021	0	0	0	
2	0	0	0	0	543	489	1021	0	0	0	
3	0	0	0	0	541	488	1021	0	0	0	
4	0	0	0	0	538	487	1021	0	0	0	
5	0	0	0	0	535	484	1021	0	0	0	
6	0	0	0	0	532	482	1021	0	0	0	
7	0	0	0	0	530	480	1021	0	0	0	
8	0	0	0	0	527	478	1021	0	0	0	
9	0	0	0	0	525	475	1021	0	0	0	
10	0	0	0	0	524	473	1021	0	0	0	
11	0	0	0	0	523	471	1021	0	0	0	
12	0	0	0	0	523	470	1021	0	0	0	
13	0	0	0	0	525	470	1021	0	0	0	
14	0	0	0	0	528	472	1021	0	0	0	
15	0	0	0	0	532	475	1021	0	0	0	
0	0	0	0	0	538	478	1021	0	0	0	
1	0	0	0	0	544	483	1021	0	0	0	
2	0	0	0	0	551	489	1021	0	0	0	
3	0	0	0	0	558	495	1021	0	0	0	
4	0	0	0	0	564	501	1021	0	0	0	
5	0	0	0	0	568	506	1020	0	0	0	
6	0	0	0	0	573	511	1021	0	0	0	
7	0	0	0	0	575	514	1021	0	0	0	
8	0	0	0	0	575	515	1021	0	0	0	
9	0	0	0	0	573	514	1021	0	0	0	
10	0	0	0	0	568	511	1021	0	0	0	
11	0	0	0	0	561	505	1021	0	0	0	
12	0	0	0	0	553	498	1021	0	0	0	
13	0	0	0	0	543	491	1021	0	0	0	
14	0	0	0	0	535	483	1021	0	0	0	
15	0	0	0	0	527	476	1021	0	0	0	
0	0	0	0	0	519	471	1021	0	0	0	
1	0	0	0	0	515	467	1021	0	0	0	
2	0	0	0	0	513	465	1021	0	0	0	
3	0	0	0	0	513	465	1021	0	0	0	
4	0	0	0	0	514	466	1021	0	0	0	
5	0	0	0	0	517	469	1021	0	0	0	
6	0	0	0	0	521	472	1021	0	0	0	
7	0	0	0	0	526	476	1021	0	0	0	
8	0	0	0	0	531	480	1021	0	0	0	
9	0	0	0	0	535	484	1021	0	0	0	
10	0	0	0	0	539	486	1021	0	0	0	
11	0	0	0	0	541	488	1021	0	0	0	
12	0	0	0	0	543	489	1021	0	0	0	
13	0	0	0	0	543	489	1021	0	0	0	
14	0	0	0	0	543	488	1021	0	0	0	
15	0	0	0	0	541	487	1021	0	0	0	
0	0	0	0	0	540	484	1021	0	0	0	
1	0	0	0	0	536	481	1021	0	0	0	
2	0	0	0	0	533	478	1021	0	0	0	
3	0	0	0	0	530	475	1021	0	0	0	
4	0	0	0	0	527	472	1020	0	0	0	
5	0	0	0	0	525	470	1021	0	0	0	
6	0	0	0	0	525	469	1021	0	0	0	
7	0	0	0	0	525	469	1021	0	0	0	
8	0	0	0	0	527	471	1021	0	0	0	
9	0	0	0	0	529	473	1021	0	0	0	
10	0	0	0	0	533	476	1021	0	0	0	
11	0	0	0	0	537	480	1021	0	0	0	
12	0	0	0	0	541	484	1021	0	0	0	
13	0	0	0	0	545	487	1021	0	0	0	
14	0	0	0	0	548	492	1021	0	0	0	
15	0	0	0	0	551	494	1021	0	0	0	
0	0	0	0	0	552	496	1021	0	0	0	
1	0	0	0	0	552	497	1021	0	0	0	
2	0	0	0	0	552	497	1021	0	0	0	
3	0	0	0	0	550	496	1021	0	0	0	
4	0	0	0	0	549	495	1021	0	0	0	
5	0	0	0	0	547	493	1021	0	0	0	
6	0	0	0	0	544	490	1021	0	0	0	
7	0	0	0	0	541	487	1021	0	0	0	
8	0	0	0	0	537	484	1021	0	0	0	
9	0	0	0	0	535	481	1021	0	0	0	
10	0	0	0	0	532	478	1021	0	0	0	
11	0	0	0	0	529	475	1021	0	0	0	
12	0	0	0	0	527	472	1021	0	0	0	
13	0	0	0	0	524	470	1021	0	0	0	
14	0	0	0	0	523	468	1021	0	0	0	
15	0	0	0	0	521	467	1021	0	0	0	
0	0	0	0	0	520	466	1021	0	0	0	
1	0	0	0	0	519	466	1021	0	0	0	
2	0	0	0	0	519	467	1021	0	0	0	
3	0	0	0	0	519	467	1021	0	0	0	
4	0	0	0	0	520	468	1021	0	0	0	
5	0	0	0	0	521	469	1021	0	0	0	
6	0	0	0	0	522	469	1021	0	0	0	
7	0	0	0	0	524	470	1021	0	0	0	
8	0	0	0	0	524	471	1021	0	0	0	
9	0	0	0	0	525	471	1021	0	0	0	
10	0	0	0	0	526	471	1021	0	0	0	
11	0	0	0	0	525	470	1021	0	0	0	
12	0	0	0	0	525	469	1021	0	0	0	
13	0	0	0	0	524	468	1021	0	0	0	
14	0	0	0	0	523	467	1021	0	0	0	
15	0	0	0	0	522	466	1021	0	0	0	
0	0	0	0	0	520	466	1021	0	0	0	
1	0	0	0	0	519	465	1021	0	0	0	
2	0	0	0	0	519	465	1021	0	0	0	
3	0	0	0	0	519	465	1021	0	0	0	
4	0	0	0	0	518	465	1021	0	0	0	
5	0	0	0	0	519	465	1021	0	0	0	
6	0	0	0	0	519	465	1021	0	0	0	
7	0	0	0	0	520	467	1021	0	0	0	
8	0	0	0	0	522	468	1021	0	0	0	
9	0	0	0	0	524	470	1021	0	0	0	
10	0	0	0	0	527	472	1021	0	0	0	
11	0	0	0	0	529	473	1021	0	0	0	
12	0	0	0	0	532	475	1021	0	0	0	
13	0	0	0	0	535	477	1021	0	0	0	
14	0	0	0	0	537	478	1021	0	0	0	
15	0	0	0	0	539	479	1021	0	0	0	
0	0	0	0	0	540	480	1021	0	0	0	
1	0	0	0	0	542	481	1021	0	0	0	
2	0	0	0	0	543	483	1021	0	0	0	
3	0	0	0	0	543	483	1021	0	0	0	
4	0	0	0	0	543	484	1021	0	0	0	
5	0	0	0	0	543	485	1021	0	0	0	
6	0	0	0	0	543	486	1021	0	0	0	
7	0	0	0	0	543	487	1021	0	0	0	
8	0	0	0	0	544	488	1021	0	0	0	
9	0	0	0	0	544	489	1021	0	0	0	
10	0	0	0	0	545	491	1021	0	0	0	
11	0	0	0	0	547	492	1021	0	0	0	
12	0	0	0	0	548	494	1021	0	0	0	
13	0	0	0	0	550	496	1021	0	0	0	
14	0	0	0	0	552	497	1021	0	0	0	
15	0	0	0	0	553	499	1021	0	0	0	
0	0	0	0	0	555	500	1021	0	0	0	
1	0	0	0	0	557	500	1021	0	0	0	
2	0	0	0	0	558	501	1021	0	0	0	
3	0	0	0	0	558	500	1021	0	0	0	
4	0	0	0	0	557	500	1021	0	0	0	
5	0	0	0	0	557	499	1021	0	0	0	
6	0	0	0	0	556	498	1021	0	0	0	
7	0	0	0	0	555	497	1021	0	0	0	
8	0	0	0	0	553	497	1021	0	0	0	
9	0	0	0	0	551	496	1021	0	0	0	
10	0	0	0	0	551	495	1021	0	0	0	
11	0	0	0	0	548	494	1021	0	0	0	
12	0	0	0	0	547	493	1021	0	0	0	
13	0	0	0	0	544	492	1021	0	0	0	
14	0	0	0	0	542	490	1021	0	0	0	
15	0	0	0	0	540	488	1021	0	0	0	
0	0	0	0	0	537	486	1021	0	0	0	
1	0	0	0	0	535	484	1021	0	0	0	
2	0	0	0	0	532	482	1021	0	0	0	
3	0	0	0	0	529	480	1021	0	0	0	
4	0	0	0	0	527	477	1021	0	0	0	
5	0	0	0	0	526	475	1021	0	0	0	
6	0	0	0	0	524	472	1021	0	0	0	
7	0	0	0	0	523	470	1021	0	0	0	
8	0	0	0	0	521	467	1021	0	0	0	
9	0	0	0	0	521	465	1021	0	0	0	
10	0	0	0	0	520	463	1021	0	0	0	
11	0	0	0	0	520	462	1021	0	0	0	
12	0	0	0	0	520	461	1021	0	0	0	
13	0	0	0	0	521	462	1021	0	0	0	
14	0	0	0	0	523	463	1021	0	0	0	
15	0	0	0	0	526	465	1021	0	0	0	
0	0	0	0	0	529	469	1021	0	0	0	
1	0	0	0	0	533	473	1021	0	0	0	
2	0	0	0	0	536	478	1021	0	0	0	
3	0	0	0	0	540	483	1021	0	0	0	
4	0	0	0	0	544	487	1021	0	0	0	
5	0	0	0	0	547	489	1021	0	0	0	
6	0	0	0	0	549	492	1020	0	0	0	
7	0	0	0	0	550	492	1021	0	0	0	
8	0	0	0	0	550	492	1021	0	0	0	
9	0	0	0	0	548	490	1021	0	0	0	
10	0	0	0	0	545	486	1021	0	0	0	
11	0	0	0	0	542	482	1021	0	0	0	
12	0	0	0	0	537	478	1021	0	0	0	
13	0	0	0	0	534	474	1021	0	0	0	
14	0	0	0	0	529	470	1021	0	0	0	
15	0	0	0	0	526	467	1021	0	0	0	
0	0	0	0	0	524	466	1021	0	0	0	
1	0	0	0	0	523	465	1021	0	0	0	
2	0	0	0	0	522	465	1021	0	0	0	
3	0	0	0	0	523	467	1021	0	0	0	
4	0	0	0	0	524	469	1021	0	0	0	
5	0	0	0	0	526	471	1021	0	0	0	
6	0	0	0	0	527	473	1021	0	0	0	
7	0	0	0	0	529	475	1021	0	0	0	
8	0	0	0	0	531	477	1021	0	0	0	
9	0	0	0	0	533	478	1021	0	0	0	
10	0	0	0	0	534	478	1021	0	0	0	
11	0	0	0	0	535	478	1021	0	0	0	
12	0	0	0	0	536	478	1021	0	0	0	
13	0	0	0	0	537	478	1021	0	0	0	
14	0	0	0	0	537	478	1021	0	0	0	
15	0	0	0	0	538	478	1021	0	0	0	
0	0	0	0	0	538	478	1021	0	0	0	
1	0	0	0	0	539	478	1021	0	0	0	
2	0	0	0	0	538	478	1021	0	0	0	
3	0	0	0	0	538	479	1021	0	0	0	
4	0	0	0	0	538	479	1021	0	0	0	
5	0	0	0	0	537	479	1021	0	0	0	
6	0	0	0	0	537	480	1021	0	0	0	
7	0	0	0	0	536	481	1021	0	0	0	
8	0	0	0	0	536	481	1021	0	0	0	
9	0	0	0	0	536	481	1021	0	0	0	
10	0	0	0	0	535	480	1021	0	0	0	
11	0	0	0	0	534	479	1021	0	0	0	
12	0	0	0	0	532	478	1021	0	0	0	
13	0	0	0	0	530	475	1021	0	0	0	
14	0	0	0	0	528	472	1021	0	0	0	
15	0	0	0	0	525	469	1021	0	0	0	
0	0	0	0	0	521	465	1021	0	0	0	
1	0	0	0	0	518	460	1021	0	0	0	
2	0	0	0	0	513	456	1021	0	0	0	
3	0	0	0	0	508	451	1021	0	0	0	
4	0	0	0	0	504	448	1021	0	0	0	
5	0	0	0	0	500	444	1021	0	0	0	
6	0	0	0	0	497	442	1021	0	0	0	
7	0	0	0	0	496	441	1021	0	0	0	
8	0	0	0	0	496	441	1021	0	0	0	
9	0	0	0	0	498	444	1021	0	0	0	
10	0	0	0	0	501	447	1021	0	0	0	
11	0	0	0	0	506	452	1021	0	0	0	
12	0	0	0	0	512	458	1021	0	0	0	
13	0	0	0	0	519	464	1021	0	0	0	
14	0	0	0	0	526	470	1021	0	0	0	
15	0	0	0	0	534	477	1021	0	0	0	
0	0	0	0	0	542	484	1021	0	0	0	
1	0	0	0	0	549	490	1021	0	0	0	
2	0	0	0	0	555	495	1021	0	0	0	
3	0	0	0	0	560	499	1021	0	0	0	
4	0	0	0	0	564	502	1021	0	0	0	
5	0	0	0	0	566	504	1021	0	0	0	
6	0	0	0	0	566	504	1021	0	0	0	
7	0	0	0	0	564	503	1021	0	0	0	
8	0	0	0	0	561	500	1021	0	0	0	
9	0	0	0	0	556	497	1021	0	0	0	
10	0	0	0	0	550	493	1021	0	0	0	
11	0	0	0	0	543	488	1021	0	0	0	
12	0	0	0	0	536	483	1021	0	0	0	
13	0	0	0	0	529	477	1021	0	0	0	
14	0	0	0	0	523	473	1021	0	0	0	
15	0	0	0	0	518	469	1021	0	0	0	
0	0	0	0	0	514	466	1021	0	0	0	
1	0	0	0	0	511	463	1021	0	0	0	
2	0	0	0	0	510	462	1021	0	0	0	
3	0	0	0	0	509	461	1021	0	0	0	
4	0	0	0	0	511	460	1021	0	0	0	
5	0	0	0	0	512	461	1021	0	0	0	
6	0	0	0	0	515	463	1021	0	0	0	
7	0	0	0	0	518	464	1021	0	0	0	
8	0	0	0	0	521	465	1021	0	0	0	
9	0	0	0	0	524	467	1021	0	0	0	
10	0	0	0	0	527	468	1021	0	0	0	
11	0	0	0	0	528	470	1021	0	0	0	
12	0	0	0	0	530	470	1021	0	0	0	
13	0	0	0	0	531	472	1021	0	0	0	
14	0	0	0	0	532	473	1021	0	0	0	
15	0	0	0	0	535	476	1021	0	0	0	
0	0	0	0	0	537	479	1021	0	0	0	
1	0	0	0	0	539	482	1021	0	0	0	
2	0	0	0	0	542	487	1021	0	0	0	
3	0	0	0	0	546	491	1021	0	0	0	
4	0	0	0	0	549	495	1021	0	0	0	
5	0	0	0	0	552	498	1021	0	0	0	
6	0	0	0	0	554	500	1021	0	0	0	
7	0	0	0	0	555	501	1021	0	0	0	
8	0	0	0	0	555	501	1021	0	0	0	
9	0	0	0	0	553	499	1021	0	0	0	
10	0	0	0	0	551	496	1021	0	0	0	
11	0	0	0	0	546	491	1021	0	0	0	
12	0	0	0	0	540	486	1021	0	0	0	
13	0	0	0	0	534	480	1021	0	0	0	
14	0	0	0	0	527	473	1021	0	0	0	
15	0	0	0	0	520	467	1021	0	0	0	
0	0	0	0	0	514	462	1021	0	0	0	
1	0	0	0	0	509	457	1021	0	0	0	
2	0	0	0	0	506	455	1021	0	0	0	
3	0	0	0	0	504	452	1021	0	0	0	
4	0	0	0	0	504	453	1021	0	0	0	
5	0	0	0	0	505	454	1020	0	0	0	
6	0	0	0	0	509	457	1021	0	0	0	
7	0	0	0	0	515	462	1021	0	0	0	
8	0	0	0	0	521	467	1021	0	0	0	
9	0	0	0	0	528	473	1020	0	0	0	
10	0	0	0	0	536	480	1021	0	0	0	
11	0	0	0	0	544	487	1021	0	0	0	
12	0	0	0	0	552	494	1021	0	0	0	
13	0	0	0	0	558	500	1021	0	0	0	
14	0	0	0	0	562	503	1021	0	0	0	
15	0	0	0	0	564	504	1021	0	0	0	
0	0	0	0	0	563	504	1021	0	0	0	
1	0	0	0	0	559	501	1021	0	0	0	
2	0	0	0	0	553	496	1021	0	0	0	
3	0	0	0	0	544	487	1021	0	0	0	
4	0	0	0	0	533	479	1021	0	0	0	
5	0	0	0	0	521	468	1021	0	0	0	
6	0	0	0	0	509	457	1021	0	0	0	
7	0	0	0	0	496	447	1021	0	0	0	
8	0	0	0	0	484	436	1021	0	0	0	
9	0	0	0	0	472	426	1021	0	0	0	
10	0	0	0	0	461	416	1021	0	0	0	
11	0	0	0	0	451	408	1021	0	0	0	
12	0	0	0	0	443	399	1021	0	0	0	
13	0	0	0	0	434	391	1021	0	0	0	
14	0	0	0	0	426	384	1021	0	0	0	
15	0	0	0	0	419	376	1021	0	0	0	
0	0	0	0	0	412	368	1021	0	0	0	
1	0	0	0	0	403	359	1021	0	0	0	
2	0	0	0	0	395	349	1021	0	0	0	
3	0	0	0	0	385	339	1021	0	0	0	
4	0	0	0	0	374	327	1021	0	0	0	
5	0	0	0	0	363	315	1021	0	0	0	
6	0	0	0	0	350	301	1021	0	0	0	
7	0	0	0	0	337	288	1021	0	0	0	
8	0	0	0	0	323	275	1021	0	0	0	
9	0	0	0	0	311	261	1021	0	0	0	
10	0	0	0	0	299	249	1021	0	0	0	
11	0	0	0	0	289	239	1021	0	0	0	
12	0	0	0	0	283	231	1021	0	0	0	
13	0	0	0	0	278	227	1021	0	0	0	
14	0	0	0	0	278	224	1021	0	0	0	
15	0	0	0	0	281	227	1021	0	0	0	
0	0	0	0	0	288	232	1021	0	0	0	
1	0	0	0	0	300	241	1021	0	0	0	
2	0	0	0	0	314	254	1021	0	0	0	
3	0	0	0	0	333	270	1021	0	0	0	
4	0	0	0	0	354	289	1021	0	0	0	
5	0	0	0	0	377	310	1021	0	0	0	
6	0	0	0	0	403	332	1021	0	0	0	
7	0	0	0	0	429	356	1021	0	0	0	
8	0	0	0	0	455	381	1021	0	0	0	
9	0	0	0	0	482	406	1021	0	0	0	
10	0	0	0	0	508	429	1021	0	0	0	
11	0	0	0	0	531	451	1021	0	0	0	
12	0	0	0	0	551	471	1021	0	0	0	
13	0	0	0	0	568	488	1021	0	0	0	
14	0	0	0	0	583	503	1021	0	0	0	
15	0	0	0	0	592	513	1021	0	0	0	
0	0	0	0	0	598	522	1021	0	0	0	
1	0	0	0	0	601	528	1021	0	0	0	
2	0	0	0	0	601	531	1021	0	0	0	
3	0	0	0	0	600	533	1021	0	0	0	
4	0	0	0	0	596	534	1021	0	0	0	
5	0	0	0	0	590	532	1021	0	0	0	
6	0	0	0	0	585	530	1021	0	0	0	
7	0	0	0	0	579	527	1021	0	0	0	
8	0	0	0	0	572	523	1021	0	0	0	
9	0	0	0	0	565	517	1021	0	0	0	
10	0	0	0	0	557	510	1020	0	0	0	
11	0	0	0	0	549	503	1021	0	0	0	
12	0	0	0	0	541	494	1021	0	0	0	
13	0	0	0	0	534	486	1021	0	0	0	
14	0	0	0	0	527	478	1021	0	0	0	
15	0	0	0	0	520	470	1021	0	0	0	
0	0	0	0	0	515	464	1021	0	0	0	
1	0	0	0	0	512	460	1021	0	0	0	
2	0	0	0	0	510	457	1021	0	0	0	
3	0	0	0	0	510	457	1021	0	0	0	
4	0	0	0	0	511	458	1021	0	0	0	
5	0	0	0	0	515	460	1021	0	0	0	
6	0	0	0	0	520	465	1021	0	0	0	
7	0	0	0	0	526	472	1021	0	0	0	
8	0	0	0	0	534	478	1021	0	0	0	
9	0	0	0	0	541	486	1020	0	0	0	
10	0	0	0	0	549	492	1021	0	0	0	
11	0	0	0	0	556	499	1021	0	0	0	
12	0	0	0	0	562	505	1021	0	0	0	
13	0	0	0	0	566	508	1021	0	0	0	
14	0	0	0	0	568	510	1021	0	0	0	
15	0	0	0	0	568	509	1021	0	0	0	
0	0	0	0	0	567	507	1021	0	0	0	
1	0	0	0	0	563	504	1021	0	0	0	
2	0	0	0	0	558	499	1021	0	0	0	
3	0	0	0	0	552	494	1021	0	0	0	
4	0	0	0	0	546	489	1021	0	0	0	
5	0	0	0	0	541	484	1021	0	0	0	
6	0	0	0	0	536	481	1021	0	0	0	
7	0	0	0	0	533	478	1021	0	0	0	
8	0	0	0	0	531	477	1021	0	0	0	
9	0	0	0	0	530	478	1021	0	0	0	
10	0	0	0	0	532	479	1021	0	0	0	
11	0	0	0	0	534	481	1021	0	0	0	
12	0	0	0	0	537	483	1021	0	0	0	
13	0	0	0	0	540	487	1021	0	0	0	
14	0	0	0	0	543	489	1021	0	0	0	
15	0	0	0	0	546	491	1021	0	0	0	
0	0	0	0	0	548	493	1021	0	0	0	
1	0	0	0	0	549	493	1021	0	0	0	
2	0	0	0	0	550	494	1021	0	0	0	
3	0	0	0	0	549	493	1021	0	0	0	
4	0	0	0	0	548	492	1021	0	0	0	
5	0	0	0	0	547	492	1021	0	0	0	
6	0	0	0	0	546	491	1021	0	0	0	
7	0	0	0	0	546	491	1021	0	0	0	
8	0	0	0	0	546	491	1021	0	0	0	
9	0	0	0	0	547	492	1021	0	0	0	
10	0	0	0	0	548	494	1021	0	0	0	
11	0	0	0	0	550	495	1021	0	0	0	
12	0	0	0	0	552	496	1021	0	0	0	
13	0	0	0	0	553	497	1021	0	0	0	
14	0	0	0	0	554	497	1021	0	0	0	
15	0	0	0	0	553	496	1021	0	0	0	
0	0	0	0	0	551	494	1021	0	0	0	
1	0	0	0	0	548	491	1021	0	0	0	
2	0	0	0	0	544	486	1021	0	0	0	
3	0	0	0	0	539	480	1021	0	0	0	
4	0	0	0	0	533	475	1021	0	0	0	
5	0	0	0	0	527	469	1021	0	0	0	
6	0	0	0	0	523	464	1021	0	0	0	
7	0	0	0	0	519	462	1021	0	0	0	
8	0	0	0	0	518	461	1021	0	0	0	
9	0	0	0	0	519	462	1021	0	0	0	
10	0	0	0	0	522	464	1021	0	0	0	
11	0	0	0	0	527	469	1021	0	0	0	
12	0	0	0	0	534	474	1021	0	0	0	
13	0	0	0	0	542	481	1021	0	0	0	
14	0	0	0	0	550	489	1021	0	0	0	
15	0	0	0	0	558	496	1021	0	0	0	
0	0	0	0	0	566	503	1021	0	0	0	
1	0	0	0	0	572	510	1021	0	0	0	
2	0	0	0	0	579	515	1021	0	0	0	
3	0	0	0	0	583	519	1021	0	0	0	
4	0	0	0	0	584	522	1021	0	0	0	
5	0	0	0	0	585	523	1021	0	0	0	
6	0	0	0	0	583	523	1021	0	0	0	
7	0	0	0	0	580	522	1021	0	0	0	
8	0	0	0	0	575	519	1021	0	0	0	
9	0	0	0	0	570	516	1021	0	0	0	
10	0	0	0	0	563	511	1021	0	0	0	
11	0	0	0	0	556	506	1021	0	0	0	
12	0	0	0	0	549	500	1021	0	0	0	
13	0	0	0	0	542	494	1021	0	0	0	
14	0	0	0	0	536	488	1021	0	0	0	
15	0	0	0	0	531	483	1021	0	0	0	
0	0	0	0	0	527	480	1021	0	0	0	
1	0	0	0	0	527	477	1021	0	0	0	
2	0	0	0	0	526	476	1021	0	0	0	
3	0	0	0	0	528	476	1021	0	0	0	
4	0	0	0	0	531	477	1021	0	0	0	
5	0	0	0	0	536	480	1021	0	0	0	
6	0	0	0	0	541	484	1021	0	0	0	
7	0	0	0	0	547	488	1021	0	0	0	
8	0	0	0	0	553	494	1021	0	0	0	
9	0	0	0	0	559	498	1021	0	0	0	
10	0	0	0	0	563	502	1021	0	0	0	
11	0	0	0	0	566	504	1021	0	0	0	
12	0	0	0	0	566	505	1021	0	0	0	
13	0	0	0	0	563	504	1021	0	0	0	
14	0	0	0	0	560	501	1021	0	0	0	
15	0	0	0	0	553	497	1021	0	0	0	
0	0	0	0	0	547	492	1021	0	0	0	
1	0	0	0	0	539	486	1021	0	0	0	
2	0	0	0	0	532	480	1021	0	0	0	
3	0	0	0	0	525	475	1021	0	0	0	
4	0	0	0	0	520	472	1021	0	0	0	
5	0	0	0	0	518	470	1021	0	0	0	
6	0	0	0	0	517	469	1021	0	0	0	
7	0	0	0	0	520	471	1021	0	0	0	
8	0	0	0	0	524	475	1021	0	0	0	
9	0	0	0	0	531	479	1021	0	0	0	
10	0	0	0	0	537	485	1021	0	0	0	
11	0	0	0	0	545	490	1021	0	0	0	
12	0	0	0	0	551	495	1021	0	0	0	
13	0	0	0	0	556	498	1021	0	0	0	
14	0	0	0	0	559	500	1021	0	0	0	
15	0	0	0	0	561	501	1021	0	0	0	
0	0	0	0	0	560	500	1021	0	0	0	
1	0	0	0	0	557	497	1021	0	0	0	
2	0	0	0	0	552	493	1021	0	0	0	
3	0	0	0	0	545	487	1020	0	0	0	
4	0	0	0	0	537	481	1021	0	0	0	
5	0	0	0	0	529	474	1021	0	0	0	
6	0	0	0	0	521	467	1021	0	0	0	
7	0	0	0	0	514	461	1021	0	0	0	
8	0	0	0	0	508	456	1021	0	0	0	
9	0	0	0	0	503	452	1021	0	0	0	
10	0	0	0	0	501	451	1021	0	0	0	
11	0	0	0	0	502	451	1021	0	0	0	
12	0	0	0	0	505	454	1021	0	0	0	
13	0	0	0	0	510	458	1021	0	0	0	
14	0	0	0	0	517	464	1021	0	0	0	
15	0	0	0	0	526	472	1021	0	0	0	
0	0	0	0	0	536	480	1021	0	0	0	
1	0	0	0	0	545	488	1020	0	0	0	
2	0	0	0	0	555	496	1021	0	0	0	
3	0	0	0	0	564	504	1021	0	0	0	
4	0	0	0	0	571	510	1021	0	0	0	
5	0	0	0	0	575	514	1021	0	0	0	
6	0	0	0	0	579	516	1021	0	0	0	
7	0	0	0	0	579	516	1021	0	0	0	
8	0	0	0	0	577	515	1021	0	0	0	
9	0	0	0	0	574	512	1021	0	0	0	
10	0	0	0	0	568	508	1021	0	0	0	
11	0	0	0	0	562	503	1021	0	0	0	
12	0	0	0	0	555	497	1021	0	0	0	
13	0	0	0	0	548	492	1021	0	0	0	
14	0	0	0	0	542	488	1021	0	0	0	
15	0	0	0	0	536	484	1021	0	0	0	
0	0	0	0	0	533	481	1021	0	0	0	
1	0	0	0	0	530	480	1021	0	0	0	
2	0	0	0	0	529	480	1021	0	0	0	
3	0	0	0	0	530	481	1021	0	0	0	
4	0	0	0	0	532	483	1021	0	0	0	
5	0	0	0	0	535	485	1021	0	0	0	
6	0	0	0	0	537	487	1021	0	0	0	
7	0	0	0	0	540	489	1021	0	0	0	
8	0	0	0	0	542	491	1021	0	0	0	
9	0	0	0	0	544	492	1021	0	0	0	
10	0	0	0	0	545	492	1021	0	0	0	
11	0	0	0	0	545	490	1021	0	0	0	
12	0	0	0	0	544	488	1021	0	0	0	
13	0	0	0	0	542	485	1021	0	0	0	
14	0	0	0	0	539	481	1021	0	0	0	
15	0	0	0	0	536	477	1021	0	0	0	
0	0	0	0	0	532	473	1021	0	0	0	
1	0	0	0	0	528	469	1021	0	0	0	
2	0	0	0	0	525	466	1021	0	0	0	
3	0	0	0	0	522	463	1021	0	0	0	
4	0	0	0	0	519	462	1021	0	0	0	
5	0	0	0	0	517	461	1021	0	0	0	
6	0	0	0	0	516	462	1021	0	0	0	
7	0	0	0	0	516	463	1021	0	0	0	
8	0	0	0	0	518	465	1021	0	0	0	
9	0	0	0	0	519	468	1021	0	0	0	
10	0	0	0	0	522	471	1021	0	0	0	
11	0	0	0	0	526	474	1021	0	0	0	
12	0	0	0	0	529	477	1021	0	0	0	
13	0	0	0	0	534	481	1021	0	0	0	
14	0	0	0	0	538	483	1021	0	0	0	
15	0	0	0	0	542	486	1021	0	0	0	
0	0	0	0	0	545	488	1021	0	0	0	
1	0	0	0	0	549	490	1021	0	0	0	
2	0	0	0	0	551	491	1021	0	0	0	
3	0	0	0	0	554	492	1021	0	0	0	
4	0	0	0	0	555	492	1021	0	0	0	
5	0	0	0	0	557	493	1021	0	0	0	
6	0	0	0	0	558	494	1021	0	0	0	
7	0	0	0	0	558	495	1021	0	0	0	
8	0	0	0	0	559	497	1021	0	0	0	
9	0	0	0	0	561	499	1021	0	0	0	
10	0	0	0	0	563	503	1021	0	0	0	
11	0	0	0	0	565	506	1021	0	0	0	
12	0	0	0	0	567	509	1021	0	0	0	
13	0	0	0	0	569	512	1021	0	0	0	
14	0	0	0	0	570	515	1021	0	0	0	
15	0	0	0	0	571	516	1021	0	0	0	
0	0	0	0	0	570	516	1021	0	0	0	
1	0	0	0	0	568	515	1021	0	0	0	
2	0	0	0	0	566	514	1020	0	0	0	
3	0	0	0	0	563	511	1021	0	0	0	
4	0	0	0	0	560	508	1021	0	0	0	
5	0	0	0	0	557	505	1021	0	0	0	
6	0	0	0	0	553	501	1021	0	0	0	
7	0	0	0	0	549	497	1021	0	0	0	
8	0	0	0	0	545	493	1021	0	0	0	
9	0	0	0	0	542	489	1021	0	0	0	
10	0	0	0	0	540	486	1021	0	0	0	
11	0	0	0	0	537	484	1021	0	0	0	
12	0	0	0	0	536	483	1021	0	0	0	
13	0	0	0	0	537	483	1021	0	0	0	
14	0	0	0	0	538	484	1021	0	0	0	
15	0	0	0	0	540	487	1021	0	0	0	
0	0	0	0	0	543	490	1021	0	0	0	
1	0	0	0	0	545	493	1021	0	0	0	
2	0	0	0	0	548	496	1021	0	0	0	
3	0	0	0	0	550	498	1021	0	0	0	
4	0	0	0	0	551	500	1021	0	0	0	
5	0	0	0	0	551	500	1021	0	0	0	
6	0	0	0	0	550	498	1021	0	0	0	
7	0	0	0	0	547	496	1021	0	0	0	
8	0	0	0	0	544	493	1021	0	0	0	
9	0	0	0	0	540	489	1021	0	0	0	
10	0	0	0	0	536	484	1021	0	0	0	
11	0	0	0	0	531	480	1021	0	0	0	
12	0	0	0	0	526	475	1021	0	0	0	
13	0	0	0	0	522	471	1021	0	0	0	
14	0	0	0	0	519	468	1021	0	0	0	
15	0	0	0	0	518	467	1021	0	0	0	
0	0	0	0	0	518	467	1021	0	0	0	
1	0	0	0	0	520	469	1021	0	0	0	
2	0	0	0	0	524	472	1021	0	0	0	
3	0	0	0	0	529	477	1021	0	0	0	
4	0	0	0	0	535	482	1021	0	0	0	
5	0	0	0	0	540	487	1021	0	0	0	
6	0	0	0	0	546	493	1021	0	0	0	
7	0	0	0	0	551	497	1021	0	0	0	
8	0	0	0	0	555	500	1021	0	0	0	
9	0	0	0	0	557	503	1021	0	0	0	
10	0	0	0	0	557	503	1021	0	0	0	
11	0	0	0	0	555	500	1021	0	0	0	
12	0	0	0	0	551	496	1021	0	0	0	
13	0	0	0	0	545	491	1021	0	0	0	
14	0	0	0	0	538	484	1021	0	0	0	
15	0	0	0	0	531	477	1021	0	0	0	
0	0	0	0	0	524	471	1021	0	0	0	
1	0	0	0	0	518	465	1021	0	0	0	
2	0	0	0	0	513	461	1021	0	0	0	
3	0	0	0	0	511	458	1021	0	0	0	
4	0	0	0	0	511	458	1021	0	0	0	
5	0	0	0	0	512	459	1021	0	0	0	
6	0	0	0	0	515	463	1021	0	0	0	
7	0	0	0	0	520	467	1021	0	0	0	
8	0	0	0	0	527	472	1021	0	0	0	
9	0	0	0	0	533	478	1021	0	0	0	
10	0	0	0	0	539	483	1021	0	0	0	
11	0	0	0	0	543	487	1021	0	0	0	
12	0	0	0	0	548	492	1021	0	0	0	
13	0	0	0	0	550	494	1021	0	0	0	
14	0	0	0	0	552	496	1021	0	0	0	
15	0	0	0	0	552	496	1021	0	0	0	
0	0	0	0	0	551	497	1021	0	0	0	
1	0	0	0	0	549	496	1021	0	0	0	
2	0	0	0	0	547	495	1021	0	0	0	
3	0	0	0	0	546	494	1021	0	0	0	
4	0	0	0	0	544	494	1021	0	0	0	
5	0	0	0	0	544	495	1021	0	0	0	
6	0	0	0	0	545	496	1021	0	0	0	
7	0	0	0	0	547	499	1021	0	0	0	
8	0	0	0	0	551	502	1021	0	0	0	
9	0	0	0	0	555	505	1021	0	0	0	
10	0	0	0	0	559	509	1021	0	0	0	
11	0	0	0	0	562	511	1021	0	0	0	
12	0	0	0	0	565	514	1021	0	0	0	
13	0	0	0	0	568	515	1021	0	0	0	
14	0	0	0	0	568	515	1021	0	0	0	
15	0	0	0	0	568	515	1021	0	0	0	
0	0	0	0	0	566	512	1021	0	0	0	
1	0	0	0	0	563	509	1021	0	0	0	
2	0	0	0	0	559	505	1021	0	0	0	
3	0	0	0	0	555	501	1021	0	0	0	
4	0	0	0	0	550	496	1021	0	0	0	
5	0	0	0	0	546	492	1021	0	0	0	
6	0	0	0	0	542	488	1021	0	0	0	
7	0	0	0	0	540	486	1021	0	0	0	
8	0	0	0	0	538	484	1021	0	0	0	
9	0	0	0	0	537	483	1021	0	0	0	
10	0	0	0	0	539	484	1021	0	0	0	
11	0	0	0	0	540	486	1021	0	0	0	
12	0	0	0	0	543	488	1021	0	0	0	
13	0	0	0	0	546	491	1021	0	0	0	
14	0	0	0	0	550	495	1021	0	0	0	
15	0	0	0	0	553	499	1021	0	0	0	
0	0	0	0	0	556	502	1021	0	0	0	
1	0	0	0	0	559	504	1021	0	0	0	
2	0	0	0	0	560	506	1021	0	0	0	
3	0	0	0	0	560	507	1021	0	0	0	
4	0	0	0	0	560	507	1021	0	0	0	
5	0	0	0	0	558	506	1021	0	0	0	
6	0	0	0	0	556	504	1021	0	0	0	
7	0	0	0	0	554	502	1021	0	0	0	
8	0	0	0	0	551	499	1021	0	0	0	
9	0	0	0	0	548	495	1021	0	0	0	
10	0	0	0	0	545	492	1021	0	0	0	
11	0	0	0	0	543	489	1021	0	0	0	
12	0	0	0	0	540	486	1021	0	0	0	
