# OpenSignals Text File Format. Version 1
# {"": {"position": 0, "device": "", "device name": "", "device connection": "", "sampling rate": 1000, "resolution": [4, 1, 1, 1, 1, 10, 10, 10, 10, 6, 6], "firmware version": 1281, "comments": "", "keywords": "", "mode": 0, "sync interval": 2, "date": "", "time": "", "channels": [1, 2, 3, 4, 5, 6], "sensor": ["RAW", "RAW", "RAW", "RAW", "RAW", "RAW"], "label": ["A1", "A2", "A3", "A4", "A5", "A6"], "column": ["nSeq", "I1", "I2", "O1", "O2", "A1", "A2", "A3", "A4", "A5", "A6"], "special": [{}, {}, {}, {}, {}, {}], "digital IO": [0, 0, 1, 1]}}
# EndOfHeader
0	0	0	0	0	524	404	1021	0	0	0	
1	0	0	0	0	532	411	1021	0	0	0	
2	0	0	0	0	539	416	1021	0	0	0	
3	0	0	0	0	543	420	1021	0	0	0	
4	0	0	0	0	544	422	1021	0	0	0	
5	0	0	0	0	544	423	1021	0	0	0	
6	0	0	0	0	543	422	1021	0	0	0	
7	0	0	0	0	540	422	1021	0	0	0	
8	0	0	0	0	536	420	1021	0	0	0	
9	0	0	0	0	534	420	1021	0	0	0	
10	0	0	0	0	531	419	1021	0	0	0	
11	0	0	0	0	531	420	1021	0	0	0	
12	0	0	0	0	532	423	1021	0	0	0	
13	0	0	0	0	535	427	1021	0	0	0	
14	0	0	0	0	540	431	1021	0	0	0	
15	0	0	0	0	546	437	1021	0	0	0	
0	0	0	0	0	553	443	1021	0	0	0	
1	0	0	0	0	560	450	1021	0	0	0	
2	0	0	0	0	566	455	1021	0	0	0	
3	0	0	0	0	571	458	1021	0	0	0	
4	0	0	0	0	572	459	1021	0	0	0	
5	0	0	0	0	570	457	1021	0	0	0	
6	0	0	0	0	565	452	1020	0	0	0	
7	0	0	0	0	557	445	1021	0	0	0	
8	0	0	0	0	546	435	1021	0	0	0	
9	0	0	0	0	534	424	1021	0	0	0	
10	0	0	0	0	521	412	1021	0	0	0	
11	0	0	0	0	509	401	1021	0	0	0	
12	0	0	0	0	498	392	1021	0	0	0	
13	0	0	0	0	489	384	1021	0	0	0	
14	0	0	0	0	482	377	1021	0	0	0	
15	0	0	0	0	477	374	1021	0	0	0	
0	0	0	0	0	475	371	1021	0	0	0	
1	0	0	0	0	476	371	1021	0	0	0	
2	0	0	0	0	479	373	1021	0	0	0	
3	0	0	0	0	485	377	1021	0	0	0	
4	0	0	0	0	492	383	1021	0	0	0	
5	0	0	0	0	500	390	1021	0	0	0	
6	0	0	0	0	509	396	1021	0	0	0	
7	0	0	0	0	517	401	1021	0	0	0	
8	0	0	0	0	524	406	1021	0	0	0	
9	0	0	0	0	528	410	1021	0	0	0	
10	0	0	0	0	532	413	1021	0	0	0	
11	0	0	0	0	535	415	1021	0	0	0	
12	0	0	0	0	536	417	1021	0	0	0	
13	0	0	0	0	538	420	1021	0	0	0	
14	0	0	0	0	540	423	1021	0	0	0	
15	0	0	0	0	542	428	1021	0	0	0	
0	0	0	0	0	545	432	1021	0	0	0	
1	0	0	0	0	549	438	1021	0	0	0	
2	0	0	0	0	554	445	1021	0	0	0	
3	0	0	0	0	560	451	1021	0	0	0	
4	0	0	0	0	565	458	1021	0	0	0	
5	0	0	0	0	570	463	1021	0	0	0	
6	0	0	0	0	573	466	1021	0	0	0	
7	0	0	0	0	574	466	1021	0	0	0	
8	0	0	0	0	571	463	1021	0	0	0	
9	0	0	0	0	564	457	1021	0	0	0	
10	0	0	0	0	555	447	1021	0	0	0	
11	0	0	0	0	543	435	1021	0	0	0	
12	0	0	0	0	529	423	1021	0	0	0	
13	0	0	0	0	514	409	1021	0	0	0	
14	0	0	0	0	501	397	1020	0	0	0	
15	0	0	0	0	489	387	1021	0	0	0	
0	0	0	0	0	480	379	1021	0	0	0	
1	0	0	0	0	475	374	1021	0	0	0	
2	0	0	0	0	473	372	1021	0	0	0	
3	0	0	0	0	475	373	1021	0	0	0	
4	0	0	0	0	480	377	1021	0	0	0	
5	0	0	0	0	487	383	1021	0	0	0	
6	0	0	0	0	496	391	1021	0	0	0	
7	0	0	0	0	507	399	1021	0	0	0	
8	0	0	0	0	518	409	1021	0	0	0	
9	0	0	0	0	527	418	1021	0	0	0	
10	0	0	0	0	537	427	1021	0	0	0	
11	0	0	0	0	543	433	1021	0	0	0	
12	0	0	0	0	548	438	1021	0	0	0	
13	0	0	0	0	550	440	1021	0	0	0	
14	0	0	0	0	549	441	1021	0	0	0	
15	0	0	0	0	546	439	1021	0	0	0	
0	0	0	0	0	542	436	1021	0	0	0	
1	0	0	0	0	536	432	1021	0	0	0	
2	0	0	0	0	531	428	1021	0	0	0	
3	0	0	0	0	525	423	1021	0	0	0	
4	0	0	0	0	519	418	1021	0	0	0	
5	0	0	0	0	515	415	1021	0	0	0	
6	0	0	0	0	511	411	1021	0	0	0	
7	0	0	0	0	509	409	1021	0	0	0	
8	0	0	0	0	509	408	1021	0	0	0	
9	0	0	0	0	510	408	1021	0	0	0	
10	0	0	0	0	512	410	1021	0	0	0	
11	0	0	0	0	516	413	1021	0	0	0	
12	0	0	0	0	520	417	1021	0	0	0	
13	0	0	0	0	526	422	1021	0	0	0	
14	0	0	0	0	531	427	1021	0	0	0	
15	0	0	0	0	536	431	1021	0	0	0	
0	0	0	0	0	540	435	1021	0	0	0	
1	0	0	0	0	543	439	1021	0	0	0	
2	0	0	0	0	544	440	1021	0	0	0	
3	0	0	0	0	543	440	1021	0	0	0	
4	0	0	0	0	540	439	1021	0	0	0	
5	0	0	0	0	536	436	1021	0	0	0	
6	0	0	0	0	530	431	1020	0	0	0	
7	0	0	0	0	524	426	1021	0	0	0	
8	0	0	0	0	517	421	1021	0	0	0	
9	0	0	0	0	511	416	1021	0	0	0	
10	0	0	0	0	505	411	1021	0	0	0	
11	0	0	0	0	501	408	1020	0	0	0	
12	0	0	0	0	499	406	1021	0	0	0	
13	0	0	0	0	498	405	1021	0	0	0	
14	0	0	0	0	498	404	1021	0	0	0	
15	0	0	0	0	499	405	1021	0	0	0	
0	0	0	0	0	501	406	1021	0	0	0	
1	0	0	0	0	503	408	1021	0	0	0	
2	0	0	0	0	506	409	1021	0	0	0	
3	0	0	0	0	508	410	1021	0	0	0	
4	0	0	0	0	510	411	1021	0	0	0	
5	0	0	0	0	512	412	1020	0	0	0	
6	0	0	0	0	513	412	1021	0	0	0	
7	0	0	0	0	514	411	1021	0	0	0	
8	0	0	0	0	514	411	1021	0	0	0	
9	0	0	0	0	513	410	1021	0	0	0	
10	0	0	0	0	512	409	1021	0	0	0	
11	0	0	0	0	511	409	1021	0	0	0	
12	0	0	0	0	511	409	1021	0	0	0	
13	0	0	0	0	512	412	1021	0	0	0	
14	0	0	0	0	514	415	1021	0	0	0	
15	0	0	0	0	518	420	1021	0	0	0	
0	0	0	0	0	523	426	1021	0	0	0	
1	0	0	0	0	528	433	1021	0	0	0	
2	0	0	0	0	535	440	1021	0	0	0	
3	0	0	0	0	541	448	1021	0	0	0	
4	0	0	0	0	546	454	1021	0	0	0	
5	0	0	0	0	551	458	1021	0	0	0	
6	0	0	0	0	553	460	1021	0	0	0	
7	0	0	0	0	554	462	1021	0	0	0	
8	0	0	0	0	553	461	1021	0	0	0	
9	0	0	0	0	551	459	1021	0	0	0	
10	0	0	0	0	548	456	1021	0	0	0	
11	0	0	0	0	544	453	1021	0	0	0	
12	0	0	0	0	539	449	1021	0	0	0	
13	0	0	0	0	535	445	1021	0	0	0	
14	0	0	0	0	529	441	1020	0	0	0	
15	0	0	0	0	525	438	1021	0	0	0	
0	0	0	0	0	521	433	1021	0	0	0	
1	0	0	0	0	516	429	1021	0	0	0	
2	0	0	0	0	512	424	1021	0	0	0	
3	0	0	0	0	507	419	1020	0	0	0	
4	0	0	0	0	502	413	1021	0	0	0	
5	0	0	0	0	496	407	1021	0	0	0	
6	0	0	0	0	492	402	1021	0	0	0	
7	0	0	0	0	488	397	1021	0	0	0	
8	0	0	0	0	485	394	1021	0	0	0	
9	0	0	0	0	485	392	1021	0	0	0	
10	0	0	0	0	486	392	1021	0	0	0	
11	0	0	0	0	489	395	1021	0	0	0	
12	0	0	0	0	494	399	1021	0	0	0	
13	0	0	0	0	500	404	1021	0	0	0	
14	0	0	0	0	507	409	1021	0	0	0	
15	0	0	0	0	515	416	1021	0	0	0	
0	0	0	0	0	522	423	1021	0	0	0	
1	0	0	0	0	528	428	1021	0	0	0	
2	0	0	0	0	533	432	1021	0	0	0	
3	0	0	0	0	537	436	1021	0	0	0	
4	0	0	0	0	540	439	1021	0	0	0	
5	0	0	0	0	541	440	1021	0	0	0	
6	0	0	0	0	542	441	1021	0	0	0	
7	0	0	0	0	541	442	1021	0	0	0	
8	0	0	0	0	540	443	1021	0	0	0	
9	0	0	0	0	540	443	1021	0	0	0	
10	0	0	0	0	539	443	1021	0	0	0	
11	0	0	0	0	538	444	1021	0	0	0	
12	0	0	0	0	537	444	1021	0	0	0	
13	0	0	0	0	536	445	1021	0	0	0	
14	0	0	0	0	535	445	1021	0	0	0	
15	0	0	0	0	535	446	1021	0	0	0	
0	0	0	0	0	532	444	1021	0	0	0	
1	0	0	0	0	531	443	1021	0	0	0	
2	0	0	0	0	527	440	1021	0	0	0	
3	0	0	0	0	524	436	1021	0	0	0	
4	0	0	0	0	519	432	1021	0	0	0	
5	0	0	0	0	515	428	1021	0	0	0	
6	0	0	0	0	511	423	1020	0	0	0	
7	0	0	0	0	508	419	1021	0	0	0	
8	0	0	0	0	505	415	1021	0	0	0	
9	0	0	0	0	503	413	1021	0	0	0	
10	0	0	0	0	503	412	1021	0	0	0	
11	0	0	0	0	503	411	1020	0	0	0	
12	0	0	0	0	504	412	1021	0	0	0	
13	0	0	0	0	505	413	1021	0	0	0	
14	0	0	0	0	506	415	1021	0	0	0	
15	0	0	0	0	507	416	1021	0	0	0	
0	0	0	0	0	508	418	1020	0	0	0	
1	0	0	0	0	507	419	1021	0	0	0	
2	0	0	0	0	506	419	1021	0	0	0	
3	0	0	0	0	505	419	1021	0	0	0	
4	0	0	0	0	505	419	1021	0	0	0	
5	0	0	0	0	505	420	1021	0	0	0	
6	0	0	0	0	505	421	1021	0	0	0	
7	0	0	0	0	508	422	1021	0	0	0	
8	0	0	0	0	510	424	1021	0	0	0	
9	0	0	0	0	514	428	1021	0	0	0	
10	0	0	0	0	520	432	1021	0	0	0	
11	0	0	0	0	527	438	1021	0	0	0	
12	0	0	0	0	535	444	1021	0	0	0	
13	0	0	0	0	543	451	1021	0	0	0	
14	0	0	0	0	551	458	1021	0	0	0	
15	0	0	0	0	558	465	1021	0	0	0	
0	0	0	0	0	563	470	1021	0	0	0	
1	0	0	0	0	568	473	1021	0	0	0	
2	0	0	0	0	568	475	1021	0	0	0	
3	0	0	0	0	567	475	1021	0	0	0	
4	0	0	0	0	563	472	1020	0	0	0	
5	0	0	0	0	557	468	1021	0	0	0	
6	0	0	0	0	550	462	1021	0	0	0	
7	0	0	0	0	540	455	1021	0	0	0	
8	0	0	0	0	531	448	1021	0	0	0	
9	0	0	0	0	521	441	1021	0	0	0	
10	0	0	0	0	513	435	1021	0	0	0	
11	0	0	0	0	507	428	1021	0	0	0	
12	0	0	0	0	501	424	1021	0	0	0	
13	0	0	0	0	497	420	1021	0	0	0	
14	0	0	0	0	494	418	1021	0	0	0	
15	0	0	0	0	494	417	1021	0	0	0	
0	0	0	0	0	495	419	1021	0	0	0	
1	0	0	0	0	499	422	1021	0	0	0	
2	0	0	0	0	504	426	1021	0	0	0	
3	0	0	0	0	511	432	1021	0	0	0	
4	0	0	0	0	519	439	1021	0	0	0	
5	0	0	0	0	527	445	1021	0	0	0	
6	0	0	0	0	536	451	1021	0	0	0	
7	0	0	0	0	542	456	1021	0	0	0	
8	0	0	0	0	547	460	1021	0	0	0	
9	0	0	0	0	548	460	1021	0	0	0	
10	0	0	0	0	548	460	1021	0	0	0	
11	0	0	0	0	546	457	1021	0	0	0	
12	0	0	0	0	541	454	1021	0	0	0	
13	0	0	0	0	536	449	1021	0	0	0	
14	0	0	0	0	529	444	1021	0	0	0	
15	0	0	0	0	524	440	1021	0	0	0	
0	0	0	0	0	519	436	1021	0	0	0	
1	0	0	0	0	516	433	1021	0	0	0	
2	0	0	0	0	513	432	1020	0	0	0	
3	0	0	0	0	511	430	1021	0	0	0	
4	0	0	0	0	509	428	1021	0	0	0	
5	0	0	0	0	508	428	1021	0	0	0	
6	0	0	0	0	508	427	1021	0	0	0	
7	0	0	0	0	506	426	1021	0	0	0	
8	0	0	0	0	505	424	1021	0	0	0	
9	0	0	0	0	504	422	1021	0	0	0	
10	0	0	0	0	502	420	1021	0	0	0	
11	0	0	0	0	500	419	1021	0	0	0	
12	0	0	0	0	498	417	1021	0	0	0	
13	0	0	0	0	496	415	1021	0	0	0	
14	0	0	0	0	496	414	1021	0	0	0	
15	0	0	0	0	496	414	1021	0	0	0	
0	0	0	0	0	497	415	1021	0	0	0	
1	0	0	0	0	499	418	1021	0	0	0	
2	0	0	0	0	502	421	1021	0	0	0	
3	0	0	0	0	507	424	1021	0	0	0	
4	0	0	0	0	511	429	1021	0	0	0	
5	0	0	0	0	516	433	1021	0	0	0	
6	0	0	0	0	522	438	1020	0	0	0	
7	0	0	0	0	526	442	1021	0	0	0	
8	0	0	0	0	529	446	1021	0	0	0	
9	0	0	0	0	532	448	1021	0	0	0	
10	0	0	0	0	533	450	1021	0	0	0	
11	0	0	0	0	532	451	1020	0	0	0	
12	0	0	0	0	529	449	1021	0	0	0	
13	0	0	0	0	526	447	1021	0	0	0	
14	0	0	0	0	520	443	1021	0	0	0	
15	0	0	0	0	514	438	1021	0	0	0	
0	0	0	0	0	508	433	1021	0	0	0	
1	0	0	0	0	502	428	1021	0	0	0	
2	0	0	0	0	497	424	1021	0	0	0	
3	0	0	0	0	495	420	1021	0	0	0	
4	0	0	0	0	493	418	1021	0	0	0	
5	0	0	0	0	494	417	1021	0	0	0	
6	0	0	0	0	496	418	1021	0	0	0	
7	0	0	0	0	500	420	1021	0	0	0	
8	0	0	0	0	505	423	1021	0	0	0	
9	0	0	0	0	511	428	1021	0	0	0	
10	0	0	0	0	517	432	1021	0	0	0	
11	0	0	0	0	523	438	1021	0	0	0	
12	0	0	0	0	529	443	1021	0	0	0	
13	0	0	0	0	534	448	1021	0	0	0	
14	0	0	0	0	539	452	1021	0	0	0	
15	0	0	0	0	542	455	1021	0	0	0	
0	0	0	0	0	544	459	1021	0	0	0	
1	0	0	0	0	546	461	1021	0	0	0	
2	0	0	0	0	546	462	1021	0	0	0	
3	0	0	0	0	544	462	1021	0	0	0	
4	0	0	0	0	541	460	1021	0	0	0	
5	0	0	0	0	536	455	1021	0	0	0	
6	0	0	0	0	530	450	1021	0	0	0	
7	0	0	0	0	523	444	1021	0	0	0	
8	0	0	0	0	516	438	1021	0	0	0	
9	0	0	0	0	510	432	1021	0	0	0	
10	0	0	0	0	504	427	1021	0	0	0	
11	0	0	0	0	499	422	1021	0	0	0	
12	0	0	0	0	496	420	1021	0	0	0	
13	0	0	0	0	495	419	1021	0	0	0	
14	0	0	0	0	496	420	1020	0	0	0	
15	0	0	0	0	499	423	1021	0	0	0	
0	0	0	0	0	505	429	1021	0	0	0	
1	0	0	0	0	513	436	1021	0	0	0	
2	0	0	0	0	522	445	1021	0	0	0	
3	0	0	0	0	532	454	1020	0	0	0	
4	0	0	0	0	543	463	1021	0	0	0	
5	0	0	0	0	553	472	1021	0	0	0	
6	0	0	0	0	562	480	1021	0	0	0	
7	0	0	0	0	568	484	1021	0	0	0	
8	0	0	0	0	571	486	1021	0	0	0	
9	0	0	0	0	569	485	1021	0	0	0	
10	0	0	0	0	564	480	1021	0	0	0	
11	0	0	0	0	556	472	1021	0	0	0	
12	0	0	0	0	544	462	1021	0	0	0	
13	0	0	0	0	531	450	1021	0	0	0	
14	0	0	0	0	517	439	1021	0	0	0	
15	0	0	0	0	504	429	1021	0	0	0	
0	0	0	0	0	493	420	1021	0	0	0	
1	0	0	0	0	484	413	1021	0	0	0	
2	0	0	0	0	478	409	1021	0	0	0	
3	0	0	0	0	475	407	1021	0	0	0	
4	0	0	0	0	475	407	1021	0	0	0	
5	0	0	0	0	478	410	1021	0	0	0	
6	0	0	0	0	483	414	1021	0	0	0	
7	0	0	0	0	490	420	1021	0	0	0	
8	0	0	0	0	499	427	1021	0	0	0	
9	0	0	0	0	509	435	1021	0	0	0	
10	0	0	0	0	519	444	1021	0	0	0	
11	0	0	0	0	529	452	1021	0	0	0	
12	0	0	0	0	539	460	1021	0	0	0	
13	0	0	0	0	546	466	1021	0	0	0	
14	0	0	0	0	551	471	1021	0	0	0	
15	0	0	0	0	553	473	1021	0	0	0	
0	0	0	0	0	552	472	1021	0	0	0	
1	0	0	0	0	548	469	1021	0	0	0	
2	0	0	0	0	542	463	1021	0	0	0	
3	0	0	0	0	533	456	1021	0	0	0	
4	0	0	0	0	523	448	1021	0	0	0	
5	0	0	0	0	512	440	1021	0	0	0	
6	0	0	0	0	503	432	1021	0	0	0	
7	0	0	0	0	495	424	1021	0	0	0	
8	0	0	0	0	488	419	1021	0	0	0	
9	0	0	0	0	485	415	1021	0	0	0	
10	0	0	0	0	484	415	1021	0	0	0	
11	0	0	0	0	485	416	1021	0	0	0	
12	0	0	0	0	489	419	1021	0	0	0	
13	0	0	0	0	495	423	1021	0	0	0	
14	0	0	0	0	502	429	1021	0	0	0	
15	0	0	0	0	509	435	1021	0	0	0	
0	0	0	0	0	517	440	1021	0	0	0	
1	0	0	0	0	524	446	1021	0	0	0	
2	0	0	0	0	531	451	1021	0	0	0	
3	0	0	0	0	536	455	1021	0	0	0	
4	0	0	0	0	541	459	1021	0	0	0	
5	0	0	0	0	544	462	1021	0	0	0	
6	0	0	0	0	547	464	1021	0	0	0	
7	0	0	0	0	548	466	1021	0	0	0	
8	0	0	0	0	548	466	1021	0	0	0	
9	0	0	0	0	547	466	1021	0	0	0	
10	0	0	0	0	544	464	1021	0	0	0	
11	0	0	0	0	540	462	1021	0	0	0	
12	0	0	0	0	535	459	1021	0	0	0	
13	0	0	0	0	530	456	1021	0	0	0	
14	0	0	0	0	524	453	1021	0	0	0	
15	0	0	0	0	519	451	1021	0	0	0	
0	0	0	0	0	515	449	1021	0	0	0	
1	0	0	0	0	511	447	1021	0	0	0	
2	0	0	0	0	510	447	1021	0	0	0	
3	0	0	0	0	509	446	1021	0	0	0	
4	0	0	0	0	509	446	1021	0	0	0	
5	0	0	0	0	510	447	1021	0	0	0	
6	0	0	0	0	511	447	1021	0	0	0	
7	0	0	0	0	513	447	1021	0	0	0	
8	0	0	0	0	515	446	1021	0	0	0	
9	0	0	0	0	516	445	1021	0	0	0	
10	0	0	0	0	517	444	1021	0	0	0	
11	0	0	0	0	517	443	1021	0	0	0	
12	0	0	0	0	518	442	1021	0	0	0	
13	0	0	0	0	517	440	1021	0	0	0	
14	0	0	0	0	517	440	1021	0	0	0	
15	0	0	0	0	517	440	1021	0	0	0	
0	0	0	0	0	517	440	1021	0	0	0	
1	0	0	0	0	518	441	1021	0	0	0	
2	0	0	0	0	518	442	1021	0	0	0	
3	0	0	0	0	518	444	1021	0	0	0	
4	0	0	0	0	518	444	1021	0	0	0	
5	0	0	0	0	518	445	1021	0	0	0	
6	0	0	0	0	519	447	1021	0	0	0	
7	0	0	0	0	519	448	1021	0	0	0	
8	0	0	0	0	519	448	1020	0	0	0	
9	0	0	0	0	520	449	1021	0	0	0	
10	0	0	0	0	521	451	1021	0	0	0	
11	0	0	0	0	524	452	1021	0	0	0	
12	0	0	0	0	527	455	1021	0	0	0	
13	0	0	0	0	531	458	1021	0	0	0	
14	0	0	0	0	537	462	1021	0	0	0	
15	0	0	0	0	544	467	1021	0	0	0	
0	0	0	0	0	551	473	1021	0	0	0	
1	0	0	0	0	559	480	1021	0	0	0	
2	0	0	0	0	567	487	1021	0	0	0	
3	0	0	0	0	575	493	1021	0	0	0	
4	0	0	0	0	581	498	1021	0	0	0	
5	0	0	0	0	584	501	1021	0	0	0	
6	0	0	0	0	585	502	1021	0	0	0	
7	0	0	0	0	581	500	1021	0	0	0	
8	0	0	0	0	574	496	1021	0	0	0	
9	0	0	0	0	564	488	1021	0	0	0	
10	0	0	0	0	551	480	1021	0	0	0	
11	0	0	0	0	537	470	1021	0	0	0	
12	0	0	0	0	523	459	1021	0	0	0	
13	0	0	0	0	510	448	1021	0	0	0	
14	0	0	0	0	497	437	1021	0	0	0	
15	0	0	0	0	487	428	1021	0	0	0	
0	0	0	0	0	479	420	1021	0	0	0	
1	0	0	0	0	472	414	1021	0	0	0	
2	0	0	0	0	470	409	1021	0	0	0	
3	0	0	0	0	469	407	1021	0	0	0	
4	0	0	0	0	472	407	1021	0	0	0	
5	0	0	0	0	476	409	1021	0	0	0	
6	0	0	0	0	483	413	1021	0	0	0	
7	0	0	0	0	491	419	1021	0	0	0	
8	0	0	0	0	500	426	1021	0	0	0	
9	0	0	0	0	510	434	1021	0	0	0	
10	0	0	0	0	519	441	1021	0	0	0	
11	0	0	0	0	528	450	1021	0	0	0	
12	0	0	0	0	536	457	1021	0	0	0	
13	0	0	0	0	542	462	1021	0	0	0	
14	0	0	0	0	545	467	1021	0	0	0	
15	0	0	0	0	547	469	1021	0	0	0	
0	0	0	0	0	546	469	1021	0	0	0	
1	0	0	0	0	543	467	1021	0	0	0	
2	0	0	0	0	539	463	1021	0	0	0	
3	0	0	0	0	533	459	1021	0	0	0	
4	0	0	0	0	526	454	1021	0	0	0	
5	0	0	0	0	520	449	1021	0	0	0	
6	0	0	0	0	514	444	1021	0	0	0	
7	0	0	0	0	510	440	1021	0	0	0	
8	0	0	0	0	506	437	1021	0	0	0	
9	0	0	0	0	505	436	1021	0	0	0	
10	0	0	0	0	504	436	1021	0	0	0	
11	0	0	0	0	507	438	1021	0	0	0	
12	0	0	0	0	510	441	1021	0	0	0	
13	0	0	0	0	515	446	1021	0	0	0	
14	0	0	0	0	521	451	1021	0	0	0	
15	0	0	0	0	527	457	1021	0	0	0	
0	0	0	0	0	534	463	1021	0	0	0	
1	0	0	0	0	539	467	1021	0	0	0	
2	0	0	0	0	543	472	1021	0	0	0	
3	0	0	0	0	546	474	1021	0	0	0	
4	0	0	0	0	546	474	1021	0	0	0	
5	0	0	0	0	545	473	1021	0	0	0	
6	0	0	0	0	543	471	1021	0	0	0	
7	0	0	0	0	539	467	1021	0	0	0	
8	0	0	0	0	533	462	1021	0	0	0	
9	0	0	0	0	527	457	1021	0	0	0	
10	0	0	0	0	521	451	1021	0	0	0	
11	0	0	0	0	515	446	1021	0	0	0	
12	0	0	0	0	509	440	1021	0	0	0	
13	0	0	0	0	503	434	1021	0	0	0	
14	0	0	0	0	497	428	1020	0	0	0	
15	0	0	0	0	492	422	1021	0	0	0	
0	0	0	0	0	487	416	1021	0	0	0	
1	0	0	0	0	483	412	1021	0	0	0	
2	0	0	0	0	480	409	1021	0	0	0	
3	0	0	0	0	479	408	1021	0	0	0	
4	0	0	0	0	480	407	1021	0	0	0	
5	0	0	0	0	481	408	1021	0	0	0	
6	0	0	0	0	485	412	1021	0	0	0	
7	0	0	0	0	489	416	1021	0	0	0	
8	0	0	0	0	495	421	1021	0	0	0	
9	0	0	0	0	501	428	1021	0	0	0	
10	0	0	0	0	508	434	1021	0	0	0	
11	0	0	0	0	515	441	1021	0	0	0	
12	0	0	0	0	521	447	1021	0	0	0	
13	0	0	0	0	526	453	1020	0	0	0	
14	0	0	0	0	531	457	1021	0	0	0	
15	0	0	0	0	534	460	1021	0	0	0	
0	0	0	0	0	536	462	1021	0	0	0	
1	0	0	0	0	537	464	1021	0	0	0	
2	0	0	0	0	537	464	1021	0	0	0	
3	0	0	0	0	538	465	1021	0	0	0	
4	0	0	0	0	537	466	1021	0	0	0	
5	0	0	0	0	538	468	1021	0	0	0	
6	0	0	0	0	538	469	1021	0	0	0	
7	0	0	0	0	539	471	1021	0	0	0	
8	0	0	0	0	539	472	1021	0	0	0	
9	0	0	0	0	539	472	1021	0	0	0	
10	0	0	0	0	538	472	1021	0	0	0	
11	0	0	0	0	537	472	1021	0	0	0	
12	0	0	0	0	535	471	1021	0	0	0	
13	0	0	0	0	532	468	1021	0	0	0	
14	0	0	0	0	529	465	1021	0	0	0	
15	0	0	0	0	525	461	1021	0	0	0	
0	0	0	0	0	520	455	1021	0	0	0	
1	0	0	0	0	515	450	1021	0	0	0	
2	0	0	0	0	510	445	1020	0	0	0	
3	0	0	0	0	505	439	1021	0	0	0	
4	0	0	0	0	500	433	1021	0	0	0	
5	0	0	0	0	496	429	1021	0	0	0	
6	0	0	0	0	494	426	1020	0	0	0	
7	0	0	0	0	492	424	1021	0	0	0	
8	0	0	0	0	493	424	1021	0	0	0	
9	0	0	0	0	496	427	1021	0	0	0	
10	0	0	0	0	500	431	1021	0	0	0	
11	0	0	0	0	506	436	1020	0	0	0	
12	0	0	0	0	513	442	1021	0	0	0	
13	0	0	0	0	520	448	1021	0	0	0	
14	0	0	0	0	527	454	1021	0	0	0	
15	0	0	0	0	533	459	1021	0	0	0	
0	0	0	0	0	538	463	1021	0	0	0	
1	0	0	0	0	541	466	1021	0	0	0	
2	0	0	0	0	543	467	1021	0	0	0	
3	0	0	0	0	543	468	1021	0	0	0	
4	0	0	0	0	542	467	1021	0	0	0	
5	0	0	0	0	540	466	1021	0	0	0	
6	0	0	0	0	536	464	1021	0	0	0	
7	0	0	0	0	534	462	1021	0	0	0	
8	0	0	0	0	530	460	1021	0	0	0	
9	0	0	0	0	527	457	1021	0	0	0	
10	0	0	0	0	524	455	1020	0	0	0	
11	0	0	0	0	521	454	1021	0	0	0	
12	0	0	0	0	520	452	1021	0	0	0	
13	0	0	0	0	520	453	1021	0	0	0	
14	0	0	0	0	522	454	1021	0	0	0	
15	0	0	0	0	524	456	1020	0	0	0	
0	0	0	0	0	528	458	1021	0	0	0	
1	0	0	0	0	530	460	1021	0	0	0	
2	0	0	0	0	532	461	1021	0	0	0	
3	0	0	0	0	533	461	1021	0	0	0	
4	0	0	0	0	533	460	1021	0	0	0	
5	0	0	0	0	530	457	1021	0	0	0	
6	0	0	0	0	526	453	1021	0	0	0	
7	0	0	0	0	519	447	1021	0	0	0	
8	0	0	0	0	511	439	1021	0	0	0	
9	0	0	0	0	501	430	1021	0	0	0	
10	0	0	0	0	489	420	1021	0	0	0	
11	0	0	0	0	477	408	1021	0	0	0	
12	0	0	0	0	464	398	1021	0	0	0	
13	0	0	0	0	452	387	1021	0	0	0	
14	0	0	0	0	440	377	1020	0	0	0	
15	0	0	0	0	430	368	1021	0	0	0	
0	0	0	0	0	420	359	1021	0	0	0	
1	0	0	0	0	413	352	1021	0	0	0	
2	0	0	0	0	406	346	1021	0	0	0	
3	0	0	0	0	401	340	1021	0	0	0	
4	0	0	0	0	396	334	1021	0	0	0	
5	0	0	0	0	392	329	1021	0	0	0	
6	0	0	0	0	389	324	1021	0	0	0	
7	0	0	0	0	385	318	1021	0	0	0	
8	0	0	0	0	381	312	1021	0	0	0	
9	0	0	0	0	375	305	1021	0	0	0	
10	0	0	0	0	368	296	1021	0	0	0	
11	0	0	0	0	359	287	1021	0	0	0	
12	0	0	0	0	350	276	1021	0	0	0	
13	0	0	0	0	338	265	1020	0	0	0	
14	0	0	0	0	327	254	1021	0	0	0	
15	0	0	0	0	316	244	1021	0	0	0	
0	0	0	0	0	307	236	1021	0	0	0	
1	0	0	0	0	300	231	1021	0	0	0	
2	0	0	0	0	296	228	1020	0	0	0	
3	0	0	0	0	297	230	1021	0	0	0	
4	0	0	0	0	303	235	1021	0	0	0	
5	0	0	0	0	314	245	1021	0	0	0	
6	0	0	0	0	331	260	1021	0	0	0	
7	0	0	0	0	352	278	1021	0	0	0	
8	0	0	0	0	379	301	1021	0	0	0	
9	0	0	0	0	409	327	1021	0	0	0	
10	0	0	0	0	441	355	1021	0	0	0	
11	0	0	0	0	475	385	1021	0	0	0	
12	0	0	0	0	507	413	1021	0	0	0	
13	0	0	0	0	536	440	1021	0	0	0	
14	0	0	0	0	560	462	1021	0	0	0	
15	0	0	0	0	579	480	1021	0	0	0	
0	0	0	0	0	589	492	1021	0	0	0	
1	0	0	0	0	592	498	1020	0	0	0	
2	0	0	0	0	589	498	1021	0	0	0	
3	0	0	0	0	579	493	1021	0	0	0	
4	0	0	0	0	563	483	1021	0	0	0	
5	0	0	0	0	545	471	1021	0	0	0	
6	0	0	0	0	525	457	1021	0	0	0	
7	0	0	0	0	506	444	1021	0	0	0	
8	0	0	0	0	489	431	1021	0	0	0	
9	0	0	0	0	475	422	1021	0	0	0	
10	0	0	0	0	466	414	1021	0	0	0	
11	0	0	0	0	462	411	1020	0	0	0	
12	0	0	0	0	462	411	1021	0	0	0	
13	0	0	0	0	468	414	1021	0	0	0	
14	0	0	0	0	478	419	1021	0	0	0	
15	0	0	0	0	491	428	1021	0	0	0	
0	0	0	0	0	506	438	1021	0	0	0	
1	0	0	0	0	522	448	1021	0	0	0	
2	0	0	0	0	538	459	1021	0	0	0	
3	0	0	0	0	552	468	1021	0	0	0	
4	0	0	0	0	564	476	1021	0	0	0	
5	0	0	0	0	572	482	1020	0	0	0	
6	0	0	0	0	576	485	1021	0	0	0	
7	0	0	0	0	577	486	1021	0	0	0	
8	0	0	0	0	574	486	1021	0	0	0	
9	0	0	0	0	569	483	1021	0	0	0	
10	0	0	0	0	561	479	1020	0	0	0	
11	0	0	0	0	553	475	1021	0	0	0	
12	0	0	0	0	545	471	1021	0	0	0	
13	0	0	0	0	538	467	1021	0	0	0	
14	0	0	0	0	533	466	1021	0	0	0	
15	0	0	0	0	530	465	1021	0	0	0	
0	0	0	0	0	530	467	1021	0	0	0	
1	0	0	0	0	533	471	1021	0	0	0	
2	0	0	0	0	539	476	1021	0	0	0	
3	0	0	0	0	545	481	1021	0	0	0	
4	0	0	0	0	552	487	1021	0	0	0	
5	0	0	0	0	559	491	1021	0	0	0	
6	0	0	0	0	563	493	1021	0	0	0	
7	0	0	0	0	566	494	1021	0	0	0	
8	0	0	0	0	566	492	1021	0	0	0	
9	0	0	0	0	563	488	1020	0	0	0	
10	0	0	0	0	558	483	1021	0	0	0	
11	0	0	0	0	550	476	1021	0	0	0	
12	0	0	0	0	542	467	1021	0	0	0	
13	0	0	0	0	532	459	1021	0	0	0	
14	0	0	0	0	523	451	1021	0	0	0	
15	0	0	0	0	514	444	1021	0	0	0	
0	0	0	0	0	507	437	1021	0	0	0	
1	0	0	0	0	500	432	1021	0	0	0	
2	0	0	0	0	495	428	1021	0	0	0	
3	0	0	0	0	492	425	1021	0	0	0	
4	0	0	0	0	491	425	1021	0	0	0	
5	0	0	0	0	492	426	1021	0	0	0	
6	0	0	0	0	495	428	1021	0	0	0	
7	0	0	0	0	499	432	1021	0	0	0	
8	0	0	0	0	504	436	1021	0	0	0	
9	0	0	0	0	510	441	1021	0	0	0	
10	0	0	0	0	516	445	1021	0	0	0	
11	0	0	0	0	523	450	1021	0	0	0	
12	0	0	0	0	529	454	1021	0	0	0	
13	0	0	0	0	535	457	1021	0	0	0	
14	0	0	0	0	539	460	1021	0	0	0	
15	0	0	0	0	543	463	1021	0	0	0	
0	0	0	0	0	546	466	1021	0	0	0	
1	0	0	0	0	549	468	1021	0	0	0	
2	0	0	0	0	551	471	1020	0	0	0	
3	0	0	0	0	552	474	1021	0	0	0	
4	0	0	0	0	555	477	1021	0	0	0	
5	0	0	0	0	558	481	1021	0	0	0	
6	0	0	0	0	560	486	1021	0	0	0	
7	0	0	0	0	562	489	1021	0	0	0	
8	0	0	0	0	563	492	1021	0	0	0	
9	0	0	0	0	563	493	1021	0	0	0	
10	0	0	0	0	561	494	1021	0	0	0	
11	0	0	0	0	558	492	1021	0	0	0	
12	0	0	0	0	554	489	1021	0	0	0	
13	0	0	0	0	548	484	1021	0	0	0	
14	0	0	0	0	543	479	1021	0	0	0	
15	0	0	0	0	537	473	1021	0	0	0	
0	0	0	0	0	533	469	1021	0	0	0	
1	0	0	0	0	529	464	1021	0	0	0	
2	0	0	0	0	527	461	1021	0	0	0	
3	0	0	0	0	526	458	1021	0	0	0	
4	0	0	0	0	527	457	1021	0	0	0	
5	0	0	0	0	528	456	1021	0	0	0	
6	0	0	0	0	531	456	1021	0	0	0	
7	0	0	0	0	534	458	1021	0	0	0	
8	0	0	0	0	537	459	1021	0	0	0	
9	0	0	0	0	540	461	1021	0	0	0	
10	0	0	0	0	543	463	1021	0	0	0	
11	0	0	0	0	543	463	1021	0	0	0	
12	0	0	0	0	543	463	1021	0	0	0	
13	0	0	0	0	541	462	1021	0	0	0	
14	0	0	0	0	538	460	1021	0	0	0	
15	0	0	0	0	534	458	1021	0	0	0	
0	0	0	0	0	529	455	1021	0	0	0	
1	0	0	0	0	524	451	1021	0	0	0	
2	0	0	0	0	519	447	1021	0	0	0	
3	0	0	0	0	514	443	1021	0	0	0	
4	0	0	0	0	510	439	1021	0	0	0	
5	0	0	0	0	506	435	1020	0	0	0	
6	0	0	0	0	503	432	1021	0	0	0	
7	0	0	0	0	500	430	1021	0	0	0	
8	0	0	0	0	499	428	1021	0	0	0	
9	0	0	0	0	499	427	1021	0	0	0	
10	0	0	0	0	499	426	1021	0	0	0	
11	0	0	0	0	500	426	1021	0	0	0	
12	0	0	0	0	502	427	1021	0	0	0	
13	0	0	0	0	504	428	1021	0	0	0	
14	0	0	0	0	506	430	1021	0	0	0	
15	0	0	0	0	508	432	1021	0	0	0	
0	0	0	0	0	510	433	1021	0	0	0	
1	0	0	0	0	511	435	1021	0	0	0	
2	0	0	0	0	512	436	1021	0	0	0	
3	0	0	0	0	512	436	1021	0	0	0	
4	0	0	0	0	513	437	1021	0	0	0	
5	0	0	0	0	514	437	1021	0	0	0	
6	0	0	0	0	515	438	1021	0	0	0	
7	0	0	0	0	516	439	1021	0	0	0	
8	0	0	0	0	517	440	1021	0	0	0	
9	0	0	0	0	519	442	1021	0	0	0	
10	0	0	0	0	523	446	1021	0	0	0	
11	0	0	0	0	527	450	1021	0	0	0	
12	0	0	0	0	533	456	1021	0	0	0	
13	0	0	0	0	540	464	1021	0	0	0	
14	0	0	0	0	548	473	1021	0	0	0	
15	0	0	0	0	558	483	1021	0	0	0	
0	0	0	0	0	568	493	1021	0	0	0	
1	0	0	0	0	576	502	1021	0	0	0	
2	0	0	0	0	583	509	1021	0	0	0	
3	0	0	0	0	587	514	1021	0	0	0	
4	0	0	0	0	589	516	1021	0	0	0	
5	0	0	0	0	588	515	1021	0	0	0	
6	0	0	0	0	583	510	1021	0	0	0	
7	0	0	0	0	574	502	1021	0	0	0	
8	0	0	0	0	561	491	1021	0	0	0	
9	0	0	0	0	547	476	1021	0	0	0	
10	0	0	0	0	531	461	1021	0	0	0	
11	0	0	0	0	514	446	1021	0	0	0	
12	0	0	0	0	498	431	1021	0	0	0	
13	0	0	0	0	485	418	1021	0	0	0	
14	0	0	0	0	475	408	1021	0	0	0	
15	0	0	0	0	468	400	1021	0	0	0	
0	0	0	0	0	467	398	1021	0	0	0	
1	0	0	0	0	469	398	1021	0	0	0	
2	0	0	0	0	476	403	1021	0	0	0	
3	0	0	0	0	486	410	1021	0	0	0	
4	0	0	0	0	498	419	1021	0	0	0	
5	0	0	0	0	511	430	1021	0	0	0	
6	0	0	0	0	523	440	1021	0	0	0	
7	0	0	0	0	533	449	1021	0	0	0	
8	0	0	0	0	542	455	1021	0	0	0	
9	0	0	0	0	546	460	1021	0	0	0	
10	0	0	0	0	548	463	1021	0	0	0	
11	0	0	0	0	546	463	1021	0	0	0	
12	0	0	0	0	541	461	1021	0	0	0	
13	0	0	0	0	535	457	1021	0	0	0	
14	0	0	0	0	526	451	1021	0	0	0	
15	0	0	0	0	518	446	1021	0	0	0	
0	0	0	0	0	511	440	1021	0	0	0	
1	0	0	0	0	505	436	1021	0	0	0	
2	0	0	0	0	501	433	1021	0	0	0	
3	0	0	0	0	500	432	1021	0	0	0	
4	0	0	0	0	502	433	1021	0	0	0	
5	0	0	0	0	505	436	1021	0	0	0	
6	0	0	0	0	512	441	1021	0	0	0	
7	0	0	0	0	519	448	1021	0	0	0	
8	0	0	0	0	527	454	1021	0	0	0	
9	0	0	0	0	536	461	1021	0	0	0	
10	0	0	0	0	543	467	1021	0	0	0	
11	0	0	0	0	550	473	1021	0	0	0	
12	0	0	0	0	555	477	1021	0	0	0	
13	0	0	0	0	558	479	1021	0	0	0	
14	0	0	0	0	558	480	1021	0	0	0	
15	0	0	0	0	556	478	1021	0	0	0	
0	0	0	0	0	551	475	1020	0	0	0	
1	0	0	0	0	544	469	1021	0	0	0	
2	0	0	0	0	536	461	1021	0	0	0	
3	0	0	0	0	525	452	1021	0	0	0	
4	0	0	0	0	514	443	1021	0	0	0	
5	0	0	0	0	503	433	1020	0	0	0	
6	0	0	0	0	493	424	1021	0	0	0	
7	0	0	0	0	484	416	1021	0	0	0	
8	0	0	0	0	479	412	1021	0	0	0	
9	0	0	0	0	476	409	1021	0	0	0	
10	0	0	0	0	478	411	1021	0	0	0	
11	0	0	0	0	483	415	1021	0	0	0	
12	0	0	0	0	493	423	1021	0	0	0	
13	0	0	0	0	506	434	1021	0	0	0	
14	0	0	0	0	521	447	1021	0	0	0	
15	0	0	0	0	538	460	1021	0	0	0	
0	0	0	0	0	555	475	1021	0	0	0	
1	0	0	0	0	571	489	1021	0	0	0	
2	0	0	0	0	585	501	1021	0	0	0	
3	0	0	0	0	597	511	1021	0	0	0	
4	0	0	0	0	603	516	1020	0	0	0	
5	0	0	0	0	604	518	1021	0	0	0	
6	0	0	0	0	599	512	1021	0	0	0	
7	0	0	0	0	588	503	1021	0	0	0	
8	0	0	0	0	572	489	1021	0	0	0	
9	0	0	0	0	552	473	1021	0	0	0	
10	0	0	0	0	531	455	1021	0	0	0	
11	0	0	0	0	510	437	1021	0	0	0	
12	0	0	0	0	490	421	1021	0	0	0	
13	0	0	0	0	474	408	1021	0	0	0	
14	0	0	0	0	462	398	1021	0	0	0	
15	0	0	0	0	454	391	1021	0	0	0	
0	0	0	0	0	452	390	1021	0	0	0	
1	0	0	0	0	455	392	1021	0	0	0	
2	0	0	0	0	462	398	1021	0	0	0	
3	0	0	0	0	472	407	1020	0	0	0	
4	0	0	0	0	485	418	1021	0	0	0	
5	0	0	0	0	501	430	1021	0	0	0	
6	0	0	0	0	516	442	1021	0	0	0	
7	0	0	0	0	531	454	1021	0	0	0	
8	0	0	0	0	544	464	1021	0	0	0	
9	0	0	0	0	555	472	1021	0	0	0	
10	0	0	0	0	563	478	1021	0	0	0	
11	0	0	0	0	568	481	1021	0	0	0	
12	0	0	0	0	570	483	1021	0	0	0	
13	0	0	0	0	569	483	1021	0	0	0	
14	0	0	0	0	566	482	1021	0	0	0	
15	0	0	0	0	562	480	1021	0	0	0	
0	0	0	0	0	558	478	1021	0	0	0	
1	0	0	0	0	554	477	1021	0	0	0	
2	0	0	0	0	551	476	1020	0	0	0	
3	0	0	0	0	549	478	1020	0	0	0	
4	0	0	0	0	551	480	1021	0	0	0	
5	0	0	0	0	553	484	1021	0	0	0	
6	0	0	0	0	559	489	1021	0	0	0	
7	0	0	0	0	564	495	1021	0	0	0	
8	0	0	0	0	571	500	1021	0	0	0	
9	0	0	0	0	575	504	1021	0	0	0	
10	0	0	0	0	579	507	1021	0	0	0	
11	0	0	0	0	580	507	1021	0	0	0	
12	0	0	0	0	577	503	1021	0	0	0	
13	0	0	0	0	571	497	1021	0	0	0	
14	0	0	0	0	562	488	1021	0	0	0	
15	0	0	0	0	550	477	1021	0	0	0	
0	0	0	0	0	536	465	1021	0	0	0	
1	0	0	0	0	522	452	1021	0	0	0	
2	0	0	0	0	507	440	1020	0	0	0	
3	0	0	0	0	494	428	1021	0	0	0	
4	0	0	0	0	483	419	1021	0	0	0	
5	0	0	0	0	474	411	1021	0	0	0	
6	0	0	0	0	468	406	1020	0	0	0	
7	0	0	0	0	466	403	1021	0	0	0	
8	0	0	0	0	467	404	1021	0	0	0	
9	0	0	0	0	471	407	1021	0	0	0	
10	0	0	0	0	478	413	1021	0	0	0	
11	0	0	0	0	488	421	1021	0	0	0	
12	0	0	0	0	499	430	1021	0	0	0	
13	0	0	0	0	511	440	1021	0	0	0	
14	0	0	0	0	523	451	1021	0	0	0	
15	0	0	0	0	534	460	1021	0	0	0	
0	0	0	0	0	543	468	1021	0	0	0	
1	0	0	0	0	551	474	1021	0	0	0	
2	0	0	0	0	556	477	1021	0	0	0	
3	0	0	0	0	557	478	1021	0	0	0	
4	0	0	0	0	556	476	1021	0	0	0	
5	0	0	0	0	551	472	1020	0	0	0	
6	0	0	0	0	543	467	1021	0	0	0	
7	0	0	0	0	535	460	1021	0	0	0	
8	0	0	0	0	527	454	1021	0	0	0	
9	0	0	0	0	518	448	1021	0	0	0	
10	0	0	0	0	512	444	1020	0	0	0	
11	0	0	0	0	508	442	1020	0	0	0	
12	0	0	0	0	507	442	1021	0	0	0	
13	0	0	0	0	508	444	1021	0	0	0	
14	0	0	0	0	511	447	1021	0	0	0	
15	0	0	0	0	515	451	1021	0	0	0	
0	0	0	0	0	521	456	1021	0	0	0	
1	0	0	0	0	529	462	1021	0	0	0	
2	0	0	0	0	536	467	1021	0	0	0	
3	0	0	0	0	542	471	1021	0	0	0	
4	0	0	0	0	547	474	1021	0	0	0	
5	0	0	0	0	550	475	1020	0	0	0	
6	0	0	0	0	551	475	1021	0	0	0	
7	0	0	0	0	550	473	1021	0	0	0	
8	0	0	0	0	547	470	1021	0	0	0	
9	0	0	0	0	543	465	1021	0	0	0	
10	0	0	0	0	537	460	1021	0	0	0	
11	0	0	0	0	531	455	1021	0	0	0	
12	0	0	0	0	524	451	1021	0	0	0	
13	0	0	0	0	517	445	1021	0	0	0	
14	0	0	0	0	511	442	1021	0	0	0	
15	0	0	0	0	507	439	1021	0	0	0	
0	0	0	0	0	504	438	1021	0	0	0	
1	0	0	0	0	502	438	1021	0	0	0	
2	0	0	0	0	504	440	1021	0	0	0	
3	0	0	0	0	507	444	1020	0	0	0	
4	0	0	0	0	513	450	1021	0	0	0	
5	0	0	0	0	520	456	1021	0	0	0	
6	0	0	0	0	529	464	1021	0	0	0	
7	0	0	0	0	539	472	1021	0	0	0	
8	0	0	0	0	547	478	1020	0	0	0	
9	0	0	0	0	554	483	1021	0	0	0	
10	0	0	0	0	559	486	1021	0	0	0	
11	0	0	0	0	560	487	1021	0	0	0	
12	0	0	0	0	559	484	1021	0	0	0	
13	0	0	0	0	553	480	1021	0	0	0	
14	0	0	0	0	545	473	1021	0	0	0	
15	0	0	0	0	536	465	1021	0	0	0	
0	0	0	0	0	524	456	1021	0	0	0	
1	0	0	0	0	514	448	1021	0	0	0	
2	0	0	0	0	504	441	1021	0	0	0	
3	0	0	0	0	497	436	1021	0	0	0	
4	0	0	0	0	492	434	1021	0	0	0	
5	0	0	0	0	492	435	1021	0	0	0	
6	0	0	0	0	494	438	1021	0	0	0	
7	0	0	0	0	499	443	1021	0	0	0	
8	0	0	0	0	508	450	1021	0	0	0	
9	0	0	0	0	518	459	1021	0	0	0	
10	0	0	0	0	527	467	1021	0	0	0	
11	0	0	0	0	538	475	1021	0	0	0	
12	0	0	0	0	547	483	1021	0	0	0	
13	0	0	0	0	555	488	1021	0	0	0	
14	0	0	0	0	562	493	1021	0	0	0	
15	0	0	0	0	566	496	1021	0	0	0	
0	0	0	0	0	568	496	1021	0	0	0	
1	0	0	0	0	567	495	1021	0	0	0	
2	0	0	0	0	562	492	1021	0	0	0	
3	0	0	0	0	555	485	1021	0	0	0	
4	0	0	0	0	544	476	1021	0	0	0	
5	0	0	0	0	530	464	1021	0	0	0	
6	0	0	0	0	514	451	1020	0	0	0	
7	0	0	0	0	497	436	1021	0	0	0	
8	0	0	0	0	480	420	1021	0	0	0	
9	0	0	0	0	463	406	1021	0	0	0	
10	0	0	0	0	448	392	1021	0	0	0	
11	0	0	0	0	436	382	1021	0	0	0	
12	0	0	0	0	428	374	1020	0	0	0	
13	0	0	0	0	423	368	1021	0	0	0	
14	0	0	0	0	423	367	1021	0	0	0	
15	0	0	0	0	428	369	1021	0	0	0	
0	0	0	0	0	435	374	1021	0	0	0	
1	0	0	0	0	447	383	1021	0	0	0	
2	0	0	0	0	463	395	1021	0	0	0	
3	0	0	0	0	481	410	1021	0	0	0	
4	0	0	0	0	502	427	1021	0	0	0	
5	0	0	0	0	523	446	1020	0	0	0	
6	0	0	0	0	545	464	1021	0	0	0	
7	0	0	0	0	565	482	1021	0	0	0	
8	0	0	0	0	582	497	1021	0	0	0	
9	0	0	0	0	596	511	1021	0	0	0	
10	0	0	0	0	606	521	1021	0	0	0	
11	0	0	0	0	611	527	1021	0	0	0	
12	0	0	0	0	614	531	1021	0	0	0	
13	0	0	0	0	612	532	1021	0	0	0	
14	0	0	0	0	608	532	1021	0	0	0	
15	0	0	0	0	602	529	1021	0	0	0	
0	0	0	0	0	594	526	1021	0	0	0	
1	0	0	0	0	585	520	1021	0	0	0	
2	0	0	0	0	576	515	1021	0	0	0	
3	0	0	0	0	567	509	1021	0	0	0	
4	0	0	0	0	558	503	1020	0	0	0	
5	0	0	0	0	550	497	1021	0	0	0	
6	0	0	0	0	542	489	1021	0	0	0	
7	0	0	0	0	534	482	1021	0	0	0	
8	0	0	0	0	526	473	1021	0	0	0	
9	0	0	0	0	517	464	1021	0	0	0	
10	0	0	0	0	509	455	1021	0	0	0	
11	0	0	0	0	502	446	1021	0	0	0	
12	0	0	0	0	496	439	1021	0	0	0	
13	0	0	0	0	491	433	1021	0	0	0	
14	0	0	0	0	488	429	1021	0	0	0	
15	0	0	0	0	489	428	1021	0	0	0	
0	0	0	0	0	492	429	1021	0	0	0	
1	0	0	0	0	499	433	1021	0	0	0	
2	0	0	0	0	507	440	1021	0	0	0	
3	0	0	0	0	517	448	1020	0	0	0	
4	0	0	0	0	527	456	1021	0	0	0	
5	0	0	0	0	536	465	1021	0	0	0	
6	0	0	0	0	545	473	1021	0	0	0	
7	0	0	0	0	551	480	1021	0	0	0	
8	0	0	0	0	555	484	1021	0	0	0	
9	0	0	0	0	556	486	1021	0	0	0	
10	0	0	0	0	554	486	1021	0	0	0	
11	0	0	0	0	550	484	1021	0	0	0	
12	0	0	0	0	544	481	1021	0	0	0	
13	0	0	0	0	537	476	1021	0	0	0	
14	0	0	0	0	530	472	1021	0	0	0	
15	0	0	0	0	524	467	1021	0	0	0	
0	0	0	0	0	519	464	1021	0	0	0	
1	0	0	0	0	515	462	1021	0	0	0	
2	0	0	0	0	514	461	1020	0	0	0	
3	0	0	0	0	515	462	1021	0	0	0	
4	0	0	0	0	519	464	1021	0	0	0	
5	0	0	0	0	524	468	1021	0	0	0	
6	0	0	0	0	530	472	1021	0	0	0	
7	0	0	0	0	536	477	1021	0	0	0	
8	0	0	0	0	541	480	1021	0	0	0	
9	0	0	0	0	545	483	1021	0	0	0	
10	0	0	0	0	548	485	1021	0	0	0	
11	0	0	0	0	549	486	1021	0	0	0	
12	0	0	0	0	548	486	1021	0	0	0	
13	0	0	0	0	547	485	1021	0	0	0	
14	0	0	0	0	544	483	1021	0	0	0	
15	0	0	0	0	541	481	1021	0	0	0	
0	0	0	0	0	537	479	1021	0	0	0	
1	0	0	0	0	534	477	1021	0	0	0	
2	0	0	0	0	530	474	1021	0	0	0	
3	0	0	0	0	527	471	1021	0	0	0	
4	0	0	0	0	523	469	1021	0	0	0	
5	0	0	0	0	521	467	1021	0	0	0	
6	0	0	0	0	519	464	1020	0	0	0	
7	0	0	0	0	517	463	1021	0	0	0	
8	0	0	0	0	516	462	1021	0	0	0	
9	0	0	0	0	516	461	1021	0	0	0	
10	0	0	0	0	517	462	1021	0	0	0	
11	0	0	0	0	519	463	1021	0	0	0	
12	0	0	0	0	523	466	1021	0	0	0	
13	0	0	0	0	527	470	1021	0	0	0	
14	0	0	0	0	533	475	1021	0	0	0	
15	0	0	0	0	540	480	1021	0	0	0	
0	0	0	0	0	546	485	1021	0	0	0	
1	0	0	0	0	551	489	1021	0	0	0	
2	0	0	0	0	556	492	1021	0	0	0	
3	0	0	0	0	559	493	1021	0	0	0	
4	0	0	0	0	560	493	1021	0	0	0	
5	0	0	0	0	558	491	1021	0	0	0	
6	0	0	0	0	554	487	1021	0	0	0	
7	0	0	0	0	549	483	1021	0	0	0	
8	0	0	0	0	542	477	1021	0	0	0	
9	0	0	0	0	536	472	1021	0	0	0	
10	0	0	0	0	528	467	1021	0	0	0	
11	0	0	0	0	522	463	1021	0	0	0	
12	0	0	0	0	517	459	1021	0	0	0	
13	0	0	0	0	514	457	1021	0	0	0	
14	0	0	0	0	513	457	1021	0	0	0	
15	0	0	0	0	515	460	1020	0	0	0	
0	0	0	0	0	519	463	1021	0	0	0	
1	0	0	0	0	524	468	1021	0	0	0	
2	0	0	0	0	530	474	1021	0	0	0	
3	0	0	0	0	536	479	1021	0	0	0	
4	0	0	0	0	542	483	1021	0	0	0	
5	0	0	0	0	546	486	1021	0	0	0	
6	0	0	0	0	549	487	1021	0	0	0	
7	0	0	0	0	549	487	1021	0	0	0	
8	0	0	0	0	547	485	1021	0	0	0	
9	0	0	0	0	543	481	1021	0	0	0	
10	0	0	0	0	537	476	1021	0	0	0	
11	0	0	0	0	531	471	1021	0	0	0	
12	0	0	0	0	524	465	1021	0	0	0	
13	0	0	0	0	518	460	1021	0	0	0	
14	0	0	0	0	512	455	1020	0	0	0	
15	0	0	0	0	507	452	1021	0	0	0	
0	0	0	0	0	504	450	1021	0	0	0	
1	0	0	0	0	503	449	1021	0	0	0	
2	0	0	0	0	504	451	1021	0	0	0	
3	0	0	0	0	506	454	1021	0	0	0	
4	0	0	0	0	510	457	1021	0	0	0	
5	0	0	0	0	515	462	1021	0	0	0	
6	0	0	0	0	521	467	1021	0	0	0	
7	0	0	0	0	528	473	1021	0	0	0	
8	0	0	0	0	534	478	1021	0	0	0	
9	0	0	0	0	539	482	1021	0	0	0	
10	0	0	0	0	543	484	1021	0	0	0	
11	0	0	0	0	545	486	1021	0	0	0	
12	0	0	0	0	546	486	1021	0	0	0	
13	0	0	0	0	545	485	1021	0	0	0	
14	0	0	0	0	543	483	1021	0	0	0	
15	0	0	0	0	539	480	1021	0	0	0	
0	0	0	0	0	536	478	1021	0	0	0	
1	0	0	0	0	531	475	1021	0	0	0	
2	0	0	0	0	527	472	1021	0	0	0	
3	0	0	0	0	523	469	1021	0	0	0	
4	0	0	0	0	519	466	1021	0	0	0	
5	0	0	0	0	515	463	1021	0	0	0	
6	0	0	0	0	512	461	1021	0	0	0	
7	0	0	0	0	510	460	1021	0	0	0	
8	0	0	0	0	510	460	1021	0	0	0	
9	0	0	0	0	511	461	1021	0	0	0	
10	0	0	0	0	513	463	1021	0	0	0	
11	0	0	0	0	518	467	1021	0	0	0	
12	0	0	0	0	524	472	1021	0	0	0	
13	0	0	0	0	531	476	1021	0	0	0	
14	0	0	0	0	538	481	1021	0	0	0	
15	0	0	0	0	544	486	1021	0	0	0	
0	0	0	0	0	550	489	1021	0	0	0	
1	0	0	0	0	553	490	1021	0	0	0	
2	0	0	0	0	555	491	1021	0	0	0	
3	0	0	0	0	555	490	1021	0	0	0	
4	0	0	0	0	553	488	1021	0	0	0	
5	0	0	0	0	551	486	1021	0	0	0	
6	0	0	0	0	546	482	1021	0	0	0	
7	0	0	0	0	541	478	1021	0	0	0	
8	0	0	0	0	536	475	1021	0	0	0	
9	0	0	0	0	531	472	1021	0	0	0	
10	0	0	0	0	527	469	1021	0	0	0	
11	0	0	0	0	524	467	1021	0	0	0	
12	0	0	0	0	521	464	1021	0	0	0	
13	0	0	0	0	519	463	1021	0	0	0	
14	0	0	0	0	518	463	1021	0	0	0	
15	0	0	0	0	518	463	1021	0	0	0	
0	0	0	0	0	519	464	1021	0	0	0	
1	0	0	0	0	521	466	1021	0	0	0	
2	0	0	0	0	526	470	1021	0	0	0	
3	0	0	0	0	531	474	1021	0	0	0	
4	0	0	0	0	537	479	1021	0	0	0	
5	0	0	0	0	543	485	1021	0	0	0	
6	0	0	0	0	551	491	1021	0	0	0	
7	0	0	0	0	558	496	1021	0	0	0	
8	0	0	0	0	565	502	1021	0	0	0	
9	0	0	0	0	570	506	1021	0	0	0	
10	0	0	0	0	573	508	1021	0	0	0	
11	0	0	0	0	575	509	1021	0	0	0	
12	0	0	0	0	574	509	1021	0	0	0	
13	0	0	0	0	572	507	1021	0	0	0	
14	0	0	0	0	568	504	1021	0	0	0	
15	0	0	0	0	562	500	1021	0	0	0	
0	0	0	0	0	556	495	1021	0	0	0	
1	0	0	0	0	549	490	1021	0	0	0	
2	0	0	0	0	541	484	1021	0	0	0	
3	0	0	0	0	533	477	1021	0	0	0	
4	0	0	0	0	524	470	1021	0	0	0	
5	0	0	0	0	516	463	1021	0	0	0	
6	0	0	0	0	508	455	1021	0	0	0	
7	0	0	0	0	501	449	1021	0	0	0	
8	0	0	0	0	495	443	1021	0	0	0	
9	0	0	0	0	490	438	1021	0	0	0	
10	0	0	0	0	488	434	1021	0	0	0	
11	0	0	0	0	488	433	1021	0	0	0	
12	0	0	0	0	491	434	1021	0	0	0	
13	0	0	0	0	497	438	1021	0	0	0	
14	0	0	0	0	505	444	1021	0	0	0	
15	0	0	0	0	515	451	1021	0	0	0	
0	0	0	0	0	527	461	1021	0	0	0	
1	0	0	0	0	540	472	1021	0	0	0	
2	0	0	0	0	551	482	1021	0	0	0	
3	0	0	0	0	562	492	1021	0	0	0	
4	0	0	0	0	571	499	1021	0	0	0	
5	0	0	0	0	578	506	1021	0	0	0	
6	0	0	0	0	582	511	1021	0	0	0	
7	0	0	0	0	583	513	1021	0	0	0	
8	0	0	0	0	582	513	1021	0	0	0	
9	0	0	0	0	578	511	1021	0	0	0	
10	0	0	0	0	573	508	1021	0	0	0	
11	0	0	0	0	567	503	1021	0	0	0	
12	0	0	0	0	560	498	1021	0	0	0	
13	0	0	0	0	552	492	1021	0	0	0	
14	0	0	0	0	545	487	1021	0	0	0	
15	0	0	0	0	539	483	1021	0	0	0	
0	0	0	0	0	533	478	1021	0	0	0	
1	0	0	0	0	527	474	1021	0	0	0	
2	0	0	0	0	522	469	1021	0	0	0	
3	0	0	0	0	517	465	1021	0	0	0	
4	0	0	0	0	512	460	1021	0	0	0	
5	0	0	0	0	508	455	1021	0	0	0	
6	0	0	0	0	503	451	1021	0	0	0	
7	0	0	0	0	498	446	1021	0	0	0	
8	0	0	0	0	492	440	1021	0	0	0	
9	0	0	0	0	486	434	1021	0	0	0	
10	0	0	0	0	479	427	1021	0	0	0	
11	0	0	0	0	472	419	1021	0	0	0	
12	0	0	0	0	463	409	1021	0	0	0	
13	0	0	0	0	452	399	1021	0	0	0	
14	0	0	0	0	441	388	1021	0	0	0	
15	0	0	0	0	428	376	1021	0	0	0	
0	0	0	0	0	415	363	1021	0	0	0	
1	0	0	0	0	401	349	1021	0	0	0	
2	0	0	0	0	386	335	1021	0	0	0	
3	0	0	0	0	372	321	1021	0	0	0	
4	0	0	0	0	358	308	1021	0	0	0	
5	0	0	0	0	345	296	1021	0	0	0	
6	0	0	0	0	334	285	1020	0	0	0	
7	0	0	0	0	324	276	1021	0	0	0	
8	0	0	0	0	318	268	1021	0	0	0	
9	0	0	0	0	313	263	1021	0	0	0	
10	0	0	0	0	313	263	1021	0	0	0	
11	0	0	0	0	316	264	1021	0	0	0	
12	0	0	0	0	323	268	1021	0	0	0	
13	0	0	0	0	333	276	1021	0	0	0	
14	0	0	0	0	346	286	1021	0	0	0	
15	0	0	0	0	361	297	1021	0	0	0	
0	0	0	0	0	378	311	1021	0	0	0	
1	0	0	0	0	395	324	1021	0	0	0	
2	0	0	0	0	412	338	1021	0	0	0	
3	0	0	0	0	428	352	1021	0	0	0	
4	0	0	0	0	442	364	1021	0	0	0	
5	0	0	0	0	455	376	1021	0	0	0	
6	0	0	0	0	467	388	1021	0	0	0	
7	0	0	0	0	477	398	1021	0	0	0	
8	0	0	0	0	487	409	1021	0	0	0	
9	0	0	0	0	496	420	1021	0	0	0	
10	0	0	0	0	504	431	1021	0	0	0	
11	0	0	0	0	513	441	1021	0	0	0	
12	0	0	0	0	522	451	1021	0	0	0	
13	0	0	0	0	531	462	1021	0	0	0	
14	0	0	0	0	541	473	1021	0	0	0	
15	0	0	0	0	550	484	1021	0	0	0	
0	0	0	0	0	560	494	1021	0	0	0	
1	0	0	0	0	569	504	1021	0	0	0	
2	0	0	0	0	576	513	1021	0	0	0	
3	0	0	0	0	583	520	1021	0	0	0	
4	0	0	0	0	587	525	1021	0	0	0	
5	0	0	0	0	590	529	1021	0	0	0	
6	0	0	0	0	591	530	1021	0	0	0	
7	0	0	0	0	591	530	1021	0	0	0	
8	0	0	0	0	588	529	1021	0	0	0	
9	0	0	0	0	585	526	1021	0	0	0	
10	0	0	0	0	579	521	1021	0	0	0	
11	0	0	0	0	573	515	1021	0	0	0	
12	0	0	0	0	565	509	1021	0	0	0	
13	0	0	0	0	557	502	1021	0	0	0	
14	0	0	0	0	548	495	1021	0	0	0	
15	0	0	0	0	540	489	1021	0	0	0	
0	0	0	0	0	533	483	1021	0	0	0	
1	0	0	0	0	526	478	1021	0	0	0	
2	0	0	0	0	521	474	1021	0	0	0	
3	0	0	0	0	517	471	1020	0	0	0	
4	0	0	0	0	514	469	1021	0	0	0	
5	0	0	0	0	513	467	1021	0	0	0	
6	0	0	0	0	514	467	1021	0	0	0	
7	0	0	0	0	516	469	1021	0	0	0	
8	0	0	0	0	519	471	1021	0	0	0	
9	0	0	0	0	525	475	1021	0	0	0	
10	0	0	0	0	532	479	1021	0	0	0	
11	0	0	0	0	540	485	1021	0	0	0	
12	0	0	0	0	549	492	1021	0	0	0	
13	0	0	0	0	558	498	1021	0	0	0	
14	0	0	0	0	567	504	1021	0	0	0	
15	0	0	0	0	573	508	1021	0	0	0	
0	0	0	0	0	577	512	1021	0	0	0	
1	0	0	0	0	579	512	1021	0	0	0	
2	0	0	0	0	577	511	1020	0	0	0	
3	0	0	0	0	572	507	1021	0	0	0	
4	0	0	0	0	564	500	1021	0	0	0	
5	0	0	0	0	554	492	1021	0	0	0	
6	0	0	0	0	542	482	1021	0	0	0	
7	0	0	0	0	529	473	1021	0	0	0	
8	0	0	0	0	518	464	1021	0	0	0	
9	0	0	0	0	508	457	1021	0	0	0	
10	0	0	0	0	502	453	1021	0	0	0	
11	0	0	0	0	498	451	1021	0	0	0	
12	0	0	0	0	498	452	1021	0	0	0	
13	0	0	0	0	501	455	1021	0	0	0	
14	0	0	0	0	507	460	1021	0	0	0	
15	0	0	0	0	515	467	1021	0	0	0	
0	0	0	0	0	524	474	1021	0	0	0	
1	0	0	0	0	534	480	1021	0	0	0	
2	0	0	0	0	543	487	1021	0	0	0	
3	0	0	0	0	552	492	1021	0	0	0	
4	0	0	0	0	560	496	1021	0	0	0	
5	0	0	0	0	566	500	1021	0	0	0	
6	0	0	0	0	571	503	1021	0	0	0	
7	0	0	0	0	574	504	1020	0	0	0	
8	0	0	0	0	576	505	1021	0	0	0	
9	0	0	0	0	577	507	1021	0	0	0	
10	0	0	0	0	578	509	1021	0	0	0	
11	0	0	0	0	579	511	1021	0	0	0	
12	0	0	0	0	579	514	1021	0	0	0	
13	0	0	0	0	579	516	1021	0	0	0	
14	0	0	0	0	580	520	1021	0	0	0	
15	0	0	0	0	580	522	1021	0	0	0	
0	0	0	0	0	580	524	1021	0	0	0	
1	0	0	0	0	579	526	1020	0	0	0	
2	0	0	0	0	578	524	1021	0	0	0	
3	0	0	0	0	575	523	1021	0	0	0	
4	0	0	0	0	570	518	1021	0	0	0	
5	0	0	0	0	563	511	1020	0	0	0	
6	0	0	0	0	556	504	1021	0	0	0	
7	0	0	0	0	547	495	1021	0	0	0	
8	0	0	0	0	537	486	1021	0	0	0	
9	0	0	0	0	528	477	1021	0	0	0	
10	0	0	0	0	519	469	1020	0	0	0	
11	0	0	0	0	512	463	1021	0	0	0	
12	0	0	0	0	508	459	1021	0	0	0	
13	0	0	0	0	505	457	1021	0	0	0	
14	0	0	0	0	506	458	1021	0	0	0	
15	0	0	0	0	510	461	1021	0	0	0	
0	0	0	0	0	515	466	1021	0	0	0	
1	0	0	0	0	524	474	1021	0	0	0	
2	0	0	0	0	535	483	1021	0	0	0	
3	0	0	0	0	545	492	1021	0	0	0	
4	0	0	0	0	556	500	1021	0	0	0	
5	0	0	0	0	563	507	1020	0	0	0	
6	0	0	0	0	569	510	1021	0	0	0	
7	0	0	0	0	571	510	1021	0	0	0	
8	0	0	0	0	568	507	1021	0	0	0	
9	0	0	0	0	561	500	1021	0	0	0	
10	0	0	0	0	551	491	1021	0	0	0	
11	0	0	0	0	538	480	1021	0	0	0	
12	0	0	0	0	525	468	1021	0	0	0	
13	0	0	0	0	511	457	1021	0	0	0	
14	0	0	0	0	500	448	1021	0	0	0	
15	0	0	0	0	491	441	1020	0	0	0	
0	0	0	0	0	486	438	1021	0	0	0	
1	0	0	0	0	484	437	1021	0	0	0	
2	0	0	0	0	486	440	1021	0	0	0	
3	0	0	0	0	491	444	1021	0	0	0	
4	0	0	0	0	499	451	1020	0	0	0	
5	0	0	0	0	509	459	1021	0	0	0	
6	0	0	0	0	520	468	1021	0	0	0	
7	0	0	0	0	531	476	1021	0	0	0	
8	0	0	0	0	541	484	1021	0	0	0	
9	0	0	0	0	550	491	1021	0	0	0	
10	0	0	0	0	556	495	1021	0	0	0	
11	0	0	0	0	561	497	1021	0	0	0	
12	0	0	0	0	561	497	1021	0	0	0	
13	0	0	0	0	560	496	1021	0	0	0	
14	0	0	0	0	557	492	1021	0	0	0	
15	0	0	0	0	551	487	1021	0	0	0	
0	0	0	0	0	545	482	1021	0	0	0	
1	0	0	0	0	538	476	1021	0	0	0	
2	0	0	0	0	532	472	1020	0	0	0	
3	0	0	0	0	527	468	1020	0	0	0	
4	0	0	0	0	524	465	1021	0	0	0	
5	0	0	0	0	522	464	1021	0	0	0	
6	0	0	0	0	523	465	1021	0	0	0	
7	0	0	0	0	525	468	1021	0	0	0	
8	0	0	0	0	529	472	1021	0	0	0	
9	0	0	0	0	535	476	1021	0	0	0	
10	0	0	0	0	541	482	1021	0	0	0	
11	0	0	0	0	547	487	1021	0	0	0	
12	0	0	0	0	551	490	1021	0	0	0	
13	0	0	0	0	555	493	1021	0	0	0	
14	0	0	0	0	556	494	1021	0	0	0	
15	0	0	0	0	556	493	1021	0	0	0	
0	0	0	0	0	554	491	1021	0	0	0	
1	0	0	0	0	550	487	1021	0	0	0	
2	0	0	0	0	545	482	1021	0	0	0	
3	0	0	0	0	540	478	1021	0	0	0	
4	0	0	0	0	535	473	1021	0	0	0	
5	0	0	0	0	531	470	1021	0	0	0	
6	0	0	0	0	528	469	1020	0	0	0	
7	0	0	0	0	527	469	1021	0	0	0	
8	0	0	0	0	529	471	1021	0	0	0	
9	0	0	0	0	534	475	1021	0	0	0	
10	0	0	0	0	540	481	1021	0	0	0	
11	0	0	0	0	547	487	1021	0	0	0	
12	0	0	0	0	554	494	1021	0	0	0	
13	0	0	0	0	560	500	1021	0	0	0	
14	0	0	0	0	566	506	1021	0	0	0	
15	0	0	0	0	570	509	1021	0	0	0	
0	0	0	0	0	571	511	1021	0	0	0	
1	0	0	0	0	571	510	1021	0	0	0	
2	0	0	0	0	568	507	1021	0	0	0	
3	0	0	0	0	562	502	1021	0	0	0	
4	0	0	0	0	555	494	1021	0	0	0	
5	0	0	0	0	546	486	1021	0	0	0	
6	0	0	0	0	536	478	1021	0	0	0	
7	0	0	0	0	527	468	1021	0	0	0	
8	0	0	0	0	518	460	1021	0	0	0	
9	0	0	0	0	510	453	1021	0	0	0	
10	0	0	0	0	504	447	1021	0	0	0	
11	0	0	0	0	499	443	1020	0	0	0	
12	0	0	0	0	496	439	1021	0	0	0	
13	0	0	0	0	496	438	1021	0	0	0	
14	0	0	0	0	497	439	1021	0	0	0	
15	0	0	0	0	500	441	1021	0	0	0	
0	0	0	0	0	504	445	1021	0	0	0	
1	0	0	0	0	511	450	1021	0	0	0	
2	0	0	0	0	518	456	1021	0	0	0	
3	0	0	0	0	527	463	1021	0	0	0	
4	0	0	0	0	535	471	1020	0	0	0	
5	0	0	0	0	542	478	1020	0	0	0	
6	0	0	0	0	550	484	1021	0	0	0	
7	0	0	0	0	556	491	1021	0	0	0	
8	0	0	0	0	562	496	1021	0	0	0	
9	0	0	0	0	566	500	1021	0	0	0	
10	0	0	0	0	569	504	1021	0	0	0	
11	0	0	0	0	572	508	1021	0	0	0	
12	0	0	0	0	573	510	1021	0	0	0	
13	0	0	0	0	574	513	1021	0	0	0	
14	0	0	0	0	575	515	1020	0	0	0	
15	0	0	0	0	575	517	1020	0	0	0	
0	0	0	0	0	575	518	1021	0	0	0	
1	0	0	0	0	575	518	1021	0	0	0	
2	0	0	0	0	573	518	1021	0	0	0	
3	0	0	0	0	571	516	1021	0	0	0	
4	0	0	0	0	569	514	1021	0	0	0	
5	0	0	0	0	566	512	1021	0	0	0	
6	0	0	0	0	562	508	1021	0	0	0	
7	0	0	0	0	557	503	1021	0	0	0	
8	0	0	0	0	551	497	1020	0	0	0	
9	0	0	0	0	544	490	1021	0	0	0	
10	0	0	0	0	538	483	1021	0	0	0	
11	0	0	0	0	531	476	1021	0	0	0	
12	0	0	0	0	526	471	1021	0	0	0	
13	0	0	0	0	520	465	1021	0	0	0	
14	0	0	0	0	515	460	1021	0	0	0	
15	0	0	0	0	512	456	1021	0	0	0	
0	0	0	0	0	509	453	1021	0	0	0	
1	0	0	0	0	507	451	1021	0	0	0	
2	0	0	0	0	506	450	1021	0	0	0	
3	0	0	0	0	507	451	1020	0	0	0	
4	0	0	0	0	510	452	1021	0	0	0	
5	0	0	0	0	513	455	1021	0	0	0	
6	0	0	0	0	518	459	1021	0	0	0	
7	0	0	0	0	523	463	1020	0	0	0	
8	0	0	0	0	530	468	1021	0	0	0	
9	0	0	0	0	537	474	1021	0	0	0	
10	0	0	0	0	545	481	1021	0	0	0	
11	0	0	0	0	553	487	1021	0	0	0	
12	0	0	0	0	561	494	1021	0	0	0	
13	0	0	0	0	569	500	1021	0	0	0	
14	0	0	0	0	575	506	1021	0	0	0	
15	0	0	0	0	579	510	1021	0	0	0	
0	0	0	0	0	582	512	1021	0	0	0	
1	0	0	0	0	583	513	1021	0	0	0	
2	0	0	0	0	581	512	1021	0	0	0	
3	0	0	0	0	578	510	1021	0	0	0	
4	0	0	0	0	574	507	1021	0	0	0	
5	0	0	0	0	569	504	1021	0	0	0	
6	0	0	0	0	563	500	1021	0	0	0	
7	0	0	0	0	556	496	1020	0	0	0	
8	0	0	0	0	551	492	1021	0	0	0	
9	0	0	0	0	544	487	1021	0	0	0	
10	0	0	0	0	538	483	1021	0	0	0	
11	0	0	0	0	533	479	1021	0	0	0	
12	0	0	0	0	528	476	1021	0	0	0	
13	0	0	0	0	526	473	1021	0	0	0	
14	0	0	0	0	524	471	1021	0	0	0	
15	0	0	0	0	524	470	1021	0	0	0	
0	0	0	0	0	524	469	1021	0	0	0	
1	0	0	0	0	526	469	1020	0	0	0	
2	0	0	0	0	529	470	1021	0	0	0	
3	0	0	0	0	534	472	1021	0	0	0	
4	0	0	0	0	540	476	1021	0	0	0	
5	0	0	0	0	547	481	1020	0	0	0	
6	0	0	0	0	556	487	1021	0	0	0	
7	0	0	0	0	565	495	1021	0	0	0	
8	0	0	0	0	576	504	1021	0	0	0	
9	0	0	0	0	588	515	1021	0	0	0	
10	0	0	0	0	601	527	1021	0	0	0	
11	0	0	0	0	615	540	1021	0	0	0	
12	0	0	0	0	630	554	1021	0	0	0	
13	0	0	0	0	643	568	1021	0	0	0	
14	0	0	0	0	655	579	1021	0	0	0	
15	0	0	0	0	663	589	1021	0	0	0	
0	0	0	0	0	666	595	1021	0	0	0	
1	0	0	0	0	665	596	1021	0	0	0	
2	0	0	0	0	658	592	1021	0	0	0	
3	0	0	0	0	646	583	1021	0	0	0	
4	0	0	0	0	627	568	1020	0	0	0	
5	0	0	0	0	604	550	1020	0	0	0	
6	0	0	0	0	579	527	1021	0	0	0	
7	0	0	0	0	551	503	1021	0	0	0	
8	0	0	0	0	525	479	1021	0	0	0	
9	0	0	0	0	501	456	1021	0	0	0	
10	0	0	0	0	481	438	1021	0	0	0	
11	0	0	0	0	467	425	1021	0	0	0	
12	0	0	0	0	460	417	1021	0	0	0	
13	0	0	0	0	460	415	1021	0	0	0	
14	0	0	0	0	465	418	1021	0	0	0	
15	0	0	0	0	477	427	1021	0	0	0	
0	0	0	0	0	493	439	1021	0	0	0	
1	0	0	0	0	512	454	1021	0	0	0	
2	0	0	0	0	532	470	1021	0	0	0	
3	0	0	0	0	552	487	1021	0	0	0	
4	0	0	0	0	572	502	1021	0	0	0	
5	0	0	0	0	587	515	1021	0	0	0	
6	0	0	0	0	599	524	1021	0	0	0	
7	0	0	0	0	606	531	1021	0	0	0	
8	0	0	0	0	608	533	1021	0	0	0	
9	0	0	0	0	606	532	1021	0	0	0	
10	0	0	0	0	600	527	1021	0	0	0	
11	0	0	0	0	590	521	1021	0	0	0	
12	0	0	0	0	577	512	1021	0	0	0	
13	0	0	0	0	564	503	1021	0	0	0	
14	0	0	0	0	552	494	1021	0	0	0	
15	0	0	0	0	541	486	1021	0	0	0	
0	0	0	0	0	531	479	1021	0	0	0	
1	0	0	0	0	526	474	1021	0	0	0	
2	0	0	0	0	522	472	1021	0	0	0	
3	0	0	0	0	521	471	1021	0	0	0	
4	0	0	0	0	524	472	1021	0	0	0	
5	0	0	0	0	528	474	1021	0	0	0	
6	0	0	0	0	534	478	1021	0	0	0	
7	0	0	0	0	541	482	1021	0	0	0	
8	0	0	0	0	549	487	1021	0	0	0	
9	0	0	0	0	556	492	1021	0	0	0	
10	0	0	0	0	563	497	1021	0	0	0	
11	0	0	0	0	568	500	1021	0	0	0	
12	0	0	0	0	572	504	1021	0	0	0	
13	0	0	0	0	575	506	1021	0	0	0	
14	0	0	0	0	576	507	1021	0	0	0	
15	0	0	0	0	575	508	1021	0	0	0	
0	0	0	0	0	574	507	1021	0	0	0	
1	0	0	0	0	571	506	1021	0	0	0	
2	0	0	0	0	568	505	1021	0	0	0	
3	0	0	0	0	566	504	1021	0	0	0	
4	0	0	0	0	563	504	1021	0	0	0	
5	0	0	0	0	562	504	1021	0	0	0	
6	0	0	0	0	563	505	1021	0	0	0	
7	0	0	0	0	566	508	1021	0	0	0	
8	0	0	0	0	570	512	1021	0	0	0	
9	0	0	0	0	576	518	1021	0	0	0	
10	0	0	0	0	585	525	1021	0	0	0	
11	0	0	0	0	595	533	1021	0	0	0	
12	0	0	0	0	606	542	1021	0	0	0	
13	0	0	0	0	616	550	1021	0	0	0	
14	0	0	0	0	625	558	1021	0	0	0	
15	0	0	0	0	633	564	1021	0	0	0	
0	0	0	0	0	637	568	1021	0	0	0	
1	0	0	0	0	639	570	1021	0	0	0	
2	0	0	0	0	638	569	1021	0	0	0	
3	0	0	0	0	632	566	1021	0	0	0	
4	0	0	0	0	625	561	1021	0	0	0	
5	0	0	0	0	616	554	1021	0	0	0	
6	0	0	0	0	604	544	1021	0	0	0	
7	0	0	0	0	591	535	1021	0	0	0	
8	0	0	0	0	577	523	1021	0	0	0	
9	0	0	0	0	563	512	1021	0	0	0	
10	0	0	0	0	549	500	1021	0	0	0	
11	0	0	0	0	537	488	1021	0	0	0	
12	0	0	0	0	526	478	1021	0	0	0	
13	0	0	0	0	518	470	1021	0	0	0	
14	0	0	0	0	512	463	1021	0	0	0	
15	0	0	0	0	510	459	1020	0	0	0	
0	0	0	0	0	511	457	1020	0	0	0	
1	0	0	0	0	515	459	1021	0	0	0	
2	0	0	0	0	521	462	1021	0	0	0	
3	0	0	0	0	529	467	1021	0	0	0	
4	0	0	0	0	538	474	1020	0	0	0	
5	0	0	0	0	546	480	1020	0	0	0	
6	0	0	0	0	553	485	1021	0	0	0	
7	0	0	0	0	559	489	1021	0	0	0	
8	0	0	0	0	562	491	1021	0	0	0	
9	0	0	0	0	563	492	1021	0	0	0	
10	0	0	0	0	562	492	1020	0	0	0	
11	0	0	0	0	560	491	1021	0	0	0	
12	0	0	0	0	557	489	1021	0	0	0	
13	0	0	0	0	555	489	1021	0	0	0	
14	0	0	0	0	553	488	1021	0	0	0	
15	0	0	0	0	552	488	1021	0	0	0	
0	0	0	0	0	553	490	1021	0	0	0	
1	0	0	0	0	555	493	1021	0	0	0	
2	0	0	0	0	558	496	1021	0	0	0	
3	0	0	0	0	562	501	1020	0	0	0	
4	0	0	0	0	566	505	1021	0	0	0	
5	0	0	0	0	571	509	1021	0	0	0	
6	0	0	0	0	575	513	1021	0	0	0	
7	0	0	0	0	577	515	1021	0	0	0	
8	0	0	0	0	579	516	1021	0	0	0	
9	0	0	0	0	580	516	1021	0	0	0	
10	0	0	0	0	579	515	1021	0	0	0	
11	0	0	0	0	578	513	1021	0	0	0	
12	0	0	0	0	575	511	1021	0	0	0	
13	0	0	0	0	573	508	1021	0	0	0	
14	0	0	0	0	570	505	1021	0	0	0	
15	0	0	0	0	567	503	1021	0	0	0	
0	0	0	0	0	566	503	1021	0	0	0	
1	0	0	0	0	565	503	1021	0	0	0	
2	0	0	0	0	566	504	1020	0	0	0	
3	0	0	0	0	568	507	1021	0	0	0	
4	0	0	0	0	572	511	1021	0	0	0	
5	0	0	0	0	577	516	1021	0	0	0	
6	0	0	0	0	583	522	1021	0	0	0	
7	0	0	0	0	589	528	1021	0	0	0	
8	0	0	0	0	595	532	1021	0	0	0	
9	0	0	0	0	598	536	1021	0	0	0	
10	0	0	0	0	600	537	1021	0	0	0	
11	0	0	0	0	598	536	1021	0	0	0	
12	0	0	0	0	594	532	1021	0	0	0	
13	0	0	0	0	589	527	1021	0	0	0	
14	0	0	0	0	581	521	1021	0	0	0	
15	0	0	0	0	573	514	1021	0	0	0	
0	0	0	0	0	564	506	1021	0	0	0	
1	0	0	0	0	556	499	1020	0	0	0	
2	0	0	0	0	547	492	1020	0	0	0	
3	0	0	0	0	541	486	1021	0	0	0	
4	0	0	0	0	536	481	1021	0	0	0	
5	0	0	0	0	532	478	1021	0	0	0	
6	0	0	0	0	531	476	1020	0	0	0	
7	0	0	0	0	532	476	1021	0	0	0	
8	0	0	0	0	535	476	1021	0	0	0	
9	0	0	0	0	537	478	1021	0	0	0	
10	0	0	0	0	542	481	1021	0	0	0	
11	0	0	0	0	547	484	1021	0	0	0	
12	0	0	0	0	553	488	1021	0	0	0	
13	0	0	0	0	559	493	1021	0	0	0	
14	0	0	0	0	564	498	1021	0	0	0	
15	0	0	0	0	571	503	1021	0	0	0	
0	0	0	0	0	575	507	1021	0	0	0	
1	0	0	0	0	579	510	1021	0	0	0	
2	0	0	0	0	582	513	1021	0	0	0	
3	0	0	0	0	583	515	1021	0	0	0	
4	0	0	0	0	584	516	1021	0	0	0	
5	0	0	0	0	583	516	1021	0	0	0	
6	0	0	0	0	583	516	1020	0	0	0	
7	0	0	0	0	582	516	1021	0	0	0	
8	0	0	0	0	580	515	1021	0	0	0	
9	0	0	0	0	579	515	1021	0	0	0	
10	0	0	0	0	577	514	1021	0	0	0	
11	0	0	0	0	576	513	1021	0	0	0	
12	0	0	0	0	575	511	1021	0	0	0	
13	0	0	0	0	573	510	1021	0	0	0	
14	0	0	0	0	572	508	1021	0	0	0	
15	0	0	0	0	570	507	1020	0	0	0	
0	0	0	0	0	568	505	1021	0	0	0	
1	0	0	0	0	567	503	1021	0	0	0	
2	0	0	0	0	566	502	1021	0	0	0	
3	0	0	0	0	564	500	1021	0	0	0	
4	0	0	0	0	562	499	1020	0	0	0	
5	0	0	0	0	560	497	1021	0	0	0	
6	0	0	0	0	559	495	1021	0	0	0	
7	0	0	0	0	556	493	1021	0	0	0	
8	0	0	0	0	554	491	1021	0	0	0	
9	0	0	0	0	551	488	1021	0	0	0	
10	0	0	0	0	549	487	1021	0	0	0	
11	0	0	0	0	546	484	1021	0	0	0	
12	0	0	0	0	545	483	1021	0	0	0	
13	0	0	0	0	543	482	1021	0	0	0	
14	0	0	0	0	543	482	1020	0	0	0	
15	0	0	0	0	545	484	1021	0	0	0	
0	0	0	0	0	549	487	1021	0	0	0	
1	0	0	0	0	554	491	1021	0	0	0	
2	0	0	0	0	560	496	1021	0	0	0	
3	0	0	0	0	568	503	1020	0	0	0	
4	0	0	0	0	575	510	1021	0	0	0	
5	0	0	0	0	583	518	1021	0	0	0	
6	0	0	0	0	592	525	1021	0	0	0	
7	0	0	0	0	600	532	1021	0	0	0	
8	0	0	0	0	607	540	1021	0	0	0	
9	0	0	0	0	614	546	1021	0	0	0	
10	0	0	0	0	619	551	1021	0	0	0	
11	0	0	0	0	622	556	1021	0	0	0	
12	0	0	0	0	623	558	1021	0	0	0	
13	0	0	0	0	622	558	1021	0	0	0	
14	0	0	0	0	619	557	1021	0	0	0	
15	0	0	0	0	614	553	1021	0	0	0	
0	0	0	0	0	607	548	1021	0	0	0	
1	0	0	0	0	599	542	1021	0	0	0	
2	0	0	0	0	589	534	1021	0	0	0	
3	0	0	0	0	578	525	1021	0	0	0	
4	0	0	0	0	568	515	1021	0	0	0	
5	0	0	0	0	558	507	1021	0	0	0	
6	0	0	0	0	549	499	1021	0	0	0	
7	0	0	0	0	541	492	1020	0	0	0	
8	0	0	0	0	536	487	1021	0	0	0	
9	0	0	0	0	532	483	1021	0	0	0	
10	0	0	0	0	530	482	1021	0	0	0	
11	0	0	0	0	531	482	1021	0	0	0	
12	0	0	0	0	533	483	1021	0	0	0	
13	0	0	0	0	537	486	1021	0	0	0	
14	0	0	0	0	541	488	1021	0	0	0	
15	0	0	0	0	546	492	1021	0	0	0	
0	0	0	0	0	551	495	1021	0	0	0	
1	0	0	0	0	556	498	1021	0	0	0	
2	0	0	0	0	560	501	1021	0	0	0	
3	0	0	0	0	564	504	1021	0	0	0	
4	0	0	0	0	568	507	1021	0	0	0	
5	0	0	0	0	572	509	1021	0	0	0	
6	0	0	0	0	575	512	1020	0	0	0	
7	0	0	0	0	576	514	1021	0	0	0	
8	0	0	0	0	579	516	1021	0	0	0	
9	0	0	0	0	580	518	1021	0	0	0	
10	0	0	0	0	581	518	1021	0	0	0	
11	0	0	0	0	581	518	1021	0	0	0	
12	0	0	0	0	580	518	1021	0	0	0	
13	0	0	0	0	579	517	1021	0	0	0	
14	0	0	0	0	578	516	1021	0	0	0	
15	0	0	0	0	575	514	1021	0	0	0	
0	0	0	0	0	572	511	1021	0	0	0	
1	0	0	0	0	568	508	1021	0	0	0	
2	0	0	0	0	562	503	1021	0	0	0	
3	0	0	0	0	556	498	1021	0	0	0	
4	0	0	0	0	549	491	1021	0	0	0	
5	0	0	0	0	542	485	1021	0	0	0	
6	0	0	0	0	536	479	1021	0	0	0	
7	0	0	0	0	530	473	1021	0	0	0	
8	0	0	0	0	527	470	1021	0	0	0	
9	0	0	0	0	526	468	1021	0	0	0	
10	0	0	0	0	527	468	1020	0	0	0	
11	0	0	0	0	530	471	1020	0	0	0	
12	0	0	0	0	536	475	1021	0	0	0	
13	0	0	0	0	542	480	1021	0	0	0	
14	0	0	0	0	550	487	1021	0	0	0	
15	0	0	0	0	559	494	1021	0	0	0	
0	0	0	0	0	567	502	1021	0	0	0	
1	0	0	0	0	576	510	1021	0	0	0	
2	0	0	0	0	583	517	1021	0	0	0	
3	0	0	0	0	590	523	1021	0	0	0	
4	0	0	0	0	595	529	1021	0	0	0	
5	0	0	0	0	599	534	1021	0	0	0	
6	0	0	0	0	603	538	1021	0	0	0	
7	0	0	0	0	605	541	1021	0	0	0	
8	0	0	0	0	607	544	1021	0	0	0	
9	0	0	0	0	607	545	1021	0	0	0	
10	0	0	0	0	606	545	1020	0	0	0	
11	0	0	0	0	605	543	1021	0	0	0	
12	0	0	0	0	600	540	1021	0	0	0	
13	0	0	0	0	596	536	1021	0	0	0	
14	0	0	0	0	589	530	1020	0	0	0	
15	0	0	0	0	581	523	1020	0	0	0	
0	0	0	0	0	573	516	1021	0	0	0	
1	0	0	0	0	564	508	1021	0	0	0	
2	0	0	0	0	556	501	1021	0	0	0	
3	0	0	0	0	547	494	1021	0	0	0	
4	0	0	0	0	540	488	1021	0	0	0	
5	0	0	0	0	534	483	1021	0	0	0	
6	0	0	0	0	529	478	1021	0	0	0	
7	0	0	0	0	526	476	1021	0	0	0	
8	0	0	0	0	526	474	1020	0	0	0	
9	0	0	0	0	527	475	1021	0	0	0	
10	0	0	0	0	529	476	1021	0	0	0	
11	0	0	0	0	534	479	1021	0	0	0	
12	0	0	0	0	539	482	1021	0	0	0	
13	0	0	0	0	545	487	1021	0	0	0	
14	0	0	0	0	553	492	1021	0	0	0	
15	0	0	0	0	561	499	1021	0	0	0	
0	0	0	0	0	571	507	1021	0	0	0	
1	0	0	0	0	580	515	1021	0	0	0	
2	0	0	0	0	589	524	1021	0	0	0	
3	0	0	0	0	599	533	1021	0	0	0	
4	0	0	0	0	607	541	1021	0	0	0	
5	0	0	0	0	615	549	1021	0	0	0	
6	0	0	0	0	623	556	1021	0	0	0	
7	0	0	0	0	629	561	1021	0	0	0	
8	0	0	0	0	633	566	1021	0	0	0	
9	0	0	0	0	635	568	1021	0	0	0	
10	0	0	0	0	633	568	1021	0	0	0	
11	0	0	0	0	628	565	1021	0	0	0	
12	0	0	0	0	620	559	1021	0	0	0	
13	0	0	0	0	610	552	1021	0	0	0	
14	0	0	0	0	597	542	1021	0	0	0	
15	0	0	0	0	583	531	1021	0	0	0	
0	0	0	0	0	568	519	1021	0	0	0	
1	0	0	0	0	551	506	1021	0	0	0	
2	0	0	0	0	537	493	1021	0	0	0	
3	0	0	0	0	523	481	1021	0	0	0	
4	0	0	0	0	512	470	1021	0	0	0	
5	0	0	0	0	502	460	1021	0	0	0	
6	0	0	0	0	495	454	1021	0	0	0	
7	0	0	0	0	491	448	1021	0	0	0	
8	0	0	0	0	489	444	1021	0	0	0	
9	0	0	0	0	489	443	1021	0	0	0	
10	0	0	0	0	491	442	1021	0	0	0	
11	0	0	0	0	494	443	1021	0	0	0	
12	0	0	0	0	497	444	1021	0	0	0	
13	0	0	0	0	500	444	1021	0	0	0	
14	0	0	0	0	503	445	1021	0	0	0	
15	0	0	0	0	503	443	1021	0	0	0	
0	0	0	0	0	500	439	1021	0	0	0	
1	0	0	0	0	494	433	1021	0	0	0	
2	0	0	0	0	484	423	1021	0	0	0	
3	0	0	0	0	470	411	1021	0	0	0	
4	0	0	0	0	453	395	1021	0	0	0	
5	0	0	0	0	433	377	1021	0	0	0	
6	0	0	0	0	410	357	1020	0	0	0	
7	0	0	0	0	387	337	1021	0	0	0	
8	0	0	0	0	365	317	1021	0	0	0	
9	0	0	0	0	344	299	1021	0	0	0	
10	0	0	0	0	327	284	1021	0	0	0	
11	0	0	0	0	315	274	1020	0	0	0	
12	0	0	0	0	310	268	1021	0	0	0	
13	0	0	0	0	310	268	1021	0	0	0	
14	0	0	0	0	318	274	1021	0	0	0	
15	0	0	0	0	331	285	1021	0	0	0	
0	0	0	0	0	351	302	1021	0	0	0	
1	0	0	0	0	376	323	1021	0	0	0	
2	0	0	0	0	404	347	1021	0	0	0	
3	0	0	0	0	435	373	1021	0	0	0	
4	0	0	0	0	466	400	1020	0	0	0	
5	0	0	0	0	495	426	1020	0	0	0	
6	0	0	0	0	523	449	1021	0	0	0	
7	0	0	0	0	545	470	1021	0	0	0	
8	0	0	0	0	563	487	1021	0	0	0	
9	0	0	0	0	575	499	1021	0	0	0	
10	0	0	0	0	583	508	1021	0	0	0	
11	0	0	0	0	586	512	1021	0	0	0	
12	0	0	0	0	585	515	1021	0	0	0	
13	0	0	0	0	583	515	1021	0	0	0	
14	0	0	0	0	579	515	1021	0	0	0	
15	0	0	0	0	574	514	1021	0	0	0	
0	0	0	0	0	571	513	1021	0	0	0	
1	0	0	0	0	569	513	1021	0	0	0	
2	0	0	0	0	568	515	1021	0	0	0	
3	0	0	0	0	569	516	1021	0	0	0	
4	0	0	0	0	571	519	1020	0	0	0	
5	0	0	0	0	575	521	1021	0	0	0	
6	0	0	0	0	579	524	1021	0	0	0	
7	0	0	0	0	585	527	1021	0	0	0	
8	0	0	0	0	590	531	1021	0	0	0	
9	0	0	0	0	595	534	1021	0	0	0	
10	0	0	0	0	599	536	1021	0	0	0	
11	0	0	0	0	602	537	1021	0	0	0	
12	0	0	0	0	602	538	1021	0	0	0	
13	0	0	0	0	601	537	1021	0	0	0	
14	0	0	0	0	598	536	1021	0	0	0	
15	0	0	0	0	594	534	1021	0	0	0	
0	0	0	0	0	589	531	1021	0	0	0	
1	0	0	0	0	584	527	1021	0	0	0	
2	0	0	0	0	578	524	1021	0	0	0	
3	0	0	0	0	572	521	1020	0	0	0	
4	0	0	0	0	568	519	1021	0	0	0	
5	0	0	0	0	566	518	1021	0	0	0	
6	0	0	0	0	565	519	1021	0	0	0	
7	0	0	0	0	566	520	1021	0	0	0	
8	0	0	0	0	569	524	1020	0	0	0	
9	0	0	0	0	573	527	1021	0	0	0	
10	0	0	0	0	577	531	1021	0	0	0	
11	0	0	0	0	582	534	1021	0	0	0	
12	0	0	0	0	585	537	1021	0	0	0	
13	0	0	0	0	588	539	1021	0	0	0	
14	0	0	0	0	590	538	1021	0	0	0	
15	0	0	0	0	589	536	1021	0	0	0	
0	0	0	0	0	585	531	1021	0	0	0	
1	0	0	0	0	579	525	1020	0	0	0	
2	0	0	0	0	574	519	1021	0	0	0	
3	0	0	0	0	567	512	1021	0	0	0	
4	0	0	0	0	562	506	1021	0	0	0	
5	0	0	0	0	559	503	1021	0	0	0	
6	0	0	0	0	558	502	1020	0	0	0	
7	0	0	0	0	560	504	1021	0	0	0	
8	0	0	0	0	567	510	1021	0	0	0	
9	0	0	0	0	577	519	1021	0	0	0	
10	0	0	0	0	590	531	1021	0	0	0	
11	0	0	0	0	604	545	1021	0	0	0	
12	0	0	0	0	620	560	1021	0	0	0	
13	0	0	0	0	635	575	1021	0	0	0	
14	0	0	0	0	647	587	1021	0	0	0	
15	0	0	0	0	656	595	1021	0	0	0	
0	0	0	0	0	659	598	1021	0	0	0	
1	0	0	0	0	657	596	1021	0	0	0	
2	0	0	0	0	649	590	1021	0	0	0	
3	0	0	0	0	635	579	1021	0	0	0	
4	0	0	0	0	615	563	1021	0	0	0	
5	0	0	0	0	593	545	1021	0	0	0	
6	0	0	0	0	570	526	1021	0	0	0	
7	0	0	0	0	545	505	1021	0	0	0	
8	0	0	0	0	524	487	1021	0	0	0	
9	0	0	0	0	504	471	1021	0	0	0	
10	0	0	0	0	489	458	1021	0	0	0	
11	0	0	0	0	481	450	1021	0	0	0	
12	0	0	0	0	478	445	1021	0	0	0	
13	0	0	0	0	481	445	1021	0	0	0	
14	0	0	0	0	488	448	1021	0	0	0	
15	0	0	0	0	499	454	1021	0	0	0	
0	0	0	0	0	513	462	1021	0	0	0	
1	0	0	0	0	528	471	1021	0	0	0	
2	0	0	0	0	543	480	1021	0	0	0	
3	0	0	0	0	556	490	1021	0	0	0	
4	0	0	0	0	568	498	1021	0	0	0	
5	0	0	0	0	577	506	1021	0	0	0	
6	0	0	0	0	584	512	1021	0	0	0	
7	0	0	0	0	588	518	1021	0	0	0	
8	0	0	0	0	590	521	1021	0	0	0	
9	0	0	0	0	590	524	1021	0	0	0	
10	0	0	0	0	589	525	1021	0	0	0	
11	0	0	0	0	587	527	1021	0	0	0	
12	0	0	0	0	584	528	1021	0	0	0	
13	0	0	0	0	582	529	1021	0	0	0	
14	0	0	0	0	580	530	1021	0	0	0	
15	0	0	0	0	579	531	1021	0	0	0	
0	0	0	0	0	578	532	1021	0	0	0	
1	0	0	0	0	577	532	1021	0	0	0	
2	0	0	0	0	577	533	1021	0	0	0	
3	0	0	0	0	578	534	1021	0	0	0	
4	0	0	0	0	579	534	1021	0	0	0	
5	0	0	0	0	580	535	1021	0	0	0	
6	0	0	0	0	581	535	1021	0	0	0	
7	0	0	0	0	582	535	1021	0	0	0	
8	0	0	0	0	582	535	1021	0	0	0	
9	0	0	0	0	582	534	1021	0	0	0	
10	0	0	0	0	580	532	1021	0	0	0	
11	0	0	0	0	579	530	1021	0	0	0	
12	0	0	0	0	576	527	1021	0	0	0	
13	0	0	0	0	573	524	1021	0	0	0	
14	0	0	0	0	570	521	1021	0	0	0	
15	0	0	0	0	567	517	1021	0	0	0	
0	0	0	0	0	564	514	1021	0	0	0	
1	0	0	0	0	560	511	1021	0	0	0	
2	0	0	0	0	558	508	1021	0	0	0	
3	0	0	0	0	555	507	1021	0	0	0	
4	0	0	0	0	553	505	1021	0	0	0	
5	0	0	0	0	552	505	1021	0	0	0	
6	0	0	0	0	551	506	1021	0	0	0	
7	0	0	0	0	552	508	1021	0	0	0	
8	0	0	0	0	554	510	1021	0	0	0	
9	0	0	0	0	556	513	1021	0	0	0	
10	0	0	0	0	560	517	1021	0	0	0	
11	0	0	0	0	564	521	1021	0	0	0	
12	0	0	0	0	568	525	1021	0	0	0	
13	0	0	0	0	573	529	1021	0	0	0	
14	0	0	0	0	577	532	1021	0	0	0	
15	0	0	0	0	582	536	1021	0	0	0	
0	0	0	0	0	585	538	1021	0	0	0	
1	0	0	0	0	587	540	1021	0	0	0	
2	0	0	0	0	590	541	1021	0	0	0	
3	0	0	0	0	591	542	1021	0	0	0	
4	0	0	0	0	592	542	1021	0	0	0	
5	0	0	0	0	592	542	1021	0	0	0	
6	0	0	0	0	591	542	1021	0	0	0	
7	0	0	0	0	591	541	1021	0	0	0	
8	0	0	0	0	590	541	1021	0	0	0	
9	0	0	0	0	589	541	1021	0	0	0	
10	0	0	0	0	588	541	1021	0	0	0	
11	0	0	0	0	587	541	1021	0	0	0	
12	0	0	0	0	585	541	1021	0	0	0	
13	0	0	0	0	583	540	1021	0	0	0	
14	0	0	0	0	581	538	1021	0	0	0	
15	0	0	0	0	578	536	1021	0	0	0	
0	0	0	0	0	574	531	1021	0	0	0	
1	0	0	0	0	570	527	1021	0	0	0	
2	0	0	0	0	565	521	1021	0	0	0	
3	0	0	0	0	560	515	1021	0	0	0	
4	0	0	0	0	556	510	1021	0	0	0	
5	0	0	0	0	552	506	1021	0	0	0	
6	0	0	0	0	551	503	1021	0	0	0	
7	0	0	0	0	550	501	1021	0	0	0	
8	0	0	0	0	550	500	1021	0	0	0	
9	0	0	0	0	552	502	1021	0	0	0	
10	0	0	0	0	555	503	1021	0	0	0	
11	0	0	0	0	558	505	1021	0	0	0	
12	0	0	0	0	561	509	1021	0	0	0	
13	0	0	0	0	564	511	1021	0	0	0	
14	0	0	0	0	567	515	1021	0	0	0	
15	0	0	0	0	568	517	1021	0	0	0	
0	0	0	0	0	569	519	1021	0	0	0	
1	0	0	0	0	569	520	1021	0	0	0	
2	0	0	0	0	568	521	1021	0	0	0	
3	0	0	0	0	568	521	1021	0	0	0	
4	0	0	0	0	566	521	1021	0	0	0	
5	0	0	0	0	564	521	1021	0	0	0	
6	0	0	0	0	563	521	1021	0	0	0	
7	0	0	0	0	562	521	1021	0	0	0	
8	0	0	0	0	561	521	1021	0	0	0	
9	0	0	0	0	561	522	1021	0	0	0	
10	0	0	0	0	562	523	1020	0	0	0	
11	0	0	0	0	563	524	1021	0	0	0	
12	0	0	0	0	566	525	1021	0	0	0	
13	0	0	0	0	568	527	1021	0	0	0	
14	0	0	0	0	572	530	1021	0	0	0	
15	0	0	0	0	577	533	1021	0	0	0	
0	0	0	0	0	582	537	1021	0	0	0	
1	0	0	0	0	588	542	1021	0	0	0	
2	0	0	0	0	593	545	1021	0	0	0	
3	0	0	0	0	598	550	1021	0	0	0	
4	0	0	0	0	602	553	1021	0	0	0	
5	0	0	0	0	606	556	1021	0	0	0	
6	0	0	0	0	607	558	1021	0	0	0	
7	0	0	0	0	608	559	1021	0	0	0	
8	0	0	0	0	607	558	1021	0	0	0	
9	0	0	0	0	603	556	1021	0	0	0	
10	0	0	0	0	599	552	1021	0	0	0	
11	0	0	0	0	591	546	1021	0	0	0	
12	0	0	0	0	583	538	1020	0	0	0	
13	0	0	0	0	573	529	1021	0	0	0	
14	0	0	0	0	562	520	1021	0	0	0	
15	0	0	0	0	552	511	1021	0	0	0	
0	0	0	0	0	543	502	1021	0	0	0	
1	0	0	0	0	536	495	1021	0	0	0	
2	0	0	0	0	530	489	1021	0	0	0	
3	0	0	0	0	526	484	1020	0	0	0	
4	0	0	0	0	525	483	1021	0	0	0	
5	0	0	0	0	527	483	1021	0	0	0	
6	0	0	0	0	531	485	1021	0	0	0	
7	0	0	0	0	536	489	1021	0	0	0	
8	0	0	0	0	543	494	1021	0	0	0	
9	0	0	0	0	551	500	1021	0	0	0	
10	0	0	0	0	560	507	1021	0	0	0	
11	0	0	0	0	568	514	1021	0	0	0	
12	0	0	0	0	577	521	1020	0	0	0	
13	0	0	0	0	584	528	1021	0	0	0	
14	0	0	0	0	592	535	1021	0	0	0	
15	0	0	0	0	598	541	1021	0	0	0	
0	0	0	0	0	603	547	1021	0	0	0	
1	0	0	0	0	607	552	1021	0	0	0	
2	0	0	0	0	609	556	1020	0	0	0	
3	0	0	0	0	611	559	1021	0	0	0	
4	0	0	0	0	610	560	1021	0	0	0	
5	0	0	0	0	608	560	1021	0	0	0	
6	0	0	0	0	605	558	1020	0	0	0	
7	0	0	0	0	600	555	1021	0	0	0	
8	0	0	0	0	593	550	1021	0	0	0	
9	0	0	0	0	586	544	1021	0	0	0	
10	0	0	0	0	578	538	1021	0	0	0	
11	0	0	0	0	571	532	1021	0	0	0	
12	0	0	0	0	563	527	1021	0	0	0	
13	0	0	0	0	558	522	1021	0	0	0	
14	0	0	0	0	554	519	1021	0	0	0	
15	0	0	0	0	551	516	1021	0	0	0	
0	0	0	0	0	551	516	1021	0	0	0	
1	0	0	0	0	553	518	1021	0	0	0	
2	0	0	0	0	557	519	1021	0	0	0	
3	0	0	0	0	562	524	1021	0	0	0	
4	0	0	0	0	568	528	1021	0	0	0	
5	0	0	0	0	574	531	1021	0	0	0	
6	0	0	0	0	579	535	1021	0	0	0	
7	0	0	0	0	584	538	1021	0	0	0	
8	0	0	0	0	588	540	1021	0	0	0	
9	0	0	0	0	591	542	1021	0	0	0	
10	0	0	0	0	593	543	1020	0	0	0	
11	0	0	0	0	595	545	1021	0	0	0	
12	0	0	0	0	598	548	1021	0	0	0	
13	0	0	0	0	600	551	1021	0	0	0	
14	0	0	0	0	603	555	1021	0	0	0	
15	0	0	0	0	606	558	1021	0	0	0	
0	0	0	0	0	608	561	1021	0	0	0	
1	0	0	0	0	608	563	1021	0	0	0	
2	0	0	0	0	607	564	1021	0	0	0	
3	0	0	0	0	604	562	1021	0	0	0	
4	0	0	0	0	597	557	1021	0	0	0	
5	0	0	0	0	589	551	1021	0	0	0	
6	0	0	0	0	579	542	1021	0	0	0	
7	0	0	0	0	567	532	1021	0	0	0	
8	0	0	0	0	556	522	1021	0	0	0	
9	0	0	0	0	545	511	1021	0	0	0	
10	0	0	0	0	535	502	1020	0	0	0	
11	0	0	0	0	528	493	1021	0	0	0	
12	0	0	0	0	523	487	1021	0	0	0	
13	0	0	0	0	521	483	1021	0	0	0	
14	0	0	0	0	523	481	1021	0	0	0	
15	0	0	0	0	526	483	1020	0	0	0	
0	0	0	0	0	534	486	1021	0	0	0	
1	0	0	0	0	542	492	1021	0	0	0	
2	0	0	0	0	552	499	1021	0	0	0	
3	0	0	0	0	563	508	1021	0	0	0	
4	0	0	0	0	574	517	1021	0	0	0	
5	0	0	0	0	585	526	1021	0	0	0	
6	0	0	0	0	594	534	1021	0	0	0	
7	0	0	0	0	601	541	1021	0	0	0	
8	0	0	0	0	607	546	1021	0	0	0	
9	0	0	0	0	610	550	1021	0	0	0	
10	0	0	0	0	611	551	1021	0	0	0	
11	0	0	0	0	609	551	1021	0	0	0	
12	0	0	0	0	606	550	1021	0	0	0	
13	0	0	0	0	600	547	1021	0	0	0	
14	0	0	0	0	592	543	1021	0	0	0	
15	0	0	0	0	585	538	1021	0	0	0	
0	0	0	0	0	577	533	1021	0	0	0	
1	0	0	0	0	570	528	1021	0	0	0	
2	0	0	0	0	563	524	1021	0	0	0	
3	0	0	0	0	557	520	1020	0	0	0	
4	0	0	0	0	554	517	1021	0	0	0	
5	0	0	0	0	551	515	1021	0	0	0	
6	0	0	0	0	551	514	1021	0	0	0	
7	0	0	0	0	551	514	1021	0	0	0	
8	0	0	0	0	553	513	1021	0	0	0	
9	0	0	0	0	557	514	1021	0	0	0	
10	0	0	0	0	560	515	1021	0	0	0	
11	0	0	0	0	564	516	1021	0	0	0	
12	0	0	0	0	567	516	1021	0	0	0	
13	0	0	0	0	569	516	1021	0	0	0	
14	0	0	0	0	571	517	1021	0	0	0	
15	0	0	0	0	572	517	1021	0	0	0	
0	0	0	0	0	571	516	1021	0	0	0	
1	0	0	0	0	571	516	1021	0	0	0	
2	0	0	0	0	569	516	1020	0	0	0	
3	0	0	0	0	569	516	1021	0	0	0	
4	0	0	0	0	568	517	1021	0	0	0	
5	0	0	0	0	568	519	1021	0	0	0	
6	0	0	0	0	569	521	1021	0	0	0	
7	0	0	0	0	572	525	1021	0	0	0	
8	0	0	0	0	575	528	1021	0	0	0	
9	0	0	0	0	580	534	1021	0	0	0	
10	0	0	0	0	585	539	1021	0	0	0	
11	0	0	0	0	591	545	1021	0	0	0	
12	0	0	0	0	597	551	1021	0	0	0	
13	0	0	0	0	604	556	1021	0	0	0	
14	0	0	0	0	609	560	1021	0	0	0	
15	0	0	0	0	611	563	1021	0	0	0	
0	0	0	0	0	611	563	1021	0	0	0	
1	0	0	0	0	608	560	1021	0	0	0	
2	0	0	0	0	603	555	1021	0	0	0	
3	0	0	0	0	594	547	1021	0	0	0	
4	0	0	0	0	583	537	1021	0	0	0	
5	0	0	0	0	570	526	1021	0	0	0	
6	0	0	0	0	556	513	1021	0	0	0	
7	0	0	0	0	543	502	1021	0	0	0	
8	0	0	0	0	531	491	1021	0	0	0	
9	0	0	0	0	520	482	1020	0	0	0	
10	0	0	0	0	513	475	1021	0	0	0	
11	0	0	0	0	509	471	1020	0	0	0	
12	0	0	0	0	508	469	1021	0	0	0	
13	0	0	0	0	511	470	1021	0	0	0	
14	0	0	0	0	516	473	1021	0	0	0	
15	0	0	0	0	524	479	1021	0	0	0	
0	0	0	0	0	533	486	1020	0	0	0	
1	0	0	0	0	545	494	1021	0	0	0	
2	0	0	0	0	557	503	1021	0	0	0	
3	0	0	0	0	569	512	1021	0	0	0	
4	0	0	0	0	581	523	1021	0	0	0	
5	0	0	0	0	592	532	1021	0	0	0	
6	0	0	0	0	603	542	1021	0	0	0	
7	0	0	0	0	611	550	1021	0	0	0	
8	0	0	0	0	617	556	1021	0	0	0	
9	0	0	0	0	621	561	1021	0	0	0	
10	0	0	0	0	623	565	1021	0	0	0	
11	0	0	0	0	624	567	1021	0	0	0	
12	0	0	0	0	622	568	1021	0	0	0	
13	0	0	0	0	619	567	1021	0	0	0	
14	0	0	0	0	614	565	1021	0	0	0	
15	0	0	0	0	608	561	1021	0	0	0	
0	0	0	0	0	602	557	1021	0	0	0	
1	0	0	0	0	595	552	1021	0	0	0	
2	0	0	0	0	588	546	1021	0	0	0	
3	0	0	0	0	580	539	1021	0	0	0	
4	0	0	0	0	572	532	1020	0	0	0	
5	0	0	0	0	566	526	1021	0	0	0	
6	0	0	0	0	559	519	1021	0	0	0	
7	0	0	0	0	553	512	1021	0	0	0	
8	0	0	0	0	547	507	1021	0	0	0	
9	0	0	0	0	543	502	1021	0	0	0	
10	0	0	0	0	540	498	1021	0	0	0	
11	0	0	0	0	539	495	1021	0	0	0	
12	0	0	0	0	538	493	1021	0	0	0	
13	0	0	0	0	539	492	1021	0	0	0	
14	0	0	0	0	540	492	1021	0	0	0	
15	0	0	0	0	543	494	1021	0	0	0	
0	0	0	0	0	547	497	1021	0	0	0	
1	0	0	0	0	551	501	1021	0	0	0	
2	0	0	0	0	557	506	1020	0	0	0	
3	0	0	0	0	562	511	1020	0	0	0	
4	0	0	0	0	568	516	1021	0	0	0	
5	0	0	0	0	574	522	1021	0	0	0	
6	0	0	0	0	579	527	1021	0	0	0	
7	0	0	0	0	583	532	1021	0	0	0	
8	0	0	0	0	587	536	1021	0	0	0	
9	0	0	0	0	589	540	1021	0	0	0	
10	0	0	0	0	591	543	1021	0	0	0	
11	0	0	0	0	592	545	1021	0	0	0	
12	0	0	0	0	592	546	1021	0	0	0	
13	0	0	0	0	591	547	1021	0	0	0	
14	0	0	0	0	591	547	1021	0	0	0	
15	0	0	0	0	589	545	1021	0	0	0	
0	0	0	0	0	587	544	1021	0	0	0	
1	0	0	0	0	585	543	1021	0	0	0	
2	0	0	0	0	582	540	1020	0	0	0	
3	0	0	0	0	579	536	1021	0	0	0	
4	0	0	0	0	575	532	1021	0	0	0	
5	0	0	0	0	569	527	1021	0	0	0	
6	0	0	0	0	563	521	1021	0	0	0	
7	0	0	0	0	556	515	1021	0	0	0	
8	0	0	0	0	550	509	1021	0	0	0	
9	0	0	0	0	545	504	1021	0	0	0	
10	0	0	0	0	542	502	1021	0	0	0	
11	0	0	0	0	541	501	1021	0	0	0	
12	0	0	0	0	542	502	1020	0	0	0	
13	0	0	0	0	546	505	1021	0	0	0	
14	0	0	0	0	551	510	1021	0	0	0	
15	0	0	0	0	560	516	1021	0	0	0	
0	0	0	0	0	568	524	1021	0	0	0	
1	0	0	0	0	577	531	1021	0	0	0	
2	0	0	0	0	586	538	1021	0	0	0	
3	0	0	0	0	594	543	1021	0	0	0	
4	0	0	0	0	599	547	1021	0	0	0	
5	0	0	0	0	602	549	1021	0	0	0	
6	0	0	0	0	601	548	1020	0	0	0	
7	0	0	0	0	599	545	1021	0	0	0	
8	0	0	0	0	593	540	1021	0	0	0	
9	0	0	0	0	585	534	1021	0	0	0	
10	0	0	0	0	576	527	1021	0	0	0	
11	0	0	0	0	566	519	1020	0	0	0	
12	0	0	0	0	558	513	1021	0	0	0	
13	0	0	0	0	550	508	1021	0	0	0	
14	0	0	0	0	545	504	1021	0	0	0	
15	0	0	0	0	543	503	1020	0	0	0	
0	0	0	0	0	542	503	1021	0	0	0	
1	0	0	0	0	543	505	1021	0	0	0	
2	0	0	0	0	547	508	1021	0	0	0	
3	0	0	0	0	552	512	1021	0	0	0	
4	0	0	0	0	558	516	1021	0	0	0	
5	0	0	0	0	563	520	1021	0	0	0	
6	0	0	0	0	569	523	1021	0	0	0	
7	0	0	0	0	574	527	1021	0	0	0	
8	0	0	0	0	577	528	1021	0	0	0	
9	0	0	0	0	579	528	1021	0	0	0	
10	0	0	0	0	580	528	1021	0	0	0	
11	0	0	0	0	578	526	1021	0	0	0	
12	0	0	0	0	575	524	1021	0	0	0	
13	0	0	0	0	572	521	1021	0	0	0	
14	0	0	0	0	568	518	1021	0	0	0	
15	0	0	0	0	564	516	1021	0	0	0	
0	0	0	0	0	562	514	1021	0	0	0	
1	0	0	0	0	560	514	1021	0	0	0	
2	0	0	0	0	560	514	1021	0	0	0	
3	0	0	0	0	560	515	1021	0	0	0	
4	0	0	0	0	562	517	1020	0	0	0	
5	0	0	0	0	565	519	1021	0	0	0	
6	0	0	0	0	569	522	1021	0	0	0	
7	0	0	0	0	573	525	1021	0	0	0	
8	0	0	0	0	577	528	1021	0	0	0	
9	0	0	0	0	581	531	1020	0	0	0	
10	0	0	0	0	585	533	1021	0	0	0	
11	0	0	0	0	587	535	1021	0	0	0	
12	0	0	0	0	588	536	1021	0	0	0	
13	0	0	0	0	588	535	1021	0	0	0	
14	0	0	0	0	588	534	1021	0	0	0	
15	0	0	0	0	585	531	1021	0	0	0	
0	0	0	0	0	582	529	1021	0	0	0	
1	0	0	0	0	578	526	1021	0	0	0	
2	0	0	0	0	573	523	1021	0	0	0	
3	0	0	0	0	568	519	1021	0	0	0	
4	0	0	0	0	564	516	1021	0	0	0	
5	0	0	0	0	559	514	1021	0	0	0	
6	0	0	0	0	556	512	1021	0	0	0	
7	0	0	0	0	553	510	1021	0	0	0	
8	0	0	0	0	552	510	1021	0	0	0	
9	0	0	0	0	551	510	1021	0	0	0	
10	0	0	0	0	552	511	1021	0	0	0	
11	0	0	0	0	554	512	1021	0	0	0	
12	0	0	0	0	556	514	1021	0	0	0	
13	0	0	0	0	560	517	1021	0	0	0	
14	0	0	0	0	565	520	1021	0	0	0	
15	0	0	0	0	571	525	1021	0	0	0	
0	0	0	0	0	577	530	1021	0	0	0	
1	0	0	0	0	584	536	1021	0	0	0	
2	0	0	0	0	591	542	1021	0	0	0	
3	0	0	0	0	600	548	1021	0	0	0	
4	0	0	0	0	608	555	1021	0	0	0	
5	0	0	0	0	615	561	1021	0	0	0	
6	0	0	0	0	622	567	1021	0	0	0	
7	0	0	0	0	626	570	1021	0	0	0	
8	0	0	0	0	627	571	1021	0	0	0	
9	0	0	0	0	624	568	1021	0	0	0	
10	0	0	0	0	616	562	1021	0	0	0	
11	0	0	0	0	604	552	1021	0	0	0	
12	0	0	0	0	589	540	1021	0	0	0	
13	0	0	0	0	571	525	1021	0	0	0	
14	0	0	0	0	552	510	1021	0	0	0	
15	0	0	0	0	536	496	1021	0	0	0	
0	0	0	0	0	521	485	1021	0	0	0	
1	0	0	0	0	511	477	1021	0	0	0	
2	0	0	0	0	506	473	1021	0	0	0	
3	0	0	0	0	507	472	1021	0	0	0	
4	0	0	0	0	512	476	1021	0	0	0	
5	0	0	0	0	520	483	1021	0	0	0	
6	0	0	0	0	532	492	1021	0	0	0	
7	0	0	0	0	547	502	1021	0	0	0	
8	0	0	0	0	562	513	1021	0	0	0	
9	0	0	0	0	577	525	1021	0	0	0	
10	0	0	0	0	591	536	1021	0	0	0	
11	0	0	0	0	603	545	1021	0	0	0	
12	0	0	0	0	613	554	1021	0	0	0	
13	0	0	0	0	620	560	1021	0	0	0	
14	0	0	0	0	624	564	1021	0	0	0	
15	0	0	0	0	624	566	1021	0	0	0	
0	0	0	0	0	622	564	1021	0	0	0	
1	0	0	0	0	615	561	1021	0	0	0	
2	0	0	0	0	607	556	1021	0	0	0	
3	0	0	0	0	596	549	1021	0	0	0	
4	0	0	0	0	585	541	1021	0	0	0	
5	0	0	0	0	574	534	1021	0	0	0	
6	0	0	0	0	563	525	1021	0	0	0	
7	0	0	0	0	554	518	1021	0	0	0	
8	0	0	0	0	546	511	1021	0	0	0	
9	0	0	0	0	542	507	1021	0	0	0	
10	0	0	0	0	539	504	1021	0	0	0	
11	0	0	0	0	540	502	1021	0	0	0	
12	0	0	0	0	543	502	1021	0	0	0	
13	0	0	0	0	547	503	1021	0	0	0	
14	0	0	0	0	552	505	1021	0	0	0	
15	0	0	0	0	559	509	1021	0	0	0	
0	0	0	0	0	567	513	1021	0	0	0	
1	0	0	0	0	574	519	1021	0	0	0	
2	0	0	0	0	580	523	1021	0	0	0	
3	0	0	0	0	585	527	1020	0	0	0	
4	0	0	0	0	590	531	1021	0	0	0	
5	0	0	0	0	591	534	1021	0	0	0	
6	0	0	0	0	593	536	1021	0	0	0	
7	0	0	0	0	592	536	1021	0	0	0	
8	0	0	0	0	590	536	1021	0	0	0	
9	0	0	0	0	589	537	1021	0	0	0	
10	0	0	0	0	588	537	1021	0	0	0	
11	0	0	0	0	587	537	1021	0	0	0	
12	0	0	0	0	586	539	1021	0	0	0	
13	0	0	0	0	587	540	1021	0	0	0	
14	0	0	0	0	589	543	1021	0	0	0	
15	0	0	0	0	593	547	1021	0	0	0	
0	0	0	0	0	598	551	1021	0	0	0	
1	0	0	0	0	602	554	1021	0	0	0	
2	0	0	0	0	606	557	1021	0	0	0	
3	0	0	0	0	607	558	1020	0	0	0	
4	0	0	0	0	608	557	1021	0	0	0	
5	0	0	0	0	605	554	1021	0	0	0	
6	0	0	0	0	600	550	1021	0	0	0	
7	0	0	0	0	593	544	1021	0	0	0	
8	0	0	0	0	585	537	1020	0	0	0	
9	0	0	0	0	579	531	1021	0	0	0	
10	0	0	0	0	572	527	1021	0	0	0	
11	0	0	0	0	567	523	1021	0	0	0	
12	0	0	0	0	563	519	1021	0	0	0	
13	0	0	0	0	561	518	1021	0	0	0	
14	0	0	0	0	560	517	1021	0	0	0	
15	0	0	0	0	560	517	1021	0	0	0	
0	0	0	0	0	562	517	1021	0	0	0	
1	0	0	0	0	564	518	1021	0	0	0	
2	0	0	0	0	567	520	1020	0	0	0	
3	0	0	0	0	572	521	1021	0	0	0	
4	0	0	0	0	575	523	1021	0	0	0	
5	0	0	0	0	578	524	1021	0	0	0	
6	0	0	0	0	580	524	1021	0	0	0	
7	0	0	0	0	580	523	1021	0	0	0	
8	0	0	0	0	579	520	1021	0	0	0	
9	0	0	0	0	575	517	1021	0	0	0	
10	0	0	0	0	570	512	1021	0	0	0	
11	0	0	0	0	564	507	1021	0	0	0	
12	0	0	0	0	557	501	1021	0	0	0	
13	0	0	0	0	548	495	1021	0	0	0	
14	0	0	0	0	540	488	1021	0	0	0	
15	0	0	0	0	531	481	1021	0	0	0	
0	0	0	0	0	521	473	1021	0	0	0	
1	0	0	0	0	511	465	1021	0	0	0	
2	0	0	0	0	502	456	1021	0	0	0	
3	0	0	0	0	493	448	1021	0	0	0	
4	0	0	0	0	483	439	1021	0	0	0	
5	0	0	0	0	473	428	1021	0	0	0	
6	0	0	0	0	462	418	1020	0	0	0	
7	0	0	0	0	452	407	1021	0	0	0	
8	0	0	0	0	442	396	1021	0	0	0	
9	0	0	0	0	432	384	1021	0	0	0	
10	0	0	0	0	421	373	1021	0	0	0	
11	0	0	0	0	410	361	1021	0	0	0	
12	0	0	0	0	400	351	1021	0	0	0	
13	0	0	0	0	391	341	1021	0	0	0	
14	0	0	0	0	382	332	1021	0	0	0	
15	0	0	0	0	375	324	1021	0	0	0	
0	0	0	0	0	368	318	1021	0	0	0	
1	0	0	0	0	364	313	1021	0	0	0	
2	0	0	0	0	363	311	1021	0	0	0	
3	0	0	0	0	364	311	1021	0	0	0	
4	0	0	0	0	368	315	1021	0	0	0	
5	0	0	0	0	376	321	1021	0	0	0	
6	0	0	0	0	387	330	1021	0	0	0	
7	0	0	0	0	402	344	1021	0	0	0	
8	0	0	0	0	421	359	1021	0	0	0	
9	0	0	0	0	443	379	1021	0	0	0	
10	0	0	0	0	467	400	1021	0	0	0	
11	0	0	0	0	492	423	1021	0	0	0	
12	0	0	0	0	519	448	1021	0	0	0	
13	0	0	0	0	545	472	1021	0	0	0	
14	0	0	0	0	571	496	1021	0	0	0	
15	0	0	0	0	594	519	1021	0	0	0	
0	0	0	0	0	614	538	1021	0	0	0	
1	0	0	0	0	630	554	1021	0	0	0	
2	0	0	0	0	642	567	1021	0	0	0	
3	0	0	0	0	649	575	1021	0	0	0	
4	0	0	0	0	651	579	1021	0	0	0	
5	0	0	0	0	648	578	1021	0	0	0	
6	0	0	0	0	641	574	1021	0	0	0	
7	0	0	0	0	630	567	1021	0	0	0	
8	0	0	0	0	617	558	1021	0	0	0	
9	0	0	0	0	604	547	1021	0	0	0	
10	0	0	0	0	590	537	1021	0	0	0	
11	0	0	0	0	577	528	1021	0	0	0	
12	0	0	0	0	568	521	1021	0	0	0	
13	0	0	0	0	561	516	1021	0	0	0	
14	0	0	0	0	558	513	1021	0	0	0	
15	0	0	0	0	558	512	1021	0	0	0	
0	0	0	0	0	560	512	1021	0	0	0	
1	0	0	0	0	563	514	1021	0	0	0	
2	0	0	0	0	568	516	1021	0	0	0	
3	0	0	0	0	573	519	1021	0	0	0	
4	0	0	0	0	577	521	1021	0	0	0	
5	0	0	0	0	582	524	1021	0	0	0	
6	0	0	0	0	584	526	1021	0	0	0	
7	0	0	0	0	587	527	1021	0	0	0	
8	0	0	0	0	588	529	1021	0	0	0	
9	0	0	0	0	589	531	1021	0	0	0	
10	0	0	0	0	590	532	1021	0	0	0	
11	0	0	0	0	590	533	1021	0	0	0	
12	0	0	0	0	590	534	1021	0	0	0	
13	0	0	0	0	590	535	1021	0	0	0	
14	0	0	0	0	589	534	1021	0	0	0	
15	0	0	0	0	588	534	1021	0	0	0	
0	0	0	0	0	586	532	1021	0	0	0	
1	0	0	0	0	584	531	1021	0	0	0	
2	0	0	0	0	583	529	1021	0	0	0	
3	0	0	0	0	582	526	1021	0	0	0	
4	0	0	0	0	580	524	1021	0	0	0	
5	0	0	0	0	580	522	1021	0	0	0	
6	0	0	0	0	579	520	1021	0	0	0	
7	0	0	0	0	580	519	1021	0	0	0	
8	0	0	0	0	580	519	1021	0	0	0	
9	0	0	0	0	582	520	1021	0	0	0	
10	0	0	0	0	583	521	1021	0	0	0	
11	0	0	0	0	586	524	1021	0	0	0	
12	0	0	0	0	588	526	1021	0	0	0	
13	0	0	0	0	590	528	1021	0	0	0	
14	0	0	0	0	591	530	1021	0	0	0	
15	0	0	0	0	592	532	1021	0	0	0	
0	0	0	0	0	593	534	1021	0	0	0	
1	0	0	0	0	594	535	1021	0	0	0	
2	0	0	0	0	595	536	1021	0	0	0	
3	0	0	0	0	595	538	1021	0	0	0	
4	0	0	0	0	595	539	1021	0	0	0	
5	0	0	0	0	597	540	1021	0	0	0	
6	0	0	0	0	598	542	1021	0	0	0	
7	0	0	0	0	600	544	1021	0	0	0	
8	0	0	0	0	603	547	1021	0	0	0	
9	0	0	0	0	606	549	1021	0	0	0	
10	0	0	0	0	608	552	1020	0	0	0	
11	0	0	0	0	612	555	1021	0	0	0	
12	0	0	0	0	615	558	1021	0	0	0	
13	0	0	0	0	619	561	1021	0	0	0	
14	0	0	0	0	621	562	1020	0	0	0	
15	0	0	0	0	621	563	1021	0	0	0	
0	0	0	0	0	620	563	1021	0	0	0	
1	0	0	0	0	618	560	1021	0	0	0	
2	0	0	0	0	614	557	1021	0	0	0	
3	0	0	0	0	608	552	1021	0	0	0	
4	0	0	0	0	601	547	1021	0	0	0	
5	0	0	0	0	594	540	1021	0	0	0	
6	0	0	0	0	586	534	1021	0	0	0	
7	0	0	0	0	579	528	1021	0	0	0	
8	0	0	0	0	572	522	1021	0	0	0	
9	0	0	0	0	567	518	1020	0	0	0	
10	0	0	0	0	563	515	1020	0	0	0	
11	0	0	0	0	563	512	1021	0	0	0	
12	0	0	0	0	562	511	1021	0	0	0	
13	0	0	0	0	563	511	1021	0	0	0	
14	0	0	0	0	563	510	1021	0	0	0	
15	0	0	0	0	564	510	1021	0	0	0	
0	0	0	0	0	564	509	1021	0	0	0	
1	0	0	0	0	563	508	1021	0	0	0	
2	0	0	0	0	561	506	1021	0	0	0	
3	0	0	0	0	559	504	1021	0	0	0	
4	0	0	0	0	556	502	1021	0	0	0	
5	0	0	0	0	554	500	1021	0	0	0	
6	0	0	0	0	552	499	1021	0	0	0	
7	0	0	0	0	551	499	1021	0	0	0	
8	0	0	0	0	552	499	1021	0	0	0	
9	0	0	0	0	554	502	1021	0	0	0	
10	0	0	0	0	559	505	1021	0	0	0	
11	0	0	0	0	565	511	1021	0	0	0	
12	0	0	0	0	572	517	1021	0	0	0	
13	0	0	0	0	580	525	1021	0	0	0	
14	0	0	0	0	590	532	1021	0	0	0	
15	0	0	0	0	598	540	1021	0	0	0	
0	0	0	0	0	605	545	1021	0	0	0	
1	0	0	0	0	609	548	1021	0	0	0	
2	0	0	0	0	609	548	1021	0	0	0	
3	0	0	0	0	606	545	1020	0	0	0	
4	0	0	0	0	600	539	1021	0	0	0	
5	0	0	0	0	591	531	1021	0	0	0	
6	0	0	0	0	579	521	1021	0	0	0	
7	0	0	0	0	567	511	1021	0	0	0	
8	0	0	0	0	555	502	1021	0	0	0	
9	0	0	0	0	544	493	1021	0	0	0	
10	0	0	0	0	535	487	1021	0	0	0	
11	0	0	0	0	528	482	1021	0	0	0	
12	0	0	0	0	524	480	1021	0	0	0	
13	0	0	0	0	523	480	1021	0	0	0	
14	0	0	0	0	525	481	1021	0	0	0	
15	0	0	0	0	529	484	1021	0	0	0	
0	0	0	0	0	535	489	1021	0	0	0	
1	0	0	0	0	543	494	1021	0	0	0	
2	0	0	0	0	550	499	1020	0	0	0	
3	0	0	0	0	558	504	1021	0	0	0	
4	0	0	0	0	565	508	1021	0	0	0	
5	0	0	0	0	571	513	1021	0	0	0	
6	0	0	0	0	576	516	1021	0	0	0	
7	0	0	0	0	580	519	1021	0	0	0	
8	0	0	0	0	583	521	1021	0	0	0	
9	0	0	0	0	585	523	1021	0	0	0	
10	0	0	0	0	587	524	1021	0	0	0	
11	0	0	0	0	586	526	1021	0	0	0	
12	0	0	0	0	587	527	1021	0	0	0	
13	0	0	0	0	586	528	1021	0	0	0	
14	0	0	0	0	585	530	1021	0	0	0	
15	0	0	0	0	585	531	1021	0	0	0	
0	0	0	0	0	585	534	1021	0	0	0	
1	0	0	0	0	586	536	1021	0	0	0	
2	0	0	0	0	587	538	1021	0	0	0	
3	0	0	0	0	589	540	1021	0	0	0	
4	0	0	0	0	590	542	1021	0	0	0	
5	0	0	0	0	592	543	1021	0	0	0	
6	0	0	0	0	594	544	1021	0	0	0	
7	0	0	0	0	595	543	1021	0	0	0	
8	0	0	0	0	595	542	1021	0	0	0	
9	0	0	0	0	593	539	1021	0	0	0	
10	0	0	0	0	591	535	1021	0	0	0	
11	0	0	0	0	588	531	1021	0	0	0	
12	0	0	0	0	585	528	1021	0	0	0	
13	0	0	0	0	583	527	1021	0	0	0	
14	0	0	0	0	582	527	1021	0	0	0	
15	0	0	0	0	583	528	1021	0	0	0	
0	0	0	0	0	585	531	1021	0	0	0	
1	0	0	0	0	589	536	1021	0	0	0	
2	0	0	0	0	592	540	1021	0	0	0	
3	0	0	0	0	595	544	1021	0	0	0	
4	0	0	0	0	597	547	1021	0	0	0	
5	0	0	0	0	598	547	1021	0	0	0	
6	0	0	0	0	595	545	1021	0	0	0	
7	0	0	0	0	591	541	1021	0	0	0	
8	0	0	0	0	583	533	1021	0	0	0	
9	0	0	0	0	574	523	1021	0	0	0	
10	0	0	0	0	563	512	1021	0	0	0	
11	0	0	0	0	551	500	1021	0	0	0	
12	0	0	0	0	540	488	1021	0	0	0	
13	0	0	0	0	530	478	1021	0	0	0	
14	0	0	0	0	522	470	1021	0	0	0	
15	0	0	0	0	515	463	1021	0	0	0	
0	0	0	0	0	512	460	1021	0	0	0	
1	0	0	0	0	512	459	1021	0	0	0	
2	0	0	0	0	515	461	1021	0	0	0	
3	0	0	0	0	520	465	1021	0	0	0	
4	0	0	0	0	527	472	1021	0	0	0	
5	0	0	0	0	536	480	1021	0	0	0	
6	0	0	0	0	546	489	1021	0	0	0	
7	0	0	0	0	556	499	1021	0	0	0	
8	0	0	0	0	567	508	1021	0	0	0	
9	0	0	0	0	576	518	1020	0	0	0	
10	0	0	0	0	586	527	1021	0	0	0	
11	0	0	0	0	595	535	1021	0	0	0	
12	0	0	0	0	603	543	1021	0	0	0	
13	0	0	0	0	609	548	1021	0	0	0	
14	0	0	0	0	614	553	1021	0	0	0	
15	0	0	0	0	617	557	1021	0	0	0	
0	0	0	0	0	619	559	1021	0	0	0	
1	0	0	0	0	619	559	1021	0	0	0	
2	0	0	0	0	616	558	1021	0	0	0	
3	0	0	0	0	612	556	1021	0	0	0	
4	0	0	0	0	608	553	1021	0	0	0	
5	0	0	0	0	602	550	1021	0	0	0	
6	0	0	0	0	596	545	1021	0	0	0	
7	0	0	0	0	589	541	1021	0	0	0	
8	0	0	0	0	582	536	1021	0	0	0	
9	0	0	0	0	574	529	1021	0	0	0	
10	0	0	0	0	564	521	1021	0	0	0	
11	0	0	0	0	553	511	1020	0	0	0	
12	0	0	0	0	541	500	1021	0	0	0	
13	0	0	0	0	529	488	1020	0	0	0	
14	0	0	0	0	518	477	1021	0	0	0	
15	0	0	0	0	509	466	1021	0	0	0	
0	0	0	0	0	502	458	1021	0	0	0	
1	0	0	0	0	497	452	1021	0	0	0	
2	0	0	0	0	497	450	1021	0	0	0	
3	0	0	0	0	500	451	1021	0	0	0	
4	0	0	0	0	507	455	1021	0	0	0	
5	0	0	0	0	516	461	1021	0	0	0	
6	0	0	0	0	527	469	1021	0	0	0	
7	0	0	0	0	540	479	1021	0	0	0	
8	0	0	0	0	553	489	1021	0	0	0	
9	0	0	0	0	566	500	1021	0	0	0	
10	0	0	0	0	577	510	1021	0	0	0	
11	0	0	0	0	587	519	1021	0	0	0	
12	0	0	0	0	594	527	1021	0	0	0	
13	0	0	0	0	601	534	1021	0	0	0	
14	0	0	0	0	605	540	1021	0	0	0	
15	0	0	0	0	607	543	1021	0	0	0	
0	0	0	0	0	608	546	1021	0	0	0	
1	0	0	0	0	607	547	1021	0	0	0	
2	0	0	0	0	604	547	1021	0	0	0	
3	0	0	0	0	600	545	1021	0	0	0	
4	0	0	0	0	597	543	1021	0	0	0	
5	0	0	0	0	593	541	1021	0	0	0	
6	0	0	0	0	588	538	1021	0	0	0	
7	0	0	0	0	585	535	1021	0	0	0	
8	0	0	0	0	581	532	1021	0	0	0	
9	0	0	0	0	577	529	1021	0	0	0	
10	0	0	0	0	574	525	1021	0	0	0	
11	0	0	0	0	571	522	1021	0	0	0	
12	0	0	0	0	568	519	1021	0	0	0	
13	0	0	0	0	566	515	1021	0	0	0	
14	0	0	0	0	563	513	1021	0	0	0	
15	0	0	0	0	562	511	1021	0	0	0	
0	0	0	0	0	562	510	1021	0	0	0	
1	0	0	0	0	562	510	1021	0	0	0	
2	0	0	0	0	563	510	1021	0	0	0	
3	0	0	0	0	565	511	1021	0	0	0	
4	0	0	0	0	567	512	1021	0	0	0	
5	0	0	0	0	569	513	1021	0	0	0	
6	0	0	0	0	572	514	1021	0	0	0	
7	0	0	0	0	574	515	1021	0	0	0	
8	0	0	0	0	576	516	1021	0	0	0	
9	0	0	0	0	578	518	1021	0	0	0	
10	0	0	0	0	580	519	1021	0	0	0	
11	0	0	0	0	582	522	1021	0	0	0	
12	0	0	0	0	585	524	1021	0	0	0	
13	0	0	0	0	588	528	1021	0	0	0	
14	0	0	0	0	591	533	1021	0	0	0	
15	0	0	0	0	596	538	1021	0	0	0	
0	0	0	0	0	601	544	1021	0	0	0	
1	0	0	0	0	607	550	1021	0	0	0	
2	0	0	0	0	611	555	1021	0	0	0	
3	0	0	0	0	615	558	1021	0	0	0	
4	0	0	0	0	615	560	1021	0	0	0	
5	0	0	0	0	615	559	1021	0	0	0	
6	0	0	0	0	611	556	1021	0	0	0	
7	0	0	0	0	604	551	1021	0	0	0	
8	0	0	0	0	595	543	1021	0	0	0	
9	0	0	0	0	584	534	1021	0	0	0	
10	0	0	0	0	572	523	1021	0	0	0	
11	0	0	0	0	558	511	1021	0	0	0	
12	0	0	0	0	544	499	1021	0	0	0	
13	0	0	0	0	532	488	1021	0	0	0	
14	0	0	0	0	522	480	1021	0	0	0	
15	0	0	0	0	514	472	1021	0	0	0	
0	0	0	0	0	510	468	1021	0	0	0	
1	0	0	0	0	508	466	1021	0	0	0	
2	0	0	0	0	510	466	1021	0	0	0	
3	0	0	0	0	515	469	1021	0	0	0	
4	0	0	0	0	524	474	1021	0	0	0	
5	0	0	0	0	533	481	1021	0	0	0	
6	0	0	0	0	544	489	1021	0	0	0	
7	0	0	0	0	554	496	1021	0	0	0	
8	0	0	0	0	564	504	1021	0	0	0	
9	0	0	0	0	574	511	1021	0	0	0	
10	0	0	0	0	581	517	1021	0	0	0	
11	0	0	0	0	587	522	1021	0	0	0	
12	0	0	0	0	591	525	1021	0	0	0	
13	0	0	0	0	593	527	1021	0	0	0	
14	0	0	0	0	593	528	1021	0	0	0	
15	0	0	0	0	592	528	1021	0	0	0	
0	0	0	0	0	589	526	1021	0	0	0	
1	0	0	0	0	584	523	1021	0	0	0	
2	0	0	0	0	579	520	1021	0	0	0	
3	0	0	0	0	575	518	1021	0	0	0	
4	0	0	0	0	571	516	1021	0	0	0	
5	0	0	0	0	568	515	1021	0	0	0	
6	0	0	0	0	567	515	1021	0	0	0	
7	0	0	0	0	567	516	1021	0	0	0	
8	0	0	0	0	568	517	1021	0	0	0	
9	0	0	0	0	570	519	1021	0	0	0	
10	0	0	0	0	572	521	1021	0	0	0	
11	0	0	0	0	574	523	1021	0	0	0	
12	0	0	0	0	576	524	1021	0	0	0	
13	0	0	0	0	578	526	1021	0	0	0	
14	0	0	0	0	579	526	1021	0	0	0	
15	0	0	0	0	581	527	1021	0	0	0	
0	0	0	0	0	581	527	1021	0	0	0	
1	0	0	0	0	581	527	1021	0	0	0	
2	0	0	0	0	579	525	1021	0	0	0	
3	0	0	0	0	576	522	1021	0	0	0	
4	0	0	0	0	572	519	1021	0	0	0	
5	0	0	0	0	565	513	1021	0	0	0	
6	0	0	0	0	559	508	1021	0	0	0	
7	0	0	0	0	551	502	1021	0	0	0	
8	0	0	0	0	544	497	1021	0	0	0	
9	0	0	0	0	537	492	1021	0	0	0	
10	0	0	0	0	532	487	1021	0	0	0	
11	0	0	0	0	528	485	1021	0	0	0	
12	0	0	0	0	527	484	1021	0	0	0	
13	0	0	0	0	528	484	1021	0	0	0	
14	0	0	0	0	530	485	1021	0	0	0	
15	0	0	0	0	533	487	1020	0	0	0	
0	0	0	0	0	539	491	1021	0	0	0	
1	0	0	0	0	546	496	1021	0	0	0	
2	0	0	0	0	554	503	1021	0	0	0	
3	0	0	0	0	564	511	1021	0	0	0	
4	0	0	0	0	575	521	1021	0	0	0	
5	0	0	0	0	586	531	1021	0	0	0	
6	0	0	0	0	598	541	1021	0	0	0	
7	0	0	0	0	608	550	1021	0	0	0	
8	0	0	0	0	615	556	1021	0	0	0	
9	0	0	0	0	619	560	1021	0	0	0	
10	0	0	0	0	619	560	1021	0	0	0	
11	0	0	0	0	615	558	1021	0	0	0	
12	0	0	0	0	609	553	1021	0	0	0	
13	0	0	0	0	600	545	1021	0	0	0	
14	0	0	0	0	589	536	1020	0	0	0	
15	0	0	0	0	577	527	1021	0	0	0	
0	0	0	0	0	566	518	1021	0	0	0	
1	0	0	0	0	556	510	1021	0	0	0	
2	0	0	0	0	546	502	1021	0	0	0	
3	0	0	0	0	537	495	1021	0	0	0	
4	0	0	0	0	531	489	1021	0	0	0	
5	0	0	0	0	526	485	1021	0	0	0	
6	0	0	0	0	523	481	1021	0	0	0	
7	0	0	0	0	521	479	1021	0	0	0	
8	0	0	0	0	521	477	1021	0	0	0	
9	0	0	0	0	522	476	1021	0	0	0	
10	0	0	0	0	524	476	1021	0	0	0	
11	0	0	0	0	526	476	1021	0	0	0	
12	0	0	0	0	528	477	1021	0	0	0	
13	0	0	0	0	531	478	1020	0	0	0	
14	0	0	0	0	534	479	1021	0	0	0	
15	0	0	0	0	537	480	1021	0	0	0	
0	0	0	0	0	540	482	1021	0	0	0	
1	0	0	0	0	542	483	1021	0	0	0	
2	0	0	0	0	544	486	1021	0	0	0	
3	0	0	0	0	546	487	1020	0	0	0	
4	0	0	0	0	548	490	1021	0	0	0	
5	0	0	0	0	550	493	1021	0	0	0	
6	0	0	0	0	551	496	1021	0	0	0	
7	0	0	0	0	552	498	1021	0	0	0	
8	0	0	0	0	553	501	1021	0	0	0	
9	0	0	0	0	554	503	1021	0	0	0	
10	0	0	0	0	554	504	1021	0	0	0	
11	0	0	0	0	553	505	1021	0	0	0	
12	0	0	0	0	552	506	1021	0	0	0	
13	0	0	0	0	551	507	1021	0	0	0	
14	0	0	0	0	551	506	1021	0	0	0	
15	0	0	0	0	551	506	1021	0	0	0	
0	0	0	0	0	551	507	1021	0	0	0	
1	0	0	0	0	552	508	1021	0	0	0	
2	0	0	0	0	554	508	1021	0	0	0	
3	0	0	0	0	557	510	1021	0	0	0	
4	0	0	0	0	560	512	1021	0	0	0	
5	0	0	0	0	563	513	1021	0	0	0	
6	0	0	0	0	565	513	1021	0	0	0	
7	0	0	0	0	566	514	1021	0	0	0	
8	0	0	0	0	567	513	1021	0	0	0	
9	0	0	0	0	566	512	1021	0	0	0	
10	0	0	0	0	564	511	1021	0	0	0	
11	0	0	0	0	561	509	1021	0	0	0	
12	0	0	0	0	558	507	1021	0	0	0	
13	0	0	0	0	555	506	1021	0	0	0	
14	0	0	0	0	553	505	1021	0	0	0	
15	0	0	0	0	551	505	1021	0	0	0	
0	0	0	0	0	550	505	1021	0	0	0	
1	0	0	0	0	550	507	1020	0	0	0	
2	0	0	0	0	551	508	1021	0	0	0	
3	0	0	0	0	552	509	1021	0	0	0	
4	0	0	0	0	553	510	1021	0	0	0	
5	0	0	0	0	555	511	1021	0	0	0	
6	0	0	0	0	555	511	1020	0	0	0	
7	0	0	0	0	556	511	1021	0	0	0	
8	0	0	0	0	556	511	1021	0	0	0	
9	0	0	0	0	556	510	1021	0	0	0	
10	0	0	0	0	556	510	1021	0	0	0	
11	0	0	0	0	558	510	1020	0	0	0	
12	0	0	0	0	559	511	1021	0	0	0	
13	0	0	0	0	561	511	1021	0	0	0	
14	0	0	0	0	562	512	1020	0	0	0	
15	0	0	0	0	563	512	1021	0	0	0	
0	0	0	0	0	563	512	1021	0	0	0	
1	0	0	0	0	562	511	1021	0	0	0	
2	0	0	0	0	560	509	1021	0	0	0	
3	0	0	0	0	558	506	1021	0	0	0	
4	0	0	0	0	554	503	1021	0	0	0	
5	0	0	0	0	549	498	1021	0	0	0	
6	0	0	0	0	544	493	1021	0	0	0	
7	0	0	0	0	540	488	1021	0	0	0	
8	0	0	0	0	535	483	1021	0	0	0	
9	0	0	0	0	530	479	1020	0	0	0	
10	0	0	0	0	527	476	1020	0	0	0	
11	0	0	0	0	527	475	1021	0	0	0	
12	0	0	0	0	527	475	1021	0	0	0	
13	0	0	0	0	528	477	1021	0	0	0	
14	0	0	0	0	532	480	1021	0	0	0	
15	0	0	0	0	536	483	1021	0	0	0	
0	0	0	0	0	542	488	1021	0	0	0	
1	0	0	0	0	549	494	1021	0	0	0	
2	0	0	0	0	555	499	1021	0	0	0	
3	0	0	0	0	562	505	1021	0	0	0	
4	0	0	0	0	568	511	1021	0	0	0	
5	0	0	0	0	575	517	1021	0	0	0	
6	0	0	0	0	581	522	1021	0	0	0	
7	0	0	0	0	587	527	1021	0	0	0	
8	0	0	0	0	590	531	1021	0	0	0	
9	0	0	0	0	592	535	1021	0	0	0	
10	0	0	0	0	594	536	1021	0	0	0	
11	0	0	0	0	593	537	1021	0	0	0	
12	0	0	0	0	590	536	1021	0	0	0	
13	0	0	0	0	585	533	1021	0	0	0	
14	0	0	0	0	579	528	1021	0	0	0	
15	0	0	0	0	571	522	1021	0	0	0	
0	0	0	0	0	562	515	1021	0	0	0	
1	0	0	0	0	553	508	1021	0	0	0	
2	0	0	0	0	545	500	1021	0	0	0	
3	0	0	0	0	537	494	1021	0	0	0	
4	0	0	0	0	533	489	1021	0	0	0	
5	0	0	0	0	530	487	1021	0	0	0	
6	0	0	0	0	530	487	1021	0	0	0	
7	0	0	0	0	533	488	1021	0	0	0	
8	0	0	0	0	538	493	1021	0	0	0	
9	0	0	0	0	546	499	1021	0	0	0	
10	0	0	0	0	556	506	1021	0	0	0	
11	0	0	0	0	565	514	1021	0	0	0	
12	0	0	0	0	574	521	1021	0	0	0	
13	0	0	0	0	581	527	1021	0	0	0	
14	0	0	0	0	586	530	1021	0	0	0	
15	0	0	0	0	588	532	1021	0	0	0	
0	0	0	0	0	588	531	1021	0	0	0	
1	0	0	0	0	584	527	1021	0	0	0	
2	0	0	0	0	578	523	1021	0	0	0	
3	0	0	0	0	572	517	1021	0	0	0	
4	0	0	0	0	563	510	1021	0	0	0	
5	0	0	0	0	554	503	1021	0	0	0	
6	0	0	0	0	545	496	1021	0	0	0	
7	0	0	0	0	536	489	1021	0	0	0	
8	0	0	0	0	530	484	1021	0	0	0	
9	0	0	0	0	526	482	1021	0	0	0	
10	0	0	0	0	524	481	1021	0	0	0	
11	0	0	0	0	526	483	1021	0	0	0	
12	0	0	0	0	529	487	1021	0	0	0	
13	0	0	0	0	536	492	1021	0	0	0	
14	0	0	0	0	543	498	1021	0	0	0	
15	0	0	0	0	551	505	1021	0	0	0	
0	0	0	0	0	559	511	1021	0	0	0	
1	0	0	0	0	565	516	1021	0	0	0	
2	0	0	0	0	570	519	1021	0	0	0	
3	0	0	0	0	572	520	1021	0	0	0	
4	0	0	0	0	572	520	1021	0	0	0	
5	0	0	0	0	569	517	1021	0	0	0	
6	0	0	0	0	564	513	1021	0	0	0	
7	0	0	0	0	558	508	1021	0	0	0	
8	0	0	0	0	551	502	1021	0	0	0	
9	0	0	0	0	543	495	1021	0	0	0	
10	0	0	0	0	537	489	1021	0	0	0	
11	0	0	0	0	530	483	1021	0	0	0	
12	0	0	0	0	525	479	1021	0	0	0	
13	0	0	0	0	522	476	1021	0	0	0	
14	0	0	0	0	520	473	1021	0	0	0	
15	0	0	0	0	519	472	1021	0	0	0	
0	0	0	0	0	520	473	1021	0	0	0	
1	0	0	0	0	523	475	1021	0	0	0	
2	0	0	0	0	527	477	1021	0	0	0	
3	0	0	0	0	531	480	1021	0	0	0	
4	0	0	0	0	536	483	1021	0	0	0	
5	0	0	0	0	540	487	1020	0	0	0	
6	0	0	0	0	544	491	1021	0	0	0	
7	0	0	0	0	547	493	1021	0	0	0	
8	0	0	0	0	550	495	1021	0	0	0	
9	0	0	0	0	550	496	1021	0	0	0	
10	0	0	0	0	550	495	1020	0	0	0	
11	0	0	0	0	548	494	1021	0	0	0	
12	0	0	0	0	547	493	1021	0	0	0	
13	0	0	0	0	545	492	1021	0	0	0	
14	0	0	0	0	543	491	1021	0	0	0	
15	0	0	0	0	542	490	1021	0	0	0	
0	0	0	0	0	542	491	1021	0	0	0	
1	0	0	0	0	543	492	1021	0	0	0	
2	0	0	0	0	544	494	1021	0	0	0	
3	0	0	0	0	547	497	1021	0	0	0	
4	0	0	0	0	550	500	1020	0	0	0	
5	0	0	0	0	553	504	1021	0	0	0	
6	0	0	0	0	558	508	1021	0	0	0	
7	0	0	0	0	562	512	1021	0	0	0	
8	0	0	0	0	566	516	1021	0	0	0	
9	0	0	0	0	569	520	1021	0	0	0	
10	0	0	0	0	572	523	1021	0	0	0	
11	0	0	0	0	572	524	1021	0	0	0	
12	0	0	0	0	571	523	1021	0	0	0	
13	0	0	0	0	568	521	1021	0	0	0	
14	0	0	0	0	563	517	1021	0	0	0	
15	0	0	0	0	558	512	1021	0	0	0	
0	0	0	0	0	550	505	1021	0	0	0	
1	0	0	0	0	542	498	1021	0	0	0	
2	0	0	0	0	534	491	1021	0	0	0	
3	0	0	0	0	526	484	1020	0	0	0	
4	0	0	0	0	521	479	1021	0	0	0	
5	0	0	0	0	518	476	1021	0	0	0	
6	0	0	0	0	517	476	1021	0	0	0	
7	0	0	0	0	519	478	1021	0	0	0	
8	0	0	0	0	524	482	1021	0	0	0	
9	0	0	0	0	531	488	1021	0	0	0	
10	0	0	0	0	541	496	1021	0	0	0	
11	0	0	0	0	550	503	1021	0	0	0	
12	0	0	0	0	559	510	1021	0	0	0	
13	0	0	0	0	566	515	1021	0	0	0	
14	0	0	0	0	571	519	1021	0	0	0	
15	0	0	0	0	574	521	1021	0	0	0	
0	0	0	0	0	575	521	1021	0	0	0	
1	0	0	0	0	574	520	1021	0	0	0	
2	0	0	0	0	571	518	1020	0	0	0	
3	0	0	0	0	568	515	1021	0	0	0	
4	0	0	0	0	563	512	1021	0	0	0	
5	0	0	0	0	558	509	1021	0	0	0	
6	0	0	0	0	553	505	1021	0	0	0	
7	0	0	0	0	549	502	1021	0	0	0	
8	0	0	0	0	545	499	1021	0	0	0	
9	0	0	0	0	541	497	1021	0	0	0	
10	0	0	0	0	538	495	1021	0	0	0	
11	0	0	0	0	536	492	1021	0	0	0	
12	0	0	0	0	532	490	1021	0	0	0	
13	0	0	0	0	530	488	1021	0	0	0	
14	0	0	0	0	528	485	1021	0	0	0	
15	0	0	0	0	525	482	1021	0	0	0	
0	0	0	0	0	523	479	1020	0	0	0	
1	0	0	0	0	519	476	1020	0	0	0	
2	0	0	0	0	515	472	1021	0	0	0	
3	0	0	0	0	511	467	1021	0	0	0	
4	0	0	0	0	506	461	1021	0	0	0	
5	0	0	0	0	499	454	1021	0	0	0	
6	0	0	0	0	492	447	1020	0	0	0	
7	0	0	0	0	484	439	1021	0	0	0	
8	0	0	0	0	475	430	1021	0	0	0	
9	0	0	0	0	465	420	1021	0	0	0	
10	0	0	0	0	454	410	1020	0	0	0	
11	0	0	0	0	442	399	1020	0	0	0	
12	0	0	0	0	429	386	1021	0	0	0	
13	0	0	0	0	414	372	1021	0	0	0	
14	0	0	0	0	397	356	1020	0	0	0	
15	0	0	0	0	380	339	1021	0	0	0	
0	0	0	0	0	361	322	1021	0	0	0	
1	0	0	0	0	343	305	1021	0	0	0	
2	0	0	0	0	326	290	1021	0	0	0	
3	0	0	0	0	311	276	1021	0	0	0	
4	0	0	0	0	300	264	1021	0	0	0	
5	0	0	0	0	292	256	1020	0	0	0	
6	0	0	0	0	289	253	1021	0	0	0	
7	0	0	0	0	292	254	1021	0	0	0	
8	0	0	0	0	300	259	1021	0	0	0	
9	0	0	0	0	312	269	1020	0	0	0	
10	0	0	0	0	331	284	1021	0	0	0	
11	0	0	0	0	353	303	1021	0	0	0	
12	0	0	0	0	380	325	1021	0	0	0	
13	0	0	0	0	409	350	1021	0	0	0	
14	0	0	0	0	440	376	1021	0	0	0	
15	0	0	0	0	471	404	1021	0	0	0	
0	0	0	0	0	502	432	1021	0	0	0	
1	0	0	0	0	531	459	1021	0	0	0	
2	0	0	0	0	557	483	1021	0	0	0	
3	0	0	0	0	580	506	1021	0	0	0	
4	0	0	0	0	598	525	1021	0	0	0	
5	0	0	0	0	611	540	1021	0	0	0	
6	0	0	0	0	618	549	1021	0	0	0	
7	0	0	0	0	619	552	1021	0	0	0	
8	0	0	0	0	612	550	1021	0	0	0	
9	0	0	0	0	600	543	1021	0	0	0	
10	0	0	0	0	583	531	1021	0	0	0	
11	0	0	0	0	564	516	1021	0	0	0	
12	0	0	0	0	543	500	1021	0	0	0	
13	0	0	0	0	522	484	1021	0	0	0	
14	0	0	0	0	503	469	1021	0	0	0	
15	0	0	0	0	488	456	1021	0	0	0	
0	0	0	0	0	478	447	1021	0	0	0	
1	0	0	0	0	472	441	1021	0	0	0	
2	0	0	0	0	470	439	1021	0	0	0	
3	0	0	0	0	473	440	1020	0	0	0	
4	0	0	0	0	481	445	1021	0	0	0	
5	0	0	0	0	492	452	1021	0	0	0	
6	0	0	0	0	505	460	1021	0	0	0	
7	0	0	0	0	519	469	1021	0	0	0	
8	0	0	0	0	532	479	1021	0	0	0	
9	0	0	0	0	544	487	1021	0	0	0	
10	0	0	0	0	555	495	1021	0	0	0	
11	0	0	0	0	562	502	1021	0	0	0	
12	0	0	0	0	568	506	1021	0	0	0	
13	0	0	0	0	571	510	1021	0	0	0	
14	0	0	0	0	571	512	1021	0	0	0	
15	0	0	0	0	569	513	1021	0	0	0	
0	0	0	0	0	567	513	1021	0	0	0	
1	0	0	0	0	563	513	1021	0	0	0	
2	0	0	0	0	561	514	1021	0	0	0	
3	0	0	0	0	560	516	1021	0	0	0	
4	0	0	0	0	560	518	1021	0	0	0	
5	0	0	0	0	562	521	1021	0	0	0	
6	0	0	0	0	564	525	1021	0	0	0	
7	0	0	0	0	569	529	1021	0	0	0	
8	0	0	0	0	574	534	1021	0	0	0	
9	0	0	0	0	579	538	1021	0	0	0	
10	0	0	0	0	583	541	1021	0	0	0	
11	0	0	0	0	586	543	1021	0	0	0	
12	0	0	0	0	587	543	1021	0	0	0	
13	0	0	0	0	585	541	1021	0	0	0	
14	0	0	0	0	581	536	1021	0	0	0	
15	0	0	0	0	574	529	1021	0	0	0	
0	0	0	0	0	564	519	1021	0	0	0	
1	0	0	0	0	553	509	1021	0	0	0	
2	0	0	0	0	541	498	1021	0	0	0	
3	0	0	0	0	530	487	1021	0	0	0	
4	0	0	0	0	520	478	1021	0	0	0	
5	0	0	0	0	512	470	1021	0	0	0	
6	0	0	0	0	507	465	1021	0	0	0	
7	0	0	0	0	505	462	1021	0	0	0	
8	0	0	0	0	505	461	1021	0	0	0	
9	0	0	0	0	508	463	1021	0	0	0	
10	0	0	0	0	514	467	1021	0	0	0	
11	0	0	0	0	523	475	1021	0	0	0	
12	0	0	0	0	534	483	1021	0	0	0	
13	0	0	0	0	546	494	1021	0	0	0	
14	0	0	0	0	560	505	1021	0	0	0	
15	0	0	0	0	573	517	1021	0	0	0	
0	0	0	0	0	587	528	1021	0	0	0	
1	0	0	0	0	600	539	1021	0	0	0	
2	0	0	0	0	610	548	1021	0	0	0	
3	0	0	0	0	618	556	1021	0	0	0	
4	0	0	0	0	622	559	1021	0	0	0	
5	0	0	0	0	622	560	1021	0	0	0	
6	0	0	0	0	617	556	1021	0	0	0	
7	0	0	0	0	608	548	1021	0	0	0	
8	0	0	0	0	594	537	1021	0	0	0	
9	0	0	0	0	577	523	1021	0	0	0	
10	0	0	0	0	559	508	1021	0	0	0	
11	0	0	0	0	539	492	1021	0	0	0	
12	0	0	0	0	520	477	1021	0	0	0	
13	0	0	0	0	504	463	1021	0	0	0	
14	0	0	0	0	490	452	1021	0	0	0	
15	0	0	0	0	480	444	1021	0	0	0	
0	0	0	0	0	475	440	1021	0	0	0	
1	0	0	0	0	473	438	1021	0	0	0	
2	0	0	0	0	477	440	1021	0	0	0	
3	0	0	0	0	483	445	1021	0	0	0	
4	0	0	0	0	493	452	1021	0	0	0	
5	0	0	0	0	505	461	1021	0	0	0	
6	0	0	0	0	517	471	1021	0	0	0	
7	0	0	0	0	531	481	1021	0	0	0	
8	0	0	0	0	544	491	1021	0	0	0	
9	0	0	0	0	556	500	1021	0	0	0	
10	0	0	0	0	566	508	1021	0	0	0	
11	0	0	0	0	574	515	1021	0	0	0	
12	0	0	0	0	579	520	1021	0	0	0	
13	0	0	0	0	582	523	1021	0	0	0	
14	0	0	0	0	582	525	1021	0	0	0	
15	0	0	0	0	581	525	1021	0	0	0	
0	0	0	0	0	577	524	1021	0	0	0	
1	0	0	0	0	573	521	1021	0	0	0	
2	0	0	0	0	566	517	1021	0	0	0	
3	0	0	0	0	559	513	1021	0	0	0	
4	0	0	0	0	552	508	1021	0	0	0	
5	0	0	0	0	545	503	1021	0	0	0	
6	0	0	0	0	539	499	1021	0	0	0	
7	0	0	0	0	535	495	1021	0	0	0	
8	0	0	0	0	531	492	1021	0	0	0	
9	0	0	0	0	529	489	1021	0	0	0	
10	0	0	0	0	528	487	1021	0	0	0	
11	0	0	0	0	528	486	1021	0	0	0	
12	0	0	0	0	529	485	1021	0	0	0	
13	0	0	0	0	531	484	1021	0	0	0	
14	0	0	0	0	532	483	1021	0	0	0	
15	0	0	0	0	534	483	1021	0	0	0	
0	0	0	0	0	536	483	1021	0	0	0	
1	0	0	0	0	537	483	1021	0	0	0	
2	0	0	0	0	539	484	1021	0	0	0	
3	0	0	0	0	541	485	1021	0	0	0	
4	0	0	0	0	543	486	1021	0	0	0	
5	0	0	0	0	544	487	1021	0	0	0	
6	0	0	0	0	546	489	1021	0	0	0	
7	0	0	0	0	546	489	1021	0	0	0	
8	0	0	0	0	546	490	1021	0	0	0	
9	0	0	0	0	545	490	1021	0	0	0	
10	0	0	0	0	544	489	1021	0	0	0	
11	0	0	0	0	542	487	1021	0	0	0	
12	0	0	0	0	539	486	1021	0	0	0	
13	0	0	0	0	536	484	1021	0	0	0	
14	0	0	0	0	534	483	1021	0	0	0	
15	0	0	0	0	532	482	1021	0	0	0	
0	0	0	0	0	531	482	1021	0	0	0	
1	0	0	0	0	530	481	1021	0	0	0	
2	0	0	0	0	531	481	1021	0	0	0	
3	0	0	0	0	530	481	1021	0	0	0	
4	0	0	0	0	531	481	1021	0	0	0	
5	0	0	0	0	531	481	1021	0	0	0	
6	0	0	0	0	532	481	1021	0	0	0	
7	0	0	0	0	534	482	1021	0	0	0	
8	0	0	0	0	535	482	1021	0	0	0	
9	0	0	0	0	536	483	1021	0	0	0	
10	0	0	0	0	537	483	1021	0	0	0	
11	0	0	0	0	538	484	1021	0	0	0	
12	0	0	0	0	539	485	1021	0	0	0	
13	0	0	0	0	541	487	1021	0	0	0	
14	0	0	0	0	542	488	1020	0	0	0	
15	0	0	0	0	544	491	1021	0	0	0	
0	0	0	0	0	546	495	1021	0	0	0	
1	0	0	0	0	549	498	1021	0	0	0	
2	0	0	0	0	551	501	1021	0	0	0	
3	0	0	0	0	554	504	1021	0	0	0	
4	0	0	0	0	556	507	1021	0	0	0	
5	0	0	0	0	556	508	1021	0	0	0	
6	0	0	0	0	558	510	1021	0	0	0	
7	0	0	0	0	557	511	1021	0	0	0	
8	0	0	0	0	557	510	1021	0	0	0	
9	0	0	0	0	556	509	1021	0	0	0	
10	0	0	0	0	555	508	1021	0	0	0	
11	0	0	0	0	554	508	1021	0	0	0	
12	0	0	0	0	554	507	1021	0	0	0	
13	0	0	0	0	555	507	1021	0	0	0	
14	0	0	0	0	556	508	1020	0	0	0	
15	0	0	0	0	559	510	1021	0	0	0	
0	0	0	0	0	561	512	1021	0	0	0	
1	0	0	0	0	563	513	1021	0	0	0	
2	0	0	0	0	564	513	1021	0	0	0	
3	0	0	0	0	563	513	1021	0	0	0	
4	0	0	0	0	561	511	1021	0	0	0	
5	0	0	0	0	559	509	1021	0	0	0	
6	0	0	0	0	554	506	1021	0	0	0	
7	0	0	0	0	549	502	1021	0	0	0	
8	0	0	0	0	543	497	1021	0	0	0	
9	0	0	0	0	537	492	1021	0	0	0	
10	0	0	0	0	530	486	1021	0	0	0	
11	0	0	0	0	524	480	1021	0	0	0	
12	0	0	0	0	518	474	1021	0	0	0	
13	0	0	0	0	512	468	1020	0	0	0	
14	0	0	0	0	508	463	1021	0	0	0	
15	0	0	0	0	503	457	1021	0	0	0	
0	0	0	0	0	500	453	1021	0	0	0	
1	0	0	0	0	497	449	1020	0	0	0	
2	0	0	0	0	496	446	1021	0	0	0	
3	0	0	0	0	497	446	1020	0	0	0	
4	0	0	0	0	499	447	1021	0	0	0	
5	0	0	0	0	504	449	1021	0	0	0	
6	0	0	0	0	509	454	1021	0	0	0	
7	0	0	0	0	516	460	1021	0	0	0	
8	0	0	0	0	523	467	1021	0	0	0	
9	0	0	0	0	531	474	1021	0	0	0	
10	0	0	0	0	540	482	1021	0	0	0	
11	0	0	0	0	549	490	1021	0	0	0	
12	0	0	0	0	556	497	1021	0	0	0	
13	0	0	0	0	563	504	1021	0	0	0	
14	0	0	0	0	569	508	1021	0	0	0	
15	0	0	0	0	572	512	1021	0	0	0	
0	0	0	0	0	575	515	1021	0	0	0	
1	0	0	0	0	576	516	1021	0	0	0	
2	0	0	0	0	575	516	1021	0	0	0	
3	0	0	0	0	574	516	1021	0	0	0	
4	0	0	0	0	572	515	1021	0	0	0	
5	0	0	0	0	569	513	1021	0	0	0	
6	0	0	0	0	565	511	1021	0	0	0	
7	0	0	0	0	561	509	1021	0	0	0	
8	0	0	0	0	558	506	1021	0	0	0	
9	0	0	0	0	554	504	1021	0	0	0	
10	0	0	0	0	551	503	1021	0	0	0	
11	0	0	0	0	548	501	1021	0	0	0	
12	0	0	0	0	547	500	1021	0	0	0	
13	0	0	0	0	546	500	1021	0	0	0	
14	0	0	0	0	546	500	1021	0	0	0	
15	0	0	0	0	546	500	1021	0	0	0	
0	0	0	0	0	546	499	1021	0	0	0	
1	0	0	0	0	545	498	1021	0	0	0	
2	0	0	0	0	544	496	1021	0	0	0	
3	0	0	0	0	542	494	1021	0	0	0	
4	0	0	0	0	540	491	1021	0	0	0	
5	0	0	0	0	537	487	1021	0	0	0	
6	0	0	0	0	534	484	1021	0	0	0	
7	0	0	0	0	532	482	1021	0	0	0	
8	0	0	0	0	531	480	1021	0	0	0	
9	0	0	0	0	531	479	1021	0	0	0	
10	0	0	0	0	531	479	1021	0	0	0	
11	0	0	0	0	533	480	1021	0	0	0	
12	0	0	0	0	536	483	1021	0	0	0	
13	0	0	0	0	540	487	1021	0	0	0	
14	0	0	0	0	546	492	1021	0	0	0	
15	0	0	0	0	551	497	1021	0	0	0	
0	0	0	0	0	555	502	1020	0	0	0	
1	0	0	0	0	560	506	1021	0	0	0	
2	0	0	0	0	563	510	1021	0	0	0	
3	0	0	0	0	566	512	1021	0	0	0	
4	0	0	0	0	566	512	1021	0	0	0	
5	0	0	0	0	564	511	1021	0	0	0	
6	0	0	0	0	560	508	1021	0	0	0	
7	0	0	0	0	555	504	1021	0	0	0	
8	0	0	0	0	548	498	1021	0	0	0	
9	0	0	0	0	540	492	1021	0	0	0	
10	0	0	0	0	533	486	1021	0	0	0	
11	0	0	0	0	526	480	1021	0	0	0	
12	0	0	0	0	519	475	1021	0	0	0	
13	0	0	0	0	515	472	1021	0	0	0	
14	0	0	0	0	512	470	1021	0	0	0	
15	0	0	0	0	512	469	1021	0	0	0	
0	0	0	0	0	513	471	1021	0	0	0	
1	0	0	0	0	516	473	1021	0	0	0	
2	0	0	0	0	522	477	1021	0	0	0	
3	0	0	0	0	527	482	1021	0	0	0	
4	0	0	0	0	534	487	1021	0	0	0	
5	0	0	0	0	541	492	1021	0	0	0	
6	0	0	0	0	547	497	1021	0	0	0	
7	0	0	0	0	552	501	1021	0	0	0	
8	0	0	0	0	556	504	1021	0	0	0	
9	0	0	0	0	556	504	1020	0	0	0	
10	0	0	0	0	556	504	1021	0	0	0	
11	0	0	0	0	554	502	1021	0	0	0	
12	0	0	0	0	550	499	1021	0	0	0	
13	0	0	0	0	545	496	1021	0	0	0	
14	0	0	0	0	540	492	1021	0	0	0	
15	0	0	0	0	536	489	1021	0	0	0	
0	0	0	0	0	533	487	1021	0	0	0	
1	0	0	0	0	531	486	1021	0	0	0	
2	0	0	0	0	532	487	1021	0	0	0	
3	0	0	0	0	534	488	1020	0	0	0	
4	0	0	0	0	538	492	1021	0	0	0	
5	0	0	0	0	544	497	1021	0	0	0	
6	0	0	0	0	551	502	1021	0	0	0	
7	0	0	0	0	557	507	1021	0	0	0	
8	0	0	0	0	563	512	1021	0	0	0	
9	0	0	0	0	568	516	1021	0	0	0	
10	0	0	0	0	571	517	1021	0	0	0	
11	0	0	0	0	570	516	1021	0	0	0	
12	0	0	0	0	566	511	1021	0	0	0	
13	0	0	0	0	559	505	1021	0	0	0	
14	0	0	0	0	549	496	1021	0	0	0	
15	0	0	0	0	537	486	1021	0	0	0	
0	0	0	0	0	524	475	1021	0	0	0	
1	0	0	0	0	512	464	1020	0	0	0	
2	0	0	0	0	501	454	1021	0	0	0	
3	0	0	0	0	492	447	1021	0	0	0	
4	0	0	0	0	487	442	1021	0	0	0	
5	0	0	0	0	485	440	1021	0	0	0	
6	0	0	0	0	487	441	1021	0	0	0	
7	0	0	0	0	491	445	1021	0	0	0	
8	0	0	0	0	500	452	1021	0	0	0	
9	0	0	0	0	512	462	1021	0	0	0	
10	0	0	0	0	526	474	1021	0	0	0	
11	0	0	0	0	542	487	1021	0	0	0	
12	0	0	0	0	557	501	1021	0	0	0	
13	0	0	0	0	572	513	1021	0	0	0	
14	0	0	0	0	584	523	1021	0	0	0	
15	0	0	0	0	592	529	1021	0	0	0	
0	0	0	0	0	595	532	1021	0	0	0	
1	0	0	0	0	594	530	1021	0	0	0	
2	0	0	0	0	588	525	1021	0	0	0	
3	0	0	0	0	577	515	1021	0	0	0	
4	0	0	0	0	563	503	1021	0	0	0	
5	0	0	0	0	545	489	1021	0	0	0	
6	0	0	0	0	528	474	1021	0	0	0	
7	0	0	0	0	511	460	1021	0	0	0	
8	0	0	0	0	496	448	1021	0	0	0	
9	0	0	0	0	483	438	1020	0	0	0	
10	0	0	0	0	474	432	1021	0	0	0	
11	0	0	0	0	470	429	1020	0	0	0	
12	0	0	0	0	470	430	1021	0	0	0	
13	0	0	0	0	474	433	1021	0	0	0	
14	0	0	0	0	482	440	1021	0	0	0	
15	0	0	0	0	492	448	1021	0	0	0	
0	0	0	0	0	504	458	1020	0	0	0	
1	0	0	0	0	518	468	1021	0	0	0	
2	0	0	0	0	530	477	1021	0	0	0	
3	0	0	0	0	542	486	1021	0	0	0	
4	0	0	0	0	551	493	1021	0	0	0	
5	0	0	0	0	559	498	1021	0	0	0	
6	0	0	0	0	563	501	1021	0	0	0	
7	0	0	0	0	565	502	1021	0	0	0	
8	0	0	0	0	564	501	1021	0	0	0	
9	0	0	0	0	560	498	1021	0	0	0	
10	0	0	0	0	555	495	1021	0	0	0	
11	0	0	0	0	549	490	1021	0	0	0	
12	0	0	0	0	542	484	1021	0	0	0	
13	0	0	0	0	535	479	1021	0	0	0	
14	0	0	0	0	528	474	1021	0	0	0	
15	0	0	0	0	522	470	1021	0	0	0	
0	0	0	0	0	518	467	1021	0	0	0	
1	0	0	0	0	515	465	1021	0	0	0	
2	0	0	0	0	513	463	1021	0	0	0	
3	0	0	0	0	512	463	1021	0	0	0	
4	0	0	0	0	513	464	1021	0	0	0	
5	0	0	0	0	515	465	1021	0	0	0	
6	0	0	0	0	519	468	1021	0	0	0	
7	0	0	0	0	523	472	1021	0	0	0	
8	0	0	0	0	528	475	1021	0	0	0	
9	0	0	0	0	533	480	1020	0	0	0	
10	0	0	0	0	539	484	1021	0	0	0	
11	0	0	0	0	543	488	1021	0	0	0	
12	0	0	0	0	547	492	1021	0	0	0	
13	0	0	0	0	550	494	1021	0	0	0	
14	0	0	0	0	551	495	1021	0	0	0	
15	0	0	0	0	551	495	1021	0	0	0	
0	0	0	0	0	550	494	1021	0	0	0	
1	0	0	0	0	547	490	1021	0	0	0	
2	0	0	0	0	542	485	1021	0	0	0	
3	0	0	0	0	535	479	1021	0	0	0	
4	0	0	0	0	528	472	1021	0	0	0	
5	0	0	0	0	520	465	1021	0	0	0	
6	0	0	0	0	512	458	1021	0	0	0	
7	0	0	0	0	505	452	1020	0	0	0	
8	0	0	0	0	499	448	1020	0	0	0	
9	0	0	0	0	495	444	1021	0	0	0	
10	0	0	0	0	493	443	1021	0	0	0	
11	0	0	0	0	492	443	1021	0	0	0	
12	0	0	0	0	494	444	1021	0	0	0	
13	0	0	0	0	496	446	1021	0	0	0	
14	0	0	0	0	500	449	1021	0	0	0	
15	0	0	0	0	505	452	1021	0	0	0	
0	0	0	0	0	509	455	1021	0	0	0	
1	0	0	0	0	513	459	1021	0	0	0	
2	0	0	0	0	517	462	1020	0	0	0	
3	0	0	0	0	521	464	1021	0	0	0	
4	0	0	0	0	523	465	1021	0	0	0	
5	0	0	0	0	524	466	1021	0	0	0	
6	0	0	0	0	524	466	1021	0	0	0	
7	0	0	0	0	524	466	1021	0	0	0	
8	0	0	0	0	525	467	1021	0	0	0	
9	0	0	0	0	526	469	1021	0	0	0	
10	0	0	0	0	527	471	1021	0	0	0	
11	0	0	0	0	529	473	1021	0	0	0	
12	0	0	0	0	531	477	1021	0	0	0	
13	0	0	0	0	534	480	1021	0	0	0	
14	0	0	0	0	537	483	1021	0	0	0	
15	0	0	0	0	540	486	1021	0	0	0	
0	0	0	0	0	543	488	1021	0	0	0	
1	0	0	0	0	545	491	1021	0	0	0	
2	0	0	0	0	547	492	1021	0	0	0	
3	0	0	0	0	547	492	1021	0	0	0	
4	0	0	0	0	547	492	1021	0	0	0	
5	0	0	0	0	545	491	1021	0	0	0	
6	0	0	0	0	543	488	1021	0	0	0	
7	0	0	0	0	540	486	1021	0	0	0	
8	0	0	0	0	536	483	1021	0	0	0	
9	0	0	0	0	532	480	1021	0	0	0	
10	0	0	0	0	529	477	1021	0	0	0	
11	0	0	0	0	526	475	1020	0	0	0	
12	0	0	0	0	525	474	1021	0	0	0	
13	0	0	0	0	524	473	1021	0	0	0	
14	0	0	0	0	523	473	1021	0	0	0	
15	0	0	0	0	523	473	1021	0	0	0	
0	0	0	0	0	523	474	1021	0	0	0	
1	0	0	0	0	524	475	1021	0	0	0	
2	0	0	0	0	525	475	1021	0	0	0	
3	0	0	0	0	526	476	1021	0	0	0	
4	0	0	0	0	527	477	1021	0	0	0	
5	0	0	0	0	529	479	1021	0	0	0	
6	0	0	0	0	532	481	1021	0	0	0	
7	0	0	0	0	535	483	1021	0	0	0	
8	0	0	0	0	539	487	1021	0	0	0	
9	0	0	0	0	543	492	1021	0	0	0	
10	0	0	0	0	549	497	1021	0	0	0	
11	0	0	0	0	555	502	1021	0	0	0	
12	0	0	0	0	560	507	1021	0	0	0	
13	0	0	0	0	564	511	1021	0	0	0	
14	0	0	0	0	567	513	1021	0	0	0	
15	0	0	0	0	567	513	1021	0	0	0	
0	0	0	0	0	565	511	1021	0	0	0	
1	0	0	0	0	560	507	1021	0	0	0	
2	0	0	0	0	554	500	1021	0	0	0	
3	0	0	0	0	545	493	1021	0	0	0	
4	0	0	0	0	536	484	1021	0	0	0	
5	0	0	0	0	527	476	1021	0	0	0	
6	0	0	0	0	518	468	1021	0	0	0	
7	0	0	0	0	510	461	1021	0	0	0	
8	0	0	0	0	503	454	1021	0	0	0	
9	0	0	0	0	497	449	1021	0	0	0	
10	0	0	0	0	493	445	1021	0	0	0	
11	0	0	0	0	491	443	1021	0	0	0	
12	0	0	0	0	490	442	1021	0	0	0	
13	0	0	0	0	491	442	1021	0	0	0	
14	0	0	0	0	493	444	1021	0	0	0	
15	0	0	0	0	497	447	1021	0	0	0	
0	0	0	0	0	502	450	1021	0	0	0	
1	0	0	0	0	508	455	1021	0	0	0	
2	0	0	0	0	513	460	1021	0	0	0	
3	0	0	0	0	520	466	1021	0	0	0	
4	0	0	0	0	526	472	1021	0	0	0	
5	0	0	0	0	533	478	1021	0	0	0	
6	0	0	0	0	539	483	1021	0	0	0	
7	0	0	0	0	544	489	1021	0	0	0	
8	0	0	0	0	549	495	1021	0	0	0	
9	0	0	0	0	553	499	1021	0	0	0	
10	0	0	0	0	556	502	1021	0	0	0	
11	0	0	0	0	556	503	1021	0	0	0	
12	0	0	0	0	555	503	1021	0	0	0	
13	0	0	0	0	553	502	1021	0	0	0	
14	0	0	0	0	549	499	1021	0	0	0	
15	0	0	0	0	543	495	1021	0	0	0	
0	0	0	0	0	537	489	1021	0	0	0	
1	0	0	0	0	529	482	1021	0	0	0	
2	0	0	0	0	522	476	1021	0	0	0	
3	0	0	0	0	515	470	1021	0	0	0	
4	0	0	0	0	510	464	1021	0	0	0	
5	0	0	0	0	505	460	1021	0	0	0	
6	0	0	0	0	502	457	1021	0	0	0	
7	0	0	0	0	502	457	1021	0	0	0	
8	0	0	0	0	504	458	1021	0	0	0	
9	0	0	0	0	507	460	1021	0	0	0	
10	0	0	0	0	511	464	1021	0	0	0	
11	0	0	0	0	516	468	1021	0	0	0	
12	0	0	0	0	522	472	1021	0	0	0	
13	0	0	0	0	527	476	1021	0	0	0	
14	0	0	0	0	531	479	1021	0	0	0	
15	0	0	0	0	533	480	1021	0	0	0	
0	0	0	0	0	534	480	1021	0	0	0	
1	0	0	0	0	533	478	1021	0	0	0	
2	0	0	0	0	530	476	1021	0	0	0	
3	0	0	0	0	526	472	1021	0	0	0	
4	0	0	0	0	521	468	1021	0	0	0	
5	0	0	0	0	516	463	1021	0	0	0	
6	0	0	0	0	511	459	1021	0	0	0	
7	0	0	0	0	506	455	1021	0	0	0	
8	0	0	0	0	503	454	1021	0	0	0	
9	0	0	0	0	502	453	1021	0	0	0	
10	0	0	0	0	503	455	1021	0	0	0	
11	0	0	0	0	507	459	1021	0	0	0	
12	0	0	0	0	513	464	1021	0	0	0	
13	0	0	0	0	522	472	1021	0	0	0	
14	0	0	0	0	532	481	1021	0	0	0	
15	0	0	0	0	543	491	1020	0	0	0	
0	0	0	0	0	555	501	1021	0	0	0	
1	0	0	0	0	565	510	1021	0	0	0	
2	0	0	0	0	574	516	1021	0	0	0	
3	0	0	0	0	579	521	1021	0	0	0	
4	0	0	0	0	582	523	1021	0	0	0	
5	0	0	0	0	580	521	1021	0	0	0	
6	0	0	0	0	574	517	1021	0	0	0	
7	0	0	0	0	565	509	1021	0	0	0	
8	0	0	0	0	553	499	1021	0	0	0	
9	0	0	0	0	539	487	1021	0	0	0	
10	0	0	0	0	522	474	1021	0	0	0	
11	0	0	0	0	507	461	1021	0	0	0	
12	0	0	0	0	492	449	1021	0	0	0	
13	0	0	0	0	479	438	1021	0	0	0	
14	0	0	0	0	468	429	1021	0	0	0	
15	0	0	0	0	461	423	1021	0	0	0	
0	0	0	0	0	459	419	1021	0	0	0	
1	0	0	0	0	459	418	1021	0	0	0	
2	0	0	0	0	463	421	1021	0	0	0	
3	0	0	0	0	471	426	1021	0	0	0	
4	0	0	0	0	481	433	1021	0	0	0	
5	0	0	0	0	494	442	1021	0	0	0	
6	0	0	0	0	506	451	1021	0	0	0	
7	0	0	0	0	518	460	1021	0	0	0	
8	0	0	0	0	529	468	1021	0	0	0	
9	0	0	0	0	537	475	1021	0	0	0	
10	0	0	0	0	543	479	1021	0	0	0	
11	0	0	0	0	546	482	1021	0	0	0	
12	0	0	0	0	546	482	1021	0	0	0	
13	0	0	0	0	543	480	1021	0	0	0	
14	0	0	0	0	538	478	1021	0	0	0	
15	0	0	0	0	531	473	1021	0	0	0	
0	0	0	0	0	524	469	1021	0	0	0	
1	0	0	0	0	517	465	1021	0	0	0	
2	0	0	0	0	511	461	1021	0	0	0	
3	0	0	0	0	506	458	1021	0	0	0	
4	0	0	0	0	503	456	1021	0	0	0	
5	0	0	0	0	503	457	1021	0	0	0	
6	0	0	0	0	504	458	1021	0	0	0	
7	0	0	0	0	508	461	1021	0	0	0	
8	0	0	0	0	513	465	1021	0	0	0	
9	0	0	0	0	520	470	1021	0	0	0	
10	0	0	0	0	527	476	1021	0	0	0	
11	0	0	0	0	536	482	1021	0	0	0	
12	0	0	0	0	544	488	1021	0	0	0	
13	0	0	0	0	551	493	1021	0	0	0	
14	0	0	0	0	558	498	1021	0	0	0	
15	0	0	0	0	563	501	1021	0	0	0	
0	0	0	0	0	566	504	1021	0	0	0	
1	0	0	0	0	567	504	1021	0	0	0	
2	0	0	0	0	565	502	1021	0	0	0	
3	0	0	0	0	561	499	1021	0	0	0	
4	0	0	0	0	554	494	1021	0	0	0	
5	0	0	0	0	545	486	1021	0	0	0	
6	0	0	0	0	534	476	1021	0	0	0	
7	0	0	0	0	520	465	1021	0	0	0	
8	0	0	0	0	506	453	1021	0	0	0	
9	0	0	0	0	492	441	1021	0	0	0	
10	0	0	0	0	477	428	1021	0	0	0	
11	0	0	0	0	462	415	1021	0	0	0	
12	0	0	0	0	449	403	1021	0	0	0	
13	0	0	0	0	436	391	1021	0	0	0	
14	0	0	0	0	425	381	1021	0	0	0	
15	0	0	0	0	415	371	1021	0	0	0	
0	0	0	0	0	407	361	1021	0	0	0	
1	0	0	0	0	399	353	1021	0	0	0	
2	0	0	0	0	391	345	1021	0	0	0	
3	0	0	0	0	385	338	1021	0	0	0	
4	0	0	0	0	378	330	1021	0	0	0	
5	0	0	0	0	372	322	1021	0	0	0	
6	0	0	0	0	365	314	1020	0	0	0	
7	0	0	0	0	359	307	1021	0	0	0	
8	0	0	0	0	354	300	1021	0	0	0	
9	0	0	0	0	350	294	1021	0	0	0	
10	0	0	0	0	347	289	1021	0	0	0	
11	0	0	0	0	345	286	1021	0	0	0	
12	0	0	0	0	345	285	1021	0	0	0	
13	0	0	0	0	347	286	1021	0	0	0	
14	0	0	0	0	351	289	1021	0	0	0	
15	0	0	0	0	356	294	1021	0	0	0	
0	0	0	0	0	363	300	1021	0	0	0	
1	0	0	0	0	371	307	1021	0	0	0	
2	0	0	0	0	380	316	1021	0	0	0	
3	0	0	0	0	391	326	1021	0	0	0	
4	0	0	0	0	402	337	1021	0	0	0	
5	0	0	0	0	413	348	1021	0	0	0	
6	0	0	0	0	426	360	1021	0	0	0	
7	0	0	0	0	439	374	1021	0	0	0	
8	0	0	0	0	452	387	1021	0	0	0	
9	0	0	0	0	467	401	1021	0	0	0	
10	0	0	0	0	481	415	1021	0	0	0	
11	0	0	0	0	496	430	1021	0	0	0	
12	0	0	0	0	511	445	1021	0	0	0	
13	0	0	0	0	525	460	1021	0	0	0	
14	0	0	0	0	539	473	1021	0	0	0	
15	0	0	0	0	551	487	1021	0	0	0	
0	0	0	0	0	563	498	1021	0	0	0	
1	0	0	0	0	572	508	1021	0	0	0	
2	0	0	0	0	579	515	1021	0	0	0	
3	0	0	0	0	582	519	1021	0	0	0	
4	0	0	0	0	582	521	1021	0	0	0	
5	0	0	0	0	579	520	1021	0	0	0	
6	0	0	0	0	575	517	1021	0	0	0	
7	0	0	0	0	567	512	1021	0	0	0	
8	0	0	0	0	559	507	1021	0	0	0	
9	0	0	0	0	551	500	1021	0	0	0	
10	0	0	0	0	543	494	1021	0	0	0	
11	0	0	0	0	535	488	1021	0	0	0	
12	0	0	0	0	527	481	1021	0	0	0	
13	0	0	0	0	520	475	1021	0	0	0	
14	0	0	0	0	513	468	1021	0	0	0	
15	0	0	0	0	508	462	1021	0	0	0	
0	0	0	0	0	503	456	1021	0	0	0	
1	0	0	0	0	497	450	1021	0	0	0	
2	0	0	0	0	494	445	1021	0	0	0	
3	0	0	0	0	490	441	1021	0	0	0	
4	0	0	0	0	488	438	1021	0	0	0	
5	0	0	0	0	487	436	1021	0	0	0	
6	0	0	0	0	487	435	1021	0	0	0	
7	0	0	0	0	488	435	1021	0	0	0	
8	0	0	0	0	491	437	1021	0	0	0	
9	0	0	0	0	495	441	1021	0	0	0	
10	0	0	0	0	500	446	1021	0	0	0	
11	0	0	0	0	507	451	1021	0	0	0	
12	0	0	0	0	514	458	1021	0	0	0	
13	0	0	0	0	520	464	1021	0	0	0	
14	0	0	0	0	527	471	1021	0	0	0	
15	0	0	0	0	534	477	1021	0	0	0	
0	0	0	0	0	539	483	1021	0	0	0	
1	0	0	0	0	544	487	1021	0	0	0	
2	0	0	0	0	547	491	1021	0	0	0	
3	0	0	0	0	550	493	1021	0	0	0	
4	0	0	0	0	551	495	1021	0	0	0	
5	0	0	0	0	551	495	1021	0	0	0	
6	0	0	0	0	551	495	1021	0	0	0	
7	0	0	0	0	549	494	1021	0	0	0	
8	0	0	0	0	547	493	1021	0	0	0	
9	0	0	0	0	544	492	1021	0	0	0	
10	0	0	0	0	542	490	1021	0	0	0	
11	0	0	0	0	539	488	1021	0	0	0	
12	0	0	0	0	537	487	1021	0	0	0	
13	0	0	0	0	536	487	1021	0	0	0	
14	0	0	0	0	536	487	1021	0	0	0	
15	0	0	0	0	536	487	1021	0	0	0	
0	0	0	0	0	538	488	1021	0	0	0	
1	0	0	0	0	540	489	1021	0	0	0	
2	0	0	0	0	541	491	1021	0	0	0	
3	0	0	0	0	543	491	1021	0	0	0	
4	0	0	0	0	543	491	1021	0	0	0	
5	0	0	0	0	543	490	1021	0	0	0	
6	0	0	0	0	542	489	1021	0	0	0	
7	0	0	0	0	540	487	1021	0	0	0	
8	0	0	0	0	537	485	1021	0	0	0	
9	0	0	0	0	535	483	1021	0	0	0	
10	0	0	0	0	532	481	1021	0	0	0	
11	0	0	0	0	530	479	1021	0	0	0	
12	0	0	0	0	529	479	1021	0	0	0	
13	0	0	0	0	530	480	1021	0	0	0	
14	0	0	0	0	531	482	1021	0	0	0	
15	0	0	0	0	535	486	1021	0	0	0	
0	0	0	0	0	539	490	1021	0	0	0	
1	0	0	0	0	545	495	1021	0	0	0	
2	0	0	0	0	551	501	1021	0	0	0	
3	0	0	0	0	556	505	1021	0	0	0	
4	0	0	0	0	561	509	1021	0	0	0	
5	0	0	0	0	564	512	1021	0	0	0	
6	0	0	0	0	565	513	1021	0	0	0	
7	0	0	0	0	564	512	1021	0	0	0	
8	0	0	0	0	560	509	1021	0	0	0	
9	0	0	0	0	555	504	1021	0	0	0	
10	0	0	0	0	547	497	1021	0	0	0	
11	0	0	0	0	538	490	1021	0	0	0	
12	0	0	0	0	529	482	1021	0	0	0	
13	0	0	0	0	520	476	1021	0	0	0	
14	0	0	0	0	512	470	1021	0	0	0	
15	0	0	0	0	507	465	1021	0	0	0	
0	0	0	0	0	503	463	1021	0	0	0	
1	0	0	0	0	502	461	1021	0	0	0	
2	0	0	0	0	503	462	1021	0	0	0	
3	0	0	0	0	505	463	1021	0	0	0	
4	0	0	0	0	508	464	1021	0	0	0	
5	0	0	0	0	512	467	1021	0	0	0	
6	0	0	0	0	515	468	1021	0	0	0	
7	0	0	0	0	518	468	1021	0	0	0	
8	0	0	0	0	519	468	1021	0	0	0	
9	0	0	0	0	518	466	1021	0	0	0	
10	0	0	0	0	516	463	1021	0	0	0	
11	0	0	0	0	514	460	1021	0	0	0	
12	0	0	0	0	511	457	1021	0	0	0	
13	0	0	0	0	507	454	1021	0	0	0	
14	0	0	0	0	504	451	1021	0	0	0	
15	0	0	0	0	501	448	1021	0	0	0	
0	0	0	0	0	499	446	1021	0	0	0	
1	0	0	0	0	498	446	1021	0	0	0	
2	0	0	0	0	499	447	1021	0	0	0	
3	0	0	0	0	500	448	1021	0	0	0	
4	0	0	0	0	503	451	1021	0	0	0	
5	0	0	0	0	507	455	1021	0	0	0	
6	0	0	0	0	511	459	1021	0	0	0	
7	0	0	0	0	515	462	1021	0	0	0	
8	0	0	0	0	520	467	1021	0	0	0	
9	0	0	0	0	525	470	1021	0	0	0	
10	0	0	0	0	529	474	1021	0	0	0	
11	0	0	0	0	532	476	1021	0	0	0	
12	0	0	0	0	535	479	1021	0	0	0	
13	0	0	0	0	537	480	1021	0	0	0	
14	0	0	0	0	539	482	1021	0	0	0	
15	0	0	0	0	539	483	1021	0	0	0	
0	0	0	0	0	539	483	1021	0	0	0	
1	0	0	0	0	539	483	1021	0	0	0	
2	0	0	0	0	538	483	1021	0	0	0	
3	0	0	0	0	537	483	1021	0	0	0	
4	0	0	0	0	536	483	1021	0	0	0	
5	0	0	0	0	535	482	1021	0	0	0	
6	0	0	0	0	535	482	1021	0	0	0	
7	0	0	0	0	535	482	1021	0	0	0	
8	0	0	0	0	536	483	1021	0	0	0	
9	0	0	0	0	537	484	1021	0	0	0	
10	0	0	0	0	539	486	1021	0	0	0	
11	0	0	0	0	541	487	1021	0	0	0	
12	0	0	0	0	543	489	1021	0	0	0	
13	0	0	0	0	546	492	1021	0	0	0	
14	0	0	0	0	548	494	1021	0	0	0	
15	0	0	0	0	549	495	1021	0	0	0	
0	0	0	0	0	550	496	1021	0	0	0	
1	0	0	0	0	551	497	1021	0	0	0	
2	0	0	0	0	551	497	1021	0	0	0	
3	0	0	0	0	551	498	1021	0	0	0	
4	0	0	0	0	551	498	1021	0	0	0	
5	0	0	0	0	552	499	1021	0	0	0	
6	0	0	0	0	552	499	1021	0	0	0	
7	0	0	0	0	553	500	1021	0	0	0	
8	0	0	0	0	553	500	1021	0	0	0	
9	0	0	0	0	553	500	1021	0	0	0	
10	0	0	0	0	551	499	1021	0	0	0	
11	0	0	0	0	549	496	1021	0	0	0	
12	0	0	0	0	545	493	1021	0	0	0	
13	0	0	0	0	541	488	1021	0	0	0	
14	0	0	0	0	535	483	1021	0	0	0	
15	0	0	0	0	528	477	1021	0	0	0	
0	0	0	0	0	521	471	1021	0	0	0	
1	0	0	0	0	514	465	1021	0	0	0	
2	0	0	0	0	508	459	1021	0	0	0	
3	0	0	0	0	503	455	1021	0	0	0	
4	0	0	0	0	499	451	1021	0	0	0	
5	0	0	0	0	496	448	1021	0	0	0	
6	0	0	0	0	496	448	1021	0	0	0	
7	0	0	0	0	496	448	1021	0	0	0	
8	0	0	0	0	499	449	1021	0	0	0	
9	0	0	0	0	503	452	1021	0	0	0	
10	0	0	0	0	507	455	1021	0	0	0	
11	0	0	0	0	512	458	1021	0	0	0	
12	0	0	0	0	518	462	1021	0	0	0	
13	0	0	0	0	523	465	1021	0	0	0	
14	0	0	0	0	527	469	1021	0	0	0	
15	0	0	0	0	532	472	1021	0	0	0	
0	0	0	0	0	537	476	1021	0	0	0	
1	0	0	0	0	541	480	1021	0	0	0	
2	0	0	0	0	544	483	1021	0	0	0	
3	0	0	0	0	547	487	1021	0	0	0	
4	0	0	0	0	550	489	1021	0	0	0	
5	0	0	0	0	551	491	1021	0	0	0	
6	0	0	0	0	551	492	1021	0	0	0	
7	0	0	0	0	551	491	1021	0	0	0	
8	0	0	0	0	548	489	1021	0	0	0	
9	0	0	0	0	544	486	1021	0	0	0	
10	0	0	0	0	540	482	1021	0	0	0	
11	0	0	0	0	534	477	1021	0	0	0	
12	0	0	0	0	527	472	1021	0	0	0	
13	0	0	0	0	520	466	1021	0	0	0	
14	0	0	0	0	513	460	1021	0	0	0	
15	0	0	0	0	507	455	1021	0	0	0	
0	0	0	0	0	502	450	1021	0	0	0	
1	0	0	0	0	497	447	1021	0	0	0	
2	0	0	0	0	495	444	1021	0	0	0	
3	0	0	0	0	494	444	1021	0	0	0	
4	0	0	0	0	496	445	1021	0	0	0	
5	0	0	0	0	500	449	1021	0	0	0	
6	0	0	0	0	506	454	1021	0	0	0	
7	0	0	0	0	513	460	1021	0	0	0	
8	0	0	0	0	521	467	1021	0	0	0	
9	0	0	0	0	530	475	1021	0	0	0	
10	0	0	0	0	539	482	1021	0	0	0	
11	0	0	0	0	547	490	1021	0	0	0	
12	0	0	0	0	555	496	1021	0	0	0	
13	0	0	0	0	561	503	1021	0	0	0	
14	0	0	0	0	567	508	1021	0	0	0	
15	0	0	0	0	570	511	1021	0	0	0	
0	0	0	0	0	572	513	1021	0	0	0	
1	0	0	0	0	572	512	1021	0	0	0	
2	0	0	0	0	568	510	1021	0	0	0	
3	0	0	0	0	564	506	1021	0	0	0	
4	0	0	0	0	557	501	1021	0	0	0	
5	0	0	0	0	549	494	1021	0	0	0	
6	0	0	0	0	540	487	1021	0	0	0	
7	0	0	0	0	532	480	1021	0	0	0	
8	0	0	0	0	525	475	1021	0	0	0	
9	0	0	0	0	519	470	1021	0	0	0	
10	0	0	0	0	516	467	1021	0	0	0	
11	0	0	0	0	514	466	1021	0	0	0	
12	0	0	0	0	514	466	1021	0	0	0	
13	0	0	0	0	516	468	1021	0	0	0	
14	0	0	0	0	520	471	1021	0	0	0	
15	0	0	0	0	524	474	1021	0	0	0	
0	0	0	0	0	529	478	1021	0	0	0	
1	0	0	0	0	535	482	1021	0	0	0	
2	0	0	0	0	540	486	1021	0	0	0	
3	0	0	0	0	546	490	1021	0	0	0	
4	0	0	0	0	550	494	1021	0	0	0	
5	0	0	0	0	554	496	1021	0	0	0	
6	0	0	0	0	557	499	1021	0	0	0	
7	0	0	0	0	559	500	1021	0	0	0	
8	0	0	0	0	560	502	1021	0	0	0	
9	0	0	0	0	560	501	1021	0	0	0	
10	0	0	0	0	559	500	1021	0	0	0	
11	0	0	0	0	556	499	1021	0	0	0	
12	0	0	0	0	553	497	1021	0	0	0	
13	0	0	0	0	549	494	1021	0	0	0	
14	0	0	0	0	543	490	1021	0	0	0	
15	0	0	0	0	538	485	1021	0	0	0	
0	0	0	0	0	531	481	1021	0	0	0	
1	0	0	0	0	526	476	1021	0	0	0	
2	0	0	0	0	521	472	1021	0	0	0	
3	0	0	0	0	516	469	1021	0	0	0	
4	0	0	0	0	514	467	1021	0	0	0	
5	0	0	0	0	513	466	1021	0	0	0	
6	0	0	0	0	513	465	1021	0	0	0	
7	0	0	0	0	515	466	1021	0	0	0	
8	0	0	0	0	518	467	1021	0	0	0	
9	0	0	0	0	521	469	1021	0	0	0	
10	0	0	0	0	526	472	1021	0	0	0	
11	0	0	0	0	529	473	1021	0	0	0	
12	0	0	0	0	532	475	1021	0	0	0	
13	0	0	0	0	535	476	1021	0	0	0	
14	0	0	0	0	536	476	1021	0	0	0	
15	0	0	0	0	537	477	1021	0	0	0	
0	0	0	0	0	539	477	1021	0	0	0	
1	0	0	0	0	539	478	1021	0	0	0	
2	0	0	0	0	540	480	1021	0	0	0	
3	0	0	0	0	541	481	1021	0	0	0	
4	0	0	0	0	542	483	1021	0	0	0	
5	0	0	0	0	543	486	1021	0	0	0	
6	0	0	0	0	544	488	1021	0	0	0	
7	0	0	0	0	546	490	1021	0	0	0	
8	0	0	0	0	547	492	1021	0	0	0	
9	0	0	0	0	548	494	1021	0	0	0	
10	0	0	0	0	550	495	1021	0	0	0	
11	0	0	0	0	550	496	1021	0	0	0	
12	0	0	0	0	550	495	1021	0	0	0	
13	0	0	0	0	549	493	1020	0	0	0	
14	0	0	0	0	547	492	1021	0	0	0	
15	0	0	0	0	546	489	1021	0	0	0	
0	0	0	0	0	544	487	1021	0	0	0	
1	0	0	0	0	542	485	1021	0	0	0	
2	0	0	0	0	540	483	1021	0	0	0	
3	0	0	0	0	539	483	1021	0	0	0	
4	0	0	0	0	538	482	1021	0	0	0	
5	0	0	0	0	538	482	1021	0	0	0	
6	0	0	0	0	539	483	1021	0	0	0	
7	0	0	0	0	539	484	1021	0	0	0	
8	0	0	0	0	539	484	1021	0	0	0	
9	0	0	0	0	538	484	1021	0	0	0	
10	0	0	0	0	537	484	1021	0	0	0	
11	0	0	0	0	536	483	1021	0	0	0	
12	0	0	0	0	533	481	1021	0	0	0	
13	0	0	0	0	531	480	1021	0	0	0	
14	0	0	0	0	527	477	1021	0	0	0	
15	0	0	0	0	524	475	1021	0	0	0	
0	0	0	0	0	521	472	1021	0	0	0	
1	0	0	0	0	518	469	1021	0	0	0	
2	0	0	0	0	515	465	1021	0	0	0	
3	0	0	0	0	512	462	1021	0	0	0	
4	0	0	0	0	510	459	1021	0	0	0	
5	0	0	0	0	508	456	1021	0	0	0	
6	0	0	0	0	508	455	1021	0	0	0	
7	0	0	0	0	509	455	1021	0	0	0	
8	0	0	0	0	512	457	1021	0	0	0	
9	0	0	0	0	516	459	1021	0	0	0	
10	0	0	0	0	521	463	1021	0	0	0	
11	0	0	0	0	527	468	1021	0	0	0	
12	0	0	0	0	533	473	1021	0	0	0	
13	0	0	0	0	540	479	1021	0	0	0	
14	0	0	0	0	546	485	1021	0	0	0	
15	0	0	0	0	551	490	1021	0	0	0	
0	0	0	0	0	555	494	1021	0	0	0	
1	0	0	0	0	558	496	1021	0	0	0	
2	0	0	0	0	558	497	1021	0	0	0	
3	0	0	0	0	556	496	1021	0	0	0	
4	0	0	0	0	551	493	1021	0	0	0	
5	0	0	0	0	546	488	1021	0	0	0	
6	0	0	0	0	540	483	1021	0	0	0	
7	0	0	0	0	533	478	1021	0	0	0	
8	0	0	0	0	527	472	1021	0	0	0	
9	0	0	0	0	521	467	1021	0	0	0	
10	0	0	0	0	515	463	1021	0	0	0	
11	0	0	0	0	512	460	1021	0	0	0	
12	0	0	0	0	510	457	1021	0	0	0	
13	0	0	0	0	509	457	1021	0	0	0	
14	0	0	0	0	510	458	1021	0	0	0	
15	0	0	0	0	512	460	1021	0	0	0	
0	0	0	0	0	515	462	1021	0	0	0	
1	0	0	0	0	519	464	1021	0	0	0	
2	0	0	0	0	521	467	1021	0	0	0	
3	0	0	0	0	523	468	1021	0	0	0	
4	0	0	0	0	524	468	1021	0	0	0	
5	0	0	0	0	524	467	1021	0	0	0	
6	0	0	0	0	522	466	1021	0	0	0	
7	0	0	0	0	520	464	1021	0	0	0	
8	0	0	0	0	517	461	1021	0	0	0	
9	0	0	0	0	514	458	1021	0	0	0	
10	0	0	0	0	511	455	1021	0	0	0	
11	0	0	0	0	509	454	1021	0	0	0	
12	0	0	0	0	508	452	1021	0	0	0	
13	0	0	0	0	508	452	1021	0	0	0	
14	0	0	0	0	508	452	1021	0	0	0	
15	0	0	0	0	509	453	1021	0	0	0	
0	0	0	0	0	512	455	1021	0	0	0	
1	0	0	0	0	515	457	1021	0	0	0	
2	0	0	0	0	519	461	1021	0	0	0	
3	0	0	0	0	523	464	1021	0	0	0	
4	0	0	0	0	527	468	1021	0	0	0	
5	0	0	0	0	532	473	1021	0	0	0	
6	0	0	0	0	537	477	1021	0	0	0	
7	0	0	0	0	541	481	1021	0	0	0	
8	0	0	0	0	544	484	1021	0	0	0	
9	0	0	0	0	546	487	1021	0	0	0	
10	0	0	0	0	547	489	1021	0	0	0	
11	0	0	0	0	548	491	1021	0	0	0	
12	0	0	0	0	548	491	1021	0	0	0	
13	0	0	0	0	547	491	1021	0	0	0	
14	0	0	0	0	546	491	1021	0	0	0	
15	0	0	0	0	544	490	1021	0	0	0	
0	0	0	0	0	542	488	1021	0	0	0	
1	0	0	0	0	539	487	1021	0	0	0	
2	0	0	0	0	536	485	1021	0	0	0	
3	0	0	0	0	533	482	1021	0	0	0	
4	0	0	0	0	531	481	1021	0	0	0	
5	0	0	0	0	528	479	1021	0	0	0	
6	0	0	0	0	527	478	1021	0	0	0	
7	0	0	0	0	526	477	1021	0	0	0	
8	0	0	0	0	526	478	1021	0	0	0	
9	0	0	0	0	527	478	1021	0	0	0	
10	0	0	0	0	528	479	1021	0	0	0	
11	0	0	0	0	530	480	1021	0	0	0	
12	0	0	0	0	532	481	1021	0	0	0	
13	0	0	0	0	533	483	1021	0	0	0	
14	0	0	0	0	534	483	1021	0	0	0	
15	0	0	0	0	534	483	1021	0	0	0	
0	0	0	0	0	534	483	1021	0	0	0	
1	0	0	0	0	533	481	1021	0	0	0	
2	0	0	0	0	531	480	1021	0	0	0	
3	0	0	0	0	531	479	1021	0	0	0	
4	0	0	0	0	529	478	1021	0	0	0	
5	0	0	0	0	527	477	1021	0	0	0	
6	0	0	0	0	527	476	1021	0	0	0	
7	0	0	0	0	526	475	1021	0	0	0	
8	0	0	0	0	527	476	1021	0	0	0	
9	0	0	0	0	527	477	1021	0	0	0	
10	0	0	0	0	528	477	1021	0	0	0	
11	0	0	0	0	529	478	1021	0	0	0	
12	0	0	0	0	529	478	1021	0	0	0	
13	0	0	0	0	529	479	1021	0	0	0	
14	0	0	0	0	529	478	1021	0	0	0	
15	0	0	0	0	528	477	1021	0	0	0	
0	0	0	0	0	527	475	1021	0	0	0	
1	0	0	0	0	524	473	1021	0	0	0	
2	0	0	0	0	523	471	1021	0	0	0	
3	0	0	0	0	520	467	1021	0	0	0	
4	0	0	0	0	518	465	1021	0	0	0	
5	0	0	0	0	516	462	1021	0	0	0	
6	0	0	0	0	515	461	1021	0	0	0	
7	0	0	0	0	515	460	1021	0	0	0	
8	0	0	0	0	515	459	1021	0	0	0	
9	0	0	0	0	517	461	1021	0	0	0	
10	0	0	0	0	519	463	1021	0	0	0	
11	0	0	0	0	522	465	1021	0	0	0	
12	0	0	0	0	526	468	1021	0	0	0	
