# OpenSignals Text File Format. Version 1
# {"": {"position": 0, "device": "", "device name": "", "device connection": "", "sampling rate": 1000, "resolution": [4, 1, 1, 1, 1, 10, 10, 10, 10, 6, 6], "firmware version": 1281, "comments": "", "keywords": "", "mode": 0, "sync interval": 2, "date": "", "time": "", "channels": [1, 2, 3, 4, 5, 6], "sensor": ["RAW", "RAW", "RAW", "RAW", "RAW", "RAW"], "label": ["A1", "A2", "A3", "A4", "A5", "A6"], "column": ["nSeq", "I1", "I2", "O1", "O2", "A1", "A2", "A3", "A4", "A5", "A6"], "special": [{}, {}, {}, {}, {}, {}], "digital IO": [0, 0, 1, 1]}}
# EndOfHeader
0	0	0	0	0	451	71	0	0	0	0	
1	0	0	0	0	452	75	0	0	0	0	
2	0	0	0	0	453	79	0	0	0	0	
3	0	0	0	0	454	83	0	0	0	0	
4	0	0	0	0	453	86	0	0	0	0	
5	0	0	0	0	451	88	0	0	0	0	
6	0	0	0	0	449	90	0	0	0	0	
7	0	0	0	0	446	90	0	0	0	0	
8	0	0	0	0	442	89	0	0	0	0	
9	0	0	0	0	438	86	0	0	0	0	
10	0	0	0	0	432	82	0	0	0	0	
11	0	0	0	0	428	78	0	0	0	0	
12	0	0	0	0	423	73	0	0	0	0	
13	0	0	0	0	419	69	0	0	0	0	
14	0	0	0	0	416	65	0	0	0	0	
15	0	0	0	0	414	62	0	0	0	0	
0	0	0	0	0	412	59	0	0	0	0	
1	0	0	0	0	410	57	0	0	0	0	
2	0	0	0	0	408	55	0	0	0	0	
3	0	0	0	0	406	53	0	0	0	0	
4	0	0	0	0	402	51	0	0	0	0	
5	0	0	0	0	398	47	0	0	0	0	
6	0	0	0	0	394	46	0	0	0	0	
7	0	0	0	0	391	44	0	0	0	0	
8	0	0	0	0	387	43	0	0	0	0	
9	0	0	0	0	385	43	0	0	0	0	
10	0	0	0	0	383	43	0	0	0	0	
11	0	0	0	0	382	43	0	0	0	0	
12	0	0	0	0	383	44	0	0	0	0	
13	0	0	0	0	386	45	0	0	0	0	
14	0	0	0	0	389	46	0	0	0	0	
15	0	0	0	0	394	48	0	0	0	0	
0	0	0	0	0	400	50	0	0	0	0	
1	0	0	0	0	406	53	0	0	0	0	
2	0	0	0	0	414	57	0	0	0	0	
3	0	0	0	0	424	63	0	0	0	0	
4	0	0	0	0	435	71	0	0	0	0	
5	0	0	0	0	448	81	0	0	0	0	
6	0	0	0	0	460	93	0	0	0	0	
7	0	0	0	0	473	105	0	0	0	0	
8	0	0	0	0	485	119	0	0	0	0	
9	0	0	0	0	495	132	0	0	0	0	
10	0	0	0	0	501	144	0	3	0	0	
11	0	0	0	0	506	156	0	11	0	0	
12	0	0	0	0	508	164	0	20	0	0	
13	0	0	0	0	507	171	0	31	0	0	
14	0	0	0	0	502	174	0	42	0	0	
15	0	0	0	0	494	173	0	51	0	0	
0	0	0	0	0	483	168	0	57	0	0	
1	0	0	0	0	469	160	0	61	0	0	
2	0	0	0	0	455	149	0	62	0	0	
3	0	0	0	0	440	136	0	60	0	0	
4	0	0	0	0	425	121	0	56	0	0	
5	0	0	0	0	413	108	0	51	0	0	
6	0	0	0	0	403	95	0	44	0	0	
7	0	0	0	0	397	85	0	39	0	0	
8	0	0	0	0	395	78	0	35	0	0	
9	0	0	0	0	396	74	0	32	0	0	
10	0	0	0	0	399	74	0	32	0	0	
11	0	0	0	0	404	77	0	34	0	0	
12	0	0	0	0	411	82	0	38	0	0	
13	0	0	0	0	416	88	0	43	0	0	
14	0	0	0	0	422	95	0	49	0	0	
15	0	0	0	0	427	102	0	54	0	0	
0	0	0	0	0	431	108	0	60	0	0	
1	0	0	0	0	434	114	0	65	0	0	
2	0	0	0	0	437	119	0	70	0	0	
3	0	0	0	0	439	123	0	74	0	0	
4	0	0	0	0	439	127	0	77	0	0	
5	0	0	0	0	438	129	0	79	0	0	
6	0	0	0	0	436	131	0	80	0	0	
7	0	0	0	0	432	131	0	82	0	0	
8	0	0	0	0	428	129	0	82	0	0	
9	0	0	0	0	423	129	0	82	0	0	
10	0	0	0	0	419	127	0	83	0	0	
11	0	0	0	0	417	126	0	84	0	0	
12	0	0	0	0	416	125	0	86	0	0	
13	0	0	0	0	417	124	0	88	0	0	
14	0	0	0	0	419	124	0	91	0	0	
15	0	0	0	0	423	126	0	94	0	0	
0	0	0	0	0	428	128	0	97	0	0	
1	0	0	0	0	434	131	0	100	0	0	
2	0	0	0	0	438	135	0	102	0	0	
3	0	0	0	0	441	138	0	104	0	0	
4	0	0	0	0	443	142	0	105	0	0	
5	0	0	0	0	442	144	0	105	0	0	
6	0	0	0	0	440	146	0	104	0	0	
7	0	0	0	0	437	146	0	103	0	0	
8	0	0	0	0	432	146	0	102	0	0	
9	0	0	0	0	429	145	0	102	0	0	
10	0	0	0	0	426	145	0	102	0	0	
11	0	0	0	0	423	144	0	103	0	0	
12	0	0	0	0	422	144	0	107	0	0	
13	0	0	0	0	420	144	0	111	0	0	
14	0	0	0	0	421	145	0	116	0	0	
15	0	0	0	0	423	148	0	123	0	0	
0	0	0	0	0	426	152	0	132	0	0	
1	0	0	0	0	431	157	0	141	0	0	
2	0	0	0	0	437	163	0	150	0	0	
3	0	0	0	0	444	170	0	158	0	0	
4	0	0	0	0	452	176	0	165	0	0	
5	0	0	0	0	459	182	0	170	0	0	
6	0	0	0	0	466	187	0	174	0	0	
7	0	0	0	0	472	189	0	175	0	0	
8	0	0	0	0	474	189	0	173	0	0	
9	0	0	0	0	472	185	0	169	0	0	
10	0	0	0	0	465	179	0	163	0	0	
11	0	0	0	0	454	171	0	157	0	0	
12	0	0	0	0	439	162	0	150	0	0	
13	0	0	0	0	423	152	0	142	0	0	
14	0	0	0	0	407	143	0	135	0	0	
15	0	0	0	0	391	135	0	129	0	0	
0	0	0	0	0	379	129	0	125	0	0	
1	0	0	0	0	371	127	0	123	0	0	
2	0	0	0	0	368	128	0	123	0	0	
3	0	0	0	0	371	134	0	126	0	0	
4	0	0	0	0	380	143	0	132	0	0	
5	0	0	0	0	393	157	0	141	0	0	
6	0	0	0	0	409	173	0	152	0	0	
7	0	0	0	0	428	191	0	164	0	0	
8	0	0	0	0	447	210	0	177	0	0	
9	0	0	0	0	464	227	0	189	0	0	
10	0	0	0	0	480	243	0	200	0	0	
11	0	0	0	0	491	257	0	209	0	0	
12	0	0	0	0	499	267	0	217	0	0	
13	0	0	0	0	503	272	0	222	0	0	
14	0	0	0	0	502	274	0	224	0	0	
15	0	0	0	0	498	271	0	224	0	0	
0	0	0	0	0	491	265	0	220	0	0	
1	0	0	0	0	481	255	0	215	0	0	
2	0	0	0	0	471	245	0	209	0	0	
3	0	0	0	0	461	235	0	203	0	0	
4	0	0	0	0	451	224	0	196	0	0	
5	0	0	0	0	443	215	0	190	0	0	
6	0	0	0	0	436	206	0	185	0	0	
7	0	0	0	0	432	201	0	182	0	0	
8	0	0	0	0	431	198	0	181	0	0	
9	0	0	0	0	432	198	0	182	0	0	
10	0	0	0	0	435	202	0	184	0	0	
11	0	0	0	0	441	207	0	189	0	0	
12	0	0	0	0	448	216	0	195	0	0	
13	0	0	0	0	456	225	0	202	0	0	
14	0	0	0	0	463	236	0	210	0	0	
15	0	0	0	0	471	246	0	217	0	0	
0	0	0	0	0	476	255	0	224	0	0	
1	0	0	0	0	481	263	0	230	0	0	
2	0	0	0	0	484	270	0	235	0	0	
3	0	0	0	0	484	274	0	238	0	0	
4	0	0	0	0	484	276	0	240	0	0	
5	0	0	0	0	481	275	0	239	0	0	
6	0	0	0	0	478	272	0	237	0	0	
7	0	0	0	0	472	267	0	233	0	0	
8	0	0	0	0	466	260	0	229	0	0	
9	0	0	0	0	460	252	0	223	0	0	
10	0	0	0	0	454	244	0	219	0	0	
11	0	0	0	0	448	237	0	215	0	0	
12	0	0	0	0	445	231	0	213	0	0	
13	0	0	0	0	444	227	0	212	0	0	
14	0	0	0	0	444	226	0	212	0	0	
15	0	0	0	0	446	226	0	215	0	0	
0	0	0	0	0	448	229	0	217	0	0	
1	0	0	0	0	452	233	0	222	0	0	
2	0	0	0	0	455	238	0	227	0	0	
3	0	0	0	0	459	244	0	231	0	0	
4	0	0	0	0	462	250	0	235	0	0	
5	0	0	0	0	465	256	0	238	0	0	
6	0	0	0	0	465	260	0	239	0	0	
7	0	0	0	0	464	262	0	239	0	0	
8	0	0	0	0	462	262	0	237	0	0	
9	0	0	0	0	459	259	0	233	0	0	
10	0	0	0	0	454	255	0	228	0	0	
11	0	0	0	0	450	249	0	222	0	0	
12	0	0	0	0	447	245	0	217	0	0	
13	0	0	0	0	446	241	0	213	0	0	
14	0	0	0	0	446	238	0	210	0	0	
15	0	0	0	0	448	236	0	208	0	0	
0	0	0	0	0	452	236	0	208	0	0	
1	0	0	0	0	455	236	0	210	0	0	
2	0	0	0	0	459	237	0	213	0	0	
3	0	0	0	0	462	239	0	217	0	0	
4	0	0	0	0	463	240	0	221	0	0	
5	0	0	0	0	463	241	0	227	0	0	
6	0	0	0	0	460	243	0	232	0	0	
7	0	0	0	0	458	244	0	238	0	0	
8	0	0	0	0	455	245	0	243	0	0	
9	0	0	0	0	450	245	0	248	0	0	
10	0	0	0	0	445	245	0	252	0	0	
11	0	0	0	0	440	244	0	255	0	0	
12	0	0	0	0	434	241	0	256	0	0	
13	0	0	0	0	429	237	0	256	0	0	
14	0	0	0	0	424	233	0	254	0	0	
15	0	0	0	0	419	226	0	251	0	0	
0	0	0	0	0	415	220	0	248	0	0	
1	0	0	0	0	412	215	0	244	0	0	
2	0	0	0	0	411	211	0	241	0	0	
3	0	0	0	0	413	209	0	240	0	0	
4	0	0	0	0	418	210	0	240	0	0	
5	0	0	0	0	426	214	0	243	0	0	
6	0	0	0	0	437	222	0	248	0	0	
7	0	0	0	0	450	233	0	255	0	0	
8	0	0	0	0	464	247	0	263	0	0	
9	0	0	0	0	480	262	0	273	0	0	
10	0	0	0	0	494	277	0	284	0	0	
11	0	0	0	0	507	291	0	291	0	0	
12	0	0	0	0	516	303	0	299	0	0	
13	0	0	0	0	523	312	0	304	0	0	
14	0	0	0	0	524	317	0	305	0	0	
15	0	0	0	0	520	318	0	304	0	0	
0	0	0	0	0	514	313	0	300	0	0	
1	0	0	0	0	504	305	0	292	0	0	
2	0	0	0	0	491	294	0	283	0	0	
3	0	0	0	0	476	280	0	271	0	0	
4	0	0	0	0	462	264	0	259	0	0	
5	0	0	0	0	449	250	0	248	0	0	
6	0	0	0	0	438	237	0	239	0	0	
7	0	0	0	0	431	228	0	232	0	0	
8	0	0	0	0	428	223	0	229	0	0	
9	0	0	0	0	429	222	0	230	0	0	
10	0	0	0	0	435	226	0	234	0	0	
11	0	0	0	0	445	235	0	241	0	0	
12	0	0	0	0	457	248	0	252	0	0	
13	0	0	0	0	472	263	0	263	0	0	
14	0	0	0	0	487	278	0	275	0	0	
15	0	0	0	0	499	293	0	286	0	0	
0	0	0	0	0	510	306	0	295	0	0	
1	0	0	0	0	517	316	0	302	0	0	
2	0	0	0	0	518	321	0	305	0	0	
3	0	0	0	0	515	321	0	304	0	0	
4	0	0	0	0	508	316	0	299	0	0	
5	0	0	0	0	497	308	0	292	0	0	
6	0	0	0	0	486	296	0	283	0	0	
7	0	0	0	0	472	283	0	272	0	0	
8	0	0	0	0	460	268	0	262	0	0	
9	0	0	0	0	449	254	0	252	0	0	
10	0	0	0	0	440	241	0	243	0	0	
11	0	0	0	0	433	230	0	236	0	0	
12	0	0	0	0	430	222	0	232	0	0	
13	0	0	0	0	429	216	0	231	0	0	
14	0	0	0	0	432	214	0	233	0	0	
15	0	0	0	0	436	216	0	236	0	0	
0	0	0	0	0	443	220	0	242	0	0	
1	0	0	0	0	450	227	0	249	0	0	
2	0	0	0	0	458	236	0	257	0	0	
3	0	0	0	0	466	247	0	264	0	0	
4	0	0	0	0	472	258	0	270	0	0	
5	0	0	0	0	478	269	0	275	0	0	
6	0	0	0	0	484	280	0	280	0	0	
7	0	0	0	0	489	288	0	282	0	0	
8	0	0	0	0	494	297	0	283	0	0	
9	0	0	0	0	499	304	0	284	0	0	
10	0	0	0	0	505	311	0	283	0	0	
11	0	0	0	0	514	317	0	284	0	0	
12	0	0	0	0	524	323	0	285	0	0	
13	0	0	0	0	533	329	0	286	0	0	
14	0	0	0	0	542	332	0	288	0	0	
15	0	0	0	0	550	334	0	290	0	0	
0	0	0	0	0	554	333	0	291	0	0	
1	0	0	0	0	554	329	0	292	0	0	
2	0	0	0	0	550	322	0	291	0	0	
3	0	0	0	0	542	313	0	290	0	0	
4	0	0	0	0	530	302	0	287	0	0	
5	0	0	0	0	516	291	0	284	0	0	
6	0	0	0	0	499	279	0	280	0	0	
7	0	0	0	0	483	267	0	275	0	0	
8	0	0	0	0	467	257	0	270	0	0	
9	0	0	0	0	454	248	0	264	0	0	
10	0	0	0	0	442	241	0	258	0	0	
11	0	0	0	0	433	234	0	252	0	0	
12	0	0	0	0	427	229	0	246	0	0	
13	0	0	0	0	423	224	0	239	0	0	
14	0	0	0	0	422	220	0	232	0	0	
15	0	0	0	0	422	216	0	225	0	0	
0	0	0	0	0	423	211	0	219	0	0	
1	0	0	0	0	425	206	0	212	0	0	
2	0	0	0	0	428	202	0	207	0	0	
3	0	0	0	0	432	199	0	204	0	0	
4	0	0	0	0	435	199	0	203	0	0	
5	0	0	0	0	440	199	0	202	0	0	
6	0	0	0	0	444	201	0	204	0	0	
7	0	0	0	0	449	206	0	207	0	0	
8	0	0	0	0	453	211	0	212	0	0	
9	0	0	0	0	456	218	0	217	0	0	
10	0	0	0	0	458	225	0	223	0	0	
11	0	0	0	0	459	232	0	228	0	0	
12	0	0	0	0	460	239	0	233	0	0	
13	0	0	0	0	459	244	0	238	0	0	
14	0	0	0	0	456	247	0	240	0	0	
15	0	0	0	0	453	247	0	241	0	0	
0	0	0	0	0	448	245	0	241	0	0	
1	0	0	0	0	443	240	0	239	0	0	
2	0	0	0	0	439	235	0	237	0	0	
3	0	0	0	0	435	229	0	235	0	0	
4	0	0	0	0	432	222	0	232	0	0	
5	0	0	0	0	432	216	0	229	0	0	
6	0	0	0	0	432	211	0	228	0	0	
7	0	0	0	0	435	208	0	226	0	0	
8	0	0	0	0	440	207	0	227	0	0	
9	0	0	0	0	446	208	0	227	0	0	
10	0	0	0	0	452	211	0	230	0	0	
11	0	0	0	0	460	217	0	232	0	0	
12	0	0	0	0	468	225	0	236	0	0	
13	0	0	0	0	476	233	0	240	0	0	
14	0	0	0	0	483	241	0	244	0	0	
15	0	0	0	0	489	251	0	248	0	0	
0	0	0	0	0	494	259	0	251	0	0	
1	0	0	0	0	497	266	0	253	0	0	
2	0	0	0	0	499	270	0	254	0	0	
3	0	0	0	0	497	272	0	252	0	0	
4	0	0	0	0	493	270	0	248	0	0	
5	0	0	0	0	487	265	0	242	0	0	
6	0	0	0	0	479	258	0	235	0	0	
7	0	0	0	0	470	249	0	227	0	0	
8	0	0	0	0	460	239	0	217	0	0	
9	0	0	0	0	452	228	0	208	0	0	
10	0	0	0	0	445	219	0	200	0	0	
11	0	0	0	0	440	211	0	194	0	0	
12	0	0	0	0	438	204	0	190	0	0	
13	0	0	0	0	437	200	0	188	0	0	
14	0	0	0	0	439	199	0	187	0	0	
15	0	0	0	0	443	200	0	189	0	0	
0	0	0	0	0	448	203	0	193	0	0	
1	0	0	0	0	453	207	0	198	0	0	
2	0	0	0	0	458	213	0	202	0	0	
3	0	0	0	0	463	219	0	206	0	0	
4	0	0	0	0	467	224	0	210	0	0	
5	0	0	0	0	470	228	0	211	0	0	
6	0	0	0	0	470	231	0	211	0	0	
7	0	0	0	0	468	231	0	208	0	0	
8	0	0	0	0	464	229	0	202	0	0	
9	0	0	0	0	458	223	0	194	0	0	
10	0	0	0	0	450	217	0	184	0	0	
11	0	0	0	0	441	208	0	173	0	0	
12	0	0	0	0	432	199	0	162	0	0	
13	0	0	0	0	423	190	0	151	0	0	
14	0	0	0	0	416	183	0	142	0	0	
15	0	0	0	0	412	178	0	135	0	0	
0	0	0	0	0	411	175	0	130	0	0	
1	0	0	0	0	412	176	0	128	0	0	
2	0	0	0	0	416	180	0	130	0	0	
3	0	0	0	0	424	188	0	135	0	0	
4	0	0	0	0	436	200	0	143	0	0	
5	0	0	0	0	450	216	0	154	0	0	
6	0	0	0	0	465	232	0	166	0	0	
7	0	0	0	0	480	249	0	178	0	0	
8	0	0	0	0	494	266	0	190	0	0	
9	0	0	0	0	505	281	0	200	0	0	
10	0	0	0	0	514	293	0	208	0	0	
11	0	0	0	0	520	302	0	214	0	0	
12	0	0	0	0	521	307	0	216	0	0	
13	0	0	0	0	519	307	0	217	0	0	
14	0	0	0	0	513	304	0	216	0	0	
15	0	0	0	0	506	298	0	215	0	0	
0	0	0	0	0	496	289	0	212	0	0	
1	0	0	0	0	486	280	0	210	0	0	
2	0	0	0	0	476	271	0	208	0	0	
3	0	0	0	0	467	262	0	207	0	0	
4	0	0	0	0	462	255	0	207	0	0	
5	0	0	0	0	459	250	0	209	0	0	
6	0	0	0	0	458	248	0	212	0	0	
7	0	0	0	0	461	249	0	216	0	0	
8	0	0	0	0	466	253	0	220	0	0	
9	0	0	0	0	472	257	0	223	0	0	
10	0	0	0	0	478	262	0	225	0	0	
11	0	0	0	0	484	268	0	226	0	0	
12	0	0	0	0	489	272	0	225	0	0	
13	0	0	0	0	494	275	0	222	0	0	
14	0	0	0	0	495	276	0	217	0	0	
15	0	0	0	0	495	275	0	210	0	0	
0	0	0	0	0	494	272	0	202	0	0	
1	0	0	0	0	491	267	0	193	0	0	
2	0	0	0	0	487	262	0	185	0	0	
3	0	0	0	0	483	255	0	177	0	0	
4	0	0	0	0	478	247	0	171	0	0	
5	0	0	0	0	473	240	0	165	0	0	
6	0	0	0	0	468	231	0	161	0	0	
7	0	0	0	0	463	225	0	158	0	0	
8	0	0	0	0	459	219	0	158	0	0	
9	0	0	0	0	455	214	0	159	0	0	
10	0	0	0	0	452	211	0	162	0	0	
11	0	0	0	0	449	209	0	166	0	0	
12	0	0	0	0	447	209	0	170	0	0	
13	0	0	0	0	444	209	0	175	0	0	
14	0	0	0	0	441	210	0	178	0	0	
15	0	0	0	0	439	211	0	180	0	0	
0	0	0	0	0	437	213	0	182	0	0	
1	0	0	0	0	437	216	0	183	0	0	
2	0	0	0	0	438	218	0	184	0	0	
3	0	0	0	0	440	221	0	183	0	0	
4	0	0	0	0	443	223	0	181	0	0	
5	0	0	0	0	446	224	0	178	0	0	
6	0	0	0	0	451	226	0	175	0	0	
7	0	0	0	0	455	226	0	171	0	0	
8	0	0	0	0	458	226	0	168	0	0	
9	0	0	0	0	463	225	0	164	0	0	
10	0	0	0	0	466	224	0	161	0	0	
11	0	0	0	0	469	223	0	159	0	0	
12	0	0	0	0	471	222	0	158	0	0	
13	0	0	0	0	473	221	0	158	0	0	
14	0	0	0	0	475	221	0	159	0	0	
15	0	0	0	0	476	222	0	162	0	0	
0	0	0	0	0	478	224	0	166	0	0	
1	0	0	0	0	480	227	0	171	0	0	
2	0	0	0	0	482	232	0	177	0	0	
3	0	0	0	0	485	238	0	183	0	0	
4	0	0	0	0	489	244	0	189	0	0	
5	0	0	0	0	494	251	0	195	0	0	
6	0	0	0	0	499	257	0	199	0	0	
7	0	0	0	0	503	263	0	204	0	0	
8	0	0	0	0	507	267	0	206	0	0	
9	0	0	0	0	509	268	0	206	0	0	
10	0	0	0	0	510	268	0	205	0	0	
11	0	0	0	0	507	263	0	202	0	0	
12	0	0	0	0	502	257	0	197	0	0	
13	0	0	0	0	494	249	0	192	0	0	
14	0	0	0	0	484	240	0	185	0	0	
15	0	0	0	0	474	231	0	180	0	0	
0	0	0	0	0	463	223	0	176	0	0	
1	0	0	0	0	454	217	0	172	0	0	
2	0	0	0	0	447	213	0	172	0	0	
3	0	0	0	0	442	214	0	173	0	0	
4	0	0	0	0	441	218	0	177	0	0	
5	0	0	0	0	443	225	0	182	0	0	
6	0	0	0	0	447	235	0	188	0	0	
7	0	0	0	0	453	247	0	195	0	0	
8	0	0	0	0	462	259	0	201	0	0	
9	0	0	0	0	472	272	0	207	0	0	
10	0	0	0	0	481	284	0	212	0	0	
11	0	0	0	0	489	293	0	216	0	0	
12	0	0	0	0	497	300	0	217	0	0	
13	0	0	0	0	502	304	0	216	0	0	
14	0	0	0	0	505	305	0	214	0	0	
15	0	0	0	0	505	303	0	210	0	0	
0	0	0	0	0	502	297	0	205	0	0	
1	0	0	0	0	497	290	0	199	0	0	
2	0	0	0	0	490	282	0	194	0	0	
3	0	0	0	0	482	274	0	191	0	0	
4	0	0	0	0	475	267	0	189	0	0	
5	0	0	0	0	469	263	0	191	0	0	
6	0	0	0	0	464	261	0	194	0	0	
7	0	0	0	0	462	263	0	199	0	0	
8	0	0	0	0	462	268	0	206	0	0	
9	0	0	0	0	463	274	0	214	0	0	
10	0	0	0	0	465	282	0	222	0	0	
11	0	0	0	0	469	291	0	229	0	0	
12	0	0	0	0	472	299	0	235	0	0	
13	0	0	0	0	475	305	0	239	0	0	
14	0	0	0	0	476	310	0	240	0	0	
15	0	0	0	0	475	311	0	238	0	0	
0	0	0	0	0	471	307	0	233	0	0	
1	0	0	0	0	465	301	0	225	0	0	
2	0	0	0	0	458	292	0	214	0	0	
3	0	0	0	0	448	280	0	201	0	0	
4	0	0	0	0	438	265	0	186	0	0	
5	0	0	0	0	427	250	0	171	0	0	
6	0	0	0	0	416	235	0	155	0	0	
7	0	0	0	0	406	221	0	141	0	0	
8	0	0	0	0	398	208	0	128	0	0	
9	0	0	0	0	391	198	0	117	0	0	
10	0	0	0	0	387	191	0	108	0	0	
11	0	0	0	0	384	187	0	103	0	0	
12	0	0	0	0	382	185	0	99	0	0	
13	0	0	0	0	381	185	0	97	0	0	
14	0	0	0	0	381	187	0	98	0	0	
15	0	0	0	0	381	189	0	99	0	0	
0	0	0	0	0	381	192	0	102	0	0	
1	0	0	0	0	380	194	0	104	0	0	
2	0	0	0	0	379	196	0	107	0	0	
3	0	0	0	0	377	196	0	109	0	0	
4	0	0	0	0	374	195	0	111	0	0	
5	0	0	0	0	373	193	0	112	0	0	
6	0	0	0	0	373	192	0	113	0	0	
7	0	0	0	0	376	192	0	117	0	0	
8	0	0	0	0	383	195	0	122	0	0	
9	0	0	0	0	393	201	0	128	0	0	
10	0	0	0	0	408	209	0	137	0	0	
11	0	0	0	0	427	220	0	149	0	0	
12	0	0	0	0	448	235	0	164	0	0	
13	0	0	0	0	471	251	0	180	0	0	
14	0	0	0	0	493	269	0	198	0	0	
15	0	0	0	0	514	287	0	215	0	0	
0	0	0	0	0	532	304	0	232	0	0	
1	0	0	0	0	547	319	0	248	0	0	
2	0	0	0	0	557	332	0	259	0	0	
3	0	0	0	0	560	339	0	268	0	0	
4	0	0	0	0	560	344	0	271	0	0	
5	0	0	0	0	554	344	0	270	0	0	
6	0	0	0	0	544	339	0	264	0	0	
7	0	0	0	0	529	330	0	254	0	0	
8	0	0	0	0	511	317	0	241	0	0	
9	0	0	0	0	492	301	0	226	0	0	
10	0	0	0	0	471	283	0	210	0	0	
11	0	0	0	0	450	263	0	193	0	0	
12	0	0	0	0	431	243	0	178	0	0	
13	0	0	0	0	413	224	0	164	0	0	
14	0	0	0	0	400	209	0	152	0	0	
15	0	0	0	0	390	197	0	144	0	0	
0	0	0	0	0	384	189	0	141	0	0	
1	0	0	0	0	384	185	0	141	0	0	
2	0	0	0	0	388	188	0	145	0	0	
3	0	0	0	0	396	194	0	153	0	0	
4	0	0	0	0	409	205	0	164	0	0	
5	0	0	0	0	424	220	0	179	0	0	
6	0	0	0	0	440	236	0	194	0	0	
7	0	0	0	0	457	254	0	209	0	0	
8	0	0	0	0	473	271	0	223	0	0	
9	0	0	0	0	487	286	0	235	0	0	
10	0	0	0	0	498	299	0	245	0	0	
11	0	0	0	0	505	307	0	252	0	0	
12	0	0	0	0	510	314	0	255	0	0	
13	0	0	0	0	512	316	0	256	0	0	
14	0	0	0	0	512	316	0	255	0	0	
15	0	0	0	0	511	314	0	251	0	0	
0	0	0	0	0	508	311	0	246	0	0	
1	0	0	0	0	505	307	0	239	0	0	
2	0	0	0	0	504	302	0	233	0	0	
3	0	0	0	0	502	298	0	227	0	0	
4	0	0	0	0	501	295	0	223	0	0	
5	0	0	0	0	502	294	0	219	0	0	
6	0	0	0	0	503	295	0	217	0	0	
7	0	0	0	0	506	299	0	217	0	0	
8	0	0	0	0	511	305	0	220	0	0	
9	0	0	0	0	515	312	0	224	0	0	
10	0	0	0	0	519	319	0	228	0	0	
11	0	0	0	0	521	325	0	232	0	0	
12	0	0	0	0	522	331	0	237	0	0	
13	0	0	0	0	521	334	0	242	0	0	
14	0	0	0	0	519	337	0	245	0	0	
15	0	0	0	0	516	338	0	248	0	0	
0	0	0	0	0	512	337	0	248	0	0	
1	0	0	0	0	507	334	0	248	0	0	
2	0	0	0	0	502	331	0	246	0	0	
3	0	0	0	0	497	325	0	242	0	0	
4	0	0	0	0	493	319	0	236	0	0	
5	0	0	0	0	490	313	0	230	0	0	
6	0	0	0	0	487	307	0	223	0	0	
7	0	0	0	0	486	301	0	215	0	0	
8	0	0	0	0	486	296	0	208	0	0	
9	0	0	0	0	486	292	0	201	0	0	
10	0	0	0	0	487	291	0	194	0	0	
11	0	0	0	0	489	290	0	189	0	0	
12	0	0	0	0	491	291	0	185	0	0	
13	0	0	0	0	492	293	0	182	0	0	
14	0	0	0	0	494	296	0	180	0	0	
15	0	0	0	0	496	300	0	179	0	0	
0	0	0	0	0	499	305	0	180	0	0	
1	0	0	0	0	502	310	0	181	0	0	
2	0	0	0	0	506	315	0	183	0	0	
3	0	0	0	0	509	319	0	184	0	0	
4	0	0	0	0	513	322	0	185	0	0	
5	0	0	0	0	517	324	0	186	0	0	
6	0	0	0	0	520	324	0	186	0	0	
7	0	0	0	0	523	323	0	186	0	0	
8	0	0	0	0	524	319	0	185	0	0	
9	0	0	0	0	523	313	0	184	0	0	
10	0	0	0	0	521	307	0	182	0	0	
11	0	0	0	0	518	301	0	182	0	0	
12	0	0	0	0	515	295	0	181	0	0	
13	0	0	0	0	512	291	0	183	0	0	
14	0	0	0	0	511	290	0	185	0	0	
15	0	0	0	0	511	291	0	189	0	0	
0	0	0	0	0	514	296	0	195	0	0	
1	0	0	0	0	517	302	0	199	0	0	
2	0	0	0	0	521	310	0	204	0	0	
3	0	0	0	0	525	317	0	208	0	0	
4	0	0	0	0	528	323	0	210	0	0	
5	0	0	0	0	528	326	0	209	0	0	
6	0	0	0	0	525	325	0	204	0	0	
7	0	0	0	0	518	319	0	195	0	0	
8	0	0	0	0	505	307	0	181	0	0	
9	0	0	0	0	489	290	0	165	0	0	
10	0	0	0	0	470	270	0	146	0	0	
11	0	0	0	0	449	247	0	125	0	0	
12	0	0	0	0	429	224	0	105	0	0	
13	0	0	0	0	411	201	0	86	0	0	
14	0	0	0	0	396	182	0	69	0	0	
15	0	0	0	0	385	166	0	56	0	0	
0	0	0	0	0	377	153	0	46	0	0	
1	0	0	0	0	374	145	0	39	0	0	
2	0	0	0	0	374	141	0	36	0	0	
3	0	0	0	0	378	141	0	37	0	0	
4	0	0	0	0	385	146	0	41	0	0	
5	0	0	0	0	395	154	0	48	0	0	
6	0	0	0	0	407	166	0	57	0	0	
7	0	0	0	0	421	179	0	68	0	0	
8	0	0	0	0	435	194	0	79	0	0	
9	0	0	0	0	450	210	0	90	0	0	
10	0	0	0	0	464	225	0	100	0	0	
11	0	0	0	0	476	237	0	108	0	0	
12	0	0	0	0	486	246	0	113	0	0	
13	0	0	0	0	492	252	0	115	0	0	
14	0	0	0	0	496	254	0	114	0	0	
15	0	0	0	0	496	253	0	112	0	0	
0	0	0	0	0	494	248	0	107	0	0	
1	0	0	0	0	490	242	0	100	0	0	
2	0	0	0	0	485	235	0	93	0	0	
3	0	0	0	0	479	227	0	86	0	0	
4	0	0	0	0	473	219	0	79	0	0	
5	0	0	0	0	467	213	0	74	0	0	
6	0	0	0	0	463	209	0	70	0	0	
7	0	0	0	0	461	206	0	68	0	0	
8	0	0	0	0	459	206	0	67	0	0	
9	0	0	0	0	457	206	0	68	0	0	
10	0	0	0	0	455	206	0	70	0	0	
11	0	0	0	0	453	206	0	71	0	0	
12	0	0	0	0	450	205	0	71	0	0	
13	0	0	0	0	444	202	0	71	0	0	
14	0	0	0	0	438	197	0	70	0	0	
15	0	0	0	0	430	190	0	66	0	0	
0	0	0	0	0	419	181	0	60	0	0	
1	0	0	0	0	409	170	0	52	0	0	
2	0	0	0	0	399	159	0	44	0	0	
3	0	0	0	0	389	147	0	35	0	0	
4	0	0	0	0	382	137	0	26	0	0	
5	0	0	0	0	376	127	0	18	0	0	
6	0	0	0	0	373	120	0	12	0	0	
7	0	0	0	0	373	116	0	8	0	0	
8	0	0	0	0	375	113	0	6	0	0	
9	0	0	0	0	379	115	0	6	0	0	
10	0	0	0	0	384	116	0	9	0	0	
11	0	0	0	0	391	121	0	14	0	0	
12	0	0	0	0	398	128	0	20	0	0	
13	0	0	0	0	405	135	0	27	0	0	
14	0	0	0	0	412	143	0	34	0	0	
15	0	0	0	0	417	150	0	41	0	0	
0	0	0	0	0	422	158	0	46	0	0	
1	0	0	0	0	427	164	0	51	0	0	
2	0	0	0	0	430	169	0	54	0	0	
3	0	0	0	0	433	172	0	56	0	0	
4	0	0	0	0	436	175	0	56	0	0	
5	0	0	0	0	439	176	0	55	0	0	
6	0	0	0	0	443	176	0	52	0	0	
7	0	0	0	0	447	177	0	51	0	0	
8	0	0	0	0	452	177	0	48	0	0	
9	0	0	0	0	457	176	0	45	0	0	
10	0	0	0	0	460	174	0	41	0	0	
11	0	0	0	0	462	170	0	38	0	0	
12	0	0	0	0	461	164	0	35	0	0	
13	0	0	0	0	456	156	0	31	0	0	
14	0	0	0	0	448	146	0	28	0	0	
15	0	0	0	0	439	135	0	25	0	0	
0	0	0	0	0	428	124	0	24	0	0	
1	0	0	0	0	416	114	0	24	0	0	
2	0	0	0	0	405	105	0	27	0	0	
3	0	0	0	0	396	99	0	31	0	0	
4	0	0	0	0	389	94	0	35	0	0	
5	0	0	0	0	384	91	0	41	0	0	
6	0	0	0	0	380	88	0	47	0	0	
7	0	0	0	0	377	86	0	51	0	0	
8	0	0	0	0	376	83	0	53	0	0	
9	0	0	0	0	374	79	0	54	0	0	
10	0	0	0	0	372	74	0	51	0	0	
11	0	0	0	0	368	67	0	47	0	0	
12	0	0	0	0	364	58	0	39	0	0	
13	0	0	0	0	359	49	0	31	0	0	
14	0	0	0	0	353	38	0	22	0	0	
15	0	0	0	0	348	29	0	12	0	0	
0	0	0	0	0	343	19	0	3	0	0	
1	0	0	0	0	339	13	0	0	0	0	
2	0	0	0	0	337	9	0	0	0	0	
3	0	0	0	0	338	7	0	0	0	0	
4	0	0	0	0	341	9	0	0	0	0	
5	0	0	0	0	346	13	0	0	0	0	
6	0	0	0	0	353	20	0	1	0	0	
7	0	0	0	0	361	29	0	5	0	0	
8	0	0	0	0	371	39	0	10	0	0	
9	0	0	0	0	380	49	0	16	0	0	
10	0	0	0	0	388	59	0	22	0	0	
11	0	0	0	0	395	66	0	27	0	0	
12	0	0	0	0	399	71	0	30	0	0	
13	0	0	0	0	402	73	0	32	0	0	
14	0	0	0	0	403	73	0	33	0	0	
15	0	0	0	0	402	70	0	32	0	0	
0	0	0	0	0	399	64	0	30	0	0	
1	0	0	0	0	396	58	0	26	0	0	
2	0	0	0	0	394	51	0	23	0	0	
3	0	0	0	0	392	45	0	19	0	0	
4	0	0	0	0	392	40	0	18	0	0	
5	0	0	0	0	394	38	0	18	0	0	
6	0	0	0	0	396	36	0	20	0	0	
7	0	0	0	0	400	37	0	23	0	0	
8	0	0	0	0	405	41	0	28	0	0	
9	0	0	0	0	409	45	0	33	0	0	
10	0	0	0	0	414	50	0	39	0	0	
11	0	0	0	0	416	55	0	44	0	0	
12	0	0	0	0	417	58	0	48	0	0	
13	0	0	0	0	415	60	0	51	0	0	
14	0	0	0	0	411	58	0	51	0	0	
15	0	0	0	0	404	54	0	50	0	0	
0	0	0	0	0	396	47	0	46	0	0	
1	0	0	0	0	386	39	0	40	0	0	
2	0	0	0	0	377	29	0	33	0	0	
3	0	0	0	0	368	19	0	26	0	0	
4	0	0	0	0	360	9	0	19	0	0	
5	0	0	0	0	354	0	0	12	0	0	
6	0	0	0	0	351	0	0	5	0	0	
7	0	0	0	0	349	0	0	1	0	0	
8	0	0	0	0	351	0	0	0	0	0	
9	0	0	0	0	356	0	0	0	0	0	
10	0	0	0	0	364	0	0	3	0	0	
11	0	0	0	0	375	1	0	10	0	0	
12	0	0	0	0	388	8	0	19	0	0	
13	0	0	0	0	404	18	0	31	0	0	
14	0	0	0	0	420	30	0	44	0	0	
15	0	0	0	0	435	43	0	57	0	0	
0	0	0	0	0	449	56	0	69	0	0	
1	0	0	0	0	460	67	0	79	0	0	
2	0	0	0	0	466	75	0	87	0	0	
3	0	0	0	0	467	79	0	92	0	0	
4	0	0	0	0	465	80	0	93	0	0	
5	0	0	0	0	460	78	0	92	0	0	
6	0	0	0	0	451	72	0	88	0	0	
7	0	0	0	0	442	65	0	83	0	0	
8	0	0	0	0	432	57	0	76	0	0	
9	0	0	0	0	423	47	0	70	0	0	
10	0	0	0	0	415	38	0	62	0	0	
11	0	0	0	0	409	30	0	56	0	0	
12	0	0	0	0	405	23	0	51	0	0	
13	0	0	0	0	403	17	0	48	0	0	
14	0	0	0	0	403	13	0	45	0	0	
15	0	0	0	0	404	11	0	45	0	0	
0	0	0	0	0	406	10	0	47	0	0	
1	0	0	0	0	409	12	0	50	0	0	
2	0	0	0	0	412	15	0	54	0	0	
3	0	0	0	0	415	17	0	60	0	0	
4	0	0	0	0	417	20	0	65	0	0	
5	0	0	0	0	417	23	0	69	0	0	
6	0	0	0	0	415	23	0	72	0	0	
7	0	0	0	0	411	20	0	73	0	0	
8	0	0	0	0	404	16	0	71	0	0	
9	0	0	0	0	395	8	0	67	0	0	
10	0	0	0	0	383	0	0	61	0	0	
11	0	0	0	0	371	0	0	53	0	0	
12	0	0	0	0	357	0	0	43	0	0	
13	0	0	0	0	343	0	0	31	0	0	
14	0	0	0	0	328	0	0	20	0	0	
15	0	0	0	0	315	0	0	9	0	0	
0	0	0	0	0	302	0	0	0	0	0	
1	0	0	0	0	290	0	0	0	0	0	
2	0	0	0	0	281	0	0	0	0	0	
3	0	0	0	0	275	0	0	0	0	0	
4	0	0	0	0	273	0	0	0	0	0	
5	0	0	0	0	276	0	0	0	0	0	
6	0	0	0	0	284	0	0	0	0	0	
7	0	0	0	0	297	0	0	1	0	0	
8	0	0	0	0	316	0	0	5	0	0	
9	0	0	0	0	337	0	0	14	0	0	
10	0	0	0	0	361	0	0	25	0	0	
11	0	0	0	0	386	0	0	37	0	0	
12	0	0	0	0	411	0	0	49	0	0	
13	0	0	0	0	433	0	0	61	0	0	
14	0	0	0	0	455	0	0	73	0	0	
15	0	0	0	0	472	0	0	82	0	0	
0	0	0	0	0	484	0	0	90	0	0	
1	0	0	0	0	492	0	0	95	0	0	
2	0	0	0	0	495	1	0	97	0	0	
3	0	0	0	0	492	6	0	97	0	0	
4	0	0	0	0	483	11	0	95	0	0	
5	0	0	0	0	469	15	0	91	0	0	
6	0	0	0	0	451	19	0	85	0	0	
7	0	0	0	0	431	21	0	78	0	0	
8	0	0	0	0	408	22	0	72	0	0	
9	0	0	0	0	386	20	0	65	0	0	
10	0	0	0	0	364	16	0	59	0	0	
11	0	0	0	0	345	9	0	54	0	0	
12	0	0	0	0	328	2	0	49	0	0	
13	0	0	0	0	316	0	0	46	0	0	
14	0	0	0	0	307	0	0	44	0	0	
15	0	0	0	0	304	0	0	44	0	0	
0	0	0	0	0	304	0	0	46	0	0	
1	0	0	0	0	309	0	0	48	0	0	
2	0	0	0	0	317	0	0	52	0	0	
3	0	0	0	0	327	0	0	56	0	0	
4	0	0	0	0	338	0	0	60	0	0	
5	0	0	0	0	349	0	0	64	0	0	
6	0	0	0	0	359	0	0	68	0	0	
7	0	0	0	0	368	0	0	72	0	0	
8	0	0	0	0	373	0	0	75	0	0	
9	0	0	0	0	375	0	0	77	0	0	
10	0	0	0	0	373	0	0	78	0	0	
11	0	0	0	0	368	0	0	79	0	0	
12	0	0	0	0	360	0	0	80	0	0	
13	0	0	0	0	351	0	0	80	0	0	
14	0	0	0	0	342	0	0	80	0	0	
15	0	0	0	0	336	0	0	81	0	0	
0	0	0	0	0	336	0	0	84	0	0	
1	0	0	0	0	341	0	0	87	0	0	
2	0	0	0	0	353	0	0	91	0	0	
3	0	0	0	0	371	0	0	95	0	0	
4	0	0	0	0	391	0	0	99	0	0	
5	0	0	0	0	414	8	0	101	0	0	
6	0	0	0	0	437	20	0	104	0	0	
7	0	0	0	0	459	34	0	105	0	0	
8	0	0	0	0	476	47	0	104	0	0	
9	0	0	0	0	489	60	0	102	0	0	
10	0	0	0	0	496	71	0	99	0	0	
11	0	0	0	0	497	80	0	95	0	0	
12	0	0	0	0	493	85	0	91	0	0	
13	0	0	0	0	484	88	0	87	0	0	
14	0	0	0	0	473	90	0	83	0	0	
15	0	0	0	0	460	90	0	81	0	0	
0	0	0	0	0	448	90	0	81	0	0	
1	0	0	0	0	438	90	0	83	0	0	
2	0	0	0	0	430	91	0	86	0	0	
3	0	0	0	0	424	92	0	90	0	0	
4	0	0	0	0	422	94	0	95	0	0	
5	0	0	0	0	422	96	0	100	0	0	
6	0	0	0	0	425	98	0	105	0	0	
7	0	0	0	0	430	100	0	110	0	0	
8	0	0	0	0	435	102	0	113	0	0	
9	0	0	0	0	442	103	0	115	0	0	
10	0	0	0	0	449	103	0	115	0	0	
11	0	0	0	0	455	102	0	114	0	0	
12	0	0	0	0	461	101	0	112	0	0	
13	0	0	0	0	465	99	0	108	0	0	
14	0	0	0	0	469	98	0	105	0	0	
15	0	0	0	0	471	96	0	102	0	0	
0	0	0	0	0	472	95	0	98	0	0	
1	0	0	0	0	470	92	0	96	0	0	
2	0	0	0	0	465	89	0	94	0	0	
3	0	0	0	0	457	86	0	92	0	0	
4	0	0	0	0	448	82	0	92	0	0	
5	0	0	0	0	435	76	0	92	0	0	
6	0	0	0	0	422	71	0	93	0	0	
7	0	0	0	0	408	65	0	94	0	0	
8	0	0	0	0	396	60	0	96	0	0	
9	0	0	0	0	385	56	0	99	0	0	
10	0	0	0	0	376	54	0	102	0	0	
11	0	0	0	0	371	51	0	103	0	0	
12	0	0	0	0	368	49	0	104	0	0	
13	0	0	0	0	368	49	0	104	0	0	
14	0	0	0	0	371	48	0	103	0	0	
15	0	0	0	0	376	49	0	101	0	0	
0	0	0	0	0	383	49	0	98	0	0	
1	0	0	0	0	391	49	0	95	0	0	
2	0	0	0	0	397	49	0	91	0	0	
3	0	0	0	0	402	48	0	87	0	0	
4	0	0	0	0	406	46	0	84	0	0	
5	0	0	0	0	407	43	0	81	0	0	
6	0	0	0	0	406	41	0	80	0	0	
7	0	0	0	0	404	41	0	81	0	0	
8	0	0	0	0	403	42	0	84	0	0	
9	0	0	0	0	402	45	0	90	0	0	
10	0	0	0	0	401	50	0	97	0	0	
11	0	0	0	0	401	57	0	105	0	0	
12	0	0	0	0	403	64	0	115	0	0	
13	0	0	0	0	405	73	0	124	0	0	
14	0	0	0	0	408	81	0	131	0	0	
15	0	0	0	0	410	89	0	138	0	0	
0	0	0	0	0	412	94	0	142	0	0	
1	0	0	0	0	413	96	0	143	0	0	
2	0	0	0	0	413	97	0	141	0	0	
3	0	0	0	0	410	93	0	136	0	0	
4	0	0	0	0	406	87	0	128	0	0	
5	0	0	0	0	399	78	0	119	0	0	
6	0	0	0	0	392	67	0	108	0	0	
7	0	0	0	0	385	57	0	99	0	0	
8	0	0	0	0	378	47	0	89	0	0	
9	0	0	0	0	372	39	0	83	0	0	
10	0	0	0	0	368	33	0	79	0	0	
11	0	0	0	0	368	32	0	78	0	0	
12	0	0	0	0	369	34	0	81	0	0	
13	0	0	0	0	374	39	0	87	0	0	
14	0	0	0	0	381	48	0	95	0	0	
15	0	0	0	0	390	59	0	105	0	0	
0	0	0	0	0	400	71	0	116	0	0	
1	0	0	0	0	410	84	0	128	0	0	
2	0	0	0	0	419	96	0	138	0	0	
3	0	0	0	0	427	106	0	147	0	0	
4	0	0	0	0	433	114	0	154	0	0	
5	0	0	0	0	437	119	0	159	0	0	
6	0	0	0	0	439	122	0	161	0	0	
7	0	0	0	0	440	121	0	161	0	0	
8	0	0	0	0	438	119	0	159	0	0	
9	0	0	0	0	434	115	0	155	0	0	
10	0	0	0	0	430	109	0	149	0	0	
11	0	0	0	0	425	103	0	143	0	0	
12	0	0	0	0	420	97	0	139	0	0	
13	0	0	0	0	416	93	0	135	0	0	
14	0	0	0	0	413	91	0	133	0	0	
15	0	0	0	0	412	90	0	133	0	0	
0	0	0	0	0	412	92	0	135	0	0	
1	0	0	0	0	412	96	0	138	0	0	
2	0	0	0	0	414	100	0	142	0	0	
3	0	0	0	0	415	107	0	147	0	0	
4	0	0	0	0	419	113	0	152	0	0	
5	0	0	0	0	423	120	0	157	0	0	
6	0	0	0	0	428	127	0	162	0	0	
7	0	0	0	0	434	134	0	167	0	0	
8	0	0	0	0	440	140	0	170	0	0	
9	0	0	0	0	446	144	0	172	0	0	
10	0	0	0	0	451	147	0	174	0	0	
11	0	0	0	0	456	148	0	174	0	0	
12	0	0	0	0	458	147	0	173	0	0	
13	0	0	0	0	458	143	0	171	0	0	
14	0	0	0	0	456	138	0	168	0	0	
15	0	0	0	0	452	132	0	164	0	0	
0	0	0	0	0	446	125	0	161	0	0	
1	0	0	0	0	438	118	0	157	0	0	
2	0	0	0	0	428	111	0	153	0	0	
3	0	0	0	0	419	106	0	150	0	0	
4	0	0	0	0	411	103	0	148	0	0	
5	0	0	0	0	403	101	0	147	0	0	
6	0	0	0	0	397	102	0	148	0	0	
7	0	0	0	0	392	105	0	149	0	0	
8	0	0	0	0	390	109	0	151	0	0	
9	0	0	0	0	390	115	0	153	0	0	
10	0	0	0	0	391	121	0	156	0	0	
11	0	0	0	0	395	127	0	159	0	0	
12	0	0	0	0	400	134	0	161	0	0	
13	0	0	0	0	407	140	0	163	0	0	
14	0	0	0	0	414	145	0	164	0	0	
15	0	0	0	0	422	148	0	164	0	0	
0	0	0	0	0	429	152	0	164	0	0	
1	0	0	0	0	435	153	0	163	0	0	
2	0	0	0	0	441	154	0	162	0	0	
3	0	0	0	0	445	155	0	161	0	0	
4	0	0	0	0	447	153	0	160	0	0	
5	0	0	0	0	446	152	0	159	0	0	
6	0	0	0	0	443	149	0	158	0	0	
7	0	0	0	0	438	147	0	157	0	0	
8	0	0	0	0	432	144	0	157	0	0	
9	0	0	0	0	423	141	0	156	0	0	
10	0	0	0	0	415	139	0	156	0	0	
11	0	0	0	0	406	136	0	156	0	0	
12	0	0	0	0	396	133	0	155	0	0	
13	0	0	0	0	388	131	0	153	0	0	
14	0	0	0	0	379	127	0	151	0	0	
15	0	0	0	0	372	126	0	149	0	0	
0	0	0	0	0	368	123	0	147	0	0	
1	0	0	0	0	366	123	0	146	0	0	
2	0	0	0	0	367	123	0	145	0	0	
3	0	0	0	0	371	125	0	145	0	0	
4	0	0	0	0	378	128	0	147	0	0	
5	0	0	0	0	388	133	0	149	0	0	
6	0	0	0	0	400	139	0	152	0	0	
7	0	0	0	0	413	146	0	157	0	0	
8	0	0	0	0	425	153	0	161	0	0	
9	0	0	0	0	438	161	0	167	0	0	
10	0	0	0	0	447	168	0	172	0	0	
11	0	0	0	0	455	176	0	177	0	0	
12	0	0	0	0	460	182	0	182	0	0	
13	0	0	0	0	462	187	0	187	0	0	
14	0	0	0	0	461	191	0	191	0	0	
15	0	0	0	0	459	195	0	195	0	0	
0	0	0	0	0	456	197	0	198	0	0	
1	0	0	0	0	452	199	0	201	0	0	
2	0	0	0	0	448	200	0	203	0	0	
3	0	0	0	0	444	201	0	204	0	0	
4	0	0	0	0	442	201	0	204	0	0	
5	0	0	0	0	440	201	0	203	0	0	
6	0	0	0	0	440	200	0	201	0	0	
7	0	0	0	0	441	199	0	198	0	0	
8	0	0	0	0	443	196	0	195	0	0	
9	0	0	0	0	445	195	0	191	0	0	
10	0	0	0	0	448	193	0	188	0	0	
11	0	0	0	0	452	193	0	186	0	0	
12	0	0	0	0	456	193	0	185	0	0	
13	0	0	0	0	460	195	0	185	0	0	
14	0	0	0	0	463	197	0	186	0	0	
15	0	0	0	0	465	199	0	188	0	0	
0	0	0	0	0	466	202	0	191	0	0	
1	0	0	0	0	464	204	0	193	0	0	
2	0	0	0	0	460	204	0	195	0	0	
3	0	0	0	0	455	204	0	196	0	0	
4	0	0	0	0	448	203	0	196	0	0	
5	0	0	0	0	439	200	0	195	0	0	
6	0	0	0	0	430	195	0	191	0	0	
7	0	0	0	0	419	188	0	186	0	0	
8	0	0	0	0	407	179	0	179	0	0	
9	0	0	0	0	395	168	0	169	0	0	
10	0	0	0	0	383	156	0	159	0	0	
11	0	0	0	0	372	145	0	149	0	0	
12	0	0	0	0	363	133	0	139	0	0	
13	0	0	0	0	357	124	0	131	0	0	
14	0	0	0	0	356	120	0	127	0	0	
15	0	0	0	0	360	120	0	127	0	0	
0	0	0	0	0	369	126	0	132	0	0	
1	0	0	0	0	383	135	0	140	0	0	
2	0	0	0	0	400	149	0	152	0	0	
3	0	0	0	0	419	165	0	166	0	0	
4	0	0	0	0	437	182	0	181	0	0	
5	0	0	0	0	454	199	0	196	0	0	
6	0	0	0	0	468	214	0	211	0	0	
7	0	0	0	0	479	228	0	223	0	0	
8	0	0	0	0	487	240	0	233	0	0	
9	0	0	0	0	493	251	0	242	0	0	
10	0	0	0	0	496	259	0	248	0	0	
11	0	0	0	0	496	263	0	251	0	0	
12	0	0	0	0	495	266	0	251	0	0	
13	0	0	0	0	492	264	0	248	0	0	
14	0	0	0	0	486	260	0	243	0	0	
15	0	0	0	0	480	254	0	236	0	0	
0	0	0	0	0	473	245	0	228	0	0	
1	0	0	0	0	466	236	0	219	0	0	
2	0	0	0	0	460	227	0	211	0	0	
3	0	0	0	0	455	220	0	203	0	0	
4	0	0	0	0	451	214	0	197	0	0	
5	0	0	0	0	450	210	0	193	0	0	
6	0	0	0	0	451	210	0	192	0	0	
7	0	0	0	0	455	214	0	192	0	0	
8	0	0	0	0	460	220	0	194	0	0	
9	0	0	0	0	466	228	0	198	0	0	
10	0	0	0	0	472	237	0	202	0	0	
11	0	0	0	0	478	246	0	207	0	0	
12	0	0	0	0	482	255	0	211	0	0	
13	0	0	0	0	483	260	0	215	0	0	
14	0	0	0	0	481	263	0	217	0	0	
15	0	0	0	0	476	262	0	218	0	0	
0	0	0	0	0	469	258	0	217	0	0	
1	0	0	0	0	460	251	0	215	0	0	
2	0	0	0	0	451	242	0	211	0	0	
3	0	0	0	0	441	232	0	207	0	0	
4	0	0	0	0	432	221	0	202	0	0	
5	0	0	0	0	423	211	0	197	0	0	
6	0	0	0	0	417	201	0	193	0	0	
7	0	0	0	0	414	195	0	190	0	0	
8	0	0	0	0	414	192	0	189	0	0	
9	0	0	0	0	415	191	0	189	0	0	
10	0	0	0	0	419	194	0	191	0	0	
11	0	0	0	0	425	199	0	193	0	0	
12	0	0	0	0	432	206	0	198	0	0	
13	0	0	0	0	439	214	0	202	0	0	
14	0	0	0	0	445	222	0	207	0	0	
15	0	0	0	0	451	230	0	210	0	0	
0	0	0	0	0	455	237	0	213	0	0	
1	0	0	0	0	457	243	0	216	0	0	
2	0	0	0	0	458	246	0	216	0	0	
3	0	0	0	0	456	247	0	216	0	0	
4	0	0	0	0	453	246	0	213	0	0	
5	0	0	0	0	449	243	0	209	0	0	
6	0	0	0	0	443	237	0	204	0	0	
7	0	0	0	0	436	231	0	198	0	0	
8	0	0	0	0	428	223	0	192	0	0	
9	0	0	0	0	421	215	0	185	0	0	
10	0	0	0	0	415	207	0	180	0	0	
11	0	0	0	0	409	201	0	176	0	0	
12	0	0	0	0	406	197	0	174	0	0	
13	0	0	0	0	404	195	0	173	0	0	
14	0	0	0	0	405	195	0	174	0	0	
15	0	0	0	0	409	199	0	178	0	0	
0	0	0	0	0	415	206	0	184	0	0	
1	0	0	0	0	423	216	0	192	0	0	
2	0	0	0	0	434	228	0	201	0	0	
3	0	0	0	0	445	241	0	211	0	0	
4	0	0	0	0	458	256	0	221	0	0	
5	0	0	0	0	470	270	0	230	0	0	
6	0	0	0	0	481	283	0	238	0	0	
7	0	0	0	0	491	293	0	243	0	0	
8	0	0	0	0	497	302	0	246	0	0	
9	0	0	0	0	502	306	0	247	0	0	
10	0	0	0	0	504	308	0	245	0	0	
11	0	0	0	0	504	307	0	243	0	0	
12	0	0	0	0	500	303	0	238	0	0	
13	0	0	0	0	494	295	0	233	0	0	
14	0	0	0	0	487	287	0	227	0	0	
15	0	0	0	0	479	279	0	223	0	0	
0	0	0	0	0	471	271	0	219	0	0	
1	0	0	0	0	464	264	0	217	0	0	
2	0	0	0	0	459	260	0	217	0	0	
3	0	0	0	0	455	258	0	219	0	0	
4	0	0	0	0	453	259	0	223	0	0	
5	0	0	0	0	451	259	0	228	0	0	
6	0	0	0	0	449	260	0	233	0	0	
7	0	0	0	0	446	261	0	237	0	0	
8	0	0	0	0	442	260	0	240	0	0	
9	0	0	0	0	437	258	0	241	0	0	
10	0	0	0	0	431	253	0	240	0	0	
11	0	0	0	0	423	247	0	237	0	0	
12	0	0	0	0	414	238	0	230	0	0	
13	0	0	0	0	406	229	0	222	0	0	
14	0	0	0	0	398	220	0	212	0	0	
15	0	0	0	0	391	210	0	201	0	0	
0	0	0	0	0	387	202	0	191	0	0	
1	0	0	0	0	384	195	0	183	0	0	
2	0	0	0	0	382	190	0	175	0	0	
3	0	0	0	0	383	187	0	169	0	0	
4	0	0	0	0	385	186	0	165	0	0	
5	0	0	0	0	387	187	0	163	0	0	
6	0	0	0	0	391	190	0	162	0	0	
7	0	0	0	0	393	193	0	162	0	0	
8	0	0	0	0	396	197	0	163	0	0	
9	0	0	0	0	396	201	0	164	0	0	
10	0	0	0	0	396	205	0	165	0	0	
11	0	0	0	0	393	207	0	164	0	0	
12	0	0	0	0	389	208	0	163	0	0	
13	0	0	0	0	383	206	0	158	0	0	
14	0	0	0	0	374	201	0	151	0	0	
15	0	0	0	0	363	194	0	142	0	0	
0	0	0	0	0	351	183	0	129	0	0	
1	0	0	0	0	338	171	0	114	0	0	
2	0	0	0	0	324	156	0	98	0	0	
3	0	0	0	0	310	140	0	79	0	0	
4	0	0	0	0	294	121	0	60	0	0	
5	0	0	0	0	278	100	0	40	0	0	
6	0	0	0	0	259	79	0	20	0	0	
7	0	0	0	0	241	56	0	3	0	0	
8	0	0	0	0	222	33	0	0	0	0	
9	0	0	0	0	204	14	0	0	0	0	
10	0	0	0	0	190	0	0	0	0	0	
11	0	0	0	0	180	0	0	0	0	0	
12	0	0	0	0	176	0	0	0	0	0	
13	0	0	0	0	179	0	0	3	0	0	
14	0	0	0	0	191	10	0	15	0	0	
15	0	0	0	0	209	27	0	33	0	0	
0	0	0	0	0	235	51	0	56	0	0	
1	0	0	0	0	267	80	0	83	0	0	
2	0	0	0	0	301	111	0	111	0	0	
3	0	0	0	0	338	143	0	139	0	0	
4	0	0	0	0	374	173	0	166	0	0	
5	0	0	0	0	407	201	0	188	0	0	
6	0	0	0	0	435	225	0	208	0	0	
7	0	0	0	0	457	243	0	223	0	0	
8	0	0	0	0	473	257	0	233	0	0	
9	0	0	0	0	483	266	0	239	0	0	
10	0	0	0	0	489	272	0	242	0	0	
11	0	0	0	0	490	275	0	243	0	0	
12	0	0	0	0	488	277	0	243	0	0	
13	0	0	0	0	486	279	0	243	0	0	
14	0	0	0	0	484	282	0	244	0	0	
15	0	0	0	0	484	287	0	246	0	0	
0	0	0	0	0	486	294	0	249	0	0	
1	0	0	0	0	489	302	0	254	0	0	
2	0	0	0	0	495	312	0	259	0	0	
3	0	0	0	0	501	322	0	265	0	0	
4	0	0	0	0	509	332	0	271	0	0	
5	0	0	0	0	516	341	0	276	0	0	
6	0	0	0	0	522	348	0	280	0	0	
7	0	0	0	0	525	351	0	283	0	0	
8	0	0	0	0	524	349	0	282	0	0	
9	0	0	0	0	520	343	0	279	0	0	
10	0	0	0	0	512	333	0	274	0	0	
11	0	0	0	0	502	319	0	267	0	0	
12	0	0	0	0	488	304	0	258	0	0	
13	0	0	0	0	474	288	0	249	0	0	
14	0	0	0	0	461	274	0	242	0	0	
15	0	0	0	0	450	262	0	235	0	0	
0	0	0	0	0	442	253	0	231	0	0	
1	0	0	0	0	437	249	0	230	0	0	
2	0	0	0	0	436	249	0	231	0	0	
3	0	0	0	0	440	255	0	235	0	0	
4	0	0	0	0	447	264	0	241	0	0	
5	0	0	0	0	455	275	0	249	0	0	
6	0	0	0	0	463	287	0	258	0	0	
7	0	0	0	0	472	299	0	267	0	0	
8	0	0	0	0	479	309	0	275	0	0	
9	0	0	0	0	483	317	0	281	0	0	
10	0	0	0	0	485	321	0	286	0	0	
11	0	0	0	0	484	323	0	288	0	0	
12	0	0	0	0	481	320	0	288	0	0	
13	0	0	0	0	476	315	0	287	0	0	
14	0	0	0	0	471	308	0	283	0	0	
15	0	0	0	0	465	300	0	279	0	0	
0	0	0	0	0	459	292	0	273	0	0	
1	0	0	0	0	454	284	0	268	0	0	
2	0	0	0	0	449	276	0	262	0	0	
3	0	0	0	0	446	269	0	257	0	0	
4	0	0	0	0	443	263	0	254	0	0	
5	0	0	0	0	440	260	0	252	0	0	
6	0	0	0	0	440	258	0	251	0	0	
7	0	0	0	0	440	259	0	252	0	0	
8	0	0	0	0	441	262	0	255	0	0	
9	0	0	0	0	442	266	0	259	0	0	
10	0	0	0	0	444	271	0	265	0	0	
11	0	0	0	0	446	276	0	270	0	0	
12	0	0	0	0	448	282	0	275	0	0	
13	0	0	0	0	450	289	0	281	0	0	
14	0	0	0	0	454	295	0	286	0	0	
15	0	0	0	0	457	301	0	290	0	0	
0	0	0	0	0	461	306	0	294	0	0	
1	0	0	0	0	465	310	0	295	0	0	
2	0	0	0	0	468	312	0	295	0	0	
3	0	0	0	0	471	313	0	295	0	0	
4	0	0	0	0	473	312	0	292	0	0	
5	0	0	0	0	475	311	0	289	0	0	
6	0	0	0	0	477	311	0	286	0	0	
7	0	0	0	0	480	311	0	284	0	0	
8	0	0	0	0	484	312	0	282	0	0	
9	0	0	0	0	488	315	0	282	0	0	
10	0	0	0	0	493	319	0	282	0	0	
11	0	0	0	0	498	324	0	284	0	0	
12	0	0	0	0	502	330	0	287	0	0	
13	0	0	0	0	505	335	0	290	0	0	
14	0	0	0	0	506	340	0	294	0	0	
15	0	0	0	0	507	343	0	296	0	0	
0	0	0	0	0	505	346	0	299	0	0	
1	0	0	0	0	502	347	0	300	0	0	
2	0	0	0	0	498	345	0	300	0	0	
3	0	0	0	0	493	343	0	299	0	0	
4	0	0	0	0	488	340	0	298	0	0	
5	0	0	0	0	483	336	0	296	0	0	
6	0	0	0	0	480	332	0	295	0	0	
7	0	0	0	0	477	327	0	292	0	0	
8	0	0	0	0	475	323	0	291	0	0	
9	0	0	0	0	473	320	0	290	0	0	
10	0	0	0	0	473	317	0	290	0	0	
11	0	0	0	0	473	315	0	291	0	0	
12	0	0	0	0	474	315	0	292	0	0	
13	0	0	0	0	475	315	0	295	0	0	
14	0	0	0	0	476	316	0	298	0	0	
15	0	0	0	0	477	319	0	302	0	0	
0	0	0	0	0	478	323	0	306	0	0	
1	0	0	0	0	478	326	0	311	0	0	
2	0	0	0	0	478	329	0	315	0	0	
3	0	0	0	0	478	334	0	319	0	0	
4	0	0	0	0	478	339	0	322	0	0	
5	0	0	0	0	480	343	0	325	0	0	
6	0	0	0	0	482	348	0	327	0	0	
7	0	0	0	0	484	352	0	328	0	0	
8	0	0	0	0	486	353	0	328	0	0	
9	0	0	0	0	487	354	0	327	0	0	
10	0	0	0	0	488	352	0	324	0	0	
11	0	0	0	0	486	348	0	319	0	0	
12	0	0	0	0	483	342	0	313	0	0	
13	0	0	0	0	479	334	0	307	0	0	
14	0	0	0	0	473	326	0	300	0	0	
15	0	0	0	0	466	318	0	293	0	0	
0	0	0	0	0	460	311	0	287	0	0	
1	0	0	0	0	454	305	0	283	0	0	
2	0	0	0	0	449	302	0	280	0	0	
3	0	0	0	0	446	302	0	278	0	0	
4	0	0	0	0	445	304	0	278	0	0	
5	0	0	0	0	445	308	0	279	0	0	
6	0	0	0	0	447	313	0	281	0	0	
7	0	0	0	0	450	321	0	284	0	0	
8	0	0	0	0	455	330	0	288	0	0	
9	0	0	0	0	460	339	0	291	0	0	
10	0	0	0	0	466	347	0	294	0	0	
11	0	0	0	0	472	353	0	296	0	0	
12	0	0	0	0	476	359	0	297	0	0	
13	0	0	0	0	481	363	0	297	0	0	
14	0	0	0	0	484	363	0	295	0	0	
15	0	0	0	0	485	361	0	293	0	0	
0	0	0	0	0	483	356	0	289	0	0	
1	0	0	0	0	480	350	0	285	0	0	
2	0	0	0	0	475	343	0	281	0	0	
3	0	0	0	0	470	335	0	277	0	0	
4	0	0	0	0	464	329	0	275	0	0	
5	0	0	0	0	461	326	0	275	0	0	
6	0	0	0	0	459	327	0	276	0	0	
7	0	0	0	0	460	330	0	281	0	0	
8	0	0	0	0	465	338	0	288	0	0	
9	0	0	0	0	472	349	0	299	0	0	
10	0	0	0	0	483	362	0	310	0	0	
11	0	0	0	0	494	378	0	323	0	0	
12	0	0	0	0	508	393	0	336	0	0	
13	0	0	0	0	520	409	0	348	0	0	
14	0	0	0	0	532	423	0	359	0	0	
15	0	0	0	0	543	434	0	368	0	0	
0	0	0	0	0	550	442	0	374	0	0	
1	0	0	0	0	554	446	0	376	0	0	
2	0	0	0	0	554	445	0	376	0	0	
3	0	0	0	0	550	440	0	373	0	0	
4	0	0	0	0	542	430	0	368	0	0	
5	0	0	0	0	532	418	0	360	0	0	
6	0	0	0	0	520	405	0	353	0	0	
7	0	0	0	0	508	391	0	345	0	0	
8	0	0	0	0	496	379	0	338	0	0	
9	0	0	0	0	485	368	0	332	0	0	
10	0	0	0	0	476	360	0	326	0	0	
11	0	0	0	0	469	355	0	322	0	0	
12	0	0	0	0	464	353	0	320	0	0	
13	0	0	0	0	462	354	0	319	0	0	
14	0	0	0	0	461	357	0	319	0	0	
15	0	0	0	0	462	363	0	319	0	0	
0	0	0	0	0	464	369	0	320	0	0	
1	0	0	0	0	468	376	0	321	0	0	
2	0	0	0	0	472	384	0	321	0	0	
3	0	0	0	0	476	391	0	321	0	0	
4	0	0	0	0	480	397	0	320	0	0	
5	0	0	0	0	485	401	0	319	0	0	
6	0	0	0	0	488	403	0	316	0	0	
7	0	0	0	0	491	403	0	314	0	0	
8	0	0	0	0	492	401	0	311	0	0	
9	0	0	0	0	490	397	0	307	0	0	
10	0	0	0	0	487	390	0	303	0	0	
11	0	0	0	0	482	383	0	299	0	0	
12	0	0	0	0	475	374	0	295	0	0	
13	0	0	0	0	467	365	0	292	0	0	
14	0	0	0	0	460	357	0	290	0	0	
15	0	0	0	0	452	351	0	289	0	0	
0	0	0	0	0	447	348	0	291	0	0	
1	0	0	0	0	443	346	0	292	0	0	
2	0	0	0	0	439	346	0	295	0	0	
3	0	0	0	0	437	348	0	298	0	0	
4	0	0	0	0	436	350	0	301	0	0	
5	0	0	0	0	435	353	0	304	0	0	
6	0	0	0	0	435	355	0	307	0	0	
7	0	0	0	0	435	358	0	308	0	0	
8	0	0	0	0	435	359	0	309	0	0	
9	0	0	0	0	437	360	0	308	0	0	
10	0	0	0	0	441	362	0	308	0	0	
11	0	0	0	0	446	364	0	308	0	0	
12	0	0	0	0	452	367	0	307	0	0	
13	0	0	0	0	460	370	0	307	0	0	
14	0	0	0	0	469	374	0	308	0	0	
15	0	0	0	0	479	379	0	311	0	0	
0	0	0	0	0	488	384	0	313	0	0	
1	0	0	0	0	497	391	0	318	0	0	
2	0	0	0	0	506	398	0	324	0	0	
3	0	0	0	0	514	406	0	331	0	0	
4	0	0	0	0	521	414	0	339	0	0	
5	0	0	0	0	527	423	0	347	0	0	
6	0	0	0	0	532	432	0	356	0	0	
7	0	0	0	0	537	441	0	364	0	0	
8	0	0	0	0	541	451	0	372	0	0	
9	0	0	0	0	545	459	0	379	0	0	
10	0	0	0	0	548	466	0	383	0	0	
11	0	0	0	0	549	469	0	384	0	0	
12	0	0	0	0	547	470	0	382	0	0	
13	0	0	0	0	543	466	0	377	0	0	
14	0	0	0	0	535	459	0	370	0	0	
15	0	0	0	0	526	448	0	360	0	0	
0	0	0	0	0	514	435	0	348	0	0	
1	0	0	0	0	501	421	0	336	0	0	
2	0	0	0	0	487	406	0	324	0	0	
3	0	0	0	0	474	391	0	312	0	0	
4	0	0	0	0	460	377	0	302	0	0	
5	0	0	0	0	448	364	0	294	0	0	
6	0	0	0	0	436	354	0	287	0	0	
7	0	0	0	0	428	348	0	283	0	0	
8	0	0	0	0	423	345	0	281	0	0	
9	0	0	0	0	423	346	0	284	0	0	
10	0	0	0	0	425	351	0	288	0	0	
11	0	0	0	0	431	358	0	295	0	0	
12	0	0	0	0	440	369	0	303	0	0	
13	0	0	0	0	452	381	0	313	0	0	
14	0	0	0	0	466	394	0	324	0	0	
15	0	0	0	0	481	407	0	334	0	0	
0	0	0	0	0	496	419	0	343	0	0	
1	0	0	0	0	509	428	0	350	0	0	
2	0	0	0	0	520	435	0	355	0	0	
3	0	0	0	0	529	440	0	356	0	0	
4	0	0	0	0	536	442	0	356	0	0	
5	0	0	0	0	538	441	0	354	0	0	
6	0	0	0	0	538	439	0	350	0	0	
7	0	0	0	0	535	434	0	345	0	0	
8	0	0	0	0	529	429	0	340	0	0	
9	0	0	0	0	523	423	0	335	0	0	
10	0	0	0	0	516	419	0	332	0	0	
11	0	0	0	0	510	417	0	329	0	0	
12	0	0	0	0	504	416	0	329	0	0	
13	0	0	0	0	500	416	0	330	0	0	
14	0	0	0	0	497	419	0	333	0	0	
15	0	0	0	0	496	422	0	337	0	0	
0	0	0	0	0	496	426	0	342	0	0	
1	0	0	0	0	497	431	0	348	0	0	
2	0	0	0	0	499	435	0	353	0	0	
3	0	0	0	0	502	438	0	358	0	0	
4	0	0	0	0	504	438	0	360	0	0	
5	0	0	0	0	504	437	0	361	0	0	
6	0	0	0	0	503	433	0	359	0	0	
7	0	0	0	0	500	426	0	355	0	0	
8	0	0	0	0	494	417	0	349	0	0	
9	0	0	0	0	487	406	0	341	0	0	
10	0	0	0	0	479	395	0	332	0	0	
11	0	0	0	0	470	384	0	324	0	0	
12	0	0	0	0	462	375	0	317	0	0	
13	0	0	0	0	455	368	0	312	0	0	
14	0	0	0	0	452	364	0	309	0	0	
15	0	0	0	0	451	364	0	308	0	0	
0	0	0	0	0	453	369	0	311	0	0	
1	0	0	0	0	458	376	0	316	0	0	
2	0	0	0	0	464	385	0	323	0	0	
3	0	0	0	0	472	396	0	330	0	0	
4	0	0	0	0	481	407	0	339	0	0	
5	0	0	0	0	492	419	0	348	0	0	
6	0	0	0	0	503	432	0	358	0	0	
7	0	0	0	0	512	442	0	367	0	0	
8	0	0	0	0	522	451	0	375	0	0	
9	0	0	0	0	531	458	0	380	0	0	
10	0	0	0	0	539	463	0	385	0	0	
11	0	0	0	0	545	465	0	387	0	0	
12	0	0	0	0	549	466	0	387	0	0	
13	0	0	0	0	551	465	0	386	0	0	
14	0	0	0	0	552	463	0	383	0	0	
15	0	0	0	0	551	460	0	380	0	0	
0	0	0	0	0	549	457	0	376	0	0	
1	0	0	0	0	546	455	0	373	0	0	
2	0	0	0	0	543	454	0	371	0	0	
3	0	0	0	0	540	454	0	369	0	0	
4	0	0	0	0	537	455	0	369	0	0	
5	0	0	0	0	535	458	0	371	0	0	
6	0	0	0	0	534	463	0	375	0	0	
7	0	0	0	0	534	468	0	378	0	0	
8	0	0	0	0	535	474	0	382	0	0	
9	0	0	0	0	536	480	0	387	0	0	
10	0	0	0	0	538	484	0	391	0	0	
11	0	0	0	0	538	486	0	393	0	0	
12	0	0	0	0	536	486	0	393	0	0	
13	0	0	0	0	531	480	0	391	0	0	
14	0	0	0	0	523	471	0	387	0	0	
15	0	0	0	0	512	458	0	380	0	0	
0	0	0	0	0	499	443	0	371	0	0	
1	0	0	0	0	485	426	0	360	0	0	
2	0	0	0	0	472	411	0	350	0	0	
3	0	0	0	0	463	398	0	341	0	0	
4	0	0	0	0	457	389	0	334	0	0	
5	0	0	0	0	455	384	0	329	0	0	
6	0	0	0	0	456	384	0	327	0	0	
7	0	0	0	0	462	388	0	327	0	0	
8	0	0	0	0	471	397	0	331	0	0	
9	0	0	0	0	483	409	0	339	0	0	
10	0	0	0	0	498	425	0	348	0	0	
11	0	0	0	0	513	442	0	359	0	0	
12	0	0	0	0	530	461	0	373	0	0	
13	0	0	0	0	547	479	0	387	0	0	
14	0	0	0	0	562	496	0	401	0	0	
15	0	0	0	0	576	510	0	414	0	0	
0	0	0	0	0	587	522	0	425	0	0	
1	0	0	0	0	594	530	0	432	0	0	
2	0	0	0	0	599	534	0	438	0	0	
3	0	0	0	0	599	534	0	439	0	0	
4	0	0	0	0	596	531	0	436	0	0	
5	0	0	0	0	590	524	0	431	0	0	
6	0	0	0	0	580	515	0	422	0	0	
7	0	0	0	0	568	504	0	412	0	0	
8	0	0	0	0	555	491	0	399	0	0	
9	0	0	0	0	540	478	0	387	0	0	
10	0	0	0	0	524	466	0	376	0	0	
11	0	0	0	0	510	455	0	365	0	0	
12	0	0	0	0	496	445	0	357	0	0	
13	0	0	0	0	483	436	0	351	0	0	
14	0	0	0	0	472	430	0	348	0	0	
15	0	0	0	0	463	426	0	346	0	0	
0	0	0	0	0	456	423	0	347	0	0	
1	0	0	0	0	452	423	0	350	0	0	
2	0	0	0	0	451	423	0	353	0	0	
3	0	0	0	0	451	424	0	358	0	0	
4	0	0	0	0	454	426	0	363	0	0	
5	0	0	0	0	459	428	0	366	0	0	
6	0	0	0	0	465	431	0	370	0	0	
7	0	0	0	0	473	433	0	373	0	0	
8	0	0	0	0	481	435	0	376	0	0	
9	0	0	0	0	490	439	0	377	0	0	
10	0	0	0	0	499	441	0	379	0	0	
11	0	0	0	0	508	444	0	380	0	0	
12	0	0	0	0	515	447	0	381	0	0	
13	0	0	0	0	522	451	0	383	0	0	
14	0	0	0	0	528	456	0	385	0	0	
15	0	0	0	0	534	463	0	388	0	0	
0	0	0	0	0	539	470	0	392	0	0	
1	0	0	0	0	543	476	0	396	0	0	
2	0	0	0	0	545	481	0	399	0	0	
3	0	0	0	0	545	486	0	401	0	0	
4	0	0	0	0	543	488	0	402	0	0	
5	0	0	0	0	541	489	0	402	0	0	
6	0	0	0	0	536	487	0	400	0	0	
7	0	0	0	0	530	483	0	396	0	0	
8	0	0	0	0	522	477	0	390	0	0	
9	0	0	0	0	513	467	0	382	0	0	
10	0	0	0	0	504	457	0	374	0	0	
11	0	0	0	0	495	446	0	365	0	0	
12	0	0	0	0	487	435	0	356	0	0	
13	0	0	0	0	480	426	0	349	0	0	
14	0	0	0	0	476	419	0	343	0	0	
15	0	0	0	0	476	415	0	339	0	0	
0	0	0	0	0	478	415	0	338	0	0	
1	0	0	0	0	483	418	0	339	0	0	
2	0	0	0	0	492	424	0	342	0	0	
3	0	0	0	0	503	434	0	348	0	0	
4	0	0	0	0	515	446	0	355	0	0	
5	0	0	0	0	529	460	0	364	0	0	
6	0	0	0	0	543	475	0	375	0	0	
7	0	0	0	0	556	489	0	385	0	0	
8	0	0	0	0	566	502	0	393	0	0	
9	0	0	0	0	573	512	0	401	0	0	
10	0	0	0	0	576	517	0	406	0	0	
11	0	0	0	0	575	518	0	409	0	0	
12	0	0	0	0	571	515	0	408	0	0	
13	0	0	0	0	563	510	0	405	0	0	
14	0	0	0	0	555	502	0	400	0	0	
15	0	0	0	0	545	492	0	393	0	0	
0	0	0	0	0	537	483	0	385	0	0	
1	0	0	0	0	530	474	0	377	0	0	
2	0	0	0	0	525	467	0	369	0	0	
3	0	0	0	0	523	462	0	363	0	0	
4	0	0	0	0	522	459	0	358	0	0	
5	0	0	0	0	522	456	0	355	0	0	
6	0	0	0	0	522	455	0	352	0	0	
7	0	0	0	0	523	455	0	351	0	0	
8	0	0	0	0	523	455	0	351	0	0	
9	0	0	0	0	521	455	0	352	0	0	
10	0	0	0	0	519	455	0	353	0	0	
11	0	0	0	0	515	454	0	355	0	0	
12	0	0	0	0	510	452	0	355	0	0	
13	0	0	0	0	505	449	0	356	0	0	
14	0	0	0	0	498	446	0	356	0	0	
15	0	0	0	0	491	440	0	355	0	0	
0	0	0	0	0	482	433	0	352	0	0	
1	0	0	0	0	473	425	0	348	0	0	
2	0	0	0	0	464	415	0	343	0	0	
3	0	0	0	0	456	405	0	336	0	0	
4	0	0	0	0	448	395	0	330	0	0	
5	0	0	0	0	442	385	0	323	0	0	
6	0	0	0	0	438	377	0	317	0	0	
7	0	0	0	0	435	371	0	312	0	0	
8	0	0	0	0	436	368	0	309	0	0	
9	0	0	0	0	440	368	0	307	0	0	
10	0	0	0	0	447	371	0	308	0	0	
11	0	0	0	0	455	379	0	311	0	0	
12	0	0	0	0	467	388	0	316	0	0	
13	0	0	0	0	479	400	0	322	0	0	
14	0	0	0	0	491	414	0	329	0	0	
15	0	0	0	0	503	427	0	337	0	0	
0	0	0	0	0	513	440	0	344	0	0	
1	0	0	0	0	522	451	0	351	0	0	
2	0	0	0	0	529	461	0	356	0	0	
3	0	0	0	0	533	466	0	359	0	0	
4	0	0	0	0	533	468	0	360	0	0	
5	0	0	0	0	531	465	0	359	0	0	
6	0	0	0	0	525	459	0	355	0	0	
7	0	0	0	0	516	449	0	349	0	0	
8	0	0	0	0	506	436	0	343	0	0	
9	0	0	0	0	495	423	0	337	0	0	
10	0	0	0	0	485	412	0	332	0	0	
11	0	0	0	0	476	401	0	330	0	0	
12	0	0	0	0	468	391	0	329	0	0	
13	0	0	0	0	463	385	0	331	0	0	
14	0	0	0	0	460	382	0	334	0	0	
15	0	0	0	0	459	382	0	340	0	0	
0	0	0	0	0	462	385	0	348	0	0	
1	0	0	0	0	465	390	0	356	0	0	
2	0	0	0	0	471	398	0	365	0	0	
3	0	0	0	0	478	406	0	374	0	0	
4	0	0	0	0	485	416	0	381	0	0	
5	0	0	0	0	494	425	0	387	0	0	
6	0	0	0	0	502	434	0	392	0	0	
7	0	0	0	0	509	441	0	395	0	0	
8	0	0	0	0	516	446	0	396	0	0	
9	0	0	0	0	522	450	0	394	0	0	
10	0	0	0	0	527	452	0	391	0	0	
11	0	0	0	0	531	451	0	387	0	0	
12	0	0	0	0	535	450	0	382	0	0	
13	0	0	0	0	536	447	0	376	0	0	
14	0	0	0	0	538	444	0	371	0	0	
15	0	0	0	0	538	440	0	365	0	0	
0	0	0	0	0	539	437	0	361	0	0	
1	0	0	0	0	538	435	0	358	0	0	
2	0	0	0	0	538	434	0	357	0	0	
3	0	0	0	0	538	434	0	356	0	0	
4	0	0	0	0	538	435	0	357	0	0	
5	0	0	0	0	537	437	0	359	0	0	
6	0	0	0	0	535	438	0	360	0	0	
7	0	0	0	0	531	438	0	360	0	0	
8	0	0	0	0	526	436	0	360	0	0	
9	0	0	0	0	519	432	0	358	0	0	
10	0	0	0	0	510	428	0	354	0	0	
11	0	0	0	0	501	420	0	348	0	0	
12	0	0	0	0	491	411	0	342	0	0	
13	0	0	0	0	481	401	0	333	0	0	
14	0	0	0	0	472	391	0	324	0	0	
15	0	0	0	0	466	381	0	315	0	0	
0	0	0	0	0	462	372	0	306	0	0	
1	0	0	0	0	461	364	0	299	0	0	
2	0	0	0	0	462	359	0	293	0	0	
3	0	0	0	0	464	354	0	289	0	0	
4	0	0	0	0	468	352	0	287	0	0	
5	0	0	0	0	473	351	0	287	0	0	
6	0	0	0	0	478	352	0	290	0	0	
7	0	0	0	0	484	355	0	294	0	0	
8	0	0	0	0	489	359	0	301	0	0	
9	0	0	0	0	494	365	0	309	0	0	
10	0	0	0	0	497	371	0	319	0	0	
11	0	0	0	0	500	377	0	327	0	0	
12	0	0	0	0	502	382	0	336	0	0	
13	0	0	0	0	502	385	0	343	0	0	
14	0	0	0	0	499	387	0	348	0	0	
15	0	0	0	0	496	386	0	351	0	0	
0	0	0	0	0	492	383	0	352	0	0	
1	0	0	0	0	486	379	0	350	0	0	
2	0	0	0	0	481	373	0	347	0	0	
3	0	0	0	0	476	367	0	342	0	0	
4	0	0	0	0	471	360	0	336	0	0	
5	0	0	0	0	467	353	0	330	0	0	
6	0	0	0	0	465	348	0	324	0	0	
7	0	0	0	0	464	344	0	319	0	0	
8	0	0	0	0	464	340	0	315	0	0	
9	0	0	0	0	465	339	0	312	0	0	
10	0	0	0	0	468	340	0	311	0	0	
11	0	0	0	0	472	343	0	312	0	0	
12	0	0	0	0	478	348	0	314	0	0	
13	0	0	0	0	483	354	0	317	0	0	
14	0	0	0	0	489	361	0	321	0	0	
15	0	0	0	0	495	368	0	326	0	0	
0	0	0	0	0	499	375	0	329	0	0	
1	0	0	0	0	503	380	0	332	0	0	
2	0	0	0	0	503	382	0	333	0	0	
3	0	0	0	0	500	382	0	332	0	0	
4	0	0	0	0	496	379	0	328	0	0	
5	0	0	0	0	490	373	0	322	0	0	
6	0	0	0	0	482	366	0	315	0	0	
7	0	0	0	0	474	356	0	306	0	0	
8	0	0	0	0	466	347	0	298	0	0	
9	0	0	0	0	459	338	0	290	0	0	
10	0	0	0	0	453	329	0	283	0	0	
11	0	0	0	0	449	323	0	279	0	0	
12	0	0	0	0	448	319	0	277	0	0	
13	0	0	0	0	448	318	0	278	0	0	
14	0	0	0	0	451	321	0	281	0	0	
15	0	0	0	0	457	327	0	287	0	0	
0	0	0	0	0	466	336	0	296	0	0	
1	0	0	0	0	477	348	0	307	0	0	
2	0	0	0	0	489	362	0	319	0	0	
3	0	0	0	0	504	379	0	331	0	0	
4	0	0	0	0	518	395	0	343	0	0	
5	0	0	0	0	531	410	0	353	0	0	
6	0	0	0	0	543	423	0	361	0	0	
7	0	0	0	0	552	434	0	366	0	0	
8	0	0	0	0	559	442	0	368	0	0	
9	0	0	0	0	564	445	0	366	0	0	
10	0	0	0	0	565	445	0	362	0	0	
11	0	0	0	0	563	440	0	355	0	0	
12	0	0	0	0	558	432	0	347	0	0	
13	0	0	0	0	549	422	0	339	0	0	
14	0	0	0	0	539	409	0	329	0	0	
15	0	0	0	0	526	395	0	320	0	0	
0	0	0	0	0	511	380	0	312	0	0	
1	0	0	0	0	495	366	0	305	0	0	
2	0	0	0	0	479	353	0	300	0	0	
3	0	0	0	0	466	343	0	298	0	0	
4	0	0	0	0	455	335	0	298	0	0	
5	0	0	0	0	446	331	0	301	0	0	
6	0	0	0	0	441	330	0	305	0	0	
7	0	0	0	0	440	332	0	311	0	0	
8	0	0	0	0	443	337	0	318	0	0	
9	0	0	0	0	449	345	0	324	0	0	
10	0	0	0	0	457	353	0	330	0	0	
11	0	0	0	0	467	361	0	335	0	0	
12	0	0	0	0	477	369	0	338	0	0	
13	0	0	0	0	488	376	0	339	0	0	
14	0	0	0	0	498	381	0	340	0	0	
15	0	0	0	0	508	385	0	339	0	0	
0	0	0	0	0	516	389	0	338	0	0	
1	0	0	0	0	525	393	0	337	0	0	
2	0	0	0	0	534	396	0	337	0	0	
3	0	0	0	0	540	399	0	337	0	0	
4	0	0	0	0	544	400	0	337	0	0	
5	0	0	0	0	545	399	0	338	0	0	
6	0	0	0	0	543	398	0	339	0	0	
7	0	0	0	0	538	396	0	341	0	0	
8	0	0	0	0	531	394	0	343	0	0	
9	0	0	0	0	522	391	0	345	0	0	
10	0	0	0	0	511	387	0	347	0	0	
11	0	0	0	0	499	384	0	348	0	0	
12	0	0	0	0	488	379	0	349	0	0	
13	0	0	0	0	478	375	0	349	0	0	
14	0	0	0	0	468	371	0	348	0	0	
15	0	0	0	0	461	366	0	345	0	0	
0	0	0	0	0	455	361	0	342	0	0	
1	0	0	0	0	452	357	0	338	0	0	
2	0	0	0	0	452	353	0	334	0	0	
3	0	0	0	0	455	350	0	330	0	0	
4	0	0	0	0	459	347	0	326	0	0	
5	0	0	0	0	465	345	0	321	0	0	
6	0	0	0	0	472	344	0	318	0	0	
7	0	0	0	0	480	345	0	316	0	0	
8	0	0	0	0	487	345	0	315	0	0	
9	0	0	0	0	493	347	0	315	0	0	
10	0	0	0	0	497	350	0	317	0	0	
11	0	0	0	0	502	353	0	320	0	0	
12	0	0	0	0	504	358	0	325	0	0	
13	0	0	0	0	506	363	0	331	0	0	
14	0	0	0	0	506	368	0	338	0	0	
15	0	0	0	0	504	373	0	344	0	0	
0	0	0	0	0	502	376	0	350	0	0	
1	0	0	0	0	498	378	0	354	0	0	
2	0	0	0	0	493	379	0	356	0	0	
3	0	0	0	0	487	377	0	357	0	0	
4	0	0	0	0	482	375	0	355	0	0	
5	0	0	0	0	478	372	0	352	0	0	
6	0	0	0	0	476	369	0	348	0	0	
7	0	0	0	0	475	367	0	343	0	0	
8	0	0	0	0	477	366	0	337	0	0	
9	0	0	0	0	482	367	0	333	0	0	
10	0	0	0	0	489	369	0	330	0	0	
11	0	0	0	0	498	372	0	327	0	0	
12	0	0	0	0	507	376	0	327	0	0	
13	0	0	0	0	515	380	0	328	0	0	
14	0	0	0	0	521	384	0	330	0	0	
15	0	0	0	0	525	387	0	334	0	0	
0	0	0	0	0	528	390	0	339	0	0	
1	0	0	0	0	529	391	0	346	0	0	
2	0	0	0	0	527	393	0	353	0	0	
3	0	0	0	0	524	396	0	361	0	0	
4	0	0	0	0	521	396	0	368	0	0	
5	0	0	0	0	516	398	0	376	0	0	
6	0	0	0	0	511	399	0	382	0	0	
7	0	0	0	0	507	399	0	387	0	0	
8	0	0	0	0	503	399	0	391	0	0	
9	0	0	0	0	499	398	0	391	0	0	
10	0	0	0	0	496	395	0	390	0	0	
11	0	0	0	0	493	392	0	387	0	0	
12	0	0	0	0	490	388	0	381	0	0	
13	0	0	0	0	487	383	0	374	0	0	
14	0	0	0	0	486	379	0	367	0	0	
15	0	0	0	0	485	375	0	359	0	0	
0	0	0	0	0	486	373	0	353	0	0	
1	0	0	0	0	489	372	0	348	0	0	
2	0	0	0	0	491	372	0	343	0	0	
3	0	0	0	0	494	374	0	339	0	0	
4	0	0	0	0	495	374	0	336	0	0	
5	0	0	0	0	494	375	0	334	0	0	
6	0	0	0	0	491	374	0	331	0	0	
7	0	0	0	0	485	372	0	328	0	0	
8	0	0	0	0	478	369	0	325	0	0	
9	0	0	0	0	470	365	0	320	0	0	
10	0	0	0	0	460	359	0	315	0	0	
11	0	0	0	0	448	351	0	308	0	0	
12	0	0	0	0	436	341	0	299	0	0	
13	0	0	0	0	423	328	0	288	0	0	
14	0	0	0	0	410	314	0	276	0	0	
15	0	0	0	0	394	296	0	260	0	0	
0	0	0	0	0	376	276	0	243	0	0	
1	0	0	0	0	357	252	0	223	0	0	
2	0	0	0	0	335	227	0	202	0	0	
3	0	0	0	0	311	200	0	180	0	0	
4	0	0	0	0	286	172	0	157	0	0	
5	0	0	0	0	260	145	0	135	0	0	
6	0	0	0	0	236	120	0	116	0	0	
7	0	0	0	0	215	99	0	99	0	0	
8	0	0	0	0	199	85	0	88	0	0	
9	0	0	0	0	188	77	0	81	0	0	
10	0	0	0	0	187	78	0	82	0	0	
11	0	0	0	0	194	87	0	89	0	0	
12	0	0	0	0	210	106	0	103	0	0	
13	0	0	0	0	237	133	0	125	0	0	
14	0	0	0	0	272	167	0	152	0	0	
15	0	0	0	0	313	205	0	184	0	0	
0	0	0	0	0	359	246	0	217	0	0	
1	0	0	0	0	408	287	0	252	0	0	
2	0	0	0	0	454	326	0	286	0	0	
3	0	0	0	0	496	360	0	318	0	0	
4	0	0	0	0	532	390	0	345	0	0	
5	0	0	0	0	560	411	0	369	0	0	
6	0	0	0	0	578	426	0	386	0	0	
7	0	0	0	0	587	434	0	399	0	0	
8	0	0	0	0	588	436	0	406	0	0	
9	0	0	0	0	582	433	0	409	0	0	
10	0	0	0	0	570	428	0	409	0	0	
11	0	0	0	0	556	421	0	408	0	0	
12	0	0	0	0	540	414	0	405	0	0	
13	0	0	0	0	525	408	0	402	0	0	
14	0	0	0	0	513	405	0	400	0	0	
15	0	0	0	0	504	404	0	399	0	0	
0	0	0	0	0	500	407	0	399	0	0	
1	0	0	0	0	499	411	0	400	0	0	
2	0	0	0	0	501	415	0	402	0	0	
3	0	0	0	0	506	420	0	403	0	0	
4	0	0	0	0	511	423	0	405	0	0	
5	0	0	0	0	516	425	0	405	0	0	
6	0	0	0	0	521	425	0	404	0	0	
7	0	0	0	0	524	423	0	402	0	0	
8	0	0	0	0	526	419	0	399	0	0	
9	0	0	0	0	527	414	0	396	0	0	
10	0	0	0	0	527	409	0	391	0	0	
11	0	0	0	0	527	406	0	388	0	0	
12	0	0	0	0	526	403	0	386	0	0	
13	0	0	0	0	526	401	0	385	0	0	
14	0	0	0	0	527	403	0	386	0	0	
15	0	0	0	0	528	406	0	389	0	0	
0	0	0	0	0	530	410	0	393	0	0	
1	0	0	0	0	531	415	0	398	0	0	
2	0	0	0	0	531	419	0	403	0	0	
3	0	0	0	0	529	423	0	407	0	0	
4	0	0	0	0	527	425	0	411	0	0	
5	0	0	0	0	526	428	0	414	0	0	
6	0	0	0	0	524	430	0	417	0	0	
7	0	0	0	0	521	430	0	418	0	0	
8	0	0	0	0	520	430	0	419	0	0	
9	0	0	0	0	519	430	0	417	0	0	
10	0	0	0	0	519	429	0	414	0	0	
11	0	0	0	0	519	427	0	410	0	0	
12	0	0	0	0	519	423	0	404	0	0	
13	0	0	0	0	519	419	0	398	0	0	
14	0	0	0	0	518	415	0	391	0	0	
15	0	0	0	0	518	412	0	385	0	0	
0	0	0	0	0	518	409	0	380	0	0	
1	0	0	0	0	517	407	0	376	0	0	
2	0	0	0	0	517	407	0	375	0	0	
3	0	0	0	0	518	409	0	374	0	0	
4	0	0	0	0	519	412	0	376	0	0	
5	0	0	0	0	521	417	0	380	0	0	
6	0	0	0	0	522	423	0	384	0	0	
7	0	0	0	0	524	429	0	390	0	0	
8	0	0	0	0	527	436	0	396	0	0	
9	0	0	0	0	529	443	0	402	0	0	
10	0	0	0	0	532	449	0	408	0	0	
11	0	0	0	0	535	455	0	413	0	0	
12	0	0	0	0	536	459	0	416	0	0	
13	0	0	0	0	537	460	0	418	0	0	
14	0	0	0	0	537	460	0	418	0	0	
15	0	0	0	0	535	456	0	415	0	0	
0	0	0	0	0	531	451	0	412	0	0	
1	0	0	0	0	526	444	0	407	0	0	
2	0	0	0	0	521	436	0	401	0	0	
3	0	0	0	0	516	428	0	396	0	0	
4	0	0	0	0	511	420	0	391	0	0	
5	0	0	0	0	507	414	0	387	0	0	
6	0	0	0	0	503	409	0	384	0	0	
7	0	0	0	0	501	407	0	383	0	0	
8	0	0	0	0	500	407	0	383	0	0	
9	0	0	0	0	501	409	0	385	0	0	
10	0	0	0	0	504	414	0	390	0	0	
11	0	0	0	0	509	422	0	396	0	0	
12	0	0	0	0	516	432	0	401	0	0	
13	0	0	0	0	524	442	0	408	0	0	
14	0	0	0	0	532	453	0	414	0	0	
15	0	0	0	0	540	462	0	418	0	0	
0	0	0	0	0	547	468	0	421	0	0	
1	0	0	0	0	551	472	0	422	0	0	
2	0	0	0	0	554	474	0	422	0	0	
3	0	0	0	0	554	472	0	419	0	0	
4	0	0	0	0	551	468	0	415	0	0	
5	0	0	0	0	546	461	0	409	0	0	
6	0	0	0	0	540	453	0	403	0	0	
7	0	0	0	0	532	444	0	397	0	0	
8	0	0	0	0	523	434	0	391	0	0	
9	0	0	0	0	514	425	0	387	0	0	
10	0	0	0	0	506	417	0	384	0	0	
11	0	0	0	0	499	412	0	382	0	0	
12	0	0	0	0	493	408	0	383	0	0	
13	0	0	0	0	489	408	0	385	0	0	
14	0	0	0	0	487	409	0	390	0	0	
15	0	0	0	0	488	412	0	395	0	0	
0	0	0	0	0	491	419	0	400	0	0	
1	0	0	0	0	494	425	0	406	0	0	
2	0	0	0	0	498	431	0	411	0	0	
3	0	0	0	0	503	437	0	415	0	0	
4	0	0	0	0	508	442	0	417	0	0	
5	0	0	0	0	513	446	0	419	0	0	
6	0	0	0	0	519	450	0	419	0	0	
7	0	0	0	0	527	452	0	419	0	0	
8	0	0	0	0	534	455	0	418	0	0	
9	0	0	0	0	542	457	0	417	0	0	
10	0	0	0	0	549	460	0	415	0	0	
11	0	0	0	0	556	462	0	415	0	0	
12	0	0	0	0	561	463	0	414	0	0	
13	0	0	0	0	565	465	0	414	0	0	
14	0	0	0	0	568	467	0	415	0	0	
15	0	0	0	0	569	469	0	416	0	0	
0	0	0	0	0	569	471	0	417	0	0	
1	0	0	0	0	567	472	0	419	0	0	
2	0	0	0	0	563	472	0	420	0	0	
3	0	0	0	0	557	472	0	420	0	0	
4	0	0	0	0	550	471	0	419	0	0	
5	0	0	0	0	543	469	0	418	0	0	
6	0	0	0	0	536	467	0	416	0	0	
7	0	0	0	0	528	463	0	412	0	0	
8	0	0	0	0	520	457	0	408	0	0	
9	0	0	0	0	513	450	0	401	0	0	
10	0	0	0	0	505	441	0	395	0	0	
11	0	0	0	0	498	432	0	388	0	0	
12	0	0	0	0	491	421	0	381	0	0	
13	0	0	0	0	484	410	0	375	0	0	
14	0	0	0	0	480	402	0	370	0	0	
15	0	0	0	0	478	395	0	367	0	0	
0	0	0	0	0	479	391	0	366	0	0	
1	0	0	0	0	482	390	0	367	0	0	
2	0	0	0	0	487	391	0	370	0	0	
3	0	0	0	0	494	397	0	374	0	0	
4	0	0	0	0	503	404	0	379	0	0	
5	0	0	0	0	512	413	0	385	0	0	
6	0	0	0	0	520	422	0	391	0	0	
7	0	0	0	0	528	432	0	397	0	0	
8	0	0	0	0	535	442	0	401	0	0	
9	0	0	0	0	540	450	0	406	0	0	
10	0	0	0	0	543	456	0	408	0	0	
11	0	0	0	0	542	460	0	408	0	0	
12	0	0	0	0	539	459	0	407	0	0	
13	0	0	0	0	532	455	0	402	0	0	
14	0	0	0	0	522	447	0	396	0	0	
15	0	0	0	0	510	435	0	387	0	0	
0	0	0	0	0	497	423	0	378	0	0	
1	0	0	0	0	485	410	0	370	0	0	
2	0	0	0	0	475	399	0	363	0	0	
3	0	0	0	0	467	390	0	358	0	0	
4	0	0	0	0	463	385	0	355	0	0	
5	0	0	0	0	464	384	0	356	0	0	
6	0	0	0	0	470	387	0	359	0	0	
7	0	0	0	0	480	396	0	366	0	0	
8	0	0	0	0	495	410	0	376	0	0	
9	0	0	0	0	512	427	0	387	0	0	
10	0	0	0	0	533	447	0	401	0	0	
11	0	0	0	0	554	468	0	415	0	0	
12	0	0	0	0	574	487	0	428	0	0	
13	0	0	0	0	591	504	0	438	0	0	
14	0	0	0	0	604	517	0	446	0	0	
15	0	0	0	0	611	524	0	451	0	0	
0	0	0	0	0	613	526	0	451	0	0	
1	0	0	0	0	608	521	0	448	0	0	
2	0	0	0	0	597	511	0	441	0	0	
3	0	0	0	0	582	496	0	431	0	0	
4	0	0	0	0	563	479	0	420	0	0	
5	0	0	0	0	543	460	0	407	0	0	
6	0	0	0	0	523	441	0	394	0	0	
7	0	0	0	0	504	424	0	382	0	0	
8	0	0	0	0	488	409	0	371	0	0	
9	0	0	0	0	476	398	0	364	0	0	
10	0	0	0	0	467	390	0	358	0	0	
11	0	0	0	0	463	387	0	357	0	0	
12	0	0	0	0	464	388	0	358	0	0	
13	0	0	0	0	470	393	0	362	0	0	
14	0	0	0	0	478	402	0	369	0	0	
15	0	0	0	0	489	413	0	377	0	0	
0	0	0	0	0	502	425	0	386	0	0	
1	0	0	0	0	513	436	0	395	0	0	
2	0	0	0	0	524	446	0	403	0	0	
3	0	0	0	0	531	452	0	408	0	0	
4	0	0	0	0	536	456	0	412	0	0	
5	0	0	0	0	539	458	0	412	0	0	
6	0	0	0	0	539	456	0	411	0	0	
7	0	0	0	0	537	452	0	407	0	0	
8	0	0	0	0	535	448	0	402	0	0	
9	0	0	0	0	531	442	0	396	0	0	
10	0	0	0	0	528	437	0	390	0	0	
11	0	0	0	0	526	432	0	383	0	0	
12	0	0	0	0	524	428	0	378	0	0	
13	0	0	0	0	521	425	0	373	0	0	
14	0	0	0	0	518	422	0	369	0	0	
15	0	0	0	0	514	420	0	367	0	0	
0	0	0	0	0	510	419	0	366	0	0	
1	0	0	0	0	506	418	0	366	0	0	
2	0	0	0	0	502	419	0	367	0	0	
3	0	0	0	0	498	419	0	368	0	0	
4	0	0	0	0	494	420	0	369	0	0	
5	0	0	0	0	490	420	0	370	0	0	
6	0	0	0	0	487	419	0	370	0	0	
7	0	0	0	0	483	418	0	369	0	0	
8	0	0	0	0	480	415	0	367	0	0	
9	0	0	0	0	477	411	0	363	0	0	
10	0	0	0	0	475	405	0	358	0	0	
11	0	0	0	0	473	399	0	353	0	0	
12	0	0	0	0	472	394	0	348	0	0	
13	0	0	0	0	472	389	0	344	0	0	
14	0	0	0	0	475	386	0	341	0	0	
15	0	0	0	0	479	385	0	341	0	0	
0	0	0	0	0	484	386	0	343	0	0	
1	0	0	0	0	491	389	0	348	0	0	
2	0	0	0	0	498	394	0	356	0	0	
3	0	0	0	0	505	402	0	365	0	0	
4	0	0	0	0	513	410	0	376	0	0	
5	0	0	0	0	520	419	0	387	0	0	
6	0	0	0	0	526	428	0	399	0	0	
7	0	0	0	0	530	437	0	409	0	0	
8	0	0	0	0	534	445	0	417	0	0	
9	0	0	0	0	536	452	0	424	0	0	
10	0	0	0	0	538	457	0	428	0	0	
11	0	0	0	0	537	460	0	429	0	0	
12	0	0	0	0	536	460	0	427	0	0	
13	0	0	0	0	532	458	0	422	0	0	
14	0	0	0	0	527	452	0	415	0	0	
15	0	0	0	0	520	445	0	406	0	0	
0	0	0	0	0	512	436	0	396	0	0	
1	0	0	0	0	504	425	0	385	0	0	
2	0	0	0	0	496	415	0	375	0	0	
3	0	0	0	0	488	405	0	367	0	0	
4	0	0	0	0	482	397	0	360	0	0	
5	0	0	0	0	478	391	0	356	0	0	
6	0	0	0	0	476	388	0	355	0	0	
7	0	0	0	0	477	388	0	356	0	0	
8	0	0	0	0	480	391	0	361	0	0	
9	0	0	0	0	485	397	0	366	0	0	
10	0	0	0	0	491	403	0	373	0	0	
11	0	0	0	0	498	412	0	380	0	0	
12	0	0	0	0	505	420	0	387	0	0	
13	0	0	0	0	512	429	0	393	0	0	
14	0	0	0	0	519	436	0	399	0	0	
15	0	0	0	0	524	443	0	402	0	0	
0	0	0	0	0	528	448	0	404	0	0	
1	0	0	0	0	532	451	0	405	0	0	
2	0	0	0	0	534	452	0	405	0	0	
3	0	0	0	0	535	451	0	402	0	0	
4	0	0	0	0	534	448	0	399	0	0	
5	0	0	0	0	531	443	0	393	0	0	
6	0	0	0	0	527	435	0	387	0	0	
7	0	0	0	0	521	427	0	382	0	0	
8	0	0	0	0	515	419	0	376	0	0	
9	0	0	0	0	508	411	0	371	0	0	
10	0	0	0	0	502	405	0	368	0	0	
11	0	0	0	0	497	400	0	366	0	0	
12	0	0	0	0	494	398	0	367	0	0	
13	0	0	0	0	491	397	0	369	0	0	
14	0	0	0	0	489	398	0	373	0	0	
15	0	0	0	0	488	401	0	378	0	0	
0	0	0	0	0	489	404	0	384	0	0	
1	0	0	0	0	489	408	0	389	0	0	
2	0	0	0	0	491	412	0	394	0	0	
3	0	0	0	0	493	417	0	398	0	0	
4	0	0	0	0	496	420	0	401	0	0	
5	0	0	0	0	500	423	0	402	0	0	
6	0	0	0	0	505	425	0	403	0	0	
7	0	0	0	0	511	428	0	402	0	0	
8	0	0	0	0	518	430	0	401	0	0	
9	0	0	0	0	526	433	0	400	0	0	
10	0	0	0	0	535	437	0	399	0	0	
11	0	0	0	0	544	441	0	399	0	0	
12	0	0	0	0	553	446	0	400	0	0	
13	0	0	0	0	561	451	0	401	0	0	
14	0	0	0	0	568	456	0	404	0	0	
15	0	0	0	0	574	462	0	408	0	0	
0	0	0	0	0	577	467	0	412	0	0	
1	0	0	0	0	578	471	0	417	0	0	
2	0	0	0	0	576	474	0	422	0	0	
3	0	0	0	0	572	476	0	425	0	0	
4	0	0	0	0	566	475	0	428	0	0	
5	0	0	0	0	558	473	0	430	0	0	
6	0	0	0	0	549	470	0	430	0	0	
7	0	0	0	0	539	465	0	430	0	0	
8	0	0	0	0	529	460	0	428	0	0	
9	0	0	0	0	521	454	0	424	0	0	
10	0	0	0	0	514	448	0	421	0	0	
11	0	0	0	0	509	441	0	416	0	0	
12	0	0	0	0	505	436	0	411	0	0	
13	0	0	0	0	504	431	0	406	0	0	
14	0	0	0	0	503	427	0	401	0	0	
15	0	0	0	0	504	423	0	396	0	0	
0	0	0	0	0	504	419	0	392	0	0	
1	0	0	0	0	505	416	0	389	0	0	
2	0	0	0	0	504	415	0	387	0	0	
3	0	0	0	0	504	413	0	386	0	0	
4	0	0	0	0	503	413	0	387	0	0	
5	0	0	0	0	503	414	0	389	0	0	
6	0	0	0	0	503	416	0	391	0	0	
7	0	0	0	0	503	421	0	395	0	0	
8	0	0	0	0	505	427	0	400	0	0	
9	0	0	0	0	508	433	0	404	0	0	
10	0	0	0	0	512	439	0	409	0	0	
11	0	0	0	0	516	445	0	412	0	0	
12	0	0	0	0	519	449	0	413	0	0	
13	0	0	0	0	523	452	0	413	0	0	
14	0	0	0	0	525	452	0	411	0	0	
15	0	0	0	0	526	450	0	408	0	0	
0	0	0	0	0	526	447	0	403	0	0	
1	0	0	0	0	524	442	0	398	0	0	
2	0	0	0	0	524	438	0	393	0	0	
3	0	0	0	0	524	435	0	389	0	0	
4	0	0	0	0	525	433	0	387	0	0	
5	0	0	0	0	527	433	0	386	0	0	
6	0	0	0	0	531	436	0	387	0	0	
7	0	0	0	0	536	441	0	391	0	0	
8	0	0	0	0	542	449	0	396	0	0	
9	0	0	0	0	548	458	0	403	0	0	
10	0	0	0	0	555	467	0	411	0	0	
11	0	0	0	0	559	475	0	417	0	0	
12	0	0	0	0	561	481	0	423	0	0	
13	0	0	0	0	562	485	0	426	0	0	
14	0	0	0	0	560	487	0	428	0	0	
15	0	0	0	0	556	484	0	428	0	0	
0	0	0	0	0	549	479	0	424	0	0	
1	0	0	0	0	540	471	0	419	0	0	
2	0	0	0	0	530	460	0	413	0	0	
3	0	0	0	0	519	448	0	406	0	0	
4	0	0	0	0	508	435	0	398	0	0	
5	0	0	0	0	498	422	0	390	0	0	
6	0	0	0	0	488	410	0	383	0	0	
7	0	0	0	0	480	399	0	376	0	0	
8	0	0	0	0	473	390	0	372	0	0	
9	0	0	0	0	470	385	0	370	0	0	
10	0	0	0	0	470	383	0	370	0	0	
11	0	0	0	0	472	385	0	372	0	0	
12	0	0	0	0	478	390	0	376	0	0	
13	0	0	0	0	485	398	0	382	0	0	
14	0	0	0	0	494	408	0	389	0	0	
15	0	0	0	0	502	419	0	396	0	0	
0	0	0	0	0	511	430	0	403	0	0	
1	0	0	0	0	518	440	0	408	0	0	
2	0	0	0	0	525	449	0	413	0	0	
3	0	0	0	0	529	456	0	416	0	0	
4	0	0	0	0	532	461	0	417	0	0	
5	0	0	0	0	534	463	0	416	0	0	
6	0	0	0	0	533	463	0	414	0	0	
7	0	0	0	0	531	460	0	409	0	0	
8	0	0	0	0	527	455	0	404	0	0	
9	0	0	0	0	524	449	0	398	0	0	
10	0	0	0	0	519	442	0	392	0	0	
11	0	0	0	0	516	436	0	387	0	0	
12	0	0	0	0	514	431	0	383	0	0	
13	0	0	0	0	513	427	0	380	0	0	
14	0	0	0	0	515	427	0	380	0	0	
15	0	0	0	0	518	429	0	381	0	0	
0	0	0	0	0	523	434	0	385	0	0	
1	0	0	0	0	530	442	0	390	0	0	
2	0	0	0	0	538	451	0	398	0	0	
3	0	0	0	0	547	462	0	405	0	0	
4	0	0	0	0	556	474	0	413	0	0	
5	0	0	0	0	564	485	0	421	0	0	
6	0	0	0	0	572	494	0	428	0	0	
7	0	0	0	0	577	502	0	432	0	0	
8	0	0	0	0	581	506	0	435	0	0	
9	0	0	0	0	582	507	0	435	0	0	
10	0	0	0	0	579	504	0	432	0	0	
11	0	0	0	0	572	497	0	426	0	0	
12	0	0	0	0	561	485	0	418	0	0	
13	0	0	0	0	545	468	0	408	0	0	
14	0	0	0	0	526	451	0	397	0	0	
15	0	0	0	0	506	431	0	386	0	0	
0	0	0	0	0	486	412	0	376	0	0	
1	0	0	0	0	468	397	0	368	0	0	
2	0	0	0	0	454	384	0	364	0	0	
3	0	0	0	0	445	378	0	361	0	0	
4	0	0	0	0	441	376	0	363	0	0	
5	0	0	0	0	443	380	0	367	0	0	
6	0	0	0	0	450	387	0	373	0	0	
7	0	0	0	0	461	399	0	381	0	0	
8	0	0	0	0	476	412	0	389	0	0	
9	0	0	0	0	492	427	0	398	0	0	
10	0	0	0	0	509	441	0	406	0	0	
11	0	0	0	0	525	454	0	412	0	0	
12	0	0	0	0	540	464	0	415	0	0	
13	0	0	0	0	552	472	0	417	0	0	
14	0	0	0	0	561	476	0	417	0	0	
15	0	0	0	0	568	478	0	415	0	0	
0	0	0	0	0	571	478	0	411	0	0	
1	0	0	0	0	572	476	0	406	0	0	
2	0	0	0	0	571	473	0	400	0	0	
3	0	0	0	0	568	469	0	395	0	0	
4	0	0	0	0	563	465	0	391	0	0	
5	0	0	0	0	559	462	0	387	0	0	
6	0	0	0	0	553	459	0	385	0	0	
7	0	0	0	0	546	457	0	384	0	0	
8	0	0	0	0	538	454	0	384	0	0	
9	0	0	0	0	527	449	0	383	0	0	
10	0	0	0	0	515	443	0	383	0	0	
11	0	0	0	0	503	436	0	383	0	0	
12	0	0	0	0	491	429	0	383	0	0	
13	0	0	0	0	479	422	0	384	0	0	
14	0	0	0	0	471	415	0	384	0	0	
15	0	0	0	0	464	410	0	385	0	0	
0	0	0	0	0	461	406	0	386	0	0	
1	0	0	0	0	462	403	0	387	0	0	
2	0	0	0	0	467	403	0	387	0	0	
3	0	0	0	0	474	404	0	388	0	0	
4	0	0	0	0	484	406	0	389	0	0	
5	0	0	0	0	495	409	0	390	0	0	
6	0	0	0	0	507	414	0	389	0	0	
7	0	0	0	0	519	419	0	389	0	0	
8	0	0	0	0	530	425	0	388	0	0	
9	0	0	0	0	539	430	0	388	0	0	
10	0	0	0	0	544	434	0	387	0	0	
11	0	0	0	0	546	438	0	386	0	0	
12	0	0	0	0	545	440	0	385	0	0	
13	0	0	0	0	542	440	0	384	0	0	
14	0	0	0	0	536	441	0	385	0	0	
15	0	0	0	0	531	443	0	386	0	0	
0	0	0	0	0	527	444	0	387	0	0	
1	0	0	0	0	522	445	0	388	0	0	
2	0	0	0	0	518	446	0	389	0	0	
3	0	0	0	0	515	445	0	390	0	0	
4	0	0	0	0	512	444	0	390	0	0	
5	0	0	0	0	511	441	0	388	0	0	
6	0	0	0	0	510	439	0	387	0	0	
7	0	0	0	0	509	435	0	385	0	0	
8	0	0	0	0	510	432	0	383	0	0	
9	0	0	0	0	510	429	0	380	0	0	
10	0	0	0	0	513	426	0	379	0	0	
11	0	0	0	0	515	425	0	378	0	0	
12	0	0	0	0	519	425	0	377	0	0	
13	0	0	0	0	522	426	0	379	0	0	
14	0	0	0	0	526	429	0	381	0	0	
15	0	0	0	0	530	433	0	384	0	0	
0	0	0	0	0	535	440	0	388	0	0	
1	0	0	0	0	540	446	0	393	0	0	
2	0	0	0	0	545	454	0	399	0	0	
3	0	0	0	0	549	460	0	403	0	0	
4	0	0	0	0	552	467	0	408	0	0	
5	0	0	0	0	554	471	0	410	0	0	
6	0	0	0	0	553	472	0	410	0	0	
7	0	0	0	0	550	471	0	409	0	0	
8	0	0	0	0	544	466	0	405	0	0	
9	0	0	0	0	537	459	0	399	0	0	
10	0	0	0	0	528	450	0	391	0	0	
11	0	0	0	0	518	438	0	383	0	0	
12	0	0	0	0	507	426	0	374	0	0	
13	0	0	0	0	497	414	0	365	0	0	
14	0	0	0	0	488	403	0	357	0	0	
15	0	0	0	0	481	393	0	351	0	0	
0	0	0	0	0	476	387	0	347	0	0	
1	0	0	0	0	475	384	0	345	0	0	
2	0	0	0	0	476	384	0	347	0	0	
3	0	0	0	0	481	389	0	350	0	0	
4	0	0	0	0	488	396	0	355	0	0	
5	0	0	0	0	497	406	0	361	0	0	
6	0	0	0	0	507	417	0	369	0	0	
7	0	0	0	0	517	428	0	377	0	0	
8	0	0	0	0	528	440	0	385	0	0	
9	0	0	0	0	538	451	0	391	0	0	
10	0	0	0	0	547	462	0	399	0	0	
11	0	0	0	0	555	470	0	404	0	0	
12	0	0	0	0	563	477	0	408	0	0	
13	0	0	0	0	569	482	0	411	0	0	
14	0	0	0	0	575	486	0	413	0	0	
15	0	0	0	0	580	488	0	414	0	0	
0	0	0	0	0	584	489	0	413	0	0	
1	0	0	0	0	587	487	0	412	0	0	
2	0	0	0	0	587	485	0	409	0	0	
3	0	0	0	0	584	480	0	406	0	0	
4	0	0	0	0	579	474	0	401	0	0	
5	0	0	0	0	571	466	0	397	0	0	
6	0	0	0	0	560	457	0	391	0	0	
7	0	0	0	0	549	450	0	387	0	0	
8	0	0	0	0	537	442	0	383	0	0	
9	0	0	0	0	526	436	0	379	0	0	
10	0	0	0	0	515	430	0	377	0	0	
11	0	0	0	0	507	427	0	375	0	0	
12	0	0	0	0	501	425	0	374	0	0	
13	0	0	0	0	497	423	0	374	0	0	
14	0	0	0	0	496	424	0	374	0	0	
15	0	0	0	0	496	424	0	374	0	0	
0	0	0	0	0	497	424	0	374	0	0	
1	0	0	0	0	501	424	0	374	0	0	
2	0	0	0	0	505	425	0	375	0	0	
3	0	0	0	0	511	425	0	375	0	0	
4	0	0	0	0	518	426	0	375	0	0	
5	0	0	0	0	526	427	0	375	0	0	
6	0	0	0	0	536	430	0	376	0	0	
7	0	0	0	0	545	434	0	378	0	0	
8	0	0	0	0	554	438	0	380	0	0	
9	0	0	0	0	562	442	0	382	0	0	
10	0	0	0	0	568	446	0	384	0	0	
11	0	0	0	0	572	450	0	387	0	0	
12	0	0	0	0	573	453	0	389	0	0	
13	0	0	0	0	571	454	0	391	0	0	
14	0	0	0	0	566	453	0	392	0	0	
15	0	0	0	0	558	452	0	392	0	0	
0	0	0	0	0	550	449	0	391	0	0	
1	0	0	0	0	539	445	0	390	0	0	
2	0	0	0	0	527	440	0	388	0	0	
3	0	0	0	0	516	433	0	384	0	0	
4	0	0	0	0	505	424	0	380	0	0	
5	0	0	0	0	494	415	0	374	0	0	
6	0	0	0	0	484	406	0	367	0	0	
7	0	0	0	0	476	396	0	360	0	0	
8	0	0	0	0	470	387	0	354	0	0	
9	0	0	0	0	466	380	0	348	0	0	
10	0	0	0	0	464	374	0	342	0	0	
11	0	0	0	0	466	371	0	338	0	0	
12	0	0	0	0	469	369	0	335	0	0	
13	0	0	0	0	475	370	0	335	0	0	
14	0	0	0	0	482	374	0	335	0	0	
15	0	0	0	0	491	380	0	339	0	0	
0	0	0	0	0	500	387	0	343	0	0	
1	0	0	0	0	510	398	0	349	0	0	
2	0	0	0	0	520	408	0	355	0	0	
3	0	0	0	0	530	418	0	362	0	0	
4	0	0	0	0	539	429	0	368	0	0	
5	0	0	0	0	546	439	0	374	0	0	
6	0	0	0	0	552	447	0	379	0	0	
7	0	0	0	0	557	453	0	382	0	0	
8	0	0	0	0	559	456	0	383	0	0	
9	0	0	0	0	558	457	0	381	0	0	
10	0	0	0	0	554	454	0	378	0	0	
11	0	0	0	0	548	448	0	372	0	0	
12	0	0	0	0	539	438	0	365	0	0	
13	0	0	0	0	527	427	0	357	0	0	
14	0	0	0	0	515	414	0	347	0	0	
15	0	0	0	0	502	401	0	339	0	0	
0	0	0	0	0	489	388	0	330	0	0	
1	0	0	0	0	477	377	0	322	0	0	
2	0	0	0	0	468	368	0	318	0	0	
3	0	0	0	0	461	362	0	315	0	0	
4	0	0	0	0	457	359	0	316	0	0	
5	0	0	0	0	457	361	0	319	0	0	
6	0	0	0	0	460	365	0	326	0	0	
7	0	0	0	0	465	372	0	334	0	0	
8	0	0	0	0	474	382	0	343	0	0	
9	0	0	0	0	485	394	0	353	0	0	
10	0	0	0	0	497	406	0	364	0	0	
11	0	0	0	0	510	417	0	374	0	0	
12	0	0	0	0	521	427	0	381	0	0	
13	0	0	0	0	532	435	0	387	0	0	
14	0	0	0	0	540	440	0	391	0	0	
15	0	0	0	0	547	443	0	392	0	0	
0	0	0	0	0	550	442	0	391	0	0	
1	0	0	0	0	551	441	0	388	0	0	
2	0	0	0	0	551	438	0	384	0	0	
3	0	0	0	0	549	433	0	379	0	0	
4	0	0	0	0	546	430	0	375	0	0	
5	0	0	0	0	543	428	0	371	0	0	
6	0	0	0	0	541	427	0	368	0	0	
7	0	0	0	0	540	428	0	367	0	0	
8	0	0	0	0	541	432	0	368	0	0	
9	0	0	0	0	542	437	0	370	0	0	
10	0	0	0	0	544	442	0	373	0	0	
11	0	0	0	0	545	447	0	376	0	0	
12	0	0	0	0	547	451	0	380	0	0	
13	0	0	0	0	547	454	0	383	0	0	
14	0	0	0	0	547	455	0	385	0	0	
15	0	0	0	0	546	453	0	385	0	0	
0	0	0	0	0	543	449	0	384	0	0	
1	0	0	0	0	539	443	0	382	0	0	
2	0	0	0	0	533	435	0	379	0	0	
3	0	0	0	0	527	425	0	374	0	0	
4	0	0	0	0	519	414	0	367	0	0	
5	0	0	0	0	511	403	0	360	0	0	
6	0	0	0	0	504	391	0	352	0	0	
7	0	0	0	0	496	382	0	345	0	0	
8	0	0	0	0	490	374	0	339	0	0	
9	0	0	0	0	485	368	0	335	0	0	
10	0	0	0	0	483	365	0	332	0	0	
11	0	0	0	0	483	366	0	332	0	0	
12	0	0	0	0	486	370	0	335	0	0	
13	0	0	0	0	491	376	0	339	0	0	
14	0	0	0	0	497	385	0	345	0	0	
15	0	0	0	0	505	395	0	352	0	0	
0	0	0	0	0	513	404	0	359	0	0	
1	0	0	0	0	521	414	0	365	0	0	
2	0	0	0	0	527	421	0	370	0	0	
3	0	0	0	0	532	425	0	374	0	0	
4	0	0	0	0	534	428	0	375	0	0	
5	0	0	0	0	535	428	0	375	0	0	
6	0	0	0	0	534	425	0	373	0	0	
7	0	0	0	0	532	421	0	369	0	0	
8	0	0	0	0	529	415	0	364	0	0	
9	0	0	0	0	526	409	0	359	0	0	
10	0	0	0	0	521	403	0	354	0	0	
11	0	0	0	0	516	395	0	348	0	0	
12	0	0	0	0	510	388	0	344	0	0	
13	0	0	0	0	504	381	0	339	0	0	
14	0	0	0	0	498	375	0	334	0	0	
15	0	0	0	0	492	369	0	331	0	0	
0	0	0	0	0	485	365	0	327	0	0	
1	0	0	0	0	479	362	0	325	0	0	
2	0	0	0	0	472	359	0	323	0	0	
3	0	0	0	0	465	355	0	319	0	0	
4	0	0	0	0	457	352	0	316	0	0	
5	0	0	0	0	448	347	0	312	0	0	
6	0	0	0	0	437	340	0	305	0	0	
7	0	0	0	0	425	332	0	297	0	0	
8	0	0	0	0	412	319	0	287	0	0	
9	0	0	0	0	396	306	0	275	0	0	
10	0	0	0	0	380	289	0	261	0	0	
11	0	0	0	0	364	272	0	246	0	0	
12	0	0	0	0	348	253	0	229	0	0	
13	0	0	0	0	333	235	0	212	0	0	
14	0	0	0	0	320	217	0	195	0	0	
15	0	0	0	0	310	203	0	179	0	0	
0	0	0	0	0	302	190	0	164	0	0	
1	0	0	0	0	297	180	0	152	0	0	
2	0	0	0	0	295	175	0	141	0	0	
3	0	0	0	0	297	173	0	134	0	0	
4	0	0	0	0	301	176	0	131	0	0	
5	0	0	0	0	308	183	0	131	0	0	
6	0	0	0	0	318	192	0	135	0	0	
7	0	0	0	0	328	204	0	143	0	0	
8	0	0	0	0	341	217	0	154	0	0	
9	0	0	0	0	354	232	0	168	0	0	
10	0	0	0	0	367	248	0	184	0	0	
11	0	0	0	0	381	263	0	203	0	0	
12	0	0	0	0	394	277	0	222	0	0	
13	0	0	0	0	408	291	0	241	0	0	
14	0	0	0	0	421	304	0	261	0	0	
15	0	0	0	0	434	317	0	280	0	0	
0	0	0	0	0	446	327	0	297	0	0	
1	0	0	0	0	456	338	0	312	0	0	
2	0	0	0	0	466	347	0	325	0	0	
3	0	0	0	0	475	354	0	336	0	0	
4	0	0	0	0	483	361	0	344	0	0	
5	0	0	0	0	489	368	0	351	0	0	
6	0	0	0	0	495	376	0	357	0	0	
7	0	0	0	0	501	384	0	361	0	0	
8	0	0	0	0	506	392	0	366	0	0	
9	0	0	0	0	511	401	0	369	0	0	
10	0	0	0	0	516	410	0	372	0	0	
11	0	0	0	0	522	420	0	375	0	0	
12	0	0	0	0	528	430	0	379	0	0	
13	0	0	0	0	533	438	0	382	0	0	
14	0	0	0	0	537	443	0	384	0	0	
15	0	0	0	0	539	446	0	385	0	0	
0	0	0	0	0	537	444	0	384	0	0	
1	0	0	0	0	534	439	0	382	0	0	
2	0	0	0	0	527	432	0	380	0	0	
3	0	0	0	0	519	421	0	376	0	0	
4	0	0	0	0	510	409	0	371	0	0	
5	0	0	0	0	500	397	0	367	0	0	
6	0	0	0	0	492	386	0	362	0	0	
7	0	0	0	0	484	377	0	359	0	0	
8	0	0	0	0	479	371	0	356	0	0	
9	0	0	0	0	476	367	0	355	0	0	
10	0	0	0	0	476	368	0	355	0	0	
11	0	0	0	0	480	373	0	358	0	0	
12	0	0	0	0	487	381	0	364	0	0	
13	0	0	0	0	498	393	0	371	0	0	
14	0	0	0	0	510	407	0	379	0	0	
15	0	0	0	0	524	422	0	388	0	0	
0	0	0	0	0	537	435	0	396	0	0	
1	0	0	0	0	548	448	0	403	0	0	
2	0	0	0	0	556	456	0	408	0	0	
3	0	0	0	0	562	463	0	411	0	0	
4	0	0	0	0	564	464	0	412	0	0	
5	0	0	0	0	563	463	0	409	0	0	
6	0	0	0	0	558	457	0	404	0	0	
7	0	0	0	0	552	451	0	399	0	0	
8	0	0	0	0	544	442	0	391	0	0	
9	0	0	0	0	536	433	0	384	0	0	
10	0	0	0	0	529	425	0	376	0	0	
11	0	0	0	0	524	417	0	370	0	0	
12	0	0	0	0	519	412	0	366	0	0	
13	0	0	0	0	517	409	0	363	0	0	
14	0	0	0	0	516	408	0	362	0	0	
15	0	0	0	0	517	410	0	364	0	0	
0	0	0	0	0	519	413	0	367	0	0	
1	0	0	0	0	521	418	0	372	0	0	
2	0	0	0	0	524	423	0	377	0	0	
3	0	0	0	0	527	428	0	383	0	0	
4	0	0	0	0	529	433	0	388	0	0	
5	0	0	0	0	529	436	0	392	0	0	
6	0	0	0	0	528	437	0	395	0	0	
7	0	0	0	0	526	436	0	396	0	0	
8	0	0	0	0	524	434	0	396	0	0	
9	0	0	0	0	523	431	0	394	0	0	
10	0	0	0	0	522	429	0	391	0	0	
11	0	0	0	0	523	426	0	389	0	0	
12	0	0	0	0	525	424	0	385	0	0	
13	0	0	0	0	529	423	0	382	0	0	
14	0	0	0	0	535	424	0	379	0	0	
15	0	0	0	0	542	426	0	377	0	0	
0	0	0	0	0	549	429	0	376	0	0	
1	0	0	0	0	556	432	0	376	0	0	
2	0	0	0	0	562	437	0	378	0	0	
3	0	0	0	0	567	442	0	380	0	0	
4	0	0	0	0	570	446	0	384	0	0	
5	0	0	0	0	569	449	0	387	0	0	
6	0	0	0	0	566	450	0	391	0	0	
7	0	0	0	0	560	451	0	395	0	0	
8	0	0	0	0	553	450	0	397	0	0	
9	0	0	0	0	545	448	0	399	0	0	
10	0	0	0	0	537	446	0	400	0	0	
11	0	0	0	0	530	444	0	400	0	0	
12	0	0	0	0	524	440	0	399	0	0	
13	0	0	0	0	519	435	0	396	0	0	
14	0	0	0	0	515	430	0	392	0	0	
15	0	0	0	0	512	424	0	387	0	0	
0	0	0	0	0	510	419	0	382	0	0	
1	0	0	0	0	510	413	0	376	0	0	
2	0	0	0	0	512	409	0	371	0	0	
3	0	0	0	0	516	406	0	367	0	0	
4	0	0	0	0	521	406	0	364	0	0	
5	0	0	0	0	527	407	0	364	0	0	
6	0	0	0	0	532	408	0	364	0	0	
7	0	0	0	0	536	411	0	365	0	0	
8	0	0	0	0	539	414	0	368	0	0	
9	0	0	0	0	538	416	0	371	0	0	
10	0	0	0	0	535	416	0	373	0	0	
11	0	0	0	0	529	416	0	375	0	0	
12	0	0	0	0	521	415	0	376	0	0	
13	0	0	0	0	513	412	0	377	0	0	
14	0	0	0	0	504	408	0	376	0	0	
15	0	0	0	0	495	404	0	375	0	0	
0	0	0	0	0	488	400	0	372	0	0	
1	0	0	0	0	483	396	0	368	0	0	
2	0	0	0	0	479	392	0	364	0	0	
3	0	0	0	0	478	389	0	359	0	0	
4	0	0	0	0	478	385	0	355	0	0	
5	0	0	0	0	480	383	0	350	0	0	
6	0	0	0	0	485	383	0	347	0	0	
7	0	0	0	0	491	383	0	345	0	0	
8	0	0	0	0	497	385	0	344	0	0	
9	0	0	0	0	505	388	0	346	0	0	
10	0	0	0	0	512	393	0	349	0	0	
11	0	0	0	0	519	399	0	353	0	0	
12	0	0	0	0	525	405	0	359	0	0	
13	0	0	0	0	529	412	0	366	0	0	
14	0	0	0	0	531	416	0	371	0	0	
15	0	0	0	0	530	419	0	377	0	0	
0	0	0	0	0	527	422	0	381	0	0	
1	0	0	0	0	524	423	0	384	0	0	
2	0	0	0	0	519	422	0	385	0	0	
3	0	0	0	0	515	420	0	384	0	0	
4	0	0	0	0	510	417	0	382	0	0	
5	0	0	0	0	506	414	0	377	0	0	
6	0	0	0	0	503	410	0	372	0	0	
7	0	0	0	0	501	405	0	366	0	0	
8	0	0	0	0	500	401	0	359	0	0	
9	0	0	0	0	499	396	0	352	0	0	
10	0	0	0	0	499	391	0	346	0	0	
11	0	0	0	0	499	387	0	341	0	0	
12	0	0	0	0	500	383	0	337	0	0	
13	0	0	0	0	501	381	0	334	0	0	
14	0	0	0	0	503	380	0	334	0	0	
15	0	0	0	0	506	383	0	335	0	0	
0	0	0	0	0	509	387	0	339	0	0	
1	0	0	0	0	513	392	0	344	0	0	
2	0	0	0	0	518	400	0	350	0	0	
3	0	0	0	0	524	408	0	357	0	0	
4	0	0	0	0	529	417	0	364	0	0	
5	0	0	0	0	534	425	0	370	0	0	
6	0	0	0	0	538	432	0	375	0	0	
7	0	0	0	0	540	435	0	378	0	0	
8	0	0	0	0	539	436	0	378	0	0	
9	0	0	0	0	535	432	0	375	0	0	
10	0	0	0	0	529	425	0	370	0	0	
11	0	0	0	0	519	414	0	363	0	0	
12	0	0	0	0	509	401	0	355	0	0	
13	0	0	0	0	497	388	0	345	0	0	
14	0	0	0	0	487	374	0	337	0	0	
15	0	0	0	0	477	362	0	330	0	0	
0	0	0	0	0	469	353	0	326	0	0	
1	0	0	0	0	464	347	0	323	0	0	
2	0	0	0	0	462	344	0	324	0	0	
3	0	0	0	0	463	345	0	327	0	0	
4	0	0	0	0	467	350	0	332	0	0	
5	0	0	0	0	473	358	0	340	0	0	
6	0	0	0	0	481	368	0	349	0	0	
7	0	0	0	0	490	379	0	359	0	0	
8	0	0	0	0	501	391	0	369	0	0	
9	0	0	0	0	511	403	0	378	0	0	
10	0	0	0	0	521	415	0	386	0	0	
11	0	0	0	0	531	424	0	391	0	0	
12	0	0	0	0	538	432	0	396	0	0	
13	0	0	0	0	543	436	0	397	0	0	
14	0	0	0	0	547	438	0	397	0	0	
15	0	0	0	0	547	437	0	393	0	0	
0	0	0	0	0	546	433	0	389	0	0	
1	0	0	0	0	543	428	0	384	0	0	
2	0	0	0	0	540	423	0	377	0	0	
3	0	0	0	0	536	417	0	371	0	0	
4	0	0	0	0	531	412	0	365	0	0	
5	0	0	0	0	527	407	0	360	0	0	
6	0	0	0	0	523	404	0	357	0	0	
7	0	0	0	0	521	403	0	354	0	0	
8	0	0	0	0	520	404	0	354	0	0	
9	0	0	0	0	521	407	0	355	0	0	
10	0	0	0	0	523	411	0	358	0	0	
11	0	0	0	0	526	417	0	360	0	0	
12	0	0	0	0	531	423	0	363	0	0	
13	0	0	0	0	535	429	0	367	0	0	
14	0	0	0	0	540	434	0	370	0	0	
15	0	0	0	0	545	439	0	372	0	0	
0	0	0	0	0	550	442	0	374	0	0	
1	0	0	0	0	554	444	0	375	0	0	
2	0	0	0	0	557	444	0	374	0	0	
3	0	0	0	0	558	440	0	371	0	0	
4	0	0	0	0	556	435	0	368	0	0	
5	0	0	0	0	552	428	0	363	0	0	
6	0	0	0	0	545	419	0	356	0	0	
7	0	0	0	0	536	409	0	350	0	0	
8	0	0	0	0	525	398	0	344	0	0	
9	0	0	0	0	512	387	0	339	0	0	
10	0	0	0	0	499	376	0	335	0	0	
11	0	0	0	0	487	369	0	333	0	0	
12	0	0	0	0	477	364	0	332	0	0	
13	0	0	0	0	469	361	0	334	0	0	
14	0	0	0	0	464	360	0	337	0	0	
15	0	0	0	0	461	361	0	340	0	0	
0	0	0	0	0	460	364	0	344	0	0	
1	0	0	0	0	460	367	0	348	0	0	
2	0	0	0	0	461	369	0	351	0	0	
3	0	0	0	0	463	371	0	353	0	0	
4	0	0	0	0	464	371	0	353	0	0	
5	0	0	0	0	467	371	0	353	0	0	
6	0	0	0	0	468	369	0	351	0	0	
7	0	0	0	0	470	366	0	347	0	0	
8	0	0	0	0	472	364	0	344	0	0	
9	0	0	0	0	476	362	0	340	0	0	
10	0	0	0	0	481	363	0	338	0	0	
11	0	0	0	0	488	365	0	337	0	0	
12	0	0	0	0	496	369	0	336	0	0	
13	0	0	0	0	504	375	0	338	0	0	
14	0	0	0	0	511	382	0	341	0	0	
15	0	0	0	0	520	391	0	345	0	0	
0	0	0	0	0	528	400	0	352	0	0	
1	0	0	0	0	536	412	0	359	0	0	
2	0	0	0	0	543	422	0	366	0	0	
3	0	0	0	0	548	431	0	373	0	0	
4	0	0	0	0	552	439	0	379	0	0	
5	0	0	0	0	553	444	0	383	0	0	
6	0	0	0	0	551	445	0	385	0	0	
7	0	0	0	0	546	443	0	385	0	0	
8	0	0	0	0	538	437	0	382	0	0	
9	0	0	0	0	528	428	0	377	0	0	
10	0	0	0	0	516	416	0	370	0	0	
11	0	0	0	0	504	403	0	361	0	0	
12	0	0	0	0	491	389	0	351	0	0	
13	0	0	0	0	479	375	0	342	0	0	
14	0	0	0	0	469	363	0	332	0	0	
15	0	0	0	0	461	353	0	325	0	0	
0	0	0	0	0	456	346	0	320	0	0	
1	0	0	0	0	453	342	0	317	0	0	
2	0	0	0	0	454	341	0	316	0	0	
3	0	0	0	0	457	344	0	319	0	0	
4	0	0	0	0	462	351	0	325	0	0	
5	0	0	0	0	470	360	0	333	0	0	
6	0	0	0	0	479	371	0	343	0	0	
7	0	0	0	0	488	383	0	352	0	0	
8	0	0	0	0	496	393	0	361	0	0	
9	0	0	0	0	504	402	0	368	0	0	
10	0	0	0	0	508	409	0	374	0	0	
11	0	0	0	0	510	412	0	376	0	0	
12	0	0	0	0	509	412	0	377	0	0	
13	0	0	0	0	508	410	0	375	0	0	
14	0	0	0	0	505	407	0	371	0	0	
15	0	0	0	0	502	401	0	367	0	0	
0	0	0	0	0	500	397	0	363	0	0	
1	0	0	0	0	499	393	0	359	0	0	
2	0	0	0	0	500	391	0	357	0	0	
3	0	0	0	0	503	390	0	357	0	0	
4	0	0	0	0	508	392	0	358	0	0	
5	0	0	0	0	514	396	0	360	0	0	
6	0	0	0	0	523	403	0	365	0	0	
7	0	0	0	0	534	413	0	371	0	0	
8	0	0	0	0	545	424	0	378	0	0	
9	0	0	0	0	558	438	0	386	0	0	
10	0	0	0	0	569	450	0	393	0	0	
11	0	0	0	0	578	461	0	399	0	0	
12	0	0	0	0	583	468	0	403	0	0	
13	0	0	0	0	585	472	0	405	0	0	
14	0	0	0	0	581	471	0	404	0	0	
15	0	0	0	0	572	464	0	400	0	0	
0	0	0	0	0	557	452	0	393	0	0	
1	0	0	0	0	539	436	0	384	0	0	
2	0	0	0	0	518	417	0	373	0	0	
3	0	0	0	0	497	397	0	362	0	0	
4	0	0	0	0	478	378	0	351	0	0	
5	0	0	0	0	462	361	0	341	0	0	
6	0	0	0	0	451	348	0	333	0	0	
7	0	0	0	0	444	340	0	327	0	0	
8	0	0	0	0	443	335	0	325	0	0	
9	0	0	0	0	446	336	0	326	0	0	
10	0	0	0	0	454	341	0	328	0	0	
11	0	0	0	0	465	351	0	334	0	0	
12	0	0	0	0	479	363	0	342	0	0	
13	0	0	0	0	494	377	0	351	0	0	
14	0	0	0	0	508	391	0	360	0	0	
15	0	0	0	0	521	405	0	369	0	0	
0	0	0	0	0	532	419	0	377	0	0	
1	0	0	0	0	542	430	0	384	0	0	
2	0	0	0	0	549	440	0	390	0	0	
3	0	0	0	0	554	446	0	393	0	0	
4	0	0	0	0	556	449	0	394	0	0	
5	0	0	0	0	556	450	0	392	0	0	
6	0	0	0	0	555	448	0	390	0	0	
7	0	0	0	0	552	445	0	385	0	0	
8	0	0	0	0	549	440	0	380	0	0	
9	0	0	0	0	545	435	0	375	0	0	
10	0	0	0	0	543	428	0	369	0	0	
11	0	0	0	0	539	423	0	364	0	0	
12	0	0	0	0	535	416	0	359	0	0	
13	0	0	0	0	529	409	0	355	0	0	
14	0	0	0	0	524	403	0	351	0	0	
15	0	0	0	0	516	397	0	348	0	0	
0	0	0	0	0	509	391	0	348	0	0	
1	0	0	0	0	500	386	0	348	0	0	
2	0	0	0	0	492	382	0	350	0	0	
3	0	0	0	0	485	379	0	352	0	0	
4	0	0	0	0	479	377	0	354	0	0	
5	0	0	0	0	475	377	0	358	0	0	
6	0	0	0	0	472	378	0	360	0	0	
7	0	0	0	0	472	379	0	363	0	0	
8	0	0	0	0	474	381	0	365	0	0	
9	0	0	0	0	477	382	0	366	0	0	
10	0	0	0	0	482	384	0	366	0	0	
11	0	0	0	0	487	384	0	364	0	0	
12	0	0	0	0	492	385	0	362	0	0	
13	0	0	0	0	497	385	0	359	0	0	
14	0	0	0	0	503	385	0	357	0	0	
15	0	0	0	0	508	386	0	355	0	0	
0	0	0	0	0	514	388	0	353	0	0	
1	0	0	0	0	519	391	0	353	0	0	
2	0	0	0	0	525	396	0	353	0	0	
3	0	0	0	0	531	403	0	355	0	0	
4	0	0	0	0	536	411	0	358	0	0	
5	0	0	0	0	543	419	0	360	0	0	
6	0	0	0	0	549	430	0	366	0	0	
7	0	0	0	0	556	440	0	370	0	0	
8	0	0	0	0	563	451	0	374	0	0	
9	0	0	0	0	569	461	0	378	0	0	
10	0	0	0	0	574	468	0	380	0	0	
11	0	0	0	0	577	472	0	382	0	0	
12	0	0	0	0	577	472	0	382	0	0	
13	0	0	0	0	574	469	0	380	0	0	
14	0	0	0	0	568	462	0	377	0	0	
15	0	0	0	0	560	452	0	373	0	0	
0	0	0	0	0	549	439	0	368	0	0	
1	0	0	0	0	535	424	0	363	0	0	
2	0	0	0	0	521	408	0	358	0	0	
3	0	0	0	0	506	392	0	354	0	0	
4	0	0	0	0	492	377	0	351	0	0	
5	0	0	0	0	479	365	0	350	0	0	
6	0	0	0	0	470	357	0	350	0	0	
7	0	0	0	0	463	352	0	352	0	0	
8	0	0	0	0	461	352	0	356	0	0	
9	0	0	0	0	463	356	0	362	0	0	
10	0	0	0	0	467	363	0	369	0	0	
11	0	0	0	0	475	372	0	376	0	0	
12	0	0	0	0	484	382	0	382	0	0	
13	0	0	0	0	493	391	0	387	0	0	
14	0	0	0	0	501	399	0	390	0	0	
15	0	0	0	0	506	405	0	390	0	0	
0	0	0	0	0	509	407	0	388	0	0	
1	0	0	0	0	510	406	0	385	0	0	
2	0	0	0	0	509	403	0	380	0	0	
3	0	0	0	0	508	399	0	374	0	0	
4	0	0	0	0	505	394	0	368	0	0	
5	0	0	0	0	502	389	0	362	0	0	
6	0	0	0	0	500	384	0	357	0	0	
7	0	0	0	0	499	381	0	353	0	0	
8	0	0	0	0	498	379	0	350	0	0	
9	0	0	0	0	499	378	0	350	0	0	
10	0	0	0	0	501	381	0	351	0	0	
11	0	0	0	0	504	385	0	353	0	0	
12	0	0	0	0	508	391	0	356	0	0	
13	0	0	0	0	512	399	0	360	0	0	
14	0	0	0	0	518	407	0	365	0	0	
15	0	0	0	0	523	416	0	369	0	0	
0	0	0	0	0	529	425	0	374	0	0	
1	0	0	0	0	535	434	0	379	0	0	
2	0	0	0	0	541	441	0	382	0	0	
3	0	0	0	0	546	447	0	385	0	0	
4	0	0	0	0	549	451	0	386	0	0	
5	0	0	0	0	552	452	0	386	0	0	
6	0	0	0	0	553	451	0	384	0	0	
7	0	0	0	0	551	447	0	382	0	0	
8	0	0	0	0	548	440	0	378	0	0	
9	0	0	0	0	543	433	0	374	0	0	
10	0	0	0	0	539	423	0	369	0	0	
11	0	0	0	0	532	415	0	365	0	0	
12	0	0	0	0	525	406	0	361	0	0	
13	0	0	0	0	518	397	0	359	0	0	
14	0	0	0	0	510	391	0	356	0	0	
15	0	0	0	0	504	385	0	356	0	0	
0	0	0	0	0	498	383	0	357	0	0	
1	0	0	0	0	493	381	0	359	0	0	
2	0	0	0	0	489	382	0	363	0	0	
3	0	0	0	0	487	384	0	367	0	0	
4	0	0	0	0	487	388	0	372	0	0	
5	0	0	0	0	489	392	0	376	0	0	
6	0	0	0	0	493	398	0	381	0	0	
7	0	0	0	0	497	403	0	384	0	0	
8	0	0	0	0	503	408	0	387	0	0	
9	0	0	0	0	509	412	0	387	0	0	
10	0	0	0	0	515	415	0	387	0	0	
11	0	0	0	0	520	416	0	384	0	0	
12	0	0	0	0	524	415	0	380	0	0	
13	0	0	0	0	525	412	0	376	0	0	
14	0	0	0	0	526	408	0	370	0	0	
15	0	0	0	0	524	404	0	365	0	0	
0	0	0	0	0	521	399	0	360	0	0	
1	0	0	0	0	517	393	0	356	0	0	
2	0	0	0	0	511	389	0	352	0	0	
3	0	0	0	0	506	385	0	351	0	0	
4	0	0	0	0	500	383	0	351	0	0	
5	0	0	0	0	496	382	0	352	0	0	
6	0	0	0	0	493	383	0	355	0	0	
7	0	0	0	0	492	387	0	359	0	0	
8	0	0	0	0	492	391	0	364	0	0	
9	0	0	0	0	494	396	0	369	0	0	
10	0	0	0	0	497	401	0	374	0	0	
11	0	0	0	0	499	404	0	377	0	0	
12	0	0	0	0	501	406	0	378	0	0	
13	0	0	0	0	502	405	0	377	0	0	
14	0	0	0	0	501	402	0	375	0	0	
15	0	0	0	0	499	398	0	371	0	0	
0	0	0	0	0	497	391	0	367	0	0	
1	0	0	0	0	495	385	0	362	0	0	
2	0	0	0	0	493	380	0	358	0	0	
3	0	0	0	0	491	375	0	355	0	0	
4	0	0	0	0	492	373	0	353	0	0	
5	0	0	0	0	493	373	0	353	0	0	
6	0	0	0	0	495	376	0	356	0	0	
7	0	0	0	0	500	381	0	360	0	0	
8	0	0	0	0	504	387	0	366	0	0	
9	0	0	0	0	510	396	0	373	0	0	
10	0	0	0	0	515	404	0	380	0	0	
11	0	0	0	0	519	412	0	387	0	0	
12	0	0	0	0	521	419	0	393	0	0	
13	0	0	0	0	521	424	0	397	0	0	
14	0	0	0	0	520	427	0	400	0	0	
15	0	0	0	0	517	426	0	400	0	0	
0	0	0	0	0	511	423	0	398	0	0	
1	0	0	0	0	505	417	0	393	0	0	
2	0	0	0	0	497	409	0	387	0	0	
3	0	0	0	0	490	400	0	380	0	0	
4	0	0	0	0	483	391	0	373	0	0	
5	0	0	0	0	478	381	0	366	0	0	
6	0	0	0	0	474	373	0	359	0	0	
7	0	0	0	0	472	367	0	354	0	0	
8	0	0	0	0	471	362	0	351	0	0	
9	0	0	0	0	473	361	0	350	0	0	
10	0	0	0	0	478	363	0	351	0	0	
11	0	0	0	0	484	368	0	355	0	0	
12	0	0	0	0	492	377	0	361	0	0	
13	0	0	0	0	501	387	0	369	0	0	
14	0	0	0	0	510	398	0	379	0	0	
15	0	0	0	0	519	410	0	388	0	0	
0	0	0	0	0	527	421	0	396	0	0	
1	0	0	0	0	534	431	0	404	0	0	
2	0	0	0	0	538	438	0	409	0	0	
3	0	0	0	0	540	442	0	413	0	0	
4	0	0	0	0	539	443	0	414	0	0	
5	0	0	0	0	536	441	0	412	0	0	
6	0	0	0	0	532	437	0	408	0	0	
7	0	0	0	0	525	430	0	403	0	0	
8	0	0	0	0	518	421	0	396	0	0	
9	0	0	0	0	509	411	0	387	0	0	
10	0	0	0	0	501	400	0	379	0	0	
11	0	0	0	0	493	390	0	371	0	0	
12	0	0	0	0	486	382	0	363	0	0	
13	0	0	0	0	481	375	0	359	0	0	
14	0	0	0	0	478	371	0	355	0	0	
15	0	0	0	0	478	371	0	355	0	0	
0	0	0	0	0	480	376	0	357	0	0	
1	0	0	0	0	486	383	0	362	0	0	
2	0	0	0	0	493	393	0	369	0	0	
3	0	0	0	0	503	405	0	377	0	0	
4	0	0	0	0	513	418	0	385	0	0	
5	0	0	0	0	524	432	0	393	0	0	
6	0	0	0	0	533	444	0	399	0	0	
7	0	0	0	0	542	453	0	404	0	0	
8	0	0	0	0	548	460	0	408	0	0	
9	0	0	0	0	553	465	0	408	0	0	
10	0	0	0	0	558	467	0	408	0	0	
11	0	0	0	0	560	467	0	406	0	0	
12	0	0	0	0	563	466	0	402	0	0	
13	0	0	0	0	563	462	0	398	0	0	
14	0	0	0	0	563	457	0	394	0	0	
15	0	0	0	0	561	451	0	390	0	0	
0	0	0	0	0	558	445	0	387	0	0	
1	0	0	0	0	553	439	0	384	0	0	
2	0	0	0	0	547	432	0	384	0	0	
3	0	0	0	0	540	427	0	383	0	0	
4	0	0	0	0	531	421	0	384	0	0	
5	0	0	0	0	522	416	0	385	0	0	
6	0	0	0	0	511	410	0	386	0	0	
7	0	0	0	0	500	404	0	387	0	0	
8	0	0	0	0	488	398	0	387	0	0	
9	0	0	0	0	477	392	0	387	0	0	
10	0	0	0	0	467	386	0	386	0	0	
11	0	0	0	0	459	380	0	384	0	0	
12	0	0	0	0	451	374	0	381	0	0	
13	0	0	0	0	446	369	0	376	0	0	
14	0	0	0	0	443	364	0	371	0	0	
15	0	0	0	0	443	359	0	366	0	0	
0	0	0	0	0	444	355	0	360	0	0	
1	0	0	0	0	447	353	0	355	0	0	
2	0	0	0	0	452	353	0	350	0	0	
3	0	0	0	0	460	355	0	348	0	0	
4	0	0	0	0	469	359	0	346	0	0	
5	0	0	0	0	479	365	0	347	0	0	
6	0	0	0	0	491	374	0	350	0	0	
7	0	0	0	0	504	386	0	356	0	0	
8	0	0	0	0	518	399	0	364	0	0	
9	0	0	0	0	532	415	0	374	0	0	
10	0	0	0	0	546	430	0	385	0	0	
11	0	0	0	0	558	445	0	395	0	0	
12	0	0	0	0	569	459	0	405	0	0	
13	0	0	0	0	576	469	0	414	0	0	
14	0	0	0	0	580	476	0	419	0	0	
15	0	0	0	0	580	479	0	423	0	0	
0	0	0	0	0	575	477	0	422	0	0	
1	0	0	0	0	568	471	0	419	0	0	
2	0	0	0	0	556	461	0	413	0	0	
3	0	0	0	0	543	448	0	405	0	0	
4	0	0	0	0	528	433	0	395	0	0	
5	0	0	0	0	513	417	0	385	0	0	
6	0	0	0	0	499	401	0	374	0	0	
7	0	0	0	0	487	386	0	364	0	0	
8	0	0	0	0	476	373	0	356	0	0	
9	0	0	0	0	467	363	0	349	0	0	
10	0	0	0	0	462	356	0	345	0	0	
11	0	0	0	0	460	353	0	343	0	0	
12	0	0	0	0	461	354	0	344	0	0	
13	0	0	0	0	465	359	0	347	0	0	
14	0	0	0	0	471	366	0	352	0	0	
15	0	0	0	0	477	375	0	358	0	0	
0	0	0	0	0	485	384	0	365	0	0	
1	0	0	0	0	493	395	0	372	0	0	
2	0	0	0	0	502	405	0	379	0	0	
3	0	0	0	0	509	414	0	384	0	0	
4	0	0	0	0	516	422	0	388	0	0	
5	0	0	0	0	522	427	0	391	0	0	
6	0	0	0	0	527	431	0	393	0	0	
7	0	0	0	0	531	433	0	393	0	0	
8	0	0	0	0	534	433	0	392	0	0	
9	0	0	0	0	536	432	0	391	0	0	
10	0	0	0	0	537	430	0	389	0	0	
11	0	0	0	0	537	427	0	387	0	0	
12	0	0	0	0	536	423	0	385	0	0	
13	0	0	0	0	534	419	0	384	0	0	
14	0	0	0	0	529	416	0	383	0	0	
15	0	0	0	0	526	414	0	384	0	0	
0	0	0	0	0	523	413	0	385	0	0	
1	0	0	0	0	519	413	0	388	0	0	
2	0	0	0	0	517	414	0	391	0	0	
3	0	0	0	0	514	416	0	395	0	0	
4	0	0	0	0	514	419	0	399	0	0	
5	0	0	0	0	515	422	0	403	0	0	
6	0	0	0	0	518	427	0	406	0	0	
7	0	0	0	0	522	431	0	408	0	0	
8	0	0	0	0	527	435	0	409	0	0	
9	0	0	0	0	532	439	0	408	0	0	
10	0	0	0	0	538	441	0	406	0	0	
11	0	0	0	0	543	441	0	402	0	0	
12	0	0	0	0	547	440	0	398	0	0	
13	0	0	0	0	549	437	0	392	0	0	
14	0	0	0	0	549	433	0	386	0	0	
15	0	0	0	0	547	429	0	380	0	0	
0	0	0	0	0	544	423	0	375	0	0	
1	0	0	0	0	539	416	0	370	0	0	
2	0	0	0	0	533	411	0	367	0	0	
3	0	0	0	0	525	406	0	365	0	0	
4	0	0	0	0	517	401	0	365	0	0	
5	0	0	0	0	508	398	0	366	0	0	
6	0	0	0	0	500	395	0	368	0	0	
7	0	0	0	0	493	393	0	371	0	0	
8	0	0	0	0	487	392	0	374	0	0	
9	0	0	0	0	482	392	0	377	0	0	
10	0	0	0	0	480	393	0	380	0	0	
11	0	0	0	0	480	394	0	383	0	0	
12	0	0	0	0	482	396	0	384	0	0	
13	0	0	0	0	486	398	0	384	0	0	
14	0	0	0	0	491	400	0	384	0	0	
15	0	0	0	0	497	401	0	383	0	0	
0	0	0	0	0	503	403	0	381	0	0	
1	0	0	0	0	509	403	0	380	0	0	
2	0	0	0	0	515	404	0	377	0	0	
3	0	0	0	0	520	406	0	376	0	0	
4	0	0	0	0	525	407	0	375	0	0	
5	0	0	0	0	529	408	0	376	0	0	
6	0	0	0	0	531	411	0	377	0	0	
7	0	0	0	0	534	414	0	380	0	0	
8	0	0	0	0	536	417	0	384	0	0	
9	0	0	0	0	536	422	0	388	0	0	
10	0	0	0	0	537	426	0	393	0	0	
11	0	0	0	0	537	430	0	399	0	0	
12	0	0	0	0	537	435	0	403	0	0	
13	0	0	0	0	537	438	0	408	0	0	
14	0	0	0	0	536	441	0	410	0	0	
15	0	0	0	0	536	441	0	411	0	0	
0	0	0	0	0	533	440	0	410	0	0	
1	0	0	0	0	531	437	0	406	0	0	
2	0	0	0	0	527	432	0	400	0	0	
3	0	0	0	0	521	423	0	391	0	0	
4	0	0	0	0	515	413	0	381	0	0	
5	0	0	0	0	506	401	0	369	0	0	
6	0	0	0	0	496	387	0	356	0	0	
7	0	0	0	0	484	372	0	343	0	0	
8	0	0	0	0	472	358	0	329	0	0	
9	0	0	0	0	461	344	0	318	0	0	
10	0	0	0	0	448	332	0	306	0	0	
11	0	0	0	0	437	321	0	297	0	0	
12	0	0	0	0	427	312	0	289	0	0	
13	0	0	0	0	417	305	0	282	0	0	
14	0	0	0	0	409	300	0	276	0	0	
15	0	0	0	0	401	296	0	270	0	0	
0	0	0	0	0	395	292	0	265	0	0	
1	0	0	0	0	389	288	0	259	0	0	
2	0	0	0	0	383	284	0	251	0	0	
3	0	0	0	0	376	278	0	243	0	0	
4	0	0	0	0	368	270	0	232	0	0	
5	0	0	0	0	359	259	0	220	0	0	
6	0	0	0	0	349	247	0	206	0	0	
7	0	0	0	0	337	232	0	191	0	0	
8	0	0	0	0	323	216	0	175	0	0	
9	0	0	0	0	309	199	0	161	0	0	
10	0	0	0	0	296	184	0	148	0	0	
11	0	0	0	0	285	170	0	138	0	0	
12	0	0	0	0	277	161	0	133	0	0	
13	0	0	0	0	273	155	0	132	0	0	
14	0	0	0	0	274	156	0	138	0	0	
15	0	0	0	0	281	163	0	150	0	0	
0	0	0	0	0	294	176	0	167	0	0	
1	0	0	0	0	313	196	0	190	0	0	
2	0	0	0	0	337	220	0	216	0	0	
3	0	0	0	0	363	248	0	244	0	0	
4	0	0	0	0	393	277	0	274	0	0	
5	0	0	0	0	423	307	0	303	0	0	
6	0	0	0	0	452	337	0	330	0	0	
7	0	0	0	0	479	364	0	355	0	0	
8	0	0	0	0	502	387	0	376	0	0	
9	0	0	0	0	522	407	0	393	0	0	
10	0	0	0	0	536	421	0	406	0	0	
11	0	0	0	0	546	430	0	413	0	0	
12	0	0	0	0	551	434	0	417	0	0	
13	0	0	0	0	552	435	0	418	0	0	
14	0	0	0	0	551	433	0	416	0	0	
15	0	0	0	0	547	429	0	413	0	0	
0	0	0	0	0	543	424	0	409	0	0	
1	0	0	0	0	538	421	0	406	0	0	
2	0	0	0	0	535	418	0	403	0	0	
3	0	0	0	0	532	418	0	401	0	0	
4	0	0	0	0	531	419	0	401	0	0	
5	0	0	0	0	531	422	0	402	0	0	
6	0	0	0	0	532	427	0	404	0	0	
7	0	0	0	0	535	432	0	408	0	0	
8	0	0	0	0	537	437	0	411	0	0	
9	0	0	0	0	539	441	0	414	0	0	
10	0	0	0	0	541	444	0	416	0	0	
11	0	0	0	0	542	446	0	417	0	0	
12	0	0	0	0	541	446	0	417	0	0	
13	0	0	0	0	540	444	0	415	0	0	
14	0	0	0	0	537	440	0	412	0	0	
15	0	0	0	0	535	435	0	408	0	0	
0	0	0	0	0	532	429	0	402	0	0	
1	0	0	0	0	528	422	0	397	0	0	
2	0	0	0	0	525	415	0	391	0	0	
3	0	0	0	0	522	409	0	386	0	0	
4	0	0	0	0	519	404	0	382	0	0	
5	0	0	0	0	516	400	0	380	0	0	
6	0	0	0	0	514	398	0	379	0	0	
7	0	0	0	0	513	398	0	380	0	0	
8	0	0	0	0	514	400	0	383	0	0	
9	0	0	0	0	516	404	0	388	0	0	
10	0	0	0	0	519	410	0	394	0	0	
11	0	0	0	0	524	419	0	402	0	0	
12	0	0	0	0	530	427	0	411	0	0	
13	0	0	0	0	536	436	0	418	0	0	
14	0	0	0	0	541	444	0	426	0	0	
15	0	0	0	0	546	450	0	432	0	0	
0	0	0	0	0	549	455	0	435	0	0	
1	0	0	0	0	551	456	0	437	0	0	
2	0	0	0	0	551	455	0	436	0	0	
3	0	0	0	0	550	452	0	434	0	0	
4	0	0	0	0	546	447	0	430	0	0	
5	0	0	0	0	542	440	0	423	0	0	
6	0	0	0	0	537	432	0	416	0	0	
7	0	0	0	0	531	424	0	409	0	0	
8	0	0	0	0	526	417	0	402	0	0	
9	0	0	0	0	523	411	0	396	0	0	
10	0	0	0	0	520	408	0	392	0	0	
11	0	0	0	0	519	408	0	391	0	0	
12	0	0	0	0	521	412	0	391	0	0	
13	0	0	0	0	526	417	0	393	0	0	
14	0	0	0	0	531	426	0	398	0	0	
15	0	0	0	0	540	436	0	403	0	0	
0	0	0	0	0	549	447	0	411	0	0	
1	0	0	0	0	558	459	0	419	0	0	
2	0	0	0	0	567	468	0	426	0	0	
3	0	0	0	0	575	477	0	433	0	0	
4	0	0	0	0	580	481	0	438	0	0	
5	0	0	0	0	582	483	0	440	0	0	
6	0	0	0	0	581	481	0	440	0	0	
7	0	0	0	0	577	475	0	438	0	0	
8	0	0	0	0	570	466	0	434	0	0	
9	0	0	0	0	561	455	0	428	0	0	
10	0	0	0	0	551	445	0	422	0	0	
11	0	0	0	0	543	435	0	416	0	0	
12	0	0	0	0	535	428	0	412	0	0	
13	0	0	0	0	531	423	0	409	0	0	
14	0	0	0	0	528	421	0	408	0	0	
15	0	0	0	0	529	423	0	408	0	0	
0	0	0	0	0	532	428	0	411	0	0	
1	0	0	0	0	538	436	0	414	0	0	
2	0	0	0	0	545	445	0	419	0	0	
3	0	0	0	0	553	454	0	423	0	0	
4	0	0	0	0	560	462	0	427	0	0	
5	0	0	0	0	565	469	0	430	0	0	
6	0	0	0	0	568	473	0	430	0	0	
7	0	0	0	0	568	473	0	429	0	0	
8	0	0	0	0	564	470	0	426	0	0	
9	0	0	0	0	557	462	0	420	0	0	
10	0	0	0	0	547	452	0	413	0	0	
11	0	0	0	0	535	439	0	405	0	0	
12	0	0	0	0	522	424	0	396	0	0	
13	0	0	0	0	508	409	0	387	0	0	
14	0	0	0	0	496	395	0	380	0	0	
15	0	0	0	0	484	382	0	373	0	0	
0	0	0	0	0	475	372	0	368	0	0	
1	0	0	0	0	470	366	0	366	0	0	
2	0	0	0	0	467	363	0	366	0	0	
3	0	0	0	0	469	364	0	368	0	0	
4	0	0	0	0	474	370	0	374	0	0	
5	0	0	0	0	483	380	0	381	0	0	
6	0	0	0	0	496	393	0	389	0	0	
7	0	0	0	0	510	408	0	399	0	0	
8	0	0	0	0	526	425	0	408	0	0	
9	0	0	0	0	543	441	0	417	0	0	
10	0	0	0	0	559	456	0	426	0	0	
11	0	0	0	0	572	469	0	432	0	0	
12	0	0	0	0	583	479	0	436	0	0	
13	0	0	0	0	591	483	0	437	0	0	
14	0	0	0	0	594	484	0	436	0	0	
15	0	0	0	0	592	481	0	433	0	0	
0	0	0	0	0	586	473	0	428	0	0	
1	0	0	0	0	575	462	0	420	0	0	
2	0	0	0	0	561	449	0	412	0	0	
3	0	0	0	0	545	435	0	404	0	0	
4	0	0	0	0	529	421	0	396	0	0	
5	0	0	0	0	513	408	0	389	0	0	
6	0	0	0	0	498	398	0	384	0	0	
7	0	0	0	0	487	391	0	380	0	0	
8	0	0	0	0	480	388	0	380	0	0	
9	0	0	0	0	478	389	0	381	0	0	
10	0	0	0	0	479	393	0	385	0	0	
11	0	0	0	0	484	400	0	390	0	0	
12	0	0	0	0	493	409	0	396	0	0	
13	0	0	0	0	503	419	0	402	0	0	
14	0	0	0	0	514	428	0	408	0	0	
15	0	0	0	0	524	435	0	412	0	0	
0	0	0	0	0	532	442	0	415	0	0	
1	0	0	0	0	540	445	0	416	0	0	
2	0	0	0	0	543	446	0	415	0	0	
3	0	0	0	0	545	444	0	413	0	0	
4	0	0	0	0	545	441	0	409	0	0	
5	0	0	0	0	543	436	0	405	0	0	
6	0	0	0	0	539	430	0	400	0	0	
7	0	0	0	0	534	424	0	396	0	0	
8	0	0	0	0	529	418	0	392	0	0	
9	0	0	0	0	524	413	0	390	0	0	
10	0	0	0	0	519	411	0	388	0	0	
11	0	0	0	0	516	409	0	388	0	0	
12	0	0	0	0	515	411	0	391	0	0	
13	0	0	0	0	516	415	0	395	0	0	
14	0	0	0	0	519	421	0	400	0	0	
15	0	0	0	0	524	428	0	406	0	0	
0	0	0	0	0	529	436	0	412	0	0	
1	0	0	0	0	536	444	0	418	0	0	
2	0	0	0	0	542	451	0	423	0	0	
3	0	0	0	0	548	457	0	427	0	0	
4	0	0	0	0	553	463	0	429	0	0	
5	0	0	0	0	559	465	0	429	0	0	
6	0	0	0	0	563	467	0	428	0	0	
7	0	0	0	0	565	467	0	425	0	0	
8	0	0	0	0	567	465	0	421	0	0	
9	0	0	0	0	567	462	0	416	0	0	
10	0	0	0	0	567	458	0	411	0	0	
11	0	0	0	0	565	454	0	406	0	0	
12	0	0	0	0	562	449	0	401	0	0	
13	0	0	0	0	558	444	0	398	0	0	
14	0	0	0	0	555	441	0	396	0	0	
15	0	0	0	0	551	438	0	394	0	0	
0	0	0	0	0	547	436	0	393	0	0	
1	0	0	0	0	542	434	0	393	0	0	
2	0	0	0	0	536	432	0	394	0	0	
3	0	0	0	0	531	432	0	395	0	0	
4	0	0	0	0	526	431	0	395	0	0	
5	0	0	0	0	521	431	0	396	0	0	
6	0	0	0	0	518	430	0	396	0	0	
7	0	0	0	0	515	430	0	395	0	0	
8	0	0	0	0	513	429	0	394	0	0	
9	0	0	0	0	512	428	0	391	0	0	
10	0	0	0	0	511	425	0	388	0	0	
11	0	0	0	0	510	421	0	384	0	0	
12	0	0	0	0	508	417	0	380	0	0	
13	0	0	0	0	507	411	0	376	0	0	
14	0	0	0	0	505	406	0	372	0	0	
15	0	0	0	0	504	400	0	369	0	0	
0	0	0	0	0	502	396	0	368	0	0	
1	0	0	0	0	501	393	0	368	0	0	
2	0	0	0	0	502	392	0	369	0	0	
3	0	0	0	0	503	393	0	373	0	0	
4	0	0	0	0	505	397	0	379	0	0	
5	0	0	0	0	508	402	0	385	0	0	
6	0	0	0	0	512	409	0	391	0	0	
7	0	0	0	0	517	417	0	399	0	0	
8	0	0	0	0	523	425	0	405	0	0	
9	0	0	0	0	528	433	0	410	0	0	
10	0	0	0	0	533	440	0	414	0	0	
11	0	0	0	0	536	444	0	415	0	0	
12	0	0	0	0	537	446	0	414	0	0	
13	0	0	0	0	538	445	0	410	0	0	
14	0	0	0	0	536	442	0	405	0	0	
15	0	0	0	0	533	437	0	399	0	0	
0	0	0	0	0	529	430	0	391	0	0	
1	0	0	0	0	524	423	0	384	0	0	
2	0	0	0	0	521	417	0	377	0	0	
3	0	0	0	0	518	412	0	372	0	0	
4	0	0	0	0	518	409	0	369	0	0	
5	0	0	0	0	518	408	0	368	0	0	
6	0	0	0	0	520	409	0	370	0	0	
7	0	0	0	0	523	412	0	372	0	0	
8	0	0	0	0	525	415	0	377	0	0	
9	0	0	0	0	528	420	0	383	0	0	
10	0	0	0	0	530	424	0	388	0	0	
11	0	0	0	0	531	428	0	393	0	0	
12	0	0	0	0	531	432	0	398	0	0	
13	0	0	0	0	529	434	0	401	0	0	
14	0	0	0	0	527	435	0	403	0	0	
15	0	0	0	0	524	435	0	403	0	0	
0	0	0	0	0	520	433	0	401	0	0	
1	0	0	0	0	517	431	0	397	0	0	
2	0	0	0	0	516	429	0	393	0	0	
3	0	0	0	0	516	427	0	388	0	0	
4	0	0	0	0	518	425	0	384	0	0	
5	0	0	0	0	520	424	0	378	0	0	
6	0	0	0	0	525	424	0	374	0	0	
7	0	0	0	0	530	424	0	370	0	0	
8	0	0	0	0	535	425	0	367	0	0	
9	0	0	0	0	540	427	0	364	0	0	
10	0	0	0	0	546	430	0	365	0	0	
11	0	0	0	0	551	434	0	366	0	0	
12	0	0	0	0	554	437	0	368	0	0	
13	0	0	0	0	556	440	0	371	0	0	
14	0	0	0	0	555	441	0	375	0	0	
15	0	0	0	0	551	440	0	378	0	0	
0	0	0	0	0	544	437	0	380	0	0	
1	0	0	0	0	535	432	0	382	0	0	
2	0	0	0	0	523	425	0	382	0	0	
3	0	0	0	0	511	417	0	380	0	0	
4	0	0	0	0	498	407	0	377	0	0	
5	0	0	0	0	486	398	0	372	0	0	
6	0	0	0	0	475	388	0	367	0	0	
7	0	0	0	0	466	379	0	360	0	0	
8	0	0	0	0	461	371	0	353	0	0	
9	0	0	0	0	458	365	0	348	0	0	
10	0	0	0	0	459	361	0	342	0	0	
11	0	0	0	0	463	360	0	338	0	0	
12	0	0	0	0	470	362	0	336	0	0	
13	0	0	0	0	480	367	0	336	0	0	
14	0	0	0	0	492	375	0	339	0	0	
15	0	0	0	0	505	385	0	344	0	0	
0	0	0	0	0	519	396	0	350	0	0	
1	0	0	0	0	531	409	0	358	0	0	
2	0	0	0	0	543	422	0	367	0	0	
3	0	0	0	0	552	432	0	375	0	0	
4	0	0	0	0	558	441	0	382	0	0	
5	0	0	0	0	560	448	0	388	0	0	
6	0	0	0	0	559	451	0	391	0	0	
7	0	0	0	0	554	450	0	392	0	0	
8	0	0	0	0	546	446	0	391	0	0	
9	0	0	0	0	537	439	0	387	0	0	
10	0	0	0	0	527	431	0	383	0	0	
11	0	0	0	0	518	421	0	376	0	0	
12	0	0	0	0	509	412	0	369	0	0	
13	0	0	0	0	502	403	0	362	0	0	
14	0	0	0	0	497	395	0	356	0	0	
15	0	0	0	0	495	390	0	351	0	0	
0	0	0	0	0	495	387	0	348	0	0	
1	0	0	0	0	498	387	0	346	0	0	
2	0	0	0	0	504	390	0	347	0	0	
3	0	0	0	0	512	397	0	351	0	0	
4	0	0	0	0	523	407	0	357	0	0	
5	0	0	0	0	535	419	0	364	0	0	
6	0	0	0	0	547	432	0	374	0	0	
7	0	0	0	0	559	445	0	383	0	0	
8	0	0	0	0	570	456	0	391	0	0	
9	0	0	0	0	577	465	0	398	0	0	
10	0	0	0	0	581	472	0	403	0	0	
11	0	0	0	0	583	474	0	406	0	0	
12	0	0	0	0	580	473	0	407	0	0	
13	0	0	0	0	575	469	0	404	0	0	
14	0	0	0	0	568	463	0	400	0	0	
15	0	0	0	0	560	454	0	393	0	0	
0	0	0	0	0	550	444	0	386	0	0	
1	0	0	0	0	540	434	0	378	0	0	
2	0	0	0	0	532	426	0	369	0	0	
3	0	0	0	0	526	419	0	363	0	0	
4	0	0	0	0	522	415	0	358	0	0	
5	0	0	0	0	521	414	0	354	0	0	
6	0	0	0	0	523	416	0	354	0	0	
7	0	0	0	0	527	420	0	355	0	0	
8	0	0	0	0	534	427	0	358	0	0	
9	0	0	0	0	540	433	0	361	0	0	
10	0	0	0	0	547	441	0	367	0	0	
11	0	0	0	0	553	448	0	372	0	0	
12	0	0	0	0	560	455	0	377	0	0	
13	0	0	0	0	564	461	0	382	0	0	
14	0	0	0	0	568	465	0	386	0	0	
15	0	0	0	0	570	468	0	388	0	0	
0	0	0	0	0	571	468	0	389	0	0	
1	0	0	0	0	569	467	0	388	0	0	
2	0	0	0	0	566	462	0	385	0	0	
3	0	0	0	0	560	455	0	380	0	0	
4	0	0	0	0	551	445	0	374	0	0	
5	0	0	0	0	542	433	0	366	0	0	
6	0	0	0	0	530	420	0	358	0	0	
7	0	0	0	0	519	408	0	351	0	0	
8	0	0	0	0	508	396	0	344	0	0	
9	0	0	0	0	499	386	0	340	0	0	
10	0	0	0	0	493	379	0	337	0	0	
11	0	0	0	0	490	376	0	338	0	0	
12	0	0	0	0	489	377	0	342	0	0	
13	0	0	0	0	492	380	0	347	0	0	
14	0	0	0	0	496	385	0	354	0	0	
15	0	0	0	0	502	391	0	361	0	0	
0	0	0	0	0	507	399	0	369	0	0	
1	0	0	0	0	513	406	0	376	0	0	
2	0	0	0	0	517	411	0	381	0	0	
3	0	0	0	0	519	415	0	385	0	0	
4	0	0	0	0	520	415	0	387	0	0	
5	0	0	0	0	520	414	0	385	0	0	
6	0	0	0	0	518	411	0	383	0	0	
7	0	0	0	0	516	406	0	378	0	0	
8	0	0	0	0	514	401	0	373	0	0	
9	0	0	0	0	513	397	0	367	0	0	
10	0	0	0	0	514	394	0	362	0	0	
11	0	0	0	0	516	392	0	358	0	0	
12	0	0	0	0	520	393	0	355	0	0	
13	0	0	0	0	525	394	0	353	0	0	
14	0	0	0	0	529	397	0	352	0	0	
15	0	0	0	0	532	401	0	352	0	0	
0	0	0	0	0	536	406	0	354	0	0	
1	0	0	0	0	537	409	0	356	0	0	
2	0	0	0	0	536	413	0	359	0	0	
3	0	0	0	0	536	417	0	363	0	0	
4	0	0	0	0	533	420	0	365	0	0	
5	0	0	0	0	530	422	0	368	0	0	
6	0	0	0	0	526	423	0	370	0	0	
7	0	0	0	0	522	423	0	372	0	0	
8	0	0	0	0	519	422	0	372	0	0	
9	0	0	0	0	516	421	0	372	0	0	
10	0	0	0	0	515	419	0	372	0	0	
11	0	0	0	0	514	417	0	370	0	0	
12	0	0	0	0	515	415	0	368	0	0	
13	0	0	0	0	516	412	0	366	0	0	
14	0	0	0	0	519	411	0	364	0	0	
15	0	0	0	0	522	410	0	363	0	0	
0	0	0	0	0	526	410	0	362	0	0	
1	0	0	0	0	532	412	0	363	0	0	
2	0	0	0	0	538	416	0	366	0	0	
3	0	0	0	0	545	422	0	369	0	0	
4	0	0	0	0	551	429	0	374	0	0	
5	0	0	0	0	558	437	0	380	0	0	
6	0	0	0	0	563	445	0	385	0	0	
7	0	0	0	0	566	451	0	391	0	0	
8	0	0	0	0	568	458	0	395	0	0	
9	0	0	0	0	568	462	0	398	0	0	
10	0	0	0	0	566	464	0	399	0	0	
11	0	0	0	0	562	464	0	399	0	0	
12	0	0	0	0	556	460	0	396	0	0	
13	0	0	0	0	549	455	0	391	0	0	
14	0	0	0	0	540	447	0	384	0	0	
15	0	0	0	0	530	437	0	375	0	0	
0	0	0	0	0	519	426	0	366	0	0	
1	0	0	0	0	510	415	0	356	0	0	
2	0	0	0	0	503	405	0	347	0	0	
3	0	0	0	0	497	397	0	341	0	0	
4	0	0	0	0	494	391	0	336	0	0	
5	0	0	0	0	494	389	0	334	0	0	
6	0	0	0	0	497	390	0	336	0	0	
7	0	0	0	0	504	396	0	340	0	0	
8	0	0	0	0	513	404	0	347	0	0	
9	0	0	0	0	524	414	0	355	0	0	
10	0	0	0	0	536	426	0	366	0	0	
11	0	0	0	0	547	438	0	376	0	0	
12	0	0	0	0	559	449	0	384	0	0	
13	0	0	0	0	567	459	0	391	0	0	
14	0	0	0	0	572	465	0	396	0	0	
15	0	0	0	0	573	467	0	397	0	0	
0	0	0	0	0	570	464	0	395	0	0	
1	0	0	0	0	563	457	0	390	0	0	
2	0	0	0	0	552	447	0	382	0	0	
3	0	0	0	0	540	434	0	372	0	0	
4	0	0	0	0	525	419	0	361	0	0	
5	0	0	0	0	512	406	0	351	0	0	
6	0	0	0	0	500	393	0	342	0	0	
7	0	0	0	0	490	383	0	335	0	0	
8	0	0	0	0	483	376	0	330	0	0	
9	0	0	0	0	480	372	0	328	0	0	
10	0	0	0	0	480	371	0	329	0	0	
11	0	0	0	0	483	375	0	333	0	0	
12	0	0	0	0	489	380	0	339	0	0	
13	0	0	0	0	497	388	0	346	0	0	
14	0	0	0	0	507	399	0	355	0	0	
15	0	0	0	0	518	411	0	365	0	0	
0	0	0	0	0	531	423	0	374	0	0	
1	0	0	0	0	544	437	0	383	0	0	
2	0	0	0	0	557	448	0	391	0	0	
3	0	0	0	0	566	457	0	396	0	0	
4	0	0	0	0	573	462	0	399	0	0	
5	0	0	0	0	575	462	0	399	0	0	
6	0	0	0	0	572	459	0	396	0	0	
7	0	0	0	0	565	450	0	390	0	0	
8	0	0	0	0	554	438	0	381	0	0	
9	0	0	0	0	539	422	0	371	0	0	
10	0	0	0	0	523	406	0	360	0	0	
11	0	0	0	0	505	389	0	349	0	0	
12	0	0	0	0	489	373	0	339	0	0	
13	0	0	0	0	475	360	0	332	0	0	
14	0	0	0	0	464	352	0	327	0	0	
15	0	0	0	0	458	348	0	325	0	0	
0	0	0	0	0	457	348	0	327	0	0	
1	0	0	0	0	460	353	0	331	0	0	
2	0	0	0	0	468	362	0	337	0	0	
3	0	0	0	0	478	374	0	345	0	0	
4	0	0	0	0	491	387	0	354	0	0	
5	0	0	0	0	504	400	0	362	0	0	
6	0	0	0	0	516	412	0	369	0	0	
7	0	0	0	0	527	423	0	375	0	0	
8	0	0	0	0	536	430	0	379	0	0	
9	0	0	0	0	542	434	0	380	0	0	
10	0	0	0	0	546	436	0	380	0	0	
11	0	0	0	0	548	435	0	378	0	0	
12	0	0	0	0	547	432	0	375	0	0	
13	0	0	0	0	545	428	0	371	0	0	
14	0	0	0	0	542	422	0	366	0	0	
15	0	0	0	0	537	417	0	361	0	0	
0	0	0	0	0	533	412	0	358	0	0	
1	0	0	0	0	529	408	0	355	0	0	
2	0	0	0	0	525	406	0	354	0	0	
3	0	0	0	0	523	406	0	355	0	0	
4	0	0	0	0	523	409	0	357	0	0	
5	0	0	0	0	524	414	0	361	0	0	
6	0	0	0	0	527	420	0	366	0	0	
7	0	0	0	0	531	428	0	372	0	0	
8	0	0	0	0	536	436	0	379	0	0	
9	0	0	0	0	542	444	0	385	0	0	
10	0	0	0	0	548	453	0	391	0	0	
11	0	0	0	0	555	460	0	395	0	0	
12	0	0	0	0	560	464	0	398	0	0	
13	0	0	0	0	564	467	0	398	0	0	
14	0	0	0	0	566	466	0	396	0	0	
15	0	0	0	0	566	463	0	392	0	0	
0	0	0	0	0	563	457	0	387	0	0	
1	0	0	0	0	559	449	0	380	0	0	
2	0	0	0	0	554	442	0	373	0	0	
3	0	0	0	0	548	433	0	366	0	0	
4	0	0	0	0	542	426	0	360	0	0	
5	0	0	0	0	535	419	0	354	0	0	
6	0	0	0	0	527	412	0	350	0	0	
7	0	0	0	0	519	406	0	347	0	0	
8	0	0	0	0	513	403	0	347	0	0	
9	0	0	0	0	507	400	0	348	0	0	
10	0	0	0	0	503	401	0	350	0	0	
11	0	0	0	0	501	402	0	353	0	0	
12	0	0	0	0	500	406	0	357	0	0	
13	0	0	0	0	501	410	0	363	0	0	
14	0	0	0	0	504	415	0	367	0	0	
15	0	0	0	0	507	419	0	371	0	0	
0	0	0	0	0	510	422	0	375	0	0	
1	0	0	0	0	513	424	0	376	0	0	
2	0	0	0	0	516	424	0	377	0	0	
3	0	0	0	0	518	422	0	376	0	0	
4	0	0	0	0	519	418	0	373	0	0	
5	0	0	0	0	518	412	0	369	0	0	
6	0	0	0	0	517	407	0	365	0	0	
7	0	0	0	0	515	402	0	361	0	0	
8	0	0	0	0	515	398	0	358	0	0	
9	0	0	0	0	515	396	0	356	0	0	
10	0	0	0	0	515	396	0	355	0	0	
11	0	0	0	0	516	399	0	356	0	0	
12	0	0	0	0	518	403	0	358	0	0	
13	0	0	0	0	520	409	0	361	0	0	
14	0	0	0	0	523	416	0	365	0	0	
15	0	0	0	0	525	423	0	369	0	0	
0	0	0	0	0	528	430	0	374	0	0	
1	0	0	0	0	531	437	0	378	0	0	
2	0	0	0	0	534	442	0	382	0	0	
3	0	0	0	0	536	446	0	385	0	0	
4	0	0	0	0	537	448	0	387	0	0	
5	0	0	0	0	539	449	0	388	0	0	
6	0	0	0	0	540	448	0	387	0	0	
7	0	0	0	0	541	446	0	385	0	0	
8	0	0	0	0	542	443	0	382	0	0	
9	0	0	0	0	542	438	0	379	0	0	
10	0	0	0	0	542	433	0	375	0	0	
11	0	0	0	0	541	428	0	371	0	0	
12	0	0	0	0	540	423	0	368	0	0	
13	0	0	0	0	539	419	0	366	0	0	
14	0	0	0	0	537	416	0	365	0	0	
15	0	0	0	0	538	415	0	366	0	0	
0	0	0	0	0	538	416	0	369	0	0	
1	0	0	0	0	538	419	0	373	0	0	
2	0	0	0	0	539	423	0	377	0	0	
3	0	0	0	0	539	427	0	382	0	0	
4	0	0	0	0	539	431	0	387	0	0	
5	0	0	0	0	539	435	0	391	0	0	
6	0	0	0	0	537	437	0	395	0	0	
7	0	0	0	0	536	439	0	397	0	0	
8	0	0	0	0	535	439	0	397	0	0	
9	0	0	0	0	533	437	0	396	0	0	
10	0	0	0	0	531	434	0	393	0	0	
11	0	0	0	0	528	430	0	388	0	0	
12	0	0	0	0	525	423	0	383	0	0	
13	0	0	0	0	521	417	0	377	0	0	
14	0	0	0	0	519	412	0	371	0	0	
15	0	0	0	0	517	407	0	366	0	0	
0	0	0	0	0	516	403	0	362	0	0	
1	0	0	0	0	518	403	0	361	0	0	
2	0	0	0	0	521	405	0	362	0	0	
3	0	0	0	0	527	410	0	365	0	0	
4	0	0	0	0	535	418	0	371	0	0	
5	0	0	0	0	544	428	0	378	0	0	
6	0	0	0	0	553	439	0	386	0	0	
7	0	0	0	0	561	449	0	393	0	0	
8	0	0	0	0	568	458	0	401	0	0	
9	0	0	0	0	572	464	0	406	0	0	
10	0	0	0	0	573	467	0	409	0	0	
11	0	0	0	0	570	465	0	410	0	0	
12	0	0	0	0	563	460	0	408	0	0	
13	0	0	0	0	555	452	0	404	0	0	
14	0	0	0	0	544	442	0	399	0	0	
15	0	0	0	0	534	432	0	392	0	0	
0	0	0	0	0	525	422	0	385	0	0	
1	0	0	0	0	517	413	0	378	0	0	
2	0	0	0	0	513	406	0	373	0	0	
3	0	0	0	0	513	403	0	370	0	0	
4	0	0	0	0	515	403	0	368	0	0	
5	0	0	0	0	520	405	0	368	0	0	
6	0	0	0	0	527	410	0	369	0	0	
7	0	0	0	0	535	417	0	372	0	0	
8	0	0	0	0	542	424	0	376	0	0	
9	0	0	0	0	547	431	0	380	0	0	
10	0	0	0	0	551	436	0	384	0	0	
11	0	0	0	0	551	440	0	388	0	0	
12	0	0	0	0	551	442	0	391	0	0	
13	0	0	0	0	549	443	0	395	0	0	
14	0	0	0	0	545	442	0	397	0	0	
15	0	0	0	0	540	439	0	398	0	0	
0	0	0	0	0	534	435	0	397	0	0	
1	0	0	0	0	528	430	0	395	0	0	
2	0	0	0	0	523	423	0	391	0	0	
3	0	0	0	0	518	417	0	387	0	0	
4	0	0	0	0	514	410	0	382	0	0	
5	0	0	0	0	510	403	0	376	0	0	
6	0	0	0	0	508	397	0	370	0	0	
7	0	0	0	0	505	392	0	365	0	0	
8	0	0	0	0	504	389	0	361	0	0	
9	0	0	0	0	504	387	0	359	0	0	
10	0	0	0	0	504	386	0	357	0	0	
11	0	0	0	0	505	387	0	357	0	0	
12	0	0	0	0	506	390	0	359	0	0	
13	0	0	0	0	508	393	0	361	0	0	
14	0	0	0	0	509	398	0	366	0	0	
15	0	0	0	0	511	403	0	370	0	0	
0	0	0	0	0	513	408	0	374	0	0	
1	0	0	0	0	515	415	0	379	0	0	
2	0	0	0	0	518	419	0	383	0	0	
3	0	0	0	0	521	423	0	387	0	0	
4	0	0	0	0	524	427	0	389	0	0	
5	0	0	0	0	527	428	0	389	0	0	
6	0	0	0	0	529	429	0	389	0	0	
7	0	0	0	0	531	428	0	387	0	0	
8	0	0	0	0	531	425	0	384	0	0	
9	0	0	0	0	532	423	0	380	0	0	
10	0	0	0	0	533	420	0	377	0	0	
11	0	0	0	0	534	418	0	374	0	0	
12	0	0	0	0	535	416	0	371	0	0	
13	0	0	0	0	536	415	0	370	0	0	
14	0	0	0	0	536	415	0	370	0	0	
15	0	0	0	0	537	417	0	371	0	0	
0	0	0	0	0	538	420	0	373	0	0	
1	0	0	0	0	539	423	0	376	0	0	
2	0	0	0	0	539	427	0	379	0	0	
3	0	0	0	0	537	430	0	383	0	0	
4	0	0	0	0	535	432	0	385	0	0	
5	0	0	0	0	531	432	0	387	0	0	
6	0	0	0	0	527	431	0	388	0	0	
7	0	0	0	0	521	427	0	388	0	0	
8	0	0	0	0	514	422	0	385	0	0	
9	0	0	0	0	509	416	0	382	0	0	
10	0	0	0	0	503	409	0	378	0	0	
11	0	0	0	0	498	402	0	374	0	0	
12	0	0	0	0	495	396	0	369	0	0	
13	0	0	0	0	494	390	0	366	0	0	
14	0	0	0	0	495	386	0	363	0	0	
15	0	0	0	0	497	384	0	361	0	0	
0	0	0	0	0	502	384	0	361	0	0	
1	0	0	0	0	506	385	0	362	0	0	
2	0	0	0	0	512	388	0	364	0	0	
3	0	0	0	0	517	392	0	368	0	0	
4	0	0	0	0	522	398	0	372	0	0	
5	0	0	0	0	527	405	0	378	0	0	
6	0	0	0	0	530	412	0	384	0	0	
7	0	0	0	0	533	419	0	389	0	0	
8	0	0	0	0	535	425	0	394	0	0	
9	0	0	0	0	536	431	0	399	0	0	
10	0	0	0	0	536	435	0	402	0	0	
11	0	0	0	0	535	437	0	403	0	0	
12	0	0	0	0	534	438	0	403	0	0	
13	0	0	0	0	532	436	0	401	0	0	
14	0	0	0	0	529	433	0	397	0	0	
15	0	0	0	0	526	427	0	391	0	0	
0	0	0	0	0	521	420	0	384	0	0	
1	0	0	0	0	516	411	0	376	0	0	
2	0	0	0	0	512	402	0	368	0	0	
3	0	0	0	0	506	393	0	359	0	0	
4	0	0	0	0	500	385	0	352	0	0	
5	0	0	0	0	496	379	0	344	0	0	
6	0	0	0	0	491	374	0	338	0	0	
7	0	0	0	0	487	370	0	332	0	0	
8	0	0	0	0	483	369	0	328	0	0	
9	0	0	0	0	478	368	0	324	0	0	
10	0	0	0	0	473	367	0	319	0	0	
11	0	0	0	0	466	364	0	314	0	0	
12	0	0	0	0	459	360	0	307	0	0	
13	0	0	0	0	449	354	0	299	0	0	
14	0	0	0	0	438	346	0	289	0	0	
15	0	0	0	0	426	335	0	278	0	0	
0	0	0	0	0	412	323	0	264	0	0	
1	0	0	0	0	399	308	0	248	0	0	
2	0	0	0	0	386	293	0	232	0	0	
3	0	0	0	0	372	276	0	216	0	0	
4	0	0	0	0	359	259	0	199	0	0	
5	0	0	0	0	345	240	0	182	0	0	
6	0	0	0	0	332	223	0	167	0	0	
7	0	0	0	0	319	206	0	154	0	0	
8	0	0	0	0	308	192	0	145	0	0	
9	0	0	0	0	300	180	0	140	0	0	
10	0	0	0	0	294	174	0	140	0	0	
11	0	0	0	0	295	174	0	145	0	0	
12	0	0	0	0	300	180	0	156	0	0	
13	0	0	0	0	312	192	0	172	0	0	
14	0	0	0	0	329	211	0	193	0	0	
15	0	0	0	0	350	233	0	217	0	0	
0	0	0	0	0	377	260	0	243	0	0	
1	0	0	0	0	406	289	0	271	0	0	
2	0	0	0	0	436	319	0	297	0	0	
3	0	0	0	0	467	348	0	322	0	0	
4	0	0	0	0	495	376	0	344	0	0	
5	0	0	0	0	521	399	0	364	0	0	
6	0	0	0	0	542	417	0	379	0	0	
7	0	0	0	0	557	431	0	390	0	0	
8	0	0	0	0	567	438	0	396	0	0	
9	0	0	0	0	569	439	0	399	0	0	
10	0	0	0	0	567	436	0	398	0	0	
11	0	0	0	0	559	430	0	395	0	0	
12	0	0	0	0	549	420	0	391	0	0	
13	0	0	0	0	537	411	0	385	0	0	
14	0	0	0	0	524	402	0	380	0	0	
15	0	0	0	0	513	396	0	377	0	0	
0	0	0	0	0	503	391	0	375	0	0	
1	0	0	0	0	496	390	0	373	0	0	
2	0	0	0	0	491	390	0	374	0	0	
3	0	0	0	0	487	391	0	374	0	0	
4	0	0	0	0	487	394	0	376	0	0	
5	0	0	0	0	488	398	0	378	0	0	
6	0	0	0	0	492	402	0	381	0	0	
7	0	0	0	0	496	407	0	383	0	0	
8	0	0	0	0	502	410	0	385	0	0	
9	0	0	0	0	508	414	0	386	0	0	
10	0	0	0	0	514	416	0	387	0	0	
11	0	0	0	0	521	418	0	387	0	0	
12	0	0	0	0	527	419	0	387	0	0	
13	0	0	0	0	533	419	0	386	0	0	
14	0	0	0	0	538	419	0	386	0	0	
15	0	0	0	0	542	419	0	385	0	0	
0	0	0	0	0	543	418	0	384	0	0	
1	0	0	0	0	545	418	0	384	0	0	
2	0	0	0	0	546	419	0	384	0	0	
3	0	0	0	0	546	421	0	385	0	0	
4	0	0	0	0	546	425	0	387	0	0	
5	0	0	0	0	546	430	0	390	0	0	
6	0	0	0	0	546	435	0	394	0	0	
7	0	0	0	0	546	441	0	398	0	0	
8	0	0	0	0	547	447	0	401	0	0	
9	0	0	0	0	547	452	0	405	0	0	
10	0	0	0	0	547	456	0	408	0	0	
11	0	0	0	0	548	458	0	411	0	0	
12	0	0	0	0	548	460	0	412	0	0	
13	0	0	0	0	548	459	0	411	0	0	
14	0	0	0	0	547	455	0	409	0	0	
15	0	0	0	0	546	451	0	406	0	0	
0	0	0	0	0	545	446	0	403	0	0	
1	0	0	0	0	544	440	0	399	0	0	
2	0	0	0	0	544	436	0	396	0	0	
3	0	0	0	0	544	433	0	394	0	0	
4	0	0	0	0	545	432	0	392	0	0	
5	0	0	0	0	547	432	0	392	0	0	
6	0	0	0	0	550	433	0	393	0	0	
7	0	0	0	0	555	438	0	396	0	0	
8	0	0	0	0	559	443	0	401	0	0	
9	0	0	0	0	564	450	0	406	0	0	
10	0	0	0	0	569	457	0	411	0	0	
11	0	0	0	0	574	465	0	416	0	0	
12	0	0	0	0	578	472	0	421	0	0	
13	0	0	0	0	581	479	0	424	0	0	
14	0	0	0	0	581	483	0	425	0	0	
15	0	0	0	0	580	485	0	424	0	0	
0	0	0	0	0	577	483	0	421	0	0	
1	0	0	0	0	571	480	0	415	0	0	
2	0	0	0	0	565	474	0	409	0	0	
3	0	0	0	0	557	465	0	402	0	0	
4	0	0	0	0	549	456	0	394	0	0	
5	0	0	0	0	541	446	0	386	0	0	
6	0	0	0	0	534	436	0	379	0	0	
7	0	0	0	0	527	428	0	373	0	0	
8	0	0	0	0	523	422	0	369	0	0	
9	0	0	0	0	521	418	0	367	0	0	
10	0	0	0	0	521	416	0	367	0	0	
11	0	0	0	0	523	418	0	368	0	0	
12	0	0	0	0	527	423	0	373	0	0	
13	0	0	0	0	534	429	0	378	0	0	
14	0	0	0	0	540	436	0	384	0	0	
15	0	0	0	0	545	443	0	391	0	0	
0	0	0	0	0	550	449	0	396	0	0	
1	0	0	0	0	552	453	0	401	0	0	
2	0	0	0	0	552	454	0	404	0	0	
3	0	0	0	0	551	453	0	405	0	0	
4	0	0	0	0	547	449	0	404	0	0	
5	0	0	0	0	541	444	0	400	0	0	
6	0	0	0	0	534	436	0	395	0	0	
7	0	0	0	0	525	426	0	387	0	0	
8	0	0	0	0	517	416	0	379	0	0	
9	0	0	0	0	508	407	0	371	0	0	
10	0	0	0	0	503	399	0	363	0	0	
11	0	0	0	0	499	393	0	357	0	0	
12	0	0	0	0	496	389	0	352	0	0	
13	0	0	0	0	496	388	0	350	0	0	
14	0	0	0	0	499	390	0	350	0	0	
15	0	0	0	0	502	393	0	351	0	0	
0	0	0	0	0	507	399	0	355	0	0	
1	0	0	0	0	512	406	0	359	0	0	
2	0	0	0	0	519	414	0	366	0	0	
3	0	0	0	0	525	422	0	373	0	0	
4	0	0	0	0	532	431	0	380	0	0	
5	0	0	0	0	539	439	0	387	0	0	
6	0	0	0	0	545	446	0	393	0	0	
7	0	0	0	0	551	452	0	398	0	0	
8	0	0	0	0	557	457	0	400	0	0	
9	0	0	0	0	562	460	0	401	0	0	
10	0	0	0	0	567	462	0	401	0	0	
11	0	0	0	0	570	463	0	399	0	0	
12	0	0	0	0	573	463	0	395	0	0	
13	0	0	0	0	575	463	0	391	0	0	
14	0	0	0	0	577	461	0	385	0	0	
15	0	0	0	0	576	459	0	380	0	0	
0	0	0	0	0	574	455	0	375	0	0	
1	0	0	0	0	569	451	0	369	0	0	
2	0	0	0	0	561	446	0	365	0	0	
3	0	0	0	0	553	441	0	362	0	0	
4	0	0	0	0	543	435	0	360	0	0	
5	0	0	0	0	533	430	0	360	0	0	
6	0	0	0	0	524	426	0	362	0	0	
7	0	0	0	0	515	422	0	365	0	0	
8	0	0	0	0	509	420	0	369	0	0	
9	0	0	0	0	504	419	0	374	0	0	
10	0	0	0	0	502	418	0	379	0	0	
11	0	0	0	0	502	418	0	383	0	0	
12	0	0	0	0	502	418	0	385	0	0	
13	0	0	0	0	504	417	0	386	0	0	
14	0	0	0	0	507	415	0	385	0	0	
15	0	0	0	0	509	413	0	384	0	0	
0	0	0	0	0	513	410	0	380	0	0	
1	0	0	0	0	516	408	0	377	0	0	
2	0	0	0	0	519	407	0	374	0	0	
3	0	0	0	0	524	407	0	371	0	0	
4	0	0	0	0	529	408	0	369	0	0	
5	0	0	0	0	534	412	0	369	0	0	
6	0	0	0	0	540	417	0	370	0	0	
7	0	0	0	0	545	425	0	372	0	0	
8	0	0	0	0	551	432	0	375	0	0	
9	0	0	0	0	555	440	0	379	0	0	
10	0	0	0	0	558	447	0	383	0	0	
11	0	0	0	0	560	453	0	386	0	0	
12	0	0	0	0	560	457	0	389	0	0	
13	0	0	0	0	559	459	0	391	0	0	
14	0	0	0	0	555	458	0	391	0	0	
15	0	0	0	0	549	454	0	389	0	0	
0	0	0	0	0	541	448	0	386	0	0	
1	0	0	0	0	532	440	0	382	0	0	
2	0	0	0	0	523	430	0	376	0	0	
3	0	0	0	0	513	419	0	371	0	0	
4	0	0	0	0	505	409	0	365	0	0	
5	0	0	0	0	498	399	0	359	0	0	
6	0	0	0	0	494	391	0	353	0	0	
7	0	0	0	0	491	385	0	349	0	0	
8	0	0	0	0	490	382	0	346	0	0	
9	0	0	0	0	491	381	0	344	0	0	
10	0	0	0	0	494	382	0	344	0	0	
11	0	0	0	0	499	386	0	347	0	0	
12	0	0	0	0	505	393	0	350	0	0	
13	0	0	0	0	512	400	0	354	0	0	
14	0	0	0	0	519	409	0	360	0	0	
15	0	0	0	0	527	419	0	366	0	0	
0	0	0	0	0	535	429	0	372	0	0	
1	0	0	0	0	542	438	0	378	0	0	
2	0	0	0	0	548	446	0	383	0	0	
3	0	0	0	0	553	451	0	386	0	0	
4	0	0	0	0	555	453	0	388	0	0	
5	0	0	0	0	555	452	0	387	0	0	
6	0	0	0	0	551	447	0	384	0	0	
7	0	0	0	0	545	440	0	380	0	0	
8	0	0	0	0	537	431	0	375	0	0	
9	0	0	0	0	529	420	0	369	0	0	
10	0	0	0	0	521	411	0	363	0	0	
11	0	0	0	0	512	402	0	358	0	0	
12	0	0	0	0	505	395	0	354	0	0	
13	0	0	0	0	500	389	0	351	0	0	
14	0	0	0	0	497	387	0	350	0	0	
15	0	0	0	0	496	387	0	352	0	0	
0	0	0	0	0	497	391	0	355	0	0	
1	0	0	0	0	502	398	0	360	0	0	
2	0	0	0	0	508	406	0	367	0	0	
3	0	0	0	0	515	415	0	374	0	0	
4	0	0	0	0	523	424	0	380	0	0	
5	0	0	0	0	531	433	0	387	0	0	
6	0	0	0	0	537	441	0	392	0	0	
7	0	0	0	0	543	446	0	396	0	0	
8	0	0	0	0	548	449	0	398	0	0	
9	0	0	0	0	551	451	0	398	0	0	
10	0	0	0	0	551	449	0	396	0	0	
11	0	0	0	0	550	446	0	392	0	0	
12	0	0	0	0	548	441	0	387	0	0	
13	0	0	0	0	545	435	0	382	0	0	
14	0	0	0	0	542	430	0	377	0	0	
15	0	0	0	0	539	425	0	373	0	0	
0	0	0	0	0	536	420	0	369	0	0	
1	0	0	0	0	534	417	0	367	0	0	
2	0	0	0	0	533	416	0	366	0	0	
3	0	0	0	0	532	416	0	367	0	0	
4	0	0	0	0	534	419	0	369	0	0	
5	0	0	0	0	536	422	0	373	0	0	
6	0	0	0	0	539	428	0	377	0	0	
7	0	0	0	0	543	434	0	383	0	0	
8	0	0	0	0	547	440	0	387	0	0	
9	0	0	0	0	550	446	0	391	0	0	
10	0	0	0	0	553	451	0	395	0	0	
11	0	0	0	0	555	455	0	397	0	0	
12	0	0	0	0	556	456	0	397	0	0	
13	0	0	0	0	556	455	0	395	0	0	
14	0	0	0	0	553	452	0	392	0	0	
15	0	0	0	0	550	447	0	386	0	0	
0	0	0	0	0	544	440	0	380	0	0	
1	0	0	0	0	539	431	0	374	0	0	
2	0	0	0	0	534	423	0	366	0	0	
3	0	0	0	0	528	415	0	360	0	0	
4	0	0	0	0	524	408	0	356	0	0	
5	0	0	0	0	522	404	0	353	0	0	
6	0	0	0	0	521	403	0	353	0	0	
7	0	0	0	0	523	405	0	355	0	0	
8	0	0	0	0	526	409	0	358	0	0	
9	0	0	0	0	529	416	0	364	0	0	
10	0	0	0	0	535	424	0	369	0	0	
11	0	0	0	0	539	432	0	376	0	0	
12	0	0	0	0	544	440	0	382	0	0	
13	0	0	0	0	547	448	0	387	0	0	
14	0	0	0	0	550	453	0	391	0	0	
15	0	0	0	0	551	456	0	394	0	0	
0	0	0	0	0	551	457	0	394	0	0	
1	0	0	0	0	550	455	0	393	0	0	
2	0	0	0	0	547	451	0	390	0	0	
3	0	0	0	0	542	445	0	384	0	0	
4	0	0	0	0	536	436	0	378	0	0	
5	0	0	0	0	528	427	0	371	0	0	
6	0	0	0	0	522	417	0	364	0	0	
7	0	0	0	0	514	407	0	359	0	0	
8	0	0	0	0	508	399	0	354	0	0	
9	0	0	0	0	504	393	0	351	0	0	
10	0	0	0	0	501	390	0	351	0	0	
11	0	0	0	0	502	391	0	353	0	0	
12	0	0	0	0	505	394	0	358	0	0	
13	0	0	0	0	510	400	0	364	0	0	
14	0	0	0	0	515	408	0	371	0	0	
15	0	0	0	0	521	415	0	378	0	0	
0	0	0	0	0	527	423	0	385	0	0	
1	0	0	0	0	530	428	0	390	0	0	
2	0	0	0	0	532	432	0	394	0	0	
3	0	0	0	0	533	433	0	395	0	0	
4	0	0	0	0	531	432	0	394	0	0	
5	0	0	0	0	529	430	0	391	0	0	
6	0	0	0	0	526	425	0	388	0	0	
7	0	0	0	0	521	419	0	383	0	0	
8	0	0	0	0	518	412	0	377	0	0	
9	0	0	0	0	513	406	0	371	0	0	
10	0	0	0	0	510	399	0	365	0	0	
11	0	0	0	0	507	395	0	361	0	0	
12	0	0	0	0	505	391	0	358	0	0	
13	0	0	0	0	504	389	0	356	0	0	
14	0	0	0	0	504	389	0	356	0	0	
15	0	0	0	0	505	392	0	358	0	0	
0	0	0	0	0	508	396	0	362	0	0	
1	0	0	0	0	510	402	0	366	0	0	
2	0	0	0	0	513	408	0	371	0	0	
3	0	0	0	0	515	415	0	376	0	0	
4	0	0	0	0	519	422	0	380	0	0	
5	0	0	0	0	522	428	0	384	0	0	
6	0	0	0	0	525	434	0	387	0	0	
7	0	0	0	0	528	438	0	390	0	0	
8	0	0	0	0	531	441	0	391	0	0	
9	0	0	0	0	534	444	0	392	0	0	
10	0	0	0	0	536	444	0	391	0	0	
11	0	0	0	0	538	443	0	391	0	0	
12	0	0	0	0	539	441	0	388	0	0	
13	0	0	0	0	539	437	0	386	0	0	
14	0	0	0	0	539	433	0	384	0	0	
15	0	0	0	0	539	429	0	382	0	0	
0	0	0	0	0	538	425	0	380	0	0	
1	0	0	0	0	537	422	0	380	0	0	
2	0	0	0	0	537	421	0	380	0	0	
3	0	0	0	0	537	422	0	381	0	0	
4	0	0	0	0	538	423	0	384	0	0	
5	0	0	0	0	539	427	0	387	0	0	
6	0	0	0	0	540	431	0	392	0	0	
7	0	0	0	0	543	437	0	397	0	0	
8	0	0	0	0	546	443	0	402	0	0	
9	0	0	0	0	551	450	0	408	0	0	
10	0	0	0	0	555	455	0	412	0	0	
11	0	0	0	0	559	461	0	415	0	0	
12	0	0	0	0	563	465	0	417	0	0	
13	0	0	0	0	567	467	0	417	0	0	
14	0	0	0	0	569	468	0	415	0	0	
15	0	0	0	0	571	467	0	412	0	0	
0	0	0	0	0	571	463	0	409	0	0	
1	0	0	0	0	570	460	0	404	0	0	
2	0	0	0	0	568	455	0	399	0	0	
3	0	0	0	0	567	452	0	395	0	0	
4	0	0	0	0	564	449	0	391	0	0	
5	0	0	0	0	562	447	0	388	0	0	
6	0	0	0	0	560	446	0	387	0	0	
7	0	0	0	0	560	448	0	387	0	0	
8	0	0	0	0	559	450	0	388	0	0	
9	0	0	0	0	558	453	0	391	0	0	
10	0	0	0	0	557	457	0	394	0	0	
11	0	0	0	0	556	460	0	398	0	0	
12	0	0	0	0	556	463	0	401	0	0	
13	0	0	0	0	553	464	0	404	0	0	
14	0	0	0	0	551	463	0	406	0	0	
15	0	0	0	0	547	461	0	405	0	0	
0	0	0	0	0	543	456	0	404	0	0	
1	0	0	0	0	537	449	0	400	0	0	
2	0	0	0	0	530	440	0	395	0	0	
3	0	0	0	0	523	431	0	389	0	0	
4	0	0	0	0	516	420	0	382	0	0	
5	0	0	0	0	511	411	0	376	0	0	
6	0	0	0	0	507	403	0	371	0	0	
7	0	0	0	0	504	397	0	367	0	0	
8	0	0	0	0	504	394	0	366	0	0	
9	0	0	0	0	508	396	0	367	0	0	
10	0	0	0	0	514	400	0	371	0	0	
11	0	0	0	0	523	409	0	376	0	0	
12	0	0	0	0	534	420	0	384	0	0	
13	0	0	0	0	546	433	0	392	0	0	
14	0	0	0	0	558	447	0	400	0	0	
15	0	0	0	0	569	460	0	408	0	0	
0	0	0	0	0	579	472	0	414	0	0	
1	0	0	0	0	587	483	0	419	0	0	
2	0	0	0	0	593	491	0	421	0	0	
3	0	0	0	0	596	496	0	422	0	0	
4	0	0	0	0	597	498	0	420	0	0	
5	0	0	0	0	594	496	0	415	0	0	
6	0	0	0	0	588	489	0	409	0	0	
7	0	0	0	0	579	480	0	402	0	0	
8	0	0	0	0	568	468	0	393	0	0	
9	0	0	0	0	555	455	0	384	0	0	
10	0	0	0	0	542	441	0	376	0	0	
11	0	0	0	0	529	428	0	368	0	0	
12	0	0	0	0	519	417	0	362	0	0	
13	0	0	0	0	510	407	0	358	0	0	
14	0	0	0	0	503	401	0	355	0	0	
15	0	0	0	0	499	398	0	355	0	0	
0	0	0	0	0	498	399	0	356	0	0	
1	0	0	0	0	500	402	0	359	0	0	
2	0	0	0	0	506	408	0	364	0	0	
3	0	0	0	0	513	416	0	370	0	0	
4	0	0	0	0	521	425	0	376	0	0	
5	0	0	0	0	530	434	0	382	0	0	
6	0	0	0	0	537	441	0	386	0	0	
7	0	0	0	0	543	446	0	390	0	0	
8	0	0	0	0	546	447	0	390	0	0	
9	0	0	0	0	546	445	0	389	0	0	
10	0	0	0	0	543	440	0	385	0	0	
11	0	0	0	0	536	431	0	379	0	0	
12	0	0	0	0	527	420	0	372	0	0	
13	0	0	0	0	518	408	0	364	0	0	
14	0	0	0	0	508	396	0	357	0	0	
15	0	0	0	0	498	386	0	350	0	0	
0	0	0	0	0	490	378	0	345	0	0	
1	0	0	0	0	485	373	0	342	0	0	
2	0	0	0	0	484	372	0	343	0	0	
3	0	0	0	0	486	376	0	345	0	0	
4	0	0	0	0	492	384	0	352	0	0	
5	0	0	0	0	502	396	0	361	0	0	
6	0	0	0	0	513	410	0	371	0	0	
7	0	0	0	0	525	425	0	382	0	0	
8	0	0	0	0	538	440	0	393	0	0	
9	0	0	0	0	549	453	0	402	0	0	
10	0	0	0	0	558	463	0	409	0	0	
11	0	0	0	0	563	469	0	414	0	0	
12	0	0	0	0	566	472	0	415	0	0	
13	0	0	0	0	568	472	0	414	0	0	
14	0	0	0	0	566	468	0	411	0	0	
15	0	0	0	0	562	463	0	405	0	0	
0	0	0	0	0	558	456	0	398	0	0	
1	0	0	0	0	552	448	0	391	0	0	
2	0	0	0	0	546	439	0	383	0	0	
3	0	0	0	0	541	432	0	376	0	0	
