# OpenSignals Text File Format. Version 1
# {"": {"position": 0, "device": "", "device name": "", "device connection": "", "sampling rate": 1000, "resolution": [4, 1, 1, 1, 1, 10, 10, 10, 10, 6, 6], "firmware version": 1281, "comments": "", "keywords": "", "mode": 0, "sync interval": 2, "date": "", "time": "", "channels": [1, 2, 3, 4, 5, 6], "sensor": ["RAW", "RAW", "RAW", "RAW", "RAW", "RAW"], "label": ["A1", "A2", "A3", "A4", "A5", "A6"], "column": ["nSeq", "I1", "I2", "O1", "O2", "A1", "A2", "A3", "A4", "A5", "A6"], "special": [{}, {}, {}, {}, {}, {}], "digital IO": [0, 0, 1, 1]}}
# EndOfHeader
0	0	0	0	0	566	465	1021	488	0	0	
1	0	0	0	0	564	446	1021	486	0	0	
2	0	0	0	0	559	428	1021	479	0	0	
3	0	0	0	0	548	414	1021	470	0	0	
4	0	0	0	0	536	406	1021	460	0	0	
5	0	0	0	0	522	403	1021	450	0	0	
6	0	0	0	0	507	406	1021	440	0	0	
7	0	0	0	0	493	414	1021	430	0	0	
8	0	0	0	0	482	429	1021	423	0	0	
9	0	0	0	0	474	447	1021	419	0	0	
10	0	0	0	0	471	467	1021	419	0	0	
11	0	0	0	0	472	488	1021	422	0	0	
12	0	0	0	0	479	506	1021	428	0	0	
13	0	0	0	0	489	520	1021	436	0	0	
14	0	0	0	0	503	529	1021	446	0	0	
15	0	0	0	0	518	532	1021	457	0	0	
0	0	0	0	0	532	528	1021	467	0	0	
1	0	0	0	0	546	519	1021	476	0	0	
2	0	0	0	0	557	504	1021	481	0	0	
3	0	0	0	0	564	487	1021	484	0	0	
4	0	0	0	0	568	466	1021	484	0	0	
5	0	0	0	0	566	445	1021	480	0	0	
6	0	0	0	0	559	426	1021	472	0	0	
7	0	0	0	0	548	411	1021	463	0	0	
8	0	0	0	0	535	401	1021	451	0	0	
9	0	0	0	0	519	397	1021	439	0	0	
10	0	0	0	0	504	399	1021	428	0	0	
11	0	0	0	0	488	408	1021	419	0	0	
12	0	0	0	0	476	421	1021	412	0	0	
13	0	0	0	0	467	440	1021	408	0	0	
14	0	0	0	0	463	460	1021	408	0	0	
15	0	0	0	0	463	480	1021	410	0	0	
0	0	0	0	0	468	498	1021	417	0	0	
1	0	0	0	0	477	512	1021	425	0	0	
2	0	0	0	0	490	521	1021	435	0	0	
3	0	0	0	0	504	524	1021	446	0	0	
4	0	0	0	0	519	520	1021	455	0	0	
5	0	0	0	0	533	511	1021	464	0	0	
6	0	0	0	0	544	496	1021	470	0	0	
7	0	0	0	0	552	477	1021	473	0	0	
8	0	0	0	0	556	456	1021	473	0	0	
9	0	0	0	0	555	435	1021	470	0	0	
10	0	0	0	0	549	416	1021	463	0	0	
11	0	0	0	0	539	400	1021	454	0	0	
12	0	0	0	0	526	391	1021	444	0	0	
13	0	0	0	0	511	387	1021	433	0	0	
14	0	0	0	0	496	390	1021	423	0	0	
15	0	0	0	0	482	399	1021	414	0	0	
0	0	0	0	0	470	414	1021	407	0	0	
1	0	0	0	0	462	432	1021	402	0	0	
2	0	0	0	0	457	453	1021	402	0	0	
3	0	0	0	0	458	474	1021	404	0	0	
4	0	0	0	0	463	493	1021	411	0	0	
5	0	0	0	0	473	507	1021	419	0	0	
6	0	0	0	0	485	517	1021	430	0	0	
7	0	0	0	0	499	519	1021	441	0	0	
8	0	0	0	0	514	516	1021	452	0	0	
9	0	0	0	0	528	507	1021	461	0	0	
10	0	0	0	0	539	492	1021	468	0	0	
11	0	0	0	0	548	474	1021	473	0	0	
12	0	0	0	0	552	453	1021	474	0	0	
13	0	0	0	0	552	432	1021	472	0	0	
14	0	0	0	0	547	414	1021	467	0	0	
15	0	0	0	0	539	400	1021	459	0	0	
0	0	0	0	0	528	392	1021	450	0	0	
1	0	0	0	0	515	390	1021	441	0	0	
2	0	0	0	0	502	394	1021	432	0	0	
3	0	0	0	0	490	405	1021	423	0	0	
4	0	0	0	0	479	421	1021	417	0	0	
5	0	0	0	0	472	440	1021	414	0	0	
6	0	0	0	0	470	463	1021	415	0	0	
7	0	0	0	0	471	484	1021	418	0	0	
8	0	0	0	0	477	503	1021	424	0	0	
9	0	0	0	0	486	518	1021	432	0	0	
10	0	0	0	0	499	527	1021	442	0	0	
11	0	0	0	0	513	530	1021	452	0	0	
12	0	0	0	0	528	527	1021	463	0	0	
13	0	0	0	0	542	518	1021	472	0	0	
14	0	0	0	0	553	502	1021	478	0	0	
15	0	0	0	0	561	484	1021	481	0	0	
0	0	0	0	0	566	464	1021	482	0	0	
1	0	0	0	0	564	443	1021	479	0	0	
2	0	0	0	0	560	425	1021	473	0	0	
3	0	0	0	0	550	410	1021	464	0	0	
4	0	0	0	0	538	401	1021	455	0	0	
5	0	0	0	0	524	398	1021	444	0	0	
6	0	0	0	0	510	401	1021	435	0	0	
7	0	0	0	0	496	410	1021	426	0	0	
8	0	0	0	0	484	424	1021	420	0	0	
9	0	0	0	0	476	444	1021	417	0	0	
10	0	0	0	0	472	465	1021	417	0	0	
11	0	0	0	0	473	486	1021	421	0	0	
12	0	0	0	0	479	505	1021	428	0	0	
13	0	0	0	0	487	519	1021	436	0	0	
14	0	0	0	0	500	530	1021	447	0	0	
15	0	0	0	0	514	533	1021	457	0	0	
0	0	0	0	0	528	530	1021	468	0	0	
1	0	0	0	0	543	521	1021	477	0	0	
2	0	0	0	0	554	507	1020	483	0	0	
3	0	0	0	0	562	488	1021	486	0	0	
4	0	0	0	0	566	467	1021	487	0	0	
5	0	0	0	0	564	446	1021	482	0	0	
6	0	0	0	0	559	427	1021	476	0	0	
7	0	0	0	0	548	411	1021	466	0	0	
8	0	0	0	0	536	401	1021	455	0	0	
9	0	0	0	0	520	396	1021	443	0	0	
10	0	0	0	0	505	398	1021	431	0	0	
11	0	0	0	0	490	406	1021	421	0	0	
12	0	0	0	0	477	419	1021	413	0	0	
13	0	0	0	0	468	438	1021	409	0	0	
14	0	0	0	0	464	457	1021	408	0	0	
15	0	0	0	0	465	478	1021	412	0	0	
0	0	0	0	0	470	496	1021	418	0	0	
1	0	0	0	0	479	510	1021	427	0	0	
2	0	0	0	0	492	520	1021	438	0	0	
3	0	0	0	0	507	524	1021	449	0	0	
4	0	0	0	0	521	521	1021	461	0	0	
5	0	0	0	0	536	512	1021	471	0	0	
6	0	0	0	0	547	499	1021	479	0	0	
7	0	0	0	0	556	481	1021	483	0	0	
8	0	0	0	0	560	461	1021	484	0	0	
9	0	0	0	0	561	440	1021	482	0	0	
10	0	0	0	0	556	422	1021	476	0	0	
11	0	0	0	0	547	407	1021	467	0	0	
12	0	0	0	0	536	398	1021	456	0	0	
13	0	0	0	0	521	394	1021	446	0	0	
14	0	0	0	0	507	397	1021	435	0	0	
15	0	0	0	0	493	405	1021	425	0	0	
0	0	0	0	0	481	420	1021	417	0	0	
1	0	0	0	0	473	438	1021	413	0	0	
2	0	0	0	0	468	458	1021	412	0	0	
3	0	0	0	0	469	480	1021	415	0	0	
4	0	0	0	0	474	498	1021	421	0	0	
5	0	0	0	0	483	513	1021	429	0	0	
6	0	0	0	0	496	523	1021	439	0	0	
7	0	0	0	0	510	527	1021	450	0	0	
8	0	0	0	0	525	524	1021	460	0	0	
9	0	0	0	0	538	515	1021	469	0	0	
10	0	0	0	0	548	499	1021	475	0	0	
11	0	0	0	0	556	480	1021	478	0	0	
12	0	0	0	0	557	457	1021	476	0	0	
13	0	0	0	0	554	434	1021	470	0	0	
14	0	0	0	0	544	411	1021	460	0	0	
15	0	0	0	0	530	391	1021	447	0	0	
0	0	0	0	0	512	376	1021	432	0	0	
1	0	0	0	0	492	366	1021	415	0	0	
2	0	0	0	0	470	362	1021	397	0	0	
3	0	0	0	0	448	363	1021	380	0	0	
4	0	0	0	0	427	368	1021	364	0	0	
5	0	0	0	0	408	379	1021	351	0	0	
6	0	0	0	0	395	391	1021	341	0	0	
7	0	0	0	0	385	403	1021	334	0	0	
8	0	0	0	0	379	414	1020	329	0	0	
9	0	0	0	0	379	419	1021	329	0	0	
10	0	0	0	0	382	422	1021	329	0	0	
11	0	0	0	0	387	416	1021	330	0	0	
12	0	0	0	0	393	405	1021	331	0	0	
13	0	0	0	0	398	387	1021	331	0	0	
14	0	0	0	0	401	363	1021	328	0	0	
15	0	0	0	0	401	334	1021	322	0	0	
0	0	0	0	0	396	303	1021	312	0	0	
1	0	0	0	0	387	271	1021	299	0	0	
2	0	0	0	0	372	240	1021	283	0	0	
3	0	0	0	0	354	213	1021	264	0	0	
4	0	0	0	0	334	192	1021	245	0	0	
5	0	0	0	0	313	179	1021	227	0	0	
6	0	0	0	0	293	174	1021	211	0	0	
7	0	0	0	0	276	179	1021	199	0	0	
8	0	0	0	0	265	192	1021	193	0	0	
9	0	0	0	0	259	215	1021	192	0	0	
10	0	0	0	0	261	244	1021	200	0	0	
11	0	0	0	0	272	278	1021	214	0	0	
12	0	0	0	0	291	313	1021	235	0	0	
13	0	0	0	0	318	347	1021	262	0	0	
14	0	0	0	0	351	379	1021	291	0	0	
15	0	0	0	0	387	406	1021	324	0	0	
0	0	0	0	0	426	426	1021	358	0	0	
1	0	0	0	0	463	439	1021	390	0	0	
2	0	0	0	0	498	446	1021	419	0	0	
3	0	0	0	0	528	447	1021	444	0	0	
4	0	0	0	0	552	442	1021	463	0	0	
5	0	0	0	0	568	435	1021	476	0	0	
6	0	0	0	0	576	426	1021	484	0	0	
7	0	0	0	0	576	419	1021	485	0	0	
8	0	0	0	0	570	414	1021	481	0	0	
9	0	0	0	0	558	414	1021	475	0	0	
10	0	0	0	0	543	417	1021	466	0	0	
11	0	0	0	0	527	426	1021	456	0	0	
12	0	0	0	0	510	438	1021	447	0	0	
13	0	0	0	0	496	455	1021	439	0	0	
14	0	0	0	0	486	473	1021	434	0	0	
15	0	0	0	0	480	492	1021	432	0	0	
0	0	0	0	0	480	508	1021	433	0	0	
1	0	0	0	0	484	521	1021	437	0	0	
2	0	0	0	0	493	530	1021	443	0	0	
3	0	0	0	0	505	533	1021	451	0	0	
4	0	0	0	0	519	530	1021	460	0	0	
5	0	0	0	0	532	522	1020	469	0	0	
6	0	0	0	0	546	509	1020	476	0	0	
7	0	0	0	0	557	492	1021	482	0	0	
8	0	0	0	0	565	473	1021	485	0	0	
9	0	0	0	0	568	454	1020	485	0	0	
10	0	0	0	0	566	436	1021	482	0	0	
11	0	0	0	0	560	422	1021	476	0	0	
12	0	0	0	0	551	413	1021	467	0	0	
13	0	0	0	0	539	409	1021	459	0	0	
14	0	0	0	0	525	412	1021	449	0	0	
15	0	0	0	0	511	421	1021	441	0	0	
0	0	0	0	0	499	435	1021	435	0	0	
1	0	0	0	0	489	454	1021	430	0	0	
2	0	0	0	0	484	475	1021	429	0	0	
3	0	0	0	0	483	495	1021	431	0	0	
4	0	0	0	0	487	514	1021	437	0	0	
5	0	0	0	0	495	529	1021	445	0	0	
6	0	0	0	0	506	540	1021	454	0	0	
7	0	0	0	0	520	545	1021	465	0	0	
8	0	0	0	0	535	543	1021	476	0	0	
9	0	0	0	0	550	536	1021	486	0	0	
10	0	0	0	0	562	524	1021	493	0	0	
11	0	0	0	0	573	507	1021	498	0	0	
12	0	0	0	0	579	487	1021	499	0	0	
13	0	0	0	0	580	468	1021	497	0	0	
14	0	0	0	0	576	449	1021	492	0	0	
15	0	0	0	0	568	434	1021	483	0	0	
0	0	0	0	0	556	425	1021	473	0	0	
1	0	0	0	0	543	420	1021	463	0	0	
2	0	0	0	0	528	422	1021	452	0	0	
3	0	0	0	0	513	430	1020	442	0	0	
4	0	0	0	0	500	442	1021	435	0	0	
5	0	0	0	0	491	459	1021	431	0	0	
6	0	0	0	0	486	479	1021	430	0	0	
7	0	0	0	0	485	499	1021	432	0	0	
8	0	0	0	0	489	517	1021	438	0	0	
9	0	0	0	0	498	532	1021	446	0	0	
10	0	0	0	0	511	542	1021	456	0	0	
11	0	0	0	0	524	546	1021	467	0	0	
12	0	0	0	0	540	544	1021	478	0	0	
13	0	0	0	0	553	535	1021	487	0	0	
14	0	0	0	0	565	523	1021	494	0	0	
15	0	0	0	0	575	505	1021	498	0	0	
0	0	0	0	0	579	486	1021	499	0	0	
1	0	0	0	0	579	466	1021	496	0	0	
2	0	0	0	0	574	448	1021	490	0	0	
3	0	0	0	0	564	433	1021	481	0	0	
4	0	0	0	0	552	423	1021	471	0	0	
5	0	0	0	0	538	419	1021	460	0	0	
6	0	0	0	0	523	421	1021	449	0	0	
7	0	0	0	0	508	429	1021	440	0	0	
8	0	0	0	0	495	443	1021	433	0	0	
9	0	0	0	0	486	460	1021	429	0	0	
10	0	0	0	0	481	480	1021	428	0	0	
11	0	0	0	0	480	500	1021	431	0	0	
12	0	0	0	0	485	518	1021	436	0	0	
13	0	0	0	0	494	532	1021	445	0	0	
14	0	0	0	0	506	543	1021	455	0	0	
15	0	0	0	0	521	547	1021	465	0	0	
0	0	0	0	0	536	544	1021	476	0	0	
1	0	0	0	0	550	536	1021	485	0	0	
2	0	0	0	0	562	523	1021	492	0	0	
3	0	0	0	0	572	504	1021	496	0	0	
4	0	0	0	0	576	484	1021	496	0	0	
5	0	0	0	0	576	463	1021	494	0	0	
6	0	0	0	0	571	443	1021	487	0	0	
7	0	0	0	0	561	428	1021	478	0	0	
8	0	0	0	0	549	416	1021	468	0	0	
9	0	0	0	0	534	411	1021	457	0	0	
10	0	0	0	0	518	412	1021	446	0	0	
11	0	0	0	0	504	419	1021	437	0	0	
12	0	0	0	0	491	433	1021	430	0	0	
13	0	0	0	0	482	450	1021	425	0	0	
14	0	0	0	0	477	470	1021	424	0	0	
15	0	0	0	0	478	491	1021	427	0	0	
0	0	0	0	0	483	509	1021	433	0	0	
1	0	0	0	0	492	525	1021	441	0	0	
2	0	0	0	0	505	536	1021	451	0	0	
3	0	0	0	0	519	540	1021	462	0	0	
4	0	0	0	0	534	539	1021	472	0	0	
5	0	0	0	0	548	531	1021	481	0	0	
6	0	0	0	0	560	519	1020	488	0	0	
7	0	0	0	0	568	501	1021	492	0	0	
8	0	0	0	0	573	481	1021	494	0	0	
9	0	0	0	0	572	461	1021	491	0	0	
10	0	0	0	0	567	442	1021	485	0	0	
11	0	0	0	0	557	426	1021	477	0	0	
12	0	0	0	0	544	416	1021	467	0	0	
13	0	0	0	0	530	411	1021	456	0	0	
14	0	0	0	0	514	412	1021	445	0	0	
15	0	0	0	0	499	420	1021	435	0	0	
0	0	0	0	0	486	433	1021	428	0	0	
1	0	0	0	0	477	451	1021	422	0	0	
2	0	0	0	0	472	471	1021	421	0	0	
3	0	0	0	0	472	491	1021	422	0	0	
4	0	0	0	0	476	509	1021	427	0	0	
5	0	0	0	0	485	525	1021	434	0	0	
6	0	0	0	0	498	535	1021	443	0	0	
7	0	0	0	0	512	539	1021	454	0	0	
8	0	0	0	0	527	536	1021	463	0	0	
9	0	0	0	0	542	528	1021	472	0	0	
10	0	0	0	0	554	515	1021	480	0	0	
11	0	0	0	0	564	498	1021	483	0	0	
12	0	0	0	0	569	478	1021	485	0	0	
13	0	0	0	0	570	457	1021	483	0	0	
14	0	0	0	0	565	438	1021	478	0	0	
15	0	0	0	0	556	423	1021	470	0	0	
0	0	0	0	0	545	413	1021	461	0	0	
1	0	0	0	0	531	409	1021	451	0	0	
2	0	0	0	0	516	411	1021	442	0	0	
3	0	0	0	0	503	419	1021	433	0	0	
4	0	0	0	0	490	433	1021	427	0	0	
5	0	0	0	0	481	451	1021	423	0	0	
6	0	0	0	0	477	472	1021	422	0	0	
7	0	0	0	0	477	493	1021	425	0	0	
8	0	0	0	0	482	512	1021	430	0	0	
9	0	0	0	0	491	527	1021	437	0	0	
10	0	0	0	0	503	537	1021	446	0	0	
11	0	0	0	0	517	541	1021	456	0	0	
12	0	0	0	0	531	539	1021	466	0	0	
13	0	0	0	0	545	530	1021	475	0	0	
14	0	0	0	0	556	516	1020	481	0	0	
15	0	0	0	0	564	498	1021	485	0	0	
0	0	0	0	0	568	478	1021	486	0	0	
1	0	0	0	0	568	457	1021	483	0	0	
2	0	0	0	0	562	438	1021	476	0	0	
3	0	0	0	0	551	423	1021	468	0	0	
4	0	0	0	0	540	412	1021	457	0	0	
5	0	0	0	0	525	408	1021	447	0	0	
6	0	0	0	0	510	410	1021	436	0	0	
7	0	0	0	0	496	417	1021	427	0	0	
8	0	0	0	0	483	431	1021	419	0	0	
9	0	0	0	0	474	448	1021	414	0	0	
10	0	0	0	0	470	468	1021	412	0	0	
11	0	0	0	0	470	488	1021	414	0	0	
12	0	0	0	0	475	507	1020	420	0	0	
13	0	0	0	0	484	521	1021	428	0	0	
14	0	0	0	0	497	532	1021	438	0	0	
15	0	0	0	0	512	536	1021	450	0	0	
0	0	0	0	0	527	535	1021	460	0	0	
1	0	0	0	0	541	526	1021	471	0	0	
2	0	0	0	0	553	513	1021	479	0	0	
3	0	0	0	0	562	496	1021	483	0	0	
4	0	0	0	0	567	476	1021	485	0	0	
5	0	0	0	0	567	455	1021	483	0	0	
6	0	0	0	0	561	435	1020	476	0	0	
7	0	0	0	0	552	419	1021	468	0	0	
8	0	0	0	0	540	409	1021	457	0	0	
9	0	0	0	0	526	404	1021	446	0	0	
10	0	0	0	0	511	406	1021	435	0	0	
11	0	0	0	0	496	413	1021	424	0	0	
12	0	0	0	0	483	426	1021	417	0	0	
13	0	0	0	0	474	444	1021	411	0	0	
14	0	0	0	0	469	464	1021	409	0	0	
15	0	0	0	0	468	484	1021	411	0	0	
0	0	0	0	0	472	503	1020	417	0	0	
1	0	0	0	0	480	518	1020	424	0	0	
2	0	0	0	0	492	528	1021	434	0	0	
3	0	0	0	0	505	532	1021	445	0	0	
4	0	0	0	0	519	529	1021	455	0	0	
5	0	0	0	0	531	520	1020	464	0	0	
6	0	0	0	0	542	505	1021	472	0	0	
7	0	0	0	0	550	487	1021	475	0	0	
8	0	0	0	0	553	466	1021	476	0	0	
9	0	0	0	0	552	444	1021	472	0	0	
10	0	0	0	0	547	425	1021	466	0	0	
11	0	0	0	0	538	409	1021	457	0	0	
12	0	0	0	0	526	397	1021	446	0	0	
13	0	0	0	0	512	392	1021	435	0	0	
14	0	0	0	0	498	394	1021	423	0	0	
15	0	0	0	0	484	402	1021	414	0	0	
0	0	0	0	0	472	416	1021	406	0	0	
1	0	0	0	0	465	435	1021	402	0	0	
2	0	0	0	0	461	456	1021	401	0	0	
3	0	0	0	0	462	479	1021	404	0	0	
4	0	0	0	0	468	499	1021	410	0	0	
5	0	0	0	0	478	515	1021	419	0	0	
6	0	0	0	0	491	527	1021	430	0	0	
7	0	0	0	0	505	531	1021	441	0	0	
8	0	0	0	0	520	529	1021	452	0	0	
9	0	0	0	0	535	521	1021	462	0	0	
10	0	0	0	0	547	507	1021	469	0	0	
11	0	0	0	0	556	489	1021	474	0	0	
12	0	0	0	0	561	467	1021	476	0	0	
13	0	0	0	0	561	446	1021	473	0	0	
14	0	0	0	0	556	427	1021	468	0	0	
15	0	0	0	0	547	410	1021	461	0	0	
0	0	0	0	0	535	400	1021	451	0	0	
1	0	0	0	0	520	395	1021	440	0	0	
2	0	0	0	0	505	396	1021	430	0	0	
3	0	0	0	0	489	404	1021	420	0	0	
4	0	0	0	0	476	417	1021	412	0	0	
5	0	0	0	0	467	436	1021	407	0	0	
6	0	0	0	0	461	455	1021	406	0	0	
7	0	0	0	0	460	477	1021	408	0	0	
8	0	0	0	0	465	496	1021	413	0	0	
9	0	0	0	0	473	512	1020	421	0	0	
10	0	0	0	0	486	523	1021	431	0	0	
11	0	0	0	0	500	527	1021	442	0	0	
12	0	0	0	0	515	526	1021	453	0	0	
13	0	0	0	0	530	518	1021	463	0	0	
14	0	0	0	0	543	504	1021	471	0	0	
15	0	0	0	0	553	488	1021	476	0	0	
0	0	0	0	0	559	468	1021	478	0	0	
1	0	0	0	0	560	448	1021	476	0	0	
2	0	0	0	0	557	429	1021	471	0	0	
3	0	0	0	0	549	413	1021	464	0	0	
4	0	0	0	0	539	403	1021	455	0	0	
5	0	0	0	0	526	399	1021	444	0	0	
6	0	0	0	0	512	400	1021	434	0	0	
7	0	0	0	0	498	408	1021	424	0	0	
8	0	0	0	0	486	422	1021	416	0	0	
9	0	0	0	0	478	440	1021	412	0	0	
10	0	0	0	0	473	460	1021	411	0	0	
11	0	0	0	0	473	482	1021	412	0	0	
12	0	0	0	0	478	502	1021	418	0	0	
13	0	0	0	0	486	517	1021	426	0	0	
14	0	0	0	0	497	528	1021	435	0	0	
15	0	0	0	0	511	533	1021	447	0	0	
0	0	0	0	0	526	532	1021	457	0	0	
1	0	0	0	0	539	524	1021	467	0	0	
2	0	0	0	0	551	510	1021	475	0	0	
3	0	0	0	0	560	493	1021	480	0	0	
4	0	0	0	0	565	474	1021	482	0	0	
5	0	0	0	0	565	454	1021	481	0	0	
6	0	0	0	0	561	435	1021	476	0	0	
7	0	0	0	0	552	419	1021	469	0	0	
8	0	0	0	0	540	409	1021	459	0	0	
9	0	0	0	0	526	406	1021	449	0	0	
10	0	0	0	0	511	407	1021	438	0	0	
11	0	0	0	0	497	415	1021	429	0	0	
12	0	0	0	0	485	428	1021	421	0	0	
13	0	0	0	0	476	447	1021	415	0	0	
14	0	0	0	0	471	467	1021	414	0	0	
15	0	0	0	0	472	490	1021	416	0	0	
0	0	0	0	0	477	510	1021	421	0	0	
1	0	0	0	0	487	527	1021	429	0	0	
2	0	0	0	0	500	538	1021	440	0	0	
3	0	0	0	0	515	544	1021	451	0	0	
4	0	0	0	0	531	543	1021	462	0	0	
5	0	0	0	0	546	536	1021	472	0	0	
6	0	0	0	0	559	521	1021	480	0	0	
7	0	0	0	0	568	504	1021	484	0	0	
8	0	0	0	0	573	483	1021	486	0	0	
9	0	0	0	0	573	462	1021	484	0	0	
10	0	0	0	0	568	442	1021	480	0	0	
11	0	0	0	0	559	426	1021	472	0	0	
12	0	0	0	0	547	414	1021	463	0	0	
13	0	0	0	0	533	408	1021	454	0	0	
14	0	0	0	0	518	409	1021	444	0	0	
15	0	0	0	0	504	417	1021	435	0	0	
0	0	0	0	0	492	430	1021	428	0	0	
1	0	0	0	0	482	448	1021	424	0	0	
2	0	0	0	0	477	468	1021	423	0	0	
3	0	0	0	0	476	489	1021	426	0	0	
4	0	0	0	0	481	509	1021	431	0	0	
5	0	0	0	0	489	525	1021	439	0	0	
6	0	0	0	0	502	537	1021	449	0	0	
7	0	0	0	0	516	542	1021	460	0	0	
8	0	0	0	0	531	541	1021	470	0	0	
9	0	0	0	0	546	534	1021	480	0	0	
10	0	0	0	0	558	521	1021	487	0	0	
11	0	0	0	0	568	505	1021	492	0	0	
12	0	0	0	0	573	485	1021	493	0	0	
13	0	0	0	0	574	464	1021	491	0	0	
14	0	0	0	0	569	445	1021	486	0	0	
15	0	0	0	0	561	429	1021	479	0	0	
0	0	0	0	0	550	419	1021	469	0	0	
1	0	0	0	0	537	414	1021	459	0	0	
2	0	0	0	0	522	416	1021	449	0	0	
3	0	0	0	0	509	424	1021	440	0	0	
4	0	0	0	0	497	436	1021	433	0	0	
5	0	0	0	0	489	455	1021	428	0	0	
6	0	0	0	0	484	476	1021	427	0	0	
7	0	0	0	0	485	497	1021	430	0	0	
8	0	0	0	0	490	517	1021	435	0	0	
9	0	0	0	0	499	534	1021	443	0	0	
10	0	0	0	0	511	545	1021	453	0	0	
11	0	0	0	0	526	550	1021	464	0	0	
12	0	0	0	0	541	548	1021	475	0	0	
13	0	0	0	0	555	541	1021	484	0	0	
14	0	0	0	0	567	528	1021	492	0	0	
15	0	0	0	0	576	511	1021	496	0	0	
0	0	0	0	0	581	491	1021	497	0	0	
1	0	0	0	0	581	470	1021	496	0	0	
2	0	0	0	0	576	451	1021	490	0	0	
3	0	0	0	0	567	434	1021	482	0	0	
4	0	0	0	0	554	423	1021	471	0	0	
5	0	0	0	0	539	416	1021	460	0	0	
6	0	0	0	0	523	416	1021	449	0	0	
7	0	0	0	0	507	423	1021	439	0	0	
8	0	0	0	0	494	435	1021	430	0	0	
9	0	0	0	0	483	451	1021	425	0	0	
10	0	0	0	0	478	471	1021	423	0	0	
11	0	0	0	0	477	492	1021	425	0	0	
12	0	0	0	0	481	511	1021	430	0	0	
13	0	0	0	0	491	527	1021	438	0	0	
14	0	0	0	0	504	539	1021	448	0	0	
15	0	0	0	0	518	544	1021	459	0	0	
0	0	0	0	0	534	543	1021	470	0	0	
1	0	0	0	0	549	537	1021	480	0	0	
2	0	0	0	0	562	524	1020	487	0	0	
3	0	0	0	0	572	508	1021	492	0	0	
4	0	0	0	0	578	488	1021	494	0	0	
5	0	0	0	0	579	468	1021	492	0	0	
6	0	0	0	0	575	449	1021	487	0	0	
7	0	0	0	0	566	432	1021	479	0	0	
8	0	0	0	0	555	422	1021	470	0	0	
9	0	0	0	0	541	417	1021	459	0	0	
10	0	0	0	0	526	417	1021	448	0	0	
11	0	0	0	0	511	424	1021	440	0	0	
12	0	0	0	0	499	437	1021	432	0	0	
13	0	0	0	0	489	455	1021	426	0	0	
14	0	0	0	0	483	475	1021	424	0	0	
15	0	0	0	0	482	495	1021	427	0	0	
0	0	0	0	0	486	515	1021	431	0	0	
1	0	0	0	0	494	529	1021	440	0	0	
2	0	0	0	0	505	541	1021	449	0	0	
3	0	0	0	0	519	545	1021	460	0	0	
4	0	0	0	0	534	544	1021	470	0	0	
5	0	0	0	0	547	536	1021	480	0	0	
6	0	0	0	0	559	523	1021	487	0	0	
7	0	0	0	0	569	505	1021	491	0	0	
8	0	0	0	0	573	485	1021	492	0	0	
9	0	0	0	0	574	464	1021	490	0	0	
10	0	0	0	0	569	445	1021	484	0	0	
11	0	0	0	0	560	428	1021	476	0	0	
12	0	0	0	0	549	418	1021	465	0	0	
13	0	0	0	0	535	412	1021	454	0	0	
14	0	0	0	0	520	414	1021	444	0	0	
15	0	0	0	0	507	422	1021	434	0	0	
0	0	0	0	0	494	435	1021	427	0	0	
1	0	0	0	0	486	453	1021	422	0	0	
2	0	0	0	0	481	473	1021	420	0	0	
3	0	0	0	0	481	495	1021	423	0	0	
4	0	0	0	0	486	515	1021	429	0	0	
5	0	0	0	0	495	531	1021	436	0	0	
6	0	0	0	0	508	543	1021	447	0	0	
7	0	0	0	0	522	547	1021	459	0	0	
8	0	0	0	0	537	547	1021	470	0	0	
9	0	0	0	0	551	540	1021	480	0	0	
10	0	0	0	0	563	527	1021	488	0	0	
11	0	0	0	0	573	511	1021	493	0	0	
12	0	0	0	0	577	490	1021	495	0	0	
13	0	0	0	0	577	470	1021	492	0	0	
14	0	0	0	0	572	449	1021	487	0	0	
15	0	0	0	0	562	432	1021	479	0	0	
0	0	0	0	0	550	422	1021	468	0	0	
1	0	0	0	0	535	415	1021	457	0	0	
2	0	0	0	0	519	415	1021	446	0	0	
3	0	0	0	0	504	422	1021	436	0	0	
4	0	0	0	0	491	433	1021	428	0	0	
5	0	0	0	0	481	450	1021	423	0	0	
6	0	0	0	0	476	471	1021	422	0	0	
7	0	0	0	0	476	491	1021	423	0	0	
8	0	0	0	0	480	511	1020	428	0	0	
9	0	0	0	0	489	526	1021	436	0	0	
10	0	0	0	0	502	539	1021	446	0	0	
11	0	0	0	0	516	543	1021	456	0	0	
12	0	0	0	0	531	543	1021	467	0	0	
13	0	0	0	0	546	536	1021	476	0	0	
14	0	0	0	0	559	523	1021	483	0	0	
15	0	0	0	0	568	507	1021	487	0	0	
0	0	0	0	0	574	487	1021	489	0	0	
1	0	0	0	0	575	466	1021	487	0	0	
2	0	0	0	0	570	447	1021	481	0	0	
3	0	0	0	0	562	431	1021	473	0	0	
4	0	0	0	0	550	420	1021	463	0	0	
5	0	0	0	0	536	414	1021	454	0	0	
6	0	0	0	0	521	415	1021	444	0	0	
7	0	0	0	0	507	422	1021	435	0	0	
8	0	0	0	0	494	434	1021	428	0	0	
9	0	0	0	0	485	452	1021	423	0	0	
10	0	0	0	0	480	472	1021	423	0	0	
11	0	0	0	0	479	493	1021	426	0	0	
12	0	0	0	0	484	513	1021	432	0	0	
13	0	0	0	0	493	529	1021	440	0	0	
14	0	0	0	0	505	541	1021	450	0	0	
15	0	0	0	0	519	547	1021	461	0	0	
0	0	0	0	0	534	546	1021	472	0	0	
1	0	0	0	0	547	538	1021	481	0	0	
2	0	0	0	0	559	525	1021	487	0	0	
3	0	0	0	0	567	507	1021	492	0	0	
4	0	0	0	0	572	486	1021	492	0	0	
5	0	0	0	0	572	465	1021	489	0	0	
6	0	0	0	0	567	444	1021	484	0	0	
7	0	0	0	0	558	428	1021	476	0	0	
8	0	0	0	0	546	416	1021	466	0	0	
9	0	0	0	0	532	411	1021	455	0	0	
10	0	0	0	0	518	411	1021	445	0	0	
11	0	0	0	0	504	418	1021	436	0	0	
12	0	0	0	0	492	431	1021	430	0	0	
13	0	0	0	0	483	449	1021	426	0	0	
14	0	0	0	0	480	471	1021	427	0	0	
15	0	0	0	0	480	492	1021	430	0	0	
0	0	0	0	0	486	513	1021	437	0	0	
1	0	0	0	0	495	531	1021	446	0	0	
2	0	0	0	0	509	543	1021	457	0	0	
3	0	0	0	0	524	550	1021	468	0	0	
4	0	0	0	0	539	550	1021	480	0	0	
5	0	0	0	0	553	543	1021	490	0	0	
6	0	0	0	0	565	532	1021	497	0	0	
7	0	0	0	0	575	515	1021	502	0	0	
8	0	0	0	0	579	496	1021	503	0	0	
9	0	0	0	0	580	475	1021	501	0	0	
10	0	0	0	0	575	455	1021	495	0	0	
11	0	0	0	0	565	438	1021	486	0	0	
12	0	0	0	0	553	426	1021	475	0	0	
13	0	0	0	0	539	420	1021	464	0	0	
14	0	0	0	0	524	420	1021	453	0	0	
15	0	0	0	0	510	426	1021	444	0	0	
0	0	0	0	0	497	439	1021	436	0	0	
1	0	0	0	0	489	456	1021	432	0	0	
2	0	0	0	0	484	477	1021	431	0	0	
3	0	0	0	0	484	498	1021	433	0	0	
4	0	0	0	0	490	518	1021	440	0	0	
5	0	0	0	0	498	535	1021	448	0	0	
6	0	0	0	0	511	547	1021	459	0	0	
7	0	0	0	0	526	553	1021	470	0	0	
8	0	0	0	0	541	553	1021	481	0	0	
9	0	0	0	0	556	546	1021	491	0	0	
10	0	0	0	0	568	534	1021	498	0	0	
11	0	0	0	0	577	516	1021	503	0	0	
12	0	0	0	0	582	496	1021	504	0	0	
13	0	0	0	0	583	475	1021	501	0	0	
14	0	0	0	0	578	455	1021	495	0	0	
15	0	0	0	0	569	437	1021	487	0	0	
0	0	0	0	0	557	425	1021	477	0	0	
1	0	0	0	0	542	418	1021	465	0	0	
2	0	0	0	0	527	418	1021	454	0	0	
3	0	0	0	0	512	424	1021	444	0	0	
4	0	0	0	0	499	436	1021	435	0	0	
5	0	0	0	0	489	453	1021	430	0	0	
6	0	0	0	0	484	473	1021	428	0	0	
7	0	0	0	0	484	494	1021	431	0	0	
8	0	0	0	0	489	513	1021	436	0	0	
9	0	0	0	0	498	531	1021	444	0	0	
10	0	0	0	0	511	543	1021	455	0	0	
11	0	0	0	0	527	549	1021	467	0	0	
12	0	0	0	0	543	549	1021	479	0	0	
13	0	0	0	0	558	542	1021	489	0	0	
14	0	0	0	0	570	531	1021	497	0	0	
15	0	0	0	0	580	514	1021	503	0	0	
0	0	0	0	0	586	495	1021	504	0	0	
1	0	0	0	0	587	475	1021	503	0	0	
2	0	0	0	0	582	455	1021	497	0	0	
3	0	0	0	0	574	439	1021	489	0	0	
4	0	0	0	0	562	428	1021	480	0	0	
5	0	0	0	0	548	422	1021	469	0	0	
6	0	0	0	0	534	423	1021	458	0	0	
7	0	0	0	0	519	430	1021	449	0	0	
8	0	0	0	0	507	443	1021	441	0	0	
9	0	0	0	0	497	460	1021	436	0	0	
10	0	0	0	0	492	480	1021	435	0	0	
11	0	0	0	0	492	502	1021	436	0	0	
12	0	0	0	0	496	521	1021	441	0	0	
13	0	0	0	0	504	537	1021	448	0	0	
14	0	0	0	0	515	549	1021	458	0	0	
15	0	0	0	0	529	554	1021	468	0	0	
0	0	0	0	0	544	553	1021	478	0	0	
1	0	0	0	0	558	546	1021	487	0	0	
2	0	0	0	0	571	532	1021	495	0	0	
3	0	0	0	0	580	515	1021	500	0	0	
4	0	0	0	0	586	495	1021	503	0	0	
5	0	0	0	0	588	474	1021	502	0	0	
6	0	0	0	0	584	454	1021	498	0	0	
7	0	0	0	0	576	438	1021	492	0	0	
8	0	0	0	0	566	427	1021	483	0	0	
9	0	0	0	0	551	421	1021	473	0	0	
10	0	0	0	0	536	422	1021	463	0	0	
11	0	0	0	0	522	428	1021	453	0	0	
12	0	0	0	0	508	440	1021	445	0	0	
13	0	0	0	0	498	458	1021	439	0	0	
14	0	0	0	0	491	478	1021	435	0	0	
15	0	0	0	0	488	499	1021	436	0	0	
0	0	0	0	0	491	518	1021	439	0	0	
1	0	0	0	0	498	534	1021	445	0	0	
2	0	0	0	0	509	545	1021	453	0	0	
3	0	0	0	0	521	551	1021	462	0	0	
4	0	0	0	0	536	550	1021	472	0	0	
5	0	0	0	0	550	543	1021	481	0	0	
6	0	0	0	0	563	530	1021	488	0	0	
7	0	0	0	0	572	513	1021	492	0	0	
8	0	0	0	0	579	493	1021	495	0	0	
9	0	0	0	0	580	472	1021	493	0	0	
10	0	0	0	0	578	452	1021	489	0	0	
11	0	0	0	0	571	436	1021	482	0	0	
12	0	0	0	0	561	424	1021	474	0	0	
13	0	0	0	0	548	418	1021	465	0	0	
14	0	0	0	0	535	418	1021	456	0	0	
15	0	0	0	0	522	425	1021	448	0	0	
0	0	0	0	0	510	438	1021	442	0	0	
1	0	0	0	0	503	455	1021	439	0	0	
2	0	0	0	0	498	476	1021	438	0	0	
3	0	0	0	0	498	498	1021	441	0	0	
4	0	0	0	0	503	519	1021	447	0	0	
5	0	0	0	0	511	536	1021	455	0	0	
6	0	0	0	0	523	549	1021	465	0	0	
7	0	0	0	0	537	555	1021	476	0	0	
8	0	0	0	0	551	556	1021	486	0	0	
9	0	0	0	0	565	549	1021	495	0	0	
10	0	0	0	0	577	538	1021	502	0	0	
11	0	0	0	0	586	522	1021	507	0	0	
12	0	0	0	0	591	502	1021	508	0	0	
13	0	0	0	0	591	481	1021	507	0	0	
14	0	0	0	0	587	461	1021	502	0	0	
15	0	0	0	0	578	444	1021	494	0	0	
0	0	0	0	0	567	432	1021	484	0	0	
1	0	0	0	0	552	425	1021	474	0	0	
2	0	0	0	0	537	424	1021	463	0	0	
3	0	0	0	0	523	430	1021	454	0	0	
4	0	0	0	0	510	441	1021	447	0	0	
5	0	0	0	0	500	459	1021	441	0	0	
6	0	0	0	0	494	478	1021	440	0	0	
7	0	0	0	0	493	499	1021	442	0	0	
8	0	0	0	0	497	519	1021	447	0	0	
9	0	0	0	0	505	536	1021	455	0	0	
10	0	0	0	0	517	548	1021	464	0	0	
11	0	0	0	0	531	554	1021	475	0	0	
12	0	0	0	0	547	554	1021	486	0	0	
13	0	0	0	0	562	548	1021	496	0	0	
14	0	0	0	0	575	536	1021	504	0	0	
15	0	0	0	0	585	520	1021	508	0	0	
0	0	0	0	0	591	501	1021	510	0	0	
1	0	0	0	0	592	480	1021	508	0	0	
2	0	0	0	0	590	461	1021	503	0	0	
3	0	0	0	0	582	444	1021	496	0	0	
4	0	0	0	0	571	432	1021	486	0	0	
5	0	0	0	0	557	427	1021	476	0	0	
6	0	0	0	0	541	427	1021	466	0	0	
7	0	0	0	0	526	432	1021	457	0	0	
8	0	0	0	0	513	444	1021	450	0	0	
9	0	0	0	0	502	462	1021	445	0	0	
10	0	0	0	0	496	482	1021	444	0	0	
11	0	0	0	0	495	503	1021	447	0	0	
12	0	0	0	0	499	524	1021	452	0	0	
13	0	0	0	0	507	540	1021	461	0	0	
14	0	0	0	0	519	554	1021	470	0	0	
15	0	0	0	0	534	560	1021	481	0	0	
0	0	0	0	0	550	560	1021	492	0	0	
1	0	0	0	0	566	555	1021	501	0	0	
2	0	0	0	0	579	542	1021	509	0	0	
3	0	0	0	0	591	527	1021	513	0	0	
4	0	0	0	0	598	507	1021	515	0	0	
5	0	0	0	0	600	487	1021	514	0	0	
6	0	0	0	0	598	467	1021	509	0	0	
7	0	0	0	0	589	450	1021	500	0	0	
8	0	0	0	0	579	438	1021	490	0	0	
9	0	0	0	0	564	431	1021	479	0	0	
10	0	0	0	0	549	431	1021	468	0	0	
11	0	0	0	0	534	436	1021	457	0	0	
12	0	0	0	0	519	448	1021	449	0	0	
13	0	0	0	0	508	465	1021	443	0	0	
14	0	0	0	0	501	484	1021	441	0	0	
15	0	0	0	0	498	505	1021	442	0	0	
0	0	0	0	0	500	524	1021	447	0	0	
1	0	0	0	0	507	541	1021	453	0	0	
2	0	0	0	0	517	553	1021	463	0	0	
3	0	0	0	0	530	558	1021	473	0	0	
4	0	0	0	0	543	558	1021	483	0	0	
5	0	0	0	0	558	551	1021	492	0	0	
6	0	0	0	0	570	539	1021	500	0	0	
7	0	0	0	0	580	523	1021	504	0	0	
8	0	0	0	0	587	503	1021	507	0	0	
9	0	0	0	0	589	482	1021	505	0	0	
10	0	0	0	0	587	462	1021	500	0	0	
11	0	0	0	0	579	444	1021	493	0	0	
12	0	0	0	0	569	433	1021	483	0	0	
13	0	0	0	0	556	427	1021	472	0	0	
14	0	0	0	0	542	427	1021	462	0	0	
15	0	0	0	0	527	433	1021	452	0	0	
0	0	0	0	0	515	445	1021	444	0	0	
1	0	0	0	0	506	462	1021	439	0	0	
2	0	0	0	0	500	482	1021	437	0	0	
3	0	0	0	0	499	504	1021	439	0	0	
4	0	0	0	0	503	524	1021	444	0	0	
5	0	0	0	0	511	541	1021	452	0	0	
6	0	0	0	0	523	553	1021	461	0	0	
7	0	0	0	0	536	560	1021	471	0	0	
8	0	0	0	0	551	560	1021	481	0	0	
9	0	0	0	0	565	553	1021	490	0	0	
10	0	0	0	0	576	542	1021	497	0	0	
11	0	0	0	0	585	524	1021	502	0	0	
12	0	0	0	0	590	504	1021	504	0	0	
13	0	0	0	0	591	483	1021	501	0	0	
14	0	0	0	0	587	462	1021	496	0	0	
15	0	0	0	0	578	445	1021	488	0	0	
0	0	0	0	0	567	432	1021	479	0	0	
1	0	0	0	0	553	425	1021	468	0	0	
2	0	0	0	0	539	425	1021	458	0	0	
3	0	0	0	0	525	432	1021	449	0	0	
4	0	0	0	0	512	444	1021	442	0	0	
5	0	0	0	0	504	461	1021	437	0	0	
6	0	0	0	0	498	481	1021	436	0	0	
7	0	0	0	0	497	503	1021	438	0	0	
8	0	0	0	0	501	523	1020	443	0	0	
9	0	0	0	0	509	539	1021	451	0	0	
10	0	0	0	0	521	551	1021	460	0	0	
11	0	0	0	0	535	557	1021	471	0	0	
12	0	0	0	0	549	557	1021	481	0	0	
13	0	0	0	0	563	550	1021	491	0	0	
14	0	0	0	0	575	537	1021	499	0	0	
15	0	0	0	0	585	521	1021	502	0	0	
0	0	0	0	0	590	501	1021	504	0	0	
1	0	0	0	0	590	479	1021	501	0	0	
2	0	0	0	0	585	459	1021	497	0	0	
3	0	0	0	0	577	442	1021	488	0	0	
4	0	0	0	0	566	430	1021	478	0	0	
5	0	0	0	0	551	423	1021	467	0	0	
6	0	0	0	0	536	423	1021	457	0	0	
7	0	0	0	0	521	428	1021	447	0	0	
8	0	0	0	0	509	440	1021	439	0	0	
9	0	0	0	0	500	457	1021	434	0	0	
10	0	0	0	0	495	478	1021	432	0	0	
11	0	0	0	0	495	499	1021	435	0	0	
12	0	0	0	0	499	520	1021	441	0	0	
13	0	0	0	0	509	538	1020	449	0	0	
14	0	0	0	0	522	551	1021	460	0	0	
15	0	0	0	0	537	559	1021	473	0	0	
0	0	0	0	0	553	560	1021	485	0	0	
1	0	0	0	0	568	556	1021	496	0	0	
2	0	0	0	0	582	544	1021	505	0	0	
3	0	0	0	0	592	529	1021	511	0	0	
4	0	0	0	0	598	510	1021	514	0	0	
5	0	0	0	0	599	489	1021	513	0	0	
6	0	0	0	0	596	469	1021	508	0	0	
7	0	0	0	0	588	452	1021	501	0	0	
8	0	0	0	0	576	440	1021	491	0	0	
9	0	0	0	0	563	433	1021	481	0	0	
10	0	0	0	0	548	432	1021	470	0	0	
11	0	0	0	0	535	438	1021	460	0	0	
12	0	0	0	0	523	449	1021	452	0	0	
13	0	0	0	0	514	467	1021	447	0	0	
14	0	0	0	0	509	487	1021	446	0	0	
15	0	0	0	0	508	508	1021	448	0	0	
0	0	0	0	0	513	529	1021	453	0	0	
1	0	0	0	0	522	546	1021	461	0	0	
2	0	0	0	0	534	559	1021	471	0	0	
3	0	0	0	0	548	567	1021	482	0	0	
4	0	0	0	0	563	568	1021	493	0	0	
5	0	0	0	0	578	563	1021	503	0	0	
6	0	0	0	0	590	551	1021	512	0	0	
7	0	0	0	0	600	536	1021	516	0	0	
8	0	0	0	0	605	516	1021	519	0	0	
9	0	0	0	0	606	496	1021	517	0	0	
10	0	0	0	0	603	476	1021	512	0	0	
11	0	0	0	0	595	459	1020	504	0	0	
12	0	0	0	0	583	447	1021	495	0	0	
13	0	0	0	0	570	440	1021	484	0	0	
14	0	0	0	0	555	440	1021	474	0	0	
15	0	0	0	0	540	446	1021	464	0	0	
0	0	0	0	0	527	456	1021	455	0	0	
1	0	0	0	0	517	472	1021	449	0	0	
2	0	0	0	0	511	492	1021	447	0	0	
3	0	0	0	0	508	512	1021	448	0	0	
4	0	0	0	0	512	532	1021	453	0	0	
5	0	0	0	0	519	548	1021	460	0	0	
6	0	0	0	0	530	561	1021	469	0	0	
7	0	0	0	0	544	567	1021	480	0	0	
8	0	0	0	0	559	567	1021	490	0	0	
9	0	0	0	0	573	561	1020	499	0	0	
10	0	0	0	0	586	549	1021	508	0	0	
11	0	0	0	0	596	533	1021	512	0	0	
12	0	0	0	0	603	513	1021	514	0	0	
13	0	0	0	0	604	492	1021	512	0	0	
14	0	0	0	0	601	472	1021	508	0	0	
15	0	0	0	0	593	454	1021	499	0	0	
0	0	0	0	0	582	442	1021	489	0	0	
1	0	0	0	0	568	435	1021	478	0	0	
2	0	0	0	0	552	434	1021	467	0	0	
3	0	0	0	0	537	440	1021	457	0	0	
4	0	0	0	0	523	452	1021	450	0	0	
5	0	0	0	0	513	469	1021	444	0	0	
6	0	0	0	0	507	490	1021	443	0	0	
7	0	0	0	0	506	512	1021	446	0	0	
8	0	0	0	0	510	534	1021	452	0	0	
9	0	0	0	0	519	552	1021	461	0	0	
10	0	0	0	0	531	566	1021	472	0	0	
11	0	0	0	0	547	575	1021	484	0	0	
12	0	0	0	0	563	576	1021	497	0	0	
13	0	0	0	0	579	571	1021	508	0	0	
14	0	0	0	0	593	560	1021	518	0	0	
15	0	0	0	0	604	545	1021	524	0	0	
0	0	0	0	0	611	525	1021	527	0	0	
1	0	0	0	0	612	504	1021	526	0	0	
2	0	0	0	0	608	483	1021	520	0	0	
3	0	0	0	0	599	463	1021	510	0	0	
4	0	0	0	0	586	448	1021	498	0	0	
5	0	0	0	0	568	437	1021	483	0	0	
6	0	0	0	0	547	432	1021	467	0	0	
7	0	0	0	0	526	431	1021	450	0	0	
8	0	0	0	0	505	436	1020	434	0	0	
9	0	0	0	0	487	445	1021	420	0	0	
10	0	0	0	0	472	457	1021	409	0	0	
11	0	0	0	0	461	471	1021	402	0	0	
12	0	0	0	0	456	483	1021	398	0	0	
13	0	0	0	0	455	492	1021	397	0	0	
14	0	0	0	0	457	496	1021	397	0	0	
15	0	0	0	0	464	496	1021	400	0	0	
0	0	0	0	0	471	488	1021	403	0	0	
1	0	0	0	0	478	474	1021	405	0	0	
2	0	0	0	0	483	454	1021	406	0	0	
3	0	0	0	0	486	430	1021	402	0	0	
4	0	0	0	0	484	401	1021	397	0	0	
5	0	0	0	0	478	371	1021	387	0	0	
6	0	0	0	0	466	341	1021	373	0	0	
7	0	0	0	0	449	313	1021	356	0	0	
8	0	0	0	0	428	289	1021	336	0	0	
9	0	0	0	0	403	271	1021	315	0	0	
10	0	0	0	0	378	259	1021	293	0	0	
11	0	0	0	0	352	254	1021	272	0	0	
12	0	0	0	0	329	255	1020	254	0	0	
13	0	0	0	0	310	264	1021	239	0	0	
14	0	0	0	0	297	279	1021	231	0	0	
15	0	0	0	0	291	298	1021	228	0	0	
0	0	0	0	0	293	319	1021	232	0	0	
1	0	0	0	0	303	342	1021	243	0	0	
2	0	0	0	0	322	363	1021	260	0	0	
3	0	0	0	0	347	381	1021	283	0	0	
4	0	0	0	0	377	395	1021	308	0	0	
5	0	0	0	0	410	405	1021	336	0	0	
6	0	0	0	0	444	411	1021	365	0	0	
7	0	0	0	0	478	414	1021	392	0	0	
8	0	0	0	0	508	413	1021	418	0	0	
9	0	0	0	0	533	411	1021	440	0	0	
10	0	0	0	0	553	409	1021	457	0	0	
11	0	0	0	0	566	408	1021	470	0	0	
12	0	0	0	0	573	412	1021	478	0	0	
13	0	0	0	0	575	419	1021	483	0	0	
14	0	0	0	0	572	431	1021	484	0	0	
15	0	0	0	0	567	447	1020	483	0	0	
0	0	0	0	0	560	466	1021	482	0	0	
1	0	0	0	0	553	490	1021	480	0	0	
2	0	0	0	0	548	515	1021	480	0	0	
3	0	0	0	0	545	540	1021	481	0	0	
4	0	0	0	0	547	561	1021	484	0	0	
5	0	0	0	0	550	579	1021	488	0	0	
6	0	0	0	0	557	591	1021	495	0	0	
7	0	0	0	0	566	596	1021	501	0	0	
8	0	0	0	0	575	594	1021	508	0	0	
9	0	0	0	0	585	585	1021	514	0	0	
10	0	0	0	0	592	571	1021	519	0	0	
11	0	0	0	0	600	551	1021	522	0	0	
12	0	0	0	0	603	529	1021	523	0	0	
13	0	0	0	0	603	505	1021	520	0	0	
14	0	0	0	0	600	482	1021	516	0	0	
15	0	0	0	0	592	463	1021	508	0	0	
0	0	0	0	0	583	449	1021	500	0	0	
1	0	0	0	0	572	442	1021	492	0	0	
2	0	0	0	0	559	441	1021	482	0	0	
3	0	0	0	0	547	447	1021	474	0	0	
4	0	0	0	0	536	460	1021	467	0	0	
5	0	0	0	0	529	478	1021	464	0	0	
6	0	0	0	0	525	500	1021	463	0	0	
7	0	0	0	0	526	523	1021	466	0	0	
8	0	0	0	0	531	545	1021	472	0	0	
9	0	0	0	0	539	565	1021	479	0	0	
10	0	0	0	0	552	580	1021	489	0	0	
11	0	0	0	0	566	588	1021	500	0	0	
12	0	0	0	0	581	591	1021	511	0	0	
13	0	0	0	0	596	586	1021	521	0	0	
14	0	0	0	0	609	575	1021	530	0	0	
15	0	0	0	0	619	560	1021	536	0	0	
0	0	0	0	0	625	541	1021	538	0	0	
1	0	0	0	0	627	520	1021	537	0	0	
2	0	0	0	0	624	499	1021	532	0	0	
3	0	0	0	0	617	481	1020	524	0	0	
4	0	0	0	0	605	467	1021	515	0	0	
5	0	0	0	0	591	459	1021	504	0	0	
6	0	0	0	0	576	457	1021	492	0	0	
7	0	0	0	0	561	461	1021	482	0	0	
8	0	0	0	0	546	472	1021	472	0	0	
9	0	0	0	0	536	487	1021	466	0	0	
10	0	0	0	0	528	507	1021	463	0	0	
11	0	0	0	0	526	528	1021	463	0	0	
12	0	0	0	0	528	548	1021	467	0	0	
13	0	0	0	0	535	567	1021	473	0	0	
14	0	0	0	0	547	580	1021	483	0	0	
15	0	0	0	0	560	588	1021	493	0	0	
0	0	0	0	0	575	589	1021	504	0	0	
1	0	0	0	0	590	583	1021	515	0	0	
2	0	0	0	0	602	573	1021	523	0	0	
3	0	0	0	0	614	558	1021	529	0	0	
4	0	0	0	0	621	538	1021	533	0	0	
5	0	0	0	0	624	518	1021	533	0	0	
6	0	0	0	0	622	497	1021	529	0	0	
7	0	0	0	0	615	480	1021	523	0	0	
8	0	0	0	0	605	467	1021	515	0	0	
9	0	0	0	0	592	460	1021	505	0	0	
10	0	0	0	0	577	458	1021	495	0	0	
11	0	0	0	0	563	463	1021	485	0	0	
12	0	0	0	0	548	474	1021	476	0	0	
13	0	0	0	0	538	491	1021	471	0	0	
14	0	0	0	0	531	511	1021	469	0	0	
15	0	0	0	0	528	532	1021	470	0	0	
0	0	0	0	0	530	553	1021	474	0	0	
1	0	0	0	0	537	572	1021	481	0	0	
2	0	0	0	0	548	585	1021	491	0	0	
3	0	0	0	0	561	593	1021	501	0	0	
4	0	0	0	0	575	594	1021	512	0	0	
5	0	0	0	0	589	589	1021	521	0	0	
6	0	0	0	0	601	578	1021	529	0	0	
7	0	0	0	0	612	562	1021	535	0	0	
8	0	0	0	0	619	542	1021	537	0	0	
9	0	0	0	0	621	520	1021	536	0	0	
10	0	0	0	0	618	499	1021	532	0	0	
11	0	0	0	0	610	481	1021	525	0	0	
12	0	0	0	0	600	467	1021	515	0	0	
13	0	0	0	0	587	458	1021	505	0	0	
14	0	0	0	0	572	455	1021	494	0	0	
15	0	0	0	0	557	460	1021	483	0	0	
0	0	0	0	0	543	470	1021	474	0	0	
1	0	0	0	0	532	485	1021	468	0	0	
2	0	0	0	0	526	504	1021	464	0	0	
3	0	0	0	0	523	525	1021	465	0	0	
4	0	0	0	0	526	545	1021	468	0	0	
5	0	0	0	0	533	563	1021	475	0	0	
6	0	0	0	0	544	576	1021	483	0	0	
7	0	0	0	0	557	584	1021	494	0	0	
8	0	0	0	0	572	586	1021	504	0	0	
9	0	0	0	0	586	581	1021	515	0	0	
10	0	0	0	0	599	570	1020	522	0	0	
11	0	0	0	0	609	555	1021	528	0	0	
12	0	0	0	0	615	536	1021	531	0	0	
13	0	0	0	0	617	514	1021	530	0	0	
14	0	0	0	0	615	493	1020	525	0	0	
15	0	0	0	0	607	474	1021	518	0	0	
0	0	0	0	0	597	461	1021	508	0	0	
1	0	0	0	0	583	453	1021	498	0	0	
2	0	0	0	0	569	451	1021	486	0	0	
3	0	0	0	0	554	455	1020	476	0	0	
4	0	0	0	0	540	466	1021	468	0	0	
5	0	0	0	0	530	483	1021	462	0	0	
6	0	0	0	0	523	503	1021	460	0	0	
7	0	0	0	0	521	524	1021	461	0	0	
8	0	0	0	0	524	545	1021	466	0	0	
9	0	0	0	0	531	563	1021	474	0	0	
10	0	0	0	0	543	577	1021	484	0	0	
11	0	0	0	0	557	585	1021	496	0	0	
12	0	0	0	0	572	587	1021	507	0	0	
13	0	0	0	0	587	581	1021	518	0	0	
14	0	0	0	0	601	570	1021	526	0	0	
15	0	0	0	0	611	555	1021	532	0	0	
0	0	0	0	0	619	535	1021	535	0	0	
1	0	0	0	0	621	513	1021	533	0	0	
2	0	0	0	0	618	493	1021	528	0	0	
3	0	0	0	0	610	474	1021	519	0	0	
4	0	0	0	0	599	461	1021	509	0	0	
5	0	0	0	0	585	453	1021	497	0	0	
6	0	0	0	0	570	451	1021	484	0	0	
7	0	0	0	0	554	455	1021	473	0	0	
8	0	0	0	0	540	466	1021	464	0	0	
9	0	0	0	0	529	483	1021	457	0	0	
10	0	0	0	0	521	503	1021	455	0	0	
11	0	0	0	0	519	524	1021	456	0	0	
12	0	0	0	0	521	545	1021	461	0	0	
13	0	0	0	0	528	563	1021	470	0	0	
14	0	0	0	0	540	577	1021	479	0	0	
15	0	0	0	0	555	585	1021	492	0	0	
0	0	0	0	0	571	587	1021	504	0	0	
1	0	0	0	0	586	582	1020	515	0	0	
2	0	0	0	0	600	572	1021	526	0	0	
3	0	0	0	0	612	556	1021	533	0	0	
4	0	0	0	0	620	536	1021	536	0	0	
5	0	0	0	0	622	514	1021	536	0	0	
6	0	0	0	0	620	493	1021	532	0	0	
7	0	0	0	0	612	474	1021	524	0	0	
8	0	0	0	0	601	460	1021	514	0	0	
9	0	0	0	0	586	451	1021	502	0	0	
10	0	0	0	0	570	449	1021	490	0	0	
11	0	0	0	0	553	453	1021	479	0	0	
12	0	0	0	0	537	463	1021	470	0	0	
13	0	0	0	0	526	479	1021	463	0	0	
14	0	0	0	0	518	499	1021	460	0	0	
15	0	0	0	0	514	521	1021	460	0	0	
0	0	0	0	0	517	542	1021	465	0	0	
1	0	0	0	0	524	560	1021	471	0	0	
2	0	0	0	0	536	575	1021	481	0	0	
3	0	0	0	0	551	583	1021	492	0	0	
4	0	0	0	0	568	585	1021	503	0	0	
5	0	0	0	0	583	580	1021	513	0	0	
6	0	0	0	0	598	569	1021	522	0	0	
7	0	0	0	0	610	554	1021	527	0	0	
8	0	0	0	0	618	534	1021	531	0	0	
9	0	0	0	0	620	512	1021	530	0	0	
10	0	0	0	0	619	492	1021	526	0	0	
11	0	0	0	0	611	472	1021	519	0	0	
12	0	0	0	0	601	459	1021	509	0	0	
13	0	0	0	0	587	451	1021	499	0	0	
14	0	0	0	0	571	449	1021	488	0	0	
15	0	0	0	0	556	454	1021	478	0	0	
0	0	0	0	0	541	464	1021	470	0	0	
1	0	0	0	0	529	480	1021	464	0	0	
2	0	0	0	0	523	500	1021	462	0	0	
3	0	0	0	0	520	522	1021	463	0	0	
4	0	0	0	0	522	542	1021	467	0	0	
5	0	0	0	0	529	561	1021	474	0	0	
6	0	0	0	0	540	575	1021	483	0	0	
7	0	0	0	0	554	583	1021	493	0	0	
8	0	0	0	0	569	585	1021	504	0	0	
9	0	0	0	0	583	580	1020	512	0	0	
10	0	0	0	0	596	568	1021	521	0	0	
11	0	0	0	0	607	553	1021	526	0	0	
12	0	0	0	0	613	532	1021	527	0	0	
13	0	0	0	0	614	511	1021	526	0	0	
14	0	0	0	0	610	489	1021	521	0	0	
15	0	0	0	0	602	470	1021	513	0	0	
0	0	0	0	0	591	456	1021	503	0	0	
1	0	0	0	0	576	447	1021	492	0	0	
2	0	0	0	0	560	445	1021	480	0	0	
3	0	0	0	0	544	449	1021	470	0	0	
4	0	0	0	0	530	459	1021	460	0	0	
5	0	0	0	0	519	475	1021	454	0	0	
6	0	0	0	0	512	495	1021	451	0	0	
7	0	0	0	0	510	515	1021	451	0	0	
8	0	0	0	0	513	536	1021	455	0	0	
9	0	0	0	0	521	554	1021	463	0	0	
10	0	0	0	0	533	568	1021	473	0	0	
11	0	0	0	0	548	575	1021	484	0	0	
12	0	0	0	0	564	577	1021	496	0	0	
13	0	0	0	0	580	572	1021	507	0	0	
14	0	0	0	0	594	562	1021	515	0	0	
15	0	0	0	0	606	546	1021	523	0	0	
0	0	0	0	0	614	527	1021	527	0	0	
1	0	0	0	0	617	506	1021	526	0	0	
2	0	0	0	0	614	485	1021	523	0	0	
3	0	0	0	0	607	467	1021	515	0	0	
4	0	0	0	0	596	454	1021	506	0	0	
5	0	0	0	0	582	446	1021	496	0	0	
6	0	0	0	0	566	444	1021	485	0	0	
7	0	0	0	0	550	449	1021	475	0	0	
8	0	0	0	0	535	459	1021	467	0	0	
9	0	0	0	0	523	476	1021	460	0	0	
10	0	0	0	0	515	496	1021	457	0	0	
11	0	0	0	0	512	518	1021	459	0	0	
12	0	0	0	0	515	539	1021	463	0	0	
13	0	0	0	0	521	558	1021	470	0	0	
14	0	0	0	0	534	572	1021	479	0	0	
15	0	0	0	0	547	580	1021	490	0	0	
0	0	0	0	0	562	581	1021	501	0	0	
1	0	0	0	0	577	577	1021	511	0	0	
2	0	0	0	0	591	566	1021	519	0	0	
3	0	0	0	0	602	551	1021	524	0	0	
4	0	0	0	0	608	531	1021	527	0	0	
5	0	0	0	0	610	510	1021	525	0	0	
6	0	0	0	0	608	489	1021	521	0	0	
7	0	0	0	0	600	470	1020	512	0	0	
8	0	0	0	0	590	456	1021	503	0	0	
9	0	0	0	0	575	448	1021	491	0	0	
10	0	0	0	0	560	446	1021	480	0	0	
11	0	0	0	0	545	450	1021	469	0	0	
12	0	0	0	0	531	460	1021	461	0	0	
13	0	0	0	0	520	476	1021	454	0	0	
14	0	0	0	0	513	496	1021	451	0	0	
15	0	0	0	0	511	518	1021	451	0	0	
0	0	0	0	0	513	539	1021	456	0	0	
1	0	0	0	0	522	557	1021	464	0	0	
2	0	0	0	0	534	572	1020	474	0	0	
3	0	0	0	0	549	581	1021	486	0	0	
4	0	0	0	0	565	584	1021	498	0	0	
5	0	0	0	0	581	580	1021	510	0	0	
6	0	0	0	0	595	569	1021	519	0	0	
7	0	0	0	0	606	555	1021	526	0	0	
8	0	0	0	0	612	536	1021	530	0	0	
9	0	0	0	0	615	515	1021	530	0	0	
10	0	0	0	0	612	493	1021	527	0	0	
11	0	0	0	0	604	475	1021	519	0	0	
12	0	0	0	0	593	462	1021	510	0	0	
13	0	0	0	0	579	453	1021	499	0	0	
14	0	0	0	0	563	451	1021	488	0	0	
15	0	0	0	0	548	455	1021	477	0	0	
0	0	0	0	0	534	466	1021	468	0	0	
1	0	0	0	0	523	483	1021	461	0	0	
2	0	0	0	0	516	503	1021	459	0	0	
3	0	0	0	0	514	525	1021	459	0	0	
4	0	0	0	0	518	547	1021	464	0	0	
5	0	0	0	0	527	567	1021	473	0	0	
6	0	0	0	0	539	583	1021	483	0	0	
7	0	0	0	0	555	592	1021	496	0	0	
8	0	0	0	0	572	595	1021	508	0	0	
9	0	0	0	0	590	593	1021	521	0	0	
10	0	0	0	0	605	583	1021	531	0	0	
11	0	0	0	0	618	569	1021	539	0	0	
12	0	0	0	0	627	551	1021	543	0	0	
13	0	0	0	0	631	530	1021	545	0	0	
14	0	0	0	0	630	510	1021	542	0	0	
15	0	0	0	0	624	492	1021	536	0	0	
0	0	0	0	0	613	478	1021	527	0	0	
1	0	0	0	0	600	470	1021	517	0	0	
2	0	0	0	0	585	468	1021	506	0	0	
3	0	0	0	0	569	472	1021	495	0	0	
4	0	0	0	0	554	482	1021	486	0	0	
5	0	0	0	0	542	498	1021	479	0	0	
6	0	0	0	0	534	518	1021	475	0	0	
7	0	0	0	0	529	540	1021	475	0	0	
8	0	0	0	0	531	560	1021	479	0	0	
9	0	0	0	0	537	579	1021	485	0	0	
10	0	0	0	0	549	593	1021	495	0	0	
11	0	0	0	0	562	601	1021	506	0	0	
12	0	0	0	0	578	604	1021	517	0	0	
13	0	0	0	0	593	600	1021	528	0	0	
14	0	0	0	0	606	589	1021	536	0	0	
15	0	0	0	0	618	574	1021	543	0	0	
0	0	0	0	0	625	554	1021	546	0	0	
1	0	0	0	0	629	532	1021	546	0	0	
2	0	0	0	0	627	511	1021	542	0	0	
3	0	0	0	0	621	493	1021	535	0	0	
4	0	0	0	0	611	478	1021	526	0	0	
5	0	0	0	0	598	470	1021	515	0	0	
6	0	0	0	0	583	468	1021	504	0	0	
7	0	0	0	0	568	472	1021	494	0	0	
8	0	0	0	0	554	483	1020	485	0	0	
9	0	0	0	0	543	499	1021	479	0	0	
10	0	0	0	0	536	519	1021	477	0	0	
11	0	0	0	0	533	542	1021	477	0	0	
12	0	0	0	0	535	563	1021	481	0	0	
13	0	0	0	0	542	582	1021	488	0	0	
14	0	0	0	0	553	597	1021	498	0	0	
15	0	0	0	0	568	606	1021	509	0	0	
0	0	0	0	0	583	608	1021	520	0	0	
1	0	0	0	0	599	603	1021	530	0	0	
2	0	0	0	0	612	593	1021	539	0	0	
3	0	0	0	0	624	577	1021	545	0	0	
4	0	0	0	0	632	558	1021	547	0	0	
5	0	0	0	0	635	536	1021	546	0	0	
6	0	0	0	0	632	514	1021	542	0	0	
7	0	0	0	0	625	495	1021	535	0	0	
8	0	0	0	0	615	480	1021	525	0	0	
9	0	0	0	0	600	470	1021	514	0	0	
10	0	0	0	0	584	467	1021	503	0	0	
11	0	0	0	0	568	470	1021	493	0	0	
12	0	0	0	0	553	480	1021	484	0	0	
13	0	0	0	0	541	496	1021	479	0	0	
14	0	0	0	0	533	515	1021	476	0	0	
15	0	0	0	0	530	537	1021	477	0	0	
0	0	0	0	0	532	558	1021	482	0	0	
1	0	0	0	0	539	577	1021	489	0	0	
2	0	0	0	0	551	593	1021	499	0	0	
3	0	0	0	0	564	602	1021	510	0	0	
4	0	0	0	0	580	605	1021	521	0	0	
5	0	0	0	0	595	602	1021	531	0	0	
6	0	0	0	0	609	593	1021	540	0	0	
7	0	0	0	0	621	578	1021	545	0	0	
8	0	0	0	0	628	559	1021	547	0	0	
9	0	0	0	0	630	537	1021	546	0	0	
10	0	0	0	0	628	516	1021	541	0	0	
11	0	0	0	0	621	496	1021	533	0	0	
12	0	0	0	0	610	482	1021	523	0	0	
13	0	0	0	0	596	472	1021	512	0	0	
14	0	0	0	0	581	469	1021	501	0	0	
15	0	0	0	0	565	472	1021	491	0	0	
0	0	0	0	0	551	482	1021	482	0	0	
1	0	0	0	0	540	497	1021	476	0	0	
2	0	0	0	0	532	516	1021	474	0	0	
3	0	0	0	0	529	538	1021	475	0	0	
4	0	0	0	0	531	559	1021	480	0	0	
5	0	0	0	0	539	577	1021	487	0	0	
6	0	0	0	0	550	592	1021	496	0	0	
7	0	0	0	0	563	600	1021	508	0	0	
8	0	0	0	0	579	603	1021	519	0	0	
9	0	0	0	0	594	599	1021	530	0	0	
10	0	0	0	0	608	589	1021	538	0	0	
11	0	0	0	0	620	574	1021	544	0	0	
12	0	0	0	0	628	554	1021	547	0	0	
13	0	0	0	0	632	533	1021	547	0	0	
14	0	0	0	0	630	511	1021	543	0	0	
15	0	0	0	0	625	494	1021	536	0	0	
0	0	0	0	0	615	480	1021	526	0	0	
1	0	0	0	0	602	471	1021	515	0	0	
2	0	0	0	0	587	468	1021	504	0	0	
3	0	0	0	0	572	472	1021	494	0	0	
4	0	0	0	0	558	481	1021	484	0	0	
5	0	0	0	0	546	497	1021	478	0	0	
6	0	0	0	0	538	517	1021	475	0	0	
7	0	0	0	0	534	538	1021	475	0	0	
8	0	0	0	0	536	559	1021	479	0	0	
9	0	0	0	0	540	577	1021	485	0	0	
10	0	0	0	0	551	591	1021	495	0	0	
11	0	0	0	0	564	600	1021	505	0	0	
12	0	0	0	0	579	601	1021	515	0	0	
13	0	0	0	0	593	597	1021	526	0	0	
14	0	0	0	0	606	587	1021	534	0	0	
15	0	0	0	0	617	571	1021	539	0	0	
0	0	0	0	0	624	552	1021	542	0	0	
1	0	0	0	0	627	530	1021	542	0	0	
2	0	0	0	0	626	509	1021	538	0	0	
3	0	0	0	0	619	490	1021	531	0	0	
4	0	0	0	0	609	476	1021	521	0	0	
5	0	0	0	0	596	467	1021	511	0	0	
6	0	0	0	0	581	465	1021	500	0	0	
7	0	0	0	0	566	469	1021	490	0	0	
8	0	0	0	0	552	480	1021	481	0	0	
9	0	0	0	0	541	496	1021	475	0	0	
10	0	0	0	0	534	516	1021	472	0	0	
11	0	0	0	0	531	537	1021	472	0	0	
12	0	0	0	0	533	560	1021	476	0	0	
13	0	0	0	0	540	579	1020	483	0	0	
14	0	0	0	0	552	594	1021	492	0	0	
15	0	0	0	0	566	603	1021	503	0	0	
0	0	0	0	0	582	606	1021	514	0	0	
1	0	0	0	0	597	602	1020	524	0	0	
2	0	0	0	0	611	592	1021	534	0	0	
3	0	0	0	0	623	577	1021	540	0	0	
4	0	0	0	0	630	557	1021	543	0	0	
5	0	0	0	0	632	535	1021	543	0	0	
6	0	0	0	0	629	513	1021	540	0	0	
7	0	0	0	0	621	493	1021	533	0	0	
8	0	0	0	0	609	478	1021	523	0	0	
9	0	0	0	0	595	468	1021	512	0	0	
10	0	0	0	0	579	464	1021	500	0	0	
11	0	0	0	0	563	468	1021	489	0	0	
12	0	0	0	0	548	477	1021	480	0	0	
13	0	0	0	0	536	493	1021	473	0	0	
14	0	0	0	0	529	513	1021	470	0	0	
15	0	0	0	0	526	535	1021	470	0	0	
0	0	0	0	0	529	557	1021	474	0	0	
1	0	0	0	0	537	576	1021	482	0	0	
2	0	0	0	0	549	592	1021	491	0	0	
3	0	0	0	0	564	602	1021	503	0	0	
4	0	0	0	0	580	605	1021	515	0	0	
5	0	0	0	0	596	602	1021	526	0	0	
6	0	0	0	0	611	592	1021	536	0	0	
7	0	0	0	0	623	577	1021	543	0	0	
8	0	0	0	0	631	558	1021	547	0	0	
9	0	0	0	0	634	536	1021	547	0	0	
10	0	0	0	0	633	515	1021	544	0	0	
11	0	0	0	0	625	496	1021	537	0	0	
12	0	0	0	0	615	481	1021	529	0	0	
13	0	0	0	0	601	472	1021	519	0	0	
14	0	0	0	0	586	468	1021	508	0	0	
15	0	0	0	0	571	472	1021	498	0	0	
0	0	0	0	0	555	482	1021	488	0	0	
1	0	0	0	0	544	497	1021	482	0	0	
2	0	0	0	0	536	516	1021	478	0	0	
3	0	0	0	0	533	538	1021	478	0	0	
4	0	0	0	0	535	559	1021	481	0	0	
5	0	0	0	0	541	579	1021	487	0	0	
6	0	0	0	0	553	594	1021	496	0	0	
7	0	0	0	0	567	604	1021	506	0	0	
8	0	0	0	0	583	607	1021	517	0	0	
9	0	0	0	0	599	604	1021	527	0	0	
10	0	0	0	0	612	595	1021	536	0	0	
11	0	0	0	0	625	581	1021	542	0	0	
12	0	0	0	0	633	563	1021	545	0	0	
13	0	0	0	0	636	542	1021	545	0	0	
14	0	0	0	0	635	521	1021	542	0	0	
15	0	0	0	0	628	502	1021	535	0	0	
0	0	0	0	0	618	487	1021	526	0	0	
1	0	0	0	0	604	478	1021	516	0	0	
2	0	0	0	0	589	474	1021	505	0	0	
3	0	0	0	0	574	477	1021	495	0	0	
4	0	0	0	0	558	487	1021	486	0	0	
5	0	0	0	0	547	502	1021	480	0	0	
6	0	0	0	0	539	520	1021	477	0	0	
7	0	0	0	0	536	542	1021	478	0	0	
8	0	0	0	0	537	563	1021	482	0	0	
9	0	0	0	0	543	583	1021	489	0	0	
10	0	0	0	0	554	599	1021	499	0	0	
11	0	0	0	0	568	608	1021	510	0	0	
12	0	0	0	0	583	612	1021	521	0	0	
13	0	0	0	0	599	609	1021	532	0	0	
14	0	0	0	0	612	600	1021	541	0	0	
15	0	0	0	0	625	587	1021	547	0	0	
0	0	0	0	0	634	568	1021	551	0	0	
1	0	0	0	0	638	547	1021	551	0	0	
2	0	0	0	0	637	526	1021	547	0	0	
3	0	0	0	0	631	507	1020	540	0	0	
4	0	0	0	0	621	492	1021	531	0	0	
5	0	0	0	0	608	482	1021	521	0	0	
6	0	0	0	0	592	478	1021	509	0	0	
7	0	0	0	0	577	481	1021	498	0	0	
8	0	0	0	0	562	490	1021	489	0	0	
9	0	0	0	0	550	505	1021	482	0	0	
10	0	0	0	0	540	524	1021	479	0	0	
11	0	0	0	0	536	544	1021	478	0	0	
12	0	0	0	0	537	565	1021	481	0	0	
13	0	0	0	0	542	583	1021	487	0	0	
14	0	0	0	0	552	598	1021	497	0	0	
15	0	0	0	0	565	607	1021	507	0	0	
0	0	0	0	0	580	609	1021	518	0	0	
1	0	0	0	0	595	605	1021	528	0	0	
2	0	0	0	0	608	595	1021	537	0	0	
3	0	0	0	0	621	581	1021	544	0	0	
4	0	0	0	0	629	562	1021	548	0	0	
5	0	0	0	0	633	541	1021	549	0	0	
6	0	0	0	0	633	520	1021	547	0	0	
7	0	0	0	0	627	503	1021	540	0	0	
8	0	0	0	0	619	489	1021	533	0	0	
9	0	0	0	0	607	480	1021	523	0	0	
10	0	0	0	0	592	478	1021	513	0	0	
11	0	0	0	0	578	482	1021	503	0	0	
12	0	0	0	0	564	492	1021	494	0	0	
13	0	0	0	0	553	508	1021	487	0	0	
14	0	0	0	0	545	527	1021	483	0	0	
15	0	0	0	0	543	549	1021	484	0	0	
0	0	0	0	0	544	570	1021	487	0	0	
1	0	0	0	0	551	590	1021	493	0	0	
2	0	0	0	0	562	605	1021	502	0	0	
3	0	0	0	0	576	615	1021	512	0	0	
4	0	0	0	0	592	618	1021	524	0	0	
5	0	0	0	0	608	615	1021	535	0	0	
6	0	0	0	0	624	607	1021	543	0	0	
7	0	0	0	0	637	593	1021	551	0	0	
8	0	0	0	0	646	575	1021	555	0	0	
9	0	0	0	0	650	554	1021	556	0	0	
10	0	0	0	0	649	534	1021	553	0	0	
11	0	0	0	0	643	515	1021	547	0	0	
12	0	0	0	0	633	499	1021	539	0	0	
13	0	0	0	0	620	490	1021	529	0	0	
14	0	0	0	0	604	486	1021	518	0	0	
15	0	0	0	0	588	488	1021	508	0	0	
0	0	0	0	0	572	497	1021	499	0	0	
1	0	0	0	0	560	512	1021	491	0	0	
2	0	0	0	0	551	531	1021	487	0	0	
3	0	0	0	0	546	551	1021	487	0	0	
4	0	0	0	0	547	572	1021	490	0	0	
5	0	0	0	0	553	591	1021	496	0	0	
6	0	0	0	0	563	606	1021	505	0	0	
7	0	0	0	0	576	615	1021	515	0	0	
8	0	0	0	0	591	619	1021	526	0	0	
9	0	0	0	0	607	615	1020	536	0	0	
10	0	0	0	0	621	606	1021	545	0	0	
11	0	0	0	0	633	592	1021	552	0	0	
12	0	0	0	0	641	573	1021	556	0	0	
13	0	0	0	0	645	553	1021	556	0	0	
14	0	0	0	0	644	531	1021	552	0	0	
15	0	0	0	0	638	512	1021	546	0	0	
0	0	0	0	0	627	498	1021	537	0	0	
1	0	0	0	0	614	489	1021	527	0	0	
2	0	0	0	0	599	486	1021	515	0	0	
3	0	0	0	0	583	488	1021	505	0	0	
4	0	0	0	0	568	497	1021	496	0	0	
5	0	0	0	0	556	512	1021	488	0	0	
6	0	0	0	0	547	531	1021	484	0	0	
7	0	0	0	0	543	551	1021	483	0	0	
8	0	0	0	0	544	572	1021	486	0	0	
9	0	0	0	0	550	590	1021	491	0	0	
10	0	0	0	0	560	604	1021	499	0	0	
11	0	0	0	0	573	612	1021	509	0	0	
12	0	0	0	0	588	615	1021	519	0	0	
13	0	0	0	0	602	611	1021	530	0	0	
14	0	0	0	0	616	600	1021	539	0	0	
15	0	0	0	0	628	586	1021	545	0	0	
0	0	0	0	0	636	567	1021	550	0	0	
1	0	0	0	0	640	545	1021	550	0	0	
2	0	0	0	0	639	525	1021	547	0	0	
3	0	0	0	0	633	506	1021	542	0	0	
4	0	0	0	0	624	492	1021	534	0	0	
5	0	0	0	0	610	483	1021	524	0	0	
6	0	0	0	0	595	481	1021	513	0	0	
7	0	0	0	0	581	484	1021	504	0	0	
8	0	0	0	0	567	495	1021	495	0	0	
9	0	0	0	0	555	510	1021	488	0	0	
10	0	0	0	0	547	530	1021	485	0	0	
11	0	0	0	0	543	551	1021	485	0	0	
12	0	0	0	0	545	574	1021	488	0	0	
13	0	0	0	0	552	593	1020	495	0	0	
14	0	0	0	0	563	608	1021	504	0	0	
15	0	0	0	0	577	617	1021	515	0	0	
0	0	0	0	0	592	621	1021	526	0	0	
1	0	0	0	0	608	617	1020	536	0	0	
2	0	0	0	0	622	608	1021	545	0	0	
3	0	0	0	0	633	593	1021	551	0	0	
4	0	0	0	0	641	574	1021	554	0	0	
5	0	0	0	0	644	552	1021	553	0	0	
6	0	0	0	0	642	531	1021	549	0	0	
7	0	0	0	0	635	510	1021	541	0	0	
8	0	0	0	0	623	495	1021	531	0	0	
9	0	0	0	0	608	484	1021	519	0	0	
10	0	0	0	0	591	479	1021	506	0	0	
11	0	0	0	0	575	482	1021	494	0	0	
12	0	0	0	0	559	490	1021	484	0	0	
13	0	0	0	0	546	504	1021	476	0	0	
14	0	0	0	0	536	522	1021	471	0	0	
15	0	0	0	0	532	543	1021	470	0	0	
0	0	0	0	0	534	563	1021	473	0	0	
1	0	0	0	0	540	582	1021	480	0	0	
2	0	0	0	0	551	598	1021	489	0	0	
3	0	0	0	0	566	607	1021	500	0	0	
4	0	0	0	0	582	610	1021	512	0	0	
5	0	0	0	0	598	607	1021	523	0	0	
6	0	0	0	0	614	598	1021	533	0	0	
7	0	0	0	0	627	583	1021	540	0	0	
8	0	0	0	0	636	563	1021	545	0	0	
9	0	0	0	0	640	542	1021	545	0	0	
10	0	0	0	0	639	519	1021	542	0	0	
11	0	0	0	0	633	499	1021	536	0	0	
12	0	0	0	0	623	483	1021	526	0	0	
13	0	0	0	0	609	472	1021	515	0	0	
14	0	0	0	0	592	467	1021	504	0	0	
15	0	0	0	0	575	469	1021	493	0	0	
0	0	0	0	0	558	478	1020	482	0	0	
1	0	0	0	0	545	492	1021	475	0	0	
2	0	0	0	0	535	510	1021	471	0	0	
3	0	0	0	0	529	531	1021	470	0	0	
4	0	0	0	0	529	553	1021	473	0	0	
5	0	0	0	0	535	572	1021	479	0	0	
6	0	0	0	0	545	588	1021	487	0	0	
7	0	0	0	0	560	598	1021	499	0	0	
8	0	0	0	0	576	602	1021	510	0	0	
9	0	0	0	0	593	599	1020	520	0	0	
10	0	0	0	0	609	590	1021	531	0	0	
11	0	0	0	0	623	577	1021	538	0	0	
12	0	0	0	0	633	559	1021	543	0	0	
13	0	0	0	0	639	538	1021	544	0	0	
14	0	0	0	0	639	517	1021	543	0	0	
15	0	0	0	0	634	499	1021	537	0	0	
0	0	0	0	0	625	483	1021	530	0	0	
1	0	0	0	0	612	474	1021	521	0	0	
2	0	0	0	0	596	470	1021	511	0	0	
3	0	0	0	0	580	473	1021	501	0	0	
4	0	0	0	0	564	482	1021	493	0	0	
5	0	0	0	0	551	497	1021	487	0	0	
6	0	0	0	0	542	517	1021	483	0	0	
7	0	0	0	0	537	539	1021	483	0	0	
8	0	0	0	0	539	561	1021	487	0	0	
9	0	0	0	0	545	581	1021	494	0	0	
10	0	0	0	0	556	598	1021	503	0	0	
11	0	0	0	0	571	608	1021	513	0	0	
12	0	0	0	0	587	612	1021	524	0	0	
13	0	0	0	0	603	609	1021	535	0	0	
14	0	0	0	0	617	601	1021	543	0	0	
15	0	0	0	0	631	587	1021	549	0	0	
0	0	0	0	0	640	568	1021	553	0	0	
1	0	0	0	0	644	547	1021	552	0	0	
2	0	0	0	0	643	525	1021	548	0	0	
3	0	0	0	0	636	506	1021	541	0	0	
4	0	0	0	0	626	490	1021	531	0	0	
5	0	0	0	0	611	479	1021	519	0	0	
6	0	0	0	0	595	475	1021	508	0	0	
7	0	0	0	0	579	477	1021	496	0	0	
8	0	0	0	0	563	486	1021	487	0	0	
9	0	0	0	0	549	500	1021	479	0	0	
10	0	0	0	0	540	519	1021	475	0	0	
11	0	0	0	0	535	540	1021	475	0	0	
12	0	0	0	0	536	561	1021	478	0	0	
13	0	0	0	0	543	581	1021	486	0	0	
14	0	0	0	0	553	597	1021	495	0	0	
15	0	0	0	0	568	608	1021	507	0	0	
0	0	0	0	0	583	612	1021	519	0	0	
1	0	0	0	0	600	610	1021	530	0	0	
2	0	0	0	0	615	602	1021	540	0	0	
3	0	0	0	0	628	588	1021	547	0	0	
4	0	0	0	0	637	570	1021	551	0	0	
5	0	0	0	0	642	549	1021	552	0	0	
6	0	0	0	0	641	527	1021	550	0	0	
7	0	0	0	0	636	509	1021	543	0	0	
8	0	0	0	0	627	493	1021	534	0	0	
9	0	0	0	0	614	483	1021	524	0	0	
10	0	0	0	0	599	479	1021	512	0	0	
11	0	0	0	0	583	482	1021	501	0	0	
12	0	0	0	0	567	490	1021	492	0	0	
13	0	0	0	0	554	505	1021	484	0	0	
14	0	0	0	0	544	523	1021	479	0	0	
15	0	0	0	0	539	544	1021	479	0	0	
0	0	0	0	0	540	565	1021	481	0	0	
1	0	0	0	0	543	583	1021	487	0	0	
2	0	0	0	0	554	598	1021	495	0	0	
3	0	0	0	0	566	606	1021	504	0	0	
4	0	0	0	0	580	609	1021	515	0	0	
5	0	0	0	0	595	605	1021	524	0	0	
6	0	0	0	0	609	595	1021	533	0	0	
7	0	0	0	0	622	581	1021	540	0	0	
8	0	0	0	0	630	562	1021	544	0	0	
9	0	0	0	0	635	541	1021	544	0	0	
10	0	0	0	0	635	519	1021	542	0	0	
11	0	0	0	0	629	499	1021	536	0	0	
12	0	0	0	0	621	485	1021	527	0	0	
13	0	0	0	0	608	475	1021	517	0	0	
14	0	0	0	0	594	472	1021	506	0	0	
15	0	0	0	0	580	475	1021	496	0	0	
0	0	0	0	0	565	484	1021	487	0	0	
1	0	0	0	0	554	500	1021	480	0	0	
2	0	0	0	0	545	519	1021	476	0	0	
3	0	0	0	0	541	541	1021	475	0	0	
4	0	0	0	0	541	563	1021	477	0	0	
5	0	0	0	0	545	581	1021	481	0	0	
6	0	0	0	0	554	595	1021	488	0	0	
7	0	0	0	0	563	604	1021	496	0	0	
8	0	0	0	0	575	605	1021	504	0	0	
9	0	0	0	0	586	599	1021	511	0	0	
10	0	0	0	0	594	585	1021	515	0	0	
11	0	0	0	0	600	566	1021	517	0	0	
12	0	0	0	0	601	540	1021	515	0	0	
13	0	0	0	0	598	512	1021	509	0	0	
14	0	0	0	0	589	483	1021	498	0	0	
15	0	0	0	0	574	454	1021	483	0	0	
0	0	0	0	0	556	430	1021	466	0	0	
1	0	0	0	0	533	410	1021	447	0	0	
2	0	0	0	0	509	396	1021	426	0	0	
3	0	0	0	0	484	389	1021	405	0	0	
4	0	0	0	0	460	388	1021	385	0	0	
5	0	0	0	0	439	393	1021	368	0	0	
6	0	0	0	0	420	402	1021	353	0	0	
7	0	0	0	0	407	415	1021	342	0	0	
8	0	0	0	0	398	427	1021	333	0	0	
9	0	0	0	0	393	437	1021	328	0	0	
10	0	0	0	0	393	443	1021	326	0	0	
11	0	0	0	0	396	444	1021	325	0	0	
12	0	0	0	0	401	438	1021	326	0	0	
13	0	0	0	0	408	425	1021	326	0	0	
14	0	0	0	0	412	407	1020	327	0	0	
15	0	0	0	0	417	385	1021	326	0	0	
0	0	0	0	0	419	359	1021	324	0	0	
1	0	0	0	0	420	334	1021	322	0	0	
2	0	0	0	0	418	310	1021	318	0	0	
3	0	0	0	0	415	290	1021	314	0	0	
4	0	0	0	0	410	277	1021	312	0	0	
5	0	0	0	0	405	272	1021	310	0	0	
6	0	0	0	0	402	276	1021	311	0	0	
7	0	0	0	0	401	291	1021	315	0	0	
8	0	0	0	0	403	314	1021	323	0	0	
9	0	0	0	0	410	347	1021	335	0	0	
10	0	0	0	0	422	385	1021	351	0	0	
11	0	0	0	0	440	428	1021	372	0	0	
12	0	0	0	0	462	472	1021	396	0	0	
13	0	0	0	0	489	513	1021	423	0	0	
14	0	0	0	0	519	550	1021	451	0	0	
15	0	0	0	0	551	579	1021	480	0	0	
0	0	0	0	0	582	600	1021	507	0	0	
1	0	0	0	0	611	612	1021	531	0	0	
2	0	0	0	0	636	615	1021	552	0	0	
3	0	0	0	0	657	610	1021	567	0	0	
4	0	0	0	0	672	597	1021	577	0	0	
5	0	0	0	0	679	579	1021	581	0	0	
6	0	0	0	0	679	559	1021	580	0	0	
7	0	0	0	0	672	537	1021	573	0	0	
8	0	0	0	0	660	519	1021	561	0	0	
9	0	0	0	0	641	505	1021	547	0	0	
10	0	0	0	0	621	496	1021	531	0	0	
11	0	0	0	0	597	493	1021	516	0	0	
12	0	0	0	0	576	497	1021	502	0	0	
13	0	0	0	0	557	507	1021	489	0	0	
14	0	0	0	0	542	522	1021	480	0	0	
15	0	0	0	0	532	540	1021	477	0	0	
0	0	0	0	0	530	561	1021	478	0	0	
1	0	0	0	0	534	579	1021	483	0	0	
2	0	0	0	0	543	595	1021	491	0	0	
3	0	0	0	0	557	606	1021	502	0	0	
4	0	0	0	0	574	611	1021	514	0	0	
5	0	0	0	0	593	610	1021	527	0	0	
6	0	0	0	0	610	603	1021	537	0	0	
7	0	0	0	0	627	591	1021	546	0	0	
8	0	0	0	0	639	574	1021	552	0	0	
9	0	0	0	0	648	555	1021	555	0	0	
10	0	0	0	0	651	535	1021	554	0	0	
11	0	0	0	0	649	516	1021	549	0	0	
12	0	0	0	0	643	502	1021	542	0	0	
13	0	0	0	0	631	493	1021	534	0	0	
14	0	0	0	0	617	489	1021	523	0	0	
15	0	0	0	0	602	492	1021	513	0	0	
0	0	0	0	0	587	501	1020	504	0	0	
1	0	0	0	0	575	516	1021	497	0	0	
2	0	0	0	0	564	535	1021	493	0	0	
3	0	0	0	0	559	557	1021	492	0	0	
4	0	0	0	0	558	578	1021	495	0	0	
5	0	0	0	0	561	598	1021	500	0	0	
6	0	0	0	0	571	614	1021	508	0	0	
7	0	0	0	0	582	624	1021	518	0	0	
8	0	0	0	0	595	628	1021	528	0	0	
9	0	0	0	0	609	625	1020	537	0	0	
10	0	0	0	0	623	616	1021	547	0	0	
11	0	0	0	0	635	602	1021	554	0	0	
12	0	0	0	0	643	583	1021	558	0	0	
13	0	0	0	0	647	561	1021	559	0	0	
14	0	0	0	0	647	539	1021	556	0	0	
15	0	0	0	0	642	518	1021	550	0	0	
0	0	0	0	0	633	502	1021	540	0	0	
1	0	0	0	0	621	491	1021	530	0	0	
2	0	0	0	0	606	486	1021	519	0	0	
3	0	0	0	0	592	489	1021	508	0	0	
4	0	0	0	0	578	497	1021	499	0	0	
5	0	0	0	0	566	512	1021	491	0	0	
6	0	0	0	0	558	531	1021	487	0	0	
7	0	0	0	0	553	553	1021	486	0	0	
8	0	0	0	0	554	574	1021	488	0	0	
9	0	0	0	0	559	593	1021	495	0	0	
10	0	0	0	0	568	609	1021	503	0	0	
11	0	0	0	0	579	619	1021	514	0	0	
12	0	0	0	0	593	623	1021	525	0	0	
13	0	0	0	0	608	620	1021	536	0	0	
14	0	0	0	0	622	611	1021	545	0	0	
15	0	0	0	0	633	598	1021	553	0	0	
0	0	0	0	0	642	579	1021	558	0	0	
1	0	0	0	0	647	558	1021	559	0	0	
2	0	0	0	0	647	537	1021	556	0	0	
3	0	0	0	0	642	517	1021	551	0	0	
4	0	0	0	0	634	502	1021	543	0	0	
5	0	0	0	0	622	492	1021	533	0	0	
6	0	0	0	0	608	488	1021	522	0	0	
7	0	0	0	0	594	491	1021	511	0	0	
8	0	0	0	0	579	499	1021	502	0	0	
9	0	0	0	0	568	514	1021	495	0	0	
10	0	0	0	0	560	533	1021	490	0	0	
11	0	0	0	0	556	554	1021	489	0	0	
12	0	0	0	0	556	576	1021	492	0	0	
13	0	0	0	0	562	595	1021	497	0	0	
14	0	0	0	0	572	611	1021	505	0	0	
15	0	0	0	0	584	621	1021	515	0	0	
0	0	0	0	0	598	624	1021	525	0	0	
1	0	0	0	0	614	622	1021	535	0	0	
2	0	0	0	0	627	612	1021	544	0	0	
3	0	0	0	0	639	599	1021	550	0	0	
4	0	0	0	0	647	579	1021	554	0	0	
5	0	0	0	0	650	558	1021	555	0	0	
6	0	0	0	0	649	536	1021	551	0	0	
7	0	0	0	0	643	515	1021	545	0	0	
8	0	0	0	0	633	499	1021	536	0	0	
9	0	0	0	0	620	488	1021	526	0	0	
10	0	0	0	0	605	483	1021	515	0	0	
11	0	0	0	0	590	484	1021	504	0	0	
12	0	0	0	0	574	492	1021	494	0	0	
13	0	0	0	0	563	507	1021	486	0	0	
14	0	0	0	0	553	525	1021	481	0	0	
15	0	0	0	0	548	545	1021	480	0	0	
0	0	0	0	0	549	566	1021	483	0	0	
1	0	0	0	0	553	585	1021	487	0	0	
2	0	0	0	0	563	601	1021	496	0	0	
3	0	0	0	0	575	611	1021	505	0	0	
4	0	0	0	0	589	615	1021	515	0	0	
5	0	0	0	0	604	612	1021	526	0	0	
6	0	0	0	0	616	604	1021	534	0	0	
7	0	0	0	0	629	590	1021	541	0	0	
8	0	0	0	0	637	572	1021	545	0	0	
9	0	0	0	0	641	551	1021	545	0	0	
10	0	0	0	0	641	530	1021	543	0	0	
11	0	0	0	0	636	511	1021	536	0	0	
12	0	0	0	0	627	496	1021	528	0	0	
13	0	0	0	0	615	486	1021	518	0	0	
14	0	0	0	0	601	482	1021	508	0	0	
15	0	0	0	0	587	484	1021	497	0	0	
0	0	0	0	0	572	494	1020	488	0	0	
1	0	0	0	0	560	508	1021	481	0	0	
2	0	0	0	0	551	527	1021	478	0	0	
3	0	0	0	0	547	548	1021	477	0	0	
4	0	0	0	0	548	569	1021	480	0	0	
5	0	0	0	0	552	589	1021	486	0	0	
6	0	0	0	0	563	605	1021	495	0	0	
7	0	0	0	0	575	615	1021	505	0	0	
8	0	0	0	0	590	619	1021	516	0	0	
9	0	0	0	0	605	615	1021	527	0	0	
10	0	0	0	0	618	606	1021	536	0	0	
11	0	0	0	0	630	592	1021	543	0	0	
12	0	0	0	0	639	574	1021	547	0	0	
13	0	0	0	0	643	552	1021	548	0	0	
14	0	0	0	0	642	529	1021	545	0	0	
15	0	0	0	0	636	510	1020	538	0	0	
0	0	0	0	0	627	493	1021	530	0	0	
1	0	0	0	0	614	482	1021	519	0	0	
2	0	0	0	0	599	477	1021	508	0	0	
3	0	0	0	0	584	479	1021	497	0	0	
4	0	0	0	0	569	487	1021	487	0	0	
5	0	0	0	0	557	502	1021	479	0	0	
6	0	0	0	0	547	519	1021	475	0	0	
7	0	0	0	0	543	541	1021	473	0	0	
8	0	0	0	0	543	562	1021	476	0	0	
9	0	0	0	0	547	581	1021	481	0	0	
10	0	0	0	0	557	597	1021	489	0	0	
11	0	0	0	0	568	607	1021	499	0	0	
12	0	0	0	0	583	611	1021	510	0	0	
13	0	0	0	0	597	608	1021	520	0	0	
14	0	0	0	0	610	599	1021	529	0	0	
15	0	0	0	0	622	584	1021	536	0	0	
0	0	0	0	0	630	565	1021	539	0	0	
1	0	0	0	0	633	543	1021	539	0	0	
2	0	0	0	0	633	521	1021	536	0	0	
3	0	0	0	0	627	501	1021	529	0	0	
4	0	0	0	0	618	485	1021	520	0	0	
5	0	0	0	0	605	474	1021	509	0	0	
6	0	0	0	0	590	470	1021	498	0	0	
7	0	0	0	0	575	472	1021	487	0	0	
8	0	0	0	0	560	480	1021	478	0	0	
9	0	0	0	0	548	494	1021	472	0	0	
10	0	0	0	0	539	512	1021	467	0	0	
11	0	0	0	0	534	533	1021	467	0	0	
12	0	0	0	0	535	555	1021	470	0	0	
13	0	0	0	0	539	574	1021	475	0	0	
14	0	0	0	0	549	590	1021	484	0	0	
15	0	0	0	0	562	600	1021	495	0	0	
0	0	0	0	0	576	605	1021	506	0	0	
1	0	0	0	0	592	603	1021	517	0	0	
2	0	0	0	0	607	595	1021	527	0	0	
3	0	0	0	0	620	582	1021	534	0	0	
4	0	0	0	0	628	564	1021	539	0	0	
5	0	0	0	0	633	543	1021	540	0	0	
6	0	0	0	0	633	522	1021	537	0	0	
7	0	0	0	0	629	502	1021	532	0	0	
8	0	0	0	0	620	487	1021	524	0	0	
9	0	0	0	0	607	476	1021	514	0	0	
10	0	0	0	0	593	471	1021	504	0	0	
11	0	0	0	0	577	473	1021	493	0	0	
12	0	0	0	0	562	480	1021	483	0	0	
13	0	0	0	0	548	494	1021	475	0	0	
14	0	0	0	0	538	511	1021	470	0	0	
15	0	0	0	0	532	531	1021	468	0	0	
0	0	0	0	0	531	551	1021	470	0	0	
1	0	0	0	0	536	569	1021	475	0	0	
2	0	0	0	0	545	585	1021	482	0	0	
3	0	0	0	0	557	595	1021	492	0	0	
4	0	0	0	0	571	599	1021	502	0	0	
5	0	0	0	0	586	597	1021	513	0	0	
6	0	0	0	0	601	588	1021	522	0	0	
7	0	0	0	0	614	575	1021	528	0	0	
8	0	0	0	0	623	557	1021	533	0	0	
9	0	0	0	0	628	537	1021	534	0	0	
10	0	0	0	0	628	515	1021	531	0	0	
11	0	0	0	0	624	496	1021	526	0	0	
12	0	0	0	0	615	480	1021	516	0	0	
13	0	0	0	0	603	470	1021	506	0	0	
14	0	0	0	0	588	465	1021	495	0	0	
15	0	0	0	0	572	466	1021	483	0	0	
0	0	0	0	0	557	473	1021	473	0	0	
1	0	0	0	0	544	486	1021	465	0	0	
2	0	0	0	0	533	504	1021	460	0	0	
3	0	0	0	0	527	524	1021	459	0	0	
4	0	0	0	0	526	545	1021	461	0	0	
5	0	0	0	0	530	563	1021	467	0	0	
6	0	0	0	0	539	580	1021	475	0	0	
7	0	0	0	0	551	591	1021	485	0	0	
8	0	0	0	0	567	595	1021	496	0	0	
9	0	0	0	0	582	593	1021	507	0	0	
10	0	0	0	0	597	585	1021	516	0	0	
11	0	0	0	0	610	572	1021	524	0	0	
12	0	0	0	0	620	554	1021	528	0	0	
13	0	0	0	0	626	533	1021	529	0	0	
14	0	0	0	0	626	511	1021	527	0	0	
15	0	0	0	0	621	491	1021	521	0	0	
0	0	0	0	0	612	476	1021	512	0	0	
1	0	0	0	0	599	464	1021	502	0	0	
2	0	0	0	0	584	459	1021	491	0	0	
3	0	0	0	0	568	460	1021	480	0	0	
4	0	0	0	0	552	467	1021	471	0	0	
5	0	0	0	0	539	481	1021	463	0	0	
6	0	0	0	0	529	499	1021	459	0	0	
7	0	0	0	0	524	521	1021	459	0	0	
8	0	0	0	0	524	542	1021	462	0	0	
9	0	0	0	0	528	562	1020	467	0	0	
10	0	0	0	0	538	579	1021	476	0	0	
11	0	0	0	0	551	590	1021	486	0	0	
12	0	0	0	0	566	594	1021	497	0	0	
13	0	0	0	0	581	592	1021	507	0	0	
14	0	0	0	0	596	584	1021	517	0	0	
15	0	0	0	0	608	572	1021	524	0	0	
0	0	0	0	0	618	554	1021	528	0	0	
1	0	0	0	0	623	533	1021	529	0	0	
2	0	0	0	0	623	512	1021	527	0	0	
3	0	0	0	0	618	492	1021	522	0	0	
4	0	0	0	0	608	476	1021	513	0	0	
5	0	0	0	0	595	465	1021	503	0	0	
6	0	0	0	0	580	460	1021	493	0	0	
7	0	0	0	0	564	461	1021	482	0	0	
8	0	0	0	0	550	469	1020	473	0	0	
9	0	0	0	0	537	483	1021	466	0	0	
10	0	0	0	0	527	501	1021	462	0	0	
11	0	0	0	0	523	523	1021	461	0	0	
12	0	0	0	0	523	545	1021	463	0	0	
13	0	0	0	0	528	565	1021	469	0	0	
14	0	0	0	0	538	582	1021	477	0	0	
15	0	0	0	0	551	594	1021	487	0	0	
0	0	0	0	0	567	600	1021	498	0	0	
1	0	0	0	0	582	598	1020	508	0	0	
2	0	0	0	0	598	591	1021	519	0	0	
3	0	0	0	0	611	579	1021	526	0	0	
4	0	0	0	0	621	562	1021	531	0	0	
5	0	0	0	0	626	542	1021	532	0	0	
6	0	0	0	0	627	520	1021	531	0	0	
7	0	0	0	0	623	502	1020	526	0	0	
8	0	0	0	0	615	486	1021	519	0	0	
9	0	0	0	0	604	475	1021	511	0	0	
10	0	0	0	0	590	471	1021	501	0	0	
11	0	0	0	0	575	472	1021	492	0	0	
12	0	0	0	0	560	480	1021	484	0	0	
13	0	0	0	0	547	494	1021	477	0	0	
14	0	0	0	0	539	513	1021	474	0	0	
15	0	0	0	0	534	534	1021	473	0	0	
0	0	0	0	0	534	556	1021	476	0	0	
1	0	0	0	0	539	575	1021	482	0	0	
2	0	0	0	0	548	592	1021	490	0	0	
3	0	0	0	0	560	603	1021	500	0	0	
4	0	0	0	0	575	608	1021	510	0	0	
5	0	0	0	0	590	607	1021	520	0	0	
6	0	0	0	0	604	599	1021	529	0	0	
7	0	0	0	0	617	585	1021	535	0	0	
8	0	0	0	0	625	566	1021	539	0	0	
9	0	0	0	0	630	545	1021	540	0	0	
10	0	0	0	0	631	522	1021	537	0	0	
11	0	0	0	0	625	502	1021	531	0	0	
12	0	0	0	0	617	486	1021	523	0	0	
13	0	0	0	0	604	474	1021	512	0	0	
14	0	0	0	0	590	469	1021	502	0	0	
15	0	0	0	0	575	471	1021	492	0	0	
0	0	0	0	0	561	479	1021	483	0	0	
1	0	0	0	0	548	493	1021	476	0	0	
2	0	0	0	0	539	511	1021	473	0	0	
3	0	0	0	0	534	533	1021	472	0	0	
4	0	0	0	0	534	555	1021	476	0	0	
5	0	0	0	0	539	575	1021	482	0	0	
6	0	0	0	0	547	592	1021	490	0	0	
7	0	0	0	0	560	604	1021	500	0	0	
8	0	0	0	0	575	609	1021	511	0	0	
9	0	0	0	0	590	608	1021	522	0	0	
10	0	0	0	0	604	600	1021	531	0	0	
11	0	0	0	0	617	587	1021	538	0	0	
12	0	0	0	0	626	568	1021	542	0	0	
13	0	0	0	0	631	547	1021	543	0	0	
14	0	0	0	0	631	524	1021	541	0	0	
15	0	0	0	0	627	504	1021	535	0	0	
0	0	0	0	0	618	487	1021	527	0	0	
1	0	0	0	0	606	475	1021	517	0	0	
2	0	0	0	0	591	470	1021	506	0	0	
3	0	0	0	0	576	470	1021	495	0	0	
4	0	0	0	0	561	477	1021	486	0	0	
5	0	0	0	0	549	491	1021	478	0	0	
6	0	0	0	0	539	508	1021	474	0	0	
7	0	0	0	0	534	529	1021	473	0	0	
8	0	0	0	0	533	551	1021	475	0	0	
9	0	0	0	0	536	569	1021	480	0	0	
10	0	0	0	0	546	585	1021	488	0	0	
11	0	0	0	0	558	595	1021	498	0	0	
12	0	0	0	0	571	600	1021	508	0	0	
13	0	0	0	0	585	597	1021	517	0	0	
14	0	0	0	0	599	588	1021	525	0	0	
15	0	0	0	0	611	574	1021	531	0	0	
0	0	0	0	0	619	556	1021	535	0	0	
1	0	0	0	0	624	535	1021	536	0	0	
2	0	0	0	0	624	513	1021	533	0	0	
3	0	0	0	0	619	493	1021	527	0	0	
4	0	0	0	0	610	477	1021	519	0	0	
5	0	0	0	0	598	466	1021	509	0	0	
6	0	0	0	0	584	462	1021	499	0	0	
7	0	0	0	0	569	464	1021	489	0	0	
8	0	0	0	0	555	472	1021	481	0	0	
9	0	0	0	0	543	487	1021	475	0	0	
10	0	0	0	0	535	506	1021	471	0	0	
11	0	0	0	0	531	528	1021	471	0	0	
12	0	0	0	0	531	550	1021	474	0	0	
13	0	0	0	0	536	571	1021	481	0	0	
14	0	0	0	0	547	588	1021	489	0	0	
15	0	0	0	0	559	599	1021	499	0	0	
0	0	0	0	0	575	604	1021	510	0	0	
1	0	0	0	0	590	603	1021	521	0	0	
2	0	0	0	0	604	595	1021	530	0	0	
3	0	0	0	0	617	582	1021	537	0	0	
4	0	0	0	0	625	563	1021	542	0	0	
5	0	0	0	0	630	541	1021	543	0	0	
6	0	0	0	0	630	519	1021	540	0	0	
7	0	0	0	0	624	498	1021	534	0	0	
8	0	0	0	0	615	481	1021	525	0	0	
9	0	0	0	0	601	469	1021	515	0	0	
10	0	0	0	0	586	463	1021	504	0	0	
11	0	0	0	0	570	464	1021	493	0	0	
12	0	0	0	0	555	471	1021	483	0	0	
13	0	0	0	0	542	485	1021	476	0	0	
14	0	0	0	0	531	504	1021	472	0	0	
15	0	0	0	0	526	525	1021	471	0	0	
0	0	0	0	0	527	547	1021	473	0	0	
1	0	0	0	0	531	567	1021	479	0	0	
2	0	0	0	0	540	584	1021	487	0	0	
3	0	0	0	0	553	596	1021	497	0	0	
4	0	0	0	0	568	601	1021	508	0	0	
5	0	0	0	0	583	599	1021	518	0	0	
6	0	0	0	0	598	591	1021	527	0	0	
7	0	0	0	0	610	577	1021	534	0	0	
8	0	0	0	0	620	559	1021	538	0	0	
9	0	0	0	0	624	537	1021	538	0	0	
10	0	0	0	0	625	515	1021	535	0	0	
11	0	0	0	0	620	494	1021	529	0	0	
12	0	0	0	0	611	478	1021	520	0	0	
13	0	0	0	0	598	466	1021	510	0	0	
14	0	0	0	0	583	460	1021	499	0	0	
15	0	0	0	0	568	460	1021	488	0	0	
0	0	0	0	0	551	467	1020	479	0	0	
1	0	0	0	0	539	480	1021	471	0	0	
2	0	0	0	0	529	498	1021	467	0	0	
3	0	0	0	0	523	519	1021	466	0	0	
4	0	0	0	0	523	541	1021	468	0	0	
5	0	0	0	0	527	561	1021	473	0	0	
6	0	0	0	0	536	578	1021	481	0	0	
7	0	0	0	0	549	589	1021	491	0	0	
8	0	0	0	0	564	595	1021	502	0	0	
9	0	0	0	0	580	594	1021	513	0	0	
10	0	0	0	0	595	586	1021	523	0	0	
11	0	0	0	0	608	573	1021	529	0	0	
12	0	0	0	0	618	555	1021	535	0	0	
13	0	0	0	0	624	534	1021	536	0	0	
14	0	0	0	0	625	512	1021	535	0	0	
15	0	0	0	0	620	491	1021	529	0	0	
0	0	0	0	0	612	474	1021	521	0	0	
1	0	0	0	0	600	462	1021	511	0	0	
2	0	0	0	0	584	456	1021	500	0	0	
3	0	0	0	0	569	457	1021	489	0	0	
4	0	0	0	0	554	464	1021	480	0	0	
5	0	0	0	0	541	478	1021	472	0	0	
6	0	0	0	0	531	496	1021	467	0	0	
7	0	0	0	0	525	517	1021	465	0	0	
8	0	0	0	0	524	539	1020	468	0	0	
9	0	0	0	0	529	560	1021	474	0	0	
10	0	0	0	0	538	577	1021	482	0	0	
11	0	0	0	0	551	589	1021	492	0	0	
12	0	0	0	0	566	595	1021	503	0	0	
13	0	0	0	0	581	594	1021	515	0	0	
14	0	0	0	0	596	587	1021	524	0	0	
15	0	0	0	0	609	574	1021	532	0	0	
0	0	0	0	0	620	557	1021	537	0	0	
1	0	0	0	0	625	536	1021	538	0	0	
2	0	0	0	0	627	515	1021	536	0	0	
3	0	0	0	0	623	494	1021	531	0	0	
4	0	0	0	0	614	478	1021	522	0	0	
5	0	0	0	0	601	465	1021	512	0	0	
6	0	0	0	0	587	459	1021	500	0	0	
7	0	0	0	0	570	459	1020	489	0	0	
8	0	0	0	0	554	465	1021	479	0	0	
9	0	0	0	0	540	478	1021	471	0	0	
10	0	0	0	0	529	495	1021	466	0	0	
11	0	0	0	0	523	515	1021	464	0	0	
12	0	0	0	0	522	536	1021	466	0	0	
13	0	0	0	0	526	555	1021	472	0	0	
14	0	0	0	0	535	572	1021	480	0	0	
15	0	0	0	0	547	583	1021	491	0	0	
0	0	0	0	0	562	589	1021	502	0	0	
1	0	0	0	0	578	589	1021	514	0	0	
2	0	0	0	0	594	582	1021	525	0	0	
3	0	0	0	0	608	571	1021	534	0	0	
4	0	0	0	0	619	554	1021	540	0	0	
5	0	0	0	0	625	535	1021	542	0	0	
6	0	0	0	0	627	514	1021	540	0	0	
7	0	0	0	0	624	495	1021	535	0	0	
8	0	0	0	0	617	479	1021	527	0	0	
9	0	0	0	0	605	468	1021	517	0	0	
10	0	0	0	0	591	462	1021	505	0	0	
11	0	0	0	0	575	463	1021	494	0	0	
12	0	0	0	0	559	470	1021	483	0	0	
13	0	0	0	0	545	483	1021	475	0	0	
14	0	0	0	0	534	499	1021	469	0	0	
15	0	0	0	0	527	519	1021	467	0	0	
0	0	0	0	0	526	540	1021	468	0	0	
1	0	0	0	0	529	560	1021	473	0	0	
2	0	0	0	0	538	576	1021	482	0	0	
3	0	0	0	0	550	588	1021	492	0	0	
4	0	0	0	0	564	593	1021	503	0	0	
5	0	0	0	0	579	592	1021	515	0	0	
6	0	0	0	0	594	584	1021	525	0	0	
7	0	0	0	0	608	572	1021	532	0	0	
8	0	0	0	0	617	554	1021	538	0	0	
9	0	0	0	0	624	534	1021	540	0	0	
10	0	0	0	0	624	512	1021	538	0	0	
11	0	0	0	0	621	492	1021	534	0	0	
12	0	0	0	0	613	476	1021	526	0	0	
13	0	0	0	0	600	464	1021	516	0	0	
14	0	0	0	0	587	459	1021	505	0	0	
15	0	0	0	0	571	459	1021	495	0	0	
0	0	0	0	0	555	466	1021	485	0	0	
1	0	0	0	0	542	479	1021	477	0	0	
2	0	0	0	0	532	496	1021	472	0	0	
3	0	0	0	0	526	517	1021	470	0	0	
4	0	0	0	0	526	539	1021	472	0	0	
5	0	0	0	0	529	558	1021	478	0	0	
6	0	0	0	0	539	575	1021	486	0	0	
7	0	0	0	0	551	587	1021	496	0	0	
8	0	0	0	0	567	593	1021	507	0	0	
9	0	0	0	0	583	592	1021	518	0	0	
10	0	0	0	0	597	585	1020	527	0	0	
11	0	0	0	0	611	573	1021	535	0	0	
12	0	0	0	0	621	556	1021	540	0	0	
13	0	0	0	0	627	536	1021	543	0	0	
14	0	0	0	0	627	514	1021	541	0	0	
15	0	0	0	0	623	494	1021	536	0	0	
0	0	0	0	0	615	477	1021	528	0	0	
1	0	0	0	0	603	465	1021	519	0	0	
2	0	0	0	0	587	459	1021	508	0	0	
3	0	0	0	0	572	459	1021	497	0	0	
4	0	0	0	0	556	465	1021	487	0	0	
5	0	0	0	0	543	479	1021	480	0	0	
6	0	0	0	0	532	496	1021	475	0	0	
7	0	0	0	0	527	517	1021	473	0	0	
8	0	0	0	0	526	538	1021	476	0	0	
9	0	0	0	0	529	558	1021	480	0	0	
10	0	0	0	0	538	575	1021	488	0	0	
11	0	0	0	0	550	587	1021	498	0	0	
12	0	0	0	0	564	592	1021	509	0	0	
13	0	0	0	0	579	591	1021	519	0	0	
14	0	0	0	0	593	583	1020	528	0	0	
15	0	0	0	0	606	571	1021	536	0	0	
0	0	0	0	0	615	553	1021	540	0	0	
1	0	0	0	0	621	532	1021	541	0	0	
2	0	0	0	0	622	510	1021	538	0	0	
3	0	0	0	0	617	489	1021	532	0	0	
4	0	0	0	0	609	472	1021	524	0	0	
5	0	0	0	0	598	460	1021	514	0	0	
6	0	0	0	0	583	453	1021	503	0	0	
7	0	0	0	0	568	453	1021	492	0	0	
8	0	0	0	0	553	460	1020	483	0	0	
9	0	0	0	0	540	473	1021	476	0	0	
10	0	0	0	0	530	491	1021	472	0	0	
11	0	0	0	0	524	512	1021	471	0	0	
12	0	0	0	0	524	534	1021	473	0	0	
13	0	0	0	0	527	555	1021	479	0	0	
14	0	0	0	0	537	572	1021	488	0	0	
15	0	0	0	0	549	585	1021	499	0	0	
0	0	0	0	0	563	591	1021	510	0	0	
1	0	0	0	0	579	590	1021	522	0	0	
2	0	0	0	0	593	583	1021	531	0	0	
3	0	0	0	0	606	571	1021	539	0	0	
4	0	0	0	0	616	553	1021	543	0	0	
5	0	0	0	0	622	533	1021	545	0	0	
6	0	0	0	0	622	511	1021	542	0	0	
7	0	0	0	0	617	491	1020	536	0	0	
8	0	0	0	0	609	474	1021	527	0	0	
9	0	0	0	0	596	462	1021	516	0	0	
10	0	0	0	0	581	455	1021	504	0	0	
11	0	0	0	0	565	456	1021	493	0	0	
12	0	0	0	0	548	462	1021	482	0	0	
13	0	0	0	0	535	475	1021	474	0	0	
14	0	0	0	0	524	493	1021	469	0	0	
15	0	0	0	0	518	513	1021	467	0	0	
0	0	0	0	0	517	535	1021	470	0	0	
1	0	0	0	0	521	556	1021	475	0	0	
2	0	0	0	0	531	573	1021	483	0	0	
3	0	0	0	0	543	585	1021	494	0	0	
4	0	0	0	0	560	592	1021	505	0	0	
5	0	0	0	0	575	592	1021	517	0	0	
6	0	0	0	0	591	586	1021	527	0	0	
7	0	0	0	0	606	574	1021	536	0	0	
8	0	0	0	0	616	556	1021	541	0	0	
9	0	0	0	0	623	536	1021	543	0	0	
10	0	0	0	0	624	515	1021	542	0	0	
11	0	0	0	0	620	494	1021	536	0	0	
12	0	0	0	0	612	477	1021	528	0	0	
13	0	0	0	0	600	464	1021	519	0	0	
14	0	0	0	0	586	458	1021	508	0	0	
15	0	0	0	0	570	458	1021	497	0	0	
0	0	0	0	0	555	464	1021	487	0	0	
1	0	0	0	0	542	477	1021	479	0	0	
2	0	0	0	0	531	494	1021	474	0	0	
3	0	0	0	0	525	514	1021	472	0	0	
4	0	0	0	0	524	536	1021	474	0	0	
5	0	0	0	0	527	555	1021	479	0	0	
6	0	0	0	0	536	572	1021	487	0	0	
7	0	0	0	0	547	584	1021	496	0	0	
8	0	0	0	0	561	590	1021	507	0	0	
9	0	0	0	0	576	589	1021	517	0	0	
10	0	0	0	0	590	582	1021	527	0	0	
11	0	0	0	0	602	569	1021	533	0	0	
12	0	0	0	0	612	552	1021	539	0	0	
13	0	0	0	0	617	531	1021	540	0	0	
14	0	0	0	0	619	510	1021	537	0	0	
15	0	0	0	0	614	488	1021	531	0	0	
0	0	0	0	0	607	471	1021	523	0	0	
1	0	0	0	0	594	459	1021	512	0	0	
2	0	0	0	0	579	451	1021	500	0	0	
3	0	0	0	0	563	451	1021	489	0	0	
4	0	0	0	0	547	456	1021	479	0	0	
5	0	0	0	0	534	468	1021	470	0	0	
6	0	0	0	0	523	485	1021	465	0	0	
7	0	0	0	0	517	505	1021	463	0	0	
8	0	0	0	0	515	526	1021	465	0	0	
9	0	0	0	0	519	545	1021	470	0	0	
10	0	0	0	0	528	562	1021	479	0	0	
11	0	0	0	0	540	574	1021	489	0	0	
12	0	0	0	0	555	580	1021	500	0	0	
13	0	0	0	0	570	579	1021	511	0	0	
14	0	0	0	0	584	572	1021	521	0	0	
15	0	0	0	0	597	559	1021	529	0	0	
0	0	0	0	0	607	542	1021	534	0	0	
1	0	0	0	0	612	521	1021	535	0	0	
2	0	0	0	0	613	499	1021	532	0	0	
3	0	0	0	0	608	478	1021	526	0	0	
4	0	0	0	0	600	461	1021	517	0	0	
5	0	0	0	0	588	449	1021	507	0	0	
6	0	0	0	0	574	442	1021	495	0	0	
7	0	0	0	0	558	442	1021	484	0	0	
8	0	0	0	0	542	449	1021	474	0	0	
9	0	0	0	0	529	462	1021	465	0	0	
10	0	0	0	0	519	479	1021	461	0	0	
11	0	0	0	0	512	500	1021	460	0	0	
12	0	0	0	0	511	522	1021	462	0	0	
13	0	0	0	0	515	542	1021	468	0	0	
14	0	0	0	0	523	560	1021	476	0	0	
15	0	0	0	0	535	573	1021	487	0	0	
0	0	0	0	0	550	579	1021	499	0	0	
1	0	0	0	0	566	579	1021	510	0	0	
2	0	0	0	0	581	573	1021	520	0	0	
3	0	0	0	0	594	561	1021	528	0	0	
4	0	0	0	0	605	544	1021	534	0	0	
5	0	0	0	0	611	523	1021	535	0	0	
6	0	0	0	0	612	502	1021	534	0	0	
7	0	0	0	0	609	481	1021	529	0	0	
8	0	0	0	0	601	464	1021	521	0	0	
9	0	0	0	0	590	451	1021	511	0	0	
10	0	0	0	0	575	445	1021	501	0	0	
11	0	0	0	0	560	446	1021	491	0	0	
12	0	0	0	0	546	452	1021	481	0	0	
13	0	0	0	0	534	465	1021	474	0	0	
14	0	0	0	0	524	483	1021	469	0	0	
15	0	0	0	0	519	504	1021	467	0	0	
0	0	0	0	0	518	526	1021	470	0	0	
1	0	0	0	0	523	547	1020	475	0	0	
2	0	0	0	0	533	565	1021	483	0	0	
3	0	0	0	0	545	578	1021	494	0	0	
4	0	0	0	0	560	585	1021	506	0	0	
5	0	0	0	0	576	585	1021	517	0	0	
6	0	0	0	0	591	579	1021	527	0	0	
7	0	0	0	0	604	568	1021	536	0	0	
8	0	0	0	0	614	551	1021	541	0	0	
9	0	0	0	0	619	531	1021	543	0	0	
10	0	0	0	0	620	510	1021	540	0	0	
11	0	0	0	0	616	489	1021	535	0	0	
12	0	0	0	0	608	472	1021	526	0	0	
13	0	0	0	0	595	460	1021	515	0	0	
14	0	0	0	0	581	453	1021	504	0	0	
15	0	0	0	0	566	453	1021	492	0	0	
0	0	0	0	0	550	459	1021	480	0	0	
1	0	0	0	0	537	471	1021	472	0	0	
2	0	0	0	0	526	488	1021	465	0	0	
3	0	0	0	0	519	508	1021	463	0	0	
4	0	0	0	0	517	529	1021	464	0	0	
5	0	0	0	0	519	548	1021	468	0	0	
6	0	0	0	0	527	565	1021	476	0	0	
7	0	0	0	0	539	576	1021	485	0	0	
8	0	0	0	0	552	582	1021	496	0	0	
9	0	0	0	0	567	581	1021	507	0	0	
10	0	0	0	0	580	574	1021	516	0	0	
11	0	0	0	0	594	562	1021	524	0	0	
12	0	0	0	0	603	544	1021	529	0	0	
13	0	0	0	0	609	524	1021	530	0	0	
14	0	0	0	0	611	502	1021	528	0	0	
15	0	0	0	0	607	481	1021	523	0	0	
0	0	0	0	0	601	465	1021	515	0	0	
1	0	0	0	0	590	453	1021	505	0	0	
2	0	0	0	0	576	447	1021	495	0	0	
3	0	0	0	0	563	446	1021	484	0	0	
4	0	0	0	0	547	453	1021	475	0	0	
5	0	0	0	0	536	466	1021	468	0	0	
6	0	0	0	0	526	484	1021	464	0	0	
7	0	0	0	0	520	504	1021	463	0	0	
8	0	0	0	0	519	526	1021	465	0	0	
9	0	0	0	0	522	547	1020	471	0	0	
10	0	0	0	0	531	564	1021	480	0	0	
11	0	0	0	0	542	576	1021	490	0	0	
12	0	0	0	0	556	583	1021	501	0	0	
13	0	0	0	0	570	582	1021	511	0	0	
14	0	0	0	0	584	575	1021	521	0	0	
15	0	0	0	0	596	564	1021	528	0	0	
0	0	0	0	0	606	547	1021	533	0	0	
1	0	0	0	0	612	527	1021	534	0	0	
2	0	0	0	0	613	505	1021	532	0	0	
3	0	0	0	0	609	485	1020	526	0	0	
4	0	0	0	0	601	468	1021	517	0	0	
5	0	0	0	0	590	455	1021	507	0	0	
6	0	0	0	0	576	448	1021	494	0	0	
7	0	0	0	0	559	446	1021	481	0	0	
8	0	0	0	0	543	451	1021	469	0	0	
9	0	0	0	0	527	460	1021	457	0	0	
10	0	0	0	0	512	473	1021	448	0	0	
11	0	0	0	0	501	488	1021	441	0	0	
12	0	0	0	0	494	504	1021	436	0	0	
13	0	0	0	0	489	516	1021	434	0	0	
14	0	0	0	0	489	526	1021	434	0	0	
15	0	0	0	0	491	529	1021	435	0	0	
0	0	0	0	0	495	526	1021	437	0	0	
1	0	0	0	0	500	516	1021	438	0	0	
2	0	0	0	0	504	499	1021	437	0	0	
3	0	0	0	0	507	477	1021	434	0	0	
4	0	0	0	0	506	450	1021	428	0	0	
5	0	0	0	0	502	420	1021	419	0	0	
6	0	0	0	0	493	388	1021	407	0	0	
7	0	0	0	0	479	358	1020	391	0	0	
8	0	0	0	0	462	331	1021	372	0	0	
9	0	0	0	0	440	307	1021	351	0	0	
10	0	0	0	0	417	290	1021	330	0	0	
11	0	0	0	0	391	279	1021	307	0	0	
12	0	0	0	0	366	274	1021	286	0	0	
13	0	0	0	0	341	275	1021	266	0	0	
14	0	0	0	0	320	282	1021	250	0	0	
15	0	0	0	0	303	293	1021	238	0	0	
0	0	0	0	0	293	308	1021	231	0	0	
1	0	0	0	0	290	324	1021	230	0	0	
2	0	0	0	0	294	339	1021	234	0	0	
3	0	0	0	0	305	352	1021	244	0	0	
4	0	0	0	0	322	362	1021	259	0	0	
5	0	0	0	0	345	368	1021	277	0	0	
6	0	0	0	0	371	370	1021	298	0	0	
7	0	0	0	0	400	370	1021	320	0	0	
8	0	0	0	0	428	367	1021	344	0	0	
9	0	0	0	0	455	363	1021	365	0	0	
10	0	0	0	0	479	358	1021	385	0	0	
11	0	0	0	0	499	356	1021	403	0	0	
12	0	0	0	0	515	358	1021	418	0	0	
13	0	0	0	0	526	364	1021	431	0	0	
14	0	0	0	0	532	376	1021	440	0	0	
15	0	0	0	0	536	393	1020	448	0	0	
0	0	0	0	0	537	416	1021	455	0	0	
1	0	0	0	0	537	444	1021	460	0	0	
2	0	0	0	0	537	474	1021	467	0	0	
3	0	0	0	0	539	506	1021	473	0	0	
4	0	0	0	0	543	537	1021	481	0	0	
5	0	0	0	0	550	565	1021	491	0	0	
6	0	0	0	0	560	588	1021	501	0	0	
7	0	0	0	0	571	604	1021	512	0	0	
8	0	0	0	0	583	612	1021	522	0	0	
9	0	0	0	0	595	612	1021	531	0	0	
10	0	0	0	0	606	603	1021	539	0	0	
11	0	0	0	0	616	589	1021	543	0	0	
12	0	0	0	0	623	568	1021	545	0	0	
13	0	0	0	0	625	543	1021	544	0	0	
14	0	0	0	0	624	518	1021	539	0	0	
15	0	0	0	0	617	493	1021	531	0	0	
0	0	0	0	0	608	472	1021	521	0	0	
1	0	0	0	0	594	456	1021	509	0	0	
2	0	0	0	0	579	448	1021	497	0	0	
3	0	0	0	0	564	446	1021	487	0	0	
4	0	0	0	0	549	451	1021	477	0	0	
5	0	0	0	0	537	464	1021	470	0	0	
6	0	0	0	0	527	482	1021	466	0	0	
7	0	0	0	0	523	504	1021	465	0	0	
8	0	0	0	0	523	527	1021	468	0	0	
9	0	0	0	0	528	550	1021	475	0	0	
10	0	0	0	0	538	570	1021	484	0	0	
11	0	0	0	0	551	584	1021	495	0	0	
12	0	0	0	0	566	593	1021	507	0	0	
13	0	0	0	0	581	594	1021	519	0	0	
14	0	0	0	0	596	589	1021	530	0	0	
15	0	0	0	0	609	578	1021	538	0	0	
0	0	0	0	0	619	561	1021	544	0	0	
1	0	0	0	0	625	541	1021	546	0	0	
2	0	0	0	0	626	519	1021	545	0	0	
3	0	0	0	0	621	497	1021	539	0	0	
4	0	0	0	0	613	479	1021	531	0	0	
5	0	0	0	0	600	464	1021	521	0	0	
6	0	0	0	0	585	456	1021	509	0	0	
7	0	0	0	0	569	454	1021	497	0	0	
8	0	0	0	0	552	458	1020	486	0	0	
9	0	0	0	0	539	470	1021	476	0	0	
10	0	0	0	0	527	485	1021	470	0	0	
11	0	0	0	0	520	504	1021	467	0	0	
12	0	0	0	0	518	525	1021	467	0	0	
13	0	0	0	0	522	545	1021	472	0	0	
14	0	0	0	0	530	563	1021	479	0	0	
15	0	0	0	0	542	575	1021	488	0	0	
0	0	0	0	0	557	582	1021	499	0	0	
1	0	0	0	0	573	583	1021	511	0	0	
2	0	0	0	0	589	577	1021	521	0	0	
3	0	0	0	0	604	566	1021	530	0	0	
4	0	0	0	0	615	551	1021	536	0	0	
5	0	0	0	0	622	532	1021	540	0	0	
6	0	0	0	0	625	512	1021	539	0	0	
7	0	0	0	0	623	493	1021	535	0	0	
8	0	0	0	0	615	477	1021	528	0	0	
9	0	0	0	0	604	466	1021	519	0	0	
10	0	0	0	0	591	459	1021	508	0	0	
11	0	0	0	0	576	460	1021	498	0	0	
12	0	0	0	0	560	465	1021	487	0	0	
13	0	0	0	0	547	477	1021	479	0	0	
14	0	0	0	0	536	494	1021	473	0	0	
15	0	0	0	0	529	514	1021	471	0	0	
0	0	0	0	0	527	535	1021	472	0	0	
1	0	0	0	0	529	554	1021	476	0	0	
2	0	0	0	0	536	572	1021	483	0	0	
3	0	0	0	0	546	583	1021	493	0	0	
4	0	0	0	0	559	590	1021	503	0	0	
5	0	0	0	0	573	590	1021	514	0	0	
6	0	0	0	0	587	583	1021	523	0	0	
7	0	0	0	0	599	571	1021	530	0	0	
8	0	0	0	0	608	553	1021	535	0	0	
9	0	0	0	0	614	533	1021	536	0	0	
10	0	0	0	0	615	511	1021	533	0	0	
11	0	0	0	0	611	489	1021	526	0	0	
12	0	0	0	0	602	471	1021	518	0	0	
13	0	0	0	0	590	457	1021	507	0	0	
14	0	0	0	0	576	448	1021	495	0	0	
15	0	0	0	0	560	447	1021	483	0	0	
0	0	0	0	0	545	451	1021	473	0	0	
1	0	0	0	0	531	462	1021	464	0	0	
2	0	0	0	0	521	478	1021	459	0	0	
3	0	0	0	0	514	498	1021	457	0	0	
4	0	0	0	0	513	519	1021	458	0	0	
5	0	0	0	0	516	539	1021	463	0	0	
6	0	0	0	0	525	557	1021	471	0	0	
7	0	0	0	0	537	569	1021	481	0	0	
8	0	0	0	0	551	576	1021	492	0	0	
9	0	0	0	0	567	577	1021	503	0	0	
10	0	0	0	0	582	571	1021	513	0	0	
11	0	0	0	0	596	560	1021	521	0	0	
12	0	0	0	0	606	543	1021	527	0	0	
13	0	0	0	0	612	523	1021	528	0	0	
14	0	0	0	0	614	501	1021	527	0	0	
15	0	0	0	0	609	480	1020	521	0	0	
0	0	0	0	0	602	463	1021	513	0	0	
1	0	0	0	0	590	450	1021	503	0	0	
2	0	0	0	0	575	442	1021	491	0	0	
3	0	0	0	0	559	441	1021	480	0	0	
4	0	0	0	0	543	446	1021	469	0	0	
5	0	0	0	0	529	458	1021	460	0	0	
6	0	0	0	0	517	474	1021	454	0	0	
7	0	0	0	0	510	494	1021	452	0	0	
8	0	0	0	0	507	515	1021	452	0	0	
9	0	0	0	0	509	536	1021	457	0	0	
10	0	0	0	0	516	553	1021	464	0	0	
11	0	0	0	0	527	567	1021	474	0	0	
12	0	0	0	0	540	573	1021	485	0	0	
13	0	0	0	0	555	574	1021	496	0	0	
14	0	0	0	0	570	568	1021	505	0	0	
15	0	0	0	0	584	556	1021	513	0	0	
0	0	0	0	0	595	540	1021	519	0	0	
1	0	0	0	0	602	520	1021	520	0	0	
2	0	0	0	0	604	499	1021	518	0	0	
3	0	0	0	0	603	478	1021	513	0	0	
4	0	0	0	0	596	460	1021	504	0	0	
5	0	0	0	0	585	448	1021	494	0	0	
6	0	0	0	0	572	441	1021	483	0	0	
7	0	0	0	0	557	440	1021	472	0	0	
8	0	0	0	0	542	446	1020	462	0	0	
9	0	0	0	0	529	458	1021	454	0	0	
10	0	0	0	0	518	475	1021	448	0	0	
11	0	0	0	0	511	495	1021	446	0	0	
12	0	0	0	0	509	516	1021	448	0	0	
13	0	0	0	0	511	536	1021	454	0	0	
14	0	0	0	0	519	554	1021	462	0	0	
15	0	0	0	0	531	567	1021	472	0	0	
0	0	0	0	0	544	573	1021	484	0	0	
1	0	0	0	0	560	573	1021	496	0	0	
2	0	0	0	0	575	567	1021	507	0	0	
3	0	0	0	0	589	555	1021	515	0	0	
4	0	0	0	0	599	539	1021	520	0	0	
5	0	0	0	0	604	519	1021	523	0	0	
6	0	0	0	0	606	497	1021	521	0	0	
7	0	0	0	0	603	477	1021	516	0	0	
8	0	0	0	0	595	460	1021	507	0	0	
9	0	0	0	0	582	448	1021	497	0	0	
10	0	0	0	0	568	440	1021	485	0	0	
11	0	0	0	0	551	440	1021	473	0	0	
12	0	0	0	0	536	445	1021	462	0	0	
13	0	0	0	0	521	456	1021	452	0	0	
14	0	0	0	0	510	472	1021	446	0	0	
15	0	0	0	0	502	492	1021	442	0	0	
0	0	0	0	0	499	512	1020	443	0	0	
1	0	0	0	0	502	531	1021	447	0	0	
2	0	0	0	0	510	547	1021	453	0	0	
3	0	0	0	0	521	560	1021	462	0	0	
4	0	0	0	0	536	566	1021	472	0	0	
5	0	0	0	0	551	566	1021	483	0	0	
6	0	0	0	0	566	560	1021	492	0	0	
7	0	0	0	0	580	548	1021	500	0	0	
8	0	0	0	0	590	532	1021	506	0	0	
9	0	0	0	0	597	512	1021	508	0	0	
10	0	0	0	0	599	492	1021	508	0	0	
11	0	0	0	0	595	471	1020	503	0	0	
12	0	0	0	0	588	454	1021	495	0	0	
13	0	0	0	0	576	440	1021	486	0	0	
14	0	0	0	0	562	433	1021	475	0	0	
15	0	0	0	0	546	432	1021	463	0	0	
0	0	0	0	0	530	436	1020	453	0	0	
1	0	0	0	0	516	448	1021	444	0	0	
2	0	0	0	0	504	463	1021	438	0	0	
3	0	0	0	0	496	483	1021	434	0	0	
4	0	0	0	0	494	503	1021	435	0	0	
5	0	0	0	0	495	523	1020	439	0	0	
6	0	0	0	0	503	540	1021	446	0	0	
7	0	0	0	0	513	553	1021	455	0	0	
8	0	0	0	0	527	560	1021	466	0	0	
9	0	0	0	0	541	561	1021	477	0	0	
10	0	0	0	0	556	556	1020	487	0	0	
11	0	0	0	0	570	545	1021	496	0	0	
12	0	0	0	0	581	529	1021	502	0	0	
13	0	0	0	0	588	509	1021	504	0	0	
14	0	0	0	0	591	488	1021	504	0	0	
15	0	0	0	0	588	468	1020	499	0	0	
0	0	0	0	0	582	451	1021	492	0	0	
1	0	0	0	0	571	438	1021	482	0	0	
2	0	0	0	0	558	431	1021	472	0	0	
3	0	0	0	0	543	430	1021	461	0	0	
4	0	0	0	0	527	434	1021	450	0	0	
5	0	0	0	0	515	446	1021	442	0	0	
6	0	0	0	0	504	462	1021	436	0	0	
7	0	0	0	0	498	482	1021	433	0	0	
8	0	0	0	0	496	504	1021	435	0	0	
9	0	0	0	0	498	524	1021	439	0	0	
10	0	0	0	0	507	542	1021	446	0	0	
11	0	0	0	0	518	555	1021	455	0	0	
12	0	0	0	0	532	563	1021	467	0	0	
13	0	0	0	0	548	563	1021	477	0	0	
14	0	0	0	0	562	558	1021	487	0	0	
15	0	0	0	0	576	547	1021	496	0	0	
0	0	0	0	0	587	531	1021	501	0	0	
1	0	0	0	0	593	511	1021	503	0	0	
2	0	0	0	0	595	489	1021	501	0	0	
3	0	0	0	0	591	467	1021	496	0	0	
4	0	0	0	0	583	449	1021	488	0	0	
5	0	0	0	0	572	436	1021	478	0	0	
6	0	0	0	0	557	428	1021	467	0	0	
7	0	0	0	0	542	427	1021	456	0	0	
8	0	0	0	0	525	432	1021	447	0	0	
9	0	0	0	0	512	444	1021	439	0	0	
10	0	0	0	0	501	461	1021	434	0	0	
11	0	0	0	0	495	481	1021	432	0	0	
12	0	0	0	0	493	503	1021	434	0	0	
13	0	0	0	0	496	524	1021	439	0	0	
14	0	0	0	0	504	543	1021	447	0	0	
15	0	0	0	0	515	556	1021	457	0	0	
0	0	0	0	0	530	564	1021	468	0	0	
1	0	0	0	0	546	565	1021	479	0	0	
2	0	0	0	0	560	560	1020	489	0	0	
3	0	0	0	0	575	549	1021	497	0	0	
4	0	0	0	0	586	532	1021	503	0	0	
5	0	0	0	0	593	513	1021	504	0	0	
6	0	0	0	0	595	491	1021	503	0	0	
7	0	0	0	0	592	470	1020	497	0	0	
8	0	0	0	0	585	451	1021	490	0	0	
9	0	0	0	0	574	438	1021	480	0	0	
10	0	0	0	0	559	429	1021	468	0	0	
11	0	0	0	0	544	426	1021	457	0	0	
12	0	0	0	0	527	431	1021	447	0	0	
13	0	0	0	0	514	442	1021	439	0	0	
14	0	0	0	0	503	458	1021	433	0	0	
15	0	0	0	0	495	477	1021	431	0	0	
0	0	0	0	0	493	499	1021	432	0	0	
1	0	0	0	0	495	519	1020	437	0	0	
2	0	0	0	0	503	537	1021	444	0	0	
3	0	0	0	0	515	551	1021	455	0	0	
4	0	0	0	0	528	559	1021	465	0	0	
5	0	0	0	0	545	560	1021	477	0	0	
6	0	0	0	0	560	555	1021	487	0	0	
7	0	0	0	0	574	545	1021	495	0	0	
8	0	0	0	0	585	529	1021	501	0	0	
9	0	0	0	0	593	511	1021	503	0	0	
10	0	0	0	0	595	490	1021	502	0	0	
11	0	0	0	0	593	470	1021	497	0	0	
12	0	0	0	0	587	452	1021	489	0	0	
13	0	0	0	0	576	439	1021	480	0	0	
14	0	0	0	0	563	432	1021	469	0	0	
15	0	0	0	0	547	429	1021	458	0	0	
0	0	0	0	0	532	435	1021	448	0	0	
1	0	0	0	0	519	446	1021	439	0	0	
2	0	0	0	0	508	462	1021	434	0	0	
3	0	0	0	0	501	481	1021	431	0	0	
4	0	0	0	0	499	503	1020	432	0	0	
5	0	0	0	0	502	523	1021	438	0	0	
6	0	0	0	0	510	542	1021	446	0	0	
7	0	0	0	0	521	556	1021	456	0	0	
8	0	0	0	0	535	564	1021	467	0	0	
9	0	0	0	0	550	566	1021	480	0	0	
10	0	0	0	0	566	561	1021	491	0	0	
11	0	0	0	0	579	551	1021	500	0	0	
12	0	0	0	0	590	536	1021	508	0	0	
13	0	0	0	0	598	518	1021	511	0	0	
14	0	0	0	0	600	496	1021	511	0	0	
15	0	0	0	0	598	476	1021	507	0	0	
0	0	0	0	0	592	459	1021	499	0	0	
1	0	0	0	0	582	445	1021	490	0	0	
2	0	0	0	0	569	436	1021	479	0	0	
3	0	0	0	0	554	434	1021	468	0	0	
4	0	0	0	0	539	439	1021	458	0	0	
5	0	0	0	0	526	449	1021	449	0	0	
6	0	0	0	0	515	465	1021	444	0	0	
7	0	0	0	0	508	484	1021	440	0	0	
8	0	0	0	0	504	505	1021	440	0	0	
9	0	0	0	0	507	526	1021	445	0	0	
10	0	0	0	0	513	543	1021	451	0	0	
11	0	0	0	0	524	556	1021	460	0	0	
12	0	0	0	0	536	564	1021	470	0	0	
13	0	0	0	0	551	565	1021	480	0	0	
14	0	0	0	0	566	559	1021	490	0	0	
15	0	0	0	0	579	548	1021	498	0	0	
0	0	0	0	0	590	532	1021	504	0	0	
1	0	0	0	0	597	513	1021	507	0	0	
2	0	0	0	0	600	492	1020	507	0	0	
3	0	0	0	0	599	473	1021	505	0	0	
4	0	0	0	0	593	456	1021	499	0	0	
5	0	0	0	0	584	444	1021	491	0	0	
6	0	0	0	0	572	438	1021	482	0	0	
7	0	0	0	0	559	439	1021	473	0	0	
8	0	0	0	0	546	445	1021	464	0	0	
9	0	0	0	0	535	458	1021	457	0	0	
10	0	0	0	0	525	476	1021	452	0	0	
11	0	0	0	0	519	496	1021	450	0	0	
12	0	0	0	0	518	518	1021	452	0	0	
13	0	0	0	0	520	539	1021	456	0	0	
14	0	0	0	0	527	557	1021	463	0	0	
15	0	0	0	0	537	570	1021	472	0	0	
0	0	0	0	0	550	577	1021	482	0	0	
1	0	0	0	0	564	577	1021	492	0	0	
2	0	0	0	0	577	570	1021	501	0	0	
3	0	0	0	0	589	558	1021	508	0	0	
4	0	0	0	0	599	541	1021	512	0	0	
5	0	0	0	0	604	519	1021	514	0	0	
6	0	0	0	0	606	497	1021	511	0	0	
7	0	0	0	0	603	475	1021	506	0	0	
8	0	0	0	0	596	456	1021	499	0	0	
9	0	0	0	0	585	442	1021	489	0	0	
10	0	0	0	0	572	433	1021	478	0	0	
11	0	0	0	0	557	431	1021	467	0	0	
12	0	0	0	0	542	435	1021	457	0	0	
13	0	0	0	0	528	446	1021	449	0	0	
14	0	0	0	0	517	462	1021	443	0	0	
15	0	0	0	0	510	481	1021	440	0	0	
0	0	0	0	0	508	502	1021	441	0	0	
1	0	0	0	0	510	523	1021	445	0	0	
2	0	0	0	0	516	541	1021	452	0	0	
3	0	0	0	0	527	555	1021	461	0	0	
4	0	0	0	0	541	563	1021	471	0	0	
5	0	0	0	0	556	564	1021	482	0	0	
6	0	0	0	0	571	560	1021	492	0	0	
7	0	0	0	0	585	550	1021	500	0	0	
8	0	0	0	0	595	534	1021	506	0	0	
9	0	0	0	0	602	515	1021	508	0	0	
10	0	0	0	0	605	494	1021	508	0	0	
11	0	0	0	0	603	473	1021	504	0	0	
12	0	0	0	0	597	455	1021	497	0	0	
13	0	0	0	0	586	442	1021	487	0	0	
14	0	0	0	0	572	434	1021	478	0	0	
15	0	0	0	0	558	433	1021	467	0	0	
0	0	0	0	0	543	438	1020	457	0	0	
1	0	0	0	0	530	449	1021	449	0	0	
2	0	0	0	0	519	466	1021	444	0	0	
3	0	0	0	0	512	486	1021	441	0	0	
4	0	0	0	0	510	508	1021	441	0	0	
5	0	0	0	0	512	528	1021	445	0	0	
6	0	0	0	0	519	546	1021	451	0	0	
7	0	0	0	0	528	559	1021	460	0	0	
8	0	0	0	0	541	566	1021	470	0	0	
9	0	0	0	0	555	567	1021	480	0	0	
10	0	0	0	0	569	560	1021	490	0	0	
11	0	0	0	0	582	549	1021	497	0	0	
12	0	0	0	0	591	532	1021	503	0	0	
13	0	0	0	0	596	512	1021	505	0	0	
14	0	0	0	0	598	490	1021	504	0	0	
15	0	0	0	0	595	468	1021	499	0	0	
0	0	0	0	0	588	450	1021	492	0	0	
1	0	0	0	0	577	435	1021	482	0	0	
2	0	0	0	0	563	428	1021	472	0	0	
3	0	0	0	0	548	426	1021	461	0	0	
4	0	0	0	0	534	431	1021	451	0	0	
5	0	0	0	0	520	442	1021	441	0	0	
6	0	0	0	0	510	458	1021	435	0	0	
7	0	0	0	0	503	477	1021	432	0	0	
8	0	0	0	0	500	498	1021	432	0	0	
9	0	0	0	0	503	518	1021	435	0	0	
10	0	0	0	0	510	536	1021	441	0	0	
11	0	0	0	0	520	548	1021	450	0	0	
12	0	0	0	0	534	556	1021	460	0	0	
13	0	0	0	0	548	556	1021	471	0	0	
14	0	0	0	0	563	551	1021	482	0	0	
15	0	0	0	0	576	540	1021	491	0	0	
0	0	0	0	0	587	524	1021	498	0	0	
1	0	0	0	0	593	505	1021	502	0	0	
2	0	0	0	0	596	484	1021	503	0	0	
3	0	0	0	0	593	464	1021	499	0	0	
4	0	0	0	0	588	448	1021	493	0	0	
5	0	0	0	0	576	435	1021	484	0	0	
6	0	0	0	0	563	428	1021	474	0	0	
7	0	0	0	0	548	427	1021	463	0	0	
8	0	0	0	0	533	431	1021	453	0	0	
9	0	0	0	0	520	443	1021	444	0	0	
10	0	0	0	0	509	459	1021	438	0	0	
11	0	0	0	0	501	479	1021	434	0	0	
12	0	0	0	0	498	500	1021	435	0	0	
13	0	0	0	0	500	520	1021	439	0	0	
14	0	0	0	0	508	539	1021	446	0	0	
15	0	0	0	0	519	553	1021	455	0	0	
0	0	0	0	0	533	561	1021	467	0	0	
1	0	0	0	0	548	563	1021	478	0	0	
2	0	0	0	0	564	559	1020	488	0	0	
3	0	0	0	0	578	548	1021	498	0	0	
4	0	0	0	0	589	532	1021	504	0	0	
5	0	0	0	0	595	513	1021	507	0	0	
6	0	0	0	0	598	492	1021	507	0	0	
7	0	0	0	0	596	471	1021	503	0	0	
8	0	0	0	0	589	453	1021	495	0	0	
9	0	0	0	0	578	439	1021	485	0	0	
10	0	0	0	0	564	430	1021	474	0	0	
11	0	0	0	0	549	428	1021	463	0	0	
12	0	0	0	0	533	431	1021	452	0	0	
13	0	0	0	0	519	442	1021	443	0	0	
14	0	0	0	0	507	457	1021	436	0	0	
15	0	0	0	0	499	476	1021	433	0	0	
0	0	0	0	0	497	497	1021	433	0	0	
1	0	0	0	0	499	518	1021	437	0	0	
2	0	0	0	0	507	536	1021	444	0	0	
3	0	0	0	0	518	550	1021	454	0	0	
4	0	0	0	0	532	559	1021	465	0	0	
5	0	0	0	0	549	561	1021	477	0	0	
6	0	0	0	0	565	557	1021	488	0	0	
7	0	0	0	0	580	547	1021	498	0	0	
8	0	0	0	0	593	533	1021	505	0	0	
9	0	0	0	0	601	515	1021	510	0	0	
10	0	0	0	0	606	495	1021	510	0	0	
11	0	0	0	0	604	474	1021	507	0	0	
12	0	0	0	0	598	457	1021	500	0	0	
13	0	0	0	0	588	444	1021	492	0	0	
14	0	0	0	0	574	436	1021	481	0	0	
15	0	0	0	0	558	435	1021	471	0	0	
0	0	0	0	0	543	439	1021	460	0	0	
1	0	0	0	0	528	449	1021	451	0	0	
2	0	0	0	0	516	466	1021	445	0	0	
3	0	0	0	0	508	485	1021	442	0	0	
4	0	0	0	0	504	506	1021	442	0	0	
5	0	0	0	0	506	527	1021	446	0	0	
6	0	0	0	0	513	545	1021	453	0	0	
7	0	0	0	0	523	558	1021	462	0	0	
8	0	0	0	0	536	566	1021	472	0	0	
9	0	0	0	0	551	567	1021	483	0	0	
10	0	0	0	0	566	562	1021	493	0	0	
11	0	0	0	0	579	551	1021	502	0	0	
12	0	0	0	0	591	536	1021	508	0	0	
13	0	0	0	0	598	517	1021	511	0	0	
14	0	0	0	0	600	496	1021	511	0	0	
15	0	0	0	0	598	476	1021	508	0	0	
0	0	0	0	0	591	458	1021	502	0	0	
1	0	0	0	0	581	445	1021	492	0	0	
2	0	0	0	0	568	437	1021	482	0	0	
3	0	0	0	0	553	435	1021	471	0	0	
4	0	0	0	0	538	440	1021	460	0	0	
5	0	0	0	0	525	451	1021	451	0	0	
6	0	0	0	0	514	466	1021	444	0	0	
7	0	0	0	0	507	486	1021	440	0	0	
8	0	0	0	0	504	507	1021	440	0	0	
9	0	0	0	0	506	527	1021	443	0	0	
10	0	0	0	0	513	545	1021	449	0	0	
11	0	0	0	0	524	559	1021	459	0	0	
12	0	0	0	0	537	567	1021	469	0	0	
13	0	0	0	0	552	568	1021	480	0	0	
14	0	0	0	0	567	563	1021	491	0	0	
15	0	0	0	0	581	552	1021	500	0	0	
0	0	0	0	0	591	537	1021	507	0	0	
1	0	0	0	0	599	518	1021	511	0	0	
2	0	0	0	0	602	496	1021	511	0	0	
3	0	0	0	0	600	475	1021	508	0	0	
4	0	0	0	0	593	457	1021	501	0	0	
5	0	0	0	0	582	443	1021	492	0	0	
6	0	0	0	0	568	434	1021	481	0	0	
7	0	0	0	0	552	431	1021	470	0	0	
8	0	0	0	0	536	435	1021	459	0	0	
9	0	0	0	0	522	444	1021	450	0	0	
10	0	0	0	0	510	459	1021	444	0	0	
11	0	0	0	0	501	478	1021	440	0	0	
12	0	0	0	0	498	498	1021	439	0	0	
13	0	0	0	0	499	519	1021	443	0	0	
14	0	0	0	0	506	537	1021	449	0	0	
15	0	0	0	0	516	551	1021	458	0	0	
0	0	0	0	0	529	560	1021	468	0	0	
1	0	0	0	0	545	562	1021	479	0	0	
2	0	0	0	0	559	557	1021	489	0	0	
3	0	0	0	0	573	547	1021	497	0	0	
4	0	0	0	0	583	532	1021	504	0	0	
5	0	0	0	0	591	513	1021	507	0	0	
6	0	0	0	0	594	492	1021	506	0	0	
7	0	0	0	0	592	472	1021	503	0	0	
8	0	0	0	0	587	454	1021	496	0	0	
9	0	0	0	0	577	441	1021	487	0	0	
10	0	0	0	0	564	433	1021	478	0	0	
11	0	0	0	0	551	432	1021	468	0	0	
12	0	0	0	0	537	437	1021	459	0	0	
13	0	0	0	0	525	448	1021	451	0	0	
14	0	0	0	0	515	463	1021	445	0	0	
15	0	0	0	0	508	483	1021	443	0	0	
0	0	0	0	0	506	504	1021	443	0	0	
1	0	0	0	0	508	524	1021	447	0	0	
2	0	0	0	0	516	542	1021	454	0	0	
3	0	0	0	0	526	556	1021	463	0	0	
4	0	0	0	0	539	564	1021	474	0	0	
5	0	0	0	0	554	566	1021	485	0	0	
6	0	0	0	0	568	561	1021	496	0	0	
7	0	0	0	0	582	551	1021	504	0	0	
8	0	0	0	0	592	536	1021	510	0	0	
9	0	0	0	0	599	516	1021	513	0	0	
10	0	0	0	0	601	496	1021	512	0	0	
11	0	0	0	0	598	475	1021	508	0	0	
12	0	0	0	0	592	457	1021	500	0	0	
13	0	0	0	0	581	443	1021	492	0	0	
14	0	0	0	0	568	435	1021	481	0	0	
15	0	0	0	0	553	433	1021	471	0	0	
0	0	0	0	0	538	437	1021	460	0	0	
1	0	0	0	0	526	448	1021	452	0	0	
2	0	0	0	0	514	463	1021	446	0	0	
3	0	0	0	0	508	483	1021	443	0	0	
4	0	0	0	0	505	504	1021	444	0	0	
5	0	0	0	0	508	524	1021	447	0	0	
6	0	0	0	0	515	541	1021	454	0	0	
7	0	0	0	0	525	554	1021	463	0	0	
8	0	0	0	0	538	560	1021	472	0	0	
9	0	0	0	0	551	561	1021	482	0	0	
10	0	0	0	0	566	555	1021	492	0	0	
11	0	0	0	0	578	543	1021	499	0	0	
12	0	0	0	0	588	527	1021	504	0	0	
13	0	0	0	0	594	507	1021	507	0	0	
14	0	0	0	0	596	485	1021	505	0	0	
15	0	0	0	0	593	464	1021	501	0	0	
0	0	0	0	0	587	447	1021	494	0	0	
1	0	0	0	0	576	434	1021	485	0	0	
2	0	0	0	0	563	426	1021	475	0	0	
3	0	0	0	0	549	425	1021	465	0	0	
4	0	0	0	0	535	430	1021	455	0	0	
5	0	0	0	0	523	442	1021	448	0	0	
6	0	0	0	0	512	459	1021	443	0	0	
7	0	0	0	0	506	480	1021	441	0	0	
8	0	0	0	0	505	502	1021	442	0	0	
9	0	0	0	0	508	523	1021	447	0	0	
10	0	0	0	0	515	542	1021	453	0	0	
11	0	0	0	0	527	557	1021	463	0	0	
12	0	0	0	0	541	565	1021	473	0	0	
13	0	0	0	0	556	568	1021	483	0	0	
14	0	0	0	0	571	563	1021	493	0	0	
15	0	0	0	0	585	552	1021	501	0	0	
0	0	0	0	0	595	537	1021	506	0	0	
1	0	0	0	0	601	518	1021	509	0	0	
2	0	0	0	0	605	496	1021	508	0	0	
3	0	0	0	0	602	475	1021	504	0	0	
4	0	0	0	0	596	457	1021	497	0	0	
5	0	0	0	0	585	443	1021	489	0	0	
6	0	0	0	0	571	435	1021	478	0	0	
7	0	0	0	0	556	432	1021	467	0	0	
8	0	0	0	0	540	436	1020	457	0	0	
9	0	0	0	0	526	447	1021	449	0	0	
10	0	0	0	0	513	462	1021	443	0	0	
11	0	0	0	0	505	481	1021	439	0	0	
12	0	0	0	0	502	502	1021	440	0	0	
13	0	0	0	0	504	523	1021	443	0	0	
14	0	0	0	0	511	541	1021	450	0	0	
15	0	0	0	0	521	555	1021	459	0	0	
0	0	0	0	0	535	563	1021	470	0	0	
1	0	0	0	0	550	564	1021	480	0	0	
2	0	0	0	0	564	560	1021	490	0	0	
3	0	0	0	0	579	549	1021	499	0	0	
4	0	0	0	0	590	534	1021	504	0	0	
5	0	0	0	0	597	514	1021	508	0	0	
6	0	0	0	0	600	493	1021	507	0	0	
7	0	0	0	0	598	472	1020	503	0	0	
8	0	0	0	0	592	455	1021	497	0	0	
9	0	0	0	0	581	441	1021	488	0	0	
10	0	0	0	0	568	432	1021	478	0	0	
11	0	0	0	0	553	430	1021	467	0	0	
12	0	0	0	0	538	434	1021	458	0	0	
13	0	0	0	0	525	445	1021	450	0	0	
14	0	0	0	0	513	461	1021	445	0	0	
15	0	0	0	0	506	481	1021	443	0	0	
0	0	0	0	0	504	503	1021	444	0	0	
1	0	0	0	0	505	524	1021	448	0	0	
2	0	0	0	0	512	543	1021	455	0	0	
3	0	0	0	0	523	557	1021	465	0	0	
4	0	0	0	0	536	565	1021	475	0	0	
5	0	0	0	0	551	566	1021	485	0	0	
6	0	0	0	0	564	561	1021	495	0	0	
7	0	0	0	0	579	550	1021	503	0	0	
8	0	0	0	0	588	533	1021	508	0	0	
9	0	0	0	0	595	513	1021	509	0	0	
10	0	0	0	0	596	490	1021	507	0	0	
11	0	0	0	0	593	467	1021	502	0	0	
12	0	0	0	0	586	448	1021	493	0	0	
13	0	0	0	0	574	433	1021	483	0	0	
14	0	0	0	0	560	423	1021	471	0	0	
15	0	0	0	0	543	419	1021	459	0	0	
0	0	0	0	0	527	423	1021	448	0	0	
1	0	0	0	0	512	432	1021	438	0	0	
2	0	0	0	0	500	447	1021	431	0	0	
3	0	0	0	0	492	466	1021	427	0	0	
4	0	0	0	0	489	487	1020	427	0	0	
5	0	0	0	0	491	508	1021	430	0	0	
6	0	0	0	0	498	526	1021	437	0	0	
7	0	0	0	0	509	541	1021	447	0	0	
8	0	0	0	0	523	550	1021	458	0	0	
9	0	0	0	0	539	553	1021	470	0	0	
10	0	0	0	0	556	550	1021	481	0	0	
11	0	0	0	0	571	541	1021	491	0	0	
12	0	0	0	0	583	527	1021	499	0	0	
13	0	0	0	0	592	509	1021	504	0	0	
14	0	0	0	0	596	489	1021	504	0	0	
15	0	0	0	0	595	469	1020	502	0	0	
0	0	0	0	0	590	452	1021	495	0	0	
1	0	0	0	0	579	439	1021	487	0	0	
2	0	0	0	0	566	431	1021	476	0	0	
3	0	0	0	0	551	429	1021	465	0	0	
4	0	0	0	0	535	432	1021	454	0	0	
5	0	0	0	0	521	443	1021	445	0	0	
6	0	0	0	0	509	459	1021	439	0	0	
7	0	0	0	0	500	478	1021	435	0	0	
8	0	0	0	0	497	498	1021	435	0	0	
9	0	0	0	0	497	519	1021	439	0	0	
10	0	0	0	0	504	538	1021	446	0	0	
11	0	0	0	0	514	551	1021	456	0	0	
12	0	0	0	0	527	560	1021	467	0	0	
13	0	0	0	0	542	561	1021	478	0	0	
14	0	0	0	0	556	557	1021	488	0	0	
15	0	0	0	0	570	546	1021	496	0	0	
0	0	0	0	0	582	531	1021	503	0	0	
1	0	0	0	0	590	512	1021	505	0	0	
2	0	0	0	0	593	490	1021	504	0	0	
3	0	0	0	0	591	469	1021	500	0	0	
4	0	0	0	0	585	450	1021	493	0	0	
5	0	0	0	0	575	436	1021	484	0	0	
6	0	0	0	0	563	427	1021	473	0	0	
7	0	0	0	0	547	423	1021	462	0	0	
8	0	0	0	0	533	427	1021	452	0	0	
9	0	0	0	0	519	437	1021	444	0	0	
10	0	0	0	0	508	453	1021	438	0	0	
11	0	0	0	0	501	473	1021	436	0	0	
12	0	0	0	0	499	495	1021	438	0	0	
13	0	0	0	0	501	517	1021	443	0	0	
14	0	0	0	0	509	537	1021	451	0	0	
15	0	0	0	0	520	553	1021	461	0	0	
0	0	0	0	0	535	563	1021	472	0	0	
1	0	0	0	0	550	566	1021	484	0	0	
2	0	0	0	0	566	562	1021	494	0	0	
3	0	0	0	0	580	552	1021	503	0	0	
4	0	0	0	0	591	537	1021	509	0	0	
5	0	0	0	0	598	518	1021	511	0	0	
6	0	0	0	0	602	496	1021	511	0	0	
7	0	0	0	0	600	475	1021	506	0	0	
8	0	0	0	0	594	456	1021	499	0	0	
9	0	0	0	0	583	442	1021	489	0	0	
10	0	0	0	0	569	432	1021	479	0	0	
11	0	0	0	0	554	429	1021	467	0	0	
12	0	0	0	0	537	432	1021	457	0	0	
13	0	0	0	0	523	442	1021	448	0	0	
14	0	0	0	0	510	457	1021	441	0	0	
15	0	0	0	0	502	476	1021	438	0	0	
0	0	0	0	0	497	496	1021	438	0	0	
1	0	0	0	0	498	517	1021	441	0	0	
2	0	0	0	0	504	536	1021	447	0	0	
3	0	0	0	0	513	549	1021	456	0	0	
4	0	0	0	0	526	558	1021	466	0	0	
5	0	0	0	0	541	560	1021	476	0	0	
6	0	0	0	0	556	555	1021	486	0	0	
7	0	0	0	0	570	544	1021	494	0	0	
8	0	0	0	0	581	529	1021	500	0	0	
9	0	0	0	0	590	510	1021	503	0	0	
10	0	0	0	0	593	488	1021	502	0	0	
11	0	0	0	0	592	468	1021	499	0	0	
12	0	0	0	0	587	449	1021	492	0	0	
13	0	0	0	0	577	436	1021	483	0	0	
14	0	0	0	0	564	428	1021	474	0	0	
15	0	0	0	0	550	425	1021	463	0	0	
0	0	0	0	0	535	429	1021	453	0	0	
1	0	0	0	0	522	440	1021	445	0	0	
2	0	0	0	0	510	455	1021	439	0	0	
3	0	0	0	0	502	475	1021	436	0	0	
4	0	0	0	0	498	496	1021	436	0	0	
5	0	0	0	0	499	516	1021	440	0	0	
6	0	0	0	0	505	536	1021	447	0	0	
7	0	0	0	0	516	550	1021	455	0	0	
8	0	0	0	0	529	559	1021	466	0	0	
9	0	0	0	0	544	562	1021	477	0	0	
10	0	0	0	0	560	558	1021	488	0	0	
11	0	0	0	0	575	550	1021	497	0	0	
12	0	0	0	0	587	536	1021	504	0	0	
13	0	0	0	0	595	518	1021	508	0	0	
14	0	0	0	0	600	498	1021	508	0	0	
15	0	0	0	0	598	477	1021	504	0	0	
0	0	0	0	0	592	458	1021	496	0	0	
1	0	0	0	0	581	443	1021	485	0	0	
2	0	0	0	0	565	431	1021	471	0	0	
3	0	0	0	0	546	424	1021	455	0	0	
4	0	0	0	0	526	422	1021	439	0	0	
5	0	0	0	0	505	425	1021	423	0	0	
6	0	0	0	0	486	433	1021	408	0	0	
7	0	0	0	0	468	443	1021	396	0	0	
8	0	0	0	0	455	455	1021	386	0	0	
9	0	0	0	0	446	465	1021	379	0	0	
10	0	0	0	0	440	473	1021	376	0	0	
11	0	0	0	0	440	478	1021	375	0	0	
12	0	0	0	0	443	476	1021	376	0	0	
13	0	0	0	0	446	469	1021	377	0	0	
14	0	0	0	0	451	455	1021	378	0	0	
15	0	0	0	0	456	436	1021	379	0	0	
0	0	0	0	0	459	412	1021	376	0	0	
1	0	0	0	0	457	384	1021	371	0	0	
2	0	0	0	0	451	353	1021	362	0	0	
3	0	0	0	0	441	322	1021	349	0	0	
4	0	0	0	0	426	292	1021	332	0	0	
5	0	0	0	0	406	267	1021	313	0	0	
6	0	0	0	0	382	246	1021	292	0	0	
7	0	0	0	0	357	231	1021	270	0	0	
8	0	0	0	0	331	223	1021	248	0	0	
9	0	0	0	0	307	221	1021	227	0	0	
10	0	0	0	0	285	227	1021	211	0	0	
11	0	0	0	0	270	240	1021	200	0	0	
12	0	0	0	0	260	257	1021	195	0	0	
13	0	0	0	0	259	278	1021	196	0	0	
14	0	0	0	0	267	300	1021	204	0	0	
15	0	0	0	0	283	321	1021	220	0	0	
0	0	0	0	0	306	340	1021	240	0	0	
1	0	0	0	0	336	357	1021	265	0	0	
2	0	0	0	0	371	370	1021	294	0	0	
3	0	0	0	0	407	379	1021	323	0	0	
4	0	0	0	0	443	384	1021	354	0	0	
5	0	0	0	0	477	387	1021	382	0	0	
6	0	0	0	0	508	387	1021	407	0	0	
7	0	0	0	0	532	387	1021	428	0	0	
8	0	0	0	0	550	387	1021	444	0	0	
9	0	0	0	0	561	391	1021	456	0	0	
10	0	0	0	0	566	398	1021	463	0	0	
11	0	0	0	0	565	409	1021	466	0	0	
12	0	0	0	0	560	423	1021	467	0	0	
13	0	0	0	0	553	443	1021	466	0	0	
14	0	0	0	0	545	465	1021	464	0	0	
15	0	0	0	0	537	488	1021	463	0	0	
0	0	0	0	0	532	512	1021	463	0	0	
1	0	0	0	0	529	535	1021	465	0	0	
2	0	0	0	0	531	552	1021	469	0	0	
3	0	0	0	0	536	565	1021	474	0	0	
4	0	0	0	0	543	572	1021	481	0	0	
5	0	0	0	0	552	571	1021	487	0	0	
6	0	0	0	0	563	563	1021	494	0	0	
7	0	0	0	0	572	549	1021	500	0	0	
8	0	0	0	0	580	531	1021	504	0	0	
9	0	0	0	0	587	509	1021	506	0	0	
10	0	0	0	0	589	487	1021	505	0	0	
11	0	0	0	0	588	465	1021	501	0	0	
12	0	0	0	0	584	446	1021	495	0	0	
13	0	0	0	0	576	432	1021	488	0	0	
14	0	0	0	0	567	424	1021	479	0	0	
15	0	0	0	0	556	423	1021	470	0	0	
0	0	0	0	0	544	429	1021	461	0	0	
1	0	0	0	0	534	441	1021	454	0	0	
2	0	0	0	0	525	458	1021	449	0	0	
3	0	0	0	0	519	479	1021	447	0	0	
4	0	0	0	0	518	501	1021	448	0	0	
5	0	0	0	0	519	523	1021	451	0	0	
6	0	0	0	0	527	543	1021	458	0	0	
7	0	0	0	0	536	558	1021	468	0	0	
8	0	0	0	0	549	567	1021	478	0	0	
9	0	0	0	0	563	570	1021	488	0	0	
10	0	0	0	0	577	566	1021	499	0	0	
11	0	0	0	0	590	556	1021	508	0	0	
12	0	0	0	0	600	540	1021	514	0	0	
13	0	0	0	0	607	521	1021	518	0	0	
14	0	0	0	0	609	500	1021	518	0	0	
15	0	0	0	0	608	479	1021	515	0	0	
0	0	0	0	0	602	461	1021	509	0	0	
1	0	0	0	0	592	447	1021	501	0	0	
2	0	0	0	0	579	438	1021	491	0	0	
3	0	0	0	0	566	435	1021	481	0	0	
4	0	0	0	0	551	438	1021	471	0	0	
5	0	0	0	0	538	448	1021	462	0	0	
6	0	0	0	0	527	463	1021	455	0	0	
7	0	0	0	0	519	482	1021	452	0	0	
8	0	0	0	0	515	504	1021	452	0	0	
9	0	0	0	0	516	524	1021	455	0	0	
10	0	0	0	0	523	542	1021	461	0	0	
11	0	0	0	0	532	556	1021	470	0	0	
12	0	0	0	0	545	564	1021	479	0	0	
13	0	0	0	0	560	566	1021	490	0	0	
14	0	0	0	0	575	562	1021	499	0	0	
15	0	0	0	0	588	551	1021	507	0	0	
0	0	0	0	0	599	536	1021	513	0	0	
1	0	0	0	0	607	517	1021	516	0	0	
2	0	0	0	0	610	496	1021	515	0	0	
3	0	0	0	0	608	474	1021	511	0	0	
4	0	0	0	0	603	455	1021	504	0	0	
5	0	0	0	0	592	441	1021	495	0	0	
6	0	0	0	0	579	432	1021	484	0	0	
7	0	0	0	0	563	428	1021	473	0	0	
8	0	0	0	0	547	431	1021	463	0	0	
9	0	0	0	0	532	441	1021	454	0	0	
10	0	0	0	0	519	455	1021	447	0	0	
11	0	0	0	0	511	474	1021	444	0	0	
12	0	0	0	0	506	495	1021	444	0	0	
13	0	0	0	0	508	516	1021	448	0	0	
14	0	0	0	0	513	535	1021	455	0	0	
15	0	0	0	0	523	550	1021	464	0	0	
0	0	0	0	0	536	559	1021	475	0	0	
1	0	0	0	0	552	563	1021	486	0	0	
2	0	0	0	0	568	560	1021	497	0	0	
3	0	0	0	0	583	551	1021	507	0	0	
4	0	0	0	0	595	536	1021	514	0	0	
5	0	0	0	0	604	519	1021	518	0	0	
6	0	0	0	0	609	498	1021	518	0	0	
7	0	0	0	0	608	478	1021	515	0	0	
8	0	0	0	0	603	460	1021	508	0	0	
9	0	0	0	0	594	445	1021	499	0	0	
10	0	0	0	0	581	435	1021	488	0	0	
11	0	0	0	0	566	433	1021	477	0	0	
12	0	0	0	0	551	435	1021	466	0	0	
13	0	0	0	0	536	444	1021	456	0	0	
14	0	0	0	0	523	458	1021	448	0	0	
15	0	0	0	0	514	476	1021	444	0	0	
0	0	0	0	0	510	496	1021	443	0	0	
1	0	0	0	0	510	516	1021	446	0	0	
2	0	0	0	0	514	535	1021	451	0	0	
3	0	0	0	0	523	548	1021	460	0	0	
4	0	0	0	0	535	557	1021	470	0	0	
5	0	0	0	0	549	560	1021	480	0	0	
6	0	0	0	0	563	556	1021	491	0	0	
7	0	0	0	0	577	547	1021	500	0	0	
8	0	0	0	0	588	532	1021	506	0	0	
9	0	0	0	0	595	514	1021	510	0	0	
10	0	0	0	0	599	493	1021	510	0	0	
11	0	0	0	0	598	471	1021	506	0	0	
12	0	0	0	0	593	453	1021	500	0	0	
13	0	0	0	0	583	438	1021	491	0	0	
14	0	0	0	0	570	428	1021	480	0	0	
15	0	0	0	0	556	424	1021	470	0	0	
0	0	0	0	0	540	427	1021	459	0	0	
1	0	0	0	0	527	436	1021	450	0	0	
2	0	0	0	0	515	451	1021	443	0	0	
3	0	0	0	0	507	470	1021	439	0	0	
4	0	0	0	0	503	490	1021	438	0	0	
5	0	0	0	0	504	511	1021	441	0	0	
6	0	0	0	0	510	529	1021	446	0	0	
7	0	0	0	0	519	544	1021	454	0	0	
8	0	0	0	0	532	553	1021	464	0	0	
9	0	0	0	0	546	557	1021	473	0	0	
10	0	0	0	0	561	553	1021	483	0	0	
11	0	0	0	0	575	544	1021	492	0	0	
12	0	0	0	0	585	530	1021	497	0	0	
13	0	0	0	0	592	512	1021	501	0	0	
14	0	0	0	0	595	491	1021	501	0	0	
15	0	0	0	0	592	471	1021	497	0	0	
0	0	0	0	0	586	452	1021	491	0	0	
1	0	0	0	0	576	438	1021	483	0	0	
2	0	0	0	0	563	428	1021	473	0	0	
3	0	0	0	0	548	425	1021	462	0	0	
4	0	0	0	0	534	428	1021	453	0	0	
5	0	0	0	0	519	437	1021	444	0	0	
6	0	0	0	0	508	451	1021	438	0	0	
7	0	0	0	0	499	469	1021	434	0	0	
8	0	0	0	0	496	489	1021	433	0	0	
9	0	0	0	0	497	508	1021	436	0	0	
10	0	0	0	0	503	526	1021	441	0	0	
11	0	0	0	0	512	540	1021	449	0	0	
12	0	0	0	0	525	548	1021	459	0	0	
13	0	0	0	0	540	551	1021	469	0	0	
14	0	0	0	0	555	547	1021	479	0	0	
15	0	0	0	0	570	537	1021	488	0	0	
0	0	0	0	0	582	523	1021	494	0	0	
1	0	0	0	0	590	504	1021	498	0	0	
2	0	0	0	0	593	483	1020	497	0	0	
3	0	0	0	0	592	462	1021	495	0	0	
4	0	0	0	0	587	443	1021	488	0	0	
5	0	0	0	0	576	428	1021	480	0	0	
6	0	0	0	0	563	418	1021	470	0	0	
7	0	0	0	0	548	415	1021	459	0	0	
8	0	0	0	0	532	417	1021	449	0	0	
9	0	0	0	0	518	427	1021	440	0	0	
10	0	0	0	0	506	441	1021	433	0	0	
11	0	0	0	0	496	460	1021	430	0	0	
12	0	0	0	0	492	481	1021	430	0	0	
13	0	0	0	0	493	502	1021	432	0	0	
14	0	0	0	0	499	521	1021	439	0	0	
15	0	0	0	0	508	536	1021	447	0	0	
0	0	0	0	0	519	545	1021	456	0	0	
1	0	0	0	0	533	548	1021	467	0	0	
2	0	0	0	0	547	544	1021	476	0	0	
3	0	0	0	0	560	535	1021	484	0	0	
4	0	0	0	0	571	520	1021	490	0	0	
5	0	0	0	0	578	502	1021	493	0	0	
6	0	0	0	0	581	480	1021	492	0	0	
7	0	0	0	0	579	459	1021	487	0	0	
8	0	0	0	0	575	440	1021	481	0	0	
9	0	0	0	0	564	425	1021	472	0	0	
10	0	0	0	0	552	416	1021	462	0	0	
11	0	0	0	0	538	413	1021	451	0	0	
12	0	0	0	0	524	416	1021	441	0	0	
13	0	0	0	0	511	425	1021	433	0	0	
14	0	0	0	0	500	440	1021	427	0	0	
15	0	0	0	0	493	460	1021	425	0	0	
0	0	0	0	0	490	480	1021	425	0	0	
1	0	0	0	0	492	502	1021	430	0	0	
2	0	0	0	0	499	520	1021	437	0	0	
3	0	0	0	0	509	536	1021	447	0	0	
4	0	0	0	0	521	545	1021	458	0	0	
5	0	0	0	0	536	548	1021	470	0	0	
6	0	0	0	0	551	544	1021	480	0	0	
7	0	0	0	0	564	535	1021	489	0	0	
8	0	0	0	0	575	520	1021	496	0	0	
9	0	0	0	0	583	501	1021	499	0	0	
10	0	0	0	0	585	480	1021	499	0	0	
11	0	0	0	0	584	459	1021	495	0	0	
12	0	0	0	0	579	440	1021	488	0	0	
13	0	0	0	0	568	425	1021	479	0	0	
14	0	0	0	0	555	415	1021	468	0	0	
15	0	0	0	0	540	411	1021	456	0	0	
0	0	0	0	0	524	413	1021	444	0	0	
1	0	0	0	0	510	423	1021	435	0	0	
2	0	0	0	0	497	437	1021	427	0	0	
3	0	0	0	0	488	455	1021	422	0	0	
4	0	0	0	0	483	476	1021	420	0	0	
5	0	0	0	0	483	496	1021	423	0	0	
6	0	0	0	0	489	515	1021	428	0	0	
7	0	0	0	0	499	529	1021	436	0	0	
8	0	0	0	0	512	539	1021	447	0	0	
9	0	0	0	0	527	542	1021	458	0	0	
10	0	0	0	0	542	539	1021	468	0	0	
11	0	0	0	0	557	530	1021	478	0	0	
12	0	0	0	0	568	516	1021	485	0	0	
13	0	0	0	0	577	497	1021	489	0	0	
14	0	0	0	0	581	476	1021	489	0	0	
15	0	0	0	0	579	455	1021	486	0	0	
0	0	0	0	0	574	436	1021	480	0	0	
1	0	0	0	0	563	421	1021	471	0	0	
2	0	0	0	0	550	410	1021	460	0	0	
3	0	0	0	0	535	406	1021	449	0	0	
4	0	0	0	0	519	408	1021	439	0	0	
5	0	0	0	0	505	417	1021	430	0	0	
6	0	0	0	0	493	432	1021	423	0	0	
7	0	0	0	0	484	450	1021	419	0	0	
8	0	0	0	0	480	471	1021	419	0	0	
9	0	0	0	0	480	492	1021	422	0	0	
10	0	0	0	0	487	512	1021	429	0	0	
11	0	0	0	0	497	527	1021	438	0	0	
12	0	0	0	0	511	538	1021	448	0	0	
13	0	0	0	0	526	542	1021	459	0	0	
14	0	0	0	0	541	540	1021	469	0	0	
15	0	0	0	0	557	532	1021	478	0	0	
0	0	0	0	0	569	519	1021	485	0	0	
1	0	0	0	0	577	501	1021	489	0	0	
2	0	0	0	0	582	481	1021	490	0	0	
3	0	0	0	0	581	460	1021	487	0	0	
4	0	0	0	0	576	442	1021	481	0	0	
5	0	0	0	0	566	427	1021	472	0	0	
6	0	0	0	0	553	417	1021	462	0	0	
7	0	0	0	0	538	413	1021	451	0	0	
8	0	0	0	0	522	415	1021	441	0	0	
9	0	0	0	0	508	423	1021	432	0	0	
10	0	0	0	0	496	436	1021	425	0	0	
11	0	0	0	0	487	455	1021	422	0	0	
12	0	0	0	0	483	475	1021	422	0	0	
13	0	0	0	0	483	496	1021	425	0	0	
14	0	0	0	0	490	515	1021	432	0	0	
15	0	0	0	0	499	529	1021	440	0	0	
0	0	0	0	0	512	539	1021	450	0	0	
1	0	0	0	0	527	543	1021	460	0	0	
2	0	0	0	0	542	540	1021	470	0	0	
3	0	0	0	0	556	531	1021	478	0	0	
4	0	0	0	0	567	516	1021	483	0	0	
5	0	0	0	0	575	497	1021	486	0	0	
6	0	0	0	0	579	476	1021	486	0	0	
7	0	0	0	0	577	454	1021	481	0	0	
8	0	0	0	0	574	435	1021	475	0	0	
9	0	0	0	0	563	419	1021	466	0	0	
10	0	0	0	0	551	410	1021	456	0	0	
11	0	0	0	0	537	406	1021	445	0	0	
12	0	0	0	0	523	409	1021	435	0	0	
13	0	0	0	0	510	418	1021	428	0	0	
14	0	0	0	0	499	433	1021	422	0	0	
15	0	0	0	0	491	453	1021	420	0	0	
0	0	0	0	0	487	476	1021	421	0	0	
1	0	0	0	0	489	498	1021	426	0	0	
2	0	0	0	0	496	519	1021	435	0	0	
3	0	0	0	0	507	536	1021	446	0	0	
4	0	0	0	0	520	548	1021	457	0	0	
5	0	0	0	0	536	553	1021	471	0	0	
6	0	0	0	0	552	552	1021	483	0	0	
7	0	0	0	0	568	545	1021	493	0	0	
8	0	0	0	0	580	531	1021	501	0	0	
9	0	0	0	0	589	514	1021	506	0	0	
10	0	0	0	0	593	494	1021	507	0	0	
11	0	0	0	0	593	472	1021	504	0	0	
12	0	0	0	0	588	454	1021	498	0	0	
13	0	0	0	0	579	438	1021	489	0	0	
14	0	0	0	0	567	428	1021	479	0	0	
15	0	0	0	0	552	424	1021	468	0	0	
0	0	0	0	0	537	426	1021	457	0	0	
1	0	0	0	0	523	435	1021	448	0	0	
2	0	0	0	0	512	449	1021	441	0	0	
3	0	0	0	0	504	467	1021	437	0	0	
4	0	0	0	0	500	488	1021	437	0	0	
5	0	0	0	0	502	509	1021	440	0	0	
6	0	0	0	0	508	528	1021	446	0	0	
7	0	0	0	0	518	543	1021	455	0	0	
8	0	0	0	0	531	553	1021	466	0	0	
9	0	0	0	0	547	556	1021	477	0	0	
10	0	0	0	0	561	553	1021	487	0	0	
11	0	0	0	0	575	544	1021	496	0	0	
12	0	0	0	0	587	530	1021	504	0	0	
13	0	0	0	0	594	512	1021	507	0	0	
14	0	0	0	0	598	491	1021	507	0	0	
15	0	0	0	0	596	471	1021	504	0	0	
0	0	0	0	0	590	452	1021	498	0	0	
1	0	0	0	0	580	438	1021	489	0	0	
2	0	0	0	0	567	429	1021	479	0	0	
3	0	0	0	0	551	425	1021	467	0	0	
4	0	0	0	0	536	428	1021	456	0	0	
5	0	0	0	0	522	438	1021	447	0	0	
6	0	0	0	0	509	452	1021	440	0	0	
7	0	0	0	0	500	470	1021	435	0	0	
8	0	0	0	0	496	491	1021	434	0	0	
9	0	0	0	0	496	511	1021	436	0	0	
10	0	0	0	0	501	530	1021	441	0	0	
11	0	0	0	0	510	544	1021	449	0	0	
12	0	0	0	0	522	554	1021	459	0	0	
13	0	0	0	0	537	557	1021	470	0	0	
14	0	0	0	0	552	554	1021	481	0	0	
15	0	0	0	0	566	545	1021	490	0	0	
0	0	0	0	0	579	531	1021	498	0	0	
1	0	0	0	0	588	513	1021	503	0	0	
2	0	0	0	0	593	493	1021	504	0	0	
3	0	0	0	0	594	472	1021	503	0	0	
4	0	0	0	0	591	454	1021	497	0	0	
5	0	0	0	0	583	440	1021	490	0	0	
6	0	0	0	0	571	430	1021	481	0	0	
7	0	0	0	0	558	427	1021	471	0	0	
8	0	0	0	0	543	429	1021	462	0	0	
9	0	0	0	0	531	439	1021	454	0	0	
10	0	0	0	0	519	454	1021	447	0	0	
11	0	0	0	0	510	472	1021	444	0	0	
12	0	0	0	0	506	494	1021	444	0	0	
13	0	0	0	0	507	515	1021	447	0	0	
14	0	0	0	0	512	534	1021	454	0	0	
15	0	0	0	0	521	550	1021	463	0	0	
0	0	0	0	0	534	560	1021	472	0	0	
1	0	0	0	0	547	564	1020	483	0	0	
2	0	0	0	0	562	561	1021	494	0	0	
3	0	0	0	0	576	553	1021	502	0	0	
4	0	0	0	0	588	540	1021	508	0	0	
5	0	0	0	0	595	522	1021	512	0	0	
6	0	0	0	0	599	502	1021	512	0	0	
7	0	0	0	0	598	481	1021	508	0	0	
8	0	0	0	0	592	462	1021	502	0	0	
9	0	0	0	0	583	447	1021	493	0	0	
10	0	0	0	0	571	436	1021	483	0	0	
11	0	0	0	0	556	432	1021	472	0	0	
12	0	0	0	0	541	433	1021	462	0	0	
13	0	0	0	0	527	442	1021	452	0	0	
14	0	0	0	0	515	456	1021	446	0	0	
15	0	0	0	0	507	473	1021	441	0	0	
0	0	0	0	0	504	494	1021	440	0	0	
1	0	0	0	0	504	514	1021	443	0	0	
2	0	0	0	0	510	532	1021	448	0	0	
3	0	0	0	0	519	547	1021	456	0	0	
4	0	0	0	0	531	557	1021	467	0	0	
5	0	0	0	0	546	560	1021	477	0	0	
6	0	0	0	0	561	558	1021	488	0	0	
7	0	0	0	0	575	551	1021	498	0	0	
8	0	0	0	0	587	537	1021	506	0	0	
9	0	0	0	0	595	520	1021	511	0	0	
10	0	0	0	0	600	500	1021	512	0	0	
11	0	0	0	0	598	479	1021	509	0	0	
12	0	0	0	0	593	461	1021	503	0	0	
13	0	0	0	0	583	446	1021	495	0	0	
14	0	0	0	0	569	437	1021	484	0	0	
15	0	0	0	0	554	433	1021	473	0	0	
0	0	0	0	0	538	434	1021	462	0	0	
1	0	0	0	0	523	443	1021	452	0	0	
2	0	0	0	0	510	455	1021	444	0	0	
3	0	0	0	0	500	473	1021	439	0	0	
4	0	0	0	0	495	492	1021	437	0	0	
5	0	0	0	0	495	512	1021	439	0	0	
6	0	0	0	0	500	529	1021	443	0	0	
7	0	0	0	0	508	543	1021	451	0	0	
8	0	0	0	0	520	551	1021	460	0	0	
9	0	0	0	0	535	555	1021	470	0	0	
10	0	0	0	0	549	551	1021	480	0	0	
11	0	0	0	0	563	542	1021	489	0	0	
12	0	0	0	0	575	527	1021	497	0	0	
13	0	0	0	0	583	509	1021	501	0	0	
14	0	0	0	0	588	489	1021	503	0	0	
15	0	0	0	0	587	468	1021	500	0	0	
0	0	0	0	0	582	450	1021	495	0	0	
1	0	0	0	0	573	436	1021	487	0	0	
2	0	0	0	0	562	427	1021	478	0	0	
3	0	0	0	0	547	423	1021	468	0	0	
4	0	0	0	0	533	427	1021	458	0	0	
5	0	0	0	0	520	435	1021	450	0	0	
6	0	0	0	0	508	450	1021	443	0	0	
7	0	0	0	0	500	469	1021	439	0	0	
8	0	0	0	0	496	490	1021	438	0	0	
9	0	0	0	0	497	511	1021	441	0	0	
10	0	0	0	0	502	530	1021	446	0	0	
11	0	0	0	0	512	545	1021	455	0	0	
12	0	0	0	0	524	555	1021	464	0	0	
13	0	0	0	0	538	559	1021	474	0	0	
14	0	0	0	0	552	556	1021	484	0	0	
15	0	0	0	0	567	547	1021	493	0	0	
0	0	0	0	0	577	533	1021	499	0	0	
1	0	0	0	0	585	515	1021	503	0	0	
2	0	0	0	0	589	493	1021	503	0	0	
3	0	0	0	0	588	471	1021	500	0	0	
4	0	0	0	0	582	451	1021	494	0	0	
5	0	0	0	0	572	435	1021	486	0	0	
6	0	0	0	0	559	424	1021	476	0	0	
7	0	0	0	0	544	419	1021	465	0	0	
8	0	0	0	0	528	421	1021	455	0	0	
9	0	0	0	0	514	429	1021	447	0	0	
10	0	0	0	0	502	443	1021	440	0	0	
11	0	0	0	0	493	461	1021	437	0	0	
12	0	0	0	0	488	482	1021	436	0	0	
13	0	0	0	0	489	503	1021	439	0	0	
14	0	0	0	0	495	523	1021	445	0	0	
15	0	0	0	0	504	538	1021	453	0	0	
0	0	0	0	0	516	548	1021	463	0	0	
1	0	0	0	0	531	552	1021	473	0	0	
2	0	0	0	0	546	549	1021	482	0	0	
3	0	0	0	0	560	540	1021	490	0	0	
4	0	0	0	0	571	526	1021	496	0	0	
5	0	0	0	0	579	507	1021	499	0	0	
6	0	0	0	0	583	486	1021	499	0	0	
7	0	0	0	0	582	465	1021	496	0	0	
8	0	0	0	0	577	446	1021	489	0	0	
9	0	0	0	0	567	430	1021	481	0	0	
10	0	0	0	0	555	420	1021	471	0	0	
11	0	0	0	0	540	416	1021	460	0	0	
12	0	0	0	0	525	418	1021	450	0	0	
13	0	0	0	0	512	427	1021	441	0	0	
14	0	0	0	0	500	442	1021	435	0	0	
15	0	0	0	0	492	461	1021	432	0	0	
0	0	0	0	0	489	483	1021	431	0	0	
1	0	0	0	0	490	505	1021	435	0	0	
2	0	0	0	0	497	525	1021	441	0	0	
3	0	0	0	0	507	541	1021	449	0	0	
4	0	0	0	0	519	551	1021	460	0	0	
5	0	0	0	0	534	555	1021	471	0	0	
6	0	0	0	0	549	552	1021	481	0	0	
7	0	0	0	0	564	543	1021	491	0	0	
8	0	0	0	0	575	529	1021	498	0	0	
9	0	0	0	0	583	511	1021	503	0	0	
10	0	0	0	0	587	489	1021	504	0	0	
11	0	0	0	0	585	468	1021	502	0	0	
12	0	0	0	0	580	449	1021	497	0	0	
13	0	0	0	0	570	434	1021	489	0	0	
14	0	0	0	0	557	424	1021	479	0	0	
15	0	0	0	0	542	419	1021	469	0	0	
0	0	0	0	0	527	422	1021	459	0	0	
1	0	0	0	0	513	431	1021	449	0	0	
2	0	0	0	0	501	446	1021	443	0	0	
3	0	0	0	0	492	464	1021	439	0	0	
4	0	0	0	0	488	486	1021	438	0	0	
5	0	0	0	0	489	507	1021	441	0	0	
6	0	0	0	0	496	527	1021	447	0	0	
7	0	0	0	0	505	543	1021	455	0	0	
8	0	0	0	0	519	555	1021	465	0	0	
9	0	0	0	0	533	559	1021	476	0	0	
10	0	0	0	0	549	558	1021	487	0	0	
11	0	0	0	0	564	550	1021	496	0	0	
12	0	0	0	0	576	536	1021	503	0	0	
13	0	0	0	0	584	518	1021	507	0	0	
14	0	0	0	0	589	497	1021	508	0	0	
15	0	0	0	0	588	476	1021	505	0	0	
0	0	0	0	0	584	456	1021	499	0	0	
1	0	0	0	0	574	440	1021	490	0	0	
2	0	0	0	0	561	429	1021	480	0	0	
3	0	0	0	0	547	424	1021	468	0	0	
4	0	0	0	0	532	425	1021	457	0	0	
5	0	0	0	0	518	432	1021	448	0	0	
6	0	0	0	0	505	446	1021	440	0	0	
7	0	0	0	0	496	463	1021	435	0	0	
8	0	0	0	0	492	484	1021	434	0	0	
9	0	0	0	0	491	504	1021	437	0	0	
10	0	0	0	0	497	524	1021	443	0	0	
11	0	0	0	0	506	540	1021	451	0	0	
12	0	0	0	0	519	551	1021	461	0	0	
13	0	0	0	0	534	556	1021	472	0	0	
14	0	0	0	0	549	555	1021	483	0	0	
15	0	0	0	0	564	547	1021	492	0	0	
0	0	0	0	0	577	534	1021	500	0	0	
1	0	0	0	0	587	517	1021	505	0	0	
2	0	0	0	0	592	496	1021	507	0	0	
3	0	0	0	0	593	476	1021	505	0	0	
4	0	0	0	0	589	457	1021	500	0	0	
5	0	0	0	0	579	441	1021	492	0	0	
6	0	0	0	0	567	430	1021	482	0	0	
7	0	0	0	0	552	425	1021	472	0	0	
8	0	0	0	0	536	426	1021	461	0	0	
9	0	0	0	0	520	433	1021	451	0	0	
10	0	0	0	0	507	447	1021	443	0	0	
11	0	0	0	0	497	464	1021	439	0	0	
12	0	0	0	0	491	484	1021	437	0	0	
13	0	0	0	0	489	504	1021	439	0	0	
14	0	0	0	0	494	524	1021	444	0	0	
15	0	0	0	0	503	539	1021	452	0	0	
0	0	0	0	0	514	549	1021	462	0	0	
1	0	0	0	0	529	553	1021	472	0	0	
2	0	0	0	0	544	550	1021	481	0	0	
3	0	0	0	0	558	542	1021	490	0	0	
4	0	0	0	0	570	527	1021	496	0	0	
5	0	0	0	0	579	509	1021	500	0	0	
6	0	0	0	0	584	488	1021	500	0	0	
7	0	0	0	0	584	467	1021	497	0	0	
8	0	0	0	0	580	447	1021	491	0	0	
9	0	0	0	0	571	432	1021	483	0	0	
10	0	0	0	0	559	421	1021	473	0	0	
11	0	0	0	0	545	417	1021	463	0	0	
12	0	0	0	0	530	419	1021	453	0	0	
13	0	0	0	0	516	427	1021	445	0	0	
14	0	0	0	0	504	441	1021	439	0	0	
15	0	0	0	0	494	460	1021	435	0	0	
0	0	0	0	0	490	481	1021	435	0	0	
1	0	0	0	0	489	502	1021	438	0	0	
2	0	0	0	0	494	521	1021	444	0	0	
3	0	0	0	0	504	537	1021	452	0	0	
4	0	0	0	0	516	547	1021	462	0	0	
5	0	0	0	0	530	552	1021	472	0	0	
6	0	0	0	0	545	549	1021	482	0	0	
7	0	0	0	0	560	541	1021	491	0	0	
8	0	0	0	0	572	527	1021	497	0	0	
9	0	0	0	0	580	508	1021	501	0	0	
10	0	0	0	0	585	487	1021	501	0	0	
11	0	0	0	0	584	465	1021	498	0	0	
12	0	0	0	0	580	445	1021	492	0	0	
13	0	0	0	0	570	429	1021	483	0	0	
14	0	0	0	0	557	418	1021	472	0	0	
15	0	0	0	0	542	413	1021	461	0	0	
0	0	0	0	0	526	414	1021	450	0	0	
1	0	0	0	0	511	423	1021	440	0	0	
2	0	0	0	0	498	436	1021	433	0	0	
3	0	0	0	0	489	455	1021	428	0	0	
4	0	0	0	0	483	476	1021	427	0	0	
5	0	0	0	0	483	497	1021	429	0	0	
6	0	0	0	0	489	518	1021	435	0	0	
7	0	0	0	0	499	534	1021	444	0	0	
8	0	0	0	0	512	545	1021	454	0	0	
9	0	0	0	0	527	551	1021	465	0	0	
10	0	0	0	0	542	548	1021	476	0	0	
11	0	0	0	0	558	542	1021	486	0	0	
12	0	0	0	0	569	528	1021	493	0	0	
13	0	0	0	0	579	510	1021	497	0	0	
14	0	0	0	0	584	490	1021	499	0	0	
15	0	0	0	0	583	468	1021	496	0	0	
0	0	0	0	0	579	448	1021	491	0	0	
1	0	0	0	0	569	432	1021	482	0	0	
2	0	0	0	0	556	420	1021	471	0	0	
3	0	0	0	0	542	414	1021	460	0	0	
4	0	0	0	0	525	415	1021	449	0	0	
5	0	0	0	0	511	422	1021	439	0	0	
6	0	0	0	0	497	435	1021	431	0	0	
7	0	0	0	0	487	453	1021	426	0	0	
8	0	0	0	0	483	473	1021	424	0	0	
9	0	0	0	0	482	494	1021	427	0	0	
10	0	0	0	0	487	514	1021	432	0	0	
11	0	0	0	0	496	530	1021	440	0	0	
12	0	0	0	0	509	541	1021	450	0	0	
13	0	0	0	0	524	546	1021	461	0	0	
14	0	0	0	0	538	544	1021	471	0	0	
15	0	0	0	0	553	537	1021	481	0	0	
0	0	0	0	0	565	524	1021	487	0	0	
1	0	0	0	0	574	506	1021	492	0	0	
2	0	0	0	0	578	486	1021	493	0	0	
3	0	0	0	0	577	464	1021	490	0	0	
4	0	0	0	0	572	445	1021	484	0	0	
5	0	0	0	0	562	428	1021	476	0	0	
6	0	0	0	0	549	416	1021	466	0	0	
7	0	0	0	0	534	411	1021	455	0	0	
8	0	0	0	0	518	412	1021	445	0	0	
9	0	0	0	0	504	419	1021	436	0	0	
10	0	0	0	0	490	432	1021	429	0	0	
11	0	0	0	0	480	449	1021	425	0	0	
12	0	0	0	0	476	470	1021	424	0	0	
13	0	0	0	0	476	491	1021	427	0	0	
14	0	0	0	0	482	511	1021	433	0	0	
15	0	0	0	0	492	528	1021	442	0	0	
0	0	0	0	0	505	540	1021	452	0	0	
1	0	0	0	0	520	545	1021	463	0	0	
2	0	0	0	0	536	544	1021	474	0	0	
3	0	0	0	0	551	537	1021	483	0	0	
4	0	0	0	0	564	524	1021	490	0	0	
5	0	0	0	0	574	507	1021	494	0	0	
6	0	0	0	0	579	487	1021	495	0	0	
7	0	0	0	0	579	465	1021	492	0	0	
8	0	0	0	0	576	446	1021	486	0	0	
9	0	0	0	0	567	430	1021	477	0	0	
10	0	0	0	0	555	418	1021	467	0	0	
11	0	0	0	0	541	412	1021	455	0	0	
12	0	0	0	0	525	412	1021	445	0	0	
13	0	0	0	0	511	419	1021	435	0	0	
14	0	0	0	0	497	432	1021	428	0	0	
15	0	0	0	0	487	449	1021	423	0	0	
0	0	0	0	0	481	469	1021	423	0	0	
1	0	0	0	0	480	489	1021	425	0	0	
2	0	0	0	0	484	509	1021	431	0	0	
3	0	0	0	0	492	525	1021	439	0	0	
4	0	0	0	0	504	536	1021	449	0	0	
5	0	0	0	0	518	541	1021	460	0	0	
6	0	0	0	0	532	540	1021	471	0	0	
7	0	0	0	0	548	532	1021	480	0	0	
8	0	0	0	0	560	519	1021	487	0	0	
9	0	0	0	0	570	502	1021	491	0	0	
10	0	0	0	0	576	481	1021	491	0	0	
11	0	0	0	0	576	460	1021	488	0	0	
12	0	0	0	0	572	440	1021	482	0	0	
13	0	0	0	0	563	424	1021	474	0	0	
14	0	0	0	0	551	413	1021	463	0	0	
15	0	0	0	0	538	408	1021	452	0	0	
0	0	0	0	0	523	408	1021	442	0	0	
1	0	0	0	0	508	416	1021	432	0	0	
2	0	0	0	0	496	430	1021	425	0	0	
3	0	0	0	0	486	447	1021	420	0	0	
4	0	0	0	0	481	467	1021	419	0	0	
5	0	0	0	0	479	487	1021	421	0	0	
6	0	0	0	0	484	508	1021	426	0	0	
7	0	0	0	0	491	523	1021	434	0	0	
8	0	0	0	0	503	534	1021	443	0	0	
