# OpenSignals Text File Format. Version 1
# {"": {"position": 0, "device": "", "device name": "", "device connection": "", "sampling rate": 1000, "resolution": [4, 1, 1, 1, 1, 10, 10, 10, 10, 6, 6], "firmware version": 1281, "comments": "", "keywords": "", "mode": 0, "sync interval": 2, "date": "", "time": "", "channels": [1, 2, 3, 4, 5, 6], "sensor": ["RAW", "RAW", "RAW", "RAW", "RAW", "RAW"], "label": ["A1", "A2", "A3", "A4", "A5", "A6"], "column": ["nSeq", "I1", "I2", "O1", "O2", "A1", "A2", "A3", "A4", "A5", "A6"], "special": [{}, {}, {}, {}, {}, {}], "digital IO": [0, 0, 1, 1]}}
# EndOfHeader
0	0	0	0	0	575	542	0	478	0	0	
1	0	0	0	0	575	542	0	480	0	0	
2	0	0	0	0	573	542	0	480	0	0	
3	0	0	0	0	571	542	0	480	0	0	
4	0	0	0	0	567	542	0	477	0	0	
5	0	0	0	0	564	541	0	473	0	0	
6	0	0	0	0	562	538	0	468	0	0	
7	0	0	0	0	559	534	0	461	0	0	
8	0	0	0	0	556	529	0	453	0	0	
9	0	0	0	0	553	523	0	444	0	0	
10	0	0	0	0	550	516	0	436	0	0	
11	0	0	0	0	547	509	0	427	0	0	
12	0	0	0	0	545	500	0	419	0	0	
13	0	0	0	0	543	492	0	412	0	0	
14	0	0	0	0	543	483	0	407	0	0	
15	0	0	0	0	543	476	0	403	0	0	
0	0	0	0	0	546	470	0	402	0	0	
1	0	0	0	0	550	465	0	403	0	0	
2	0	0	0	0	558	462	0	405	0	0	
3	0	0	0	0	566	461	0	409	0	0	
4	0	0	0	0	575	462	0	416	0	0	
5	0	0	0	0	584	463	0	422	0	0	
6	0	0	0	0	591	466	0	430	0	0	
7	0	0	0	0	598	470	0	436	0	0	
8	0	0	0	0	602	474	0	443	0	0	
9	0	0	0	0	605	479	0	448	0	0	
10	0	0	0	0	608	484	0	452	0	0	
11	0	0	0	0	611	490	0	455	0	0	
12	0	0	0	0	613	497	0	456	0	0	
13	0	0	0	0	613	502	0	455	0	0	
14	0	0	0	0	610	506	0	453	0	0	
15	0	0	0	0	604	508	0	449	0	0	
0	0	0	0	0	593	508	0	443	0	0	
1	0	0	0	0	580	506	0	434	0	0	
2	0	0	0	0	563	502	0	425	0	0	
3	0	0	0	0	543	497	0	415	0	0	
4	0	0	0	0	522	491	0	405	0	0	
5	0	0	0	0	499	483	0	395	0	0	
6	0	0	0	0	478	473	0	385	0	0	
7	0	0	0	0	459	462	0	377	0	0	
8	0	0	0	0	442	450	0	369	0	0	
9	0	0	0	0	429	435	0	361	0	0	
10	0	0	0	0	418	419	0	354	0	0	
11	0	0	0	0	410	401	0	345	0	0	
12	0	0	0	0	403	381	0	336	0	0	
13	0	0	0	0	398	360	0	326	0	0	
14	0	0	0	0	391	338	0	313	0	0	
15	0	0	0	0	384	316	0	299	0	0	
0	0	0	0	0	376	294	0	284	0	0	
1	0	0	0	0	368	274	0	267	0	0	
2	0	0	0	0	360	257	0	251	0	0	
3	0	0	0	0	354	244	0	235	0	0	
4	0	0	0	0	350	235	0	220	0	0	
5	0	0	0	0	347	231	0	207	0	0	
6	0	0	0	0	345	231	0	198	0	0	
7	0	0	0	0	344	236	0	192	0	0	
8	0	0	0	0	343	243	0	190	0	0	
9	0	0	0	0	343	254	0	192	0	0	
10	0	0	0	0	345	266	0	197	0	0	
11	0	0	0	0	348	280	0	206	0	0	
12	0	0	0	0	352	294	0	219	0	0	
13	0	0	0	0	357	306	0	233	0	0	
14	0	0	0	0	365	319	0	249	0	0	
15	0	0	0	0	374	330	0	268	0	0	
0	0	0	0	0	385	340	0	286	0	0	
1	0	0	0	0	399	348	0	305	0	0	
2	0	0	0	0	413	356	0	323	0	0	
3	0	0	0	0	427	363	0	342	0	0	
4	0	0	0	0	440	370	0	359	0	0	
5	0	0	0	0	451	378	0	376	0	0	
6	0	0	0	0	458	387	0	392	0	0	
7	0	0	0	0	462	398	0	406	0	0	
8	0	0	0	0	462	411	0	418	0	0	
9	0	0	0	0	457	425	0	429	0	0	
10	0	0	0	0	450	440	0	437	0	0	
11	0	0	0	0	442	455	0	445	0	0	
12	0	0	0	0	436	471	0	451	0	0	
13	0	0	0	0	435	486	0	457	0	0	
14	0	0	0	0	441	500	0	463	0	0	
15	0	0	0	0	455	513	0	468	0	0	
0	0	0	0	0	479	523	0	472	0	0	
1	0	0	0	0	510	530	0	475	0	0	
2	0	0	0	0	545	534	0	476	0	0	
3	0	0	0	0	581	534	0	476	0	0	
4	0	0	0	0	611	529	0	473	0	0	
5	0	0	0	0	633	520	0	468	0	0	
6	0	0	0	0	643	507	0	461	0	0	
7	0	0	0	0	640	491	0	451	0	0	
8	0	0	0	0	626	473	0	440	0	0	
9	0	0	0	0	603	455	0	428	0	0	
10	0	0	0	0	576	439	0	416	0	0	
11	0	0	0	0	547	426	0	406	0	0	
12	0	0	0	0	521	418	0	398	0	0	
13	0	0	0	0	501	415	0	392	0	0	
14	0	0	0	0	487	419	0	390	0	0	
15	0	0	0	0	480	428	0	390	0	0	
0	0	0	0	0	481	443	0	393	0	0	
1	0	0	0	0	489	461	0	399	0	0	
2	0	0	0	0	503	481	0	406	0	0	
3	0	0	0	0	521	503	0	416	0	0	
4	0	0	0	0	543	522	0	427	0	0	
5	0	0	0	0	565	540	0	438	0	0	
6	0	0	0	0	584	553	0	449	0	0	
7	0	0	0	0	600	563	0	459	0	0	
8	0	0	0	0	611	568	0	466	0	0	
9	0	0	0	0	614	568	0	470	0	0	
10	0	0	0	0	610	564	0	472	0	0	
11	0	0	0	0	601	555	0	471	0	0	
12	0	0	0	0	590	544	0	467	0	0	
13	0	0	0	0	576	530	0	462	0	0	
14	0	0	0	0	565	516	0	455	0	0	
15	0	0	0	0	558	502	0	448	0	0	
0	0	0	0	0	555	489	0	440	0	0	
1	0	0	0	0	558	479	0	434	0	0	
2	0	0	0	0	563	469	0	428	0	0	
3	0	0	0	0	568	461	0	424	0	0	
4	0	0	0	0	573	455	0	420	0	0	
5	0	0	0	0	575	452	0	417	0	0	
6	0	0	0	0	575	451	0	415	0	0	
7	0	0	0	0	574	452	0	414	0	0	
8	0	0	0	0	570	455	0	414	0	0	
9	0	0	0	0	566	460	0	414	0	0	
10	0	0	0	0	560	465	0	416	0	0	
11	0	0	0	0	554	470	0	418	0	0	
12	0	0	0	0	549	475	0	422	0	0	
13	0	0	0	0	544	479	0	425	0	0	
14	0	0	0	0	540	481	0	428	0	0	
15	0	0	0	0	538	482	0	431	0	0	
0	0	0	0	0	536	481	0	432	0	0	
1	0	0	0	0	535	480	0	433	0	0	
2	0	0	0	0	532	477	0	432	0	0	
3	0	0	0	0	528	473	0	430	0	0	
4	0	0	0	0	524	470	0	429	0	0	
5	0	0	0	0	522	467	0	427	0	0	
6	0	0	0	0	523	466	0	425	0	0	
7	0	0	0	0	527	467	0	424	0	0	
8	0	0	0	0	536	471	0	425	0	0	
9	0	0	0	0	545	475	0	427	0	0	
10	0	0	0	0	556	482	0	429	0	0	
11	0	0	0	0	566	490	0	432	0	0	
12	0	0	0	0	574	498	0	436	0	0	
13	0	0	0	0	578	506	0	441	0	0	
14	0	0	0	0	580	513	0	445	0	0	
15	0	0	0	0	579	520	0	448	0	0	
0	0	0	0	0	577	526	0	452	0	0	
1	0	0	0	0	574	531	0	455	0	0	
2	0	0	0	0	568	535	0	458	0	0	
3	0	0	0	0	560	536	0	459	0	0	
4	0	0	0	0	547	534	0	457	0	0	
5	0	0	0	0	533	529	0	454	0	0	
6	0	0	0	0	515	521	0	448	0	0	
7	0	0	0	0	496	509	0	440	0	0	
8	0	0	0	0	477	494	0	430	0	0	
9	0	0	0	0	464	479	0	419	0	0	
10	0	0	0	0	457	463	0	408	0	0	
11	0	0	0	0	457	449	0	398	0	0	
12	0	0	0	0	465	437	0	389	0	0	
13	0	0	0	0	479	427	0	382	0	0	
14	0	0	0	0	497	420	0	376	0	0	
15	0	0	0	0	520	416	0	374	0	0	
0	0	0	0	0	545	416	0	374	0	0	
1	0	0	0	0	570	419	0	376	0	0	
2	0	0	0	0	594	425	0	380	0	0	
3	0	0	0	0	616	432	0	384	0	0	
4	0	0	0	0	635	440	0	389	0	0	
5	0	0	0	0	649	448	0	394	0	0	
6	0	0	0	0	656	456	0	398	0	0	
7	0	0	0	0	656	461	0	401	0	0	
8	0	0	0	0	647	465	0	403	0	0	
9	0	0	0	0	629	467	0	404	0	0	
10	0	0	0	0	605	467	0	405	0	0	
11	0	0	0	0	575	466	0	405	0	0	
12	0	0	0	0	545	464	0	404	0	0	
13	0	0	0	0	514	461	0	404	0	0	
14	0	0	0	0	487	458	0	404	0	0	
15	0	0	0	0	466	455	0	404	0	0	
0	0	0	0	0	451	455	0	406	0	0	
1	0	0	0	0	444	457	0	409	0	0	
2	0	0	0	0	444	461	0	414	0	0	
3	0	0	0	0	450	467	0	419	0	0	
4	0	0	0	0	460	474	0	425	0	0	
5	0	0	0	0	473	482	0	431	0	0	
6	0	0	0	0	489	490	0	438	0	0	
7	0	0	0	0	506	496	0	443	0	0	
8	0	0	0	0	525	501	0	445	0	0	
9	0	0	0	0	545	503	0	446	0	0	
10	0	0	0	0	563	500	0	444	0	0	
11	0	0	0	0	577	494	0	439	0	0	
12	0	0	0	0	583	485	0	432	0	0	
13	0	0	0	0	580	473	0	423	0	0	
14	0	0	0	0	567	460	0	415	0	0	
15	0	0	0	0	546	446	0	406	0	0	
0	0	0	0	0	522	432	0	397	0	0	
1	0	0	0	0	497	419	0	389	0	0	
2	0	0	0	0	475	408	0	382	0	0	
3	0	0	0	0	457	400	0	376	0	0	
4	0	0	0	0	446	394	0	372	0	0	
5	0	0	0	0	443	391	0	371	0	0	
6	0	0	0	0	448	392	0	371	0	0	
7	0	0	0	0	461	397	0	375	0	0	
8	0	0	0	0	479	406	0	381	0	0	
9	0	0	0	0	500	418	0	389	0	0	
10	0	0	0	0	525	433	0	399	0	0	
11	0	0	0	0	550	452	0	410	0	0	
12	0	0	0	0	574	472	0	422	0	0	
13	0	0	0	0	596	492	0	434	0	0	
14	0	0	0	0	614	510	0	445	0	0	
15	0	0	0	0	627	526	0	454	0	0	
0	0	0	0	0	632	538	0	459	0	0	
1	0	0	0	0	630	545	0	461	0	0	
2	0	0	0	0	621	549	0	461	0	0	
3	0	0	0	0	604	548	0	457	0	0	
4	0	0	0	0	581	543	0	451	0	0	
5	0	0	0	0	554	536	0	444	0	0	
6	0	0	0	0	526	525	0	434	0	0	
7	0	0	0	0	502	513	0	424	0	0	
8	0	0	0	0	483	502	0	414	0	0	
9	0	0	0	0	471	491	0	404	0	0	
10	0	0	0	0	465	482	0	396	0	0	
11	0	0	0	0	470	476	0	389	0	0	
12	0	0	0	0	483	472	0	385	0	0	
13	0	0	0	0	502	472	0	383	0	0	
14	0	0	0	0	523	474	0	384	0	0	
15	0	0	0	0	543	477	0	386	0	0	
0	0	0	0	0	559	480	0	389	0	0	
1	0	0	0	0	568	482	0	392	0	0	
2	0	0	0	0	569	483	0	396	0	0	
3	0	0	0	0	560	482	0	399	0	0	
4	0	0	0	0	544	480	0	401	0	0	
5	0	0	0	0	525	476	0	403	0	0	
6	0	0	0	0	506	473	0	403	0	0	
7	0	0	0	0	491	468	0	403	0	0	
8	0	0	0	0	482	463	0	403	0	0	
9	0	0	0	0	480	456	0	402	0	0	
10	0	0	0	0	484	450	0	401	0	0	
11	0	0	0	0	493	443	0	399	0	0	
12	0	0	0	0	505	437	0	399	0	0	
13	0	0	0	0	518	431	0	398	0	0	
14	0	0	0	0	529	425	0	398	0	0	
15	0	0	0	0	542	422	0	399	0	0	
0	0	0	0	0	551	420	0	400	0	0	
1	0	0	0	0	558	419	0	402	0	0	
2	0	0	0	0	559	418	0	404	0	0	
3	0	0	0	0	554	418	0	406	0	0	
4	0	0	0	0	543	419	0	407	0	0	
5	0	0	0	0	525	420	0	407	0	0	
6	0	0	0	0	503	422	0	407	0	0	
7	0	0	0	0	475	423	0	407	0	0	
8	0	0	0	0	446	425	0	405	0	0	
9	0	0	0	0	415	428	0	403	0	0	
10	0	0	0	0	388	431	0	400	0	0	
11	0	0	0	0	368	434	0	398	0	0	
12	0	0	0	0	357	439	0	396	0	0	
13	0	0	0	0	360	445	0	393	0	0	
14	0	0	0	0	376	451	0	391	0	0	
15	0	0	0	0	407	457	0	391	0	0	
0	0	0	0	0	448	464	0	391	0	0	
1	0	0	0	0	497	471	0	392	0	0	
2	0	0	0	0	550	476	0	394	0	0	
3	0	0	0	0	602	481	0	397	0	0	
4	0	0	0	0	646	484	0	399	0	0	
5	0	0	0	0	680	484	0	402	0	0	
6	0	0	0	0	700	483	0	404	0	0	
7	0	0	0	0	706	479	0	406	0	0	
8	0	0	0	0	697	473	0	407	0	0	
9	0	0	0	0	677	467	0	407	0	0	
10	0	0	0	0	647	461	0	407	0	0	
11	0	0	0	0	612	456	0	406	0	0	
12	0	0	0	0	575	452	0	404	0	0	
13	0	0	0	0	539	449	0	402	0	0	
14	0	0	0	0	508	449	0	400	0	0	
15	0	0	0	0	481	449	0	397	0	0	
0	0	0	0	0	462	451	0	395	0	0	
1	0	0	0	0	451	454	0	393	0	0	
2	0	0	0	0	448	460	0	392	0	0	
3	0	0	0	0	451	467	0	394	0	0	
4	0	0	0	0	460	476	0	396	0	0	
5	0	0	0	0	472	487	0	401	0	0	
6	0	0	0	0	485	497	0	407	0	0	
7	0	0	0	0	500	508	0	413	0	0	
8	0	0	0	0	516	516	0	420	0	0	
9	0	0	0	0	531	523	0	425	0	0	
10	0	0	0	0	546	527	0	430	0	0	
11	0	0	0	0	558	528	0	432	0	0	
12	0	0	0	0	568	526	0	432	0	0	
13	0	0	0	0	574	521	0	430	0	0	
14	0	0	0	0	575	513	0	427	0	0	
15	0	0	0	0	570	503	0	422	0	0	
0	0	0	0	0	560	492	0	415	0	0	
1	0	0	0	0	548	481	0	409	0	0	
2	0	0	0	0	536	470	0	403	0	0	
3	0	0	0	0	526	460	0	397	0	0	
4	0	0	0	0	519	450	0	392	0	0	
5	0	0	0	0	515	441	0	388	0	0	
6	0	0	0	0	512	435	0	385	0	0	
7	0	0	0	0	510	429	0	384	0	0	
8	0	0	0	0	509	426	0	385	0	0	
9	0	0	0	0	509	424	0	387	0	0	
10	0	0	0	0	509	425	0	391	0	0	
11	0	0	0	0	511	430	0	396	0	0	
12	0	0	0	0	514	436	0	401	0	0	
13	0	0	0	0	519	444	0	407	0	0	
14	0	0	0	0	527	453	0	413	0	0	
15	0	0	0	0	534	462	0	418	0	0	
0	0	0	0	0	543	470	0	423	0	0	
1	0	0	0	0	553	478	0	425	0	0	
2	0	0	0	0	564	484	0	427	0	0	
3	0	0	0	0	575	490	0	426	0	0	
4	0	0	0	0	584	494	0	424	0	0	
5	0	0	0	0	590	497	0	422	0	0	
6	0	0	0	0	591	499	0	418	0	0	
7	0	0	0	0	587	499	0	415	0	0	
8	0	0	0	0	580	498	0	411	0	0	
9	0	0	0	0	572	496	0	408	0	0	
10	0	0	0	0	563	493	0	405	0	0	
11	0	0	0	0	553	490	0	404	0	0	
12	0	0	0	0	543	488	0	406	0	0	
13	0	0	0	0	535	487	0	408	0	0	
14	0	0	0	0	527	489	0	413	0	0	
15	0	0	0	0	523	493	0	420	0	0	
0	0	0	0	0	523	499	0	428	0	0	
1	0	0	0	0	526	507	0	438	0	0	
2	0	0	0	0	534	516	0	447	0	0	
3	0	0	0	0	544	525	0	455	0	0	
4	0	0	0	0	555	534	0	462	0	0	
5	0	0	0	0	563	540	0	467	0	0	
6	0	0	0	0	567	544	0	469	0	0	
7	0	0	0	0	564	545	0	470	0	0	
8	0	0	0	0	554	543	0	468	0	0	
9	0	0	0	0	538	539	0	464	0	0	
10	0	0	0	0	518	533	0	460	0	0	
11	0	0	0	0	497	526	0	454	0	0	
12	0	0	0	0	477	519	0	448	0	0	
13	0	0	0	0	460	512	0	442	0	0	
14	0	0	0	0	449	505	0	436	0	0	
15	0	0	0	0	444	499	0	431	0	0	
0	0	0	0	0	446	493	0	425	0	0	
1	0	0	0	0	453	488	0	419	0	0	
2	0	0	0	0	466	484	0	415	0	0	
3	0	0	0	0	484	482	0	411	0	0	
4	0	0	0	0	510	481	0	409	0	0	
5	0	0	0	0	540	481	0	408	0	0	
6	0	0	0	0	572	483	0	408	0	0	
7	0	0	0	0	607	485	0	409	0	0	
8	0	0	0	0	640	489	0	412	0	0	
9	0	0	0	0	672	494	0	415	0	0	
10	0	0	0	0	699	498	0	419	0	0	
11	0	0	0	0	719	503	0	422	0	0	
12	0	0	0	0	732	506	0	424	0	0	
13	0	0	0	0	735	508	0	427	0	0	
14	0	0	0	0	729	508	0	429	0	0	
15	0	0	0	0	713	507	0	432	0	0	
0	0	0	0	0	690	507	0	434	0	0	
1	0	0	0	0	663	507	0	436	0	0	
2	0	0	0	0	632	508	0	440	0	0	
3	0	0	0	0	601	511	0	443	0	0	
4	0	0	0	0	570	516	0	448	0	0	
5	0	0	0	0	542	524	0	454	0	0	
6	0	0	0	0	519	533	0	461	0	0	
7	0	0	0	0	500	543	0	467	0	0	
8	0	0	0	0	487	552	0	474	0	0	
9	0	0	0	0	477	558	0	480	0	0	
10	0	0	0	0	470	561	0	484	0	0	
11	0	0	0	0	465	560	0	486	0	0	
12	0	0	0	0	460	554	0	486	0	0	
13	0	0	0	0	452	543	0	483	0	0	
14	0	0	0	0	443	529	0	478	0	0	
15	0	0	0	0	434	513	0	472	0	0	
0	0	0	0	0	427	498	0	465	0	0	
1	0	0	0	0	423	484	0	457	0	0	
2	0	0	0	0	424	474	0	451	0	0	
3	0	0	0	0	430	467	0	447	0	0	
4	0	0	0	0	442	465	0	443	0	0	
5	0	0	0	0	463	468	0	440	0	0	
6	0	0	0	0	491	476	0	440	0	0	
7	0	0	0	0	525	487	0	441	0	0	
8	0	0	0	0	562	501	0	444	0	0	
9	0	0	0	0	601	518	0	448	0	0	
10	0	0	0	0	639	536	0	453	0	0	
11	0	0	0	0	674	555	0	459	0	0	
12	0	0	0	0	704	571	0	464	0	0	
13	0	0	0	0	728	585	0	469	0	0	
14	0	0	0	0	742	595	0	473	0	0	
15	0	0	0	0	748	600	0	475	0	0	
0	0	0	0	0	742	600	0	475	0	0	
1	0	0	0	0	726	593	0	473	0	0	
2	0	0	0	0	699	580	0	471	0	0	
3	0	0	0	0	664	563	0	467	0	0	
4	0	0	0	0	624	543	0	462	0	0	
5	0	0	0	0	583	522	0	455	0	0	
6	0	0	0	0	542	500	0	449	0	0	
7	0	0	0	0	504	480	0	442	0	0	
8	0	0	0	0	472	462	0	436	0	0	
9	0	0	0	0	447	448	0	430	0	0	
10	0	0	0	0	430	439	0	427	0	0	
11	0	0	0	0	421	436	0	425	0	0	
12	0	0	0	0	422	439	0	427	0	0	
13	0	0	0	0	431	447	0	430	0	0	
14	0	0	0	0	448	460	0	435	0	0	
15	0	0	0	0	471	477	0	443	0	0	
0	0	0	0	0	497	495	0	451	0	0	
1	0	0	0	0	526	514	0	460	0	0	
2	0	0	0	0	555	533	0	468	0	0	
3	0	0	0	0	583	550	0	475	0	0	
4	0	0	0	0	610	566	0	480	0	0	
5	0	0	0	0	636	578	0	483	0	0	
6	0	0	0	0	659	588	0	484	0	0	
7	0	0	0	0	679	593	0	483	0	0	
8	0	0	0	0	690	595	0	480	0	0	
9	0	0	0	0	694	594	0	477	0	0	
10	0	0	0	0	686	589	0	473	0	0	
11	0	0	0	0	668	581	0	469	0	0	
12	0	0	0	0	639	571	0	466	0	0	
13	0	0	0	0	606	558	0	463	0	0	
14	0	0	0	0	569	543	0	460	0	0	
15	0	0	0	0	533	529	0	458	0	0	
0	0	0	0	0	499	515	0	456	0	0	
1	0	0	0	0	470	503	0	455	0	0	
2	0	0	0	0	445	492	0	455	0	0	
3	0	0	0	0	427	483	0	455	0	0	
4	0	0	0	0	415	477	0	456	0	0	
5	0	0	0	0	410	473	0	457	0	0	
6	0	0	0	0	414	472	0	459	0	0	
7	0	0	0	0	424	475	0	460	0	0	
8	0	0	0	0	443	479	0	461	0	0	
9	0	0	0	0	467	485	0	462	0	0	
10	0	0	0	0	494	490	0	463	0	0	
11	0	0	0	0	521	494	0	463	0	0	
12	0	0	0	0	548	497	0	463	0	0	
13	0	0	0	0	571	497	0	462	0	0	
14	0	0	0	0	588	496	0	460	0	0	
15	0	0	0	0	595	493	0	458	0	0	
0	0	0	0	0	595	489	0	456	0	0	
1	0	0	0	0	583	486	0	454	0	0	
2	0	0	0	0	563	483	0	451	0	0	
3	0	0	0	0	535	483	0	449	0	0	
4	0	0	0	0	502	482	0	447	0	0	
5	0	0	0	0	466	482	0	444	0	0	
6	0	0	0	0	432	484	0	442	0	0	
7	0	0	0	0	401	487	0	440	0	0	
8	0	0	0	0	380	491	0	438	0	0	
9	0	0	0	0	369	497	0	438	0	0	
10	0	0	0	0	374	504	0	438	0	0	
11	0	0	0	0	392	511	0	438	0	0	
12	0	0	0	0	424	517	0	440	0	0	
13	0	0	0	0	467	520	0	441	0	0	
14	0	0	0	0	514	522	0	443	0	0	
15	0	0	0	0	560	519	0	444	0	0	
0	0	0	0	0	601	514	0	444	0	0	
1	0	0	0	0	633	505	0	444	0	0	
2	0	0	0	0	653	495	0	442	0	0	
3	0	0	0	0	662	483	0	440	0	0	
4	0	0	0	0	659	472	0	436	0	0	
5	0	0	0	0	645	461	0	433	0	0	
6	0	0	0	0	626	454	0	430	0	0	
7	0	0	0	0	601	451	0	428	0	0	
8	0	0	0	0	575	451	0	427	0	0	
9	0	0	0	0	551	456	0	428	0	0	
10	0	0	0	0	531	465	0	431	0	0	
11	0	0	0	0	516	477	0	435	0	0	
12	0	0	0	0	508	493	0	441	0	0	
13	0	0	0	0	507	511	0	448	0	0	
14	0	0	0	0	512	530	0	457	0	0	
15	0	0	0	0	521	549	0	465	0	0	
0	0	0	0	0	534	567	0	474	0	0	
1	0	0	0	0	547	582	0	482	0	0	
2	0	0	0	0	560	592	0	488	0	0	
3	0	0	0	0	572	596	0	492	0	0	
4	0	0	0	0	581	595	0	493	0	0	
5	0	0	0	0	590	590	0	492	0	0	
6	0	0	0	0	597	579	0	489	0	0	
7	0	0	0	0	604	567	0	484	0	0	
8	0	0	0	0	609	552	0	478	0	0	
9	0	0	0	0	614	536	0	470	0	0	
10	0	0	0	0	617	521	0	461	0	0	
11	0	0	0	0	619	505	0	453	0	0	
12	0	0	0	0	619	491	0	444	0	0	
13	0	0	0	0	617	478	0	436	0	0	
14	0	0	0	0	613	465	0	430	0	0	
15	0	0	0	0	607	455	0	425	0	0	
0	0	0	0	0	599	446	0	422	0	0	
1	0	0	0	0	587	439	0	420	0	0	
2	0	0	0	0	572	435	0	421	0	0	
3	0	0	0	0	554	433	0	423	0	0	
4	0	0	0	0	534	435	0	428	0	0	
5	0	0	0	0	513	439	0	434	0	0	
6	0	0	0	0	493	444	0	440	0	0	
7	0	0	0	0	476	449	0	446	0	0	
8	0	0	0	0	461	456	0	451	0	0	
9	0	0	0	0	450	462	0	454	0	0	
10	0	0	0	0	442	469	0	455	0	0	
11	0	0	0	0	435	475	0	455	0	0	
12	0	0	0	0	430	481	0	454	0	0	
13	0	0	0	0	428	488	0	452	0	0	
14	0	0	0	0	429	495	0	450	0	0	
15	0	0	0	0	435	501	0	448	0	0	
0	0	0	0	0	446	506	0	447	0	0	
1	0	0	0	0	464	511	0	446	0	0	
2	0	0	0	0	488	514	0	447	0	0	
3	0	0	0	0	519	515	0	448	0	0	
4	0	0	0	0	553	517	0	451	0	0	
5	0	0	0	0	590	517	0	455	0	0	
6	0	0	0	0	625	516	0	459	0	0	
7	0	0	0	0	658	515	0	463	0	0	
8	0	0	0	0	683	515	0	468	0	0	
9	0	0	0	0	698	513	0	471	0	0	
10	0	0	0	0	702	511	0	473	0	0	
11	0	0	0	0	693	509	0	473	0	0	
12	0	0	0	0	672	507	0	471	0	0	
13	0	0	0	0	643	503	0	467	0	0	
14	0	0	0	0	609	497	0	460	0	0	
15	0	0	0	0	575	489	0	452	0	0	
0	0	0	0	0	542	478	0	443	0	0	
1	0	0	0	0	512	464	0	434	0	0	
2	0	0	0	0	487	449	0	425	0	0	
3	0	0	0	0	466	433	0	418	0	0	
4	0	0	0	0	450	417	0	413	0	0	
5	0	0	0	0	439	403	0	410	0	0	
6	0	0	0	0	433	391	0	410	0	0	
7	0	0	0	0	435	382	0	412	0	0	
8	0	0	0	0	443	377	0	417	0	0	
9	0	0	0	0	457	376	0	423	0	0	
10	0	0	0	0	478	380	0	430	0	0	
11	0	0	0	0	502	389	0	437	0	0	
12	0	0	0	0	527	403	0	444	0	0	
13	0	0	0	0	552	420	0	451	0	0	
14	0	0	0	0	573	440	0	456	0	0	
15	0	0	0	0	589	461	0	460	0	0	
0	0	0	0	0	597	482	0	463	0	0	
1	0	0	0	0	597	501	0	464	0	0	
2	0	0	0	0	590	517	0	463	0	0	
3	0	0	0	0	577	529	0	462	0	0	
4	0	0	0	0	560	537	0	460	0	0	
5	0	0	0	0	540	541	0	457	0	0	
6	0	0	0	0	521	542	0	456	0	0	
7	0	0	0	0	503	540	0	455	0	0	
8	0	0	0	0	487	536	0	456	0	0	
9	0	0	0	0	473	529	0	458	0	0	
10	0	0	0	0	464	521	0	461	0	0	
11	0	0	0	0	461	513	0	464	0	0	
12	0	0	0	0	463	505	0	468	0	0	
13	0	0	0	0	472	497	0	471	0	0	
14	0	0	0	0	485	490	0	473	0	0	
15	0	0	0	0	504	484	0	474	0	0	
0	0	0	0	0	525	479	0	473	0	0	
1	0	0	0	0	546	473	0	470	0	0	
2	0	0	0	0	565	468	0	466	0	0	
3	0	0	0	0	579	462	0	460	0	0	
4	0	0	0	0	588	455	0	453	0	0	
5	0	0	0	0	594	447	0	447	0	0	
6	0	0	0	0	595	439	0	440	0	0	
7	0	0	0	0	592	432	0	434	0	0	
8	0	0	0	0	587	424	0	429	0	0	
9	0	0	0	0	580	418	0	425	0	0	
10	0	0	0	0	572	415	0	423	0	0	
11	0	0	0	0	562	413	0	424	0	0	
12	0	0	0	0	553	414	0	427	0	0	
13	0	0	0	0	544	417	0	431	0	0	
14	0	0	0	0	536	423	0	437	0	0	
15	0	0	0	0	531	430	0	443	0	0	
0	0	0	0	0	528	438	0	450	0	0	
1	0	0	0	0	525	446	0	456	0	0	
2	0	0	0	0	520	455	0	463	0	0	
3	0	0	0	0	510	463	0	467	0	0	
4	0	0	0	0	496	470	0	471	0	0	
5	0	0	0	0	475	476	0	473	0	0	
6	0	0	0	0	449	479	0	473	0	0	
7	0	0	0	0	420	480	0	472	0	0	
8	0	0	0	0	393	479	0	468	0	0	
9	0	0	0	0	372	475	0	462	0	0	
10	0	0	0	0	360	470	0	457	0	0	
11	0	0	0	0	357	463	0	451	0	0	
12	0	0	0	0	366	456	0	447	0	0	
13	0	0	0	0	384	450	0	444	0	0	
14	0	0	0	0	411	445	0	444	0	0	
15	0	0	0	0	444	442	0	446	0	0	
0	0	0	0	0	481	441	0	449	0	0	
1	0	0	0	0	519	441	0	454	0	0	
2	0	0	0	0	554	443	0	459	0	0	
3	0	0	0	0	585	445	0	463	0	0	
4	0	0	0	0	611	448	0	468	0	0	
5	0	0	0	0	629	450	0	472	0	0	
6	0	0	0	0	640	451	0	473	0	0	
7	0	0	0	0	644	453	0	474	0	0	
8	0	0	0	0	640	452	0	473	0	0	
9	0	0	0	0	629	451	0	470	0	0	
10	0	0	0	0	613	449	0	466	0	0	
11	0	0	0	0	594	447	0	460	0	0	
12	0	0	0	0	575	445	0	455	0	0	
13	0	0	0	0	556	443	0	449	0	0	
14	0	0	0	0	538	442	0	444	0	0	
15	0	0	0	0	521	441	0	439	0	0	
0	0	0	0	0	503	439	0	434	0	0	
1	0	0	0	0	486	436	0	430	0	0	
2	0	0	0	0	471	434	0	426	0	0	
3	0	0	0	0	459	432	0	423	0	0	
4	0	0	0	0	450	430	0	421	0	0	
5	0	0	0	0	444	427	0	420	0	0	
6	0	0	0	0	442	425	0	419	0	0	
7	0	0	0	0	444	423	0	419	0	0	
8	0	0	0	0	449	422	0	421	0	0	
9	0	0	0	0	458	420	0	424	0	0	
10	0	0	0	0	470	418	0	429	0	0	
11	0	0	0	0	483	416	0	435	0	0	
12	0	0	0	0	496	415	0	441	0	0	
13	0	0	0	0	508	414	0	448	0	0	
14	0	0	0	0	517	413	0	454	0	0	
15	0	0	0	0	522	412	0	460	0	0	
0	0	0	0	0	523	413	0	464	0	0	
1	0	0	0	0	521	415	0	467	0	0	
2	0	0	0	0	516	418	0	468	0	0	
3	0	0	0	0	509	422	0	468	0	0	
4	0	0	0	0	500	425	0	466	0	0	
5	0	0	0	0	491	428	0	463	0	0	
6	0	0	0	0	483	432	0	460	0	0	
7	0	0	0	0	475	435	0	457	0	0	
8	0	0	0	0	468	439	0	455	0	0	
9	0	0	0	0	464	443	0	454	0	0	
10	0	0	0	0	464	447	0	455	0	0	
11	0	0	0	0	467	450	0	458	0	0	
12	0	0	0	0	472	451	0	462	0	0	
13	0	0	0	0	477	451	0	468	0	0	
14	0	0	0	0	482	450	0	475	0	0	
15	0	0	0	0	484	448	0	481	0	0	
0	0	0	0	0	483	445	0	488	0	0	
1	0	0	0	0	476	441	0	494	0	0	
2	0	0	0	0	465	436	0	498	0	0	
3	0	0	0	0	450	430	0	500	0	0	
4	0	0	0	0	435	422	0	500	0	0	
5	0	0	0	0	423	415	0	499	0	0	
6	0	0	0	0	414	408	0	496	0	0	
7	0	0	0	0	408	401	0	492	0	0	
8	0	0	0	0	407	396	0	488	0	0	
9	0	0	0	0	412	393	0	484	0	0	
10	0	0	0	0	421	394	0	482	0	0	
11	0	0	0	0	435	399	0	481	0	0	
12	0	0	0	0	452	408	0	483	0	0	
13	0	0	0	0	473	421	0	487	0	0	
14	0	0	0	0	496	438	0	492	0	0	
15	0	0	0	0	521	457	0	498	0	0	
0	0	0	0	0	548	477	0	504	0	0	
1	0	0	0	0	575	496	0	510	0	0	
2	0	0	0	0	599	513	0	516	0	0	
3	0	0	0	0	619	526	0	520	0	0	
4	0	0	0	0	635	536	0	524	0	0	
5	0	0	0	0	643	543	0	526	0	0	
6	0	0	0	0	643	546	0	526	0	0	
7	0	0	0	0	635	544	0	524	0	0	
8	0	0	0	0	619	539	0	519	0	0	
9	0	0	0	0	597	529	0	512	0	0	
10	0	0	0	0	572	517	0	504	0	0	
11	0	0	0	0	544	501	0	494	0	0	
12	0	0	0	0	518	484	0	483	0	0	
13	0	0	0	0	494	467	0	472	0	0	
14	0	0	0	0	473	450	0	462	0	0	
15	0	0	0	0	455	433	0	454	0	0	
0	0	0	0	0	442	419	0	447	0	0	
1	0	0	0	0	432	407	0	443	0	0	
2	0	0	0	0	424	396	0	441	0	0	
3	0	0	0	0	420	387	0	440	0	0	
4	0	0	0	0	416	378	0	441	0	0	
5	0	0	0	0	414	370	0	443	0	0	
6	0	0	0	0	414	362	0	444	0	0	
7	0	0	0	0	416	356	0	444	0	0	
8	0	0	0	0	420	351	0	443	0	0	
9	0	0	0	0	425	349	0	440	0	0	
10	0	0	0	0	432	348	0	434	0	0	
11	0	0	0	0	436	349	0	426	0	0	
12	0	0	0	0	439	351	0	415	0	0	
13	0	0	0	0	439	352	0	403	0	0	
14	0	0	0	0	434	353	0	388	0	0	
15	0	0	0	0	423	352	0	373	0	0	
0	0	0	0	0	406	350	0	358	0	0	
1	0	0	0	0	382	346	0	344	0	0	
2	0	0	0	0	352	342	0	329	0	0	
3	0	0	0	0	319	335	0	317	0	0	
4	0	0	0	0	284	327	0	307	0	0	
5	0	0	0	0	250	320	0	299	0	0	
6	0	0	0	0	219	312	0	294	0	0	
7	0	0	0	0	194	306	0	292	0	0	
8	0	0	0	0	177	302	0	294	0	0	
9	0	0	0	0	171	299	0	299	0	0	
10	0	0	0	0	180	300	0	307	0	0	
11	0	0	0	0	208	305	0	318	0	0	
12	0	0	0	0	255	314	0	331	0	0	
13	0	0	0	0	319	327	0	347	0	0	
14	0	0	0	0	396	344	0	365	0	0	
15	0	0	0	0	478	362	0	384	0	0	
0	0	0	0	0	559	382	0	402	0	0	
1	0	0	0	0	631	401	0	422	0	0	
2	0	0	0	0	688	420	0	440	0	0	
3	0	0	0	0	727	436	0	457	0	0	
4	0	0	0	0	747	451	0	473	0	0	
5	0	0	0	0	748	461	0	486	0	0	
6	0	0	0	0	732	469	0	498	0	0	
7	0	0	0	0	702	473	0	508	0	0	
8	0	0	0	0	660	475	0	516	0	0	
9	0	0	0	0	609	473	0	522	0	0	
10	0	0	0	0	555	471	0	526	0	0	
11	0	0	0	0	501	467	0	529	0	0	
12	0	0	0	0	449	464	0	531	0	0	
13	0	0	0	0	404	459	0	531	0	0	
14	0	0	0	0	366	455	0	532	0	0	
15	0	0	0	0	338	450	0	532	0	0	
0	0	0	0	0	318	445	0	531	0	0	
1	0	0	0	0	307	439	0	531	0	0	
2	0	0	0	0	301	433	0	529	0	0	
3	0	0	0	0	300	429	0	526	0	0	
4	0	0	0	0	304	428	0	523	0	0	
5	0	0	0	0	313	428	0	519	0	0	
6	0	0	0	0	327	432	0	514	0	0	
7	0	0	0	0	347	436	0	510	0	0	
8	0	0	0	0	372	442	0	504	0	0	
9	0	0	0	0	405	448	0	500	0	0	
10	0	0	0	0	444	455	0	497	0	0	
11	0	0	0	0	486	463	0	495	0	0	
12	0	0	0	0	530	471	0	496	0	0	
13	0	0	0	0	573	480	0	499	0	0	
14	0	0	0	0	612	490	0	505	0	0	
15	0	0	0	0	647	501	0	514	0	0	
0	0	0	0	0	677	512	0	524	0	0	
1	0	0	0	0	699	523	0	535	0	0	
2	0	0	0	0	712	534	0	546	0	0	
3	0	0	0	0	718	544	0	556	0	0	
4	0	0	0	0	715	552	0	566	0	0	
5	0	0	0	0	702	558	0	573	0	0	
6	0	0	0	0	680	560	0	578	0	0	
7	0	0	0	0	651	561	0	581	0	0	
8	0	0	0	0	615	560	0	582	0	0	
9	0	0	0	0	576	556	0	580	0	0	
10	0	0	0	0	534	552	0	576	0	0	
11	0	0	0	0	492	547	0	572	0	0	
12	0	0	0	0	453	543	0	567	0	0	
13	0	0	0	0	420	541	0	561	0	0	
14	0	0	0	0	395	540	0	557	0	0	
15	0	0	0	0	380	541	0	553	0	0	
0	0	0	0	0	379	542	0	551	0	0	
1	0	0	0	0	391	542	0	549	0	0	
2	0	0	0	0	416	541	0	548	0	0	
3	0	0	0	0	452	538	0	548	0	0	
4	0	0	0	0	498	533	0	548	0	0	
5	0	0	0	0	549	525	0	548	0	0	
6	0	0	0	0	600	516	0	547	0	0	
7	0	0	0	0	650	506	0	546	0	0	
8	0	0	0	0	693	496	0	544	0	0	
9	0	0	0	0	728	487	0	541	0	0	
10	0	0	0	0	752	479	0	536	0	0	
11	0	0	0	0	764	473	0	531	0	0	
12	0	0	0	0	765	470	0	526	0	0	
13	0	0	0	0	753	469	0	520	0	0	
14	0	0	0	0	729	470	0	515	0	0	
15	0	0	0	0	695	473	0	512	0	0	
0	0	0	0	0	652	477	0	508	0	0	
1	0	0	0	0	605	484	0	506	0	0	
2	0	0	0	0	557	491	0	505	0	0	
3	0	0	0	0	510	498	0	505	0	0	
4	0	0	0	0	469	505	0	506	0	0	
5	0	0	0	0	435	512	0	508	0	0	
6	0	0	0	0	411	519	0	510	0	0	
7	0	0	0	0	397	525	0	513	0	0	
8	0	0	0	0	393	531	0	516	0	0	
9	0	0	0	0	399	538	0	520	0	0	
10	0	0	0	0	413	544	0	524	0	0	
11	0	0	0	0	432	548	0	527	0	0	
12	0	0	0	0	452	551	0	531	0	0	
13	0	0	0	0	474	551	0	533	0	0	
14	0	0	0	0	493	550	0	535	0	0	
15	0	0	0	0	509	547	0	536	0	0	
0	0	0	0	0	519	543	0	536	0	0	
1	0	0	0	0	524	539	0	537	0	0	
2	0	0	0	0	525	534	0	537	0	0	
3	0	0	0	0	525	529	0	539	0	0	
4	0	0	0	0	526	525	0	540	0	0	
5	0	0	0	0	527	521	0	543	0	0	
6	0	0	0	0	531	519	0	546	0	0	
7	0	0	0	0	537	517	0	550	0	0	
8	0	0	0	0	545	516	0	554	0	0	
9	0	0	0	0	554	517	0	559	0	0	
10	0	0	0	0	565	518	0	563	0	0	
11	0	0	0	0	577	521	0	567	0	0	
12	0	0	0	0	591	524	0	571	0	0	
13	0	0	0	0	604	527	0	573	0	0	
14	0	0	0	0	619	531	0	574	0	0	
15	0	0	0	0	632	534	0	574	0	0	
0	0	0	0	0	642	537	0	572	0	0	
1	0	0	0	0	644	539	0	568	0	0	
2	0	0	0	0	640	542	0	564	0	0	
3	0	0	0	0	627	544	0	558	0	0	
4	0	0	0	0	606	547	0	550	0	0	
5	0	0	0	0	580	548	0	542	0	0	
6	0	0	0	0	550	549	0	534	0	0	
7	0	0	0	0	518	549	0	526	0	0	
8	0	0	0	0	487	549	0	520	0	0	
9	0	0	0	0	462	549	0	515	0	0	
10	0	0	0	0	442	550	0	514	0	0	
11	0	0	0	0	430	551	0	514	0	0	
12	0	0	0	0	427	552	0	516	0	0	
13	0	0	0	0	432	553	0	520	0	0	
14	0	0	0	0	446	554	0	527	0	0	
15	0	0	0	0	468	554	0	534	0	0	
0	0	0	0	0	494	553	0	542	0	0	
1	0	0	0	0	521	551	0	551	0	0	
2	0	0	0	0	547	550	0	558	0	0	
3	0	0	0	0	570	547	0	565	0	0	
4	0	0	0	0	588	544	0	571	0	0	
5	0	0	0	0	600	540	0	574	0	0	
6	0	0	0	0	604	536	0	576	0	0	
7	0	0	0	0	601	531	0	576	0	0	
8	0	0	0	0	592	527	0	574	0	0	
9	0	0	0	0	579	523	0	572	0	0	
10	0	0	0	0	561	519	0	568	0	0	
11	0	0	0	0	542	516	0	563	0	0	
12	0	0	0	0	524	513	0	559	0	0	
13	0	0	0	0	510	512	0	554	0	0	
14	0	0	0	0	503	511	0	551	0	0	
15	0	0	0	0	503	513	0	549	0	0	
0	0	0	0	0	510	516	0	548	0	0	
1	0	0	0	0	521	521	0	549	0	0	
2	0	0	0	0	535	527	0	551	0	0	
3	0	0	0	0	545	534	0	553	0	0	
4	0	0	0	0	548	539	0	556	0	0	
5	0	0	0	0	544	544	0	557	0	0	
6	0	0	0	0	535	547	0	557	0	0	
7	0	0	0	0	521	548	0	555	0	0	
8	0	0	0	0	507	547	0	552	0	0	
9	0	0	0	0	492	543	0	549	0	0	
10	0	0	0	0	478	540	0	545	0	0	
11	0	0	0	0	468	536	0	541	0	0	
12	0	0	0	0	463	533	0	536	0	0	
13	0	0	0	0	464	532	0	533	0	0	
14	0	0	0	0	471	532	0	530	0	0	
15	0	0	0	0	481	533	0	527	0	0	
0	0	0	0	0	494	535	0	525	0	0	
1	0	0	0	0	510	537	0	524	0	0	
2	0	0	0	0	528	540	0	524	0	0	
3	0	0	0	0	549	543	0	526	0	0	
4	0	0	0	0	572	545	0	528	0	0	
5	0	0	0	0	595	547	0	531	0	0	
6	0	0	0	0	617	549	0	535	0	0	
7	0	0	0	0	635	548	0	537	0	0	
8	0	0	0	0	647	546	0	540	0	0	
9	0	0	0	0	652	540	0	541	0	0	
10	0	0	0	0	648	533	0	542	0	0	
11	0	0	0	0	637	524	0	542	0	0	
12	0	0	0	0	619	514	0	542	0	0	
13	0	0	0	0	595	504	0	540	0	0	
14	0	0	0	0	568	495	0	538	0	0	
15	0	0	0	0	538	487	0	535	0	0	
0	0	0	0	0	506	483	0	531	0	0	
1	0	0	0	0	475	483	0	527	0	0	
2	0	0	0	0	445	488	0	525	0	0	
3	0	0	0	0	419	498	0	524	0	0	
4	0	0	0	0	401	512	0	523	0	0	
5	0	0	0	0	393	529	0	524	0	0	
6	0	0	0	0	398	550	0	525	0	0	
7	0	0	0	0	414	569	0	528	0	0	
8	0	0	0	0	439	588	0	532	0	0	
9	0	0	0	0	469	603	0	537	0	0	
10	0	0	0	0	501	614	0	543	0	0	
11	0	0	0	0	532	620	0	548	0	0	
12	0	0	0	0	558	620	0	554	0	0	
13	0	0	0	0	579	614	0	558	0	0	
14	0	0	0	0	593	604	0	561	0	0	
15	0	0	0	0	603	591	0	563	0	0	
0	0	0	0	0	608	576	0	564	0	0	
1	0	0	0	0	609	559	0	562	0	0	
2	0	0	0	0	605	543	0	559	0	0	
3	0	0	0	0	598	528	0	554	0	0	
4	0	0	0	0	586	515	0	548	0	0	
5	0	0	0	0	572	506	0	541	0	0	
6	0	0	0	0	556	499	0	535	0	0	
7	0	0	0	0	537	494	0	528	0	0	
8	0	0	0	0	519	492	0	524	0	0	
9	0	0	0	0	504	492	0	520	0	0	
10	0	0	0	0	492	496	0	519	0	0	
11	0	0	0	0	487	503	0	521	0	0	
12	0	0	0	0	490	513	0	526	0	0	
13	0	0	0	0	501	526	0	532	0	0	
14	0	0	0	0	518	540	0	539	0	0	
15	0	0	0	0	540	554	0	548	0	0	
0	0	0	0	0	564	567	0	557	0	0	
1	0	0	0	0	588	578	0	564	0	0	
2	0	0	0	0	611	586	0	572	0	0	
3	0	0	0	0	631	591	0	576	0	0	
4	0	0	0	0	647	592	0	579	0	0	
5	0	0	0	0	660	590	0	580	0	0	
6	0	0	0	0	667	585	0	579	0	0	
7	0	0	0	0	666	579	0	576	0	0	
8	0	0	0	0	659	572	0	572	0	0	
9	0	0	0	0	643	566	0	567	0	0	
10	0	0	0	0	620	560	0	561	0	0	
11	0	0	0	0	594	556	0	556	0	0	
12	0	0	0	0	567	552	0	552	0	0	
13	0	0	0	0	543	551	0	548	0	0	
14	0	0	0	0	522	552	0	546	0	0	
15	0	0	0	0	507	553	0	546	0	0	
0	0	0	0	0	494	556	0	547	0	0	
1	0	0	0	0	485	558	0	549	0	0	
2	0	0	0	0	478	560	0	552	0	0	
3	0	0	0	0	472	560	0	556	0	0	
4	0	0	0	0	466	560	0	560	0	0	
5	0	0	0	0	457	559	0	563	0	0	
6	0	0	0	0	445	558	0	566	0	0	
7	0	0	0	0	430	559	0	568	0	0	
8	0	0	0	0	413	560	0	568	0	0	
9	0	0	0	0	399	562	0	568	0	0	
10	0	0	0	0	390	567	0	566	0	0	
11	0	0	0	0	390	572	0	563	0	0	
12	0	0	0	0	400	577	0	558	0	0	
13	0	0	0	0	421	583	0	553	0	0	
14	0	0	0	0	449	587	0	547	0	0	
15	0	0	0	0	484	589	0	542	0	0	
0	0	0	0	0	524	588	0	537	0	0	
1	0	0	0	0	566	585	0	534	0	0	
2	0	0	0	0	607	578	0	531	0	0	
3	0	0	0	0	643	569	0	530	0	0	
4	0	0	0	0	672	557	0	528	0	0	
5	0	0	0	0	692	544	0	528	0	0	
6	0	0	0	0	703	534	0	528	0	0	
7	0	0	0	0	704	524	0	529	0	0	
8	0	0	0	0	694	516	0	530	0	0	
9	0	0	0	0	673	511	0	531	0	0	
10	0	0	0	0	643	507	0	533	0	0	
11	0	0	0	0	606	505	0	534	0	0	
12	0	0	0	0	564	504	0	533	0	0	
13	0	0	0	0	519	502	0	532	0	0	
14	0	0	0	0	473	499	0	529	0	0	
15	0	0	0	0	430	497	0	527	0	0	
0	0	0	0	0	393	494	0	523	0	0	
1	0	0	0	0	368	492	0	520	0	0	
2	0	0	0	0	353	489	0	518	0	0	
3	0	0	0	0	350	487	0	518	0	0	
4	0	0	0	0	358	486	0	519	0	0	
5	0	0	0	0	376	489	0	522	0	0	
6	0	0	0	0	401	497	0	527	0	0	
7	0	0	0	0	431	510	0	533	0	0	
8	0	0	0	0	464	527	0	540	0	0	
9	0	0	0	0	501	550	0	547	0	0	
10	0	0	0	0	537	575	0	553	0	0	
11	0	0	0	0	574	602	0	560	0	0	
12	0	0	0	0	608	628	0	566	0	0	
13	0	0	0	0	636	653	0	571	0	0	
14	0	0	0	0	659	673	0	575	0	0	
15	0	0	0	0	672	688	0	578	0	0	
0	0	0	0	0	677	696	0	581	0	0	
1	0	0	0	0	673	696	0	583	0	0	
2	0	0	0	0	663	689	0	583	0	0	
3	0	0	0	0	648	678	0	583	0	0	
4	0	0	0	0	632	662	0	583	0	0	
5	0	0	0	0	617	644	0	581	0	0	
6	0	0	0	0	604	626	0	579	0	0	
7	0	0	0	0	593	608	0	576	0	0	
8	0	0	0	0	583	593	0	573	0	0	
9	0	0	0	0	575	580	0	571	0	0	
10	0	0	0	0	568	569	0	568	0	0	
11	0	0	0	0	564	562	0	567	0	0	
12	0	0	0	0	560	557	0	565	0	0	
13	0	0	0	0	557	556	0	564	0	0	
14	0	0	0	0	553	556	0	564	0	0	
15	0	0	0	0	549	558	0	564	0	0	
0	0	0	0	0	542	560	0	565	0	0	
1	0	0	0	0	533	563	0	566	0	0	
2	0	0	0	0	521	566	0	568	0	0	
3	0	0	0	0	510	569	0	570	0	0	
4	0	0	0	0	500	572	0	573	0	0	
5	0	0	0	0	492	575	0	576	0	0	
6	0	0	0	0	487	578	0	580	0	0	
7	0	0	0	0	485	580	0	583	0	0	
8	0	0	0	0	488	582	0	584	0	0	
9	0	0	0	0	495	583	0	586	0	0	
10	0	0	0	0	505	583	0	586	0	0	
11	0	0	0	0	518	583	0	586	0	0	
12	0	0	0	0	532	585	0	585	0	0	
13	0	0	0	0	548	588	0	583	0	0	
14	0	0	0	0	567	591	0	583	0	0	
15	0	0	0	0	587	596	0	582	0	0	
0	0	0	0	0	608	601	0	582	0	0	
1	0	0	0	0	631	606	0	582	0	0	
2	0	0	0	0	652	611	0	583	0	0	
3	0	0	0	0	670	617	0	583	0	0	
4	0	0	0	0	680	623	0	584	0	0	
5	0	0	0	0	683	627	0	584	0	0	
6	0	0	0	0	676	632	0	584	0	0	
7	0	0	0	0	662	635	0	583	0	0	
8	0	0	0	0	641	636	0	581	0	0	
9	0	0	0	0	617	635	0	577	0	0	
10	0	0	0	0	590	632	0	573	0	0	
11	0	0	0	0	562	624	0	566	0	0	
12	0	0	0	0	534	612	0	558	0	0	
13	0	0	0	0	507	597	0	549	0	0	
14	0	0	0	0	480	579	0	540	0	0	
15	0	0	0	0	457	558	0	531	0	0	
0	0	0	0	0	439	536	0	524	0	0	
1	0	0	0	0	428	514	0	520	0	0	
2	0	0	0	0	423	494	0	518	0	0	
3	0	0	0	0	426	478	0	518	0	0	
4	0	0	0	0	434	466	0	521	0	0	
5	0	0	0	0	444	458	0	526	0	0	
6	0	0	0	0	455	455	0	533	0	0	
7	0	0	0	0	463	459	0	541	0	0	
8	0	0	0	0	468	465	0	551	0	0	
9	0	0	0	0	469	476	0	560	0	0	
10	0	0	0	0	467	487	0	569	0	0	
11	0	0	0	0	463	502	0	579	0	0	
12	0	0	0	0	463	516	0	587	0	0	
13	0	0	0	0	464	529	0	593	0	0	
14	0	0	0	0	471	542	0	597	0	0	
15	0	0	0	0	483	554	0	598	0	0	
0	0	0	0	0	501	564	0	596	0	0	
1	0	0	0	0	523	575	0	592	0	0	
2	0	0	0	0	545	583	0	585	0	0	
3	0	0	0	0	569	591	0	576	0	0	
4	0	0	0	0	591	599	0	567	0	0	
5	0	0	0	0	610	605	0	558	0	0	
6	0	0	0	0	627	611	0	550	0	0	
7	0	0	0	0	640	617	0	544	0	0	
8	0	0	0	0	649	621	0	541	0	0	
9	0	0	0	0	653	624	0	541	0	0	
10	0	0	0	0	654	624	0	542	0	0	
11	0	0	0	0	651	624	0	546	0	0	
12	0	0	0	0	644	622	0	551	0	0	
13	0	0	0	0	635	618	0	557	0	0	
14	0	0	0	0	621	613	0	562	0	0	
15	0	0	0	0	606	607	0	567	0	0	
0	0	0	0	0	588	601	0	570	0	0	
1	0	0	0	0	570	595	0	573	0	0	
2	0	0	0	0	551	591	0	575	0	0	
3	0	0	0	0	533	588	0	576	0	0	
4	0	0	0	0	517	587	0	575	0	0	
5	0	0	0	0	504	587	0	575	0	0	
6	0	0	0	0	496	588	0	574	0	0	
7	0	0	0	0	492	590	0	573	0	0	
8	0	0	0	0	494	591	0	572	0	0	
9	0	0	0	0	499	593	0	571	0	0	
10	0	0	0	0	508	595	0	571	0	0	
11	0	0	0	0	519	595	0	571	0	0	
12	0	0	0	0	531	593	0	569	0	0	
13	0	0	0	0	544	591	0	568	0	0	
14	0	0	0	0	558	587	0	567	0	0	
15	0	0	0	0	573	581	0	564	0	0	
0	0	0	0	0	587	575	0	562	0	0	
1	0	0	0	0	599	568	0	559	0	0	
2	0	0	0	0	608	562	0	555	0	0	
3	0	0	0	0	614	557	0	551	0	0	
4	0	0	0	0	615	553	0	547	0	0	
5	0	0	0	0	612	551	0	543	0	0	
6	0	0	0	0	606	549	0	539	0	0	
7	0	0	0	0	595	549	0	536	0	0	
8	0	0	0	0	583	549	0	532	0	0	
9	0	0	0	0	568	550	0	529	0	0	
10	0	0	0	0	555	552	0	528	0	0	
11	0	0	0	0	541	554	0	527	0	0	
12	0	0	0	0	529	557	0	526	0	0	
13	0	0	0	0	520	560	0	526	0	0	
14	0	0	0	0	514	565	0	528	0	0	
15	0	0	0	0	510	570	0	530	0	0	
0	0	0	0	0	508	576	0	534	0	0	
1	0	0	0	0	506	584	0	539	0	0	
2	0	0	0	0	503	593	0	544	0	0	
3	0	0	0	0	497	604	0	549	0	0	
4	0	0	0	0	488	615	0	555	0	0	
5	0	0	0	0	473	627	0	559	0	0	
6	0	0	0	0	454	638	0	564	0	0	
7	0	0	0	0	431	647	0	568	0	0	
8	0	0	0	0	406	652	0	571	0	0	
9	0	0	0	0	384	654	0	573	0	0	
10	0	0	0	0	369	652	0	574	0	0	
11	0	0	0	0	362	644	0	574	0	0	
12	0	0	0	0	367	632	0	572	0	0	
13	0	0	0	0	386	616	0	569	0	0	
14	0	0	0	0	416	597	0	565	0	0	
15	0	0	0	0	456	576	0	559	0	0	
0	0	0	0	0	503	553	0	552	0	0	
1	0	0	0	0	551	532	0	543	0	0	
2	0	0	0	0	598	512	0	534	0	0	
3	0	0	0	0	640	496	0	525	0	0	
4	0	0	0	0	675	483	0	518	0	0	
5	0	0	0	0	700	475	0	513	0	0	
6	0	0	0	0	713	471	0	511	0	0	
7	0	0	0	0	715	472	0	512	0	0	
8	0	0	0	0	706	477	0	517	0	0	
9	0	0	0	0	687	487	0	524	0	0	
10	0	0	0	0	660	500	0	534	0	0	
11	0	0	0	0	630	516	0	545	0	0	
12	0	0	0	0	599	533	0	557	0	0	
13	0	0	0	0	571	551	0	569	0	0	
14	0	0	0	0	549	568	0	581	0	0	
15	0	0	0	0	535	583	0	591	0	0	
0	0	0	0	0	531	596	0	599	0	0	
1	0	0	0	0	536	605	0	604	0	0	
2	0	0	0	0	544	611	0	605	0	0	
3	0	0	0	0	551	611	0	603	0	0	
4	0	0	0	0	556	608	0	597	0	0	
5	0	0	0	0	555	602	0	589	0	0	
6	0	0	0	0	549	594	0	579	0	0	
7	0	0	0	0	539	585	0	568	0	0	
8	0	0	0	0	526	577	0	559	0	0	
9	0	0	0	0	511	571	0	551	0	0	
10	0	0	0	0	497	567	0	545	0	0	
11	0	0	0	0	486	566	0	542	0	0	
12	0	0	0	0	479	568	0	543	0	0	
13	0	0	0	0	477	572	0	545	0	0	
14	0	0	0	0	481	577	0	550	0	0	
15	0	0	0	0	490	585	0	556	0	0	
0	0	0	0	0	504	591	0	561	0	0	
1	0	0	0	0	521	597	0	567	0	0	
2	0	0	0	0	541	601	0	570	0	0	
3	0	0	0	0	561	602	0	571	0	0	
4	0	0	0	0	581	601	0	570	0	0	
5	0	0	0	0	599	596	0	567	0	0	
6	0	0	0	0	612	589	0	562	0	0	
7	0	0	0	0	621	580	0	556	0	0	
8	0	0	0	0	624	570	0	549	0	0	
9	0	0	0	0	622	560	0	542	0	0	
10	0	0	0	0	615	551	0	535	0	0	
11	0	0	0	0	606	545	0	530	0	0	
12	0	0	0	0	594	542	0	527	0	0	
13	0	0	0	0	581	543	0	527	0	0	
14	0	0	0	0	568	549	0	530	0	0	
15	0	0	0	0	555	558	0	536	0	0	
0	0	0	0	0	542	570	0	544	0	0	
1	0	0	0	0	528	583	0	554	0	0	
2	0	0	0	0	515	596	0	566	0	0	
3	0	0	0	0	503	609	0	577	0	0	
4	0	0	0	0	494	621	0	587	0	0	
5	0	0	0	0	487	631	0	596	0	0	
6	0	0	0	0	483	637	0	603	0	0	
7	0	0	0	0	483	640	0	607	0	0	
8	0	0	0	0	487	640	0	608	0	0	
9	0	0	0	0	496	637	0	606	0	0	
10	0	0	0	0	508	632	0	602	0	0	
11	0	0	0	0	525	623	0	595	0	0	
12	0	0	0	0	543	611	0	587	0	0	
13	0	0	0	0	560	601	0	576	0	0	
14	0	0	0	0	576	590	0	565	0	0	
15	0	0	0	0	588	581	0	556	0	0	
0	0	0	0	0	593	574	0	547	0	0	
1	0	0	0	0	593	569	0	540	0	0	
2	0	0	0	0	587	567	0	536	0	0	
3	0	0	0	0	575	564	0	532	0	0	
4	0	0	0	0	559	563	0	531	0	0	
5	0	0	0	0	540	561	0	531	0	0	
6	0	0	0	0	520	560	0	532	0	0	
7	0	0	0	0	504	559	0	535	0	0	
8	0	0	0	0	490	557	0	537	0	0	
9	0	0	0	0	481	554	0	539	0	0	
10	0	0	0	0	478	550	0	540	0	0	
11	0	0	0	0	480	547	0	541	0	0	
12	0	0	0	0	489	544	0	542	0	0	
13	0	0	0	0	504	544	0	542	0	0	
14	0	0	0	0	524	547	0	543	0	0	
15	0	0	0	0	549	552	0	544	0	0	
0	0	0	0	0	577	560	0	546	0	0	
1	0	0	0	0	608	568	0	548	0	0	
2	0	0	0	0	639	577	0	551	0	0	
3	0	0	0	0	667	585	0	554	0	0	
4	0	0	0	0	690	591	0	557	0	0	
5	0	0	0	0	707	596	0	560	0	0	
6	0	0	0	0	716	598	0	562	0	0	
7	0	0	0	0	717	598	0	563	0	0	
8	0	0	0	0	708	595	0	563	0	0	
9	0	0	0	0	693	592	0	563	0	0	
10	0	0	0	0	670	587	0	563	0	0	
11	0	0	0	0	641	580	0	561	0	0	
12	0	0	0	0	609	573	0	560	0	0	
13	0	0	0	0	575	566	0	558	0	0	
14	0	0	0	0	541	560	0	556	0	0	
15	0	0	0	0	509	554	0	553	0	0	
0	0	0	0	0	479	550	0	548	0	0	
1	0	0	0	0	452	547	0	544	0	0	
2	0	0	0	0	431	547	0	538	0	0	
3	0	0	0	0	415	547	0	532	0	0	
4	0	0	0	0	407	548	0	527	0	0	
5	0	0	0	0	403	550	0	521	0	0	
6	0	0	0	0	406	553	0	516	0	0	
7	0	0	0	0	415	555	0	513	0	0	
8	0	0	0	0	428	557	0	512	0	0	
9	0	0	0	0	446	560	0	512	0	0	
10	0	0	0	0	465	561	0	515	0	0	
11	0	0	0	0	485	564	0	519	0	0	
12	0	0	0	0	504	566	0	524	0	0	
13	0	0	0	0	519	567	0	531	0	0	
14	0	0	0	0	531	568	0	538	0	0	
15	0	0	0	0	538	567	0	545	0	0	
0	0	0	0	0	542	566	0	551	0	0	
1	0	0	0	0	543	564	0	556	0	0	
2	0	0	0	0	540	562	0	560	0	0	
3	0	0	0	0	534	560	0	562	0	0	
4	0	0	0	0	527	560	0	561	0	0	
5	0	0	0	0	521	561	0	560	0	0	
6	0	0	0	0	517	563	0	556	0	0	
7	0	0	0	0	516	567	0	552	0	0	
8	0	0	0	0	516	571	0	548	0	0	
9	0	0	0	0	519	576	0	543	0	0	
10	0	0	0	0	523	582	0	540	0	0	
11	0	0	0	0	529	589	0	538	0	0	
12	0	0	0	0	537	596	0	537	0	0	
13	0	0	0	0	546	604	0	537	0	0	
14	0	0	0	0	558	612	0	539	0	0	
15	0	0	0	0	572	620	0	541	0	0	
0	0	0	0	0	589	627	0	544	0	0	
1	0	0	0	0	607	633	0	547	0	0	
2	0	0	0	0	626	636	0	550	0	0	
3	0	0	0	0	643	634	0	552	0	0	
4	0	0	0	0	658	628	0	553	0	0	
5	0	0	0	0	667	618	0	553	0	0	
6	0	0	0	0	670	604	0	552	0	0	
7	0	0	0	0	665	588	0	550	0	0	
8	0	0	0	0	652	570	0	548	0	0	
9	0	0	0	0	633	553	0	545	0	0	
10	0	0	0	0	608	538	0	543	0	0	
11	0	0	0	0	579	525	0	542	0	0	
12	0	0	0	0	548	516	0	541	0	0	
13	0	0	0	0	515	511	0	540	0	0	
14	0	0	0	0	486	511	0	542	0	0	
15	0	0	0	0	459	513	0	543	0	0	
0	0	0	0	0	438	519	0	547	0	0	
1	0	0	0	0	424	527	0	551	0	0	
2	0	0	0	0	416	535	0	556	0	0	
3	0	0	0	0	415	543	0	561	0	0	
4	0	0	0	0	421	553	0	568	0	0	
5	0	0	0	0	432	563	0	572	0	0	
6	0	0	0	0	448	573	0	577	0	0	
7	0	0	0	0	470	584	0	579	0	0	
8	0	0	0	0	498	596	0	579	0	0	
9	0	0	0	0	530	607	0	578	0	0	
10	0	0	0	0	563	618	0	573	0	0	
11	0	0	0	0	596	627	0	567	0	0	
12	0	0	0	0	624	633	0	558	0	0	
13	0	0	0	0	648	637	0	549	0	0	
14	0	0	0	0	664	638	0	540	0	0	
15	0	0	0	0	674	635	0	531	0	0	
0	0	0	0	0	675	628	0	523	0	0	
1	0	0	0	0	670	619	0	517	0	0	
2	0	0	0	0	658	606	0	512	0	0	
3	0	0	0	0	640	592	0	511	0	0	
4	0	0	0	0	620	577	0	510	0	0	
5	0	0	0	0	598	563	0	513	0	0	
6	0	0	0	0	578	551	0	517	0	0	
7	0	0	0	0	561	542	0	523	0	0	
8	0	0	0	0	550	536	0	531	0	0	
9	0	0	0	0	543	534	0	540	0	0	
10	0	0	0	0	541	536	0	549	0	0	
11	0	0	0	0	542	540	0	558	0	0	
12	0	0	0	0	544	546	0	564	0	0	
13	0	0	0	0	546	552	0	568	0	0	
14	0	0	0	0	546	557	0	570	0	0	
15	0	0	0	0	543	559	0	568	0	0	
0	0	0	0	0	537	560	0	562	0	0	
1	0	0	0	0	527	558	0	554	0	0	
2	0	0	0	0	513	554	0	543	0	0	
3	0	0	0	0	495	548	0	532	0	0	
4	0	0	0	0	473	541	0	521	0	0	
5	0	0	0	0	452	535	0	511	0	0	
6	0	0	0	0	433	531	0	503	0	0	
7	0	0	0	0	420	530	0	500	0	0	
8	0	0	0	0	415	534	0	500	0	0	
9	0	0	0	0	419	543	0	505	0	0	
10	0	0	0	0	434	556	0	513	0	0	
11	0	0	0	0	457	572	0	524	0	0	
12	0	0	0	0	487	588	0	536	0	0	
13	0	0	0	0	521	604	0	549	0	0	
14	0	0	0	0	556	616	0	560	0	0	
15	0	0	0	0	590	626	0	569	0	0	
0	0	0	0	0	620	632	0	575	0	0	
1	0	0	0	0	643	633	0	578	0	0	
2	0	0	0	0	655	629	0	577	0	0	
3	0	0	0	0	658	620	0	573	0	0	
4	0	0	0	0	652	607	0	566	0	0	
5	0	0	0	0	639	591	0	557	0	0	
6	0	0	0	0	624	575	0	546	0	0	
7	0	0	0	0	606	558	0	534	0	0	
8	0	0	0	0	588	544	0	524	0	0	
9	0	0	0	0	572	535	0	514	0	0	
10	0	0	0	0	559	529	0	508	0	0	
11	0	0	0	0	550	528	0	504	0	0	
12	0	0	0	0	546	533	0	504	0	0	
13	0	0	0	0	546	542	0	506	0	0	
14	0	0	0	0	551	555	0	512	0	0	
15	0	0	0	0	560	569	0	518	0	0	
0	0	0	0	0	570	583	0	526	0	0	
1	0	0	0	0	579	595	0	533	0	0	
2	0	0	0	0	587	604	0	539	0	0	
3	0	0	0	0	591	609	0	542	0	0	
4	0	0	0	0	592	609	0	543	0	0	
5	0	0	0	0	588	604	0	540	0	0	
6	0	0	0	0	579	592	0	534	0	0	
7	0	0	0	0	564	575	0	523	0	0	
8	0	0	0	0	546	553	0	510	0	0	
9	0	0	0	0	523	528	0	494	0	0	
10	0	0	0	0	499	502	0	476	0	0	
11	0	0	0	0	474	475	0	458	0	0	
12	0	0	0	0	451	450	0	441	0	0	
13	0	0	0	0	432	429	0	424	0	0	
14	0	0	0	0	414	412	0	409	0	0	
15	0	0	0	0	397	399	0	396	0	0	
0	0	0	0	0	378	390	0	385	0	0	
1	0	0	0	0	358	383	0	375	0	0	
2	0	0	0	0	337	380	0	366	0	0	
3	0	0	0	0	318	377	0	359	0	0	
4	0	0	0	0	302	376	0	353	0	0	
5	0	0	0	0	291	377	0	350	0	0	
6	0	0	0	0	287	380	0	348	0	0	
7	0	0	0	0	292	385	0	347	0	0	
8	0	0	0	0	305	395	0	346	0	0	
9	0	0	0	0	324	407	0	347	0	0	
10	0	0	0	0	347	422	0	348	0	0	
11	0	0	0	0	371	438	0	350	0	0	
12	0	0	0	0	397	454	0	352	0	0	
13	0	0	0	0	422	470	0	355	0	0	
14	0	0	0	0	444	485	0	359	0	0	
15	0	0	0	0	465	497	0	364	0	0	
0	0	0	0	0	485	508	0	371	0	0	
1	0	0	0	0	502	515	0	380	0	0	
2	0	0	0	0	516	520	0	391	0	0	
3	0	0	0	0	528	522	0	405	0	0	
4	0	0	0	0	537	522	0	420	0	0	
5	0	0	0	0	542	520	0	438	0	0	
6	0	0	0	0	544	519	0	457	0	0	
7	0	0	0	0	545	517	0	476	0	0	
8	0	0	0	0	545	516	0	495	0	0	
9	0	0	0	0	547	517	0	513	0	0	
10	0	0	0	0	552	520	0	529	0	0	
11	0	0	0	0	561	524	0	543	0	0	
12	0	0	0	0	574	530	0	553	0	0	
13	0	0	0	0	589	536	0	560	0	0	
14	0	0	0	0	605	542	0	563	0	0	
15	0	0	0	0	621	547	0	563	0	0	
0	0	0	0	0	633	552	0	560	0	0	
1	0	0	0	0	641	556	0	556	0	0	
2	0	0	0	0	642	558	0	550	0	0	
3	0	0	0	0	638	559	0	544	0	0	
4	0	0	0	0	630	559	0	539	0	0	
5	0	0	0	0	618	559	0	534	0	0	
6	0	0	0	0	604	559	0	531	0	0	
7	0	0	0	0	589	560	0	529	0	0	
8	0	0	0	0	573	560	0	530	0	0	
9	0	0	0	0	556	562	0	531	0	0	
10	0	0	0	0	540	564	0	536	0	0	
11	0	0	0	0	525	568	0	540	0	0	
12	0	0	0	0	513	570	0	544	0	0	
13	0	0	0	0	505	573	0	549	0	0	
14	0	0	0	0	501	575	0	553	0	0	
15	0	0	0	0	500	577	0	556	0	0	
0	0	0	0	0	503	580	0	557	0	0	
1	0	0	0	0	508	583	0	556	0	0	
2	0	0	0	0	516	583	0	554	0	0	
3	0	0	0	0	525	583	0	549	0	0	
4	0	0	0	0	535	582	0	542	0	0	
5	0	0	0	0	545	579	0	533	0	0	
6	0	0	0	0	555	574	0	524	0	0	
7	0	0	0	0	564	568	0	515	0	0	
8	0	0	0	0	572	561	0	507	0	0	
9	0	0	0	0	579	555	0	500	0	0	
10	0	0	0	0	583	551	0	496	0	0	
11	0	0	0	0	583	547	0	496	0	0	
12	0	0	0	0	578	545	0	497	0	0	
13	0	0	0	0	569	545	0	501	0	0	
14	0	0	0	0	558	546	0	508	0	0	
15	0	0	0	0	543	547	0	516	0	0	
0	0	0	0	0	529	548	0	524	0	0	
1	0	0	0	0	515	548	0	532	0	0	
2	0	0	0	0	504	549	0	541	0	0	
3	0	0	0	0	496	548	0	547	0	0	
4	0	0	0	0	492	547	0	553	0	0	
5	0	0	0	0	490	544	0	556	0	0	
6	0	0	0	0	491	542	0	557	0	0	
7	0	0	0	0	493	540	0	557	0	0	
8	0	0	0	0	496	537	0	554	0	0	
9	0	0	0	0	501	536	0	550	0	0	
10	0	0	0	0	507	537	0	546	0	0	
11	0	0	0	0	515	540	0	542	0	0	
12	0	0	0	0	525	545	0	539	0	0	
13	0	0	0	0	536	553	0	537	0	0	
14	0	0	0	0	549	563	0	536	0	0	
15	0	0	0	0	561	574	0	537	0	0	
0	0	0	0	0	574	587	0	539	0	0	
1	0	0	0	0	583	600	0	542	0	0	
2	0	0	0	0	591	612	0	545	0	0	
3	0	0	0	0	595	622	0	548	0	0	
4	0	0	0	0	596	629	0	551	0	0	
5	0	0	0	0	595	633	0	552	0	0	
6	0	0	0	0	591	635	0	553	0	0	
7	0	0	0	0	587	632	0	553	0	0	
8	0	0	0	0	582	626	0	551	0	0	
9	0	0	0	0	576	616	0	548	0	0	
10	0	0	0	0	570	604	0	545	0	0	
11	0	0	0	0	567	589	0	541	0	0	
12	0	0	0	0	565	574	0	537	0	0	
13	0	0	0	0	565	558	0	534	0	0	
14	0	0	0	0	566	546	0	531	0	0	
15	0	0	0	0	568	536	0	529	0	0	
0	0	0	0	0	571	531	0	528	0	0	
1	0	0	0	0	575	531	0	528	0	0	
2	0	0	0	0	580	535	0	529	0	0	
3	0	0	0	0	586	544	0	531	0	0	
4	0	0	0	0	593	556	0	534	0	0	
5	0	0	0	0	601	571	0	537	0	0	
6	0	0	0	0	607	586	0	540	0	0	
7	0	0	0	0	613	600	0	542	0	0	
8	0	0	0	0	615	610	0	544	0	0	
9	0	0	0	0	616	616	0	545	0	0	
10	0	0	0	0	615	618	0	545	0	0	
11	0	0	0	0	614	616	0	545	0	0	
12	0	0	0	0	613	612	0	545	0	0	
13	0	0	0	0	612	606	0	545	0	0	
14	0	0	0	0	612	599	0	544	0	0	
15	0	0	0	0	612	593	0	544	0	0	
0	0	0	0	0	613	588	0	543	0	0	
1	0	0	0	0	616	584	0	542	0	0	
2	0	0	0	0	619	582	0	541	0	0	
3	0	0	0	0	623	580	0	540	0	0	
4	0	0	0	0	628	580	0	538	0	0	
5	0	0	0	0	633	582	0	536	0	0	
6	0	0	0	0	639	584	0	534	0	0	
7	0	0	0	0	644	588	0	533	0	0	
8	0	0	0	0	647	591	0	531	0	0	
9	0	0	0	0	646	595	0	531	0	0	
10	0	0	0	0	640	599	0	531	0	0	
11	0	0	0	0	628	601	0	532	0	0	
12	0	0	0	0	608	602	0	534	0	0	
13	0	0	0	0	581	599	0	537	0	0	
14	0	0	0	0	547	592	0	541	0	0	
15	0	0	0	0	507	582	0	544	0	0	
0	0	0	0	0	467	568	0	547	0	0	
1	0	0	0	0	430	550	0	548	0	0	
2	0	0	0	0	401	530	0	548	0	0	
3	0	0	0	0	385	510	0	546	0	0	
4	0	0	0	0	382	490	0	542	0	0	
5	0	0	0	0	392	473	0	536	0	0	
6	0	0	0	0	415	460	0	530	0	0	
7	0	0	0	0	447	451	0	524	0	0	
8	0	0	0	0	485	450	0	518	0	0	
9	0	0	0	0	527	455	0	512	0	0	
10	0	0	0	0	569	469	0	507	0	0	
11	0	0	0	0	609	488	0	504	0	0	
12	0	0	0	0	644	511	0	503	0	0	
13	0	0	0	0	674	537	0	503	0	0	
14	0	0	0	0	699	563	0	504	0	0	
15	0	0	0	0	718	587	0	506	0	0	
0	0	0	0	0	730	608	0	509	0	0	
1	0	0	0	0	736	628	0	512	0	0	
2	0	0	0	0	734	644	0	515	0	0	
3	0	0	0	0	725	659	0	518	0	0	
4	0	0	0	0	709	671	0	520	0	0	
5	0	0	0	0	684	679	0	522	0	0	
6	0	0	0	0	653	683	0	521	0	0	
7	0	0	0	0	618	682	0	520	0	0	
8	0	0	0	0	581	676	0	517	0	0	
9	0	0	0	0	545	664	0	513	0	0	
10	0	0	0	0	512	648	0	511	0	0	
11	0	0	0	0	486	629	0	508	0	0	
12	0	0	0	0	464	607	0	508	0	0	
13	0	0	0	0	449	584	0	508	0	0	
14	0	0	0	0	442	562	0	510	0	0	
15	0	0	0	0	442	543	0	513	0	0	
0	0	0	0	0	449	527	0	517	0	0	
1	0	0	0	0	463	516	0	521	0	0	
2	0	0	0	0	480	509	0	524	0	0	
3	0	0	0	0	499	506	0	526	0	0	
4	0	0	0	0	518	507	0	526	0	0	
5	0	0	0	0	536	509	0	524	0	0	
6	0	0	0	0	551	514	0	520	0	0	
7	0	0	0	0	562	519	0	515	0	0	
8	0	0	0	0	570	525	0	508	0	0	
9	0	0	0	0	574	531	0	501	0	0	
10	0	0	0	0	575	535	0	494	0	0	
11	0	0	0	0	572	537	0	487	0	0	
12	0	0	0	0	568	538	0	481	0	0	
13	0	0	0	0	563	537	0	477	0	0	
14	0	0	0	0	558	534	0	473	0	0	
15	0	0	0	0	552	529	0	472	0	0	
0	0	0	0	0	545	521	0	470	0	0	
1	0	0	0	0	537	514	0	470	0	0	
2	0	0	0	0	526	504	0	471	0	0	
3	0	0	0	0	512	495	0	472	0	0	
4	0	0	0	0	498	487	0	475	0	0	
5	0	0	0	0	483	481	0	479	0	0	
6	0	0	0	0	471	478	0	484	0	0	
7	0	0	0	0	462	478	0	491	0	0	
8	0	0	0	0	459	480	0	497	0	0	
9	0	0	0	0	461	486	0	505	0	0	
10	0	0	0	0	470	495	0	513	0	0	
11	0	0	0	0	484	505	0	519	0	0	
12	0	0	0	0	502	516	0	526	0	0	
13	0	0	0	0	520	527	0	530	0	0	
14	0	0	0	0	539	537	0	532	0	0	
15	0	0	0	0	555	546	0	534	0	0	
0	0	0	0	0	570	554	0	533	0	0	
1	0	0	0	0	582	560	0	532	0	0	
2	0	0	0	0	591	564	0	530	0	0	
3	0	0	0	0	599	567	0	527	0	0	
4	0	0	0	0	603	568	0	526	0	0	
5	0	0	0	0	605	569	0	523	0	0	
6	0	0	0	0	604	570	0	522	0	0	
7	0	0	0	0	601	570	0	522	0	0	
8	0	0	0	0	594	570	0	523	0	0	
9	0	0	0	0	585	570	0	525	0	0	
10	0	0	0	0	575	571	0	527	0	0	
11	0	0	0	0	563	572	0	529	0	0	
12	0	0	0	0	552	574	0	532	0	0	
13	0	0	0	0	542	576	0	533	0	0	
14	0	0	0	0	532	577	0	534	0	0	
15	0	0	0	0	525	580	0	534	0	0	
0	0	0	0	0	520	583	0	531	0	0	
1	0	0	0	0	519	585	0	529	0	0	
2	0	0	0	0	520	587	0	525	0	0	
3	0	0	0	0	524	589	0	520	0	0	
4	0	0	0	0	531	591	0	515	0	0	
5	0	0	0	0	540	593	0	509	0	0	
6	0	0	0	0	552	594	0	504	0	0	
7	0	0	0	0	566	595	0	499	0	0	
8	0	0	0	0	580	596	0	496	0	0	
9	0	0	0	0	594	598	0	493	0	0	
10	0	0	0	0	608	599	0	492	0	0	
11	0	0	0	0	620	600	0	492	0	0	
12	0	0	0	0	630	601	0	494	0	0	
13	0	0	0	0	636	603	0	496	0	0	
14	0	0	0	0	639	604	0	499	0	0	
15	0	0	0	0	638	605	0	503	0	0	
0	0	0	0	0	631	606	0	505	0	0	
1	0	0	0	0	620	605	0	508	0	0	
2	0	0	0	0	604	603	0	510	0	0	
3	0	0	0	0	583	600	0	510	0	0	
4	0	0	0	0	559	595	0	509	0	0	
5	0	0	0	0	532	588	0	508	0	0	
6	0	0	0	0	507	582	0	506	0	0	
7	0	0	0	0	487	575	0	504	0	0	
8	0	0	0	0	473	571	0	502	0	0	
9	0	0	0	0	468	567	0	501	0	0	
10	0	0	0	0	472	564	0	500	0	0	
11	0	0	0	0	482	561	0	500	0	0	
12	0	0	0	0	498	558	0	500	0	0	
13	0	0	0	0	519	557	0	500	0	0	
14	0	0	0	0	543	555	0	501	0	0	
15	0	0	0	0	567	554	0	502	0	0	
0	0	0	0	0	590	553	0	503	0	0	
1	0	0	0	0	610	553	0	504	0	0	
2	0	0	0	0	627	554	0	506	0	0	
3	0	0	0	0	639	556	0	508	0	0	
4	0	0	0	0	646	558	0	509	0	0	
5	0	0	0	0	647	560	0	510	0	0	
6	0	0	0	0	642	562	0	510	0	0	
7	0	0	0	0	632	563	0	508	0	0	
8	0	0	0	0	619	563	0	505	0	0	
9	0	0	0	0	601	560	0	500	0	0	
10	0	0	0	0	583	557	0	494	0	0	
11	0	0	0	0	562	551	0	486	0	0	
12	0	0	0	0	543	543	0	478	0	0	
13	0	0	0	0	525	535	0	470	0	0	
14	0	0	0	0	510	526	0	462	0	0	
15	0	0	0	0	499	517	0	456	0	0	
0	0	0	0	0	491	510	0	452	0	0	
1	0	0	0	0	488	503	0	452	0	0	
2	0	0	0	0	489	500	0	454	0	0	
3	0	0	0	0	497	499	0	459	0	0	
4	0	0	0	0	510	502	0	467	0	0	
5	0	0	0	0	527	508	0	477	0	0	
6	0	0	0	0	548	517	0	489	0	0	
7	0	0	0	0	567	527	0	503	0	0	
8	0	0	0	0	584	540	0	516	0	0	
9	0	0	0	0	595	552	0	527	0	0	
10	0	0	0	0	602	563	0	538	0	0	
11	0	0	0	0	602	573	0	545	0	0	
12	0	0	0	0	597	582	0	550	0	0	
13	0	0	0	0	588	588	0	552	0	0	
14	0	0	0	0	574	591	0	551	0	0	
15	0	0	0	0	557	591	0	547	0	0	
0	0	0	0	0	540	592	0	540	0	0	
1	0	0	0	0	523	591	0	531	0	0	
2	0	0	0	0	508	591	0	523	0	0	
3	0	0	0	0	495	591	0	513	0	0	
4	0	0	0	0	487	590	0	504	0	0	
5	0	0	0	0	482	589	0	496	0	0	
6	0	0	0	0	483	588	0	489	0	0	
7	0	0	0	0	489	586	0	484	0	0	
8	0	0	0	0	500	584	0	482	0	0	
9	0	0	0	0	514	581	0	482	0	0	
10	0	0	0	0	532	578	0	484	0	0	
11	0	0	0	0	551	575	0	489	0	0	
12	0	0	0	0	569	573	0	496	0	0	
13	0	0	0	0	586	572	0	504	0	0	
14	0	0	0	0	601	572	0	513	0	0	
15	0	0	0	0	614	574	0	522	0	0	
0	0	0	0	0	624	577	0	531	0	0	
1	0	0	0	0	630	580	0	537	0	0	
2	0	0	0	0	633	583	0	542	0	0	
3	0	0	0	0	633	587	0	545	0	0	
4	0	0	0	0	629	588	0	544	0	0	
5	0	0	0	0	623	591	0	542	0	0	
6	0	0	0	0	614	592	0	539	0	0	
7	0	0	0	0	603	593	0	534	0	0	
8	0	0	0	0	591	593	0	528	0	0	
9	0	0	0	0	579	593	0	522	0	0	
10	0	0	0	0	568	594	0	515	0	0	
11	0	0	0	0	560	593	0	510	0	0	
12	0	0	0	0	554	591	0	504	0	0	
13	0	0	0	0	551	589	0	500	0	0	
14	0	0	0	0	550	586	0	496	0	0	
15	0	0	0	0	550	582	0	494	0	0	
0	0	0	0	0	552	577	0	492	0	0	
1	0	0	0	0	556	571	0	491	0	0	
2	0	0	0	0	559	563	0	491	0	0	
3	0	0	0	0	560	555	0	490	0	0	
4	0	0	0	0	559	545	0	489	0	0	
5	0	0	0	0	557	535	0	489	0	0	
6	0	0	0	0	553	524	0	489	0	0	
7	0	0	0	0	548	515	0	488	0	0	
8	0	0	0	0	542	508	0	488	0	0	
9	0	0	0	0	535	502	0	487	0	0	
10	0	0	0	0	527	499	0	487	0	0	
11	0	0	0	0	519	498	0	488	0	0	
12	0	0	0	0	510	500	0	491	0	0	
13	0	0	0	0	500	504	0	493	0	0	
14	0	0	0	0	494	510	0	498	0	0	
15	0	0	0	0	490	520	0	504	0	0	
0	0	0	0	0	490	533	0	512	0	0	
1	0	0	0	0	493	547	0	520	0	0	
2	0	0	0	0	499	563	0	530	0	0	
3	0	0	0	0	506	579	0	539	0	0	
4	0	0	0	0	512	595	0	547	0	0	
5	0	0	0	0	517	607	0	555	0	0	
6	0	0	0	0	520	617	0	560	0	0	
7	0	0	0	0	523	624	0	562	0	0	
8	0	0	0	0	527	628	0	563	0	0	
9	0	0	0	0	531	630	0	560	0	0	
10	0	0	0	0	538	629	0	556	0	0	
11	0	0	0	0	546	626	0	550	0	0	
12	0	0	0	0	555	621	0	543	0	0	
13	0	0	0	0	566	615	0	534	0	0	
14	0	0	0	0	577	610	0	525	0	0	
15	0	0	0	0	589	605	0	516	0	0	
0	0	0	0	0	600	601	0	508	0	0	
1	0	0	0	0	610	598	0	500	0	0	
2	0	0	0	0	619	595	0	494	0	0	
3	0	0	0	0	625	593	0	490	0	0	
4	0	0	0	0	630	591	0	487	0	0	
5	0	0	0	0	632	591	0	487	0	0	
6	0	0	0	0	633	590	0	487	0	0	
7	0	0	0	0	632	591	0	488	0	0	
8	0	0	0	0	628	591	0	491	0	0	
9	0	0	0	0	623	591	0	494	0	0	
10	0	0	0	0	615	590	0	497	0	0	
11	0	0	0	0	608	589	0	499	0	0	
12	0	0	0	0	600	588	0	502	0	0	
13	0	0	0	0	592	586	0	504	0	0	
14	0	0	0	0	584	584	0	504	0	0	
15	0	0	0	0	577	582	0	505	0	0	
0	0	0	0	0	569	577	0	504	0	0	
1	0	0	0	0	561	574	0	503	0	0	
2	0	0	0	0	553	569	0	502	0	0	
3	0	0	0	0	546	565	0	500	0	0	
4	0	0	0	0	540	562	0	500	0	0	
5	0	0	0	0	533	560	0	498	0	0	
6	0	0	0	0	528	559	0	498	0	0	
7	0	0	0	0	523	560	0	497	0	0	
8	0	0	0	0	517	563	0	497	0	0	
9	0	0	0	0	511	567	0	496	0	0	
10	0	0	0	0	505	571	0	495	0	0	
11	0	0	0	0	501	577	0	493	0	0	
12	0	0	0	0	497	582	0	491	0	0	
13	0	0	0	0	495	586	0	489	0	0	
14	0	0	0	0	494	588	0	486	0	0	
15	0	0	0	0	495	587	0	483	0	0	
0	0	0	0	0	498	583	0	479	0	0	
1	0	0	0	0	503	576	0	475	0	0	
2	0	0	0	0	512	566	0	471	0	0	
3	0	0	0	0	524	555	0	467	0	0	
4	0	0	0	0	538	543	0	463	0	0	
5	0	0	0	0	551	532	0	460	0	0	
6	0	0	0	0	563	521	0	456	0	0	
7	0	0	0	0	573	513	0	454	0	0	
8	0	0	0	0	579	507	0	451	0	0	
9	0	0	0	0	582	505	0	449	0	0	
10	0	0	0	0	583	507	0	449	0	0	
11	0	0	0	0	583	512	0	450	0	0	
12	0	0	0	0	581	521	0	451	0	0	
13	0	0	0	0	581	534	0	455	0	0	
14	0	0	0	0	581	547	0	459	0	0	
15	0	0	0	0	581	561	0	463	0	0	
0	0	0	0	0	583	574	0	467	0	0	
1	0	0	0	0	584	586	0	472	0	0	
2	0	0	0	0	585	595	0	475	0	0	
3	0	0	0	0	584	600	0	476	0	0	
4	0	0	0	0	580	601	0	477	0	0	
5	0	0	0	0	573	597	0	476	0	0	
6	0	0	0	0	563	589	0	473	0	0	
7	0	0	0	0	551	578	0	469	0	0	
8	0	0	0	0	539	566	0	463	0	0	
9	0	0	0	0	528	552	0	456	0	0	
10	0	0	0	0	521	541	0	450	0	0	
11	0	0	0	0	517	531	0	444	0	0	
12	0	0	0	0	518	525	0	439	0	0	
13	0	0	0	0	522	521	0	435	0	0	
14	0	0	0	0	531	523	0	433	0	0	
15	0	0	0	0	542	527	0	433	0	0	
0	0	0	0	0	555	534	0	435	0	0	
1	0	0	0	0	568	543	0	439	0	0	
2	0	0	0	0	580	553	0	444	0	0	
3	0	0	0	0	588	564	0	450	0	0	
4	0	0	0	0	591	575	0	456	0	0	
5	0	0	0	0	587	583	0	461	0	0	
6	0	0	0	0	576	590	0	465	0	0	
7	0	0	0	0	560	595	0	466	0	0	
8	0	0	0	0	542	598	0	465	0	0	
9	0	0	0	0	523	595	0	460	0	0	
10	0	0	0	0	505	591	0	454	0	0	
11	0	0	0	0	492	582	0	444	0	0	
12	0	0	0	0	484	570	0	433	0	0	
13	0	0	0	0	483	557	0	420	0	0	
14	0	0	0	0	486	542	0	408	0	0	
15	0	0	0	0	494	527	0	396	0	0	
0	0	0	0	0	504	512	0	387	0	0	
1	0	0	0	0	515	499	0	377	0	0	
2	0	0	0	0	526	490	0	372	0	0	
3	0	0	0	0	536	484	0	369	0	0	
4	0	0	0	0	543	483	0	371	0	0	
5	0	0	0	0	549	487	0	375	0	0	
6	0	0	0	0	551	494	0	383	0	0	
7	0	0	0	0	552	504	0	392	0	0	
8	0	0	0	0	551	515	0	403	0	0	
9	0	0	0	0	548	527	0	415	0	0	
10	0	0	0	0	543	537	0	425	0	0	
11	0	0	0	0	537	545	0	434	0	0	
12	0	0	0	0	531	551	0	440	0	0	
13	0	0	0	0	526	554	0	444	0	0	
14	0	0	0	0	524	555	0	445	0	0	
15	0	0	0	0	527	554	0	444	0	0	
0	0	0	0	0	533	551	0	441	0	0	
1	0	0	0	0	542	548	0	436	0	0	
2	0	0	0	0	554	544	0	430	0	0	
3	0	0	0	0	567	540	0	422	0	0	
4	0	0	0	0	580	535	0	414	0	0	
5	0	0	0	0	592	531	0	406	0	0	
6	0	0	0	0	603	528	0	399	0	0	
7	0	0	0	0	612	526	0	394	0	0	
8	0	0	0	0	620	524	0	390	0	0	
9	0	0	0	0	626	524	0	388	0	0	
10	0	0	0	0	630	525	0	387	0	0	
11	0	0	0	0	632	527	0	388	0	0	
12	0	0	0	0	632	530	0	390	0	0	
13	0	0	0	0	629	533	0	392	0	0	
14	0	0	0	0	624	537	0	395	0	0	
15	0	0	0	0	617	542	0	399	0	0	
0	0	0	0	0	610	547	0	402	0	0	
1	0	0	0	0	602	552	0	406	0	0	
2	0	0	0	0	594	558	0	408	0	0	
3	0	0	0	0	587	561	0	410	0	0	
4	0	0	0	0	579	563	0	411	0	0	
5	0	0	0	0	572	564	0	410	0	0	
6	0	0	0	0	565	563	0	408	0	0	
7	0	0	0	0	557	559	0	405	0	0	
8	0	0	0	0	549	552	0	400	0	0	
9	0	0	0	0	541	544	0	394	0	0	
10	0	0	0	0	532	535	0	387	0	0	
11	0	0	0	0	524	524	0	380	0	0	
12	0	0	0	0	516	514	0	373	0	0	
13	0	0	0	0	510	504	0	367	0	0	
14	0	0	0	0	504	496	0	360	0	0	
15	0	0	0	0	501	487	0	354	0	0	
0	0	0	0	0	499	480	0	349	0	0	
1	0	0	0	0	499	475	0	345	0	0	
2	0	0	0	0	502	471	0	342	0	0	
3	0	0	0	0	505	468	0	340	0	0	
4	0	0	0	0	511	468	0	339	0	0	
5	0	0	0	0	519	470	0	339	0	0	
6	0	0	0	0	529	475	0	339	0	0	
7	0	0	0	0	539	481	0	341	0	0	
8	0	0	0	0	550	489	0	344	0	0	
9	0	0	0	0	560	499	0	347	0	0	
10	0	0	0	0	570	510	0	351	0	0	
11	0	0	0	0	579	521	0	356	0	0	
12	0	0	0	0	586	534	0	362	0	0	
13	0	0	0	0	592	547	0	369	0	0	
14	0	0	0	0	598	559	0	376	0	0	
15	0	0	0	0	600	570	0	383	0	0	
0	0	0	0	0	601	579	0	390	0	0	
1	0	0	0	0	598	585	0	395	0	0	
2	0	0	0	0	591	588	0	398	0	0	
3	0	0	0	0	579	586	0	398	0	0	
4	0	0	0	0	561	581	0	397	0	0	
5	0	0	0	0	540	572	0	393	0	0	
6	0	0	0	0	516	561	0	388	0	0	
7	0	0	0	0	494	548	0	381	0	0	
8	0	0	0	0	476	536	0	374	0	0	
9	0	0	0	0	465	523	0	367	0	0	
10	0	0	0	0	461	510	0	360	0	0	
11	0	0	0	0	463	498	0	353	0	0	
12	0	0	0	0	472	487	0	347	0	0	
13	0	0	0	0	486	477	0	340	0	0	
14	0	0	0	0	505	470	0	335	0	0	
15	0	0	0	0	527	464	0	329	0	0	
0	0	0	0	0	551	461	0	324	0	0	
1	0	0	0	0	576	461	0	321	0	0	
2	0	0	0	0	604	463	0	317	0	0	
3	0	0	0	0	632	468	0	316	0	0	
4	0	0	0	0	660	475	0	315	0	0	
5	0	0	0	0	686	484	0	316	0	0	
6	0	0	0	0	705	493	0	319	0	0	
7	0	0	0	0	716	502	0	321	0	0	
8	0	0	0	0	716	510	0	325	0	0	
9	0	0	0	0	706	517	0	329	0	0	
10	0	0	0	0	686	523	0	333	0	0	
11	0	0	0	0	657	527	0	336	0	0	
12	0	0	0	0	623	531	0	338	0	0	
13	0	0	0	0	587	533	0	340	0	0	
14	0	0	0	0	552	534	0	340	0	0	
15	0	0	0	0	520	534	0	340	0	0	
0	0	0	0	0	494	534	0	338	0	0	
1	0	0	0	0	475	532	0	335	0	0	
2	0	0	0	0	463	529	0	333	0	0	
3	0	0	0	0	457	526	0	330	0	0	
4	0	0	0	0	459	522	0	328	0	0	
5	0	0	0	0	465	517	0	326	0	0	
6	0	0	0	0	476	511	0	325	0	0	
7	0	0	0	0	491	504	0	325	0	0	
8	0	0	0	0	508	498	0	327	0	0	
9	0	0	0	0	525	493	0	329	0	0	
10	0	0	0	0	542	490	0	333	0	0	
11	0	0	0	0	558	488	0	338	0	0	
12	0	0	0	0	571	487	0	343	0	0	
13	0	0	0	0	580	488	0	347	0	0	
14	0	0	0	0	585	489	0	351	0	0	
15	0	0	0	0	587	491	0	353	0	0	
0	0	0	0	0	585	492	0	353	0	0	
1	0	0	0	0	577	491	0	350	0	0	
2	0	0	0	0	567	487	0	345	0	0	
3	0	0	0	0	551	481	0	338	0	0	
4	0	0	0	0	535	474	0	329	0	0	
5	0	0	0	0	519	465	0	318	0	0	
6	0	0	0	0	503	456	0	308	0	0	
7	0	0	0	0	491	448	0	299	0	0	
8	0	0	0	0	482	440	0	291	0	0	
9	0	0	0	0	478	434	0	284	0	0	
10	0	0	0	0	479	430	0	281	0	0	
11	0	0	0	0	484	429	0	281	0	0	
12	0	0	0	0	493	431	0	284	0	0	
13	0	0	0	0	504	435	0	289	0	0	
14	0	0	0	0	517	442	0	297	0	0	
15	0	0	0	0	530	451	0	307	0	0	
0	0	0	0	0	543	462	0	318	0	0	
1	0	0	0	0	555	473	0	330	0	0	
2	0	0	0	0	566	484	0	341	0	0	
3	0	0	0	0	573	494	0	351	0	0	
4	0	0	0	0	578	501	0	359	0	0	
5	0	0	0	0	579	505	0	363	0	0	
6	0	0	0	0	576	507	0	364	0	0	
7	0	0	0	0	570	505	0	362	0	0	
8	0	0	0	0	560	500	0	357	0	0	
9	0	0	0	0	548	494	0	349	0	0	
10	0	0	0	0	534	485	0	340	0	0	
11	0	0	0	0	519	474	0	329	0	0	
12	0	0	0	0	505	462	0	317	0	0	
13	0	0	0	0	492	451	0	306	0	0	
14	0	0	0	0	484	441	0	297	0	0	
15	0	0	0	0	481	434	0	290	0	0	
0	0	0	0	0	482	430	0	287	0	0	
1	0	0	0	0	487	429	0	286	0	0	
2	0	0	0	0	496	431	0	288	0	0	
3	0	0	0	0	507	434	0	292	0	0	
4	0	0	0	0	519	439	0	297	0	0	
5	0	0	0	0	530	443	0	302	0	0	
6	0	0	0	0	540	446	0	305	0	0	
7	0	0	0	0	548	448	0	308	0	0	
8	0	0	0	0	554	448	0	310	0	0	
9	0	0	0	0	558	448	0	311	0	0	
10	0	0	0	0	560	447	0	311	0	0	
11	0	0	0	0	561	445	0	310	0	0	
12	0	0	0	0	562	444	0	307	0	0	
13	0	0	0	0	563	444	0	304	0	0	
14	0	0	0	0	564	443	0	301	0	0	
15	0	0	0	0	564	443	0	298	0	0	
0	0	0	0	0	565	443	0	294	0	0	
1	0	0	0	0	565	443	0	289	0	0	
2	0	0	0	0	565	444	0	286	0	0	
3	0	0	0	0	566	446	0	284	0	0	
4	0	0	0	0	566	448	0	283	0	0	
5	0	0	0	0	566	452	0	283	0	0	
6	0	0	0	0	566	456	0	284	0	0	
7	0	0	0	0	566	461	0	286	0	0	
8	0	0	0	0	564	466	0	289	0	0	
9	0	0	0	0	563	472	0	292	0	0	
10	0	0	0	0	561	476	0	295	0	0	
11	0	0	0	0	559	479	0	297	0	0	
12	0	0	0	0	557	482	0	299	0	0	
13	0	0	0	0	554	483	0	299	0	0	
14	0	0	0	0	551	482	0	297	0	0	
15	0	0	0	0	548	479	0	294	0	0	
0	0	0	0	0	544	475	0	288	0	0	
1	0	0	0	0	540	470	0	282	0	0	
2	0	0	0	0	534	463	0	275	0	0	
3	0	0	0	0	525	456	0	268	0	0	
4	0	0	0	0	514	450	0	261	0	0	
5	0	0	0	0	502	444	0	255	0	0	
6	0	0	0	0	491	440	0	250	0	0	
7	0	0	0	0	483	435	0	247	0	0	
8	0	0	0	0	481	432	0	245	0	0	
9	0	0	0	0	486	429	0	245	0	0	
10	0	0	0	0	497	428	0	247	0	0	
11	0	0	0	0	514	427	0	248	0	0	
12	0	0	0	0	535	427	0	251	0	0	
13	0	0	0	0	559	427	0	254	0	0	
14	0	0	0	0	580	427	0	255	0	0	
15	0	0	0	0	600	425	0	255	0	0	
0	0	0	0	0	613	423	0	253	0	0	
1	0	0	0	0	619	417	0	249	0	0	
2	0	0	0	0	614	409	0	242	0	0	
3	0	0	0	0	601	397	0	232	0	0	
4	0	0	0	0	578	382	0	220	0	0	
5	0	0	0	0	548	364	0	203	0	0	
6	0	0	0	0	512	344	0	185	0	0	
7	0	0	0	0	474	322	0	164	0	0	
8	0	0	0	0	435	299	0	141	0	0	
9	0	0	0	0	399	276	0	118	0	0	
10	0	0	0	0	367	255	0	96	0	0	
11	0	0	0	0	340	237	0	77	0	0	
12	0	0	0	0	321	223	0	60	0	0	
13	0	0	0	0	310	213	0	47	0	0	
14	0	0	0	0	307	208	0	38	0	0	
15	0	0	0	0	311	209	0	33	0	0	
0	0	0	0	0	322	215	0	33	0	0	
1	0	0	0	0	339	224	0	39	0	0	
2	0	0	0	0	359	238	0	48	0	0	
3	0	0	0	0	382	254	0	60	0	0	
4	0	0	0	0	405	271	0	75	0	0	
5	0	0	0	0	425	288	0	90	0	0	
6	0	0	0	0	441	303	0	104	0	0	
7	0	0	0	0	449	315	0	116	0	0	
8	0	0	0	0	450	322	0	124	0	0	
9	0	0	0	0	444	325	0	129	0	0	
10	0	0	0	0	432	323	0	130	0	0	
11	0	0	0	0	415	318	0	128	0	0	
12	0	0	0	0	398	310	0	124	0	0	
13	0	0	0	0	382	301	0	118	0	0	
14	0	0	0	0	371	292	0	113	0	0	
15	0	0	0	0	365	286	0	109	0	0	
0	0	0	0	0	366	284	0	108	0	0	
1	0	0	0	0	374	285	0	109	0	0	
2	0	0	0	0	388	290	0	114	0	0	
3	0	0	0	0	408	301	0	122	0	0	
4	0	0	0	0	433	314	0	133	0	0	
5	0	0	0	0	460	330	0	146	0	0	
6	0	0	0	0	487	347	0	162	0	0	
7	0	0	0	0	513	366	0	179	0	0	
8	0	0	0	0	538	384	0	196	0	0	
9	0	0	0	0	560	401	0	215	0	0	
10	0	0	0	0	579	419	0	234	0	0	
11	0	0	0	0	595	435	0	252	0	0	
12	0	0	0	0	608	449	0	269	0	0	
13	0	0	0	0	617	463	0	284	0	0	
14	0	0	0	0	623	473	0	296	0	0	
15	0	0	0	0	625	481	0	306	0	0	
0	0	0	0	0	625	487	0	312	0	0	
1	0	0	0	0	622	489	0	315	0	0	
2	0	0	0	0	617	489	0	313	0	0	
3	0	0	0	0	611	485	0	308	0	0	
4	0	0	0	0	603	479	0	300	0	0	
5	0	0	0	0	594	471	0	290	0	0	
6	0	0	0	0	584	461	0	278	0	0	
7	0	0	0	0	575	451	0	265	0	0	
8	0	0	0	0	565	441	0	253	0	0	
9	0	0	0	0	556	430	0	240	0	0	
10	0	0	0	0	546	420	0	231	0	0	
11	0	0	0	0	539	412	0	224	0	0	
12	0	0	0	0	532	406	0	219	0	0	
13	0	0	0	0	527	402	0	217	0	0	
14	0	0	0	0	526	400	0	217	0	0	
15	0	0	0	0	526	399	0	220	0	0	
0	0	0	0	0	529	401	0	224	0	0	
1	0	0	0	0	536	406	0	230	0	0	
2	0	0	0	0	543	411	0	237	0	0	
3	0	0	0	0	551	417	0	244	0	0	
4	0	0	0	0	558	423	0	251	0	0	
5	0	0	0	0	565	430	0	258	0	0	
6	0	0	0	0	572	437	0	264	0	0	
7	0	0	0	0	577	444	0	271	0	0	
8	0	0	0	0	583	452	0	277	0	0	
9	0	0	0	0	590	460	0	283	0	0	
10	0	0	0	0	595	467	0	287	0	0	
11	0	0	0	0	599	473	0	291	0	0	
12	0	0	0	0	601	478	0	294	0	0	
13	0	0	0	0	601	481	0	294	0	0	
14	0	0	0	0	599	482	0	294	0	0	
15	0	0	0	0	595	481	0	292	0	0	
0	0	0	0	0	589	479	0	288	0	0	
1	0	0	0	0	582	475	0	284	0	0	
2	0	0	0	0	574	469	0	279	0	0	
3	0	0	0	0	564	461	0	272	0	0	
4	0	0	0	0	553	451	0	265	0	0	
5	0	0	0	0	541	441	0	257	0	0	
6	0	0	0	0	529	432	0	249	0	0	
7	0	0	0	0	520	423	0	242	0	0	
8	0	0	0	0	514	417	0	236	0	0	
9	0	0	0	0	511	412	0	232	0	0	
10	0	0	0	0	513	411	0	230	0	0	
11	0	0	0	0	518	411	0	230	0	0	
12	0	0	0	0	525	413	0	231	0	0	
13	0	0	0	0	532	417	0	234	0	0	
14	0	0	0	0	541	422	0	238	0	0	
15	0	0	0	0	550	427	0	242	0	0	
0	0	0	0	0	557	432	0	246	0	0	
1	0	0	0	0	564	435	0	250	0	0	
2	0	0	0	0	568	438	0	252	0	0	
3	0	0	0	0	570	439	0	253	0	0	
4	0	0	0	0	570	437	0	254	0	0	
5	0	0	0	0	567	433	0	252	0	0	
6	0	0	0	0	563	427	0	249	0	0	
7	0	0	0	0	560	420	0	247	0	0	
8	0	0	0	0	556	413	0	243	0	0	
9	0	0	0	0	555	407	0	239	0	0	
10	0	0	0	0	556	402	0	236	0	0	
11	0	0	0	0	559	399	0	234	0	0	
12	0	0	0	0	564	398	0	232	0	0	
13	0	0	0	0	571	398	0	233	0	0	
14	0	0	0	0	579	401	0	233	0	0	
15	0	0	0	0	587	405	0	236	0	0	
0	0	0	0	0	595	409	0	239	0	0	
1	0	0	0	0	601	415	0	243	0	0	
2	0	0	0	0	606	421	0	248	0	0	
3	0	0	0	0	608	427	0	252	0	0	
4	0	0	0	0	607	432	0	257	0	0	
5	0	0	0	0	604	436	0	261	0	0	
6	0	0	0	0	599	439	0	263	0	0	
7	0	0	0	0	593	440	0	265	0	0	
8	0	0	0	0	587	441	0	264	0	0	
9	0	0	0	0	582	440	0	262	0	0	
10	0	0	0	0	576	438	0	258	0	0	
11	0	0	0	0	573	434	0	252	0	0	
12	0	0	0	0	569	429	0	246	0	0	
13	0	0	0	0	567	423	0	239	0	0	
14	0	0	0	0	565	417	0	233	0	0	
15	0	0	0	0	565	411	0	227	0	0	
0	0	0	0	0	565	406	0	223	0	0	
1	0	0	0	0	566	402	0	220	0	0	
2	0	0	0	0	569	400	0	220	0	0	
3	0	0	0	0	574	402	0	223	0	0	
4	0	0	0	0	580	405	0	228	0	0	
5	0	0	0	0	588	411	0	235	0	0	
6	0	0	0	0	597	417	0	243	0	0	
7	0	0	0	0	607	425	0	251	0	0	
8	0	0	0	0	615	432	0	259	0	0	
9	0	0	0	0	623	438	0	265	0	0	
10	0	0	0	0	627	442	0	271	0	0	
11	0	0	0	0	629	444	0	274	0	0	
12	0	0	0	0	627	444	0	274	0	0	
13	0	0	0	0	620	441	0	272	0	0	
14	0	0	0	0	608	435	0	268	0	0	
15	0	0	0	0	592	428	0	262	0	0	
0	0	0	0	0	572	420	0	255	0	0	
1	0	0	0	0	551	412	0	247	0	0	
2	0	0	0	0	531	406	0	241	0	0	
3	0	0	0	0	512	402	0	235	0	0	
4	0	0	0	0	497	400	0	231	0	0	
5	0	0	0	0	487	401	0	230	0	0	
6	0	0	0	0	481	405	0	230	0	0	
7	0	0	0	0	481	410	0	233	0	0	
8	0	0	0	0	485	415	0	236	0	0	
9	0	0	0	0	495	420	0	240	0	0	
10	0	0	0	0	508	423	0	243	0	0	
11	0	0	0	0	526	424	0	244	0	0	
12	0	0	0	0	544	422	0	244	0	0	
13	0	0	0	0	562	416	0	240	0	0	
14	0	0	0	0	577	406	0	234	0	0	
15	0	0	0	0	588	394	0	225	0	0	
0	0	0	0	0	595	379	0	215	0	0	
1	0	0	0	0	597	363	0	204	0	0	
2	0	0	0	0	594	347	0	192	0	0	
3	0	0	0	0	588	332	0	182	0	0	
4	0	0	0	0	580	319	0	172	0	0	
5	0	0	0	0	573	311	0	165	0	0	
6	0	0	0	0	567	307	0	161	0	0	
7	0	0	0	0	564	308	0	161	0	0	
8	0	0	0	0	565	314	0	164	0	0	
9	0	0	0	0	571	324	0	172	0	0	
10	0	0	0	0	582	339	0	183	0	0	
11	0	0	0	0	596	357	0	197	0	0	
12	0	0	0	0	612	377	0	214	0	0	
13	0	0	0	0	631	396	0	231	0	0	
14	0	0	0	0	647	414	0	248	0	0	
15	0	0	0	0	661	429	0	264	0	0	
0	0	0	0	0	671	440	0	278	0	0	
1	0	0	0	0	676	446	0	288	0	0	
2	0	0	0	0	675	448	0	294	0	0	
3	0	0	0	0	669	444	0	296	0	0	
4	0	0	0	0	657	437	0	293	0	0	
5	0	0	0	0	641	425	0	287	0	0	
6	0	0	0	0	621	411	0	276	0	0	
7	0	0	0	0	598	393	0	262	0	0	
8	0	0	0	0	573	374	0	245	0	0	
9	0	0	0	0	549	354	0	227	0	0	
10	0	0	0	0	526	335	0	208	0	0	
11	0	0	0	0	506	317	0	190	0	0	
12	0	0	0	0	491	302	0	172	0	0	
13	0	0	0	0	480	290	0	158	0	0	
14	0	0	0	0	474	281	0	145	0	0	
15	0	0	0	0	473	277	0	137	0	0	
0	0	0	0	0	477	276	0	132	0	0	
1	0	0	0	0	483	278	0	132	0	0	
2	0	0	0	0	492	283	0	135	0	0	
3	0	0	0	0	502	289	0	141	0	0	
4	0	0	0	0	513	298	0	150	0	0	
5	0	0	0	0	524	307	0	160	0	0	
6	0	0	0	0	534	316	0	172	0	0	
7	0	0	0	0	543	325	0	185	0	0	
8	0	0	0	0	550	332	0	196	0	0	
9	0	0	0	0	556	337	0	206	0	0	
10	0	0	0	0	559	340	0	213	0	0	
11	0	0	0	0	562	341	0	218	0	0	
12	0	0	0	0	563	340	0	220	0	0	
13	0	0	0	0	563	338	0	220	0	0	
14	0	0	0	0	563	335	0	218	0	0	
15	0	0	0	0	561	333	0	215	0	0	
0	0	0	0	0	559	331	0	211	0	0	
1	0	0	0	0	557	331	0	208	0	0	
2	0	0	0	0	556	332	0	206	0	0	
3	0	0	0	0	555	337	0	205	0	0	
4	0	0	0	0	554	343	0	207	0	0	
5	0	0	0	0	555	351	0	210	0	0	
6	0	0	0	0	557	361	0	215	0	0	
7	0	0	0	0	561	372	0	222	0	0	
8	0	0	0	0	567	384	0	229	0	0	
9	0	0	0	0	574	393	0	237	0	0	
10	0	0	0	0	581	402	0	243	0	0	
11	0	0	0	0	587	407	0	249	0	0	
12	0	0	0	0	591	410	0	251	0	0	
13	0	0	0	0	591	409	0	252	0	0	
14	0	0	0	0	589	405	0	249	0	0	
15	0	0	0	0	583	399	0	245	0	0	
0	0	0	0	0	577	391	0	239	0	0	
1	0	0	0	0	570	382	0	230	0	0	
2	0	0	0	0	563	372	0	221	0	0	
3	0	0	0	0	559	363	0	213	0	0	
4	0	0	0	0	556	354	0	205	0	0	
5	0	0	0	0	556	345	0	198	0	0	
6	0	0	0	0	558	338	0	192	0	0	
7	0	0	0	0	562	333	0	188	0	0	
8	0	0	0	0	567	329	0	186	0	0	
9	0	0	0	0	572	327	0	184	0	0	
10	0	0	0	0	575	326	0	184	0	0	
11	0	0	0	0	577	324	0	184	0	0	
12	0	0	0	0	576	323	0	184	0	0	
13	0	0	0	0	573	322	0	184	0	0	
14	0	0	0	0	567	319	0	182	0	0	
15	0	0	0	0	559	317	0	180	0	0	
0	0	0	0	0	549	313	0	176	0	0	
1	0	0	0	0	538	309	0	171	0	0	
2	0	0	0	0	527	303	0	165	0	0	
3	0	0	0	0	517	298	0	158	0	0	
4	0	0	0	0	507	292	0	150	0	0	
5	0	0	0	0	498	287	0	141	0	0	
6	0	0	0	0	490	282	0	134	0	0	
7	0	0	0	0	484	278	0	128	0	0	
8	0	0	0	0	478	275	0	123	0	0	
9	0	0	0	0	474	273	0	120	0	0	
10	0	0	0	0	471	272	0	119	0	0	
11	0	0	0	0	471	273	0	120	0	0	
12	0	0	0	0	473	275	0	123	0	0	
13	0	0	0	0	477	279	0	128	0	0	
14	0	0	0	0	486	286	0	135	0	0	
15	0	0	0	0	498	295	0	145	0	0	
0	0	0	0	0	512	305	0	156	0	0	
1	0	0	0	0	527	317	0	168	0	0	
2	0	0	0	0	544	330	0	180	0	0	
3	0	0	0	0	561	343	0	191	0	0	
4	0	0	0	0	577	355	0	200	0	0	
5	0	0	0	0	591	365	0	207	0	0	
6	0	0	0	0	601	373	0	212	0	0	
7	0	0	0	0	606	378	0	213	0	0	
8	0	0	0	0	608	381	0	212	0	0	
9	0	0	0	0	606	380	0	208	0	0	
10	0	0	0	0	602	379	0	203	0	0	
11	0	0	0	0	596	376	0	197	0	0	
12	0	0	0	0	592	374	0	192	0	0	
13	0	0	0	0	588	373	0	187	0	0	
14	0	0	0	0	587	374	0	184	0	0	
15	0	0	0	0	587	376	0	183	0	0	
0	0	0	0	0	588	380	0	183	0	0	
1	0	0	0	0	588	384	0	184	0	0	
2	0	0	0	0	588	388	0	187	0	0	
3	0	0	0	0	587	391	0	190	0	0	
4	0	0	0	0	585	393	0	193	0	0	
5	0	0	0	0	582	393	0	196	0	0	
6	0	0	0	0	580	392	0	199	0	0	
7	0	0	0	0	577	390	0	200	0	0	
8	0	0	0	0	575	386	0	201	0	0	
9	0	0	0	0	573	381	0	200	0	0	
10	0	0	0	0	571	375	0	198	0	0	
11	0	0	0	0	568	368	0	194	0	0	
12	0	0	0	0	564	363	0	189	0	0	
13	0	0	0	0	561	357	0	183	0	0	
14	0	0	0	0	559	353	0	177	0	0	
15	0	0	0	0	558	351	0	172	0	0	
0	0	0	0	0	559	350	0	167	0	0	
1	0	0	0	0	562	352	0	163	0	0	
2	0	0	0	0	568	355	0	160	0	0	
3	0	0	0	0	576	359	0	159	0	0	
4	0	0	0	0	587	365	0	160	0	0	
5	0	0	0	0	598	371	0	163	0	0	
6	0	0	0	0	609	378	0	167	0	0	
7	0	0	0	0	620	384	0	172	0	0	
8	0	0	0	0	629	389	0	177	0	0	
9	0	0	0	0	634	392	0	182	0	0	
10	0	0	0	0	635	394	0	185	0	0	
11	0	0	0	0	632	395	0	189	0	0	
12	0	0	0	0	625	395	0	191	0	0	
13	0	0	0	0	615	392	0	193	0	0	
14	0	0	0	0	602	389	0	193	0	0	
15	0	0	0	0	589	383	0	191	0	0	
0	0	0	0	0	575	376	0	188	0	0	
1	0	0	0	0	563	368	0	183	0	0	
2	0	0	0	0	551	359	0	177	0	0	
3	0	0	0	0	542	351	0	171	0	0	
4	0	0	0	0	534	342	0	163	0	0	
5	0	0	0	0	529	333	0	155	0	0	
6	0	0	0	0	529	325	0	147	0	0	
7	0	0	0	0	532	317	0	139	0	0	
8	0	0	0	0	537	310	0	131	0	0	
9	0	0	0	0	545	305	0	124	0	0	
10	0	0	0	0	554	301	0	118	0	0	
11	0	0	0	0	562	298	0	113	0	0	
12	0	0	0	0	570	296	0	110	0	0	
13	0	0	0	0	577	296	0	108	0	0	
14	0	0	0	0	582	296	0	107	0	0	
15	0	0	0	0	586	296	0	105	0	0	
0	0	0	0	0	588	295	0	104	0	0	
1	0	0	0	0	587	294	0	103	0	0	
2	0	0	0	0	584	289	0	100	0	0	
3	0	0	0	0	579	283	0	96	0	0	
4	0	0	0	0	571	275	0	91	0	0	
5	0	0	0	0	561	265	0	84	0	0	
6	0	0	0	0	551	255	0	77	0	0	
7	0	0	0	0	540	245	0	70	0	0	
8	0	0	0	0	532	237	0	64	0	0	
9	0	0	0	0	527	231	0	60	0	0	
10	0	0	0	0	526	230	0	59	0	0	
11	0	0	0	0	529	233	0	62	0	0	
12	0	0	0	0	537	240	0	67	0	0	
13	0	0	0	0	549	251	0	75	0	0	
14	0	0	0	0	563	266	0	86	0	0	
15	0	0	0	0	582	282	0	98	0	0	
0	0	0	0	0	600	300	0	111	0	0	
1	0	0	0	0	619	317	0	124	0	0	
2	0	0	0	0	637	332	0	136	0	0	
3	0	0	0	0	652	345	0	146	0	0	
4	0	0	0	0	665	355	0	155	0	0	
5	0	0	0	0	674	360	0	159	0	0	
6	0	0	0	0	678	361	0	162	0	0	
7	0	0	0	0	678	358	0	160	0	0	
8	0	0	0	0	673	349	0	155	0	0	
9	0	0	0	0	663	337	0	147	0	0	
10	0	0	0	0	649	320	0	136	0	0	
11	0	0	0	0	632	301	0	124	0	0	
12	0	0	0	0	612	281	0	110	0	0	
13	0	0	0	0	591	259	0	95	0	0	
14	0	0	0	0	571	237	0	79	0	0	
15	0	0	0	0	551	216	0	64	0	0	
0	0	0	0	0	532	196	0	50	0	0	
1	0	0	0	0	515	177	0	37	0	0	
2	0	0	0	0	501	161	0	25	0	0	
3	0	0	0	0	490	147	0	15	0	0	
4	0	0	0	0	481	135	0	7	0	0	
5	0	0	0	0	475	127	0	3	0	0	
6	0	0	0	0	471	120	0	0	0	0	
7	0	0	0	0	469	115	0	0	0	0	
8	0	0	0	0	469	111	0	0	0	0	
9	0	0	0	0	470	107	0	0	0	0	
10	0	0	0	0	472	105	0	0	0	0	
11	0	0	0	0	475	102	0	0	0	0	
12	0	0	0	0	477	99	0	0	0	0	
13	0	0	0	0	480	97	0	0	0	0	
14	0	0	0	0	482	94	0	0	0	0	
15	0	0	0	0	485	91	0	0	0	0	
0	0	0	0	0	486	88	0	0	0	0	
1	0	0	0	0	487	85	0	0	0	0	
2	0	0	0	0	488	83	0	0	0	0	
3	0	0	0	0	490	83	0	0	0	0	
4	0	0	0	0	492	84	0	0	0	0	
5	0	0	0	0	496	87	0	0	0	0	
6	0	0	0	0	499	91	0	0	0	0	
7	0	0	0	0	505	97	0	0	0	0	
8	0	0	0	0	512	103	0	0	0	0	
9	0	0	0	0	519	112	0	0	0	0	
10	0	0	0	0	528	120	0	0	0	0	
11	0	0	0	0	537	127	0	0	0	0	
12	0	0	0	0	546	135	0	3	0	0	
13	0	0	0	0	555	142	0	6	0	0	
14	0	0	0	0	563	147	0	9	0	0	
15	0	0	0	0	569	149	0	12	0	0	
0	0	0	0	0	573	149	0	15	0	0	
1	0	0	0	0	575	147	0	16	0	0	
2	0	0	0	0	577	144	0	17	0	0	
3	0	0	0	0	575	139	0	19	0	0	
4	0	0	0	0	574	133	0	19	0	0	
5	0	0	0	0	569	126	0	18	0	0	
6	0	0	0	0	564	119	0	16	0	0	
7	0	0	0	0	559	112	0	15	0	0	
8	0	0	0	0	552	106	0	13	0	0	
9	0	0	0	0	547	101	0	12	0	0	
10	0	0	0	0	542	97	0	10	0	0	
11	0	0	0	0	538	95	0	8	0	0	
12	0	0	0	0	535	95	0	7	0	0	
13	0	0	0	0	532	95	0	3	0	0	
14	0	0	0	0	529	95	0	1	0	0	
15	0	0	0	0	526	94	0	0	0	0	
0	0	0	0	0	521	91	0	0	0	0	
1	0	0	0	0	516	87	0	0	0	0	
2	0	0	0	0	510	80	0	0	0	0	
3	0	0	0	0	504	72	0	0	0	0	
4	0	0	0	0	498	63	0	0	0	0	
5	0	0	0	0	494	54	0	0	0	0	
6	0	0	0	0	491	46	0	0	0	0	
7	0	0	0	0	491	39	0	0	0	0	
8	0	0	0	0	494	35	0	0	0	0	
9	0	0	0	0	499	33	0	0	0	0	
10	0	0	0	0	508	35	0	0	0	0	
11	0	0	0	0	518	39	0	0	0	0	
12	0	0	0	0	529	45	0	0	0	0	
13	0	0	0	0	540	53	0	0	0	0	
14	0	0	0	0	551	63	0	0	0	0	
15	0	0	0	0	560	73	0	0	0	0	
0	0	0	0	0	567	83	0	0	0	0	
1	0	0	0	0	571	91	0	0	0	0	
2	0	0	0	0	570	96	0	0	0	0	
3	0	0	0	0	565	98	0	0	0	0	
4	0	0	0	0	557	98	0	0	0	0	
5	0	0	0	0	546	94	0	0	0	0	
6	0	0	0	0	534	88	0	0	0	0	
7	0	0	0	0	522	79	0	0	0	0	
8	0	0	0	0	510	70	0	0	0	0	
9	0	0	0	0	502	60	0	0	0	0	
10	0	0	0	0	497	53	0	0	0	0	
11	0	0	0	0	495	48	0	0	0	0	
12	0	0	0	0	497	45	0	0	0	0	
13	0	0	0	0	503	46	0	0	0	0	
14	0	0	0	0	514	50	0	0	0	0	
15	0	0	0	0	528	56	0	0	0	0	
0	0	0	0	0	544	65	0	0	0	0	
1	0	0	0	0	561	75	0	0	0	0	
2	0	0	0	0	578	83	0	0	0	0	
3	0	0	0	0	591	92	0	0	0	0	
4	0	0	0	0	602	99	0	0	0	0	
5	0	0	0	0	607	103	0	0	0	0	
6	0	0	0	0	607	103	0	0	0	0	
7	0	0	0	0	600	100	0	0	0	0	
8	0	0	0	0	591	94	0	0	0	0	
9	0	0	0	0	576	85	0	0	0	0	
10	0	0	0	0	560	75	0	0	0	0	
11	0	0	0	0	542	62	0	0	0	0	
12	0	0	0	0	525	50	0	0	0	0	
13	0	0	0	0	509	38	0	0	0	0	
14	0	0	0	0	494	27	0	0	0	0	
15	0	0	0	0	482	16	0	0	0	0	
0	0	0	0	0	473	7	0	0	0	0	
1	0	0	0	0	468	0	0	0	0	0	
2	0	0	0	0	466	0	0	0	0	0	
3	0	0	0	0	468	0	0	0	0	0	
4	0	0	0	0	473	0	0	0	0	0	
5	0	0	0	0	481	0	0	0	0	0	
6	0	0	0	0	491	3	0	0	0	0	
7	0	0	0	0	502	9	0	0	0	0	
8	0	0	0	0	513	17	0	0	0	0	
9	0	0	0	0	523	24	0	0	0	0	
10	0	0	0	0	530	32	0	0	0	0	
11	0	0	0	0	534	38	0	0	0	0	
12	0	0	0	0	536	41	0	0	0	0	
13	0	0	0	0	535	44	0	0	0	0	
14	0	0	0	0	532	43	0	0	0	0	
15	0	0	0	0	528	41	0	0	0	0	
0	0	0	0	0	524	38	0	0	0	0	
1	0	0	0	0	521	34	0	0	0	0	
2	0	0	0	0	519	32	0	0	0	0	
3	0	0	0	0	519	30	0	0	0	0	
4	0	0	0	0	521	30	0	0	0	0	
5	0	0	0	0	526	31	0	0	0	0	
6	0	0	0	0	531	34	0	0	0	0	
7	0	0	0	0	538	39	0	0	0	0	
8	0	0	0	0	545	45	0	0	0	0	
9	0	0	0	0	552	51	0	0	0	0	
10	0	0	0	0	560	58	0	0	0	0	
11	0	0	0	0	566	66	0	0	0	0	
12	0	0	0	0	573	75	0	0	0	0	
13	0	0	0	0	578	83	0	0	0	0	
14	0	0	0	0	582	90	0	0	0	0	
15	0	0	0	0	585	96	0	0	0	0	
0	0	0	0	0	587	101	0	0	0	0	
1	0	0	0	0	587	104	0	0	0	0	
2	0	0	0	0	584	104	0	0	0	0	
3	0	0	0	0	581	103	0	0	0	0	
4	0	0	0	0	577	101	0	0	0	0	
5	0	0	0	0	573	97	0	0	0	0	
6	0	0	0	0	567	92	0	0	0	0	
7	0	0	0	0	560	86	0	0	0	0	
8	0	0	0	0	553	77	0	0	0	0	
9	0	0	0	0	544	68	0	0	0	0	
10	0	0	0	0	536	59	0	0	0	0	
11	0	0	0	0	528	50	0	0	0	0	
12	0	0	0	0	521	42	0	0	0	0	
13	0	0	0	0	515	36	0	0	0	0	
14	0	0	0	0	510	31	0	0	0	0	
15	0	0	0	0	506	28	0	0	0	0	
0	0	0	0	0	504	27	0	0	0	0	
1	0	0	0	0	502	26	0	0	0	0	
2	0	0	0	0	501	27	0	0	0	0	
3	0	0	0	0	501	28	0	0	0	0	
4	0	0	0	0	502	30	0	0	0	0	
5	0	0	0	0	502	32	0	0	0	0	
6	0	0	0	0	503	33	0	0	0	0	
7	0	0	0	0	504	34	0	0	0	0	
8	0	0	0	0	505	33	0	0	0	0	
9	0	0	0	0	505	32	0	0	0	0	
10	0	0	0	0	507	31	0	0	0	0	
11	0	0	0	0	508	30	0	0	0	0	
12	0	0	0	0	510	29	0	0	0	0	
13	0	0	0	0	512	28	0	0	0	0	
14	0	0	0	0	515	29	0	0	0	0	
15	0	0	0	0	519	31	0	0	0	0	
0	0	0	0	0	524	34	0	0	0	0	
1	0	0	0	0	528	38	0	0	0	0	
2	0	0	0	0	532	43	0	0	0	0	
3	0	0	0	0	537	48	0	0	0	0	
4	0	0	0	0	543	55	0	0	0	0	
5	0	0	0	0	548	62	0	0	0	0	
6	0	0	0	0	554	70	0	0	0	0	
7	0	0	0	0	560	78	0	0	0	0	
8	0	0	0	0	564	84	0	0	0	0	
9	0	0	0	0	568	89	0	0	0	0	
10	0	0	0	0	568	91	0	0	0	0	
11	0	0	0	0	568	91	0	0	0	0	
12	0	0	0	0	565	88	0	0	0	0	
13	0	0	0	0	560	84	0	0	0	0	
14	0	0	0	0	554	78	0	0	0	0	
15	0	0	0	0	546	70	0	0	0	0	
0	0	0	0	0	537	60	0	0	0	0	
1	0	0	0	0	527	50	0	0	0	0	
2	0	0	0	0	517	40	0	0	0	0	
3	0	0	0	0	509	32	0	0	0	0	
4	0	0	0	0	502	26	0	0	0	0	
5	0	0	0	0	498	23	0	0	0	0	
6	0	0	0	0	499	24	0	0	0	0	
7	0	0	0	0	503	28	0	0	0	0	
8	0	0	0	0	511	37	0	0	0	0	
9	0	0	0	0	521	47	0	0	0	0	
10	0	0	0	0	532	57	0	0	0	0	
11	0	0	0	0	543	67	0	0	0	0	
12	0	0	0	0	551	74	0	0	0	0	
13	0	0	0	0	558	79	0	0	0	0	
14	0	0	0	0	561	82	0	0	0	0	
15	0	0	0	0	562	81	0	0	0	0	
0	0	0	0	0	560	79	0	0	0	0	
1	0	0	0	0	557	73	0	0	0	0	
2	0	0	0	0	553	67	0	0	0	0	
3	0	0	0	0	548	62	0	0	0	0	
4	0	0	0	0	545	57	0	0	0	0	
5	0	0	0	0	542	53	0	0	0	0	
6	0	0	0	0	541	51	0	0	0	0	
7	0	0	0	0	542	51	0	0	0	0	
8	0	0	0	0	543	51	0	0	0	0	
9	0	0	0	0	545	52	0	0	0	0	
10	0	0	0	0	546	53	0	0	0	0	
11	0	0	0	0	547	55	0	0	0	0	
12	0	0	0	0	547	57	0	0	0	0	
13	0	0	0	0	546	58	0	0	0	0	
14	0	0	0	0	543	57	0	0	0	0	
15	0	0	0	0	539	55	0	0	0	0	
0	0	0	0	0	532	51	0	0	0	0	
1	0	0	0	0	526	47	0	0	0	0	
2	0	0	0	0	518	41	0	0	0	0	
3	0	0	0	0	511	35	0	0	0	0	
4	0	0	0	0	505	28	0	0	0	0	
5	0	0	0	0	500	24	0	0	0	0	
6	0	0	0	0	496	19	0	0	0	0	
7	0	0	0	0	495	16	0	0	0	0	
8	0	0	0	0	495	14	0	0	0	0	
9	0	0	0	0	494	12	0	0	0	0	
10	0	0	0	0	494	9	0	0	0	0	
11	0	0	0	0	492	7	0	0	0	0	
12	0	0	0	0	490	4	0	0	0	0	
13	0	0	0	0	487	2	0	0	0	0	
14	0	0	0	0	483	0	0	0	0	0	
15	0	0	0	0	480	0	0	0	0	0	
0	0	0	0	0	476	0	0	0	0	0	
1	0	0	0	0	472	0	0	0	0	0	
2	0	0	0	0	471	1	0	0	0	0	
3	0	0	0	0	470	3	0	0	0	0	
4	0	0	0	0	473	8	0	0	0	0	
5	0	0	0	0	478	15	0	0	0	0	
6	0	0	0	0	486	23	0	0	0	0	
7	0	0	0	0	496	32	0	0	0	0	
8	0	0	0	0	508	42	0	0	0	0	
9	0	0	0	0	521	52	0	0	0	0	
10	0	0	0	0	536	62	0	0	0	0	
11	0	0	0	0	549	72	0	0	0	0	
12	0	0	0	0	561	80	0	0	0	0	
13	0	0	0	0	572	86	0	0	0	0	
14	0	0	0	0	579	91	0	0	0	0	
15	0	0	0	0	584	94	0	0	0	0	
0	0	0	0	0	587	97	0	0	0	0	
1	0	0	0	0	588	99	0	0	0	0	
2	0	0	0	0	588	100	0	0	0	0	
3	0	0	0	0	586	103	0	0	0	0	
4	0	0	0	0	585	105	0	0	0	0	
5	0	0	0	0	583	108	0	0	0	0	
6	0	0	0	0	581	110	0	0	0	0	
7	0	0	0	0	579	112	0	0	0	0	
8	0	0	0	0	577	113	0	0	0	0	
9	0	0	0	0	576	112	0	0	0	0	
10	0	0	0	0	575	111	0	0	0	0	
11	0	0	0	0	574	108	0	0	0	0	
12	0	0	0	0	572	103	0	0	0	0	
13	0	0	0	0	571	99	0	0	0	0	
14	0	0	0	0	569	93	0	0	0	0	
15	0	0	0	0	566	85	0	0	0	0	
0	0	0	0	0	562	78	0	0	0	0	
1	0	0	0	0	557	70	0	0	0	0	
2	0	0	0	0	551	63	0	0	0	0	
3	0	0	0	0	544	57	0	0	0	0	
4	0	0	0	0	536	50	0	0	0	0	
5	0	0	0	0	527	43	0	0	0	0	
6	0	0	0	0	516	35	0	0	0	0	
7	0	0	0	0	503	27	0	0	0	0	
8	0	0	0	0	488	17	0	0	0	0	
9	0	0	0	0	472	6	0	0	0	0	
10	0	0	0	0	452	0	0	0	0	0	
11	0	0	0	0	431	0	0	0	0	0	
12	0	0	0	0	408	0	0	0	0	0	
13	0	0	0	0	384	0	0	0	0	0	
14	0	0	0	0	360	0	0	0	0	0	
15	0	0	0	0	337	0	0	0	0	0	
0	0	0	0	0	316	0	0	0	0	0	
1	0	0	0	0	297	0	0	0	0	0	
2	0	0	0	0	280	0	0	0	0	0	
3	0	0	0	0	265	0	0	0	0	0	
4	0	0	0	0	254	0	0	0	0	0	
5	0	0	0	0	244	0	0	0	0	0	
6	0	0	0	0	240	0	0	0	0	0	
7	0	0	0	0	239	0	0	0	0	0	
8	0	0	0	0	243	0	0	0	0	0	
9	0	0	0	0	254	0	0	0	0	0	
10	0	0	0	0	271	0	0	0	0	0	
11	0	0	0	0	295	0	0	0	0	0	
12	0	0	0	0	328	0	0	0	0	0	
13	0	0	0	0	368	0	0	0	0	0	
14	0	0	0	0	415	0	0	0	0	0	
15	0	0	0	0	465	0	0	0	0	0	
0	0	0	0	0	517	0	0	0	0	0	
1	0	0	0	0	568	0	0	0	0	0	
2	0	0	0	0	615	0	0	0	0	0	
3	0	0	0	0	655	0	0	0	0	0	
4	0	0	0	0	687	0	0	0	0	0	
5	0	0	0	0	708	0	0	0	0	0	
6	0	0	0	0	719	0	0	0	0	0	
7	0	0	0	0	717	0	0	0	0	0	
8	0	0	0	0	704	0	0	0	0	0	
9	0	0	0	0	681	8	0	0	0	0	
10	0	0	0	0	651	18	0	0	0	0	
11	0	0	0	0	615	30	0	0	0	0	
12	0	0	0	0	578	42	0	0	0	0	
13	0	0	0	0	541	52	0	0	0	0	
14	0	0	0	0	508	60	0	0	0	0	
15	0	0	0	0	481	67	0	0	0	0	
0	0	0	0	0	461	71	0	0	0	0	
1	0	0	0	0	449	72	0	0	0	0	
2	0	0	0	0	444	71	0	0	0	0	
3	0	0	0	0	446	68	0	0	0	0	
4	0	0	0	0	455	63	0	0	0	0	
5	0	0	0	0	467	56	0	0	0	0	
6	0	0	0	0	483	49	0	0	0	0	
7	0	0	0	0	500	42	0	0	0	0	
8	0	0	0	0	518	37	0	0	0	0	
9	0	0	0	0	536	32	0	0	0	0	
10	0	0	0	0	552	31	0	0	0	0	
11	0	0	0	0	567	32	0	0	0	0	
12	0	0	0	0	579	36	0	0	0	0	
13	0	0	0	0	588	41	0	0	0	0	
14	0	0	0	0	594	48	0	0	0	0	
15	0	0	0	0	598	57	0	0	0	0	
0	0	0	0	0	599	67	0	0	0	0	
1	0	0	0	0	596	76	0	0	0	0	
2	0	0	0	0	592	84	0	0	0	0	
3	0	0	0	0	586	90	0	0	0	0	
4	0	0	0	0	578	94	0	0	0	0	
5	0	0	0	0	568	95	0	0	0	0	
6	0	0	0	0	558	94	0	0	0	0	
7	0	0	0	0	549	90	0	0	0	0	
8	0	0	0	0	540	84	0	0	0	0	
9	0	0	0	0	533	77	0	0	0	0	
10	0	0	0	0	527	70	0	0	0	0	
11	0	0	0	0	524	61	0	0	0	0	
12	0	0	0	0	521	53	0	0	0	0	
13	0	0	0	0	521	45	0	0	0	0	
14	0	0	0	0	523	39	0	0	0	0	
15	0	0	0	0	526	35	0	0	0	0	
0	0	0	0	0	530	31	0	0	0	0	
1	0	0	0	0	536	31	0	0	0	0	
2	0	0	0	0	542	32	0	0	0	0	
3	0	0	0	0	547	36	0	0	0	0	
4	0	0	0	0	552	39	0	0	0	0	
5	0	0	0	0	554	43	0	0	0	0	
6	0	0	0	0	555	47	0	0	0	0	
7	0	0	0	0	553	50	0	0	0	0	
8	0	0	0	0	551	54	0	0	0	0	
9	0	0	0	0	547	56	0	0	0	0	
10	0	0	0	0	542	58	0	0	0	0	
11	0	0	0	0	539	59	0	0	0	0	
12	0	0	0	0	536	60	0	0	0	0	
13	0	0	0	0	534	61	0	0	0	0	
14	0	0	0	0	535	62	0	0	0	0	
15	0	0	0	0	537	63	0	0	0	0	
0	0	0	0	0	542	65	0	0	0	0	
1	0	0	0	0	547	67	0	0	0	0	
2	0	0	0	0	554	70	0	0	0	0	
3	0	0	0	0	562	73	0	0	0	0	
4	0	0	0	0	570	77	0	0	0	0	
5	0	0	0	0	577	81	0	0	0	0	
6	0	0	0	0	584	85	0	0	0	0	
7	0	0	0	0	590	91	0	0	0	0	
8	0	0	0	0	595	95	0	0	0	0	
9	0	0	0	0	598	101	0	0	0	0	
10	0	0	0	0	600	105	0	0	0	0	
11	0	0	0	0	601	109	0	0	0	0	
12	0	0	0	0	600	112	0	0	0	0	
13	0	0	0	0	595	112	0	0	0	0	
14	0	0	0	0	588	110	0	0	0	0	
15	0	0	0	0	578	103	0	0	0	0	
0	0	0	0	0	567	94	0	0	0	0	
1	0	0	0	0	552	82	0	0	0	0	
2	0	0	0	0	536	67	0	0	0	0	
3	0	0	0	0	519	50	0	0	0	0	
4	0	0	0	0	503	33	0	0	0	0	
5	0	0	0	0	488	16	0	0	0	0	
6	0	0	0	0	475	1	0	0	0	0	
7	0	0	0	0	464	0	0	0	0	0	
8	0	0	0	0	456	0	0	0	0	0	
9	0	0	0	0	452	0	0	0	0	0	
10	0	0	0	0	452	0	0	0	0	0	
11	0	0	0	0	457	0	0	0	0	0	
12	0	0	0	0	465	0	0	0	0	0	
13	0	0	0	0	478	0	0	0	0	0	
14	0	0	0	0	493	5	0	0	0	0	
15	0	0	0	0	511	15	0	0	0	0	
0	0	0	0	0	530	30	0	0	0	0	
1	0	0	0	0	550	46	0	0	0	0	
2	0	0	0	0	568	63	0	0	0	0	
3	0	0	0	0	584	80	0	0	0	0	
4	0	0	0	0	598	97	0	0	0	0	
5	0	0	0	0	608	112	0	0	0	0	
6	0	0	0	0	615	124	0	0	0	0	
7	0	0	0	0	619	132	0	0	0	0	
8	0	0	0	0	618	136	0	0	0	0	
9	0	0	0	0	614	136	0	0	0	0	
10	0	0	0	0	607	133	0	0	0	0	
11	0	0	0	0	597	126	0	0	0	0	
12	0	0	0	0	587	117	0	0	0	0	
13	0	0	0	0	575	107	0	0	0	0	
14	0	0	0	0	563	96	0	0	0	0	
15	0	0	0	0	551	85	0	0	0	0	
0	0	0	0	0	540	73	0	0	0	0	
1	0	0	0	0	529	62	0	0	0	0	
2	0	0	0	0	520	52	0	0	0	0	
3	0	0	0	0	515	44	0	0	0	0	
4	0	0	0	0	512	41	0	0	0	0	
5	0	0	0	0	514	41	0	0	0	0	
6	0	0	0	0	519	44	0	0	0	0	
7	0	0	0	0	527	51	0	0	0	0	
8	0	0	0	0	538	59	0	0	0	0	
9	0	0	0	0	549	68	0	0	0	0	
10	0	0	0	0	561	78	0	0	0	0	
11	0	0	0	0	572	87	0	0	0	0	
12	0	0	0	0	581	95	0	0	0	0	
13	0	0	0	0	588	100	0	0	0	0	
14	0	0	0	0	591	104	0	0	0	0	
15	0	0	0	0	592	105	0	0	0	0	
0	0	0	0	0	590	103	0	0	0	0	
1	0	0	0	0	584	100	0	0	0	0	
2	0	0	0	0	577	96	0	0	0	0	
3	0	0	0	0	568	91	0	0	0	0	
4	0	0	0	0	558	85	0	0	0	0	
5	0	0	0	0	549	81	0	0	0	0	
6	0	0	0	0	541	76	0	0	0	0	
7	0	0	0	0	535	74	0	0	0	0	
8	0	0	0	0	528	72	0	0	0	0	
9	0	0	0	0	524	71	0	0	0	0	
10	0	0	0	0	520	70	0	0	0	0	
11	0	0	0	0	517	68	0	0	0	0	
12	0	0	0	0	515	67	0	0	0	0	
13	0	0	0	0	513	65	0	0	0	0	
14	0	0	0	0	513	63	0	0	0	0	
15	0	0	0	0	513	62	0	0	0	0	
0	0	0	0	0	515	61	0	0	0	0	
1	0	0	0	0	518	62	0	0	0	0	
2	0	0	0	0	523	63	0	0	0	0	
3	0	0	0	0	528	66	0	0	0	0	
4	0	0	0	0	535	70	0	0	0	0	
5	0	0	0	0	541	75	0	0	0	0	
6	0	0	0	0	547	80	0	0	0	0	
7	0	0	0	0	554	86	0	0	0	0	
8	0	0	0	0	559	92	0	0	0	0	
9	0	0	0	0	563	98	0	0	0	0	
10	0	0	0	0	565	103	0	0	0	0	
11	0	0	0	0	566	108	0	0	0	0	
12	0	0	0	0	564	111	0	0	0	0	
13	0	0	0	0	561	112	0	0	0	0	
14	0	0	0	0	556	111	0	0	0	0	
15	0	0	0	0	551	109	0	0	0	0	
0	0	0	0	0	543	105	0	0	0	0	
1	0	0	0	0	535	99	0	0	0	0	
2	0	0	0	0	527	92	0	0	0	0	
3	0	0	0	0	519	84	0	0	0	0	
4	0	0	0	0	511	75	0	0	0	0	
5	0	0	0	0	504	66	0	0	0	0	
6	0	0	0	0	498	59	0	0	0	0	
7	0	0	0	0	494	52	0	0	0	0	
8	0	0	0	0	492	46	0	0	0	0	
9	0	0	0	0	490	43	0	0	0	0	
10	0	0	0	0	492	40	0	0	0	0	
11	0	0	0	0	494	41	0	0	0	0	
12	0	0	0	0	498	44	0	0	0	0	
13	0	0	0	0	503	50	0	0	0	0	
14	0	0	0	0	510	57	0	0	0	0	
15	0	0	0	0	518	66	0	0	0	0	
0	0	0	0	0	526	76	0	0	0	0	
1	0	0	0	0	535	88	0	0	0	0	
2	0	0	0	0	543	99	0	0	0	0	
3	0	0	0	0	550	110	0	0	0	0	
4	0	0	0	0	556	119	0	0	0	0	
5	0	0	0	0	559	125	0	0	0	0	
6	0	0	0	0	560	128	0	0	0	0	
7	0	0	0	0	559	129	0	0	0	0	
8	0	0	0	0	557	128	0	0	0	0	
9	0	0	0	0	554	127	0	0	0	0	
10	0	0	0	0	552	126	0	0	0	0	
11	0	0	0	0	551	125	0	0	0	0	
12	0	0	0	0	553	126	0	0	0	0	
13	0	0	0	0	556	129	0	0	0	0	
14	0	0	0	0	563	135	0	0	0	0	
15	0	0	0	0	571	143	0	0	0	0	
0	0	0	0	0	581	152	0	0	0	0	
1	0	0	0	0	591	162	0	0	0	0	
2	0	0	0	0	601	172	0	0	0	0	
3	0	0	0	0	608	180	0	0	0	0	
4	0	0	0	0	614	187	0	0	0	0	
5	0	0	0	0	615	191	0	0	0	0	
6	0	0	0	0	614	192	0	0	0	0	
7	0	0	0	0	609	190	0	0	0	0	
8	0	0	0	0	601	185	0	0	0	0	
9	0	0	0	0	591	177	0	0	0	0	
10	0	0	0	0	579	167	0	0	0	0	
11	0	0	0	0	567	156	0	0	0	0	
12	0	0	0	0	553	143	0	0	0	0	
13	0	0	0	0	540	130	0	0	0	0	
14	0	0	0	0	528	118	0	0	0	0	
15	0	0	0	0	518	107	0	0	0	0	
0	0	0	0	0	510	97	0	0	0	0	
1	0	0	0	0	504	90	0	0	0	0	
2	0	0	0	0	501	86	0	0	0	0	
3	0	0	0	0	501	85	0	0	0	0	
4	0	0	0	0	504	87	0	0	0	0	
5	0	0	0	0	509	92	0	0	0	0	
6	0	0	0	0	516	99	0	0	0	0	
7	0	0	0	0	525	109	0	0	0	0	
8	0	0	0	0	535	120	0	0	0	0	
9	0	0	0	0	545	131	0	0	0	0	
10	0	0	0	0	556	142	0	0	0	0	
11	0	0	0	0	564	152	0	0	0	0	
12	0	0	0	0	573	160	0	0	0	0	
13	0	0	0	0	578	166	0	0	0	0	
14	0	0	0	0	582	169	0	0	0	0	
15	0	0	0	0	583	169	0	0	0	0	
0	0	0	0	0	582	167	0	0	0	0	
1	0	0	0	0	579	163	0	0	0	0	
2	0	0	0	0	574	156	0	0	0	0	
3	0	0	0	0	568	149	0	0	0	0	
4	0	0	0	0	561	142	0	0	0	0	
5	0	0	0	0	554	134	0	0	0	0	
6	0	0	0	0	547	127	0	0	0	0	
7	0	0	0	0	542	122	0	0	0	0	
8	0	0	0	0	537	119	0	0	0	0	
9	0	0	0	0	534	118	0	0	0	0	
10	0	0	0	0	534	120	0	0	0	0	
11	0	0	0	0	536	124	0	0	0	0	
12	0	0	0	0	539	130	0	0	0	0	
13	0	0	0	0	543	137	0	0	0	0	
14	0	0	0	0	550	146	0	0	0	0	
15	0	0	0	0	557	155	0	0	0	0	
0	0	0	0	0	566	165	0	0	0	0	
1	0	0	0	0	575	175	0	0	0	0	
2	0	0	0	0	585	185	0	0	0	0	
3	0	0	0	0	596	195	0	0	0	0	
4	0	0	0	0	606	203	0	0	0	0	
5	0	0	0	0	615	210	0	0	0	0	
6	0	0	0	0	621	214	0	0	0	0	
7	0	0	0	0	624	216	0	0	0	0	
8	0	0	0	0	625	216	0	0	0	0	
9	0	0	0	0	624	213	0	0	0	0	
10	0	0	0	0	620	210	0	0	0	0	
11	0	0	0	0	615	206	0	0	0	0	
12	0	0	0	0	608	201	0	0	0	0	
13	0	0	0	0	600	196	0	0	0	0	
14	0	0	0	0	592	190	0	0	0	0	
15	0	0	0	0	583	185	0	0	0	0	
0	0	0	0	0	575	181	0	0	0	0	
1	0	0	0	0	567	177	0	0	0	0	
2	0	0	0	0	561	174	0	0	0	0	
3	0	0	0	0	555	172	0	0	0	0	
4	0	0	0	0	551	169	0	0	0	0	
5	0	0	0	0	548	166	0	0	0	0	
6	0	0	0	0	545	162	0	1	0	0	
7	0	0	0	0	542	157	0	2	0	0	
8	0	0	0	0	539	152	0	3	0	0	
9	0	0	0	0	537	147	0	5	0	0	
10	0	0	0	0	535	141	0	7	0	0	
11	0	0	0	0	534	136	0	8	0	0	
12	0	0	0	0	532	132	0	10	0	0	
13	0	0	0	0	531	128	0	12	0	0	
14	0	0	0	0	532	126	0	13	0	0	
15	0	0	0	0	532	127	0	16	0	0	
0	0	0	0	0	535	130	0	20	0	0	
1	0	0	0	0	539	135	0	25	0	0	
2	0	0	0	0	543	142	0	31	0	0	
3	0	0	0	0	548	150	0	38	0	0	
4	0	0	0	0	552	159	0	44	0	0	
5	0	0	0	0	556	167	0	50	0	0	
6	0	0	0	0	559	174	0	55	0	0	
7	0	0	0	0	561	180	0	60	0	0	
8	0	0	0	0	564	185	0	64	0	0	
9	0	0	0	0	566	188	0	67	0	0	
10	0	0	0	0	568	190	0	70	0	0	
11	0	0	0	0	569	190	0	71	0	0	
12	0	0	0	0	571	190	0	73	0	0	
13	0	0	0	0	574	191	0	76	0	0	
14	0	0	0	0	579	193	0	81	0	0	
15	0	0	0	0	585	196	0	89	0	0	
0	0	0	0	0	594	201	0	98	0	0	
1	0	0	0	0	603	209	0	110	0	0	
2	0	0	0	0	612	217	0	122	0	0	
3	0	0	0	0	622	227	0	136	0	0	
4	0	0	0	0	631	236	0	149	0	0	
5	0	0	0	0	636	245	0	161	0	0	
6	0	0	0	0	639	251	0	172	0	0	
7	0	0	0	0	639	255	0	179	0	0	
8	0	0	0	0	634	257	0	183	0	0	
9	0	0	0	0	625	254	0	182	0	0	
10	0	0	0	0	612	247	0	177	0	0	
11	0	0	0	0	595	235	0	167	0	0	
12	0	0	0	0	576	221	0	153	0	0	
13	0	0	0	0	555	204	0	137	0	0	
14	0	0	0	0	535	187	0	120	0	0	
15	0	0	0	0	518	171	0	103	0	0	
0	0	0	0	0	505	157	0	89	0	0	
1	0	0	0	0	497	147	0	77	0	0	
2	0	0	0	0	494	141	0	71	0	0	
3	0	0	0	0	497	139	0	69	0	0	
4	0	0	0	0	503	143	0	73	0	0	
5	0	0	0	0	514	149	0	82	0	0	
6	0	0	0	0	527	159	0	94	0	0	
7	0	0	0	0	542	172	0	109	0	0	
8	0	0	0	0	556	185	0	125	0	0	
9	0	0	0	0	568	198	0	141	0	0	
10	0	0	0	0	577	209	0	155	0	0	
11	0	0	0	0	581	216	0	165	0	0	
12	0	0	0	0	579	220	0	172	0	0	
13	0	0	0	0	572	219	0	174	0	0	
14	0	0	0	0	561	214	0	172	0	0	
15	0	0	0	0	547	206	0	167	0	0	
0	0	0	0	0	534	197	0	162	0	0	
1	0	0	0	0	521	189	0	156	0	0	
2	0	0	0	0	512	183	0	151	0	0	
3	0	0	0	0	506	178	0	146	0	0	
4	0	0	0	0	505	176	0	145	0	0	
5	0	0	0	0	509	178	0	145	0	0	
6	0	0	0	0	517	183	0	148	0	0	
7	0	0	0	0	529	190	0	153	0	0	
8	0	0	0	0	543	200	0	162	0	0	
9	0	0	0	0	560	212	0	172	0	0	
10	0	0	0	0	576	225	0	183	0	0	
11	0	0	0	0	591	239	0	195	0	0	
12	0	0	0	0	605	251	0	207	0	0	
13	0	0	0	0	615	263	0	220	0	0	
14	0	0	0	0	623	272	0	231	0	0	
15	0	0	0	0	625	280	0	239	0	0	
0	0	0	0	0	624	284	0	246	0	0	
1	0	0	0	0	619	285	0	249	0	0	
2	0	0	0	0	610	283	0	251	0	0	
3	0	0	0	0	598	278	0	249	0	0	
4	0	0	0	0	585	271	0	243	0	0	
5	0	0	0	0	569	261	0	235	0	0	
6	0	0	0	0	555	249	0	226	0	0	
7	0	0	0	0	541	238	0	217	0	0	
8	0	0	0	0	529	227	0	209	0	0	
9	0	0	0	0	521	219	0	202	0	0	
10	0	0	0	0	519	214	0	199	0	0	
11	0	0	0	0	520	213	0	198	0	0	
12	0	0	0	0	528	216	0	201	0	0	
13	0	0	0	0	541	224	0	208	0	0	
14	0	0	0	0	559	237	0	220	0	0	
15	0	0	0	0	581	254	0	234	0	0	
0	0	0	0	0	604	274	0	252	0	0	
1	0	0	0	0	627	294	0	269	0	0	
2	0	0	0	0	647	313	0	286	0	0	
3	0	0	0	0	664	330	0	300	0	0	
4	0	0	0	0	675	343	0	311	0	0	
5	0	0	0	0	678	350	0	318	0	0	
6	0	0	0	0	675	352	0	321	0	0	
7	0	0	0	0	664	348	0	318	0	0	
8	0	0	0	0	647	338	0	311	0	0	
9	0	0	0	0	626	323	0	300	0	0	
10	0	0	0	0	602	307	0	287	0	0	
11	0	0	0	0	578	288	0	272	0	0	
12	0	0	0	0	556	270	0	259	0	0	
13	0	0	0	0	537	253	0	246	0	0	
14	0	0	0	0	523	240	0	237	0	0	
15	0	0	0	0	514	230	0	230	0	0	
0	0	0	0	0	511	224	0	226	0	0	
1	0	0	0	0	512	222	0	224	0	0	
2	0	0	0	0	519	224	0	227	0	0	
3	0	0	0	0	531	231	0	232	0	0	
4	0	0	0	0	545	241	0	240	0	0	
5	0	0	0	0	561	254	0	250	0	0	
6	0	0	0	0	577	269	0	261	0	0	
7	0	0	0	0	592	282	0	271	0	0	
8	0	0	0	0	604	295	0	279	0	0	
9	0	0	0	0	611	304	0	284	0	0	
10	0	0	0	0	613	309	0	287	0	0	
11	0	0	0	0	610	311	0	287	0	0	
12	0	0	0	0	603	309	0	284	0	0	
13	0	0	0	0	593	304	0	280	0	0	
14	0	0	0	0	580	295	0	274	0	0	
15	0	0	0	0	567	287	0	268	0	0	
0	0	0	0	0	555	278	0	261	0	0	
1	0	0	0	0	545	269	0	257	0	0	
2	0	0	0	0	539	263	0	255	0	0	
3	0	0	0	0	536	260	0	255	0	0	
4	0	0	0	0	538	259	0	259	0	0	
5	0	0	0	0	543	263	0	265	0	0	
6	0	0	0	0	553	269	0	274	0	0	
7	0	0	0	0	564	278	0	285	0	0	
8	0	0	0	0	578	289	0	297	0	0	
9	0	0	0	0	591	302	0	311	0	0	
10	0	0	0	0	604	316	0	324	0	0	
11	0	0	0	0	618	330	0	336	0	0	
12	0	0	0	0	629	344	0	348	0	0	
13	0	0	0	0	638	355	0	357	0	0	
14	0	0	0	0	643	364	0	363	0	0	
15	0	0	0	0	643	368	0	364	0	0	
0	0	0	0	0	639	368	0	362	0	0	
1	0	0	0	0	631	363	0	355	0	0	
2	0	0	0	0	618	354	0	345	0	0	
3	0	0	0	0	602	341	0	332	0	0	
4	0	0	0	0	585	326	0	316	0	0	
5	0	0	0	0	568	309	0	299	0	0	
6	0	0	0	0	550	292	0	282	0	0	
7	0	0	0	0	534	275	0	267	0	0	
8	0	0	0	0	521	260	0	253	0	0	
9	0	0	0	0	511	248	0	243	0	0	
10	0	0	0	0	506	240	0	237	0	0	
11	0	0	0	0	505	237	0	237	0	0	
12	0	0	0	0	510	239	0	242	0	0	
13	0	0	0	0	518	246	0	252	0	0	
14	0	0	0	0	531	258	0	266	0	0	
15	0	0	0	0	548	274	0	284	0	0	
0	0	0	0	0	566	292	0	303	0	0	
1	0	0	0	0	585	313	0	324	0	0	
2	0	0	0	0	604	333	0	344	0	0	
3	0	0	0	0	623	353	0	364	0	0	
4	0	0	0	0	639	372	0	382	0	0	
5	0	0	0	0	653	388	0	397	0	0	
6	0	0	0	0	663	399	0	408	0	0	
7	0	0	0	0	668	406	0	415	0	0	
8	0	0	0	0	669	408	0	416	0	0	
9	0	0	0	0	664	404	0	412	0	0	
10	0	0	0	0	654	395	0	403	0	0	
11	0	0	0	0	639	380	0	388	0	0	
12	0	0	0	0	619	360	0	368	0	0	
13	0	0	0	0	594	337	0	346	0	0	
14	0	0	0	0	567	311	0	321	0	0	
15	0	0	0	0	539	285	0	295	0	0	
0	0	0	0	0	510	258	0	271	0	0	
1	0	0	0	0	483	235	0	249	0	0	
2	0	0	0	0	461	214	0	231	0	0	
3	0	0	0	0	443	199	0	218	0	0	
4	0	0	0	0	431	191	0	211	0	0	
5	0	0	0	0	427	188	0	211	0	0	
6	0	0	0	0	430	193	0	217	0	0	
7	0	0	0	0	440	204	0	229	0	0	
8	0	0	0	0	458	221	0	246	0	0	
9	0	0	0	0	481	243	0	266	0	0	
10	0	0	0	0	508	267	0	287	0	0	
11	0	0	0	0	536	291	0	310	0	0	
12	0	0	0	0	564	314	0	329	0	0	
13	0	0	0	0	588	334	0	345	0	0	
14	0	0	0	0	607	348	0	357	0	0	
15	0	0	0	0	620	358	0	364	0	0	
0	0	0	0	0	627	363	0	366	0	0	
1	0	0	0	0	627	363	0	365	0	0	
2	0	0	0	0	623	359	0	360	0	0	
3	0	0	0	0	615	354	0	354	0	0	
4	0	0	0	0	605	348	0	348	0	0	
5	0	0	0	0	595	344	0	343	0	0	
6	0	0	0	0	587	341	0	339	0	0	
7	0	0	0	0	582	340	0	339	0	0	
8	0	0	0	0	580	343	0	342	0	0	
9	0	0	0	0	581	349	0	347	0	0	
10	0	0	0	0	585	355	0	352	0	0	
11	0	0	0	0	591	362	0	359	0	0	
12	0	0	0	0	597	368	0	364	0	0	
13	0	0	0	0	603	373	0	368	0	0	
14	0	0	0	0	608	376	0	370	0	0	
15	0	0	0	0	613	377	0	370	0	0	
0	0	0	0	0	616	377	0	370	0	0	
1	0	0	0	0	619	375	0	369	0	0	
2	0	0	0	0	620	373	0	368	0	0	
3	0	0	0	0	622	372	0	368	0	0	
4	0	0	0	0	623	371	0	369	0	0	
5	0	0	0	0	625	370	0	371	0	0	
6	0	0	0	0	626	371	0	375	0	0	
7	0	0	0	0	627	374	0	380	0	0	
8	0	0	0	0	628	376	0	385	0	0	
9	0	0	0	0	627	377	0	389	0	0	
10	0	0	0	0	625	379	0	392	0	0	
11	0	0	0	0	620	378	0	393	0	0	
12	0	0	0	0	612	375	0	391	0	0	
13	0	0	0	0	602	369	0	386	0	0	
14	0	0	0	0	588	360	0	379	0	0	
15	0	0	0	0	574	350	0	367	0	0	
0	0	0	0	0	558	338	0	354	0	0	
1	0	0	0	0	542	325	0	340	0	0	
2	0	0	0	0	528	313	0	326	0	0	
3	0	0	0	0	516	301	0	312	0	0	
4	0	0	0	0	509	291	0	301	0	0	
5	0	0	0	0	504	284	0	291	0	0	
6	0	0	0	0	504	280	0	284	0	0	
7	0	0	0	0	507	279	0	281	0	0	
8	0	0	0	0	512	278	0	279	0	0	
9	0	0	0	0	517	280	0	280	0	0	
10	0	0	0	0	523	282	0	281	0	0	
11	0	0	0	0	527	284	0	284	0	0	
12	0	0	0	0	531	286	0	287	0	0	
13	0	0	0	0	531	288	0	291	0	0	
14	0	0	0	0	530	289	0	295	0	0	
15	0	0	0	0	528	290	0	299	0	0	
0	0	0	0	0	524	291	0	303	0	0	
1	0	0	0	0	521	292	0	307	0	0	
2	0	0	0	0	518	294	0	312	0	0	
3	0	0	0	0	517	297	0	317	0	0	
4	0	0	0	0	519	303	0	323	0	0	
5	0	0	0	0	524	310	0	330	0	0	
6	0	0	0	0	533	319	0	339	0	0	
7	0	0	0	0	545	331	0	349	0	0	
8	0	0	0	0	561	344	0	359	0	0	
9	0	0	0	0	579	359	0	370	0	0	
10	0	0	0	0	600	375	0	382	0	0	
11	0	0	0	0	622	391	0	393	0	0	
12	0	0	0	0	643	407	0	403	0	0	
13	0	0	0	0	662	422	0	410	0	0	
14	0	0	0	0	678	432	0	414	0	0	
15	0	0	0	0	688	440	0	415	0	0	
0	0	0	0	0	692	442	0	412	0	0	
1	0	0	0	0	689	439	0	404	0	0	
2	0	0	0	0	679	432	0	394	0	0	
3	0	0	0	0	664	420	0	382	0	0	
4	0	0	0	0	643	406	0	368	0	0	
5	0	0	0	0	618	389	0	354	0	0	
6	0	0	0	0	591	371	0	340	0	0	
7	0	0	0	0	565	352	0	327	0	0	
8	0	0	0	0	540	335	0	314	0	0	
9	0	0	0	0	517	318	0	303	0	0	
10	0	0	0	0	499	304	0	294	0	0	
11	0	0	0	0	485	291	0	287	0	0	
12	0	0	0	0	476	281	0	283	0	0	
13	0	0	0	0	473	275	0	280	0	0	
14	0	0	0	0	475	273	0	279	0	0	
15	0	0	0	0	482	273	0	280	0	0	
0	0	0	0	0	494	278	0	285	0	0	
1	0	0	0	0	510	287	0	291	0	0	
2	0	0	0	0	527	298	0	299	0	0	
3	0	0	0	0	547	312	0	308	0	0	
4	0	0	0	0	567	327	0	319	0	0	
5	0	0	0	0	585	343	0	329	0	0	
6	0	0	0	0	600	357	0	340	0	0	
7	0	0	0	0	612	371	0	349	0	0	
8	0	0	0	0	621	382	0	357	0	0	
9	0	0	0	0	624	390	0	362	0	0	
10	0	0	0	0	623	393	0	366	0	0	
11	0	0	0	0	618	393	0	366	0	0	
12	0	0	0	0	610	391	0	363	0	0	
13	0	0	0	0	599	384	0	359	0	0	
14	0	0	0	0	588	377	0	352	0	0	
15	0	0	0	0	577	369	0	346	0	0	
0	0	0	0	0	568	361	0	339	0	0	
1	0	0	0	0	562	354	0	333	0	0	
2	0	0	0	0	559	349	0	328	0	0	
3	0	0	0	0	559	346	0	324	0	0	
4	0	0	0	0	562	345	0	322	0	0	
5	0	0	0	0	567	345	0	322	0	0	
6	0	0	0	0	572	347	0	321	0	0	
7	0	0	0	0	578	348	0	320	0	0	
8	0	0	0	0	582	350	0	320	0	0	
9	0	0	0	0	584	351	0	318	0	0	
10	0	0	0	0	583	350	0	315	0	0	
11	0	0	0	0	578	347	0	311	0	0	
12	0	0	0	0	571	343	0	305	0	0	
13	0	0	0	0	562	338	0	299	0	0	
14	0	0	0	0	552	332	0	293	0	0	
15	0	0	0	0	543	327	0	287	0	0	
0	0	0	0	0	535	322	0	283	0	0	
1	0	0	0	0	529	319	0	280	0	0	
2	0	0	0	0	527	317	0	279	0	0	
3	0	0	0	0	526	316	0	279	0	0	
4	0	0	0	0	528	316	0	280	0	0	
5	0	0	0	0	532	318	0	280	0	0	
6	0	0	0	0	537	319	0	281	0	0	
7	0	0	0	0	542	320	0	281	0	0	
8	0	0	0	0	547	321	0	281	0	0	
9	0	0	0	0	551	323	0	280	0	0	
10	0	0	0	0	554	323	0	279	0	0	
11	0	0	0	0	556	324	0	278	0	0	
12	0	0	0	0	556	325	0	275	0	0	
13	0	0	0	0	555	326	0	273	0	0	
14	0	0	0	0	553	327	0	269	0	0	
15	0	0	0	0	550	327	0	264	0	0	
0	0	0	0	0	545	326	0	259	0	0	
1	0	0	0	0	540	323	0	252	0	0	
2	0	0	0	0	531	318	0	243	0	0	
3	0	0	0	0	520	310	0	232	0	0	
4	0	0	0	0	505	297	0	218	0	0	
5	0	0	0	0	487	281	0	201	0	0	
6	0	0	0	0	467	260	0	181	0	0	
7	0	0	0	0	443	235	0	157	0	0	
8	0	0	0	0	415	207	0	131	0	0	
9	0	0	0	0	389	177	0	104	0	0	
10	0	0	0	0	361	147	0	78	0	0	
11	0	0	0	0	336	118	0	52	0	0	
12	0	0	0	0	315	93	0	30	0	0	
13	0	0	0	0	298	73	0	14	0	0	
14	0	0	0	0	290	61	0	4	0	0	
15	0	0	0	0	291	59	0	3	0	0	
0	0	0	0	0	300	65	0	12	0	0	
1	0	0	0	0	319	82	0	29	0	0	
2	0	0	0	0	346	107	0	55	0	0	
3	0	0	0	0	380	138	0	87	0	0	
4	0	0	0	0	416	174	0	123	0	0	
5	0	0	0	0	455	212	0	161	0	0	
6	0	0	0	0	492	249	0	199	0	0	
7	0	0	0	0	527	285	0	234	0	0	
8	0	0	0	0	556	316	0	265	0	0	
9	0	0	0	0	579	342	0	291	0	0	
10	0	0	0	0	595	361	0	310	0	0	
11	0	0	0	0	604	372	0	322	0	0	
12	0	0	0	0	606	377	0	327	0	0	
13	0	0	0	0	603	376	0	327	0	0	
14	0	0	0	0	596	371	0	322	0	0	
15	0	0	0	0	586	363	0	313	0	0	
0	0	0	0	0	575	353	0	303	0	0	
1	0	0	0	0	566	343	0	292	0	0	
2	0	0	0	0	556	335	0	282	0	0	
3	0	0	0	0	550	329	0	274	0	0	
4	0	0	0	0	546	326	0	268	0	0	
5	0	0	0	0	545	325	0	265	0	0	
6	0	0	0	0	547	327	0	264	0	0	
7	0	0	0	0	551	330	0	265	0	0	
8	0	0	0	0	554	334	0	268	0	0	
9	0	0	0	0	558	338	0	271	0	0	
10	0	0	0	0	561	341	0	274	0	0	
11	0	0	0	0	564	343	0	278	0	0	
12	0	0	0	0	565	344	0	279	0	0	
13	0	0	0	0	565	343	0	279	0	0	
14	0	0	0	0	563	341	0	277	0	0	
15	0	0	0	0	561	337	0	275	0	0	
0	0	0	0	0	558	333	0	271	0	0	
1	0	0	0	0	556	328	0	267	0	0	
2	0	0	0	0	553	324	0	263	0	0	
3	0	0	0	0	551	321	0	260	0	0	
4	0	0	0	0	551	319	0	257	0	0	
5	0	0	0	0	552	318	0	257	0	0	
6	0	0	0	0	555	318	0	257	0	0	
7	0	0	0	0	558	320	0	260	0	0	
8	0	0	0	0	561	323	0	264	0	0	
9	0	0	0	0	564	325	0	268	0	0	
10	0	0	0	0	566	327	0	271	0	0	
11	0	0	0	0	566	327	0	275	0	0	
12	0	0	0	0	563	327	0	276	0	0	
13	0	0	0	0	559	324	0	276	0	0	
14	0	0	0	0	553	320	0	275	0	0	
15	0	0	0	0	547	315	0	272	0	0	
0	0	0	0	0	540	311	0	268	0	0	
1	0	0	0	0	535	307	0	264	0	0	
2	0	0	0	0	533	305	0	260	0	0	
3	0	0	0	0	535	306	0	258	0	0	
4	0	0	0	0	540	310	0	259	0	0	
5	0	0	0	0	551	318	0	261	0	0	
6	0	0	0	0	566	330	0	267	0	0	
7	0	0	0	0	585	344	0	274	0	0	
8	0	0	0	0	606	361	0	284	0	0	
9	0	0	0	0	628	379	0	295	0	0	
10	0	0	0	0	652	397	0	307	0	0	
11	0	0	0	0	673	414	0	319	0	0	
12	0	0	0	0	691	429	0	330	0	0	
13	0	0	0	0	705	441	0	339	0	0	
14	0	0	0	0	713	449	0	346	0	0	
15	0	0	0	0	715	452	0	349	0	0	
0	0	0	0	0	710	450	0	350	0	0	
1	0	0	0	0	698	443	0	347	0	0	
2	0	0	0	0	681	432	0	341	0	0	
3	0	0	0	0	658	415	0	332	0	0	
4	0	0	0	0	632	396	0	320	0	0	
5	0	0	0	0	604	375	0	307	0	0	
6	0	0	0	0	575	351	0	291	0	0	
7	0	0	0	0	547	327	0	275	0	0	
8	0	0	0	0	521	305	0	258	0	0	
9	0	0	0	0	499	284	0	241	0	0	
10	0	0	0	0	481	265	0	226	0	0	
11	0	0	0	0	468	248	0	212	0	0	
12	0	0	0	0	460	236	0	200	0	0	
13	0	0	0	0	456	227	0	192	0	0	
14	0	0	0	0	459	223	0	186	0	0	
15	0	0	0	0	466	224	0	185	0	0	
0	0	0	0	0	477	230	0	188	0	0	
1	0	0	0	0	492	240	0	194	0	0	
2	0	0	0	0	511	254	0	204	0	0	
3	0	0	0	0	529	270	0	215	0	0	
4	0	0	0	0	549	288	0	229	0	0	
5	0	0	0	0	568	306	0	242	0	0	
6	0	0	0	0	584	323	0	256	0	0	
7	0	0	0	0	598	339	0	269	0	0	
8	0	0	0	0	610	353	0	280	0	0	
9	0	0	0	0	619	363	0	288	0	0	
10	0	0	0	0	624	370	0	295	0	0	
11	0	0	0	0	626	373	0	297	0	0	
12	0	0	0	0	625	371	0	297	0	0	
13	0	0	0	0	620	366	0	292	0	0	
14	0	0	0	0	612	358	0	285	0	0	
15	0	0	0	0	603	346	0	275	0	0	
0	0	0	0	0	591	335	0	264	0	0	
1	0	0	0	0	581	323	0	254	0	0	
2	0	0	0	0	572	315	0	244	0	0	
3	0	0	0	0	566	310	0	237	0	0	
4	0	0	0	0	564	308	0	233	0	0	
5	0	0	0	0	567	312	0	233	0	0	
6	0	0	0	0	574	319	0	238	0	0	
7	0	0	0	0	584	331	0	245	0	0	
8	0	0	0	0	598	344	0	257	0	0	
9	0	0	0	0	611	358	0	269	0	0	
10	0	0	0	0	623	371	0	281	0	0	
11	0	0	0	0	632	380	0	292	0	0	
12	0	0	0	0	636	384	0	300	0	0	
13	0	0	0	0	635	383	0	303	0	0	
14	0	0	0	0	628	376	0	303	0	0	
15	0	0	0	0	615	363	0	297	0	0	
0	0	0	0	0	598	345	0	287	0	0	
1	0	0	0	0	576	324	0	274	0	0	
2	0	0	0	0	553	302	0	259	0	0	
3	0	0	0	0	530	280	0	242	0	0	
4	0	0	0	0	508	257	0	225	0	0	
5	0	0	0	0	489	238	0	209	0	0	
6	0	0	0	0	473	223	0	194	0	0	
7	0	0	0	0	463	211	0	183	0	0	
8	0	0	0	0	458	206	0	176	0	0	
9	0	0	0	0	459	207	0	173	0	0	
10	0	0	0	0	467	213	0	176	0	0	
11	0	0	0	0	480	225	0	183	0	0	
12	0	0	0	0	497	241	0	195	0	0	
13	0	0	0	0	519	262	0	210	0	0	
14	0	0	0	0	542	283	0	227	0	0	
15	0	0	0	0	564	304	0	243	0	0	
0	0	0	0	0	585	323	0	259	0	0	
1	0	0	0	0	601	338	0	272	0	0	
2	0	0	0	0	614	349	0	283	0	0	
3	0	0	0	0	622	356	0	290	0	0	
4	0	0	0	0	626	359	0	295	0	0	
5	0	0	0	0	626	359	0	295	0	0	
6	0	0	0	0	623	356	0	295	0	0	
7	0	0	0	0	618	351	0	292	0	0	
8	0	0	0	0	611	344	0	288	0	0	
9	0	0	0	0	604	338	0	283	0	0	
10	0	0	0	0	596	332	0	276	0	0	
11	0	0	0	0	588	326	0	270	0	0	
12	0	0	0	0	579	319	0	263	0	0	
13	0	0	0	0	570	313	0	256	0	0	
14	0	0	0	0	560	306	0	249	0	0	
15	0	0	0	0	550	299	0	242	0	0	
0	0	0	0	0	538	290	0	235	0	0	
1	0	0	0	0	526	281	0	228	0	0	
2	0	0	0	0	514	271	0	221	0	0	
3	0	0	0	0	502	260	0	214	0	0	
4	0	0	0	0	491	249	0	207	0	0	
5	0	0	0	0	481	239	0	201	0	0	
6	0	0	0	0	475	231	0	196	0	0	
7	0	0	0	0	472	224	0	192	0	0	
8	0	0	0	0	472	220	0	190	0	0	
9	0	0	0	0	476	220	0	190	0	0	
10	0	0	0	0	485	223	0	193	0	0	
11	0	0	0	0	497	230	0	199	0	0	
12	0	0	0	0	513	240	0	208	0	0	
13	0	0	0	0	532	255	0	220	0	0	
14	0	0	0	0	554	272	0	234	0	0	
15	0	0	0	0	576	292	0	250	0	0	
0	0	0	0	0	598	313	0	267	0	0	
1	0	0	0	0	618	333	0	282	0	0	
2	0	0	0	0	634	351	0	295	0	0	
3	0	0	0	0	647	366	0	305	0	0	
4	0	0	0	0	654	377	0	311	0	0	
5	0	0	0	0	655	383	0	312	0	0	
6	0	0	0	0	650	382	0	309	0	0	
7	0	0	0	0	639	375	0	300	0	0	
8	0	0	0	0	624	364	0	287	0	0	
9	0	0	0	0	604	348	0	270	0	0	
10	0	0	0	0	583	328	0	249	0	0	
11	0	0	0	0	560	307	0	229	0	0	
12	0	0	0	0	539	287	0	209	0	0	
13	0	0	0	0	521	269	0	191	0	0	
14	0	0	0	0	507	253	0	176	0	0	
15	0	0	0	0	497	241	0	165	0	0	
0	0	0	0	0	492	232	0	158	0	0	
1	0	0	0	0	491	228	0	156	0	0	
2	0	0	0	0	496	228	0	158	0	0	
3	0	0	0	0	504	234	0	165	0	0	
4	0	0	0	0	516	243	0	176	0	0	
5	0	0	0	0	529	255	0	190	0	0	
6	0	0	0	0	543	269	0	204	0	0	
7	0	0	0	0	557	283	0	220	0	0	
8	0	0	0	0	569	297	0	236	0	0	
9	0	0	0	0	579	310	0	250	0	0	
10	0	0	0	0	588	321	0	262	0	0	
11	0	0	0	0	593	330	0	271	0	0	
12	0	0	0	0	597	335	0	276	0	0	
13	0	0	0	0	597	337	0	277	0	0	
14	0	0	0	0	594	335	0	274	0	0	
15	0	0	0	0	588	328	0	267	0	0	
0	0	0	0	0	577	319	0	256	0	0	
1	0	0	0	0	566	304	0	243	0	0	
2	0	0	0	0	551	289	0	228	0	0	
3	0	0	0	0	536	272	0	211	0	0	
4	0	0	0	0	521	255	0	196	0	0	
5	0	0	0	0	507	239	0	181	0	0	
6	0	0	0	0	495	225	0	169	0	0	
7	0	0	0	0	487	216	0	162	0	0	
8	0	0	0	0	482	212	0	159	0	0	
9	0	0	0	0	483	212	0	161	0	0	
10	0	0	0	0	488	218	0	167	0	0	
11	0	0	0	0	499	229	0	179	0	0	
12	0	0	0	0	512	243	0	193	0	0	
13	0	0	0	0	527	259	0	209	0	0	
14	0	0	0	0	542	275	0	225	0	0	
15	0	0	0	0	555	290	0	239	0	0	
0	0	0	0	0	567	302	0	251	0	0	
1	0	0	0	0	575	311	0	259	0	0	
2	0	0	0	0	579	316	0	263	0	0	
3	0	0	0	0	580	317	0	264	0	0	
4	0	0	0	0	578	316	0	262	0	0	
5	0	0	0	0	574	312	0	256	0	0	
6	0	0	0	0	569	307	0	249	0	0	
7	0	0	0	0	561	300	0	241	0	0	
8	0	0	0	0	553	293	0	233	0	0	
9	0	0	0	0	546	287	0	225	0	0	
10	0	0	0	0	541	281	0	220	0	0	
11	0	0	0	0	537	278	0	217	0	0	
12	0	0	0	0	535	276	0	216	0	0	
13	0	0	0	0	536	278	0	220	0	0	
14	0	0	0	0	540	283	0	227	0	0	
15	0	0	0	0	546	290	0	236	0	0	
0	0	0	0	0	555	300	0	249	0	0	
1	0	0	0	0	564	310	0	262	0	0	
2	0	0	0	0	573	320	0	275	0	0	
3	0	0	0	0	582	330	0	287	0	0	
4	0	0	0	0	590	337	0	296	0	0	
5	0	0	0	0	595	343	0	304	0	0	
6	0	0	0	0	598	344	0	307	0	0	
7	0	0	0	0	598	344	0	306	0	0	
8	0	0	0	0	596	339	0	302	0	0	
9	0	0	0	0	590	332	0	293	0	0	
10	0	0	0	0	582	322	0	282	0	0	
11	0	0	0	0	571	310	0	269	0	0	
12	0	0	0	0	559	297	0	255	0	0	
13	0	0	0	0	546	285	0	241	0	0	
14	0	0	0	0	535	275	0	229	0	0	
15	0	0	0	0	525	266	0	220	0	0	
0	0	0	0	0	517	259	0	214	0	0	
1	0	0	0	0	511	256	0	211	0	0	
2	0	0	0	0	509	255	0	211	0	0	
3	0	0	0	0	509	257	0	213	0	0	
4	0	0	0	0	511	261	0	218	0	0	
5	0	0	0	0	515	265	0	224	0	0	
6	0	0	0	0	520	271	0	231	0	0	
7	0	0	0	0	526	277	0	237	0	0	
8	0	0	0	0	532	283	0	243	0	0	
9	0	0	0	0	540	288	0	248	0	0	
10	0	0	0	0	547	294	0	252	0	0	
11	0	0	0	0	554	298	0	253	0	0	
12	0	0	0	0	560	301	0	252	0	0	
13	0	0	0	0	567	304	0	250	0	0	
14	0	0	0	0	572	307	0	248	0	0	
15	0	0	0	0	578	310	0	247	0	0	
0	0	0	0	0	584	313	0	246	0	0	
1	0	0	0	0	589	316	0	246	0	0	
2	0	0	0	0	594	321	0	248	0	0	
3	0	0	0	0	598	325	0	251	0	0	
4	0	0	0	0	600	329	0	254	0	0	
5	0	0	0	0	601	332	0	257	0	0	
6	0	0	0	0	600	334	0	261	0	0	
7	0	0	0	0	598	335	0	264	0	0	
8	0	0	0	0	594	336	0	267	0	0	
9	0	0	0	0	589	335	0	269	0	0	
10	0	0	0	0	583	333	0	271	0	0	
11	0	0	0	0	577	330	0	271	0	0	
12	0	0	0	0	573	327	0	271	0	0	
13	0	0	0	0	568	323	0	271	0	0	
14	0	0	0	0	566	320	0	270	0	0	
15	0	0	0	0	565	318	0	268	0	0	
0	0	0	0	0	566	317	0	267	0	0	
1	0	0	0	0	569	316	0	265	0	0	
2	0	0	0	0	573	317	0	264	0	0	
3	0	0	0	0	578	319	0	264	0	0	
4	0	0	0	0	584	322	0	264	0	0	
5	0	0	0	0	590	326	0	265	0	0	
6	0	0	0	0	595	329	0	267	0	0	
7	0	0	0	0	599	332	0	270	0	0	
8	0	0	0	0	600	335	0	274	0	0	
9	0	0	0	0	600	337	0	277	0	0	
10	0	0	0	0	597	336	0	280	0	0	
11	0	0	0	0	591	334	0	281	0	0	
12	0	0	0	0	582	329	0	281	0	0	
13	0	0	0	0	571	323	0	280	0	0	
14	0	0	0	0	559	316	0	278	0	0	
15	0	0	0	0	548	310	0	275	0	0	
0	0	0	0	0	539	303	0	271	0	0	
1	0	0	0	0	531	297	0	267	0	0	
2	0	0	0	0	525	291	0	262	0	0	
3	0	0	0	0	522	287	0	257	0	0	
4	0	0	0	0	520	283	0	252	0	0	
5	0	0	0	0	520	280	0	248	0	0	
6	0	0	0	0	521	277	0	244	0	0	
7	0	0	0	0	522	273	0	240	0	0	
8	0	0	0	0	523	270	0	236	0	0	
9	0	0	0	0	522	266	0	231	0	0	
10	0	0	0	0	520	262	0	227	0	0	
11	0	0	0	0	519	259	0	224	0	0	
12	0	0	0	0	516	255	0	221	0	0	
13	0	0	0	0	514	254	0	218	0	0	
14	0	0	0	0	514	255	0	217	0	0	
15	0	0	0	0	516	259	0	218	0	0	
0	0	0	0	0	520	264	0	220	0	0	
1	0	0	0	0	527	272	0	223	0	0	
2	0	0	0	0	535	282	0	227	0	0	
3	0	0	0	0	544	292	0	232	0	0	
4	0	0	0	0	555	303	0	238	0	0	
5	0	0	0	0	564	313	0	243	0	0	
6	0	0	0	0	572	321	0	248	0	0	
7	0	0	0	0	579	327	0	252	0	0	
8	0	0	0	0	582	329	0	255	0	0	
9	0	0	0	0	582	328	0	256	0	0	
10	0	0	0	0	580	324	0	257	0	0	
11	0	0	0	0	576	319	0	258	0	0	
12	0	0	0	0	570	312	0	258	0	0	
13	0	0	0	0	564	304	0	258	0	0	
14	0	0	0	0	559	298	0	258	0	0	
15	0	0	0	0	554	294	0	260	0	0	
0	0	0	0	0	551	291	0	262	0	0	
1	0	0	0	0	550	291	0	265	0	0	
2	0	0	0	0	551	294	0	270	0	0	
3	0	0	0	0	556	300	0	275	0	0	
4	0	0	0	0	561	308	0	283	0	0	
5	0	0	0	0	569	318	0	289	0	0	
6	0	0	0	0	577	327	0	295	0	0	
7	0	0	0	0	583	336	0	300	0	0	
8	0	0	0	0	589	343	0	303	0	0	
9	0	0	0	0	592	346	0	303	0	0	
10	0	0	0	0	592	346	0	300	0	0	
11	0	0	0	0	590	343	0	295	0	0	
12	0	0	0	0	585	336	0	287	0	0	
13	0	0	0	0	579	328	0	278	0	0	
14	0	0	0	0	572	319	0	268	0	0	
15	0	0	0	0	565	310	0	259	0	0	
0	0	0	0	0	558	302	0	251	0	0	
1	0	0	0	0	553	295	0	246	0	0	
2	0	0	0	0	551	291	0	241	0	0	
3	0	0	0	0	548	288	0	240	0	0	
4	0	0	0	0	547	287	0	241	0	0	
5	0	0	0	0	547	288	0	243	0	0	
6	0	0	0	0	548	289	0	247	0	0	
7	0	0	0	0	548	291	0	250	0	0	
8	0	0	0	0	548	294	0	254	0	0	
9	0	0	0	0	548	296	0	256	0	0	
10	0	0	0	0	547	297	0	258	0	0	
11	0	0	0	0	544	298	0	258	0	0	
12	0	0	0	0	542	297	0	257	0	0	
13	0	0	0	0	538	297	0	255	0	0	
14	0	0	0	0	536	295	0	252	0	0	
15	0	0	0	0	534	295	0	249	0	0	
0	0	0	0	0	533	294	0	247	0	0	
1	0	0	0	0	535	294	0	246	0	0	
2	0	0	0	0	537	295	0	247	0	0	
3	0	0	0	0	543	297	0	249	0	0	
4	0	0	0	0	550	301	0	254	0	0	
5	0	0	0	0	559	305	0	259	0	0	
6	0	0	0	0	567	310	0	265	0	0	
7	0	0	0	0	576	315	0	272	0	0	
8	0	0	0	0	583	320	0	279	0	0	
9	0	0	0	0	590	324	0	284	0	0	
10	0	0	0	0	592	327	0	289	0	0	
11	0	0	0	0	593	328	0	292	0	0	
12	0	0	0	0	591	328	0	293	0	0	
13	0	0	0	0	585	326	0	292	0	0	
14	0	0	0	0	577	321	0	289	0	0	
15	0	0	0	0	566	313	0	284	0	0	
0	0	0	0	0	554	305	0	278	0	0	
1	0	0	0	0	540	295	0	270	0	0	
2	0	0	0	0	529	286	0	262	0	0	
3	0	0	0	0	518	277	0	254	0	0	
4	0	0	0	0	510	270	0	247	0	0	
5	0	0	0	0	506	265	0	242	0	0	
6	0	0	0	0	505	263	0	239	0	0	
7	0	0	0	0	509	263	0	239	0	0	
8	0	0	0	0	516	267	0	242	0	0	
9	0	0	0	0	527	273	0	247	0	0	
10	0	0	0	0	540	281	0	253	0	0	
11	0	0	0	0	554	291	0	262	0	0	
12	0	0	0	0	568	302	0	272	0	0	
13	0	0	0	0	582	313	0	283	0	0	
14	0	0	0	0	593	323	0	293	0	0	
15	0	0	0	0	603	333	0	303	0	0	
0	0	0	0	0	609	342	0	312	0	0	
1	0	0	0	0	614	348	0	320	0	0	
2	0	0	0	0	615	354	0	326	0	0	
3	0	0	0	0	615	357	0	330	0	0	
4	0	0	0	0	612	358	0	331	0	0	
5	0	0	0	0	607	356	0	330	0	0	
6	0	0	0	0	601	352	0	327	0	0	
7	0	0	0	0	594	347	0	322	0	0	
8	0	0	0	0	586	339	0	316	0	0	
9	0	0	0	0	579	332	0	310	0	0	
10	0	0	0	0	574	326	0	304	0	0	
11	0	0	0	0	571	320	0	300	0	0	
12	0	0	0	0	569	316	0	297	0	0	
13	0	0	0	0	569	314	0	295	0	0	
14	0	0	0	0	572	315	0	295	0	0	
15	0	0	0	0	577	317	0	298	0	0	
0	0	0	0	0	582	321	0	301	0	0	
1	0	0	0	0	587	326	0	306	0	0	
2	0	0	0	0	591	330	0	310	0	0	
3	0	0	0	0	592	332	0	311	0	0	
4	0	0	0	0	588	332	0	311	0	0	
5	0	0	0	0	582	328	0	308	0	0	
6	0	0	0	0	571	321	0	302	0	0	
7	0	0	0	0	557	312	0	294	0	0	
8	0	0	0	0	543	301	0	283	0	0	
9	0	0	0	0	528	289	0	273	0	0	
10	0	0	0	0	515	278	0	262	0	0	
11	0	0	0	0	505	267	0	252	0	0	
12	0	0	0	0	498	258	0	243	0	0	
13	0	0	0	0	494	250	0	235	0	0	
14	0	0	0	0	492	244	0	228	0	0	
15	0	0	0	0	494	241	0	224	0	0	
0	0	0	0	0	497	239	0	223	0	0	
1	0	0	0	0	503	240	0	223	0	0	
2	0	0	0	0	510	243	0	225	0	0	
3	0	0	0	0	519	248	0	231	0	0	
4	0	0	0	0	528	256	0	238	0	0	
5	0	0	0	0	537	265	0	247	0	0	
6	0	0	0	0	547	277	0	258	0	0	
7	0	0	0	0	559	291	0	270	0	0	
8	0	0	0	0	571	305	0	282	0	0	
9	0	0	0	0	582	319	0	295	0	0	
10	0	0	0	0	593	333	0	307	0	0	
11	0	0	0	0	603	345	0	317	0	0	
12	0	0	0	0	611	354	0	326	0	0	
13	0	0	0	0	615	359	0	332	0	0	
14	0	0	0	0	617	361	0	333	0	0	
15	0	0	0	0	615	359	0	332	0	0	
0	0	0	0	0	610	353	0	327	0	0	
1	0	0	0	0	603	344	0	320	0	0	
2	0	0	0	0	592	333	0	311	0	0	
3	0	0	0	0	582	321	0	301	0	0	
4	0	0	0	0	571	310	0	291	0	0	
5	0	0	0	0	560	299	0	281	0	0	
6	0	0	0	0	551	289	0	274	0	0	
7	0	0	0	0	542	282	0	268	0	0	
8	0	0	0	0	535	277	0	264	0	0	
9	0	0	0	0	530	274	0	263	0	0	
10	0	0	0	0	527	272	0	264	0	0	
11	0	0	0	0	526	274	0	266	0	0	
12	0	0	0	0	527	278	0	271	0	0	
13	0	0	0	0	530	283	0	277	0	0	
14	0	0	0	0	536	290	0	284	0	0	
15	0	0	0	0	542	297	0	291	0	0	
0	0	0	0	0	550	304	0	296	0	0	
1	0	0	0	0	557	310	0	302	0	0	
2	0	0	0	0	565	316	0	306	0	0	
3	0	0	0	0	573	321	0	308	0	0	
4	0	0	0	0	580	324	0	309	0	0	
5	0	0	0	0	586	327	0	308	0	0	
6	0	0	0	0	591	328	0	306	0	0	
7	0	0	0	0	595	327	0	302	0	0	
8	0	0	0	0	596	325	0	298	0	0	
9	0	0	0	0	595	321	0	293	0	0	
10	0	0	0	0	591	315	0	287	0	0	
11	0	0	0	0	583	308	0	282	0	0	
12	0	0	0	0	573	300	0	278	0	0	
13	0	0	0	0	560	291	0	273	0	0	
14	0	0	0	0	547	282	0	270	0	0	
15	0	0	0	0	534	273	0	267	0	0	
0	0	0	0	0	520	266	0	265	0	0	
1	0	0	0	0	510	260	0	263	0	0	
2	0	0	0	0	503	256	0	263	0	0	
3	0	0	0	0	500	257	0	265	0	0	
4	0	0	0	0	503	261	0	270	0	0	
5	0	0	0	0	511	268	0	275	0	0	
6	0	0	0	0	522	277	0	281	0	0	
7	0	0	0	0	537	288	0	288	0	0	
8	0	0	0	0	552	299	0	295	0	0	
9	0	0	0	0	568	309	0	301	0	0	
10	0	0	0	0	584	319	0	308	0	0	
11	0	0	0	0	597	327	0	313	0	0	
12	0	0	0	0	607	334	0	317	0	0	
13	0	0	0	0	614	337	0	320	0	0	
14	0	0	0	0	616	339	0	320	0	0	
15	0	0	0	0	615	337	0	319	0	0	
0	0	0	0	0	609	334	0	318	0	0	
1	0	0	0	0	601	330	0	315	0	0	
2	0	0	0	0	590	324	0	311	0	0	
3	0	0	0	0	578	318	0	305	0	0	
4	0	0	0	0	565	311	0	300	0	0	
5	0	0	0	0	553	305	0	294	0	0	
6	0	0	0	0	542	300	0	287	0	0	
7	0	0	0	0	532	295	0	280	0	0	
8	0	0	0	0	526	290	0	273	0	0	
9	0	0	0	0	520	285	0	266	0	0	
10	0	0	0	0	516	281	0	259	0	0	
11	0	0	0	0	514	276	0	253	0	0	
12	0	0	0	0	512	270	0	247	0	0	
13	0	0	0	0	511	264	0	242	0	0	
14	0	0	0	0	511	259	0	238	0	0	
15	0	0	0	0	511	252	0	235	0	0	
0	0	0	0	0	511	247	0	234	0	0	
1	0	0	0	0	512	243	0	234	0	0	
2	0	0	0	0	514	242	0	236	0	0	
3	0	0	0	0	516	242	0	240	0	0	
4	0	0	0	0	519	244	0	246	0	0	
5	0	0	0	0	523	249	0	252	0	0	
6	0	0	0	0	526	254	0	260	0	0	
7	0	0	0	0	529	261	0	268	0	0	
8	0	0	0	0	532	268	0	277	0	0	
9	0	0	0	0	535	274	0	284	0	0	
10	0	0	0	0	536	280	0	290	0	0	
11	0	0	0	0	539	286	0	295	0	0	
12	0	0	0	0	541	291	0	299	0	0	
13	0	0	0	0	543	295	0	302	0	0	
14	0	0	0	0	546	299	0	303	0	0	
15	0	0	0	0	550	302	0	302	0	0	
0	0	0	0	0	553	304	0	301	0	0	
1	0	0	0	0	559	306	0	300	0	0	
2	0	0	0	0	564	309	0	299	0	0	
3	0	0	0	0	571	312	0	297	0	0	
4	0	0	0	0	579	315	0	297	0	0	
5	0	0	0	0	585	319	0	297	0	0	
6	0	0	0	0	593	323	0	298	0	0	
7	0	0	0	0	599	327	0	300	0	0	
8	0	0	0	0	603	332	0	304	0	0	
9	0	0	0	0	606	335	0	307	0	0	
10	0	0	0	0	606	338	0	312	0	0	
11	0	0	0	0	605	340	0	316	0	0	
12	0	0	0	0	603	342	0	321	0	0	
13	0	0	0	0	599	343	0	326	0	0	
14	0	0	0	0	594	342	0	331	0	0	
15	0	0	0	0	590	342	0	334	0	0	
0	0	0	0	0	586	341	0	337	0	0	
1	0	0	0	0	582	340	0	338	0	0	
2	0	0	0	0	579	337	0	337	0	0	
3	0	0	0	0	575	334	0	332	0	0	
4	0	0	0	0	571	327	0	324	0	0	
5	0	0	0	0	566	319	0	313	0	0	
6	0	0	0	0	559	309	0	300	0	0	
7	0	0	0	0	550	296	0	284	0	0	
8	0	0	0	0	541	284	0	268	0	0	
9	0	0	0	0	530	270	0	251	0	0	
10	0	0	0	0	520	258	0	235	0	0	
11	0	0	0	0	511	248	0	223	0	0	
12	0	0	0	0	504	240	0	214	0	0	
13	0	0	0	0	501	237	0	208	0	0	
14	0	0	0	0	499	237	0	207	0	0	
15	0	0	0	0	503	240	0	209	0	0	
0	0	0	0	0	507	247	0	215	0	0	
1	0	0	0	0	514	255	0	222	0	0	
2	0	0	0	0	521	264	0	231	0	0	
3	0	0	0	0	529	273	0	239	0	0	
4	0	0	0	0	538	281	0	247	0	0	
5	0	0	0	0	545	288	0	253	0	0	
6	0	0	0	0	552	294	0	257	0	0	
7	0	0	0	0	558	299	0	260	0	0	
8	0	0	0	0	563	302	0	260	0	0	
9	0	0	0	0	568	304	0	260	0	0	
10	0	0	0	0	573	307	0	259	0	0	
11	0	0	0	0	577	309	0	258	0	0	
12	0	0	0	0	582	311	0	256	0	0	
13	0	0	0	0	585	313	0	255	0	0	
14	0	0	0	0	589	316	0	256	0	0	
15	0	0	0	0	591	319	0	257	0	0	
0	0	0	0	0	594	321	0	259	0	0	
1	0	0	0	0	596	324	0	261	0	0	
2	0	0	0	0	596	327	0	263	0	0	
3	0	0	0	0	596	331	0	265	0	0	
4	0	0	0	0	595	333	0	267	0	0	
5	0	0	0	0	593	334	0	268	0	0	
6	0	0	0	0	590	334	0	268	0	0	
7	0	0	0	0	585	332	0	267	0	0	
8	0	0	0	0	580	329	0	263	0	0	
9	0	0	0	0	573	323	0	258	0	0	
10	0	0	0	0	565	316	0	251	0	0	
11	0	0	0	0	556	307	0	242	0	0	
12	0	0	0	0	545	296	0	231	0	0	
13	0	0	0	0	534	284	0	219	0	0	
14	0	0	0	0	520	269	0	205	0	0	
15	0	0	0	0	505	252	0	190	0	0	
0	0	0	0	0	487	233	0	173	0	0	
1	0	0	0	0	466	212	0	155	0	0	
2	0	0	0	0	445	191	0	138	0	0	
3	0	0	0	0	423	169	0	120	0	0	
4	0	0	0	0	403	150	0	103	0	0	
5	0	0	0	0	383	131	0	87	0	0	
6	0	0	0	0	365	116	0	72	0	0	
7	0	0	0	0	350	103	0	59	0	0	
8	0	0	0	0	338	93	0	47	0	0	
9	0	0	0	0	328	85	0	36	0	0	
10	0	0	0	0	320	78	0	25	0	0	
11	0	0	0	0	313	72	0	16	0	0	
12	0	0	0	0	309	67	0	9	0	0	
13	0	0	0	0	305	62	0	2	0	0	
14	0	0	0	0	302	56	0	0	0	0	
15	0	0	0	0	300	52	0	0	0	0	
0	0	0	0	0	301	49	0	0	0	0	
1	0	0	0	0	304	47	0	0	0	0	
2	0	0	0	0	310	49	0	0	0	0	
3	0	0	0	0	320	54	0	3	0	0	
4	0	0	0	0	333	62	0	10	0	0	
5	0	0	0	0	350	74	0	22	0	0	
6	0	0	0	0	370	91	0	37	0	0	
7	0	0	0	0	393	111	0	57	0	0	
8	0	0	0	0	420	136	0	80	0	0	
9	0	0	0	0	448	164	0	107	0	0	
10	0	0	0	0	477	194	0	135	0	0	
11	0	0	0	0	507	226	0	166	0	0	
12	0	0	0	0	535	257	0	195	0	0	
13	0	0	0	0	560	286	0	223	0	0	
14	0	0	0	0	581	311	0	247	0	0	
15	0	0	0	0	598	332	0	267	0	0	
0	0	0	0	0	609	348	0	281	0	0	
1	0	0	0	0	614	357	0	289	0	0	
2	0	0	0	0	613	359	0	291	0	0	
3	0	0	0	0	608	356	0	287	0	0	
4	0	0	0	0	598	347	0	279	0	0	
5	0	0	0	0	585	333	0	265	0	0	
6	0	0	0	0	569	318	0	251	0	0	
7	0	0	0	0	552	301	0	236	0	0	
8	0	0	0	0	536	284	0	221	0	0	
9	0	0	0	0	521	269	0	207	0	0	
10	0	0	0	0	508	256	0	198	0	0	
11	0	0	0	0	498	248	0	191	0	0	
12	0	0	0	0	493	243	0	188	0	0	
13	0	0	0	0	493	244	0	189	0	0	
14	0	0	0	0	498	250	0	195	0	0	
15	0	0	0	0	508	261	0	204	0	0	
0	0	0	0	0	521	274	0	215	0	0	
1	0	0	0	0	537	290	0	228	0	0	
2	0	0	0	0	553	306	0	240	0	0	
3	0	0	0	0	569	320	0	251	0	0	
4	0	0	0	0	582	332	0	259	0	0	
5	0	0	0	0	591	341	0	266	0	0	
6	0	0	0	0	597	346	0	269	0	0	
7	0	0	0	0	600	347	0	269	0	0	
8	0	0	0	0	598	345	0	267	0	0	
9	0	0	0	0	594	339	0	262	0	0	
10	0	0	0	0	587	332	0	256	0	0	
11	0	0	0	0	578	323	0	248	0	0	
12	0	0	0	0	568	314	0	240	0	0	
13	0	0	0	0	559	305	0	233	0	0	
14	0	0	0	0	550	298	0	227	0	0	
15	0	0	0	0	544	294	0	222	0	0	
0	0	0	0	0	541	293	0	220	0	0	
1	0	0	0	0	542	296	0	221	0	0	
2	0	0	0	0	546	303	0	225	0	0	
3	0	0	0	0	554	313	0	231	0	0	
4	0	0	0	0	565	326	0	239	0	0	
5	0	0	0	0	576	339	0	247	0	0	
6	0	0	0	0	588	352	0	255	0	0	
7	0	0	0	0	598	363	0	263	0	0	
8	0	0	0	0	607	371	0	269	0	0	
9	0	0	0	0	612	376	0	274	0	0	
10	0	0	0	0	614	377	0	276	0	0	
11	0	0	0	0	611	374	0	275	0	0	
12	0	0	0	0	606	367	0	273	0	0	
13	0	0	0	0	597	358	0	268	0	0	
14	0	0	0	0	587	348	0	263	0	0	
15	0	0	0	0	575	335	0	259	0	0	
0	0	0	0	0	563	323	0	254	0	0	
1	0	0	0	0	551	312	0	249	0	0	
2	0	0	0	0	540	302	0	246	0	0	
3	0	0	0	0	532	295	0	244	0	0	
4	0	0	0	0	527	290	0	243	0	0	
5	0	0	0	0	524	288	0	245	0	0	
6	0	0	0	0	524	289	0	247	0	0	
7	0	0	0	0	526	291	0	250	0	0	
8	0	0	0	0	529	295	0	253	0	0	
9	0	0	0	0	533	300	0	256	0	0	
10	0	0	0	0	537	304	0	259	0	0	
11	0	0	0	0	540	308	0	260	0	0	
12	0	0	0	0	543	312	0	260	0	0	
13	0	0	0	0	545	314	0	259	0	0	
14	0	0	0	0	547	315	0	257	0	0	
15	0	0	0	0	550	316	0	254	0	0	
0	0	0	0	0	551	316	0	251	0	0	
1	0	0	0	0	553	315	0	248	0	0	
2	0	0	0	0	554	314	0	244	0	0	
3	0	0	0	0	555	312	0	241	0	0	
4	0	0	0	0	556	311	0	239	0	0	
5	0	0	0	0	558	312	0	239	0	0	
6	0	0	0	0	562	313	0	241	0	0	
7	0	0	0	0	567	318	0	245	0	0	
8	0	0	0	0	573	325	0	252	0	0	
9	0	0	0	0	581	334	0	259	0	0	
10	0	0	0	0	589	344	0	268	0	0	
11	0	0	0	0	597	353	0	277	0	0	
12	0	0	0	0	602	362	0	284	0	0	
13	0	0	0	0	604	368	0	287	0	0	
14	0	0	0	0	603	369	0	288	0	0	
15	0	0	0	0	597	367	0	285	0	0	
0	0	0	0	0	589	361	0	279	0	0	
1	0	0	0	0	576	352	0	269	0	0	
2	0	0	0	0	561	339	0	257	0	0	
3	0	0	0	0	544	323	0	243	0	0	
4	0	0	0	0	526	305	0	228	0	0	
5	0	0	0	0	510	288	0	214	0	0	
6	0	0	0	0	494	271	0	201	0	0	
7	0	0	0	0	480	256	0	190	0	0	
8	0	0	0	0	470	244	0	181	0	0	
9	0	0	0	0	463	235	0	176	0	0	
10	0	0	0	0	462	231	0	175	0	0	
11	0	0	0	0	463	230	0	177	0	0	
12	0	0	0	0	467	234	0	183	0	0	
13	0	0	0	0	475	241	0	191	0	0	
14	0	0	0	0	484	251	0	201	0	0	
15	0	0	0	0	495	262	0	213	0	0	
0	0	0	0	0	505	275	0	225	0	0	
1	0	0	0	0	516	287	0	236	0	0	
2	0	0	0	0	526	300	0	247	0	0	
3	0	0	0	0	535	311	0	255	0	0	
4	0	0	0	0	543	321	0	261	0	0	
5	0	0	0	0	550	329	0	265	0	0	
6	0	0	0	0	555	336	0	266	0	0	
7	0	0	0	0	560	341	0	265	0	0	
8	0	0	0	0	563	343	0	263	0	0	
9	0	0	0	0	566	344	0	259	0	0	
10	0	0	0	0	567	342	0	254	0	0	
11	0	0	0	0	566	340	0	250	0	0	
12	0	0	0	0	566	336	0	246	0	0	
13	0	0	0	0	564	332	0	243	0	0	
14	0	0	0	0	562	329	0	241	0	0	
15	0	0	0	0	560	326	0	241	0	0	
0	0	0	0	0	556	323	0	242	0	0	
1	0	0	0	0	553	321	0	244	0	0	
2	0	0	0	0	549	320	0	247	0	0	
3	0	0	0	0	544	319	0	250	0	0	
4	0	0	0	0	540	318	0	252	0	0	
5	0	0	0	0	535	317	0	254	0	0	
6	0	0	0	0	530	316	0	255	0	0	
7	0	0	0	0	524	313	0	253	0	0	
8	0	0	0	0	519	310	0	250	0	0	
9	0	0	0	0	513	306	0	245	0	0	
10	0	0	0	0	509	301	0	240	0	0	
11	0	0	0	0	505	296	0	233	0	0	
12	0	0	0	0	504	292	0	227	0	0	
13	0	0	0	0	504	290	0	222	0	0	
14	0	0	0	0	506	289	0	219	0	0	
15	0	0	0	0	510	289	0	216	0	0	
0	0	0	0	0	516	291	0	216	0	0	
1	0	0	0	0	523	294	0	218	0	0	
2	0	0	0	0	530	298	0	222	0	0	
3	0	0	0	0	538	305	0	227	0	0	
4	0	0	0	0	546	312	0	235	0	0	
5	0	0	0	0	553	319	0	242	0	0	
6	0	0	0	0	559	326	0	251	0	0	
7	0	0	0	0	563	333	0	259	0	0	
8	0	0	0	0	567	339	0	267	0	0	
9	0	0	0	0	569	344	0	273	0	0	
10	0	0	0	0	571	349	0	278	0	0	
11	0	0	0	0	570	352	0	281	0	0	
12	0	0	0	0	570	354	0	282	0	0	
13	0	0	0	0	568	355	0	280	0	0	
14	0	0	0	0	566	353	0	276	0	0	
15	0	0	0	0	563	350	0	269	0	0	
0	0	0	0	0	558	344	0	260	0	0	
1	0	0	0	0	552	337	0	250	0	0	
2	0	0	0	0	546	329	0	241	0	0	
3	0	0	0	0	540	322	0	232	0	0	
4	0	0	0	0	536	316	0	226	0	0	
5	0	0	0	0	533	311	0	222	0	0	
6	0	0	0	0	531	307	0	220	0	0	
7	0	0	0	0	529	306	0	221	0	0	
8	0	0	0	0	529	306	0	225	0	0	
9	0	0	0	0	530	307	0	230	0	0	
10	0	0	0	0	531	310	0	236	0	0	
11	0	0	0	0	531	312	0	243	0	0	
12	0	0	0	0	532	316	0	251	0	0	
13	0	0	0	0	532	319	0	256	0	0	
14	0	0	0	0	532	321	0	261	0	0	
15	0	0	0	0	532	323	0	265	0	0	
0	0	0	0	0	532	324	0	266	0	0	
1	0	0	0	0	531	325	0	267	0	0	
2	0	0	0	0	531	325	0	265	0	0	
3	0	0	0	0	531	324	0	262	0	0	
4	0	0	0	0	532	322	0	259	0	0	
5	0	0	0	0	533	321	0	255	0	0	
6	0	0	0	0	536	320	0	252	0	0	
7	0	0	0	0	538	320	0	248	0	0	
8	0	0	0	0	541	319	0	245	0	0	
9	0	0	0	0	543	319	0	241	0	0	
10	0	0	0	0	545	318	0	238	0	0	
11	0	0	0	0	544	316	0	235	0	0	
12	0	0	0	0	543	314	0	231	0	0	
13	0	0	0	0	539	312	0	228	0	0	
14	0	0	0	0	535	310	0	225	0	0	
15	0	0	0	0	530	307	0	223	0	0	
0	0	0	0	0	526	307	0	222	0	0	
1	0	0	0	0	521	305	0	221	0	0	
2	0	0	0	0	516	305	0	222	0	0	
3	0	0	0	0	513	305	0	224	0	0	
4	0	0	0	0	512	306	0	227	0	0	
5	0	0	0	0	512	308	0	232	0	0	
6	0	0	0	0	515	311	0	237	0	0	
7	0	0	0	0	518	313	0	242	0	0	
8	0	0	0	0	521	314	0	246	0	0	
9	0	0	0	0	525	315	0	248	0	0	
10	0	0	0	0	526	314	0	249	0	0	
11	0	0	0	0	526	311	0	248	0	0	
12	0	0	0	0	524	307	0	246	0	0	
13	0	0	0	0	520	301	0	242	0	0	
14	0	0	0	0	516	296	0	238	0	0	
15	0	0	0	0	512	292	0	233	0	0	
0	0	0	0	0	508	289	0	230	0	0	
1	0	0	0	0	504	287	0	227	0	0	
2	0	0	0	0	502	287	0	226	0	0	
3	0	0	0	0	501	289	0	226	0	0	
4	0	0	0	0	501	293	0	227	0	0	
5	0	0	0	0	504	298	0	229	0	0	
6	0	0	0	0	509	305	0	232	0	0	
7	0	0	0	0	515	314	0	236	0	0	
8	0	0	0	0	524	322	0	239	0	0	
9	0	0	0	0	532	330	0	243	0	0	
10	0	0	0	0	541	336	0	246	0	0	
11	0	0	0	0	548	341	0	247	0	0	
12	0	0	0	0	554	343	0	248	0	0	
13	0	0	0	0	559	344	0	248	0	0	
14	0	0	0	0	561	344	0	247	0	0	
15	0	0	0	0	562	341	0	245	0	0	
0	0	0	0	0	561	338	0	243	0	0	
1	0	0	0	0	559	334	0	241	0	0	
2	0	0	0	0	555	329	0	239	0	0	
3	0	0	0	0	549	324	0	237	0	0	
4	0	0	0	0	543	319	0	236	0	0	
5	0	0	0	0	536	316	0	235	0	0	
6	0	0	0	0	530	313	0	236	0	0	
7	0	0	0	0	526	312	0	237	0	0	
8	0	0	0	0	522	312	0	239	0	0	
9	0	0	0	0	519	312	0	240	0	0	
10	0	0	0	0	518	313	0	241	0	0	
11	0	0	0	0	516	313	0	241	0	0	
12	0	0	0	0	515	312	0	240	0	0	
13	0	0	0	0	514	311	0	239	0	0	
14	0	0	0	0	515	311	0	237	0	0	
15	0	0	0	0	515	310	0	236	0	0	
0	0	0	0	0	517	309	0	236	0	0	
1	0	0	0	0	520	310	0	237	0	0	
2	0	0	0	0	523	311	0	239	0	0	
3	0	0	0	0	527	313	0	242	0	0	
4	0	0	0	0	532	316	0	246	0	0	
5	0	0	0	0	536	318	0	250	0	0	
6	0	0	0	0	540	322	0	255	0	0	
7	0	0	0	0	543	326	0	260	0	0	
8	0	0	0	0	544	328	0	264	0	0	
9	0	0	0	0	544	331	0	268	0	0	
10	0	0	0	0	541	333	0	271	0	0	
11	0	0	0	0	539	334	0	273	0	0	
12	0	0	0	0	535	335	0	275	0	0	
13	0	0	0	0	531	336	0	275	0	0	
14	0	0	0	0	528	337	0	275	0	0	
15	0	0	0	0	526	338	0	274	0	0	
0	0	0	0	0	526	339	0	273	0	0	
