# OpenSignals Text File Format. Version 1
# {"": {"position": 0, "device": "", "device name": "", "device connection": "", "sampling rate": 1000, "resolution": [4, 1, 1, 1, 1, 10, 10, 10, 10, 6, 6], "firmware version": 1281, "comments": "", "keywords": "", "mode": 0, "sync interval": 2, "date": "", "time": "", "channels": [1, 2, 3, 4, 5, 6], "sensor": ["RAW", "RAW", "RAW", "RAW", "RAW", "RAW"], "label": ["A1", "A2", "A3", "A4", "A5", "A6"], "column": ["nSeq", "I1", "I2", "O1", "O2", "A1", "A2", "A3", "A4", "A5", "A6"], "special": [{}, {}, {}, {}, {}, {}], "digital IO": [0, 0, 1, 1]}}
# EndOfHeader
0	0	0	0	0	432	383	0	320	0	0	
1	0	0	0	0	446	390	0	325	0	0	
2	0	0	0	0	461	398	0	332	0	0	
3	0	0	0	0	476	406	0	339	0	0	
4	0	0	0	0	488	414	0	346	0	0	
5	0	0	0	0	495	419	0	353	0	0	
6	0	0	0	0	496	423	0	359	0	0	
7	0	0	0	0	491	423	0	364	0	0	
8	0	0	0	0	482	422	0	367	0	0	
9	0	0	0	0	469	419	0	368	0	0	
10	0	0	0	0	456	414	0	367	0	0	
11	0	0	0	0	444	408	0	366	0	0	
12	0	0	0	0	435	403	0	364	0	0	
13	0	0	0	0	433	400	0	361	0	0	
14	0	0	0	0	436	398	0	358	0	0	
15	0	0	0	0	446	398	0	356	0	0	
0	0	0	0	0	459	399	0	354	0	0	
1	0	0	0	0	476	402	0	353	0	0	
2	0	0	0	0	492	406	0	352	0	0	
3	0	0	0	0	506	409	0	351	0	0	
4	0	0	0	0	517	412	0	351	0	0	
5	0	0	0	0	522	415	0	351	0	0	
6	0	0	0	0	522	416	0	351	0	0	
7	0	0	0	0	518	416	0	352	0	0	
8	0	0	0	0	509	416	0	352	0	0	
9	0	0	0	0	499	416	0	353	0	0	
10	0	0	0	0	489	416	0	353	0	0	
11	0	0	0	0	481	416	0	355	0	0	
12	0	0	0	0	475	415	0	355	0	0	
13	0	0	0	0	470	414	0	355	0	0	
14	0	0	0	0	468	412	0	355	0	0	
15	0	0	0	0	467	411	0	354	0	0	
0	0	0	0	0	464	409	0	353	0	0	
1	0	0	0	0	462	408	0	352	0	0	
2	0	0	0	0	459	409	0	351	0	0	
3	0	0	0	0	455	410	0	350	0	0	
4	0	0	0	0	450	412	0	350	0	0	
5	0	0	0	0	446	415	0	350	0	0	
6	0	0	0	0	441	418	0	351	0	0	
7	0	0	0	0	439	422	0	352	0	0	
8	0	0	0	0	437	425	0	354	0	0	
9	0	0	0	0	438	429	0	356	0	0	
10	0	0	0	0	440	434	0	360	0	0	
11	0	0	0	0	442	437	0	363	0	0	
12	0	0	0	0	447	441	0	366	0	0	
13	0	0	0	0	453	444	0	369	0	0	
14	0	0	0	0	460	447	0	371	0	0	
15	0	0	0	0	468	451	0	374	0	0	
0	0	0	0	0	478	454	0	375	0	0	
1	0	0	0	0	487	457	0	376	0	0	
2	0	0	0	0	497	460	0	376	0	0	
3	0	0	0	0	507	461	0	375	0	0	
4	0	0	0	0	516	460	0	372	0	0	
5	0	0	0	0	523	455	0	368	0	0	
6	0	0	0	0	526	450	0	364	0	0	
7	0	0	0	0	526	441	0	358	0	0	
8	0	0	0	0	523	433	0	353	0	0	
9	0	0	0	0	515	425	0	348	0	0	
10	0	0	0	0	504	419	0	343	0	0	
11	0	0	0	0	495	415	0	340	0	0	
12	0	0	0	0	487	413	0	337	0	0	
13	0	0	0	0	481	414	0	336	0	0	
14	0	0	0	0	480	417	0	335	0	0	
15	0	0	0	0	482	422	0	335	0	0	
0	0	0	0	0	487	427	0	335	0	0	
1	0	0	0	0	492	431	0	336	0	0	
2	0	0	0	0	495	434	0	336	0	0	
3	0	0	0	0	494	434	0	335	0	0	
4	0	0	0	0	490	432	0	335	0	0	
5	0	0	0	0	482	426	0	334	0	0	
6	0	0	0	0	472	416	0	332	0	0	
7	0	0	0	0	463	406	0	329	0	0	
8	0	0	0	0	455	393	0	327	0	0	
9	0	0	0	0	451	380	0	326	0	0	
10	0	0	0	0	453	367	0	324	0	0	
11	0	0	0	0	460	357	0	324	0	0	
12	0	0	0	0	467	350	0	325	0	0	
13	0	0	0	0	474	346	0	327	0	0	
14	0	0	0	0	478	346	0	329	0	0	
15	0	0	0	0	476	350	0	333	0	0	
0	0	0	0	0	471	358	0	338	0	0	
1	0	0	0	0	462	368	0	343	0	0	
2	0	0	0	0	451	381	0	349	0	0	
3	0	0	0	0	437	395	0	354	0	0	
4	0	0	0	0	424	408	0	360	0	0	
5	0	0	0	0	414	421	0	365	0	0	
6	0	0	0	0	406	433	0	370	0	0	
7	0	0	0	0	401	442	0	373	0	0	
8	0	0	0	0	400	448	0	375	0	0	
9	0	0	0	0	403	452	0	375	0	0	
10	0	0	0	0	409	453	0	374	0	0	
11	0	0	0	0	418	451	0	371	0	0	
12	0	0	0	0	428	447	0	368	0	0	
13	0	0	0	0	439	441	0	364	0	0	
14	0	0	0	0	451	436	0	359	0	0	
15	0	0	0	0	461	430	0	356	0	0	
0	0	0	0	0	471	426	0	353	0	0	
1	0	0	0	0	479	423	0	351	0	0	
2	0	0	0	0	486	421	0	350	0	0	
3	0	0	0	0	493	422	0	351	0	0	
4	0	0	0	0	497	424	0	352	0	0	
5	0	0	0	0	499	428	0	355	0	0	
6	0	0	0	0	499	432	0	358	0	0	
7	0	0	0	0	498	436	0	361	0	0	
8	0	0	0	0	496	440	0	364	0	0	
9	0	0	0	0	494	444	0	367	0	0	
10	0	0	0	0	491	446	0	368	0	0	
11	0	0	0	0	487	447	0	369	0	0	
12	0	0	0	0	483	446	0	369	0	0	
13	0	0	0	0	480	444	0	367	0	0	
14	0	0	0	0	477	440	0	365	0	0	
15	0	0	0	0	477	438	0	362	0	0	
0	0	0	0	0	479	435	0	360	0	0	
1	0	0	0	0	484	432	0	358	0	0	
2	0	0	0	0	493	431	0	355	0	0	
3	0	0	0	0	504	428	0	352	0	0	
4	0	0	0	0	516	425	0	350	0	0	
5	0	0	0	0	530	422	0	348	0	0	
6	0	0	0	0	544	418	0	346	0	0	
7	0	0	0	0	559	415	0	345	0	0	
8	0	0	0	0	570	411	0	344	0	0	
9	0	0	0	0	577	408	0	345	0	0	
10	0	0	0	0	579	405	0	346	0	0	
11	0	0	0	0	576	402	0	348	0	0	
12	0	0	0	0	570	400	0	348	0	0	
13	0	0	0	0	561	399	0	349	0	0	
14	0	0	0	0	550	400	0	350	0	0	
15	0	0	0	0	538	401	0	349	0	0	
0	0	0	0	0	524	403	0	348	0	0	
1	0	0	0	0	507	404	0	346	0	0	
2	0	0	0	0	485	403	0	343	0	0	
3	0	0	0	0	461	401	0	340	0	0	
4	0	0	0	0	435	398	0	337	0	0	
5	0	0	0	0	409	391	0	334	0	0	
6	0	0	0	0	385	383	0	331	0	0	
7	0	0	0	0	366	374	0	329	0	0	
8	0	0	0	0	352	364	0	327	0	0	
9	0	0	0	0	345	357	0	328	0	0	
10	0	0	0	0	344	353	0	331	0	0	
11	0	0	0	0	348	356	0	335	0	0	
12	0	0	0	0	358	364	0	340	0	0	
13	0	0	0	0	370	376	0	347	0	0	
14	0	0	0	0	384	390	0	354	0	0	
15	0	0	0	0	398	407	0	362	0	0	
0	0	0	0	0	411	424	0	369	0	0	
1	0	0	0	0	424	441	0	376	0	0	
2	0	0	0	0	439	457	0	381	0	0	
3	0	0	0	0	452	470	0	385	0	0	
4	0	0	0	0	467	480	0	388	0	0	
5	0	0	0	0	481	486	0	388	0	0	
6	0	0	0	0	494	487	0	386	0	0	
7	0	0	0	0	505	484	0	382	0	0	
8	0	0	0	0	513	476	0	376	0	0	
9	0	0	0	0	518	465	0	369	0	0	
10	0	0	0	0	519	450	0	360	0	0	
11	0	0	0	0	515	432	0	351	0	0	
12	0	0	0	0	508	413	0	343	0	0	
13	0	0	0	0	497	395	0	335	0	0	
14	0	0	0	0	486	378	0	329	0	0	
15	0	0	0	0	475	364	0	323	0	0	
0	0	0	0	0	465	352	0	319	0	0	
1	0	0	0	0	457	344	0	315	0	0	
2	0	0	0	0	450	338	0	312	0	0	
3	0	0	0	0	444	334	0	308	0	0	
4	0	0	0	0	439	332	0	304	0	0	
5	0	0	0	0	435	329	0	299	0	0	
6	0	0	0	0	429	327	0	293	0	0	
7	0	0	0	0	421	323	0	286	0	0	
8	0	0	0	0	410	318	0	277	0	0	
9	0	0	0	0	395	312	0	267	0	0	
10	0	0	0	0	378	304	0	255	0	0	
11	0	0	0	0	358	295	0	242	0	0	
12	0	0	0	0	336	285	0	229	0	0	
13	0	0	0	0	313	274	0	214	0	0	
14	0	0	0	0	291	262	0	199	0	0	
15	0	0	0	0	270	249	0	185	0	0	
0	0	0	0	0	252	237	0	172	0	0	
1	0	0	0	0	235	225	0	159	0	0	
2	0	0	0	0	223	214	0	148	0	0	
3	0	0	0	0	214	206	0	140	0	0	
4	0	0	0	0	210	199	0	134	0	0	
5	0	0	0	0	211	195	0	131	0	0	
6	0	0	0	0	217	194	0	132	0	0	
7	0	0	0	0	227	197	0	136	0	0	
8	0	0	0	0	241	203	0	144	0	0	
9	0	0	0	0	260	212	0	155	0	0	
10	0	0	0	0	282	224	0	168	0	0	
11	0	0	0	0	307	239	0	185	0	0	
12	0	0	0	0	335	256	0	203	0	0	
13	0	0	0	0	367	275	0	222	0	0	
14	0	0	0	0	400	295	0	242	0	0	
15	0	0	0	0	435	314	0	262	0	0	
0	0	0	0	0	468	332	0	281	0	0	
1	0	0	0	0	500	350	0	300	0	0	
2	0	0	0	0	526	366	0	316	0	0	
3	0	0	0	0	547	380	0	332	0	0	
4	0	0	0	0	559	392	0	345	0	0	
5	0	0	0	0	562	403	0	358	0	0	
6	0	0	0	0	557	410	0	367	0	0	
7	0	0	0	0	545	415	0	374	0	0	
8	0	0	0	0	527	418	0	379	0	0	
9	0	0	0	0	506	420	0	381	0	0	
10	0	0	0	0	484	420	0	382	0	0	
11	0	0	0	0	464	419	0	380	0	0	
12	0	0	0	0	447	419	0	378	0	0	
13	0	0	0	0	433	418	0	374	0	0	
14	0	0	0	0	424	418	0	370	0	0	
15	0	0	0	0	419	418	0	366	0	0	
0	0	0	0	0	419	418	0	361	0	0	
1	0	0	0	0	422	417	0	356	0	0	
2	0	0	0	0	427	415	0	351	0	0	
3	0	0	0	0	433	413	0	345	0	0	
4	0	0	0	0	440	409	0	342	0	0	
5	0	0	0	0	447	406	0	339	0	0	
6	0	0	0	0	455	404	0	337	0	0	
7	0	0	0	0	463	403	0	339	0	0	
8	0	0	0	0	472	404	0	342	0	0	
9	0	0	0	0	481	408	0	347	0	0	
10	0	0	0	0	490	413	0	355	0	0	
11	0	0	0	0	499	420	0	363	0	0	
12	0	0	0	0	507	428	0	373	0	0	
13	0	0	0	0	515	438	0	383	0	0	
14	0	0	0	0	523	447	0	392	0	0	
15	0	0	0	0	529	455	0	400	0	0	
0	0	0	0	0	534	463	0	407	0	0	
1	0	0	0	0	539	468	0	411	0	0	
2	0	0	0	0	542	472	0	413	0	0	
3	0	0	0	0	545	472	0	413	0	0	
4	0	0	0	0	545	469	0	409	0	0	
5	0	0	0	0	544	463	0	404	0	0	
6	0	0	0	0	540	455	0	397	0	0	
7	0	0	0	0	535	446	0	388	0	0	
8	0	0	0	0	527	435	0	379	0	0	
9	0	0	0	0	518	425	0	370	0	0	
10	0	0	0	0	507	415	0	363	0	0	
11	0	0	0	0	496	406	0	356	0	0	
12	0	0	0	0	486	398	0	351	0	0	
13	0	0	0	0	478	392	0	347	0	0	
14	0	0	0	0	473	390	0	345	0	0	
15	0	0	0	0	473	391	0	346	0	0	
0	0	0	0	0	476	393	0	347	0	0	
1	0	0	0	0	481	399	0	349	0	0	
2	0	0	0	0	488	407	0	352	0	0	
3	0	0	0	0	495	414	0	355	0	0	
4	0	0	0	0	502	422	0	358	0	0	
5	0	0	0	0	507	428	0	360	0	0	
6	0	0	0	0	509	431	0	363	0	0	
7	0	0	0	0	507	432	0	364	0	0	
8	0	0	0	0	500	429	0	363	0	0	
9	0	0	0	0	490	424	0	362	0	0	
10	0	0	0	0	476	417	0	359	0	0	
11	0	0	0	0	460	408	0	357	0	0	
12	0	0	0	0	444	399	0	355	0	0	
13	0	0	0	0	428	391	0	352	0	0	
14	0	0	0	0	415	385	0	351	0	0	
15	0	0	0	0	406	380	0	350	0	0	
0	0	0	0	0	401	379	0	351	0	0	
1	0	0	0	0	401	380	0	353	0	0	
2	0	0	0	0	407	383	0	356	0	0	
3	0	0	0	0	417	388	0	360	0	0	
4	0	0	0	0	430	396	0	364	0	0	
5	0	0	0	0	447	404	0	369	0	0	
6	0	0	0	0	465	414	0	374	0	0	
7	0	0	0	0	484	423	0	378	0	0	
8	0	0	0	0	505	431	0	381	0	0	
9	0	0	0	0	525	438	0	384	0	0	
10	0	0	0	0	544	442	0	385	0	0	
11	0	0	0	0	560	445	0	386	0	0	
12	0	0	0	0	573	446	0	385	0	0	
13	0	0	0	0	579	444	0	383	0	0	
14	0	0	0	0	580	441	0	380	0	0	
15	0	0	0	0	575	436	0	376	0	0	
0	0	0	0	0	565	430	0	372	0	0	
1	0	0	0	0	554	424	0	368	0	0	
2	0	0	0	0	544	419	0	365	0	0	
3	0	0	0	0	539	414	0	362	0	0	
4	0	0	0	0	536	411	0	360	0	0	
5	0	0	0	0	536	408	0	359	0	0	
6	0	0	0	0	537	406	0	359	0	0	
7	0	0	0	0	539	405	0	359	0	0	
8	0	0	0	0	540	405	0	361	0	0	
9	0	0	0	0	539	406	0	364	0	0	
10	0	0	0	0	533	409	0	367	0	0	
11	0	0	0	0	523	412	0	371	0	0	
12	0	0	0	0	508	417	0	374	0	0	
13	0	0	0	0	490	422	0	376	0	0	
14	0	0	0	0	469	426	0	377	0	0	
15	0	0	0	0	448	430	0	377	0	0	
0	0	0	0	0	428	431	0	375	0	0	
1	0	0	0	0	410	431	0	371	0	0	
2	0	0	0	0	395	428	0	365	0	0	
3	0	0	0	0	386	425	0	358	0	0	
4	0	0	0	0	382	421	0	352	0	0	
5	0	0	0	0	384	417	0	345	0	0	
6	0	0	0	0	391	414	0	340	0	0	
7	0	0	0	0	401	412	0	337	0	0	
8	0	0	0	0	417	412	0	335	0	0	
9	0	0	0	0	435	414	0	336	0	0	
10	0	0	0	0	455	417	0	338	0	0	
11	0	0	0	0	475	421	0	342	0	0	
12	0	0	0	0	493	424	0	347	0	0	
13	0	0	0	0	508	428	0	352	0	0	
14	0	0	0	0	520	431	0	358	0	0	
15	0	0	0	0	526	432	0	362	0	0	
0	0	0	0	0	529	433	0	365	0	0	
1	0	0	0	0	527	431	0	367	0	0	
2	0	0	0	0	522	429	0	366	0	0	
3	0	0	0	0	515	424	0	365	0	0	
4	0	0	0	0	507	419	0	361	0	0	
5	0	0	0	0	502	414	0	358	0	0	
6	0	0	0	0	500	409	0	353	0	0	
7	0	0	0	0	503	406	0	349	0	0	
8	0	0	0	0	507	402	0	345	0	0	
9	0	0	0	0	512	399	0	341	0	0	
10	0	0	0	0	515	396	0	338	0	0	
11	0	0	0	0	514	393	0	336	0	0	
12	0	0	0	0	508	391	0	335	0	0	
13	0	0	0	0	498	389	0	334	0	0	
14	0	0	0	0	484	388	0	334	0	0	
15	0	0	0	0	470	388	0	335	0	0	
0	0	0	0	0	457	390	0	336	0	0	
1	0	0	0	0	446	393	0	339	0	0	
2	0	0	0	0	439	399	0	342	0	0	
3	0	0	0	0	436	405	0	346	0	0	
4	0	0	0	0	437	413	0	350	0	0	
5	0	0	0	0	443	422	0	355	0	0	
6	0	0	0	0	451	431	0	359	0	0	
7	0	0	0	0	461	438	0	363	0	0	
8	0	0	0	0	472	444	0	366	0	0	
9	0	0	0	0	482	447	0	368	0	0	
10	0	0	0	0	490	447	0	368	0	0	
11	0	0	0	0	495	444	0	366	0	0	
12	0	0	0	0	496	437	0	364	0	0	
13	0	0	0	0	493	427	0	359	0	0	
14	0	0	0	0	487	415	0	355	0	0	
15	0	0	0	0	479	403	0	351	0	0	
0	0	0	0	0	470	392	0	348	0	0	
1	0	0	0	0	460	382	0	344	0	0	
2	0	0	0	0	451	373	0	342	0	0	
3	0	0	0	0	441	367	0	341	0	0	
4	0	0	0	0	434	362	0	340	0	0	
5	0	0	0	0	429	361	0	341	0	0	
6	0	0	0	0	425	361	0	342	0	0	
7	0	0	0	0	426	365	0	344	0	0	
8	0	0	0	0	429	371	0	344	0	0	
9	0	0	0	0	435	377	0	345	0	0	
10	0	0	0	0	443	386	0	346	0	0	
11	0	0	0	0	452	394	0	346	0	0	
12	0	0	0	0	463	403	0	347	0	0	
13	0	0	0	0	474	410	0	346	0	0	
14	0	0	0	0	485	416	0	345	0	0	
15	0	0	0	0	494	420	0	344	0	0	
0	0	0	0	0	502	421	0	341	0	0	
1	0	0	0	0	507	420	0	338	0	0	
2	0	0	0	0	510	415	0	334	0	0	
3	0	0	0	0	511	409	0	331	0	0	
4	0	0	0	0	510	403	0	328	0	0	
5	0	0	0	0	508	395	0	326	0	0	
6	0	0	0	0	505	388	0	326	0	0	
7	0	0	0	0	501	382	0	326	0	0	
8	0	0	0	0	495	377	0	327	0	0	
9	0	0	0	0	486	373	0	330	0	0	
10	0	0	0	0	477	371	0	333	0	0	
11	0	0	0	0	469	369	0	336	0	0	
12	0	0	0	0	462	369	0	340	0	0	
13	0	0	0	0	459	371	0	344	0	0	
14	0	0	0	0	457	373	0	348	0	0	
15	0	0	0	0	459	375	0	350	0	0	
0	0	0	0	0	462	377	0	351	0	0	
1	0	0	0	0	466	380	0	351	0	0	
2	0	0	0	0	470	383	0	350	0	0	
3	0	0	0	0	473	387	0	349	0	0	
4	0	0	0	0	476	391	0	347	0	0	
5	0	0	0	0	477	396	0	345	0	0	
6	0	0	0	0	478	403	0	344	0	0	
7	0	0	0	0	479	409	0	343	0	0	
8	0	0	0	0	478	415	0	343	0	0	
9	0	0	0	0	477	420	0	344	0	0	
10	0	0	0	0	474	424	0	346	0	0	
11	0	0	0	0	470	426	0	348	0	0	
12	0	0	0	0	467	427	0	350	0	0	
13	0	0	0	0	463	427	0	352	0	0	
14	0	0	0	0	460	426	0	354	0	0	
15	0	0	0	0	459	426	0	356	0	0	
0	0	0	0	0	460	425	0	358	0	0	
1	0	0	0	0	463	426	0	359	0	0	
2	0	0	0	0	468	427	0	359	0	0	
3	0	0	0	0	475	428	0	358	0	0	
4	0	0	0	0	482	428	0	358	0	0	
5	0	0	0	0	491	429	0	357	0	0	
6	0	0	0	0	500	428	0	355	0	0	
7	0	0	0	0	507	428	0	353	0	0	
8	0	0	0	0	512	425	0	351	0	0	
9	0	0	0	0	515	422	0	349	0	0	
10	0	0	0	0	514	417	0	347	0	0	
11	0	0	0	0	511	412	0	344	0	0	
12	0	0	0	0	504	408	0	343	0	0	
13	0	0	0	0	496	403	0	343	0	0	
14	0	0	0	0	485	398	0	342	0	0	
15	0	0	0	0	474	393	0	342	0	0	
0	0	0	0	0	462	389	0	342	0	0	
1	0	0	0	0	450	384	0	342	0	0	
2	0	0	0	0	439	380	0	342	0	0	
3	0	0	0	0	429	375	0	341	0	0	
4	0	0	0	0	420	371	0	339	0	0	
5	0	0	0	0	415	367	0	336	0	0	
6	0	0	0	0	414	364	0	333	0	0	
7	0	0	0	0	416	363	0	331	0	0	
8	0	0	0	0	423	363	0	327	0	0	
9	0	0	0	0	436	366	0	324	0	0	
10	0	0	0	0	454	370	0	323	0	0	
11	0	0	0	0	476	377	0	322	0	0	
12	0	0	0	0	500	385	0	323	0	0	
13	0	0	0	0	524	392	0	324	0	0	
14	0	0	0	0	545	399	0	326	0	0	
15	0	0	0	0	561	406	0	328	0	0	
0	0	0	0	0	571	412	0	332	0	0	
1	0	0	0	0	572	417	0	336	0	0	
2	0	0	0	0	568	420	0	341	0	0	
3	0	0	0	0	556	423	0	346	0	0	
4	0	0	0	0	541	425	0	351	0	0	
5	0	0	0	0	522	425	0	355	0	0	
6	0	0	0	0	501	423	0	358	0	0	
7	0	0	0	0	479	419	0	359	0	0	
8	0	0	0	0	457	412	0	359	0	0	
9	0	0	0	0	438	406	0	358	0	0	
10	0	0	0	0	420	399	0	355	0	0	
11	0	0	0	0	407	392	0	352	0	0	
12	0	0	0	0	397	386	0	348	0	0	
13	0	0	0	0	392	382	0	345	0	0	
14	0	0	0	0	393	379	0	342	0	0	
15	0	0	0	0	398	378	0	339	0	0	
0	0	0	0	0	407	379	0	338	0	0	
1	0	0	0	0	420	382	0	337	0	0	
2	0	0	0	0	435	386	0	337	0	0	
3	0	0	0	0	451	392	0	339	0	0	
4	0	0	0	0	467	399	0	341	0	0	
5	0	0	0	0	483	407	0	345	0	0	
6	0	0	0	0	495	414	0	349	0	0	
7	0	0	0	0	505	420	0	353	0	0	
8	0	0	0	0	511	425	0	358	0	0	
9	0	0	0	0	513	430	0	361	0	0	
10	0	0	0	0	512	432	0	365	0	0	
11	0	0	0	0	507	431	0	366	0	0	
12	0	0	0	0	500	429	0	367	0	0	
13	0	0	0	0	492	425	0	367	0	0	
14	0	0	0	0	483	422	0	365	0	0	
15	0	0	0	0	476	417	0	363	0	0	
0	0	0	0	0	472	412	0	360	0	0	
1	0	0	0	0	468	408	0	356	0	0	
2	0	0	0	0	468	404	0	353	0	0	
3	0	0	0	0	468	401	0	349	0	0	
4	0	0	0	0	470	398	0	347	0	0	
5	0	0	0	0	472	397	0	344	0	0	
6	0	0	0	0	475	396	0	343	0	0	
7	0	0	0	0	478	396	0	342	0	0	
8	0	0	0	0	480	396	0	342	0	0	
9	0	0	0	0	483	398	0	343	0	0	
10	0	0	0	0	484	399	0	345	0	0	
11	0	0	0	0	485	401	0	346	0	0	
12	0	0	0	0	485	401	0	348	0	0	
13	0	0	0	0	484	401	0	349	0	0	
14	0	0	0	0	483	400	0	349	0	0	
15	0	0	0	0	481	398	0	349	0	0	
0	0	0	0	0	479	395	0	347	0	0	
1	0	0	0	0	476	391	0	344	0	0	
2	0	0	0	0	473	388	0	341	0	0	
3	0	0	0	0	470	384	0	336	0	0	
4	0	0	0	0	467	380	0	332	0	0	
5	0	0	0	0	467	378	0	326	0	0	
6	0	0	0	0	469	377	0	322	0	0	
7	0	0	0	0	475	378	0	318	0	0	
8	0	0	0	0	482	381	0	316	0	0	
9	0	0	0	0	492	385	0	316	0	0	
10	0	0	0	0	500	391	0	317	0	0	
11	0	0	0	0	509	398	0	320	0	0	
12	0	0	0	0	516	407	0	326	0	0	
13	0	0	0	0	521	415	0	334	0	0	
14	0	0	0	0	526	424	0	344	0	0	
15	0	0	0	0	530	434	0	354	0	0	
0	0	0	0	0	533	443	0	365	0	0	
1	0	0	0	0	535	451	0	376	0	0	
2	0	0	0	0	533	457	0	384	0	0	
3	0	0	0	0	529	460	0	391	0	0	
4	0	0	0	0	521	461	0	394	0	0	
5	0	0	0	0	511	459	0	395	0	0	
6	0	0	0	0	499	454	0	393	0	0	
7	0	0	0	0	485	445	0	388	0	0	
8	0	0	0	0	470	434	0	381	0	0	
9	0	0	0	0	455	421	0	372	0	0	
10	0	0	0	0	441	407	0	362	0	0	
11	0	0	0	0	429	394	0	352	0	0	
12	0	0	0	0	420	382	0	344	0	0	
13	0	0	0	0	416	374	0	337	0	0	
14	0	0	0	0	418	370	0	332	0	0	
15	0	0	0	0	428	371	0	331	0	0	
0	0	0	0	0	444	378	0	334	0	0	
1	0	0	0	0	467	390	0	340	0	0	
2	0	0	0	0	496	405	0	348	0	0	
3	0	0	0	0	527	423	0	359	0	0	
4	0	0	0	0	560	442	0	371	0	0	
5	0	0	0	0	590	461	0	384	0	0	
6	0	0	0	0	614	478	0	396	0	0	
7	0	0	0	0	630	492	0	407	0	0	
8	0	0	0	0	638	500	0	413	0	0	
9	0	0	0	0	635	502	0	417	0	0	
10	0	0	0	0	623	497	0	417	0	0	
11	0	0	0	0	605	486	0	413	0	0	
12	0	0	0	0	583	469	0	405	0	0	
13	0	0	0	0	556	448	0	395	0	0	
14	0	0	0	0	531	425	0	383	0	0	
15	0	0	0	0	507	402	0	370	0	0	
0	0	0	0	0	486	382	0	359	0	0	
1	0	0	0	0	470	367	0	349	0	0	
2	0	0	0	0	461	357	0	342	0	0	
3	0	0	0	0	459	355	0	339	0	0	
4	0	0	0	0	461	357	0	338	0	0	
5	0	0	0	0	465	364	0	341	0	0	
6	0	0	0	0	468	374	0	345	0	0	
7	0	0	0	0	469	385	0	351	0	0	
8	0	0	0	0	469	396	0	357	0	0	
9	0	0	0	0	465	407	0	363	0	0	
10	0	0	0	0	459	415	0	368	0	0	
11	0	0	0	0	450	420	0	371	0	0	
12	0	0	0	0	440	422	0	372	0	0	
13	0	0	0	0	431	420	0	371	0	0	
14	0	0	0	0	423	416	0	369	0	0	
15	0	0	0	0	417	411	0	365	0	0	
0	0	0	0	0	416	403	0	359	0	0	
1	0	0	0	0	420	395	0	352	0	0	
2	0	0	0	0	430	387	0	344	0	0	
3	0	0	0	0	445	381	0	338	0	0	
4	0	0	0	0	462	377	0	332	0	0	
5	0	0	0	0	481	376	0	327	0	0	
6	0	0	0	0	497	377	0	325	0	0	
7	0	0	0	0	511	381	0	326	0	0	
8	0	0	0	0	521	388	0	328	0	0	
9	0	0	0	0	527	396	0	334	0	0	
10	0	0	0	0	527	407	0	341	0	0	
11	0	0	0	0	523	417	0	349	0	0	
12	0	0	0	0	516	428	0	358	0	0	
13	0	0	0	0	506	436	0	367	0	0	
14	0	0	0	0	495	444	0	375	0	0	
15	0	0	0	0	484	449	0	382	0	0	
0	0	0	0	0	473	450	0	385	0	0	
1	0	0	0	0	464	449	0	387	0	0	
2	0	0	0	0	459	444	0	386	0	0	
3	0	0	0	0	457	438	0	383	0	0	
4	0	0	0	0	461	430	0	377	0	0	
5	0	0	0	0	469	421	0	370	0	0	
6	0	0	0	0	480	412	0	362	0	0	
7	0	0	0	0	493	404	0	355	0	0	
8	0	0	0	0	506	397	0	348	0	0	
9	0	0	0	0	516	390	0	341	0	0	
10	0	0	0	0	523	384	0	336	0	0	
11	0	0	0	0	526	380	0	333	0	0	
12	0	0	0	0	525	378	0	333	0	0	
13	0	0	0	0	522	377	0	335	0	0	
14	0	0	0	0	516	379	0	339	0	0	
15	0	0	0	0	510	382	0	345	0	0	
0	0	0	0	0	503	387	0	352	0	0	
1	0	0	0	0	497	393	0	360	0	0	
2	0	0	0	0	492	400	0	368	0	0	
3	0	0	0	0	487	407	0	375	0	0	
4	0	0	0	0	481	413	0	382	0	0	
5	0	0	0	0	475	419	0	386	0	0	
6	0	0	0	0	468	424	0	388	0	0	
7	0	0	0	0	460	427	0	389	0	0	
8	0	0	0	0	452	430	0	387	0	0	
9	0	0	0	0	444	431	0	383	0	0	
10	0	0	0	0	437	431	0	378	0	0	
11	0	0	0	0	432	428	0	371	0	0	
12	0	0	0	0	427	424	0	364	0	0	
13	0	0	0	0	425	419	0	357	0	0	
14	0	0	0	0	425	414	0	351	0	0	
15	0	0	0	0	430	409	0	346	0	0	
0	0	0	0	0	438	406	0	344	0	0	
1	0	0	0	0	449	403	0	343	0	0	
2	0	0	0	0	463	402	0	345	0	0	
3	0	0	0	0	482	403	0	348	0	0	
4	0	0	0	0	504	405	0	352	0	0	
5	0	0	0	0	527	408	0	357	0	0	
6	0	0	0	0	548	410	0	361	0	0	
7	0	0	0	0	567	413	0	367	0	0	
8	0	0	0	0	580	415	0	371	0	0	
9	0	0	0	0	588	419	0	375	0	0	
10	0	0	0	0	589	423	0	379	0	0	
11	0	0	0	0	582	426	0	382	0	0	
12	0	0	0	0	568	428	0	384	0	0	
13	0	0	0	0	547	429	0	384	0	0	
14	0	0	0	0	523	429	0	384	0	0	
15	0	0	0	0	496	427	0	382	0	0	
0	0	0	0	0	468	423	0	379	0	0	
1	0	0	0	0	441	418	0	376	0	0	
2	0	0	0	0	420	412	0	372	0	0	
3	0	0	0	0	404	408	0	369	0	0	
4	0	0	0	0	395	404	0	366	0	0	
5	0	0	0	0	394	401	0	364	0	0	
6	0	0	0	0	402	400	0	364	0	0	
7	0	0	0	0	417	400	0	364	0	0	
8	0	0	0	0	439	403	0	366	0	0	
9	0	0	0	0	467	406	0	369	0	0	
10	0	0	0	0	497	411	0	373	0	0	
11	0	0	0	0	527	416	0	377	0	0	
12	0	0	0	0	554	420	0	382	0	0	
13	0	0	0	0	577	423	0	385	0	0	
14	0	0	0	0	593	424	0	387	0	0	
15	0	0	0	0	600	423	0	388	0	0	
0	0	0	0	0	597	420	0	387	0	0	
1	0	0	0	0	585	418	0	383	0	0	
2	0	0	0	0	565	414	0	378	0	0	
3	0	0	0	0	538	409	0	372	0	0	
4	0	0	0	0	507	404	0	365	0	0	
5	0	0	0	0	476	401	0	359	0	0	
6	0	0	0	0	448	398	0	354	0	0	
7	0	0	0	0	427	398	0	350	0	0	
8	0	0	0	0	415	399	0	349	0	0	
9	0	0	0	0	412	404	0	350	0	0	
10	0	0	0	0	419	412	0	353	0	0	
11	0	0	0	0	434	420	0	358	0	0	
12	0	0	0	0	454	428	0	364	0	0	
13	0	0	0	0	474	435	0	371	0	0	
14	0	0	0	0	492	440	0	377	0	0	
15	0	0	0	0	506	443	0	383	0	0	
0	0	0	0	0	513	444	0	386	0	0	
1	0	0	0	0	515	442	0	388	0	0	
2	0	0	0	0	513	439	0	389	0	0	
3	0	0	0	0	506	435	0	388	0	0	
4	0	0	0	0	496	430	0	385	0	0	
5	0	0	0	0	484	425	0	382	0	0	
6	0	0	0	0	473	419	0	377	0	0	
7	0	0	0	0	461	414	0	372	0	0	
8	0	0	0	0	450	409	0	367	0	0	
9	0	0	0	0	440	404	0	362	0	0	
10	0	0	0	0	432	399	0	358	0	0	
11	0	0	0	0	429	396	0	354	0	0	
12	0	0	0	0	431	395	0	353	0	0	
13	0	0	0	0	436	396	0	353	0	0	
14	0	0	0	0	448	399	0	355	0	0	
15	0	0	0	0	463	404	0	359	0	0	
0	0	0	0	0	481	411	0	364	0	0	
1	0	0	0	0	499	419	0	369	0	0	
2	0	0	0	0	516	426	0	375	0	0	
3	0	0	0	0	530	432	0	379	0	0	
4	0	0	0	0	540	437	0	383	0	0	
5	0	0	0	0	547	440	0	384	0	0	
6	0	0	0	0	549	441	0	384	0	0	
7	0	0	0	0	546	439	0	383	0	0	
8	0	0	0	0	537	435	0	379	0	0	
9	0	0	0	0	526	429	0	374	0	0	
10	0	0	0	0	512	423	0	368	0	0	
11	0	0	0	0	498	415	0	363	0	0	
12	0	0	0	0	485	409	0	357	0	0	
13	0	0	0	0	473	404	0	353	0	0	
14	0	0	0	0	464	400	0	349	0	0	
15	0	0	0	0	456	397	0	347	0	0	
0	0	0	0	0	452	395	0	347	0	0	
1	0	0	0	0	450	395	0	348	0	0	
2	0	0	0	0	452	396	0	351	0	0	
3	0	0	0	0	458	398	0	355	0	0	
4	0	0	0	0	465	400	0	360	0	0	
5	0	0	0	0	473	403	0	366	0	0	
6	0	0	0	0	480	406	0	371	0	0	
7	0	0	0	0	487	409	0	377	0	0	
8	0	0	0	0	492	412	0	382	0	0	
9	0	0	0	0	497	415	0	385	0	0	
10	0	0	0	0	503	419	0	388	0	0	
11	0	0	0	0	508	423	0	390	0	0	
12	0	0	0	0	515	425	0	391	0	0	
13	0	0	0	0	522	428	0	391	0	0	
14	0	0	0	0	528	430	0	390	0	0	
15	0	0	0	0	532	431	0	389	0	0	
0	0	0	0	0	533	432	0	387	0	0	
1	0	0	0	0	530	431	0	386	0	0	
2	0	0	0	0	525	429	0	384	0	0	
3	0	0	0	0	516	427	0	382	0	0	
4	0	0	0	0	507	424	0	380	0	0	
5	0	0	0	0	496	422	0	379	0	0	
6	0	0	0	0	486	420	0	379	0	0	
7	0	0	0	0	478	419	0	379	0	0	
8	0	0	0	0	472	419	0	379	0	0	
9	0	0	0	0	468	419	0	380	0	0	
10	0	0	0	0	467	421	0	382	0	0	
11	0	0	0	0	466	422	0	383	0	0	
12	0	0	0	0	467	423	0	384	0	0	
13	0	0	0	0	469	423	0	383	0	0	
14	0	0	0	0	472	423	0	382	0	0	
15	0	0	0	0	476	422	0	380	0	0	
0	0	0	0	0	481	420	0	378	0	0	
1	0	0	0	0	488	418	0	374	0	0	
2	0	0	0	0	495	416	0	371	0	0	
3	0	0	0	0	502	414	0	368	0	0	
4	0	0	0	0	509	412	0	365	0	0	
5	0	0	0	0	514	409	0	363	0	0	
6	0	0	0	0	519	408	0	362	0	0	
7	0	0	0	0	523	407	0	361	0	0	
8	0	0	0	0	525	407	0	362	0	0	
9	0	0	0	0	526	406	0	364	0	0	
10	0	0	0	0	524	406	0	366	0	0	
11	0	0	0	0	521	407	0	369	0	0	
12	0	0	0	0	515	406	0	371	0	0	
13	0	0	0	0	507	406	0	374	0	0	
14	0	0	0	0	497	404	0	375	0	0	
15	0	0	0	0	486	402	0	376	0	0	
0	0	0	0	0	474	399	0	375	0	0	
1	0	0	0	0	462	395	0	374	0	0	
2	0	0	0	0	451	391	0	372	0	0	
3	0	0	0	0	440	385	0	369	0	0	
4	0	0	0	0	431	381	0	367	0	0	
5	0	0	0	0	425	376	0	364	0	0	
6	0	0	0	0	423	373	0	361	0	0	
7	0	0	0	0	427	371	0	360	0	0	
8	0	0	0	0	435	371	0	359	0	0	
9	0	0	0	0	448	372	0	359	0	0	
10	0	0	0	0	464	376	0	361	0	0	
11	0	0	0	0	483	380	0	364	0	0	
12	0	0	0	0	503	387	0	368	0	0	
13	0	0	0	0	520	394	0	373	0	0	
14	0	0	0	0	534	402	0	378	0	0	
15	0	0	0	0	544	409	0	384	0	0	
0	0	0	0	0	549	416	0	388	0	0	
1	0	0	0	0	550	423	0	392	0	0	
2	0	0	0	0	546	427	0	395	0	0	
3	0	0	0	0	539	430	0	396	0	0	
4	0	0	0	0	531	431	0	396	0	0	
5	0	0	0	0	521	430	0	395	0	0	
6	0	0	0	0	511	427	0	391	0	0	
7	0	0	0	0	499	421	0	387	0	0	
8	0	0	0	0	487	413	0	380	0	0	
9	0	0	0	0	475	403	0	372	0	0	
10	0	0	0	0	463	392	0	364	0	0	
11	0	0	0	0	452	382	0	357	0	0	
12	0	0	0	0	446	373	0	351	0	0	
13	0	0	0	0	444	365	0	346	0	0	
14	0	0	0	0	450	360	0	343	0	0	
15	0	0	0	0	462	359	0	343	0	0	
0	0	0	0	0	481	363	0	344	0	0	
1	0	0	0	0	505	369	0	349	0	0	
2	0	0	0	0	529	379	0	356	0	0	
3	0	0	0	0	552	391	0	364	0	0	
4	0	0	0	0	571	405	0	373	0	0	
5	0	0	0	0	584	419	0	382	0	0	
6	0	0	0	0	592	432	0	391	0	0	
7	0	0	0	0	591	443	0	398	0	0	
8	0	0	0	0	584	451	0	403	0	0	
9	0	0	0	0	570	455	0	406	0	0	
10	0	0	0	0	548	453	0	407	0	0	
11	0	0	0	0	522	447	0	405	0	0	
12	0	0	0	0	493	437	0	400	0	0	
13	0	0	0	0	465	425	0	393	0	0	
14	0	0	0	0	441	412	0	385	0	0	
15	0	0	0	0	421	399	0	376	0	0	
0	0	0	0	0	407	387	0	368	0	0	
1	0	0	0	0	400	376	0	360	0	0	
2	0	0	0	0	399	367	0	353	0	0	
3	0	0	0	0	403	359	0	348	0	0	
4	0	0	0	0	412	355	0	346	0	0	
5	0	0	0	0	424	353	0	346	0	0	
6	0	0	0	0	440	354	0	348	0	0	
7	0	0	0	0	458	358	0	352	0	0	
8	0	0	0	0	478	364	0	357	0	0	
9	0	0	0	0	498	371	0	363	0	0	
10	0	0	0	0	517	381	0	370	0	0	
11	0	0	0	0	536	391	0	378	0	0	
12	0	0	0	0	553	399	0	384	0	0	
13	0	0	0	0	571	406	0	390	0	0	
14	0	0	0	0	585	412	0	395	0	0	
15	0	0	0	0	595	413	0	397	0	0	
0	0	0	0	0	601	413	0	398	0	0	
1	0	0	0	0	600	411	0	397	0	0	
2	0	0	0	0	592	408	0	396	0	0	
3	0	0	0	0	577	405	0	393	0	0	
4	0	0	0	0	555	402	0	390	0	0	
5	0	0	0	0	529	399	0	386	0	0	
6	0	0	0	0	502	399	0	383	0	0	
7	0	0	0	0	475	399	0	380	0	0	
8	0	0	0	0	451	402	0	379	0	0	
9	0	0	0	0	431	405	0	377	0	0	
10	0	0	0	0	416	410	0	378	0	0	
11	0	0	0	0	410	416	0	379	0	0	
12	0	0	0	0	410	421	0	381	0	0	
13	0	0	0	0	417	427	0	383	0	0	
14	0	0	0	0	428	431	0	385	0	0	
15	0	0	0	0	441	434	0	386	0	0	
0	0	0	0	0	455	435	0	386	0	0	
1	0	0	0	0	470	434	0	385	0	0	
2	0	0	0	0	484	432	0	383	0	0	
3	0	0	0	0	497	427	0	380	0	0	
4	0	0	0	0	511	422	0	377	0	0	
5	0	0	0	0	522	418	0	373	0	0	
6	0	0	0	0	534	414	0	371	0	0	
7	0	0	0	0	542	411	0	369	0	0	
8	0	0	0	0	547	408	0	368	0	0	
9	0	0	0	0	547	406	0	367	0	0	
10	0	0	0	0	544	404	0	367	0	0	
11	0	0	0	0	539	402	0	368	0	0	
12	0	0	0	0	530	400	0	368	0	0	
13	0	0	0	0	521	397	0	368	0	0	
14	0	0	0	0	512	393	0	368	0	0	
15	0	0	0	0	506	390	0	368	0	0	
0	0	0	0	0	502	387	0	367	0	0	
1	0	0	0	0	503	384	0	366	0	0	
2	0	0	0	0	508	383	0	365	0	0	
3	0	0	0	0	518	381	0	364	0	0	
4	0	0	0	0	529	380	0	362	0	0	
5	0	0	0	0	541	377	0	359	0	0	
6	0	0	0	0	550	375	0	356	0	0	
7	0	0	0	0	553	372	0	353	0	0	
8	0	0	0	0	548	368	0	348	0	0	
9	0	0	0	0	535	363	0	341	0	0	
10	0	0	0	0	513	357	0	333	0	0	
11	0	0	0	0	486	350	0	324	0	0	
12	0	0	0	0	451	342	0	314	0	0	
13	0	0	0	0	414	332	0	303	0	0	
14	0	0	0	0	374	321	0	291	0	0	
15	0	0	0	0	335	309	0	280	0	0	
0	0	0	0	0	299	298	0	270	0	0	
1	0	0	0	0	268	287	0	261	0	0	
2	0	0	0	0	244	278	0	252	0	0	
3	0	0	0	0	228	270	0	245	0	0	
4	0	0	0	0	221	263	0	239	0	0	
5	0	0	0	0	223	257	0	234	0	0	
6	0	0	0	0	231	253	0	229	0	0	
7	0	0	0	0	247	249	0	224	0	0	
8	0	0	0	0	268	246	0	219	0	0	
9	0	0	0	0	291	243	0	213	0	0	
10	0	0	0	0	317	240	0	206	0	0	
11	0	0	0	0	342	235	0	198	0	0	
12	0	0	0	0	362	229	0	190	0	0	
13	0	0	0	0	375	222	0	180	0	0	
14	0	0	0	0	383	215	0	172	0	0	
15	0	0	0	0	383	209	0	165	0	0	
0	0	0	0	0	380	206	0	161	0	0	
1	0	0	0	0	371	205	0	161	0	0	
2	0	0	0	0	361	208	0	165	0	0	
3	0	0	0	0	353	215	0	174	0	0	
4	0	0	0	0	346	227	0	188	0	0	
5	0	0	0	0	342	242	0	206	0	0	
6	0	0	0	0	343	261	0	228	0	0	
7	0	0	0	0	348	283	0	252	0	0	
8	0	0	0	0	359	307	0	279	0	0	
9	0	0	0	0	374	331	0	306	0	0	
10	0	0	0	0	394	356	0	332	0	0	
11	0	0	0	0	416	379	0	357	0	0	
12	0	0	0	0	440	399	0	379	0	0	
13	0	0	0	0	465	416	0	396	0	0	
14	0	0	0	0	487	429	0	410	0	0	
15	0	0	0	0	508	436	0	419	0	0	
0	0	0	0	0	526	439	0	422	0	0	
1	0	0	0	0	539	437	0	421	0	0	
2	0	0	0	0	548	431	0	416	0	0	
3	0	0	0	0	553	422	0	408	0	0	
4	0	0	0	0	553	412	0	399	0	0	
5	0	0	0	0	550	401	0	388	0	0	
6	0	0	0	0	544	392	0	379	0	0	
7	0	0	0	0	539	386	0	371	0	0	
8	0	0	0	0	533	383	0	364	0	0	
9	0	0	0	0	531	384	0	361	0	0	
10	0	0	0	0	531	389	0	360	0	0	
11	0	0	0	0	534	397	0	361	0	0	
12	0	0	0	0	541	407	0	364	0	0	
13	0	0	0	0	550	419	0	369	0	0	
14	0	0	0	0	560	431	0	375	0	0	
15	0	0	0	0	570	443	0	382	0	0	
0	0	0	0	0	578	452	0	387	0	0	
1	0	0	0	0	581	459	0	393	0	0	
2	0	0	0	0	579	462	0	396	0	0	
3	0	0	0	0	574	462	0	398	0	0	
4	0	0	0	0	565	459	0	399	0	0	
5	0	0	0	0	552	454	0	397	0	0	
6	0	0	0	0	538	447	0	395	0	0	
7	0	0	0	0	521	438	0	391	0	0	
8	0	0	0	0	504	428	0	387	0	0	
9	0	0	0	0	486	417	0	383	0	0	
10	0	0	0	0	469	406	0	379	0	0	
11	0	0	0	0	453	396	0	376	0	0	
12	0	0	0	0	440	388	0	375	0	0	
13	0	0	0	0	430	382	0	376	0	0	
14	0	0	0	0	424	379	0	378	0	0	
15	0	0	0	0	422	379	0	382	0	0	
0	0	0	0	0	425	381	0	387	0	0	
1	0	0	0	0	433	385	0	392	0	0	
2	0	0	0	0	444	391	0	398	0	0	
3	0	0	0	0	459	397	0	403	0	0	
4	0	0	0	0	476	402	0	407	0	0	
5	0	0	0	0	494	406	0	409	0	0	
6	0	0	0	0	512	408	0	411	0	0	
7	0	0	0	0	527	409	0	411	0	0	
8	0	0	0	0	540	409	0	409	0	0	
9	0	0	0	0	547	409	0	406	0	0	
10	0	0	0	0	550	409	0	403	0	0	
11	0	0	0	0	547	410	0	399	0	0	
12	0	0	0	0	542	411	0	395	0	0	
13	0	0	0	0	535	412	0	391	0	0	
14	0	0	0	0	526	415	0	387	0	0	
15	0	0	0	0	516	419	0	385	0	0	
0	0	0	0	0	509	423	0	383	0	0	
1	0	0	0	0	505	428	0	383	0	0	
2	0	0	0	0	506	433	0	384	0	0	
3	0	0	0	0	513	439	0	386	0	0	
4	0	0	0	0	527	444	0	389	0	0	
5	0	0	0	0	545	450	0	392	0	0	
6	0	0	0	0	568	455	0	396	0	0	
7	0	0	0	0	590	460	0	401	0	0	
8	0	0	0	0	609	464	0	404	0	0	
9	0	0	0	0	623	466	0	408	0	0	
10	0	0	0	0	630	466	0	410	0	0	
11	0	0	0	0	630	462	0	410	0	0	
12	0	0	0	0	622	455	0	409	0	0	
13	0	0	0	0	607	445	0	406	0	0	
14	0	0	0	0	588	433	0	402	0	0	
15	0	0	0	0	563	421	0	397	0	0	
0	0	0	0	0	537	410	0	391	0	0	
1	0	0	0	0	510	400	0	386	0	0	
2	0	0	0	0	485	392	0	382	0	0	
3	0	0	0	0	463	387	0	377	0	0	
4	0	0	0	0	444	385	0	376	0	0	
5	0	0	0	0	430	386	0	374	0	0	
6	0	0	0	0	420	388	0	374	0	0	
7	0	0	0	0	415	393	0	376	0	0	
8	0	0	0	0	415	399	0	378	0	0	
9	0	0	0	0	419	407	0	381	0	0	
10	0	0	0	0	427	414	0	384	0	0	
11	0	0	0	0	437	420	0	387	0	0	
12	0	0	0	0	448	424	0	390	0	0	
13	0	0	0	0	462	428	0	391	0	0	
14	0	0	0	0	475	430	0	392	0	0	
15	0	0	0	0	487	431	0	392	0	0	
0	0	0	0	0	500	430	0	391	0	0	
1	0	0	0	0	511	429	0	388	0	0	
2	0	0	0	0	521	428	0	386	0	0	
3	0	0	0	0	530	426	0	384	0	0	
4	0	0	0	0	537	425	0	381	0	0	
5	0	0	0	0	543	424	0	379	0	0	
6	0	0	0	0	548	424	0	377	0	0	
7	0	0	0	0	551	425	0	376	0	0	
8	0	0	0	0	553	426	0	376	0	0	
9	0	0	0	0	553	427	0	376	0	0	
10	0	0	0	0	551	428	0	378	0	0	
11	0	0	0	0	549	429	0	380	0	0	
12	0	0	0	0	547	431	0	382	0	0	
13	0	0	0	0	544	432	0	384	0	0	
14	0	0	0	0	542	433	0	387	0	0	
15	0	0	0	0	540	433	0	389	0	0	
0	0	0	0	0	536	433	0	390	0	0	
1	0	0	0	0	532	431	0	390	0	0	
2	0	0	0	0	527	429	0	389	0	0	
3	0	0	0	0	520	425	0	388	0	0	
4	0	0	0	0	512	421	0	385	0	0	
5	0	0	0	0	502	415	0	382	0	0	
6	0	0	0	0	492	409	0	379	0	0	
7	0	0	0	0	481	402	0	375	0	0	
8	0	0	0	0	470	395	0	371	0	0	
9	0	0	0	0	461	389	0	368	0	0	
10	0	0	0	0	454	384	0	367	0	0	
11	0	0	0	0	451	381	0	365	0	0	
12	0	0	0	0	450	379	0	365	0	0	
13	0	0	0	0	452	380	0	366	0	0	
14	0	0	0	0	457	382	0	368	0	0	
15	0	0	0	0	463	385	0	371	0	0	
0	0	0	0	0	472	390	0	374	0	0	
1	0	0	0	0	482	395	0	376	0	0	
2	0	0	0	0	493	399	0	378	0	0	
3	0	0	0	0	506	402	0	379	0	0	
4	0	0	0	0	520	404	0	379	0	0	
5	0	0	0	0	539	403	0	377	0	0	
6	0	0	0	0	558	401	0	374	0	0	
7	0	0	0	0	579	397	0	370	0	0	
8	0	0	0	0	595	391	0	365	0	0	
9	0	0	0	0	607	385	0	359	0	0	
10	0	0	0	0	613	379	0	353	0	0	
11	0	0	0	0	612	375	0	349	0	0	
12	0	0	0	0	606	373	0	346	0	0	
13	0	0	0	0	595	376	0	346	0	0	
14	0	0	0	0	582	382	0	348	0	0	
15	0	0	0	0	567	392	0	353	0	0	
0	0	0	0	0	552	406	0	359	0	0	
1	0	0	0	0	537	422	0	368	0	0	
2	0	0	0	0	524	436	0	377	0	0	
3	0	0	0	0	512	449	0	385	0	0	
4	0	0	0	0	502	460	0	393	0	0	
5	0	0	0	0	493	466	0	399	0	0	
6	0	0	0	0	486	468	0	403	0	0	
7	0	0	0	0	479	467	0	405	0	0	
8	0	0	0	0	474	462	0	404	0	0	
9	0	0	0	0	470	454	0	402	0	0	
10	0	0	0	0	467	444	0	397	0	0	
11	0	0	0	0	463	433	0	391	0	0	
12	0	0	0	0	459	421	0	384	0	0	
13	0	0	0	0	455	409	0	376	0	0	
14	0	0	0	0	451	399	0	368	0	0	
15	0	0	0	0	448	390	0	360	0	0	
0	0	0	0	0	446	382	0	354	0	0	
1	0	0	0	0	444	377	0	348	0	0	
2	0	0	0	0	444	375	0	346	0	0	
3	0	0	0	0	447	376	0	345	0	0	
4	0	0	0	0	450	378	0	347	0	0	
5	0	0	0	0	455	382	0	351	0	0	
6	0	0	0	0	460	387	0	356	0	0	
7	0	0	0	0	465	392	0	362	0	0	
8	0	0	0	0	470	398	0	368	0	0	
9	0	0	0	0	476	403	0	375	0	0	
10	0	0	0	0	481	408	0	380	0	0	
11	0	0	0	0	486	411	0	384	0	0	
12	0	0	0	0	489	412	0	386	0	0	
13	0	0	0	0	492	412	0	387	0	0	
14	0	0	0	0	493	411	0	385	0	0	
15	0	0	0	0	492	407	0	382	0	0	
0	0	0	0	0	492	403	0	376	0	0	
1	0	0	0	0	491	398	0	371	0	0	
2	0	0	0	0	491	393	0	364	0	0	
3	0	0	0	0	492	389	0	358	0	0	
4	0	0	0	0	494	385	0	353	0	0	
5	0	0	0	0	497	384	0	349	0	0	
6	0	0	0	0	501	383	0	347	0	0	
7	0	0	0	0	506	384	0	346	0	0	
8	0	0	0	0	511	385	0	347	0	0	
9	0	0	0	0	516	387	0	349	0	0	
10	0	0	0	0	521	390	0	353	0	0	
11	0	0	0	0	528	393	0	357	0	0	
12	0	0	0	0	537	396	0	363	0	0	
13	0	0	0	0	546	400	0	368	0	0	
14	0	0	0	0	557	404	0	373	0	0	
15	0	0	0	0	569	407	0	378	0	0	
0	0	0	0	0	581	410	0	383	0	0	
1	0	0	0	0	590	413	0	386	0	0	
2	0	0	0	0	597	417	0	388	0	0	
3	0	0	0	0	601	422	0	391	0	0	
4	0	0	0	0	601	426	0	391	0	0	
5	0	0	0	0	597	430	0	390	0	0	
6	0	0	0	0	587	432	0	387	0	0	
7	0	0	0	0	572	432	0	384	0	0	
8	0	0	0	0	552	429	0	380	0	0	
9	0	0	0	0	530	424	0	374	0	0	
10	0	0	0	0	507	417	0	369	0	0	
11	0	0	0	0	486	409	0	364	0	0	
12	0	0	0	0	468	402	0	359	0	0	
13	0	0	0	0	455	396	0	357	0	0	
14	0	0	0	0	450	391	0	356	0	0	
15	0	0	0	0	451	389	0	357	0	0	
0	0	0	0	0	457	390	0	359	0	0	
1	0	0	0	0	468	392	0	363	0	0	
2	0	0	0	0	482	396	0	367	0	0	
3	0	0	0	0	496	401	0	371	0	0	
4	0	0	0	0	510	406	0	374	0	0	
5	0	0	0	0	519	408	0	377	0	0	
6	0	0	0	0	523	409	0	377	0	0	
7	0	0	0	0	524	408	0	377	0	0	
8	0	0	0	0	519	405	0	374	0	0	
9	0	0	0	0	512	402	0	371	0	0	
10	0	0	0	0	503	398	0	366	0	0	
11	0	0	0	0	492	393	0	361	0	0	
12	0	0	0	0	482	391	0	356	0	0	
13	0	0	0	0	472	389	0	352	0	0	
14	0	0	0	0	465	389	0	348	0	0	
15	0	0	0	0	462	392	0	347	0	0	
0	0	0	0	0	463	397	0	347	0	0	
1	0	0	0	0	468	404	0	350	0	0	
2	0	0	0	0	476	414	0	354	0	0	
3	0	0	0	0	489	423	0	360	0	0	
4	0	0	0	0	504	433	0	367	0	0	
5	0	0	0	0	523	443	0	375	0	0	
6	0	0	0	0	543	451	0	383	0	0	
7	0	0	0	0	563	456	0	389	0	0	
8	0	0	0	0	580	458	0	393	0	0	
9	0	0	0	0	591	457	0	396	0	0	
10	0	0	0	0	597	451	0	396	0	0	
11	0	0	0	0	595	441	0	392	0	0	
12	0	0	0	0	586	429	0	387	0	0	
13	0	0	0	0	571	414	0	380	0	0	
14	0	0	0	0	551	398	0	371	0	0	
15	0	0	0	0	527	383	0	363	0	0	
0	0	0	0	0	500	369	0	354	0	0	
1	0	0	0	0	473	358	0	347	0	0	
2	0	0	0	0	447	349	0	342	0	0	
3	0	0	0	0	425	345	0	339	0	0	
4	0	0	0	0	408	344	0	337	0	0	
5	0	0	0	0	396	347	0	339	0	0	
6	0	0	0	0	391	353	0	342	0	0	
7	0	0	0	0	393	362	0	348	0	0	
8	0	0	0	0	401	374	0	355	0	0	
9	0	0	0	0	415	387	0	363	0	0	
10	0	0	0	0	433	400	0	371	0	0	
11	0	0	0	0	454	412	0	380	0	0	
12	0	0	0	0	476	424	0	388	0	0	
13	0	0	0	0	497	433	0	393	0	0	
14	0	0	0	0	517	439	0	398	0	0	
15	0	0	0	0	533	442	0	399	0	0	
0	0	0	0	0	544	441	0	398	0	0	
1	0	0	0	0	551	439	0	395	0	0	
2	0	0	0	0	555	434	0	390	0	0	
3	0	0	0	0	556	428	0	384	0	0	
4	0	0	0	0	553	422	0	378	0	0	
5	0	0	0	0	550	416	0	372	0	0	
6	0	0	0	0	547	412	0	367	0	0	
7	0	0	0	0	547	409	0	363	0	0	
8	0	0	0	0	547	408	0	360	0	0	
9	0	0	0	0	547	408	0	359	0	0	
10	0	0	0	0	547	410	0	360	0	0	
11	0	0	0	0	547	412	0	361	0	0	
12	0	0	0	0	546	414	0	364	0	0	
13	0	0	0	0	544	417	0	367	0	0	
14	0	0	0	0	540	419	0	370	0	0	
15	0	0	0	0	534	420	0	373	0	0	
0	0	0	0	0	526	419	0	376	0	0	
1	0	0	0	0	515	418	0	377	0	0	
2	0	0	0	0	503	414	0	377	0	0	
3	0	0	0	0	492	408	0	376	0	0	
4	0	0	0	0	481	401	0	375	0	0	
5	0	0	0	0	473	394	0	371	0	0	
6	0	0	0	0	470	387	0	369	0	0	
7	0	0	0	0	469	382	0	366	0	0	
8	0	0	0	0	471	378	0	364	0	0	
9	0	0	0	0	476	377	0	362	0	0	
10	0	0	0	0	482	377	0	361	0	0	
11	0	0	0	0	490	382	0	362	0	0	
12	0	0	0	0	499	388	0	365	0	0	
13	0	0	0	0	508	398	0	369	0	0	
14	0	0	0	0	516	408	0	376	0	0	
15	0	0	0	0	524	420	0	382	0	0	
0	0	0	0	0	531	433	0	390	0	0	
1	0	0	0	0	538	444	0	398	0	0	
2	0	0	0	0	542	455	0	405	0	0	
3	0	0	0	0	545	462	0	411	0	0	
4	0	0	0	0	544	465	0	415	0	0	
5	0	0	0	0	543	466	0	417	0	0	
6	0	0	0	0	539	464	0	416	0	0	
7	0	0	0	0	535	459	0	414	0	0	
8	0	0	0	0	529	452	0	411	0	0	
9	0	0	0	0	526	446	0	405	0	0	
10	0	0	0	0	523	439	0	399	0	0	
11	0	0	0	0	522	433	0	394	0	0	
12	0	0	0	0	523	428	0	388	0	0	
13	0	0	0	0	527	425	0	384	0	0	
14	0	0	0	0	533	422	0	379	0	0	
15	0	0	0	0	542	421	0	377	0	0	
0	0	0	0	0	551	420	0	376	0	0	
1	0	0	0	0	561	420	0	376	0	0	
2	0	0	0	0	569	419	0	379	0	0	
3	0	0	0	0	575	419	0	381	0	0	
4	0	0	0	0	580	420	0	385	0	0	
5	0	0	0	0	584	420	0	388	0	0	
6	0	0	0	0	587	420	0	392	0	0	
7	0	0	0	0	588	417	0	394	0	0	
8	0	0	0	0	589	412	0	396	0	0	
9	0	0	0	0	588	405	0	396	0	0	
10	0	0	0	0	583	399	0	395	0	0	
11	0	0	0	0	576	394	0	393	0	0	
12	0	0	0	0	565	391	0	391	0	0	
13	0	0	0	0	551	390	0	388	0	0	
14	0	0	0	0	537	392	0	385	0	0	
15	0	0	0	0	521	396	0	382	0	0	
0	0	0	0	0	505	402	0	380	0	0	
1	0	0	0	0	490	410	0	377	0	0	
2	0	0	0	0	477	418	0	377	0	0	
3	0	0	0	0	468	427	0	377	0	0	
4	0	0	0	0	462	436	0	379	0	0	
5	0	0	0	0	460	446	0	381	0	0	
6	0	0	0	0	463	454	0	385	0	0	
7	0	0	0	0	468	461	0	388	0	0	
8	0	0	0	0	477	467	0	392	0	0	
9	0	0	0	0	488	471	0	396	0	0	
10	0	0	0	0	500	472	0	398	0	0	
11	0	0	0	0	511	470	0	399	0	0	
12	0	0	0	0	522	464	0	397	0	0	
13	0	0	0	0	533	458	0	395	0	0	
14	0	0	0	0	543	450	0	391	0	0	
15	0	0	0	0	553	441	0	387	0	0	
0	0	0	0	0	563	432	0	382	0	0	
1	0	0	0	0	574	424	0	377	0	0	
2	0	0	0	0	587	419	0	374	0	0	
3	0	0	0	0	598	416	0	371	0	0	
4	0	0	0	0	607	415	0	369	0	0	
5	0	0	0	0	608	415	0	369	0	0	
6	0	0	0	0	601	415	0	369	0	0	
7	0	0	0	0	588	417	0	371	0	0	
8	0	0	0	0	567	420	0	374	0	0	
9	0	0	0	0	541	422	0	377	0	0	
10	0	0	0	0	511	425	0	382	0	0	
11	0	0	0	0	483	428	0	386	0	0	
12	0	0	0	0	457	432	0	391	0	0	
13	0	0	0	0	435	435	0	396	0	0	
14	0	0	0	0	420	438	0	400	0	0	
15	0	0	0	0	410	439	0	404	0	0	
0	0	0	0	0	407	440	0	406	0	0	
1	0	0	0	0	410	438	0	407	0	0	
2	0	0	0	0	417	435	0	406	0	0	
3	0	0	0	0	428	431	0	404	0	0	
4	0	0	0	0	441	425	0	400	0	0	
5	0	0	0	0	455	419	0	395	0	0	
6	0	0	0	0	471	413	0	390	0	0	
7	0	0	0	0	486	408	0	384	0	0	
8	0	0	0	0	498	403	0	379	0	0	
9	0	0	0	0	509	401	0	376	0	0	
10	0	0	0	0	518	400	0	372	0	0	
11	0	0	0	0	524	401	0	370	0	0	
12	0	0	0	0	528	403	0	370	0	0	
13	0	0	0	0	529	406	0	371	0	0	
14	0	0	0	0	528	410	0	374	0	0	
15	0	0	0	0	527	415	0	377	0	0	
0	0	0	0	0	524	420	0	382	0	0	
1	0	0	0	0	521	426	0	387	0	0	
2	0	0	0	0	519	431	0	392	0	0	
3	0	0	0	0	518	436	0	396	0	0	
4	0	0	0	0	518	440	0	399	0	0	
5	0	0	0	0	521	444	0	401	0	0	
6	0	0	0	0	527	448	0	401	0	0	
7	0	0	0	0	534	450	0	400	0	0	
8	0	0	0	0	542	449	0	396	0	0	
9	0	0	0	0	550	447	0	391	0	0	
10	0	0	0	0	556	443	0	384	0	0	
11	0	0	0	0	561	438	0	376	0	0	
12	0	0	0	0	562	431	0	369	0	0	
13	0	0	0	0	561	424	0	364	0	0	
14	0	0	0	0	560	419	0	360	0	0	
15	0	0	0	0	560	417	0	359	0	0	
0	0	0	0	0	562	418	0	361	0	0	
1	0	0	0	0	566	421	0	367	0	0	
2	0	0	0	0	571	427	0	374	0	0	
3	0	0	0	0	575	433	0	383	0	0	
4	0	0	0	0	578	439	0	392	0	0	
5	0	0	0	0	578	444	0	401	0	0	
6	0	0	0	0	575	448	0	410	0	0	
7	0	0	0	0	569	451	0	417	0	0	
8	0	0	0	0	562	454	0	422	0	0	
9	0	0	0	0	553	456	0	425	0	0	
10	0	0	0	0	543	457	0	426	0	0	
11	0	0	0	0	534	457	0	424	0	0	
12	0	0	0	0	525	456	0	421	0	0	
13	0	0	0	0	519	455	0	416	0	0	
14	0	0	0	0	515	452	0	410	0	0	
15	0	0	0	0	512	448	0	403	0	0	
0	0	0	0	0	511	442	0	395	0	0	
1	0	0	0	0	510	436	0	388	0	0	
2	0	0	0	0	509	429	0	381	0	0	
3	0	0	0	0	509	422	0	375	0	0	
4	0	0	0	0	510	415	0	371	0	0	
5	0	0	0	0	511	408	0	368	0	0	
6	0	0	0	0	511	402	0	366	0	0	
7	0	0	0	0	509	397	0	366	0	0	
8	0	0	0	0	505	393	0	366	0	0	
9	0	0	0	0	500	391	0	368	0	0	
10	0	0	0	0	494	390	0	371	0	0	
11	0	0	0	0	489	391	0	375	0	0	
12	0	0	0	0	485	394	0	378	0	0	
13	0	0	0	0	483	399	0	383	0	0	
14	0	0	0	0	483	405	0	387	0	0	
15	0	0	0	0	484	412	0	390	0	0	
0	0	0	0	0	487	420	0	393	0	0	
1	0	0	0	0	493	427	0	395	0	0	
2	0	0	0	0	499	434	0	396	0	0	
3	0	0	0	0	508	440	0	396	0	0	
4	0	0	0	0	517	445	0	396	0	0	
5	0	0	0	0	527	449	0	395	0	0	
6	0	0	0	0	537	451	0	394	0	0	
7	0	0	0	0	545	452	0	392	0	0	
8	0	0	0	0	550	451	0	391	0	0	
9	0	0	0	0	551	449	0	390	0	0	
10	0	0	0	0	547	444	0	389	0	0	
11	0	0	0	0	540	439	0	388	0	0	
12	0	0	0	0	530	433	0	389	0	0	
13	0	0	0	0	519	428	0	390	0	0	
14	0	0	0	0	507	422	0	391	0	0	
15	0	0	0	0	496	418	0	393	0	0	
0	0	0	0	0	487	414	0	395	0	0	
1	0	0	0	0	483	412	0	397	0	0	
2	0	0	0	0	483	411	0	398	0	0	
3	0	0	0	0	489	410	0	399	0	0	
4	0	0	0	0	500	409	0	399	0	0	
5	0	0	0	0	518	408	0	398	0	0	
6	0	0	0	0	540	408	0	396	0	0	
7	0	0	0	0	565	408	0	395	0	0	
8	0	0	0	0	591	409	0	393	0	0	
9	0	0	0	0	616	412	0	391	0	0	
10	0	0	0	0	635	415	0	391	0	0	
11	0	0	0	0	647	418	0	390	0	0	
12	0	0	0	0	649	421	0	389	0	0	
13	0	0	0	0	640	423	0	388	0	0	
14	0	0	0	0	622	425	0	388	0	0	
15	0	0	0	0	595	427	0	388	0	0	
0	0	0	0	0	564	428	0	388	0	0	
1	0	0	0	0	532	430	0	390	0	0	
2	0	0	0	0	502	432	0	391	0	0	
3	0	0	0	0	478	433	0	393	0	0	
4	0	0	0	0	463	435	0	394	0	0	
5	0	0	0	0	458	438	0	395	0	0	
6	0	0	0	0	465	439	0	395	0	0	
7	0	0	0	0	485	441	0	393	0	0	
8	0	0	0	0	515	443	0	391	0	0	
9	0	0	0	0	550	444	0	389	0	0	
10	0	0	0	0	583	446	0	387	0	0	
11	0	0	0	0	611	448	0	384	0	0	
12	0	0	0	0	628	448	0	383	0	0	
13	0	0	0	0	633	448	0	381	0	0	
14	0	0	0	0	627	449	0	380	0	0	
15	0	0	0	0	609	450	0	381	0	0	
0	0	0	0	0	582	449	0	382	0	0	
1	0	0	0	0	547	449	0	385	0	0	
2	0	0	0	0	508	447	0	387	0	0	
3	0	0	0	0	467	444	0	391	0	0	
4	0	0	0	0	430	441	0	394	0	0	
5	0	0	0	0	397	436	0	397	0	0	
6	0	0	0	0	371	432	0	401	0	0	
7	0	0	0	0	355	428	0	404	0	0	
8	0	0	0	0	348	426	0	407	0	0	
9	0	0	0	0	351	424	0	410	0	0	
10	0	0	0	0	364	424	0	412	0	0	
11	0	0	0	0	384	425	0	415	0	0	
12	0	0	0	0	410	426	0	415	0	0	
13	0	0	0	0	440	428	0	415	0	0	
14	0	0	0	0	470	430	0	413	0	0	
15	0	0	0	0	499	432	0	410	0	0	
0	0	0	0	0	525	432	0	407	0	0	
1	0	0	0	0	547	432	0	402	0	0	
2	0	0	0	0	562	430	0	397	0	0	
3	0	0	0	0	574	429	0	392	0	0	
4	0	0	0	0	580	428	0	388	0	0	
5	0	0	0	0	583	428	0	386	0	0	
6	0	0	0	0	581	429	0	385	0	0	
7	0	0	0	0	577	431	0	385	0	0	
8	0	0	0	0	572	433	0	385	0	0	
9	0	0	0	0	567	437	0	387	0	0	
10	0	0	0	0	560	442	0	390	0	0	
11	0	0	0	0	555	447	0	393	0	0	
12	0	0	0	0	549	451	0	395	0	0	
13	0	0	0	0	544	455	0	398	0	0	
14	0	0	0	0	543	459	0	400	0	0	
15	0	0	0	0	543	461	0	403	0	0	
0	0	0	0	0	546	462	0	404	0	0	
1	0	0	0	0	550	463	0	406	0	0	
2	0	0	0	0	555	462	0	407	0	0	
3	0	0	0	0	559	461	0	408	0	0	
4	0	0	0	0	559	458	0	408	0	0	
5	0	0	0	0	557	454	0	408	0	0	
6	0	0	0	0	551	448	0	407	0	0	
7	0	0	0	0	545	443	0	406	0	0	
8	0	0	0	0	538	438	0	406	0	0	
9	0	0	0	0	531	433	0	405	0	0	
10	0	0	0	0	526	429	0	406	0	0	
11	0	0	0	0	522	426	0	406	0	0	
12	0	0	0	0	519	425	0	407	0	0	
13	0	0	0	0	517	425	0	408	0	0	
14	0	0	0	0	516	427	0	409	0	0	
15	0	0	0	0	515	430	0	410	0	0	
0	0	0	0	0	516	433	0	411	0	0	
1	0	0	0	0	517	438	0	411	0	0	
2	0	0	0	0	519	442	0	410	0	0	
3	0	0	0	0	521	447	0	409	0	0	
4	0	0	0	0	525	451	0	408	0	0	
5	0	0	0	0	529	454	0	406	0	0	
6	0	0	0	0	535	458	0	404	0	0	
7	0	0	0	0	543	462	0	402	0	0	
8	0	0	0	0	552	465	0	400	0	0	
9	0	0	0	0	562	467	0	399	0	0	
10	0	0	0	0	573	470	0	398	0	0	
11	0	0	0	0	583	470	0	397	0	0	
12	0	0	0	0	591	468	0	396	0	0	
13	0	0	0	0	594	466	0	396	0	0	
14	0	0	0	0	593	462	0	396	0	0	
15	0	0	0	0	587	456	0	396	0	0	
0	0	0	0	0	576	451	0	396	0	0	
1	0	0	0	0	563	444	0	396	0	0	
2	0	0	0	0	548	439	0	396	0	0	
3	0	0	0	0	535	434	0	396	0	0	
4	0	0	0	0	524	429	0	396	0	0	
5	0	0	0	0	516	424	0	396	0	0	
6	0	0	0	0	512	421	0	395	0	0	
7	0	0	0	0	511	418	0	393	0	0	
8	0	0	0	0	513	415	0	392	0	0	
9	0	0	0	0	517	413	0	390	0	0	
10	0	0	0	0	523	410	0	387	0	0	
11	0	0	0	0	526	407	0	384	0	0	
12	0	0	0	0	527	403	0	380	0	0	
13	0	0	0	0	523	398	0	376	0	0	
14	0	0	0	0	515	394	0	371	0	0	
15	0	0	0	0	504	390	0	367	0	0	
0	0	0	0	0	489	386	0	363	0	0	
1	0	0	0	0	473	383	0	360	0	0	
2	0	0	0	0	458	382	0	359	0	0	
3	0	0	0	0	446	383	0	358	0	0	
4	0	0	0	0	438	387	0	361	0	0	
5	0	0	0	0	434	392	0	365	0	0	
6	0	0	0	0	436	399	0	371	0	0	
7	0	0	0	0	443	407	0	377	0	0	
8	0	0	0	0	455	416	0	384	0	0	
9	0	0	0	0	471	425	0	391	0	0	
10	0	0	0	0	487	433	0	396	0	0	
11	0	0	0	0	505	439	0	400	0	0	
12	0	0	0	0	521	443	0	402	0	0	
13	0	0	0	0	535	445	0	402	0	0	
14	0	0	0	0	545	445	0	400	0	0	
15	0	0	0	0	551	442	0	397	0	0	
0	0	0	0	0	553	439	0	393	0	0	
1	0	0	0	0	551	434	0	388	0	0	
2	0	0	0	0	547	430	0	383	0	0	
3	0	0	0	0	542	427	0	380	0	0	
4	0	0	0	0	536	425	0	377	0	0	
5	0	0	0	0	531	426	0	377	0	0	
6	0	0	0	0	528	428	0	379	0	0	
7	0	0	0	0	528	431	0	381	0	0	
8	0	0	0	0	529	435	0	385	0	0	
9	0	0	0	0	532	438	0	389	0	0	
10	0	0	0	0	537	442	0	394	0	0	
11	0	0	0	0	543	444	0	399	0	0	
12	0	0	0	0	550	447	0	403	0	0	
13	0	0	0	0	556	448	0	407	0	0	
14	0	0	0	0	560	449	0	411	0	0	
15	0	0	0	0	564	450	0	414	0	0	
0	0	0	0	0	567	451	0	416	0	0	
1	0	0	0	0	568	451	0	417	0	0	
2	0	0	0	0	568	451	0	417	0	0	
3	0	0	0	0	568	450	0	416	0	0	
4	0	0	0	0	567	449	0	414	0	0	
5	0	0	0	0	564	449	0	412	0	0	
6	0	0	0	0	561	448	0	409	0	0	
7	0	0	0	0	558	448	0	406	0	0	
8	0	0	0	0	554	449	0	404	0	0	
9	0	0	0	0	551	450	0	402	0	0	
10	0	0	0	0	550	451	0	401	0	0	
11	0	0	0	0	550	453	0	401	0	0	
12	0	0	0	0	551	454	0	401	0	0	
13	0	0	0	0	553	455	0	403	0	0	
14	0	0	0	0	556	455	0	405	0	0	
15	0	0	0	0	558	454	0	407	0	0	
0	0	0	0	0	559	454	0	409	0	0	
1	0	0	0	0	558	453	0	412	0	0	
2	0	0	0	0	555	452	0	413	0	0	
3	0	0	0	0	550	451	0	415	0	0	
4	0	0	0	0	543	450	0	415	0	0	
5	0	0	0	0	534	448	0	413	0	0	
6	0	0	0	0	524	444	0	410	0	0	
7	0	0	0	0	512	439	0	406	0	0	
8	0	0	0	0	500	432	0	399	0	0	
9	0	0	0	0	487	424	0	392	0	0	
10	0	0	0	0	476	415	0	384	0	0	
11	0	0	0	0	466	407	0	377	0	0	
12	0	0	0	0	459	399	0	370	0	0	
13	0	0	0	0	454	393	0	365	0	0	
14	0	0	0	0	452	389	0	361	0	0	
15	0	0	0	0	454	386	0	359	0	0	
0	0	0	0	0	458	385	0	359	0	0	
1	0	0	0	0	464	387	0	361	0	0	
2	0	0	0	0	473	390	0	364	0	0	
3	0	0	0	0	483	394	0	368	0	0	
4	0	0	0	0	495	400	0	372	0	0	
5	0	0	0	0	508	407	0	377	0	0	
6	0	0	0	0	522	414	0	382	0	0	
7	0	0	0	0	536	420	0	386	0	0	
8	0	0	0	0	547	426	0	389	0	0	
9	0	0	0	0	557	429	0	391	0	0	
10	0	0	0	0	563	432	0	391	0	0	
11	0	0	0	0	566	433	0	391	0	0	
12	0	0	0	0	566	433	0	391	0	0	
13	0	0	0	0	563	432	0	390	0	0	
14	0	0	0	0	560	432	0	389	0	0	
15	0	0	0	0	556	431	0	387	0	0	
0	0	0	0	0	551	431	0	387	0	0	
1	0	0	0	0	545	430	0	385	0	0	
2	0	0	0	0	540	431	0	384	0	0	
3	0	0	0	0	535	430	0	384	0	0	
4	0	0	0	0	530	431	0	382	0	0	
5	0	0	0	0	525	430	0	379	0	0	
6	0	0	0	0	519	427	0	375	0	0	
7	0	0	0	0	510	423	0	369	0	0	
8	0	0	0	0	500	415	0	360	0	0	
9	0	0	0	0	486	405	0	350	0	0	
10	0	0	0	0	469	392	0	337	0	0	
11	0	0	0	0	448	376	0	323	0	0	
12	0	0	0	0	426	358	0	306	0	0	
13	0	0	0	0	403	338	0	289	0	0	
14	0	0	0	0	380	318	0	271	0	0	
15	0	0	0	0	359	297	0	254	0	0	
0	0	0	0	0	339	277	0	236	0	0	
1	0	0	0	0	322	258	0	220	0	0	
2	0	0	0	0	310	242	0	204	0	0	
3	0	0	0	0	301	228	0	191	0	0	
4	0	0	0	0	297	217	0	181	0	0	
5	0	0	0	0	297	211	0	173	0	0	
6	0	0	0	0	301	207	0	168	0	0	
7	0	0	0	0	308	207	0	166	0	0	
8	0	0	0	0	317	211	0	167	0	0	
9	0	0	0	0	327	216	0	172	0	0	
10	0	0	0	0	339	224	0	179	0	0	
11	0	0	0	0	349	231	0	188	0	0	
12	0	0	0	0	359	241	0	199	0	0	
13	0	0	0	0	370	252	0	213	0	0	
14	0	0	0	0	382	264	0	229	0	0	
15	0	0	0	0	394	278	0	246	0	0	
0	0	0	0	0	405	293	0	264	0	0	
1	0	0	0	0	417	309	0	282	0	0	
2	0	0	0	0	430	326	0	301	0	0	
3	0	0	0	0	443	344	0	321	0	0	
4	0	0	0	0	457	361	0	339	0	0	
5	0	0	0	0	472	379	0	356	0	0	
6	0	0	0	0	487	396	0	372	0	0	
7	0	0	0	0	505	412	0	386	0	0	
8	0	0	0	0	523	426	0	397	0	0	
9	0	0	0	0	540	439	0	407	0	0	
10	0	0	0	0	556	450	0	415	0	0	
11	0	0	0	0	570	460	0	420	0	0	
12	0	0	0	0	580	468	0	424	0	0	
13	0	0	0	0	587	474	0	427	0	0	
14	0	0	0	0	589	478	0	428	0	0	
15	0	0	0	0	587	479	0	428	0	0	
0	0	0	0	0	581	478	0	426	0	0	
1	0	0	0	0	572	475	0	423	0	0	
2	0	0	0	0	561	470	0	419	0	0	
3	0	0	0	0	550	464	0	415	0	0	
4	0	0	0	0	536	457	0	410	0	0	
5	0	0	0	0	525	449	0	404	0	0	
6	0	0	0	0	514	441	0	398	0	0	
7	0	0	0	0	506	433	0	393	0	0	
8	0	0	0	0	499	425	0	388	0	0	
9	0	0	0	0	494	419	0	384	0	0	
10	0	0	0	0	493	415	0	381	0	0	
11	0	0	0	0	494	412	0	380	0	0	
12	0	0	0	0	499	412	0	382	0	0	
13	0	0	0	0	505	415	0	385	0	0	
14	0	0	0	0	513	419	0	391	0	0	
15	0	0	0	0	524	426	0	397	0	0	
0	0	0	0	0	536	435	0	404	0	0	
1	0	0	0	0	547	444	0	412	0	0	
2	0	0	0	0	558	453	0	419	0	0	
3	0	0	0	0	567	461	0	425	0	0	
4	0	0	0	0	574	468	0	431	0	0	
5	0	0	0	0	579	473	0	434	0	0	
6	0	0	0	0	582	476	0	436	0	0	
7	0	0	0	0	582	477	0	437	0	0	
8	0	0	0	0	580	477	0	436	0	0	
9	0	0	0	0	576	474	0	434	0	0	
10	0	0	0	0	572	470	0	430	0	0	
11	0	0	0	0	564	463	0	425	0	0	
12	0	0	0	0	556	456	0	420	0	0	
13	0	0	0	0	548	449	0	415	0	0	
14	0	0	0	0	540	442	0	410	0	0	
15	0	0	0	0	533	436	0	406	0	0	
0	0	0	0	0	529	433	0	404	0	0	
1	0	0	0	0	527	432	0	403	0	0	
2	0	0	0	0	527	433	0	404	0	0	
3	0	0	0	0	530	437	0	407	0	0	
4	0	0	0	0	536	443	0	410	0	0	
5	0	0	0	0	543	450	0	415	0	0	
6	0	0	0	0	551	459	0	420	0	0	
7	0	0	0	0	560	466	0	425	0	0	
8	0	0	0	0	569	473	0	429	0	0	
9	0	0	0	0	577	480	0	432	0	0	
10	0	0	0	0	585	485	0	434	0	0	
11	0	0	0	0	590	487	0	434	0	0	
12	0	0	0	0	592	486	0	432	0	0	
13	0	0	0	0	592	483	0	428	0	0	
14	0	0	0	0	589	476	0	423	0	0	
15	0	0	0	0	583	468	0	417	0	0	
0	0	0	0	0	575	460	0	411	0	0	
1	0	0	0	0	566	451	0	405	0	0	
2	0	0	0	0	556	443	0	400	0	0	
3	0	0	0	0	548	436	0	396	0	0	
4	0	0	0	0	541	431	0	394	0	0	
5	0	0	0	0	537	430	0	394	0	0	
6	0	0	0	0	536	430	0	397	0	0	
7	0	0	0	0	538	434	0	400	0	0	
8	0	0	0	0	543	440	0	406	0	0	
9	0	0	0	0	550	448	0	412	0	0	
10	0	0	0	0	559	456	0	419	0	0	
11	0	0	0	0	568	465	0	425	0	0	
12	0	0	0	0	575	473	0	431	0	0	
13	0	0	0	0	583	481	0	434	0	0	
14	0	0	0	0	588	486	0	436	0	0	
15	0	0	0	0	591	487	0	435	0	0	
0	0	0	0	0	591	487	0	432	0	0	
1	0	0	0	0	588	483	0	428	0	0	
2	0	0	0	0	581	478	0	421	0	0	
3	0	0	0	0	572	470	0	414	0	0	
4	0	0	0	0	560	460	0	406	0	0	
5	0	0	0	0	548	450	0	399	0	0	
6	0	0	0	0	536	441	0	392	0	0	
7	0	0	0	0	525	434	0	387	0	0	
8	0	0	0	0	518	429	0	384	0	0	
9	0	0	0	0	513	427	0	383	0	0	
10	0	0	0	0	512	428	0	385	0	0	
11	0	0	0	0	514	431	0	388	0	0	
12	0	0	0	0	518	435	0	392	0	0	
13	0	0	0	0	523	439	0	397	0	0	
14	0	0	0	0	528	444	0	402	0	0	
15	0	0	0	0	532	446	0	406	0	0	
0	0	0	0	0	535	447	0	408	0	0	
1	0	0	0	0	536	447	0	408	0	0	
2	0	0	0	0	536	444	0	407	0	0	
3	0	0	0	0	535	441	0	405	0	0	
4	0	0	0	0	532	437	0	401	0	0	
5	0	0	0	0	529	433	0	397	0	0	
6	0	0	0	0	527	430	0	393	0	0	
7	0	0	0	0	527	428	0	390	0	0	
8	0	0	0	0	528	428	0	387	0	0	
9	0	0	0	0	531	429	0	385	0	0	
10	0	0	0	0	536	431	0	384	0	0	
11	0	0	0	0	542	435	0	386	0	0	
12	0	0	0	0	551	441	0	388	0	0	
13	0	0	0	0	559	448	0	391	0	0	
14	0	0	0	0	568	455	0	396	0	0	
15	0	0	0	0	575	462	0	402	0	0	
0	0	0	0	0	582	470	0	408	0	0	
1	0	0	0	0	587	476	0	414	0	0	
2	0	0	0	0	590	482	0	419	0	0	
3	0	0	0	0	591	486	0	423	0	0	
4	0	0	0	0	591	488	0	425	0	0	
5	0	0	0	0	590	489	0	427	0	0	
6	0	0	0	0	587	488	0	426	0	0	
7	0	0	0	0	582	484	0	423	0	0	
8	0	0	0	0	575	477	0	418	0	0	
9	0	0	0	0	567	468	0	411	0	0	
10	0	0	0	0	558	458	0	403	0	0	
11	0	0	0	0	548	447	0	396	0	0	
12	0	0	0	0	538	435	0	387	0	0	
13	0	0	0	0	527	423	0	379	0	0	
14	0	0	0	0	518	411	0	371	0	0	
15	0	0	0	0	510	400	0	364	0	0	
0	0	0	0	0	506	392	0	359	0	0	
1	0	0	0	0	507	387	0	356	0	0	
2	0	0	0	0	513	385	0	355	0	0	
3	0	0	0	0	523	387	0	356	0	0	
4	0	0	0	0	536	391	0	359	0	0	
5	0	0	0	0	550	398	0	364	0	0	
6	0	0	0	0	563	406	0	370	0	0	
7	0	0	0	0	575	414	0	376	0	0	
8	0	0	0	0	583	423	0	381	0	0	
9	0	0	0	0	589	431	0	386	0	0	
10	0	0	0	0	589	437	0	390	0	0	
11	0	0	0	0	585	441	0	391	0	0	
12	0	0	0	0	576	443	0	392	0	0	
13	0	0	0	0	564	443	0	391	0	0	
14	0	0	0	0	550	442	0	388	0	0	
15	0	0	0	0	535	440	0	385	0	0	
0	0	0	0	0	520	437	0	381	0	0	
1	0	0	0	0	508	433	0	377	0	0	
2	0	0	0	0	499	431	0	374	0	0	
3	0	0	0	0	495	430	0	373	0	0	
4	0	0	0	0	495	430	0	374	0	0	
5	0	0	0	0	498	433	0	375	0	0	
6	0	0	0	0	505	438	0	379	0	0	
7	0	0	0	0	514	444	0	384	0	0	
8	0	0	0	0	526	451	0	390	0	0	
9	0	0	0	0	536	457	0	396	0	0	
10	0	0	0	0	545	462	0	400	0	0	
11	0	0	0	0	551	464	0	404	0	0	
12	0	0	0	0	554	464	0	406	0	0	
13	0	0	0	0	553	461	0	406	0	0	
14	0	0	0	0	550	456	0	403	0	0	
15	0	0	0	0	544	449	0	400	0	0	
0	0	0	0	0	536	440	0	395	0	0	
1	0	0	0	0	527	432	0	388	0	0	
2	0	0	0	0	519	423	0	382	0	0	
3	0	0	0	0	512	416	0	375	0	0	
4	0	0	0	0	507	410	0	369	0	0	
5	0	0	0	0	504	407	0	364	0	0	
6	0	0	0	0	504	405	0	360	0	0	
7	0	0	0	0	507	407	0	359	0	0	
8	0	0	0	0	511	409	0	359	0	0	
9	0	0	0	0	518	415	0	362	0	0	
10	0	0	0	0	527	422	0	366	0	0	
11	0	0	0	0	536	429	0	372	0	0	
12	0	0	0	0	547	436	0	378	0	0	
13	0	0	0	0	556	442	0	385	0	0	
14	0	0	0	0	564	446	0	390	0	0	
15	0	0	0	0	572	448	0	395	0	0	
0	0	0	0	0	580	447	0	398	0	0	
1	0	0	0	0	588	444	0	399	0	0	
2	0	0	0	0	596	440	0	398	0	0	
3	0	0	0	0	603	435	0	395	0	0	
4	0	0	0	0	608	429	0	391	0	0	
5	0	0	0	0	609	424	0	386	0	0	
6	0	0	0	0	609	421	0	381	0	0	
7	0	0	0	0	606	420	0	376	0	0	
8	0	0	0	0	599	420	0	372	0	0	
9	0	0	0	0	588	421	0	368	0	0	
10	0	0	0	0	575	423	0	364	0	0	
11	0	0	0	0	560	424	0	362	0	0	
12	0	0	0	0	544	425	0	360	0	0	
13	0	0	0	0	528	424	0	359	0	0	
14	0	0	0	0	511	422	0	359	0	0	
15	0	0	0	0	497	419	0	360	0	0	
0	0	0	0	0	486	415	0	362	0	0	
1	0	0	0	0	479	410	0	364	0	0	
2	0	0	0	0	476	406	0	367	0	0	
3	0	0	0	0	477	402	0	369	0	0	
4	0	0	0	0	480	398	0	371	0	0	
5	0	0	0	0	483	394	0	371	0	0	
6	0	0	0	0	487	390	0	369	0	0	
7	0	0	0	0	489	386	0	367	0	0	
8	0	0	0	0	491	382	0	364	0	0	
9	0	0	0	0	491	380	0	359	0	0	
10	0	0	0	0	492	377	0	355	0	0	
11	0	0	0	0	495	375	0	350	0	0	
12	0	0	0	0	498	372	0	345	0	0	
13	0	0	0	0	504	370	0	341	0	0	
14	0	0	0	0	511	367	0	337	0	0	
15	0	0	0	0	518	364	0	335	0	0	
0	0	0	0	0	523	362	0	334	0	0	
1	0	0	0	0	525	361	0	335	0	0	
2	0	0	0	0	525	363	0	337	0	0	
3	0	0	0	0	521	366	0	342	0	0	
4	0	0	0	0	516	374	0	348	0	0	
5	0	0	0	0	511	384	0	357	0	0	
6	0	0	0	0	507	398	0	367	0	0	
7	0	0	0	0	505	415	0	379	0	0	
8	0	0	0	0	507	433	0	390	0	0	
9	0	0	0	0	512	452	0	402	0	0	
10	0	0	0	0	519	470	0	413	0	0	
11	0	0	0	0	527	484	0	422	0	0	
12	0	0	0	0	535	495	0	428	0	0	
13	0	0	0	0	541	501	0	431	0	0	
14	0	0	0	0	546	501	0	431	0	0	
15	0	0	0	0	548	497	0	427	0	0	
0	0	0	0	0	547	488	0	422	0	0	
1	0	0	0	0	543	477	0	414	0	0	
2	0	0	0	0	538	463	0	405	0	0	
3	0	0	0	0	532	450	0	396	0	0	
4	0	0	0	0	525	438	0	388	0	0	
5	0	0	0	0	519	428	0	382	0	0	
6	0	0	0	0	515	420	0	378	0	0	
7	0	0	0	0	512	416	0	376	0	0	
8	0	0	0	0	513	415	0	377	0	0	
9	0	0	0	0	517	417	0	380	0	0	
10	0	0	0	0	523	423	0	384	0	0	
11	0	0	0	0	530	429	0	389	0	0	
12	0	0	0	0	538	436	0	394	0	0	
13	0	0	0	0	547	443	0	399	0	0	
14	0	0	0	0	555	448	0	402	0	0	
15	0	0	0	0	562	453	0	404	0	0	
0	0	0	0	0	568	455	0	403	0	0	
1	0	0	0	0	572	456	0	402	0	0	
2	0	0	0	0	575	455	0	399	0	0	
3	0	0	0	0	574	452	0	394	0	0	
4	0	0	0	0	571	448	0	390	0	0	
5	0	0	0	0	566	442	0	385	0	0	
6	0	0	0	0	560	437	0	381	0	0	
7	0	0	0	0	556	433	0	378	0	0	
8	0	0	0	0	555	431	0	377	0	0	
9	0	0	0	0	556	431	0	377	0	0	
10	0	0	0	0	561	432	0	380	0	0	
11	0	0	0	0	570	435	0	384	0	0	
12	0	0	0	0	580	439	0	388	0	0	
13	0	0	0	0	591	442	0	395	0	0	
14	0	0	0	0	601	445	0	400	0	0	
15	0	0	0	0	607	448	0	407	0	0	
0	0	0	0	0	608	449	0	411	0	0	
1	0	0	0	0	604	449	0	414	0	0	
2	0	0	0	0	593	448	0	415	0	0	
3	0	0	0	0	576	444	0	413	0	0	
4	0	0	0	0	556	438	0	409	0	0	
5	0	0	0	0	532	430	0	404	0	0	
6	0	0	0	0	508	422	0	399	0	0	
7	0	0	0	0	486	415	0	393	0	0	
8	0	0	0	0	468	408	0	388	0	0	
9	0	0	0	0	455	404	0	384	0	0	
10	0	0	0	0	451	403	0	382	0	0	
11	0	0	0	0	453	405	0	381	0	0	
12	0	0	0	0	463	410	0	383	0	0	
13	0	0	0	0	478	417	0	385	0	0	
14	0	0	0	0	496	425	0	390	0	0	
15	0	0	0	0	516	435	0	393	0	0	
0	0	0	0	0	536	444	0	398	0	0	
1	0	0	0	0	553	453	0	401	0	0	
2	0	0	0	0	568	460	0	403	0	0	
3	0	0	0	0	579	465	0	405	0	0	
4	0	0	0	0	587	469	0	405	0	0	
5	0	0	0	0	591	472	0	404	0	0	
6	0	0	0	0	591	472	0	403	0	0	
7	0	0	0	0	587	471	0	401	0	0	
8	0	0	0	0	577	468	0	399	0	0	
9	0	0	0	0	565	463	0	395	0	0	
10	0	0	0	0	550	455	0	391	0	0	
11	0	0	0	0	534	447	0	387	0	0	
12	0	0	0	0	518	438	0	383	0	0	
13	0	0	0	0	502	428	0	380	0	0	
14	0	0	0	0	489	421	0	377	0	0	
15	0	0	0	0	481	415	0	377	0	0	
0	0	0	0	0	477	411	0	378	0	0	
1	0	0	0	0	476	409	0	381	0	0	
2	0	0	0	0	479	409	0	384	0	0	
3	0	0	0	0	485	411	0	388	0	0	
4	0	0	0	0	492	414	0	393	0	0	
5	0	0	0	0	500	417	0	397	0	0	
6	0	0	0	0	509	420	0	401	0	0	
7	0	0	0	0	516	422	0	404	0	0	
8	0	0	0	0	522	424	0	405	0	0	
9	0	0	0	0	527	425	0	405	0	0	
10	0	0	0	0	530	425	0	404	0	0	
11	0	0	0	0	531	424	0	401	0	0	
12	0	0	0	0	531	423	0	398	0	0	
13	0	0	0	0	529	421	0	393	0	0	
14	0	0	0	0	527	418	0	389	0	0	
15	0	0	0	0	525	416	0	385	0	0	
0	0	0	0	0	523	415	0	381	0	0	
1	0	0	0	0	521	414	0	379	0	0	
2	0	0	0	0	521	415	0	377	0	0	
3	0	0	0	0	522	416	0	378	0	0	
4	0	0	0	0	525	420	0	380	0	0	
5	0	0	0	0	530	425	0	384	0	0	
6	0	0	0	0	536	432	0	390	0	0	
7	0	0	0	0	543	441	0	396	0	0	
8	0	0	0	0	552	451	0	404	0	0	
9	0	0	0	0	562	460	0	412	0	0	
10	0	0	0	0	571	469	0	419	0	0	
11	0	0	0	0	579	476	0	425	0	0	
12	0	0	0	0	585	480	0	429	0	0	
13	0	0	0	0	590	481	0	431	0	0	
14	0	0	0	0	591	479	0	430	0	0	
15	0	0	0	0	590	473	0	427	0	0	
0	0	0	0	0	585	465	0	421	0	0	
1	0	0	0	0	578	456	0	414	0	0	
2	0	0	0	0	568	446	0	406	0	0	
3	0	0	0	0	557	436	0	398	0	0	
4	0	0	0	0	544	427	0	389	0	0	
5	0	0	0	0	532	419	0	382	0	0	
6	0	0	0	0	521	413	0	376	0	0	
7	0	0	0	0	512	410	0	373	0	0	
8	0	0	0	0	507	409	0	372	0	0	
9	0	0	0	0	505	411	0	374	0	0	
10	0	0	0	0	506	414	0	377	0	0	
11	0	0	0	0	510	419	0	381	0	0	
12	0	0	0	0	516	423	0	387	0	0	
13	0	0	0	0	525	428	0	392	0	0	
14	0	0	0	0	535	434	0	399	0	0	
15	0	0	0	0	547	438	0	404	0	0	
0	0	0	0	0	559	443	0	408	0	0	
1	0	0	0	0	572	447	0	412	0	0	
2	0	0	0	0	583	450	0	414	0	0	
3	0	0	0	0	595	452	0	415	0	0	
4	0	0	0	0	605	455	0	413	0	0	
5	0	0	0	0	614	456	0	410	0	0	
6	0	0	0	0	621	457	0	407	0	0	
7	0	0	0	0	624	458	0	402	0	0	
8	0	0	0	0	623	459	0	398	0	0	
9	0	0	0	0	617	460	0	395	0	0	
10	0	0	0	0	608	462	0	392	0	0	
11	0	0	0	0	595	463	0	391	0	0	
12	0	0	0	0	581	465	0	392	0	0	
13	0	0	0	0	567	467	0	395	0	0	
14	0	0	0	0	553	468	0	399	0	0	
15	0	0	0	0	540	467	0	403	0	0	
0	0	0	0	0	527	465	0	406	0	0	
1	0	0	0	0	514	460	0	409	0	0	
2	0	0	0	0	501	452	0	411	0	0	
3	0	0	0	0	488	444	0	412	0	0	
4	0	0	0	0	476	434	0	412	0	0	
5	0	0	0	0	466	424	0	409	0	0	
6	0	0	0	0	458	414	0	406	0	0	
7	0	0	0	0	452	407	0	402	0	0	
8	0	0	0	0	451	400	0	397	0	0	
9	0	0	0	0	451	396	0	392	0	0	
10	0	0	0	0	456	395	0	387	0	0	
11	0	0	0	0	463	394	0	383	0	0	
12	0	0	0	0	471	396	0	378	0	0	
13	0	0	0	0	480	398	0	375	0	0	
14	0	0	0	0	487	400	0	373	0	0	
15	0	0	0	0	495	403	0	372	0	0	
0	0	0	0	0	501	407	0	372	0	0	
1	0	0	0	0	507	412	0	374	0	0	
2	0	0	0	0	512	416	0	377	0	0	
3	0	0	0	0	516	420	0	382	0	0	
4	0	0	0	0	520	425	0	387	0	0	
5	0	0	0	0	523	429	0	392	0	0	
6	0	0	0	0	524	432	0	398	0	0	
7	0	0	0	0	525	435	0	402	0	0	
8	0	0	0	0	525	436	0	405	0	0	
9	0	0	0	0	525	437	0	407	0	0	
10	0	0	0	0	524	436	0	407	0	0	
11	0	0	0	0	523	435	0	406	0	0	
12	0	0	0	0	522	432	0	403	0	0	
13	0	0	0	0	520	429	0	399	0	0	
14	0	0	0	0	518	426	0	394	0	0	
15	0	0	0	0	517	423	0	390	0	0	
0	0	0	0	0	517	420	0	385	0	0	
1	0	0	0	0	517	419	0	382	0	0	
2	0	0	0	0	518	418	0	380	0	0	
3	0	0	0	0	521	419	0	379	0	0	
4	0	0	0	0	524	422	0	380	0	0	
5	0	0	0	0	527	425	0	382	0	0	
6	0	0	0	0	531	428	0	386	0	0	
7	0	0	0	0	534	432	0	391	0	0	
8	0	0	0	0	538	436	0	396	0	0	
9	0	0	0	0	540	440	0	401	0	0	
10	0	0	0	0	542	443	0	406	0	0	
11	0	0	0	0	543	446	0	409	0	0	
12	0	0	0	0	543	447	0	412	0	0	
13	0	0	0	0	543	448	0	412	0	0	
14	0	0	0	0	542	447	0	410	0	0	
15	0	0	0	0	540	444	0	408	0	0	
0	0	0	0	0	537	441	0	403	0	0	
1	0	0	0	0	534	437	0	399	0	0	
2	0	0	0	0	531	433	0	393	0	0	
3	0	0	0	0	528	428	0	387	0	0	
4	0	0	0	0	526	423	0	383	0	0	
5	0	0	0	0	524	419	0	379	0	0	
6	0	0	0	0	523	417	0	376	0	0	
7	0	0	0	0	524	416	0	375	0	0	
8	0	0	0	0	527	417	0	377	0	0	
9	0	0	0	0	531	420	0	380	0	0	
10	0	0	0	0	536	424	0	384	0	0	
11	0	0	0	0	542	430	0	390	0	0	
12	0	0	0	0	547	436	0	395	0	0	
13	0	0	0	0	551	440	0	400	0	0	
14	0	0	0	0	555	444	0	404	0	0	
15	0	0	0	0	556	447	0	407	0	0	
0	0	0	0	0	555	448	0	408	0	0	
1	0	0	0	0	551	446	0	408	0	0	
2	0	0	0	0	544	443	0	407	0	0	
3	0	0	0	0	537	439	0	404	0	0	
4	0	0	0	0	529	435	0	400	0	0	
5	0	0	0	0	521	430	0	396	0	0	
6	0	0	0	0	515	427	0	391	0	0	
7	0	0	0	0	510	423	0	388	0	0	
8	0	0	0	0	507	421	0	384	0	0	
9	0	0	0	0	506	419	0	382	0	0	
10	0	0	0	0	508	420	0	380	0	0	
11	0	0	0	0	512	422	0	380	0	0	
12	0	0	0	0	518	426	0	383	0	0	
13	0	0	0	0	524	430	0	385	0	0	
14	0	0	0	0	531	435	0	388	0	0	
15	0	0	0	0	537	440	0	391	0	0	
0	0	0	0	0	542	444	0	394	0	0	
1	0	0	0	0	546	447	0	396	0	0	
2	0	0	0	0	548	448	0	397	0	0	
3	0	0	0	0	549	448	0	397	0	0	
4	0	0	0	0	549	447	0	396	0	0	
5	0	0	0	0	548	445	0	393	0	0	
6	0	0	0	0	549	443	0	391	0	0	
7	0	0	0	0	551	440	0	388	0	0	
8	0	0	0	0	554	439	0	386	0	0	
9	0	0	0	0	559	437	0	384	0	0	
10	0	0	0	0	564	435	0	381	0	0	
11	0	0	0	0	567	434	0	379	0	0	
12	0	0	0	0	568	432	0	377	0	0	
13	0	0	0	0	566	431	0	376	0	0	
14	0	0	0	0	561	429	0	376	0	0	
15	0	0	0	0	554	428	0	376	0	0	
0	0	0	0	0	545	427	0	376	0	0	
1	0	0	0	0	534	426	0	377	0	0	
2	0	0	0	0	523	425	0	379	0	0	
3	0	0	0	0	510	424	0	380	0	0	
4	0	0	0	0	499	423	0	382	0	0	
5	0	0	0	0	488	423	0	384	0	0	
6	0	0	0	0	480	423	0	386	0	0	
7	0	0	0	0	475	423	0	388	0	0	
8	0	0	0	0	472	424	0	390	0	0	
9	0	0	0	0	474	426	0	392	0	0	
10	0	0	0	0	478	428	0	394	0	0	
11	0	0	0	0	484	431	0	395	0	0	
12	0	0	0	0	492	433	0	396	0	0	
13	0	0	0	0	502	436	0	397	0	0	
14	0	0	0	0	513	439	0	398	0	0	
15	0	0	0	0	523	441	0	399	0	0	
0	0	0	0	0	532	444	0	399	0	0	
1	0	0	0	0	539	444	0	399	0	0	
2	0	0	0	0	543	444	0	399	0	0	
3	0	0	0	0	545	443	0	399	0	0	
4	0	0	0	0	544	441	0	398	0	0	
5	0	0	0	0	541	438	0	398	0	0	
6	0	0	0	0	537	436	0	398	0	0	
7	0	0	0	0	531	434	0	398	0	0	
8	0	0	0	0	527	433	0	398	0	0	
9	0	0	0	0	523	432	0	399	0	0	
10	0	0	0	0	520	432	0	400	0	0	
11	0	0	0	0	519	433	0	402	0	0	
12	0	0	0	0	519	435	0	403	0	0	
13	0	0	0	0	519	437	0	405	0	0	
14	0	0	0	0	522	439	0	406	0	0	
15	0	0	0	0	526	441	0	407	0	0	
0	0	0	0	0	529	443	0	406	0	0	
1	0	0	0	0	534	445	0	406	0	0	
2	0	0	0	0	539	448	0	404	0	0	
3	0	0	0	0	543	449	0	403	0	0	
4	0	0	0	0	547	449	0	400	0	0	
5	0	0	0	0	549	448	0	398	0	0	
6	0	0	0	0	550	447	0	396	0	0	
7	0	0	0	0	550	446	0	395	0	0	
8	0	0	0	0	548	444	0	394	0	0	
9	0	0	0	0	546	442	0	393	0	0	
10	0	0	0	0	543	440	0	394	0	0	
11	0	0	0	0	539	439	0	395	0	0	
12	0	0	0	0	534	437	0	396	0	0	
13	0	0	0	0	528	435	0	397	0	0	
14	0	0	0	0	523	433	0	398	0	0	
15	0	0	0	0	518	432	0	398	0	0	
0	0	0	0	0	514	429	0	398	0	0	
1	0	0	0	0	511	428	0	396	0	0	
2	0	0	0	0	509	425	0	395	0	0	
3	0	0	0	0	508	423	0	393	0	0	
4	0	0	0	0	508	422	0	391	0	0	
5	0	0	0	0	509	419	0	388	0	0	
6	0	0	0	0	511	418	0	385	0	0	
7	0	0	0	0	514	416	0	383	0	0	
8	0	0	0	0	515	415	0	380	0	0	
9	0	0	0	0	517	413	0	378	0	0	
10	0	0	0	0	517	412	0	376	0	0	
11	0	0	0	0	518	412	0	376	0	0	
12	0	0	0	0	518	413	0	376	0	0	
13	0	0	0	0	517	414	0	376	0	0	
14	0	0	0	0	516	415	0	377	0	0	
15	0	0	0	0	516	417	0	380	0	0	
0	0	0	0	0	517	420	0	381	0	0	
1	0	0	0	0	518	423	0	384	0	0	
2	0	0	0	0	519	426	0	386	0	0	
3	0	0	0	0	522	430	0	389	0	0	
4	0	0	0	0	525	433	0	391	0	0	
5	0	0	0	0	528	437	0	391	0	0	
6	0	0	0	0	532	440	0	392	0	0	
7	0	0	0	0	537	443	0	391	0	0	
8	0	0	0	0	543	445	0	391	0	0	
9	0	0	0	0	550	448	0	390	0	0	
10	0	0	0	0	557	450	0	389	0	0	
11	0	0	0	0	564	452	0	388	0	0	
12	0	0	0	0	569	454	0	387	0	0	
13	0	0	0	0	570	455	0	387	0	0	
14	0	0	0	0	568	454	0	387	0	0	
15	0	0	0	0	562	452	0	387	0	0	
0	0	0	0	0	552	449	0	387	0	0	
1	0	0	0	0	540	446	0	388	0	0	
2	0	0	0	0	527	441	0	389	0	0	
3	0	0	0	0	512	436	0	390	0	0	
4	0	0	0	0	498	431	0	390	0	0	
5	0	0	0	0	486	426	0	391	0	0	
6	0	0	0	0	475	422	0	391	0	0	
7	0	0	0	0	468	418	0	391	0	0	
8	0	0	0	0	465	416	0	391	0	0	
9	0	0	0	0	466	416	0	390	0	0	
10	0	0	0	0	471	417	0	390	0	0	
11	0	0	0	0	478	420	0	389	0	0	
12	0	0	0	0	488	423	0	388	0	0	
13	0	0	0	0	499	427	0	386	0	0	
14	0	0	0	0	511	430	0	384	0	0	
15	0	0	0	0	520	432	0	383	0	0	
0	0	0	0	0	527	433	0	380	0	0	
1	0	0	0	0	531	432	0	378	0	0	
2	0	0	0	0	533	431	0	376	0	0	
3	0	0	0	0	533	428	0	376	0	0	
4	0	0	0	0	531	427	0	376	0	0	
5	0	0	0	0	528	424	0	376	0	0	
6	0	0	0	0	525	424	0	378	0	0	
7	0	0	0	0	523	424	0	380	0	0	
8	0	0	0	0	521	425	0	383	0	0	
9	0	0	0	0	520	428	0	386	0	0	
10	0	0	0	0	520	431	0	388	0	0	
11	0	0	0	0	521	433	0	390	0	0	
12	0	0	0	0	522	437	0	391	0	0	
13	0	0	0	0	523	439	0	391	0	0	
14	0	0	0	0	524	440	0	391	0	0	
15	0	0	0	0	525	441	0	389	0	0	
0	0	0	0	0	525	441	0	387	0	0	
1	0	0	0	0	527	441	0	385	0	0	
2	0	0	0	0	529	442	0	383	0	0	
3	0	0	0	0	532	443	0	382	0	0	
4	0	0	0	0	535	444	0	381	0	0	
5	0	0	0	0	537	445	0	381	0	0	
6	0	0	0	0	540	446	0	381	0	0	
7	0	0	0	0	540	446	0	383	0	0	
8	0	0	0	0	540	447	0	385	0	0	
9	0	0	0	0	539	446	0	388	0	0	
10	0	0	0	0	536	444	0	390	0	0	
11	0	0	0	0	533	443	0	394	0	0	
12	0	0	0	0	528	440	0	396	0	0	
13	0	0	0	0	524	438	0	399	0	0	
14	0	0	0	0	519	435	0	401	0	0	
15	0	0	0	0	515	433	0	402	0	0	
0	0	0	0	0	511	430	0	401	0	0	
1	0	0	0	0	508	428	0	399	0	0	
2	0	0	0	0	506	424	0	395	0	0	
3	0	0	0	0	503	420	0	390	0	0	
4	0	0	0	0	501	415	0	384	0	0	
5	0	0	0	0	499	410	0	377	0	0	
6	0	0	0	0	497	406	0	370	0	0	
7	0	0	0	0	496	402	0	364	0	0	
8	0	0	0	0	495	399	0	358	0	0	
9	0	0	0	0	496	398	0	355	0	0	
10	0	0	0	0	498	398	0	352	0	0	
11	0	0	0	0	503	401	0	353	0	0	
12	0	0	0	0	509	407	0	356	0	0	
13	0	0	0	0	517	415	0	362	0	0	
14	0	0	0	0	525	423	0	370	0	0	
15	0	0	0	0	532	432	0	379	0	0	
0	0	0	0	0	537	440	0	388	0	0	
1	0	0	0	0	539	447	0	397	0	0	
2	0	0	0	0	539	451	0	406	0	0	
3	0	0	0	0	536	453	0	412	0	0	
4	0	0	0	0	532	451	0	416	0	0	
5	0	0	0	0	527	449	0	418	0	0	
6	0	0	0	0	521	444	0	417	0	0	
7	0	0	0	0	516	438	0	415	0	0	
8	0	0	0	0	511	432	0	410	0	0	
9	0	0	0	0	507	426	0	404	0	0	
10	0	0	0	0	505	422	0	399	0	0	
11	0	0	0	0	506	419	0	393	0	0	
12	0	0	0	0	508	418	0	388	0	0	
13	0	0	0	0	512	419	0	384	0	0	
14	0	0	0	0	516	420	0	381	0	0	
15	0	0	0	0	522	423	0	379	0	0	
0	0	0	0	0	528	428	0	380	0	0	
1	0	0	0	0	534	432	0	382	0	0	
2	0	0	0	0	540	438	0	385	0	0	
3	0	0	0	0	546	444	0	389	0	0	
4	0	0	0	0	552	451	0	394	0	0	
5	0	0	0	0	558	458	0	401	0	0	
6	0	0	0	0	563	464	0	407	0	0	
7	0	0	0	0	566	469	0	413	0	0	
8	0	0	0	0	566	472	0	417	0	0	
9	0	0	0	0	563	472	0	419	0	0	
10	0	0	0	0	558	470	0	419	0	0	
11	0	0	0	0	548	463	0	416	0	0	
12	0	0	0	0	536	455	0	411	0	0	
13	0	0	0	0	521	442	0	402	0	0	
14	0	0	0	0	506	429	0	391	0	0	
15	0	0	0	0	491	415	0	380	0	0	
0	0	0	0	0	477	402	0	367	0	0	
1	0	0	0	0	465	390	0	355	0	0	
2	0	0	0	0	455	380	0	344	0	0	
3	0	0	0	0	449	372	0	333	0	0	
4	0	0	0	0	444	367	0	324	0	0	
5	0	0	0	0	442	363	0	316	0	0	
6	0	0	0	0	440	359	0	309	0	0	
7	0	0	0	0	436	356	0	302	0	0	
8	0	0	0	0	432	350	0	295	0	0	
9	0	0	0	0	425	343	0	288	0	0	
10	0	0	0	0	415	334	0	281	0	0	
11	0	0	0	0	403	323	0	272	0	0	
12	0	0	0	0	388	309	0	262	0	0	
13	0	0	0	0	372	293	0	250	0	0	
14	0	0	0	0	355	276	0	237	0	0	
15	0	0	0	0	337	259	0	223	0	0	
0	0	0	0	0	321	243	0	207	0	0	
1	0	0	0	0	306	228	0	192	0	0	
2	0	0	0	0	295	215	0	177	0	0	
3	0	0	0	0	287	204	0	164	0	0	
4	0	0	0	0	283	197	0	153	0	0	
5	0	0	0	0	282	193	0	146	0	0	
6	0	0	0	0	285	193	0	141	0	0	
7	0	0	0	0	292	196	0	141	0	0	
8	0	0	0	0	301	202	0	146	0	0	
9	0	0	0	0	312	211	0	155	0	0	
10	0	0	0	0	323	221	0	168	0	0	
11	0	0	0	0	336	235	0	185	0	0	
12	0	0	0	0	350	249	0	205	0	0	
13	0	0	0	0	366	267	0	227	0	0	
14	0	0	0	0	383	284	0	251	0	0	
15	0	0	0	0	400	303	0	275	0	0	
0	0	0	0	0	418	323	0	299	0	0	
1	0	0	0	0	436	342	0	321	0	0	
2	0	0	0	0	455	360	0	341	0	0	
3	0	0	0	0	473	378	0	359	0	0	
4	0	0	0	0	492	394	0	374	0	0	
5	0	0	0	0	512	409	0	386	0	0	
6	0	0	0	0	533	422	0	395	0	0	
7	0	0	0	0	556	432	0	400	0	0	
8	0	0	0	0	579	440	0	403	0	0	
9	0	0	0	0	603	445	0	403	0	0	
10	0	0	0	0	625	448	0	402	0	0	
11	0	0	0	0	643	449	0	399	0	0	
12	0	0	0	0	654	450	0	397	0	0	
13	0	0	0	0	657	450	0	395	0	0	
14	0	0	0	0	650	449	0	394	0	0	
15	0	0	0	0	633	449	0	394	0	0	
0	0	0	0	0	609	448	0	395	0	0	
1	0	0	0	0	578	446	0	396	0	0	
2	0	0	0	0	543	444	0	398	0	0	
3	0	0	0	0	508	441	0	400	0	0	
4	0	0	0	0	475	438	0	401	0	0	
5	0	0	0	0	446	435	0	402	0	0	
6	0	0	0	0	423	432	0	403	0	0	
7	0	0	0	0	408	429	0	403	0	0	
8	0	0	0	0	399	425	0	401	0	0	
9	0	0	0	0	398	423	0	399	0	0	
10	0	0	0	0	405	421	0	397	0	0	
11	0	0	0	0	417	419	0	396	0	0	
12	0	0	0	0	434	419	0	393	0	0	
13	0	0	0	0	453	420	0	393	0	0	
14	0	0	0	0	475	422	0	393	0	0	
15	0	0	0	0	496	425	0	393	0	0	
0	0	0	0	0	517	430	0	396	0	0	
1	0	0	0	0	535	435	0	399	0	0	
2	0	0	0	0	550	440	0	403	0	0	
3	0	0	0	0	561	446	0	407	0	0	
4	0	0	0	0	568	450	0	410	0	0	
5	0	0	0	0	571	455	0	415	0	0	
6	0	0	0	0	570	457	0	417	0	0	
7	0	0	0	0	566	460	0	419	0	0	
8	0	0	0	0	561	462	0	421	0	0	
9	0	0	0	0	555	463	0	422	0	0	
10	0	0	0	0	550	464	0	422	0	0	
11	0	0	0	0	545	465	0	420	0	0	
12	0	0	0	0	543	466	0	419	0	0	
13	0	0	0	0	545	468	0	418	0	0	
14	0	0	0	0	547	471	0	417	0	0	
15	0	0	0	0	551	473	0	416	0	0	
0	0	0	0	0	556	473	0	414	0	0	
1	0	0	0	0	558	471	0	413	0	0	
2	0	0	0	0	557	467	0	411	0	0	
3	0	0	0	0	555	462	0	409	0	0	
4	0	0	0	0	549	455	0	407	0	0	
5	0	0	0	0	541	446	0	405	0	0	
6	0	0	0	0	531	438	0	404	0	0	
7	0	0	0	0	520	430	0	402	0	0	
8	0	0	0	0	510	422	0	401	0	0	
9	0	0	0	0	501	416	0	401	0	0	
10	0	0	0	0	494	412	0	401	0	0	
11	0	0	0	0	488	410	0	402	0	0	
12	0	0	0	0	486	411	0	403	0	0	
13	0	0	0	0	487	413	0	405	0	0	
14	0	0	0	0	489	416	0	407	0	0	
15	0	0	0	0	495	421	0	409	0	0	
0	0	0	0	0	503	427	0	411	0	0	
1	0	0	0	0	511	432	0	412	0	0	
2	0	0	0	0	520	437	0	413	0	0	
3	0	0	0	0	529	441	0	415	0	0	
4	0	0	0	0	536	445	0	415	0	0	
5	0	0	0	0	543	447	0	416	0	0	
6	0	0	0	0	546	447	0	416	0	0	
7	0	0	0	0	546	446	0	416	0	0	
8	0	0	0	0	543	444	0	416	0	0	
9	0	0	0	0	537	440	0	415	0	0	
10	0	0	0	0	530	436	0	415	0	0	
11	0	0	0	0	521	432	0	414	0	0	
12	0	0	0	0	513	430	0	415	0	0	
13	0	0	0	0	505	427	0	415	0	0	
14	0	0	0	0	498	426	0	415	0	0	
15	0	0	0	0	493	425	0	415	0	0	
0	0	0	0	0	489	425	0	415	0	0	
1	0	0	0	0	487	427	0	414	0	0	
2	0	0	0	0	488	428	0	412	0	0	
3	0	0	0	0	490	430	0	411	0	0	
4	0	0	0	0	495	432	0	408	0	0	
5	0	0	0	0	499	433	0	405	0	0	
6	0	0	0	0	505	435	0	402	0	0	
7	0	0	0	0	511	436	0	399	0	0	
8	0	0	0	0	516	436	0	395	0	0	
9	0	0	0	0	521	437	0	392	0	0	
10	0	0	0	0	525	438	0	390	0	0	
11	0	0	0	0	528	438	0	388	0	0	
12	0	0	0	0	529	438	0	388	0	0	
13	0	0	0	0	529	439	0	389	0	0	
14	0	0	0	0	529	439	0	391	0	0	
15	0	0	0	0	526	439	0	393	0	0	
0	0	0	0	0	523	438	0	396	0	0	
1	0	0	0	0	518	437	0	399	0	0	
2	0	0	0	0	513	435	0	402	0	0	
3	0	0	0	0	507	433	0	404	0	0	
4	0	0	0	0	501	430	0	406	0	0	
5	0	0	0	0	496	427	0	406	0	0	
6	0	0	0	0	492	423	0	406	0	0	
7	0	0	0	0	488	419	0	405	0	0	
8	0	0	0	0	486	415	0	403	0	0	
9	0	0	0	0	484	412	0	400	0	0	
10	0	0	0	0	484	409	0	397	0	0	
11	0	0	0	0	486	407	0	394	0	0	
12	0	0	0	0	487	406	0	391	0	0	
13	0	0	0	0	491	406	0	388	0	0	
14	0	0	0	0	495	408	0	387	0	0	
15	0	0	0	0	500	410	0	386	0	0	
0	0	0	0	0	505	414	0	387	0	0	
1	0	0	0	0	511	419	0	390	0	0	
2	0	0	0	0	515	423	0	392	0	0	
3	0	0	0	0	519	428	0	396	0	0	
4	0	0	0	0	521	432	0	399	0	0	
5	0	0	0	0	522	435	0	403	0	0	
6	0	0	0	0	521	438	0	406	0	0	
7	0	0	0	0	520	440	0	409	0	0	
8	0	0	0	0	519	442	0	410	0	0	
9	0	0	0	0	519	444	0	411	0	0	
10	0	0	0	0	519	446	0	410	0	0	
11	0	0	0	0	520	447	0	408	0	0	
12	0	0	0	0	523	450	0	406	0	0	
13	0	0	0	0	527	452	0	402	0	0	
14	0	0	0	0	532	456	0	399	0	0	
15	0	0	0	0	540	460	0	396	0	0	
0	0	0	0	0	547	463	0	393	0	0	
1	0	0	0	0	553	465	0	391	0	0	
2	0	0	0	0	558	466	0	389	0	0	
3	0	0	0	0	560	465	0	388	0	0	
4	0	0	0	0	558	463	0	389	0	0	
5	0	0	0	0	554	460	0	390	0	0	
6	0	0	0	0	548	456	0	393	0	0	
7	0	0	0	0	542	453	0	396	0	0	
8	0	0	0	0	534	450	0	400	0	0	
9	0	0	0	0	526	447	0	405	0	0	
10	0	0	0	0	519	444	0	409	0	0	
11	0	0	0	0	511	440	0	412	0	0	
12	0	0	0	0	503	435	0	412	0	0	
13	0	0	0	0	495	430	0	412	0	0	
14	0	0	0	0	488	424	0	409	0	0	
15	0	0	0	0	482	418	0	405	0	0	
0	0	0	0	0	477	412	0	399	0	0	
1	0	0	0	0	473	407	0	392	0	0	
2	0	0	0	0	472	401	0	385	0	0	
3	0	0	0	0	472	398	0	378	0	0	
4	0	0	0	0	473	395	0	371	0	0	
5	0	0	0	0	476	392	0	366	0	0	
6	0	0	0	0	478	391	0	362	0	0	
7	0	0	0	0	480	391	0	360	0	0	
8	0	0	0	0	483	393	0	360	0	0	
9	0	0	0	0	487	396	0	363	0	0	
10	0	0	0	0	491	400	0	368	0	0	
11	0	0	0	0	495	406	0	375	0	0	
12	0	0	0	0	500	412	0	382	0	0	
13	0	0	0	0	504	418	0	390	0	0	
14	0	0	0	0	508	424	0	396	0	0	
15	0	0	0	0	510	428	0	402	0	0	
0	0	0	0	0	511	432	0	406	0	0	
1	0	0	0	0	511	434	0	408	0	0	
2	0	0	0	0	510	435	0	407	0	0	
3	0	0	0	0	507	434	0	405	0	0	
4	0	0	0	0	503	432	0	400	0	0	
5	0	0	0	0	499	428	0	394	0	0	
6	0	0	0	0	494	424	0	387	0	0	
7	0	0	0	0	488	419	0	379	0	0	
8	0	0	0	0	483	414	0	370	0	0	
9	0	0	0	0	478	408	0	362	0	0	
10	0	0	0	0	474	403	0	355	0	0	
11	0	0	0	0	471	400	0	351	0	0	
12	0	0	0	0	471	399	0	349	0	0	
13	0	0	0	0	473	401	0	350	0	0	
14	0	0	0	0	479	404	0	354	0	0	
15	0	0	0	0	486	411	0	360	0	0	
0	0	0	0	0	496	419	0	368	0	0	
1	0	0	0	0	505	427	0	377	0	0	
2	0	0	0	0	513	435	0	387	0	0	
3	0	0	0	0	520	440	0	395	0	0	
4	0	0	0	0	524	443	0	402	0	0	
5	0	0	0	0	524	443	0	406	0	0	
6	0	0	0	0	521	440	0	408	0	0	
7	0	0	0	0	515	435	0	407	0	0	
8	0	0	0	0	508	427	0	405	0	0	
9	0	0	0	0	497	417	0	399	0	0	
10	0	0	0	0	486	407	0	391	0	0	
11	0	0	0	0	475	396	0	383	0	0	
12	0	0	0	0	464	386	0	374	0	0	
13	0	0	0	0	455	377	0	366	0	0	
14	0	0	0	0	447	371	0	359	0	0	
15	0	0	0	0	444	368	0	354	0	0	
0	0	0	0	0	443	368	0	352	0	0	
1	0	0	0	0	446	370	0	351	0	0	
2	0	0	0	0	451	375	0	352	0	0	
3	0	0	0	0	459	382	0	355	0	0	
4	0	0	0	0	468	390	0	359	0	0	
5	0	0	0	0	478	398	0	363	0	0	
6	0	0	0	0	487	405	0	367	0	0	
7	0	0	0	0	495	411	0	370	0	0	
8	0	0	0	0	502	416	0	371	0	0	
9	0	0	0	0	507	420	0	372	0	0	
10	0	0	0	0	510	422	0	372	0	0	
11	0	0	0	0	511	422	0	371	0	0	
12	0	0	0	0	511	421	0	370	0	0	
13	0	0	0	0	509	419	0	368	0	0	
14	0	0	0	0	507	417	0	366	0	0	
15	0	0	0	0	505	415	0	365	0	0	
0	0	0	0	0	503	414	0	364	0	0	
1	0	0	0	0	502	414	0	365	0	0	
2	0	0	0	0	502	414	0	366	0	0	
3	0	0	0	0	503	416	0	368	0	0	
4	0	0	0	0	505	419	0	371	0	0	
5	0	0	0	0	508	422	0	375	0	0	
6	0	0	0	0	510	425	0	379	0	0	
7	0	0	0	0	513	429	0	383	0	0	
8	0	0	0	0	515	433	0	386	0	0	
9	0	0	0	0	516	436	0	389	0	0	
10	0	0	0	0	517	438	0	391	0	0	
11	0	0	0	0	518	439	0	391	0	0	
12	0	0	0	0	517	439	0	391	0	0	
13	0	0	0	0	517	439	0	390	0	0	
14	0	0	0	0	515	436	0	387	0	0	
15	0	0	0	0	512	433	0	384	0	0	
0	0	0	0	0	508	427	0	379	0	0	
1	0	0	0	0	501	419	0	372	0	0	
2	0	0	0	0	494	411	0	365	0	0	
3	0	0	0	0	486	402	0	358	0	0	
4	0	0	0	0	477	393	0	351	0	0	
5	0	0	0	0	469	385	0	345	0	0	
6	0	0	0	0	463	379	0	340	0	0	
7	0	0	0	0	459	376	0	339	0	0	
8	0	0	0	0	458	376	0	339	0	0	
9	0	0	0	0	461	379	0	342	0	0	
10	0	0	0	0	466	385	0	348	0	0	
11	0	0	0	0	473	392	0	355	0	0	
12	0	0	0	0	483	401	0	364	0	0	
13	0	0	0	0	492	411	0	373	0	0	
14	0	0	0	0	500	419	0	381	0	0	
15	0	0	0	0	508	426	0	388	0	0	
0	0	0	0	0	513	431	0	393	0	0	
1	0	0	0	0	516	434	0	396	0	0	
2	0	0	0	0	519	436	0	397	0	0	
3	0	0	0	0	519	436	0	396	0	0	
4	0	0	0	0	519	435	0	393	0	0	
5	0	0	0	0	520	434	0	389	0	0	
6	0	0	0	0	520	433	0	384	0	0	
7	0	0	0	0	521	432	0	379	0	0	
8	0	0	0	0	521	431	0	374	0	0	
9	0	0	0	0	522	431	0	370	0	0	
10	0	0	0	0	522	431	0	368	0	0	
11	0	0	0	0	524	433	0	366	0	0	
12	0	0	0	0	527	435	0	367	0	0	
13	0	0	0	0	530	439	0	369	0	0	
14	0	0	0	0	533	443	0	373	0	0	
15	0	0	0	0	535	446	0	378	0	0	
0	0	0	0	0	535	448	0	383	0	0	
1	0	0	0	0	534	449	0	389	0	0	
2	0	0	0	0	531	449	0	395	0	0	
3	0	0	0	0	527	448	0	399	0	0	
4	0	0	0	0	522	445	0	403	0	0	
5	0	0	0	0	515	441	0	404	0	0	
6	0	0	0	0	508	435	0	405	0	0	
7	0	0	0	0	500	428	0	404	0	0	
8	0	0	0	0	493	421	0	401	0	0	
9	0	0	0	0	486	414	0	397	0	0	
10	0	0	0	0	481	408	0	393	0	0	
11	0	0	0	0	478	403	0	388	0	0	
12	0	0	0	0	476	399	0	384	0	0	
13	0	0	0	0	477	398	0	380	0	0	
14	0	0	0	0	480	398	0	377	0	0	
15	0	0	0	0	484	399	0	375	0	0	
0	0	0	0	0	488	402	0	374	0	0	
1	0	0	0	0	494	406	0	374	0	0	
2	0	0	0	0	499	410	0	376	0	0	
3	0	0	0	0	504	415	0	379	0	0	
4	0	0	0	0	509	421	0	382	0	0	
5	0	0	0	0	514	428	0	387	0	0	
6	0	0	0	0	519	434	0	393	0	0	
7	0	0	0	0	524	440	0	399	0	0	
8	0	0	0	0	527	446	0	403	0	0	
9	0	0	0	0	529	451	0	408	0	0	
10	0	0	0	0	529	453	0	410	0	0	
11	0	0	0	0	528	452	0	411	0	0	
12	0	0	0	0	524	449	0	409	0	0	
13	0	0	0	0	518	443	0	404	0	0	
14	0	0	0	0	510	435	0	398	0	0	
15	0	0	0	0	500	426	0	390	0	0	
0	0	0	0	0	491	416	0	381	0	0	
1	0	0	0	0	483	407	0	372	0	0	
2	0	0	0	0	475	399	0	365	0	0	
3	0	0	0	0	469	393	0	358	0	0	
4	0	0	0	0	466	389	0	355	0	0	
5	0	0	0	0	465	389	0	353	0	0	
6	0	0	0	0	468	391	0	355	0	0	
7	0	0	0	0	473	397	0	358	0	0	
8	0	0	0	0	480	403	0	364	0	0	
9	0	0	0	0	488	412	0	371	0	0	
10	0	0	0	0	498	421	0	378	0	0	
11	0	0	0	0	506	429	0	385	0	0	
12	0	0	0	0	514	437	0	391	0	0	
13	0	0	0	0	521	443	0	397	0	0	
14	0	0	0	0	527	449	0	402	0	0	
15	0	0	0	0	531	452	0	404	0	0	
0	0	0	0	0	534	455	0	406	0	0	
1	0	0	0	0	536	456	0	406	0	0	
2	0	0	0	0	536	456	0	404	0	0	
3	0	0	0	0	536	456	0	401	0	0	
4	0	0	0	0	534	455	0	398	0	0	
5	0	0	0	0	531	453	0	393	0	0	
6	0	0	0	0	527	450	0	389	0	0	
7	0	0	0	0	523	448	0	384	0	0	
8	0	0	0	0	519	444	0	381	0	0	
9	0	0	0	0	514	441	0	378	0	0	
10	0	0	0	0	510	439	0	376	0	0	
11	0	0	0	0	505	436	0	376	0	0	
12	0	0	0	0	502	435	0	376	0	0	
13	0	0	0	0	499	434	0	378	0	0	
14	0	0	0	0	497	435	0	380	0	0	
15	0	0	0	0	496	435	0	384	0	0	
0	0	0	0	0	496	436	0	387	0	0	
1	0	0	0	0	496	437	0	390	0	0	
2	0	0	0	0	498	439	0	393	0	0	
3	0	0	0	0	499	440	0	395	0	0	
4	0	0	0	0	501	441	0	395	0	0	
5	0	0	0	0	502	440	0	395	0	0	
6	0	0	0	0	502	440	0	392	0	0	
7	0	0	0	0	502	438	0	390	0	0	
8	0	0	0	0	500	436	0	386	0	0	
9	0	0	0	0	499	433	0	381	0	0	
10	0	0	0	0	496	432	0	377	0	0	
11	0	0	0	0	494	430	0	374	0	0	
12	0	0	0	0	492	429	0	372	0	0	
13	0	0	0	0	489	428	0	371	0	0	
14	0	0	0	0	486	428	0	371	0	0	
15	0	0	0	0	482	429	0	372	0	0	
0	0	0	0	0	480	430	0	374	0	0	
1	0	0	0	0	478	432	0	377	0	0	
2	0	0	0	0	479	435	0	380	0	0	
3	0	0	0	0	480	440	0	384	0	0	
4	0	0	0	0	483	444	0	388	0	0	
5	0	0	0	0	488	450	0	392	0	0	
6	0	0	0	0	495	455	0	395	0	0	
7	0	0	0	0	502	460	0	397	0	0	
8	0	0	0	0	509	465	0	398	0	0	
9	0	0	0	0	516	469	0	398	0	0	
10	0	0	0	0	524	473	0	396	0	0	
11	0	0	0	0	530	476	0	394	0	0	
12	0	0	0	0	536	478	0	391	0	0	
13	0	0	0	0	539	478	0	387	0	0	
14	0	0	0	0	541	479	0	382	0	0	
15	0	0	0	0	543	479	0	378	0	0	
0	0	0	0	0	543	480	0	375	0	0	
1	0	0	0	0	542	480	0	372	0	0	
2	0	0	0	0	540	480	0	371	0	0	
3	0	0	0	0	537	479	0	369	0	0	
4	0	0	0	0	534	478	0	369	0	0	
5	0	0	0	0	530	477	0	370	0	0	
6	0	0	0	0	526	475	0	371	0	0	
7	0	0	0	0	522	472	0	372	0	0	
8	0	0	0	0	517	467	0	373	0	0	
9	0	0	0	0	512	461	0	373	0	0	
10	0	0	0	0	508	455	0	372	0	0	
11	0	0	0	0	503	447	0	371	0	0	
12	0	0	0	0	498	439	0	368	0	0	
13	0	0	0	0	494	431	0	364	0	0	
14	0	0	0	0	490	423	0	359	0	0	
15	0	0	0	0	487	416	0	354	0	0	
0	0	0	0	0	485	411	0	348	0	0	
1	0	0	0	0	484	406	0	342	0	0	
2	0	0	0	0	483	403	0	336	0	0	
3	0	0	0	0	484	400	0	330	0	0	
4	0	0	0	0	484	398	0	325	0	0	
5	0	0	0	0	484	398	0	320	0	0	
6	0	0	0	0	484	397	0	317	0	0	
7	0	0	0	0	484	397	0	314	0	0	
8	0	0	0	0	484	397	0	312	0	0	
9	0	0	0	0	484	398	0	312	0	0	
10	0	0	0	0	484	398	0	312	0	0	
11	0	0	0	0	484	399	0	313	0	0	
12	0	0	0	0	484	399	0	313	0	0	
13	0	0	0	0	483	398	0	313	0	0	
14	0	0	0	0	482	397	0	313	0	0	
15	0	0	0	0	481	395	0	312	0	0	
0	0	0	0	0	479	393	0	311	0	0	
1	0	0	0	0	478	391	0	309	0	0	
2	0	0	0	0	477	389	0	307	0	0	
3	0	0	0	0	477	387	0	305	0	0	
4	0	0	0	0	478	387	0	304	0	0	
5	0	0	0	0	480	388	0	305	0	0	
6	0	0	0	0	483	391	0	307	0	0	
7	0	0	0	0	487	394	0	310	0	0	
8	0	0	0	0	493	399	0	315	0	0	
9	0	0	0	0	498	404	0	321	0	0	
10	0	0	0	0	503	409	0	328	0	0	
11	0	0	0	0	507	413	0	335	0	0	
12	0	0	0	0	509	416	0	342	0	0	
13	0	0	0	0	508	417	0	347	0	0	
14	0	0	0	0	506	417	0	352	0	0	
15	0	0	0	0	501	414	0	354	0	0	
0	0	0	0	0	494	409	0	355	0	0	
1	0	0	0	0	487	403	0	353	0	0	
2	0	0	0	0	478	396	0	351	0	0	
3	0	0	0	0	471	389	0	347	0	0	
4	0	0	0	0	464	382	0	343	0	0	
5	0	0	0	0	460	376	0	338	0	0	
6	0	0	0	0	457	372	0	334	0	0	
7	0	0	0	0	457	370	0	331	0	0	
8	0	0	0	0	460	369	0	329	0	0	
9	0	0	0	0	464	371	0	329	0	0	
10	0	0	0	0	471	375	0	331	0	0	
11	0	0	0	0	479	380	0	334	0	0	
12	0	0	0	0	487	387	0	339	0	0	
13	0	0	0	0	496	394	0	345	0	0	
14	0	0	0	0	504	402	0	351	0	0	
15	0	0	0	0	511	410	0	358	0	0	
0	0	0	0	0	517	417	0	365	0	0	
1	0	0	0	0	521	423	0	371	0	0	
2	0	0	0	0	524	428	0	376	0	0	
3	0	0	0	0	525	432	0	380	0	0	
4	0	0	0	0	524	434	0	383	0	0	
5	0	0	0	0	524	436	0	383	0	0	
6	0	0	0	0	522	436	0	381	0	0	
7	0	0	0	0	520	436	0	379	0	0	
8	0	0	0	0	520	436	0	374	0	0	
9	0	0	0	0	519	436	0	369	0	0	
10	0	0	0	0	519	435	0	364	0	0	
11	0	0	0	0	519	434	0	358	0	0	
12	0	0	0	0	518	431	0	351	0	0	
13	0	0	0	0	516	427	0	345	0	0	
14	0	0	0	0	511	420	0	338	0	0	
15	0	0	0	0	504	413	0	332	0	0	
0	0	0	0	0	495	404	0	326	0	0	
1	0	0	0	0	484	394	0	321	0	0	
2	0	0	0	0	472	384	0	319	0	0	
3	0	0	0	0	460	374	0	318	0	0	
4	0	0	0	0	449	365	0	317	0	0	
5	0	0	0	0	439	358	0	319	0	0	
6	0	0	0	0	430	351	0	321	0	0	
7	0	0	0	0	424	347	0	325	0	0	
8	0	0	0	0	421	344	0	328	0	0	
9	0	0	0	0	421	344	0	332	0	0	
10	0	0	0	0	425	345	0	335	0	0	
11	0	0	0	0	431	348	0	338	0	0	
12	0	0	0	0	438	352	0	340	0	0	
13	0	0	0	0	447	357	0	341	0	0	
14	0	0	0	0	457	362	0	340	0	0	
15	0	0	0	0	465	366	0	340	0	0	
0	0	0	0	0	473	370	0	338	0	0	
1	0	0	0	0	478	373	0	336	0	0	
2	0	0	0	0	482	375	0	335	0	0	
3	0	0	0	0	484	378	0	334	0	0	
4	0	0	0	0	486	381	0	335	0	0	
5	0	0	0	0	487	385	0	338	0	0	
6	0	0	0	0	489	390	0	344	0	0	
7	0	0	0	0	491	396	0	351	0	0	
8	0	0	0	0	493	401	0	359	0	0	
9	0	0	0	0	494	406	0	368	0	0	
10	0	0	0	0	494	410	0	377	0	0	
11	0	0	0	0	494	413	0	385	0	0	
12	0	0	0	0	492	413	0	391	0	0	
13	0	0	0	0	489	412	0	396	0	0	
14	0	0	0	0	484	409	0	398	0	0	
15	0	0	0	0	479	404	0	398	0	0	
0	0	0	0	0	474	398	0	396	0	0	
1	0	0	0	0	469	393	0	391	0	0	
2	0	0	0	0	466	388	0	387	0	0	
3	0	0	0	0	465	385	0	383	0	0	
4	0	0	0	0	465	384	0	380	0	0	
5	0	0	0	0	467	383	0	377	0	0	
6	0	0	0	0	469	384	0	376	0	0	
7	0	0	0	0	472	387	0	376	0	0	
8	0	0	0	0	476	390	0	377	0	0	
9	0	0	0	0	479	393	0	380	0	0	
10	0	0	0	0	481	397	0	384	0	0	
11	0	0	0	0	482	399	0	387	0	0	
12	0	0	0	0	483	402	0	391	0	0	
13	0	0	0	0	482	404	0	394	0	0	
14	0	0	0	0	481	406	0	396	0	0	
15	0	0	0	0	479	406	0	398	0	0	
0	0	0	0	0	477	406	0	398	0	0	
1	0	0	0	0	476	405	0	398	0	0	
2	0	0	0	0	475	405	0	397	0	0	
3	0	0	0	0	476	406	0	396	0	0	
4	0	0	0	0	479	407	0	396	0	0	
5	0	0	0	0	483	409	0	396	0	0	
6	0	0	0	0	489	413	0	396	0	0	
7	0	0	0	0	497	418	0	399	0	0	
8	0	0	0	0	505	423	0	401	0	0	
9	0	0	0	0	513	428	0	403	0	0	
10	0	0	0	0	519	432	0	407	0	0	
11	0	0	0	0	523	435	0	410	0	0	
12	0	0	0	0	526	437	0	413	0	0	
13	0	0	0	0	526	438	0	415	0	0	
14	0	0	0	0	523	437	0	418	0	0	
15	0	0	0	0	519	435	0	419	0	0	
0	0	0	0	0	512	432	0	419	0	0	
1	0	0	0	0	504	429	0	419	0	0	
2	0	0	0	0	496	425	0	416	0	0	
3	0	0	0	0	489	422	0	414	0	0	
4	0	0	0	0	483	420	0	411	0	0	
5	0	0	0	0	479	420	0	408	0	0	
6	0	0	0	0	478	422	0	405	0	0	
7	0	0	0	0	480	424	0	402	0	0	
8	0	0	0	0	484	429	0	401	0	0	
9	0	0	0	0	491	435	0	399	0	0	
10	0	0	0	0	497	440	0	398	0	0	
11	0	0	0	0	503	442	0	397	0	0	
12	0	0	0	0	505	442	0	396	0	0	
13	0	0	0	0	504	439	0	394	0	0	
14	0	0	0	0	499	433	0	392	0	0	
15	0	0	0	0	492	426	0	391	0	0	
0	0	0	0	0	483	418	0	390	0	0	
1	0	0	0	0	473	409	0	390	0	0	
2	0	0	0	0	463	401	0	391	0	0	
3	0	0	0	0	453	395	0	392	0	0	
4	0	0	0	0	444	390	0	393	0	0	
5	0	0	0	0	439	387	0	396	0	0	
6	0	0	0	0	435	386	0	398	0	0	
7	0	0	0	0	433	387	0	399	0	0	
8	0	0	0	0	434	388	0	399	0	0	
9	0	0	0	0	436	391	0	398	0	0	
10	0	0	0	0	442	396	0	398	0	0	
11	0	0	0	0	449	401	0	396	0	0	
12	0	0	0	0	458	408	0	396	0	0	
13	0	0	0	0	469	415	0	395	0	0	
14	0	0	0	0	481	423	0	395	0	0	
15	0	0	0	0	492	431	0	395	0	0	
0	0	0	0	0	502	437	0	396	0	0	
1	0	0	0	0	509	441	0	398	0	0	
2	0	0	0	0	512	444	0	399	0	0	
3	0	0	0	0	511	443	0	401	0	0	
4	0	0	0	0	506	440	0	404	0	0	
5	0	0	0	0	498	436	0	407	0	0	
6	0	0	0	0	487	431	0	409	0	0	
7	0	0	0	0	477	426	0	412	0	0	
8	0	0	0	0	466	422	0	415	0	0	
9	0	0	0	0	456	417	0	418	0	0	
10	0	0	0	0	447	414	0	420	0	0	
11	0	0	0	0	440	412	0	420	0	0	
12	0	0	0	0	436	410	0	420	0	0	
13	0	0	0	0	433	409	0	418	0	0	
14	0	0	0	0	433	409	0	416	0	0	
15	0	0	0	0	435	409	0	412	0	0	
0	0	0	0	0	439	411	0	408	0	0	
1	0	0	0	0	445	412	0	403	0	0	
2	0	0	0	0	452	415	0	399	0	0	
3	0	0	0	0	460	419	0	396	0	0	
4	0	0	0	0	469	423	0	394	0	0	
5	0	0	0	0	478	428	0	394	0	0	
6	0	0	0	0	486	434	0	394	0	0	
7	0	0	0	0	494	440	0	395	0	0	
8	0	0	0	0	500	446	0	398	0	0	
9	0	0	0	0	505	452	0	402	0	0	
10	0	0	0	0	508	457	0	407	0	0	
11	0	0	0	0	510	462	0	411	0	0	
12	0	0	0	0	512	467	0	415	0	0	
13	0	0	0	0	512	472	0	419	0	0	
14	0	0	0	0	513	476	0	422	0	0	
15	0	0	0	0	513	479	0	425	0	0	
0	0	0	0	0	512	480	0	426	0	0	
1	0	0	0	0	512	481	0	426	0	0	
2	0	0	0	0	511	480	0	425	0	0	
3	0	0	0	0	510	479	0	423	0	0	
4	0	0	0	0	508	476	0	420	0	0	
5	0	0	0	0	507	473	0	417	0	0	
6	0	0	0	0	507	471	0	414	0	0	
7	0	0	0	0	507	468	0	411	0	0	
8	0	0	0	0	507	466	0	408	0	0	
9	0	0	0	0	507	464	0	406	0	0	
10	0	0	0	0	507	462	0	403	0	0	
11	0	0	0	0	506	460	0	401	0	0	
12	0	0	0	0	505	457	0	399	0	0	
13	0	0	0	0	502	453	0	396	0	0	
14	0	0	0	0	497	449	0	394	0	0	
15	0	0	0	0	492	445	0	391	0	0	
0	0	0	0	0	486	440	0	387	0	0	
1	0	0	0	0	480	435	0	383	0	0	
2	0	0	0	0	473	429	0	379	0	0	
3	0	0	0	0	467	424	0	376	0	0	
4	0	0	0	0	463	420	0	372	0	0	
5	0	0	0	0	460	417	0	370	0	0	
6	0	0	0	0	459	416	0	368	0	0	
7	0	0	0	0	460	415	0	366	0	0	
8	0	0	0	0	461	414	0	365	0	0	
9	0	0	0	0	463	415	0	364	0	0	
10	0	0	0	0	468	415	0	364	0	0	
11	0	0	0	0	473	418	0	364	0	0	
12	0	0	0	0	480	420	0	365	0	0	
13	0	0	0	0	486	424	0	368	0	0	
14	0	0	0	0	492	428	0	371	0	0	
15	0	0	0	0	497	431	0	374	0	0	
0	0	0	0	0	502	435	0	378	0	0	
1	0	0	0	0	504	436	0	381	0	0	
2	0	0	0	0	504	437	0	385	0	0	
3	0	0	0	0	502	435	0	387	0	0	
4	0	0	0	0	497	432	0	387	0	0	
5	0	0	0	0	489	427	0	387	0	0	
6	0	0	0	0	479	420	0	384	0	0	
7	0	0	0	0	467	412	0	381	0	0	
8	0	0	0	0	455	403	0	376	0	0	
9	0	0	0	0	444	394	0	371	0	0	
10	0	0	0	0	433	386	0	365	0	0	
11	0	0	0	0	425	379	0	359	0	0	
12	0	0	0	0	418	372	0	353	0	0	
13	0	0	0	0	413	366	0	348	0	0	
14	0	0	0	0	411	362	0	343	0	0	
15	0	0	0	0	411	358	0	338	0	0	
0	0	0	0	0	413	357	0	335	0	0	
1	0	0	0	0	415	355	0	333	0	0	
2	0	0	0	0	419	354	0	331	0	0	
3	0	0	0	0	423	354	0	329	0	0	
4	0	0	0	0	426	354	0	328	0	0	
5	0	0	0	0	429	354	0	327	0	0	
6	0	0	0	0	430	354	0	327	0	0	
7	0	0	0	0	431	355	0	326	0	0	
8	0	0	0	0	432	355	0	324	0	0	
9	0	0	0	0	431	355	0	323	0	0	
10	0	0	0	0	429	355	0	320	0	0	
11	0	0	0	0	425	352	0	316	0	0	
12	0	0	0	0	419	348	0	309	0	0	
13	0	0	0	0	410	341	0	301	0	0	
14	0	0	0	0	398	331	0	291	0	0	
15	0	0	0	0	383	317	0	279	0	0	
0	0	0	0	0	365	300	0	264	0	0	
1	0	0	0	0	345	281	0	248	0	0	
2	0	0	0	0	324	261	0	230	0	0	
3	0	0	0	0	304	241	0	212	0	0	
4	0	0	0	0	283	220	0	195	0	0	
5	0	0	0	0	264	200	0	177	0	0	
6	0	0	0	0	245	182	0	159	0	0	
7	0	0	0	0	229	165	0	142	0	0	
8	0	0	0	0	216	151	0	127	0	0	
9	0	0	0	0	206	139	0	115	0	0	
10	0	0	0	0	200	131	0	106	0	0	
11	0	0	0	0	200	129	0	100	0	0	
12	0	0	0	0	204	130	0	99	0	0	
13	0	0	0	0	215	137	0	102	0	0	
14	0	0	0	0	230	148	0	110	0	0	
15	0	0	0	0	250	163	0	123	0	0	
0	0	0	0	0	273	182	0	139	0	0	
1	0	0	0	0	298	203	0	159	0	0	
2	0	0	0	0	326	225	0	181	0	0	
3	0	0	0	0	354	248	0	206	0	0	
4	0	0	0	0	382	271	0	231	0	0	
5	0	0	0	0	408	293	0	255	0	0	
6	0	0	0	0	434	315	0	281	0	0	
7	0	0	0	0	457	336	0	305	0	0	
8	0	0	0	0	478	355	0	329	0	0	
9	0	0	0	0	496	372	0	349	0	0	
10	0	0	0	0	511	386	0	367	0	0	
11	0	0	0	0	522	398	0	382	0	0	
12	0	0	0	0	530	408	0	393	0	0	
13	0	0	0	0	535	415	0	402	0	0	
14	0	0	0	0	537	420	0	407	0	0	
15	0	0	0	0	536	422	0	409	0	0	
0	0	0	0	0	531	420	0	409	0	0	
1	0	0	0	0	524	416	0	406	0	0	
2	0	0	0	0	514	409	0	400	0	0	
3	0	0	0	0	502	399	0	393	0	0	
4	0	0	0	0	489	388	0	384	0	0	
5	0	0	0	0	476	376	0	375	0	0	
6	0	0	0	0	463	364	0	365	0	0	
7	0	0	0	0	450	351	0	356	0	0	
8	0	0	0	0	440	339	0	348	0	0	
9	0	0	0	0	430	328	0	340	0	0	
10	0	0	0	0	424	319	0	335	0	0	
11	0	0	0	0	421	313	0	332	0	0	
12	0	0	0	0	421	310	0	332	0	0	
13	0	0	0	0	424	309	0	333	0	0	
14	0	0	0	0	431	311	0	337	0	0	
15	0	0	0	0	439	317	0	342	0	0	
0	0	0	0	0	449	324	0	349	0	0	
1	0	0	0	0	460	333	0	356	0	0	
2	0	0	0	0	471	343	0	364	0	0	
3	0	0	0	0	481	352	0	372	0	0	
4	0	0	0	0	491	361	0	380	0	0	
5	0	0	0	0	498	370	0	387	0	0	
6	0	0	0	0	503	376	0	392	0	0	
7	0	0	0	0	504	379	0	396	0	0	
8	0	0	0	0	503	378	0	398	0	0	
9	0	0	0	0	497	374	0	398	0	0	
10	0	0	0	0	488	367	0	396	0	0	
11	0	0	0	0	477	358	0	393	0	0	
12	0	0	0	0	466	347	0	389	0	0	
13	0	0	0	0	454	335	0	384	0	0	
14	0	0	0	0	443	323	0	380	0	0	
15	0	0	0	0	435	313	0	376	0	0	
0	0	0	0	0	428	304	0	373	0	0	
1	0	0	0	0	424	298	0	371	0	0	
2	0	0	0	0	424	294	0	371	0	0	
3	0	0	0	0	425	293	0	371	0	0	
4	0	0	0	0	429	294	0	373	0	0	
5	0	0	0	0	434	296	0	376	0	0	
6	0	0	0	0	440	300	0	379	0	0	
7	0	0	0	0	446	305	0	383	0	0	
8	0	0	0	0	451	311	0	386	0	0	
9	0	0	0	0	456	317	0	390	0	0	
10	0	0	0	0	459	321	0	393	0	0	
11	0	0	0	0	461	325	0	396	0	0	
12	0	0	0	0	462	327	0	398	0	0	
13	0	0	0	0	461	329	0	399	0	0	
14	0	0	0	0	460	330	0	399	0	0	
15	0	0	0	0	459	330	0	399	0	0	
0	0	0	0	0	458	330	0	398	0	0	
1	0	0	0	0	459	331	0	397	0	0	
2	0	0	0	0	461	332	0	396	0	0	
3	0	0	0	0	465	336	0	396	0	0	
4	0	0	0	0	470	340	0	397	0	0	
5	0	0	0	0	477	345	0	398	0	0	
6	0	0	0	0	485	352	0	400	0	0	
7	0	0	0	0	493	360	0	403	0	0	
8	0	0	0	0	500	368	0	407	0	0	
9	0	0	0	0	507	376	0	412	0	0	
10	0	0	0	0	512	383	0	418	0	0	
11	0	0	0	0	516	389	0	423	0	0	
12	0	0	0	0	519	394	0	429	0	0	
13	0	0	0	0	520	399	0	434	0	0	
14	0	0	0	0	521	402	0	438	0	0	
15	0	0	0	0	520	404	0	441	0	0	
0	0	0	0	0	517	405	0	442	0	0	
1	0	0	0	0	513	402	0	440	0	0	
2	0	0	0	0	506	396	0	436	0	0	
3	0	0	0	0	495	387	0	429	0	0	
4	0	0	0	0	481	374	0	419	0	0	
5	0	0	0	0	463	359	0	407	0	0	
6	0	0	0	0	446	342	0	395	0	0	
7	0	0	0	0	427	325	0	383	0	0	
8	0	0	0	0	409	310	0	372	0	0	
9	0	0	0	0	394	296	0	364	0	0	
10	0	0	0	0	382	287	0	358	0	0	
11	0	0	0	0	375	282	0	355	0	0	
12	0	0	0	0	373	282	0	357	0	0	
13	0	0	0	0	375	286	0	361	0	0	
14	0	0	0	0	382	294	0	367	0	0	
15	0	0	0	0	392	305	0	376	0	0	
0	0	0	0	0	405	318	0	386	0	0	
1	0	0	0	0	419	333	0	396	0	0	
2	0	0	0	0	433	346	0	406	0	0	
3	0	0	0	0	447	359	0	415	0	0	
4	0	0	0	0	457	370	0	422	0	0	
5	0	0	0	0	466	377	0	427	0	0	
6	0	0	0	0	472	383	0	430	0	0	
7	0	0	0	0	473	385	0	431	0	0	
8	0	0	0	0	473	384	0	429	0	0	
9	0	0	0	0	471	384	0	427	0	0	
10	0	0	0	0	469	382	0	424	0	0	
11	0	0	0	0	466	380	0	421	0	0	
12	0	0	0	0	464	380	0	419	0	0	
13	0	0	0	0	464	381	0	417	0	0	
14	0	0	0	0	465	384	0	417	0	0	
15	0	0	0	0	470	390	0	420	0	0	
0	0	0	0	0	479	399	0	424	0	0	
1	0	0	0	0	489	410	0	430	0	0	
2	0	0	0	0	501	422	0	437	0	0	
3	0	0	0	0	513	434	0	444	0	0	
4	0	0	0	0	524	446	0	449	0	0	
5	0	0	0	0	532	455	0	455	0	0	
6	0	0	0	0	536	460	0	458	0	0	
7	0	0	0	0	535	462	0	459	0	0	
8	0	0	0	0	528	460	0	456	0	0	
9	0	0	0	0	518	452	0	451	0	0	
10	0	0	0	0	503	441	0	444	0	0	
11	0	0	0	0	484	428	0	435	0	0	
12	0	0	0	0	465	414	0	424	0	0	
13	0	0	0	0	448	400	0	414	0	0	
14	0	0	0	0	432	388	0	404	0	0	
15	0	0	0	0	419	379	0	396	0	0	
0	0	0	0	0	409	371	0	388	0	0	
1	0	0	0	0	404	367	0	383	0	0	
2	0	0	0	0	402	366	0	380	0	0	
3	0	0	0	0	403	367	0	377	0	0	
4	0	0	0	0	406	370	0	378	0	0	
5	0	0	0	0	411	374	0	379	0	0	
6	0	0	0	0	417	379	0	382	0	0	
7	0	0	0	0	424	385	0	386	0	0	
8	0	0	0	0	431	391	0	390	0	0	
9	0	0	0	0	438	398	0	395	0	0	
10	0	0	0	0	445	404	0	400	0	0	
11	0	0	0	0	451	410	0	406	0	0	
12	0	0	0	0	458	417	0	412	0	0	
13	0	0	0	0	464	423	0	417	0	0	
14	0	0	0	0	470	429	0	421	0	0	
15	0	0	0	0	475	434	0	426	0	0	
0	0	0	0	0	480	439	0	429	0	0	
1	0	0	0	0	484	444	0	433	0	0	
2	0	0	0	0	489	448	0	435	0	0	
3	0	0	0	0	493	453	0	438	0	0	
4	0	0	0	0	497	457	0	439	0	0	
5	0	0	0	0	500	460	0	440	0	0	
6	0	0	0	0	500	462	0	440	0	0	
7	0	0	0	0	500	462	0	440	0	0	
8	0	0	0	0	496	460	0	438	0	0	
9	0	0	0	0	492	458	0	437	0	0	
10	0	0	0	0	485	455	0	435	0	0	
11	0	0	0	0	479	452	0	434	0	0	
12	0	0	0	0	472	449	0	432	0	0	
13	0	0	0	0	467	447	0	432	0	0	
14	0	0	0	0	462	446	0	431	0	0	
15	0	0	0	0	459	445	0	431	0	0	
0	0	0	0	0	457	445	0	431	0	0	
1	0	0	0	0	457	445	0	431	0	0	
2	0	0	0	0	458	445	0	430	0	0	
3	0	0	0	0	460	446	0	430	0	0	
4	0	0	0	0	462	446	0	430	0	0	
5	0	0	0	0	465	447	0	430	0	0	
6	0	0	0	0	470	449	0	429	0	0	
7	0	0	0	0	474	451	0	430	0	0	
8	0	0	0	0	479	453	0	431	0	0	
9	0	0	0	0	483	456	0	433	0	0	
10	0	0	0	0	487	460	0	435	0	0	
11	0	0	0	0	490	463	0	438	0	0	
12	0	0	0	0	493	468	0	441	0	0	
13	0	0	0	0	495	473	0	445	0	0	
14	0	0	0	0	497	478	0	449	0	0	
15	0	0	0	0	498	482	0	453	0	0	
0	0	0	0	0	499	486	0	455	0	0	
1	0	0	0	0	498	489	0	458	0	0	
2	0	0	0	0	496	490	0	459	0	0	
3	0	0	0	0	493	488	0	459	0	0	
4	0	0	0	0	488	486	0	456	0	0	
5	0	0	0	0	481	480	0	452	0	0	
6	0	0	0	0	472	472	0	446	0	0	
7	0	0	0	0	462	463	0	439	0	0	
8	0	0	0	0	450	451	0	430	0	0	
9	0	0	0	0	436	438	0	420	0	0	
10	0	0	0	0	423	424	0	409	0	0	
11	0	0	0	0	412	413	0	400	0	0	
12	0	0	0	0	403	403	0	393	0	0	
13	0	0	0	0	399	397	0	388	0	0	
14	0	0	0	0	398	395	0	386	0	0	
15	0	0	0	0	402	396	0	388	0	0	
0	0	0	0	0	410	403	0	394	0	0	
1	0	0	0	0	423	413	0	402	0	0	
2	0	0	0	0	437	424	0	412	0	0	
3	0	0	0	0	451	438	0	422	0	0	
4	0	0	0	0	464	450	0	432	0	0	
5	0	0	0	0	476	461	0	441	0	0	
6	0	0	0	0	483	470	0	448	0	0	
7	0	0	0	0	485	476	0	452	0	0	
8	0	0	0	0	484	478	0	454	0	0	
9	0	0	0	0	480	479	0	454	0	0	
10	0	0	0	0	474	477	0	453	0	0	
11	0	0	0	0	468	475	0	449	0	0	
12	0	0	0	0	463	472	0	446	0	0	
13	0	0	0	0	458	470	0	441	0	0	
14	0	0	0	0	456	468	0	437	0	0	
15	0	0	0	0	457	468	0	433	0	0	
0	0	0	0	0	461	470	0	431	0	0	
1	0	0	0	0	467	472	0	429	0	0	
2	0	0	0	0	474	476	0	429	0	0	
3	0	0	0	0	481	479	0	429	0	0	
4	0	0	0	0	488	483	0	430	0	0	
5	0	0	0	0	493	485	0	431	0	0	
6	0	0	0	0	496	487	0	432	0	0	
7	0	0	0	0	497	488	0	432	0	0	
8	0	0	0	0	497	489	0	433	0	0	
9	0	0	0	0	496	489	0	433	0	0	
10	0	0	0	0	493	490	0	433	0	0	
11	0	0	0	0	490	490	0	433	0	0	
12	0	0	0	0	487	488	0	432	0	0	
13	0	0	0	0	482	487	0	431	0	0	
14	0	0	0	0	477	484	0	428	0	0	
15	0	0	0	0	471	479	0	425	0	0	
0	0	0	0	0	464	473	0	422	0	0	
1	0	0	0	0	457	467	0	418	0	0	
2	0	0	0	0	453	462	0	416	0	0	
3	0	0	0	0	450	458	0	415	0	0	
4	0	0	0	0	449	455	0	414	0	0	
5	0	0	0	0	450	455	0	415	0	0	
6	0	0	0	0	453	456	0	417	0	0	
7	0	0	0	0	456	458	0	420	0	0	
8	0	0	0	0	460	460	0	423	0	0	
9	0	0	0	0	463	463	0	427	0	0	
10	0	0	0	0	465	465	0	431	0	0	
11	0	0	0	0	467	468	0	434	0	0	
12	0	0	0	0	468	470	0	437	0	0	
13	0	0	0	0	468	471	0	440	0	0	
14	0	0	0	0	468	473	0	441	0	0	
15	0	0	0	0	468	474	0	442	0	0	
0	0	0	0	0	466	475	0	441	0	0	
1	0	0	0	0	464	475	0	440	0	0	
2	0	0	0	0	462	474	0	436	0	0	
3	0	0	0	0	459	472	0	432	0	0	
4	0	0	0	0	457	471	0	428	0	0	
5	0	0	0	0	455	469	0	423	0	0	
6	0	0	0	0	455	469	0	420	0	0	
7	0	0	0	0	456	470	0	418	0	0	
8	0	0	0	0	460	472	0	417	0	0	
9	0	0	0	0	464	474	0	418	0	0	
10	0	0	0	0	470	478	0	420	0	0	
11	0	0	0	0	475	481	0	423	0	0	
12	0	0	0	0	480	484	0	426	0	0	
13	0	0	0	0	483	487	0	431	0	0	
14	0	0	0	0	484	488	0	435	0	0	
15	0	0	0	0	484	490	0	440	0	0	
0	0	0	0	0	483	492	0	444	0	0	
1	0	0	0	0	483	494	0	449	0	0	
2	0	0	0	0	483	496	0	454	0	0	
3	0	0	0	0	483	500	0	460	0	0	
4	0	0	0	0	485	504	0	464	0	0	
5	0	0	0	0	488	510	0	468	0	0	
6	0	0	0	0	494	515	0	473	0	0	
7	0	0	0	0	500	522	0	476	0	0	
8	0	0	0	0	507	527	0	479	0	0	
9	0	0	0	0	515	533	0	481	0	0	
10	0	0	0	0	522	539	0	481	0	0	
11	0	0	0	0	531	543	0	482	0	0	
12	0	0	0	0	538	548	0	482	0	0	
13	0	0	0	0	544	551	0	481	0	0	
14	0	0	0	0	549	553	0	479	0	0	
15	0	0	0	0	551	553	0	476	0	0	
0	0	0	0	0	549	551	0	473	0	0	
1	0	0	0	0	544	547	0	469	0	0	
2	0	0	0	0	537	542	0	465	0	0	
3	0	0	0	0	528	535	0	462	0	0	
4	0	0	0	0	518	529	0	458	0	0	
5	0	0	0	0	507	522	0	455	0	0	
6	0	0	0	0	496	515	0	451	0	0	
7	0	0	0	0	486	509	0	448	0	0	
8	0	0	0	0	475	502	0	446	0	0	
9	0	0	0	0	466	496	0	442	0	0	
10	0	0	0	0	458	489	0	440	0	0	
11	0	0	0	0	451	484	0	437	0	0	
12	0	0	0	0	446	479	0	435	0	0	
13	0	0	0	0	444	475	0	434	0	0	
14	0	0	0	0	444	473	0	434	0	0	
15	0	0	0	0	447	473	0	435	0	0	
0	0	0	0	0	452	475	0	437	0	0	
1	0	0	0	0	459	478	0	439	0	0	
2	0	0	0	0	467	483	0	444	0	0	
3	0	0	0	0	477	490	0	449	0	0	
4	0	0	0	0	488	498	0	455	0	0	
5	0	0	0	0	500	508	0	462	0	0	
6	0	0	0	0	512	519	0	471	0	0	
7	0	0	0	0	524	530	0	479	0	0	
8	0	0	0	0	535	541	0	487	0	0	
9	0	0	0	0	544	551	0	494	0	0	
10	0	0	0	0	551	559	0	500	0	0	
11	0	0	0	0	557	566	0	505	0	0	
12	0	0	0	0	560	571	0	508	0	0	
13	0	0	0	0	562	574	0	508	0	0	
14	0	0	0	0	563	576	0	508	0	0	
15	0	0	0	0	561	576	0	505	0	0	
0	0	0	0	0	560	575	0	502	0	0	
1	0	0	0	0	557	574	0	498	0	0	
2	0	0	0	0	554	572	0	493	0	0	
3	0	0	0	0	551	570	0	489	0	0	
4	0	0	0	0	546	567	0	486	0	0	
5	0	0	0	0	540	561	0	481	0	0	
6	0	0	0	0	532	554	0	478	0	0	
7	0	0	0	0	523	546	0	474	0	0	
8	0	0	0	0	511	536	0	471	0	0	
9	0	0	0	0	500	527	0	468	0	0	
10	0	0	0	0	490	519	0	467	0	0	
11	0	0	0	0	480	511	0	467	0	0	
12	0	0	0	0	473	506	0	467	0	0	
13	0	0	0	0	467	502	0	467	0	0	
14	0	0	0	0	462	500	0	468	0	0	
15	0	0	0	0	460	499	0	469	0	0	
0	0	0	0	0	459	499	0	469	0	0	
1	0	0	0	0	461	501	0	470	0	0	
2	0	0	0	0	464	504	0	470	0	0	
3	0	0	0	0	468	507	0	469	0	0	
4	0	0	0	0	474	510	0	468	0	0	
5	0	0	0	0	480	513	0	467	0	0	
6	0	0	0	0	487	517	0	467	0	0	
7	0	0	0	0	494	520	0	466	0	0	
8	0	0	0	0	500	524	0	466	0	0	
9	0	0	0	0	505	526	0	466	0	0	
10	0	0	0	0	509	529	0	467	0	0	
11	0	0	0	0	512	532	0	468	0	0	
12	0	0	0	0	515	535	0	469	0	0	
13	0	0	0	0	516	537	0	471	0	0	
14	0	0	0	0	516	539	0	473	0	0	
15	0	0	0	0	516	542	0	476	0	0	
0	0	0	0	0	515	544	0	477	0	0	
1	0	0	0	0	513	545	0	479	0	0	
2	0	0	0	0	510	545	0	480	0	0	
3	0	0	0	0	505	544	0	480	0	0	
4	0	0	0	0	502	543	0	480	0	0	
5	0	0	0	0	499	542	0	479	0	0	
6	0	0	0	0	497	541	0	479	0	0	
7	0	0	0	0	496	541	0	478	0	0	
8	0	0	0	0	496	540	0	477	0	0	
9	0	0	0	0	497	540	0	476	0	0	
10	0	0	0	0	500	540	0	474	0	0	
11	0	0	0	0	503	540	0	472	0	0	
12	0	0	0	0	507	540	0	468	0	0	
13	0	0	0	0	510	540	0	465	0	0	
14	0	0	0	0	514	540	0	462	0	0	
15	0	0	0	0	517	541	0	459	0	0	
0	0	0	0	0	520	542	0	457	0	0	
1	0	0	0	0	521	541	0	455	0	0	
2	0	0	0	0	520	540	0	455	0	0	
3	0	0	0	0	516	537	0	454	0	0	
4	0	0	0	0	510	533	0	452	0	0	
5	0	0	0	0	501	527	0	451	0	0	
6	0	0	0	0	492	521	0	451	0	0	
7	0	0	0	0	481	515	0	450	0	0	
8	0	0	0	0	472	509	0	450	0	0	
9	0	0	0	0	465	505	0	449	0	0	
10	0	0	0	0	461	504	0	451	0	0	
11	0	0	0	0	460	503	0	452	0	0	
12	0	0	0	0	462	505	0	455	0	0	
13	0	0	0	0	468	510	0	457	0	0	
14	0	0	0	0	477	516	0	461	0	0	
15	0	0	0	0	489	524	0	465	0	0	
0	0	0	0	0	503	534	0	469	0	0	
1	0	0	0	0	516	544	0	474	0	0	
2	0	0	0	0	530	554	0	480	0	0	
3	0	0	0	0	542	564	0	485	0	0	
4	0	0	0	0	553	573	0	492	0	0	
5	0	0	0	0	561	581	0	497	0	0	
6	0	0	0	0	566	587	0	503	0	0	
7	0	0	0	0	568	590	0	508	0	0	
8	0	0	0	0	568	592	0	512	0	0	
9	0	0	0	0	566	593	0	516	0	0	
10	0	0	0	0	561	591	0	518	0	0	
11	0	0	0	0	554	588	0	518	0	0	
12	0	0	0	0	545	582	0	516	0	0	
13	0	0	0	0	534	575	0	512	0	0	
14	0	0	0	0	523	565	0	505	0	0	
15	0	0	0	0	510	553	0	497	0	0	
0	0	0	0	0	498	541	0	488	0	0	
1	0	0	0	0	486	529	0	478	0	0	
2	0	0	0	0	476	518	0	467	0	0	
3	0	0	0	0	468	509	0	458	0	0	
4	0	0	0	0	463	503	0	451	0	0	
5	0	0	0	0	462	499	0	446	0	0	
6	0	0	0	0	464	500	0	444	0	0	
7	0	0	0	0	469	503	0	445	0	0	
8	0	0	0	0	475	508	0	448	0	0	
9	0	0	0	0	483	514	0	453	0	0	
10	0	0	0	0	490	520	0	459	0	0	
11	0	0	0	0	497	526	0	466	0	0	
12	0	0	0	0	503	531	0	472	0	0	
13	0	0	0	0	507	535	0	478	0	0	
14	0	0	0	0	509	536	0	482	0	0	
15	0	0	0	0	509	536	0	484	0	0	
0	0	0	0	0	507	534	0	485	0	0	
1	0	0	0	0	504	531	0	484	0	0	
2	0	0	0	0	499	526	0	482	0	0	
3	0	0	0	0	495	521	0	478	0	0	
4	0	0	0	0	491	515	0	474	0	0	
5	0	0	0	0	487	512	0	470	0	0	
6	0	0	0	0	486	508	0	466	0	0	
7	0	0	0	0	487	506	0	463	0	0	
8	0	0	0	0	488	505	0	461	0	0	
9	0	0	0	0	492	507	0	461	0	0	
10	0	0	0	0	497	510	0	462	0	0	
11	0	0	0	0	502	515	0	464	0	0	
12	0	0	0	0	508	521	0	467	0	0	
13	0	0	0	0	513	526	0	471	0	0	
14	0	0	0	0	517	531	0	475	0	0	
15	0	0	0	0	519	536	0	479	0	0	
0	0	0	0	0	520	540	0	481	0	0	
1	0	0	0	0	519	543	0	483	0	0	
2	0	0	0	0	517	543	0	483	0	0	
3	0	0	0	0	513	542	0	482	0	0	
4	0	0	0	0	508	538	0	479	0	0	
5	0	0	0	0	503	536	0	475	0	0	
6	0	0	0	0	499	532	0	471	0	0	
7	0	0	0	0	496	529	0	467	0	0	
8	0	0	0	0	496	528	0	463	0	0	
9	0	0	0	0	497	528	0	460	0	0	
10	0	0	0	0	502	530	0	459	0	0	
11	0	0	0	0	508	533	0	458	0	0	
12	0	0	0	0	515	536	0	459	0	0	
13	0	0	0	0	523	541	0	460	0	0	
14	0	0	0	0	530	545	0	463	0	0	
15	0	0	0	0	536	550	0	467	0	0	
0	0	0	0	0	542	553	0	471	0	0	
1	0	0	0	0	545	556	0	475	0	0	
2	0	0	0	0	546	557	0	479	0	0	
3	0	0	0	0	542	555	0	482	0	0	
4	0	0	0	0	535	551	0	483	0	0	
5	0	0	0	0	524	543	0	483	0	0	
6	0	0	0	0	508	534	0	482	0	0	
7	0	0	0	0	491	522	0	479	0	0	
8	0	0	0	0	472	509	0	474	0	0	
9	0	0	0	0	455	496	0	469	0	0	
10	0	0	0	0	439	484	0	463	0	0	
11	0	0	0	0	426	475	0	457	0	0	
12	0	0	0	0	417	467	0	452	0	0	
13	0	0	0	0	412	462	0	447	0	0	
14	0	0	0	0	412	460	0	443	0	0	
15	0	0	0	0	417	460	0	440	0	0	
0	0	0	0	0	424	463	0	439	0	0	
1	0	0	0	0	435	468	0	439	0	0	
2	0	0	0	0	447	476	0	440	0	0	
3	0	0	0	0	463	486	0	444	0	0	
4	0	0	0	0	480	498	0	451	0	0	
5	0	0	0	0	497	511	0	459	0	0	
6	0	0	0	0	514	525	0	468	0	0	
7	0	0	0	0	530	539	0	478	0	0	
8	0	0	0	0	544	552	0	488	0	0	
9	0	0	0	0	556	564	0	498	0	0	
10	0	0	0	0	565	574	0	506	0	0	
11	0	0	0	0	571	582	0	513	0	0	
12	0	0	0	0	574	587	0	518	0	0	
13	0	0	0	0	575	590	0	521	0	0	
14	0	0	0	0	572	591	0	521	0	0	
15	0	0	0	0	568	589	0	520	0	0	
0	0	0	0	0	561	584	0	516	0	0	
1	0	0	0	0	551	578	0	511	0	0	
2	0	0	0	0	540	569	0	504	0	0	
3	0	0	0	0	527	558	0	496	0	0	
4	0	0	0	0	513	547	0	489	0	0	
5	0	0	0	0	501	537	0	482	0	0	
6	0	0	0	0	490	528	0	476	0	0	
7	0	0	0	0	483	522	0	472	0	0	
8	0	0	0	0	479	519	0	471	0	0	
9	0	0	0	0	479	519	0	472	0	0	
10	0	0	0	0	481	521	0	474	0	0	
11	0	0	0	0	486	526	0	479	0	0	
12	0	0	0	0	494	532	0	485	0	0	
13	0	0	0	0	504	542	0	492	0	0	
14	0	0	0	0	515	551	0	501	0	0	
15	0	0	0	0	529	563	0	509	0	0	
0	0	0	0	0	542	574	0	517	0	0	
1	0	0	0	0	555	583	0	524	0	0	
2	0	0	0	0	566	591	0	529	0	0	
3	0	0	0	0	573	596	0	531	0	0	
4	0	0	0	0	577	597	0	530	0	0	
5	0	0	0	0	575	595	0	526	0	0	
6	0	0	0	0	569	588	0	519	0	0	
7	0	0	0	0	559	577	0	509	0	0	
8	0	0	0	0	544	564	0	497	0	0	
9	0	0	0	0	528	550	0	486	0	0	
10	0	0	0	0	511	536	0	474	0	0	
11	0	0	0	0	496	523	0	464	0	0	
12	0	0	0	0	482	512	0	456	0	0	
13	0	0	0	0	471	504	0	451	0	0	
14	0	0	0	0	463	498	0	449	0	0	
15	0	0	0	0	458	495	0	449	0	0	
0	0	0	0	0	457	496	0	451	0	0	
1	0	0	0	0	460	498	0	455	0	0	
2	0	0	0	0	464	502	0	460	0	0	
3	0	0	0	0	470	508	0	465	0	0	
4	0	0	0	0	478	513	0	472	0	0	
5	0	0	0	0	486	520	0	477	0	0	
6	0	0	0	0	496	528	0	483	0	0	
7	0	0	0	0	507	536	0	488	0	0	
8	0	0	0	0	516	543	0	493	0	0	
9	0	0	0	0	526	550	0	497	0	0	
10	0	0	0	0	535	557	0	499	0	0	
11	0	0	0	0	541	562	0	501	0	0	
12	0	0	0	0	545	566	0	502	0	0	
13	0	0	0	0	547	568	0	501	0	0	
14	0	0	0	0	545	569	0	499	0	0	
15	0	0	0	0	542	568	0	496	0	0	
0	0	0	0	0	537	566	0	492	0	0	
1	0	0	0	0	531	561	0	487	0	0	
2	0	0	0	0	523	555	0	482	0	0	
3	0	0	0	0	512	547	0	475	0	0	
4	0	0	0	0	501	537	0	468	0	0	
5	0	0	0	0	489	526	0	460	0	0	
6	0	0	0	0	476	513	0	452	0	0	
7	0	0	0	0	463	499	0	445	0	0	
8	0	0	0	0	451	487	0	438	0	0	
9	0	0	0	0	442	476	0	432	0	0	
10	0	0	0	0	436	467	0	428	0	0	
11	0	0	0	0	433	461	0	426	0	0	
12	0	0	0	0	433	457	0	426	0	0	
13	0	0	0	0	436	457	0	428	0	0	
14	0	0	0	0	444	460	0	432	0	0	
15	0	0	0	0	454	467	0	439	0	0	
0	0	0	0	0	467	476	0	447	0	0	
1	0	0	0	0	482	487	0	457	0	0	
2	0	0	0	0	499	502	0	468	0	0	
3	0	0	0	0	516	518	0	480	0	0	
4	0	0	0	0	534	535	0	492	0	0	
5	0	0	0	0	551	551	0	504	0	0	
6	0	0	0	0	566	567	0	515	0	0	
7	0	0	0	0	578	581	0	524	0	0	
8	0	0	0	0	589	593	0	532	0	0	
9	0	0	0	0	595	603	0	537	0	0	
10	0	0	0	0	599	609	0	541	0	0	
11	0	0	0	0	599	612	0	542	0	0	
12	0	0	0	0	596	612	0	540	0	0	
13	0	0	0	0	592	609	0	537	0	0	
14	0	0	0	0	585	604	0	532	0	0	
15	0	0	0	0	577	595	0	525	0	0	
0	0	0	0	0	567	585	0	516	0	0	
1	0	0	0	0	555	573	0	507	0	0	
2	0	0	0	0	543	560	0	497	0	0	
3	0	0	0	0	531	547	0	486	0	0	
4	0	0	0	0	518	534	0	476	0	0	
5	0	0	0	0	506	521	0	467	0	0	
6	0	0	0	0	494	509	0	457	0	0	
7	0	0	0	0	481	498	0	449	0	0	
8	0	0	0	0	469	487	0	443	0	0	
9	0	0	0	0	457	478	0	437	0	0	
10	0	0	0	0	445	467	0	432	0	0	
11	0	0	0	0	433	458	0	428	0	0	
12	0	0	0	0	422	450	0	425	0	0	
13	0	0	0	0	412	443	0	423	0	0	
14	0	0	0	0	406	439	0	423	0	0	
15	0	0	0	0	404	439	0	426	0	0	
0	0	0	0	0	406	441	0	430	0	0	
1	0	0	0	0	412	446	0	435	0	0	
2	0	0	0	0	421	452	0	440	0	0	
3	0	0	0	0	433	461	0	446	0	0	
4	0	0	0	0	446	469	0	451	0	0	
5	0	0	0	0	459	476	0	455	0	0	
6	0	0	0	0	472	484	0	458	0	0	
7	0	0	0	0	484	491	0	461	0	0	
8	0	0	0	0	494	496	0	463	0	0	
9	0	0	0	0	502	499	0	465	0	0	
10	0	0	0	0	505	500	0	465	0	0	
11	0	0	0	0	507	501	0	465	0	0	
12	0	0	0	0	504	499	0	465	0	0	
13	0	0	0	0	499	497	0	465	0	0	
14	0	0	0	0	493	494	0	465	0	0	
15	0	0	0	0	485	491	0	466	0	0	
0	0	0	0	0	477	488	0	466	0	0	
1	0	0	0	0	470	486	0	467	0	0	
2	0	0	0	0	464	485	0	468	0	0	
3	0	0	0	0	460	486	0	470	0	0	
4	0	0	0	0	460	488	0	472	0	0	
5	0	0	0	0	463	492	0	474	0	0	
6	0	0	0	0	470	500	0	476	0	0	
7	0	0	0	0	482	509	0	480	0	0	
8	0	0	0	0	496	519	0	483	0	0	
9	0	0	0	0	513	531	0	487	0	0	
10	0	0	0	0	531	542	0	490	0	0	
11	0	0	0	0	548	551	0	493	0	0	
12	0	0	0	0	561	559	0	496	0	0	
13	0	0	0	0	570	563	0	497	0	0	
14	0	0	0	0	573	562	0	497	0	0	
15	0	0	0	0	571	559	0	495	0	0	
0	0	0	0	0	562	551	0	493	0	0	
1	0	0	0	0	548	541	0	489	0	0	
2	0	0	0	0	531	529	0	484	0	0	
3	0	0	0	0	511	515	0	479	0	0	
4	0	0	0	0	491	502	0	473	0	0	
5	0	0	0	0	470	488	0	467	0	0	
6	0	0	0	0	451	475	0	460	0	0	
7	0	0	0	0	434	463	0	454	0	0	
8	0	0	0	0	420	454	0	448	0	0	
9	0	0	0	0	411	447	0	441	0	0	
10	0	0	0	0	406	441	0	434	0	0	
11	0	0	0	0	405	438	0	428	0	0	
12	0	0	0	0	408	436	0	423	0	0	
13	0	0	0	0	412	435	0	417	0	0	
14	0	0	0	0	419	435	0	411	0	0	
15	0	0	0	0	426	436	0	407	0	0	
0	0	0	0	0	434	437	0	401	0	0	
1	0	0	0	0	441	439	0	397	0	0	
2	0	0	0	0	446	440	0	393	0	0	
3	0	0	0	0	449	441	0	387	0	0	
4	0	0	0	0	450	441	0	382	0	0	
5	0	0	0	0	447	439	0	376	0	0	
6	0	0	0	0	440	435	0	368	0	0	
7	0	0	0	0	430	430	0	359	0	0	
8	0	0	0	0	416	421	0	349	0	0	
9	0	0	0	0	400	411	0	337	0	0	
10	0	0	0	0	382	398	0	324	0	0	
11	0	0	0	0	361	383	0	309	0	0	
12	0	0	0	0	338	365	0	293	0	0	
13	0	0	0	0	315	345	0	275	0	0	
14	0	0	0	0	291	323	0	257	0	0	
15	0	0	0	0	268	301	0	240	0	0	
0	0	0	0	0	247	280	0	224	0	0	
1	0	0	0	0	228	260	0	210	0	0	
2	0	0	0	0	214	243	0	200	0	0	
3	0	0	0	0	204	229	0	193	0	0	
4	0	0	0	0	201	220	0	192	0	0	
5	0	0	0	0	203	216	0	195	0	0	
6	0	0	0	0	211	218	0	203	0	0	
7	0	0	0	0	224	226	0	216	0	0	
8	0	0	0	0	243	240	0	233	0	0	
9	0	0	0	0	265	258	0	254	0	0	
10	0	0	0	0	292	281	0	278	0	0	
11	0	0	0	0	321	306	0	303	0	0	
12	0	0	0	0	352	335	0	330	0	0	
13	0	0	0	0	384	366	0	358	0	0	
14	0	0	0	0	415	397	0	385	0	0	
15	0	0	0	0	444	427	0	410	0	0	
0	0	0	0	0	471	455	0	433	0	0	
1	0	0	0	0	494	480	0	453	0	0	
2	0	0	0	0	513	502	0	470	0	0	
3	0	0	0	0	527	519	0	483	0	0	
4	0	0	0	0	537	531	0	492	0	0	
5	0	0	0	0	541	539	0	496	0	0	
6	0	0	0	0	542	542	0	497	0	0	
7	0	0	0	0	538	542	0	494	0	0	
8	0	0	0	0	531	540	0	490	0	0	
9	0	0	0	0	524	535	0	484	0	0	
10	0	0	0	0	516	530	0	478	0	0	
11	0	0	0	0	510	527	0	472	0	0	
12	0	0	0	0	506	525	0	467	0	0	
13	0	0	0	0	505	526	0	464	0	0	
14	0	0	0	0	506	528	0	463	0	0	
15	0	0	0	0	509	531	0	464	0	0	
0	0	0	0	0	513	535	0	465	0	0	
1	0	0	0	0	518	539	0	468	0	0	
2	0	0	0	0	524	543	0	472	0	0	
3	0	0	0	0	528	547	0	476	0	0	
4	0	0	0	0	532	550	0	481	0	0	
5	0	0	0	0	537	553	0	486	0	0	
6	0	0	0	0	541	555	0	492	0	0	
7	0	0	0	0	544	557	0	496	0	0	
8	0	0	0	0	547	558	0	499	0	0	
9	0	0	0	0	549	559	0	502	0	0	
10	0	0	0	0	550	560	0	504	0	0	
11	0	0	0	0	550	559	0	504	0	0	
12	0	0	0	0	548	559	0	504	0	0	
13	0	0	0	0	547	558	0	504	0	0	
14	0	0	0	0	544	558	0	502	0	0	
15	0	0	0	0	543	560	0	501	0	0	
0	0	0	0	0	544	564	0	502	0	0	
1	0	0	0	0	547	571	0	503	0	0	
2	0	0	0	0	553	580	0	506	0	0	
3	0	0	0	0	560	591	0	510	0	0	
4	0	0	0	0	569	603	0	515	0	0	
5	0	0	0	0	577	613	0	519	0	0	
6	0	0	0	0	583	621	0	522	0	0	
7	0	0	0	0	587	624	0	523	0	0	
8	0	0	0	0	586	624	0	522	0	0	
9	0	0	0	0	582	620	0	519	0	0	
10	0	0	0	0	574	610	0	513	0	0	
11	0	0	0	0	563	597	0	505	0	0	
12	0	0	0	0	552	583	0	496	0	0	
13	0	0	0	0	541	569	0	487	0	0	
14	0	0	0	0	533	557	0	478	0	0	
15	0	0	0	0	528	548	0	471	0	0	
0	0	0	0	0	528	543	0	465	0	0	
1	0	0	0	0	531	542	0	462	0	0	
2	0	0	0	0	539	544	0	460	0	0	
3	0	0	0	0	548	551	0	460	0	0	
4	0	0	0	0	558	558	0	461	0	0	
5	0	0	0	0	566	565	0	462	0	0	
6	0	0	0	0	570	570	0	463	0	0	
7	0	0	0	0	567	571	0	463	0	0	
8	0	0	0	0	559	567	0	462	0	0	
9	0	0	0	0	543	558	0	458	0	0	
10	0	0	0	0	524	546	0	453	0	0	
11	0	0	0	0	500	531	0	446	0	0	
12	0	0	0	0	475	513	0	439	0	0	
13	0	0	0	0	451	496	0	431	0	0	
14	0	0	0	0	428	480	0	423	0	0	
15	0	0	0	0	409	465	0	416	0	0	
0	0	0	0	0	395	452	0	410	0	0	
1	0	0	0	0	385	442	0	407	0	0	
2	0	0	0	0	381	436	0	405	0	0	
3	0	0	0	0	384	435	0	407	0	0	
4	0	0	0	0	392	438	0	412	0	0	
5	0	0	0	0	405	444	0	419	0	0	
6	0	0	0	0	422	455	0	428	0	0	
7	0	0	0	0	442	468	0	439	0	0	
8	0	0	0	0	463	483	0	450	0	0	
9	0	0	0	0	483	498	0	460	0	0	
10	0	0	0	0	500	511	0	469	0	0	
11	0	0	0	0	514	523	0	476	0	0	
12	0	0	0	0	524	532	0	480	0	0	
13	0	0	0	0	530	539	0	482	0	0	
14	0	0	0	0	533	543	0	481	0	0	
15	0	0	0	0	532	546	0	479	0	0	
0	0	0	0	0	530	547	0	475	0	0	
1	0	0	0	0	527	547	0	471	0	0	
2	0	0	0	0	524	547	0	467	0	0	
3	0	0	0	0	523	548	0	463	0	0	
4	0	0	0	0	524	549	0	462	0	0	
5	0	0	0	0	527	551	0	461	0	0	
6	0	0	0	0	531	554	0	461	0	0	
7	0	0	0	0	535	556	0	463	0	0	
8	0	0	0	0	539	558	0	464	0	0	
9	0	0	0	0	541	556	0	465	0	0	
10	0	0	0	0	540	554	0	466	0	0	
11	0	0	0	0	537	550	0	465	0	0	
12	0	0	0	0	533	546	0	465	0	0	
13	0	0	0	0	527	541	0	465	0	0	
14	0	0	0	0	521	537	0	464	0	0	
15	0	0	0	0	517	536	0	465	0	0	
0	0	0	0	0	513	535	0	465	0	0	
1	0	0	0	0	511	535	0	466	0	0	
2	0	0	0	0	510	536	0	468	0	0	
3	0	0	0	0	510	537	0	468	0	0	
4	0	0	0	0	510	538	0	469	0	0	
5	0	0	0	0	510	538	0	467	0	0	
6	0	0	0	0	509	537	0	466	0	0	
7	0	0	0	0	508	535	0	462	0	0	
8	0	0	0	0	508	531	0	458	0	0	
9	0	0	0	0	505	528	0	452	0	0	
10	0	0	0	0	503	523	0	445	0	0	
11	0	0	0	0	500	516	0	437	0	0	
12	0	0	0	0	495	510	0	428	0	0	
13	0	0	0	0	489	503	0	420	0	0	
14	0	0	0	0	484	497	0	412	0	0	
15	0	0	0	0	480	493	0	406	0	0	
0	0	0	0	0	476	491	0	401	0	0	
1	0	0	0	0	473	490	0	399	0	0	
2	0	0	0	0	472	492	0	398	0	0	
3	0	0	0	0	473	495	0	398	0	0	
4	0	0	0	0	475	499	0	399	0	0	
5	0	0	0	0	479	505	0	402	0	0	
6	0	0	0	0	484	512	0	406	0	0	
7	0	0	0	0	493	520	0	410	0	0	
8	0	0	0	0	503	529	0	415	0	0	
9	0	0	0	0	516	539	0	420	0	0	
10	0	0	0	0	528	549	0	425	0	0	
11	0	0	0	0	540	557	0	430	0	0	
12	0	0	0	0	551	564	0	435	0	0	
13	0	0	0	0	560	569	0	438	0	0	
14	0	0	0	0	568	573	0	441	0	0	
15	0	0	0	0	572	575	0	444	0	0	
0	0	0	0	0	574	575	0	447	0	0	
1	0	0	0	0	572	573	0	450	0	0	
2	0	0	0	0	568	571	0	452	0	0	
3	0	0	0	0	563	567	0	455	0	0	
4	0	0	0	0	556	563	0	456	0	0	
5	0	0	0	0	545	557	0	458	0	0	
6	0	0	0	0	535	551	0	459	0	0	
7	0	0	0	0	522	544	0	459	0	0	
8	0	0	0	0	509	537	0	458	0	0	
9	0	0	0	0	496	529	0	456	0	0	
10	0	0	0	0	483	521	0	454	0	0	
11	0	0	0	0	470	513	0	450	0	0	
12	0	0	0	0	457	505	0	444	0	0	
13	0	0	0	0	447	497	0	437	0	0	
14	0	0	0	0	438	489	0	429	0	0	
15	0	0	0	0	431	482	0	420	0	0	
0	0	0	0	0	425	475	0	411	0	0	
1	0	0	0	0	422	468	0	401	0	0	
2	0	0	0	0	421	464	0	393	0	0	
3	0	0	0	0	423	462	0	387	0	0	
4	0	0	0	0	427	462	0	384	0	0	
5	0	0	0	0	435	467	0	385	0	0	
6	0	0	0	0	448	475	0	390	0	0	
7	0	0	0	0	464	488	0	399	0	0	
8	0	0	0	0	484	506	0	414	0	0	
9	0	0	0	0	507	526	0	431	0	0	
10	0	0	0	0	530	547	0	450	0	0	
11	0	0	0	0	551	568	0	470	0	0	
12	0	0	0	0	571	588	0	488	0	0	
13	0	0	0	0	585	604	0	505	0	0	
14	0	0	0	0	595	616	0	518	0	0	
15	0	0	0	0	598	624	0	525	0	0	
0	0	0	0	0	594	625	0	529	0	0	
1	0	0	0	0	585	622	0	526	0	0	
2	0	0	0	0	571	613	0	519	0	0	
3	0	0	0	0	554	601	0	507	0	0	
4	0	0	0	0	536	588	0	493	0	0	
5	0	0	0	0	518	573	0	477	0	0	
6	0	0	0	0	504	559	0	460	0	0	
7	0	0	0	0	493	547	0	445	0	0	
8	0	0	0	0	486	538	0	431	0	0	
9	0	0	0	0	484	531	0	419	0	0	
10	0	0	0	0	484	527	0	409	0	0	
11	0	0	0	0	487	525	0	402	0	0	
12	0	0	0	0	492	524	0	398	0	0	
13	0	0	0	0	496	525	0	396	0	0	
14	0	0	0	0	499	526	0	395	0	0	
15	0	0	0	0	502	528	0	397	0	0	
0	0	0	0	0	504	531	0	400	0	0	
1	0	0	0	0	505	534	0	403	0	0	
2	0	0	0	0	505	536	0	408	0	0	
3	0	0	0	0	504	537	0	413	0	0	
4	0	0	0	0	501	538	0	416	0	0	
5	0	0	0	0	499	538	0	419	0	0	
6	0	0	0	0	495	536	0	421	0	0	
7	0	0	0	0	492	535	0	422	0	0	
8	0	0	0	0	489	534	0	422	0	0	
9	0	0	0	0	487	531	0	420	0	0	
10	0	0	0	0	486	528	0	418	0	0	
11	0	0	0	0	485	525	0	415	0	0	
12	0	0	0	0	484	522	0	412	0	0	
13	0	0	0	0	484	518	0	408	0	0	
14	0	0	0	0	484	516	0	405	0	0	
15	0	0	0	0	486	515	0	404	0	0	
0	0	0	0	0	489	516	0	405	0	0	
1	0	0	0	0	494	520	0	408	0	0	
2	0	0	0	0	502	527	0	413	0	0	
3	0	0	0	0	511	536	0	420	0	0	
4	0	0	0	0	522	547	0	430	0	0	
5	0	0	0	0	534	560	0	440	0	0	
6	0	0	0	0	545	572	0	449	0	0	
7	0	0	0	0	556	583	0	457	0	0	
8	0	0	0	0	564	591	0	464	0	0	
9	0	0	0	0	569	597	0	467	0	0	
10	0	0	0	0	571	599	0	468	0	0	
11	0	0	0	0	568	598	0	466	0	0	
12	0	0	0	0	563	593	0	461	0	0	
13	0	0	0	0	555	588	0	455	0	0	
14	0	0	0	0	548	582	0	448	0	0	
15	0	0	0	0	541	575	0	442	0	0	
0	0	0	0	0	535	571	0	437	0	0	
1	0	0	0	0	532	568	0	433	0	0	
2	0	0	0	0	532	569	0	432	0	0	
3	0	0	0	0	536	572	0	433	0	0	
4	0	0	0	0	539	576	0	435	0	0	
5	0	0	0	0	543	580	0	439	0	0	
6	0	0	0	0	546	583	0	443	0	0	
7	0	0	0	0	546	586	0	447	0	0	
8	0	0	0	0	546	586	0	450	0	0	
9	0	0	0	0	543	585	0	452	0	0	
10	0	0	0	0	538	583	0	453	0	0	
11	0	0	0	0	532	578	0	453	0	0	
12	0	0	0	0	525	572	0	452	0	0	
13	0	0	0	0	518	565	0	450	0	0	
14	0	0	0	0	508	556	0	448	0	0	
15	0	0	0	0	499	547	0	446	0	0	
0	0	0	0	0	491	537	0	443	0	0	
1	0	0	0	0	481	527	0	440	0	0	
2	0	0	0	0	474	518	0	437	0	0	
3	0	0	0	0	466	508	0	433	0	0	
4	0	0	0	0	460	500	0	430	0	0	
5	0	0	0	0	454	493	0	427	0	0	
6	0	0	0	0	450	487	0	424	0	0	
7	0	0	0	0	449	485	0	423	0	0	
8	0	0	0	0	449	484	0	422	0	0	
9	0	0	0	0	451	486	0	422	0	0	
10	0	0	0	0	454	489	0	423	0	0	
11	0	0	0	0	457	493	0	423	0	0	
12	0	0	0	0	462	498	0	424	0	0	
13	0	0	0	0	466	503	0	425	0	0	
14	0	0	0	0	471	507	0	426	0	0	
15	0	0	0	0	475	512	0	428	0	0	
0	0	0	0	0	478	516	0	428	0	0	
1	0	0	0	0	480	519	0	428	0	0	
2	0	0	0	0	482	522	0	428	0	0	
3	0	0	0	0	483	523	0	428	0	0	
4	0	0	0	0	483	523	0	428	0	0	
5	0	0	0	0	483	521	0	427	0	0	
6	0	0	0	0	482	520	0	425	0	0	
7	0	0	0	0	481	518	0	425	0	0	
8	0	0	0	0	481	517	0	424	0	0	
9	0	0	0	0	482	517	0	424	0	0	
10	0	0	0	0	484	517	0	426	0	0	
11	0	0	0	0	487	520	0	428	0	0	
12	0	0	0	0	492	524	0	431	0	0	
13	0	0	0	0	498	529	0	435	0	0	
14	0	0	0	0	505	536	0	441	0	0	
15	0	0	0	0	512	543	0	447	0	0	
0	0	0	0	0	519	551	0	452	0	0	
1	0	0	0	0	527	559	0	458	0	0	
2	0	0	0	0	533	565	0	463	0	0	
3	0	0	0	0	539	571	0	467	0	0	
4	0	0	0	0	543	575	0	470	0	0	
5	0	0	0	0	546	578	0	470	0	0	
6	0	0	0	0	547	579	0	469	0	0	
7	0	0	0	0	547	577	0	466	0	0	
8	0	0	0	0	545	574	0	461	0	0	
9	0	0	0	0	541	568	0	455	0	0	
10	0	0	0	0	534	560	0	447	0	0	
11	0	0	0	0	526	550	0	440	0	0	
12	0	0	0	0	515	539	0	431	0	0	
13	0	0	0	0	503	528	0	424	0	0	
14	0	0	0	0	493	519	0	418	0	0	
15	0	0	0	0	483	511	0	414	0	0	
0	0	0	0	0	475	506	0	413	0	0	
1	0	0	0	0	470	504	0	415	0	0	
2	0	0	0	0	468	505	0	419	0	0	
3	0	0	0	0	470	510	0	425	0	0	
4	0	0	0	0	475	518	0	434	0	0	
5	0	0	0	0	484	529	0	444	0	0	
6	0	0	0	0	496	541	0	456	0	0	
7	0	0	0	0	509	555	0	468	0	0	
8	0	0	0	0	523	568	0	479	0	0	
9	0	0	0	0	537	580	0	489	0	0	
10	0	0	0	0	551	590	0	497	0	0	
11	0	0	0	0	562	599	0	504	0	0	
12	0	0	0	0	572	605	0	508	0	0	
13	0	0	0	0	579	608	0	509	0	0	
14	0	0	0	0	583	610	0	509	0	0	
15	0	0	0	0	584	609	0	506	0	0	
0	0	0	0	0	582	606	0	503	0	0	
1	0	0	0	0	577	601	0	497	0	0	
2	0	0	0	0	571	595	0	492	0	0	
3	0	0	0	0	562	589	0	487	0	0	
4	0	0	0	0	554	584	0	483	0	0	
5	0	0	0	0	547	580	0	480	0	0	
6	0	0	0	0	543	579	0	480	0	0	
7	0	0	0	0	543	582	0	481	0	0	
8	0	0	0	0	547	588	0	486	0	0	
9	0	0	0	0	556	596	0	492	0	0	
10	0	0	0	0	568	607	0	497	0	0	
11	0	0	0	0	581	617	0	502	0	0	
12	0	0	0	0	594	627	0	504	0	0	
13	0	0	0	0	604	634	0	504	0	0	
14	0	0	0	0	611	636	0	501	0	0	
15	0	0	0	0	613	634	0	494	0	0	
0	0	0	0	0	609	627	0	484	0	0	
1	0	0	0	0	600	615	0	473	0	0	
2	0	0	0	0	585	601	0	462	0	0	
3	0	0	0	0	567	583	0	451	0	0	
4	0	0	0	0	545	564	0	441	0	0	
5	0	0	0	0	524	547	0	433	0	0	
6	0	0	0	0	505	531	0	429	0	0	
7	0	0	0	0	488	519	0	426	0	0	
8	0	0	0	0	475	510	0	426	0	0	
9	0	0	0	0	466	504	0	427	0	0	
10	0	0	0	0	461	502	0	431	0	0	
11	0	0	0	0	460	504	0	435	0	0	
12	0	0	0	0	463	507	0	440	0	0	
13	0	0	0	0	467	512	0	446	0	0	
14	0	0	0	0	474	518	0	451	0	0	
15	0	0	0	0	481	524	0	455	0	0	
0	0	0	0	0	489	529	0	459	0	0	
1	0	0	0	0	496	534	0	461	0	0	
2	0	0	0	0	502	537	0	462	0	0	
3	0	0	0	0	506	538	0	461	0	0	
4	0	0	0	0	508	538	0	460	0	0	
5	0	0	0	0	508	536	0	457	0	0	
6	0	0	0	0	507	534	0	454	0	0	
7	0	0	0	0	506	531	0	451	0	0	
8	0	0	0	0	505	530	0	449	0	0	
9	0	0	0	0	505	530	0	448	0	0	
10	0	0	0	0	507	532	0	448	0	0	
11	0	0	0	0	510	535	0	451	0	0	
12	0	0	0	0	514	539	0	453	0	0	
13	0	0	0	0	519	543	0	456	0	0	
14	0	0	0	0	523	548	0	460	0	0	
15	0	0	0	0	527	552	0	463	0	0	
0	0	0	0	0	531	556	0	465	0	0	
1	0	0	0	0	532	558	0	466	0	0	
2	0	0	0	0	532	558	0	466	0	0	
3	0	0	0	0	531	556	0	464	0	0	
4	0	0	0	0	527	553	0	462	0	0	
5	0	0	0	0	522	548	0	457	0	0	
6	0	0	0	0	516	542	0	451	0	0	
7	0	0	0	0	509	535	0	444	0	0	
8	0	0	0	0	503	527	0	438	0	0	
9	0	0	0	0	495	520	0	430	0	0	
10	0	0	0	0	490	513	0	423	0	0	
11	0	0	0	0	485	507	0	417	0	0	
12	0	0	0	0	482	501	0	411	0	0	
13	0	0	0	0	481	498	0	406	0	0	
14	0	0	0	0	482	497	0	402	0	0	
15	0	0	0	0	484	497	0	399	0	0	
0	0	0	0	0	491	502	0	398	0	0	
1	0	0	0	0	499	508	0	399	0	0	
2	0	0	0	0	510	519	0	401	0	0	
3	0	0	0	0	523	531	0	405	0	0	
4	0	0	0	0	538	545	0	411	0	0	
5	0	0	0	0	554	560	0	417	0	0	
6	0	0	0	0	569	575	0	425	0	0	
7	0	0	0	0	584	588	0	433	0	0	
8	0	0	0	0	596	598	0	441	0	0	
9	0	0	0	0	604	604	0	448	0	0	
10	0	0	0	0	607	607	0	452	0	0	
11	0	0	0	0	603	602	0	455	0	0	
12	0	0	0	0	594	592	0	454	0	0	
13	0	0	0	0	577	577	0	451	0	0	
14	0	0	0	0	557	558	0	446	0	0	
15	0	0	0	0	532	536	0	438	0	0	
0	0	0	0	0	505	513	0	430	0	0	
1	0	0	0	0	479	490	0	420	0	0	
2	0	0	0	0	454	468	0	411	0	0	
3	0	0	0	0	432	451	0	402	0	0	
4	0	0	0	0	414	437	0	395	0	0	
5	0	0	0	0	402	428	0	390	0	0	
6	0	0	0	0	396	423	0	387	0	0	
7	0	0	0	0	395	423	0	386	0	0	
8	0	0	0	0	401	429	0	387	0	0	
9	0	0	0	0	412	438	0	390	0	0	
10	0	0	0	0	428	450	0	394	0	0	
11	0	0	0	0	447	464	0	399	0	0	
12	0	0	0	0	467	478	0	404	0	0	
13	0	0	0	0	487	492	0	408	0	0	
14	0	0	0	0	506	504	0	411	0	0	
15	0	0	0	0	521	513	0	413	0	0	
0	0	0	0	0	533	518	0	413	0	0	
1	0	0	0	0	539	520	0	412	0	0	
2	0	0	0	0	540	519	0	408	0	0	
3	0	0	0	0	536	513	0	404	0	0	
4	0	0	0	0	527	506	0	398	0	0	
5	0	0	0	0	516	497	0	392	0	0	
6	0	0	0	0	502	487	0	387	0	0	
7	0	0	0	0	488	478	0	381	0	0	
8	0	0	0	0	475	470	0	377	0	0	
9	0	0	0	0	463	464	0	375	0	0	
10	0	0	0	0	454	460	0	375	0	0	
11	0	0	0	0	449	461	0	376	0	0	
12	0	0	0	0	449	465	0	380	0	0	
13	0	0	0	0	455	473	0	387	0	0	
14	0	0	0	0	465	484	0	395	0	0	
15	0	0	0	0	479	497	0	405	0	0	
0	0	0	0	0	495	511	0	416	0	0	
1	0	0	0	0	512	525	0	427	0	0	
2	0	0	0	0	527	537	0	436	0	0	
3	0	0	0	0	541	546	0	444	0	0	
4	0	0	0	0	551	551	0	449	0	0	
5	0	0	0	0	558	554	0	454	0	0	
6	0	0	0	0	562	554	0	457	0	0	
7	0	0	0	0	563	552	0	459	0	0	
8	0	0	0	0	561	547	0	459	0	0	
9	0	0	0	0	555	540	0	457	0	0	
10	0	0	0	0	547	531	0	455	0	0	
11	0	0	0	0	536	522	0	449	0	0	
12	0	0	0	0	525	512	0	444	0	0	
13	0	0	0	0	513	504	0	437	0	0	
14	0	0	0	0	504	497	0	431	0	0	
15	0	0	0	0	498	495	0	426	0	0	
0	0	0	0	0	497	497	0	423	0	0	
1	0	0	0	0	502	504	0	423	0	0	
2	0	0	0	0	512	515	0	425	0	0	
3	0	0	0	0	526	529	0	430	0	0	
4	0	0	0	0	542	543	0	436	0	0	
5	0	0	0	0	557	556	0	441	0	0	
6	0	0	0	0	569	564	0	446	0	0	
7	0	0	0	0	576	568	0	450	0	0	
8	0	0	0	0	579	566	0	452	0	0	
9	0	0	0	0	574	559	0	451	0	0	
10	0	0	0	0	563	546	0	448	0	0	
11	0	0	0	0	547	529	0	444	0	0	
12	0	0	0	0	526	509	0	437	0	0	
13	0	0	0	0	503	488	0	430	0	0	
14	0	0	0	0	480	468	0	422	0	0	
15	0	0	0	0	459	451	0	416	0	0	
0	0	0	0	0	441	438	0	411	0	0	
1	0	0	0	0	429	429	0	408	0	0	
2	0	0	0	0	423	425	0	407	0	0	
3	0	0	0	0	423	427	0	408	0	0	
4	0	0	0	0	428	432	0	411	0	0	
5	0	0	0	0	436	440	0	414	0	0	
6	0	0	0	0	448	450	0	418	0	0	
7	0	0	0	0	461	460	0	422	0	0	
8	0	0	0	0	475	470	0	424	0	0	
9	0	0	0	0	488	479	0	425	0	0	
10	0	0	0	0	501	487	0	425	0	0	
11	0	0	0	0	512	493	0	424	0	0	
12	0	0	0	0	522	498	0	422	0	0	
13	0	0	0	0	529	501	0	419	0	0	
14	0	0	0	0	536	504	0	415	0	0	
15	0	0	0	0	539	504	0	411	0	0	
0	0	0	0	0	540	504	0	408	0	0	
1	0	0	0	0	541	504	0	405	0	0	
2	0	0	0	0	540	504	0	403	0	0	
3	0	0	0	0	540	505	0	402	0	0	
4	0	0	0	0	539	506	0	403	0	0	
5	0	0	0	0	538	509	0	407	0	0	
6	0	0	0	0	538	512	0	411	0	0	
7	0	0	0	0	537	515	0	416	0	0	
8	0	0	0	0	537	517	0	422	0	0	
9	0	0	0	0	536	519	0	428	0	0	
10	0	0	0	0	534	521	0	433	0	0	
11	0	0	0	0	530	520	0	438	0	0	
12	0	0	0	0	526	518	0	441	0	0	
13	0	0	0	0	519	513	0	444	0	0	
14	0	0	0	0	512	507	0	444	0	0	
15	0	0	0	0	504	500	0	442	0	0	
0	0	0	0	0	496	492	0	439	0	0	
1	0	0	0	0	489	484	0	434	0	0	
2	0	0	0	0	483	478	0	428	0	0	
3	0	0	0	0	480	474	0	423	0	0	
4	0	0	0	0	480	472	0	418	0	0	
5	0	0	0	0	483	472	0	414	0	0	
6	0	0	0	0	487	472	0	411	0	0	
7	0	0	0	0	492	474	0	408	0	0	
8	0	0	0	0	495	475	0	406	0	0	
9	0	0	0	0	496	475	0	404	0	0	
10	0	0	0	0	495	472	0	402	0	0	
11	0	0	0	0	490	467	0	400	0	0	
12	0	0	0	0	482	462	0	397	0	0	
13	0	0	0	0	473	455	0	394	0	0	
14	0	0	0	0	462	447	0	391	0	0	
15	0	0	0	0	452	440	0	388	0	0	
0	0	0	0	0	443	433	0	385	0	0	
1	0	0	0	0	436	428	0	383	0	0	
2	0	0	0	0	432	426	0	383	0	0	
3	0	0	0	0	433	426	0	384	0	0	
4	0	0	0	0	437	430	0	387	0	0	
5	0	0	0	0	445	435	0	391	0	0	
6	0	0	0	0	456	444	0	396	0	0	
7	0	0	0	0	468	453	0	402	0	0	
8	0	0	0	0	481	463	0	409	0	0	
9	0	0	0	0	495	472	0	415	0	0	
10	0	0	0	0	507	481	0	421	0	0	
11	0	0	0	0	518	491	0	427	0	0	
12	0	0	0	0	528	499	0	432	0	0	
13	0	0	0	0	538	508	0	436	0	0	
14	0	0	0	0	545	515	0	441	0	0	
15	0	0	0	0	551	521	0	444	0	0	
0	0	0	0	0	554	526	0	445	0	0	
1	0	0	0	0	553	527	0	446	0	0	
2	0	0	0	0	549	526	0	444	0	0	
3	0	0	0	0	543	521	0	442	0	0	
4	0	0	0	0	534	515	0	439	0	0	
5	0	0	0	0	525	508	0	435	0	0	
6	0	0	0	0	515	500	0	431	0	0	
7	0	0	0	0	507	492	0	426	0	0	
8	0	0	0	0	499	485	0	422	0	0	
9	0	0	0	0	493	479	0	417	0	0	
