# OpenSignals Text File Format. Version 1
# {"": {"position": 0, "device": "", "device name": "", "device connection": "", "sampling rate": 1000, "resolution": [4, 1, 1, 1, 1, 10, 10, 10, 10, 6, 6], "firmware version": 1281, "comments": "", "keywords": "", "mode": 0, "sync interval": 2, "date": "", "time": "", "channels": [1, 2, 3, 4, 5, 6], "sensor": ["RAW", "RAW", "RAW", "RAW", "RAW", "RAW"], "label": ["A1", "A2", "A3", "A4", "A5", "A6"], "column": ["nSeq", "I1", "I2", "O1", "O2", "A1", "A2", "A3", "A4", "A5", "A6"], "special": [{}, {}, {}, {}, {}, {}], "digital IO": [0, 0, 1, 1], "convertedValues": 0}}
# EndOfHeader
0	0	0	0	0	233	295	1021	180	0	0	
1	0	0	0	0	247	303	1021	190	0	0	
2	0	0	0	0	266	308	1021	205	0	0	
3	0	0	0	0	288	307	1021	223	0	0	
4	0	0	0	0	313	303	1021	241	0	0	
5	0	0	0	0	338	295	1021	261	0	0	
6	0	0	0	0	362	284	1021	279	0	0	
7	0	0	0	0	383	273	1021	294	0	0	
8	0	0	0	0	399	263	1021	307	0	0	
9	0	0	0	0	412	258	1021	318	0	0	
10	0	0	0	0	421	258	1021	327	0	0	
11	0	0	0	0	427	265	1021	335	0	0	
12	0	0	0	0	431	281	1021	342	0	0	
13	0	0	0	0	435	304	1021	350	0	0	
14	0	0	0	0	440	335	1021	359	0	0	
15	0	0	0	0	446	372	1021	371	0	0	
0	0	0	0	0	455	414	1021	387	0	0	
1	0	0	0	0	469	457	1021	404	0	0	
2	0	0	0	0	487	499	1021	426	0	0	
3	0	0	0	0	509	537	1021	449	0	0	
4	0	0	0	0	533	568	1021	473	0	0	
5	0	0	0	0	558	591	1021	497	0	0	
6	0	0	0	0	582	603	1021	519	0	0	
7	0	0	0	0	603	604	1021	536	0	0	
8	0	0	0	0	620	596	1021	549	0	0	
9	0	0	0	0	631	579	1021	555	0	0	
10	0	0	0	0	634	554	1021	555	0	0	
11	0	0	0	0	630	524	1021	547	0	0	
12	0	0	0	0	618	493	1021	534	0	0	
13	0	0	0	0	600	463	1021	515	0	0	
14	0	0	0	0	577	436	1021	492	0	0	
15	0	0	0	0	551	417	1021	468	0	0	
0	0	0	0	0	524	405	1021	446	0	0	
1	0	0	0	0	499	401	1021	424	0	0	
2	0	0	0	0	476	406	1021	407	0	0	
3	0	0	0	0	460	420	1021	395	0	0	
4	0	0	0	0	451	440	1021	390	0	0	
5	0	0	0	0	450	466	1021	392	0	0	
6	0	0	0	0	458	493	1021	401	0	0	
7	0	0	0	0	473	520	1021	417	0	0	
8	0	0	0	0	496	544	1021	438	0	0	
9	0	0	0	0	522	562	1021	462	0	0	
10	0	0	0	0	551	574	1021	487	0	0	
11	0	0	0	0	578	579	1021	510	0	0	
12	0	0	0	0	603	576	1021	531	0	0	
13	0	0	0	0	624	566	1021	548	0	0	
14	0	0	0	0	638	550	1021	558	0	0	
15	0	0	0	0	644	530	1021	562	0	0	
0	0	0	0	0	641	507	1021	558	0	0	
1	0	0	0	0	631	485	1021	547	0	0	
2	0	0	0	0	614	465	1021	531	0	0	
3	0	0	0	0	591	450	1021	512	0	0	
4	0	0	0	0	566	441	1021	490	0	0	
5	0	0	0	0	539	438	1020	468	0	0	
6	0	0	0	0	514	442	1021	448	0	0	
7	0	0	0	0	494	453	1021	432	0	0	
8	0	0	0	0	480	470	1021	422	0	0	
9	0	0	0	0	473	490	1021	418	0	0	
10	0	0	0	0	474	512	1021	421	0	0	
11	0	0	0	0	483	534	1021	430	0	0	
12	0	0	0	0	500	552	1021	444	0	0	
13	0	0	0	0	520	566	1021	462	0	0	
14	0	0	0	0	544	573	1021	481	0	0	
15	0	0	0	0	568	574	1020	500	0	0	
0	0	0	0	0	590	566	1021	517	0	0	
1	0	0	0	0	608	553	1021	529	0	0	
2	0	0	0	0	620	534	1021	537	0	0	
3	0	0	0	0	625	511	1021	539	0	0	
4	0	0	0	0	622	487	1021	534	0	0	
5	0	0	0	0	612	465	1021	524	0	0	
6	0	0	0	0	595	446	1021	509	0	0	
7	0	0	0	0	575	432	1021	492	0	0	
8	0	0	0	0	550	424	1021	473	0	0	
9	0	0	0	0	526	424	1021	455	0	0	
10	0	0	0	0	504	432	1021	439	0	0	
11	0	0	0	0	487	446	1021	427	0	0	
12	0	0	0	0	475	466	1021	420	0	0	
13	0	0	0	0	471	490	1021	420	0	0	
14	0	0	0	0	474	515	1021	426	0	0	
15	0	0	0	0	486	540	1020	438	0	0	
0	0	0	0	0	504	560	1021	454	0	0	
1	0	0	0	0	527	575	1021	473	0	0	
2	0	0	0	0	552	583	1021	494	0	0	
3	0	0	0	0	577	585	1021	513	0	0	
4	0	0	0	0	600	579	1021	529	0	0	
5	0	0	0	0	619	565	1021	542	0	0	
6	0	0	0	0	632	546	1021	550	0	0	
7	0	0	0	0	638	523	1021	550	0	0	
8	0	0	0	0	635	498	1021	545	0	0	
9	0	0	0	0	625	476	1021	534	0	0	
10	0	0	0	0	609	455	1021	519	0	0	
11	0	0	0	0	587	441	1021	500	0	0	
12	0	0	0	0	563	433	1021	480	0	0	
13	0	0	0	0	538	431	1020	462	0	0	
14	0	0	0	0	515	437	1021	445	0	0	
15	0	0	0	0	495	449	1021	433	0	0	
0	0	0	0	0	482	467	1021	426	0	0	
1	0	0	0	0	476	489	1021	424	0	0	
2	0	0	0	0	478	513	1021	429	0	0	
3	0	0	0	0	487	534	1021	440	0	0	
4	0	0	0	0	504	553	1021	454	0	0	
5	0	0	0	0	524	566	1021	472	0	0	
6	0	0	0	0	547	573	1021	490	0	0	
7	0	0	0	0	570	573	1020	508	0	0	
8	0	0	0	0	592	566	1021	524	0	0	
9	0	0	0	0	609	552	1021	535	0	0	
10	0	0	0	0	621	533	1021	542	0	0	
11	0	0	0	0	627	511	1021	543	0	0	
12	0	0	0	0	624	488	1021	538	0	0	
13	0	0	0	0	615	466	1020	527	0	0	
14	0	0	0	0	600	448	1021	513	0	0	
15	0	0	0	0	579	435	1021	496	0	0	
0	0	0	0	0	556	428	1021	478	0	0	
1	0	0	0	0	532	428	1021	460	0	0	
2	0	0	0	0	510	436	1021	444	0	0	
3	0	0	0	0	493	450	1021	432	0	0	
4	0	0	0	0	481	469	1021	425	0	0	
5	0	0	0	0	476	492	1021	424	0	0	
6	0	0	0	0	478	517	1020	428	0	0	
7	0	0	0	0	488	540	1021	439	0	0	
8	0	0	0	0	504	558	1021	453	0	0	
9	0	0	0	0	525	572	1021	470	0	0	
10	0	0	0	0	548	579	1021	488	0	0	
11	0	0	0	0	571	578	1021	506	0	0	
12	0	0	0	0	592	570	1021	520	0	0	
13	0	0	0	0	609	555	1021	531	0	0	
14	0	0	0	0	620	536	1021	538	0	0	
15	0	0	0	0	625	511	1021	538	0	0	
0	0	0	0	0	621	486	1021	532	0	0	
1	0	0	0	0	611	463	1021	520	0	0	
2	0	0	0	0	594	442	1021	504	0	0	
3	0	0	0	0	573	427	1021	487	0	0	
4	0	0	0	0	549	418	1021	467	0	0	
5	0	0	0	0	524	417	1021	447	0	0	
6	0	0	0	0	502	423	1021	431	0	0	
7	0	0	0	0	484	436	1021	418	0	0	
8	0	0	0	0	472	455	1021	411	0	0	
9	0	0	0	0	468	479	1021	411	0	0	
10	0	0	0	0	472	504	1020	416	0	0	
11	0	0	0	0	483	527	1021	428	0	0	
12	0	0	0	0	500	547	1021	443	0	0	
13	0	0	0	0	522	561	1021	462	0	0	
14	0	0	0	0	546	569	1021	481	0	0	
15	0	0	0	0	570	569	1020	499	0	0	
0	0	0	0	0	592	562	1021	516	0	0	
1	0	0	0	0	609	548	1021	528	0	0	
2	0	0	0	0	620	528	1021	535	0	0	
3	0	0	0	0	624	505	1021	535	0	0	
4	0	0	0	0	620	480	1021	528	0	0	
5	0	0	0	0	608	456	1021	517	0	0	
6	0	0	0	0	590	437	1021	501	0	0	
7	0	0	0	0	568	423	1021	483	0	0	
8	0	0	0	0	543	415	1021	464	0	0	
9	0	0	0	0	519	415	1021	446	0	0	
10	0	0	0	0	497	422	1020	430	0	0	
11	0	0	0	0	479	436	1021	418	0	0	
12	0	0	0	0	468	456	1021	412	0	0	
13	0	0	0	0	464	480	1021	412	0	0	
14	0	0	0	0	468	505	1020	419	0	0	
15	0	0	0	0	481	528	1021	431	0	0	
0	0	0	0	0	499	548	1021	447	0	0	
1	0	0	0	0	521	562	1021	465	0	0	
2	0	0	0	0	547	569	1021	485	0	0	
3	0	0	0	0	571	569	1021	504	0	0	
4	0	0	0	0	593	562	1021	519	0	0	
5	0	0	0	0	610	547	1021	531	0	0	
6	0	0	0	0	621	527	1021	536	0	0	
7	0	0	0	0	624	504	1021	536	0	0	
8	0	0	0	0	619	478	1021	529	0	0	
9	0	0	0	0	606	455	1021	515	0	0	
10	0	0	0	0	588	434	1021	499	0	0	
11	0	0	0	0	564	419	1021	480	0	0	
12	0	0	0	0	539	411	1021	460	0	0	
13	0	0	0	0	514	410	1020	440	0	0	
14	0	0	0	0	491	417	1020	423	0	0	
15	0	0	0	0	473	431	1021	411	0	0	
0	0	0	0	0	461	451	1021	403	0	0	
1	0	0	0	0	457	474	1021	402	0	0	
2	0	0	0	0	461	499	1020	407	0	0	
3	0	0	0	0	473	523	1020	418	0	0	
4	0	0	0	0	492	543	1021	433	0	0	
5	0	0	0	0	515	557	1021	452	0	0	
6	0	0	0	0	540	565	1021	471	0	0	
7	0	0	0	0	565	566	1021	489	0	0	
8	0	0	0	0	588	559	1021	506	0	0	
9	0	0	0	0	606	545	1021	518	0	0	
10	0	0	0	0	617	526	1021	526	0	0	
11	0	0	0	0	622	503	1021	526	0	0	
12	0	0	0	0	617	478	1020	519	0	0	
13	0	0	0	0	604	455	1021	508	0	0	
14	0	0	0	0	587	434	1021	492	0	0	
15	0	0	0	0	563	419	1021	474	0	0	
0	0	0	0	0	538	411	1021	454	0	0	
1	0	0	0	0	512	409	1021	434	0	0	
2	0	0	0	0	489	415	1021	418	0	0	
3	0	0	0	0	471	429	1021	406	0	0	
4	0	0	0	0	459	448	1021	400	0	0	
5	0	0	0	0	456	472	1021	400	0	0	
6	0	0	0	0	461	497	1021	406	0	0	
7	0	0	0	0	473	520	1021	419	0	0	
8	0	0	0	0	493	540	1021	435	0	0	
9	0	0	0	0	517	555	1021	455	0	0	
10	0	0	0	0	543	563	1021	475	0	0	
11	0	0	0	0	569	564	1021	495	0	0	
12	0	0	0	0	592	557	1021	511	0	0	
13	0	0	0	0	611	544	1021	523	0	0	
14	0	0	0	0	623	524	1021	530	0	0	
15	0	0	0	0	626	500	1021	529	0	0	
0	0	0	0	0	621	475	1021	523	0	0	
1	0	0	0	0	609	451	1021	510	0	0	
2	0	0	0	0	590	431	1021	493	0	0	
3	0	0	0	0	567	415	1021	473	0	0	
4	0	0	0	0	541	408	1021	453	0	0	
5	0	0	0	0	515	407	1021	434	0	0	
6	0	0	0	0	492	414	1021	417	0	0	
7	0	0	0	0	473	428	1021	406	0	0	
8	0	0	0	0	462	449	1021	400	0	0	
9	0	0	0	0	458	473	1021	400	0	0	
10	0	0	0	0	462	499	1021	408	0	0	
11	0	0	0	0	475	523	1021	420	0	0	
12	0	0	0	0	493	543	1021	436	0	0	
13	0	0	0	0	515	558	1021	455	0	0	
14	0	0	0	0	540	566	1021	475	0	0	
15	0	0	0	0	565	566	1021	493	0	0	
0	0	0	0	0	587	558	1021	509	0	0	
1	0	0	0	0	605	543	1021	521	0	0	
2	0	0	0	0	616	523	1021	527	0	0	
3	0	0	0	0	620	499	1021	527	0	0	
4	0	0	0	0	615	474	1021	521	0	0	
5	0	0	0	0	605	451	1021	510	0	0	
6	0	0	0	0	588	433	1021	494	0	0	
7	0	0	0	0	566	419	1021	477	0	0	
8	0	0	0	0	543	412	1021	458	0	0	
9	0	0	0	0	519	413	1021	441	0	0	
10	0	0	0	0	498	421	1021	425	0	0	
11	0	0	0	0	481	436	1021	415	0	0	
12	0	0	0	0	470	456	1021	409	0	0	
13	0	0	0	0	467	480	1021	410	0	0	
14	0	0	0	0	471	504	1021	416	0	0	
15	0	0	0	0	483	527	1021	428	0	0	
0	0	0	0	0	499	547	1021	443	0	0	
1	0	0	0	0	521	560	1021	461	0	0	
2	0	0	0	0	544	567	1021	479	0	0	
3	0	0	0	0	568	566	1021	497	0	0	
4	0	0	0	0	588	557	1021	512	0	0	
5	0	0	0	0	605	542	1021	523	0	0	
6	0	0	0	0	615	521	1021	528	0	0	
7	0	0	0	0	620	497	1021	527	0	0	
8	0	0	0	0	615	472	1021	521	0	0	
9	0	0	0	0	604	449	1021	510	0	0	
10	0	0	0	0	588	430	1021	495	0	0	
11	0	0	0	0	568	416	1021	477	0	0	
12	0	0	0	0	544	409	1021	459	0	0	
13	0	0	0	0	522	411	1020	442	0	0	
14	0	0	0	0	501	419	1021	427	0	0	
15	0	0	0	0	485	434	1021	416	0	0	
0	0	0	0	0	475	455	1021	412	0	0	
1	0	0	0	0	472	479	1021	412	0	0	
2	0	0	0	0	476	504	1021	417	0	0	
3	0	0	0	0	487	527	1021	430	0	0	
4	0	0	0	0	504	546	1021	445	0	0	
5	0	0	0	0	526	560	1021	463	0	0	
6	0	0	0	0	549	566	1021	481	0	0	
7	0	0	0	0	572	566	1020	499	0	0	
8	0	0	0	0	593	557	1021	514	0	0	
9	0	0	0	0	609	542	1021	525	0	0	
10	0	0	0	0	620	522	1021	531	0	0	
11	0	0	0	0	623	498	1021	530	0	0	
12	0	0	0	0	619	475	1021	524	0	0	
13	0	0	0	0	607	451	1021	513	0	0	
14	0	0	0	0	590	432	1021	498	0	0	
15	0	0	0	0	569	419	1021	481	0	0	
0	0	0	0	0	545	412	1021	462	0	0	
1	0	0	0	0	521	412	1020	443	0	0	
2	0	0	0	0	500	420	1021	428	0	0	
3	0	0	0	0	483	435	1021	415	0	0	
4	0	0	0	0	472	455	1021	409	0	0	
5	0	0	0	0	469	480	1021	409	0	0	
6	0	0	0	0	474	505	1020	415	0	0	
7	0	0	0	0	486	529	1021	427	0	0	
8	0	0	0	0	505	548	1021	444	0	0	
9	0	0	0	0	527	563	1021	463	0	0	
10	0	0	0	0	552	571	1021	483	0	0	
11	0	0	0	0	576	571	1021	503	0	0	
12	0	0	0	0	598	564	1021	519	0	0	
13	0	0	0	0	615	549	1021	531	0	0	
14	0	0	0	0	625	529	1021	538	0	0	
15	0	0	0	0	627	506	1021	537	0	0	
0	0	0	0	0	622	480	1021	531	0	0	
1	0	0	0	0	609	456	1021	519	0	0	
2	0	0	0	0	591	437	1021	502	0	0	
3	0	0	0	0	568	423	1021	483	0	0	
4	0	0	0	0	543	415	1021	464	0	0	
5	0	0	0	0	518	415	1020	445	0	0	
6	0	0	0	0	496	423	1021	430	0	0	
7	0	0	0	0	479	437	1021	418	0	0	
8	0	0	0	0	468	457	1021	413	0	0	
9	0	0	0	0	464	481	1021	413	0	0	
10	0	0	0	0	470	506	1021	419	0	0	
11	0	0	0	0	482	529	1021	432	0	0	
12	0	0	0	0	500	548	1021	448	0	0	
13	0	0	0	0	523	562	1021	467	0	0	
14	0	0	0	0	547	568	1021	486	0	0	
15	0	0	0	0	571	568	1021	504	0	0	
0	0	0	0	0	592	559	1021	519	0	0	
1	0	0	0	0	609	543	1021	530	0	0	
2	0	0	0	0	619	523	1021	535	0	0	
3	0	0	0	0	622	498	1021	534	0	0	
4	0	0	0	0	616	472	1021	526	0	0	
5	0	0	0	0	604	448	1021	512	0	0	
6	0	0	0	0	585	427	1021	495	0	0	
7	0	0	0	0	562	412	1021	476	0	0	
8	0	0	0	0	537	404	1021	455	0	0	
9	0	0	0	0	512	403	1020	435	0	0	
10	0	0	0	0	489	410	1020	419	0	0	
11	0	0	0	0	472	424	1021	408	0	0	
12	0	0	0	0	461	444	1021	401	0	0	
13	0	0	0	0	457	467	1021	401	0	0	
14	0	0	0	0	462	492	1021	408	0	0	
15	0	0	0	0	473	516	1021	419	0	0	
0	0	0	0	0	492	536	1021	435	0	0	
1	0	0	0	0	514	550	1021	454	0	0	
2	0	0	0	0	538	558	1021	473	0	0	
3	0	0	0	0	562	558	1021	491	0	0	
4	0	0	0	0	584	550	1021	507	0	0	
5	0	0	0	0	601	535	1021	518	0	0	
6	0	0	0	0	611	515	1021	524	0	0	
7	0	0	0	0	614	491	1021	524	0	0	
8	0	0	0	0	609	465	1021	517	0	0	
9	0	0	0	0	596	441	1021	505	0	0	
10	0	0	0	0	578	422	1021	489	0	0	
11	0	0	0	0	556	407	1021	472	0	0	
12	0	0	0	0	530	399	1021	451	0	0	
13	0	0	0	0	506	399	1021	434	0	0	
14	0	0	0	0	484	408	1021	418	0	0	
15	0	0	0	0	467	422	1021	406	0	0	
0	0	0	0	0	456	443	1021	400	0	0	
1	0	0	0	0	453	467	1021	399	0	0	
2	0	0	0	0	457	492	1020	405	0	0	
3	0	0	0	0	469	515	1021	416	0	0	
4	0	0	0	0	487	534	1021	432	0	0	
5	0	0	0	0	510	547	1021	450	0	0	
6	0	0	0	0	534	553	1021	468	0	0	
7	0	0	0	0	558	552	1021	486	0	0	
8	0	0	0	0	579	544	1021	502	0	0	
9	0	0	0	0	595	529	1021	513	0	0	
10	0	0	0	0	607	509	1021	520	0	0	
11	0	0	0	0	610	486	1021	520	0	0	
12	0	0	0	0	605	462	1020	514	0	0	
13	0	0	0	0	593	439	1020	503	0	0	
14	0	0	0	0	576	420	1021	487	0	0	
15	0	0	0	0	553	407	1021	469	0	0	
0	0	0	0	0	530	400	1021	451	0	0	
1	0	0	0	0	506	402	1021	433	0	0	
2	0	0	0	0	486	411	1021	419	0	0	
3	0	0	0	0	471	428	1021	409	0	0	
4	0	0	0	0	461	449	1021	406	0	0	
5	0	0	0	0	460	475	1021	408	0	0	
6	0	0	0	0	465	500	1021	415	0	0	
7	0	0	0	0	478	523	1021	427	0	0	
8	0	0	0	0	495	541	1021	441	0	0	
9	0	0	0	0	515	552	1021	458	0	0	
10	0	0	0	0	537	557	1021	474	0	0	
11	0	0	0	0	558	553	1021	489	0	0	
12	0	0	0	0	577	542	1021	501	0	0	
13	0	0	0	0	591	526	1021	508	0	0	
14	0	0	0	0	599	504	1021	511	0	0	
15	0	0	0	0	600	479	1021	508	0	0	
0	0	0	0	0	593	454	1021	500	0	0	
1	0	0	0	0	580	430	1021	487	0	0	
2	0	0	0	0	562	411	1021	471	0	0	
3	0	0	0	0	540	398	1021	452	0	0	
4	0	0	0	0	516	391	1021	433	0	0	
5	0	0	0	0	493	393	1021	416	0	0	
6	0	0	0	0	473	401	1021	402	0	0	
7	0	0	0	0	457	417	1021	392	0	0	
8	0	0	0	0	448	439	1021	388	0	0	
9	0	0	0	0	446	463	1021	390	0	0	
10	0	0	0	0	452	488	1021	397	0	0	
11	0	0	0	0	465	511	1021	410	0	0	
12	0	0	0	0	484	530	1021	427	0	0	
13	0	0	0	0	507	543	1021	446	0	0	
14	0	0	0	0	531	550	1021	465	0	0	
15	0	0	0	0	554	548	1021	483	0	0	
0	0	0	0	0	574	540	1021	498	0	0	
1	0	0	0	0	590	524	1021	509	0	0	
2	0	0	0	0	599	503	1021	514	0	0	
3	0	0	0	0	601	479	1021	513	0	0	
4	0	0	0	0	595	454	1021	505	0	0	
5	0	0	0	0	583	431	1021	493	0	0	
6	0	0	0	0	564	412	1021	477	0	0	
7	0	0	0	0	542	398	1021	458	0	0	
8	0	0	0	0	519	391	1021	439	0	0	
9	0	0	0	0	496	393	1021	422	0	0	
10	0	0	0	0	476	402	1021	407	0	0	
11	0	0	0	0	461	418	1021	397	0	0	
12	0	0	0	0	452	440	1021	392	0	0	
13	0	0	0	0	451	465	1021	394	0	0	
14	0	0	0	0	457	491	1020	401	0	0	
15	0	0	0	0	471	515	1021	414	0	0	
0	0	0	0	0	490	534	1021	431	0	0	
1	0	0	0	0	512	547	1021	450	0	0	
2	0	0	0	0	537	554	1021	469	0	0	
3	0	0	0	0	560	553	1020	487	0	0	
4	0	0	0	0	580	545	1021	502	0	0	
5	0	0	0	0	596	529	1021	513	0	0	
6	0	0	0	0	606	508	1021	518	0	0	
7	0	0	0	0	607	485	1021	516	0	0	
8	0	0	0	0	600	460	1021	509	0	0	
9	0	0	0	0	588	436	1021	497	0	0	
10	0	0	0	0	569	416	1021	481	0	0	
11	0	0	0	0	546	403	1021	463	0	0	
12	0	0	0	0	522	396	1021	443	0	0	
13	0	0	0	0	499	397	1021	426	0	0	
14	0	0	0	0	478	405	1021	412	0	0	
15	0	0	0	0	462	420	1021	402	0	0	
0	0	0	0	0	453	441	1021	398	0	0	
1	0	0	0	0	452	466	1021	399	0	0	
2	0	0	0	0	458	491	1020	408	0	0	
3	0	0	0	0	472	515	1020	421	0	0	
4	0	0	0	0	492	534	1021	438	0	0	
5	0	0	0	0	515	548	1021	457	0	0	
6	0	0	0	0	540	555	1021	477	0	0	
7	0	0	0	0	564	555	1020	495	0	0	
8	0	0	0	0	586	546	1021	511	0	0	
9	0	0	0	0	602	532	1021	521	0	0	
10	0	0	0	0	611	511	1021	526	0	0	
11	0	0	0	0	614	488	1021	525	0	0	
12	0	0	0	0	608	463	1021	517	0	0	
13	0	0	0	0	595	440	1021	504	0	0	
14	0	0	0	0	576	422	1021	487	0	0	
15	0	0	0	0	553	408	1021	468	0	0	
0	0	0	0	0	529	402	1021	449	0	0	
1	0	0	0	0	505	403	1021	431	0	0	
2	0	0	0	0	484	412	1021	416	0	0	
3	0	0	0	0	468	428	1021	406	0	0	
4	0	0	0	0	459	449	1021	401	0	0	
5	0	0	0	0	457	474	1021	403	0	0	
6	0	0	0	0	463	500	1020	411	0	0	
7	0	0	0	0	476	523	1020	423	0	0	
8	0	0	0	0	496	542	1021	441	0	0	
9	0	0	0	0	519	556	1021	460	0	0	
10	0	0	0	0	543	561	1021	480	0	0	
11	0	0	0	0	568	560	1021	498	0	0	
12	0	0	0	0	589	551	1021	513	0	0	
13	0	0	0	0	605	535	1021	523	0	0	
14	0	0	0	0	614	514	1021	527	0	0	
15	0	0	0	0	615	488	1021	524	0	0	
0	0	0	0	0	608	462	1020	514	0	0	
1	0	0	0	0	594	438	1021	499	0	0	
2	0	0	0	0	574	417	1021	481	0	0	
3	0	0	0	0	550	403	1021	461	0	0	
4	0	0	0	0	524	395	1021	440	0	0	
5	0	0	0	0	499	396	1021	422	0	0	
6	0	0	0	0	479	405	1021	408	0	0	
7	0	0	0	0	462	422	1021	399	0	0	
8	0	0	0	0	454	444	1021	396	0	0	
9	0	0	0	0	453	470	1021	399	0	0	
10	0	0	0	0	460	497	1020	409	0	0	
11	0	0	0	0	475	523	1021	425	0	0	
12	0	0	0	0	496	543	1021	444	0	0	
13	0	0	0	0	520	559	1021	465	0	0	
14	0	0	0	0	546	566	1021	485	0	0	
15	0	0	0	0	571	567	1021	504	0	0	
0	0	0	0	0	593	559	1021	520	0	0	
1	0	0	0	0	609	543	1021	531	0	0	
2	0	0	0	0	619	523	1021	536	0	0	
3	0	0	0	0	621	499	1021	534	0	0	
4	0	0	0	0	615	475	1021	526	0	0	
5	0	0	0	0	601	451	1021	513	0	0	
6	0	0	0	0	582	433	1021	496	0	0	
7	0	0	0	0	558	419	1021	477	0	0	
8	0	0	0	0	533	413	1021	457	0	0	
9	0	0	0	0	508	414	1021	439	0	0	
10	0	0	0	0	486	422	1021	423	0	0	
11	0	0	0	0	469	437	1021	412	0	0	
12	0	0	0	0	459	457	1021	406	0	0	
13	0	0	0	0	455	480	1021	407	0	0	
14	0	0	0	0	461	504	1021	413	0	0	
15	0	0	0	0	473	525	1021	424	0	0	
0	0	0	0	0	492	542	1021	439	0	0	
1	0	0	0	0	514	554	1021	456	0	0	
2	0	0	0	0	538	559	1021	475	0	0	
3	0	0	0	0	561	556	1021	492	0	0	
4	0	0	0	0	582	546	1021	505	0	0	
5	0	0	0	0	599	529	1021	515	0	0	
6	0	0	0	0	608	508	1021	519	0	0	
7	0	0	0	0	610	483	1021	516	0	0	
8	0	0	0	0	604	459	1021	509	0	0	
9	0	0	0	0	591	436	1020	496	0	0	
10	0	0	0	0	573	417	1021	479	0	0	
11	0	0	0	0	550	404	1021	461	0	0	
12	0	0	0	0	526	399	1021	442	0	0	
13	0	0	0	0	502	400	1020	424	0	0	
14	0	0	0	0	480	409	1020	410	0	0	
15	0	0	0	0	464	424	1021	400	0	0	
0	0	0	0	0	454	445	1021	396	0	0	
1	0	0	0	0	451	469	1021	397	0	0	
2	0	0	0	0	455	494	1020	405	0	0	
3	0	0	0	0	468	516	1020	418	0	0	
4	0	0	0	0	486	534	1021	435	0	0	
5	0	0	0	0	508	547	1021	454	0	0	
6	0	0	0	0	531	552	1021	473	0	0	
7	0	0	0	0	555	550	1021	490	0	0	
8	0	0	0	0	575	540	1021	504	0	0	
9	0	0	0	0	591	524	1021	515	0	0	
10	0	0	0	0	600	503	1021	519	0	0	
11	0	0	0	0	602	479	1021	518	0	0	
12	0	0	0	0	596	454	1021	510	0	0	
13	0	0	0	0	584	432	1021	497	0	0	
14	0	0	0	0	566	413	1021	481	0	0	
15	0	0	0	0	543	401	1021	462	0	0	
0	0	0	0	0	519	395	1021	443	0	0	
1	0	0	0	0	495	398	1020	425	0	0	
2	0	0	0	0	474	408	1020	410	0	0	
3	0	0	0	0	459	424	1021	400	0	0	
4	0	0	0	0	450	446	1021	396	0	0	
5	0	0	0	0	449	471	1021	397	0	0	
6	0	0	0	0	456	497	1020	405	0	0	
7	0	0	0	0	471	520	1021	419	0	0	
8	0	0	0	0	492	539	1021	436	0	0	
9	0	0	0	0	516	552	1021	456	0	0	
10	0	0	0	0	542	559	1021	476	0	0	
11	0	0	0	0	568	557	1020	495	0	0	
12	0	0	0	0	589	548	1020	510	0	0	
13	0	0	0	0	606	532	1021	521	0	0	
14	0	0	0	0	615	511	1021	526	0	0	
15	0	0	0	0	617	487	1021	524	0	0	
0	0	0	0	0	610	462	1021	516	0	0	
1	0	0	0	0	596	440	1021	503	0	0	
2	0	0	0	0	576	420	1021	486	0	0	
3	0	0	0	0	552	407	1021	466	0	0	
4	0	0	0	0	526	401	1021	446	0	0	
5	0	0	0	0	502	402	1021	427	0	0	
6	0	0	0	0	479	411	1021	411	0	0	
7	0	0	0	0	463	427	1021	400	0	0	
8	0	0	0	0	452	447	1021	395	0	0	
9	0	0	0	0	450	472	1021	397	0	0	
10	0	0	0	0	455	496	1021	404	0	0	
11	0	0	0	0	469	518	1021	417	0	0	
12	0	0	0	0	489	536	1021	433	0	0	
13	0	0	0	0	512	548	1021	452	0	0	
14	0	0	0	0	538	553	1021	472	0	0	
15	0	0	0	0	562	550	1021	490	0	0	
0	0	0	0	0	583	540	1021	504	0	0	
1	0	0	0	0	601	523	1021	515	0	0	
2	0	0	0	0	611	502	1021	520	0	0	
3	0	0	0	0	613	477	1021	519	0	0	
4	0	0	0	0	607	452	1020	511	0	0	
5	0	0	0	0	594	429	1021	499	0	0	
6	0	0	0	0	575	410	1021	483	0	0	
7	0	0	0	0	552	397	1021	464	0	0	
8	0	0	0	0	527	391	1021	445	0	0	
9	0	0	0	0	502	393	1021	428	0	0	
10	0	0	0	0	481	403	1021	413	0	0	
11	0	0	0	0	464	420	1021	403	0	0	
12	0	0	0	0	454	443	1021	399	0	0	
13	0	0	0	0	452	469	1021	401	0	0	
14	0	0	0	0	458	496	1021	409	0	0	
15	0	0	0	0	471	520	1021	423	0	0	
0	0	0	0	0	491	541	1021	441	0	0	
1	0	0	0	0	515	555	1021	461	0	0	
2	0	0	0	0	540	562	1021	481	0	0	
3	0	0	0	0	564	562	1021	500	0	0	
4	0	0	0	0	586	554	1020	515	0	0	
5	0	0	0	0	604	539	1021	527	0	0	
6	0	0	0	0	614	518	1021	532	0	0	
7	0	0	0	0	615	494	1021	530	0	0	
8	0	0	0	0	609	469	1021	523	0	0	
9	0	0	0	0	596	445	1021	509	0	0	
10	0	0	0	0	577	425	1021	492	0	0	
11	0	0	0	0	552	411	1021	471	0	0	
12	0	0	0	0	525	402	1021	449	0	0	
13	0	0	0	0	498	400	1021	428	0	0	
14	0	0	0	0	473	405	1021	408	0	0	
15	0	0	0	0	451	415	1021	391	0	0	
0	0	0	0	0	435	431	1021	380	0	0	
1	0	0	0	0	426	448	1021	374	0	0	
2	0	0	0	0	423	465	1021	372	0	0	
3	0	0	0	0	428	479	1021	376	0	0	
4	0	0	0	0	437	487	1021	382	0	0	
5	0	0	0	0	449	489	1021	390	0	0	
6	0	0	0	0	463	484	1021	398	0	0	
7	0	0	0	0	476	471	1021	405	0	0	
8	0	0	0	0	486	451	1021	409	0	0	
9	0	0	0	0	490	423	1021	408	0	0	
10	0	0	0	0	488	391	1021	401	0	0	
11	0	0	0	0	478	356	1021	388	0	0	
12	0	0	0	0	460	320	1021	369	0	0	
13	0	0	0	0	435	285	1021	344	0	0	
14	0	0	0	0	404	255	1021	316	0	0	
15	0	0	0	0	370	230	1021	286	0	0	
0	0	0	0	0	334	211	1021	254	0	0	
1	0	0	0	0	297	200	1021	223	0	0	
2	0	0	0	0	265	198	1021	196	0	0	
3	0	0	0	0	238	203	1021	174	0	0	
4	0	0	0	0	218	216	1021	159	0	0	
5	0	0	0	0	208	235	1021	153	0	0	
6	0	0	0	0	209	257	1021	156	0	0	
7	0	0	0	0	222	280	1021	167	0	0	
8	0	0	0	0	244	303	1021	188	0	0	
9	0	0	0	0	275	323	1021	214	0	0	
10	0	0	0	0	312	340	1021	246	0	0	
11	0	0	0	0	353	352	1021	280	0	0	
12	0	0	0	0	396	359	1021	315	0	0	
13	0	0	0	0	437	363	1021	349	0	0	
14	0	0	0	0	473	362	1021	379	0	0	
15	0	0	0	0	503	359	1021	403	0	0	
0	0	0	0	0	524	356	1021	422	0	0	
1	0	0	0	0	536	354	1021	434	0	0	
2	0	0	0	0	542	356	1021	440	0	0	
3	0	0	0	0	539	362	1021	441	0	0	
4	0	0	0	0	531	373	1021	439	0	0	
5	0	0	0	0	521	390	1021	435	0	0	
6	0	0	0	0	510	412	1021	431	0	0	
7	0	0	0	0	500	439	1021	428	0	0	
8	0	0	0	0	494	468	1021	428	0	0	
9	0	0	0	0	493	499	1021	432	0	0	
10	0	0	0	0	497	528	1021	439	0	0	
11	0	0	0	0	506	553	1021	450	0	0	
12	0	0	0	0	520	571	1021	463	0	0	
13	0	0	0	0	536	581	1021	477	0	0	
14	0	0	0	0	554	583	1021	492	0	0	
15	0	0	0	0	571	577	1021	505	0	0	
0	0	0	0	0	587	563	1021	516	0	0	
1	0	0	0	0	598	542	1021	524	0	0	
2	0	0	0	0	604	516	1021	527	0	0	
3	0	0	0	0	605	488	1021	525	0	0	
4	0	0	0	0	599	460	1021	518	0	0	
5	0	0	0	0	588	435	1021	506	0	0	
6	0	0	0	0	571	416	1021	491	0	0	
7	0	0	0	0	551	403	1021	474	0	0	
8	0	0	0	0	530	398	1021	456	0	0	
9	0	0	0	0	509	400	1021	440	0	0	
10	0	0	0	0	491	411	1021	425	0	0	
11	0	0	0	0	478	428	1021	416	0	0	
12	0	0	0	0	470	452	1021	413	0	0	
13	0	0	0	0	470	480	1021	415	0	0	
14	0	0	0	0	478	507	1021	425	0	0	
15	0	0	0	0	493	533	1021	440	0	0	
0	0	0	0	0	513	553	1021	457	0	0	
1	0	0	0	0	536	568	1021	478	0	0	
2	0	0	0	0	560	575	1021	498	0	0	
3	0	0	0	0	583	574	1020	515	0	0	
4	0	0	0	0	603	565	1020	530	0	0	
5	0	0	0	0	617	548	1021	540	0	0	
6	0	0	0	0	625	527	1021	544	0	0	
7	0	0	0	0	626	502	1021	542	0	0	
8	0	0	0	0	619	476	1021	534	0	0	
9	0	0	0	0	605	453	1021	520	0	0	
10	0	0	0	0	587	434	1021	504	0	0	
11	0	0	0	0	564	421	1021	486	0	0	
12	0	0	0	0	541	415	1021	467	0	0	
13	0	0	0	0	518	417	1021	450	0	0	
14	0	0	0	0	499	427	1021	436	0	0	
15	0	0	0	0	483	444	1021	426	0	0	
0	0	0	0	0	475	465	1021	423	0	0	
1	0	0	0	0	475	490	1021	424	0	0	
2	0	0	0	0	481	515	1021	433	0	0	
3	0	0	0	0	496	539	1021	446	0	0	
4	0	0	0	0	515	557	1021	462	0	0	
5	0	0	0	0	538	571	1021	481	0	0	
6	0	0	0	0	562	576	1021	500	0	0	
7	0	0	0	0	586	574	1021	517	0	0	
8	0	0	0	0	606	565	1021	531	0	0	
9	0	0	0	0	620	548	1021	540	0	0	
10	0	0	0	0	629	527	1021	545	0	0	
11	0	0	0	0	630	503	1021	542	0	0	
12	0	0	0	0	623	478	1021	534	0	0	
13	0	0	0	0	609	455	1021	521	0	0	
14	0	0	0	0	590	436	1021	504	0	0	
15	0	0	0	0	566	423	1021	485	0	0	
0	0	0	0	0	542	418	1021	466	0	0	
1	0	0	0	0	518	419	1021	448	0	0	
2	0	0	0	0	497	429	1020	433	0	0	
3	0	0	0	0	481	445	1021	424	0	0	
4	0	0	0	0	472	467	1021	420	0	0	
5	0	0	0	0	472	492	1021	422	0	0	
6	0	0	0	0	479	518	1020	430	0	0	
7	0	0	0	0	493	540	1021	443	0	0	
8	0	0	0	0	513	559	1021	459	0	0	
9	0	0	0	0	536	571	1021	478	0	0	
10	0	0	0	0	561	576	1021	498	0	0	
11	0	0	0	0	585	574	1021	515	0	0	
12	0	0	0	0	606	564	1020	529	0	0	
13	0	0	0	0	622	547	1021	540	0	0	
14	0	0	0	0	630	525	1021	543	0	0	
15	0	0	0	0	630	500	1021	541	0	0	
0	0	0	0	0	623	475	1021	532	0	0	
1	0	0	0	0	608	451	1020	519	0	0	
2	0	0	0	0	588	432	1021	502	0	0	
3	0	0	0	0	563	419	1021	483	0	0	
4	0	0	0	0	537	413	1021	463	0	0	
5	0	0	0	0	512	415	1020	445	0	0	
6	0	0	0	0	491	425	1020	430	0	0	
7	0	0	0	0	475	441	1021	420	0	0	
8	0	0	0	0	467	463	1021	416	0	0	
9	0	0	0	0	465	488	1021	418	0	0	
10	0	0	0	0	473	515	1021	426	0	0	
11	0	0	0	0	487	538	1020	439	0	0	
12	0	0	0	0	508	556	1021	456	0	0	
13	0	0	0	0	531	569	1021	475	0	0	
14	0	0	0	0	556	574	1021	493	0	0	
15	0	0	0	0	580	571	1021	509	0	0	
0	0	0	0	0	600	561	1021	523	0	0	
1	0	0	0	0	615	544	1021	531	0	0	
2	0	0	0	0	624	522	1021	535	0	0	
3	0	0	0	0	624	496	1021	531	0	0	
4	0	0	0	0	616	471	1020	521	0	0	
5	0	0	0	0	602	447	1020	508	0	0	
6	0	0	0	0	582	427	1021	491	0	0	
7	0	0	0	0	559	415	1021	472	0	0	
8	0	0	0	0	534	409	1021	453	0	0	
9	0	0	0	0	510	411	1021	435	0	0	
10	0	0	0	0	490	421	1021	422	0	0	
11	0	0	0	0	476	438	1021	414	0	0	
12	0	0	0	0	468	462	1021	412	0	0	
13	0	0	0	0	468	488	1021	417	0	0	
14	0	0	0	0	476	515	1021	428	0	0	
15	0	0	0	0	491	539	1021	443	0	0	
0	0	0	0	0	512	558	1021	461	0	0	
1	0	0	0	0	535	571	1021	481	0	0	
2	0	0	0	0	558	575	1021	500	0	0	
3	0	0	0	0	580	572	1020	517	0	0	
4	0	0	0	0	598	561	1020	529	0	0	
5	0	0	0	0	611	543	1021	537	0	0	
6	0	0	0	0	616	519	1021	539	0	0	
7	0	0	0	0	615	493	1021	533	0	0	
8	0	0	0	0	605	466	1021	522	0	0	
9	0	0	0	0	588	442	1021	505	0	0	
10	0	0	0	0	567	422	1021	486	0	0	
11	0	0	0	0	542	408	1021	465	0	0	
12	0	0	0	0	516	401	1021	444	0	0	
13	0	0	0	0	492	402	1021	425	0	0	
14	0	0	0	0	471	411	1021	410	0	0	
15	0	0	0	0	456	427	1021	400	0	0	
0	0	0	0	0	449	449	1021	397	0	0	
1	0	0	0	0	449	474	1021	400	0	0	
2	0	0	0	0	458	499	1020	409	0	0	
3	0	0	0	0	473	523	1020	424	0	0	
4	0	0	0	0	494	541	1021	443	0	0	
5	0	0	0	0	519	554	1021	463	0	0	
6	0	0	0	0	544	559	1021	483	0	0	
7	0	0	0	0	568	557	1020	501	0	0	
8	0	0	0	0	589	546	1021	516	0	0	
9	0	0	0	0	604	529	1021	526	0	0	
10	0	0	0	0	611	508	1021	529	0	0	
11	0	0	0	0	611	483	1021	526	0	0	
12	0	0	0	0	603	457	1021	516	0	0	
13	0	0	0	0	588	433	1021	501	0	0	
14	0	0	0	0	567	414	1021	483	0	0	
15	0	0	0	0	542	400	1021	462	0	0	
0	0	0	0	0	516	395	1021	442	0	0	
1	0	0	0	0	492	397	1021	423	0	0	
2	0	0	0	0	470	407	1020	408	0	0	
3	0	0	0	0	455	424	1021	399	0	0	
4	0	0	0	0	447	446	1021	396	0	0	
5	0	0	0	0	447	472	1021	400	0	0	
6	0	0	0	0	454	497	1020	409	0	0	
7	0	0	0	0	470	520	1021	424	0	0	
8	0	0	0	0	490	539	1021	441	0	0	
9	0	0	0	0	513	551	1021	461	0	0	
10	0	0	0	0	538	555	1021	481	0	0	
11	0	0	0	0	561	552	1021	499	0	0	
12	0	0	0	0	582	541	1021	513	0	0	
13	0	0	0	0	597	524	1021	523	0	0	
14	0	0	0	0	605	502	1021	527	0	0	
15	0	0	0	0	605	477	1021	524	0	0	
0	0	0	0	0	598	451	1021	516	0	0	
1	0	0	0	0	583	429	1020	503	0	0	
2	0	0	0	0	564	411	1021	487	0	0	
3	0	0	0	0	541	399	1021	468	0	0	
4	0	0	0	0	517	395	1021	450	0	0	
5	0	0	0	0	494	398	1020	432	0	0	
6	0	0	0	0	473	409	1020	418	0	0	
7	0	0	0	0	459	427	1021	409	0	0	
8	0	0	0	0	451	449	1021	405	0	0	
9	0	0	0	0	450	474	1021	407	0	0	
10	0	0	0	0	457	500	1020	415	0	0	
11	0	0	0	0	472	523	1020	427	0	0	
12	0	0	0	0	492	540	1021	443	0	0	
13	0	0	0	0	515	551	1021	462	0	0	
14	0	0	0	0	539	556	1021	480	0	0	
15	0	0	0	0	562	552	1021	497	0	0	
0	0	0	0	0	582	541	1021	511	0	0	
1	0	0	0	0	597	524	1021	520	0	0	
2	0	0	0	0	605	501	1021	524	0	0	
3	0	0	0	0	606	476	1021	522	0	0	
4	0	0	0	0	599	451	1020	513	0	0	
5	0	0	0	0	584	428	1020	500	0	0	
6	0	0	0	0	566	409	1021	484	0	0	
7	0	0	0	0	542	398	1021	466	0	0	
8	0	0	0	0	518	392	1021	447	0	0	
9	0	0	0	0	495	395	1021	429	0	0	
10	0	0	0	0	474	404	1021	415	0	0	
11	0	0	0	0	460	421	1021	404	0	0	
12	0	0	0	0	451	443	1021	400	0	0	
13	0	0	0	0	450	467	1021	402	0	0	
14	0	0	0	0	457	492	1021	410	0	0	
15	0	0	0	0	472	514	1020	423	0	0	
0	0	0	0	0	491	531	1021	440	0	0	
1	0	0	0	0	513	542	1021	458	0	0	
2	0	0	0	0	537	546	1021	476	0	0	
3	0	0	0	0	560	543	1020	492	0	0	
4	0	0	0	0	579	532	1020	505	0	0	
5	0	0	0	0	593	515	1021	515	0	0	
6	0	0	0	0	601	494	1021	518	0	0	
7	0	0	0	0	601	470	1021	515	0	0	
8	0	0	0	0	594	445	1021	507	0	0	
9	0	0	0	0	581	423	1021	494	0	0	
10	0	0	0	0	562	406	1021	477	0	0	
11	0	0	0	0	540	395	1021	459	0	0	
12	0	0	0	0	516	391	1021	440	0	0	
13	0	0	0	0	494	394	1021	423	0	0	
14	0	0	0	0	473	404	1021	409	0	0	
15	0	0	0	0	459	421	1021	399	0	0	
0	0	0	0	0	450	443	1021	396	0	0	
1	0	0	0	0	449	468	1021	398	0	0	
2	0	0	0	0	455	492	1020	406	0	0	
3	0	0	0	0	469	514	1020	418	0	0	
4	0	0	0	0	488	531	1021	435	0	0	
5	0	0	0	0	510	543	1021	453	0	0	
6	0	0	0	0	534	547	1021	472	0	0	
7	0	0	0	0	557	543	1021	489	0	0	
8	0	0	0	0	577	533	1021	504	0	0	
9	0	0	0	0	592	516	1021	514	0	0	
10	0	0	0	0	601	495	1021	519	0	0	
11	0	0	0	0	602	471	1021	518	0	0	
12	0	0	0	0	596	447	1020	511	0	0	
13	0	0	0	0	583	426	1021	499	0	0	
14	0	0	0	0	565	409	1021	484	0	0	
15	0	0	0	0	542	398	1021	467	0	0	
0	0	0	0	0	518	394	1021	449	0	0	
1	0	0	0	0	495	399	1021	432	0	0	
2	0	0	0	0	474	409	1020	419	0	0	
3	0	0	0	0	459	427	1021	410	0	0	
4	0	0	0	0	450	449	1021	407	0	0	
5	0	0	0	0	449	474	1021	409	0	0	
6	0	0	0	0	456	499	1020	417	0	0	
7	0	0	0	0	470	522	1021	430	0	0	
8	0	0	0	0	489	539	1021	446	0	0	
9	0	0	0	0	512	550	1021	463	0	0	
10	0	0	0	0	536	554	1021	481	0	0	
11	0	0	0	0	560	550	1020	497	0	0	
12	0	0	0	0	579	539	1020	510	0	0	
13	0	0	0	0	595	522	1021	519	0	0	
14	0	0	0	0	604	500	1021	522	0	0	
15	0	0	0	0	605	476	1021	520	0	0	
0	0	0	0	0	599	452	1021	512	0	0	
1	0	0	0	0	586	430	1021	499	0	0	
2	0	0	0	0	567	413	1021	483	0	0	
3	0	0	0	0	545	402	1021	465	0	0	
4	0	0	0	0	521	398	1021	446	0	0	
5	0	0	0	0	499	402	1021	429	0	0	
6	0	0	0	0	478	413	1021	415	0	0	
7	0	0	0	0	463	431	1021	406	0	0	
8	0	0	0	0	455	453	1021	403	0	0	
9	0	0	0	0	454	478	1021	406	0	0	
10	0	0	0	0	461	504	1021	415	0	0	
11	0	0	0	0	476	526	1021	429	0	0	
12	0	0	0	0	495	544	1021	446	0	0	
13	0	0	0	0	518	556	1021	465	0	0	
14	0	0	0	0	542	560	1021	484	0	0	
15	0	0	0	0	565	557	1020	502	0	0	
0	0	0	0	0	584	545	1021	515	0	0	
1	0	0	0	0	599	528	1021	524	0	0	
2	0	0	0	0	607	506	1021	527	0	0	
3	0	0	0	0	607	481	1021	524	0	0	
4	0	0	0	0	600	456	1021	515	0	0	
5	0	0	0	0	585	434	1021	502	0	0	
6	0	0	0	0	567	416	1021	485	0	0	
7	0	0	0	0	543	404	1021	467	0	0	
8	0	0	0	0	520	400	1021	449	0	0	
9	0	0	0	0	497	403	1021	432	0	0	
10	0	0	0	0	478	415	1020	419	0	0	
11	0	0	0	0	464	433	1021	410	0	0	
12	0	0	0	0	457	456	1021	408	0	0	
13	0	0	0	0	458	481	1021	411	0	0	
14	0	0	0	0	466	507	1020	420	0	0	
15	0	0	0	0	481	530	1021	434	0	0	
0	0	0	0	0	500	547	1021	450	0	0	
1	0	0	0	0	523	559	1021	468	0	0	
2	0	0	0	0	547	562	1021	487	0	0	
3	0	0	0	0	569	558	1021	504	0	0	
4	0	0	0	0	588	547	1020	516	0	0	
5	0	0	0	0	603	529	1021	526	0	0	
6	0	0	0	0	611	507	1021	530	0	0	
7	0	0	0	0	611	482	1021	527	0	0	
8	0	0	0	0	604	458	1021	520	0	0	
9	0	0	0	0	590	436	1020	508	0	0	
10	0	0	0	0	572	418	1021	492	0	0	
11	0	0	0	0	550	407	1021	475	0	0	
12	0	0	0	0	526	403	1021	456	0	0	
13	0	0	0	0	503	407	1021	440	0	0	
14	0	0	0	0	483	417	1020	427	0	0	
15	0	0	0	0	469	433	1021	417	0	0	
0	0	0	0	0	460	455	1021	413	0	0	
1	0	0	0	0	459	479	1021	414	0	0	
2	0	0	0	0	465	502	1020	420	0	0	
3	0	0	0	0	479	523	1020	432	0	0	
4	0	0	0	0	498	538	1021	447	0	0	
5	0	0	0	0	519	548	1021	465	0	0	
6	0	0	0	0	543	551	1021	482	0	0	
7	0	0	0	0	565	547	1020	497	0	0	
8	0	0	0	0	583	535	1021	511	0	0	
9	0	0	0	0	598	517	1021	519	0	0	
10	0	0	0	0	605	496	1021	522	0	0	
11	0	0	0	0	605	471	1021	518	0	0	
12	0	0	0	0	597	447	1021	508	0	0	
13	0	0	0	0	582	425	1020	494	0	0	
14	0	0	0	0	562	408	1021	477	0	0	
15	0	0	0	0	538	397	1021	458	0	0	
0	0	0	0	0	514	394	1021	439	0	0	
1	0	0	0	0	491	398	1021	423	0	0	
2	0	0	0	0	471	411	1020	409	0	0	
3	0	0	0	0	458	429	1021	402	0	0	
4	0	0	0	0	451	453	1021	400	0	0	
5	0	0	0	0	453	479	1021	406	0	0	
6	0	0	0	0	462	505	1020	416	0	0	
7	0	0	0	0	479	528	1021	432	0	0	
8	0	0	0	0	501	547	1021	451	0	0	
9	0	0	0	0	526	559	1021	472	0	0	
10	0	0	0	0	551	563	1021	492	0	0	
11	0	0	0	0	575	559	1021	510	0	0	
12	0	0	0	0	595	548	1021	524	0	0	
13	0	0	0	0	609	531	1021	533	0	0	
14	0	0	0	0	616	508	1021	535	0	0	
15	0	0	0	0	615	483	1021	531	0	0	
0	0	0	0	0	606	457	1021	521	0	0	
1	0	0	0	0	590	435	1021	505	0	0	
2	0	0	0	0	568	416	1021	487	0	0	
3	0	0	0	0	543	404	1021	467	0	0	
4	0	0	0	0	516	399	1021	446	0	0	
5	0	0	0	0	492	401	1021	427	0	0	
6	0	0	0	0	470	411	1021	412	0	0	
7	0	0	0	0	454	428	1021	402	0	0	
8	0	0	0	0	446	449	1021	398	0	0	
9	0	0	0	0	445	474	1021	400	0	0	
10	0	0	0	0	452	498	1021	408	0	0	
11	0	0	0	0	467	520	1021	422	0	0	
12	0	0	0	0	488	537	1021	440	0	0	
13	0	0	0	0	511	548	1021	460	0	0	
14	0	0	0	0	536	552	1021	479	0	0	
15	0	0	0	0	560	548	1021	497	0	0	
0	0	0	0	0	581	537	1021	512	0	0	
1	0	0	0	0	596	520	1021	523	0	0	
2	0	0	0	0	605	498	1021	527	0	0	
3	0	0	0	0	606	474	1021	524	0	0	
4	0	0	0	0	599	450	1021	516	0	0	
5	0	0	0	0	586	429	1021	503	0	0	
6	0	0	0	0	567	412	1021	487	0	0	
7	0	0	0	0	545	402	1021	468	0	0	
8	0	0	0	0	521	399	1021	450	0	0	
9	0	0	0	0	498	403	1021	433	0	0	
10	0	0	0	0	478	415	1021	419	0	0	
11	0	0	0	0	463	432	1021	410	0	0	
12	0	0	0	0	454	454	1021	406	0	0	
13	0	0	0	0	453	478	1021	408	0	0	
14	0	0	0	0	460	501	1021	416	0	0	
15	0	0	0	0	473	521	1021	429	0	0	
0	0	0	0	0	492	537	1021	445	0	0	
1	0	0	0	0	513	547	1021	463	0	0	
2	0	0	0	0	536	549	1021	480	0	0	
3	0	0	0	0	558	544	1021	497	0	0	
4	0	0	0	0	577	532	1021	510	0	0	
5	0	0	0	0	591	515	1021	518	0	0	
6	0	0	0	0	598	492	1021	520	0	0	
7	0	0	0	0	598	468	1021	517	0	0	
8	0	0	0	0	591	444	1021	508	0	0	
9	0	0	0	0	577	423	1021	495	0	0	
10	0	0	0	0	559	406	1021	477	0	0	
11	0	0	0	0	536	395	1021	459	0	0	
12	0	0	0	0	513	391	1021	440	0	0	
13	0	0	0	0	490	396	1021	423	0	0	
14	0	0	0	0	471	406	1021	410	0	0	
15	0	0	0	0	456	423	1021	401	0	0	
0	0	0	0	0	448	446	1021	398	0	0	
1	0	0	0	0	448	469	1021	401	0	0	
2	0	0	0	0	455	493	1021	411	0	0	
3	0	0	0	0	469	514	1021	425	0	0	
4	0	0	0	0	488	530	1021	442	0	0	
5	0	0	0	0	510	541	1021	461	0	0	
6	0	0	0	0	533	544	1021	480	0	0	
7	0	0	0	0	555	540	1021	497	0	0	
8	0	0	0	0	574	529	1021	510	0	0	
9	0	0	0	0	588	512	1021	519	0	0	
10	0	0	0	0	595	491	1021	521	0	0	
11	0	0	0	0	594	467	1021	517	0	0	
12	0	0	0	0	586	442	1021	507	0	0	
13	0	0	0	0	571	421	1021	492	0	0	
14	0	0	0	0	551	403	1021	475	0	0	
15	0	0	0	0	527	391	1021	455	0	0	
0	0	0	0	0	504	387	1021	435	0	0	
1	0	0	0	0	481	391	1021	418	0	0	
2	0	0	0	0	463	401	1021	404	0	0	
3	0	0	0	0	449	419	1021	396	0	0	
4	0	0	0	0	443	442	1021	394	0	0	
5	0	0	0	0	444	468	1021	399	0	0	
6	0	0	0	0	454	493	1021	409	0	0	
7	0	0	0	0	470	516	1021	425	0	0	
8	0	0	0	0	491	534	1021	444	0	0	
9	0	0	0	0	515	545	1021	464	0	0	
10	0	0	0	0	539	549	1021	483	0	0	
11	0	0	0	0	561	546	1021	501	0	0	
12	0	0	0	0	581	535	1021	515	0	0	
13	0	0	0	0	595	517	1021	525	0	0	
14	0	0	0	0	601	495	1021	528	0	0	
15	0	0	0	0	601	471	1021	525	0	0	
0	0	0	0	0	592	447	1021	516	0	0	
1	0	0	0	0	578	424	1021	502	0	0	
2	0	0	0	0	558	407	1021	485	0	0	
3	0	0	0	0	535	396	1021	466	0	0	
4	0	0	0	0	510	392	1021	447	0	0	
5	0	0	0	0	487	396	1021	430	0	0	
6	0	0	0	0	468	406	1021	416	0	0	
7	0	0	0	0	454	423	1021	408	0	0	
8	0	0	0	0	446	446	1021	405	0	0	
9	0	0	0	0	447	470	1021	408	0	0	
10	0	0	0	0	455	495	1021	417	0	0	
11	0	0	0	0	469	515	1021	431	0	0	
12	0	0	0	0	490	532	1021	448	0	0	
13	0	0	0	0	512	543	1021	466	0	0	
14	0	0	0	0	536	546	1021	484	0	0	
15	0	0	0	0	559	542	1021	500	0	0	
0	0	0	0	0	578	530	1021	513	0	0	
1	0	0	0	0	592	513	1021	521	0	0	
2	0	0	0	0	599	491	1021	523	0	0	
3	0	0	0	0	598	467	1021	519	0	0	
4	0	0	0	0	590	442	1021	510	0	0	
5	0	0	0	0	575	421	1021	497	0	0	
6	0	0	0	0	557	404	1021	480	0	0	
7	0	0	0	0	534	394	1021	462	0	0	
8	0	0	0	0	510	391	1021	444	0	0	
9	0	0	0	0	488	396	1021	428	0	0	
10	0	0	0	0	470	407	1021	415	0	0	
11	0	0	0	0	456	425	1021	407	0	0	
12	0	0	0	0	450	448	1021	404	0	0	
13	0	0	0	0	451	472	1021	408	0	0	
14	0	0	0	0	459	496	1021	417	0	0	
15	0	0	0	0	473	519	1021	431	0	0	
0	0	0	0	0	494	535	1021	449	0	0	
1	0	0	0	0	517	545	1021	468	0	0	
2	0	0	0	0	540	548	1021	487	0	0	
3	0	0	0	0	563	544	1020	504	0	0	
4	0	0	0	0	581	532	1020	517	0	0	
5	0	0	0	0	595	515	1021	526	0	0	
6	0	0	0	0	601	492	1021	528	0	0	
7	0	0	0	0	600	468	1021	524	0	0	
8	0	0	0	0	591	443	1021	514	0	0	
9	0	0	0	0	575	422	1021	499	0	0	
10	0	0	0	0	555	404	1021	480	0	0	
11	0	0	0	0	532	394	1021	461	0	0	
12	0	0	0	0	508	391	1021	442	0	0	
13	0	0	0	0	485	395	1021	425	0	0	
14	0	0	0	0	466	406	1021	411	0	0	
15	0	0	0	0	453	425	1021	403	0	0	
0	0	0	0	0	446	448	1021	400	0	0	
1	0	0	0	0	448	473	1021	404	0	0	
2	0	0	0	0	457	498	1020	414	0	0	
3	0	0	0	0	472	520	1020	428	0	0	
4	0	0	0	0	493	537	1021	446	0	0	
5	0	0	0	0	516	548	1021	465	0	0	
6	0	0	0	0	540	551	1021	484	0	0	
7	0	0	0	0	563	547	1021	501	0	0	
8	0	0	0	0	582	536	1020	515	0	0	
9	0	0	0	0	597	519	1021	524	0	0	
10	0	0	0	0	604	498	1021	527	0	0	
11	0	0	0	0	604	475	1021	525	0	0	
12	0	0	0	0	596	452	1021	518	0	0	
13	0	0	0	0	582	432	1021	505	0	0	
14	0	0	0	0	563	416	1021	489	0	0	
15	0	0	0	0	541	407	1021	472	0	0	
0	0	0	0	0	518	404	1021	455	0	0	
1	0	0	0	0	495	409	1021	439	0	0	
2	0	0	0	0	476	421	1020	426	0	0	
3	0	0	0	0	463	438	1021	418	0	0	
4	0	0	0	0	456	460	1021	415	0	0	
5	0	0	0	0	456	483	1021	418	0	0	
6	0	0	0	0	464	507	1020	426	0	0	
7	0	0	0	0	479	527	1021	439	0	0	
8	0	0	0	0	499	542	1021	455	0	0	
9	0	0	0	0	521	551	1021	472	0	0	
10	0	0	0	0	544	553	1021	489	0	0	
11	0	0	0	0	565	548	1021	504	0	0	
12	0	0	0	0	583	536	1021	516	0	0	
13	0	0	0	0	596	518	1021	523	0	0	
14	0	0	0	0	602	496	1021	524	0	0	
15	0	0	0	0	601	472	1021	520	0	0	
0	0	0	0	0	592	448	1020	510	0	0	
1	0	0	0	0	577	426	1021	496	0	0	
2	0	0	0	0	557	409	1021	478	0	0	
3	0	0	0	0	533	398	1021	459	0	0	
4	0	0	0	0	509	395	1021	440	0	0	
5	0	0	0	0	486	399	1021	423	0	0	
6	0	0	0	0	467	409	1021	410	0	0	
7	0	0	0	0	453	428	1021	403	0	0	
8	0	0	0	0	446	450	1021	401	0	0	
9	0	0	0	0	447	474	1021	405	0	0	
10	0	0	0	0	456	498	1020	415	0	0	
11	0	0	0	0	471	519	1020	429	0	0	
12	0	0	0	0	492	535	1021	447	0	0	
13	0	0	0	0	515	545	1021	467	0	0	
14	0	0	0	0	539	547	1021	486	0	0	
15	0	0	0	0	561	542	1020	502	0	0	
0	0	0	0	0	580	530	1021	515	0	0	
1	0	0	0	0	593	512	1021	523	0	0	
2	0	0	0	0	599	490	1021	525	0	0	
3	0	0	0	0	598	465	1021	520	0	0	
4	0	0	0	0	588	441	1021	510	0	0	
5	0	0	0	0	573	421	1021	495	0	0	
6	0	0	0	0	552	404	1021	478	0	0	
7	0	0	0	0	529	395	1021	459	0	0	
8	0	0	0	0	505	392	1021	441	0	0	
9	0	0	0	0	483	397	1021	424	0	0	
10	0	0	0	0	464	409	1021	412	0	0	
11	0	0	0	0	452	428	1021	405	0	0	
12	0	0	0	0	446	451	1021	403	0	0	
13	0	0	0	0	448	476	1021	408	0	0	
14	0	0	0	0	458	501	1020	418	0	0	
15	0	0	0	0	473	522	1020	433	0	0	
0	0	0	0	0	495	538	1021	451	0	0	
1	0	0	0	0	518	548	1021	470	0	0	
2	0	0	0	0	542	550	1021	487	0	0	
3	0	0	0	0	563	544	1020	504	0	0	
4	0	0	0	0	582	533	1020	516	0	0	
5	0	0	0	0	595	514	1021	524	0	0	
6	0	0	0	0	600	492	1021	526	0	0	
7	0	0	0	0	600	468	1021	522	0	0	
8	0	0	0	0	591	445	1021	513	0	0	
9	0	0	0	0	577	425	1021	500	0	0	
10	0	0	0	0	559	410	1021	484	0	0	
11	0	0	0	0	537	401	1021	467	0	0	
12	0	0	0	0	515	400	1021	450	0	0	
13	0	0	0	0	494	406	1020	435	0	0	
14	0	0	0	0	475	418	1021	423	0	0	
15	0	0	0	0	463	437	1021	416	0	0	
0	0	0	0	0	457	460	1021	415	0	0	
1	0	0	0	0	460	485	1021	419	0	0	
2	0	0	0	0	468	510	1021	429	0	0	
3	0	0	0	0	484	531	1020	443	0	0	
4	0	0	0	0	504	547	1021	459	0	0	
5	0	0	0	0	527	556	1021	477	0	0	
6	0	0	0	0	550	558	1021	495	0	0	
7	0	0	0	0	571	552	1021	510	0	0	
8	0	0	0	0	589	539	1021	521	0	0	
9	0	0	0	0	601	520	1021	528	0	0	
10	0	0	0	0	606	496	1021	528	0	0	
11	0	0	0	0	604	471	1021	523	0	0	
12	0	0	0	0	594	446	1021	512	0	0	
13	0	0	0	0	579	424	1020	497	0	0	
14	0	0	0	0	559	407	1021	479	0	0	
15	0	0	0	0	536	396	1021	460	0	0	
0	0	0	0	0	513	393	1021	441	0	0	
1	0	0	0	0	490	397	1021	423	0	0	
2	0	0	0	0	471	408	1021	409	0	0	
3	0	0	0	0	457	425	1021	400	0	0	
4	0	0	0	0	450	448	1021	397	0	0	
5	0	0	0	0	450	472	1021	400	0	0	
6	0	0	0	0	458	495	1021	409	0	0	
7	0	0	0	0	472	515	1021	422	0	0	
8	0	0	0	0	491	531	1021	439	0	0	
9	0	0	0	0	512	539	1021	457	0	0	
10	0	0	0	0	534	540	1021	475	0	0	
11	0	0	0	0	554	535	1020	491	0	0	
12	0	0	0	0	571	522	1020	503	0	0	
13	0	0	0	0	584	503	1021	511	0	0	
14	0	0	0	0	590	481	1021	515	0	0	
15	0	0	0	0	590	458	1021	512	0	0	
0	0	0	0	0	582	435	1021	504	0	0	
1	0	0	0	0	568	415	1021	491	0	0	
2	0	0	0	0	551	401	1021	476	0	0	
3	0	0	0	0	530	393	1021	459	0	0	
4	0	0	0	0	509	392	1021	443	0	0	
5	0	0	0	0	489	399	1020	428	0	0	
6	0	0	0	0	472	412	1021	415	0	0	
7	0	0	0	0	460	431	1021	408	0	0	
8	0	0	0	0	455	454	1021	407	0	0	
9	0	0	0	0	457	479	1021	411	0	0	
10	0	0	0	0	466	503	1021	420	0	0	
11	0	0	0	0	482	524	1021	435	0	0	
12	0	0	0	0	502	540	1021	451	0	0	
13	0	0	0	0	524	548	1021	469	0	0	
14	0	0	0	0	546	549	1021	486	0	0	
15	0	0	0	0	565	542	1020	499	0	0	
0	0	0	0	0	580	526	1021	509	0	0	
1	0	0	0	0	588	504	1021	512	0	0	
2	0	0	0	0	588	476	1021	508	0	0	
3	0	0	0	0	579	446	1021	498	0	0	
4	0	0	0	0	563	415	1021	480	0	0	
5	0	0	0	0	538	387	1020	457	0	0	
6	0	0	0	0	510	361	1021	431	0	0	
7	0	0	0	0	477	342	1021	403	0	0	
8	0	0	0	0	443	329	1021	374	0	0	
9	0	0	0	0	410	324	1021	347	0	0	
10	0	0	0	0	380	325	1021	324	0	0	
11	0	0	0	0	356	332	1021	305	0	0	
12	0	0	0	0	339	345	1021	292	0	0	
13	0	0	0	0	329	359	1021	285	0	0	
14	0	0	0	0	328	374	1021	284	0	0	
15	0	0	0	0	333	386	1021	287	0	0	
0	0	0	0	0	344	391	1021	294	0	0	
1	0	0	0	0	358	392	1021	303	0	0	
2	0	0	0	0	372	385	1021	312	0	0	
3	0	0	0	0	385	369	1020	319	0	0	
4	0	0	0	0	395	348	1020	321	0	0	
5	0	0	0	0	399	319	1021	319	0	0	
6	0	0	0	0	397	287	1021	312	0	0	
7	0	0	0	0	387	254	1021	300	0	0	
8	0	0	0	0	371	221	1021	284	0	0	
9	0	0	0	0	351	193	1021	264	0	0	
10	0	0	0	0	328	172	1021	244	0	0	
11	0	0	0	0	305	160	1021	226	0	0	
12	0	0	0	0	285	158	1021	210	0	0	
13	0	0	0	0	269	167	1021	200	0	0	
14	0	0	0	0	259	188	1021	196	0	0	
15	0	0	0	0	259	220	1021	202	0	0	
0	0	0	0	0	270	260	1021	216	0	0	
1	0	0	0	0	291	306	1021	241	0	0	
2	0	0	0	0	322	354	1020	273	0	0	
3	0	0	0	0	363	402	1020	311	0	0	
4	0	0	0	0	409	446	1021	354	0	0	
5	0	0	0	0	459	482	1021	399	0	0	
6	0	0	0	0	508	509	1021	443	0	0	
7	0	0	0	0	554	527	1020	483	0	0	
8	0	0	0	0	593	533	1021	517	0	0	
9	0	0	0	0	623	531	1021	542	0	0	
10	0	0	0	0	643	519	1021	557	0	0	
11	0	0	0	0	651	502	1021	562	0	0	
12	0	0	0	0	647	481	1021	558	0	0	
13	0	0	0	0	632	460	1021	544	0	0	
14	0	0	0	0	609	443	1021	525	0	0	
15	0	0	0	0	581	429	1021	501	0	0	
0	0	0	0	0	549	422	1021	476	0	0	
1	0	0	0	0	518	420	1021	452	0	0	
2	0	0	0	0	488	427	1020	431	0	0	
3	0	0	0	0	467	439	1021	415	0	0	
4	0	0	0	0	451	457	1021	406	0	0	
5	0	0	0	0	446	477	1021	403	0	0	
6	0	0	0	0	450	498	1020	408	0	0	
7	0	0	0	0	462	517	1021	419	0	0	
8	0	0	0	0	481	531	1021	435	0	0	
9	0	0	0	0	505	541	1021	454	0	0	
10	0	0	0	0	531	543	1021	474	0	0	
11	0	0	0	0	557	540	1021	492	0	0	
12	0	0	0	0	580	529	1021	508	0	0	
13	0	0	0	0	598	513	1021	519	0	0	
14	0	0	0	0	609	494	1021	524	0	0	
15	0	0	0	0	611	471	1021	524	0	0	
0	0	0	0	0	607	451	1021	518	0	0	
1	0	0	0	0	595	433	1020	507	0	0	
2	0	0	0	0	578	419	1021	494	0	0	
3	0	0	0	0	557	412	1021	478	0	0	
4	0	0	0	0	535	413	1021	462	0	0	
5	0	0	0	0	514	420	1021	448	0	0	
6	0	0	0	0	495	434	1020	437	0	0	
7	0	0	0	0	483	454	1021	431	0	0	
8	0	0	0	0	476	478	1021	430	0	0	
9	0	0	0	0	478	504	1021	435	0	0	
10	0	0	0	0	486	528	1021	445	0	0	
11	0	0	0	0	501	550	1021	459	0	0	
12	0	0	0	0	520	565	1021	475	0	0	
13	0	0	0	0	543	574	1021	492	0	0	
14	0	0	0	0	565	575	1021	508	0	0	
15	0	0	0	0	585	569	1020	523	0	0	
0	0	0	0	0	603	556	1021	533	0	0	
1	0	0	0	0	615	536	1021	539	0	0	
2	0	0	0	0	620	513	1021	539	0	0	
3	0	0	0	0	617	487	1021	533	0	0	
4	0	0	0	0	608	463	1020	523	0	0	
5	0	0	0	0	592	441	1020	507	0	0	
6	0	0	0	0	572	424	1021	490	0	0	
7	0	0	0	0	548	415	1021	472	0	0	
8	0	0	0	0	525	412	1021	455	0	0	
9	0	0	0	0	503	418	1020	439	0	0	
10	0	0	0	0	484	431	1020	428	0	0	
11	0	0	0	0	472	450	1021	422	0	0	
12	0	0	0	0	467	474	1021	421	0	0	
13	0	0	0	0	469	499	1021	426	0	0	
14	0	0	0	0	479	524	1020	436	0	0	
15	0	0	0	0	495	546	1021	451	0	0	
0	0	0	0	0	515	561	1021	467	0	0	
1	0	0	0	0	539	571	1021	486	0	0	
2	0	0	0	0	563	572	1021	503	0	0	
3	0	0	0	0	585	567	1020	518	0	0	
4	0	0	0	0	603	553	1021	529	0	0	
5	0	0	0	0	616	535	1021	536	0	0	
6	0	0	0	0	622	512	1021	536	0	0	
7	0	0	0	0	620	487	1021	531	0	0	
8	0	0	0	0	609	462	1021	520	0	0	
9	0	0	0	0	593	440	1021	504	0	0	
10	0	0	0	0	572	423	1021	487	0	0	
11	0	0	0	0	548	412	1021	468	0	0	
12	0	0	0	0	523	409	1021	449	0	0	
13	0	0	0	0	499	413	1021	432	0	0	
14	0	0	0	0	480	424	1021	419	0	0	
15	0	0	0	0	466	441	1021	411	0	0	
0	0	0	0	0	459	463	1021	409	0	0	
1	0	0	0	0	460	487	1021	414	0	0	
2	0	0	0	0	469	511	1021	424	0	0	
3	0	0	0	0	486	532	1021	439	0	0	
4	0	0	0	0	507	548	1021	457	0	0	
5	0	0	0	0	531	558	1021	477	0	0	
6	0	0	0	0	556	561	1021	497	0	0	
7	0	0	0	0	579	556	1021	514	0	0	
8	0	0	0	0	599	545	1021	528	0	0	
9	0	0	0	0	613	527	1021	536	0	0	
10	0	0	0	0	620	506	1021	539	0	0	
11	0	0	0	0	619	482	1021	535	0	0	
12	0	0	0	0	610	459	1021	526	0	0	
13	0	0	0	0	594	439	1021	511	0	0	
14	0	0	0	0	574	423	1021	494	0	0	
15	0	0	0	0	550	413	1021	475	0	0	
0	0	0	0	0	525	410	1021	456	0	0	
1	0	0	0	0	501	415	1021	439	0	0	
2	0	0	0	0	481	427	1021	425	0	0	
3	0	0	0	0	467	444	1021	417	0	0	
4	0	0	0	0	460	466	1021	414	0	0	
5	0	0	0	0	460	489	1021	417	0	0	
6	0	0	0	0	468	512	1021	426	0	0	
7	0	0	0	0	484	531	1021	440	0	0	
8	0	0	0	0	504	546	1021	456	0	0	
9	0	0	0	0	526	554	1021	475	0	0	
10	0	0	0	0	550	555	1021	492	0	0	
11	0	0	0	0	571	548	1021	508	0	0	
12	0	0	0	0	590	536	1021	520	0	0	
13	0	0	0	0	603	517	1021	527	0	0	
14	0	0	0	0	609	495	1021	528	0	0	
15	0	0	0	0	608	471	1021	523	0	0	
0	0	0	0	0	598	448	1021	513	0	0	
1	0	0	0	0	583	427	1021	499	0	0	
2	0	0	0	0	563	412	1021	481	0	0	
3	0	0	0	0	540	403	1021	463	0	0	
4	0	0	0	0	517	401	1021	445	0	0	
5	0	0	0	0	495	407	1021	429	0	0	
6	0	0	0	0	476	420	1020	416	0	0	
7	0	0	0	0	464	439	1021	408	0	0	
8	0	0	0	0	459	463	1021	407	0	0	
9	0	0	0	0	461	487	1021	412	0	0	
10	0	0	0	0	470	511	1021	423	0	0	
11	0	0	0	0	486	532	1021	437	0	0	
12	0	0	0	0	507	548	1021	455	0	0	
13	0	0	0	0	529	558	1021	473	0	0	
14	0	0	0	0	552	559	1021	491	0	0	
15	0	0	0	0	573	553	1021	506	0	0	
0	0	0	0	0	591	540	1021	517	0	0	
1	0	0	0	0	602	521	1021	523	0	0	
2	0	0	0	0	606	498	1021	523	0	0	
3	0	0	0	0	604	473	1021	516	0	0	
4	0	0	0	0	593	449	1021	505	0	0	
5	0	0	0	0	578	428	1021	490	0	0	
6	0	0	0	0	558	413	1021	472	0	0	
7	0	0	0	0	535	404	1021	453	0	0	
8	0	0	0	0	512	402	1021	435	0	0	
9	0	0	0	0	490	408	1021	419	0	0	
10	0	0	0	0	473	421	1021	408	0	0	
11	0	0	0	0	461	440	1021	401	0	0	
12	0	0	0	0	456	463	1021	400	0	0	
13	0	0	0	0	459	489	1021	406	0	0	
14	0	0	0	0	468	513	1021	417	0	0	
15	0	0	0	0	484	534	1021	432	0	0	
0	0	0	0	0	505	550	1021	450	0	0	
1	0	0	0	0	527	559	1021	469	0	0	
2	0	0	0	0	551	560	1021	488	0	0	
3	0	0	0	0	572	555	1021	504	0	0	
4	0	0	0	0	590	542	1021	516	0	0	
5	0	0	0	0	601	523	1021	524	0	0	
6	0	0	0	0	605	499	1021	525	0	0	
7	0	0	0	0	603	475	1021	520	0	0	
8	0	0	0	0	593	450	1021	510	0	0	
9	0	0	0	0	577	429	1021	495	0	0	
10	0	0	0	0	558	413	1021	478	0	0	
11	0	0	0	0	535	403	1021	460	0	0	
12	0	0	0	0	511	401	1021	441	0	0	
13	0	0	0	0	489	406	1021	425	0	0	
14	0	0	0	0	471	418	1021	412	0	0	
15	0	0	0	0	458	436	1021	404	0	0	
0	0	0	0	0	451	458	1021	402	0	0	
1	0	0	0	0	452	481	1021	405	0	0	
2	0	0	0	0	460	504	1021	413	0	0	
3	0	0	0	0	474	523	1021	426	0	0	
4	0	0	0	0	494	537	1021	441	0	0	
5	0	0	0	0	515	545	1021	458	0	0	
6	0	0	0	0	537	547	1021	476	0	0	
7	0	0	0	0	559	541	1021	491	0	0	
8	0	0	0	0	576	529	1021	503	0	0	
9	0	0	0	0	589	511	1021	510	0	0	
10	0	0	0	0	595	489	1021	512	0	0	
11	0	0	0	0	594	467	1021	509	0	0	
12	0	0	0	0	585	444	1021	500	0	0	
13	0	0	0	0	571	424	1021	486	0	0	
14	0	0	0	0	552	409	1021	470	0	0	
15	0	0	0	0	529	401	1021	453	0	0	
0	0	0	0	0	507	399	1021	436	0	0	
1	0	0	0	0	486	404	1021	420	0	0	
2	0	0	0	0	468	417	1021	409	0	0	
3	0	0	0	0	456	435	1021	402	0	0	
4	0	0	0	0	451	457	1021	401	0	0	
5	0	0	0	0	453	481	1021	407	0	0	
6	0	0	0	0	462	504	1020	417	0	0	
7	0	0	0	0	477	524	1020	431	0	0	
8	0	0	0	0	497	537	1021	448	0	0	
9	0	0	0	0	519	545	1021	466	0	0	
10	0	0	0	0	542	545	1021	483	0	0	
11	0	0	0	0	563	539	1021	498	0	0	
12	0	0	0	0	580	525	1021	508	0	0	
13	0	0	0	0	591	507	1021	515	0	0	
14	0	0	0	0	596	484	1021	515	0	0	
15	0	0	0	0	593	460	1021	510	0	0	
0	0	0	0	0	583	437	1021	499	0	0	
1	0	0	0	0	568	418	1020	485	0	0	
2	0	0	0	0	548	403	1021	468	0	0	
3	0	0	0	0	526	395	1021	450	0	0	
4	0	0	0	0	503	393	1021	432	0	0	
5	0	0	0	0	482	399	1020	416	0	0	
6	0	0	0	0	464	412	1020	404	0	0	
7	0	0	0	0	452	430	1021	397	0	0	
8	0	0	0	0	447	452	1021	395	0	0	
9	0	0	0	0	449	476	1021	399	0	0	
10	0	0	0	0	458	499	1020	409	0	0	
11	0	0	0	0	473	518	1020	423	0	0	
12	0	0	0	0	494	532	1021	440	0	0	
13	0	0	0	0	516	541	1021	458	0	0	
14	0	0	0	0	539	542	1021	476	0	0	
15	0	0	0	0	559	536	1021	492	0	0	
0	0	0	0	0	576	524	1021	504	0	0	
1	0	0	0	0	588	506	1021	511	0	0	
2	0	0	0	0	593	485	1021	513	0	0	
3	0	0	0	0	591	461	1021	509	0	0	
4	0	0	0	0	581	438	1020	498	0	0	
5	0	0	0	0	565	418	1020	483	0	0	
6	0	0	0	0	546	402	1021	466	0	0	
7	0	0	0	0	523	393	1021	447	0	0	
8	0	0	0	0	499	390	1021	428	0	0	
9	0	0	0	0	478	395	1021	411	0	0	
10	0	0	0	0	459	407	1021	397	0	0	
11	0	0	0	0	447	425	1021	390	0	0	
12	0	0	0	0	442	448	1021	388	0	0	
13	0	0	0	0	444	472	1020	392	0	0	
14	0	0	0	0	454	496	1021	403	0	0	
15	0	0	0	0	470	516	1021	418	0	0	
0	0	0	0	0	491	532	1021	436	0	0	
1	0	0	0	0	514	542	1021	456	0	0	
2	0	0	0	0	537	544	1021	476	0	0	
3	0	0	0	0	559	539	1020	492	0	0	
4	0	0	0	0	576	526	1020	504	0	0	
5	0	0	0	0	588	508	1021	511	0	0	
6	0	0	0	0	592	486	1021	512	0	0	
7	0	0	0	0	589	461	1021	507	0	0	
8	0	0	0	0	578	438	1021	496	0	0	
9	0	0	0	0	562	417	1021	480	0	0	
10	0	0	0	0	541	401	1021	463	0	0	
11	0	0	0	0	519	392	1021	444	0	0	
12	0	0	0	0	496	390	1021	426	0	0	
13	0	0	0	0	474	395	1021	411	0	0	
14	0	0	0	0	458	408	1021	398	0	0	
15	0	0	0	0	446	426	1021	391	0	0	
0	0	0	0	0	442	449	1021	390	0	0	
1	0	0	0	0	444	472	1021	395	0	0	
2	0	0	0	0	455	496	1021	406	0	0	
3	0	0	0	0	471	516	1020	420	0	0	
4	0	0	0	0	492	531	1021	438	0	0	
5	0	0	0	0	515	540	1021	457	0	0	
6	0	0	0	0	539	542	1021	476	0	0	
7	0	0	0	0	560	537	1021	493	0	0	
8	0	0	0	0	578	525	1021	507	0	0	
9	0	0	0	0	591	508	1021	515	0	0	
10	0	0	0	0	596	487	1021	518	0	0	
11	0	0	0	0	595	463	1021	514	0	0	
12	0	0	0	0	586	441	1021	504	0	0	
13	0	0	0	0	571	422	1021	490	0	0	
14	0	0	0	0	551	408	1021	473	0	0	
15	0	0	0	0	529	399	1021	454	0	0	
0	0	0	0	0	506	398	1021	435	0	0	
1	0	0	0	0	484	403	1020	419	0	0	
2	0	0	0	0	467	417	1020	406	0	0	
3	0	0	0	0	455	435	1021	398	0	0	
4	0	0	0	0	450	457	1021	396	0	0	
5	0	0	0	0	452	480	1021	401	0	0	
6	0	0	0	0	462	503	1020	411	0	0	
7	0	0	0	0	476	523	1020	425	0	0	
8	0	0	0	0	497	537	1021	443	0	0	
9	0	0	0	0	520	545	1021	462	0	0	
10	0	0	0	0	543	546	1021	480	0	0	
11	0	0	0	0	564	540	1021	496	0	0	
12	0	0	0	0	582	527	1020	509	0	0	
13	0	0	0	0	594	509	1021	517	0	0	
14	0	0	0	0	599	487	1021	518	0	0	
15	0	0	0	0	596	463	1021	514	0	0	
0	0	0	0	0	587	440	1021	504	0	0	
1	0	0	0	0	571	420	1020	489	0	0	
2	0	0	0	0	552	405	1021	472	0	0	
3	0	0	0	0	529	396	1021	453	0	0	
4	0	0	0	0	507	395	1021	435	0	0	
5	0	0	0	0	485	400	1020	419	0	0	
6	0	0	0	0	467	412	1021	406	0	0	
7	0	0	0	0	455	431	1021	399	0	0	
8	0	0	0	0	449	453	1021	397	0	0	
9	0	0	0	0	451	477	1021	402	0	0	
10	0	0	0	0	461	500	1021	412	0	0	
11	0	0	0	0	476	520	1021	426	0	0	
12	0	0	0	0	496	535	1021	443	0	0	
13	0	0	0	0	518	543	1021	461	0	0	
14	0	0	0	0	541	544	1021	478	0	0	
15	0	0	0	0	562	539	1020	494	0	0	
0	0	0	0	0	579	527	1021	505	0	0	
1	0	0	0	0	591	508	1021	512	0	0	
2	0	0	0	0	596	487	1021	514	0	0	
3	0	0	0	0	594	463	1021	509	0	0	
4	0	0	0	0	586	440	1020	499	0	0	
5	0	0	0	0	571	420	1020	486	0	0	
6	0	0	0	0	552	406	1021	469	0	0	
7	0	0	0	0	531	397	1021	452	0	0	
8	0	0	0	0	509	396	1021	435	0	0	
9	0	0	0	0	488	402	1021	420	0	0	
10	0	0	0	0	471	415	1020	408	0	0	
11	0	0	0	0	460	434	1021	401	0	0	
12	0	0	0	0	454	456	1021	399	0	0	
13	0	0	0	0	456	480	1021	403	0	0	
14	0	0	0	0	464	502	1020	412	0	0	
15	0	0	0	0	479	521	1021	425	0	0	
0	0	0	0	0	498	535	1021	441	0	0	
1	0	0	0	0	519	542	1021	458	0	0	
2	0	0	0	0	540	543	1021	474	0	0	
3	0	0	0	0	560	536	1020	488	0	0	
4	0	0	0	0	575	523	1020	499	0	0	
5	0	0	0	0	586	504	1021	505	0	0	
6	0	0	0	0	589	483	1021	506	0	0	
7	0	0	0	0	586	459	1021	501	0	0	
8	0	0	0	0	575	437	1021	491	0	0	
9	0	0	0	0	560	418	1021	477	0	0	
10	0	0	0	0	541	404	1021	461	0	0	
11	0	0	0	0	519	396	1021	444	0	0	
12	0	0	0	0	497	396	1021	427	0	0	
13	0	0	0	0	477	401	1021	411	0	0	
14	0	0	0	0	461	414	1021	399	0	0	
15	0	0	0	0	450	432	1021	393	0	0	
0	0	0	0	0	446	454	1021	392	0	0	
1	0	0	0	0	449	477	1021	397	0	0	
2	0	0	0	0	459	499	1020	407	0	0	
3	0	0	0	0	473	518	1020	421	0	0	
4	0	0	0	0	494	531	1021	438	0	0	
5	0	0	0	0	515	537	1021	455	0	0	
6	0	0	0	0	537	537	1021	472	0	0	
7	0	0	0	0	557	530	1020	486	0	0	
8	0	0	0	0	573	516	1021	497	0	0	
9	0	0	0	0	584	497	1021	503	0	0	
10	0	0	0	0	588	475	1021	503	0	0	
11	0	0	0	0	585	452	1021	498	0	0	
12	0	0	0	0	576	430	1021	487	0	0	
13	0	0	0	0	561	411	1021	473	0	0	
14	0	0	0	0	542	398	1021	457	0	0	
15	0	0	0	0	520	391	1021	440	0	0	
0	0	0	0	0	499	392	1021	424	0	0	
1	0	0	0	0	480	400	1021	410	0	0	
2	0	0	0	0	463	415	1020	400	0	0	
3	0	0	0	0	453	435	1021	395	0	0	
4	0	0	0	0	449	459	1021	395	0	0	
5	0	0	0	0	452	483	1021	401	0	0	
6	0	0	0	0	462	506	1021	412	0	0	
7	0	0	0	0	476	526	1021	427	0	0	
8	0	0	0	0	496	540	1021	444	0	0	
9	0	0	0	0	518	547	1021	462	0	0	
10	0	0	0	0	540	547	1021	479	0	0	
11	0	0	0	0	559	539	1021	494	0	0	
12	0	0	0	0	575	524	1021	504	0	0	
13	0	0	0	0	585	504	1021	510	0	0	
14	0	0	0	0	588	481	1021	510	0	0	
15	0	0	0	0	585	456	1021	504	0	0	
0	0	0	0	0	575	432	1020	492	0	0	
1	0	0	0	0	559	412	1021	478	0	0	
2	0	0	0	0	539	396	1021	460	0	0	
3	0	0	0	0	516	388	1021	442	0	0	
4	0	0	0	0	495	387	1021	424	0	0	
5	0	0	0	0	475	393	1021	409	0	0	
6	0	0	0	0	458	407	1021	397	0	0	
7	0	0	0	0	448	426	1021	391	0	0	
8	0	0	0	0	444	449	1021	390	0	0	
9	0	0	0	0	446	473	1021	395	0	0	
10	0	0	0	0	456	497	1020	405	0	0	
11	0	0	0	0	471	516	1020	419	0	0	
12	0	0	0	0	492	531	1021	436	0	0	
13	0	0	0	0	513	539	1021	455	0	0	
14	0	0	0	0	535	540	1021	473	0	0	
15	0	0	0	0	555	534	1020	488	0	0	
0	0	0	0	0	571	521	1021	500	0	0	
1	0	0	0	0	582	502	1021	507	0	0	
2	0	0	0	0	587	480	1021	509	0	0	
3	0	0	0	0	584	457	1021	505	0	0	
4	0	0	0	0	575	434	1021	495	0	0	
5	0	0	0	0	559	415	1021	481	0	0	
6	0	0	0	0	540	401	1021	465	0	0	
7	0	0	0	0	519	394	1021	447	0	0	
8	0	0	0	0	497	393	1021	430	0	0	
9	0	0	0	0	478	400	1021	414	0	0	
10	0	0	0	0	460	414	1020	401	0	0	
11	0	0	0	0	450	432	1021	394	0	0	
12	0	0	0	0	445	454	1021	392	0	0	
13	0	0	0	0	448	477	1021	396	0	0	
14	0	0	0	0	457	499	1021	405	0	0	
15	0	0	0	0	472	518	1020	418	0	0	
0	0	0	0	0	492	531	1021	434	0	0	
1	0	0	0	0	513	537	1021	451	0	0	
2	0	0	0	0	534	537	1021	468	0	0	
3	0	0	0	0	554	530	1021	483	0	0	
4	0	0	0	0	569	517	1021	494	0	0	
5	0	0	0	0	580	499	1021	500	0	0	
6	0	0	0	0	584	476	1021	501	0	0	
7	0	0	0	0	581	453	1021	496	0	0	
8	0	0	0	0	571	431	1021	486	0	0	
9	0	0	0	0	556	412	1020	472	0	0	
10	0	0	0	0	537	398	1021	456	0	0	
11	0	0	0	0	515	391	1021	439	0	0	
12	0	0	0	0	494	390	1021	423	0	0	
13	0	0	0	0	474	397	1020	409	0	0	
14	0	0	0	0	458	411	1021	398	0	0	
15	0	0	0	0	448	430	1021	393	0	0	
0	0	0	0	0	444	453	1021	393	0	0	
1	0	0	0	0	448	478	1021	399	0	0	
2	0	0	0	0	459	501	1021	411	0	0	
3	0	0	0	0	475	521	1020	425	0	0	
4	0	0	0	0	496	536	1021	443	0	0	
5	0	0	0	0	519	543	1021	462	0	0	
6	0	0	0	0	542	544	1021	480	0	0	
7	0	0	0	0	562	537	1020	495	0	0	
8	0	0	0	0	579	524	1021	507	0	0	
9	0	0	0	0	590	505	1021	513	0	0	
10	0	0	0	0	594	482	1021	513	0	0	
11	0	0	0	0	591	459	1021	508	0	0	
12	0	0	0	0	582	436	1021	497	0	0	
13	0	0	0	0	566	416	1021	482	0	0	
14	0	0	0	0	546	402	1021	464	0	0	
15	0	0	0	0	523	394	1021	445	0	0	
0	0	0	0	0	500	393	1021	427	0	0	
1	0	0	0	0	479	399	1021	410	0	0	
2	0	0	0	0	462	412	1021	398	0	0	
3	0	0	0	0	450	430	1021	391	0	0	
4	0	0	0	0	444	452	1021	390	0	0	
5	0	0	0	0	447	476	1021	395	0	0	
6	0	0	0	0	455	498	1021	406	0	0	
7	0	0	0	0	472	517	1021	420	0	0	
8	0	0	0	0	491	531	1021	438	0	0	
9	0	0	0	0	513	539	1021	457	0	0	
10	0	0	0	0	536	539	1021	476	0	0	
11	0	0	0	0	557	532	1021	492	0	0	
12	0	0	0	0	574	519	1021	503	0	0	
13	0	0	0	0	585	501	1021	509	0	0	
14	0	0	0	0	590	479	1021	509	0	0	
15	0	0	0	0	587	455	1021	503	0	0	
0	0	0	0	0	577	433	1021	492	0	0	
1	0	0	0	0	562	414	1021	476	0	0	
2	0	0	0	0	541	400	1021	458	0	0	
3	0	0	0	0	519	393	1021	439	0	0	
4	0	0	0	0	496	392	1021	421	0	0	
5	0	0	0	0	475	399	1021	405	0	0	
6	0	0	0	0	458	412	1021	394	0	0	
7	0	0	0	0	447	432	1021	388	0	0	
8	0	0	0	0	443	455	1021	389	0	0	
9	0	0	0	0	447	479	1021	395	0	0	
10	0	0	0	0	457	503	1021	407	0	0	
11	0	0	0	0	474	522	1021	423	0	0	
12	0	0	0	0	495	536	1021	442	0	0	
13	0	0	0	0	518	543	1021	461	0	0	
14	0	0	0	0	542	543	1021	480	0	0	
15	0	0	0	0	563	536	1021	496	0	0	
0	0	0	0	0	580	523	1021	507	0	0	
1	0	0	0	0	592	504	1021	514	0	0	
2	0	0	0	0	596	481	1021	514	0	0	
3	0	0	0	0	594	459	1021	509	0	0	
4	0	0	0	0	584	436	1021	499	0	0	
5	0	0	0	0	568	417	1021	483	0	0	
6	0	0	0	0	547	403	1021	466	0	0	
7	0	0	0	0	524	395	1021	448	0	0	
8	0	0	0	0	501	394	1021	430	0	0	
9	0	0	0	0	479	401	1021	414	0	0	
10	0	0	0	0	462	414	1021	401	0	0	
11	0	0	0	0	449	432	1021	394	0	0	
12	0	0	0	0	444	455	1021	393	0	0	
13	0	0	0	0	446	478	1021	397	0	0	
14	0	0	0	0	455	500	1021	407	0	0	
15	0	0	0	0	471	518	1021	421	0	0	
0	0	0	0	0	491	531	1021	438	0	0	
1	0	0	0	0	513	538	1021	455	0	0	
2	0	0	0	0	536	538	1021	473	0	0	
3	0	0	0	0	556	531	1021	488	0	0	
4	0	0	0	0	574	517	1021	500	0	0	
5	0	0	0	0	585	499	1021	507	0	0	
6	0	0	0	0	591	477	1021	509	0	0	
7	0	0	0	0	588	453	1021	504	0	0	
8	0	0	0	0	579	431	1021	493	0	0	
9	0	0	0	0	564	413	1021	479	0	0	
10	0	0	0	0	544	399	1021	461	0	0	
11	0	0	0	0	522	391	1021	442	0	0	
12	0	0	0	0	499	391	1021	424	0	0	
13	0	0	0	0	478	397	1021	408	0	0	
14	0	0	0	0	461	410	1021	396	0	0	
15	0	0	0	0	449	428	1021	388	0	0	
0	0	0	0	0	443	451	1021	387	0	0	
1	0	0	0	0	445	473	1021	391	0	0	
2	0	0	0	0	454	495	1021	400	0	0	
3	0	0	0	0	469	513	1021	414	0	0	
4	0	0	0	0	488	527	1021	430	0	0	
5	0	0	0	0	509	534	1021	448	0	0	
6	0	0	0	0	531	533	1021	465	0	0	
7	0	0	0	0	550	526	1021	480	0	0	
8	0	0	0	0	566	512	1021	491	0	0	
9	0	0	0	0	576	493	1021	497	0	0	
10	0	0	0	0	579	471	1021	497	0	0	
11	0	0	0	0	575	447	1021	492	0	0	
12	0	0	0	0	564	424	1020	481	0	0	
13	0	0	0	0	550	405	1021	467	0	0	
14	0	0	0	0	529	391	1021	450	0	0	
15	0	0	0	0	508	384	1021	432	0	0	
0	0	0	0	0	485	383	1021	415	0	0	
1	0	0	0	0	464	389	1021	399	0	0	
2	0	0	0	0	449	402	1021	388	0	0	
3	0	0	0	0	438	420	1021	381	0	0	
4	0	0	0	0	433	443	1021	380	0	0	
5	0	0	0	0	436	465	1021	384	0	0	
6	0	0	0	0	446	487	1021	393	0	0	
7	0	0	0	0	461	504	1021	407	0	0	
8	0	0	0	0	480	516	1021	423	0	0	
9	0	0	0	0	502	523	1021	440	0	0	
10	0	0	0	0	523	522	1021	456	0	0	
11	0	0	0	0	542	515	1020	471	0	0	
12	0	0	0	0	558	500	1021	481	0	0	
13	0	0	0	0	568	480	1021	487	0	0	
14	0	0	0	0	571	458	1021	487	0	0	
15	0	0	0	0	567	433	1021	481	0	0	
0	0	0	0	0	556	412	1021	470	0	0	
1	0	0	0	0	539	392	1021	455	0	0	
2	0	0	0	0	519	378	1021	439	0	0	
3	0	0	0	0	497	371	1021	421	0	0	
4	0	0	0	0	475	371	1021	404	0	0	
5	0	0	0	0	455	379	1021	391	0	0	
6	0	0	0	0	439	395	1021	380	0	0	
7	0	0	0	0	429	415	1021	375	0	0	
8	0	0	0	0	425	439	1021	376	0	0	
9	0	0	0	0	430	465	1021	383	0	0	
10	0	0	0	0	442	489	1020	395	0	0	
11	0	0	0	0	459	509	1020	411	0	0	
12	0	0	0	0	481	523	1021	430	0	0	
13	0	0	0	0	505	531	1021	449	0	0	
14	0	0	0	0	528	531	1021	467	0	0	
15	0	0	0	0	549	524	1021	483	0	0	
0	0	0	0	0	566	510	1020	494	0	0	
1	0	0	0	0	578	491	1021	500	0	0	
2	0	0	0	0	582	467	1021	500	0	0	
3	0	0	0	0	579	444	1021	495	0	0	
4	0	0	0	0	568	420	1021	483	0	0	
5	0	0	0	0	552	402	1021	469	0	0	
6	0	0	0	0	533	388	1021	451	0	0	
7	0	0	0	0	511	381	1021	433	0	0	
8	0	0	0	0	489	381	1021	416	0	0	
9	0	0	0	0	469	389	1020	402	0	0	
10	0	0	0	0	453	404	1020	391	0	0	
11	0	0	0	0	443	424	1021	386	0	0	
12	0	0	0	0	439	448	1021	386	0	0	
13	0	0	0	0	443	472	1021	392	0	0	
14	0	0	0	0	454	495	1021	404	0	0	
15	0	0	0	0	470	514	1021	419	0	0	
0	0	0	0	0	490	527	1021	437	0	0	
1	0	0	0	0	512	534	1021	455	0	0	
2	0	0	0	0	535	533	1021	473	0	0	
3	0	0	0	0	555	526	1021	488	0	0	
4	0	0	0	0	571	512	1020	498	0	0	
5	0	0	0	0	582	493	1021	504	0	0	
6	0	0	0	0	586	470	1021	504	0	0	
7	0	0	0	0	583	447	1021	499	0	0	
8	0	0	0	0	573	425	1020	487	0	0	
9	0	0	0	0	557	406	1021	472	0	0	
10	0	0	0	0	537	393	1021	455	0	0	
11	0	0	0	0	515	386	1021	436	0	0	
12	0	0	0	0	494	386	1021	419	0	0	
13	0	0	0	0	473	393	1021	403	0	0	
14	0	0	0	0	457	406	1021	391	0	0	
15	0	0	0	0	447	426	1021	386	0	0	
0	0	0	0	0	444	448	1021	385	0	0	
1	0	0	0	0	448	472	1021	391	0	0	
2	0	0	0	0	458	494	1020	401	0	0	
3	0	0	0	0	474	512	1020	416	0	0	
4	0	0	0	0	494	525	1021	433	0	0	
5	0	0	0	0	516	531	1021	451	0	0	
6	0	0	0	0	537	530	1021	468	0	0	
7	0	0	0	0	556	522	1020	482	0	0	
8	0	0	0	0	571	507	1021	492	0	0	
9	0	0	0	0	579	486	1021	496	0	0	
10	0	0	0	0	581	462	1021	495	0	0	
11	0	0	0	0	576	438	1021	488	0	0	
12	0	0	0	0	564	414	1021	477	0	0	
13	0	0	0	0	547	394	1021	462	0	0	
14	0	0	0	0	527	380	1021	445	0	0	
15	0	0	0	0	504	373	1021	427	0	0	
0	0	0	0	0	482	373	1021	410	0	0	
1	0	0	0	0	463	380	1020	396	0	0	
2	0	0	0	0	447	395	1020	385	0	0	
3	0	0	0	0	438	415	1021	380	0	0	
4	0	0	0	0	435	439	1021	381	0	0	
5	0	0	0	0	440	463	1021	387	0	0	
6	0	0	0	0	452	487	1020	399	0	0	
7	0	0	0	0	470	507	1020	415	0	0	
8	0	0	0	0	492	522	1021	434	0	0	
9	0	0	0	0	515	530	1021	453	0	0	
10	0	0	0	0	539	531	1021	471	0	0	
11	0	0	0	0	559	524	1020	487	0	0	
12	0	0	0	0	576	511	1020	498	0	0	
13	0	0	0	0	588	492	1021	504	0	0	
14	0	0	0	0	591	469	1021	503	0	0	
15	0	0	0	0	586	444	1021	496	0	0	
0	0	0	0	0	574	420	1021	483	0	0	
1	0	0	0	0	554	399	1020	465	0	0	
2	0	0	0	0	530	383	1021	445	0	0	
3	0	0	0	0	503	371	1021	422	0	0	
4	0	0	0	0	475	367	1021	399	0	0	
5	0	0	0	0	447	368	1020	377	0	0	
6	0	0	0	0	423	375	1021	359	0	0	
7	0	0	0	0	404	387	1021	345	0	0	
8	0	0	0	0	391	401	1021	335	0	0	
9	0	0	0	0	385	417	1021	332	0	0	
10	0	0	0	0	385	430	1021	332	0	0	
11	0	0	0	0	391	440	1021	336	0	0	
12	0	0	0	0	402	443	1021	344	0	0	
13	0	0	0	0	415	440	1021	351	0	0	
14	0	0	0	0	428	431	1021	359	0	0	
15	0	0	0	0	439	413	1020	364	0	0	
0	0	0	0	0	445	390	1021	364	0	0	
1	0	0	0	0	447	360	1021	360	0	0	
2	0	0	0	0	441	328	1021	351	0	0	
3	0	0	0	0	427	295	1021	336	0	0	
4	0	0	0	0	407	262	1020	315	0	0	
5	0	0	0	0	380	232	1020	289	0	0	
6	0	0	0	0	349	207	1021	262	0	0	
7	0	0	0	0	316	188	1021	232	0	0	
8	0	0	0	0	283	176	1021	204	0	0	
9	0	0	0	0	253	173	1021	179	0	0	
10	0	0	0	0	227	179	1020	158	0	0	
11	0	0	0	0	211	192	1021	145	0	0	
12	0	0	0	0	203	213	1021	141	0	0	
13	0	0	0	0	207	239	1021	148	0	0	
14	0	0	0	0	223	267	1020	163	0	0	
15	0	0	0	0	248	295	1021	187	0	0	
0	0	0	0	0	282	321	1021	218	0	0	
1	0	0	0	0	323	344	1021	254	0	0	
2	0	0	0	0	368	363	1021	292	0	0	
3	0	0	0	0	414	376	1020	331	0	0	
4	0	0	0	0	456	384	1020	368	0	0	
5	0	0	0	0	495	387	1021	401	0	0	
6	0	0	0	0	526	386	1021	427	0	0	
7	0	0	0	0	547	383	1021	447	0	0	
8	0	0	0	0	559	379	1021	458	0	0	
9	0	0	0	0	561	377	1021	462	0	0	
10	0	0	0	0	556	379	1021	461	0	0	
11	0	0	0	0	545	384	1021	455	0	0	
12	0	0	0	0	529	394	1021	446	0	0	
13	0	0	0	0	512	409	1021	435	0	0	
14	0	0	0	0	496	428	1021	427	0	0	
15	0	0	0	0	483	451	1021	420	0	0	
0	0	0	0	0	475	475	1021	418	0	0	
1	0	0	0	0	473	499	1021	419	0	0	
2	0	0	0	0	477	520	1020	425	0	0	
3	0	0	0	0	486	537	1020	435	0	0	
4	0	0	0	0	501	547	1021	447	0	0	
5	0	0	0	0	518	550	1021	460	0	0	
6	0	0	0	0	536	546	1021	473	0	0	
7	0	0	0	0	552	535	1021	484	0	0	
8	0	0	0	0	566	518	1021	492	0	0	
9	0	0	0	0	576	495	1021	496	0	0	
10	0	0	0	0	581	471	1021	496	0	0	
11	0	0	0	0	579	445	1021	491	0	0	
12	0	0	0	0	571	422	1020	481	0	0	
13	0	0	0	0	557	403	1020	467	0	0	
14	0	0	0	0	540	390	1021	452	0	0	
15	0	0	0	0	521	384	1021	436	0	0	
0	0	0	0	0	501	386	1021	421	0	0	
1	0	0	0	0	483	395	1021	408	0	0	
2	0	0	0	0	468	411	1020	399	0	0	
3	0	0	0	0	459	432	1021	395	0	0	
4	0	0	0	0	456	457	1021	396	0	0	
5	0	0	0	0	461	483	1021	403	0	0	
6	0	0	0	0	471	506	1021	415	0	0	
7	0	0	0	0	487	526	1021	431	0	0	
8	0	0	0	0	507	539	1021	448	0	0	
9	0	0	0	0	528	545	1021	466	0	0	
10	0	0	0	0	550	545	1021	483	0	0	
11	0	0	0	0	569	536	1021	498	0	0	
12	0	0	0	0	583	521	1020	508	0	0	
13	0	0	0	0	594	501	1021	513	0	0	
14	0	0	0	0	596	477	1021	513	0	0	
15	0	0	0	0	593	453	1021	506	0	0	
0	0	0	0	0	583	430	1021	495	0	0	
1	0	0	0	0	566	410	1020	480	0	0	
2	0	0	0	0	546	396	1021	463	0	0	
3	0	0	0	0	524	388	1021	444	0	0	
4	0	0	0	0	501	388	1021	426	0	0	
5	0	0	0	0	480	396	1020	410	0	0	
6	0	0	0	0	463	409	1020	398	0	0	
7	0	0	0	0	452	429	1021	391	0	0	
8	0	0	0	0	448	452	1021	390	0	0	
9	0	0	0	0	451	476	1021	395	0	0	
10	0	0	0	0	461	499	1020	406	0	0	
11	0	0	0	0	478	519	1020	421	0	0	
12	0	0	0	0	500	532	1021	440	0	0	
13	0	0	0	0	523	540	1021	459	0	0	
14	0	0	0	0	547	541	1021	478	0	0	
15	0	0	0	0	568	534	1021	495	0	0	
0	0	0	0	0	586	521	1021	508	0	0	
1	0	0	0	0	598	503	1021	516	0	0	
2	0	0	0	0	603	482	1021	518	0	0	
3	0	0	0	0	600	459	1021	514	0	0	
4	0	0	0	0	590	437	1020	504	0	0	
5	0	0	0	0	574	419	1020	490	0	0	
6	0	0	0	0	554	406	1021	473	0	0	
7	0	0	0	0	531	399	1021	455	0	0	
8	0	0	0	0	508	399	1021	437	0	0	
9	0	0	0	0	486	406	1021	420	0	0	
10	0	0	0	0	468	419	1021	407	0	0	
11	0	0	0	0	456	439	1021	399	0	0	
12	0	0	0	0	451	460	1021	397	0	0	
13	0	0	0	0	452	483	1021	400	0	0	
14	0	0	0	0	462	504	1021	409	0	0	
15	0	0	0	0	477	521	1021	423	0	0	
0	0	0	0	0	496	534	1021	439	0	0	
1	0	0	0	0	518	539	1021	456	0	0	
2	0	0	0	0	540	538	1021	474	0	0	
3	0	0	0	0	560	530	1020	489	0	0	
4	0	0	0	0	576	516	1020	501	0	0	
5	0	0	0	0	588	496	1021	508	0	0	
6	0	0	0	0	593	474	1021	509	0	0	
7	0	0	0	0	591	451	1021	504	0	0	
8	0	0	0	0	581	430	1020	495	0	0	
9	0	0	0	0	566	412	1021	481	0	0	
10	0	0	0	0	546	400	1021	464	0	0	
11	0	0	0	0	524	394	1021	447	0	0	
12	0	0	0	0	502	395	1021	430	0	0	
13	0	0	0	0	481	403	1021	415	0	0	
14	0	0	0	0	464	417	1021	403	0	0	
15	0	0	0	0	453	438	1021	397	0	0	
0	0	0	0	0	448	460	1021	397	0	0	
1	0	0	0	0	451	484	1021	403	0	0	
2	0	0	0	0	461	506	1021	413	0	0	
3	0	0	0	0	476	524	1020	427	0	0	
4	0	0	0	0	496	536	1021	443	0	0	
5	0	0	0	0	518	541	1021	460	0	0	
6	0	0	0	0	539	539	1021	477	0	0	
7	0	0	0	0	558	529	1021	491	0	0	
8	0	0	0	0	573	514	1021	501	0	0	
9	0	0	0	0	583	493	1021	506	0	0	
10	0	0	0	0	585	470	1021	505	0	0	
11	0	0	0	0	582	446	1021	499	0	0	
12	0	0	0	0	572	423	1021	489	0	0	
13	0	0	0	0	556	405	1021	475	0	0	
14	0	0	0	0	537	392	1021	458	0	0	
15	0	0	0	0	516	386	1021	440	0	0	
0	0	0	0	0	495	387	1020	423	0	0	
1	0	0	0	0	476	395	1020	410	0	0	
2	0	0	0	0	460	410	1020	399	0	0	
3	0	0	0	0	451	430	1021	394	0	0	
4	0	0	0	0	447	454	1021	394	0	0	
5	0	0	0	0	451	477	1021	400	0	0	
6	0	0	0	0	462	499	1021	411	0	0	
7	0	0	0	0	478	518	1021	425	0	0	
8	0	0	0	0	497	530	1021	441	0	0	
9	0	0	0	0	518	536	1021	459	0	0	
10	0	0	0	0	539	535	1021	475	0	0	
11	0	0	0	0	558	527	1021	489	0	0	
12	0	0	0	0	573	512	1021	499	0	0	
13	0	0	0	0	583	493	1021	504	0	0	
14	0	0	0	0	585	470	1021	503	0	0	
15	0	0	0	0	581	446	1021	497	0	0	
0	0	0	0	0	571	424	1021	486	0	0	
1	0	0	0	0	555	406	1021	472	0	0	
2	0	0	0	0	535	393	1021	455	0	0	
3	0	0	0	0	513	387	1021	437	0	0	
4	0	0	0	0	491	388	1021	421	0	0	
5	0	0	0	0	472	396	1021	407	0	0	
6	0	0	0	0	456	412	1021	396	0	0	
7	0	0	0	0	447	432	1021	391	0	0	
8	0	0	0	0	444	455	1021	392	0	0	
9	0	0	0	0	449	480	1020	398	0	0	
10	0	0	0	0	460	503	1021	410	0	0	
11	0	0	0	0	477	521	1020	425	0	0	
12	0	0	0	0	498	534	1021	443	0	0	
13	0	0	0	0	520	539	1021	461	0	0	
14	0	0	0	0	542	537	1021	478	0	0	
15	0	0	0	0	560	528	1021	492	0	0	
0	0	0	0	0	575	513	1020	502	0	0	
1	0	0	0	0	584	492	1021	507	0	0	
2	0	0	0	0	585	467	1021	505	0	0	
3	0	0	0	0	580	442	1021	499	0	0	
4	0	0	0	0	568	419	1021	487	0	0	
5	0	0	0	0	550	399	1020	471	0	0	
6	0	0	0	0	528	384	1021	452	0	0	
7	0	0	0	0	505	377	1021	433	0	0	
8	0	0	0	0	482	377	1021	415	0	0	
9	0	0	0	0	461	384	1021	399	0	0	
10	0	0	0	0	444	398	1020	387	0	0	
11	0	0	0	0	435	417	1021	381	0	0	
12	0	0	0	0	431	440	1021	381	0	0	
13	0	0	0	0	436	465	1021	387	0	0	
14	0	0	0	0	448	487	1021	399	0	0	
15	0	0	0	0	464	507	1021	414	0	0	
0	0	0	0	0	486	520	1021	432	0	0	
1	0	0	0	0	510	527	1021	451	0	0	
2	0	0	0	0	532	528	1021	470	0	0	
3	0	0	0	0	553	520	1020	485	0	0	
4	0	0	0	0	568	507	1020	496	0	0	
5	0	0	0	0	579	487	1021	503	0	0	
6	0	0	0	0	582	464	1021	503	0	0	
7	0	0	0	0	577	440	1021	496	0	0	
8	0	0	0	0	565	418	1021	485	0	0	
9	0	0	0	0	547	399	1020	469	0	0	
10	0	0	0	0	527	385	1021	450	0	0	
11	0	0	0	0	504	378	1021	431	0	0	
12	0	0	0	0	480	378	1021	412	0	0	
13	0	0	0	0	460	385	1021	396	0	0	
14	0	0	0	0	443	399	1021	384	0	0	
15	0	0	0	0	433	419	1021	378	0	0	
0	0	0	0	0	430	441	1021	377	0	0	
1	0	0	0	0	435	465	1021	383	0	0	
2	0	0	0	0	446	487	1021	395	0	0	
3	0	0	0	0	463	506	1020	409	0	0	
4	0	0	0	0	485	519	1021	427	0	0	
5	0	0	0	0	508	524	1021	445	0	0	
6	0	0	0	0	530	523	1021	462	0	0	
7	0	0	0	0	550	515	1020	476	0	0	
8	0	0	0	0	565	499	1021	486	0	0	
9	0	0	0	0	574	480	1021	491	0	0	
10	0	0	0	0	576	457	1021	491	0	0	
11	0	0	0	0	571	434	1021	484	0	0	
12	0	0	0	0	560	412	1021	474	0	0	
13	0	0	0	0	542	395	1021	460	0	0	
14	0	0	0	0	522	383	1021	444	0	0	
15	0	0	0	0	500	378	1021	428	0	0	
0	0	0	0	0	479	380	1021	412	0	0	
1	0	0	0	0	460	389	1021	399	0	0	
2	0	0	0	0	446	404	1020	390	0	0	
3	0	0	0	0	438	425	1021	387	0	0	
4	0	0	0	0	436	448	1021	387	0	0	
5	0	0	0	0	441	472	1021	394	0	0	
6	0	0	0	0	453	494	1021	405	0	0	
7	0	0	0	0	471	511	1021	419	0	0	
8	0	0	0	0	491	523	1021	435	0	0	
9	0	0	0	0	512	527	1021	451	0	0	
10	0	0	0	0	532	525	1021	467	0	0	
11	0	0	0	0	550	515	1021	479	0	0	
12	0	0	0	0	563	499	1021	487	0	0	
13	0	0	0	0	571	479	1021	490	0	0	
14	0	0	0	0	572	455	1021	488	0	0	
15	0	0	0	0	566	431	1021	481	0	0	
0	0	0	0	0	553	409	1021	469	0	0	
1	0	0	0	0	537	391	1021	455	0	0	
2	0	0	0	0	517	379	1021	438	0	0	
3	0	0	0	0	496	374	1021	421	0	0	
4	0	0	0	0	475	376	1021	406	0	0	
5	0	0	0	0	457	384	1021	393	0	0	
6	0	0	0	0	444	400	1021	384	0	0	
7	0	0	0	0	435	420	1021	380	0	0	
8	0	0	0	0	434	444	1021	382	0	0	
9	0	0	0	0	440	468	1021	390	0	0	
10	0	0	0	0	451	491	1021	402	0	0	
11	0	0	0	0	468	509	1021	417	0	0	
12	0	0	0	0	489	521	1021	435	0	0	
13	0	0	0	0	511	527	1021	454	0	0	
14	0	0	0	0	532	526	1021	471	0	0	
15	0	0	0	0	551	517	1021	486	0	0	
0	0	0	0	0	566	502	1021	496	0	0	
1	0	0	0	0	575	483	1021	502	0	0	
2	0	0	0	0	577	460	1021	501	0	0	
3	0	0	0	0	572	436	1021	495	0	0	
4	0	0	0	0	561	414	1021	483	0	0	
5	0	0	0	0	543	395	1021	468	0	0	
6	0	0	0	0	523	382	1021	450	0	0	
7	0	0	0	0	501	376	1021	432	0	0	
8	0	0	0	0	479	377	1021	415	0	0	
9	0	0	0	0	458	384	1021	400	0	0	
10	0	0	0	0	442	399	1021	388	0	0	
11	0	0	0	0	432	418	1021	382	0	0	
12	0	0	0	0	428	441	1021	381	0	0	
13	0	0	0	0	431	463	1021	386	0	0	
14	0	0	0	0	440	484	1021	395	0	0	
15	0	0	0	0	456	501	1021	408	0	0	
0	0	0	0	0	475	512	1021	424	0	0	
1	0	0	0	0	496	518	1021	440	0	0	
2	0	0	0	0	518	515	1021	457	0	0	
3	0	0	0	0	537	507	1021	471	0	0	
4	0	0	0	0	553	493	1021	481	0	0	
5	0	0	0	0	564	473	1021	487	0	0	
6	0	0	0	0	568	452	1021	488	0	0	
7	0	0	0	0	565	430	1021	483	0	0	
8	0	0	0	0	555	409	1021	473	0	0	
9	0	0	0	0	540	392	1021	461	0	0	
10	0	0	0	0	521	380	1021	446	0	0	
11	0	0	0	0	501	376	1021	430	0	0	
12	0	0	0	0	480	377	1021	414	0	0	
13	0	0	0	0	462	386	1020	400	0	0	
14	0	0	0	0	447	401	1021	391	0	0	
15	0	0	0	0	438	421	1021	387	0	0	
0	0	0	0	0	436	444	1021	388	0	0	
1	0	0	0	0	440	467	1021	395	0	0	
2	0	0	0	0	451	487	1021	406	0	0	
3	0	0	0	0	467	506	1021	421	0	0	
4	0	0	0	0	487	518	1021	438	0	0	
5	0	0	0	0	509	523	1021	455	0	0	
6	0	0	0	0	530	521	1021	472	0	0	
7	0	0	0	0	548	513	1021	484	0	0	
8	0	0	0	0	562	498	1021	494	0	0	
9	0	0	0	0	572	478	1021	499	0	0	
10	0	0	0	0	574	456	1021	497	0	0	
11	0	0	0	0	569	433	1021	490	0	0	
12	0	0	0	0	558	412	1021	478	0	0	
13	0	0	0	0	542	395	1021	463	0	0	
14	0	0	0	0	522	383	1021	447	0	0	
15	0	0	0	0	501	378	1021	429	0	0	
0	0	0	0	0	480	380	1020	412	0	0	
1	0	0	0	0	461	389	1021	400	0	0	
2	0	0	0	0	446	405	1020	390	0	0	
3	0	0	0	0	438	426	1021	387	0	0	
4	0	0	0	0	436	450	1021	389	0	0	
5	0	0	0	0	442	475	1021	396	0	0	
6	0	0	0	0	454	498	1020	409	0	0	
7	0	0	0	0	472	516	1021	425	0	0	
8	0	0	0	0	493	529	1021	443	0	0	
9	0	0	0	0	515	536	1021	462	0	0	
10	0	0	0	0	537	534	1021	479	0	0	
11	0	0	0	0	556	524	1021	493	0	0	
12	0	0	0	0	571	509	1021	502	0	0	
13	0	0	0	0	579	488	1021	505	0	0	
14	0	0	0	0	580	464	1021	503	0	0	
15	0	0	0	0	575	440	1021	495	0	0	
0	0	0	0	0	563	417	1021	483	0	0	
1	0	0	0	0	545	399	1021	467	0	0	
2	0	0	0	0	525	387	1021	449	0	0	
3	0	0	0	0	503	383	1021	432	0	0	
4	0	0	0	0	482	385	1021	415	0	0	
5	0	0	0	0	464	395	1020	402	0	0	
6	0	0	0	0	449	412	1020	393	0	0	
7	0	0	0	0	442	433	1021	390	0	0	
8	0	0	0	0	441	458	1021	392	0	0	
9	0	0	0	0	448	483	1021	400	0	0	
10	0	0	0	0	460	505	1021	413	0	0	
11	0	0	0	0	478	524	1021	428	0	0	
12	0	0	0	0	499	536	1021	446	0	0	
13	0	0	0	0	521	541	1021	464	0	0	
14	0	0	0	0	542	539	1021	480	0	0	
15	0	0	0	0	561	529	1020	494	0	0	
0	0	0	0	0	574	513	1021	502	0	0	
1	0	0	0	0	582	491	1021	505	0	0	
2	0	0	0	0	583	467	1021	502	0	0	
3	0	0	0	0	576	442	1021	494	0	0	
4	0	0	0	0	563	419	1020	481	0	0	
5	0	0	0	0	545	400	1020	465	0	0	
6	0	0	0	0	525	387	1021	448	0	0	
7	0	0	0	0	503	382	1021	430	0	0	
8	0	0	0	0	481	384	1021	414	0	0	
9	0	0	0	0	462	393	1021	402	0	0	
10	0	0	0	0	448	409	1021	393	0	0	
11	0	0	0	0	440	430	1021	390	0	0	
12	0	0	0	0	440	454	1021	392	0	0	
13	0	0	0	0	445	479	1021	400	0	0	
14	0	0	0	0	457	501	1020	412	0	0	
15	0	0	0	0	476	520	1020	428	0	0	
0	0	0	0	0	497	533	1021	447	0	0	
1	0	0	0	0	519	539	1021	465	0	0	
2	0	0	0	0	542	537	1021	481	0	0	
3	0	0	0	0	560	529	1020	496	0	0	
4	0	0	0	0	574	514	1020	505	0	0	
5	0	0	0	0	583	494	1021	509	0	0	
6	0	0	0	0	584	471	1021	507	0	0	
7	0	0	0	0	578	447	1021	499	0	0	
8	0	0	0	0	565	424	1021	486	0	0	
9	0	0	0	0	547	406	1021	468	0	0	
10	0	0	0	0	525	392	1021	449	0	0	
11	0	0	0	0	503	386	1021	431	0	0	
12	0	0	0	0	480	387	1021	413	0	0	
13	0	0	0	0	460	394	1021	398	0	0	
14	0	0	0	0	445	408	1021	388	0	0	
15	0	0	0	0	437	429	1021	384	0	0	
0	0	0	0	0	435	451	1021	385	0	0	
1	0	0	0	0	442	476	1021	393	0	0	
2	0	0	0	0	455	498	1020	406	0	0	
3	0	0	0	0	473	517	1020	423	0	0	
4	0	0	0	0	496	530	1021	442	0	0	
5	0	0	0	0	519	536	1021	462	0	0	
6	0	0	0	0	543	536	1021	481	0	0	
7	0	0	0	0	563	528	1021	496	0	0	
8	0	0	0	0	579	514	1020	508	0	0	
9	0	0	0	0	590	495	1021	513	0	0	
10	0	0	0	0	593	472	1021	513	0	0	
11	0	0	0	0	588	449	1021	507	0	0	
12	0	0	0	0	575	428	1021	495	0	0	
13	0	0	0	0	557	409	1021	478	0	0	
14	0	0	0	0	536	396	1021	459	0	0	
15	0	0	0	0	512	391	1021	439	0	0	
0	0	0	0	0	488	391	1021	420	0	0	
1	0	0	0	0	466	398	1020	404	0	0	
2	0	0	0	0	449	413	1020	392	0	0	
3	0	0	0	0	439	433	1021	387	0	0	
4	0	0	0	0	436	456	1021	387	0	0	
5	0	0	0	0	441	479	1021	393	0	0	
6	0	0	0	0	453	501	1020	406	0	0	
7	0	0	0	0	470	519	1021	422	0	0	
8	0	0	0	0	492	531	1021	440	0	0	
9	0	0	0	0	515	536	1021	459	0	0	
10	0	0	0	0	538	535	1021	478	0	0	
11	0	0	0	0	559	526	1021	493	0	0	
12	0	0	0	0	575	511	1021	504	0	0	
13	0	0	0	0	585	491	1021	509	0	0	
14	0	0	0	0	588	468	1021	509	0	0	
15	0	0	0	0	583	445	1021	503	0	0	
0	0	0	0	0	572	424	1021	491	0	0	
1	0	0	0	0	556	407	1021	476	0	0	
2	0	0	0	0	536	396	1021	459	0	0	
3	0	0	0	0	513	391	1021	440	0	0	
4	0	0	0	0	492	393	1021	423	0	0	
5	0	0	0	0	473	403	1021	409	0	0	
6	0	0	0	0	457	419	1021	399	0	0	
7	0	0	0	0	449	440	1021	393	0	0	
8	0	0	0	0	447	463	1021	395	0	0	
9	0	0	0	0	452	487	1021	401	0	0	
10	0	0	0	0	464	509	1021	412	0	0	
11	0	0	0	0	481	526	1021	428	0	0	
12	0	0	0	0	502	537	1021	444	0	0	
13	0	0	0	0	524	542	1021	462	0	0	
14	0	0	0	0	545	539	1021	478	0	0	
15	0	0	0	0	564	529	1020	492	0	0	
0	0	0	0	0	578	513	1020	501	0	0	
1	0	0	0	0	587	493	1021	505	0	0	
2	0	0	0	0	588	470	1021	504	0	0	
3	0	0	0	0	582	446	1021	497	0	0	
4	0	0	0	0	569	423	1021	484	0	0	
5	0	0	0	0	551	406	1020	469	0	0	
6	0	0	0	0	530	393	1021	451	0	0	
7	0	0	0	0	507	388	1021	432	0	0	
8	0	0	0	0	485	390	1021	415	0	0	
9	0	0	0	0	465	399	1021	401	0	0	
10	0	0	0	0	450	414	1021	390	0	0	
11	0	0	0	0	441	435	1021	386	0	0	
12	0	0	0	0	440	459	1021	387	0	0	
13	0	0	0	0	445	483	1021	395	0	0	
14	0	0	0	0	458	505	1021	407	0	0	
15	0	0	0	0	476	523	1021	423	0	0	
0	0	0	0	0	497	536	1021	441	0	0	
1	0	0	0	0	520	541	1021	460	0	0	
2	0	0	0	0	543	539	1021	478	0	0	
3	0	0	0	0	563	530	1021	492	0	0	
4	0	0	0	0	577	514	1020	502	0	0	
5	0	0	0	0	587	494	1021	507	0	0	
6	0	0	0	0	589	471	1021	506	0	0	
7	0	0	0	0	583	446	1021	499	0	0	
8	0	0	0	0	571	424	1020	486	0	0	
9	0	0	0	0	553	406	1020	471	0	0	
10	0	0	0	0	532	393	1021	454	0	0	
11	0	0	0	0	509	387	1021	435	0	0	
12	0	0	0	0	487	388	1021	418	0	0	
13	0	0	0	0	466	397	1020	404	0	0	
14	0	0	0	0	450	412	1020	393	0	0	
15	0	0	0	0	441	432	1021	388	0	0	
0	0	0	0	0	439	455	1021	389	0	0	
1	0	0	0	0	444	479	1021	396	0	0	
2	0	0	0	0	455	500	1020	407	0	0	
3	0	0	0	0	473	518	1020	423	0	0	
4	0	0	0	0	495	529	1021	440	0	0	
5	0	0	0	0	518	535	1021	458	0	0	
6	0	0	0	0	541	533	1021	475	0	0	
7	0	0	0	0	560	524	1021	488	0	0	
8	0	0	0	0	576	508	1021	497	0	0	
9	0	0	0	0	586	488	1021	502	0	0	
10	0	0	0	0	588	466	1021	500	0	0	
11	0	0	0	0	583	443	1021	493	0	0	
12	0	0	0	0	572	422	1021	482	0	0	
13	0	0	0	0	556	405	1021	467	0	0	
14	0	0	0	0	536	394	1021	451	0	0	
15	0	0	0	0	515	390	1021	434	0	0	
0	0	0	0	0	494	393	1021	419	0	0	
1	0	0	0	0	474	403	1021	407	0	0	
2	0	0	0	0	460	419	1021	399	0	0	
3	0	0	0	0	451	440	1021	396	0	0	
4	0	0	0	0	449	463	1021	398	0	0	
5	0	0	0	0	455	487	1021	407	0	0	
6	0	0	0	0	467	509	1021	419	0	0	
7	0	0	0	0	484	527	1021	435	0	0	
8	0	0	0	0	505	538	1021	452	0	0	
9	0	0	0	0	527	543	1021	470	0	0	
10	0	0	0	0	548	540	1021	486	0	0	
11	0	0	0	0	566	530	1021	498	0	0	
12	0	0	0	0	581	514	1021	507	0	0	
13	0	0	0	0	590	494	1021	509	0	0	
14	0	0	0	0	591	471	1021	507	0	0	
15	0	0	0	0	585	448	1021	498	0	0	
0	0	0	0	0	573	426	1021	486	0	0	
1	0	0	0	0	557	409	1021	469	0	0	
2	0	0	0	0	536	398	1021	451	0	0	
3	0	0	0	0	515	393	1021	434	0	0	
4	0	0	0	0	494	396	1021	418	0	0	
5	0	0	0	0	475	407	1021	406	0	0	
6	0	0	0	0	462	423	1021	397	0	0	
7	0	0	0	0	455	446	1021	394	0	0	
8	0	0	0	0	455	470	1021	397	0	0	
9	0	0	0	0	461	495	1021	407	0	0	
10	0	0	0	0	474	518	1021	420	0	0	
11	0	0	0	0	494	537	1021	437	0	0	
12	0	0	0	0	515	549	1021	456	0	0	
13	0	0	0	0	538	555	1021	475	0	0	
14	0	0	0	0	560	553	1021	493	0	0	
15	0	0	0	0	579	545	1021	508	0	0	
0	0	0	0	0	594	530	1021	518	0	0	
1	0	0	0	0	604	510	1021	523	0	0	
2	0	0	0	0	605	488	1021	522	0	0	
3	0	0	0	0	600	466	1021	515	0	0	
4	0	0	0	0	589	445	1021	504	0	0	
5	0	0	0	0	572	428	1021	489	0	0	
6	0	0	0	0	551	417	1021	472	0	0	
7	0	0	0	0	528	412	1021	453	0	0	
8	0	0	0	0	505	414	1021	436	0	0	
9	0	0	0	0	485	422	1021	421	0	0	
10	0	0	0	0	468	437	1021	410	0	0	
11	0	0	0	0	459	456	1021	405	0	0	
12	0	0	0	0	455	479	1021	406	0	0	
13	0	0	0	0	460	501	1021	413	0	0	
14	0	0	0	0	472	522	1020	424	0	0	
15	0	0	0	0	488	538	1020	440	0	0	
0	0	0	0	0	511	549	1021	458	0	0	
1	0	0	0	0	533	553	1021	476	0	0	
2	0	0	0	0	556	551	1021	494	0	0	
3	0	0	0	0	577	543	1021	508	0	0	
4	0	0	0	0	592	528	1020	518	0	0	
5	0	0	0	0	603	509	1021	523	0	0	
6	0	0	0	0	605	486	1021	521	0	0	
7	0	0	0	0	600	463	1021	513	0	0	
8	0	0	0	0	588	442	1021	500	0	0	
9	0	0	0	0	569	425	1020	484	0	0	
10	0	0	0	0	549	413	1021	466	0	0	
11	0	0	0	0	526	408	1021	447	0	0	
12	0	0	0	0	504	410	1021	430	0	0	
13	0	0	0	0	484	419	1020	415	0	0	
14	0	0	0	0	467	433	1020	405	0	0	
15	0	0	0	0	459	453	1021	400	0	0	
0	0	0	0	0	455	475	1021	400	0	0	
1	0	0	0	0	460	496	1021	407	0	0	
2	0	0	0	0	471	516	1021	417	0	0	
3	0	0	0	0	487	531	1021	431	0	0	
4	0	0	0	0	506	540	1021	447	0	0	
5	0	0	0	0	527	543	1021	463	0	0	
6	0	0	0	0	547	539	1021	479	0	0	
7	0	0	0	0	563	528	1021	491	0	0	
8	0	0	0	0	577	511	1021	499	0	0	
9	0	0	0	0	584	490	1021	503	0	0	
10	0	0	0	0	585	467	1021	500	0	0	
11	0	0	0	0	578	444	1021	492	0	0	
12	0	0	0	0	565	423	1020	480	0	0	
13	0	0	0	0	548	407	1020	464	0	0	
14	0	0	0	0	528	395	1021	447	0	0	
15	0	0	0	0	507	391	1021	428	0	0	
0	0	0	0	0	486	394	1021	412	0	0	
1	0	0	0	0	467	404	1021	398	0	0	
2	0	0	0	0	454	420	1020	389	0	0	
3	0	0	0	0	447	441	1021	385	0	0	
4	0	0	0	0	446	465	1021	387	0	0	
5	0	0	0	0	453	488	1021	396	0	0	
6	0	0	0	0	466	510	1020	409	0	0	
7	0	0	0	0	484	527	1021	425	0	0	
8	0	0	0	0	506	538	1021	444	0	0	
9	0	0	0	0	528	543	1021	463	0	0	
10	0	0	0	0	550	540	1021	481	0	0	
11	0	0	0	0	568	530	1021	496	0	0	
12	0	0	0	0	583	515	1021	507	0	0	
13	0	0	0	0	592	495	1021	513	0	0	
14	0	0	0	0	593	473	1021	513	0	0	
15	0	0	0	0	589	450	1021	507	0	0	
0	0	0	0	0	578	430	1020	497	0	0	
1	0	0	0	0	561	414	1021	483	0	0	
2	0	0	0	0	542	403	1021	466	0	0	
3	0	0	0	0	520	399	1021	449	0	0	
4	0	0	0	0	499	403	1021	433	0	0	
5	0	0	0	0	481	413	1021	419	0	0	
6	0	0	0	0	466	429	1021	408	0	0	
7	0	0	0	0	457	450	1021	403	0	0	
8	0	0	0	0	455	473	1021	404	0	0	
9	0	0	0	0	460	496	1021	410	0	0	
10	0	0	0	0	472	517	1021	421	0	0	
11	0	0	0	0	488	534	1021	435	0	0	
12	0	0	0	0	508	544	1021	452	0	0	
13	0	0	0	0	529	548	1021	470	0	0	
14	0	0	0	0	550	545	1021	486	0	0	
15	0	0	0	0	568	536	1021	499	0	0	
0	0	0	0	0	582	521	1021	508	0	0	
1	0	0	0	0	591	501	1021	513	0	0	
2	0	0	0	0	593	479	1021	512	0	0	
3	0	0	0	0	589	457	1021	507	0	0	
4	0	0	0	0	579	438	1021	496	0	0	
5	0	0	0	0	562	422	1020	481	0	0	
6	0	0	0	0	544	412	1021	466	0	0	
7	0	0	0	0	523	408	1021	449	0	0	
8	0	0	0	0	503	412	1021	433	0	0	
9	0	0	0	0	485	422	1021	420	0	0	
10	0	0	0	0	471	438	1020	411	0	0	
11	0	0	0	0	463	458	1021	407	0	0	
12	0	0	0	0	462	481	1021	408	0	0	
13	0	0	0	0	467	504	1021	415	0	0	
14	0	0	0	0	479	525	1021	428	0	0	
15	0	0	0	0	496	542	1021	443	0	0	
0	0	0	0	0	515	553	1021	460	0	0	
1	0	0	0	0	537	557	1021	478	0	0	
2	0	0	0	0	558	555	1021	495	0	0	
3	0	0	0	0	576	545	1021	508	0	0	
4	0	0	0	0	590	529	1020	517	0	0	
5	0	0	0	0	599	510	1021	521	0	0	
6	0	0	0	0	600	487	1021	519	0	0	
7	0	0	0	0	595	464	1021	512	0	0	
8	0	0	0	0	583	444	1021	500	0	0	
9	0	0	0	0	568	428	1021	485	0	0	
10	0	0	0	0	547	416	1021	467	0	0	
11	0	0	0	0	526	412	1021	449	0	0	
12	0	0	0	0	504	414	1021	433	0	0	
13	0	0	0	0	485	423	1021	419	0	0	
14	0	0	0	0	471	438	1021	409	0	0	
15	0	0	0	0	462	457	1021	404	0	0	
0	0	0	0	0	460	479	1021	406	0	0	
1	0	0	0	0	465	501	1021	412	0	0	
2	0	0	0	0	476	521	1021	423	0	0	
3	0	0	0	0	494	537	1021	439	0	0	
4	0	0	0	0	514	547	1021	455	0	0	
5	0	0	0	0	536	551	1021	473	0	0	
6	0	0	0	0	556	548	1021	490	0	0	
7	0	0	0	0	574	538	1021	503	0	0	
8	0	0	0	0	588	523	1021	513	0	0	
9	0	0	0	0	595	503	1021	517	0	0	
10	0	0	0	0	596	480	1021	515	0	0	
11	0	0	0	0	591	457	1021	508	0	0	
12	0	0	0	0	579	436	1021	497	0	0	
13	0	0	0	0	561	420	1020	481	0	0	
14	0	0	0	0	542	408	1021	463	0	0	
15	0	0	0	0	520	404	1021	446	0	0	
0	0	0	0	0	499	406	1021	429	0	0	
1	0	0	0	0	480	414	1021	414	0	0	
2	0	0	0	0	465	429	1021	403	0	0	
3	0	0	0	0	455	447	1021	397	0	0	
4	0	0	0	0	451	467	1021	396	0	0	
5	0	0	0	0	453	487	1021	399	0	0	
6	0	0	0	0	460	504	1021	407	0	0	
7	0	0	0	0	471	515	1021	416	0	0	
8	0	0	0	0	484	520	1021	427	0	0	
9	0	0	0	0	498	518	1021	437	0	0	
10	0	0	0	0	510	508	1021	445	0	0	
11	0	0	0	0	518	490	1021	449	0	0	
12	0	0	0	0	523	466	1021	448	0	0	
13	0	0	0	0	520	437	1021	442	0	0	
14	0	0	0	0	511	404	1021	429	0	0	
15	0	0	0	0	496	372	1021	412	0	0	
0	0	0	0	0	475	342	1021	390	0	0	
1	0	0	0	0	450	316	1021	365	0	0	
2	0	0	0	0	422	295	1021	339	0	0	
3	0	0	0	0	393	282	1021	313	0	0	
4	0	0	0	0	364	275	1021	289	0	0	
5	0	0	0	0	337	275	1021	266	0	0	
6	0	0	0	0	314	280	1021	247	0	0	
7	0	0	0	0	296	291	1021	233	0	0	
8	0	0	0	0	285	304	1021	224	0	0	
9	0	0	0	0	280	318	1021	221	0	0	
10	0	0	0	0	282	330	1021	223	0	0	
11	0	0	0	0	289	338	1021	230	0	0	
12	0	0	0	0	303	343	1021	240	0	0	
13	0	0	0	0	319	343	1021	254	0	0	
14	0	0	0	0	339	338	1021	270	0	0	
15	0	0	0	0	359	328	1021	285	0	0	
0	0	0	0	0	378	316	1021	300	0	0	
1	0	0	0	0	396	303	1021	314	0	0	
2	0	0	0	0	410	290	1021	326	0	0	
3	0	0	0	0	421	280	1021	335	0	0	
4	0	0	0	0	428	275	1021	342	0	0	
5	0	0	0	0	432	275	1021	347	0	0	
6	0	0	0	0	435	284	1021	352	0	0	
7	0	0	0	0	436	300	1021	357	0	0	
8	0	0	0	0	438	324	1021	364	0	0	
9	0	0	0	0	441	355	1021	371	0	0	
10	0	0	0	0	447	391	1020	382	0	0	
11	0	0	0	0	458	430	1021	396	0	0	
12	0	0	0	0	472	470	1021	414	0	0	
13	0	0	0	0	490	507	1021	434	0	0	
14	0	0	0	0	512	540	1021	456	0	0	
15	0	0	0	0	536	566	1021	479	0	0	
0	0	0	0	0	561	583	1021	500	0	0	
1	0	0	0	0	584	591	1021	520	0	0	
2	0	0	0	0	605	589	1021	536	0	0	
3	0	0	0	0	621	578	1021	547	0	0	
4	0	0	0	0	630	560	1020	552	0	0	
5	0	0	0	0	634	535	1021	551	0	0	
6	0	0	0	0	629	507	1021	544	0	0	
7	0	0	0	0	618	479	1021	531	0	0	
8	0	0	0	0	600	453	1021	513	0	0	
9	0	0	0	0	577	432	1021	492	0	0	
10	0	0	0	0	552	417	1021	470	0	0	
11	0	0	0	0	527	409	1021	449	0	0	
12	0	0	0	0	504	410	1021	431	0	0	
13	0	0	0	0	484	419	1021	416	0	0	
14	0	0	0	0	469	434	1021	407	0	0	
15	0	0	0	0	462	455	1021	404	0	0	
0	0	0	0	0	462	480	1021	407	0	0	
1	0	0	0	0	471	505	1021	417	0	0	
2	0	0	0	0	486	527	1021	431	0	0	
3	0	0	0	0	505	546	1020	449	0	0	
4	0	0	0	0	529	558	1021	469	0	0	
5	0	0	0	0	553	564	1021	490	0	0	
6	0	0	0	0	577	563	1021	509	0	0	
7	0	0	0	0	596	555	1021	524	0	0	
8	0	0	0	0	611	540	1020	535	0	0	
9	0	0	0	0	621	521	1021	540	0	0	
10	0	0	0	0	623	499	1021	540	0	0	
11	0	0	0	0	617	477	1021	533	0	0	
12	0	0	0	0	604	457	1021	521	0	0	
13	0	0	0	0	585	441	1021	506	0	0	
14	0	0	0	0	564	430	1021	488	0	0	
15	0	0	0	0	542	427	1021	470	0	0	
0	0	0	0	0	519	429	1021	453	0	0	
1	0	0	0	0	499	438	1021	439	0	0	
2	0	0	0	0	484	454	1020	430	0	0	
3	0	0	0	0	476	474	1021	425	0	0	
4	0	0	0	0	475	497	1021	427	0	0	
5	0	0	0	0	481	519	1021	434	0	0	
6	0	0	0	0	494	540	1021	446	0	0	
7	0	0	0	0	511	556	1021	460	0	0	
8	0	0	0	0	532	565	1021	476	0	0	
9	0	0	0	0	555	569	1021	493	0	0	
10	0	0	0	0	575	565	1021	508	0	0	
11	0	0	0	0	595	555	1021	520	0	0	
12	0	0	0	0	609	539	1021	528	0	0	
13	0	0	0	0	618	519	1021	532	0	0	
14	0	0	0	0	620	496	1021	530	0	0	
15	0	0	0	0	614	474	1021	522	0	0	
0	0	0	0	0	603	453	1021	511	0	0	
1	0	0	0	0	585	438	1021	496	0	0	
2	0	0	0	0	565	427	1021	479	0	0	
3	0	0	0	0	543	423	1021	462	0	0	
4	0	0	0	0	522	427	1021	448	0	0	
5	0	0	0	0	504	438	1021	437	0	0	
6	0	0	0	0	491	455	1021	430	0	0	
7	0	0	0	0	484	478	1021	428	0	0	
8	0	0	0	0	484	503	1021	432	0	0	
9	0	0	0	0	491	527	1021	442	0	0	
10	0	0	0	0	505	550	1021	456	0	0	
11	0	0	0	0	523	568	1020	472	0	0	
12	0	0	0	0	544	580	1021	491	0	0	
13	0	0	0	0	567	585	1021	509	0	0	
14	0	0	0	0	588	583	1021	526	0	0	
15	0	0	0	0	605	573	1021	539	0	0	
0	0	0	0	0	618	558	1021	547	0	0	
1	0	0	0	0	626	537	1021	550	0	0	
2	0	0	0	0	626	515	1021	547	0	0	
3	0	0	0	0	618	491	1021	539	0	0	
4	0	0	0	0	605	470	1020	525	0	0	
5	0	0	0	0	585	452	1021	507	0	0	
6	0	0	0	0	564	440	1021	488	0	0	
7	0	0	0	0	541	434	1021	469	0	0	
8	0	0	0	0	519	435	1021	452	0	0	
9	0	0	0	0	500	444	1021	438	0	0	
10	0	0	0	0	485	459	1020	428	0	0	
11	0	0	0	0	478	478	1021	425	0	0	
12	0	0	0	0	477	500	1021	428	0	0	
13	0	0	0	0	485	523	1021	436	0	0	
14	0	0	0	0	499	544	1021	450	0	0	
15	0	0	0	0	517	561	1021	467	0	0	
0	0	0	0	0	540	572	1021	486	0	0	
1	0	0	0	0	563	576	1021	505	0	0	
2	0	0	0	0	586	574	1021	523	0	0	
3	0	0	0	0	605	566	1021	537	0	0	
4	0	0	0	0	620	551	1021	547	0	0	
5	0	0	0	0	628	531	1021	551	0	0	
6	0	0	0	0	629	510	1021	549	0	0	
7	0	0	0	0	623	488	1021	541	0	0	
8	0	0	0	0	609	469	1021	528	0	0	
9	0	0	0	0	592	453	1021	511	0	0	
10	0	0	0	0	571	443	1021	492	0	0	
11	0	0	0	0	548	440	1021	474	0	0	
12	0	0	0	0	526	443	1021	457	0	0	
13	0	0	0	0	507	452	1021	442	0	0	
14	0	0	0	0	492	467	1021	432	0	0	
15	0	0	0	0	484	487	1021	428	0	0	
0	0	0	0	0	483	509	1021	430	0	0	
1	0	0	0	0	489	531	1021	437	0	0	
2	0	0	0	0	500	550	1021	448	0	0	
3	0	0	0	0	518	564	1021	463	0	0	
4	0	0	0	0	537	573	1021	479	0	0	
5	0	0	0	0	558	575	1021	496	0	0	
6	0	0	0	0	577	571	1021	511	0	0	
7	0	0	0	0	593	559	1021	523	0	0	
8	0	0	0	0	606	543	1021	530	0	0	
9	0	0	0	0	612	521	1021	532	0	0	
10	0	0	0	0	611	498	1021	529	0	0	
11	0	0	0	0	604	475	1021	521	0	0	
12	0	0	0	0	590	455	1021	508	0	0	
13	0	0	0	0	572	439	1021	493	0	0	
14	0	0	0	0	552	428	1021	476	0	0	
15	0	0	0	0	531	425	1021	460	0	0	
0	0	0	0	0	511	428	1021	444	0	0	
1	0	0	0	0	493	439	1021	432	0	0	
2	0	0	0	0	481	455	1021	425	0	0	
3	0	0	0	0	475	475	1021	422	0	0	
4	0	0	0	0	476	498	1021	425	0	0	
5	0	0	0	0	483	520	1021	434	0	0	
6	0	0	0	0	498	541	1020	447	0	0	
7	0	0	0	0	516	557	1021	463	0	0	
8	0	0	0	0	539	567	1021	482	0	0	
9	0	0	0	0	562	571	1021	500	0	0	
10	0	0	0	0	583	568	1021	517	0	0	
11	0	0	0	0	601	558	1021	531	0	0	
12	0	0	0	0	615	543	1020	539	0	0	
13	0	0	0	0	623	523	1021	542	0	0	
14	0	0	0	0	623	501	1021	539	0	0	
15	0	0	0	0	617	479	1021	531	0	0	
0	0	0	0	0	604	459	1021	518	0	0	
1	0	0	0	0	586	443	1021	501	0	0	
2	0	0	0	0	564	433	1021	483	0	0	
3	0	0	0	0	542	429	1021	465	0	0	
4	0	0	0	0	520	432	1021	448	0	0	
5	0	0	0	0	501	442	1020	434	0	0	
6	0	0	0	0	486	457	1020	424	0	0	
7	0	0	0	0	477	478	1021	420	0	0	
8	0	0	0	0	475	499	1021	422	0	0	
9	0	0	0	0	480	521	1021	429	0	0	
10	0	0	0	0	492	540	1021	440	0	0	
11	0	0	0	0	509	555	1021	455	0	0	
12	0	0	0	0	529	564	1021	472	0	0	
13	0	0	0	0	550	566	1021	489	0	0	
14	0	0	0	0	572	562	1021	504	0	0	
15	0	0	0	0	589	551	1021	517	0	0	
0	0	0	0	0	603	534	1021	526	0	0	
1	0	0	0	0	611	514	1021	529	0	0	
2	0	0	0	0	612	492	1021	528	0	0	
3	0	0	0	0	607	470	1021	521	0	0	
4	0	0	0	0	596	451	1020	511	0	0	
5	0	0	0	0	579	437	1020	497	0	0	
6	0	0	0	0	561	428	1021	482	0	0	
7	0	0	0	0	541	427	1021	466	0	0	
8	0	0	0	0	521	431	1021	452	0	0	
9	0	0	0	0	504	442	1021	440	0	0	
10	0	0	0	0	491	459	1021	432	0	0	
11	0	0	0	0	484	480	1021	429	0	0	
12	0	0	0	0	483	503	1021	431	0	0	
13	0	0	0	0	489	526	1021	438	0	0	
14	0	0	0	0	501	546	1020	450	0	0	
15	0	0	0	0	518	561	1021	464	0	0	
0	0	0	0	0	539	571	1021	481	0	0	
1	0	0	0	0	560	574	1021	497	0	0	
2	0	0	0	0	580	569	1021	512	0	0	
3	0	0	0	0	599	559	1021	525	0	0	
4	0	0	0	0	611	543	1020	532	0	0	
5	0	0	0	0	620	523	1021	535	0	0	
6	0	0	0	0	620	500	1021	533	0	0	
7	0	0	0	0	614	479	1021	525	0	0	
8	0	0	0	0	602	459	1021	513	0	0	
9	0	0	0	0	585	444	1021	497	0	0	
10	0	0	0	0	566	435	1021	480	0	0	
11	0	0	0	0	544	432	1021	463	0	0	
12	0	0	0	0	524	436	1021	448	0	0	
13	0	0	0	0	506	447	1020	435	0	0	
14	0	0	0	0	492	464	1021	427	0	0	
15	0	0	0	0	485	485	1021	423	0	0	
0	0	0	0	0	485	508	1021	427	0	0	
1	0	0	0	0	491	531	1020	434	0	0	
2	0	0	0	0	504	551	1021	447	0	0	
3	0	0	0	0	521	567	1020	462	0	0	
4	0	0	0	0	542	576	1021	479	0	0	
5	0	0	0	0	563	579	1021	496	0	0	
6	0	0	0	0	583	575	1021	511	0	0	
7	0	0	0	0	600	564	1021	524	0	0	
8	0	0	0	0	613	547	1021	532	0	0	
9	0	0	0	0	620	527	1021	535	0	0	
10	0	0	0	0	620	504	1021	533	0	0	
11	0	0	0	0	615	482	1021	526	0	0	
12	0	0	0	0	602	462	1021	514	0	0	
13	0	0	0	0	587	448	1021	499	0	0	
14	0	0	0	0	568	438	1021	483	0	0	
15	0	0	0	0	547	435	1021	467	0	0	
0	0	0	0	0	527	440	1021	452	0	0	
1	0	0	0	0	510	450	1021	440	0	0	
2	0	0	0	0	498	467	1021	432	0	0	
3	0	0	0	0	492	487	1021	429	0	0	
4	0	0	0	0	492	510	1021	431	0	0	
5	0	0	0	0	498	532	1021	438	0	0	
6	0	0	0	0	510	551	1021	449	0	0	
7	0	0	0	0	526	565	1021	463	0	0	
8	0	0	0	0	545	573	1021	478	0	0	
9	0	0	0	0	565	575	1021	493	0	0	
10	0	0	0	0	583	570	1021	507	0	0	
11	0	0	0	0	600	558	1021	518	0	0	
12	0	0	0	0	611	542	1021	525	0	0	
13	0	0	0	0	618	521	1021	527	0	0	
14	0	0	0	0	617	498	1021	523	0	0	
15	0	0	0	0	611	476	1021	515	0	0	
0	0	0	0	0	599	457	1021	503	0	0	
1	0	0	0	0	582	442	1021	487	0	0	
2	0	0	0	0	564	434	1021	471	0	0	
3	0	0	0	0	543	432	1021	455	0	0	
4	0	0	0	0	525	437	1021	441	0	0	
5	0	0	0	0	509	449	1021	431	0	0	
6	0	0	0	0	498	467	1020	424	0	0	
7	0	0	0	0	493	489	1021	423	0	0	
8	0	0	0	0	495	513	1021	429	0	0	
9	0	0	0	0	504	537	1021	440	0	0	
10	0	0	0	0	518	558	1021	455	0	0	
11	0	0	0	0	537	574	1021	472	0	0	
12	0	0	0	0	558	583	1021	491	0	0	
13	0	0	0	0	580	587	1021	510	0	0	
14	0	0	0	0	600	582	1021	526	0	0	
15	0	0	0	0	616	571	1021	539	0	0	
0	0	0	0	0	627	553	1021	546	0	0	
1	0	0	0	0	633	532	1021	548	0	0	
2	0	0	0	0	631	509	1021	544	0	0	
3	0	0	0	0	623	485	1021	535	0	0	
4	0	0	0	0	608	464	1021	521	0	0	
5	0	0	0	0	588	448	1020	504	0	0	
6	0	0	0	0	567	437	1021	485	0	0	
7	0	0	0	0	544	434	1021	467	0	0	
8	0	0	0	0	523	437	1021	450	0	0	
9	0	0	0	0	504	448	1021	436	0	0	
10	0	0	0	0	491	464	1021	428	0	0	
11	0	0	0	0	484	485	1021	424	0	0	
12	0	0	0	0	484	508	1021	427	0	0	
13	0	0	0	0	491	531	1021	435	0	0	
14	0	0	0	0	505	551	1021	449	0	0	
15	0	0	0	0	523	567	1021	465	0	0	
0	0	0	0	0	546	577	1021	484	0	0	
1	0	0	0	0	569	581	1021	503	0	0	
2	0	0	0	0	591	577	1021	520	0	0	
3	0	0	0	0	609	568	1021	534	0	0	
4	0	0	0	0	623	552	1020	543	0	0	
5	0	0	0	0	632	532	1021	547	0	0	
6	0	0	0	0	633	510	1021	546	0	0	
7	0	0	0	0	627	488	1021	539	0	0	
8	0	0	0	0	614	468	1021	527	0	0	
9	0	0	0	0	598	453	1021	511	0	0	
10	0	0	0	0	577	444	1021	494	0	0	
11	0	0	0	0	555	441	1021	476	0	0	
12	0	0	0	0	534	445	1021	459	0	0	
13	0	0	0	0	515	456	1020	446	0	0	
14	0	0	0	0	501	472	1021	437	0	0	
15	0	0	0	0	493	492	1021	433	0	0	
0	0	0	0	0	492	515	1021	435	0	0	
1	0	0	0	0	499	537	1021	443	0	0	
2	0	0	0	0	511	556	1021	455	0	0	
3	0	0	0	0	528	572	1020	470	0	0	
4	0	0	0	0	550	581	1021	487	0	0	
5	0	0	0	0	571	583	1021	505	0	0	
6	0	0	0	0	591	579	1021	520	0	0	
7	0	0	0	0	609	568	1021	533	0	0	
8	0	0	0	0	623	552	1021	541	0	0	
9	0	0	0	0	631	532	1021	544	0	0	
10	0	0	0	0	632	510	1021	542	0	0	
11	0	0	0	0	625	488	1021	534	0	0	
12	0	0	0	0	613	468	1021	521	0	0	
13	0	0	0	0	596	454	1021	505	0	0	
14	0	0	0	0	575	444	1021	488	0	0	
15	0	0	0	0	553	441	1021	471	0	0	
0	0	0	0	0	532	446	1021	455	0	0	
1	0	0	0	0	513	456	1021	443	0	0	
2	0	0	0	0	498	472	1020	434	0	0	
3	0	0	0	0	491	492	1021	431	0	0	
4	0	0	0	0	489	514	1021	433	0	0	
5	0	0	0	0	495	536	1021	440	0	0	
6	0	0	0	0	507	555	1021	452	0	0	
7	0	0	0	0	524	569	1021	466	0	0	
8	0	0	0	0	544	578	1021	482	0	0	
9	0	0	0	0	565	580	1021	499	0	0	
10	0	0	0	0	585	575	1021	514	0	0	
11	0	0	0	0	603	565	1021	526	0	0	
12	0	0	0	0	615	548	1020	533	0	0	
13	0	0	0	0	623	527	1021	535	0	0	
14	0	0	0	0	622	504	1021	531	0	0	
15	0	0	0	0	614	481	1021	523	0	0	
0	0	0	0	0	600	460	1021	510	0	0	
1	0	0	0	0	582	444	1020	495	0	0	
2	0	0	0	0	562	435	1021	478	0	0	
3	0	0	0	0	540	432	1021	463	0	0	
4	0	0	0	0	521	436	1021	449	0	0	
5	0	0	0	0	504	448	1021	438	0	0	
6	0	0	0	0	493	465	1021	432	0	0	
7	0	0	0	0	487	487	1021	431	0	0	
8	0	0	0	0	489	511	1021	435	0	0	
9	0	0	0	0	497	534	1021	445	0	0	
10	0	0	0	0	512	555	1021	458	0	0	
11	0	0	0	0	531	571	1021	474	0	0	
12	0	0	0	0	551	581	1021	491	0	0	
13	0	0	0	0	574	583	1021	508	0	0	
14	0	0	0	0	594	579	1021	523	0	0	
15	0	0	0	0	610	568	1021	535	0	0	
0	0	0	0	0	623	551	1021	541	0	0	
1	0	0	0	0	630	531	1021	543	0	0	
2	0	0	0	0	629	508	1021	539	0	0	
3	0	0	0	0	621	485	1021	530	0	0	
4	0	0	0	0	607	465	1021	517	0	0	
5	0	0	0	0	589	449	1021	500	0	0	
6	0	0	0	0	568	439	1021	483	0	0	
7	0	0	0	0	545	436	1021	465	0	0	
8	0	0	0	0	524	440	1021	450	0	0	
9	0	0	0	0	505	450	1021	437	0	0	
10	0	0	0	0	492	467	1021	429	0	0	
11	0	0	0	0	484	487	1021	426	0	0	
12	0	0	0	0	483	510	1021	428	0	0	
13	0	0	0	0	490	532	1021	437	0	0	
14	0	0	0	0	503	551	1021	449	0	0	
15	0	0	0	0	521	566	1021	464	0	0	
0	0	0	0	0	542	575	1021	482	0	0	
1	0	0	0	0	563	577	1021	499	0	0	
2	0	0	0	0	584	573	1021	515	0	0	
3	0	0	0	0	601	561	1021	527	0	0	
4	0	0	0	0	615	545	1021	535	0	0	
5	0	0	0	0	622	524	1021	537	0	0	
6	0	0	0	0	622	501	1021	535	0	0	
7	0	0	0	0	615	479	1021	527	0	0	
8	0	0	0	0	602	459	1021	515	0	0	
9	0	0	0	0	584	444	1021	499	0	0	
10	0	0	0	0	564	434	1021	482	0	0	
11	0	0	0	0	542	432	1021	464	0	0	
12	0	0	0	0	521	436	1021	448	0	0	
13	0	0	0	0	502	446	1021	435	0	0	
14	0	0	0	0	489	463	1021	426	0	0	
15	0	0	0	0	481	483	1021	423	0	0	
0	0	0	0	0	480	506	1021	425	0	0	
1	0	0	0	0	486	528	1021	433	0	0	
2	0	0	0	0	499	547	1021	445	0	0	
3	0	0	0	0	515	562	1021	460	0	0	
4	0	0	0	0	536	571	1021	477	0	0	
5	0	0	0	0	557	573	1021	494	0	0	
6	0	0	0	0	578	569	1021	510	0	0	
7	0	0	0	0	595	558	1021	523	0	0	
8	0	0	0	0	608	541	1021	531	0	0	
9	0	0	0	0	615	520	1021	534	0	0	
10	0	0	0	0	615	498	1021	531	0	0	
11	0	0	0	0	608	476	1021	524	0	0	
12	0	0	0	0	596	456	1021	511	0	0	
13	0	0	0	0	578	441	1021	495	0	0	
14	0	0	0	0	558	432	1021	478	0	0	
15	0	0	0	0	536	429	1021	460	0	0	
0	0	0	0	0	515	433	1021	445	0	0	
1	0	0	0	0	497	443	1021	432	0	0	
2	0	0	0	0	483	458	1021	423	0	0	
3	0	0	0	0	476	478	1021	419	0	0	
4	0	0	0	0	475	499	1021	421	0	0	
5	0	0	0	0	481	519	1021	428	0	0	
6	0	0	0	0	493	537	1021	440	0	0	
7	0	0	0	0	509	550	1020	455	0	0	
8	0	0	0	0	529	558	1021	471	0	0	
9	0	0	0	0	549	559	1021	487	0	0	
10	0	0	0	0	568	554	1021	502	0	0	
11	0	0	0	0	585	543	1021	513	0	0	
12	0	0	0	0	596	526	1020	520	0	0	
13	0	0	0	0	604	506	1021	522	0	0	
14	0	0	0	0	602	484	1021	519	0	0	
15	0	0	0	0	595	462	1021	510	0	0	
0	0	0	0	0	583	443	1021	496	0	0	
1	0	0	0	0	564	428	1021	479	0	0	
2	0	0	0	0	544	420	1021	461	0	0	
3	0	0	0	0	523	417	1021	443	0	0	
4	0	0	0	0	502	422	1021	428	0	0	
5	0	0	0	0	485	433	1021	415	0	0	
6	0	0	0	0	472	449	1021	408	0	0	
7	0	0	0	0	466	470	1021	405	0	0	
8	0	0	0	0	466	492	1021	409	0	0	
9	0	0	0	0	474	515	1021	418	0	0	
10	0	0	0	0	487	534	1021	432	0	0	
11	0	0	0	0	504	548	1020	448	0	0	
12	0	0	0	0	526	556	1021	466	0	0	
13	0	0	0	0	547	558	1021	484	0	0	
14	0	0	0	0	567	553	1021	499	0	0	
15	0	0	0	0	583	541	1020	511	0	0	
0	0	0	0	0	596	524	1021	519	0	0	
1	0	0	0	0	601	502	1021	521	0	0	
2	0	0	0	0	600	479	1021	517	0	0	
3	0	0	0	0	593	456	1021	508	0	0	
4	0	0	0	0	579	436	1021	494	0	0	
5	0	0	0	0	560	421	1021	477	0	0	
6	0	0	0	0	540	412	1021	459	0	0	
7	0	0	0	0	517	409	1021	441	0	0	
8	0	0	0	0	497	414	1021	425	0	0	
9	0	0	0	0	479	425	1021	412	0	0	
10	0	0	0	0	466	442	1021	404	0	0	
11	0	0	0	0	459	463	1021	402	0	0	
12	0	0	0	0	459	486	1021	405	0	0	
13	0	0	0	0	467	508	1021	415	0	0	
14	0	0	0	0	480	528	1021	428	0	0	
15	0	0	0	0	498	543	1020	444	0	0	
0	0	0	0	0	520	552	1021	463	0	0	
1	0	0	0	0	543	555	1021	481	0	0	
2	0	0	0	0	564	550	1021	498	0	0	
3	0	0	0	0	582	539	1021	511	0	0	
4	0	0	0	0	595	524	1020	519	0	0	
5	0	0	0	0	602	504	1021	523	0	0	
6	0	0	0	0	602	481	1021	519	0	0	
7	0	0	0	0	595	460	1021	511	0	0	
8	0	0	0	0	583	441	1021	498	0	0	
9	0	0	0	0	565	426	1020	482	0	0	
10	0	0	0	0	545	417	1021	464	0	0	
11	0	0	0	0	524	415	1021	447	0	0	
12	0	0	0	0	503	420	1021	431	0	0	
13	0	0	0	0	486	432	1021	419	0	0	
14	0	0	0	0	473	448	1021	410	0	0	
15	0	0	0	0	467	469	1021	408	0	0	
0	0	0	0	0	467	492	1021	411	0	0	
1	0	0	0	0	474	513	1021	419	0	0	
2	0	0	0	0	487	532	1021	432	0	0	
3	0	0	0	0	505	545	1020	448	0	0	
4	0	0	0	0	526	553	1021	465	0	0	
5	0	0	0	0	546	554	1021	483	0	0	
6	0	0	0	0	566	548	1021	499	0	0	
7	0	0	0	0	582	536	1021	511	0	0	
8	0	0	0	0	593	519	1021	519	0	0	
9	0	0	0	0	599	497	1021	521	0	0	
10	0	0	0	0	597	474	1021	518	0	0	
11	0	0	0	0	589	452	1021	509	0	0	
12	0	0	0	0	575	433	1021	496	0	0	
13	0	0	0	0	557	418	1021	479	0	0	
14	0	0	0	0	536	409	1021	462	0	0	
15	0	0	0	0	515	408	1021	445	0	0	
0	0	0	0	0	495	413	1021	430	0	0	
1	0	0	0	0	478	425	1021	418	0	0	
2	0	0	0	0	467	443	1021	410	0	0	
3	0	0	0	0	462	465	1021	408	0	0	
4	0	0	0	0	464	488	1021	412	0	0	
5	0	0	0	0	472	511	1021	422	0	0	
6	0	0	0	0	486	531	1021	435	0	0	
7	0	0	0	0	505	546	1021	451	0	0	
8	0	0	0	0	526	555	1021	467	0	0	
9	0	0	0	0	547	556	1021	483	0	0	
10	0	0	0	0	566	550	1021	498	0	0	
11	0	0	0	0	581	536	1021	509	0	0	
12	0	0	0	0	592	518	1021	515	0	0	
13	0	0	0	0	597	496	1021	516	0	0	
14	0	0	0	0	594	471	1021	511	0	0	
15	0	0	0	0	586	448	1021	502	0	0	
0	0	0	0	0	571	427	1021	489	0	0	
1	0	0	0	0	553	411	1021	473	0	0	
2	0	0	0	0	532	402	1021	456	0	0	
3	0	0	0	0	511	400	1021	440	0	0	
4	0	0	0	0	492	405	1021	425	0	0	
5	0	0	0	0	475	417	1021	414	0	0	
6	0	0	0	0	464	436	1021	408	0	0	
7	0	0	0	0	459	458	1021	407	0	0	
8	0	0	0	0	462	482	1021	411	0	0	
9	0	0	0	0	470	505	1021	420	0	0	
10	0	0	0	0	484	526	1021	433	0	0	
11	0	0	0	0	503	540	1021	449	0	0	
12	0	0	0	0	523	549	1021	465	0	0	
13	0	0	0	0	543	550	1021	481	0	0	
14	0	0	0	0	561	543	1021	495	0	0	
15	0	0	0	0	575	530	1021	505	0	0	
0	0	0	0	0	586	511	1021	511	0	0	
1	0	0	0	0	590	489	1021	512	0	0	
2	0	0	0	0	587	465	1021	507	0	0	
3	0	0	0	0	577	441	1021	498	0	0	
4	0	0	0	0	563	421	1021	484	0	0	
5	0	0	0	0	544	406	1021	467	0	0	
6	0	0	0	0	524	397	1021	450	0	0	
7	0	0	0	0	502	394	1021	433	0	0	
8	0	0	0	0	481	399	1021	417	0	0	
9	0	0	0	0	464	410	1021	405	0	0	
10	0	0	0	0	451	427	1020	398	0	0	
11	0	0	0	0	446	448	1021	395	0	0	
12	0	0	0	0	447	470	1021	399	0	0	
13	0	0	0	0	455	492	1021	408	0	0	
14	0	0	0	0	469	512	1021	422	0	0	
15	0	0	0	0	487	526	1021	438	0	0	
0	0	0	0	0	508	535	1021	455	0	0	
1	0	0	0	0	530	537	1021	473	0	0	
2	0	0	0	0	551	533	1021	489	0	0	
3	0	0	0	0	568	522	1021	501	0	0	
4	0	0	0	0	580	505	1020	508	0	0	
5	0	0	0	0	587	485	1021	510	0	0	
6	0	0	0	0	586	462	1021	505	0	0	
7	0	0	0	0	577	439	1021	496	0	0	
8	0	0	0	0	563	419	1021	480	0	0	
9	0	0	0	0	543	403	1020	463	0	0	
10	0	0	0	0	522	392	1021	444	0	0	
11	0	0	0	0	499	388	1021	425	0	0	
12	0	0	0	0	476	391	1020	407	0	0	
13	0	0	0	0	456	399	1021	393	0	0	
14	0	0	0	0	441	415	1020	383	0	0	
15	0	0	0	0	433	434	1021	379	0	0	
0	0	0	0	0	431	455	1021	382	0	0	
1	0	0	0	0	437	475	1021	389	0	0	
2	0	0	0	0	448	494	1020	401	0	0	
3	0	0	0	0	466	508	1020	417	0	0	
4	0	0	0	0	487	516	1021	434	0	0	
5	0	0	0	0	509	519	1021	452	0	0	
6	0	0	0	0	530	515	1021	468	0	0	
7	0	0	0	0	548	504	1021	482	0	0	
8	0	0	0	0	562	489	1021	491	0	0	
9	0	0	0	0	570	470	1021	495	0	0	
10	0	0	0	0	572	450	1021	494	0	0	
11	0	0	0	0	566	430	1021	488	0	0	
12	0	0	0	0	555	413	1021	478	0	0	
13	0	0	0	0	538	400	1020	464	0	0	
14	0	0	0	0	520	393	1021	449	0	0	
15	0	0	0	0	500	393	1021	434	0	0	
0	0	0	0	0	481	399	1021	420	0	0	
1	0	0	0	0	464	411	1021	409	0	0	
2	0	0	0	0	452	429	1020	401	0	0	
3	0	0	0	0	446	450	1021	399	0	0	
4	0	0	0	0	447	472	1021	403	0	0	
5	0	0	0	0	455	494	1021	411	0	0	
6	0	0	0	0	468	512	1021	423	0	0	
7	0	0	0	0	486	526	1021	438	0	0	
8	0	0	0	0	506	534	1021	455	0	0	
9	0	0	0	0	527	535	1021	471	0	0	
10	0	0	0	0	548	529	1021	486	0	0	
11	0	0	0	0	565	518	1021	497	0	0	
12	0	0	0	0	576	501	1020	504	0	0	
13	0	0	0	0	583	481	1021	507	0	0	
14	0	0	0	0	582	459	1021	503	0	0	
15	0	0	0	0	575	438	1021	495	0	0	
0	0	0	0	0	563	419	1021	483	0	0	
1	0	0	0	0	546	406	1021	468	0	0	
2	0	0	0	0	526	399	1021	452	0	0	
3	0	0	0	0	506	398	1021	436	0	0	
4	0	0	0	0	487	404	1021	422	0	0	
5	0	0	0	0	471	416	1021	412	0	0	
6	0	0	0	0	458	433	1020	404	0	0	
7	0	0	0	0	453	455	1021	403	0	0	
8	0	0	0	0	454	477	1021	407	0	0	
9	0	0	0	0	461	499	1021	416	0	0	
10	0	0	0	0	473	517	1021	428	0	0	
11	0	0	0	0	491	530	1021	443	0	0	
12	0	0	0	0	510	537	1021	460	0	0	
13	0	0	0	0	529	538	1021	476	0	0	
14	0	0	0	0	548	531	1021	490	0	0	
15	0	0	0	0	564	519	1021	501	0	0	
0	0	0	0	0	575	501	1021	508	0	0	
1	0	0	0	0	581	480	1021	509	0	0	
2	0	0	0	0	579	458	1021	505	0	0	
3	0	0	0	0	572	437	1021	496	0	0	
4	0	0	0	0	559	418	1021	483	0	0	
5	0	0	0	0	541	404	1020	467	0	0	
6	0	0	0	0	522	397	1021	449	0	0	
7	0	0	0	0	501	396	1021	432	0	0	
8	0	0	0	0	481	401	1021	417	0	0	
9	0	0	0	0	465	414	1021	406	0	0	
10	0	0	0	0	454	432	1021	398	0	0	
11	0	0	0	0	448	453	1021	396	0	0	
12	0	0	0	0	449	476	1021	400	0	0	
13	0	0	0	0	457	497	1021	409	0	0	
14	0	0	0	0	470	516	1020	423	0	0	
15	0	0	0	0	489	531	1021	439	0	0	
0	0	0	0	0	509	539	1021	457	0	0	
1	0	0	0	0	530	540	1021	475	0	0	
2	0	0	0	0	550	534	1021	491	0	0	
3	0	0	0	0	567	522	1021	504	0	0	
4	0	0	0	0	578	505	1020	511	0	0	
5	0	0	0	0	584	484	1021	513	0	0	
6	0	0	0	0	583	462	1021	510	0	0	
7	0	0	0	0	575	440	1021	502	0	0	
8	0	0	0	0	562	421	1021	489	0	0	
9	0	0	0	0	544	407	1021	472	0	0	
10	0	0	0	0	524	399	1021	455	0	0	
11	0	0	0	0	503	398	1021	437	0	0	
12	0	0	0	0	483	403	1021	421	0	0	
13	0	0	0	0	465	414	1021	408	0	0	
14	0	0	0	0	453	431	1021	399	0	0	
15	0	0	0	0	447	451	1021	396	0	0	
0	0	0	0	0	447	472	1021	398	0	0	
1	0	0	0	0	453	493	1021	404	0	0	
2	0	0	0	0	464	509	1021	415	0	0	
3	0	0	0	0	479	520	1020	428	0	0	
4	0	0	0	0	497	524	1021	441	0	0	
5	0	0	0	0	514	521	1021	454	0	0	
6	0	0	0	0	528	510	1021	464	0	0	
7	0	0	0	0	539	492	1021	471	0	0	
8	0	0	0	0	544	469	1021	472	0	0	
9	0	0	0	0	543	441	1021	467	0	0	
10	0	0	0	0	534	412	1021	456	0	0	
11	0	0	0	0	517	383	1020	439	0	0	
12	0	0	0	0	495	356	1021	419	0	0	
13	0	0	0	0	468	334	1020	394	0	0	
14	0	0	0	0	440	318	1021	368	0	0	
15	0	0	0	0	409	308	1021	342	0	0	
0	0	0	0	0	380	304	1021	317	0	0	
1	0	0	0	0	354	306	1021	295	0	0	
2	0	0	0	0	332	314	1021	278	0	0	
3	0	0	0	0	316	326	1021	264	0	0	
4	0	0	0	0	306	339	1021	256	0	0	
5	0	0	0	0	303	351	1021	254	0	0	
6	0	0	0	0	307	360	1021	256	0	0	
7	0	0	0	0	314	365	1020	261	0	0	
8	0	0	0	0	326	364	1021	268	0	0	
9	0	0	0	0	338	355	1021	276	0	0	
10	0	0	0	0	351	342	1021	284	0	0	
11	0	0	0	0	361	322	1021	289	0	0	
12	0	0	0	0	368	298	1020	292	0	0	
13	0	0	0	0	373	273	1021	292	0	0	
14	0	0	0	0	372	248	1021	289	0	0	
15	0	0	0	0	367	226	1021	283	0	0	
0	0	0	0	0	360	210	1020	276	0	0	
1	0	0	0	0	351	200	1020	270	0	0	
2	0	0	0	0	343	201	1021	264	0	0	
3	0	0	0	0	336	211	1021	262	0	0	
4	0	0	0	0	333	231	1021	263	0	0	
5	0	0	0	0	335	260	1021	271	0	0	
6	0	0	0	0	344	297	1020	283	0	0	
7	0	0	0	0	359	339	1021	302	0	0	
8	0	0	0	0	383	385	1021	327	0	0	
9	0	0	0	0	412	429	1021	356	0	0	
10	0	0	0	0	444	469	1021	389	0	0	
11	0	0	0	0	480	503	1020	423	0	0	
12	0	0	0	0	517	528	1021	455	0	0	
13	0	0	0	0	550	543	1021	485	0	0	
14	0	0	0	0	579	548	1020	510	0	0	
15	0	0	0	0	601	543	1021	529	0	0	
0	0	0	0	0	615	529	1021	540	0	0	
1	0	0	0	0	621	508	1021	543	0	0	
2	0	0	0	0	617	484	1021	537	0	0	
3	0	0	0	0	604	459	1021	525	0	0	
4	0	0	0	0	583	435	1021	506	0	0	
5	0	0	0	0	558	415	1020	483	0	0	
6	0	0	0	0	529	401	1021	460	0	0	
7	0	0	0	0	501	394	1021	436	0	0	
8	0	0	0	0	474	394	1021	414	0	0	
9	0	0	0	0	451	402	1020	398	0	0	
10	0	0	0	0	435	416	1020	387	0	0	
11	0	0	0	0	428	436	1021	383	0	0	
12	0	0	0	0	428	457	1021	386	0	0	
13	0	0	0	0	437	480	1021	396	0	0	
14	0	0	0	0	453	499	1021	411	0	0	
15	0	0	0	0	475	515	1021	429	0	0	
0	0	0	0	0	499	525	1021	450	0	0	
1	0	0	0	0	524	528	1021	470	0	0	
2	0	0	0	0	547	525	1021	488	0	0	
3	0	0	0	0	567	515	1021	503	0	0	
4	0	0	0	0	582	500	1021	512	0	0	
5	0	0	0	0	589	481	1021	515	0	0	
6	0	0	0	0	589	460	1021	512	0	0	
7	0	0	0	0	582	440	1021	504	0	0	
8	0	0	0	0	568	422	1021	490	0	0	
9	0	0	0	0	551	408	1021	474	0	0	
10	0	0	0	0	530	400	1021	456	0	0	
11	0	0	0	0	508	399	1021	440	0	0	
12	0	0	0	0	488	405	1020	424	0	0	
13	0	0	0	0	472	417	1021	414	0	0	
14	0	0	0	0	460	435	1021	408	0	0	
15	0	0	0	0	455	456	1021	407	0	0	
0	0	0	0	0	457	480	1021	412	0	0	
1	0	0	0	0	465	502	1021	422	0	0	
2	0	0	0	0	480	521	1021	436	0	0	
3	0	0	0	0	498	535	1020	453	0	0	
4	0	0	0	0	520	543	1021	471	0	0	
5	0	0	0	0	541	544	1021	488	0	0	
6	0	0	0	0	561	538	1021	504	0	0	
7	0	0	0	0	578	526	1021	515	0	0	
8	0	0	0	0	589	509	1021	521	0	0	
9	0	0	0	0	593	487	1021	522	0	0	
10	0	0	0	0	591	465	1021	516	0	0	
11	0	0	0	0	583	443	1021	506	0	0	
12	0	0	0	0	567	423	1021	491	0	0	
13	0	0	0	0	548	409	1021	473	0	0	
14	0	0	0	0	526	400	1021	455	0	0	
15	0	0	0	0	504	398	1021	437	0	0	
0	0	0	0	0	483	402	1021	421	0	0	
1	0	0	0	0	465	413	1021	409	0	0	
2	0	0	0	0	453	430	1021	402	0	0	
3	0	0	0	0	448	451	1021	401	0	0	
4	0	0	0	0	450	474	1021	406	0	0	
5	0	0	0	0	459	496	1021	417	0	0	
6	0	0	0	0	473	514	1021	431	0	0	
7	0	0	0	0	493	529	1021	449	0	0	
8	0	0	0	0	515	537	1021	467	0	0	
9	0	0	0	0	538	540	1021	486	0	0	
10	0	0	0	0	559	535	1021	502	0	0	
11	0	0	0	0	577	524	1021	515	0	0	
12	0	0	0	0	590	509	1021	523	0	0	
13	0	0	0	0	596	489	1021	525	0	0	
14	0	0	0	0	595	467	1021	521	0	0	
15	0	0	0	0	588	447	1021	512	0	0	
0	0	0	0	0	573	429	1021	498	0	0	
1	0	0	0	0	555	415	1021	480	0	0	
2	0	0	0	0	533	407	1021	462	0	0	
3	0	0	0	0	510	406	1021	444	0	0	
4	0	0	0	0	489	411	1021	427	0	0	
5	0	0	0	0	470	422	1021	415	0	0	
6	0	0	0	0	457	438	1021	406	0	0	
7	0	0	0	0	450	459	1021	403	0	0	
8	0	0	0	0	451	480	1021	406	0	0	
9	0	0	0	0	458	501	1021	415	0	0	
10	0	0	0	0	471	519	1021	428	0	0	
11	0	0	0	0	489	532	1021	444	0	0	
12	0	0	0	0	510	539	1021	461	0	0	
13	0	0	0	0	531	539	1021	479	0	0	
14	0	0	0	0	551	533	1021	494	0	0	
15	0	0	0	0	567	520	1021	506	0	0	
0	0	0	0	0	579	502	1021	513	0	0	
1	0	0	0	0	584	481	1021	515	0	0	
2	0	0	0	0	583	459	1021	511	0	0	
3	0	0	0	0	575	436	1021	502	0	0	
4	0	0	0	0	560	418	1020	488	0	0	
5	0	0	0	0	542	404	1021	472	0	0	
6	0	0	0	0	521	396	1021	454	0	0	
7	0	0	0	0	501	395	1021	436	0	0	
8	0	0	0	0	480	400	1021	420	0	0	
9	0	0	0	0	463	413	1021	408	0	0	
10	0	0	0	0	452	430	1021	400	0	0	
11	0	0	0	0	446	450	1021	398	0	0	
12	0	0	0	0	448	473	1021	402	0	0	
13	0	0	0	0	455	493	1021	411	0	0	
14	0	0	0	0	469	511	1020	423	0	0	
15	0	0	0	0	487	524	1021	440	0	0	
0	0	0	0	0	507	531	1021	456	0	0	
1	0	0	0	0	528	531	1021	473	0	0	
2	0	0	0	0	547	524	1021	487	0	0	
3	0	0	0	0	562	511	1021	499	0	0	
4	0	0	0	0	573	493	1021	504	0	0	
5	0	0	0	0	577	472	1021	504	0	0	
6	0	0	0	0	575	448	1021	499	0	0	
7	0	0	0	0	566	426	1021	488	0	0	
8	0	0	0	0	551	408	1021	474	0	0	
9	0	0	0	0	532	393	1020	457	0	0	
10	0	0	0	0	512	386	1021	440	0	0	
11	0	0	0	0	492	385	1021	423	0	0	
12	0	0	0	0	472	391	1021	409	0	0	
13	0	0	0	0	456	404	1021	398	0	0	
14	0	0	0	0	446	423	1021	391	0	0	
15	0	0	0	0	441	446	1021	391	0	0	
0	0	0	0	0	443	469	1021	396	0	0	
1	0	0	0	0	452	492	1021	406	0	0	
2	0	0	0	0	466	511	1021	419	0	0	
3	0	0	0	0	483	524	1020	435	0	0	
4	0	0	0	0	504	531	1021	452	0	0	
5	0	0	0	0	523	532	1021	470	0	0	
6	0	0	0	0	542	526	1021	485	0	0	
7	0	0	0	0	557	513	1021	496	0	0	
8	0	0	0	0	567	495	1021	503	0	0	
9	0	0	0	0	571	473	1021	504	0	0	
10	0	0	0	0	569	450	1021	500	0	0	
11	0	0	0	0	560	428	1021	492	0	0	
12	0	0	0	0	546	408	1021	478	0	0	
13	0	0	0	0	528	395	1021	462	0	0	
14	0	0	0	0	508	386	1021	444	0	0	
15	0	0	0	0	488	385	1021	427	0	0	
0	0	0	0	0	468	390	1021	412	0	0	
1	0	0	0	0	452	402	1021	400	0	0	
2	0	0	0	0	440	419	1021	392	0	0	
3	0	0	0	0	435	440	1021	390	0	0	
4	0	0	0	0	436	462	1021	393	0	0	
5	0	0	0	0	444	483	1021	401	0	0	
6	0	0	0	0	457	499	1021	415	0	0	
7	0	0	0	0	474	512	1020	430	0	0	
8	0	0	0	0	495	519	1021	447	0	0	
9	0	0	0	0	515	519	1021	463	0	0	
10	0	0	0	0	534	513	1021	478	0	0	
11	0	0	0	0	551	500	1021	489	0	0	
12	0	0	0	0	561	483	1020	496	0	0	
13	0	0	0	0	567	462	1021	497	0	0	
14	0	0	0	0	566	440	1021	493	0	0	
15	0	0	0	0	558	419	1021	483	0	0	
0	0	0	0	0	544	400	1021	470	0	0	
1	0	0	0	0	527	387	1021	454	0	0	
2	0	0	0	0	507	379	1021	436	0	0	
3	0	0	0	0	486	378	1021	420	0	0	
4	0	0	0	0	466	383	1021	404	0	0	
5	0	0	0	0	449	395	1020	393	0	0	
6	0	0	0	0	437	412	1021	386	0	0	
7	0	0	0	0	431	433	1021	383	0	0	
8	0	0	0	0	432	455	1021	387	0	0	
9	0	0	0	0	439	477	1021	396	0	0	
10	0	0	0	0	452	495	1021	408	0	0	
11	0	0	0	0	470	508	1021	423	0	0	
12	0	0	0	0	489	515	1021	440	0	0	
13	0	0	0	0	510	515	1021	456	0	0	
14	0	0	0	0	529	508	1021	471	0	0	
15	0	0	0	0	544	496	1021	482	0	0	
0	0	0	0	0	555	478	1021	488	0	0	
1	0	0	0	0	560	457	1021	489	0	0	
2	0	0	0	0	558	435	1021	484	0	0	
3	0	0	0	0	548	414	1021	475	0	0	
4	0	0	0	0	535	396	1020	461	0	0	
5	0	0	0	0	516	382	1020	444	0	0	
6	0	0	0	0	496	374	1021	426	0	0	
7	0	0	0	0	474	372	1021	408	0	0	
8	0	0	0	0	454	377	1021	393	0	0	
9	0	0	0	0	437	389	1021	382	0	0	
10	0	0	0	0	425	406	1021	376	0	0	
11	0	0	0	0	420	427	1021	375	0	0	
12	0	0	0	0	422	450	1021	381	0	0	
13	0	0	0	0	431	472	1021	391	0	0	
14	0	0	0	0	445	491	1020	406	0	0	
15	0	0	0	0	464	505	1020	423	0	0	
0	0	0	0	0	487	513	1021	442	0	0	
1	0	0	0	0	508	515	1021	460	0	0	
2	0	0	0	0	529	510	1021	476	0	0	
3	0	0	0	0	546	498	1021	488	0	0	
4	0	0	0	0	558	481	1020	495	0	0	
5	0	0	0	0	564	460	1021	496	0	0	
6	0	0	0	0	564	438	1021	491	0	0	
7	0	0	0	0	556	417	1021	482	0	0	
8	0	0	0	0	543	398	1021	468	0	0	
9	0	0	0	0	525	384	1021	451	0	0	
10	0	0	0	0	505	376	1021	434	0	0	
11	0	0	0	0	484	375	1021	417	0	0	
12	0	0	0	0	464	380	1021	402	0	0	
13	0	0	0	0	448	392	1020	390	0	0	
14	0	0	0	0	436	409	1021	384	0	0	
15	0	0	0	0	430	430	1021	382	0	0	
0	0	0	0	0	432	452	1021	386	0	0	
1	0	0	0	0	439	473	1020	395	0	0	
2	0	0	0	0	452	491	1021	409	0	0	
3	0	0	0	0	469	504	1020	424	0	0	
4	0	0	0	0	489	511	1021	441	0	0	
5	0	0	0	0	510	511	1021	458	0	0	
6	0	0	0	0	529	504	1021	473	0	0	
7	0	0	0	0	544	490	1021	484	0	0	
8	0	0	0	0	555	472	1021	490	0	0	
9	0	0	0	0	559	451	1021	491	0	0	
10	0	0	0	0	557	428	1021	486	0	0	
11	0	0	0	0	548	407	1021	476	0	0	
12	0	0	0	0	535	388	1021	462	0	0	
13	0	0	0	0	517	376	1021	446	0	0	
14	0	0	0	0	497	368	1021	428	0	0	
15	0	0	0	0	477	368	1021	411	0	0	
0	0	0	0	0	459	375	1021	397	0	0	
1	0	0	0	0	443	388	1021	385	0	0	
2	0	0	0	0	432	406	1021	379	0	0	
3	0	0	0	0	427	429	1021	378	0	0	
4	0	0	0	0	430	452	1021	383	0	0	
5	0	0	0	0	439	474	1021	393	0	0	
6	0	0	0	0	452	492	1021	408	0	0	
7	0	0	0	0	470	506	1021	424	0	0	
8	0	0	0	0	491	513	1021	442	0	0	
9	0	0	0	0	511	513	1021	459	0	0	
10	0	0	0	0	529	506	1021	474	0	0	
11	0	0	0	0	544	493	1021	485	0	0	
12	0	0	0	0	555	475	1021	492	0	0	
13	0	0	0	0	559	453	1021	492	0	0	
14	0	0	0	0	557	430	1021	487	0	0	
15	0	0	0	0	548	409	1021	478	0	0	
0	0	0	0	0	534	391	1021	464	0	0	
1	0	0	0	0	516	377	1021	447	0	0	
2	0	0	0	0	496	370	1021	429	0	0	
3	0	0	0	0	476	370	1021	411	0	0	
4	0	0	0	0	458	377	1021	396	0	0	
5	0	0	0	0	443	390	1021	385	0	0	
6	0	0	0	0	433	409	1021	378	0	0	
7	0	0	0	0	430	431	1021	378	0	0	
8	0	0	0	0	433	455	1021	383	0	0	
9	0	0	0	0	443	477	1021	394	0	0	
10	0	0	0	0	458	496	1021	409	0	0	
11	0	0	0	0	477	510	1021	426	0	0	
12	0	0	0	0	499	517	1021	445	0	0	
13	0	0	0	0	519	518	1021	463	0	0	
14	0	0	0	0	539	511	1021	479	0	0	
15	0	0	0	0	555	498	1021	491	0	0	
0	0	0	0	0	565	481	1021	499	0	0	
1	0	0	0	0	569	459	1021	501	0	0	
2	0	0	0	0	566	437	1021	497	0	0	
3	0	0	0	0	557	415	1021	488	0	0	
4	0	0	0	0	542	398	1021	476	0	0	
5	0	0	0	0	524	385	1021	460	0	0	
6	0	0	0	0	503	379	1021	444	0	0	
7	0	0	0	0	482	379	1021	428	0	0	
8	0	0	0	0	463	385	1021	413	0	0	
9	0	0	0	0	447	399	1021	401	0	0	
10	0	0	0	0	436	417	1021	393	0	0	
11	0	0	0	0	432	438	1021	391	0	0	
12	0	0	0	0	433	460	1021	395	0	0	
13	0	0	0	0	441	480	1020	402	0	0	
14	0	0	0	0	455	497	1021	415	0	0	
15	0	0	0	0	472	509	1021	429	0	0	
0	0	0	0	0	492	514	1021	444	0	0	
1	0	0	0	0	512	513	1021	460	0	0	
2	0	0	0	0	531	505	1021	474	0	0	
3	0	0	0	0	547	492	1021	486	0	0	
4	0	0	0	0	558	474	1020	493	0	0	
5	0	0	0	0	564	454	1021	495	0	0	
6	0	0	0	0	562	433	1021	492	0	0	
7	0	0	0	0	555	413	1021	485	0	0	
8	0	0	0	0	542	396	1021	473	0	0	
9	0	0	0	0	525	384	1021	459	0	0	
10	0	0	0	0	507	380	1021	444	0	0	
11	0	0	0	0	487	382	1021	429	0	0	
12	0	0	0	0	470	390	1021	416	0	0	
13	0	0	0	0	455	404	1021	406	0	0	
14	0	0	0	0	445	423	1021	401	0	0	
15	0	0	0	0	442	446	1021	401	0	0	
0	0	0	0	0	444	470	1021	406	0	0	
1	0	0	0	0	453	491	1021	416	0	0	
2	0	0	0	0	467	509	1021	430	0	0	
3	0	0	0	0	484	521	1020	445	0	0	
4	0	0	0	0	504	528	1021	462	0	0	
5	0	0	0	0	524	527	1021	478	0	0	
6	0	0	0	0	542	521	1021	492	0	0	
7	0	0	0	0	556	507	1021	502	0	0	
8	0	0	0	0	566	489	1021	506	0	0	
9	0	0	0	0	569	467	1021	506	0	0	
10	0	0	0	0	567	444	1021	500	0	0	
11	0	0	0	0	557	423	1021	489	0	0	
12	0	0	0	0	543	404	1021	474	0	0	
13	0	0	0	0	524	391	1021	456	0	0	
14	0	0	0	0	504	384	1021	439	0	0	
15	0	0	0	0	483	384	1021	422	0	0	
0	0	0	0	0	463	391	1021	408	0	0	
1	0	0	0	0	448	403	1021	397	0	0	
2	0	0	0	0	436	422	1020	391	0	0	
3	0	0	0	0	432	444	1021	391	0	0	
4	0	0	0	0	435	466	1021	397	0	0	
5	0	0	0	0	444	487	1021	408	0	0	
6	0	0	0	0	459	505	1021	423	0	0	
7	0	0	0	0	477	519	1020	440	0	0	
8	0	0	0	0	498	526	1021	458	0	0	
9	0	0	0	0	519	525	1021	476	0	0	
10	0	0	0	0	539	518	1021	490	0	0	
11	0	0	0	0	555	505	1021	502	0	0	
12	0	0	0	0	566	487	1020	507	0	0	
13	0	0	0	0	571	466	1021	506	0	0	
14	0	0	0	0	569	443	1021	500	0	0	
15	0	0	0	0	560	422	1021	490	0	0	
0	0	0	0	0	546	403	1021	475	0	0	
1	0	0	0	0	526	389	1020	457	0	0	
2	0	0	0	0	506	381	1021	439	0	0	
3	0	0	0	0	484	380	1021	420	0	0	
4	0	0	0	0	464	386	1021	404	0	0	
5	0	0	0	0	448	398	1021	392	0	0	
6	0	0	0	0	436	415	1021	384	0	0	
7	0	0	0	0	431	436	1021	382	0	0	
8	0	0	0	0	433	458	1021	387	0	0	
9	0	0	0	0	442	480	1021	396	0	0	
10	0	0	0	0	457	498	1021	411	0	0	
11	0	0	0	0	476	511	1021	428	0	0	
12	0	0	0	0	498	519	1021	447	0	0	
13	0	0	0	0	519	519	1021	465	0	0	
14	0	0	0	0	539	513	1021	481	0	0	
15	0	0	0	0	556	500	1021	493	0	0	
0	0	0	0	0	566	482	1021	500	0	0	
1	0	0	0	0	571	461	1021	501	0	0	
2	0	0	0	0	569	439	1021	496	0	0	
3	0	0	0	0	560	417	1021	487	0	0	
4	0	0	0	0	546	399	1021	473	0	0	
5	0	0	0	0	526	385	1020	455	0	0	
6	0	0	0	0	505	378	1021	437	0	0	
7	0	0	0	0	483	377	1021	419	0	0	
8	0	0	0	0	463	383	1021	403	0	0	
9	0	0	0	0	446	396	1021	390	0	0	
10	0	0	0	0	434	414	1021	383	0	0	
11	0	0	0	0	430	435	1021	383	0	0	
12	0	0	0	0	432	459	1021	389	0	0	
13	0	0	0	0	443	481	1021	401	0	0	
14	0	0	0	0	459	501	1021	417	0	0	
15	0	0	0	0	479	515	1021	435	0	0	
0	0	0	0	0	500	521	1021	452	0	0	
1	0	0	0	0	520	520	1021	468	0	0	
2	0	0	0	0	538	512	1021	480	0	0	
3	0	0	0	0	551	496	1021	486	0	0	
4	0	0	0	0	558	474	1021	487	0	0	
5	0	0	0	0	559	450	1021	482	0	0	
6	0	0	0	0	553	425	1021	473	0	0	
7	0	0	0	0	542	401	1021	460	0	0	
8	0	0	0	0	525	382	1021	444	0	0	
9	0	0	0	0	506	369	1021	427	0	0	
10	0	0	0	0	486	364	1021	412	0	0	
11	0	0	0	0	467	366	1021	399	0	0	
12	0	0	0	0	452	377	1021	390	0	0	
13	0	0	0	0	440	394	1021	385	0	0	
14	0	0	0	0	435	417	1021	385	0	0	
15	0	0	0	0	436	444	1021	391	0	0	
0	0	0	0	0	444	471	1021	403	0	0	
1	0	0	0	0	458	497	1021	418	0	0	
2	0	0	0	0	476	518	1021	435	0	0	
3	0	0	0	0	496	533	1021	454	0	0	
4	0	0	0	0	518	541	1021	472	0	0	
5	0	0	0	0	539	541	1021	488	0	0	
6	0	0	0	0	557	534	1021	501	0	0	
7	0	0	0	0	571	519	1021	510	0	0	
8	0	0	0	0	578	499	1021	513	0	0	
9	0	0	0	0	579	476	1021	510	0	0	
10	0	0	0	0	574	451	1021	502	0	0	
11	0	0	0	0	562	428	1021	490	0	0	
12	0	0	0	0	545	407	1021	474	0	0	
13	0	0	0	0	524	392	1020	455	0	0	
14	0	0	0	0	502	384	1021	437	0	0	
15	0	0	0	0	480	383	1021	420	0	0	
0	0	0	0	0	460	390	1021	406	0	0	
1	0	0	0	0	444	403	1021	395	0	0	
2	0	0	0	0	434	421	1020	390	0	0	
3	0	0	0	0	430	444	1021	390	0	0	
4	0	0	0	0	434	467	1021	396	0	0	
5	0	0	0	0	444	489	1021	408	0	0	
6	0	0	0	0	459	508	1021	423	0	0	
7	0	0	0	0	479	521	1021	440	0	0	
8	0	0	0	0	501	528	1021	458	0	0	
9	0	0	0	0	523	528	1021	475	0	0	
10	0	0	0	0	543	522	1021	490	0	0	
11	0	0	0	0	559	509	1021	501	0	0	
12	0	0	0	0	571	491	1021	507	0	0	
13	0	0	0	0	575	470	1021	508	0	0	
14	0	0	0	0	574	447	1021	502	0	0	
15	0	0	0	0	564	425	1021	492	0	0	
0	0	0	0	0	550	407	1020	477	0	0	
1	0	0	0	0	531	393	1021	460	0	0	
2	0	0	0	0	510	387	1021	442	0	0	
3	0	0	0	0	489	387	1021	425	0	0	
4	0	0	0	0	470	394	1021	410	0	0	
5	0	0	0	0	454	407	1021	399	0	0	
6	0	0	0	0	443	425	1020	392	0	0	
7	0	0	0	0	439	448	1021	391	0	0	
8	0	0	0	0	442	471	1021	397	0	0	
9	0	0	0	0	451	492	1021	407	0	0	
10	0	0	0	0	466	509	1021	422	0	0	
11	0	0	0	0	485	522	1020	439	0	0	
12	0	0	0	0	507	528	1021	457	0	0	
13	0	0	0	0	527	528	1021	474	0	0	
14	0	0	0	0	547	520	1021	489	0	0	
15	0	0	0	0	562	507	1021	500	0	0	
0	0	0	0	0	572	488	1021	505	0	0	
1	0	0	0	0	576	467	1021	506	0	0	
2	0	0	0	0	574	444	1021	500	0	0	
3	0	0	0	0	564	423	1021	490	0	0	
4	0	0	0	0	548	406	1021	476	0	0	
5	0	0	0	0	529	393	1021	459	0	0	
6	0	0	0	0	508	387	1021	441	0	0	
7	0	0	0	0	487	388	1021	423	0	0	
8	0	0	0	0	468	395	1021	408	0	0	
9	0	0	0	0	452	408	1021	397	0	0	
10	0	0	0	0	441	428	1021	390	0	0	
11	0	0	0	0	438	449	1021	389	0	0	
12	0	0	0	0	441	472	1021	394	0	0	
13	0	0	0	0	452	493	1021	404	0	0	
14	0	0	0	0	467	510	1021	418	0	0	
15	0	0	0	0	487	523	1021	435	0	0	
0	0	0	0	0	508	529	1021	452	0	0	
1	0	0	0	0	529	528	1021	468	0	0	
2	0	0	0	0	549	520	1021	483	0	0	
3	0	0	0	0	563	506	1021	493	0	0	
4	0	0	0	0	574	488	1021	499	0	0	
5	0	0	0	0	577	467	1021	499	0	0	
6	0	0	0	0	574	444	1021	494	0	0	
7	0	0	0	0	564	424	1021	484	0	0	
8	0	0	0	0	549	407	1021	471	0	0	
9	0	0	0	0	530	395	1021	455	0	0	
10	0	0	0	0	510	389	1021	438	0	0	
11	0	0	0	0	489	390	1021	423	0	0	
12	0	0	0	0	471	398	1021	409	0	0	
13	0	0	0	0	456	412	1021	400	0	0	
14	0	0	0	0	447	432	1021	395	0	0	
15	0	0	0	0	444	455	1021	396	0	0	
0	0	0	0	0	448	479	1021	402	0	0	
1	0	0	0	0	460	502	1021	414	0	0	
2	0	0	0	0	476	520	1021	429	0	0	
3	0	0	0	0	496	535	1021	446	0	0	
4	0	0	0	0	519	542	1021	464	0	0	
5	0	0	0	0	541	542	1021	481	0	0	
6	0	0	0	0	561	536	1021	496	0	0	
7	0	0	0	0	577	523	1021	507	0	0	
8	0	0	0	0	588	504	1021	512	0	0	
9	0	0	0	0	593	483	1021	512	0	0	
10	0	0	0	0	590	460	1021	506	0	0	
11	0	0	0	0	580	439	1021	496	0	0	
12	0	0	0	0	566	420	1021	481	0	0	
13	0	0	0	0	547	407	1021	464	0	0	
14	0	0	0	0	526	400	1021	447	0	0	
15	0	0	0	0	504	399	1021	430	0	0	
0	0	0	0	0	484	405	1021	415	0	0	
1	0	0	0	0	467	418	1021	404	0	0	
2	0	0	0	0	456	436	1021	398	0	0	
3	0	0	0	0	451	457	1021	397	0	0	
4	0	0	0	0	454	480	1021	403	0	0	
5	0	0	0	0	463	500	1021	413	0	0	
6	0	0	0	0	477	518	1021	428	0	0	
7	0	0	0	0	496	531	1021	444	0	0	
8	0	0	0	0	517	537	1021	462	0	0	
9	0	0	0	0	539	537	1021	480	0	0	
10	0	0	0	0	559	530	1021	495	0	0	
11	0	0	0	0	575	518	1021	506	0	0	
12	0	0	0	0	586	500	1021	512	0	0	
13	0	0	0	0	591	480	1021	513	0	0	
14	0	0	0	0	589	458	1021	508	0	0	
15	0	0	0	0	580	438	1021	499	0	0	
0	0	0	0	0	565	420	1021	484	0	0	
1	0	0	0	0	545	408	1021	467	0	0	
2	0	0	0	0	524	401	1021	448	0	0	
3	0	0	0	0	501	400	1021	429	0	0	
4	0	0	0	0	479	407	1021	412	0	0	
5	0	0	0	0	461	418	1021	399	0	0	
6	0	0	0	0	448	435	1021	391	0	0	
7	0	0	0	0	442	455	1021	388	0	0	
