# OpenSignals Text File Format. Version 1
# {"": {"position": 0, "device": "", "device name": "", "device connection": "", "sampling rate": 1000, "resolution": [4, 1, 1, 1, 1, 10, 10, 10, 10, 6, 6], "firmware version": 1281, "comments": "", "keywords": "", "mode": 0, "sync interval": 2, "date": "", "time": "", "channels": [1, 2, 3, 4, 5, 6], "sensor": ["RAW", "RAW", "RAW", "RAW", "RAW", "RAW"], "label": ["A1", "A2", "A3", "A4", "A5", "A6"], "column": ["nSeq", "I1", "I2", "O1", "O2", "A1", "A2", "A3", "A4", "A5", "A6"], "special": [{}, {}, {}, {}, {}, {}], "digital IO": [0, 0, 1, 1]}}
# EndOfHeader
0	0	0	0	0	463	426	0	482	0	0	
1	0	0	0	0	458	422	0	476	0	0	
2	0	0	0	0	458	420	0	475	0	0	
3	0	0	0	0	463	423	0	478	0	0	
4	0	0	0	0	470	428	0	484	0	0	
5	0	0	0	0	480	436	0	492	0	0	
6	0	0	0	0	491	445	0	502	0	0	
7	0	0	0	0	503	454	0	512	0	0	
8	0	0	0	0	514	463	0	521	0	0	
9	0	0	0	0	524	471	0	530	0	0	
10	0	0	0	0	533	478	0	537	0	0	
11	0	0	0	0	540	482	0	543	0	0	
12	0	0	0	0	543	485	0	545	0	0	
13	0	0	0	0	545	485	0	545	0	0	
14	0	0	0	0	544	483	0	543	0	0	
15	0	0	0	0	541	480	0	538	0	0	
0	0	0	0	0	537	477	0	533	0	0	
1	0	0	0	0	533	473	0	527	0	0	
2	0	0	0	0	529	470	0	521	0	0	
3	0	0	0	0	525	467	0	516	0	0	
4	0	0	0	0	521	465	0	512	0	0	
5	0	0	0	0	519	464	0	510	0	0	
6	0	0	0	0	518	464	0	509	0	0	
7	0	0	0	0	518	466	0	511	0	0	
8	0	0	0	0	519	469	0	513	0	0	
9	0	0	0	0	521	472	0	517	0	0	
10	0	0	0	0	524	476	0	523	0	0	
11	0	0	0	0	527	480	0	528	0	0	
12	0	0	0	0	530	484	0	534	0	0	
13	0	0	0	0	534	489	0	539	0	0	
14	0	0	0	0	537	492	0	543	0	0	
15	0	0	0	0	540	495	0	546	0	0	
0	0	0	0	0	543	497	0	547	0	0	
1	0	0	0	0	544	497	0	546	0	0	
2	0	0	0	0	544	496	0	543	0	0	
3	0	0	0	0	543	494	0	538	0	0	
4	0	0	0	0	540	490	0	531	0	0	
5	0	0	0	0	537	486	0	524	0	0	
6	0	0	0	0	533	482	0	516	0	0	
7	0	0	0	0	530	479	0	509	0	0	
8	0	0	0	0	527	476	0	504	0	0	
9	0	0	0	0	525	473	0	499	0	0	
10	0	0	0	0	523	472	0	496	0	0	
11	0	0	0	0	521	470	0	494	0	0	
12	0	0	0	0	521	469	0	493	0	0	
13	0	0	0	0	520	468	0	494	0	0	
14	0	0	0	0	520	467	0	495	0	0	
15	0	0	0	0	519	466	0	496	0	0	
0	0	0	0	0	517	464	0	497	0	0	
1	0	0	0	0	515	462	0	498	0	0	
2	0	0	0	0	511	459	0	499	0	0	
3	0	0	0	0	508	455	0	499	0	0	
4	0	0	0	0	503	451	0	497	0	0	
5	0	0	0	0	498	447	0	495	0	0	
6	0	0	0	0	494	443	0	492	0	0	
7	0	0	0	0	489	438	0	488	0	0	
8	0	0	0	0	483	432	0	483	0	0	
9	0	0	0	0	476	426	0	476	0	0	
10	0	0	0	0	470	420	0	468	0	0	
11	0	0	0	0	465	415	0	461	0	0	
12	0	0	0	0	462	412	0	456	0	0	
13	0	0	0	0	462	413	0	453	0	0	
14	0	0	0	0	464	416	0	454	0	0	
15	0	0	0	0	470	422	0	456	0	0	
0	0	0	0	0	478	430	0	461	0	0	
1	0	0	0	0	487	440	0	468	0	0	
2	0	0	0	0	498	451	0	476	0	0	
3	0	0	0	0	509	463	0	486	0	0	
4	0	0	0	0	519	473	0	495	0	0	
5	0	0	0	0	528	483	0	504	0	0	
6	0	0	0	0	536	490	0	512	0	0	
7	0	0	0	0	540	495	0	519	0	0	
8	0	0	0	0	542	496	0	523	0	0	
9	0	0	0	0	540	495	0	524	0	0	
10	0	0	0	0	536	491	0	522	0	0	
11	0	0	0	0	530	484	0	519	0	0	
12	0	0	0	0	523	476	0	513	0	0	
13	0	0	0	0	515	468	0	508	0	0	
14	0	0	0	0	508	460	0	501	0	0	
15	0	0	0	0	502	453	0	495	0	0	
0	0	0	0	0	497	447	0	488	0	0	
1	0	0	0	0	494	443	0	483	0	0	
2	0	0	0	0	492	440	0	479	0	0	
3	0	0	0	0	491	439	0	477	0	0	
4	0	0	0	0	493	440	0	477	0	0	
5	0	0	0	0	496	442	0	479	0	0	
6	0	0	0	0	500	446	0	482	0	0	
7	0	0	0	0	506	451	0	487	0	0	
8	0	0	0	0	512	457	0	492	0	0	
9	0	0	0	0	519	462	0	497	0	0	
10	0	0	0	0	524	467	0	502	0	0	
11	0	0	0	0	528	471	0	505	0	0	
12	0	0	0	0	530	473	0	507	0	0	
13	0	0	0	0	531	473	0	508	0	0	
14	0	0	0	0	530	472	0	508	0	0	
15	0	0	0	0	528	471	0	506	0	0	
0	0	0	0	0	525	467	0	504	0	0	
1	0	0	0	0	520	463	0	501	0	0	
2	0	0	0	0	515	460	0	497	0	0	
3	0	0	0	0	511	455	0	493	0	0	
4	0	0	0	0	507	452	0	489	0	0	
5	0	0	0	0	505	451	0	486	0	0	
6	0	0	0	0	506	453	0	485	0	0	
7	0	0	0	0	510	457	0	486	0	0	
8	0	0	0	0	516	463	0	490	0	0	
9	0	0	0	0	526	472	0	496	0	0	
10	0	0	0	0	537	482	0	503	0	0	
11	0	0	0	0	549	492	0	511	0	0	
12	0	0	0	0	561	503	0	519	0	0	
13	0	0	0	0	572	513	0	528	0	0	
14	0	0	0	0	582	522	0	536	0	0	
15	0	0	0	0	590	528	0	542	0	0	
0	0	0	0	0	595	533	0	546	0	0	
1	0	0	0	0	596	535	0	547	0	0	
2	0	0	0	0	595	534	0	546	0	0	
3	0	0	0	0	590	529	0	542	0	0	
4	0	0	0	0	581	522	0	535	0	0	
5	0	0	0	0	569	512	0	527	0	0	
6	0	0	0	0	557	501	0	517	0	0	
7	0	0	0	0	543	490	0	507	0	0	
8	0	0	0	0	530	479	0	497	0	0	
9	0	0	0	0	518	469	0	488	0	0	
10	0	0	0	0	508	460	0	481	0	0	
11	0	0	0	0	501	454	0	475	0	0	
12	0	0	0	0	495	450	0	471	0	0	
13	0	0	0	0	493	448	0	468	0	0	
14	0	0	0	0	492	448	0	468	0	0	
15	0	0	0	0	494	450	0	470	0	0	
0	0	0	0	0	498	453	0	472	0	0	
1	0	0	0	0	503	457	0	475	0	0	
2	0	0	0	0	507	460	0	478	0	0	
3	0	0	0	0	510	461	0	480	0	0	
4	0	0	0	0	511	461	0	480	0	0	
5	0	0	0	0	510	459	0	479	0	0	
6	0	0	0	0	508	455	0	477	0	0	
7	0	0	0	0	503	450	0	472	0	0	
8	0	0	0	0	496	443	0	467	0	0	
9	0	0	0	0	487	434	0	459	0	0	
10	0	0	0	0	477	425	0	449	0	0	
11	0	0	0	0	465	415	0	440	0	0	
12	0	0	0	0	454	404	0	429	0	0	
13	0	0	0	0	443	395	0	419	0	0	
14	0	0	0	0	432	386	0	410	0	0	
15	0	0	0	0	424	379	0	402	0	0	
0	0	0	0	0	417	374	0	395	0	0	
1	0	0	0	0	413	370	0	391	0	0	
2	0	0	0	0	412	369	0	390	0	0	
3	0	0	0	0	414	371	0	392	0	0	
4	0	0	0	0	420	377	0	399	0	0	
5	0	0	0	0	431	386	0	408	0	0	
6	0	0	0	0	445	399	0	422	0	0	
7	0	0	0	0	462	414	0	437	0	0	
8	0	0	0	0	481	429	0	453	0	0	
9	0	0	0	0	500	444	0	467	0	0	
10	0	0	0	0	517	458	0	480	0	0	
11	0	0	0	0	531	469	0	490	0	0	
12	0	0	0	0	542	477	0	496	0	0	
13	0	0	0	0	548	481	0	499	0	0	
14	0	0	0	0	551	483	0	499	0	0	
15	0	0	0	0	550	481	0	495	0	0	
0	0	0	0	0	545	478	0	489	0	0	
1	0	0	0	0	538	472	0	483	0	0	
2	0	0	0	0	530	468	0	476	0	0	
3	0	0	0	0	523	464	0	471	0	0	
4	0	0	0	0	516	462	0	467	0	0	
5	0	0	0	0	511	461	0	465	0	0	
6	0	0	0	0	509	462	0	466	0	0	
7	0	0	0	0	508	464	0	468	0	0	
8	0	0	0	0	510	467	0	472	0	0	
9	0	0	0	0	512	472	0	476	0	0	
10	0	0	0	0	516	476	0	480	0	0	
11	0	0	0	0	520	480	0	483	0	0	
12	0	0	0	0	524	482	0	486	0	0	
13	0	0	0	0	528	483	0	487	0	0	
14	0	0	0	0	530	483	0	486	0	0	
15	0	0	0	0	531	481	0	484	0	0	
0	0	0	0	0	531	479	0	482	0	0	
1	0	0	0	0	531	476	0	479	0	0	
2	0	0	0	0	531	473	0	475	0	0	
3	0	0	0	0	531	471	0	473	0	0	
4	0	0	0	0	530	470	0	471	0	0	
5	0	0	0	0	531	470	0	471	0	0	
6	0	0	0	0	531	470	0	471	0	0	
7	0	0	0	0	530	470	0	471	0	0	
8	0	0	0	0	529	470	0	471	0	0	
9	0	0	0	0	527	469	0	471	0	0	
10	0	0	0	0	525	468	0	470	0	0	
11	0	0	0	0	521	466	0	469	0	0	
12	0	0	0	0	517	464	0	468	0	0	
13	0	0	0	0	512	462	0	466	0	0	
14	0	0	0	0	508	459	0	464	0	0	
15	0	0	0	0	504	456	0	462	0	0	
0	0	0	0	0	499	452	0	459	0	0	
1	0	0	0	0	495	449	0	455	0	0	
2	0	0	0	0	492	445	0	451	0	0	
3	0	0	0	0	489	441	0	446	0	0	
4	0	0	0	0	488	439	0	442	0	0	
5	0	0	0	0	487	436	0	438	0	0	
6	0	0	0	0	488	435	0	434	0	0	
7	0	0	0	0	491	436	0	432	0	0	
8	0	0	0	0	495	438	0	430	0	0	
9	0	0	0	0	501	442	0	429	0	0	
10	0	0	0	0	508	447	0	430	0	0	
11	0	0	0	0	515	452	0	431	0	0	
12	0	0	0	0	523	458	0	434	0	0	
13	0	0	0	0	530	465	0	438	0	0	
14	0	0	0	0	537	472	0	442	0	0	
15	0	0	0	0	543	478	0	448	0	0	
0	0	0	0	0	549	483	0	453	0	0	
1	0	0	0	0	553	488	0	459	0	0	
2	0	0	0	0	558	494	0	464	0	0	
3	0	0	0	0	560	497	0	469	0	0	
4	0	0	0	0	561	499	0	473	0	0	
5	0	0	0	0	560	500	0	473	0	0	
6	0	0	0	0	558	497	0	472	0	0	
7	0	0	0	0	552	493	0	468	0	0	
8	0	0	0	0	543	485	0	461	0	0	
9	0	0	0	0	533	476	0	452	0	0	
10	0	0	0	0	520	464	0	441	0	0	
11	0	0	0	0	508	454	0	431	0	0	
12	0	0	0	0	496	443	0	421	0	0	
13	0	0	0	0	486	433	0	412	0	0	
14	0	0	0	0	477	425	0	406	0	0	
15	0	0	0	0	471	419	0	401	0	0	
0	0	0	0	0	466	415	0	400	0	0	
1	0	0	0	0	466	415	0	402	0	0	
2	0	0	0	0	468	417	0	408	0	0	
3	0	0	0	0	473	422	0	416	0	0	
4	0	0	0	0	481	428	0	427	0	0	
5	0	0	0	0	491	437	0	438	0	0	
6	0	0	0	0	502	446	0	449	0	0	
7	0	0	0	0	512	454	0	459	0	0	
8	0	0	0	0	521	460	0	466	0	0	
9	0	0	0	0	528	464	0	469	0	0	
10	0	0	0	0	531	465	0	468	0	0	
11	0	0	0	0	530	462	0	463	0	0	
12	0	0	0	0	525	455	0	455	0	0	
13	0	0	0	0	517	446	0	443	0	0	
14	0	0	0	0	506	435	0	429	0	0	
15	0	0	0	0	495	425	0	416	0	0	
0	0	0	0	0	484	416	0	404	0	0	
1	0	0	0	0	476	409	0	396	0	0	
2	0	0	0	0	470	405	0	390	0	0	
3	0	0	0	0	466	404	0	388	0	0	
4	0	0	0	0	467	407	0	390	0	0	
5	0	0	0	0	471	412	0	395	0	0	
6	0	0	0	0	476	419	0	403	0	0	
7	0	0	0	0	483	426	0	411	0	0	
8	0	0	0	0	491	433	0	418	0	0	
9	0	0	0	0	496	438	0	424	0	0	
10	0	0	0	0	500	442	0	428	0	0	
11	0	0	0	0	503	444	0	430	0	0	
12	0	0	0	0	504	444	0	429	0	0	
13	0	0	0	0	503	443	0	426	0	0	
14	0	0	0	0	501	440	0	422	0	0	
15	0	0	0	0	498	437	0	416	0	0	
0	0	0	0	0	496	434	0	412	0	0	
1	0	0	0	0	496	433	0	408	0	0	
2	0	0	0	0	496	433	0	407	0	0	
3	0	0	0	0	499	435	0	408	0	0	
4	0	0	0	0	505	440	0	412	0	0	
5	0	0	0	0	514	447	0	419	0	0	
6	0	0	0	0	525	456	0	429	0	0	
7	0	0	0	0	537	468	0	440	0	0	
8	0	0	0	0	551	481	0	453	0	0	
9	0	0	0	0	565	494	0	466	0	0	
10	0	0	0	0	578	506	0	478	0	0	
11	0	0	0	0	588	516	0	487	0	0	
12	0	0	0	0	595	523	0	493	0	0	
13	0	0	0	0	599	527	0	496	0	0	
14	0	0	0	0	598	527	0	495	0	0	
15	0	0	0	0	593	523	0	491	0	0	
0	0	0	0	0	584	516	0	483	0	0	
1	0	0	0	0	573	508	0	474	0	0	
2	0	0	0	0	560	497	0	463	0	0	
3	0	0	0	0	547	486	0	452	0	0	
4	0	0	0	0	535	475	0	441	0	0	
5	0	0	0	0	523	464	0	430	0	0	
6	0	0	0	0	512	454	0	420	0	0	
7	0	0	0	0	505	446	0	412	0	0	
8	0	0	0	0	499	440	0	405	0	0	
9	0	0	0	0	496	436	0	400	0	0	
10	0	0	0	0	495	434	0	398	0	0	
11	0	0	0	0	497	435	0	397	0	0	
12	0	0	0	0	500	436	0	398	0	0	
13	0	0	0	0	504	439	0	399	0	0	
14	0	0	0	0	508	441	0	402	0	0	
15	0	0	0	0	511	444	0	405	0	0	
0	0	0	0	0	515	448	0	408	0	0	
1	0	0	0	0	519	452	0	413	0	0	
2	0	0	0	0	524	457	0	419	0	0	
3	0	0	0	0	530	463	0	425	0	0	
4	0	0	0	0	536	468	0	432	0	0	
5	0	0	0	0	541	473	0	437	0	0	
6	0	0	0	0	547	478	0	443	0	0	
7	0	0	0	0	551	481	0	447	0	0	
8	0	0	0	0	553	483	0	449	0	0	
9	0	0	0	0	554	483	0	451	0	0	
10	0	0	0	0	553	482	0	450	0	0	
11	0	0	0	0	551	480	0	448	0	0	
12	0	0	0	0	547	477	0	445	0	0	
13	0	0	0	0	543	473	0	441	0	0	
14	0	0	0	0	537	470	0	437	0	0	
15	0	0	0	0	532	466	0	432	0	0	
0	0	0	0	0	527	463	0	428	0	0	
1	0	0	0	0	523	462	0	424	0	0	
2	0	0	0	0	519	460	0	421	0	0	
3	0	0	0	0	515	457	0	418	0	0	
4	0	0	0	0	511	455	0	415	0	0	
5	0	0	0	0	507	453	0	413	0	0	
6	0	0	0	0	503	450	0	411	0	0	
7	0	0	0	0	499	446	0	408	0	0	
8	0	0	0	0	495	441	0	405	0	0	
9	0	0	0	0	491	435	0	402	0	0	
10	0	0	0	0	487	430	0	398	0	0	
11	0	0	0	0	483	425	0	395	0	0	
12	0	0	0	0	480	419	0	391	0	0	
13	0	0	0	0	477	414	0	387	0	0	
14	0	0	0	0	474	409	0	382	0	0	
15	0	0	0	0	472	405	0	378	0	0	
0	0	0	0	0	471	403	0	375	0	0	
1	0	0	0	0	470	401	0	372	0	0	
2	0	0	0	0	470	401	0	371	0	0	
3	0	0	0	0	470	402	0	371	0	0	
4	0	0	0	0	472	404	0	371	0	0	
5	0	0	0	0	474	408	0	373	0	0	
6	0	0	0	0	477	412	0	376	0	0	
7	0	0	0	0	479	416	0	379	0	0	
8	0	0	0	0	482	420	0	382	0	0	
9	0	0	0	0	485	424	0	386	0	0	
10	0	0	0	0	488	428	0	390	0	0	
11	0	0	0	0	492	433	0	395	0	0	
12	0	0	0	0	496	438	0	400	0	0	
13	0	0	0	0	502	443	0	406	0	0	
14	0	0	0	0	506	447	0	412	0	0	
15	0	0	0	0	511	450	0	417	0	0	
0	0	0	0	0	516	454	0	423	0	0	
1	0	0	0	0	521	457	0	428	0	0	
2	0	0	0	0	526	461	0	433	0	0	
3	0	0	0	0	532	465	0	439	0	0	
4	0	0	0	0	538	470	0	445	0	0	
5	0	0	0	0	545	476	0	451	0	0	
6	0	0	0	0	551	481	0	457	0	0	
7	0	0	0	0	558	488	0	462	0	0	
8	0	0	0	0	564	495	0	467	0	0	
9	0	0	0	0	571	501	0	471	0	0	
10	0	0	0	0	575	507	0	473	0	0	
11	0	0	0	0	579	511	0	473	0	0	
12	0	0	0	0	580	513	0	471	0	0	
13	0	0	0	0	578	512	0	465	0	0	
14	0	0	0	0	572	507	0	456	0	0	
15	0	0	0	0	561	497	0	444	0	0	
0	0	0	0	0	548	486	0	429	0	0	
1	0	0	0	0	531	471	0	413	0	0	
2	0	0	0	0	513	454	0	396	0	0	
3	0	0	0	0	495	438	0	380	0	0	
4	0	0	0	0	478	423	0	367	0	0	
5	0	0	0	0	463	409	0	355	0	0	
6	0	0	0	0	452	399	0	347	0	0	
7	0	0	0	0	445	391	0	341	0	0	
8	0	0	0	0	442	387	0	340	0	0	
9	0	0	0	0	442	386	0	341	0	0	
10	0	0	0	0	446	388	0	345	0	0	
11	0	0	0	0	453	393	0	352	0	0	
12	0	0	0	0	463	401	0	360	0	0	
13	0	0	0	0	475	411	0	370	0	0	
14	0	0	0	0	488	423	0	383	0	0	
15	0	0	0	0	504	436	0	395	0	0	
0	0	0	0	0	519	450	0	408	0	0	
1	0	0	0	0	534	464	0	422	0	0	
2	0	0	0	0	548	477	0	435	0	0	
3	0	0	0	0	560	488	0	446	0	0	
4	0	0	0	0	569	497	0	454	0	0	
5	0	0	0	0	575	503	0	459	0	0	
6	0	0	0	0	577	505	0	460	0	0	
7	0	0	0	0	575	504	0	458	0	0	
8	0	0	0	0	571	499	0	454	0	0	
9	0	0	0	0	563	493	0	447	0	0	
10	0	0	0	0	553	484	0	438	0	0	
11	0	0	0	0	544	476	0	429	0	0	
12	0	0	0	0	534	468	0	420	0	0	
13	0	0	0	0	525	460	0	411	0	0	
14	0	0	0	0	517	453	0	403	0	0	
15	0	0	0	0	511	448	0	397	0	0	
0	0	0	0	0	506	443	0	392	0	0	
1	0	0	0	0	502	440	0	389	0	0	
2	0	0	0	0	499	437	0	387	0	0	
3	0	0	0	0	499	436	0	388	0	0	
4	0	0	0	0	499	436	0	390	0	0	
5	0	0	0	0	502	438	0	393	0	0	
6	0	0	0	0	505	441	0	398	0	0	
7	0	0	0	0	510	444	0	404	0	0	
8	0	0	0	0	514	448	0	409	0	0	
9	0	0	0	0	519	451	0	414	0	0	
10	0	0	0	0	523	454	0	418	0	0	
11	0	0	0	0	526	456	0	421	0	0	
12	0	0	0	0	529	457	0	423	0	0	
13	0	0	0	0	532	459	0	423	0	0	
14	0	0	0	0	535	460	0	424	0	0	
15	0	0	0	0	537	461	0	424	0	0	
0	0	0	0	0	539	463	0	424	0	0	
1	0	0	0	0	541	464	0	423	0	0	
2	0	0	0	0	543	466	0	424	0	0	
3	0	0	0	0	544	468	0	424	0	0	
4	0	0	0	0	545	470	0	424	0	0	
5	0	0	0	0	545	472	0	425	0	0	
6	0	0	0	0	545	473	0	426	0	0	
7	0	0	0	0	543	473	0	426	0	0	
8	0	0	0	0	540	472	0	426	0	0	
9	0	0	0	0	537	471	0	425	0	0	
10	0	0	0	0	533	468	0	425	0	0	
11	0	0	0	0	528	465	0	423	0	0	
12	0	0	0	0	524	461	0	422	0	0	
13	0	0	0	0	519	456	0	418	0	0	
14	0	0	0	0	514	451	0	414	0	0	
15	0	0	0	0	509	445	0	409	0	0	
0	0	0	0	0	504	439	0	403	0	0	
1	0	0	0	0	499	432	0	398	0	0	
2	0	0	0	0	495	426	0	392	0	0	
3	0	0	0	0	492	422	0	388	0	0	
4	0	0	0	0	492	419	0	385	0	0	
5	0	0	0	0	493	419	0	384	0	0	
6	0	0	0	0	495	420	0	383	0	0	
7	0	0	0	0	498	423	0	384	0	0	
8	0	0	0	0	502	426	0	384	0	0	
9	0	0	0	0	504	429	0	385	0	0	
10	0	0	0	0	506	432	0	386	0	0	
11	0	0	0	0	506	433	0	386	0	0	
12	0	0	0	0	505	433	0	385	0	0	
13	0	0	0	0	503	431	0	383	0	0	
14	0	0	0	0	498	428	0	380	0	0	
15	0	0	0	0	491	423	0	376	0	0	
0	0	0	0	0	483	415	0	371	0	0	
1	0	0	0	0	474	407	0	364	0	0	
2	0	0	0	0	465	399	0	359	0	0	
3	0	0	0	0	458	391	0	355	0	0	
4	0	0	0	0	454	385	0	352	0	0	
5	0	0	0	0	452	383	0	351	0	0	
6	0	0	0	0	455	383	0	353	0	0	
7	0	0	0	0	461	387	0	358	0	0	
8	0	0	0	0	472	394	0	366	0	0	
9	0	0	0	0	485	404	0	376	0	0	
10	0	0	0	0	501	416	0	388	0	0	
11	0	0	0	0	517	430	0	401	0	0	
12	0	0	0	0	534	443	0	414	0	0	
13	0	0	0	0	548	456	0	427	0	0	
14	0	0	0	0	561	468	0	438	0	0	
15	0	0	0	0	572	478	0	447	0	0	
0	0	0	0	0	578	486	0	454	0	0	
1	0	0	0	0	583	492	0	459	0	0	
2	0	0	0	0	585	496	0	462	0	0	
3	0	0	0	0	584	497	0	464	0	0	
4	0	0	0	0	582	498	0	463	0	0	
5	0	0	0	0	579	497	0	462	0	0	
6	0	0	0	0	575	496	0	460	0	0	
7	0	0	0	0	571	494	0	456	0	0	
8	0	0	0	0	567	490	0	451	0	0	
9	0	0	0	0	561	485	0	445	0	0	
10	0	0	0	0	555	480	0	439	0	0	
11	0	0	0	0	548	473	0	431	0	0	
12	0	0	0	0	542	466	0	423	0	0	
13	0	0	0	0	535	459	0	414	0	0	
14	0	0	0	0	527	452	0	406	0	0	
15	0	0	0	0	522	446	0	399	0	0	
0	0	0	0	0	517	441	0	393	0	0	
1	0	0	0	0	513	437	0	387	0	0	
2	0	0	0	0	511	434	0	384	0	0	
3	0	0	0	0	510	433	0	381	0	0	
4	0	0	0	0	510	433	0	379	0	0	
5	0	0	0	0	512	435	0	379	0	0	
6	0	0	0	0	515	437	0	380	0	0	
7	0	0	0	0	519	440	0	383	0	0	
8	0	0	0	0	523	443	0	385	0	0	
9	0	0	0	0	527	446	0	389	0	0	
10	0	0	0	0	530	448	0	392	0	0	
11	0	0	0	0	532	448	0	395	0	0	
12	0	0	0	0	532	448	0	396	0	0	
13	0	0	0	0	532	447	0	398	0	0	
14	0	0	0	0	531	445	0	399	0	0	
15	0	0	0	0	529	443	0	400	0	0	
0	0	0	0	0	528	442	0	401	0	0	
1	0	0	0	0	527	440	0	402	0	0	
2	0	0	0	0	526	440	0	404	0	0	
3	0	0	0	0	525	440	0	406	0	0	
4	0	0	0	0	524	440	0	407	0	0	
5	0	0	0	0	524	440	0	409	0	0	
6	0	0	0	0	523	440	0	410	0	0	
7	0	0	0	0	522	441	0	412	0	0	
8	0	0	0	0	521	441	0	412	0	0	
9	0	0	0	0	521	442	0	412	0	0	
10	0	0	0	0	520	443	0	412	0	0	
11	0	0	0	0	520	444	0	411	0	0	
12	0	0	0	0	518	443	0	409	0	0	
13	0	0	0	0	517	442	0	406	0	0	
14	0	0	0	0	515	440	0	402	0	0	
15	0	0	0	0	512	437	0	398	0	0	
0	0	0	0	0	509	433	0	395	0	0	
1	0	0	0	0	506	429	0	391	0	0	
2	0	0	0	0	502	425	0	388	0	0	
3	0	0	0	0	500	422	0	387	0	0	
4	0	0	0	0	497	420	0	387	0	0	
5	0	0	0	0	496	419	0	389	0	0	
6	0	0	0	0	496	419	0	392	0	0	
7	0	0	0	0	497	421	0	396	0	0	
8	0	0	0	0	497	423	0	400	0	0	
9	0	0	0	0	499	427	0	404	0	0	
10	0	0	0	0	501	430	0	408	0	0	
11	0	0	0	0	504	433	0	412	0	0	
12	0	0	0	0	507	437	0	415	0	0	
13	0	0	0	0	510	441	0	419	0	0	
14	0	0	0	0	514	445	0	422	0	0	
15	0	0	0	0	519	449	0	425	0	0	
0	0	0	0	0	524	453	0	428	0	0	
1	0	0	0	0	531	458	0	431	0	0	
2	0	0	0	0	538	463	0	435	0	0	
3	0	0	0	0	545	468	0	439	0	0	
4	0	0	0	0	554	474	0	443	0	0	
5	0	0	0	0	562	480	0	447	0	0	
6	0	0	0	0	571	487	0	451	0	0	
7	0	0	0	0	578	493	0	455	0	0	
8	0	0	0	0	585	497	0	458	0	0	
9	0	0	0	0	589	501	0	460	0	0	
10	0	0	0	0	590	502	0	459	0	0	
11	0	0	0	0	589	501	0	457	0	0	
12	0	0	0	0	584	498	0	454	0	0	
13	0	0	0	0	577	493	0	448	0	0	
14	0	0	0	0	567	486	0	443	0	0	
15	0	0	0	0	555	478	0	436	0	0	
0	0	0	0	0	543	470	0	429	0	0	
1	0	0	0	0	531	461	0	422	0	0	
2	0	0	0	0	519	452	0	415	0	0	
3	0	0	0	0	510	446	0	410	0	0	
4	0	0	0	0	502	440	0	406	0	0	
5	0	0	0	0	499	437	0	403	0	0	
6	0	0	0	0	499	436	0	403	0	0	
7	0	0	0	0	501	436	0	403	0	0	
8	0	0	0	0	506	438	0	406	0	0	
9	0	0	0	0	512	440	0	408	0	0	
10	0	0	0	0	519	444	0	412	0	0	
11	0	0	0	0	525	446	0	415	0	0	
12	0	0	0	0	530	448	0	418	0	0	
13	0	0	0	0	533	449	0	420	0	0	
14	0	0	0	0	534	448	0	423	0	0	
15	0	0	0	0	534	448	0	425	0	0	
0	0	0	0	0	532	448	0	427	0	0	
1	0	0	0	0	530	448	0	430	0	0	
2	0	0	0	0	528	449	0	433	0	0	
3	0	0	0	0	526	450	0	438	0	0	
4	0	0	0	0	525	453	0	441	0	0	
5	0	0	0	0	526	456	0	445	0	0	
6	0	0	0	0	527	460	0	449	0	0	
7	0	0	0	0	530	464	0	452	0	0	
8	0	0	0	0	534	468	0	455	0	0	
9	0	0	0	0	538	472	0	456	0	0	
10	0	0	0	0	543	475	0	456	0	0	
11	0	0	0	0	546	476	0	455	0	0	
12	0	0	0	0	549	476	0	453	0	0	
13	0	0	0	0	550	475	0	449	0	0	
14	0	0	0	0	550	472	0	444	0	0	
15	0	0	0	0	547	467	0	438	0	0	
0	0	0	0	0	541	460	0	429	0	0	
1	0	0	0	0	532	450	0	420	0	0	
2	0	0	0	0	520	440	0	410	0	0	
3	0	0	0	0	508	430	0	401	0	0	
4	0	0	0	0	496	420	0	393	0	0	
5	0	0	0	0	484	412	0	387	0	0	
6	0	0	0	0	472	404	0	381	0	0	
7	0	0	0	0	462	397	0	376	0	0	
8	0	0	0	0	451	390	0	371	0	0	
9	0	0	0	0	440	382	0	364	0	0	
10	0	0	0	0	428	374	0	357	0	0	
11	0	0	0	0	417	364	0	349	0	0	
12	0	0	0	0	405	354	0	339	0	0	
13	0	0	0	0	392	342	0	327	0	0	
14	0	0	0	0	379	329	0	314	0	0	
15	0	0	0	0	366	316	0	300	0	0	
0	0	0	0	0	352	302	0	284	0	0	
1	0	0	0	0	338	287	0	268	0	0	
2	0	0	0	0	324	272	0	251	0	0	
3	0	0	0	0	310	258	0	235	0	0	
4	0	0	0	0	295	244	0	219	0	0	
5	0	0	0	0	281	230	0	204	0	0	
6	0	0	0	0	268	217	0	190	0	0	
7	0	0	0	0	254	204	0	178	0	0	
8	0	0	0	0	241	193	0	168	0	0	
9	0	0	0	0	230	184	0	160	0	0	
10	0	0	0	0	221	176	0	156	0	0	
11	0	0	0	0	216	171	0	155	0	0	
12	0	0	0	0	213	169	0	156	0	0	
13	0	0	0	0	216	172	0	162	0	0	
14	0	0	0	0	224	177	0	173	0	0	
15	0	0	0	0	238	188	0	188	0	0	
0	0	0	0	0	257	202	0	207	0	0	
1	0	0	0	0	281	221	0	229	0	0	
2	0	0	0	0	310	243	0	254	0	0	
3	0	0	0	0	344	268	0	281	0	0	
4	0	0	0	0	378	295	0	308	0	0	
5	0	0	0	0	414	323	0	336	0	0	
6	0	0	0	0	450	352	0	363	0	0	
7	0	0	0	0	483	380	0	388	0	0	
8	0	0	0	0	514	408	0	412	0	0	
9	0	0	0	0	540	432	0	432	0	0	
10	0	0	0	0	560	454	0	449	0	0	
11	0	0	0	0	575	472	0	462	0	0	
12	0	0	0	0	585	487	0	471	0	0	
13	0	0	0	0	591	499	0	477	0	0	
14	0	0	0	0	591	507	0	480	0	0	
15	0	0	0	0	588	511	0	480	0	0	
0	0	0	0	0	582	513	0	478	0	0	
1	0	0	0	0	575	512	0	473	0	0	
2	0	0	0	0	566	509	0	466	0	0	
3	0	0	0	0	555	503	0	457	0	0	
4	0	0	0	0	545	496	0	447	0	0	
5	0	0	0	0	535	487	0	438	0	0	
6	0	0	0	0	526	478	0	428	0	0	
7	0	0	0	0	520	469	0	419	0	0	
8	0	0	0	0	515	462	0	411	0	0	
9	0	0	0	0	513	455	0	405	0	0	
10	0	0	0	0	512	451	0	400	0	0	
11	0	0	0	0	515	449	0	399	0	0	
12	0	0	0	0	519	448	0	399	0	0	
13	0	0	0	0	524	449	0	401	0	0	
14	0	0	0	0	529	451	0	405	0	0	
15	0	0	0	0	535	454	0	410	0	0	
0	0	0	0	0	540	457	0	416	0	0	
1	0	0	0	0	546	462	0	423	0	0	
2	0	0	0	0	551	466	0	430	0	0	
3	0	0	0	0	556	472	0	438	0	0	
4	0	0	0	0	560	477	0	444	0	0	
5	0	0	0	0	563	482	0	449	0	0	
6	0	0	0	0	565	487	0	454	0	0	
7	0	0	0	0	567	489	0	457	0	0	
8	0	0	0	0	567	492	0	458	0	0	
9	0	0	0	0	566	492	0	457	0	0	
10	0	0	0	0	565	492	0	455	0	0	
11	0	0	0	0	563	490	0	452	0	0	
12	0	0	0	0	560	488	0	450	0	0	
13	0	0	0	0	558	486	0	446	0	0	
14	0	0	0	0	556	484	0	443	0	0	
15	0	0	0	0	554	482	0	440	0	0	
0	0	0	0	0	552	481	0	438	0	0	
1	0	0	0	0	552	480	0	437	0	0	
2	0	0	0	0	552	481	0	438	0	0	
3	0	0	0	0	554	483	0	439	0	0	
4	0	0	0	0	556	486	0	441	0	0	
5	0	0	0	0	559	488	0	444	0	0	
6	0	0	0	0	561	492	0	448	0	0	
7	0	0	0	0	563	495	0	451	0	0	
8	0	0	0	0	565	498	0	455	0	0	
9	0	0	0	0	567	500	0	459	0	0	
10	0	0	0	0	568	503	0	462	0	0	
11	0	0	0	0	569	505	0	465	0	0	
12	0	0	0	0	569	505	0	467	0	0	
13	0	0	0	0	568	504	0	466	0	0	
14	0	0	0	0	566	501	0	464	0	0	
15	0	0	0	0	561	496	0	460	0	0	
0	0	0	0	0	555	490	0	455	0	0	
1	0	0	0	0	548	484	0	448	0	0	
2	0	0	0	0	541	477	0	442	0	0	
3	0	0	0	0	535	471	0	436	0	0	
4	0	0	0	0	530	466	0	432	0	0	
5	0	0	0	0	527	463	0	430	0	0	
6	0	0	0	0	527	462	0	430	0	0	
7	0	0	0	0	529	464	0	433	0	0	
8	0	0	0	0	534	467	0	438	0	0	
9	0	0	0	0	540	473	0	444	0	0	
10	0	0	0	0	548	480	0	452	0	0	
11	0	0	0	0	558	488	0	460	0	0	
12	0	0	0	0	566	495	0	467	0	0	
13	0	0	0	0	575	503	0	475	0	0	
14	0	0	0	0	582	509	0	481	0	0	
15	0	0	0	0	588	514	0	485	0	0	
0	0	0	0	0	590	517	0	487	0	0	
1	0	0	0	0	592	518	0	488	0	0	
2	0	0	0	0	591	518	0	487	0	0	
3	0	0	0	0	590	517	0	485	0	0	
4	0	0	0	0	587	515	0	481	0	0	
5	0	0	0	0	583	512	0	477	0	0	
6	0	0	0	0	579	508	0	472	0	0	
7	0	0	0	0	574	505	0	468	0	0	
8	0	0	0	0	568	500	0	463	0	0	
9	0	0	0	0	562	495	0	459	0	0	
10	0	0	0	0	555	489	0	455	0	0	
11	0	0	0	0	547	483	0	451	0	0	
12	0	0	0	0	540	478	0	448	0	0	
13	0	0	0	0	533	472	0	446	0	0	
14	0	0	0	0	527	468	0	445	0	0	
15	0	0	0	0	520	464	0	444	0	0	
0	0	0	0	0	515	460	0	444	0	0	
1	0	0	0	0	511	457	0	443	0	0	
2	0	0	0	0	507	453	0	441	0	0	
3	0	0	0	0	503	449	0	439	0	0	
4	0	0	0	0	499	446	0	436	0	0	
5	0	0	0	0	497	443	0	432	0	0	
6	0	0	0	0	495	439	0	428	0	0	
7	0	0	0	0	494	437	0	423	0	0	
8	0	0	0	0	494	434	0	418	0	0	
9	0	0	0	0	494	433	0	413	0	0	
10	0	0	0	0	495	432	0	409	0	0	
11	0	0	0	0	497	432	0	406	0	0	
12	0	0	0	0	499	433	0	404	0	0	
13	0	0	0	0	503	435	0	405	0	0	
14	0	0	0	0	507	438	0	407	0	0	
15	0	0	0	0	511	441	0	411	0	0	
0	0	0	0	0	516	446	0	416	0	0	
1	0	0	0	0	520	450	0	422	0	0	
2	0	0	0	0	523	454	0	428	0	0	
3	0	0	0	0	524	457	0	433	0	0	
4	0	0	0	0	525	460	0	439	0	0	
5	0	0	0	0	525	462	0	444	0	0	
6	0	0	0	0	525	464	0	448	0	0	
7	0	0	0	0	524	466	0	451	0	0	
8	0	0	0	0	523	466	0	454	0	0	
9	0	0	0	0	523	467	0	455	0	0	
10	0	0	0	0	523	467	0	456	0	0	
11	0	0	0	0	523	466	0	457	0	0	
12	0	0	0	0	523	465	0	456	0	0	
13	0	0	0	0	524	465	0	455	0	0	
14	0	0	0	0	524	463	0	453	0	0	
15	0	0	0	0	525	462	0	450	0	0	
0	0	0	0	0	525	461	0	447	0	0	
1	0	0	0	0	525	459	0	443	0	0	
2	0	0	0	0	525	458	0	440	0	0	
3	0	0	0	0	524	457	0	436	0	0	
4	0	0	0	0	524	458	0	433	0	0	
5	0	0	0	0	523	458	0	431	0	0	
6	0	0	0	0	521	458	0	428	0	0	
7	0	0	0	0	519	458	0	426	0	0	
8	0	0	0	0	517	459	0	423	0	0	
9	0	0	0	0	515	460	0	420	0	0	
10	0	0	0	0	515	460	0	417	0	0	
11	0	0	0	0	515	462	0	416	0	0	
12	0	0	0	0	516	464	0	415	0	0	
13	0	0	0	0	521	467	0	415	0	0	
14	0	0	0	0	526	472	0	417	0	0	
15	0	0	0	0	534	477	0	420	0	0	
0	0	0	0	0	542	483	0	425	0	0	
1	0	0	0	0	551	489	0	432	0	0	
2	0	0	0	0	561	496	0	438	0	0	
3	0	0	0	0	569	501	0	446	0	0	
4	0	0	0	0	576	505	0	454	0	0	
5	0	0	0	0	581	508	0	461	0	0	
6	0	0	0	0	583	509	0	468	0	0	
7	0	0	0	0	583	509	0	474	0	0	
8	0	0	0	0	580	507	0	478	0	0	
9	0	0	0	0	575	504	0	481	0	0	
10	0	0	0	0	568	499	0	483	0	0	
11	0	0	0	0	560	494	0	482	0	0	
12	0	0	0	0	551	488	0	480	0	0	
13	0	0	0	0	543	483	0	476	0	0	
14	0	0	0	0	535	478	0	472	0	0	
15	0	0	0	0	527	473	0	467	0	0	
0	0	0	0	0	523	469	0	463	0	0	
1	0	0	0	0	519	466	0	457	0	0	
2	0	0	0	0	516	463	0	451	0	0	
3	0	0	0	0	515	461	0	446	0	0	
4	0	0	0	0	515	459	0	442	0	0	
5	0	0	0	0	516	458	0	438	0	0	
6	0	0	0	0	519	459	0	436	0	0	
7	0	0	0	0	524	460	0	435	0	0	
8	0	0	0	0	529	463	0	436	0	0	
9	0	0	0	0	535	467	0	439	0	0	
10	0	0	0	0	541	470	0	442	0	0	
11	0	0	0	0	546	474	0	445	0	0	
12	0	0	0	0	551	478	0	449	0	0	
13	0	0	0	0	555	481	0	453	0	0	
14	0	0	0	0	557	484	0	455	0	0	
15	0	0	0	0	558	485	0	458	0	0	
0	0	0	0	0	556	485	0	459	0	0	
1	0	0	0	0	554	484	0	458	0	0	
2	0	0	0	0	550	481	0	457	0	0	
3	0	0	0	0	544	478	0	454	0	0	
4	0	0	0	0	537	472	0	449	0	0	
5	0	0	0	0	530	467	0	443	0	0	
6	0	0	0	0	523	461	0	436	0	0	
7	0	0	0	0	516	455	0	430	0	0	
8	0	0	0	0	511	450	0	424	0	0	
9	0	0	0	0	506	445	0	419	0	0	
10	0	0	0	0	503	441	0	414	0	0	
11	0	0	0	0	502	439	0	410	0	0	
12	0	0	0	0	501	437	0	408	0	0	
13	0	0	0	0	501	436	0	407	0	0	
14	0	0	0	0	502	436	0	408	0	0	
15	0	0	0	0	503	437	0	409	0	0	
0	0	0	0	0	505	439	0	411	0	0	
1	0	0	0	0	508	441	0	415	0	0	
2	0	0	0	0	510	445	0	419	0	0	
3	0	0	0	0	513	449	0	424	0	0	
4	0	0	0	0	517	454	0	430	0	0	
5	0	0	0	0	522	459	0	436	0	0	
6	0	0	0	0	527	464	0	442	0	0	
7	0	0	0	0	531	469	0	448	0	0	
8	0	0	0	0	536	473	0	452	0	0	
9	0	0	0	0	538	475	0	455	0	0	
10	0	0	0	0	540	476	0	456	0	0	
11	0	0	0	0	540	475	0	454	0	0	
12	0	0	0	0	536	472	0	450	0	0	
13	0	0	0	0	531	466	0	444	0	0	
14	0	0	0	0	524	459	0	436	0	0	
15	0	0	0	0	514	449	0	426	0	0	
0	0	0	0	0	502	438	0	416	0	0	
1	0	0	0	0	491	428	0	406	0	0	
2	0	0	0	0	479	417	0	397	0	0	
3	0	0	0	0	468	408	0	391	0	0	
4	0	0	0	0	460	402	0	386	0	0	
5	0	0	0	0	455	398	0	385	0	0	
6	0	0	0	0	452	397	0	387	0	0	
7	0	0	0	0	452	398	0	391	0	0	
8	0	0	0	0	454	401	0	398	0	0	
9	0	0	0	0	460	407	0	406	0	0	
10	0	0	0	0	466	413	0	415	0	0	
11	0	0	0	0	475	421	0	425	0	0	
12	0	0	0	0	485	429	0	435	0	0	
13	0	0	0	0	495	438	0	444	0	0	
14	0	0	0	0	506	446	0	451	0	0	
15	0	0	0	0	516	454	0	458	0	0	
0	0	0	0	0	526	462	0	463	0	0	
1	0	0	0	0	534	467	0	466	0	0	
2	0	0	0	0	541	472	0	467	0	0	
3	0	0	0	0	548	477	0	467	0	0	
4	0	0	0	0	554	481	0	466	0	0	
5	0	0	0	0	559	485	0	465	0	0	
6	0	0	0	0	564	489	0	465	0	0	
7	0	0	0	0	568	494	0	465	0	0	
8	0	0	0	0	572	498	0	466	0	0	
9	0	0	0	0	575	503	0	467	0	0	
10	0	0	0	0	576	506	0	470	0	0	
11	0	0	0	0	578	509	0	472	0	0	
12	0	0	0	0	578	511	0	473	0	0	
13	0	0	0	0	578	513	0	475	0	0	
14	0	0	0	0	576	513	0	476	0	0	
15	0	0	0	0	574	512	0	476	0	0	
0	0	0	0	0	571	509	0	475	0	0	
1	0	0	0	0	567	505	0	473	0	0	
2	0	0	0	0	562	501	0	470	0	0	
3	0	0	0	0	557	496	0	467	0	0	
4	0	0	0	0	552	490	0	464	0	0	
5	0	0	0	0	547	484	0	461	0	0	
6	0	0	0	0	542	479	0	457	0	0	
7	0	0	0	0	538	474	0	454	0	0	
8	0	0	0	0	534	470	0	451	0	0	
9	0	0	0	0	531	466	0	449	0	0	
10	0	0	0	0	528	463	0	447	0	0	
11	0	0	0	0	526	462	0	446	0	0	
12	0	0	0	0	524	461	0	445	0	0	
13	0	0	0	0	523	460	0	444	0	0	
14	0	0	0	0	522	461	0	444	0	0	
15	0	0	0	0	521	462	0	445	0	0	
0	0	0	0	0	521	463	0	446	0	0	
1	0	0	0	0	521	464	0	448	0	0	
2	0	0	0	0	522	465	0	449	0	0	
3	0	0	0	0	523	467	0	451	0	0	
4	0	0	0	0	523	468	0	454	0	0	
5	0	0	0	0	525	470	0	455	0	0	
6	0	0	0	0	526	471	0	457	0	0	
7	0	0	0	0	527	472	0	458	0	0	
8	0	0	0	0	527	471	0	458	0	0	
9	0	0	0	0	527	470	0	457	0	0	
10	0	0	0	0	527	468	0	455	0	0	
11	0	0	0	0	526	466	0	453	0	0	
12	0	0	0	0	525	464	0	450	0	0	
13	0	0	0	0	523	463	0	448	0	0	
14	0	0	0	0	521	461	0	445	0	0	
15	0	0	0	0	519	460	0	443	0	0	
0	0	0	0	0	518	460	0	441	0	0	
1	0	0	0	0	517	460	0	440	0	0	
2	0	0	0	0	516	462	0	440	0	0	
3	0	0	0	0	516	464	0	441	0	0	
4	0	0	0	0	517	466	0	444	0	0	
5	0	0	0	0	519	469	0	446	0	0	
6	0	0	0	0	522	472	0	450	0	0	
7	0	0	0	0	524	475	0	454	0	0	
8	0	0	0	0	527	477	0	457	0	0	
9	0	0	0	0	530	479	0	459	0	0	
10	0	0	0	0	532	480	0	461	0	0	
11	0	0	0	0	533	479	0	461	0	0	
12	0	0	0	0	533	478	0	460	0	0	
13	0	0	0	0	531	475	0	458	0	0	
14	0	0	0	0	530	473	0	455	0	0	
15	0	0	0	0	528	470	0	452	0	0	
0	0	0	0	0	527	468	0	450	0	0	
1	0	0	0	0	525	465	0	447	0	0	
2	0	0	0	0	523	464	0	445	0	0	
3	0	0	0	0	522	464	0	444	0	0	
4	0	0	0	0	522	466	0	444	0	0	
5	0	0	0	0	524	470	0	446	0	0	
6	0	0	0	0	527	476	0	450	0	0	
7	0	0	0	0	533	483	0	455	0	0	
8	0	0	0	0	541	493	0	463	0	0	
9	0	0	0	0	551	504	0	471	0	0	
10	0	0	0	0	561	515	0	479	0	0	
11	0	0	0	0	572	526	0	487	0	0	
12	0	0	0	0	583	536	0	494	0	0	
13	0	0	0	0	591	543	0	499	0	0	
14	0	0	0	0	598	547	0	502	0	0	
15	0	0	0	0	601	548	0	502	0	0	
0	0	0	0	0	601	545	0	500	0	0	
1	0	0	0	0	596	539	0	495	0	0	
2	0	0	0	0	587	528	0	487	0	0	
3	0	0	0	0	574	514	0	478	0	0	
4	0	0	0	0	557	497	0	466	0	0	
5	0	0	0	0	537	479	0	454	0	0	
6	0	0	0	0	516	460	0	442	0	0	
7	0	0	0	0	496	443	0	431	0	0	
8	0	0	0	0	478	429	0	422	0	0	
9	0	0	0	0	463	418	0	417	0	0	
10	0	0	0	0	453	411	0	414	0	0	
11	0	0	0	0	447	408	0	415	0	0	
12	0	0	0	0	446	408	0	417	0	0	
13	0	0	0	0	450	412	0	423	0	0	
14	0	0	0	0	457	418	0	428	0	0	
15	0	0	0	0	466	425	0	434	0	0	
0	0	0	0	0	478	433	0	440	0	0	
1	0	0	0	0	490	441	0	444	0	0	
2	0	0	0	0	502	449	0	447	0	0	
3	0	0	0	0	514	456	0	450	0	0	
4	0	0	0	0	524	462	0	451	0	0	
5	0	0	0	0	534	468	0	451	0	0	
6	0	0	0	0	542	472	0	451	0	0	
7	0	0	0	0	548	476	0	451	0	0	
8	0	0	0	0	553	480	0	451	0	0	
9	0	0	0	0	556	483	0	451	0	0	
10	0	0	0	0	558	487	0	451	0	0	
11	0	0	0	0	559	490	0	453	0	0	
12	0	0	0	0	559	493	0	455	0	0	
13	0	0	0	0	558	495	0	457	0	0	
14	0	0	0	0	554	495	0	460	0	0	
15	0	0	0	0	550	494	0	462	0	0	
0	0	0	0	0	543	493	0	463	0	0	
1	0	0	0	0	537	490	0	464	0	0	
2	0	0	0	0	530	486	0	465	0	0	
3	0	0	0	0	524	482	0	465	0	0	
4	0	0	0	0	517	477	0	464	0	0	
5	0	0	0	0	513	473	0	463	0	0	
6	0	0	0	0	509	469	0	462	0	0	
7	0	0	0	0	508	465	0	460	0	0	
8	0	0	0	0	507	463	0	457	0	0	
9	0	0	0	0	509	461	0	455	0	0	
10	0	0	0	0	512	461	0	452	0	0	
11	0	0	0	0	517	462	0	451	0	0	
12	0	0	0	0	522	463	0	449	0	0	
13	0	0	0	0	528	465	0	449	0	0	
14	0	0	0	0	535	468	0	450	0	0	
15	0	0	0	0	541	472	0	451	0	0	
0	0	0	0	0	547	478	0	454	0	0	
1	0	0	0	0	552	482	0	457	0	0	
2	0	0	0	0	555	486	0	459	0	0	
3	0	0	0	0	556	487	0	462	0	0	
4	0	0	0	0	554	488	0	462	0	0	
5	0	0	0	0	550	487	0	462	0	0	
6	0	0	0	0	544	486	0	462	0	0	
7	0	0	0	0	537	482	0	460	0	0	
8	0	0	0	0	530	478	0	458	0	0	
9	0	0	0	0	523	475	0	455	0	0	
10	0	0	0	0	516	471	0	452	0	0	
11	0	0	0	0	511	467	0	450	0	0	
12	0	0	0	0	508	463	0	448	0	0	
13	0	0	0	0	506	460	0	447	0	0	
14	0	0	0	0	506	459	0	446	0	0	
15	0	0	0	0	508	459	0	446	0	0	
0	0	0	0	0	513	460	0	448	0	0	
1	0	0	0	0	519	463	0	450	0	0	
2	0	0	0	0	526	467	0	454	0	0	
3	0	0	0	0	534	472	0	458	0	0	
4	0	0	0	0	542	478	0	463	0	0	
5	0	0	0	0	548	484	0	467	0	0	
6	0	0	0	0	554	489	0	472	0	0	
7	0	0	0	0	558	493	0	475	0	0	
8	0	0	0	0	559	496	0	476	0	0	
9	0	0	0	0	560	497	0	477	0	0	
10	0	0	0	0	558	497	0	477	0	0	
11	0	0	0	0	553	494	0	474	0	0	
12	0	0	0	0	545	490	0	470	0	0	
13	0	0	0	0	537	484	0	464	0	0	
14	0	0	0	0	527	476	0	457	0	0	
15	0	0	0	0	517	468	0	449	0	0	
0	0	0	0	0	507	460	0	442	0	0	
1	0	0	0	0	499	452	0	436	0	0	
2	0	0	0	0	492	446	0	430	0	0	
3	0	0	0	0	487	442	0	427	0	0	
4	0	0	0	0	485	440	0	425	0	0	
5	0	0	0	0	486	440	0	426	0	0	
6	0	0	0	0	491	444	0	429	0	0	
7	0	0	0	0	497	450	0	435	0	0	
8	0	0	0	0	508	460	0	442	0	0	
9	0	0	0	0	520	471	0	452	0	0	
10	0	0	0	0	535	484	0	464	0	0	
11	0	0	0	0	549	497	0	475	0	0	
12	0	0	0	0	562	509	0	486	0	0	
13	0	0	0	0	574	520	0	496	0	0	
14	0	0	0	0	583	529	0	505	0	0	
15	0	0	0	0	589	534	0	511	0	0	
0	0	0	0	0	591	536	0	514	0	0	
1	0	0	0	0	588	535	0	515	0	0	
2	0	0	0	0	581	529	0	512	0	0	
3	0	0	0	0	572	521	0	507	0	0	
4	0	0	0	0	559	511	0	500	0	0	
5	0	0	0	0	546	500	0	492	0	0	
6	0	0	0	0	532	488	0	484	0	0	
7	0	0	0	0	520	478	0	475	0	0	
8	0	0	0	0	509	469	0	468	0	0	
9	0	0	0	0	502	462	0	462	0	0	
10	0	0	0	0	496	457	0	457	0	0	
11	0	0	0	0	495	455	0	455	0	0	
12	0	0	0	0	497	457	0	455	0	0	
13	0	0	0	0	501	460	0	458	0	0	
14	0	0	0	0	509	466	0	462	0	0	
15	0	0	0	0	518	473	0	468	0	0	
0	0	0	0	0	528	482	0	475	0	0	
1	0	0	0	0	540	492	0	484	0	0	
2	0	0	0	0	551	502	0	492	0	0	
3	0	0	0	0	561	510	0	499	0	0	
4	0	0	0	0	568	516	0	506	0	0	
5	0	0	0	0	573	521	0	510	0	0	
6	0	0	0	0	576	524	0	511	0	0	
7	0	0	0	0	576	524	0	511	0	0	
8	0	0	0	0	573	522	0	508	0	0	
9	0	0	0	0	568	519	0	503	0	0	
10	0	0	0	0	560	513	0	495	0	0	
11	0	0	0	0	550	506	0	487	0	0	
12	0	0	0	0	540	499	0	477	0	0	
13	0	0	0	0	529	491	0	468	0	0	
14	0	0	0	0	518	484	0	460	0	0	
15	0	0	0	0	510	478	0	452	0	0	
0	0	0	0	0	503	473	0	446	0	0	
1	0	0	0	0	497	469	0	442	0	0	
2	0	0	0	0	494	466	0	439	0	0	
3	0	0	0	0	493	464	0	438	0	0	
4	0	0	0	0	493	463	0	438	0	0	
5	0	0	0	0	496	464	0	440	0	0	
6	0	0	0	0	500	466	0	443	0	0	
7	0	0	0	0	506	468	0	446	0	0	
8	0	0	0	0	513	470	0	450	0	0	
9	0	0	0	0	520	473	0	454	0	0	
10	0	0	0	0	528	477	0	458	0	0	
11	0	0	0	0	536	480	0	463	0	0	
12	0	0	0	0	543	484	0	466	0	0	
13	0	0	0	0	550	487	0	470	0	0	
14	0	0	0	0	556	490	0	472	0	0	
15	0	0	0	0	560	492	0	472	0	0	
0	0	0	0	0	561	493	0	473	0	0	
1	0	0	0	0	562	494	0	472	0	0	
2	0	0	0	0	560	493	0	471	0	0	
3	0	0	0	0	556	492	0	469	0	0	
4	0	0	0	0	551	490	0	467	0	0	
5	0	0	0	0	546	488	0	464	0	0	
6	0	0	0	0	540	486	0	462	0	0	
7	0	0	0	0	534	484	0	460	0	0	
8	0	0	0	0	528	482	0	457	0	0	
9	0	0	0	0	525	481	0	455	0	0	
10	0	0	0	0	523	480	0	454	0	0	
11	0	0	0	0	521	480	0	452	0	0	
12	0	0	0	0	521	479	0	451	0	0	
13	0	0	0	0	522	479	0	449	0	0	
14	0	0	0	0	524	479	0	448	0	0	
15	0	0	0	0	527	479	0	446	0	0	
0	0	0	0	0	530	480	0	444	0	0	
1	0	0	0	0	534	480	0	444	0	0	
2	0	0	0	0	539	482	0	442	0	0	
3	0	0	0	0	543	483	0	441	0	0	
4	0	0	0	0	548	484	0	440	0	0	
5	0	0	0	0	551	486	0	440	0	0	
6	0	0	0	0	553	485	0	438	0	0	
7	0	0	0	0	553	484	0	437	0	0	
8	0	0	0	0	552	483	0	436	0	0	
9	0	0	0	0	549	481	0	435	0	0	
10	0	0	0	0	544	478	0	434	0	0	
11	0	0	0	0	540	474	0	433	0	0	
12	0	0	0	0	534	471	0	431	0	0	
13	0	0	0	0	528	467	0	430	0	0	
14	0	0	0	0	523	463	0	428	0	0	
15	0	0	0	0	518	460	0	427	0	0	
0	0	0	0	0	515	457	0	426	0	0	
1	0	0	0	0	512	455	0	425	0	0	
2	0	0	0	0	511	454	0	423	0	0	
3	0	0	0	0	512	454	0	423	0	0	
4	0	0	0	0	515	455	0	423	0	0	
5	0	0	0	0	519	456	0	424	0	0	
6	0	0	0	0	522	459	0	425	0	0	
7	0	0	0	0	527	461	0	427	0	0	
8	0	0	0	0	532	464	0	428	0	0	
9	0	0	0	0	537	467	0	431	0	0	
10	0	0	0	0	541	468	0	432	0	0	
11	0	0	0	0	543	470	0	435	0	0	
12	0	0	0	0	544	470	0	436	0	0	
13	0	0	0	0	544	470	0	438	0	0	
14	0	0	0	0	543	470	0	439	0	0	
15	0	0	0	0	542	469	0	439	0	0	
0	0	0	0	0	540	468	0	439	0	0	
1	0	0	0	0	537	467	0	438	0	0	
2	0	0	0	0	535	465	0	436	0	0	
3	0	0	0	0	532	464	0	433	0	0	
4	0	0	0	0	528	462	0	430	0	0	
5	0	0	0	0	524	458	0	425	0	0	
6	0	0	0	0	520	455	0	420	0	0	
7	0	0	0	0	516	450	0	414	0	0	
8	0	0	0	0	512	446	0	408	0	0	
9	0	0	0	0	509	441	0	401	0	0	
10	0	0	0	0	506	438	0	395	0	0	
11	0	0	0	0	504	434	0	389	0	0	
12	0	0	0	0	503	432	0	384	0	0	
13	0	0	0	0	503	430	0	381	0	0	
14	0	0	0	0	503	430	0	379	0	0	
15	0	0	0	0	505	431	0	379	0	0	
0	0	0	0	0	508	433	0	380	0	0	
1	0	0	0	0	511	437	0	383	0	0	
2	0	0	0	0	515	441	0	387	0	0	
3	0	0	0	0	518	445	0	391	0	0	
4	0	0	0	0	521	449	0	396	0	0	
5	0	0	0	0	524	453	0	400	0	0	
6	0	0	0	0	527	456	0	404	0	0	
7	0	0	0	0	529	459	0	408	0	0	
8	0	0	0	0	531	461	0	410	0	0	
9	0	0	0	0	532	461	0	412	0	0	
10	0	0	0	0	532	461	0	412	0	0	
11	0	0	0	0	531	460	0	412	0	0	
12	0	0	0	0	530	457	0	411	0	0	
13	0	0	0	0	529	455	0	411	0	0	
14	0	0	0	0	529	453	0	411	0	0	
15	0	0	0	0	529	452	0	411	0	0	
0	0	0	0	0	529	451	0	412	0	0	
1	0	0	0	0	529	449	0	411	0	0	
2	0	0	0	0	529	447	0	411	0	0	
3	0	0	0	0	528	445	0	410	0	0	
4	0	0	0	0	527	444	0	408	0	0	
5	0	0	0	0	524	441	0	407	0	0	
6	0	0	0	0	522	439	0	404	0	0	
7	0	0	0	0	519	437	0	402	0	0	
8	0	0	0	0	516	435	0	400	0	0	
9	0	0	0	0	513	435	0	398	0	0	
10	0	0	0	0	511	434	0	397	0	0	
11	0	0	0	0	509	433	0	396	0	0	
12	0	0	0	0	508	433	0	395	0	0	
13	0	0	0	0	507	432	0	394	0	0	
14	0	0	0	0	507	431	0	392	0	0	
15	0	0	0	0	507	430	0	390	0	0	
0	0	0	0	0	507	427	0	387	0	0	
1	0	0	0	0	506	424	0	382	0	0	
2	0	0	0	0	504	420	0	377	0	0	
3	0	0	0	0	503	415	0	372	0	0	
4	0	0	0	0	500	411	0	367	0	0	
5	0	0	0	0	497	406	0	362	0	0	
6	0	0	0	0	495	402	0	359	0	0	
7	0	0	0	0	493	400	0	357	0	0	
8	0	0	0	0	494	401	0	358	0	0	
9	0	0	0	0	495	403	0	360	0	0	
10	0	0	0	0	499	409	0	366	0	0	
11	0	0	0	0	504	416	0	374	0	0	
12	0	0	0	0	511	424	0	383	0	0	
13	0	0	0	0	519	435	0	393	0	0	
14	0	0	0	0	529	446	0	404	0	0	
15	0	0	0	0	539	455	0	415	0	0	
0	0	0	0	0	547	465	0	423	0	0	
1	0	0	0	0	555	473	0	432	0	0	
2	0	0	0	0	561	479	0	436	0	0	
3	0	0	0	0	565	482	0	439	0	0	
4	0	0	0	0	567	482	0	439	0	0	
5	0	0	0	0	566	480	0	437	0	0	
6	0	0	0	0	562	476	0	432	0	0	
7	0	0	0	0	558	471	0	426	0	0	
8	0	0	0	0	551	464	0	418	0	0	
9	0	0	0	0	542	455	0	409	0	0	
10	0	0	0	0	532	446	0	401	0	0	
11	0	0	0	0	524	438	0	393	0	0	
12	0	0	0	0	515	431	0	385	0	0	
13	0	0	0	0	507	424	0	380	0	0	
14	0	0	0	0	500	419	0	375	0	0	
15	0	0	0	0	494	415	0	372	0	0	
0	0	0	0	0	491	413	0	370	0	0	
1	0	0	0	0	489	413	0	371	0	0	
2	0	0	0	0	491	415	0	374	0	0	
3	0	0	0	0	495	419	0	378	0	0	
4	0	0	0	0	502	424	0	384	0	0	
5	0	0	0	0	511	432	0	391	0	0	
6	0	0	0	0	521	440	0	399	0	0	
7	0	0	0	0	532	448	0	407	0	0	
8	0	0	0	0	543	455	0	415	0	0	
9	0	0	0	0	552	462	0	421	0	0	
10	0	0	0	0	559	467	0	425	0	0	
11	0	0	0	0	563	470	0	427	0	0	
12	0	0	0	0	563	469	0	426	0	0	
13	0	0	0	0	559	465	0	423	0	0	
14	0	0	0	0	551	460	0	417	0	0	
15	0	0	0	0	542	452	0	411	0	0	
0	0	0	0	0	530	444	0	403	0	0	
1	0	0	0	0	519	436	0	397	0	0	
2	0	0	0	0	509	430	0	391	0	0	
3	0	0	0	0	501	425	0	387	0	0	
4	0	0	0	0	496	423	0	385	0	0	
5	0	0	0	0	495	423	0	384	0	0	
6	0	0	0	0	497	425	0	386	0	0	
7	0	0	0	0	501	429	0	388	0	0	
8	0	0	0	0	507	433	0	391	0	0	
9	0	0	0	0	513	437	0	393	0	0	
10	0	0	0	0	519	440	0	395	0	0	
11	0	0	0	0	524	441	0	395	0	0	
12	0	0	0	0	526	441	0	393	0	0	
13	0	0	0	0	526	439	0	390	0	0	
14	0	0	0	0	523	434	0	385	0	0	
15	0	0	0	0	518	428	0	379	0	0	
0	0	0	0	0	510	421	0	371	0	0	
1	0	0	0	0	499	411	0	362	0	0	
2	0	0	0	0	487	400	0	352	0	0	
3	0	0	0	0	473	389	0	342	0	0	
4	0	0	0	0	459	377	0	330	0	0	
5	0	0	0	0	444	366	0	319	0	0	
6	0	0	0	0	430	354	0	308	0	0	
7	0	0	0	0	415	342	0	297	0	0	
8	0	0	0	0	401	331	0	286	0	0	
9	0	0	0	0	388	319	0	275	0	0	
10	0	0	0	0	375	307	0	263	0	0	
11	0	0	0	0	362	295	0	252	0	0	
12	0	0	0	0	350	283	0	239	0	0	
13	0	0	0	0	339	272	0	227	0	0	
14	0	0	0	0	328	260	0	214	0	0	
15	0	0	0	0	319	248	0	201	0	0	
0	0	0	0	0	309	237	0	188	0	0	
1	0	0	0	0	300	225	0	176	0	0	
2	0	0	0	0	292	215	0	165	0	0	
3	0	0	0	0	286	207	0	156	0	0	
4	0	0	0	0	282	201	0	151	0	0	
5	0	0	0	0	281	199	0	149	0	0	
6	0	0	0	0	284	200	0	152	0	0	
7	0	0	0	0	291	205	0	159	0	0	
8	0	0	0	0	303	215	0	170	0	0	
9	0	0	0	0	318	228	0	185	0	0	
10	0	0	0	0	335	245	0	204	0	0	
11	0	0	0	0	355	263	0	225	0	0	
12	0	0	0	0	375	283	0	247	0	0	
13	0	0	0	0	397	303	0	270	0	0	
14	0	0	0	0	418	324	0	294	0	0	
15	0	0	0	0	439	344	0	316	0	0	
0	0	0	0	0	458	364	0	338	0	0	
1	0	0	0	0	477	384	0	358	0	0	
2	0	0	0	0	495	401	0	375	0	0	
3	0	0	0	0	510	417	0	391	0	0	
4	0	0	0	0	524	432	0	404	0	0	
5	0	0	0	0	536	444	0	415	0	0	
6	0	0	0	0	545	455	0	423	0	0	
7	0	0	0	0	553	463	0	429	0	0	
8	0	0	0	0	559	471	0	433	0	0	
9	0	0	0	0	564	477	0	437	0	0	
10	0	0	0	0	568	482	0	439	0	0	
11	0	0	0	0	571	487	0	441	0	0	
12	0	0	0	0	573	490	0	442	0	0	
13	0	0	0	0	574	492	0	443	0	0	
14	0	0	0	0	574	494	0	443	0	0	
15	0	0	0	0	572	494	0	441	0	0	
0	0	0	0	0	569	494	0	439	0	0	
1	0	0	0	0	565	492	0	436	0	0	
2	0	0	0	0	561	489	0	433	0	0	
3	0	0	0	0	556	486	0	429	0	0	
4	0	0	0	0	551	482	0	425	0	0	
5	0	0	0	0	547	478	0	420	0	0	
6	0	0	0	0	543	474	0	416	0	0	
7	0	0	0	0	540	470	0	413	0	0	
8	0	0	0	0	538	467	0	410	0	0	
9	0	0	0	0	536	465	0	408	0	0	
10	0	0	0	0	537	464	0	407	0	0	
11	0	0	0	0	537	464	0	407	0	0	
12	0	0	0	0	539	464	0	408	0	0	
13	0	0	0	0	540	464	0	410	0	0	
14	0	0	0	0	540	464	0	412	0	0	
15	0	0	0	0	540	464	0	414	0	0	
0	0	0	0	0	539	464	0	416	0	0	
1	0	0	0	0	538	464	0	418	0	0	
2	0	0	0	0	536	464	0	419	0	0	
3	0	0	0	0	534	463	0	420	0	0	
4	0	0	0	0	531	462	0	419	0	0	
5	0	0	0	0	529	460	0	419	0	0	
6	0	0	0	0	527	459	0	418	0	0	
7	0	0	0	0	524	457	0	416	0	0	
8	0	0	0	0	522	455	0	414	0	0	
9	0	0	0	0	521	453	0	411	0	0	
10	0	0	0	0	519	450	0	409	0	0	
11	0	0	0	0	519	448	0	408	0	0	
12	0	0	0	0	519	447	0	407	0	0	
13	0	0	0	0	519	446	0	407	0	0	
14	0	0	0	0	521	446	0	408	0	0	
15	0	0	0	0	524	447	0	410	0	0	
0	0	0	0	0	527	449	0	413	0	0	
1	0	0	0	0	531	451	0	416	0	0	
2	0	0	0	0	534	454	0	420	0	0	
3	0	0	0	0	538	458	0	423	0	0	
4	0	0	0	0	543	462	0	428	0	0	
5	0	0	0	0	546	466	0	432	0	0	
6	0	0	0	0	550	470	0	436	0	0	
7	0	0	0	0	553	474	0	440	0	0	
8	0	0	0	0	556	479	0	443	0	0	
9	0	0	0	0	558	483	0	446	0	0	
10	0	0	0	0	560	486	0	448	0	0	
11	0	0	0	0	561	488	0	450	0	0	
12	0	0	0	0	560	489	0	450	0	0	
13	0	0	0	0	559	489	0	449	0	0	
14	0	0	0	0	557	487	0	446	0	0	
15	0	0	0	0	555	486	0	444	0	0	
0	0	0	0	0	552	483	0	441	0	0	
1	0	0	0	0	550	480	0	438	0	0	
2	0	0	0	0	547	477	0	435	0	0	
3	0	0	0	0	545	473	0	432	0	0	
4	0	0	0	0	544	470	0	430	0	0	
5	0	0	0	0	542	467	0	428	0	0	
6	0	0	0	0	541	465	0	426	0	0	
7	0	0	0	0	540	464	0	425	0	0	
8	0	0	0	0	539	463	0	425	0	0	
9	0	0	0	0	538	462	0	424	0	0	
10	0	0	0	0	535	460	0	425	0	0	
11	0	0	0	0	531	458	0	425	0	0	
12	0	0	0	0	527	457	0	425	0	0	
13	0	0	0	0	524	455	0	425	0	0	
14	0	0	0	0	520	454	0	425	0	0	
15	0	0	0	0	517	453	0	427	0	0	
0	0	0	0	0	515	453	0	427	0	0	
1	0	0	0	0	515	454	0	428	0	0	
2	0	0	0	0	516	455	0	430	0	0	
3	0	0	0	0	518	457	0	431	0	0	
4	0	0	0	0	521	459	0	432	0	0	
5	0	0	0	0	525	462	0	433	0	0	
6	0	0	0	0	529	464	0	434	0	0	
7	0	0	0	0	534	466	0	435	0	0	
8	0	0	0	0	538	468	0	435	0	0	
9	0	0	0	0	542	471	0	435	0	0	
10	0	0	0	0	546	472	0	435	0	0	
11	0	0	0	0	548	473	0	435	0	0	
12	0	0	0	0	550	474	0	435	0	0	
13	0	0	0	0	550	474	0	435	0	0	
14	0	0	0	0	550	473	0	435	0	0	
15	0	0	0	0	547	472	0	435	0	0	
0	0	0	0	0	545	471	0	434	0	0	
1	0	0	0	0	542	470	0	434	0	0	
2	0	0	0	0	538	468	0	433	0	0	
3	0	0	0	0	535	467	0	433	0	0	
4	0	0	0	0	531	465	0	432	0	0	
5	0	0	0	0	529	465	0	431	0	0	
6	0	0	0	0	527	463	0	429	0	0	
7	0	0	0	0	524	462	0	427	0	0	
8	0	0	0	0	522	460	0	425	0	0	
9	0	0	0	0	520	457	0	423	0	0	
10	0	0	0	0	517	454	0	419	0	0	
11	0	0	0	0	515	450	0	417	0	0	
12	0	0	0	0	513	447	0	415	0	0	
13	0	0	0	0	512	444	0	413	0	0	
14	0	0	0	0	512	443	0	412	0	0	
15	0	0	0	0	512	441	0	412	0	0	
0	0	0	0	0	515	443	0	413	0	0	
1	0	0	0	0	519	446	0	416	0	0	
2	0	0	0	0	524	451	0	420	0	0	
3	0	0	0	0	531	458	0	426	0	0	
4	0	0	0	0	537	465	0	432	0	0	
5	0	0	0	0	545	474	0	438	0	0	
6	0	0	0	0	552	482	0	444	0	0	
7	0	0	0	0	558	488	0	448	0	0	
8	0	0	0	0	562	494	0	451	0	0	
9	0	0	0	0	563	496	0	453	0	0	
10	0	0	0	0	563	496	0	452	0	0	
11	0	0	0	0	559	492	0	448	0	0	
12	0	0	0	0	553	486	0	443	0	0	
13	0	0	0	0	543	477	0	436	0	0	
14	0	0	0	0	533	467	0	427	0	0	
15	0	0	0	0	521	455	0	418	0	0	
0	0	0	0	0	510	445	0	410	0	0	
1	0	0	0	0	501	435	0	403	0	0	
2	0	0	0	0	493	428	0	399	0	0	
3	0	0	0	0	488	423	0	397	0	0	
4	0	0	0	0	486	421	0	397	0	0	
5	0	0	0	0	487	422	0	400	0	0	
6	0	0	0	0	490	423	0	405	0	0	
7	0	0	0	0	495	428	0	411	0	0	
8	0	0	0	0	501	432	0	417	0	0	
9	0	0	0	0	506	437	0	422	0	0	
10	0	0	0	0	511	441	0	426	0	0	
11	0	0	0	0	514	444	0	428	0	0	
12	0	0	0	0	517	446	0	430	0	0	
13	0	0	0	0	518	447	0	429	0	0	
14	0	0	0	0	519	448	0	427	0	0	
15	0	0	0	0	519	448	0	425	0	0	
0	0	0	0	0	519	449	0	422	0	0	
1	0	0	0	0	519	449	0	419	0	0	
2	0	0	0	0	520	451	0	415	0	0	
3	0	0	0	0	523	453	0	413	0	0	
4	0	0	0	0	526	455	0	411	0	0	
5	0	0	0	0	529	457	0	410	0	0	
6	0	0	0	0	531	459	0	409	0	0	
7	0	0	0	0	532	460	0	409	0	0	
8	0	0	0	0	532	460	0	409	0	0	
9	0	0	0	0	530	458	0	411	0	0	
10	0	0	0	0	527	456	0	412	0	0	
11	0	0	0	0	523	453	0	413	0	0	
12	0	0	0	0	518	450	0	415	0	0	
13	0	0	0	0	513	446	0	416	0	0	
14	0	0	0	0	508	443	0	418	0	0	
15	0	0	0	0	504	440	0	420	0	0	
0	0	0	0	0	500	437	0	422	0	0	
1	0	0	0	0	497	435	0	423	0	0	
2	0	0	0	0	497	434	0	423	0	0	
3	0	0	0	0	497	433	0	424	0	0	
4	0	0	0	0	499	434	0	423	0	0	
5	0	0	0	0	500	434	0	422	0	0	
6	0	0	0	0	503	435	0	420	0	0	
7	0	0	0	0	506	436	0	417	0	0	
8	0	0	0	0	509	437	0	415	0	0	
9	0	0	0	0	512	439	0	412	0	0	
10	0	0	0	0	515	440	0	411	0	0	
11	0	0	0	0	517	442	0	409	0	0	
12	0	0	0	0	519	444	0	409	0	0	
13	0	0	0	0	520	446	0	409	0	0	
14	0	0	0	0	520	448	0	411	0	0	
15	0	0	0	0	519	448	0	413	0	0	
0	0	0	0	0	519	449	0	415	0	0	
1	0	0	0	0	517	450	0	417	0	0	
2	0	0	0	0	515	449	0	419	0	0	
3	0	0	0	0	514	449	0	421	0	0	
4	0	0	0	0	513	449	0	422	0	0	
5	0	0	0	0	512	448	0	422	0	0	
6	0	0	0	0	513	447	0	422	0	0	
7	0	0	0	0	515	447	0	421	0	0	
8	0	0	0	0	517	447	0	420	0	0	
9	0	0	0	0	520	448	0	419	0	0	
10	0	0	0	0	524	448	0	419	0	0	
11	0	0	0	0	528	449	0	418	0	0	
12	0	0	0	0	533	450	0	418	0	0	
13	0	0	0	0	537	452	0	418	0	0	
14	0	0	0	0	542	455	0	419	0	0	
15	0	0	0	0	547	458	0	419	0	0	
0	0	0	0	0	551	462	0	419	0	0	
1	0	0	0	0	553	465	0	420	0	0	
2	0	0	0	0	556	469	0	422	0	0	
3	0	0	0	0	557	472	0	423	0	0	
4	0	0	0	0	558	476	0	424	0	0	
5	0	0	0	0	558	479	0	425	0	0	
6	0	0	0	0	557	481	0	427	0	0	
7	0	0	0	0	555	481	0	426	0	0	
8	0	0	0	0	550	480	0	425	0	0	
9	0	0	0	0	544	476	0	422	0	0	
10	0	0	0	0	537	470	0	417	0	0	
11	0	0	0	0	528	462	0	412	0	0	
12	0	0	0	0	520	454	0	406	0	0	
13	0	0	0	0	512	444	0	400	0	0	
14	0	0	0	0	505	436	0	393	0	0	
15	0	0	0	0	500	429	0	387	0	0	
0	0	0	0	0	496	423	0	382	0	0	
1	0	0	0	0	495	419	0	377	0	0	
2	0	0	0	0	494	417	0	374	0	0	
3	0	0	0	0	495	415	0	371	0	0	
4	0	0	0	0	496	415	0	369	0	0	
5	0	0	0	0	497	415	0	369	0	0	
6	0	0	0	0	497	415	0	369	0	0	
7	0	0	0	0	498	416	0	370	0	0	
8	0	0	0	0	498	417	0	372	0	0	
9	0	0	0	0	497	417	0	374	0	0	
10	0	0	0	0	496	417	0	376	0	0	
11	0	0	0	0	495	417	0	378	0	0	
12	0	0	0	0	494	416	0	379	0	0	
13	0	0	0	0	492	415	0	379	0	0	
14	0	0	0	0	491	414	0	377	0	0	
15	0	0	0	0	489	412	0	376	0	0	
0	0	0	0	0	488	410	0	373	0	0	
1	0	0	0	0	488	409	0	370	0	0	
2	0	0	0	0	489	409	0	367	0	0	
3	0	0	0	0	491	410	0	365	0	0	
4	0	0	0	0	495	412	0	363	0	0	
5	0	0	0	0	499	415	0	363	0	0	
6	0	0	0	0	504	420	0	363	0	0	
7	0	0	0	0	508	425	0	364	0	0	
8	0	0	0	0	513	430	0	367	0	0	
9	0	0	0	0	518	435	0	371	0	0	
10	0	0	0	0	521	440	0	375	0	0	
11	0	0	0	0	524	444	0	379	0	0	
12	0	0	0	0	524	445	0	382	0	0	
13	0	0	0	0	524	446	0	385	0	0	
14	0	0	0	0	523	446	0	388	0	0	
15	0	0	0	0	520	445	0	391	0	0	
0	0	0	0	0	517	442	0	392	0	0	
1	0	0	0	0	514	439	0	394	0	0	
2	0	0	0	0	512	437	0	396	0	0	
3	0	0	0	0	511	435	0	398	0	0	
4	0	0	0	0	511	434	0	400	0	0	
5	0	0	0	0	511	433	0	403	0	0	
6	0	0	0	0	512	432	0	405	0	0	
7	0	0	0	0	513	433	0	406	0	0	
8	0	0	0	0	515	432	0	406	0	0	
9	0	0	0	0	515	432	0	405	0	0	
10	0	0	0	0	515	433	0	404	0	0	
11	0	0	0	0	515	433	0	403	0	0	
12	0	0	0	0	515	435	0	401	0	0	
13	0	0	0	0	515	436	0	400	0	0	
14	0	0	0	0	516	438	0	399	0	0	
15	0	0	0	0	518	441	0	399	0	0	
0	0	0	0	0	519	444	0	399	0	0	
1	0	0	0	0	521	447	0	400	0	0	
2	0	0	0	0	524	450	0	401	0	0	
3	0	0	0	0	526	452	0	402	0	0	
4	0	0	0	0	528	454	0	403	0	0	
5	0	0	0	0	528	454	0	402	0	0	
6	0	0	0	0	529	453	0	401	0	0	
7	0	0	0	0	527	451	0	399	0	0	
8	0	0	0	0	527	449	0	397	0	0	
9	0	0	0	0	525	447	0	395	0	0	
10	0	0	0	0	523	444	0	392	0	0	
11	0	0	0	0	521	441	0	389	0	0	
12	0	0	0	0	519	439	0	387	0	0	
13	0	0	0	0	517	438	0	385	0	0	
14	0	0	0	0	516	438	0	384	0	0	
15	0	0	0	0	515	438	0	383	0	0	
0	0	0	0	0	515	439	0	384	0	0	
1	0	0	0	0	515	440	0	384	0	0	
2	0	0	0	0	515	442	0	386	0	0	
3	0	0	0	0	516	444	0	388	0	0	
4	0	0	0	0	516	445	0	391	0	0	
5	0	0	0	0	519	448	0	393	0	0	
6	0	0	0	0	521	451	0	396	0	0	
7	0	0	0	0	524	453	0	399	0	0	
8	0	0	0	0	528	455	0	400	0	0	
9	0	0	0	0	532	457	0	402	0	0	
10	0	0	0	0	536	459	0	402	0	0	
11	0	0	0	0	539	461	0	402	0	0	
12	0	0	0	0	543	463	0	401	0	0	
13	0	0	0	0	548	466	0	403	0	0	
14	0	0	0	0	553	470	0	405	0	0	
15	0	0	0	0	560	475	0	408	0	0	
0	0	0	0	0	567	480	0	412	0	0	
1	0	0	0	0	573	486	0	417	0	0	
2	0	0	0	0	578	491	0	423	0	0	
3	0	0	0	0	583	496	0	430	0	0	
4	0	0	0	0	585	500	0	435	0	0	
5	0	0	0	0	584	502	0	439	0	0	
6	0	0	0	0	579	500	0	441	0	0	
7	0	0	0	0	572	496	0	442	0	0	
8	0	0	0	0	560	489	0	440	0	0	
9	0	0	0	0	547	480	0	438	0	0	
10	0	0	0	0	533	470	0	433	0	0	
11	0	0	0	0	519	460	0	428	0	0	
12	0	0	0	0	507	450	0	423	0	0	
13	0	0	0	0	496	440	0	416	0	0	
14	0	0	0	0	488	433	0	410	0	0	
15	0	0	0	0	482	426	0	404	0	0	
0	0	0	0	0	480	422	0	399	0	0	
1	0	0	0	0	479	418	0	395	0	0	
2	0	0	0	0	481	415	0	392	0	0	
3	0	0	0	0	486	415	0	390	0	0	
4	0	0	0	0	492	416	0	390	0	0	
5	0	0	0	0	498	419	0	391	0	0	
6	0	0	0	0	506	423	0	392	0	0	
7	0	0	0	0	513	427	0	396	0	0	
8	0	0	0	0	519	432	0	399	0	0	
9	0	0	0	0	526	438	0	403	0	0	
10	0	0	0	0	531	444	0	407	0	0	
11	0	0	0	0	535	449	0	411	0	0	
12	0	0	0	0	537	455	0	414	0	0	
13	0	0	0	0	540	459	0	417	0	0	
14	0	0	0	0	540	463	0	419	0	0	
15	0	0	0	0	540	466	0	419	0	0	
0	0	0	0	0	540	468	0	419	0	0	
1	0	0	0	0	539	468	0	416	0	0	
2	0	0	0	0	537	467	0	412	0	0	
3	0	0	0	0	535	465	0	408	0	0	
4	0	0	0	0	532	462	0	403	0	0	
5	0	0	0	0	528	457	0	396	0	0	
6	0	0	0	0	524	452	0	391	0	0	
7	0	0	0	0	520	448	0	385	0	0	
8	0	0	0	0	517	444	0	381	0	0	
9	0	0	0	0	514	440	0	377	0	0	
10	0	0	0	0	512	437	0	376	0	0	
11	0	0	0	0	510	435	0	375	0	0	
12	0	0	0	0	509	435	0	375	0	0	
13	0	0	0	0	508	434	0	376	0	0	
14	0	0	0	0	507	435	0	377	0	0	
15	0	0	0	0	505	435	0	379	0	0	
0	0	0	0	0	504	435	0	381	0	0	
1	0	0	0	0	504	436	0	382	0	0	
2	0	0	0	0	503	436	0	382	0	0	
3	0	0	0	0	501	436	0	382	0	0	
4	0	0	0	0	499	435	0	381	0	0	
5	0	0	0	0	497	433	0	379	0	0	
6	0	0	0	0	496	431	0	376	0	0	
7	0	0	0	0	494	428	0	374	0	0	
8	0	0	0	0	493	425	0	371	0	0	
9	0	0	0	0	493	422	0	369	0	0	
10	0	0	0	0	494	420	0	368	0	0	
11	0	0	0	0	496	420	0	368	0	0	
12	0	0	0	0	499	420	0	370	0	0	
13	0	0	0	0	504	423	0	372	0	0	
14	0	0	0	0	510	427	0	377	0	0	
15	0	0	0	0	516	433	0	382	0	0	
0	0	0	0	0	525	441	0	388	0	0	
1	0	0	0	0	533	450	0	396	0	0	
2	0	0	0	0	542	460	0	404	0	0	
3	0	0	0	0	549	469	0	412	0	0	
4	0	0	0	0	556	478	0	419	0	0	
5	0	0	0	0	560	485	0	424	0	0	
6	0	0	0	0	563	490	0	428	0	0	
7	0	0	0	0	562	492	0	430	0	0	
8	0	0	0	0	560	491	0	430	0	0	
9	0	0	0	0	554	487	0	427	0	0	
10	0	0	0	0	546	481	0	423	0	0	
11	0	0	0	0	537	473	0	416	0	0	
12	0	0	0	0	527	464	0	409	0	0	
13	0	0	0	0	518	455	0	401	0	0	
14	0	0	0	0	509	447	0	393	0	0	
15	0	0	0	0	503	439	0	386	0	0	
0	0	0	0	0	498	434	0	380	0	0	
1	0	0	0	0	497	431	0	376	0	0	
2	0	0	0	0	497	430	0	373	0	0	
3	0	0	0	0	499	431	0	372	0	0	
4	0	0	0	0	502	432	0	372	0	0	
5	0	0	0	0	505	435	0	373	0	0	
6	0	0	0	0	509	438	0	375	0	0	
7	0	0	0	0	512	440	0	378	0	0	
8	0	0	0	0	515	443	0	381	0	0	
9	0	0	0	0	518	444	0	385	0	0	
10	0	0	0	0	519	446	0	388	0	0	
11	0	0	0	0	520	447	0	391	0	0	
12	0	0	0	0	520	446	0	393	0	0	
13	0	0	0	0	519	446	0	393	0	0	
14	0	0	0	0	518	444	0	393	0	0	
15	0	0	0	0	517	443	0	392	0	0	
0	0	0	0	0	515	441	0	390	0	0	
1	0	0	0	0	514	438	0	388	0	0	
2	0	0	0	0	512	437	0	385	0	0	
3	0	0	0	0	512	435	0	383	0	0	
4	0	0	0	0	512	434	0	381	0	0	
5	0	0	0	0	512	434	0	379	0	0	
6	0	0	0	0	513	434	0	377	0	0	
7	0	0	0	0	513	435	0	376	0	0	
8	0	0	0	0	513	435	0	375	0	0	
9	0	0	0	0	512	434	0	374	0	0	
10	0	0	0	0	511	434	0	374	0	0	
11	0	0	0	0	510	434	0	374	0	0	
12	0	0	0	0	508	434	0	375	0	0	
13	0	0	0	0	508	434	0	376	0	0	
14	0	0	0	0	509	436	0	378	0	0	
15	0	0	0	0	510	438	0	381	0	0	
0	0	0	0	0	512	439	0	383	0	0	
1	0	0	0	0	514	441	0	384	0	0	
2	0	0	0	0	517	442	0	386	0	0	
3	0	0	0	0	519	442	0	387	0	0	
4	0	0	0	0	520	443	0	387	0	0	
5	0	0	0	0	522	443	0	388	0	0	
6	0	0	0	0	524	444	0	389	0	0	
7	0	0	0	0	526	445	0	390	0	0	
8	0	0	0	0	528	446	0	392	0	0	
9	0	0	0	0	530	448	0	394	0	0	
10	0	0	0	0	532	450	0	397	0	0	
11	0	0	0	0	534	453	0	399	0	0	
12	0	0	0	0	537	456	0	403	0	0	
13	0	0	0	0	539	460	0	407	0	0	
14	0	0	0	0	542	464	0	411	0	0	
15	0	0	0	0	545	468	0	414	0	0	
0	0	0	0	0	547	472	0	416	0	0	
1	0	0	0	0	550	476	0	418	0	0	
2	0	0	0	0	551	478	0	419	0	0	
3	0	0	0	0	552	479	0	419	0	0	
4	0	0	0	0	552	479	0	418	0	0	
5	0	0	0	0	550	476	0	416	0	0	
6	0	0	0	0	547	473	0	412	0	0	
7	0	0	0	0	542	468	0	408	0	0	
8	0	0	0	0	536	461	0	402	0	0	
9	0	0	0	0	529	454	0	396	0	0	
10	0	0	0	0	523	446	0	391	0	0	
11	0	0	0	0	517	440	0	387	0	0	
12	0	0	0	0	513	435	0	383	0	0	
13	0	0	0	0	510	432	0	381	0	0	
14	0	0	0	0	509	431	0	380	0	0	
15	0	0	0	0	511	432	0	380	0	0	
0	0	0	0	0	514	435	0	382	0	0	
1	0	0	0	0	519	440	0	385	0	0	
2	0	0	0	0	526	447	0	390	0	0	
3	0	0	0	0	534	455	0	395	0	0	
4	0	0	0	0	542	463	0	400	0	0	
5	0	0	0	0	549	470	0	405	0	0	
6	0	0	0	0	554	476	0	409	0	0	
7	0	0	0	0	556	478	0	412	0	0	
8	0	0	0	0	556	478	0	413	0	0	
9	0	0	0	0	552	476	0	413	0	0	
10	0	0	0	0	547	472	0	411	0	0	
11	0	0	0	0	541	467	0	409	0	0	
12	0	0	0	0	534	461	0	407	0	0	
13	0	0	0	0	527	455	0	403	0	0	
14	0	0	0	0	520	448	0	399	0	0	
15	0	0	0	0	515	443	0	396	0	0	
0	0	0	0	0	510	439	0	392	0	0	
1	0	0	0	0	507	435	0	390	0	0	
2	0	0	0	0	506	433	0	388	0	0	
3	0	0	0	0	507	433	0	387	0	0	
4	0	0	0	0	509	436	0	387	0	0	
5	0	0	0	0	513	440	0	389	0	0	
6	0	0	0	0	519	445	0	391	0	0	
7	0	0	0	0	524	450	0	395	0	0	
8	0	0	0	0	531	457	0	398	0	0	
9	0	0	0	0	537	462	0	401	0	0	
10	0	0	0	0	542	467	0	404	0	0	
11	0	0	0	0	545	470	0	406	0	0	
12	0	0	0	0	546	472	0	408	0	0	
13	0	0	0	0	546	472	0	408	0	0	
14	0	0	0	0	544	471	0	408	0	0	
15	0	0	0	0	540	468	0	407	0	0	
0	0	0	0	0	535	464	0	406	0	0	
1	0	0	0	0	529	458	0	403	0	0	
2	0	0	0	0	522	452	0	401	0	0	
3	0	0	0	0	516	447	0	399	0	0	
4	0	0	0	0	511	443	0	399	0	0	
5	0	0	0	0	508	441	0	399	0	0	
6	0	0	0	0	507	440	0	399	0	0	
7	0	0	0	0	507	441	0	401	0	0	
8	0	0	0	0	510	443	0	403	0	0	
9	0	0	0	0	515	446	0	405	0	0	
10	0	0	0	0	520	450	0	408	0	0	
11	0	0	0	0	526	454	0	409	0	0	
12	0	0	0	0	531	458	0	411	0	0	
13	0	0	0	0	535	460	0	412	0	0	
14	0	0	0	0	538	463	0	412	0	0	
15	0	0	0	0	540	464	0	413	0	0	
0	0	0	0	0	541	465	0	413	0	0	
1	0	0	0	0	542	466	0	414	0	0	
2	0	0	0	0	542	467	0	415	0	0	
3	0	0	0	0	543	469	0	417	0	0	
4	0	0	0	0	543	470	0	419	0	0	
5	0	0	0	0	544	470	0	422	0	0	
6	0	0	0	0	543	470	0	423	0	0	
7	0	0	0	0	542	469	0	424	0	0	
8	0	0	0	0	540	467	0	425	0	0	
9	0	0	0	0	538	465	0	425	0	0	
10	0	0	0	0	536	463	0	427	0	0	
11	0	0	0	0	534	462	0	428	0	0	
12	0	0	0	0	533	462	0	430	0	0	
13	0	0	0	0	533	463	0	432	0	0	
14	0	0	0	0	533	464	0	434	0	0	
15	0	0	0	0	534	465	0	436	0	0	
0	0	0	0	0	535	468	0	437	0	0	
1	0	0	0	0	537	471	0	438	0	0	
2	0	0	0	0	539	473	0	438	0	0	
3	0	0	0	0	540	475	0	437	0	0	
4	0	0	0	0	542	477	0	436	0	0	
5	0	0	0	0	542	478	0	433	0	0	
6	0	0	0	0	543	480	0	430	0	0	
7	0	0	0	0	542	479	0	427	0	0	
8	0	0	0	0	541	477	0	422	0	0	
9	0	0	0	0	538	473	0	418	0	0	
10	0	0	0	0	534	468	0	413	0	0	
11	0	0	0	0	528	462	0	408	0	0	
12	0	0	0	0	522	455	0	404	0	0	
13	0	0	0	0	515	447	0	401	0	0	
14	0	0	0	0	508	440	0	398	0	0	
15	0	0	0	0	502	435	0	398	0	0	
0	0	0	0	0	497	431	0	398	0	0	
1	0	0	0	0	494	429	0	399	0	0	
2	0	0	0	0	492	428	0	401	0	0	
3	0	0	0	0	492	429	0	405	0	0	
4	0	0	0	0	492	430	0	408	0	0	
5	0	0	0	0	494	433	0	410	0	0	
6	0	0	0	0	496	435	0	412	0	0	
7	0	0	0	0	497	438	0	414	0	0	
8	0	0	0	0	500	440	0	415	0	0	
9	0	0	0	0	502	442	0	415	0	0	
10	0	0	0	0	504	444	0	414	0	0	
11	0	0	0	0	508	445	0	413	0	0	
12	0	0	0	0	511	447	0	412	0	0	
13	0	0	0	0	514	448	0	411	0	0	
14	0	0	0	0	518	451	0	410	0	0	
15	0	0	0	0	523	453	0	409	0	0	
0	0	0	0	0	527	456	0	409	0	0	
1	0	0	0	0	531	460	0	409	0	0	
2	0	0	0	0	536	463	0	410	0	0	
3	0	0	0	0	539	467	0	412	0	0	
4	0	0	0	0	542	471	0	413	0	0	
5	0	0	0	0	543	475	0	415	0	0	
6	0	0	0	0	544	478	0	417	0	0	
7	0	0	0	0	544	480	0	419	0	0	
8	0	0	0	0	542	480	0	420	0	0	
9	0	0	0	0	540	480	0	421	0	0	
10	0	0	0	0	535	478	0	422	0	0	
11	0	0	0	0	531	475	0	420	0	0	
12	0	0	0	0	525	470	0	418	0	0	
13	0	0	0	0	519	465	0	415	0	0	
14	0	0	0	0	513	460	0	411	0	0	
15	0	0	0	0	508	454	0	407	0	0	
0	0	0	0	0	504	449	0	403	0	0	
1	0	0	0	0	502	445	0	400	0	0	
2	0	0	0	0	502	443	0	398	0	0	
3	0	0	0	0	504	444	0	397	0	0	
4	0	0	0	0	510	448	0	399	0	0	
5	0	0	0	0	519	455	0	403	0	0	
6	0	0	0	0	530	464	0	409	0	0	
7	0	0	0	0	543	476	0	418	0	0	
8	0	0	0	0	557	489	0	428	0	0	
9	0	0	0	0	570	502	0	438	0	0	
10	0	0	0	0	583	515	0	449	0	0	
11	0	0	0	0	592	525	0	459	0	0	
12	0	0	0	0	598	532	0	467	0	0	
13	0	0	0	0	600	537	0	473	0	0	
14	0	0	0	0	598	536	0	476	0	0	
15	0	0	0	0	591	533	0	476	0	0	
0	0	0	0	0	582	526	0	473	0	0	
1	0	0	0	0	570	516	0	469	0	0	
2	0	0	0	0	558	507	0	462	0	0	
3	0	0	0	0	545	496	0	455	0	0	
4	0	0	0	0	536	487	0	448	0	0	
5	0	0	0	0	528	479	0	441	0	0	
6	0	0	0	0	524	473	0	435	0	0	
7	0	0	0	0	523	471	0	430	0	0	
8	0	0	0	0	525	470	0	428	0	0	
9	0	0	0	0	529	472	0	426	0	0	
10	0	0	0	0	536	476	0	427	0	0	
11	0	0	0	0	543	481	0	428	0	0	
12	0	0	0	0	551	488	0	431	0	0	
13	0	0	0	0	560	495	0	435	0	0	
14	0	0	0	0	567	502	0	439	0	0	
15	0	0	0	0	572	508	0	442	0	0	
0	0	0	0	0	575	512	0	445	0	0	
1	0	0	0	0	576	515	0	446	0	0	
2	0	0	0	0	575	516	0	447	0	0	
3	0	0	0	0	572	515	0	445	0	0	
4	0	0	0	0	566	512	0	443	0	0	
5	0	0	0	0	559	507	0	439	0	0	
6	0	0	0	0	551	502	0	434	0	0	
7	0	0	0	0	543	495	0	429	0	0	
8	0	0	0	0	534	488	0	423	0	0	
9	0	0	0	0	526	480	0	417	0	0	
10	0	0	0	0	518	472	0	411	0	0	
11	0	0	0	0	512	465	0	406	0	0	
12	0	0	0	0	506	458	0	401	0	0	
13	0	0	0	0	501	452	0	397	0	0	
14	0	0	0	0	496	447	0	394	0	0	
15	0	0	0	0	494	443	0	392	0	0	
0	0	0	0	0	491	440	0	391	0	0	
1	0	0	0	0	489	438	0	391	0	0	
2	0	0	0	0	489	436	0	393	0	0	
3	0	0	0	0	489	436	0	396	0	0	
4	0	0	0	0	489	436	0	398	0	0	
5	0	0	0	0	492	438	0	401	0	0	
6	0	0	0	0	495	441	0	404	0	0	
7	0	0	0	0	498	443	0	408	0	0	
8	0	0	0	0	503	446	0	411	0	0	
9	0	0	0	0	508	450	0	413	0	0	
10	0	0	0	0	514	455	0	415	0	0	
11	0	0	0	0	521	460	0	419	0	0	
12	0	0	0	0	528	465	0	422	0	0	
13	0	0	0	0	535	470	0	425	0	0	
14	0	0	0	0	543	476	0	429	0	0	
15	0	0	0	0	550	481	0	433	0	0	
0	0	0	0	0	556	486	0	438	0	0	
1	0	0	0	0	562	492	0	443	0	0	
2	0	0	0	0	568	498	0	449	0	0	
3	0	0	0	0	572	504	0	454	0	0	
4	0	0	0	0	577	510	0	460	0	0	
5	0	0	0	0	580	515	0	464	0	0	
6	0	0	0	0	582	519	0	469	0	0	
7	0	0	0	0	583	523	0	472	0	0	
8	0	0	0	0	582	524	0	474	0	0	
9	0	0	0	0	579	523	0	473	0	0	
10	0	0	0	0	573	519	0	471	0	0	
11	0	0	0	0	565	513	0	465	0	0	
12	0	0	0	0	555	505	0	457	0	0	
13	0	0	0	0	543	494	0	447	0	0	
14	0	0	0	0	529	482	0	435	0	0	
15	0	0	0	0	514	467	0	420	0	0	
0	0	0	0	0	497	451	0	404	0	0	
1	0	0	0	0	480	433	0	387	0	0	
2	0	0	0	0	462	414	0	369	0	0	
3	0	0	0	0	444	395	0	351	0	0	
4	0	0	0	0	425	376	0	333	0	0	
5	0	0	0	0	408	357	0	315	0	0	
6	0	0	0	0	390	339	0	298	0	0	
7	0	0	0	0	374	323	0	282	0	0	
8	0	0	0	0	359	308	0	267	0	0	
9	0	0	0	0	344	294	0	253	0	0	
10	0	0	0	0	331	282	0	240	0	0	
11	0	0	0	0	319	271	0	229	0	0	
12	0	0	0	0	307	261	0	218	0	0	
13	0	0	0	0	296	252	0	207	0	0	
14	0	0	0	0	287	244	0	198	0	0	
15	0	0	0	0	279	238	0	189	0	0	
0	0	0	0	0	272	231	0	181	0	0	
1	0	0	0	0	268	226	0	176	0	0	
2	0	0	0	0	265	223	0	171	0	0	
3	0	0	0	0	265	222	0	169	0	0	
4	0	0	0	0	269	223	0	171	0	0	
5	0	0	0	0	276	227	0	175	0	0	
6	0	0	0	0	287	235	0	183	0	0	
7	0	0	0	0	302	245	0	195	0	0	
8	0	0	0	0	320	260	0	210	0	0	
9	0	0	0	0	344	278	0	230	0	0	
10	0	0	0	0	370	300	0	252	0	0	
11	0	0	0	0	399	325	0	277	0	0	
12	0	0	0	0	430	353	0	304	0	0	
13	0	0	0	0	462	383	0	333	0	0	
14	0	0	0	0	493	413	0	361	0	0	
15	0	0	0	0	523	442	0	389	0	0	
0	0	0	0	0	547	468	0	414	0	0	
1	0	0	0	0	568	489	0	435	0	0	
2	0	0	0	0	582	507	0	451	0	0	
3	0	0	0	0	591	519	0	463	0	0	
4	0	0	0	0	592	525	0	470	0	0	
5	0	0	0	0	589	526	0	472	0	0	
6	0	0	0	0	581	523	0	470	0	0	
7	0	0	0	0	571	517	0	466	0	0	
8	0	0	0	0	557	508	0	460	0	0	
9	0	0	0	0	544	497	0	452	0	0	
10	0	0	0	0	531	487	0	444	0	0	
11	0	0	0	0	519	476	0	437	0	0	
12	0	0	0	0	510	467	0	432	0	0	
13	0	0	0	0	504	460	0	428	0	0	
14	0	0	0	0	501	456	0	427	0	0	
15	0	0	0	0	502	455	0	428	0	0	
0	0	0	0	0	508	459	0	432	0	0	
1	0	0	0	0	516	465	0	438	0	0	
2	0	0	0	0	527	474	0	446	0	0	
3	0	0	0	0	540	485	0	454	0	0	
4	0	0	0	0	554	497	0	463	0	0	
5	0	0	0	0	568	510	0	471	0	0	
6	0	0	0	0	581	523	0	478	0	0	
7	0	0	0	0	593	534	0	484	0	0	
8	0	0	0	0	602	543	0	488	0	0	
9	0	0	0	0	609	551	0	490	0	0	
10	0	0	0	0	612	555	0	490	0	0	
11	0	0	0	0	613	556	0	489	0	0	
12	0	0	0	0	610	554	0	486	0	0	
13	0	0	0	0	604	549	0	481	0	0	
14	0	0	0	0	597	543	0	476	0	0	
15	0	0	0	0	588	535	0	472	0	0	
0	0	0	0	0	579	526	0	467	0	0	
1	0	0	0	0	570	518	0	464	0	0	
2	0	0	0	0	562	510	0	461	0	0	
3	0	0	0	0	555	504	0	460	0	0	
4	0	0	0	0	550	499	0	459	0	0	
5	0	0	0	0	547	496	0	460	0	0	
6	0	0	0	0	546	494	0	461	0	0	
7	0	0	0	0	546	494	0	463	0	0	
8	0	0	0	0	547	495	0	464	0	0	
9	0	0	0	0	548	496	0	464	0	0	
10	0	0	0	0	549	496	0	464	0	0	
11	0	0	0	0	548	496	0	462	0	0	
12	0	0	0	0	545	493	0	459	0	0	
13	0	0	0	0	541	489	0	454	0	0	
14	0	0	0	0	535	484	0	447	0	0	
15	0	0	0	0	528	478	0	440	0	0	
0	0	0	0	0	521	471	0	432	0	0	
1	0	0	0	0	513	464	0	425	0	0	
2	0	0	0	0	508	458	0	419	0	0	
3	0	0	0	0	504	454	0	414	0	0	
4	0	0	0	0	503	451	0	412	0	0	
5	0	0	0	0	504	450	0	411	0	0	
6	0	0	0	0	507	453	0	413	0	0	
7	0	0	0	0	514	458	0	417	0	0	
8	0	0	0	0	523	466	0	423	0	0	
9	0	0	0	0	534	476	0	432	0	0	
10	0	0	0	0	545	486	0	441	0	0	
11	0	0	0	0	558	498	0	451	0	0	
12	0	0	0	0	569	508	0	461	0	0	
13	0	0	0	0	579	518	0	469	0	0	
14	0	0	0	0	587	526	0	476	0	0	
15	0	0	0	0	592	531	0	480	0	0	
0	0	0	0	0	595	534	0	482	0	0	
1	0	0	0	0	596	534	0	482	0	0	
2	0	0	0	0	595	532	0	480	0	0	
3	0	0	0	0	591	529	0	476	0	0	
4	0	0	0	0	587	525	0	472	0	0	
5	0	0	0	0	582	520	0	467	0	0	
6	0	0	0	0	577	515	0	463	0	0	
7	0	0	0	0	571	510	0	458	0	0	
8	0	0	0	0	567	506	0	455	0	0	
9	0	0	0	0	563	503	0	452	0	0	
10	0	0	0	0	560	501	0	451	0	0	
11	0	0	0	0	558	500	0	450	0	0	
12	0	0	0	0	557	500	0	450	0	0	
13	0	0	0	0	558	502	0	451	0	0	
14	0	0	0	0	558	503	0	452	0	0	
15	0	0	0	0	560	504	0	454	0	0	
0	0	0	0	0	561	506	0	455	0	0	
1	0	0	0	0	563	508	0	456	0	0	
2	0	0	0	0	564	508	0	456	0	0	
3	0	0	0	0	565	508	0	456	0	0	
4	0	0	0	0	564	506	0	455	0	0	
5	0	0	0	0	563	505	0	454	0	0	
6	0	0	0	0	562	502	0	451	0	0	
7	0	0	0	0	560	499	0	449	0	0	
8	0	0	0	0	557	495	0	445	0	0	
9	0	0	0	0	554	491	0	441	0	0	
10	0	0	0	0	550	487	0	437	0	0	
11	0	0	0	0	546	483	0	433	0	0	
12	0	0	0	0	543	480	0	429	0	0	
13	0	0	0	0	540	478	0	425	0	0	
14	0	0	0	0	538	476	0	423	0	0	
15	0	0	0	0	536	476	0	420	0	0	
0	0	0	0	0	536	476	0	420	0	0	
1	0	0	0	0	537	477	0	420	0	0	
2	0	0	0	0	538	479	0	420	0	0	
3	0	0	0	0	539	480	0	420	0	0	
4	0	0	0	0	540	481	0	421	0	0	
5	0	0	0	0	540	483	0	421	0	0	
6	0	0	0	0	541	483	0	421	0	0	
7	0	0	0	0	541	484	0	421	0	0	
8	0	0	0	0	542	484	0	421	0	0	
9	0	0	0	0	542	484	0	421	0	0	
10	0	0	0	0	543	485	0	422	0	0	
11	0	0	0	0	544	485	0	422	0	0	
12	0	0	0	0	545	486	0	422	0	0	
13	0	0	0	0	547	486	0	423	0	0	
14	0	0	0	0	549	488	0	424	0	0	
15	0	0	0	0	551	489	0	426	0	0	
0	0	0	0	0	555	492	0	429	0	0	
1	0	0	0	0	559	496	0	432	0	0	
2	0	0	0	0	563	499	0	435	0	0	
3	0	0	0	0	568	504	0	439	0	0	
4	0	0	0	0	574	510	0	443	0	0	
5	0	0	0	0	580	517	0	448	0	0	
6	0	0	0	0	587	524	0	453	0	0	
7	0	0	0	0	593	531	0	457	0	0	
8	0	0	0	0	598	537	0	461	0	0	
9	0	0	0	0	602	541	0	463	0	0	
10	0	0	0	0	604	543	0	465	0	0	
11	0	0	0	0	603	543	0	464	0	0	
12	0	0	0	0	599	539	0	462	0	0	
13	0	0	0	0	592	531	0	457	0	0	
14	0	0	0	0	582	520	0	451	0	0	
15	0	0	0	0	570	508	0	443	0	0	
0	0	0	0	0	556	493	0	435	0	0	
1	0	0	0	0	541	479	0	427	0	0	
2	0	0	0	0	528	466	0	419	0	0	
3	0	0	0	0	518	455	0	414	0	0	
4	0	0	0	0	510	448	0	410	0	0	
5	0	0	0	0	506	444	0	408	0	0	
6	0	0	0	0	506	444	0	409	0	0	
7	0	0	0	0	510	447	0	411	0	0	
8	0	0	0	0	517	453	0	416	0	0	
9	0	0	0	0	527	462	0	422	0	0	
10	0	0	0	0	540	473	0	430	0	0	
11	0	0	0	0	552	485	0	438	0	0	
12	0	0	0	0	565	497	0	445	0	0	
13	0	0	0	0	577	508	0	452	0	0	
14	0	0	0	0	587	517	0	459	0	0	
15	0	0	0	0	595	524	0	463	0	0	
0	0	0	0	0	598	527	0	465	0	0	
1	0	0	0	0	598	527	0	464	0	0	
2	0	0	0	0	594	524	0	461	0	0	
3	0	0	0	0	587	518	0	455	0	0	
4	0	0	0	0	578	510	0	448	0	0	
5	0	0	0	0	567	501	0	440	0	0	
6	0	0	0	0	556	491	0	431	0	0	
7	0	0	0	0	545	481	0	422	0	0	
8	0	0	0	0	535	473	0	414	0	0	
9	0	0	0	0	526	465	0	407	0	0	
10	0	0	0	0	518	458	0	400	0	0	
11	0	0	0	0	511	451	0	395	0	0	
12	0	0	0	0	504	445	0	390	0	0	
13	0	0	0	0	499	441	0	386	0	0	
14	0	0	0	0	494	436	0	382	0	0	
15	0	0	0	0	489	433	0	379	0	0	
0	0	0	0	0	487	431	0	377	0	0	
1	0	0	0	0	485	429	0	376	0	0	
2	0	0	0	0	485	430	0	375	0	0	
3	0	0	0	0	487	431	0	375	0	0	
4	0	0	0	0	491	434	0	376	0	0	
5	0	0	0	0	497	439	0	377	0	0	
6	0	0	0	0	504	444	0	379	0	0	
7	0	0	0	0	511	448	0	380	0	0	
8	0	0	0	0	518	452	0	382	0	0	
9	0	0	0	0	524	455	0	383	0	0	
10	0	0	0	0	527	455	0	384	0	0	
11	0	0	0	0	529	455	0	384	0	0	
12	0	0	0	0	528	454	0	384	0	0	
13	0	0	0	0	526	451	0	384	0	0	
14	0	0	0	0	523	450	0	385	0	0	
15	0	0	0	0	520	448	0	386	0	0	
0	0	0	0	0	517	448	0	388	0	0	
1	0	0	0	0	515	449	0	391	0	0	
2	0	0	0	0	515	451	0	395	0	0	
3	0	0	0	0	515	454	0	399	0	0	
4	0	0	0	0	516	458	0	403	0	0	
5	0	0	0	0	519	461	0	407	0	0	
6	0	0	0	0	522	465	0	411	0	0	
7	0	0	0	0	525	469	0	414	0	0	
8	0	0	0	0	528	472	0	415	0	0	
9	0	0	0	0	531	473	0	416	0	0	
10	0	0	0	0	535	475	0	416	0	0	
11	0	0	0	0	537	476	0	415	0	0	
12	0	0	0	0	540	477	0	414	0	0	
13	0	0	0	0	543	478	0	412	0	0	
14	0	0	0	0	545	478	0	410	0	0	
15	0	0	0	0	548	479	0	408	0	0	
0	0	0	0	0	551	480	0	407	0	0	
1	0	0	0	0	552	482	0	406	0	0	
2	0	0	0	0	555	484	0	405	0	0	
3	0	0	0	0	556	486	0	406	0	0	
4	0	0	0	0	558	489	0	406	0	0	
5	0	0	0	0	559	492	0	408	0	0	
6	0	0	0	0	558	494	0	409	0	0	
7	0	0	0	0	557	495	0	411	0	0	
8	0	0	0	0	554	495	0	411	0	0	
9	0	0	0	0	550	493	0	411	0	0	
10	0	0	0	0	544	490	0	409	0	0	
11	0	0	0	0	537	484	0	407	0	0	
12	0	0	0	0	529	478	0	403	0	0	
13	0	0	0	0	521	470	0	397	0	0	
14	0	0	0	0	513	461	0	391	0	0	
15	0	0	0	0	504	451	0	384	0	0	
0	0	0	0	0	496	442	0	377	0	0	
1	0	0	0	0	490	433	0	369	0	0	
2	0	0	0	0	485	425	0	363	0	0	
3	0	0	0	0	482	420	0	358	0	0	
4	0	0	0	0	482	417	0	354	0	0	
5	0	0	0	0	485	417	0	353	0	0	
6	0	0	0	0	490	419	0	354	0	0	
7	0	0	0	0	497	424	0	358	0	0	
8	0	0	0	0	507	431	0	363	0	0	
9	0	0	0	0	518	440	0	370	0	0	
10	0	0	0	0	528	451	0	379	0	0	
11	0	0	0	0	539	461	0	388	0	0	
12	0	0	0	0	547	470	0	397	0	0	
13	0	0	0	0	555	479	0	405	0	0	
14	0	0	0	0	560	486	0	412	0	0	
15	0	0	0	0	563	491	0	417	0	0	
0	0	0	0	0	564	494	0	421	0	0	
1	0	0	0	0	564	496	0	423	0	0	
2	0	0	0	0	563	496	0	423	0	0	
3	0	0	0	0	561	496	0	422	0	0	
4	0	0	0	0	559	494	0	420	0	0	
5	0	0	0	0	557	492	0	417	0	0	
6	0	0	0	0	556	489	0	413	0	0	
7	0	0	0	0	555	488	0	409	0	0	
8	0	0	0	0	554	487	0	407	0	0	
9	0	0	0	0	554	486	0	403	0	0	
10	0	0	0	0	554	484	0	401	0	0	
11	0	0	0	0	553	483	0	399	0	0	
12	0	0	0	0	553	483	0	398	0	0	
13	0	0	0	0	552	483	0	398	0	0	
14	0	0	0	0	552	483	0	398	0	0	
15	0	0	0	0	551	483	0	399	0	0	
0	0	0	0	0	551	484	0	401	0	0	
1	0	0	0	0	552	486	0	404	0	0	
2	0	0	0	0	553	487	0	406	0	0	
3	0	0	0	0	553	488	0	408	0	0	
4	0	0	0	0	554	489	0	409	0	0	
5	0	0	0	0	555	489	0	409	0	0	
6	0	0	0	0	555	489	0	407	0	0	
7	0	0	0	0	555	487	0	404	0	0	
8	0	0	0	0	553	485	0	401	0	0	
9	0	0	0	0	551	481	0	396	0	0	
10	0	0	0	0	547	478	0	391	0	0	
11	0	0	0	0	543	473	0	387	0	0	
12	0	0	0	0	539	469	0	382	0	0	
13	0	0	0	0	535	465	0	378	0	0	
14	0	0	0	0	531	462	0	376	0	0	
15	0	0	0	0	529	460	0	375	0	0	
0	0	0	0	0	527	460	0	375	0	0	
1	0	0	0	0	527	460	0	377	0	0	
2	0	0	0	0	527	462	0	380	0	0	
3	0	0	0	0	529	464	0	383	0	0	
4	0	0	0	0	530	466	0	387	0	0	
5	0	0	0	0	532	468	0	390	0	0	
6	0	0	0	0	534	470	0	393	0	0	
7	0	0	0	0	535	470	0	395	0	0	
8	0	0	0	0	536	470	0	395	0	0	
9	0	0	0	0	536	470	0	395	0	0	
10	0	0	0	0	536	468	0	393	0	0	
11	0	0	0	0	536	466	0	391	0	0	
12	0	0	0	0	535	463	0	388	0	0	
13	0	0	0	0	533	460	0	385	0	0	
14	0	0	0	0	532	457	0	382	0	0	
15	0	0	0	0	530	454	0	378	0	0	
0	0	0	0	0	528	451	0	375	0	0	
1	0	0	0	0	526	448	0	371	0	0	
2	0	0	0	0	524	446	0	369	0	0	
3	0	0	0	0	523	445	0	368	0	0	
4	0	0	0	0	523	445	0	368	0	0	
5	0	0	0	0	524	447	0	369	0	0	
6	0	0	0	0	526	450	0	372	0	0	
7	0	0	0	0	529	455	0	375	0	0	
8	0	0	0	0	532	460	0	378	0	0	
9	0	0	0	0	537	464	0	381	0	0	
10	0	0	0	0	541	469	0	383	0	0	
11	0	0	0	0	545	473	0	385	0	0	
12	0	0	0	0	548	476	0	385	0	0	
13	0	0	0	0	550	478	0	385	0	0	
14	0	0	0	0	552	479	0	383	0	0	
15	0	0	0	0	551	478	0	380	0	0	
0	0	0	0	0	550	476	0	377	0	0	
1	0	0	0	0	547	473	0	373	0	0	
2	0	0	0	0	542	469	0	368	0	0	
3	0	0	0	0	536	463	0	364	0	0	
4	0	0	0	0	529	456	0	359	0	0	
5	0	0	0	0	521	451	0	356	0	0	
6	0	0	0	0	515	445	0	353	0	0	
7	0	0	0	0	508	440	0	352	0	0	
8	0	0	0	0	504	438	0	353	0	0	
9	0	0	0	0	503	438	0	355	0	0	
10	0	0	0	0	504	440	0	360	0	0	
11	0	0	0	0	508	444	0	367	0	0	
12	0	0	0	0	515	451	0	374	0	0	
13	0	0	0	0	524	460	0	383	0	0	
14	0	0	0	0	535	469	0	392	0	0	
15	0	0	0	0	546	479	0	401	0	0	
0	0	0	0	0	558	487	0	409	0	0	
1	0	0	0	0	567	495	0	415	0	0	
2	0	0	0	0	575	501	0	420	0	0	
3	0	0	0	0	582	505	0	423	0	0	
4	0	0	0	0	586	508	0	424	0	0	
5	0	0	0	0	588	509	0	423	0	0	
6	0	0	0	0	587	507	0	420	0	0	
7	0	0	0	0	583	504	0	415	0	0	
8	0	0	0	0	577	499	0	410	0	0	
9	0	0	0	0	568	492	0	404	0	0	
10	0	0	0	0	560	486	0	398	0	0	
11	0	0	0	0	551	479	0	393	0	0	
12	0	0	0	0	543	475	0	389	0	0	
13	0	0	0	0	537	472	0	386	0	0	
14	0	0	0	0	533	470	0	385	0	0	
15	0	0	0	0	531	470	0	385	0	0	
0	0	0	0	0	533	472	0	387	0	0	
1	0	0	0	0	536	476	0	389	0	0	
2	0	0	0	0	541	482	0	393	0	0	
3	0	0	0	0	547	487	0	397	0	0	
4	0	0	0	0	554	492	0	401	0	0	
5	0	0	0	0	560	496	0	404	0	0	
6	0	0	0	0	564	499	0	406	0	0	
7	0	0	0	0	568	500	0	406	0	0	
8	0	0	0	0	568	499	0	406	0	0	
9	0	0	0	0	567	496	0	403	0	0	
10	0	0	0	0	564	491	0	400	0	0	
11	0	0	0	0	560	486	0	396	0	0	
12	0	0	0	0	554	480	0	391	0	0	
13	0	0	0	0	548	474	0	386	0	0	
14	0	0	0	0	543	469	0	382	0	0	
15	0	0	0	0	537	465	0	378	0	0	
0	0	0	0	0	534	463	0	375	0	0	
1	0	0	0	0	531	463	0	373	0	0	
2	0	0	0	0	531	464	0	372	0	0	
3	0	0	0	0	531	466	0	373	0	0	
4	0	0	0	0	533	470	0	374	0	0	
5	0	0	0	0	536	472	0	375	0	0	
6	0	0	0	0	537	474	0	376	0	0	
7	0	0	0	0	538	475	0	377	0	0	
8	0	0	0	0	537	473	0	378	0	0	
9	0	0	0	0	536	471	0	378	0	0	
10	0	0	0	0	534	468	0	377	0	0	
11	0	0	0	0	531	463	0	377	0	0	
12	0	0	0	0	527	459	0	376	0	0	
13	0	0	0	0	524	454	0	375	0	0	
14	0	0	0	0	521	450	0	374	0	0	
15	0	0	0	0	519	448	0	373	0	0	
0	0	0	0	0	519	447	0	373	0	0	
1	0	0	0	0	520	447	0	373	0	0	
2	0	0	0	0	523	450	0	375	0	0	
3	0	0	0	0	527	455	0	378	0	0	
4	0	0	0	0	534	462	0	381	0	0	
5	0	0	0	0	541	469	0	385	0	0	
6	0	0	0	0	548	477	0	390	0	0	
7	0	0	0	0	555	485	0	394	0	0	
8	0	0	0	0	561	492	0	399	0	0	
9	0	0	0	0	566	498	0	403	0	0	
10	0	0	0	0	569	503	0	406	0	0	
11	0	0	0	0	571	505	0	409	0	0	
12	0	0	0	0	571	505	0	410	0	0	
13	0	0	0	0	568	504	0	409	0	0	
14	0	0	0	0	564	500	0	408	0	0	
15	0	0	0	0	560	496	0	406	0	0	
0	0	0	0	0	554	490	0	403	0	0	
1	0	0	0	0	548	483	0	399	0	0	
2	0	0	0	0	542	476	0	396	0	0	
3	0	0	0	0	536	470	0	391	0	0	
4	0	0	0	0	531	464	0	387	0	0	
5	0	0	0	0	527	460	0	384	0	0	
6	0	0	0	0	526	457	0	381	0	0	
7	0	0	0	0	525	457	0	379	0	0	
8	0	0	0	0	527	457	0	379	0	0	
9	0	0	0	0	531	460	0	379	0	0	
10	0	0	0	0	535	464	0	380	0	0	
11	0	0	0	0	540	468	0	382	0	0	
12	0	0	0	0	544	472	0	384	0	0	
13	0	0	0	0	548	475	0	385	0	0	
14	0	0	0	0	551	478	0	387	0	0	
15	0	0	0	0	551	479	0	387	0	0	
0	0	0	0	0	551	479	0	387	0	0	
1	0	0	0	0	549	477	0	386	0	0	
2	0	0	0	0	545	475	0	384	0	0	
3	0	0	0	0	541	471	0	382	0	0	
4	0	0	0	0	536	467	0	380	0	0	
5	0	0	0	0	531	462	0	378	0	0	
6	0	0	0	0	526	457	0	376	0	0	
7	0	0	0	0	523	453	0	375	0	0	
8	0	0	0	0	520	449	0	374	0	0	
9	0	0	0	0	519	447	0	374	0	0	
10	0	0	0	0	518	446	0	373	0	0	
11	0	0	0	0	518	446	0	373	0	0	
12	0	0	0	0	520	447	0	374	0	0	
13	0	0	0	0	523	449	0	375	0	0	
14	0	0	0	0	527	453	0	376	0	0	
15	0	0	0	0	531	456	0	378	0	0	
0	0	0	0	0	534	460	0	379	0	0	
1	0	0	0	0	536	463	0	379	0	0	
2	0	0	0	0	538	465	0	380	0	0	
3	0	0	0	0	538	465	0	381	0	0	
4	0	0	0	0	537	465	0	381	0	0	
5	0	0	0	0	536	463	0	381	0	0	
6	0	0	0	0	534	462	0	381	0	0	
7	0	0	0	0	532	460	0	381	0	0	
8	0	0	0	0	531	459	0	382	0	0	
9	0	0	0	0	531	458	0	382	0	0	
10	0	0	0	0	532	459	0	384	0	0	
11	0	0	0	0	535	460	0	386	0	0	
12	0	0	0	0	539	463	0	389	0	0	
13	0	0	0	0	543	467	0	391	0	0	
14	0	0	0	0	547	471	0	395	0	0	
15	0	0	0	0	552	475	0	398	0	0	
0	0	0	0	0	556	480	0	401	0	0	
1	0	0	0	0	560	484	0	405	0	0	
2	0	0	0	0	562	487	0	408	0	0	
3	0	0	0	0	563	490	0	410	0	0	
4	0	0	0	0	561	490	0	411	0	0	
5	0	0	0	0	558	489	0	410	0	0	
6	0	0	0	0	554	487	0	409	0	0	
7	0	0	0	0	548	484	0	407	0	0	
8	0	0	0	0	543	480	0	405	0	0	
9	0	0	0	0	537	476	0	402	0	0	
10	0	0	0	0	533	473	0	399	0	0	
11	0	0	0	0	531	471	0	398	0	0	
12	0	0	0	0	529	469	0	396	0	0	
13	0	0	0	0	530	469	0	395	0	0	
14	0	0	0	0	534	470	0	394	0	0	
15	0	0	0	0	540	474	0	395	0	0	
0	0	0	0	0	547	479	0	396	0	0	
1	0	0	0	0	557	486	0	399	0	0	
2	0	0	0	0	567	494	0	402	0	0	
3	0	0	0	0	576	501	0	406	0	0	
4	0	0	0	0	585	508	0	409	0	0	
5	0	0	0	0	591	514	0	414	0	0	
6	0	0	0	0	596	519	0	417	0	0	
7	0	0	0	0	598	521	0	420	0	0	
8	0	0	0	0	596	522	0	422	0	0	
9	0	0	0	0	592	519	0	423	0	0	
10	0	0	0	0	583	514	0	422	0	0	
11	0	0	0	0	572	505	0	420	0	0	
12	0	0	0	0	558	495	0	417	0	0	
13	0	0	0	0	543	483	0	411	0	0	
14	0	0	0	0	528	471	0	406	0	0	
15	0	0	0	0	514	459	0	398	0	0	
0	0	0	0	0	502	448	0	392	0	0	
1	0	0	0	0	493	439	0	385	0	0	
2	0	0	0	0	487	432	0	379	0	0	
3	0	0	0	0	485	428	0	374	0	0	
4	0	0	0	0	487	428	0	371	0	0	
5	0	0	0	0	492	430	0	370	0	0	
6	0	0	0	0	499	433	0	370	0	0	
7	0	0	0	0	508	440	0	372	0	0	
8	0	0	0	0	519	448	0	376	0	0	
9	0	0	0	0	530	457	0	381	0	0	
10	0	0	0	0	541	466	0	387	0	0	
11	0	0	0	0	550	474	0	393	0	0	
12	0	0	0	0	558	483	0	399	0	0	
13	0	0	0	0	564	490	0	406	0	0	
14	0	0	0	0	570	496	0	412	0	0	
15	0	0	0	0	573	500	0	417	0	0	
0	0	0	0	0	574	502	0	421	0	0	
1	0	0	0	0	572	503	0	423	0	0	
2	0	0	0	0	569	501	0	423	0	0	
3	0	0	0	0	564	498	0	422	0	0	
4	0	0	0	0	559	493	0	419	0	0	
5	0	0	0	0	553	487	0	415	0	0	
6	0	0	0	0	547	483	0	410	0	0	
7	0	0	0	0	542	478	0	405	0	0	
8	0	0	0	0	538	473	0	400	0	0	
9	0	0	0	0	535	471	0	396	0	0	
10	0	0	0	0	534	469	0	393	0	0	
11	0	0	0	0	533	469	0	390	0	0	
12	0	0	0	0	535	470	0	389	0	0	
13	0	0	0	0	538	472	0	390	0	0	
14	0	0	0	0	543	477	0	391	0	0	
15	0	0	0	0	548	481	0	394	0	0	
0	0	0	0	0	554	487	0	398	0	0	
1	0	0	0	0	560	492	0	402	0	0	
2	0	0	0	0	565	496	0	406	0	0	
3	0	0	0	0	569	499	0	409	0	0	
4	0	0	0	0	571	500	0	412	0	0	
5	0	0	0	0	571	500	0	413	0	0	
6	0	0	0	0	569	497	0	414	0	0	
7	0	0	0	0	565	493	0	413	0	0	
8	0	0	0	0	560	488	0	412	0	0	
9	0	0	0	0	556	483	0	410	0	0	
10	0	0	0	0	550	478	0	408	0	0	
11	0	0	0	0	545	473	0	406	0	0	
12	0	0	0	0	541	470	0	404	0	0	
13	0	0	0	0	538	467	0	403	0	0	
14	0	0	0	0	536	466	0	402	0	0	
15	0	0	0	0	535	467	0	403	0	0	
0	0	0	0	0	535	469	0	403	0	0	
1	0	0	0	0	536	472	0	405	0	0	
2	0	0	0	0	539	475	0	408	0	0	
3	0	0	0	0	542	479	0	411	0	0	
4	0	0	0	0	544	483	0	414	0	0	
5	0	0	0	0	548	487	0	416	0	0	
6	0	0	0	0	550	490	0	418	0	0	
7	0	0	0	0	551	491	0	418	0	0	
8	0	0	0	0	551	491	0	417	0	0	
9	0	0	0	0	549	489	0	414	0	0	
10	0	0	0	0	545	485	0	409	0	0	
11	0	0	0	0	540	480	0	403	0	0	
12	0	0	0	0	535	474	0	396	0	0	
13	0	0	0	0	529	468	0	389	0	0	
14	0	0	0	0	524	462	0	384	0	0	
15	0	0	0	0	519	457	0	377	0	0	
0	0	0	0	0	517	454	0	373	0	0	
1	0	0	0	0	516	451	0	370	0	0	
2	0	0	0	0	516	451	0	369	0	0	
3	0	0	0	0	519	452	0	370	0	0	
4	0	0	0	0	523	456	0	372	0	0	
5	0	0	0	0	528	461	0	376	0	0	
6	0	0	0	0	534	467	0	380	0	0	
7	0	0	0	0	540	472	0	385	0	0	
8	0	0	0	0	544	477	0	390	0	0	
9	0	0	0	0	548	481	0	393	0	0	
10	0	0	0	0	551	484	0	396	0	0	
11	0	0	0	0	552	486	0	396	0	0	
12	0	0	0	0	552	486	0	397	0	0	
13	0	0	0	0	551	485	0	396	0	0	
14	0	0	0	0	548	483	0	392	0	0	
15	0	0	0	0	545	480	0	389	0	0	
0	0	0	0	0	540	475	0	384	0	0	
1	0	0	0	0	535	470	0	380	0	0	
2	0	0	0	0	529	464	0	376	0	0	
3	0	0	0	0	524	459	0	373	0	0	
4	0	0	0	0	519	454	0	371	0	0	
5	0	0	0	0	517	451	0	372	0	0	
6	0	0	0	0	516	451	0	375	0	0	
7	0	0	0	0	518	453	0	380	0	0	
8	0	0	0	0	523	458	0	387	0	0	
9	0	0	0	0	530	465	0	397	0	0	
10	0	0	0	0	540	475	0	408	0	0	
11	0	0	0	0	551	485	0	419	0	0	
12	0	0	0	0	563	497	0	430	0	0	
13	0	0	0	0	577	510	0	440	0	0	
14	0	0	0	0	589	521	0	449	0	0	
15	0	0	0	0	600	532	0	457	0	0	
0	0	0	0	0	609	540	0	463	0	0	
1	0	0	0	0	615	545	0	465	0	0	
2	0	0	0	0	617	547	0	465	0	0	
3	0	0	0	0	617	547	0	463	0	0	
4	0	0	0	0	614	544	0	460	0	0	
5	0	0	0	0	609	540	0	454	0	0	
6	0	0	0	0	602	532	0	447	0	0	
7	0	0	0	0	593	525	0	440	0	0	
8	0	0	0	0	584	517	0	433	0	0	
9	0	0	0	0	575	509	0	427	0	0	
10	0	0	0	0	567	502	0	422	0	0	
11	0	0	0	0	559	496	0	418	0	0	
12	0	0	0	0	555	493	0	417	0	0	
13	0	0	0	0	551	492	0	417	0	0	
14	0	0	0	0	551	492	0	419	0	0	
15	0	0	0	0	551	494	0	422	0	0	
0	0	0	0	0	553	496	0	425	0	0	
1	0	0	0	0	556	500	0	428	0	0	
2	0	0	0	0	559	503	0	430	0	0	
3	0	0	0	0	561	504	0	430	0	0	
4	0	0	0	0	562	504	0	428	0	0	
5	0	0	0	0	560	501	0	425	0	0	
6	0	0	0	0	557	496	0	419	0	0	
7	0	0	0	0	551	489	0	412	0	0	
8	0	0	0	0	543	480	0	404	0	0	
9	0	0	0	0	535	471	0	395	0	0	
10	0	0	0	0	526	462	0	388	0	0	
11	0	0	0	0	518	454	0	380	0	0	
12	0	0	0	0	511	447	0	375	0	0	
13	0	0	0	0	507	443	0	371	0	0	
14	0	0	0	0	505	440	0	370	0	0	
15	0	0	0	0	506	441	0	372	0	0	
0	0	0	0	0	510	445	0	376	0	0	
1	0	0	0	0	517	451	0	384	0	0	
2	0	0	0	0	526	460	0	394	0	0	
3	0	0	0	0	537	471	0	406	0	0	
4	0	0	0	0	548	481	0	418	0	0	
5	0	0	0	0	561	493	0	430	0	0	
6	0	0	0	0	572	503	0	441	0	0	
7	0	0	0	0	581	512	0	450	0	0	
8	0	0	0	0	589	518	0	456	0	0	
9	0	0	0	0	594	522	0	460	0	0	
10	0	0	0	0	596	524	0	459	0	0	
11	0	0	0	0	595	523	0	455	0	0	
12	0	0	0	0	591	519	0	449	0	0	
13	0	0	0	0	585	513	0	440	0	0	
14	0	0	0	0	575	505	0	430	0	0	
15	0	0	0	0	564	495	0	419	0	0	
0	0	0	0	0	551	485	0	408	0	0	
1	0	0	0	0	539	475	0	398	0	0	
2	0	0	0	0	528	467	0	390	0	0	
3	0	0	0	0	519	460	0	384	0	0	
4	0	0	0	0	513	456	0	380	0	0	
5	0	0	0	0	511	455	0	380	0	0	
6	0	0	0	0	512	457	0	382	0	0	
7	0	0	0	0	517	461	0	387	0	0	
8	0	0	0	0	525	468	0	395	0	0	
9	0	0	0	0	536	476	0	403	0	0	
10	0	0	0	0	547	485	0	412	0	0	
11	0	0	0	0	559	494	0	422	0	0	
12	0	0	0	0	569	502	0	430	0	0	
13	0	0	0	0	577	508	0	436	0	0	
14	0	0	0	0	583	511	0	440	0	0	
15	0	0	0	0	585	511	0	443	0	0	
0	0	0	0	0	584	510	0	443	0	0	
1	0	0	0	0	580	505	0	440	0	0	
2	0	0	0	0	574	499	0	435	0	0	
3	0	0	0	0	564	492	0	430	0	0	
4	0	0	0	0	553	483	0	422	0	0	
5	0	0	0	0	542	473	0	414	0	0	
6	0	0	0	0	531	465	0	406	0	0	
7	0	0	0	0	520	457	0	398	0	0	
8	0	0	0	0	512	451	0	391	0	0	
9	0	0	0	0	505	447	0	385	0	0	
10	0	0	0	0	500	444	0	380	0	0	
11	0	0	0	0	498	441	0	376	0	0	
12	0	0	0	0	495	440	0	372	0	0	
13	0	0	0	0	494	438	0	368	0	0	
14	0	0	0	0	491	435	0	363	0	0	
15	0	0	0	0	487	430	0	357	0	0	
0	0	0	0	0	480	423	0	349	0	0	
1	0	0	0	0	471	414	0	339	0	0	
2	0	0	0	0	461	402	0	328	0	0	
3	0	0	0	0	448	389	0	315	0	0	
4	0	0	0	0	433	375	0	301	0	0	
5	0	0	0	0	417	358	0	285	0	0	
6	0	0	0	0	400	342	0	269	0	0	
7	0	0	0	0	382	326	0	252	0	0	
8	0	0	0	0	366	310	0	236	0	0	
9	0	0	0	0	351	296	0	221	0	0	
10	0	0	0	0	338	284	0	208	0	0	
11	0	0	0	0	329	275	0	198	0	0	
12	0	0	0	0	323	271	0	189	0	0	
13	0	0	0	0	322	269	0	185	0	0	
14	0	0	0	0	326	271	0	185	0	0	
15	0	0	0	0	333	277	0	188	0	0	
0	0	0	0	0	345	287	0	196	0	0	
1	0	0	0	0	359	299	0	206	0	0	
2	0	0	0	0	378	315	0	220	0	0	
3	0	0	0	0	397	331	0	236	0	0	
4	0	0	0	0	417	348	0	253	0	0	
5	0	0	0	0	438	364	0	272	0	0	
6	0	0	0	0	457	380	0	290	0	0	
7	0	0	0	0	475	395	0	308	0	0	
8	0	0	0	0	492	409	0	327	0	0	
9	0	0	0	0	507	422	0	344	0	0	
10	0	0	0	0	519	432	0	360	0	0	
11	0	0	0	0	529	441	0	375	0	0	
12	0	0	0	0	537	448	0	388	0	0	
13	0	0	0	0	541	455	0	399	0	0	
14	0	0	0	0	543	459	0	408	0	0	
15	0	0	0	0	545	463	0	417	0	0	
0	0	0	0	0	547	468	0	424	0	0	
1	0	0	0	0	549	474	0	432	0	0	
2	0	0	0	0	553	481	0	439	0	0	
3	0	0	0	0	560	490	0	445	0	0	
4	0	0	0	0	567	500	0	451	0	0	
5	0	0	0	0	576	509	0	455	0	0	
6	0	0	0	0	585	519	0	459	0	0	
7	0	0	0	0	592	526	0	460	0	0	
8	0	0	0	0	599	530	0	460	0	0	
9	0	0	0	0	601	531	0	457	0	0	
10	0	0	0	0	601	530	0	453	0	0	
11	0	0	0	0	598	525	0	448	0	0	
12	0	0	0	0	591	518	0	441	0	0	
13	0	0	0	0	582	508	0	433	0	0	
14	0	0	0	0	569	496	0	425	0	0	
15	0	0	0	0	556	483	0	418	0	0	
0	0	0	0	0	542	472	0	411	0	0	
1	0	0	0	0	529	461	0	406	0	0	
2	0	0	0	0	518	452	0	402	0	0	
3	0	0	0	0	509	446	0	399	0	0	
4	0	0	0	0	504	442	0	398	0	0	
5	0	0	0	0	500	441	0	399	0	0	
6	0	0	0	0	500	443	0	401	0	0	
7	0	0	0	0	503	447	0	405	0	0	
8	0	0	0	0	508	452	0	409	0	0	
9	0	0	0	0	514	458	0	415	0	0	
10	0	0	0	0	522	464	0	421	0	0	
11	0	0	0	0	530	471	0	428	0	0	
12	0	0	0	0	538	476	0	434	0	0	
13	0	0	0	0	545	481	0	439	0	0	
14	0	0	0	0	552	485	0	444	0	0	
15	0	0	0	0	558	488	0	447	0	0	
0	0	0	0	0	562	489	0	449	0	0	
1	0	0	0	0	566	491	0	450	0	0	
2	0	0	0	0	568	491	0	451	0	0	
3	0	0	0	0	570	491	0	450	0	0	
4	0	0	0	0	571	491	0	450	0	0	
5	0	0	0	0	572	491	0	449	0	0	
6	0	0	0	0	572	492	0	449	0	0	
7	0	0	0	0	571	493	0	448	0	0	
8	0	0	0	0	571	494	0	448	0	0	
9	0	0	0	0	569	496	0	448	0	0	
10	0	0	0	0	568	497	0	448	0	0	
11	0	0	0	0	568	499	0	448	0	0	
12	0	0	0	0	567	502	0	449	0	0	
13	0	0	0	0	568	504	0	449	0	0	
14	0	0	0	0	568	507	0	450	0	0	
15	0	0	0	0	569	508	0	451	0	0	
0	0	0	0	0	571	510	0	451	0	0	
1	0	0	0	0	571	510	0	451	0	0	
2	0	0	0	0	571	510	0	450	0	0	
3	0	0	0	0	571	509	0	448	0	0	
4	0	0	0	0	569	507	0	447	0	0	
5	0	0	0	0	568	504	0	444	0	0	
6	0	0	0	0	565	500	0	441	0	0	
7	0	0	0	0	563	497	0	439	0	0	
8	0	0	0	0	561	494	0	436	0	0	
9	0	0	0	0	560	492	0	435	0	0	
10	0	0	0	0	559	490	0	435	0	0	
11	0	0	0	0	560	490	0	435	0	0	
12	0	0	0	0	562	493	0	437	0	0	
13	0	0	0	0	566	496	0	440	0	0	
14	0	0	0	0	570	500	0	444	0	0	
15	0	0	0	0	575	505	0	448	0	0	
0	0	0	0	0	579	510	0	452	0	0	
1	0	0	0	0	583	515	0	455	0	0	
2	0	0	0	0	587	519	0	457	0	0	
3	0	0	0	0	590	523	0	459	0	0	
4	0	0	0	0	591	524	0	459	0	0	
5	0	0	0	0	590	524	0	457	0	0	
6	0	0	0	0	588	522	0	455	0	0	
7	0	0	0	0	583	518	0	450	0	0	
8	0	0	0	0	575	510	0	444	0	0	
9	0	0	0	0	566	502	0	437	0	0	
10	0	0	0	0	556	492	0	431	0	0	
11	0	0	0	0	545	483	0	424	0	0	
12	0	0	0	0	536	473	0	418	0	0	
13	0	0	0	0	527	466	0	414	0	0	
14	0	0	0	0	521	460	0	411	0	0	
15	0	0	0	0	516	457	0	409	0	0	
0	0	0	0	0	514	456	0	409	0	0	
1	0	0	0	0	514	457	0	410	0	0	
2	0	0	0	0	516	460	0	413	0	0	
3	0	0	0	0	521	465	0	416	0	0	
4	0	0	0	0	527	471	0	421	0	0	
5	0	0	0	0	534	479	0	425	0	0	
6	0	0	0	0	543	487	0	431	0	0	
7	0	0	0	0	553	496	0	437	0	0	
8	0	0	0	0	563	505	0	443	0	0	
9	0	0	0	0	573	513	0	448	0	0	
10	0	0	0	0	582	519	0	451	0	0	
11	0	0	0	0	588	524	0	452	0	0	
12	0	0	0	0	592	526	0	452	0	0	
13	0	0	0	0	592	524	0	449	0	0	
14	0	0	0	0	587	518	0	443	0	0	
15	0	0	0	0	578	509	0	435	0	0	
0	0	0	0	0	566	497	0	425	0	0	
1	0	0	0	0	551	484	0	415	0	0	
2	0	0	0	0	535	470	0	404	0	0	
3	0	0	0	0	519	456	0	395	0	0	
4	0	0	0	0	505	446	0	387	0	0	
5	0	0	0	0	493	436	0	381	0	0	
6	0	0	0	0	484	430	0	379	0	0	
7	0	0	0	0	479	427	0	380	0	0	
8	0	0	0	0	479	427	0	384	0	0	
9	0	0	0	0	483	432	0	391	0	0	
10	0	0	0	0	492	440	0	401	0	0	
11	0	0	0	0	504	449	0	413	0	0	
12	0	0	0	0	518	461	0	425	0	0	
13	0	0	0	0	532	472	0	437	0	0	
14	0	0	0	0	546	483	0	448	0	0	
15	0	0	0	0	559	492	0	456	0	0	
0	0	0	0	0	569	498	0	462	0	0	
1	0	0	0	0	577	502	0	465	0	0	
2	0	0	0	0	581	505	0	466	0	0	
3	0	0	0	0	583	505	0	465	0	0	
4	0	0	0	0	583	504	0	462	0	0	
5	0	0	0	0	581	501	0	457	0	0	
6	0	0	0	0	577	498	0	452	0	0	
7	0	0	0	0	573	496	0	447	0	0	
8	0	0	0	0	568	494	0	442	0	0	
9	0	0	0	0	564	493	0	438	0	0	
10	0	0	0	0	561	492	0	435	0	0	
11	0	0	0	0	558	492	0	433	0	0	
12	0	0	0	0	556	493	0	432	0	0	
13	0	0	0	0	555	494	0	432	0	0	
14	0	0	0	0	553	495	0	433	0	0	
15	0	0	0	0	553	497	0	435	0	0	
0	0	0	0	0	553	498	0	438	0	0	
1	0	0	0	0	555	501	0	441	0	0	
2	0	0	0	0	558	504	0	445	0	0	
3	0	0	0	0	562	506	0	449	0	0	
4	0	0	0	0	566	508	0	452	0	0	
5	0	0	0	0	569	510	0	454	0	0	
6	0	0	0	0	572	510	0	454	0	0	
7	0	0	0	0	574	509	0	453	0	0	
8	0	0	0	0	573	506	0	450	0	0	
9	0	0	0	0	570	502	0	446	0	0	
10	0	0	0	0	566	496	0	440	0	0	
11	0	0	0	0	560	490	0	435	0	0	
12	0	0	0	0	553	483	0	428	0	0	
13	0	0	0	0	545	477	0	423	0	0	
14	0	0	0	0	536	470	0	418	0	0	
15	0	0	0	0	527	463	0	414	0	0	
0	0	0	0	0	519	457	0	409	0	0	
1	0	0	0	0	511	453	0	407	0	0	
2	0	0	0	0	505	449	0	406	0	0	
3	0	0	0	0	502	447	0	406	0	0	
4	0	0	0	0	499	446	0	406	0	0	
5	0	0	0	0	499	446	0	407	0	0	
6	0	0	0	0	502	448	0	408	0	0	
7	0	0	0	0	506	449	0	409	0	0	
8	0	0	0	0	511	453	0	411	0	0	
9	0	0	0	0	519	457	0	412	0	0	
10	0	0	0	0	525	460	0	414	0	0	
11	0	0	0	0	531	463	0	415	0	0	
12	0	0	0	0	537	467	0	416	0	0	
13	0	0	0	0	542	469	0	416	0	0	
14	0	0	0	0	545	472	0	417	0	0	
15	0	0	0	0	548	474	0	419	0	0	
0	0	0	0	0	551	478	0	421	0	0	
1	0	0	0	0	554	482	0	424	0	0	
2	0	0	0	0	556	487	0	427	0	0	
3	0	0	0	0	559	491	0	431	0	0	
4	0	0	0	0	561	496	0	434	0	0	
5	0	0	0	0	564	501	0	437	0	0	
6	0	0	0	0	567	506	0	440	0	0	
7	0	0	0	0	569	510	0	442	0	0	
8	0	0	0	0	571	513	0	443	0	0	
9	0	0	0	0	572	515	0	443	0	0	
10	0	0	0	0	572	515	0	442	0	0	
11	0	0	0	0	571	512	0	440	0	0	
12	0	0	0	0	567	508	0	436	0	0	
13	0	0	0	0	561	500	0	431	0	0	
14	0	0	0	0	553	492	0	424	0	0	
15	0	0	0	0	543	480	0	417	0	0	
0	0	0	0	0	532	469	0	411	0	0	
1	0	0	0	0	521	458	0	405	0	0	
2	0	0	0	0	510	447	0	399	0	0	
3	0	0	0	0	500	438	0	395	0	0	
4	0	0	0	0	492	430	0	393	0	0	
5	0	0	0	0	485	425	0	392	0	0	
6	0	0	0	0	482	423	0	393	0	0	
7	0	0	0	0	481	423	0	395	0	0	
8	0	0	0	0	482	427	0	398	0	0	
9	0	0	0	0	486	431	0	403	0	0	
10	0	0	0	0	492	437	0	408	0	0	
11	0	0	0	0	499	444	0	413	0	0	
12	0	0	0	0	507	451	0	418	0	0	
13	0	0	0	0	514	457	0	421	0	0	
14	0	0	0	0	522	463	0	424	0	0	
15	0	0	0	0	529	467	0	427	0	0	
0	0	0	0	0	534	471	0	428	0	0	
1	0	0	0	0	539	473	0	428	0	0	
2	0	0	0	0	542	474	0	428	0	0	
3	0	0	0	0	544	474	0	427	0	0	
4	0	0	0	0	544	472	0	425	0	0	
5	0	0	0	0	543	471	0	423	0	0	
6	0	0	0	0	541	468	0	421	0	0	
7	0	0	0	0	538	467	0	419	0	0	
8	0	0	0	0	536	465	0	418	0	0	
9	0	0	0	0	532	464	0	417	0	0	
10	0	0	0	0	529	463	0	417	0	0	
11	0	0	0	0	526	463	0	418	0	0	
12	0	0	0	0	523	464	0	419	0	0	
13	0	0	0	0	521	465	0	422	0	0	
14	0	0	0	0	521	467	0	424	0	0	
15	0	0	0	0	521	469	0	427	0	0	
0	0	0	0	0	523	471	0	430	0	0	
1	0	0	0	0	524	474	0	431	0	0	
2	0	0	0	0	527	475	0	432	0	0	
3	0	0	0	0	528	475	0	431	0	0	
4	0	0	0	0	529	473	0	428	0	0	
5	0	0	0	0	529	470	0	424	0	0	
6	0	0	0	0	528	467	0	420	0	0	
7	0	0	0	0	527	463	0	414	0	0	
8	0	0	0	0	526	459	0	409	0	0	
9	0	0	0	0	525	456	0	405	0	0	
10	0	0	0	0	524	454	0	402	0	0	
11	0	0	0	0	524	454	0	399	0	0	
12	0	0	0	0	524	455	0	399	0	0	
13	0	0	0	0	527	459	0	401	0	0	
14	0	0	0	0	529	463	0	403	0	0	
15	0	0	0	0	533	468	0	408	0	0	
0	0	0	0	0	538	475	0	415	0	0	
1	0	0	0	0	543	481	0	421	0	0	
2	0	0	0	0	550	489	0	428	0	0	
3	0	0	0	0	557	496	0	435	0	0	
4	0	0	0	0	563	503	0	443	0	0	
5	0	0	0	0	570	508	0	448	0	0	
6	0	0	0	0	575	512	0	452	0	0	
7	0	0	0	0	579	513	0	455	0	0	
8	0	0	0	0	579	512	0	456	0	0	
9	0	0	0	0	579	509	0	455	0	0	
10	0	0	0	0	575	504	0	452	0	0	
11	0	0	0	0	571	498	0	448	0	0	
12	0	0	0	0	564	491	0	444	0	0	
13	0	0	0	0	558	484	0	439	0	0	
14	0	0	0	0	551	478	0	435	0	0	
15	0	0	0	0	544	472	0	431	0	0	
0	0	0	0	0	537	467	0	428	0	0	
1	0	0	0	0	530	463	0	425	0	0	
2	0	0	0	0	524	459	0	422	0	0	
3	0	0	0	0	517	454	0	419	0	0	
4	0	0	0	0	511	450	0	416	0	0	
5	0	0	0	0	505	447	0	414	0	0	
6	0	0	0	0	500	443	0	411	0	0	
7	0	0	0	0	496	440	0	408	0	0	
8	0	0	0	0	492	436	0	405	0	0	
9	0	0	0	0	490	434	0	403	0	0	
10	0	0	0	0	489	432	0	400	0	0	
11	0	0	0	0	490	431	0	399	0	0	
12	0	0	0	0	493	432	0	398	0	0	
13	0	0	0	0	498	435	0	399	0	0	
14	0	0	0	0	505	440	0	403	0	0	
15	0	0	0	0	516	447	0	408	0	0	
0	0	0	0	0	528	456	0	415	0	0	
1	0	0	0	0	541	466	0	423	0	0	
2	0	0	0	0	555	478	0	432	0	0	
3	0	0	0	0	568	490	0	441	0	0	
4	0	0	0	0	580	502	0	449	0	0	
5	0	0	0	0	592	513	0	459	0	0	
6	0	0	0	0	601	524	0	467	0	0	
7	0	0	0	0	608	532	0	474	0	0	
8	0	0	0	0	611	538	0	479	0	0	
9	0	0	0	0	611	541	0	482	0	0	
10	0	0	0	0	608	541	0	484	0	0	
11	0	0	0	0	601	538	0	483	0	0	
12	0	0	0	0	591	531	0	480	0	0	
13	0	0	0	0	580	523	0	476	0	0	
14	0	0	0	0	567	513	0	470	0	0	
15	0	0	0	0	554	503	0	463	0	0	
0	0	0	0	0	542	492	0	456	0	0	
1	0	0	0	0	532	482	0	449	0	0	
2	0	0	0	0	524	474	0	442	0	0	
3	0	0	0	0	519	467	0	435	0	0	
4	0	0	0	0	515	463	0	430	0	0	
5	0	0	0	0	515	459	0	425	0	0	
6	0	0	0	0	515	457	0	422	0	0	
7	0	0	0	0	518	457	0	419	0	0	
8	0	0	0	0	522	459	0	418	0	0	
9	0	0	0	0	528	463	0	419	0	0	
10	0	0	0	0	535	468	0	422	0	0	
11	0	0	0	0	543	475	0	425	0	0	
12	0	0	0	0	551	482	0	429	0	0	
13	0	0	0	0	559	490	0	435	0	0	
14	0	0	0	0	567	497	0	440	0	0	
15	0	0	0	0	574	504	0	445	0	0	
0	0	0	0	0	579	510	0	449	0	0	
1	0	0	0	0	582	513	0	452	0	0	
2	0	0	0	0	582	514	0	452	0	0	
3	0	0	0	0	580	512	0	451	0	0	
4	0	0	0	0	574	507	0	448	0	0	
5	0	0	0	0	567	500	0	443	0	0	
6	0	0	0	0	558	492	0	437	0	0	
7	0	0	0	0	548	483	0	430	0	0	
8	0	0	0	0	537	474	0	423	0	0	
9	0	0	0	0	528	466	0	417	0	0	
10	0	0	0	0	521	458	0	412	0	0	
11	0	0	0	0	515	452	0	408	0	0	
12	0	0	0	0	511	448	0	406	0	0	
13	0	0	0	0	510	447	0	405	0	0	
14	0	0	0	0	510	447	0	406	0	0	
15	0	0	0	0	512	448	0	408	0	0	
0	0	0	0	0	515	451	0	412	0	0	
1	0	0	0	0	519	454	0	415	0	0	
2	0	0	0	0	524	458	0	420	0	0	
3	0	0	0	0	528	462	0	425	0	0	
4	0	0	0	0	533	466	0	431	0	0	
5	0	0	0	0	538	470	0	436	0	0	
6	0	0	0	0	543	473	0	440	0	0	
7	0	0	0	0	547	476	0	444	0	0	
8	0	0	0	0	551	480	0	447	0	0	
9	0	0	0	0	555	482	0	449	0	0	
10	0	0	0	0	558	484	0	451	0	0	
11	0	0	0	0	561	487	0	452	0	0	
12	0	0	0	0	564	489	0	453	0	0	
13	0	0	0	0	567	492	0	453	0	0	
14	0	0	0	0	568	494	0	453	0	0	
15	0	0	0	0	571	497	0	453	0	0	
0	0	0	0	0	572	499	0	453	0	0	
1	0	0	0	0	573	502	0	454	0	0	
2	0	0	0	0	574	504	0	454	0	0	
3	0	0	0	0	575	506	0	455	0	0	
4	0	0	0	0	575	508	0	456	0	0	
5	0	0	0	0	576	510	0	457	0	0	
6	0	0	0	0	575	511	0	458	0	0	
7	0	0	0	0	574	511	0	458	0	0	
8	0	0	0	0	572	509	0	457	0	0	
9	0	0	0	0	568	507	0	456	0	0	
10	0	0	0	0	566	504	0	454	0	0	
11	0	0	0	0	563	501	0	451	0	0	
12	0	0	0	0	560	498	0	448	0	0	
13	0	0	0	0	558	495	0	445	0	0	
14	0	0	0	0	556	491	0	440	0	0	
15	0	0	0	0	554	488	0	435	0	0	
0	0	0	0	0	552	485	0	431	0	0	
1	0	0	0	0	550	483	0	426	0	0	
2	0	0	0	0	548	480	0	422	0	0	
3	0	0	0	0	546	478	0	419	0	0	
4	0	0	0	0	544	476	0	416	0	0	
5	0	0	0	0	542	475	0	415	0	0	
6	0	0	0	0	540	474	0	415	0	0	
7	0	0	0	0	537	473	0	415	0	0	
8	0	0	0	0	535	472	0	416	0	0	
9	0	0	0	0	534	471	0	417	0	0	
10	0	0	0	0	532	472	0	419	0	0	
11	0	0	0	0	531	472	0	419	0	0	
12	0	0	0	0	531	472	0	421	0	0	
13	0	0	0	0	531	472	0	421	0	0	
14	0	0	0	0	531	473	0	420	0	0	
15	0	0	0	0	531	473	0	419	0	0	
0	0	0	0	0	531	472	0	417	0	0	
1	0	0	0	0	530	471	0	414	0	0	
2	0	0	0	0	528	469	0	410	0	0	
3	0	0	0	0	527	465	0	405	0	0	
4	0	0	0	0	524	461	0	401	0	0	
5	0	0	0	0	520	456	0	397	0	0	
6	0	0	0	0	516	451	0	394	0	0	
7	0	0	0	0	512	446	0	393	0	0	
8	0	0	0	0	509	442	0	393	0	0	
9	0	0	0	0	507	440	0	396	0	0	
10	0	0	0	0	506	439	0	400	0	0	
11	0	0	0	0	506	440	0	406	0	0	
12	0	0	0	0	508	442	0	413	0	0	
13	0	0	0	0	511	447	0	420	0	0	
14	0	0	0	0	515	452	0	428	0	0	
15	0	0	0	0	521	459	0	436	0	0	
0	0	0	0	0	527	464	0	443	0	0	
1	0	0	0	0	533	470	0	449	0	0	
2	0	0	0	0	537	475	0	452	0	0	
3	0	0	0	0	542	479	0	453	0	0	
4	0	0	0	0	544	481	0	452	0	0	
5	0	0	0	0	546	482	0	449	0	0	
6	0	0	0	0	546	481	0	444	0	0	
7	0	0	0	0	546	481	0	440	0	0	
8	0	0	0	0	546	480	0	435	0	0	
9	0	0	0	0	546	481	0	431	0	0	
10	0	0	0	0	547	482	0	428	0	0	
11	0	0	0	0	549	484	0	427	0	0	
12	0	0	0	0	552	487	0	428	0	0	
13	0	0	0	0	556	491	0	430	0	0	
14	0	0	0	0	558	495	0	432	0	0	
15	0	0	0	0	561	498	0	436	0	0	
0	0	0	0	0	562	500	0	440	0	0	
1	0	0	0	0	564	501	0	443	0	0	
2	0	0	0	0	563	502	0	446	0	0	
3	0	0	0	0	563	501	0	448	0	0	
4	0	0	0	0	561	500	0	449	0	0	
5	0	0	0	0	559	498	0	449	0	0	
6	0	0	0	0	556	496	0	448	0	0	
7	0	0	0	0	553	493	0	447	0	0	
8	0	0	0	0	548	488	0	444	0	0	
9	0	0	0	0	544	484	0	440	0	0	
10	0	0	0	0	539	479	0	436	0	0	
11	0	0	0	0	534	474	0	431	0	0	
12	0	0	0	0	528	468	0	427	0	0	
13	0	0	0	0	524	464	0	423	0	0	
14	0	0	0	0	520	461	0	421	0	0	
15	0	0	0	0	517	459	0	419	0	0	
0	0	0	0	0	515	459	0	419	0	0	
1	0	0	0	0	515	459	0	419	0	0	
2	0	0	0	0	515	460	0	420	0	0	
3	0	0	0	0	515	461	0	421	0	0	
4	0	0	0	0	517	463	0	423	0	0	
5	0	0	0	0	519	466	0	425	0	0	
6	0	0	0	0	524	470	0	428	0	0	
7	0	0	0	0	529	475	0	432	0	0	
8	0	0	0	0	535	479	0	435	0	0	
9	0	0	0	0	541	483	0	439	0	0	
10	0	0	0	0	546	487	0	441	0	0	
11	0	0	0	0	550	489	0	443	0	0	
12	0	0	0	0	551	490	0	443	0	0	
13	0	0	0	0	551	488	0	440	0	0	
14	0	0	0	0	549	485	0	436	0	0	
15	0	0	0	0	545	481	0	431	0	0	
0	0	0	0	0	540	476	0	423	0	0	
1	0	0	0	0	535	471	0	416	0	0	
2	0	0	0	0	530	466	0	410	0	0	
3	0	0	0	0	525	462	0	404	0	0	
4	0	0	0	0	521	460	0	399	0	0	
5	0	0	0	0	519	458	0	396	0	0	
6	0	0	0	0	517	458	0	396	0	0	
7	0	0	0	0	518	459	0	397	0	0	
8	0	0	0	0	519	462	0	400	0	0	
9	0	0	0	0	522	465	0	405	0	0	
10	0	0	0	0	526	470	0	411	0	0	
11	0	0	0	0	530	474	0	418	0	0	
12	0	0	0	0	534	477	0	426	0	0	
13	0	0	0	0	537	480	0	432	0	0	
14	0	0	0	0	541	483	0	439	0	0	
15	0	0	0	0	544	485	0	444	0	0	
0	0	0	0	0	548	487	0	449	0	0	
1	0	0	0	0	551	489	0	453	0	0	
2	0	0	0	0	556	492	0	457	0	0	
3	0	0	0	0	559	494	0	459	0	0	
4	0	0	0	0	561	495	0	460	0	0	
5	0	0	0	0	563	496	0	460	0	0	
6	0	0	0	0	563	496	0	459	0	0	
7	0	0	0	0	562	495	0	457	0	0	
8	0	0	0	0	560	493	0	453	0	0	
9	0	0	0	0	556	490	0	449	0	0	
10	0	0	0	0	551	487	0	445	0	0	
11	0	0	0	0	545	483	0	441	0	0	
12	0	0	0	0	540	480	0	436	0	0	
13	0	0	0	0	536	478	0	433	0	0	
14	0	0	0	0	534	476	0	432	0	0	
15	0	0	0	0	532	475	0	430	0	0	
0	0	0	0	0	530	475	0	428	0	0	
1	0	0	0	0	530	474	0	428	0	0	
2	0	0	0	0	530	473	0	426	0	0	
3	0	0	0	0	530	472	0	425	0	0	
4	0	0	0	0	531	472	0	423	0	0	
5	0	0	0	0	531	470	0	422	0	0	
6	0	0	0	0	531	468	0	420	0	0	
7	0	0	0	0	531	466	0	418	0	0	
8	0	0	0	0	530	463	0	416	0	0	
9	0	0	0	0	528	461	0	414	0	0	
10	0	0	0	0	526	460	0	412	0	0	
11	0	0	0	0	526	459	0	412	0	0	
12	0	0	0	0	525	460	0	412	0	0	
13	0	0	0	0	525	462	0	413	0	0	
14	0	0	0	0	527	466	0	416	0	0	
15	0	0	0	0	530	471	0	420	0	0	
0	0	0	0	0	535	477	0	424	0	0	
1	0	0	0	0	540	484	0	429	0	0	
2	0	0	0	0	547	490	0	434	0	0	
3	0	0	0	0	551	495	0	439	0	0	
4	0	0	0	0	556	499	0	441	0	0	
5	0	0	0	0	558	500	0	444	0	0	
6	0	0	0	0	559	500	0	443	0	0	
7	0	0	0	0	558	499	0	442	0	0	
8	0	0	0	0	556	495	0	440	0	0	
9	0	0	0	0	552	490	0	436	0	0	
10	0	0	0	0	547	484	0	432	0	0	
11	0	0	0	0	541	478	0	428	0	0	
12	0	0	0	0	535	472	0	423	0	0	
13	0	0	0	0	527	465	0	419	0	0	
14	0	0	0	0	520	459	0	415	0	0	
15	0	0	0	0	515	454	0	413	0	0	
0	0	0	0	0	510	451	0	412	0	0	
1	0	0	0	0	506	449	0	412	0	0	
2	0	0	0	0	504	449	0	414	0	0	
3	0	0	0	0	504	451	0	416	0	0	
4	0	0	0	0	506	453	0	420	0	0	
5	0	0	0	0	509	457	0	424	0	0	
6	0	0	0	0	512	461	0	429	0	0	
7	0	0	0	0	517	465	0	433	0	0	
8	0	0	0	0	522	469	0	436	0	0	
9	0	0	0	0	526	472	0	438	0	0	
10	0	0	0	0	531	475	0	439	0	0	
11	0	0	0	0	533	476	0	438	0	0	
12	0	0	0	0	535	475	0	435	0	0	
13	0	0	0	0	536	475	0	433	0	0	
14	0	0	0	0	536	473	0	431	0	0	
15	0	0	0	0	536	473	0	427	0	0	
0	0	0	0	0	537	473	0	426	0	0	
1	0	0	0	0	538	474	0	425	0	0	
2	0	0	0	0	541	476	0	427	0	0	
3	0	0	0	0	544	479	0	430	0	0	
4	0	0	0	0	549	485	0	435	0	0	
5	0	0	0	0	556	492	0	442	0	0	
6	0	0	0	0	563	500	0	451	0	0	
7	0	0	0	0	572	508	0	460	0	0	
8	0	0	0	0	580	517	0	470	0	0	
9	0	0	0	0	588	524	0	479	0	0	
10	0	0	0	0	594	531	0	486	0	0	
11	0	0	0	0	597	534	0	490	0	0	
12	0	0	0	0	597	535	0	491	0	0	
13	0	0	0	0	593	531	0	488	0	0	
14	0	0	0	0	585	524	0	482	0	0	
15	0	0	0	0	574	513	0	473	0	0	
0	0	0	0	0	559	499	0	460	0	0	
1	0	0	0	0	541	483	0	445	0	0	
2	0	0	0	0	522	466	0	430	0	0	
3	0	0	0	0	504	449	0	412	0	0	
4	0	0	0	0	486	432	0	396	0	0	
5	0	0	0	0	470	418	0	382	0	0	
6	0	0	0	0	458	406	0	371	0	0	
7	0	0	0	0	450	398	0	363	0	0	
8	0	0	0	0	447	395	0	359	0	0	
9	0	0	0	0	449	397	0	361	0	0	
10	0	0	0	0	457	403	0	366	0	0	
11	0	0	0	0	469	413	0	375	0	0	
12	0	0	0	0	485	426	0	387	0	0	
13	0	0	0	0	503	441	0	400	0	0	
14	0	0	0	0	521	457	0	414	0	0	
15	0	0	0	0	538	471	0	427	0	0	
0	0	0	0	0	554	483	0	438	0	0	
1	0	0	0	0	566	493	0	446	0	0	
2	0	0	0	0	574	500	0	451	0	0	
3	0	0	0	0	577	503	0	453	0	0	
4	0	0	0	0	577	502	0	451	0	0	
5	0	0	0	0	573	499	0	447	0	0	
6	0	0	0	0	566	493	0	441	0	0	
7	0	0	0	0	557	487	0	434	0	0	
8	0	0	0	0	547	480	0	427	0	0	
9	0	0	0	0	538	473	0	421	0	0	
10	0	0	0	0	529	467	0	415	0	0	
11	0	0	0	0	522	463	0	412	0	0	
12	0	0	0	0	519	462	0	410	0	0	
13	0	0	0	0	517	463	0	411	0	0	
14	0	0	0	0	517	465	0	413	0	0	
15	0	0	0	0	519	468	0	417	0	0	
0	0	0	0	0	522	472	0	422	0	0	
1	0	0	0	0	527	477	0	428	0	0	
2	0	0	0	0	532	482	0	435	0	0	
3	0	0	0	0	537	486	0	440	0	0	
4	0	0	0	0	542	489	0	445	0	0	
5	0	0	0	0	545	491	0	448	0	0	
6	0	0	0	0	548	492	0	449	0	0	
7	0	0	0	0	548	491	0	449	0	0	
8	0	0	0	0	547	487	0	447	0	0	
9	0	0	0	0	544	483	0	442	0	0	
10	0	0	0	0	540	477	0	436	0	0	
11	0	0	0	0	533	470	0	428	0	0	
12	0	0	0	0	526	462	0	421	0	0	
13	0	0	0	0	518	454	0	412	0	0	
14	0	0	0	0	510	446	0	405	0	0	
15	0	0	0	0	502	440	0	399	0	0	
0	0	0	0	0	497	435	0	395	0	0	
1	0	0	0	0	493	433	0	392	0	0	
2	0	0	0	0	492	432	0	392	0	0	
3	0	0	0	0	493	434	0	394	0	0	
4	0	0	0	0	495	438	0	397	0	0	
5	0	0	0	0	500	443	0	402	0	0	
6	0	0	0	0	506	450	0	408	0	0	
7	0	0	0	0	513	457	0	414	0	0	
8	0	0	0	0	521	465	0	420	0	0	
9	0	0	0	0	529	472	0	426	0	0	
10	0	0	0	0	537	478	0	430	0	0	
11	0	0	0	0	543	483	0	433	0	0	
12	0	0	0	0	548	486	0	434	0	0	
13	0	0	0	0	552	487	0	434	0	0	
14	0	0	0	0	554	488	0	433	0	0	
15	0	0	0	0	557	489	0	432	0	0	
0	0	0	0	0	558	489	0	431	0	0	
1	0	0	0	0	558	488	0	429	0	0	
2	0	0	0	0	557	488	0	427	0	0	
3	0	0	0	0	555	487	0	426	0	0	
4	0	0	0	0	551	486	0	425	0	0	
5	0	0	0	0	548	483	0	425	0	0	
6	0	0	0	0	543	481	0	425	0	0	
7	0	0	0	0	538	478	0	427	0	0	
8	0	0	0	0	532	476	0	428	0	0	
9	0	0	0	0	529	473	0	431	0	0	
10	0	0	0	0	525	472	0	433	0	0	
11	0	0	0	0	523	471	0	436	0	0	
12	0	0	0	0	523	470	0	438	0	0	
13	0	0	0	0	523	469	0	440	0	0	
14	0	0	0	0	524	469	0	441	0	0	
15	0	0	0	0	527	469	0	441	0	0	
0	0	0	0	0	529	469	0	440	0	0	
1	0	0	0	0	532	468	0	438	0	0	
2	0	0	0	0	535	467	0	435	0	0	
3	0	0	0	0	535	465	0	430	0	0	
4	0	0	0	0	535	462	0	425	0	0	
5	0	0	0	0	531	457	0	418	0	0	
6	0	0	0	0	526	452	0	411	0	0	
7	0	0	0	0	519	446	0	402	0	0	
8	0	0	0	0	511	439	0	394	0	0	
9	0	0	0	0	504	433	0	388	0	0	
10	0	0	0	0	496	427	0	382	0	0	
11	0	0	0	0	489	423	0	378	0	0	
12	0	0	0	0	484	421	0	375	0	0	
13	0	0	0	0	480	419	0	372	0	0	
14	0	0	0	0	477	418	0	371	0	0	
15	0	0	0	0	474	416	0	368	0	0	
0	0	0	0	0	470	413	0	365	0	0	
1	0	0	0	0	464	408	0	359	0	0	
2	0	0	0	0	456	399	0	351	0	0	
3	0	0	0	0	444	387	0	339	0	0	
4	0	0	0	0	428	371	0	324	0	0	
5	0	0	0	0	408	351	0	306	0	0	
6	0	0	0	0	386	329	0	285	0	0	
7	0	0	0	0	361	305	0	263	0	0	
8	0	0	0	0	336	281	0	240	0	0	
9	0	0	0	0	312	259	0	218	0	0	
10	0	0	0	0	290	238	0	198	0	0	
11	0	0	0	0	273	222	0	182	0	0	
12	0	0	0	0	263	211	0	170	0	0	
13	0	0	0	0	258	207	0	165	0	0	
14	0	0	0	0	261	209	0	165	0	0	
15	0	0	0	0	271	217	0	172	0	0	
0	0	0	0	0	288	231	0	185	0	0	
1	0	0	0	0	311	251	0	203	0	0	
2	0	0	0	0	337	274	0	226	0	0	
3	0	0	0	0	367	298	0	251	0	0	
4	0	0	0	0	397	324	0	278	0	0	
5	0	0	0	0	428	349	0	305	0	0	
6	0	0	0	0	456	373	0	332	0	0	
7	0	0	0	0	482	396	0	359	0	0	
8	0	0	0	0	505	416	0	382	0	0	
9	0	0	0	0	525	434	0	403	0	0	
10	0	0	0	0	541	449	0	421	0	0	
11	0	0	0	0	554	463	0	435	0	0	
12	0	0	0	0	564	474	0	447	0	0	
13	0	0	0	0	571	483	0	455	0	0	
14	0	0	0	0	575	491	0	461	0	0	
15	0	0	0	0	578	497	0	464	0	0	
0	0	0	0	0	579	503	0	466	0	0	
1	0	0	0	0	579	506	0	466	0	0	
2	0	0	0	0	577	508	0	465	0	0	
3	0	0	0	0	574	508	0	463	0	0	
4	0	0	0	0	569	507	0	459	0	0	
5	0	0	0	0	564	503	0	455	0	0	
6	0	0	0	0	557	498	0	449	0	0	
7	0	0	0	0	550	491	0	443	0	0	
8	0	0	0	0	542	483	0	436	0	0	
9	0	0	0	0	534	476	0	429	0	0	
10	0	0	0	0	527	468	0	422	0	0	
11	0	0	0	0	520	460	0	415	0	0	
12	0	0	0	0	515	453	0	409	0	0	
13	0	0	0	0	511	447	0	403	0	0	
14	0	0	0	0	508	442	0	399	0	0	
15	0	0	0	0	508	440	0	397	0	0	
0	0	0	0	0	510	440	0	396	0	0	
1	0	0	0	0	515	441	0	397	0	0	
2	0	0	0	0	520	445	0	400	0	0	
3	0	0	0	0	527	451	0	404	0	0	
4	0	0	0	0	536	457	0	410	0	0	
5	0	0	0	0	544	465	0	416	0	0	
6	0	0	0	0	551	473	0	423	0	0	
7	0	0	0	0	558	481	0	430	0	0	
8	0	0	0	0	563	489	0	436	0	0	
9	0	0	0	0	568	495	0	442	0	0	
10	0	0	0	0	572	500	0	447	0	0	
11	0	0	0	0	574	505	0	450	0	0	
12	0	0	0	0	575	508	0	452	0	0	
13	0	0	0	0	575	511	0	452	0	0	
14	0	0	0	0	577	513	0	452	0	0	
15	0	0	0	0	578	515	0	451	0	0	
0	0	0	0	0	579	515	0	449	0	0	
1	0	0	0	0	580	514	0	446	0	0	
2	0	0	0	0	579	512	0	441	0	0	
3	0	0	0	0	575	507	0	435	0	0	
4	0	0	0	0	570	500	0	428	0	0	
5	0	0	0	0	562	492	0	422	0	0	
6	0	0	0	0	553	481	0	415	0	0	
7	0	0	0	0	544	472	0	409	0	0	
8	0	0	0	0	535	463	0	405	0	0	
9	0	0	0	0	526	455	0	403	0	0	
10	0	0	0	0	519	450	0	402	0	0	
11	0	0	0	0	515	447	0	404	0	0	
12	0	0	0	0	512	446	0	407	0	0	
13	0	0	0	0	512	447	0	411	0	0	
14	0	0	0	0	513	450	0	417	0	0	
15	0	0	0	0	516	453	0	422	0	0	
0	0	0	0	0	520	457	0	427	0	0	
1	0	0	0	0	524	461	0	431	0	0	
2	0	0	0	0	527	463	0	433	0	0	
3	0	0	0	0	529	464	0	434	0	0	
4	0	0	0	0	529	463	0	432	0	0	
5	0	0	0	0	528	460	0	429	0	0	
6	0	0	0	0	525	456	0	424	0	0	
7	0	0	0	0	521	452	0	419	0	0	
8	0	0	0	0	518	447	0	413	0	0	
9	0	0	0	0	514	443	0	408	0	0	
10	0	0	0	0	511	440	0	405	0	0	
11	0	0	0	0	509	438	0	402	0	0	
12	0	0	0	0	508	438	0	401	0	0	
13	0	0	0	0	510	440	0	401	0	0	
14	0	0	0	0	512	444	0	403	0	0	
15	0	0	0	0	516	449	0	407	0	0	
0	0	0	0	0	522	455	0	412	0	0	
1	0	0	0	0	529	464	0	418	0	0	
2	0	0	0	0	538	473	0	424	0	0	
3	0	0	0	0	547	482	0	431	0	0	
4	0	0	0	0	556	491	0	437	0	0	
5	0	0	0	0	564	497	0	442	0	0	
6	0	0	0	0	572	504	0	445	0	0	
7	0	0	0	0	577	508	0	447	0	0	
8	0	0	0	0	582	512	0	448	0	0	
9	0	0	0	0	585	514	0	447	0	0	
10	0	0	0	0	587	515	0	445	0	0	
11	0	0	0	0	587	514	0	443	0	0	
12	0	0	0	0	586	513	0	440	0	0	
13	0	0	0	0	584	511	0	438	0	0	
14	0	0	0	0	580	508	0	436	0	0	
15	0	0	0	0	576	506	0	434	0	0	
0	0	0	0	0	572	503	0	433	0	0	
1	0	0	0	0	567	500	0	433	0	0	
2	0	0	0	0	563	498	0	435	0	0	
3	0	0	0	0	560	496	0	437	0	0	
4	0	0	0	0	556	495	0	440	0	0	
5	0	0	0	0	555	494	0	443	0	0	
6	0	0	0	0	553	493	0	446	0	0	
7	0	0	0	0	552	493	0	448	0	0	
8	0	0	0	0	552	492	0	448	0	0	
9	0	0	0	0	551	491	0	448	0	0	
10	0	0	0	0	552	491	0	447	0	0	
11	0	0	0	0	553	490	0	445	0	0	
12	0	0	0	0	555	489	0	442	0	0	
13	0	0	0	0	557	488	0	439	0	0	
14	0	0	0	0	559	488	0	435	0	0	
15	0	0	0	0	560	488	0	432	0	0	
0	0	0	0	0	563	488	0	429	0	0	
1	0	0	0	0	564	488	0	427	0	0	
2	0	0	0	0	565	489	0	425	0	0	
3	0	0	0	0	564	488	0	424	0	0	
4	0	0	0	0	562	487	0	423	0	0	
5	0	0	0	0	558	485	0	422	0	0	
6	0	0	0	0	552	481	0	422	0	0	
7	0	0	0	0	545	478	0	421	0	0	
8	0	0	0	0	537	473	0	419	0	0	
9	0	0	0	0	531	470	0	419	0	0	
10	0	0	0	0	524	465	0	418	0	0	
11	0	0	0	0	518	462	0	417	0	0	
12	0	0	0	0	513	458	0	416	0	0	
13	0	0	0	0	511	455	0	415	0	0	
14	0	0	0	0	511	455	0	415	0	0	
15	0	0	0	0	513	455	0	414	0	0	
0	0	0	0	0	518	456	0	414	0	0	
1	0	0	0	0	524	459	0	414	0	0	
2	0	0	0	0	533	463	0	414	0	0	
3	0	0	0	0	543	469	0	415	0	0	
4	0	0	0	0	553	476	0	416	0	0	
5	0	0	0	0	563	483	0	419	0	0	
6	0	0	0	0	573	490	0	422	0	0	
7	0	0	0	0	580	496	0	425	0	0	
8	0	0	0	0	586	502	0	429	0	0	
9	0	0	0	0	590	505	0	433	0	0	
10	0	0	0	0	591	508	0	437	0	0	
11	0	0	0	0	590	509	0	441	0	0	
12	0	0	0	0	587	508	0	445	0	0	
13	0	0	0	0	583	507	0	449	0	0	
14	0	0	0	0	577	504	0	452	0	0	
15	0	0	0	0	571	501	0	454	0	0	
0	0	0	0	0	564	496	0	454	0	0	
1	0	0	0	0	557	491	0	453	0	0	
2	0	0	0	0	551	486	0	450	0	0	
3	0	0	0	0	545	481	0	446	0	0	
4	0	0	0	0	539	476	0	441	0	0	
5	0	0	0	0	535	471	0	435	0	0	
6	0	0	0	0	531	466	0	429	0	0	
7	0	0	0	0	529	463	0	422	0	0	
8	0	0	0	0	526	460	0	415	0	0	
9	0	0	0	0	524	456	0	409	0	0	
10	0	0	0	0	521	453	0	403	0	0	
11	0	0	0	0	519	450	0	399	0	0	
12	0	0	0	0	515	448	0	396	0	0	
13	0	0	0	0	512	446	0	394	0	0	
14	0	0	0	0	509	444	0	394	0	0	
15	0	0	0	0	506	442	0	394	0	0	
0	0	0	0	0	504	441	0	395	0	0	
1	0	0	0	0	502	441	0	397	0	0	
2	0	0	0	0	501	442	0	400	0	0	
3	0	0	0	0	501	443	0	402	0	0	
4	0	0	0	0	502	444	0	404	0	0	
5	0	0	0	0	503	444	0	405	0	0	
6	0	0	0	0	505	446	0	405	0	0	
7	0	0	0	0	508	447	0	405	0	0	
8	0	0	0	0	511	448	0	404	0	0	
9	0	0	0	0	513	449	0	402	0	0	
10	0	0	0	0	515	450	0	400	0	0	
11	0	0	0	0	518	451	0	398	0	0	
12	0	0	0	0	519	451	0	396	0	0	
13	0	0	0	0	521	451	0	394	0	0	
14	0	0	0	0	522	451	0	393	0	0	
15	0	0	0	0	523	452	0	392	0	0	
0	0	0	0	0	522	452	0	392	0	0	
1	0	0	0	0	521	452	0	392	0	0	
2	0	0	0	0	519	451	0	392	0	0	
3	0	0	0	0	516	451	0	393	0	0	
4	0	0	0	0	512	449	0	393	0	0	
5	0	0	0	0	510	449	0	393	0	0	
6	0	0	0	0	507	448	0	394	0	0	
7	0	0	0	0	504	447	0	395	0	0	
8	0	0	0	0	503	446	0	395	0	0	
9	0	0	0	0	502	446	0	396	0	0	
10	0	0	0	0	503	446	0	396	0	0	
11	0	0	0	0	506	448	0	399	0	0	
12	0	0	0	0	511	450	0	401	0	0	
13	0	0	0	0	517	454	0	404	0	0	
14	0	0	0	0	525	460	0	408	0	0	
15	0	0	0	0	535	467	0	413	0	0	
0	0	0	0	0	545	474	0	418	0	0	
1	0	0	0	0	556	483	0	423	0	0	
2	0	0	0	0	566	491	0	429	0	0	
3	0	0	0	0	575	498	0	434	0	0	
4	0	0	0	0	582	505	0	438	0	0	
5	0	0	0	0	586	510	0	441	0	0	
6	0	0	0	0	588	514	0	443	0	0	
7	0	0	0	0	588	516	0	444	0	0	
8	0	0	0	0	585	517	0	444	0	0	
9	0	0	0	0	583	518	0	446	0	0	
10	0	0	0	0	581	519	0	447	0	0	
11	0	0	0	0	578	518	0	447	0	0	
12	0	0	0	0	575	517	0	447	0	0	
13	0	0	0	0	572	514	0	446	0	0	
14	0	0	0	0	568	510	0	445	0	0	
15	0	0	0	0	563	505	0	442	0	0	
0	0	0	0	0	558	498	0	438	0	0	
1	0	0	0	0	551	490	0	432	0	0	
2	0	0	0	0	545	481	0	426	0	0	
3	0	0	0	0	538	473	0	419	0	0	
4	0	0	0	0	532	465	0	413	0	0	
5	0	0	0	0	526	457	0	407	0	0	
6	0	0	0	0	521	451	0	401	0	0	
7	0	0	0	0	518	446	0	398	0	0	
8	0	0	0	0	515	443	0	396	0	0	
9	0	0	0	0	514	441	0	396	0	0	
10	0	0	0	0	513	441	0	396	0	0	
11	0	0	0	0	513	441	0	399	0	0	
12	0	0	0	0	513	442	0	402	0	0	
13	0	0	0	0	513	444	0	404	0	0	
14	0	0	0	0	512	445	0	407	0	0	
15	0	0	0	0	513	447	0	409	0	0	
0	0	0	0	0	513	448	0	410	0	0	
1	0	0	0	0	513	449	0	411	0	0	
2	0	0	0	0	515	450	0	411	0	0	
3	0	0	0	0	516	452	0	411	0	0	
4	0	0	0	0	518	454	0	411	0	0	
5	0	0	0	0	521	455	0	409	0	0	
6	0	0	0	0	524	457	0	408	0	0	
7	0	0	0	0	529	460	0	407	0	0	
8	0	0	0	0	535	463	0	407	0	0	
9	0	0	0	0	542	468	0	408	0	0	
10	0	0	0	0	550	474	0	410	0	0	
11	0	0	0	0	557	480	0	412	0	0	
12	0	0	0	0	562	484	0	416	0	0	
13	0	0	0	0	566	487	0	419	0	0	
14	0	0	0	0	567	488	0	423	0	0	
15	0	0	0	0	565	487	0	425	0	0	
0	0	0	0	0	560	483	0	428	0	0	
1	0	0	0	0	554	479	0	430	0	0	
2	0	0	0	0	547	474	0	431	0	0	
3	0	0	0	0	537	466	0	431	0	0	
4	0	0	0	0	527	459	0	430	0	0	
5	0	0	0	0	517	450	0	428	0	0	
6	0	0	0	0	508	442	0	425	0	0	
7	0	0	0	0	500	435	0	422	0	0	
8	0	0	0	0	494	429	0	418	0	0	
9	0	0	0	0	491	424	0	415	0	0	
10	0	0	0	0	489	421	0	412	0	0	
11	0	0	0	0	490	420	0	410	0	0	
12	0	0	0	0	494	423	0	409	0	0	
13	0	0	0	0	499	426	0	409	0	0	
14	0	0	0	0	506	431	0	412	0	0	
15	0	0	0	0	514	438	0	414	0	0	
0	0	0	0	0	522	445	0	417	0	0	
1	0	0	0	0	530	453	0	420	0	0	
2	0	0	0	0	536	460	0	423	0	0	
3	0	0	0	0	541	465	0	426	0	0	
4	0	0	0	0	543	469	0	428	0	0	
5	0	0	0	0	545	473	0	429	0	0	
6	0	0	0	0	545	475	0	430	0	0	
7	0	0	0	0	543	475	0	430	0	0	
8	0	0	0	0	540	474	0	429	0	0	
9	0	0	0	0	535	471	0	427	0	0	
10	0	0	0	0	529	467	0	424	0	0	
11	0	0	0	0	523	462	0	421	0	0	
12	0	0	0	0	516	456	0	416	0	0	
13	0	0	0	0	509	450	0	413	0	0	
14	0	0	0	0	504	445	0	409	0	0	
15	0	0	0	0	501	441	0	407	0	0	
0	0	0	0	0	499	440	0	406	0	0	
1	0	0	0	0	501	441	0	406	0	0	
2	0	0	0	0	505	444	0	408	0	0	
3	0	0	0	0	512	450	0	412	0	0	
4	0	0	0	0	522	458	0	416	0	0	
5	0	0	0	0	532	468	0	422	0	0	
6	0	0	0	0	543	478	0	428	0	0	
7	0	0	0	0	554	487	0	433	0	0	
8	0	0	0	0	562	496	0	438	0	0	
9	0	0	0	0	570	503	0	442	0	0	
10	0	0	0	0	574	507	0	445	0	0	
11	0	0	0	0	575	508	0	446	0	0	
12	0	0	0	0	572	506	0	445	0	0	
13	0	0	0	0	565	501	0	442	0	0	
14	0	0	0	0	557	494	0	438	0	0	
15	0	0	0	0	546	484	0	432	0	0	
0	0	0	0	0	535	475	0	425	0	0	
1	0	0	0	0	524	464	0	419	0	0	
2	0	0	0	0	513	456	0	412	0	0	
3	0	0	0	0	506	449	0	407	0	0	
4	0	0	0	0	501	444	0	403	0	0	
5	0	0	0	0	499	442	0	401	0	0	
6	0	0	0	0	502	443	0	401	0	0	
7	0	0	0	0	507	447	0	403	0	0	
8	0	0	0	0	515	454	0	406	0	0	
9	0	0	0	0	526	463	0	412	0	0	
10	0	0	0	0	537	473	0	418	0	0	
11	0	0	0	0	550	485	0	425	0	0	
12	0	0	0	0	562	497	0	432	0	0	
13	0	0	0	0	575	509	0	440	0	0	
14	0	0	0	0	585	520	0	446	0	0	
15	0	0	0	0	594	529	0	451	0	0	
0	0	0	0	0	599	535	0	455	0	0	
1	0	0	0	0	599	537	0	455	0	0	
2	0	0	0	0	595	535	0	454	0	0	
3	0	0	0	0	586	528	0	449	0	0	
4	0	0	0	0	574	519	0	443	0	0	
5	0	0	0	0	560	506	0	435	0	0	
6	0	0	0	0	543	493	0	427	0	0	
7	0	0	0	0	528	480	0	419	0	0	
8	0	0	0	0	513	467	0	411	0	0	
9	0	0	0	0	501	457	0	405	0	0	
10	0	0	0	0	492	449	0	400	0	0	
11	0	0	0	0	486	444	0	397	0	0	
12	0	0	0	0	485	444	0	397	0	0	
13	0	0	0	0	488	447	0	399	0	0	
14	0	0	0	0	495	453	0	403	0	0	
15	0	0	0	0	505	461	0	408	0	0	
0	0	0	0	0	516	470	0	414	0	0	
1	0	0	0	0	528	479	0	420	0	0	
2	0	0	0	0	539	487	0	425	0	0	
3	0	0	0	0	547	492	0	429	0	0	
4	0	0	0	0	552	495	0	431	0	0	
5	0	0	0	0	554	496	0	432	0	0	
6	0	0	0	0	553	494	0	431	0	0	
7	0	0	0	0	551	491	0	428	0	0	
8	0	0	0	0	546	486	0	425	0	0	
9	0	0	0	0	540	481	0	423	0	0	
10	0	0	0	0	534	476	0	420	0	0	
11	0	0	0	0	528	472	0	417	0	0	
12	0	0	0	0	522	468	0	415	0	0	
13	0	0	0	0	517	464	0	412	0	0	
14	0	0	0	0	512	461	0	411	0	0	
15	0	0	0	0	508	459	0	410	0	0	
0	0	0	0	0	505	458	0	408	0	0	
1	0	0	0	0	503	457	0	408	0	0	
2	0	0	0	0	501	456	0	409	0	0	
3	0	0	0	0	499	456	0	408	0	0	
4	0	0	0	0	497	455	0	408	0	0	
5	0	0	0	0	496	455	0	408	0	0	
6	0	0	0	0	496	455	0	409	0	0	
7	0	0	0	0	496	455	0	410	0	0	
8	0	0	0	0	497	455	0	411	0	0	
9	0	0	0	0	498	455	0	413	0	0	
10	0	0	0	0	500	456	0	415	0	0	
11	0	0	0	0	503	456	0	417	0	0	
12	0	0	0	0	505	457	0	419	0	0	
13	0	0	0	0	508	457	0	420	0	0	
14	0	0	0	0	510	457	0	421	0	0	
15	0	0	0	0	512	456	0	421	0	0	
0	0	0	0	0	513	456	0	422	0	0	
1	0	0	0	0	514	455	0	421	0	0	
2	0	0	0	0	514	455	0	420	0	0	
3	0	0	0	0	513	453	0	419	0	0	
4	0	0	0	0	512	453	0	417	0	0	
5	0	0	0	0	512	454	0	417	0	0	
6	0	0	0	0	512	455	0	418	0	0	
7	0	0	0	0	512	458	0	419	0	0	
8	0	0	0	0	513	461	0	421	0	0	
9	0	0	0	0	513	464	0	423	0	0	
10	0	0	0	0	514	467	0	425	0	0	
11	0	0	0	0	513	468	0	427	0	0	
12	0	0	0	0	512	468	0	428	0	0	
13	0	0	0	0	509	467	0	429	0	0	
14	0	0	0	0	505	463	0	428	0	0	
15	0	0	0	0	501	458	0	427	0	0	
0	0	0	0	0	496	452	0	425	0	0	
1	0	0	0	0	491	446	0	423	0	0	
2	0	0	0	0	487	440	0	420	0	0	
3	0	0	0	0	484	435	0	417	0	0	
4	0	0	0	0	481	431	0	415	0	0	
5	0	0	0	0	480	428	0	412	0	0	
6	0	0	0	0	480	425	0	411	0	0	
7	0	0	0	0	481	425	0	410	0	0	
8	0	0	0	0	484	426	0	411	0	0	
9	0	0	0	0	487	428	0	412	0	0	
10	0	0	0	0	491	432	0	414	0	0	
11	0	0	0	0	495	435	0	416	0	0	
12	0	0	0	0	499	439	0	419	0	0	
13	0	0	0	0	503	442	0	421	0	0	
14	0	0	0	0	506	446	0	424	0	0	
15	0	0	0	0	509	450	0	427	0	0	
0	0	0	0	0	512	453	0	429	0	0	
1	0	0	0	0	514	455	0	431	0	0	
2	0	0	0	0	517	457	0	432	0	0	
3	0	0	0	0	519	460	0	433	0	0	
4	0	0	0	0	522	461	0	434	0	0	
5	0	0	0	0	524	463	0	435	0	0	
6	0	0	0	0	527	464	0	435	0	0	
7	0	0	0	0	531	466	0	436	0	0	
8	0	0	0	0	534	467	0	436	0	0	
9	0	0	0	0	536	468	0	436	0	0	
10	0	0	0	0	537	468	0	436	0	0	
11	0	0	0	0	537	468	0	436	0	0	
12	0	0	0	0	537	467	0	436	0	0	
13	0	0	0	0	536	465	0	436	0	0	
14	0	0	0	0	534	464	0	436	0	0	
15	0	0	0	0	532	462	0	436	0	0	
0	0	0	0	0	529	460	0	435	0	0	
1	0	0	0	0	527	459	0	436	0	0	
2	0	0	0	0	527	459	0	436	0	0	
3	0	0	0	0	527	460	0	437	0	0	
4	0	0	0	0	530	462	0	438	0	0	
5	0	0	0	0	532	463	0	439	0	0	
6	0	0	0	0	536	465	0	439	0	0	
7	0	0	0	0	538	465	0	439	0	0	
8	0	0	0	0	540	464	0	437	0	0	
9	0	0	0	0	540	462	0	435	0	0	
10	0	0	0	0	539	458	0	433	0	0	
11	0	0	0	0	537	453	0	430	0	0	
12	0	0	0	0	533	447	0	427	0	0	
13	0	0	0	0	528	440	0	424	0	0	
14	0	0	0	0	523	434	0	423	0	0	
15	0	0	0	0	518	428	0	422	0	0	
0	0	0	0	0	514	424	0	422	0	0	
1	0	0	0	0	512	423	0	424	0	0	
2	0	0	0	0	511	423	0	428	0	0	
3	0	0	0	0	513	426	0	432	0	0	
4	0	0	0	0	516	430	0	436	0	0	
5	0	0	0	0	521	436	0	440	0	0	
6	0	0	0	0	527	442	0	444	0	0	
7	0	0	0	0	532	448	0	446	0	0	
8	0	0	0	0	538	452	0	447	0	0	
9	0	0	0	0	542	455	0	447	0	0	
10	0	0	0	0	544	456	0	444	0	0	
11	0	0	0	0	544	455	0	439	0	0	
12	0	0	0	0	542	452	0	433	0	0	
13	0	0	0	0	539	448	0	426	0	0	
14	0	0	0	0	534	442	0	418	0	0	
15	0	0	0	0	528	435	0	412	0	0	
0	0	0	0	0	522	429	0	406	0	0	
1	0	0	0	0	515	424	0	401	0	0	
2	0	0	0	0	511	420	0	398	0	0	
3	0	0	0	0	507	417	0	397	0	0	
4	0	0	0	0	505	416	0	398	0	0	
5	0	0	0	0	506	419	0	400	0	0	
6	0	0	0	0	508	422	0	405	0	0	
7	0	0	0	0	512	427	0	411	0	0	
8	0	0	0	0	518	434	0	418	0	0	
9	0	0	0	0	524	441	0	424	0	0	
10	0	0	0	0	531	448	0	431	0	0	
11	0	0	0	0	537	455	0	436	0	0	
12	0	0	0	0	542	459	0	441	0	0	
13	0	0	0	0	545	461	0	444	0	0	
14	0	0	0	0	547	461	0	445	0	0	
15	0	0	0	0	547	460	0	445	0	0	
0	0	0	0	0	545	457	0	444	0	0	
1	0	0	0	0	543	454	0	441	0	0	
2	0	0	0	0	540	451	0	440	0	0	
3	0	0	0	0	539	448	0	437	0	0	
4	0	0	0	0	538	448	0	435	0	0	
5	0	0	0	0	538	448	0	434	0	0	
6	0	0	0	0	539	450	0	434	0	0	
7	0	0	0	0	541	453	0	434	0	0	
8	0	0	0	0	544	457	0	435	0	0	
9	0	0	0	0	547	462	0	437	0	0	
10	0	0	0	0	550	466	0	439	0	0	
11	0	0	0	0	552	470	0	441	0	0	
12	0	0	0	0	553	474	0	443	0	0	
13	0	0	0	0	555	476	0	444	0	0	
14	0	0	0	0	555	478	0	446	0	0	
15	0	0	0	0	554	479	0	447	0	0	
0	0	0	0	0	552	479	0	447	0	0	
1	0	0	0	0	550	478	0	446	0	0	
2	0	0	0	0	548	476	0	445	0	0	
3	0	0	0	0	544	473	0	444	0	0	
4	0	0	0	0	541	471	0	441	0	0	
5	0	0	0	0	537	467	0	440	0	0	
6	0	0	0	0	536	465	0	440	0	0	
7	0	0	0	0	535	463	0	440	0	0	
8	0	0	0	0	535	463	0	440	0	0	
9	0	0	0	0	538	465	0	442	0	0	
10	0	0	0	0	542	467	0	444	0	0	
11	0	0	0	0	548	472	0	448	0	0	
12	0	0	0	0	554	477	0	451	0	0	
13	0	0	0	0	561	483	0	455	0	0	
14	0	0	0	0	568	489	0	459	0	0	
15	0	0	0	0	573	494	0	462	0	0	
0	0	0	0	0	578	498	0	463	0	0	
1	0	0	0	0	581	502	0	464	0	0	
2	0	0	0	0	583	504	0	463	0	0	
3	0	0	0	0	583	505	0	461	0	0	
4	0	0	0	0	582	505	0	458	0	0	
5	0	0	0	0	579	504	0	454	0	0	
6	0	0	0	0	576	503	0	449	0	0	
7	0	0	0	0	571	500	0	444	0	0	
8	0	0	0	0	566	496	0	438	0	0	
9	0	0	0	0	559	491	0	433	0	0	
10	0	0	0	0	552	485	0	428	0	0	
11	0	0	0	0	543	477	0	422	0	0	
12	0	0	0	0	534	469	0	416	0	0	
13	0	0	0	0	523	460	0	411	0	0	
14	0	0	0	0	512	451	0	406	0	0	
15	0	0	0	0	501	443	0	401	0	0	
0	0	0	0	0	492	436	0	399	0	0	
1	0	0	0	0	485	431	0	397	0	0	
2	0	0	0	0	480	428	0	397	0	0	
3	0	0	0	0	478	427	0	398	0	0	
4	0	0	0	0	479	428	0	401	0	0	
5	0	0	0	0	482	431	0	405	0	0	
6	0	0	0	0	489	438	0	411	0	0	
7	0	0	0	0	498	445	0	417	0	0	
8	0	0	0	0	508	454	0	423	0	0	
9	0	0	0	0	520	463	0	429	0	0	
10	0	0	0	0	533	473	0	435	0	0	
11	0	0	0	0	545	482	0	440	0	0	
12	0	0	0	0	556	490	0	444	0	0	
13	0	0	0	0	565	497	0	448	0	0	
14	0	0	0	0	572	502	0	450	0	0	
15	0	0	0	0	576	505	0	451	0	0	
0	0	0	0	0	579	508	0	452	0	0	
1	0	0	0	0	578	508	0	452	0	0	
2	0	0	0	0	575	507	0	451	0	0	
3	0	0	0	0	571	504	0	450	0	0	
4	0	0	0	0	565	501	0	448	0	0	
5	0	0	0	0	558	497	0	447	0	0	
6	0	0	0	0	551	494	0	445	0	0	
7	0	0	0	0	544	489	0	443	0	0	
8	0	0	0	0	537	486	0	441	0	0	
9	0	0	0	0	532	483	0	439	0	0	
10	0	0	0	0	528	481	0	438	0	0	
11	0	0	0	0	526	479	0	436	0	0	
12	0	0	0	0	525	478	0	435	0	0	
13	0	0	0	0	526	478	0	434	0	0	
14	0	0	0	0	528	478	0	433	0	0	
15	0	0	0	0	531	479	0	431	0	0	
0	0	0	0	0	533	479	0	429	0	0	
1	0	0	0	0	536	479	0	427	0	0	
2	0	0	0	0	539	478	0	424	0	0	
3	0	0	0	0	541	477	0	420	0	0	
4	0	0	0	0	542	476	0	418	0	0	
5	0	0	0	0	543	475	0	415	0	0	
6	0	0	0	0	543	474	0	413	0	0	
7	0	0	0	0	543	473	0	412	0	0	
8	0	0	0	0	543	472	0	412	0	0	
9	0	0	0	0	541	472	0	413	0	0	
10	0	0	0	0	540	472	0	415	0	0	
11	0	0	0	0	538	472	0	418	0	0	
12	0	0	0	0	536	472	0	422	0	0	
13	0	0	0	0	535	474	0	426	0	0	
14	0	0	0	0	534	475	0	431	0	0	
15	0	0	0	0	532	476	0	434	0	0	
0	0	0	0	0	531	476	0	437	0	0	
1	0	0	0	0	530	476	0	439	0	0	
2	0	0	0	0	529	476	0	439	0	0	
3	0	0	0	0	528	475	0	438	0	0	
4	0	0	0	0	528	475	0	437	0	0	
5	0	0	0	0	529	474	0	436	0	0	
6	0	0	0	0	529	474	0	434	0	0	
7	0	0	0	0	532	476	0	433	0	0	
8	0	0	0	0	535	478	0	433	0	0	
9	0	0	0	0	539	480	0	432	0	0	
10	0	0	0	0	543	484	0	433	0	0	
11	0	0	0	0	548	489	0	435	0	0	
12	0	0	0	0	553	494	0	436	0	0	
13	0	0	0	0	558	498	0	438	0	0	
14	0	0	0	0	560	503	0	440	0	0	
15	0	0	0	0	563	506	0	443	0	0	
0	0	0	0	0	564	509	0	444	0	0	
1	0	0	0	0	565	511	0	446	0	0	
2	0	0	0	0	564	512	0	447	0	0	
3	0	0	0	0	563	512	0	448	0	0	
4	0	0	0	0	561	512	0	448	0	0	
5	0	0	0	0	560	510	0	448	0	0	
6	0	0	0	0	558	508	0	446	0	0	
7	0	0	0	0	555	505	0	445	0	0	
8	0	0	0	0	552	502	0	443	0	0	
9	0	0	0	0	551	499	0	441	0	0	
10	0	0	0	0	550	496	0	440	0	0	
11	0	0	0	0	550	495	0	438	0	0	
12	0	0	0	0	550	492	0	437	0	0	
13	0	0	0	0	549	490	0	436	0	0	
14	0	0	0	0	548	487	0	436	0	0	
15	0	0	0	0	547	486	0	436	0	0	
0	0	0	0	0	546	484	0	437	0	0	
1	0	0	0	0	544	483	0	438	0	0	
2	0	0	0	0	543	483	0	440	0	0	
3	0	0	0	0	542	483	0	441	0	0	
4	0	0	0	0	540	483	0	443	0	0	
5	0	0	0	0	539	483	0	444	0	0	
6	0	0	0	0	537	483	0	444	0	0	
7	0	0	0	0	534	482	0	444	0	0	
8	0	0	0	0	532	480	0	442	0	0	
9	0	0	0	0	528	478	0	440	0	0	
10	0	0	0	0	526	476	0	438	0	0	
11	0	0	0	0	525	475	0	436	0	0	
12	0	0	0	0	524	473	0	433	0	0	
13	0	0	0	0	524	471	0	432	0	0	
14	0	0	0	0	525	470	0	429	0	0	
15	0	0	0	0	526	469	0	428	0	0	
0	0	0	0	0	528	469	0	427	0	0	
1	0	0	0	0	531	470	0	426	0	0	
2	0	0	0	0	536	472	0	427	0	0	
3	0	0	0	0	541	476	0	428	0	0	
4	0	0	0	0	547	482	0	430	0	0	
5	0	0	0	0	554	489	0	433	0	0	
6	0	0	0	0	561	496	0	435	0	0	
7	0	0	0	0	567	502	0	437	0	0	
8	0	0	0	0	572	508	0	438	0	0	
9	0	0	0	0	575	511	0	438	0	0	
10	0	0	0	0	576	512	0	436	0	0	
11	0	0	0	0	573	510	0	432	0	0	
12	0	0	0	0	566	504	0	427	0	0	
13	0	0	0	0	554	493	0	418	0	0	
14	0	0	0	0	539	478	0	407	0	0	
15	0	0	0	0	519	460	0	394	0	0	
0	0	0	0	0	497	439	0	380	0	0	
1	0	0	0	0	473	416	0	364	0	0	
2	0	0	0	0	448	392	0	347	0	0	
3	0	0	0	0	423	368	0	328	0	0	
4	0	0	0	0	398	344	0	310	0	0	
5	0	0	0	0	375	322	0	291	0	0	
6	0	0	0	0	354	301	0	272	0	0	
7	0	0	0	0	335	283	0	255	0	0	
8	0	0	0	0	320	268	0	238	0	0	
9	0	0	0	0	307	255	0	224	0	0	
10	0	0	0	0	298	247	0	212	0	0	
11	0	0	0	0	293	241	0	203	0	0	
12	0	0	0	0	291	239	0	197	0	0	
13	0	0	0	0	294	240	0	194	0	0	
14	0	0	0	0	300	245	0	195	0	0	
15	0	0	0	0	309	252	0	199	0	0	
0	0	0	0	0	320	260	0	206	0	0	
1	0	0	0	0	334	271	0	216	0	0	
2	0	0	0	0	349	283	0	228	0	0	
3	0	0	0	0	366	296	0	243	0	0	
4	0	0	0	0	384	311	0	261	0	0	
5	0	0	0	0	404	327	0	279	0	0	
6	0	0	0	0	425	343	0	299	0	0	
7	0	0	0	0	447	361	0	319	0	0	
8	0	0	0	0	468	381	0	341	0	0	
9	0	0	0	0	490	400	0	361	0	0	
10	0	0	0	0	511	420	0	381	0	0	
11	0	0	0	0	531	440	0	400	0	0	
12	0	0	0	0	550	459	0	418	0	0	
13	0	0	0	0	567	477	0	434	0	0	
14	0	0	0	0	581	494	0	448	0	0	
15	0	0	0	0	593	508	0	459	0	0	
0	0	0	0	0	601	520	0	468	0	0	
1	0	0	0	0	607	530	0	474	0	0	
2	0	0	0	0	609	536	0	478	0	0	
3	0	0	0	0	608	540	0	479	0	0	
4	0	0	0	0	605	540	0	477	0	0	
5	0	0	0	0	598	538	0	473	0	0	
6	0	0	0	0	591	534	0	467	0	0	
7	0	0	0	0	582	527	0	462	0	0	
8	0	0	0	0	573	520	0	455	0	0	
9	0	0	0	0	565	513	0	448	0	0	
10	0	0	0	0	558	505	0	442	0	0	
11	0	0	0	0	553	499	0	438	0	0	
12	0	0	0	0	549	494	0	435	0	0	
13	0	0	0	0	546	489	0	433	0	0	
14	0	0	0	0	545	486	0	433	0	0	
15	0	0	0	0	545	485	0	435	0	0	
0	0	0	0	0	547	486	0	438	0	0	
1	0	0	0	0	550	487	0	443	0	0	
2	0	0	0	0	553	490	0	448	0	0	
3	0	0	0	0	557	493	0	452	0	0	
4	0	0	0	0	559	496	0	456	0	0	
5	0	0	0	0	561	498	0	460	0	0	
6	0	0	0	0	561	499	0	463	0	0	
7	0	0	0	0	559	497	0	463	0	0	
8	0	0	0	0	555	494	0	463	0	0	
9	0	0	0	0	549	490	0	461	0	0	
10	0	0	0	0	543	485	0	458	0	0	
11	0	0	0	0	537	480	0	455	0	0	
12	0	0	0	0	532	475	0	451	0	0	
13	0	0	0	0	528	470	0	447	0	0	
14	0	0	0	0	524	467	0	443	0	0	
15	0	0	0	0	524	465	0	440	0	0	
0	0	0	0	0	524	464	0	438	0	0	
1	0	0	0	0	526	465	0	437	0	0	
2	0	0	0	0	530	467	0	437	0	0	
3	0	0	0	0	535	471	0	438	0	0	
4	0	0	0	0	541	476	0	440	0	0	
5	0	0	0	0	548	482	0	444	0	0	
6	0	0	0	0	556	489	0	449	0	0	
7	0	0	0	0	563	496	0	453	0	0	
8	0	0	0	0	569	502	0	457	0	0	
9	0	0	0	0	575	508	0	462	0	0	
10	0	0	0	0	577	512	0	465	0	0	
11	0	0	0	0	579	515	0	468	0	0	
12	0	0	0	0	579	516	0	469	0	0	
13	0	0	0	0	578	517	0	470	0	0	
14	0	0	0	0	577	516	0	470	0	0	
15	0	0	0	0	575	516	0	468	0	0	
0	0	0	0	0	573	514	0	466	0	0	
1	0	0	0	0	571	512	0	463	0	0	
2	0	0	0	0	569	511	0	460	0	0	
3	0	0	0	0	568	510	0	456	0	0	
4	0	0	0	0	568	509	0	453	0	0	
5	0	0	0	0	568	509	0	450	0	0	
6	0	0	0	0	568	508	0	447	0	0	
7	0	0	0	0	568	508	0	445	0	0	
8	0	0	0	0	569	508	0	443	0	0	
9	0	0	0	0	569	508	0	442	0	0	
10	0	0	0	0	569	508	0	442	0	0	
11	0	0	0	0	569	507	0	441	0	0	
12	0	0	0	0	568	506	0	442	0	0	
13	0	0	0	0	568	505	0	442	0	0	
14	0	0	0	0	567	505	0	444	0	0	
15	0	0	0	0	567	504	0	445	0	0	
0	0	0	0	0	567	505	0	448	0	0	
1	0	0	0	0	567	505	0	450	0	0	
2	0	0	0	0	568	506	0	452	0	0	
3	0	0	0	0	569	507	0	455	0	0	
4	0	0	0	0	569	507	0	456	0	0	
5	0	0	0	0	569	505	0	456	0	0	
6	0	0	0	0	567	504	0	455	0	0	
7	0	0	0	0	565	501	0	454	0	0	
8	0	0	0	0	561	498	0	452	0	0	
9	0	0	0	0	558	494	0	449	0	0	
10	0	0	0	0	554	490	0	447	0	0	
11	0	0	0	0	550	487	0	445	0	0	
12	0	0	0	0	547	484	0	444	0	0	
13	0	0	0	0	544	482	0	444	0	0	
14	0	0	0	0	542	481	0	444	0	0	
15	0	0	0	0	541	481	0	445	0	0	
0	0	0	0	0	542	483	0	446	0	0	
1	0	0	0	0	544	487	0	449	0	0	
2	0	0	0	0	548	492	0	452	0	0	
3	0	0	0	0	555	498	0	455	0	0	
4	0	0	0	0	561	504	0	458	0	0	
5	0	0	0	0	568	511	0	460	0	0	
6	0	0	0	0	575	517	0	461	0	0	
7	0	0	0	0	580	520	0	460	0	0	
8	0	0	0	0	583	521	0	459	0	0	
9	0	0	0	0	582	520	0	455	0	0	
10	0	0	0	0	577	515	0	449	0	0	
11	0	0	0	0	571	508	0	443	0	0	
12	0	0	0	0	562	500	0	436	0	0	
13	0	0	0	0	552	490	0	429	0	0	
14	0	0	0	0	541	481	0	422	0	0	
15	0	0	0	0	531	473	0	416	0	0	
0	0	0	0	0	523	466	0	412	0	0	
1	0	0	0	0	516	461	0	409	0	0	
2	0	0	0	0	513	460	0	409	0	0	
3	0	0	0	0	512	460	0	412	0	0	
4	0	0	0	0	515	463	0	415	0	0	
5	0	0	0	0	522	470	0	422	0	0	
6	0	0	0	0	530	477	0	428	0	0	
7	0	0	0	0	540	485	0	436	0	0	
8	0	0	0	0	551	494	0	444	0	0	
9	0	0	0	0	561	502	0	451	0	0	
10	0	0	0	0	572	508	0	457	0	0	
11	0	0	0	0	579	514	0	462	0	0	
12	0	0	0	0	585	517	0	465	0	0	
13	0	0	0	0	589	518	0	467	0	0	
14	0	0	0	0	589	517	0	468	0	0	
15	0	0	0	0	588	515	0	467	0	0	
0	0	0	0	0	583	510	0	466	0	0	
1	0	0	0	0	577	505	0	464	0	0	
2	0	0	0	0	570	500	0	461	0	0	
3	0	0	0	0	563	495	0	459	0	0	
4	0	0	0	0	556	491	0	456	0	0	
5	0	0	0	0	550	487	0	454	0	0	
6	0	0	0	0	544	486	0	452	0	0	
7	0	0	0	0	541	485	0	451	0	0	
8	0	0	0	0	539	485	0	451	0	0	
9	0	0	0	0	538	486	0	450	0	0	
