# OpenSignals Text File Format. Version 1
# {"": {"position": 0, "device": "", "device name": "", "device connection": "", "sampling rate": 1000, "resolution": [4, 1, 1, 1, 1, 10, 10, 10, 10, 6, 6], "firmware version": 1281, "comments": "", "keywords": "", "mode": 0, "sync interval": 2, "date": "", "time": "", "channels": [1, 2, 3, 4, 5, 6], "sensor": ["RAW", "RAW", "RAW", "RAW", "RAW", "RAW"], "label": ["A1", "A2", "A3", "A4", "A5", "A6"], "column": ["nSeq", "I1", "I2", "O1", "O2", "A1", "A2", "A3", "A4", "A5", "A6"], "special": [{}, {}, {}, {}, {}, {}], "digital IO": [0, 0, 1, 1], "convertedValues": 0}}
# EndOfHeader
0	0	0	0	0	525	492	1021	0	0	0	
1	0	0	0	0	537	476	1021	0	0	0	
2	0	0	0	0	546	457	1021	0	0	0	
3	0	0	0	0	553	439	1021	0	0	0	
4	0	0	0	0	556	422	1020	0	0	0	
5	0	0	0	0	555	408	1021	0	0	0	
6	0	0	0	0	550	399	1021	0	0	0	
7	0	0	0	0	542	395	1021	0	0	0	
8	0	0	0	0	533	398	1021	0	0	0	
9	0	0	0	0	521	406	1021	0	0	0	
10	0	0	0	0	511	419	1020	0	0	0	
11	0	0	0	0	502	438	1021	0	0	0	
12	0	0	0	0	495	458	1021	0	0	0	
13	0	0	0	0	491	479	1021	0	0	0	
14	0	0	0	0	491	499	1020	0	0	0	
15	0	0	0	0	496	515	1021	0	0	0	
0	0	0	0	0	503	527	1021	0	0	0	
1	0	0	0	0	513	531	1021	0	0	0	
2	0	0	0	0	525	530	1021	0	0	0	
3	0	0	0	0	536	523	1020	0	0	0	
4	0	0	0	0	547	510	1020	0	0	0	
5	0	0	0	0	556	492	1021	0	0	0	
6	0	0	0	0	563	473	1021	0	0	0	
7	0	0	0	0	566	452	1021	0	0	0	
8	0	0	0	0	565	433	1021	0	0	0	
9	0	0	0	0	560	418	1020	0	0	0	
10	0	0	0	0	553	408	1021	0	0	0	
11	0	0	0	0	544	404	1021	0	0	0	
12	0	0	0	0	534	407	1021	0	0	0	
13	0	0	0	0	523	415	1021	0	0	0	
14	0	0	0	0	513	430	1020	0	0	0	
15	0	0	0	0	505	449	1021	0	0	0	
0	0	0	0	0	500	469	1021	0	0	0	
1	0	0	0	0	497	490	1021	0	0	0	
2	0	0	0	0	498	508	1020	0	0	0	
3	0	0	0	0	502	523	1020	0	0	0	
4	0	0	0	0	508	532	1021	0	0	0	
5	0	0	0	0	516	535	1020	0	0	0	
6	0	0	0	0	527	531	1021	0	0	0	
7	0	0	0	0	536	522	1020	0	0	0	
8	0	0	0	0	545	507	1020	0	0	0	
9	0	0	0	0	552	488	1021	0	0	0	
10	0	0	0	0	558	467	1021	0	0	0	
11	0	0	0	0	559	446	1021	0	0	0	
12	0	0	0	0	557	425	1021	0	0	0	
13	0	0	0	0	552	409	1020	0	0	0	
14	0	0	0	0	544	399	1021	0	0	0	
15	0	0	0	0	534	393	1021	0	0	0	
0	0	0	0	0	523	394	1021	0	0	0	
1	0	0	0	0	511	401	1021	0	0	0	
2	0	0	0	0	500	415	1020	0	0	0	
3	0	0	0	0	492	432	1021	0	0	0	
4	0	0	0	0	486	452	1021	0	0	0	
5	0	0	0	0	483	472	1021	0	0	0	
6	0	0	0	0	484	491	1021	0	0	0	
7	0	0	0	0	489	506	1020	0	0	0	
8	0	0	0	0	497	517	1021	0	0	0	
9	0	0	0	0	507	521	1021	0	0	0	
10	0	0	0	0	518	519	1021	0	0	0	
11	0	0	0	0	528	511	1021	0	0	0	
12	0	0	0	0	538	498	1020	0	0	0	
13	0	0	0	0	546	481	1021	0	0	0	
14	0	0	0	0	551	460	1021	0	0	0	
15	0	0	0	0	552	440	1021	0	0	0	
0	0	0	0	0	550	421	1020	0	0	0	
1	0	0	0	0	544	404	1020	0	0	0	
2	0	0	0	0	536	393	1021	0	0	0	
3	0	0	0	0	526	388	1021	0	0	0	
4	0	0	0	0	515	390	1021	0	0	0	
5	0	0	0	0	504	397	1021	0	0	0	
6	0	0	0	0	494	409	1021	0	0	0	
7	0	0	0	0	486	427	1021	0	0	0	
8	0	0	0	0	481	447	1021	0	0	0	
9	0	0	0	0	480	467	1021	0	0	0	
10	0	0	0	0	482	487	1021	0	0	0	
11	0	0	0	0	488	502	1020	0	0	0	
12	0	0	0	0	497	513	1021	0	0	0	
13	0	0	0	0	508	517	1021	0	0	0	
14	0	0	0	0	520	515	1021	0	0	0	
15	0	0	0	0	532	508	1021	0	0	0	
0	0	0	0	0	543	495	1021	0	0	0	
1	0	0	0	0	552	478	1021	0	0	0	
2	0	0	0	0	558	458	1021	0	0	0	
3	0	0	0	0	560	438	1021	0	0	0	
4	0	0	0	0	557	419	1021	0	0	0	
5	0	0	0	0	552	403	1020	0	0	0	
6	0	0	0	0	543	394	1021	0	0	0	
7	0	0	0	0	532	390	1021	0	0	0	
8	0	0	0	0	520	392	1021	0	0	0	
9	0	0	0	0	509	401	1021	0	0	0	
10	0	0	0	0	498	416	1021	0	0	0	
11	0	0	0	0	490	435	1021	0	0	0	
12	0	0	0	0	485	457	1021	0	0	0	
13	0	0	0	0	484	479	1021	0	0	0	
14	0	0	0	0	486	499	1021	0	0	0	
15	0	0	0	0	491	514	1020	0	0	0	
0	0	0	0	0	499	524	1021	0	0	0	
1	0	0	0	0	508	527	1020	0	0	0	
2	0	0	0	0	519	524	1021	0	0	0	
3	0	0	0	0	530	514	1020	0	0	0	
4	0	0	0	0	539	497	1020	0	0	0	
5	0	0	0	0	547	478	1021	0	0	0	
6	0	0	0	0	551	455	1021	0	0	0	
7	0	0	0	0	552	433	1021	0	0	0	
8	0	0	0	0	550	413	1021	0	0	0	
9	0	0	0	0	546	397	1021	0	0	0	
10	0	0	0	0	539	387	1021	0	0	0	
11	0	0	0	0	529	383	1021	0	0	0	
12	0	0	0	0	519	387	1021	0	0	0	
13	0	0	0	0	510	396	1021	0	0	0	
14	0	0	0	0	500	411	1020	0	0	0	
15	0	0	0	0	492	429	1021	0	0	0	
0	0	0	0	0	486	449	1021	0	0	0	
1	0	0	0	0	483	470	1021	0	0	0	
2	0	0	0	0	482	487	1021	0	0	0	
3	0	0	0	0	484	500	1020	0	0	0	
4	0	0	0	0	489	508	1021	0	0	0	
5	0	0	0	0	496	510	1021	0	0	0	
6	0	0	0	0	503	504	1021	0	0	0	
7	0	0	0	0	511	494	1020	0	0	0	
8	0	0	0	0	519	478	1020	0	0	0	
9	0	0	0	0	525	459	1021	0	0	0	
10	0	0	0	0	530	438	1021	0	0	0	
11	0	0	0	0	532	416	1021	0	0	0	
12	0	0	0	0	531	397	1021	0	0	0	
13	0	0	0	0	527	382	1020	0	0	0	
14	0	0	0	0	521	372	1021	0	0	0	
15	0	0	0	0	513	368	1021	0	0	0	
0	0	0	0	0	504	371	1021	0	0	0	
1	0	0	0	0	496	379	1021	0	0	0	
2	0	0	0	0	487	393	1021	0	0	0	
3	0	0	0	0	481	412	1021	0	0	0	
4	0	0	0	0	477	434	1021	0	0	0	
5	0	0	0	0	476	455	1021	0	0	0	
6	0	0	0	0	478	475	1021	0	0	0	
7	0	0	0	0	482	491	1020	0	0	0	
8	0	0	0	0	489	502	1021	0	0	0	
9	0	0	0	0	499	506	1021	0	0	0	
10	0	0	0	0	509	504	1021	0	0	0	
11	0	0	0	0	519	497	1020	0	0	0	
12	0	0	0	0	529	484	1020	0	0	0	
13	0	0	0	0	537	467	1021	0	0	0	
14	0	0	0	0	543	448	1021	0	0	0	
15	0	0	0	0	545	428	1021	0	0	0	
0	0	0	0	0	544	409	1021	0	0	0	
1	0	0	0	0	539	394	1021	0	0	0	
2	0	0	0	0	532	384	1021	0	0	0	
3	0	0	0	0	522	379	1021	0	0	0	
4	0	0	0	0	511	380	1021	0	0	0	
5	0	0	0	0	500	388	1021	0	0	0	
6	0	0	0	0	489	400	1020	0	0	0	
7	0	0	0	0	481	417	1021	0	0	0	
8	0	0	0	0	476	437	1021	0	0	0	
9	0	0	0	0	473	456	1021	0	0	0	
10	0	0	0	0	474	474	1021	0	0	0	
11	0	0	0	0	479	489	1020	0	0	0	
12	0	0	0	0	486	499	1021	0	0	0	
13	0	0	0	0	495	502	1021	0	0	0	
14	0	0	0	0	505	499	1021	0	0	0	
15	0	0	0	0	515	491	1020	0	0	0	
0	0	0	0	0	524	476	1020	0	0	0	
1	0	0	0	0	531	458	1021	0	0	0	
2	0	0	0	0	536	438	1021	0	0	0	
3	0	0	0	0	538	417	1021	0	0	0	
4	0	0	0	0	536	397	1020	0	0	0	
5	0	0	0	0	531	382	1020	0	0	0	
6	0	0	0	0	523	371	1021	0	0	0	
7	0	0	0	0	513	368	1021	0	0	0	
8	0	0	0	0	502	369	1021	0	0	0	
9	0	0	0	0	491	378	1021	0	0	0	
10	0	0	0	0	481	391	1020	0	0	0	
11	0	0	0	0	473	410	1021	0	0	0	
12	0	0	0	0	468	431	1021	0	0	0	
13	0	0	0	0	466	452	1021	0	0	0	
14	0	0	0	0	469	472	1021	0	0	0	
15	0	0	0	0	475	489	1021	0	0	0	
0	0	0	0	0	485	502	1021	0	0	0	
1	0	0	0	0	496	508	1021	0	0	0	
2	0	0	0	0	510	507	1021	0	0	0	
3	0	0	0	0	522	501	1020	0	0	0	
4	0	0	0	0	534	489	1020	0	0	0	
5	0	0	0	0	543	472	1021	0	0	0	
6	0	0	0	0	549	453	1021	0	0	0	
7	0	0	0	0	551	432	1021	0	0	0	
8	0	0	0	0	550	413	1020	0	0	0	
9	0	0	0	0	544	396	1020	0	0	0	
10	0	0	0	0	535	385	1021	0	0	0	
11	0	0	0	0	524	380	1021	0	0	0	
12	0	0	0	0	511	380	1021	0	0	0	
13	0	0	0	0	499	386	1021	0	0	0	
14	0	0	0	0	487	398	1020	0	0	0	
15	0	0	0	0	478	415	1021	0	0	0	
0	0	0	0	0	472	434	1021	0	0	0	
1	0	0	0	0	470	454	1021	0	0	0	
2	0	0	0	0	471	473	1020	0	0	0	
3	0	0	0	0	475	488	1020	0	0	0	
4	0	0	0	0	483	499	1021	0	0	0	
5	0	0	0	0	494	503	1021	0	0	0	
6	0	0	0	0	505	500	1021	0	0	0	
7	0	0	0	0	516	493	1020	0	0	0	
8	0	0	0	0	526	479	1021	0	0	0	
9	0	0	0	0	535	462	1021	0	0	0	
10	0	0	0	0	540	441	1021	0	0	0	
11	0	0	0	0	543	420	1021	0	0	0	
12	0	0	0	0	542	401	1021	0	0	0	
13	0	0	0	0	537	385	1021	0	0	0	
14	0	0	0	0	530	375	1020	0	0	0	
15	0	0	0	0	520	370	1021	0	0	0	
0	0	0	0	0	511	372	1021	0	0	0	
1	0	0	0	0	500	382	1021	0	0	0	
2	0	0	0	0	492	396	1021	0	0	0	
3	0	0	0	0	484	415	1021	0	0	0	
4	0	0	0	0	480	436	1020	0	0	0	
5	0	0	0	0	479	458	1021	0	0	0	
6	0	0	0	0	481	478	1020	0	0	0	
7	0	0	0	0	486	494	1020	0	0	0	
8	0	0	0	0	494	504	1021	0	0	0	
9	0	0	0	0	504	510	1021	0	0	0	
10	0	0	0	0	514	508	1021	0	0	0	
11	0	0	0	0	524	499	1021	0	0	0	
12	0	0	0	0	534	487	1020	0	0	0	
13	0	0	0	0	541	470	1021	0	0	0	
14	0	0	0	0	545	449	1021	0	0	0	
15	0	0	0	0	547	428	1021	0	0	0	
0	0	0	0	0	544	409	1020	0	0	0	
1	0	0	0	0	539	393	1020	0	0	0	
2	0	0	0	0	530	383	1021	0	0	0	
3	0	0	0	0	520	378	1021	0	0	0	
4	0	0	0	0	509	380	1021	0	0	0	
5	0	0	0	0	498	388	1021	0	0	0	
6	0	0	0	0	489	402	1021	0	0	0	
7	0	0	0	0	481	420	1020	0	0	0	
8	0	0	0	0	477	442	1021	0	0	0	
9	0	0	0	0	477	464	1021	0	0	0	
10	0	0	0	0	480	484	1020	0	0	0	
11	0	0	0	0	487	501	1021	0	0	0	
12	0	0	0	0	497	513	1021	0	0	0	
13	0	0	0	0	508	518	1021	0	0	0	
14	0	0	0	0	520	516	1021	0	0	0	
15	0	0	0	0	532	509	1020	0	0	0	
0	0	0	0	0	543	496	1021	0	0	0	
1	0	0	0	0	552	479	1021	0	0	0	
2	0	0	0	0	558	458	1021	0	0	0	
3	0	0	0	0	559	438	1021	0	0	0	
4	0	0	0	0	557	419	1020	0	0	0	
5	0	0	0	0	551	402	1021	0	0	0	
6	0	0	0	0	543	392	1020	0	0	0	
7	0	0	0	0	532	387	1021	0	0	0	
8	0	0	0	0	519	388	1021	0	0	0	
9	0	0	0	0	508	396	1020	0	0	0	
10	0	0	0	0	496	409	1021	0	0	0	
11	0	0	0	0	487	427	1021	0	0	0	
12	0	0	0	0	481	447	1021	0	0	0	
13	0	0	0	0	480	468	1021	0	0	0	
14	0	0	0	0	481	488	1020	0	0	0	
15	0	0	0	0	488	505	1021	0	0	0	
0	0	0	0	0	497	516	1021	0	0	0	
1	0	0	0	0	509	521	1021	0	0	0	
2	0	0	0	0	521	520	1021	0	0	0	
3	0	0	0	0	534	514	1020	0	0	0	
4	0	0	0	0	544	500	1021	0	0	0	
5	0	0	0	0	553	483	1021	0	0	0	
6	0	0	0	0	558	463	1021	0	0	0	
7	0	0	0	0	560	441	1021	0	0	0	
8	0	0	0	0	557	422	1020	0	0	0	
9	0	0	0	0	550	404	1021	0	0	0	
10	0	0	0	0	541	393	1021	0	0	0	
11	0	0	0	0	529	387	1021	0	0	0	
12	0	0	0	0	517	387	1021	0	0	0	
13	0	0	0	0	504	394	1020	0	0	0	
14	0	0	0	0	492	406	1021	0	0	0	
15	0	0	0	0	483	423	1020	0	0	0	
0	0	0	0	0	476	442	1021	0	0	0	
1	0	0	0	0	473	462	1021	0	0	0	
2	0	0	0	0	474	481	1020	0	0	0	
3	0	0	0	0	479	496	1020	0	0	0	
4	0	0	0	0	487	505	1021	0	0	0	
5	0	0	0	0	496	510	1021	0	0	0	
6	0	0	0	0	507	508	1021	0	0	0	
7	0	0	0	0	518	499	1020	0	0	0	
8	0	0	0	0	528	485	1020	0	0	0	
9	0	0	0	0	536	467	1021	0	0	0	
10	0	0	0	0	542	447	1021	0	0	0	
11	0	0	0	0	544	425	1021	0	0	0	
12	0	0	0	0	542	406	1021	0	0	0	
13	0	0	0	0	537	390	1021	0	0	0	
14	0	0	0	0	529	379	1021	0	0	0	
15	0	0	0	0	520	374	1021	0	0	0	
0	0	0	0	0	509	375	1021	0	0	0	
1	0	0	0	0	497	382	1021	0	0	0	
2	0	0	0	0	487	396	1020	0	0	0	
3	0	0	0	0	479	414	1021	0	0	0	
4	0	0	0	0	473	434	1021	0	0	0	
5	0	0	0	0	471	455	1021	0	0	0	
6	0	0	0	0	472	475	1021	0	0	0	
7	0	0	0	0	478	491	1020	0	0	0	
8	0	0	0	0	486	503	1021	0	0	0	
9	0	0	0	0	497	508	1021	0	0	0	
10	0	0	0	0	509	507	1021	0	0	0	
11	0	0	0	0	520	500	1021	0	0	0	
12	0	0	0	0	531	488	1021	0	0	0	
13	0	0	0	0	541	472	1021	0	0	0	
14	0	0	0	0	547	452	1021	0	0	0	
15	0	0	0	0	550	432	1021	0	0	0	
0	0	0	0	0	548	412	1021	0	0	0	
1	0	0	0	0	544	396	1020	0	0	0	
2	0	0	0	0	536	386	1021	0	0	0	
3	0	0	0	0	526	381	1021	0	0	0	
4	0	0	0	0	515	383	1021	0	0	0	
5	0	0	0	0	503	390	1021	0	0	0	
6	0	0	0	0	492	403	1020	0	0	0	
7	0	0	0	0	483	421	1021	0	0	0	
8	0	0	0	0	478	442	1021	0	0	0	
9	0	0	0	0	476	464	1021	0	0	0	
10	0	0	0	0	479	484	1021	0	0	0	
11	0	0	0	0	485	502	1020	0	0	0	
12	0	0	0	0	495	515	1021	0	0	0	
13	0	0	0	0	508	523	1021	0	0	0	
14	0	0	0	0	521	523	1021	0	0	0	
15	0	0	0	0	535	518	1021	0	0	0	
0	0	0	0	0	548	507	1021	0	0	0	
1	0	0	0	0	559	492	1021	0	0	0	
2	0	0	0	0	565	472	1021	0	0	0	
3	0	0	0	0	568	451	1021	0	0	0	
4	0	0	0	0	565	431	1021	0	0	0	
5	0	0	0	0	558	414	1020	0	0	0	
6	0	0	0	0	547	401	1021	0	0	0	
7	0	0	0	0	534	392	1021	0	0	0	
8	0	0	0	0	519	390	1021	0	0	0	
9	0	0	0	0	503	393	1021	0	0	0	
10	0	0	0	0	488	403	1021	0	0	0	
11	0	0	0	0	476	417	1021	0	0	0	
12	0	0	0	0	467	435	1021	0	0	0	
13	0	0	0	0	462	453	1021	0	0	0	
14	0	0	0	0	461	471	1020	0	0	0	
15	0	0	0	0	465	487	1021	0	0	0	
0	0	0	0	0	472	497	1021	0	0	0	
1	0	0	0	0	483	503	1021	0	0	0	
2	0	0	0	0	495	502	1021	0	0	0	
3	0	0	0	0	507	495	1021	0	0	0	
4	0	0	0	0	519	483	1020	0	0	0	
5	0	0	0	0	529	468	1021	0	0	0	
6	0	0	0	0	537	449	1021	0	0	0	
7	0	0	0	0	542	431	1021	0	0	0	
8	0	0	0	0	541	412	1021	0	0	0	
9	0	0	0	0	537	396	1021	0	0	0	
10	0	0	0	0	530	386	1021	0	0	0	
11	0	0	0	0	521	380	1021	0	0	0	
12	0	0	0	0	509	381	1021	0	0	0	
13	0	0	0	0	497	387	1021	0	0	0	
14	0	0	0	0	486	399	1021	0	0	0	
15	0	0	0	0	476	416	1021	0	0	0	
0	0	0	0	0	470	435	1021	0	0	0	
1	0	0	0	0	466	455	1021	0	0	0	
2	0	0	0	0	467	474	1021	0	0	0	
3	0	0	0	0	471	490	1020	0	0	0	
4	0	0	0	0	479	501	1021	0	0	0	
5	0	0	0	0	488	506	1021	0	0	0	
6	0	0	0	0	499	504	1021	0	0	0	
7	0	0	0	0	510	497	1021	0	0	0	
8	0	0	0	0	520	484	1021	0	0	0	
9	0	0	0	0	528	468	1021	0	0	0	
10	0	0	0	0	534	448	1021	0	0	0	
11	0	0	0	0	537	427	1021	0	0	0	
12	0	0	0	0	535	408	1021	0	0	0	
13	0	0	0	0	531	391	1021	0	0	0	
14	0	0	0	0	523	380	1021	0	0	0	
15	0	0	0	0	513	376	1021	0	0	0	
0	0	0	0	0	503	377	1021	0	0	0	
1	0	0	0	0	491	385	1021	0	0	0	
2	0	0	0	0	480	399	1020	0	0	0	
3	0	0	0	0	472	417	1021	0	0	0	
4	0	0	0	0	467	438	1021	0	0	0	
5	0	0	0	0	465	460	1021	0	0	0	
6	0	0	0	0	467	481	1020	0	0	0	
7	0	0	0	0	473	499	1020	0	0	0	
8	0	0	0	0	482	511	1021	0	0	0	
9	0	0	0	0	494	518	1021	0	0	0	
10	0	0	0	0	507	519	1021	0	0	0	
11	0	0	0	0	519	512	1021	0	0	0	
12	0	0	0	0	531	500	1020	0	0	0	
13	0	0	0	0	540	483	1021	0	0	0	
14	0	0	0	0	547	463	1021	0	0	0	
15	0	0	0	0	550	443	1021	0	0	0	
0	0	0	0	0	549	423	1020	0	0	0	
1	0	0	0	0	544	406	1020	0	0	0	
2	0	0	0	0	537	394	1021	0	0	0	
3	0	0	0	0	527	389	1021	0	0	0	
4	0	0	0	0	516	389	1021	0	0	0	
5	0	0	0	0	505	396	1021	0	0	0	
6	0	0	0	0	495	409	1021	0	0	0	
7	0	0	0	0	487	427	1021	0	0	0	
8	0	0	0	0	481	447	1021	0	0	0	
9	0	0	0	0	478	467	1021	0	0	0	
10	0	0	0	0	479	487	1021	0	0	0	
11	0	0	0	0	483	503	1020	0	0	0	
12	0	0	0	0	491	514	1021	0	0	0	
13	0	0	0	0	501	519	1021	0	0	0	
14	0	0	0	0	513	519	1021	0	0	0	
15	0	0	0	0	525	512	1021	0	0	0	
0	0	0	0	0	537	500	1021	0	0	0	
1	0	0	0	0	547	484	1021	0	0	0	
2	0	0	0	0	554	465	1021	0	0	0	
3	0	0	0	0	557	446	1021	0	0	0	
4	0	0	0	0	557	427	1020	0	0	0	
5	0	0	0	0	553	411	1020	0	0	0	
6	0	0	0	0	546	400	1021	0	0	0	
7	0	0	0	0	537	396	1021	0	0	0	
8	0	0	0	0	526	398	1021	0	0	0	
9	0	0	0	0	514	406	1021	0	0	0	
10	0	0	0	0	504	419	1021	0	0	0	
11	0	0	0	0	495	436	1021	0	0	0	
12	0	0	0	0	488	456	1021	0	0	0	
13	0	0	0	0	484	476	1021	0	0	0	
14	0	0	0	0	485	496	1021	0	0	0	
15	0	0	0	0	488	511	1021	0	0	0	
0	0	0	0	0	496	522	1020	0	0	0	
1	0	0	0	0	505	527	1021	0	0	0	
2	0	0	0	0	517	525	1021	0	0	0	
3	0	0	0	0	528	518	1020	0	0	0	
4	0	0	0	0	539	505	1021	0	0	0	
5	0	0	0	0	548	488	1021	0	0	0	
6	0	0	0	0	554	468	1021	0	0	0	
7	0	0	0	0	556	447	1021	0	0	0	
8	0	0	0	0	554	427	1020	0	0	0	
9	0	0	0	0	549	410	1021	0	0	0	
10	0	0	0	0	540	398	1021	0	0	0	
11	0	0	0	0	530	392	1021	0	0	0	
12	0	0	0	0	518	392	1021	0	0	0	
13	0	0	0	0	505	398	1020	0	0	0	
14	0	0	0	0	493	409	1021	0	0	0	
15	0	0	0	0	483	425	1020	0	0	0	
0	0	0	0	0	476	444	1021	0	0	0	
1	0	0	0	0	472	464	1021	0	0	0	
2	0	0	0	0	472	482	1020	0	0	0	
3	0	0	0	0	476	497	1021	0	0	0	
4	0	0	0	0	483	508	1021	0	0	0	
5	0	0	0	0	493	513	1021	0	0	0	
6	0	0	0	0	505	512	1021	0	0	0	
7	0	0	0	0	517	505	1021	0	0	0	
8	0	0	0	0	528	493	1021	0	0	0	
9	0	0	0	0	539	477	1021	0	0	0	
10	0	0	0	0	547	458	1021	0	0	0	
11	0	0	0	0	551	439	1021	0	0	0	
12	0	0	0	0	551	421	1021	0	0	0	
13	0	0	0	0	547	406	1021	0	0	0	
14	0	0	0	0	539	396	1021	0	0	0	
15	0	0	0	0	529	391	1021	0	0	0	
0	0	0	0	0	518	393	1021	0	0	0	
1	0	0	0	0	505	400	1020	0	0	0	
2	0	0	0	0	494	412	1021	0	0	0	
3	0	0	0	0	484	429	1021	0	0	0	
4	0	0	0	0	478	448	1021	0	0	0	
5	0	0	0	0	474	467	1021	0	0	0	
6	0	0	0	0	475	486	1021	0	0	0	
7	0	0	0	0	479	500	1021	0	0	0	
8	0	0	0	0	487	511	1020	0	0	0	
9	0	0	0	0	497	515	1021	0	0	0	
10	0	0	0	0	508	513	1021	0	0	0	
11	0	0	0	0	519	506	1021	0	0	0	
12	0	0	0	0	531	493	1021	0	0	0	
13	0	0	0	0	540	476	1021	0	0	0	
14	0	0	0	0	546	456	1021	0	0	0	
15	0	0	0	0	548	436	1020	0	0	0	
0	0	0	0	0	548	417	1021	0	0	0	
1	0	0	0	0	543	401	1021	0	0	0	
2	0	0	0	0	535	390	1021	0	0	0	
3	0	0	0	0	524	385	1021	0	0	0	
4	0	0	0	0	512	386	1021	0	0	0	
5	0	0	0	0	500	393	1021	0	0	0	
6	0	0	0	0	488	406	1020	0	0	0	
7	0	0	0	0	479	423	1021	0	0	0	
8	0	0	0	0	472	443	1021	0	0	0	
9	0	0	0	0	470	463	1021	0	0	0	
10	0	0	0	0	470	482	1021	0	0	0	
11	0	0	0	0	475	497	1021	0	0	0	
12	0	0	0	0	483	508	1021	0	0	0	
13	0	0	0	0	494	513	1021	0	0	0	
14	0	0	0	0	505	511	1021	0	0	0	
15	0	0	0	0	517	504	1021	0	0	0	
0	0	0	0	0	528	491	1021	0	0	0	
1	0	0	0	0	538	474	1021	0	0	0	
2	0	0	0	0	545	455	1021	0	0	0	
3	0	0	0	0	548	434	1021	0	0	0	
4	0	0	0	0	547	415	1020	0	0	0	
5	0	0	0	0	543	400	1020	0	0	0	
6	0	0	0	0	536	389	1021	0	0	0	
7	0	0	0	0	527	385	1021	0	0	0	
8	0	0	0	0	516	386	1021	0	0	0	
9	0	0	0	0	505	393	1021	0	0	0	
10	0	0	0	0	495	407	1021	0	0	0	
11	0	0	0	0	486	424	1021	0	0	0	
12	0	0	0	0	480	444	1021	0	0	0	
13	0	0	0	0	477	466	1021	0	0	0	
14	0	0	0	0	478	485	1021	0	0	0	
15	0	0	0	0	483	502	1020	0	0	0	
0	0	0	0	0	492	514	1021	0	0	0	
1	0	0	0	0	503	519	1021	0	0	0	
2	0	0	0	0	515	519	1021	0	0	0	
3	0	0	0	0	527	512	1021	0	0	0	
4	0	0	0	0	539	500	1020	0	0	0	
5	0	0	0	0	548	485	1021	0	0	0	
6	0	0	0	0	555	465	1021	0	0	0	
7	0	0	0	0	558	445	1021	0	0	0	
8	0	0	0	0	557	426	1021	0	0	0	
9	0	0	0	0	552	410	1020	0	0	0	
10	0	0	0	0	544	400	1021	0	0	0	
11	0	0	0	0	534	394	1020	0	0	0	
12	0	0	0	0	524	396	1021	0	0	0	
13	0	0	0	0	512	404	1020	0	0	0	
14	0	0	0	0	501	417	1021	0	0	0	
15	0	0	0	0	493	435	1021	0	0	0	
0	0	0	0	0	487	455	1021	0	0	0	
1	0	0	0	0	485	476	1021	0	0	0	
2	0	0	0	0	486	495	1020	0	0	0	
3	0	0	0	0	492	511	1020	0	0	0	
4	0	0	0	0	500	522	1021	0	0	0	
5	0	0	0	0	511	527	1021	0	0	0	
6	0	0	0	0	523	525	1021	0	0	0	
7	0	0	0	0	534	518	1021	0	0	0	
8	0	0	0	0	545	505	1020	0	0	0	
9	0	0	0	0	554	488	1021	0	0	0	
10	0	0	0	0	560	469	1021	0	0	0	
11	0	0	0	0	563	449	1021	0	0	0	
12	0	0	0	0	561	428	1021	0	0	0	
13	0	0	0	0	556	412	1020	0	0	0	
14	0	0	0	0	547	400	1021	0	0	0	
15	0	0	0	0	536	393	1021	0	0	0	
0	0	0	0	0	524	394	1021	0	0	0	
1	0	0	0	0	510	399	1021	0	0	0	
2	0	0	0	0	499	412	1020	0	0	0	
3	0	0	0	0	488	428	1021	0	0	0	
4	0	0	0	0	481	448	1021	0	0	0	
5	0	0	0	0	478	468	1021	0	0	0	
6	0	0	0	0	479	488	1021	0	0	0	
7	0	0	0	0	484	505	1021	0	0	0	
8	0	0	0	0	492	517	1020	0	0	0	
9	0	0	0	0	504	523	1021	0	0	0	
10	0	0	0	0	517	522	1021	0	0	0	
11	0	0	0	0	531	516	1021	0	0	0	
12	0	0	0	0	543	505	1021	0	0	0	
13	0	0	0	0	555	489	1021	0	0	0	
14	0	0	0	0	563	471	1021	0	0	0	
15	0	0	0	0	568	451	1021	0	0	0	
0	0	0	0	0	567	432	1021	0	0	0	
1	0	0	0	0	563	415	1020	0	0	0	
2	0	0	0	0	554	404	1021	0	0	0	
3	0	0	0	0	542	398	1021	0	0	0	
4	0	0	0	0	529	397	1021	0	0	0	
5	0	0	0	0	515	403	1021	0	0	0	
6	0	0	0	0	502	414	1020	0	0	0	
7	0	0	0	0	491	430	1021	0	0	0	
8	0	0	0	0	483	449	1021	0	0	0	
9	0	0	0	0	478	468	1021	0	0	0	
10	0	0	0	0	478	487	1020	0	0	0	
11	0	0	0	0	483	503	1021	0	0	0	
12	0	0	0	0	491	515	1021	0	0	0	
13	0	0	0	0	502	520	1021	0	0	0	
14	0	0	0	0	514	519	1021	0	0	0	
15	0	0	0	0	527	512	1021	0	0	0	
0	0	0	0	0	539	500	1021	0	0	0	
1	0	0	0	0	549	484	1021	0	0	0	
2	0	0	0	0	556	464	1021	0	0	0	
3	0	0	0	0	559	443	1021	0	0	0	
4	0	0	0	0	558	423	1021	0	0	0	
5	0	0	0	0	552	406	1020	0	0	0	
6	0	0	0	0	543	393	1021	0	0	0	
7	0	0	0	0	530	385	1021	0	0	0	
8	0	0	0	0	515	383	1021	0	0	0	
9	0	0	0	0	498	385	1021	0	0	0	
10	0	0	0	0	480	391	1021	0	0	0	
11	0	0	0	0	463	403	1021	0	0	0	
12	0	0	0	0	448	415	1021	0	0	0	
13	0	0	0	0	435	428	1021	0	0	0	
14	0	0	0	0	426	439	1020	0	0	0	
15	0	0	0	0	420	446	1021	0	0	0	
0	0	0	0	0	418	448	1021	0	0	0	
1	0	0	0	0	419	444	1021	0	0	0	
2	0	0	0	0	420	434	1020	0	0	0	
3	0	0	0	0	423	416	1021	0	0	0	
4	0	0	0	0	425	395	1021	0	0	0	
5	0	0	0	0	425	369	1021	0	0	0	
6	0	0	0	0	423	339	1021	0	0	0	
7	0	0	0	0	417	309	1021	0	0	0	
8	0	0	0	0	407	279	1020	0	0	0	
9	0	0	0	0	393	252	1020	0	0	0	
10	0	0	0	0	375	229	1021	0	0	0	
11	0	0	0	0	354	213	1021	0	0	0	
12	0	0	0	0	333	202	1021	0	0	0	
13	0	0	0	0	311	200	1021	0	0	0	
14	0	0	0	0	292	205	1020	0	0	0	
15	0	0	0	0	277	217	1021	0	0	0	
0	0	0	0	0	267	236	1021	0	0	0	
1	0	0	0	0	263	257	1021	0	0	0	
2	0	0	0	0	266	281	1021	0	0	0	
3	0	0	0	0	278	306	1021	0	0	0	
4	0	0	0	0	296	327	1021	0	0	0	
5	0	0	0	0	321	347	1021	0	0	0	
6	0	0	0	0	351	362	1021	0	0	0	
7	0	0	0	0	383	373	1020	0	0	0	
8	0	0	0	0	417	379	1021	0	0	0	
9	0	0	0	0	450	381	1021	0	0	0	
10	0	0	0	0	481	380	1021	0	0	0	
11	0	0	0	0	508	378	1021	0	0	0	
12	0	0	0	0	528	376	1020	0	0	0	
13	0	0	0	0	543	376	1021	0	0	0	
14	0	0	0	0	552	378	1021	0	0	0	
15	0	0	0	0	555	385	1021	0	0	0	
0	0	0	0	0	552	396	1021	0	0	0	
1	0	0	0	0	545	411	1020	0	0	0	
2	0	0	0	0	536	428	1021	0	0	0	
3	0	0	0	0	526	449	1021	0	0	0	
4	0	0	0	0	516	471	1021	0	0	0	
5	0	0	0	0	508	493	1021	0	0	0	
6	0	0	0	0	504	513	1020	0	0	0	
7	0	0	0	0	504	528	1021	0	0	0	
8	0	0	0	0	507	539	1020	0	0	0	
9	0	0	0	0	513	543	1021	0	0	0	
10	0	0	0	0	522	540	1021	0	0	0	
11	0	0	0	0	533	532	1020	0	0	0	
12	0	0	0	0	543	519	1021	0	0	0	
13	0	0	0	0	554	501	1021	0	0	0	
14	0	0	0	0	562	481	1021	0	0	0	
15	0	0	0	0	567	460	1021	0	0	0	
0	0	0	0	0	568	440	1020	0	0	0	
1	0	0	0	0	565	422	1020	0	0	0	
2	0	0	0	0	558	409	1021	0	0	0	
3	0	0	0	0	550	403	1021	0	0	0	
4	0	0	0	0	539	403	1021	0	0	0	
5	0	0	0	0	527	411	1021	0	0	0	
6	0	0	0	0	518	425	1021	0	0	0	
7	0	0	0	0	511	445	1020	0	0	0	
8	0	0	0	0	507	467	1021	0	0	0	
9	0	0	0	0	506	492	1021	0	0	0	
10	0	0	0	0	509	515	1020	0	0	0	
11	0	0	0	0	515	534	1021	0	0	0	
12	0	0	0	0	525	548	1021	0	0	0	
13	0	0	0	0	536	555	1021	0	0	0	
14	0	0	0	0	548	556	1021	0	0	0	
15	0	0	0	0	560	549	1020	0	0	0	
0	0	0	0	0	571	537	1021	0	0	0	
1	0	0	0	0	579	519	1021	0	0	0	
2	0	0	0	0	585	499	1021	0	0	0	
3	0	0	0	0	586	477	1021	0	0	0	
4	0	0	0	0	584	456	1020	0	0	0	
5	0	0	0	0	578	438	1021	0	0	0	
6	0	0	0	0	568	425	1020	0	0	0	
7	0	0	0	0	556	417	1021	0	0	0	
8	0	0	0	0	543	416	1021	0	0	0	
9	0	0	0	0	529	422	1020	0	0	0	
10	0	0	0	0	518	433	1020	0	0	0	
11	0	0	0	0	507	449	1021	0	0	0	
12	0	0	0	0	500	468	1021	0	0	0	
13	0	0	0	0	498	489	1021	0	0	0	
14	0	0	0	0	499	509	1020	0	0	0	
15	0	0	0	0	504	526	1021	0	0	0	
0	0	0	0	0	513	539	1020	0	0	0	
1	0	0	0	0	526	544	1021	0	0	0	
2	0	0	0	0	539	545	1021	0	0	0	
3	0	0	0	0	553	540	1020	0	0	0	
4	0	0	0	0	566	528	1021	0	0	0	
5	0	0	0	0	576	512	1021	0	0	0	
6	0	0	0	0	585	494	1021	0	0	0	
7	0	0	0	0	589	474	1021	0	0	0	
8	0	0	0	0	589	455	1020	0	0	0	
9	0	0	0	0	585	440	1021	0	0	0	
10	0	0	0	0	577	429	1021	0	0	0	
11	0	0	0	0	568	423	1021	0	0	0	
12	0	0	0	0	556	424	1021	0	0	0	
13	0	0	0	0	543	432	1021	0	0	0	
14	0	0	0	0	531	444	1021	0	0	0	
15	0	0	0	0	522	462	1020	0	0	0	
0	0	0	0	0	515	482	1021	0	0	0	
1	0	0	0	0	512	503	1021	0	0	0	
2	0	0	0	0	513	523	1020	0	0	0	
3	0	0	0	0	518	540	1020	0	0	0	
4	0	0	0	0	526	551	1021	0	0	0	
5	0	0	0	0	537	557	1021	0	0	0	
6	0	0	0	0	549	556	1021	0	0	0	
7	0	0	0	0	561	549	1021	0	0	0	
8	0	0	0	0	572	536	1021	0	0	0	
9	0	0	0	0	581	519	1021	0	0	0	
10	0	0	0	0	587	498	1021	0	0	0	
11	0	0	0	0	589	477	1021	0	0	0	
12	0	0	0	0	587	457	1020	0	0	0	
13	0	0	0	0	581	440	1021	0	0	0	
14	0	0	0	0	572	428	1020	0	0	0	
15	0	0	0	0	560	421	1021	0	0	0	
0	0	0	0	0	547	421	1021	0	0	0	
1	0	0	0	0	533	427	1021	0	0	0	
2	0	0	0	0	520	439	1020	0	0	0	
3	0	0	0	0	509	455	1021	0	0	0	
4	0	0	0	0	502	475	1021	0	0	0	
5	0	0	0	0	498	495	1021	0	0	0	
6	0	0	0	0	497	514	1021	0	0	0	
7	0	0	0	0	502	530	1020	0	0	0	
8	0	0	0	0	510	541	1021	0	0	0	
9	0	0	0	0	520	546	1021	0	0	0	
10	0	0	0	0	532	544	1021	0	0	0	
11	0	0	0	0	544	536	1020	0	0	0	
12	0	0	0	0	556	524	1020	0	0	0	
13	0	0	0	0	566	506	1021	0	0	0	
14	0	0	0	0	573	486	1021	0	0	0	
15	0	0	0	0	577	464	1021	0	0	0	
0	0	0	0	0	576	444	1021	0	0	0	
1	0	0	0	0	572	428	1020	0	0	0	
2	0	0	0	0	564	416	1021	0	0	0	
3	0	0	0	0	555	411	1021	0	0	0	
4	0	0	0	0	543	412	1021	0	0	0	
5	0	0	0	0	532	419	1021	0	0	0	
6	0	0	0	0	521	433	1020	0	0	0	
7	0	0	0	0	512	451	1021	0	0	0	
8	0	0	0	0	505	472	1021	0	0	0	
9	0	0	0	0	503	494	1021	0	0	0	
10	0	0	0	0	503	513	1021	0	0	0	
11	0	0	0	0	508	530	1020	0	0	0	
12	0	0	0	0	516	542	1021	0	0	0	
13	0	0	0	0	527	547	1021	0	0	0	
14	0	0	0	0	538	547	1021	0	0	0	
15	0	0	0	0	550	539	1021	0	0	0	
0	0	0	0	0	561	526	1021	0	0	0	
1	0	0	0	0	570	509	1021	0	0	0	
2	0	0	0	0	576	488	1021	0	0	0	
3	0	0	0	0	579	467	1021	0	0	0	
4	0	0	0	0	577	447	1021	0	0	0	
5	0	0	0	0	572	430	1020	0	0	0	
6	0	0	0	0	563	418	1021	0	0	0	
7	0	0	0	0	553	412	1021	0	0	0	
8	0	0	0	0	541	412	1021	0	0	0	
9	0	0	0	0	528	419	1021	0	0	0	
10	0	0	0	0	516	432	1021	0	0	0	
11	0	0	0	0	508	449	1021	0	0	0	
12	0	0	0	0	501	469	1021	0	0	0	
13	0	0	0	0	499	490	1021	0	0	0	
14	0	0	0	0	499	510	1021	0	0	0	
15	0	0	0	0	505	527	1020	0	0	0	
0	0	0	0	0	512	538	1021	0	0	0	
1	0	0	0	0	523	544	1021	0	0	0	
2	0	0	0	0	535	543	1021	0	0	0	
3	0	0	0	0	547	535	1021	0	0	0	
4	0	0	0	0	558	522	1020	0	0	0	
5	0	0	0	0	566	504	1021	0	0	0	
6	0	0	0	0	572	484	1021	0	0	0	
7	0	0	0	0	575	462	1021	0	0	0	
8	0	0	0	0	573	442	1020	0	0	0	
9	0	0	0	0	568	426	1020	0	0	0	
10	0	0	0	0	560	414	1021	0	0	0	
11	0	0	0	0	551	409	1021	0	0	0	
12	0	0	0	0	540	409	1021	0	0	0	
13	0	0	0	0	527	417	1021	0	0	0	
14	0	0	0	0	517	430	1020	0	0	0	
15	0	0	0	0	508	448	1021	0	0	0	
0	0	0	0	0	502	468	1021	0	0	0	
1	0	0	0	0	498	490	1020	0	0	0	
2	0	0	0	0	498	509	1021	0	0	0	
3	0	0	0	0	503	525	1021	0	0	0	
4	0	0	0	0	510	536	1021	0	0	0	
5	0	0	0	0	519	541	1021	0	0	0	
6	0	0	0	0	529	539	1021	0	0	0	
7	0	0	0	0	540	531	1021	0	0	0	
8	0	0	0	0	549	518	1021	0	0	0	
9	0	0	0	0	558	500	1021	0	0	0	
10	0	0	0	0	563	480	1021	0	0	0	
11	0	0	0	0	566	459	1021	0	0	0	
12	0	0	0	0	564	438	1021	0	0	0	
13	0	0	0	0	560	422	1020	0	0	0	
14	0	0	0	0	551	410	1021	0	0	0	
15	0	0	0	0	542	405	1021	0	0	0	
0	0	0	0	0	531	406	1020	0	0	0	
1	0	0	0	0	519	412	1021	0	0	0	
2	0	0	0	0	509	425	1020	0	0	0	
3	0	0	0	0	500	442	1021	0	0	0	
4	0	0	0	0	495	463	1021	0	0	0	
5	0	0	0	0	492	483	1021	0	0	0	
6	0	0	0	0	494	504	1020	0	0	0	
7	0	0	0	0	499	520	1020	0	0	0	
8	0	0	0	0	507	531	1021	0	0	0	
9	0	0	0	0	517	537	1021	0	0	0	
10	0	0	0	0	529	537	1021	0	0	0	
11	0	0	0	0	540	530	1021	0	0	0	
12	0	0	0	0	551	518	1020	0	0	0	
13	0	0	0	0	559	501	1021	0	0	0	
14	0	0	0	0	565	481	1021	0	0	0	
15	0	0	0	0	568	460	1021	0	0	0	
0	0	0	0	0	567	442	1020	0	0	0	
1	0	0	0	0	562	425	1020	0	0	0	
2	0	0	0	0	554	414	1021	0	0	0	
3	0	0	0	0	545	409	1021	0	0	0	
4	0	0	0	0	534	409	1021	0	0	0	
5	0	0	0	0	522	416	1021	0	0	0	
6	0	0	0	0	512	429	1021	0	0	0	
7	0	0	0	0	504	446	1021	0	0	0	
8	0	0	0	0	498	466	1021	0	0	0	
9	0	0	0	0	496	487	1021	0	0	0	
10	0	0	0	0	497	507	1021	0	0	0	
11	0	0	0	0	503	524	1020	0	0	0	
12	0	0	0	0	512	536	1021	0	0	0	
13	0	0	0	0	523	542	1021	0	0	0	
14	0	0	0	0	535	542	1021	0	0	0	
15	0	0	0	0	546	535	1021	0	0	0	
0	0	0	0	0	558	523	1021	0	0	0	
1	0	0	0	0	567	507	1021	0	0	0	
2	0	0	0	0	573	487	1021	0	0	0	
3	0	0	0	0	576	466	1021	0	0	0	
4	0	0	0	0	574	446	1021	0	0	0	
5	0	0	0	0	569	430	1021	0	0	0	
6	0	0	0	0	561	418	1021	0	0	0	
7	0	0	0	0	551	412	1021	0	0	0	
8	0	0	0	0	538	413	1021	0	0	0	
9	0	0	0	0	527	419	1021	0	0	0	
10	0	0	0	0	515	432	1020	0	0	0	
11	0	0	0	0	505	448	1021	0	0	0	
12	0	0	0	0	499	467	1021	0	0	0	
13	0	0	0	0	495	487	1021	0	0	0	
14	0	0	0	0	495	505	1021	0	0	0	
15	0	0	0	0	497	520	1021	0	0	0	
0	0	0	0	0	504	531	1021	0	0	0	
1	0	0	0	0	512	535	1021	0	0	0	
2	0	0	0	0	523	533	1021	0	0	0	
3	0	0	0	0	534	526	1021	0	0	0	
4	0	0	0	0	545	514	1020	0	0	0	
5	0	0	0	0	555	499	1021	0	0	0	
6	0	0	0	0	562	480	1020	0	0	0	
7	0	0	0	0	568	462	1021	0	0	0	
8	0	0	0	0	569	446	1021	0	0	0	
9	0	0	0	0	568	432	1021	0	0	0	
10	0	0	0	0	563	424	1021	0	0	0	
11	0	0	0	0	556	422	1021	0	0	0	
12	0	0	0	0	548	425	1021	0	0	0	
13	0	0	0	0	539	434	1021	0	0	0	
14	0	0	0	0	529	449	1020	0	0	0	
15	0	0	0	0	521	467	1021	0	0	0	
0	0	0	0	0	514	486	1021	0	0	0	
1	0	0	0	0	510	506	1021	0	0	0	
2	0	0	0	0	509	524	1021	0	0	0	
3	0	0	0	0	511	538	1020	0	0	0	
4	0	0	0	0	516	547	1021	0	0	0	
5	0	0	0	0	523	550	1021	0	0	0	
6	0	0	0	0	532	546	1021	0	0	0	
7	0	0	0	0	541	537	1021	0	0	0	
8	0	0	0	0	550	523	1021	0	0	0	
9	0	0	0	0	558	506	1021	0	0	0	
10	0	0	0	0	564	485	1021	0	0	0	
11	0	0	0	0	568	464	1021	0	0	0	
12	0	0	0	0	568	445	1021	0	0	0	
13	0	0	0	0	564	430	1020	0	0	0	
14	0	0	0	0	558	419	1021	0	0	0	
15	0	0	0	0	549	414	1021	0	0	0	
0	0	0	0	0	540	415	1021	0	0	0	
1	0	0	0	0	528	423	1021	0	0	0	
2	0	0	0	0	518	435	1021	0	0	0	
3	0	0	0	0	510	453	1021	0	0	0	
4	0	0	0	0	504	472	1021	0	0	0	
5	0	0	0	0	500	493	1021	0	0	0	
6	0	0	0	0	501	512	1020	0	0	0	
7	0	0	0	0	505	528	1021	0	0	0	
8	0	0	0	0	513	540	1021	0	0	0	
9	0	0	0	0	523	545	1021	0	0	0	
10	0	0	0	0	535	544	1021	0	0	0	
11	0	0	0	0	546	537	1021	0	0	0	
12	0	0	0	0	558	526	1020	0	0	0	
13	0	0	0	0	568	509	1021	0	0	0	
14	0	0	0	0	575	490	1021	0	0	0	
15	0	0	0	0	579	470	1021	0	0	0	
0	0	0	0	0	579	451	1021	0	0	0	
1	0	0	0	0	576	435	1021	0	0	0	
2	0	0	0	0	569	424	1021	0	0	0	
3	0	0	0	0	560	419	1021	0	0	0	
4	0	0	0	0	548	419	1021	0	0	0	
5	0	0	0	0	536	425	1021	0	0	0	
6	0	0	0	0	525	437	1021	0	0	0	
7	0	0	0	0	515	454	1021	0	0	0	
8	0	0	0	0	508	473	1021	0	0	0	
9	0	0	0	0	505	493	1021	0	0	0	
10	0	0	0	0	505	512	1021	0	0	0	
11	0	0	0	0	510	528	1020	0	0	0	
12	0	0	0	0	516	539	1021	0	0	0	
13	0	0	0	0	526	544	1021	0	0	0	
14	0	0	0	0	537	544	1021	0	0	0	
15	0	0	0	0	548	537	1021	0	0	0	
0	0	0	0	0	560	526	1021	0	0	0	
1	0	0	0	0	569	511	1021	0	0	0	
2	0	0	0	0	575	492	1021	0	0	0	
3	0	0	0	0	579	473	1021	0	0	0	
4	0	0	0	0	578	454	1021	0	0	0	
5	0	0	0	0	574	438	1021	0	0	0	
6	0	0	0	0	566	427	1020	0	0	0	
7	0	0	0	0	556	422	1021	0	0	0	
8	0	0	0	0	545	423	1021	0	0	0	
9	0	0	0	0	534	430	1020	0	0	0	
10	0	0	0	0	523	442	1021	0	0	0	
11	0	0	0	0	515	460	1021	0	0	0	
12	0	0	0	0	510	480	1021	0	0	0	
13	0	0	0	0	508	501	1021	0	0	0	
14	0	0	0	0	509	521	1021	0	0	0	
15	0	0	0	0	515	538	1021	0	0	0	
0	0	0	0	0	523	551	1020	0	0	0	
1	0	0	0	0	534	557	1021	0	0	0	
2	0	0	0	0	545	557	1020	0	0	0	
3	0	0	0	0	557	551	1021	0	0	0	
4	0	0	0	0	568	539	1021	0	0	0	
5	0	0	0	0	576	522	1021	0	0	0	
6	0	0	0	0	582	502	1021	0	0	0	
7	0	0	0	0	583	481	1021	0	0	0	
8	0	0	0	0	583	462	1021	0	0	0	
9	0	0	0	0	578	446	1021	0	0	0	
10	0	0	0	0	569	434	1021	0	0	0	
11	0	0	0	0	559	428	1021	0	0	0	
12	0	0	0	0	547	427	1021	0	0	0	
13	0	0	0	0	533	432	1021	0	0	0	
14	0	0	0	0	521	443	1020	0	0	0	
15	0	0	0	0	510	458	1021	0	0	0	
0	0	0	0	0	503	476	1021	0	0	0	
1	0	0	0	0	499	495	1021	0	0	0	
2	0	0	0	0	498	513	1021	0	0	0	
3	0	0	0	0	502	527	1021	0	0	0	
4	0	0	0	0	509	538	1021	0	0	0	
5	0	0	0	0	519	543	1021	0	0	0	
6	0	0	0	0	530	542	1021	0	0	0	
7	0	0	0	0	542	535	1021	0	0	0	
8	0	0	0	0	554	524	1021	0	0	0	
9	0	0	0	0	564	509	1021	0	0	0	
10	0	0	0	0	572	491	1021	0	0	0	
11	0	0	0	0	577	473	1021	0	0	0	
12	0	0	0	0	578	456	1021	0	0	0	
13	0	0	0	0	575	443	1020	0	0	0	
14	0	0	0	0	569	433	1021	0	0	0	
15	0	0	0	0	561	430	1021	0	0	0	
0	0	0	0	0	551	432	1021	0	0	0	
1	0	0	0	0	539	439	1020	0	0	0	
2	0	0	0	0	529	451	1020	0	0	0	
3	0	0	0	0	519	468	1021	0	0	0	
4	0	0	0	0	514	487	1021	0	0	0	
5	0	0	0	0	511	508	1021	0	0	0	
6	0	0	0	0	511	526	1021	0	0	0	
7	0	0	0	0	516	542	1021	0	0	0	
8	0	0	0	0	523	551	1021	0	0	0	
9	0	0	0	0	533	556	1021	0	0	0	
10	0	0	0	0	543	554	1021	0	0	0	
11	0	0	0	0	553	546	1020	0	0	0	
12	0	0	0	0	563	532	1021	0	0	0	
13	0	0	0	0	571	515	1021	0	0	0	
14	0	0	0	0	575	494	1021	0	0	0	
15	0	0	0	0	578	472	1021	0	0	0	
0	0	0	0	0	575	452	1021	0	0	0	
1	0	0	0	0	569	435	1021	0	0	0	
2	0	0	0	0	560	424	1021	0	0	0	
3	0	0	0	0	549	418	1021	0	0	0	
4	0	0	0	0	537	417	1021	0	0	0	
5	0	0	0	0	524	424	1021	0	0	0	
6	0	0	0	0	513	436	1020	0	0	0	
7	0	0	0	0	504	453	1021	0	0	0	
8	0	0	0	0	498	473	1021	0	0	0	
9	0	0	0	0	496	494	1021	0	0	0	
10	0	0	0	0	497	514	1021	0	0	0	
11	0	0	0	0	502	531	1021	0	0	0	
12	0	0	0	0	510	543	1021	0	0	0	
13	0	0	0	0	520	549	1021	0	0	0	
14	0	0	0	0	532	548	1021	0	0	0	
15	0	0	0	0	544	542	1021	0	0	0	
0	0	0	0	0	556	530	1021	0	0	0	
1	0	0	0	0	565	513	1021	0	0	0	
2	0	0	0	0	572	493	1021	0	0	0	
3	0	0	0	0	574	471	1021	0	0	0	
4	0	0	0	0	573	451	1021	0	0	0	
5	0	0	0	0	568	434	1021	0	0	0	
6	0	0	0	0	560	422	1021	0	0	0	
7	0	0	0	0	550	415	1021	0	0	0	
8	0	0	0	0	538	415	1021	0	0	0	
9	0	0	0	0	526	421	1020	0	0	0	
10	0	0	0	0	514	433	1021	0	0	0	
11	0	0	0	0	504	449	1021	0	0	0	
12	0	0	0	0	496	468	1021	0	0	0	
13	0	0	0	0	492	487	1021	0	0	0	
14	0	0	0	0	491	507	1020	0	0	0	
15	0	0	0	0	495	522	1021	0	0	0	
0	0	0	0	0	502	534	1020	0	0	0	
1	0	0	0	0	512	540	1021	0	0	0	
2	0	0	0	0	524	540	1021	0	0	0	
3	0	0	0	0	537	536	1020	0	0	0	
4	0	0	0	0	550	526	1021	0	0	0	
5	0	0	0	0	562	512	1021	0	0	0	
6	0	0	0	0	573	495	1021	0	0	0	
7	0	0	0	0	579	478	1021	0	0	0	
8	0	0	0	0	583	461	1021	0	0	0	
9	0	0	0	0	582	447	1021	0	0	0	
10	0	0	0	0	577	438	1021	0	0	0	
11	0	0	0	0	569	432	1021	0	0	0	
12	0	0	0	0	557	432	1020	0	0	0	
13	0	0	0	0	544	438	1020	0	0	0	
14	0	0	0	0	531	447	1021	0	0	0	
15	0	0	0	0	518	461	1020	0	0	0	
0	0	0	0	0	506	476	1021	0	0	0	
1	0	0	0	0	498	493	1021	0	0	0	
2	0	0	0	0	493	508	1021	0	0	0	
3	0	0	0	0	492	520	1021	0	0	0	
4	0	0	0	0	495	528	1021	0	0	0	
5	0	0	0	0	502	531	1021	0	0	0	
6	0	0	0	0	511	530	1021	0	0	0	
7	0	0	0	0	521	523	1020	0	0	0	
8	0	0	0	0	532	511	1021	0	0	0	
9	0	0	0	0	543	496	1021	0	0	0	
10	0	0	0	0	552	479	1021	0	0	0	
11	0	0	0	0	558	461	1021	0	0	0	
12	0	0	0	0	561	445	1020	0	0	0	
13	0	0	0	0	560	431	1021	0	0	0	
14	0	0	0	0	556	422	1020	0	0	0	
15	0	0	0	0	548	418	1021	0	0	0	
0	0	0	0	0	540	420	1021	0	0	0	
1	0	0	0	0	529	428	1020	0	0	0	
2	0	0	0	0	519	440	1021	0	0	0	
3	0	0	0	0	510	456	1021	0	0	0	
4	0	0	0	0	503	475	1021	0	0	0	
5	0	0	0	0	499	495	1021	0	0	0	
6	0	0	0	0	499	513	1020	0	0	0	
7	0	0	0	0	502	528	1021	0	0	0	
8	0	0	0	0	508	539	1021	0	0	0	
9	0	0	0	0	517	543	1021	0	0	0	
10	0	0	0	0	527	542	1021	0	0	0	
11	0	0	0	0	538	535	1021	0	0	0	
12	0	0	0	0	548	522	1021	0	0	0	
13	0	0	0	0	557	505	1021	0	0	0	
14	0	0	0	0	564	486	1021	0	0	0	
15	0	0	0	0	568	466	1021	0	0	0	
0	0	0	0	0	568	447	1021	0	0	0	
1	0	0	0	0	564	432	1021	0	0	0	
2	0	0	0	0	557	420	1021	0	0	0	
3	0	0	0	0	547	415	1021	0	0	0	
4	0	0	0	0	536	416	1021	0	0	0	
5	0	0	0	0	524	423	1021	0	0	0	
6	0	0	0	0	513	436	1021	0	0	0	
7	0	0	0	0	504	454	1020	0	0	0	
8	0	0	0	0	498	474	1021	0	0	0	
9	0	0	0	0	495	496	1021	0	0	0	
10	0	0	0	0	496	516	1021	0	0	0	
11	0	0	0	0	501	534	1021	0	0	0	
12	0	0	0	0	510	547	1021	0	0	0	
13	0	0	0	0	520	553	1021	0	0	0	
14	0	0	0	0	532	554	1021	0	0	0	
15	0	0	0	0	544	548	1021	0	0	0	
0	0	0	0	0	556	536	1021	0	0	0	
1	0	0	0	0	566	519	1021	0	0	0	
2	0	0	0	0	572	499	1021	0	0	0	
3	0	0	0	0	575	477	1021	0	0	0	
4	0	0	0	0	575	456	1021	0	0	0	
5	0	0	0	0	570	439	1020	0	0	0	
6	0	0	0	0	562	426	1021	0	0	0	
7	0	0	0	0	551	419	1021	0	0	0	
8	0	0	0	0	540	419	1021	0	0	0	
9	0	0	0	0	528	426	1020	0	0	0	
10	0	0	0	0	517	438	1021	0	0	0	
11	0	0	0	0	507	455	1021	0	0	0	
12	0	0	0	0	501	476	1021	0	0	0	
13	0	0	0	0	498	497	1021	0	0	0	
14	0	0	0	0	498	519	1021	0	0	0	
15	0	0	0	0	503	536	1021	0	0	0	
0	0	0	0	0	511	549	1021	0	0	0	
1	0	0	0	0	523	556	1021	0	0	0	
2	0	0	0	0	536	557	1021	0	0	0	
3	0	0	0	0	548	551	1021	0	0	0	
4	0	0	0	0	561	540	1021	0	0	0	
5	0	0	0	0	571	523	1021	0	0	0	
6	0	0	0	0	578	503	1021	0	0	0	
7	0	0	0	0	582	482	1021	0	0	0	
8	0	0	0	0	582	462	1021	0	0	0	
9	0	0	0	0	577	444	1021	0	0	0	
10	0	0	0	0	569	432	1021	0	0	0	
11	0	0	0	0	558	424	1021	0	0	0	
12	0	0	0	0	545	423	1021	0	0	0	
13	0	0	0	0	531	427	1021	0	0	0	
14	0	0	0	0	517	438	1020	0	0	0	
15	0	0	0	0	505	453	1021	0	0	0	
0	0	0	0	0	496	471	1021	0	0	0	
1	0	0	0	0	491	490	1021	0	0	0	
2	0	0	0	0	490	509	1021	0	0	0	
3	0	0	0	0	493	526	1020	0	0	0	
4	0	0	0	0	500	537	1021	0	0	0	
5	0	0	0	0	510	543	1021	0	0	0	
6	0	0	0	0	523	543	1021	0	0	0	
7	0	0	0	0	536	536	1021	0	0	0	
8	0	0	0	0	548	524	1021	0	0	0	
9	0	0	0	0	558	508	1021	0	0	0	
10	0	0	0	0	565	487	1021	0	0	0	
11	0	0	0	0	568	465	1021	0	0	0	
12	0	0	0	0	566	445	1021	0	0	0	
13	0	0	0	0	561	427	1020	0	0	0	
14	0	0	0	0	552	414	1021	0	0	0	
15	0	0	0	0	541	407	1021	0	0	0	
0	0	0	0	0	528	406	1021	0	0	0	
1	0	0	0	0	515	411	1021	0	0	0	
2	0	0	0	0	503	422	1021	0	0	0	
3	0	0	0	0	492	438	1021	0	0	0	
4	0	0	0	0	484	456	1021	0	0	0	
5	0	0	0	0	480	476	1021	0	0	0	
6	0	0	0	0	480	496	1020	0	0	0	
7	0	0	0	0	484	512	1021	0	0	0	
8	0	0	0	0	492	524	1021	0	0	0	
9	0	0	0	0	503	530	1021	0	0	0	
10	0	0	0	0	515	530	1021	0	0	0	
11	0	0	0	0	528	524	1021	0	0	0	
12	0	0	0	0	541	515	1021	0	0	0	
13	0	0	0	0	552	500	1021	0	0	0	
14	0	0	0	0	562	483	1021	0	0	0	
15	0	0	0	0	568	464	1021	0	0	0	
0	0	0	0	0	571	448	1020	0	0	0	
1	0	0	0	0	569	434	1021	0	0	0	
2	0	0	0	0	564	425	1021	0	0	0	
3	0	0	0	0	556	421	1021	0	0	0	
4	0	0	0	0	545	423	1021	0	0	0	
5	0	0	0	0	533	430	1021	0	0	0	
6	0	0	0	0	522	443	1021	0	0	0	
7	0	0	0	0	511	459	1021	0	0	0	
8	0	0	0	0	502	478	1021	0	0	0	
9	0	0	0	0	497	497	1021	0	0	0	
10	0	0	0	0	494	515	1021	0	0	0	
11	0	0	0	0	496	529	1021	0	0	0	
12	0	0	0	0	500	539	1021	0	0	0	
13	0	0	0	0	508	542	1021	0	0	0	
14	0	0	0	0	517	539	1021	0	0	0	
15	0	0	0	0	527	530	1021	0	0	0	
0	0	0	0	0	536	517	1021	0	0	0	
1	0	0	0	0	545	499	1021	0	0	0	
2	0	0	0	0	551	478	1021	0	0	0	
3	0	0	0	0	554	457	1021	0	0	0	
4	0	0	0	0	553	437	1021	0	0	0	
5	0	0	0	0	549	421	1020	0	0	0	
6	0	0	0	0	543	410	1021	0	0	0	
7	0	0	0	0	534	404	1021	0	0	0	
8	0	0	0	0	524	405	1021	0	0	0	
9	0	0	0	0	512	413	1021	0	0	0	
10	0	0	0	0	503	426	1020	0	0	0	
11	0	0	0	0	495	444	1021	0	0	0	
12	0	0	0	0	490	466	1021	0	0	0	
13	0	0	0	0	488	487	1021	0	0	0	
14	0	0	0	0	491	509	1021	0	0	0	
15	0	0	0	0	496	527	1021	0	0	0	
0	0	0	0	0	505	541	1020	0	0	0	
1	0	0	0	0	516	547	1021	0	0	0	
2	0	0	0	0	529	548	1021	0	0	0	
3	0	0	0	0	541	542	1021	0	0	0	
4	0	0	0	0	553	531	1021	0	0	0	
5	0	0	0	0	563	515	1021	0	0	0	
6	0	0	0	0	571	496	1021	0	0	0	
7	0	0	0	0	574	476	1021	0	0	0	
8	0	0	0	0	574	456	1020	0	0	0	
9	0	0	0	0	569	440	1021	0	0	0	
10	0	0	0	0	562	427	1021	0	0	0	
11	0	0	0	0	552	420	1021	0	0	0	
12	0	0	0	0	541	419	1021	0	0	0	
13	0	0	0	0	529	425	1020	0	0	0	
14	0	0	0	0	518	436	1020	0	0	0	
15	0	0	0	0	508	452	1021	0	0	0	
0	0	0	0	0	502	471	1021	0	0	0	
1	0	0	0	0	497	490	1021	0	0	0	
2	0	0	0	0	497	509	1020	0	0	0	
3	0	0	0	0	501	525	1020	0	0	0	
4	0	0	0	0	508	536	1021	0	0	0	
5	0	0	0	0	516	541	1021	0	0	0	
6	0	0	0	0	527	542	1021	0	0	0	
7	0	0	0	0	539	535	1021	0	0	0	
8	0	0	0	0	550	524	1020	0	0	0	
9	0	0	0	0	559	508	1021	0	0	0	
10	0	0	0	0	566	491	1021	0	0	0	
11	0	0	0	0	569	472	1020	0	0	0	
12	0	0	0	0	569	454	1021	0	0	0	
13	0	0	0	0	566	439	1020	0	0	0	
14	0	0	0	0	559	428	1021	0	0	0	
15	0	0	0	0	550	423	1021	0	0	0	
0	0	0	0	0	539	423	1021	0	0	0	
1	0	0	0	0	527	429	1021	0	0	0	
2	0	0	0	0	517	440	1020	0	0	0	
3	0	0	0	0	508	456	1021	0	0	0	
4	0	0	0	0	501	475	1021	0	0	0	
5	0	0	0	0	498	495	1021	0	0	0	
6	0	0	0	0	499	514	1020	0	0	0	
7	0	0	0	0	503	530	1020	0	0	0	
8	0	0	0	0	510	541	1021	0	0	0	
9	0	0	0	0	520	547	1021	0	0	0	
10	0	0	0	0	531	547	1020	0	0	0	
11	0	0	0	0	543	539	1021	0	0	0	
12	0	0	0	0	553	527	1020	0	0	0	
13	0	0	0	0	562	511	1021	0	0	0	
14	0	0	0	0	569	492	1021	0	0	0	
15	0	0	0	0	572	471	1021	0	0	0	
0	0	0	0	0	571	452	1020	0	0	0	
1	0	0	0	0	567	436	1020	0	0	0	
2	0	0	0	0	560	424	1021	0	0	0	
3	0	0	0	0	550	419	1021	0	0	0	
4	0	0	0	0	539	419	1021	0	0	0	
5	0	0	0	0	527	425	1021	0	0	0	
6	0	0	0	0	517	438	1021	0	0	0	
7	0	0	0	0	508	455	1021	0	0	0	
8	0	0	0	0	502	475	1021	0	0	0	
9	0	0	0	0	499	496	1021	0	0	0	
10	0	0	0	0	500	516	1021	0	0	0	
11	0	0	0	0	504	533	1020	0	0	0	
12	0	0	0	0	511	545	1021	0	0	0	
13	0	0	0	0	519	550	1021	0	0	0	
14	0	0	0	0	529	548	1021	0	0	0	
15	0	0	0	0	539	540	1020	0	0	0	
0	0	0	0	0	546	526	1021	0	0	0	
1	0	0	0	0	552	506	1021	0	0	0	
2	0	0	0	0	555	483	1021	0	0	0	
3	0	0	0	0	553	457	1021	0	0	0	
4	0	0	0	0	547	433	1021	0	0	0	
5	0	0	0	0	538	411	1020	0	0	0	
6	0	0	0	0	525	394	1021	0	0	0	
7	0	0	0	0	510	382	1021	0	0	0	
8	0	0	0	0	493	376	1021	0	0	0	
9	0	0	0	0	475	376	1021	0	0	0	
10	0	0	0	0	457	381	1020	0	0	0	
11	0	0	0	0	441	391	1021	0	0	0	
12	0	0	0	0	427	403	1021	0	0	0	
13	0	0	0	0	415	416	1021	0	0	0	
14	0	0	0	0	407	427	1021	0	0	0	
15	0	0	0	0	401	435	1021	0	0	0	
0	0	0	0	0	398	437	1021	0	0	0	
1	0	0	0	0	397	432	1021	0	0	0	
2	0	0	0	0	398	421	1021	0	0	0	
3	0	0	0	0	397	403	1020	0	0	0	
4	0	0	0	0	396	379	1021	0	0	0	
5	0	0	0	0	394	351	1021	0	0	0	
6	0	0	0	0	390	320	1021	0	0	0	
7	0	0	0	0	384	289	1021	0	0	0	
8	0	0	0	0	375	261	1021	0	0	0	
9	0	0	0	0	364	236	1021	0	0	0	
10	0	0	0	0	353	219	1021	0	0	0	
11	0	0	0	0	342	210	1021	0	0	0	
12	0	0	0	0	333	211	1021	0	0	0	
13	0	0	0	0	326	220	1021	0	0	0	
14	0	0	0	0	323	239	1020	0	0	0	
15	0	0	0	0	325	265	1020	0	0	0	
0	0	0	0	0	332	299	1021	0	0	0	
1	0	0	0	0	345	336	1021	0	0	0	
2	0	0	0	0	365	374	1021	0	0	0	
3	0	0	0	0	389	411	1021	0	0	0	
4	0	0	0	0	417	443	1021	0	0	0	
5	0	0	0	0	448	469	1021	0	0	0	
6	0	0	0	0	479	487	1021	0	0	0	
7	0	0	0	0	508	498	1021	0	0	0	
8	0	0	0	0	535	501	1021	0	0	0	
9	0	0	0	0	558	497	1021	0	0	0	
10	0	0	0	0	575	488	1021	0	0	0	
11	0	0	0	0	587	475	1021	0	0	0	
12	0	0	0	0	592	462	1020	0	0	0	
13	0	0	0	0	591	449	1021	0	0	0	
14	0	0	0	0	584	440	1021	0	0	0	
15	0	0	0	0	574	434	1021	0	0	0	
0	0	0	0	0	560	434	1021	0	0	0	
1	0	0	0	0	544	439	1020	0	0	0	
2	0	0	0	0	528	448	1021	0	0	0	
3	0	0	0	0	515	463	1021	0	0	0	
4	0	0	0	0	504	481	1021	0	0	0	
5	0	0	0	0	497	499	1021	0	0	0	
6	0	0	0	0	494	518	1020	0	0	0	
7	0	0	0	0	496	532	1021	0	0	0	
8	0	0	0	0	502	543	1020	0	0	0	
9	0	0	0	0	510	547	1021	0	0	0	
10	0	0	0	0	522	547	1021	0	0	0	
11	0	0	0	0	535	541	1020	0	0	0	
12	0	0	0	0	549	530	1021	0	0	0	
13	0	0	0	0	563	516	1021	0	0	0	
14	0	0	0	0	575	500	1021	0	0	0	
15	0	0	0	0	584	483	1021	0	0	0	
0	0	0	0	0	590	468	1020	0	0	0	
1	0	0	0	0	592	456	1021	0	0	0	
2	0	0	0	0	591	448	1020	0	0	0	
3	0	0	0	0	586	445	1021	0	0	0	
4	0	0	0	0	577	447	1021	0	0	0	
5	0	0	0	0	567	455	1020	0	0	0	
6	0	0	0	0	556	467	1021	0	0	0	
7	0	0	0	0	545	483	1020	0	0	0	
8	0	0	0	0	536	501	1021	0	0	0	
9	0	0	0	0	530	520	1021	0	0	0	
10	0	0	0	0	526	537	1021	0	0	0	
11	0	0	0	0	527	551	1020	0	0	0	
12	0	0	0	0	529	561	1021	0	0	0	
13	0	0	0	0	535	564	1021	0	0	0	
14	0	0	0	0	542	561	1021	0	0	0	
15	0	0	0	0	550	553	1021	0	0	0	
0	0	0	0	0	558	539	1020	0	0	0	
1	0	0	0	0	565	521	1021	0	0	0	
2	0	0	0	0	571	500	1021	0	0	0	
3	0	0	0	0	573	479	1021	0	0	0	
4	0	0	0	0	573	459	1021	0	0	0	
5	0	0	0	0	570	443	1020	0	0	0	
6	0	0	0	0	564	432	1021	0	0	0	
7	0	0	0	0	556	427	1021	0	0	0	
8	0	0	0	0	548	428	1021	0	0	0	
9	0	0	0	0	539	435	1021	0	0	0	
10	0	0	0	0	530	448	1020	0	0	0	
11	0	0	0	0	523	467	1021	0	0	0	
12	0	0	0	0	518	487	1021	0	0	0	
13	0	0	0	0	516	510	1021	0	0	0	
14	0	0	0	0	518	530	1021	0	0	0	
15	0	0	0	0	523	548	1021	0	0	0	
0	0	0	0	0	531	561	1020	0	0	0	
1	0	0	0	0	540	567	1021	0	0	0	
2	0	0	0	0	551	566	1021	0	0	0	
3	0	0	0	0	561	560	1021	0	0	0	
4	0	0	0	0	572	548	1021	0	0	0	
5	0	0	0	0	580	531	1021	0	0	0	
6	0	0	0	0	585	511	1021	0	0	0	
7	0	0	0	0	587	489	1021	0	0	0	
8	0	0	0	0	585	469	1021	0	0	0	
9	0	0	0	0	580	452	1021	0	0	0	
10	0	0	0	0	572	440	1021	0	0	0	
11	0	0	0	0	562	433	1021	0	0	0	
12	0	0	0	0	550	432	1021	0	0	0	
13	0	0	0	0	539	439	1021	0	0	0	
14	0	0	0	0	528	451	1020	0	0	0	
15	0	0	0	0	519	467	1021	0	0	0	
0	0	0	0	0	513	487	1021	0	0	0	
1	0	0	0	0	510	508	1020	0	0	0	
2	0	0	0	0	511	527	1021	0	0	0	
3	0	0	0	0	515	544	1020	0	0	0	
4	0	0	0	0	522	557	1021	0	0	0	
5	0	0	0	0	532	563	1021	0	0	0	
6	0	0	0	0	543	563	1021	0	0	0	
7	0	0	0	0	554	558	1020	0	0	0	
8	0	0	0	0	564	545	1020	0	0	0	
9	0	0	0	0	574	529	1021	0	0	0	
10	0	0	0	0	580	509	1021	0	0	0	
11	0	0	0	0	583	489	1020	0	0	0	
12	0	0	0	0	582	468	1021	0	0	0	
13	0	0	0	0	577	451	1021	0	0	0	
14	0	0	0	0	570	439	1021	0	0	0	
15	0	0	0	0	560	432	1021	0	0	0	
0	0	0	0	0	548	431	1020	0	0	0	
1	0	0	0	0	537	436	1021	0	0	0	
2	0	0	0	0	526	448	1021	0	0	0	
3	0	0	0	0	516	463	1021	0	0	0	
4	0	0	0	0	509	482	1021	0	0	0	
5	0	0	0	0	507	503	1021	0	0	0	
6	0	0	0	0	507	522	1020	0	0	0	
7	0	0	0	0	512	539	1021	0	0	0	
8	0	0	0	0	520	550	1021	0	0	0	
9	0	0	0	0	531	556	1021	0	0	0	
10	0	0	0	0	542	556	1021	0	0	0	
11	0	0	0	0	554	550	1020	0	0	0	
12	0	0	0	0	564	537	1021	0	0	0	
13	0	0	0	0	574	521	1021	0	0	0	
14	0	0	0	0	579	501	1021	0	0	0	
15	0	0	0	0	582	481	1021	0	0	0	
0	0	0	0	0	581	462	1020	0	0	0	
1	0	0	0	0	576	446	1021	0	0	0	
2	0	0	0	0	568	434	1021	0	0	0	
3	0	0	0	0	558	428	1021	0	0	0	
4	0	0	0	0	546	428	1021	0	0	0	
5	0	0	0	0	534	434	1020	0	0	0	
6	0	0	0	0	523	446	1021	0	0	0	
7	0	0	0	0	513	463	1020	0	0	0	
8	0	0	0	0	506	482	1021	0	0	0	
9	0	0	0	0	503	503	1021	0	0	0	
10	0	0	0	0	503	522	1020	0	0	0	
11	0	0	0	0	508	539	1021	0	0	0	
12	0	0	0	0	515	551	1021	0	0	0	
13	0	0	0	0	526	557	1021	0	0	0	
14	0	0	0	0	537	557	1021	0	0	0	
15	0	0	0	0	548	550	1020	0	0	0	
0	0	0	0	0	560	538	1021	0	0	0	
1	0	0	0	0	568	521	1021	0	0	0	
2	0	0	0	0	574	501	1021	0	0	0	
3	0	0	0	0	577	480	1021	0	0	0	
4	0	0	0	0	576	460	1020	0	0	0	
5	0	0	0	0	572	443	1021	0	0	0	
6	0	0	0	0	566	431	1021	0	0	0	
7	0	0	0	0	557	426	1021	0	0	0	
8	0	0	0	0	548	428	1021	0	0	0	
9	0	0	0	0	540	437	1020	0	0	0	
10	0	0	0	0	534	453	1021	0	0	0	
11	0	0	0	0	530	473	1021	0	0	0	
12	0	0	0	0	528	497	1021	0	0	0	
13	0	0	0	0	529	521	1021	0	0	0	
14	0	0	0	0	531	543	1020	0	0	0	
15	0	0	0	0	537	561	1021	0	0	0	
0	0	0	0	0	543	572	1020	0	0	0	
1	0	0	0	0	551	575	1021	0	0	0	
2	0	0	0	0	558	571	1021	0	0	0	
3	0	0	0	0	564	560	1020	0	0	0	
4	0	0	0	0	568	542	1021	0	0	0	
5	0	0	0	0	571	519	1021	0	0	0	
6	0	0	0	0	571	494	1021	0	0	0	
7	0	0	0	0	568	468	1021	0	0	0	
8	0	0	0	0	563	444	1021	0	0	0	
9	0	0	0	0	554	424	1021	0	0	0	
10	0	0	0	0	544	410	1021	0	0	0	
11	0	0	0	0	533	402	1021	0	0	0	
12	0	0	0	0	522	402	1021	0	0	0	
13	0	0	0	0	511	409	1021	0	0	0	
14	0	0	0	0	502	422	1021	0	0	0	
15	0	0	0	0	495	440	1020	0	0	0	
0	0	0	0	0	490	461	1021	0	0	0	
1	0	0	0	0	489	484	1021	0	0	0	
2	0	0	0	0	492	505	1021	0	0	0	
3	0	0	0	0	497	523	1021	0	0	0	
4	0	0	0	0	506	536	1021	0	0	0	
5	0	0	0	0	517	543	1021	0	0	0	
6	0	0	0	0	529	544	1021	0	0	0	
7	0	0	0	0	542	538	1021	0	0	0	
8	0	0	0	0	553	526	1021	0	0	0	
9	0	0	0	0	563	511	1021	0	0	0	
10	0	0	0	0	569	490	1021	0	0	0	
11	0	0	0	0	574	470	1021	0	0	0	
12	0	0	0	0	572	449	1021	0	0	0	
13	0	0	0	0	568	432	1020	0	0	0	
14	0	0	0	0	559	419	1021	0	0	0	
15	0	0	0	0	547	412	1021	0	0	0	
0	0	0	0	0	534	411	1021	0	0	0	
1	0	0	0	0	520	416	1020	0	0	0	
2	0	0	0	0	507	427	1020	0	0	0	
3	0	0	0	0	496	443	1021	0	0	0	
4	0	0	0	0	487	462	1021	0	0	0	
5	0	0	0	0	483	483	1020	0	0	0	
6	0	0	0	0	483	503	1021	0	0	0	
7	0	0	0	0	487	519	1021	0	0	0	
8	0	0	0	0	496	533	1020	0	0	0	
9	0	0	0	0	507	540	1021	0	0	0	
10	0	0	0	0	520	540	1021	0	0	0	
11	0	0	0	0	534	535	1021	0	0	0	
12	0	0	0	0	547	525	1021	0	0	0	
13	0	0	0	0	559	510	1021	0	0	0	
14	0	0	0	0	568	492	1021	0	0	0	
15	0	0	0	0	573	472	1021	0	0	0	
0	0	0	0	0	574	453	1021	0	0	0	
1	0	0	0	0	571	436	1021	0	0	0	
2	0	0	0	0	564	425	1021	0	0	0	
3	0	0	0	0	555	418	1021	0	0	0	
4	0	0	0	0	543	417	1021	0	0	0	
5	0	0	0	0	530	423	1021	0	0	0	
6	0	0	0	0	518	434	1021	0	0	0	
7	0	0	0	0	508	450	1021	0	0	0	
8	0	0	0	0	500	469	1021	0	0	0	
9	0	0	0	0	496	489	1021	0	0	0	
10	0	0	0	0	495	508	1021	0	0	0	
11	0	0	0	0	498	525	1020	0	0	0	
12	0	0	0	0	504	537	1021	0	0	0	
13	0	0	0	0	513	543	1021	0	0	0	
14	0	0	0	0	524	542	1021	0	0	0	
15	0	0	0	0	534	536	1021	0	0	0	
0	0	0	0	0	544	524	1021	0	0	0	
1	0	0	0	0	553	507	1021	0	0	0	
2	0	0	0	0	560	487	1021	0	0	0	
3	0	0	0	0	563	467	1021	0	0	0	
4	0	0	0	0	562	447	1021	0	0	0	
5	0	0	0	0	558	430	1020	0	0	0	
6	0	0	0	0	551	418	1021	0	0	0	
7	0	0	0	0	541	412	1021	0	0	0	
8	0	0	0	0	529	412	1021	0	0	0	
9	0	0	0	0	518	418	1021	0	0	0	
10	0	0	0	0	508	430	1021	0	0	0	
11	0	0	0	0	499	448	1021	0	0	0	
12	0	0	0	0	493	467	1021	0	0	0	
13	0	0	0	0	491	489	1021	0	0	0	
14	0	0	0	0	492	509	1020	0	0	0	
15	0	0	0	0	497	526	1020	0	0	0	
0	0	0	0	0	506	539	1021	0	0	0	
1	0	0	0	0	516	545	1021	0	0	0	
2	0	0	0	0	527	545	1021	0	0	0	
3	0	0	0	0	539	539	1020	0	0	0	
4	0	0	0	0	549	526	1020	0	0	0	
5	0	0	0	0	558	510	1021	0	0	0	
6	0	0	0	0	564	491	1021	0	0	0	
7	0	0	0	0	567	470	1021	0	0	0	
8	0	0	0	0	566	451	1021	0	0	0	
9	0	0	0	0	562	435	1020	0	0	0	
10	0	0	0	0	555	424	1021	0	0	0	
11	0	0	0	0	547	420	1021	0	0	0	
12	0	0	0	0	537	422	1020	0	0	0	
13	0	0	0	0	527	429	1021	0	0	0	
14	0	0	0	0	517	444	1021	0	0	0	
15	0	0	0	0	511	463	1020	0	0	0	
0	0	0	0	0	506	484	1021	0	0	0	
1	0	0	0	0	505	506	1021	0	0	0	
2	0	0	0	0	509	527	1021	0	0	0	
3	0	0	0	0	515	546	1020	0	0	0	
4	0	0	0	0	524	559	1021	0	0	0	
5	0	0	0	0	535	565	1021	0	0	0	
6	0	0	0	0	547	564	1021	0	0	0	
7	0	0	0	0	559	557	1021	0	0	0	
8	0	0	0	0	570	544	1021	0	0	0	
9	0	0	0	0	578	527	1021	0	0	0	
10	0	0	0	0	583	506	1021	0	0	0	
11	0	0	0	0	585	483	1021	0	0	0	
12	0	0	0	0	583	462	1021	0	0	0	
13	0	0	0	0	576	443	1020	0	0	0	
14	0	0	0	0	567	429	1021	0	0	0	
15	0	0	0	0	555	421	1021	0	0	0	
0	0	0	0	0	542	419	1021	0	0	0	
1	0	0	0	0	528	424	1021	0	0	0	
2	0	0	0	0	516	435	1021	0	0	0	
3	0	0	0	0	507	452	1021	0	0	0	
4	0	0	0	0	499	472	1021	0	0	0	
5	0	0	0	0	496	493	1021	0	0	0	
6	0	0	0	0	497	514	1020	0	0	0	
7	0	0	0	0	502	531	1020	0	0	0	
8	0	0	0	0	511	544	1021	0	0	0	
9	0	0	0	0	521	551	1021	0	0	0	
10	0	0	0	0	532	551	1021	0	0	0	
11	0	0	0	0	544	545	1021	0	0	0	
12	0	0	0	0	555	533	1020	0	0	0	
13	0	0	0	0	563	516	1021	0	0	0	
14	0	0	0	0	569	496	1021	0	0	0	
15	0	0	0	0	572	474	1021	0	0	0	
0	0	0	0	0	570	453	1020	0	0	0	
1	0	0	0	0	565	435	1021	0	0	0	
2	0	0	0	0	557	422	1021	0	0	0	
3	0	0	0	0	547	415	1021	0	0	0	
4	0	0	0	0	535	414	1021	0	0	0	
5	0	0	0	0	523	420	1021	0	0	0	
6	0	0	0	0	512	432	1021	0	0	0	
7	0	0	0	0	502	448	1021	0	0	0	
8	0	0	0	0	496	468	1021	0	0	0	
9	0	0	0	0	492	489	1020	0	0	0	
10	0	0	0	0	492	508	1021	0	0	0	
11	0	0	0	0	496	525	1020	0	0	0	
12	0	0	0	0	504	536	1021	0	0	0	
13	0	0	0	0	513	542	1021	0	0	0	
14	0	0	0	0	524	541	1021	0	0	0	
15	0	0	0	0	535	535	1020	0	0	0	
0	0	0	0	0	546	523	1021	0	0	0	
1	0	0	0	0	556	506	1021	0	0	0	
2	0	0	0	0	563	487	1021	0	0	0	
3	0	0	0	0	567	466	1020	0	0	0	
4	0	0	0	0	567	447	1021	0	0	0	
5	0	0	0	0	565	431	1021	0	0	0	
6	0	0	0	0	560	419	1021	0	0	0	
7	0	0	0	0	552	414	1021	0	0	0	
8	0	0	0	0	543	416	1020	0	0	0	
9	0	0	0	0	534	423	1021	0	0	0	
10	0	0	0	0	525	438	1020	0	0	0	
11	0	0	0	0	517	456	1021	0	0	0	
12	0	0	0	0	512	478	1021	0	0	0	
13	0	0	0	0	510	500	1021	0	0	0	
14	0	0	0	0	511	522	1021	0	0	0	
15	0	0	0	0	515	540	1021	0	0	0	
0	0	0	0	0	523	554	1020	0	0	0	
1	0	0	0	0	532	561	1021	0	0	0	
2	0	0	0	0	543	561	1021	0	0	0	
3	0	0	0	0	553	555	1021	0	0	0	
4	0	0	0	0	563	542	1021	0	0	0	
5	0	0	0	0	571	526	1021	0	0	0	
6	0	0	0	0	576	505	1021	0	0	0	
7	0	0	0	0	578	483	1021	0	0	0	
8	0	0	0	0	577	462	1021	0	0	0	
9	0	0	0	0	572	444	1020	0	0	0	
10	0	0	0	0	564	431	1021	0	0	0	
11	0	0	0	0	554	424	1021	0	0	0	
12	0	0	0	0	543	423	1021	0	0	0	
13	0	0	0	0	531	429	1021	0	0	0	
14	0	0	0	0	520	441	1020	0	0	0	
15	0	0	0	0	511	458	1021	0	0	0	
0	0	0	0	0	505	478	1021	0	0	0	
1	0	0	0	0	502	499	1021	0	0	0	
2	0	0	0	0	503	519	1020	0	0	0	
3	0	0	0	0	507	536	1021	0	0	0	
4	0	0	0	0	515	549	1021	0	0	0	
5	0	0	0	0	524	556	1021	0	0	0	
6	0	0	0	0	536	556	1021	0	0	0	
7	0	0	0	0	547	550	1020	0	0	0	
8	0	0	0	0	557	537	1021	0	0	0	
9	0	0	0	0	566	520	1021	0	0	0	
10	0	0	0	0	572	500	1021	0	0	0	
11	0	0	0	0	574	478	1021	0	0	0	
12	0	0	0	0	573	458	1021	0	0	0	
13	0	0	0	0	568	440	1021	0	0	0	
14	0	0	0	0	561	427	1021	0	0	0	
15	0	0	0	0	551	420	1021	0	0	0	
0	0	0	0	0	541	420	1020	0	0	0	
1	0	0	0	0	529	426	1020	0	0	0	
2	0	0	0	0	519	438	1021	0	0	0	
3	0	0	0	0	510	455	1021	0	0	0	
4	0	0	0	0	504	475	1021	0	0	0	
5	0	0	0	0	502	496	1021	0	0	0	
6	0	0	0	0	504	517	1021	0	0	0	
7	0	0	0	0	508	535	1021	0	0	0	
8	0	0	0	0	516	547	1021	0	0	0	
9	0	0	0	0	527	553	1021	0	0	0	
10	0	0	0	0	537	553	1021	0	0	0	
11	0	0	0	0	548	545	1021	0	0	0	
12	0	0	0	0	557	532	1021	0	0	0	
13	0	0	0	0	565	514	1021	0	0	0	
14	0	0	0	0	569	491	1021	0	0	0	
15	0	0	0	0	570	467	1021	0	0	0	
0	0	0	0	0	567	444	1021	0	0	0	
1	0	0	0	0	560	425	1021	0	0	0	
2	0	0	0	0	551	410	1021	0	0	0	
3	0	0	0	0	539	401	1021	0	0	0	
4	0	0	0	0	526	399	1021	0	0	0	
5	0	0	0	0	512	404	1021	0	0	0	
6	0	0	0	0	500	416	1021	0	0	0	
7	0	0	0	0	491	433	1021	0	0	0	
8	0	0	0	0	484	454	1021	0	0	0	
9	0	0	0	0	481	476	1021	0	0	0	
10	0	0	0	0	483	499	1021	0	0	0	
11	0	0	0	0	488	518	1021	0	0	0	
12	0	0	0	0	498	533	1021	0	0	0	
13	0	0	0	0	511	542	1021	0	0	0	
14	0	0	0	0	525	544	1021	0	0	0	
15	0	0	0	0	538	540	1021	0	0	0	
0	0	0	0	0	551	530	1021	0	0	0	
1	0	0	0	0	563	515	1021	0	0	0	
2	0	0	0	0	571	496	1021	0	0	0	
3	0	0	0	0	576	476	1021	0	0	0	
4	0	0	0	0	577	456	1021	0	0	0	
5	0	0	0	0	574	439	1021	0	0	0	
6	0	0	0	0	567	427	1021	0	0	0	
7	0	0	0	0	557	420	1021	0	0	0	
8	0	0	0	0	545	419	1021	0	0	0	
9	0	0	0	0	532	424	1021	0	0	0	
10	0	0	0	0	519	435	1021	0	0	0	
11	0	0	0	0	509	450	1021	0	0	0	
12	0	0	0	0	500	468	1021	0	0	0	
13	0	0	0	0	495	487	1021	0	0	0	
14	0	0	0	0	494	505	1020	0	0	0	
15	0	0	0	0	497	521	1021	0	0	0	
0	0	0	0	0	503	532	1021	0	0	0	
1	0	0	0	0	512	537	1021	0	0	0	
2	0	0	0	0	523	536	1021	0	0	0	
3	0	0	0	0	535	531	1020	0	0	0	
4	0	0	0	0	546	519	1021	0	0	0	
5	0	0	0	0	557	504	1021	0	0	0	
6	0	0	0	0	566	487	1021	0	0	0	
7	0	0	0	0	572	469	1021	0	0	0	
8	0	0	0	0	573	452	1020	0	0	0	
9	0	0	0	0	572	437	1021	0	0	0	
10	0	0	0	0	566	427	1021	0	0	0	
11	0	0	0	0	558	423	1021	0	0	0	
12	0	0	0	0	547	424	1021	0	0	0	
13	0	0	0	0	536	431	1021	0	0	0	
14	0	0	0	0	525	443	1021	0	0	0	
15	0	0	0	0	516	460	1021	0	0	0	
0	0	0	0	0	509	480	1021	0	0	0	
1	0	0	0	0	505	501	1021	0	0	0	
2	0	0	0	0	506	520	1021	0	0	0	
3	0	0	0	0	510	538	1021	0	0	0	
4	0	0	0	0	518	550	1021	0	0	0	
5	0	0	0	0	529	557	1021	0	0	0	
6	0	0	0	0	541	558	1021	0	0	0	
7	0	0	0	0	554	552	1021	0	0	0	
8	0	0	0	0	566	542	1021	0	0	0	
9	0	0	0	0	577	526	1021	0	0	0	
10	0	0	0	0	585	508	1021	0	0	0	
11	0	0	0	0	590	488	1021	0	0	0	
12	0	0	0	0	591	469	1021	0	0	0	
13	0	0	0	0	588	453	1021	0	0	0	
14	0	0	0	0	582	441	1021	0	0	0	
15	0	0	0	0	573	435	1021	0	0	0	
0	0	0	0	0	562	435	1020	0	0	0	
1	0	0	0	0	550	440	1021	0	0	0	
2	0	0	0	0	538	451	1021	0	0	0	
3	0	0	0	0	527	467	1021	0	0	0	
4	0	0	0	0	519	485	1021	0	0	0	
5	0	0	0	0	514	505	1021	0	0	0	
6	0	0	0	0	512	524	1021	0	0	0	
7	0	0	0	0	515	540	1021	0	0	0	
8	0	0	0	0	521	551	1021	0	0	0	
9	0	0	0	0	530	557	1021	0	0	0	
10	0	0	0	0	540	556	1021	0	0	0	
11	0	0	0	0	551	550	1020	0	0	0	
12	0	0	0	0	562	537	1021	0	0	0	
13	0	0	0	0	572	521	1021	0	0	0	
14	0	0	0	0	578	502	1021	0	0	0	
15	0	0	0	0	582	481	1021	0	0	0	
0	0	0	0	0	581	462	1020	0	0	0	
1	0	0	0	0	577	445	1021	0	0	0	
2	0	0	0	0	570	433	1021	0	0	0	
3	0	0	0	0	560	427	1021	0	0	0	
4	0	0	0	0	548	426	1020	0	0	0	
5	0	0	0	0	536	431	1021	0	0	0	
6	0	0	0	0	524	442	1021	0	0	0	
7	0	0	0	0	514	457	1020	0	0	0	
8	0	0	0	0	507	476	1021	0	0	0	
9	0	0	0	0	503	496	1021	0	0	0	
10	0	0	0	0	502	514	1021	0	0	0	
11	0	0	0	0	505	530	1021	0	0	0	
12	0	0	0	0	512	542	1021	0	0	0	
13	0	0	0	0	521	547	1021	0	0	0	
14	0	0	0	0	531	547	1021	0	0	0	
15	0	0	0	0	543	540	1020	0	0	0	
0	0	0	0	0	554	528	1021	0	0	0	
1	0	0	0	0	564	513	1021	0	0	0	
2	0	0	0	0	572	495	1021	0	0	0	
3	0	0	0	0	577	476	1021	0	0	0	
4	0	0	0	0	579	459	1020	0	0	0	
5	0	0	0	0	578	445	1021	0	0	0	
6	0	0	0	0	574	436	1020	0	0	0	
7	0	0	0	0	568	433	1021	0	0	0	
8	0	0	0	0	560	436	1021	0	0	0	
9	0	0	0	0	552	444	1021	0	0	0	
10	0	0	0	0	544	459	1021	0	0	0	
11	0	0	0	0	537	477	1021	0	0	0	
12	0	0	0	0	532	498	1021	0	0	0	
13	0	0	0	0	530	519	1021	0	0	0	
14	0	0	0	0	530	538	1021	0	0	0	
15	0	0	0	0	533	554	1021	0	0	0	
0	0	0	0	0	537	564	1021	0	0	0	
1	0	0	0	0	544	568	1021	0	0	0	
2	0	0	0	0	551	564	1020	0	0	0	
3	0	0	0	0	557	554	1020	0	0	0	
4	0	0	0	0	562	537	1021	0	0	0	
5	0	0	0	0	566	517	1021	0	0	0	
6	0	0	0	0	568	494	1021	0	0	0	
7	0	0	0	0	568	471	1021	0	0	0	
8	0	0	0	0	564	449	1020	0	0	0	
9	0	0	0	0	559	431	1021	0	0	0	
10	0	0	0	0	551	417	1021	0	0	0	
11	0	0	0	0	542	411	1021	0	0	0	
12	0	0	0	0	532	411	1021	0	0	0	
13	0	0	0	0	521	417	1020	0	0	0	
14	0	0	0	0	513	430	1021	0	0	0	
15	0	0	0	0	506	447	1020	0	0	0	
0	0	0	0	0	502	468	1021	0	0	0	
1	0	0	0	0	502	490	1021	0	0	0	
2	0	0	0	0	505	511	1020	0	0	0	
3	0	0	0	0	511	529	1021	0	0	0	
4	0	0	0	0	521	543	1021	0	0	0	
5	0	0	0	0	533	551	1021	0	0	0	
6	0	0	0	0	545	552	1021	0	0	0	
7	0	0	0	0	558	547	1020	0	0	0	
8	0	0	0	0	569	536	1021	0	0	0	
9	0	0	0	0	578	520	1021	0	0	0	
10	0	0	0	0	583	500	1021	0	0	0	
11	0	0	0	0	585	479	1021	0	0	0	
12	0	0	0	0	583	459	1020	0	0	0	
13	0	0	0	0	575	440	1021	0	0	0	
14	0	0	0	0	566	427	1021	0	0	0	
15	0	0	0	0	553	418	1021	0	0	0	
0	0	0	0	0	539	416	1021	0	0	0	
1	0	0	0	0	525	420	1020	0	0	0	
2	0	0	0	0	512	431	1021	0	0	0	
3	0	0	0	0	502	446	1021	0	0	0	
4	0	0	0	0	495	464	1021	0	0	0	
5	0	0	0	0	492	485	1021	0	0	0	
6	0	0	0	0	492	504	1021	0	0	0	
7	0	0	0	0	497	521	1021	0	0	0	
8	0	0	0	0	506	535	1020	0	0	0	
9	0	0	0	0	517	542	1021	0	0	0	
10	0	0	0	0	530	543	1021	0	0	0	
11	0	0	0	0	542	538	1020	0	0	0	
12	0	0	0	0	554	527	1021	0	0	0	
13	0	0	0	0	564	511	1021	0	0	0	
14	0	0	0	0	571	493	1021	0	0	0	
15	0	0	0	0	575	472	1021	0	0	0	
0	0	0	0	0	574	452	1020	0	0	0	
1	0	0	0	0	569	435	1021	0	0	0	
2	0	0	0	0	562	422	1021	0	0	0	
3	0	0	0	0	551	415	1021	0	0	0	
4	0	0	0	0	539	413	1021	0	0	0	
5	0	0	0	0	526	418	1020	0	0	0	
6	0	0	0	0	514	428	1021	0	0	0	
7	0	0	0	0	504	444	1020	0	0	0	
8	0	0	0	0	497	462	1021	0	0	0	
9	0	0	0	0	494	483	1021	0	0	0	
10	0	0	0	0	494	503	1020	0	0	0	
11	0	0	0	0	500	520	1021	0	0	0	
12	0	0	0	0	508	534	1021	0	0	0	
13	0	0	0	0	519	541	1021	0	0	0	
14	0	0	0	0	533	543	1021	0	0	0	
15	0	0	0	0	547	539	1021	0	0	0	
0	0	0	0	0	560	529	1021	0	0	0	
1	0	0	0	0	571	515	1021	0	0	0	
2	0	0	0	0	580	497	1021	0	0	0	
3	0	0	0	0	585	478	1021	0	0	0	
4	0	0	0	0	586	460	1021	0	0	0	
5	0	0	0	0	583	444	1021	0	0	0	
6	0	0	0	0	576	433	1020	0	0	0	
7	0	0	0	0	567	427	1021	0	0	0	
8	0	0	0	0	556	427	1021	0	0	0	
9	0	0	0	0	543	432	1020	0	0	0	
10	0	0	0	0	532	443	1021	0	0	0	
11	0	0	0	0	522	459	1021	0	0	0	
12	0	0	0	0	514	477	1021	0	0	0	
13	0	0	0	0	510	497	1021	0	0	0	
14	0	0	0	0	510	516	1021	0	0	0	
15	0	0	0	0	514	533	1021	0	0	0	
0	0	0	0	0	521	545	1021	0	0	0	
1	0	0	0	0	531	552	1021	0	0	0	
2	0	0	0	0	543	553	1021	0	0	0	
3	0	0	0	0	555	548	1020	0	0	0	
4	0	0	0	0	567	537	1020	0	0	0	
5	0	0	0	0	577	521	1021	0	0	0	
6	0	0	0	0	584	504	1021	0	0	0	
7	0	0	0	0	589	484	1021	0	0	0	
8	0	0	0	0	590	465	1020	0	0	0	
9	0	0	0	0	588	450	1021	0	0	0	
10	0	0	0	0	582	440	1021	0	0	0	
11	0	0	0	0	575	436	1021	0	0	0	
12	0	0	0	0	566	438	1021	0	0	0	
13	0	0	0	0	556	446	1021	0	0	0	
14	0	0	0	0	547	459	1021	0	0	0	
15	0	0	0	0	539	477	1021	0	0	0	
0	0	0	0	0	533	497	1021	0	0	0	
1	0	0	0	0	530	518	1021	0	0	0	
2	0	0	0	0	530	537	1021	0	0	0	
3	0	0	0	0	534	553	1021	0	0	0	
4	0	0	0	0	539	564	1021	0	0	0	
5	0	0	0	0	547	568	1021	0	0	0	
6	0	0	0	0	555	566	1020	0	0	0	
7	0	0	0	0	564	557	1021	0	0	0	
8	0	0	0	0	572	543	1021	0	0	0	
9	0	0	0	0	578	524	1021	0	0	0	
10	0	0	0	0	582	502	1021	0	0	0	
11	0	0	0	0	582	479	1020	0	0	0	
12	0	0	0	0	580	457	1021	0	0	0	
13	0	0	0	0	576	439	1021	0	0	0	
14	0	0	0	0	568	427	1021	0	0	0	
15	0	0	0	0	558	419	1021	0	0	0	
0	0	0	0	0	547	419	1021	0	0	0	
1	0	0	0	0	536	425	1021	0	0	0	
2	0	0	0	0	525	437	1021	0	0	0	
3	0	0	0	0	516	454	1021	0	0	0	
4	0	0	0	0	510	474	1021	0	0	0	
5	0	0	0	0	506	495	1021	0	0	0	
6	0	0	0	0	506	515	1020	0	0	0	
7	0	0	0	0	510	532	1021	0	0	0	
8	0	0	0	0	517	544	1021	0	0	0	
9	0	0	0	0	526	551	1021	0	0	0	
10	0	0	0	0	537	551	1021	0	0	0	
11	0	0	0	0	549	545	1021	0	0	0	
12	0	0	0	0	560	535	1020	0	0	0	
13	0	0	0	0	569	519	1021	0	0	0	
14	0	0	0	0	576	500	1021	0	0	0	
15	0	0	0	0	581	481	1021	0	0	0	
0	0	0	0	0	582	462	1021	0	0	0	
1	0	0	0	0	579	446	1021	0	0	0	
2	0	0	0	0	573	435	1021	0	0	0	
3	0	0	0	0	564	429	1021	0	0	0	
4	0	0	0	0	554	429	1021	0	0	0	
5	0	0	0	0	543	435	1021	0	0	0	
6	0	0	0	0	532	446	1021	0	0	0	
7	0	0	0	0	523	462	1021	0	0	0	
8	0	0	0	0	515	480	1021	0	0	0	
9	0	0	0	0	510	499	1021	0	0	0	
10	0	0	0	0	508	516	1021	0	0	0	
11	0	0	0	0	508	530	1020	0	0	0	
12	0	0	0	0	511	539	1021	0	0	0	
13	0	0	0	0	515	540	1021	0	0	0	
14	0	0	0	0	520	535	1021	0	0	0	
15	0	0	0	0	525	523	1021	0	0	0	
0	0	0	0	0	528	505	1021	0	0	0	
1	0	0	0	0	530	482	1021	0	0	0	
2	0	0	0	0	529	456	1021	0	0	0	
3	0	0	0	0	524	428	1021	0	0	0	
4	0	0	0	0	516	400	1020	0	0	0	
5	0	0	0	0	504	375	1021	0	0	0	
6	0	0	0	0	490	355	1021	0	0	0	
7	0	0	0	0	473	340	1021	0	0	0	
8	0	0	0	0	455	331	1021	0	0	0	
9	0	0	0	0	436	329	1020	0	0	0	
10	0	0	0	0	418	332	1020	0	0	0	
11	0	0	0	0	401	340	1021	0	0	0	
12	0	0	0	0	387	352	1021	0	0	0	
13	0	0	0	0	375	366	1020	0	0	0	
14	0	0	0	0	366	378	1021	0	0	0	
15	0	0	0	0	361	387	1021	0	0	0	
0	0	0	0	0	359	391	1020	0	0	0	
1	0	0	0	0	360	391	1021	0	0	0	
2	0	0	0	0	364	385	1021	0	0	0	
3	0	0	0	0	370	374	1021	0	0	0	
4	0	0	0	0	377	359	1020	0	0	0	
5	0	0	0	0	386	342	1021	0	0	0	
6	0	0	0	0	396	324	1021	0	0	0	
7	0	0	0	0	405	308	1021	0	0	0	
8	0	0	0	0	415	295	1021	0	0	0	
9	0	0	0	0	423	287	1021	0	0	0	
10	0	0	0	0	432	286	1021	0	0	0	
11	0	0	0	0	439	292	1021	0	0	0	
12	0	0	0	0	447	306	1021	0	0	0	
13	0	0	0	0	454	327	1021	0	0	0	
14	0	0	0	0	462	355	1021	0	0	0	
15	0	0	0	0	472	389	1021	0	0	0	
0	0	0	0	0	482	426	1021	0	0	0	
1	0	0	0	0	495	463	1021	0	0	0	
2	0	0	0	0	510	499	1021	0	0	0	
3	0	0	0	0	526	531	1021	0	0	0	
4	0	0	0	0	543	555	1021	0	0	0	
5	0	0	0	0	560	571	1021	0	0	0	
6	0	0	0	0	576	579	1021	0	0	0	
7	0	0	0	0	590	578	1021	0	0	0	
8	0	0	0	0	600	568	1021	0	0	0	
9	0	0	0	0	606	551	1021	0	0	0	
10	0	0	0	0	608	529	1021	0	0	0	
11	0	0	0	0	606	504	1021	0	0	0	
12	0	0	0	0	599	480	1020	0	0	0	
13	0	0	0	0	588	457	1021	0	0	0	
14	0	0	0	0	575	440	1021	0	0	0	
15	0	0	0	0	559	428	1021	0	0	0	
0	0	0	0	0	544	423	1021	0	0	0	
1	0	0	0	0	529	427	1020	0	0	0	
2	0	0	0	0	517	436	1021	0	0	0	
3	0	0	0	0	508	452	1021	0	0	0	
4	0	0	0	0	503	472	1021	0	0	0	
5	0	0	0	0	502	494	1021	0	0	0	
6	0	0	0	0	505	516	1020	0	0	0	
7	0	0	0	0	513	535	1021	0	0	0	
8	0	0	0	0	524	551	1020	0	0	0	
9	0	0	0	0	537	559	1021	0	0	0	
10	0	0	0	0	551	562	1021	0	0	0	
11	0	0	0	0	565	558	1020	0	0	0	
12	0	0	0	0	578	548	1021	0	0	0	
13	0	0	0	0	588	533	1021	0	0	0	
14	0	0	0	0	595	514	1021	0	0	0	
15	0	0	0	0	598	493	1021	0	0	0	
0	0	0	0	0	597	472	1020	0	0	0	
1	0	0	0	0	592	455	1021	0	0	0	
2	0	0	0	0	583	441	1021	0	0	0	
3	0	0	0	0	572	433	1021	0	0	0	
4	0	0	0	0	560	432	1021	0	0	0	
5	0	0	0	0	547	436	1020	0	0	0	
6	0	0	0	0	536	448	1021	0	0	0	
7	0	0	0	0	526	464	1020	0	0	0	
8	0	0	0	0	519	484	1021	0	0	0	
9	0	0	0	0	516	505	1021	0	0	0	
10	0	0	0	0	517	526	1021	0	0	0	
11	0	0	0	0	522	544	1020	0	0	0	
12	0	0	0	0	530	558	1021	0	0	0	
13	0	0	0	0	542	566	1021	0	0	0	
14	0	0	0	0	554	568	1021	0	0	0	
15	0	0	0	0	567	563	1021	0	0	0	
0	0	0	0	0	578	553	1021	0	0	0	
1	0	0	0	0	589	539	1021	0	0	0	
2	0	0	0	0	596	520	1021	0	0	0	
3	0	0	0	0	599	499	1021	0	0	0	
4	0	0	0	0	600	479	1021	0	0	0	
5	0	0	0	0	595	462	1021	0	0	0	
6	0	0	0	0	588	448	1021	0	0	0	
7	0	0	0	0	577	440	1021	0	0	0	
8	0	0	0	0	566	439	1021	0	0	0	
9	0	0	0	0	553	443	1021	0	0	0	
10	0	0	0	0	541	454	1021	0	0	0	
11	0	0	0	0	530	469	1021	0	0	0	
12	0	0	0	0	521	487	1021	0	0	0	
13	0	0	0	0	517	507	1021	0	0	0	
14	0	0	0	0	515	525	1021	0	0	0	
15	0	0	0	0	517	542	1020	0	0	0	
0	0	0	0	0	524	553	1021	0	0	0	
1	0	0	0	0	532	560	1021	0	0	0	
2	0	0	0	0	543	560	1021	0	0	0	
3	0	0	0	0	555	555	1021	0	0	0	
4	0	0	0	0	566	544	1021	0	0	0	
5	0	0	0	0	575	529	1021	0	0	0	
6	0	0	0	0	582	510	1021	0	0	0	
7	0	0	0	0	587	490	1021	0	0	0	
8	0	0	0	0	587	471	1021	0	0	0	
9	0	0	0	0	584	455	1020	0	0	0	
10	0	0	0	0	579	444	1021	0	0	0	
11	0	0	0	0	572	440	1021	0	0	0	
12	0	0	0	0	563	441	1021	0	0	0	
13	0	0	0	0	554	448	1021	0	0	0	
14	0	0	0	0	545	462	1020	0	0	0	
15	0	0	0	0	537	480	1021	0	0	0	
0	0	0	0	0	532	501	1021	0	0	0	
1	0	0	0	0	530	522	1021	0	0	0	
2	0	0	0	0	530	542	1020	0	0	0	
3	0	0	0	0	534	559	1021	0	0	0	
4	0	0	0	0	540	570	1021	0	0	0	
5	0	0	0	0	548	575	1021	0	0	0	
6	0	0	0	0	557	574	1021	0	0	0	
7	0	0	0	0	566	566	1021	0	0	0	
8	0	0	0	0	575	552	1021	0	0	0	
9	0	0	0	0	582	534	1021	0	0	0	
10	0	0	0	0	587	514	1021	0	0	0	
11	0	0	0	0	588	492	1020	0	0	0	
12	0	0	0	0	587	472	1020	0	0	0	
13	0	0	0	0	582	454	1021	0	0	0	
14	0	0	0	0	575	443	1021	0	0	0	
15	0	0	0	0	566	437	1021	0	0	0	
0	0	0	0	0	556	437	1021	0	0	0	
1	0	0	0	0	544	444	1021	0	0	0	
2	0	0	0	0	534	455	1020	0	0	0	
3	0	0	0	0	525	472	1021	0	0	0	
4	0	0	0	0	518	491	1021	0	0	0	
5	0	0	0	0	515	511	1021	0	0	0	
6	0	0	0	0	515	531	1020	0	0	0	
7	0	0	0	0	519	547	1020	0	0	0	
8	0	0	0	0	527	559	1021	0	0	0	
9	0	0	0	0	537	565	1021	0	0	0	
10	0	0	0	0	548	565	1020	0	0	0	
11	0	0	0	0	560	558	1021	0	0	0	
12	0	0	0	0	571	547	1021	0	0	0	
13	0	0	0	0	579	530	1021	0	0	0	
14	0	0	0	0	585	510	1021	0	0	0	
15	0	0	0	0	587	489	1021	0	0	0	
0	0	0	0	0	584	469	1020	0	0	0	
1	0	0	0	0	579	451	1021	0	0	0	
2	0	0	0	0	570	438	1021	0	0	0	
3	0	0	0	0	559	431	1021	0	0	0	
4	0	0	0	0	548	430	1021	0	0	0	
5	0	0	0	0	536	435	1021	0	0	0	
6	0	0	0	0	526	447	1021	0	0	0	
7	0	0	0	0	517	464	1021	0	0	0	
8	0	0	0	0	512	484	1021	0	0	0	
9	0	0	0	0	510	505	1021	0	0	0	
10	0	0	0	0	512	526	1020	0	0	0	
11	0	0	0	0	518	544	1021	0	0	0	
12	0	0	0	0	526	557	1021	0	0	0	
13	0	0	0	0	536	564	1021	0	0	0	
14	0	0	0	0	548	564	1021	0	0	0	
15	0	0	0	0	559	558	1021	0	0	0	
0	0	0	0	0	568	546	1021	0	0	0	
1	0	0	0	0	576	529	1021	0	0	0	
2	0	0	0	0	582	509	1021	0	0	0	
3	0	0	0	0	584	487	1021	0	0	0	
4	0	0	0	0	581	466	1021	0	0	0	
5	0	0	0	0	576	448	1021	0	0	0	
6	0	0	0	0	569	435	1021	0	0	0	
7	0	0	0	0	559	428	1021	0	0	0	
8	0	0	0	0	549	427	1021	0	0	0	
9	0	0	0	0	538	433	1021	0	0	0	
10	0	0	0	0	528	445	1021	0	0	0	
11	0	0	0	0	521	462	1021	0	0	0	
12	0	0	0	0	517	483	1021	0	0	0	
13	0	0	0	0	516	506	1021	0	0	0	
14	0	0	0	0	519	527	1021	0	0	0	
15	0	0	0	0	525	547	1020	0	0	0	
0	0	0	0	0	535	561	1021	0	0	0	
1	0	0	0	0	546	570	1021	0	0	0	
2	0	0	0	0	559	572	1020	0	0	0	
3	0	0	0	0	572	567	1021	0	0	0	
4	0	0	0	0	583	557	1021	0	0	0	
5	0	0	0	0	591	541	1021	0	0	0	
6	0	0	0	0	597	522	1021	0	0	0	
7	0	0	0	0	599	500	1021	0	0	0	
8	0	0	0	0	596	479	1020	0	0	0	
9	0	0	0	0	590	460	1021	0	0	0	
10	0	0	0	0	579	444	1021	0	0	0	
11	0	0	0	0	567	435	1021	0	0	0	
12	0	0	0	0	552	431	1021	0	0	0	
13	0	0	0	0	538	434	1021	0	0	0	
14	0	0	0	0	524	443	1021	0	0	0	
15	0	0	0	0	512	456	1020	0	0	0	
0	0	0	0	0	503	473	1021	0	0	0	
1	0	0	0	0	498	493	1021	0	0	0	
2	0	0	0	0	498	512	1021	0	0	0	
3	0	0	0	0	502	529	1021	0	0	0	
4	0	0	0	0	510	542	1021	0	0	0	
5	0	0	0	0	521	550	1021	0	0	0	
6	0	0	0	0	534	551	1021	0	0	0	
7	0	0	0	0	547	548	1021	0	0	0	
8	0	0	0	0	561	538	1021	0	0	0	
9	0	0	0	0	572	524	1021	0	0	0	
10	0	0	0	0	581	507	1021	0	0	0	
11	0	0	0	0	586	487	1021	0	0	0	
12	0	0	0	0	587	468	1021	0	0	0	
13	0	0	0	0	584	452	1021	0	0	0	
14	0	0	0	0	578	441	1021	0	0	0	
15	0	0	0	0	569	435	1021	0	0	0	
0	0	0	0	0	558	435	1021	0	0	0	
1	0	0	0	0	547	441	1021	0	0	0	
2	0	0	0	0	535	452	1020	0	0	0	
3	0	0	0	0	526	469	1021	0	0	0	
4	0	0	0	0	518	488	1021	0	0	0	
5	0	0	0	0	514	509	1021	0	0	0	
6	0	0	0	0	514	529	1021	0	0	0	
7	0	0	0	0	517	545	1021	0	0	0	
8	0	0	0	0	524	558	1020	0	0	0	
9	0	0	0	0	532	563	1021	0	0	0	
10	0	0	0	0	543	563	1021	0	0	0	
11	0	0	0	0	554	557	1021	0	0	0	
12	0	0	0	0	564	545	1021	0	0	0	
13	0	0	0	0	574	529	1021	0	0	0	
14	0	0	0	0	580	509	1021	0	0	0	
15	0	0	0	0	584	488	1021	0	0	0	
0	0	0	0	0	585	468	1021	0	0	0	
1	0	0	0	0	581	450	1021	0	0	0	
2	0	0	0	0	575	438	1021	0	0	0	
3	0	0	0	0	565	431	1021	0	0	0	
4	0	0	0	0	555	430	1021	0	0	0	
5	0	0	0	0	543	435	1021	0	0	0	
6	0	0	0	0	531	447	1021	0	0	0	
7	0	0	0	0	522	463	1020	0	0	0	
8	0	0	0	0	515	483	1021	0	0	0	
9	0	0	0	0	513	505	1021	0	0	0	
10	0	0	0	0	513	527	1021	0	0	0	
11	0	0	0	0	518	545	1021	0	0	0	
12	0	0	0	0	526	559	1021	0	0	0	
13	0	0	0	0	536	566	1021	0	0	0	
14	0	0	0	0	548	568	1021	0	0	0	
15	0	0	0	0	560	563	1021	0	0	0	
0	0	0	0	0	571	551	1020	0	0	0	
1	0	0	0	0	580	535	1021	0	0	0	
2	0	0	0	0	586	515	1021	0	0	0	
3	0	0	0	0	589	494	1021	0	0	0	
4	0	0	0	0	588	473	1021	0	0	0	
5	0	0	0	0	583	455	1021	0	0	0	
6	0	0	0	0	574	441	1021	0	0	0	
7	0	0	0	0	563	433	1021	0	0	0	
8	0	0	0	0	550	431	1021	0	0	0	
9	0	0	0	0	537	435	1020	0	0	0	
10	0	0	0	0	525	446	1021	0	0	0	
11	0	0	0	0	514	460	1021	0	0	0	
12	0	0	0	0	507	479	1021	0	0	0	
13	0	0	0	0	503	499	1021	0	0	0	
14	0	0	0	0	503	519	1020	0	0	0	
15	0	0	0	0	508	537	1020	0	0	0	
0	0	0	0	0	515	550	1020	0	0	0	
1	0	0	0	0	526	556	1021	0	0	0	
2	0	0	0	0	538	557	1021	0	0	0	
3	0	0	0	0	550	551	1021	0	0	0	
4	0	0	0	0	561	540	1021	0	0	0	
5	0	0	0	0	571	525	1021	0	0	0	
6	0	0	0	0	578	506	1021	0	0	0	
7	0	0	0	0	583	486	1021	0	0	0	
8	0	0	0	0	583	468	1020	0	0	0	
9	0	0	0	0	581	452	1020	0	0	0	
10	0	0	0	0	575	441	1021	0	0	0	
11	0	0	0	0	568	436	1021	0	0	0	
12	0	0	0	0	558	437	1021	0	0	0	
13	0	0	0	0	547	444	1020	0	0	0	
14	0	0	0	0	537	455	1021	0	0	0	
15	0	0	0	0	527	473	1020	0	0	0	
0	0	0	0	0	521	493	1021	0	0	0	
1	0	0	0	0	517	514	1021	0	0	0	
2	0	0	0	0	516	534	1020	0	0	0	
3	0	0	0	0	520	551	1021	0	0	0	
4	0	0	0	0	527	564	1021	0	0	0	
5	0	0	0	0	536	570	1021	0	0	0	
6	0	0	0	0	545	570	1021	0	0	0	
7	0	0	0	0	556	564	1021	0	0	0	
8	0	0	0	0	566	552	1021	0	0	0	
9	0	0	0	0	575	536	1021	0	0	0	
10	0	0	0	0	580	516	1021	0	0	0	
11	0	0	0	0	583	495	1020	0	0	0	
12	0	0	0	0	583	474	1021	0	0	0	
13	0	0	0	0	579	456	1021	0	0	0	
14	0	0	0	0	572	444	1021	0	0	0	
15	0	0	0	0	562	436	1021	0	0	0	
0	0	0	0	0	551	435	1020	0	0	0	
1	0	0	0	0	540	441	1021	0	0	0	
2	0	0	0	0	530	452	1021	0	0	0	
3	0	0	0	0	521	469	1021	0	0	0	
4	0	0	0	0	515	489	1021	0	0	0	
5	0	0	0	0	513	511	1021	0	0	0	
6	0	0	0	0	515	533	1021	0	0	0	
7	0	0	0	0	520	551	1021	0	0	0	
8	0	0	0	0	530	567	1021	0	0	0	
9	0	0	0	0	542	575	1021	0	0	0	
10	0	0	0	0	555	578	1021	0	0	0	
11	0	0	0	0	568	575	1021	0	0	0	
12	0	0	0	0	582	565	1021	0	0	0	
13	0	0	0	0	593	550	1021	0	0	0	
14	0	0	0	0	600	531	1021	0	0	0	
15	0	0	0	0	605	510	1021	0	0	0	
0	0	0	0	0	605	489	1021	0	0	0	
1	0	0	0	0	600	472	1021	0	0	0	
2	0	0	0	0	593	458	1021	0	0	0	
3	0	0	0	0	582	449	1021	0	0	0	
4	0	0	0	0	569	446	1021	0	0	0	
5	0	0	0	0	556	450	1021	0	0	0	
6	0	0	0	0	543	459	1021	0	0	0	
7	0	0	0	0	532	474	1020	0	0	0	
8	0	0	0	0	523	492	1021	0	0	0	
9	0	0	0	0	518	511	1021	0	0	0	
10	0	0	0	0	518	531	1021	0	0	0	
11	0	0	0	0	521	549	1021	0	0	0	
12	0	0	0	0	529	562	1021	0	0	0	
13	0	0	0	0	540	571	1021	0	0	0	
14	0	0	0	0	553	574	1021	0	0	0	
15	0	0	0	0	567	571	1021	0	0	0	
0	0	0	0	0	581	563	1021	0	0	0	
1	0	0	0	0	594	550	1021	0	0	0	
2	0	0	0	0	604	533	1021	0	0	0	
3	0	0	0	0	610	515	1021	0	0	0	
4	0	0	0	0	612	496	1021	0	0	0	
5	0	0	0	0	609	480	1021	0	0	0	
6	0	0	0	0	601	467	1020	0	0	0	
7	0	0	0	0	590	458	1021	0	0	0	
8	0	0	0	0	575	455	1020	0	0	0	
9	0	0	0	0	560	456	1021	0	0	0	
10	0	0	0	0	544	463	1021	0	0	0	
11	0	0	0	0	530	476	1021	0	0	0	
12	0	0	0	0	518	491	1021	0	0	0	
13	0	0	0	0	510	508	1020	0	0	0	
14	0	0	0	0	508	526	1021	0	0	0	
15	0	0	0	0	509	542	1021	0	0	0	
0	0	0	0	0	516	555	1020	0	0	0	
1	0	0	0	0	527	563	1021	0	0	0	
2	0	0	0	0	541	567	1021	0	0	0	
3	0	0	0	0	556	563	1021	0	0	0	
4	0	0	0	0	571	555	1021	0	0	0	
5	0	0	0	0	585	542	1021	0	0	0	
6	0	0	0	0	596	526	1021	0	0	0	
7	0	0	0	0	604	507	1021	0	0	0	
8	0	0	0	0	607	488	1021	0	0	0	
9	0	0	0	0	605	471	1021	0	0	0	
10	0	0	0	0	599	459	1021	0	0	0	
11	0	0	0	0	589	450	1021	0	0	0	
12	0	0	0	0	576	448	1021	0	0	0	
13	0	0	0	0	562	450	1021	0	0	0	
14	0	0	0	0	546	459	1021	0	0	0	
15	0	0	0	0	532	472	1021	0	0	0	
0	0	0	0	0	520	489	1021	0	0	0	
1	0	0	0	0	512	508	1020	0	0	0	
2	0	0	0	0	508	525	1021	0	0	0	
3	0	0	0	0	507	542	1021	0	0	0	
4	0	0	0	0	512	554	1021	0	0	0	
5	0	0	0	0	519	561	1021	0	0	0	
6	0	0	0	0	531	563	1021	0	0	0	
7	0	0	0	0	543	559	1021	0	0	0	
8	0	0	0	0	556	551	1021	0	0	0	
9	0	0	0	0	568	537	1021	0	0	0	
10	0	0	0	0	579	520	1021	0	0	0	
11	0	0	0	0	587	502	1020	0	0	0	
12	0	0	0	0	590	483	1021	0	0	0	
13	0	0	0	0	590	468	1021	0	0	0	
14	0	0	0	0	587	456	1021	0	0	0	
15	0	0	0	0	580	450	1021	0	0	0	
0	0	0	0	0	571	449	1021	0	0	0	
1	0	0	0	0	561	455	1021	0	0	0	
2	0	0	0	0	550	466	1021	0	0	0	
3	0	0	0	0	540	481	1021	0	0	0	
4	0	0	0	0	532	500	1021	0	0	0	
5	0	0	0	0	528	519	1021	0	0	0	
6	0	0	0	0	527	539	1021	0	0	0	
7	0	0	0	0	529	556	1021	0	0	0	
8	0	0	0	0	535	568	1020	0	0	0	
9	0	0	0	0	543	574	1021	0	0	0	
10	0	0	0	0	553	575	1021	0	0	0	
11	0	0	0	0	563	569	1021	0	0	0	
12	0	0	0	0	573	558	1021	0	0	0	
13	0	0	0	0	582	542	1021	0	0	0	
14	0	0	0	0	588	523	1021	0	0	0	
15	0	0	0	0	591	502	1021	0	0	0	
0	0	0	0	0	591	481	1021	0	0	0	
1	0	0	0	0	587	464	1021	0	0	0	
2	0	0	0	0	580	451	1021	0	0	0	
3	0	0	0	0	570	444	1021	0	0	0	
4	0	0	0	0	559	443	1021	0	0	0	
5	0	0	0	0	547	448	1021	0	0	0	
6	0	0	0	0	536	459	1021	0	0	0	
7	0	0	0	0	526	475	1021	0	0	0	
8	0	0	0	0	519	494	1021	0	0	0	
9	0	0	0	0	516	515	1020	0	0	0	
10	0	0	0	0	517	534	1021	0	0	0	
11	0	0	0	0	521	551	1021	0	0	0	
12	0	0	0	0	528	564	1021	0	0	0	
13	0	0	0	0	539	572	1021	0	0	0	
14	0	0	0	0	551	573	1021	0	0	0	
15	0	0	0	0	563	568	1020	0	0	0	
0	0	0	0	0	574	557	1021	0	0	0	
1	0	0	0	0	584	541	1021	0	0	0	
2	0	0	0	0	591	521	1021	0	0	0	
3	0	0	0	0	595	500	1021	0	0	0	
4	0	0	0	0	595	480	1021	0	0	0	
5	0	0	0	0	592	463	1021	0	0	0	
6	0	0	0	0	585	449	1021	0	0	0	
7	0	0	0	0	575	442	1021	0	0	0	
8	0	0	0	0	564	441	1020	0	0	0	
9	0	0	0	0	552	446	1021	0	0	0	
10	0	0	0	0	540	458	1021	0	0	0	
11	0	0	0	0	530	475	1021	0	0	0	
12	0	0	0	0	523	495	1021	0	0	0	
13	0	0	0	0	519	515	1021	0	0	0	
14	0	0	0	0	518	536	1021	0	0	0	
15	0	0	0	0	522	553	1021	0	0	0	
0	0	0	0	0	529	567	1021	0	0	0	
1	0	0	0	0	539	574	1021	0	0	0	
2	0	0	0	0	550	575	1020	0	0	0	
3	0	0	0	0	561	569	1021	0	0	0	
4	0	0	0	0	573	558	1021	0	0	0	
5	0	0	0	0	583	543	1021	0	0	0	
6	0	0	0	0	590	524	1021	0	0	0	
7	0	0	0	0	593	503	1021	0	0	0	
8	0	0	0	0	593	483	1021	0	0	0	
9	0	0	0	0	588	465	1021	0	0	0	
10	0	0	0	0	581	452	1021	0	0	0	
11	0	0	0	0	571	444	1021	0	0	0	
12	0	0	0	0	560	443	1021	0	0	0	
13	0	0	0	0	548	448	1021	0	0	0	
14	0	0	0	0	537	460	1021	0	0	0	
15	0	0	0	0	528	476	1021	0	0	0	
0	0	0	0	0	522	496	1021	0	0	0	
1	0	0	0	0	519	518	1021	0	0	0	
2	0	0	0	0	520	539	1021	0	0	0	
3	0	0	0	0	525	557	1021	0	0	0	
4	0	0	0	0	534	571	1021	0	0	0	
5	0	0	0	0	544	579	1021	0	0	0	
6	0	0	0	0	557	580	1021	0	0	0	
7	0	0	0	0	569	575	1021	0	0	0	
8	0	0	0	0	581	566	1021	0	0	0	
9	0	0	0	0	591	550	1021	0	0	0	
10	0	0	0	0	598	531	1021	0	0	0	
11	0	0	0	0	601	509	1021	0	0	0	
12	0	0	0	0	600	487	1021	0	0	0	
13	0	0	0	0	595	469	1021	0	0	0	
14	0	0	0	0	585	454	1021	0	0	0	
15	0	0	0	0	574	445	1021	0	0	0	
0	0	0	0	0	560	442	1021	0	0	0	
1	0	0	0	0	545	445	1020	0	0	0	
2	0	0	0	0	532	455	1020	0	0	0	
3	0	0	0	0	521	469	1021	0	0	0	
4	0	0	0	0	513	488	1021	0	0	0	
5	0	0	0	0	509	509	1021	0	0	0	
6	0	0	0	0	509	529	1021	0	0	0	
7	0	0	0	0	513	548	1021	0	0	0	
8	0	0	0	0	522	563	1020	0	0	0	
9	0	0	0	0	532	571	1021	0	0	0	
10	0	0	0	0	545	574	1021	0	0	0	
11	0	0	0	0	558	569	1021	0	0	0	
12	0	0	0	0	570	559	1021	0	0	0	
13	0	0	0	0	580	543	1021	0	0	0	
14	0	0	0	0	587	524	1021	0	0	0	
15	0	0	0	0	591	503	1021	0	0	0	
0	0	0	0	0	590	482	1020	0	0	0	
1	0	0	0	0	586	463	1021	0	0	0	
2	0	0	0	0	578	449	1021	0	0	0	
3	0	0	0	0	568	441	1021	0	0	0	
4	0	0	0	0	556	439	1021	0	0	0	
5	0	0	0	0	543	443	1021	0	0	0	
6	0	0	0	0	531	453	1021	0	0	0	
7	0	0	0	0	521	468	1021	0	0	0	
8	0	0	0	0	513	487	1021	0	0	0	
9	0	0	0	0	508	508	1020	0	0	0	
10	0	0	0	0	508	528	1021	0	0	0	
11	0	0	0	0	511	546	1021	0	0	0	
12	0	0	0	0	519	560	1021	0	0	0	
13	0	0	0	0	528	567	1021	0	0	0	
14	0	0	0	0	540	569	1021	0	0	0	
15	0	0	0	0	553	564	1021	0	0	0	
0	0	0	0	0	565	555	1021	0	0	0	
1	0	0	0	0	576	541	1021	0	0	0	
2	0	0	0	0	584	523	1021	0	0	0	
3	0	0	0	0	590	504	1021	0	0	0	
4	0	0	0	0	591	485	1021	0	0	0	
5	0	0	0	0	589	468	1021	0	0	0	
6	0	0	0	0	583	455	1021	0	0	0	
7	0	0	0	0	573	448	1021	0	0	0	
8	0	0	0	0	561	446	1021	0	0	0	
9	0	0	0	0	548	449	1021	0	0	0	
10	0	0	0	0	536	459	1021	0	0	0	
11	0	0	0	0	525	473	1021	0	0	0	
12	0	0	0	0	516	491	1021	0	0	0	
13	0	0	0	0	512	511	1021	0	0	0	
14	0	0	0	0	510	530	1021	0	0	0	
15	0	0	0	0	513	547	1021	0	0	0	
0	0	0	0	0	520	559	1021	0	0	0	
1	0	0	0	0	530	567	1021	0	0	0	
2	0	0	0	0	542	569	1021	0	0	0	
3	0	0	0	0	554	564	1021	0	0	0	
4	0	0	0	0	566	555	1021	0	0	0	
5	0	0	0	0	577	541	1021	0	0	0	
6	0	0	0	0	586	524	1021	0	0	0	
7	0	0	0	0	593	507	1021	0	0	0	
8	0	0	0	0	596	489	1021	0	0	0	
9	0	0	0	0	595	475	1021	0	0	0	
10	0	0	0	0	591	465	1021	0	0	0	
11	0	0	0	0	585	460	1021	0	0	0	
12	0	0	0	0	576	461	1021	0	0	0	
13	0	0	0	0	565	466	1021	0	0	0	
14	0	0	0	0	553	477	1021	0	0	0	
15	0	0	0	0	542	491	1021	0	0	0	
0	0	0	0	0	531	507	1021	0	0	0	
1	0	0	0	0	524	525	1020	0	0	0	
2	0	0	0	0	520	542	1021	0	0	0	
3	0	0	0	0	520	556	1021	0	0	0	
4	0	0	0	0	523	566	1021	0	0	0	
5	0	0	0	0	529	569	1021	0	0	0	
6	0	0	0	0	537	568	1021	0	0	0	
7	0	0	0	0	547	561	1021	0	0	0	
8	0	0	0	0	556	548	1021	0	0	0	
9	0	0	0	0	564	531	1021	0	0	0	
10	0	0	0	0	570	510	1021	0	0	0	
11	0	0	0	0	573	488	1021	0	0	0	
12	0	0	0	0	572	466	1021	0	0	0	
13	0	0	0	0	568	448	1021	0	0	0	
14	0	0	0	0	560	434	1021	0	0	0	
15	0	0	0	0	550	425	1021	0	0	0	
0	0	0	0	0	539	423	1021	0	0	0	
1	0	0	0	0	526	428	1021	0	0	0	
2	0	0	0	0	515	438	1020	0	0	0	
3	0	0	0	0	504	454	1021	0	0	0	
4	0	0	0	0	497	473	1021	0	0	0	
5	0	0	0	0	492	494	1021	0	0	0	
6	0	0	0	0	492	514	1021	0	0	0	
7	0	0	0	0	495	531	1021	0	0	0	
8	0	0	0	0	502	545	1021	0	0	0	
9	0	0	0	0	512	553	1021	0	0	0	
10	0	0	0	0	524	554	1021	0	0	0	
11	0	0	0	0	537	550	1021	0	0	0	
12	0	0	0	0	549	540	1021	0	0	0	
13	0	0	0	0	560	524	1021	0	0	0	
14	0	0	0	0	568	505	1021	0	0	0	
15	0	0	0	0	573	485	1021	0	0	0	
0	0	0	0	0	575	465	1021	0	0	0	
1	0	0	0	0	572	448	1021	0	0	0	
2	0	0	0	0	567	435	1021	0	0	0	
3	0	0	0	0	558	427	1021	0	0	0	
4	0	0	0	0	547	425	1021	0	0	0	
5	0	0	0	0	537	431	1021	0	0	0	
6	0	0	0	0	526	441	1021	0	0	0	
7	0	0	0	0	516	457	1020	0	0	0	
8	0	0	0	0	508	475	1021	0	0	0	
9	0	0	0	0	504	496	1021	0	0	0	
10	0	0	0	0	503	515	1021	0	0	0	
11	0	0	0	0	504	531	1021	0	0	0	
12	0	0	0	0	510	544	1021	0	0	0	
13	0	0	0	0	518	551	1021	0	0	0	
14	0	0	0	0	528	551	1021	0	0	0	
15	0	0	0	0	539	547	1020	0	0	0	
0	0	0	0	0	550	536	1021	0	0	0	
1	0	0	0	0	560	521	1021	0	0	0	
2	0	0	0	0	567	504	1021	0	0	0	
3	0	0	0	0	572	485	1021	0	0	0	
4	0	0	0	0	573	466	1021	0	0	0	
5	0	0	0	0	571	450	1021	0	0	0	
6	0	0	0	0	566	439	1021	0	0	0	
7	0	0	0	0	558	432	1021	0	0	0	
8	0	0	0	0	548	432	1021	0	0	0	
9	0	0	0	0	537	438	1021	0	0	0	
10	0	0	0	0	527	449	1021	0	0	0	
11	0	0	0	0	518	465	1021	0	0	0	
12	0	0	0	0	512	485	1021	0	0	0	
13	0	0	0	0	508	506	1020	0	0	0	
14	0	0	0	0	510	526	1021	0	0	0	
15	0	0	0	0	514	544	1021	0	0	0	
0	0	0	0	0	523	558	1020	0	0	0	
1	0	0	0	0	534	567	1021	0	0	0	
2	0	0	0	0	547	569	1021	0	0	0	
3	0	0	0	0	560	566	1021	0	0	0	
4	0	0	0	0	572	556	1021	0	0	0	
5	0	0	0	0	583	542	1021	0	0	0	
6	0	0	0	0	591	524	1021	0	0	0	
7	0	0	0	0	595	503	1021	0	0	0	
8	0	0	0	0	594	483	1021	0	0	0	
9	0	0	0	0	590	464	1021	0	0	0	
10	0	0	0	0	580	449	1021	0	0	0	
11	0	0	0	0	569	440	1021	0	0	0	
12	0	0	0	0	555	437	1020	0	0	0	
13	0	0	0	0	542	440	1021	0	0	0	
14	0	0	0	0	528	449	1021	0	0	0	
15	0	0	0	0	516	464	1021	0	0	0	
0	0	0	0	0	508	482	1021	0	0	0	
1	0	0	0	0	502	502	1021	0	0	0	
2	0	0	0	0	502	521	1021	0	0	0	
3	0	0	0	0	504	538	1021	0	0	0	
4	0	0	0	0	510	551	1021	0	0	0	
5	0	0	0	0	519	558	1021	0	0	0	
6	0	0	0	0	529	558	1021	0	0	0	
7	0	0	0	0	540	553	1021	0	0	0	
8	0	0	0	0	552	542	1021	0	0	0	
9	0	0	0	0	563	527	1021	0	0	0	
10	0	0	0	0	572	510	1021	0	0	0	
11	0	0	0	0	578	490	1021	0	0	0	
12	0	0	0	0	580	471	1021	0	0	0	
13	0	0	0	0	579	455	1021	0	0	0	
14	0	0	0	0	575	443	1021	0	0	0	
15	0	0	0	0	568	436	1021	0	0	0	
0	0	0	0	0	558	436	1021	0	0	0	
1	0	0	0	0	547	442	1021	0	0	0	
2	0	0	0	0	537	453	1021	0	0	0	
3	0	0	0	0	527	470	1021	0	0	0	
4	0	0	0	0	520	490	1021	0	0	0	
5	0	0	0	0	515	511	1021	0	0	0	
6	0	0	0	0	514	531	1021	0	0	0	
7	0	0	0	0	516	548	1021	0	0	0	
8	0	0	0	0	520	560	1021	0	0	0	
9	0	0	0	0	527	566	1021	0	0	0	
10	0	0	0	0	536	565	1021	0	0	0	
11	0	0	0	0	544	557	1021	0	0	0	
12	0	0	0	0	553	543	1020	0	0	0	
13	0	0	0	0	559	525	1021	0	0	0	
14	0	0	0	0	563	502	1021	0	0	0	
15	0	0	0	0	563	477	1021	0	0	0	
0	0	0	0	0	559	452	1021	0	0	0	
1	0	0	0	0	551	430	1021	0	0	0	
2	0	0	0	0	540	412	1021	0	0	0	
3	0	0	0	0	525	399	1021	0	0	0	
4	0	0	0	0	509	391	1021	0	0	0	
5	0	0	0	0	491	389	1021	0	0	0	
6	0	0	0	0	472	393	1021	0	0	0	
7	0	0	0	0	455	401	1020	0	0	0	
8	0	0	0	0	439	411	1021	0	0	0	
9	0	0	0	0	425	423	1021	0	0	0	
10	0	0	0	0	415	433	1020	0	0	0	
11	0	0	0	0	408	440	1020	0	0	0	
12	0	0	0	0	403	443	1021	0	0	0	
13	0	0	0	0	402	440	1021	0	0	0	
14	0	0	0	0	402	430	1021	0	0	0	
15	0	0	0	0	403	415	1020	0	0	0	
0	0	0	0	0	404	393	1021	0	0	0	
1	0	0	0	0	404	368	1021	0	0	0	
2	0	0	0	0	403	339	1021	0	0	0	
3	0	0	0	0	399	309	1021	0	0	0	
4	0	0	0	0	391	280	1020	0	0	0	
5	0	0	0	0	383	255	1021	0	0	0	
6	0	0	0	0	372	235	1021	0	0	0	
7	0	0	0	0	360	223	1021	0	0	0	
8	0	0	0	0	349	219	1021	0	0	0	
9	0	0	0	0	338	223	1020	0	0	0	
10	0	0	0	0	331	237	1021	0	0	0	
11	0	0	0	0	327	259	1021	0	0	0	
12	0	0	0	0	328	287	1021	0	0	0	
13	0	0	0	0	335	320	1021	0	0	0	
14	0	0	0	0	348	355	1021	0	0	0	
15	0	0	0	0	367	390	1021	0	0	0	
0	0	0	0	0	391	422	1021	0	0	0	
1	0	0	0	0	419	449	1021	0	0	0	
2	0	0	0	0	449	470	1020	0	0	0	
3	0	0	0	0	480	483	1021	0	0	0	
4	0	0	0	0	510	489	1021	0	0	0	
5	0	0	0	0	537	490	1021	0	0	0	
6	0	0	0	0	562	486	1021	0	0	0	
7	0	0	0	0	581	477	1021	0	0	0	
8	0	0	0	0	594	467	1021	0	0	0	
9	0	0	0	0	601	459	1021	0	0	0	
10	0	0	0	0	603	452	1021	0	0	0	
11	0	0	0	0	599	450	1021	0	0	0	
12	0	0	0	0	591	453	1020	0	0	0	
13	0	0	0	0	580	460	1021	0	0	0	
14	0	0	0	0	567	472	1021	0	0	0	
15	0	0	0	0	554	487	1021	0	0	0	
0	0	0	0	0	542	505	1021	0	0	0	
1	0	0	0	0	533	524	1021	0	0	0	
2	0	0	0	0	526	542	1021	0	0	0	
3	0	0	0	0	523	558	1020	0	0	0	
4	0	0	0	0	524	568	1021	0	0	0	
5	0	0	0	0	529	574	1021	0	0	0	
6	0	0	0	0	536	573	1021	0	0	0	
7	0	0	0	0	544	566	1021	0	0	0	
8	0	0	0	0	554	553	1021	0	0	0	
9	0	0	0	0	563	536	1021	0	0	0	
10	0	0	0	0	571	517	1021	0	0	0	
11	0	0	0	0	577	496	1020	0	0	0	
12	0	0	0	0	580	476	1021	0	0	0	
13	0	0	0	0	580	458	1021	0	0	0	
14	0	0	0	0	576	445	1021	0	0	0	
15	0	0	0	0	570	438	1021	0	0	0	
0	0	0	0	0	562	437	1021	0	0	0	
1	0	0	0	0	552	442	1020	0	0	0	
2	0	0	0	0	542	452	1020	0	0	0	
3	0	0	0	0	533	468	1021	0	0	0	
4	0	0	0	0	526	488	1021	0	0	0	
5	0	0	0	0	521	509	1021	0	0	0	
6	0	0	0	0	519	529	1021	0	0	0	
7	0	0	0	0	521	547	1021	0	0	0	
8	0	0	0	0	527	560	1020	0	0	0	
9	0	0	0	0	535	568	1021	0	0	0	
10	0	0	0	0	545	569	1021	0	0	0	
11	0	0	0	0	555	564	1021	0	0	0	
12	0	0	0	0	567	554	1021	0	0	0	
13	0	0	0	0	576	539	1021	0	0	0	
14	0	0	0	0	585	521	1021	0	0	0	
15	0	0	0	0	590	501	1021	0	0	0	
0	0	0	0	0	592	481	1020	0	0	0	
1	0	0	0	0	591	464	1021	0	0	0	
2	0	0	0	0	587	452	1021	0	0	0	
3	0	0	0	0	580	446	1021	0	0	0	
4	0	0	0	0	571	446	1021	0	0	0	
5	0	0	0	0	561	451	1021	0	0	0	
6	0	0	0	0	551	463	1021	0	0	0	
7	0	0	0	0	543	480	1021	0	0	0	
8	0	0	0	0	536	500	1021	0	0	0	
9	0	0	0	0	532	522	1021	0	0	0	
10	0	0	0	0	531	542	1021	0	0	0	
11	0	0	0	0	532	559	1021	0	0	0	
12	0	0	0	0	536	571	1021	0	0	0	
13	0	0	0	0	542	575	1021	0	0	0	
14	0	0	0	0	548	574	1021	0	0	0	
15	0	0	0	0	556	566	1021	0	0	0	
0	0	0	0	0	563	552	1021	0	0	0	
1	0	0	0	0	569	534	1021	0	0	0	
2	0	0	0	0	574	512	1021	0	0	0	
3	0	0	0	0	576	490	1021	0	0	0	
4	0	0	0	0	576	469	1021	0	0	0	
5	0	0	0	0	574	451	1021	0	0	0	
6	0	0	0	0	569	439	1021	0	0	0	
7	0	0	0	0	563	432	1021	0	0	0	
8	0	0	0	0	556	432	1021	0	0	0	
9	0	0	0	0	548	439	1021	0	0	0	
10	0	0	0	0	540	452	1021	0	0	0	
11	0	0	0	0	534	471	1021	0	0	0	
12	0	0	0	0	530	492	1021	0	0	0	
13	0	0	0	0	527	514	1021	0	0	0	
14	0	0	0	0	528	535	1020	0	0	0	
15	0	0	0	0	531	553	1021	0	0	0	
0	0	0	0	0	536	566	1021	0	0	0	
1	0	0	0	0	543	573	1021	0	0	0	
2	0	0	0	0	551	572	1021	0	0	0	
3	0	0	0	0	559	566	1021	0	0	0	
4	0	0	0	0	567	553	1021	0	0	0	
5	0	0	0	0	573	535	1021	0	0	0	
6	0	0	0	0	577	514	1021	0	0	0	
7	0	0	0	0	579	491	1021	0	0	0	
8	0	0	0	0	577	470	1021	0	0	0	
9	0	0	0	0	572	451	1021	0	0	0	
10	0	0	0	0	566	436	1021	0	0	0	
11	0	0	0	0	556	428	1021	0	0	0	
12	0	0	0	0	546	426	1020	0	0	0	
13	0	0	0	0	536	431	1021	0	0	0	
14	0	0	0	0	526	442	1021	0	0	0	
15	0	0	0	0	518	459	1021	0	0	0	
0	0	0	0	0	512	479	1021	0	0	0	
1	0	0	0	0	510	502	1021	0	0	0	
2	0	0	0	0	512	524	1021	0	0	0	
3	0	0	0	0	518	544	1021	0	0	0	
4	0	0	0	0	527	560	1021	0	0	0	
5	0	0	0	0	538	569	1021	0	0	0	
6	0	0	0	0	551	572	1021	0	0	0	
7	0	0	0	0	563	568	1021	0	0	0	
8	0	0	0	0	575	558	1021	0	0	0	
9	0	0	0	0	585	543	1021	0	0	0	
10	0	0	0	0	592	524	1021	0	0	0	
11	0	0	0	0	596	503	1021	0	0	0	
12	0	0	0	0	595	481	1021	0	0	0	
13	0	0	0	0	591	462	1021	0	0	0	
14	0	0	0	0	582	448	1021	0	0	0	
15	0	0	0	0	572	438	1021	0	0	0	
0	0	0	0	0	560	435	1021	0	0	0	
1	0	0	0	0	547	439	1021	0	0	0	
2	0	0	0	0	534	448	1021	0	0	0	
3	0	0	0	0	524	463	1021	0	0	0	
4	0	0	0	0	515	481	1021	0	0	0	
5	0	0	0	0	510	501	1021	0	0	0	
6	0	0	0	0	508	521	1020	0	0	0	
7	0	0	0	0	511	539	1021	0	0	0	
8	0	0	0	0	516	551	1021	0	0	0	
9	0	0	0	0	525	559	1021	0	0	0	
10	0	0	0	0	536	560	1021	0	0	0	
11	0	0	0	0	547	555	1021	0	0	0	
12	0	0	0	0	557	545	1021	0	0	0	
13	0	0	0	0	567	530	1021	0	0	0	
14	0	0	0	0	575	511	1021	0	0	0	
15	0	0	0	0	580	491	1021	0	0	0	
0	0	0	0	0	582	471	1021	0	0	0	
1	0	0	0	0	580	454	1020	0	0	0	
2	0	0	0	0	575	441	1021	0	0	0	
3	0	0	0	0	566	433	1021	0	0	0	
4	0	0	0	0	556	432	1021	0	0	0	
5	0	0	0	0	544	436	1021	0	0	0	
6	0	0	0	0	533	446	1021	0	0	0	
7	0	0	0	0	523	462	1021	0	0	0	
8	0	0	0	0	515	480	1021	0	0	0	
9	0	0	0	0	511	501	1021	0	0	0	
10	0	0	0	0	509	521	1021	0	0	0	
11	0	0	0	0	512	538	1020	0	0	0	
12	0	0	0	0	518	551	1021	0	0	0	
13	0	0	0	0	527	559	1021	0	0	0	
14	0	0	0	0	537	561	1021	0	0	0	
15	0	0	0	0	549	556	1021	0	0	0	
0	0	0	0	0	561	546	1021	0	0	0	
1	0	0	0	0	571	531	1021	0	0	0	
2	0	0	0	0	579	512	1021	0	0	0	
3	0	0	0	0	584	492	1021	0	0	0	
4	0	0	0	0	586	472	1020	0	0	0	
5	0	0	0	0	583	454	1021	0	0	0	
6	0	0	0	0	577	441	1020	0	0	0	
7	0	0	0	0	568	433	1021	0	0	0	
8	0	0	0	0	557	431	1021	0	0	0	
9	0	0	0	0	545	436	1021	0	0	0	
10	0	0	0	0	532	446	1021	0	0	0	
11	0	0	0	0	521	462	1021	0	0	0	
12	0	0	0	0	513	480	1021	0	0	0	
13	0	0	0	0	508	500	1021	0	0	0	
14	0	0	0	0	506	521	1021	0	0	0	
15	0	0	0	0	509	540	1021	0	0	0	
0	0	0	0	0	515	553	1021	0	0	0	
1	0	0	0	0	525	561	1021	0	0	0	
2	0	0	0	0	536	563	1021	0	0	0	
3	0	0	0	0	548	559	1021	0	0	0	
4	0	0	0	0	560	549	1021	0	0	0	
5	0	0	0	0	571	534	1021	0	0	0	
6	0	0	0	0	579	515	1021	0	0	0	
7	0	0	0	0	584	495	1021	0	0	0	
8	0	0	0	0	585	474	1021	0	0	0	
9	0	0	0	0	583	456	1021	0	0	0	
10	0	0	0	0	576	443	1021	0	0	0	
11	0	0	0	0	568	433	1021	0	0	0	
12	0	0	0	0	556	431	1021	0	0	0	
13	0	0	0	0	545	435	1021	0	0	0	
14	0	0	0	0	534	445	1021	0	0	0	
15	0	0	0	0	524	461	1021	0	0	0	
0	0	0	0	0	518	481	1021	0	0	0	
1	0	0	0	0	514	504	1020	0	0	0	
2	0	0	0	0	515	525	1021	0	0	0	
3	0	0	0	0	519	545	1020	0	0	0	
4	0	0	0	0	527	560	1021	0	0	0	
5	0	0	0	0	536	568	1021	0	0	0	
6	0	0	0	0	545	569	1021	0	0	0	
7	0	0	0	0	553	562	1021	0	0	0	
8	0	0	0	0	561	549	1020	0	0	0	
9	0	0	0	0	566	530	1021	0	0	0	
10	0	0	0	0	569	507	1021	0	0	0	
11	0	0	0	0	569	482	1021	0	0	0	
12	0	0	0	0	565	458	1021	0	0	0	
13	0	0	0	0	559	437	1020	0	0	0	
14	0	0	0	0	551	421	1021	0	0	0	
15	0	0	0	0	541	411	1021	0	0	0	
0	0	0	0	0	530	409	1021	0	0	0	
1	0	0	0	0	520	413	1021	0	0	0	
2	0	0	0	0	510	424	1021	0	0	0	
3	0	0	0	0	504	441	1021	0	0	0	
4	0	0	0	0	499	463	1021	0	0	0	
5	0	0	0	0	498	487	1020	0	0	0	
6	0	0	0	0	502	511	1021	0	0	0	
7	0	0	0	0	508	532	1021	0	0	0	
8	0	0	0	0	517	548	1021	0	0	0	
9	0	0	0	0	528	559	1021	0	0	0	
10	0	0	0	0	540	562	1021	0	0	0	
11	0	0	0	0	551	558	1021	0	0	0	
12	0	0	0	0	562	547	1021	0	0	0	
13	0	0	0	0	571	531	1021	0	0	0	
14	0	0	0	0	576	511	1021	0	0	0	
15	0	0	0	0	579	489	1021	0	0	0	
0	0	0	0	0	579	467	1021	0	0	0	
1	0	0	0	0	574	447	1021	0	0	0	
2	0	0	0	0	566	432	1021	0	0	0	
3	0	0	0	0	556	422	1021	0	0	0	
4	0	0	0	0	544	419	1021	0	0	0	
5	0	0	0	0	531	422	1021	0	0	0	
6	0	0	0	0	519	432	1021	0	0	0	
7	0	0	0	0	508	447	1021	0	0	0	
8	0	0	0	0	502	467	1021	0	0	0	
9	0	0	0	0	497	488	1020	0	0	0	
10	0	0	0	0	498	509	1021	0	0	0	
11	0	0	0	0	502	529	1021	0	0	0	
12	0	0	0	0	510	544	1021	0	0	0	
13	0	0	0	0	521	554	1021	0	0	0	
14	0	0	0	0	534	557	1021	0	0	0	
15	0	0	0	0	547	555	1021	0	0	0	
0	0	0	0	0	561	546	1021	0	0	0	
1	0	0	0	0	572	532	1021	0	0	0	
2	0	0	0	0	582	515	1021	0	0	0	
3	0	0	0	0	587	495	1020	0	0	0	
4	0	0	0	0	589	474	1021	0	0	0	
5	0	0	0	0	587	456	1021	0	0	0	
6	0	0	0	0	580	442	1021	0	0	0	
7	0	0	0	0	571	433	1021	0	0	0	
8	0	0	0	0	558	430	1020	0	0	0	
9	0	0	0	0	546	433	1021	0	0	0	
10	0	0	0	0	533	441	1020	0	0	0	
11	0	0	0	0	521	455	1021	0	0	0	
12	0	0	0	0	512	473	1021	0	0	0	
13	0	0	0	0	506	492	1020	0	0	0	
14	0	0	0	0	504	511	1021	0	0	0	
15	0	0	0	0	505	527	1021	0	0	0	
0	0	0	0	0	511	540	1021	0	0	0	
1	0	0	0	0	519	548	1021	0	0	0	
2	0	0	0	0	530	550	1020	0	0	0	
3	0	0	0	0	541	545	1021	0	0	0	
4	0	0	0	0	553	535	1020	0	0	0	
5	0	0	0	0	563	520	1021	0	0	0	
6	0	0	0	0	572	502	1021	0	0	0	
7	0	0	0	0	577	483	1021	0	0	0	
8	0	0	0	0	579	463	1021	0	0	0	
9	0	0	0	0	577	446	1021	0	0	0	
10	0	0	0	0	572	433	1021	0	0	0	
11	0	0	0	0	563	425	1021	0	0	0	
12	0	0	0	0	553	423	1021	0	0	0	
13	0	0	0	0	541	428	1021	0	0	0	
14	0	0	0	0	529	438	1021	0	0	0	
15	0	0	0	0	519	454	1021	0	0	0	
0	0	0	0	0	511	473	1021	0	0	0	
1	0	0	0	0	507	494	1021	0	0	0	
2	0	0	0	0	507	514	1021	0	0	0	
3	0	0	0	0	509	532	1021	0	0	0	
4	0	0	0	0	516	546	1021	0	0	0	
5	0	0	0	0	525	554	1021	0	0	0	
6	0	0	0	0	536	555	1021	0	0	0	
7	0	0	0	0	548	551	1021	0	0	0	
8	0	0	0	0	560	540	1021	0	0	0	
9	0	0	0	0	571	525	1021	0	0	0	
10	0	0	0	0	578	505	1021	0	0	0	
11	0	0	0	0	583	485	1021	0	0	0	
12	0	0	0	0	584	464	1021	0	0	0	
13	0	0	0	0	580	446	1021	0	0	0	
14	0	0	0	0	574	432	1021	0	0	0	
15	0	0	0	0	564	424	1021	0	0	0	
0	0	0	0	0	553	422	1021	0	0	0	
1	0	0	0	0	542	427	1021	0	0	0	
2	0	0	0	0	529	437	1021	0	0	0	
3	0	0	0	0	519	453	1021	0	0	0	
4	0	0	0	0	512	472	1021	0	0	0	
5	0	0	0	0	507	494	1021	0	0	0	
6	0	0	0	0	507	515	1021	0	0	0	
7	0	0	0	0	510	534	1021	0	0	0	
8	0	0	0	0	517	548	1021	0	0	0	
9	0	0	0	0	527	558	1021	0	0	0	
10	0	0	0	0	539	560	1021	0	0	0	
11	0	0	0	0	552	557	1021	0	0	0	
12	0	0	0	0	564	547	1021	0	0	0	
13	0	0	0	0	576	533	1021	0	0	0	
14	0	0	0	0	585	515	1021	0	0	0	
15	0	0	0	0	591	494	1021	0	0	0	
0	0	0	0	0	593	474	1021	0	0	0	
1	0	0	0	0	592	456	1021	0	0	0	
2	0	0	0	0	587	442	1021	0	0	0	
3	0	0	0	0	579	434	1021	0	0	0	
4	0	0	0	0	568	432	1021	0	0	0	
5	0	0	0	0	556	435	1021	0	0	0	
6	0	0	0	0	543	445	1021	0	0	0	
7	0	0	0	0	531	460	1021	0	0	0	
8	0	0	0	0	521	480	1021	0	0	0	
9	0	0	0	0	515	500	1021	0	0	0	
10	0	0	0	0	512	520	1021	0	0	0	
11	0	0	0	0	512	537	1021	0	0	0	
12	0	0	0	0	517	551	1021	0	0	0	
13	0	0	0	0	524	558	1021	0	0	0	
14	0	0	0	0	533	558	1021	0	0	0	
15	0	0	0	0	543	552	1021	0	0	0	
0	0	0	0	0	552	541	1021	0	0	0	
1	0	0	0	0	561	525	1021	0	0	0	
2	0	0	0	0	568	504	1021	0	0	0	
3	0	0	0	0	573	483	1021	0	0	0	
4	0	0	0	0	575	463	1021	0	0	0	
5	0	0	0	0	573	445	1020	0	0	0	
6	0	0	0	0	568	432	1021	0	0	0	
7	0	0	0	0	561	424	1021	0	0	0	
8	0	0	0	0	552	423	1021	0	0	0	
9	0	0	0	0	541	427	1021	0	0	0	
10	0	0	0	0	530	437	1020	0	0	0	
11	0	0	0	0	521	452	1021	0	0	0	
12	0	0	0	0	513	472	1021	0	0	0	
13	0	0	0	0	508	493	1021	0	0	0	
14	0	0	0	0	507	513	1021	0	0	0	
15	0	0	0	0	509	532	1020	0	0	0	
0	0	0	0	0	516	547	1021	0	0	0	
1	0	0	0	0	525	556	1021	0	0	0	
2	0	0	0	0	536	558	1021	0	0	0	
3	0	0	0	0	547	554	1021	0	0	0	
4	0	0	0	0	559	543	1020	0	0	0	
5	0	0	0	0	568	527	1021	0	0	0	
6	0	0	0	0	575	507	1021	0	0	0	
7	0	0	0	0	578	485	1021	0	0	0	
8	0	0	0	0	576	462	1021	0	0	0	
9	0	0	0	0	572	441	1020	0	0	0	
10	0	0	0	0	563	425	1021	0	0	0	
11	0	0	0	0	552	415	1021	0	0	0	
12	0	0	0	0	540	412	1021	0	0	0	
13	0	0	0	0	527	415	1021	0	0	0	
14	0	0	0	0	516	425	1020	0	0	0	
15	0	0	0	0	507	441	1021	0	0	0	
0	0	0	0	0	499	461	1021	0	0	0	
1	0	0	0	0	495	483	1021	0	0	0	
2	0	0	0	0	494	504	1021	0	0	0	
3	0	0	0	0	497	522	1020	0	0	0	
4	0	0	0	0	503	536	1021	0	0	0	
5	0	0	0	0	511	544	1021	0	0	0	
6	0	0	0	0	522	545	1021	0	0	0	
7	0	0	0	0	532	540	1021	0	0	0	
8	0	0	0	0	543	529	1020	0	0	0	
9	0	0	0	0	552	513	1021	0	0	0	
10	0	0	0	0	559	494	1021	0	0	0	
11	0	0	0	0	563	472	1021	0	0	0	
12	0	0	0	0	562	451	1021	0	0	0	
13	0	0	0	0	559	433	1020	0	0	0	
14	0	0	0	0	553	419	1021	0	0	0	
15	0	0	0	0	544	411	1021	0	0	0	
0	0	0	0	0	534	409	1021	0	0	0	
1	0	0	0	0	523	413	1021	0	0	0	
2	0	0	0	0	513	424	1020	0	0	0	
3	0	0	0	0	504	440	1021	0	0	0	
4	0	0	0	0	498	459	1021	0	0	0	
5	0	0	0	0	495	480	1021	0	0	0	
6	0	0	0	0	495	501	1020	0	0	0	
7	0	0	0	0	498	520	1020	0	0	0	
8	0	0	0	0	505	534	1021	0	0	0	
9	0	0	0	0	515	543	1021	0	0	0	
10	0	0	0	0	526	545	1021	0	0	0	
11	0	0	0	0	537	541	1021	0	0	0	
12	0	0	0	0	548	530	1020	0	0	0	
13	0	0	0	0	558	515	1021	0	0	0	
14	0	0	0	0	565	497	1021	0	0	0	
15	0	0	0	0	568	476	1021	0	0	0	
0	0	0	0	0	568	455	1021	0	0	0	
1	0	0	0	0	565	437	1020	0	0	0	
2	0	0	0	0	559	423	1021	0	0	0	
3	0	0	0	0	549	414	1021	0	0	0	
4	0	0	0	0	537	412	1021	0	0	0	
5	0	0	0	0	525	415	1021	0	0	0	
6	0	0	0	0	513	425	1020	0	0	0	
7	0	0	0	0	503	440	1021	0	0	0	
8	0	0	0	0	495	458	1021	0	0	0	
9	0	0	0	0	489	478	1021	0	0	0	
10	0	0	0	0	488	498	1021	0	0	0	
11	0	0	0	0	491	516	1020	0	0	0	
12	0	0	0	0	497	529	1021	0	0	0	
13	0	0	0	0	506	537	1021	0	0	0	
14	0	0	0	0	516	539	1021	0	0	0	
15	0	0	0	0	528	535	1021	0	0	0	
0	0	0	0	0	539	524	1021	0	0	0	
1	0	0	0	0	548	508	1021	0	0	0	
2	0	0	0	0	556	489	1021	0	0	0	
3	0	0	0	0	560	469	1021	0	0	0	
4	0	0	0	0	561	449	1021	0	0	0	
5	0	0	0	0	559	431	1021	0	0	0	
6	0	0	0	0	553	418	1021	0	0	0	
7	0	0	0	0	546	411	1021	0	0	0	
8	0	0	0	0	537	410	1020	0	0	0	
9	0	0	0	0	529	417	1021	0	0	0	
10	0	0	0	0	520	429	1021	0	0	0	
11	0	0	0	0	513	447	1021	0	0	0	
12	0	0	0	0	508	468	1021	0	0	0	
13	0	0	0	0	506	491	1021	0	0	0	
14	0	0	0	0	508	514	1021	0	0	0	
15	0	0	0	0	512	534	1021	0	0	0	
0	0	0	0	0	519	549	1021	0	0	0	
1	0	0	0	0	528	558	1021	0	0	0	
2	0	0	0	0	539	560	1021	0	0	0	
3	0	0	0	0	549	555	1021	0	0	0	
4	0	0	0	0	557	543	1021	0	0	0	
5	0	0	0	0	564	525	1021	0	0	0	
6	0	0	0	0	568	503	1021	0	0	0	
7	0	0	0	0	568	479	1021	0	0	0	
8	0	0	0	0	564	454	1021	0	0	0	
9	0	0	0	0	556	432	1021	0	0	0	
10	0	0	0	0	546	414	1021	0	0	0	
11	0	0	0	0	534	402	1021	0	0	0	
12	0	0	0	0	520	398	1021	0	0	0	
13	0	0	0	0	508	400	1021	0	0	0	
14	0	0	0	0	495	409	1021	0	0	0	
15	0	0	0	0	485	423	1021	0	0	0	
0	0	0	0	0	478	443	1021	0	0	0	
1	0	0	0	0	475	464	1021	0	0	0	
2	0	0	0	0	476	485	1020	0	0	0	
3	0	0	0	0	481	505	1021	0	0	0	
4	0	0	0	0	489	521	1021	0	0	0	
5	0	0	0	0	501	531	1021	0	0	0	
6	0	0	0	0	514	536	1021	0	0	0	
7	0	0	0	0	528	533	1021	0	0	0	
8	0	0	0	0	541	525	1021	0	0	0	
9	0	0	0	0	552	512	1021	0	0	0	
10	0	0	0	0	561	495	1021	0	0	0	
11	0	0	0	0	566	476	1021	0	0	0	
12	0	0	0	0	568	456	1021	0	0	0	
13	0	0	0	0	565	439	1021	0	0	0	
14	0	0	0	0	559	425	1021	0	0	0	
15	0	0	0	0	550	418	1021	0	0	0	
0	0	0	0	0	539	415	1020	0	0	0	
1	0	0	0	0	527	419	1021	0	0	0	
2	0	0	0	0	515	429	1021	0	0	0	
3	0	0	0	0	505	444	1021	0	0	0	
4	0	0	0	0	497	461	1021	0	0	0	
5	0	0	0	0	492	482	1021	0	0	0	
6	0	0	0	0	492	503	1021	0	0	0	
7	0	0	0	0	496	520	1020	0	0	0	
8	0	0	0	0	503	534	1021	0	0	0	
9	0	0	0	0	512	542	1021	0	0	0	
10	0	0	0	0	524	544	1021	0	0	0	
11	0	0	0	0	536	540	1021	0	0	0	
12	0	0	0	0	548	530	1021	0	0	0	
13	0	0	0	0	558	515	1021	0	0	0	
14	0	0	0	0	566	497	1021	0	0	0	
15	0	0	0	0	570	476	1021	0	0	0	
0	0	0	0	0	569	456	1021	0	0	0	
1	0	0	0	0	566	438	1021	0	0	0	
2	0	0	0	0	559	424	1021	0	0	0	
3	0	0	0	0	549	415	1021	0	0	0	
4	0	0	0	0	537	413	1021	0	0	0	
5	0	0	0	0	525	416	1021	0	0	0	
6	0	0	0	0	513	426	1021	0	0	0	
7	0	0	0	0	504	441	1021	0	0	0	
8	0	0	0	0	496	460	1021	0	0	0	
9	0	0	0	0	492	481	1021	0	0	0	
10	0	0	0	0	492	502	1021	0	0	0	
11	0	0	0	0	496	520	1021	0	0	0	
12	0	0	0	0	503	535	1021	0	0	0	
13	0	0	0	0	512	544	1021	0	0	0	
14	0	0	0	0	525	547	1021	0	0	0	
15	0	0	0	0	537	543	1021	0	0	0	
0	0	0	0	0	550	535	1021	0	0	0	
1	0	0	0	0	560	521	1021	0	0	0	
2	0	0	0	0	569	503	1021	0	0	0	
3	0	0	0	0	574	483	1020	0	0	0	
4	0	0	0	0	573	461	1021	0	0	0	
5	0	0	0	0	569	442	1021	0	0	0	
6	0	0	0	0	561	427	1021	0	0	0	
7	0	0	0	0	550	416	1021	0	0	0	
8	0	0	0	0	536	412	1020	0	0	0	
9	0	0	0	0	523	414	1021	0	0	0	
10	0	0	0	0	510	422	1021	0	0	0	
11	0	0	0	0	498	435	1021	0	0	0	
12	0	0	0	0	489	454	1021	0	0	0	
13	0	0	0	0	484	474	1021	0	0	0	
14	0	0	0	0	484	494	1021	0	0	0	
15	0	0	0	0	487	513	1020	0	0	0	
0	0	0	0	0	495	528	1021	0	0	0	
1	0	0	0	0	504	537	1021	0	0	0	
2	0	0	0	0	517	541	1021	0	0	0	
3	0	0	0	0	529	539	1021	0	0	0	
4	0	0	0	0	542	530	1020	0	0	0	
5	0	0	0	0	553	516	1021	0	0	0	
6	0	0	0	0	561	498	1021	0	0	0	
7	0	0	0	0	567	478	1021	0	0	0	
8	0	0	0	0	568	457	1021	0	0	0	
9	0	0	0	0	565	439	1020	0	0	0	
10	0	0	0	0	559	424	1021	0	0	0	
11	0	0	0	0	549	415	1021	0	0	0	
12	0	0	0	0	538	411	1021	0	0	0	
13	0	0	0	0	525	412	1021	0	0	0	
14	0	0	0	0	512	421	1021	0	0	0	
15	0	0	0	0	502	434	1021	0	0	0	
0	0	0	0	0	492	451	1021	0	0	0	
1	0	0	0	0	487	471	1021	0	0	0	
2	0	0	0	0	484	491	1021	0	0	0	
3	0	0	0	0	486	508	1020	0	0	0	
4	0	0	0	0	492	523	1021	0	0	0	
5	0	0	0	0	501	532	1021	0	0	0	
6	0	0	0	0	511	535	1021	0	0	0	
7	0	0	0	0	523	532	1021	0	0	0	
8	0	0	0	0	535	524	1020	0	0	0	
9	0	0	0	0	546	511	1021	0	0	0	
10	0	0	0	0	555	495	1021	0	0	0	
11	0	0	0	0	561	476	1021	0	0	0	
12	0	0	0	0	563	457	1021	0	0	0	
13	0	0	0	0	562	440	1020	0	0	0	
14	0	0	0	0	558	426	1021	0	0	0	
15	0	0	0	0	550	417	1021	0	0	0	
0	0	0	0	0	540	415	1021	0	0	0	
1	0	0	0	0	529	418	1021	0	0	0	
2	0	0	0	0	519	428	1020	0	0	0	
3	0	0	0	0	509	442	1021	0	0	0	
4	0	0	0	0	502	460	1021	0	0	0	
5	0	0	0	0	497	480	1021	0	0	0	
6	0	0	0	0	496	501	1021	0	0	0	
7	0	0	0	0	498	519	1021	0	0	0	
8	0	0	0	0	504	533	1021	0	0	0	
9	0	0	0	0	513	542	1021	0	0	0	
10	0	0	0	0	524	545	1021	0	0	0	
11	0	0	0	0	536	543	1021	0	0	0	
12	0	0	0	0	548	535	1021	0	0	0	
13	0	0	0	0	559	521	1021	0	0	0	
14	0	0	0	0	568	504	1021	0	0	0	
15	0	0	0	0	574	485	1020	0	0	0	
0	0	0	0	0	577	467	1021	0	0	0	
1	0	0	0	0	577	450	1021	0	0	0	
2	0	0	0	0	573	438	1021	0	0	0	
3	0	0	0	0	567	431	1021	0	0	0	
4	0	0	0	0	558	430	1021	0	0	0	
5	0	0	0	0	547	436	1021	0	0	0	
6	0	0	0	0	536	446	1021	0	0	0	
7	0	0	0	0	526	461	1021	0	0	0	
8	0	0	0	0	517	478	1021	0	0	0	
9	0	0	0	0	511	498	1021	0	0	0	
10	0	0	0	0	507	516	1021	0	0	0	
11	0	0	0	0	506	531	1021	0	0	0	
12	0	0	0	0	509	542	1021	0	0	0	
13	0	0	0	0	514	547	1021	0	0	0	
14	0	0	0	0	522	546	1021	0	0	0	
15	0	0	0	0	530	539	1021	0	0	0	
0	0	0	0	0	539	526	1021	0	0	0	
1	0	0	0	0	547	510	1021	0	0	0	
2	0	0	0	0	554	490	1021	0	0	0	
3	0	0	0	0	558	468	1021	0	0	0	
4	0	0	0	0	559	448	1021	0	0	0	
5	0	0	0	0	556	430	1021	0	0	0	
6	0	0	0	0	551	417	1021	0	0	0	
7	0	0	0	0	543	409	1021	0	0	0	
8	0	0	0	0	534	408	1021	0	0	0	
9	0	0	0	0	523	412	1021	0	0	0	
10	0	0	0	0	512	423	1021	0	0	0	
11	0	0	0	0	503	438	1021	0	0	0	
12	0	0	0	0	496	458	1021	0	0	0	
13	0	0	0	0	491	479	1021	0	0	0	
14	0	0	0	0	490	500	1021	0	0	0	
15	0	0	0	0	492	519	1021	0	0	0	
0	0	0	0	0	498	533	1021	0	0	0	
1	0	0	0	0	507	542	1021	0	0	0	
2	0	0	0	0	517	545	1020	0	0	0	
3	0	0	0	0	528	541	1021	0	0	0	
4	0	0	0	0	540	531	1021	0	0	0	
5	0	0	0	0	551	517	1021	0	0	0	
6	0	0	0	0	559	498	1021	0	0	0	
7	0	0	0	0	564	478	1021	0	0	0	
8	0	0	0	0	566	456	1021	0	0	0	
9	0	0	0	0	563	438	1021	0	0	0	
10	0	0	0	0	558	423	1021	0	0	0	
11	0	0	0	0	549	414	1021	0	0	0	
12	0	0	0	0	539	411	1021	0	0	0	
13	0	0	0	0	526	414	1021	0	0	0	
14	0	0	0	0	514	423	1021	0	0	0	
15	0	0	0	0	503	436	1021	0	0	0	
0	0	0	0	0	494	454	1021	0	0	0	
1	0	0	0	0	486	473	1020	0	0	0	
2	0	0	0	0	483	491	1021	0	0	0	
3	0	0	0	0	481	506	1021	0	0	0	
4	0	0	0	0	483	516	1021	0	0	0	
5	0	0	0	0	485	520	1021	0	0	0	
6	0	0	0	0	489	517	1021	0	0	0	
7	0	0	0	0	492	507	1021	0	0	0	
8	0	0	0	0	495	489	1021	0	0	0	
9	0	0	0	0	495	467	1021	0	0	0	
10	0	0	0	0	494	440	1021	0	0	0	
11	0	0	0	0	489	411	1021	0	0	0	
12	0	0	0	0	481	381	1021	0	0	0	
13	0	0	0	0	469	353	1021	0	0	0	
14	0	0	0	0	455	329	1021	0	0	0	
15	0	0	0	0	438	311	1021	0	0	0	
0	0	0	0	0	419	298	1021	0	0	0	
1	0	0	0	0	399	291	1021	0	0	0	
2	0	0	0	0	379	290	1021	0	0	0	
3	0	0	0	0	359	295	1021	0	0	0	
4	0	0	0	0	342	304	1021	0	0	0	
5	0	0	0	0	327	315	1021	0	0	0	
6	0	0	0	0	316	327	1020	0	0	0	
7	0	0	0	0	308	337	1021	0	0	0	
8	0	0	0	0	305	343	1021	0	0	0	
9	0	0	0	0	305	345	1021	0	0	0	
10	0	0	0	0	309	343	1021	0	0	0	
11	0	0	0	0	316	335	1021	0	0	0	
12	0	0	0	0	326	324	1021	0	0	0	
13	0	0	0	0	338	311	1021	0	0	0	
14	0	0	0	0	351	296	1021	0	0	0	
15	0	0	0	0	364	281	1021	0	0	0	
0	0	0	0	0	377	269	1021	0	0	0	
1	0	0	0	0	389	261	1020	0	0	0	
2	0	0	0	0	401	259	1021	0	0	0	
3	0	0	0	0	411	265	1021	0	0	0	
4	0	0	0	0	420	278	1021	0	0	0	
5	0	0	0	0	428	298	1021	0	0	0	
6	0	0	0	0	436	325	1021	0	0	0	
7	0	0	0	0	445	358	1021	0	0	0	
8	0	0	0	0	453	394	1021	0	0	0	
9	0	0	0	0	464	431	1021	0	0	0	
10	0	0	0	0	475	467	1021	0	0	0	
11	0	0	0	0	488	500	1021	0	0	0	
12	0	0	0	0	503	526	1021	0	0	0	
13	0	0	0	0	518	545	1021	0	0	0	
14	0	0	0	0	534	557	1021	0	0	0	
15	0	0	0	0	549	559	1021	0	0	0	
0	0	0	0	0	563	554	1021	0	0	0	
1	0	0	0	0	574	542	1021	0	0	0	
2	0	0	0	0	582	524	1021	0	0	0	
3	0	0	0	0	586	504	1021	0	0	0	
4	0	0	0	0	585	481	1021	0	0	0	
5	0	0	0	0	581	461	1020	0	0	0	
6	0	0	0	0	573	444	1021	0	0	0	
7	0	0	0	0	561	432	1021	0	0	0	
8	0	0	0	0	548	426	1021	0	0	0	
9	0	0	0	0	533	427	1021	0	0	0	
10	0	0	0	0	519	433	1021	0	0	0	
11	0	0	0	0	506	445	1021	0	0	0	
12	0	0	0	0	496	462	1021	0	0	0	
13	0	0	0	0	490	481	1021	0	0	0	
14	0	0	0	0	488	500	1021	0	0	0	
15	0	0	0	0	490	518	1021	0	0	0	
0	0	0	0	0	496	532	1021	0	0	0	
1	0	0	0	0	505	541	1021	0	0	0	
2	0	0	0	0	516	544	1021	0	0	0	
3	0	0	0	0	530	542	1021	0	0	0	
4	0	0	0	0	543	534	1021	0	0	0	
5	0	0	0	0	555	521	1021	0	0	0	
6	0	0	0	0	565	504	1021	0	0	0	
7	0	0	0	0	573	486	1021	0	0	0	
8	0	0	0	0	577	467	1021	0	0	0	
9	0	0	0	0	577	451	1020	0	0	0	
10	0	0	0	0	574	439	1021	0	0	0	
11	0	0	0	0	568	432	1021	0	0	0	
12	0	0	0	0	559	431	1021	0	0	0	
13	0	0	0	0	547	435	1021	0	0	0	
14	0	0	0	0	536	444	1021	0	0	0	
15	0	0	0	0	524	458	1021	0	0	0	
0	0	0	0	0	515	476	1021	0	0	0	
1	0	0	0	0	507	494	1020	0	0	0	
2	0	0	0	0	503	512	1021	0	0	0	
3	0	0	0	0	503	528	1020	0	0	0	
4	0	0	0	0	506	541	1021	0	0	0	
5	0	0	0	0	512	548	1021	0	0	0	
6	0	0	0	0	521	550	1021	0	0	0	
7	0	0	0	0	531	545	1021	0	0	0	
8	0	0	0	0	542	536	1020	0	0	0	
9	0	0	0	0	552	523	1021	0	0	0	
10	0	0	0	0	561	505	1021	0	0	0	
11	0	0	0	0	568	486	1021	0	0	0	
12	0	0	0	0	571	467	1021	0	0	0	
13	0	0	0	0	571	451	1020	0	0	0	
14	0	0	0	0	568	438	1021	0	0	0	
15	0	0	0	0	562	431	1021	0	0	0	
0	0	0	0	0	553	429	1021	0	0	0	
1	0	0	0	0	543	433	1021	0	0	0	
2	0	0	0	0	533	443	1020	0	0	0	
3	0	0	0	0	524	457	1021	0	0	0	
4	0	0	0	0	516	476	1021	0	0	0	
5	0	0	0	0	511	497	1021	0	0	0	
6	0	0	0	0	509	516	1021	0	0	0	
7	0	0	0	0	511	534	1020	0	0	0	
8	0	0	0	0	516	548	1021	0	0	0	
9	0	0	0	0	524	556	1021	0	0	0	
10	0	0	0	0	533	557	1021	0	0	0	
11	0	0	0	0	543	552	1021	0	0	0	
12	0	0	0	0	553	542	1020	0	0	0	
13	0	0	0	0	562	527	1021	0	0	0	
14	0	0	0	0	569	508	1021	0	0	0	
15	0	0	0	0	574	488	1021	0	0	0	
0	0	0	0	0	575	468	1021	0	0	0	
1	0	0	0	0	574	450	1020	0	0	0	
2	0	0	0	0	569	436	1021	0	0	0	
3	0	0	0	0	561	428	1021	0	0	0	
4	0	0	0	0	551	424	1021	0	0	0	
5	0	0	0	0	540	427	1021	0	0	0	
6	0	0	0	0	527	435	1021	0	0	0	
7	0	0	0	0	515	448	1021	0	0	0	
8	0	0	0	0	505	465	1021	0	0	0	
9	0	0	0	0	498	484	1021	0	0	0	
10	0	0	0	0	494	502	1021	0	0	0	
11	0	0	0	0	494	519	1020	0	0	0	
12	0	0	0	0	497	532	1021	0	0	0	
13	0	0	0	0	504	540	1021	0	0	0	
14	0	0	0	0	513	541	1021	0	0	0	
15	0	0	0	0	523	536	1021	0	0	0	
0	0	0	0	0	534	527	1020	0	0	0	
1	0	0	0	0	543	512	1021	0	0	0	
2	0	0	0	0	551	493	1021	0	0	0	
3	0	0	0	0	557	473	1021	0	0	0	
4	0	0	0	0	559	452	1021	0	0	0	
5	0	0	0	0	557	434	1020	0	0	0	
6	0	0	0	0	551	419	1021	0	0	0	
7	0	0	0	0	543	410	1021	0	0	0	
8	0	0	0	0	532	407	1021	0	0	0	
9	0	0	0	0	520	409	1021	0	0	0	
10	0	0	0	0	508	418	1020	0	0	0	
11	0	0	0	0	498	432	1021	0	0	0	
12	0	0	0	0	489	449	1021	0	0	0	
13	0	0	0	0	483	469	1021	0	0	0	
14	0	0	0	0	481	489	1021	0	0	0	
15	0	0	0	0	483	508	1020	0	0	0	
0	0	0	0	0	488	523	1021	0	0	0	
1	0	0	0	0	498	532	1021	0	0	0	
2	0	0	0	0	509	536	1021	0	0	0	
3	0	0	0	0	521	534	1021	0	0	0	
4	0	0	0	0	535	527	1020	0	0	0	
5	0	0	0	0	547	515	1021	0	0	0	
6	0	0	0	0	558	499	1021	0	0	0	
7	0	0	0	0	564	481	1021	0	0	0	
8	0	0	0	0	568	462	1021	0	0	0	
9	0	0	0	0	566	445	1020	0	0	0	
10	0	0	0	0	561	431	1021	0	0	0	
11	0	0	0	0	552	422	1021	0	0	0	
12	0	0	0	0	540	417	1021	0	0	0	
13	0	0	0	0	526	419	1021	0	0	0	
14	0	0	0	0	512	425	1021	0	0	0	
15	0	0	0	0	500	437	1021	0	0	0	
0	0	0	0	0	489	454	1021	0	0	0	
1	0	0	0	0	482	472	1021	0	0	0	
2	0	0	0	0	479	491	1021	0	0	0	
3	0	0	0	0	480	508	1020	0	0	0	
4	0	0	0	0	486	521	1021	0	0	0	
5	0	0	0	0	494	530	1021	0	0	0	
6	0	0	0	0	506	532	1021	0	0	0	
7	0	0	0	0	519	530	1021	0	0	0	
8	0	0	0	0	531	521	1021	0	0	0	
9	0	0	0	0	542	507	1021	0	0	0	
10	0	0	0	0	550	489	1021	0	0	0	
11	0	0	0	0	556	470	1021	0	0	0	
12	0	0	0	0	557	449	1021	0	0	0	
13	0	0	0	0	553	430	1021	0	0	0	
14	0	0	0	0	547	415	1021	0	0	0	
15	0	0	0	0	536	405	1021	0	0	0	
0	0	0	0	0	525	401	1021	0	0	0	
1	0	0	0	0	512	403	1021	0	0	0	
2	0	0	0	0	499	412	1021	0	0	0	
3	0	0	0	0	489	427	1021	0	0	0	
4	0	0	0	0	481	446	1021	0	0	0	
5	0	0	0	0	477	468	1021	0	0	0	
6	0	0	0	0	478	490	1021	0	0	0	
7	0	0	0	0	483	511	1020	0	0	0	
8	0	0	0	0	492	528	1021	0	0	0	
9	0	0	0	0	503	540	1021	0	0	0	
10	0	0	0	0	517	546	1021	0	0	0	
11	0	0	0	0	531	545	1021	0	0	0	
12	0	0	0	0	545	539	1021	0	0	0	
13	0	0	0	0	558	527	1021	0	0	0	
14	0	0	0	0	568	510	1021	0	0	0	
15	0	0	0	0	573	489	1021	0	0	0	
0	0	0	0	0	574	468	1021	0	0	0	
1	0	0	0	0	570	448	1021	0	0	0	
2	0	0	0	0	562	431	1021	0	0	0	
3	0	0	0	0	550	418	1021	0	0	0	
4	0	0	0	0	535	411	1021	0	0	0	
5	0	0	0	0	519	409	1021	0	0	0	
6	0	0	0	0	503	415	1021	0	0	0	
7	0	0	0	0	489	426	1021	0	0	0	
8	0	0	0	0	477	441	1021	0	0	0	
9	0	0	0	0	470	460	1021	0	0	0	
10	0	0	0	0	466	479	1021	0	0	0	
11	0	0	0	0	467	497	1021	0	0	0	
12	0	0	0	0	473	511	1021	0	0	0	
13	0	0	0	0	482	521	1021	0	0	0	
14	0	0	0	0	493	526	1021	0	0	0	
15	0	0	0	0	506	524	1021	0	0	0	
0	0	0	0	0	519	516	1021	0	0	0	
1	0	0	0	0	531	504	1021	0	0	0	
2	0	0	0	0	541	488	1021	0	0	0	
3	0	0	0	0	548	470	1021	0	0	0	
4	0	0	0	0	551	450	1021	0	0	0	
5	0	0	0	0	550	433	1021	0	0	0	
6	0	0	0	0	546	419	1021	0	0	0	
7	0	0	0	0	538	411	1021	0	0	0	
8	0	0	0	0	528	408	1021	0	0	0	
9	0	0	0	0	516	410	1021	0	0	0	
10	0	0	0	0	504	418	1021	0	0	0	
11	0	0	0	0	493	432	1021	0	0	0	
12	0	0	0	0	484	449	1021	0	0	0	
13	0	0	0	0	478	469	1020	0	0	0	
14	0	0	0	0	475	488	1021	0	0	0	
15	0	0	0	0	476	506	1021	0	0	0	
0	0	0	0	0	481	520	1021	0	0	0	
1	0	0	0	0	490	528	1021	0	0	0	
2	0	0	0	0	500	531	1021	0	0	0	
3	0	0	0	0	511	528	1021	0	0	0	
4	0	0	0	0	523	519	1021	0	0	0	
5	0	0	0	0	533	506	1021	0	0	0	
6	0	0	0	0	542	488	1021	0	0	0	
7	0	0	0	0	548	470	1021	0	0	0	
8	0	0	0	0	551	450	1021	0	0	0	
9	0	0	0	0	550	433	1021	0	0	0	
10	0	0	0	0	546	420	1021	0	0	0	
11	0	0	0	0	540	412	1021	0	0	0	
12	0	0	0	0	531	411	1021	0	0	0	
13	0	0	0	0	523	415	1021	0	0	0	
14	0	0	0	0	514	427	1021	0	0	0	
15	0	0	0	0	506	443	1021	0	0	0	
0	0	0	0	0	501	463	1021	0	0	0	
1	0	0	0	0	497	484	1020	0	0	0	
2	0	0	0	0	497	504	1021	0	0	0	
3	0	0	0	0	500	523	1021	0	0	0	
4	0	0	0	0	505	536	1021	0	0	0	
5	0	0	0	0	513	544	1021	0	0	0	
6	0	0	0	0	523	546	1021	0	0	0	
7	0	0	0	0	532	541	1021	0	0	0	
8	0	0	0	0	541	530	1021	0	0	0	
9	0	0	0	0	549	514	1021	0	0	0	
10	0	0	0	0	554	494	1021	0	0	0	
11	0	0	0	0	556	472	1021	0	0	0	
12	0	0	0	0	556	449	1021	0	0	0	
13	0	0	0	0	551	429	1021	0	0	0	
14	0	0	0	0	543	412	1021	0	0	0	
15	0	0	0	0	534	402	1021	0	0	0	
0	0	0	0	0	523	397	1020	0	0	0	
1	0	0	0	0	511	399	1021	0	0	0	
2	0	0	0	0	499	407	1021	0	0	0	
3	0	0	0	0	489	421	1021	0	0	0	
4	0	0	0	0	482	440	1021	0	0	0	
5	0	0	0	0	479	461	1021	0	0	0	
6	0	0	0	0	478	483	1021	0	0	0	
7	0	0	0	0	482	503	1021	0	0	0	
8	0	0	0	0	489	520	1021	0	0	0	
9	0	0	0	0	500	531	1021	0	0	0	
10	0	0	0	0	513	537	1020	0	0	0	
11	0	0	0	0	527	536	1021	0	0	0	
12	0	0	0	0	540	529	1021	0	0	0	
13	0	0	0	0	551	516	1021	0	0	0	
14	0	0	0	0	560	500	1021	0	0	0	
15	0	0	0	0	566	480	1021	0	0	0	
0	0	0	0	0	567	460	1021	0	0	0	
1	0	0	0	0	564	441	1021	0	0	0	
2	0	0	0	0	557	426	1021	0	0	0	
3	0	0	0	0	547	415	1021	0	0	0	
4	0	0	0	0	535	411	1021	0	0	0	
5	0	0	0	0	521	412	1021	0	0	0	
6	0	0	0	0	508	420	1021	0	0	0	
7	0	0	0	0	496	433	1021	0	0	0	
8	0	0	0	0	487	451	1021	0	0	0	
9	0	0	0	0	481	471	1021	0	0	0	
10	0	0	0	0	479	491	1021	0	0	0	
11	0	0	0	0	481	510	1021	0	0	0	
12	0	0	0	0	488	526	1021	0	0	0	
13	0	0	0	0	498	536	1021	0	0	0	
14	0	0	0	0	510	540	1021	0	0	0	
15	0	0	0	0	523	539	1021	0	0	0	
0	0	0	0	0	536	531	1021	0	0	0	
1	0	0	0	0	549	518	1021	0	0	0	
2	0	0	0	0	559	502	1021	0	0	0	
3	0	0	0	0	566	482	1021	0	0	0	
4	0	0	0	0	568	462	1021	0	0	0	
5	0	0	0	0	568	444	1021	0	0	0	
6	0	0	0	0	563	430	1021	0	0	0	
7	0	0	0	0	556	422	1021	0	0	0	
8	0	0	0	0	545	418	1020	0	0	0	
9	0	0	0	0	534	420	1021	0	0	0	
10	0	0	0	0	521	428	1021	0	0	0	
11	0	0	0	0	509	441	1021	0	0	0	
12	0	0	0	0	499	458	1021	0	0	0	
13	0	0	0	0	492	477	1021	0	0	0	
14	0	0	0	0	488	496	1021	0	0	0	
15	0	0	0	0	489	513	1021	0	0	0	
0	0	0	0	0	493	527	1021	0	0	0	
1	0	0	0	0	500	536	1021	0	0	0	
2	0	0	0	0	511	539	1021	0	0	0	
3	0	0	0	0	522	536	1021	0	0	0	
4	0	0	0	0	534	528	1021	0	0	0	
5	0	0	0	0	546	515	1021	0	0	0	
6	0	0	0	0	557	499	1021	0	0	0	
7	0	0	0	0	565	481	1021	0	0	0	
8	0	0	0	0	568	462	1021	0	0	0	
9	0	0	0	0	569	446	1021	0	0	0	
10	0	0	0	0	565	432	1021	0	0	0	
11	0	0	0	0	557	423	1021	0	0	0	
12	0	0	0	0	547	420	1021	0	0	0	
13	0	0	0	0	536	422	1021	0	0	0	
14	0	0	0	0	523	430	1021	0	0	0	
15	0	0	0	0	511	443	1021	0	0	0	
0	0	0	0	0	501	460	1021	0	0	0	
1	0	0	0	0	494	478	1021	0	0	0	
2	0	0	0	0	491	497	1021	0	0	0	
3	0	0	0	0	492	515	1021	0	0	0	
4	0	0	0	0	496	529	1021	0	0	0	
5	0	0	0	0	505	538	1021	0	0	0	
6	0	0	0	0	515	541	1021	0	0	0	
7	0	0	0	0	527	539	1021	0	0	0	
8	0	0	0	0	540	531	1021	0	0	0	
9	0	0	0	0	552	518	1021	0	0	0	
10	0	0	0	0	563	501	1021	0	0	0	
11	0	0	0	0	570	481	1021	0	0	0	
12	0	0	0	0	573	462	1021	0	0	0	
13	0	0	0	0	573	445	1021	0	0	0	
14	0	0	0	0	569	431	1021	0	0	0	
15	0	0	0	0	562	423	1021	0	0	0	
0	0	0	0	0	553	421	1021	0	0	0	
1	0	0	0	0	543	424	1021	0	0	0	
2	0	0	0	0	532	435	1021	0	0	0	
3	0	0	0	0	523	450	1021	0	0	0	
4	0	0	0	0	515	468	1021	0	0	0	
5	0	0	0	0	509	489	1021	0	0	0	
6	0	0	0	0	507	509	1021	0	0	0	
7	0	0	0	0	507	526	1021	0	0	0	
8	0	0	0	0	511	540	1021	0	0	0	
9	0	0	0	0	517	547	1021	0	0	0	
10	0	0	0	0	525	548	1021	0	0	0	
11	0	0	0	0	534	543	1021	0	0	0	
12	0	0	0	0	542	532	1021	0	0	0	
13	0	0	0	0	551	517	1021	0	0	0	
14	0	0	0	0	557	497	1021	0	0	0	
15	0	0	0	0	561	476	1021	0	0	0	
0	0	0	0	0	563	455	1021	0	0	0	
1	0	0	0	0	561	437	1021	0	0	0	
2	0	0	0	0	557	423	1021	0	0	0	
3	0	0	0	0	550	413	1021	0	0	0	
4	0	0	0	0	541	411	1021	0	0	0	
5	0	0	0	0	531	414	1021	0	0	0	
6	0	0	0	0	520	423	1021	0	0	0	
7	0	0	0	0	511	439	1021	0	0	0	
8	0	0	0	0	503	458	1021	0	0	0	
9	0	0	0	0	498	479	1020	0	0	0	
10	0	0	0	0	497	500	1021	0	0	0	
11	0	0	0	0	498	519	1021	0	0	0	
12	0	0	0	0	503	535	1021	0	0	0	
13	0	0	0	0	511	544	1021	0	0	0	
14	0	0	0	0	519	547	1021	0	0	0	
15	0	0	0	0	529	543	1021	0	0	0	
0	0	0	0	0	539	534	1021	0	0	0	
1	0	0	0	0	548	518	1021	0	0	0	
2	0	0	0	0	555	499	1021	0	0	0	
3	0	0	0	0	559	476	1020	0	0	0	
4	0	0	0	0	559	453	1021	0	0	0	
5	0	0	0	0	556	433	1020	0	0	0	
6	0	0	0	0	550	417	1021	0	0	0	
7	0	0	0	0	541	405	1021	0	0	0	
8	0	0	0	0	529	400	1021	0	0	0	
9	0	0	0	0	519	403	1021	0	0	0	
10	0	0	0	0	508	412	1021	0	0	0	
11	0	0	0	0	499	427	1021	0	0	0	
12	0	0	0	0	492	446	1021	0	0	0	
13	0	0	0	0	488	468	1021	0	0	0	
14	0	0	0	0	488	489	1021	0	0	0	
15	0	0	0	0	491	510	1021	0	0	0	
0	0	0	0	0	499	527	1021	0	0	0	
1	0	0	0	0	508	537	1021	0	0	0	
2	0	0	0	0	520	542	1021	0	0	0	
3	0	0	0	0	533	540	1021	0	0	0	
4	0	0	0	0	545	532	1021	0	0	0	
5	0	0	0	0	556	519	1021	0	0	0	
6	0	0	0	0	564	502	1021	0	0	0	
7	0	0	0	0	570	481	1021	0	0	0	
8	0	0	0	0	572	461	1021	0	0	0	
9	0	0	0	0	569	442	1021	0	0	0	
10	0	0	0	0	564	427	1021	0	0	0	
11	0	0	0	0	555	417	1021	0	0	0	
12	0	0	0	0	544	413	1020	0	0	0	
13	0	0	0	0	531	415	1021	0	0	0	
14	0	0	0	0	518	423	1021	0	0	0	
15	0	0	0	0	507	436	1021	0	0	0	
0	0	0	0	0	497	454	1021	0	0	0	
1	0	0	0	0	491	474	1021	0	0	0	
2	0	0	0	0	488	495	1021	0	0	0	
3	0	0	0	0	490	513	1021	0	0	0	
4	0	0	0	0	496	529	1021	0	0	0	
5	0	0	0	0	505	539	1021	0	0	0	
6	0	0	0	0	517	544	1021	0	0	0	
7	0	0	0	0	529	542	1021	0	0	0	
8	0	0	0	0	542	535	1021	0	0	0	
9	0	0	0	0	553	522	1021	0	0	0	
10	0	0	0	0	563	505	1021	0	0	0	
11	0	0	0	0	569	486	1020	0	0	0	
12	0	0	0	0	572	465	1021	0	0	0	
13	0	0	0	0	569	447	1021	0	0	0	
14	0	0	0	0	564	432	1021	0	0	0	
15	0	0	0	0	555	422	1021	0	0	0	
0	0	0	0	0	543	417	1021	0	0	0	
1	0	0	0	0	532	420	1021	0	0	0	
2	0	0	0	0	519	428	1021	0	0	0	
3	0	0	0	0	508	442	1021	0	0	0	
4	0	0	0	0	499	460	1021	0	0	0	
5	0	0	0	0	492	480	1021	0	0	0	
6	0	0	0	0	489	500	1021	0	0	0	
7	0	0	0	0	489	518	1020	0	0	0	
8	0	0	0	0	493	532	1021	0	0	0	
9	0	0	0	0	500	540	1021	0	0	0	
10	0	0	0	0	510	543	1021	0	0	0	
11	0	0	0	0	521	540	1021	0	0	0	
12	0	0	0	0	532	531	1021	0	0	0	
13	0	0	0	0	543	516	1021	0	0	0	
14	0	0	0	0	551	498	1021	0	0	0	
15	0	0	0	0	558	477	1021	0	0	0	
0	0	0	0	0	560	455	1021	0	0	0	
1	0	0	0	0	558	436	1021	0	0	0	
2	0	0	0	0	552	419	1021	0	0	0	
3	0	0	0	0	544	407	1021	0	0	0	
4	0	0	0	0	533	402	1021	0	0	0	
5	0	0	0	0	521	403	1021	0	0	0	
6	0	0	0	0	508	410	1021	0	0	0	
7	0	0	0	0	497	423	1021	0	0	0	
8	0	0	0	0	489	441	1021	0	0	0	
9	0	0	0	0	484	462	1021	0	0	0	
10	0	0	0	0	483	484	1021	0	0	0	
11	0	0	0	0	484	504	1021	0	0	0	
12	0	0	0	0	491	521	1021	0	0	0	
13	0	0	0	0	500	533	1021	0	0	0	
14	0	0	0	0	511	539	1021	0	0	0	
15	0	0	0	0	523	537	1021	0	0	0	
0	0	0	0	0	535	530	1021	0	0	0	
1	0	0	0	0	545	518	1021	0	0	0	
2	0	0	0	0	554	500	1021	0	0	0	
3	0	0	0	0	560	480	1021	0	0	0	
4	0	0	0	0	561	459	1021	0	0	0	
5	0	0	0	0	559	440	1021	0	0	0	
6	0	0	0	0	554	424	1021	0	0	0	
7	0	0	0	0	546	413	1021	0	0	0	
8	0	0	0	0	536	409	1021	0	0	0	
9	0	0	0	0	526	411	1021	0	0	0	
10	0	0	0	0	515	419	1021	0	0	0	
11	0	0	0	0	506	432	1021	0	0	0	
12	0	0	0	0	498	450	1021	0	0	0	
13	0	0	0	0	494	471	1021	0	0	0	
14	0	0	0	0	492	492	1021	0	0	0	
15	0	0	0	0	494	511	1021	0	0	0	
0	0	0	0	0	500	526	1021	0	0	0	
1	0	0	0	0	510	537	1021	0	0	0	
2	0	0	0	0	520	542	1021	0	0	0	
3	0	0	0	0	532	540	1021	0	0	0	
4	0	0	0	0	545	533	1020	0	0	0	
5	0	0	0	0	557	521	1021	0	0	0	
6	0	0	0	0	567	505	1021	0	0	0	
7	0	0	0	0	575	487	1021	0	0	0	
8	0	0	0	0	577	468	1021	0	0	0	
9	0	0	0	0	578	451	1021	0	0	0	
10	0	0	0	0	574	438	1021	0	0	0	
11	0	0	0	0	566	428	1021	0	0	0	
12	0	0	0	0	556	424	1021	0	0	0	
13	0	0	0	0	543	425	1021	0	0	0	
14	0	0	0	0	529	432	1020	0	0	0	
15	0	0	0	0	516	445	1021	0	0	0	
0	0	0	0	0	506	461	1021	0	0	0	
1	0	0	0	0	498	480	1021	0	0	0	
2	0	0	0	0	494	499	1021	0	0	0	
3	0	0	0	0	494	517	1020	0	0	0	
4	0	0	0	0	499	531	1021	0	0	0	
5	0	0	0	0	508	541	1021	0	0	0	
6	0	0	0	0	519	545	1021	0	0	0	
7	0	0	0	0	531	543	1021	0	0	0	
8	0	0	0	0	544	535	1021	0	0	0	
9	0	0	0	0	558	523	1021	0	0	0	
10	0	0	0	0	569	507	1021	0	0	0	
11	0	0	0	0	577	488	1021	0	0	0	
12	0	0	0	0	581	469	1021	0	0	0	
13	0	0	0	0	582	452	1020	0	0	0	
14	0	0	0	0	578	439	1021	0	0	0	
15	0	0	0	0	571	430	1021	0	0	0	
0	0	0	0	0	561	427	1021	0	0	0	
1	0	0	0	0	550	430	1021	0	0	0	
2	0	0	0	0	537	438	1020	0	0	0	
3	0	0	0	0	526	451	1021	0	0	0	
4	0	0	0	0	516	468	1021	0	0	0	
5	0	0	0	0	509	487	1021	0	0	0	
6	0	0	0	0	505	506	1021	0	0	0	
7	0	0	0	0	505	524	1020	0	0	0	
8	0	0	0	0	508	537	1021	0	0	0	
9	0	0	0	0	514	546	1021	0	0	0	
10	0	0	0	0	523	549	1021	0	0	0	
11	0	0	0	0	532	546	1021	0	0	0	
12	0	0	0	0	543	537	1020	0	0	0	
13	0	0	0	0	552	524	1021	0	0	0	
14	0	0	0	0	561	506	1021	0	0	0	
15	0	0	0	0	567	487	1021	0	0	0	
0	0	0	0	0	568	466	1021	0	0	0	
1	0	0	0	0	568	448	1020	0	0	0	
2	0	0	0	0	563	433	1021	0	0	0	
3	0	0	0	0	556	424	1021	0	0	0	
4	0	0	0	0	546	420	1021	0	0	0	
5	0	0	0	0	535	423	1021	0	0	0	
6	0	0	0	0	525	432	1020	0	0	0	
7	0	0	0	0	515	446	1021	0	0	0	
8	0	0	0	0	508	464	1021	0	0	0	
9	0	0	0	0	503	484	1021	0	0	0	
10	0	0	0	0	501	505	1021	0	0	0	
11	0	0	0	0	503	524	1021	0	0	0	
12	0	0	0	0	508	539	1021	0	0	0	
13	0	0	0	0	516	548	1021	0	0	0	
14	0	0	0	0	527	552	1021	0	0	0	
15	0	0	0	0	538	550	1021	0	0	0	
0	0	0	0	0	550	542	1021	0	0	0	
1	0	0	0	0	561	529	1021	0	0	0	
2	0	0	0	0	570	512	1021	0	0	0	
3	0	0	0	0	576	493	1021	0	0	0	
4	0	0	0	0	579	474	1021	0	0	0	
5	0	0	0	0	577	456	1021	0	0	0	
6	0	0	0	0	573	441	1021	0	0	0	
7	0	0	0	0	564	432	1021	0	0	0	
8	0	0	0	0	554	428	1021	0	0	0	
9	0	0	0	0	541	428	1021	0	0	0	
10	0	0	0	0	529	436	1021	0	0	0	
11	0	0	0	0	517	448	1021	0	0	0	
12	0	0	0	0	507	465	1021	0	0	0	
13	0	0	0	0	501	485	1021	0	0	0	
14	0	0	0	0	498	505	1021	0	0	0	
15	0	0	0	0	500	524	1021	0	0	0	
0	0	0	0	0	505	539	1021	0	0	0	
1	0	0	0	0	515	550	1021	0	0	0	
2	0	0	0	0	526	555	1021	0	0	0	
3	0	0	0	0	539	553	1021	0	0	0	
4	0	0	0	0	551	547	1021	0	0	0	
5	0	0	0	0	563	534	1021	0	0	0	
6	0	0	0	0	572	517	1021	0	0	0	
7	0	0	0	0	579	497	1021	0	0	0	
8	0	0	0	0	583	479	1021	0	0	0	
9	0	0	0	0	581	460	1021	0	0	0	
10	0	0	0	0	577	446	1021	0	0	0	
11	0	0	0	0	570	437	1021	0	0	0	
12	0	0	0	0	560	433	1021	0	0	0	
13	0	0	0	0	549	435	1021	0	0	0	
14	0	0	0	0	536	444	1020	0	0	0	
15	0	0	0	0	526	457	1021	0	0	0	
0	0	0	0	0	516	474	1021	0	0	0	
1	0	0	0	0	510	494	1021	0	0	0	
2	0	0	0	0	508	514	1021	0	0	0	
3	0	0	0	0	508	533	1021	0	0	0	
4	0	0	0	0	514	548	1021	0	0	0	
5	0	0	0	0	522	558	1021	0	0	0	
6	0	0	0	0	533	562	1021	0	0	0	
7	0	0	0	0	544	560	1021	0	0	0	
8	0	0	0	0	556	551	1020	0	0	0	
9	0	0	0	0	567	537	1021	0	0	0	
10	0	0	0	0	575	520	1021	0	0	0	
11	0	0	0	0	582	499	1021	0	0	0	
12	0	0	0	0	583	479	1021	0	0	0	
13	0	0	0	0	582	460	1021	0	0	0	
14	0	0	0	0	576	445	1021	0	0	0	
15	0	0	0	0	568	435	1021	0	0	0	
0	0	0	0	0	557	431	1021	0	0	0	
1	0	0	0	0	545	433	1021	0	0	0	
2	0	0	0	0	534	441	1020	0	0	0	
3	0	0	0	0	523	455	1021	0	0	0	
4	0	0	0	0	514	473	1021	0	0	0	
5	0	0	0	0	509	493	1020	0	0	0	
6	0	0	0	0	508	515	1021	0	0	0	
7	0	0	0	0	511	535	1021	0	0	0	
8	0	0	0	0	518	551	1021	0	0	0	
9	0	0	0	0	528	563	1021	0	0	0	
10	0	0	0	0	540	568	1021	0	0	0	
11	0	0	0	0	553	567	1021	0	0	0	
12	0	0	0	0	566	560	1021	0	0	0	
13	0	0	0	0	577	547	1021	0	0	0	
14	0	0	0	0	587	531	1021	0	0	0	
15	0	0	0	0	593	511	1021	0	0	0	
0	0	0	0	0	595	491	1021	0	0	0	
1	0	0	0	0	592	472	1021	0	0	0	
2	0	0	0	0	587	457	1021	0	0	0	
3	0	0	0	0	578	447	1021	0	0	0	
4	0	0	0	0	567	442	1021	0	0	0	
5	0	0	0	0	555	444	1021	0	0	0	
6	0	0	0	0	543	452	1021	0	0	0	
7	0	0	0	0	532	466	1021	0	0	0	
8	0	0	0	0	524	484	1021	0	0	0	
9	0	0	0	0	520	505	1020	0	0	0	
10	0	0	0	0	519	526	1021	0	0	0	
11	0	0	0	0	523	546	1020	0	0	0	
12	0	0	0	0	531	563	1021	0	0	0	
13	0	0	0	0	541	575	1021	0	0	0	
14	0	0	0	0	553	580	1021	0	0	0	
15	0	0	0	0	566	578	1021	0	0	0	
0	0	0	0	0	577	570	1021	0	0	0	
1	0	0	0	0	587	556	1021	0	0	0	
2	0	0	0	0	594	537	1021	0	0	0	
3	0	0	0	0	597	515	1021	0	0	0	
4	0	0	0	0	594	490	1021	0	0	0	
5	0	0	0	0	588	467	1020	0	0	0	
6	0	0	0	0	576	446	1021	0	0	0	
7	0	0	0	0	560	429	1021	0	0	0	
8	0	0	0	0	542	417	1021	0	0	0	
9	0	0	0	0	521	411	1021	0	0	0	
10	0	0	0	0	500	410	1020	0	0	0	
11	0	0	0	0	480	415	1021	0	0	0	
12	0	0	0	0	461	424	1021	0	0	0	
13	0	0	0	0	445	436	1021	0	0	0	
14	0	0	0	0	434	449	1021	0	0	0	
15	0	0	0	0	426	460	1021	0	0	0	
0	0	0	0	0	423	467	1021	0	0	0	
1	0	0	0	0	423	471	1021	0	0	0	
2	0	0	0	0	425	467	1021	0	0	0	
3	0	0	0	0	429	457	1021	0	0	0	
4	0	0	0	0	433	441	1021	0	0	0	
5	0	0	0	0	435	419	1021	0	0	0	
6	0	0	0	0	435	391	1021	0	0	0	
7	0	0	0	0	432	361	1021	0	0	0	
8	0	0	0	0	423	329	1021	0	0	0	
9	0	0	0	0	411	298	1021	0	0	0	
10	0	0	0	0	395	271	1021	0	0	0	
11	0	0	0	0	377	248	1021	0	0	0	
12	0	0	0	0	357	233	1020	0	0	0	
13	0	0	0	0	339	226	1021	0	0	0	
14	0	0	0	0	321	227	1021	0	0	0	
15	0	0	0	0	308	238	1021	0	0	0	
0	0	0	0	0	300	256	1021	0	0	0	
1	0	0	0	0	299	281	1021	0	0	0	
2	0	0	0	0	305	312	1021	0	0	0	
3	0	0	0	0	319	344	1021	0	0	0	
4	0	0	0	0	342	376	1021	0	0	0	
5	0	0	0	0	369	406	1021	0	0	0	
6	0	0	0	0	402	432	1021	0	0	0	
7	0	0	0	0	438	452	1021	0	0	0	
8	0	0	0	0	475	467	1021	0	0	0	
9	0	0	0	0	510	475	1021	0	0	0	
10	0	0	0	0	541	477	1021	0	0	0	
11	0	0	0	0	568	475	1021	0	0	0	
12	0	0	0	0	588	469	1021	0	0	0	
13	0	0	0	0	600	462	1020	0	0	0	
14	0	0	0	0	607	457	1021	0	0	0	
15	0	0	0	0	607	455	1021	0	0	0	
0	0	0	0	0	602	457	1021	0	0	0	
1	0	0	0	0	593	463	1021	0	0	0	
2	0	0	0	0	582	474	1020	0	0	0	
3	0	0	0	0	569	489	1021	0	0	0	
4	0	0	0	0	558	508	1021	0	0	0	
5	0	0	0	0	548	527	1021	0	0	0	
6	0	0	0	0	543	548	1021	0	0	0	
7	0	0	0	0	540	566	1021	0	0	0	
8	0	0	0	0	541	580	1021	0	0	0	
9	0	0	0	0	545	588	1021	0	0	0	
10	0	0	0	0	553	591	1021	0	0	0	
11	0	0	0	0	562	587	1021	0	0	0	
12	0	0	0	0	571	577	1021	0	0	0	
13	0	0	0	0	580	562	1021	0	0	0	
14	0	0	0	0	588	543	1021	0	0	0	
15	0	0	0	0	594	523	1020	0	0	0	
0	0	0	0	0	597	502	1021	0	0	0	
1	0	0	0	0	597	483	1021	0	0	0	
2	0	0	0	0	593	467	1021	0	0	0	
3	0	0	0	0	588	458	1021	0	0	0	
4	0	0	0	0	579	454	1021	0	0	0	
5	0	0	0	0	570	457	1021	0	0	0	
6	0	0	0	0	560	466	1021	0	0	0	
7	0	0	0	0	551	480	1021	0	0	0	
8	0	0	0	0	543	498	1021	0	0	0	
9	0	0	0	0	538	519	1021	0	0	0	
10	0	0	0	0	535	540	1021	0	0	0	
11	0	0	0	0	536	559	1021	0	0	0	
12	0	0	0	0	540	574	1021	0	0	0	
13	0	0	0	0	546	583	1021	0	0	0	
14	0	0	0	0	555	587	1021	0	0	0	
15	0	0	0	0	564	583	1021	0	0	0	
0	0	0	0	0	574	575	1021	0	0	0	
1	0	0	0	0	583	560	1021	0	0	0	
2	0	0	0	0	590	542	1021	0	0	0	
3	0	0	0	0	595	520	1021	0	0	0	
4	0	0	0	0	595	499	1021	0	0	0	
5	0	0	0	0	595	480	1020	0	0	0	
6	0	0	0	0	590	464	1021	0	0	0	
7	0	0	0	0	583	454	1021	0	0	0	
8	0	0	0	0	575	451	1021	0	0	0	
9	0	0	0	0	564	453	1021	0	0	0	
10	0	0	0	0	554	462	1021	0	0	0	
11	0	0	0	0	544	476	1021	0	0	0	
12	0	0	0	0	537	495	1021	0	0	0	
13	0	0	0	0	532	517	1021	0	0	0	
14	0	0	0	0	531	538	1021	0	0	0	
15	0	0	0	0	532	558	1021	0	0	0	
0	0	0	0	0	537	575	1021	0	0	0	
1	0	0	0	0	545	586	1021	0	0	0	
2	0	0	0	0	556	591	1021	0	0	0	
3	0	0	0	0	568	590	1021	0	0	0	
4	0	0	0	0	579	582	1021	0	0	0	
5	0	0	0	0	591	569	1021	0	0	0	
6	0	0	0	0	600	552	1021	0	0	0	
7	0	0	0	0	608	532	1021	0	0	0	
8	0	0	0	0	611	511	1021	0	0	0	
9	0	0	0	0	610	492	1021	0	0	0	
10	0	0	0	0	606	476	1021	0	0	0	
11	0	0	0	0	598	465	1021	0	0	0	
12	0	0	0	0	588	460	1021	0	0	0	
13	0	0	0	0	575	460	1020	0	0	0	
14	0	0	0	0	563	467	1021	0	0	0	
15	0	0	0	0	550	479	1021	0	0	0	
0	0	0	0	0	540	495	1021	0	0	0	
1	0	0	0	0	532	514	1021	0	0	0	
2	0	0	0	0	528	534	1021	0	0	0	
3	0	0	0	0	528	552	1021	0	0	0	
4	0	0	0	0	532	567	1021	0	0	0	
5	0	0	0	0	539	577	1021	0	0	0	
6	0	0	0	0	548	581	1021	0	0	0	
7	0	0	0	0	560	578	1021	0	0	0	
8	0	0	0	0	571	570	1020	0	0	0	
9	0	0	0	0	581	556	1021	0	0	0	
10	0	0	0	0	590	539	1021	0	0	0	
11	0	0	0	0	596	518	1021	0	0	0	
