# OpenSignals Text File Format. Version 1
# {"": {"position": 0, "device": "", "device name": "", "device connection": "", "sampling rate": 1000, "resolution": [4, 1, 1, 1, 1, 10, 10, 10, 10, 6, 6], "firmware version": 1281, "comments": "", "keywords": "", "mode": 0, "sync interval": 2, "date": "", "time": "", "channels": [1, 2, 3, 4, 5, 6], "sensor": ["RAW", "RAW", "RAW", "RAW", "RAW", "RAW"], "label": ["A1", "A2", "A3", "A4", "A5", "A6"], "column": ["nSeq", "I1", "I2", "O1", "O2", "A1", "A2", "A3", "A4", "A5", "A6"], "special": [{}, {}, {}, {}, {}, {}], "digital IO": [0, 0, 1, 1], "convertedValues": 0}}
# EndOfHeader
0	0	0	0	0	482	579	1021	421	0	0	
1	0	0	0	0	521	586	1021	441	0	0	
2	0	0	0	0	562	583	1021	460	0	0	
3	0	0	0	0	599	571	1021	477	0	0	
4	0	0	0	0	630	551	1021	489	0	0	
5	0	0	0	0	652	523	1021	496	0	0	
6	0	0	0	0	661	492	1021	496	0	0	
7	0	0	0	0	657	460	1021	490	0	0	
8	0	0	0	0	642	431	1021	479	0	0	
9	0	0	0	0	615	407	1021	463	0	0	
10	0	0	0	0	581	391	1021	446	0	0	
11	0	0	0	0	542	384	1021	427	0	0	
12	0	0	0	0	502	387	1021	408	0	0	
13	0	0	0	0	464	399	1021	393	0	0	
14	0	0	0	0	433	420	1021	381	0	0	
15	0	0	0	0	412	448	1021	375	0	0	
0	0	0	0	0	403	480	1021	375	0	0	
1	0	0	0	0	406	512	1021	381	0	0	
2	0	0	0	0	423	541	1021	392	0	0	
3	0	0	0	0	449	564	1021	408	0	0	
4	0	0	0	0	483	579	1021	425	0	0	
5	0	0	0	0	522	585	1021	444	0	0	
6	0	0	0	0	562	580	1021	462	0	0	
7	0	0	0	0	598	567	1021	476	0	0	
8	0	0	0	0	627	543	1021	487	0	0	
9	0	0	0	0	647	515	1021	492	0	0	
10	0	0	0	0	655	482	1021	491	0	0	
11	0	0	0	0	651	448	1020	483	0	0	
12	0	0	0	0	633	418	1021	471	0	0	
13	0	0	0	0	606	393	1021	454	0	0	
14	0	0	0	0	571	377	1021	435	0	0	
15	0	0	0	0	531	370	1021	415	0	0	
0	0	0	0	0	490	374	1021	396	0	0	
1	0	0	0	0	453	387	1021	380	0	0	
2	0	0	0	0	422	409	1021	369	0	0	
3	0	0	0	0	401	438	1021	363	0	0	
4	0	0	0	0	392	472	1021	363	0	0	
5	0	0	0	0	396	504	1021	370	0	0	
6	0	0	0	0	412	534	1021	382	0	0	
7	0	0	0	0	440	559	1021	399	0	0	
8	0	0	0	0	475	575	1021	418	0	0	
9	0	0	0	0	515	581	1021	439	0	0	
10	0	0	0	0	555	577	1020	457	0	0	
11	0	0	0	0	592	564	1021	474	0	0	
12	0	0	0	0	623	541	1021	487	0	0	
13	0	0	0	0	644	513	1021	494	0	0	
14	0	0	0	0	653	481	1021	494	0	0	
15	0	0	0	0	649	449	1020	487	0	0	
0	0	0	0	0	633	419	1021	476	0	0	
1	0	0	0	0	607	395	1021	460	0	0	
2	0	0	0	0	572	380	1021	442	0	0	
3	0	0	0	0	534	373	1021	422	0	0	
4	0	0	0	0	494	376	1021	403	0	0	
5	0	0	0	0	456	389	1021	387	0	0	
6	0	0	0	0	426	411	1021	375	0	0	
7	0	0	0	0	405	440	1021	368	0	0	
8	0	0	0	0	397	472	1021	369	0	0	
9	0	0	0	0	401	505	1021	375	0	0	
10	0	0	0	0	417	535	1021	386	0	0	
11	0	0	0	0	445	558	1021	401	0	0	
12	0	0	0	0	480	574	1021	420	0	0	
13	0	0	0	0	520	580	1021	440	0	0	
14	0	0	0	0	560	576	1020	458	0	0	
15	0	0	0	0	598	562	1021	474	0	0	
0	0	0	0	0	628	541	1021	486	0	0	
1	0	0	0	0	649	513	1021	492	0	0	
2	0	0	0	0	659	481	1021	494	0	0	
3	0	0	0	0	655	450	1021	488	0	0	
4	0	0	0	0	640	421	1021	478	0	0	
5	0	0	0	0	615	398	1021	463	0	0	
6	0	0	0	0	581	383	1021	447	0	0	
7	0	0	0	0	543	376	1021	428	0	0	
8	0	0	0	0	504	380	1021	412	0	0	
9	0	0	0	0	467	395	1021	396	0	0	
10	0	0	0	0	438	417	1021	386	0	0	
11	0	0	0	0	417	446	1021	381	0	0	
12	0	0	0	0	409	479	1021	382	0	0	
13	0	0	0	0	413	512	1020	389	0	0	
14	0	0	0	0	430	543	1021	401	0	0	
15	0	0	0	0	457	567	1021	417	0	0	
0	0	0	0	0	492	583	1021	437	0	0	
1	0	0	0	0	531	590	1021	456	0	0	
2	0	0	0	0	570	587	1021	475	0	0	
3	0	0	0	0	607	575	1021	490	0	0	
4	0	0	0	0	637	553	1021	501	0	0	
5	0	0	0	0	657	525	1021	508	0	0	
6	0	0	0	0	666	494	1021	507	0	0	
7	0	0	0	0	662	462	1021	500	0	0	
8	0	0	0	0	646	433	1021	488	0	0	
9	0	0	0	0	620	409	1021	472	0	0	
10	0	0	0	0	586	395	1021	454	0	0	
11	0	0	0	0	546	388	1021	434	0	0	
12	0	0	0	0	507	392	1020	415	0	0	
13	0	0	0	0	469	405	1021	399	0	0	
14	0	0	0	0	438	427	1021	388	0	0	
15	0	0	0	0	416	455	1021	382	0	0	
0	0	0	0	0	406	487	1021	381	0	0	
1	0	0	0	0	409	519	1021	387	0	0	
2	0	0	0	0	425	548	1021	398	0	0	
3	0	0	0	0	451	571	1021	413	0	0	
4	0	0	0	0	486	585	1021	432	0	0	
5	0	0	0	0	525	591	1021	450	0	0	
6	0	0	0	0	565	587	1020	468	0	0	
7	0	0	0	0	602	573	1021	484	0	0	
8	0	0	0	0	633	551	1021	496	0	0	
9	0	0	0	0	654	522	1021	502	0	0	
10	0	0	0	0	664	490	1021	503	0	0	
11	0	0	0	0	660	457	1021	497	0	0	
12	0	0	0	0	645	428	1021	485	0	0	
13	0	0	0	0	619	404	1021	470	0	0	
14	0	0	0	0	584	387	1021	451	0	0	
15	0	0	0	0	544	380	1021	432	0	0	
0	0	0	0	0	503	382	1021	412	0	0	
1	0	0	0	0	464	393	1021	395	0	0	
2	0	0	0	0	432	414	1021	383	0	0	
3	0	0	0	0	409	442	1021	376	0	0	
4	0	0	0	0	399	473	1021	375	0	0	
5	0	0	0	0	402	506	1020	381	0	0	
6	0	0	0	0	418	536	1021	392	0	0	
7	0	0	0	0	445	559	1021	408	0	0	
8	0	0	0	0	481	576	1021	429	0	0	
9	0	0	0	0	521	584	1021	449	0	0	
10	0	0	0	0	563	583	1020	469	0	0	
11	0	0	0	0	603	572	1021	487	0	0	
12	0	0	0	0	636	552	1021	500	0	0	
13	0	0	0	0	660	526	1021	509	0	0	
14	0	0	0	0	671	496	1021	511	0	0	
15	0	0	0	0	670	465	1021	506	0	0	
0	0	0	0	0	656	437	1021	496	0	0	
1	0	0	0	0	631	413	1021	481	0	0	
2	0	0	0	0	597	397	1021	463	0	0	
3	0	0	0	0	557	390	1021	443	0	0	
4	0	0	0	0	514	390	1021	422	0	0	
5	0	0	0	0	473	400	1021	404	0	0	
6	0	0	0	0	437	418	1021	389	0	0	
7	0	0	0	0	409	441	1021	378	0	0	
8	0	0	0	0	393	468	1021	372	0	0	
9	0	0	0	0	389	494	1021	372	0	0	
10	0	0	0	0	396	517	1021	375	0	0	
11	0	0	0	0	414	533	1021	383	0	0	
12	0	0	0	0	440	540	1021	392	0	0	
13	0	0	0	0	470	538	1021	402	0	0	
14	0	0	0	0	500	526	1020	411	0	0	
15	0	0	0	0	528	504	1021	417	0	0	
0	0	0	0	0	550	473	1021	419	0	0	
1	0	0	0	0	562	436	1021	415	0	0	
2	0	0	0	0	563	396	1021	405	0	0	
3	0	0	0	0	551	355	1021	389	0	0	
4	0	0	0	0	526	316	1021	367	0	0	
5	0	0	0	0	492	282	1021	342	0	0	
6	0	0	0	0	449	256	1021	313	0	0	
7	0	0	0	0	400	238	1021	283	0	0	
8	0	0	0	0	351	230	1021	254	0	0	
9	0	0	0	0	304	231	1021	226	0	0	
10	0	0	0	0	263	242	1021	203	0	0	
11	0	0	0	0	231	260	1021	185	0	0	
12	0	0	0	0	210	283	1021	173	0	0	
13	0	0	0	0	202	308	1020	169	0	0	
14	0	0	0	0	208	334	1021	172	0	0	
15	0	0	0	0	229	354	1021	184	0	0	
0	0	0	0	0	261	370	1021	200	0	0	
1	0	0	0	0	300	379	1021	222	0	0	
2	0	0	0	0	346	382	1021	247	0	0	
3	0	0	0	0	395	377	1021	273	0	0	
4	0	0	0	0	441	366	1021	299	0	0	
5	0	0	0	0	480	351	1021	322	0	0	
6	0	0	0	0	512	334	1021	342	0	0	
7	0	0	0	0	531	317	1021	357	0	0	
8	0	0	0	0	540	305	1021	368	0	0	
9	0	0	0	0	537	299	1021	374	0	0	
10	0	0	0	0	526	301	1021	377	0	0	
11	0	0	0	0	507	312	1021	377	0	0	
12	0	0	0	0	485	332	1020	376	0	0	
13	0	0	0	0	463	360	1021	375	0	0	
14	0	0	0	0	445	395	1021	376	0	0	
15	0	0	0	0	433	437	1021	381	0	0	
0	0	0	0	0	431	480	1021	389	0	0	
1	0	0	0	0	439	523	1021	401	0	0	
2	0	0	0	0	458	561	1021	417	0	0	
3	0	0	0	0	486	591	1021	436	0	0	
4	0	0	0	0	520	613	1021	458	0	0	
5	0	0	0	0	558	623	1021	479	0	0	
6	0	0	0	0	596	621	1021	498	0	0	
7	0	0	0	0	630	609	1021	515	0	0	
8	0	0	0	0	659	586	1021	526	0	0	
9	0	0	0	0	677	556	1021	532	0	0	
10	0	0	0	0	685	521	1021	531	0	0	
11	0	0	0	0	679	485	1020	523	0	0	
12	0	0	0	0	662	451	1021	510	0	0	
13	0	0	0	0	634	423	1021	491	0	0	
14	0	0	0	0	599	404	1021	471	0	0	
15	0	0	0	0	558	395	1021	449	0	0	
0	0	0	0	0	516	395	1021	428	0	0	
1	0	0	0	0	479	407	1021	410	0	0	
2	0	0	0	0	448	428	1021	397	0	0	
3	0	0	0	0	427	457	1021	391	0	0	
4	0	0	0	0	418	490	1021	390	0	0	
5	0	0	0	0	423	525	1020	396	0	0	
6	0	0	0	0	440	557	1021	408	0	0	
7	0	0	0	0	468	583	1021	425	0	0	
8	0	0	0	0	504	601	1021	445	0	0	
9	0	0	0	0	544	610	1021	466	0	0	
10	0	0	0	0	585	608	1021	486	0	0	
11	0	0	0	0	624	597	1021	503	0	0	
12	0	0	0	0	655	576	1021	515	0	0	
13	0	0	0	0	677	549	1021	522	0	0	
14	0	0	0	0	687	517	1021	523	0	0	
15	0	0	0	0	684	484	1021	516	0	0	
0	0	0	0	0	668	453	1021	505	0	0	
1	0	0	0	0	641	428	1021	489	0	0	
2	0	0	0	0	606	411	1021	470	0	0	
3	0	0	0	0	566	403	1021	450	0	0	
4	0	0	0	0	524	404	1021	431	0	0	
5	0	0	0	0	486	415	1021	414	0	0	
6	0	0	0	0	453	435	1021	401	0	0	
7	0	0	0	0	430	463	1021	395	0	0	
8	0	0	0	0	419	494	1021	393	0	0	
9	0	0	0	0	421	526	1021	399	0	0	
10	0	0	0	0	436	555	1021	410	0	0	
11	0	0	0	0	463	580	1021	426	0	0	
12	0	0	0	0	497	597	1021	445	0	0	
13	0	0	0	0	537	605	1021	465	0	0	
14	0	0	0	0	579	603	1021	485	0	0	
15	0	0	0	0	618	592	1021	503	0	0	
0	0	0	0	0	651	573	1021	517	0	0	
1	0	0	0	0	674	546	1021	525	0	0	
2	0	0	0	0	686	516	1021	527	0	0	
3	0	0	0	0	685	485	1021	523	0	0	
4	0	0	0	0	671	455	1021	513	0	0	
5	0	0	0	0	647	432	1021	499	0	0	
6	0	0	0	0	614	415	1021	481	0	0	
7	0	0	0	0	575	408	1021	463	0	0	
8	0	0	0	0	535	410	1021	444	0	0	
9	0	0	0	0	496	422	1021	428	0	0	
10	0	0	0	0	464	443	1021	415	0	0	
11	0	0	0	0	441	470	1021	408	0	0	
12	0	0	0	0	430	502	1021	407	0	0	
13	0	0	0	0	432	535	1021	412	0	0	
14	0	0	0	0	446	564	1021	422	0	0	
15	0	0	0	0	472	588	1021	438	0	0	
0	0	0	0	0	505	605	1021	455	0	0	
1	0	0	0	0	544	612	1021	474	0	0	
2	0	0	0	0	584	609	1021	493	0	0	
3	0	0	0	0	621	598	1021	508	0	0	
4	0	0	0	0	652	576	1021	520	0	0	
5	0	0	0	0	674	548	1021	527	0	0	
6	0	0	0	0	684	515	1021	527	0	0	
7	0	0	0	0	681	483	1020	520	0	0	
8	0	0	0	0	665	451	1021	509	0	0	
9	0	0	0	0	639	425	1021	492	0	0	
10	0	0	0	0	604	407	1021	472	0	0	
11	0	0	0	0	565	398	1021	452	0	0	
12	0	0	0	0	523	399	1021	432	0	0	
13	0	0	0	0	484	409	1021	415	0	0	
14	0	0	0	0	451	429	1021	402	0	0	
15	0	0	0	0	427	456	1021	395	0	0	
0	0	0	0	0	416	487	1021	393	0	0	
1	0	0	0	0	417	519	1020	398	0	0	
2	0	0	0	0	431	550	1021	408	0	0	
3	0	0	0	0	456	574	1021	423	0	0	
4	0	0	0	0	491	591	1021	442	0	0	
5	0	0	0	0	529	599	1021	461	0	0	
6	0	0	0	0	569	596	1021	480	0	0	
7	0	0	0	0	608	586	1021	496	0	0	
8	0	0	0	0	640	565	1021	508	0	0	
9	0	0	0	0	663	538	1021	516	0	0	
10	0	0	0	0	675	508	1021	517	0	0	
11	0	0	0	0	674	476	1021	512	0	0	
12	0	0	0	0	661	447	1021	502	0	0	
13	0	0	0	0	637	423	1021	487	0	0	
14	0	0	0	0	604	407	1021	472	0	0	
15	0	0	0	0	566	399	1021	453	0	0	
0	0	0	0	0	527	401	1021	436	0	0	
1	0	0	0	0	489	413	1021	420	0	0	
2	0	0	0	0	458	434	1021	409	0	0	
3	0	0	0	0	435	462	1021	403	0	0	
4	0	0	0	0	425	493	1021	402	0	0	
5	0	0	0	0	427	526	1020	407	0	0	
6	0	0	0	0	441	556	1021	417	0	0	
7	0	0	0	0	467	580	1021	431	0	0	
8	0	0	0	0	501	596	1021	448	0	0	
9	0	0	0	0	539	603	1021	465	0	0	
10	0	0	0	0	577	601	1021	482	0	0	
11	0	0	0	0	614	588	1021	496	0	0	
12	0	0	0	0	644	567	1021	507	0	0	
13	0	0	0	0	665	539	1021	513	0	0	
14	0	0	0	0	674	507	1021	512	0	0	
15	0	0	0	0	671	474	1021	506	0	0	
0	0	0	0	0	656	444	1021	495	0	0	
1	0	0	0	0	630	419	1021	480	0	0	
2	0	0	0	0	596	401	1021	463	0	0	
3	0	0	0	0	558	393	1021	445	0	0	
4	0	0	0	0	518	396	1020	428	0	0	
5	0	0	0	0	481	408	1021	413	0	0	
6	0	0	0	0	450	428	1021	403	0	0	
7	0	0	0	0	429	457	1021	398	0	0	
8	0	0	0	0	420	489	1021	399	0	0	
9	0	0	0	0	424	523	1021	406	0	0	
10	0	0	0	0	441	554	1021	418	0	0	
11	0	0	0	0	468	580	1021	434	0	0	
12	0	0	0	0	503	598	1021	453	0	0	
13	0	0	0	0	542	606	1021	472	0	0	
14	0	0	0	0	582	604	1020	489	0	0	
15	0	0	0	0	620	593	1021	505	0	0	
0	0	0	0	0	650	571	1021	515	0	0	
1	0	0	0	0	671	543	1021	521	0	0	
2	0	0	0	0	679	511	1021	520	0	0	
3	0	0	0	0	675	479	1020	513	0	0	
4	0	0	0	0	659	448	1021	502	0	0	
5	0	0	0	0	632	422	1021	486	0	0	
6	0	0	0	0	597	405	1021	468	0	0	
7	0	0	0	0	557	396	1021	448	0	0	
8	0	0	0	0	516	398	1021	430	0	0	
9	0	0	0	0	478	410	1021	414	0	0	
10	0	0	0	0	446	431	1021	403	0	0	
11	0	0	0	0	424	460	1021	397	0	0	
12	0	0	0	0	414	492	1021	397	0	0	
13	0	0	0	0	417	525	1021	403	0	0	
14	0	0	0	0	433	555	1021	415	0	0	
15	0	0	0	0	461	580	1021	431	0	0	
0	0	0	0	0	496	597	1021	449	0	0	
1	0	0	0	0	536	605	1021	468	0	0	
2	0	0	0	0	577	602	1020	485	0	0	
3	0	0	0	0	615	590	1021	501	0	0	
4	0	0	0	0	647	568	1021	512	0	0	
5	0	0	0	0	669	540	1021	518	0	0	
6	0	0	0	0	679	507	1021	517	0	0	
7	0	0	0	0	677	474	1020	510	0	0	
8	0	0	0	0	662	442	1021	499	0	0	
9	0	0	0	0	636	416	1021	483	0	0	
10	0	0	0	0	601	398	1021	464	0	0	
11	0	0	0	0	561	389	1021	445	0	0	
12	0	0	0	0	519	390	1021	426	0	0	
13	0	0	0	0	480	401	1021	410	0	0	
14	0	0	0	0	447	422	1021	398	0	0	
15	0	0	0	0	423	449	1021	391	0	0	
0	0	0	0	0	411	481	1021	390	0	0	
1	0	0	0	0	411	513	1021	396	0	0	
2	0	0	0	0	425	543	1021	407	0	0	
3	0	0	0	0	450	568	1021	422	0	0	
4	0	0	0	0	484	585	1021	439	0	0	
5	0	0	0	0	523	592	1021	458	0	0	
6	0	0	0	0	563	590	1021	476	0	0	
7	0	0	0	0	600	578	1021	491	0	0	
8	0	0	0	0	632	558	1021	502	0	0	
9	0	0	0	0	655	530	1021	508	0	0	
10	0	0	0	0	667	498	1021	508	0	0	
11	0	0	0	0	665	466	1021	501	0	0	
12	0	0	0	0	652	436	1021	490	0	0	
13	0	0	0	0	627	411	1021	475	0	0	
14	0	0	0	0	594	394	1021	456	0	0	
15	0	0	0	0	556	386	1021	437	0	0	
0	0	0	0	0	515	388	1021	419	0	0	
1	0	0	0	0	478	399	1021	403	0	0	
2	0	0	0	0	446	419	1021	391	0	0	
3	0	0	0	0	423	447	1021	384	0	0	
4	0	0	0	0	411	478	1021	384	0	0	
5	0	0	0	0	412	510	1021	389	0	0	
6	0	0	0	0	426	539	1021	400	0	0	
7	0	0	0	0	451	563	1021	415	0	0	
8	0	0	0	0	484	579	1021	433	0	0	
9	0	0	0	0	522	586	1021	452	0	0	
10	0	0	0	0	561	583	1021	470	0	0	
11	0	0	0	0	599	571	1021	487	0	0	
12	0	0	0	0	630	550	1021	499	0	0	
13	0	0	0	0	652	523	1021	506	0	0	
14	0	0	0	0	664	491	1021	507	0	0	
15	0	0	0	0	663	460	1021	502	0	0	
0	0	0	0	0	650	430	1021	492	0	0	
1	0	0	0	0	626	407	1021	477	0	0	
2	0	0	0	0	594	391	1021	460	0	0	
3	0	0	0	0	556	384	1021	441	0	0	
4	0	0	0	0	517	387	1021	423	0	0	
5	0	0	0	0	480	400	1021	408	0	0	
6	0	0	0	0	448	421	1021	396	0	0	
7	0	0	0	0	426	449	1021	390	0	0	
8	0	0	0	0	415	481	1021	389	0	0	
9	0	0	0	0	416	514	1021	395	0	0	
10	0	0	0	0	430	543	1021	406	0	0	
11	0	0	0	0	454	567	1021	420	0	0	
12	0	0	0	0	486	582	1021	438	0	0	
13	0	0	0	0	523	588	1021	456	0	0	
14	0	0	0	0	560	584	1021	474	0	0	
15	0	0	0	0	596	571	1021	490	0	0	
0	0	0	0	0	626	549	1021	501	0	0	
1	0	0	0	0	647	520	1021	508	0	0	
2	0	0	0	0	657	488	1021	508	0	0	
3	0	0	0	0	654	455	1021	502	0	0	
4	0	0	0	0	640	425	1021	491	0	0	
5	0	0	0	0	615	400	1021	475	0	0	
6	0	0	0	0	582	383	1021	457	0	0	
7	0	0	0	0	544	376	1021	438	0	0	
8	0	0	0	0	505	377	1021	419	0	0	
9	0	0	0	0	468	389	1021	403	0	0	
10	0	0	0	0	438	410	1021	391	0	0	
11	0	0	0	0	417	439	1021	384	0	0	
12	0	0	0	0	408	471	1021	384	0	0	
13	0	0	0	0	412	504	1021	390	0	0	
14	0	0	0	0	428	534	1021	401	0	0	
15	0	0	0	0	455	559	1021	417	0	0	
0	0	0	0	0	490	577	1021	436	0	0	
1	0	0	0	0	529	585	1021	455	0	0	
2	0	0	0	0	569	583	1021	475	0	0	
3	0	0	0	0	608	572	1021	492	0	0	
4	0	0	0	0	639	551	1021	504	0	0	
5	0	0	0	0	661	525	1021	512	0	0	
6	0	0	0	0	671	494	1021	512	0	0	
7	0	0	0	0	668	462	1020	507	0	0	
8	0	0	0	0	654	432	1021	496	0	0	
9	0	0	0	0	627	407	1021	480	0	0	
10	0	0	0	0	594	391	1021	462	0	0	
11	0	0	0	0	555	383	1021	442	0	0	
12	0	0	0	0	514	385	1021	423	0	0	
13	0	0	0	0	476	397	1021	406	0	0	
14	0	0	0	0	444	418	1021	393	0	0	
15	0	0	0	0	422	446	1021	386	0	0	
0	0	0	0	0	411	478	1021	384	0	0	
1	0	0	0	0	414	511	1021	390	0	0	
2	0	0	0	0	428	542	1021	401	0	0	
3	0	0	0	0	455	567	1021	417	0	0	
4	0	0	0	0	489	583	1021	437	0	0	
5	0	0	0	0	528	591	1021	457	0	0	
6	0	0	0	0	569	588	1021	478	0	0	
7	0	0	0	0	607	577	1021	495	0	0	
8	0	0	0	0	639	556	1021	508	0	0	
9	0	0	0	0	662	529	1021	517	0	0	
10	0	0	0	0	673	497	1021	519	0	0	
11	0	0	0	0	671	465	1021	515	0	0	
12	0	0	0	0	658	436	1021	505	0	0	
13	0	0	0	0	633	412	1021	491	0	0	
14	0	0	0	0	601	396	1021	475	0	0	
15	0	0	0	0	563	390	1021	456	0	0	
0	0	0	0	0	523	393	1020	439	0	0	
1	0	0	0	0	486	406	1021	423	0	0	
2	0	0	0	0	455	428	1021	411	0	0	
3	0	0	0	0	433	457	1021	404	0	0	
4	0	0	0	0	423	489	1021	403	0	0	
5	0	0	0	0	426	523	1021	408	0	0	
6	0	0	0	0	441	553	1021	418	0	0	
7	0	0	0	0	467	578	1021	432	0	0	
8	0	0	0	0	501	595	1021	449	0	0	
9	0	0	0	0	540	602	1021	468	0	0	
10	0	0	0	0	580	600	1021	486	0	0	
11	0	0	0	0	617	588	1021	502	0	0	
12	0	0	0	0	648	567	1021	514	0	0	
13	0	0	0	0	670	540	1021	522	0	0	
14	0	0	0	0	681	508	1021	523	0	0	
15	0	0	0	0	679	477	1020	519	0	0	
0	0	0	0	0	666	447	1021	510	0	0	
1	0	0	0	0	641	422	1021	496	0	0	
2	0	0	0	0	608	406	1021	480	0	0	
3	0	0	0	0	571	398	1021	462	0	0	
4	0	0	0	0	532	401	1021	444	0	0	
5	0	0	0	0	495	414	1021	428	0	0	
6	0	0	0	0	463	435	1021	416	0	0	
7	0	0	0	0	442	463	1021	409	0	0	
8	0	0	0	0	431	496	1021	408	0	0	
9	0	0	0	0	433	528	1021	412	0	0	
10	0	0	0	0	448	559	1021	422	0	0	
11	0	0	0	0	472	583	1021	435	0	0	
12	0	0	0	0	505	600	1021	452	0	0	
13	0	0	0	0	543	607	1021	470	0	0	
14	0	0	0	0	582	604	1020	486	0	0	
15	0	0	0	0	618	591	1021	502	0	0	
0	0	0	0	0	648	570	1021	513	0	0	
1	0	0	0	0	669	542	1021	519	0	0	
2	0	0	0	0	679	510	1021	520	0	0	
3	0	0	0	0	678	477	1021	516	0	0	
4	0	0	0	0	664	447	1021	506	0	0	
5	0	0	0	0	639	422	1021	492	0	0	
6	0	0	0	0	606	404	1021	476	0	0	
7	0	0	0	0	568	396	1021	458	0	0	
8	0	0	0	0	528	397	1021	441	0	0	
9	0	0	0	0	491	408	1021	425	0	0	
10	0	0	0	0	460	429	1021	414	0	0	
11	0	0	0	0	439	456	1021	408	0	0	
12	0	0	0	0	429	488	1021	407	0	0	
13	0	0	0	0	431	522	1020	412	0	0	
14	0	0	0	0	446	552	1021	423	0	0	
15	0	0	0	0	472	578	1021	438	0	0	
0	0	0	0	0	507	596	1021	456	0	0	
1	0	0	0	0	545	605	1021	474	0	0	
2	0	0	0	0	585	604	1021	492	0	0	
3	0	0	0	0	622	594	1021	507	0	0	
4	0	0	0	0	653	574	1021	519	0	0	
5	0	0	0	0	675	546	1021	525	0	0	
6	0	0	0	0	685	514	1021	524	0	0	
7	0	0	0	0	682	480	1021	518	0	0	
8	0	0	0	0	667	448	1021	505	0	0	
9	0	0	0	0	641	421	1021	489	0	0	
10	0	0	0	0	607	401	1021	471	0	0	
11	0	0	0	0	567	391	1021	450	0	0	
12	0	0	0	0	526	391	1021	431	0	0	
13	0	0	0	0	487	400	1021	414	0	0	
14	0	0	0	0	454	419	1021	401	0	0	
15	0	0	0	0	431	447	1021	395	0	0	
0	0	0	0	0	419	479	1021	393	0	0	
1	0	0	0	0	420	512	1021	399	0	0	
2	0	0	0	0	433	543	1021	410	0	0	
3	0	0	0	0	459	569	1021	425	0	0	
4	0	0	0	0	492	588	1021	444	0	0	
5	0	0	0	0	529	596	1021	463	0	0	
6	0	0	0	0	569	595	1021	483	0	0	
7	0	0	0	0	606	584	1021	499	0	0	
8	0	0	0	0	638	564	1021	511	0	0	
9	0	0	0	0	660	537	1021	519	0	0	
10	0	0	0	0	671	505	1021	520	0	0	
11	0	0	0	0	671	472	1020	515	0	0	
12	0	0	0	0	657	441	1021	505	0	0	
13	0	0	0	0	632	415	1021	491	0	0	
14	0	0	0	0	599	396	1021	473	0	0	
15	0	0	0	0	560	387	1021	454	0	0	
0	0	0	0	0	519	387	1021	436	0	0	
1	0	0	0	0	481	398	1021	419	0	0	
2	0	0	0	0	448	417	1021	407	0	0	
3	0	0	0	0	425	444	1021	400	0	0	
4	0	0	0	0	414	476	1021	399	0	0	
5	0	0	0	0	415	509	1021	403	0	0	
6	0	0	0	0	429	540	1021	413	0	0	
7	0	0	0	0	455	566	1021	428	0	0	
8	0	0	0	0	488	584	1021	445	0	0	
9	0	0	0	0	527	593	1021	463	0	0	
10	0	0	0	0	568	592	1021	483	0	0	
11	0	0	0	0	607	583	1021	499	0	0	
12	0	0	0	0	641	563	1021	512	0	0	
13	0	0	0	0	665	538	1021	520	0	0	
14	0	0	0	0	678	508	1021	523	0	0	
15	0	0	0	0	678	476	1021	519	0	0	
0	0	0	0	0	665	447	1021	509	0	0	
1	0	0	0	0	642	421	1021	495	0	0	
2	0	0	0	0	609	403	1021	478	0	0	
3	0	0	0	0	570	393	1021	459	0	0	
4	0	0	0	0	529	394	1021	440	0	0	
5	0	0	0	0	489	404	1021	423	0	0	
6	0	0	0	0	455	423	1021	410	0	0	
7	0	0	0	0	431	450	1021	403	0	0	
8	0	0	0	0	418	481	1021	401	0	0	
9	0	0	0	0	419	513	1021	407	0	0	
10	0	0	0	0	432	545	1021	416	0	0	
11	0	0	0	0	456	570	1021	431	0	0	
12	0	0	0	0	490	589	1021	449	0	0	
13	0	0	0	0	529	598	1021	468	0	0	
14	0	0	0	0	571	599	1020	486	0	0	
15	0	0	0	0	609	589	1021	503	0	0	
0	0	0	0	0	643	569	1021	515	0	0	
1	0	0	0	0	668	544	1021	523	0	0	
2	0	0	0	0	681	513	1021	524	0	0	
3	0	0	0	0	681	481	1020	519	0	0	
4	0	0	0	0	669	451	1021	508	0	0	
5	0	0	0	0	646	425	1021	494	0	0	
6	0	0	0	0	612	406	1021	476	0	0	
7	0	0	0	0	573	396	1021	457	0	0	
8	0	0	0	0	531	396	1021	438	0	0	
9	0	0	0	0	492	406	1021	421	0	0	
10	0	0	0	0	458	424	1021	408	0	0	
11	0	0	0	0	433	451	1021	400	0	0	
12	0	0	0	0	420	483	1021	399	0	0	
13	0	0	0	0	419	515	1021	403	0	0	
14	0	0	0	0	432	546	1021	413	0	0	
15	0	0	0	0	456	572	1021	428	0	0	
0	0	0	0	0	489	591	1021	445	0	0	
1	0	0	0	0	527	600	1021	464	0	0	
2	0	0	0	0	567	600	1021	483	0	0	
3	0	0	0	0	606	589	1021	499	0	0	
4	0	0	0	0	638	570	1021	511	0	0	
5	0	0	0	0	662	543	1021	519	0	0	
6	0	0	0	0	674	511	1021	519	0	0	
7	0	0	0	0	674	478	1021	515	0	0	
8	0	0	0	0	662	446	1021	504	0	0	
9	0	0	0	0	638	420	1021	489	0	0	
10	0	0	0	0	606	400	1021	472	0	0	
11	0	0	0	0	568	390	1021	453	0	0	
12	0	0	0	0	527	389	1021	434	0	0	
13	0	0	0	0	489	399	1021	418	0	0	
14	0	0	0	0	457	419	1021	406	0	0	
15	0	0	0	0	433	446	1021	399	0	0	
0	0	0	0	0	422	479	1021	398	0	0	
1	0	0	0	0	423	513	1021	404	0	0	
2	0	0	0	0	437	546	1021	415	0	0	
3	0	0	0	0	463	573	1021	431	0	0	
4	0	0	0	0	496	594	1021	450	0	0	
5	0	0	0	0	536	605	1021	470	0	0	
6	0	0	0	0	577	607	1021	489	0	0	
7	0	0	0	0	615	597	1021	506	0	0	
8	0	0	0	0	648	579	1021	519	0	0	
9	0	0	0	0	671	553	1021	526	0	0	
10	0	0	0	0	684	522	1021	528	0	0	
11	0	0	0	0	683	489	1021	523	0	0	
12	0	0	0	0	669	457	1021	512	0	0	
13	0	0	0	0	644	429	1021	497	0	0	
14	0	0	0	0	611	409	1021	479	0	0	
15	0	0	0	0	571	397	1021	460	0	0	
0	0	0	0	0	529	395	1021	440	0	0	
1	0	0	0	0	490	404	1021	423	0	0	
2	0	0	0	0	456	422	1021	409	0	0	
3	0	0	0	0	432	448	1021	401	0	0	
4	0	0	0	0	419	478	1021	399	0	0	
5	0	0	0	0	419	511	1020	403	0	0	
6	0	0	0	0	433	543	1021	412	0	0	
7	0	0	0	0	459	569	1021	427	0	0	
8	0	0	0	0	493	589	1021	446	0	0	
9	0	0	0	0	533	600	1021	465	0	0	
10	0	0	0	0	574	601	1021	484	0	0	
11	0	0	0	0	614	593	1021	502	0	0	
12	0	0	0	0	648	575	1021	515	0	0	
13	0	0	0	0	673	551	1021	523	0	0	
14	0	0	0	0	686	521	1021	526	0	0	
15	0	0	0	0	687	490	1021	522	0	0	
0	0	0	0	0	675	459	1021	513	0	0	
1	0	0	0	0	651	433	1021	499	0	0	
2	0	0	0	0	618	415	1021	483	0	0	
3	0	0	0	0	579	404	1021	464	0	0	
4	0	0	0	0	538	403	1020	446	0	0	
5	0	0	0	0	498	411	1021	429	0	0	
6	0	0	0	0	464	429	1021	416	0	0	
7	0	0	0	0	438	455	1021	409	0	0	
8	0	0	0	0	424	485	1021	407	0	0	
9	0	0	0	0	423	517	1020	411	0	0	
10	0	0	0	0	436	547	1021	422	0	0	
11	0	0	0	0	460	573	1021	436	0	0	
12	0	0	0	0	493	591	1021	454	0	0	
13	0	0	0	0	531	601	1021	472	0	0	
14	0	0	0	0	572	603	1021	491	0	0	
15	0	0	0	0	610	593	1021	507	0	0	
0	0	0	0	0	643	575	1021	519	0	0	
1	0	0	0	0	668	550	1021	526	0	0	
2	0	0	0	0	680	520	1021	527	0	0	
3	0	0	0	0	680	487	1021	522	0	0	
4	0	0	0	0	668	457	1021	511	0	0	
5	0	0	0	0	644	432	1021	496	0	0	
6	0	0	0	0	612	413	1021	479	0	0	
7	0	0	0	0	575	403	1021	461	0	0	
8	0	0	0	0	535	403	1021	443	0	0	
9	0	0	0	0	497	414	1021	428	0	0	
10	0	0	0	0	465	432	1021	416	0	0	
11	0	0	0	0	441	460	1021	410	0	0	
12	0	0	0	0	429	491	1021	409	0	0	
13	0	0	0	0	429	524	1020	414	0	0	
14	0	0	0	0	442	554	1021	425	0	0	
15	0	0	0	0	467	579	1021	440	0	0	
0	0	0	0	0	499	598	1021	457	0	0	
1	0	0	0	0	537	607	1021	476	0	0	
2	0	0	0	0	577	607	1021	494	0	0	
3	0	0	0	0	616	597	1021	511	0	0	
4	0	0	0	0	650	578	1021	524	0	0	
5	0	0	0	0	674	552	1021	531	0	0	
6	0	0	0	0	688	522	1021	533	0	0	
7	0	0	0	0	688	490	1021	528	0	0	
8	0	0	0	0	676	460	1021	519	0	0	
9	0	0	0	0	652	435	1021	504	0	0	
10	0	0	0	0	619	416	1021	487	0	0	
11	0	0	0	0	580	407	1021	468	0	0	
12	0	0	0	0	539	406	1020	448	0	0	
13	0	0	0	0	500	416	1021	431	0	0	
14	0	0	0	0	466	434	1021	418	0	0	
15	0	0	0	0	441	460	1021	409	0	0	
0	0	0	0	0	427	490	1021	407	0	0	
1	0	0	0	0	427	521	1021	410	0	0	
2	0	0	0	0	439	551	1021	419	0	0	
3	0	0	0	0	463	575	1021	433	0	0	
4	0	0	0	0	495	592	1021	449	0	0	
5	0	0	0	0	532	600	1021	466	0	0	
6	0	0	0	0	571	599	1021	483	0	0	
7	0	0	0	0	607	588	1021	497	0	0	
8	0	0	0	0	639	567	1021	508	0	0	
9	0	0	0	0	661	540	1021	515	0	0	
10	0	0	0	0	672	508	1021	515	0	0	
11	0	0	0	0	671	475	1020	510	0	0	
12	0	0	0	0	659	444	1021	500	0	0	
13	0	0	0	0	636	418	1021	486	0	0	
14	0	0	0	0	604	400	1021	470	0	0	
15	0	0	0	0	567	391	1021	452	0	0	
0	0	0	0	0	528	391	1021	435	0	0	
1	0	0	0	0	492	401	1021	420	0	0	
2	0	0	0	0	461	422	1021	408	0	0	
3	0	0	0	0	438	449	1021	402	0	0	
4	0	0	0	0	427	481	1021	401	0	0	
5	0	0	0	0	428	515	1021	406	0	0	
6	0	0	0	0	442	547	1021	416	0	0	
7	0	0	0	0	466	574	1021	431	0	0	
8	0	0	0	0	498	593	1021	449	0	0	
9	0	0	0	0	536	603	1021	467	0	0	
10	0	0	0	0	574	603	1020	484	0	0	
11	0	0	0	0	610	593	1021	500	0	0	
12	0	0	0	0	641	574	1021	512	0	0	
13	0	0	0	0	663	547	1021	519	0	0	
14	0	0	0	0	674	515	1021	520	0	0	
15	0	0	0	0	673	481	1021	515	0	0	
0	0	0	0	0	659	449	1021	505	0	0	
1	0	0	0	0	636	422	1021	490	0	0	
2	0	0	0	0	604	403	1021	473	0	0	
3	0	0	0	0	566	391	1021	454	0	0	
4	0	0	0	0	526	391	1021	436	0	0	
5	0	0	0	0	489	401	1021	420	0	0	
6	0	0	0	0	457	420	1021	408	0	0	
7	0	0	0	0	434	448	1021	401	0	0	
8	0	0	0	0	423	480	1021	400	0	0	
9	0	0	0	0	424	515	1021	406	0	0	
10	0	0	0	0	438	547	1021	417	0	0	
11	0	0	0	0	463	575	1021	434	0	0	
12	0	0	0	0	497	596	1021	453	0	0	
13	0	0	0	0	536	608	1021	473	0	0	
14	0	0	0	0	576	610	1021	494	0	0	
15	0	0	0	0	615	602	1021	511	0	0	
0	0	0	0	0	647	584	1021	525	0	0	
1	0	0	0	0	671	559	1021	533	0	0	
2	0	0	0	0	684	528	1021	535	0	0	
3	0	0	0	0	683	495	1021	529	0	0	
4	0	0	0	0	671	463	1021	519	0	0	
5	0	0	0	0	647	437	1021	504	0	0	
6	0	0	0	0	615	417	1021	485	0	0	
7	0	0	0	0	577	406	1021	464	0	0	
8	0	0	0	0	536	404	1021	445	0	0	
9	0	0	0	0	498	412	1021	428	0	0	
10	0	0	0	0	465	431	1021	414	0	0	
11	0	0	0	0	441	457	1021	406	0	0	
12	0	0	0	0	429	488	1021	404	0	0	
13	0	0	0	0	429	521	1021	409	0	0	
14	0	0	0	0	443	553	1021	419	0	0	
15	0	0	0	0	468	580	1021	435	0	0	
0	0	0	0	0	502	600	1021	454	0	0	
1	0	0	0	0	540	611	1021	474	0	0	
2	0	0	0	0	581	613	1021	493	0	0	
3	0	0	0	0	620	604	1021	511	0	0	
4	0	0	0	0	654	587	1021	524	0	0	
5	0	0	0	0	679	562	1021	534	0	0	
6	0	0	0	0	692	532	1021	536	0	0	
7	0	0	0	0	692	501	1021	532	0	0	
8	0	0	0	0	680	471	1021	523	0	0	
9	0	0	0	0	657	445	1021	509	0	0	
10	0	0	0	0	625	426	1021	492	0	0	
11	0	0	0	0	587	416	1021	473	0	0	
12	0	0	0	0	546	415	1021	455	0	0	
13	0	0	0	0	507	423	1021	439	0	0	
14	0	0	0	0	473	441	1021	425	0	0	
15	0	0	0	0	449	467	1021	417	0	0	
0	0	0	0	0	435	497	1021	414	0	0	
1	0	0	0	0	435	529	1021	417	0	0	
2	0	0	0	0	448	559	1021	427	0	0	
3	0	0	0	0	472	584	1021	440	0	0	
4	0	0	0	0	504	603	1021	457	0	0	
5	0	0	0	0	542	612	1021	475	0	0	
6	0	0	0	0	582	612	1021	492	0	0	
7	0	0	0	0	620	603	1021	509	0	0	
8	0	0	0	0	653	584	1021	521	0	0	
9	0	0	0	0	676	558	1021	528	0	0	
10	0	0	0	0	688	527	1021	529	0	0	
11	0	0	0	0	687	495	1021	525	0	0	
12	0	0	0	0	673	463	1021	515	0	0	
13	0	0	0	0	649	436	1021	499	0	0	
14	0	0	0	0	615	417	1021	483	0	0	
15	0	0	0	0	577	406	1021	463	0	0	
0	0	0	0	0	536	406	1021	444	0	0	
1	0	0	0	0	497	415	1021	428	0	0	
2	0	0	0	0	463	433	1021	415	0	0	
3	0	0	0	0	439	460	1021	408	0	0	
4	0	0	0	0	427	492	1021	407	0	0	
5	0	0	0	0	427	525	1021	412	0	0	
6	0	0	0	0	441	557	1021	423	0	0	
7	0	0	0	0	466	583	1021	438	0	0	
8	0	0	0	0	500	603	1021	456	0	0	
9	0	0	0	0	538	613	1021	475	0	0	
10	0	0	0	0	579	612	1021	494	0	0	
11	0	0	0	0	616	603	1021	508	0	0	
12	0	0	0	0	647	583	1021	519	0	0	
13	0	0	0	0	669	554	1021	524	0	0	
14	0	0	0	0	679	519	1021	522	0	0	
15	0	0	0	0	674	481	1021	512	0	0	
0	0	0	0	0	655	444	1021	496	0	0	
1	0	0	0	0	625	410	1021	474	0	0	
2	0	0	0	0	584	383	1021	448	0	0	
3	0	0	0	0	537	363	1021	420	0	0	
4	0	0	0	0	486	353	1021	391	0	0	
5	0	0	0	0	436	352	1021	364	0	0	
6	0	0	0	0	392	360	1021	340	0	0	
7	0	0	0	0	356	377	1021	322	0	0	
8	0	0	0	0	332	399	1021	309	0	0	
9	0	0	0	0	320	423	1021	303	0	0	
10	0	0	0	0	322	445	1021	302	0	0	
11	0	0	0	0	334	462	1021	306	0	0	
12	0	0	0	0	357	472	1021	313	0	0	
13	0	0	0	0	385	472	1021	323	0	0	
14	0	0	0	0	416	463	1020	332	0	0	
15	0	0	0	0	445	443	1021	340	0	0	
0	0	0	0	0	470	413	1021	344	0	0	
1	0	0	0	0	485	376	1021	343	0	0	
2	0	0	0	0	490	336	1021	335	0	0	
3	0	0	0	0	483	294	1021	323	0	0	
4	0	0	0	0	464	255	1021	307	0	0	
5	0	0	0	0	436	222	1021	287	0	0	
6	0	0	0	0	401	198	1021	268	0	0	
7	0	0	0	0	363	185	1021	248	0	0	
8	0	0	0	0	326	184	1021	231	0	0	
9	0	0	0	0	293	198	1021	220	0	0	
10	0	0	0	0	269	224	1021	215	0	0	
11	0	0	0	0	256	263	1021	219	0	0	
12	0	0	0	0	258	309	1021	232	0	0	
13	0	0	0	0	275	361	1020	254	0	0	
14	0	0	0	0	307	415	1020	284	0	0	
15	0	0	0	0	353	465	1021	320	0	0	
0	0	0	0	0	409	510	1021	361	0	0	
1	0	0	0	0	472	544	1021	404	0	0	
2	0	0	0	0	536	568	1021	446	0	0	
3	0	0	0	0	597	579	1021	484	0	0	
4	0	0	0	0	651	578	1021	517	0	0	
5	0	0	0	0	692	567	1021	542	0	0	
6	0	0	0	0	719	547	1021	557	0	0	
7	0	0	0	0	731	522	1021	562	0	0	
8	0	0	0	0	727	497	1021	560	0	0	
9	0	0	0	0	708	473	1021	550	0	0	
10	0	0	0	0	677	455	1021	534	0	0	
11	0	0	0	0	637	444	1021	513	0	0	
12	0	0	0	0	592	441	1020	492	0	0	
13	0	0	0	0	547	448	1021	472	0	0	
14	0	0	0	0	506	463	1021	454	0	0	
15	0	0	0	0	474	486	1021	441	0	0	
0	0	0	0	0	452	514	1021	433	0	0	
1	0	0	0	0	444	544	1021	433	0	0	
2	0	0	0	0	451	572	1021	438	0	0	
3	0	0	0	0	470	596	1021	450	0	0	
4	0	0	0	0	500	614	1021	465	0	0	
5	0	0	0	0	537	623	1021	482	0	0	
6	0	0	0	0	577	624	1021	500	0	0	
7	0	0	0	0	617	615	1021	517	0	0	
8	0	0	0	0	653	597	1021	531	0	0	
9	0	0	0	0	680	572	1021	540	0	0	
10	0	0	0	0	697	542	1021	543	0	0	
11	0	0	0	0	702	510	1020	540	0	0	
12	0	0	0	0	693	480	1021	532	0	0	
13	0	0	0	0	673	454	1021	519	0	0	
14	0	0	0	0	643	435	1021	503	0	0	
15	0	0	0	0	607	424	1021	484	0	0	
0	0	0	0	0	567	423	1021	466	0	0	
1	0	0	0	0	528	432	1021	450	0	0	
2	0	0	0	0	494	450	1021	437	0	0	
3	0	0	0	0	467	476	1021	429	0	0	
4	0	0	0	0	452	506	1021	427	0	0	
5	0	0	0	0	450	539	1021	431	0	0	
6	0	0	0	0	460	569	1021	441	0	0	
7	0	0	0	0	482	595	1021	455	0	0	
8	0	0	0	0	513	614	1021	473	0	0	
9	0	0	0	0	550	624	1021	492	0	0	
10	0	0	0	0	590	624	1021	510	0	0	
11	0	0	0	0	627	615	1021	526	0	0	
12	0	0	0	0	661	596	1021	539	0	0	
13	0	0	0	0	685	571	1021	547	0	0	
14	0	0	0	0	699	540	1021	549	0	0	
15	0	0	0	0	701	507	1021	544	0	0	
0	0	0	0	0	689	475	1021	535	0	0	
1	0	0	0	0	668	448	1021	520	0	0	
2	0	0	0	0	636	429	1021	503	0	0	
3	0	0	0	0	598	418	1021	483	0	0	
4	0	0	0	0	558	416	1021	464	0	0	
5	0	0	0	0	519	425	1021	447	0	0	
6	0	0	0	0	484	444	1021	433	0	0	
7	0	0	0	0	459	470	1021	425	0	0	
8	0	0	0	0	444	501	1021	422	0	0	
9	0	0	0	0	442	534	1021	425	0	0	
10	0	0	0	0	454	566	1021	434	0	0	
11	0	0	0	0	477	592	1021	448	0	0	
12	0	0	0	0	509	612	1021	465	0	0	
13	0	0	0	0	547	623	1021	483	0	0	
14	0	0	0	0	588	624	1020	501	0	0	
15	0	0	0	0	626	615	1021	517	0	0	
0	0	0	0	0	659	595	1021	530	0	0	
1	0	0	0	0	683	568	1021	537	0	0	
2	0	0	0	0	696	537	1021	539	0	0	
3	0	0	0	0	696	503	1021	535	0	0	
4	0	0	0	0	684	471	1021	524	0	0	
5	0	0	0	0	660	442	1021	510	0	0	
6	0	0	0	0	628	421	1021	492	0	0	
7	0	0	0	0	589	408	1021	472	0	0	
8	0	0	0	0	548	406	1021	453	0	0	
9	0	0	0	0	508	415	1021	436	0	0	
10	0	0	0	0	475	432	1021	423	0	0	
11	0	0	0	0	449	457	1021	415	0	0	
12	0	0	0	0	436	489	1021	413	0	0	
13	0	0	0	0	435	523	1020	417	0	0	
14	0	0	0	0	448	555	1020	428	0	0	
15	0	0	0	0	472	582	1021	443	0	0	
0	0	0	0	0	506	604	1021	461	0	0	
1	0	0	0	0	544	615	1021	481	0	0	
2	0	0	0	0	585	619	1020	501	0	0	
3	0	0	0	0	624	611	1021	518	0	0	
4	0	0	0	0	658	594	1021	532	0	0	
5	0	0	0	0	683	569	1021	541	0	0	
6	0	0	0	0	696	539	1021	543	0	0	
7	0	0	0	0	697	505	1021	540	0	0	
8	0	0	0	0	685	473	1021	529	0	0	
9	0	0	0	0	662	444	1021	515	0	0	
10	0	0	0	0	630	423	1021	497	0	0	
11	0	0	0	0	591	410	1021	477	0	0	
12	0	0	0	0	550	407	1020	457	0	0	
13	0	0	0	0	510	414	1021	440	0	0	
14	0	0	0	0	476	432	1021	426	0	0	
15	0	0	0	0	451	457	1021	417	0	0	
0	0	0	0	0	437	488	1021	415	0	0	
1	0	0	0	0	437	523	1021	419	0	0	
2	0	0	0	0	449	556	1021	429	0	0	
3	0	0	0	0	473	583	1021	444	0	0	
4	0	0	0	0	506	604	1021	462	0	0	
5	0	0	0	0	545	616	1021	482	0	0	
6	0	0	0	0	585	619	1020	501	0	0	
7	0	0	0	0	624	611	1021	519	0	0	
8	0	0	0	0	657	593	1021	532	0	0	
9	0	0	0	0	681	568	1021	541	0	0	
10	0	0	0	0	695	536	1021	543	0	0	
11	0	0	0	0	696	503	1020	538	0	0	
12	0	0	0	0	684	470	1021	527	0	0	
13	0	0	0	0	661	441	1021	513	0	0	
14	0	0	0	0	628	419	1021	495	0	0	
15	0	0	0	0	590	406	1021	475	0	0	
0	0	0	0	0	548	402	1021	455	0	0	
1	0	0	0	0	508	409	1021	437	0	0	
2	0	0	0	0	473	426	1021	423	0	0	
3	0	0	0	0	448	451	1021	414	0	0	
4	0	0	0	0	433	482	1021	411	0	0	
5	0	0	0	0	431	515	1021	414	0	0	
6	0	0	0	0	442	547	1021	423	0	0	
7	0	0	0	0	466	575	1021	437	0	0	
8	0	0	0	0	497	596	1021	454	0	0	
9	0	0	0	0	535	609	1021	472	0	0	
10	0	0	0	0	575	611	1021	491	0	0	
11	0	0	0	0	613	604	1021	508	0	0	
12	0	0	0	0	647	588	1021	521	0	0	
13	0	0	0	0	672	563	1021	530	0	0	
14	0	0	0	0	686	532	1021	532	0	0	
15	0	0	0	0	688	500	1020	529	0	0	
0	0	0	0	0	676	467	1021	520	0	0	
1	0	0	0	0	654	439	1021	506	0	0	
2	0	0	0	0	623	417	1021	489	0	0	
3	0	0	0	0	585	404	1021	471	0	0	
4	0	0	0	0	544	401	1020	451	0	0	
5	0	0	0	0	505	408	1020	434	0	0	
6	0	0	0	0	471	423	1021	421	0	0	
7	0	0	0	0	445	448	1021	412	0	0	
8	0	0	0	0	431	479	1021	409	0	0	
9	0	0	0	0	429	512	1021	413	0	0	
10	0	0	0	0	440	544	1021	422	0	0	
11	0	0	0	0	464	572	1021	435	0	0	
12	0	0	0	0	496	593	1021	453	0	0	
13	0	0	0	0	535	606	1021	471	0	0	
14	0	0	0	0	575	610	1020	489	0	0	
15	0	0	0	0	614	603	1021	506	0	0	
0	0	0	0	0	647	587	1021	519	0	0	
1	0	0	0	0	672	562	1021	527	0	0	
2	0	0	0	0	686	533	1021	530	0	0	
3	0	0	0	0	688	501	1021	527	0	0	
4	0	0	0	0	677	470	1021	517	0	0	
5	0	0	0	0	655	442	1021	503	0	0	
6	0	0	0	0	623	422	1021	486	0	0	
7	0	0	0	0	585	408	1021	467	0	0	
8	0	0	0	0	545	405	1021	449	0	0	
9	0	0	0	0	506	412	1021	432	0	0	
10	0	0	0	0	472	428	1021	419	0	0	
11	0	0	0	0	446	453	1021	411	0	0	
12	0	0	0	0	432	483	1021	409	0	0	
13	0	0	0	0	430	515	1020	413	0	0	
14	0	0	0	0	441	546	1021	423	0	0	
15	0	0	0	0	464	572	1021	438	0	0	
0	0	0	0	0	496	593	1021	455	0	0	
1	0	0	0	0	533	604	1021	474	0	0	
2	0	0	0	0	572	607	1020	492	0	0	
3	0	0	0	0	611	600	1021	508	0	0	
4	0	0	0	0	644	583	1021	521	0	0	
5	0	0	0	0	668	558	1021	528	0	0	
6	0	0	0	0	682	528	1021	529	0	0	
7	0	0	0	0	683	496	1021	524	0	0	
8	0	0	0	0	672	464	1021	514	0	0	
9	0	0	0	0	650	437	1021	499	0	0	
10	0	0	0	0	618	417	1021	481	0	0	
11	0	0	0	0	580	404	1021	461	0	0	
12	0	0	0	0	540	401	1020	441	0	0	
13	0	0	0	0	501	408	1021	423	0	0	
14	0	0	0	0	467	423	1021	409	0	0	
15	0	0	0	0	440	448	1021	401	0	0	
0	0	0	0	0	426	477	1021	398	0	0	
1	0	0	0	0	423	509	1021	401	0	0	
2	0	0	0	0	435	539	1021	411	0	0	
3	0	0	0	0	457	566	1021	425	0	0	
4	0	0	0	0	488	585	1021	443	0	0	
5	0	0	0	0	525	595	1021	462	0	0	
6	0	0	0	0	565	597	1021	481	0	0	
7	0	0	0	0	603	589	1021	499	0	0	
8	0	0	0	0	636	571	1021	513	0	0	
9	0	0	0	0	661	547	1021	522	0	0	
10	0	0	0	0	676	517	1021	525	0	0	
11	0	0	0	0	678	485	1021	523	0	0	
12	0	0	0	0	668	454	1021	514	0	0	
13	0	0	0	0	647	427	1021	500	0	0	
14	0	0	0	0	616	407	1021	483	0	0	
15	0	0	0	0	579	396	1021	464	0	0	
0	0	0	0	0	540	393	1021	446	0	0	
1	0	0	0	0	501	402	1021	429	0	0	
2	0	0	0	0	467	420	1021	415	0	0	
3	0	0	0	0	441	447	1021	407	0	0	
4	0	0	0	0	427	478	1021	404	0	0	
5	0	0	0	0	425	512	1021	408	0	0	
6	0	0	0	0	436	545	1021	417	0	0	
7	0	0	0	0	459	574	1021	431	0	0	
8	0	0	0	0	490	595	1021	449	0	0	
9	0	0	0	0	528	608	1021	467	0	0	
10	0	0	0	0	568	611	1021	486	0	0	
11	0	0	0	0	606	603	1021	503	0	0	
12	0	0	0	0	639	586	1021	515	0	0	
13	0	0	0	0	665	561	1021	523	0	0	
14	0	0	0	0	678	529	1021	525	0	0	
15	0	0	0	0	679	496	1021	520	0	0	
0	0	0	0	0	668	463	1021	510	0	0	
1	0	0	0	0	646	434	1021	495	0	0	
2	0	0	0	0	614	412	1021	477	0	0	
3	0	0	0	0	575	399	1021	457	0	0	
4	0	0	0	0	535	395	1021	438	0	0	
5	0	0	0	0	495	402	1021	421	0	0	
6	0	0	0	0	461	419	1021	408	0	0	
7	0	0	0	0	435	444	1021	400	0	0	
8	0	0	0	0	421	476	1021	398	0	0	
9	0	0	0	0	419	509	1021	402	0	0	
10	0	0	0	0	430	541	1021	412	0	0	
11	0	0	0	0	454	570	1021	427	0	0	
12	0	0	0	0	485	591	1021	444	0	0	
13	0	0	0	0	523	602	1021	463	0	0	
14	0	0	0	0	562	604	1021	482	0	0	
15	0	0	0	0	601	596	1021	499	0	0	
0	0	0	0	0	634	579	1021	512	0	0	
1	0	0	0	0	659	553	1021	521	0	0	
2	0	0	0	0	673	522	1021	524	0	0	
3	0	0	0	0	675	489	1021	521	0	0	
4	0	0	0	0	664	458	1021	512	0	0	
5	0	0	0	0	642	430	1021	499	0	0	
6	0	0	0	0	612	409	1021	483	0	0	
7	0	0	0	0	575	398	1021	464	0	0	
8	0	0	0	0	536	396	1020	446	0	0	
9	0	0	0	0	498	403	1021	430	0	0	
10	0	0	0	0	466	422	1021	417	0	0	
11	0	0	0	0	441	448	1021	409	0	0	
12	0	0	0	0	428	479	1021	407	0	0	
13	0	0	0	0	428	513	1021	411	0	0	
14	0	0	0	0	440	545	1021	420	0	0	
15	0	0	0	0	463	574	1021	434	0	0	
0	0	0	0	0	495	595	1021	451	0	0	
1	0	0	0	0	531	607	1021	469	0	0	
2	0	0	0	0	571	609	1021	487	0	0	
3	0	0	0	0	608	601	1021	503	0	0	
4	0	0	0	0	641	583	1021	516	0	0	
5	0	0	0	0	665	557	1021	524	0	0	
6	0	0	0	0	678	526	1021	525	0	0	
7	0	0	0	0	679	492	1021	521	0	0	
8	0	0	0	0	668	460	1021	510	0	0	
9	0	0	0	0	645	431	1021	496	0	0	
10	0	0	0	0	613	409	1021	478	0	0	
11	0	0	0	0	575	396	1021	459	0	0	
12	0	0	0	0	535	393	1021	440	0	0	
13	0	0	0	0	496	400	1021	422	0	0	
14	0	0	0	0	462	417	1021	408	0	0	
15	0	0	0	0	437	443	1021	401	0	0	
0	0	0	0	0	423	474	1021	398	0	0	
1	0	0	0	0	423	508	1021	403	0	0	
2	0	0	0	0	435	542	1021	412	0	0	
3	0	0	0	0	460	570	1021	428	0	0	
4	0	0	0	0	493	592	1021	447	0	0	
5	0	0	0	0	532	606	1021	467	0	0	
6	0	0	0	0	574	609	1020	487	0	0	
7	0	0	0	0	613	602	1021	504	0	0	
8	0	0	0	0	647	585	1021	519	0	0	
9	0	0	0	0	673	560	1021	528	0	0	
10	0	0	0	0	687	529	1021	531	0	0	
11	0	0	0	0	688	496	1021	527	0	0	
12	0	0	0	0	677	463	1021	518	0	0	
13	0	0	0	0	654	435	1021	504	0	0	
14	0	0	0	0	622	413	1021	487	0	0	
15	0	0	0	0	583	400	1021	467	0	0	
0	0	0	0	0	541	396	1021	448	0	0	
1	0	0	0	0	502	403	1021	430	0	0	
2	0	0	0	0	467	420	1021	416	0	0	
3	0	0	0	0	441	445	1021	407	0	0	
4	0	0	0	0	427	476	1021	404	0	0	
5	0	0	0	0	424	510	1021	407	0	0	
6	0	0	0	0	437	543	1021	416	0	0	
7	0	0	0	0	460	572	1021	431	0	0	
8	0	0	0	0	493	594	1021	448	0	0	
9	0	0	0	0	531	608	1021	468	0	0	
10	0	0	0	0	572	611	1021	487	0	0	
11	0	0	0	0	612	605	1021	504	0	0	
12	0	0	0	0	647	589	1021	518	0	0	
13	0	0	0	0	672	564	1021	527	0	0	
14	0	0	0	0	686	534	1021	529	0	0	
15	0	0	0	0	687	500	1021	525	0	0	
0	0	0	0	0	675	467	1021	515	0	0	
1	0	0	0	0	652	438	1021	500	0	0	
2	0	0	0	0	620	416	1021	481	0	0	
3	0	0	0	0	581	401	1021	462	0	0	
4	0	0	0	0	540	397	1021	442	0	0	
5	0	0	0	0	500	403	1021	425	0	0	
6	0	0	0	0	465	418	1021	411	0	0	
7	0	0	0	0	440	443	1021	403	0	0	
8	0	0	0	0	425	473	1021	401	0	0	
9	0	0	0	0	423	507	1021	404	0	0	
10	0	0	0	0	435	539	1021	415	0	0	
11	0	0	0	0	459	567	1021	430	0	0	
12	0	0	0	0	492	589	1021	448	0	0	
13	0	0	0	0	530	602	1021	468	0	0	
14	0	0	0	0	571	606	1021	487	0	0	
15	0	0	0	0	611	599	1021	505	0	0	
0	0	0	0	0	645	583	1021	519	0	0	
1	0	0	0	0	671	559	1021	528	0	0	
2	0	0	0	0	685	528	1021	531	0	0	
3	0	0	0	0	686	495	1021	527	0	0	
4	0	0	0	0	675	463	1021	518	0	0	
5	0	0	0	0	653	435	1021	504	0	0	
6	0	0	0	0	620	414	1021	486	0	0	
7	0	0	0	0	582	400	1021	467	0	0	
8	0	0	0	0	541	397	1021	448	0	0	
9	0	0	0	0	501	404	1021	432	0	0	
10	0	0	0	0	467	421	1021	418	0	0	
11	0	0	0	0	441	447	1021	410	0	0	
12	0	0	0	0	426	478	1021	408	0	0	
13	0	0	0	0	425	512	1021	412	0	0	
14	0	0	0	0	436	545	1021	421	0	0	
15	0	0	0	0	460	573	1021	435	0	0	
0	0	0	0	0	491	595	1021	451	0	0	
1	0	0	0	0	529	607	1021	470	0	0	
2	0	0	0	0	568	609	1021	487	0	0	
3	0	0	0	0	606	600	1021	504	0	0	
4	0	0	0	0	638	582	1021	516	0	0	
5	0	0	0	0	662	555	1021	523	0	0	
6	0	0	0	0	674	523	1021	524	0	0	
7	0	0	0	0	675	487	1021	518	0	0	
8	0	0	0	0	662	452	1021	508	0	0	
9	0	0	0	0	639	423	1021	492	0	0	
10	0	0	0	0	607	399	1021	474	0	0	
11	0	0	0	0	569	385	1021	455	0	0	
12	0	0	0	0	529	381	1021	435	0	0	
13	0	0	0	0	490	387	1021	417	0	0	
14	0	0	0	0	457	403	1021	403	0	0	
15	0	0	0	0	432	428	1021	395	0	0	
0	0	0	0	0	418	460	1021	392	0	0	
1	0	0	0	0	417	493	1021	396	0	0	
2	0	0	0	0	428	526	1021	405	0	0	
3	0	0	0	0	451	555	1021	420	0	0	
4	0	0	0	0	484	577	1021	438	0	0	
5	0	0	0	0	521	589	1021	457	0	0	
6	0	0	0	0	561	592	1020	477	0	0	
7	0	0	0	0	600	585	1020	494	0	0	
8	0	0	0	0	633	568	1021	508	0	0	
9	0	0	0	0	658	543	1021	518	0	0	
10	0	0	0	0	671	512	1021	520	0	0	
11	0	0	0	0	673	480	1020	517	0	0	
12	0	0	0	0	661	448	1020	507	0	0	
13	0	0	0	0	639	419	1021	493	0	0	
14	0	0	0	0	607	398	1021	476	0	0	
15	0	0	0	0	569	384	1021	456	0	0	
0	0	0	0	0	527	381	1021	436	0	0	
1	0	0	0	0	488	388	1021	419	0	0	
2	0	0	0	0	454	405	1021	404	0	0	
3	0	0	0	0	428	430	1021	395	0	0	
4	0	0	0	0	412	461	1021	391	0	0	
5	0	0	0	0	409	494	1021	393	0	0	
6	0	0	0	0	419	527	1021	402	0	0	
7	0	0	0	0	441	554	1021	415	0	0	
8	0	0	0	0	473	575	1021	433	0	0	
9	0	0	0	0	510	588	1021	451	0	0	
10	0	0	0	0	550	591	1020	470	0	0	
11	0	0	0	0	588	583	1021	486	0	0	
12	0	0	0	0	622	566	1021	500	0	0	
13	0	0	0	0	647	541	1021	508	0	0	
14	0	0	0	0	662	511	1021	511	0	0	
15	0	0	0	0	664	477	1021	508	0	0	
0	0	0	0	0	655	445	1021	499	0	0	
1	0	0	0	0	633	416	1021	485	0	0	
2	0	0	0	0	603	394	1021	468	0	0	
3	0	0	0	0	567	381	1021	450	0	0	
4	0	0	0	0	527	377	1021	431	0	0	
5	0	0	0	0	489	385	1021	415	0	0	
6	0	0	0	0	456	402	1021	402	0	0	
7	0	0	0	0	432	428	1021	394	0	0	
8	0	0	0	0	419	460	1021	393	0	0	
9	0	0	0	0	418	495	1021	397	0	0	
10	0	0	0	0	430	529	1020	407	0	0	
11	0	0	0	0	455	559	1021	422	0	0	
12	0	0	0	0	487	582	1021	440	0	0	
13	0	0	0	0	526	595	1021	460	0	0	
14	0	0	0	0	567	599	1020	479	0	0	
15	0	0	0	0	606	592	1021	496	0	0	
0	0	0	0	0	639	576	1021	509	0	0	
1	0	0	0	0	664	551	1021	518	0	0	
2	0	0	0	0	678	521	1021	520	0	0	
3	0	0	0	0	679	487	1021	517	0	0	
4	0	0	0	0	667	455	1020	507	0	0	
5	0	0	0	0	644	426	1021	493	0	0	
6	0	0	0	0	611	404	1021	476	0	0	
7	0	0	0	0	573	390	1021	457	0	0	
8	0	0	0	0	532	386	1021	439	0	0	
9	0	0	0	0	492	392	1021	422	0	0	
10	0	0	0	0	458	408	1021	408	0	0	
11	0	0	0	0	432	433	1021	400	0	0	
12	0	0	0	0	418	463	1021	398	0	0	
13	0	0	0	0	415	496	1020	400	0	0	
14	0	0	0	0	426	528	1020	409	0	0	
15	0	0	0	0	449	556	1021	423	0	0	
0	0	0	0	0	481	577	1021	440	0	0	
1	0	0	0	0	518	590	1021	458	0	0	
2	0	0	0	0	557	593	1020	476	0	0	
3	0	0	0	0	596	586	1020	492	0	0	
4	0	0	0	0	629	568	1021	505	0	0	
5	0	0	0	0	654	543	1021	513	0	0	
6	0	0	0	0	668	513	1021	514	0	0	
7	0	0	0	0	669	480	1021	510	0	0	
8	0	0	0	0	658	447	1021	500	0	0	
9	0	0	0	0	636	419	1021	486	0	0	
10	0	0	0	0	604	397	1021	468	0	0	
11	0	0	0	0	567	384	1021	450	0	0	
12	0	0	0	0	526	381	1020	431	0	0	
13	0	0	0	0	487	389	1021	415	0	0	
14	0	0	0	0	454	406	1021	402	0	0	
15	0	0	0	0	429	432	1021	395	0	0	
0	0	0	0	0	415	464	1021	393	0	0	
1	0	0	0	0	414	499	1021	398	0	0	
2	0	0	0	0	425	532	1021	408	0	0	
3	0	0	0	0	449	562	1021	423	0	0	
4	0	0	0	0	481	584	1021	442	0	0	
5	0	0	0	0	519	598	1021	461	0	0	
6	0	0	0	0	560	601	1021	480	0	0	
7	0	0	0	0	599	594	1020	497	0	0	
8	0	0	0	0	632	577	1021	511	0	0	
9	0	0	0	0	657	553	1021	519	0	0	
10	0	0	0	0	672	522	1021	521	0	0	
11	0	0	0	0	674	489	1021	517	0	0	
12	0	0	0	0	663	457	1020	507	0	0	
13	0	0	0	0	642	428	1021	493	0	0	
14	0	0	0	0	611	407	1021	476	0	0	
15	0	0	0	0	574	393	1021	456	0	0	
0	0	0	0	0	533	390	1021	438	0	0	
1	0	0	0	0	495	396	1021	420	0	0	
2	0	0	0	0	460	412	1021	407	0	0	
3	0	0	0	0	434	436	1021	398	0	0	
4	0	0	0	0	419	467	1021	395	0	0	
5	0	0	0	0	416	500	1021	399	0	0	
6	0	0	0	0	426	532	1021	408	0	0	
7	0	0	0	0	448	560	1021	422	0	0	
8	0	0	0	0	480	581	1021	439	0	0	
9	0	0	0	0	517	594	1021	457	0	0	
10	0	0	0	0	557	598	1020	476	0	0	
11	0	0	0	0	596	591	1020	494	0	0	
12	0	0	0	0	631	575	1021	508	0	0	
13	0	0	0	0	657	551	1021	517	0	0	
14	0	0	0	0	673	522	1021	520	0	0	
15	0	0	0	0	677	490	1020	517	0	0	
0	0	0	0	0	668	459	1021	509	0	0	
1	0	0	0	0	647	431	1021	495	0	0	
2	0	0	0	0	617	410	1021	479	0	0	
3	0	0	0	0	579	397	1021	460	0	0	
4	0	0	0	0	539	393	1021	441	0	0	
5	0	0	0	0	499	399	1021	423	0	0	
6	0	0	0	0	464	415	1021	409	0	0	
7	0	0	0	0	436	439	1021	400	0	0	
8	0	0	0	0	420	469	1021	397	0	0	
9	0	0	0	0	416	502	1021	399	0	0	
10	0	0	0	0	425	533	1021	408	0	0	
11	0	0	0	0	447	560	1021	421	0	0	
12	0	0	0	0	478	582	1021	438	0	0	
13	0	0	0	0	515	594	1021	456	0	0	
14	0	0	0	0	555	597	1021	475	0	0	
15	0	0	0	0	594	590	1021	492	0	0	
0	0	0	0	0	628	574	1021	506	0	0	
1	0	0	0	0	655	550	1021	515	0	0	
2	0	0	0	0	671	520	1021	518	0	0	
3	0	0	0	0	674	487	1020	515	0	0	
4	0	0	0	0	664	455	1021	506	0	0	
5	0	0	0	0	643	428	1021	493	0	0	
6	0	0	0	0	611	406	1021	475	0	0	
7	0	0	0	0	574	392	1021	456	0	0	
8	0	0	0	0	534	388	1021	436	0	0	
9	0	0	0	0	494	395	1021	419	0	0	
10	0	0	0	0	460	411	1021	405	0	0	
11	0	0	0	0	433	435	1021	396	0	0	
12	0	0	0	0	417	465	1021	393	0	0	
13	0	0	0	0	415	499	1021	396	0	0	
14	0	0	0	0	425	531	1021	406	0	0	
15	0	0	0	0	447	559	1021	420	0	0	
0	0	0	0	0	479	581	1021	439	0	0	
1	0	0	0	0	517	594	1021	459	0	0	
2	0	0	0	0	558	599	1020	479	0	0	
3	0	0	0	0	598	593	1020	497	0	0	
4	0	0	0	0	634	577	1021	512	0	0	
5	0	0	0	0	661	554	1021	522	0	0	
6	0	0	0	0	677	525	1021	526	0	0	
7	0	0	0	0	681	494	1020	523	0	0	
8	0	0	0	0	672	462	1021	515	0	0	
9	0	0	0	0	651	435	1021	501	0	0	
10	0	0	0	0	620	413	1021	483	0	0	
11	0	0	0	0	583	400	1021	464	0	0	
12	0	0	0	0	543	396	1021	444	0	0	
13	0	0	0	0	503	402	1021	426	0	0	
14	0	0	0	0	468	419	1021	412	0	0	
15	0	0	0	0	440	443	1021	402	0	0	
0	0	0	0	0	425	473	1021	399	0	0	
1	0	0	0	0	422	505	1021	402	0	0	
2	0	0	0	0	431	537	1020	411	0	0	
3	0	0	0	0	453	565	1021	424	0	0	
4	0	0	0	0	484	587	1021	442	0	0	
5	0	0	0	0	521	599	1021	460	0	0	
6	0	0	0	0	560	602	1020	479	0	0	
7	0	0	0	0	599	595	1021	496	0	0	
8	0	0	0	0	632	577	1021	509	0	0	
9	0	0	0	0	657	552	1021	517	0	0	
10	0	0	0	0	671	521	1021	519	0	0	
11	0	0	0	0	672	488	1021	515	0	0	
12	0	0	0	0	661	455	1020	505	0	0	
13	0	0	0	0	638	426	1021	491	0	0	
14	0	0	0	0	606	403	1021	472	0	0	
15	0	0	0	0	567	390	1021	452	0	0	
0	0	0	0	0	526	385	1021	432	0	0	
1	0	0	0	0	485	390	1021	414	0	0	
2	0	0	0	0	449	406	1021	399	0	0	
3	0	0	0	0	422	430	1021	390	0	0	
4	0	0	0	0	406	460	1021	386	0	0	
5	0	0	0	0	403	493	1020	388	0	0	
6	0	0	0	0	413	525	1021	397	0	0	
7	0	0	0	0	435	553	1021	410	0	0	
8	0	0	0	0	467	575	1021	428	0	0	
9	0	0	0	0	504	588	1021	446	0	0	
10	0	0	0	0	545	591	1020	465	0	0	
11	0	0	0	0	584	584	1021	482	0	0	
12	0	0	0	0	619	568	1021	496	0	0	
13	0	0	0	0	644	543	1021	505	0	0	
14	0	0	0	0	659	513	1021	508	0	0	
15	0	0	0	0	661	480	1021	505	0	0	
0	0	0	0	0	651	448	1021	496	0	0	
1	0	0	0	0	629	419	1021	481	0	0	
2	0	0	0	0	598	397	1021	464	0	0	
3	0	0	0	0	560	383	1021	445	0	0	
4	0	0	0	0	519	379	1020	426	0	0	
5	0	0	0	0	480	385	1021	409	0	0	
6	0	0	0	0	446	401	1021	395	0	0	
7	0	0	0	0	419	425	1021	386	0	0	
8	0	0	0	0	404	455	1021	383	0	0	
9	0	0	0	0	401	489	1021	386	0	0	
10	0	0	0	0	412	521	1020	396	0	0	
11	0	0	0	0	436	549	1021	410	0	0	
12	0	0	0	0	468	571	1021	428	0	0	
13	0	0	0	0	506	583	1021	448	0	0	
14	0	0	0	0	547	588	1021	468	0	0	
15	0	0	0	0	587	581	1021	486	0	0	
0	0	0	0	0	622	565	1021	501	0	0	
1	0	0	0	0	648	541	1021	511	0	0	
2	0	0	0	0	664	512	1021	514	0	0	
3	0	0	0	0	667	480	1020	511	0	0	
4	0	0	0	0	657	449	1020	502	0	0	
5	0	0	0	0	636	421	1021	488	0	0	
6	0	0	0	0	605	399	1021	471	0	0	
7	0	0	0	0	567	387	1021	451	0	0	
8	0	0	0	0	526	383	1021	432	0	0	
9	0	0	0	0	485	389	1021	413	0	0	
10	0	0	0	0	450	404	1021	398	0	0	
11	0	0	0	0	423	428	1021	389	0	0	
12	0	0	0	0	407	458	1021	386	0	0	
13	0	0	0	0	403	489	1021	388	0	0	
14	0	0	0	0	413	520	1021	397	0	0	
15	0	0	0	0	435	548	1021	412	0	0	
0	0	0	0	0	467	569	1021	430	0	0	
1	0	0	0	0	504	582	1021	448	0	0	
2	0	0	0	0	545	585	1021	469	0	0	
3	0	0	0	0	584	578	1020	487	0	0	
4	0	0	0	0	620	563	1021	501	0	0	
5	0	0	0	0	646	539	1021	511	0	0	
6	0	0	0	0	662	510	1021	514	0	0	
7	0	0	0	0	665	480	1021	511	0	0	
8	0	0	0	0	655	449	1020	502	0	0	
9	0	0	0	0	635	423	1021	489	0	0	
10	0	0	0	0	605	403	1021	472	0	0	
11	0	0	0	0	568	391	1021	453	0	0	
12	0	0	0	0	527	389	1021	433	0	0	
13	0	0	0	0	488	396	1021	415	0	0	
14	0	0	0	0	454	413	1021	401	0	0	
15	0	0	0	0	428	438	1021	391	0	0	
0	0	0	0	0	412	467	1021	388	0	0	
1	0	0	0	0	409	498	1021	391	0	0	
2	0	0	0	0	418	529	1020	398	0	0	
3	0	0	0	0	440	555	1021	412	0	0	
4	0	0	0	0	470	574	1021	428	0	0	
5	0	0	0	0	507	584	1021	447	0	0	
6	0	0	0	0	546	585	1020	465	0	0	
7	0	0	0	0	583	576	1021	481	0	0	
8	0	0	0	0	617	558	1021	495	0	0	
9	0	0	0	0	643	532	1021	504	0	0	
10	0	0	0	0	657	502	1021	506	0	0	
11	0	0	0	0	660	469	1020	503	0	0	
12	0	0	0	0	650	438	1020	494	0	0	
13	0	0	0	0	629	411	1021	480	0	0	
14	0	0	0	0	598	391	1021	463	0	0	
15	0	0	0	0	561	379	1021	444	0	0	
0	0	0	0	0	520	377	1021	425	0	0	
1	0	0	0	0	481	385	1021	407	0	0	
2	0	0	0	0	447	403	1021	393	0	0	
3	0	0	0	0	421	429	1021	384	0	0	
4	0	0	0	0	406	460	1021	381	0	0	
5	0	0	0	0	403	493	1020	384	0	0	
6	0	0	0	0	413	525	1021	393	0	0	
7	0	0	0	0	435	552	1021	407	0	0	
8	0	0	0	0	467	574	1021	425	0	0	
9	0	0	0	0	505	585	1021	445	0	0	
10	0	0	0	0	545	588	1020	464	0	0	
11	0	0	0	0	585	580	1020	483	0	0	
12	0	0	0	0	620	563	1021	497	0	0	
13	0	0	0	0	646	539	1021	507	0	0	
14	0	0	0	0	661	508	1021	510	0	0	
15	0	0	0	0	664	476	1020	507	0	0	
0	0	0	0	0	654	444	1021	498	0	0	
1	0	0	0	0	632	416	1021	483	0	0	
2	0	0	0	0	600	395	1021	465	0	0	
3	0	0	0	0	561	381	1021	444	0	0	
4	0	0	0	0	519	376	1021	423	0	0	
5	0	0	0	0	476	381	1021	401	0	0	
6	0	0	0	0	438	395	1021	382	0	0	
7	0	0	0	0	406	415	1021	367	0	0	
8	0	0	0	0	384	440	1021	358	0	0	
9	0	0	0	0	373	466	1021	353	0	0	
10	0	0	0	0	374	490	1020	353	0	0	
11	0	0	0	0	386	509	1021	358	0	0	
12	0	0	0	0	407	520	1021	365	0	0	
13	0	0	0	0	434	523	1021	375	0	0	
14	0	0	0	0	463	515	1020	384	0	0	
15	0	0	0	0	491	496	1021	391	0	0	
0	0	0	0	0	515	469	1021	395	0	0	
1	0	0	0	0	530	433	1021	394	0	0	
2	0	0	0	0	535	393	1021	388	0	0	
3	0	0	0	0	528	351	1021	375	0	0	
4	0	0	0	0	508	309	1020	355	0	0	
5	0	0	0	0	478	271	1021	332	0	0	
6	0	0	0	0	437	240	1021	304	0	0	
7	0	0	0	0	391	217	1021	274	0	0	
8	0	0	0	0	341	202	1021	243	0	0	
9	0	0	0	0	292	198	1021	214	0	0	
10	0	0	0	0	248	204	1021	188	0	0	
11	0	0	0	0	212	220	1021	168	0	0	
12	0	0	0	0	187	244	1021	156	0	0	
13	0	0	0	0	176	273	1021	152	0	0	
14	0	0	0	0	181	303	1021	157	0	0	
15	0	0	0	0	200	332	1021	171	0	0	
0	0	0	0	0	234	359	1021	192	0	0	
1	0	0	0	0	278	380	1021	220	0	0	
2	0	0	0	0	330	394	1021	252	0	0	
3	0	0	0	0	387	400	1021	286	0	0	
4	0	0	0	0	443	400	1021	319	0	0	
5	0	0	0	0	494	393	1021	351	0	0	
6	0	0	0	0	536	381	1021	379	0	0	
7	0	0	0	0	566	368	1021	400	0	0	
8	0	0	0	0	583	355	1021	416	0	0	
9	0	0	0	0	587	346	1021	425	0	0	
10	0	0	0	0	578	343	1021	429	0	0	
11	0	0	0	0	560	347	1021	428	0	0	
12	0	0	0	0	535	359	1021	423	0	0	
13	0	0	0	0	508	379	1021	419	0	0	
14	0	0	0	0	481	407	1021	413	0	0	
15	0	0	0	0	460	441	1021	411	0	0	
0	0	0	0	0	447	480	1021	412	0	0	
1	0	0	0	0	444	519	1021	417	0	0	
2	0	0	0	0	453	555	1021	427	0	0	
3	0	0	0	0	471	586	1021	439	0	0	
4	0	0	0	0	498	608	1021	455	0	0	
5	0	0	0	0	531	621	1021	471	0	0	
6	0	0	0	0	566	622	1021	487	0	0	
7	0	0	0	0	600	612	1021	501	0	0	
8	0	0	0	0	630	592	1021	511	0	0	
9	0	0	0	0	652	564	1021	517	0	0	
10	0	0	0	0	665	530	1021	517	0	0	
11	0	0	0	0	666	493	1021	511	0	0	
12	0	0	0	0	655	458	1021	501	0	0	
13	0	0	0	0	634	428	1021	486	0	0	
14	0	0	0	0	604	404	1021	468	0	0	
15	0	0	0	0	568	390	1021	449	0	0	
0	0	0	0	0	529	387	1021	431	0	0	
1	0	0	0	0	493	394	1021	415	0	0	
2	0	0	0	0	460	412	1021	402	0	0	
3	0	0	0	0	436	439	1021	395	0	0	
4	0	0	0	0	423	472	1021	394	0	0	
5	0	0	0	0	423	507	1021	399	0	0	
6	0	0	0	0	435	542	1021	411	0	0	
7	0	0	0	0	459	571	1021	426	0	0	
8	0	0	0	0	492	594	1021	445	0	0	
9	0	0	0	0	531	608	1021	465	0	0	
10	0	0	0	0	572	611	1021	485	0	0	
11	0	0	0	0	611	604	1021	504	0	0	
12	0	0	0	0	646	588	1021	518	0	0	
13	0	0	0	0	671	562	1021	527	0	0	
14	0	0	0	0	686	531	1021	529	0	0	
15	0	0	0	0	688	497	1021	526	0	0	
0	0	0	0	0	678	464	1021	517	0	0	
1	0	0	0	0	655	435	1021	503	0	0	
2	0	0	0	0	623	414	1021	485	0	0	
3	0	0	0	0	585	400	1021	466	0	0	
4	0	0	0	0	544	397	1021	447	0	0	
5	0	0	0	0	504	404	1021	429	0	0	
6	0	0	0	0	469	421	1021	415	0	0	
7	0	0	0	0	442	447	1021	406	0	0	
8	0	0	0	0	427	479	1021	403	0	0	
9	0	0	0	0	424	513	1021	407	0	0	
10	0	0	0	0	435	546	1021	416	0	0	
11	0	0	0	0	458	575	1021	430	0	0	
12	0	0	0	0	490	597	1021	448	0	0	
13	0	0	0	0	529	610	1021	467	0	0	
14	0	0	0	0	570	613	1021	486	0	0	
15	0	0	0	0	610	606	1021	504	0	0	
0	0	0	0	0	645	590	1021	517	0	0	
1	0	0	0	0	671	564	1021	526	0	0	
2	0	0	0	0	686	534	1021	528	0	0	
3	0	0	0	0	688	501	1021	524	0	0	
4	0	0	0	0	678	469	1021	515	0	0	
5	0	0	0	0	656	440	1021	500	0	0	
6	0	0	0	0	624	419	1021	483	0	0	
7	0	0	0	0	586	406	1021	463	0	0	
8	0	0	0	0	544	403	1020	443	0	0	
9	0	0	0	0	504	410	1021	425	0	0	
10	0	0	0	0	468	427	1021	411	0	0	
11	0	0	0	0	441	452	1021	403	0	0	
12	0	0	0	0	424	483	1021	399	0	0	
13	0	0	0	0	421	516	1021	402	0	0	
14	0	0	0	0	431	548	1021	412	0	0	
15	0	0	0	0	453	576	1021	425	0	0	
0	0	0	0	0	485	597	1021	443	0	0	
1	0	0	0	0	523	609	1021	462	0	0	
2	0	0	0	0	564	611	1021	481	0	0	
3	0	0	0	0	603	603	1021	499	0	0	
4	0	0	0	0	638	586	1021	512	0	0	
5	0	0	0	0	664	561	1021	522	0	0	
6	0	0	0	0	680	529	1021	524	0	0	
7	0	0	0	0	683	496	1021	521	0	0	
8	0	0	0	0	673	463	1021	512	0	0	
9	0	0	0	0	653	435	1021	498	0	0	
10	0	0	0	0	622	413	1021	481	0	0	
11	0	0	0	0	585	399	1021	461	0	0	
12	0	0	0	0	544	396	1021	442	0	0	
13	0	0	0	0	505	402	1021	425	0	0	
14	0	0	0	0	470	419	1021	411	0	0	
15	0	0	0	0	443	444	1021	402	0	0	
0	0	0	0	0	427	475	1021	399	0	0	
1	0	0	0	0	423	508	1020	402	0	0	
2	0	0	0	0	433	541	1020	411	0	0	
3	0	0	0	0	455	569	1021	425	0	0	
4	0	0	0	0	486	591	1021	443	0	0	
5	0	0	0	0	524	604	1021	463	0	0	
6	0	0	0	0	563	607	1021	482	0	0	
7	0	0	0	0	604	601	1020	499	0	0	
8	0	0	0	0	639	585	1021	513	0	0	
9	0	0	0	0	667	561	1021	523	0	0	
10	0	0	0	0	683	531	1021	527	0	0	
11	0	0	0	0	687	498	1021	524	0	0	
12	0	0	0	0	678	466	1021	514	0	0	
13	0	0	0	0	657	438	1021	500	0	0	
14	0	0	0	0	626	416	1021	483	0	0	
15	0	0	0	0	588	402	1021	463	0	0	
0	0	0	0	0	546	398	1021	443	0	0	
1	0	0	0	0	505	404	1021	425	0	0	
2	0	0	0	0	469	419	1021	410	0	0	
3	0	0	0	0	440	443	1021	400	0	0	
4	0	0	0	0	423	473	1021	396	0	0	
5	0	0	0	0	419	505	1020	398	0	0	
6	0	0	0	0	428	537	1020	407	0	0	
7	0	0	0	0	450	564	1021	420	0	0	
8	0	0	0	0	481	586	1021	438	0	0	
9	0	0	0	0	519	599	1021	457	0	0	
10	0	0	0	0	560	602	1021	476	0	0	
11	0	0	0	0	600	595	1021	494	0	0	
12	0	0	0	0	636	580	1021	508	0	0	
13	0	0	0	0	664	557	1021	518	0	0	
14	0	0	0	0	681	527	1021	522	0	0	
15	0	0	0	0	685	496	1021	519	0	0	
0	0	0	0	0	678	465	1021	512	0	0	
1	0	0	0	0	657	438	1021	499	0	0	
2	0	0	0	0	628	417	1021	482	0	0	
3	0	0	0	0	591	405	1021	464	0	0	
4	0	0	0	0	551	401	1021	445	0	0	
5	0	0	0	0	511	408	1021	427	0	0	
6	0	0	0	0	476	425	1021	413	0	0	
7	0	0	0	0	448	449	1021	403	0	0	
8	0	0	0	0	431	479	1021	400	0	0	
9	0	0	0	0	427	511	1021	403	0	0	
10	0	0	0	0	435	542	1021	411	0	0	
11	0	0	0	0	456	570	1021	424	0	0	
12	0	0	0	0	486	590	1021	440	0	0	
13	0	0	0	0	523	602	1021	460	0	0	
14	0	0	0	0	563	605	1021	479	0	0	
15	0	0	0	0	602	598	1021	496	0	0	
0	0	0	0	0	636	581	1021	510	0	0	
1	0	0	0	0	663	557	1021	519	0	0	
2	0	0	0	0	679	527	1021	521	0	0	
3	0	0	0	0	682	496	1021	519	0	0	
4	0	0	0	0	673	464	1020	510	0	0	
5	0	0	0	0	653	437	1021	497	0	0	
6	0	0	0	0	623	416	1021	480	0	0	
7	0	0	0	0	586	403	1021	461	0	0	
8	0	0	0	0	545	399	1021	441	0	0	
9	0	0	0	0	505	406	1021	423	0	0	
10	0	0	0	0	470	422	1021	408	0	0	
11	0	0	0	0	443	446	1021	398	0	0	
12	0	0	0	0	426	476	1021	394	0	0	
13	0	0	0	0	422	508	1020	396	0	0	
14	0	0	0	0	430	539	1020	403	0	0	
15	0	0	0	0	451	566	1021	416	0	0	
0	0	0	0	0	481	587	1021	432	0	0	
1	0	0	0	0	517	599	1021	451	0	0	
2	0	0	0	0	556	601	1021	470	0	0	
3	0	0	0	0	594	594	1020	486	0	0	
4	0	0	0	0	628	577	1021	499	0	0	
5	0	0	0	0	654	553	1021	509	0	0	
6	0	0	0	0	669	523	1021	512	0	0	
7	0	0	0	0	672	490	1020	509	0	0	
8	0	0	0	0	663	458	1021	501	0	0	
9	0	0	0	0	643	430	1021	487	0	0	
10	0	0	0	0	612	408	1021	471	0	0	
11	0	0	0	0	575	394	1021	452	0	0	
12	0	0	0	0	535	390	1021	433	0	0	
13	0	0	0	0	496	396	1020	415	0	0	
14	0	0	0	0	461	411	1021	401	0	0	
15	0	0	0	0	435	436	1021	392	0	0	
0	0	0	0	0	419	466	1021	389	0	0	
1	0	0	0	0	417	499	1021	392	0	0	
2	0	0	0	0	428	532	1021	401	0	0	
3	0	0	0	0	451	561	1021	416	0	0	
4	0	0	0	0	483	583	1021	434	0	0	
5	0	0	0	0	522	596	1021	454	0	0	
6	0	0	0	0	563	600	1020	474	0	0	
7	0	0	0	0	603	593	1021	492	0	0	
8	0	0	0	0	638	578	1021	507	0	0	
9	0	0	0	0	664	554	1021	516	0	0	
10	0	0	0	0	679	524	1021	520	0	0	
11	0	0	0	0	682	492	1021	517	0	0	
12	0	0	0	0	672	460	1021	508	0	0	
13	0	0	0	0	650	432	1021	494	0	0	
14	0	0	0	0	617	411	1021	477	0	0	
15	0	0	0	0	579	397	1021	457	0	0	
0	0	0	0	0	537	394	1021	438	0	0	
1	0	0	0	0	497	400	1021	419	0	0	
2	0	0	0	0	462	417	1021	405	0	0	
3	0	0	0	0	434	441	1021	395	0	0	
4	0	0	0	0	418	471	1021	390	0	0	
5	0	0	0	0	414	503	1021	392	0	0	
6	0	0	0	0	424	534	1021	399	0	0	
7	0	0	0	0	446	561	1021	412	0	0	
8	0	0	0	0	476	581	1021	428	0	0	
9	0	0	0	0	514	592	1021	446	0	0	
10	0	0	0	0	553	594	1021	464	0	0	
11	0	0	0	0	593	586	1021	481	0	0	
12	0	0	0	0	628	569	1021	495	0	0	
13	0	0	0	0	655	544	1021	504	0	0	
14	0	0	0	0	671	514	1021	508	0	0	
15	0	0	0	0	674	482	1021	505	0	0	
0	0	0	0	0	665	451	1021	497	0	0	
1	0	0	0	0	645	423	1021	485	0	0	
2	0	0	0	0	615	403	1021	470	0	0	
3	0	0	0	0	579	391	1021	452	0	0	
4	0	0	0	0	539	389	1021	434	0	0	
5	0	0	0	0	500	397	1021	418	0	0	
6	0	0	0	0	466	415	1021	405	0	0	
7	0	0	0	0	440	440	1021	396	0	0	
8	0	0	0	0	424	471	1021	394	0	0	
9	0	0	0	0	421	504	1021	397	0	0	
10	0	0	0	0	431	536	1021	406	0	0	
11	0	0	0	0	452	564	1021	419	0	0	
12	0	0	0	0	482	584	1021	435	0	0	
13	0	0	0	0	518	596	1021	454	0	0	
14	0	0	0	0	557	598	1021	472	0	0	
15	0	0	0	0	594	589	1021	488	0	0	
0	0	0	0	0	627	572	1021	502	0	0	
1	0	0	0	0	652	546	1021	511	0	0	
2	0	0	0	0	668	515	1021	514	0	0	
3	0	0	0	0	670	482	1020	511	0	0	
4	0	0	0	0	660	449	1020	502	0	0	
5	0	0	0	0	640	421	1021	489	0	0	
6	0	0	0	0	610	399	1021	472	0	0	
7	0	0	0	0	573	386	1021	453	0	0	
8	0	0	0	0	534	383	1021	434	0	0	
9	0	0	0	0	495	389	1021	416	0	0	
10	0	0	0	0	461	406	1021	402	0	0	
11	0	0	0	0	435	431	1021	393	0	0	
12	0	0	0	0	419	462	1021	390	0	0	
13	0	0	0	0	416	495	1020	393	0	0	
14	0	0	0	0	425	528	1021	401	0	0	
15	0	0	0	0	447	556	1021	415	0	0	
0	0	0	0	0	478	578	1021	433	0	0	
1	0	0	0	0	514	591	1021	452	0	0	
2	0	0	0	0	553	595	1021	471	0	0	
3	0	0	0	0	592	589	1021	488	0	0	
4	0	0	0	0	626	573	1021	502	0	0	
5	0	0	0	0	652	549	1021	511	0	0	
6	0	0	0	0	668	519	1021	515	0	0	
7	0	0	0	0	671	487	1021	511	0	0	
8	0	0	0	0	661	455	1021	503	0	0	
9	0	0	0	0	641	427	1021	489	0	0	
10	0	0	0	0	611	405	1021	473	0	0	
11	0	0	0	0	574	391	1021	454	0	0	
12	0	0	0	0	535	388	1020	435	0	0	
13	0	0	0	0	495	394	1020	417	0	0	
14	0	0	0	0	462	410	1021	404	0	0	
15	0	0	0	0	435	435	1021	396	0	0	
0	0	0	0	0	420	465	1021	393	0	0	
1	0	0	0	0	417	499	1021	396	0	0	
2	0	0	0	0	427	531	1021	406	0	0	
3	0	0	0	0	449	561	1021	420	0	0	
4	0	0	0	0	480	583	1021	439	0	0	
5	0	0	0	0	519	597	1021	458	0	0	
6	0	0	0	0	560	602	1021	478	0	0	
7	0	0	0	0	600	597	1020	497	0	0	
8	0	0	0	0	636	582	1021	512	0	0	
9	0	0	0	0	664	558	1021	523	0	0	
10	0	0	0	0	680	529	1021	527	0	0	
11	0	0	0	0	685	497	1020	524	0	0	
12	0	0	0	0	676	465	1020	516	0	0	
13	0	0	0	0	657	436	1021	503	0	0	
14	0	0	0	0	626	415	1021	486	0	0	
15	0	0	0	0	589	400	1021	467	0	0	
0	0	0	0	0	548	396	1021	447	0	0	
1	0	0	0	0	508	401	1021	429	0	0	
2	0	0	0	0	472	416	1021	414	0	0	
3	0	0	0	0	444	440	1021	403	0	0	
4	0	0	0	0	427	469	1021	399	0	0	
5	0	0	0	0	422	502	1021	401	0	0	
6	0	0	0	0	431	534	1021	409	0	0	
7	0	0	0	0	452	561	1021	422	0	0	
8	0	0	0	0	483	583	1021	440	0	0	
9	0	0	0	0	521	595	1021	458	0	0	
10	0	0	0	0	562	600	1020	478	0	0	
11	0	0	0	0	601	593	1021	496	0	0	
12	0	0	0	0	638	578	1021	511	0	0	
13	0	0	0	0	666	556	1021	521	0	0	
14	0	0	0	0	684	527	1021	526	0	0	
15	0	0	0	0	690	496	1020	524	0	0	
0	0	0	0	0	683	467	1021	518	0	0	
1	0	0	0	0	664	440	1021	505	0	0	
2	0	0	0	0	635	421	1021	490	0	0	
3	0	0	0	0	600	409	1021	472	0	0	
4	0	0	0	0	560	407	1021	454	0	0	
5	0	0	0	0	521	415	1021	436	0	0	
6	0	0	0	0	486	432	1021	423	0	0	
7	0	0	0	0	458	456	1021	413	0	0	
8	0	0	0	0	441	487	1021	409	0	0	
9	0	0	0	0	436	518	1021	412	0	0	
10	0	0	0	0	444	549	1021	419	0	0	
11	0	0	0	0	464	575	1021	432	0	0	
12	0	0	0	0	494	595	1021	448	0	0	
13	0	0	0	0	530	606	1021	466	0	0	
14	0	0	0	0	568	607	1020	484	0	0	
15	0	0	0	0	607	598	1021	500	0	0	
0	0	0	0	0	641	580	1021	514	0	0	
1	0	0	0	0	667	555	1021	523	0	0	
2	0	0	0	0	683	524	1021	527	0	0	
3	0	0	0	0	688	492	1021	524	0	0	
4	0	0	0	0	679	461	1021	517	0	0	
5	0	0	0	0	659	434	1021	504	0	0	
6	0	0	0	0	629	414	1021	489	0	0	
7	0	0	0	0	592	402	1021	471	0	0	
8	0	0	0	0	552	401	1021	453	0	0	
9	0	0	0	0	513	409	1020	436	0	0	
10	0	0	0	0	479	428	1021	423	0	0	
11	0	0	0	0	451	454	1021	414	0	0	
12	0	0	0	0	435	485	1021	411	0	0	
13	0	0	0	0	431	518	1020	413	0	0	
14	0	0	0	0	440	550	1020	421	0	0	
15	0	0	0	0	461	577	1021	434	0	0	
0	0	0	0	0	491	597	1021	450	0	0	
1	0	0	0	0	527	608	1021	468	0	0	
2	0	0	0	0	567	610	1021	486	0	0	
3	0	0	0	0	605	601	1020	503	0	0	
4	0	0	0	0	639	583	1021	516	0	0	
5	0	0	0	0	665	558	1021	525	0	0	
6	0	0	0	0	680	526	1021	527	0	0	
7	0	0	0	0	684	493	1021	524	0	0	
8	0	0	0	0	674	460	1021	514	0	0	
9	0	0	0	0	653	432	1021	500	0	0	
10	0	0	0	0	622	410	1021	483	0	0	
11	0	0	0	0	585	397	1021	463	0	0	
12	0	0	0	0	543	393	1020	444	0	0	
13	0	0	0	0	503	400	1020	425	0	0	
14	0	0	0	0	467	417	1021	411	0	0	
15	0	0	0	0	439	442	1021	402	0	0	
0	0	0	0	0	422	473	1021	398	0	0	
1	0	0	0	0	418	506	1021	401	0	0	
2	0	0	0	0	427	538	1021	410	0	0	
3	0	0	0	0	449	567	1021	424	0	0	
4	0	0	0	0	480	588	1021	442	0	0	
5	0	0	0	0	517	600	1021	461	0	0	
6	0	0	0	0	558	604	1021	481	0	0	
7	0	0	0	0	598	597	1021	499	0	0	
8	0	0	0	0	634	581	1021	515	0	0	
9	0	0	0	0	662	557	1021	524	0	0	
10	0	0	0	0	679	527	1021	528	0	0	
11	0	0	0	0	684	495	1020	526	0	0	
12	0	0	0	0	675	464	1020	517	0	0	
13	0	0	0	0	655	436	1021	504	0	0	
14	0	0	0	0	625	415	1021	487	0	0	
15	0	0	0	0	588	403	1021	468	0	0	
0	0	0	0	0	547	400	1020	448	0	0	
1	0	0	0	0	507	407	1021	431	0	0	
2	0	0	0	0	471	423	1021	415	0	0	
3	0	0	0	0	443	448	1021	405	0	0	
4	0	0	0	0	425	479	1021	401	0	0	
5	0	0	0	0	420	511	1021	403	0	0	
6	0	0	0	0	428	542	1021	412	0	0	
7	0	0	0	0	449	570	1021	424	0	0	
8	0	0	0	0	479	590	1021	441	0	0	
9	0	0	0	0	516	601	1021	460	0	0	
10	0	0	0	0	556	604	1021	479	0	0	
11	0	0	0	0	596	596	1021	497	0	0	
12	0	0	0	0	631	579	1021	512	0	0	
13	0	0	0	0	659	555	1021	521	0	0	
14	0	0	0	0	676	524	1021	526	0	0	
15	0	0	0	0	680	492	1021	523	0	0	
0	0	0	0	0	673	460	1021	515	0	0	
1	0	0	0	0	653	432	1021	502	0	0	
2	0	0	0	0	623	411	1021	485	0	0	
3	0	0	0	0	586	398	1021	466	0	0	
4	0	0	0	0	546	395	1021	447	0	0	
5	0	0	0	0	507	403	1021	430	0	0	
6	0	0	0	0	471	420	1021	416	0	0	
7	0	0	0	0	444	446	1021	407	0	0	
8	0	0	0	0	428	476	1021	403	0	0	
9	0	0	0	0	424	510	1021	407	0	0	
10	0	0	0	0	434	543	1021	415	0	0	
11	0	0	0	0	455	571	1021	429	0	0	
12	0	0	0	0	486	592	1021	446	0	0	
13	0	0	0	0	524	605	1021	465	0	0	
14	0	0	0	0	563	607	1021	484	0	0	
15	0	0	0	0	603	600	1021	501	0	0	
0	0	0	0	0	637	584	1021	515	0	0	
1	0	0	0	0	663	559	1021	523	0	0	
2	0	0	0	0	678	529	1021	526	0	0	
3	0	0	0	0	682	496	1021	522	0	0	
4	0	0	0	0	673	464	1021	513	0	0	
5	0	0	0	0	652	436	1021	499	0	0	
6	0	0	0	0	620	415	1021	481	0	0	
7	0	0	0	0	583	402	1021	462	0	0	
8	0	0	0	0	542	399	1021	442	0	0	
9	0	0	0	0	503	406	1021	425	0	0	
10	0	0	0	0	468	423	1021	411	0	0	
11	0	0	0	0	441	448	1021	402	0	0	
12	0	0	0	0	425	478	1021	399	0	0	
13	0	0	0	0	422	511	1021	402	0	0	
14	0	0	0	0	433	543	1021	411	0	0	
15	0	0	0	0	455	571	1021	425	0	0	
0	0	0	0	0	487	592	1021	443	0	0	
1	0	0	0	0	524	604	1021	462	0	0	
2	0	0	0	0	564	606	1021	481	0	0	
3	0	0	0	0	604	598	1021	499	0	0	
4	0	0	0	0	639	580	1021	514	0	0	
5	0	0	0	0	665	556	1021	523	0	0	
6	0	0	0	0	681	526	1021	527	0	0	
7	0	0	0	0	685	493	1021	524	0	0	
8	0	0	0	0	676	461	1021	516	0	0	
9	0	0	0	0	656	434	1021	503	0	0	
10	0	0	0	0	626	413	1021	486	0	0	
11	0	0	0	0	590	401	1021	468	0	0	
12	0	0	0	0	550	398	1021	448	0	0	
13	0	0	0	0	511	406	1021	431	0	0	
14	0	0	0	0	476	423	1021	417	0	0	
15	0	0	0	0	448	449	1021	407	0	0	
0	0	0	0	0	432	480	1021	404	0	0	
1	0	0	0	0	429	514	1021	407	0	0	
2	0	0	0	0	438	547	1021	416	0	0	
3	0	0	0	0	460	575	1021	430	0	0	
4	0	0	0	0	491	597	1021	448	0	0	
5	0	0	0	0	528	611	1021	467	0	0	
6	0	0	0	0	570	614	1021	487	0	0	
7	0	0	0	0	609	608	1021	504	0	0	
8	0	0	0	0	646	592	1021	519	0	0	
9	0	0	0	0	674	568	1021	529	0	0	
10	0	0	0	0	692	539	1021	533	0	0	
11	0	0	0	0	697	506	1021	530	0	0	
12	0	0	0	0	688	474	1020	521	0	0	
13	0	0	0	0	669	445	1021	508	0	0	
14	0	0	0	0	638	423	1021	490	0	0	
15	0	0	0	0	601	408	1021	471	0	0	
0	0	0	0	0	559	404	1021	451	0	0	
1	0	0	0	0	518	409	1021	433	0	0	
2	0	0	0	0	481	425	1021	419	0	0	
3	0	0	0	0	451	449	1021	409	0	0	
4	0	0	0	0	433	479	1021	406	0	0	
5	0	0	0	0	428	511	1021	408	0	0	
6	0	0	0	0	435	543	1021	417	0	0	
7	0	0	0	0	455	572	1021	431	0	0	
8	0	0	0	0	485	592	1021	447	0	0	
9	0	0	0	0	522	606	1021	467	0	0	
10	0	0	0	0	563	609	1021	486	0	0	
11	0	0	0	0	602	602	1020	503	0	0	
12	0	0	0	0	638	585	1021	517	0	0	
13	0	0	0	0	666	561	1021	527	0	0	
14	0	0	0	0	683	531	1021	531	0	0	
15	0	0	0	0	688	498	1020	528	0	0	
0	0	0	0	0	680	466	1021	520	0	0	
1	0	0	0	0	660	438	1021	507	0	0	
2	0	0	0	0	631	416	1021	490	0	0	
3	0	0	0	0	594	403	1021	471	0	0	
4	0	0	0	0	553	400	1021	452	0	0	
5	0	0	0	0	513	406	1021	434	0	0	
6	0	0	0	0	478	422	1021	420	0	0	
7	0	0	0	0	450	447	1021	410	0	0	
8	0	0	0	0	433	476	1021	406	0	0	
9	0	0	0	0	428	509	1020	408	0	0	
10	0	0	0	0	436	540	1021	416	0	0	
11	0	0	0	0	457	568	1021	430	0	0	
12	0	0	0	0	487	588	1021	447	0	0	
13	0	0	0	0	524	601	1021	465	0	0	
14	0	0	0	0	565	604	1021	484	0	0	
15	0	0	0	0	604	597	1021	501	0	0	
0	0	0	0	0	639	582	1021	515	0	0	
1	0	0	0	0	667	558	1021	525	0	0	
2	0	0	0	0	683	529	1021	528	0	0	
3	0	0	0	0	688	498	1021	527	0	0	
4	0	0	0	0	680	467	1020	519	0	0	
5	0	0	0	0	661	440	1021	506	0	0	
6	0	0	0	0	631	420	1021	491	0	0	
7	0	0	0	0	595	408	1021	472	0	0	
8	0	0	0	0	554	406	1021	454	0	0	
9	0	0	0	0	514	413	1021	437	0	0	
10	0	0	0	0	479	430	1021	423	0	0	
11	0	0	0	0	451	454	1021	414	0	0	
12	0	0	0	0	434	484	1021	411	0	0	
13	0	0	0	0	430	516	1020	413	0	0	
14	0	0	0	0	438	547	1020	421	0	0	
15	0	0	0	0	459	574	1021	434	0	0	
0	0	0	0	0	489	594	1021	450	0	0	
1	0	0	0	0	527	606	1021	469	0	0	
2	0	0	0	0	567	608	1021	487	0	0	
3	0	0	0	0	606	600	1020	504	0	0	
4	0	0	0	0	642	583	1021	518	0	0	
5	0	0	0	0	669	559	1021	527	0	0	
6	0	0	0	0	687	529	1021	531	0	0	
7	0	0	0	0	691	497	1021	529	0	0	
8	0	0	0	0	684	466	1021	521	0	0	
9	0	0	0	0	665	439	1021	508	0	0	
10	0	0	0	0	635	418	1021	492	0	0	
11	0	0	0	0	599	406	1021	473	0	0	
12	0	0	0	0	559	403	1021	455	0	0	
13	0	0	0	0	519	410	1021	436	0	0	
14	0	0	0	0	483	426	1021	422	0	0	
15	0	0	0	0	455	451	1021	412	0	0	
0	0	0	0	0	436	481	1021	407	0	0	
1	0	0	0	0	431	514	1020	408	0	0	
2	0	0	0	0	439	545	1021	416	0	0	
3	0	0	0	0	459	573	1021	429	0	0	
4	0	0	0	0	487	594	1021	445	0	0	
5	0	0	0	0	524	606	1021	463	0	0	
6	0	0	0	0	563	609	1020	481	0	0	
7	0	0	0	0	602	602	1020	498	0	0	
8	0	0	0	0	637	585	1021	513	0	0	
9	0	0	0	0	664	560	1021	522	0	0	
10	0	0	0	0	681	530	1021	526	0	0	
11	0	0	0	0	685	497	1020	524	0	0	
12	0	0	0	0	678	465	1020	515	0	0	
13	0	0	0	0	660	437	1021	503	0	0	
14	0	0	0	0	631	415	1021	487	0	0	
15	0	0	0	0	595	403	1021	469	0	0	
0	0	0	0	0	556	399	1021	451	0	0	
1	0	0	0	0	516	407	1020	434	0	0	
2	0	0	0	0	481	423	1021	421	0	0	
3	0	0	0	0	454	448	1021	412	0	0	
4	0	0	0	0	438	480	1021	409	0	0	
5	0	0	0	0	433	513	1020	412	0	0	
6	0	0	0	0	441	546	1021	421	0	0	
7	0	0	0	0	462	575	1021	434	0	0	
8	0	0	0	0	492	596	1021	451	0	0	
9	0	0	0	0	529	609	1021	470	0	0	
10	0	0	0	0	568	613	1021	489	0	0	
11	0	0	0	0	607	606	1020	506	0	0	
12	0	0	0	0	642	590	1021	521	0	0	
13	0	0	0	0	669	565	1021	530	0	0	
14	0	0	0	0	685	535	1021	534	0	0	
15	0	0	0	0	689	502	1020	531	0	0	
0	0	0	0	0	681	469	1021	522	0	0	
1	0	0	0	0	660	441	1021	508	0	0	
2	0	0	0	0	630	419	1021	490	0	0	
3	0	0	0	0	593	405	1021	471	0	0	
4	0	0	0	0	552	401	1021	451	0	0	
5	0	0	0	0	511	407	1021	431	0	0	
6	0	0	0	0	474	422	1021	415	0	0	
7	0	0	0	0	446	446	1021	404	0	0	
8	0	0	0	0	427	476	1021	399	0	0	
9	0	0	0	0	420	507	1020	400	0	0	
10	0	0	0	0	427	538	1020	407	0	0	
11	0	0	0	0	446	564	1021	419	0	0	
12	0	0	0	0	475	584	1021	434	0	0	
13	0	0	0	0	511	596	1021	452	0	0	
14	0	0	0	0	550	598	1021	470	0	0	
15	0	0	0	0	588	590	1021	487	0	0	
0	0	0	0	0	623	572	1021	500	0	0	
1	0	0	0	0	651	547	1021	510	0	0	
2	0	0	0	0	668	517	1021	513	0	0	
3	0	0	0	0	673	484	1020	511	0	0	
4	0	0	0	0	665	453	1020	503	0	0	
5	0	0	0	0	646	426	1021	491	0	0	
6	0	0	0	0	617	405	1021	475	0	0	
7	0	0	0	0	581	393	1021	456	0	0	
8	0	0	0	0	541	390	1021	437	0	0	
9	0	0	0	0	501	397	1021	419	0	0	
10	0	0	0	0	466	414	1021	405	0	0	
11	0	0	0	0	438	438	1021	395	0	0	
12	0	0	0	0	421	469	1021	391	0	0	
13	0	0	0	0	416	501	1021	393	0	0	
14	0	0	0	0	425	533	1021	401	0	0	
15	0	0	0	0	446	561	1021	415	0	0	
0	0	0	0	0	476	583	1021	432	0	0	
1	0	0	0	0	513	595	1021	451	0	0	
2	0	0	0	0	553	599	1021	472	0	0	
3	0	0	0	0	593	592	1021	490	0	0	
4	0	0	0	0	629	577	1021	505	0	0	
5	0	0	0	0	656	553	1021	517	0	0	
6	0	0	0	0	674	525	1021	522	0	0	
7	0	0	0	0	679	493	1021	521	0	0	
8	0	0	0	0	672	462	1021	514	0	0	
9	0	0	0	0	654	435	1021	502	0	0	
10	0	0	0	0	624	415	1021	486	0	0	
11	0	0	0	0	589	403	1021	468	0	0	
12	0	0	0	0	550	400	1020	450	0	0	
13	0	0	0	0	510	408	1020	433	0	0	
14	0	0	0	0	476	424	1021	419	0	0	
15	0	0	0	0	448	449	1021	409	0	0	
0	0	0	0	0	432	480	1021	406	0	0	
1	0	0	0	0	427	512	1021	408	0	0	
2	0	0	0	0	435	544	1021	415	0	0	
3	0	0	0	0	456	572	1021	428	0	0	
4	0	0	0	0	487	592	1021	444	0	0	
5	0	0	0	0	523	604	1021	463	0	0	
6	0	0	0	0	563	607	1020	481	0	0	
7	0	0	0	0	603	600	1020	498	0	0	
8	0	0	0	0	638	583	1021	512	0	0	
9	0	0	0	0	665	559	1021	522	0	0	
10	0	0	0	0	683	529	1021	526	0	0	
11	0	0	0	0	687	497	1020	524	0	0	
12	0	0	0	0	679	465	1020	515	0	0	
13	0	0	0	0	659	438	1021	503	0	0	
14	0	0	0	0	629	417	1021	487	0	0	
15	0	0	0	0	592	404	1021	468	0	0	
0	0	0	0	0	551	400	1021	449	0	0	
1	0	0	0	0	511	407	1021	432	0	0	
2	0	0	0	0	475	423	1021	418	0	0	
3	0	0	0	0	446	448	1021	408	0	0	
4	0	0	0	0	428	478	1021	404	0	0	
5	0	0	0	0	423	511	1021	406	0	0	
6	0	0	0	0	431	543	1021	415	0	0	
7	0	0	0	0	451	571	1021	428	0	0	
8	0	0	0	0	482	592	1021	445	0	0	
9	0	0	0	0	519	605	1021	463	0	0	
10	0	0	0	0	560	609	1020	483	0	0	
11	0	0	0	0	600	603	1020	501	0	0	
12	0	0	0	0	636	587	1021	516	0	0	
13	0	0	0	0	664	563	1021	527	0	0	
14	0	0	0	0	682	534	1021	531	0	0	
15	0	0	0	0	687	501	1020	528	0	0	
0	0	0	0	0	680	470	1021	520	0	0	
1	0	0	0	0	660	441	1021	507	0	0	
2	0	0	0	0	631	419	1021	489	0	0	
3	0	0	0	0	593	405	1021	470	0	0	
4	0	0	0	0	552	400	1021	449	0	0	
5	0	0	0	0	512	406	1021	431	0	0	
6	0	0	0	0	475	420	1021	415	0	0	
7	0	0	0	0	445	444	1021	403	0	0	
8	0	0	0	0	427	473	1021	399	0	0	
9	0	0	0	0	421	505	1021	400	0	0	
10	0	0	0	0	428	537	1021	407	0	0	
11	0	0	0	0	448	565	1021	420	0	0	
12	0	0	0	0	479	587	1021	437	0	0	
13	0	0	0	0	516	600	1021	456	0	0	
14	0	0	0	0	556	604	1020	476	0	0	
15	0	0	0	0	596	598	1021	495	0	0	
0	0	0	0	0	633	583	1021	510	0	0	
1	0	0	0	0	661	559	1021	520	0	0	
2	0	0	0	0	679	530	1021	525	0	0	
3	0	0	0	0	686	498	1021	523	0	0	
4	0	0	0	0	679	467	1021	516	0	0	
5	0	0	0	0	661	439	1021	504	0	0	
6	0	0	0	0	632	418	1021	489	0	0	
7	0	0	0	0	597	404	1021	471	0	0	
8	0	0	0	0	558	401	1021	453	0	0	
9	0	0	0	0	519	408	1021	436	0	0	
10	0	0	0	0	483	424	1021	423	0	0	
11	0	0	0	0	455	448	1021	413	0	0	
12	0	0	0	0	437	479	1021	410	0	0	
13	0	0	0	0	432	512	1021	412	0	0	
14	0	0	0	0	439	544	1021	420	0	0	
15	0	0	0	0	458	571	1021	432	0	0	
0	0	0	0	0	486	592	1021	448	0	0	
1	0	0	0	0	520	604	1021	464	0	0	
2	0	0	0	0	556	604	1020	479	0	0	
3	0	0	0	0	591	595	1020	492	0	0	
4	0	0	0	0	621	574	1021	500	0	0	
5	0	0	0	0	641	544	1021	503	0	0	
6	0	0	0	0	652	508	1021	499	0	0	
7	0	0	0	0	648	468	1021	489	0	0	
8	0	0	0	0	632	428	1021	472	0	0	
9	0	0	0	0	603	391	1021	449	0	0	
10	0	0	0	0	565	359	1021	423	0	0	
11	0	0	0	0	518	336	1021	395	0	0	
12	0	0	0	0	469	321	1020	366	0	0	
13	0	0	0	0	419	316	1020	338	0	0	
14	0	0	0	0	373	321	1021	313	0	0	
15	0	0	0	0	335	335	1021	294	0	0	
0	0	0	0	0	307	355	1021	280	0	0	
1	0	0	0	0	292	378	1021	271	0	0	
2	0	0	0	0	289	401	1020	269	0	0	
3	0	0	0	0	299	421	1021	271	0	0	
4	0	0	0	0	319	433	1021	278	0	0	
5	0	0	0	0	346	438	1021	286	0	0	
6	0	0	0	0	376	432	1020	295	0	0	
7	0	0	0	0	407	415	1020	303	0	0	
8	0	0	0	0	434	390	1021	308	0	0	
9	0	0	0	0	454	356	1021	309	0	0	
10	0	0	0	0	464	318	1021	306	0	0	
11	0	0	0	0	463	278	1021	299	0	0	
12	0	0	0	0	452	241	1021	288	0	0	
13	0	0	0	0	432	209	1021	275	0	0	
14	0	0	0	0	404	186	1021	260	0	0	
15	0	0	0	0	374	174	1021	247	0	0	
0	0	0	0	0	342	174	1021	236	0	0	
1	0	0	0	0	313	188	1021	229	0	0	
2	0	0	0	0	292	215	1021	228	0	0	
3	0	0	0	0	281	255	1021	234	0	0	
4	0	0	0	0	282	304	1021	248	0	0	
5	0	0	0	0	297	359	1020	270	0	0	
6	0	0	0	0	326	416	1021	299	0	0	
7	0	0	0	0	368	470	1021	334	0	0	
8	0	0	0	0	421	518	1021	373	0	0	
9	0	0	0	0	480	556	1021	414	0	0	
10	0	0	0	0	540	583	1020	453	0	0	
11	0	0	0	0	599	597	1020	489	0	0	
12	0	0	0	0	651	598	1021	520	0	0	
13	0	0	0	0	692	588	1021	543	0	0	
14	0	0	0	0	719	567	1021	558	0	0	
15	0	0	0	0	732	539	1021	562	0	0	
0	0	0	0	0	728	509	1021	557	0	0	
1	0	0	0	0	709	479	1021	544	0	0	
2	0	0	0	0	677	454	1021	525	0	0	
3	0	0	0	0	635	435	1021	502	0	0	
4	0	0	0	0	588	424	1021	477	0	0	
5	0	0	0	0	540	423	1021	452	0	0	
6	0	0	0	0	494	433	1021	431	0	0	
7	0	0	0	0	456	451	1021	415	0	0	
8	0	0	0	0	431	476	1021	406	0	0	
9	0	0	0	0	419	505	1021	403	0	0	
10	0	0	0	0	422	535	1020	408	0	0	
11	0	0	0	0	439	562	1021	420	0	0	
12	0	0	0	0	468	584	1021	437	0	0	
13	0	0	0	0	506	599	1021	457	0	0	
14	0	0	0	0	548	604	1020	478	0	0	
15	0	0	0	0	592	601	1021	499	0	0	
0	0	0	0	0	632	589	1021	517	0	0	
1	0	0	0	0	664	568	1021	530	0	0	
2	0	0	0	0	688	542	1021	537	0	0	
3	0	0	0	0	698	513	1021	539	0	0	
4	0	0	0	0	695	484	1020	532	0	0	
5	0	0	0	0	679	458	1021	522	0	0	
6	0	0	0	0	653	438	1021	506	0	0	
7	0	0	0	0	617	424	1021	487	0	0	
8	0	0	0	0	577	420	1021	467	0	0	
9	0	0	0	0	536	425	1020	448	0	0	
10	0	0	0	0	499	440	1021	432	0	0	
11	0	0	0	0	468	463	1021	421	0	0	
12	0	0	0	0	448	491	1021	415	0	0	
13	0	0	0	0	440	523	1021	415	0	0	
14	0	0	0	0	445	553	1020	422	0	0	
15	0	0	0	0	463	580	1021	435	0	0	
0	0	0	0	0	492	601	1021	451	0	0	
1	0	0	0	0	527	614	1021	470	0	0	
2	0	0	0	0	567	617	1020	489	0	0	
3	0	0	0	0	607	611	1020	507	0	0	
4	0	0	0	0	643	596	1021	521	0	0	
5	0	0	0	0	671	572	1021	532	0	0	
6	0	0	0	0	689	543	1021	536	0	0	
7	0	0	0	0	696	511	1021	534	0	0	
8	0	0	0	0	689	480	1021	526	0	0	
9	0	0	0	0	671	452	1021	513	0	0	
10	0	0	0	0	641	430	1021	496	0	0	
11	0	0	0	0	605	416	1021	476	0	0	
12	0	0	0	0	565	412	1021	456	0	0	
13	0	0	0	0	525	418	1021	437	0	0	
14	0	0	0	0	488	433	1021	422	0	0	
15	0	0	0	0	459	456	1021	411	0	0	
0	0	0	0	0	440	486	1021	406	0	0	
1	0	0	0	0	433	518	1021	408	0	0	
2	0	0	0	0	441	549	1021	416	0	0	
3	0	0	0	0	461	577	1021	430	0	0	
4	0	0	0	0	491	599	1021	448	0	0	
5	0	0	0	0	528	612	1021	468	0	0	
6	0	0	0	0	569	616	1021	489	0	0	
7	0	0	0	0	611	611	1021	508	0	0	
8	0	0	0	0	648	597	1021	524	0	0	
9	0	0	0	0	678	575	1021	536	0	0	
10	0	0	0	0	697	547	1021	542	0	0	
11	0	0	0	0	703	516	1021	541	0	0	
12	0	0	0	0	697	485	1021	534	0	0	
13	0	0	0	0	679	458	1021	521	0	0	
14	0	0	0	0	649	438	1021	504	0	0	
15	0	0	0	0	612	424	1021	484	0	0	
0	0	0	0	0	571	420	1021	465	0	0	
1	0	0	0	0	529	427	1021	446	0	0	
2	0	0	0	0	492	443	1021	430	0	0	
3	0	0	0	0	461	467	1021	419	0	0	
4	0	0	0	0	441	496	1021	414	0	0	
5	0	0	0	0	435	528	1021	415	0	0	
6	0	0	0	0	442	560	1021	423	0	0	
7	0	0	0	0	461	588	1021	435	0	0	
8	0	0	0	0	491	609	1021	452	0	0	
9	0	0	0	0	527	622	1021	471	0	0	
10	0	0	0	0	567	625	1021	490	0	0	
11	0	0	0	0	607	618	1021	508	0	0	
12	0	0	0	0	643	601	1021	523	0	0	
13	0	0	0	0	671	577	1021	533	0	0	
14	0	0	0	0	689	546	1021	538	0	0	
15	0	0	0	0	695	513	1021	536	0	0	
0	0	0	0	0	689	480	1021	529	0	0	
1	0	0	0	0	670	451	1021	516	0	0	
2	0	0	0	0	641	428	1021	500	0	0	
3	0	0	0	0	605	415	1021	481	0	0	
4	0	0	0	0	564	410	1021	463	0	0	
5	0	0	0	0	525	417	1021	445	0	0	
6	0	0	0	0	489	433	1021	430	0	0	
7	0	0	0	0	460	458	1021	420	0	0	
8	0	0	0	0	443	489	1021	415	0	0	
9	0	0	0	0	437	523	1021	417	0	0	
10	0	0	0	0	444	556	1021	424	0	0	
11	0	0	0	0	464	585	1021	436	0	0	
12	0	0	0	0	493	606	1021	452	0	0	
13	0	0	0	0	528	620	1021	470	0	0	
14	0	0	0	0	567	623	1021	487	0	0	
15	0	0	0	0	605	615	1021	504	0	0	
0	0	0	0	0	640	598	1021	518	0	0	
1	0	0	0	0	666	572	1021	526	0	0	
2	0	0	0	0	682	541	1021	529	0	0	
3	0	0	0	0	687	506	1021	526	0	0	
4	0	0	0	0	679	472	1021	518	0	0	
5	0	0	0	0	660	442	1021	505	0	0	
6	0	0	0	0	631	418	1021	488	0	0	
7	0	0	0	0	595	403	1021	470	0	0	
8	0	0	0	0	555	399	1021	452	0	0	
9	0	0	0	0	515	404	1021	435	0	0	
10	0	0	0	0	480	420	1021	421	0	0	
11	0	0	0	0	452	446	1021	412	0	0	
12	0	0	0	0	435	477	1021	409	0	0	
13	0	0	0	0	431	512	1021	411	0	0	
14	0	0	0	0	440	546	1021	419	0	0	
15	0	0	0	0	460	576	1021	433	0	0	
0	0	0	0	0	490	600	1021	449	0	0	
1	0	0	0	0	527	614	1021	468	0	0	
2	0	0	0	0	567	619	1021	487	0	0	
3	0	0	0	0	606	612	1021	504	0	0	
4	0	0	0	0	641	597	1021	518	0	0	
5	0	0	0	0	669	573	1021	527	0	0	
6	0	0	0	0	686	542	1021	531	0	0	
7	0	0	0	0	690	509	1020	527	0	0	
8	0	0	0	0	682	476	1021	519	0	0	
9	0	0	0	0	661	447	1021	505	0	0	
10	0	0	0	0	630	423	1021	488	0	0	
11	0	0	0	0	592	409	1021	469	0	0	
12	0	0	0	0	551	404	1021	450	0	0	
13	0	0	0	0	509	410	1021	432	0	0	
14	0	0	0	0	472	425	1021	416	0	0	
15	0	0	0	0	443	449	1021	406	0	0	
0	0	0	0	0	423	478	1021	401	0	0	
1	0	0	0	0	418	510	1020	403	0	0	
2	0	0	0	0	425	542	1021	410	0	0	
3	0	0	0	0	445	569	1021	423	0	0	
4	0	0	0	0	475	591	1021	439	0	0	
5	0	0	0	0	512	604	1021	457	0	0	
6	0	0	0	0	553	607	1020	475	0	0	
7	0	0	0	0	593	601	1020	492	0	0	
8	0	0	0	0	630	585	1021	507	0	0	
9	0	0	0	0	659	561	1021	516	0	0	
10	0	0	0	0	677	531	1021	520	0	0	
11	0	0	0	0	683	499	1020	519	0	0	
12	0	0	0	0	677	467	1021	512	0	0	
13	0	0	0	0	658	438	1021	500	0	0	
14	0	0	0	0	629	416	1021	485	0	0	
15	0	0	0	0	593	402	1021	467	0	0	
0	0	0	0	0	552	398	1021	449	0	0	
1	0	0	0	0	513	403	1021	432	0	0	
2	0	0	0	0	476	419	1021	418	0	0	
3	0	0	0	0	447	443	1021	408	0	0	
4	0	0	0	0	429	472	1021	404	0	0	
5	0	0	0	0	423	505	1021	406	0	0	
6	0	0	0	0	430	537	1021	413	0	0	
7	0	0	0	0	449	567	1021	425	0	0	
8	0	0	0	0	479	589	1021	441	0	0	
9	0	0	0	0	515	603	1021	459	0	0	
10	0	0	0	0	555	607	1021	477	0	0	
11	0	0	0	0	595	601	1021	494	0	0	
12	0	0	0	0	631	586	1021	508	0	0	
13	0	0	0	0	659	562	1021	518	0	0	
14	0	0	0	0	677	533	1021	523	0	0	
15	0	0	0	0	683	500	1021	521	0	0	
0	0	0	0	0	676	467	1021	513	0	0	
1	0	0	0	0	657	438	1021	500	0	0	
2	0	0	0	0	628	415	1021	484	0	0	
3	0	0	0	0	591	399	1021	465	0	0	
4	0	0	0	0	550	393	1021	445	0	0	
5	0	0	0	0	509	398	1021	427	0	0	
6	0	0	0	0	472	412	1021	411	0	0	
7	0	0	0	0	442	435	1021	400	0	0	
8	0	0	0	0	422	463	1021	395	0	0	
9	0	0	0	0	415	496	1020	396	0	0	
10	0	0	0	0	422	529	1021	403	0	0	
11	0	0	0	0	440	558	1021	415	0	0	
12	0	0	0	0	470	581	1021	432	0	0	
13	0	0	0	0	507	595	1021	451	0	0	
14	0	0	0	0	547	601	1021	471	0	0	
15	0	0	0	0	588	596	1021	490	0	0	
0	0	0	0	0	624	581	1021	505	0	0	
1	0	0	0	0	654	559	1021	516	0	0	
2	0	0	0	0	672	529	1021	521	0	0	
3	0	0	0	0	678	497	1020	519	0	0	
4	0	0	0	0	671	463	1020	511	0	0	
5	0	0	0	0	652	433	1021	497	0	0	
6	0	0	0	0	622	409	1021	480	0	0	
7	0	0	0	0	584	393	1021	460	0	0	
8	0	0	0	0	543	387	1021	440	0	0	
9	0	0	0	0	501	390	1021	422	0	0	
10	0	0	0	0	464	403	1021	406	0	0	
11	0	0	0	0	434	426	1021	395	0	0	
12	0	0	0	0	414	455	1021	390	0	0	
13	0	0	0	0	408	487	1021	391	0	0	
14	0	0	0	0	415	520	1021	399	0	0	
15	0	0	0	0	435	550	1021	413	0	0	
0	0	0	0	0	465	574	1021	430	0	0	
1	0	0	0	0	502	589	1021	450	0	0	
2	0	0	0	0	542	595	1021	470	0	0	
3	0	0	0	0	583	592	1021	489	0	0	
4	0	0	0	0	621	580	1021	505	0	0	
5	0	0	0	0	650	559	1021	516	0	0	
6	0	0	0	0	670	532	1021	522	0	0	
7	0	0	0	0	677	501	1021	521	0	0	
8	0	0	0	0	672	471	1021	514	0	0	
9	0	0	0	0	655	444	1021	502	0	0	
10	0	0	0	0	627	423	1021	486	0	0	
11	0	0	0	0	591	408	1021	467	0	0	
12	0	0	0	0	551	403	1020	448	0	0	
13	0	0	0	0	511	408	1020	430	0	0	
14	0	0	0	0	475	422	1021	415	0	0	
15	0	0	0	0	446	444	1021	404	0	0	
0	0	0	0	0	427	472	1021	400	0	0	
1	0	0	0	0	420	504	1021	401	0	0	
2	0	0	0	0	427	534	1021	408	0	0	
3	0	0	0	0	445	561	1021	419	0	0	
4	0	0	0	0	473	582	1021	435	0	0	
5	0	0	0	0	508	595	1021	452	0	0	
6	0	0	0	0	547	599	1021	471	0	0	
7	0	0	0	0	585	592	1020	487	0	0	
8	0	0	0	0	620	576	1021	501	0	0	
9	0	0	0	0	647	553	1021	511	0	0	
10	0	0	0	0	665	524	1021	515	0	0	
11	0	0	0	0	671	492	1021	512	0	0	
12	0	0	0	0	663	460	1020	504	0	0	
13	0	0	0	0	646	432	1021	492	0	0	
14	0	0	0	0	617	410	1021	477	0	0	
15	0	0	0	0	583	397	1021	459	0	0	
0	0	0	0	0	543	393	1021	441	0	0	
1	0	0	0	0	505	399	1021	425	0	0	
2	0	0	0	0	470	414	1021	412	0	0	
3	0	0	0	0	442	438	1021	403	0	0	
4	0	0	0	0	425	468	1021	399	0	0	
5	0	0	0	0	420	501	1021	401	0	0	
6	0	0	0	0	428	533	1021	409	0	0	
7	0	0	0	0	448	561	1021	422	0	0	
8	0	0	0	0	478	583	1021	439	0	0	
9	0	0	0	0	513	596	1020	456	0	0	
10	0	0	0	0	553	601	1020	475	0	0	
11	0	0	0	0	592	595	1020	491	0	0	
12	0	0	0	0	628	580	1021	505	0	0	
13	0	0	0	0	655	558	1021	515	0	0	
14	0	0	0	0	673	530	1021	519	0	0	
15	0	0	0	0	679	499	1020	517	0	0	
0	0	0	0	0	672	467	1021	510	0	0	
1	0	0	0	0	654	440	1021	498	0	0	
2	0	0	0	0	625	419	1021	483	0	0	
3	0	0	0	0	590	406	1021	465	0	0	
4	0	0	0	0	549	402	1021	447	0	0	
5	0	0	0	0	510	408	1021	430	0	0	
6	0	0	0	0	473	423	1021	416	0	0	
7	0	0	0	0	444	446	1021	406	0	0	
8	0	0	0	0	426	475	1021	402	0	0	
9	0	0	0	0	420	507	1021	404	0	0	
10	0	0	0	0	427	539	1021	412	0	0	
11	0	0	0	0	447	567	1021	425	0	0	
12	0	0	0	0	476	589	1021	441	0	0	
13	0	0	0	0	513	603	1021	460	0	0	
14	0	0	0	0	553	607	1020	479	0	0	
15	0	0	0	0	593	602	1021	497	0	0	
0	0	0	0	0	629	588	1021	512	0	0	
1	0	0	0	0	658	565	1021	523	0	0	
2	0	0	0	0	677	536	1021	527	0	0	
3	0	0	0	0	684	504	1021	526	0	0	
4	0	0	0	0	678	472	1021	518	0	0	
5	0	0	0	0	659	444	1021	505	0	0	
6	0	0	0	0	631	421	1021	489	0	0	
7	0	0	0	0	595	407	1021	471	0	0	
8	0	0	0	0	555	401	1020	452	0	0	
9	0	0	0	0	515	406	1021	434	0	0	
10	0	0	0	0	478	420	1021	419	0	0	
11	0	0	0	0	448	443	1021	408	0	0	
12	0	0	0	0	429	472	1021	403	0	0	
13	0	0	0	0	423	504	1021	404	0	0	
14	0	0	0	0	428	536	1021	411	0	0	
15	0	0	0	0	448	564	1021	423	0	0	
0	0	0	0	0	477	587	1021	440	0	0	
1	0	0	0	0	513	601	1021	459	0	0	
2	0	0	0	0	553	606	1020	478	0	0	
3	0	0	0	0	593	601	1020	496	0	0	
4	0	0	0	0	630	588	1021	512	0	0	
5	0	0	0	0	659	566	1021	523	0	0	
6	0	0	0	0	679	538	1021	528	0	0	
7	0	0	0	0	686	508	1021	528	0	0	
8	0	0	0	0	681	478	1021	521	0	0	
9	0	0	0	0	664	450	1021	510	0	0	
10	0	0	0	0	637	429	1021	495	0	0	
11	0	0	0	0	602	416	1021	477	0	0	
12	0	0	0	0	563	412	1020	458	0	0	
13	0	0	0	0	523	417	1020	440	0	0	
14	0	0	0	0	488	432	1021	426	0	0	
15	0	0	0	0	459	455	1021	416	0	0	
0	0	0	0	0	441	485	1021	412	0	0	
1	0	0	0	0	435	518	1021	414	0	0	
2	0	0	0	0	442	550	1021	421	0	0	
3	0	0	0	0	461	579	1021	434	0	0	
4	0	0	0	0	490	601	1021	451	0	0	
5	0	0	0	0	526	615	1021	470	0	0	
6	0	0	0	0	565	620	1021	489	0	0	
7	0	0	0	0	605	615	1021	506	0	0	
8	0	0	0	0	640	600	1021	520	0	0	
9	0	0	0	0	668	577	1021	530	0	0	
10	0	0	0	0	685	547	1021	534	0	0	
11	0	0	0	0	690	514	1020	531	0	0	
12	0	0	0	0	683	482	1020	523	0	0	
13	0	0	0	0	665	452	1021	510	0	0	
14	0	0	0	0	636	429	1021	493	0	0	
15	0	0	0	0	600	414	1021	475	0	0	
0	0	0	0	0	560	408	1021	456	0	0	
1	0	0	0	0	520	413	1020	438	0	0	
2	0	0	0	0	485	428	1021	424	0	0	
3	0	0	0	0	457	451	1021	415	0	0	
4	0	0	0	0	439	480	1021	411	0	0	
5	0	0	0	0	433	513	1020	413	0	0	
6	0	0	0	0	441	545	1021	421	0	0	
7	0	0	0	0	461	575	1021	434	0	0	
8	0	0	0	0	491	597	1021	450	0	0	
9	0	0	0	0	527	611	1021	469	0	0	
10	0	0	0	0	567	616	1021	487	0	0	
11	0	0	0	0	606	611	1020	504	0	0	
12	0	0	0	0	642	595	1021	518	0	0	
13	0	0	0	0	670	572	1021	527	0	0	
14	0	0	0	0	687	543	1021	530	0	0	
15	0	0	0	0	692	510	1020	527	0	0	
0	0	0	0	0	686	477	1021	519	0	0	
1	0	0	0	0	666	448	1021	505	0	0	
2	0	0	0	0	637	424	1021	488	0	0	
3	0	0	0	0	600	410	1021	470	0	0	
4	0	0	0	0	560	404	1021	451	0	0	
5	0	0	0	0	519	409	1021	433	0	0	
6	0	0	0	0	483	423	1021	419	0	0	
7	0	0	0	0	453	447	1021	409	0	0	
8	0	0	0	0	434	476	1021	404	0	0	
9	0	0	0	0	427	508	1020	406	0	0	
10	0	0	0	0	433	540	1020	413	0	0	
11	0	0	0	0	452	568	1021	426	0	0	
12	0	0	0	0	481	591	1021	443	0	0	
13	0	0	0	0	518	605	1021	462	0	0	
14	0	0	0	0	557	609	1021	481	0	0	
15	0	0	0	0	596	604	1020	498	0	0	
0	0	0	0	0	632	588	1021	513	0	0	
1	0	0	0	0	661	565	1021	523	0	0	
2	0	0	0	0	679	535	1021	526	0	0	
3	0	0	0	0	685	502	1021	524	0	0	
4	0	0	0	0	678	469	1021	515	0	0	
5	0	0	0	0	659	440	1021	501	0	0	
6	0	0	0	0	630	416	1021	484	0	0	
7	0	0	0	0	593	400	1021	464	0	0	
8	0	0	0	0	553	395	1021	444	0	0	
9	0	0	0	0	512	400	1020	426	0	0	
10	0	0	0	0	476	415	1021	411	0	0	
11	0	0	0	0	447	439	1021	401	0	0	
12	0	0	0	0	428	468	1021	397	0	0	
13	0	0	0	0	422	502	1020	399	0	0	
14	0	0	0	0	429	535	1020	408	0	0	
15	0	0	0	0	449	565	1021	422	0	0	
0	0	0	0	0	480	589	1021	440	0	0	
1	0	0	0	0	516	604	1021	460	0	0	
2	0	0	0	0	556	609	1020	480	0	0	
3	0	0	0	0	598	605	1020	499	0	0	
4	0	0	0	0	635	591	1021	515	0	0	
5	0	0	0	0	664	568	1021	526	0	0	
6	0	0	0	0	684	540	1021	531	0	0	
7	0	0	0	0	691	507	1021	529	0	0	
8	0	0	0	0	685	475	1021	521	0	0	
9	0	0	0	0	666	447	1021	508	0	0	
10	0	0	0	0	637	424	1021	491	0	0	
11	0	0	0	0	600	409	1021	472	0	0	
12	0	0	0	0	558	404	1020	452	0	0	
13	0	0	0	0	516	408	1020	433	0	0	
14	0	0	0	0	478	422	1021	417	0	0	
15	0	0	0	0	447	445	1021	407	0	0	
0	0	0	0	0	426	473	1021	402	0	0	
1	0	0	0	0	418	505	1021	404	0	0	
2	0	0	0	0	423	536	1021	411	0	0	
3	0	0	0	0	442	564	1021	424	0	0	
4	0	0	0	0	471	586	1021	441	0	0	
5	0	0	0	0	507	599	1021	459	0	0	
6	0	0	0	0	547	603	1021	478	0	0	
7	0	0	0	0	587	597	1020	496	0	0	
8	0	0	0	0	624	582	1021	511	0	0	
9	0	0	0	0	654	559	1021	521	0	0	
10	0	0	0	0	673	530	1021	525	0	0	
11	0	0	0	0	681	499	1020	524	0	0	
12	0	0	0	0	676	468	1020	516	0	0	
13	0	0	0	0	660	440	1021	504	0	0	
14	0	0	0	0	632	419	1021	489	0	0	
15	0	0	0	0	598	406	1021	471	0	0	
0	0	0	0	0	559	403	1021	453	0	0	
1	0	0	0	0	521	409	1021	436	0	0	
2	0	0	0	0	485	425	1021	423	0	0	
3	0	0	0	0	456	449	1021	413	0	0	
4	0	0	0	0	438	479	1021	409	0	0	
5	0	0	0	0	431	512	1021	411	0	0	
6	0	0	0	0	437	544	1021	419	0	0	
7	0	0	0	0	456	572	1021	432	0	0	
8	0	0	0	0	484	594	1021	448	0	0	
9	0	0	0	0	519	607	1020	465	0	0	
10	0	0	0	0	559	611	1021	484	0	0	
11	0	0	0	0	599	604	1021	501	0	0	
12	0	0	0	0	635	590	1021	515	0	0	
13	0	0	0	0	664	566	1021	525	0	0	
14	0	0	0	0	683	537	1021	529	0	0	
15	0	0	0	0	690	505	1020	528	0	0	
0	0	0	0	0	684	474	1020	521	0	0	
1	0	0	0	0	668	446	1021	510	0	0	
2	0	0	0	0	640	424	1021	494	0	0	
3	0	0	0	0	604	410	1021	476	0	0	
4	0	0	0	0	564	404	1021	457	0	0	
5	0	0	0	0	523	410	1021	439	0	0	
6	0	0	0	0	486	424	1021	423	0	0	
7	0	0	0	0	455	447	1021	412	0	0	
8	0	0	0	0	435	476	1021	407	0	0	
9	0	0	0	0	426	507	1021	407	0	0	
10	0	0	0	0	432	538	1021	414	0	0	
11	0	0	0	0	448	566	1021	425	0	0	
12	0	0	0	0	476	587	1021	441	0	0	
13	0	0	0	0	512	600	1021	460	0	0	
14	0	0	0	0	551	604	1021	479	0	0	
15	0	0	0	0	591	598	1021	497	0	0	
0	0	0	0	0	627	583	1021	512	0	0	
1	0	0	0	0	657	560	1021	523	0	0	
2	0	0	0	0	676	531	1021	528	0	0	
3	0	0	0	0	684	500	1021	527	0	0	
4	0	0	0	0	679	469	1021	520	0	0	
5	0	0	0	0	662	441	1021	509	0	0	
6	0	0	0	0	635	420	1021	493	0	0	
7	0	0	0	0	600	407	1021	476	0	0	
8	0	0	0	0	561	403	1021	457	0	0	
9	0	0	0	0	523	409	1021	440	0	0	
10	0	0	0	0	487	424	1021	426	0	0	
11	0	0	0	0	460	449	1021	416	0	0	
12	0	0	0	0	441	479	1021	412	0	0	
13	0	0	0	0	435	512	1021	414	0	0	
14	0	0	0	0	443	545	1021	422	0	0	
15	0	0	0	0	462	575	1021	435	0	0	
0	0	0	0	0	492	598	1021	453	0	0	
1	0	0	0	0	528	612	1021	472	0	0	
2	0	0	0	0	568	618	1020	493	0	0	
3	0	0	0	0	609	614	1021	512	0	0	
4	0	0	0	0	646	600	1021	528	0	0	
5	0	0	0	0	675	578	1021	540	0	0	
6	0	0	0	0	694	550	1021	545	0	0	
7	0	0	0	0	700	518	1021	544	0	0	
8	0	0	0	0	694	486	1021	537	0	0	
9	0	0	0	0	675	457	1021	524	0	0	
10	0	0	0	0	646	434	1021	508	0	0	
11	0	0	0	0	608	419	1021	487	0	0	
12	0	0	0	0	566	413	1021	467	0	0	
13	0	0	0	0	524	416	1021	447	0	0	
14	0	0	0	0	486	429	1021	431	0	0	
15	0	0	0	0	454	451	1021	418	0	0	
0	0	0	0	0	433	478	1021	411	0	0	
1	0	0	0	0	424	509	1021	411	0	0	
2	0	0	0	0	430	540	1021	416	0	0	
3	0	0	0	0	448	568	1021	428	0	0	
4	0	0	0	0	477	590	1021	444	0	0	
5	0	0	0	0	514	604	1021	463	0	0	
6	0	0	0	0	555	609	1021	482	0	0	
7	0	0	0	0	596	604	1021	500	0	0	
8	0	0	0	0	634	590	1021	516	0	0	
9	0	0	0	0	665	568	1021	528	0	0	
10	0	0	0	0	686	540	1021	534	0	0	
11	0	0	0	0	695	509	1021	534	0	0	
12	0	0	0	0	691	478	1021	527	0	0	
13	0	0	0	0	675	450	1021	516	0	0	
14	0	0	0	0	648	428	1021	501	0	0	
15	0	0	0	0	613	415	1021	483	0	0	
0	0	0	0	0	574	411	1021	465	0	0	
1	0	0	0	0	533	416	1021	448	0	0	
2	0	0	0	0	496	432	1021	434	0	0	
3	0	0	0	0	466	455	1021	424	0	0	
4	0	0	0	0	446	486	1021	420	0	0	
5	0	0	0	0	439	519	1021	422	0	0	
6	0	0	0	0	444	552	1021	429	0	0	
7	0	0	0	0	462	581	1021	441	0	0	
8	0	0	0	0	489	603	1021	456	0	0	
9	0	0	0	0	525	616	1021	474	0	0	
10	0	0	0	0	563	620	1021	492	0	0	
11	0	0	0	0	601	613	1021	507	0	0	
12	0	0	0	0	637	597	1021	521	0	0	
13	0	0	0	0	664	572	1021	529	0	0	
14	0	0	0	0	682	541	1021	533	0	0	
15	0	0	0	0	688	507	1021	530	0	0	
0	0	0	0	0	682	473	1021	522	0	0	
1	0	0	0	0	664	443	1021	509	0	0	
2	0	0	0	0	635	419	1021	492	0	0	
3	0	0	0	0	600	404	1021	474	0	0	
4	0	0	0	0	560	399	1021	455	0	0	
5	0	0	0	0	519	404	1021	438	0	0	
6	0	0	0	0	483	418	1021	423	0	0	
7	0	0	0	0	454	442	1021	413	0	0	
8	0	0	0	0	434	472	1020	408	0	0	
9	0	0	0	0	427	505	1020	411	0	0	
10	0	0	0	0	432	537	1020	418	0	0	
11	0	0	0	0	451	567	1021	431	0	0	
12	0	0	0	0	479	590	1021	447	0	0	
13	0	0	0	0	515	604	1021	466	0	0	
14	0	0	0	0	555	609	1021	485	0	0	
15	0	0	0	0	595	603	1021	502	0	0	
0	0	0	0	0	631	589	1021	517	0	0	
1	0	0	0	0	660	566	1021	527	0	0	
2	0	0	0	0	679	537	1021	532	0	0	
3	0	0	0	0	687	505	1021	531	0	0	
4	0	0	0	0	684	474	1021	524	0	0	
5	0	0	0	0	668	447	1021	513	0	0	
6	0	0	0	0	640	425	1021	498	0	0	
7	0	0	0	0	606	412	1021	480	0	0	
8	0	0	0	0	567	408	1021	463	0	0	
9	0	0	0	0	528	415	1021	446	0	0	
10	0	0	0	0	492	431	1021	432	0	0	
11	0	0	0	0	463	455	1021	422	0	0	
12	0	0	0	0	444	484	1021	418	0	0	
13	0	0	0	0	437	517	1021	420	0	0	
14	0	0	0	0	442	550	1021	428	0	0	
15	0	0	0	0	460	578	1021	441	0	0	
0	0	0	0	0	488	600	1021	457	0	0	
1	0	0	0	0	523	613	1020	475	0	0	
2	0	0	0	0	562	617	1021	495	0	0	
3	0	0	0	0	600	611	1020	512	0	0	
4	0	0	0	0	637	596	1021	527	0	0	
5	0	0	0	0	666	573	1021	537	0	0	
6	0	0	0	0	685	543	1021	542	0	0	
7	0	0	0	0	692	511	1021	540	0	0	
8	0	0	0	0	686	479	1020	532	0	0	
9	0	0	0	0	670	450	1021	519	0	0	
10	0	0	0	0	642	427	1021	503	0	0	
11	0	0	0	0	606	412	1021	484	0	0	
12	0	0	0	0	566	406	1021	464	0	0	
13	0	0	0	0	526	410	1021	446	0	0	
14	0	0	0	0	489	425	1021	430	0	0	
15	0	0	0	0	459	448	1021	419	0	0	
0	0	0	0	0	439	477	1021	415	0	0	
1	0	0	0	0	432	510	1021	415	0	0	
2	0	0	0	0	438	543	1020	423	0	0	
3	0	0	0	0	456	572	1021	435	0	0	
4	0	0	0	0	485	595	1021	451	0	0	
5	0	0	0	0	521	609	1021	470	0	0	
6	0	0	0	0	560	614	1021	489	0	0	
7	0	0	0	0	600	609	1021	507	0	0	
8	0	0	0	0	637	595	1021	521	0	0	
9	0	0	0	0	666	572	1021	531	0	0	
10	0	0	0	0	685	543	1021	536	0	0	
11	0	0	0	0	692	510	1020	534	0	0	
12	0	0	0	0	686	478	1020	526	0	0	
13	0	0	0	0	669	448	1021	514	0	0	
14	0	0	0	0	641	425	1021	497	0	0	
15	0	0	0	0	604	410	1021	478	0	0	
0	0	0	0	0	562	403	1021	458	0	0	
1	0	0	0	0	520	407	1021	439	0	0	
2	0	0	0	0	481	419	1021	422	0	0	
3	0	0	0	0	448	441	1021	410	0	0	
4	0	0	0	0	425	468	1021	403	0	0	
5	0	0	0	0	416	499	1021	403	0	0	
6	0	0	0	0	419	529	1021	408	0	0	
7	0	0	0	0	435	556	1021	419	0	0	
8	0	0	0	0	462	577	1021	433	0	0	
9	0	0	0	0	496	590	1021	451	0	0	
10	0	0	0	0	536	594	1020	469	0	0	
11	0	0	0	0	575	588	1020	486	0	0	
12	0	0	0	0	613	574	1021	501	0	0	
13	0	0	0	0	643	551	1021	511	0	0	
14	0	0	0	0	664	523	1021	516	0	0	
15	0	0	0	0	673	492	1020	515	0	0	
0	0	0	0	0	669	460	1021	508	0	0	
1	0	0	0	0	653	433	1021	496	0	0	
2	0	0	0	0	625	411	1021	481	0	0	
3	0	0	0	0	591	397	1021	463	0	0	
4	0	0	0	0	552	393	1021	444	0	0	
5	0	0	0	0	512	398	1021	427	0	0	
6	0	0	0	0	476	414	1021	412	0	0	
7	0	0	0	0	446	437	1021	402	0	0	
8	0	0	0	0	427	467	1021	398	0	0	
9	0	0	0	0	420	499	1021	399	0	0	
10	0	0	0	0	425	531	1020	406	0	0	
11	0	0	0	0	444	559	1021	418	0	0	
12	0	0	0	0	472	580	1021	433	0	0	
13	0	0	0	0	508	594	1021	452	0	0	
14	0	0	0	0	548	598	1021	470	0	0	
15	0	0	0	0	588	592	1020	487	0	0	
0	0	0	0	0	625	577	1021	502	0	0	
1	0	0	0	0	654	555	1021	512	0	0	
2	0	0	0	0	673	526	1021	517	0	0	
3	0	0	0	0	681	494	1021	516	0	0	
4	0	0	0	0	676	463	1021	509	0	0	
5	0	0	0	0	658	436	1021	497	0	0	
6	0	0	0	0	630	415	1021	482	0	0	
7	0	0	0	0	593	401	1021	464	0	0	
8	0	0	0	0	553	398	1021	445	0	0	
9	0	0	0	0	512	404	1020	428	0	0	
10	0	0	0	0	475	419	1021	414	0	0	
11	0	0	0	0	444	444	1021	404	0	0	
12	0	0	0	0	425	473	1021	400	0	0	
13	0	0	0	0	418	507	1020	403	0	0	
14	0	0	0	0	423	539	1020	411	0	0	
15	0	0	0	0	444	568	1021	425	0	0	
0	0	0	0	0	474	590	1021	443	0	0	
1	0	0	0	0	512	604	1021	463	0	0	
2	0	0	0	0	553	608	1020	483	0	0	
3	0	0	0	0	596	603	1020	503	0	0	
4	0	0	0	0	636	588	1021	519	0	0	
5	0	0	0	0	668	564	1021	531	0	0	
6	0	0	0	0	689	535	1021	536	0	0	
7	0	0	0	0	698	502	1021	536	0	0	
8	0	0	0	0	694	470	1021	528	0	0	
9	0	0	0	0	677	443	1021	516	0	0	
10	0	0	0	0	648	421	1021	499	0	0	
11	0	0	0	0	612	408	1021	481	0	0	
12	0	0	0	0	571	404	1021	461	0	0	
13	0	0	0	0	529	411	1021	443	0	0	
14	0	0	0	0	490	428	1021	428	0	0	
15	0	0	0	0	458	452	1021	416	0	0	
0	0	0	0	0	436	482	1021	411	0	0	
1	0	0	0	0	427	515	1020	412	0	0	
2	0	0	0	0	432	548	1020	419	0	0	
3	0	0	0	0	450	576	1021	432	0	0	
4	0	0	0	0	478	597	1021	449	0	0	
5	0	0	0	0	515	609	1021	467	0	0	
6	0	0	0	0	556	612	1021	487	0	0	
7	0	0	0	0	597	604	1020	505	0	0	
8	0	0	0	0	636	587	1021	520	0	0	
9	0	0	0	0	667	561	1021	531	0	0	
10	0	0	0	0	688	531	1021	537	0	0	
11	0	0	0	0	697	498	1021	536	0	0	
12	0	0	0	0	693	465	1020	529	0	0	
13	0	0	0	0	677	437	1021	518	0	0	
14	0	0	0	0	650	416	1021	502	0	0	
15	0	0	0	0	615	403	1021	483	0	0	
0	0	0	0	0	574	400	1021	464	0	0	
1	0	0	0	0	532	407	1021	445	0	0	
2	0	0	0	0	494	424	1021	429	0	0	
3	0	0	0	0	462	449	1021	417	0	0	
4	0	0	0	0	440	480	1021	411	0	0	
5	0	0	0	0	431	514	1021	411	0	0	
6	0	0	0	0	433	547	1021	416	0	0	
7	0	0	0	0	449	575	1021	427	0	0	
8	0	0	0	0	476	597	1021	443	0	0	
9	0	0	0	0	511	610	1021	460	0	0	
10	0	0	0	0	550	612	1021	479	0	0	
11	0	0	0	0	590	604	1021	497	0	0	
12	0	0	0	0	627	588	1021	511	0	0	
13	0	0	0	0	657	562	1021	522	0	0	
14	0	0	0	0	677	531	1021	527	0	0	
15	0	0	0	0	684	496	1021	526	0	0	
0	0	0	0	0	680	463	1021	519	0	0	
1	0	0	0	0	664	435	1021	506	0	0	
2	0	0	0	0	636	412	1021	491	0	0	
3	0	0	0	0	602	399	1021	472	0	0	
4	0	0	0	0	562	395	1021	454	0	0	
5	0	0	0	0	523	402	1021	436	0	0	
6	0	0	0	0	487	419	1021	422	0	0	
7	0	0	0	0	458	446	1021	412	0	0	
8	0	0	0	0	439	478	1021	409	0	0	
9	0	0	0	0	433	514	1021	411	0	0	
10	0	0	0	0	440	550	1021	420	0	0	
11	0	0	0	0	459	582	1021	433	0	0	
12	0	0	0	0	489	607	1021	450	0	0	
13	0	0	0	0	526	623	1021	470	0	0	
14	0	0	0	0	565	628	1021	488	0	0	
15	0	0	0	0	605	623	1021	506	0	0	
0	0	0	0	0	640	607	1021	519	0	0	
1	0	0	0	0	668	582	1021	528	0	0	
2	0	0	0	0	684	549	1021	531	0	0	
3	0	0	0	0	688	511	1021	527	0	0	
4	0	0	0	0	679	473	1021	516	0	0	
5	0	0	0	0	657	437	1021	500	0	0	
6	0	0	0	0	623	407	1021	479	0	0	
7	0	0	0	0	582	384	1021	455	0	0	
8	0	0	0	0	535	370	1021	430	0	0	
9	0	0	0	0	487	367	1021	404	0	0	
10	0	0	0	0	443	374	1021	382	0	0	
11	0	0	0	0	405	389	1021	363	0	0	
12	0	0	0	0	376	412	1021	350	0	0	
13	0	0	0	0	360	438	1021	343	0	0	
14	0	0	0	0	357	464	1020	340	0	0	
15	0	0	0	0	366	487	1021	344	0	0	
0	0	0	0	0	385	504	1021	350	0	0	
1	0	0	0	0	412	511	1021	359	0	0	
2	0	0	0	0	443	509	1021	369	0	0	
3	0	0	0	0	473	496	1021	377	0	0	
4	0	0	0	0	500	472	1021	381	0	0	
5	0	0	0	0	519	439	1021	381	0	0	
6	0	0	0	0	528	397	1021	375	0	0	
7	0	0	0	0	524	352	1021	362	0	0	
8	0	0	0	0	506	307	1020	344	0	0	
9	0	0	0	0	478	264	1021	321	0	0	
10	0	0	0	0	440	227	1021	295	0	0	
11	0	0	0	0	395	199	1021	269	0	0	
12	0	0	0	0	349	183	1020	243	0	0	
13	0	0	0	0	304	179	1020	220	0	0	
14	0	0	0	0	266	188	1021	203	0	0	
15	0	0	0	0	238	211	1021	194	0	0	
0	0	0	0	0	222	246	1021	194	0	0	
1	0	0	0	0	222	288	1020	204	0	0	
2	0	0	0	0	240	337	1020	223	0	0	
3	0	0	0	0	274	386	1021	252	0	0	
4	0	0	0	0	321	433	1021	287	0	0	
5	0	0	0	0	380	473	1021	328	0	0	
6	0	0	0	0	445	504	1020	371	0	0	
7	0	0	0	0	511	525	1021	414	0	0	
8	0	0	0	0	575	534	1021	454	0	0	
9	0	0	0	0	630	533	1021	488	0	0	
10	0	0	0	0	673	523	1021	515	0	0	
11	0	0	0	0	702	505	1021	532	0	0	
12	0	0	0	0	713	484	1020	541	0	0	
13	0	0	0	0	710	464	1021	541	0	0	
14	0	0	0	0	691	446	1021	533	0	0	
15	0	0	0	0	661	433	1021	519	0	0	
0	0	0	0	0	622	428	1021	502	0	0	
1	0	0	0	0	579	431	1021	483	0	0	
2	0	0	0	0	536	442	1021	464	0	0	
3	0	0	0	0	499	462	1021	449	0	0	
4	0	0	0	0	469	487	1021	438	0	0	
5	0	0	0	0	451	515	1021	432	0	0	
6	0	0	0	0	446	544	1021	432	0	0	
7	0	0	0	0	455	571	1021	438	0	0	
8	0	0	0	0	475	591	1021	448	0	0	
9	0	0	0	0	504	605	1020	461	0	0	
10	0	0	0	0	539	610	1021	477	0	0	
11	0	0	0	0	576	606	1020	492	0	0	
12	0	0	0	0	612	592	1021	506	0	0	
13	0	0	0	0	643	571	1021	517	0	0	
14	0	0	0	0	665	543	1021	523	0	0	
15	0	0	0	0	676	513	1020	524	0	0	
0	0	0	0	0	677	482	1021	520	0	0	
1	0	0	0	0	665	455	1021	512	0	0	
2	0	0	0	0	643	433	1021	499	0	0	
3	0	0	0	0	613	419	1021	485	0	0	
4	0	0	0	0	577	414	1021	469	0	0	
5	0	0	0	0	542	419	1021	454	0	0	
6	0	0	0	0	508	434	1021	441	0	0	
7	0	0	0	0	479	458	1021	433	0	0	
8	0	0	0	0	460	488	1021	429	0	0	
9	0	0	0	0	453	522	1021	431	0	0	
10	0	0	0	0	457	556	1021	438	0	0	
11	0	0	0	0	474	587	1021	451	0	0	
12	0	0	0	0	500	612	1021	466	0	0	
13	0	0	0	0	534	628	1021	484	0	0	
14	0	0	0	0	572	635	1021	503	0	0	
15	0	0	0	0	610	632	1021	519	0	0	
0	0	0	0	0	646	619	1021	534	0	0	
1	0	0	0	0	675	597	1021	544	0	0	
2	0	0	0	0	694	568	1021	548	0	0	
3	0	0	0	0	702	535	1021	547	0	0	
4	0	0	0	0	698	502	1021	540	0	0	
5	0	0	0	0	682	472	1021	528	0	0	
6	0	0	0	0	655	447	1021	512	0	0	
7	0	0	0	0	620	429	1021	494	0	0	
8	0	0	0	0	581	421	1021	475	0	0	
9	0	0	0	0	539	423	1021	456	0	0	
10	0	0	0	0	502	434	1021	440	0	0	
11	0	0	0	0	470	455	1021	428	0	0	
12	0	0	0	0	448	482	1021	422	0	0	
13	0	0	0	0	440	513	1020	422	0	0	
14	0	0	0	0	443	545	1020	428	0	0	
15	0	0	0	0	460	575	1021	440	0	0	
0	0	0	0	0	487	599	1021	456	0	0	
1	0	0	0	0	523	615	1021	475	0	0	
2	0	0	0	0	563	622	1021	494	0	0	
3	0	0	0	0	603	620	1020	512	0	0	
4	0	0	0	0	641	607	1021	529	0	0	
5	0	0	0	0	672	586	1021	540	0	0	
6	0	0	0	0	693	558	1021	547	0	0	
7	0	0	0	0	703	526	1021	547	0	0	
8	0	0	0	0	699	494	1021	541	0	0	
9	0	0	0	0	683	463	1021	529	0	0	
10	0	0	0	0	656	439	1021	513	0	0	
11	0	0	0	0	622	423	1021	496	0	0	
12	0	0	0	0	582	415	1021	476	0	0	
13	0	0	0	0	540	418	1021	458	0	0	
14	0	0	0	0	502	431	1021	442	0	0	
15	0	0	0	0	470	453	1021	431	0	0	
0	0	0	0	0	448	481	1020	423	0	0	
1	0	0	0	0	439	514	1021	424	0	0	
2	0	0	0	0	441	547	1020	430	0	0	
3	0	0	0	0	459	578	1021	440	0	0	
4	0	0	0	0	485	602	1021	455	0	0	
5	0	0	0	0	520	618	1021	473	0	0	
6	0	0	0	0	559	625	1021	492	0	0	
7	0	0	0	0	600	622	1020	509	0	0	
8	0	0	0	0	637	608	1021	524	0	0	
9	0	0	0	0	667	586	1021	535	0	0	
10	0	0	0	0	688	557	1021	540	0	0	
11	0	0	0	0	696	524	1021	539	0	0	
12	0	0	0	0	692	490	1021	532	0	0	
13	0	0	0	0	676	459	1021	520	0	0	
14	0	0	0	0	649	433	1021	504	0	0	
15	0	0	0	0	614	415	1021	485	0	0	
0	0	0	0	0	574	407	1021	465	0	0	
1	0	0	0	0	533	409	1021	447	0	0	
2	0	0	0	0	495	422	1021	431	0	0	
3	0	0	0	0	464	443	1021	420	0	0	
4	0	0	0	0	443	472	1021	414	0	0	
5	0	0	0	0	434	504	1021	414	0	0	
6	0	0	0	0	438	538	1021	420	0	0	
7	0	0	0	0	455	569	1021	432	0	0	
8	0	0	0	0	483	594	1021	448	0	0	
9	0	0	0	0	519	611	1021	465	0	0	
10	0	0	0	0	559	620	1021	485	0	0	
11	0	0	0	0	600	617	1021	503	0	0	
12	0	0	0	0	638	606	1021	519	0	0	
13	0	0	0	0	669	585	1021	531	0	0	
14	0	0	0	0	690	558	1021	537	0	0	
15	0	0	0	0	699	526	1021	537	0	0	
0	0	0	0	0	697	493	1021	532	0	0	
1	0	0	0	0	681	463	1021	522	0	0	
2	0	0	0	0	654	439	1021	508	0	0	
3	0	0	0	0	620	422	1021	491	0	0	
4	0	0	0	0	581	414	1021	473	0	0	
5	0	0	0	0	540	416	1021	455	0	0	
6	0	0	0	0	503	429	1021	440	0	0	
7	0	0	0	0	472	451	1021	429	0	0	
8	0	0	0	0	451	479	1021	423	0	0	
9	0	0	0	0	442	512	1021	423	0	0	
10	0	0	0	0	446	546	1021	428	0	0	
11	0	0	0	0	462	577	1021	439	0	0	
12	0	0	0	0	489	602	1021	454	0	0	
13	0	0	0	0	524	619	1021	472	0	0	
14	0	0	0	0	563	626	1021	490	0	0	
15	0	0	0	0	603	624	1021	508	0	0	
0	0	0	0	0	639	611	1021	523	0	0	
1	0	0	0	0	670	590	1021	534	0	0	
2	0	0	0	0	690	560	1021	540	0	0	
3	0	0	0	0	698	527	1021	540	0	0	
4	0	0	0	0	695	493	1021	533	0	0	
5	0	0	0	0	679	462	1021	521	0	0	
6	0	0	0	0	651	435	1021	506	0	0	
7	0	0	0	0	615	417	1021	487	0	0	
8	0	0	0	0	575	408	1021	467	0	0	
9	0	0	0	0	534	409	1021	448	0	0	
10	0	0	0	0	495	421	1021	432	0	0	
11	0	0	0	0	463	442	1021	419	0	0	
12	0	0	0	0	440	470	1021	412	0	0	
13	0	0	0	0	430	502	1021	411	0	0	
14	0	0	0	0	434	535	1021	415	0	0	
15	0	0	0	0	449	566	1021	424	0	0	
0	0	0	0	0	475	590	1021	438	0	0	
1	0	0	0	0	509	606	1021	453	0	0	
2	0	0	0	0	547	612	1021	470	0	0	
3	0	0	0	0	587	608	1021	486	0	0	
4	0	0	0	0	622	595	1021	499	0	0	
5	0	0	0	0	652	572	1021	510	0	0	
6	0	0	0	0	671	542	1021	514	0	0	
7	0	0	0	0	679	508	1021	514	0	0	
8	0	0	0	0	675	474	1021	508	0	0	
9	0	0	0	0	659	442	1021	497	0	0	
10	0	0	0	0	632	417	1021	482	0	0	
11	0	0	0	0	597	399	1021	465	0	0	
12	0	0	0	0	558	391	1021	448	0	0	
13	0	0	0	0	518	393	1021	431	0	0	
14	0	0	0	0	481	406	1021	416	0	0	
15	0	0	0	0	451	428	1021	406	0	0	
0	0	0	0	0	431	457	1021	401	0	0	
1	0	0	0	0	423	492	1021	403	0	0	
2	0	0	0	0	428	527	1021	409	0	0	
3	0	0	0	0	445	559	1021	422	0	0	
4	0	0	0	0	473	586	1021	438	0	0	
5	0	0	0	0	509	604	1021	456	0	0	
6	0	0	0	0	549	612	1021	475	0	0	
7	0	0	0	0	589	610	1021	493	0	0	
8	0	0	0	0	626	598	1021	508	0	0	
9	0	0	0	0	656	575	1021	518	0	0	
10	0	0	0	0	675	546	1021	523	0	0	
11	0	0	0	0	684	512	1021	521	0	0	
12	0	0	0	0	679	477	1021	513	0	0	
13	0	0	0	0	661	445	1021	500	0	0	
14	0	0	0	0	632	417	1021	483	0	0	
15	0	0	0	0	596	398	1021	465	0	0	
0	0	0	0	0	555	388	1021	445	0	0	
1	0	0	0	0	513	388	1021	425	0	0	
2	0	0	0	0	475	399	1021	409	0	0	
3	0	0	0	0	443	420	1021	398	0	0	
4	0	0	0	0	421	449	1021	391	0	0	
5	0	0	0	0	412	482	1021	391	0	0	
6	0	0	0	0	417	516	1021	398	0	0	
7	0	0	0	0	434	549	1021	410	0	0	
8	0	0	0	0	463	575	1021	426	0	0	
9	0	0	0	0	499	594	1021	445	0	0	
10	0	0	0	0	539	603	1021	464	0	0	
11	0	0	0	0	580	601	1021	482	0	0	
12	0	0	0	0	618	590	1021	498	0	0	
13	0	0	0	0	649	568	1021	509	0	0	
14	0	0	0	0	669	539	1021	515	0	0	
15	0	0	0	0	678	505	1021	514	0	0	
0	0	0	0	0	674	470	1021	508	0	0	
1	0	0	0	0	657	438	1021	496	0	0	
2	0	0	0	0	630	411	1021	481	0	0	
3	0	0	0	0	594	392	1021	463	0	0	
4	0	0	0	0	554	383	1021	444	0	0	
5	0	0	0	0	512	384	1020	426	0	0	
6	0	0	0	0	475	396	1021	411	0	0	
7	0	0	0	0	443	418	1021	400	0	0	
8	0	0	0	0	422	447	1021	395	0	0	
9	0	0	0	0	412	480	1021	395	0	0	
10	0	0	0	0	416	515	1020	401	0	0	
11	0	0	0	0	433	547	1021	411	0	0	
12	0	0	0	0	460	573	1021	426	0	0	
13	0	0	0	0	495	591	1021	443	0	0	
14	0	0	0	0	535	599	1021	460	0	0	
15	0	0	0	0	574	598	1021	476	0	0	
0	0	0	0	0	611	585	1021	490	0	0	
1	0	0	0	0	641	564	1021	500	0	0	
2	0	0	0	0	662	535	1021	505	0	0	
3	0	0	0	0	670	502	1021	504	0	0	
4	0	0	0	0	666	467	1021	496	0	0	
5	0	0	0	0	649	435	1021	484	0	0	
6	0	0	0	0	622	408	1021	468	0	0	
7	0	0	0	0	587	388	1021	451	0	0	
8	0	0	0	0	547	378	1021	432	0	0	
9	0	0	0	0	507	379	1021	415	0	0	
10	0	0	0	0	470	390	1021	400	0	0	
11	0	0	0	0	439	410	1021	390	0	0	
12	0	0	0	0	418	439	1021	385	0	0	
13	0	0	0	0	410	472	1021	386	0	0	
14	0	0	0	0	414	507	1020	393	0	0	
15	0	0	0	0	432	540	1021	406	0	0	
0	0	0	0	0	460	567	1021	422	0	0	
1	0	0	0	0	496	586	1021	441	0	0	
2	0	0	0	0	535	596	1021	460	0	0	
3	0	0	0	0	575	595	1020	479	0	0	
4	0	0	0	0	613	584	1021	494	0	0	
5	0	0	0	0	643	563	1021	505	0	0	
6	0	0	0	0	664	534	1021	510	0	0	
7	0	0	0	0	672	500	1021	509	0	0	
8	0	0	0	0	668	465	1021	502	0	0	
9	0	0	0	0	651	432	1021	490	0	0	
10	0	0	0	0	623	404	1021	474	0	0	
11	0	0	0	0	588	383	1021	455	0	0	
12	0	0	0	0	547	372	1020	435	0	0	
13	0	0	0	0	505	371	1021	417	0	0	
14	0	0	0	0	466	381	1021	401	0	0	
15	0	0	0	0	434	401	1021	390	0	0	
0	0	0	0	0	412	430	1021	384	0	0	
1	0	0	0	0	402	463	1021	385	0	0	
2	0	0	0	0	405	498	1021	391	0	0	
3	0	0	0	0	422	531	1021	404	0	0	
4	0	0	0	0	449	559	1021	420	0	0	
5	0	0	0	0	485	578	1021	440	0	0	
6	0	0	0	0	525	589	1020	460	0	0	
7	0	0	0	0	567	588	1021	478	0	0	
8	0	0	0	0	606	578	1021	495	0	0	
9	0	0	0	0	638	558	1021	507	0	0	
10	0	0	0	0	661	531	1021	513	0	0	
11	0	0	0	0	672	500	1021	514	0	0	
12	0	0	0	0	670	467	1020	508	0	0	
13	0	0	0	0	657	437	1021	497	0	0	
14	0	0	0	0	632	412	1021	483	0	0	
15	0	0	0	0	598	394	1021	465	0	0	
0	0	0	0	0	560	386	1021	446	0	0	
1	0	0	0	0	519	387	1020	429	0	0	
2	0	0	0	0	483	398	1021	413	0	0	
3	0	0	0	0	451	419	1021	402	0	0	
4	0	0	0	0	428	447	1021	396	0	0	
5	0	0	0	0	417	479	1020	396	0	0	
6	0	0	0	0	419	512	1020	402	0	0	
7	0	0	0	0	435	543	1021	413	0	0	
8	0	0	0	0	461	570	1021	429	0	0	
9	0	0	0	0	495	588	1021	447	0	0	
10	0	0	0	0	533	598	1020	467	0	0	
11	0	0	0	0	574	597	1020	486	0	0	
12	0	0	0	0	612	587	1021	502	0	0	
13	0	0	0	0	643	567	1021	514	0	0	
14	0	0	0	0	665	539	1021	520	0	0	
15	0	0	0	0	675	507	1021	520	0	0	
0	0	0	0	0	673	472	1021	514	0	0	
1	0	0	0	0	658	440	1021	503	0	0	
2	0	0	0	0	632	413	1021	486	0	0	
3	0	0	0	0	597	393	1021	467	0	0	
4	0	0	0	0	557	382	1021	447	0	0	
5	0	0	0	0	515	381	1021	427	0	0	
6	0	0	0	0	477	390	1021	410	0	0	
7	0	0	0	0	444	410	1021	398	0	0	
8	0	0	0	0	421	437	1021	391	0	0	
9	0	0	0	0	410	469	1021	391	0	0	
10	0	0	0	0	413	503	1021	396	0	0	
11	0	0	0	0	429	536	1021	408	0	0	
12	0	0	0	0	456	563	1021	425	0	0	
13	0	0	0	0	492	583	1021	444	0	0	
14	0	0	0	0	532	593	1021	463	0	0	
15	0	0	0	0	572	593	1020	482	0	0	
0	0	0	0	0	612	584	1021	498	0	0	
1	0	0	0	0	643	565	1021	510	0	0	
2	0	0	0	0	666	539	1021	517	0	0	
3	0	0	0	0	677	508	1021	518	0	0	
4	0	0	0	0	674	476	1020	512	0	0	
5	0	0	0	0	660	446	1021	501	0	0	
6	0	0	0	0	635	421	1021	487	0	0	
7	0	0	0	0	601	403	1021	470	0	0	
8	0	0	0	0	563	395	1021	452	0	0	
9	0	0	0	0	522	396	1020	435	0	0	
10	0	0	0	0	486	408	1021	421	0	0	
11	0	0	0	0	455	430	1021	411	0	0	
12	0	0	0	0	435	459	1021	406	0	0	
13	0	0	0	0	426	492	1021	407	0	0	
14	0	0	0	0	430	527	1020	414	0	0	
15	0	0	0	0	447	559	1021	426	0	0	
0	0	0	0	0	475	586	1021	443	0	0	
1	0	0	0	0	510	604	1021	461	0	0	
2	0	0	0	0	549	613	1020	480	0	0	
3	0	0	0	0	590	612	1020	498	0	0	
4	0	0	0	0	628	601	1021	513	0	0	
5	0	0	0	0	657	580	1021	524	0	0	
6	0	0	0	0	679	553	1021	530	0	0	
7	0	0	0	0	688	520	1021	529	0	0	
8	0	0	0	0	683	486	1021	523	0	0	
9	0	0	0	0	668	454	1021	511	0	0	
10	0	0	0	0	640	427	1021	496	0	0	
11	0	0	0	0	605	407	1021	478	0	0	
12	0	0	0	0	565	397	1020	460	0	0	
13	0	0	0	0	523	398	1020	442	0	0	
14	0	0	0	0	486	408	1021	427	0	0	
15	0	0	0	0	455	429	1021	417	0	0	
0	0	0	0	0	433	458	1021	412	0	0	
1	0	0	0	0	423	491	1021	412	0	0	
2	0	0	0	0	427	526	1021	419	0	0	
3	0	0	0	0	444	559	1021	431	0	0	
4	0	0	0	0	471	586	1021	447	0	0	
5	0	0	0	0	507	606	1021	464	0	0	
6	0	0	0	0	546	615	1021	483	0	0	
7	0	0	0	0	586	615	1021	500	0	0	
8	0	0	0	0	624	604	1021	515	0	0	
9	0	0	0	0	655	583	1021	526	0	0	
10	0	0	0	0	675	554	1021	531	0	0	
11	0	0	0	0	686	520	1021	529	0	0	
12	0	0	0	0	681	485	1020	522	0	0	
13	0	0	0	0	665	451	1021	510	0	0	
14	0	0	0	0	638	423	1021	494	0	0	
15	0	0	0	0	603	401	1021	475	0	0	
0	0	0	0	0	562	389	1021	455	0	0	
1	0	0	0	0	521	388	1021	437	0	0	
2	0	0	0	0	483	398	1021	421	0	0	
3	0	0	0	0	451	417	1021	409	0	0	
4	0	0	0	0	428	446	1021	404	0	0	
5	0	0	0	0	419	481	1021	404	0	0	
6	0	0	0	0	423	517	1021	411	0	0	
7	0	0	0	0	440	552	1021	423	0	0	
8	0	0	0	0	467	581	1021	440	0	0	
9	0	0	0	0	502	604	1021	460	0	0	
10	0	0	0	0	542	616	1021	480	0	0	
11	0	0	0	0	582	617	1020	499	0	0	
12	0	0	0	0	620	608	1021	515	0	0	
13	0	0	0	0	651	588	1021	527	0	0	
14	0	0	0	0	672	559	1021	534	0	0	
15	0	0	0	0	681	524	1021	534	0	0	
0	0	0	0	0	678	487	1020	527	0	0	
1	0	0	0	0	662	451	1021	515	0	0	
2	0	0	0	0	635	420	1021	499	0	0	
3	0	0	0	0	601	398	1021	480	0	0	
4	0	0	0	0	560	384	1021	460	0	0	
5	0	0	0	0	519	381	1020	440	0	0	
6	0	0	0	0	481	390	1021	424	0	0	
7	0	0	0	0	450	409	1021	412	0	0	
8	0	0	0	0	428	438	1021	405	0	0	
9	0	0	0	0	417	472	1020	405	0	0	
10	0	0	0	0	420	508	1021	411	0	0	
11	0	0	0	0	437	543	1021	422	0	0	
12	0	0	0	0	463	573	1021	437	0	0	
13	0	0	0	0	498	595	1021	455	0	0	
14	0	0	0	0	537	607	1021	475	0	0	
15	0	0	0	0	576	608	1021	493	0	0	
0	0	0	0	0	614	598	1021	508	0	0	
1	0	0	0	0	644	579	1021	520	0	0	
2	0	0	0	0	665	550	1021	526	0	0	
3	0	0	0	0	675	516	1021	526	0	0	
4	0	0	0	0	672	480	1021	520	0	0	
5	0	0	0	0	656	446	1021	508	0	0	
6	0	0	0	0	629	415	1021	492	0	0	
7	0	0	0	0	593	393	1021	474	0	0	
8	0	0	0	0	553	379	1020	454	0	0	
9	0	0	0	0	512	377	1021	435	0	0	
10	0	0	0	0	474	385	1021	419	0	0	
11	0	0	0	0	442	403	1021	407	0	0	
12	0	0	0	0	419	431	1021	400	0	0	
13	0	0	0	0	410	463	1021	400	0	0	
14	0	0	0	0	413	498	1021	406	0	0	
15	0	0	0	0	430	531	1021	417	0	0	
0	0	0	0	0	457	559	1021	433	0	0	
1	0	0	0	0	493	580	1021	452	0	0	
2	0	0	0	0	534	591	1021	472	0	0	
3	0	0	0	0	575	593	1020	491	0	0	
4	0	0	0	0	614	583	1021	507	0	0	
5	0	0	0	0	645	565	1021	519	0	0	
6	0	0	0	0	667	539	1021	525	0	0	
7	0	0	0	0	676	507	1021	525	0	0	
8	0	0	0	0	673	475	1021	519	0	0	
9	0	0	0	0	657	444	1021	507	0	0	
10	0	0	0	0	630	418	1021	491	0	0	
11	0	0	0	0	595	399	1021	472	0	0	
12	0	0	0	0	555	390	1021	452	0	0	
13	0	0	0	0	513	391	1020	433	0	0	
14	0	0	0	0	475	402	1021	417	0	0	
15	0	0	0	0	444	423	1021	405	0	0	
0	0	0	0	0	422	450	1021	399	0	0	
1	0	0	0	0	412	482	1021	399	0	0	
2	0	0	0	0	416	515	1021	406	0	0	
3	0	0	0	0	433	545	1021	417	0	0	
4	0	0	0	0	460	569	1021	433	0	0	
5	0	0	0	0	496	584	1021	451	0	0	
6	0	0	0	0	536	590	1021	471	0	0	
7	0	0	0	0	575	585	1020	488	0	0	
8	0	0	0	0	614	571	1021	504	0	0	
9	0	0	0	0	644	547	1021	515	0	0	
10	0	0	0	0	665	518	1021	520	0	0	
11	0	0	0	0	673	484	1021	519	0	0	
12	0	0	0	0	669	451	1020	513	0	0	
13	0	0	0	0	654	422	1021	501	0	0	
14	0	0	0	0	625	398	1021	485	0	0	
15	0	0	0	0	590	384	1021	466	0	0	
0	0	0	0	0	550	378	1021	447	0	0	
1	0	0	0	0	508	384	1020	428	0	0	
2	0	0	0	0	470	399	1021	413	0	0	
3	0	0	0	0	438	424	1021	401	0	0	
4	0	0	0	0	417	455	1021	395	0	0	
5	0	0	0	0	408	490	1021	396	0	0	
6	0	0	0	0	412	525	1021	403	0	0	
7	0	0	0	0	431	556	1021	416	0	0	
8	0	0	0	0	459	581	1021	433	0	0	
9	0	0	0	0	497	597	1021	453	0	0	
10	0	0	0	0	539	604	1021	474	0	0	
11	0	0	0	0	582	600	1020	494	0	0	
12	0	0	0	0	622	586	1021	511	0	0	
13	0	0	0	0	655	563	1021	524	0	0	
14	0	0	0	0	678	534	1021	531	0	0	
15	0	0	0	0	688	501	1021	531	0	0	
0	0	0	0	0	685	468	1021	526	0	0	
1	0	0	0	0	668	438	1021	514	0	0	
2	0	0	0	0	640	414	1021	498	0	0	
3	0	0	0	0	604	399	1021	480	0	0	
4	0	0	0	0	562	392	1021	460	0	0	
5	0	0	0	0	518	396	1021	440	0	0	
6	0	0	0	0	478	411	1021	423	0	0	
7	0	0	0	0	443	433	1021	410	0	0	
8	0	0	0	0	419	462	1021	403	0	0	
9	0	0	0	0	408	495	1021	401	0	0	
10	0	0	0	0	409	527	1021	405	0	0	
11	0	0	0	0	424	555	1021	415	0	0	
12	0	0	0	0	451	578	1021	430	0	0	
13	0	0	0	0	486	592	1021	448	0	0	
14	0	0	0	0	527	596	1021	467	0	0	
15	0	0	0	0	568	591	1020	484	0	0	
0	0	0	0	0	608	576	1021	501	0	0	
1	0	0	0	0	640	552	1021	513	0	0	
2	0	0	0	0	663	523	1021	520	0	0	
3	0	0	0	0	673	489	1021	521	0	0	
4	0	0	0	0	671	457	1020	515	0	0	
5	0	0	0	0	657	428	1021	504	0	0	
6	0	0	0	0	630	403	1021	489	0	0	
7	0	0	0	0	595	388	1021	471	0	0	
8	0	0	0	0	554	382	1021	452	0	0	
9	0	0	0	0	512	386	1021	433	0	0	
10	0	0	0	0	473	400	1021	416	0	0	
11	0	0	0	0	440	423	1021	404	0	0	
12	0	0	0	0	417	453	1021	397	0	0	
13	0	0	0	0	405	486	1021	396	0	0	
14	0	0	0	0	408	519	1021	401	0	0	
15	0	0	0	0	423	549	1021	411	0	0	
0	0	0	0	0	450	572	1021	426	0	0	
1	0	0	0	0	485	588	1021	444	0	0	
2	0	0	0	0	524	593	1021	463	0	0	
3	0	0	0	0	566	589	1021	481	0	0	
4	0	0	0	0	605	575	1021	497	0	0	
5	0	0	0	0	637	552	1021	509	0	0	
6	0	0	0	0	660	523	1021	515	0	0	
7	0	0	0	0	671	491	1021	516	0	0	
8	0	0	0	0	669	459	1021	511	0	0	
9	0	0	0	0	654	429	1021	500	0	0	
10	0	0	0	0	627	406	1021	486	0	0	
11	0	0	0	0	593	391	1021	469	0	0	
12	0	0	0	0	552	385	1021	451	0	0	
13	0	0	0	0	511	391	1021	432	0	0	
14	0	0	0	0	472	405	1021	416	0	0	
15	0	0	0	0	440	428	1021	404	0	0	
0	0	0	0	0	417	458	1021	398	0	0	
1	0	0	0	0	406	491	1021	397	0	0	
2	0	0	0	0	408	524	1021	401	0	0	
3	0	0	0	0	423	553	1021	412	0	0	
4	0	0	0	0	450	577	1021	427	0	0	
5	0	0	0	0	485	592	1021	444	0	0	
6	0	0	0	0	524	598	1021	463	0	0	
7	0	0	0	0	567	593	1021	480	0	0	
8	0	0	0	0	605	579	1021	496	0	0	
9	0	0	0	0	637	555	1021	508	0	0	
10	0	0	0	0	659	526	1021	515	0	0	
11	0	0	0	0	669	492	1021	515	0	0	
12	0	0	0	0	667	459	1021	509	0	0	
13	0	0	0	0	652	428	1021	498	0	0	
14	0	0	0	0	625	404	1021	482	0	0	
15	0	0	0	0	590	387	1021	463	0	0	
0	0	0	0	0	548	380	1021	444	0	0	
1	0	0	0	0	507	384	1021	424	0	0	
2	0	0	0	0	467	398	1021	407	0	0	
3	0	0	0	0	433	420	1021	395	0	0	
4	0	0	0	0	409	450	1021	388	0	0	
5	0	0	0	0	398	483	1021	387	0	0	
6	0	0	0	0	400	517	1021	393	0	0	
7	0	0	0	0	416	547	1021	405	0	0	
8	0	0	0	0	444	572	1021	421	0	0	
9	0	0	0	0	480	588	1021	440	0	0	
10	0	0	0	0	519	594	1020	460	0	0	
11	0	0	0	0	562	589	1021	479	0	0	
12	0	0	0	0	601	575	1021	496	0	0	
13	0	0	0	0	633	551	1021	508	0	0	
14	0	0	0	0	656	521	1021	514	0	0	
15	0	0	0	0	666	487	1021	514	0	0	
0	0	0	0	0	663	453	1021	508	0	0	
1	0	0	0	0	647	422	1021	496	0	0	
2	0	0	0	0	621	397	1021	481	0	0	
3	0	0	0	0	585	380	1021	462	0	0	
4	0	0	0	0	544	373	1020	441	0	0	
5	0	0	0	0	502	376	1021	423	0	0	
6	0	0	0	0	462	390	1021	406	0	0	
7	0	0	0	0	429	413	1021	393	0	0	
8	0	0	0	0	406	443	1021	386	0	0	
9	0	0	0	0	395	476	1021	385	0	0	
10	0	0	0	0	397	510	1020	391	0	0	
11	0	0	0	0	414	541	1021	402	0	0	
12	0	0	0	0	441	566	1021	418	0	0	
13	0	0	0	0	476	582	1021	436	0	0	
14	0	0	0	0	516	588	1021	455	0	0	
15	0	0	0	0	558	584	1021	474	0	0	
0	0	0	0	0	596	570	1021	489	0	0	
1	0	0	0	0	628	547	1021	502	0	0	
2	0	0	0	0	649	517	1021	507	0	0	
3	0	0	0	0	660	484	1021	507	0	0	
4	0	0	0	0	656	450	1021	500	0	0	
5	0	0	0	0	640	419	1021	488	0	0	
6	0	0	0	0	613	394	1021	472	0	0	
7	0	0	0	0	577	377	1021	453	0	0	
8	0	0	0	0	537	370	1021	433	0	0	
9	0	0	0	0	495	373	1021	414	0	0	
10	0	0	0	0	456	386	1021	397	0	0	
11	0	0	0	0	423	409	1021	386	0	0	
12	0	0	0	0	401	439	1021	379	0	0	
13	0	0	0	0	391	472	1021	379	0	0	
14	0	0	0	0	393	505	1021	385	0	0	
15	0	0	0	0	410	536	1021	396	0	0	
0	0	0	0	0	437	560	1021	412	0	0	
1	0	0	0	0	473	576	1021	432	0	0	
2	0	0	0	0	513	583	1021	451	0	0	
3	0	0	0	0	555	579	1021	471	0	0	
4	0	0	0	0	594	565	1021	487	0	0	
5	0	0	0	0	626	542	1021	499	0	0	
6	0	0	0	0	649	513	1021	506	0	0	
7	0	0	0	0	659	480	1021	507	0	0	
8	0	0	0	0	656	447	1021	501	0	0	
9	0	0	0	0	641	416	1021	489	0	0	
10	0	0	0	0	614	391	1021	473	0	0	
11	0	0	0	0	579	375	1021	455	0	0	
12	0	0	0	0	539	368	1020	435	0	0	
13	0	0	0	0	496	371	1020	415	0	0	
14	0	0	0	0	457	384	1021	398	0	0	
15	0	0	0	0	424	405	1021	384	0	0	
0	0	0	0	0	401	434	1021	377	0	0	
1	0	0	0	0	389	466	1021	375	0	0	
2	0	0	0	0	391	499	1021	380	0	0	
3	0	0	0	0	406	529	1021	390	0	0	
4	0	0	0	0	432	552	1021	405	0	0	
5	0	0	0	0	467	568	1021	423	0	0	
6	0	0	0	0	506	574	1021	441	0	0	
7	0	0	0	0	546	569	1021	460	0	0	
8	0	0	0	0	585	555	1021	476	0	0	
9	0	0	0	0	616	532	1021	487	0	0	
10	0	0	0	0	639	502	1021	494	0	0	
11	0	0	0	0	647	467	1020	494	0	0	
12	0	0	0	0	644	433	1020	487	0	0	
13	0	0	0	0	628	401	1021	476	0	0	
14	0	0	0	0	600	374	1021	459	0	0	
15	0	0	0	0	564	356	1021	440	0	0	
0	0	0	0	0	523	348	1021	419	0	0	
1	0	0	0	0	480	349	1020	399	0	0	
2	0	0	0	0	440	361	1021	382	0	0	
3	0	0	0	0	406	383	1021	369	0	0	
4	0	0	0	0	383	413	1021	362	0	0	
5	0	0	0	0	372	447	1021	361	0	0	
6	0	0	0	0	374	482	1021	367	0	0	
7	0	0	0	0	390	514	1021	379	0	0	
8	0	0	0	0	417	540	1021	396	0	0	
9	0	0	0	0	455	558	1021	416	0	0	
10	0	0	0	0	496	567	1021	437	0	0	
11	0	0	0	0	539	564	1020	457	0	0	
12	0	0	0	0	580	551	1021	475	0	0	
13	0	0	0	0	614	530	1021	489	0	0	
14	0	0	0	0	639	502	1021	496	0	0	
15	0	0	0	0	651	468	1021	498	0	0	
0	0	0	0	0	650	436	1021	492	0	0	
1	0	0	0	0	636	405	1021	482	0	0	
2	0	0	0	0	609	380	1021	467	0	0	
3	0	0	0	0	575	364	1021	448	0	0	
4	0	0	0	0	535	356	1021	429	0	0	
5	0	0	0	0	493	359	1021	409	0	0	
6	0	0	0	0	454	373	1021	392	0	0	
7	0	0	0	0	419	395	1021	380	0	0	
8	0	0	0	0	396	425	1021	373	0	0	
9	0	0	0	0	384	459	1021	372	0	0	
10	0	0	0	0	384	492	1020	377	0	0	
11	0	0	0	0	399	524	1021	388	0	0	
12	0	0	0	0	425	549	1021	404	0	0	
13	0	0	0	0	460	567	1021	423	0	0	
14	0	0	0	0	501	574	1021	444	0	0	
15	0	0	0	0	543	571	1020	463	0	0	
0	0	0	0	0	584	559	1021	481	0	0	
1	0	0	0	0	619	537	1021	495	0	0	
2	0	0	0	0	643	508	1021	504	0	0	
3	0	0	0	0	656	475	1021	506	0	0	
4	0	0	0	0	656	442	1021	502	0	0	
5	0	0	0	0	643	412	1021	492	0	0	
6	0	0	0	0	619	387	1021	478	0	0	
7	0	0	0	0	585	370	1021	460	0	0	
8	0	0	0	0	545	363	1021	440	0	0	
9	0	0	0	0	503	367	1021	422	0	0	
10	0	0	0	0	464	380	1021	406	0	0	
11	0	0	0	0	430	403	1021	393	0	0	
12	0	0	0	0	406	434	1021	386	0	0	
13	0	0	0	0	393	468	1021	384	0	0	
14	0	0	0	0	394	503	1020	389	0	0	
15	0	0	0	0	408	535	1021	399	0	0	
0	0	0	0	0	434	560	1021	414	0	0	
1	0	0	0	0	468	577	1021	432	0	0	
2	0	0	0	0	507	584	1020	451	0	0	
3	0	0	0	0	549	581	1021	468	0	0	
4	0	0	0	0	588	567	1021	484	0	0	
5	0	0	0	0	621	544	1021	496	0	0	
6	0	0	0	0	644	514	1020	502	0	0	
7	0	0	0	0	655	480	1021	503	0	0	
8	0	0	0	0	654	445	1021	497	0	0	
9	0	0	0	0	639	413	1021	486	0	0	
10	0	0	0	0	614	387	1021	471	0	0	
11	0	0	0	0	579	368	1021	453	0	0	
12	0	0	0	0	539	359	1021	434	0	0	
13	0	0	0	0	496	361	1020	415	0	0	
14	0	0	0	0	457	374	1021	398	0	0	
15	0	0	0	0	423	396	1021	386	0	0	
0	0	0	0	0	399	424	1021	379	0	0	
1	0	0	0	0	387	459	1020	379	0	0	
2	0	0	0	0	388	493	1020	384	0	0	
3	0	0	0	0	403	525	1021	396	0	0	
4	0	0	0	0	430	551	1021	411	0	0	
5	0	0	0	0	464	569	1021	430	0	0	
6	0	0	0	0	504	577	1021	449	0	0	
7	0	0	0	0	544	575	1021	467	0	0	
8	0	0	0	0	584	563	1021	483	0	0	
9	0	0	0	0	617	542	1021	495	0	0	
10	0	0	0	0	640	514	1021	502	0	0	
11	0	0	0	0	652	481	1021	502	0	0	
12	0	0	0	0	651	448	1021	496	0	0	
13	0	0	0	0	637	417	1021	486	0	0	
14	0	0	0	0	612	391	1021	471	0	0	
15	0	0	0	0	579	374	1021	453	0	0	
0	0	0	0	0	540	366	1021	435	0	0	
1	0	0	0	0	499	368	1021	416	0	0	
2	0	0	0	0	461	381	1021	401	0	0	
3	0	0	0	0	430	403	1021	390	0	0	
4	0	0	0	0	408	433	1020	384	0	0	
5	0	0	0	0	398	466	1021	386	0	0	
6	0	0	0	0	401	501	1021	392	0	0	
7	0	0	0	0	417	532	1021	405	0	0	
8	0	0	0	0	444	557	1021	421	0	0	
9	0	0	0	0	479	573	1021	440	0	0	
10	0	0	0	0	519	579	1021	460	0	0	
11	0	0	0	0	558	574	1020	477	0	0	
12	0	0	0	0	595	558	1021	492	0	0	
13	0	0	0	0	624	533	1021	501	0	0	
14	0	0	0	0	643	500	1021	504	0	0	
15	0	0	0	0	648	462	1021	499	0	0	
0	0	0	0	0	639	423	1021	488	0	0	
1	0	0	0	0	618	387	1021	470	0	0	
2	0	0	0	0	585	355	1021	447	0	0	
3	0	0	0	0	542	331	1021	420	0	0	
4	0	0	0	0	494	315	1020	391	0	0	
5	0	0	0	0	443	309	1020	364	0	0	
6	0	0	0	0	395	314	1021	337	0	0	
7	0	0	0	0	353	327	1021	316	0	0	
8	0	0	0	0	321	349	1021	300	0	0	
9	0	0	0	0	302	375	1021	291	0	0	
10	0	0	0	0	295	401	1021	288	0	0	
11	0	0	0	0	301	426	1021	291	0	0	
12	0	0	0	0	319	445	1021	298	0	0	
13	0	0	0	0	347	455	1021	309	0	0	
14	0	0	0	0	379	455	1021	321	0	0	
15	0	0	0	0	413	446	1021	331	0	0	
0	0	0	0	0	445	425	1021	340	0	0	
1	0	0	0	0	470	394	1021	344	0	0	
2	0	0	0	0	485	357	1021	343	0	0	
3	0	0	0	0	489	316	1021	336	0	0	
4	0	0	0	0	480	275	1021	323	0	0	
5	0	0	0	0	461	237	1021	307	0	0	
6	0	0	0	0	432	206	1021	289	0	0	
7	0	0	0	0	397	185	1021	270	0	0	
8	0	0	0	0	359	176	1021	252	0	0	
9	0	0	0	0	324	180	1020	240	0	0	
10	0	0	0	0	294	198	1021	231	0	0	
11	0	0	0	0	273	229	1021	230	0	0	
12	0	0	0	0	264	271	1021	236	0	0	
13	0	0	0	0	269	320	1021	252	0	0	
14	0	0	0	0	288	374	1020	275	0	0	
15	0	0	0	0	323	427	1021	305	0	0	
0	0	0	0	0	369	476	1021	341	0	0	
1	0	0	0	0	425	515	1021	380	0	0	
2	0	0	0	0	484	544	1020	419	0	0	
3	0	0	0	0	544	561	1020	455	0	0	
4	0	0	0	0	600	566	1021	488	0	0	
5	0	0	0	0	646	557	1021	514	0	0	
6	0	0	0	0	679	538	1021	531	0	0	
7	0	0	0	0	697	511	1021	540	0	0	
8	0	0	0	0	700	481	1021	540	0	0	
9	0	0	0	0	686	450	1021	531	0	0	
10	0	0	0	0	659	423	1021	516	0	0	
11	0	0	0	0	620	401	1021	496	0	0	
12	0	0	0	0	574	388	1021	473	0	0	
13	0	0	0	0	525	385	1020	451	0	0	
14	0	0	0	0	480	393	1021	430	0	0	
15	0	0	0	0	440	412	1021	413	0	0	
0	0	0	0	0	411	439	1021	402	0	0	
1	0	0	0	0	396	472	1021	397	0	0	
2	0	0	0	0	395	508	1021	400	0	0	
3	0	0	0	0	409	544	1021	409	0	0	
4	0	0	0	0	436	575	1021	424	0	0	
5	0	0	0	0	473	598	1021	443	0	0	
6	0	0	0	0	517	612	1020	463	0	0	
7	0	0	0	0	564	615	1020	484	0	0	
8	0	0	0	0	609	609	1021	503	0	0	
9	0	0	0	0	648	591	1021	519	0	0	
10	0	0	0	0	678	564	1021	529	0	0	
11	0	0	0	0	694	531	1021	534	0	0	
12	0	0	0	0	698	496	1021	531	0	0	
13	0	0	0	0	688	460	1021	524	0	0	
14	0	0	0	0	664	429	1021	510	0	0	
15	0	0	0	0	631	405	1021	494	0	0	
0	0	0	0	0	591	390	1021	475	0	0	
1	0	0	0	0	548	386	1021	456	0	0	
2	0	0	0	0	506	393	1021	440	0	0	
3	0	0	0	0	470	412	1021	426	0	0	
4	0	0	0	0	443	440	1021	419	0	0	
5	0	0	0	0	428	475	1021	416	0	0	
6	0	0	0	0	427	513	1021	420	0	0	
7	0	0	0	0	440	551	1021	431	0	0	
8	0	0	0	0	464	585	1021	445	0	0	
9	0	0	0	0	498	610	1021	463	0	0	
10	0	0	0	0	538	627	1021	483	0	0	
11	0	0	0	0	580	632	1021	502	0	0	
12	0	0	0	0	621	625	1021	519	0	0	
13	0	0	0	0	655	608	1021	532	0	0	
14	0	0	0	0	680	580	1021	540	0	0	
15	0	0	0	0	694	545	1021	543	0	0	
0	0	0	0	0	696	508	1021	539	0	0	
1	0	0	0	0	684	470	1021	530	0	0	
2	0	0	0	0	659	437	1021	516	0	0	
3	0	0	0	0	627	411	1021	500	0	0	
4	0	0	0	0	587	395	1021	482	0	0	
5	0	0	0	0	546	390	1021	464	0	0	
6	0	0	0	0	505	396	1021	448	0	0	
7	0	0	0	0	470	413	1021	435	0	0	
