# OpenSignals Text File Format. Version 1
# {"": {"position": 0, "device": "", "device name": "", "device connection": "", "sampling rate": 1000, "resolution": [4, 1, 1, 1, 1, 10, 10, 10, 10, 6, 6], "firmware version": 1281, "comments": "", "keywords": "", "mode": 0, "sync interval": 2, "date": "", "time": "", "channels": [1, 2, 3, 4, 5, 6], "sensor": ["RAW", "RAW", "RAW", "RAW", "RAW", "RAW"], "label": ["A1", "A2", "A3", "A4", "A5", "A6"], "column": ["nSeq", "I1", "I2", "O1", "O2", "A1", "A2", "A3", "A4", "A5", "A6"], "special": [{}, {}, {}, {}, {}, {}], "digital IO": [0, 0, 1, 1], "convertedValues": 0}}
# EndOfHeader
0	0	0	0	0	603	419	1020	490	0	0	
1	0	0	0	0	574	410	1021	473	0	0	
2	0	0	0	0	544	409	1021	455	0	0	
3	0	0	0	0	517	419	1021	440	0	0	
4	0	0	0	0	495	435	1021	429	0	0	
5	0	0	0	0	479	460	1021	423	0	0	
6	0	0	0	0	472	488	1021	423	0	0	
7	0	0	0	0	475	519	1021	427	0	0	
8	0	0	0	0	487	547	1021	438	0	0	
9	0	0	0	0	507	572	1021	451	0	0	
10	0	0	0	0	532	589	1021	468	0	0	
11	0	0	0	0	560	598	1021	486	0	0	
12	0	0	0	0	588	599	1021	502	0	0	
13	0	0	0	0	615	591	1021	516	0	0	
14	0	0	0	0	636	574	1021	528	0	0	
15	0	0	0	0	651	550	1021	534	0	0	
0	0	0	0	0	657	523	1021	534	0	0	
1	0	0	0	0	655	493	1021	530	0	0	
2	0	0	0	0	644	465	1021	521	0	0	
3	0	0	0	0	625	442	1021	507	0	0	
4	0	0	0	0	601	424	1021	492	0	0	
5	0	0	0	0	573	415	1021	476	0	0	
6	0	0	0	0	545	415	1021	460	0	0	
7	0	0	0	0	519	424	1021	446	0	0	
8	0	0	0	0	497	441	1021	436	0	0	
9	0	0	0	0	481	465	1021	430	0	0	
10	0	0	0	0	475	493	1021	429	0	0	
11	0	0	0	0	477	524	1021	433	0	0	
12	0	0	0	0	489	551	1021	443	0	0	
13	0	0	0	0	508	575	1021	455	0	0	
14	0	0	0	0	531	591	1021	471	0	0	
15	0	0	0	0	559	600	1021	488	0	0	
0	0	0	0	0	587	600	1021	503	0	0	
1	0	0	0	0	612	591	1021	517	0	0	
2	0	0	0	0	633	574	1021	527	0	0	
3	0	0	0	0	648	550	1021	532	0	0	
4	0	0	0	0	655	521	1021	533	0	0	
5	0	0	0	0	652	491	1021	527	0	0	
6	0	0	0	0	641	463	1021	518	0	0	
7	0	0	0	0	622	439	1021	504	0	0	
8	0	0	0	0	599	422	1021	488	0	0	
9	0	0	0	0	572	412	1021	472	0	0	
10	0	0	0	0	543	412	1021	455	0	0	
11	0	0	0	0	517	420	1021	441	0	0	
12	0	0	0	0	495	437	1021	431	0	0	
13	0	0	0	0	480	461	1021	424	0	0	
14	0	0	0	0	474	489	1021	424	0	0	
15	0	0	0	0	477	519	1021	430	0	0	
0	0	0	0	0	488	548	1021	440	0	0	
1	0	0	0	0	507	572	1021	453	0	0	
2	0	0	0	0	531	589	1021	470	0	0	
3	0	0	0	0	558	598	1021	487	0	0	
4	0	0	0	0	585	598	1021	503	0	0	
5	0	0	0	0	610	589	1021	516	0	0	
6	0	0	0	0	631	572	1021	526	0	0	
7	0	0	0	0	644	547	1021	531	0	0	
8	0	0	0	0	649	518	1021	531	0	0	
9	0	0	0	0	647	487	1021	525	0	0	
10	0	0	0	0	635	458	1021	515	0	0	
11	0	0	0	0	616	434	1021	501	0	0	
12	0	0	0	0	593	416	1021	485	0	0	
13	0	0	0	0	566	407	1021	468	0	0	
14	0	0	0	0	539	407	1021	452	0	0	
15	0	0	0	0	513	416	1021	439	0	0	
0	0	0	0	0	493	433	1021	429	0	0	
1	0	0	0	0	479	458	1021	423	0	0	
2	0	0	0	0	473	487	1021	424	0	0	
3	0	0	0	0	477	518	1021	430	0	0	
4	0	0	0	0	488	547	1021	440	0	0	
5	0	0	0	0	508	572	1021	454	0	0	
6	0	0	0	0	532	590	1021	470	0	0	
7	0	0	0	0	558	599	1021	486	0	0	
8	0	0	0	0	585	599	1021	502	0	0	
9	0	0	0	0	609	591	1021	515	0	0	
10	0	0	0	0	630	574	1021	525	0	0	
11	0	0	0	0	643	549	1021	531	0	0	
12	0	0	0	0	648	520	1021	531	0	0	
13	0	0	0	0	645	490	1021	526	0	0	
14	0	0	0	0	633	461	1021	516	0	0	
15	0	0	0	0	615	437	1021	502	0	0	
0	0	0	0	0	591	419	1021	487	0	0	
1	0	0	0	0	564	409	1021	470	0	0	
2	0	0	0	0	537	408	1021	454	0	0	
3	0	0	0	0	512	416	1021	440	0	0	
4	0	0	0	0	493	433	1021	429	0	0	
5	0	0	0	0	479	456	1021	423	0	0	
6	0	0	0	0	475	485	1021	422	0	0	
7	0	0	0	0	479	515	1021	426	0	0	
8	0	0	0	0	491	544	1021	435	0	0	
9	0	0	0	0	510	568	1021	448	0	0	
10	0	0	0	0	534	584	1021	463	0	0	
11	0	0	0	0	560	593	1021	479	0	0	
12	0	0	0	0	587	592	1021	493	0	0	
13	0	0	0	0	610	583	1021	506	0	0	
14	0	0	0	0	629	565	1021	515	0	0	
15	0	0	0	0	640	540	1021	519	0	0	
0	0	0	0	0	644	511	1021	519	0	0	
1	0	0	0	0	640	480	1021	513	0	0	
2	0	0	0	0	627	451	1021	503	0	0	
3	0	0	0	0	607	427	1021	489	0	0	
4	0	0	0	0	582	409	1021	473	0	0	
5	0	0	0	0	555	400	1021	458	0	0	
6	0	0	0	0	527	399	1021	441	0	0	
7	0	0	0	0	502	408	1021	428	0	0	
8	0	0	0	0	481	424	1021	419	0	0	
9	0	0	0	0	467	448	1021	414	0	0	
10	0	0	0	0	462	477	1021	415	0	0	
11	0	0	0	0	465	508	1021	420	0	0	
12	0	0	0	0	477	536	1021	431	0	0	
13	0	0	0	0	497	560	1021	444	0	0	
14	0	0	0	0	521	577	1021	460	0	0	
15	0	0	0	0	548	587	1021	477	0	0	
0	0	0	0	0	575	587	1021	493	0	0	
1	0	0	0	0	599	578	1021	506	0	0	
2	0	0	0	0	619	561	1021	516	0	0	
3	0	0	0	0	632	537	1021	520	0	0	
4	0	0	0	0	638	508	1021	520	0	0	
5	0	0	0	0	634	478	1021	514	0	0	
6	0	0	0	0	623	450	1021	503	0	0	
7	0	0	0	0	604	425	1021	489	0	0	
8	0	0	0	0	581	408	1021	473	0	0	
9	0	0	0	0	555	398	1021	456	0	0	
10	0	0	0	0	528	397	1021	440	0	0	
11	0	0	0	0	504	406	1021	425	0	0	
12	0	0	0	0	484	422	1021	415	0	0	
13	0	0	0	0	471	446	1021	409	0	0	
14	0	0	0	0	466	475	1021	410	0	0	
15	0	0	0	0	470	505	1021	415	0	0	
0	0	0	0	0	481	533	1021	425	0	0	
1	0	0	0	0	499	557	1021	439	0	0	
2	0	0	0	0	523	575	1021	454	0	0	
3	0	0	0	0	549	584	1021	471	0	0	
4	0	0	0	0	575	584	1021	487	0	0	
5	0	0	0	0	598	575	1021	500	0	0	
6	0	0	0	0	617	559	1021	509	0	0	
7	0	0	0	0	630	535	1021	514	0	0	
8	0	0	0	0	635	507	1021	515	0	0	
9	0	0	0	0	631	478	1021	508	0	0	
10	0	0	0	0	620	449	1021	498	0	0	
11	0	0	0	0	601	426	1021	484	0	0	
12	0	0	0	0	578	409	1021	468	0	0	
13	0	0	0	0	552	399	1021	452	0	0	
14	0	0	0	0	525	399	1021	436	0	0	
15	0	0	0	0	500	408	1021	423	0	0	
0	0	0	0	0	481	425	1021	413	0	0	
1	0	0	0	0	467	448	1021	408	0	0	
2	0	0	0	0	461	476	1021	408	0	0	
3	0	0	0	0	464	505	1021	412	0	0	
4	0	0	0	0	476	533	1021	422	0	0	
5	0	0	0	0	494	556	1021	435	0	0	
6	0	0	0	0	516	572	1021	449	0	0	
7	0	0	0	0	542	581	1021	465	0	0	
8	0	0	0	0	568	580	1021	480	0	0	
9	0	0	0	0	592	571	1021	492	0	0	
10	0	0	0	0	611	553	1021	502	0	0	
11	0	0	0	0	624	529	1021	506	0	0	
12	0	0	0	0	630	502	1021	506	0	0	
13	0	0	0	0	627	472	1021	501	0	0	
14	0	0	0	0	616	445	1021	492	0	0	
15	0	0	0	0	599	422	1021	480	0	0	
0	0	0	0	0	576	405	1021	465	0	0	
1	0	0	0	0	551	397	1021	451	0	0	
2	0	0	0	0	526	398	1021	437	0	0	
3	0	0	0	0	502	408	1021	425	0	0	
4	0	0	0	0	483	426	1021	416	0	0	
5	0	0	0	0	471	451	1020	412	0	0	
6	0	0	0	0	466	480	1021	413	0	0	
7	0	0	0	0	470	510	1021	418	0	0	
8	0	0	0	0	481	538	1021	428	0	0	
9	0	0	0	0	500	561	1021	440	0	0	
10	0	0	0	0	524	577	1021	455	0	0	
11	0	0	0	0	550	585	1021	472	0	0	
12	0	0	0	0	575	584	1021	486	0	0	
13	0	0	0	0	599	575	1021	499	0	0	
14	0	0	0	0	618	556	1021	508	0	0	
15	0	0	0	0	630	532	1021	512	0	0	
0	0	0	0	0	634	503	1021	513	0	0	
1	0	0	0	0	631	473	1021	507	0	0	
2	0	0	0	0	619	444	1021	497	0	0	
3	0	0	0	0	600	420	1021	484	0	0	
4	0	0	0	0	577	402	1021	468	0	0	
5	0	0	0	0	551	393	1021	453	0	0	
6	0	0	0	0	524	393	1021	438	0	0	
7	0	0	0	0	500	401	1021	424	0	0	
8	0	0	0	0	480	418	1021	414	0	0	
9	0	0	0	0	467	442	1021	408	0	0	
10	0	0	0	0	461	471	1021	408	0	0	
11	0	0	0	0	464	500	1021	413	0	0	
12	0	0	0	0	475	528	1021	422	0	0	
13	0	0	0	0	493	551	1021	435	0	0	
14	0	0	0	0	516	568	1020	450	0	0	
15	0	0	0	0	542	577	1021	467	0	0	
0	0	0	0	0	568	577	1021	482	0	0	
1	0	0	0	0	592	568	1021	496	0	0	
2	0	0	0	0	611	551	1021	505	0	0	
3	0	0	0	0	624	528	1021	510	0	0	
4	0	0	0	0	629	500	1021	510	0	0	
5	0	0	0	0	625	470	1021	504	0	0	
6	0	0	0	0	613	441	1021	492	0	0	
7	0	0	0	0	594	416	1021	478	0	0	
8	0	0	0	0	571	398	1021	461	0	0	
9	0	0	0	0	543	388	1021	444	0	0	
10	0	0	0	0	516	387	1021	427	0	0	
11	0	0	0	0	492	395	1021	413	0	0	
12	0	0	0	0	472	411	1021	403	0	0	
13	0	0	0	0	459	435	1021	398	0	0	
14	0	0	0	0	455	464	1021	399	0	0	
15	0	0	0	0	459	494	1021	405	0	0	
0	0	0	0	0	472	524	1021	415	0	0	
1	0	0	0	0	491	548	1021	430	0	0	
2	0	0	0	0	515	566	1021	446	0	0	
3	0	0	0	0	542	576	1021	463	0	0	
4	0	0	0	0	569	578	1021	479	0	0	
5	0	0	0	0	593	570	1021	493	0	0	
6	0	0	0	0	614	553	1021	503	0	0	
7	0	0	0	0	627	531	1021	508	0	0	
8	0	0	0	0	633	504	1021	510	0	0	
9	0	0	0	0	631	474	1021	505	0	0	
10	0	0	0	0	621	447	1021	496	0	0	
11	0	0	0	0	603	423	1021	484	0	0	
12	0	0	0	0	580	406	1021	468	0	0	
13	0	0	0	0	555	396	1021	453	0	0	
14	0	0	0	0	528	395	1021	438	0	0	
15	0	0	0	0	504	403	1021	424	0	0	
0	0	0	0	0	483	419	1021	414	0	0	
1	0	0	0	0	468	441	1020	409	0	0	
2	0	0	0	0	462	468	1021	408	0	0	
3	0	0	0	0	464	497	1021	413	0	0	
4	0	0	0	0	474	525	1021	422	0	0	
5	0	0	0	0	492	547	1021	435	0	0	
6	0	0	0	0	514	564	1021	450	0	0	
7	0	0	0	0	540	574	1021	467	0	0	
8	0	0	0	0	567	575	1021	482	0	0	
9	0	0	0	0	592	567	1021	496	0	0	
10	0	0	0	0	613	551	1021	506	0	0	
11	0	0	0	0	628	529	1021	511	0	0	
12	0	0	0	0	636	502	1021	512	0	0	
13	0	0	0	0	635	474	1021	507	0	0	
14	0	0	0	0	625	448	1021	498	0	0	
15	0	0	0	0	608	425	1021	485	0	0	
0	0	0	0	0	587	408	1021	470	0	0	
1	0	0	0	0	562	400	1021	455	0	0	
2	0	0	0	0	536	400	1021	440	0	0	
3	0	0	0	0	511	409	1021	427	0	0	
4	0	0	0	0	491	425	1021	417	0	0	
5	0	0	0	0	476	448	1021	412	0	0	
6	0	0	0	0	469	475	1021	412	0	0	
7	0	0	0	0	470	503	1021	416	0	0	
8	0	0	0	0	479	530	1021	424	0	0	
9	0	0	0	0	495	551	1021	437	0	0	
10	0	0	0	0	516	567	1021	451	0	0	
11	0	0	0	0	541	574	1021	467	0	0	
12	0	0	0	0	566	573	1021	481	0	0	
13	0	0	0	0	589	564	1021	495	0	0	
14	0	0	0	0	608	547	1021	504	0	0	
15	0	0	0	0	622	525	1021	510	0	0	
0	0	0	0	0	628	498	1021	511	0	0	
1	0	0	0	0	627	471	1021	507	0	0	
2	0	0	0	0	619	445	1021	499	0	0	
3	0	0	0	0	603	423	1021	487	0	0	
4	0	0	0	0	582	407	1021	473	0	0	
5	0	0	0	0	558	399	1021	458	0	0	
6	0	0	0	0	533	399	1021	443	0	0	
7	0	0	0	0	510	409	1021	430	0	0	
8	0	0	0	0	490	425	1021	420	0	0	
9	0	0	0	0	476	448	1021	415	0	0	
10	0	0	0	0	471	476	1021	415	0	0	
11	0	0	0	0	472	504	1021	419	0	0	
12	0	0	0	0	483	532	1021	429	0	0	
13	0	0	0	0	500	555	1021	442	0	0	
14	0	0	0	0	523	572	1021	456	0	0	
15	0	0	0	0	548	582	1021	473	0	0	
0	0	0	0	0	574	582	1021	488	0	0	
1	0	0	0	0	597	574	1021	502	0	0	
2	0	0	0	0	618	559	1021	512	0	0	
3	0	0	0	0	632	536	1021	518	0	0	
4	0	0	0	0	638	510	1021	519	0	0	
5	0	0	0	0	636	481	1021	514	0	0	
6	0	0	0	0	626	454	1021	504	0	0	
7	0	0	0	0	609	431	1021	492	0	0	
8	0	0	0	0	586	414	1021	476	0	0	
9	0	0	0	0	560	405	1021	460	0	0	
10	0	0	0	0	534	404	1021	444	0	0	
11	0	0	0	0	509	412	1021	430	0	0	
12	0	0	0	0	488	428	1021	420	0	0	
13	0	0	0	0	474	451	1021	414	0	0	
14	0	0	0	0	467	478	1021	414	0	0	
15	0	0	0	0	470	506	1021	418	0	0	
0	0	0	0	0	480	534	1021	428	0	0	
1	0	0	0	0	497	556	1021	441	0	0	
2	0	0	0	0	520	573	1021	455	0	0	
3	0	0	0	0	546	581	1021	472	0	0	
4	0	0	0	0	572	581	1021	486	0	0	
5	0	0	0	0	596	573	1021	499	0	0	
6	0	0	0	0	616	556	1021	509	0	0	
7	0	0	0	0	630	533	1021	514	0	0	
8	0	0	0	0	636	506	1021	515	0	0	
9	0	0	0	0	634	477	1021	510	0	0	
10	0	0	0	0	623	450	1021	500	0	0	
11	0	0	0	0	606	426	1021	487	0	0	
12	0	0	0	0	583	409	1021	472	0	0	
13	0	0	0	0	557	400	1021	456	0	0	
14	0	0	0	0	529	399	1021	440	0	0	
15	0	0	0	0	504	407	1021	426	0	0	
0	0	0	0	0	483	423	1021	415	0	0	
1	0	0	0	0	468	445	1021	409	0	0	
2	0	0	0	0	461	472	1021	408	0	0	
3	0	0	0	0	462	500	1021	412	0	0	
4	0	0	0	0	472	527	1021	420	0	0	
5	0	0	0	0	488	550	1021	432	0	0	
6	0	0	0	0	509	566	1021	447	0	0	
7	0	0	0	0	533	574	1021	462	0	0	
8	0	0	0	0	558	574	1021	477	0	0	
9	0	0	0	0	581	566	1021	489	0	0	
10	0	0	0	0	600	550	1021	498	0	0	
11	0	0	0	0	613	526	1021	504	0	0	
12	0	0	0	0	619	499	1021	504	0	0	
13	0	0	0	0	616	471	1021	499	0	0	
14	0	0	0	0	607	443	1021	490	0	0	
15	0	0	0	0	590	420	1021	477	0	0	
0	0	0	0	0	568	403	1021	463	0	0	
1	0	0	0	0	544	393	1021	448	0	0	
2	0	0	0	0	519	393	1021	433	0	0	
3	0	0	0	0	497	401	1021	421	0	0	
4	0	0	0	0	478	417	1021	411	0	0	
5	0	0	0	0	465	440	1021	407	0	0	
6	0	0	0	0	460	467	1021	407	0	0	
7	0	0	0	0	463	496	1021	412	0	0	
8	0	0	0	0	473	523	1021	421	0	0	
9	0	0	0	0	490	546	1021	433	0	0	
10	0	0	0	0	512	563	1021	448	0	0	
11	0	0	0	0	537	572	1021	464	0	0	
12	0	0	0	0	562	572	1021	479	0	0	
13	0	0	0	0	584	563	1021	492	0	0	
14	0	0	0	0	603	547	1021	501	0	0	
15	0	0	0	0	615	524	1021	505	0	0	
0	0	0	0	0	621	498	1021	506	0	0	
1	0	0	0	0	618	470	1021	500	0	0	
2	0	0	0	0	607	443	1021	490	0	0	
3	0	0	0	0	590	419	1021	477	0	0	
4	0	0	0	0	568	402	1021	462	0	0	
5	0	0	0	0	542	392	1021	447	0	0	
6	0	0	0	0	516	391	1021	431	0	0	
7	0	0	0	0	492	399	1021	418	0	0	
8	0	0	0	0	472	414	1021	408	0	0	
9	0	0	0	0	459	436	1021	402	0	0	
10	0	0	0	0	453	464	1021	402	0	0	
11	0	0	0	0	456	493	1021	407	0	0	
12	0	0	0	0	467	521	1021	417	0	0	
13	0	0	0	0	485	544	1021	431	0	0	
14	0	0	0	0	508	562	1021	446	0	0	
15	0	0	0	0	534	572	1021	463	0	0	
0	0	0	0	0	561	574	1021	480	0	0	
1	0	0	0	0	586	566	1021	495	0	0	
2	0	0	0	0	606	551	1021	505	0	0	
3	0	0	0	0	620	528	1021	511	0	0	
4	0	0	0	0	627	501	1021	513	0	0	
5	0	0	0	0	625	472	1021	509	0	0	
6	0	0	0	0	615	445	1021	500	0	0	
7	0	0	0	0	598	421	1021	488	0	0	
8	0	0	0	0	575	403	1021	472	0	0	
9	0	0	0	0	549	393	1021	456	0	0	
10	0	0	0	0	522	391	1021	440	0	0	
11	0	0	0	0	497	399	1021	427	0	0	
12	0	0	0	0	476	415	1021	415	0	0	
13	0	0	0	0	462	436	1021	409	0	0	
14	0	0	0	0	454	463	1021	408	0	0	
15	0	0	0	0	455	492	1021	411	0	0	
0	0	0	0	0	465	519	1021	420	0	0	
1	0	0	0	0	481	543	1021	432	0	0	
2	0	0	0	0	503	560	1021	446	0	0	
3	0	0	0	0	528	570	1021	462	0	0	
4	0	0	0	0	554	572	1021	477	0	0	
5	0	0	0	0	579	565	1021	489	0	0	
6	0	0	0	0	599	550	1021	499	0	0	
7	0	0	0	0	614	529	1021	506	0	0	
8	0	0	0	0	621	504	1021	508	0	0	
9	0	0	0	0	621	476	1021	503	0	0	
10	0	0	0	0	612	451	1021	495	0	0	
11	0	0	0	0	597	428	1021	483	0	0	
12	0	0	0	0	576	411	1021	470	0	0	
13	0	0	0	0	552	402	1021	455	0	0	
14	0	0	0	0	527	401	1021	441	0	0	
15	0	0	0	0	504	408	1021	428	0	0	
0	0	0	0	0	483	423	1021	419	0	0	
1	0	0	0	0	469	446	1021	413	0	0	
2	0	0	0	0	462	472	1021	413	0	0	
3	0	0	0	0	463	501	1021	417	0	0	
4	0	0	0	0	472	528	1021	426	0	0	
5	0	0	0	0	487	551	1021	439	0	0	
6	0	0	0	0	509	568	1021	454	0	0	
7	0	0	0	0	533	578	1021	469	0	0	
8	0	0	0	0	558	579	1021	483	0	0	
9	0	0	0	0	581	571	1021	496	0	0	
10	0	0	0	0	600	555	1021	505	0	0	
11	0	0	0	0	613	533	1021	510	0	0	
12	0	0	0	0	619	506	1021	510	0	0	
13	0	0	0	0	617	476	1021	503	0	0	
14	0	0	0	0	607	448	1021	494	0	0	
15	0	0	0	0	591	424	1021	480	0	0	
0	0	0	0	0	569	406	1021	464	0	0	
1	0	0	0	0	544	396	1021	448	0	0	
2	0	0	0	0	519	393	1021	433	0	0	
3	0	0	0	0	495	400	1021	419	0	0	
4	0	0	0	0	475	415	1021	409	0	0	
5	0	0	0	0	460	438	1021	403	0	0	
6	0	0	0	0	453	465	1021	402	0	0	
7	0	0	0	0	455	495	1021	406	0	0	
8	0	0	0	0	465	523	1021	415	0	0	
9	0	0	0	0	482	548	1021	428	0	0	
10	0	0	0	0	504	566	1021	443	0	0	
11	0	0	0	0	529	577	1021	459	0	0	
12	0	0	0	0	555	579	1021	475	0	0	
13	0	0	0	0	579	573	1021	488	0	0	
14	0	0	0	0	600	559	1021	499	0	0	
15	0	0	0	0	614	537	1021	506	0	0	
0	0	0	0	0	620	510	1021	508	0	0	
1	0	0	0	0	619	481	1021	504	0	0	
2	0	0	0	0	609	454	1021	496	0	0	
3	0	0	0	0	592	429	1021	484	0	0	
4	0	0	0	0	569	410	1021	469	0	0	
5	0	0	0	0	543	399	1021	454	0	0	
6	0	0	0	0	517	396	1021	437	0	0	
7	0	0	0	0	492	401	1021	423	0	0	
8	0	0	0	0	470	415	1021	411	0	0	
9	0	0	0	0	455	436	1021	404	0	0	
10	0	0	0	0	448	463	1021	402	0	0	
11	0	0	0	0	449	491	1021	405	0	0	
12	0	0	0	0	459	518	1021	413	0	0	
13	0	0	0	0	476	541	1021	425	0	0	
14	0	0	0	0	499	558	1021	440	0	0	
15	0	0	0	0	524	568	1021	456	0	0	
0	0	0	0	0	551	570	1021	472	0	0	
1	0	0	0	0	577	564	1021	487	0	0	
2	0	0	0	0	599	550	1021	498	0	0	
3	0	0	0	0	614	528	1021	505	0	0	
4	0	0	0	0	623	503	1021	507	0	0	
5	0	0	0	0	623	475	1021	504	0	0	
6	0	0	0	0	614	448	1021	496	0	0	
7	0	0	0	0	598	425	1021	483	0	0	
8	0	0	0	0	576	408	1021	468	0	0	
9	0	0	0	0	551	398	1021	453	0	0	
10	0	0	0	0	524	395	1021	437	0	0	
11	0	0	0	0	499	402	1021	423	0	0	
12	0	0	0	0	477	417	1021	412	0	0	
13	0	0	0	0	461	438	1021	406	0	0	
14	0	0	0	0	453	465	1021	404	0	0	
15	0	0	0	0	453	494	1021	408	0	0	
0	0	0	0	0	462	521	1021	417	0	0	
1	0	0	0	0	478	544	1021	430	0	0	
2	0	0	0	0	500	562	1021	445	0	0	
3	0	0	0	0	526	572	1021	462	0	0	
4	0	0	0	0	552	574	1021	478	0	0	
5	0	0	0	0	577	567	1021	492	0	0	
6	0	0	0	0	599	551	1021	503	0	0	
7	0	0	0	0	615	529	1021	509	0	0	
8	0	0	0	0	623	503	1021	511	0	0	
9	0	0	0	0	623	475	1021	507	0	0	
10	0	0	0	0	614	448	1021	499	0	0	
11	0	0	0	0	598	425	1021	487	0	0	
12	0	0	0	0	577	407	1021	472	0	0	
13	0	0	0	0	552	397	1021	457	0	0	
14	0	0	0	0	526	396	1021	441	0	0	
15	0	0	0	0	501	404	1020	428	0	0	
0	0	0	0	0	480	419	1021	418	0	0	
1	0	0	0	0	464	441	1021	411	0	0	
2	0	0	0	0	456	468	1021	409	0	0	
3	0	0	0	0	456	497	1021	413	0	0	
4	0	0	0	0	465	524	1021	421	0	0	
5	0	0	0	0	481	547	1021	433	0	0	
6	0	0	0	0	502	564	1021	447	0	0	
7	0	0	0	0	527	573	1021	463	0	0	
8	0	0	0	0	553	574	1021	478	0	0	
9	0	0	0	0	577	566	1021	491	0	0	
10	0	0	0	0	598	550	1021	501	0	0	
11	0	0	0	0	613	527	1021	507	0	0	
12	0	0	0	0	621	500	1021	508	0	0	
13	0	0	0	0	620	471	1021	503	0	0	
14	0	0	0	0	611	442	1021	494	0	0	
15	0	0	0	0	595	418	1021	481	0	0	
0	0	0	0	0	573	399	1021	466	0	0	
1	0	0	0	0	548	390	1021	451	0	0	
2	0	0	0	0	522	387	1021	435	0	0	
3	0	0	0	0	497	394	1021	422	0	0	
4	0	0	0	0	475	410	1021	411	0	0	
5	0	0	0	0	460	432	1021	405	0	0	
6	0	0	0	0	452	460	1021	405	0	0	
7	0	0	0	0	453	489	1021	409	0	0	
8	0	0	0	0	463	518	1021	418	0	0	
9	0	0	0	0	479	543	1021	431	0	0	
10	0	0	0	0	502	561	1021	446	0	0	
11	0	0	0	0	527	573	1021	463	0	0	
12	0	0	0	0	554	575	1021	479	0	0	
13	0	0	0	0	579	569	1021	493	0	0	
14	0	0	0	0	601	555	1021	505	0	0	
15	0	0	0	0	616	535	1021	512	0	0	
0	0	0	0	0	624	509	1021	514	0	0	
1	0	0	0	0	624	481	1021	511	0	0	
2	0	0	0	0	615	454	1021	503	0	0	
3	0	0	0	0	600	431	1021	491	0	0	
4	0	0	0	0	578	413	1021	476	0	0	
5	0	0	0	0	553	402	1021	461	0	0	
6	0	0	0	0	527	400	1021	445	0	0	
7	0	0	0	0	502	407	1021	431	0	0	
8	0	0	0	0	480	421	1021	420	0	0	
9	0	0	0	0	465	442	1021	413	0	0	
10	0	0	0	0	457	468	1021	412	0	0	
11	0	0	0	0	457	495	1021	414	0	0	
12	0	0	0	0	465	521	1021	422	0	0	
13	0	0	0	0	480	544	1021	432	0	0	
14	0	0	0	0	502	560	1021	446	0	0	
15	0	0	0	0	525	569	1021	460	0	0	
0	0	0	0	0	550	569	1021	474	0	0	
1	0	0	0	0	574	560	1021	487	0	0	
2	0	0	0	0	593	545	1021	495	0	0	
3	0	0	0	0	607	522	1021	500	0	0	
4	0	0	0	0	615	495	1021	502	0	0	
5	0	0	0	0	614	466	1021	497	0	0	
6	0	0	0	0	605	439	1021	489	0	0	
7	0	0	0	0	590	416	1021	477	0	0	
8	0	0	0	0	569	398	1021	463	0	0	
9	0	0	0	0	545	389	1021	449	0	0	
10	0	0	0	0	521	388	1021	433	0	0	
11	0	0	0	0	498	396	1021	420	0	0	
12	0	0	0	0	478	413	1021	410	0	0	
13	0	0	0	0	463	435	1021	404	0	0	
14	0	0	0	0	456	463	1021	404	0	0	
15	0	0	0	0	457	492	1021	407	0	0	
0	0	0	0	0	466	520	1021	415	0	0	
1	0	0	0	0	482	544	1021	427	0	0	
2	0	0	0	0	503	562	1021	441	0	0	
3	0	0	0	0	527	572	1021	456	0	0	
4	0	0	0	0	551	572	1021	470	0	0	
5	0	0	0	0	575	565	1021	483	0	0	
6	0	0	0	0	593	549	1021	494	0	0	
7	0	0	0	0	607	527	1021	499	0	0	
8	0	0	0	0	614	500	1021	501	0	0	
9	0	0	0	0	612	472	1021	496	0	0	
10	0	0	0	0	604	444	1021	488	0	0	
11	0	0	0	0	588	421	1021	477	0	0	
12	0	0	0	0	568	403	1021	463	0	0	
13	0	0	0	0	543	393	1021	449	0	0	
14	0	0	0	0	518	391	1021	434	0	0	
15	0	0	0	0	494	398	1021	421	0	0	
0	0	0	0	0	474	413	1021	410	0	0	
1	0	0	0	0	459	434	1021	403	0	0	
2	0	0	0	0	451	460	1021	401	0	0	
3	0	0	0	0	451	488	1021	404	0	0	
4	0	0	0	0	460	515	1021	412	0	0	
5	0	0	0	0	475	538	1021	423	0	0	
6	0	0	0	0	496	556	1021	437	0	0	
7	0	0	0	0	521	566	1021	453	0	0	
8	0	0	0	0	547	567	1021	468	0	0	
9	0	0	0	0	571	561	1021	482	0	0	
10	0	0	0	0	592	546	1021	494	0	0	
11	0	0	0	0	608	526	1021	500	0	0	
12	0	0	0	0	615	500	1021	504	0	0	
13	0	0	0	0	616	472	1021	501	0	0	
14	0	0	0	0	608	446	1021	494	0	0	
15	0	0	0	0	593	423	1021	483	0	0	
0	0	0	0	0	572	405	1021	469	0	0	
1	0	0	0	0	547	395	1021	454	0	0	
2	0	0	0	0	522	393	1021	439	0	0	
3	0	0	0	0	497	399	1021	425	0	0	
4	0	0	0	0	476	414	1021	414	0	0	
5	0	0	0	0	460	435	1021	406	0	0	
6	0	0	0	0	451	462	1021	404	0	0	
7	0	0	0	0	451	490	1021	406	0	0	
8	0	0	0	0	459	517	1021	413	0	0	
9	0	0	0	0	473	540	1021	424	0	0	
10	0	0	0	0	494	558	1021	438	0	0	
11	0	0	0	0	518	568	1021	453	0	0	
12	0	0	0	0	543	569	1021	467	0	0	
13	0	0	0	0	568	562	1021	481	0	0	
14	0	0	0	0	588	547	1021	491	0	0	
15	0	0	0	0	603	525	1021	497	0	0	
0	0	0	0	0	610	498	1021	499	0	0	
1	0	0	0	0	610	469	1021	495	0	0	
2	0	0	0	0	601	440	1021	487	0	0	
3	0	0	0	0	585	415	1021	475	0	0	
4	0	0	0	0	564	396	1021	460	0	0	
5	0	0	0	0	540	385	1021	444	0	0	
6	0	0	0	0	514	383	1021	428	0	0	
7	0	0	0	0	489	389	1021	414	0	0	
8	0	0	0	0	468	403	1021	404	0	0	
9	0	0	0	0	453	424	1021	397	0	0	
10	0	0	0	0	444	451	1021	395	0	0	
11	0	0	0	0	445	480	1021	399	0	0	
12	0	0	0	0	453	508	1021	408	0	0	
13	0	0	0	0	469	532	1021	420	0	0	
14	0	0	0	0	490	551	1021	435	0	0	
15	0	0	0	0	514	562	1021	451	0	0	
0	0	0	0	0	540	564	1021	467	0	0	
1	0	0	0	0	563	558	1021	480	0	0	
2	0	0	0	0	584	543	1021	491	0	0	
3	0	0	0	0	599	521	1021	497	0	0	
4	0	0	0	0	605	494	1021	497	0	0	
5	0	0	0	0	604	464	1021	493	0	0	
6	0	0	0	0	595	435	1021	483	0	0	
7	0	0	0	0	578	410	1021	470	0	0	
8	0	0	0	0	557	391	1021	455	0	0	
9	0	0	0	0	532	379	1021	439	0	0	
10	0	0	0	0	506	376	1021	423	0	0	
11	0	0	0	0	481	382	1021	409	0	0	
12	0	0	0	0	460	396	1021	399	0	0	
13	0	0	0	0	446	419	1021	393	0	0	
14	0	0	0	0	438	446	1021	392	0	0	
15	0	0	0	0	438	476	1021	396	0	0	
0	0	0	0	0	447	504	1021	405	0	0	
1	0	0	0	0	462	528	1021	417	0	0	
2	0	0	0	0	483	546	1021	432	0	0	
3	0	0	0	0	506	556	1021	447	0	0	
4	0	0	0	0	531	558	1021	462	0	0	
5	0	0	0	0	554	551	1021	475	0	0	
6	0	0	0	0	574	536	1021	485	0	0	
7	0	0	0	0	588	513	1021	491	0	0	
8	0	0	0	0	595	486	1021	492	0	0	
9	0	0	0	0	594	456	1021	487	0	0	
10	0	0	0	0	587	427	1021	479	0	0	
11	0	0	0	0	571	402	1021	467	0	0	
12	0	0	0	0	551	383	1021	453	0	0	
13	0	0	0	0	527	371	1021	438	0	0	
14	0	0	0	0	503	369	1021	423	0	0	
15	0	0	0	0	479	375	1020	409	0	0	
0	0	0	0	0	459	390	1021	399	0	0	
1	0	0	0	0	444	411	1021	393	0	0	
2	0	0	0	0	436	438	1021	391	0	0	
3	0	0	0	0	436	467	1021	394	0	0	
4	0	0	0	0	444	495	1021	401	0	0	
5	0	0	0	0	459	519	1021	413	0	0	
6	0	0	0	0	478	537	1021	426	0	0	
7	0	0	0	0	502	547	1021	441	0	0	
8	0	0	0	0	527	549	1021	456	0	0	
9	0	0	0	0	550	543	1021	468	0	0	
10	0	0	0	0	569	528	1021	479	0	0	
11	0	0	0	0	584	507	1021	486	0	0	
12	0	0	0	0	593	481	1021	487	0	0	
13	0	0	0	0	593	454	1021	485	0	0	
14	0	0	0	0	587	428	1021	478	0	0	
15	0	0	0	0	574	405	1021	467	0	0	
0	0	0	0	0	555	388	1021	453	0	0	
1	0	0	0	0	533	378	1021	439	0	0	
2	0	0	0	0	510	376	1021	423	0	0	
3	0	0	0	0	487	384	1021	410	0	0	
4	0	0	0	0	468	399	1021	399	0	0	
5	0	0	0	0	454	421	1021	393	0	0	
6	0	0	0	0	447	448	1021	391	0	0	
7	0	0	0	0	448	476	1021	395	0	0	
8	0	0	0	0	455	504	1021	403	0	0	
9	0	0	0	0	471	529	1021	415	0	0	
10	0	0	0	0	492	547	1021	430	0	0	
11	0	0	0	0	515	558	1021	447	0	0	
12	0	0	0	0	540	561	1021	463	0	0	
13	0	0	0	0	563	555	1021	477	0	0	
14	0	0	0	0	583	541	1021	489	0	0	
15	0	0	0	0	598	520	1021	496	0	0	
0	0	0	0	0	606	494	1021	499	0	0	
1	0	0	0	0	607	466	1021	496	0	0	
2	0	0	0	0	599	438	1021	489	0	0	
3	0	0	0	0	584	413	1021	477	0	0	
4	0	0	0	0	564	394	1021	463	0	0	
5	0	0	0	0	540	382	1021	447	0	0	
6	0	0	0	0	514	378	1021	431	0	0	
7	0	0	0	0	490	383	1020	416	0	0	
8	0	0	0	0	469	396	1021	405	0	0	
9	0	0	0	0	453	417	1021	397	0	0	
10	0	0	0	0	445	443	1021	395	0	0	
11	0	0	0	0	445	472	1021	398	0	0	
12	0	0	0	0	453	499	1021	407	0	0	
13	0	0	0	0	469	525	1021	419	0	0	
14	0	0	0	0	489	544	1021	434	0	0	
15	0	0	0	0	514	556	1021	451	0	0	
0	0	0	0	0	540	560	1021	467	0	0	
1	0	0	0	0	564	555	1021	482	0	0	
2	0	0	0	0	585	541	1021	494	0	0	
3	0	0	0	0	600	521	1021	501	0	0	
4	0	0	0	0	608	496	1021	504	0	0	
5	0	0	0	0	609	468	1021	501	0	0	
6	0	0	0	0	601	441	1021	493	0	0	
7	0	0	0	0	586	417	1021	481	0	0	
8	0	0	0	0	566	398	1021	467	0	0	
9	0	0	0	0	542	387	1021	451	0	0	
10	0	0	0	0	517	384	1021	436	0	0	
11	0	0	0	0	493	390	1021	423	0	0	
12	0	0	0	0	472	405	1021	411	0	0	
13	0	0	0	0	456	426	1021	404	0	0	
14	0	0	0	0	448	452	1021	403	0	0	
15	0	0	0	0	447	481	1021	405	0	0	
0	0	0	0	0	455	508	1021	413	0	0	
1	0	0	0	0	468	532	1021	423	0	0	
2	0	0	0	0	487	549	1021	437	0	0	
3	0	0	0	0	510	559	1021	451	0	0	
4	0	0	0	0	533	559	1021	465	0	0	
5	0	0	0	0	555	551	1021	477	0	0	
6	0	0	0	0	573	536	1021	486	0	0	
7	0	0	0	0	586	512	1021	491	0	0	
8	0	0	0	0	592	484	1021	491	0	0	
9	0	0	0	0	590	454	1021	486	0	0	
10	0	0	0	0	581	425	1021	476	0	0	
11	0	0	0	0	565	400	1021	464	0	0	
12	0	0	0	0	544	380	1021	449	0	0	
13	0	0	0	0	521	369	1021	434	0	0	
14	0	0	0	0	496	366	1021	419	0	0	
15	0	0	0	0	473	372	1021	405	0	0	
0	0	0	0	0	455	387	1021	396	0	0	
1	0	0	0	0	442	411	1021	391	0	0	
2	0	0	0	0	436	439	1021	391	0	0	
3	0	0	0	0	439	470	1021	395	0	0	
4	0	0	0	0	449	500	1021	406	0	0	
5	0	0	0	0	467	527	1021	419	0	0	
6	0	0	0	0	490	547	1021	434	0	0	
7	0	0	0	0	515	559	1021	451	0	0	
8	0	0	0	0	540	562	1021	465	0	0	
9	0	0	0	0	563	555	1021	477	0	0	
10	0	0	0	0	581	538	1021	485	0	0	
11	0	0	0	0	592	513	1021	488	0	0	
12	0	0	0	0	595	483	1021	486	0	0	
13	0	0	0	0	589	449	1021	477	0	0	
14	0	0	0	0	574	414	1020	462	0	0	
15	0	0	0	0	551	382	1021	443	0	0	
0	0	0	0	0	521	354	1021	421	0	0	
1	0	0	0	0	487	334	1021	396	0	0	
2	0	0	0	0	453	321	1021	372	0	0	
3	0	0	0	0	419	317	1021	349	0	0	
4	0	0	0	0	388	322	1021	327	0	0	
5	0	0	0	0	363	333	1021	311	0	0	
6	0	0	0	0	345	351	1021	299	0	0	
7	0	0	0	0	335	371	1021	292	0	0	
8	0	0	0	0	334	391	1021	291	0	0	
9	0	0	0	0	339	408	1021	293	0	0	
10	0	0	0	0	351	419	1021	299	0	0	
11	0	0	0	0	367	422	1021	305	0	0	
12	0	0	0	0	383	416	1021	312	0	0	
13	0	0	0	0	398	401	1021	316	0	0	
14	0	0	0	0	409	378	1021	318	0	0	
15	0	0	0	0	416	347	1021	316	0	0	
0	0	0	0	0	415	311	1021	309	0	0	
1	0	0	0	0	407	273	1021	297	0	0	
2	0	0	0	0	391	238	1021	281	0	0	
3	0	0	0	0	370	205	1021	263	0	0	
4	0	0	0	0	345	179	1021	244	0	0	
5	0	0	0	0	319	164	1021	226	0	0	
6	0	0	0	0	295	159	1021	210	0	0	
7	0	0	0	0	276	166	1021	199	0	0	
8	0	0	0	0	263	185	1021	195	0	0	
9	0	0	0	0	258	217	1021	198	0	0	
10	0	0	0	0	264	258	1021	210	0	0	
11	0	0	0	0	281	305	1021	230	0	0	
12	0	0	0	0	310	355	1020	258	0	0	
13	0	0	0	0	347	404	1021	291	0	0	
14	0	0	0	0	393	448	1021	331	0	0	
15	0	0	0	0	442	485	1021	371	0	0	
0	0	0	0	0	493	513	1021	412	0	0	
1	0	0	0	0	541	530	1021	449	0	0	
2	0	0	0	0	583	535	1021	481	0	0	
3	0	0	0	0	617	530	1021	507	0	0	
4	0	0	0	0	640	517	1021	524	0	0	
5	0	0	0	0	651	496	1021	531	0	0	
6	0	0	0	0	650	473	1021	529	0	0	
7	0	0	0	0	637	451	1021	520	0	0	
8	0	0	0	0	614	430	1021	504	0	0	
9	0	0	0	0	585	415	1021	485	0	0	
10	0	0	0	0	551	407	1021	463	0	0	
11	0	0	0	0	516	406	1020	441	0	0	
12	0	0	0	0	484	413	1021	422	0	0	
13	0	0	0	0	458	427	1021	407	0	0	
14	0	0	0	0	440	447	1021	397	0	0	
15	0	0	0	0	432	471	1021	393	0	0	
0	0	0	0	0	433	495	1021	396	0	0	
1	0	0	0	0	446	518	1021	406	0	0	
2	0	0	0	0	465	536	1021	419	0	0	
3	0	0	0	0	492	549	1021	436	0	0	
4	0	0	0	0	520	554	1021	454	0	0	
5	0	0	0	0	550	551	1021	472	0	0	
6	0	0	0	0	577	542	1021	487	0	0	
7	0	0	0	0	599	525	1021	499	0	0	
8	0	0	0	0	613	504	1021	506	0	0	
9	0	0	0	0	619	479	1021	507	0	0	
10	0	0	0	0	616	454	1020	503	0	0	
11	0	0	0	0	605	432	1021	494	0	0	
12	0	0	0	0	586	414	1021	481	0	0	
13	0	0	0	0	563	403	1021	467	0	0	
14	0	0	0	0	536	399	1021	451	0	0	
15	0	0	0	0	510	404	1020	435	0	0	
0	0	0	0	0	486	415	1021	423	0	0	
1	0	0	0	0	467	435	1021	413	0	0	
2	0	0	0	0	455	460	1021	409	0	0	
3	0	0	0	0	450	486	1021	409	0	0	
4	0	0	0	0	455	512	1021	415	0	0	
5	0	0	0	0	467	535	1021	424	0	0	
6	0	0	0	0	485	553	1021	437	0	0	
7	0	0	0	0	508	563	1021	452	0	0	
8	0	0	0	0	534	567	1021	467	0	0	
9	0	0	0	0	559	562	1021	482	0	0	
10	0	0	0	0	582	549	1021	495	0	0	
11	0	0	0	0	601	530	1021	504	0	0	
12	0	0	0	0	613	507	1021	510	0	0	
13	0	0	0	0	618	481	1021	510	0	0	
14	0	0	0	0	615	457	1020	505	0	0	
15	0	0	0	0	605	435	1021	497	0	0	
0	0	0	0	0	589	418	1021	487	0	0	
1	0	0	0	0	569	409	1021	474	0	0	
2	0	0	0	0	546	408	1021	461	0	0	
3	0	0	0	0	523	415	1020	449	0	0	
4	0	0	0	0	504	431	1021	440	0	0	
5	0	0	0	0	488	452	1021	434	0	0	
6	0	0	0	0	479	478	1021	432	0	0	
7	0	0	0	0	477	507	1021	434	0	0	
8	0	0	0	0	483	534	1021	440	0	0	
9	0	0	0	0	495	557	1021	449	0	0	
10	0	0	0	0	512	574	1021	461	0	0	
11	0	0	0	0	532	583	1021	473	0	0	
12	0	0	0	0	553	583	1021	486	0	0	
13	0	0	0	0	575	576	1020	496	0	0	
14	0	0	0	0	592	560	1021	505	0	0	
15	0	0	0	0	605	537	1021	509	0	0	
0	0	0	0	0	612	510	1021	509	0	0	
1	0	0	0	0	611	481	1021	505	0	0	
2	0	0	0	0	604	453	1021	497	0	0	
3	0	0	0	0	590	428	1021	484	0	0	
4	0	0	0	0	570	408	1021	470	0	0	
5	0	0	0	0	547	396	1021	455	0	0	
6	0	0	0	0	523	393	1021	440	0	0	
7	0	0	0	0	499	399	1020	426	0	0	
8	0	0	0	0	479	412	1021	415	0	0	
9	0	0	0	0	464	433	1021	408	0	0	
10	0	0	0	0	456	459	1021	406	0	0	
11	0	0	0	0	456	487	1021	409	0	0	
12	0	0	0	0	463	515	1021	416	0	0	
13	0	0	0	0	477	540	1021	427	0	0	
14	0	0	0	0	497	558	1021	440	0	0	
15	0	0	0	0	521	569	1021	456	0	0	
0	0	0	0	0	545	572	1021	470	0	0	
1	0	0	0	0	568	566	1021	484	0	0	
2	0	0	0	0	589	553	1021	495	0	0	
3	0	0	0	0	604	532	1021	502	0	0	
4	0	0	0	0	611	506	1021	504	0	0	
5	0	0	0	0	611	478	1021	502	0	0	
6	0	0	0	0	604	451	1021	494	0	0	
7	0	0	0	0	589	426	1021	483	0	0	
8	0	0	0	0	569	407	1021	470	0	0	
9	0	0	0	0	546	396	1021	455	0	0	
10	0	0	0	0	521	392	1021	439	0	0	
11	0	0	0	0	497	398	1020	425	0	0	
12	0	0	0	0	476	411	1021	414	0	0	
13	0	0	0	0	461	432	1021	407	0	0	
14	0	0	0	0	452	457	1021	403	0	0	
15	0	0	0	0	452	486	1021	406	0	0	
0	0	0	0	0	459	514	1021	413	0	0	
1	0	0	0	0	474	539	1021	424	0	0	
2	0	0	0	0	494	558	1021	438	0	0	
3	0	0	0	0	518	570	1021	454	0	0	
4	0	0	0	0	543	574	1021	469	0	0	
5	0	0	0	0	568	568	1021	483	0	0	
6	0	0	0	0	589	556	1021	495	0	0	
7	0	0	0	0	605	535	1021	502	0	0	
8	0	0	0	0	614	510	1021	505	0	0	
9	0	0	0	0	616	483	1021	504	0	0	
10	0	0	0	0	609	455	1021	496	0	0	
11	0	0	0	0	596	432	1021	486	0	0	
12	0	0	0	0	577	413	1021	473	0	0	
13	0	0	0	0	555	401	1021	459	0	0	
14	0	0	0	0	530	398	1021	444	0	0	
15	0	0	0	0	506	404	1020	430	0	0	
0	0	0	0	0	485	417	1021	419	0	0	
1	0	0	0	0	468	438	1021	412	0	0	
2	0	0	0	0	459	463	1021	409	0	0	
3	0	0	0	0	458	492	1021	411	0	0	
4	0	0	0	0	464	519	1021	418	0	0	
5	0	0	0	0	478	543	1021	429	0	0	
6	0	0	0	0	497	563	1021	443	0	0	
7	0	0	0	0	520	574	1021	457	0	0	
8	0	0	0	0	545	577	1021	473	0	0	
9	0	0	0	0	568	572	1021	487	0	0	
10	0	0	0	0	589	559	1021	498	0	0	
11	0	0	0	0	604	539	1021	505	0	0	
12	0	0	0	0	613	513	1021	508	0	0	
13	0	0	0	0	614	486	1021	506	0	0	
14	0	0	0	0	607	458	1021	499	0	0	
15	0	0	0	0	593	433	1021	488	0	0	
0	0	0	0	0	574	414	1021	474	0	0	
1	0	0	0	0	550	403	1021	459	0	0	
2	0	0	0	0	525	398	1021	443	0	0	
3	0	0	0	0	500	402	1021	428	0	0	
4	0	0	0	0	478	414	1021	415	0	0	
5	0	0	0	0	461	433	1021	407	0	0	
6	0	0	0	0	451	457	1021	403	0	0	
7	0	0	0	0	449	484	1021	404	0	0	
8	0	0	0	0	455	511	1021	410	0	0	
9	0	0	0	0	469	534	1021	420	0	0	
10	0	0	0	0	489	553	1021	433	0	0	
11	0	0	0	0	512	564	1021	448	0	0	
12	0	0	0	0	536	567	1021	463	0	0	
13	0	0	0	0	560	561	1021	477	0	0	
14	0	0	0	0	580	547	1021	489	0	0	
15	0	0	0	0	596	527	1021	496	0	0	
0	0	0	0	0	604	502	1021	499	0	0	
1	0	0	0	0	605	473	1021	496	0	0	
2	0	0	0	0	598	445	1021	488	0	0	
3	0	0	0	0	583	420	1021	476	0	0	
4	0	0	0	0	563	400	1021	463	0	0	
5	0	0	0	0	540	388	1021	448	0	0	
6	0	0	0	0	515	384	1021	432	0	0	
7	0	0	0	0	492	389	1021	419	0	0	
8	0	0	0	0	471	403	1021	407	0	0	
9	0	0	0	0	455	423	1021	399	0	0	
10	0	0	0	0	446	449	1021	397	0	0	
11	0	0	0	0	445	477	1021	399	0	0	
12	0	0	0	0	452	505	1021	407	0	0	
13	0	0	0	0	467	529	1021	418	0	0	
14	0	0	0	0	487	549	1021	432	0	0	
15	0	0	0	0	510	560	1021	447	0	0	
0	0	0	0	0	535	564	1021	463	0	0	
1	0	0	0	0	559	559	1021	476	0	0	
2	0	0	0	0	579	546	1021	487	0	0	
3	0	0	0	0	595	526	1021	495	0	0	
4	0	0	0	0	604	501	1021	498	0	0	
5	0	0	0	0	605	473	1021	496	0	0	
6	0	0	0	0	599	446	1021	488	0	0	
7	0	0	0	0	584	421	1021	477	0	0	
8	0	0	0	0	564	401	1021	463	0	0	
9	0	0	0	0	540	388	1021	447	0	0	
10	0	0	0	0	513	383	1021	430	0	0	
11	0	0	0	0	488	386	1021	415	0	0	
12	0	0	0	0	465	397	1021	402	0	0	
13	0	0	0	0	448	416	1021	393	0	0	
14	0	0	0	0	437	440	1021	390	0	0	
15	0	0	0	0	435	467	1021	390	0	0	
0	0	0	0	0	440	493	1021	396	0	0	
1	0	0	0	0	454	516	1021	406	0	0	
2	0	0	0	0	472	535	1021	419	0	0	
3	0	0	0	0	496	546	1021	434	0	0	
4	0	0	0	0	519	548	1021	448	0	0	
5	0	0	0	0	544	543	1021	461	0	0	
6	0	0	0	0	565	530	1021	473	0	0	
7	0	0	0	0	581	511	1021	480	0	0	
8	0	0	0	0	590	486	1021	483	0	0	
9	0	0	0	0	592	458	1021	481	0	0	
10	0	0	0	0	585	431	1021	474	0	0	
11	0	0	0	0	572	407	1021	464	0	0	
12	0	0	0	0	553	388	1021	451	0	0	
13	0	0	0	0	530	377	1021	436	0	0	
14	0	0	0	0	506	373	1021	421	0	0	
15	0	0	0	0	482	378	1021	407	0	0	
0	0	0	0	0	462	391	1021	396	0	0	
1	0	0	0	0	446	411	1021	388	0	0	
2	0	0	0	0	438	437	1021	385	0	0	
3	0	0	0	0	436	465	1021	388	0	0	
4	0	0	0	0	443	494	1021	395	0	0	
5	0	0	0	0	458	519	1021	406	0	0	
6	0	0	0	0	477	538	1021	419	0	0	
7	0	0	0	0	500	551	1021	435	0	0	
8	0	0	0	0	525	555	1021	450	0	0	
9	0	0	0	0	548	550	1021	464	0	0	
10	0	0	0	0	569	537	1021	476	0	0	
11	0	0	0	0	584	517	1021	483	0	0	
12	0	0	0	0	593	492	1021	486	0	0	
13	0	0	0	0	595	464	1021	485	0	0	
14	0	0	0	0	588	436	1021	478	0	0	
15	0	0	0	0	574	411	1021	467	0	0	
0	0	0	0	0	554	391	1021	454	0	0	
1	0	0	0	0	530	378	1021	438	0	0	
2	0	0	0	0	505	374	1021	423	0	0	
3	0	0	0	0	480	377	1021	408	0	0	
4	0	0	0	0	458	390	1021	396	0	0	
5	0	0	0	0	441	410	1021	387	0	0	
6	0	0	0	0	431	435	1021	383	0	0	
7	0	0	0	0	429	463	1021	385	0	0	
8	0	0	0	0	435	492	1021	391	0	0	
9	0	0	0	0	448	516	1021	401	0	0	
10	0	0	0	0	468	536	1021	414	0	0	
11	0	0	0	0	491	548	1021	429	0	0	
12	0	0	0	0	516	552	1021	444	0	0	
13	0	0	0	0	541	548	1021	458	0	0	
14	0	0	0	0	562	535	1021	470	0	0	
15	0	0	0	0	579	515	1021	478	0	0	
0	0	0	0	0	589	491	1021	481	0	0	
1	0	0	0	0	591	463	1021	480	0	0	
2	0	0	0	0	586	435	1021	473	0	0	
3	0	0	0	0	573	411	1021	463	0	0	
4	0	0	0	0	555	391	1021	450	0	0	
5	0	0	0	0	532	380	1021	436	0	0	
6	0	0	0	0	508	375	1021	421	0	0	
7	0	0	0	0	484	380	1020	408	0	0	
8	0	0	0	0	464	394	1021	397	0	0	
9	0	0	0	0	449	414	1021	390	0	0	
10	0	0	0	0	440	440	1021	388	0	0	
11	0	0	0	0	439	470	1021	391	0	0	
12	0	0	0	0	446	499	1020	398	0	0	
13	0	0	0	0	460	525	1021	409	0	0	
14	0	0	0	0	480	544	1021	425	0	0	
15	0	0	0	0	504	558	1021	441	0	0	
0	0	0	0	0	528	562	1021	457	0	0	
1	0	0	0	0	553	557	1021	472	0	0	
2	0	0	0	0	575	545	1021	483	0	0	
3	0	0	0	0	591	525	1021	492	0	0	
4	0	0	0	0	600	500	1021	495	0	0	
5	0	0	0	0	601	471	1021	492	0	0	
6	0	0	0	0	595	444	1021	485	0	0	
7	0	0	0	0	582	418	1021	475	0	0	
8	0	0	0	0	562	398	1021	460	0	0	
9	0	0	0	0	540	386	1021	446	0	0	
10	0	0	0	0	515	382	1021	430	0	0	
11	0	0	0	0	492	387	1020	416	0	0	
12	0	0	0	0	472	401	1021	406	0	0	
13	0	0	0	0	457	422	1021	399	0	0	
14	0	0	0	0	449	448	1021	397	0	0	
15	0	0	0	0	449	478	1021	399	0	0	
0	0	0	0	0	457	507	1020	407	0	0	
1	0	0	0	0	472	532	1021	419	0	0	
2	0	0	0	0	492	553	1021	434	0	0	
3	0	0	0	0	515	566	1021	449	0	0	
4	0	0	0	0	540	571	1021	465	0	0	
5	0	0	0	0	564	567	1021	479	0	0	
6	0	0	0	0	585	554	1021	491	0	0	
7	0	0	0	0	601	535	1021	499	0	0	
8	0	0	0	0	609	510	1021	501	0	0	
9	0	0	0	0	610	482	1021	499	0	0	
10	0	0	0	0	603	455	1021	493	0	0	
11	0	0	0	0	589	430	1021	481	0	0	
12	0	0	0	0	569	409	1021	468	0	0	
13	0	0	0	0	545	396	1021	453	0	0	
14	0	0	0	0	520	391	1021	437	0	0	
15	0	0	0	0	495	396	1020	423	0	0	
0	0	0	0	0	473	407	1021	411	0	0	
1	0	0	0	0	457	427	1021	403	0	0	
2	0	0	0	0	448	451	1021	400	0	0	
3	0	0	0	0	447	480	1021	403	0	0	
4	0	0	0	0	454	509	1021	410	0	0	
5	0	0	0	0	469	535	1021	422	0	0	
6	0	0	0	0	490	556	1021	436	0	0	
7	0	0	0	0	515	570	1021	453	0	0	
8	0	0	0	0	541	576	1021	469	0	0	
9	0	0	0	0	567	574	1020	483	0	0	
10	0	0	0	0	589	562	1021	495	0	0	
11	0	0	0	0	606	543	1021	503	0	0	
12	0	0	0	0	615	519	1021	506	0	0	
13	0	0	0	0	616	492	1021	504	0	0	
14	0	0	0	0	609	463	1021	496	0	0	
15	0	0	0	0	595	439	1021	485	0	0	
0	0	0	0	0	575	418	1021	471	0	0	
1	0	0	0	0	550	405	1021	455	0	0	
2	0	0	0	0	524	399	1021	438	0	0	
3	0	0	0	0	497	402	1021	423	0	0	
4	0	0	0	0	474	413	1021	409	0	0	
5	0	0	0	0	455	431	1021	400	0	0	
6	0	0	0	0	444	455	1021	396	0	0	
7	0	0	0	0	441	481	1021	396	0	0	
8	0	0	0	0	447	507	1021	403	0	0	
9	0	0	0	0	460	532	1021	413	0	0	
10	0	0	0	0	480	550	1021	427	0	0	
11	0	0	0	0	504	562	1021	443	0	0	
12	0	0	0	0	529	566	1021	460	0	0	
13	0	0	0	0	555	563	1020	475	0	0	
14	0	0	0	0	577	551	1021	487	0	0	
15	0	0	0	0	595	531	1021	496	0	0	
0	0	0	0	0	606	508	1021	501	0	0	
1	0	0	0	0	609	481	1021	499	0	0	
2	0	0	0	0	605	455	1021	494	0	0	
3	0	0	0	0	592	431	1021	484	0	0	
4	0	0	0	0	574	412	1021	471	0	0	
5	0	0	0	0	551	401	1021	457	0	0	
6	0	0	0	0	527	398	1021	441	0	0	
7	0	0	0	0	502	403	1021	428	0	0	
8	0	0	0	0	480	415	1021	416	0	0	
9	0	0	0	0	463	435	1021	408	0	0	
10	0	0	0	0	452	460	1021	406	0	0	
11	0	0	0	0	449	488	1021	407	0	0	
12	0	0	0	0	455	516	1020	413	0	0	
13	0	0	0	0	467	541	1021	423	0	0	
14	0	0	0	0	486	560	1021	436	0	0	
15	0	0	0	0	509	572	1021	451	0	0	
0	0	0	0	0	534	576	1021	466	0	0	
1	0	0	0	0	559	572	1021	480	0	0	
2	0	0	0	0	580	561	1021	491	0	0	
3	0	0	0	0	598	542	1021	499	0	0	
4	0	0	0	0	609	518	1021	504	0	0	
5	0	0	0	0	612	492	1021	503	0	0	
6	0	0	0	0	608	465	1021	497	0	0	
7	0	0	0	0	597	442	1021	488	0	0	
8	0	0	0	0	580	423	1021	476	0	0	
9	0	0	0	0	559	411	1021	463	0	0	
10	0	0	0	0	536	406	1021	448	0	0	
11	0	0	0	0	512	410	1020	435	0	0	
12	0	0	0	0	492	423	1021	423	0	0	
13	0	0	0	0	476	441	1021	416	0	0	
14	0	0	0	0	465	466	1021	413	0	0	
15	0	0	0	0	463	493	1021	414	0	0	
0	0	0	0	0	468	521	1021	420	0	0	
1	0	0	0	0	481	545	1021	431	0	0	
2	0	0	0	0	499	565	1021	444	0	0	
3	0	0	0	0	521	577	1021	458	0	0	
4	0	0	0	0	545	582	1021	473	0	0	
5	0	0	0	0	569	578	1021	487	0	0	
6	0	0	0	0	590	566	1021	498	0	0	
7	0	0	0	0	606	546	1021	506	0	0	
8	0	0	0	0	616	522	1021	510	0	0	
9	0	0	0	0	619	494	1021	508	0	0	
10	0	0	0	0	613	466	1020	501	0	0	
11	0	0	0	0	600	441	1021	492	0	0	
12	0	0	0	0	582	420	1021	479	0	0	
13	0	0	0	0	560	408	1021	464	0	0	
14	0	0	0	0	536	403	1021	449	0	0	
15	0	0	0	0	512	407	1020	435	0	0	
0	0	0	0	0	491	418	1021	424	0	0	
1	0	0	0	0	474	438	1021	416	0	0	
2	0	0	0	0	464	463	1021	413	0	0	
3	0	0	0	0	462	491	1021	414	0	0	
4	0	0	0	0	467	519	1021	420	0	0	
5	0	0	0	0	481	543	1021	431	0	0	
6	0	0	0	0	500	564	1021	443	0	0	
7	0	0	0	0	522	576	1021	458	0	0	
8	0	0	0	0	547	581	1021	473	0	0	
9	0	0	0	0	571	577	1021	487	0	0	
10	0	0	0	0	591	564	1021	499	0	0	
11	0	0	0	0	608	545	1021	506	0	0	
12	0	0	0	0	617	520	1021	510	0	0	
13	0	0	0	0	619	492	1021	508	0	0	
14	0	0	0	0	613	464	1021	501	0	0	
15	0	0	0	0	599	439	1021	491	0	0	
0	0	0	0	0	580	418	1021	476	0	0	
1	0	0	0	0	556	404	1021	461	0	0	
2	0	0	0	0	531	399	1021	445	0	0	
3	0	0	0	0	505	401	1021	430	0	0	
4	0	0	0	0	483	412	1021	418	0	0	
5	0	0	0	0	465	430	1021	409	0	0	
6	0	0	0	0	454	454	1021	405	0	0	
7	0	0	0	0	451	481	1021	405	0	0	
8	0	0	0	0	455	508	1021	411	0	0	
9	0	0	0	0	467	532	1021	420	0	0	
10	0	0	0	0	486	552	1021	433	0	0	
11	0	0	0	0	508	565	1021	449	0	0	
12	0	0	0	0	532	569	1021	464	0	0	
13	0	0	0	0	556	566	1021	479	0	0	
14	0	0	0	0	578	555	1021	491	0	0	
15	0	0	0	0	595	536	1021	500	0	0	
0	0	0	0	0	606	513	1021	505	0	0	
1	0	0	0	0	609	487	1021	504	0	0	
2	0	0	0	0	605	461	1021	499	0	0	
3	0	0	0	0	594	437	1021	490	0	0	
4	0	0	0	0	577	418	1021	478	0	0	
5	0	0	0	0	556	407	1021	465	0	0	
6	0	0	0	0	533	403	1021	451	0	0	
7	0	0	0	0	510	408	1021	438	0	0	
8	0	0	0	0	490	420	1021	428	0	0	
9	0	0	0	0	475	440	1021	421	0	0	
10	0	0	0	0	466	464	1021	418	0	0	
11	0	0	0	0	463	492	1021	419	0	0	
12	0	0	0	0	469	519	1020	425	0	0	
13	0	0	0	0	482	544	1021	435	0	0	
14	0	0	0	0	500	563	1021	447	0	0	
15	0	0	0	0	522	575	1021	461	0	0	
0	0	0	0	0	545	579	1021	475	0	0	
1	0	0	0	0	568	575	1021	488	0	0	
2	0	0	0	0	588	563	1021	499	0	0	
3	0	0	0	0	604	544	1021	506	0	0	
4	0	0	0	0	613	520	1021	509	0	0	
5	0	0	0	0	615	492	1021	507	0	0	
6	0	0	0	0	609	466	1021	500	0	0	
7	0	0	0	0	596	441	1021	490	0	0	
8	0	0	0	0	578	421	1021	477	0	0	
9	0	0	0	0	556	409	1021	463	0	0	
10	0	0	0	0	531	404	1021	447	0	0	
11	0	0	0	0	508	407	1021	434	0	0	
12	0	0	0	0	487	418	1021	422	0	0	
13	0	0	0	0	471	437	1021	414	0	0	
14	0	0	0	0	461	460	1021	411	0	0	
15	0	0	0	0	459	487	1021	412	0	0	
0	0	0	0	0	464	514	1020	417	0	0	
1	0	0	0	0	477	539	1021	427	0	0	
2	0	0	0	0	496	558	1021	440	0	0	
3	0	0	0	0	519	571	1021	455	0	0	
4	0	0	0	0	543	575	1021	470	0	0	
5	0	0	0	0	568	572	1021	484	0	0	
6	0	0	0	0	588	560	1021	496	0	0	
7	0	0	0	0	605	542	1021	504	0	0	
8	0	0	0	0	615	518	1021	508	0	0	
9	0	0	0	0	616	490	1021	507	0	0	
10	0	0	0	0	611	463	1021	501	0	0	
11	0	0	0	0	598	439	1021	490	0	0	
12	0	0	0	0	579	418	1021	477	0	0	
13	0	0	0	0	556	405	1021	462	0	0	
14	0	0	0	0	531	400	1021	447	0	0	
15	0	0	0	0	508	403	1020	432	0	0	
0	0	0	0	0	486	415	1021	421	0	0	
1	0	0	0	0	470	435	1021	413	0	0	
2	0	0	0	0	460	460	1021	409	0	0	
3	0	0	0	0	459	488	1021	412	0	0	
4	0	0	0	0	465	517	1021	418	0	0	
5	0	0	0	0	480	543	1021	429	0	0	
6	0	0	0	0	500	563	1021	443	0	0	
7	0	0	0	0	523	577	1021	459	0	0	
8	0	0	0	0	549	583	1021	475	0	0	
9	0	0	0	0	574	580	1020	489	0	0	
10	0	0	0	0	596	569	1021	502	0	0	
11	0	0	0	0	613	550	1021	510	0	0	
12	0	0	0	0	623	527	1021	515	0	0	
13	0	0	0	0	625	499	1021	514	0	0	
14	0	0	0	0	620	472	1021	508	0	0	
15	0	0	0	0	607	448	1021	498	0	0	
0	0	0	0	0	588	427	1021	485	0	0	
1	0	0	0	0	565	414	1021	471	0	0	
2	0	0	0	0	540	408	1021	456	0	0	
3	0	0	0	0	515	411	1021	442	0	0	
4	0	0	0	0	493	422	1021	430	0	0	
5	0	0	0	0	476	440	1021	422	0	0	
6	0	0	0	0	466	464	1021	418	0	0	
7	0	0	0	0	464	491	1021	419	0	0	
8	0	0	0	0	470	518	1021	426	0	0	
9	0	0	0	0	483	543	1021	435	0	0	
10	0	0	0	0	502	562	1021	449	0	0	
11	0	0	0	0	525	575	1021	465	0	0	
12	0	0	0	0	551	580	1021	480	0	0	
13	0	0	0	0	575	577	1020	495	0	0	
14	0	0	0	0	597	566	1021	507	0	0	
15	0	0	0	0	614	547	1021	516	0	0	
0	0	0	0	0	624	523	1021	520	0	0	
1	0	0	0	0	627	496	1021	519	0	0	
2	0	0	0	0	622	469	1021	513	0	0	
3	0	0	0	0	610	445	1021	503	0	0	
4	0	0	0	0	591	424	1021	490	0	0	
5	0	0	0	0	568	412	1021	475	0	0	
6	0	0	0	0	543	406	1021	460	0	0	
7	0	0	0	0	519	409	1021	445	0	0	
8	0	0	0	0	496	420	1021	432	0	0	
9	0	0	0	0	479	439	1021	423	0	0	
10	0	0	0	0	467	463	1021	419	0	0	
11	0	0	0	0	464	490	1021	420	0	0	
12	0	0	0	0	468	518	1020	424	0	0	
13	0	0	0	0	480	543	1021	434	0	0	
14	0	0	0	0	499	562	1021	446	0	0	
15	0	0	0	0	521	576	1021	461	0	0	
0	0	0	0	0	546	581	1021	476	0	0	
1	0	0	0	0	570	579	1021	490	0	0	
2	0	0	0	0	592	568	1021	503	0	0	
3	0	0	0	0	609	551	1021	511	0	0	
4	0	0	0	0	620	528	1021	516	0	0	
5	0	0	0	0	624	502	1021	515	0	0	
6	0	0	0	0	620	475	1021	510	0	0	
7	0	0	0	0	608	451	1021	500	0	0	
8	0	0	0	0	590	431	1021	487	0	0	
9	0	0	0	0	568	417	1021	473	0	0	
10	0	0	0	0	543	412	1021	457	0	0	
11	0	0	0	0	519	414	1021	443	0	0	
12	0	0	0	0	497	425	1021	431	0	0	
13	0	0	0	0	480	444	1021	423	0	0	
14	0	0	0	0	469	467	1021	419	0	0	
15	0	0	0	0	466	495	1021	420	0	0	
0	0	0	0	0	472	523	1021	426	0	0	
1	0	0	0	0	484	547	1021	436	0	0	
2	0	0	0	0	503	567	1021	449	0	0	
3	0	0	0	0	525	579	1021	464	0	0	
4	0	0	0	0	549	584	1021	479	0	0	
5	0	0	0	0	573	581	1020	493	0	0	
6	0	0	0	0	594	569	1021	504	0	0	
7	0	0	0	0	611	550	1021	513	0	0	
8	0	0	0	0	621	527	1021	517	0	0	
9	0	0	0	0	624	499	1021	515	0	0	
10	0	0	0	0	619	473	1021	510	0	0	
11	0	0	0	0	607	449	1021	500	0	0	
12	0	0	0	0	589	429	1021	487	0	0	
13	0	0	0	0	567	416	1021	473	0	0	
14	0	0	0	0	543	412	1021	458	0	0	
15	0	0	0	0	519	415	1021	444	0	0	
0	0	0	0	0	499	427	1021	433	0	0	
1	0	0	0	0	483	446	1021	425	0	0	
2	0	0	0	0	473	471	1021	422	0	0	
3	0	0	0	0	471	499	1021	423	0	0	
4	0	0	0	0	477	527	1020	429	0	0	
5	0	0	0	0	490	552	1021	439	0	0	
6	0	0	0	0	509	572	1021	452	0	0	
7	0	0	0	0	531	585	1021	467	0	0	
8	0	0	0	0	556	590	1021	481	0	0	
9	0	0	0	0	579	586	1021	495	0	0	
10	0	0	0	0	600	575	1021	505	0	0	
11	0	0	0	0	615	555	1021	513	0	0	
12	0	0	0	0	625	531	1021	516	0	0	
13	0	0	0	0	627	503	1021	514	0	0	
14	0	0	0	0	621	475	1021	508	0	0	
15	0	0	0	0	608	449	1021	498	0	0	
0	0	0	0	0	590	429	1021	484	0	0	
1	0	0	0	0	567	416	1021	471	0	0	
2	0	0	0	0	542	411	1021	455	0	0	
3	0	0	0	0	518	414	1021	442	0	0	
4	0	0	0	0	497	425	1021	432	0	0	
5	0	0	0	0	480	445	1021	424	0	0	
6	0	0	0	0	470	470	1021	422	0	0	
7	0	0	0	0	468	498	1021	423	0	0	
8	0	0	0	0	473	526	1021	431	0	0	
9	0	0	0	0	487	551	1021	442	0	0	
10	0	0	0	0	507	573	1021	456	0	0	
11	0	0	0	0	531	587	1021	473	0	0	
12	0	0	0	0	556	592	1021	488	0	0	
13	0	0	0	0	580	589	1021	503	0	0	
14	0	0	0	0	603	577	1021	515	0	0	
15	0	0	0	0	620	559	1021	523	0	0	
0	0	0	0	0	629	534	1021	526	0	0	
1	0	0	0	0	631	506	1021	523	0	0	
2	0	0	0	0	624	477	1021	516	0	0	
3	0	0	0	0	611	451	1021	504	0	0	
4	0	0	0	0	591	430	1021	489	0	0	
5	0	0	0	0	567	415	1021	473	0	0	
6	0	0	0	0	541	408	1021	456	0	0	
7	0	0	0	0	515	409	1021	441	0	0	
8	0	0	0	0	492	419	1021	428	0	0	
9	0	0	0	0	475	437	1021	418	0	0	
10	0	0	0	0	463	461	1021	414	0	0	
11	0	0	0	0	460	489	1021	415	0	0	
12	0	0	0	0	465	516	1021	420	0	0	
13	0	0	0	0	479	542	1021	431	0	0	
14	0	0	0	0	497	563	1021	444	0	0	
15	0	0	0	0	521	577	1021	460	0	0	
0	0	0	0	0	546	583	1021	476	0	0	
1	0	0	0	0	571	581	1021	491	0	0	
2	0	0	0	0	593	571	1021	504	0	0	
3	0	0	0	0	610	552	1021	512	0	0	
4	0	0	0	0	620	527	1021	516	0	0	
5	0	0	0	0	623	500	1021	515	0	0	
6	0	0	0	0	618	472	1021	509	0	0	
7	0	0	0	0	605	445	1021	499	0	0	
8	0	0	0	0	587	423	1021	485	0	0	
9	0	0	0	0	563	409	1021	470	0	0	
10	0	0	0	0	538	402	1021	454	0	0	
11	0	0	0	0	514	404	1021	440	0	0	
12	0	0	0	0	492	415	1021	427	0	0	
13	0	0	0	0	475	433	1021	418	0	0	
14	0	0	0	0	464	457	1021	414	0	0	
15	0	0	0	0	461	484	1021	414	0	0	
0	0	0	0	0	467	512	1021	420	0	0	
1	0	0	0	0	480	539	1021	431	0	0	
2	0	0	0	0	500	559	1021	444	0	0	
3	0	0	0	0	524	573	1021	460	0	0	
4	0	0	0	0	548	579	1021	476	0	0	
5	0	0	0	0	574	578	1020	490	0	0	
6	0	0	0	0	596	568	1021	504	0	0	
7	0	0	0	0	614	550	1021	512	0	0	
8	0	0	0	0	625	527	1021	518	0	0	
9	0	0	0	0	630	501	1021	517	0	0	
10	0	0	0	0	625	475	1020	511	0	0	
11	0	0	0	0	614	450	1021	502	0	0	
12	0	0	0	0	596	431	1021	489	0	0	
13	0	0	0	0	575	417	1021	476	0	0	
14	0	0	0	0	551	412	1021	461	0	0	
15	0	0	0	0	527	415	1020	447	0	0	
0	0	0	0	0	505	427	1021	435	0	0	
1	0	0	0	0	487	445	1021	427	0	0	
2	0	0	0	0	477	469	1021	423	0	0	
3	0	0	0	0	473	496	1021	423	0	0	
4	0	0	0	0	477	523	1020	429	0	0	
5	0	0	0	0	488	546	1021	439	0	0	
6	0	0	0	0	505	566	1021	451	0	0	
7	0	0	0	0	526	578	1021	465	0	0	
8	0	0	0	0	549	583	1021	479	0	0	
9	0	0	0	0	573	579	1021	492	0	0	
10	0	0	0	0	593	568	1021	503	0	0	
11	0	0	0	0	610	549	1021	511	0	0	
12	0	0	0	0	620	525	1021	515	0	0	
13	0	0	0	0	624	498	1021	513	0	0	
14	0	0	0	0	620	471	1020	507	0	0	
15	0	0	0	0	608	446	1021	498	0	0	
0	0	0	0	0	591	426	1021	485	0	0	
1	0	0	0	0	569	412	1021	471	0	0	
2	0	0	0	0	545	407	1021	457	0	0	
3	0	0	0	0	521	410	1020	444	0	0	
4	0	0	0	0	500	421	1021	433	0	0	
5	0	0	0	0	484	439	1021	426	0	0	
6	0	0	0	0	474	464	1021	423	0	0	
7	0	0	0	0	471	491	1021	425	0	0	
8	0	0	0	0	476	519	1021	431	0	0	
9	0	0	0	0	488	545	1021	441	0	0	
10	0	0	0	0	507	566	1021	454	0	0	
11	0	0	0	0	530	580	1021	469	0	0	
12	0	0	0	0	555	586	1021	483	0	0	
13	0	0	0	0	578	583	1021	497	0	0	
14	0	0	0	0	599	572	1021	508	0	0	
15	0	0	0	0	616	553	1021	515	0	0	
0	0	0	0	0	625	529	1021	518	0	0	
1	0	0	0	0	627	502	1021	515	0	0	
2	0	0	0	0	622	473	1021	508	0	0	
3	0	0	0	0	609	447	1021	497	0	0	
4	0	0	0	0	591	425	1021	484	0	0	
5	0	0	0	0	568	411	1021	468	0	0	
6	0	0	0	0	543	404	1021	453	0	0	
7	0	0	0	0	518	406	1020	439	0	0	
8	0	0	0	0	497	417	1021	427	0	0	
9	0	0	0	0	480	434	1021	419	0	0	
10	0	0	0	0	470	458	1021	416	0	0	
11	0	0	0	0	467	485	1021	419	0	0	
12	0	0	0	0	473	513	1021	426	0	0	
13	0	0	0	0	486	539	1021	437	0	0	
14	0	0	0	0	505	559	1021	451	0	0	
15	0	0	0	0	529	574	1021	467	0	0	
0	0	0	0	0	554	579	1021	483	0	0	
1	0	0	0	0	579	577	1020	498	0	0	
2	0	0	0	0	600	567	1021	510	0	0	
3	0	0	0	0	617	548	1021	519	0	0	
4	0	0	0	0	628	525	1021	523	0	0	
5	0	0	0	0	631	497	1021	521	0	0	
6	0	0	0	0	625	470	1021	515	0	0	
7	0	0	0	0	612	445	1021	504	0	0	
8	0	0	0	0	593	423	1021	490	0	0	
9	0	0	0	0	569	409	1021	475	0	0	
10	0	0	0	0	543	403	1021	459	0	0	
11	0	0	0	0	518	404	1020	443	0	0	
12	0	0	0	0	494	414	1021	430	0	0	
13	0	0	0	0	476	431	1021	421	0	0	
14	0	0	0	0	464	454	1021	417	0	0	
15	0	0	0	0	460	481	1021	417	0	0	
0	0	0	0	0	465	508	1021	422	0	0	
1	0	0	0	0	477	534	1021	432	0	0	
2	0	0	0	0	496	555	1021	444	0	0	
3	0	0	0	0	521	569	1021	459	0	0	
4	0	0	0	0	547	576	1021	475	0	0	
5	0	0	0	0	574	575	1021	489	0	0	
6	0	0	0	0	598	565	1021	502	0	0	
7	0	0	0	0	617	548	1021	511	0	0	
8	0	0	0	0	630	526	1021	516	0	0	
9	0	0	0	0	636	500	1021	517	0	0	
10	0	0	0	0	632	474	1021	512	0	0	
11	0	0	0	0	622	450	1021	504	0	0	
12	0	0	0	0	604	429	1021	492	0	0	
13	0	0	0	0	581	416	1021	479	0	0	
14	0	0	0	0	556	410	1021	464	0	0	
15	0	0	0	0	530	413	1021	451	0	0	
0	0	0	0	0	507	424	1021	439	0	0	
1	0	0	0	0	487	441	1021	431	0	0	
2	0	0	0	0	475	465	1021	427	0	0	
3	0	0	0	0	470	492	1021	427	0	0	
4	0	0	0	0	472	519	1021	432	0	0	
5	0	0	0	0	483	544	1021	441	0	0	
6	0	0	0	0	500	563	1021	453	0	0	
7	0	0	0	0	522	577	1021	467	0	0	
8	0	0	0	0	546	582	1021	480	0	0	
9	0	0	0	0	571	579	1021	494	0	0	
10	0	0	0	0	592	568	1021	505	0	0	
11	0	0	0	0	611	550	1021	513	0	0	
12	0	0	0	0	623	526	1021	518	0	0	
13	0	0	0	0	627	500	1021	517	0	0	
14	0	0	0	0	625	474	1021	512	0	0	
15	0	0	0	0	615	450	1021	504	0	0	
0	0	0	0	0	600	431	1021	492	0	0	
1	0	0	0	0	580	419	1021	479	0	0	
2	0	0	0	0	558	415	1021	465	0	0	
3	0	0	0	0	536	419	1021	453	0	0	
4	0	0	0	0	516	431	1021	443	0	0	
5	0	0	0	0	500	450	1021	435	0	0	
6	0	0	0	0	489	475	1021	433	0	0	
7	0	0	0	0	486	503	1021	434	0	0	
8	0	0	0	0	490	531	1021	440	0	0	
9	0	0	0	0	501	556	1021	451	0	0	
10	0	0	0	0	518	576	1021	463	0	0	
11	0	0	0	0	537	589	1021	477	0	0	
12	0	0	0	0	560	593	1021	491	0	0	
13	0	0	0	0	580	590	1021	504	0	0	
14	0	0	0	0	600	577	1021	514	0	0	
15	0	0	0	0	614	558	1021	520	0	0	
0	0	0	0	0	622	532	1021	523	0	0	
1	0	0	0	0	623	504	1021	519	0	0	
2	0	0	0	0	617	475	1021	512	0	0	
3	0	0	0	0	604	448	1021	501	0	0	
4	0	0	0	0	586	427	1021	487	0	0	
5	0	0	0	0	564	413	1021	472	0	0	
6	0	0	0	0	540	407	1021	456	0	0	
7	0	0	0	0	516	409	1020	442	0	0	
8	0	0	0	0	496	420	1021	430	0	0	
9	0	0	0	0	479	438	1021	422	0	0	
10	0	0	0	0	469	463	1021	417	0	0	
11	0	0	0	0	466	490	1021	418	0	0	
12	0	0	0	0	471	518	1021	423	0	0	
13	0	0	0	0	482	543	1021	432	0	0	
14	0	0	0	0	499	563	1021	444	0	0	
15	0	0	0	0	521	576	1021	459	0	0	
0	0	0	0	0	544	582	1021	472	0	0	
1	0	0	0	0	568	579	1021	486	0	0	
2	0	0	0	0	588	568	1021	498	0	0	
3	0	0	0	0	605	549	1021	506	0	0	
4	0	0	0	0	615	525	1021	511	0	0	
5	0	0	0	0	619	498	1021	510	0	0	
6	0	0	0	0	615	471	1021	505	0	0	
7	0	0	0	0	604	446	1021	497	0	0	
8	0	0	0	0	588	426	1021	486	0	0	
9	0	0	0	0	567	413	1021	472	0	0	
10	0	0	0	0	545	408	1021	459	0	0	
11	0	0	0	0	522	411	1021	446	0	0	
12	0	0	0	0	502	422	1021	435	0	0	
13	0	0	0	0	486	440	1021	427	0	0	
14	0	0	0	0	475	465	1021	423	0	0	
15	0	0	0	0	472	493	1021	424	0	0	
0	0	0	0	0	477	521	1021	430	0	0	
1	0	0	0	0	488	546	1021	439	0	0	
2	0	0	0	0	506	567	1021	451	0	0	
3	0	0	0	0	527	580	1021	465	0	0	
4	0	0	0	0	551	585	1021	480	0	0	
5	0	0	0	0	574	583	1020	493	0	0	
6	0	0	0	0	595	572	1021	505	0	0	
7	0	0	0	0	611	554	1021	513	0	0	
8	0	0	0	0	622	531	1021	518	0	0	
9	0	0	0	0	626	504	1021	517	0	0	
10	0	0	0	0	622	477	1020	512	0	0	
11	0	0	0	0	610	452	1021	503	0	0	
12	0	0	0	0	593	431	1021	491	0	0	
13	0	0	0	0	572	417	1021	478	0	0	
14	0	0	0	0	548	412	1021	463	0	0	
15	0	0	0	0	525	414	1021	449	0	0	
0	0	0	0	0	504	425	1021	438	0	0	
1	0	0	0	0	487	444	1021	430	0	0	
2	0	0	0	0	476	468	1021	426	0	0	
3	0	0	0	0	473	497	1021	427	0	0	
4	0	0	0	0	479	526	1021	433	0	0	
5	0	0	0	0	491	553	1021	443	0	0	
6	0	0	0	0	510	575	1021	456	0	0	
7	0	0	0	0	534	591	1021	472	0	0	
8	0	0	0	0	558	598	1021	487	0	0	
9	0	0	0	0	584	598	1021	503	0	0	
10	0	0	0	0	606	588	1021	515	0	0	
11	0	0	0	0	624	571	1021	524	0	0	
12	0	0	0	0	636	548	1021	529	0	0	
13	0	0	0	0	639	521	1021	528	0	0	
14	0	0	0	0	635	493	1021	522	0	0	
15	0	0	0	0	624	467	1021	512	0	0	
0	0	0	0	0	605	444	1021	499	0	0	
1	0	0	0	0	583	429	1021	483	0	0	
2	0	0	0	0	557	421	1021	467	0	0	
3	0	0	0	0	532	422	1021	452	0	0	
4	0	0	0	0	509	430	1021	439	0	0	
5	0	0	0	0	490	447	1021	430	0	0	
6	0	0	0	0	478	470	1021	425	0	0	
7	0	0	0	0	474	496	1021	425	0	0	
8	0	0	0	0	478	524	1021	431	0	0	
9	0	0	0	0	489	550	1021	441	0	0	
10	0	0	0	0	508	572	1021	455	0	0	
11	0	0	0	0	531	588	1021	471	0	0	
12	0	0	0	0	557	596	1021	487	0	0	
13	0	0	0	0	583	596	1021	503	0	0	
14	0	0	0	0	606	588	1021	517	0	0	
15	0	0	0	0	625	572	1021	526	0	0	
0	0	0	0	0	638	550	1021	532	0	0	
1	0	0	0	0	642	524	1021	531	0	0	
2	0	0	0	0	639	497	1021	526	0	0	
3	0	0	0	0	627	472	1021	516	0	0	
4	0	0	0	0	608	450	1021	502	0	0	
5	0	0	0	0	586	435	1021	487	0	0	
6	0	0	0	0	560	427	1021	470	0	0	
7	0	0	0	0	535	428	1021	455	0	0	
8	0	0	0	0	511	437	1021	442	0	0	
9	0	0	0	0	492	453	1021	432	0	0	
10	0	0	0	0	480	476	1021	428	0	0	
11	0	0	0	0	475	503	1021	428	0	0	
12	0	0	0	0	478	530	1021	434	0	0	
13	0	0	0	0	490	555	1021	444	0	0	
14	0	0	0	0	508	576	1021	457	0	0	
15	0	0	0	0	530	591	1021	473	0	0	
0	0	0	0	0	555	598	1021	489	0	0	
1	0	0	0	0	580	596	1021	504	0	0	
2	0	0	0	0	603	587	1021	518	0	0	
3	0	0	0	0	621	569	1021	527	0	0	
4	0	0	0	0	633	547	1021	533	0	0	
5	0	0	0	0	639	521	1021	533	0	0	
6	0	0	0	0	636	494	1021	528	0	0	
7	0	0	0	0	626	470	1021	519	0	0	
8	0	0	0	0	609	449	1021	507	0	0	
9	0	0	0	0	588	435	1021	492	0	0	
10	0	0	0	0	564	428	1021	477	0	0	
11	0	0	0	0	540	430	1020	462	0	0	
12	0	0	0	0	518	440	1021	448	0	0	
13	0	0	0	0	499	456	1021	439	0	0	
14	0	0	0	0	487	479	1021	433	0	0	
15	0	0	0	0	481	505	1021	431	0	0	
0	0	0	0	0	482	531	1021	433	0	0	
1	0	0	0	0	490	553	1021	440	0	0	
2	0	0	0	0	504	571	1021	449	0	0	
3	0	0	0	0	521	582	1021	460	0	0	
4	0	0	0	0	540	583	1021	470	0	0	
5	0	0	0	0	558	576	1021	479	0	0	
6	0	0	0	0	574	560	1021	485	0	0	
7	0	0	0	0	584	536	1021	486	0	0	
8	0	0	0	0	588	505	1021	484	0	0	
9	0	0	0	0	584	471	1021	475	0	0	
10	0	0	0	0	572	436	1020	461	0	0	
11	0	0	0	0	552	402	1021	443	0	0	
12	0	0	0	0	527	372	1021	422	0	0	
13	0	0	0	0	496	350	1021	399	0	0	
14	0	0	0	0	464	334	1021	375	0	0	
15	0	0	0	0	431	327	1020	352	0	0	
0	0	0	0	0	400	328	1021	331	0	0	
1	0	0	0	0	373	336	1021	312	0	0	
2	0	0	0	0	352	351	1021	298	0	0	
3	0	0	0	0	337	369	1021	288	0	0	
4	0	0	0	0	330	388	1021	283	0	0	
5	0	0	0	0	332	405	1021	283	0	0	
6	0	0	0	0	339	417	1021	286	0	0	
7	0	0	0	0	352	423	1021	292	0	0	
8	0	0	0	0	370	423	1021	300	0	0	
9	0	0	0	0	389	414	1021	309	0	0	
10	0	0	0	0	408	399	1021	318	0	0	
11	0	0	0	0	425	379	1021	326	0	0	
12	0	0	0	0	438	354	1021	332	0	0	
13	0	0	0	0	447	328	1021	335	0	0	
14	0	0	0	0	449	304	1021	336	0	0	
15	0	0	0	0	447	284	1021	335	0	0	
0	0	0	0	0	441	271	1021	333	0	0	
1	0	0	0	0	432	267	1021	331	0	0	
2	0	0	0	0	423	272	1021	329	0	0	
3	0	0	0	0	414	287	1021	329	0	0	
4	0	0	0	0	408	313	1021	332	0	0	
5	0	0	0	0	408	347	1021	340	0	0	
6	0	0	0	0	413	389	1021	352	0	0	
7	0	0	0	0	426	435	1021	369	0	0	
8	0	0	0	0	446	481	1021	391	0	0	
9	0	0	0	0	473	525	1021	416	0	0	
10	0	0	0	0	505	563	1021	443	0	0	
11	0	0	0	0	539	592	1021	471	0	0	
12	0	0	0	0	574	611	1021	498	0	0	
13	0	0	0	0	607	620	1021	523	0	0	
14	0	0	0	0	635	617	1021	542	0	0	
15	0	0	0	0	656	604	1021	556	0	0	
0	0	0	0	0	670	583	1021	563	0	0	
1	0	0	0	0	674	555	1021	563	0	0	
2	0	0	0	0	668	524	1020	556	0	0	
3	0	0	0	0	652	494	1021	543	0	0	
4	0	0	0	0	630	467	1021	526	0	0	
5	0	0	0	0	602	447	1021	507	0	0	
6	0	0	0	0	572	433	1021	486	0	0	
7	0	0	0	0	541	430	1021	466	0	0	
8	0	0	0	0	514	435	1021	449	0	0	
9	0	0	0	0	492	449	1021	437	0	0	
10	0	0	0	0	478	471	1021	430	0	0	
11	0	0	0	0	473	497	1021	429	0	0	
12	0	0	0	0	476	526	1020	433	0	0	
13	0	0	0	0	489	553	1021	443	0	0	
14	0	0	0	0	509	576	1021	456	0	0	
15	0	0	0	0	534	593	1021	472	0	0	
0	0	0	0	0	561	603	1021	489	0	0	
1	0	0	0	0	588	603	1021	506	0	0	
2	0	0	0	0	613	596	1021	520	0	0	
3	0	0	0	0	634	581	1021	531	0	0	
4	0	0	0	0	647	560	1021	537	0	0	
5	0	0	0	0	654	534	1021	539	0	0	
6	0	0	0	0	651	507	1020	535	0	0	
7	0	0	0	0	641	482	1020	527	0	0	
8	0	0	0	0	624	461	1021	515	0	0	
9	0	0	0	0	602	446	1021	502	0	0	
10	0	0	0	0	577	438	1021	486	0	0	
11	0	0	0	0	551	439	1020	472	0	0	
12	0	0	0	0	529	448	1021	460	0	0	
13	0	0	0	0	510	465	1021	451	0	0	
14	0	0	0	0	497	487	1021	447	0	0	
15	0	0	0	0	492	515	1021	447	0	0	
0	0	0	0	0	495	543	1021	452	0	0	
1	0	0	0	0	505	568	1021	462	0	0	
2	0	0	0	0	523	590	1021	475	0	0	
3	0	0	0	0	544	605	1021	489	0	0	
4	0	0	0	0	569	612	1021	504	0	0	
5	0	0	0	0	592	611	1021	518	0	0	
6	0	0	0	0	615	602	1021	530	0	0	
7	0	0	0	0	633	585	1021	539	0	0	
8	0	0	0	0	645	563	1021	543	0	0	
9	0	0	0	0	650	536	1021	543	0	0	
10	0	0	0	0	647	508	1021	537	0	0	
11	0	0	0	0	637	482	1021	528	0	0	
12	0	0	0	0	621	460	1021	515	0	0	
13	0	0	0	0	600	445	1021	502	0	0	
14	0	0	0	0	576	438	1021	487	0	0	
15	0	0	0	0	551	439	1021	472	0	0	
0	0	0	0	0	530	448	1021	460	0	0	
1	0	0	0	0	512	466	1021	452	0	0	
2	0	0	0	0	500	489	1021	448	0	0	
3	0	0	0	0	496	517	1021	449	0	0	
4	0	0	0	0	499	546	1021	454	0	0	
5	0	0	0	0	511	573	1021	464	0	0	
6	0	0	0	0	528	596	1021	477	0	0	
7	0	0	0	0	550	612	1021	493	0	0	
8	0	0	0	0	575	621	1021	508	0	0	
9	0	0	0	0	599	620	1021	523	0	0	
10	0	0	0	0	622	612	1021	535	0	0	
11	0	0	0	0	640	596	1021	544	0	0	
12	0	0	0	0	652	573	1021	549	0	0	
13	0	0	0	0	657	546	1021	549	0	0	
14	0	0	0	0	654	518	1021	543	0	0	
15	0	0	0	0	643	491	1021	535	0	0	
0	0	0	0	0	626	468	1021	521	0	0	
1	0	0	0	0	604	451	1021	507	0	0	
2	0	0	0	0	579	442	1021	491	0	0	
3	0	0	0	0	553	441	1021	475	0	0	
4	0	0	0	0	529	449	1021	462	0	0	
5	0	0	0	0	509	464	1021	451	0	0	
6	0	0	0	0	495	487	1021	445	0	0	
7	0	0	0	0	487	512	1021	444	0	0	
8	0	0	0	0	489	540	1021	448	0	0	
9	0	0	0	0	499	566	1021	456	0	0	
10	0	0	0	0	515	588	1021	468	0	0	
11	0	0	0	0	537	604	1021	483	0	0	
12	0	0	0	0	561	612	1021	498	0	0	
13	0	0	0	0	587	612	1021	513	0	0	
14	0	0	0	0	609	604	1021	526	0	0	
15	0	0	0	0	629	588	1021	535	0	0	
0	0	0	0	0	642	565	1021	540	0	0	
1	0	0	0	0	647	539	1021	540	0	0	
2	0	0	0	0	646	511	1021	535	0	0	
3	0	0	0	0	636	484	1021	525	0	0	
4	0	0	0	0	619	462	1021	512	0	0	
5	0	0	0	0	597	446	1021	497	0	0	
6	0	0	0	0	572	437	1021	481	0	0	
7	0	0	0	0	547	437	1021	466	0	0	
8	0	0	0	0	524	445	1021	452	0	0	
9	0	0	0	0	504	461	1021	443	0	0	
10	0	0	0	0	491	483	1021	437	0	0	
11	0	0	0	0	485	510	1021	437	0	0	
12	0	0	0	0	488	538	1021	442	0	0	
13	0	0	0	0	499	565	1021	451	0	0	
14	0	0	0	0	517	587	1021	464	0	0	
15	0	0	0	0	540	603	1021	480	0	0	
0	0	0	0	0	566	612	1021	496	0	0	
1	0	0	0	0	591	612	1020	511	0	0	
2	0	0	0	0	615	604	1021	524	0	0	
3	0	0	0	0	635	588	1021	535	0	0	
4	0	0	0	0	648	567	1021	541	0	0	
5	0	0	0	0	654	541	1021	542	0	0	
6	0	0	0	0	651	513	1021	537	0	0	
7	0	0	0	0	641	487	1021	528	0	0	
8	0	0	0	0	624	465	1021	515	0	0	
9	0	0	0	0	601	449	1021	501	0	0	
10	0	0	0	0	576	440	1021	484	0	0	
11	0	0	0	0	550	440	1021	469	0	0	
12	0	0	0	0	525	448	1021	455	0	0	
13	0	0	0	0	505	463	1021	445	0	0	
14	0	0	0	0	491	485	1021	440	0	0	
15	0	0	0	0	484	511	1021	439	0	0	
0	0	0	0	0	486	539	1021	443	0	0	
1	0	0	0	0	496	565	1021	451	0	0	
2	0	0	0	0	512	587	1021	464	0	0	
3	0	0	0	0	534	602	1021	478	0	0	
4	0	0	0	0	559	610	1021	494	0	0	
5	0	0	0	0	584	611	1020	508	0	0	
6	0	0	0	0	607	602	1021	521	0	0	
7	0	0	0	0	627	586	1021	531	0	0	
8	0	0	0	0	641	564	1021	537	0	0	
9	0	0	0	0	648	538	1021	538	0	0	
10	0	0	0	0	647	511	1021	533	0	0	
11	0	0	0	0	638	484	1021	524	0	0	
12	0	0	0	0	622	462	1021	512	0	0	
13	0	0	0	0	601	446	1021	497	0	0	
14	0	0	0	0	577	438	1021	481	0	0	
15	0	0	0	0	552	438	1021	466	0	0	
0	0	0	0	0	528	446	1021	454	0	0	
1	0	0	0	0	508	462	1021	444	0	0	
2	0	0	0	0	495	484	1021	439	0	0	
3	0	0	0	0	487	511	1021	438	0	0	
4	0	0	0	0	489	539	1020	442	0	0	
5	0	0	0	0	497	565	1021	450	0	0	
6	0	0	0	0	513	586	1021	463	0	0	
7	0	0	0	0	534	601	1021	477	0	0	
8	0	0	0	0	557	608	1021	491	0	0	
9	0	0	0	0	581	608	1020	505	0	0	
10	0	0	0	0	604	599	1021	518	0	0	
11	0	0	0	0	623	582	1021	527	0	0	
12	0	0	0	0	636	560	1021	532	0	0	
13	0	0	0	0	643	533	1021	532	0	0	
14	0	0	0	0	641	505	1020	527	0	0	
15	0	0	0	0	632	479	1021	519	0	0	
0	0	0	0	0	616	456	1021	507	0	0	
1	0	0	0	0	596	441	1021	492	0	0	
2	0	0	0	0	573	433	1021	477	0	0	
3	0	0	0	0	548	433	1021	462	0	0	
4	0	0	0	0	525	441	1021	450	0	0	
5	0	0	0	0	505	457	1021	440	0	0	
6	0	0	0	0	492	480	1021	435	0	0	
7	0	0	0	0	485	507	1021	434	0	0	
8	0	0	0	0	486	535	1020	438	0	0	
9	0	0	0	0	495	561	1021	447	0	0	
10	0	0	0	0	511	582	1021	458	0	0	
11	0	0	0	0	531	597	1021	471	0	0	
12	0	0	0	0	554	604	1021	486	0	0	
13	0	0	0	0	578	604	1021	501	0	0	
14	0	0	0	0	600	595	1021	513	0	0	
15	0	0	0	0	620	578	1021	523	0	0	
0	0	0	0	0	633	556	1021	529	0	0	
1	0	0	0	0	640	529	1021	530	0	0	
2	0	0	0	0	639	503	1020	526	0	0	
3	0	0	0	0	631	477	1021	518	0	0	
4	0	0	0	0	616	455	1021	507	0	0	
5	0	0	0	0	596	441	1021	494	0	0	
6	0	0	0	0	573	433	1021	479	0	0	
7	0	0	0	0	548	433	1021	464	0	0	
8	0	0	0	0	525	441	1021	450	0	0	
9	0	0	0	0	505	456	1021	440	0	0	
10	0	0	0	0	491	478	1021	433	0	0	
11	0	0	0	0	483	504	1021	431	0	0	
12	0	0	0	0	483	531	1020	433	0	0	
13	0	0	0	0	491	556	1021	441	0	0	
14	0	0	0	0	506	577	1021	452	0	0	
15	0	0	0	0	527	592	1021	466	0	0	
0	0	0	0	0	551	601	1021	482	0	0	
1	0	0	0	0	575	602	1021	498	0	0	
2	0	0	0	0	599	595	1021	511	0	0	
3	0	0	0	0	619	580	1021	522	0	0	
4	0	0	0	0	633	559	1021	529	0	0	
5	0	0	0	0	641	534	1021	531	0	0	
6	0	0	0	0	640	507	1020	528	0	0	
7	0	0	0	0	632	481	1021	520	0	0	
8	0	0	0	0	616	459	1021	509	0	0	
9	0	0	0	0	595	443	1021	496	0	0	
10	0	0	0	0	571	434	1021	480	0	0	
11	0	0	0	0	545	433	1021	465	0	0	
12	0	0	0	0	522	440	1021	452	0	0	
13	0	0	0	0	502	455	1021	441	0	0	
14	0	0	0	0	487	477	1021	434	0	0	
15	0	0	0	0	480	503	1021	432	0	0	
0	0	0	0	0	481	530	1021	435	0	0	
1	0	0	0	0	490	556	1021	442	0	0	
2	0	0	0	0	505	577	1021	454	0	0	
3	0	0	0	0	526	593	1021	467	0	0	
4	0	0	0	0	550	601	1021	482	0	0	
5	0	0	0	0	574	601	1020	496	0	0	
6	0	0	0	0	595	592	1021	509	0	0	
7	0	0	0	0	614	575	1021	519	0	0	
8	0	0	0	0	627	553	1021	525	0	0	
9	0	0	0	0	633	526	1021	525	0	0	
10	0	0	0	0	631	498	1020	520	0	0	
11	0	0	0	0	621	472	1021	511	0	0	
12	0	0	0	0	605	449	1021	499	0	0	
13	0	0	0	0	584	432	1021	485	0	0	
14	0	0	0	0	560	424	1021	470	0	0	
15	0	0	0	0	536	423	1021	455	0	0	
0	0	0	0	0	513	432	1021	441	0	0	
1	0	0	0	0	494	447	1021	431	0	0	
2	0	0	0	0	481	470	1021	426	0	0	
3	0	0	0	0	476	497	1021	425	0	0	
4	0	0	0	0	478	525	1021	429	0	0	
5	0	0	0	0	488	552	1021	438	0	0	
6	0	0	0	0	505	575	1021	450	0	0	
7	0	0	0	0	526	591	1021	464	0	0	
8	0	0	0	0	550	600	1021	480	0	0	
9	0	0	0	0	575	600	1021	495	0	0	
10	0	0	0	0	597	591	1021	507	0	0	
11	0	0	0	0	615	575	1021	517	0	0	
12	0	0	0	0	628	553	1021	523	0	0	
13	0	0	0	0	634	527	1021	524	0	0	
14	0	0	0	0	631	499	1020	519	0	0	
15	0	0	0	0	622	472	1021	511	0	0	
0	0	0	0	0	605	451	1021	499	0	0	
1	0	0	0	0	583	435	1021	485	0	0	
2	0	0	0	0	559	426	1021	470	0	0	
3	0	0	0	0	533	426	1021	455	0	0	
4	0	0	0	0	510	434	1021	441	0	0	
5	0	0	0	0	490	450	1021	431	0	0	
6	0	0	0	0	476	472	1021	425	0	0	
7	0	0	0	0	470	499	1021	423	0	0	
8	0	0	0	0	472	527	1021	428	0	0	
9	0	0	0	0	482	554	1021	436	0	0	
10	0	0	0	0	499	576	1021	449	0	0	
11	0	0	0	0	522	592	1021	464	0	0	
12	0	0	0	0	547	601	1021	480	0	0	
13	0	0	0	0	573	602	1020	496	0	0	
14	0	0	0	0	597	594	1021	510	0	0	
15	0	0	0	0	618	579	1021	521	0	0	
0	0	0	0	0	632	558	1021	528	0	0	
1	0	0	0	0	640	532	1021	529	0	0	
2	0	0	0	0	639	505	1020	526	0	0	
3	0	0	0	0	632	480	1020	518	0	0	
4	0	0	0	0	616	457	1021	507	0	0	
5	0	0	0	0	595	441	1021	493	0	0	
6	0	0	0	0	572	433	1021	478	0	0	
7	0	0	0	0	547	432	1021	462	0	0	
8	0	0	0	0	523	440	1021	449	0	0	
9	0	0	0	0	504	455	1021	439	0	0	
10	0	0	0	0	489	477	1021	432	0	0	
11	0	0	0	0	482	503	1021	431	0	0	
12	0	0	0	0	483	531	1020	434	0	0	
13	0	0	0	0	491	557	1021	442	0	0	
14	0	0	0	0	507	579	1021	455	0	0	
15	0	0	0	0	527	595	1021	469	0	0	
0	0	0	0	0	551	604	1021	485	0	0	
1	0	0	0	0	575	604	1021	500	0	0	
2	0	0	0	0	598	596	1021	515	0	0	
3	0	0	0	0	618	581	1021	526	0	0	
4	0	0	0	0	632	560	1021	533	0	0	
5	0	0	0	0	639	534	1021	535	0	0	
6	0	0	0	0	639	507	1021	532	0	0	
7	0	0	0	0	630	481	1021	524	0	0	
8	0	0	0	0	616	459	1021	513	0	0	
9	0	0	0	0	596	442	1021	499	0	0	
10	0	0	0	0	572	433	1021	484	0	0	
11	0	0	0	0	548	432	1020	468	0	0	
12	0	0	0	0	524	439	1021	454	0	0	
13	0	0	0	0	505	453	1021	444	0	0	
14	0	0	0	0	491	474	1021	437	0	0	
15	0	0	0	0	484	499	1021	435	0	0	
0	0	0	0	0	485	527	1021	438	0	0	
1	0	0	0	0	494	553	1021	446	0	0	
2	0	0	0	0	510	575	1021	457	0	0	
3	0	0	0	0	531	592	1021	471	0	0	
4	0	0	0	0	555	601	1021	486	0	0	
5	0	0	0	0	580	603	1021	502	0	0	
6	0	0	0	0	604	596	1021	515	0	0	
7	0	0	0	0	624	582	1021	526	0	0	
8	0	0	0	0	639	561	1021	533	0	0	
9	0	0	0	0	647	536	1021	534	0	0	
10	0	0	0	0	647	510	1020	532	0	0	
11	0	0	0	0	639	484	1021	524	0	0	
12	0	0	0	0	625	463	1021	514	0	0	
13	0	0	0	0	604	447	1021	501	0	0	
14	0	0	0	0	581	438	1021	486	0	0	
15	0	0	0	0	556	438	1020	472	0	0	
0	0	0	0	0	532	444	1021	459	0	0	
1	0	0	0	0	511	460	1021	448	0	0	
2	0	0	0	0	496	481	1021	442	0	0	
3	0	0	0	0	489	507	1021	441	0	0	
4	0	0	0	0	488	533	1021	444	0	0	
5	0	0	0	0	497	558	1021	451	0	0	
6	0	0	0	0	511	580	1021	462	0	0	
7	0	0	0	0	531	595	1021	475	0	0	
8	0	0	0	0	555	603	1021	489	0	0	
9	0	0	0	0	578	603	1021	504	0	0	
10	0	0	0	0	600	595	1021	516	0	0	
11	0	0	0	0	620	578	1021	525	0	0	
12	0	0	0	0	633	556	1021	531	0	0	
13	0	0	0	0	640	530	1021	532	0	0	
14	0	0	0	0	639	502	1021	528	0	0	
15	0	0	0	0	631	477	1021	521	0	0	
0	0	0	0	0	616	455	1021	509	0	0	
1	0	0	0	0	597	439	1021	496	0	0	
2	0	0	0	0	574	431	1021	482	0	0	
3	0	0	0	0	550	430	1021	467	0	0	
4	0	0	0	0	527	438	1021	455	0	0	
5	0	0	0	0	507	453	1021	444	0	0	
6	0	0	0	0	493	475	1021	439	0	0	
7	0	0	0	0	486	502	1021	437	0	0	
8	0	0	0	0	487	530	1020	440	0	0	
9	0	0	0	0	496	557	1021	449	0	0	
10	0	0	0	0	511	579	1021	461	0	0	
11	0	0	0	0	532	596	1021	476	0	0	
12	0	0	0	0	556	606	1021	492	0	0	
13	0	0	0	0	582	607	1021	508	0	0	
14	0	0	0	0	605	600	1021	521	0	0	
15	0	0	0	0	625	585	1021	532	0	0	
0	0	0	0	0	640	564	1021	539	0	0	
1	0	0	0	0	647	539	1021	540	0	0	
2	0	0	0	0	647	511	1020	537	0	0	
3	0	0	0	0	638	485	1021	528	0	0	
4	0	0	0	0	622	462	1021	516	0	0	
5	0	0	0	0	600	444	1021	502	0	0	
6	0	0	0	0	575	434	1021	485	0	0	
7	0	0	0	0	548	432	1021	469	0	0	
8	0	0	0	0	523	440	1021	454	0	0	
9	0	0	0	0	502	454	1021	443	0	0	
10	0	0	0	0	487	475	1021	436	0	0	
11	0	0	0	0	479	501	1021	434	0	0	
12	0	0	0	0	480	529	1020	437	0	0	
13	0	0	0	0	488	555	1021	445	0	0	
14	0	0	0	0	504	577	1021	456	0	0	
15	0	0	0	0	526	594	1021	471	0	0	
0	0	0	0	0	550	603	1021	486	0	0	
1	0	0	0	0	575	604	1021	502	0	0	
2	0	0	0	0	598	596	1021	515	0	0	
3	0	0	0	0	618	582	1021	525	0	0	
4	0	0	0	0	632	560	1021	532	0	0	
5	0	0	0	0	639	535	1021	533	0	0	
6	0	0	0	0	638	508	1020	530	0	0	
7	0	0	0	0	628	482	1020	522	0	0	
8	0	0	0	0	613	460	1021	511	0	0	
9	0	0	0	0	592	444	1021	497	0	0	
10	0	0	0	0	568	434	1021	481	0	0	
11	0	0	0	0	543	433	1020	467	0	0	
12	0	0	0	0	519	440	1021	453	0	0	
13	0	0	0	0	500	455	1021	443	0	0	
14	0	0	0	0	486	476	1021	437	0	0	
15	0	0	0	0	480	502	1021	435	0	0	
0	0	0	0	0	481	529	1021	439	0	0	
1	0	0	0	0	491	556	1021	446	0	0	
2	0	0	0	0	508	578	1021	458	0	0	
3	0	0	0	0	530	594	1021	472	0	0	
4	0	0	0	0	555	603	1021	487	0	0	
5	0	0	0	0	580	604	1020	502	0	0	
6	0	0	0	0	604	595	1021	515	0	0	
7	0	0	0	0	623	580	1021	525	0	0	
8	0	0	0	0	636	558	1021	531	0	0	
9	0	0	0	0	641	532	1021	532	0	0	
10	0	0	0	0	639	504	1021	528	0	0	
11	0	0	0	0	629	477	1021	519	0	0	
12	0	0	0	0	612	454	1021	508	0	0	
13	0	0	0	0	591	438	1021	495	0	0	
14	0	0	0	0	566	428	1021	480	0	0	
15	0	0	0	0	540	427	1020	464	0	0	
0	0	0	0	0	517	435	1021	452	0	0	
1	0	0	0	0	497	450	1021	442	0	0	
2	0	0	0	0	483	472	1021	436	0	0	
3	0	0	0	0	478	499	1021	436	0	0	
4	0	0	0	0	480	527	1021	440	0	0	
5	0	0	0	0	490	554	1021	448	0	0	
6	0	0	0	0	507	577	1021	461	0	0	
7	0	0	0	0	528	594	1021	476	0	0	
8	0	0	0	0	553	604	1021	491	0	0	
9	0	0	0	0	579	605	1020	507	0	0	
10	0	0	0	0	602	598	1021	520	0	0	
11	0	0	0	0	622	583	1021	530	0	0	
12	0	0	0	0	636	561	1021	537	0	0	
13	0	0	0	0	643	536	1021	538	0	0	
14	0	0	0	0	641	508	1021	535	0	0	
15	0	0	0	0	632	481	1021	526	0	0	
0	0	0	0	0	617	457	1021	515	0	0	
1	0	0	0	0	596	440	1021	502	0	0	
2	0	0	0	0	572	431	1021	486	0	0	
3	0	0	0	0	546	430	1021	472	0	0	
4	0	0	0	0	522	437	1021	458	0	0	
5	0	0	0	0	502	451	1021	448	0	0	
6	0	0	0	0	487	473	1021	442	0	0	
7	0	0	0	0	480	499	1021	440	0	0	
8	0	0	0	0	481	527	1021	444	0	0	
9	0	0	0	0	490	555	1021	451	0	0	
10	0	0	0	0	507	578	1021	463	0	0	
11	0	0	0	0	527	595	1021	478	0	0	
12	0	0	0	0	552	605	1021	493	0	0	
13	0	0	0	0	577	606	1021	508	0	0	
14	0	0	0	0	601	600	1021	521	0	0	
15	0	0	0	0	622	585	1021	531	0	0	
0	0	0	0	0	637	564	1021	538	0	0	
1	0	0	0	0	645	539	1021	540	0	0	
2	0	0	0	0	645	511	1021	536	0	0	
3	0	0	0	0	638	484	1021	529	0	0	
4	0	0	0	0	623	462	1021	517	0	0	
5	0	0	0	0	603	444	1021	504	0	0	
6	0	0	0	0	579	435	1021	488	0	0	
7	0	0	0	0	554	433	1021	474	0	0	
8	0	0	0	0	531	440	1021	461	0	0	
9	0	0	0	0	510	455	1021	451	0	0	
10	0	0	0	0	496	477	1021	446	0	0	
11	0	0	0	0	488	503	1021	445	0	0	
12	0	0	0	0	488	531	1021	449	0	0	
13	0	0	0	0	497	559	1021	458	0	0	
14	0	0	0	0	513	582	1021	471	0	0	
15	0	0	0	0	534	600	1021	486	0	0	
0	0	0	0	0	559	610	1021	502	0	0	
1	0	0	0	0	584	612	1021	517	0	0	
2	0	0	0	0	609	606	1021	531	0	0	
3	0	0	0	0	630	592	1021	541	0	0	
4	0	0	0	0	644	572	1021	547	0	0	
5	0	0	0	0	652	547	1021	548	0	0	
6	0	0	0	0	652	519	1021	545	0	0	
7	0	0	0	0	644	493	1021	537	0	0	
8	0	0	0	0	629	470	1021	525	0	0	
9	0	0	0	0	608	453	1021	511	0	0	
10	0	0	0	0	583	443	1021	495	0	0	
11	0	0	0	0	558	441	1020	479	0	0	
12	0	0	0	0	534	447	1021	466	0	0	
13	0	0	0	0	513	460	1021	455	0	0	
14	0	0	0	0	498	481	1021	448	0	0	
15	0	0	0	0	490	507	1021	446	0	0	
0	0	0	0	0	489	534	1021	449	0	0	
1	0	0	0	0	498	559	1021	457	0	0	
2	0	0	0	0	513	582	1021	468	0	0	
3	0	0	0	0	534	598	1021	482	0	0	
4	0	0	0	0	558	608	1021	496	0	0	
5	0	0	0	0	582	609	1021	511	0	0	
6	0	0	0	0	606	601	1021	524	0	0	
7	0	0	0	0	626	588	1021	535	0	0	
8	0	0	0	0	640	567	1021	541	0	0	
9	0	0	0	0	648	541	1021	542	0	0	
10	0	0	0	0	648	514	1021	539	0	0	
11	0	0	0	0	640	487	1021	531	0	0	
12	0	0	0	0	626	466	1021	520	0	0	
13	0	0	0	0	605	449	1021	507	0	0	
14	0	0	0	0	582	441	1021	492	0	0	
15	0	0	0	0	557	440	1021	477	0	0	
0	0	0	0	0	533	447	1021	464	0	0	
1	0	0	0	0	513	462	1021	453	0	0	
2	0	0	0	0	497	483	1021	447	0	0	
3	0	0	0	0	489	509	1021	445	0	0	
4	0	0	0	0	489	536	1021	447	0	0	
5	0	0	0	0	497	561	1021	455	0	0	
6	0	0	0	0	511	583	1021	466	0	0	
7	0	0	0	0	531	599	1021	479	0	0	
8	0	0	0	0	553	608	1021	494	0	0	
9	0	0	0	0	577	608	1021	508	0	0	
10	0	0	0	0	600	600	1021	520	0	0	
11	0	0	0	0	619	584	1021	530	0	0	
12	0	0	0	0	632	562	1021	536	0	0	
13	0	0	0	0	639	536	1021	537	0	0	
14	0	0	0	0	639	508	1020	533	0	0	
15	0	0	0	0	631	481	1020	526	0	0	
0	0	0	0	0	616	457	1021	514	0	0	
1	0	0	0	0	596	440	1021	501	0	0	
2	0	0	0	0	573	431	1021	487	0	0	
3	0	0	0	0	549	430	1021	472	0	0	
4	0	0	0	0	526	438	1021	460	0	0	
5	0	0	0	0	507	453	1021	450	0	0	
6	0	0	0	0	493	476	1021	445	0	0	
7	0	0	0	0	486	502	1021	444	0	0	
8	0	0	0	0	487	531	1021	448	0	0	
9	0	0	0	0	496	559	1020	456	0	0	
10	0	0	0	0	512	583	1021	468	0	0	
11	0	0	0	0	533	600	1021	483	0	0	
12	0	0	0	0	557	611	1021	498	0	0	
13	0	0	0	0	582	613	1020	513	0	0	
14	0	0	0	0	604	606	1020	526	0	0	
15	0	0	0	0	624	591	1021	536	0	0	
0	0	0	0	0	637	570	1021	543	0	0	
1	0	0	0	0	643	543	1021	543	0	0	
2	0	0	0	0	641	515	1020	540	0	0	
3	0	0	0	0	632	487	1020	531	0	0	
4	0	0	0	0	616	463	1021	519	0	0	
5	0	0	0	0	595	445	1021	505	0	0	
6	0	0	0	0	570	434	1021	490	0	0	
7	0	0	0	0	544	432	1021	474	0	0	
8	0	0	0	0	520	438	1021	460	0	0	
9	0	0	0	0	500	452	1021	450	0	0	
10	0	0	0	0	487	473	1021	444	0	0	
11	0	0	0	0	480	500	1021	443	0	0	
12	0	0	0	0	482	529	1020	447	0	0	
13	0	0	0	0	492	557	1021	456	0	0	
14	0	0	0	0	510	582	1021	469	0	0	
15	0	0	0	0	532	600	1021	484	0	0	
0	0	0	0	0	558	611	1021	500	0	0	
1	0	0	0	0	583	614	1021	515	0	0	
2	0	0	0	0	607	608	1021	529	0	0	
3	0	0	0	0	627	594	1021	539	0	0	
4	0	0	0	0	641	573	1021	545	0	0	
5	0	0	0	0	648	547	1021	547	0	0	
6	0	0	0	0	647	519	1021	542	0	0	
7	0	0	0	0	636	491	1021	534	0	0	
8	0	0	0	0	620	466	1021	521	0	0	
9	0	0	0	0	598	447	1021	507	0	0	
10	0	0	0	0	573	436	1021	491	0	0	
11	0	0	0	0	546	432	1021	475	0	0	
12	0	0	0	0	521	438	1021	462	0	0	
13	0	0	0	0	500	451	1021	451	0	0	
14	0	0	0	0	485	471	1021	444	0	0	
15	0	0	0	0	477	497	1021	442	0	0	
0	0	0	0	0	477	524	1021	445	0	0	
1	0	0	0	0	486	551	1021	453	0	0	
2	0	0	0	0	502	574	1021	464	0	0	
3	0	0	0	0	524	591	1021	479	0	0	
4	0	0	0	0	548	602	1021	494	0	0	
5	0	0	0	0	574	604	1021	509	0	0	
6	0	0	0	0	598	598	1021	523	0	0	
7	0	0	0	0	619	584	1021	533	0	0	
8	0	0	0	0	633	564	1021	540	0	0	
9	0	0	0	0	641	539	1021	542	0	0	
10	0	0	0	0	641	512	1021	539	0	0	
11	0	0	0	0	632	485	1020	531	0	0	
12	0	0	0	0	617	462	1021	519	0	0	
13	0	0	0	0	596	444	1021	505	0	0	
14	0	0	0	0	572	434	1021	489	0	0	
15	0	0	0	0	547	431	1021	473	0	0	
0	0	0	0	0	521	437	1021	459	0	0	
1	0	0	0	0	501	450	1021	448	0	0	
2	0	0	0	0	485	471	1021	441	0	0	
3	0	0	0	0	476	496	1021	438	0	0	
4	0	0	0	0	476	523	1021	441	0	0	
5	0	0	0	0	483	550	1021	449	0	0	
6	0	0	0	0	499	573	1021	461	0	0	
7	0	0	0	0	519	590	1021	475	0	0	
8	0	0	0	0	543	600	1021	490	0	0	
9	0	0	0	0	569	603	1021	505	0	0	
10	0	0	0	0	593	596	1021	519	0	0	
11	0	0	0	0	615	583	1021	531	0	0	
12	0	0	0	0	630	563	1021	537	0	0	
13	0	0	0	0	639	539	1021	540	0	0	
14	0	0	0	0	640	512	1021	538	0	0	
15	0	0	0	0	634	486	1021	531	0	0	
0	0	0	0	0	621	465	1021	520	0	0	
1	0	0	0	0	602	449	1021	508	0	0	
2	0	0	0	0	579	440	1021	493	0	0	
3	0	0	0	0	555	439	1021	479	0	0	
4	0	0	0	0	532	447	1021	466	0	0	
5	0	0	0	0	513	462	1021	456	0	0	
6	0	0	0	0	498	483	1021	449	0	0	
7	0	0	0	0	491	510	1021	448	0	0	
8	0	0	0	0	492	538	1021	451	0	0	
9	0	0	0	0	500	564	1021	459	0	0	
10	0	0	0	0	515	588	1021	470	0	0	
11	0	0	0	0	534	604	1021	483	0	0	
12	0	0	0	0	557	613	1021	497	0	0	
13	0	0	0	0	580	614	1021	511	0	0	
14	0	0	0	0	602	606	1021	523	0	0	
15	0	0	0	0	620	591	1021	531	0	0	
0	0	0	0	0	633	569	1021	537	0	0	
1	0	0	0	0	639	542	1021	537	0	0	
2	0	0	0	0	638	514	1021	532	0	0	
3	0	0	0	0	630	487	1021	524	0	0	
4	0	0	0	0	615	463	1021	512	0	0	
5	0	0	0	0	594	445	1021	499	0	0	
6	0	0	0	0	571	435	1021	483	0	0	
7	0	0	0	0	546	433	1021	468	0	0	
8	0	0	0	0	522	439	1021	455	0	0	
9	0	0	0	0	503	453	1021	445	0	0	
10	0	0	0	0	489	474	1021	439	0	0	
11	0	0	0	0	482	500	1021	437	0	0	
12	0	0	0	0	483	528	1021	441	0	0	
13	0	0	0	0	492	556	1021	449	0	0	
14	0	0	0	0	508	579	1021	461	0	0	
15	0	0	0	0	530	597	1021	476	0	0	
0	0	0	0	0	554	608	1021	492	0	0	
1	0	0	0	0	579	611	1021	507	0	0	
2	0	0	0	0	603	605	1021	521	0	0	
3	0	0	0	0	624	591	1021	531	0	0	
4	0	0	0	0	639	571	1021	538	0	0	
5	0	0	0	0	646	545	1021	539	0	0	
6	0	0	0	0	646	518	1021	537	0	0	
7	0	0	0	0	637	492	1020	528	0	0	
8	0	0	0	0	623	467	1021	517	0	0	
9	0	0	0	0	602	450	1021	503	0	0	
10	0	0	0	0	578	440	1021	487	0	0	
11	0	0	0	0	552	438	1021	472	0	0	
12	0	0	0	0	528	444	1021	458	0	0	
13	0	0	0	0	508	458	1021	447	0	0	
14	0	0	0	0	493	480	1021	440	0	0	
15	0	0	0	0	484	505	1021	438	0	0	
0	0	0	0	0	484	533	1021	441	0	0	
1	0	0	0	0	492	560	1020	448	0	0	
2	0	0	0	0	507	583	1021	460	0	0	
3	0	0	0	0	526	600	1021	473	0	0	
4	0	0	0	0	549	609	1021	487	0	0	
5	0	0	0	0	573	609	1021	502	0	0	
6	0	0	0	0	595	602	1021	515	0	0	
7	0	0	0	0	615	587	1021	524	0	0	
8	0	0	0	0	628	565	1021	529	0	0	
9	0	0	0	0	634	538	1021	530	0	0	
10	0	0	0	0	633	510	1021	526	0	0	
11	0	0	0	0	624	482	1020	517	0	0	
12	0	0	0	0	609	457	1021	505	0	0	
13	0	0	0	0	588	439	1021	492	0	0	
14	0	0	0	0	564	428	1021	476	0	0	
15	0	0	0	0	540	426	1020	460	0	0	
0	0	0	0	0	515	432	1021	447	0	0	
1	0	0	0	0	495	445	1021	436	0	0	
2	0	0	0	0	481	466	1021	430	0	0	
3	0	0	0	0	473	492	1021	428	0	0	
4	0	0	0	0	474	520	1020	431	0	0	
5	0	0	0	0	482	547	1021	439	0	0	
6	0	0	0	0	498	571	1021	451	0	0	
7	0	0	0	0	519	589	1021	465	0	0	
8	0	0	0	0	544	600	1021	481	0	0	
9	0	0	0	0	570	602	1021	497	0	0	
10	0	0	0	0	593	597	1021	510	0	0	
11	0	0	0	0	615	583	1021	521	0	0	
12	0	0	0	0	630	563	1021	528	0	0	
13	0	0	0	0	638	537	1021	530	0	0	
14	0	0	0	0	637	509	1020	527	0	0	
15	0	0	0	0	629	482	1021	520	0	0	
0	0	0	0	0	614	458	1021	508	0	0	
1	0	0	0	0	593	440	1021	494	0	0	
2	0	0	0	0	568	428	1021	479	0	0	
3	0	0	0	0	543	425	1021	463	0	0	
4	0	0	0	0	518	431	1021	449	0	0	
5	0	0	0	0	497	444	1021	438	0	0	
6	0	0	0	0	481	465	1021	430	0	0	
7	0	0	0	0	472	490	1021	427	0	0	
8	0	0	0	0	472	518	1021	429	0	0	
9	0	0	0	0	480	545	1020	435	0	0	
10	0	0	0	0	496	569	1021	447	0	0	
11	0	0	0	0	516	587	1021	461	0	0	
12	0	0	0	0	541	598	1021	476	0	0	
13	0	0	0	0	567	601	1020	491	0	0	
14	0	0	0	0	591	596	1021	505	0	0	
15	0	0	0	0	613	582	1021	518	0	0	
0	0	0	0	0	629	562	1021	525	0	0	
1	0	0	0	0	638	536	1021	527	0	0	
2	0	0	0	0	638	509	1020	525	0	0	
3	0	0	0	0	632	482	1020	519	0	0	
4	0	0	0	0	618	458	1021	508	0	0	
5	0	0	0	0	598	440	1021	496	0	0	
6	0	0	0	0	575	430	1021	481	0	0	
7	0	0	0	0	551	427	1021	467	0	0	
8	0	0	0	0	527	433	1021	454	0	0	
9	0	0	0	0	506	448	1021	444	0	0	
10	0	0	0	0	491	469	1021	438	0	0	
11	0	0	0	0	483	496	1021	436	0	0	
12	0	0	0	0	483	524	1020	440	0	0	
13	0	0	0	0	491	552	1021	447	0	0	
14	0	0	0	0	507	577	1021	459	0	0	
15	0	0	0	0	527	595	1021	474	0	0	
0	0	0	0	0	551	607	1021	489	0	0	
1	0	0	0	0	576	609	1021	504	0	0	
2	0	0	0	0	600	604	1021	518	0	0	
3	0	0	0	0	621	590	1021	529	0	0	
4	0	0	0	0	636	569	1021	536	0	0	
5	0	0	0	0	643	543	1021	538	0	0	
6	0	0	0	0	644	515	1021	535	0	0	
7	0	0	0	0	637	487	1020	527	0	0	
8	0	0	0	0	623	463	1021	516	0	0	
9	0	0	0	0	602	444	1021	502	0	0	
10	0	0	0	0	578	431	1021	486	0	0	
11	0	0	0	0	552	427	1020	470	0	0	
12	0	0	0	0	527	431	1020	455	0	0	
13	0	0	0	0	506	444	1021	444	0	0	
14	0	0	0	0	490	463	1021	437	0	0	
15	0	0	0	0	481	489	1021	435	0	0	
0	0	0	0	0	480	516	1021	438	0	0	
1	0	0	0	0	488	543	1021	446	0	0	
2	0	0	0	0	503	568	1021	458	0	0	
3	0	0	0	0	523	587	1021	472	0	0	
4	0	0	0	0	547	599	1021	488	0	0	
5	0	0	0	0	572	603	1021	504	0	0	
6	0	0	0	0	597	599	1021	518	0	0	
7	0	0	0	0	618	586	1021	528	0	0	
8	0	0	0	0	634	567	1021	536	0	0	
9	0	0	0	0	643	542	1021	537	0	0	
10	0	0	0	0	644	515	1020	534	0	0	
11	0	0	0	0	636	488	1021	526	0	0	
12	0	0	0	0	622	464	1021	515	0	0	
13	0	0	0	0	601	446	1021	501	0	0	
14	0	0	0	0	577	435	1021	484	0	0	
15	0	0	0	0	551	431	1021	469	0	0	
0	0	0	0	0	526	436	1021	454	0	0	
1	0	0	0	0	504	448	1021	443	0	0	
2	0	0	0	0	487	467	1021	435	0	0	
3	0	0	0	0	477	491	1021	432	0	0	
4	0	0	0	0	476	518	1020	433	0	0	
5	0	0	0	0	482	543	1021	440	0	0	
6	0	0	0	0	496	566	1021	450	0	0	
7	0	0	0	0	516	583	1021	463	0	0	
8	0	0	0	0	540	593	1021	478	0	0	
9	0	0	0	0	566	595	1021	492	0	0	
10	0	0	0	0	590	590	1021	507	0	0	
11	0	0	0	0	611	577	1021	518	0	0	
12	0	0	0	0	627	558	1021	526	0	0	
13	0	0	0	0	638	534	1021	529	0	0	
14	0	0	0	0	639	508	1021	528	0	0	
15	0	0	0	0	634	484	1021	523	0	0	
0	0	0	0	0	622	462	1021	514	0	0	
1	0	0	0	0	604	447	1021	503	0	0	
2	0	0	0	0	583	437	1021	489	0	0	
3	0	0	0	0	559	436	1020	476	0	0	
4	0	0	0	0	536	443	1020	463	0	0	
5	0	0	0	0	516	457	1021	454	0	0	
6	0	0	0	0	500	478	1021	447	0	0	
7	0	0	0	0	491	503	1021	444	0	0	
8	0	0	0	0	488	529	1021	446	0	0	
9	0	0	0	0	493	554	1021	451	0	0	
10	0	0	0	0	504	574	1021	458	0	0	
11	0	0	0	0	520	588	1021	467	0	0	
12	0	0	0	0	539	593	1021	477	0	0	
13	0	0	0	0	557	590	1021	485	0	0	
14	0	0	0	0	574	577	1021	492	0	0	
15	0	0	0	0	587	556	1021	494	0	0	
0	0	0	0	0	594	528	1021	493	0	0	
1	0	0	0	0	593	495	1021	486	0	0	
2	0	0	0	0	585	459	1021	474	0	0	
3	0	0	0	0	569	423	1021	458	0	0	
4	0	0	0	0	545	391	1021	437	0	0	
5	0	0	0	0	516	364	1021	414	0	0	
6	0	0	0	0	484	344	1021	390	0	0	
7	0	0	0	0	450	332	1020	365	0	0	
8	0	0	0	0	416	328	1020	341	0	0	
9	0	0	0	0	387	332	1021	320	0	0	
10	0	0	0	0	361	343	1021	302	0	0	
11	0	0	0	0	342	359	1021	288	0	0	
12	0	0	0	0	330	376	1021	279	0	0	
13	0	0	0	0	326	394	1020	274	0	0	
14	0	0	0	0	329	407	1021	273	0	0	
15	0	0	0	0	338	415	1021	275	0	0	
0	0	0	0	0	352	416	1021	281	0	0	
1	0	0	0	0	368	409	1021	287	0	0	
2	0	0	0	0	384	395	1020	293	0	0	
3	0	0	0	0	400	375	1021	300	0	0	
4	0	0	0	0	413	350	1021	305	0	0	
5	0	0	0	0	423	323	1021	308	0	0	
6	0	0	0	0	427	297	1020	310	0	0	
7	0	0	0	0	427	274	1021	310	0	0	
8	0	0	0	0	422	257	1021	308	0	0	
9	0	0	0	0	415	248	1021	307	0	0	
10	0	0	0	0	407	250	1021	307	0	0	
11	0	0	0	0	399	262	1021	310	0	0	
12	0	0	0	0	393	284	1021	314	0	0	
13	0	0	0	0	393	316	1021	323	0	0	
14	0	0	0	0	399	357	1021	336	0	0	
15	0	0	0	0	411	404	1021	354	0	0	
0	0	0	0	0	430	453	1021	376	0	0	
1	0	0	0	0	456	500	1020	402	0	0	
2	0	0	0	0	488	543	1021	430	0	0	
3	0	0	0	0	523	577	1021	460	0	0	
4	0	0	0	0	559	602	1021	487	0	0	
5	0	0	0	0	594	616	1020	513	0	0	
6	0	0	0	0	625	620	1020	535	0	0	
7	0	0	0	0	651	611	1021	552	0	0	
8	0	0	0	0	669	594	1021	563	0	0	
9	0	0	0	0	678	570	1021	566	0	0	
10	0	0	0	0	676	541	1021	563	0	0	
11	0	0	0	0	666	510	1021	553	0	0	
12	0	0	0	0	647	482	1021	538	0	0	
13	0	0	0	0	621	459	1021	519	0	0	
14	0	0	0	0	591	443	1021	499	0	0	
15	0	0	0	0	559	435	1021	477	0	0	
0	0	0	0	0	528	435	1021	458	0	0	
1	0	0	0	0	502	444	1021	441	0	0	
2	0	0	0	0	482	462	1021	431	0	0	
3	0	0	0	0	471	485	1021	425	0	0	
4	0	0	0	0	468	511	1021	425	0	0	
5	0	0	0	0	476	539	1021	432	0	0	
6	0	0	0	0	492	563	1021	444	0	0	
7	0	0	0	0	514	583	1021	459	0	0	
8	0	0	0	0	540	596	1021	476	0	0	
9	0	0	0	0	568	600	1021	493	0	0	
10	0	0	0	0	596	597	1021	510	0	0	
11	0	0	0	0	619	585	1021	523	0	0	
12	0	0	0	0	637	567	1021	534	0	0	
13	0	0	0	0	648	543	1021	538	0	0	
14	0	0	0	0	651	518	1020	538	0	0	
15	0	0	0	0	646	491	1021	533	0	0	
0	0	0	0	0	633	468	1021	523	0	0	
1	0	0	0	0	614	451	1021	510	0	0	
2	0	0	0	0	591	440	1021	495	0	0	
3	0	0	0	0	566	436	1021	480	0	0	
4	0	0	0	0	541	441	1021	465	0	0	
5	0	0	0	0	519	454	1021	454	0	0	
6	0	0	0	0	502	475	1021	446	0	0	
7	0	0	0	0	492	499	1021	442	0	0	
8	0	0	0	0	490	527	1021	443	0	0	
9	0	0	0	0	496	554	1021	450	0	0	
10	0	0	0	0	510	578	1021	460	0	0	
11	0	0	0	0	529	596	1021	474	0	0	
12	0	0	0	0	553	607	1021	490	0	0	
13	0	0	0	0	578	611	1021	505	0	0	
14	0	0	0	0	603	606	1021	520	0	0	
15	0	0	0	0	624	593	1021	532	0	0	
0	0	0	0	0	640	575	1021	540	0	0	
1	0	0	0	0	649	551	1021	543	0	0	
2	0	0	0	0	652	524	1021	542	0	0	
3	0	0	0	0	646	497	1021	536	0	0	
4	0	0	0	0	633	473	1021	525	0	0	
5	0	0	0	0	614	455	1021	511	0	0	
6	0	0	0	0	590	443	1021	495	0	0	
7	0	0	0	0	565	439	1021	480	0	0	
8	0	0	0	0	541	443	1021	465	0	0	
9	0	0	0	0	519	455	1021	452	0	0	
10	0	0	0	0	502	474	1021	444	0	0	
11	0	0	0	0	491	498	1021	439	0	0	
12	0	0	0	0	487	524	1021	440	0	0	
13	0	0	0	0	492	550	1021	445	0	0	
14	0	0	0	0	505	572	1021	454	0	0	
15	0	0	0	0	523	588	1021	467	0	0	
0	0	0	0	0	544	598	1021	480	0	0	
1	0	0	0	0	568	599	1021	495	0	0	
2	0	0	0	0	590	593	1021	508	0	0	
3	0	0	0	0	610	579	1021	518	0	0	
4	0	0	0	0	625	558	1021	524	0	0	
5	0	0	0	0	633	532	1021	527	0	0	
6	0	0	0	0	635	505	1021	524	0	0	
7	0	0	0	0	628	478	1021	518	0	0	
8	0	0	0	0	615	454	1021	507	0	0	
9	0	0	0	0	597	436	1021	494	0	0	
10	0	0	0	0	575	425	1021	480	0	0	
11	0	0	0	0	550	422	1020	465	0	0	
12	0	0	0	0	527	428	1021	452	0	0	
13	0	0	0	0	508	441	1021	442	0	0	
14	0	0	0	0	492	462	1021	435	0	0	
15	0	0	0	0	483	487	1021	433	0	0	
0	0	0	0	0	483	515	1021	435	0	0	
1	0	0	0	0	490	542	1020	442	0	0	
2	0	0	0	0	504	566	1021	454	0	0	
3	0	0	0	0	524	585	1021	467	0	0	
4	0	0	0	0	547	596	1021	483	0	0	
5	0	0	0	0	571	600	1020	497	0	0	
6	0	0	0	0	594	594	1021	511	0	0	
7	0	0	0	0	614	581	1021	522	0	0	
8	0	0	0	0	628	561	1021	528	0	0	
9	0	0	0	0	636	536	1021	531	0	0	
10	0	0	0	0	636	509	1021	528	0	0	
11	0	0	0	0	629	482	1020	520	0	0	
12	0	0	0	0	615	457	1021	510	0	0	
13	0	0	0	0	596	439	1021	496	0	0	
14	0	0	0	0	574	428	1021	481	0	0	
15	0	0	0	0	549	424	1020	465	0	0	
0	0	0	0	0	526	429	1021	451	0	0	
1	0	0	0	0	505	442	1021	440	0	0	
2	0	0	0	0	489	462	1021	432	0	0	
3	0	0	0	0	481	487	1021	429	0	0	
4	0	0	0	0	479	514	1021	430	0	0	
5	0	0	0	0	486	540	1021	436	0	0	
6	0	0	0	0	499	563	1021	447	0	0	
7	0	0	0	0	518	581	1021	460	0	0	
8	0	0	0	0	541	591	1021	475	0	0	
9	0	0	0	0	565	594	1021	489	0	0	
10	0	0	0	0	588	588	1020	503	0	0	
11	0	0	0	0	609	575	1021	514	0	0	
12	0	0	0	0	625	555	1021	522	0	0	
13	0	0	0	0	634	530	1021	526	0	0	
14	0	0	0	0	635	503	1021	524	0	0	
15	0	0	0	0	629	476	1020	517	0	0	
0	0	0	0	0	615	452	1021	507	0	0	
1	0	0	0	0	596	434	1021	494	0	0	
2	0	0	0	0	572	422	1021	478	0	0	
3	0	0	0	0	547	419	1021	463	0	0	
4	0	0	0	0	522	423	1021	448	0	0	
5	0	0	0	0	500	435	1021	436	0	0	
6	0	0	0	0	483	455	1021	428	0	0	
7	0	0	0	0	473	479	1021	425	0	0	
8	0	0	0	0	471	505	1021	427	0	0	
9	0	0	0	0	477	532	1020	432	0	0	
10	0	0	0	0	491	555	1021	443	0	0	
11	0	0	0	0	510	573	1021	455	0	0	
12	0	0	0	0	533	583	1021	470	0	0	
13	0	0	0	0	557	586	1020	484	0	0	
14	0	0	0	0	581	580	1020	497	0	0	
15	0	0	0	0	602	567	1021	508	0	0	
0	0	0	0	0	617	547	1021	515	0	0	
1	0	0	0	0	626	523	1021	518	0	0	
2	0	0	0	0	627	496	1020	515	0	0	
3	0	0	0	0	621	469	1020	508	0	0	
4	0	0	0	0	608	445	1021	497	0	0	
5	0	0	0	0	588	427	1021	483	0	0	
6	0	0	0	0	564	415	1021	468	0	0	
7	0	0	0	0	539	412	1021	454	0	0	
8	0	0	0	0	515	417	1021	440	0	0	
9	0	0	0	0	494	429	1021	428	0	0	
10	0	0	0	0	478	449	1021	421	0	0	
11	0	0	0	0	467	473	1021	418	0	0	
12	0	0	0	0	466	500	1020	419	0	0	
13	0	0	0	0	472	527	1020	426	0	0	
14	0	0	0	0	486	551	1021	437	0	0	
15	0	0	0	0	505	569	1021	451	0	0	
0	0	0	0	0	528	580	1021	466	0	0	
1	0	0	0	0	553	584	1021	481	0	0	
2	0	0	0	0	576	580	1021	496	0	0	
3	0	0	0	0	598	568	1021	507	0	0	
4	0	0	0	0	614	548	1021	515	0	0	
5	0	0	0	0	623	524	1021	517	0	0	
6	0	0	0	0	625	498	1021	515	0	0	
7	0	0	0	0	618	471	1021	507	0	0	
8	0	0	0	0	605	447	1021	496	0	0	
9	0	0	0	0	586	429	1021	482	0	0	
10	0	0	0	0	562	416	1021	466	0	0	
11	0	0	0	0	537	412	1020	450	0	0	
12	0	0	0	0	512	416	1020	435	0	0	
13	0	0	0	0	491	427	1021	423	0	0	
14	0	0	0	0	474	446	1021	415	0	0	
15	0	0	0	0	464	470	1021	412	0	0	
0	0	0	0	0	462	496	1021	413	0	0	
1	0	0	0	0	467	522	1021	418	0	0	
2	0	0	0	0	480	544	1021	428	0	0	
3	0	0	0	0	498	562	1021	441	0	0	
4	0	0	0	0	520	573	1021	455	0	0	
5	0	0	0	0	544	576	1021	469	0	0	
6	0	0	0	0	567	570	1021	482	0	0	
7	0	0	0	0	588	557	1021	493	0	0	
8	0	0	0	0	602	537	1021	500	0	0	
9	0	0	0	0	611	512	1021	502	0	0	
10	0	0	0	0	613	485	1020	499	0	0	
11	0	0	0	0	607	458	1020	492	0	0	
12	0	0	0	0	594	433	1021	482	0	0	
13	0	0	0	0	575	414	1021	469	0	0	
14	0	0	0	0	553	402	1021	454	0	0	
15	0	0	0	0	529	398	1021	440	0	0	
0	0	0	0	0	506	403	1020	426	0	0	
1	0	0	0	0	486	415	1021	415	0	0	
2	0	0	0	0	471	435	1021	409	0	0	
3	0	0	0	0	462	460	1021	407	0	0	
4	0	0	0	0	461	488	1021	409	0	0	
5	0	0	0	0	467	516	1021	417	0	0	
6	0	0	0	0	481	540	1021	428	0	0	
7	0	0	0	0	501	559	1021	441	0	0	
8	0	0	0	0	524	570	1021	456	0	0	
9	0	0	0	0	547	574	1020	471	0	0	
10	0	0	0	0	572	568	1020	484	0	0	
11	0	0	0	0	592	555	1021	495	0	0	
12	0	0	0	0	607	535	1021	502	0	0	
13	0	0	0	0	615	510	1021	504	0	0	
14	0	0	0	0	615	482	1020	500	0	0	
15	0	0	0	0	607	455	1021	492	0	0	
0	0	0	0	0	592	429	1021	481	0	0	
1	0	0	0	0	572	410	1021	467	0	0	
2	0	0	0	0	547	397	1021	451	0	0	
3	0	0	0	0	521	392	1020	435	0	0	
4	0	0	0	0	496	396	1021	420	0	0	
5	0	0	0	0	474	408	1021	408	0	0	
6	0	0	0	0	457	427	1021	401	0	0	
7	0	0	0	0	448	451	1021	397	0	0	
8	0	0	0	0	446	479	1020	399	0	0	
9	0	0	0	0	453	506	1021	406	0	0	
10	0	0	0	0	467	531	1021	416	0	0	
11	0	0	0	0	488	550	1021	431	0	0	
12	0	0	0	0	512	563	1021	446	0	0	
13	0	0	0	0	538	568	1020	462	0	0	
14	0	0	0	0	563	564	1020	476	0	0	
15	0	0	0	0	585	552	1021	488	0	0	
0	0	0	0	0	602	534	1021	496	0	0	
1	0	0	0	0	613	510	1021	500	0	0	
2	0	0	0	0	615	484	1021	499	0	0	
3	0	0	0	0	609	458	1020	493	0	0	
4	0	0	0	0	597	434	1021	483	0	0	
5	0	0	0	0	578	416	1021	471	0	0	
6	0	0	0	0	555	404	1021	456	0	0	
7	0	0	0	0	531	401	1020	441	0	0	
8	0	0	0	0	507	406	1021	428	0	0	
9	0	0	0	0	486	419	1021	417	0	0	
10	0	0	0	0	470	439	1021	410	0	0	
11	0	0	0	0	461	464	1021	408	0	0	
12	0	0	0	0	460	491	1021	410	0	0	
13	0	0	0	0	466	519	1021	416	0	0	
14	0	0	0	0	479	542	1021	427	0	0	
15	0	0	0	0	499	560	1021	440	0	0	
0	0	0	0	0	521	571	1021	454	0	0	
1	0	0	0	0	544	574	1021	467	0	0	
2	0	0	0	0	568	568	1021	481	0	0	
3	0	0	0	0	588	554	1021	491	0	0	
4	0	0	0	0	602	534	1021	497	0	0	
5	0	0	0	0	611	508	1021	498	0	0	
6	0	0	0	0	611	480	1020	495	0	0	
7	0	0	0	0	604	451	1021	487	0	0	
8	0	0	0	0	591	427	1021	476	0	0	
9	0	0	0	0	571	407	1021	462	0	0	
10	0	0	0	0	548	395	1021	447	0	0	
11	0	0	0	0	524	391	1021	433	0	0	
12	0	0	0	0	500	396	1020	419	0	0	
13	0	0	0	0	480	409	1021	409	0	0	
14	0	0	0	0	464	430	1021	403	0	0	
15	0	0	0	0	455	456	1021	402	0	0	
0	0	0	0	0	454	484	1021	405	0	0	
1	0	0	0	0	462	513	1020	413	0	0	
2	0	0	0	0	476	538	1021	425	0	0	
3	0	0	0	0	496	558	1021	440	0	0	
4	0	0	0	0	520	570	1021	455	0	0	
5	0	0	0	0	545	574	1020	470	0	0	
6	0	0	0	0	568	569	1020	483	0	0	
7	0	0	0	0	590	556	1021	494	0	0	
8	0	0	0	0	605	537	1021	501	0	0	
9	0	0	0	0	614	511	1021	503	0	0	
10	0	0	0	0	615	483	1020	499	0	0	
11	0	0	0	0	608	456	1020	492	0	0	
12	0	0	0	0	595	431	1021	481	0	0	
13	0	0	0	0	576	412	1021	468	0	0	
14	0	0	0	0	553	399	1021	453	0	0	
15	0	0	0	0	528	395	1021	439	0	0	
0	0	0	0	0	505	399	1021	426	0	0	
1	0	0	0	0	484	411	1021	415	0	0	
2	0	0	0	0	468	431	1021	409	0	0	
3	0	0	0	0	459	456	1021	408	0	0	
4	0	0	0	0	458	485	1020	411	0	0	
5	0	0	0	0	465	512	1021	419	0	0	
6	0	0	0	0	479	537	1021	431	0	0	
7	0	0	0	0	498	556	1021	445	0	0	
8	0	0	0	0	521	568	1021	460	0	0	
9	0	0	0	0	547	573	1021	475	0	0	
10	0	0	0	0	571	569	1020	489	0	0	
11	0	0	0	0	591	556	1021	500	0	0	
12	0	0	0	0	607	537	1021	507	0	0	
13	0	0	0	0	616	512	1021	509	0	0	
14	0	0	0	0	617	485	1020	506	0	0	
15	0	0	0	0	610	457	1021	499	0	0	
0	0	0	0	0	596	432	1021	487	0	0	
1	0	0	0	0	577	413	1021	473	0	0	
2	0	0	0	0	553	401	1021	457	0	0	
3	0	0	0	0	528	396	1020	442	0	0	
4	0	0	0	0	503	401	1020	428	0	0	
5	0	0	0	0	482	413	1021	416	0	0	
6	0	0	0	0	465	433	1021	409	0	0	
7	0	0	0	0	456	458	1021	406	0	0	
8	0	0	0	0	454	486	1021	408	0	0	
9	0	0	0	0	461	513	1021	415	0	0	
10	0	0	0	0	475	538	1021	426	0	0	
11	0	0	0	0	496	558	1021	440	0	0	
12	0	0	0	0	519	570	1021	455	0	0	
13	0	0	0	0	545	574	1021	472	0	0	
14	0	0	0	0	570	570	1021	486	0	0	
15	0	0	0	0	592	558	1021	498	0	0	
0	0	0	0	0	610	539	1021	506	0	0	
1	0	0	0	0	621	515	1021	509	0	0	
2	0	0	0	0	623	488	1021	508	0	0	
3	0	0	0	0	618	461	1020	501	0	0	
4	0	0	0	0	606	436	1021	491	0	0	
5	0	0	0	0	587	417	1021	477	0	0	
6	0	0	0	0	563	405	1021	462	0	0	
7	0	0	0	0	538	400	1021	446	0	0	
8	0	0	0	0	512	405	1020	432	0	0	
9	0	0	0	0	491	416	1021	420	0	0	
10	0	0	0	0	473	436	1021	412	0	0	
11	0	0	0	0	463	460	1021	409	0	0	
12	0	0	0	0	460	487	1021	411	0	0	
13	0	0	0	0	465	515	1021	416	0	0	
14	0	0	0	0	478	538	1021	426	0	0	
15	0	0	0	0	497	557	1021	439	0	0	
0	0	0	0	0	519	568	1021	453	0	0	
1	0	0	0	0	543	571	1021	468	0	0	
2	0	0	0	0	567	567	1021	482	0	0	
3	0	0	0	0	588	553	1021	493	0	0	
4	0	0	0	0	604	534	1021	500	0	0	
5	0	0	0	0	614	508	1021	503	0	0	
6	0	0	0	0	615	481	1020	500	0	0	
7	0	0	0	0	609	452	1020	493	0	0	
8	0	0	0	0	595	427	1021	482	0	0	
9	0	0	0	0	575	407	1021	467	0	0	
10	0	0	0	0	551	394	1021	452	0	0	
11	0	0	0	0	526	389	1020	435	0	0	
12	0	0	0	0	500	392	1020	420	0	0	
13	0	0	0	0	479	403	1021	409	0	0	
14	0	0	0	0	461	423	1021	400	0	0	
15	0	0	0	0	450	448	1021	396	0	0	
0	0	0	0	0	447	475	1021	398	0	0	
1	0	0	0	0	453	503	1021	404	0	0	
2	0	0	0	0	467	527	1021	415	0	0	
3	0	0	0	0	486	547	1021	429	0	0	
4	0	0	0	0	510	560	1021	444	0	0	
5	0	0	0	0	535	565	1021	460	0	0	
6	0	0	0	0	560	563	1021	475	0	0	
7	0	0	0	0	583	551	1021	487	0	0	
8	0	0	0	0	600	532	1021	496	0	0	
9	0	0	0	0	611	509	1021	499	0	0	
10	0	0	0	0	614	482	1021	499	0	0	
11	0	0	0	0	608	455	1020	492	0	0	
12	0	0	0	0	596	431	1021	483	0	0	
13	0	0	0	0	577	411	1021	470	0	0	
14	0	0	0	0	555	398	1021	455	0	0	
15	0	0	0	0	529	393	1020	440	0	0	
0	0	0	0	0	504	396	1021	426	0	0	
1	0	0	0	0	483	408	1021	414	0	0	
2	0	0	0	0	465	427	1021	407	0	0	
3	0	0	0	0	455	451	1021	403	0	0	
4	0	0	0	0	452	478	1021	406	0	0	
5	0	0	0	0	458	505	1021	412	0	0	
6	0	0	0	0	472	530	1021	423	0	0	
7	0	0	0	0	491	549	1021	436	0	0	
8	0	0	0	0	514	562	1021	451	0	0	
9	0	0	0	0	539	566	1021	466	0	0	
10	0	0	0	0	563	562	1021	480	0	0	
11	0	0	0	0	585	549	1021	491	0	0	
12	0	0	0	0	601	530	1021	499	0	0	
13	0	0	0	0	611	505	1021	502	0	0	
14	0	0	0	0	612	477	1021	499	0	0	
15	0	0	0	0	607	449	1021	493	0	0	
0	0	0	0	0	593	425	1021	483	0	0	
1	0	0	0	0	574	406	1021	469	0	0	
2	0	0	0	0	550	393	1021	455	0	0	
3	0	0	0	0	525	389	1021	440	0	0	
4	0	0	0	0	501	392	1021	425	0	0	
5	0	0	0	0	479	404	1021	414	0	0	
6	0	0	0	0	462	424	1021	406	0	0	
7	0	0	0	0	452	449	1021	402	0	0	
8	0	0	0	0	450	476	1021	403	0	0	
9	0	0	0	0	457	503	1021	409	0	0	
10	0	0	0	0	471	527	1021	420	0	0	
11	0	0	0	0	490	546	1021	432	0	0	
12	0	0	0	0	513	559	1021	448	0	0	
13	0	0	0	0	537	563	1021	463	0	0	
14	0	0	0	0	562	558	1021	476	0	0	
15	0	0	0	0	583	546	1021	488	0	0	
0	0	0	0	0	598	527	1021	495	0	0	
1	0	0	0	0	607	503	1021	498	0	0	
2	0	0	0	0	608	475	1021	496	0	0	
3	0	0	0	0	602	448	1021	489	0	0	
4	0	0	0	0	588	423	1021	478	0	0	
5	0	0	0	0	568	404	1021	464	0	0	
6	0	0	0	0	543	391	1021	450	0	0	
7	0	0	0	0	518	387	1021	434	0	0	
8	0	0	0	0	494	390	1021	420	0	0	
9	0	0	0	0	472	402	1021	408	0	0	
10	0	0	0	0	455	421	1021	400	0	0	
11	0	0	0	0	446	446	1021	398	0	0	
12	0	0	0	0	444	473	1021	399	0	0	
13	0	0	0	0	451	500	1021	406	0	0	
14	0	0	0	0	464	524	1021	416	0	0	
15	0	0	0	0	484	544	1021	430	0	0	
0	0	0	0	0	508	556	1021	444	0	0	
1	0	0	0	0	533	560	1021	459	0	0	
2	0	0	0	0	559	556	1021	472	0	0	
3	0	0	0	0	580	544	1021	483	0	0	
4	0	0	0	0	597	525	1021	491	0	0	
5	0	0	0	0	607	501	1021	493	0	0	
6	0	0	0	0	610	474	1021	491	0	0	
7	0	0	0	0	605	447	1021	484	0	0	
8	0	0	0	0	592	423	1021	474	0	0	
9	0	0	0	0	573	404	1021	461	0	0	
10	0	0	0	0	550	391	1021	447	0	0	
11	0	0	0	0	525	388	1021	432	0	0	
12	0	0	0	0	502	392	1021	418	0	0	
13	0	0	0	0	480	404	1021	407	0	0	
14	0	0	0	0	463	424	1021	399	0	0	
15	0	0	0	0	452	449	1021	396	0	0	
0	0	0	0	0	449	477	1021	398	0	0	
1	0	0	0	0	455	504	1021	404	0	0	
2	0	0	0	0	467	529	1021	414	0	0	
3	0	0	0	0	486	548	1021	427	0	0	
4	0	0	0	0	508	560	1021	441	0	0	
5	0	0	0	0	533	563	1021	456	0	0	
6	0	0	0	0	558	560	1021	470	0	0	
7	0	0	0	0	579	548	1021	482	0	0	
8	0	0	0	0	596	529	1021	489	0	0	
9	0	0	0	0	607	505	1021	493	0	0	
10	0	0	0	0	610	478	1021	492	0	0	
11	0	0	0	0	605	451	1021	486	0	0	
12	0	0	0	0	593	427	1021	476	0	0	
13	0	0	0	0	575	408	1021	463	0	0	
14	0	0	0	0	552	396	1021	449	0	0	
15	0	0	0	0	527	391	1021	434	0	0	
0	0	0	0	0	504	395	1021	420	0	0	
1	0	0	0	0	482	406	1021	409	0	0	
2	0	0	0	0	465	425	1021	401	0	0	
3	0	0	0	0	455	449	1021	398	0	0	
4	0	0	0	0	452	477	1021	399	0	0	
5	0	0	0	0	459	504	1021	406	0	0	
6	0	0	0	0	472	528	1021	416	0	0	
7	0	0	0	0	490	548	1021	429	0	0	
8	0	0	0	0	513	560	1021	444	0	0	
9	0	0	0	0	537	565	1021	459	0	0	
10	0	0	0	0	561	560	1021	472	0	0	
11	0	0	0	0	582	549	1021	484	0	0	
12	0	0	0	0	598	529	1021	491	0	0	
13	0	0	0	0	607	505	1021	494	0	0	
14	0	0	0	0	609	478	1020	491	0	0	
15	0	0	0	0	604	450	1021	485	0	0	
0	0	0	0	0	591	426	1021	474	0	0	
1	0	0	0	0	573	407	1021	461	0	0	
2	0	0	0	0	550	394	1021	446	0	0	
3	0	0	0	0	525	390	1021	431	0	0	
4	0	0	0	0	502	393	1021	416	0	0	
5	0	0	0	0	480	405	1021	405	0	0	
6	0	0	0	0	463	425	1021	396	0	0	
7	0	0	0	0	453	449	1021	393	0	0	
8	0	0	0	0	450	477	1021	394	0	0	
9	0	0	0	0	456	504	1021	401	0	0	
10	0	0	0	0	469	529	1021	412	0	0	
11	0	0	0	0	487	548	1021	425	0	0	
12	0	0	0	0	510	561	1021	441	0	0	
13	0	0	0	0	534	566	1021	457	0	0	
14	0	0	0	0	559	563	1021	473	0	0	
15	0	0	0	0	580	551	1021	486	0	0	
0	0	0	0	0	596	533	1021	495	0	0	
1	0	0	0	0	607	510	1021	500	0	0	
2	0	0	0	0	609	484	1021	499	0	0	
3	0	0	0	0	605	458	1021	494	0	0	
4	0	0	0	0	593	435	1021	484	0	0	
5	0	0	0	0	575	416	1021	471	0	0	
6	0	0	0	0	552	404	1021	456	0	0	
7	0	0	0	0	528	400	1021	440	0	0	
8	0	0	0	0	504	404	1021	425	0	0	
9	0	0	0	0	483	415	1021	412	0	0	
10	0	0	0	0	467	434	1021	403	0	0	
11	0	0	0	0	456	458	1021	398	0	0	
12	0	0	0	0	453	484	1021	398	0	0	
13	0	0	0	0	459	510	1021	403	0	0	
14	0	0	0	0	471	533	1021	412	0	0	
15	0	0	0	0	488	550	1021	425	0	0	
0	0	0	0	0	511	561	1021	439	0	0	
1	0	0	0	0	535	564	1021	454	0	0	
2	0	0	0	0	558	559	1021	468	0	0	
3	0	0	0	0	579	546	1021	480	0	0	
4	0	0	0	0	594	526	1021	487	0	0	
5	0	0	0	0	603	501	1021	491	0	0	
6	0	0	0	0	605	473	1021	489	0	0	
7	0	0	0	0	599	446	1021	483	0	0	
8	0	0	0	0	585	421	1021	473	0	0	
9	0	0	0	0	566	401	1021	460	0	0	
10	0	0	0	0	543	388	1021	445	0	0	
11	0	0	0	0	519	384	1021	430	0	0	
12	0	0	0	0	495	387	1021	415	0	0	
13	0	0	0	0	474	399	1021	404	0	0	
14	0	0	0	0	457	417	1021	396	0	0	
15	0	0	0	0	448	442	1021	392	0	0	
0	0	0	0	0	446	469	1021	393	0	0	
1	0	0	0	0	452	496	1021	399	0	0	
2	0	0	0	0	466	521	1021	409	0	0	
3	0	0	0	0	484	540	1021	422	0	0	
4	0	0	0	0	508	553	1021	438	0	0	
5	0	0	0	0	532	558	1021	453	0	0	
6	0	0	0	0	556	553	1021	467	0	0	
7	0	0	0	0	577	542	1021	479	0	0	
8	0	0	0	0	593	523	1021	487	0	0	
9	0	0	0	0	603	499	1021	491	0	0	
10	0	0	0	0	605	472	1021	490	0	0	
11	0	0	0	0	600	446	1021	484	0	0	
12	0	0	0	0	588	422	1021	475	0	0	
13	0	0	0	0	569	402	1021	462	0	0	
14	0	0	0	0	547	390	1021	448	0	0	
15	0	0	0	0	523	385	1021	433	0	0	
0	0	0	0	0	499	388	1021	420	0	0	
1	0	0	0	0	478	400	1021	408	0	0	
2	0	0	0	0	461	418	1021	399	0	0	
3	0	0	0	0	450	443	1021	395	0	0	
4	0	0	0	0	447	470	1021	395	0	0	
5	0	0	0	0	451	497	1020	400	0	0	
6	0	0	0	0	463	521	1021	409	0	0	
7	0	0	0	0	481	540	1021	422	0	0	
8	0	0	0	0	504	553	1021	435	0	0	
9	0	0	0	0	527	558	1021	451	0	0	
10	0	0	0	0	551	556	1020	464	0	0	
11	0	0	0	0	574	544	1021	476	0	0	
12	0	0	0	0	591	526	1021	484	0	0	
13	0	0	0	0	601	503	1021	489	0	0	
14	0	0	0	0	605	477	1020	488	0	0	
15	0	0	0	0	600	451	1021	483	0	0	
0	0	0	0	0	590	427	1021	474	0	0	
1	0	0	0	0	572	408	1021	463	0	0	
2	0	0	0	0	551	395	1021	448	0	0	
3	0	0	0	0	527	390	1021	434	0	0	
4	0	0	0	0	504	394	1021	421	0	0	
5	0	0	0	0	483	405	1021	409	0	0	
6	0	0	0	0	466	424	1021	401	0	0	
7	0	0	0	0	455	448	1021	398	0	0	
8	0	0	0	0	453	475	1020	399	0	0	
9	0	0	0	0	458	501	1021	405	0	0	
10	0	0	0	0	471	525	1021	415	0	0	
11	0	0	0	0	488	543	1021	428	0	0	
12	0	0	0	0	511	556	1021	442	0	0	
13	0	0	0	0	535	560	1021	457	0	0	
14	0	0	0	0	559	555	1021	470	0	0	
15	0	0	0	0	580	543	1021	481	0	0	
0	0	0	0	0	597	524	1021	489	0	0	
1	0	0	0	0	607	500	1021	492	0	0	
2	0	0	0	0	610	473	1020	492	0	0	
3	0	0	0	0	604	447	1020	485	0	0	
4	0	0	0	0	592	422	1021	476	0	0	
5	0	0	0	0	574	403	1021	463	0	0	
6	0	0	0	0	551	390	1021	448	0	0	
7	0	0	0	0	526	384	1021	433	0	0	
8	0	0	0	0	500	387	1021	419	0	0	
9	0	0	0	0	478	398	1021	406	0	0	
10	0	0	0	0	460	416	1021	397	0	0	
11	0	0	0	0	447	438	1021	391	0	0	
12	0	0	0	0	443	464	1021	391	0	0	
13	0	0	0	0	446	490	1021	395	0	0	
14	0	0	0	0	456	512	1021	403	0	0	
15	0	0	0	0	474	530	1021	415	0	0	
0	0	0	0	0	495	541	1021	428	0	0	
1	0	0	0	0	518	544	1021	441	0	0	
2	0	0	0	0	542	539	1021	454	0	0	
3	0	0	0	0	563	526	1021	464	0	0	
4	0	0	0	0	579	506	1021	472	0	0	
5	0	0	0	0	590	481	1021	475	0	0	
6	0	0	0	0	593	454	1020	472	0	0	
7	0	0	0	0	589	427	1021	466	0	0	
8	0	0	0	0	577	401	1021	455	0	0	
9	0	0	0	0	559	382	1021	443	0	0	
10	0	0	0	0	537	369	1021	428	0	0	
11	0	0	0	0	513	364	1021	413	0	0	
12	0	0	0	0	489	368	1020	398	0	0	
13	0	0	0	0	467	379	1021	387	0	0	
14	0	0	0	0	451	398	1021	379	0	0	
15	0	0	0	0	440	422	1021	376	0	0	
0	0	0	0	0	437	451	1021	377	0	0	
1	0	0	0	0	442	479	1021	384	0	0	
2	0	0	0	0	455	505	1021	395	0	0	
3	0	0	0	0	473	526	1021	409	0	0	
4	0	0	0	0	496	540	1021	425	0	0	
5	0	0	0	0	521	545	1020	441	0	0	
6	0	0	0	0	545	543	1020	456	0	0	
7	0	0	0	0	567	531	1021	468	0	0	
8	0	0	0	0	584	513	1021	477	0	0	
9	0	0	0	0	595	489	1021	481	0	0	
10	0	0	0	0	598	463	1021	480	0	0	
11	0	0	0	0	592	435	1020	474	0	0	
12	0	0	0	0	580	410	1021	464	0	0	
13	0	0	0	0	561	390	1021	451	0	0	
14	0	0	0	0	538	377	1021	436	0	0	
15	0	0	0	0	513	371	1020	421	0	0	
0	0	0	0	0	489	374	1021	407	0	0	
1	0	0	0	0	467	385	1021	394	0	0	
2	0	0	0	0	449	403	1021	386	0	0	
3	0	0	0	0	439	428	1021	382	0	0	
4	0	0	0	0	435	455	1021	383	0	0	
5	0	0	0	0	439	482	1021	388	0	0	
6	0	0	0	0	452	507	1021	398	0	0	
7	0	0	0	0	469	527	1021	410	0	0	
8	0	0	0	0	492	540	1021	424	0	0	
9	0	0	0	0	516	544	1021	439	0	0	
10	0	0	0	0	540	541	1020	452	0	0	
11	0	0	0	0	562	529	1021	464	0	0	
12	0	0	0	0	579	511	1021	472	0	0	
13	0	0	0	0	590	487	1021	476	0	0	
14	0	0	0	0	593	460	1021	475	0	0	
15	0	0	0	0	588	433	1020	468	0	0	
0	0	0	0	0	576	408	1021	458	0	0	
1	0	0	0	0	559	389	1021	446	0	0	
2	0	0	0	0	536	376	1021	431	0	0	
3	0	0	0	0	512	371	1021	416	0	0	
4	0	0	0	0	488	374	1021	403	0	0	
5	0	0	0	0	467	385	1021	391	0	0	
6	0	0	0	0	451	404	1021	384	0	0	
7	0	0	0	0	441	428	1021	380	0	0	
8	0	0	0	0	439	456	1021	383	0	0	
9	0	0	0	0	444	484	1020	389	0	0	
10	0	0	0	0	458	510	1021	400	0	0	
11	0	0	0	0	478	530	1021	415	0	0	
12	0	0	0	0	502	544	1021	431	0	0	
13	0	0	0	0	527	550	1020	447	0	0	
14	0	0	0	0	551	547	1020	462	0	0	
15	0	0	0	0	574	536	1021	475	0	0	
0	0	0	0	0	591	518	1021	484	0	0	
1	0	0	0	0	602	494	1021	488	0	0	
2	0	0	0	0	605	467	1020	487	0	0	
3	0	0	0	0	600	440	1020	481	0	0	
4	0	0	0	0	588	415	1021	472	0	0	
5	0	0	0	0	569	396	1021	459	0	0	
6	0	0	0	0	547	382	1021	444	0	0	
7	0	0	0	0	522	377	1021	429	0	0	
8	0	0	0	0	497	380	1021	414	0	0	
9	0	0	0	0	476	391	1021	403	0	0	
10	0	0	0	0	457	410	1021	394	0	0	
11	0	0	0	0	446	434	1021	390	0	0	
12	0	0	0	0	442	461	1020	390	0	0	
13	0	0	0	0	446	488	1020	395	0	0	
14	0	0	0	0	458	512	1021	405	0	0	
15	0	0	0	0	476	531	1021	417	0	0	
0	0	0	0	0	498	544	1021	431	0	0	
1	0	0	0	0	522	548	1021	446	0	0	
2	0	0	0	0	545	543	1021	459	0	0	
3	0	0	0	0	568	532	1021	471	0	0	
4	0	0	0	0	584	513	1021	479	0	0	
5	0	0	0	0	595	489	1021	482	0	0	
6	0	0	0	0	599	463	1021	481	0	0	
7	0	0	0	0	594	436	1020	475	0	0	
8	0	0	0	0	583	411	1021	466	0	0	
9	0	0	0	0	565	392	1021	453	0	0	
10	0	0	0	0	543	379	1021	439	0	0	
11	0	0	0	0	518	374	1020	423	0	0	
12	0	0	0	0	493	377	1020	409	0	0	
13	0	0	0	0	472	388	1021	396	0	0	
14	0	0	0	0	454	406	1021	388	0	0	
15	0	0	0	0	442	430	1021	383	0	0	
0	0	0	0	0	438	456	1021	383	0	0	
1	0	0	0	0	442	482	1021	388	0	0	
2	0	0	0	0	454	507	1021	398	0	0	
3	0	0	0	0	472	525	1021	410	0	0	
4	0	0	0	0	495	537	1021	425	0	0	
5	0	0	0	0	520	542	1021	440	0	0	
6	0	0	0	0	545	539	1021	455	0	0	
7	0	0	0	0	568	527	1021	467	0	0	
8	0	0	0	0	586	510	1021	476	0	0	
9	0	0	0	0	598	486	1021	481	0	0	
10	0	0	0	0	603	460	1020	481	0	0	
11	0	0	0	0	598	433	1020	476	0	0	
12	0	0	0	0	587	408	1021	465	0	0	
13	0	0	0	0	568	388	1021	452	0	0	
14	0	0	0	0	544	373	1021	436	0	0	
15	0	0	0	0	517	366	1020	418	0	0	
0	0	0	0	0	489	365	1021	400	0	0	
1	0	0	0	0	462	372	1021	384	0	0	
2	0	0	0	0	439	385	1021	370	0	0	
3	0	0	0	0	420	403	1021	360	0	0	
4	0	0	0	0	408	424	1021	354	0	0	
5	0	0	0	0	405	444	1021	352	0	0	
6	0	0	0	0	407	462	1021	353	0	0	
7	0	0	0	0	415	473	1021	356	0	0	
8	0	0	0	0	428	477	1021	362	0	0	
9	0	0	0	0	443	473	1021	367	0	0	
10	0	0	0	0	456	460	1021	371	0	0	
11	0	0	0	0	468	439	1021	373	0	0	
12	0	0	0	0	475	410	1021	371	0	0	
13	0	0	0	0	476	376	1021	364	0	0	
14	0	0	0	0	469	337	1021	352	0	0	
15	0	0	0	0	455	299	1021	335	0	0	
0	0	0	0	0	432	263	1021	314	0	0	
1	0	0	0	0	403	230	1021	290	0	0	
2	0	0	0	0	371	204	1021	264	0	0	
3	0	0	0	0	336	186	1021	237	0	0	
4	0	0	0	0	301	177	1021	211	0	0	
5	0	0	0	0	270	177	1021	188	0	0	
6	0	0	0	0	242	186	1021	170	0	0	
7	0	0	0	0	222	204	1021	158	0	0	
8	0	0	0	0	212	228	1021	154	0	0	
9	0	0	0	0	213	255	1020	158	0	0	
10	0	0	0	0	225	283	1021	168	0	0	
11	0	0	0	0	248	310	1021	187	0	0	
12	0	0	0	0	278	333	1021	211	0	0	
13	0	0	0	0	315	351	1020	240	0	0	
14	0	0	0	0	356	364	1020	271	0	0	
15	0	0	0	0	400	370	1021	303	0	0	
0	0	0	0	0	441	371	1021	335	0	0	
1	0	0	0	0	477	367	1021	363	0	0	
2	0	0	0	0	507	359	1020	386	0	0	
3	0	0	0	0	528	351	1020	404	0	0	
4	0	0	0	0	541	344	1021	417	0	0	
5	0	0	0	0	544	340	1021	424	0	0	
6	0	0	0	0	540	342	1021	427	0	0	
7	0	0	0	0	530	350	1021	425	0	0	
8	0	0	0	0	516	364	1021	421	0	0	
9	0	0	0	0	501	385	1021	416	0	0	
10	0	0	0	0	487	411	1021	411	0	0	
11	0	0	0	0	476	440	1021	409	0	0	
12	0	0	0	0	470	471	1020	409	0	0	
13	0	0	0	0	471	502	1020	412	0	0	
14	0	0	0	0	478	527	1021	419	0	0	
15	0	0	0	0	490	548	1021	429	0	0	
0	0	0	0	0	507	560	1021	440	0	0	
1	0	0	0	0	525	563	1021	451	0	0	
2	0	0	0	0	544	557	1021	461	0	0	
3	0	0	0	0	561	543	1021	470	0	0	
4	0	0	0	0	575	520	1021	476	0	0	
5	0	0	0	0	584	493	1021	478	0	0	
6	0	0	0	0	587	463	1021	476	0	0	
7	0	0	0	0	582	432	1020	471	0	0	
8	0	0	0	0	573	405	1021	462	0	0	
9	0	0	0	0	557	384	1021	451	0	0	
10	0	0	0	0	537	370	1021	438	0	0	
11	0	0	0	0	516	364	1020	424	0	0	
12	0	0	0	0	495	368	1020	412	0	0	
13	0	0	0	0	476	380	1021	403	0	0	
14	0	0	0	0	461	400	1021	396	0	0	
15	0	0	0	0	452	427	1021	394	0	0	
0	0	0	0	0	450	456	1021	396	0	0	
1	0	0	0	0	456	487	1021	402	0	0	
2	0	0	0	0	468	514	1021	413	0	0	
3	0	0	0	0	487	537	1021	426	0	0	
4	0	0	0	0	508	551	1021	440	0	0	
5	0	0	0	0	532	558	1021	455	0	0	
6	0	0	0	0	556	556	1021	469	0	0	
7	0	0	0	0	576	545	1021	480	0	0	
8	0	0	0	0	593	527	1021	489	0	0	
9	0	0	0	0	603	503	1021	492	0	0	
10	0	0	0	0	605	475	1020	491	0	0	
11	0	0	0	0	600	447	1021	486	0	0	
12	0	0	0	0	588	421	1021	475	0	0	
13	0	0	0	0	569	400	1021	463	0	0	
14	0	0	0	0	547	386	1021	448	0	0	
15	0	0	0	0	524	380	1020	433	0	0	
0	0	0	0	0	499	382	1020	419	0	0	
1	0	0	0	0	479	393	1021	408	0	0	
2	0	0	0	0	463	412	1021	400	0	0	
3	0	0	0	0	452	436	1021	396	0	0	
4	0	0	0	0	449	463	1020	397	0	0	
5	0	0	0	0	454	491	1021	403	0	0	
6	0	0	0	0	466	516	1021	413	0	0	
7	0	0	0	0	484	536	1021	427	0	0	
8	0	0	0	0	506	549	1021	440	0	0	
9	0	0	0	0	530	554	1021	455	0	0	
10	0	0	0	0	554	551	1021	469	0	0	
11	0	0	0	0	575	540	1021	480	0	0	
12	0	0	0	0	591	522	1021	487	0	0	
13	0	0	0	0	601	499	1021	491	0	0	
14	0	0	0	0	604	472	1021	489	0	0	
15	0	0	0	0	600	445	1021	482	0	0	
0	0	0	0	0	588	420	1021	472	0	0	
1	0	0	0	0	570	400	1021	458	0	0	
2	0	0	0	0	547	386	1021	443	0	0	
3	0	0	0	0	522	380	1021	427	0	0	
4	0	0	0	0	498	382	1021	412	0	0	
5	0	0	0	0	476	392	1021	399	0	0	
6	0	0	0	0	457	409	1021	391	0	0	
7	0	0	0	0	446	432	1021	386	0	0	
8	0	0	0	0	441	458	1021	386	0	0	
9	0	0	0	0	446	484	1021	391	0	0	
10	0	0	0	0	457	508	1021	400	0	0	
11	0	0	0	0	475	527	1021	412	0	0	
12	0	0	0	0	497	540	1021	427	0	0	
13	0	0	0	0	521	545	1021	442	0	0	
14	0	0	0	0	546	542	1021	457	0	0	
15	0	0	0	0	569	532	1021	469	0	0	
0	0	0	0	0	588	515	1021	479	0	0	
1	0	0	0	0	600	492	1021	483	0	0	
2	0	0	0	0	605	467	1021	484	0	0	
3	0	0	0	0	603	441	1021	480	0	0	
4	0	0	0	0	592	418	1021	472	0	0	
5	0	0	0	0	576	399	1021	461	0	0	
6	0	0	0	0	555	387	1021	448	0	0	
7	0	0	0	0	531	383	1021	434	0	0	
8	0	0	0	0	508	386	1021	420	0	0	
9	0	0	0	0	486	397	1021	409	0	0	
10	0	0	0	0	467	415	1021	400	0	0	
11	0	0	0	0	455	439	1021	396	0	0	
12	0	0	0	0	450	465	1021	396	0	0	
13	0	0	0	0	453	491	1021	399	0	0	
14	0	0	0	0	463	515	1021	408	0	0	
15	0	0	0	0	479	534	1021	419	0	0	
0	0	0	0	0	499	545	1021	431	0	0	
1	0	0	0	0	521	549	1021	444	0	0	
2	0	0	0	0	544	544	1021	456	0	0	
3	0	0	0	0	564	532	1021	466	0	0	
4	0	0	0	0	580	513	1021	473	0	0	
5	0	0	0	0	590	488	1021	476	0	0	
6	0	0	0	0	592	461	1021	475	0	0	
7	0	0	0	0	588	433	1021	470	0	0	
8	0	0	0	0	577	408	1021	461	0	0	
9	0	0	0	0	560	388	1021	449	0	0	
10	0	0	0	0	538	375	1021	436	0	0	
11	0	0	0	0	514	369	1021	422	0	0	
12	0	0	0	0	492	372	1021	409	0	0	
13	0	0	0	0	470	383	1021	398	0	0	
14	0	0	0	0	453	401	1021	391	0	0	
15	0	0	0	0	441	426	1021	387	0	0	
0	0	0	0	0	438	453	1021	388	0	0	
1	0	0	0	0	443	481	1021	394	0	0	
2	0	0	0	0	454	507	1021	403	0	0	
3	0	0	0	0	472	526	1021	416	0	0	
4	0	0	0	0	494	540	1021	430	0	0	
5	0	0	0	0	518	546	1021	445	0	0	
6	0	0	0	0	542	543	1021	458	0	0	
7	0	0	0	0	564	532	1021	469	0	0	
8	0	0	0	0	581	514	1021	476	0	0	
9	0	0	0	0	592	491	1021	480	0	0	
10	0	0	0	0	595	463	1021	478	0	0	
11	0	0	0	0	591	435	1021	471	0	0	
12	0	0	0	0	579	410	1021	461	0	0	
13	0	0	0	0	561	389	1021	448	0	0	
14	0	0	0	0	540	375	1021	433	0	0	
15	0	0	0	0	515	368	1021	418	0	0	
0	0	0	0	0	491	370	1021	403	0	0	
1	0	0	0	0	470	380	1021	391	0	0	
2	0	0	0	0	452	398	1021	383	0	0	
3	0	0	0	0	441	422	1021	379	0	0	
4	0	0	0	0	438	449	1021	380	0	0	
5	0	0	0	0	442	477	1021	386	0	0	
6	0	0	0	0	454	503	1021	396	0	0	
7	0	0	0	0	471	523	1021	409	0	0	
8	0	0	0	0	493	537	1021	424	0	0	
9	0	0	0	0	516	543	1021	440	0	0	
10	0	0	0	0	540	540	1021	454	0	0	
11	0	0	0	0	560	529	1021	465	0	0	
12	0	0	0	0	576	511	1021	473	0	0	
13	0	0	0	0	587	487	1021	477	0	0	
14	0	0	0	0	589	459	1021	475	0	0	
15	0	0	0	0	584	431	1021	468	0	0	
0	0	0	0	0	572	405	1021	458	0	0	
1	0	0	0	0	553	384	1021	445	0	0	
2	0	0	0	0	531	369	1021	430	0	0	
3	0	0	0	0	507	363	1021	414	0	0	
4	0	0	0	0	483	364	1021	400	0	0	
5	0	0	0	0	461	375	1021	388	0	0	
6	0	0	0	0	444	392	1021	379	0	0	
7	0	0	0	0	432	417	1021	376	0	0	
8	0	0	0	0	428	444	1020	376	0	0	
9	0	0	0	0	433	472	1021	383	0	0	
10	0	0	0	0	446	499	1021	393	0	0	
11	0	0	0	0	464	519	1021	407	0	0	
12	0	0	0	0	487	534	1021	423	0	0	
13	0	0	0	0	512	541	1021	440	0	0	
14	0	0	0	0	537	540	1021	455	0	0	
15	0	0	0	0	560	529	1021	467	0	0	
0	0	0	0	0	578	511	1021	476	0	0	
1	0	0	0	0	590	488	1021	480	0	0	
2	0	0	0	0	593	462	1020	478	0	0	
3	0	0	0	0	589	434	1020	472	0	0	
4	0	0	0	0	577	408	1021	461	0	0	
5	0	0	0	0	559	387	1021	447	0	0	
6	0	0	0	0	536	372	1021	431	0	0	
7	0	0	0	0	510	365	1021	415	0	0	
8	0	0	0	0	484	366	1021	399	0	0	
9	0	0	0	0	461	375	1021	385	0	0	
10	0	0	0	0	442	391	1021	376	0	0	
11	0	0	0	0	429	414	1021	370	0	0	
12	0	0	0	0	423	440	1020	369	0	0	
13	0	0	0	0	425	466	1020	374	0	0	
14	0	0	0	0	436	490	1021	382	0	0	
15	0	0	0	0	452	510	1021	394	0	0	
0	0	0	0	0	474	523	1021	408	0	0	
1	0	0	0	0	497	528	1021	423	0	0	
2	0	0	0	0	522	527	1021	438	0	0	
3	0	0	0	0	545	517	1021	450	0	0	
4	0	0	0	0	564	500	1021	460	0	0	
5	0	0	0	0	577	479	1021	465	0	0	
6	0	0	0	0	583	454	1020	466	0	0	
7	0	0	0	0	581	428	1020	462	0	0	
8	0	0	0	0	572	404	1021	454	0	0	
9	0	0	0	0	556	385	1021	442	0	0	
10	0	0	0	0	536	371	1021	428	0	0	
11	0	0	0	0	512	365	1020	414	0	0	
12	0	0	0	0	488	368	1020	399	0	0	
13	0	0	0	0	466	377	1021	387	0	0	
14	0	0	0	0	447	394	1021	378	0	0	
15	0	0	0	0	434	417	1021	373	0	0	
0	0	0	0	0	428	443	1021	372	0	0	
1	0	0	0	0	430	469	1021	377	0	0	
2	0	0	0	0	440	493	1021	385	0	0	
3	0	0	0	0	455	513	1021	397	0	0	
4	0	0	0	0	476	526	1021	411	0	0	
5	0	0	0	0	498	531	1020	425	0	0	
6	0	0	0	0	521	528	1020	440	0	0	
7	0	0	0	0	543	518	1021	451	0	0	
8	0	0	0	0	560	500	1021	460	0	0	
9	0	0	0	0	571	477	1021	465	0	0	
10	0	0	0	0	575	450	1021	464	0	0	
11	0	0	0	0	572	423	1020	459	0	0	
12	0	0	0	0	562	398	1021	449	0	0	
13	0	0	0	0	545	378	1021	438	0	0	
14	0	0	0	0	525	364	1021	423	0	0	
15	0	0	0	0	502	358	1020	408	0	0	
0	0	0	0	0	479	360	1021	394	0	0	
1	0	0	0	0	457	370	1021	382	0	0	
2	0	0	0	0	439	388	1021	374	0	0	
3	0	0	0	0	428	412	1021	369	0	0	
4	0	0	0	0	423	439	1021	369	0	0	
5	0	0	0	0	426	467	1021	375	0	0	
6	0	0	0	0	438	493	1021	384	0	0	
7	0	0	0	0	455	514	1021	398	0	0	
8	0	0	0	0	477	528	1021	413	0	0	
9	0	0	0	0	501	536	1021	429	0	0	
10	0	0	0	0	525	534	1020	443	0	0	
11	0	0	0	0	548	524	1021	455	0	0	
12	0	0	0	0	566	507	1021	465	0	0	
13	0	0	0	0	578	484	1021	470	0	0	
14	0	0	0	0	582	458	1021	470	0	0	
15	0	0	0	0	578	431	1020	464	0	0	
0	0	0	0	0	568	406	1021	455	0	0	
1	0	0	0	0	551	385	1021	443	0	0	
2	0	0	0	0	530	371	1021	429	0	0	
3	0	0	0	0	506	364	1021	414	0	0	
4	0	0	0	0	482	365	1021	399	0	0	
5	0	0	0	0	460	374	1021	387	0	0	
6	0	0	0	0	443	391	1021	377	0	0	
7	0	0	0	0	430	413	1021	372	0	0	
8	0	0	0	0	426	440	1021	372	0	0	
9	0	0	0	0	429	466	1021	376	0	0	
10	0	0	0	0	440	491	1021	385	0	0	
11	0	0	0	0	457	511	1021	397	0	0	
12	0	0	0	0	478	525	1021	411	0	0	
13	0	0	0	0	502	530	1021	425	0	0	
14	0	0	0	0	525	527	1021	440	0	0	
15	0	0	0	0	547	517	1021	452	0	0	
0	0	0	0	0	564	499	1021	460	0	0	
1	0	0	0	0	575	476	1021	465	0	0	
2	0	0	0	0	579	450	1021	465	0	0	
3	0	0	0	0	575	423	1021	460	0	0	
4	0	0	0	0	564	397	1021	451	0	0	
5	0	0	0	0	547	377	1021	439	0	0	
6	0	0	0	0	526	363	1021	425	0	0	
7	0	0	0	0	502	356	1020	411	0	0	
8	0	0	0	0	479	358	1021	396	0	0	
9	0	0	0	0	457	368	1021	385	0	0	
10	0	0	0	0	440	386	1021	376	0	0	
11	0	0	0	0	430	410	1021	372	0	0	
12	0	0	0	0	427	438	1021	373	0	0	
13	0	0	0	0	431	466	1021	378	0	0	
14	0	0	0	0	444	492	1021	388	0	0	
15	0	0	0	0	463	514	1021	401	0	0	
0	0	0	0	0	486	529	1021	416	0	0	
1	0	0	0	0	511	536	1020	432	0	0	
2	0	0	0	0	535	535	1020	446	0	0	
3	0	0	0	0	558	525	1021	458	0	0	
4	0	0	0	0	575	509	1021	467	0	0	
5	0	0	0	0	587	486	1021	472	0	0	
6	0	0	0	0	590	460	1021	472	0	0	
7	0	0	0	0	584	433	1021	466	0	0	
8	0	0	0	0	572	407	1021	456	0	0	
9	0	0	0	0	553	386	1021	443	0	0	
10	0	0	0	0	530	371	1021	428	0	0	
11	0	0	0	0	504	364	1021	412	0	0	
12	0	0	0	0	478	364	1020	396	0	0	
13	0	0	0	0	456	374	1021	383	0	0	
14	0	0	0	0	437	391	1021	373	0	0	
15	0	0	0	0	425	414	1021	368	0	0	
0	0	0	0	0	420	441	1021	368	0	0	
1	0	0	0	0	424	468	1020	372	0	0	
2	0	0	0	0	436	494	1021	381	0	0	
3	0	0	0	0	455	515	1021	394	0	0	
4	0	0	0	0	477	529	1021	408	0	0	
5	0	0	0	0	502	536	1021	424	0	0	
6	0	0	0	0	527	534	1021	439	0	0	
7	0	0	0	0	550	525	1021	452	0	0	
8	0	0	0	0	568	508	1021	462	0	0	
9	0	0	0	0	581	485	1021	468	0	0	
10	0	0	0	0	586	459	1020	469	0	0	
11	0	0	0	0	583	432	1020	465	0	0	
12	0	0	0	0	573	407	1021	457	0	0	
13	0	0	0	0	556	387	1021	446	0	0	
14	0	0	0	0	535	373	1021	432	0	0	
15	0	0	0	0	511	366	1021	418	0	0	
0	0	0	0	0	487	368	1021	404	0	0	
1	0	0	0	0	465	378	1021	392	0	0	
2	0	0	0	0	447	396	1021	383	0	0	
3	0	0	0	0	435	419	1021	379	0	0	
4	0	0	0	0	430	447	1021	378	0	0	
5	0	0	0	0	433	475	1021	383	0	0	
6	0	0	0	0	444	501	1021	391	0	0	
7	0	0	0	0	461	522	1021	403	0	0	
8	0	0	0	0	483	537	1021	418	0	0	
9	0	0	0	0	507	543	1021	433	0	0	
10	0	0	0	0	531	542	1021	447	0	0	
11	0	0	0	0	554	532	1021	460	0	0	
12	0	0	0	0	572	514	1021	468	0	0	
13	0	0	0	0	583	491	1021	472	0	0	
14	0	0	0	0	588	464	1020	472	0	0	
15	0	0	0	0	585	436	1021	467	0	0	
0	0	0	0	0	575	410	1021	457	0	0	
1	0	0	0	0	558	389	1021	444	0	0	
2	0	0	0	0	536	374	1021	429	0	0	
3	0	0	0	0	512	367	1020	415	0	0	
4	0	0	0	0	488	368	1020	400	0	0	
5	0	0	0	0	467	378	1021	388	0	0	
6	0	0	0	0	449	396	1021	380	0	0	
7	0	0	0	0	437	419	1021	376	0	0	
8	0	0	0	0	433	446	1021	377	0	0	
9	0	0	0	0	436	474	1020	382	0	0	
10	0	0	0	0	447	499	1021	391	0	0	
11	0	0	0	0	463	519	1021	404	0	0	
12	0	0	0	0	484	533	1021	419	0	0	
13	0	0	0	0	507	539	1020	433	0	0	
14	0	0	0	0	530	536	1021	447	0	0	
15	0	0	0	0	551	526	1021	458	0	0	
0	0	0	0	0	567	508	1021	466	0	0	
1	0	0	0	0	577	484	1021	470	0	0	
2	0	0	0	0	580	456	1021	468	0	0	
3	0	0	0	0	575	429	1020	462	0	0	
4	0	0	0	0	564	403	1021	452	0	0	
5	0	0	0	0	547	382	1021	439	0	0	
6	0	0	0	0	525	367	1021	424	0	0	
7	0	0	0	0	501	360	1020	409	0	0	
8	0	0	0	0	478	361	1021	395	0	0	
9	0	0	0	0	455	371	1021	383	0	0	
10	0	0	0	0	438	388	1021	374	0	0	
11	0	0	0	0	427	412	1021	370	0	0	
12	0	0	0	0	423	438	1021	371	0	0	
13	0	0	0	0	426	466	1021	376	0	0	
14	0	0	0	0	437	491	1021	385	0	0	
15	0	0	0	0	455	511	1021	398	0	0	
0	0	0	0	0	476	524	1021	412	0	0	
1	0	0	0	0	500	529	1021	428	0	0	
2	0	0	0	0	523	527	1020	442	0	0	
3	0	0	0	0	545	516	1021	454	0	0	
4	0	0	0	0	562	499	1021	463	0	0	
5	0	0	0	0	574	476	1021	468	0	0	
6	0	0	0	0	579	449	1021	468	0	0	
7	0	0	0	0	575	422	1021	463	0	0	
8	0	0	0	0	566	397	1021	454	0	0	
9	0	0	0	0	549	377	1021	442	0	0	
10	0	0	0	0	528	364	1021	428	0	0	
11	0	0	0	0	505	358	1020	413	0	0	
12	0	0	0	0	482	361	1020	398	0	0	
13	0	0	0	0	461	371	1021	386	0	0	
14	0	0	0	0	444	389	1021	377	0	0	
15	0	0	0	0	433	413	1021	372	0	0	
0	0	0	0	0	429	440	1021	372	0	0	
1	0	0	0	0	432	467	1021	377	0	0	
2	0	0	0	0	444	492	1021	386	0	0	
3	0	0	0	0	460	513	1021	398	0	0	
4	0	0	0	0	482	526	1021	412	0	0	
5	0	0	0	0	505	532	1020	427	0	0	
6	0	0	0	0	528	529	1020	441	0	0	
7	0	0	0	0	550	519	1021	453	0	0	
8	0	0	0	0	567	501	1021	462	0	0	
9	0	0	0	0	578	478	1021	467	0	0	
10	0	0	0	0	583	452	1020	467	0	0	
11	0	0	0	0	579	425	1020	462	0	0	
12	0	0	0	0	568	400	1021	454	0	0	
13	0	0	0	0	551	380	1021	442	0	0	
14	0	0	0	0	531	366	1021	429	0	0	
15	0	0	0	0	507	360	1021	414	0	0	
0	0	0	0	0	483	362	1021	400	0	0	
1	0	0	0	0	462	372	1021	388	0	0	
2	0	0	0	0	444	390	1021	380	0	0	
3	0	0	0	0	432	414	1021	376	0	0	
4	0	0	0	0	428	440	1020	375	0	0	
5	0	0	0	0	431	468	1021	380	0	0	
6	0	0	0	0	442	494	1021	388	0	0	
7	0	0	0	0	458	514	1021	399	0	0	
8	0	0	0	0	479	527	1021	412	0	0	
9	0	0	0	0	502	534	1021	426	0	0	
10	0	0	0	0	526	531	1021	439	0	0	
11	0	0	0	0	547	520	1021	450	0	0	
12	0	0	0	0	564	502	1021	458	0	0	
13	0	0	0	0	575	478	1021	462	0	0	
14	0	0	0	0	579	450	1021	461	0	0	
15	0	0	0	0	576	422	1021	456	0	0	
0	0	0	0	0	565	396	1021	447	0	0	
1	0	0	0	0	547	374	1021	434	0	0	
2	0	0	0	0	526	359	1021	420	0	0	
3	0	0	0	0	501	351	1021	405	0	0	
4	0	0	0	0	477	352	1021	391	0	0	
5	0	0	0	0	454	361	1021	380	0	0	
6	0	0	0	0	435	377	1021	371	0	0	
7	0	0	0	0	423	400	1021	367	0	0	
8	0	0	0	0	417	427	1021	367	0	0	
9	0	0	0	0	421	455	1021	372	0	0	
10	0	0	0	0	432	481	1021	381	0	0	
11	0	0	0	0	448	502	1021	394	0	0	
12	0	0	0	0	470	518	1021	409	0	0	
13	0	0	0	0	494	525	1021	424	0	0	
14	0	0	0	0	519	524	1021	439	0	0	
15	0	0	0	0	542	516	1021	451	0	0	
0	0	0	0	0	561	500	1021	461	0	0	
1	0	0	0	0	574	479	1021	466	0	0	
2	0	0	0	0	579	454	1021	466	0	0	
3	0	0	0	0	577	427	1021	462	0	0	
4	0	0	0	0	568	402	1021	453	0	0	
5	0	0	0	0	552	382	1021	442	0	0	
6	0	0	0	0	531	368	1021	429	0	0	
7	0	0	0	0	508	362	1021	415	0	0	
8	0	0	0	0	486	363	1021	401	0	0	
9	0	0	0	0	464	372	1021	389	0	0	
10	0	0	0	0	447	390	1021	381	0	0	
11	0	0	0	0	435	412	1021	376	0	0	
12	0	0	0	0	430	439	1021	376	0	0	
13	0	0	0	0	432	465	1021	381	0	0	
14	0	0	0	0	443	490	1021	390	0	0	
15	0	0	0	0	460	511	1021	402	0	0	
0	0	0	0	0	481	525	1021	416	0	0	
1	0	0	0	0	504	532	1020	430	0	0	
2	0	0	0	0	527	530	1020	444	0	0	
3	0	0	0	0	549	520	1021	456	0	0	
4	0	0	0	0	566	504	1021	465	0	0	
5	0	0	0	0	577	481	1021	470	0	0	
6	0	0	0	0	582	455	1020	469	0	0	
7	0	0	0	0	578	428	1020	464	0	0	
8	0	0	0	0	568	403	1021	456	0	0	
9	0	0	0	0	552	382	1021	444	0	0	
10	0	0	0	0	531	367	1021	431	0	0	
11	0	0	0	0	508	360	1021	416	0	0	
12	0	0	0	0	485	361	1021	402	0	0	
13	0	0	0	0	463	371	1021	390	0	0	
14	0	0	0	0	446	388	1021	381	0	0	
15	0	0	0	0	434	411	1021	376	0	0	
0	0	0	0	0	429	438	1021	376	0	0	
1	0	0	0	0	433	466	1021	381	0	0	
2	0	0	0	0	444	492	1021	390	0	0	
3	0	0	0	0	461	514	1021	402	0	0	
4	0	0	0	0	482	529	1021	417	0	0	
5	0	0	0	0	506	537	1021	432	0	0	
6	0	0	0	0	531	536	1021	447	0	0	
7	0	0	0	0	552	527	1021	460	0	0	
8	0	0	0	0	571	511	1021	470	0	0	
9	0	0	0	0	583	488	1021	476	0	0	
10	0	0	0	0	587	462	1021	476	0	0	
11	0	0	0	0	585	435	1021	472	0	0	
12	0	0	0	0	575	410	1021	464	0	0	
13	0	0	0	0	558	389	1021	453	0	0	
14	0	0	0	0	537	374	1021	439	0	0	
15	0	0	0	0	513	366	1021	425	0	0	
0	0	0	0	0	490	367	1021	410	0	0	
1	0	0	0	0	468	376	1021	398	0	0	
2	0	0	0	0	450	392	1021	388	0	0	
3	0	0	0	0	439	415	1021	384	0	0	
4	0	0	0	0	433	441	1021	383	0	0	
5	0	0	0	0	437	469	1021	387	0	0	
6	0	0	0	0	448	495	1021	396	0	0	
7	0	0	0	0	464	516	1021	408	0	0	
8	0	0	0	0	486	531	1021	422	0	0	
9	0	0	0	0	509	537	1021	437	0	0	
10	0	0	0	0	534	536	1021	451	0	0	
11	0	0	0	0	555	527	1021	463	0	0	
12	0	0	0	0	572	510	1021	471	0	0	
13	0	0	0	0	584	487	1021	476	0	0	
14	0	0	0	0	588	460	1021	475	0	0	
15	0	0	0	0	585	433	1021	470	0	0	
0	0	0	0	0	574	407	1021	460	0	0	
1	0	0	0	0	557	385	1021	448	0	0	
2	0	0	0	0	536	369	1021	433	0	0	
3	0	0	0	0	512	361	1021	417	0	0	
4	0	0	0	0	488	361	1021	403	0	0	
5	0	0	0	0	466	370	1021	390	0	0	
6	0	0	0	0	448	386	1021	381	0	0	
7	0	0	0	0	435	409	1021	376	0	0	
8	0	0	0	0	431	436	1021	376	0	0	
9	0	0	0	0	434	464	1021	381	0	0	
10	0	0	0	0	445	491	1021	390	0	0	
11	0	0	0	0	462	513	1021	403	0	0	
12	0	0	0	0	485	529	1021	418	0	0	
13	0	0	0	0	509	537	1021	434	0	0	
14	0	0	0	0	534	536	1021	449	0	0	
15	0	0	0	0	557	528	1021	462	0	0	
0	0	0	0	0	575	512	1021	471	0	0	
1	0	0	0	0	587	490	1021	476	0	0	
2	0	0	0	0	592	464	1021	476	0	0	
3	0	0	0	0	590	437	1021	472	0	0	
4	0	0	0	0	580	412	1021	463	0	0	
5	0	0	0	0	563	390	1021	451	0	0	
6	0	0	0	0	541	374	1021	436	0	0	
7	0	0	0	0	516	365	1020	420	0	0	
8	0	0	0	0	492	366	1020	406	0	0	
9	0	0	0	0	469	374	1021	393	0	0	
10	0	0	0	0	450	390	1021	383	0	0	
11	0	0	0	0	436	412	1021	378	0	0	
12	0	0	0	0	431	438	1020	378	0	0	
13	0	0	0	0	432	464	1020	382	0	0	
14	0	0	0	0	443	490	1021	391	0	0	
15	0	0	0	0	459	512	1021	403	0	0	
0	0	0	0	0	480	527	1021	418	0	0	
1	0	0	0	0	504	534	1021	434	0	0	
2	0	0	0	0	528	534	1020	449	0	0	
3	0	0	0	0	551	525	1021	462	0	0	
4	0	0	0	0	570	509	1021	472	0	0	
5	0	0	0	0	583	487	1021	478	0	0	
6	0	0	0	0	590	462	1021	478	0	0	
7	0	0	0	0	588	435	1021	474	0	0	
8	0	0	0	0	579	411	1021	465	0	0	
9	0	0	0	0	563	391	1021	454	0	0	
10	0	0	0	0	543	377	1021	440	0	0	
11	0	0	0	0	521	370	1020	425	0	0	
12	0	0	0	0	497	371	1020	410	0	0	
13	0	0	0	0	475	380	1021	398	0	0	
14	0	0	0	0	457	397	1021	388	0	0	
15	0	0	0	0	444	420	1021	383	0	0	
0	0	0	0	0	438	446	1021	382	0	0	
1	0	0	0	0	439	473	1021	385	0	0	
2	0	0	0	0	448	498	1021	393	0	0	
3	0	0	0	0	464	518	1021	404	0	0	
4	0	0	0	0	483	532	1021	418	0	0	
5	0	0	0	0	505	539	1021	432	0	0	
6	0	0	0	0	527	536	1020	446	0	0	
7	0	0	0	0	550	526	1021	458	0	0	
