# OpenSignals Text File Format. Version 1
# {"": {"position": 0, "device": "", "device name": "", "device connection": "", "sampling rate": 1000, "resolution": [4, 1, 1, 1, 1, 10, 10, 10, 10, 6, 6], "firmware version": 1281, "comments": "", "keywords": "", "mode": 0, "sync interval": 2, "date": "", "time": "", "channels": [1, 2, 3, 4, 5, 6], "sensor": ["RAW", "RAW", "RAW", "RAW", "RAW", "RAW"], "label": ["A1", "A2", "A3", "A4", "A5", "A6"], "column": ["nSeq", "I1", "I2", "O1", "O2", "A1", "A2", "A3", "A4", "A5", "A6"], "special": [{}, {}, {}, {}, {}, {}], "digital IO": [0, 0, 1, 1]}}
# EndOfHeader
0	0	0	0	0	0	0	432	629	0	0	
1	0	0	0	0	0	0	433	632	0	0	
2	0	0	0	0	0	0	433	635	0	0	
3	0	0	0	0	0	0	432	638	0	0	
4	0	0	0	0	0	0	429	639	0	0	
5	0	0	0	0	0	0	425	640	0	0	
6	0	0	0	0	0	0	420	639	0	0	
7	0	0	0	0	0	0	415	638	0	0	
8	0	0	0	0	0	0	408	634	0	0	
9	0	0	0	0	0	0	402	630	0	0	
10	0	0	0	0	0	0	396	626	0	0	
11	0	0	0	0	0	0	391	620	0	0	
12	0	0	0	0	0	0	387	614	0	0	
13	0	0	0	0	0	0	384	608	0	0	
14	0	0	0	0	0	0	383	604	0	0	
15	0	0	0	0	0	0	383	601	0	0	
0	0	0	0	0	0	0	385	598	0	0	
1	0	0	0	0	0	0	389	598	0	0	
2	0	0	0	0	0	0	394	600	0	0	
3	0	0	0	0	0	0	400	604	0	0	
4	0	0	0	0	0	0	406	609	0	0	
5	0	0	0	0	0	0	413	615	0	0	
6	0	0	0	0	0	0	419	622	0	0	
7	0	0	0	0	0	0	423	629	0	0	
8	0	0	0	0	0	0	426	635	0	0	
9	0	0	0	0	0	0	427	640	0	0	
10	0	0	0	0	0	0	426	644	0	0	
11	0	0	0	0	0	0	423	647	0	0	
12	0	0	0	0	0	0	419	649	0	0	
13	0	0	0	0	0	0	415	649	0	0	
14	0	0	0	0	0	0	409	650	0	0	
15	0	0	0	0	0	0	404	649	0	0	
0	0	0	0	0	0	0	400	647	0	0	
1	0	0	0	0	0	0	397	646	0	0	
2	0	0	0	0	0	0	396	644	0	0	
3	0	0	0	0	0	0	396	644	0	0	
4	0	0	0	0	0	0	397	643	0	0	
5	0	0	0	0	0	0	400	643	0	0	
6	0	0	0	0	0	0	403	644	0	0	
7	0	0	0	0	0	0	405	644	0	0	
8	0	0	0	0	0	0	407	645	0	0	
9	0	0	0	0	0	0	407	644	0	0	
10	0	0	0	0	0	0	406	643	0	0	
11	0	0	0	0	0	0	404	641	0	0	
12	0	0	0	0	0	0	401	639	0	0	
13	0	0	0	0	0	0	399	637	0	0	
14	0	0	0	0	0	0	397	634	0	0	
15	0	0	0	0	0	0	396	632	0	0	
0	0	0	0	0	0	0	398	631	0	0	
1	0	0	0	0	0	0	402	631	0	0	
2	0	0	0	0	0	0	408	632	0	0	
3	0	0	0	0	0	0	416	633	0	0	
4	0	0	0	0	0	0	426	635	0	0	
5	0	0	0	0	0	0	436	637	0	0	
6	0	0	0	0	0	0	447	639	0	0	
7	0	0	0	0	0	0	456	639	0	0	
8	0	0	0	0	0	0	464	640	0	0	
9	0	0	0	0	0	0	471	640	0	0	
10	0	0	0	0	0	0	474	640	0	0	
11	0	0	0	0	0	0	475	638	0	0	
12	0	0	0	0	0	0	473	638	0	0	
13	0	0	0	0	0	0	470	636	0	0	
14	0	0	0	0	0	0	463	633	0	0	
15	0	0	0	0	0	0	455	632	0	0	
0	0	0	0	0	0	0	448	632	0	0	
1	0	0	0	0	0	0	439	631	0	0	
2	0	0	0	0	0	0	431	631	0	0	
3	0	0	0	0	0	0	423	631	0	0	
4	0	0	0	0	0	0	418	632	0	0	
5	0	0	0	0	0	0	414	633	0	0	
6	0	0	0	0	0	0	411	636	0	0	
7	0	0	0	0	0	0	410	637	0	0	
8	0	0	0	0	0	0	410	638	0	0	
9	0	0	0	0	0	0	412	640	0	0	
10	0	0	0	0	0	0	416	641	0	0	
11	0	0	0	0	0	0	420	644	0	0	
12	0	0	0	0	0	0	426	645	0	0	
13	0	0	0	0	0	0	432	647	0	0	
14	0	0	0	0	0	0	437	649	0	0	
15	0	0	0	0	0	0	442	652	0	0	
0	0	0	0	0	0	0	446	655	0	0	
1	0	0	0	0	0	0	449	657	0	0	
2	0	0	0	0	0	0	451	660	0	0	
3	0	0	0	0	0	0	451	662	0	0	
4	0	0	0	0	0	0	451	664	0	0	
5	0	0	0	0	0	0	450	667	0	0	
6	0	0	0	0	0	0	448	668	0	0	
7	0	0	0	0	0	0	446	668	0	0	
8	0	0	0	0	0	0	444	669	0	0	
9	0	0	0	0	0	0	442	670	0	0	
10	0	0	0	0	0	0	442	670	0	0	
11	0	0	0	0	0	0	441	669	0	0	
12	0	0	0	0	0	0	442	668	0	0	
13	0	0	0	0	0	0	443	666	0	0	
14	0	0	0	0	0	0	444	664	0	0	
15	0	0	0	0	0	0	446	663	0	0	
0	0	0	0	0	0	0	448	660	0	0	
1	0	0	0	0	0	0	449	658	0	0	
2	0	0	0	0	0	0	449	656	0	0	
3	0	0	0	0	0	0	450	655	0	0	
4	0	0	0	0	0	0	450	656	0	0	
5	0	0	0	0	0	0	450	656	0	0	
6	0	0	0	0	0	0	449	657	0	0	
7	0	0	0	0	0	0	449	660	0	0	
8	0	0	0	0	0	0	448	663	0	0	
9	0	0	0	0	0	0	448	667	0	0	
10	0	0	0	0	0	0	448	670	0	0	
11	0	0	0	0	0	0	448	672	0	0	
12	0	0	0	0	0	0	447	675	0	0	
13	0	0	0	0	0	0	447	676	0	0	
14	0	0	0	0	0	0	448	678	0	0	
15	0	0	0	0	0	0	448	678	0	0	
0	0	0	0	0	0	0	448	676	0	0	
1	0	0	0	0	0	0	448	675	0	0	
2	0	0	0	0	0	0	448	671	0	0	
3	0	0	0	0	0	0	448	668	0	0	
4	0	0	0	0	0	0	448	664	0	0	
5	0	0	0	0	0	0	447	659	0	0	
6	0	0	0	0	0	0	446	657	0	0	
7	0	0	0	0	0	0	446	654	0	0	
8	0	0	0	0	0	0	446	654	0	0	
9	0	0	0	0	0	0	446	652	0	0	
10	0	0	0	0	0	0	444	653	0	0	
11	0	0	0	0	0	0	443	655	0	0	
12	0	0	0	0	0	0	441	656	0	0	
13	0	0	0	0	0	0	439	659	0	0	
14	0	0	0	0	0	0	436	660	0	0	
15	0	0	0	0	0	0	433	663	0	0	
0	0	0	0	0	0	0	431	666	0	0	
1	0	0	0	0	0	0	428	667	0	0	
2	0	0	0	0	0	0	427	669	0	0	
3	0	0	0	0	0	0	425	669	0	0	
4	0	0	0	0	0	0	424	669	0	0	
5	0	0	0	0	0	0	424	668	0	0	
6	0	0	0	0	0	0	424	667	0	0	
7	0	0	0	0	0	0	425	666	0	0	
8	0	0	0	0	0	0	428	664	0	0	
9	0	0	0	0	0	0	432	663	0	0	
10	0	0	0	0	0	0	436	663	0	0	
11	0	0	0	0	0	0	441	663	0	0	
12	0	0	0	0	0	0	447	664	0	0	
13	0	0	0	0	0	0	452	665	0	0	
14	0	0	0	0	0	0	456	667	0	0	
15	0	0	0	0	0	0	459	668	0	0	
0	0	0	0	0	0	0	461	669	0	0	
1	0	0	0	0	0	0	463	670	0	0	
2	0	0	0	0	0	0	463	671	0	0	
3	0	0	0	0	0	0	463	671	0	0	
4	0	0	0	0	0	0	462	671	0	0	
5	0	0	0	0	0	0	461	670	0	0	
6	0	0	0	0	0	0	460	670	0	0	
7	0	0	0	0	0	0	459	668	0	0	
8	0	0	0	0	0	0	458	666	0	0	
9	0	0	0	0	0	0	458	665	0	0	
10	0	0	0	0	0	0	457	664	0	0	
11	0	0	0	0	0	0	457	663	0	0	
12	0	0	0	0	0	0	457	662	0	0	
13	0	0	0	0	0	0	456	661	0	0	
14	0	0	0	0	0	0	456	662	0	0	
15	0	0	0	0	0	0	455	662	0	0	
0	0	0	0	0	0	0	456	664	0	0	
1	0	0	0	0	0	0	456	667	0	0	
2	0	0	0	0	0	0	457	671	0	0	
3	0	0	0	0	0	0	458	675	0	0	
4	0	0	0	0	0	0	459	680	0	0	
5	0	0	0	0	0	0	460	686	0	0	
6	0	0	0	0	0	0	461	689	0	0	
7	0	0	0	0	0	0	462	694	0	0	
8	0	0	0	0	0	0	463	697	0	0	
9	0	0	0	0	0	0	464	698	0	0	
10	0	0	0	0	0	0	465	698	0	0	
11	0	0	0	0	0	0	466	696	0	0	
12	0	0	0	0	0	0	467	694	0	0	
13	0	0	0	0	0	0	467	689	0	0	
14	0	0	0	0	0	0	467	684	0	0	
15	0	0	0	0	0	0	467	679	0	0	
0	0	0	0	0	0	0	466	673	0	0	
1	0	0	0	0	0	0	465	668	0	0	
2	0	0	0	0	0	0	465	664	0	0	
3	0	0	0	0	0	0	465	662	0	0	
4	0	0	0	0	0	0	466	661	0	0	
5	0	0	0	0	0	0	468	663	0	0	
6	0	0	0	0	0	0	470	666	0	0	
7	0	0	0	0	0	0	473	670	0	0	
8	0	0	0	0	0	0	476	675	0	0	
9	0	0	0	0	0	0	480	682	0	0	
10	0	0	0	0	0	0	483	687	0	0	
11	0	0	0	0	0	0	486	691	0	0	
12	0	0	0	0	0	0	487	696	0	0	
13	0	0	0	0	0	0	488	696	0	0	
14	0	0	0	0	0	0	487	697	0	0	
15	0	0	0	0	0	0	486	694	0	0	
0	0	0	0	0	0	0	484	691	0	0	
1	0	0	0	0	0	0	481	688	0	0	
2	0	0	0	0	0	0	479	684	0	0	
3	0	0	0	0	0	0	476	679	0	0	
4	0	0	0	0	0	0	473	675	0	0	
5	0	0	0	0	0	0	471	672	0	0	
6	0	0	0	0	0	0	468	669	0	0	
7	0	0	0	0	0	0	466	667	0	0	
8	0	0	0	0	0	0	463	666	0	0	
9	0	0	0	0	0	0	459	664	0	0	
10	0	0	0	0	0	0	455	664	0	0	
11	0	0	0	0	0	0	450	665	0	0	
12	0	0	0	0	0	0	446	665	0	0	
13	0	0	0	0	0	0	442	667	0	0	
14	0	0	0	0	0	0	439	669	0	0	
15	0	0	0	0	0	0	436	671	0	0	
0	0	0	0	0	0	0	434	673	0	0	
1	0	0	0	0	0	0	434	675	0	0	
2	0	0	0	0	0	0	435	678	0	0	
3	0	0	0	0	0	0	436	679	0	0	
4	0	0	0	0	0	0	439	679	0	0	
5	0	0	0	0	0	0	442	679	0	0	
6	0	0	0	0	0	0	445	679	0	0	
7	0	0	0	0	0	0	448	679	0	0	
8	0	0	0	0	0	0	452	678	0	0	
9	0	0	0	0	0	0	455	678	0	0	
10	0	0	0	0	0	0	458	678	0	0	
11	0	0	0	0	0	0	461	679	0	0	
12	0	0	0	0	0	0	463	682	0	0	
13	0	0	0	0	0	0	465	684	0	0	
14	0	0	0	0	0	0	467	688	0	0	
15	0	0	0	0	0	0	467	692	0	0	
0	0	0	0	0	0	0	467	695	0	0	
1	0	0	0	0	0	0	465	699	0	0	
2	0	0	0	0	0	0	462	700	0	0	
3	0	0	0	0	0	0	457	700	0	0	
4	0	0	0	0	0	0	451	698	0	0	
5	0	0	0	0	0	0	444	695	0	0	
6	0	0	0	0	0	0	438	691	0	0	
7	0	0	0	0	0	0	432	684	0	0	
8	0	0	0	0	0	0	427	678	0	0	
9	0	0	0	0	0	0	423	672	0	0	
10	0	0	0	0	0	0	421	666	0	0	
11	0	0	0	0	0	0	421	662	0	0	
12	0	0	0	0	0	0	423	659	0	0	
13	0	0	0	0	0	0	426	659	0	0	
14	0	0	0	0	0	0	432	660	0	0	
15	0	0	0	0	0	0	438	663	0	0	
0	0	0	0	0	0	0	445	668	0	0	
1	0	0	0	0	0	0	452	671	0	0	
2	0	0	0	0	0	0	458	675	0	0	
3	0	0	0	0	0	0	463	679	0	0	
4	0	0	0	0	0	0	467	683	0	0	
5	0	0	0	0	0	0	469	684	0	0	
6	0	0	0	0	0	0	470	685	0	0	
7	0	0	0	0	0	0	470	685	0	0	
8	0	0	0	0	0	0	471	685	0	0	
9	0	0	0	0	0	0	470	684	0	0	
10	0	0	0	0	0	0	471	684	0	0	
11	0	0	0	0	0	0	471	682	0	0	
12	0	0	0	0	0	0	471	680	0	0	
13	0	0	0	0	0	0	471	677	0	0	
14	0	0	0	0	0	0	471	674	0	0	
15	0	0	0	0	0	0	470	671	0	0	
0	0	0	0	0	0	0	470	668	0	0	
1	0	0	0	0	0	0	469	664	0	0	
2	0	0	0	0	0	0	468	661	0	0	
3	0	0	0	0	0	0	467	657	0	0	
4	0	0	0	0	0	0	464	655	0	0	
5	0	0	0	0	0	0	461	652	0	0	
6	0	0	0	0	0	0	457	650	0	0	
7	0	0	0	0	0	0	453	649	0	0	
8	0	0	0	0	0	0	448	649	0	0	
9	0	0	0	0	0	0	444	649	0	0	
10	0	0	0	0	0	0	440	649	0	0	
11	0	0	0	0	0	0	438	649	0	0	
12	0	0	0	0	0	0	436	650	0	0	
13	0	0	0	0	0	0	436	650	0	0	
14	0	0	0	0	0	0	437	651	0	0	
15	0	0	0	0	0	0	439	650	0	0	
0	0	0	0	0	0	0	441	649	0	0	
1	0	0	0	0	0	0	444	647	0	0	
2	0	0	0	0	0	0	448	645	0	0	
3	0	0	0	0	0	0	452	644	0	0	
4	0	0	0	0	0	0	455	643	0	0	
5	0	0	0	0	0	0	459	643	0	0	
6	0	0	0	0	0	0	461	643	0	0	
7	0	0	0	0	0	0	464	644	0	0	
8	0	0	0	0	0	0	466	647	0	0	
9	0	0	0	0	0	0	467	650	0	0	
10	0	0	0	0	0	0	467	654	0	0	
11	0	0	0	0	0	0	465	657	0	0	
12	0	0	0	0	0	0	463	660	0	0	
13	0	0	0	0	0	0	460	663	0	0	
14	0	0	0	0	0	0	456	664	0	0	
15	0	0	0	0	0	0	452	665	0	0	
0	0	0	0	0	0	0	448	664	0	0	
1	0	0	0	0	0	0	443	662	0	0	
2	0	0	0	0	0	0	437	659	0	0	
3	0	0	0	0	0	0	431	653	0	0	
4	0	0	0	0	0	0	424	646	0	0	
5	0	0	0	0	0	0	417	638	0	0	
6	0	0	0	0	0	0	409	629	0	0	
7	0	0	0	0	0	0	401	619	0	0	
8	0	0	0	0	0	0	392	610	0	0	
9	0	0	0	0	0	0	383	600	0	0	
10	0	0	0	0	0	0	373	590	0	0	
11	0	0	0	0	0	0	362	581	0	0	
12	0	0	0	0	0	0	350	572	0	0	
13	0	0	0	0	0	0	338	562	0	0	
14	0	0	0	0	0	0	324	551	0	0	
15	0	0	0	0	0	0	310	543	0	0	
0	0	0	0	0	0	0	296	534	0	0	
1	0	0	0	0	0	0	283	527	0	0	
2	0	0	0	0	0	0	272	521	0	0	
3	0	0	0	0	0	0	263	517	0	0	
4	0	0	0	0	0	0	259	516	0	0	
5	0	0	0	0	0	0	259	519	0	0	
6	0	0	0	0	0	0	265	527	0	0	
7	0	0	0	0	0	0	277	537	0	0	
8	0	0	0	0	0	0	294	551	0	0	
9	0	0	0	0	0	0	316	569	0	0	
10	0	0	0	0	0	0	342	589	0	0	
11	0	0	0	0	0	0	371	610	0	0	
12	0	0	0	0	0	0	400	632	0	0	
13	0	0	0	0	0	0	428	653	0	0	
14	0	0	0	0	0	0	454	673	0	0	
15	0	0	0	0	0	0	476	691	0	0	
0	0	0	0	0	0	0	493	707	0	0	
1	0	0	0	0	0	0	504	719	0	0	
2	0	0	0	0	0	0	509	728	0	0	
3	0	0	0	0	0	0	509	735	0	0	
4	0	0	0	0	0	0	505	738	0	0	
5	0	0	0	0	0	0	496	739	0	0	
6	0	0	0	0	0	0	486	737	0	0	
7	0	0	0	0	0	0	473	734	0	0	
8	0	0	0	0	0	0	460	730	0	0	
9	0	0	0	0	0	0	449	725	0	0	
10	0	0	0	0	0	0	438	719	0	0	
11	0	0	0	0	0	0	430	713	0	0	
12	0	0	0	0	0	0	423	706	0	0	
13	0	0	0	0	0	0	417	700	0	0	
14	0	0	0	0	0	0	414	694	0	0	
15	0	0	0	0	0	0	411	689	0	0	
0	0	0	0	0	0	0	409	684	0	0	
1	0	0	0	0	0	0	408	679	0	0	
2	0	0	0	0	0	0	408	677	0	0	
3	0	0	0	0	0	0	409	676	0	0	
4	0	0	0	0	0	0	410	676	0	0	
5	0	0	0	0	0	0	412	677	0	0	
6	0	0	0	0	0	0	415	680	0	0	
7	0	0	0	0	0	0	417	683	0	0	
8	0	0	0	0	0	0	420	687	0	0	
9	0	0	0	0	0	0	423	691	0	0	
10	0	0	0	0	0	0	426	696	0	0	
11	0	0	0	0	0	0	429	699	0	0	
12	0	0	0	0	0	0	430	700	0	0	
13	0	0	0	0	0	0	432	700	0	0	
14	0	0	0	0	0	0	432	699	0	0	
15	0	0	0	0	0	0	433	695	0	0	
0	0	0	0	0	0	0	433	690	0	0	
1	0	0	0	0	0	0	434	684	0	0	
2	0	0	0	0	0	0	434	677	0	0	
3	0	0	0	0	0	0	434	670	0	0	
4	0	0	0	0	0	0	433	661	0	0	
5	0	0	0	0	0	0	432	653	0	0	
6	0	0	0	0	0	0	430	646	0	0	
7	0	0	0	0	0	0	426	639	0	0	
8	0	0	0	0	0	0	423	633	0	0	
9	0	0	0	0	0	0	419	627	0	0	
10	0	0	0	0	0	0	414	623	0	0	
11	0	0	0	0	0	0	409	619	0	0	
12	0	0	0	0	0	0	404	616	0	0	
13	0	0	0	0	0	0	400	615	0	0	
14	0	0	0	0	0	0	396	613	0	0	
15	0	0	0	0	0	0	394	612	0	0	
0	0	0	0	0	0	0	392	612	0	0	
1	0	0	0	0	0	0	391	611	0	0	
2	0	0	0	0	0	0	392	612	0	0	
3	0	0	0	0	0	0	393	611	0	0	
4	0	0	0	0	0	0	396	610	0	0	
5	0	0	0	0	0	0	399	611	0	0	
6	0	0	0	0	0	0	402	611	0	0	
7	0	0	0	0	0	0	406	612	0	0	
8	0	0	0	0	0	0	411	615	0	0	
9	0	0	0	0	0	0	416	619	0	0	
10	0	0	0	0	0	0	420	622	0	0	
11	0	0	0	0	0	0	425	628	0	0	
12	0	0	0	0	0	0	428	634	0	0	
13	0	0	0	0	0	0	431	640	0	0	
14	0	0	0	0	0	0	433	646	0	0	
15	0	0	0	0	0	0	433	653	0	0	
0	0	0	0	0	0	0	431	657	0	0	
1	0	0	0	0	0	0	427	661	0	0	
2	0	0	0	0	0	0	422	663	0	0	
3	0	0	0	0	0	0	415	662	0	0	
4	0	0	0	0	0	0	407	659	0	0	
5	0	0	0	0	0	0	399	656	0	0	
6	0	0	0	0	0	0	392	652	0	0	
7	0	0	0	0	0	0	386	647	0	0	
8	0	0	0	0	0	0	382	643	0	0	
9	0	0	0	0	0	0	380	639	0	0	
10	0	0	0	0	0	0	379	636	0	0	
11	0	0	0	0	0	0	380	633	0	0	
12	0	0	0	0	0	0	383	631	0	0	
13	0	0	0	0	0	0	385	629	0	0	
14	0	0	0	0	0	0	387	627	0	0	
15	0	0	0	0	0	0	390	625	0	0	
0	0	0	0	0	0	0	391	625	0	0	
1	0	0	0	0	0	0	393	625	0	0	
2	0	0	0	0	0	0	395	625	0	0	
3	0	0	0	0	0	0	397	626	0	0	
4	0	0	0	0	0	0	399	628	0	0	
5	0	0	0	0	0	0	400	631	0	0	
6	0	0	0	0	0	0	402	632	0	0	
7	0	0	0	0	0	0	404	634	0	0	
8	0	0	0	0	0	0	406	635	0	0	
9	0	0	0	0	0	0	407	636	0	0	
10	0	0	0	0	0	0	408	636	0	0	
11	0	0	0	0	0	0	409	636	0	0	
12	0	0	0	0	0	0	410	636	0	0	
13	0	0	0	0	0	0	411	636	0	0	
14	0	0	0	0	0	0	412	636	0	0	
15	0	0	0	0	0	0	413	637	0	0	
0	0	0	0	0	0	0	414	638	0	0	
1	0	0	0	0	0	0	415	638	0	0	
2	0	0	0	0	0	0	414	638	0	0	
3	0	0	0	0	0	0	411	638	0	0	
4	0	0	0	0	0	0	408	637	0	0	
5	0	0	0	0	0	0	403	635	0	0	
6	0	0	0	0	0	0	397	632	0	0	
7	0	0	0	0	0	0	389	630	0	0	
8	0	0	0	0	0	0	381	626	0	0	
9	0	0	0	0	0	0	372	623	0	0	
10	0	0	0	0	0	0	364	618	0	0	
11	0	0	0	0	0	0	357	614	0	0	
12	0	0	0	0	0	0	352	610	0	0	
13	0	0	0	0	0	0	348	608	0	0	
14	0	0	0	0	0	0	346	606	0	0	
15	0	0	0	0	0	0	347	604	0	0	
0	0	0	0	0	0	0	349	603	0	0	
1	0	0	0	0	0	0	352	603	0	0	
2	0	0	0	0	0	0	357	603	0	0	
3	0	0	0	0	0	0	362	603	0	0	
4	0	0	0	0	0	0	367	603	0	0	
5	0	0	0	0	0	0	374	604	0	0	
6	0	0	0	0	0	0	379	606	0	0	
7	0	0	0	0	0	0	385	609	0	0	
8	0	0	0	0	0	0	390	612	0	0	
9	0	0	0	0	0	0	393	615	0	0	
10	0	0	0	0	0	0	396	619	0	0	
11	0	0	0	0	0	0	397	623	0	0	
12	0	0	0	0	0	0	396	625	0	0	
13	0	0	0	0	0	0	393	628	0	0	
14	0	0	0	0	0	0	389	630	0	0	
15	0	0	0	0	0	0	383	630	0	0	
0	0	0	0	0	0	0	376	630	0	0	
1	0	0	0	0	0	0	370	629	0	0	
2	0	0	0	0	0	0	363	627	0	0	
3	0	0	0	0	0	0	356	624	0	0	
4	0	0	0	0	0	0	351	620	0	0	
5	0	0	0	0	0	0	348	617	0	0	
6	0	0	0	0	0	0	346	614	0	0	
7	0	0	0	0	0	0	347	612	0	0	
8	0	0	0	0	0	0	350	611	0	0	
9	0	0	0	0	0	0	355	611	0	0	
10	0	0	0	0	0	0	363	612	0	0	
11	0	0	0	0	0	0	370	615	0	0	
12	0	0	0	0	0	0	379	618	0	0	
13	0	0	0	0	0	0	386	621	0	0	
14	0	0	0	0	0	0	392	624	0	0	
15	0	0	0	0	0	0	396	627	0	0	
0	0	0	0	0	0	0	397	629	0	0	
1	0	0	0	0	0	0	395	629	0	0	
2	0	0	0	0	0	0	391	627	0	0	
3	0	0	0	0	0	0	384	624	0	0	
4	0	0	0	0	0	0	376	620	0	0	
5	0	0	0	0	0	0	366	614	0	0	
6	0	0	0	0	0	0	357	608	0	0	
7	0	0	0	0	0	0	348	601	0	0	
8	0	0	0	0	0	0	341	595	0	0	
9	0	0	0	0	0	0	337	589	0	0	
10	0	0	0	0	0	0	334	585	0	0	
11	0	0	0	0	0	0	334	583	0	0	
12	0	0	0	0	0	0	337	583	0	0	
13	0	0	0	0	0	0	341	583	0	0	
14	0	0	0	0	0	0	346	586	0	0	
15	0	0	0	0	0	0	352	591	0	0	
0	0	0	0	0	0	0	358	595	0	0	
1	0	0	0	0	0	0	363	600	0	0	
2	0	0	0	0	0	0	366	604	0	0	
3	0	0	0	0	0	0	367	607	0	0	
4	0	0	0	0	0	0	366	609	0	0	
5	0	0	0	0	0	0	364	611	0	0	
6	0	0	0	0	0	0	361	611	0	0	
7	0	0	0	0	0	0	357	611	0	0	
8	0	0	0	0	0	0	353	608	0	0	
9	0	0	0	0	0	0	348	606	0	0	
10	0	0	0	0	0	0	345	603	0	0	
11	0	0	0	0	0	0	342	599	0	0	
12	0	0	0	0	0	0	341	594	0	0	
13	0	0	0	0	0	0	341	590	0	0	
14	0	0	0	0	0	0	342	586	0	0	
15	0	0	0	0	0	0	344	583	0	0	
0	0	0	0	0	0	0	347	578	0	0	
1	0	0	0	0	0	0	350	576	0	0	
2	0	0	0	0	0	0	353	573	0	0	
3	0	0	0	0	0	0	355	571	0	0	
4	0	0	0	0	0	0	356	570	0	0	
5	0	0	0	0	0	0	356	570	0	0	
6	0	0	0	0	0	0	355	571	0	0	
7	0	0	0	0	0	0	352	572	0	0	
8	0	0	0	0	0	0	348	573	0	0	
9	0	0	0	0	0	0	344	575	0	0	
10	0	0	0	0	0	0	339	577	0	0	
11	0	0	0	0	0	0	334	578	0	0	
12	0	0	0	0	0	0	330	579	0	0	
13	0	0	0	0	0	0	326	580	0	0	
14	0	0	0	0	0	0	324	582	0	0	
15	0	0	0	0	0	0	323	582	0	0	
0	0	0	0	0	0	0	322	583	0	0	
1	0	0	0	0	0	0	323	583	0	0	
2	0	0	0	0	0	0	324	583	0	0	
3	0	0	0	0	0	0	325	584	0	0	
4	0	0	0	0	0	0	326	585	0	0	
5	0	0	0	0	0	0	327	585	0	0	
6	0	0	0	0	0	0	327	587	0	0	
7	0	0	0	0	0	0	327	590	0	0	
8	0	0	0	0	0	0	327	593	0	0	
9	0	0	0	0	0	0	327	598	0	0	
10	0	0	0	0	0	0	327	603	0	0	
11	0	0	0	0	0	0	329	608	0	0	
12	0	0	0	0	0	0	330	615	0	0	
13	0	0	0	0	0	0	331	621	0	0	
14	0	0	0	0	0	0	332	626	0	0	
15	0	0	0	0	0	0	332	629	0	0	
0	0	0	0	0	0	0	331	632	0	0	
1	0	0	0	0	0	0	329	632	0	0	
2	0	0	0	0	0	0	328	631	0	0	
3	0	0	0	0	0	0	326	628	0	0	
4	0	0	0	0	0	0	324	623	0	0	
5	0	0	0	0	0	0	324	618	0	0	
6	0	0	0	0	0	0	323	611	0	0	
7	0	0	0	0	0	0	324	606	0	0	
8	0	0	0	0	0	0	326	600	0	0	
9	0	0	0	0	0	0	328	594	0	0	
10	0	0	0	0	0	0	330	589	0	0	
11	0	0	0	0	0	0	332	585	0	0	
12	0	0	0	0	0	0	333	583	0	0	
13	0	0	0	0	0	0	334	581	0	0	
14	0	0	0	0	0	0	332	580	0	0	
15	0	0	0	0	0	0	330	580	0	0	
0	0	0	0	0	0	0	327	580	0	0	
1	0	0	0	0	0	0	322	581	0	0	
2	0	0	0	0	0	0	317	581	0	0	
3	0	0	0	0	0	0	312	581	0	0	
4	0	0	0	0	0	0	307	582	0	0	
5	0	0	0	0	0	0	303	582	0	0	
6	0	0	0	0	0	0	300	581	0	0	
7	0	0	0	0	0	0	300	581	0	0	
8	0	0	0	0	0	0	301	580	0	0	
9	0	0	0	0	0	0	303	579	0	0	
10	0	0	0	0	0	0	307	579	0	0	
11	0	0	0	0	0	0	312	579	0	0	
12	0	0	0	0	0	0	317	579	0	0	
13	0	0	0	0	0	0	321	579	0	0	
14	0	0	0	0	0	0	324	579	0	0	
15	0	0	0	0	0	0	326	579	0	0	
0	0	0	0	0	0	0	326	579	0	0	
1	0	0	0	0	0	0	323	579	0	0	
2	0	0	0	0	0	0	319	578	0	0	
3	0	0	0	0	0	0	312	577	0	0	
4	0	0	0	0	0	0	304	576	0	0	
5	0	0	0	0	0	0	294	574	0	0	
6	0	0	0	0	0	0	284	572	0	0	
7	0	0	0	0	0	0	273	571	0	0	
8	0	0	0	0	0	0	265	569	0	0	
9	0	0	0	0	0	0	258	568	0	0	
10	0	0	0	0	0	0	252	568	0	0	
11	0	0	0	0	0	0	250	567	0	0	
12	0	0	0	0	0	0	250	567	0	0	
13	0	0	0	0	0	0	251	567	0	0	
14	0	0	0	0	0	0	255	568	0	0	
15	0	0	0	0	0	0	260	569	0	0	
0	0	0	0	0	0	0	267	571	0	0	
1	0	0	0	0	0	0	273	572	0	0	
2	0	0	0	0	0	0	279	574	0	0	
3	0	0	0	0	0	0	284	575	0	0	
4	0	0	0	0	0	0	286	576	0	0	
5	0	0	0	0	0	0	287	576	0	0	
6	0	0	0	0	0	0	284	576	0	0	
7	0	0	0	0	0	0	280	575	0	0	
8	0	0	0	0	0	0	274	574	0	0	
9	0	0	0	0	0	0	267	571	0	0	
10	0	0	0	0	0	0	258	568	0	0	
11	0	0	0	0	0	0	248	564	0	0	
12	0	0	0	0	0	0	239	559	0	0	
13	0	0	0	0	0	0	229	553	0	0	
14	0	0	0	0	0	0	221	548	0	0	
15	0	0	0	0	0	0	213	542	0	0	
0	0	0	0	0	0	0	207	536	0	0	
1	0	0	0	0	0	0	203	530	0	0	
2	0	0	0	0	0	0	202	526	0	0	
3	0	0	0	0	0	0	204	523	0	0	
4	0	0	0	0	0	0	208	522	0	0	
5	0	0	0	0	0	0	215	523	0	0	
6	0	0	0	0	0	0	223	525	0	0	
7	0	0	0	0	0	0	232	528	0	0	
8	0	0	0	0	0	0	241	533	0	0	
9	0	0	0	0	0	0	251	538	0	0	
10	0	0	0	0	0	0	259	543	0	0	
11	0	0	0	0	0	0	264	548	0	0	
12	0	0	0	0	0	0	268	552	0	0	
13	0	0	0	0	0	0	270	555	0	0	
14	0	0	0	0	0	0	269	556	0	0	
15	0	0	0	0	0	0	266	554	0	0	
0	0	0	0	0	0	0	262	551	0	0	
1	0	0	0	0	0	0	257	547	0	0	
2	0	0	0	0	0	0	252	543	0	0	
3	0	0	0	0	0	0	247	537	0	0	
4	0	0	0	0	0	0	243	530	0	0	
5	0	0	0	0	0	0	239	524	0	0	
6	0	0	0	0	0	0	235	518	0	0	
7	0	0	0	0	0	0	233	512	0	0	
8	0	0	0	0	0	0	232	507	0	0	
9	0	0	0	0	0	0	231	504	0	0	
10	0	0	0	0	0	0	231	500	0	0	
11	0	0	0	0	0	0	231	499	0	0	
12	0	0	0	0	0	0	233	499	0	0	
13	0	0	0	0	0	0	233	499	0	0	
14	0	0	0	0	0	0	234	501	0	0	
15	0	0	0	0	0	0	234	502	0	0	
0	0	0	0	0	0	0	233	503	0	0	
1	0	0	0	0	0	0	231	503	0	0	
2	0	0	0	0	0	0	230	502	0	0	
3	0	0	0	0	0	0	228	499	0	0	
4	0	0	0	0	0	0	227	497	0	0	
5	0	0	0	0	0	0	226	494	0	0	
6	0	0	0	0	0	0	226	491	0	0	
7	0	0	0	0	0	0	227	486	0	0	
8	0	0	0	0	0	0	229	483	0	0	
9	0	0	0	0	0	0	232	479	0	0	
10	0	0	0	0	0	0	236	475	0	0	
11	0	0	0	0	0	0	240	473	0	0	
12	0	0	0	0	0	0	244	471	0	0	
13	0	0	0	0	0	0	248	470	0	0	
14	0	0	0	0	0	0	252	470	0	0	
15	0	0	0	0	0	0	255	470	0	0	
0	0	0	0	0	0	0	257	472	0	0	
1	0	0	0	0	0	0	258	473	0	0	
2	0	0	0	0	0	0	258	476	0	0	
3	0	0	0	0	0	0	257	478	0	0	
4	0	0	0	0	0	0	256	481	0	0	
5	0	0	0	0	0	0	255	483	0	0	
6	0	0	0	0	0	0	252	484	0	0	
7	0	0	0	0	0	0	249	484	0	0	
8	0	0	0	0	0	0	246	483	0	0	
9	0	0	0	0	0	0	242	481	0	0	
10	0	0	0	0	0	0	238	477	0	0	
11	0	0	0	0	0	0	234	472	0	0	
12	0	0	0	0	0	0	230	465	0	0	
13	0	0	0	0	0	0	226	459	0	0	
14	0	0	0	0	0	0	222	453	0	0	
15	0	0	0	0	0	0	220	448	0	0	
0	0	0	0	0	0	0	217	443	0	0	
1	0	0	0	0	0	0	216	439	0	0	
2	0	0	0	0	0	0	215	438	0	0	
3	0	0	0	0	0	0	214	437	0	0	
4	0	0	0	0	0	0	213	438	0	0	
5	0	0	0	0	0	0	212	439	0	0	
6	0	0	0	0	0	0	211	441	0	0	
7	0	0	0	0	0	0	210	444	0	0	
8	0	0	0	0	0	0	208	446	0	0	
9	0	0	0	0	0	0	206	448	0	0	
10	0	0	0	0	0	0	204	450	0	0	
11	0	0	0	0	0	0	203	451	0	0	
12	0	0	0	0	0	0	202	453	0	0	
13	0	0	0	0	0	0	203	454	0	0	
14	0	0	0	0	0	0	204	456	0	0	
15	0	0	0	0	0	0	207	457	0	0	
0	0	0	0	0	0	0	211	459	0	0	
1	0	0	0	0	0	0	215	460	0	0	
2	0	0	0	0	0	0	220	461	0	0	
3	0	0	0	0	0	0	224	463	0	0	
4	0	0	0	0	0	0	228	463	0	0	
5	0	0	0	0	0	0	231	464	0	0	
6	0	0	0	0	0	0	233	466	0	0	
7	0	0	0	0	0	0	233	467	0	0	
8	0	0	0	0	0	0	231	467	0	0	
9	0	0	0	0	0	0	229	467	0	0	
10	0	0	0	0	0	0	225	466	0	0	
11	0	0	0	0	0	0	220	465	0	0	
12	0	0	0	0	0	0	214	464	0	0	
13	0	0	0	0	0	0	208	462	0	0	
14	0	0	0	0	0	0	203	460	0	0	
15	0	0	0	0	0	0	198	457	0	0	
0	0	0	0	0	0	0	193	453	0	0	
1	0	0	0	0	0	0	190	450	0	0	
2	0	0	0	0	0	0	189	447	0	0	
3	0	0	0	0	0	0	189	444	0	0	
4	0	0	0	0	0	0	190	441	0	0	
5	0	0	0	0	0	0	192	440	0	0	
6	0	0	0	0	0	0	195	439	0	0	
7	0	0	0	0	0	0	199	438	0	0	
8	0	0	0	0	0	0	203	438	0	0	
9	0	0	0	0	0	0	206	439	0	0	
10	0	0	0	0	0	0	209	440	0	0	
11	0	0	0	0	0	0	211	442	0	0	
12	0	0	0	0	0	0	213	445	0	0	
13	0	0	0	0	0	0	214	448	0	0	
14	0	0	0	0	0	0	212	451	0	0	
15	0	0	0	0	0	0	210	453	0	0	
0	0	0	0	0	0	0	205	455	0	0	
1	0	0	0	0	0	0	198	455	0	0	
2	0	0	0	0	0	0	190	453	0	0	
3	0	0	0	0	0	0	180	450	0	0	
4	0	0	0	0	0	0	171	447	0	0	
5	0	0	0	0	0	0	162	443	0	0	
6	0	0	0	0	0	0	155	440	0	0	
7	0	0	0	0	0	0	150	436	0	0	
8	0	0	0	0	0	0	147	433	0	0	
9	0	0	0	0	0	0	147	431	0	0	
10	0	0	0	0	0	0	149	430	0	0	
11	0	0	0	0	0	0	154	431	0	0	
12	0	0	0	0	0	0	161	432	0	0	
13	0	0	0	0	0	0	168	434	0	0	
14	0	0	0	0	0	0	176	438	0	0	
15	0	0	0	0	0	0	184	442	0	0	
0	0	0	0	0	0	0	190	447	0	0	
1	0	0	0	0	0	0	195	451	0	0	
2	0	0	0	0	0	0	197	455	0	0	
3	0	0	0	0	0	0	196	456	0	0	
4	0	0	0	0	0	0	193	457	0	0	
5	0	0	0	0	0	0	189	458	0	0	
6	0	0	0	0	0	0	184	457	0	0	
7	0	0	0	0	0	0	178	455	0	0	
8	0	0	0	0	0	0	172	454	0	0	
9	0	0	0	0	0	0	167	452	0	0	
10	0	0	0	0	0	0	164	451	0	0	
11	0	0	0	0	0	0	162	450	0	0	
12	0	0	0	0	0	0	163	449	0	0	
13	0	0	0	0	0	0	164	449	0	0	
14	0	0	0	0	0	0	166	450	0	0	
15	0	0	0	0	0	0	169	451	0	0	
0	0	0	0	0	0	0	173	453	0	0	
1	0	0	0	0	0	0	176	455	0	0	
2	0	0	0	0	0	0	178	457	0	0	
3	0	0	0	0	0	0	179	459	0	0	
4	0	0	0	0	0	0	180	461	0	0	
5	0	0	0	0	0	0	179	463	0	0	
6	0	0	0	0	0	0	176	464	0	0	
7	0	0	0	0	0	0	171	464	0	0	
8	0	0	0	0	0	0	164	464	0	0	
9	0	0	0	0	0	0	158	464	0	0	
10	0	0	0	0	0	0	150	463	0	0	
11	0	0	0	0	0	0	142	460	0	0	
12	0	0	0	0	0	0	134	457	0	0	
13	0	0	0	0	0	0	126	454	0	0	
14	0	0	0	0	0	0	120	450	0	0	
15	0	0	0	0	0	0	115	447	0	0	
0	0	0	0	0	0	0	112	445	0	0	
1	0	0	0	0	0	0	111	444	0	0	
2	0	0	0	0	0	0	113	445	0	0	
3	0	0	0	0	0	0	117	448	0	0	
4	0	0	0	0	0	0	123	451	0	0	
5	0	0	0	0	0	0	130	456	0	0	
6	0	0	0	0	0	0	137	462	0	0	
7	0	0	0	0	0	0	144	467	0	0	
8	0	0	0	0	0	0	151	472	0	0	
9	0	0	0	0	0	0	156	476	0	0	
10	0	0	0	0	0	0	159	479	0	0	
11	0	0	0	0	0	0	159	481	0	0	
12	0	0	0	0	0	0	159	482	0	0	
13	0	0	0	0	0	0	158	482	0	0	
14	0	0	0	0	0	0	156	481	0	0	
15	0	0	0	0	0	0	153	480	0	0	
0	0	0	0	0	0	0	151	479	0	0	
1	0	0	0	0	0	0	148	478	0	0	
2	0	0	0	0	0	0	146	476	0	0	
3	0	0	0	0	0	0	144	474	0	0	
4	0	0	0	0	0	0	143	472	0	0	
5	0	0	0	0	0	0	141	469	0	0	
6	0	0	0	0	0	0	140	467	0	0	
7	0	0	0	0	0	0	138	465	0	0	
8	0	0	0	0	0	0	137	463	0	0	
9	0	0	0	0	0	0	135	461	0	0	
10	0	0	0	0	0	0	133	460	0	0	
11	0	0	0	0	0	0	131	459	0	0	
12	0	0	0	0	0	0	129	459	0	0	
13	0	0	0	0	0	0	127	460	0	0	
14	0	0	0	0	0	0	125	462	0	0	
15	0	0	0	0	0	0	124	465	0	0	
0	0	0	0	0	0	0	123	469	0	0	
1	0	0	0	0	0	0	122	473	0	0	
2	0	0	0	0	0	0	123	477	0	0	
3	0	0	0	0	0	0	124	483	0	0	
4	0	0	0	0	0	0	126	487	0	0	
5	0	0	0	0	0	0	129	491	0	0	
6	0	0	0	0	0	0	132	495	0	0	
7	0	0	0	0	0	0	135	496	0	0	
8	0	0	0	0	0	0	139	497	0	0	
9	0	0	0	0	0	0	142	497	0	0	
10	0	0	0	0	0	0	144	495	0	0	
11	0	0	0	0	0	0	145	492	0	0	
12	0	0	0	0	0	0	145	487	0	0	
13	0	0	0	0	0	0	143	483	0	0	
14	0	0	0	0	0	0	141	478	0	0	
15	0	0	0	0	0	0	137	474	0	0	
0	0	0	0	0	0	0	131	471	0	0	
1	0	0	0	0	0	0	126	468	0	0	
2	0	0	0	0	0	0	120	467	0	0	
3	0	0	0	0	0	0	115	467	0	0	
4	0	0	0	0	0	0	112	470	0	0	
5	0	0	0	0	0	0	111	474	0	0	
6	0	0	0	0	0	0	111	480	0	0	
7	0	0	0	0	0	0	113	485	0	0	
8	0	0	0	0	0	0	116	491	0	0	
9	0	0	0	0	0	0	121	496	0	0	
10	0	0	0	0	0	0	126	500	0	0	
11	0	0	0	0	0	0	132	502	0	0	
12	0	0	0	0	0	0	137	503	0	0	
13	0	0	0	0	0	0	143	501	0	0	
14	0	0	0	0	0	0	146	498	0	0	
15	0	0	0	0	0	0	149	494	0	0	
0	0	0	0	0	0	0	150	488	0	0	
1	0	0	0	0	0	0	149	482	0	0	
2	0	0	0	0	0	0	146	476	0	0	
3	0	0	0	0	0	0	142	472	0	0	
4	0	0	0	0	0	0	137	467	0	0	
5	0	0	0	0	0	0	131	465	0	0	
6	0	0	0	0	0	0	126	464	0	0	
7	0	0	0	0	0	0	120	465	0	0	
8	0	0	0	0	0	0	115	468	0	0	
9	0	0	0	0	0	0	111	472	0	0	
10	0	0	0	0	0	0	110	477	0	0	
11	0	0	0	0	0	0	109	482	0	0	
12	0	0	0	0	0	0	110	488	0	0	
13	0	0	0	0	0	0	114	495	0	0	
14	0	0	0	0	0	0	118	501	0	0	
15	0	0	0	0	0	0	124	507	0	0	
0	0	0	0	0	0	0	130	513	0	0	
1	0	0	0	0	0	0	136	518	0	0	
2	0	0	0	0	0	0	141	523	0	0	
3	0	0	0	0	0	0	146	527	0	0	
4	0	0	0	0	0	0	151	531	0	0	
5	0	0	0	0	0	0	153	533	0	0	
6	0	0	0	0	0	0	155	535	0	0	
7	0	0	0	0	0	0	155	536	0	0	
8	0	0	0	0	0	0	153	536	0	0	
9	0	0	0	0	0	0	150	535	0	0	
10	0	0	0	0	0	0	146	533	0	0	
11	0	0	0	0	0	0	141	532	0	0	
12	0	0	0	0	0	0	135	530	0	0	
13	0	0	0	0	0	0	131	527	0	0	
14	0	0	0	0	0	0	126	524	0	0	
15	0	0	0	0	0	0	121	520	0	0	
0	0	0	0	0	0	0	117	516	0	0	
1	0	0	0	0	0	0	114	510	0	0	
2	0	0	0	0	0	0	112	505	0	0	
3	0	0	0	0	0	0	111	499	0	0	
4	0	0	0	0	0	0	113	494	0	0	
5	0	0	0	0	0	0	115	490	0	0	
6	0	0	0	0	0	0	120	486	0	0	
7	0	0	0	0	0	0	125	484	0	0	
8	0	0	0	0	0	0	132	484	0	0	
9	0	0	0	0	0	0	140	485	0	0	
10	0	0	0	0	0	0	146	487	0	0	
11	0	0	0	0	0	0	152	491	0	0	
12	0	0	0	0	0	0	156	496	0	0	
13	0	0	0	0	0	0	160	501	0	0	
14	0	0	0	0	0	0	162	505	0	0	
15	0	0	0	0	0	0	161	510	0	0	
0	0	0	0	0	0	0	159	514	0	0	
1	0	0	0	0	0	0	156	517	0	0	
2	0	0	0	0	0	0	152	518	0	0	
3	0	0	0	0	0	0	146	518	0	0	
4	0	0	0	0	0	0	139	516	0	0	
5	0	0	0	0	0	0	132	514	0	0	
6	0	0	0	0	0	0	127	511	0	0	
7	0	0	0	0	0	0	121	507	0	0	
8	0	0	0	0	0	0	118	502	0	0	
9	0	0	0	0	0	0	115	498	0	0	
10	0	0	0	0	0	0	113	494	0	0	
11	0	0	0	0	0	0	114	492	0	0	
12	0	0	0	0	0	0	115	490	0	0	
13	0	0	0	0	0	0	118	489	0	0	
14	0	0	0	0	0	0	121	489	0	0	
15	0	0	0	0	0	0	124	492	0	0	
0	0	0	0	0	0	0	128	495	0	0	
1	0	0	0	0	0	0	132	499	0	0	
2	0	0	0	0	0	0	135	503	0	0	
3	0	0	0	0	0	0	138	507	0	0	
4	0	0	0	0	0	0	139	510	0	0	
5	0	0	0	0	0	0	140	513	0	0	
6	0	0	0	0	0	0	139	513	0	0	
7	0	0	0	0	0	0	138	512	0	0	
8	0	0	0	0	0	0	136	510	0	0	
9	0	0	0	0	0	0	135	507	0	0	
10	0	0	0	0	0	0	134	504	0	0	
11	0	0	0	0	0	0	133	499	0	0	
12	0	0	0	0	0	0	134	494	0	0	
13	0	0	0	0	0	0	135	489	0	0	
14	0	0	0	0	0	0	137	485	0	0	
15	0	0	0	0	0	0	140	481	0	0	
0	0	0	0	0	0	0	142	478	0	0	
1	0	0	0	0	0	0	144	476	0	0	
2	0	0	0	0	0	0	146	473	0	0	
3	0	0	0	0	0	0	145	472	0	0	
4	0	0	0	0	0	0	145	472	0	0	
5	0	0	0	0	0	0	143	472	0	0	
6	0	0	0	0	0	0	140	472	0	0	
7	0	0	0	0	0	0	135	474	0	0	
8	0	0	0	0	0	0	131	476	0	0	
9	0	0	0	0	0	0	128	480	0	0	
10	0	0	0	0	0	0	125	483	0	0	
11	0	0	0	0	0	0	122	486	0	0	
12	0	0	0	0	0	0	120	489	0	0	
13	0	0	0	0	0	0	119	492	0	0	
14	0	0	0	0	0	0	119	494	0	0	
15	0	0	0	0	0	0	120	496	0	0	
0	0	0	0	0	0	0	122	496	0	0	
1	0	0	0	0	0	0	124	496	0	0	
2	0	0	0	0	0	0	128	496	0	0	
3	0	0	0	0	0	0	132	496	0	0	
4	0	0	0	0	0	0	136	496	0	0	
5	0	0	0	0	0	0	140	496	0	0	
6	0	0	0	0	0	0	144	497	0	0	
7	0	0	0	0	0	0	147	498	0	0	
8	0	0	0	0	0	0	149	500	0	0	
9	0	0	0	0	0	0	151	504	0	0	
10	0	0	0	0	0	0	152	508	0	0	
11	0	0	0	0	0	0	153	512	0	0	
12	0	0	0	0	0	0	152	518	0	0	
13	0	0	0	0	0	0	152	523	0	0	
14	0	0	0	0	0	0	150	527	0	0	
15	0	0	0	0	0	0	147	529	0	0	
0	0	0	0	0	0	0	143	531	0	0	
1	0	0	0	0	0	0	139	531	0	0	
2	0	0	0	0	0	0	134	528	0	0	
3	0	0	0	0	0	0	129	524	0	0	
4	0	0	0	0	0	0	123	519	0	0	
5	0	0	0	0	0	0	118	512	0	0	
6	0	0	0	0	0	0	114	505	0	0	
7	0	0	0	0	0	0	112	500	0	0	
8	0	0	0	0	0	0	112	496	0	0	
9	0	0	0	0	0	0	113	494	0	0	
10	0	0	0	0	0	0	118	494	0	0	
11	0	0	0	0	0	0	123	496	0	0	
12	0	0	0	0	0	0	129	500	0	0	
13	0	0	0	0	0	0	135	504	0	0	
14	0	0	0	0	0	0	141	508	0	0	
15	0	0	0	0	0	0	144	512	0	0	
0	0	0	0	0	0	0	145	515	0	0	
1	0	0	0	0	0	0	144	516	0	0	
2	0	0	0	0	0	0	140	515	0	0	
3	0	0	0	0	0	0	135	513	0	0	
4	0	0	0	0	0	0	129	509	0	0	
5	0	0	0	0	0	0	123	505	0	0	
6	0	0	0	0	0	0	116	502	0	0	
7	0	0	0	0	0	0	111	497	0	0	
8	0	0	0	0	0	0	107	494	0	0	
9	0	0	0	0	0	0	105	491	0	0	
10	0	0	0	0	0	0	105	489	0	0	
11	0	0	0	0	0	0	105	489	0	0	
12	0	0	0	0	0	0	108	489	0	0	
13	0	0	0	0	0	0	112	491	0	0	
14	0	0	0	0	0	0	116	494	0	0	
15	0	0	0	0	0	0	121	499	0	0	
0	0	0	0	0	0	0	127	505	0	0	
1	0	0	0	0	0	0	133	511	0	0	
2	0	0	0	0	0	0	138	517	0	0	
3	0	0	0	0	0	0	142	523	0	0	
4	0	0	0	0	0	0	144	527	0	0	
5	0	0	0	0	0	0	145	531	0	0	
6	0	0	0	0	0	0	146	533	0	0	
7	0	0	0	0	0	0	145	534	0	0	
8	0	0	0	0	0	0	144	532	0	0	
9	0	0	0	0	0	0	142	531	0	0	
10	0	0	0	0	0	0	141	528	0	0	
11	0	0	0	0	0	0	140	525	0	0	
12	0	0	0	0	0	0	139	520	0	0	
13	0	0	0	0	0	0	139	516	0	0	
14	0	0	0	0	0	0	139	512	0	0	
15	0	0	0	0	0	0	139	508	0	0	
0	0	0	0	0	0	0	140	505	0	0	
1	0	0	0	0	0	0	139	502	0	0	
2	0	0	0	0	0	0	137	499	0	0	
3	0	0	0	0	0	0	135	497	0	0	
4	0	0	0	0	0	0	132	496	0	0	
5	0	0	0	0	0	0	127	494	0	0	
6	0	0	0	0	0	0	122	492	0	0	
7	0	0	0	0	0	0	116	490	0	0	
8	0	0	0	0	0	0	109	488	0	0	
9	0	0	0	0	0	0	103	487	0	0	
10	0	0	0	0	0	0	97	484	0	0	
11	0	0	0	0	0	0	94	483	0	0	
12	0	0	0	0	0	0	90	482	0	0	
13	0	0	0	0	0	0	88	481	0	0	
14	0	0	0	0	0	0	88	482	0	0	
15	0	0	0	0	0	0	89	482	0	0	
0	0	0	0	0	0	0	92	484	0	0	
1	0	0	0	0	0	0	98	487	0	0	
2	0	0	0	0	0	0	105	491	0	0	
3	0	0	0	0	0	0	114	497	0	0	
4	0	0	0	0	0	0	124	504	0	0	
5	0	0	0	0	0	0	136	511	0	0	
6	0	0	0	0	0	0	147	519	0	0	
7	0	0	0	0	0	0	156	526	0	0	
8	0	0	0	0	0	0	164	532	0	0	
9	0	0	0	0	0	0	169	536	0	0	
10	0	0	0	0	0	0	172	539	0	0	
11	0	0	0	0	0	0	170	539	0	0	
12	0	0	0	0	0	0	164	536	0	0	
13	0	0	0	0	0	0	155	530	0	0	
14	0	0	0	0	0	0	143	521	0	0	
15	0	0	0	0	0	0	128	510	0	0	
0	0	0	0	0	0	0	111	497	0	0	
1	0	0	0	0	0	0	93	483	0	0	
2	0	0	0	0	0	0	76	469	0	0	
3	0	0	0	0	0	0	60	454	0	0	
4	0	0	0	0	0	0	45	440	0	0	
5	0	0	0	0	0	0	33	428	0	0	
6	0	0	0	0	0	0	22	418	0	0	
7	0	0	0	0	0	0	14	410	0	0	
8	0	0	0	0	0	0	9	403	0	0	
9	0	0	0	0	0	0	7	398	0	0	
10	0	0	0	0	0	0	7	394	0	0	
11	0	0	0	0	0	0	7	392	0	0	
12	0	0	0	0	0	0	11	391	0	0	
13	0	0	0	0	0	0	16	392	0	0	
14	0	0	0	0	0	0	23	395	0	0	
15	0	0	0	0	0	0	32	400	0	0	
0	0	0	0	0	0	0	43	408	0	0	
1	0	0	0	0	0	0	55	418	0	0	
2	0	0	0	0	0	0	70	430	0	0	
3	0	0	0	0	0	0	86	443	0	0	
4	0	0	0	0	0	0	103	457	0	0	
5	0	0	0	0	0	0	121	472	0	0	
6	0	0	0	0	0	0	140	487	0	0	
7	0	0	0	0	0	0	158	500	0	0	
8	0	0	0	0	0	0	176	514	0	0	
9	0	0	0	0	0	0	193	525	0	0	
10	0	0	0	0	0	0	207	535	0	0	
11	0	0	0	0	0	0	218	543	0	0	
12	0	0	0	0	0	0	227	549	0	0	
13	0	0	0	0	0	0	233	553	0	0	
14	0	0	0	0	0	0	237	557	0	0	
15	0	0	0	0	0	0	238	561	0	0	
0	0	0	0	0	0	0	238	564	0	0	
1	0	0	0	0	0	0	236	568	0	0	
2	0	0	0	0	0	0	233	571	0	0	
3	0	0	0	0	0	0	229	574	0	0	
4	0	0	0	0	0	0	224	576	0	0	
5	0	0	0	0	0	0	218	577	0	0	
6	0	0	0	0	0	0	212	575	0	0	
7	0	0	0	0	0	0	206	573	0	0	
8	0	0	0	0	0	0	199	568	0	0	
9	0	0	0	0	0	0	195	563	0	0	
10	0	0	0	0	0	0	191	556	0	0	
11	0	0	0	0	0	0	188	548	0	0	
12	0	0	0	0	0	0	187	541	0	0	
13	0	0	0	0	0	0	187	533	0	0	
14	0	0	0	0	0	0	188	527	0	0	
15	0	0	0	0	0	0	189	522	0	0	
0	0	0	0	0	0	0	190	518	0	0	
1	0	0	0	0	0	0	191	514	0	0	
2	0	0	0	0	0	0	190	512	0	0	
3	0	0	0	0	0	0	187	510	0	0	
4	0	0	0	0	0	0	182	508	0	0	
5	0	0	0	0	0	0	176	508	0	0	
6	0	0	0	0	0	0	167	508	0	0	
7	0	0	0	0	0	0	158	508	0	0	
8	0	0	0	0	0	0	148	510	0	0	
9	0	0	0	0	0	0	139	512	0	0	
10	0	0	0	0	0	0	129	514	0	0	
11	0	0	0	0	0	0	120	516	0	0	
12	0	0	0	0	0	0	111	518	0	0	
13	0	0	0	0	0	0	104	520	0	0	
14	0	0	0	0	0	0	100	521	0	0	
15	0	0	0	0	0	0	98	522	0	0	
0	0	0	0	0	0	0	97	522	0	0	
1	0	0	0	0	0	0	98	521	0	0	
2	0	0	0	0	0	0	100	519	0	0	
3	0	0	0	0	0	0	103	518	0	0	
4	0	0	0	0	0	0	106	516	0	0	
5	0	0	0	0	0	0	108	515	0	0	
6	0	0	0	0	0	0	110	513	0	0	
7	0	0	0	0	0	0	111	512	0	0	
8	0	0	0	0	0	0	111	513	0	0	
9	0	0	0	0	0	0	110	515	0	0	
10	0	0	0	0	0	0	108	518	0	0	
11	0	0	0	0	0	0	106	521	0	0	
12	0	0	0	0	0	0	103	525	0	0	
13	0	0	0	0	0	0	99	529	0	0	
14	0	0	0	0	0	0	95	531	0	0	
15	0	0	0	0	0	0	90	533	0	0	
0	0	0	0	0	0	0	85	534	0	0	
1	0	0	0	0	0	0	80	533	0	0	
2	0	0	0	0	0	0	76	531	0	0	
3	0	0	0	0	0	0	72	528	0	0	
4	0	0	0	0	0	0	69	524	0	0	
5	0	0	0	0	0	0	66	519	0	0	
6	0	0	0	0	0	0	63	513	0	0	
7	0	0	0	0	0	0	61	509	0	0	
8	0	0	0	0	0	0	60	505	0	0	
9	0	0	0	0	0	0	60	503	0	0	
10	0	0	0	0	0	0	60	503	0	0	
11	0	0	0	0	0	0	61	504	0	0	
12	0	0	0	0	0	0	63	508	0	0	
13	0	0	0	0	0	0	65	514	0	0	
14	0	0	0	0	0	0	69	520	0	0	
15	0	0	0	0	0	0	71	528	0	0	
0	0	0	0	0	0	0	73	535	0	0	
1	0	0	0	0	0	0	75	542	0	0	
2	0	0	0	0	0	0	75	547	0	0	
3	0	0	0	0	0	0	75	551	0	0	
4	0	0	0	0	0	0	74	553	0	0	
5	0	0	0	0	0	0	71	553	0	0	
6	0	0	0	0	0	0	68	552	0	0	
7	0	0	0	0	0	0	65	550	0	0	
8	0	0	0	0	0	0	61	545	0	0	
9	0	0	0	0	0	0	55	540	0	0	
10	0	0	0	0	0	0	50	535	0	0	
11	0	0	0	0	0	0	44	528	0	0	
12	0	0	0	0	0	0	37	521	0	0	
13	0	0	0	0	0	0	30	515	0	0	
14	0	0	0	0	0	0	22	509	0	0	
15	0	0	0	0	0	0	15	504	0	0	
0	0	0	0	0	0	0	9	502	0	0	
1	0	0	0	0	0	0	3	500	0	0	
2	0	0	0	0	0	0	0	499	0	0	
3	0	0	0	0	0	0	0	500	0	0	
4	0	0	0	0	0	0	0	503	0	0	
5	0	0	0	0	0	0	0	505	0	0	
6	0	0	0	0	0	0	0	508	0	0	
7	0	0	0	0	0	0	0	511	0	0	
8	0	0	0	0	0	0	0	513	0	0	
9	0	0	0	0	0	0	0	514	0	0	
10	0	0	0	0	0	0	0	514	0	0	
11	0	0	0	0	0	0	0	513	0	0	
12	0	0	0	0	0	0	0	512	0	0	
13	0	0	0	0	0	0	0	510	0	0	
14	0	0	0	0	0	0	0	509	0	0	
15	0	0	0	0	0	0	2	509	0	0	
0	0	0	0	0	0	0	5	510	0	0	
1	0	0	0	0	0	0	7	511	0	0	
2	0	0	0	0	0	0	10	514	0	0	
3	0	0	0	0	0	0	13	518	0	0	
4	0	0	0	0	0	0	15	522	0	0	
5	0	0	0	0	0	0	16	526	0	0	
6	0	0	0	0	0	0	16	530	0	0	
7	0	0	0	0	0	0	14	534	0	0	
8	0	0	0	0	0	0	9	536	0	0	
9	0	0	0	0	0	0	4	537	0	0	
10	0	0	0	0	0	0	0	536	0	0	
11	0	0	0	0	0	0	0	533	0	0	
12	0	0	0	0	0	0	0	529	0	0	
13	0	0	0	0	0	0	0	523	0	0	
14	0	0	0	0	0	0	0	516	0	0	
15	0	0	0	0	0	0	0	508	0	0	
0	0	0	0	0	0	0	0	500	0	0	
1	0	0	0	0	0	0	0	493	0	0	
2	0	0	0	0	0	0	0	486	0	0	
3	0	0	0	0	0	0	0	480	0	0	
4	0	0	0	0	0	0	0	474	0	0	
5	0	0	0	0	0	0	0	470	0	0	
6	0	0	0	0	0	0	0	468	0	0	
7	0	0	0	0	0	0	0	467	0	0	
8	0	0	0	0	0	0	0	467	0	0	
9	0	0	0	0	0	0	0	467	0	0	
10	0	0	0	0	0	0	0	468	0	0	
11	0	0	0	0	0	0	0	468	0	0	
12	0	0	0	0	0	0	0	469	0	0	
13	0	0	0	0	0	0	0	469	0	0	
14	0	0	0	0	0	0	0	468	0	0	
15	0	0	0	0	0	0	0	467	0	0	
0	0	0	0	0	0	0	0	465	0	0	
1	0	0	0	0	0	0	0	463	0	0	
2	0	0	0	0	0	0	0	460	0	0	
3	0	0	0	0	0	0	0	456	0	0	
4	0	0	0	0	0	0	0	452	0	0	
5	0	0	0	0	0	0	0	450	0	0	
6	0	0	0	0	0	0	0	448	0	0	
7	0	0	0	0	0	0	0	446	0	0	
8	0	0	0	0	0	0	0	445	0	0	
9	0	0	0	0	0	0	0	445	0	0	
10	0	0	0	0	0	0	0	444	0	0	
11	0	0	0	0	0	0	0	445	0	0	
12	0	0	0	0	0	0	0	446	0	0	
13	0	0	0	0	0	0	0	446	0	0	
14	0	0	0	0	0	0	0	446	0	0	
15	0	0	0	0	0	0	0	446	0	0	
0	0	0	0	0	0	0	0	444	0	0	
1	0	0	0	0	0	0	0	443	0	0	
2	0	0	0	0	0	0	0	441	0	0	
3	0	0	0	0	0	0	0	439	0	0	
4	0	0	0	0	0	0	0	436	0	0	
5	0	0	0	0	0	0	0	434	0	0	
6	0	0	0	0	0	0	0	433	0	0	
7	0	0	0	0	0	0	0	431	0	0	
8	0	0	0	0	0	0	0	430	0	0	
9	0	0	0	0	0	0	0	430	0	0	
10	0	0	0	0	0	0	0	430	0	0	
11	0	0	0	0	0	0	0	430	0	0	
12	0	0	0	0	0	0	0	430	0	0	
13	0	0	0	0	0	0	0	429	0	0	
14	0	0	0	0	0	0	0	428	0	0	
15	0	0	0	0	0	0	0	427	0	0	
0	0	0	0	0	0	0	0	425	0	0	
1	0	0	0	0	0	0	0	422	0	0	
2	0	0	0	0	0	0	1	419	0	0	
3	0	0	0	0	0	0	3	415	0	0	
4	0	0	0	0	0	0	4	412	0	0	
5	0	0	0	0	0	0	7	408	0	0	
6	0	0	0	0	0	0	10	403	0	0	
7	0	0	0	0	0	0	13	399	0	0	
8	0	0	0	0	0	0	15	396	0	0	
9	0	0	0	0	0	0	18	391	0	0	
10	0	0	0	0	0	0	20	388	0	0	
11	0	0	0	0	0	0	23	385	0	0	
12	0	0	0	0	0	0	24	382	0	0	
13	0	0	0	0	0	0	25	380	0	0	
14	0	0	0	0	0	0	24	377	0	0	
15	0	0	0	0	0	0	23	376	0	0	
0	0	0	0	0	0	0	21	375	0	0	
1	0	0	0	0	0	0	18	375	0	0	
2	0	0	0	0	0	0	15	374	0	0	
3	0	0	0	0	0	0	9	374	0	0	
4	0	0	0	0	0	0	3	374	0	0	
5	0	0	0	0	0	0	0	373	0	0	
6	0	0	0	0	0	0	0	372	0	0	
7	0	0	0	0	0	0	0	371	0	0	
8	0	0	0	0	0	0	0	370	0	0	
9	0	0	0	0	0	0	0	369	0	0	
10	0	0	0	0	0	0	0	368	0	0	
11	0	0	0	0	0	0	0	367	0	0	
12	0	0	0	0	0	0	0	367	0	0	
13	0	0	0	0	0	0	0	367	0	0	
14	0	0	0	0	0	0	0	367	0	0	
15	0	0	0	0	0	0	0	367	0	0	
0	0	0	0	0	0	0	0	367	0	0	
1	0	0	0	0	0	0	0	366	0	0	
2	0	0	0	0	0	0	0	365	0	0	
3	0	0	0	0	0	0	0	364	0	0	
4	0	0	0	0	0	0	0	363	0	0	
5	0	0	0	0	0	0	0	361	0	0	
6	0	0	0	0	0	0	0	360	0	0	
7	0	0	0	0	0	0	0	359	0	0	
8	0	0	0	0	0	0	0	358	0	0	
9	0	0	0	0	0	0	0	357	0	0	
10	0	0	0	0	0	0	0	357	0	0	
11	0	0	0	0	0	0	0	358	0	0	
12	0	0	0	0	0	0	0	359	0	0	
13	0	0	0	0	0	0	0	361	0	0	
14	0	0	0	0	0	0	0	364	0	0	
15	0	0	0	0	0	0	0	366	0	0	
0	0	0	0	0	0	0	0	367	0	0	
1	0	0	0	0	0	0	0	367	0	0	
2	0	0	0	0	0	0	0	366	0	0	
3	0	0	0	0	0	0	0	364	0	0	
4	0	0	0	0	0	0	0	361	0	0	
5	0	0	0	0	0	0	0	359	0	0	
6	0	0	0	0	0	0	0	355	0	0	
7	0	0	0	0	0	0	0	352	0	0	
8	0	0	0	0	0	0	0	349	0	0	
9	0	0	0	0	0	0	0	345	0	0	
10	0	0	0	0	0	0	0	343	0	0	
11	0	0	0	0	0	0	0	341	0	0	
12	0	0	0	0	0	0	0	339	0	0	
13	0	0	0	0	0	0	0	339	0	0	
14	0	0	0	0	0	0	0	339	0	0	
15	0	0	0	0	0	0	0	339	0	0	
0	0	0	0	0	0	0	0	339	0	0	
1	0	0	0	0	0	0	0	340	0	0	
2	0	0	0	0	0	0	0	343	0	0	
3	0	0	0	0	0	0	0	345	0	0	
4	0	0	0	0	0	0	0	348	0	0	
5	0	0	0	0	0	0	0	352	0	0	
6	0	0	0	0	0	0	0	356	0	0	
7	0	0	0	0	0	0	0	359	0	0	
8	0	0	0	0	0	0	0	363	0	0	
9	0	0	0	0	0	0	0	365	0	0	
10	0	0	0	0	0	0	0	366	0	0	
11	0	0	0	0	0	0	0	366	0	0	
12	0	0	0	0	0	0	0	365	0	0	
13	0	0	0	0	0	0	0	363	0	0	
14	0	0	0	0	0	0	0	360	0	0	
15	0	0	0	0	0	0	0	357	0	0	
0	0	0	0	0	0	0	0	355	0	0	
1	0	0	0	0	0	0	0	352	0	0	
2	0	0	0	0	0	0	0	349	0	0	
3	0	0	0	0	0	0	0	347	0	0	
4	0	0	0	0	0	0	0	345	0	0	
5	0	0	0	0	0	0	0	344	0	0	
6	0	0	0	0	0	0	0	342	0	0	
7	0	0	0	0	0	0	0	340	0	0	
8	0	0	0	0	0	0	0	339	0	0	
9	0	0	0	0	0	0	0	338	0	0	
10	0	0	0	0	0	0	0	336	0	0	
11	0	0	0	0	0	0	0	335	0	0	
12	0	0	0	0	0	0	0	332	0	0	
13	0	0	0	0	0	0	0	330	0	0	
14	0	0	0	0	0	0	0	327	0	0	
15	0	0	0	0	0	0	0	324	0	0	
0	0	0	0	0	0	0	0	323	0	0	
1	0	0	0	0	0	0	0	321	0	0	
2	0	0	0	0	0	0	0	320	0	0	
3	0	0	0	0	0	0	0	321	0	0	
4	0	0	0	0	0	0	0	322	0	0	
5	0	0	0	0	0	0	0	324	0	0	
6	0	0	0	0	0	0	0	327	0	0	
7	0	0	0	0	0	0	0	329	0	0	
8	0	0	0	0	0	0	0	332	0	0	
9	0	0	0	0	0	0	0	334	0	0	
10	0	0	0	0	0	0	0	336	0	0	
11	0	0	0	0	0	0	0	337	0	0	
12	0	0	0	0	0	0	0	336	0	0	
13	0	0	0	0	0	0	0	335	0	0	
14	0	0	0	0	0	0	0	333	0	0	
15	0	0	0	0	0	0	0	329	0	0	
0	0	0	0	0	0	0	0	326	0	0	
1	0	0	0	0	0	0	0	321	0	0	
2	0	0	0	0	0	0	0	316	0	0	
3	0	0	0	0	0	0	0	310	0	0	
4	0	0	0	0	0	0	0	305	0	0	
5	0	0	0	0	0	0	0	300	0	0	
6	0	0	0	0	0	0	0	295	0	0	
7	0	0	0	0	0	0	0	292	0	0	
8	0	0	0	0	0	0	0	290	0	0	
9	0	0	0	0	0	0	0	289	0	0	
10	0	0	0	0	0	0	0	289	0	0	
11	0	0	0	0	0	0	0	291	0	0	
12	0	0	0	0	0	0	0	295	0	0	
13	0	0	0	0	0	0	0	300	0	0	
14	0	0	0	0	0	0	0	307	0	0	
15	0	0	0	0	0	0	0	314	0	0	
0	0	0	0	0	0	0	0	321	0	0	
1	0	0	0	0	0	0	0	328	0	0	
2	0	0	0	0	0	0	0	335	0	0	
3	0	0	0	0	0	0	0	339	0	0	
4	0	0	0	0	0	0	0	343	0	0	
5	0	0	0	0	0	0	0	344	0	0	
6	0	0	0	0	0	0	0	343	0	0	
7	0	0	0	0	0	0	0	341	0	0	
8	0	0	0	0	0	0	0	337	0	0	
9	0	0	0	0	0	0	0	333	0	0	
10	0	0	0	0	0	0	0	328	0	0	
11	0	0	0	0	0	0	0	324	0	0	
12	0	0	0	0	0	0	0	320	0	0	
13	0	0	0	0	0	0	0	317	0	0	
14	0	0	0	0	0	0	0	315	0	0	
15	0	0	0	0	0	0	0	315	0	0	
0	0	0	0	0	0	0	0	315	0	0	
1	0	0	0	0	0	0	0	316	0	0	
2	0	0	0	0	0	0	0	318	0	0	
3	0	0	0	0	0	0	0	320	0	0	
4	0	0	0	0	0	0	0	323	0	0	
5	0	0	0	0	0	0	0	326	0	0	
6	0	0	0	0	0	0	0	328	0	0	
7	0	0	0	0	0	0	0	331	0	0	
8	0	0	0	0	0	0	0	333	0	0	
9	0	0	0	0	0	0	0	335	0	0	
10	0	0	0	0	0	0	0	338	0	0	
11	0	0	0	0	0	0	0	341	0	0	
12	0	0	0	0	0	0	0	344	0	0	
13	0	0	0	0	0	0	0	348	0	0	
14	0	0	0	0	0	0	0	351	0	0	
15	0	0	0	0	0	0	0	353	0	0	
0	0	0	0	0	0	0	0	355	0	0	
1	0	0	0	0	0	0	0	355	0	0	
2	0	0	0	0	0	0	0	353	0	0	
3	0	0	0	0	0	0	0	352	0	0	
4	0	0	0	0	0	0	0	350	0	0	
5	0	0	0	0	0	0	0	349	0	0	
6	0	0	0	0	0	0	0	348	0	0	
7	0	0	0	0	0	0	0	349	0	0	
8	0	0	0	0	0	0	0	350	0	0	
9	0	0	0	0	0	0	0	352	0	0	
10	0	0	0	0	0	0	0	355	0	0	
11	0	0	0	0	0	0	0	356	0	0	
12	0	0	0	0	0	0	0	357	0	0	
13	0	0	0	0	0	0	0	357	0	0	
14	0	0	0	0	0	0	0	356	0	0	
15	0	0	0	0	0	0	0	353	0	0	
0	0	0	0	0	0	0	0	350	0	0	
1	0	0	0	0	0	0	0	346	0	0	
2	0	0	0	0	0	0	0	343	0	0	
3	0	0	0	0	0	0	0	340	0	0	
4	0	0	0	0	0	0	0	339	0	0	
5	0	0	0	0	0	0	0	338	0	0	
6	0	0	0	0	0	0	0	339	0	0	
7	0	0	0	0	0	0	0	340	0	0	
8	0	0	0	0	0	0	0	343	0	0	
9	0	0	0	0	0	0	0	347	0	0	
10	0	0	0	0	0	0	0	351	0	0	
11	0	0	0	0	0	0	0	356	0	0	
12	0	0	0	0	0	0	0	360	0	0	
13	0	0	0	0	0	0	0	364	0	0	
14	0	0	0	0	0	0	0	367	0	0	
15	0	0	0	0	0	0	0	370	0	0	
0	0	0	0	0	0	0	0	372	0	0	
1	0	0	0	0	0	0	0	373	0	0	
2	0	0	0	0	0	0	0	373	0	0	
3	0	0	0	0	0	0	0	373	0	0	
4	0	0	0	0	0	0	0	372	0	0	
5	0	0	0	0	0	0	0	372	0	0	
6	0	0	0	0	0	0	0	372	0	0	
7	0	0	0	0	0	0	0	374	0	0	
8	0	0	0	0	0	0	0	377	0	0	
9	0	0	0	0	0	0	0	381	0	0	
10	0	0	0	0	0	0	0	385	0	0	
11	0	0	0	0	0	0	0	390	0	0	
12	0	0	0	0	0	0	0	394	0	0	
13	0	0	0	0	0	0	0	399	0	0	
14	0	0	0	0	0	0	0	403	0	0	
15	0	0	0	0	0	0	0	408	0	0	
0	0	0	0	0	0	0	0	412	0	0	
1	0	0	0	0	0	0	0	415	0	0	
2	0	0	0	0	0	0	0	417	0	0	
3	0	0	0	0	0	0	0	419	0	0	
4	0	0	0	0	0	0	0	419	0	0	
5	0	0	0	0	0	0	0	418	0	0	
6	0	0	0	0	0	0	0	417	0	0	
7	0	0	0	0	0	0	0	417	0	0	
8	0	0	0	0	0	0	0	416	0	0	
9	0	0	0	0	0	0	0	417	0	0	
10	0	0	0	0	0	0	0	419	0	0	
11	0	0	0	0	0	0	0	421	0	0	
12	0	0	0	0	0	0	0	424	0	0	
13	0	0	0	0	0	0	0	428	0	0	
14	0	0	0	0	0	0	0	432	0	0	
15	0	0	0	0	0	0	0	438	0	0	
0	0	0	0	0	0	0	0	443	0	0	
1	0	0	0	0	0	0	0	448	0	0	
2	0	0	0	0	0	0	0	453	0	0	
3	0	0	0	0	0	0	0	457	0	0	
4	0	0	0	0	0	0	0	460	0	0	
5	0	0	0	0	0	0	0	463	0	0	
6	0	0	0	0	0	0	0	463	0	0	
7	0	0	0	0	0	0	0	464	0	0	
8	0	0	0	0	0	0	0	463	0	0	
9	0	0	0	0	0	0	0	461	0	0	
10	0	0	0	0	0	0	0	459	0	0	
11	0	0	0	0	0	0	0	456	0	0	
12	0	0	0	0	0	0	0	455	0	0	
13	0	0	0	0	0	0	0	452	0	0	
14	0	0	0	0	0	0	0	451	0	0	
15	0	0	0	0	0	0	0	449	0	0	
0	0	0	0	0	0	0	0	448	0	0	
1	0	0	0	0	0	0	0	447	0	0	
2	0	0	0	0	0	0	0	446	0	0	
3	0	0	0	0	0	0	0	443	0	0	
4	0	0	0	0	0	0	0	440	0	0	
5	0	0	0	0	0	0	0	437	0	0	
6	0	0	0	0	0	0	0	432	0	0	
7	0	0	0	0	0	0	0	427	0	0	
8	0	0	0	0	0	0	0	420	0	0	
9	0	0	0	0	0	0	0	414	0	0	
10	0	0	0	0	0	0	0	408	0	0	
11	0	0	0	0	0	0	0	402	0	0	
12	0	0	0	0	0	0	0	396	0	0	
13	0	0	0	0	0	0	0	392	0	0	
14	0	0	0	0	0	0	0	389	0	0	
15	0	0	0	0	0	0	0	387	0	0	
0	0	0	0	0	0	0	0	385	0	0	
1	0	0	0	0	0	0	0	383	0	0	
2	0	0	0	0	0	0	0	382	0	0	
3	0	0	0	0	0	0	0	381	0	0	
4	0	0	0	0	0	0	0	380	0	0	
5	0	0	0	0	0	0	0	380	0	0	
6	0	0	0	0	0	0	0	378	0	0	
7	0	0	0	0	0	0	0	378	0	0	
8	0	0	0	0	0	0	0	378	0	0	
9	0	0	0	0	0	0	0	377	0	0	
10	0	0	0	0	0	0	0	377	0	0	
11	0	0	0	0	0	0	0	376	0	0	
12	0	0	0	0	0	0	0	373	0	0	
13	0	0	0	0	0	0	0	370	0	0	
14	0	0	0	0	0	0	0	365	0	0	
15	0	0	0	0	0	0	0	359	0	0	
0	0	0	0	0	0	0	0	351	0	0	
1	0	0	0	0	0	0	0	343	0	0	
2	0	0	0	0	0	0	0	335	0	0	
3	0	0	0	0	0	0	0	327	0	0	
4	0	0	0	0	0	0	0	321	0	0	
5	0	0	0	0	0	0	0	314	0	0	
6	0	0	0	0	0	0	0	310	0	0	
7	0	0	0	0	0	0	0	306	0	0	
8	0	0	0	0	0	0	0	303	0	0	
9	0	0	0	0	0	0	0	302	0	0	
10	0	0	0	0	0	0	0	301	0	0	
11	0	0	0	0	0	0	0	301	0	0	
12	0	0	0	0	0	0	0	302	0	0	
13	0	0	0	0	0	0	0	303	0	0	
14	0	0	0	0	0	0	0	303	0	0	
15	0	0	0	0	0	0	0	303	0	0	
0	0	0	0	0	0	0	0	302	0	0	
1	0	0	0	0	0	0	0	300	0	0	
2	0	0	0	0	0	0	0	298	0	0	
3	0	0	0	0	0	0	0	294	0	0	
4	0	0	0	0	0	0	0	290	0	0	
5	0	0	0	0	0	0	0	284	0	0	
6	0	0	0	0	0	0	0	279	0	0	
7	0	0	0	0	0	0	0	273	0	0	
8	0	0	0	0	0	0	0	268	0	0	
9	0	0	0	0	0	0	0	264	0	0	
10	0	0	0	0	0	0	0	262	0	0	
11	0	0	0	0	0	0	0	262	0	0	
12	0	0	0	0	0	0	0	263	0	0	
13	0	0	0	0	0	0	0	265	0	0	
14	0	0	0	0	0	0	0	269	0	0	
15	0	0	0	0	0	0	0	273	0	0	
0	0	0	0	0	0	0	0	278	0	0	
1	0	0	0	0	0	0	0	282	0	0	
2	0	0	0	0	0	0	0	286	0	0	
3	0	0	0	0	0	0	0	290	0	0	
4	0	0	0	0	0	0	0	294	0	0	
5	0	0	0	0	0	0	0	297	0	0	
6	0	0	0	0	0	0	0	300	0	0	
7	0	0	0	0	0	0	0	303	0	0	
8	0	0	0	0	0	0	1	304	0	0	
9	0	0	0	0	0	0	6	303	0	0	
10	0	0	0	0	0	0	13	302	0	0	
11	0	0	0	0	0	0	21	299	0	0	
12	0	0	0	0	0	0	29	295	0	0	
13	0	0	0	0	0	0	38	289	0	0	
14	0	0	0	0	0	0	45	284	0	0	
15	0	0	0	0	0	0	51	278	0	0	
0	0	0	0	0	0	0	57	273	0	0	
1	0	0	0	0	0	0	63	270	0	0	
2	0	0	0	0	0	0	67	268	0	0	
3	0	0	0	0	0	0	71	267	0	0	
4	0	0	0	0	0	0	74	268	0	0	
5	0	0	0	0	0	0	77	272	0	0	
6	0	0	0	0	0	0	81	277	0	0	
7	0	0	0	0	0	0	85	283	0	0	
8	0	0	0	0	0	0	90	290	0	0	
9	0	0	0	0	0	0	95	297	0	0	
10	0	0	0	0	0	0	100	305	0	0	
11	0	0	0	0	0	0	106	312	0	0	
12	0	0	0	0	0	0	110	316	0	0	
13	0	0	0	0	0	0	113	318	0	0	
14	0	0	0	0	0	0	115	318	0	0	
15	0	0	0	0	0	0	115	314	0	0	
0	0	0	0	0	0	0	114	308	0	0	
1	0	0	0	0	0	0	112	299	0	0	
2	0	0	0	0	0	0	108	290	0	0	
3	0	0	0	0	0	0	105	280	0	0	
4	0	0	0	0	0	0	101	270	0	0	
5	0	0	0	0	0	0	97	260	0	0	
6	0	0	0	0	0	0	95	252	0	0	
7	0	0	0	0	0	0	93	247	0	0	
8	0	0	0	0	0	0	91	242	0	0	
9	0	0	0	0	0	0	91	239	0	0	
10	0	0	0	0	0	0	92	238	0	0	
11	0	0	0	0	0	0	94	239	0	0	
12	0	0	0	0	0	0	97	240	0	0	
13	0	0	0	0	0	0	101	243	0	0	
14	0	0	0	0	0	0	106	247	0	0	
15	0	0	0	0	0	0	112	251	0	0	
0	0	0	0	0	0	0	119	255	0	0	
1	0	0	0	0	0	0	127	259	0	0	
2	0	0	0	0	0	0	136	263	0	0	
3	0	0	0	0	0	0	146	268	0	0	
4	0	0	0	0	0	0	155	272	0	0	
5	0	0	0	0	0	0	163	274	0	0	
6	0	0	0	0	0	0	170	276	0	0	
7	0	0	0	0	0	0	175	277	0	0	
8	0	0	0	0	0	0	178	275	0	0	
9	0	0	0	0	0	0	179	273	0	0	
10	0	0	0	0	0	0	177	270	0	0	
11	0	0	0	0	0	0	174	265	0	0	
12	0	0	0	0	0	0	169	261	0	0	
13	0	0	0	0	0	0	164	256	0	0	
14	0	0	0	0	0	0	160	254	0	0	
15	0	0	0	0	0	0	157	251	0	0	
0	0	0	0	0	0	0	156	250	0	0	
1	0	0	0	0	0	0	156	251	0	0	
2	0	0	0	0	0	0	159	253	0	0	
3	0	0	0	0	0	0	164	255	0	0	
4	0	0	0	0	0	0	171	259	0	0	
5	0	0	0	0	0	0	179	262	0	0	
6	0	0	0	0	0	0	188	265	0	0	
7	0	0	0	0	0	0	198	268	0	0	
8	0	0	0	0	0	0	207	271	0	0	
9	0	0	0	0	0	0	214	271	0	0	
10	0	0	0	0	0	0	221	271	0	0	
11	0	0	0	0	0	0	225	270	0	0	
12	0	0	0	0	0	0	228	268	0	0	
13	0	0	0	0	0	0	230	267	0	0	
14	0	0	0	0	0	0	230	264	0	0	
15	0	0	0	0	0	0	229	262	0	0	
0	0	0	0	0	0	0	227	260	0	0	
1	0	0	0	0	0	0	226	259	0	0	
2	0	0	0	0	0	0	225	258	0	0	
3	0	0	0	0	0	0	225	258	0	0	
4	0	0	0	0	0	0	227	258	0	0	
5	0	0	0	0	0	0	229	258	0	0	
6	0	0	0	0	0	0	233	258	0	0	
7	0	0	0	0	0	0	236	257	0	0	
8	0	0	0	0	0	0	240	257	0	0	
9	0	0	0	0	0	0	246	257	0	0	
10	0	0	0	0	0	0	251	258	0	0	
11	0	0	0	0	0	0	257	259	0	0	
12	0	0	0	0	0	0	263	262	0	0	
13	0	0	0	0	0	0	270	265	0	0	
14	0	0	0	0	0	0	275	268	0	0	
15	0	0	0	0	0	0	280	273	0	0	
0	0	0	0	0	0	0	284	277	0	0	
1	0	0	0	0	0	0	286	281	0	0	
2	0	0	0	0	0	0	287	285	0	0	
3	0	0	0	0	0	0	287	287	0	0	
4	0	0	0	0	0	0	287	289	0	0	
5	0	0	0	0	0	0	286	290	0	0	
6	0	0	0	0	0	0	284	289	0	0	
7	0	0	0	0	0	0	283	289	0	0	
8	0	0	0	0	0	0	280	287	0	0	
9	0	0	0	0	0	0	279	285	0	0	
10	0	0	0	0	0	0	277	284	0	0	
11	0	0	0	0	0	0	277	283	0	0	
12	0	0	0	0	0	0	278	283	0	0	
13	0	0	0	0	0	0	282	285	0	0	
14	0	0	0	0	0	0	287	290	0	0	
15	0	0	0	0	0	0	295	296	0	0	
0	0	0	0	0	0	0	303	303	0	0	
1	0	0	0	0	0	0	312	310	0	0	
2	0	0	0	0	0	0	319	315	0	0	
3	0	0	0	0	0	0	323	319	0	0	
4	0	0	0	0	0	0	326	320	0	0	
5	0	0	0	0	0	0	326	318	0	0	
6	0	0	0	0	0	0	323	314	0	0	
7	0	0	0	0	0	0	317	307	0	0	
8	0	0	0	0	0	0	310	298	0	0	
9	0	0	0	0	0	0	302	288	0	0	
10	0	0	0	0	0	0	295	278	0	0	
11	0	0	0	0	0	0	289	268	0	0	
12	0	0	0	0	0	0	285	259	0	0	
13	0	0	0	0	0	0	283	252	0	0	
14	0	0	0	0	0	0	285	247	0	0	
15	0	0	0	0	0	0	289	244	0	0	
0	0	0	0	0	0	0	296	243	0	0	
1	0	0	0	0	0	0	305	243	0	0	
2	0	0	0	0	0	0	316	245	0	0	
3	0	0	0	0	0	0	327	248	0	0	
4	0	0	0	0	0	0	338	251	0	0	
5	0	0	0	0	0	0	348	255	0	0	
6	0	0	0	0	0	0	358	258	0	0	
7	0	0	0	0	0	0	366	262	0	0	
8	0	0	0	0	0	0	372	264	0	0	
9	0	0	0	0	0	0	375	267	0	0	
10	0	0	0	0	0	0	376	268	0	0	
11	0	0	0	0	0	0	376	268	0	0	
12	0	0	0	0	0	0	373	268	0	0	
13	0	0	0	0	0	0	369	267	0	0	
14	0	0	0	0	0	0	365	265	0	0	
15	0	0	0	0	0	0	359	262	0	0	
0	0	0	0	0	0	0	354	258	0	0	
1	0	0	0	0	0	0	350	254	0	0	
2	0	0	0	0	0	0	346	251	0	0	
3	0	0	0	0	0	0	345	248	0	0	
4	0	0	0	0	0	0	344	245	0	0	
5	0	0	0	0	0	0	347	243	0	0	
6	0	0	0	0	0	0	350	242	0	0	
7	0	0	0	0	0	0	355	242	0	0	
8	0	0	0	0	0	0	360	243	0	0	
9	0	0	0	0	0	0	366	243	0	0	
10	0	0	0	0	0	0	371	243	0	0	
11	0	0	0	0	0	0	374	243	0	0	
12	0	0	0	0	0	0	377	243	0	0	
13	0	0	0	0	0	0	378	242	0	0	
14	0	0	0	0	0	0	379	240	0	0	
15	0	0	0	0	0	0	377	239	0	0	
0	0	0	0	0	0	0	376	238	0	0	
1	0	0	0	0	0	0	375	237	0	0	
2	0	0	0	0	0	0	375	236	0	0	
3	0	0	0	0	0	0	374	235	0	0	
4	0	0	0	0	0	0	375	235	0	0	
5	0	0	0	0	0	0	376	234	0	0	
6	0	0	0	0	0	0	380	234	0	0	
7	0	0	0	0	0	0	384	235	0	0	
8	0	0	0	0	0	0	390	236	0	0	
9	0	0	0	0	0	0	395	237	0	0	
10	0	0	0	0	0	0	402	239	0	0	
11	0	0	0	0	0	0	409	241	0	0	
12	0	0	0	0	0	0	417	244	0	0	
13	0	0	0	0	0	0	423	247	0	0	
14	0	0	0	0	0	0	429	250	0	0	
15	0	0	0	0	0	0	432	252	0	0	
0	0	0	0	0	0	0	434	255	0	0	
1	0	0	0	0	0	0	433	257	0	0	
2	0	0	0	0	0	0	428	258	0	0	
3	0	0	0	0	0	0	421	257	0	0	
4	0	0	0	0	0	0	409	254	0	0	
5	0	0	0	0	0	0	396	249	0	0	
6	0	0	0	0	0	0	380	243	0	0	
7	0	0	0	0	0	0	361	233	0	0	
8	0	0	0	0	0	0	342	221	0	0	
9	0	0	0	0	0	0	322	207	0	0	
10	0	0	0	0	0	0	303	191	0	0	
11	0	0	0	0	0	0	286	175	0	0	
12	0	0	0	0	0	0	270	158	0	0	
13	0	0	0	0	0	0	259	142	0	0	
14	0	0	0	0	0	0	252	128	0	0	
15	0	0	0	0	0	0	249	117	0	0	
0	0	0	0	0	0	0	253	111	0	0	
1	0	0	0	0	0	0	261	109	0	0	
2	0	0	0	0	0	0	275	113	0	0	
3	0	0	0	0	0	0	293	121	0	0	
4	0	0	0	0	0	0	315	135	0	0	
5	0	0	0	0	0	0	339	153	0	0	
6	0	0	0	0	0	0	366	173	0	0	
7	0	0	0	0	0	0	391	195	0	0	
8	0	0	0	0	0	0	416	218	0	0	
9	0	0	0	0	0	0	440	241	0	0	
10	0	0	0	0	0	0	460	261	0	0	
11	0	0	0	0	0	0	479	280	0	0	
12	0	0	0	0	0	0	492	295	0	0	
13	0	0	0	0	0	0	503	307	0	0	
14	0	0	0	0	0	0	510	315	0	0	
15	0	0	0	0	0	0	513	319	0	0	
0	0	0	0	0	0	0	514	320	0	0	
1	0	0	0	0	0	0	512	318	0	0	
2	0	0	0	0	0	0	508	313	0	0	
3	0	0	0	0	0	0	504	307	0	0	
4	0	0	0	0	0	0	498	300	0	0	
5	0	0	0	0	0	0	492	293	0	0	
6	0	0	0	0	0	0	486	285	0	0	
7	0	0	0	0	0	0	480	278	0	0	
8	0	0	0	0	0	0	474	270	0	0	
9	0	0	0	0	0	0	468	263	0	0	
10	0	0	0	0	0	0	462	257	0	0	
11	0	0	0	0	0	0	456	250	0	0	
12	0	0	0	0	0	0	450	244	0	0	
13	0	0	0	0	0	0	444	239	0	0	
14	0	0	0	0	0	0	438	235	0	0	
15	0	0	0	0	0	0	433	231	0	0	
0	0	0	0	0	0	0	428	227	0	0	
1	0	0	0	0	0	0	425	225	0	0	
2	0	0	0	0	0	0	423	224	0	0	
3	0	0	0	0	0	0	422	223	0	0	
4	0	0	0	0	0	0	423	224	0	0	
5	0	0	0	0	0	0	424	226	0	0	
6	0	0	0	0	0	0	426	229	0	0	
7	0	0	0	0	0	0	430	233	0	0	
8	0	0	0	0	0	0	435	239	0	0	
9	0	0	0	0	0	0	439	244	0	0	
10	0	0	0	0	0	0	444	251	0	0	
11	0	0	0	0	0	0	448	257	0	0	
12	0	0	0	0	0	0	451	263	0	0	
13	0	0	0	0	0	0	453	270	0	0	
14	0	0	0	0	0	0	454	275	0	0	
15	0	0	0	0	0	0	454	280	0	0	
0	0	0	0	0	0	0	452	283	0	0	
1	0	0	0	0	0	0	450	286	0	0	
2	0	0	0	0	0	0	447	286	0	0	
3	0	0	0	0	0	0	443	285	0	0	
4	0	0	0	0	0	0	438	283	0	0	
5	0	0	0	0	0	0	432	280	0	0	
6	0	0	0	0	0	0	427	277	0	0	
7	0	0	0	0	0	0	422	274	0	0	
8	0	0	0	0	0	0	419	271	0	0	
9	0	0	0	0	0	0	416	271	0	0	
10	0	0	0	0	0	0	416	272	0	0	
11	0	0	0	0	0	0	417	275	0	0	
12	0	0	0	0	0	0	419	280	0	0	
13	0	0	0	0	0	0	423	287	0	0	
14	0	0	0	0	0	0	428	295	0	0	
15	0	0	0	0	0	0	434	303	0	0	
0	0	0	0	0	0	0	441	313	0	0	
1	0	0	0	0	0	0	448	322	0	0	
2	0	0	0	0	0	0	456	332	0	0	
3	0	0	0	0	0	0	465	340	0	0	
4	0	0	0	0	0	0	476	349	0	0	
5	0	0	0	0	0	0	487	356	0	0	
6	0	0	0	0	0	0	498	363	0	0	
7	0	0	0	0	0	0	511	369	0	0	
8	0	0	0	0	0	0	524	374	0	0	
9	0	0	0	0	0	0	537	377	0	0	
10	0	0	0	0	0	0	551	380	0	0	
11	0	0	0	0	0	0	565	380	0	0	
12	0	0	0	0	0	0	579	379	0	0	
13	0	0	0	0	0	0	592	376	0	0	
14	0	0	0	0	0	0	605	371	0	0	
15	0	0	0	0	0	0	617	366	0	0	
0	0	0	0	0	0	0	629	360	0	0	
1	0	0	0	0	0	0	640	353	0	0	
2	0	0	0	0	0	0	650	347	0	0	
3	0	0	0	0	0	0	659	341	0	0	
4	0	0	0	0	0	0	667	336	0	0	
5	0	0	0	0	0	0	673	332	0	0	
6	0	0	0	0	0	0	678	328	0	0	
7	0	0	0	0	0	0	682	325	0	0	
8	0	0	0	0	0	0	684	323	0	0	
9	0	0	0	0	0	0	686	323	0	0	
10	0	0	0	0	0	0	686	323	0	0	
11	0	0	0	0	0	0	687	323	0	0	
12	0	0	0	0	0	0	687	325	0	0	
13	0	0	0	0	0	0	688	327	0	0	
14	0	0	0	0	0	0	690	331	0	0	
15	0	0	0	0	0	0	693	334	0	0	
0	0	0	0	0	0	0	697	337	0	0	
1	0	0	0	0	0	0	701	341	0	0	
2	0	0	0	0	0	0	706	344	0	0	
3	0	0	0	0	0	0	712	345	0	0	
4	0	0	0	0	0	0	716	346	0	0	
5	0	0	0	0	0	0	722	347	0	0	
6	0	0	0	0	0	0	727	346	0	0	
7	0	0	0	0	0	0	731	345	0	0	
8	0	0	0	0	0	0	735	344	0	0	
9	0	0	0	0	0	0	739	343	0	0	
10	0	0	0	0	0	0	742	342	0	0	
11	0	0	0	0	0	0	744	340	0	0	
12	0	0	0	0	0	0	747	339	0	0	
13	0	0	0	0	0	0	750	337	0	0	
14	0	0	0	0	0	0	752	336	0	0	
15	0	0	0	0	0	0	754	334	0	0	
0	0	0	0	0	0	0	757	332	0	0	
1	0	0	0	0	0	0	760	330	0	0	
2	0	0	0	0	0	0	763	328	0	0	
3	0	0	0	0	0	0	766	327	0	0	
4	0	0	0	0	0	0	770	326	0	0	
5	0	0	0	0	0	0	775	326	0	0	
6	0	0	0	0	0	0	780	326	0	0	
7	0	0	0	0	0	0	785	327	0	0	
8	0	0	0	0	0	0	789	327	0	0	
9	0	0	0	0	0	0	792	327	0	0	
10	0	0	0	0	0	0	795	326	0	0	
11	0	0	0	0	0	0	796	325	0	0	
12	0	0	0	0	0	0	795	323	0	0	
13	0	0	0	0	0	0	793	323	0	0	
14	0	0	0	0	0	0	792	322	0	0	
15	0	0	0	0	0	0	789	323	0	0	
0	0	0	0	0	0	0	787	325	0	0	
1	0	0	0	0	0	0	784	328	0	0	
2	0	0	0	0	0	0	783	332	0	0	
3	0	0	0	0	0	0	782	336	0	0	
4	0	0	0	0	0	0	782	340	0	0	
5	0	0	0	0	0	0	783	345	0	0	
6	0	0	0	0	0	0	785	349	0	0	
7	0	0	0	0	0	0	787	352	0	0	
8	0	0	0	0	0	0	791	355	0	0	
9	0	0	0	0	0	0	795	356	0	0	
10	0	0	0	0	0	0	798	356	0	0	
11	0	0	0	0	0	0	802	355	0	0	
12	0	0	0	0	0	0	805	354	0	0	
13	0	0	0	0	0	0	808	352	0	0	
14	0	0	0	0	0	0	811	350	0	0	
15	0	0	0	0	0	0	814	348	0	0	
0	0	0	0	0	0	0	816	346	0	0	
1	0	0	0	0	0	0	817	345	0	0	
2	0	0	0	0	0	0	818	344	0	0	
3	0	0	0	0	0	0	819	344	0	0	
4	0	0	0	0	0	0	819	344	0	0	
5	0	0	0	0	0	0	819	343	0	0	
6	0	0	0	0	0	0	819	343	0	0	
7	0	0	0	0	0	0	819	342	0	0	
8	0	0	0	0	0	0	820	341	0	0	
9	0	0	0	0	0	0	822	340	0	0	
10	0	0	0	0	0	0	825	339	0	0	
11	0	0	0	0	0	0	828	337	0	0	
12	0	0	0	0	0	0	833	334	0	0	
13	0	0	0	0	0	0	837	330	0	0	
14	0	0	0	0	0	0	842	327	0	0	
15	0	0	0	0	0	0	847	322	0	0	
0	0	0	0	0	0	0	851	317	0	0	
1	0	0	0	0	0	0	856	312	0	0	
2	0	0	0	0	0	0	858	305	0	0	
3	0	0	0	0	0	0	859	299	0	0	
4	0	0	0	0	0	0	859	291	0	0	
5	0	0	0	0	0	0	857	284	0	0	
6	0	0	0	0	0	0	854	275	0	0	
7	0	0	0	0	0	0	849	266	0	0	
8	0	0	0	0	0	0	845	257	0	0	
9	0	0	0	0	0	0	841	248	0	0	
10	0	0	0	0	0	0	838	238	0	0	
11	0	0	0	0	0	0	836	229	0	0	
12	0	0	0	0	0	0	836	220	0	0	
13	0	0	0	0	0	0	839	212	0	0	
14	0	0	0	0	0	0	843	204	0	0	
15	0	0	0	0	0	0	849	197	0	0	
0	0	0	0	0	0	0	857	191	0	0	
1	0	0	0	0	0	0	866	184	0	0	
2	0	0	0	0	0	0	876	178	0	0	
3	0	0	0	0	0	0	885	172	0	0	
4	0	0	0	0	0	0	894	167	0	0	
5	0	0	0	0	0	0	902	161	0	0	
6	0	0	0	0	0	0	909	156	0	0	
7	0	0	0	0	0	0	914	152	0	0	
8	0	0	0	0	0	0	918	147	0	0	
9	0	0	0	0	0	0	921	143	0	0	
10	0	0	0	0	0	0	921	139	0	0	
11	0	0	0	0	0	0	921	135	0	0	
12	0	0	0	0	0	0	921	132	0	0	
13	0	0	0	0	0	0	920	128	0	0	
14	0	0	0	0	0	0	919	125	0	0	
15	0	0	0	0	0	0	917	122	0	0	
0	0	0	0	0	0	0	918	119	0	0	
1	0	0	0	0	0	0	919	116	0	0	
2	0	0	0	0	0	0	920	113	0	0	
3	0	0	0	0	0	0	922	111	0	0	
4	0	0	0	0	0	0	925	108	0	0	
5	0	0	0	0	0	0	927	106	0	0	
6	0	0	0	0	0	0	931	105	0	0	
7	0	0	0	0	0	0	934	104	0	0	
8	0	0	0	0	0	0	937	104	0	0	
9	0	0	0	0	0	0	939	105	0	0	
10	0	0	0	0	0	0	941	106	0	0	
11	0	0	0	0	0	0	942	107	0	0	
12	0	0	0	0	0	0	941	108	0	0	
13	0	0	0	0	0	0	939	109	0	0	
14	0	0	0	0	0	0	936	109	0	0	
15	0	0	0	0	0	0	932	109	0	0	
0	0	0	0	0	0	0	929	108	0	0	
1	0	0	0	0	0	0	924	107	0	0	
2	0	0	0	0	0	0	919	105	0	0	
3	0	0	0	0	0	0	913	103	0	0	
4	0	0	0	0	0	0	909	102	0	0	
5	0	0	0	0	0	0	906	99	0	0	
6	0	0	0	0	0	0	903	98	0	0	
7	0	0	0	0	0	0	902	97	0	0	
8	0	0	0	0	0	0	902	96	0	0	
9	0	0	0	0	0	0	904	96	0	0	
10	0	0	0	0	0	0	907	96	0	0	
11	0	0	0	0	0	0	912	97	0	0	
12	0	0	0	0	0	0	916	99	0	0	
13	0	0	0	0	0	0	922	100	0	0	
14	0	0	0	0	0	0	927	102	0	0	
15	0	0	0	0	0	0	931	103	0	0	
0	0	0	0	0	0	0	933	104	0	0	
1	0	0	0	0	0	0	935	104	0	0	
2	0	0	0	0	0	0	935	104	0	0	
3	0	0	0	0	0	0	934	103	0	0	
4	0	0	0	0	0	0	934	103	0	0	
5	0	0	0	0	0	0	933	103	0	0	
6	0	0	0	0	0	0	933	103	0	0	
7	0	0	0	0	0	0	934	103	0	0	
8	0	0	0	0	0	0	935	104	0	0	
9	0	0	0	0	0	0	937	104	0	0	
10	0	0	0	0	0	0	939	104	0	0	
11	0	0	0	0	0	0	940	105	0	0	
12	0	0	0	0	0	0	941	105	0	0	
13	0	0	0	0	0	0	942	105	0	0	
14	0	0	0	0	0	0	943	105	0	0	
15	0	0	0	0	0	0	942	106	0	0	
0	0	0	0	0	0	0	940	106	0	0	
1	0	0	0	0	0	0	937	105	0	0	
2	0	0	0	0	0	0	934	105	0	0	
3	0	0	0	0	0	0	930	104	0	0	
4	0	0	0	0	0	0	927	104	0	0	
5	0	0	0	0	0	0	924	105	0	0	
6	0	0	0	0	0	0	921	107	0	0	
7	0	0	0	0	0	0	921	108	0	0	
8	0	0	0	0	0	0	921	111	0	0	
9	0	0	0	0	0	0	923	114	0	0	
10	0	0	0	0	0	0	926	117	0	0	
11	0	0	0	0	0	0	929	120	0	0	
12	0	0	0	0	0	0	934	124	0	0	
13	0	0	0	0	0	0	937	126	0	0	
14	0	0	0	0	0	0	940	128	0	0	
15	0	0	0	0	0	0	942	129	0	0	
0	0	0	0	0	0	0	942	129	0	0	
1	0	0	0	0	0	0	942	128	0	0	
2	0	0	0	0	0	0	940	127	0	0	
3	0	0	0	0	0	0	937	124	0	0	
4	0	0	0	0	0	0	932	122	0	0	
5	0	0	0	0	0	0	927	120	0	0	
6	0	0	0	0	0	0	920	118	0	0	
7	0	0	0	0	0	0	913	116	0	0	
8	0	0	0	0	0	0	907	115	0	0	
9	0	0	0	0	0	0	901	116	0	0	
10	0	0	0	0	0	0	896	118	0	0	
11	0	0	0	0	0	0	893	122	0	0	
12	0	0	0	0	0	0	891	127	0	0	
13	0	0	0	0	0	0	890	131	0	0	
14	0	0	0	0	0	0	891	137	0	0	
15	0	0	0	0	0	0	894	143	0	0	
0	0	0	0	0	0	0	896	148	0	0	
1	0	0	0	0	0	0	900	153	0	0	
2	0	0	0	0	0	0	905	158	0	0	
3	0	0	0	0	0	0	911	163	0	0	
4	0	0	0	0	0	0	917	167	0	0	
5	0	0	0	0	0	0	922	170	0	0	
6	0	0	0	0	0	0	927	173	0	0	
7	0	0	0	0	0	0	930	175	0	0	
8	0	0	0	0	0	0	932	176	0	0	
9	0	0	0	0	0	0	932	176	0	0	
10	0	0	0	0	0	0	930	175	0	0	
11	0	0	0	0	0	0	925	172	0	0	
12	0	0	0	0	0	0	918	169	0	0	
13	0	0	0	0	0	0	909	165	0	0	
14	0	0	0	0	0	0	898	161	0	0	
15	0	0	0	0	0	0	886	156	0	0	
0	0	0	0	0	0	0	874	151	0	0	
1	0	0	0	0	0	0	862	146	0	0	
2	0	0	0	0	0	0	850	142	0	0	
3	0	0	0	0	0	0	840	138	0	0	
4	0	0	0	0	0	0	833	135	0	0	
5	0	0	0	0	0	0	830	135	0	0	
6	0	0	0	0	0	0	828	135	0	0	
7	0	0	0	0	0	0	831	138	0	0	
8	0	0	0	0	0	0	836	142	0	0	
9	0	0	0	0	0	0	845	149	0	0	
10	0	0	0	0	0	0	856	157	0	0	
11	0	0	0	0	0	0	869	167	0	0	
12	0	0	0	0	0	0	882	178	0	0	
13	0	0	0	0	0	0	894	188	0	0	
14	0	0	0	0	0	0	904	198	0	0	
15	0	0	0	0	0	0	911	207	0	0	
0	0	0	0	0	0	0	915	214	0	0	
1	0	0	0	0	0	0	916	221	0	0	
2	0	0	0	0	0	0	915	225	0	0	
3	0	0	0	0	0	0	911	229	0	0	
4	0	0	0	0	0	0	905	231	0	0	
5	0	0	0	0	0	0	897	231	0	0	
6	0	0	0	0	0	0	889	231	0	0	
7	0	0	0	0	0	0	879	229	0	0	
8	0	0	0	0	0	0	870	226	0	0	
9	0	0	0	0	0	0	861	223	0	0	
10	0	0	0	0	0	0	854	219	0	0	
11	0	0	0	0	0	0	848	216	0	0	
12	0	0	0	0	0	0	844	212	0	0	
13	0	0	0	0	0	0	842	210	0	0	
14	0	0	0	0	0	0	843	207	0	0	
15	0	0	0	0	0	0	844	207	0	0	
0	0	0	0	0	0	0	848	207	0	0	
1	0	0	0	0	0	0	852	209	0	0	
2	0	0	0	0	0	0	858	212	0	0	
3	0	0	0	0	0	0	863	215	0	0	
4	0	0	0	0	0	0	867	220	0	0	
5	0	0	0	0	0	0	870	224	0	0	
6	0	0	0	0	0	0	871	229	0	0	
7	0	0	0	0	0	0	870	233	0	0	
8	0	0	0	0	0	0	868	236	0	0	
9	0	0	0	0	0	0	864	238	0	0	
10	0	0	0	0	0	0	859	239	0	0	
11	0	0	0	0	0	0	854	239	0	0	
12	0	0	0	0	0	0	848	237	0	0	
13	0	0	0	0	0	0	845	236	0	0	
14	0	0	0	0	0	0	842	233	0	0	
15	0	0	0	0	0	0	841	231	0	0	
0	0	0	0	0	0	0	842	229	0	0	
1	0	0	0	0	0	0	844	227	0	0	
2	0	0	0	0	0	0	847	224	0	0	
3	0	0	0	0	0	0	850	222	0	0	
4	0	0	0	0	0	0	855	220	0	0	
5	0	0	0	0	0	0	859	219	0	0	
6	0	0	0	0	0	0	863	219	0	0	
7	0	0	0	0	0	0	865	219	0	0	
8	0	0	0	0	0	0	867	219	0	0	
9	0	0	0	0	0	0	866	219	0	0	
10	0	0	0	0	0	0	864	219	0	0	
11	0	0	0	0	0	0	859	218	0	0	
12	0	0	0	0	0	0	853	217	0	0	
13	0	0	0	0	0	0	846	215	0	0	
14	0	0	0	0	0	0	839	213	0	0	
15	0	0	0	0	0	0	834	212	0	0	
0	0	0	0	0	0	0	829	211	0	0	
1	0	0	0	0	0	0	825	211	0	0	
2	0	0	0	0	0	0	824	211	0	0	
3	0	0	0	0	0	0	823	212	0	0	
4	0	0	0	0	0	0	824	214	0	0	
5	0	0	0	0	0	0	825	216	0	0	
6	0	0	0	0	0	0	828	219	0	0	
7	0	0	0	0	0	0	831	223	0	0	
8	0	0	0	0	0	0	835	227	0	0	
9	0	0	0	0	0	0	839	231	0	0	
10	0	0	0	0	0	0	843	234	0	0	
11	0	0	0	0	0	0	846	238	0	0	
12	0	0	0	0	0	0	849	241	0	0	
13	0	0	0	0	0	0	852	244	0	0	
14	0	0	0	0	0	0	853	247	0	0	
15	0	0	0	0	0	0	852	249	0	0	
0	0	0	0	0	0	0	851	250	0	0	
1	0	0	0	0	0	0	847	250	0	0	
2	0	0	0	0	0	0	843	250	0	0	
3	0	0	0	0	0	0	839	249	0	0	
4	0	0	0	0	0	0	833	247	0	0	
5	0	0	0	0	0	0	828	246	0	0	
6	0	0	0	0	0	0	824	243	0	0	
7	0	0	0	0	0	0	821	242	0	0	
8	0	0	0	0	0	0	819	241	0	0	
9	0	0	0	0	0	0	818	240	0	0	
10	0	0	0	0	0	0	818	239	0	0	
11	0	0	0	0	0	0	819	239	0	0	
12	0	0	0	0	0	0	820	239	0	0	
13	0	0	0	0	0	0	822	240	0	0	
14	0	0	0	0	0	0	822	241	0	0	
15	0	0	0	0	0	0	822	243	0	0	
0	0	0	0	0	0	0	820	244	0	0	
1	0	0	0	0	0	0	817	247	0	0	
2	0	0	0	0	0	0	814	250	0	0	
3	0	0	0	0	0	0	809	253	0	0	
4	0	0	0	0	0	0	804	257	0	0	
5	0	0	0	0	0	0	799	261	0	0	
6	0	0	0	0	0	0	793	266	0	0	
7	0	0	0	0	0	0	789	270	0	0	
8	0	0	0	0	0	0	784	274	0	0	
9	0	0	0	0	0	0	781	277	0	0	
10	0	0	0	0	0	0	777	279	0	0	
11	0	0	0	0	0	0	774	279	0	0	
12	0	0	0	0	0	0	770	276	0	0	
13	0	0	0	0	0	0	766	273	0	0	
14	0	0	0	0	0	0	762	268	0	0	
15	0	0	0	0	0	0	759	263	0	0	
0	0	0	0	0	0	0	755	257	0	0	
1	0	0	0	0	0	0	752	252	0	0	
2	0	0	0	0	0	0	748	248	0	0	
3	0	0	0	0	0	0	746	244	0	0	
4	0	0	0	0	0	0	743	242	0	0	
5	0	0	0	0	0	0	741	240	0	0	
6	0	0	0	0	0	0	738	241	0	0	
7	0	0	0	0	0	0	737	243	0	0	
8	0	0	0	0	0	0	736	245	0	0	
9	0	0	0	0	0	0	737	249	0	0	
10	0	0	0	0	0	0	737	254	0	0	
11	0	0	0	0	0	0	739	259	0	0	
12	0	0	0	0	0	0	741	265	0	0	
13	0	0	0	0	0	0	743	271	0	0	
14	0	0	0	0	0	0	746	276	0	0	
15	0	0	0	0	0	0	749	282	0	0	
0	0	0	0	0	0	0	752	286	0	0	
1	0	0	0	0	0	0	755	289	0	0	
2	0	0	0	0	0	0	758	292	0	0	
3	0	0	0	0	0	0	762	295	0	0	
4	0	0	0	0	0	0	765	297	0	0	
5	0	0	0	0	0	0	769	299	0	0	
6	0	0	0	0	0	0	772	301	0	0	
7	0	0	0	0	0	0	776	304	0	0	
8	0	0	0	0	0	0	780	307	0	0	
9	0	0	0	0	0	0	783	311	0	0	
10	0	0	0	0	0	0	786	315	0	0	
11	0	0	0	0	0	0	788	319	0	0	
12	0	0	0	0	0	0	791	323	0	0	
13	0	0	0	0	0	0	792	327	0	0	
14	0	0	0	0	0	0	793	330	0	0	
15	0	0	0	0	0	0	794	332	0	0	
0	0	0	0	0	0	0	793	332	0	0	
1	0	0	0	0	0	0	793	331	0	0	
2	0	0	0	0	0	0	792	328	0	0	
3	0	0	0	0	0	0	792	324	0	0	
4	0	0	0	0	0	0	790	319	0	0	
5	0	0	0	0	0	0	788	313	0	0	
6	0	0	0	0	0	0	786	307	0	0	
7	0	0	0	0	0	0	783	300	0	0	
8	0	0	0	0	0	0	780	295	0	0	
9	0	0	0	0	0	0	778	291	0	0	
10	0	0	0	0	0	0	774	288	0	0	
11	0	0	0	0	0	0	772	288	0	0	
12	0	0	0	0	0	0	769	289	0	0	
13	0	0	0	0	0	0	767	292	0	0	
14	0	0	0	0	0	0	765	297	0	0	
15	0	0	0	0	0	0	763	302	0	0	
0	0	0	0	0	0	0	760	308	0	0	
1	0	0	0	0	0	0	758	314	0	0	
2	0	0	0	0	0	0	754	319	0	0	
3	0	0	0	0	0	0	752	325	0	0	
4	0	0	0	0	0	0	748	328	0	0	
5	0	0	0	0	0	0	743	331	0	0	
6	0	0	0	0	0	0	739	332	0	0	
7	0	0	0	0	0	0	734	332	0	0	
8	0	0	0	0	0	0	729	330	0	0	
9	0	0	0	0	0	0	723	327	0	0	
10	0	0	0	0	0	0	717	324	0	0	
11	0	0	0	0	0	0	712	321	0	0	
12	0	0	0	0	0	0	706	317	0	0	
13	0	0	0	0	0	0	700	312	0	0	
14	0	0	0	0	0	0	694	308	0	0	
15	0	0	0	0	0	0	688	304	0	0	
0	0	0	0	0	0	0	682	300	0	0	
1	0	0	0	0	0	0	677	297	0	0	
2	0	0	0	0	0	0	671	295	0	0	
3	0	0	0	0	0	0	667	293	0	0	
4	0	0	0	0	0	0	662	292	0	0	
5	0	0	0	0	0	0	659	292	0	0	
6	0	0	0	0	0	0	657	293	0	0	
7	0	0	0	0	0	0	656	295	0	0	
8	0	0	0	0	0	0	658	297	0	0	
9	0	0	0	0	0	0	661	301	0	0	
10	0	0	0	0	0	0	666	305	0	0	
11	0	0	0	0	0	0	672	310	0	0	
12	0	0	0	0	0	0	680	315	0	0	
13	0	0	0	0	0	0	687	320	0	0	
14	0	0	0	0	0	0	693	324	0	0	
15	0	0	0	0	0	0	699	327	0	0	
0	0	0	0	0	0	0	703	329	0	0	
1	0	0	0	0	0	0	705	331	0	0	
2	0	0	0	0	0	0	706	331	0	0	
3	0	0	0	0	0	0	706	331	0	0	
4	0	0	0	0	0	0	704	331	0	0	
5	0	0	0	0	0	0	702	329	0	0	
6	0	0	0	0	0	0	698	327	0	0	
7	0	0	0	0	0	0	693	325	0	0	
8	0	0	0	0	0	0	688	322	0	0	
9	0	0	0	0	0	0	683	318	0	0	
10	0	0	0	0	0	0	678	315	0	0	
11	0	0	0	0	0	0	673	310	0	0	
12	0	0	0	0	0	0	670	306	0	0	
13	0	0	0	0	0	0	668	302	0	0	
14	0	0	0	0	0	0	666	297	0	0	
15	0	0	0	0	0	0	665	294	0	0	
0	0	0	0	0	0	0	666	290	0	0	
1	0	0	0	0	0	0	666	286	0	0	
2	0	0	0	0	0	0	667	283	0	0	
3	0	0	0	0	0	0	668	280	0	0	
4	0	0	0	0	0	0	669	279	0	0	
5	0	0	0	0	0	0	671	278	0	0	
6	0	0	0	0	0	0	673	279	0	0	
7	0	0	0	0	0	0	675	281	0	0	
8	0	0	0	0	0	0	678	284	0	0	
9	0	0	0	0	0	0	680	288	0	0	
10	0	0	0	0	0	0	682	292	0	0	
11	0	0	0	0	0	0	684	297	0	0	
12	0	0	0	0	0	0	684	301	0	0	
13	0	0	0	0	0	0	683	305	0	0	
14	0	0	0	0	0	0	682	308	0	0	
15	0	0	0	0	0	0	680	310	0	0	
0	0	0	0	0	0	0	678	310	0	0	
1	0	0	0	0	0	0	676	309	0	0	
2	0	0	0	0	0	0	675	306	0	0	
3	0	0	0	0	0	0	672	302	0	0	
4	0	0	0	0	0	0	671	297	0	0	
5	0	0	0	0	0	0	671	292	0	0	
6	0	0	0	0	0	0	671	286	0	0	
7	0	0	0	0	0	0	672	280	0	0	
8	0	0	0	0	0	0	675	276	0	0	
9	0	0	0	0	0	0	677	272	0	0	
10	0	0	0	0	0	0	681	271	0	0	
11	0	0	0	0	0	0	685	271	0	0	
12	0	0	0	0	0	0	689	273	0	0	
13	0	0	0	0	0	0	694	277	0	0	
14	0	0	0	0	0	0	698	281	0	0	
15	0	0	0	0	0	0	700	286	0	0	
0	0	0	0	0	0	0	700	288	0	0	
1	0	0	0	0	0	0	699	291	0	0	
2	0	0	0	0	0	0	695	291	0	0	
3	0	0	0	0	0	0	689	290	0	0	
4	0	0	0	0	0	0	684	287	0	0	
5	0	0	0	0	0	0	677	283	0	0	
6	0	0	0	0	0	0	671	279	0	0	
7	0	0	0	0	0	0	666	274	0	0	
8	0	0	0	0	0	0	663	269	0	0	
9	0	0	0	0	0	0	660	265	0	0	
10	0	0	0	0	0	0	660	262	0	0	
11	0	0	0	0	0	0	662	260	0	0	
12	0	0	0	0	0	0	665	259	0	0	
13	0	0	0	0	0	0	670	260	0	0	
14	0	0	0	0	0	0	676	262	0	0	
15	0	0	0	0	0	0	682	265	0	0	
0	0	0	0	0	0	0	688	271	0	0	
1	0	0	0	0	0	0	695	278	0	0	
2	0	0	0	0	0	0	701	286	0	0	
3	0	0	0	0	0	0	706	294	0	0	
4	0	0	0	0	0	0	711	304	0	0	
5	0	0	0	0	0	0	713	313	0	0	
6	0	0	0	0	0	0	715	322	0	0	
7	0	0	0	0	0	0	716	329	0	0	
8	0	0	0	0	0	0	714	335	0	0	
9	0	0	0	0	0	0	711	338	0	0	
10	0	0	0	0	0	0	707	339	0	0	
11	0	0	0	0	0	0	703	338	0	0	
12	0	0	0	0	0	0	696	334	0	0	
13	0	0	0	0	0	0	690	328	0	0	
14	0	0	0	0	0	0	684	321	0	0	
15	0	0	0	0	0	0	678	314	0	0	
0	0	0	0	0	0	0	672	307	0	0	
1	0	0	0	0	0	0	669	300	0	0	
2	0	0	0	0	0	0	666	295	0	0	
3	0	0	0	0	0	0	666	292	0	0	
4	0	0	0	0	0	0	667	292	0	0	
5	0	0	0	0	0	0	669	293	0	0	
6	0	0	0	0	0	0	672	295	0	0	
7	0	0	0	0	0	0	674	299	0	0	
8	0	0	0	0	0	0	677	304	0	0	
9	0	0	0	0	0	0	679	309	0	0	
10	0	0	0	0	0	0	679	313	0	0	
11	0	0	0	0	0	0	678	317	0	0	
12	0	0	0	0	0	0	675	320	0	0	
13	0	0	0	0	0	0	671	321	0	0	
14	0	0	0	0	0	0	666	322	0	0	
15	0	0	0	0	0	0	660	321	0	0	
0	0	0	0	0	0	0	654	320	0	0	
1	0	0	0	0	0	0	647	318	0	0	
2	0	0	0	0	0	0	641	316	0	0	
3	0	0	0	0	0	0	635	314	0	0	
4	0	0	0	0	0	0	628	312	0	0	
5	0	0	0	0	0	0	622	311	0	0	
6	0	0	0	0	0	0	614	309	0	0	
7	0	0	0	0	0	0	607	308	0	0	
8	0	0	0	0	0	0	600	308	0	0	
9	0	0	0	0	0	0	593	308	0	0	
10	0	0	0	0	0	0	587	309	0	0	
11	0	0	0	0	0	0	582	311	0	0	
12	0	0	0	0	0	0	578	313	0	0	
13	0	0	0	0	0	0	576	316	0	0	
14	0	0	0	0	0	0	577	320	0	0	
15	0	0	0	0	0	0	582	326	0	0	
0	0	0	0	0	0	0	588	332	0	0	
1	0	0	0	0	0	0	597	339	0	0	
2	0	0	0	0	0	0	608	347	0	0	
3	0	0	0	0	0	0	621	355	0	0	
4	0	0	0	0	0	0	633	361	0	0	
5	0	0	0	0	0	0	645	368	0	0	
6	0	0	0	0	0	0	656	372	0	0	
7	0	0	0	0	0	0	664	376	0	0	
8	0	0	0	0	0	0	670	379	0	0	
9	0	0	0	0	0	0	672	380	0	0	
10	0	0	0	0	0	0	670	379	0	0	
11	0	0	0	0	0	0	665	378	0	0	
12	0	0	0	0	0	0	656	376	0	0	
13	0	0	0	0	0	0	645	373	0	0	
14	0	0	0	0	0	0	633	370	0	0	
15	0	0	0	0	0	0	619	367	0	0	
0	0	0	0	0	0	0	606	366	0	0	
1	0	0	0	0	0	0	594	365	0	0	
2	0	0	0	0	0	0	584	365	0	0	
3	0	0	0	0	0	0	575	366	0	0	
4	0	0	0	0	0	0	571	368	0	0	
5	0	0	0	0	0	0	568	371	0	0	
6	0	0	0	0	0	0	567	373	0	0	
7	0	0	0	0	0	0	568	376	0	0	
8	0	0	0	0	0	0	570	377	0	0	
9	0	0	0	0	0	0	575	380	0	0	
10	0	0	0	0	0	0	579	381	0	0	
11	0	0	0	0	0	0	582	383	0	0	
12	0	0	0	0	0	0	586	385	0	0	
13	0	0	0	0	0	0	589	387	0	0	
14	0	0	0	0	0	0	592	391	0	0	
15	0	0	0	0	0	0	594	396	0	0	
0	0	0	0	0	0	0	596	401	0	0	
1	0	0	0	0	0	0	599	408	0	0	
2	0	0	0	0	0	0	601	415	0	0	
3	0	0	0	0	0	0	604	422	0	0	
4	0	0	0	0	0	0	606	428	0	0	
5	0	0	0	0	0	0	607	433	0	0	
6	0	0	0	0	0	0	608	435	0	0	
7	0	0	0	0	0	0	606	436	0	0	
8	0	0	0	0	0	0	602	433	0	0	
9	0	0	0	0	0	0	597	427	0	0	
10	0	0	0	0	0	0	589	417	0	0	
11	0	0	0	0	0	0	580	406	0	0	
12	0	0	0	0	0	0	571	392	0	0	
13	0	0	0	0	0	0	560	376	0	0	
14	0	0	0	0	0	0	549	360	0	0	
15	0	0	0	0	0	0	538	345	0	0	
0	0	0	0	0	0	0	528	330	0	0	
1	0	0	0	0	0	0	518	316	0	0	
2	0	0	0	0	0	0	509	304	0	0	
3	0	0	0	0	0	0	501	293	0	0	
4	0	0	0	0	0	0	495	284	0	0	
5	0	0	0	0	0	0	489	278	0	0	
6	0	0	0	0	0	0	486	275	0	0	
7	0	0	0	0	0	0	486	274	0	0	
8	0	0	0	0	0	0	488	275	0	0	
9	0	0	0	0	0	0	494	280	0	0	
10	0	0	0	0	0	0	502	288	0	0	
11	0	0	0	0	0	0	513	298	0	0	
12	0	0	0	0	0	0	527	310	0	0	
13	0	0	0	0	0	0	544	323	0	0	
14	0	0	0	0	0	0	563	338	0	0	
15	0	0	0	0	0	0	583	352	0	0	
0	0	0	0	0	0	0	603	366	0	0	
1	0	0	0	0	0	0	622	379	0	0	
2	0	0	0	0	0	0	640	391	0	0	
3	0	0	0	0	0	0	656	401	0	0	
4	0	0	0	0	0	0	668	412	0	0	
5	0	0	0	0	0	0	678	420	0	0	
6	0	0	0	0	0	0	684	427	0	0	
7	0	0	0	0	0	0	687	433	0	0	
8	0	0	0	0	0	0	688	439	0	0	
9	0	0	0	0	0	0	685	444	0	0	
10	0	0	0	0	0	0	681	448	0	0	
11	0	0	0	0	0	0	676	453	0	0	
12	0	0	0	0	0	0	670	458	0	0	
13	0	0	0	0	0	0	664	463	0	0	
14	0	0	0	0	0	0	659	469	0	0	
15	0	0	0	0	0	0	655	475	0	0	
0	0	0	0	0	0	0	650	480	0	0	
1	0	0	0	0	0	0	647	485	0	0	
2	0	0	0	0	0	0	644	489	0	0	
3	0	0	0	0	0	0	641	491	0	0	
4	0	0	0	0	0	0	639	493	0	0	
5	0	0	0	0	0	0	638	493	0	0	
6	0	0	0	0	0	0	637	491	0	0	
7	0	0	0	0	0	0	636	488	0	0	
8	0	0	0	0	0	0	635	483	0	0	
9	0	0	0	0	0	0	634	478	0	0	
10	0	0	0	0	0	0	632	471	0	0	
11	0	0	0	0	0	0	631	463	0	0	
12	0	0	0	0	0	0	629	456	0	0	
13	0	0	0	0	0	0	627	450	0	0	
14	0	0	0	0	0	0	625	443	0	0	
15	0	0	0	0	0	0	624	437	0	0	
0	0	0	0	0	0	0	623	432	0	0	
1	0	0	0	0	0	0	623	426	0	0	
2	0	0	0	0	0	0	624	420	0	0	
3	0	0	0	0	0	0	625	415	0	0	
4	0	0	0	0	0	0	628	407	0	0	
5	0	0	0	0	0	0	633	400	0	0	
6	0	0	0	0	0	0	639	393	0	0	
7	0	0	0	0	0	0	647	385	0	0	
8	0	0	0	0	0	0	655	377	0	0	
9	0	0	0	0	0	0	665	369	0	0	
10	0	0	0	0	0	0	675	361	0	0	
11	0	0	0	0	0	0	684	353	0	0	
12	0	0	0	0	0	0	693	345	0	0	
13	0	0	0	0	0	0	700	336	0	0	
14	0	0	0	0	0	0	706	327	0	0	
15	0	0	0	0	0	0	711	318	0	0	
0	0	0	0	0	0	0	714	310	0	0	
1	0	0	0	0	0	0	716	301	0	0	
2	0	0	0	0	0	0	718	294	0	0	
3	0	0	0	0	0	0	718	286	0	0	
4	0	0	0	0	0	0	719	279	0	0	
5	0	0	0	0	0	0	720	271	0	0	
6	0	0	0	0	0	0	722	265	0	0	
7	0	0	0	0	0	0	724	258	0	0	
8	0	0	0	0	0	0	728	252	0	0	
9	0	0	0	0	0	0	732	246	0	0	
10	0	0	0	0	0	0	736	240	0	0	
11	0	0	0	0	0	0	743	234	0	0	
12	0	0	0	0	0	0	750	229	0	0	
13	0	0	0	0	0	0	756	223	0	0	
14	0	0	0	0	0	0	762	218	0	0	
15	0	0	0	0	0	0	769	213	0	0	
0	0	0	0	0	0	0	775	209	0	0	
1	0	0	0	0	0	0	780	205	0	0	
2	0	0	0	0	0	0	783	202	0	0	
3	0	0	0	0	0	0	785	199	0	0	
4	0	0	0	0	0	0	787	198	0	0	
5	0	0	0	0	0	0	785	196	0	0	
6	0	0	0	0	0	0	783	195	0	0	
7	0	0	0	0	0	0	780	195	0	0	
8	0	0	0	0	0	0	777	195	0	0	
9	0	0	0	0	0	0	773	195	0	0	
10	0	0	0	0	0	0	769	197	0	0	
11	0	0	0	0	0	0	768	199	0	0	
12	0	0	0	0	0	0	766	200	0	0	
13	0	0	0	0	0	0	765	202	0	0	
14	0	0	0	0	0	0	767	204	0	0	
15	0	0	0	0	0	0	770	207	0	0	
0	0	0	0	0	0	0	775	208	0	0	
1	0	0	0	0	0	0	782	209	0	0	
2	0	0	0	0	0	0	789	210	0	0	
3	0	0	0	0	0	0	798	211	0	0	
4	0	0	0	0	0	0	806	210	0	0	
5	0	0	0	0	0	0	815	211	0	0	
6	0	0	0	0	0	0	822	211	0	0	
7	0	0	0	0	0	0	830	211	0	0	
8	0	0	0	0	0	0	836	211	0	0	
9	0	0	0	0	0	0	842	212	0	0	
10	0	0	0	0	0	0	848	212	0	0	
11	0	0	0	0	0	0	852	213	0	0	
12	0	0	0	0	0	0	857	214	0	0	
13	0	0	0	0	0	0	862	216	0	0	
14	0	0	0	0	0	0	867	218	0	0	
15	0	0	0	0	0	0	874	220	0	0	
0	0	0	0	0	0	0	880	222	0	0	
1	0	0	0	0	0	0	887	223	0	0	
2	0	0	0	0	0	0	895	224	0	0	
3	0	0	0	0	0	0	902	224	0	0	
4	0	0	0	0	0	0	909	224	0	0	
5	0	0	0	0	0	0	915	223	0	0	
6	0	0	0	0	0	0	920	221	0	0	
7	0	0	0	0	0	0	923	219	0	0	
8	0	0	0	0	0	0	924	216	0	0	
9	0	0	0	0	0	0	923	214	0	0	
10	0	0	0	0	0	0	918	211	0	0	
11	0	0	0	0	0	0	912	209	0	0	
12	0	0	0	0	0	0	904	207	0	0	
13	0	0	0	0	0	0	895	205	0	0	
14	0	0	0	0	0	0	885	204	0	0	
15	0	0	0	0	0	0	875	204	0	0	
0	0	0	0	0	0	0	866	204	0	0	
1	0	0	0	0	0	0	859	204	0	0	
2	0	0	0	0	0	0	853	206	0	0	
3	0	0	0	0	0	0	850	208	0	0	
4	0	0	0	0	0	0	850	210	0	0	
5	0	0	0	0	0	0	852	213	0	0	
6	0	0	0	0	0	0	857	216	0	0	
7	0	0	0	0	0	0	864	220	0	0	
8	0	0	0	0	0	0	874	223	0	0	
9	0	0	0	0	0	0	885	227	0	0	
10	0	0	0	0	0	0	897	231	0	0	
11	0	0	0	0	0	0	909	237	0	0	
12	0	0	0	0	0	0	920	242	0	0	
13	0	0	0	0	0	0	930	248	0	0	
14	0	0	0	0	0	0	938	255	0	0	
15	0	0	0	0	0	0	944	262	0	0	
0	0	0	0	0	0	0	948	270	0	0	
1	0	0	0	0	0	0	950	278	0	0	
2	0	0	0	0	0	0	948	286	0	0	
3	0	0	0	0	0	0	946	294	0	0	
4	0	0	0	0	0	0	942	301	0	0	
5	0	0	0	0	0	0	936	307	0	0	
6	0	0	0	0	0	0	929	313	0	0	
7	0	0	0	0	0	0	923	317	0	0	
8	0	0	0	0	0	0	916	319	0	0	
9	0	0	0	0	0	0	910	320	0	0	
10	0	0	0	0	0	0	905	320	0	0	
11	0	0	0	0	0	0	901	319	0	0	
12	0	0	0	0	0	0	899	317	0	0	
13	0	0	0	0	0	0	899	315	0	0	
14	0	0	0	0	0	0	900	312	0	0	
15	0	0	0	0	0	0	902	310	0	0	
0	0	0	0	0	0	0	905	307	0	0	
1	0	0	0	0	0	0	909	307	0	0	
2	0	0	0	0	0	0	913	307	0	0	
3	0	0	0	0	0	0	918	308	0	0	
4	0	0	0	0	0	0	922	311	0	0	
5	0	0	0	0	0	0	927	315	0	0	
6	0	0	0	0	0	0	931	320	0	0	
7	0	0	0	0	0	0	935	326	0	0	
8	0	0	0	0	0	0	939	333	0	0	
9	0	0	0	0	0	0	942	341	0	0	
10	0	0	0	0	0	0	946	350	0	0	
11	0	0	0	0	0	0	950	358	0	0	
12	0	0	0	0	0	0	954	366	0	0	
13	0	0	0	0	0	0	957	373	0	0	
14	0	0	0	0	0	0	961	378	0	0	
15	0	0	0	0	0	0	964	382	0	0	
0	0	0	0	0	0	0	967	384	0	0	
1	0	0	0	0	0	0	969	383	0	0	
2	0	0	0	0	0	0	970	381	0	0	
3	0	0	0	0	0	0	970	377	0	0	
4	0	0	0	0	0	0	969	372	0	0	
5	0	0	0	0	0	0	967	367	0	0	
6	0	0	0	0	0	0	964	361	0	0	
7	0	0	0	0	0	0	960	357	0	0	
8	0	0	0	0	0	0	956	353	0	0	
9	0	0	0	0	0	0	951	352	0	0	
10	0	0	0	0	0	0	946	351	0	0	
11	0	0	0	0	0	0	941	352	0	0	
12	0	0	0	0	0	0	937	355	0	0	
13	0	0	0	0	0	0	934	359	0	0	
14	0	0	0	0	0	0	933	366	0	0	
15	0	0	0	0	0	0	932	373	0	0	
0	0	0	0	0	0	0	935	381	0	0	
1	0	0	0	0	0	0	937	389	0	0	
2	0	0	0	0	0	0	942	397	0	0	
3	0	0	0	0	0	0	947	406	0	0	
4	0	0	0	0	0	0	954	414	0	0	
5	0	0	0	0	0	0	961	422	0	0	
6	0	0	0	0	0	0	967	429	0	0	
7	0	0	0	0	0	0	973	435	0	0	
8	0	0	0	0	0	0	978	441	0	0	
9	0	0	0	0	0	0	982	447	0	0	
10	0	0	0	0	0	0	984	452	0	0	
11	0	0	0	0	0	0	984	457	0	0	
12	0	0	0	0	0	0	981	462	0	0	
13	0	0	0	0	0	0	977	465	0	0	
14	0	0	0	0	0	0	972	470	0	0	
15	0	0	0	0	0	0	964	473	0	0	
0	0	0	0	0	0	0	958	478	0	0	
1	0	0	0	0	0	0	951	482	0	0	
2	0	0	0	0	0	0	945	487	0	0	
3	0	0	0	0	0	0	941	491	0	0	
4	0	0	0	0	0	0	939	495	0	0	
5	0	0	0	0	0	0	938	499	0	0	
6	0	0	0	0	0	0	940	502	0	0	
7	0	0	0	0	0	0	942	504	0	0	
8	0	0	0	0	0	0	946	504	0	0	
9	0	0	0	0	0	0	951	504	0	0	
10	0	0	0	0	0	0	956	504	0	0	
11	0	0	0	0	0	0	962	503	0	0	
12	0	0	0	0	0	0	968	502	0	0	
13	0	0	0	0	0	0	974	501	0	0	
14	0	0	0	0	0	0	978	501	0	0	
15	0	0	0	0	0	0	980	500	0	0	
0	0	0	0	0	0	0	982	501	0	0	
1	0	0	0	0	0	0	981	502	0	0	
2	0	0	0	0	0	0	979	502	0	0	
3	0	0	0	0	0	0	974	503	0	0	
4	0	0	0	0	0	0	968	503	0	0	
5	0	0	0	0	0	0	959	503	0	0	
6	0	0	0	0	0	0	950	501	0	0	
7	0	0	0	0	0	0	939	498	0	0	
8	0	0	0	0	0	0	927	493	0	0	
9	0	0	0	0	0	0	915	487	0	0	
10	0	0	0	0	0	0	905	480	0	0	
11	0	0	0	0	0	0	896	472	0	0	
12	0	0	0	0	0	0	891	464	0	0	
13	0	0	0	0	0	0	889	457	0	0	
14	0	0	0	0	0	0	889	451	0	0	
15	0	0	0	0	0	0	893	447	0	0	
0	0	0	0	0	0	0	899	445	0	0	
1	0	0	0	0	0	0	908	445	0	0	
2	0	0	0	0	0	0	918	447	0	0	
3	0	0	0	0	0	0	928	451	0	0	
4	0	0	0	0	0	0	939	455	0	0	
5	0	0	0	0	0	0	947	462	0	0	
6	0	0	0	0	0	0	955	468	0	0	
7	0	0	0	0	0	0	961	474	0	0	
8	0	0	0	0	0	0	964	480	0	0	
9	0	0	0	0	0	0	966	486	0	0	
10	0	0	0	0	0	0	967	491	0	0	
11	0	0	0	0	0	0	966	495	0	0	
12	0	0	0	0	0	0	965	497	0	0	
13	0	0	0	0	0	0	963	499	0	0	
14	0	0	0	0	0	0	960	499	0	0	
15	0	0	0	0	0	0	958	498	0	0	
0	0	0	0	0	0	0	954	495	0	0	
1	0	0	0	0	0	0	952	491	0	0	
2	0	0	0	0	0	0	950	487	0	0	
3	0	0	0	0	0	0	948	482	0	0	
4	0	0	0	0	0	0	948	478	0	0	
5	0	0	0	0	0	0	951	476	0	0	
6	0	0	0	0	0	0	953	475	0	0	
7	0	0	0	0	0	0	958	476	0	0	
8	0	0	0	0	0	0	963	478	0	0	
9	0	0	0	0	0	0	968	482	0	0	
10	0	0	0	0	0	0	974	487	0	0	
11	0	0	0	0	0	0	978	492	0	0	
12	0	0	0	0	0	0	982	497	0	0	
13	0	0	0	0	0	0	984	502	0	0	
14	0	0	0	0	0	0	984	505	0	0	
15	0	0	0	0	0	0	982	508	0	0	
0	0	0	0	0	0	0	979	510	0	0	
1	0	0	0	0	0	0	975	509	0	0	
2	0	0	0	0	0	0	970	508	0	0	
3	0	0	0	0	0	0	966	506	0	0	
4	0	0	0	0	0	0	961	502	0	0	
5	0	0	0	0	0	0	958	498	0	0	
6	0	0	0	0	0	0	956	494	0	0	
7	0	0	0	0	0	0	954	489	0	0	
8	0	0	0	0	0	0	953	485	0	0	
9	0	0	0	0	0	0	953	480	0	0	
10	0	0	0	0	0	0	954	477	0	0	
11	0	0	0	0	0	0	955	474	0	0	
12	0	0	0	0	0	0	956	472	0	0	
13	0	0	0	0	0	0	956	470	0	0	
14	0	0	0	0	0	0	957	470	0	0	
15	0	0	0	0	0	0	956	470	0	0	
0	0	0	0	0	0	0	955	470	0	0	
1	0	0	0	0	0	0	952	471	0	0	
2	0	0	0	0	0	0	950	471	0	0	
3	0	0	0	0	0	0	946	472	0	0	
4	0	0	0	0	0	0	941	472	0	0	
5	0	0	0	0	0	0	936	471	0	0	
6	0	0	0	0	0	0	931	470	0	0	
7	0	0	0	0	0	0	925	467	0	0	
8	0	0	0	0	0	0	919	465	0	0	
9	0	0	0	0	0	0	913	461	0	0	
10	0	0	0	0	0	0	906	457	0	0	
11	0	0	0	0	0	0	899	452	0	0	
12	0	0	0	0	0	0	890	447	0	0	
13	0	0	0	0	0	0	881	441	0	0	
14	0	0	0	0	0	0	870	436	0	0	
15	0	0	0	0	0	0	859	432	0	0	
0	0	0	0	0	0	0	847	428	0	0	
1	0	0	0	0	0	0	835	426	0	0	
2	0	0	0	0	0	0	821	423	0	0	
3	0	0	0	0	0	0	809	422	0	0	
4	0	0	0	0	0	0	797	422	0	0	
5	0	0	0	0	0	0	785	423	0	0	
6	0	0	0	0	0	0	776	423	0	0	
7	0	0	0	0	0	0	769	423	0	0	
8	0	0	0	0	0	0	764	424	0	0	
9	0	0	0	0	0	0	761	425	0	0	
10	0	0	0	0	0	0	760	425	0	0	
11	0	0	0	0	0	0	760	425	0	0	
12	0	0	0	0	0	0	761	425	0	0	
13	0	0	0	0	0	0	762	422	0	0	
14	0	0	0	0	0	0	762	419	0	0	
15	0	0	0	0	0	0	762	415	0	0	
0	0	0	0	0	0	0	760	410	0	0	
1	0	0	0	0	0	0	756	405	0	0	
2	0	0	0	0	0	0	753	401	0	0	
3	0	0	0	0	0	0	748	396	0	0	
4	0	0	0	0	0	0	742	393	0	0	
5	0	0	0	0	0	0	734	391	0	0	
6	0	0	0	0	0	0	726	388	0	0	
7	0	0	0	0	0	0	716	387	0	0	
8	0	0	0	0	0	0	706	385	0	0	
9	0	0	0	0	0	0	696	385	0	0	
10	0	0	0	0	0	0	686	384	0	0	
11	0	0	0	0	0	0	678	383	0	0	
12	0	0	0	0	0	0	670	383	0	0	
13	0	0	0	0	0	0	665	382	0	0	
14	0	0	0	0	0	0	661	381	0	0	
15	0	0	0	0	0	0	660	380	0	0	
0	0	0	0	0	0	0	661	380	0	0	
1	0	0	0	0	0	0	664	379	0	0	
2	0	0	0	0	0	0	668	379	0	0	
3	0	0	0	0	0	0	674	379	0	0	
4	0	0	0	0	0	0	681	380	0	0	
5	0	0	0	0	0	0	687	382	0	0	
6	0	0	0	0	0	0	692	383	0	0	
7	0	0	0	0	0	0	696	384	0	0	
8	0	0	0	0	0	0	697	384	0	0	
9	0	0	0	0	0	0	695	384	0	0	
10	0	0	0	0	0	0	690	383	0	0	
11	0	0	0	0	0	0	683	380	0	0	
12	0	0	0	0	0	0	673	377	0	0	
13	0	0	0	0	0	0	663	374	0	0	
14	0	0	0	0	0	0	652	369	0	0	
15	0	0	0	0	0	0	641	365	0	0	
0	0	0	0	0	0	0	631	359	0	0	
1	0	0	0	0	0	0	623	354	0	0	
2	0	0	0	0	0	0	616	348	0	0	
3	0	0	0	0	0	0	612	343	0	0	
4	0	0	0	0	0	0	611	338	0	0	
5	0	0	0	0	0	0	611	332	0	0	
6	0	0	0	0	0	0	613	327	0	0	
7	0	0	0	0	0	0	617	322	0	0	
8	0	0	0	0	0	0	621	318	0	0	
9	0	0	0	0	0	0	625	315	0	0	
10	0	0	0	0	0	0	629	312	0	0	
11	0	0	0	0	0	0	633	311	0	0	
12	0	0	0	0	0	0	635	311	0	0	
13	0	0	0	0	0	0	635	313	0	0	
14	0	0	0	0	0	0	633	315	0	0	
15	0	0	0	0	0	0	630	317	0	0	
0	0	0	0	0	0	0	625	320	0	0	
1	0	0	0	0	0	0	619	323	0	0	
2	0	0	0	0	0	0	612	326	0	0	
3	0	0	0	0	0	0	605	329	0	0	
4	0	0	0	0	0	0	599	332	0	0	
5	0	0	0	0	0	0	594	335	0	0	
6	0	0	0	0	0	0	591	339	0	0	
7	0	0	0	0	0	0	591	343	0	0	
8	0	0	0	0	0	0	591	346	0	0	
9	0	0	0	0	0	0	595	350	0	0	
10	0	0	0	0	0	0	600	353	0	0	
11	0	0	0	0	0	0	605	355	0	0	
12	0	0	0	0	0	0	609	355	0	0	
13	0	0	0	0	0	0	612	354	0	0	
14	0	0	0	0	0	0	615	352	0	0	
15	0	0	0	0	0	0	614	348	0	0	
0	0	0	0	0	0	0	612	344	0	0	
1	0	0	0	0	0	0	609	340	0	0	
2	0	0	0	0	0	0	604	336	0	0	
3	0	0	0	0	0	0	599	332	0	0	
4	0	0	0	0	0	0	594	329	0	0	
5	0	0	0	0	0	0	589	327	0	0	
6	0	0	0	0	0	0	585	327	0	0	
7	0	0	0	0	0	0	583	327	0	0	
8	0	0	0	0	0	0	583	327	0	0	
9	0	0	0	0	0	0	583	329	0	0	
10	0	0	0	0	0	0	585	331	0	0	
11	0	0	0	0	0	0	589	332	0	0	
12	0	0	0	0	0	0	591	331	0	0	
13	0	0	0	0	0	0	595	329	0	0	
14	0	0	0	0	0	0	600	326	0	0	
15	0	0	0	0	0	0	604	322	0	0	
0	0	0	0	0	0	0	608	317	0	0	
1	0	0	0	0	0	0	613	312	0	0	
2	0	0	0	0	0	0	620	306	0	0	
3	0	0	0	0	0	0	627	300	0	0	
4	0	0	0	0	0	0	635	296	0	0	
5	0	0	0	0	0	0	643	292	0	0	
6	0	0	0	0	0	0	652	289	0	0	
7	0	0	0	0	0	0	662	287	0	0	
8	0	0	0	0	0	0	672	286	0	0	
9	0	0	0	0	0	0	682	286	0	0	
10	0	0	0	0	0	0	692	288	0	0	
11	0	0	0	0	0	0	703	290	0	0	
12	0	0	0	0	0	0	714	292	0	0	
13	0	0	0	0	0	0	725	294	0	0	
14	0	0	0	0	0	0	736	296	0	0	
15	0	0	0	0	0	0	747	297	0	0	
0	0	0	0	0	0	0	758	298	0	0	
1	0	0	0	0	0	0	769	299	0	0	
2	0	0	0	0	0	0	780	297	0	0	
3	0	0	0	0	0	0	790	297	0	0	
4	0	0	0	0	0	0	801	296	0	0	
5	0	0	0	0	0	0	813	295	0	0	
6	0	0	0	0	0	0	825	296	0	0	
7	0	0	0	0	0	0	837	298	0	0	
8	0	0	0	0	0	0	849	301	0	0	
9	0	0	0	0	0	0	862	305	0	0	
10	0	0	0	0	0	0	874	310	0	0	
11	0	0	0	0	0	0	885	315	0	0	
12	0	0	0	0	0	0	896	319	0	0	
13	0	0	0	0	0	0	905	322	0	0	
14	0	0	0	0	0	0	914	325	0	0	
15	0	0	0	0	0	0	923	326	0	0	
0	0	0	0	0	0	0	930	326	0	0	
1	0	0	0	0	0	0	936	325	0	0	
2	0	0	0	0	0	0	942	323	0	0	
3	0	0	0	0	0	0	947	319	0	0	
4	0	0	0	0	0	0	950	313	0	0	
5	0	0	0	0	0	0	954	307	0	0	
6	0	0	0	0	0	0	957	300	0	0	
7	0	0	0	0	0	0	960	292	0	0	
8	0	0	0	0	0	0	962	284	0	0	
9	0	0	0	0	0	0	963	277	0	0	
10	0	0	0	0	0	0	966	270	0	0	
11	0	0	0	0	0	0	968	264	0	0	
12	0	0	0	0	0	0	970	259	0	0	
13	0	0	0	0	0	0	972	255	0	0	
14	0	0	0	0	0	0	974	252	0	0	
15	0	0	0	0	0	0	977	250	0	0	
0	0	0	0	0	0	0	980	248	0	0	
1	0	0	0	0	0	0	983	247	0	0	
2	0	0	0	0	0	0	988	246	0	0	
3	0	0	0	0	0	0	992	246	0	0	
4	0	0	0	0	0	0	999	245	0	0	
5	0	0	0	0	0	0	1007	243	0	0	
6	0	0	0	0	0	0	1014	242	0	0	
7	0	0	0	0	0	0	1020	239	0	0	
8	0	0	0	0	0	0	1020	236	0	0	
9	0	0	0	0	0	0	1021	232	0	0	
10	0	0	0	0	0	0	1020	228	0	0	
11	0	0	0	0	0	0	1020	224	0	0	
12	0	0	0	0	0	0	1020	219	0	0	
13	0	0	0	0	0	0	1020	214	0	0	
14	0	0	0	0	0	0	1020	208	0	0	
15	0	0	0	0	0	0	1020	203	0	0	
0	0	0	0	0	0	0	1021	197	0	0	
1	0	0	0	0	0	0	1021	191	0	0	
2	0	0	0	0	0	0	1020	186	0	0	
3	0	0	0	0	0	0	1020	180	0	0	
4	0	0	0	0	0	0	1020	175	0	0	
5	0	0	0	0	0	0	1021	170	0	0	
6	0	0	0	0	0	0	1020	167	0	0	
7	0	0	0	0	0	0	1021	163	0	0	
8	0	0	0	0	0	0	1020	160	0	0	
9	0	0	0	0	0	0	1021	158	0	0	
10	0	0	0	0	0	0	1021	156	0	0	
11	0	0	0	0	0	0	1021	153	0	0	
12	0	0	0	0	0	0	1020	151	0	0	
13	0	0	0	0	0	0	1020	148	0	0	
14	0	0	0	0	0	0	1021	145	0	0	
15	0	0	0	0	0	0	1021	143	0	0	
0	0	0	0	0	0	0	1021	141	0	0	
1	0	0	0	0	0	0	1021	139	0	0	
2	0	0	0	0	0	0	1021	137	0	0	
3	0	0	0	0	0	0	1020	137	0	0	
4	0	0	0	0	0	0	1021	136	0	0	
5	0	0	0	0	0	0	1021	137	0	0	
6	0	0	0	0	0	0	1020	137	0	0	
7	0	0	0	0	0	0	1020	137	0	0	
8	0	0	0	0	0	0	1021	136	0	0	
9	0	0	0	0	0	0	1021	135	0	0	
10	0	0	0	0	0	0	1021	134	0	0	
11	0	0	0	0	0	0	1021	130	0	0	
12	0	0	0	0	0	0	1020	125	0	0	
13	0	0	0	0	0	0	1021	118	0	0	
14	0	0	0	0	0	0	1021	110	0	0	
15	0	0	0	0	0	0	1021	100	0	0	
0	0	0	0	0	0	0	1021	90	0	0	
1	0	0	0	0	0	0	1020	79	0	0	
2	0	0	0	0	0	0	1020	67	0	0	
3	0	0	0	0	0	0	1021	55	0	0	
4	0	0	0	0	0	0	1021	44	0	0	
5	0	0	0	0	0	0	1020	33	0	0	
6	0	0	0	0	0	0	1020	23	0	0	
7	0	0	0	0	0	0	1021	15	0	0	
8	0	0	0	0	0	0	1021	10	0	0	
9	0	0	0	0	0	0	1021	7	0	0	
10	0	0	0	0	0	0	1020	9	0	0	
11	0	0	0	0	0	0	1020	12	0	0	
12	0	0	0	0	0	0	1021	15	0	0	
13	0	0	0	0	0	0	1021	20	0	0	
14	0	0	0	0	0	0	1021	24	0	0	
15	0	0	0	0	0	0	1021	27	0	0	
0	0	0	0	0	0	0	1020	29	0	0	
1	0	0	0	0	0	0	1021	29	0	0	
2	0	0	0	0	0	0	1020	27	0	0	
3	0	0	0	0	0	0	1021	25	0	0	
4	0	0	0	0	0	0	1021	23	0	0	
5	0	0	0	0	0	0	1021	21	0	0	
6	0	0	0	0	0	0	1021	21	0	0	
7	0	0	0	0	0	0	1021	22	0	0	
8	0	0	0	0	0	0	1021	25	0	0	
9	0	0	0	0	0	0	1020	30	0	0	
10	0	0	0	0	0	0	1020	37	0	0	
11	0	0	0	0	0	0	1020	44	0	0	
12	0	0	0	0	0	0	1021	52	0	0	
13	0	0	0	0	0	0	1021	62	0	0	
14	0	0	0	0	0	0	1020	71	0	0	
15	0	0	0	0	0	0	1020	79	0	0	
0	0	0	0	0	0	0	1021	86	0	0	
1	0	0	0	0	0	0	1021	91	0	0	
2	0	0	0	0	0	0	1021	96	0	0	
3	0	0	0	0	0	0	1020	99	0	0	
4	0	0	0	0	0	0	1020	100	0	0	
5	0	0	0	0	0	0	1021	100	0	0	
6	0	0	0	0	0	0	1021	99	0	0	
7	0	0	0	0	0	0	1021	98	0	0	
8	0	0	0	0	0	0	1021	97	0	0	
9	0	0	0	0	0	0	1020	96	0	0	
10	0	0	0	0	0	0	1020	94	0	0	
11	0	0	0	0	0	0	1021	93	0	0	
12	0	0	0	0	0	0	1021	93	0	0	
13	0	0	0	0	0	0	1021	92	0	0	
14	0	0	0	0	0	0	1020	91	0	0	
15	0	0	0	0	0	0	1021	91	0	0	
0	0	0	0	0	0	0	1021	90	0	0	
1	0	0	0	0	0	0	1020	91	0	0	
2	0	0	0	0	0	0	1021	90	0	0	
3	0	0	0	0	0	0	1020	90	0	0	
4	0	0	0	0	0	0	1021	89	0	0	
5	0	0	0	0	0	0	1021	88	0	0	
6	0	0	0	0	0	0	1021	86	0	0	
7	0	0	0	0	0	0	1020	84	0	0	
8	0	0	0	0	0	0	1021	81	0	0	
9	0	0	0	0	0	0	1020	79	0	0	
10	0	0	0	0	0	0	1021	76	0	0	
11	0	0	0	0	0	0	1021	73	0	0	
12	0	0	0	0	0	0	1021	71	0	0	
13	0	0	0	0	0	0	1020	69	0	0	
14	0	0	0	0	0	0	1021	69	0	0	
15	0	0	0	0	0	0	1021	70	0	0	
0	0	0	0	0	0	0	1021	71	0	0	
1	0	0	0	0	0	0	1020	75	0	0	
2	0	0	0	0	0	0	1020	78	0	0	
3	0	0	0	0	0	0	1021	82	0	0	
4	0	0	0	0	0	0	1020	85	0	0	
5	0	0	0	0	0	0	1021	88	0	0	
6	0	0	0	0	0	0	1021	88	0	0	
7	0	0	0	0	0	0	1021	86	0	0	
8	0	0	0	0	0	0	1020	83	0	0	
9	0	0	0	0	0	0	1021	77	0	0	
10	0	0	0	0	0	0	1021	70	0	0	
11	0	0	0	0	0	0	1020	62	0	0	
12	0	0	0	0	0	0	1020	53	0	0	
13	0	0	0	0	0	0	1021	44	0	0	
14	0	0	0	0	0	0	1021	37	0	0	
15	0	0	0	0	0	0	1021	31	0	0	
0	0	0	0	0	0	0	1021	28	0	0	
1	0	0	0	0	0	0	1021	26	0	0	
2	0	0	0	0	0	0	1021	27	0	0	
3	0	0	0	0	0	0	1021	29	0	0	
4	0	0	0	0	0	0	1020	33	0	0	
5	0	0	0	0	0	0	1020	39	0	0	
6	0	0	0	0	0	0	1020	46	0	0	
7	0	0	0	0	0	0	1021	53	0	0	
8	0	0	0	0	0	0	1021	60	0	0	
9	0	0	0	0	0	0	1020	67	0	0	
10	0	0	0	0	0	0	1020	74	0	0	
11	0	0	0	0	0	0	1020	80	0	0	
12	0	0	0	0	0	0	1021	85	0	0	
13	0	0	0	0	0	0	1021	89	0	0	
14	0	0	0	0	0	0	1021	91	0	0	
15	0	0	0	0	0	0	1021	92	0	0	
0	0	0	0	0	0	0	1020	92	0	0	
1	0	0	0	0	0	0	1020	90	0	0	
2	0	0	0	0	0	0	1021	87	0	0	
3	0	0	0	0	0	0	1021	83	0	0	
4	0	0	0	0	0	0	1021	78	0	0	
5	0	0	0	0	0	0	1020	72	0	0	
6	0	0	0	0	0	0	1021	65	0	0	
7	0	0	0	0	0	0	1021	60	0	0	
8	0	0	0	0	0	0	1021	55	0	0	
9	0	0	0	0	0	0	1021	50	0	0	
10	0	0	0	0	0	0	1020	46	0	0	
11	0	0	0	0	0	0	1021	43	0	0	
12	0	0	0	0	0	0	1021	42	0	0	
13	0	0	0	0	0	0	1021	43	0	0	
14	0	0	0	0	0	0	1020	46	0	0	
15	0	0	0	0	0	0	1020	49	0	0	
0	0	0	0	0	0	0	1021	53	0	0	
1	0	0	0	0	0	0	1021	59	0	0	
2	0	0	0	0	0	0	1020	65	0	0	
3	0	0	0	0	0	0	1020	70	0	0	
4	0	0	0	0	0	0	1020	75	0	0	
5	0	0	0	0	0	0	1021	79	0	0	
6	0	0	0	0	0	0	1021	82	0	0	
7	0	0	0	0	0	0	1021	84	0	0	
8	0	0	0	0	0	0	1020	85	0	0	
9	0	0	0	0	0	0	1020	83	0	0	
10	0	0	0	0	0	0	1020	80	0	0	
11	0	0	0	0	0	0	1021	77	0	0	
12	0	0	0	0	0	0	1020	73	0	0	
13	0	0	0	0	0	0	1021	69	0	0	
14	0	0	0	0	0	0	1020	64	0	0	
15	0	0	0	0	0	0	1021	60	0	0	
0	0	0	0	0	0	0	1021	56	0	0	
1	0	0	0	0	0	0	1021	52	0	0	
2	0	0	0	0	0	0	1021	47	0	0	
3	0	0	0	0	0	0	1020	42	0	0	
4	0	0	0	0	0	0	1020	36	0	0	
5	0	0	0	0	0	0	1021	29	0	0	
6	0	0	0	0	0	0	1020	21	0	0	
7	0	0	0	0	0	0	1020	11	0	0	
8	0	0	0	0	0	0	1013	0	0	0	
9	0	0	0	0	0	0	998	0	0	0	
10	0	0	0	0	0	0	978	0	0	0	
11	0	0	0	0	0	0	957	0	0	0	
12	0	0	0	0	0	0	936	0	0	0	
13	0	0	0	0	0	0	918	0	0	0	
14	0	0	0	0	0	0	904	0	0	0	
15	0	0	0	0	0	0	895	0	0	0	
0	0	0	0	0	0	0	892	0	0	0	
1	0	0	0	0	0	0	895	0	0	0	
2	0	0	0	0	0	0	903	0	0	0	
3	0	0	0	0	0	0	918	0	0	0	
4	0	0	0	0	0	0	936	0	0	0	
5	0	0	0	0	0	0	957	0	0	0	
6	0	0	0	0	0	0	982	0	0	0	
7	0	0	0	0	0	0	1006	0	0	0	
8	0	0	0	0	0	0	1020	5	0	0	
9	0	0	0	0	0	0	1020	15	0	0	
10	0	0	0	0	0	0	1020	29	0	0	
11	0	0	0	0	0	0	1020	45	0	0	
12	0	0	0	0	0	0	1020	61	0	0	
13	0	0	0	0	0	0	1020	75	0	0	
14	0	0	0	0	0	0	1020	88	0	0	
15	0	0	0	0	0	0	1021	98	0	0	
0	0	0	0	0	0	0	1021	103	0	0	
1	0	0	0	0	0	0	1020	105	0	0	
2	0	0	0	0	0	0	1020	103	0	0	
3	0	0	0	0	0	0	1021	98	0	0	
4	0	0	0	0	0	0	1021	91	0	0	
5	0	0	0	0	0	0	1020	82	0	0	
6	0	0	0	0	0	0	1020	73	0	0	
7	0	0	0	0	0	0	1021	64	0	0	
8	0	0	0	0	0	0	1021	56	0	0	
9	0	0	0	0	0	0	1020	51	0	0	
10	0	0	0	0	0	0	1021	46	0	0	
11	0	0	0	0	0	0	1020	44	0	0	
12	0	0	0	0	0	0	1021	43	0	0	
13	0	0	0	0	0	0	1020	43	0	0	
14	0	0	0	0	0	0	1020	45	0	0	
15	0	0	0	0	0	0	1021	46	0	0	
0	0	0	0	0	0	0	1020	48	0	0	
1	0	0	0	0	0	0	1020	48	0	0	
2	0	0	0	0	0	0	1020	48	0	0	
3	0	0	0	0	0	0	1020	48	0	0	
4	0	0	0	0	0	0	1020	45	0	0	
5	0	0	0	0	0	0	1020	43	0	0	
6	0	0	0	0	0	0	1020	39	0	0	
7	0	0	0	0	0	0	1020	35	0	0	
8	0	0	0	0	0	0	1015	33	0	0	
9	0	0	0	0	0	0	1007	31	0	0	
10	0	0	0	0	0	0	1000	31	0	0	
11	0	0	0	0	0	0	992	33	0	0	
12	0	0	0	0	0	0	986	36	0	0	
13	0	0	0	0	0	0	981	42	0	0	
14	0	0	0	0	0	0	979	48	0	0	
15	0	0	0	0	0	0	977	55	0	0	
0	0	0	0	0	0	0	978	62	0	0	
1	0	0	0	0	0	0	981	69	0	0	
2	0	0	0	0	0	0	985	76	0	0	
3	0	0	0	0	0	0	992	81	0	0	
4	0	0	0	0	0	0	998	86	0	0	
5	0	0	0	0	0	0	1005	88	0	0	
6	0	0	0	0	0	0	1012	90	0	0	
7	0	0	0	0	0	0	1019	90	0	0	
8	0	0	0	0	0	0	1020	88	0	0	
9	0	0	0	0	0	0	1020	85	0	0	
10	0	0	0	0	0	0	1020	80	0	0	
11	0	0	0	0	0	0	1020	75	0	0	
12	0	0	0	0	0	0	1020	69	0	0	
13	0	0	0	0	0	0	1020	63	0	0	
14	0	0	0	0	0	0	1020	58	0	0	
15	0	0	0	0	0	0	1020	53	0	0	
0	0	0	0	0	0	0	1019	50	0	0	
1	0	0	0	0	0	0	1016	48	0	0	
2	0	0	0	0	0	0	1013	47	0	0	
3	0	0	0	0	0	0	1009	48	0	0	
4	0	0	0	0	0	0	1006	49	0	0	
5	0	0	0	0	0	0	1003	52	0	0	
6	0	0	0	0	0	0	999	55	0	0	
7	0	0	0	0	0	0	996	58	0	0	
8	0	0	0	0	0	0	994	61	0	0	
9	0	0	0	0	0	0	992	63	0	0	
10	0	0	0	0	0	0	990	65	0	0	
11	0	0	0	0	0	0	989	65	0	0	
12	0	0	0	0	0	0	988	65	0	0	
13	0	0	0	0	0	0	988	65	0	0	
14	0	0	0	0	0	0	988	63	0	0	
15	0	0	0	0	0	0	988	62	0	0	
0	0	0	0	0	0	0	987	61	0	0	
1	0	0	0	0	0	0	986	60	0	0	
2	0	0	0	0	0	0	983	58	0	0	
3	0	0	0	0	0	0	980	57	0	0	
4	0	0	0	0	0	0	975	56	0	0	
5	0	0	0	0	0	0	968	56	0	0	
6	0	0	0	0	0	0	960	55	0	0	
7	0	0	0	0	0	0	951	54	0	0	
8	0	0	0	0	0	0	942	54	0	0	
9	0	0	0	0	0	0	935	54	0	0	
10	0	0	0	0	0	0	929	56	0	0	
11	0	0	0	0	0	0	925	58	0	0	
12	0	0	0	0	0	0	923	61	0	0	
13	0	0	0	0	0	0	923	64	0	0	
14	0	0	0	0	0	0	925	69	0	0	
15	0	0	0	0	0	0	929	75	0	0	
0	0	0	0	0	0	0	935	79	0	0	
1	0	0	0	0	0	0	940	84	0	0	
2	0	0	0	0	0	0	946	88	0	0	
3	0	0	0	0	0	0	950	91	0	0	
4	0	0	0	0	0	0	952	93	0	0	
5	0	0	0	0	0	0	954	94	0	0	
6	0	0	0	0	0	0	952	94	0	0	
7	0	0	0	0	0	0	950	93	0	0	
8	0	0	0	0	0	0	944	92	0	0	
9	0	0	0	0	0	0	938	93	0	0	
10	0	0	0	0	0	0	930	95	0	0	
11	0	0	0	0	0	0	921	99	0	0	
12	0	0	0	0	0	0	912	105	0	0	
13	0	0	0	0	0	0	903	115	0	0	
14	0	0	0	0	0	0	895	127	0	0	
15	0	0	0	0	0	0	887	142	0	0	
0	0	0	0	0	0	0	880	159	0	0	
1	0	0	0	0	0	0	874	177	0	0	
2	0	0	0	0	0	0	870	196	0	0	
3	0	0	0	0	0	0	867	216	0	0	
4	0	0	0	0	0	0	865	238	0	0	
5	0	0	0	0	0	0	866	261	0	0	
6	0	0	0	0	0	0	868	284	0	0	
7	0	0	0	0	0	0	872	308	0	0	
8	0	0	0	0	0	0	878	332	0	0	
9	0	0	0	0	0	0	883	356	0	0	
10	0	0	0	0	0	0	888	380	0	0	
11	0	0	0	0	0	0	892	403	0	0	
12	0	0	0	0	0	0	894	424	0	0	
13	0	0	0	0	0	0	893	443	0	0	
14	0	0	0	0	0	0	889	460	0	0	
15	0	0	0	0	0	0	883	475	0	0	
0	0	0	0	0	0	0	874	487	0	0	
1	0	0	0	0	0	0	864	497	0	0	
2	0	0	0	0	0	0	853	505	0	0	
3	0	0	0	0	0	0	841	512	0	0	
4	0	0	0	0	0	0	831	518	0	0	
5	0	0	0	0	0	0	821	524	0	0	
6	0	0	0	0	0	0	814	530	0	0	
7	0	0	0	0	0	0	809	536	0	0	
8	0	0	0	0	0	0	807	544	0	0	
9	0	0	0	0	0	0	809	554	0	0	
10	0	0	0	0	0	0	814	566	0	0	
11	0	0	0	0	0	0	822	580	0	0	
12	0	0	0	0	0	0	833	596	0	0	
13	0	0	0	0	0	0	846	614	0	0	
14	0	0	0	0	0	0	859	634	0	0	
15	0	0	0	0	0	0	872	655	0	0	
0	0	0	0	0	0	0	883	676	0	0	
1	0	0	0	0	0	0	892	698	0	0	
2	0	0	0	0	0	0	897	718	0	0	
3	0	0	0	0	0	0	900	736	0	0	
4	0	0	0	0	0	0	898	753	0	0	
5	0	0	0	0	0	0	892	766	0	0	
6	0	0	0	0	0	0	884	776	0	0	
7	0	0	0	0	0	0	873	782	0	0	
8	0	0	0	0	0	0	860	786	0	0	
9	0	0	0	0	0	0	847	787	0	0	
10	0	0	0	0	0	0	836	786	0	0	
11	0	0	0	0	0	0	826	784	0	0	
12	0	0	0	0	0	0	819	783	0	0	
13	0	0	0	0	0	0	816	783	0	0	
14	0	0	0	0	0	0	816	785	0	0	
15	0	0	0	0	0	0	820	790	0	0	
0	0	0	0	0	0	0	827	797	0	0	
1	0	0	0	0	0	0	836	807	0	0	
2	0	0	0	0	0	0	845	817	0	0	
3	0	0	0	0	0	0	853	829	0	0	
4	0	0	0	0	0	0	861	842	0	0	
5	0	0	0	0	0	0	865	854	0	0	
6	0	0	0	0	0	0	867	865	0	0	
7	0	0	0	0	0	0	866	876	0	0	
8	0	0	0	0	0	0	860	884	0	0	
9	0	0	0	0	0	0	853	892	0	0	
10	0	0	0	0	0	0	843	896	0	0	
11	0	0	0	0	0	0	832	899	0	0	
12	0	0	0	0	0	0	822	900	0	0	
13	0	0	0	0	0	0	812	902	0	0	
14	0	0	0	0	0	0	803	902	0	0	
15	0	0	0	0	0	0	798	903	0	0	
0	0	0	0	0	0	0	795	905	0	0	
1	0	0	0	0	0	0	794	908	0	0	
2	0	0	0	0	0	0	796	912	0	0	
3	0	0	0	0	0	0	799	918	0	0	
4	0	0	0	0	0	0	803	925	0	0	
5	0	0	0	0	0	0	808	933	0	0	
6	0	0	0	0	0	0	814	943	0	0	
7	0	0	0	0	0	0	819	955	0	0	
8	0	0	0	0	0	0	823	967	0	0	
9	0	0	0	0	0	0	825	978	0	0	
10	0	0	0	0	0	0	825	990	0	0	
11	0	0	0	0	0	0	825	1000	0	0	
12	0	0	0	0	0	0	822	1010	0	0	
13	0	0	0	0	0	0	817	1019	0	0	
14	0	0	0	0	0	0	812	1021	0	0	
15	0	0	0	0	0	0	807	1020	0	0	
0	0	0	0	0	0	0	801	1021	0	0	
1	0	0	0	0	0	0	796	1021	0	0	
2	0	0	0	0	0	0	792	1021	0	0	
3	0	0	0	0	0	0	790	1021	0	0	
4	0	0	0	0	0	0	789	1021	0	0	
5	0	0	0	0	0	0	791	1021	0	0	
6	0	0	0	0	0	0	794	1021	0	0	
7	0	0	0	0	0	0	798	1021	0	0	
8	0	0	0	0	0	0	802	1021	0	0	
9	0	0	0	0	0	0	807	1021	0	0	
10	0	0	0	0	0	0	811	1021	0	0	
11	0	0	0	0	0	0	814	1021	0	0	
12	0	0	0	0	0	0	817	1021	0	0	
13	0	0	0	0	0	0	819	1021	0	0	
14	0	0	0	0	0	0	820	1021	0	0	
15	0	0	0	0	0	0	820	1021	0	0	
0	0	0	0	0	0	0	820	1021	0	0	
1	0	0	0	0	0	0	818	1021	0	0	
2	0	0	0	0	0	0	817	1021	0	0	
3	0	0	0	0	0	0	815	1021	0	0	
4	0	0	0	0	0	0	814	1021	0	0	
5	0	0	0	0	0	0	811	1021	0	0	
6	0	0	0	0	0	0	810	1021	0	0	
7	0	0	0	0	0	0	809	1021	0	0	
8	0	0	0	0	0	0	808	1021	0	0	
9	0	0	0	0	0	0	810	1021	0	0	
10	0	0	0	0	0	0	812	1021	0	0	
11	0	0	0	0	0	0	814	1021	0	0	
12	0	0	0	0	0	0	817	1021	0	0	
13	0	0	0	0	0	0	820	1021	0	0	
14	0	0	0	0	0	0	824	1021	0	0	
15	0	0	0	0	0	0	827	1021	0	0	
0	0	0	0	0	0	0	829	1021	0	0	
1	0	0	0	0	0	0	831	1021	0	0	
2	0	0	0	0	0	0	832	1021	0	0	
3	0	0	0	0	0	0	834	1021	0	0	
4	0	0	0	0	0	0	834	1021	0	0	
5	0	0	0	0	0	0	833	1021	0	0	
6	0	0	0	0	0	0	832	1021	0	0	
7	0	0	0	0	0	0	830	1021	0	0	
8	0	0	0	0	0	0	830	1021	0	0	
9	0	0	0	0	0	0	828	1021	0	0	
10	0	0	0	0	0	0	827	1021	0	0	
11	0	0	0	0	0	0	827	1021	0	0	
12	0	0	0	0	0	0	827	1021	0	0	
13	0	0	0	0	0	0	828	1021	0	0	
14	0	0	0	0	0	0	829	1021	0	0	
15	0	0	0	0	0	0	831	1021	0	0	
0	0	0	0	0	0	0	831	1021	0	0	
1	0	0	0	0	0	0	830	1021	0	0	
2	0	0	0	0	0	0	830	1021	0	0	
3	0	0	0	0	0	0	827	1021	0	0	
4	0	0	0	0	0	0	822	1021	0	0	
5	0	0	0	0	0	0	817	1021	0	0	
6	0	0	0	0	0	0	812	1021	0	0	
7	0	0	0	0	0	0	805	1021	0	0	
8	0	0	0	0	0	0	799	1021	0	0	
9	0	0	0	0	0	0	794	1021	0	0	
10	0	0	0	0	0	0	790	1021	0	0	
11	0	0	0	0	0	0	788	1021	0	0	
12	0	0	0	0	0	0	787	1021	0	0	
13	0	0	0	0	0	0	787	1021	0	0	
14	0	0	0	0	0	0	789	1021	0	0	
15	0	0	0	0	0	0	792	1021	0	0	
0	0	0	0	0	0	0	796	1021	0	0	
1	0	0	0	0	0	0	800	1021	0	0	
2	0	0	0	0	0	0	805	1021	0	0	
3	0	0	0	0	0	0	810	1021	0	0	
4	0	0	0	0	0	0	815	1021	0	0	
5	0	0	0	0	0	0	819	1021	0	0	
6	0	0	0	0	0	0	824	1021	0	0	
7	0	0	0	0	0	0	826	1021	0	0	
8	0	0	0	0	0	0	827	1021	0	0	
9	0	0	0	0	0	0	825	1021	0	0	
10	0	0	0	0	0	0	822	1021	0	0	
11	0	0	0	0	0	0	816	1021	0	0	
12	0	0	0	0	0	0	809	1021	0	0	
13	0	0	0	0	0	0	800	1021	0	0	
14	0	0	0	0	0	0	791	1021	0	0	
15	0	0	0	0	0	0	782	1021	0	0	
0	0	0	0	0	0	0	774	1021	0	0	
1	0	0	0	0	0	0	767	1021	0	0	
2	0	0	0	0	0	0	763	1021	0	0	
3	0	0	0	0	0	0	760	1021	0	0	
4	0	0	0	0	0	0	761	1020	0	0	
5	0	0	0	0	0	0	765	1021	0	0	
6	0	0	0	0	0	0	771	1021	0	0	
7	0	0	0	0	0	0	780	1021	0	0	
8	0	0	0	0	0	0	790	1021	0	0	
9	0	0	0	0	0	0	800	1021	0	0	
10	0	0	0	0	0	0	810	1021	0	0	
11	0	0	0	0	0	0	819	1021	0	0	
12	0	0	0	0	0	0	825	1021	0	0	
13	0	0	0	0	0	0	829	1021	0	0	
14	0	0	0	0	0	0	830	1021	0	0	
15	0	0	0	0	0	0	828	1021	0	0	
0	0	0	0	0	0	0	824	1021	0	0	
1	0	0	0	0	0	0	819	1021	0	0	
2	0	0	0	0	0	0	811	1021	0	0	
3	0	0	0	0	0	0	802	1021	0	0	
4	0	0	0	0	0	0	794	1021	0	0	
5	0	0	0	0	0	0	786	1021	0	0	
6	0	0	0	0	0	0	780	1021	0	0	
7	0	0	0	0	0	0	775	1021	0	0	
8	0	0	0	0	0	0	773	1021	0	0	
9	0	0	0	0	0	0	772	1021	0	0	
10	0	0	0	0	0	0	773	1021	0	0	
11	0	0	0	0	0	0	775	1021	0	0	
12	0	0	0	0	0	0	777	1021	0	0	
13	0	0	0	0	0	0	780	1021	0	0	
14	0	0	0	0	0	0	781	1021	0	0	
15	0	0	0	0	0	0	782	1021	0	0	
0	0	0	0	0	0	0	783	1021	0	0	
1	0	0	0	0	0	0	784	1021	0	0	
2	0	0	0	0	0	0	784	1021	0	0	
3	0	0	0	0	0	0	785	1021	0	0	
4	0	0	0	0	0	0	787	1021	0	0	
5	0	0	0	0	0	0	788	1021	0	0	
6	0	0	0	0	0	0	790	1021	0	0	
7	0	0	0	0	0	0	791	1021	0	0	
8	0	0	0	0	0	0	793	1021	0	0	
9	0	0	0	0	0	0	793	1021	0	0	
10	0	0	0	0	0	0	792	1021	0	0	
11	0	0	0	0	0	0	791	1021	0	0	
12	0	0	0	0	0	0	787	1021	0	0	
13	0	0	0	0	0	0	785	1021	0	0	
14	0	0	0	0	0	0	781	1021	0	0	
15	0	0	0	0	0	0	777	1021	0	0	
0	0	0	0	0	0	0	773	1021	0	0	
1	0	0	0	0	0	0	770	1021	0	0	
2	0	0	0	0	0	0	767	1021	0	0	
3	0	0	0	0	0	0	763	1021	0	0	
4	0	0	0	0	0	0	760	1021	0	0	
5	0	0	0	0	0	0	756	1021	0	0	
6	0	0	0	0	0	0	753	1021	0	0	
7	0	0	0	0	0	0	750	1021	0	0	
8	0	0	0	0	0	0	747	1021	0	0	
9	0	0	0	0	0	0	745	1021	0	0	
10	0	0	0	0	0	0	744	1021	0	0	
11	0	0	0	0	0	0	744	1021	0	0	
12	0	0	0	0	0	0	745	1021	0	0	
13	0	0	0	0	0	0	747	1021	0	0	
14	0	0	0	0	0	0	750	1021	0	0	
15	0	0	0	0	0	0	753	1021	0	0	
0	0	0	0	0	0	0	757	1021	0	0	
1	0	0	0	0	0	0	760	1021	0	0	
2	0	0	0	0	0	0	764	1021	0	0	
3	0	0	0	0	0	0	765	1021	0	0	
4	0	0	0	0	0	0	766	1021	0	0	
5	0	0	0	0	0	0	765	1021	0	0	
6	0	0	0	0	0	0	762	1021	0	0	
7	0	0	0	0	0	0	759	1021	0	0	
8	0	0	0	0	0	0	753	1021	0	0	
9	0	0	0	0	0	0	748	1021	0	0	
10	0	0	0	0	0	0	741	1021	0	0	
11	0	0	0	0	0	0	735	1021	0	0	
12	0	0	0	0	0	0	730	1021	0	0	
13	0	0	0	0	0	0	726	1021	0	0	
14	0	0	0	0	0	0	723	1021	0	0	
15	0	0	0	0	0	0	722	1021	0	0	
0	0	0	0	0	0	0	723	1021	0	0	
1	0	0	0	0	0	0	726	1021	0	0	
2	0	0	0	0	0	0	730	1021	0	0	
3	0	0	0	0	0	0	736	1021	0	0	
4	0	0	0	0	0	0	742	1021	0	0	
5	0	0	0	0	0	0	749	1021	0	0	
6	0	0	0	0	0	0	757	1021	0	0	
7	0	0	0	0	0	0	764	1021	0	0	
8	0	0	0	0	0	0	771	1021	0	0	
9	0	0	0	0	0	0	777	1021	0	0	
10	0	0	0	0	0	0	781	1021	0	0	
11	0	0	0	0	0	0	783	1021	0	0	
12	0	0	0	0	0	0	784	1021	0	0	
13	0	0	0	0	0	0	782	1021	0	0	
14	0	0	0	0	0	0	778	1021	0	0	
15	0	0	0	0	0	0	773	1021	0	0	
0	0	0	0	0	0	0	767	1021	0	0	
1	0	0	0	0	0	0	760	1021	0	0	
2	0	0	0	0	0	0	755	1021	0	0	
3	0	0	0	0	0	0	751	1021	0	0	
4	0	0	0	0	0	0	748	1021	0	0	
5	0	0	0	0	0	0	748	1021	0	0	
6	0	0	0	0	0	0	749	1021	0	0	
7	0	0	0	0	0	0	752	1021	0	0	
8	0	0	0	0	0	0	756	1021	0	0	
9	0	0	0	0	0	0	760	1021	0	0	
10	0	0	0	0	0	0	764	1021	0	0	
11	0	0	0	0	0	0	768	1021	0	0	
12	0	0	0	0	0	0	769	1021	0	0	
13	0	0	0	0	0	0	770	1021	0	0	
14	0	0	0	0	0	0	768	1021	0	0	
15	0	0	0	0	0	0	766	1021	0	0	
0	0	0	0	0	0	0	762	1021	0	0	
1	0	0	0	0	0	0	758	1021	0	0	
2	0	0	0	0	0	0	753	1021	0	0	
3	0	0	0	0	0	0	749	1021	0	0	
4	0	0	0	0	0	0	744	1021	0	0	
5	0	0	0	0	0	0	739	1021	0	0	
6	0	0	0	0	0	0	735	1021	0	0	
7	0	0	0	0	0	0	731	1021	0	0	
8	0	0	0	0	0	0	729	1021	0	0	
9	0	0	0	0	0	0	728	1021	0	0	
10	0	0	0	0	0	0	729	1021	0	0	
11	0	0	0	0	0	0	731	1021	0	0	
12	0	0	0	0	0	0	733	1021	0	0	
13	0	0	0	0	0	0	736	1021	0	0	
14	0	0	0	0	0	0	739	1021	0	0	
15	0	0	0	0	0	0	741	1021	0	0	
0	0	0	0	0	0	0	743	1021	0	0	
1	0	0	0	0	0	0	743	1021	0	0	
2	0	0	0	0	0	0	743	1021	0	0	
3	0	0	0	0	0	0	743	1021	0	0	
4	0	0	0	0	0	0	741	1021	0	0	
5	0	0	0	0	0	0	739	1021	0	0	
6	0	0	0	0	0	0	738	1021	0	0	
7	0	0	0	0	0	0	738	1021	0	0	
8	0	0	0	0	0	0	738	1021	0	0	
9	0	0	0	0	0	0	739	1021	0	0	
10	0	0	0	0	0	0	740	1021	0	0	
11	0	0	0	0	0	0	742	1021	0	0	
12	0	0	0	0	0	0	744	1021	0	0	
13	0	0	0	0	0	0	747	1021	0	0	
14	0	0	0	0	0	0	750	1021	0	0	
15	0	0	0	0	0	0	753	1021	0	0	
0	0	0	0	0	0	0	756	1021	0	0	
1	0	0	0	0	0	0	760	1021	0	0	
2	0	0	0	0	0	0	763	1021	0	0	
3	0	0	0	0	0	0	766	1021	0	0	
4	0	0	0	0	0	0	769	1021	0	0	
5	0	0	0	0	0	0	772	1021	0	0	
6	0	0	0	0	0	0	774	1021	0	0	
7	0	0	0	0	0	0	775	1021	0	0	
8	0	0	0	0	0	0	775	1021	0	0	
9	0	0	0	0	0	0	774	1021	0	0	
10	0	0	0	0	0	0	771	1020	0	0	
11	0	0	0	0	0	0	768	1021	0	0	
12	0	0	0	0	0	0	764	1021	0	0	
13	0	0	0	0	0	0	760	1021	0	0	
14	0	0	0	0	0	0	756	1021	0	0	
15	0	0	0	0	0	0	754	1020	0	0	
0	0	0	0	0	0	0	753	1021	0	0	
1	0	0	0	0	0	0	754	1021	0	0	
2	0	0	0	0	0	0	757	1021	0	0	
3	0	0	0	0	0	0	763	1021	0	0	
4	0	0	0	0	0	0	769	1019	0	0	
5	0	0	0	0	0	0	777	1016	0	0	
6	0	0	0	0	0	0	786	1011	0	0	
7	0	0	0	0	0	0	795	1004	0	0	
8	0	0	0	0	0	0	804	997	0	0	
9	0	0	0	0	0	0	812	989	0	0	
10	0	0	0	0	0	0	816	981	0	0	
11	0	0	0	0	0	0	819	973	0	0	
12	0	0	0	0	0	0	819	966	0	0	
13	0	0	0	0	0	0	817	959	0	0	
14	0	0	0	0	0	0	811	953	0	0	
15	0	0	0	0	0	0	803	947	0	0	
0	0	0	0	0	0	0	793	942	0	0	
1	0	0	0	0	0	0	782	937	0	0	
2	0	0	0	0	0	0	770	932	0	0	
3	0	0	0	0	0	0	760	928	0	0	
4	0	0	0	0	0	0	751	924	0	0	
5	0	0	0	0	0	0	744	923	0	0	
6	0	0	0	0	0	0	741	922	0	0	
7	0	0	0	0	0	0	742	923	0	0	
8	0	0	0	0	0	0	746	926	0	0	
9	0	0	0	0	0	0	752	930	0	0	
10	0	0	0	0	0	0	760	934	0	0	
11	0	0	0	0	0	0	769	939	0	0	
12	0	0	0	0	0	0	776	942	0	0	
13	0	0	0	0	0	0	783	944	0	0	
14	0	0	0	0	0	0	786	945	0	0	
15	0	0	0	0	0	0	788	946	0	0	
0	0	0	0	0	0	0	787	944	0	0	
1	0	0	0	0	0	0	783	943	0	0	
2	0	0	0	0	0	0	778	939	0	0	
3	0	0	0	0	0	0	771	936	0	0	
4	0	0	0	0	0	0	763	932	0	0	
5	0	0	0	0	0	0	754	929	0	0	
6	0	0	0	0	0	0	746	924	0	0	
7	0	0	0	0	0	0	739	921	0	0	
8	0	0	0	0	0	0	734	918	0	0	
9	0	0	0	0	0	0	731	915	0	0	
10	0	0	0	0	0	0	730	912	0	0	
11	0	0	0	0	0	0	733	911	0	0	
12	0	0	0	0	0	0	736	909	0	0	
13	0	0	0	0	0	0	743	909	0	0	
14	0	0	0	0	0	0	751	909	0	0	
15	0	0	0	0	0	0	758	909	0	0	
0	0	0	0	0	0	0	765	908	0	0	
1	0	0	0	0	0	0	770	907	0	0	
2	0	0	0	0	0	0	774	907	0	0	
3	0	0	0	0	0	0	775	907	0	0	
4	0	0	0	0	0	0	776	906	0	0	
5	0	0	0	0	0	0	775	907	0	0	
6	0	0	0	0	0	0	772	908	0	0	
7	0	0	0	0	0	0	768	909	0	0	
8	0	0	0	0	0	0	763	911	0	0	
9	0	0	0	0	0	0	758	913	0	0	
10	0	0	0	0	0	0	752	915	0	0	
11	0	0	0	0	0	0	746	917	0	0	
12	0	0	0	0	0	0	740	918	0	0	
13	0	0	0	0	0	0	735	919	0	0	
14	0	0	0	0	0	0	731	919	0	0	
15	0	0	0	0	0	0	727	917	0	0	
0	0	0	0	0	0	0	723	914	0	0	
1	0	0	0	0	0	0	720	911	0	0	
2	0	0	0	0	0	0	718	907	0	0	
3	0	0	0	0	0	0	716	903	0	0	
4	0	0	0	0	0	0	715	898	0	0	
5	0	0	0	0	0	0	713	894	0	0	
6	0	0	0	0	0	0	712	890	0	0	
7	0	0	0	0	0	0	710	886	0	0	
8	0	0	0	0	0	0	709	883	0	0	
9	0	0	0	0	0	0	707	881	0	0	
10	0	0	0	0	0	0	706	879	0	0	
11	0	0	0	0	0	0	705	876	0	0	
12	0	0	0	0	0	0	703	875	0	0	
13	0	0	0	0	0	0	703	873	0	0	
14	0	0	0	0	0	0	703	872	0	0	
15	0	0	0	0	0	0	704	871	0	0	
0	0	0	0	0	0	0	706	869	0	0	
1	0	0	0	0	0	0	708	867	0	0	
2	0	0	0	0	0	0	711	864	0	0	
3	0	0	0	0	0	0	713	860	0	0	
4	0	0	0	0	0	0	714	855	0	0	
5	0	0	0	0	0	0	715	848	0	0	
6	0	0	0	0	0	0	714	840	0	0	
7	0	0	0	0	0	0	713	832	0	0	
8	0	0	0	0	0	0	711	824	0	0	
9	0	0	0	0	0	0	708	814	0	0	
10	0	0	0	0	0	0	705	806	0	0	
11	0	0	0	0	0	0	702	797	0	0	
12	0	0	0	0	0	0	698	790	0	0	
13	0	0	0	0	0	0	695	783	0	0	
14	0	0	0	0	0	0	693	778	0	0	
15	0	0	0	0	0	0	690	773	0	0	
0	0	0	0	0	0	0	688	771	0	0	
1	0	0	0	0	0	0	687	769	0	0	
2	0	0	0	0	0	0	686	768	0	0	
3	0	0	0	0	0	0	686	769	0	0	
4	0	0	0	0	0	0	688	770	0	0	
5	0	0	0	0	0	0	689	771	0	0	
6	0	0	0	0	0	0	692	774	0	0	
7	0	0	0	0	0	0	695	776	0	0	
8	0	0	0	0	0	0	700	778	0	0	
9	0	0	0	0	0	0	704	780	0	0	
10	0	0	0	0	0	0	709	782	0	0	
11	0	0	0	0	0	0	714	783	0	0	
12	0	0	0	0	0	0	718	784	0	0	
13	0	0	0	0	0	0	721	784	0	0	
14	0	0	0	0	0	0	723	783	0	0	
15	0	0	0	0	0	0	724	783	0	0	
0	0	0	0	0	0	0	724	783	0	0	
1	0	0	0	0	0	0	723	783	0	0	
2	0	0	0	0	0	0	723	783	0	0	
3	0	0	0	0	0	0	721	783	0	0	
4	0	0	0	0	0	0	720	783	0	0	
5	0	0	0	0	0	0	718	783	0	0	
6	0	0	0	0	0	0	717	782	0	0	
7	0	0	0	0	0	0	717	782	0	0	
8	0	0	0	0	0	0	718	781	0	0	
9	0	0	0	0	0	0	720	780	0	0	
10	0	0	0	0	0	0	724	779	0	0	
11	0	0	0	0	0	0	729	777	0	0	
12	0	0	0	0	0	0	735	775	0	0	
13	0	0	0	0	0	0	740	772	0	0	
14	0	0	0	0	0	0	743	768	0	0	
15	0	0	0	0	0	0	745	762	0	0	
0	0	0	0	0	0	0	746	756	0	0	
1	0	0	0	0	0	0	745	749	0	0	
2	0	0	0	0	0	0	743	742	0	0	
3	0	0	0	0	0	0	740	737	0	0	
4	0	0	0	0	0	0	737	732	0	0	
5	0	0	0	0	0	0	735	729	0	0	
6	0	0	0	0	0	0	733	729	0	0	
7	0	0	0	0	0	0	732	730	0	0	
8	0	0	0	0	0	0	731	732	0	0	
9	0	0	0	0	0	0	731	735	0	0	
10	0	0	0	0	0	0	732	739	0	0	
11	0	0	0	0	0	0	734	743	0	0	
12	0	0	0	0	0	0	736	747	0	0	
13	0	0	0	0	0	0	738	750	0	0	
14	0	0	0	0	0	0	741	753	0	0	
15	0	0	0	0	0	0	744	755	0	0	
0	0	0	0	0	0	0	748	756	0	0	
1	0	0	0	0	0	0	750	756	0	0	
2	0	0	0	0	0	0	752	756	0	0	
3	0	0	0	0	0	0	753	755	0	0	
4	0	0	0	0	0	0	753	754	0	0	
5	0	0	0	0	0	0	753	754	0	0	
6	0	0	0	0	0	0	751	753	0	0	
7	0	0	0	0	0	0	748	752	0	0	
8	0	0	0	0	0	0	745	752	0	0	
9	0	0	0	0	0	0	740	751	0	0	
10	0	0	0	0	0	0	736	751	0	0	
11	0	0	0	0	0	0	731	750	0	0	
12	0	0	0	0	0	0	727	749	0	0	
13	0	0	0	0	0	0	724	749	0	0	
14	0	0	0	0	0	0	722	750	0	0	
15	0	0	0	0	0	0	722	751	0	0	
0	0	0	0	0	0	0	723	752	0	0	
1	0	0	0	0	0	0	726	753	0	0	
2	0	0	0	0	0	0	731	755	0	0	
3	0	0	0	0	0	0	736	756	0	0	
4	0	0	0	0	0	0	740	756	0	0	
5	0	0	0	0	0	0	746	755	0	0	
6	0	0	0	0	0	0	751	754	0	0	
7	0	0	0	0	0	0	755	752	0	0	
8	0	0	0	0	0	0	759	750	0	0	
9	0	0	0	0	0	0	762	747	0	0	
10	0	0	0	0	0	0	766	745	0	0	
11	0	0	0	0	0	0	768	743	0	0	
12	0	0	0	0	0	0	771	743	0	0	
13	0	0	0	0	0	0	774	743	0	0	
14	0	0	0	0	0	0	777	744	0	0	
15	0	0	0	0	0	0	779	745	0	0	
0	0	0	0	0	0	0	780	747	0	0	
1	0	0	0	0	0	0	781	748	0	0	
2	0	0	0	0	0	0	781	749	0	0	
3	0	0	0	0	0	0	780	749	0	0	
4	0	0	0	0	0	0	777	748	0	0	
5	0	0	0	0	0	0	774	745	0	0	
6	0	0	0	0	0	0	771	743	0	0	
7	0	0	0	0	0	0	767	739	0	0	
8	0	0	0	0	0	0	764	733	0	0	
9	0	0	0	0	0	0	760	727	0	0	
10	0	0	0	0	0	0	756	720	0	0	
11	0	0	0	0	0	0	753	712	0	0	
12	0	0	0	0	0	0	750	704	0	0	
13	0	0	0	0	0	0	745	694	0	0	
14	0	0	0	0	0	0	738	683	0	0	
15	0	0	0	0	0	0	731	673	0	0	
0	0	0	0	0	0	0	723	663	0	0	
1	0	0	0	0	0	0	713	652	0	0	
2	0	0	0	0	0	0	703	642	0	0	
3	0	0	0	0	0	0	691	632	0	0	
4	0	0	0	0	0	0	678	622	0	0	
5	0	0	0	0	0	0	665	612	0	0	
6	0	0	0	0	0	0	652	604	0	0	
7	0	0	0	0	0	0	639	596	0	0	
8	0	0	0	0	0	0	628	588	0	0	
9	0	0	0	0	0	0	618	582	0	0	
10	0	0	0	0	0	0	609	575	0	0	
11	0	0	0	0	0	0	604	571	0	0	
12	0	0	0	0	0	0	601	568	0	0	
13	0	0	0	0	0	0	603	568	0	0	
14	0	0	0	0	0	0	608	570	0	0	
15	0	0	0	0	0	0	618	574	0	0	
0	0	0	0	0	0	0	631	581	0	0	
1	0	0	0	0	0	0	647	591	0	0	
2	0	0	0	0	0	0	664	603	0	0	
3	0	0	0	0	0	0	683	616	0	0	
4	0	0	0	0	0	0	702	631	0	0	
5	0	0	0	0	0	0	719	646	0	0	
6	0	0	0	0	0	0	736	661	0	0	
7	0	0	0	0	0	0	750	675	0	0	
8	0	0	0	0	0	0	760	687	0	0	
9	0	0	0	0	0	0	767	696	0	0	
10	0	0	0	0	0	0	771	704	0	0	
11	0	0	0	0	0	0	771	708	0	0	
12	0	0	0	0	0	0	768	708	0	0	
13	0	0	0	0	0	0	763	706	0	0	
14	0	0	0	0	0	0	755	701	0	0	
15	0	0	0	0	0	0	747	695	0	0	
0	0	0	0	0	0	0	738	688	0	0	
1	0	0	0	0	0	0	731	680	0	0	
2	0	0	0	0	0	0	724	674	0	0	
3	0	0	0	0	0	0	721	670	0	0	
4	0	0	0	0	0	0	719	667	0	0	
5	0	0	0	0	0	0	719	666	0	0	
6	0	0	0	0	0	0	723	668	0	0	
7	0	0	0	0	0	0	726	671	0	0	
8	0	0	0	0	0	0	730	676	0	0	
9	0	0	0	0	0	0	734	681	0	0	
10	0	0	0	0	0	0	736	686	0	0	
11	0	0	0	0	0	0	738	691	0	0	
12	0	0	0	0	0	0	737	696	0	0	
13	0	0	0	0	0	0	736	698	0	0	
14	0	0	0	0	0	0	733	700	0	0	
15	0	0	0	0	0	0	729	700	0	0	
0	0	0	0	0	0	0	727	699	0	0	
1	0	0	0	0	0	0	723	698	0	0	
2	0	0	0	0	0	0	721	695	0	0	
3	0	0	0	0	0	0	719	691	0	0	
4	0	0	0	0	0	0	718	688	0	0	
5	0	0	0	0	0	0	717	684	0	0	
6	0	0	0	0	0	0	717	680	0	0	
7	0	0	0	0	0	0	717	676	0	0	
8	0	0	0	0	0	0	718	674	0	0	
9	0	0	0	0	0	0	718	672	0	0	
10	0	0	0	0	0	0	719	672	0	0	
11	0	0	0	0	0	0	719	673	0	0	
12	0	0	0	0	0	0	719	674	0	0	
13	0	0	0	0	0	0	718	676	0	0	
14	0	0	0	0	0	0	715	678	0	0	
15	0	0	0	0	0	0	712	679	0	0	
0	0	0	0	0	0	0	707	680	0	0	
1	0	0	0	0	0	0	702	680	0	0	
2	0	0	0	0	0	0	697	680	0	0	
3	0	0	0	0	0	0	693	679	0	0	
4	0	0	0	0	0	0	690	678	0	0	
5	0	0	0	0	0	0	687	675	0	0	
6	0	0	0	0	0	0	687	673	0	0	
7	0	0	0	0	0	0	688	671	0	0	
8	0	0	0	0	0	0	690	669	0	0	
9	0	0	0	0	0	0	693	665	0	0	
10	0	0	0	0	0	0	697	663	0	0	
11	0	0	0	0	0	0	702	660	0	0	
12	0	0	0	0	0	0	706	658	0	0	
13	0	0	0	0	0	0	710	656	0	0	
14	0	0	0	0	0	0	712	653	0	0	
15	0	0	0	0	0	0	714	651	0	0	
0	0	0	0	0	0	0	713	648	0	0	
1	0	0	0	0	0	0	711	645	0	0	
2	0	0	0	0	0	0	710	644	0	0	
3	0	0	0	0	0	0	707	643	0	0	
4	0	0	0	0	0	0	705	643	0	0	
5	0	0	0	0	0	0	704	645	0	0	
6	0	0	0	0	0	0	704	648	0	0	
7	0	0	0	0	0	0	706	652	0	0	
8	0	0	0	0	0	0	708	655	0	0	
9	0	0	0	0	0	0	711	659	0	0	
10	0	0	0	0	0	0	714	662	0	0	
11	0	0	0	0	0	0	716	664	0	0	
12	0	0	0	0	0	0	718	664	0	0	
13	0	0	0	0	0	0	719	662	0	0	
14	0	0	0	0	0	0	719	659	0	0	
15	0	0	0	0	0	0	717	656	0	0	
0	0	0	0	0	0	0	715	652	0	0	
1	0	0	0	0	0	0	711	647	0	0	
2	0	0	0	0	0	0	707	642	0	0	
3	0	0	0	0	0	0	703	638	0	0	
4	0	0	0	0	0	0	699	634	0	0	
5	0	0	0	0	0	0	695	630	0	0	
6	0	0	0	0	0	0	690	627	0	0	
7	0	0	0	0	0	0	688	625	0	0	
8	0	0	0	0	0	0	687	624	0	0	
9	0	0	0	0	0	0	687	623	0	0	
10	0	0	0	0	0	0	688	624	0	0	
11	0	0	0	0	0	0	689	625	0	0	
12	0	0	0	0	0	0	693	626	0	0	
13	0	0	0	0	0	0	696	627	0	0	
14	0	0	0	0	0	0	699	627	0	0	
15	0	0	0	0	0	0	702	628	0	0	
0	0	0	0	0	0	0	704	628	0	0	
1	0	0	0	0	0	0	707	629	0	0	
2	0	0	0	0	0	0	708	628	0	0	
3	0	0	0	0	0	0	709	628	0	0	
4	0	0	0	0	0	0	709	627	0	0	
5	0	0	0	0	0	0	709	625	0	0	
6	0	0	0	0	0	0	707	624	0	0	
7	0	0	0	0	0	0	706	624	0	0	
8	0	0	0	0	0	0	704	624	0	0	
9	0	0	0	0	0	0	703	625	0	0	
10	0	0	0	0	0	0	700	627	0	0	
11	0	0	0	0	0	0	699	630	0	0	
12	0	0	0	0	0	0	696	634	0	0	
13	0	0	0	0	0	0	694	638	0	0	
14	0	0	0	0	0	0	691	642	0	0	
15	0	0	0	0	0	0	687	647	0	0	
0	0	0	0	0	0	0	684	652	0	0	
1	0	0	0	0	0	0	679	656	0	0	
2	0	0	0	0	0	0	676	661	0	0	
3	0	0	0	0	0	0	673	666	0	0	
4	0	0	0	0	0	0	672	671	0	0	
5	0	0	0	0	0	0	672	677	0	0	
6	0	0	0	0	0	0	674	683	0	0	
7	0	0	0	0	0	0	677	689	0	0	
8	0	0	0	0	0	0	680	695	0	0	
9	0	0	0	0	0	0	683	699	0	0	
10	0	0	0	0	0	0	686	704	0	0	
11	0	0	0	0	0	0	687	706	0	0	
12	0	0	0	0	0	0	686	707	0	0	
13	0	0	0	0	0	0	684	708	0	0	
14	0	0	0	0	0	0	680	708	0	0	
15	0	0	0	0	0	0	674	707	0	0	
0	0	0	0	0	0	0	666	705	0	0	
1	0	0	0	0	0	0	658	702	0	0	
2	0	0	0	0	0	0	649	699	0	0	
3	0	0	0	0	0	0	641	696	0	0	
4	0	0	0	0	0	0	634	693	0	0	
5	0	0	0	0	0	0	629	691	0	0	
6	0	0	0	0	0	0	627	689	0	0	
7	0	0	0	0	0	0	626	688	0	0	
8	0	0	0	0	0	0	627	688	0	0	
9	0	0	0	0	0	0	630	687	0	0	
10	0	0	0	0	0	0	632	687	0	0	
11	0	0	0	0	0	0	636	686	0	0	
12	0	0	0	0	0	0	639	685	0	0	
13	0	0	0	0	0	0	640	684	0	0	
14	0	0	0	0	0	0	643	683	0	0	
15	0	0	0	0	0	0	643	684	0	0	
0	0	0	0	0	0	0	643	684	0	0	
1	0	0	0	0	0	0	644	686	0	0	
2	0	0	0	0	0	0	644	688	0	0	
3	0	0	0	0	0	0	646	691	0	0	
4	0	0	0	0	0	0	648	696	0	0	
5	0	0	0	0	0	0	651	701	0	0	
6	0	0	0	0	0	0	655	707	0	0	
7	0	0	0	0	0	0	660	712	0	0	
8	0	0	0	0	0	0	665	717	0	0	
9	0	0	0	0	0	0	670	720	0	0	
10	0	0	0	0	0	0	673	723	0	0	
11	0	0	0	0	0	0	676	723	0	0	
12	0	0	0	0	0	0	678	721	0	0	
13	0	0	0	0	0	0	678	717	0	0	
14	0	0	0	0	0	0	676	711	0	0	
15	0	0	0	0	0	0	674	705	0	0	
0	0	0	0	0	0	0	671	698	0	0	
1	0	0	0	0	0	0	667	691	0	0	
2	0	0	0	0	0	0	664	685	0	0	
3	0	0	0	0	0	0	661	681	0	0	
4	0	0	0	0	0	0	658	678	0	0	
5	0	0	0	0	0	0	655	676	0	0	
6	0	0	0	0	0	0	652	676	0	0	
7	0	0	0	0	0	0	651	677	0	0	
8	0	0	0	0	0	0	648	679	0	0	
9	0	0	0	0	0	0	647	682	0	0	
10	0	0	0	0	0	0	646	686	0	0	
11	0	0	0	0	0	0	646	690	0	0	
12	0	0	0	0	0	0	646	694	0	0	
13	0	0	0	0	0	0	647	698	0	0	
14	0	0	0	0	0	0	648	702	0	0	
15	0	0	0	0	0	0	650	705	0	0	
0	0	0	0	0	0	0	652	707	0	0	
1	0	0	0	0	0	0	654	709	0	0	
2	0	0	0	0	0	0	656	709	0	0	
3	0	0	0	0	0	0	657	708	0	0	
4	0	0	0	0	0	0	659	707	0	0	
5	0	0	0	0	0	0	659	704	0	0	
6	0	0	0	0	0	0	657	699	0	0	
7	0	0	0	0	0	0	655	695	0	0	
8	0	0	0	0	0	0	652	690	0	0	
9	0	0	0	0	0	0	648	686	0	0	
10	0	0	0	0	0	0	644	681	0	0	
11	0	0	0	0	0	0	640	678	0	0	
12	0	0	0	0	0	0	636	675	0	0	
13	0	0	0	0	0	0	632	672	0	0	
14	0	0	0	0	0	0	629	670	0	0	
15	0	0	0	0	0	0	627	669	0	0	
0	0	0	0	0	0	0	627	668	0	0	
1	0	0	0	0	0	0	627	668	0	0	
2	0	0	0	0	0	0	631	668	0	0	
3	0	0	0	0	0	0	635	669	0	0	
4	0	0	0	0	0	0	640	669	0	0	
5	0	0	0	0	0	0	646	669	0	0	
6	0	0	0	0	0	0	653	668	0	0	
7	0	0	0	0	0	0	659	667	0	0	
8	0	0	0	0	0	0	665	665	0	0	
9	0	0	0	0	0	0	670	663	0	0	
10	0	0	0	0	0	0	674	661	0	0	
11	0	0	0	0	0	0	677	659	0	0	
12	0	0	0	0	0	0	678	657	0	0	
13	0	0	0	0	0	0	678	656	0	0	
14	0	0	0	0	0	0	676	655	0	0	
15	0	0	0	0	0	0	674	655	0	0	
0	0	0	0	0	0	0	670	656	0	0	
1	0	0	0	0	0	0	668	657	0	0	
2	0	0	0	0	0	0	665	659	0	0	
3	0	0	0	0	0	0	664	662	0	0	
4	0	0	0	0	0	0	665	665	0	0	
5	0	0	0	0	0	0	668	668	0	0	
6	0	0	0	0	0	0	672	671	0	0	
7	0	0	0	0	0	0	677	672	0	0	
8	0	0	0	0	0	0	684	673	0	0	
9	0	0	0	0	0	0	690	674	0	0	
10	0	0	0	0	0	0	696	673	0	0	
11	0	0	0	0	0	0	702	671	0	0	
12	0	0	0	0	0	0	707	668	0	0	
13	0	0	0	0	0	0	711	665	0	0	
14	0	0	0	0	0	0	712	661	0	0	
15	0	0	0	0	0	0	711	657	0	0	
0	0	0	0	0	0	0	710	653	0	0	
1	0	0	0	0	0	0	706	649	0	0	
2	0	0	0	0	0	0	702	646	0	0	
3	0	0	0	0	0	0	697	642	0	0	
4	0	0	0	0	0	0	693	641	0	0	
5	0	0	0	0	0	0	689	640	0	0	
6	0	0	0	0	0	0	687	641	0	0	
7	0	0	0	0	0	0	686	644	0	0	
8	0	0	0	0	0	0	687	647	0	0	
9	0	0	0	0	0	0	689	652	0	0	
10	0	0	0	0	0	0	694	657	0	0	
11	0	0	0	0	0	0	699	662	0	0	
12	0	0	0	0	0	0	704	667	0	0	
13	0	0	0	0	0	0	711	671	0	0	
14	0	0	0	0	0	0	715	672	0	0	
15	0	0	0	0	0	0	719	673	0	0	
0	0	0	0	0	0	0	722	673	0	0	
1	0	0	0	0	0	0	723	671	0	0	
2	0	0	0	0	0	0	724	669	0	0	
3	0	0	0	0	0	0	722	667	0	0	
4	0	0	0	0	0	0	718	664	0	0	
5	0	0	0	0	0	0	713	662	0	0	
6	0	0	0	0	0	0	705	659	0	0	
7	0	0	0	0	0	0	697	657	0	0	
8	0	0	0	0	0	0	688	655	0	0	
9	0	0	0	0	0	0	679	654	0	0	
10	0	0	0	0	0	0	670	652	0	0	
11	0	0	0	0	0	0	663	652	0	0	
12	0	0	0	0	0	0	656	651	0	0	
13	0	0	0	0	0	0	652	650	0	0	
14	0	0	0	0	0	0	649	649	0	0	
15	0	0	0	0	0	0	648	649	0	0	
0	0	0	0	0	0	0	648	647	0	0	
1	0	0	0	0	0	0	650	647	0	0	
2	0	0	0	0	0	0	652	646	0	0	
3	0	0	0	0	0	0	655	646	0	0	
4	0	0	0	0	0	0	657	644	0	0	
5	0	0	0	0	0	0	660	643	0	0	
6	0	0	0	0	0	0	660	642	0	0	
7	0	0	0	0	0	0	660	641	0	0	
8	0	0	0	0	0	0	660	640	0	0	
9	0	0	0	0	0	0	658	640	0	0	
10	0	0	0	0	0	0	656	639	0	0	
11	0	0	0	0	0	0	654	639	0	0	
12	0	0	0	0	0	0	651	639	0	0	
13	0	0	0	0	0	0	649	638	0	0	
14	0	0	0	0	0	0	648	638	0	0	
15	0	0	0	0	0	0	648	638	0	0	
0	0	0	0	0	0	0	649	638	0	0	
1	0	0	0	0	0	0	652	639	0	0	
2	0	0	0	0	0	0	656	640	0	0	
3	0	0	0	0	0	0	661	642	0	0	
4	0	0	0	0	0	0	665	643	0	0	
5	0	0	0	0	0	0	670	644	0	0	
6	0	0	0	0	0	0	672	643	0	0	
7	0	0	0	0	0	0	672	642	0	0	
8	0	0	0	0	0	0	671	639	0	0	
9	0	0	0	0	0	0	668	636	0	0	
10	0	0	0	0	0	0	663	633	0	0	
11	0	0	0	0	0	0	656	630	0	0	
12	0	0	0	0	0	0	651	628	0	0	
13	0	0	0	0	0	0	644	627	0	0	
14	0	0	0	0	0	0	639	627	0	0	
15	0	0	0	0	0	0	634	627	0	0	
0	0	0	0	0	0	0	629	628	0	0	
1	0	0	0	0	0	0	625	630	0	0	
2	0	0	0	0	0	0	623	631	0	0	
3	0	0	0	0	0	0	621	632	0	0	
4	0	0	0	0	0	0	621	634	0	0	
5	0	0	0	0	0	0	622	636	0	0	
6	0	0	0	0	0	0	624	638	0	0	
7	0	0	0	0	0	0	628	640	0	0	
8	0	0	0	0	0	0	633	642	0	0	
9	0	0	0	0	0	0	639	646	0	0	
10	0	0	0	0	0	0	644	649	0	0	
11	0	0	0	0	0	0	650	652	0	0	
12	0	0	0	0	0	0	654	655	0	0	
13	0	0	0	0	0	0	656	657	0	0	
14	0	0	0	0	0	0	657	659	0	0	
15	0	0	0	0	0	0	655	661	0	0	
0	0	0	0	0	0	0	651	664	0	0	
1	0	0	0	0	0	0	645	665	0	0	
2	0	0	0	0	0	0	638	668	0	0	
3	0	0	0	0	0	0	629	669	0	0	
4	0	0	0	0	0	0	620	671	0	0	
5	0	0	0	0	0	0	611	672	0	0	
6	0	0	0	0	0	0	603	673	0	0	
7	0	0	0	0	0	0	595	674	0	0	
8	0	0	0	0	0	0	590	675	0	0	
9	0	0	0	0	0	0	586	675	0	0	
10	0	0	0	0	0	0	583	676	0	0	
11	0	0	0	0	0	0	583	676	0	0	
12	0	0	0	0	0	0	584	676	0	0	
13	0	0	0	0	0	0	586	676	0	0	
14	0	0	0	0	0	0	589	675	0	0	
15	0	0	0	0	0	0	592	675	0	0	
0	0	0	0	0	0	0	595	675	0	0	
1	0	0	0	0	0	0	598	675	0	0	
2	0	0	0	0	0	0	601	675	0	0	
3	0	0	0	0	0	0	603	676	0	0	
4	0	0	0	0	0	0	604	678	0	0	
5	0	0	0	0	0	0	604	681	0	0	
6	0	0	0	0	0	0	604	685	0	0	
7	0	0	0	0	0	0	603	689	0	0	
8	0	0	0	0	0	0	602	694	0	0	
9	0	0	0	0	0	0	600	699	0	0	
10	0	0	0	0	0	0	598	704	0	0	
11	0	0	0	0	0	0	596	707	0	0	
12	0	0	0	0	0	0	592	710	0	0	
13	0	0	0	0	0	0	589	710	0	0	
14	0	0	0	0	0	0	585	708	0	0	
15	0	0	0	0	0	0	580	704	0	0	
0	0	0	0	0	0	0	575	698	0	0	
1	0	0	0	0	0	0	570	690	0	0	
2	0	0	0	0	0	0	565	680	0	0	
3	0	0	0	0	0	0	561	671	0	0	
4	0	0	0	0	0	0	558	662	0	0	
5	0	0	0	0	0	0	555	654	0	0	
6	0	0	0	0	0	0	553	647	0	0	
7	0	0	0	0	0	0	552	644	0	0	
8	0	0	0	0	0	0	551	642	0	0	
9	0	0	0	0	0	0	551	642	0	0	
10	0	0	0	0	0	0	551	643	0	0	
11	0	0	0	0	0	0	551	647	0	0	
12	0	0	0	0	0	0	552	651	0	0	
13	0	0	0	0	0	0	552	656	0	0	
14	0	0	0	0	0	0	553	662	0	0	
15	0	0	0	0	0	0	553	668	0	0	
0	0	0	0	0	0	0	553	673	0	0	
1	0	0	0	0	0	0	555	677	0	0	
2	0	0	0	0	0	0	556	680	0	0	
3	0	0	0	0	0	0	557	681	0	0	
4	0	0	0	0	0	0	559	681	0	0	
5	0	0	0	0	0	0	560	679	0	0	
6	0	0	0	0	0	0	562	676	0	0	
7	0	0	0	0	0	0	564	672	0	0	
8	0	0	0	0	0	0	566	668	0	0	
9	0	0	0	0	0	0	566	663	0	0	
10	0	0	0	0	0	0	568	659	0	0	
11	0	0	0	0	0	0	568	656	0	0	
12	0	0	0	0	0	0	569	655	0	0	
13	0	0	0	0	0	0	570	654	0	0	
14	0	0	0	0	0	0	571	654	0	0	
15	0	0	0	0	0	0	571	655	0	0	
0	0	0	0	0	0	0	572	658	0	0	
1	0	0	0	0	0	0	572	660	0	0	
2	0	0	0	0	0	0	572	663	0	0	
3	0	0	0	0	0	0	573	664	0	0	
4	0	0	0	0	0	0	574	665	0	0	
5	0	0	0	0	0	0	575	666	0	0	
6	0	0	0	0	0	0	578	665	0	0	
7	0	0	0	0	0	0	580	664	0	0	
8	0	0	0	0	0	0	583	663	0	0	
9	0	0	0	0	0	0	588	661	0	0	
10	0	0	0	0	0	0	592	659	0	0	
11	0	0	0	0	0	0	598	657	0	0	
12	0	0	0	0	0	0	603	654	0	0	
13	0	0	0	0	0	0	608	652	0	0	
14	0	0	0	0	0	0	612	649	0	0	
15	0	0	0	0	0	0	614	644	0	0	
0	0	0	0	0	0	0	614	640	0	0	
1	0	0	0	0	0	0	612	636	0	0	
2	0	0	0	0	0	0	609	632	0	0	
3	0	0	0	0	0	0	605	628	0	0	
4	0	0	0	0	0	0	601	627	0	0	
5	0	0	0	0	0	0	597	627	0	0	
6	0	0	0	0	0	0	594	628	0	0	
7	0	0	0	0	0	0	592	631	0	0	
8	0	0	0	0	0	0	591	635	0	0	
9	0	0	0	0	0	0	591	640	0	0	
10	0	0	0	0	0	0	593	645	0	0	
11	0	0	0	0	0	0	595	651	0	0	
12	0	0	0	0	0	0	600	657	0	0	
13	0	0	0	0	0	0	604	663	0	0	
14	0	0	0	0	0	0	610	669	0	0	
15	0	0	0	0	0	0	615	675	0	0	
0	0	0	0	0	0	0	620	679	0	0	
1	0	0	0	0	0	0	624	683	0	0	
2	0	0	0	0	0	0	625	686	0	0	
3	0	0	0	0	0	0	624	687	0	0	
4	0	0	0	0	0	0	622	686	0	0	
5	0	0	0	0	0	0	616	685	0	0	
6	0	0	0	0	0	0	609	682	0	0	
7	0	0	0	0	0	0	602	679	0	0	
8	0	0	0	0	0	0	593	677	0	0	
9	0	0	0	0	0	0	583	675	0	0	
10	0	0	0	0	0	0	575	673	0	0	
11	0	0	0	0	0	0	567	672	0	0	
12	0	0	0	0	0	0	560	671	0	0	
13	0	0	0	0	0	0	555	672	0	0	
14	0	0	0	0	0	0	551	674	0	0	
15	0	0	0	0	0	0	550	677	0	0	
0	0	0	0	0	0	0	551	682	0	0	
1	0	0	0	0	0	0	553	687	0	0	
2	0	0	0	0	0	0	556	692	0	0	
3	0	0	0	0	0	0	560	697	0	0	
4	0	0	0	0	0	0	564	702	0	0	
5	0	0	0	0	0	0	568	706	0	0	
6	0	0	0	0	0	0	571	710	0	0	
7	0	0	0	0	0	0	573	713	0	0	
8	0	0	0	0	0	0	575	716	0	0	
9	0	0	0	0	0	0	575	718	0	0	
10	0	0	0	0	0	0	575	719	0	0	
11	0	0	0	0	0	0	575	719	0	0	
12	0	0	0	0	0	0	574	718	0	0	
13	0	0	0	0	0	0	574	717	0	0	
14	0	0	0	0	0	0	574	716	0	0	
15	0	0	0	0	0	0	574	714	0	0	
0	0	0	0	0	0	0	575	711	0	0	
1	0	0	0	0	0	0	574	709	0	0	
2	0	0	0	0	0	0	574	706	0	0	
3	0	0	0	0	0	0	573	703	0	0	
4	0	0	0	0	0	0	572	700	0	0	
5	0	0	0	0	0	0	570	697	0	0	
6	0	0	0	0	0	0	568	696	0	0	
7	0	0	0	0	0	0	566	694	0	0	
8	0	0	0	0	0	0	563	693	0	0	
9	0	0	0	0	0	0	560	694	0	0	
10	0	0	0	0	0	0	559	695	0	0	
11	0	0	0	0	0	0	557	698	0	0	
12	0	0	0	0	0	0	556	702	0	0	
13	0	0	0	0	0	0	554	706	0	0	
14	0	0	0	0	0	0	553	711	0	0	
15	0	0	0	0	0	0	552	716	0	0	
0	0	0	0	0	0	0	551	722	0	0	
1	0	0	0	0	0	0	551	728	0	0	
2	0	0	0	0	0	0	551	735	0	0	
3	0	0	0	0	0	0	551	741	0	0	
4	0	0	0	0	0	0	553	745	0	0	
5	0	0	0	0	0	0	554	749	0	0	
6	0	0	0	0	0	0	555	752	0	0	
7	0	0	0	0	0	0	557	753	0	0	
8	0	0	0	0	0	0	559	753	0	0	
9	0	0	0	0	0	0	561	751	0	0	
10	0	0	0	0	0	0	562	748	0	0	
11	0	0	0	0	0	0	563	745	0	0	
12	0	0	0	0	0	0	563	741	0	0	
13	0	0	0	0	0	0	563	736	0	0	
14	0	0	0	0	0	0	560	732	0	0	
15	0	0	0	0	0	0	556	728	0	0	
0	0	0	0	0	0	0	552	726	0	0	
1	0	0	0	0	0	0	547	724	0	0	
2	0	0	0	0	0	0	541	724	0	0	
3	0	0	0	0	0	0	536	725	0	0	
4	0	0	0	0	0	0	529	726	0	0	
5	0	0	0	0	0	0	523	728	0	0	
6	0	0	0	0	0	0	516	730	0	0	
7	0	0	0	0	0	0	512	732	0	0	
8	0	0	0	0	0	0	508	734	0	0	
9	0	0	0	0	0	0	506	736	0	0	
10	0	0	0	0	0	0	507	738	0	0	
11	0	0	0	0	0	0	510	740	0	0	
12	0	0	0	0	0	0	514	742	0	0	
13	0	0	0	0	0	0	519	743	0	0	
14	0	0	0	0	0	0	527	745	0	0	
15	0	0	0	0	0	0	534	747	0	0	
0	0	0	0	0	0	0	542	748	0	0	
1	0	0	0	0	0	0	548	749	0	0	
2	0	0	0	0	0	0	555	751	0	0	
3	0	0	0	0	0	0	559	752	0	0	
4	0	0	0	0	0	0	561	752	0	0	
5	0	0	0	0	0	0	560	751	0	0	
6	0	0	0	0	0	0	558	751	0	0	
7	0	0	0	0	0	0	553	749	0	0	
8	0	0	0	0	0	0	548	748	0	0	
9	0	0	0	0	0	0	542	747	0	0	
10	0	0	0	0	0	0	536	745	0	0	
11	0	0	0	0	0	0	531	744	0	0	
12	0	0	0	0	0	0	527	743	0	0	
13	0	0	0	0	0	0	524	742	0	0	
14	0	0	0	0	0	0	523	741	0	0	
15	0	0	0	0	0	0	524	739	0	0	
0	0	0	0	0	0	0	526	738	0	0	
1	0	0	0	0	0	0	529	736	0	0	
2	0	0	0	0	0	0	533	734	0	0	
3	0	0	0	0	0	0	536	732	0	0	
4	0	0	0	0	0	0	540	729	0	0	
5	0	0	0	0	0	0	542	726	0	0	
6	0	0	0	0	0	0	543	722	0	0	
7	0	0	0	0	0	0	543	719	0	0	
8	0	0	0	0	0	0	542	718	0	0	
9	0	0	0	0	0	0	541	717	0	0	
10	0	0	0	0	0	0	539	718	0	0	
11	0	0	0	0	0	0	537	719	0	0	
12	0	0	0	0	0	0	536	721	0	0	
13	0	0	0	0	0	0	535	724	0	0	
14	0	0	0	0	0	0	534	728	0	0	
15	0	0	0	0	0	0	535	732	0	0	
0	0	0	0	0	0	0	537	736	0	0	
1	0	0	0	0	0	0	541	740	0	0	
2	0	0	0	0	0	0	545	745	0	0	
3	0	0	0	0	0	0	551	749	0	0	
4	0	0	0	0	0	0	558	752	0	0	
5	0	0	0	0	0	0	565	756	0	0	
6	0	0	0	0	0	0	572	759	0	0	
7	0	0	0	0	0	0	578	760	0	0	
8	0	0	0	0	0	0	583	762	0	0	
9	0	0	0	0	0	0	585	762	0	0	
10	0	0	0	0	0	0	587	762	0	0	
11	0	0	0	0	0	0	586	761	0	0	
12	0	0	0	0	0	0	583	760	0	0	
13	0	0	0	0	0	0	579	758	0	0	
14	0	0	0	0	0	0	573	756	0	0	
15	0	0	0	0	0	0	567	753	0	0	
0	0	0	0	0	0	0	560	751	0	0	
1	0	0	0	0	0	0	553	748	0	0	
2	0	0	0	0	0	0	547	744	0	0	
3	0	0	0	0	0	0	541	741	0	0	
4	0	0	0	0	0	0	537	738	0	0	
5	0	0	0	0	0	0	534	735	0	0	
6	0	0	0	0	0	0	532	733	0	0	
7	0	0	0	0	0	0	533	731	0	0	
8	0	0	0	0	0	0	536	729	0	0	
9	0	0	0	0	0	0	540	729	0	0	
10	0	0	0	0	0	0	545	729	0	0	
11	0	0	0	0	0	0	551	730	0	0	
12	0	0	0	0	0	0	558	731	0	0	
13	0	0	0	0	0	0	564	731	0	0	
14	0	0	0	0	0	0	569	731	0	0	
15	0	0	0	0	0	0	572	731	0	0	
0	0	0	0	0	0	0	573	729	0	0	
1	0	0	0	0	0	0	574	728	0	0	
2	0	0	0	0	0	0	572	725	0	0	
3	0	0	0	0	0	0	571	722	0	0	
4	0	0	0	0	0	0	569	720	0	0	
5	0	0	0	0	0	0	567	719	0	0	
6	0	0	0	0	0	0	566	717	0	0	
7	0	0	0	0	0	0	564	716	0	0	
8	0	0	0	0	0	0	563	714	0	0	
9	0	0	0	0	0	0	562	712	0	0	
10	0	0	0	0	0	0	561	710	0	0	
11	0	0	0	0	0	0	560	707	0	0	
12	0	0	0	0	0	0	558	705	0	0	
13	0	0	0	0	0	0	556	702	0	0	
14	0	0	0	0	0	0	555	700	0	0	
15	0	0	0	0	0	0	553	698	0	0	
0	0	0	0	0	0	0	551	696	0	0	
1	0	0	0	0	0	0	549	696	0	0	
2	0	0	0	0	0	0	548	696	0	0	
3	0	0	0	0	0	0	547	697	0	0	
4	0	0	0	0	0	0	545	700	0	0	
5	0	0	0	0	0	0	544	703	0	0	
6	0	0	0	0	0	0	543	707	0	0	
7	0	0	0	0	0	0	542	711	0	0	
8	0	0	0	0	0	0	541	715	0	0	
9	0	0	0	0	0	0	540	719	0	0	
10	0	0	0	0	0	0	540	722	0	0	
11	0	0	0	0	0	0	540	724	0	0	
12	0	0	0	0	0	0	540	725	0	0	
13	0	0	0	0	0	0	540	725	0	0	
14	0	0	0	0	0	0	542	724	0	0	
15	0	0	0	0	0	0	543	723	0	0	
0	0	0	0	0	0	0	546	722	0	0	
1	0	0	0	0	0	0	549	721	0	0	
2	0	0	0	0	0	0	551	719	0	0	
3	0	0	0	0	0	0	553	718	0	0	
4	0	0	0	0	0	0	553	717	0	0	
5	0	0	0	0	0	0	551	717	0	0	
6	0	0	0	0	0	0	549	716	0	0	
7	0	0	0	0	0	0	544	717	0	0	
8	0	0	0	0	0	0	540	718	0	0	
9	0	0	0	0	0	0	534	720	0	0	
10	0	0	0	0	0	0	527	723	0	0	
11	0	0	0	0	0	0	521	726	0	0	
12	0	0	0	0	0	0	514	729	0	0	
13	0	0	0	0	0	0	508	732	0	0	
14	0	0	0	0	0	0	502	736	0	0	
15	0	0	0	0	0	0	497	739	0	0	
0	0	0	0	0	0	0	494	742	0	0	
1	0	0	0	0	0	0	492	744	0	0	
2	0	0	0	0	0	0	491	747	0	0	
3	0	0	0	0	0	0	492	748	0	0	
4	0	0	0	0	0	0	493	749	0	0	
5	0	0	0	0	0	0	496	749	0	0	
6	0	0	0	0	0	0	501	750	0	0	
7	0	0	0	0	0	0	507	751	0	0	
8	0	0	0	0	0	0	515	753	0	0	
9	0	0	0	0	0	0	522	755	0	0	
10	0	0	0	0	0	0	530	758	0	0	
11	0	0	0	0	0	0	537	762	0	0	
12	0	0	0	0	0	0	544	765	0	0	
13	0	0	0	0	0	0	549	769	0	0	
14	0	0	0	0	0	0	552	773	0	0	
15	0	0	0	0	0	0	554	775	0	0	
0	0	0	0	0	0	0	553	777	0	0	
1	0	0	0	0	0	0	551	778	0	0	
2	0	0	0	0	0	0	545	775	0	0	
3	0	0	0	0	0	0	537	771	0	0	
4	0	0	0	0	0	0	527	763	0	0	
5	0	0	0	0	0	0	514	751	0	0	
