# OpenSignals Text File Format. Version 1
# {"": {"position": 0, "device": "", "device name": "", "device connection": "B", "sampling rate": 1000, "resolution": [4, 1, 1, 1, 1, 10, 10, 10, 10, 6, 6], "firmware version": 1281, "comments": "", "keywords": "", "mode": 0, "sync interval": 2, "date": "", "time": "", "channels": [1, 2, 3, 4, 5, 6], "sensor": ["RAW", "RAW", "RAW", "RAW", "RAW", "RAW"], "label": ["A1", "A2", "A3", "A4", "A5", "A6"], "column": ["nSeq", "I1", "I2", "O1", "O2", "A1", "A2", "A3", "A4", "A5", "A6"], "special": [{}, {}, {}, {}, {}, {}], "digital IO": [0, 0, 1, 1]}}
# EndOfHeader
0	0	0	0	0	0	0	1021	589	0	0	
1	0	0	0	0	0	0	1021	586	0	0	
2	0	0	0	0	0	0	1021	580	0	0	
3	0	0	0	0	0	0	1021	573	0	0	
4	0	0	0	0	0	0	1021	564	0	0	
5	0	0	0	0	0	0	1021	552	0	0	
6	0	0	0	0	0	0	1021	539	0	0	
7	0	0	0	0	0	0	1021	526	0	0	
8	0	0	0	0	0	0	1021	512	0	0	
9	0	0	0	0	0	0	1021	500	0	0	
10	0	0	0	0	0	0	1021	491	0	0	
11	0	0	0	0	0	0	1021	484	0	0	
12	0	0	0	0	0	0	1021	482	0	0	
13	0	0	0	0	0	0	1021	483	0	0	
14	0	0	0	0	0	0	1021	487	0	0	
15	0	0	0	0	0	0	1021	494	0	0	
0	0	0	0	0	0	0	1021	502	0	0	
1	0	0	0	0	0	0	1021	509	0	0	
2	0	0	0	0	0	0	1021	515	0	0	
3	0	0	0	0	0	0	1021	519	0	0	
4	0	0	0	0	0	0	1021	521	0	0	
5	0	0	0	0	0	0	1021	521	0	0	
6	0	0	0	0	0	0	1021	521	0	0	
7	0	0	0	0	0	0	1021	519	0	0	
8	0	0	0	0	0	0	1021	518	0	0	
9	0	0	0	0	0	0	1021	518	0	0	
10	0	0	0	0	0	0	1021	518	0	0	
11	0	0	0	0	0	0	1020	519	0	0	
12	0	0	0	0	0	0	1020	523	0	0	
13	0	0	0	0	0	0	1021	528	0	0	
14	0	0	0	0	0	0	1021	535	0	0	
15	0	0	0	0	0	0	1021	542	0	0	
0	0	0	0	0	0	0	1021	550	0	0	
1	0	0	0	0	0	0	1021	557	0	0	
2	0	0	0	0	0	0	1021	563	0	0	
3	0	0	0	0	0	0	1021	566	0	0	
4	0	0	0	0	0	0	1021	566	0	0	
5	0	0	0	0	0	0	1021	563	0	0	
6	0	0	0	0	0	0	1021	557	0	0	
7	0	0	0	0	0	0	1021	549	0	0	
8	0	0	0	0	0	0	1021	540	0	0	
9	0	0	0	0	0	0	1021	531	0	0	
10	0	0	0	0	0	0	1021	523	0	0	
11	0	0	0	0	0	0	1020	516	0	0	
12	0	0	0	0	0	0	1021	511	0	0	
13	0	0	0	0	0	0	1021	508	0	0	
14	0	0	0	0	0	0	1021	507	0	0	
15	0	0	0	0	0	0	1021	507	0	0	
0	0	0	0	0	0	0	1021	509	0	0	
1	0	0	0	0	0	0	1021	511	0	0	
2	0	0	0	0	0	0	1021	515	0	0	
3	0	0	0	0	0	0	1021	520	0	0	
4	0	0	0	0	0	0	1021	525	0	0	
5	0	0	0	0	0	0	1020	531	0	0	
6	0	0	0	0	0	0	1021	537	0	0	
7	0	0	0	0	0	0	1021	542	0	0	
8	0	0	0	0	0	0	1021	547	0	0	
9	0	0	0	0	0	0	1021	550	0	0	
10	0	0	0	0	0	0	1020	551	0	0	
11	0	0	0	0	0	0	1021	552	0	0	
12	0	0	0	0	0	0	1021	551	0	0	
13	0	0	0	0	0	0	1021	547	0	0	
14	0	0	0	0	0	0	1020	543	0	0	
15	0	0	0	0	0	0	1021	537	0	0	
0	0	0	0	0	0	0	1021	529	0	0	
1	0	0	0	0	0	0	1021	520	0	0	
2	0	0	0	0	0	0	1021	510	0	0	
3	0	0	0	0	0	0	1021	498	0	0	
4	0	0	0	0	0	0	1020	487	0	0	
5	0	0	0	0	0	0	1021	475	0	0	
6	0	0	0	0	0	0	1021	464	0	0	
7	0	0	0	0	0	0	1021	453	0	0	
8	0	0	0	0	0	0	1020	443	0	0	
9	0	0	0	0	0	0	1021	433	0	0	
10	0	0	0	0	0	0	1021	423	0	0	
11	0	0	0	0	0	0	1021	413	0	0	
12	0	0	0	0	0	0	1021	403	0	0	
13	0	0	0	0	0	0	1021	392	0	0	
14	0	0	0	0	0	0	1020	380	0	0	
15	0	0	0	0	0	0	1021	367	0	0	
0	0	0	0	0	0	0	1021	353	0	0	
1	0	0	0	0	0	0	1021	339	0	0	
2	0	0	0	0	0	0	1021	325	0	0	
3	0	0	0	0	0	0	1020	312	0	0	
4	0	0	0	0	0	0	1021	299	0	0	
5	0	0	0	0	0	0	1021	288	0	0	
6	0	0	0	0	0	0	1021	280	0	0	
7	0	0	0	0	0	0	1020	275	0	0	
8	0	0	0	0	0	0	1021	274	0	0	
9	0	0	0	0	0	0	1021	277	0	0	
10	0	0	0	0	0	0	1021	284	0	0	
11	0	0	0	0	0	0	1021	296	0	0	
12	0	0	0	0	0	0	1020	312	0	0	
13	0	0	0	0	0	0	1020	332	0	0	
14	0	0	0	0	0	0	1021	356	0	0	
15	0	0	0	0	0	0	1021	383	0	0	
0	0	0	0	0	0	0	1021	411	0	0	
1	0	0	0	0	0	0	1021	440	0	0	
2	0	0	0	0	0	0	1021	468	0	0	
3	0	0	0	0	0	0	1021	494	0	0	
4	0	0	0	0	0	0	1021	518	0	0	
5	0	0	0	0	0	0	1021	536	0	0	
6	0	0	0	0	0	0	1020	552	0	0	
7	0	0	0	0	0	0	1021	563	0	0	
8	0	0	0	0	0	0	1021	569	0	0	
9	0	0	0	0	0	0	1021	571	0	0	
10	0	0	0	0	0	0	1021	570	0	0	
11	0	0	0	0	0	0	1021	566	0	0	
12	0	0	0	0	0	0	1020	560	0	0	
13	0	0	0	0	0	0	1021	553	0	0	
14	0	0	0	0	0	0	1021	546	0	0	
15	0	0	0	0	0	0	1021	539	0	0	
0	0	0	0	0	0	0	1021	532	0	0	
1	0	0	0	0	0	0	1021	526	0	0	
2	0	0	0	0	0	0	1021	520	0	0	
3	0	0	0	0	0	0	1021	516	0	0	
4	0	0	0	0	0	0	1021	513	0	0	
5	0	0	0	0	0	0	1020	511	0	0	
6	0	0	0	0	0	0	1021	510	0	0	
7	0	0	0	0	0	0	1021	511	0	0	
8	0	0	0	0	0	0	1021	513	0	0	
9	0	0	0	0	0	0	1021	516	0	0	
10	0	0	0	0	0	0	1020	520	0	0	
11	0	0	0	0	0	0	1020	525	0	0	
12	0	0	0	0	0	0	1021	532	0	0	
13	0	0	0	0	0	0	1021	539	0	0	
14	0	0	0	0	0	0	1021	547	0	0	
15	0	0	0	0	0	0	1021	555	0	0	
0	0	0	0	0	0	0	1021	562	0	0	
1	0	0	0	0	0	0	1021	568	0	0	
2	0	0	0	0	0	0	1021	572	0	0	
3	0	0	0	0	0	0	1021	574	0	0	
4	0	0	0	0	0	0	1021	573	0	0	
5	0	0	0	0	0	0	1020	569	0	0	
6	0	0	0	0	0	0	1021	564	0	0	
7	0	0	0	0	0	0	1021	556	0	0	
8	0	0	0	0	0	0	1021	546	0	0	
9	0	0	0	0	0	0	1021	536	0	0	
10	0	0	0	0	0	0	1020	524	0	0	
11	0	0	0	0	0	0	1021	511	0	0	
12	0	0	0	0	0	0	1021	500	0	0	
13	0	0	0	0	0	0	1021	489	0	0	
14	0	0	0	0	0	0	1021	480	0	0	
15	0	0	0	0	0	0	1020	472	0	0	
0	0	0	0	0	0	0	1021	467	0	0	
1	0	0	0	0	0	0	1021	465	0	0	
2	0	0	0	0	0	0	1021	467	0	0	
3	0	0	0	0	0	0	1021	472	0	0	
4	0	0	0	0	0	0	1021	480	0	0	
5	0	0	0	0	0	0	1021	492	0	0	
6	0	0	0	0	0	0	1021	505	0	0	
7	0	0	0	0	0	0	1021	520	0	0	
8	0	0	0	0	0	0	1021	535	0	0	
9	0	0	0	0	0	0	1020	547	0	0	
10	0	0	0	0	0	0	1021	559	0	0	
11	0	0	0	0	0	0	1021	567	0	0	
12	0	0	0	0	0	0	1021	572	0	0	
13	0	0	0	0	0	0	1021	573	0	0	
14	0	0	0	0	0	0	1021	571	0	0	
15	0	0	0	0	0	0	1021	567	0	0	
0	0	0	0	0	0	0	1021	562	0	0	
1	0	0	0	0	0	0	1021	556	0	0	
2	0	0	0	0	0	0	1021	551	0	0	
3	0	0	0	0	0	0	1021	544	0	0	
4	0	0	0	0	0	0	1021	539	0	0	
5	0	0	0	0	0	0	1021	533	0	0	
6	0	0	0	0	0	0	1021	528	0	0	
7	0	0	0	0	0	0	1020	523	0	0	
8	0	0	0	0	0	0	1021	519	0	0	
9	0	0	0	0	0	0	1021	515	0	0	
10	0	0	0	0	0	0	1021	511	0	0	
11	0	0	0	0	0	0	1021	508	0	0	
12	0	0	0	0	0	0	1021	504	0	0	
13	0	0	0	0	0	0	1020	500	0	0	
14	0	0	0	0	0	0	1021	498	0	0	
15	0	0	0	0	0	0	1021	496	0	0	
0	0	0	0	0	0	0	1021	494	0	0	
1	0	0	0	0	0	0	1021	494	0	0	
2	0	0	0	0	0	0	1020	493	0	0	
3	0	0	0	0	0	0	1021	493	0	0	
4	0	0	0	0	0	0	1021	492	0	0	
5	0	0	0	0	0	0	1021	492	0	0	
6	0	0	0	0	0	0	1021	491	0	0	
7	0	0	0	0	0	0	1021	490	0	0	
8	0	0	0	0	0	0	1021	488	0	0	
9	0	0	0	0	0	0	1021	487	0	0	
10	0	0	0	0	0	0	1021	486	0	0	
11	0	0	0	0	0	0	1020	485	0	0	
12	0	0	0	0	0	0	1020	485	0	0	
13	0	0	0	0	0	0	1021	486	0	0	
14	0	0	0	0	0	0	1021	487	0	0	
15	0	0	0	0	0	0	1021	487	0	0	
0	0	0	0	0	0	0	1021	489	0	0	
1	0	0	0	0	0	0	1021	491	0	0	
2	0	0	0	0	0	0	1021	494	0	0	
3	0	0	0	0	0	0	1021	497	0	0	
4	0	0	0	0	0	0	1021	501	0	0	
5	0	0	0	0	0	0	1021	507	0	0	
6	0	0	0	0	0	0	1021	514	0	0	
7	0	0	0	0	0	0	1021	522	0	0	
8	0	0	0	0	0	0	1021	531	0	0	
9	0	0	0	0	0	0	1021	540	0	0	
10	0	0	0	0	0	0	1021	546	0	0	
11	0	0	0	0	0	0	1021	551	0	0	
12	0	0	0	0	0	0	1021	551	0	0	
13	0	0	0	0	0	0	1021	548	0	0	
14	0	0	0	0	0	0	1021	542	0	0	
15	0	0	0	0	0	0	1020	532	0	0	
0	0	0	0	0	0	0	1020	521	0	0	
1	0	0	0	0	0	0	1021	509	0	0	
2	0	0	0	0	0	0	1021	496	0	0	
3	0	0	0	0	0	0	1021	483	0	0	
4	0	0	0	0	0	0	1021	472	0	0	
5	0	0	0	0	0	0	1020	461	0	0	
6	0	0	0	0	0	0	1021	452	0	0	
7	0	0	0	0	0	0	1021	445	0	0	
8	0	0	0	0	0	0	1021	441	0	0	
9	0	0	0	0	0	0	1021	439	0	0	
10	0	0	0	0	0	0	1021	440	0	0	
11	0	0	0	0	0	0	1021	443	0	0	
12	0	0	0	0	0	0	1021	449	0	0	
13	0	0	0	0	0	0	1021	457	0	0	
14	0	0	0	0	0	0	1021	467	0	0	
15	0	0	0	0	0	0	1021	477	0	0	
0	0	0	0	0	0	0	1021	487	0	0	
1	0	0	0	0	0	0	1021	495	0	0	
2	0	0	0	0	0	0	1021	501	0	0	
3	0	0	0	0	0	0	1020	505	0	0	
4	0	0	0	0	0	0	1020	505	0	0	
5	0	0	0	0	0	0	1021	504	0	0	
6	0	0	0	0	0	0	1021	499	0	0	
7	0	0	0	0	0	0	1021	492	0	0	
8	0	0	0	0	0	0	1020	484	0	0	
9	0	0	0	0	0	0	1021	476	0	0	
10	0	0	0	0	0	0	1021	470	0	0	
11	0	0	0	0	0	0	1021	464	0	0	
12	0	0	0	0	0	0	1021	461	0	0	
13	0	0	0	0	0	0	1021	460	0	0	
14	0	0	0	0	0	0	1020	462	0	0	
15	0	0	0	0	0	0	1021	464	0	0	
0	0	0	0	0	0	0	1021	468	0	0	
1	0	0	0	0	0	0	1021	472	0	0	
2	0	0	0	0	0	0	1021	475	0	0	
3	0	0	0	0	0	0	1020	479	0	0	
4	0	0	0	0	0	0	1021	483	0	0	
5	0	0	0	0	0	0	1021	489	0	0	
6	0	0	0	0	0	0	1021	495	0	0	
7	0	0	0	0	0	0	1021	501	0	0	
8	0	0	0	0	0	0	1021	507	0	0	
9	0	0	0	0	0	0	1021	513	0	0	
10	0	0	0	0	0	0	1021	518	0	0	
11	0	0	0	0	0	0	1021	521	0	0	
12	0	0	0	0	0	0	1021	521	0	0	
13	0	0	0	0	0	0	1020	520	0	0	
14	0	0	0	0	0	0	1021	516	0	0	
15	0	0	0	0	0	0	1021	511	0	0	
0	0	0	0	0	0	0	1021	504	0	0	
1	0	0	0	0	0	0	1021	497	0	0	
2	0	0	0	0	0	0	1020	490	0	0	
3	0	0	0	0	0	0	1021	484	0	0	
4	0	0	0	0	0	0	1021	479	0	0	
5	0	0	0	0	0	0	1021	473	0	0	
6	0	0	0	0	0	0	1021	470	0	0	
7	0	0	0	0	0	0	1021	467	0	0	
8	0	0	0	0	0	0	1021	465	0	0	
9	0	0	0	0	0	0	1021	464	0	0	
10	0	0	0	0	0	0	1021	463	0	0	
11	0	0	0	0	0	0	1020	463	0	0	
12	0	0	0	0	0	0	1020	462	0	0	
13	0	0	0	0	0	0	1021	461	0	0	
14	0	0	0	0	0	0	1021	460	0	0	
15	0	0	0	0	0	0	1021	459	0	0	
0	0	0	0	0	0	0	1021	458	0	0	
1	0	0	0	0	0	0	1021	457	0	0	
2	0	0	0	0	0	0	1021	458	0	0	
3	0	0	0	0	0	0	1021	459	0	0	
4	0	0	0	0	0	0	1021	460	0	0	
5	0	0	0	0	0	0	1020	462	0	0	
6	0	0	0	0	0	0	1021	463	0	0	
7	0	0	0	0	0	0	1021	465	0	0	
8	0	0	0	0	0	0	1021	467	0	0	
9	0	0	0	0	0	0	1021	468	0	0	
10	0	0	0	0	0	0	1021	470	0	0	
11	0	0	0	0	0	0	1020	470	0	0	
12	0	0	0	0	0	0	1021	470	0	0	
13	0	0	0	0	0	0	1021	470	0	0	
14	0	0	0	0	0	0	1021	468	0	0	
15	0	0	0	0	0	0	1020	467	0	0	
0	0	0	0	0	0	0	1021	465	0	0	
1	0	0	0	0	0	0	1021	464	0	0	
2	0	0	0	0	0	0	1021	465	0	0	
3	0	0	0	0	0	0	1021	466	0	0	
4	0	0	0	0	0	0	1021	468	0	0	
5	0	0	0	0	0	0	1020	471	0	0	
6	0	0	0	0	0	0	1021	475	0	0	
7	0	0	0	0	0	0	1021	477	0	0	
8	0	0	0	0	0	0	1021	479	0	0	
9	0	0	0	0	0	0	1021	480	0	0	
10	0	0	0	0	0	0	1020	479	0	0	
11	0	0	0	0	0	0	1021	477	0	0	
12	0	0	0	0	0	0	1021	475	0	0	
13	0	0	0	0	0	0	1021	472	0	0	
14	0	0	0	0	0	0	1020	468	0	0	
15	0	0	0	0	0	0	1021	465	0	0	
0	0	0	0	0	0	0	1021	462	0	0	
1	0	0	0	0	0	0	1021	458	0	0	
2	0	0	0	0	0	0	1021	455	0	0	
3	0	0	0	0	0	0	1020	453	0	0	
4	0	0	0	0	0	0	1020	451	0	0	
5	0	0	0	0	0	0	1021	450	0	0	
6	0	0	0	0	0	0	1021	449	0	0	
7	0	0	0	0	0	0	1021	450	0	0	
8	0	0	0	0	0	0	1021	451	0	0	
9	0	0	0	0	0	0	1021	452	0	0	
10	0	0	0	0	0	0	1021	454	0	0	
11	0	0	0	0	0	0	1021	456	0	0	
12	0	0	0	0	0	0	1021	457	0	0	
13	0	0	0	0	0	0	1021	458	0	0	
14	0	0	0	0	0	0	1021	459	0	0	
15	0	0	0	0	0	0	1021	458	0	0	
0	0	0	0	0	0	0	1021	457	0	0	
1	0	0	0	0	0	0	1021	455	0	0	
2	0	0	0	0	0	0	1021	453	0	0	
3	0	0	0	0	0	0	1021	451	0	0	
4	0	0	0	0	0	0	1021	448	0	0	
5	0	0	0	0	0	0	1021	447	0	0	
6	0	0	0	0	0	0	1021	446	0	0	
7	0	0	0	0	0	0	1021	446	0	0	
8	0	0	0	0	0	0	1021	449	0	0	
9	0	0	0	0	0	0	1021	455	0	0	
10	0	0	0	0	0	0	1021	463	0	0	
11	0	0	0	0	0	0	1021	472	0	0	
12	0	0	0	0	0	0	1021	481	0	0	
13	0	0	0	0	0	0	1020	489	0	0	
14	0	0	0	0	0	0	1021	496	0	0	
15	0	0	0	0	0	0	1021	500	0	0	
0	0	0	0	0	0	0	1021	502	0	0	
1	0	0	0	0	0	0	1020	501	0	0	
2	0	0	0	0	0	0	1020	497	0	0	
3	0	0	0	0	0	0	1021	490	0	0	
4	0	0	0	0	0	0	1021	482	0	0	
5	0	0	0	0	0	0	1021	473	0	0	
6	0	0	0	0	0	0	1020	464	0	0	
7	0	0	0	0	0	0	1021	455	0	0	
8	0	0	0	0	0	0	1021	448	0	0	
9	0	0	0	0	0	0	1021	444	0	0	
10	0	0	0	0	0	0	1021	441	0	0	
11	0	0	0	0	0	0	1020	441	0	0	
12	0	0	0	0	0	0	1020	444	0	0	
13	0	0	0	0	0	0	1021	449	0	0	
14	0	0	0	0	0	0	1021	457	0	0	
15	0	0	0	0	0	0	1021	467	0	0	
0	0	0	0	0	0	0	1021	479	0	0	
1	0	0	0	0	0	0	1021	490	0	0	
2	0	0	0	0	0	0	1021	502	0	0	
3	0	0	0	0	0	0	1021	513	0	0	
4	0	0	0	0	0	0	1021	522	0	0	
5	0	0	0	0	0	0	1020	531	0	0	
6	0	0	0	0	0	0	1021	539	0	0	
7	0	0	0	0	0	0	1021	544	0	0	
8	0	0	0	0	0	0	1021	549	0	0	
9	0	0	0	0	0	0	1021	551	0	0	
10	0	0	0	0	0	0	1021	552	0	0	
11	0	0	0	0	0	0	1021	551	0	0	
12	0	0	0	0	0	0	1021	548	0	0	
13	0	0	0	0	0	0	1021	543	0	0	
14	0	0	0	0	0	0	1021	535	0	0	
15	0	0	0	0	0	0	1020	525	0	0	
0	0	0	0	0	0	0	1021	514	0	0	
1	0	0	0	0	0	0	1021	502	0	0	
2	0	0	0	0	0	0	1021	489	0	0	
3	0	0	0	0	0	0	1021	476	0	0	
4	0	0	0	0	0	0	1021	463	0	0	
5	0	0	0	0	0	0	1020	451	0	0	
6	0	0	0	0	0	0	1021	440	0	0	
7	0	0	0	0	0	0	1021	432	0	0	
8	0	0	0	0	0	0	1021	426	0	0	
9	0	0	0	0	0	0	1021	423	0	0	
10	0	0	0	0	0	0	1020	423	0	0	
11	0	0	0	0	0	0	1021	425	0	0	
12	0	0	0	0	0	0	1021	431	0	0	
13	0	0	0	0	0	0	1021	438	0	0	
14	0	0	0	0	0	0	1020	447	0	0	
15	0	0	0	0	0	0	1021	456	0	0	
0	0	0	0	0	0	0	1021	466	0	0	
1	0	0	0	0	0	0	1021	476	0	0	
2	0	0	0	0	0	0	1021	484	0	0	
3	0	0	0	0	0	0	1021	492	0	0	
4	0	0	0	0	0	0	1020	498	0	0	
5	0	0	0	0	0	0	1021	502	0	0	
6	0	0	0	0	0	0	1021	505	0	0	
7	0	0	0	0	0	0	1021	505	0	0	
8	0	0	0	0	0	0	1021	504	0	0	
9	0	0	0	0	0	0	1021	501	0	0	
10	0	0	0	0	0	0	1021	497	0	0	
11	0	0	0	0	0	0	1021	493	0	0	
12	0	0	0	0	0	0	1021	487	0	0	
13	0	0	0	0	0	0	1021	483	0	0	
14	0	0	0	0	0	0	1021	478	0	0	
15	0	0	0	0	0	0	1021	473	0	0	
0	0	0	0	0	0	0	1021	470	0	0	
1	0	0	0	0	0	0	1021	466	0	0	
2	0	0	0	0	0	0	1021	464	0	0	
3	0	0	0	0	0	0	1020	463	0	0	
4	0	0	0	0	0	0	1021	464	0	0	
5	0	0	0	0	0	0	1021	466	0	0	
6	0	0	0	0	0	0	1021	470	0	0	
7	0	0	0	0	0	0	1020	475	0	0	
8	0	0	0	0	0	0	1021	479	0	0	
9	0	0	0	0	0	0	1021	485	0	0	
10	0	0	0	0	0	0	1021	491	0	0	
11	0	0	0	0	0	0	1021	497	0	0	
12	0	0	0	0	0	0	1021	503	0	0	
13	0	0	0	0	0	0	1020	508	0	0	
14	0	0	0	0	0	0	1021	512	0	0	
15	0	0	0	0	0	0	1021	515	0	0	
0	0	0	0	0	0	0	1021	515	0	0	
1	0	0	0	0	0	0	1021	514	0	0	
2	0	0	0	0	0	0	1021	511	0	0	
3	0	0	0	0	0	0	1021	506	0	0	
4	0	0	0	0	0	0	1021	499	0	0	
5	0	0	0	0	0	0	1021	490	0	0	
6	0	0	0	0	0	0	1021	479	0	0	
7	0	0	0	0	0	0	1020	465	0	0	
8	0	0	0	0	0	0	1021	451	0	0	
9	0	0	0	0	0	0	1021	435	0	0	
10	0	0	0	0	0	0	1021	420	0	0	
11	0	0	0	0	0	0	1020	407	0	0	
12	0	0	0	0	0	0	1020	397	0	0	
13	0	0	0	0	0	0	1021	390	0	0	
14	0	0	0	0	0	0	1021	387	0	0	
15	0	0	0	0	0	0	1021	387	0	0	
0	0	0	0	0	0	0	1021	391	0	0	
1	0	0	0	0	0	0	1021	398	0	0	
2	0	0	0	0	0	0	1021	408	0	0	
3	0	0	0	0	0	0	1021	421	0	0	
4	0	0	0	0	0	0	1020	434	0	0	
5	0	0	0	0	0	0	1020	448	0	0	
6	0	0	0	0	0	0	1021	461	0	0	
7	0	0	0	0	0	0	1021	474	0	0	
8	0	0	0	0	0	0	1021	485	0	0	
9	0	0	0	0	0	0	1021	495	0	0	
10	0	0	0	0	0	0	1021	503	0	0	
11	0	0	0	0	0	0	1021	508	0	0	
12	0	0	0	0	0	0	1021	510	0	0	
13	0	0	0	0	0	0	1021	510	0	0	
14	0	0	0	0	0	0	1021	508	0	0	
15	0	0	0	0	0	0	1020	505	0	0	
0	0	0	0	0	0	0	1021	501	0	0	
1	0	0	0	0	0	0	1021	498	0	0	
2	0	0	0	0	0	0	1021	495	0	0	
3	0	0	0	0	0	0	1021	493	0	0	
4	0	0	0	0	0	0	1020	492	0	0	
5	0	0	0	0	0	0	1021	492	0	0	
6	0	0	0	0	0	0	1021	491	0	0	
7	0	0	0	0	0	0	1021	490	0	0	
8	0	0	0	0	0	0	1021	488	0	0	
9	0	0	0	0	0	0	1020	487	0	0	
10	0	0	0	0	0	0	1020	484	0	0	
11	0	0	0	0	0	0	1021	483	0	0	
12	0	0	0	0	0	0	1021	481	0	0	
13	0	0	0	0	0	0	1021	481	0	0	
14	0	0	0	0	0	0	1021	481	0	0	
15	0	0	0	0	0	0	1021	483	0	0	
0	0	0	0	0	0	0	1021	486	0	0	
1	0	0	0	0	0	0	1021	488	0	0	
2	0	0	0	0	0	0	1021	492	0	0	
3	0	0	0	0	0	0	1021	494	0	0	
4	0	0	0	0	0	0	1020	496	0	0	
5	0	0	0	0	0	0	1021	497	0	0	
6	0	0	0	0	0	0	1021	497	0	0	
7	0	0	0	0	0	0	1021	496	0	0	
8	0	0	0	0	0	0	1021	494	0	0	
9	0	0	0	0	0	0	1021	491	0	0	
10	0	0	0	0	0	0	1021	486	0	0	
11	0	0	0	0	0	0	1021	481	0	0	
12	0	0	0	0	0	0	1021	475	0	0	
13	0	0	0	0	0	0	1020	469	0	0	
14	0	0	0	0	0	0	1020	463	0	0	
15	0	0	0	0	0	0	1021	456	0	0	
0	0	0	0	0	0	0	1021	450	0	0	
1	0	0	0	0	0	0	1021	445	0	0	
2	0	0	0	0	0	0	1021	441	0	0	
3	0	0	0	0	0	0	1020	440	0	0	
4	0	0	0	0	0	0	1021	439	0	0	
5	0	0	0	0	0	0	1021	441	0	0	
6	0	0	0	0	0	0	1021	444	0	0	
7	0	0	0	0	0	0	1021	447	0	0	
8	0	0	0	0	0	0	1021	451	0	0	
9	0	0	0	0	0	0	1021	455	0	0	
10	0	0	0	0	0	0	1021	459	0	0	
11	0	0	0	0	0	0	1021	461	0	0	
12	0	0	0	0	0	0	1020	463	0	0	
13	0	0	0	0	0	0	1020	463	0	0	
14	0	0	0	0	0	0	1021	463	0	0	
15	0	0	0	0	0	0	1021	461	0	0	
0	0	0	0	0	0	0	1021	458	0	0	
1	0	0	0	0	0	0	1021	455	0	0	
2	0	0	0	0	0	0	1021	451	0	0	
3	0	0	0	0	0	0	1021	447	0	0	
4	0	0	0	0	0	0	1021	443	0	0	
5	0	0	0	0	0	0	1021	439	0	0	
6	0	0	0	0	0	0	1020	435	0	0	
7	0	0	0	0	0	0	1020	432	0	0	
8	0	0	0	0	0	0	1021	430	0	0	
9	0	0	0	0	0	0	1021	428	0	0	
10	0	0	0	0	0	0	1021	427	0	0	
11	0	0	0	0	0	0	1021	427	0	0	
12	0	0	0	0	0	0	1020	428	0	0	
13	0	0	0	0	0	0	1021	431	0	0	
14	0	0	0	0	0	0	1021	435	0	0	
15	0	0	0	0	0	0	1021	440	0	0	
0	0	0	0	0	0	0	1021	445	0	0	
1	0	0	0	0	0	0	1020	451	0	0	
2	0	0	0	0	0	0	1021	456	0	0	
3	0	0	0	0	0	0	1021	462	0	0	
4	0	0	0	0	0	0	1021	466	0	0	
5	0	0	0	0	0	0	1020	470	0	0	
6	0	0	0	0	0	0	1021	472	0	0	
7	0	0	0	0	0	0	1021	473	0	0	
8	0	0	0	0	0	0	1021	472	0	0	
9	0	0	0	0	0	0	1021	471	0	0	
10	0	0	0	0	0	0	1020	469	0	0	
11	0	0	0	0	0	0	1020	465	0	0	
12	0	0	0	0	0	0	1021	462	0	0	
13	0	0	0	0	0	0	1021	459	0	0	
14	0	0	0	0	0	0	1021	456	0	0	
15	0	0	0	0	0	0	1021	455	0	0	
0	0	0	0	0	0	0	1021	454	0	0	
1	0	0	0	0	0	0	1021	456	0	0	
2	0	0	0	0	0	0	1021	459	0	0	
3	0	0	0	0	0	0	1021	462	0	0	
4	0	0	0	0	0	0	1021	467	0	0	
5	0	0	0	0	0	0	1021	472	0	0	
6	0	0	0	0	0	0	1021	476	0	0	
7	0	0	0	0	0	0	1021	480	0	0	
8	0	0	0	0	0	0	1021	483	0	0	
9	0	0	0	0	0	0	1021	483	0	0	
10	0	0	0	0	0	0	1021	482	0	0	
11	0	0	0	0	0	0	1021	480	0	0	
12	0	0	0	0	0	0	1021	476	0	0	
13	0	0	0	0	0	0	1021	471	0	0	
14	0	0	0	0	0	0	1021	464	0	0	
15	0	0	0	0	0	0	1021	458	0	0	
0	0	0	0	0	0	0	1021	453	0	0	
1	0	0	0	0	0	0	1021	448	0	0	
2	0	0	0	0	0	0	1021	446	0	0	
3	0	0	0	0	0	0	1021	445	0	0	
4	0	0	0	0	0	0	1021	446	0	0	
5	0	0	0	0	0	0	1021	449	0	0	
6	0	0	0	0	0	0	1021	455	0	0	
7	0	0	0	0	0	0	1021	462	0	0	
8	0	0	0	0	0	0	1021	469	0	0	
9	0	0	0	0	0	0	1021	477	0	0	
10	0	0	0	0	0	0	1021	485	0	0	
11	0	0	0	0	0	0	1021	491	0	0	
12	0	0	0	0	0	0	1021	495	0	0	
13	0	0	0	0	0	0	1021	496	0	0	
14	0	0	0	0	0	0	1021	494	0	0	
15	0	0	0	0	0	0	1021	490	0	0	
0	0	0	0	0	0	0	1021	484	0	0	
1	0	0	0	0	0	0	1021	478	0	0	
2	0	0	0	0	0	0	1021	471	0	0	
3	0	0	0	0	0	0	1021	465	0	0	
4	0	0	0	0	0	0	1021	460	0	0	
5	0	0	0	0	0	0	1021	457	0	0	
6	0	0	0	0	0	0	1021	457	0	0	
7	0	0	0	0	0	0	1021	457	0	0	
8	0	0	0	0	0	0	1021	460	0	0	
9	0	0	0	0	0	0	1021	463	0	0	
10	0	0	0	0	0	0	1021	466	0	0	
11	0	0	0	0	0	0	1021	470	0	0	
12	0	0	0	0	0	0	1021	475	0	0	
13	0	0	0	0	0	0	1021	479	0	0	
14	0	0	0	0	0	0	1021	484	0	0	
15	0	0	0	0	0	0	1021	489	0	0	
0	0	0	0	0	0	0	1021	495	0	0	
1	0	0	0	0	0	0	1021	499	0	0	
2	0	0	0	0	0	0	1021	501	0	0	
3	0	0	0	0	0	0	1021	502	0	0	
4	0	0	0	0	0	0	1021	502	0	0	
5	0	0	0	0	0	0	1021	500	0	0	
6	0	0	0	0	0	0	1021	497	0	0	
7	0	0	0	0	0	0	1021	493	0	0	
8	0	0	0	0	0	0	1021	487	0	0	
9	0	0	0	0	0	0	1021	481	0	0	
10	0	0	0	0	0	0	1021	475	0	0	
11	0	0	0	0	0	0	1021	468	0	0	
12	0	0	0	0	0	0	1021	463	0	0	
13	0	0	0	0	0	0	1021	459	0	0	
14	0	0	0	0	0	0	1021	457	0	0	
15	0	0	0	0	0	0	1021	457	0	0	
0	0	0	0	0	0	0	1021	459	0	0	
1	0	0	0	0	0	0	1021	462	0	0	
2	0	0	0	0	0	0	1021	466	0	0	
3	0	0	0	0	0	0	1021	471	0	0	
4	0	0	0	0	0	0	1021	475	0	0	
5	0	0	0	0	0	0	1021	480	0	0	
6	0	0	0	0	0	0	1021	482	0	0	
7	0	0	0	0	0	0	1021	483	0	0	
8	0	0	0	0	0	0	1021	483	0	0	
9	0	0	0	0	0	0	1020	481	0	0	
10	0	0	0	0	0	0	1020	477	0	0	
11	0	0	0	0	0	0	1021	472	0	0	
12	0	0	0	0	0	0	1021	465	0	0	
13	0	0	0	0	0	0	1021	458	0	0	
14	0	0	0	0	0	0	1021	451	0	0	
15	0	0	0	0	0	0	1020	444	0	0	
0	0	0	0	0	0	0	1020	439	0	0	
1	0	0	0	0	0	0	1021	435	0	0	
2	0	0	0	0	0	0	1021	434	0	0	
3	0	0	0	0	0	0	1021	436	0	0	
4	0	0	0	0	0	0	1021	440	0	0	
5	0	0	0	0	0	0	1021	446	0	0	
6	0	0	0	0	0	0	1021	454	0	0	
7	0	0	0	0	0	0	1021	461	0	0	
8	0	0	0	0	0	0	1021	468	0	0	
9	0	0	0	0	0	0	1021	473	0	0	
10	0	0	0	0	0	0	1020	477	0	0	
11	0	0	0	0	0	0	1021	479	0	0	
12	0	0	0	0	0	0	1021	480	0	0	
13	0	0	0	0	0	0	1021	481	0	0	
14	0	0	0	0	0	0	1020	482	0	0	
15	0	0	0	0	0	0	1021	483	0	0	
0	0	0	0	0	0	0	1021	486	0	0	
1	0	0	0	0	0	0	1021	489	0	0	
2	0	0	0	0	0	0	1021	492	0	0	
3	0	0	0	0	0	0	1021	496	0	0	
4	0	0	0	0	0	0	1021	498	0	0	
5	0	0	0	0	0	0	1021	499	0	0	
6	0	0	0	0	0	0	1021	498	0	0	
7	0	0	0	0	0	0	1021	496	0	0	
8	0	0	0	0	0	0	1021	491	0	0	
9	0	0	0	0	0	0	1021	486	0	0	
10	0	0	0	0	0	0	1021	481	0	0	
11	0	0	0	0	0	0	1021	476	0	0	
12	0	0	0	0	0	0	1020	471	0	0	
13	0	0	0	0	0	0	1021	470	0	0	
14	0	0	0	0	0	0	1021	469	0	0	
15	0	0	0	0	0	0	1021	470	0	0	
0	0	0	0	0	0	0	1021	473	0	0	
1	0	0	0	0	0	0	1021	478	0	0	
2	0	0	0	0	0	0	1020	485	0	0	
3	0	0	0	0	0	0	1021	493	0	0	
4	0	0	0	0	0	0	1021	502	0	0	
5	0	0	0	0	0	0	1021	510	0	0	
6	0	0	0	0	0	0	1021	519	0	0	
7	0	0	0	0	0	0	1021	526	0	0	
8	0	0	0	0	0	0	1020	532	0	0	
9	0	0	0	0	0	0	1021	537	0	0	
10	0	0	0	0	0	0	1021	540	0	0	
11	0	0	0	0	0	0	1021	540	0	0	
12	0	0	0	0	0	0	1020	538	0	0	
13	0	0	0	0	0	0	1021	534	0	0	
14	0	0	0	0	0	0	1021	528	0	0	
15	0	0	0	0	0	0	1021	520	0	0	
0	0	0	0	0	0	0	1021	510	0	0	
1	0	0	0	0	0	0	1021	499	0	0	
2	0	0	0	0	0	0	1021	485	0	0	
3	0	0	0	0	0	0	1021	471	0	0	
4	0	0	0	0	0	0	1021	455	0	0	
5	0	0	0	0	0	0	1021	437	0	0	
6	0	0	0	0	0	0	1020	418	0	0	
7	0	0	0	0	0	0	1020	397	0	0	
8	0	0	0	0	0	0	1021	376	0	0	
9	0	0	0	0	0	0	1021	354	0	0	
10	0	0	0	0	0	0	1021	334	0	0	
11	0	0	0	0	0	0	1021	314	0	0	
12	0	0	0	0	0	0	1021	297	0	0	
13	0	0	0	0	0	0	1021	283	0	0	
14	0	0	0	0	0	0	1021	273	0	0	
15	0	0	0	0	0	0	1021	265	0	0	
0	0	0	0	0	0	0	1021	263	0	0	
1	0	0	0	0	0	0	1020	263	0	0	
2	0	0	0	0	0	0	1021	267	0	0	
3	0	0	0	0	0	0	1021	272	0	0	
4	0	0	0	0	0	0	1021	279	0	0	
5	0	0	0	0	0	0	1020	286	0	0	
6	0	0	0	0	0	0	1020	293	0	0	
7	0	0	0	0	0	0	1021	300	0	0	
8	0	0	0	0	0	0	1021	307	0	0	
9	0	0	0	0	0	0	1021	313	0	0	
10	0	0	0	0	0	0	1021	318	0	0	
11	0	0	0	0	0	0	1021	324	0	0	
12	0	0	0	0	0	0	1021	330	0	0	
13	0	0	0	0	0	0	1021	338	0	0	
14	0	0	0	0	0	0	1021	348	0	0	
15	0	0	0	0	0	0	1021	361	0	0	
0	0	0	0	0	0	0	1021	376	0	0	
1	0	0	0	0	0	0	1021	392	0	0	
2	0	0	0	0	0	0	1021	411	0	0	
3	0	0	0	0	0	0	1021	431	0	0	
4	0	0	0	0	0	0	1020	451	0	0	
5	0	0	0	0	0	0	1021	470	0	0	
6	0	0	0	0	0	0	1021	487	0	0	
7	0	0	0	0	0	0	1021	503	0	0	
8	0	0	0	0	0	0	1021	514	0	0	
9	0	0	0	0	0	0	1021	522	0	0	
10	0	0	0	0	0	0	1021	525	0	0	
11	0	0	0	0	0	0	1021	525	0	0	
12	0	0	0	0	0	0	1021	521	0	0	
13	0	0	0	0	0	0	1021	515	0	0	
14	0	0	0	0	0	0	1020	508	0	0	
15	0	0	0	0	0	0	1020	500	0	0	
0	0	0	0	0	0	0	1021	493	0	0	
1	0	0	0	0	0	0	1021	486	0	0	
2	0	0	0	0	0	0	1021	480	0	0	
3	0	0	0	0	0	0	1021	475	0	0	
4	0	0	0	0	0	0	1021	470	0	0	
5	0	0	0	0	0	0	1021	466	0	0	
6	0	0	0	0	0	0	1021	464	0	0	
7	0	0	0	0	0	0	1021	463	0	0	
8	0	0	0	0	0	0	1021	462	0	0	
9	0	0	0	0	0	0	1020	463	0	0	
10	0	0	0	0	0	0	1021	465	0	0	
11	0	0	0	0	0	0	1021	468	0	0	
12	0	0	0	0	0	0	1021	472	0	0	
13	0	0	0	0	0	0	1020	476	0	0	
14	0	0	0	0	0	0	1020	481	0	0	
15	0	0	0	0	0	0	1021	487	0	0	
0	0	0	0	0	0	0	1021	493	0	0	
1	0	0	0	0	0	0	1021	497	0	0	
2	0	0	0	0	0	0	1021	501	0	0	
3	0	0	0	0	0	0	1020	504	0	0	
4	0	0	0	0	0	0	1021	504	0	0	
5	0	0	0	0	0	0	1021	504	0	0	
6	0	0	0	0	0	0	1021	502	0	0	
7	0	0	0	0	0	0	1021	500	0	0	
8	0	0	0	0	0	0	1021	497	0	0	
9	0	0	0	0	0	0	1021	494	0	0	
10	0	0	0	0	0	0	1021	491	0	0	
11	0	0	0	0	0	0	1021	489	0	0	
12	0	0	0	0	0	0	1021	487	0	0	
13	0	0	0	0	0	0	1021	484	0	0	
14	0	0	0	0	0	0	1021	481	0	0	
15	0	0	0	0	0	0	1021	478	0	0	
0	0	0	0	0	0	0	1021	472	0	0	
1	0	0	0	0	0	0	1021	467	0	0	
2	0	0	0	0	0	0	1020	460	0	0	
3	0	0	0	0	0	0	1021	454	0	0	
4	0	0	0	0	0	0	1021	448	0	0	
5	0	0	0	0	0	0	1021	441	0	0	
6	0	0	0	0	0	0	1021	436	0	0	
7	0	0	0	0	0	0	1021	432	0	0	
8	0	0	0	0	0	0	1021	430	0	0	
9	0	0	0	0	0	0	1021	430	0	0	
10	0	0	0	0	0	0	1021	433	0	0	
11	0	0	0	0	0	0	1021	439	0	0	
12	0	0	0	0	0	0	1020	447	0	0	
13	0	0	0	0	0	0	1021	457	0	0	
14	0	0	0	0	0	0	1021	469	0	0	
15	0	0	0	0	0	0	1021	480	0	0	
0	0	0	0	0	0	0	1021	491	0	0	
1	0	0	0	0	0	0	1020	501	0	0	
2	0	0	0	0	0	0	1021	509	0	0	
3	0	0	0	0	0	0	1021	515	0	0	
4	0	0	0	0	0	0	1021	518	0	0	
5	0	0	0	0	0	0	1020	519	0	0	
6	0	0	0	0	0	0	1020	516	0	0	
7	0	0	0	0	0	0	1021	511	0	0	
8	0	0	0	0	0	0	1021	505	0	0	
9	0	0	0	0	0	0	1021	497	0	0	
10	0	0	0	0	0	0	1021	487	0	0	
11	0	0	0	0	0	0	1021	477	0	0	
12	0	0	0	0	0	0	1021	468	0	0	
13	0	0	0	0	0	0	1021	459	0	0	
14	0	0	0	0	0	0	1021	452	0	0	
15	0	0	0	0	0	0	1021	447	0	0	
0	0	0	0	0	0	0	1021	445	0	0	
1	0	0	0	0	0	0	1021	444	0	0	
2	0	0	0	0	0	0	1021	447	0	0	
3	0	0	0	0	0	0	1021	451	0	0	
4	0	0	0	0	0	0	1020	458	0	0	
5	0	0	0	0	0	0	1020	465	0	0	
6	0	0	0	0	0	0	1021	474	0	0	
7	0	0	0	0	0	0	1021	483	0	0	
8	0	0	0	0	0	0	1021	491	0	0	
9	0	0	0	0	0	0	1021	499	0	0	
10	0	0	0	0	0	0	1020	506	0	0	
11	0	0	0	0	0	0	1021	510	0	0	
12	0	0	0	0	0	0	1021	513	0	0	
13	0	0	0	0	0	0	1021	512	0	0	
14	0	0	0	0	0	0	1021	509	0	0	
15	0	0	0	0	0	0	1021	504	0	0	
0	0	0	0	0	0	0	1021	496	0	0	
1	0	0	0	0	0	0	1021	487	0	0	
2	0	0	0	0	0	0	1021	477	0	0	
3	0	0	0	0	0	0	1020	467	0	0	
4	0	0	0	0	0	0	1020	459	0	0	
5	0	0	0	0	0	0	1021	451	0	0	
6	0	0	0	0	0	0	1021	445	0	0	
7	0	0	0	0	0	0	1021	441	0	0	
8	0	0	0	0	0	0	1021	438	0	0	
9	0	0	0	0	0	0	1021	437	0	0	
10	0	0	0	0	0	0	1021	436	0	0	
11	0	0	0	0	0	0	1021	437	0	0	
12	0	0	0	0	0	0	1020	437	0	0	
13	0	0	0	0	0	0	1021	438	0	0	
14	0	0	0	0	0	0	1021	438	0	0	
15	0	0	0	0	0	0	1021	439	0	0	
0	0	0	0	0	0	0	1021	441	0	0	
1	0	0	0	0	0	0	1021	443	0	0	
2	0	0	0	0	0	0	1021	447	0	0	
3	0	0	0	0	0	0	1020	451	0	0	
4	0	0	0	0	0	0	1021	457	0	0	
5	0	0	0	0	0	0	1021	464	0	0	
6	0	0	0	0	0	0	1021	473	0	0	
7	0	0	0	0	0	0	1021	482	0	0	
8	0	0	0	0	0	0	1021	492	0	0	
9	0	0	0	0	0	0	1021	500	0	0	
10	0	0	0	0	0	0	1021	509	0	0	
11	0	0	0	0	0	0	1021	515	0	0	
12	0	0	0	0	0	0	1021	521	0	0	
13	0	0	0	0	0	0	1020	523	0	0	
14	0	0	0	0	0	0	1021	524	0	0	
15	0	0	0	0	0	0	1021	522	0	0	
0	0	0	0	0	0	0	1021	518	0	0	
1	0	0	0	0	0	0	1021	513	0	0	
2	0	0	0	0	0	0	1020	508	0	0	
3	0	0	0	0	0	0	1021	502	0	0	
4	0	0	0	0	0	0	1021	496	0	0	
5	0	0	0	0	0	0	1021	491	0	0	
6	0	0	0	0	0	0	1021	485	0	0	
7	0	0	0	0	0	0	1021	479	0	0	
8	0	0	0	0	0	0	1021	473	0	0	
9	0	0	0	0	0	0	1021	468	0	0	
10	0	0	0	0	0	0	1021	463	0	0	
11	0	0	0	0	0	0	1021	458	0	0	
12	0	0	0	0	0	0	1020	455	0	0	
13	0	0	0	0	0	0	1021	452	0	0	
14	0	0	0	0	0	0	1021	451	0	0	
15	0	0	0	0	0	0	1021	452	0	0	
0	0	0	0	0	0	0	1021	454	0	0	
1	0	0	0	0	0	0	1021	457	0	0	
2	0	0	0	0	0	0	1021	462	0	0	
3	0	0	0	0	0	0	1021	467	0	0	
4	0	0	0	0	0	0	1021	473	0	0	
5	0	0	0	0	0	0	1021	478	0	0	
6	0	0	0	0	0	0	1021	483	0	0	
7	0	0	0	0	0	0	1021	487	0	0	
8	0	0	0	0	0	0	1021	489	0	0	
9	0	0	0	0	0	0	1021	488	0	0	
10	0	0	0	0	0	0	1021	485	0	0	
11	0	0	0	0	0	0	1020	480	0	0	
12	0	0	0	0	0	0	1021	473	0	0	
13	0	0	0	0	0	0	1021	465	0	0	
14	0	0	0	0	0	0	1021	459	0	0	
15	0	0	0	0	0	0	1021	453	0	0	
0	0	0	0	0	0	0	1021	448	0	0	
1	0	0	0	0	0	0	1021	447	0	0	
2	0	0	0	0	0	0	1021	448	0	0	
3	0	0	0	0	0	0	1021	449	0	0	
4	0	0	0	0	0	0	1021	452	0	0	
5	0	0	0	0	0	0	1020	455	0	0	
6	0	0	0	0	0	0	1021	458	0	0	
7	0	0	0	0	0	0	1021	461	0	0	
8	0	0	0	0	0	0	1021	462	0	0	
9	0	0	0	0	0	0	1021	462	0	0	
10	0	0	0	0	0	0	1021	460	0	0	
11	0	0	0	0	0	0	1021	457	0	0	
12	0	0	0	0	0	0	1021	452	0	0	
13	0	0	0	0	0	0	1020	448	0	0	
14	0	0	0	0	0	0	1021	444	0	0	
15	0	0	0	0	0	0	1021	441	0	0	
0	0	0	0	0	0	0	1021	440	0	0	
1	0	0	0	0	0	0	1021	439	0	0	
2	0	0	0	0	0	0	1021	438	0	0	
3	0	0	0	0	0	0	1021	437	0	0	
4	0	0	0	0	0	0	1020	436	0	0	
5	0	0	0	0	0	0	1021	435	0	0	
6	0	0	0	0	0	0	1021	432	0	0	
7	0	0	0	0	0	0	1021	430	0	0	
8	0	0	0	0	0	0	1021	426	0	0	
9	0	0	0	0	0	0	1021	422	0	0	
10	0	0	0	0	0	0	1021	417	0	0	
11	0	0	0	0	0	0	1021	412	0	0	
12	0	0	0	0	0	0	1021	408	0	0	
13	0	0	0	0	0	0	1021	406	0	0	
14	0	0	0	0	0	0	1021	406	0	0	
15	0	0	0	0	0	0	1021	408	0	0	
0	0	0	0	0	0	0	1021	415	0	0	
1	0	0	0	0	0	0	1021	425	0	0	
2	0	0	0	0	0	0	1021	438	0	0	
3	0	0	0	0	0	0	1020	452	0	0	
4	0	0	0	0	0	0	1021	468	0	0	
5	0	0	0	0	0	0	1021	486	0	0	
6	0	0	0	0	0	0	1021	502	0	0	
7	0	0	0	0	0	0	1020	516	0	0	
8	0	0	0	0	0	0	1021	528	0	0	
9	0	0	0	0	0	0	1021	536	0	0	
10	0	0	0	0	0	0	1021	540	0	0	
11	0	0	0	0	0	0	1021	540	0	0	
12	0	0	0	0	0	0	1021	534	0	0	
13	0	0	0	0	0	0	1021	523	0	0	
14	0	0	0	0	0	0	1021	509	0	0	
15	0	0	0	0	0	0	1021	493	0	0	
0	0	0	0	0	0	0	1021	477	0	0	
1	0	0	0	0	0	0	1021	462	0	0	
2	0	0	0	0	0	0	1021	449	0	0	
3	0	0	0	0	0	0	1021	440	0	0	
4	0	0	0	0	0	0	1021	434	0	0	
5	0	0	0	0	0	0	1021	433	0	0	
6	0	0	0	0	0	0	1021	436	0	0	
7	0	0	0	0	0	0	1021	441	0	0	
8	0	0	0	0	0	0	1021	450	0	0	
9	0	0	0	0	0	0	1021	462	0	0	
10	0	0	0	0	0	0	1021	474	0	0	
11	0	0	0	0	0	0	1021	487	0	0	
12	0	0	0	0	0	0	1021	501	0	0	
13	0	0	0	0	0	0	1021	514	0	0	
14	0	0	0	0	0	0	1021	525	0	0	
15	0	0	0	0	0	0	1021	534	0	0	
0	0	0	0	0	0	0	1021	540	0	0	
1	0	0	0	0	0	0	1021	542	0	0	
2	0	0	0	0	0	0	1021	541	0	0	
3	0	0	0	0	0	0	1021	536	0	0	
4	0	0	0	0	0	0	1021	528	0	0	
5	0	0	0	0	0	0	1021	518	0	0	
6	0	0	0	0	0	0	1020	505	0	0	
7	0	0	0	0	0	0	1021	494	0	0	
8	0	0	0	0	0	0	1021	483	0	0	
9	0	0	0	0	0	0	1021	473	0	0	
10	0	0	0	0	0	0	1021	464	0	0	
11	0	0	0	0	0	0	1021	455	0	0	
12	0	0	0	0	0	0	1021	447	0	0	
13	0	0	0	0	0	0	1021	439	0	0	
14	0	0	0	0	0	0	1021	431	0	0	
15	0	0	0	0	0	0	1021	422	0	0	
0	0	0	0	0	0	0	1021	414	0	0	
1	0	0	0	0	0	0	1021	408	0	0	
2	0	0	0	0	0	0	1021	405	0	0	
3	0	0	0	0	0	0	1021	405	0	0	
4	0	0	0	0	0	0	1021	408	0	0	
5	0	0	0	0	0	0	1020	415	0	0	
6	0	0	0	0	0	0	1021	426	0	0	
7	0	0	0	0	0	0	1021	439	0	0	
8	0	0	0	0	0	0	1021	454	0	0	
9	0	0	0	0	0	0	1021	468	0	0	
10	0	0	0	0	0	0	1021	482	0	0	
11	0	0	0	0	0	0	1021	494	0	0	
12	0	0	0	0	0	0	1021	504	0	0	
13	0	0	0	0	0	0	1021	510	0	0	
14	0	0	0	0	0	0	1021	514	0	0	
15	0	0	0	0	0	0	1021	516	0	0	
0	0	0	0	0	0	0	1021	516	0	0	
1	0	0	0	0	0	0	1021	515	0	0	
2	0	0	0	0	0	0	1021	513	0	0	
3	0	0	0	0	0	0	1021	511	0	0	
4	0	0	0	0	0	0	1020	510	0	0	
5	0	0	0	0	0	0	1021	508	0	0	
6	0	0	0	0	0	0	1021	505	0	0	
7	0	0	0	0	0	0	1021	501	0	0	
8	0	0	0	0	0	0	1021	497	0	0	
9	0	0	0	0	0	0	1021	491	0	0	
10	0	0	0	0	0	0	1021	485	0	0	
11	0	0	0	0	0	0	1021	479	0	0	
12	0	0	0	0	0	0	1020	472	0	0	
13	0	0	0	0	0	0	1021	467	0	0	
14	0	0	0	0	0	0	1021	462	0	0	
15	0	0	0	0	0	0	1021	458	0	0	
0	0	0	0	0	0	0	1021	457	0	0	
1	0	0	0	0	0	0	1021	459	0	0	
2	0	0	0	0	0	0	1021	462	0	0	
3	0	0	0	0	0	0	1020	467	0	0	
4	0	0	0	0	0	0	1021	475	0	0	
5	0	0	0	0	0	0	1021	484	0	0	
6	0	0	0	0	0	0	1021	493	0	0	
7	0	0	0	0	0	0	1021	502	0	0	
8	0	0	0	0	0	0	1021	508	0	0	
9	0	0	0	0	0	0	1021	513	0	0	
10	0	0	0	0	0	0	1021	515	0	0	
11	0	0	0	0	0	0	1021	514	0	0	
12	0	0	0	0	0	0	1020	511	0	0	
13	0	0	0	0	0	0	1021	506	0	0	
14	0	0	0	0	0	0	1021	500	0	0	
15	0	0	0	0	0	0	1021	494	0	0	
0	0	0	0	0	0	0	1021	487	0	0	
1	0	0	0	0	0	0	1021	482	0	0	
2	0	0	0	0	0	0	1021	477	0	0	
3	0	0	0	0	0	0	1021	473	0	0	
4	0	0	0	0	0	0	1021	471	0	0	
5	0	0	0	0	0	0	1021	470	0	0	
6	0	0	0	0	0	0	1021	468	0	0	
7	0	0	0	0	0	0	1021	467	0	0	
8	0	0	0	0	0	0	1021	465	0	0	
9	0	0	0	0	0	0	1021	463	0	0	
10	0	0	0	0	0	0	1021	460	0	0	
11	0	0	0	0	0	0	1021	457	0	0	
12	0	0	0	0	0	0	1021	456	0	0	
13	0	0	0	0	0	0	1021	457	0	0	
14	0	0	0	0	0	0	1021	459	0	0	
15	0	0	0	0	0	0	1021	463	0	0	
0	0	0	0	0	0	0	1021	468	0	0	
1	0	0	0	0	0	0	1021	475	0	0	
2	0	0	0	0	0	0	1021	481	0	0	
3	0	0	0	0	0	0	1021	488	0	0	
4	0	0	0	0	0	0	1021	496	0	0	
5	0	0	0	0	0	0	1021	504	0	0	
6	0	0	0	0	0	0	1021	511	0	0	
7	0	0	0	0	0	0	1021	518	0	0	
8	0	0	0	0	0	0	1021	523	0	0	
9	0	0	0	0	0	0	1021	526	0	0	
10	0	0	0	0	0	0	1021	526	0	0	
11	0	0	0	0	0	0	1020	524	0	0	
12	0	0	0	0	0	0	1021	519	0	0	
13	0	0	0	0	0	0	1021	513	0	0	
14	0	0	0	0	0	0	1021	505	0	0	
15	0	0	0	0	0	0	1021	496	0	0	
0	0	0	0	0	0	0	1021	487	0	0	
1	0	0	0	0	0	0	1021	478	0	0	
2	0	0	0	0	0	0	1021	472	0	0	
3	0	0	0	0	0	0	1021	466	0	0	
4	0	0	0	0	0	0	1020	463	0	0	
5	0	0	0	0	0	0	1020	461	0	0	
6	0	0	0	0	0	0	1021	461	0	0	
7	0	0	0	0	0	0	1021	462	0	0	
8	0	0	0	0	0	0	1021	463	0	0	
9	0	0	0	0	0	0	1021	464	0	0	
10	0	0	0	0	0	0	1021	465	0	0	
11	0	0	0	0	0	0	1021	464	0	0	
12	0	0	0	0	0	0	1021	463	0	0	
13	0	0	0	0	0	0	1020	460	0	0	
14	0	0	0	0	0	0	1021	458	0	0	
15	0	0	0	0	0	0	1021	455	0	0	
0	0	0	0	0	0	0	1021	451	0	0	
1	0	0	0	0	0	0	1021	448	0	0	
2	0	0	0	0	0	0	1021	444	0	0	
3	0	0	0	0	0	0	1021	442	0	0	
4	0	0	0	0	0	0	1020	441	0	0	
5	0	0	0	0	0	0	1021	443	0	0	
6	0	0	0	0	0	0	1021	447	0	0	
7	0	0	0	0	0	0	1021	454	0	0	
8	0	0	0	0	0	0	1021	463	0	0	
9	0	0	0	0	0	0	1021	473	0	0	
10	0	0	0	0	0	0	1021	484	0	0	
11	0	0	0	0	0	0	1021	495	0	0	
12	0	0	0	0	0	0	1021	503	0	0	
13	0	0	0	0	0	0	1021	510	0	0	
14	0	0	0	0	0	0	1021	515	0	0	
15	0	0	0	0	0	0	1021	517	0	0	
0	0	0	0	0	0	0	1021	519	0	0	
1	0	0	0	0	0	0	1021	519	0	0	
2	0	0	0	0	0	0	1021	519	0	0	
3	0	0	0	0	0	0	1021	518	0	0	
4	0	0	0	0	0	0	1021	518	0	0	
5	0	0	0	0	0	0	1021	518	0	0	
6	0	0	0	0	0	0	1021	517	0	0	
7	0	0	0	0	0	0	1021	515	0	0	
8	0	0	0	0	0	0	1021	511	0	0	
9	0	0	0	0	0	0	1021	505	0	0	
10	0	0	0	0	0	0	1021	498	0	0	
11	0	0	0	0	0	0	1021	488	0	0	
12	0	0	0	0	0	0	1021	477	0	0	
13	0	0	0	0	0	0	1021	464	0	0	
14	0	0	0	0	0	0	1021	453	0	0	
15	0	0	0	0	0	0	1021	441	0	0	
0	0	0	0	0	0	0	1021	432	0	0	
1	0	0	0	0	0	0	1021	423	0	0	
2	0	0	0	0	0	0	1020	417	0	0	
3	0	0	0	0	0	0	1021	413	0	0	
4	0	0	0	0	0	0	1021	412	0	0	
5	0	0	0	0	0	0	1021	413	0	0	
6	0	0	0	0	0	0	1021	415	0	0	
7	0	0	0	0	0	0	1021	419	0	0	
8	0	0	0	0	0	0	1021	425	0	0	
9	0	0	0	0	0	0	1021	433	0	0	
10	0	0	0	0	0	0	1021	442	0	0	
11	0	0	0	0	0	0	1021	452	0	0	
12	0	0	0	0	0	0	1020	464	0	0	
13	0	0	0	0	0	0	1021	476	0	0	
14	0	0	0	0	0	0	1021	487	0	0	
15	0	0	0	0	0	0	1021	497	0	0	
0	0	0	0	0	0	0	1021	505	0	0	
1	0	0	0	0	0	0	1021	512	0	0	
2	0	0	0	0	0	0	1021	518	0	0	
3	0	0	0	0	0	0	1021	522	0	0	
4	0	0	0	0	0	0	1021	524	0	0	
5	0	0	0	0	0	0	1021	525	0	0	
6	0	0	0	0	0	0	1021	524	0	0	
7	0	0	0	0	0	0	1021	522	0	0	
8	0	0	0	0	0	0	1021	518	0	0	
9	0	0	0	0	0	0	1021	513	0	0	
10	0	0	0	0	0	0	1021	507	0	0	
11	0	0	0	0	0	0	1021	501	0	0	
12	0	0	0	0	0	0	1021	494	0	0	
13	0	0	0	0	0	0	1021	487	0	0	
14	0	0	0	0	0	0	1021	482	0	0	
15	0	0	0	0	0	0	1021	477	0	0	
0	0	0	0	0	0	0	1021	475	0	0	
1	0	0	0	0	0	0	1021	474	0	0	
2	0	0	0	0	0	0	1021	475	0	0	
3	0	0	0	0	0	0	1021	478	0	0	
4	0	0	0	0	0	0	1021	480	0	0	
5	0	0	0	0	0	0	1020	483	0	0	
6	0	0	0	0	0	0	1021	484	0	0	
7	0	0	0	0	0	0	1021	486	0	0	
8	0	0	0	0	0	0	1021	484	0	0	
9	0	0	0	0	0	0	1021	483	0	0	
10	0	0	0	0	0	0	1021	480	0	0	
11	0	0	0	0	0	0	1021	476	0	0	
12	0	0	0	0	0	0	1021	472	0	0	
13	0	0	0	0	0	0	1021	468	0	0	
14	0	0	0	0	0	0	1021	465	0	0	
15	0	0	0	0	0	0	1021	463	0	0	
0	0	0	0	0	0	0	1021	463	0	0	
1	0	0	0	0	0	0	1021	465	0	0	
2	0	0	0	0	0	0	1021	469	0	0	
3	0	0	0	0	0	0	1021	475	0	0	
4	0	0	0	0	0	0	1021	482	0	0	
5	0	0	0	0	0	0	1021	490	0	0	
6	0	0	0	0	0	0	1021	497	0	0	
7	0	0	0	0	0	0	1021	502	0	0	
8	0	0	0	0	0	0	1021	505	0	0	
9	0	0	0	0	0	0	1021	504	0	0	
10	0	0	0	0	0	0	1021	501	0	0	
11	0	0	0	0	0	0	1021	495	0	0	
12	0	0	0	0	0	0	1020	486	0	0	
13	0	0	0	0	0	0	1021	477	0	0	
14	0	0	0	0	0	0	1021	467	0	0	
15	0	0	0	0	0	0	1021	459	0	0	
0	0	0	0	0	0	0	1021	451	0	0	
1	0	0	0	0	0	0	1021	446	0	0	
2	0	0	0	0	0	0	1021	444	0	0	
3	0	0	0	0	0	0	1021	444	0	0	
4	0	0	0	0	0	0	1021	447	0	0	
5	0	0	0	0	0	0	1021	451	0	0	
6	0	0	0	0	0	0	1021	457	0	0	
7	0	0	0	0	0	0	1021	464	0	0	
8	0	0	0	0	0	0	1021	470	0	0	
9	0	0	0	0	0	0	1021	477	0	0	
10	0	0	0	0	0	0	1021	483	0	0	
11	0	0	0	0	0	0	1021	488	0	0	
12	0	0	0	0	0	0	1021	492	0	0	
13	0	0	0	0	0	0	1021	496	0	0	
14	0	0	0	0	0	0	1021	498	0	0	
15	0	0	0	0	0	0	1021	499	0	0	
0	0	0	0	0	0	0	1021	498	0	0	
1	0	0	0	0	0	0	1021	496	0	0	
2	0	0	0	0	0	0	1020	492	0	0	
3	0	0	0	0	0	0	1021	489	0	0	
4	0	0	0	0	0	0	1021	487	0	0	
5	0	0	0	0	0	0	1021	485	0	0	
6	0	0	0	0	0	0	1021	486	0	0	
7	0	0	0	0	0	0	1021	487	0	0	
8	0	0	0	0	0	0	1021	491	0	0	
9	0	0	0	0	0	0	1021	495	0	0	
10	0	0	0	0	0	0	1021	500	0	0	
11	0	0	0	0	0	0	1021	505	0	0	
12	0	0	0	0	0	0	1021	511	0	0	
13	0	0	0	0	0	0	1021	515	0	0	
14	0	0	0	0	0	0	1021	520	0	0	
15	0	0	0	0	0	0	1021	525	0	0	
0	0	0	0	0	0	0	1021	529	0	0	
1	0	0	0	0	0	0	1021	532	0	0	
2	0	0	0	0	0	0	1021	536	0	0	
3	0	0	0	0	0	0	1021	539	0	0	
4	0	0	0	0	0	0	1021	540	0	0	
5	0	0	0	0	0	0	1021	540	0	0	
6	0	0	0	0	0	0	1021	539	0	0	
7	0	0	0	0	0	0	1021	535	0	0	
8	0	0	0	0	0	0	1021	529	0	0	
9	0	0	0	0	0	0	1021	523	0	0	
10	0	0	0	0	0	0	1021	514	0	0	
11	0	0	0	0	0	0	1021	504	0	0	
12	0	0	0	0	0	0	1021	493	0	0	
13	0	0	0	0	0	0	1021	482	0	0	
14	0	0	0	0	0	0	1021	471	0	0	
15	0	0	0	0	0	0	1021	460	0	0	
0	0	0	0	0	0	0	1021	451	0	0	
1	0	0	0	0	0	0	1021	444	0	0	
2	0	0	0	0	0	0	1021	440	0	0	
3	0	0	0	0	0	0	1021	439	0	0	
4	0	0	0	0	0	0	1021	441	0	0	
5	0	0	0	0	0	0	1021	445	0	0	
6	0	0	0	0	0	0	1021	451	0	0	
7	0	0	0	0	0	0	1021	460	0	0	
8	0	0	0	0	0	0	1021	468	0	0	
9	0	0	0	0	0	0	1021	477	0	0	
10	0	0	0	0	0	0	1021	483	0	0	
11	0	0	0	0	0	0	1021	489	0	0	
12	0	0	0	0	0	0	1021	493	0	0	
13	0	0	0	0	0	0	1021	495	0	0	
14	0	0	0	0	0	0	1021	494	0	0	
15	0	0	0	0	0	0	1021	491	0	0	
0	0	0	0	0	0	0	1021	487	0	0	
1	0	0	0	0	0	0	1021	481	0	0	
2	0	0	0	0	0	0	1021	474	0	0	
3	0	0	0	0	0	0	1021	468	0	0	
4	0	0	0	0	0	0	1021	462	0	0	
5	0	0	0	0	0	0	1021	459	0	0	
6	0	0	0	0	0	0	1021	458	0	0	
7	0	0	0	0	0	0	1021	461	0	0	
8	0	0	0	0	0	0	1021	466	0	0	
9	0	0	0	0	0	0	1021	474	0	0	
10	0	0	0	0	0	0	1021	483	0	0	
11	0	0	0	0	0	0	1021	495	0	0	
12	0	0	0	0	0	0	1021	505	0	0	
13	0	0	0	0	0	0	1021	516	0	0	
14	0	0	0	0	0	0	1021	525	0	0	
15	0	0	0	0	0	0	1021	531	0	0	
0	0	0	0	0	0	0	1021	535	0	0	
1	0	0	0	0	0	0	1021	535	0	0	
2	0	0	0	0	0	0	1021	532	0	0	
3	0	0	0	0	0	0	1021	526	0	0	
4	0	0	0	0	0	0	1021	518	0	0	
5	0	0	0	0	0	0	1021	509	0	0	
6	0	0	0	0	0	0	1021	501	0	0	
7	0	0	0	0	0	0	1021	494	0	0	
8	0	0	0	0	0	0	1021	489	0	0	
9	0	0	0	0	0	0	1021	487	0	0	
10	0	0	0	0	0	0	1021	488	0	0	
11	0	0	0	0	0	0	1021	492	0	0	
12	0	0	0	0	0	0	1021	498	0	0	
13	0	0	0	0	0	0	1021	506	0	0	
14	0	0	0	0	0	0	1021	514	0	0	
15	0	0	0	0	0	0	1021	522	0	0	
0	0	0	0	0	0	0	1021	529	0	0	
1	0	0	0	0	0	0	1021	534	0	0	
2	0	0	0	0	0	0	1021	536	0	0	
3	0	0	0	0	0	0	1021	535	0	0	
4	0	0	0	0	0	0	1021	530	0	0	
5	0	0	0	0	0	0	1021	523	0	0	
6	0	0	0	0	0	0	1021	513	0	0	
7	0	0	0	0	0	0	1021	503	0	0	
8	0	0	0	0	0	0	1021	492	0	0	
9	0	0	0	0	0	0	1021	481	0	0	
10	0	0	0	0	0	0	1021	473	0	0	
11	0	0	0	0	0	0	1021	467	0	0	
12	0	0	0	0	0	0	1021	464	0	0	
13	0	0	0	0	0	0	1021	463	0	0	
14	0	0	0	0	0	0	1021	464	0	0	
15	0	0	0	0	0	0	1021	467	0	0	
0	0	0	0	0	0	0	1021	470	0	0	
1	0	0	0	0	0	0	1021	473	0	0	
2	0	0	0	0	0	0	1021	476	0	0	
3	0	0	0	0	0	0	1021	478	0	0	
4	0	0	0	0	0	0	1021	479	0	0	
5	0	0	0	0	0	0	1021	480	0	0	
6	0	0	0	0	0	0	1021	480	0	0	
7	0	0	0	0	0	0	1021	480	0	0	
8	0	0	0	0	0	0	1021	479	0	0	
9	0	0	0	0	0	0	1021	479	0	0	
10	0	0	0	0	0	0	1021	479	0	0	
11	0	0	0	0	0	0	1021	480	0	0	
12	0	0	0	0	0	0	1021	481	0	0	
13	0	0	0	0	0	0	1021	483	0	0	
14	0	0	0	0	0	0	1021	487	0	0	
15	0	0	0	0	0	0	1021	490	0	0	
0	0	0	0	0	0	0	1021	494	0	0	
1	0	0	0	0	0	0	1021	497	0	0	
2	0	0	0	0	0	0	1021	502	0	0	
3	0	0	0	0	0	0	1021	506	0	0	
4	0	0	0	0	0	0	1021	509	0	0	
5	0	0	0	0	0	0	1021	512	0	0	
6	0	0	0	0	0	0	1021	513	0	0	
7	0	0	0	0	0	0	1021	512	0	0	
8	0	0	0	0	0	0	1021	511	0	0	
9	0	0	0	0	0	0	1021	508	0	0	
10	0	0	0	0	0	0	1021	504	0	0	
11	0	0	0	0	0	0	1021	498	0	0	
12	0	0	0	0	0	0	1021	493	0	0	
13	0	0	0	0	0	0	1021	487	0	0	
14	0	0	0	0	0	0	1021	483	0	0	
15	0	0	0	0	0	0	1020	479	0	0	
0	0	0	0	0	0	0	1021	476	0	0	
1	0	0	0	0	0	0	1021	476	0	0	
2	0	0	0	0	0	0	1021	478	0	0	
3	0	0	0	0	0	0	1021	481	0	0	
4	0	0	0	0	0	0	1021	486	0	0	
5	0	0	0	0	0	0	1021	493	0	0	
6	0	0	0	0	0	0	1021	501	0	0	
7	0	0	0	0	0	0	1021	510	0	0	
8	0	0	0	0	0	0	1021	519	0	0	
9	0	0	0	0	0	0	1021	527	0	0	
10	0	0	0	0	0	0	1021	535	0	0	
11	0	0	0	0	0	0	1021	541	0	0	
12	0	0	0	0	0	0	1020	545	0	0	
13	0	0	0	0	0	0	1021	548	0	0	
14	0	0	0	0	0	0	1021	549	0	0	
15	0	0	0	0	0	0	1021	548	0	0	
0	0	0	0	0	0	0	1021	545	0	0	
1	0	0	0	0	0	0	1021	540	0	0	
2	0	0	0	0	0	0	1021	532	0	0	
3	0	0	0	0	0	0	1021	521	0	0	
4	0	0	0	0	0	0	1021	507	0	0	
5	0	0	0	0	0	0	1021	489	0	0	
6	0	0	0	0	0	0	1021	470	0	0	
7	0	0	0	0	0	0	1021	447	0	0	
8	0	0	0	0	0	0	1021	424	0	0	
9	0	0	0	0	0	0	1021	400	0	0	
10	0	0	0	0	0	0	1021	378	0	0	
11	0	0	0	0	0	0	1021	358	0	0	
12	0	0	0	0	0	0	1021	340	0	0	
13	0	0	0	0	0	0	1021	327	0	0	
14	0	0	0	0	0	0	1021	317	0	0	
15	0	0	0	0	0	0	1021	312	0	0	
0	0	0	0	0	0	0	1021	310	0	0	
1	0	0	0	0	0	0	1021	311	0	0	
2	0	0	0	0	0	0	1021	314	0	0	
3	0	0	0	0	0	0	1021	317	0	0	
4	0	0	0	0	0	0	1021	320	0	0	
5	0	0	0	0	0	0	1021	322	0	0	
6	0	0	0	0	0	0	1021	322	0	0	
7	0	0	0	0	0	0	1021	321	0	0	
8	0	0	0	0	0	0	1021	318	0	0	
9	0	0	0	0	0	0	1021	314	0	0	
10	0	0	0	0	0	0	1021	311	0	0	
11	0	0	0	0	0	0	1021	309	0	0	
12	0	0	0	0	0	0	1021	310	0	0	
13	0	0	0	0	0	0	1021	313	0	0	
14	0	0	0	0	0	0	1021	321	0	0	
15	0	0	0	0	0	0	1021	332	0	0	
0	0	0	0	0	0	0	1021	347	0	0	
1	0	0	0	0	0	0	1021	366	0	0	
2	0	0	0	0	0	0	1021	387	0	0	
3	0	0	0	0	0	0	1021	412	0	0	
4	0	0	0	0	0	0	1021	436	0	0	
5	0	0	0	0	0	0	1021	461	0	0	
6	0	0	0	0	0	0	1021	483	0	0	
7	0	0	0	0	0	0	1021	504	0	0	
8	0	0	0	0	0	0	1021	521	0	0	
9	0	0	0	0	0	0	1021	534	0	0	
10	0	0	0	0	0	0	1021	542	0	0	
11	0	0	0	0	0	0	1021	546	0	0	
12	0	0	0	0	0	0	1021	546	0	0	
13	0	0	0	0	0	0	1021	542	0	0	
14	0	0	0	0	0	0	1021	537	0	0	
15	0	0	0	0	0	0	1021	530	0	0	
0	0	0	0	0	0	0	1021	523	0	0	
1	0	0	0	0	0	0	1021	515	0	0	
2	0	0	0	0	0	0	1021	509	0	0	
3	0	0	0	0	0	0	1021	504	0	0	
4	0	0	0	0	0	0	1021	502	0	0	
5	0	0	0	0	0	0	1020	502	0	0	
6	0	0	0	0	0	0	1021	504	0	0	
7	0	0	0	0	0	0	1021	508	0	0	
8	0	0	0	0	0	0	1021	513	0	0	
9	0	0	0	0	0	0	1021	519	0	0	
10	0	0	0	0	0	0	1021	522	0	0	
11	0	0	0	0	0	0	1021	524	0	0	
12	0	0	0	0	0	0	1021	524	0	0	
13	0	0	0	0	0	0	1021	520	0	0	
14	0	0	0	0	0	0	1021	515	0	0	
15	0	0	0	0	0	0	1020	507	0	0	
0	0	0	0	0	0	0	1021	499	0	0	
1	0	0	0	0	0	0	1021	492	0	0	
2	0	0	0	0	0	0	1021	486	0	0	
3	0	0	0	0	0	0	1021	482	0	0	
4	0	0	0	0	0	0	1020	480	0	0	
5	0	0	0	0	0	0	1021	481	0	0	
6	0	0	0	0	0	0	1021	484	0	0	
7	0	0	0	0	0	0	1021	488	0	0	
8	0	0	0	0	0	0	1021	494	0	0	
9	0	0	0	0	0	0	1021	502	0	0	
10	0	0	0	0	0	0	1021	509	0	0	
11	0	0	0	0	0	0	1021	516	0	0	
12	0	0	0	0	0	0	1021	521	0	0	
13	0	0	0	0	0	0	1021	526	0	0	
14	0	0	0	0	0	0	1020	528	0	0	
15	0	0	0	0	0	0	1021	528	0	0	
0	0	0	0	0	0	0	1021	525	0	0	
1	0	0	0	0	0	0	1021	521	0	0	
2	0	0	0	0	0	0	1021	513	0	0	
3	0	0	0	0	0	0	1021	505	0	0	
4	0	0	0	0	0	0	1021	496	0	0	
5	0	0	0	0	0	0	1021	488	0	0	
6	0	0	0	0	0	0	1021	481	0	0	
7	0	0	0	0	0	0	1021	476	0	0	
8	0	0	0	0	0	0	1021	471	0	0	
9	0	0	0	0	0	0	1021	469	0	0	
10	0	0	0	0	0	0	1021	469	0	0	
11	0	0	0	0	0	0	1021	472	0	0	
12	0	0	0	0	0	0	1021	476	0	0	
13	0	0	0	0	0	0	1020	482	0	0	
14	0	0	0	0	0	0	1021	488	0	0	
15	0	0	0	0	0	0	1021	496	0	0	
0	0	0	0	0	0	0	1021	504	0	0	
1	0	0	0	0	0	0	1021	511	0	0	
2	0	0	0	0	0	0	1020	518	0	0	
3	0	0	0	0	0	0	1021	523	0	0	
4	0	0	0	0	0	0	1021	528	0	0	
5	0	0	0	0	0	0	1021	532	0	0	
6	0	0	0	0	0	0	1021	534	0	0	
7	0	0	0	0	0	0	1021	535	0	0	
8	0	0	0	0	0	0	1021	533	0	0	
9	0	0	0	0	0	0	1021	530	0	0	
10	0	0	0	0	0	0	1021	526	0	0	
11	0	0	0	0	0	0	1021	520	0	0	
12	0	0	0	0	0	0	1020	515	0	0	
13	0	0	0	0	0	0	1021	510	0	0	
14	0	0	0	0	0	0	1021	508	0	0	
15	0	0	0	0	0	0	1021	507	0	0	
0	0	0	0	0	0	0	1021	508	0	0	
1	0	0	0	0	0	0	1021	510	0	0	
2	0	0	0	0	0	0	1021	514	0	0	
3	0	0	0	0	0	0	1021	519	0	0	
4	0	0	0	0	0	0	1021	523	0	0	
5	0	0	0	0	0	0	1021	527	0	0	
6	0	0	0	0	0	0	1021	529	0	0	
7	0	0	0	0	0	0	1021	531	0	0	
8	0	0	0	0	0	0	1021	531	0	0	
9	0	0	0	0	0	0	1021	531	0	0	
10	0	0	0	0	0	0	1021	528	0	0	
11	0	0	0	0	0	0	1021	524	0	0	
12	0	0	0	0	0	0	1021	518	0	0	
13	0	0	0	0	0	0	1021	512	0	0	
14	0	0	0	0	0	0	1021	505	0	0	
15	0	0	0	0	0	0	1021	499	0	0	
0	0	0	0	0	0	0	1020	492	0	0	
1	0	0	0	0	0	0	1021	487	0	0	
2	0	0	0	0	0	0	1021	482	0	0	
3	0	0	0	0	0	0	1021	480	0	0	
4	0	0	0	0	0	0	1021	479	0	0	
5	0	0	0	0	0	0	1021	479	0	0	
6	0	0	0	0	0	0	1021	480	0	0	
7	0	0	0	0	0	0	1021	484	0	0	
8	0	0	0	0	0	0	1021	489	0	0	
9	0	0	0	0	0	0	1021	496	0	0	
10	0	0	0	0	0	0	1021	504	0	0	
11	0	0	0	0	0	0	1021	513	0	0	
12	0	0	0	0	0	0	1021	522	0	0	
13	0	0	0	0	0	0	1021	531	0	0	
14	0	0	0	0	0	0	1021	540	0	0	
15	0	0	0	0	0	0	1021	546	0	0	
0	0	0	0	0	0	0	1021	550	0	0	
1	0	0	0	0	0	0	1021	551	0	0	
2	0	0	0	0	0	0	1021	548	0	0	
3	0	0	0	0	0	0	1021	542	0	0	
4	0	0	0	0	0	0	1021	532	0	0	
5	0	0	0	0	0	0	1021	519	0	0	
6	0	0	0	0	0	0	1021	505	0	0	
7	0	0	0	0	0	0	1021	492	0	0	
8	0	0	0	0	0	0	1021	480	0	0	
9	0	0	0	0	0	0	1021	470	0	0	
10	0	0	0	0	0	0	1021	463	0	0	
11	0	0	0	0	0	0	1021	460	0	0	
12	0	0	0	0	0	0	1020	460	0	0	
13	0	0	0	0	0	0	1021	463	0	0	
14	0	0	0	0	0	0	1021	469	0	0	
15	0	0	0	0	0	0	1021	477	0	0	
0	0	0	0	0	0	0	1021	487	0	0	
1	0	0	0	0	0	0	1021	498	0	0	
2	0	0	0	0	0	0	1021	509	0	0	
3	0	0	0	0	0	0	1021	519	0	0	
4	0	0	0	0	0	0	1021	528	0	0	
5	0	0	0	0	0	0	1021	536	0	0	
6	0	0	0	0	0	0	1021	542	0	0	
7	0	0	0	0	0	0	1021	548	0	0	
8	0	0	0	0	0	0	1021	553	0	0	
9	0	0	0	0	0	0	1021	557	0	0	
10	0	0	0	0	0	0	1021	560	0	0	
11	0	0	0	0	0	0	1021	563	0	0	
12	0	0	0	0	0	0	1021	563	0	0	
13	0	0	0	0	0	0	1021	561	0	0	
14	0	0	0	0	0	0	1021	556	0	0	
15	0	0	0	0	0	0	1021	549	0	0	
0	0	0	0	0	0	0	1021	539	0	0	
1	0	0	0	0	0	0	1021	527	0	0	
2	0	0	0	0	0	0	1021	513	0	0	
3	0	0	0	0	0	0	1021	498	0	0	
4	0	0	0	0	0	0	1021	483	0	0	
5	0	0	0	0	0	0	1021	469	0	0	
6	0	0	0	0	0	0	1021	458	0	0	
7	0	0	0	0	0	0	1021	448	0	0	
8	0	0	0	0	0	0	1021	443	0	0	
9	0	0	0	0	0	0	1021	440	0	0	
10	0	0	0	0	0	0	1021	440	0	0	
11	0	0	0	0	0	0	1021	444	0	0	
12	0	0	0	0	0	0	1021	448	0	0	
13	0	0	0	0	0	0	1021	455	0	0	
14	0	0	0	0	0	0	1021	464	0	0	
15	0	0	0	0	0	0	1021	473	0	0	
0	0	0	0	0	0	0	1021	481	0	0	
1	0	0	0	0	0	0	1020	490	0	0	
2	0	0	0	0	0	0	1021	497	0	0	
3	0	0	0	0	0	0	1021	503	0	0	
4	0	0	0	0	0	0	1021	507	0	0	
5	0	0	0	0	0	0	1021	508	0	0	
6	0	0	0	0	0	0	1020	506	0	0	
7	0	0	0	0	0	0	1021	502	0	0	
8	0	0	0	0	0	0	1021	495	0	0	
9	0	0	0	0	0	0	1021	487	0	0	
10	0	0	0	0	0	0	1021	478	0	0	
11	0	0	0	0	0	0	1021	469	0	0	
12	0	0	0	0	0	0	1021	461	0	0	
13	0	0	0	0	0	0	1021	455	0	0	
14	0	0	0	0	0	0	1021	453	0	0	
15	0	0	0	0	0	0	1021	453	0	0	
0	0	0	0	0	0	0	1021	456	0	0	
1	0	0	0	0	0	0	1021	462	0	0	
2	0	0	0	0	0	0	1021	470	0	0	
3	0	0	0	0	0	0	1021	479	0	0	
4	0	0	0	0	0	0	1021	488	0	0	
5	0	0	0	0	0	0	1021	497	0	0	
6	0	0	0	0	0	0	1021	504	0	0	
7	0	0	0	0	0	0	1021	509	0	0	
8	0	0	0	0	0	0	1021	512	0	0	
9	0	0	0	0	0	0	1021	514	0	0	
10	0	0	0	0	0	0	1021	514	0	0	
11	0	0	0	0	0	0	1021	513	0	0	
12	0	0	0	0	0	0	1021	511	0	0	
13	0	0	0	0	0	0	1021	508	0	0	
14	0	0	0	0	0	0	1021	506	0	0	
15	0	0	0	0	0	0	1021	504	0	0	
0	0	0	0	0	0	0	1021	504	0	0	
1	0	0	0	0	0	0	1021	504	0	0	
2	0	0	0	0	0	0	1021	507	0	0	
3	0	0	0	0	0	0	1021	510	0	0	
4	0	0	0	0	0	0	1020	515	0	0	
5	0	0	0	0	0	0	1021	521	0	0	
6	0	0	0	0	0	0	1021	528	0	0	
7	0	0	0	0	0	0	1021	536	0	0	
8	0	0	0	0	0	0	1021	543	0	0	
9	0	0	0	0	0	0	1021	547	0	0	
10	0	0	0	0	0	0	1021	549	0	0	
11	0	0	0	0	0	0	1021	547	0	0	
12	0	0	0	0	0	0	1021	539	0	0	
13	0	0	0	0	0	0	1021	527	0	0	
14	0	0	0	0	0	0	1021	512	0	0	
15	0	0	0	0	0	0	1021	494	0	0	
0	0	0	0	0	0	0	1021	476	0	0	
1	0	0	0	0	0	0	1021	461	0	0	
2	0	0	0	0	0	0	1021	448	0	0	
3	0	0	0	0	0	0	1021	440	0	0	
4	0	0	0	0	0	0	1021	438	0	0	
5	0	0	0	0	0	0	1021	440	0	0	
6	0	0	0	0	0	0	1021	448	0	0	
7	0	0	0	0	0	0	1021	459	0	0	
8	0	0	0	0	0	0	1021	473	0	0	
9	0	0	0	0	0	0	1021	487	0	0	
10	0	0	0	0	0	0	1021	503	0	0	
11	0	0	0	0	0	0	1021	516	0	0	
12	0	0	0	0	0	0	1021	528	0	0	
13	0	0	0	0	0	0	1021	536	0	0	
14	0	0	0	0	0	0	1021	541	0	0	
15	0	0	0	0	0	0	1021	543	0	0	
0	0	0	0	0	0	0	1021	544	0	0	
1	0	0	0	0	0	0	1021	543	0	0	
2	0	0	0	0	0	0	1021	540	0	0	
3	0	0	0	0	0	0	1021	536	0	0	
4	0	0	0	0	0	0	1021	531	0	0	
5	0	0	0	0	0	0	1021	527	0	0	
6	0	0	0	0	0	0	1021	521	0	0	
7	0	0	0	0	0	0	1020	515	0	0	
8	0	0	0	0	0	0	1021	508	0	0	
9	0	0	0	0	0	0	1021	501	0	0	
10	0	0	0	0	0	0	1021	494	0	0	
11	0	0	0	0	0	0	1021	487	0	0	
12	0	0	0	0	0	0	1021	480	0	0	
13	0	0	0	0	0	0	1021	475	0	0	
14	0	0	0	0	0	0	1021	472	0	0	
15	0	0	0	0	0	0	1021	471	0	0	
0	0	0	0	0	0	0	1020	471	0	0	
1	0	0	0	0	0	0	1020	473	0	0	
2	0	0	0	0	0	0	1021	476	0	0	
3	0	0	0	0	0	0	1021	480	0	0	
4	0	0	0	0	0	0	1021	483	0	0	
5	0	0	0	0	0	0	1021	486	0	0	
6	0	0	0	0	0	0	1021	487	0	0	
7	0	0	0	0	0	0	1021	487	0	0	
8	0	0	0	0	0	0	1021	486	0	0	
9	0	0	0	0	0	0	1021	486	0	0	
10	0	0	0	0	0	0	1021	485	0	0	
11	0	0	0	0	0	0	1021	485	0	0	
12	0	0	0	0	0	0	1021	487	0	0	
13	0	0	0	0	0	0	1021	489	0	0	
14	0	0	0	0	0	0	1021	494	0	0	
15	0	0	0	0	0	0	1021	499	0	0	
0	0	0	0	0	0	0	1021	505	0	0	
1	0	0	0	0	0	0	1021	512	0	0	
2	0	0	0	0	0	0	1021	519	0	0	
3	0	0	0	0	0	0	1021	525	0	0	
4	0	0	0	0	0	0	1021	529	0	0	
5	0	0	0	0	0	0	1021	532	0	0	
6	0	0	0	0	0	0	1021	533	0	0	
7	0	0	0	0	0	0	1021	532	0	0	
8	0	0	0	0	0	0	1021	531	0	0	
9	0	0	0	0	0	0	1021	527	0	0	
10	0	0	0	0	0	0	1021	524	0	0	
11	0	0	0	0	0	0	1021	521	0	0	
12	0	0	0	0	0	0	1021	518	0	0	
13	0	0	0	0	0	0	1021	515	0	0	
14	0	0	0	0	0	0	1021	514	0	0	
15	0	0	0	0	0	0	1021	513	0	0	
0	0	0	0	0	0	0	1021	513	0	0	
1	0	0	0	0	0	0	1021	514	0	0	
2	0	0	0	0	0	0	1021	517	0	0	
3	0	0	0	0	0	0	1021	521	0	0	
4	0	0	0	0	0	0	1021	526	0	0	
5	0	0	0	0	0	0	1021	531	0	0	
6	0	0	0	0	0	0	1021	536	0	0	
7	0	0	0	0	0	0	1021	542	0	0	
8	0	0	0	0	0	0	1021	547	0	0	
9	0	0	0	0	0	0	1021	551	0	0	
10	0	0	0	0	0	0	1021	553	0	0	
11	0	0	0	0	0	0	1021	554	0	0	
12	0	0	0	0	0	0	1020	552	0	0	
13	0	0	0	0	0	0	1021	549	0	0	
14	0	0	0	0	0	0	1021	543	0	0	
15	0	0	0	0	0	0	1021	535	0	0	
0	0	0	0	0	0	0	1021	527	0	0	
1	0	0	0	0	0	0	1021	521	0	0	
2	0	0	0	0	0	0	1021	514	0	0	
3	0	0	0	0	0	0	1021	510	0	0	
4	0	0	0	0	0	0	1021	508	0	0	
5	0	0	0	0	0	0	1021	508	0	0	
6	0	0	0	0	0	0	1021	510	0	0	
7	0	0	0	0	0	0	1021	513	0	0	
8	0	0	0	0	0	0	1021	516	0	0	
9	0	0	0	0	0	0	1021	519	0	0	
10	0	0	0	0	0	0	1021	523	0	0	
11	0	0	0	0	0	0	1021	524	0	0	
12	0	0	0	0	0	0	1021	524	0	0	
13	0	0	0	0	0	0	1021	522	0	0	
14	0	0	0	0	0	0	1021	518	0	0	
15	0	0	0	0	0	0	1021	512	0	0	
0	0	0	0	0	0	0	1021	504	0	0	
1	0	0	0	0	0	0	1021	496	0	0	
2	0	0	0	0	0	0	1021	487	0	0	
3	0	0	0	0	0	0	1021	478	0	0	
4	0	0	0	0	0	0	1021	469	0	0	
5	0	0	0	0	0	0	1021	461	0	0	
6	0	0	0	0	0	0	1021	455	0	0	
7	0	0	0	0	0	0	1021	451	0	0	
8	0	0	0	0	0	0	1021	449	0	0	
9	0	0	0	0	0	0	1021	452	0	0	
10	0	0	0	0	0	0	1021	459	0	0	
11	0	0	0	0	0	0	1021	468	0	0	
12	0	0	0	0	0	0	1021	481	0	0	
13	0	0	0	0	0	0	1021	497	0	0	
14	0	0	0	0	0	0	1021	515	0	0	
15	0	0	0	0	0	0	1021	533	0	0	
0	0	0	0	0	0	0	1021	550	0	0	
1	0	0	0	0	0	0	1021	565	0	0	
2	0	0	0	0	0	0	1021	577	0	0	
3	0	0	0	0	0	0	1021	584	0	0	
4	0	0	0	0	0	0	1021	586	0	0	
5	0	0	0	0	0	0	1021	583	0	0	
6	0	0	0	0	0	0	1020	575	0	0	
7	0	0	0	0	0	0	1021	563	0	0	
8	0	0	0	0	0	0	1021	549	0	0	
9	0	0	0	0	0	0	1021	534	0	0	
10	0	0	0	0	0	0	1021	519	0	0	
11	0	0	0	0	0	0	1021	506	0	0	
12	0	0	0	0	0	0	1021	495	0	0	
13	0	0	0	0	0	0	1021	487	0	0	
14	0	0	0	0	0	0	1021	481	0	0	
15	0	0	0	0	0	0	1021	479	0	0	
0	0	0	0	0	0	0	1021	480	0	0	
1	0	0	0	0	0	0	1021	485	0	0	
2	0	0	0	0	0	0	1021	494	0	0	
3	0	0	0	0	0	0	1021	504	0	0	
4	0	0	0	0	0	0	1021	516	0	0	
5	0	0	0	0	0	0	1021	528	0	0	
6	0	0	0	0	0	0	1021	539	0	0	
7	0	0	0	0	0	0	1021	547	0	0	
8	0	0	0	0	0	0	1021	553	0	0	
9	0	0	0	0	0	0	1021	555	0	0	
10	0	0	0	0	0	0	1021	553	0	0	
11	0	0	0	0	0	0	1021	547	0	0	
12	0	0	0	0	0	0	1021	539	0	0	
13	0	0	0	0	0	0	1021	527	0	0	
14	0	0	0	0	0	0	1021	515	0	0	
15	0	0	0	0	0	0	1021	502	0	0	
0	0	0	0	0	0	0	1021	491	0	0	
1	0	0	0	0	0	0	1021	482	0	0	
2	0	0	0	0	0	0	1021	477	0	0	
3	0	0	0	0	0	0	1021	476	0	0	
4	0	0	0	0	0	0	1020	479	0	0	
5	0	0	0	0	0	0	1021	486	0	0	
6	0	0	0	0	0	0	1021	494	0	0	
7	0	0	0	0	0	0	1021	504	0	0	
8	0	0	0	0	0	0	1020	515	0	0	
9	0	0	0	0	0	0	1021	526	0	0	
10	0	0	0	0	0	0	1021	536	0	0	
11	0	0	0	0	0	0	1021	545	0	0	
12	0	0	0	0	0	0	1021	553	0	0	
13	0	0	0	0	0	0	1021	559	0	0	
14	0	0	0	0	0	0	1021	562	0	0	
15	0	0	0	0	0	0	1021	563	0	0	
0	0	0	0	0	0	0	1021	562	0	0	
1	0	0	0	0	0	0	1021	560	0	0	
2	0	0	0	0	0	0	1021	557	0	0	
3	0	0	0	0	0	0	1021	552	0	0	
4	0	0	0	0	0	0	1021	549	0	0	
5	0	0	0	0	0	0	1021	546	0	0	
6	0	0	0	0	0	0	1021	545	0	0	
7	0	0	0	0	0	0	1021	545	0	0	
8	0	0	0	0	0	0	1021	546	0	0	
9	0	0	0	0	0	0	1021	548	0	0	
10	0	0	0	0	0	0	1021	550	0	0	
11	0	0	0	0	0	0	1020	551	0	0	
12	0	0	0	0	0	0	1021	551	0	0	
13	0	0	0	0	0	0	1021	551	0	0	
14	0	0	0	0	0	0	1021	549	0	0	
15	0	0	0	0	0	0	1021	545	0	0	
0	0	0	0	0	0	0	1021	540	0	0	
1	0	0	0	0	0	0	1021	533	0	0	
2	0	0	0	0	0	0	1021	525	0	0	
3	0	0	0	0	0	0	1021	515	0	0	
4	0	0	0	0	0	0	1021	504	0	0	
5	0	0	0	0	0	0	1021	494	0	0	
6	0	0	0	0	0	0	1021	483	0	0	
7	0	0	0	0	0	0	1021	472	0	0	
8	0	0	0	0	0	0	1021	462	0	0	
9	0	0	0	0	0	0	1021	453	0	0	
10	0	0	0	0	0	0	1021	447	0	0	
11	0	0	0	0	0	0	1021	443	0	0	
12	0	0	0	0	0	0	1021	441	0	0	
13	0	0	0	0	0	0	1021	443	0	0	
14	0	0	0	0	0	0	1021	448	0	0	
15	0	0	0	0	0	0	1021	455	0	0	
0	0	0	0	0	0	0	1020	463	0	0	
1	0	0	0	0	0	0	1021	473	0	0	
2	0	0	0	0	0	0	1021	483	0	0	
3	0	0	0	0	0	0	1021	491	0	0	
4	0	0	0	0	0	0	1021	498	0	0	
5	0	0	0	0	0	0	1021	502	0	0	
6	0	0	0	0	0	0	1021	502	0	0	
7	0	0	0	0	0	0	1021	499	0	0	
8	0	0	0	0	0	0	1021	494	0	0	
9	0	0	0	0	0	0	1021	488	0	0	
10	0	0	0	0	0	0	1021	482	0	0	
11	0	0	0	0	0	0	1021	478	0	0	
12	0	0	0	0	0	0	1021	476	0	0	
13	0	0	0	0	0	0	1021	478	0	0	
14	0	0	0	0	0	0	1021	483	0	0	
15	0	0	0	0	0	0	1021	491	0	0	
0	0	0	0	0	0	0	1021	502	0	0	
1	0	0	0	0	0	0	1021	513	0	0	
2	0	0	0	0	0	0	1021	526	0	0	
3	0	0	0	0	0	0	1021	539	0	0	
4	0	0	0	0	0	0	1021	550	0	0	
5	0	0	0	0	0	0	1021	558	0	0	
6	0	0	0	0	0	0	1021	563	0	0	
7	0	0	0	0	0	0	1021	565	0	0	
8	0	0	0	0	0	0	1021	564	0	0	
9	0	0	0	0	0	0	1021	559	0	0	
10	0	0	0	0	0	0	1021	553	0	0	
11	0	0	0	0	0	0	1021	545	0	0	
12	0	0	0	0	0	0	1021	537	0	0	
13	0	0	0	0	0	0	1021	531	0	0	
14	0	0	0	0	0	0	1021	527	0	0	
15	0	0	0	0	0	0	1021	526	0	0	
0	0	0	0	0	0	0	1021	527	0	0	
1	0	0	0	0	0	0	1021	529	0	0	
2	0	0	0	0	0	0	1021	532	0	0	
3	0	0	0	0	0	0	1021	535	0	0	
4	0	0	0	0	0	0	1021	536	0	0	
5	0	0	0	0	0	0	1021	536	0	0	
6	0	0	0	0	0	0	1021	536	0	0	
7	0	0	0	0	0	0	1021	533	0	0	
8	0	0	0	0	0	0	1021	530	0	0	
9	0	0	0	0	0	0	1021	525	0	0	
10	0	0	0	0	0	0	1021	520	0	0	
11	0	0	0	0	0	0	1021	515	0	0	
12	0	0	0	0	0	0	1021	511	0	0	
13	0	0	0	0	0	0	1021	508	0	0	
14	0	0	0	0	0	0	1021	504	0	0	
15	0	0	0	0	0	0	1021	501	0	0	
0	0	0	0	0	0	0	1021	498	0	0	
1	0	0	0	0	0	0	1021	495	0	0	
2	0	0	0	0	0	0	1021	492	0	0	
3	0	0	0	0	0	0	1021	488	0	0	
4	0	0	0	0	0	0	1021	486	0	0	
5	0	0	0	0	0	0	1021	485	0	0	
6	0	0	0	0	0	0	1021	485	0	0	
7	0	0	0	0	0	0	1021	487	0	0	
8	0	0	0	0	0	0	1021	490	0	0	
9	0	0	0	0	0	0	1021	495	0	0	
10	0	0	0	0	0	0	1021	501	0	0	
11	0	0	0	0	0	0	1021	508	0	0	
12	0	0	0	0	0	0	1021	515	0	0	
13	0	0	0	0	0	0	1021	521	0	0	
14	0	0	0	0	0	0	1021	527	0	0	
15	0	0	0	0	0	0	1021	530	0	0	
0	0	0	0	0	0	0	1021	531	0	0	
1	0	0	0	0	0	0	1021	529	0	0	
2	0	0	0	0	0	0	1021	525	0	0	
3	0	0	0	0	0	0	1021	519	0	0	
4	0	0	0	0	0	0	1021	511	0	0	
5	0	0	0	0	0	0	1021	504	0	0	
6	0	0	0	0	0	0	1021	497	0	0	
7	0	0	0	0	0	0	1021	491	0	0	
8	0	0	0	0	0	0	1021	486	0	0	
9	0	0	0	0	0	0	1021	484	0	0	
10	0	0	0	0	0	0	1021	484	0	0	
11	0	0	0	0	0	0	1021	487	0	0	
12	0	0	0	0	0	0	1021	492	0	0	
13	0	0	0	0	0	0	1021	497	0	0	
14	0	0	0	0	0	0	1021	503	0	0	
15	0	0	0	0	0	0	1021	508	0	0	
0	0	0	0	0	0	0	1021	513	0	0	
1	0	0	0	0	0	0	1021	516	0	0	
2	0	0	0	0	0	0	1021	518	0	0	
3	0	0	0	0	0	0	1021	519	0	0	
4	0	0	0	0	0	0	1021	518	0	0	
5	0	0	0	0	0	0	1021	516	0	0	
6	0	0	0	0	0	0	1021	513	0	0	
7	0	0	0	0	0	0	1021	509	0	0	
8	0	0	0	0	0	0	1021	505	0	0	
9	0	0	0	0	0	0	1021	500	0	0	
10	0	0	0	0	0	0	1021	496	0	0	
11	0	0	0	0	0	0	1021	493	0	0	
12	0	0	0	0	0	0	1021	492	0	0	
13	0	0	0	0	0	0	1021	491	0	0	
14	0	0	0	0	0	0	1021	492	0	0	
15	0	0	0	0	0	0	1021	496	0	0	
0	0	0	0	0	0	0	1021	500	0	0	
1	0	0	0	0	0	0	1021	506	0	0	
2	0	0	0	0	0	0	1021	513	0	0	
3	0	0	0	0	0	0	1021	522	0	0	
4	0	0	0	0	0	0	1021	530	0	0	
5	0	0	0	0	0	0	1021	538	0	0	
6	0	0	0	0	0	0	1021	546	0	0	
7	0	0	0	0	0	0	1021	552	0	0	
8	0	0	0	0	0	0	1021	556	0	0	
9	0	0	0	0	0	0	1021	558	0	0	
10	0	0	0	0	0	0	1021	557	0	0	
11	0	0	0	0	0	0	1021	554	0	0	
12	0	0	0	0	0	0	1021	550	0	0	
13	0	0	0	0	0	0	1021	543	0	0	
14	0	0	0	0	0	0	1021	536	0	0	
15	0	0	0	0	0	0	1021	528	0	0	
0	0	0	0	0	0	0	1021	521	0	0	
1	0	0	0	0	0	0	1021	517	0	0	
2	0	0	0	0	0	0	1021	514	0	0	
3	0	0	0	0	0	0	1021	513	0	0	
4	0	0	0	0	0	0	1021	513	0	0	
5	0	0	0	0	0	0	1021	515	0	0	
6	0	0	0	0	0	0	1021	519	0	0	
7	0	0	0	0	0	0	1021	524	0	0	
8	0	0	0	0	0	0	1021	529	0	0	
9	0	0	0	0	0	0	1021	535	0	0	
10	0	0	0	0	0	0	1021	540	0	0	
11	0	0	0	0	0	0	1021	543	0	0	
12	0	0	0	0	0	0	1021	544	0	0	
13	0	0	0	0	0	0	1021	543	0	0	
14	0	0	0	0	0	0	1021	539	0	0	
15	0	0	0	0	0	0	1021	533	0	0	
0	0	0	0	0	0	0	1021	526	0	0	
1	0	0	0	0	0	0	1021	518	0	0	
2	0	0	0	0	0	0	1021	509	0	0	
3	0	0	0	0	0	0	1021	500	0	0	
4	0	0	0	0	0	0	1021	494	0	0	
5	0	0	0	0	0	0	1021	489	0	0	
6	0	0	0	0	0	0	1021	487	0	0	
7	0	0	0	0	0	0	1021	487	0	0	
8	0	0	0	0	0	0	1021	491	0	0	
9	0	0	0	0	0	0	1021	496	0	0	
10	0	0	0	0	0	0	1021	504	0	0	
11	0	0	0	0	0	0	1021	511	0	0	
12	0	0	0	0	0	0	1021	520	0	0	
13	0	0	0	0	0	0	1021	528	0	0	
14	0	0	0	0	0	0	1021	535	0	0	
15	0	0	0	0	0	0	1021	541	0	0	
0	0	0	0	0	0	0	1021	545	0	0	
1	0	0	0	0	0	0	1021	546	0	0	
2	0	0	0	0	0	0	1021	545	0	0	
3	0	0	0	0	0	0	1021	542	0	0	
4	0	0	0	0	0	0	1021	537	0	0	
5	0	0	0	0	0	0	1021	531	0	0	
6	0	0	0	0	0	0	1020	524	0	0	
7	0	0	0	0	0	0	1021	517	0	0	
8	0	0	0	0	0	0	1021	511	0	0	
9	0	0	0	0	0	0	1021	507	0	0	
10	0	0	0	0	0	0	1021	504	0	0	
11	0	0	0	0	0	0	1021	504	0	0	
12	0	0	0	0	0	0	1021	506	0	0	
13	0	0	0	0	0	0	1021	511	0	0	
14	0	0	0	0	0	0	1021	518	0	0	
15	0	0	0	0	0	0	1021	525	0	0	
0	0	0	0	0	0	0	1021	532	0	0	
1	0	0	0	0	0	0	1021	538	0	0	
2	0	0	0	0	0	0	1021	543	0	0	
3	0	0	0	0	0	0	1021	545	0	0	
4	0	0	0	0	0	0	1021	545	0	0	
5	0	0	0	0	0	0	1021	543	0	0	
6	0	0	0	0	0	0	1021	537	0	0	
7	0	0	0	0	0	0	1021	529	0	0	
8	0	0	0	0	0	0	1021	519	0	0	
9	0	0	0	0	0	0	1020	507	0	0	
10	0	0	0	0	0	0	1021	495	0	0	
11	0	0	0	0	0	0	1021	483	0	0	
12	0	0	0	0	0	0	1021	472	0	0	
13	0	0	0	0	0	0	1021	464	0	0	
14	0	0	0	0	0	0	1021	459	0	0	
15	0	0	0	0	0	0	1021	457	0	0	
0	0	0	0	0	0	0	1021	458	0	0	
1	0	0	0	0	0	0	1021	462	0	0	
2	0	0	0	0	0	0	1021	469	0	0	
3	0	0	0	0	0	0	1021	477	0	0	
4	0	0	0	0	0	0	1021	487	0	0	
5	0	0	0	0	0	0	1021	495	0	0	
6	0	0	0	0	0	0	1021	502	0	0	
7	0	0	0	0	0	0	1021	509	0	0	
8	0	0	0	0	0	0	1021	514	0	0	
9	0	0	0	0	0	0	1021	517	0	0	
10	0	0	0	0	0	0	1021	518	0	0	
11	0	0	0	0	0	0	1021	518	0	0	
12	0	0	0	0	0	0	1021	515	0	0	
13	0	0	0	0	0	0	1021	512	0	0	
14	0	0	0	0	0	0	1021	508	0	0	
15	0	0	0	0	0	0	1021	503	0	0	
0	0	0	0	0	0	0	1021	497	0	0	
1	0	0	0	0	0	0	1021	493	0	0	
2	0	0	0	0	0	0	1021	488	0	0	
3	0	0	0	0	0	0	1021	486	0	0	
4	0	0	0	0	0	0	1021	483	0	0	
5	0	0	0	0	0	0	1021	482	0	0	
6	0	0	0	0	0	0	1021	482	0	0	
7	0	0	0	0	0	0	1021	482	0	0	
8	0	0	0	0	0	0	1021	483	0	0	
9	0	0	0	0	0	0	1021	483	0	0	
10	0	0	0	0	0	0	1021	483	0	0	
11	0	0	0	0	0	0	1021	483	0	0	
12	0	0	0	0	0	0	1020	482	0	0	
13	0	0	0	0	0	0	1021	483	0	0	
14	0	0	0	0	0	0	1021	485	0	0	
15	0	0	0	0	0	0	1021	489	0	0	
0	0	0	0	0	0	0	1021	496	0	0	
1	0	0	0	0	0	0	1021	505	0	0	
2	0	0	0	0	0	0	1021	518	0	0	
3	0	0	0	0	0	0	1021	532	0	0	
4	0	0	0	0	0	0	1021	550	0	0	
5	0	0	0	0	0	0	1021	568	0	0	
6	0	0	0	0	0	0	1021	587	0	0	
7	0	0	0	0	0	0	1021	605	0	0	
8	0	0	0	0	0	0	1021	620	0	0	
9	0	0	0	0	0	0	1021	632	0	0	
10	0	0	0	0	0	0	1021	639	0	0	
11	0	0	0	0	0	0	1021	640	0	0	
12	0	0	0	0	0	0	1021	636	0	0	
13	0	0	0	0	0	0	1021	624	0	0	
14	0	0	0	0	0	0	1021	606	0	0	
15	0	0	0	0	0	0	1021	583	0	0	
0	0	0	0	0	0	0	1021	558	0	0	
1	0	0	0	0	0	0	1021	532	0	0	
2	0	0	0	0	0	0	1021	507	0	0	
3	0	0	0	0	0	0	1021	484	0	0	
4	0	0	0	0	0	0	1021	467	0	0	
5	0	0	0	0	0	0	1021	455	0	0	
6	0	0	0	0	0	0	1021	448	0	0	
7	0	0	0	0	0	0	1021	447	0	0	
8	0	0	0	0	0	0	1021	449	0	0	
9	0	0	0	0	0	0	1021	456	0	0	
10	0	0	0	0	0	0	1021	466	0	0	
11	0	0	0	0	0	0	1021	476	0	0	
12	0	0	0	0	0	0	1021	487	0	0	
13	0	0	0	0	0	0	1021	499	0	0	
14	0	0	0	0	0	0	1021	511	0	0	
15	0	0	0	0	0	0	1021	521	0	0	
0	0	0	0	0	0	0	1020	529	0	0	
1	0	0	0	0	0	0	1021	537	0	0	
2	0	0	0	0	0	0	1021	541	0	0	
3	0	0	0	0	0	0	1021	542	0	0	
4	0	0	0	0	0	0	1021	538	0	0	
5	0	0	0	0	0	0	1021	531	0	0	
6	0	0	0	0	0	0	1021	518	0	0	
7	0	0	0	0	0	0	1021	502	0	0	
8	0	0	0	0	0	0	1021	483	0	0	
9	0	0	0	0	0	0	1021	462	0	0	
10	0	0	0	0	0	0	1021	440	0	0	
11	0	0	0	0	0	0	1021	419	0	0	
12	0	0	0	0	0	0	1021	398	0	0	
13	0	0	0	0	0	0	1021	380	0	0	
14	0	0	0	0	0	0	1021	365	0	0	
15	0	0	0	0	0	0	1021	353	0	0	
0	0	0	0	0	0	0	1021	344	0	0	
1	0	0	0	0	0	0	1021	339	0	0	
2	0	0	0	0	0	0	1021	336	0	0	
3	0	0	0	0	0	0	1021	336	0	0	
4	0	0	0	0	0	0	1021	336	0	0	
5	0	0	0	0	0	0	1021	336	0	0	
6	0	0	0	0	0	0	1021	336	0	0	
7	0	0	0	0	0	0	1021	334	0	0	
8	0	0	0	0	0	0	1021	331	0	0	
9	0	0	0	0	0	0	1021	327	0	0	
10	0	0	0	0	0	0	1021	322	0	0	
11	0	0	0	0	0	0	1021	317	0	0	
12	0	0	0	0	0	0	1021	313	0	0	
13	0	0	0	0	0	0	1021	310	0	0	
14	0	0	0	0	0	0	1021	311	0	0	
15	0	0	0	0	0	0	1021	315	0	0	
0	0	0	0	0	0	0	1021	323	0	0	
1	0	0	0	0	0	0	1021	338	0	0	
2	0	0	0	0	0	0	1021	358	0	0	
3	0	0	0	0	0	0	1021	381	0	0	
4	0	0	0	0	0	0	1021	408	0	0	
5	0	0	0	0	0	0	1021	436	0	0	
6	0	0	0	0	0	0	1021	465	0	0	
7	0	0	0	0	0	0	1021	491	0	0	
8	0	0	0	0	0	0	1021	515	0	0	
9	0	0	0	0	0	0	1021	534	0	0	
10	0	0	0	0	0	0	1021	548	0	0	
11	0	0	0	0	0	0	1021	558	0	0	
12	0	0	0	0	0	0	1021	564	0	0	
13	0	0	0	0	0	0	1021	567	0	0	
14	0	0	0	0	0	0	1021	567	0	0	
15	0	0	0	0	0	0	1021	565	0	0	
0	0	0	0	0	0	0	1021	563	0	0	
1	0	0	0	0	0	0	1021	560	0	0	
2	0	0	0	0	0	0	1021	558	0	0	
3	0	0	0	0	0	0	1021	556	0	0	
4	0	0	0	0	0	0	1021	556	0	0	
5	0	0	0	0	0	0	1021	557	0	0	
6	0	0	0	0	0	0	1021	559	0	0	
7	0	0	0	0	0	0	1021	563	0	0	
8	0	0	0	0	0	0	1021	568	0	0	
9	0	0	0	0	0	0	1021	572	0	0	
10	0	0	0	0	0	0	1021	578	0	0	
11	0	0	0	0	0	0	1021	582	0	0	
12	0	0	0	0	0	0	1021	585	0	0	
13	0	0	0	0	0	0	1021	584	0	0	
14	0	0	0	0	0	0	1021	580	0	0	
15	0	0	0	0	0	0	1021	572	0	0	
0	0	0	0	0	0	0	1021	561	0	0	
1	0	0	0	0	0	0	1021	546	0	0	
2	0	0	0	0	0	0	1021	530	0	0	
3	0	0	0	0	0	0	1021	511	0	0	
4	0	0	0	0	0	0	1021	493	0	0	
5	0	0	0	0	0	0	1021	475	0	0	
6	0	0	0	0	0	0	1021	460	0	0	
7	0	0	0	0	0	0	1021	447	0	0	
8	0	0	0	0	0	0	1021	437	0	0	
9	0	0	0	0	0	0	1021	432	0	0	
10	0	0	0	0	0	0	1021	432	0	0	
11	0	0	0	0	0	0	1021	437	0	0	
12	0	0	0	0	0	0	1021	446	0	0	
13	0	0	0	0	0	0	1021	459	0	0	
14	0	0	0	0	0	0	1021	475	0	0	
15	0	0	0	0	0	0	1021	493	0	0	
0	0	0	0	0	0	0	1021	511	0	0	
1	0	0	0	0	0	0	1021	529	0	0	
2	0	0	0	0	0	0	1021	545	0	0	
3	0	0	0	0	0	0	1021	558	0	0	
4	0	0	0	0	0	0	1021	568	0	0	
5	0	0	0	0	0	0	1021	573	0	0	
6	0	0	0	0	0	0	1021	573	0	0	
7	0	0	0	0	0	0	1021	569	0	0	
8	0	0	0	0	0	0	1021	562	0	0	
9	0	0	0	0	0	0	1021	553	0	0	
10	0	0	0	0	0	0	1021	543	0	0	
11	0	0	0	0	0	0	1021	533	0	0	
12	0	0	0	0	0	0	1021	524	0	0	
13	0	0	0	0	0	0	1021	519	0	0	
14	0	0	0	0	0	0	1021	515	0	0	
15	0	0	0	0	0	0	1021	515	0	0	
0	0	0	0	0	0	0	1021	516	0	0	
1	0	0	0	0	0	0	1021	519	0	0	
2	0	0	0	0	0	0	1021	522	0	0	
3	0	0	0	0	0	0	1021	526	0	0	
4	0	0	0	0	0	0	1021	529	0	0	
5	0	0	0	0	0	0	1021	532	0	0	
6	0	0	0	0	0	0	1021	534	0	0	
7	0	0	0	0	0	0	1021	535	0	0	
8	0	0	0	0	0	0	1021	534	0	0	
9	0	0	0	0	0	0	1021	533	0	0	
10	0	0	0	0	0	0	1021	530	0	0	
11	0	0	0	0	0	0	1021	526	0	0	
12	0	0	0	0	0	0	1021	521	0	0	
13	0	0	0	0	0	0	1021	516	0	0	
14	0	0	0	0	0	0	1021	511	0	0	
15	0	0	0	0	0	0	1021	508	0	0	
0	0	0	0	0	0	0	1021	505	0	0	
1	0	0	0	0	0	0	1021	505	0	0	
2	0	0	0	0	0	0	1021	507	0	0	
3	0	0	0	0	0	0	1021	510	0	0	
4	0	0	0	0	0	0	1021	514	0	0	
5	0	0	0	0	0	0	1021	518	0	0	
6	0	0	0	0	0	0	1021	522	0	0	
7	0	0	0	0	0	0	1021	524	0	0	
8	0	0	0	0	0	0	1021	525	0	0	
9	0	0	0	0	0	0	1021	524	0	0	
10	0	0	0	0	0	0	1021	521	0	0	
11	0	0	0	0	0	0	1021	516	0	0	
12	0	0	0	0	0	0	1020	509	0	0	
13	0	0	0	0	0	0	1021	502	0	0	
14	0	0	0	0	0	0	1021	493	0	0	
15	0	0	0	0	0	0	1021	484	0	0	
0	0	0	0	0	0	0	1021	476	0	0	
1	0	0	0	0	0	0	1021	470	0	0	
2	0	0	0	0	0	0	1021	465	0	0	
3	0	0	0	0	0	0	1021	463	0	0	
4	0	0	0	0	0	0	1021	464	0	0	
5	0	0	0	0	0	0	1021	467	0	0	
6	0	0	0	0	0	0	1021	474	0	0	
7	0	0	0	0	0	0	1021	482	0	0	
8	0	0	0	0	0	0	1021	492	0	0	
9	0	0	0	0	0	0	1021	501	0	0	
10	0	0	0	0	0	0	1021	511	0	0	
11	0	0	0	0	0	0	1021	519	0	0	
12	0	0	0	0	0	0	1021	527	0	0	
13	0	0	0	0	0	0	1021	530	0	0	
14	0	0	0	0	0	0	1021	530	0	0	
15	0	0	0	0	0	0	1021	528	0	0	
0	0	0	0	0	0	0	1021	522	0	0	
1	0	0	0	0	0	0	1021	514	0	0	
2	0	0	0	0	0	0	1021	503	0	0	
3	0	0	0	0	0	0	1021	491	0	0	
4	0	0	0	0	0	0	1021	478	0	0	
5	0	0	0	0	0	0	1021	464	0	0	
6	0	0	0	0	0	0	1021	452	0	0	
7	0	0	0	0	0	0	1021	442	0	0	
8	0	0	0	0	0	0	1021	434	0	0	
9	0	0	0	0	0	0	1021	429	0	0	
10	0	0	0	0	0	0	1021	428	0	0	
11	0	0	0	0	0	0	1021	430	0	0	
12	0	0	0	0	0	0	1021	435	0	0	
13	0	0	0	0	0	0	1021	444	0	0	
14	0	0	0	0	0	0	1021	456	0	0	
15	0	0	0	0	0	0	1021	470	0	0	
0	0	0	0	0	0	0	1021	486	0	0	
1	0	0	0	0	0	0	1021	503	0	0	
2	0	0	0	0	0	0	1021	519	0	0	
3	0	0	0	0	0	0	1021	537	0	0	
4	0	0	0	0	0	0	1021	552	0	0	
5	0	0	0	0	0	0	1021	565	0	0	
6	0	0	0	0	0	0	1021	575	0	0	
7	0	0	0	0	0	0	1021	580	0	0	
8	0	0	0	0	0	0	1021	580	0	0	
9	0	0	0	0	0	0	1021	575	0	0	
10	0	0	0	0	0	0	1021	564	0	0	
11	0	0	0	0	0	0	1021	549	0	0	
12	0	0	0	0	0	0	1021	531	0	0	
13	0	0	0	0	0	0	1021	513	0	0	
14	0	0	0	0	0	0	1021	496	0	0	
15	0	0	0	0	0	0	1021	481	0	0	
0	0	0	0	0	0	0	1021	469	0	0	
1	0	0	0	0	0	0	1021	460	0	0	
2	0	0	0	0	0	0	1021	456	0	0	
3	0	0	0	0	0	0	1021	455	0	0	
4	0	0	0	0	0	0	1021	457	0	0	
5	0	0	0	0	0	0	1021	462	0	0	
6	0	0	0	0	0	0	1021	470	0	0	
7	0	0	0	0	0	0	1021	478	0	0	
8	0	0	0	0	0	0	1021	487	0	0	
9	0	0	0	0	0	0	1021	496	0	0	
10	0	0	0	0	0	0	1021	504	0	0	
11	0	0	0	0	0	0	1021	510	0	0	
12	0	0	0	0	0	0	1021	513	0	0	
13	0	0	0	0	0	0	1021	514	0	0	
14	0	0	0	0	0	0	1021	512	0	0	
15	0	0	0	0	0	0	1021	507	0	0	
0	0	0	0	0	0	0	1021	499	0	0	
1	0	0	0	0	0	0	1021	491	0	0	
2	0	0	0	0	0	0	1021	482	0	0	
3	0	0	0	0	0	0	1021	474	0	0	
4	0	0	0	0	0	0	1021	467	0	0	
5	0	0	0	0	0	0	1021	461	0	0	
6	0	0	0	0	0	0	1021	456	0	0	
7	0	0	0	0	0	0	1021	455	0	0	
8	0	0	0	0	0	0	1021	455	0	0	
9	0	0	0	0	0	0	1021	457	0	0	
10	0	0	0	0	0	0	1021	463	0	0	
11	0	0	0	0	0	0	1021	471	0	0	
12	0	0	0	0	0	0	1021	481	0	0	
13	0	0	0	0	0	0	1021	492	0	0	
14	0	0	0	0	0	0	1021	504	0	0	
15	0	0	0	0	0	0	1021	516	0	0	
0	0	0	0	0	0	0	1021	528	0	0	
1	0	0	0	0	0	0	1021	540	0	0	
2	0	0	0	0	0	0	1021	549	0	0	
3	0	0	0	0	0	0	1021	556	0	0	
4	0	0	0	0	0	0	1021	561	0	0	
5	0	0	0	0	0	0	1021	563	0	0	
6	0	0	0	0	0	0	1021	561	0	0	
7	0	0	0	0	0	0	1021	557	0	0	
8	0	0	0	0	0	0	1021	550	0	0	
9	0	0	0	0	0	0	1021	541	0	0	
10	0	0	0	0	0	0	1021	529	0	0	
11	0	0	0	0	0	0	1020	516	0	0	
12	0	0	0	0	0	0	1021	503	0	0	
13	0	0	0	0	0	0	1021	489	0	0	
14	0	0	0	0	0	0	1021	476	0	0	
15	0	0	0	0	0	0	1021	466	0	0	
0	0	0	0	0	0	0	1021	458	0	0	
1	0	0	0	0	0	0	1021	452	0	0	
2	0	0	0	0	0	0	1021	451	0	0	
3	0	0	0	0	0	0	1021	452	0	0	
4	0	0	0	0	0	0	1021	456	0	0	
5	0	0	0	0	0	0	1021	462	0	0	
6	0	0	0	0	0	0	1021	469	0	0	
7	0	0	0	0	0	0	1021	476	0	0	
8	0	0	0	0	0	0	1021	481	0	0	
9	0	0	0	0	0	0	1021	484	0	0	
10	0	0	0	0	0	0	1021	486	0	0	
11	0	0	0	0	0	0	1021	486	0	0	
12	0	0	0	0	0	0	1021	484	0	0	
13	0	0	0	0	0	0	1021	480	0	0	
14	0	0	0	0	0	0	1021	478	0	0	
15	0	0	0	0	0	0	1021	475	0	0	
0	0	0	0	0	0	0	1020	475	0	0	
1	0	0	0	0	0	0	1021	477	0	0	
2	0	0	0	0	0	0	1021	481	0	0	
3	0	0	0	0	0	0	1021	488	0	0	
4	0	0	0	0	0	0	1021	497	0	0	
5	0	0	0	0	0	0	1021	508	0	0	
6	0	0	0	0	0	0	1021	519	0	0	
7	0	0	0	0	0	0	1021	528	0	0	
8	0	0	0	0	0	0	1021	536	0	0	
9	0	0	0	0	0	0	1021	542	0	0	
10	0	0	0	0	0	0	1021	545	0	0	
11	0	0	0	0	0	0	1021	545	0	0	
12	0	0	0	0	0	0	1021	542	0	0	
13	0	0	0	0	0	0	1021	537	0	0	
14	0	0	0	0	0	0	1021	529	0	0	
15	0	0	0	0	0	0	1021	520	0	0	
0	0	0	0	0	0	0	1021	511	0	0	
1	0	0	0	0	0	0	1021	501	0	0	
2	0	0	0	0	0	0	1021	492	0	0	
3	0	0	0	0	0	0	1021	483	0	0	
4	0	0	0	0	0	0	1021	477	0	0	
5	0	0	0	0	0	0	1021	471	0	0	
6	0	0	0	0	0	0	1021	467	0	0	
7	0	0	0	0	0	0	1021	464	0	0	
8	0	0	0	0	0	0	1021	463	0	0	
9	0	0	0	0	0	0	1021	464	0	0	
10	0	0	0	0	0	0	1021	468	0	0	
11	0	0	0	0	0	0	1021	472	0	0	
12	0	0	0	0	0	0	1021	479	0	0	
13	0	0	0	0	0	0	1021	486	0	0	
14	0	0	0	0	0	0	1021	494	0	0	
15	0	0	0	0	0	0	1021	502	0	0	
0	0	0	0	0	0	0	1021	510	0	0	
1	0	0	0	0	0	0	1021	517	0	0	
2	0	0	0	0	0	0	1021	524	0	0	
3	0	0	0	0	0	0	1021	529	0	0	
4	0	0	0	0	0	0	1021	534	0	0	
5	0	0	0	0	0	0	1021	538	0	0	
6	0	0	0	0	0	0	1021	541	0	0	
7	0	0	0	0	0	0	1021	543	0	0	
8	0	0	0	0	0	0	1021	543	0	0	
9	0	0	0	0	0	0	1021	543	0	0	
10	0	0	0	0	0	0	1021	542	0	0	
11	0	0	0	0	0	0	1021	540	0	0	
12	0	0	0	0	0	0	1020	537	0	0	
13	0	0	0	0	0	0	1021	534	0	0	
14	0	0	0	0	0	0	1021	530	0	0	
15	0	0	0	0	0	0	1021	524	0	0	
0	0	0	0	0	0	0	1021	518	0	0	
1	0	0	0	0	0	0	1021	511	0	0	
2	0	0	0	0	0	0	1021	504	0	0	
3	0	0	0	0	0	0	1021	497	0	0	
4	0	0	0	0	0	0	1021	491	0	0	
5	0	0	0	0	0	0	1021	486	0	0	
6	0	0	0	0	0	0	1021	483	0	0	
7	0	0	0	0	0	0	1021	482	0	0	
8	0	0	0	0	0	0	1021	484	0	0	
9	0	0	0	0	0	0	1021	487	0	0	
10	0	0	0	0	0	0	1021	494	0	0	
11	0	0	0	0	0	0	1021	502	0	0	
12	0	0	0	0	0	0	1021	512	0	0	
13	0	0	0	0	0	0	1021	522	0	0	
14	0	0	0	0	0	0	1021	533	0	0	
15	0	0	0	0	0	0	1021	543	0	0	
0	0	0	0	0	0	0	1021	552	0	0	
1	0	0	0	0	0	0	1021	558	0	0	
2	0	0	0	0	0	0	1021	563	0	0	
3	0	0	0	0	0	0	1021	564	0	0	
4	0	0	0	0	0	0	1021	563	0	0	
5	0	0	0	0	0	0	1021	560	0	0	
6	0	0	0	0	0	0	1021	553	0	0	
7	0	0	0	0	0	0	1021	545	0	0	
8	0	0	0	0	0	0	1021	535	0	0	
9	0	0	0	0	0	0	1021	524	0	0	
10	0	0	0	0	0	0	1021	512	0	0	
11	0	0	0	0	0	0	1021	500	0	0	
12	0	0	0	0	0	0	1021	489	0	0	
13	0	0	0	0	0	0	1021	480	0	0	
14	0	0	0	0	0	0	1021	473	0	0	
15	0	0	0	0	0	0	1021	468	0	0	
0	0	0	0	0	0	0	1021	466	0	0	
1	0	0	0	0	0	0	1021	466	0	0	
2	0	0	0	0	0	0	1021	469	0	0	
3	0	0	0	0	0	0	1021	474	0	0	
4	0	0	0	0	0	0	1021	481	0	0	
5	0	0	0	0	0	0	1021	491	0	0	
6	0	0	0	0	0	0	1021	499	0	0	
7	0	0	0	0	0	0	1021	509	0	0	
8	0	0	0	0	0	0	1021	518	0	0	
9	0	0	0	0	0	0	1021	526	0	0	
10	0	0	0	0	0	0	1021	532	0	0	
11	0	0	0	0	0	0	1021	538	0	0	
12	0	0	0	0	0	0	1021	542	0	0	
13	0	0	0	0	0	0	1021	545	0	0	
14	0	0	0	0	0	0	1021	547	0	0	
15	0	0	0	0	0	0	1021	550	0	0	
0	0	0	0	0	0	0	1021	550	0	0	
1	0	0	0	0	0	0	1021	551	0	0	
2	0	0	0	0	0	0	1021	551	0	0	
3	0	0	0	0	0	0	1021	549	0	0	
4	0	0	0	0	0	0	1021	546	0	0	
5	0	0	0	0	0	0	1021	542	0	0	
6	0	0	0	0	0	0	1021	536	0	0	
7	0	0	0	0	0	0	1021	531	0	0	
8	0	0	0	0	0	0	1021	524	0	0	
9	0	0	0	0	0	0	1021	518	0	0	
10	0	0	0	0	0	0	1021	513	0	0	
11	0	0	0	0	0	0	1021	508	0	0	
12	0	0	0	0	0	0	1021	504	0	0	
13	0	0	0	0	0	0	1021	501	0	0	
14	0	0	0	0	0	0	1021	500	0	0	
15	0	0	0	0	0	0	1021	500	0	0	
0	0	0	0	0	0	0	1021	502	0	0	
1	0	0	0	0	0	0	1021	504	0	0	
2	0	0	0	0	0	0	1021	510	0	0	
3	0	0	0	0	0	0	1021	515	0	0	
4	0	0	0	0	0	0	1021	523	0	0	
5	0	0	0	0	0	0	1021	530	0	0	
6	0	0	0	0	0	0	1021	538	0	0	
7	0	0	0	0	0	0	1021	545	0	0	
8	0	0	0	0	0	0	1021	552	0	0	
9	0	0	0	0	0	0	1021	558	0	0	
10	0	0	0	0	0	0	1021	562	0	0	
11	0	0	0	0	0	0	1021	563	0	0	
12	0	0	0	0	0	0	1021	561	0	0	
13	0	0	0	0	0	0	1021	557	0	0	
14	0	0	0	0	0	0	1021	549	0	0	
15	0	0	0	0	0	0	1021	538	0	0	
0	0	0	0	0	0	0	1021	525	0	0	
1	0	0	0	0	0	0	1021	511	0	0	
2	0	0	0	0	0	0	1021	497	0	0	
3	0	0	0	0	0	0	1021	487	0	0	
4	0	0	0	0	0	0	1021	480	0	0	
5	0	0	0	0	0	0	1021	477	0	0	
6	0	0	0	0	0	0	1021	479	0	0	
7	0	0	0	0	0	0	1021	484	0	0	
8	0	0	0	0	0	0	1021	492	0	0	
9	0	0	0	0	0	0	1021	503	0	0	
10	0	0	0	0	0	0	1021	513	0	0	
11	0	0	0	0	0	0	1020	522	0	0	
12	0	0	0	0	0	0	1021	529	0	0	
13	0	0	0	0	0	0	1021	534	0	0	
14	0	0	0	0	0	0	1021	534	0	0	
15	0	0	0	0	0	0	1021	531	0	0	
0	0	0	0	0	0	0	1021	526	0	0	
1	0	0	0	0	0	0	1021	519	0	0	
2	0	0	0	0	0	0	1021	510	0	0	
3	0	0	0	0	0	0	1021	502	0	0	
4	0	0	0	0	0	0	1021	494	0	0	
5	0	0	0	0	0	0	1021	487	0	0	
6	0	0	0	0	0	0	1021	482	0	0	
7	0	0	0	0	0	0	1021	481	0	0	
8	0	0	0	0	0	0	1021	482	0	0	
9	0	0	0	0	0	0	1021	488	0	0	
10	0	0	0	0	0	0	1021	499	0	0	
11	0	0	0	0	0	0	1021	513	0	0	
12	0	0	0	0	0	0	1021	529	0	0	
13	0	0	0	0	0	0	1021	547	0	0	
14	0	0	0	0	0	0	1021	564	0	0	
15	0	0	0	0	0	0	1021	579	0	0	
0	0	0	0	0	0	0	1021	591	0	0	
1	0	0	0	0	0	0	1021	598	0	0	
2	0	0	0	0	0	0	1021	599	0	0	
3	0	0	0	0	0	0	1021	594	0	0	
4	0	0	0	0	0	0	1021	585	0	0	
5	0	0	0	0	0	0	1021	571	0	0	
6	0	0	0	0	0	0	1021	554	0	0	
7	0	0	0	0	0	0	1021	535	0	0	
8	0	0	0	0	0	0	1021	517	0	0	
9	0	0	0	0	0	0	1020	499	0	0	
10	0	0	0	0	0	0	1021	484	0	0	
11	0	0	0	0	0	0	1021	472	0	0	
12	0	0	0	0	0	0	1021	463	0	0	
13	0	0	0	0	0	0	1021	460	0	0	
14	0	0	0	0	0	0	1021	461	0	0	
15	0	0	0	0	0	0	1021	467	0	0	
0	0	0	0	0	0	0	1021	476	0	0	
1	0	0	0	0	0	0	1021	487	0	0	
2	0	0	0	0	0	0	1021	499	0	0	
3	0	0	0	0	0	0	1021	511	0	0	
4	0	0	0	0	0	0	1021	521	0	0	
5	0	0	0	0	0	0	1021	528	0	0	
6	0	0	0	0	0	0	1021	532	0	0	
7	0	0	0	0	0	0	1021	531	0	0	
8	0	0	0	0	0	0	1021	526	0	0	
9	0	0	0	0	0	0	1021	515	0	0	
10	0	0	0	0	0	0	1021	501	0	0	
11	0	0	0	0	0	0	1021	484	0	0	
12	0	0	0	0	0	0	1021	467	0	0	
13	0	0	0	0	0	0	1021	451	0	0	
14	0	0	0	0	0	0	1021	439	0	0	
15	0	0	0	0	0	0	1021	430	0	0	
0	0	0	0	0	0	0	1021	428	0	0	
1	0	0	0	0	0	0	1021	433	0	0	
2	0	0	0	0	0	0	1021	444	0	0	
3	0	0	0	0	0	0	1021	461	0	0	
4	0	0	0	0	0	0	1021	481	0	0	
5	0	0	0	0	0	0	1021	503	0	0	
6	0	0	0	0	0	0	1021	526	0	0	
7	0	0	0	0	0	0	1021	547	0	0	
8	0	0	0	0	0	0	1021	565	0	0	
9	0	0	0	0	0	0	1021	578	0	0	
10	0	0	0	0	0	0	1021	587	0	0	
11	0	0	0	0	0	0	1021	592	0	0	
12	0	0	0	0	0	0	1020	591	0	0	
13	0	0	0	0	0	0	1021	587	0	0	
14	0	0	0	0	0	0	1021	578	0	0	
15	0	0	0	0	0	0	1021	567	0	0	
0	0	0	0	0	0	0	1021	555	0	0	
1	0	0	0	0	0	0	1021	541	0	0	
2	0	0	0	0	0	0	1021	528	0	0	
3	0	0	0	0	0	0	1021	515	0	0	
4	0	0	0	0	0	0	1021	503	0	0	
5	0	0	0	0	0	0	1021	494	0	0	
6	0	0	0	0	0	0	1021	486	0	0	
7	0	0	0	0	0	0	1021	481	0	0	
8	0	0	0	0	0	0	1021	479	0	0	
9	0	0	0	0	0	0	1021	480	0	0	
10	0	0	0	0	0	0	1021	484	0	0	
11	0	0	0	0	0	0	1021	491	0	0	
12	0	0	0	0	0	0	1021	501	0	0	
13	0	0	0	0	0	0	1021	511	0	0	
14	0	0	0	0	0	0	1021	522	0	0	
15	0	0	0	0	0	0	1021	533	0	0	
0	0	0	0	0	0	0	1021	541	0	0	
1	0	0	0	0	0	0	1021	547	0	0	
2	0	0	0	0	0	0	1021	550	0	0	
3	0	0	0	0	0	0	1021	549	0	0	
4	0	0	0	0	0	0	1021	547	0	0	
5	0	0	0	0	0	0	1021	543	0	0	
6	0	0	0	0	0	0	1021	539	0	0	
7	0	0	0	0	0	0	1021	535	0	0	
8	0	0	0	0	0	0	1021	531	0	0	
9	0	0	0	0	0	0	1021	529	0	0	
10	0	0	0	0	0	0	1021	527	0	0	
11	0	0	0	0	0	0	1021	527	0	0	
12	0	0	0	0	0	0	1021	527	0	0	
13	0	0	0	0	0	0	1021	528	0	0	
14	0	0	0	0	0	0	1021	529	0	0	
15	0	0	0	0	0	0	1021	530	0	0	
0	0	0	0	0	0	0	1021	530	0	0	
1	0	0	0	0	0	0	1021	530	0	0	
2	0	0	0	0	0	0	1021	528	0	0	
3	0	0	0	0	0	0	1021	526	0	0	
4	0	0	0	0	0	0	1021	523	0	0	
5	0	0	0	0	0	0	1021	519	0	0	
6	0	0	0	0	0	0	1021	513	0	0	
7	0	0	0	0	0	0	1021	507	0	0	
8	0	0	0	0	0	0	1021	502	0	0	
9	0	0	0	0	0	0	1021	497	0	0	
10	0	0	0	0	0	0	1021	493	0	0	
11	0	0	0	0	0	0	1021	492	0	0	
12	0	0	0	0	0	0	1021	491	0	0	
13	0	0	0	0	0	0	1021	492	0	0	
14	0	0	0	0	0	0	1021	493	0	0	
15	0	0	0	0	0	0	1021	495	0	0	
0	0	0	0	0	0	0	1021	495	0	0	
1	0	0	0	0	0	0	1021	495	0	0	
2	0	0	0	0	0	0	1021	494	0	0	
3	0	0	0	0	0	0	1021	492	0	0	
4	0	0	0	0	0	0	1021	489	0	0	
5	0	0	0	0	0	0	1021	485	0	0	
6	0	0	0	0	0	0	1021	482	0	0	
7	0	0	0	0	0	0	1021	480	0	0	
8	0	0	0	0	0	0	1021	481	0	0	
9	0	0	0	0	0	0	1021	483	0	0	
10	0	0	0	0	0	0	1021	488	0	0	
11	0	0	0	0	0	0	1021	496	0	0	
12	0	0	0	0	0	0	1021	507	0	0	
13	0	0	0	0	0	0	1021	519	0	0	
14	0	0	0	0	0	0	1021	533	0	0	
15	0	0	0	0	0	0	1021	546	0	0	
0	0	0	0	0	0	0	1021	558	0	0	
1	0	0	0	0	0	0	1021	568	0	0	
2	0	0	0	0	0	0	1021	575	0	0	
3	0	0	0	0	0	0	1021	579	0	0	
4	0	0	0	0	0	0	1021	577	0	0	
5	0	0	0	0	0	0	1021	573	0	0	
6	0	0	0	0	0	0	1021	565	0	0	
7	0	0	0	0	0	0	1021	555	0	0	
8	0	0	0	0	0	0	1021	543	0	0	
9	0	0	0	0	0	0	1021	532	0	0	
10	0	0	0	0	0	0	1021	521	0	0	
11	0	0	0	0	0	0	1021	512	0	0	
12	0	0	0	0	0	0	1021	506	0	0	
13	0	0	0	0	0	0	1021	503	0	0	
14	0	0	0	0	0	0	1021	503	0	0	
15	0	0	0	0	0	0	1021	507	0	0	
0	0	0	0	0	0	0	1021	513	0	0	
1	0	0	0	0	0	0	1021	521	0	0	
2	0	0	0	0	0	0	1021	531	0	0	
3	0	0	0	0	0	0	1021	540	0	0	
4	0	0	0	0	0	0	1021	550	0	0	
5	0	0	0	0	0	0	1021	558	0	0	
6	0	0	0	0	0	0	1021	566	0	0	
7	0	0	0	0	0	0	1021	573	0	0	
8	0	0	0	0	0	0	1021	578	0	0	
9	0	0	0	0	0	0	1021	582	0	0	
10	0	0	0	0	0	0	1021	585	0	0	
11	0	0	0	0	0	0	1021	586	0	0	
12	0	0	0	0	0	0	1021	586	0	0	
13	0	0	0	0	0	0	1021	583	0	0	
14	0	0	0	0	0	0	1021	581	0	0	
15	0	0	0	0	0	0	1021	578	0	0	
0	0	0	0	0	0	0	1021	574	0	0	
1	0	0	0	0	0	0	1021	569	0	0	
2	0	0	0	0	0	0	1021	564	0	0	
3	0	0	0	0	0	0	1021	557	0	0	
4	0	0	0	0	0	0	1021	550	0	0	
5	0	0	0	0	0	0	1021	541	0	0	
6	0	0	0	0	0	0	1021	532	0	0	
7	0	0	0	0	0	0	1021	523	0	0	
8	0	0	0	0	0	0	1021	514	0	0	
9	0	0	0	0	0	0	1021	506	0	0	
10	0	0	0	0	0	0	1021	500	0	0	
11	0	0	0	0	0	0	1021	497	0	0	
12	0	0	0	0	0	0	1021	496	0	0	
13	0	0	0	0	0	0	1021	499	0	0	
14	0	0	0	0	0	0	1021	504	0	0	
15	0	0	0	0	0	0	1021	513	0	0	
0	0	0	0	0	0	0	1021	523	0	0	
1	0	0	0	0	0	0	1021	532	0	0	
2	0	0	0	0	0	0	1021	541	0	0	
3	0	0	0	0	0	0	1021	548	0	0	
4	0	0	0	0	0	0	1021	553	0	0	
5	0	0	0	0	0	0	1021	557	0	0	
6	0	0	0	0	0	0	1021	560	0	0	
7	0	0	0	0	0	0	1021	563	0	0	
8	0	0	0	0	0	0	1021	564	0	0	
9	0	0	0	0	0	0	1021	566	0	0	
10	0	0	0	0	0	0	1021	567	0	0	
11	0	0	0	0	0	0	1021	567	0	0	
12	0	0	0	0	0	0	1021	564	0	0	
13	0	0	0	0	0	0	1021	560	0	0	
14	0	0	0	0	0	0	1021	555	0	0	
15	0	0	0	0	0	0	1021	547	0	0	
0	0	0	0	0	0	0	1021	537	0	0	
1	0	0	0	0	0	0	1021	527	0	0	
2	0	0	0	0	0	0	1021	518	0	0	
3	0	0	0	0	0	0	1021	510	0	0	
4	0	0	0	0	0	0	1021	504	0	0	
5	0	0	0	0	0	0	1021	500	0	0	
6	0	0	0	0	0	0	1021	499	0	0	
7	0	0	0	0	0	0	1021	500	0	0	
8	0	0	0	0	0	0	1021	502	0	0	
9	0	0	0	0	0	0	1021	505	0	0	
10	0	0	0	0	0	0	1021	509	0	0	
11	0	0	0	0	0	0	1021	513	0	0	
12	0	0	0	0	0	0	1021	516	0	0	
13	0	0	0	0	0	0	1021	519	0	0	
14	0	0	0	0	0	0	1021	522	0	0	
15	0	0	0	0	0	0	1021	523	0	0	
0	0	0	0	0	0	0	1021	524	0	0	
1	0	0	0	0	0	0	1021	527	0	0	
2	0	0	0	0	0	0	1021	530	0	0	
3	0	0	0	0	0	0	1021	534	0	0	
4	0	0	0	0	0	0	1021	540	0	0	
5	0	0	0	0	0	0	1021	548	0	0	
6	0	0	0	0	0	0	1021	557	0	0	
7	0	0	0	0	0	0	1021	567	0	0	
8	0	0	0	0	0	0	1021	575	0	0	
9	0	0	0	0	0	0	1021	581	0	0	
10	0	0	0	0	0	0	1021	584	0	0	
11	0	0	0	0	0	0	1021	585	0	0	
12	0	0	0	0	0	0	1021	582	0	0	
13	0	0	0	0	0	0	1021	575	0	0	
14	0	0	0	0	0	0	1021	566	0	0	
15	0	0	0	0	0	0	1021	554	0	0	
0	0	0	0	0	0	0	1021	542	0	0	
1	0	0	0	0	0	0	1021	528	0	0	
2	0	0	0	0	0	0	1021	516	0	0	
3	0	0	0	0	0	0	1021	506	0	0	
4	0	0	0	0	0	0	1021	498	0	0	
5	0	0	0	0	0	0	1021	495	0	0	
6	0	0	0	0	0	0	1021	495	0	0	
7	0	0	0	0	0	0	1021	499	0	0	
8	0	0	0	0	0	0	1021	507	0	0	
9	0	0	0	0	0	0	1021	517	0	0	
10	0	0	0	0	0	0	1021	528	0	0	
11	0	0	0	0	0	0	1021	540	0	0	
12	0	0	0	0	0	0	1021	551	0	0	
13	0	0	0	0	0	0	1021	560	0	0	
14	0	0	0	0	0	0	1021	568	0	0	
15	0	0	0	0	0	0	1021	570	0	0	
0	0	0	0	0	0	0	1021	569	0	0	
1	0	0	0	0	0	0	1021	563	0	0	
2	0	0	0	0	0	0	1021	554	0	0	
3	0	0	0	0	0	0	1021	542	0	0	
4	0	0	0	0	0	0	1021	528	0	0	
5	0	0	0	0	0	0	1021	515	0	0	
6	0	0	0	0	0	0	1021	503	0	0	
7	0	0	0	0	0	0	1021	494	0	0	
8	0	0	0	0	0	0	1021	488	0	0	
9	0	0	0	0	0	0	1021	487	0	0	
10	0	0	0	0	0	0	1021	488	0	0	
11	0	0	0	0	0	0	1021	493	0	0	
12	0	0	0	0	0	0	1021	501	0	0	
13	0	0	0	0	0	0	1021	510	0	0	
14	0	0	0	0	0	0	1021	519	0	0	
15	0	0	0	0	0	0	1021	527	0	0	
0	0	0	0	0	0	0	1021	536	0	0	
1	0	0	0	0	0	0	1021	541	0	0	
2	0	0	0	0	0	0	1021	543	0	0	
3	0	0	0	0	0	0	1021	543	0	0	
4	0	0	0	0	0	0	1021	540	0	0	
5	0	0	0	0	0	0	1021	535	0	0	
6	0	0	0	0	0	0	1021	528	0	0	
7	0	0	0	0	0	0	1021	520	0	0	
8	0	0	0	0	0	0	1021	513	0	0	
9	0	0	0	0	0	0	1021	507	0	0	
10	0	0	0	0	0	0	1021	503	0	0	
11	0	0	0	0	0	0	1021	500	0	0	
12	0	0	0	0	0	0	1021	500	0	0	
13	0	0	0	0	0	0	1021	502	0	0	
14	0	0	0	0	0	0	1021	505	0	0	
15	0	0	0	0	0	0	1021	511	0	0	
0	0	0	0	0	0	0	1021	519	0	0	
1	0	0	0	0	0	0	1021	528	0	0	
2	0	0	0	0	0	0	1021	539	0	0	
3	0	0	0	0	0	0	1021	550	0	0	
4	0	0	0	0	0	0	1021	561	0	0	
5	0	0	0	0	0	0	1021	570	0	0	
6	0	0	0	0	0	0	1021	579	0	0	
7	0	0	0	0	0	0	1021	585	0	0	
8	0	0	0	0	0	0	1021	587	0	0	
9	0	0	0	0	0	0	1021	587	0	0	
10	0	0	0	0	0	0	1021	583	0	0	
11	0	0	0	0	0	0	1021	575	0	0	
12	0	0	0	0	0	0	1021	566	0	0	
13	0	0	0	0	0	0	1021	552	0	0	
14	0	0	0	0	0	0	1021	538	0	0	
15	0	0	0	0	0	0	1021	523	0	0	
0	0	0	0	0	0	0	1021	510	0	0	
1	0	0	0	0	0	0	1021	499	0	0	
2	0	0	0	0	0	0	1021	492	0	0	
3	0	0	0	0	0	0	1021	489	0	0	
4	0	0	0	0	0	0	1021	490	0	0	
5	0	0	0	0	0	0	1021	496	0	0	
6	0	0	0	0	0	0	1021	505	0	0	
7	0	0	0	0	0	0	1021	516	0	0	
8	0	0	0	0	0	0	1021	528	0	0	
9	0	0	0	0	0	0	1021	539	0	0	
10	0	0	0	0	0	0	1021	548	0	0	
11	0	0	0	0	0	0	1021	555	0	0	
12	0	0	0	0	0	0	1021	559	0	0	
13	0	0	0	0	0	0	1021	560	0	0	
14	0	0	0	0	0	0	1021	559	0	0	
15	0	0	0	0	0	0	1021	555	0	0	
0	0	0	0	0	0	0	1021	550	0	0	
1	0	0	0	0	0	0	1021	545	0	0	
2	0	0	0	0	0	0	1021	541	0	0	
3	0	0	0	0	0	0	1021	537	0	0	
4	0	0	0	0	0	0	1021	536	0	0	
5	0	0	0	0	0	0	1021	537	0	0	
6	0	0	0	0	0	0	1021	540	0	0	
7	0	0	0	0	0	0	1021	544	0	0	
8	0	0	0	0	0	0	1021	550	0	0	
9	0	0	0	0	0	0	1021	556	0	0	
10	0	0	0	0	0	0	1021	564	0	0	
11	0	0	0	0	0	0	1021	571	0	0	
12	0	0	0	0	0	0	1021	578	0	0	
13	0	0	0	0	0	0	1021	583	0	0	
14	0	0	0	0	0	0	1021	587	0	0	
15	0	0	0	0	0	0	1021	588	0	0	
0	0	0	0	0	0	0	1021	587	0	0	
1	0	0	0	0	0	0	1021	583	0	0	
2	0	0	0	0	0	0	1021	576	0	0	
3	0	0	0	0	0	0	1021	568	0	0	
4	0	0	0	0	0	0	1021	558	0	0	
5	0	0	0	0	0	0	1021	547	0	0	
6	0	0	0	0	0	0	1021	537	0	0	
7	0	0	0	0	0	0	1021	527	0	0	
8	0	0	0	0	0	0	1021	519	0	0	
9	0	0	0	0	0	0	1021	511	0	0	
10	0	0	0	0	0	0	1021	504	0	0	
11	0	0	0	0	0	0	1021	498	0	0	
12	0	0	0	0	0	0	1021	492	0	0	
13	0	0	0	0	0	0	1021	486	0	0	
14	0	0	0	0	0	0	1021	480	0	0	
15	0	0	0	0	0	0	1021	473	0	0	
0	0	0	0	0	0	0	1021	466	0	0	
1	0	0	0	0	0	0	1021	457	0	0	
2	0	0	0	0	0	0	1021	449	0	0	
3	0	0	0	0	0	0	1021	439	0	0	
4	0	0	0	0	0	0	1021	428	0	0	
5	0	0	0	0	0	0	1021	416	0	0	
6	0	0	0	0	0	0	1021	402	0	0	
7	0	0	0	0	0	0	1021	387	0	0	
8	0	0	0	0	0	0	1021	372	0	0	
9	0	0	0	0	0	0	1021	357	0	0	
10	0	0	0	0	0	0	1021	344	0	0	
11	0	0	0	0	0	0	1021	334	0	0	
12	0	0	0	0	0	0	1021	325	0	0	
13	0	0	0	0	0	0	1021	321	0	0	
14	0	0	0	0	0	0	1021	321	0	0	
15	0	0	0	0	0	0	1021	324	0	0	
0	0	0	0	0	0	0	1021	332	0	0	
1	0	0	0	0	0	0	1021	342	0	0	
2	0	0	0	0	0	0	1021	355	0	0	
3	0	0	0	0	0	0	1021	370	0	0	
4	0	0	0	0	0	0	1021	387	0	0	
5	0	0	0	0	0	0	1021	403	0	0	
6	0	0	0	0	0	0	1021	419	0	0	
7	0	0	0	0	0	0	1021	434	0	0	
8	0	0	0	0	0	0	1021	447	0	0	
9	0	0	0	0	0	0	1020	460	0	0	
10	0	0	0	0	0	0	1021	473	0	0	
11	0	0	0	0	0	0	1021	485	0	0	
12	0	0	0	0	0	0	1021	497	0	0	
13	0	0	0	0	0	0	1021	509	0	0	
14	0	0	0	0	0	0	1021	520	0	0	
15	0	0	0	0	0	0	1021	531	0	0	
0	0	0	0	0	0	0	1021	541	0	0	
1	0	0	0	0	0	0	1021	550	0	0	
2	0	0	0	0	0	0	1021	558	0	0	
3	0	0	0	0	0	0	1021	563	0	0	
4	0	0	0	0	0	0	1021	566	0	0	
5	0	0	0	0	0	0	1021	565	0	0	
6	0	0	0	0	0	0	1021	562	0	0	
7	0	0	0	0	0	0	1021	556	0	0	
8	0	0	0	0	0	0	1021	548	0	0	
9	0	0	0	0	0	0	1021	540	0	0	
10	0	0	0	0	0	0	1021	532	0	0	
11	0	0	0	0	0	0	1021	526	0	0	
12	0	0	0	0	0	0	1021	521	0	0	
13	0	0	0	0	0	0	1021	517	0	0	
14	0	0	0	0	0	0	1021	516	0	0	
15	0	0	0	0	0	0	1021	517	0	0	
0	0	0	0	0	0	0	1021	520	0	0	
1	0	0	0	0	0	0	1021	525	0	0	
2	0	0	0	0	0	0	1021	531	0	0	
3	0	0	0	0	0	0	1021	537	0	0	
4	0	0	0	0	0	0	1021	543	0	0	
5	0	0	0	0	0	0	1021	549	0	0	
6	0	0	0	0	0	0	1021	554	0	0	
7	0	0	0	0	0	0	1021	558	0	0	
8	0	0	0	0	0	0	1021	560	0	0	
9	0	0	0	0	0	0	1021	561	0	0	
10	0	0	0	0	0	0	1021	562	0	0	
11	0	0	0	0	0	0	1021	562	0	0	
12	0	0	0	0	0	0	1021	562	0	0	
13	0	0	0	0	0	0	1021	563	0	0	
14	0	0	0	0	0	0	1021	563	0	0	
15	0	0	0	0	0	0	1021	564	0	0	
0	0	0	0	0	0	0	1021	565	0	0	
1	0	0	0	0	0	0	1021	565	0	0	
2	0	0	0	0	0	0	1021	564	0	0	
3	0	0	0	0	0	0	1021	562	0	0	
4	0	0	0	0	0	0	1021	559	0	0	
5	0	0	0	0	0	0	1021	556	0	0	
6	0	0	0	0	0	0	1021	551	0	0	
7	0	0	0	0	0	0	1021	546	0	0	
8	0	0	0	0	0	0	1021	542	0	0	
9	0	0	0	0	0	0	1021	540	0	0	
10	0	0	0	0	0	0	1021	539	0	0	
11	0	0	0	0	0	0	1021	540	0	0	
12	0	0	0	0	0	0	1021	543	0	0	
13	0	0	0	0	0	0	1021	548	0	0	
14	0	0	0	0	0	0	1021	554	0	0	
15	0	0	0	0	0	0	1021	560	0	0	
0	0	0	0	0	0	0	1021	566	0	0	
1	0	0	0	0	0	0	1021	572	0	0	
2	0	0	0	0	0	0	1021	575	0	0	
3	0	0	0	0	0	0	1021	578	0	0	
4	0	0	0	0	0	0	1021	578	0	0	
5	0	0	0	0	0	0	1021	576	0	0	
6	0	0	0	0	0	0	1021	572	0	0	
7	0	0	0	0	0	0	1021	565	0	0	
8	0	0	0	0	0	0	1021	557	0	0	
9	0	0	0	0	0	0	1021	548	0	0	
10	0	0	0	0	0	0	1021	540	0	0	
11	0	0	0	0	0	0	1021	531	0	0	
12	0	0	0	0	0	0	1021	521	0	0	
13	0	0	0	0	0	0	1021	513	0	0	
14	0	0	0	0	0	0	1021	507	0	0	
15	0	0	0	0	0	0	1021	501	0	0	
0	0	0	0	0	0	0	1021	496	0	0	
1	0	0	0	0	0	0	1021	491	0	0	
2	0	0	0	0	0	0	1021	489	0	0	
3	0	0	0	0	0	0	1021	487	0	0	
4	0	0	0	0	0	0	1021	487	0	0	
5	0	0	0	0	0	0	1021	489	0	0	
6	0	0	0	0	0	0	1021	492	0	0	
7	0	0	0	0	0	0	1021	495	0	0	
8	0	0	0	0	0	0	1021	500	0	0	
9	0	0	0	0	0	0	1021	504	0	0	
10	0	0	0	0	0	0	1021	510	0	0	
11	0	0	0	0	0	0	1021	516	0	0	
12	0	0	0	0	0	0	1021	524	0	0	
13	0	0	0	0	0	0	1021	532	0	0	
14	0	0	0	0	0	0	1021	541	0	0	
15	0	0	0	0	0	0	1021	550	0	0	
0	0	0	0	0	0	0	1021	558	0	0	
1	0	0	0	0	0	0	1021	565	0	0	
2	0	0	0	0	0	0	1021	572	0	0	
3	0	0	0	0	0	0	1021	576	0	0	
4	0	0	0	0	0	0	1021	579	0	0	
5	0	0	0	0	0	0	1021	579	0	0	
6	0	0	0	0	0	0	1021	577	0	0	
7	0	0	0	0	0	0	1021	573	0	0	
8	0	0	0	0	0	0	1020	566	0	0	
9	0	0	0	0	0	0	1021	558	0	0	
10	0	0	0	0	0	0	1021	548	0	0	
11	0	0	0	0	0	0	1021	537	0	0	
12	0	0	0	0	0	0	1021	527	0	0	
13	0	0	0	0	0	0	1021	518	0	0	
14	0	0	0	0	0	0	1021	510	0	0	
15	0	0	0	0	0	0	1021	504	0	0	
0	0	0	0	0	0	0	1021	500	0	0	
1	0	0	0	0	0	0	1021	498	0	0	
2	0	0	0	0	0	0	1021	498	0	0	
3	0	0	0	0	0	0	1021	499	0	0	
4	0	0	0	0	0	0	1021	501	0	0	
5	0	0	0	0	0	0	1021	504	0	0	
6	0	0	0	0	0	0	1021	507	0	0	
7	0	0	0	0	0	0	1021	510	0	0	
8	0	0	0	0	0	0	1021	512	0	0	
9	0	0	0	0	0	0	1021	513	0	0	
10	0	0	0	0	0	0	1021	514	0	0	
11	0	0	0	0	0	0	1021	515	0	0	
12	0	0	0	0	0	0	1021	516	0	0	
13	0	0	0	0	0	0	1021	518	0	0	
14	0	0	0	0	0	0	1021	519	0	0	
15	0	0	0	0	0	0	1021	521	0	0	
0	0	0	0	0	0	0	1021	524	0	0	
1	0	0	0	0	0	0	1021	525	0	0	
2	0	0	0	0	0	0	1021	526	0	0	
3	0	0	0	0	0	0	1021	527	0	0	
4	0	0	0	0	0	0	1021	526	0	0	
5	0	0	0	0	0	0	1021	525	0	0	
6	0	0	0	0	0	0	1021	525	0	0	
7	0	0	0	0	0	0	1021	524	0	0	
8	0	0	0	0	0	0	1021	525	0	0	
9	0	0	0	0	0	0	1021	527	0	0	
10	0	0	0	0	0	0	1021	530	0	0	
11	0	0	0	0	0	0	1021	534	0	0	
12	0	0	0	0	0	0	1021	540	0	0	
13	0	0	0	0	0	0	1021	544	0	0	
14	0	0	0	0	0	0	1021	550	0	0	
15	0	0	0	0	0	0	1021	555	0	0	
0	0	0	0	0	0	0	1021	558	0	0	
1	0	0	0	0	0	0	1021	558	0	0	
2	0	0	0	0	0	0	1021	554	0	0	
3	0	0	0	0	0	0	1021	548	0	0	
4	0	0	0	0	0	0	1021	538	0	0	
5	0	0	0	0	0	0	1021	525	0	0	
6	0	0	0	0	0	0	1021	510	0	0	
7	0	0	0	0	0	0	1021	493	0	0	
8	0	0	0	0	0	0	1021	476	0	0	
9	0	0	0	0	0	0	1021	460	0	0	
10	0	0	0	0	0	0	1021	446	0	0	
11	0	0	0	0	0	0	1021	436	0	0	
12	0	0	0	0	0	0	1021	433	0	0	
13	0	0	0	0	0	0	1021	435	0	0	
14	0	0	0	0	0	0	1021	443	0	0	
15	0	0	0	0	0	0	1021	457	0	0	
0	0	0	0	0	0	0	1021	475	0	0	
1	0	0	0	0	0	0	1021	495	0	0	
2	0	0	0	0	0	0	1021	517	0	0	
3	0	0	0	0	0	0	1021	537	0	0	
4	0	0	0	0	0	0	1021	554	0	0	
5	0	0	0	0	0	0	1021	567	0	0	
6	0	0	0	0	0	0	1021	575	0	0	
7	0	0	0	0	0	0	1021	580	0	0	
8	0	0	0	0	0	0	1021	580	0	0	
9	0	0	0	0	0	0	1021	576	0	0	
10	0	0	0	0	0	0	1021	568	0	0	
11	0	0	0	0	0	0	1021	559	0	0	
12	0	0	0	0	0	0	1021	548	0	0	
13	0	0	0	0	0	0	1021	538	0	0	
14	0	0	0	0	0	0	1021	528	0	0	
15	0	0	0	0	0	0	1021	520	0	0	
0	0	0	0	0	0	0	1021	514	0	0	
1	0	0	0	0	0	0	1021	510	0	0	
2	0	0	0	0	0	0	1021	509	0	0	
3	0	0	0	0	0	0	1021	510	0	0	
4	0	0	0	0	0	0	1021	512	0	0	
5	0	0	0	0	0	0	1021	517	0	0	
6	0	0	0	0	0	0	1021	524	0	0	
7	0	0	0	0	0	0	1021	533	0	0	
8	0	0	0	0	0	0	1021	543	0	0	
9	0	0	0	0	0	0	1021	553	0	0	
10	0	0	0	0	0	0	1021	561	0	0	
11	0	0	0	0	0	0	1021	566	0	0	
12	0	0	0	0	0	0	1020	567	0	0	
13	0	0	0	0	0	0	1021	563	0	0	
14	0	0	0	0	0	0	1021	557	0	0	
15	0	0	0	0	0	0	1021	547	0	0	
0	0	0	0	0	0	0	1021	536	0	0	
1	0	0	0	0	0	0	1021	523	0	0	
2	0	0	0	0	0	0	1021	512	0	0	
3	0	0	0	0	0	0	1021	502	0	0	
4	0	0	0	0	0	0	1021	494	0	0	
5	0	0	0	0	0	0	1021	488	0	0	
6	0	0	0	0	0	0	1021	486	0	0	
7	0	0	0	0	0	0	1021	487	0	0	
8	0	0	0	0	0	0	1021	489	0	0	
9	0	0	0	0	0	0	1021	493	0	0	
10	0	0	0	0	0	0	1021	498	0	0	
11	0	0	0	0	0	0	1021	504	0	0	
12	0	0	0	0	0	0	1021	509	0	0	
13	0	0	0	0	0	0	1021	514	0	0	
14	0	0	0	0	0	0	1021	517	0	0	
15	0	0	0	0	0	0	1021	519	0	0	
0	0	0	0	0	0	0	1021	518	0	0	
1	0	0	0	0	0	0	1021	515	0	0	
2	0	0	0	0	0	0	1021	511	0	0	
3	0	0	0	0	0	0	1021	506	0	0	
4	0	0	0	0	0	0	1021	501	0	0	
5	0	0	0	0	0	0	1021	496	0	0	
6	0	0	0	0	0	0	1021	492	0	0	
7	0	0	0	0	0	0	1021	488	0	0	
8	0	0	0	0	0	0	1021	487	0	0	
9	0	0	0	0	0	0	1021	486	0	0	
10	0	0	0	0	0	0	1021	486	0	0	
11	0	0	0	0	0	0	1021	486	0	0	
12	0	0	0	0	0	0	1020	487	0	0	
13	0	0	0	0	0	0	1021	488	0	0	
14	0	0	0	0	0	0	1021	489	0	0	
15	0	0	0	0	0	0	1021	490	0	0	
0	0	0	0	0	0	0	1020	491	0	0	
1	0	0	0	0	0	0	1021	492	0	0	
2	0	0	0	0	0	0	1021	492	0	0	
3	0	0	0	0	0	0	1021	493	0	0	
4	0	0	0	0	0	0	1021	494	0	0	
5	0	0	0	0	0	0	1021	495	0	0	
6	0	0	0	0	0	0	1021	496	0	0	
7	0	0	0	0	0	0	1021	498	0	0	
8	0	0	0	0	0	0	1021	500	0	0	
9	0	0	0	0	0	0	1021	503	0	0	
10	0	0	0	0	0	0	1021	505	0	0	
11	0	0	0	0	0	0	1021	507	0	0	
12	0	0	0	0	0	0	1021	508	0	0	
13	0	0	0	0	0	0	1021	510	0	0	
14	0	0	0	0	0	0	1021	512	0	0	
15	0	0	0	0	0	0	1021	515	0	0	
0	0	0	0	0	0	0	1021	519	0	0	
1	0	0	0	0	0	0	1021	523	0	0	
2	0	0	0	0	0	0	1021	527	0	0	
3	0	0	0	0	0	0	1021	529	0	0	
4	0	0	0	0	0	0	1021	531	0	0	
5	0	0	0	0	0	0	1021	531	0	0	
6	0	0	0	0	0	0	1021	530	0	0	
7	0	0	0	0	0	0	1021	528	0	0	
8	0	0	0	0	0	0	1021	526	0	0	
9	0	0	0	0	0	0	1021	524	0	0	
10	0	0	0	0	0	0	1021	520	0	0	
11	0	0	0	0	0	0	1021	517	0	0	
12	0	0	0	0	0	0	1021	515	0	0	
13	0	0	0	0	0	0	1021	513	0	0	
14	0	0	0	0	0	0	1021	514	0	0	
15	0	0	0	0	0	0	1021	516	0	0	
0	0	0	0	0	0	0	1021	519	0	0	
1	0	0	0	0	0	0	1021	525	0	0	
2	0	0	0	0	0	0	1021	532	0	0	
3	0	0	0	0	0	0	1021	540	0	0	
4	0	0	0	0	0	0	1021	550	0	0	
5	0	0	0	0	0	0	1021	560	0	0	
6	0	0	0	0	0	0	1021	570	0	0	
7	0	0	0	0	0	0	1021	577	0	0	
8	0	0	0	0	0	0	1021	582	0	0	
9	0	0	0	0	0	0	1021	583	0	0	
10	0	0	0	0	0	0	1021	579	0	0	
11	0	0	0	0	0	0	1021	571	0	0	
12	0	0	0	0	0	0	1021	558	0	0	
13	0	0	0	0	0	0	1021	542	0	0	
14	0	0	0	0	0	0	1021	526	0	0	
15	0	0	0	0	0	0	1021	509	0	0	
0	0	0	0	0	0	0	1021	495	0	0	
1	0	0	0	0	0	0	1021	484	0	0	
2	0	0	0	0	0	0	1021	477	0	0	
3	0	0	0	0	0	0	1021	473	0	0	
4	0	0	0	0	0	0	1021	473	0	0	
5	0	0	0	0	0	0	1021	478	0	0	
6	0	0	0	0	0	0	1021	485	0	0	
7	0	0	0	0	0	0	1021	494	0	0	
8	0	0	0	0	0	0	1021	504	0	0	
9	0	0	0	0	0	0	1021	513	0	0	
10	0	0	0	0	0	0	1021	523	0	0	
11	0	0	0	0	0	0	1021	530	0	0	
12	0	0	0	0	0	0	1021	536	0	0	
13	0	0	0	0	0	0	1021	538	0	0	
14	0	0	0	0	0	0	1021	537	0	0	
15	0	0	0	0	0	0	1021	534	0	0	
0	0	0	0	0	0	0	1021	528	0	0	
1	0	0	0	0	0	0	1021	520	0	0	
2	0	0	0	0	0	0	1021	512	0	0	
3	0	0	0	0	0	0	1021	503	0	0	
4	0	0	0	0	0	0	1021	496	0	0	
5	0	0	0	0	0	0	1021	490	0	0	
6	0	0	0	0	0	0	1021	487	0	0	
7	0	0	0	0	0	0	1021	487	0	0	
8	0	0	0	0	0	0	1021	489	0	0	
9	0	0	0	0	0	0	1021	494	0	0	
10	0	0	0	0	0	0	1021	500	0	0	
11	0	0	0	0	0	0	1021	508	0	0	
12	0	0	0	0	0	0	1021	518	0	0	
13	0	0	0	0	0	0	1021	528	0	0	
14	0	0	0	0	0	0	1021	538	0	0	
15	0	0	0	0	0	0	1021	546	0	0	
0	0	0	0	0	0	0	1020	554	0	0	
1	0	0	0	0	0	0	1021	560	0	0	
2	0	0	0	0	0	0	1021	563	0	0	
3	0	0	0	0	0	0	1021	563	0	0	
4	0	0	0	0	0	0	1021	561	0	0	
5	0	0	0	0	0	0	1021	556	0	0	
6	0	0	0	0	0	0	1021	549	0	0	
7	0	0	0	0	0	0	1021	539	0	0	
8	0	0	0	0	0	0	1021	529	0	0	
9	0	0	0	0	0	0	1021	518	0	0	
10	0	0	0	0	0	0	1021	508	0	0	
11	0	0	0	0	0	0	1020	498	0	0	
12	0	0	0	0	0	0	1021	490	0	0	
13	0	0	0	0	0	0	1021	483	0	0	
14	0	0	0	0	0	0	1021	479	0	0	
15	0	0	0	0	0	0	1021	475	0	0	
0	0	0	0	0	0	0	1021	473	0	0	
1	0	0	0	0	0	0	1021	473	0	0	
2	0	0	0	0	0	0	1021	474	0	0	
3	0	0	0	0	0	0	1021	475	0	0	
4	0	0	0	0	0	0	1021	476	0	0	
5	0	0	0	0	0	0	1021	476	0	0	
6	0	0	0	0	0	0	1021	476	0	0	
7	0	0	0	0	0	0	1021	476	0	0	
8	0	0	0	0	0	0	1021	476	0	0	
9	0	0	0	0	0	0	1021	478	0	0	
10	0	0	0	0	0	0	1021	484	0	0	
11	0	0	0	0	0	0	1021	492	0	0	
12	0	0	0	0	0	0	1021	502	0	0	
13	0	0	0	0	0	0	1021	514	0	0	
14	0	0	0	0	0	0	1021	527	0	0	
15	0	0	0	0	0	0	1021	539	0	0	
0	0	0	0	0	0	0	1021	549	0	0	
1	0	0	0	0	0	0	1021	558	0	0	
2	0	0	0	0	0	0	1021	564	0	0	
3	0	0	0	0	0	0	1021	568	0	0	
4	0	0	0	0	0	0	1021	568	0	0	
5	0	0	0	0	0	0	1021	567	0	0	
6	0	0	0	0	0	0	1021	563	0	0	
7	0	0	0	0	0	0	1021	558	0	0	
8	0	0	0	0	0	0	1021	551	0	0	
9	0	0	0	0	0	0	1021	542	0	0	
10	0	0	0	0	0	0	1021	533	0	0	
11	0	0	0	0	0	0	1021	524	0	0	
12	0	0	0	0	0	0	1021	515	0	0	
13	0	0	0	0	0	0	1021	507	0	0	
14	0	0	0	0	0	0	1021	502	0	0	
15	0	0	0	0	0	0	1021	497	0	0	
0	0	0	0	0	0	0	1021	496	0	0	
1	0	0	0	0	0	0	1021	496	0	0	
2	0	0	0	0	0	0	1021	498	0	0	
3	0	0	0	0	0	0	1021	502	0	0	
4	0	0	0	0	0	0	1021	506	0	0	
5	0	0	0	0	0	0	1021	511	0	0	
6	0	0	0	0	0	0	1021	514	0	0	
7	0	0	0	0	0	0	1021	516	0	0	
8	0	0	0	0	0	0	1021	516	0	0	
9	0	0	0	0	0	0	1021	515	0	0	
10	0	0	0	0	0	0	1021	512	0	0	
11	0	0	0	0	0	0	1021	508	0	0	
12	0	0	0	0	0	0	1021	504	0	0	
13	0	0	0	0	0	0	1021	499	0	0	
14	0	0	0	0	0	0	1021	493	0	0	
15	0	0	0	0	0	0	1021	488	0	0	
0	0	0	0	0	0	0	1021	483	0	0	
1	0	0	0	0	0	0	1021	479	0	0	
2	0	0	0	0	0	0	1021	476	0	0	
3	0	0	0	0	0	0	1021	474	0	0	
4	0	0	0	0	0	0	1021	473	0	0	
5	0	0	0	0	0	0	1021	474	0	0	
6	0	0	0	0	0	0	1021	476	0	0	
7	0	0	0	0	0	0	1021	479	0	0	
8	0	0	0	0	0	0	1021	483	0	0	
9	0	0	0	0	0	0	1021	489	0	0	
10	0	0	0	0	0	0	1021	495	0	0	
11	0	0	0	0	0	0	1021	502	0	0	
12	0	0	0	0	0	0	1021	509	0	0	
13	0	0	0	0	0	0	1021	515	0	0	
14	0	0	0	0	0	0	1021	521	0	0	
15	0	0	0	0	0	0	1021	525	0	0	
0	0	0	0	0	0	0	1021	527	0	0	
1	0	0	0	0	0	0	1021	527	0	0	
2	0	0	0	0	0	0	1021	524	0	0	
3	0	0	0	0	0	0	1021	520	0	0	
4	0	0	0	0	0	0	1021	514	0	0	
5	0	0	0	0	0	0	1021	507	0	0	
6	0	0	0	0	0	0	1021	500	0	0	
7	0	0	0	0	0	0	1021	492	0	0	
8	0	0	0	0	0	0	1021	486	0	0	
9	0	0	0	0	0	0	1021	481	0	0	
10	0	0	0	0	0	0	1021	478	0	0	
11	0	0	0	0	0	0	1021	478	0	0	
12	0	0	0	0	0	0	1021	480	0	0	
13	0	0	0	0	0	0	1021	486	0	0	
14	0	0	0	0	0	0	1021	494	0	0	
15	0	0	0	0	0	0	1021	503	0	0	
0	0	0	0	0	0	0	1021	514	0	0	
1	0	0	0	0	0	0	1021	526	0	0	
2	0	0	0	0	0	0	1021	537	0	0	
3	0	0	0	0	0	0	1021	547	0	0	
4	0	0	0	0	0	0	1021	556	0	0	
5	0	0	0	0	0	0	1021	561	0	0	
6	0	0	0	0	0	0	1021	564	0	0	
7	0	0	0	0	0	0	1021	563	0	0	
8	0	0	0	0	0	0	1021	559	0	0	
9	0	0	0	0	0	0	1021	553	0	0	
10	0	0	0	0	0	0	1021	544	0	0	
11	0	0	0	0	0	0	1021	535	0	0	
12	0	0	0	0	0	0	1021	526	0	0	
13	0	0	0	0	0	0	1021	517	0	0	
14	0	0	0	0	0	0	1021	510	0	0	
15	0	0	0	0	0	0	1021	504	0	0	
0	0	0	0	0	0	0	1021	501	0	0	
1	0	0	0	0	0	0	1021	500	0	0	
2	0	0	0	0	0	0	1021	502	0	0	
3	0	0	0	0	0	0	1021	507	0	0	
4	0	0	0	0	0	0	1021	515	0	0	
5	0	0	0	0	0	0	1021	524	0	0	
6	0	0	0	0	0	0	1021	534	0	0	
7	0	0	0	0	0	0	1021	543	0	0	
8	0	0	0	0	0	0	1021	551	0	0	
9	0	0	0	0	0	0	1021	557	0	0	
10	0	0	0	0	0	0	1021	561	0	0	
11	0	0	0	0	0	0	1021	561	0	0	
12	0	0	0	0	0	0	1021	560	0	0	
13	0	0	0	0	0	0	1021	555	0	0	
14	0	0	0	0	0	0	1021	547	0	0	
15	0	0	0	0	0	0	1021	538	0	0	
0	0	0	0	0	0	0	1021	527	0	0	
1	0	0	0	0	0	0	1021	515	0	0	
2	0	0	0	0	0	0	1021	502	0	0	
3	0	0	0	0	0	0	1021	491	0	0	
4	0	0	0	0	0	0	1021	481	0	0	
5	0	0	0	0	0	0	1021	475	0	0	
6	0	0	0	0	0	0	1021	470	0	0	
7	0	0	0	0	0	0	1021	467	0	0	
8	0	0	0	0	0	0	1021	468	0	0	
9	0	0	0	0	0	0	1021	471	0	0	
10	0	0	0	0	0	0	1021	476	0	0	
11	0	0	0	0	0	0	1021	483	0	0	
12	0	0	0	0	0	0	1021	493	0	0	
13	0	0	0	0	0	0	1021	504	0	0	
14	0	0	0	0	0	0	1021	514	0	0	
15	0	0	0	0	0	0	1021	524	0	0	
0	0	0	0	0	0	0	1021	531	0	0	
1	0	0	0	0	0	0	1021	538	0	0	
2	0	0	0	0	0	0	1021	541	0	0	
3	0	0	0	0	0	0	1021	540	0	0	
4	0	0	0	0	0	0	1021	538	0	0	
5	0	0	0	0	0	0	1021	534	0	0	
6	0	0	0	0	0	0	1021	528	0	0	
7	0	0	0	0	0	0	1021	523	0	0	
8	0	0	0	0	0	0	1021	518	0	0	
9	0	0	0	0	0	0	1021	514	0	0	
10	0	0	0	0	0	0	1021	512	0	0	
11	0	0	0	0	0	0	1021	511	0	0	
12	0	0	0	0	0	0	1021	512	0	0	
13	0	0	0	0	0	0	1021	513	0	0	
14	0	0	0	0	0	0	1021	516	0	0	
15	0	0	0	0	0	0	1021	519	0	0	
0	0	0	0	0	0	0	1021	522	0	0	
1	0	0	0	0	0	0	1021	524	0	0	
2	0	0	0	0	0	0	1021	526	0	0	
3	0	0	0	0	0	0	1021	527	0	0	
4	0	0	0	0	0	0	1021	527	0	0	
5	0	0	0	0	0	0	1021	526	0	0	
6	0	0	0	0	0	0	1021	524	0	0	
7	0	0	0	0	0	0	1021	522	0	0	
8	0	0	0	0	0	0	1021	519	0	0	
9	0	0	0	0	0	0	1021	515	0	0	
10	0	0	0	0	0	0	1021	509	0	0	
11	0	0	0	0	0	0	1020	504	0	0	
12	0	0	0	0	0	0	1021	498	0	0	
13	0	0	0	0	0	0	1021	492	0	0	
14	0	0	0	0	0	0	1021	487	0	0	
15	0	0	0	0	0	0	1021	484	0	0	
0	0	0	0	0	0	0	1021	482	0	0	
1	0	0	0	0	0	0	1021	483	0	0	
2	0	0	0	0	0	0	1021	485	0	0	
3	0	0	0	0	0	0	1021	489	0	0	
4	0	0	0	0	0	0	1021	495	0	0	
5	0	0	0	0	0	0	1021	501	0	0	
6	0	0	0	0	0	0	1021	507	0	0	
7	0	0	0	0	0	0	1021	513	0	0	
8	0	0	0	0	0	0	1021	518	0	0	
9	0	0	0	0	0	0	1020	522	0	0	
10	0	0	0	0	0	0	1021	526	0	0	
11	0	0	0	0	0	0	1021	528	0	0	
12	0	0	0	0	0	0	1021	529	0	0	
13	0	0	0	0	0	0	1021	529	0	0	
14	0	0	0	0	0	0	1021	529	0	0	
15	0	0	0	0	0	0	1021	528	0	0	
0	0	0	0	0	0	0	1021	528	0	0	
1	0	0	0	0	0	0	1021	531	0	0	
2	0	0	0	0	0	0	1021	537	0	0	
3	0	0	0	0	0	0	1021	545	0	0	
4	0	0	0	0	0	0	1021	553	0	0	
5	0	0	0	0	0	0	1021	562	0	0	
6	0	0	0	0	0	0	1021	569	0	0	
7	0	0	0	0	0	0	1021	575	0	0	
8	0	0	0	0	0	0	1021	576	0	0	
9	0	0	0	0	0	0	1021	573	0	0	
10	0	0	0	0	0	0	1021	567	0	0	
11	0	0	0	0	0	0	1021	557	0	0	
12	0	0	0	0	0	0	1021	543	0	0	
13	0	0	0	0	0	0	1021	528	0	0	
14	0	0	0	0	0	0	1021	512	0	0	
15	0	0	0	0	0	0	1021	496	0	0	
0	0	0	0	0	0	0	1021	481	0	0	
1	0	0	0	0	0	0	1021	468	0	0	
2	0	0	0	0	0	0	1021	459	0	0	
3	0	0	0	0	0	0	1021	453	0	0	
4	0	0	0	0	0	0	1021	449	0	0	
5	0	0	0	0	0	0	1021	450	0	0	
6	0	0	0	0	0	0	1021	453	0	0	
7	0	0	0	0	0	0	1021	460	0	0	
8	0	0	0	0	0	0	1021	469	0	0	
9	0	0	0	0	0	0	1021	481	0	0	
10	0	0	0	0	0	0	1021	495	0	0	
11	0	0	0	0	0	0	1021	509	0	0	
12	0	0	0	0	0	0	1021	524	0	0	
13	0	0	0	0	0	0	1021	537	0	0	
14	0	0	0	0	0	0	1021	549	0	0	
15	0	0	0	0	0	0	1021	558	0	0	
0	0	0	0	0	0	0	1021	564	0	0	
1	0	0	0	0	0	0	1021	567	0	0	
2	0	0	0	0	0	0	1021	567	0	0	
3	0	0	0	0	0	0	1021	563	0	0	
4	0	0	0	0	0	0	1021	558	0	0	
5	0	0	0	0	0	0	1021	550	0	0	
6	0	0	0	0	0	0	1020	540	0	0	
7	0	0	0	0	0	0	1021	531	0	0	
8	0	0	0	0	0	0	1021	521	0	0	
9	0	0	0	0	0	0	1021	512	0	0	
10	0	0	0	0	0	0	1021	505	0	0	
11	0	0	0	0	0	0	1021	501	0	0	
12	0	0	0	0	0	0	1021	498	0	0	
13	0	0	0	0	0	0	1021	498	0	0	
14	0	0	0	0	0	0	1021	500	0	0	
15	0	0	0	0	0	0	1021	504	0	0	
0	0	0	0	0	0	0	1021	511	0	0	
1	0	0	0	0	0	0	1021	519	0	0	
2	0	0	0	0	0	0	1021	527	0	0	
3	0	0	0	0	0	0	1021	536	0	0	
4	0	0	0	0	0	0	1021	544	0	0	
5	0	0	0	0	0	0	1020	551	0	0	
6	0	0	0	0	0	0	1021	556	0	0	
7	0	0	0	0	0	0	1021	558	0	0	
8	0	0	0	0	0	0	1021	558	0	0	
9	0	0	0	0	0	0	1021	556	0	0	
10	0	0	0	0	0	0	1021	551	0	0	
11	0	0	0	0	0	0	1021	544	0	0	
12	0	0	0	0	0	0	1021	536	0	0	
13	0	0	0	0	0	0	1021	528	0	0	
14	0	0	0	0	0	0	1021	519	0	0	
15	0	0	0	0	0	0	1021	512	0	0	
0	0	0	0	0	0	0	1021	506	0	0	
1	0	0	0	0	0	0	1021	502	0	0	
2	0	0	0	0	0	0	1021	500	0	0	
3	0	0	0	0	0	0	1021	500	0	0	
4	0	0	0	0	0	0	1021	503	0	0	
5	0	0	0	0	0	0	1021	508	0	0	
6	0	0	0	0	0	0	1021	515	0	0	
7	0	0	0	0	0	0	1021	523	0	0	
8	0	0	0	0	0	0	1021	530	0	0	
9	0	0	0	0	0	0	1021	536	0	0	
10	0	0	0	0	0	0	1021	539	0	0	
11	0	0	0	0	0	0	1021	539	0	0	
12	0	0	0	0	0	0	1021	537	0	0	
13	0	0	0	0	0	0	1021	532	0	0	
14	0	0	0	0	0	0	1021	526	0	0	
15	0	0	0	0	0	0	1021	519	0	0	
0	0	0	0	0	0	0	1021	512	0	0	
1	0	0	0	0	0	0	1021	508	0	0	
2	0	0	0	0	0	0	1021	507	0	0	
3	0	0	0	0	0	0	1021	508	0	0	
4	0	0	0	0	0	0	1021	512	0	0	
5	0	0	0	0	0	0	1021	519	0	0	
6	0	0	0	0	0	0	1021	526	0	0	
7	0	0	0	0	0	0	1021	535	0	0	
8	0	0	0	0	0	0	1021	542	0	0	
9	0	0	0	0	0	0	1021	548	0	0	
10	0	0	0	0	0	0	1021	551	0	0	
11	0	0	0	0	0	0	1021	552	0	0	
12	0	0	0	0	0	0	1021	550	0	0	
13	0	0	0	0	0	0	1021	544	0	0	
14	0	0	0	0	0	0	1021	536	0	0	
15	0	0	0	0	0	0	1021	525	0	0	
0	0	0	0	0	0	0	1021	512	0	0	
1	0	0	0	0	0	0	1021	499	0	0	
2	0	0	0	0	0	0	1021	485	0	0	
3	0	0	0	0	0	0	1021	472	0	0	
4	0	0	0	0	0	0	1021	460	0	0	
5	0	0	0	0	0	0	1021	451	0	0	
6	0	0	0	0	0	0	1021	445	0	0	
7	0	0	0	0	0	0	1021	443	0	0	
8	0	0	0	0	0	0	1021	445	0	0	
9	0	0	0	0	0	0	1021	451	0	0	
10	0	0	0	0	0	0	1021	460	0	0	
11	0	0	0	0	0	0	1021	473	0	0	
12	0	0	0	0	0	0	1021	488	0	0	
13	0	0	0	0	0	0	1021	505	0	0	
14	0	0	0	0	0	0	1021	522	0	0	
15	0	0	0	0	0	0	1021	540	0	0	
0	0	0	0	0	0	0	1021	556	0	0	
1	0	0	0	0	0	0	1021	570	0	0	
2	0	0	0	0	0	0	1021	582	0	0	
3	0	0	0	0	0	0	1021	591	0	0	
4	0	0	0	0	0	0	1021	597	0	0	
5	0	0	0	0	0	0	1021	599	0	0	
6	0	0	0	0	0	0	1021	597	0	0	
7	0	0	0	0	0	0	1021	592	0	0	
8	0	0	0	0	0	0	1021	583	0	0	
9	0	0	0	0	0	0	1021	572	0	0	
10	0	0	0	0	0	0	1021	560	0	0	
11	0	0	0	0	0	0	1021	547	0	0	
12	0	0	0	0	0	0	1021	536	0	0	
13	0	0	0	0	0	0	1021	525	0	0	
14	0	0	0	0	0	0	1021	515	0	0	
15	0	0	0	0	0	0	1021	508	0	0	
0	0	0	0	0	0	0	1021	502	0	0	
1	0	0	0	0	0	0	1021	498	0	0	
2	0	0	0	0	0	0	1021	496	0	0	
3	0	0	0	0	0	0	1021	495	0	0	
4	0	0	0	0	0	0	1021	494	0	0	
5	0	0	0	0	0	0	1021	495	0	0	
6	0	0	0	0	0	0	1021	497	0	0	
7	0	0	0	0	0	0	1021	500	0	0	
8	0	0	0	0	0	0	1021	504	0	0	
9	0	0	0	0	0	0	1021	508	0	0	
10	0	0	0	0	0	0	1021	513	0	0	
11	0	0	0	0	0	0	1021	516	0	0	
12	0	0	0	0	0	0	1021	519	0	0	
13	0	0	0	0	0	0	1021	520	0	0	
14	0	0	0	0	0	0	1021	519	0	0	
15	0	0	0	0	0	0	1021	517	0	0	
0	0	0	0	0	0	0	1021	512	0	0	
1	0	0	0	0	0	0	1021	507	0	0	
2	0	0	0	0	0	0	1021	502	0	0	
3	0	0	0	0	0	0	1021	496	0	0	
4	0	0	0	0	0	0	1021	492	0	0	
5	0	0	0	0	0	0	1021	489	0	0	
6	0	0	0	0	0	0	1021	487	0	0	
7	0	0	0	0	0	0	1021	488	0	0	
8	0	0	0	0	0	0	1021	491	0	0	
9	0	0	0	0	0	0	1021	494	0	0	
10	0	0	0	0	0	0	1021	499	0	0	
11	0	0	0	0	0	0	1021	505	0	0	
12	0	0	0	0	0	0	1021	511	0	0	
13	0	0	0	0	0	0	1021	519	0	0	
14	0	0	0	0	0	0	1021	525	0	0	
15	0	0	0	0	0	0	1021	531	0	0	
0	0	0	0	0	0	0	1021	537	0	0	
1	0	0	0	0	0	0	1021	542	0	0	
2	0	0	0	0	0	0	1021	547	0	0	
3	0	0	0	0	0	0	1021	551	0	0	
4	0	0	0	0	0	0	1021	554	0	0	
5	0	0	0	0	0	0	1021	556	0	0	
6	0	0	0	0	0	0	1021	557	0	0	
7	0	0	0	0	0	0	1021	558	0	0	
8	0	0	0	0	0	0	1021	557	0	0	
9	0	0	0	0	0	0	1021	555	0	0	
10	0	0	0	0	0	0	1021	552	0	0	
11	0	0	0	0	0	0	1021	548	0	0	
12	0	0	0	0	0	0	1021	544	0	0	
13	0	0	0	0	0	0	1021	540	0	0	
14	0	0	0	0	0	0	1021	535	0	0	
15	0	0	0	0	0	0	1021	530	0	0	
0	0	0	0	0	0	0	1021	526	0	0	
1	0	0	0	0	0	0	1021	522	0	0	
2	0	0	0	0	0	0	1021	520	0	0	
3	0	0	0	0	0	0	1021	519	0	0	
4	0	0	0	0	0	0	1021	519	0	0	
5	0	0	0	0	0	0	1021	521	0	0	
6	0	0	0	0	0	0	1021	522	0	0	
7	0	0	0	0	0	0	1021	523	0	0	
8	0	0	0	0	0	0	1021	524	0	0	
9	0	0	0	0	0	0	1021	524	0	0	
10	0	0	0	0	0	0	1021	525	0	0	
11	0	0	0	0	0	0	1021	526	0	0	
12	0	0	0	0	0	0	1021	527	0	0	
13	0	0	0	0	0	0	1021	531	0	0	
14	0	0	0	0	0	0	1021	535	0	0	
15	0	0	0	0	0	0	1021	540	0	0	
0	0	0	0	0	0	0	1021	547	0	0	
1	0	0	0	0	0	0	1021	553	0	0	
2	0	0	0	0	0	0	1021	559	0	0	
3	0	0	0	0	0	0	1021	561	0	0	
4	0	0	0	0	0	0	1021	562	0	0	
5	0	0	0	0	0	0	1021	560	0	0	
6	0	0	0	0	0	0	1021	555	0	0	
7	0	0	0	0	0	0	1021	547	0	0	
8	0	0	0	0	0	0	1021	537	0	0	
9	0	0	0	0	0	0	1021	526	0	0	
10	0	0	0	0	0	0	1021	513	0	0	
11	0	0	0	0	0	0	1021	500	0	0	
12	0	0	0	0	0	0	1021	486	0	0	
13	0	0	0	0	0	0	1021	472	0	0	
14	0	0	0	0	0	0	1021	457	0	0	
15	0	0	0	0	0	0	1021	444	0	0	
0	0	0	0	0	0	0	1021	433	0	0	
1	0	0	0	0	0	0	1021	423	0	0	
2	0	0	0	0	0	0	1021	414	0	0	
3	0	0	0	0	0	0	1021	406	0	0	
4	0	0	0	0	0	0	1021	399	0	0	
5	0	0	0	0	0	0	1021	391	0	0	
6	0	0	0	0	0	0	1021	384	0	0	
7	0	0	0	0	0	0	1021	375	0	0	
8	0	0	0	0	0	0	1021	366	0	0	
9	0	0	0	0	0	0	1021	357	0	0	
10	0	0	0	0	0	0	1021	348	0	0	
11	0	0	0	0	0	0	1021	339	0	0	
12	0	0	0	0	0	0	1021	329	0	0	
13	0	0	0	0	0	0	1021	321	0	0	
14	0	0	0	0	0	0	1021	315	0	0	
15	0	0	0	0	0	0	1021	310	0	0	
0	0	0	0	0	0	0	1021	307	0	0	
1	0	0	0	0	0	0	1021	306	0	0	
2	0	0	0	0	0	0	1021	309	0	0	
3	0	0	0	0	0	0	1021	314	0	0	
4	0	0	0	0	0	0	1021	322	0	0	
5	0	0	0	0	0	0	1021	332	0	0	
6	0	0	0	0	0	0	1021	344	0	0	
7	0	0	0	0	0	0	1021	358	0	0	
8	0	0	0	0	0	0	1021	374	0	0	
9	0	0	0	0	0	0	1021	391	0	0	
10	0	0	0	0	0	0	1021	410	0	0	
11	0	0	0	0	0	0	1021	429	0	0	
12	0	0	0	0	0	0	1021	449	0	0	
13	0	0	0	0	0	0	1021	468	0	0	
14	0	0	0	0	0	0	1021	486	0	0	
15	0	0	0	0	0	0	1021	504	0	0	
0	0	0	0	0	0	0	1021	521	0	0	
1	0	0	0	0	0	0	1021	537	0	0	
2	0	0	0	0	0	0	1021	553	0	0	
3	0	0	0	0	0	0	1021	568	0	0	
4	0	0	0	0	0	0	1021	582	0	0	
5	0	0	0	0	0	0	1021	593	0	0	
6	0	0	0	0	0	0	1021	604	0	0	
7	0	0	0	0	0	0	1021	611	0	0	
8	0	0	0	0	0	0	1021	613	0	0	
9	0	0	0	0	0	0	1021	611	0	0	
10	0	0	0	0	0	0	1021	604	0	0	
11	0	0	0	0	0	0	1021	591	0	0	
12	0	0	0	0	0	0	1021	574	0	0	
13	0	0	0	0	0	0	1021	553	0	0	
14	0	0	0	0	0	0	1021	529	0	0	
15	0	0	0	0	0	0	1021	505	0	0	
0	0	0	0	0	0	0	1021	483	0	0	
1	0	0	0	0	0	0	1021	464	0	0	
2	0	0	0	0	0	0	1021	450	0	0	
3	0	0	0	0	0	0	1021	441	0	0	
4	0	0	0	0	0	0	1021	438	0	0	
5	0	0	0	0	0	0	1021	441	0	0	
6	0	0	0	0	0	0	1021	449	0	0	
7	0	0	0	0	0	0	1021	461	0	0	
8	0	0	0	0	0	0	1021	476	0	0	
9	0	0	0	0	0	0	1021	492	0	0	
10	0	0	0	0	0	0	1021	510	0	0	
11	0	0	0	0	0	0	1021	527	0	0	
12	0	0	0	0	0	0	1021	543	0	0	
13	0	0	0	0	0	0	1021	558	0	0	
14	0	0	0	0	0	0	1021	569	0	0	
15	0	0	0	0	0	0	1021	578	0	0	
0	0	0	0	0	0	0	1021	584	0	0	
1	0	0	0	0	0	0	1021	587	0	0	
2	0	0	0	0	0	0	1021	586	0	0	
3	0	0	0	0	0	0	1021	583	0	0	
4	0	0	0	0	0	0	1021	576	0	0	
5	0	0	0	0	0	0	1021	568	0	0	
6	0	0	0	0	0	0	1021	559	0	0	
7	0	0	0	0	0	0	1021	549	0	0	
8	0	0	0	0	0	0	1021	539	0	0	
9	0	0	0	0	0	0	1021	528	0	0	
10	0	0	0	0	0	0	1021	519	0	0	
11	0	0	0	0	0	0	1021	510	0	0	
12	0	0	0	0	0	0	1021	501	0	0	
13	0	0	0	0	0	0	1021	493	0	0	
14	0	0	0	0	0	0	1021	486	0	0	
15	0	0	0	0	0	0	1021	480	0	0	
0	0	0	0	0	0	0	1021	476	0	0	
1	0	0	0	0	0	0	1021	474	0	0	
2	0	0	0	0	0	0	1021	473	0	0	
3	0	0	0	0	0	0	1021	474	0	0	
4	0	0	0	0	0	0	1021	477	0	0	
5	0	0	0	0	0	0	1021	481	0	0	
6	0	0	0	0	0	0	1021	486	0	0	
7	0	0	0	0	0	0	1021	490	0	0	
8	0	0	0	0	0	0	1021	495	0	0	
9	0	0	0	0	0	0	1021	499	0	0	
10	0	0	0	0	0	0	1021	501	0	0	
11	0	0	0	0	0	0	1021	503	0	0	
12	0	0	0	0	0	0	1021	504	0	0	
13	0	0	0	0	0	0	1021	506	0	0	
14	0	0	0	0	0	0	1021	508	0	0	
15	0	0	0	0	0	0	1021	511	0	0	
0	0	0	0	0	0	0	1021	515	0	0	
1	0	0	0	0	0	0	1021	519	0	0	
2	0	0	0	0	0	0	1021	524	0	0	
3	0	0	0	0	0	0	1021	530	0	0	
4	0	0	0	0	0	0	1021	534	0	0	
5	0	0	0	0	0	0	1021	537	0	0	
6	0	0	0	0	0	0	1021	540	0	0	
7	0	0	0	0	0	0	1021	541	0	0	
8	0	0	0	0	0	0	1021	541	0	0	
9	0	0	0	0	0	0	1020	540	0	0	
10	0	0	0	0	0	0	1021	540	0	0	
11	0	0	0	0	0	0	1021	536	0	0	
12	0	0	0	0	0	0	1021	534	0	0	
13	0	0	0	0	0	0	1021	530	0	0	
14	0	0	0	0	0	0	1021	526	0	0	
15	0	0	0	0	0	0	1021	521	0	0	
0	0	0	0	0	0	0	1021	517	0	0	
1	0	0	0	0	0	0	1021	512	0	0	
2	0	0	0	0	0	0	1021	508	0	0	
3	0	0	0	0	0	0	1021	504	0	0	
4	0	0	0	0	0	0	1021	500	0	0	
5	0	0	0	0	0	0	1021	496	0	0	
6	0	0	0	0	0	0	1021	493	0	0	
7	0	0	0	0	0	0	1021	490	0	0	
8	0	0	0	0	0	0	1021	488	0	0	
9	0	0	0	0	0	0	1021	486	0	0	
10	0	0	0	0	0	0	1021	483	0	0	
11	0	0	0	0	0	0	1021	481	0	0	
12	0	0	0	0	0	0	1021	479	0	0	
13	0	0	0	0	0	0	1021	477	0	0	
14	0	0	0	0	0	0	1021	475	0	0	
15	0	0	0	0	0	0	1021	473	0	0	
0	0	0	0	0	0	0	1021	471	0	0	
1	0	0	0	0	0	0	1021	470	0	0	
2	0	0	0	0	0	0	1021	468	0	0	
3	0	0	0	0	0	0	1021	467	0	0	
4	0	0	0	0	0	0	1021	465	0	0	
5	0	0	0	0	0	0	1021	463	0	0	
6	0	0	0	0	0	0	1021	462	0	0	
7	0	0	0	0	0	0	1021	462	0	0	
8	0	0	0	0	0	0	1021	463	0	0	
9	0	0	0	0	0	0	1021	465	0	0	
10	0	0	0	0	0	0	1021	469	0	0	
11	0	0	0	0	0	0	1021	475	0	0	
12	0	0	0	0	0	0	1021	481	0	0	
13	0	0	0	0	0	0	1021	490	0	0	
14	0	0	0	0	0	0	1021	499	0	0	
15	0	0	0	0	0	0	1021	508	0	0	
0	0	0	0	0	0	0	1021	518	0	0	
1	0	0	0	0	0	0	1021	527	0	0	
2	0	0	0	0	0	0	1021	536	0	0	
3	0	0	0	0	0	0	1021	543	0	0	
4	0	0	0	0	0	0	1021	550	0	0	
5	0	0	0	0	0	0	1021	554	0	0	
6	0	0	0	0	0	0	1021	558	0	0	
7	0	0	0	0	0	0	1021	560	0	0	
8	0	0	0	0	0	0	1021	560	0	0	
9	0	0	0	0	0	0	1021	559	0	0	
10	0	0	0	0	0	0	1021	556	0	0	
11	0	0	0	0	0	0	1021	551	0	0	
12	0	0	0	0	0	0	1021	544	0	0	
13	0	0	0	0	0	0	1021	536	0	0	
14	0	0	0	0	0	0	1021	525	0	0	
15	0	0	0	0	0	0	1021	513	0	0	
0	0	0	0	0	0	0	1021	501	0	0	
1	0	0	0	0	0	0	1021	490	0	0	
2	0	0	0	0	0	0	1021	480	0	0	
3	0	0	0	0	0	0	1021	472	0	0	
4	0	0	0	0	0	0	1021	465	0	0	
5	0	0	0	0	0	0	1021	459	0	0	
6	0	0	0	0	0	0	1021	454	0	0	
7	0	0	0	0	0	0	1021	451	0	0	
8	0	0	0	0	0	0	1021	449	0	0	
9	0	0	0	0	0	0	1021	448	0	0	
10	0	0	0	0	0	0	1021	449	0	0	
11	0	0	0	0	0	0	1021	452	0	0	
12	0	0	0	0	0	0	1021	456	0	0	
13	0	0	0	0	0	0	1021	461	0	0	
14	0	0	0	0	0	0	1021	467	0	0	
15	0	0	0	0	0	0	1021	473	0	0	
0	0	0	0	0	0	0	1021	479	0	0	
1	0	0	0	0	0	0	1021	485	0	0	
2	0	0	0	0	0	0	1021	491	0	0	
3	0	0	0	0	0	0	1021	495	0	0	
4	0	0	0	0	0	0	1021	497	0	0	
5	0	0	0	0	0	0	1021	499	0	0	
6	0	0	0	0	0	0	1021	498	0	0	
7	0	0	0	0	0	0	1021	496	0	0	
8	0	0	0	0	0	0	1021	490	0	0	
9	0	0	0	0	0	0	1021	482	0	0	
10	0	0	0	0	0	0	1021	472	0	0	
11	0	0	0	0	0	0	1021	461	0	0	
12	0	0	0	0	0	0	1021	449	0	0	
13	0	0	0	0	0	0	1021	437	0	0	
14	0	0	0	0	0	0	1021	427	0	0	
15	0	0	0	0	0	0	1021	419	0	0	
0	0	0	0	0	0	0	1021	416	0	0	
1	0	0	0	0	0	0	1021	417	0	0	
2	0	0	0	0	0	0	1021	423	0	0	
3	0	0	0	0	0	0	1021	434	0	0	
4	0	0	0	0	0	0	1021	448	0	0	
5	0	0	0	0	0	0	1021	464	0	0	
6	0	0	0	0	0	0	1021	482	0	0	
7	0	0	0	0	0	0	1021	500	0	0	
8	0	0	0	0	0	0	1021	516	0	0	
9	0	0	0	0	0	0	1021	530	0	0	
10	0	0	0	0	0	0	1021	539	0	0	
11	0	0	0	0	0	0	1021	544	0	0	
12	0	0	0	0	0	0	1021	544	0	0	
13	0	0	0	0	0	0	1021	540	0	0	
14	0	0	0	0	0	0	1021	532	0	0	
15	0	0	0	0	0	0	1021	520	0	0	
0	0	0	0	0	0	0	1021	506	0	0	
1	0	0	0	0	0	0	1021	492	0	0	
2	0	0	0	0	0	0	1021	477	0	0	
3	0	0	0	0	0	0	1021	464	0	0	
4	0	0	0	0	0	0	1021	451	0	0	
5	0	0	0	0	0	0	1021	442	0	0	
6	0	0	0	0	0	0	1021	436	0	0	
7	0	0	0	0	0	0	1021	434	0	0	
8	0	0	0	0	0	0	1021	435	0	0	
9	0	0	0	0	0	0	1021	440	0	0	
10	0	0	0	0	0	0	1021	448	0	0	
11	0	0	0	0	0	0	1021	457	0	0	
12	0	0	0	0	0	0	1021	467	0	0	
13	0	0	0	0	0	0	1021	476	0	0	
14	0	0	0	0	0	0	1021	484	0	0	
15	0	0	0	0	0	0	1021	489	0	0	
0	0	0	0	0	0	0	1021	493	0	0	
1	0	0	0	0	0	0	1021	495	0	0	
2	0	0	0	0	0	0	1021	496	0	0	
3	0	0	0	0	0	0	1021	496	0	0	
4	0	0	0	0	0	0	1021	497	0	0	
5	0	0	0	0	0	0	1021	499	0	0	
6	0	0	0	0	0	0	1021	501	0	0	
7	0	0	0	0	0	0	1021	504	0	0	
8	0	0	0	0	0	0	1021	507	0	0	
9	0	0	0	0	0	0	1021	511	0	0	
10	0	0	0	0	0	0	1021	515	0	0	
11	0	0	0	0	0	0	1021	517	0	0	
12	0	0	0	0	0	0	1021	518	0	0	
13	0	0	0	0	0	0	1021	516	0	0	
14	0	0	0	0	0	0	1021	512	0	0	
15	0	0	0	0	0	0	1021	505	0	0	
0	0	0	0	0	0	0	1021	497	0	0	
1	0	0	0	0	0	0	1021	487	0	0	
2	0	0	0	0	0	0	1021	476	0	0	
3	0	0	0	0	0	0	1021	465	0	0	
4	0	0	0	0	0	0	1021	455	0	0	
5	0	0	0	0	0	0	1021	446	0	0	
6	0	0	0	0	0	0	1021	440	0	0	
7	0	0	0	0	0	0	1021	435	0	0	
8	0	0	0	0	0	0	1021	434	0	0	
9	0	0	0	0	0	0	1021	436	0	0	
10	0	0	0	0	0	0	1021	441	0	0	
11	0	0	0	0	0	0	1021	451	0	0	
12	0	0	0	0	0	0	1021	461	0	0	
13	0	0	0	0	0	0	1021	474	0	0	
14	0	0	0	0	0	0	1021	487	0	0	
15	0	0	0	0	0	0	1021	501	0	0	
0	0	0	0	0	0	0	1021	512	0	0	
1	0	0	0	0	0	0	1021	519	0	0	
2	0	0	0	0	0	0	1021	520	0	0	
3	0	0	0	0	0	0	1021	517	0	0	
4	0	0	0	0	0	0	1021	508	0	0	
5	0	0	0	0	0	0	1021	495	0	0	
6	0	0	0	0	0	0	1021	479	0	0	
7	0	0	0	0	0	0	1021	462	0	0	
8	0	0	0	0	0	0	1021	445	0	0	
9	0	0	0	0	0	0	1020	430	0	0	
10	0	0	0	0	0	0	1021	421	0	0	
11	0	0	0	0	0	0	1021	416	0	0	
12	0	0	0	0	0	0	1021	417	0	0	
13	0	0	0	0	0	0	1021	424	0	0	
14	0	0	0	0	0	0	1021	437	0	0	
15	0	0	0	0	0	0	1021	452	0	0	
0	0	0	0	0	0	0	1021	470	0	0	
1	0	0	0	0	0	0	1021	487	0	0	
2	0	0	0	0	0	0	1021	503	0	0	
3	0	0	0	0	0	0	1021	517	0	0	
4	0	0	0	0	0	0	1021	528	0	0	
5	0	0	0	0	0	0	1021	536	0	0	
6	0	0	0	0	0	0	1021	540	0	0	
7	0	0	0	0	0	0	1021	541	0	0	
8	0	0	0	0	0	0	1021	539	0	0	
9	0	0	0	0	0	0	1021	535	0	0	
10	0	0	0	0	0	0	1021	527	0	0	
11	0	0	0	0	0	0	1021	517	0	0	
12	0	0	0	0	0	0	1021	505	0	0	
13	0	0	0	0	0	0	1021	492	0	0	
14	0	0	0	0	0	0	1021	479	0	0	
15	0	0	0	0	0	0	1021	466	0	0	
0	0	0	0	0	0	0	1021	454	0	0	
1	0	0	0	0	0	0	1021	443	0	0	
2	0	0	0	0	0	0	1021	434	0	0	
3	0	0	0	0	0	0	1021	428	0	0	
4	0	0	0	0	0	0	1021	424	0	0	
5	0	0	0	0	0	0	1021	423	0	0	
6	0	0	0	0	0	0	1021	425	0	0	
7	0	0	0	0	0	0	1021	429	0	0	
8	0	0	0	0	0	0	1021	435	0	0	
9	0	0	0	0	0	0	1021	441	0	0	
10	0	0	0	0	0	0	1021	450	0	0	
11	0	0	0	0	0	0	1021	457	0	0	
12	0	0	0	0	0	0	1021	465	0	0	
13	0	0	0	0	0	0	1021	471	0	0	
14	0	0	0	0	0	0	1021	476	0	0	
15	0	0	0	0	0	0	1021	479	0	0	
0	0	0	0	0	0	0	1021	482	0	0	
1	0	0	0	0	0	0	1021	482	0	0	
2	0	0	0	0	0	0	1021	482	0	0	
3	0	0	0	0	0	0	1021	481	0	0	
4	0	0	0	0	0	0	1021	480	0	0	
5	0	0	0	0	0	0	1021	479	0	0	
6	0	0	0	0	0	0	1021	479	0	0	
7	0	0	0	0	0	0	1021	480	0	0	
8	0	0	0	0	0	0	1021	483	0	0	
9	0	0	0	0	0	0	1021	488	0	0	
10	0	0	0	0	0	0	1021	495	0	0	
11	0	0	0	0	0	0	1021	502	0	0	
12	0	0	0	0	0	0	1021	510	0	0	
13	0	0	0	0	0	0	1021	517	0	0	
14	0	0	0	0	0	0	1021	524	0	0	
15	0	0	0	0	0	0	1021	530	0	0	
0	0	0	0	0	0	0	1021	535	0	0	
1	0	0	0	0	0	0	1021	538	0	0	
2	0	0	0	0	0	0	1021	540	0	0	
3	0	0	0	0	0	0	1021	541	0	0	
4	0	0	0	0	0	0	1021	540	0	0	
5	0	0	0	0	0	0	1021	538	0	0	
6	0	0	0	0	0	0	1021	534	0	0	
7	0	0	0	0	0	0	1021	530	0	0	
8	0	0	0	0	0	0	1021	525	0	0	
9	0	0	0	0	0	0	1021	519	0	0	
10	0	0	0	0	0	0	1021	515	0	0	
11	0	0	0	0	0	0	1021	511	0	0	
12	0	0	0	0	0	0	1021	509	0	0	
13	0	0	0	0	0	0	1021	508	0	0	
14	0	0	0	0	0	0	1021	507	0	0	
15	0	0	0	0	0	0	1021	505	0	0	
0	0	0	0	0	0	0	1021	503	0	0	
1	0	0	0	0	0	0	1021	499	0	0	
2	0	0	0	0	0	0	1021	493	0	0	
3	0	0	0	0	0	0	1021	486	0	0	
4	0	0	0	0	0	0	1021	478	0	0	
5	0	0	0	0	0	0	1021	470	0	0	
6	0	0	0	0	0	0	1021	461	0	0	
7	0	0	0	0	0	0	1021	454	0	0	
8	0	0	0	0	0	0	1021	449	0	0	
9	0	0	0	0	0	0	1021	447	0	0	
10	0	0	0	0	0	0	1021	447	0	0	
11	0	0	0	0	0	0	1021	451	0	0	
12	0	0	0	0	0	0	1021	457	0	0	
13	0	0	0	0	0	0	1021	465	0	0	
14	0	0	0	0	0	0	1021	474	0	0	
15	0	0	0	0	0	0	1021	484	0	0	
0	0	0	0	0	0	0	1021	494	0	0	
1	0	0	0	0	0	0	1021	503	0	0	
2	0	0	0	0	0	0	1021	511	0	0	
3	0	0	0	0	0	0	1021	518	0	0	
4	0	0	0	0	0	0	1021	523	0	0	
5	0	0	0	0	0	0	1021	524	0	0	
6	0	0	0	0	0	0	1021	524	0	0	
7	0	0	0	0	0	0	1021	521	0	0	
8	0	0	0	0	0	0	1021	515	0	0	
9	0	0	0	0	0	0	1021	507	0	0	
10	0	0	0	0	0	0	1021	495	0	0	
11	0	0	0	0	0	0	1021	482	0	0	
12	0	0	0	0	0	0	1021	468	0	0	
13	0	0	0	0	0	0	1021	452	0	0	
14	0	0	0	0	0	0	1021	436	0	0	
15	0	0	0	0	0	0	1021	422	0	0	
0	0	0	0	0	0	0	1021	408	0	0	
1	0	0	0	0	0	0	1021	398	0	0	
2	0	0	0	0	0	0	1021	392	0	0	
3	0	0	0	0	0	0	1021	390	0	0	
4	0	0	0	0	0	0	1021	392	0	0	
5	0	0	0	0	0	0	1021	398	0	0	
6	0	0	0	0	0	0	1021	408	0	0	
7	0	0	0	0	0	0	1021	420	0	0	
8	0	0	0	0	0	0	1021	433	0	0	
9	0	0	0	0	0	0	1021	447	0	0	
10	0	0	0	0	0	0	1021	461	0	0	
11	0	0	0	0	0	0	1021	474	0	0	
12	0	0	0	0	0	0	1021	486	0	0	
13	0	0	0	0	0	0	1021	495	0	0	
14	0	0	0	0	0	0	1021	503	0	0	
15	0	0	0	0	0	0	1021	508	0	0	
0	0	0	0	0	0	0	1021	510	0	0	
1	0	0	0	0	0	0	1021	511	0	0	
2	0	0	0	0	0	0	1021	511	0	0	
3	0	0	0	0	0	0	1021	509	0	0	
4	0	0	0	0	0	0	1021	507	0	0	
5	0	0	0	0	0	0	1021	505	0	0	
6	0	0	0	0	0	0	1020	503	0	0	
7	0	0	0	0	0	0	1021	501	0	0	
8	0	0	0	0	0	0	1021	498	0	0	
9	0	0	0	0	0	0	1021	496	0	0	
10	0	0	0	0	0	0	1021	495	0	0	
11	0	0	0	0	0	0	1021	494	0	0	
12	0	0	0	0	0	0	1021	495	0	0	
13	0	0	0	0	0	0	1021	496	0	0	
14	0	0	0	0	0	0	1021	500	0	0	
15	0	0	0	0	0	0	1021	504	0	0	
0	0	0	0	0	0	0	1021	509	0	0	
1	0	0	0	0	0	0	1021	515	0	0	
2	0	0	0	0	0	0	1021	520	0	0	
3	0	0	0	0	0	0	1021	525	0	0	
4	0	0	0	0	0	0	1021	529	0	0	
5	0	0	0	0	0	0	1021	530	0	0	
6	0	0	0	0	0	0	1021	529	0	0	
7	0	0	0	0	0	0	1021	526	0	0	
8	0	0	0	0	0	0	1021	520	0	0	
9	0	0	0	0	0	0	1021	511	0	0	
10	0	0	0	0	0	0	1021	501	0	0	
11	0	0	0	0	0	0	1021	489	0	0	
12	0	0	0	0	0	0	1021	477	0	0	
13	0	0	0	0	0	0	1021	465	0	0	
14	0	0	0	0	0	0	1021	455	0	0	
15	0	0	0	0	0	0	1021	446	0	0	
0	0	0	0	0	0	0	1021	438	0	0	
1	0	0	0	0	0	0	1021	432	0	0	
2	0	0	0	0	0	0	1021	429	0	0	
3	0	0	0	0	0	0	1021	427	0	0	
4	0	0	0	0	0	0	1021	427	0	0	
5	0	0	0	0	0	0	1021	428	0	0	
6	0	0	0	0	0	0	1021	431	0	0	
7	0	0	0	0	0	0	1021	435	0	0	
8	0	0	0	0	0	0	1021	439	0	0	
9	0	0	0	0	0	0	1021	443	0	0	
10	0	0	0	0	0	0	1021	448	0	0	
11	0	0	0	0	0	0	1021	454	0	0	
12	0	0	0	0	0	0	1021	460	0	0	
13	0	0	0	0	0	0	1021	468	0	0	
14	0	0	0	0	0	0	1021	477	0	0	
15	0	0	0	0	0	0	1021	486	0	0	
0	0	0	0	0	0	0	1021	494	0	0	
1	0	0	0	0	0	0	1021	501	0	0	
2	0	0	0	0	0	0	1021	506	0	0	
3	0	0	0	0	0	0	1021	509	0	0	
4	0	0	0	0	0	0	1021	509	0	0	
5	0	0	0	0	0	0	1021	507	0	0	
6	0	0	0	0	0	0	1021	502	0	0	
7	0	0	0	0	0	0	1021	496	0	0	
8	0	0	0	0	0	0	1021	487	0	0	
9	0	0	0	0	0	0	1021	478	0	0	
10	0	0	0	0	0	0	1021	469	0	0	
11	0	0	0	0	0	0	1021	460	0	0	
12	0	0	0	0	0	0	1021	452	0	0	
13	0	0	0	0	0	0	1021	445	0	0	
14	0	0	0	0	0	0	1021	440	0	0	
15	0	0	0	0	0	0	1021	436	0	0	
0	0	0	0	0	0	0	1021	435	0	0	
1	0	0	0	0	0	0	1021	435	0	0	
2	0	0	0	0	0	0	1021	437	0	0	
3	0	0	0	0	0	0	1021	440	0	0	
4	0	0	0	0	0	0	1021	443	0	0	
5	0	0	0	0	0	0	1021	448	0	0	
6	0	0	0	0	0	0	1021	454	0	0	
7	0	0	0	0	0	0	1021	460	0	0	
8	0	0	0	0	0	0	1021	467	0	0	
9	0	0	0	0	0	0	1021	472	0	0	
10	0	0	0	0	0	0	1021	479	0	0	
11	0	0	0	0	0	0	1021	484	0	0	
12	0	0	0	0	0	0	1021	488	0	0	
13	0	0	0	0	0	0	1021	492	0	0	
14	0	0	0	0	0	0	1021	495	0	0	
15	0	0	0	0	0	0	1021	498	0	0	
0	0	0	0	0	0	0	1021	500	0	0	
1	0	0	0	0	0	0	1021	501	0	0	
2	0	0	0	0	0	0	1021	501	0	0	
3	0	0	0	0	0	0	1021	498	0	0	
4	0	0	0	0	0	0	1021	494	0	0	
5	0	0	0	0	0	0	1021	489	0	0	
6	0	0	0	0	0	0	1021	483	0	0	
7	0	0	0	0	0	0	1021	477	0	0	
8	0	0	0	0	0	0	1021	471	0	0	
9	0	0	0	0	0	0	1021	465	0	0	
10	0	0	0	0	0	0	1021	461	0	0	
11	0	0	0	0	0	0	1021	458	0	0	
12	0	0	0	0	0	0	1021	458	0	0	
13	0	0	0	0	0	0	1021	460	0	0	
14	0	0	0	0	0	0	1021	464	0	0	
15	0	0	0	0	0	0	1021	470	0	0	
0	0	0	0	0	0	0	1021	477	0	0	
1	0	0	0	0	0	0	1021	485	0	0	
2	0	0	0	0	0	0	1021	493	0	0	
3	0	0	0	0	0	0	1021	501	0	0	
4	0	0	0	0	0	0	1021	507	0	0	
5	0	0	0	0	0	0	1021	510	0	0	
6	0	0	0	0	0	0	1021	510	0	0	
7	0	0	0	0	0	0	1021	507	0	0	
8	0	0	0	0	0	0	1021	500	0	0	
9	0	0	0	0	0	0	1021	492	0	0	
10	0	0	0	0	0	0	1021	481	0	0	
11	0	0	0	0	0	0	1021	470	0	0	
12	0	0	0	0	0	0	1021	460	0	0	
13	0	0	0	0	0	0	1021	450	0	0	
14	0	0	0	0	0	0	1021	443	0	0	
15	0	0	0	0	0	0	1021	438	0	0	
0	0	0	0	0	0	0	1021	435	0	0	
1	0	0	0	0	0	0	1021	433	0	0	
2	0	0	0	0	0	0	1021	434	0	0	
3	0	0	0	0	0	0	1021	435	0	0	
4	0	0	0	0	0	0	1021	436	0	0	
5	0	0	0	0	0	0	1021	437	0	0	
6	0	0	0	0	0	0	1021	438	0	0	
7	0	0	0	0	0	0	1021	438	0	0	
8	0	0	0	0	0	0	1021	436	0	0	
9	0	0	0	0	0	0	1020	435	0	0	
10	0	0	0	0	0	0	1021	434	0	0	
11	0	0	0	0	0	0	1021	434	0	0	
12	0	0	0	0	0	0	1021	435	0	0	
13	0	0	0	0	0	0	1021	440	0	0	
14	0	0	0	0	0	0	1021	447	0	0	
15	0	0	0	0	0	0	1021	456	0	0	
0	0	0	0	0	0	0	1021	469	0	0	
1	0	0	0	0	0	0	1021	483	0	0	
2	0	0	0	0	0	0	1021	497	0	0	
3	0	0	0	0	0	0	1021	513	0	0	
4	0	0	0	0	0	0	1021	527	0	0	
5	0	0	0	0	0	0	1021	539	0	0	
6	0	0	0	0	0	0	1021	550	0	0	
7	0	0	0	0	0	0	1021	557	0	0	
8	0	0	0	0	0	0	1021	561	0	0	
9	0	0	0	0	0	0	1021	563	0	0	
10	0	0	0	0	0	0	1021	561	0	0	
11	0	0	0	0	0	0	1021	558	0	0	
12	0	0	0	0	0	0	1021	552	0	0	
13	0	0	0	0	0	0	1021	544	0	0	
14	0	0	0	0	0	0	1021	535	0	0	
15	0	0	0	0	0	0	1021	523	0	0	
0	0	0	0	0	0	0	1021	511	0	0	
1	0	0	0	0	0	0	1021	499	0	0	
2	0	0	0	0	0	0	1021	487	0	0	
3	0	0	0	0	0	0	1021	475	0	0	
4	0	0	0	0	0	0	1021	463	0	0	
5	0	0	0	0	0	0	1021	453	0	0	
6	0	0	0	0	0	0	1021	444	0	0	
7	0	0	0	0	0	0	1021	438	0	0	
8	0	0	0	0	0	0	1021	435	0	0	
9	0	0	0	0	0	0	1021	434	0	0	
10	0	0	0	0	0	0	1021	436	0	0	
11	0	0	0	0	0	0	1021	440	0	0	
12	0	0	0	0	0	0	1021	446	0	0	
13	0	0	0	0	0	0	1021	454	0	0	
14	0	0	0	0	0	0	1021	461	0	0	
15	0	0	0	0	0	0	1021	469	0	0	
0	0	0	0	0	0	0	1021	476	0	0	
1	0	0	0	0	0	0	1021	481	0	0	
2	0	0	0	0	0	0	1021	485	0	0	
3	0	0	0	0	0	0	1021	486	0	0	
4	0	0	0	0	0	0	1021	486	0	0	
5	0	0	0	0	0	0	1021	484	0	0	
6	0	0	0	0	0	0	1021	481	0	0	
7	0	0	0	0	0	0	1021	478	0	0	
8	0	0	0	0	0	0	1021	475	0	0	
9	0	0	0	0	0	0	1021	473	0	0	
10	0	0	0	0	0	0	1021	472	0	0	
11	0	0	0	0	0	0	1021	471	0	0	
12	0	0	0	0	0	0	1021	472	0	0	
13	0	0	0	0	0	0	1021	473	0	0	
14	0	0	0	0	0	0	1021	475	0	0	
15	0	0	0	0	0	0	1021	477	0	0	
0	0	0	0	0	0	0	1021	479	0	0	
1	0	0	0	0	0	0	1021	482	0	0	
2	0	0	0	0	0	0	1021	485	0	0	
3	0	0	0	0	0	0	1021	488	0	0	
4	0	0	0	0	0	0	1021	492	0	0	
5	0	0	0	0	0	0	1021	496	0	0	
6	0	0	0	0	0	0	1021	500	0	0	
7	0	0	0	0	0	0	1021	504	0	0	
8	0	0	0	0	0	0	1021	507	0	0	
9	0	0	0	0	0	0	1021	510	0	0	
10	0	0	0	0	0	0	1021	511	0	0	
11	0	0	0	0	0	0	1020	510	0	0	
12	0	0	0	0	0	0	1021	508	0	0	
13	0	0	0	0	0	0	1021	505	0	0	
14	0	0	0	0	0	0	1021	502	0	0	
15	0	0	0	0	0	0	1021	499	0	0	
0	0	0	0	0	0	0	1021	496	0	0	
1	0	0	0	0	0	0	1021	492	0	0	
2	0	0	0	0	0	0	1021	489	0	0	
3	0	0	0	0	0	0	1021	487	0	0	
4	0	0	0	0	0	0	1021	484	0	0	
5	0	0	0	0	0	0	1021	481	0	0	
6	0	0	0	0	0	0	1021	480	0	0	
7	0	0	0	0	0	0	1021	479	0	0	
8	0	0	0	0	0	0	1021	479	0	0	
9	0	0	0	0	0	0	1021	480	0	0	
10	0	0	0	0	0	0	1021	480	0	0	
11	0	0	0	0	0	0	1021	480	0	0	
12	0	0	0	0	0	0	1021	478	0	0	
13	0	0	0	0	0	0	1021	475	0	0	
14	0	0	0	0	0	0	1021	472	0	0	
15	0	0	0	0	0	0	1021	467	0	0	
0	0	0	0	0	0	0	1021	463	0	0	
1	0	0	0	0	0	0	1021	460	0	0	
2	0	0	0	0	0	0	1021	458	0	0	
3	0	0	0	0	0	0	1021	458	0	0	
4	0	0	0	0	0	0	1021	459	0	0	
5	0	0	0	0	0	0	1021	462	0	0	
6	0	0	0	0	0	0	1021	466	0	0	
7	0	0	0	0	0	0	1021	470	0	0	
8	0	0	0	0	0	0	1021	474	0	0	
9	0	0	0	0	0	0	1021	477	0	0	
10	0	0	0	0	0	0	1021	479	0	0	
11	0	0	0	0	0	0	1021	480	0	0	
12	0	0	0	0	0	0	1021	479	0	0	
13	0	0	0	0	0	0	1021	478	0	0	
14	0	0	0	0	0	0	1021	476	0	0	
15	0	0	0	0	0	0	1021	474	0	0	
0	0	0	0	0	0	0	1021	473	0	0	
1	0	0	0	0	0	0	1021	473	0	0	
2	0	0	0	0	0	0	1021	475	0	0	
3	0	0	0	0	0	0	1021	478	0	0	
4	0	0	0	0	0	0	1021	483	0	0	
5	0	0	0	0	0	0	1021	489	0	0	
6	0	0	0	0	0	0	1021	496	0	0	
7	0	0	0	0	0	0	1021	504	0	0	
8	0	0	0	0	0	0	1021	513	0	0	
9	0	0	0	0	0	0	1021	520	0	0	
10	0	0	0	0	0	0	1021	527	0	0	
11	0	0	0	0	0	0	1021	532	0	0	
12	0	0	0	0	0	0	1021	536	0	0	
13	0	0	0	0	0	0	1021	538	0	0	
14	0	0	0	0	0	0	1021	538	0	0	
15	0	0	0	0	0	0	1021	536	0	0	
0	0	0	0	0	0	0	1021	531	0	0	
1	0	0	0	0	0	0	1021	525	0	0	
2	0	0	0	0	0	0	1021	517	0	0	
3	0	0	0	0	0	0	1021	507	0	0	
4	0	0	0	0	0	0	1021	496	0	0	
5	0	0	0	0	0	0	1021	483	0	0	
6	0	0	0	0	0	0	1021	471	0	0	
7	0	0	0	0	0	0	1021	459	0	0	
8	0	0	0	0	0	0	1021	448	0	0	
9	0	0	0	0	0	0	1021	439	0	0	
10	0	0	0	0	0	0	1021	432	0	0	
11	0	0	0	0	0	0	1021	427	0	0	
12	0	0	0	0	0	0	1021	427	0	0	
13	0	0	0	0	0	0	1021	430	0	0	
14	0	0	0	0	0	0	1021	438	0	0	
15	0	0	0	0	0	0	1021	448	0	0	
0	0	0	0	0	0	0	1021	462	0	0	
1	0	0	0	0	0	0	1021	477	0	0	
2	0	0	0	0	0	0	1021	492	0	0	
3	0	0	0	0	0	0	1021	507	0	0	
4	0	0	0	0	0	0	1021	520	0	0	
5	0	0	0	0	0	0	1021	531	0	0	
6	0	0	0	0	0	0	1021	540	0	0	
7	0	0	0	0	0	0	1021	546	0	0	
8	0	0	0	0	0	0	1021	549	0	0	
9	0	0	0	0	0	0	1021	551	0	0	
10	0	0	0	0	0	0	1021	549	0	0	
11	0	0	0	0	0	0	1021	545	0	0	
12	0	0	0	0	0	0	1021	539	0	0	
13	0	0	0	0	0	0	1021	529	0	0	
14	0	0	0	0	0	0	1021	518	0	0	
15	0	0	0	0	0	0	1021	504	0	0	
0	0	0	0	0	0	0	1021	488	0	0	
1	0	0	0	0	0	0	1021	473	0	0	
2	0	0	0	0	0	0	1021	458	0	0	
3	0	0	0	0	0	0	1021	444	0	0	
4	0	0	0	0	0	0	1021	432	0	0	
5	0	0	0	0	0	0	1021	423	0	0	
6	0	0	0	0	0	0	1021	416	0	0	
7	0	0	0	0	0	0	1021	412	0	0	
8	0	0	0	0	0	0	1021	412	0	0	
9	0	0	0	0	0	0	1021	414	0	0	
10	0	0	0	0	0	0	1021	418	0	0	
11	0	0	0	0	0	0	1021	423	0	0	
12	0	0	0	0	0	0	1021	430	0	0	
13	0	0	0	0	0	0	1021	437	0	0	
14	0	0	0	0	0	0	1021	443	0	0	
15	0	0	0	0	0	0	1021	449	0	0	
