# OpenSignals Text File Format. Version 1
# {"": {"position": 0, "device": "", "device name": "", "device connection": "", "sampling rate": 1000, "resolution": [4, 1, 1, 1, 1, 10, 10, 10, 10, 6, 6], "firmware version": 1281, "comments": "", "keywords": "", "mode": 0, "sync interval": 2, "date": "", "time": "", "channels": [1, 2, 3, 4, 5, 6], "sensor": ["RAW", "RAW", "RAW", "RAW", "RAW", "RAW"], "label": ["A1", "A2", "A3", "A4", "A5", "A6"], "column": ["nSeq", "I1", "I2", "O1", "O2", "A1", "A2", "A3", "A4", "A5", "A6"], "special": [{}, {}, {}, {}, {}, {}], "digital IO": [0, 0, 1, 1]}}
# EndOfHeader
0	0	0	0	0	409	384	0	0	0	0	
1	0	0	0	0	415	389	0	0	0	0	
2	0	0	0	0	426	398	0	0	0	0	
3	0	0	0	0	439	409	0	0	0	0	
4	0	0	0	0	454	422	0	0	0	0	
5	0	0	0	0	470	437	0	0	0	0	
6	0	0	0	0	485	451	0	0	0	0	
7	0	0	0	0	499	463	0	0	0	0	
8	0	0	0	0	510	473	0	0	0	0	
9	0	0	0	0	518	480	0	0	0	0	
10	0	0	0	0	521	483	0	0	0	0	
11	0	0	0	0	519	482	0	0	0	0	
12	0	0	0	0	514	477	0	0	0	0	
13	0	0	0	0	504	468	0	0	0	0	
14	0	0	0	0	492	457	0	0	0	0	
15	0	0	0	0	478	444	0	0	0	0	
0	0	0	0	0	463	431	0	0	0	0	
1	0	0	0	0	449	418	0	0	0	0	
2	0	0	0	0	436	406	0	0	0	0	
3	0	0	0	0	426	397	0	0	0	0	
4	0	0	0	0	419	390	0	0	0	0	
5	0	0	0	0	416	387	0	0	0	0	
6	0	0	0	0	417	388	0	0	0	0	
7	0	0	0	0	422	392	0	0	0	0	
8	0	0	0	0	430	399	0	0	0	0	
9	0	0	0	0	439	408	0	0	0	0	
10	0	0	0	0	450	418	0	0	0	0	
11	0	0	0	0	460	427	0	0	0	0	
12	0	0	0	0	467	434	0	0	0	0	
13	0	0	0	0	472	439	0	0	0	0	
14	0	0	0	0	473	440	0	0	0	0	
15	0	0	0	0	471	438	0	0	0	0	
0	0	0	0	0	465	431	0	0	0	0	
1	0	0	0	0	455	422	0	0	0	0	
2	0	0	0	0	444	410	0	0	0	0	
3	0	0	0	0	431	396	0	0	0	0	
4	0	0	0	0	417	383	0	0	0	0	
5	0	0	0	0	403	369	0	0	0	0	
6	0	0	0	0	388	355	0	0	0	0	
7	0	0	0	0	376	342	0	0	0	0	
8	0	0	0	0	363	330	0	0	0	0	
9	0	0	0	0	351	319	0	0	0	0	
10	0	0	0	0	340	310	0	0	0	0	
11	0	0	0	0	330	302	0	0	0	0	
12	0	0	0	0	321	295	0	0	0	0	
13	0	0	0	0	313	288	0	0	0	0	
14	0	0	0	0	305	284	0	0	0	0	
15	0	0	0	0	298	278	0	0	0	0	
0	0	0	0	0	290	272	0	0	0	0	
1	0	0	0	0	281	265	0	0	0	0	
2	0	0	0	0	271	255	0	0	0	0	
3	0	0	0	0	261	245	0	0	0	0	
4	0	0	0	0	249	233	0	0	0	0	
5	0	0	0	0	238	223	0	0	0	0	
6	0	0	0	0	230	213	0	0	0	0	
7	0	0	0	0	226	207	0	0	0	0	
8	0	0	0	0	227	207	0	0	0	0	
9	0	0	0	0	233	210	0	0	0	0	
10	0	0	0	0	247	219	0	0	0	0	
11	0	0	0	0	265	233	0	0	0	0	
12	0	0	0	0	288	251	0	0	0	0	
13	0	0	0	0	316	273	0	0	0	0	
14	0	0	0	0	345	297	0	0	0	0	
15	0	0	0	0	376	323	0	0	0	0	
0	0	0	0	0	406	349	0	0	0	0	
1	0	0	0	0	435	374	0	0	0	0	
2	0	0	0	0	460	398	0	0	0	0	
3	0	0	0	0	481	419	0	0	0	0	
4	0	0	0	0	498	438	0	0	0	0	
5	0	0	0	0	512	455	0	0	0	0	
6	0	0	0	0	523	468	0	0	0	0	
7	0	0	0	0	529	478	0	0	0	0	
8	0	0	0	0	532	483	0	0	0	0	
9	0	0	0	0	530	486	0	0	0	0	
10	0	0	0	0	524	483	0	0	0	0	
11	0	0	0	0	515	477	0	0	0	0	
12	0	0	0	0	502	467	0	0	0	0	
13	0	0	0	0	487	456	0	0	0	0	
14	0	0	0	0	472	444	0	0	0	0	
15	0	0	0	0	456	431	0	0	0	0	
0	0	0	0	0	443	420	0	0	0	0	
1	0	0	0	0	431	410	0	0	0	0	
2	0	0	0	0	421	403	0	0	0	0	
3	0	0	0	0	414	397	0	0	0	0	
4	0	0	0	0	410	393	0	0	0	0	
5	0	0	0	0	409	393	0	0	0	0	
6	0	0	0	0	410	393	0	0	0	0	
7	0	0	0	0	415	397	0	0	0	0	
8	0	0	0	0	421	401	0	0	0	0	
9	0	0	0	0	429	407	0	0	0	0	
10	0	0	0	0	438	414	0	0	0	0	
11	0	0	0	0	446	419	0	0	0	0	
12	0	0	0	0	453	423	0	0	0	0	
13	0	0	0	0	458	424	0	0	0	0	
14	0	0	0	0	460	424	0	0	0	0	
15	0	0	0	0	460	423	0	0	0	0	
0	0	0	0	0	459	419	0	0	0	0	
1	0	0	0	0	456	416	0	0	0	0	
2	0	0	0	0	454	412	0	0	0	0	
3	0	0	0	0	450	409	0	0	0	0	
4	0	0	0	0	448	408	0	0	0	0	
5	0	0	0	0	447	408	0	0	0	0	
6	0	0	0	0	447	409	0	0	0	0	
7	0	0	0	0	448	412	0	0	0	0	
8	0	0	0	0	451	416	0	0	0	0	
9	0	0	0	0	454	421	0	0	0	0	
10	0	0	0	0	457	426	0	0	0	0	
11	0	0	0	0	459	430	0	0	0	0	
12	0	0	0	0	460	433	0	0	0	0	
13	0	0	0	0	460	434	0	0	0	0	
14	0	0	0	0	461	435	0	0	0	0	
15	0	0	0	0	460	435	0	0	0	0	
0	0	0	0	0	461	435	0	0	0	0	
1	0	0	0	0	462	435	0	0	0	0	
2	0	0	0	0	464	436	0	0	0	0	
3	0	0	0	0	469	438	0	0	0	0	
4	0	0	0	0	474	441	0	0	0	0	
5	0	0	0	0	479	444	0	0	0	0	
6	0	0	0	0	483	447	0	0	0	0	
7	0	0	0	0	487	450	0	0	0	0	
8	0	0	0	0	490	451	0	0	0	0	
9	0	0	0	0	490	452	0	0	0	0	
10	0	0	0	0	489	453	0	0	0	0	
11	0	0	0	0	487	453	0	0	0	0	
12	0	0	0	0	486	453	0	0	0	0	
13	0	0	0	0	485	455	0	0	0	0	
14	0	0	0	0	486	457	0	0	0	0	
15	0	0	0	0	487	461	0	0	0	0	
0	0	0	0	0	488	464	0	0	0	0	
1	0	0	0	0	490	466	0	0	0	0	
2	0	0	0	0	491	467	0	0	0	0	
3	0	0	0	0	490	467	0	0	0	0	
4	0	0	0	0	488	467	0	0	0	0	
5	0	0	0	0	486	464	0	0	0	0	
6	0	0	0	0	483	461	0	0	0	0	
7	0	0	0	0	480	457	0	0	0	0	
8	0	0	0	0	475	452	0	0	0	0	
9	0	0	0	0	469	447	0	0	0	0	
10	0	0	0	0	463	440	0	0	0	0	
11	0	0	0	0	456	433	0	0	0	0	
12	0	0	0	0	450	426	0	0	0	0	
13	0	0	0	0	443	419	0	0	0	0	
14	0	0	0	0	437	412	0	0	0	0	
15	0	0	0	0	432	407	0	0	0	0	
0	0	0	0	0	430	404	0	0	0	0	
1	0	0	0	0	430	403	0	0	0	0	
2	0	0	0	0	432	405	0	0	0	0	
3	0	0	0	0	436	409	0	0	0	0	
4	0	0	0	0	443	415	0	0	0	0	
5	0	0	0	0	451	422	0	0	0	0	
6	0	0	0	0	460	429	0	0	0	0	
7	0	0	0	0	468	436	0	0	0	0	
8	0	0	0	0	475	441	0	0	0	0	
9	0	0	0	0	480	445	0	0	0	0	
10	0	0	0	0	481	447	0	0	0	0	
11	0	0	0	0	481	446	0	0	0	0	
12	0	0	0	0	478	445	0	0	0	0	
13	0	0	0	0	475	442	0	0	0	0	
14	0	0	0	0	470	440	0	0	0	0	
15	0	0	0	0	465	437	0	0	0	0	
0	0	0	0	0	460	434	0	0	0	0	
1	0	0	0	0	456	432	0	0	0	0	
2	0	0	0	0	452	429	0	0	0	0	
3	0	0	0	0	449	427	0	0	0	0	
4	0	0	0	0	447	427	0	0	0	0	
5	0	0	0	0	446	427	0	0	0	0	
6	0	0	0	0	447	428	0	0	0	0	
7	0	0	0	0	449	430	0	0	0	0	
8	0	0	0	0	454	434	0	0	0	0	
9	0	0	0	0	459	439	0	0	0	0	
10	0	0	0	0	465	444	0	0	0	0	
11	0	0	0	0	472	449	0	0	0	0	
12	0	0	0	0	479	455	0	0	0	0	
13	0	0	0	0	485	458	0	0	0	0	
14	0	0	0	0	489	460	0	0	0	0	
15	0	0	0	0	492	461	0	0	0	0	
0	0	0	0	0	493	460	0	0	0	0	
1	0	0	0	0	491	456	0	0	0	0	
2	0	0	0	0	486	450	0	0	0	0	
3	0	0	0	0	477	441	0	0	0	0	
4	0	0	0	0	467	431	0	0	0	0	
5	0	0	0	0	454	419	0	0	0	0	
6	0	0	0	0	439	407	0	0	0	0	
7	0	0	0	0	423	395	0	0	0	0	
8	0	0	0	0	409	384	0	0	0	0	
9	0	0	0	0	397	375	0	0	0	0	
10	0	0	0	0	387	368	0	0	0	0	
11	0	0	0	0	380	364	0	0	0	0	
12	0	0	0	0	376	363	0	0	0	0	
13	0	0	0	0	376	363	0	0	0	0	
14	0	0	0	0	379	365	0	0	0	0	
15	0	0	0	0	385	369	0	0	0	0	
0	0	0	0	0	392	374	0	0	0	0	
1	0	0	0	0	401	380	0	0	0	0	
2	0	0	0	0	412	386	0	0	0	0	
3	0	0	0	0	423	393	0	0	0	0	
4	0	0	0	0	434	400	0	0	0	0	
5	0	0	0	0	444	407	0	0	0	0	
6	0	0	0	0	453	413	0	0	0	0	
7	0	0	0	0	462	419	0	0	0	0	
8	0	0	0	0	467	423	0	0	0	0	
9	0	0	0	0	471	427	0	0	0	0	
10	0	0	0	0	472	429	0	0	0	0	
11	0	0	0	0	470	430	0	0	0	0	
12	0	0	0	0	467	429	0	0	0	0	
13	0	0	0	0	461	428	0	0	0	0	
14	0	0	0	0	455	425	0	0	0	0	
15	0	0	0	0	449	423	0	0	0	0	
0	0	0	0	0	444	422	0	0	0	0	
1	0	0	0	0	442	422	0	0	0	0	
2	0	0	0	0	442	423	0	0	0	0	
3	0	0	0	0	446	427	0	0	0	0	
4	0	0	0	0	452	431	0	0	0	0	
5	0	0	0	0	460	436	0	0	0	0	
6	0	0	0	0	468	441	0	0	0	0	
7	0	0	0	0	475	444	0	0	0	0	
8	0	0	0	0	480	446	0	0	0	0	
9	0	0	0	0	481	443	0	0	0	0	
10	0	0	0	0	477	438	0	0	0	0	
11	0	0	0	0	470	430	0	0	0	0	
12	0	0	0	0	460	420	0	0	0	0	
13	0	0	0	0	448	408	0	0	0	0	
14	0	0	0	0	434	396	0	0	0	0	
15	0	0	0	0	419	385	0	0	0	0	
0	0	0	0	0	407	376	0	0	0	0	
1	0	0	0	0	397	369	0	0	0	0	
2	0	0	0	0	391	366	0	0	0	0	
3	0	0	0	0	388	365	0	0	0	0	
4	0	0	0	0	389	369	0	0	0	0	
5	0	0	0	0	395	376	0	0	0	0	
6	0	0	0	0	405	385	0	0	0	0	
7	0	0	0	0	417	397	0	0	0	0	
8	0	0	0	0	432	409	0	0	0	0	
9	0	0	0	0	448	422	0	0	0	0	
10	0	0	0	0	462	433	0	0	0	0	
11	0	0	0	0	476	442	0	0	0	0	
12	0	0	0	0	485	448	0	0	0	0	
13	0	0	0	0	490	451	0	0	0	0	
14	0	0	0	0	490	450	0	0	0	0	
15	0	0	0	0	485	444	0	0	0	0	
0	0	0	0	0	476	436	0	0	0	0	
1	0	0	0	0	463	427	0	0	0	0	
2	0	0	0	0	449	415	0	0	0	0	
3	0	0	0	0	433	404	0	0	0	0	
4	0	0	0	0	420	395	0	0	0	0	
5	0	0	0	0	409	387	0	0	0	0	
6	0	0	0	0	400	382	0	0	0	0	
7	0	0	0	0	395	380	0	0	0	0	
8	0	0	0	0	393	379	0	0	0	0	
9	0	0	0	0	394	380	0	0	0	0	
10	0	0	0	0	396	381	0	0	0	0	
11	0	0	0	0	401	383	0	0	0	0	
12	0	0	0	0	406	385	0	0	0	0	
13	0	0	0	0	412	387	0	0	0	0	
14	0	0	0	0	419	390	0	0	0	0	
15	0	0	0	0	426	391	0	0	0	0	
0	0	0	0	0	433	394	0	0	0	0	
1	0	0	0	0	438	396	0	0	0	0	
2	0	0	0	0	442	397	0	0	0	0	
3	0	0	0	0	445	398	0	0	0	0	
4	0	0	0	0	446	399	0	0	0	0	
5	0	0	0	0	445	398	0	0	0	0	
6	0	0	0	0	443	397	0	0	0	0	
7	0	0	0	0	439	396	0	0	0	0	
8	0	0	0	0	433	395	0	0	0	0	
9	0	0	0	0	428	394	0	0	0	0	
10	0	0	0	0	424	394	0	0	0	0	
11	0	0	0	0	421	395	0	0	0	0	
12	0	0	0	0	419	397	0	0	0	0	
13	0	0	0	0	419	399	0	0	0	0	
14	0	0	0	0	420	402	0	0	0	0	
15	0	0	0	0	423	405	0	0	0	0	
0	0	0	0	0	427	408	0	0	0	0	
1	0	0	0	0	432	411	0	0	0	0	
2	0	0	0	0	438	414	0	0	0	0	
3	0	0	0	0	443	415	0	0	0	0	
4	0	0	0	0	447	415	0	0	0	0	
5	0	0	0	0	449	414	0	0	0	0	
6	0	0	0	0	450	413	0	0	0	0	
7	0	0	0	0	449	409	0	0	0	0	
8	0	0	0	0	446	405	0	0	0	0	
9	0	0	0	0	441	399	0	0	0	0	
10	0	0	0	0	435	395	0	0	0	0	
11	0	0	0	0	428	390	0	0	0	0	
12	0	0	0	0	420	387	0	0	0	0	
13	0	0	0	0	415	384	0	0	0	0	
14	0	0	0	0	409	383	0	0	0	0	
15	0	0	0	0	405	382	0	0	0	0	
0	0	0	0	0	402	382	0	0	0	0	
1	0	0	0	0	400	382	0	0	0	0	
2	0	0	0	0	399	382	0	0	0	0	
3	0	0	0	0	399	383	0	0	0	0	
4	0	0	0	0	400	382	0	0	0	0	
5	0	0	0	0	401	381	0	0	0	0	
6	0	0	0	0	402	379	0	0	0	0	
7	0	0	0	0	403	377	0	0	0	0	
8	0	0	0	0	404	375	0	0	0	0	
9	0	0	0	0	406	374	0	0	0	0	
10	0	0	0	0	407	372	0	0	0	0	
11	0	0	0	0	409	373	0	0	0	0	
12	0	0	0	0	412	374	0	0	0	0	
13	0	0	0	0	416	378	0	0	0	0	
14	0	0	0	0	422	383	0	0	0	0	
15	0	0	0	0	427	389	0	0	0	0	
0	0	0	0	0	432	396	0	0	0	0	
1	0	0	0	0	437	402	0	0	0	0	
2	0	0	0	0	441	408	0	0	0	0	
3	0	0	0	0	446	415	0	0	0	0	
4	0	0	0	0	450	421	0	0	0	0	
5	0	0	0	0	454	427	0	0	0	0	
6	0	0	0	0	459	432	0	0	0	0	
7	0	0	0	0	462	436	0	0	0	0	
8	0	0	0	0	463	437	0	0	0	0	
9	0	0	0	0	463	436	0	0	0	0	
10	0	0	0	0	461	433	0	0	0	0	
11	0	0	0	0	457	428	0	0	0	0	
12	0	0	0	0	451	422	0	0	0	0	
13	0	0	0	0	444	414	0	0	0	0	
14	0	0	0	0	436	407	0	0	0	0	
15	0	0	0	0	428	399	0	0	0	0	
0	0	0	0	0	420	391	0	0	0	0	
1	0	0	0	0	413	386	0	0	0	0	
2	0	0	0	0	408	382	0	0	0	0	
3	0	0	0	0	403	380	0	0	0	0	
4	0	0	0	0	401	380	0	0	0	0	
5	0	0	0	0	401	381	0	0	0	0	
6	0	0	0	0	402	384	0	0	0	0	
7	0	0	0	0	406	388	0	0	0	0	
8	0	0	0	0	410	393	0	0	0	0	
9	0	0	0	0	416	399	0	0	0	0	
10	0	0	0	0	423	406	0	0	0	0	
11	0	0	0	0	432	412	0	0	0	0	
12	0	0	0	0	439	418	0	0	0	0	
13	0	0	0	0	446	423	0	0	0	0	
14	0	0	0	0	451	425	0	0	0	0	
15	0	0	0	0	455	427	0	0	0	0	
0	0	0	0	0	456	425	0	0	0	0	
1	0	0	0	0	454	421	0	0	0	0	
2	0	0	0	0	449	415	0	0	0	0	
3	0	0	0	0	443	408	0	0	0	0	
4	0	0	0	0	434	399	0	0	0	0	
5	0	0	0	0	424	391	0	0	0	0	
6	0	0	0	0	414	382	0	0	0	0	
7	0	0	0	0	403	375	0	0	0	0	
8	0	0	0	0	395	369	0	0	0	0	
9	0	0	0	0	388	365	0	0	0	0	
10	0	0	0	0	385	365	0	0	0	0	
11	0	0	0	0	384	367	0	0	0	0	
12	0	0	0	0	387	371	0	0	0	0	
13	0	0	0	0	393	378	0	0	0	0	
14	0	0	0	0	402	386	0	0	0	0	
15	0	0	0	0	413	395	0	0	0	0	
0	0	0	0	0	425	405	0	0	0	0	
1	0	0	0	0	438	415	0	0	0	0	
2	0	0	0	0	451	424	0	0	0	0	
3	0	0	0	0	463	432	0	0	0	0	
4	0	0	0	0	475	439	0	0	0	0	
5	0	0	0	0	484	445	0	0	0	0	
6	0	0	0	0	493	450	0	0	0	0	
7	0	0	0	0	499	455	0	0	0	0	
8	0	0	0	0	504	458	0	0	0	0	
9	0	0	0	0	507	460	0	0	0	0	
10	0	0	0	0	506	461	0	0	0	0	
11	0	0	0	0	503	460	0	0	0	0	
12	0	0	0	0	496	456	0	0	0	0	
13	0	0	0	0	487	451	0	0	0	0	
14	0	0	0	0	476	445	0	0	0	0	
15	0	0	0	0	463	438	0	0	0	0	
0	0	0	0	0	450	430	0	0	0	0	
1	0	0	0	0	438	423	0	0	0	0	
2	0	0	0	0	428	416	0	0	0	0	
3	0	0	0	0	420	410	0	0	0	0	
4	0	0	0	0	415	406	0	0	0	0	
5	0	0	0	0	412	402	0	0	0	0	
6	0	0	0	0	412	400	0	0	0	0	
7	0	0	0	0	415	400	0	0	0	0	
8	0	0	0	0	420	400	0	0	0	0	
9	0	0	0	0	425	402	0	0	0	0	
10	0	0	0	0	431	404	0	0	0	0	
11	0	0	0	0	438	407	0	0	0	0	
12	0	0	0	0	443	409	0	0	0	0	
13	0	0	0	0	447	412	0	0	0	0	
14	0	0	0	0	450	414	0	0	0	0	
15	0	0	0	0	451	416	0	0	0	0	
0	0	0	0	0	451	417	0	0	0	0	
1	0	0	0	0	451	419	0	0	0	0	
2	0	0	0	0	453	423	0	0	0	0	
3	0	0	0	0	457	428	0	0	0	0	
4	0	0	0	0	462	434	0	0	0	0	
5	0	0	0	0	468	441	0	0	0	0	
6	0	0	0	0	475	448	0	0	0	0	
7	0	0	0	0	481	454	0	0	0	0	
8	0	0	0	0	486	458	0	0	0	0	
9	0	0	0	0	489	461	0	0	0	0	
10	0	0	0	0	490	460	0	0	0	0	
11	0	0	0	0	487	457	0	0	0	0	
12	0	0	0	0	483	452	0	0	0	0	
13	0	0	0	0	475	444	0	0	0	0	
14	0	0	0	0	464	435	0	0	0	0	
15	0	0	0	0	454	424	0	0	0	0	
0	0	0	0	0	441	413	0	0	0	0	
1	0	0	0	0	429	402	0	0	0	0	
2	0	0	0	0	418	392	0	0	0	0	
3	0	0	0	0	408	384	0	0	0	0	
4	0	0	0	0	401	378	0	0	0	0	
5	0	0	0	0	396	375	0	0	0	0	
6	0	0	0	0	394	375	0	0	0	0	
7	0	0	0	0	396	378	0	0	0	0	
8	0	0	0	0	401	382	0	0	0	0	
9	0	0	0	0	408	388	0	0	0	0	
10	0	0	0	0	415	395	0	0	0	0	
11	0	0	0	0	423	400	0	0	0	0	
12	0	0	0	0	430	404	0	0	0	0	
13	0	0	0	0	434	407	0	0	0	0	
14	0	0	0	0	438	407	0	0	0	0	
15	0	0	0	0	438	406	0	0	0	0	
0	0	0	0	0	437	403	0	0	0	0	
1	0	0	0	0	434	398	0	0	0	0	
2	0	0	0	0	430	393	0	0	0	0	
3	0	0	0	0	425	389	0	0	0	0	
4	0	0	0	0	420	385	0	0	0	0	
5	0	0	0	0	417	383	0	0	0	0	
6	0	0	0	0	414	382	0	0	0	0	
7	0	0	0	0	413	384	0	0	0	0	
8	0	0	0	0	415	387	0	0	0	0	
9	0	0	0	0	418	392	0	0	0	0	
10	0	0	0	0	422	398	0	0	0	0	
11	0	0	0	0	428	406	0	0	0	0	
12	0	0	0	0	435	414	0	0	0	0	
13	0	0	0	0	443	422	0	0	0	0	
14	0	0	0	0	451	430	0	0	0	0	
15	0	0	0	0	459	436	0	0	0	0	
0	0	0	0	0	465	441	0	0	0	0	
1	0	0	0	0	469	444	0	0	0	0	
2	0	0	0	0	471	444	0	0	0	0	
3	0	0	0	0	470	442	0	0	0	0	
4	0	0	0	0	467	438	0	0	0	0	
5	0	0	0	0	461	432	0	0	0	0	
6	0	0	0	0	454	424	0	0	0	0	
7	0	0	0	0	446	417	0	0	0	0	
8	0	0	0	0	438	410	0	0	0	0	
9	0	0	0	0	431	404	0	0	0	0	
10	0	0	0	0	425	399	0	0	0	0	
11	0	0	0	0	421	397	0	0	0	0	
12	0	0	0	0	420	397	0	0	0	0	
13	0	0	0	0	422	399	0	0	0	0	
14	0	0	0	0	425	404	0	0	0	0	
15	0	0	0	0	432	411	0	0	0	0	
0	0	0	0	0	440	418	0	0	0	0	
1	0	0	0	0	451	428	0	0	0	0	
2	0	0	0	0	463	438	0	0	0	0	
3	0	0	0	0	476	448	0	0	0	0	
4	0	0	0	0	489	459	0	0	0	0	
5	0	0	0	0	501	469	0	0	0	0	
6	0	0	0	0	511	476	0	0	0	0	
7	0	0	0	0	518	481	0	0	0	0	
8	0	0	0	0	519	481	0	0	0	0	
9	0	0	0	0	515	476	0	0	0	0	
10	0	0	0	0	505	467	0	0	0	0	
11	0	0	0	0	489	454	0	0	0	0	
12	0	0	0	0	470	438	0	0	0	0	
13	0	0	0	0	448	421	0	0	0	0	
14	0	0	0	0	425	403	0	0	0	0	
15	0	0	0	0	403	386	0	0	0	0	
0	0	0	0	0	383	372	0	0	0	0	
1	0	0	0	0	367	360	0	0	0	0	
2	0	0	0	0	355	353	0	0	0	0	
3	0	0	0	0	349	349	0	0	0	0	
4	0	0	0	0	348	349	0	0	0	0	
5	0	0	0	0	353	353	0	0	0	0	
6	0	0	0	0	363	359	0	0	0	0	
7	0	0	0	0	376	368	0	0	0	0	
8	0	0	0	0	391	379	0	0	0	0	
9	0	0	0	0	408	389	0	0	0	0	
10	0	0	0	0	424	399	0	0	0	0	
11	0	0	0	0	440	409	0	0	0	0	
12	0	0	0	0	453	418	0	0	0	0	
13	0	0	0	0	464	425	0	0	0	0	
14	0	0	0	0	472	432	0	0	0	0	
15	0	0	0	0	479	437	0	0	0	0	
0	0	0	0	0	483	442	0	0	0	0	
1	0	0	0	0	486	447	0	0	0	0	
2	0	0	0	0	486	450	0	0	0	0	
3	0	0	0	0	485	454	0	0	0	0	
4	0	0	0	0	482	455	0	0	0	0	
5	0	0	0	0	478	456	0	0	0	0	
6	0	0	0	0	471	455	0	0	0	0	
7	0	0	0	0	462	451	0	0	0	0	
8	0	0	0	0	453	446	0	0	0	0	
9	0	0	0	0	442	439	0	0	0	0	
10	0	0	0	0	433	432	0	0	0	0	
11	0	0	0	0	424	424	0	0	0	0	
12	0	0	0	0	419	417	0	0	0	0	
13	0	0	0	0	415	413	0	0	0	0	
14	0	0	0	0	415	411	0	0	0	0	
15	0	0	0	0	419	412	0	0	0	0	
0	0	0	0	0	428	415	0	0	0	0	
1	0	0	0	0	439	423	0	0	0	0	
2	0	0	0	0	452	431	0	0	0	0	
3	0	0	0	0	465	440	0	0	0	0	
4	0	0	0	0	476	448	0	0	0	0	
5	0	0	0	0	485	455	0	0	0	0	
6	0	0	0	0	490	458	0	0	0	0	
7	0	0	0	0	491	458	0	0	0	0	
8	0	0	0	0	486	455	0	0	0	0	
9	0	0	0	0	477	448	0	0	0	0	
10	0	0	0	0	464	439	0	0	0	0	
11	0	0	0	0	449	428	0	0	0	0	
12	0	0	0	0	434	417	0	0	0	0	
13	0	0	0	0	419	406	0	0	0	0	
14	0	0	0	0	406	396	0	0	0	0	
15	0	0	0	0	396	390	0	0	0	0	
0	0	0	0	0	390	385	0	0	0	0	
1	0	0	0	0	388	384	0	0	0	0	
2	0	0	0	0	391	387	0	0	0	0	
3	0	0	0	0	398	393	0	0	0	0	
4	0	0	0	0	409	401	0	0	0	0	
5	0	0	0	0	423	411	0	0	0	0	
6	0	0	0	0	436	422	0	0	0	0	
7	0	0	0	0	450	432	0	0	0	0	
8	0	0	0	0	462	440	0	0	0	0	
9	0	0	0	0	471	446	0	0	0	0	
10	0	0	0	0	475	448	0	0	0	0	
11	0	0	0	0	474	447	0	0	0	0	
12	0	0	0	0	469	442	0	0	0	0	
13	0	0	0	0	462	435	0	0	0	0	
14	0	0	0	0	452	427	0	0	0	0	
15	0	0	0	0	441	418	0	0	0	0	
0	0	0	0	0	430	409	0	0	0	0	
1	0	0	0	0	420	402	0	0	0	0	
2	0	0	0	0	413	397	0	0	0	0	
3	0	0	0	0	409	394	0	0	0	0	
4	0	0	0	0	407	393	0	0	0	0	
5	0	0	0	0	408	394	0	0	0	0	
6	0	0	0	0	412	396	0	0	0	0	
7	0	0	0	0	416	398	0	0	0	0	
8	0	0	0	0	421	400	0	0	0	0	
9	0	0	0	0	425	402	0	0	0	0	
10	0	0	0	0	430	403	0	0	0	0	
11	0	0	0	0	433	404	0	0	0	0	
12	0	0	0	0	436	404	0	0	0	0	
13	0	0	0	0	438	406	0	0	0	0	
14	0	0	0	0	440	407	0	0	0	0	
15	0	0	0	0	443	409	0	0	0	0	
0	0	0	0	0	445	412	0	0	0	0	
1	0	0	0	0	448	417	0	0	0	0	
2	0	0	0	0	453	423	0	0	0	0	
3	0	0	0	0	457	430	0	0	0	0	
4	0	0	0	0	461	436	0	0	0	0	
5	0	0	0	0	465	443	0	0	0	0	
6	0	0	0	0	468	448	0	0	0	0	
7	0	0	0	0	470	453	0	0	0	0	
8	0	0	0	0	472	456	0	0	0	0	
9	0	0	0	0	472	457	0	0	0	0	
10	0	0	0	0	470	455	0	0	0	0	
11	0	0	0	0	467	452	0	0	0	0	
12	0	0	0	0	462	446	0	0	0	0	
13	0	0	0	0	456	438	0	0	0	0	
14	0	0	0	0	448	429	0	0	0	0	
15	0	0	0	0	439	419	0	0	0	0	
0	0	0	0	0	429	409	0	0	0	0	
1	0	0	0	0	419	400	0	0	0	0	
2	0	0	0	0	411	392	0	0	0	0	
3	0	0	0	0	403	386	0	0	0	0	
4	0	0	0	0	398	383	0	0	0	0	
5	0	0	0	0	395	382	0	0	0	0	
6	0	0	0	0	394	383	0	0	0	0	
7	0	0	0	0	396	387	0	0	0	0	
8	0	0	0	0	401	393	0	0	0	0	
9	0	0	0	0	408	400	0	0	0	0	
10	0	0	0	0	418	409	0	0	0	0	
11	0	0	0	0	428	418	0	0	0	0	
12	0	0	0	0	439	426	0	0	0	0	
13	0	0	0	0	449	434	0	0	0	0	
14	0	0	0	0	458	440	0	0	0	0	
15	0	0	0	0	467	445	0	0	0	0	
0	0	0	0	0	474	448	0	0	0	0	
1	0	0	0	0	478	450	0	0	0	0	
2	0	0	0	0	480	450	0	0	0	0	
3	0	0	0	0	481	450	0	0	0	0	
4	0	0	0	0	481	448	0	0	0	0	
5	0	0	0	0	479	447	0	0	0	0	
6	0	0	0	0	476	447	0	0	0	0	
7	0	0	0	0	473	446	0	0	0	0	
8	0	0	0	0	470	445	0	0	0	0	
9	0	0	0	0	467	445	0	0	0	0	
10	0	0	0	0	464	445	0	0	0	0	
11	0	0	0	0	462	446	0	0	0	0	
12	0	0	0	0	460	447	0	0	0	0	
13	0	0	0	0	459	448	0	0	0	0	
14	0	0	0	0	460	449	0	0	0	0	
15	0	0	0	0	462	451	0	0	0	0	
0	0	0	0	0	464	453	0	0	0	0	
1	0	0	0	0	467	454	0	0	0	0	
2	0	0	0	0	470	455	0	0	0	0	
3	0	0	0	0	472	455	0	0	0	0	
4	0	0	0	0	474	454	0	0	0	0	
5	0	0	0	0	474	451	0	0	0	0	
6	0	0	0	0	473	449	0	0	0	0	
7	0	0	0	0	470	445	0	0	0	0	
8	0	0	0	0	467	440	0	0	0	0	
9	0	0	0	0	462	435	0	0	0	0	
10	0	0	0	0	456	431	0	0	0	0	
11	0	0	0	0	450	427	0	0	0	0	
12	0	0	0	0	443	424	0	0	0	0	
13	0	0	0	0	438	422	0	0	0	0	
14	0	0	0	0	433	420	0	0	0	0	
15	0	0	0	0	429	418	0	0	0	0	
0	0	0	0	0	425	416	0	0	0	0	
1	0	0	0	0	423	415	0	0	0	0	
2	0	0	0	0	420	413	0	0	0	0	
3	0	0	0	0	419	410	0	0	0	0	
4	0	0	0	0	418	407	0	0	0	0	
5	0	0	0	0	417	404	0	0	0	0	
6	0	0	0	0	418	401	0	0	0	0	
7	0	0	0	0	419	398	0	0	0	0	
8	0	0	0	0	421	397	0	0	0	0	
9	0	0	0	0	423	396	0	0	0	0	
10	0	0	0	0	428	397	0	0	0	0	
11	0	0	0	0	432	399	0	0	0	0	
12	0	0	0	0	438	403	0	0	0	0	
13	0	0	0	0	444	408	0	0	0	0	
14	0	0	0	0	448	413	0	0	0	0	
15	0	0	0	0	452	418	0	0	0	0	
0	0	0	0	0	454	422	0	0	0	0	
1	0	0	0	0	456	426	0	0	0	0	
2	0	0	0	0	457	430	0	0	0	0	
3	0	0	0	0	457	433	0	0	0	0	
4	0	0	0	0	458	437	0	0	0	0	
5	0	0	0	0	460	441	0	0	0	0	
6	0	0	0	0	463	445	0	0	0	0	
7	0	0	0	0	465	448	0	0	0	0	
8	0	0	0	0	467	448	0	0	0	0	
9	0	0	0	0	467	448	0	0	0	0	
10	0	0	0	0	466	446	0	0	0	0	
11	0	0	0	0	463	441	0	0	0	0	
12	0	0	0	0	460	437	0	0	0	0	
13	0	0	0	0	455	432	0	0	0	0	
14	0	0	0	0	450	426	0	0	0	0	
15	0	0	0	0	444	421	0	0	0	0	
0	0	0	0	0	439	416	0	0	0	0	
1	0	0	0	0	433	412	0	0	0	0	
2	0	0	0	0	429	408	0	0	0	0	
3	0	0	0	0	425	406	0	0	0	0	
4	0	0	0	0	422	404	0	0	0	0	
5	0	0	0	0	422	405	0	0	0	0	
6	0	0	0	0	422	407	0	0	0	0	
7	0	0	0	0	424	409	0	0	0	0	
8	0	0	0	0	428	413	0	0	0	0	
9	0	0	0	0	432	417	0	0	0	0	
10	0	0	0	0	438	423	0	0	0	0	
11	0	0	0	0	444	428	0	0	0	0	
12	0	0	0	0	450	433	0	0	0	0	
13	0	0	0	0	457	438	0	0	0	0	
14	0	0	0	0	463	444	0	0	0	0	
15	0	0	0	0	470	448	0	0	0	0	
0	0	0	0	0	476	453	0	0	0	0	
1	0	0	0	0	482	457	0	0	0	0	
2	0	0	0	0	487	461	0	0	0	0	
3	0	0	0	0	491	464	0	0	0	0	
4	0	0	0	0	495	467	0	0	0	0	
5	0	0	0	0	496	468	0	0	0	0	
6	0	0	0	0	495	468	0	0	0	0	
7	0	0	0	0	493	466	0	0	0	0	
8	0	0	0	0	489	463	0	0	0	0	
9	0	0	0	0	483	459	0	0	0	0	
10	0	0	0	0	475	453	0	0	0	0	
11	0	0	0	0	467	447	0	0	0	0	
12	0	0	0	0	458	440	0	0	0	0	
13	0	0	0	0	449	435	0	0	0	0	
14	0	0	0	0	442	428	0	0	0	0	
15	0	0	0	0	434	422	0	0	0	0	
0	0	0	0	0	427	415	0	0	0	0	
1	0	0	0	0	420	408	0	0	0	0	
2	0	0	0	0	414	403	0	0	0	0	
3	0	0	0	0	410	398	0	0	0	0	
4	0	0	0	0	409	395	0	0	0	0	
5	0	0	0	0	410	394	0	0	0	0	
6	0	0	0	0	415	396	0	0	0	0	
7	0	0	0	0	421	399	0	0	0	0	
8	0	0	0	0	429	404	0	0	0	0	
9	0	0	0	0	439	411	0	0	0	0	
10	0	0	0	0	448	418	0	0	0	0	
11	0	0	0	0	457	425	0	0	0	0	
12	0	0	0	0	465	432	0	0	0	0	
13	0	0	0	0	471	437	0	0	0	0	
14	0	0	0	0	473	440	0	0	0	0	
15	0	0	0	0	471	440	0	0	0	0	
0	0	0	0	0	466	437	0	0	0	0	
1	0	0	0	0	457	431	0	0	0	0	
2	0	0	0	0	446	423	0	0	0	0	
3	0	0	0	0	433	413	0	0	0	0	
4	0	0	0	0	421	403	0	0	0	0	
5	0	0	0	0	408	393	0	0	0	0	
6	0	0	0	0	396	383	0	0	0	0	
7	0	0	0	0	386	374	0	0	0	0	
8	0	0	0	0	376	365	0	0	0	0	
9	0	0	0	0	368	356	0	0	0	0	
10	0	0	0	0	361	348	0	0	0	0	
11	0	0	0	0	356	342	0	0	0	0	
12	0	0	0	0	353	338	0	0	0	0	
13	0	0	0	0	351	335	0	0	0	0	
14	0	0	0	0	351	333	0	0	0	0	
15	0	0	0	0	351	332	0	0	0	0	
0	0	0	0	0	350	331	0	0	0	0	
1	0	0	0	0	350	329	0	0	0	0	
2	0	0	0	0	348	328	0	0	0	0	
3	0	0	0	0	344	326	0	0	0	0	
4	0	0	0	0	339	321	0	0	0	0	
5	0	0	0	0	331	315	0	0	0	0	
6	0	0	0	0	322	306	0	0	0	0	
7	0	0	0	0	311	296	0	0	0	0	
8	0	0	0	0	299	285	0	0	0	0	
9	0	0	0	0	285	272	0	0	0	0	
10	0	0	0	0	270	257	0	0	0	0	
11	0	0	0	0	254	240	0	0	0	0	
12	0	0	0	0	236	223	0	0	0	0	
13	0	0	0	0	220	205	0	0	0	0	
14	0	0	0	0	204	189	0	0	0	0	
15	0	0	0	0	190	175	0	0	0	0	
0	0	0	0	0	182	166	0	0	0	0	
1	0	0	0	0	177	161	0	0	0	0	
2	0	0	0	0	179	162	0	0	0	0	
3	0	0	0	0	187	169	0	0	0	0	
4	0	0	0	0	201	183	0	0	0	0	
5	0	0	0	0	223	203	0	0	0	0	
6	0	0	0	0	249	227	0	0	0	0	
7	0	0	0	0	280	255	0	0	0	0	
8	0	0	0	0	314	285	0	0	0	0	
9	0	0	0	0	349	317	0	0	0	0	
10	0	0	0	0	385	348	0	0	0	0	
11	0	0	0	0	420	379	0	0	0	0	
12	0	0	0	0	451	407	0	0	0	0	
13	0	0	0	0	478	432	0	0	0	0	
14	0	0	0	0	500	453	0	0	0	0	
15	0	0	0	0	518	470	0	0	0	0	
0	0	0	0	0	531	483	0	0	0	0	
1	0	0	0	0	538	493	0	0	0	0	
2	0	0	0	0	541	499	0	0	0	0	
3	0	0	0	0	541	502	0	0	0	0	
4	0	0	0	0	536	502	0	0	0	0	
5	0	0	0	0	527	498	0	0	0	0	
6	0	0	0	0	516	491	0	0	0	0	
7	0	0	0	0	501	481	0	0	0	0	
8	0	0	0	0	485	469	0	0	0	0	
9	0	0	0	0	467	456	0	0	0	0	
10	0	0	0	0	449	441	0	0	0	0	
11	0	0	0	0	431	426	0	0	0	0	
12	0	0	0	0	413	411	0	0	0	0	
13	0	0	0	0	398	397	0	0	0	0	
14	0	0	0	0	385	385	0	0	0	0	
15	0	0	0	0	376	376	0	0	0	0	
0	0	0	0	0	372	370	0	0	0	0	
1	0	0	0	0	372	368	0	0	0	0	
2	0	0	0	0	378	369	0	0	0	0	
3	0	0	0	0	389	376	0	0	0	0	
4	0	0	0	0	404	385	0	0	0	0	
5	0	0	0	0	422	397	0	0	0	0	
6	0	0	0	0	441	412	0	0	0	0	
7	0	0	0	0	463	428	0	0	0	0	
8	0	0	0	0	482	443	0	0	0	0	
9	0	0	0	0	500	459	0	0	0	0	
10	0	0	0	0	516	472	0	0	0	0	
11	0	0	0	0	527	484	0	0	0	0	
12	0	0	0	0	536	493	0	0	0	0	
13	0	0	0	0	540	500	0	0	0	0	
14	0	0	0	0	540	504	0	0	0	0	
15	0	0	0	0	537	505	0	0	0	0	
0	0	0	0	0	531	504	0	0	0	0	
1	0	0	0	0	524	502	0	0	0	0	
2	0	0	0	0	514	496	0	0	0	0	
3	0	0	0	0	503	489	0	0	0	0	
4	0	0	0	0	491	479	0	0	0	0	
5	0	0	0	0	476	467	0	0	0	0	
6	0	0	0	0	462	453	0	0	0	0	
7	0	0	0	0	446	438	0	0	0	0	
8	0	0	0	0	430	421	0	0	0	0	
9	0	0	0	0	415	405	0	0	0	0	
10	0	0	0	0	400	389	0	0	0	0	
11	0	0	0	0	387	375	0	0	0	0	
12	0	0	0	0	377	364	0	0	0	0	
13	0	0	0	0	370	355	0	0	0	0	
14	0	0	0	0	366	351	0	0	0	0	
15	0	0	0	0	366	351	0	0	0	0	
0	0	0	0	0	371	354	0	0	0	0	
1	0	0	0	0	379	361	0	0	0	0	
2	0	0	0	0	391	371	0	0	0	0	
3	0	0	0	0	404	383	0	0	0	0	
4	0	0	0	0	418	396	0	0	0	0	
5	0	0	0	0	433	409	0	0	0	0	
6	0	0	0	0	447	422	0	0	0	0	
7	0	0	0	0	460	433	0	0	0	0	
8	0	0	0	0	470	442	0	0	0	0	
9	0	0	0	0	477	448	0	0	0	0	
10	0	0	0	0	482	452	0	0	0	0	
11	0	0	0	0	484	453	0	0	0	0	
12	0	0	0	0	483	452	0	0	0	0	
13	0	0	0	0	480	450	0	0	0	0	
14	0	0	0	0	476	446	0	0	0	0	
15	0	0	0	0	471	441	0	0	0	0	
0	0	0	0	0	466	437	0	0	0	0	
1	0	0	0	0	463	434	0	0	0	0	
2	0	0	0	0	460	432	0	0	0	0	
3	0	0	0	0	460	432	0	0	0	0	
4	0	0	0	0	459	432	0	0	0	0	
5	0	0	0	0	461	434	0	0	0	0	
6	0	0	0	0	462	436	0	0	0	0	
7	0	0	0	0	463	439	0	0	0	0	
8	0	0	0	0	464	440	0	0	0	0	
9	0	0	0	0	463	441	0	0	0	0	
10	0	0	0	0	462	442	0	0	0	0	
11	0	0	0	0	459	441	0	0	0	0	
12	0	0	0	0	455	439	0	0	0	0	
13	0	0	0	0	452	436	0	0	0	0	
14	0	0	0	0	448	433	0	0	0	0	
15	0	0	0	0	445	429	0	0	0	0	
0	0	0	0	0	443	427	0	0	0	0	
1	0	0	0	0	442	424	0	0	0	0	
2	0	0	0	0	442	422	0	0	0	0	
3	0	0	0	0	443	421	0	0	0	0	
4	0	0	0	0	445	421	0	0	0	0	
5	0	0	0	0	447	422	0	0	0	0	
6	0	0	0	0	449	422	0	0	0	0	
7	0	0	0	0	450	423	0	0	0	0	
8	0	0	0	0	451	423	0	0	0	0	
9	0	0	0	0	451	423	0	0	0	0	
10	0	0	0	0	451	424	0	0	0	0	
11	0	0	0	0	450	425	0	0	0	0	
12	0	0	0	0	450	427	0	0	0	0	
13	0	0	0	0	450	428	0	0	0	0	
14	0	0	0	0	450	430	0	0	0	0	
15	0	0	0	0	451	432	0	0	0	0	
0	0	0	0	0	452	434	0	0	0	0	
1	0	0	0	0	452	434	0	0	0	0	
2	0	0	0	0	453	435	0	0	0	0	
3	0	0	0	0	454	434	0	0	0	0	
4	0	0	0	0	455	433	0	0	0	0	
5	0	0	0	0	456	432	0	0	0	0	
6	0	0	0	0	456	432	0	0	0	0	
7	0	0	0	0	459	432	0	0	0	0	
8	0	0	0	0	460	432	0	0	0	0	
9	0	0	0	0	463	434	0	0	0	0	
10	0	0	0	0	465	435	0	0	0	0	
11	0	0	0	0	465	436	0	0	0	0	
12	0	0	0	0	466	436	0	0	0	0	
13	0	0	0	0	464	435	0	0	0	0	
14	0	0	0	0	460	432	0	0	0	0	
15	0	0	0	0	455	429	0	0	0	0	
0	0	0	0	0	450	425	0	0	0	0	
1	0	0	0	0	444	422	0	0	0	0	
2	0	0	0	0	439	419	0	0	0	0	
3	0	0	0	0	435	416	0	0	0	0	
4	0	0	0	0	432	414	0	0	0	0	
5	0	0	0	0	430	413	0	0	0	0	
6	0	0	0	0	430	413	0	0	0	0	
7	0	0	0	0	433	415	0	0	0	0	
8	0	0	0	0	438	418	0	0	0	0	
9	0	0	0	0	443	422	0	0	0	0	
10	0	0	0	0	448	425	0	0	0	0	
11	0	0	0	0	454	430	0	0	0	0	
12	0	0	0	0	460	433	0	0	0	0	
13	0	0	0	0	464	437	0	0	0	0	
14	0	0	0	0	467	440	0	0	0	0	
15	0	0	0	0	468	442	0	0	0	0	
0	0	0	0	0	469	444	0	0	0	0	
1	0	0	0	0	468	444	0	0	0	0	
2	0	0	0	0	467	445	0	0	0	0	
3	0	0	0	0	464	445	0	0	0	0	
4	0	0	0	0	462	445	0	0	0	0	
5	0	0	0	0	460	445	0	0	0	0	
6	0	0	0	0	460	446	0	0	0	0	
7	0	0	0	0	460	445	0	0	0	0	
8	0	0	0	0	459	444	0	0	0	0	
9	0	0	0	0	458	442	0	0	0	0	
10	0	0	0	0	457	439	0	0	0	0	
11	0	0	0	0	455	434	0	0	0	0	
12	0	0	0	0	450	428	0	0	0	0	
13	0	0	0	0	446	422	0	0	0	0	
14	0	0	0	0	439	415	0	0	0	0	
15	0	0	0	0	433	408	0	0	0	0	
0	0	0	0	0	428	403	0	0	0	0	
1	0	0	0	0	424	400	0	0	0	0	
2	0	0	0	0	422	399	0	0	0	0	
3	0	0	0	0	421	400	0	0	0	0	
4	0	0	0	0	422	404	0	0	0	0	
5	0	0	0	0	426	409	0	0	0	0	
6	0	0	0	0	431	415	0	0	0	0	
7	0	0	0	0	438	422	0	0	0	0	
8	0	0	0	0	445	430	0	0	0	0	
9	0	0	0	0	452	438	0	0	0	0	
10	0	0	0	0	460	444	0	0	0	0	
11	0	0	0	0	467	449	0	0	0	0	
12	0	0	0	0	472	451	0	0	0	0	
13	0	0	0	0	474	451	0	0	0	0	
14	0	0	0	0	473	449	0	0	0	0	
15	0	0	0	0	472	444	0	0	0	0	
0	0	0	0	0	468	439	0	0	0	0	
1	0	0	0	0	463	432	0	0	0	0	
2	0	0	0	0	459	426	0	0	0	0	
3	0	0	0	0	455	422	0	0	0	0	
4	0	0	0	0	454	419	0	0	0	0	
5	0	0	0	0	452	418	0	0	0	0	
6	0	0	0	0	452	418	0	0	0	0	
7	0	0	0	0	452	419	0	0	0	0	
8	0	0	0	0	452	420	0	0	0	0	
9	0	0	0	0	452	422	0	0	0	0	
10	0	0	0	0	451	424	0	0	0	0	
11	0	0	0	0	449	425	0	0	0	0	
12	0	0	0	0	447	426	0	0	0	0	
13	0	0	0	0	444	425	0	0	0	0	
14	0	0	0	0	441	424	0	0	0	0	
15	0	0	0	0	436	421	0	0	0	0	
0	0	0	0	0	432	416	0	0	0	0	
1	0	0	0	0	427	411	0	0	0	0	
2	0	0	0	0	422	405	0	0	0	0	
3	0	0	0	0	417	398	0	0	0	0	
4	0	0	0	0	412	391	0	0	0	0	
5	0	0	0	0	408	385	0	0	0	0	
6	0	0	0	0	405	379	0	0	0	0	
7	0	0	0	0	402	375	0	0	0	0	
8	0	0	0	0	402	373	0	0	0	0	
9	0	0	0	0	403	372	0	0	0	0	
10	0	0	0	0	406	374	0	0	0	0	
11	0	0	0	0	410	377	0	0	0	0	
12	0	0	0	0	414	382	0	0	0	0	
13	0	0	0	0	420	388	0	0	0	0	
14	0	0	0	0	427	394	0	0	0	0	
15	0	0	0	0	432	401	0	0	0	0	
0	0	0	0	0	438	408	0	0	0	0	
1	0	0	0	0	443	413	0	0	0	0	
2	0	0	0	0	448	418	0	0	0	0	
3	0	0	0	0	450	420	0	0	0	0	
4	0	0	0	0	450	421	0	0	0	0	
5	0	0	0	0	449	419	0	0	0	0	
6	0	0	0	0	446	417	0	0	0	0	
7	0	0	0	0	443	413	0	0	0	0	
8	0	0	0	0	439	409	0	0	0	0	
9	0	0	0	0	435	406	0	0	0	0	
10	0	0	0	0	432	403	0	0	0	0	
11	0	0	0	0	432	402	0	0	0	0	
12	0	0	0	0	434	404	0	0	0	0	
13	0	0	0	0	437	407	0	0	0	0	
14	0	0	0	0	444	413	0	0	0	0	
15	0	0	0	0	451	420	0	0	0	0	
0	0	0	0	0	460	429	0	0	0	0	
1	0	0	0	0	470	439	0	0	0	0	
2	0	0	0	0	478	447	0	0	0	0	
3	0	0	0	0	484	454	0	0	0	0	
4	0	0	0	0	487	457	0	0	0	0	
5	0	0	0	0	487	459	0	0	0	0	
6	0	0	0	0	486	457	0	0	0	0	
7	0	0	0	0	481	454	0	0	0	0	
8	0	0	0	0	476	449	0	0	0	0	
9	0	0	0	0	469	443	0	0	0	0	
10	0	0	0	0	463	438	0	0	0	0	
11	0	0	0	0	457	432	0	0	0	0	
12	0	0	0	0	451	426	0	0	0	0	
13	0	0	0	0	447	421	0	0	0	0	
14	0	0	0	0	443	417	0	0	0	0	
15	0	0	0	0	441	415	0	0	0	0	
0	0	0	0	0	441	413	0	0	0	0	
1	0	0	0	0	441	412	0	0	0	0	
2	0	0	0	0	440	411	0	0	0	0	
3	0	0	0	0	440	410	0	0	0	0	
4	0	0	0	0	438	409	0	0	0	0	
5	0	0	0	0	438	408	0	0	0	0	
6	0	0	0	0	436	408	0	0	0	0	
7	0	0	0	0	435	408	0	0	0	0	
8	0	0	0	0	433	408	0	0	0	0	
9	0	0	0	0	432	408	0	0	0	0	
10	0	0	0	0	432	409	0	0	0	0	
11	0	0	0	0	433	411	0	0	0	0	
12	0	0	0	0	435	413	0	0	0	0	
13	0	0	0	0	439	416	0	0	0	0	
14	0	0	0	0	444	420	0	0	0	0	
15	0	0	0	0	451	425	0	0	0	0	
0	0	0	0	0	460	432	0	0	0	0	
1	0	0	0	0	471	439	0	0	0	0	
2	0	0	0	0	482	448	0	0	0	0	
3	0	0	0	0	493	456	0	0	0	0	
4	0	0	0	0	503	463	0	0	0	0	
5	0	0	0	0	510	467	0	0	0	0	
6	0	0	0	0	512	468	0	0	0	0	
7	0	0	0	0	511	467	0	0	0	0	
8	0	0	0	0	506	462	0	0	0	0	
9	0	0	0	0	497	456	0	0	0	0	
10	0	0	0	0	487	448	0	0	0	0	
11	0	0	0	0	474	440	0	0	0	0	
12	0	0	0	0	461	432	0	0	0	0	
13	0	0	0	0	449	423	0	0	0	0	
14	0	0	0	0	438	416	0	0	0	0	
15	0	0	0	0	428	409	0	0	0	0	
0	0	0	0	0	419	403	0	0	0	0	
1	0	0	0	0	413	398	0	0	0	0	
2	0	0	0	0	409	393	0	0	0	0	
3	0	0	0	0	408	391	0	0	0	0	
4	0	0	0	0	409	390	0	0	0	0	
5	0	0	0	0	413	390	0	0	0	0	
6	0	0	0	0	417	391	0	0	0	0	
7	0	0	0	0	422	392	0	0	0	0	
8	0	0	0	0	427	394	0	0	0	0	
9	0	0	0	0	431	396	0	0	0	0	
10	0	0	0	0	434	397	0	0	0	0	
11	0	0	0	0	436	399	0	0	0	0	
12	0	0	0	0	438	401	0	0	0	0	
13	0	0	0	0	440	404	0	0	0	0	
14	0	0	0	0	441	408	0	0	0	0	
15	0	0	0	0	444	412	0	0	0	0	
0	0	0	0	0	447	417	0	0	0	0	
1	0	0	0	0	451	424	0	0	0	0	
2	0	0	0	0	457	432	0	0	0	0	
3	0	0	0	0	464	440	0	0	0	0	
4	0	0	0	0	471	448	0	0	0	0	
5	0	0	0	0	478	455	0	0	0	0	
6	0	0	0	0	484	461	0	0	0	0	
7	0	0	0	0	489	464	0	0	0	0	
8	0	0	0	0	492	465	0	0	0	0	
9	0	0	0	0	492	464	0	0	0	0	
10	0	0	0	0	491	461	0	0	0	0	
11	0	0	0	0	487	456	0	0	0	0	
12	0	0	0	0	482	451	0	0	0	0	
13	0	0	0	0	478	445	0	0	0	0	
14	0	0	0	0	473	440	0	0	0	0	
15	0	0	0	0	471	438	0	0	0	0	
0	0	0	0	0	469	437	0	0	0	0	
1	0	0	0	0	469	438	0	0	0	0	
2	0	0	0	0	470	440	0	0	0	0	
3	0	0	0	0	472	444	0	0	0	0	
4	0	0	0	0	474	447	0	0	0	0	
5	0	0	0	0	476	449	0	0	0	0	
6	0	0	0	0	476	451	0	0	0	0	
7	0	0	0	0	476	451	0	0	0	0	
8	0	0	0	0	473	449	0	0	0	0	
9	0	0	0	0	469	444	0	0	0	0	
10	0	0	0	0	462	438	0	0	0	0	
11	0	0	0	0	456	431	0	0	0	0	
12	0	0	0	0	449	423	0	0	0	0	
13	0	0	0	0	442	415	0	0	0	0	
14	0	0	0	0	435	409	0	0	0	0	
15	0	0	0	0	431	403	0	0	0	0	
0	0	0	0	0	428	399	0	0	0	0	
1	0	0	0	0	426	397	0	0	0	0	
2	0	0	0	0	425	396	0	0	0	0	
3	0	0	0	0	426	396	0	0	0	0	
4	0	0	0	0	429	398	0	0	0	0	
5	0	0	0	0	433	401	0	0	0	0	
6	0	0	0	0	438	406	0	0	0	0	
7	0	0	0	0	443	411	0	0	0	0	
8	0	0	0	0	449	416	0	0	0	0	
9	0	0	0	0	455	423	0	0	0	0	
10	0	0	0	0	462	429	0	0	0	0	
11	0	0	0	0	468	435	0	0	0	0	
12	0	0	0	0	473	440	0	0	0	0	
13	0	0	0	0	478	445	0	0	0	0	
14	0	0	0	0	481	449	0	0	0	0	
15	0	0	0	0	484	451	0	0	0	0	
0	0	0	0	0	486	453	0	0	0	0	
1	0	0	0	0	485	452	0	0	0	0	
2	0	0	0	0	482	451	0	0	0	0	
3	0	0	0	0	480	449	0	0	0	0	
4	0	0	0	0	476	446	0	0	0	0	
5	0	0	0	0	473	444	0	0	0	0	
6	0	0	0	0	470	441	0	0	0	0	
7	0	0	0	0	468	441	0	0	0	0	
8	0	0	0	0	467	442	0	0	0	0	
9	0	0	0	0	469	444	0	0	0	0	
10	0	0	0	0	472	448	0	0	0	0	
11	0	0	0	0	475	451	0	0	0	0	
12	0	0	0	0	477	455	0	0	0	0	
13	0	0	0	0	478	457	0	0	0	0	
14	0	0	0	0	479	457	0	0	0	0	
15	0	0	0	0	477	456	0	0	0	0	
0	0	0	0	0	475	455	0	0	0	0	
1	0	0	0	0	472	452	0	0	0	0	
2	0	0	0	0	470	451	0	0	0	0	
3	0	0	0	0	471	451	0	0	0	0	
4	0	0	0	0	474	453	0	0	0	0	
5	0	0	0	0	479	456	0	0	0	0	
6	0	0	0	0	486	460	0	0	0	0	
7	0	0	0	0	492	464	0	0	0	0	
8	0	0	0	0	499	468	0	0	0	0	
9	0	0	0	0	504	470	0	0	0	0	
10	0	0	0	0	507	471	0	0	0	0	
11	0	0	0	0	507	470	0	0	0	0	
12	0	0	0	0	503	466	0	0	0	0	
13	0	0	0	0	498	462	0	0	0	0	
14	0	0	0	0	489	455	0	0	0	0	
15	0	0	0	0	479	448	0	0	0	0	
0	0	0	0	0	467	440	0	0	0	0	
1	0	0	0	0	455	433	0	0	0	0	
2	0	0	0	0	444	427	0	0	0	0	
3	0	0	0	0	435	420	0	0	0	0	
4	0	0	0	0	426	415	0	0	0	0	
5	0	0	0	0	419	410	0	0	0	0	
6	0	0	0	0	415	406	0	0	0	0	
7	0	0	0	0	413	403	0	0	0	0	
8	0	0	0	0	413	400	0	0	0	0	
9	0	0	0	0	415	398	0	0	0	0	
10	0	0	0	0	418	397	0	0	0	0	
11	0	0	0	0	422	397	0	0	0	0	
12	0	0	0	0	428	398	0	0	0	0	
13	0	0	0	0	433	400	0	0	0	0	
14	0	0	0	0	438	403	0	0	0	0	
15	0	0	0	0	442	406	0	0	0	0	
0	0	0	0	0	446	409	0	0	0	0	
1	0	0	0	0	449	413	0	0	0	0	
2	0	0	0	0	451	417	0	0	0	0	
3	0	0	0	0	454	421	0	0	0	0	
4	0	0	0	0	454	424	0	0	0	0	
5	0	0	0	0	455	427	0	0	0	0	
6	0	0	0	0	454	429	0	0	0	0	
7	0	0	0	0	453	430	0	0	0	0	
8	0	0	0	0	451	429	0	0	0	0	
9	0	0	0	0	449	427	0	0	0	0	
10	0	0	0	0	448	425	0	0	0	0	
11	0	0	0	0	446	423	0	0	0	0	
12	0	0	0	0	444	420	0	0	0	0	
13	0	0	0	0	443	417	0	0	0	0	
14	0	0	0	0	442	415	0	0	0	0	
15	0	0	0	0	443	413	0	0	0	0	
0	0	0	0	0	444	413	0	0	0	0	
1	0	0	0	0	446	414	0	0	0	0	
2	0	0	0	0	449	416	0	0	0	0	
3	0	0	0	0	453	421	0	0	0	0	
4	0	0	0	0	459	428	0	0	0	0	
5	0	0	0	0	466	435	0	0	0	0	
6	0	0	0	0	475	445	0	0	0	0	
7	0	0	0	0	484	455	0	0	0	0	
8	0	0	0	0	495	467	0	0	0	0	
9	0	0	0	0	507	480	0	0	0	0	
10	0	0	0	0	519	492	0	0	0	0	
11	0	0	0	0	529	503	0	0	0	0	
12	0	0	0	0	538	510	0	0	0	0	
13	0	0	0	0	543	514	0	0	0	0	
14	0	0	0	0	544	514	0	0	0	0	
15	0	0	0	0	540	509	0	0	0	0	
0	0	0	0	0	531	499	0	0	0	0	
1	0	0	0	0	517	484	0	0	0	0	
2	0	0	0	0	499	467	0	0	0	0	
3	0	0	0	0	480	449	0	0	0	0	
4	0	0	0	0	459	430	0	0	0	0	
5	0	0	0	0	439	412	0	0	0	0	
6	0	0	0	0	421	398	0	0	0	0	
7	0	0	0	0	408	387	0	0	0	0	
8	0	0	0	0	399	381	0	0	0	0	
9	0	0	0	0	397	381	0	0	0	0	
10	0	0	0	0	401	386	0	0	0	0	
11	0	0	0	0	411	396	0	0	0	0	
12	0	0	0	0	425	409	0	0	0	0	
13	0	0	0	0	443	424	0	0	0	0	
14	0	0	0	0	460	439	0	0	0	0	
15	0	0	0	0	475	450	0	0	0	0	
0	0	0	0	0	487	459	0	0	0	0	
1	0	0	0	0	494	463	0	0	0	0	
2	0	0	0	0	496	463	0	0	0	0	
3	0	0	0	0	493	460	0	0	0	0	
4	0	0	0	0	486	453	0	0	0	0	
5	0	0	0	0	477	446	0	0	0	0	
6	0	0	0	0	467	438	0	0	0	0	
7	0	0	0	0	457	431	0	0	0	0	
8	0	0	0	0	449	426	0	0	0	0	
9	0	0	0	0	444	424	0	0	0	0	
10	0	0	0	0	442	425	0	0	0	0	
11	0	0	0	0	444	429	0	0	0	0	
12	0	0	0	0	449	435	0	0	0	0	
13	0	0	0	0	456	442	0	0	0	0	
14	0	0	0	0	464	450	0	0	0	0	
15	0	0	0	0	473	457	0	0	0	0	
0	0	0	0	0	481	464	0	0	0	0	
1	0	0	0	0	487	468	0	0	0	0	
2	0	0	0	0	491	470	0	0	0	0	
3	0	0	0	0	492	468	0	0	0	0	
4	0	0	0	0	489	464	0	0	0	0	
5	0	0	0	0	484	458	0	0	0	0	
6	0	0	0	0	477	450	0	0	0	0	
7	0	0	0	0	471	442	0	0	0	0	
8	0	0	0	0	464	435	0	0	0	0	
9	0	0	0	0	458	428	0	0	0	0	
10	0	0	0	0	453	423	0	0	0	0	
11	0	0	0	0	451	420	0	0	0	0	
12	0	0	0	0	449	419	0	0	0	0	
13	0	0	0	0	450	420	0	0	0	0	
14	0	0	0	0	451	422	0	0	0	0	
15	0	0	0	0	453	424	0	0	0	0	
0	0	0	0	0	455	428	0	0	0	0	
1	0	0	0	0	456	431	0	0	0	0	
2	0	0	0	0	457	433	0	0	0	0	
3	0	0	0	0	456	435	0	0	0	0	
4	0	0	0	0	455	435	0	0	0	0	
5	0	0	0	0	451	434	0	0	0	0	
6	0	0	0	0	448	432	0	0	0	0	
7	0	0	0	0	446	430	0	0	0	0	
8	0	0	0	0	444	428	0	0	0	0	
9	0	0	0	0	443	427	0	0	0	0	
10	0	0	0	0	445	426	0	0	0	0	
11	0	0	0	0	449	428	0	0	0	0	
12	0	0	0	0	455	431	0	0	0	0	
13	0	0	0	0	464	437	0	0	0	0	
14	0	0	0	0	475	444	0	0	0	0	
15	0	0	0	0	487	452	0	0	0	0	
0	0	0	0	0	498	461	0	0	0	0	
1	0	0	0	0	508	468	0	0	0	0	
2	0	0	0	0	515	475	0	0	0	0	
3	0	0	0	0	519	478	0	0	0	0	
4	0	0	0	0	518	479	0	0	0	0	
5	0	0	0	0	514	477	0	0	0	0	
6	0	0	0	0	507	473	0	0	0	0	
7	0	0	0	0	497	467	0	0	0	0	
8	0	0	0	0	487	461	0	0	0	0	
9	0	0	0	0	477	455	0	0	0	0	
10	0	0	0	0	469	450	0	0	0	0	
11	0	0	0	0	463	446	0	0	0	0	
12	0	0	0	0	460	443	0	0	0	0	
13	0	0	0	0	459	441	0	0	0	0	
14	0	0	0	0	458	440	0	0	0	0	
15	0	0	0	0	459	438	0	0	0	0	
0	0	0	0	0	460	436	0	0	0	0	
1	0	0	0	0	460	433	0	0	0	0	
2	0	0	0	0	460	430	0	0	0	0	
3	0	0	0	0	459	428	0	0	0	0	
4	0	0	0	0	458	425	0	0	0	0	
5	0	0	0	0	456	423	0	0	0	0	
6	0	0	0	0	453	420	0	0	0	0	
7	0	0	0	0	450	418	0	0	0	0	
8	0	0	0	0	448	417	0	0	0	0	
9	0	0	0	0	446	417	0	0	0	0	
10	0	0	0	0	446	419	0	0	0	0	
11	0	0	0	0	447	423	0	0	0	0	
12	0	0	0	0	451	428	0	0	0	0	
13	0	0	0	0	456	435	0	0	0	0	
14	0	0	0	0	464	444	0	0	0	0	
15	0	0	0	0	474	454	0	0	0	0	
0	0	0	0	0	485	464	0	0	0	0	
1	0	0	0	0	496	474	0	0	0	0	
2	0	0	0	0	508	483	0	0	0	0	
3	0	0	0	0	518	491	0	0	0	0	
4	0	0	0	0	524	495	0	0	0	0	
5	0	0	0	0	526	494	0	0	0	0	
6	0	0	0	0	522	489	0	0	0	0	
7	0	0	0	0	514	480	0	0	0	0	
8	0	0	0	0	502	469	0	0	0	0	
9	0	0	0	0	488	457	0	0	0	0	
10	0	0	0	0	474	446	0	0	0	0	
11	0	0	0	0	460	437	0	0	0	0	
12	0	0	0	0	450	431	0	0	0	0	
13	0	0	0	0	445	429	0	0	0	0	
14	0	0	0	0	444	431	0	0	0	0	
15	0	0	0	0	447	435	0	0	0	0	
0	0	0	0	0	452	441	0	0	0	0	
1	0	0	0	0	459	447	0	0	0	0	
2	0	0	0	0	467	452	0	0	0	0	
3	0	0	0	0	473	455	0	0	0	0	
4	0	0	0	0	479	457	0	0	0	0	
5	0	0	0	0	484	457	0	0	0	0	
6	0	0	0	0	486	457	0	0	0	0	
7	0	0	0	0	488	455	0	0	0	0	
8	0	0	0	0	489	454	0	0	0	0	
9	0	0	0	0	488	451	0	0	0	0	
10	0	0	0	0	487	449	0	0	0	0	
11	0	0	0	0	484	446	0	0	0	0	
12	0	0	0	0	481	444	0	0	0	0	
13	0	0	0	0	478	443	0	0	0	0	
14	0	0	0	0	475	444	0	0	0	0	
15	0	0	0	0	474	446	0	0	0	0	
0	0	0	0	0	474	450	0	0	0	0	
1	0	0	0	0	476	455	0	0	0	0	
2	0	0	0	0	480	462	0	0	0	0	
3	0	0	0	0	485	470	0	0	0	0	
4	0	0	0	0	491	477	0	0	0	0	
5	0	0	0	0	497	483	0	0	0	0	
6	0	0	0	0	503	488	0	0	0	0	
7	0	0	0	0	508	491	0	0	0	0	
8	0	0	0	0	510	491	0	0	0	0	
9	0	0	0	0	508	488	0	0	0	0	
10	0	0	0	0	503	480	0	0	0	0	
11	0	0	0	0	495	470	0	0	0	0	
12	0	0	0	0	482	455	0	0	0	0	
13	0	0	0	0	467	440	0	0	0	0	
14	0	0	0	0	451	423	0	0	0	0	
15	0	0	0	0	434	408	0	0	0	0	
0	0	0	0	0	420	396	0	0	0	0	
1	0	0	0	0	409	386	0	0	0	0	
2	0	0	0	0	402	380	0	0	0	0	
3	0	0	0	0	398	377	0	0	0	0	
4	0	0	0	0	398	378	0	0	0	0	
5	0	0	0	0	403	383	0	0	0	0	
6	0	0	0	0	411	390	0	0	0	0	
7	0	0	0	0	422	400	0	0	0	0	
8	0	0	0	0	433	411	0	0	0	0	
9	0	0	0	0	445	421	0	0	0	0	
10	0	0	0	0	458	432	0	0	0	0	
11	0	0	0	0	470	441	0	0	0	0	
12	0	0	0	0	479	449	0	0	0	0	
13	0	0	0	0	486	455	0	0	0	0	
14	0	0	0	0	492	459	0	0	0	0	
15	0	0	0	0	494	461	0	0	0	0	
0	0	0	0	0	495	461	0	0	0	0	
1	0	0	0	0	494	460	0	0	0	0	
2	0	0	0	0	492	458	0	0	0	0	
3	0	0	0	0	488	455	0	0	0	0	
4	0	0	0	0	485	454	0	0	0	0	
5	0	0	0	0	481	451	0	0	0	0	
6	0	0	0	0	477	449	0	0	0	0	
7	0	0	0	0	473	447	0	0	0	0	
8	0	0	0	0	470	445	0	0	0	0	
9	0	0	0	0	468	444	0	0	0	0	
10	0	0	0	0	465	444	0	0	0	0	
11	0	0	0	0	464	444	0	0	0	0	
12	0	0	0	0	464	444	0	0	0	0	
13	0	0	0	0	463	445	0	0	0	0	
14	0	0	0	0	464	445	0	0	0	0	
15	0	0	0	0	466	445	0	0	0	0	
0	0	0	0	0	467	446	0	0	0	0	
1	0	0	0	0	470	446	0	0	0	0	
2	0	0	0	0	473	447	0	0	0	0	
3	0	0	0	0	478	449	0	0	0	0	
4	0	0	0	0	483	452	0	0	0	0	
5	0	0	0	0	489	456	0	0	0	0	
6	0	0	0	0	495	461	0	0	0	0	
7	0	0	0	0	501	467	0	0	0	0	
8	0	0	0	0	507	473	0	0	0	0	
9	0	0	0	0	511	478	0	0	0	0	
10	0	0	0	0	513	481	0	0	0	0	
11	0	0	0	0	512	484	0	0	0	0	
12	0	0	0	0	511	486	0	0	0	0	
13	0	0	0	0	510	487	0	0	0	0	
14	0	0	0	0	509	489	0	0	0	0	
15	0	0	0	0	508	492	0	0	0	0	
0	0	0	0	0	508	494	0	0	0	0	
1	0	0	0	0	510	497	0	0	0	0	
2	0	0	0	0	511	499	0	0	0	0	
3	0	0	0	0	513	500	0	0	0	0	
4	0	0	0	0	514	500	0	0	0	0	
5	0	0	0	0	513	498	0	0	0	0	
6	0	0	0	0	509	492	0	0	0	0	
7	0	0	0	0	503	483	0	0	0	0	
8	0	0	0	0	494	472	0	0	0	0	
9	0	0	0	0	483	459	0	0	0	0	
10	0	0	0	0	468	443	0	0	0	0	
11	0	0	0	0	454	428	0	0	0	0	
12	0	0	0	0	438	413	0	0	0	0	
13	0	0	0	0	424	399	0	0	0	0	
14	0	0	0	0	411	387	0	0	0	0	
15	0	0	0	0	400	378	0	0	0	0	
0	0	0	0	0	391	370	0	0	0	0	
1	0	0	0	0	386	365	0	0	0	0	
2	0	0	0	0	382	361	0	0	0	0	
3	0	0	0	0	380	358	0	0	0	0	
4	0	0	0	0	378	355	0	0	0	0	
5	0	0	0	0	376	352	0	0	0	0	
6	0	0	0	0	374	348	0	0	0	0	
7	0	0	0	0	369	343	0	0	0	0	
8	0	0	0	0	363	335	0	0	0	0	
9	0	0	0	0	352	323	0	0	0	0	
10	0	0	0	0	339	311	0	0	0	0	
11	0	0	0	0	324	295	0	0	0	0	
12	0	0	0	0	307	279	0	0	0	0	
13	0	0	0	0	288	262	0	0	0	0	
14	0	0	0	0	269	244	0	0	0	0	
15	0	0	0	0	250	228	0	0	0	0	
0	0	0	0	0	233	214	0	0	0	0	
1	0	0	0	0	220	204	0	0	0	0	
2	0	0	0	0	211	197	0	0	0	0	
3	0	0	0	0	207	195	0	0	0	0	
4	0	0	0	0	209	198	0	0	0	0	
5	0	0	0	0	219	207	0	0	0	0	
6	0	0	0	0	234	221	0	0	0	0	
7	0	0	0	0	255	239	0	0	0	0	
8	0	0	0	0	280	260	0	0	0	0	
9	0	0	0	0	307	283	0	0	0	0	
10	0	0	0	0	335	305	0	0	0	0	
11	0	0	0	0	364	327	0	0	0	0	
12	0	0	0	0	390	348	0	0	0	0	
13	0	0	0	0	413	367	0	0	0	0	
14	0	0	0	0	433	383	0	0	0	0	
15	0	0	0	0	451	398	0	0	0	0	
0	0	0	0	0	464	410	0	0	0	0	
1	0	0	0	0	475	420	0	0	0	0	
2	0	0	0	0	482	431	0	0	0	0	
3	0	0	0	0	488	439	0	0	0	0	
4	0	0	0	0	493	448	0	0	0	0	
5	0	0	0	0	496	456	0	0	0	0	
6	0	0	0	0	499	463	0	0	0	0	
7	0	0	0	0	501	470	0	0	0	0	
8	0	0	0	0	501	475	0	0	0	0	
9	0	0	0	0	500	478	0	0	0	0	
10	0	0	0	0	497	480	0	0	0	0	
11	0	0	0	0	494	480	0	0	0	0	
12	0	0	0	0	491	479	0	0	0	0	
13	0	0	0	0	487	477	0	0	0	0	
14	0	0	0	0	485	475	0	0	0	0	
15	0	0	0	0	484	474	0	0	0	0	
0	0	0	0	0	484	473	0	0	0	0	
1	0	0	0	0	486	474	0	0	0	0	
2	0	0	0	0	490	476	0	0	0	0	
3	0	0	0	0	495	478	0	0	0	0	
4	0	0	0	0	499	479	0	0	0	0	
5	0	0	0	0	501	480	0	0	0	0	
6	0	0	0	0	503	480	0	0	0	0	
7	0	0	0	0	504	481	0	0	0	0	
8	0	0	0	0	505	483	0	0	0	0	
9	0	0	0	0	505	483	0	0	0	0	
10	0	0	0	0	505	482	0	0	0	0	
11	0	0	0	0	502	480	0	0	0	0	
12	0	0	0	0	497	477	0	0	0	0	
13	0	0	0	0	492	472	0	0	0	0	
14	0	0	0	0	486	467	0	0	0	0	
15	0	0	0	0	480	462	0	0	0	0	
0	0	0	0	0	473	458	0	0	0	0	
1	0	0	0	0	470	455	0	0	0	0	
2	0	0	0	0	468	454	0	0	0	0	
3	0	0	0	0	467	454	0	0	0	0	
4	0	0	0	0	468	454	0	0	0	0	
5	0	0	0	0	470	455	0	0	0	0	
6	0	0	0	0	473	456	0	0	0	0	
7	0	0	0	0	477	458	0	0	0	0	
8	0	0	0	0	480	460	0	0	0	0	
9	0	0	0	0	483	461	0	0	0	0	
10	0	0	0	0	486	462	0	0	0	0	
11	0	0	0	0	487	462	0	0	0	0	
12	0	0	0	0	487	460	0	0	0	0	
13	0	0	0	0	486	459	0	0	0	0	
14	0	0	0	0	484	457	0	0	0	0	
15	0	0	0	0	481	455	0	0	0	0	
0	0	0	0	0	478	455	0	0	0	0	
1	0	0	0	0	476	454	0	0	0	0	
2	0	0	0	0	473	453	0	0	0	0	
3	0	0	0	0	472	455	0	0	0	0	
4	0	0	0	0	473	457	0	0	0	0	
5	0	0	0	0	475	461	0	0	0	0	
6	0	0	0	0	480	466	0	0	0	0	
7	0	0	0	0	485	471	0	0	0	0	
8	0	0	0	0	492	476	0	0	0	0	
9	0	0	0	0	498	482	0	0	0	0	
10	0	0	0	0	506	487	0	0	0	0	
11	0	0	0	0	513	491	0	0	0	0	
12	0	0	0	0	519	494	0	0	0	0	
13	0	0	0	0	522	496	0	0	0	0	
14	0	0	0	0	523	495	0	0	0	0	
15	0	0	0	0	520	492	0	0	0	0	
0	0	0	0	0	515	487	0	0	0	0	
1	0	0	0	0	509	481	0	0	0	0	
2	0	0	0	0	500	476	0	0	0	0	
3	0	0	0	0	492	469	0	0	0	0	
4	0	0	0	0	483	463	0	0	0	0	
5	0	0	0	0	477	460	0	0	0	0	
6	0	0	0	0	472	457	0	0	0	0	
7	0	0	0	0	468	455	0	0	0	0	
8	0	0	0	0	467	455	0	0	0	0	
9	0	0	0	0	467	456	0	0	0	0	
10	0	0	0	0	470	459	0	0	0	0	
11	0	0	0	0	473	460	0	0	0	0	
12	0	0	0	0	476	462	0	0	0	0	
13	0	0	0	0	480	463	0	0	0	0	
14	0	0	0	0	483	464	0	0	0	0	
15	0	0	0	0	487	464	0	0	0	0	
0	0	0	0	0	491	465	0	0	0	0	
1	0	0	0	0	494	465	0	0	0	0	
2	0	0	0	0	496	466	0	0	0	0	
3	0	0	0	0	499	467	0	0	0	0	
4	0	0	0	0	502	469	0	0	0	0	
5	0	0	0	0	504	471	0	0	0	0	
6	0	0	0	0	505	472	0	0	0	0	
7	0	0	0	0	504	473	0	0	0	0	
8	0	0	0	0	502	472	0	0	0	0	
9	0	0	0	0	498	471	0	0	0	0	
10	0	0	0	0	492	470	0	0	0	0	
11	0	0	0	0	487	468	0	0	0	0	
12	0	0	0	0	481	465	0	0	0	0	
13	0	0	0	0	476	463	0	0	0	0	
14	0	0	0	0	472	462	0	0	0	0	
15	0	0	0	0	468	459	0	0	0	0	
0	0	0	0	0	464	455	0	0	0	0	
1	0	0	0	0	461	451	0	0	0	0	
2	0	0	0	0	457	446	0	0	0	0	
3	0	0	0	0	454	440	0	0	0	0	
4	0	0	0	0	451	435	0	0	0	0	
5	0	0	0	0	449	430	0	0	0	0	
6	0	0	0	0	448	427	0	0	0	0	
7	0	0	0	0	451	426	0	0	0	0	
8	0	0	0	0	455	428	0	0	0	0	
9	0	0	0	0	463	434	0	0	0	0	
10	0	0	0	0	473	443	0	0	0	0	
11	0	0	0	0	486	454	0	0	0	0	
12	0	0	0	0	501	467	0	0	0	0	
13	0	0	0	0	515	479	0	0	0	0	
14	0	0	0	0	526	490	0	0	0	0	
15	0	0	0	0	534	497	0	0	0	0	
0	0	0	0	0	535	500	0	0	0	0	
1	0	0	0	0	532	498	0	0	0	0	
2	0	0	0	0	524	492	0	0	0	0	
3	0	0	0	0	512	483	0	0	0	0	
4	0	0	0	0	497	472	0	0	0	0	
5	0	0	0	0	481	459	0	0	0	0	
6	0	0	0	0	466	447	0	0	0	0	
7	0	0	0	0	453	435	0	0	0	0	
8	0	0	0	0	442	426	0	0	0	0	
9	0	0	0	0	436	420	0	0	0	0	
10	0	0	0	0	433	416	0	0	0	0	
11	0	0	0	0	434	416	0	0	0	0	
12	0	0	0	0	439	418	0	0	0	0	
13	0	0	0	0	446	422	0	0	0	0	
14	0	0	0	0	454	427	0	0	0	0	
15	0	0	0	0	462	433	0	0	0	0	
0	0	0	0	0	471	440	0	0	0	0	
1	0	0	0	0	478	446	0	0	0	0	
2	0	0	0	0	484	452	0	0	0	0	
3	0	0	0	0	488	456	0	0	0	0	
4	0	0	0	0	489	460	0	0	0	0	
5	0	0	0	0	490	462	0	0	0	0	
6	0	0	0	0	488	463	0	0	0	0	
7	0	0	0	0	486	464	0	0	0	0	
8	0	0	0	0	482	463	0	0	0	0	
9	0	0	0	0	478	462	0	0	0	0	
10	0	0	0	0	474	460	0	0	0	0	
11	0	0	0	0	470	456	0	0	0	0	
12	0	0	0	0	466	453	0	0	0	0	
13	0	0	0	0	463	449	0	0	0	0	
14	0	0	0	0	460	445	0	0	0	0	
15	0	0	0	0	457	441	0	0	0	0	
0	0	0	0	0	455	437	0	0	0	0	
1	0	0	0	0	454	434	0	0	0	0	
2	0	0	0	0	454	433	0	0	0	0	
3	0	0	0	0	455	433	0	0	0	0	
4	0	0	0	0	459	435	0	0	0	0	
5	0	0	0	0	464	440	0	0	0	0	
6	0	0	0	0	471	447	0	0	0	0	
7	0	0	0	0	480	455	0	0	0	0	
8	0	0	0	0	489	464	0	0	0	0	
9	0	0	0	0	500	475	0	0	0	0	
10	0	0	0	0	510	484	0	0	0	0	
11	0	0	0	0	519	492	0	0	0	0	
12	0	0	0	0	525	498	0	0	0	0	
13	0	0	0	0	527	500	0	0	0	0	
14	0	0	0	0	527	498	0	0	0	0	
15	0	0	0	0	520	492	0	0	0	0	
0	0	0	0	0	511	482	0	0	0	0	
1	0	0	0	0	499	470	0	0	0	0	
2	0	0	0	0	484	457	0	0	0	0	
3	0	0	0	0	470	446	0	0	0	0	
4	0	0	0	0	458	436	0	0	0	0	
5	0	0	0	0	449	428	0	0	0	0	
6	0	0	0	0	443	424	0	0	0	0	
7	0	0	0	0	440	423	0	0	0	0	
8	0	0	0	0	439	423	0	0	0	0	
9	0	0	0	0	441	426	0	0	0	0	
10	0	0	0	0	443	428	0	0	0	0	
11	0	0	0	0	446	431	0	0	0	0	
12	0	0	0	0	449	432	0	0	0	0	
13	0	0	0	0	451	433	0	0	0	0	
14	0	0	0	0	453	433	0	0	0	0	
15	0	0	0	0	454	433	0	0	0	0	
0	0	0	0	0	455	432	0	0	0	0	
1	0	0	0	0	455	430	0	0	0	0	
2	0	0	0	0	455	427	0	0	0	0	
3	0	0	0	0	454	424	0	0	0	0	
4	0	0	0	0	452	422	0	0	0	0	
5	0	0	0	0	450	419	0	0	0	0	
6	0	0	0	0	448	416	0	0	0	0	
7	0	0	0	0	445	414	0	0	0	0	
8	0	0	0	0	442	411	0	0	0	0	
9	0	0	0	0	439	409	0	0	0	0	
10	0	0	0	0	437	408	0	0	0	0	
11	0	0	0	0	435	407	0	0	0	0	
12	0	0	0	0	433	407	0	0	0	0	
13	0	0	0	0	432	408	0	0	0	0	
14	0	0	0	0	433	411	0	0	0	0	
15	0	0	0	0	435	415	0	0	0	0	
0	0	0	0	0	440	421	0	0	0	0	
1	0	0	0	0	445	427	0	0	0	0	
2	0	0	0	0	451	434	0	0	0	0	
3	0	0	0	0	458	440	0	0	0	0	
4	0	0	0	0	465	445	0	0	0	0	
5	0	0	0	0	473	450	0	0	0	0	
6	0	0	0	0	479	454	0	0	0	0	
7	0	0	0	0	486	458	0	0	0	0	
8	0	0	0	0	492	462	0	0	0	0	
9	0	0	0	0	499	465	0	0	0	0	
10	0	0	0	0	505	468	0	0	0	0	
11	0	0	0	0	510	471	0	0	0	0	
12	0	0	0	0	514	473	0	0	0	0	
13	0	0	0	0	515	474	0	0	0	0	
14	0	0	0	0	513	473	0	0	0	0	
15	0	0	0	0	507	470	0	0	0	0	
0	0	0	0	0	497	464	0	0	0	0	
1	0	0	0	0	487	457	0	0	0	0	
2	0	0	0	0	473	449	0	0	0	0	
3	0	0	0	0	460	441	0	0	0	0	
4	0	0	0	0	448	434	0	0	0	0	
5	0	0	0	0	436	427	0	0	0	0	
6	0	0	0	0	428	422	0	0	0	0	
7	0	0	0	0	422	418	0	0	0	0	
8	0	0	0	0	418	415	0	0	0	0	
9	0	0	0	0	415	412	0	0	0	0	
10	0	0	0	0	415	411	0	0	0	0	
11	0	0	0	0	417	410	0	0	0	0	
12	0	0	0	0	419	408	0	0	0	0	
13	0	0	0	0	423	407	0	0	0	0	
14	0	0	0	0	427	407	0	0	0	0	
15	0	0	0	0	432	408	0	0	0	0	
0	0	0	0	0	440	411	0	0	0	0	
1	0	0	0	0	448	416	0	0	0	0	
2	0	0	0	0	457	422	0	0	0	0	
3	0	0	0	0	467	429	0	0	0	0	
4	0	0	0	0	475	436	0	0	0	0	
5	0	0	0	0	484	444	0	0	0	0	
6	0	0	0	0	491	452	0	0	0	0	
7	0	0	0	0	497	459	0	0	0	0	
8	0	0	0	0	500	464	0	0	0	0	
9	0	0	0	0	502	468	0	0	0	0	
10	0	0	0	0	502	470	0	0	0	0	
11	0	0	0	0	500	470	0	0	0	0	
12	0	0	0	0	495	467	0	0	0	0	
13	0	0	0	0	489	464	0	0	0	0	
14	0	0	0	0	484	459	0	0	0	0	
15	0	0	0	0	478	454	0	0	0	0	
0	0	0	0	0	472	449	0	0	0	0	
1	0	0	0	0	468	445	0	0	0	0	
2	0	0	0	0	465	441	0	0	0	0	
3	0	0	0	0	462	439	0	0	0	0	
4	0	0	0	0	462	439	0	0	0	0	
5	0	0	0	0	463	439	0	0	0	0	
6	0	0	0	0	465	441	0	0	0	0	
7	0	0	0	0	469	445	0	0	0	0	
8	0	0	0	0	474	450	0	0	0	0	
9	0	0	0	0	480	456	0	0	0	0	
10	0	0	0	0	486	461	0	0	0	0	
11	0	0	0	0	490	465	0	0	0	0	
12	0	0	0	0	492	466	0	0	0	0	
13	0	0	0	0	492	466	0	0	0	0	
14	0	0	0	0	489	464	0	0	0	0	
15	0	0	0	0	486	460	0	0	0	0	
0	0	0	0	0	481	455	0	0	0	0	
1	0	0	0	0	476	451	0	0	0	0	
2	0	0	0	0	472	446	0	0	0	0	
3	0	0	0	0	469	442	0	0	0	0	
4	0	0	0	0	467	440	0	0	0	0	
5	0	0	0	0	467	439	0	0	0	0	
6	0	0	0	0	468	439	0	0	0	0	
7	0	0	0	0	471	440	0	0	0	0	
8	0	0	0	0	475	444	0	0	0	0	
9	0	0	0	0	481	448	0	0	0	0	
10	0	0	0	0	488	455	0	0	0	0	
11	0	0	0	0	496	463	0	0	0	0	
12	0	0	0	0	504	472	0	0	0	0	
13	0	0	0	0	512	479	0	0	0	0	
14	0	0	0	0	518	485	0	0	0	0	
15	0	0	0	0	522	490	0	0	0	0	
0	0	0	0	0	524	493	0	0	0	0	
1	0	0	0	0	524	494	0	0	0	0	
2	0	0	0	0	521	492	0	0	0	0	
3	0	0	0	0	516	489	0	0	0	0	
4	0	0	0	0	511	483	0	0	0	0	
5	0	0	0	0	503	477	0	0	0	0	
6	0	0	0	0	496	470	0	0	0	0	
7	0	0	0	0	487	461	0	0	0	0	
8	0	0	0	0	479	452	0	0	0	0	
9	0	0	0	0	472	444	0	0	0	0	
10	0	0	0	0	464	436	0	0	0	0	
11	0	0	0	0	458	430	0	0	0	0	
12	0	0	0	0	453	424	0	0	0	0	
13	0	0	0	0	450	420	0	0	0	0	
14	0	0	0	0	448	419	0	0	0	0	
15	0	0	0	0	447	419	0	0	0	0	
0	0	0	0	0	449	422	0	0	0	0	
1	0	0	0	0	454	427	0	0	0	0	
2	0	0	0	0	460	434	0	0	0	0	
3	0	0	0	0	466	441	0	0	0	0	
4	0	0	0	0	472	448	0	0	0	0	
5	0	0	0	0	478	454	0	0	0	0	
6	0	0	0	0	482	457	0	0	0	0	
7	0	0	0	0	484	459	0	0	0	0	
8	0	0	0	0	483	458	0	0	0	0	
9	0	0	0	0	481	455	0	0	0	0	
10	0	0	0	0	478	451	0	0	0	0	
11	0	0	0	0	474	447	0	0	0	0	
12	0	0	0	0	472	443	0	0	0	0	
13	0	0	0	0	469	440	0	0	0	0	
14	0	0	0	0	469	439	0	0	0	0	
15	0	0	0	0	470	440	0	0	0	0	
0	0	0	0	0	473	444	0	0	0	0	
1	0	0	0	0	479	450	0	0	0	0	
2	0	0	0	0	485	456	0	0	0	0	
3	0	0	0	0	492	464	0	0	0	0	
4	0	0	0	0	500	475	0	0	0	0	
5	0	0	0	0	508	484	0	0	0	0	
6	0	0	0	0	516	494	0	0	0	0	
7	0	0	0	0	523	502	0	0	0	0	
8	0	0	0	0	529	508	0	0	0	0	
9	0	0	0	0	532	510	0	0	0	0	
10	0	0	0	0	534	510	0	0	0	0	
11	0	0	0	0	531	505	0	0	0	0	
12	0	0	0	0	525	498	0	0	0	0	
13	0	0	0	0	516	488	0	0	0	0	
14	0	0	0	0	505	476	0	0	0	0	
15	0	0	0	0	493	463	0	0	0	0	
0	0	0	0	0	481	451	0	0	0	0	
1	0	0	0	0	470	441	0	0	0	0	
2	0	0	0	0	460	433	0	0	0	0	
3	0	0	0	0	453	427	0	0	0	0	
4	0	0	0	0	448	423	0	0	0	0	
5	0	0	0	0	446	422	0	0	0	0	
6	0	0	0	0	446	422	0	0	0	0	
7	0	0	0	0	447	424	0	0	0	0	
8	0	0	0	0	451	428	0	0	0	0	
9	0	0	0	0	455	433	0	0	0	0	
10	0	0	0	0	461	439	0	0	0	0	
11	0	0	0	0	468	445	0	0	0	0	
12	0	0	0	0	475	451	0	0	0	0	
13	0	0	0	0	481	458	0	0	0	0	
14	0	0	0	0	487	463	0	0	0	0	
15	0	0	0	0	494	468	0	0	0	0	
0	0	0	0	0	498	472	0	0	0	0	
1	0	0	0	0	503	476	0	0	0	0	
2	0	0	0	0	506	479	0	0	0	0	
3	0	0	0	0	510	481	0	0	0	0	
4	0	0	0	0	512	482	0	0	0	0	
5	0	0	0	0	513	482	0	0	0	0	
6	0	0	0	0	511	480	0	0	0	0	
7	0	0	0	0	509	478	0	0	0	0	
8	0	0	0	0	506	475	0	0	0	0	
9	0	0	0	0	502	472	0	0	0	0	
10	0	0	0	0	498	470	0	0	0	0	
11	0	0	0	0	495	468	0	0	0	0	
12	0	0	0	0	490	466	0	0	0	0	
13	0	0	0	0	487	465	0	0	0	0	
14	0	0	0	0	485	463	0	0	0	0	
15	0	0	0	0	481	462	0	0	0	0	
0	0	0	0	0	478	459	0	0	0	0	
1	0	0	0	0	474	456	0	0	0	0	
2	0	0	0	0	471	453	0	0	0	0	
3	0	0	0	0	468	450	0	0	0	0	
4	0	0	0	0	465	447	0	0	0	0	
5	0	0	0	0	463	444	0	0	0	0	
6	0	0	0	0	460	440	0	0	0	0	
7	0	0	0	0	458	437	0	0	0	0	
8	0	0	0	0	456	435	0	0	0	0	
9	0	0	0	0	456	433	0	0	0	0	
10	0	0	0	0	457	433	0	0	0	0	
11	0	0	0	0	459	435	0	0	0	0	
12	0	0	0	0	464	440	0	0	0	0	
13	0	0	0	0	470	446	0	0	0	0	
14	0	0	0	0	477	452	0	0	0	0	
15	0	0	0	0	485	460	0	0	0	0	
0	0	0	0	0	492	467	0	0	0	0	
1	0	0	0	0	498	473	0	0	0	0	
2	0	0	0	0	503	478	0	0	0	0	
3	0	0	0	0	506	482	0	0	0	0	
4	0	0	0	0	508	486	0	0	0	0	
5	0	0	0	0	510	489	0	0	0	0	
6	0	0	0	0	512	493	0	0	0	0	
7	0	0	0	0	515	498	0	0	0	0	
8	0	0	0	0	520	503	0	0	0	0	
9	0	0	0	0	525	509	0	0	0	0	
10	0	0	0	0	531	515	0	0	0	0	
11	0	0	0	0	536	519	0	0	0	0	
12	0	0	0	0	540	522	0	0	0	0	
13	0	0	0	0	541	523	0	0	0	0	
14	0	0	0	0	539	519	0	0	0	0	
15	0	0	0	0	532	512	0	0	0	0	
0	0	0	0	0	523	503	0	0	0	0	
1	0	0	0	0	511	491	0	0	0	0	
2	0	0	0	0	496	478	0	0	0	0	
3	0	0	0	0	482	465	0	0	0	0	
4	0	0	0	0	468	453	0	0	0	0	
5	0	0	0	0	455	443	0	0	0	0	
6	0	0	0	0	445	434	0	0	0	0	
7	0	0	0	0	437	427	0	0	0	0	
8	0	0	0	0	431	422	0	0	0	0	
9	0	0	0	0	427	418	0	0	0	0	
10	0	0	0	0	427	416	0	0	0	0	
11	0	0	0	0	428	415	0	0	0	0	
12	0	0	0	0	429	415	0	0	0	0	
13	0	0	0	0	433	415	0	0	0	0	
14	0	0	0	0	436	416	0	0	0	0	
15	0	0	0	0	440	417	0	0	0	0	
0	0	0	0	0	444	418	0	0	0	0	
1	0	0	0	0	447	419	0	0	0	0	
2	0	0	0	0	450	419	0	0	0	0	
3	0	0	0	0	451	420	0	0	0	0	
4	0	0	0	0	454	423	0	0	0	0	
5	0	0	0	0	457	425	0	0	0	0	
6	0	0	0	0	460	429	0	0	0	0	
7	0	0	0	0	463	433	0	0	0	0	
8	0	0	0	0	466	439	0	0	0	0	
9	0	0	0	0	471	444	0	0	0	0	
10	0	0	0	0	476	452	0	0	0	0	
11	0	0	0	0	483	460	0	0	0	0	
12	0	0	0	0	490	468	0	0	0	0	
13	0	0	0	0	497	476	0	0	0	0	
14	0	0	0	0	504	484	0	0	0	0	
15	0	0	0	0	511	491	0	0	0	0	
0	0	0	0	0	516	496	0	0	0	0	
1	0	0	0	0	520	499	0	0	0	0	
2	0	0	0	0	522	501	0	0	0	0	
3	0	0	0	0	523	500	0	0	0	0	
4	0	0	0	0	519	496	0	0	0	0	
5	0	0	0	0	515	491	0	0	0	0	
6	0	0	0	0	508	483	0	0	0	0	
7	0	0	0	0	500	476	0	0	0	0	
8	0	0	0	0	492	468	0	0	0	0	
9	0	0	0	0	484	461	0	0	0	0	
10	0	0	0	0	476	455	0	0	0	0	
11	0	0	0	0	470	449	0	0	0	0	
12	0	0	0	0	463	444	0	0	0	0	
13	0	0	0	0	459	440	0	0	0	0	
14	0	0	0	0	456	438	0	0	0	0	
15	0	0	0	0	454	436	0	0	0	0	
0	0	0	0	0	453	436	0	0	0	0	
1	0	0	0	0	454	436	0	0	0	0	
2	0	0	0	0	455	437	0	0	0	0	
3	0	0	0	0	457	438	0	0	0	0	
4	0	0	0	0	459	438	0	0	0	0	
5	0	0	0	0	459	436	0	0	0	0	
6	0	0	0	0	457	433	0	0	0	0	
7	0	0	0	0	455	430	0	0	0	0	
8	0	0	0	0	451	425	0	0	0	0	
9	0	0	0	0	446	419	0	0	0	0	
10	0	0	0	0	441	414	0	0	0	0	
11	0	0	0	0	436	410	0	0	0	0	
12	0	0	0	0	433	407	0	0	0	0	
13	0	0	0	0	430	406	0	0	0	0	
14	0	0	0	0	430	406	0	0	0	0	
15	0	0	0	0	432	409	0	0	0	0	
0	0	0	0	0	436	415	0	0	0	0	
1	0	0	0	0	443	424	0	0	0	0	
2	0	0	0	0	452	434	0	0	0	0	
3	0	0	0	0	463	445	0	0	0	0	
4	0	0	0	0	475	457	0	0	0	0	
5	0	0	0	0	487	468	0	0	0	0	
6	0	0	0	0	499	479	0	0	0	0	
7	0	0	0	0	508	487	0	0	0	0	
8	0	0	0	0	515	492	0	0	0	0	
9	0	0	0	0	519	495	0	0	0	0	
10	0	0	0	0	520	495	0	0	0	0	
11	0	0	0	0	520	493	0	0	0	0	
12	0	0	0	0	517	488	0	0	0	0	
13	0	0	0	0	512	482	0	0	0	0	
14	0	0	0	0	505	475	0	0	0	0	
15	0	0	0	0	496	467	0	0	0	0	
0	0	0	0	0	487	459	0	0	0	0	
1	0	0	0	0	479	452	0	0	0	0	
2	0	0	0	0	471	447	0	0	0	0	
3	0	0	0	0	465	444	0	0	0	0	
4	0	0	0	0	463	445	0	0	0	0	
5	0	0	0	0	464	450	0	0	0	0	
6	0	0	0	0	470	458	0	0	0	0	
7	0	0	0	0	479	468	0	0	0	0	
8	0	0	0	0	489	480	0	0	0	0	
9	0	0	0	0	500	489	0	0	0	0	
10	0	0	0	0	508	496	0	0	0	0	
11	0	0	0	0	513	499	0	0	0	0	
12	0	0	0	0	515	498	0	0	0	0	
13	0	0	0	0	512	492	0	0	0	0	
14	0	0	0	0	507	484	0	0	0	0	
15	0	0	0	0	498	473	0	0	0	0	
0	0	0	0	0	487	462	0	0	0	0	
1	0	0	0	0	476	449	0	0	0	0	
2	0	0	0	0	465	438	0	0	0	0	
3	0	0	0	0	456	428	0	0	0	0	
4	0	0	0	0	448	421	0	0	0	0	
5	0	0	0	0	443	417	0	0	0	0	
6	0	0	0	0	441	416	0	0	0	0	
7	0	0	0	0	442	419	0	0	0	0	
8	0	0	0	0	447	424	0	0	0	0	
9	0	0	0	0	453	432	0	0	0	0	
10	0	0	0	0	461	441	0	0	0	0	
11	0	0	0	0	471	451	0	0	0	0	
12	0	0	0	0	480	460	0	0	0	0	
13	0	0	0	0	489	470	0	0	0	0	
14	0	0	0	0	497	478	0	0	0	0	
15	0	0	0	0	504	484	0	0	0	0	
0	0	0	0	0	508	488	0	0	0	0	
1	0	0	0	0	510	489	0	0	0	0	
2	0	0	0	0	511	489	0	0	0	0	
3	0	0	0	0	509	487	0	0	0	0	
4	0	0	0	0	505	483	0	0	0	0	
5	0	0	0	0	500	477	0	0	0	0	
6	0	0	0	0	494	470	0	0	0	0	
7	0	0	0	0	487	463	0	0	0	0	
8	0	0	0	0	481	456	0	0	0	0	
9	0	0	0	0	475	450	0	0	0	0	
10	0	0	0	0	471	445	0	0	0	0	
11	0	0	0	0	467	441	0	0	0	0	
12	0	0	0	0	465	440	0	0	0	0	
13	0	0	0	0	464	440	0	0	0	0	
14	0	0	0	0	465	443	0	0	0	0	
15	0	0	0	0	467	446	0	0	0	0	
0	0	0	0	0	471	451	0	0	0	0	
1	0	0	0	0	477	458	0	0	0	0	
2	0	0	0	0	483	465	0	0	0	0	
3	0	0	0	0	489	471	0	0	0	0	
4	0	0	0	0	495	476	0	0	0	0	
5	0	0	0	0	498	478	0	0	0	0	
6	0	0	0	0	500	479	0	0	0	0	
7	0	0	0	0	501	477	0	0	0	0	
8	0	0	0	0	499	474	0	0	0	0	
9	0	0	0	0	497	470	0	0	0	0	
10	0	0	0	0	494	466	0	0	0	0	
11	0	0	0	0	490	462	0	0	0	0	
12	0	0	0	0	487	459	0	0	0	0	
13	0	0	0	0	483	457	0	0	0	0	
14	0	0	0	0	481	455	0	0	0	0	
15	0	0	0	0	479	455	0	0	0	0	
0	0	0	0	0	477	456	0	0	0	0	
1	0	0	0	0	477	458	0	0	0	0	
2	0	0	0	0	478	462	0	0	0	0	
3	0	0	0	0	479	465	0	0	0	0	
4	0	0	0	0	480	468	0	0	0	0	
5	0	0	0	0	481	470	0	0	0	0	
6	0	0	0	0	482	471	0	0	0	0	
7	0	0	0	0	483	471	0	0	0	0	
8	0	0	0	0	485	471	0	0	0	0	
9	0	0	0	0	486	470	0	0	0	0	
10	0	0	0	0	487	467	0	0	0	0	
11	0	0	0	0	487	465	0	0	0	0	
12	0	0	0	0	487	461	0	0	0	0	
13	0	0	0	0	486	457	0	0	0	0	
14	0	0	0	0	484	454	0	0	0	0	
15	0	0	0	0	483	451	0	0	0	0	
0	0	0	0	0	480	448	0	0	0	0	
1	0	0	0	0	478	446	0	0	0	0	
2	0	0	0	0	476	445	0	0	0	0	
3	0	0	0	0	474	444	0	0	0	0	
4	0	0	0	0	472	446	0	0	0	0	
5	0	0	0	0	472	448	0	0	0	0	
6	0	0	0	0	473	451	0	0	0	0	
7	0	0	0	0	475	455	0	0	0	0	
8	0	0	0	0	478	460	0	0	0	0	
9	0	0	0	0	481	465	0	0	0	0	
10	0	0	0	0	486	470	0	0	0	0	
11	0	0	0	0	490	473	0	0	0	0	
12	0	0	0	0	494	477	0	0	0	0	
13	0	0	0	0	497	479	0	0	0	0	
14	0	0	0	0	500	481	0	0	0	0	
15	0	0	0	0	503	481	0	0	0	0	
0	0	0	0	0	504	480	0	0	0	0	
1	0	0	0	0	503	479	0	0	0	0	
2	0	0	0	0	503	476	0	0	0	0	
3	0	0	0	0	499	473	0	0	0	0	
4	0	0	0	0	497	470	0	0	0	0	
5	0	0	0	0	492	465	0	0	0	0	
6	0	0	0	0	487	461	0	0	0	0	
7	0	0	0	0	481	456	0	0	0	0	
8	0	0	0	0	475	452	0	0	0	0	
9	0	0	0	0	469	448	0	0	0	0	
10	0	0	0	0	464	446	0	0	0	0	
11	0	0	0	0	459	443	0	0	0	0	
12	0	0	0	0	457	441	0	0	0	0	
13	0	0	0	0	455	440	0	0	0	0	
14	0	0	0	0	458	443	0	0	0	0	
15	0	0	0	0	463	447	0	0	0	0	
0	0	0	0	0	472	454	0	0	0	0	
1	0	0	0	0	481	461	0	0	0	0	
2	0	0	0	0	491	467	0	0	0	0	
3	0	0	0	0	500	473	0	0	0	0	
4	0	0	0	0	506	477	0	0	0	0	
5	0	0	0	0	509	478	0	0	0	0	
6	0	0	0	0	508	476	0	0	0	0	
7	0	0	0	0	503	471	0	0	0	0	
8	0	0	0	0	495	464	0	0	0	0	
9	0	0	0	0	484	455	0	0	0	0	
10	0	0	0	0	472	445	0	0	0	0	
11	0	0	0	0	460	435	0	0	0	0	
12	0	0	0	0	449	427	0	0	0	0	
13	0	0	0	0	441	422	0	0	0	0	
14	0	0	0	0	436	418	0	0	0	0	
15	0	0	0	0	435	418	0	0	0	0	
0	0	0	0	0	438	421	0	0	0	0	
1	0	0	0	0	443	426	0	0	0	0	
2	0	0	0	0	453	434	0	0	0	0	
3	0	0	0	0	463	442	0	0	0	0	
4	0	0	0	0	472	449	0	0	0	0	
5	0	0	0	0	480	455	0	0	0	0	
6	0	0	0	0	485	457	0	0	0	0	
7	0	0	0	0	488	459	0	0	0	0	
8	0	0	0	0	487	457	0	0	0	0	
9	0	0	0	0	484	454	0	0	0	0	
10	0	0	0	0	480	449	0	0	0	0	
11	0	0	0	0	474	445	0	0	0	0	
12	0	0	0	0	469	441	0	0	0	0	
13	0	0	0	0	466	440	0	0	0	0	
14	0	0	0	0	465	440	0	0	0	0	
15	0	0	0	0	467	443	0	0	0	0	
0	0	0	0	0	470	447	0	0	0	0	
1	0	0	0	0	474	452	0	0	0	0	
2	0	0	0	0	479	457	0	0	0	0	
3	0	0	0	0	483	462	0	0	0	0	
4	0	0	0	0	487	466	0	0	0	0	
5	0	0	0	0	489	467	0	0	0	0	
6	0	0	0	0	489	467	0	0	0	0	
7	0	0	0	0	486	463	0	0	0	0	
8	0	0	0	0	480	457	0	0	0	0	
9	0	0	0	0	470	448	0	0	0	0	
10	0	0	0	0	459	438	0	0	0	0	
11	0	0	0	0	446	425	0	0	0	0	
12	0	0	0	0	431	410	0	0	0	0	
13	0	0	0	0	416	396	0	0	0	0	
14	0	0	0	0	401	381	0	0	0	0	
15	0	0	0	0	387	367	0	0	0	0	
0	0	0	0	0	374	354	0	0	0	0	
1	0	0	0	0	362	343	0	0	0	0	
2	0	0	0	0	352	332	0	0	0	0	
3	0	0	0	0	343	323	0	0	0	0	
4	0	0	0	0	335	316	0	0	0	0	
5	0	0	0	0	329	311	0	0	0	0	
6	0	0	0	0	327	308	0	0	0	0	
7	0	0	0	0	325	307	0	0	0	0	
8	0	0	0	0	325	307	0	0	0	0	
9	0	0	0	0	326	307	0	0	0	0	
10	0	0	0	0	327	307	0	0	0	0	
11	0	0	0	0	327	305	0	0	0	0	
12	0	0	0	0	325	302	0	0	0	0	
13	0	0	0	0	320	295	0	0	0	0	
14	0	0	0	0	312	287	0	0	0	0	
15	0	0	0	0	303	277	0	0	0	0	
0	0	0	0	0	294	267	0	0	0	0	
1	0	0	0	0	284	257	0	0	0	0	
2	0	0	0	0	277	250	0	0	0	0	
3	0	0	0	0	273	247	0	0	0	0	
4	0	0	0	0	275	248	0	0	0	0	
5	0	0	0	0	282	255	0	0	0	0	
6	0	0	0	0	295	267	0	0	0	0	
7	0	0	0	0	312	283	0	0	0	0	
8	0	0	0	0	334	304	0	0	0	0	
9	0	0	0	0	360	327	0	0	0	0	
10	0	0	0	0	388	353	0	0	0	0	
11	0	0	0	0	416	379	0	0	0	0	
12	0	0	0	0	444	405	0	0	0	0	
13	0	0	0	0	471	430	0	0	0	0	
14	0	0	0	0	494	451	0	0	0	0	
15	0	0	0	0	512	468	0	0	0	0	
0	0	0	0	0	527	482	0	0	0	0	
1	0	0	0	0	536	491	0	0	0	0	
2	0	0	0	0	539	495	0	0	0	0	
3	0	0	0	0	539	495	0	0	0	0	
4	0	0	0	0	534	492	0	0	0	0	
5	0	0	0	0	527	486	0	0	0	0	
6	0	0	0	0	517	479	0	0	0	0	
7	0	0	0	0	506	471	0	0	0	0	
8	0	0	0	0	496	464	0	0	0	0	
9	0	0	0	0	487	457	0	0	0	0	
10	0	0	0	0	481	454	0	0	0	0	
11	0	0	0	0	478	453	0	0	0	0	
12	0	0	0	0	478	455	0	0	0	0	
13	0	0	0	0	482	460	0	0	0	0	
14	0	0	0	0	490	468	0	0	0	0	
15	0	0	0	0	499	478	0	0	0	0	
0	0	0	0	0	510	489	0	0	0	0	
1	0	0	0	0	519	498	0	0	0	0	
2	0	0	0	0	527	505	0	0	0	0	
3	0	0	0	0	531	510	0	0	0	0	
4	0	0	0	0	532	510	0	0	0	0	
5	0	0	0	0	528	506	0	0	0	0	
6	0	0	0	0	519	498	0	0	0	0	
7	0	0	0	0	509	488	0	0	0	0	
8	0	0	0	0	496	476	0	0	0	0	
9	0	0	0	0	482	463	0	0	0	0	
10	0	0	0	0	468	451	0	0	0	0	
11	0	0	0	0	456	441	0	0	0	0	
12	0	0	0	0	448	434	0	0	0	0	
13	0	0	0	0	442	429	0	0	0	0	
14	0	0	0	0	440	427	0	0	0	0	
15	0	0	0	0	439	425	0	0	0	0	
0	0	0	0	0	440	426	0	0	0	0	
1	0	0	0	0	443	428	0	0	0	0	
2	0	0	0	0	447	430	0	0	0	0	
3	0	0	0	0	451	433	0	0	0	0	
4	0	0	0	0	457	437	0	0	0	0	
5	0	0	0	0	463	441	0	0	0	0	
6	0	0	0	0	470	446	0	0	0	0	
7	0	0	0	0	476	450	0	0	0	0	
8	0	0	0	0	483	455	0	0	0	0	
9	0	0	0	0	488	458	0	0	0	0	
10	0	0	0	0	493	462	0	0	0	0	
11	0	0	0	0	497	465	0	0	0	0	
12	0	0	0	0	499	466	0	0	0	0	
13	0	0	0	0	499	466	0	0	0	0	
14	0	0	0	0	498	465	0	0	0	0	
15	0	0	0	0	495	463	0	0	0	0	
0	0	0	0	0	493	460	0	0	0	0	
1	0	0	0	0	490	459	0	0	0	0	
2	0	0	0	0	487	458	0	0	0	0	
3	0	0	0	0	486	457	0	0	0	0	
4	0	0	0	0	484	457	0	0	0	0	
5	0	0	0	0	485	460	0	0	0	0	
6	0	0	0	0	487	463	0	0	0	0	
7	0	0	0	0	489	466	0	0	0	0	
8	0	0	0	0	492	470	0	0	0	0	
9	0	0	0	0	494	473	0	0	0	0	
10	0	0	0	0	497	476	0	0	0	0	
11	0	0	0	0	499	479	0	0	0	0	
12	0	0	0	0	499	478	0	0	0	0	
13	0	0	0	0	498	477	0	0	0	0	
14	0	0	0	0	496	473	0	0	0	0	
15	0	0	0	0	493	470	0	0	0	0	
0	0	0	0	0	490	465	0	0	0	0	
1	0	0	0	0	487	462	0	0	0	0	
2	0	0	0	0	486	460	0	0	0	0	
3	0	0	0	0	486	460	0	0	0	0	
4	0	0	0	0	489	463	0	0	0	0	
5	0	0	0	0	496	468	0	0	0	0	
6	0	0	0	0	505	478	0	0	0	0	
7	0	0	0	0	516	489	0	0	0	0	
8	0	0	0	0	530	502	0	0	0	0	
9	0	0	0	0	545	516	0	0	0	0	
10	0	0	0	0	560	531	0	0	0	0	
11	0	0	0	0	574	543	0	0	0	0	
12	0	0	0	0	586	555	0	0	0	0	
13	0	0	0	0	595	564	0	0	0	0	
14	0	0	0	0	601	570	0	0	0	0	
15	0	0	0	0	603	571	0	0	0	0	
0	0	0	0	0	599	567	0	0	0	0	
1	0	0	0	0	588	557	0	0	0	0	
2	0	0	0	0	572	541	0	0	0	0	
3	0	0	0	0	550	521	0	0	0	0	
4	0	0	0	0	524	498	0	0	0	0	
5	0	0	0	0	497	473	0	0	0	0	
6	0	0	0	0	470	448	0	0	0	0	
7	0	0	0	0	445	426	0	0	0	0	
8	0	0	0	0	423	407	0	0	0	0	
9	0	0	0	0	407	393	0	0	0	0	
10	0	0	0	0	396	384	0	0	0	0	
11	0	0	0	0	391	379	0	0	0	0	
12	0	0	0	0	393	380	0	0	0	0	
13	0	0	0	0	400	386	0	0	0	0	
14	0	0	0	0	413	396	0	0	0	0	
15	0	0	0	0	429	409	0	0	0	0	
0	0	0	0	0	447	423	0	0	0	0	
1	0	0	0	0	467	440	0	0	0	0	
2	0	0	0	0	487	456	0	0	0	0	
3	0	0	0	0	505	472	0	0	0	0	
4	0	0	0	0	520	486	0	0	0	0	
5	0	0	0	0	533	496	0	0	0	0	
6	0	0	0	0	542	505	0	0	0	0	
7	0	0	0	0	547	511	0	0	0	0	
8	0	0	0	0	550	513	0	0	0	0	
9	0	0	0	0	548	514	0	0	0	0	
10	0	0	0	0	544	511	0	0	0	0	
11	0	0	0	0	537	507	0	0	0	0	
12	0	0	0	0	527	500	0	0	0	0	
13	0	0	0	0	515	491	0	0	0	0	
14	0	0	0	0	502	480	0	0	0	0	
15	0	0	0	0	487	468	0	0	0	0	
0	0	0	0	0	472	455	0	0	0	0	
1	0	0	0	0	459	444	0	0	0	0	
2	0	0	0	0	446	434	0	0	0	0	
3	0	0	0	0	437	426	0	0	0	0	
4	0	0	0	0	432	422	0	0	0	0	
5	0	0	0	0	431	419	0	0	0	0	
6	0	0	0	0	435	422	0	0	0	0	
7	0	0	0	0	443	426	0	0	0	0	
8	0	0	0	0	454	433	0	0	0	0	
9	0	0	0	0	467	441	0	0	0	0	
10	0	0	0	0	481	451	0	0	0	0	
11	0	0	0	0	496	460	0	0	0	0	
12	0	0	0	0	510	468	0	0	0	0	
13	0	0	0	0	520	475	0	0	0	0	
14	0	0	0	0	528	480	0	0	0	0	
15	0	0	0	0	532	483	0	0	0	0	
0	0	0	0	0	534	484	0	0	0	0	
1	0	0	0	0	531	483	0	0	0	0	
2	0	0	0	0	525	480	0	0	0	0	
3	0	0	0	0	517	475	0	0	0	0	
4	0	0	0	0	506	470	0	0	0	0	
5	0	0	0	0	496	465	0	0	0	0	
6	0	0	0	0	484	460	0	0	0	0	
7	0	0	0	0	474	455	0	0	0	0	
8	0	0	0	0	464	449	0	0	0	0	
9	0	0	0	0	456	446	0	0	0	0	
10	0	0	0	0	451	442	0	0	0	0	
11	0	0	0	0	447	440	0	0	0	0	
12	0	0	0	0	445	437	0	0	0	0	
13	0	0	0	0	446	436	0	0	0	0	
14	0	0	0	0	448	436	0	0	0	0	
15	0	0	0	0	451	437	0	0	0	0	
0	0	0	0	0	456	438	0	0	0	0	
1	0	0	0	0	461	438	0	0	0	0	
2	0	0	0	0	466	440	0	0	0	0	
3	0	0	0	0	470	441	0	0	0	0	
4	0	0	0	0	475	443	0	0	0	0	
5	0	0	0	0	479	446	0	0	0	0	
6	0	0	0	0	482	450	0	0	0	0	
7	0	0	0	0	486	455	0	0	0	0	
8	0	0	0	0	490	460	0	0	0	0	
9	0	0	0	0	496	468	0	0	0	0	
10	0	0	0	0	503	477	0	0	0	0	
11	0	0	0	0	511	486	0	0	0	0	
12	0	0	0	0	519	496	0	0	0	0	
13	0	0	0	0	529	506	0	0	0	0	
14	0	0	0	0	538	515	0	0	0	0	
15	0	0	0	0	546	522	0	0	0	0	
0	0	0	0	0	551	527	0	0	0	0	
1	0	0	0	0	554	528	0	0	0	0	
2	0	0	0	0	552	526	0	0	0	0	
3	0	0	0	0	547	521	0	0	0	0	
4	0	0	0	0	539	511	0	0	0	0	
5	0	0	0	0	526	498	0	0	0	0	
6	0	0	0	0	510	483	0	0	0	0	
7	0	0	0	0	493	467	0	0	0	0	
8	0	0	0	0	476	451	0	0	0	0	
9	0	0	0	0	460	437	0	0	0	0	
10	0	0	0	0	448	426	0	0	0	0	
11	0	0	0	0	440	419	0	0	0	0	
12	0	0	0	0	434	415	0	0	0	0	
13	0	0	0	0	433	414	0	0	0	0	
14	0	0	0	0	435	417	0	0	0	0	
15	0	0	0	0	441	422	0	0	0	0	
0	0	0	0	0	448	428	0	0	0	0	
1	0	0	0	0	455	436	0	0	0	0	
2	0	0	0	0	463	443	0	0	0	0	
3	0	0	0	0	471	448	0	0	0	0	
4	0	0	0	0	476	453	0	0	0	0	
5	0	0	0	0	480	455	0	0	0	0	
6	0	0	0	0	482	457	0	0	0	0	
7	0	0	0	0	483	457	0	0	0	0	
8	0	0	0	0	482	456	0	0	0	0	
9	0	0	0	0	481	455	0	0	0	0	
10	0	0	0	0	480	455	0	0	0	0	
11	0	0	0	0	482	456	0	0	0	0	
12	0	0	0	0	484	459	0	0	0	0	
13	0	0	0	0	488	463	0	0	0	0	
14	0	0	0	0	494	469	0	0	0	0	
15	0	0	0	0	500	474	0	0	0	0	
0	0	0	0	0	507	481	0	0	0	0	
1	0	0	0	0	514	487	0	0	0	0	
2	0	0	0	0	519	491	0	0	0	0	
3	0	0	0	0	521	492	0	0	0	0	
4	0	0	0	0	520	490	0	0	0	0	
5	0	0	0	0	515	485	0	0	0	0	
6	0	0	0	0	506	476	0	0	0	0	
7	0	0	0	0	494	465	0	0	0	0	
8	0	0	0	0	479	451	0	0	0	0	
9	0	0	0	0	463	437	0	0	0	0	
10	0	0	0	0	446	423	0	0	0	0	
11	0	0	0	0	432	410	0	0	0	0	
12	0	0	0	0	419	399	0	0	0	0	
13	0	0	0	0	409	391	0	0	0	0	
14	0	0	0	0	404	386	0	0	0	0	
15	0	0	0	0	403	386	0	0	0	0	
0	0	0	0	0	408	388	0	0	0	0	
1	0	0	0	0	416	395	0	0	0	0	
2	0	0	0	0	428	404	0	0	0	0	
3	0	0	0	0	441	415	0	0	0	0	
4	0	0	0	0	456	427	0	0	0	0	
5	0	0	0	0	471	437	0	0	0	0	
6	0	0	0	0	483	446	0	0	0	0	
7	0	0	0	0	493	455	0	0	0	0	
8	0	0	0	0	500	461	0	0	0	0	
9	0	0	0	0	504	465	0	0	0	0	
10	0	0	0	0	507	468	0	0	0	0	
11	0	0	0	0	507	469	0	0	0	0	
12	0	0	0	0	505	470	0	0	0	0	
13	0	0	0	0	502	469	0	0	0	0	
14	0	0	0	0	498	467	0	0	0	0	
15	0	0	0	0	493	465	0	0	0	0	
0	0	0	0	0	487	461	0	0	0	0	
1	0	0	0	0	482	457	0	0	0	0	
2	0	0	0	0	476	452	0	0	0	0	
3	0	0	0	0	471	448	0	0	0	0	
4	0	0	0	0	467	444	0	0	0	0	
5	0	0	0	0	464	441	0	0	0	0	
6	0	0	0	0	462	440	0	0	0	0	
7	0	0	0	0	462	439	0	0	0	0	
8	0	0	0	0	462	439	0	0	0	0	
9	0	0	0	0	463	440	0	0	0	0	
10	0	0	0	0	465	441	0	0	0	0	
11	0	0	0	0	468	444	0	0	0	0	
12	0	0	0	0	471	448	0	0	0	0	
13	0	0	0	0	474	451	0	0	0	0	
14	0	0	0	0	479	456	0	0	0	0	
15	0	0	0	0	484	462	0	0	0	0	
0	0	0	0	0	490	468	0	0	0	0	
1	0	0	0	0	498	475	0	0	0	0	
2	0	0	0	0	505	481	0	0	0	0	
3	0	0	0	0	511	486	0	0	0	0	
4	0	0	0	0	517	490	0	0	0	0	
5	0	0	0	0	520	492	0	0	0	0	
6	0	0	0	0	521	491	0	0	0	0	
7	0	0	0	0	520	489	0	0	0	0	
8	0	0	0	0	517	486	0	0	0	0	
9	0	0	0	0	512	480	0	0	0	0	
10	0	0	0	0	504	473	0	0	0	0	
11	0	0	0	0	496	466	0	0	0	0	
12	0	0	0	0	485	458	0	0	0	0	
13	0	0	0	0	475	449	0	0	0	0	
14	0	0	0	0	464	442	0	0	0	0	
15	0	0	0	0	455	436	0	0	0	0	
0	0	0	0	0	448	432	0	0	0	0	
1	0	0	0	0	443	429	0	0	0	0	
2	0	0	0	0	441	430	0	0	0	0	
3	0	0	0	0	443	431	0	0	0	0	
4	0	0	0	0	446	433	0	0	0	0	
5	0	0	0	0	450	436	0	0	0	0	
6	0	0	0	0	456	439	0	0	0	0	
7	0	0	0	0	463	443	0	0	0	0	
8	0	0	0	0	470	446	0	0	0	0	
9	0	0	0	0	476	448	0	0	0	0	
10	0	0	0	0	482	451	0	0	0	0	
11	0	0	0	0	488	453	0	0	0	0	
12	0	0	0	0	493	455	0	0	0	0	
13	0	0	0	0	496	457	0	0	0	0	
14	0	0	0	0	498	458	0	0	0	0	
15	0	0	0	0	498	459	0	0	0	0	
0	0	0	0	0	496	459	0	0	0	0	
1	0	0	0	0	493	458	0	0	0	0	
2	0	0	0	0	490	458	0	0	0	0	
3	0	0	0	0	486	457	0	0	0	0	
4	0	0	0	0	482	456	0	0	0	0	
5	0	0	0	0	478	455	0	0	0	0	
6	0	0	0	0	475	454	0	0	0	0	
7	0	0	0	0	472	453	0	0	0	0	
8	0	0	0	0	471	452	0	0	0	0	
9	0	0	0	0	470	451	0	0	0	0	
10	0	0	0	0	469	449	0	0	0	0	
11	0	0	0	0	470	449	0	0	0	0	
12	0	0	0	0	472	450	0	0	0	0	
13	0	0	0	0	475	450	0	0	0	0	
14	0	0	0	0	478	452	0	0	0	0	
15	0	0	0	0	482	454	0	0	0	0	
0	0	0	0	0	487	457	0	0	0	0	
1	0	0	0	0	492	462	0	0	0	0	
2	0	0	0	0	497	467	0	0	0	0	
3	0	0	0	0	503	473	0	0	0	0	
4	0	0	0	0	510	480	0	0	0	0	
5	0	0	0	0	517	488	0	0	0	0	
6	0	0	0	0	524	496	0	0	0	0	
7	0	0	0	0	531	504	0	0	0	0	
8	0	0	0	0	536	510	0	0	0	0	
9	0	0	0	0	539	514	0	0	0	0	
10	0	0	0	0	540	515	0	0	0	0	
11	0	0	0	0	538	514	0	0	0	0	
12	0	0	0	0	533	508	0	0	0	0	
13	0	0	0	0	525	501	0	0	0	0	
14	0	0	0	0	515	491	0	0	0	0	
15	0	0	0	0	505	480	0	0	0	0	
0	0	0	0	0	495	470	0	0	0	0	
1	0	0	0	0	486	461	0	0	0	0	
2	0	0	0	0	479	453	0	0	0	0	
3	0	0	0	0	473	447	0	0	0	0	
4	0	0	0	0	471	443	0	0	0	0	
5	0	0	0	0	470	441	0	0	0	0	
6	0	0	0	0	470	440	0	0	0	0	
7	0	0	0	0	471	439	0	0	0	0	
8	0	0	0	0	472	440	0	0	0	0	
9	0	0	0	0	473	440	0	0	0	0	
10	0	0	0	0	474	441	0	0	0	0	
11	0	0	0	0	474	441	0	0	0	0	
12	0	0	0	0	473	440	0	0	0	0	
13	0	0	0	0	472	440	0	0	0	0	
14	0	0	0	0	469	438	0	0	0	0	
15	0	0	0	0	466	436	0	0	0	0	
0	0	0	0	0	464	435	0	0	0	0	
1	0	0	0	0	462	434	0	0	0	0	
2	0	0	0	0	460	433	0	0	0	0	
3	0	0	0	0	461	434	0	0	0	0	
4	0	0	0	0	464	436	0	0	0	0	
5	0	0	0	0	470	441	0	0	0	0	
6	0	0	0	0	479	448	0	0	0	0	
7	0	0	0	0	489	457	0	0	0	0	
8	0	0	0	0	501	467	0	0	0	0	
9	0	0	0	0	512	477	0	0	0	0	
10	0	0	0	0	524	487	0	0	0	0	
11	0	0	0	0	533	497	0	0	0	0	
12	0	0	0	0	540	503	0	0	0	0	
13	0	0	0	0	544	509	0	0	0	0	
14	0	0	0	0	544	511	0	0	0	0	
15	0	0	0	0	541	510	0	0	0	0	
0	0	0	0	0	535	506	0	0	0	0	
1	0	0	0	0	524	498	0	0	0	0	
2	0	0	0	0	511	488	0	0	0	0	
3	0	0	0	0	497	476	0	0	0	0	
4	0	0	0	0	481	463	0	0	0	0	
5	0	0	0	0	466	449	0	0	0	0	
6	0	0	0	0	451	435	0	0	0	0	
7	0	0	0	0	439	423	0	0	0	0	
8	0	0	0	0	430	413	0	0	0	0	
9	0	0	0	0	423	404	0	0	0	0	
10	0	0	0	0	419	398	0	0	0	0	
11	0	0	0	0	420	396	0	0	0	0	
12	0	0	0	0	423	396	0	0	0	0	
13	0	0	0	0	430	398	0	0	0	0	
14	0	0	0	0	438	403	0	0	0	0	
15	0	0	0	0	448	411	0	0	0	0	
0	0	0	0	0	458	420	0	0	0	0	
1	0	0	0	0	470	430	0	0	0	0	
2	0	0	0	0	480	440	0	0	0	0	
3	0	0	0	0	490	450	0	0	0	0	
4	0	0	0	0	499	460	0	0	0	0	
5	0	0	0	0	504	467	0	0	0	0	
6	0	0	0	0	510	473	0	0	0	0	
7	0	0	0	0	513	479	0	0	0	0	
8	0	0	0	0	516	483	0	0	0	0	
9	0	0	0	0	519	486	0	0	0	0	
10	0	0	0	0	519	487	0	0	0	0	
11	0	0	0	0	521	489	0	0	0	0	
12	0	0	0	0	520	488	0	0	0	0	
13	0	0	0	0	519	486	0	0	0	0	
14	0	0	0	0	515	482	0	0	0	0	
15	0	0	0	0	510	478	0	0	0	0	
0	0	0	0	0	504	472	0	0	0	0	
1	0	0	0	0	497	465	0	0	0	0	
2	0	0	0	0	488	459	0	0	0	0	
3	0	0	0	0	480	452	0	0	0	0	
4	0	0	0	0	472	446	0	0	0	0	
5	0	0	0	0	466	442	0	0	0	0	
6	0	0	0	0	461	439	0	0	0	0	
7	0	0	0	0	458	438	0	0	0	0	
8	0	0	0	0	456	439	0	0	0	0	
9	0	0	0	0	457	440	0	0	0	0	
10	0	0	0	0	459	444	0	0	0	0	
11	0	0	0	0	461	446	0	0	0	0	
12	0	0	0	0	463	448	0	0	0	0	
13	0	0	0	0	467	449	0	0	0	0	
14	0	0	0	0	468	449	0	0	0	0	
15	0	0	0	0	471	449	0	0	0	0	
0	0	0	0	0	472	447	0	0	0	0	
1	0	0	0	0	473	446	0	0	0	0	
2	0	0	0	0	475	444	0	0	0	0	
3	0	0	0	0	476	443	0	0	0	0	
4	0	0	0	0	479	444	0	0	0	0	
5	0	0	0	0	481	446	0	0	0	0	
6	0	0	0	0	484	448	0	0	0	0	
7	0	0	0	0	486	451	0	0	0	0	
8	0	0	0	0	487	454	0	0	0	0	
9	0	0	0	0	487	456	0	0	0	0	
10	0	0	0	0	486	458	0	0	0	0	
11	0	0	0	0	484	459	0	0	0	0	
12	0	0	0	0	481	459	0	0	0	0	
13	0	0	0	0	478	459	0	0	0	0	
14	0	0	0	0	475	457	0	0	0	0	
15	0	0	0	0	471	455	0	0	0	0	
0	0	0	0	0	469	454	0	0	0	0	
1	0	0	0	0	467	451	0	0	0	0	
2	0	0	0	0	465	448	0	0	0	0	
3	0	0	0	0	464	446	0	0	0	0	
4	0	0	0	0	464	444	0	0	0	0	
5	0	0	0	0	464	441	0	0	0	0	
6	0	0	0	0	464	439	0	0	0	0	
7	0	0	0	0	465	438	0	0	0	0	
8	0	0	0	0	467	438	0	0	0	0	
9	0	0	0	0	469	439	0	0	0	0	
10	0	0	0	0	474	442	0	0	0	0	
11	0	0	0	0	480	447	0	0	0	0	
12	0	0	0	0	486	453	0	0	0	0	
13	0	0	0	0	493	460	0	0	0	0	
14	0	0	0	0	500	468	0	0	0	0	
15	0	0	0	0	507	475	0	0	0	0	
0	0	0	0	0	512	481	0	0	0	0	
1	0	0	0	0	517	487	0	0	0	0	
2	0	0	0	0	522	494	0	0	0	0	
3	0	0	0	0	526	498	0	0	0	0	
4	0	0	0	0	527	500	0	0	0	0	
5	0	0	0	0	526	500	0	0	0	0	
6	0	0	0	0	522	497	0	0	0	0	
7	0	0	0	0	516	492	0	0	0	0	
8	0	0	0	0	508	483	0	0	0	0	
9	0	0	0	0	499	473	0	0	0	0	
10	0	0	0	0	487	462	0	0	0	0	
11	0	0	0	0	475	451	0	0	0	0	
12	0	0	0	0	464	440	0	0	0	0	
13	0	0	0	0	455	432	0	0	0	0	
14	0	0	0	0	448	425	0	0	0	0	
15	0	0	0	0	444	422	0	0	0	0	
0	0	0	0	0	443	422	0	0	0	0	
1	0	0	0	0	445	425	0	0	0	0	
2	0	0	0	0	450	429	0	0	0	0	
3	0	0	0	0	456	435	0	0	0	0	
4	0	0	0	0	462	440	0	0	0	0	
5	0	0	0	0	468	446	0	0	0	0	
6	0	0	0	0	474	452	0	0	0	0	
7	0	0	0	0	479	456	0	0	0	0	
8	0	0	0	0	482	459	0	0	0	0	
9	0	0	0	0	484	460	0	0	0	0	
10	0	0	0	0	484	459	0	0	0	0	
11	0	0	0	0	482	457	0	0	0	0	
12	0	0	0	0	480	453	0	0	0	0	
13	0	0	0	0	476	448	0	0	0	0	
14	0	0	0	0	472	444	0	0	0	0	
15	0	0	0	0	469	440	0	0	0	0	
0	0	0	0	0	467	437	0	0	0	0	
1	0	0	0	0	467	436	0	0	0	0	
2	0	0	0	0	468	436	0	0	0	0	
3	0	0	0	0	470	437	0	0	0	0	
4	0	0	0	0	471	439	0	0	0	0	
5	0	0	0	0	474	442	0	0	0	0	
6	0	0	0	0	477	445	0	0	0	0	
7	0	0	0	0	479	448	0	0	0	0	
8	0	0	0	0	480	449	0	0	0	0	
9	0	0	0	0	480	450	0	0	0	0	
10	0	0	0	0	480	450	0	0	0	0	
11	0	0	0	0	479	450	0	0	0	0	
12	0	0	0	0	478	450	0	0	0	0	
13	0	0	0	0	479	451	0	0	0	0	
14	0	0	0	0	479	453	0	0	0	0	
15	0	0	0	0	482	455	0	0	0	0	
0	0	0	0	0	484	458	0	0	0	0	
1	0	0	0	0	487	461	0	0	0	0	
2	0	0	0	0	491	463	0	0	0	0	
3	0	0	0	0	492	464	0	0	0	0	
4	0	0	0	0	493	465	0	0	0	0	
5	0	0	0	0	493	465	0	0	0	0	
6	0	0	0	0	492	463	0	0	0	0	
7	0	0	0	0	490	461	0	0	0	0	
8	0	0	0	0	487	458	0	0	0	0	
9	0	0	0	0	483	455	0	0	0	0	
10	0	0	0	0	479	452	0	0	0	0	
11	0	0	0	0	475	449	0	0	0	0	
12	0	0	0	0	471	447	0	0	0	0	
13	0	0	0	0	468	446	0	0	0	0	
14	0	0	0	0	466	444	0	0	0	0	
15	0	0	0	0	465	444	0	0	0	0	
0	0	0	0	0	465	444	0	0	0	0	
1	0	0	0	0	466	443	0	0	0	0	
2	0	0	0	0	467	442	0	0	0	0	
3	0	0	0	0	469	442	0	0	0	0	
4	0	0	0	0	470	442	0	0	0	0	
5	0	0	0	0	472	441	0	0	0	0	
6	0	0	0	0	472	440	0	0	0	0	
7	0	0	0	0	472	439	0	0	0	0	
8	0	0	0	0	471	436	0	0	0	0	
9	0	0	0	0	467	433	0	0	0	0	
10	0	0	0	0	464	431	0	0	0	0	
11	0	0	0	0	461	429	0	0	0	0	
12	0	0	0	0	458	427	0	0	0	0	
13	0	0	0	0	456	428	0	0	0	0	
14	0	0	0	0	455	428	0	0	0	0	
15	0	0	0	0	456	431	0	0	0	0	
0	0	0	0	0	458	434	0	0	0	0	
1	0	0	0	0	460	439	0	0	0	0	
2	0	0	0	0	464	444	0	0	0	0	
3	0	0	0	0	469	449	0	0	0	0	
4	0	0	0	0	473	454	0	0	0	0	
5	0	0	0	0	478	458	0	0	0	0	
6	0	0	0	0	481	461	0	0	0	0	
7	0	0	0	0	485	465	0	0	0	0	
8	0	0	0	0	489	468	0	0	0	0	
9	0	0	0	0	495	471	0	0	0	0	
10	0	0	0	0	500	475	0	0	0	0	
11	0	0	0	0	506	480	0	0	0	0	
12	0	0	0	0	512	484	0	0	0	0	
13	0	0	0	0	517	487	0	0	0	0	
14	0	0	0	0	519	488	0	0	0	0	
15	0	0	0	0	519	487	0	0	0	0	
0	0	0	0	0	515	484	0	0	0	0	
1	0	0	0	0	511	480	0	0	0	0	
2	0	0	0	0	505	475	0	0	0	0	
3	0	0	0	0	497	470	0	0	0	0	
4	0	0	0	0	490	465	0	0	0	0	
5	0	0	0	0	482	460	0	0	0	0	
6	0	0	0	0	476	456	0	0	0	0	
7	0	0	0	0	470	452	0	0	0	0	
8	0	0	0	0	465	450	0	0	0	0	
9	0	0	0	0	461	448	0	0	0	0	
10	0	0	0	0	458	446	0	0	0	0	
11	0	0	0	0	457	445	0	0	0	0	
12	0	0	0	0	457	444	0	0	0	0	
13	0	0	0	0	457	443	0	0	0	0	
14	0	0	0	0	458	443	0	0	0	0	
15	0	0	0	0	461	442	0	0	0	0	
0	0	0	0	0	463	442	0	0	0	0	
1	0	0	0	0	466	442	0	0	0	0	
2	0	0	0	0	469	443	0	0	0	0	
3	0	0	0	0	471	442	0	0	0	0	
4	0	0	0	0	472	442	0	0	0	0	
5	0	0	0	0	473	443	0	0	0	0	
6	0	0	0	0	475	444	0	0	0	0	
7	0	0	0	0	476	446	0	0	0	0	
8	0	0	0	0	478	449	0	0	0	0	
9	0	0	0	0	480	454	0	0	0	0	
10	0	0	0	0	485	460	0	0	0	0	
11	0	0	0	0	491	467	0	0	0	0	
12	0	0	0	0	499	477	0	0	0	0	
13	0	0	0	0	508	486	0	0	0	0	
14	0	0	0	0	518	497	0	0	0	0	
15	0	0	0	0	529	508	0	0	0	0	
0	0	0	0	0	541	518	0	0	0	0	
1	0	0	0	0	552	527	0	0	0	0	
2	0	0	0	0	563	536	0	0	0	0	
3	0	0	0	0	570	541	0	0	0	0	
4	0	0	0	0	573	542	0	0	0	0	
5	0	0	0	0	571	539	0	0	0	0	
6	0	0	0	0	563	531	0	0	0	0	
7	0	0	0	0	550	519	0	0	0	0	
8	0	0	0	0	532	504	0	0	0	0	
9	0	0	0	0	511	486	0	0	0	0	
10	0	0	0	0	487	466	0	0	0	0	
11	0	0	0	0	464	446	0	0	0	0	
12	0	0	0	0	440	427	0	0	0	0	
13	0	0	0	0	420	410	0	0	0	0	
14	0	0	0	0	403	397	0	0	0	0	
15	0	0	0	0	392	387	0	0	0	0	
0	0	0	0	0	385	380	0	0	0	0	
1	0	0	0	0	382	377	0	0	0	0	
2	0	0	0	0	385	378	0	0	0	0	
3	0	0	0	0	392	382	0	0	0	0	
4	0	0	0	0	402	388	0	0	0	0	
5	0	0	0	0	415	395	0	0	0	0	
6	0	0	0	0	428	403	0	0	0	0	
7	0	0	0	0	442	412	0	0	0	0	
8	0	0	0	0	455	421	0	0	0	0	
9	0	0	0	0	466	428	0	0	0	0	
10	0	0	0	0	475	435	0	0	0	0	
11	0	0	0	0	480	439	0	0	0	0	
12	0	0	0	0	483	443	0	0	0	0	
13	0	0	0	0	483	445	0	0	0	0	
14	0	0	0	0	482	446	0	0	0	0	
15	0	0	0	0	478	446	0	0	0	0	
0	0	0	0	0	473	444	0	0	0	0	
1	0	0	0	0	467	443	0	0	0	0	
2	0	0	0	0	462	441	0	0	0	0	
3	0	0	0	0	457	439	0	0	0	0	
4	0	0	0	0	454	437	0	0	0	0	
5	0	0	0	0	452	437	0	0	0	0	
6	0	0	0	0	454	440	0	0	0	0	
7	0	0	0	0	460	444	0	0	0	0	
8	0	0	0	0	470	451	0	0	0	0	
9	0	0	0	0	481	461	0	0	0	0	
10	0	0	0	0	494	471	0	0	0	0	
11	0	0	0	0	505	480	0	0	0	0	
12	0	0	0	0	515	486	0	0	0	0	
13	0	0	0	0	519	489	0	0	0	0	
14	0	0	0	0	520	490	0	0	0	0	
15	0	0	0	0	517	487	0	0	0	0	
0	0	0	0	0	510	482	0	0	0	0	
1	0	0	0	0	500	474	0	0	0	0	
2	0	0	0	0	488	466	0	0	0	0	
3	0	0	0	0	476	457	0	0	0	0	
4	0	0	0	0	464	448	0	0	0	0	
5	0	0	0	0	454	441	0	0	0	0	
6	0	0	0	0	446	436	0	0	0	0	
7	0	0	0	0	441	432	0	0	0	0	
8	0	0	0	0	439	430	0	0	0	0	
9	0	0	0	0	439	428	0	0	0	0	
10	0	0	0	0	441	428	0	0	0	0	
11	0	0	0	0	446	430	0	0	0	0	
12	0	0	0	0	452	431	0	0	0	0	
13	0	0	0	0	459	433	0	0	0	0	
14	0	0	0	0	466	436	0	0	0	0	
15	0	0	0	0	473	439	0	0	0	0	
0	0	0	0	0	480	442	0	0	0	0	
1	0	0	0	0	484	444	0	0	0	0	
2	0	0	0	0	488	447	0	0	0	0	
3	0	0	0	0	491	449	0	0	0	0	
4	0	0	0	0	492	451	0	0	0	0	
5	0	0	0	0	492	454	0	0	0	0	
6	0	0	0	0	492	457	0	0	0	0	
7	0	0	0	0	493	462	0	0	0	0	
8	0	0	0	0	494	466	0	0	0	0	
9	0	0	0	0	496	472	0	0	0	0	
10	0	0	0	0	500	478	0	0	0	0	
11	0	0	0	0	505	484	0	0	0	0	
12	0	0	0	0	509	489	0	0	0	0	
13	0	0	0	0	512	492	0	0	0	0	
14	0	0	0	0	513	491	0	0	0	0	
15	0	0	0	0	512	489	0	0	0	0	
0	0	0	0	0	508	483	0	0	0	0	
1	0	0	0	0	502	476	0	0	0	0	
2	0	0	0	0	494	466	0	0	0	0	
3	0	0	0	0	484	455	0	0	0	0	
4	0	0	0	0	474	445	0	0	0	0	
5	0	0	0	0	465	435	0	0	0	0	
6	0	0	0	0	456	428	0	0	0	0	
7	0	0	0	0	449	423	0	0	0	0	
8	0	0	0	0	445	420	0	0	0	0	
9	0	0	0	0	444	423	0	0	0	0	
10	0	0	0	0	448	428	0	0	0	0	
11	0	0	0	0	455	438	0	0	0	0	
12	0	0	0	0	465	449	0	0	0	0	
13	0	0	0	0	477	460	0	0	0	0	
14	0	0	0	0	488	472	0	0	0	0	
15	0	0	0	0	499	480	0	0	0	0	
0	0	0	0	0	507	487	0	0	0	0	
1	0	0	0	0	511	488	0	0	0	0	
2	0	0	0	0	512	487	0	0	0	0	
3	0	0	0	0	509	482	0	0	0	0	
4	0	0	0	0	502	473	0	0	0	0	
5	0	0	0	0	493	463	0	0	0	0	
6	0	0	0	0	482	452	0	0	0	0	
7	0	0	0	0	472	441	0	0	0	0	
8	0	0	0	0	463	432	0	0	0	0	
9	0	0	0	0	455	426	0	0	0	0	
10	0	0	0	0	451	422	0	0	0	0	
11	0	0	0	0	449	420	0	0	0	0	
12	0	0	0	0	449	421	0	0	0	0	
13	0	0	0	0	451	424	0	0	0	0	
14	0	0	0	0	455	428	0	0	0	0	
15	0	0	0	0	461	433	0	0	0	0	
0	0	0	0	0	466	438	0	0	0	0	
1	0	0	0	0	471	443	0	0	0	0	
2	0	0	0	0	475	447	0	0	0	0	
3	0	0	0	0	477	448	0	0	0	0	
4	0	0	0	0	477	447	0	0	0	0	
5	0	0	0	0	473	444	0	0	0	0	
6	0	0	0	0	466	437	0	0	0	0	
7	0	0	0	0	455	427	0	0	0	0	
8	0	0	0	0	440	414	0	0	0	0	
9	0	0	0	0	422	396	0	0	0	0	
10	0	0	0	0	401	377	0	0	0	0	
11	0	0	0	0	378	357	0	0	0	0	
12	0	0	0	0	355	336	0	0	0	0	
13	0	0	0	0	331	316	0	0	0	0	
14	0	0	0	0	309	296	0	0	0	0	
15	0	0	0	0	289	278	0	0	0	0	
0	0	0	0	0	271	263	0	0	0	0	
1	0	0	0	0	257	250	0	0	0	0	
2	0	0	0	0	247	240	0	0	0	0	
3	0	0	0	0	241	234	0	0	0	0	
4	0	0	0	0	237	230	0	0	0	0	
5	0	0	0	0	236	228	0	0	0	0	
6	0	0	0	0	237	227	0	0	0	0	
7	0	0	0	0	239	227	0	0	0	0	
8	0	0	0	0	241	227	0	0	0	0	
9	0	0	0	0	244	227	0	0	0	0	
10	0	0	0	0	249	229	0	0	0	0	
11	0	0	0	0	256	232	0	0	0	0	
12	0	0	0	0	263	236	0	0	0	0	
13	0	0	0	0	273	242	0	0	0	0	
14	0	0	0	0	284	250	0	0	0	0	
15	0	0	0	0	297	260	0	0	0	0	
0	0	0	0	0	313	273	0	0	0	0	
1	0	0	0	0	331	288	0	0	0	0	
2	0	0	0	0	350	305	0	0	0	0	
3	0	0	0	0	372	326	0	0	0	0	
4	0	0	0	0	396	348	0	0	0	0	
5	0	0	0	0	421	373	0	0	0	0	
6	0	0	0	0	447	400	0	0	0	0	
7	0	0	0	0	474	428	0	0	0	0	
8	0	0	0	0	501	456	0	0	0	0	
9	0	0	0	0	526	483	0	0	0	0	
10	0	0	0	0	549	508	0	0	0	0	
11	0	0	0	0	568	529	0	0	0	0	
12	0	0	0	0	582	545	0	0	0	0	
13	0	0	0	0	590	555	0	0	0	0	
14	0	0	0	0	592	558	0	0	0	0	
15	0	0	0	0	588	555	0	0	0	0	
0	0	0	0	0	578	545	0	0	0	0	
1	0	0	0	0	563	532	0	0	0	0	
2	0	0	0	0	543	515	0	0	0	0	
3	0	0	0	0	521	496	0	0	0	0	
4	0	0	0	0	499	476	0	0	0	0	
5	0	0	0	0	476	456	0	0	0	0	
6	0	0	0	0	455	439	0	0	0	0	
7	0	0	0	0	437	423	0	0	0	0	
8	0	0	0	0	422	413	0	0	0	0	
9	0	0	0	0	413	405	0	0	0	0	
10	0	0	0	0	409	402	0	0	0	0	
11	0	0	0	0	410	403	0	0	0	0	
12	0	0	0	0	416	408	0	0	0	0	
13	0	0	0	0	426	417	0	0	0	0	
14	0	0	0	0	440	429	0	0	0	0	
15	0	0	0	0	458	443	0	0	0	0	
0	0	0	0	0	478	459	0	0	0	0	
1	0	0	0	0	499	476	0	0	0	0	
2	0	0	0	0	520	493	0	0	0	0	
3	0	0	0	0	540	509	0	0	0	0	
4	0	0	0	0	558	523	0	0	0	0	
5	0	0	0	0	571	532	0	0	0	0	
6	0	0	0	0	578	537	0	0	0	0	
7	0	0	0	0	580	539	0	0	0	0	
8	0	0	0	0	577	535	0	0	0	0	
9	0	0	0	0	568	526	0	0	0	0	
10	0	0	0	0	554	514	0	0	0	0	
11	0	0	0	0	536	499	0	0	0	0	
12	0	0	0	0	516	485	0	0	0	0	
13	0	0	0	0	496	470	0	0	0	0	
14	0	0	0	0	476	457	0	0	0	0	
15	0	0	0	0	460	447	0	0	0	0	
0	0	0	0	0	446	438	0	0	0	0	
1	0	0	0	0	438	435	0	0	0	0	
2	0	0	0	0	436	434	0	0	0	0	
3	0	0	0	0	438	436	0	0	0	0	
4	0	0	0	0	444	441	0	0	0	0	
5	0	0	0	0	452	445	0	0	0	0	
6	0	0	0	0	462	451	0	0	0	0	
7	0	0	0	0	472	454	0	0	0	0	
8	0	0	0	0	481	457	0	0	0	0	
9	0	0	0	0	488	457	0	0	0	0	
10	0	0	0	0	492	456	0	0	0	0	
11	0	0	0	0	493	453	0	0	0	0	
12	0	0	0	0	491	449	0	0	0	0	
13	0	0	0	0	486	443	0	0	0	0	
14	0	0	0	0	479	436	0	0	0	0	
15	0	0	0	0	470	430	0	0	0	0	
0	0	0	0	0	462	426	0	0	0	0	
1	0	0	0	0	454	423	0	0	0	0	
2	0	0	0	0	449	423	0	0	0	0	
3	0	0	0	0	447	424	0	0	0	0	
4	0	0	0	0	446	428	0	0	0	0	
5	0	0	0	0	448	432	0	0	0	0	
6	0	0	0	0	452	438	0	0	0	0	
7	0	0	0	0	457	443	0	0	0	0	
8	0	0	0	0	463	447	0	0	0	0	
9	0	0	0	0	468	450	0	0	0	0	
10	0	0	0	0	473	452	0	0	0	0	
11	0	0	0	0	478	454	0	0	0	0	
12	0	0	0	0	483	454	0	0	0	0	
13	0	0	0	0	487	454	0	0	0	0	
14	0	0	0	0	490	454	0	0	0	0	
15	0	0	0	0	493	454	0	0	0	0	
0	0	0	0	0	495	454	0	0	0	0	
1	0	0	0	0	497	455	0	0	0	0	
2	0	0	0	0	498	456	0	0	0	0	
3	0	0	0	0	499	459	0	0	0	0	
4	0	0	0	0	500	463	0	0	0	0	
5	0	0	0	0	502	468	0	0	0	0	
6	0	0	0	0	504	472	0	0	0	0	
7	0	0	0	0	505	478	0	0	0	0	
8	0	0	0	0	507	483	0	0	0	0	
9	0	0	0	0	508	488	0	0	0	0	
10	0	0	0	0	511	492	0	0	0	0	
11	0	0	0	0	514	497	0	0	0	0	
12	0	0	0	0	517	500	0	0	0	0	
13	0	0	0	0	521	503	0	0	0	0	
14	0	0	0	0	524	505	0	0	0	0	
15	0	0	0	0	527	506	0	0	0	0	
0	0	0	0	0	528	505	0	0	0	0	
1	0	0	0	0	529	503	0	0	0	0	
2	0	0	0	0	528	500	0	0	0	0	
3	0	0	0	0	526	496	0	0	0	0	
4	0	0	0	0	522	491	0	0	0	0	
5	0	0	0	0	518	487	0	0	0	0	
6	0	0	0	0	514	482	0	0	0	0	
7	0	0	0	0	511	479	0	0	0	0	
8	0	0	0	0	508	478	0	0	0	0	
9	0	0	0	0	507	477	0	0	0	0	
10	0	0	0	0	505	477	0	0	0	0	
11	0	0	0	0	504	477	0	0	0	0	
12	0	0	0	0	502	476	0	0	0	0	
13	0	0	0	0	497	473	0	0	0	0	
14	0	0	0	0	492	470	0	0	0	0	
15	0	0	0	0	487	465	0	0	0	0	
0	0	0	0	0	481	460	0	0	0	0	
1	0	0	0	0	476	456	0	0	0	0	
2	0	0	0	0	473	454	0	0	0	0	
3	0	0	0	0	474	454	0	0	0	0	
4	0	0	0	0	478	457	0	0	0	0	
5	0	0	0	0	484	462	0	0	0	0	
6	0	0	0	0	492	467	0	0	0	0	
7	0	0	0	0	500	472	0	0	0	0	
8	0	0	0	0	508	477	0	0	0	0	
9	0	0	0	0	515	481	0	0	0	0	
10	0	0	0	0	520	484	0	0	0	0	
11	0	0	0	0	524	485	0	0	0	0	
12	0	0	0	0	526	486	0	0	0	0	
13	0	0	0	0	526	487	0	0	0	0	
14	0	0	0	0	525	486	0	0	0	0	
15	0	0	0	0	521	484	0	0	0	0	
0	0	0	0	0	515	481	0	0	0	0	
1	0	0	0	0	508	477	0	0	0	0	
2	0	0	0	0	499	472	0	0	0	0	
3	0	0	0	0	489	465	0	0	0	0	
4	0	0	0	0	478	458	0	0	0	0	
5	0	0	0	0	469	451	0	0	0	0	
6	0	0	0	0	460	444	0	0	0	0	
7	0	0	0	0	453	438	0	0	0	0	
8	0	0	0	0	447	432	0	0	0	0	
9	0	0	0	0	443	426	0	0	0	0	
10	0	0	0	0	440	420	0	0	0	0	
11	0	0	0	0	437	415	0	0	0	0	
12	0	0	0	0	435	411	0	0	0	0	
13	0	0	0	0	434	407	0	0	0	0	
14	0	0	0	0	434	404	0	0	0	0	
15	0	0	0	0	434	402	0	0	0	0	
0	0	0	0	0	435	402	0	0	0	0	
1	0	0	0	0	438	404	0	0	0	0	
2	0	0	0	0	441	408	0	0	0	0	
3	0	0	0	0	447	414	0	0	0	0	
4	0	0	0	0	453	421	0	0	0	0	
5	0	0	0	0	460	429	0	0	0	0	
6	0	0	0	0	469	439	0	0	0	0	
7	0	0	0	0	477	448	0	0	0	0	
8	0	0	0	0	485	456	0	0	0	0	
9	0	0	0	0	492	463	0	0	0	0	
10	0	0	0	0	497	468	0	0	0	0	
11	0	0	0	0	499	471	0	0	0	0	
12	0	0	0	0	500	471	0	0	0	0	
13	0	0	0	0	498	468	0	0	0	0	
14	0	0	0	0	493	463	0	0	0	0	
15	0	0	0	0	489	459	0	0	0	0	
0	0	0	0	0	483	453	0	0	0	0	
1	0	0	0	0	478	448	0	0	0	0	
2	0	0	0	0	473	443	0	0	0	0	
3	0	0	0	0	469	440	0	0	0	0	
4	0	0	0	0	465	437	0	0	0	0	
5	0	0	0	0	464	437	0	0	0	0	
6	0	0	0	0	464	438	0	0	0	0	
7	0	0	0	0	465	439	0	0	0	0	
8	0	0	0	0	466	440	0	0	0	0	
9	0	0	0	0	468	443	0	0	0	0	
10	0	0	0	0	472	446	0	0	0	0	
11	0	0	0	0	475	448	0	0	0	0	
12	0	0	0	0	478	450	0	0	0	0	
13	0	0	0	0	480	451	0	0	0	0	
14	0	0	0	0	483	452	0	0	0	0	
15	0	0	0	0	485	453	0	0	0	0	
0	0	0	0	0	487	453	0	0	0	0	
1	0	0	0	0	488	453	0	0	0	0	
2	0	0	0	0	489	454	0	0	0	0	
3	0	0	0	0	492	456	0	0	0	0	
4	0	0	0	0	495	460	0	0	0	0	
5	0	0	0	0	499	464	0	0	0	0	
6	0	0	0	0	503	469	0	0	0	0	
7	0	0	0	0	508	475	0	0	0	0	
8	0	0	0	0	511	479	0	0	0	0	
9	0	0	0	0	515	483	0	0	0	0	
10	0	0	0	0	517	485	0	0	0	0	
11	0	0	0	0	518	487	0	0	0	0	
12	0	0	0	0	518	487	0	0	0	0	
13	0	0	0	0	517	486	0	0	0	0	
14	0	0	0	0	515	484	0	0	0	0	
15	0	0	0	0	512	482	0	0	0	0	
0	0	0	0	0	509	478	0	0	0	0	
1	0	0	0	0	506	474	0	0	0	0	
2	0	0	0	0	503	471	0	0	0	0	
3	0	0	0	0	502	468	0	0	0	0	
4	0	0	0	0	500	465	0	0	0	0	
5	0	0	0	0	498	462	0	0	0	0	
6	0	0	0	0	495	458	0	0	0	0	
7	0	0	0	0	492	455	0	0	0	0	
8	0	0	0	0	488	451	0	0	0	0	
9	0	0	0	0	483	446	0	0	0	0	
10	0	0	0	0	476	440	0	0	0	0	
11	0	0	0	0	469	435	0	0	0	0	
12	0	0	0	0	460	428	0	0	0	0	
13	0	0	0	0	452	423	0	0	0	0	
14	0	0	0	0	445	419	0	0	0	0	
15	0	0	0	0	439	415	0	0	0	0	
0	0	0	0	0	435	413	0	0	0	0	
1	0	0	0	0	434	414	0	0	0	0	
2	0	0	0	0	436	415	0	0	0	0	
3	0	0	0	0	440	419	0	0	0	0	
4	0	0	0	0	447	424	0	0	0	0	
5	0	0	0	0	455	429	0	0	0	0	
6	0	0	0	0	464	435	0	0	0	0	
7	0	0	0	0	474	441	0	0	0	0	
8	0	0	0	0	486	448	0	0	0	0	
9	0	0	0	0	496	455	0	0	0	0	
10	0	0	0	0	506	460	0	0	0	0	
11	0	0	0	0	513	465	0	0	0	0	
12	0	0	0	0	518	468	0	0	0	0	
13	0	0	0	0	519	468	0	0	0	0	
14	0	0	0	0	515	466	0	0	0	0	
15	0	0	0	0	508	461	0	0	0	0	
0	0	0	0	0	497	455	0	0	0	0	
1	0	0	0	0	486	448	0	0	0	0	
2	0	0	0	0	473	440	0	0	0	0	
3	0	0	0	0	461	434	0	0	0	0	
4	0	0	0	0	451	428	0	0	0	0	
5	0	0	0	0	444	425	0	0	0	0	
6	0	0	0	0	440	424	0	0	0	0	
7	0	0	0	0	441	426	0	0	0	0	
8	0	0	0	0	444	429	0	0	0	0	
9	0	0	0	0	451	434	0	0	0	0	
10	0	0	0	0	460	440	0	0	0	0	
11	0	0	0	0	470	446	0	0	0	0	
12	0	0	0	0	480	451	0	0	0	0	
13	0	0	0	0	487	454	0	0	0	0	
14	0	0	0	0	493	454	0	0	0	0	
15	0	0	0	0	494	453	0	0	0	0	
0	0	0	0	0	492	448	0	0	0	0	
1	0	0	0	0	487	441	0	0	0	0	
2	0	0	0	0	480	434	0	0	0	0	
3	0	0	0	0	471	427	0	0	0	0	
4	0	0	0	0	463	423	0	0	0	0	
5	0	0	0	0	456	419	0	0	0	0	
6	0	0	0	0	452	417	0	0	0	0	
7	0	0	0	0	449	418	0	0	0	0	
8	0	0	0	0	448	420	0	0	0	0	
9	0	0	0	0	449	423	0	0	0	0	
10	0	0	0	0	451	427	0	0	0	0	
11	0	0	0	0	454	431	0	0	0	0	
12	0	0	0	0	457	434	0	0	0	0	
13	0	0	0	0	460	436	0	0	0	0	
14	0	0	0	0	463	437	0	0	0	0	
15	0	0	0	0	464	437	0	0	0	0	
0	0	0	0	0	466	435	0	0	0	0	
1	0	0	0	0	466	433	0	0	0	0	
2	0	0	0	0	466	431	0	0	0	0	
3	0	0	0	0	466	428	0	0	0	0	
4	0	0	0	0	466	428	0	0	0	0	
5	0	0	0	0	467	428	0	0	0	0	
6	0	0	0	0	469	430	0	0	0	0	
7	0	0	0	0	471	432	0	0	0	0	
8	0	0	0	0	475	438	0	0	0	0	
9	0	0	0	0	480	445	0	0	0	0	
10	0	0	0	0	486	454	0	0	0	0	
11	0	0	0	0	494	463	0	0	0	0	
12	0	0	0	0	501	473	0	0	0	0	
13	0	0	0	0	509	484	0	0	0	0	
14	0	0	0	0	517	493	0	0	0	0	
15	0	0	0	0	524	500	0	0	0	0	
0	0	0	0	0	528	505	0	0	0	0	
1	0	0	0	0	531	507	0	0	0	0	
2	0	0	0	0	533	507	0	0	0	0	
3	0	0	0	0	534	505	0	0	0	0	
4	0	0	0	0	532	501	0	0	0	0	
5	0	0	0	0	528	495	0	0	0	0	
6	0	0	0	0	523	486	0	0	0	0	
7	0	0	0	0	515	477	0	0	0	0	
8	0	0	0	0	506	467	0	0	0	0	
9	0	0	0	0	496	456	0	0	0	0	
10	0	0	0	0	486	446	0	0	0	0	
11	0	0	0	0	477	438	0	0	0	0	
12	0	0	0	0	470	433	0	0	0	0	
13	0	0	0	0	466	431	0	0	0	0	
14	0	0	0	0	466	433	0	0	0	0	
15	0	0	0	0	470	439	0	0	0	0	
0	0	0	0	0	478	448	0	0	0	0	
1	0	0	0	0	489	460	0	0	0	0	
2	0	0	0	0	503	473	0	0	0	0	
3	0	0	0	0	515	485	0	0	0	0	
4	0	0	0	0	526	495	0	0	0	0	
5	0	0	0	0	534	502	0	0	0	0	
6	0	0	0	0	539	507	0	0	0	0	
7	0	0	0	0	541	508	0	0	0	0	
8	0	0	0	0	539	506	0	0	0	0	
9	0	0	0	0	534	501	0	0	0	0	
10	0	0	0	0	527	496	0	0	0	0	
11	0	0	0	0	521	489	0	0	0	0	
12	0	0	0	0	514	484	0	0	0	0	
13	0	0	0	0	509	480	0	0	0	0	
14	0	0	0	0	503	475	0	0	0	0	
15	0	0	0	0	497	469	0	0	0	0	
0	0	0	0	0	491	464	0	0	0	0	
1	0	0	0	0	485	459	0	0	0	0	
2	0	0	0	0	480	455	0	0	0	0	
3	0	0	0	0	474	450	0	0	0	0	
4	0	0	0	0	468	446	0	0	0	0	
5	0	0	0	0	464	443	0	0	0	0	
6	0	0	0	0	461	440	0	0	0	0	
7	0	0	0	0	458	437	0	0	0	0	
8	0	0	0	0	455	435	0	0	0	0	
9	0	0	0	0	454	433	0	0	0	0	
10	0	0	0	0	455	432	0	0	0	0	
11	0	0	0	0	457	432	0	0	0	0	
12	0	0	0	0	461	432	0	0	0	0	
13	0	0	0	0	465	433	0	0	0	0	
14	0	0	0	0	470	434	0	0	0	0	
15	0	0	0	0	475	436	0	0	0	0	
0	0	0	0	0	481	439	0	0	0	0	
1	0	0	0	0	486	442	0	0	0	0	
2	0	0	0	0	489	444	0	0	0	0	
3	0	0	0	0	491	446	0	0	0	0	
4	0	0	0	0	492	448	0	0	0	0	
5	0	0	0	0	492	448	0	0	0	0	
6	0	0	0	0	491	449	0	0	0	0	
7	0	0	0	0	488	450	0	0	0	0	
8	0	0	0	0	484	450	0	0	0	0	
9	0	0	0	0	482	449	0	0	0	0	
10	0	0	0	0	479	449	0	0	0	0	
11	0	0	0	0	477	449	0	0	0	0	
12	0	0	0	0	475	448	0	0	0	0	
13	0	0	0	0	473	448	0	0	0	0	
14	0	0	0	0	472	447	0	0	0	0	
15	0	0	0	0	473	448	0	0	0	0	
0	0	0	0	0	475	448	0	0	0	0	
1	0	0	0	0	479	451	0	0	0	0	
2	0	0	0	0	484	455	0	0	0	0	
3	0	0	0	0	490	458	0	0	0	0	
4	0	0	0	0	496	463	0	0	0	0	
5	0	0	0	0	502	467	0	0	0	0	
6	0	0	0	0	505	469	0	0	0	0	
7	0	0	0	0	507	471	0	0	0	0	
8	0	0	0	0	507	472	0	0	0	0	
9	0	0	0	0	506	472	0	0	0	0	
10	0	0	0	0	504	471	0	0	0	0	
11	0	0	0	0	501	468	0	0	0	0	
12	0	0	0	0	496	465	0	0	0	0	
13	0	0	0	0	490	460	0	0	0	0	
14	0	0	0	0	484	455	0	0	0	0	
15	0	0	0	0	479	451	0	0	0	0	
0	0	0	0	0	476	448	0	0	0	0	
1	0	0	0	0	474	446	0	0	0	0	
2	0	0	0	0	474	445	0	0	0	0	
3	0	0	0	0	477	446	0	0	0	0	
4	0	0	0	0	480	448	0	0	0	0	
5	0	0	0	0	486	451	0	0	0	0	
6	0	0	0	0	492	454	0	0	0	0	
7	0	0	0	0	497	458	0	0	0	0	
8	0	0	0	0	504	461	0	0	0	0	
9	0	0	0	0	509	464	0	0	0	0	
10	0	0	0	0	514	468	0	0	0	0	
11	0	0	0	0	518	471	0	0	0	0	
12	0	0	0	0	520	473	0	0	0	0	
13	0	0	0	0	521	476	0	0	0	0	
14	0	0	0	0	520	477	0	0	0	0	
15	0	0	0	0	519	478	0	0	0	0	
0	0	0	0	0	517	479	0	0	0	0	
1	0	0	0	0	514	479	0	0	0	0	
2	0	0	0	0	511	480	0	0	0	0	
3	0	0	0	0	508	480	0	0	0	0	
4	0	0	0	0	504	478	0	0	0	0	
5	0	0	0	0	500	475	0	0	0	0	
6	0	0	0	0	496	472	0	0	0	0	
7	0	0	0	0	493	468	0	0	0	0	
8	0	0	0	0	490	464	0	0	0	0	
9	0	0	0	0	487	458	0	0	0	0	
10	0	0	0	0	483	453	0	0	0	0	
11	0	0	0	0	481	448	0	0	0	0	
12	0	0	0	0	479	445	0	0	0	0	
13	0	0	0	0	477	443	0	0	0	0	
14	0	0	0	0	476	441	0	0	0	0	
15	0	0	0	0	477	441	0	0	0	0	
0	0	0	0	0	477	442	0	0	0	0	
1	0	0	0	0	479	445	0	0	0	0	
2	0	0	0	0	481	448	0	0	0	0	
3	0	0	0	0	483	451	0	0	0	0	
4	0	0	0	0	486	455	0	0	0	0	
5	0	0	0	0	488	460	0	0	0	0	
6	0	0	0	0	491	463	0	0	0	0	
7	0	0	0	0	492	464	0	0	0	0	
8	0	0	0	0	492	464	0	0	0	0	
9	0	0	0	0	491	463	0	0	0	0	
10	0	0	0	0	488	460	0	0	0	0	
11	0	0	0	0	485	456	0	0	0	0	
12	0	0	0	0	481	451	0	0	0	0	
13	0	0	0	0	477	446	0	0	0	0	
14	0	0	0	0	473	440	0	0	0	0	
15	0	0	0	0	470	436	0	0	0	0	
0	0	0	0	0	468	433	0	0	0	0	
1	0	0	0	0	467	432	0	0	0	0	
2	0	0	0	0	469	432	0	0	0	0	
3	0	0	0	0	472	435	0	0	0	0	
4	0	0	0	0	476	437	0	0	0	0	
5	0	0	0	0	480	441	0	0	0	0	
6	0	0	0	0	484	445	0	0	0	0	
7	0	0	0	0	487	449	0	0	0	0	
8	0	0	0	0	490	452	0	0	0	0	
9	0	0	0	0	491	455	0	0	0	0	
10	0	0	0	0	492	457	0	0	0	0	
11	0	0	0	0	492	458	0	0	0	0	
12	0	0	0	0	491	459	0	0	0	0	
13	0	0	0	0	489	458	0	0	0	0	
14	0	0	0	0	486	456	0	0	0	0	
15	0	0	0	0	483	454	0	0	0	0	
0	0	0	0	0	479	450	0	0	0	0	
1	0	0	0	0	474	445	0	0	0	0	
2	0	0	0	0	470	440	0	0	0	0	
3	0	0	0	0	466	435	0	0	0	0	
4	0	0	0	0	463	432	0	0	0	0	
5	0	0	0	0	463	430	0	0	0	0	
6	0	0	0	0	464	431	0	0	0	0	
7	0	0	0	0	467	433	0	0	0	0	
8	0	0	0	0	472	438	0	0	0	0	
9	0	0	0	0	478	444	0	0	0	0	
10	0	0	0	0	484	449	0	0	0	0	
11	0	0	0	0	488	454	0	0	0	0	
12	0	0	0	0	491	457	0	0	0	0	
13	0	0	0	0	491	459	0	0	0	0	
14	0	0	0	0	490	459	0	0	0	0	
15	0	0	0	0	487	457	0	0	0	0	
0	0	0	0	0	483	454	0	0	0	0	
1	0	0	0	0	479	451	0	0	0	0	
2	0	0	0	0	474	446	0	0	0	0	
3	0	0	0	0	471	444	0	0	0	0	
4	0	0	0	0	468	440	0	0	0	0	
5	0	0	0	0	466	439	0	0	0	0	
6	0	0	0	0	466	437	0	0	0	0	
7	0	0	0	0	466	437	0	0	0	0	
8	0	0	0	0	469	438	0	0	0	0	
9	0	0	0	0	472	439	0	0	0	0	
10	0	0	0	0	476	443	0	0	0	0	
11	0	0	0	0	482	448	0	0	0	0	
12	0	0	0	0	489	454	0	0	0	0	
13	0	0	0	0	496	461	0	0	0	0	
14	0	0	0	0	504	469	0	0	0	0	
15	0	0	0	0	511	476	0	0	0	0	
0	0	0	0	0	517	484	0	0	0	0	
1	0	0	0	0	523	491	0	0	0	0	
2	0	0	0	0	528	497	0	0	0	0	
3	0	0	0	0	531	501	0	0	0	0	
4	0	0	0	0	534	503	0	0	0	0	
5	0	0	0	0	535	504	0	0	0	0	
6	0	0	0	0	533	502	0	0	0	0	
7	0	0	0	0	531	499	0	0	0	0	
8	0	0	0	0	527	495	0	0	0	0	
9	0	0	0	0	522	488	0	0	0	0	
10	0	0	0	0	515	480	0	0	0	0	
11	0	0	0	0	507	472	0	0	0	0	
12	0	0	0	0	499	465	0	0	0	0	
13	0	0	0	0	491	457	0	0	0	0	
14	0	0	0	0	483	451	0	0	0	0	
15	0	0	0	0	477	446	0	0	0	0	
0	0	0	0	0	473	444	0	0	0	0	
1	0	0	0	0	472	444	0	0	0	0	
2	0	0	0	0	471	445	0	0	0	0	
3	0	0	0	0	472	447	0	0	0	0	
4	0	0	0	0	472	448	0	0	0	0	
5	0	0	0	0	471	448	0	0	0	0	
6	0	0	0	0	470	448	0	0	0	0	
7	0	0	0	0	468	446	0	0	0	0	
8	0	0	0	0	465	443	0	0	0	0	
9	0	0	0	0	463	439	0	0	0	0	
10	0	0	0	0	460	435	0	0	0	0	
11	0	0	0	0	459	433	0	0	0	0	
12	0	0	0	0	459	431	0	0	0	0	
13	0	0	0	0	461	432	0	0	0	0	
14	0	0	0	0	464	434	0	0	0	0	
15	0	0	0	0	471	438	0	0	0	0	
0	0	0	0	0	478	443	0	0	0	0	
1	0	0	0	0	486	450	0	0	0	0	
2	0	0	0	0	494	457	0	0	0	0	
3	0	0	0	0	503	466	0	0	0	0	
4	0	0	0	0	512	475	0	0	0	0	
5	0	0	0	0	521	485	0	0	0	0	
6	0	0	0	0	530	494	0	0	0	0	
7	0	0	0	0	538	504	0	0	0	0	
8	0	0	0	0	544	511	0	0	0	0	
9	0	0	0	0	548	518	0	0	0	0	
10	0	0	0	0	550	519	0	0	0	0	
11	0	0	0	0	546	517	0	0	0	0	
12	0	0	0	0	539	510	0	0	0	0	
13	0	0	0	0	527	499	0	0	0	0	
14	0	0	0	0	511	486	0	0	0	0	
15	0	0	0	0	494	469	0	0	0	0	
0	0	0	0	0	475	452	0	0	0	0	
1	0	0	0	0	455	434	0	0	0	0	
2	0	0	0	0	438	418	0	0	0	0	
3	0	0	0	0	423	404	0	0	0	0	
4	0	0	0	0	412	395	0	0	0	0	
5	0	0	0	0	406	388	0	0	0	0	
6	0	0	0	0	404	387	0	0	0	0	
7	0	0	0	0	407	389	0	0	0	0	
8	0	0	0	0	414	394	0	0	0	0	
9	0	0	0	0	424	404	0	0	0	0	
10	0	0	0	0	438	415	0	0	0	0	
11	0	0	0	0	451	428	0	0	0	0	
12	0	0	0	0	467	441	0	0	0	0	
13	0	0	0	0	480	452	0	0	0	0	
14	0	0	0	0	492	463	0	0	0	0	
15	0	0	0	0	501	470	0	0	0	0	
0	0	0	0	0	507	475	0	0	0	0	
1	0	0	0	0	509	476	0	0	0	0	
2	0	0	0	0	507	474	0	0	0	0	
3	0	0	0	0	503	471	0	0	0	0	
4	0	0	0	0	496	464	0	0	0	0	
5	0	0	0	0	487	457	0	0	0	0	
6	0	0	0	0	478	449	0	0	0	0	
7	0	0	0	0	468	442	0	0	0	0	
8	0	0	0	0	461	436	0	0	0	0	
9	0	0	0	0	455	432	0	0	0	0	
10	0	0	0	0	452	430	0	0	0	0	
11	0	0	0	0	452	431	0	0	0	0	
12	0	0	0	0	454	433	0	0	0	0	
13	0	0	0	0	459	438	0	0	0	0	
14	0	0	0	0	466	445	0	0	0	0	
15	0	0	0	0	476	453	0	0	0	0	
0	0	0	0	0	485	462	0	0	0	0	
1	0	0	0	0	495	470	0	0	0	0	
2	0	0	0	0	504	478	0	0	0	0	
3	0	0	0	0	512	484	0	0	0	0	
4	0	0	0	0	516	487	0	0	0	0	
5	0	0	0	0	518	487	0	0	0	0	
6	0	0	0	0	516	485	0	0	0	0	
7	0	0	0	0	512	481	0	0	0	0	
8	0	0	0	0	507	477	0	0	0	0	
9	0	0	0	0	502	472	0	0	0	0	
10	0	0	0	0	496	468	0	0	0	0	
11	0	0	0	0	493	466	0	0	0	0	
12	0	0	0	0	491	465	0	0	0	0	
13	0	0	0	0	490	464	0	0	0	0	
14	0	0	0	0	491	465	0	0	0	0	
15	0	0	0	0	491	465	0	0	0	0	
0	0	0	0	0	492	467	0	0	0	0	
1	0	0	0	0	494	468	0	0	0	0	
2	0	0	0	0	496	470	0	0	0	0	
3	0	0	0	0	497	472	0	0	0	0	
4	0	0	0	0	499	473	0	0	0	0	
5	0	0	0	0	500	474	0	0	0	0	
6	0	0	0	0	502	476	0	0	0	0	
7	0	0	0	0	503	478	0	0	0	0	
8	0	0	0	0	505	480	0	0	0	0	
9	0	0	0	0	507	482	0	0	0	0	
10	0	0	0	0	508	484	0	0	0	0	
11	0	0	0	0	510	485	0	0	0	0	
12	0	0	0	0	510	484	0	0	0	0	
13	0	0	0	0	507	481	0	0	0	0	
14	0	0	0	0	501	475	0	0	0	0	
15	0	0	0	0	493	467	0	0	0	0	
0	0	0	0	0	484	457	0	0	0	0	
1	0	0	0	0	473	446	0	0	0	0	
2	0	0	0	0	462	436	0	0	0	0	
3	0	0	0	0	453	427	0	0	0	0	
4	0	0	0	0	445	419	0	0	0	0	
5	0	0	0	0	441	416	0	0	0	0	
6	0	0	0	0	440	416	0	0	0	0	
7	0	0	0	0	442	419	0	0	0	0	
8	0	0	0	0	448	425	0	0	0	0	
9	0	0	0	0	458	435	0	0	0	0	
10	0	0	0	0	470	446	0	0	0	0	
11	0	0	0	0	483	458	0	0	0	0	
12	0	0	0	0	497	470	0	0	0	0	
13	0	0	0	0	511	482	0	0	0	0	
14	0	0	0	0	523	492	0	0	0	0	
15	0	0	0	0	532	501	0	0	0	0	
0	0	0	0	0	539	506	0	0	0	0	
1	0	0	0	0	541	508	0	0	0	0	
2	0	0	0	0	541	508	0	0	0	0	
3	0	0	0	0	537	504	0	0	0	0	
4	0	0	0	0	532	500	0	0	0	0	
5	0	0	0	0	525	495	0	0	0	0	
6	0	0	0	0	518	490	0	0	0	0	
7	0	0	0	0	511	484	0	0	0	0	
8	0	0	0	0	506	481	0	0	0	0	
9	0	0	0	0	502	478	0	0	0	0	
10	0	0	0	0	498	475	0	0	0	0	
11	0	0	0	0	494	471	0	0	0	0	
12	0	0	0	0	487	466	0	0	0	0	
13	0	0	0	0	480	460	0	0	0	0	
14	0	0	0	0	472	452	0	0	0	0	
15	0	0	0	0	464	444	0	0	0	0	
0	0	0	0	0	455	436	0	0	0	0	
1	0	0	0	0	447	428	0	0	0	0	
2	0	0	0	0	440	422	0	0	0	0	
3	0	0	0	0	435	416	0	0	0	0	
4	0	0	0	0	433	412	0	0	0	0	
5	0	0	0	0	432	409	0	0	0	0	
6	0	0	0	0	434	409	0	0	0	0	
7	0	0	0	0	438	411	0	0	0	0	
8	0	0	0	0	443	413	0	0	0	0	
9	0	0	0	0	449	416	0	0	0	0	
10	0	0	0	0	455	420	0	0	0	0	
11	0	0	0	0	460	424	0	0	0	0	
12	0	0	0	0	465	428	0	0	0	0	
13	0	0	0	0	470	432	0	0	0	0	
14	0	0	0	0	472	436	0	0	0	0	
15	0	0	0	0	475	440	0	0	0	0	
0	0	0	0	0	478	444	0	0	0	0	
1	0	0	0	0	479	448	0	0	0	0	
2	0	0	0	0	479	451	0	0	0	0	
3	0	0	0	0	480	453	0	0	0	0	
4	0	0	0	0	479	454	0	0	0	0	
5	0	0	0	0	478	454	0	0	0	0	
6	0	0	0	0	476	454	0	0	0	0	
7	0	0	0	0	475	452	0	0	0	0	
8	0	0	0	0	474	450	0	0	0	0	
9	0	0	0	0	473	448	0	0	0	0	
10	0	0	0	0	473	446	0	0	0	0	
11	0	0	0	0	474	446	0	0	0	0	
12	0	0	0	0	477	446	0	0	0	0	
13	0	0	0	0	480	448	0	0	0	0	
14	0	0	0	0	483	451	0	0	0	0	
15	0	0	0	0	487	454	0	0	0	0	
0	0	0	0	0	490	459	0	0	0	0	
1	0	0	0	0	494	464	0	0	0	0	
2	0	0	0	0	497	470	0	0	0	0	
3	0	0	0	0	501	476	0	0	0	0	
4	0	0	0	0	504	482	0	0	0	0	
5	0	0	0	0	508	489	0	0	0	0	
6	0	0	0	0	511	494	0	0	0	0	
7	0	0	0	0	514	499	0	0	0	0	
8	0	0	0	0	516	502	0	0	0	0	
9	0	0	0	0	518	504	0	0	0	0	
10	0	0	0	0	520	504	0	0	0	0	
11	0	0	0	0	522	505	0	0	0	0	
12	0	0	0	0	524	505	0	0	0	0	
13	0	0	0	0	526	505	0	0	0	0	
14	0	0	0	0	526	504	0	0	0	0	
15	0	0	0	0	526	502	0	0	0	0	
0	0	0	0	0	524	499	0	0	0	0	
1	0	0	0	0	519	495	0	0	0	0	
2	0	0	0	0	512	487	0	0	0	0	
3	0	0	0	0	503	479	0	0	0	0	
4	0	0	0	0	491	469	0	0	0	0	
5	0	0	0	0	479	458	0	0	0	0	
6	0	0	0	0	467	449	0	0	0	0	
7	0	0	0	0	455	440	0	0	0	0	
8	0	0	0	0	447	432	0	0	0	0	
9	0	0	0	0	440	428	0	0	0	0	
10	0	0	0	0	436	425	0	0	0	0	
11	0	0	0	0	435	425	0	0	0	0	
12	0	0	0	0	438	426	0	0	0	0	
13	0	0	0	0	443	429	0	0	0	0	
14	0	0	0	0	449	432	0	0	0	0	
15	0	0	0	0	457	435	0	0	0	0	
0	0	0	0	0	465	438	0	0	0	0	
1	0	0	0	0	472	441	0	0	0	0	
2	0	0	0	0	478	443	0	0	0	0	
3	0	0	0	0	482	444	0	0	0	0	
4	0	0	0	0	487	446	0	0	0	0	
5	0	0	0	0	490	448	0	0	0	0	
6	0	0	0	0	492	451	0	0	0	0	
7	0	0	0	0	494	453	0	0	0	0	
8	0	0	0	0	494	456	0	0	0	0	
9	0	0	0	0	494	459	0	0	0	0	
10	0	0	0	0	492	462	0	0	0	0	
11	0	0	0	0	491	464	0	0	0	0	
12	0	0	0	0	489	466	0	0	0	0	
13	0	0	0	0	487	468	0	0	0	0	
14	0	0	0	0	487	471	0	0	0	0	
15	0	0	0	0	487	472	0	0	0	0	
0	0	0	0	0	488	473	0	0	0	0	
1	0	0	0	0	489	473	0	0	0	0	
2	0	0	0	0	489	473	0	0	0	0	
3	0	0	0	0	490	471	0	0	0	0	
4	0	0	0	0	490	468	0	0	0	0	
5	0	0	0	0	488	464	0	0	0	0	
6	0	0	0	0	485	458	0	0	0	0	
7	0	0	0	0	481	452	0	0	0	0	
8	0	0	0	0	476	446	0	0	0	0	
9	0	0	0	0	469	438	0	0	0	0	
10	0	0	0	0	462	432	0	0	0	0	
11	0	0	0	0	455	425	0	0	0	0	
12	0	0	0	0	448	421	0	0	0	0	
13	0	0	0	0	444	417	0	0	0	0	
14	0	0	0	0	440	415	0	0	0	0	
15	0	0	0	0	439	416	0	0	0	0	
0	0	0	0	0	439	418	0	0	0	0	
1	0	0	0	0	441	423	0	0	0	0	
2	0	0	0	0	446	427	0	0	0	0	
3	0	0	0	0	452	433	0	0	0	0	
4	0	0	0	0	459	439	0	0	0	0	
5	0	0	0	0	466	444	0	0	0	0	
6	0	0	0	0	472	449	0	0	0	0	
7	0	0	0	0	479	452	0	0	0	0	
8	0	0	0	0	483	454	0	0	0	0	
9	0	0	0	0	486	455	0	0	0	0	
10	0	0	0	0	487	454	0	0	0	0	
11	0	0	0	0	487	453	0	0	0	0	
12	0	0	0	0	487	451	0	0	0	0	
13	0	0	0	0	485	449	0	0	0	0	
14	0	0	0	0	483	448	0	0	0	0	
15	0	0	0	0	482	448	0	0	0	0	
0	0	0	0	0	481	448	0	0	0	0	
1	0	0	0	0	480	450	0	0	0	0	
2	0	0	0	0	480	452	0	0	0	0	
3	0	0	0	0	480	455	0	0	0	0	
4	0	0	0	0	479	457	0	0	0	0	
5	0	0	0	0	479	459	0	0	0	0	
6	0	0	0	0	479	460	0	0	0	0	
7	0	0	0	0	479	461	0	0	0	0	
8	0	0	0	0	477	460	0	0	0	0	
9	0	0	0	0	474	456	0	0	0	0	
10	0	0	0	0	470	452	0	0	0	0	
11	0	0	0	0	465	445	0	0	0	0	
12	0	0	0	0	458	437	0	0	0	0	
13	0	0	0	0	451	428	0	0	0	0	
14	0	0	0	0	444	419	0	0	0	0	
15	0	0	0	0	438	411	0	0	0	0	
0	0	0	0	0	433	403	0	0	0	0	
1	0	0	0	0	428	396	0	0	0	0	
2	0	0	0	0	422	390	0	0	0	0	
3	0	0	0	0	416	384	0	0	0	0	
4	0	0	0	0	408	378	0	0	0	0	
5	0	0	0	0	399	372	0	0	0	0	
6	0	0	0	0	390	366	0	0	0	0	
7	0	0	0	0	378	358	0	0	0	0	
8	0	0	0	0	364	349	0	0	0	0	
9	0	0	0	0	349	338	0	0	0	0	
10	0	0	0	0	333	327	0	0	0	0	
11	0	0	0	0	316	314	0	0	0	0	
12	0	0	0	0	300	300	0	0	0	0	
13	0	0	0	0	285	287	0	0	0	0	
14	0	0	0	0	272	274	0	0	0	0	
15	0	0	0	0	263	264	0	0	0	0	
0	0	0	0	0	257	255	0	0	0	0	
1	0	0	0	0	256	250	0	0	0	0	
2	0	0	0	0	260	248	0	0	0	0	
3	0	0	0	0	270	251	0	0	0	0	
4	0	0	0	0	283	258	0	0	0	0	
5	0	0	0	0	299	267	0	0	0	0	
6	0	0	0	0	317	279	0	0	0	0	
7	0	0	0	0	335	292	0	0	0	0	
8	0	0	0	0	355	308	0	0	0	0	
9	0	0	0	0	374	325	0	0	0	0	
10	0	0	0	0	391	343	0	0	0	0	
11	0	0	0	0	408	360	0	0	0	0	
12	0	0	0	0	423	377	0	0	0	0	
13	0	0	0	0	437	395	0	0	0	0	
14	0	0	0	0	449	411	0	0	0	0	
15	0	0	0	0	460	427	0	0	0	0	
0	0	0	0	0	471	440	0	0	0	0	
1	0	0	0	0	479	452	0	0	0	0	
2	0	0	0	0	486	460	0	0	0	0	
3	0	0	0	0	490	467	0	0	0	0	
4	0	0	0	0	492	468	0	0	0	0	
5	0	0	0	0	491	467	0	0	0	0	
6	0	0	0	0	488	462	0	0	0	0	
7	0	0	0	0	483	455	0	0	0	0	
8	0	0	0	0	478	449	0	0	0	0	
9	0	0	0	0	474	443	0	0	0	0	
10	0	0	0	0	471	438	0	0	0	0	
11	0	0	0	0	469	435	0	0	0	0	
12	0	0	0	0	468	434	0	0	0	0	
13	0	0	0	0	469	435	0	0	0	0	
14	0	0	0	0	471	438	0	0	0	0	
15	0	0	0	0	473	441	0	0	0	0	
0	0	0	0	0	476	445	0	0	0	0	
1	0	0	0	0	478	450	0	0	0	0	
2	0	0	0	0	481	454	0	0	0	0	
3	0	0	0	0	483	458	0	0	0	0	
4	0	0	0	0	484	460	0	0	0	0	
5	0	0	0	0	484	461	0	0	0	0	
6	0	0	0	0	483	460	0	0	0	0	
7	0	0	0	0	481	458	0	0	0	0	
8	0	0	0	0	478	455	0	0	0	0	
9	0	0	0	0	474	451	0	0	0	0	
10	0	0	0	0	470	446	0	0	0	0	
11	0	0	0	0	466	443	0	0	0	0	
12	0	0	0	0	463	440	0	0	0	0	
13	0	0	0	0	462	438	0	0	0	0	
14	0	0	0	0	462	438	0	0	0	0	
15	0	0	0	0	463	438	0	0	0	0	
0	0	0	0	0	465	441	0	0	0	0	
1	0	0	0	0	470	445	0	0	0	0	
2	0	0	0	0	475	450	0	0	0	0	
3	0	0	0	0	483	457	0	0	0	0	
4	0	0	0	0	491	464	0	0	0	0	
5	0	0	0	0	499	471	0	0	0	0	
6	0	0	0	0	508	479	0	0	0	0	
7	0	0	0	0	515	485	0	0	0	0	
8	0	0	0	0	521	490	0	0	0	0	
9	0	0	0	0	524	493	0	0	0	0	
10	0	0	0	0	527	494	0	0	0	0	
11	0	0	0	0	527	494	0	0	0	0	
12	0	0	0	0	525	491	0	0	0	0	
13	0	0	0	0	521	487	0	0	0	0	
14	0	0	0	0	516	481	0	0	0	0	
15	0	0	0	0	511	476	0	0	0	0	
0	0	0	0	0	507	472	0	0	0	0	
1	0	0	0	0	503	469	0	0	0	0	
2	0	0	0	0	499	467	0	0	0	0	
3	0	0	0	0	497	466	0	0	0	0	
4	0	0	0	0	496	467	0	0	0	0	
5	0	0	0	0	497	470	0	0	0	0	
6	0	0	0	0	499	474	0	0	0	0	
7	0	0	0	0	504	480	0	0	0	0	
8	0	0	0	0	509	487	0	0	0	0	
9	0	0	0	0	515	494	0	0	0	0	
10	0	0	0	0	523	503	0	0	0	0	
11	0	0	0	0	532	511	0	0	0	0	
12	0	0	0	0	540	518	0	0	0	0	
13	0	0	0	0	549	524	0	0	0	0	
14	0	0	0	0	556	529	0	0	0	0	
15	0	0	0	0	561	533	0	0	0	0	
0	0	0	0	0	566	535	0	0	0	0	
1	0	0	0	0	566	534	0	0	0	0	
2	0	0	0	0	564	531	0	0	0	0	
3	0	0	0	0	558	524	0	0	0	0	
4	0	0	0	0	548	515	0	0	0	0	
5	0	0	0	0	536	504	0	0	0	0	
6	0	0	0	0	520	491	0	0	0	0	
7	0	0	0	0	504	477	0	0	0	0	
8	0	0	0	0	487	464	0	0	0	0	
9	0	0	0	0	473	452	0	0	0	0	
10	0	0	0	0	461	444	0	0	0	0	
11	0	0	0	0	451	438	0	0	0	0	
12	0	0	0	0	447	434	0	0	0	0	
13	0	0	0	0	444	433	0	0	0	0	
14	0	0	0	0	445	435	0	0	0	0	
15	0	0	0	0	447	436	0	0	0	0	
0	0	0	0	0	451	440	0	0	0	0	
1	0	0	0	0	456	443	0	0	0	0	
2	0	0	0	0	462	446	0	0	0	0	
3	0	0	0	0	469	450	0	0	0	0	
4	0	0	0	0	476	453	0	0	0	0	
5	0	0	0	0	483	456	0	0	0	0	
6	0	0	0	0	489	460	0	0	0	0	
7	0	0	0	0	495	462	0	0	0	0	
8	0	0	0	0	499	463	0	0	0	0	
9	0	0	0	0	503	464	0	0	0	0	
10	0	0	0	0	504	464	0	0	0	0	
11	0	0	0	0	504	464	0	0	0	0	
12	0	0	0	0	501	462	0	0	0	0	
13	0	0	0	0	497	460	0	0	0	0	
14	0	0	0	0	492	458	0	0	0	0	
15	0	0	0	0	486	455	0	0	0	0	
0	0	0	0	0	480	453	0	0	0	0	
1	0	0	0	0	474	450	0	0	0	0	
2	0	0	0	0	470	449	0	0	0	0	
3	0	0	0	0	467	448	0	0	0	0	
4	0	0	0	0	464	447	0	0	0	0	
5	0	0	0	0	463	446	0	0	0	0	
6	0	0	0	0	462	445	0	0	0	0	
7	0	0	0	0	463	445	0	0	0	0	
8	0	0	0	0	465	445	0	0	0	0	
9	0	0	0	0	468	444	0	0	0	0	
10	0	0	0	0	471	444	0	0	0	0	
11	0	0	0	0	475	446	0	0	0	0	
12	0	0	0	0	480	448	0	0	0	0	
13	0	0	0	0	484	451	0	0	0	0	
14	0	0	0	0	489	455	0	0	0	0	
15	0	0	0	0	494	459	0	0	0	0	
0	0	0	0	0	497	463	0	0	0	0	
1	0	0	0	0	500	466	0	0	0	0	
2	0	0	0	0	501	468	0	0	0	0	
3	0	0	0	0	500	469	0	0	0	0	
4	0	0	0	0	498	469	0	0	0	0	
5	0	0	0	0	494	467	0	0	0	0	
6	0	0	0	0	490	466	0	0	0	0	
7	0	0	0	0	485	463	0	0	0	0	
8	0	0	0	0	481	459	0	0	0	0	
9	0	0	0	0	477	456	0	0	0	0	
10	0	0	0	0	474	453	0	0	0	0	
11	0	0	0	0	474	452	0	0	0	0	
12	0	0	0	0	475	452	0	0	0	0	
13	0	0	0	0	478	454	0	0	0	0	
14	0	0	0	0	481	455	0	0	0	0	
15	0	0	0	0	485	457	0	0	0	0	
0	0	0	0	0	489	460	0	0	0	0	
1	0	0	0	0	492	463	0	0	0	0	
2	0	0	0	0	494	464	0	0	0	0	
3	0	0	0	0	496	466	0	0	0	0	
4	0	0	0	0	496	466	0	0	0	0	
5	0	0	0	0	497	468	0	0	0	0	
6	0	0	0	0	497	468	0	0	0	0	
7	0	0	0	0	496	468	0	0	0	0	
8	0	0	0	0	495	468	0	0	0	0	
9	0	0	0	0	493	468	0	0	0	0	
10	0	0	0	0	491	467	0	0	0	0	
11	0	0	0	0	488	465	0	0	0	0	
12	0	0	0	0	485	461	0	0	0	0	
13	0	0	0	0	480	457	0	0	0	0	
14	0	0	0	0	475	451	0	0	0	0	
15	0	0	0	0	470	446	0	0	0	0	
0	0	0	0	0	464	439	0	0	0	0	
1	0	0	0	0	458	432	0	0	0	0	
2	0	0	0	0	454	427	0	0	0	0	
3	0	0	0	0	451	422	0	0	0	0	
4	0	0	0	0	451	421	0	0	0	0	
5	0	0	0	0	453	421	0	0	0	0	
6	0	0	0	0	456	424	0	0	0	0	
7	0	0	0	0	463	428	0	0	0	0	
8	0	0	0	0	470	435	0	0	0	0	
9	0	0	0	0	478	444	0	0	0	0	
10	0	0	0	0	487	453	0	0	0	0	
11	0	0	0	0	497	463	0	0	0	0	
12	0	0	0	0	508	475	0	0	0	0	
13	0	0	0	0	518	486	0	0	0	0	
14	0	0	0	0	530	498	0	0	0	0	
15	0	0	0	0	541	509	0	0	0	0	
0	0	0	0	0	551	518	0	0	0	0	
1	0	0	0	0	557	523	0	0	0	0	
2	0	0	0	0	560	525	0	0	0	0	
3	0	0	0	0	558	523	0	0	0	0	
4	0	0	0	0	551	516	0	0	0	0	
5	0	0	0	0	540	505	0	0	0	0	
6	0	0	0	0	524	491	0	0	0	0	
7	0	0	0	0	508	476	0	0	0	0	
8	0	0	0	0	489	462	0	0	0	0	
9	0	0	0	0	473	448	0	0	0	0	
10	0	0	0	0	459	437	0	0	0	0	
11	0	0	0	0	450	430	0	0	0	0	
12	0	0	0	0	445	426	0	0	0	0	
13	0	0	0	0	446	428	0	0	0	0	
14	0	0	0	0	450	432	0	0	0	0	
15	0	0	0	0	457	439	0	0	0	0	
0	0	0	0	0	465	446	0	0	0	0	
1	0	0	0	0	474	454	0	0	0	0	
2	0	0	0	0	481	459	0	0	0	0	
3	0	0	0	0	487	463	0	0	0	0	
4	0	0	0	0	490	463	0	0	0	0	
5	0	0	0	0	490	462	0	0	0	0	
6	0	0	0	0	487	457	0	0	0	0	
7	0	0	0	0	483	452	0	0	0	0	
8	0	0	0	0	477	446	0	0	0	0	
9	0	0	0	0	470	439	0	0	0	0	
10	0	0	0	0	464	434	0	0	0	0	
11	0	0	0	0	457	430	0	0	0	0	
12	0	0	0	0	453	426	0	0	0	0	
13	0	0	0	0	449	425	0	0	0	0	
14	0	0	0	0	447	424	0	0	0	0	
15	0	0	0	0	447	425	0	0	0	0	
0	0	0	0	0	448	428	0	0	0	0	
1	0	0	0	0	452	432	0	0	0	0	
2	0	0	0	0	457	437	0	0	0	0	
3	0	0	0	0	465	444	0	0	0	0	
4	0	0	0	0	474	452	0	0	0	0	
5	0	0	0	0	484	461	0	0	0	0	
6	0	0	0	0	496	471	0	0	0	0	
7	0	0	0	0	508	481	0	0	0	0	
8	0	0	0	0	520	490	0	0	0	0	
9	0	0	0	0	530	498	0	0	0	0	
10	0	0	0	0	539	504	0	0	0	0	
11	0	0	0	0	544	506	0	0	0	0	
12	0	0	0	0	544	505	0	0	0	0	
13	0	0	0	0	539	499	0	0	0	0	
14	0	0	0	0	529	489	0	0	0	0	
15	0	0	0	0	514	476	0	0	0	0	
0	0	0	0	0	496	460	0	0	0	0	
1	0	0	0	0	476	444	0	0	0	0	
2	0	0	0	0	455	428	0	0	0	0	
3	0	0	0	0	437	412	0	0	0	0	
4	0	0	0	0	420	401	0	0	0	0	
5	0	0	0	0	408	393	0	0	0	0	
6	0	0	0	0	400	388	0	0	0	0	
7	0	0	0	0	396	387	0	0	0	0	
8	0	0	0	0	398	388	0	0	0	0	
9	0	0	0	0	402	394	0	0	0	0	
10	0	0	0	0	412	401	0	0	0	0	
11	0	0	0	0	423	411	0	0	0	0	
12	0	0	0	0	436	421	0	0	0	0	
13	0	0	0	0	451	431	0	0	0	0	
14	0	0	0	0	466	443	0	0	0	0	
15	0	0	0	0	483	454	0	0	0	0	
0	0	0	0	0	498	465	0	0	0	0	
1	0	0	0	0	512	475	0	0	0	0	
2	0	0	0	0	523	483	0	0	0	0	
3	0	0	0	0	531	488	0	0	0	0	
4	0	0	0	0	535	492	0	0	0	0	
5	0	0	0	0	536	492	0	0	0	0	
6	0	0	0	0	531	490	0	0	0	0	
7	0	0	0	0	524	485	0	0	0	0	
8	0	0	0	0	513	479	0	0	0	0	
9	0	0	0	0	501	471	0	0	0	0	
10	0	0	0	0	488	463	0	0	0	0	
11	0	0	0	0	476	456	0	0	0	0	
12	0	0	0	0	466	449	0	0	0	0	
13	0	0	0	0	458	445	0	0	0	0	
14	0	0	0	0	455	443	0	0	0	0	
15	0	0	0	0	455	443	0	0	0	0	
0	0	0	0	0	458	444	0	0	0	0	
1	0	0	0	0	464	447	0	0	0	0	
2	0	0	0	0	472	452	0	0	0	0	
3	0	0	0	0	481	456	0	0	0	0	
4	0	0	0	0	491	461	0	0	0	0	
5	0	0	0	0	500	465	0	0	0	0	
6	0	0	0	0	509	470	0	0	0	0	
7	0	0	0	0	518	474	0	0	0	0	
8	0	0	0	0	526	480	0	0	0	0	
9	0	0	0	0	532	484	0	0	0	0	
10	0	0	0	0	537	489	0	0	0	0	
11	0	0	0	0	541	494	0	0	0	0	
12	0	0	0	0	544	498	0	0	0	0	
13	0	0	0	0	545	502	0	0	0	0	
14	0	0	0	0	545	505	0	0	0	0	
15	0	0	0	0	544	508	0	0	0	0	
0	0	0	0	0	542	510	0	0	0	0	
1	0	0	0	0	539	510	0	0	0	0	
2	0	0	0	0	534	509	0	0	0	0	
3	0	0	0	0	527	505	0	0	0	0	
4	0	0	0	0	519	500	0	0	0	0	
5	0	0	0	0	509	492	0	0	0	0	
6	0	0	0	0	498	482	0	0	0	0	
7	0	0	0	0	487	471	0	0	0	0	
8	0	0	0	0	476	459	0	0	0	0	
9	0	0	0	0	464	446	0	0	0	0	
10	0	0	0	0	453	434	0	0	0	0	
11	0	0	0	0	444	423	0	0	0	0	
12	0	0	0	0	437	415	0	0	0	0	
13	0	0	0	0	432	409	0	0	0	0	
14	0	0	0	0	430	405	0	0	0	0	
15	0	0	0	0	430	404	0	0	0	0	
0	0	0	0	0	433	407	0	0	0	0	
1	0	0	0	0	439	412	0	0	0	0	
2	0	0	0	0	446	419	0	0	0	0	
3	0	0	0	0	455	428	0	0	0	0	
4	0	0	0	0	466	438	0	0	0	0	
5	0	0	0	0	476	448	0	0	0	0	
6	0	0	0	0	488	458	0	0	0	0	
7	0	0	0	0	498	468	0	0	0	0	
8	0	0	0	0	508	476	0	0	0	0	
9	0	0	0	0	516	483	0	0	0	0	
10	0	0	0	0	522	488	0	0	0	0	
11	0	0	0	0	526	491	0	0	0	0	
12	0	0	0	0	527	492	0	0	0	0	
13	0	0	0	0	527	491	0	0	0	0	
14	0	0	0	0	524	489	0	0	0	0	
15	0	0	0	0	521	487	0	0	0	0	
0	0	0	0	0	517	484	0	0	0	0	
1	0	0	0	0	513	482	0	0	0	0	
2	0	0	0	0	509	480	0	0	0	0	
3	0	0	0	0	504	478	0	0	0	0	
4	0	0	0	0	501	477	0	0	0	0	
5	0	0	0	0	498	476	0	0	0	0	
6	0	0	0	0	495	474	0	0	0	0	
7	0	0	0	0	493	472	0	0	0	0	
8	0	0	0	0	492	472	0	0	0	0	
9	0	0	0	0	491	469	0	0	0	0	
10	0	0	0	0	489	467	0	0	0	0	
11	0	0	0	0	487	463	0	0	0	0	
12	0	0	0	0	485	459	0	0	0	0	
13	0	0	0	0	481	454	0	0	0	0	
14	0	0	0	0	476	447	0	0	0	0	
15	0	0	0	0	472	440	0	0	0	0	
0	0	0	0	0	466	433	0	0	0	0	
1	0	0	0	0	462	428	0	0	0	0	
2	0	0	0	0	458	422	0	0	0	0	
3	0	0	0	0	455	418	0	0	0	0	
4	0	0	0	0	452	415	0	0	0	0	
5	0	0	0	0	451	414	0	0	0	0	
6	0	0	0	0	451	415	0	0	0	0	
7	0	0	0	0	452	417	0	0	0	0	
8	0	0	0	0	455	421	0	0	0	0	
9	0	0	0	0	459	426	0	0	0	0	
10	0	0	0	0	463	432	0	0	0	0	
11	0	0	0	0	468	439	0	0	0	0	
12	0	0	0	0	474	446	0	0	0	0	
13	0	0	0	0	480	452	0	0	0	0	
14	0	0	0	0	487	460	0	0	0	0	
15	0	0	0	0	493	465	0	0	0	0	
0	0	0	0	0	498	471	0	0	0	0	
1	0	0	0	0	503	476	0	0	0	0	
2	0	0	0	0	507	479	0	0	0	0	
3	0	0	0	0	511	482	0	0	0	0	
4	0	0	0	0	513	484	0	0	0	0	
5	0	0	0	0	514	484	0	0	0	0	
6	0	0	0	0	515	483	0	0	0	0	
7	0	0	0	0	515	482	0	0	0	0	
8	0	0	0	0	513	481	0	0	0	0	
9	0	0	0	0	511	478	0	0	0	0	
10	0	0	0	0	508	474	0	0	0	0	
11	0	0	0	0	504	470	0	0	0	0	
12	0	0	0	0	500	467	0	0	0	0	
13	0	0	0	0	496	465	0	0	0	0	
14	0	0	0	0	494	464	0	0	0	0	
15	0	0	0	0	492	464	0	0	0	0	
0	0	0	0	0	492	466	0	0	0	0	
1	0	0	0	0	493	468	0	0	0	0	
2	0	0	0	0	496	473	0	0	0	0	
3	0	0	0	0	500	478	0	0	0	0	
4	0	0	0	0	505	483	0	0	0	0	
5	0	0	0	0	511	489	0	0	0	0	
6	0	0	0	0	516	493	0	0	0	0	
7	0	0	0	0	520	496	0	0	0	0	
8	0	0	0	0	522	496	0	0	0	0	
9	0	0	0	0	521	492	0	0	0	0	
10	0	0	0	0	516	486	0	0	0	0	
11	0	0	0	0	510	478	0	0	0	0	
12	0	0	0	0	502	469	0	0	0	0	
13	0	0	0	0	494	460	0	0	0	0	
14	0	0	0	0	484	451	0	0	0	0	
15	0	0	0	0	476	443	0	0	0	0	
0	0	0	0	0	469	437	0	0	0	0	
1	0	0	0	0	464	433	0	0	0	0	
2	0	0	0	0	462	433	0	0	0	0	
3	0	0	0	0	464	436	0	0	0	0	
4	0	0	0	0	470	442	0	0	0	0	
5	0	0	0	0	478	451	0	0	0	0	
6	0	0	0	0	491	463	0	0	0	0	
7	0	0	0	0	504	475	0	0	0	0	
8	0	0	0	0	516	486	0	0	0	0	
9	0	0	0	0	526	493	0	0	0	0	
10	0	0	0	0	532	496	0	0	0	0	
11	0	0	0	0	532	495	0	0	0	0	
12	0	0	0	0	527	490	0	0	0	0	
13	0	0	0	0	518	480	0	0	0	0	
14	0	0	0	0	505	468	0	0	0	0	
15	0	0	0	0	490	455	0	0	0	0	
0	0	0	0	0	475	443	0	0	0	0	
1	0	0	0	0	461	432	0	0	0	0	
2	0	0	0	0	450	424	0	0	0	0	
3	0	0	0	0	444	419	0	0	0	0	
4	0	0	0	0	441	419	0	0	0	0	
5	0	0	0	0	444	423	0	0	0	0	
6	0	0	0	0	451	430	0	0	0	0	
7	0	0	0	0	462	440	0	0	0	0	
8	0	0	0	0	475	451	0	0	0	0	
9	0	0	0	0	489	464	0	0	0	0	
10	0	0	0	0	504	475	0	0	0	0	
11	0	0	0	0	514	483	0	0	0	0	
12	0	0	0	0	522	488	0	0	0	0	
13	0	0	0	0	525	489	0	0	0	0	
14	0	0	0	0	524	487	0	0	0	0	
15	0	0	0	0	519	482	0	0	0	0	
0	0	0	0	0	511	475	0	0	0	0	
1	0	0	0	0	500	465	0	0	0	0	
2	0	0	0	0	487	456	0	0	0	0	
3	0	0	0	0	475	447	0	0	0	0	
4	0	0	0	0	464	439	0	0	0	0	
5	0	0	0	0	455	433	0	0	0	0	
6	0	0	0	0	448	428	0	0	0	0	
7	0	0	0	0	444	426	0	0	0	0	
8	0	0	0	0	441	425	0	0	0	0	
9	0	0	0	0	444	427	0	0	0	0	
10	0	0	0	0	448	431	0	0	0	0	
11	0	0	0	0	454	436	0	0	0	0	
12	0	0	0	0	461	441	0	0	0	0	
13	0	0	0	0	468	447	0	0	0	0	
14	0	0	0	0	476	451	0	0	0	0	
15	0	0	0	0	481	454	0	0	0	0	
0	0	0	0	0	486	456	0	0	0	0	
1	0	0	0	0	488	456	0	0	0	0	
2	0	0	0	0	488	455	0	0	0	0	
3	0	0	0	0	487	452	0	0	0	0	
4	0	0	0	0	484	449	0	0	0	0	
5	0	0	0	0	480	445	0	0	0	0	
6	0	0	0	0	476	441	0	0	0	0	
7	0	0	0	0	471	437	0	0	0	0	
8	0	0	0	0	467	434	0	0	0	0	
9	0	0	0	0	464	433	0	0	0	0	
10	0	0	0	0	463	434	0	0	0	0	
11	0	0	0	0	465	437	0	0	0	0	
12	0	0	0	0	469	443	0	0	0	0	
13	0	0	0	0	476	451	0	0	0	0	
14	0	0	0	0	484	460	0	0	0	0	
15	0	0	0	0	494	470	0	0	0	0	
0	0	0	0	0	503	480	0	0	0	0	
1	0	0	0	0	512	489	0	0	0	0	
2	0	0	0	0	521	499	0	0	0	0	
3	0	0	0	0	529	507	0	0	0	0	
4	0	0	0	0	536	515	0	0	0	0	
5	0	0	0	0	541	520	0	0	0	0	
6	0	0	0	0	545	524	0	0	0	0	
7	0	0	0	0	547	526	0	0	0	0	
8	0	0	0	0	548	526	0	0	0	0	
9	0	0	0	0	547	525	0	0	0	0	
10	0	0	0	0	544	521	0	0	0	0	
11	0	0	0	0	540	516	0	0	0	0	
12	0	0	0	0	535	511	0	0	0	0	
13	0	0	0	0	528	504	0	0	0	0	
14	0	0	0	0	522	497	0	0	0	0	
15	0	0	0	0	515	491	0	0	0	0	
0	0	0	0	0	509	484	0	0	0	0	
1	0	0	0	0	504	480	0	0	0	0	
2	0	0	0	0	500	476	0	0	0	0	
3	0	0	0	0	499	476	0	0	0	0	
4	0	0	0	0	500	477	0	0	0	0	
5	0	0	0	0	504	480	0	0	0	0	
6	0	0	0	0	510	484	0	0	0	0	
7	0	0	0	0	516	489	0	0	0	0	
8	0	0	0	0	523	493	0	0	0	0	
9	0	0	0	0	527	496	0	0	0	0	
10	0	0	0	0	529	496	0	0	0	0	
11	0	0	0	0	527	494	0	0	0	0	
12	0	0	0	0	522	487	0	0	0	0	
13	0	0	0	0	513	480	0	0	0	0	
14	0	0	0	0	502	470	0	0	0	0	
15	0	0	0	0	487	457	0	0	0	0	
0	0	0	0	0	472	444	0	0	0	0	
1	0	0	0	0	455	430	0	0	0	0	
2	0	0	0	0	439	416	0	0	0	0	
3	0	0	0	0	425	403	0	0	0	0	
4	0	0	0	0	414	394	0	0	0	0	
5	0	0	0	0	406	388	0	0	0	0	
6	0	0	0	0	403	385	0	0	0	0	
7	0	0	0	0	404	387	0	0	0	0	
8	0	0	0	0	409	391	0	0	0	0	
9	0	0	0	0	419	400	0	0	0	0	
10	0	0	0	0	433	412	0	0	0	0	
11	0	0	0	0	450	427	0	0	0	0	
12	0	0	0	0	469	443	0	0	0	0	
13	0	0	0	0	489	458	0	0	0	0	
14	0	0	0	0	508	472	0	0	0	0	
15	0	0	0	0	525	484	0	0	0	0	
0	0	0	0	0	539	494	0	0	0	0	
1	0	0	0	0	547	499	0	0	0	0	
2	0	0	0	0	552	501	0	0	0	0	
3	0	0	0	0	550	499	0	0	0	0	
4	0	0	0	0	544	494	0	0	0	0	
5	0	0	0	0	534	486	0	0	0	0	
6	0	0	0	0	520	476	0	0	0	0	
7	0	0	0	0	505	467	0	0	0	0	
8	0	0	0	0	490	457	0	0	0	0	
9	0	0	0	0	475	449	0	0	0	0	
10	0	0	0	0	462	443	0	0	0	0	
11	0	0	0	0	451	438	0	0	0	0	
12	0	0	0	0	444	435	0	0	0	0	
13	0	0	0	0	440	435	0	0	0	0	
14	0	0	0	0	439	436	0	0	0	0	
15	0	0	0	0	441	438	0	0	0	0	
0	0	0	0	0	447	442	0	0	0	0	
1	0	0	0	0	455	447	0	0	0	0	
2	0	0	0	0	464	452	0	0	0	0	
3	0	0	0	0	475	458	0	0	0	0	
4	0	0	0	0	485	463	0	0	0	0	
5	0	0	0	0	495	467	0	0	0	0	
6	0	0	0	0	503	470	0	0	0	0	
7	0	0	0	0	508	472	0	0	0	0	
8	0	0	0	0	512	473	0	0	0	0	
9	0	0	0	0	514	473	0	0	0	0	
10	0	0	0	0	515	474	0	0	0	0	
11	0	0	0	0	514	473	0	0	0	0	
12	0	0	0	0	512	473	0	0	0	0	
13	0	0	0	0	509	473	0	0	0	0	
14	0	0	0	0	506	473	0	0	0	0	
15	0	0	0	0	502	473	0	0	0	0	
0	0	0	0	0	497	474	0	0	0	0	
1	0	0	0	0	492	472	0	0	0	0	
2	0	0	0	0	486	471	0	0	0	0	
3	0	0	0	0	479	467	0	0	0	0	
4	0	0	0	0	472	462	0	0	0	0	
5	0	0	0	0	465	456	0	0	0	0	
6	0	0	0	0	459	450	0	0	0	0	
7	0	0	0	0	456	445	0	0	0	0	
8	0	0	0	0	455	441	0	0	0	0	
9	0	0	0	0	455	439	0	0	0	0	
10	0	0	0	0	458	437	0	0	0	0	
11	0	0	0	0	462	437	0	0	0	0	
12	0	0	0	0	468	440	0	0	0	0	
13	0	0	0	0	476	443	0	0	0	0	
14	0	0	0	0	483	449	0	0	0	0	
15	0	0	0	0	492	456	0	0	0	0	
0	0	0	0	0	501	464	0	0	0	0	
1	0	0	0	0	511	474	0	0	0	0	
2	0	0	0	0	520	485	0	0	0	0	
3	0	0	0	0	531	497	0	0	0	0	
4	0	0	0	0	543	510	0	0	0	0	
5	0	0	0	0	555	523	0	0	0	0	
6	0	0	0	0	567	536	0	0	0	0	
7	0	0	0	0	576	545	0	0	0	0	
8	0	0	0	0	582	551	0	0	0	0	
9	0	0	0	0	583	551	0	0	0	0	
10	0	0	0	0	577	546	0	0	0	0	
11	0	0	0	0	565	534	0	0	0	0	
12	0	0	0	0	547	516	0	0	0	0	
13	0	0	0	0	523	494	0	0	0	0	
14	0	0	0	0	496	469	0	0	0	0	
15	0	0	0	0	470	445	0	0	0	0	
0	0	0	0	0	444	423	0	0	0	0	
1	0	0	0	0	423	405	0	0	0	0	
2	0	0	0	0	408	391	0	0	0	0	
3	0	0	0	0	398	384	0	0	0	0	
4	0	0	0	0	396	382	0	0	0	0	
5	0	0	0	0	402	388	0	0	0	0	
6	0	0	0	0	414	398	0	0	0	0	
7	0	0	0	0	431	413	0	0	0	0	
8	0	0	0	0	450	429	0	0	0	0	
9	0	0	0	0	471	447	0	0	0	0	
10	0	0	0	0	492	463	0	0	0	0	
11	0	0	0	0	510	478	0	0	0	0	
12	0	0	0	0	526	489	0	0	0	0	
13	0	0	0	0	537	498	0	0	0	0	
14	0	0	0	0	544	503	0	0	0	0	
15	0	0	0	0	546	504	0	0	0	0	
0	0	0	0	0	543	500	0	0	0	0	
1	0	0	0	0	534	492	0	0	0	0	
2	0	0	0	0	520	481	0	0	0	0	
3	0	0	0	0	504	468	0	0	0	0	
4	0	0	0	0	487	455	0	0	0	0	
5	0	0	0	0	470	443	0	0	0	0	
6	0	0	0	0	455	432	0	0	0	0	
7	0	0	0	0	443	424	0	0	0	0	
8	0	0	0	0	435	420	0	0	0	0	
9	0	0	0	0	432	418	0	0	0	0	
10	0	0	0	0	433	420	0	0	0	0	
11	0	0	0	0	438	425	0	0	0	0	
12	0	0	0	0	447	432	0	0	0	0	
13	0	0	0	0	456	441	0	0	0	0	
14	0	0	0	0	468	449	0	0	0	0	
15	0	0	0	0	481	459	0	0	0	0	
0	0	0	0	0	492	467	0	0	0	0	
1	0	0	0	0	502	474	0	0	0	0	
2	0	0	0	0	509	479	0	0	0	0	
3	0	0	0	0	515	482	0	0	0	0	
4	0	0	0	0	516	483	0	0	0	0	
5	0	0	0	0	516	481	0	0	0	0	
6	0	0	0	0	514	478	0	0	0	0	
7	0	0	0	0	509	475	0	0	0	0	
8	0	0	0	0	504	470	0	0	0	0	
9	0	0	0	0	497	465	0	0	0	0	
10	0	0	0	0	492	460	0	0	0	0	
11	0	0	0	0	486	457	0	0	0	0	
12	0	0	0	0	482	455	0	0	0	0	
13	0	0	0	0	481	456	0	0	0	0	
14	0	0	0	0	482	458	0	0	0	0	
15	0	0	0	0	484	461	0	0	0	0	
0	0	0	0	0	487	464	0	0	0	0	
1	0	0	0	0	491	469	0	0	0	0	
2	0	0	0	0	496	472	0	0	0	0	
3	0	0	0	0	500	476	0	0	0	0	
4	0	0	0	0	505	480	0	0	0	0	
5	0	0	0	0	510	483	0	0	0	0	
6	0	0	0	0	512	485	0	0	0	0	
7	0	0	0	0	516	487	0	0	0	0	
8	0	0	0	0	520	489	0	0	0	0	
9	0	0	0	0	524	491	0	0	0	0	
10	0	0	0	0	527	492	0	0	0	0	
11	0	0	0	0	528	492	0	0	0	0	
12	0	0	0	0	529	491	0	0	0	0	
13	0	0	0	0	527	487	0	0	0	0	
14	0	0	0	0	521	481	0	0	0	0	
15	0	0	0	0	512	473	0	0	0	0	
0	0	0	0	0	501	464	0	0	0	0	
1	0	0	0	0	490	455	0	0	0	0	
2	0	0	0	0	478	446	0	0	0	0	
3	0	0	0	0	467	438	0	0	0	0	
4	0	0	0	0	457	431	0	0	0	0	
5	0	0	0	0	449	427	0	0	0	0	
6	0	0	0	0	444	424	0	0	0	0	
7	0	0	0	0	441	423	0	0	0	0	
8	0	0	0	0	442	424	0	0	0	0	
9	0	0	0	0	445	427	0	0	0	0	
10	0	0	0	0	450	432	0	0	0	0	
11	0	0	0	0	457	437	0	0	0	0	
12	0	0	0	0	466	442	0	0	0	0	
13	0	0	0	0	475	448	0	0	0	0	
14	0	0	0	0	482	452	0	0	0	0	
15	0	0	0	0	489	456	0	0	0	0	
0	0	0	0	0	494	458	0	0	0	0	
1	0	0	0	0	498	460	0	0	0	0	
2	0	0	0	0	500	460	0	0	0	0	
3	0	0	0	0	500	461	0	0	0	0	
4	0	0	0	0	499	461	0	0	0	0	
5	0	0	0	0	497	460	0	0	0	0	
6	0	0	0	0	495	460	0	0	0	0	
7	0	0	0	0	492	460	0	0	0	0	
8	0	0	0	0	490	460	0	0	0	0	
9	0	0	0	0	489	462	0	0	0	0	
10	0	0	0	0	490	464	0	0	0	0	
11	0	0	0	0	493	468	0	0	0	0	
12	0	0	0	0	497	474	0	0	0	0	
13	0	0	0	0	505	481	0	0	0	0	
14	0	0	0	0	515	491	0	0	0	0	
15	0	0	0	0	529	503	0	0	0	0	
0	0	0	0	0	544	515	0	0	0	0	
1	0	0	0	0	559	526	0	0	0	0	
2	0	0	0	0	571	533	0	0	0	0	
3	0	0	0	0	577	538	0	0	0	0	
4	0	0	0	0	580	537	0	0	0	0	
5	0	0	0	0	576	531	0	0	0	0	
6	0	0	0	0	566	520	0	0	0	0	
7	0	0	0	0	549	505	0	0	0	0	
8	0	0	0	0	528	489	0	0	0	0	
9	0	0	0	0	504	470	0	0	0	0	
10	0	0	0	0	479	451	0	0	0	0	
11	0	0	0	0	455	433	0	0	0	0	
12	0	0	0	0	434	418	0	0	0	0	
13	0	0	0	0	417	406	0	0	0	0	
14	0	0	0	0	404	397	0	0	0	0	
15	0	0	0	0	397	392	0	0	0	0	
0	0	0	0	0	394	390	0	0	0	0	
1	0	0	0	0	395	390	0	0	0	0	
2	0	0	0	0	402	393	0	0	0	0	
3	0	0	0	0	411	398	0	0	0	0	
4	0	0	0	0	423	405	0	0	0	0	
5	0	0	0	0	436	412	0	0	0	0	
6	0	0	0	0	451	421	0	0	0	0	
7	0	0	0	0	467	431	0	0	0	0	
8	0	0	0	0	482	441	0	0	0	0	
9	0	0	0	0	497	452	0	0	0	0	
10	0	0	0	0	511	463	0	0	0	0	
11	0	0	0	0	522	473	0	0	0	0	
12	0	0	0	0	532	483	0	0	0	0	
13	0	0	0	0	540	492	0	0	0	0	
14	0	0	0	0	544	499	0	0	0	0	
15	0	0	0	0	545	503	0	0	0	0	
0	0	0	0	0	541	504	0	0	0	0	
1	0	0	0	0	535	502	0	0	0	0	
2	0	0	0	0	525	497	0	0	0	0	
3	0	0	0	0	512	489	0	0	0	0	
4	0	0	0	0	497	479	0	0	0	0	
5	0	0	0	0	483	469	0	0	0	0	
6	0	0	0	0	470	459	0	0	0	0	
7	0	0	0	0	461	451	0	0	0	0	
8	0	0	0	0	455	447	0	0	0	0	
9	0	0	0	0	455	445	0	0	0	0	
10	0	0	0	0	459	447	0	0	0	0	
11	0	0	0	0	469	452	0	0	0	0	
12	0	0	0	0	481	460	0	0	0	0	
13	0	0	0	0	495	468	0	0	0	0	
14	0	0	0	0	507	475	0	0	0	0	
15	0	0	0	0	516	480	0	0	0	0	
0	0	0	0	0	522	481	0	0	0	0	
1	0	0	0	0	523	480	0	0	0	0	
2	0	0	0	0	519	475	0	0	0	0	
3	0	0	0	0	510	468	0	0	0	0	
4	0	0	0	0	499	459	0	0	0	0	
5	0	0	0	0	486	450	0	0	0	0	
6	0	0	0	0	472	442	0	0	0	0	
7	0	0	0	0	460	435	0	0	0	0	
8	0	0	0	0	450	429	0	0	0	0	
9	0	0	0	0	443	426	0	0	0	0	
10	0	0	0	0	440	425	0	0	0	0	
11	0	0	0	0	440	426	0	0	0	0	
12	0	0	0	0	442	428	0	0	0	0	
13	0	0	0	0	446	430	0	0	0	0	
14	0	0	0	0	451	432	0	0	0	0	
15	0	0	0	0	457	435	0	0	0	0	
0	0	0	0	0	463	438	0	0	0	0	
1	0	0	0	0	470	440	0	0	0	0	
2	0	0	0	0	475	443	0	0	0	0	
3	0	0	0	0	480	446	0	0	0	0	
4	0	0	0	0	484	448	0	0	0	0	
5	0	0	0	0	487	451	0	0	0	0	
6	0	0	0	0	488	453	0	0	0	0	
7	0	0	0	0	489	455	0	0	0	0	
8	0	0	0	0	490	458	0	0	0	0	
9	0	0	0	0	492	463	0	0	0	0	
10	0	0	0	0	496	470	0	0	0	0	
11	0	0	0	0	504	480	0	0	0	0	
12	0	0	0	0	515	494	0	0	0	0	
13	0	0	0	0	528	509	0	0	0	0	
14	0	0	0	0	547	526	0	0	0	0	
15	0	0	0	0	564	543	0	0	0	0	
0	0	0	0	0	581	557	0	0	0	0	
1	0	0	0	0	593	567	0	0	0	0	
2	0	0	0	0	600	571	0	0	0	0	
3	0	0	0	0	601	568	0	0	0	0	
4	0	0	0	0	594	560	0	0	0	0	
5	0	0	0	0	580	545	0	0	0	0	
6	0	0	0	0	559	526	0	0	0	0	
7	0	0	0	0	534	503	0	0	0	0	
8	0	0	0	0	505	478	0	0	0	0	
9	0	0	0	0	476	452	0	0	0	0	
10	0	0	0	0	449	430	0	0	0	0	
11	0	0	0	0	426	411	0	0	0	0	
12	0	0	0	0	408	396	0	0	0	0	
13	0	0	0	0	396	386	0	0	0	0	
14	0	0	0	0	391	382	0	0	0	0	
15	0	0	0	0	391	382	0	0	0	0	
0	0	0	0	0	396	386	0	0	0	0	
1	0	0	0	0	407	393	0	0	0	0	
2	0	0	0	0	420	401	0	0	0	0	
3	0	0	0	0	434	411	0	0	0	0	
4	0	0	0	0	449	421	0	0	0	0	
5	0	0	0	0	462	430	0	0	0	0	
6	0	0	0	0	474	438	0	0	0	0	
7	0	0	0	0	483	444	0	0	0	0	
8	0	0	0	0	491	448	0	0	0	0	
9	0	0	0	0	496	451	0	0	0	0	
10	0	0	0	0	497	454	0	0	0	0	
11	0	0	0	0	497	455	0	0	0	0	
12	0	0	0	0	496	455	0	0	0	0	
13	0	0	0	0	493	455	0	0	0	0	
14	0	0	0	0	489	455	0	0	0	0	
