# OpenSignals Text File Format. Version 1
# {"": {"position": 0, "device": "", "device name": "", "device connection": "", "sampling rate": 1000, "resolution": [4, 1, 1, 1, 1, 10, 10, 10, 10, 6, 6], "firmware version": 1281, "comments": "", "keywords": "", "mode": 0, "sync interval": 2, "date": "", "time": "", "channels": [1, 2, 3, 4, 5, 6], "sensor": ["RAW", "RAW", "RAW", "RAW", "RAW", "RAW"], "label": ["A1", "A2", "A3", "A4", "A5", "A6"], "column": ["nSeq", "I1", "I2", "O1", "O2", "A1", "A2", "A3", "A4", "A5", "A6"], "special": [{}, {}, {}, {}, {}, {}], "digital IO": [0, 0, 1, 1]}}
# EndOfHeader
0	0	0	0	0	0	489	1021	225	0	0	
1	0	0	0	0	0	665	1021	215	0	0	
2	0	0	0	0	46	818	1021	218	0	0	
3	0	0	0	0	190	930	1021	233	0	0	
4	0	0	0	0	385	993	1021	260	0	0	
5	0	0	0	0	609	999	1021	295	0	0	
6	0	0	0	0	834	946	1021	336	0	0	
7	0	0	0	0	1020	836	1021	379	0	0	
8	0	0	0	0	1021	680	1021	419	0	0	
9	0	0	0	0	1021	491	1020	451	0	0	
10	0	0	0	0	1021	286	1021	474	0	0	
11	0	0	0	0	1000	85	1021	485	0	0	
12	0	0	0	0	889	0	1021	482	0	0	
13	0	0	0	0	729	0	1021	467	0	0	
14	0	0	0	0	529	0	1021	440	0	0	
15	0	0	0	0	303	0	1021	404	0	0	
0	0	0	0	0	73	0	1021	363	0	0	
1	0	0	0	0	0	46	1021	320	0	0	
2	0	0	0	0	0	169	1021	280	0	0	
3	0	0	0	0	0	329	1021	244	0	0	
4	0	0	0	0	0	508	1021	219	0	0	
5	0	0	0	0	0	684	1021	204	0	0	
6	0	0	0	0	67	835	1021	203	0	0	
7	0	0	0	0	222	945	1021	214	0	0	
8	0	0	0	0	426	1004	1021	237	0	0	
9	0	0	0	0	656	1006	1021	270	0	0	
10	0	0	0	0	883	947	1021	308	0	0	
11	0	0	0	0	1021	832	1021	350	0	0	
12	0	0	0	0	1021	671	1020	389	0	0	
13	0	0	0	0	1021	479	1020	422	0	0	
14	0	0	0	0	1021	270	1021	446	0	0	
15	0	0	0	0	1003	67	1021	459	0	0	
0	0	0	0	0	892	0	1021	458	0	0	
1	0	0	0	0	732	0	1021	445	0	0	
2	0	0	0	0	533	0	1021	420	0	0	
3	0	0	0	0	307	0	1021	386	0	0	
4	0	0	0	0	78	0	1021	348	0	0	
5	0	0	0	0	0	36	1021	307	0	0	
6	0	0	0	0	0	153	1021	270	0	0	
7	0	0	0	0	0	310	1021	237	0	0	
8	0	0	0	0	0	486	1021	214	0	0	
9	0	0	0	0	0	661	1021	201	0	0	
10	0	0	0	0	70	813	1021	202	0	0	
11	0	0	0	0	225	926	1021	215	0	0	
12	0	0	0	0	432	989	1021	239	0	0	
13	0	0	0	0	662	995	1021	272	0	0	
14	0	0	0	0	889	941	1021	310	0	0	
15	0	0	0	0	1021	831	1021	350	0	0	
0	0	0	0	0	1021	674	1021	388	0	0	
1	0	0	0	0	1021	485	1021	420	0	0	
2	0	0	0	0	1021	280	1021	443	0	0	
3	0	0	0	0	999	78	1021	453	0	0	
4	0	0	0	0	884	0	1021	451	0	0	
5	0	0	0	0	719	0	1021	437	0	0	
6	0	0	0	0	515	0	1021	411	0	0	
7	0	0	0	0	284	0	1021	376	0	0	
8	0	0	0	0	50	0	1021	337	0	0	
9	0	0	0	0	0	42	1021	297	0	0	
10	0	0	0	0	0	165	1021	259	0	0	
11	0	0	0	0	0	327	1021	228	0	0	
12	0	0	0	0	0	508	1021	207	0	0	
13	0	0	0	0	0	687	1021	198	0	0	
14	0	0	0	0	63	844	1021	203	0	0	
15	0	0	0	0	217	961	1021	221	0	0	
0	0	0	0	0	424	1021	1021	251	0	0	
1	0	0	0	0	659	1021	1021	291	0	0	
2	0	0	0	0	892	982	1021	337	0	0	
3	0	0	0	0	1021	880	1021	385	0	0	
4	0	0	0	0	1021	731	1021	431	0	0	
5	0	0	0	0	1021	548	1021	469	0	0	
6	0	0	0	0	1021	348	1021	496	0	0	
7	0	0	0	0	1021	149	1021	510	0	0	
8	0	0	0	0	926	0	1021	510	0	0	
9	0	0	0	0	780	0	1021	495	0	0	
10	0	0	0	0	593	0	1021	467	0	0	
11	0	0	0	0	376	0	1021	429	0	0	
12	0	0	0	0	148	0	1021	386	0	0	
13	0	0	0	0	0	65	1021	342	0	0	
14	0	0	0	0	0	200	1021	300	0	0	
15	0	0	0	0	0	374	1021	267	0	0	
0	0	0	0	0	0	564	1021	243	0	0	
1	0	0	0	0	0	752	1021	233	0	0	
2	0	0	0	0	79	912	1021	237	0	0	
3	0	0	0	0	241	1021	1021	255	0	0	
4	0	0	0	0	456	1021	1021	285	0	0	
5	0	0	0	0	697	1021	1021	326	0	0	
6	0	0	0	0	933	999	1021	372	0	0	
7	0	0	0	0	1021	902	1021	421	0	0	
8	0	0	0	0	1021	759	1021	466	0	0	
9	0	0	0	0	1021	580	1021	504	0	0	
10	0	0	0	0	1021	383	1021	531	0	0	
11	0	0	0	0	1021	184	1021	543	0	0	
12	0	0	0	0	936	4	1021	542	0	0	
13	0	0	0	0	796	0	1021	527	0	0	
14	0	0	0	0	615	0	1021	500	0	0	
15	0	0	0	0	402	0	1021	464	0	0	
0	0	0	0	0	179	0	1021	424	0	0	
1	0	0	0	0	0	74	1021	383	0	0	
2	0	0	0	0	0	213	1021	344	0	0	
3	0	0	0	0	0	389	1021	312	0	0	
4	0	0	0	0	0	580	1021	289	0	0	
5	0	0	0	0	0	765	1021	279	0	0	
6	0	0	0	0	84	923	1021	282	0	0	
7	0	0	0	0	248	1021	1021	297	0	0	
8	0	0	0	0	462	1021	1021	325	0	0	
9	0	0	0	0	702	1021	1021	363	0	0	
10	0	0	0	0	936	995	1021	407	0	0	
11	0	0	0	0	1021	897	1021	453	0	0	
12	0	0	0	0	1021	754	1021	497	0	0	
13	0	0	0	0	1021	578	1021	535	0	0	
14	0	0	0	0	1021	384	1021	563	0	0	
15	0	0	0	0	1021	191	1021	579	0	0	
0	0	0	0	0	949	15	1021	580	0	0	
1	0	0	0	0	817	0	1021	568	0	0	
2	0	0	0	0	642	0	1020	543	0	0	
3	0	0	0	0	436	0	1021	508	0	0	
4	0	0	0	0	214	0	1021	467	0	0	
5	0	0	0	0	7	97	1021	424	0	0	
6	0	0	0	0	0	249	1021	383	0	0	
7	0	0	0	0	0	437	1020	348	0	0	
8	0	0	0	0	0	639	1021	321	0	0	
9	0	0	0	0	0	831	1021	307	0	0	
10	0	0	0	0	67	993	1021	305	0	0	
11	0	0	0	0	220	1021	1021	316	0	0	
12	0	0	0	0	424	1021	1021	339	0	0	
13	0	0	0	0	656	1021	1021	371	0	0	
14	0	0	0	0	886	1009	1021	411	0	0	
15	0	0	0	0	1021	919	1021	454	0	0	
0	0	0	0	0	1021	781	1021	494	0	0	
1	0	0	0	0	1021	608	1020	529	0	0	
2	0	0	0	0	1021	415	1021	553	0	0	
3	0	0	0	0	1018	219	1021	566	0	0	
4	0	0	0	0	923	40	1021	566	0	0	
5	0	0	0	0	777	0	1020	551	0	0	
6	0	0	0	0	592	0	1020	526	0	0	
7	0	0	0	0	380	0	1021	492	0	0	
8	0	0	0	0	157	0	1021	453	0	0	
9	0	0	0	0	0	80	1021	414	0	0	
10	0	0	0	0	0	223	1021	377	0	0	
11	0	0	0	0	0	402	1021	347	0	0	
12	0	0	0	0	0	598	1021	327	0	0	
13	0	0	0	0	0	787	1021	319	0	0	
14	0	0	0	0	87	947	1021	323	0	0	
15	0	0	0	0	252	1020	1021	339	0	0	
0	0	0	0	0	466	1021	1021	367	0	0	
1	0	0	0	0	704	1021	1021	403	0	0	
2	0	0	0	0	935	1000	1021	444	0	0	
3	0	0	0	0	1021	904	1021	485	0	0	
4	0	0	0	0	1021	760	1021	523	0	0	
5	0	0	0	0	1021	582	1020	553	0	0	
6	0	0	0	0	1021	384	1021	572	0	0	
7	0	0	0	0	1014	185	1021	579	0	0	
8	0	0	0	0	911	4	1021	574	0	0	
9	0	0	0	0	760	0	1020	556	0	0	
10	0	0	0	0	568	0	1020	527	0	0	
11	0	0	0	0	349	0	1021	491	0	0	
12	0	0	0	0	122	0	1021	451	0	0	
13	0	0	0	0	0	73	1021	412	0	0	
14	0	0	0	0	0	212	1021	375	0	0	
15	0	0	0	0	0	389	1021	345	0	0	
0	0	0	0	0	0	582	1021	325	0	0	
1	0	0	0	0	0	769	1021	317	0	0	
2	0	0	0	0	71	929	1021	321	0	0	
3	0	0	0	0	228	1021	1021	338	0	0	
4	0	0	0	0	436	1021	1021	366	0	0	
5	0	0	0	0	670	1021	1021	402	0	0	
6	0	0	0	0	900	998	1021	443	0	0	
7	0	0	0	0	1021	900	1021	485	0	0	
8	0	0	0	0	1021	755	1021	523	0	0	
9	0	0	0	0	1021	576	1021	554	0	0	
10	0	0	0	0	1021	378	1021	575	0	0	
11	0	0	0	0	1013	179	1021	583	0	0	
12	0	0	0	0	910	0	1021	576	0	0	
13	0	0	0	0	756	0	1020	557	0	0	
14	0	0	0	0	562	0	1020	526	0	0	
15	0	0	0	0	339	0	1021	487	0	0	
0	0	0	0	0	109	0	1021	443	0	0	
1	0	0	0	0	0	62	1021	398	0	0	
2	0	0	0	0	0	195	1021	357	0	0	
3	0	0	0	0	0	365	1020	322	0	0	
4	0	0	0	0	0	552	1021	297	0	0	
5	0	0	0	0	0	735	1021	285	0	0	
6	0	0	0	0	61	890	1021	286	0	0	
7	0	0	0	0	212	1004	1021	299	0	0	
8	0	0	0	0	414	1021	1021	325	0	0	
9	0	0	0	0	643	1021	1021	360	0	0	
10	0	0	0	0	871	984	1021	402	0	0	
11	0	0	0	0	1021	879	1021	445	0	0	
12	0	0	0	0	1021	728	1021	486	0	0	
13	0	0	0	0	1021	543	1020	520	0	0	
14	0	0	0	0	1021	342	1021	545	0	0	
15	0	0	0	0	1010	142	1021	557	0	0	
0	0	0	0	0	907	0	1021	555	0	0	
1	0	0	0	0	753	0	1021	540	0	0	
2	0	0	0	0	559	0	1021	512	0	0	
3	0	0	0	0	337	0	1021	476	0	0	
4	0	0	0	0	108	0	1021	434	0	0	
5	0	0	0	0	0	57	1021	391	0	0	
6	0	0	0	0	0	189	1021	352	0	0	
7	0	0	0	0	0	358	1021	318	0	0	
8	0	0	0	0	0	543	1021	294	0	0	
9	0	0	0	0	0	726	1021	281	0	0	
10	0	0	0	0	63	883	1021	283	0	0	
11	0	0	0	0	215	999	1021	296	0	0	
12	0	0	0	0	419	1021	1021	323	0	0	
13	0	0	0	0	648	1021	1021	359	0	0	
14	0	0	0	0	878	987	1021	401	0	0	
15	0	0	0	0	1021	883	1021	446	0	0	
0	0	0	0	0	1021	734	1021	488	0	0	
1	0	0	0	0	1021	551	1021	524	0	0	
2	0	0	0	0	1021	349	1021	549	0	0	
3	0	0	0	0	1013	148	1021	561	0	0	
4	0	0	0	0	912	0	1021	560	0	0	
5	0	0	0	0	760	0	1021	544	0	0	
6	0	0	0	0	568	0	1021	517	0	0	
7	0	0	0	0	344	0	1021	481	0	0	
8	0	0	0	0	112	0	1021	440	0	0	
9	0	0	0	0	0	68	1021	397	0	0	
10	0	0	0	0	0	209	1021	357	0	0	
11	0	0	0	0	0	388	1021	323	0	0	
12	0	0	0	0	0	584	1021	299	0	0	
13	0	0	0	0	0	776	1021	287	0	0	
14	0	0	0	0	36	942	1021	287	0	0	
15	0	0	0	0	169	1021	1021	301	0	0	
0	0	0	0	0	355	1021	1021	327	0	0	
1	0	0	0	0	571	1021	1021	362	0	0	
2	0	0	0	0	789	1008	1021	403	0	0	
3	0	0	0	0	978	915	1021	447	0	0	
4	0	0	0	0	1021	775	1021	487	0	0	
5	0	0	0	0	1021	598	1021	520	0	0	
6	0	0	0	0	1021	400	1021	543	0	0	
7	0	0	0	0	992	199	1021	553	0	0	
8	0	0	0	0	874	14	1021	550	0	0	
9	0	0	0	0	707	0	1020	533	0	0	
10	0	0	0	0	500	0	1020	504	0	0	
11	0	0	0	0	268	0	1021	467	0	0	
12	0	0	0	0	32	0	1021	425	0	0	
13	0	0	0	0	0	66	1021	383	0	0	
14	0	0	0	0	0	205	1021	344	0	0	
15	0	0	0	0	0	383	1021	312	0	0	
0	0	0	0	0	0	580	1021	290	0	0	
1	0	0	0	0	0	771	1021	280	0	0	
2	0	0	0	0	33	936	1021	283	0	0	
3	0	0	0	0	166	1021	1021	299	0	0	
4	0	0	0	0	351	1021	1021	326	0	0	
5	0	0	0	0	567	1021	1021	362	0	0	
6	0	0	0	0	785	1006	1021	404	0	0	
7	0	0	0	0	975	913	1021	448	0	0	
8	0	0	0	0	1021	772	1021	490	0	0	
9	0	0	0	0	1021	595	1021	525	0	0	
10	0	0	0	0	1021	398	1021	549	0	0	
11	0	0	0	0	992	199	1021	561	0	0	
12	0	0	0	0	876	15	1021	559	0	0	
13	0	0	0	0	709	0	1021	543	0	0	
14	0	0	0	0	506	0	1021	515	0	0	
15	0	0	0	0	277	0	1021	478	0	0	
0	0	0	0	0	46	0	1021	436	0	0	
1	0	0	0	0	0	64	1021	392	0	0	
2	0	0	0	0	0	199	1021	351	0	0	
3	0	0	0	0	0	372	1021	316	0	0	
4	0	0	0	0	0	562	1021	290	0	0	
5	0	0	0	0	0	748	1021	277	0	0	
6	0	0	0	0	54	907	1021	276	0	0	
7	0	0	0	0	200	1020	1021	289	0	0	
8	0	0	0	0	397	1021	1021	314	0	0	
9	0	0	0	0	622	1021	1021	348	0	0	
10	0	0	0	0	845	992	1021	389	0	0	
11	0	0	0	0	1020	889	1021	432	0	0	
12	0	0	0	0	1021	741	1021	472	0	0	
13	0	0	0	0	1021	558	1021	505	0	0	
14	0	0	0	0	1021	356	1021	531	0	0	
15	0	0	0	0	1001	155	1021	543	0	0	
0	0	0	0	0	891	0	1021	543	0	0	
1	0	0	0	0	731	0	1021	530	0	0	
2	0	0	0	0	534	0	1020	505	0	0	
3	0	0	0	0	311	0	1021	471	0	0	
4	0	0	0	0	84	0	1021	432	0	0	
5	0	0	0	0	0	59	1021	391	0	0	
6	0	0	0	0	0	191	1021	352	0	0	
7	0	0	0	0	0	361	1021	318	0	0	
8	0	0	0	0	0	549	1021	294	0	0	
9	0	0	0	0	0	733	1021	280	0	0	
10	0	0	0	0	62	891	1021	279	0	0	
11	0	0	0	0	212	1006	1021	291	0	0	
12	0	0	0	0	412	1021	1021	313	0	0	
13	0	0	0	0	637	1021	1021	346	0	0	
14	0	0	0	0	861	986	1021	385	0	0	
15	0	0	0	0	1020	881	1021	427	0	0	
0	0	0	0	0	1021	730	1020	467	0	0	
1	0	0	0	0	1021	545	1021	502	0	0	
2	0	0	0	0	1021	343	1021	528	0	0	
3	0	0	0	0	1001	142	1021	542	0	0	
4	0	0	0	0	889	0	1021	542	0	0	
5	0	0	0	0	729	0	1020	530	0	0	
6	0	0	0	0	531	0	1020	505	0	0	
7	0	0	0	0	307	0	1021	472	0	0	
8	0	0	0	0	79	0	1021	434	0	0	
9	0	0	0	0	0	52	1021	394	0	0	
10	0	0	0	0	0	181	1021	356	0	0	
11	0	0	0	0	0	348	1021	324	0	0	
12	0	0	0	0	0	535	1021	302	0	0	
13	0	0	0	0	0	719	1021	291	0	0	
14	0	0	0	0	75	878	1021	292	0	0	
15	0	0	0	0	234	995	1021	305	0	0	
0	0	0	0	0	443	1021	1021	330	0	0	
1	0	0	0	0	677	1021	1021	364	0	0	
2	0	0	0	0	906	988	1021	403	0	0	
3	0	0	0	0	1021	885	1021	443	0	0	
4	0	0	0	0	1021	735	1021	481	0	0	
5	0	0	0	0	1021	550	1021	512	0	0	
6	0	0	0	0	1021	346	1021	534	0	0	
7	0	0	0	0	1012	143	1021	542	0	0	
8	0	0	0	0	908	0	1021	538	0	0	
9	0	0	0	0	755	0	1021	521	0	0	
10	0	0	0	0	564	0	1021	493	0	0	
11	0	0	0	0	344	0	1021	456	0	0	
12	0	0	0	0	116	0	1021	415	0	0	
13	0	0	0	0	0	50	1021	374	0	0	
14	0	0	0	0	0	179	1021	335	0	0	
15	0	0	0	0	0	348	1021	303	0	0	
0	0	0	0	0	0	536	1021	281	0	0	
1	0	0	0	0	0	721	1021	271	0	0	
2	0	0	0	0	63	883	1021	273	0	0	
3	0	0	0	0	215	1004	1021	289	0	0	
4	0	0	0	0	416	1021	1021	316	0	0	
5	0	0	0	0	644	1021	1021	352	0	0	
6	0	0	0	0	870	995	1021	394	0	0	
7	0	0	0	0	1021	896	1021	438	0	0	
8	0	0	0	0	1021	749	1021	479	0	0	
9	0	0	0	0	1021	568	1021	512	0	0	
10	0	0	0	0	1021	366	1021	537	0	0	
11	0	0	0	0	1007	164	1021	548	0	0	
12	0	0	0	0	901	0	1021	547	0	0	
13	0	0	0	0	747	0	1021	532	0	0	
14	0	0	0	0	556	0	1021	507	0	0	
15	0	0	0	0	337	0	1021	473	0	0	
0	0	0	0	0	114	0	1021	435	0	0	
1	0	0	0	0	0	58	1021	395	0	0	
2	0	0	0	0	0	191	1021	358	0	0	
3	0	0	0	0	0	362	1021	326	0	0	
4	0	0	0	0	0	551	1021	303	0	0	
5	0	0	0	0	0	735	1021	291	0	0	
6	0	0	0	0	75	894	1021	291	0	0	
7	0	0	0	0	230	1010	1021	303	0	0	
8	0	0	0	0	434	1021	1021	327	0	0	
9	0	0	0	0	661	1021	1021	358	0	0	
10	0	0	0	0	883	986	1021	395	0	0	
11	0	0	0	0	1021	879	1021	432	0	0	
12	0	0	0	0	1021	725	1021	467	0	0	
13	0	0	0	0	1021	536	1021	495	0	0	
14	0	0	0	0	1021	329	1021	514	0	0	
15	0	0	0	0	992	125	1021	521	0	0	
0	0	0	0	0	874	0	1021	518	0	0	
1	0	0	0	0	711	0	1021	503	0	0	
2	0	0	0	0	512	0	1020	478	0	0	
3	0	0	0	0	292	0	1021	447	0	0	
4	0	0	0	0	71	0	1021	412	0	0	
5	0	0	0	0	0	48	1021	377	0	0	
6	0	0	0	0	0	175	1021	345	0	0	
7	0	0	0	0	0	340	1021	318	0	0	
8	0	0	0	0	0	526	1021	300	0	0	
9	0	0	0	0	0	709	1021	293	0	0	
10	0	0	0	0	95	867	1021	297	0	0	
11	0	0	0	0	262	985	1021	313	0	0	
12	0	0	0	0	476	1021	1021	339	0	0	
13	0	0	0	0	713	1021	1021	372	0	0	
14	0	0	0	0	941	986	1021	411	0	0	
15	0	0	0	0	1021	883	1021	451	0	0	
0	0	0	0	0	1021	733	1021	487	0	0	
1	0	0	0	0	1021	548	1021	518	0	0	
2	0	0	0	0	1021	345	1021	538	0	0	
3	0	0	0	0	1008	143	1021	547	0	0	
4	0	0	0	0	903	0	1021	543	0	0	
5	0	0	0	0	748	0	1021	526	0	0	
6	0	0	0	0	556	0	1021	499	0	0	
7	0	0	0	0	336	0	1021	465	0	0	
8	0	0	0	0	110	0	1021	426	0	0	
9	0	0	0	0	0	55	1021	386	0	0	
10	0	0	0	0	0	187	1021	349	0	0	
11	0	0	0	0	0	359	1021	318	0	0	
12	0	0	0	0	0	550	1021	295	0	0	
13	0	0	0	0	0	737	1021	284	0	0	
14	0	0	0	0	57	900	1021	285	0	0	
15	0	0	0	0	203	1020	1021	297	0	0	
0	0	0	0	0	398	1021	1021	321	0	0	
1	0	0	0	0	620	1021	1021	354	0	0	
2	0	0	0	0	840	997	1021	393	0	0	
3	0	0	0	0	1020	899	1021	435	0	0	
4	0	0	0	0	1021	754	1021	474	0	0	
5	0	0	0	0	1021	573	1021	508	0	0	
6	0	0	0	0	1021	372	1021	532	0	0	
7	0	0	0	0	997	170	1021	545	0	0	
8	0	0	0	0	883	0	1021	544	0	0	
9	0	0	0	0	721	0	1021	531	0	0	
10	0	0	0	0	523	0	1021	506	0	0	
11	0	0	0	0	298	0	1021	473	0	0	
12	0	0	0	0	71	0	1021	435	0	0	
13	0	0	0	0	0	55	1021	396	0	0	
14	0	0	0	0	0	187	1021	358	0	0	
15	0	0	0	0	0	359	1021	327	0	0	
0	0	0	0	0	0	549	1021	304	0	0	
1	0	0	0	0	0	737	1021	293	0	0	
2	0	0	0	0	62	900	1021	294	0	0	
3	0	0	0	0	212	1020	1021	307	0	0	
4	0	0	0	0	413	1021	1021	332	0	0	
5	0	0	0	0	640	1021	1021	366	0	0	
6	0	0	0	0	865	1000	1021	405	0	0	
7	0	0	0	0	1020	904	1021	447	0	0	
8	0	0	0	0	1021	760	1021	485	0	0	
9	0	0	0	0	1021	580	1021	517	0	0	
10	0	0	0	0	1021	380	1021	538	0	0	
11	0	0	0	0	1004	177	1021	548	0	0	
12	0	0	0	0	894	0	1021	544	0	0	
13	0	0	0	0	736	0	1021	528	0	0	
14	0	0	0	0	540	0	1021	500	0	0	
15	0	0	0	0	319	0	1021	465	0	0	
0	0	0	0	0	95	0	1021	425	0	0	
1	0	0	0	0	0	49	1021	384	0	0	
2	0	0	0	0	0	177	1021	347	0	0	
3	0	0	0	0	0	343	1020	315	0	0	
4	0	0	0	0	0	529	1021	293	0	0	
5	0	0	0	0	0	712	1021	282	0	0	
6	0	0	0	0	80	872	1021	284	0	0	
7	0	0	0	0	240	990	1021	298	0	0	
8	0	0	0	0	451	1021	1021	324	0	0	
9	0	0	0	0	687	1021	1021	359	0	0	
10	0	0	0	0	919	990	1021	400	0	0	
11	0	0	0	0	1021	888	1021	443	0	0	
12	0	0	0	0	1021	740	1021	483	0	0	
13	0	0	0	0	1021	558	1021	519	0	0	
14	0	0	0	0	1021	357	1021	543	0	0	
15	0	0	0	0	1021	155	1021	556	0	0	
0	0	0	0	0	928	0	1021	555	0	0	
1	0	0	0	0	785	0	1021	541	0	0	
2	0	0	0	0	603	0	1021	515	0	0	
3	0	0	0	0	390	0	1021	480	0	0	
4	0	0	0	0	167	0	1021	440	0	0	
5	0	0	0	0	0	55	1021	398	0	0	
6	0	0	0	0	0	188	1021	359	0	0	
7	0	0	0	0	0	360	1021	325	0	0	
8	0	0	0	0	0	551	1021	301	0	0	
9	0	0	0	0	0	741	1021	289	0	0	
10	0	0	0	0	68	905	1021	289	0	0	
11	0	0	0	0	222	1021	1021	303	0	0	
12	0	0	0	0	425	1021	1021	328	0	0	
13	0	0	0	0	655	1021	1021	363	0	0	
14	0	0	0	0	880	1003	1021	403	0	0	
15	0	0	0	0	1021	908	1021	446	0	0	
0	0	0	0	0	1021	764	1021	484	0	0	
1	0	0	0	0	1021	583	1021	517	0	0	
2	0	0	0	0	1021	382	1021	539	0	0	
3	0	0	0	0	1005	178	1021	548	0	0	
4	0	0	0	0	896	0	1021	544	0	0	
5	0	0	0	0	738	0	1021	528	0	0	
6	0	0	0	0	544	0	1021	499	0	0	
7	0	0	0	0	325	0	1021	463	0	0	
8	0	0	0	0	102	0	1021	423	0	0	
9	0	0	0	0	0	38	1021	381	0	0	
10	0	0	0	0	0	158	1021	342	0	0	
11	0	0	0	0	0	318	1021	308	0	0	
12	0	0	0	0	0	499	1021	285	0	0	
13	0	0	0	0	0	679	1021	274	0	0	
14	0	0	0	0	90	838	1021	276	0	0	
15	0	0	0	0	256	957	1021	290	0	0	
0	0	0	0	0	469	1020	1021	315	0	0	
1	0	0	0	0	705	1021	1021	350	0	0	
2	0	0	0	0	935	984	1021	390	0	0	
3	0	0	0	0	1021	882	1021	432	0	0	
4	0	0	0	0	1021	733	1021	471	0	0	
5	0	0	0	0	1021	549	1021	504	0	0	
6	0	0	0	0	1021	346	1021	527	0	0	
7	0	0	0	0	1012	143	1021	538	0	0	
8	0	0	0	0	910	0	1021	535	0	0	
9	0	0	0	0	757	0	1021	519	0	0	
10	0	0	0	0	567	0	1021	492	0	0	
11	0	0	0	0	349	0	1021	455	0	0	
12	0	0	0	0	126	0	1021	415	0	0	
13	0	0	0	0	0	36	1021	373	0	0	
14	0	0	0	0	0	155	1021	335	0	0	
15	0	0	0	0	0	313	1021	302	0	0	
0	0	0	0	0	0	494	1021	280	0	0	
1	0	0	0	0	0	673	1021	269	0	0	
2	0	0	0	0	83	830	1021	271	0	0	
3	0	0	0	0	245	949	1021	286	0	0	
4	0	0	0	0	455	1018	1021	312	0	0	
5	0	0	0	0	691	1021	1021	349	0	0	
6	0	0	0	0	920	981	1021	391	0	0	
7	0	0	0	0	1021	879	1021	436	0	0	
8	0	0	0	0	1021	730	1021	479	0	0	
9	0	0	0	0	1021	547	1021	514	0	0	
10	0	0	0	0	1021	344	1021	540	0	0	
11	0	0	0	0	1012	142	1021	552	0	0	
12	0	0	0	0	911	0	1021	550	0	0	
13	0	0	0	0	759	0	1021	535	0	0	
14	0	0	0	0	568	0	1020	507	0	0	
15	0	0	0	0	351	0	1021	469	0	0	
0	0	0	0	0	127	0	1021	426	0	0	
1	0	0	0	0	0	39	1021	381	0	0	
2	0	0	0	0	0	160	1021	339	0	0	
3	0	0	0	0	0	320	1021	302	0	0	
4	0	0	0	0	0	502	1021	276	0	0	
5	0	0	0	0	0	682	1021	262	0	0	
6	0	0	0	0	83	840	1021	260	0	0	
7	0	0	0	0	245	958	1021	272	0	0	
8	0	0	0	0	457	1021	1021	297	0	0	
9	0	0	0	0	693	1021	1021	333	0	0	
10	0	0	0	0	924	983	1021	376	0	0	
11	0	0	0	0	1021	880	1021	421	0	0	
12	0	0	0	0	1021	730	1021	464	0	0	
13	0	0	0	0	1021	545	1021	501	0	0	
14	0	0	0	0	1021	342	1021	527	0	0	
15	0	0	0	0	1017	138	1021	541	0	0	
0	0	0	0	0	919	0	1021	540	0	0	
1	0	0	0	0	770	0	1021	526	0	0	
2	0	0	0	0	583	0	1020	498	0	0	
3	0	0	0	0	369	0	1021	461	0	0	
4	0	0	0	0	146	0	1021	418	0	0	
5	0	0	0	0	0	37	1021	373	0	0	
6	0	0	0	0	0	157	1021	331	0	0	
7	0	0	0	0	0	318	1021	296	0	0	
8	0	0	0	0	0	501	1021	271	0	0	
9	0	0	0	0	0	684	1021	259	0	0	
10	0	0	0	0	84	845	1021	259	0	0	
11	0	0	0	0	246	966	1021	274	0	0	
12	0	0	0	0	455	1021	1021	300	0	0	
13	0	0	0	0	688	1021	1021	335	0	0	
14	0	0	0	0	915	987	1021	377	0	0	
15	0	0	0	0	1021	886	1021	419	0	0	
0	0	0	0	0	1021	735	1021	460	0	0	
1	0	0	0	0	1021	549	1021	493	0	0	
2	0	0	0	0	1021	343	1021	516	0	0	
3	0	0	0	0	1004	137	1021	527	0	0	
4	0	0	0	0	894	0	1021	526	0	0	
5	0	0	0	0	736	0	1021	512	0	0	
6	0	0	0	0	542	0	1021	487	0	0	
7	0	0	0	0	322	0	1021	453	0	0	
8	0	0	0	0	99	0	1021	415	0	0	
9	0	0	0	0	0	39	1021	377	0	0	
10	0	0	0	0	0	162	1021	341	0	0	
11	0	0	0	0	0	327	1021	312	0	0	
12	0	0	0	0	0	515	1021	292	0	0	
13	0	0	0	0	0	702	1021	284	0	0	
14	0	0	0	0	84	867	1021	289	0	0	
15	0	0	0	0	247	993	1021	305	0	0	
0	0	0	0	0	457	1021	1021	333	0	0	
1	0	0	0	0	692	1021	1021	368	0	0	
2	0	0	0	0	920	1000	1021	408	0	0	
3	0	0	0	0	1021	904	1021	447	0	0	
4	0	0	0	0	1021	758	1021	483	0	0	
5	0	0	0	0	1021	574	1021	510	0	0	
6	0	0	0	0	1021	368	1021	525	0	0	
7	0	0	0	0	1001	158	1021	527	0	0	
8	0	0	0	0	886	0	1021	513	0	0	
9	0	0	0	0	719	0	1021	486	0	0	
10	0	0	0	0	515	0	1021	446	0	0	
11	0	0	0	0	285	0	1021	397	0	0	
12	0	0	0	0	53	0	1021	341	0	0	
13	0	0	0	0	0	4	1021	283	0	0	
14	0	0	0	0	0	97	1021	227	0	0	
15	0	0	0	0	0	232	1021	175	0	0	
0	0	0	0	0	0	389	1021	133	0	0	
1	0	0	0	0	0	548	1021	102	0	0	
2	0	0	0	0	44	690	1021	84	0	0	
3	0	0	0	0	177	794	1021	79	0	0	
4	0	0	0	0	357	849	1021	87	0	0	
5	0	0	0	0	558	847	1021	105	0	0	
6	0	0	0	0	755	785	1021	130	0	0	
7	0	0	0	0	916	668	1021	159	0	0	
8	0	0	0	0	1020	503	1021	188	0	0	
9	0	0	0	0	1021	304	1021	211	0	0	
10	0	0	0	0	992	91	1021	227	0	0	
11	0	0	0	0	873	0	1021	234	0	0	
12	0	0	0	0	688	0	1021	228	0	0	
13	0	0	0	0	458	0	1021	211	0	0	
14	0	0	0	0	201	0	1021	184	0	0	
15	0	0	0	0	0	0	1021	147	0	0	
0	0	0	0	0	0	0	1021	107	0	0	
1	0	0	0	0	0	0	1021	65	0	0	
2	0	0	0	0	0	0	1021	28	0	0	
3	0	0	0	0	0	38	1020	0	0	0	
4	0	0	0	0	0	131	1021	0	0	0	
5	0	0	0	0	0	244	1021	0	0	0	
6	0	0	0	0	58	362	1021	3	0	0	
7	0	0	0	0	215	468	1021	27	0	0	
8	0	0	0	0	425	550	1021	65	0	0	
9	0	0	0	0	665	594	1021	118	0	0	
10	0	0	0	0	905	596	1021	180	0	0	
11	0	0	0	0	1021	556	1021	247	0	0	
12	0	0	0	0	1021	476	1021	315	0	0	
13	0	0	0	0	1021	368	1021	380	0	0	
14	0	0	0	0	1021	243	1021	435	0	0	
15	0	0	0	0	1021	113	1021	477	0	0	
0	0	0	0	0	955	0	1021	504	0	0	
1	0	0	0	0	827	0	1021	513	0	0	
2	0	0	0	0	659	0	1020	507	0	0	
3	0	0	0	0	460	0	1021	487	0	0	
4	0	0	0	0	247	20	1021	456	0	0	
5	0	0	0	0	47	127	1021	420	0	0	
6	0	0	0	0	0	284	1021	383	0	0	
7	0	0	0	0	0	474	1021	349	0	0	
8	0	0	0	0	0	675	1021	323	0	0	
9	0	0	0	0	0	865	1021	306	0	0	
10	0	0	0	0	88	1020	1021	302	0	0	
11	0	0	0	0	251	1021	1021	311	0	0	
12	0	0	0	0	461	1021	1021	331	0	0	
13	0	0	0	0	696	1021	1021	360	0	0	
14	0	0	0	0	925	1010	1021	396	0	0	
15	0	0	0	0	1021	919	1021	435	0	0	
0	0	0	0	0	1021	780	1021	472	0	0	
1	0	0	0	0	1021	604	1021	503	0	0	
2	0	0	0	0	1021	407	1021	524	0	0	
3	0	0	0	0	1009	204	1021	534	0	0	
4	0	0	0	0	904	17	1021	532	0	0	
5	0	0	0	0	750	0	1021	517	0	0	
6	0	0	0	0	559	0	1021	492	0	0	
7	0	0	0	0	342	0	1021	460	0	0	
8	0	0	0	0	119	0	1021	422	0	0	
9	0	0	0	0	0	60	1021	383	0	0	
10	0	0	0	0	0	198	1021	347	0	0	
11	0	0	0	0	0	376	1021	315	0	0	
12	0	0	0	0	0	574	1021	292	0	0	
13	0	0	0	0	0	770	1021	280	0	0	
14	0	0	0	0	66	939	1021	280	0	0	
15	0	0	0	0	216	1021	1021	291	0	0	
0	0	0	0	0	416	1021	1021	314	0	0	
1	0	0	0	0	641	1021	1021	347	0	0	
2	0	0	0	0	865	1016	1021	386	0	0	
3	0	0	0	0	1021	931	1021	427	0	0	
4	0	0	0	0	1021	798	1021	467	0	0	
5	0	0	0	0	1021	626	1021	501	0	0	
6	0	0	0	0	1021	432	1021	525	0	0	
7	0	0	0	0	1000	231	1021	537	0	0	
8	0	0	0	0	888	46	1021	536	0	0	
9	0	0	0	0	728	0	1021	522	0	0	
10	0	0	0	0	531	0	1021	496	0	0	
11	0	0	0	0	310	0	1021	461	0	0	
12	0	0	0	0	85	0	1021	422	0	0	
13	0	0	0	0	0	58	1021	381	0	0	
14	0	0	0	0	0	194	1021	342	0	0	
15	0	0	0	0	0	371	1021	309	0	0	
0	0	0	0	0	0	568	1021	287	0	0	
1	0	0	0	0	0	762	1021	276	0	0	
2	0	0	0	0	72	931	1021	278	0	0	
3	0	0	0	0	228	1021	1021	293	0	0	
4	0	0	0	0	432	1021	1021	320	0	0	
5	0	0	0	0	662	1021	1021	356	0	0	
6	0	0	0	0	888	1016	1021	399	0	0	
7	0	0	0	0	1021	932	1021	443	0	0	
8	0	0	0	0	1021	799	1021	485	0	0	
9	0	0	0	0	1021	628	1021	521	0	0	
10	0	0	0	0	1021	435	1021	546	0	0	
11	0	0	0	0	1004	235	1021	559	0	0	
12	0	0	0	0	895	49	1021	557	0	0	
13	0	0	0	0	736	0	1021	542	0	0	
14	0	0	0	0	542	0	1021	514	0	0	
15	0	0	0	0	323	0	1021	478	0	0	
0	0	0	0	0	102	0	1021	435	0	0	
1	0	0	0	0	0	52	1021	391	0	0	
2	0	0	0	0	0	183	1021	350	0	0	
3	0	0	0	0	0	353	1020	314	0	0	
4	0	0	0	0	0	543	1021	287	0	0	
5	0	0	0	0	0	730	1021	273	0	0	
6	0	0	0	0	87	893	1021	271	0	0	
7	0	0	0	0	248	1014	1021	281	0	0	
8	0	0	0	0	455	1021	1021	303	0	0	
9	0	0	0	0	686	1021	1021	335	0	0	
10	0	0	0	0	909	996	1021	374	0	0	
11	0	0	0	0	1021	898	1021	415	0	0	
12	0	0	0	0	1021	751	1021	455	0	0	
13	0	0	0	0	1021	568	1021	489	0	0	
14	0	0	0	0	1021	366	1021	514	0	0	
15	0	0	0	0	998	163	1021	528	0	0	
0	0	0	0	0	883	0	1021	529	0	0	
1	0	0	0	0	722	0	1021	518	0	0	
2	0	0	0	0	526	0	1021	495	0	0	
3	0	0	0	0	306	0	1021	463	0	0	
4	0	0	0	0	84	0	1021	425	0	0	
5	0	0	0	0	0	45	1021	386	0	0	
6	0	0	0	0	0	174	1021	348	0	0	
7	0	0	0	0	0	343	1021	316	0	0	
8	0	0	0	0	0	534	1021	294	0	0	
9	0	0	0	0	0	725	1021	282	0	0	
10	0	0	0	0	85	892	1021	283	0	0	
11	0	0	0	0	246	1018	1021	295	0	0	
12	0	0	0	0	455	1021	1021	319	0	0	
13	0	0	0	0	687	1021	1021	353	0	0	
14	0	0	0	0	913	1007	1021	392	0	0	
15	0	0	0	0	1021	916	1021	433	0	0	
0	0	0	0	0	1021	775	1021	472	0	0	
1	0	0	0	0	1021	597	1021	505	0	0	
2	0	0	0	0	1021	397	1021	529	0	0	
3	0	0	0	0	1001	193	1021	540	0	0	
4	0	0	0	0	888	5	1021	539	0	0	
5	0	0	0	0	726	0	1021	524	0	0	
6	0	0	0	0	529	0	1021	498	0	0	
7	0	0	0	0	308	0	1021	463	0	0	
8	0	0	0	0	84	0	1021	423	0	0	
9	0	0	0	0	0	39	1021	382	0	0	
10	0	0	0	0	0	162	1021	344	0	0	
11	0	0	0	0	0	326	1021	311	0	0	
12	0	0	0	0	0	512	1021	287	0	0	
13	0	0	0	0	0	698	1021	275	0	0	
14	0	0	0	0	79	860	1021	275	0	0	
15	0	0	0	0	237	984	1021	287	0	0	
0	0	0	0	0	443	1021	1021	310	0	0	
1	0	0	0	0	670	1021	1021	343	0	0	
2	0	0	0	0	892	993	1021	381	0	0	
3	0	0	0	0	1021	894	1021	421	0	0	
4	0	0	0	0	1021	743	1021	457	0	0	
5	0	0	0	0	1021	557	1021	487	0	0	
6	0	0	0	0	1021	350	1021	508	0	0	
7	0	0	0	0	989	141	1021	517	0	0	
8	0	0	0	0	867	0	1021	513	0	0	
9	0	0	0	0	698	0	1021	496	0	0	
10	0	0	0	0	496	0	1021	469	0	0	
11	0	0	0	0	270	0	1021	434	0	0	
12	0	0	0	0	46	0	1021	394	0	0	
13	0	0	0	0	0	23	1021	353	0	0	
14	0	0	0	0	0	136	1021	316	0	0	
15	0	0	0	0	0	291	1021	284	0	0	
0	0	0	0	0	0	471	1021	262	0	0	
1	0	0	0	0	0	652	1021	252	0	0	
2	0	0	0	0	81	815	1021	254	0	0	
3	0	0	0	0	240	939	1021	268	0	0	
4	0	0	0	0	446	1016	1021	295	0	0	
5	0	0	0	0	675	1021	1021	330	0	0	
6	0	0	0	0	899	988	1021	371	0	0	
7	0	0	0	0	1021	891	1021	415	0	0	
8	0	0	0	0	1021	743	1021	456	0	0	
9	0	0	0	0	1021	559	1021	490	0	0	
10	0	0	0	0	1021	353	1021	515	0	0	
11	0	0	0	0	993	146	1021	527	0	0	
12	0	0	0	0	874	0	1021	524	0	0	
13	0	0	0	0	706	0	1021	508	0	0	
14	0	0	0	0	504	0	1021	480	0	0	
15	0	0	0	0	280	0	1021	443	0	0	
0	0	0	0	0	56	0	1021	399	0	0	
1	0	0	0	0	0	22	1021	354	0	0	
2	0	0	0	0	0	134	1021	312	0	0	
3	0	0	0	0	0	290	1021	274	0	0	
4	0	0	0	0	0	470	1021	247	0	0	
5	0	0	0	0	0	652	1021	231	0	0	
6	0	0	0	0	73	816	1021	230	0	0	
7	0	0	0	0	227	942	1021	241	0	0	
8	0	0	0	0	430	1019	1021	265	0	0	
9	0	0	0	0	655	1021	1021	299	0	0	
10	0	0	0	0	877	990	1021	340	0	0	
11	0	0	0	0	1021	893	1021	384	0	0	
12	0	0	0	0	1021	746	1021	426	0	0	
13	0	0	0	0	1021	563	1021	462	0	0	
14	0	0	0	0	1021	356	1021	488	0	0	
15	0	0	0	0	989	148	1021	503	0	0	
0	0	0	0	0	867	0	1021	503	0	0	
1	0	0	0	0	697	0	1021	489	0	0	
2	0	0	0	0	494	0	1021	463	0	0	
3	0	0	0	0	269	0	1021	428	0	0	
4	0	0	0	0	45	0	1021	386	0	0	
5	0	0	0	0	0	20	1021	343	0	0	
6	0	0	0	0	0	130	1021	300	0	0	
7	0	0	0	0	0	284	1021	263	0	0	
8	0	0	0	0	0	462	1021	235	0	0	
9	0	0	0	0	0	642	1021	219	0	0	
10	0	0	0	0	76	803	1021	215	0	0	
11	0	0	0	0	231	927	1021	225	0	0	
12	0	0	0	0	433	1002	1021	246	0	0	
13	0	0	0	0	659	1021	1021	278	0	0	
14	0	0	0	0	878	979	1021	317	0	0	
15	0	0	0	0	1021	880	1021	359	0	0	
0	0	0	0	0	1021	730	1021	399	0	0	
1	0	0	0	0	1021	543	1021	433	0	0	
2	0	0	0	0	1021	335	1021	458	0	0	
3	0	0	0	0	977	126	1021	471	0	0	
4	0	0	0	0	844	0	1021	470	0	0	
5	0	0	0	0	664	0	1020	455	0	0	
6	0	0	0	0	450	0	1020	428	0	0	
7	0	0	0	0	217	0	1021	391	0	0	
8	0	0	0	0	0	0	1021	347	0	0	
9	0	0	0	0	0	7	1021	303	0	0	
10	0	0	0	0	0	106	1021	260	0	0	
11	0	0	0	0	0	250	1021	224	0	0	
12	0	0	0	0	0	421	1021	197	0	0	
13	0	0	0	0	0	596	1021	183	0	0	
14	0	0	0	0	69	757	1021	182	0	0	
15	0	0	0	0	222	883	1021	194	0	0	
0	0	0	0	0	423	961	1021	219	0	0	
1	0	0	0	0	648	985	1021	254	0	0	
2	0	0	0	0	869	951	1021	295	0	0	
3	0	0	0	0	1021	859	1021	340	0	0	
4	0	0	0	0	1021	717	1021	384	0	0	
5	0	0	0	0	1021	539	1021	421	0	0	
6	0	0	0	0	1021	339	1021	449	0	0	
7	0	0	0	0	988	137	1021	465	0	0	
8	0	0	0	0	866	0	1021	467	0	0	
9	0	0	0	0	696	0	1021	456	0	0	
10	0	0	0	0	495	0	1021	431	0	0	
11	0	0	0	0	271	0	1021	396	0	0	
12	0	0	0	0	50	0	1021	354	0	0	
13	0	0	0	0	0	16	1021	310	0	0	
14	0	0	0	0	0	121	1021	266	0	0	
15	0	0	0	0	0	270	1021	228	0	0	
0	0	0	0	0	0	441	1021	198	0	0	
1	0	0	0	0	0	616	1021	180	0	0	
2	0	0	0	0	100	773	1021	175	0	0	
3	0	0	0	0	269	894	1021	184	0	0	
4	0	0	0	0	484	968	1021	206	0	0	
5	0	0	0	0	719	987	1021	240	0	0	
6	0	0	0	0	946	947	1021	282	0	0	
7	0	0	0	0	1021	851	1021	328	0	0	
8	0	0	0	0	1021	706	1021	374	0	0	
9	0	0	0	0	1021	526	1021	415	0	0	
10	0	0	0	0	1021	326	1021	447	0	0	
11	0	0	0	0	1002	127	1021	468	0	0	
12	0	0	0	0	889	0	1021	476	0	0	
13	0	0	0	0	730	0	1021	470	0	0	
14	0	0	0	0	536	0	1021	450	0	0	
15	0	0	0	0	318	0	1021	422	0	0	
0	0	0	0	0	98	0	1021	386	0	0	
1	0	0	0	0	0	34	1021	348	0	0	
2	0	0	0	0	0	157	1021	310	0	0	
3	0	0	0	0	0	321	1021	279	0	0	
4	0	0	0	0	0	510	1021	255	0	0	
5	0	0	0	0	0	700	1021	242	0	0	
6	0	0	0	0	93	868	1021	242	0	0	
7	0	0	0	0	258	998	1021	255	0	0	
8	0	0	0	0	469	1021	1021	280	0	0	
9	0	0	0	0	703	1021	1021	313	0	0	
10	0	0	0	0	928	1010	1021	354	0	0	
11	0	0	0	0	1021	923	1021	397	0	0	
12	0	0	0	0	1021	787	1021	440	0	0	
13	0	0	0	0	1021	612	1021	476	0	0	
14	0	0	0	0	1021	415	1021	502	0	0	
15	0	0	0	0	1004	214	1021	518	0	0	
0	0	0	0	0	896	27	1021	520	0	0	
1	0	0	0	0	739	0	1021	510	0	0	
2	0	0	0	0	550	0	1020	489	0	0	
3	0	0	0	0	336	0	1021	460	0	0	
4	0	0	0	0	120	0	1021	425	0	0	
5	0	0	0	0	0	55	1021	388	0	0	
6	0	0	0	0	0	190	1021	355	0	0	
7	0	0	0	0	0	368	1020	327	0	0	
8	0	0	0	0	0	567	1021	307	0	0	
9	0	0	0	0	0	765	1021	299	0	0	
10	0	0	0	0	104	939	1021	303	0	0	
11	0	0	0	0	276	1021	1021	318	0	0	
12	0	0	0	0	495	1021	1021	344	0	0	
13	0	0	0	0	736	1021	1021	378	0	0	
14	0	0	0	0	967	1021	1021	417	0	0	
15	0	0	0	0	1021	949	1021	457	0	0	
0	0	0	0	0	1021	822	1021	495	0	0	
1	0	0	0	0	1021	657	1021	526	0	0	
2	0	0	0	0	1021	467	1021	547	0	0	
3	0	0	0	0	1021	269	1021	556	0	0	
4	0	0	0	0	924	83	1021	553	0	0	
5	0	0	0	0	779	0	1021	538	0	0	
6	0	0	0	0	596	0	1021	512	0	0	
7	0	0	0	0	387	0	1021	478	0	0	
8	0	0	0	0	170	0	1021	440	0	0	
9	0	0	0	0	0	63	1021	402	0	0	
10	0	0	0	0	0	202	1021	367	0	0	
11	0	0	0	0	0	384	1021	339	0	0	
12	0	0	0	0	0	586	1021	321	0	0	
13	0	0	0	0	0	786	1021	315	0	0	
14	0	0	0	0	93	961	1021	322	0	0	
15	0	0	0	0	259	1021	1021	340	0	0	
0	0	0	0	0	472	1021	1021	370	0	0	
1	0	0	0	0	709	1021	1021	408	0	0	
2	0	0	0	0	939	1021	1021	451	0	0	
3	0	0	0	0	1021	959	1021	494	0	0	
4	0	0	0	0	1021	838	1021	533	0	0	
5	0	0	0	0	1021	677	1021	564	0	0	
6	0	0	0	0	1021	492	1021	585	0	0	
7	0	0	0	0	1015	296	1021	593	0	0	
8	0	0	0	0	914	113	1021	590	0	0	
9	0	0	0	0	766	0	1021	574	0	0	
10	0	0	0	0	581	0	1021	546	0	0	
11	0	0	0	0	371	0	1021	511	0	0	
12	0	0	0	0	156	0	1021	471	0	0	
13	0	0	0	0	0	70	1021	430	0	0	
14	0	0	0	0	0	211	1020	391	0	0	
15	0	0	0	0	0	393	1021	358	0	0	
0	0	0	0	0	0	595	1021	335	0	0	
1	0	0	0	0	0	793	1021	323	0	0	
2	0	0	0	0	97	965	1021	323	0	0	
3	0	0	0	0	264	1021	1021	336	0	0	
4	0	0	0	0	478	1021	1021	360	0	0	
5	0	0	0	0	713	1021	1021	394	0	0	
6	0	0	0	0	941	1021	1021	434	0	0	
7	0	0	0	0	1021	949	1021	477	0	0	
8	0	0	0	0	1021	824	1021	517	0	0	
9	0	0	0	0	1021	659	1021	551	0	0	
10	0	0	0	0	1021	469	1021	574	0	0	
11	0	0	0	0	1008	271	1021	585	0	0	
12	0	0	0	0	901	84	1021	583	0	0	
13	0	0	0	0	745	0	1021	567	0	0	
14	0	0	0	0	553	0	1021	539	0	0	
15	0	0	0	0	336	0	1021	503	0	0	
0	0	0	0	0	115	0	1021	462	0	0	
1	0	0	0	0	0	53	1021	421	0	0	
2	0	0	0	0	0	186	1021	383	0	0	
3	0	0	0	0	0	361	1020	352	0	0	
4	0	0	0	0	0	558	1021	331	0	0	
5	0	0	0	0	0	754	1021	322	0	0	
6	0	0	0	0	84	925	1021	325	0	0	
7	0	0	0	0	244	1021	1021	340	0	0	
8	0	0	0	0	452	1021	1021	367	0	0	
9	0	0	0	0	682	1021	1021	402	0	0	
10	0	0	0	0	906	1019	1021	443	0	0	
11	0	0	0	0	1021	939	1021	486	0	0	
12	0	0	0	0	1021	808	1021	525	0	0	
13	0	0	0	0	1021	640	1021	558	0	0	
14	0	0	0	0	1021	449	1021	581	0	0	
15	0	0	0	0	1002	251	1021	593	0	0	
0	0	0	0	0	892	67	1021	591	0	0	
1	0	0	0	0	732	0	1021	577	0	0	
2	0	0	0	0	539	0	1021	551	0	0	
3	0	0	0	0	321	0	1021	517	0	0	
4	0	0	0	0	101	0	1021	476	0	0	
5	0	0	0	0	0	59	1021	435	0	0	
6	0	0	0	0	0	193	1021	394	0	0	
7	0	0	0	0	0	368	1021	359	0	0	
8	0	0	0	0	0	563	1021	332	0	0	
9	0	0	0	0	0	756	1021	317	0	0	
10	0	0	0	0	79	923	1021	313	0	0	
11	0	0	0	0	236	1021	1021	323	0	0	
12	0	0	0	0	439	1021	1021	343	0	0	
13	0	0	0	0	665	1021	1021	374	0	0	
14	0	0	0	0	886	1010	1021	410	0	0	
15	0	0	0	0	1021	921	1021	450	0	0	
0	0	0	0	0	1021	782	1021	488	0	0	
1	0	0	0	0	1021	605	1021	520	0	0	
2	0	0	0	0	1021	406	1021	543	0	0	
3	0	0	0	0	990	202	1021	556	0	0	
4	0	0	0	0	869	13	1021	555	0	0	
5	0	0	0	0	700	0	1021	542	0	0	
6	0	0	0	0	499	0	1021	517	0	0	
7	0	0	0	0	276	0	1021	485	0	0	
8	0	0	0	0	54	0	1021	447	0	0	
9	0	0	0	0	0	33	1021	408	0	0	
10	0	0	0	0	0	155	1021	371	0	0	
11	0	0	0	0	0	318	1021	340	0	0	
12	0	0	0	0	0	504	1021	318	0	0	
13	0	0	0	0	0	692	1021	306	0	0	
14	0	0	0	0	79	860	1021	307	0	0	
15	0	0	0	0	236	988	1021	319	0	0	
0	0	0	0	0	441	1021	1021	344	0	0	
1	0	0	0	0	671	1021	1021	376	0	0	
2	0	0	0	0	894	1007	1021	416	0	0	
3	0	0	0	0	1021	918	1021	457	0	0	
4	0	0	0	0	1021	780	1021	497	0	0	
5	0	0	0	0	1021	604	1021	531	0	0	
6	0	0	0	0	1021	407	1021	555	0	0	
7	0	0	0	0	1000	203	1021	567	0	0	
8	0	0	0	0	888	15	1021	565	0	0	
9	0	0	0	0	726	0	1021	550	0	0	
10	0	0	0	0	529	0	1020	523	0	0	
11	0	0	0	0	310	0	1021	487	0	0	
12	0	0	0	0	89	0	1021	445	0	0	
13	0	0	0	0	0	35	1021	401	0	0	
14	0	0	0	0	0	158	1021	361	0	0	
15	0	0	0	0	0	323	1021	326	0	0	
0	0	0	0	0	0	513	1021	301	0	0	
1	0	0	0	0	0	704	1021	288	0	0	
2	0	0	0	0	78	873	1021	289	0	0	
3	0	0	0	0	233	1004	1021	301	0	0	
4	0	0	0	0	435	1021	1021	327	0	0	
5	0	0	0	0	660	1021	1021	361	0	0	
6	0	0	0	0	880	1011	1021	402	0	0	
7	0	0	0	0	1020	925	1021	445	0	0	
8	0	0	0	0	1021	789	1021	487	0	0	
9	0	0	0	0	1021	614	1021	523	0	0	
10	0	0	0	0	1021	416	1021	549	0	0	
11	0	0	0	0	989	212	1021	563	0	0	
12	0	0	0	0	867	23	1021	563	0	0	
13	0	0	0	0	699	0	1021	550	0	0	
14	0	0	0	0	497	0	1020	524	0	0	
15	0	0	0	0	275	0	1021	489	0	0	
0	0	0	0	0	53	0	1021	448	0	0	
1	0	0	0	0	0	34	1021	405	0	0	
2	0	0	0	0	0	156	1021	364	0	0	
3	0	0	0	0	0	320	1020	329	0	0	
4	0	0	0	0	0	509	1021	302	0	0	
5	0	0	0	0	0	699	1021	287	0	0	
6	0	0	0	0	76	868	1021	285	0	0	
7	0	0	0	0	231	998	1021	295	0	0	
8	0	0	0	0	433	1021	1021	318	0	0	
9	0	0	0	0	658	1021	1021	350	0	0	
10	0	0	0	0	878	1008	1021	388	0	0	
11	0	0	0	0	1021	919	1021	431	0	0	
12	0	0	0	0	1021	780	1021	471	0	0	
13	0	0	0	0	1021	603	1020	506	0	0	
14	0	0	0	0	1021	403	1021	532	0	0	
15	0	0	0	0	992	199	1021	547	0	0	
0	0	0	0	0	873	9	1021	550	0	0	
1	0	0	0	0	707	0	1021	540	0	0	
2	0	0	0	0	508	0	1021	517	0	0	
3	0	0	0	0	286	0	1021	485	0	0	
4	0	0	0	0	64	0	1021	446	0	0	
5	0	0	0	0	0	35	1021	405	0	0	
6	0	0	0	0	0	157	1021	365	0	0	
7	0	0	0	0	0	322	1021	329	0	0	
8	0	0	0	0	0	511	1021	302	0	0	
9	0	0	0	0	0	702	1021	286	0	0	
10	0	0	0	0	71	871	1021	282	0	0	
11	0	0	0	0	224	1003	1021	292	0	0	
12	0	0	0	0	424	1021	1021	314	0	0	
13	0	0	0	0	648	1021	1021	347	0	0	
14	0	0	0	0	868	1014	1021	387	0	0	
15	0	0	0	0	1021	930	1021	432	0	0	
0	0	0	0	0	1021	796	1021	475	0	0	
1	0	0	0	0	1021	624	1021	513	0	0	
2	0	0	0	0	1021	428	1021	543	0	0	
3	0	0	0	0	993	226	1021	559	0	0	
4	0	0	0	0	875	36	1020	561	0	0	
5	0	0	0	0	708	0	1021	551	0	0	
6	0	0	0	0	507	0	1020	526	0	0	
7	0	0	0	0	284	0	1021	491	0	0	
8	0	0	0	0	60	0	1021	449	0	0	
9	0	0	0	0	0	34	1021	404	0	0	
10	0	0	0	0	0	155	1021	360	0	0	
11	0	0	0	0	0	318	1020	322	0	0	
12	0	0	0	0	0	505	1021	292	0	0	
13	0	0	0	0	0	694	1021	274	0	0	
14	0	0	0	0	76	860	1021	268	0	0	
15	0	0	0	0	232	988	1021	276	0	0	
0	0	0	0	0	435	1021	1021	297	0	0	
1	0	0	0	0	662	1021	1021	328	0	0	
2	0	0	0	0	884	1005	1021	368	0	0	
3	0	0	0	0	1021	915	1021	412	0	0	
4	0	0	0	0	1021	774	1021	455	0	0	
5	0	0	0	0	1021	596	1021	492	0	0	
6	0	0	0	0	1021	396	1021	521	0	0	
7	0	0	0	0	992	191	1021	538	0	0	
8	0	0	0	0	872	2	1021	542	0	0	
9	0	0	0	0	704	0	1021	532	0	0	
10	0	0	0	0	504	0	1021	510	0	0	
11	0	0	0	0	282	0	1021	478	0	0	
12	0	0	0	0	61	0	1021	439	0	0	
13	0	0	0	0	0	24	1021	398	0	0	
14	0	0	0	0	0	137	1021	359	0	0	
15	0	0	0	0	0	295	1021	324	0	0	
0	0	0	0	0	0	477	1021	298	0	0	
1	0	0	0	0	0	663	1021	284	0	0	
2	0	0	0	0	91	829	1021	281	0	0	
3	0	0	0	0	255	958	1021	292	0	0	
4	0	0	0	0	465	1021	1021	315	0	0	
5	0	0	0	0	699	1021	1021	347	0	0	
6	0	0	0	0	924	1002	1021	386	0	0	
7	0	0	0	0	1021	912	1021	428	0	0	
8	0	0	0	0	1021	771	1021	468	0	0	
9	0	0	0	0	1021	592	1021	502	0	0	
10	0	0	0	0	1021	391	1021	528	0	0	
11	0	0	0	0	1001	185	1021	543	0	0	
12	0	0	0	0	888	0	1021	545	0	0	
13	0	0	0	0	728	0	1021	535	0	0	
14	0	0	0	0	533	0	1021	513	0	0	
15	0	0	0	0	315	0	1021	482	0	0	
0	0	0	0	0	96	0	1021	445	0	0	
1	0	0	0	0	0	32	1021	406	0	0	
2	0	0	0	0	0	153	1021	367	0	0	
3	0	0	0	0	0	318	1020	332	0	0	
4	0	0	0	0	0	508	1021	305	0	0	
5	0	0	0	0	0	700	1021	289	0	0	
6	0	0	0	0	78	871	1021	285	0	0	
7	0	0	0	0	233	1004	1021	294	0	0	
8	0	0	0	0	436	1021	1021	314	0	0	
9	0	0	0	0	662	1021	1021	344	0	0	
10	0	0	0	0	884	1016	1021	382	0	0	
11	0	0	0	0	1021	932	1021	423	0	0	
12	0	0	0	0	1021	798	1021	464	0	0	
13	0	0	0	0	1021	625	1021	499	0	0	
14	0	0	0	0	1021	428	1021	525	0	0	
15	0	0	0	0	993	223	1021	539	0	0	
0	0	0	0	0	875	31	1021	541	0	0	
1	0	0	0	0	709	0	1021	530	0	0	
2	0	0	0	0	511	0	1021	507	0	0	
3	0	0	0	0	292	0	1021	475	0	0	
4	0	0	0	0	76	0	1021	437	0	0	
5	0	0	0	0	0	23	1021	397	0	0	
6	0	0	0	0	0	134	1021	359	0	0	
7	0	0	0	0	0	289	1020	325	0	0	
8	0	0	0	0	0	469	1021	300	0	0	
9	0	0	0	0	2	652	1021	287	0	0	
10	0	0	0	0	112	816	1021	285	0	0	
11	0	0	0	0	287	944	1021	296	0	0	
12	0	0	0	0	507	1021	1021	320	0	0	
13	0	0	0	0	748	1021	1021	353	0	0	
14	0	0	0	0	978	999	1021	393	0	0	
15	0	0	0	0	1021	909	1021	435	0	0	
0	0	0	0	0	1021	768	1021	476	0	0	
1	0	0	0	0	1021	590	1021	511	0	0	
2	0	0	0	0	1021	389	1021	536	0	0	
3	0	0	0	0	1013	182	1021	548	0	0	
4	0	0	0	0	909	0	1021	547	0	0	
5	0	0	0	0	755	0	1020	533	0	0	
6	0	0	0	0	563	0	1021	507	0	0	
7	0	0	0	0	347	0	1021	471	0	0	
8	0	0	0	0	125	0	1021	431	0	0	
9	0	0	0	0	0	20	1021	389	0	0	
10	0	0	0	0	0	134	1021	349	0	0	
11	0	0	0	0	0	292	1020	316	0	0	
12	0	0	0	0	0	478	1021	292	0	0	
13	0	0	0	0	0	668	1021	280	0	0	
14	0	0	0	0	78	840	1021	281	0	0	
15	0	0	0	0	234	975	1021	295	0	0	
0	0	0	0	0	438	1021	1021	319	0	0	
1	0	0	0	0	666	1021	1021	353	0	0	
2	0	0	0	0	888	1013	1021	393	0	0	
3	0	0	0	0	1021	929	1021	435	0	0	
4	0	0	0	0	1021	794	1021	475	0	0	
5	0	0	0	0	1021	619	1021	509	0	0	
6	0	0	0	0	1021	419	1021	533	0	0	
7	0	0	0	0	997	212	1021	545	0	0	
8	0	0	0	0	881	18	1021	544	0	0	
9	0	0	0	0	716	0	1021	530	0	0	
10	0	0	0	0	518	0	1020	504	0	0	
11	0	0	0	0	296	0	1021	471	0	0	
12	0	0	0	0	74	0	1021	432	0	0	
13	0	0	0	0	0	25	1021	391	0	0	
14	0	0	0	0	0	142	1021	352	0	0	
15	0	0	0	0	0	304	1021	319	0	0	
0	0	0	0	0	0	492	1021	295	0	0	
1	0	0	0	0	0	684	1021	281	0	0	
2	0	0	0	0	73	856	1021	280	0	0	
3	0	0	0	0	227	991	1021	291	0	0	
4	0	0	0	0	429	1021	1021	313	0	0	
5	0	0	0	0	653	1021	1021	344	0	0	
6	0	0	0	0	873	1014	1021	382	0	0	
7	0	0	0	0	1021	931	1021	423	0	0	
8	0	0	0	0	1021	795	1021	461	0	0	
9	0	0	0	0	1021	620	1021	494	0	0	
10	0	0	0	0	1021	421	1021	518	0	0	
11	0	0	0	0	988	215	1021	531	0	0	
12	0	0	0	0	867	23	1021	532	0	0	
13	0	0	0	0	699	0	1021	521	0	0	
14	0	0	0	0	500	0	1020	499	0	0	
15	0	0	0	0	282	0	1021	469	0	0	
0	0	0	0	0	66	0	1021	433	0	0	
1	0	0	0	0	0	26	1021	396	0	0	
2	0	0	0	0	0	143	1021	361	0	0	
3	0	0	0	0	0	304	1021	330	0	0	
4	0	0	0	0	0	490	1021	308	0	0	
5	0	0	0	0	0	679	1021	296	0	0	
6	0	0	0	0	103	850	1021	297	0	0	
7	0	0	0	0	272	983	1021	310	0	0	
8	0	0	0	0	488	1021	1021	334	0	0	
9	0	0	0	0	725	1021	1021	368	0	0	
10	0	0	0	0	954	1016	1021	409	0	0	
11	0	0	0	0	1021	935	1021	452	0	0	
12	0	0	0	0	1021	804	1021	495	0	0	
13	0	0	0	0	1021	634	1021	531	0	0	
14	0	0	0	0	1021	440	1021	558	0	0	
15	0	0	0	0	1013	238	1021	572	0	0	
0	0	0	0	0	910	47	1021	571	0	0	
1	0	0	0	0	756	0	1021	558	0	0	
2	0	0	0	0	568	0	1021	531	0	0	
3	0	0	0	0	356	0	1021	495	0	0	
4	0	0	0	0	139	0	1021	452	0	0	
5	0	0	0	0	0	31	1021	408	0	0	
6	0	0	0	0	0	151	1021	365	0	0	
7	0	0	0	0	0	315	1021	327	0	0	
8	0	0	0	0	0	502	1021	297	0	0	
9	0	0	0	0	0	691	1021	279	0	0	
10	0	0	0	0	87	860	1021	273	0	0	
11	0	0	0	0	247	990	1021	281	0	0	
12	0	0	0	0	453	1021	1021	300	0	0	
13	0	0	0	0	682	1021	1021	332	0	0	
14	0	0	0	0	904	1010	1021	370	0	0	
15	0	0	0	0	1021	923	1021	412	0	0	
0	0	0	0	0	1021	786	1021	454	0	0	
1	0	0	0	0	1021	611	1021	492	0	0	
2	0	0	0	0	1021	414	1021	520	0	0	
3	0	0	0	0	1000	210	1021	538	0	0	
4	0	0	0	0	887	20	1021	542	0	0	
5	0	0	0	0	726	0	1021	533	0	0	
6	0	0	0	0	532	0	1021	511	0	0	
7	0	0	0	0	318	0	1021	480	0	0	
8	0	0	0	0	103	0	1021	442	0	0	
9	0	0	0	0	0	24	1021	402	0	0	
10	0	0	0	0	0	139	1021	364	0	0	
11	0	0	0	0	0	298	1021	331	0	0	
12	0	0	0	0	0	482	1021	306	0	0	
13	0	0	0	0	0	669	1021	292	0	0	
14	0	0	0	0	102	837	1021	291	0	0	
15	0	0	0	0	269	967	1021	301	0	0	
0	0	0	0	0	480	1021	1021	322	0	0	
1	0	0	0	0	713	1021	1021	353	0	0	
2	0	0	0	0	937	1006	1021	391	0	0	
3	0	0	0	0	1021	918	1021	432	0	0	
4	0	0	0	0	1021	779	1021	472	0	0	
5	0	0	0	0	1021	602	1021	505	0	0	
6	0	0	0	0	1021	402	1021	531	0	0	
7	0	0	0	0	1002	197	1021	545	0	0	
8	0	0	0	0	890	6	1021	545	0	0	
9	0	0	0	0	729	0	1021	532	0	0	
10	0	0	0	0	535	0	1020	508	0	0	
11	0	0	0	0	317	0	1021	473	0	0	
12	0	0	0	0	98	0	1021	432	0	0	
13	0	0	0	0	0	22	1021	390	0	0	
14	0	0	0	0	0	134	1021	348	0	0	
15	0	0	0	0	0	292	1021	313	0	0	
0	0	0	0	0	0	477	1021	286	0	0	
1	0	0	0	0	0	666	1021	271	0	0	
2	0	0	0	0	91	836	1021	268	0	0	
3	0	0	0	0	254	969	1021	280	0	0	
4	0	0	0	0	463	1021	1021	303	0	0	
5	0	0	0	0	695	1021	1021	336	0	0	
6	0	0	0	0	919	1011	1021	376	0	0	
7	0	0	0	0	1021	927	1020	420	0	0	
8	0	0	0	0	1021	790	1021	462	0	0	
9	0	0	0	0	1021	614	1021	497	0	0	
10	0	0	0	0	1021	414	1021	524	0	0	
11	0	0	0	0	994	206	1021	538	0	0	
12	0	0	0	0	873	11	1021	537	0	0	
13	0	0	0	0	705	0	1021	524	0	0	
14	0	0	0	0	502	0	1021	498	0	0	
15	0	0	0	0	279	0	1021	463	0	0	
0	0	0	0	0	56	0	1021	422	0	0	
1	0	0	0	0	0	15	1021	379	0	0	
2	0	0	0	0	0	123	1021	337	0	0	
3	0	0	0	0	0	277	1021	302	0	0	
4	0	0	0	0	0	457	1021	275	0	0	
5	0	0	0	0	0	643	1021	259	0	0	
6	0	0	0	0	82	812	1021	256	0	0	
7	0	0	0	0	241	944	1021	266	0	0	
8	0	0	0	0	447	1021	1021	289	0	0	
9	0	0	0	0	676	1021	1021	321	0	0	
10	0	0	0	0	898	1003	1021	360	0	0	
11	0	0	0	0	1021	913	1021	402	0	0	
12	0	0	0	0	1021	771	1021	443	0	0	
13	0	0	0	0	1021	591	1020	477	0	0	
14	0	0	0	0	1021	386	1021	504	0	0	
15	0	0	0	0	992	177	1021	518	0	0	
0	0	0	0	0	872	0	1021	519	0	0	
1	0	0	0	0	704	0	1021	508	0	0	
2	0	0	0	0	503	0	1021	486	0	0	
3	0	0	0	0	283	0	1021	454	0	0	
4	0	0	0	0	63	0	1021	416	0	0	
5	0	0	0	0	0	13	1021	376	0	0	
6	0	0	0	0	0	120	1021	339	0	0	
7	0	0	0	0	0	274	1020	307	0	0	
8	0	0	0	0	0	455	1021	283	0	0	
9	0	0	0	0	0	643	1021	271	0	0	
10	0	0	0	0	93	814	1021	271	0	0	
11	0	0	0	0	257	948	1021	283	0	0	
12	0	0	0	0	466	1021	1021	306	0	0	
13	0	0	0	0	698	1021	1021	338	0	0	
14	0	0	0	0	921	1009	1021	376	0	0	
15	0	0	0	0	1021	923	1021	417	0	0	
0	0	0	0	0	1021	787	1021	456	0	0	
1	0	0	0	0	1021	610	1021	489	0	0	
2	0	0	0	0	1021	409	1021	514	0	0	
3	0	0	0	0	998	203	1021	527	0	0	
4	0	0	0	0	881	9	1021	528	0	0	
5	0	0	0	0	718	0	1021	517	0	0	
6	0	0	0	0	520	0	1020	494	0	0	
7	0	0	0	0	303	0	1021	462	0	0	
8	0	0	0	0	85	0	1021	424	0	0	
9	0	0	0	0	0	16	1021	385	0	0	
10	0	0	0	0	0	125	1021	348	0	0	
11	0	0	0	0	0	281	1021	316	0	0	
12	0	0	0	0	0	463	1021	292	0	0	
13	0	0	0	0	0	651	1021	280	0	0	
14	0	0	0	0	99	822	1021	280	0	0	
15	0	0	0	0	264	956	1021	291	0	0	
0	0	0	0	0	476	1021	1021	313	0	0	
1	0	0	0	0	709	1021	1021	345	0	0	
2	0	0	0	0	933	1011	1021	384	0	0	
3	0	0	0	0	1021	927	1021	425	0	0	
4	0	0	0	0	1021	792	1021	465	0	0	
5	0	0	0	0	1021	619	1021	499	0	0	
6	0	0	0	0	1021	421	1021	525	0	0	
7	0	0	0	0	999	216	1021	538	0	0	
8	0	0	0	0	884	24	1021	539	0	0	
9	0	0	0	0	721	0	1021	526	0	0	
10	0	0	0	0	523	0	1021	501	0	0	
11	0	0	0	0	303	0	1021	467	0	0	
12	0	0	0	0	82	0	1021	427	0	0	
13	0	0	0	0	0	21	1021	385	0	0	
14	0	0	0	0	0	135	1021	344	0	0	
15	0	0	0	0	0	295	1021	309	0	0	
0	0	0	0	0	0	481	1021	283	0	0	
1	0	0	0	0	0	671	1021	268	0	0	
2	0	0	0	0	82	845	1021	266	0	0	
3	0	0	0	0	240	980	1021	277	0	0	
4	0	0	0	0	446	1021	1021	299	0	0	
5	0	0	0	0	673	1021	1021	333	0	0	
6	0	0	0	0	896	1017	1021	374	0	0	
7	0	0	0	0	1021	937	1021	417	0	0	
8	0	0	0	0	1021	806	1021	460	0	0	
9	0	0	0	0	1021	634	1021	498	0	0	
10	0	0	0	0	1021	439	1021	528	0	0	
11	0	0	0	0	996	236	1021	546	0	0	
12	0	0	0	0	881	45	1021	550	0	0	
13	0	0	0	0	718	0	1021	541	0	0	
14	0	0	0	0	523	0	1021	519	0	0	
15	0	0	0	0	307	0	1021	488	0	0	
0	0	0	0	0	92	0	1021	449	0	0	
1	0	0	0	0	0	25	1021	408	0	0	
2	0	0	0	0	0	141	1021	368	0	0	
3	0	0	0	0	0	302	1021	332	0	0	
4	0	0	0	0	0	488	1021	305	0	0	
5	0	0	0	0	0	678	1021	288	0	0	
6	0	0	0	0	105	849	1021	284	0	0	
7	0	0	0	0	274	983	1021	291	0	0	
8	0	0	0	0	487	1021	1021	310	0	0	
9	0	0	0	0	722	1021	1021	338	0	0	
10	0	0	0	0	946	1011	1021	374	0	0	
11	0	0	0	0	1021	925	1021	412	0	0	
12	0	0	0	0	1021	786	1021	449	0	0	
13	0	0	0	0	1021	608	1021	482	0	0	
14	0	0	0	0	1021	406	1021	506	0	0	
15	0	0	0	0	993	195	1021	518	0	0	
0	0	0	0	0	871	0	1021	517	0	0	
1	0	0	0	0	699	0	1021	502	0	0	
2	0	0	0	0	493	0	1021	473	0	0	
3	0	0	0	0	266	0	1021	434	0	0	
4	0	0	0	0	39	0	1021	387	0	0	
5	0	0	0	0	0	0	1021	335	0	0	
6	0	0	0	0	0	92	1021	283	0	0	
7	0	0	0	0	0	231	1021	233	0	0	
8	0	0	0	0	0	395	1021	190	0	0	
9	0	0	0	0	0	564	1021	156	0	0	
10	0	0	0	0	50	718	1021	133	0	0	
11	0	0	0	0	184	835	1021	121	0	0	
12	0	0	0	0	359	903	1021	121	0	0	
13	0	0	0	0	557	913	1021	132	0	0	
14	0	0	0	0	748	862	1021	151	0	0	
15	0	0	0	0	903	750	1021	175	0	0	
0	0	0	0	0	1001	587	1021	199	0	0	
1	0	0	0	0	1021	386	1021	219	0	0	
2	0	0	0	0	976	163	1021	234	0	0	
3	0	0	0	0	847	0	1021	239	0	0	
4	0	0	0	0	652	0	1021	233	0	0	
5	0	0	0	0	412	0	1021	216	0	0	
6	0	0	0	0	148	0	1021	188	0	0	
7	0	0	0	0	0	0	1021	153	0	0	
8	0	0	0	0	0	0	1021	113	0	0	
9	0	0	0	0	0	0	1021	72	0	0	
10	0	0	0	0	0	0	1021	34	0	0	
11	0	0	0	0	0	15	1021	3	0	0	
12	0	0	0	0	0	99	1021	0	0	0	
13	0	0	0	0	0	208	1021	0	0	0	
14	0	0	0	0	38	326	1021	0	0	0	
15	0	0	0	0	180	438	1021	16	0	0	
0	0	0	0	0	377	528	1021	50	0	0	
1	0	0	0	0	604	584	1021	96	0	0	
2	0	0	0	0	834	598	1021	154	0	0	
3	0	0	0	0	1020	568	1021	217	0	0	
4	0	0	0	0	1021	498	1021	284	0	0	
5	0	0	0	0	1021	396	1021	348	0	0	
6	0	0	0	0	1021	274	1021	405	0	0	
7	0	0	0	0	1021	144	1021	451	0	0	
8	0	0	0	0	929	17	1021	482	0	0	
9	0	0	0	0	787	0	1021	496	0	0	
10	0	0	0	0	608	0	1020	494	0	0	
11	0	0	0	0	404	0	1021	477	0	0	
12	0	0	0	0	191	0	1021	448	0	0	
13	0	0	0	0	0	93	1021	413	0	0	
14	0	0	0	0	0	241	1021	376	0	0	
15	0	0	0	0	0	427	1021	341	0	0	
0	0	0	0	0	0	631	1021	313	0	0	
1	0	0	0	0	0	830	1021	295	0	0	
2	0	0	0	0	84	1003	1021	290	0	0	
3	0	0	0	0	243	1021	1021	298	0	0	
4	0	0	0	0	450	1021	1021	319	0	0	
5	0	0	0	0	682	1021	1021	352	0	0	
6	0	0	0	0	909	1021	1021	394	0	0	
7	0	0	0	0	1021	977	1020	439	0	0	
8	0	0	0	0	1021	867	1021	485	0	0	
9	0	0	0	0	1021	716	1021	525	0	0	
10	0	0	0	0	1021	537	1021	556	0	0	
11	0	0	0	0	1014	345	1021	575	0	0	
12	0	0	0	0	912	159	1021	580	0	0	
13	0	0	0	0	761	0	1021	570	0	0	
14	0	0	0	0	575	0	1021	546	0	0	
15	0	0	0	0	362	0	1021	511	0	0	
0	0	0	0	0	143	0	1021	468	0	0	
1	0	0	0	0	0	58	1021	422	0	0	
2	0	0	0	0	0	199	1021	377	0	0	
3	0	0	0	0	0	384	1021	336	0	0	
4	0	0	0	0	0	593	1021	305	0	0	
5	0	0	0	0	0	802	1021	285	0	0	
6	0	0	0	0	64	988	1021	279	0	0	
7	0	0	0	0	211	1021	1021	286	0	0	
8	0	0	0	0	407	1021	1021	305	0	0	
9	0	0	0	0	627	1021	1021	337	0	0	
10	0	0	0	0	845	1021	1021	377	0	0	
11	0	0	0	0	1020	989	1021	421	0	0	
12	0	0	0	0	1021	883	1021	465	0	0	
13	0	0	0	0	1021	735	1021	505	0	0	
14	0	0	0	0	1021	557	1021	536	0	0	
15	0	0	0	0	990	365	1021	557	0	0	
0	0	0	0	0	871	177	1021	564	0	0	
1	0	0	0	0	705	12	1021	558	0	0	
2	0	0	0	0	507	0	1021	539	0	0	
3	0	0	0	0	289	0	1021	509	0	0	
4	0	0	0	0	71	0	1021	473	0	0	
5	0	0	0	0	0	56	1021	433	0	0	
6	0	0	0	0	0	193	1021	393	0	0	
7	0	0	0	0	0	375	1021	358	0	0	
8	0	0	0	0	0	579	1021	329	0	0	
9	0	0	0	0	0	784	1021	311	0	0	
10	0	0	0	0	74	965	1021	304	0	0	
11	0	0	0	0	225	1021	1021	310	0	0	
12	0	0	0	0	423	1021	1021	327	0	0	
13	0	0	0	0	645	1021	1021	356	0	0	
14	0	0	0	0	862	1021	1021	391	0	0	
15	0	0	0	0	1021	974	1021	432	0	0	
0	0	0	0	0	1021	860	1021	471	0	0	
1	0	0	0	0	1021	703	1021	505	0	0	
2	0	0	0	0	1021	519	1021	532	0	0	
3	0	0	0	0	983	321	1021	549	0	0	
4	0	0	0	0	858	132	1021	553	0	0	
5	0	0	0	0	686	0	1021	545	0	0	
6	0	0	0	0	482	0	1020	524	0	0	
7	0	0	0	0	260	0	1021	495	0	0	
8	0	0	0	0	40	0	1021	460	0	0	
9	0	0	0	0	0	45	1021	422	0	0	
10	0	0	0	0	0	176	1021	384	0	0	
11	0	0	0	0	0	353	1021	350	0	0	
12	0	0	0	0	0	554	1021	324	0	0	
13	0	0	0	0	0	757	1021	308	0	0	
14	0	0	0	0	70	937	1021	304	0	0	
15	0	0	0	0	219	1020	1021	312	0	0	
0	0	0	0	0	415	1021	1021	332	0	0	
1	0	0	0	0	634	1021	1021	360	0	0	
2	0	0	0	0	849	1021	1021	396	0	0	
3	0	0	0	0	1021	968	1021	435	0	0	
4	0	0	0	0	1021	851	1021	473	0	0	
5	0	0	0	0	1021	692	1021	507	0	0	
6	0	0	0	0	1021	504	1021	532	0	0	
7	0	0	0	0	975	305	1021	546	0	0	
8	0	0	0	0	844	114	1021	548	0	0	
9	0	0	0	0	666	0	1021	539	0	0	
10	0	0	0	0	457	0	1020	516	0	0	
11	0	0	0	0	231	0	1021	485	0	0	
12	0	0	0	0	12	0	1021	448	0	0	
13	0	0	0	0	0	30	1021	408	0	0	
14	0	0	0	0	0	149	1021	368	0	0	
15	0	0	0	0	0	313	1021	333	0	0	
0	0	0	0	0	0	503	1021	305	0	0	
1	0	0	0	0	0	695	1021	287	0	0	
2	0	0	0	0	85	867	1021	282	0	0	
3	0	0	0	0	244	1002	1021	288	0	0	
4	0	0	0	0	449	1021	1021	307	0	0	
5	0	0	0	0	676	1021	1021	335	0	0	
6	0	0	0	0	897	1019	1021	370	0	0	
7	0	0	0	0	1021	939	1021	410	0	0	
8	0	0	0	0	1021	808	1021	448	0	0	
9	0	0	0	0	1021	637	1021	483	0	0	
10	0	0	0	0	1021	441	1021	509	0	0	
11	0	0	0	0	991	236	1021	524	0	0	
12	0	0	0	0	868	43	1021	526	0	0	
13	0	0	0	0	698	0	1021	516	0	0	
14	0	0	0	0	495	0	1020	493	0	0	
15	0	0	0	0	272	0	1021	462	0	0	
0	0	0	0	0	52	0	1021	424	0	0	
1	0	0	0	0	0	19	1021	383	0	0	
2	0	0	0	0	0	132	1021	345	0	0	
3	0	0	0	0	0	293	1021	311	0	0	
4	0	0	0	0	0	481	1021	285	0	0	
5	0	0	0	0	0	674	1021	270	0	0	
6	0	0	0	0	84	849	1020	267	0	0	
7	0	0	0	0	243	988	1021	278	0	0	
8	0	0	0	0	449	1021	1021	300	0	0	
9	0	0	0	0	677	1021	1021	332	0	0	
10	0	0	0	0	899	1021	1021	371	0	0	
11	0	0	0	0	1021	947	1021	413	0	0	
12	0	0	0	0	1021	818	1021	454	0	0	
13	0	0	0	0	1021	648	1021	489	0	0	
14	0	0	0	0	1021	452	1021	515	0	0	
15	0	0	0	0	989	246	1021	529	0	0	
0	0	0	0	0	864	49	1021	530	0	0	
1	0	0	0	0	691	0	1021	518	0	0	
2	0	0	0	0	486	0	1020	493	0	0	
3	0	0	0	0	262	0	1021	459	0	0	
4	0	0	0	0	41	0	1021	419	0	0	
5	0	0	0	0	0	11	1021	376	0	0	
6	0	0	0	0	0	116	1021	335	0	0	
7	0	0	0	0	0	268	1021	299	0	0	
8	0	0	0	0	0	448	1021	271	0	0	
9	0	0	0	0	0	634	1021	254	0	0	
10	0	0	0	0	89	804	1021	249	0	0	
11	0	0	0	0	250	936	1021	256	0	0	
12	0	0	0	0	455	1021	1021	275	0	0	
13	0	0	0	0	681	1021	1021	304	0	0	
14	0	0	0	0	900	1004	1021	340	0	0	
15	0	0	0	0	1021	917	1021	380	0	0	
0	0	0	0	0	1021	777	1021	421	0	0	
1	0	0	0	0	1021	599	1021	457	0	0	
2	0	0	0	0	1021	396	1021	486	0	0	
3	0	0	0	0	983	188	1021	505	0	0	
4	0	0	0	0	856	0	1021	512	0	0	
5	0	0	0	0	683	0	1021	507	0	0	
6	0	0	0	0	478	0	1021	488	0	0	
7	0	0	0	0	255	0	1021	461	0	0	
8	0	0	0	0	37	0	1021	426	0	0	
9	0	0	0	0	0	7	1021	388	0	0	
10	0	0	0	0	0	111	1021	351	0	0	
11	0	0	0	0	0	263	1021	317	0	0	
12	0	0	0	0	0	443	1021	290	0	0	
13	0	0	0	0	0	630	1021	273	0	0	
14	0	0	0	0	87	802	1021	267	0	0	
15	0	0	0	0	244	938	1021	271	0	0	
0	0	0	0	0	447	1020	1021	287	0	0	
1	0	0	0	0	670	1021	1021	313	0	0	
2	0	0	0	0	885	1009	1021	347	0	0	
3	0	0	0	0	1021	924	1021	384	0	0	
4	0	0	0	0	1021	785	1021	420	0	0	
5	0	0	0	0	1021	607	1021	452	0	0	
6	0	0	0	0	1021	403	1021	477	0	0	
7	0	0	0	0	967	191	1021	491	0	0	
8	0	0	0	0	829	0	1021	492	0	0	
9	0	0	0	0	643	0	1021	479	0	0	
10	0	0	0	0	427	0	1021	455	0	0	
11	0	0	0	0	196	0	1021	421	0	0	
12	0	0	0	0	0	0	1021	380	0	0	
13	0	0	0	0	0	0	1021	337	0	0	
14	0	0	0	0	0	83	1021	295	0	0	
15	0	0	0	0	0	222	1021	259	0	0	
0	0	0	0	0	0	391	1021	231	0	0	
1	0	0	0	0	0	572	1021	215	0	0	
2	0	0	0	0	85	740	1021	211	0	0	
3	0	0	0	0	245	878	1021	222	0	0	
4	0	0	0	0	451	970	1021	244	0	0	
5	0	0	0	0	680	1009	1021	278	0	0	
6	0	0	0	0	901	988	1021	319	0	0	
7	0	0	0	0	1021	908	1021	363	0	0	
8	0	0	0	0	1021	775	1021	405	0	0	
9	0	0	0	0	1021	601	1021	441	0	0	
10	0	0	0	0	1021	400	1021	469	0	0	
11	0	0	0	0	980	191	1021	484	0	0	
12	0	0	0	0	848	0	1021	486	0	0	
13	0	0	0	0	669	0	1021	474	0	0	
14	0	0	0	0	456	0	1020	449	0	0	
15	0	0	0	0	227	0	1021	415	0	0	
0	0	0	0	0	4	0	1021	374	0	0	
1	0	0	0	0	0	0	1021	330	0	0	
2	0	0	0	0	0	90	1021	288	0	0	
3	0	0	0	0	0	234	1020	251	0	0	
4	0	0	0	0	0	407	1021	222	0	0	
5	0	0	0	0	0	589	1021	204	0	0	
6	0	0	0	0	74	760	1021	199	0	0	
7	0	0	0	0	226	897	1021	207	0	0	
8	0	0	0	0	425	988	1021	228	0	0	
9	0	0	0	0	646	1021	1021	259	0	0	
10	0	0	0	0	861	1000	1021	297	0	0	
11	0	0	0	0	1021	917	1021	340	0	0	
12	0	0	0	0	1021	781	1021	382	0	0	
13	0	0	0	0	1021	604	1021	419	0	0	
14	0	0	0	0	1021	402	1021	449	0	0	
15	0	0	0	0	967	191	1021	467	0	0	
0	0	0	0	0	828	0	1021	472	0	0	
1	0	0	0	0	642	0	1021	463	0	0	
2	0	0	0	0	425	0	1021	441	0	0	
3	0	0	0	0	192	0	1021	409	0	0	
4	0	0	0	0	0	0	1021	369	0	0	
5	0	0	0	0	0	0	1020	327	0	0	
6	0	0	0	0	0	92	1021	286	0	0	
7	0	0	0	0	0	238	1021	250	0	0	
8	0	0	0	0	0	414	1021	222	0	0	
9	0	0	0	0	0	600	1021	205	0	0	
10	0	0	0	0	64	772	1021	200	0	0	
11	0	0	0	0	212	912	1021	208	0	0	
12	0	0	0	0	405	1005	1021	228	0	0	
13	0	0	0	0	621	1021	1021	257	0	0	
14	0	0	0	0	833	1007	1021	294	0	0	
15	0	0	0	0	1010	925	1021	335	0	0	
0	0	0	0	0	1021	789	1021	376	0	0	
1	0	0	0	0	1021	612	1021	413	0	0	
2	0	0	0	0	1021	410	1021	442	0	0	
3	0	0	0	0	962	200	1021	460	0	0	
4	0	0	0	0	822	3	1021	467	0	0	
5	0	0	0	0	636	0	1021	460	0	0	
6	0	0	0	0	420	0	1021	440	0	0	
7	0	0	0	0	189	0	1021	411	0	0	
8	0	0	0	0	0	0	1021	375	0	0	
9	0	0	0	0	0	4	1021	336	0	0	
10	0	0	0	0	0	105	1021	298	0	0	
11	0	0	0	0	0	257	1020	264	0	0	
12	0	0	0	0	0	440	1021	238	0	0	
13	0	0	0	0	0	631	1021	223	0	0	
14	0	0	0	0	73	809	1021	220	0	0	
15	0	0	0	0	226	954	1021	232	0	0	
0	0	0	0	0	427	1021	1021	255	0	0	
1	0	0	0	0	652	1021	1021	291	0	0	
2	0	0	0	0	873	1021	1021	333	0	0	
3	0	0	0	0	1021	960	1021	380	0	0	
4	0	0	0	0	1021	840	1021	427	0	0	
5	0	0	0	0	1021	679	1021	469	0	0	
6	0	0	0	0	1021	491	1021	503	0	0	
7	0	0	0	0	993	290	1021	525	0	0	
8	0	0	0	0	873	99	1021	534	0	0	
9	0	0	0	0	705	0	1021	528	0	0	
10	0	0	0	0	504	0	1021	509	0	0	
11	0	0	0	0	284	0	1021	478	0	0	
12	0	0	0	0	64	0	1021	440	0	0	
13	0	0	0	0	0	31	1021	399	0	0	
14	0	0	0	0	0	155	1021	358	0	0	
15	0	0	0	0	0	326	1021	321	0	0	
0	0	0	0	0	0	525	1021	293	0	0	
1	0	0	0	0	0	728	1021	277	0	0	
2	0	0	0	0	79	912	1021	273	0	0	
3	0	0	0	0	235	1021	1021	282	0	0	
4	0	0	0	0	438	1021	1021	304	0	0	
5	0	0	0	0	664	1021	1021	338	0	0	
6	0	0	0	0	885	1021	1021	380	0	0	
7	0	0	0	0	1021	983	1021	425	0	0	
8	0	0	0	0	1021	874	1021	470	0	0	
9	0	0	0	0	1021	722	1021	511	0	0	
10	0	0	0	0	1021	541	1021	541	0	0	
11	0	0	0	0	993	347	1021	560	0	0	
12	0	0	0	0	873	156	1021	565	0	0	
13	0	0	0	0	705	0	1021	556	0	0	
14	0	0	0	0	507	0	1021	535	0	0	
15	0	0	0	0	289	0	1021	504	0	0	
0	0	0	0	0	74	0	1021	467	0	0	
1	0	0	0	0	0	41	1021	428	0	0	
2	0	0	0	0	0	171	1021	389	0	0	
3	0	0	0	0	0	348	1021	356	0	0	
4	0	0	0	0	0	551	1021	332	0	0	
5	0	0	0	0	0	759	1021	318	0	0	
6	0	0	0	0	99	944	1021	317	0	0	
7	0	0	0	0	265	1021	1021	328	0	0	
8	0	0	0	0	476	1021	1021	351	0	0	
9	0	0	0	0	709	1021	1021	385	0	0	
10	0	0	0	0	934	1021	1021	425	0	0	
11	0	0	0	0	1021	991	1021	467	0	0	
12	0	0	0	0	1021	887	1021	508	0	0	
13	0	0	0	0	1021	739	1021	544	0	0	
14	0	0	0	0	1021	562	1021	571	0	0	
15	0	0	0	0	1001	369	1021	585	0	0	
0	0	0	0	0	887	180	1021	587	0	0	
1	0	0	0	0	723	11	1021	575	0	0	
2	0	0	0	0	527	0	1021	552	0	0	
3	0	0	0	0	310	0	1021	519	0	0	
4	0	0	0	0	92	0	1021	479	0	0	
5	0	0	0	0	0	39	1021	437	0	0	
6	0	0	0	0	0	166	1021	396	0	0	
7	0	0	0	0	0	339	1021	359	0	0	
8	0	0	0	0	0	538	1021	330	0	0	
9	0	0	0	0	0	741	1021	312	0	0	
10	0	0	0	0	86	922	1021	306	0	0	
11	0	0	0	0	244	1021	1021	313	0	0	
12	0	0	0	0	448	1021	1021	332	0	0	
13	0	0	0	0	675	1021	1021	362	0	0	
14	0	0	0	0	895	1021	1021	400	0	0	
15	0	0	0	0	1021	976	1021	441	0	0	
0	0	0	0	0	1021	863	1021	482	0	0	
1	0	0	0	0	1021	707	1021	518	0	0	
2	0	0	0	0	1021	522	1021	545	0	0	
3	0	0	0	0	984	323	1021	560	0	0	
4	0	0	0	0	857	131	1021	561	0	0	
5	0	0	0	0	683	0	1021	551	0	0	
6	0	0	0	0	478	0	1021	529	0	0	
7	0	0	0	0	254	0	1021	498	0	0	
8	0	0	0	0	36	0	1021	463	0	0	
9	0	0	0	0	0	32	1021	425	0	0	
10	0	0	0	0	0	157	1021	390	0	0	
11	0	0	0	0	0	329	1021	359	0	0	
12	0	0	0	0	0	529	1021	337	0	0	
13	0	0	0	0	0	733	1021	324	0	0	
14	0	0	0	0	76	917	1021	323	0	0	
15	0	0	0	0	228	1021	1021	333	0	0	
0	0	0	0	0	425	1021	1021	353	0	0	
1	0	0	0	0	645	1021	1021	383	0	0	
2	0	0	0	0	860	1021	1021	419	0	0	
3	0	0	0	0	1021	977	1021	458	0	0	
4	0	0	0	0	1021	864	1021	496	0	0	
5	0	0	0	0	1021	708	1021	529	0	0	
6	0	0	0	0	1021	524	1021	553	0	0	
7	0	0	0	0	976	325	1021	568	0	0	
8	0	0	0	0	844	133	1021	569	0	0	
9	0	0	0	0	667	0	1021	558	0	0	
10	0	0	0	0	458	0	1021	536	0	0	
11	0	0	0	0	234	0	1021	504	0	0	
12	0	0	0	0	15	0	1021	466	0	0	
13	0	0	0	0	0	27	1021	426	0	0	
14	0	0	0	0	0	146	1021	387	0	0	
15	0	0	0	0	0	312	1021	353	0	0	
0	0	0	0	0	0	506	1021	326	0	0	
1	0	0	0	0	0	705	1021	311	0	0	
2	0	0	0	0	79	887	1021	307	0	0	
3	0	0	0	0	233	1021	1021	315	0	0	
4	0	0	0	0	434	1021	1021	336	0	0	
5	0	0	0	0	657	1021	1021	367	0	0	
6	0	0	0	0	875	1021	1021	405	0	0	
7	0	0	0	0	1021	973	1021	447	0	0	
8	0	0	0	0	1021	859	1021	488	0	0	
9	0	0	0	0	1021	702	1021	524	0	0	
10	0	0	0	0	1021	517	1021	551	0	0	
11	0	0	0	0	985	319	1021	568	0	0	
12	0	0	0	0	860	127	1021	571	0	0	
13	0	0	0	0	687	0	1021	561	0	0	
14	0	0	0	0	481	0	1021	539	0	0	
15	0	0	0	0	258	0	1021	507	0	0	
0	0	0	0	0	38	0	1021	469	0	0	
1	0	0	0	0	0	29	1021	428	0	0	
2	0	0	0	0	0	151	1021	389	0	0	
3	0	0	0	0	0	319	1021	353	0	0	
4	0	0	0	0	0	516	1021	325	0	0	
5	0	0	0	0	0	717	1021	308	0	0	
6	0	0	0	0	73	898	1021	302	0	0	
7	0	0	0	0	224	1021	1021	309	0	0	
8	0	0	0	0	420	1021	1021	327	0	0	
9	0	0	0	0	639	1021	1021	355	0	0	
10	0	0	0	0	854	1021	1021	390	0	0	
11	0	0	0	0	1021	965	1021	428	0	0	
12	0	0	0	0	1021	844	1021	466	0	0	
13	0	0	0	0	1021	681	1021	499	0	0	
14	0	0	0	0	1021	490	1021	525	0	0	
15	0	0	0	0	967	286	1021	540	0	0	
0	0	0	0	0	829	91	1021	543	0	0	
1	0	0	0	0	644	0	1021	534	0	0	
2	0	0	0	0	432	0	1021	513	0	0	
3	0	0	0	0	204	0	1021	483	0	0	
4	0	0	0	0	0	0	1021	448	0	0	
5	0	0	0	0	0	11	1021	409	0	0	
6	0	0	0	0	0	116	1021	372	0	0	
7	0	0	0	0	0	270	1021	340	0	0	
8	0	0	0	0	0	453	1021	315	0	0	
9	0	0	0	0	0	643	1021	300	0	0	
10	0	0	0	0	92	819	1021	297	0	0	
11	0	0	0	0	255	960	1021	307	0	0	
12	0	0	0	0	463	1021	1021	329	0	0	
13	0	0	0	0	694	1021	1021	360	0	0	
14	0	0	0	0	915	1021	1021	398	0	0	
15	0	0	0	0	1021	950	1021	439	0	0	
0	0	0	0	0	1021	824	1021	478	0	0	
1	0	0	0	0	1021	656	1021	512	0	0	
2	0	0	0	0	1021	462	1021	537	0	0	
3	0	0	0	0	989	255	1021	550	0	0	
4	0	0	0	0	864	58	1021	550	0	0	
5	0	0	0	0	688	0	1021	536	0	0	
6	0	0	0	0	481	0	1021	511	0	0	
7	0	0	0	0	255	0	1021	477	0	0	
8	0	0	0	0	34	0	1021	438	0	0	
9	0	0	0	0	0	6	1021	396	0	0	
10	0	0	0	0	0	108	1021	356	0	0	
11	0	0	0	0	0	260	1021	321	0	0	
12	0	0	0	0	0	441	1021	295	0	0	
13	0	0	0	0	0	631	1021	281	0	0	
14	0	0	0	0	83	807	1021	279	0	0	
15	0	0	0	0	241	949	1021	289	0	0	
0	0	0	0	0	446	1021	1021	312	0	0	
1	0	0	0	0	673	1021	1021	346	0	0	
2	0	0	0	0	895	1021	1021	388	0	0	
3	0	0	0	0	1021	952	1021	432	0	0	
4	0	0	0	0	1021	828	1021	476	0	0	
5	0	0	0	0	1021	662	1021	514	0	0	
6	0	0	0	0	1021	469	1021	544	0	0	
7	0	0	0	0	988	265	1021	561	0	0	
8	0	0	0	0	864	69	1021	565	0	0	
9	0	0	0	0	691	0	1021	555	0	0	
10	0	0	0	0	486	0	1021	531	0	0	
11	0	0	0	0	262	0	1021	497	0	0	
12	0	0	0	0	39	0	1021	456	0	0	
13	0	0	0	0	0	14	1021	411	0	0	
14	0	0	0	0	0	126	1021	367	0	0	
15	0	0	0	0	0	287	1021	327	0	0	
0	0	0	0	0	0	478	1021	295	0	0	
1	0	0	0	0	0	676	1021	274	0	0	
2	0	0	0	0	65	858	1021	267	0	0	
3	0	0	0	0	211	1005	1021	273	0	0	
4	0	0	0	0	405	1021	1021	293	0	0	
5	0	0	0	0	623	1021	1021	325	0	0	
6	0	0	0	0	838	1021	1021	366	0	0	
7	0	0	0	0	1018	971	1021	412	0	0	
8	0	0	0	0	1021	856	1021	459	0	0	
9	0	0	0	0	1021	697	1021	501	0	0	
10	0	0	0	0	1021	510	1021	535	0	0	
11	0	0	0	0	975	308	1021	557	0	0	
12	0	0	0	0	842	113	1021	565	0	0	
13	0	0	0	0	661	0	1021	558	0	0	
14	0	0	0	0	448	0	1021	537	0	0	
15	0	0	0	0	219	0	1021	504	0	0	
0	0	0	0	0	0	0	1021	463	0	0	
1	0	0	0	0	0	15	1021	419	0	0	
2	0	0	0	0	0	126	1021	374	0	0	
3	0	0	0	0	0	286	1021	333	0	0	
4	0	0	0	0	0	475	1021	301	0	0	
5	0	0	0	0	0	671	1021	280	0	0	
6	0	0	0	0	65	852	1021	272	0	0	
7	0	0	0	0	212	997	1021	278	0	0	
8	0	0	0	0	407	1021	1021	297	0	0	
9	0	0	0	0	626	1021	1021	327	0	0	
10	0	0	0	0	841	1021	1021	367	0	0	
11	0	0	0	0	1020	966	1021	411	0	0	
12	0	0	0	0	1021	847	1021	455	0	0	
13	0	0	0	0	1021	686	1021	494	0	0	
14	0	0	0	0	1021	495	1021	525	0	0	
15	0	0	0	0	972	291	1021	545	0	0	
0	0	0	0	0	838	94	1021	550	0	0	
1	0	0	0	0	656	0	1021	543	0	0	
2	0	0	0	0	444	0	1020	521	0	0	
3	0	0	0	0	216	0	1021	490	0	0	
4	0	0	0	0	0	0	1021	451	0	0	
5	0	0	0	0	0	12	1021	409	0	0	
6	0	0	0	0	0	121	1021	369	0	0	
7	0	0	0	0	0	280	1021	332	0	0	
8	0	0	0	0	0	469	1021	304	0	0	
9	0	0	0	0	0	666	1021	286	0	0	
10	0	0	0	0	69	848	1021	280	0	0	
11	0	0	0	0	218	993	1021	287	0	0	
12	0	0	0	0	414	1021	1021	305	0	0	
13	0	0	0	0	633	1021	1021	335	0	0	
14	0	0	0	0	848	1021	1021	372	0	0	
15	0	0	0	0	1021	966	1021	413	0	0	
0	0	0	0	0	1021	847	1021	454	0	0	
1	0	0	0	0	1021	685	1021	490	0	0	
2	0	0	0	0	1021	495	1021	519	0	0	
3	0	0	0	0	977	291	1021	536	0	0	
4	0	0	0	0	847	96	1021	541	0	0	
5	0	0	0	0	669	0	1021	532	0	0	
6	0	0	0	0	460	0	1021	512	0	0	
7	0	0	0	0	236	0	1021	481	0	0	
8	0	0	0	0	19	0	1021	444	0	0	
9	0	0	0	0	0	11	1021	403	0	0	
10	0	0	0	0	0	118	1021	363	0	0	
11	0	0	0	0	0	275	1021	327	0	0	
12	0	0	0	0	0	460	1021	299	0	0	
13	0	0	0	0	0	654	1021	281	0	0	
14	0	0	0	0	92	833	1021	277	0	0	
15	0	0	0	0	254	978	1021	285	0	0	
0	0	0	0	0	462	1021	1021	306	0	0	
1	0	0	0	0	691	1021	1021	338	0	0	
2	0	0	0	0	913	1021	1021	377	0	0	
3	0	0	0	0	1021	964	1021	421	0	0	
4	0	0	0	0	1021	845	1021	464	0	0	
5	0	0	0	0	1021	684	1021	502	0	0	
6	0	0	0	0	1021	495	1021	532	0	0	
7	0	0	0	0	990	292	1021	551	0	0	
8	0	0	0	0	867	98	1021	557	0	0	
9	0	0	0	0	695	0	1021	550	0	0	
10	0	0	0	0	492	0	1021	529	0	0	
11	0	0	0	0	270	0	1021	499	0	0	
12	0	0	0	0	51	0	1021	462	0	0	
13	0	0	0	0	0	20	1021	421	0	0	
14	0	0	0	0	0	136	1021	380	0	0	
15	0	0	0	0	0	301	1021	343	0	0	
0	0	0	0	0	0	496	1021	313	0	0	
1	0	0	0	0	0	698	1021	295	0	0	
2	0	0	0	0	76	882	1021	287	0	0	
3	0	0	0	0	229	1020	1021	293	0	0	
4	0	0	0	0	428	1021	1021	311	0	0	
5	0	0	0	0	651	1021	1021	340	0	0	
6	0	0	0	0	868	1021	1021	377	0	0	
7	0	0	0	0	1021	977	1021	419	0	0	
8	0	0	0	0	1021	863	1021	460	0	0	
9	0	0	0	0	1021	706	1021	496	0	0	
10	0	0	0	0	1021	519	1021	526	0	0	
11	0	0	0	0	981	317	1021	543	0	0	
12	0	0	0	0	851	120	1021	547	0	0	
13	0	0	0	0	673	0	1021	537	0	0	
14	0	0	0	0	464	0	1021	514	0	0	
15	0	0	0	0	238	0	1021	481	0	0	
0	0	0	0	0	18	0	1021	441	0	0	
1	0	0	0	0	0	8	1021	399	0	0	
2	0	0	0	0	0	111	1021	358	0	0	
3	0	0	0	0	0	265	1021	322	0	0	
4	0	0	0	0	0	448	1021	295	0	0	
5	0	0	0	0	0	640	1021	279	0	0	
6	0	0	0	0	101	819	1021	276	0	0	
7	0	0	0	0	271	964	1021	287	0	0	
8	0	0	0	0	490	1021	1021	311	0	0	
9	0	0	0	0	732	1021	1021	345	0	0	
10	0	0	0	0	966	1021	1021	388	0	0	
11	0	0	0	0	1021	962	1021	433	0	0	
12	0	0	0	0	1021	843	1021	478	0	0	
13	0	0	0	0	1021	682	1021	517	0	0	
14	0	0	0	0	1021	492	1021	547	0	0	
15	0	0	0	0	1021	289	1021	565	0	0	
0	0	0	0	0	947	94	1021	568	0	0	
1	0	0	0	0	813	0	1021	558	0	0	
2	0	0	0	0	644	0	1021	533	0	0	
3	0	0	0	0	452	0	1021	497	0	0	
4	0	0	0	0	253	0	1021	455	0	0	
5	0	0	0	0	71	9	1021	409	0	0	
6	0	0	0	0	0	114	1021	364	0	0	
7	0	0	0	0	0	268	1021	323	0	0	
8	0	0	0	0	0	452	1021	290	0	0	
9	0	0	0	0	28	644	1021	270	0	0	
10	0	0	0	0	157	822	1021	262	0	0	
11	0	0	0	0	350	965	1021	268	0	0	
12	0	0	0	0	588	1021	1021	288	0	0	
13	0	0	0	0	846	1021	1021	319	0	0	
14	0	0	0	0	1021	1021	1021	359	0	0	
15	0	0	0	0	1021	957	1021	402	0	0	
0	0	0	0	0	1021	835	1021	446	0	0	
1	0	0	0	0	1021	670	1021	485	0	0	
2	0	0	0	0	1021	478	1021	517	0	0	
3	0	0	0	0	1021	273	1021	537	0	0	
4	0	0	0	0	995	77	1021	545	0	0	
5	0	0	0	0	893	0	1021	539	0	0	
6	0	0	0	0	754	0	1021	519	0	0	
7	0	0	0	0	589	0	1021	490	0	0	
8	0	0	0	0	410	0	1021	454	0	0	
9	0	0	0	0	239	4	1021	413	0	0	
10	0	0	0	0	103	104	1021	374	0	0	
11	0	0	0	0	22	254	1021	337	0	0	
12	0	0	0	0	9	434	1021	308	0	0	
13	0	0	0	0	74	622	1021	291	0	0	
14	0	0	0	0	215	798	1021	284	0	0	
15	0	0	0	0	420	940	1021	291	0	0	
0	0	0	0	0	668	1021	1021	310	0	0	
1	0	0	0	0	933	1021	1021	340	0	0	
2	0	0	0	0	1021	1021	1021	378	0	0	
3	0	0	0	0	1021	951	1021	419	0	0	
4	0	0	0	0	1021	826	1021	461	0	0	
5	0	0	0	0	1021	660	1021	498	0	0	
6	0	0	0	0	1021	466	1021	527	0	0	
7	0	0	0	0	1021	260	1021	544	0	0	
8	0	0	0	0	1021	63	1021	548	0	0	
9	0	0	0	0	949	0	1021	538	0	0	
10	0	0	0	0	831	0	1021	515	0	0	
11	0	0	0	0	683	0	1021	481	0	0	
12	0	0	0	0	514	0	1021	441	0	0	
13	0	0	0	0	345	0	1021	398	0	0	
14	0	0	0	0	203	95	1021	356	0	0	
15	0	0	0	0	109	241	1021	319	0	0	
0	0	0	0	0	79	419	1021	291	0	0	
1	0	0	0	0	123	607	1021	275	0	0	
2	0	0	0	0	241	784	1021	271	0	0	
3	0	0	0	0	422	928	1021	280	0	0	
4	0	0	0	0	646	1021	1021	301	0	0	
5	0	0	0	0	889	1021	1021	333	0	0	
6	0	0	0	0	1021	1021	1021	372	0	0	
7	0	0	0	0	1021	951	1021	415	0	0	
8	0	0	0	0	1021	827	1021	457	0	0	
9	0	0	0	0	1021	659	1021	494	0	0	
10	0	0	0	0	1021	463	1021	523	0	0	
11	0	0	0	0	1021	255	1021	540	0	0	
12	0	0	0	0	1003	56	1021	544	0	0	
13	0	0	0	0	910	0	1021	534	0	0	
14	0	0	0	0	779	0	1021	512	0	0	
15	0	0	0	0	623	0	1021	480	0	0	
0	0	0	0	0	451	0	1021	441	0	0	
1	0	0	0	0	284	0	1021	399	0	0	
2	0	0	0	0	149	86	1021	359	0	0	
3	0	0	0	0	65	228	1021	323	0	0	
4	0	0	0	0	48	401	1021	295	0	0	
5	0	0	0	0	105	585	1021	279	0	0	
6	0	0	0	0	237	759	1021	274	0	0	
7	0	0	0	0	431	900	1021	282	0	0	
8	0	0	0	0	666	997	1021	301	0	0	
9	0	0	0	0	918	1021	1021	331	0	0	
10	0	0	0	0	1021	1013	1021	368	0	0	
11	0	0	0	0	1021	937	1021	409	0	0	
12	0	0	0	0	1021	809	1021	450	0	0	
13	0	0	0	0	1021	639	1021	487	0	0	
14	0	0	0	0	1021	441	1021	516	0	0	
15	0	0	0	0	1021	233	1021	534	0	0	
0	0	0	0	0	1012	36	1021	540	0	0	
1	0	0	0	0	926	0	1021	534	0	0	
2	0	0	0	0	803	0	1021	515	0	0	
3	0	0	0	0	652	0	1021	486	0	0	
4	0	0	0	0	486	0	1021	451	0	0	
5	0	0	0	0	323	0	1021	413	0	0	
6	0	0	0	0	190	88	1021	375	0	0	
7	0	0	0	0	106	231	1021	342	0	0	
8	0	0	0	0	88	403	1021	315	0	0	
9	0	0	0	0	142	586	1021	299	0	0	
10	0	0	0	0	270	758	1021	293	0	0	
11	0	0	0	0	458	897	1021	299	0	0	
12	0	0	0	0	687	992	1021	317	0	0	
13	0	0	0	0	932	1021	1021	344	0	0	
14	0	0	0	0	1021	1008	1021	379	0	0	
15	0	0	0	0	1021	931	1021	417	0	0	
0	0	0	0	0	1021	799	1021	455	0	0	
1	0	0	0	0	1021	627	1021	488	0	0	
2	0	0	0	0	1021	428	1021	514	0	0	
3	0	0	0	0	1021	217	1021	529	0	0	
4	0	0	0	0	1009	17	1021	531	0	0	
5	0	0	0	0	919	0	1021	520	0	0	
6	0	0	0	0	791	0	1021	497	0	0	
7	0	0	0	0	635	0	1021	465	0	0	
8	0	0	0	0	462	0	1021	426	0	0	
9	0	0	0	0	293	0	1021	385	0	0	
10	0	0	0	0	154	67	1021	344	0	0	
11	0	0	0	0	66	199	1021	309	0	0	
12	0	0	0	0	44	366	1021	283	0	0	
13	0	0	0	0	97	545	1021	268	0	0	
14	0	0	0	0	225	717	1021	265	0	0	
15	0	0	0	0	416	860	1021	276	0	0	
0	0	0	0	0	649	960	1021	298	0	0	
1	0	0	0	0	900	1008	1021	332	0	0	
2	0	0	0	0	1021	997	1021	373	0	0	
3	0	0	0	0	1021	928	1021	417	0	0	
4	0	0	0	0	1021	806	1021	461	0	0	
5	0	0	0	0	1021	642	1021	500	0	0	
6	0	0	0	0	1021	449	1021	531	0	0	
7	0	0	0	0	1021	244	1021	550	0	0	
8	0	0	0	0	1009	48	1021	554	0	0	
9	0	0	0	0	919	0	1021	544	0	0	
10	0	0	0	0	791	0	1021	522	0	0	
11	0	0	0	0	634	0	1021	489	0	0	
12	0	0	0	0	461	0	1021	449	0	0	
13	0	0	0	0	291	0	1021	406	0	0	
14	0	0	0	0	151	85	1021	363	0	0	
15	0	0	0	0	61	225	1021	324	0	0	
0	0	0	0	0	36	397	1021	294	0	0	
1	0	0	0	0	85	579	1021	274	0	0	
2	0	0	0	0	209	752	1021	267	0	0	
3	0	0	0	0	395	892	1021	272	0	0	
4	0	0	0	0	624	988	1021	290	0	0	
5	0	0	0	0	871	1021	1021	319	0	0	
6	0	0	0	0	1021	1008	1021	356	0	0	
7	0	0	0	0	1021	932	1021	397	0	0	
8	0	0	0	0	1021	802	1021	439	0	0	
9	0	0	0	0	1021	630	1021	476	0	0	
10	0	0	0	0	1021	430	1021	505	0	0	
11	0	0	0	0	1021	219	1021	523	0	0	
12	0	0	0	0	993	19	1021	527	0	0	
13	0	0	0	0	889	0	1021	518	0	0	
14	0	0	0	0	750	0	1021	496	0	0	
15	0	0	0	0	585	0	1021	463	0	0	
0	0	0	0	0	407	0	1021	424	0	0	
1	0	0	0	0	236	0	1021	381	0	0	
2	0	0	0	0	100	61	1021	339	0	0	
3	0	0	0	0	16	188	1021	301	0	0	
4	0	0	0	0	2	348	1021	272	0	0	
5	0	0	0	0	62	520	1021	253	0	0	
6	0	0	0	0	199	686	1021	247	0	0	
7	0	0	0	0	398	824	1021	254	0	0	
8	0	0	0	0	639	919	1021	274	0	0	
9	0	0	0	0	898	964	1021	305	0	0	
10	0	0	0	0	1021	952	1021	345	0	0	
11	0	0	0	0	1021	883	1021	389	0	0	
12	0	0	0	0	1021	761	1021	433	0	0	
13	0	0	0	0	1021	599	1021	474	0	0	
14	0	0	0	0	1021	410	1021	506	0	0	
15	0	0	0	0	1021	211	1021	527	0	0	
0	0	0	0	0	1007	21	1021	535	0	0	
1	0	0	0	0	914	0	1021	529	0	0	
2	0	0	0	0	784	0	1021	510	0	0	
3	0	0	0	0	628	0	1021	481	0	0	
4	0	0	0	0	456	0	1021	445	0	0	
5	0	0	0	0	288	0	1020	404	0	0	
6	0	0	0	0	152	82	1021	364	0	0	
7	0	0	0	0	64	219	1021	327	0	0	
8	0	0	0	0	41	387	1021	298	0	0	
9	0	0	0	0	93	565	1021	278	0	0	
10	0	0	0	0	217	733	1021	271	0	0	
11	0	0	0	0	404	870	1021	275	0	0	
12	0	0	0	0	634	961	1021	292	0	0	
13	0	0	0	0	882	1002	1021	319	0	0	
14	0	0	0	0	1021	983	1021	355	0	0	
15	0	0	0	0	1021	905	1021	395	0	0	
0	0	0	0	0	1021	775	1021	435	0	0	
1	0	0	0	0	1021	603	1021	472	0	0	
2	0	0	0	0	1021	405	1021	500	0	0	
3	0	0	0	0	1021	198	1021	519	0	0	
4	0	0	0	0	999	2	1021	524	0	0	
5	0	0	0	0	903	0	1021	517	0	0	
6	0	0	0	0	768	0	1021	497	0	0	
7	0	0	0	0	607	0	1021	469	0	0	
8	0	0	0	0	432	0	1021	433	0	0	
9	0	0	0	0	262	0	1021	394	0	0	
10	0	0	0	0	124	69	1021	355	0	0	
11	0	0	0	0	37	200	1021	320	0	0	
12	0	0	0	0	17	364	1021	292	0	0	
13	0	0	0	0	71	540	1021	274	0	0	
14	0	0	0	0	200	708	1021	268	0	0	
15	0	0	0	0	391	847	1021	275	0	0	
0	0	0	0	0	626	942	1021	292	0	0	
1	0	0	0	0	878	985	1021	321	0	0	
2	0	0	0	0	1021	969	1021	356	0	0	
3	0	0	0	0	1021	896	1021	397	0	0	
4	0	0	0	0	1021	770	1021	437	0	0	
5	0	0	0	0	1021	603	1021	473	0	0	
6	0	0	0	0	1021	408	1021	502	0	0	
7	0	0	0	0	1021	203	1021	519	0	0	
8	0	0	0	0	993	7	1021	524	0	0	
9	0	0	0	0	891	0	1021	516	0	0	
10	0	0	0	0	752	0	1021	496	0	0	
11	0	0	0	0	586	0	1021	465	0	0	
12	0	0	0	0	405	0	1021	428	0	0	
13	0	0	0	0	230	0	1021	387	0	0	
14	0	0	0	0	87	69	1021	347	0	0	
15	0	0	0	0	0	203	1021	311	0	0	
0	0	0	0	0	0	370	1021	283	0	0	
1	0	0	0	0	37	551	1021	265	0	0	
2	0	0	0	0	160	724	1021	260	0	0	
3	0	0	0	0	348	867	1021	268	0	0	
4	0	0	0	0	580	968	1021	289	0	0	
5	0	0	0	0	832	1017	1021	320	0	0	
6	0	0	0	0	1020	1008	1021	360	0	0	
7	0	0	0	0	1021	939	1021	405	0	0	
8	0	0	0	0	1021	817	1021	449	0	0	
9	0	0	0	0	1021	652	1021	487	0	0	
10	0	0	0	0	1021	458	1021	519	0	0	
11	0	0	0	0	1021	252	1021	539	0	0	
12	0	0	0	0	994	54	1021	545	0	0	
13	0	0	0	0	891	0	1021	537	0	0	
14	0	0	0	0	751	0	1021	516	0	0	
15	0	0	0	0	585	0	1021	484	0	0	
0	0	0	0	0	403	0	1021	444	0	0	
1	0	0	0	0	228	0	1021	399	0	0	
2	0	0	0	0	84	78	1021	354	0	0	
3	0	0	0	0	0	216	1021	312	0	0	
4	0	0	0	0	0	382	1021	275	0	0	
5	0	0	0	0	31	559	1021	247	0	0	
6	0	0	0	0	147	724	1021	229	0	0	
7	0	0	0	0	323	855	1021	222	0	0	
8	0	0	0	0	541	940	1021	224	0	0	
9	0	0	0	0	775	968	1021	236	0	0	
10	0	0	0	0	994	933	1021	254	0	0	
11	0	0	0	0	1021	837	1021	276	0	0	
12	0	0	0	0	1021	686	1021	297	0	0	
13	0	0	0	0	1021	492	1021	315	0	0	
14	0	0	0	0	1021	269	1021	324	0	0	
15	0	0	0	0	982	39	1021	324	0	0	
0	0	0	0	0	850	0	1021	312	0	0	
1	0	0	0	0	668	0	1021	287	0	0	
2	0	0	0	0	455	0	1021	250	0	0	
3	0	0	0	0	227	0	1021	204	0	0	
4	0	0	0	0	11	0	1021	152	0	0	
5	0	0	0	0	0	0	1021	97	0	0	
6	0	0	0	0	0	0	1021	42	0	0	
7	0	0	0	0	0	0	1021	0	0	0	
8	0	0	0	0	0	40	1021	0	0	0	
9	0	0	0	0	19	122	1021	0	0	0	
10	0	0	0	0	145	215	1021	0	0	0	
11	0	0	0	0	333	304	1021	0	0	0	
12	0	0	0	0	564	375	1021	0	0	0	
13	0	0	0	0	812	417	1021	3	0	0	
14	0	0	0	0	1020	422	1021	25	0	0	
15	0	0	0	0	1021	387	1021	57	0	0	
0	0	0	0	0	1021	314	1021	98	0	0	
1	0	0	0	0	1021	211	1021	142	0	0	
2	0	0	0	0	1021	90	1021	187	0	0	
3	0	0	0	0	1021	0	1021	230	0	0	
4	0	0	0	0	953	0	1020	267	0	0	
5	0	0	0	0	827	0	1021	295	0	0	
6	0	0	0	0	670	0	1021	313	0	0	
7	0	0	0	0	494	0	1021	322	0	0	
8	0	0	0	0	313	0	1021	323	0	0	
9	0	0	0	0	151	0	1021	316	0	0	
10	0	0	0	0	30	62	1021	306	0	0	
11	0	0	0	0	0	180	1021	296	0	0	
12	0	0	0	0	0	328	1021	288	0	0	
13	0	0	0	0	89	489	1021	286	0	0	
14	0	0	0	0	254	644	1021	292	0	0	
15	0	0	0	0	480	775	1021	307	0	0	
0	0	0	0	0	747	867	1021	331	0	0	
1	0	0	0	0	1020	911	1021	362	0	0	
2	0	0	0	0	1021	903	1021	398	0	0	
3	0	0	0	0	1021	839	1021	436	0	0	
4	0	0	0	0	1021	727	1021	474	0	0	
5	0	0	0	0	1021	575	1021	507	0	0	
6	0	0	0	0	1021	398	1021	531	0	0	
7	0	0	0	0	1021	211	1021	546	0	0	
8	0	0	0	0	1021	33	1021	548	0	0	
9	0	0	0	0	983	0	1021	537	0	0	
10	0	0	0	0	881	0	1021	515	0	0	
11	0	0	0	0	743	0	1021	482	0	0	
12	0	0	0	0	579	0	1021	442	0	0	
13	0	0	0	0	408	6	1021	399	0	0	
14	0	0	0	0	252	108	1021	357	0	0	
15	0	0	0	0	139	260	1021	319	0	0	
0	0	0	0	0	84	443	1021	289	0	0	
1	0	0	0	0	99	635	1021	271	0	0	
2	0	0	0	0	186	815	1021	265	0	0	
3	0	0	0	0	337	962	1021	273	0	0	
4	0	0	0	0	537	1021	1021	293	0	0	
5	0	0	0	0	761	1021	1021	325	0	0	
6	0	0	0	0	981	1021	1021	365	0	0	
7	0	0	0	0	1021	968	1021	409	0	0	
8	0	0	0	0	1021	851	1021	453	0	0	
9	0	0	0	0	1021	691	1021	494	0	0	
10	0	0	0	0	1021	501	1021	526	0	0	
11	0	0	0	0	1021	297	1021	547	0	0	
12	0	0	0	0	973	100	1021	555	0	0	
13	0	0	0	0	860	0	1021	549	0	0	
14	0	0	0	0	714	0	1021	530	0	0	
15	0	0	0	0	545	0	1021	499	0	0	
0	0	0	0	0	366	0	1021	461	0	0	
1	0	0	0	0	197	0	1021	419	0	0	
2	0	0	0	0	62	88	1021	377	0	0	
3	0	0	0	0	0	230	1021	338	0	0	
4	0	0	0	0	0	404	1021	306	0	0	
5	0	0	0	0	47	589	1021	286	0	0	
6	0	0	0	0	178	764	1021	277	0	0	
7	0	0	0	0	371	906	1021	282	0	0	
8	0	0	0	0	607	1005	1021	300	0	0	
9	0	0	0	0	860	1021	1021	328	0	0	
10	0	0	0	0	1021	1017	1021	366	0	0	
11	0	0	0	0	1021	945	1021	408	0	0	
12	0	0	0	0	1021	820	1021	450	0	0	
13	0	0	0	0	1021	651	1021	488	0	0	
14	0	0	0	0	1021	455	1021	519	0	0	
15	0	0	0	0	1021	246	1021	538	0	0	
0	0	0	0	0	982	46	1021	545	0	0	
1	0	0	0	0	870	0	1021	538	0	0	
2	0	0	0	0	721	0	1021	519	0	0	
3	0	0	0	0	547	0	1021	490	0	0	
4	0	0	0	0	360	0	1021	454	0	0	
5	0	0	0	0	183	0	1020	414	0	0	
6	0	0	0	0	39	75	1021	375	0	0	
7	0	0	0	0	0	212	1021	339	0	0	
8	0	0	0	0	0	384	1021	312	0	0	
9	0	0	0	0	29	568	1021	294	0	0	
10	0	0	0	0	152	742	1021	287	0	0	
11	0	0	0	0	337	887	1021	293	0	0	
12	0	0	0	0	566	988	1021	310	0	0	
13	0	0	0	0	815	1021	1021	336	0	0	
14	0	0	0	0	1020	1015	1021	370	0	0	
15	0	0	0	0	1021	943	1021	408	0	0	
0	0	0	0	0	1021	816	1021	446	0	0	
1	0	0	0	0	1021	647	1021	480	0	0	
2	0	0	0	0	1021	449	1021	507	0	0	
3	0	0	0	0	1021	239	1021	523	0	0	
4	0	0	0	0	961	37	1021	527	0	0	
5	0	0	0	0	835	0	1021	518	0	0	
6	0	0	0	0	675	0	1021	497	0	0	
7	0	0	0	0	492	0	1021	467	0	0	
8	0	0	0	0	298	0	1021	430	0	0	
9	0	0	0	0	119	0	1021	389	0	0	
10	0	0	0	0	0	58	1021	349	0	0	
11	0	0	0	0	0	186	1021	313	0	0	
12	0	0	0	0	0	348	1021	286	0	0	
13	0	0	0	0	30	525	1021	269	0	0	
14	0	0	0	0	159	696	1021	265	0	0	
15	0	0	0	0	350	839	1021	274	0	0	
0	0	0	0	0	585	942	1021	295	0	0	
1	0	0	0	0	840	994	1021	328	0	0	
2	0	0	0	0	1021	988	1021	369	0	0	
3	0	0	0	0	1021	924	1021	413	0	0	
4	0	0	0	0	1021	807	1021	458	0	0	
5	0	0	0	0	1021	647	1021	497	0	0	
6	0	0	0	0	1021	458	1021	528	0	0	
7	0	0	0	0	1021	256	1021	547	0	0	
8	0	0	0	0	989	61	1021	552	0	0	
9	0	0	0	0	881	0	1021	544	0	0	
10	0	0	0	0	738	0	1020	523	0	0	
11	0	0	0	0	568	0	1021	491	0	0	
12	0	0	0	0	384	0	1021	451	0	0	
13	0	0	0	0	208	0	1021	408	0	0	
14	0	0	0	0	65	76	1021	365	0	0	
15	0	0	0	0	0	211	1021	325	0	0	
0	0	0	0	0	0	379	1021	293	0	0	
1	0	0	0	0	33	559	1021	271	0	0	
2	0	0	0	0	156	729	1021	262	0	0	
3	0	0	0	0	341	869	1021	264	0	0	
4	0	0	0	0	569	964	1021	280	0	0	
5	0	0	0	0	817	1008	1021	306	0	0	
6	0	0	0	0	1020	992	1021	341	0	0	
7	0	0	0	0	1021	917	1021	381	0	0	
8	0	0	0	0	1021	789	1021	421	0	0	
9	0	0	0	0	1021	619	1021	458	0	0	
10	0	0	0	0	1021	422	1021	487	0	0	
11	0	0	0	0	1021	213	1021	507	0	0	
12	0	0	0	0	958	14	1021	513	0	0	
13	0	0	0	0	831	0	1021	507	0	0	
14	0	0	0	0	669	0	1021	487	0	0	
15	0	0	0	0	485	0	1021	458	0	0	
0	0	0	0	0	292	0	1021	421	0	0	
1	0	0	0	0	115	0	1021	381	0	0	
2	0	0	0	0	0	54	1021	341	0	0	
3	0	0	0	0	0	178	1021	304	0	0	
4	0	0	0	0	0	337	1021	277	0	0	
5	0	0	0	0	30	511	1021	259	0	0	
6	0	0	0	0	156	679	1021	253	0	0	
7	0	0	0	0	345	819	1021	261	0	0	
8	0	0	0	0	576	919	1021	280	0	0	
9	0	0	0	0	826	966	1021	309	0	0	
10	0	0	0	0	1021	957	1021	347	0	0	
11	0	0	0	0	1021	889	1021	388	0	0	
12	0	0	0	0	1021	768	1021	430	0	0	
13	0	0	0	0	1021	604	1021	466	0	0	
14	0	0	0	0	1021	412	1021	495	0	0	
15	0	0	0	0	1021	209	1021	513	0	0	
0	0	0	0	0	960	15	1021	518	0	0	
1	0	0	0	0	834	0	1021	510	0	0	
2	0	0	0	0	673	0	1021	489	0	0	
3	0	0	0	0	490	0	1021	458	0	0	
4	0	0	0	0	298	0	1021	420	0	0	
5	0	0	0	0	120	0	1021	379	0	0	
6	0	0	0	0	0	56	1021	338	0	0	
7	0	0	0	0	0	183	1021	300	0	0	
8	0	0	0	0	0	343	1021	271	0	0	
9	0	0	0	0	25	517	1021	250	0	0	
10	0	0	0	0	147	684	1021	242	0	0	
11	0	0	0	0	329	825	1021	246	0	0	
12	0	0	0	0	554	924	1021	263	0	0	
13	0	0	0	0	797	971	1021	290	0	0	
14	0	0	0	0	1020	960	1021	325	0	0	
15	0	0	0	0	1021	891	1021	364	0	0	
0	0	0	0	0	1021	767	1021	404	0	0	
1	0	0	0	0	1021	601	1021	440	0	0	
2	0	0	0	0	1021	408	1021	468	0	0	
3	0	0	0	0	1021	203	1021	487	0	0	
4	0	0	0	0	926	7	1021	493	0	0	
5	0	0	0	0	782	0	1021	487	0	0	
6	0	0	0	0	606	0	1021	468	0	0	
7	0	0	0	0	412	0	1021	439	0	0	
8	0	0	0	0	211	0	1021	403	0	0	
9	0	0	0	0	32	0	1021	364	0	0	
10	0	0	0	0	0	52	1021	324	0	0	
11	0	0	0	0	0	176	1021	288	0	0	
12	0	0	0	0	0	334	1021	259	0	0	
13	0	0	0	0	17	507	1021	240	0	0	
14	0	0	0	0	135	675	1021	231	0	0	
15	0	0	0	0	315	815	1021	236	0	0	
0	0	0	0	0	537	914	1021	251	0	0	
1	0	0	0	0	778	961	1021	276	0	0	
2	0	0	0	0	1006	951	1021	309	0	0	
3	0	0	0	0	1021	883	1021	347	0	0	
4	0	0	0	0	1021	761	1021	384	0	0	
5	0	0	0	0	1021	596	1021	418	0	0	
6	0	0	0	0	1021	404	1021	445	0	0	
7	0	0	0	0	1017	200	1021	462	0	0	
8	0	0	0	0	915	6	1021	468	0	0	
9	0	0	0	0	767	0	1021	462	0	0	
10	0	0	0	0	585	0	1021	443	0	0	
11	0	0	0	0	385	0	1021	414	0	0	
12	0	0	0	0	183	0	1021	378	0	0	
13	0	0	0	0	3	0	1021	338	0	0	
14	0	0	0	0	0	47	1021	298	0	0	
15	0	0	0	0	0	167	1021	262	0	0	
0	0	0	0	0	0	321	1021	232	0	0	
1	0	0	0	0	18	492	1021	212	0	0	
2	0	0	0	0	138	657	1021	205	0	0	
3	0	0	0	0	319	796	1021	209	0	0	
4	0	0	0	0	543	894	1021	226	0	0	
5	0	0	0	0	786	941	1021	252	0	0	
6	0	0	0	0	1015	931	1021	287	0	0	
7	0	0	0	0	1021	864	1021	327	0	0	
8	0	0	0	0	1021	743	1021	367	0	0	
9	0	0	0	0	1021	580	1021	402	0	0	
10	0	0	0	0	1021	388	1021	431	0	0	
11	0	0	0	0	1019	186	1021	450	0	0	
12	0	0	0	0	919	0	1021	457	0	0	
13	0	0	0	0	770	0	1021	451	0	0	
14	0	0	0	0	588	0	1021	433	0	0	
15	0	0	0	0	386	0	1021	405	0	0	
0	0	0	0	0	181	0	1021	369	0	0	
1	0	0	0	0	0	0	1021	330	0	0	
2	0	0	0	0	0	51	1021	291	0	0	
3	0	0	0	0	0	177	1021	256	0	0	
4	0	0	0	0	0	337	1021	228	0	0	
5	0	0	0	0	3	514	1021	210	0	0	
6	0	0	0	0	110	684	1021	204	0	0	
7	0	0	0	0	279	828	1021	210	0	0	
8	0	0	0	0	492	931	1021	227	0	0	
9	0	0	0	0	725	981	1021	255	0	0	
10	0	0	0	0	950	974	1021	292	0	0	
11	0	0	0	0	1021	908	1021	332	0	0	
12	0	0	0	0	1021	787	1021	372	0	0	
13	0	0	0	0	1021	624	1021	408	0	0	
14	0	0	0	0	1021	431	1021	437	0	0	
15	0	0	0	0	1009	226	1021	455	0	0	
0	0	0	0	0	902	28	1021	462	0	0	
1	0	0	0	0	746	0	1021	455	0	0	
2	0	0	0	0	558	0	1021	436	0	0	
3	0	0	0	0	352	0	1021	406	0	0	
4	0	0	0	0	144	0	1021	369	0	0	
5	0	0	0	0	0	0	1021	328	0	0	
6	0	0	0	0	0	60	1021	288	0	0	
7	0	0	0	0	0	191	1021	252	0	0	
8	0	0	0	0	0	358	1021	225	0	0	
9	0	0	0	0	0	541	1021	209	0	0	
10	0	0	0	0	105	719	1021	206	0	0	
11	0	0	0	0	272	870	1021	217	0	0	
12	0	0	0	0	486	978	1021	241	0	0	
13	0	0	0	0	721	1021	1021	276	0	0	
14	0	0	0	0	948	1021	1021	319	0	0	
15	0	0	0	0	1021	964	1021	367	0	0	
0	0	0	0	0	1021	851	1021	414	0	0	
1	0	0	0	0	1021	692	1021	456	0	0	
2	0	0	0	0	1021	503	1021	491	0	0	
3	0	0	0	0	1019	297	1021	512	0	0	
4	0	0	0	0	920	98	1021	520	0	0	
5	0	0	0	0	773	0	1021	514	0	0	
6	0	0	0	0	593	0	1021	495	0	0	
7	0	0	0	0	395	0	1021	464	0	0	
8	0	0	0	0	191	0	1021	426	0	0	
9	0	0	0	0	8	0	1021	384	0	0	
10	0	0	0	0	0	84	1021	343	0	0	
11	0	0	0	0	0	229	1021	306	0	0	
12	0	0	0	0	0	408	1021	278	0	0	
13	0	0	0	0	10	600	1021	261	0	0	
14	0	0	0	0	123	785	1021	257	0	0	
15	0	0	0	0	299	939	1021	267	0	0	
0	0	0	0	0	519	1021	1021	291	0	0	
1	0	0	0	0	762	1021	1021	326	0	0	
2	0	0	0	0	994	1021	1021	369	0	0	
3	0	0	0	0	1021	984	1021	417	0	0	
4	0	0	0	0	1021	878	1021	465	0	0	
5	0	0	0	0	1021	727	1021	508	0	0	
6	0	0	0	0	1021	544	1021	541	0	0	
7	0	0	0	0	1021	345	1021	563	0	0	
8	0	0	0	0	940	150	1021	571	0	0	
9	0	0	0	0	804	0	1021	565	0	0	
10	0	0	0	0	633	0	1021	545	0	0	
11	0	0	0	0	441	0	1021	514	0	0	
12	0	0	0	0	241	0	1021	475	0	0	
13	0	0	0	0	57	6	1021	432	0	0	
14	0	0	0	0	0	110	1021	389	0	0	
15	0	0	0	0	0	266	1021	349	0	0	
0	0	0	0	0	0	454	1021	317	0	0	
1	0	0	0	0	3	652	1021	295	0	0	
2	0	0	0	0	108	838	1021	287	0	0	
3	0	0	0	0	274	990	1021	291	0	0	
4	0	0	0	0	486	1021	1021	309	0	0	
5	0	0	0	0	719	1021	1021	339	0	0	
6	0	0	0	0	945	1021	1021	377	0	0	
7	0	0	0	0	1021	987	1021	421	0	0	
8	0	0	0	0	1021	882	1021	465	0	0	
9	0	0	0	0	1021	732	1021	506	0	0	
10	0	0	0	0	1021	551	1021	540	0	0	
11	0	0	0	0	1021	355	1021	563	0	0	
12	0	0	0	0	925	161	1021	572	0	0	
13	0	0	0	0	782	0	1021	569	0	0	
14	0	0	0	0	607	0	1021	552	0	0	
15	0	0	0	0	414	0	1021	525	0	0	
0	0	0	0	0	214	0	1021	489	0	0	
1	0	0	0	0	33	9	1021	451	0	0	
2	0	0	0	0	0	114	1021	411	0	0	
3	0	0	0	0	0	270	1021	375	0	0	
4	0	0	0	0	0	458	1021	347	0	0	
5	0	0	0	0	10	655	1021	328	0	0	
6	0	0	0	0	121	841	1021	321	0	0	
7	0	0	0	0	294	992	1021	327	0	0	
8	0	0	0	0	510	1021	1021	344	0	0	
9	0	0	0	0	748	1021	1021	372	0	0	
10	0	0	0	0	974	1021	1021	409	0	0	
11	0	0	0	0	1021	987	1021	449	0	0	
12	0	0	0	0	1021	881	1021	490	0	0	
13	0	0	0	0	1021	731	1021	527	0	0	
14	0	0	0	0	1021	551	1021	557	0	0	
15	0	0	0	0	1021	354	1021	576	0	0	
0	0	0	0	0	928	161	1021	583	0	0	
1	0	0	0	0	786	0	1021	577	0	0	
2	0	0	0	0	613	0	1021	560	0	0	
3	0	0	0	0	421	0	1021	531	0	0	
4	0	0	0	0	223	0	1021	496	0	0	
5	0	0	0	0	44	8	1021	458	0	0	
6	0	0	0	0	0	112	1021	420	0	0	
7	0	0	0	0	0	268	1021	385	0	0	
8	0	0	0	0	0	454	1021	357	0	0	
9	0	0	0	0	13	648	1021	338	0	0	
10	0	0	0	0	125	830	1021	330	0	0	
11	0	0	0	0	297	978	1021	334	0	0	
12	0	0	0	0	512	1021	1021	348	0	0	
13	0	0	0	0	746	1021	1021	373	0	0	
14	0	0	0	0	967	1021	1021	405	0	0	
15	0	0	0	0	1021	970	1021	442	0	0	
0	0	0	0	0	1021	854	1021	479	0	0	
1	0	0	0	0	1021	694	1021	512	0	0	
2	0	0	0	0	1021	505	1021	539	0	0	
3	0	0	0	0	1008	302	1021	556	0	0	
4	0	0	0	0	903	105	1021	561	0	0	
5	0	0	0	0	749	0	1021	555	0	0	
6	0	0	0	0	565	0	1021	536	0	0	
7	0	0	0	0	363	0	1021	509	0	0	
8	0	0	0	0	159	0	1021	475	0	0	
9	0	0	0	0	0	0	1021	438	0	0	
10	0	0	0	0	0	95	1021	401	0	0	
11	0	0	0	0	0	243	1021	367	0	0	
12	0	0	0	0	0	425	1021	340	0	0	
13	0	0	0	0	2	618	1021	323	0	0	
14	0	0	0	0	107	802	1021	317	0	0	
15	0	0	0	0	273	953	1021	323	0	0	
0	0	0	0	0	484	1021	1021	342	0	0	
1	0	0	0	0	716	1021	1021	371	0	0	
2	0	0	0	0	941	1021	1021	409	0	0	
3	0	0	0	0	1021	984	1021	450	0	0	
4	0	0	0	0	1021	876	1021	492	0	0	
5	0	0	0	0	1021	725	1021	529	0	0	
6	0	0	0	0	1021	542	1021	560	0	0	
7	0	0	0	0	1011	343	1021	579	0	0	
8	0	0	0	0	908	146	1021	585	0	0	
9	0	0	0	0	755	0	1021	580	0	0	
10	0	0	0	0	571	0	1021	562	0	0	
11	0	0	0	0	368	0	1021	534	0	0	
12	0	0	0	0	163	0	1021	499	0	0	
13	0	0	0	0	0	7	1021	460	0	0	
14	0	0	0	0	0	112	1021	422	0	0	
15	0	0	0	0	0	270	1021	386	0	0	
0	0	0	0	0	0	459	1021	358	0	0	
1	0	0	0	0	0	658	1021	338	0	0	
2	0	0	0	0	88	845	1021	330	0	0	
3	0	0	0	0	244	998	1021	334	0	0	
4	0	0	0	0	446	1021	1021	349	0	0	
5	0	0	0	0	670	1021	1021	375	0	0	
6	0	0	0	0	889	1021	1021	409	0	0	
7	0	0	0	0	1021	987	1021	447	0	0	
8	0	0	0	0	1021	880	1021	486	0	0	
9	0	0	0	0	1021	729	1021	520	0	0	
10	0	0	0	0	1021	544	1021	547	0	0	
11	0	0	0	0	999	344	1021	564	0	0	
12	0	0	0	0	886	145	1021	568	0	0	
13	0	0	0	0	724	0	1021	560	0	0	
14	0	0	0	0	531	0	1021	539	0	0	
15	0	0	0	0	323	0	1021	508	0	0	
0	0	0	0	0	115	0	1021	470	0	0	
1	0	0	0	0	0	0	1021	429	0	0	
2	0	0	0	0	0	82	1021	388	0	0	
3	0	0	0	0	0	222	1021	350	0	0	
4	0	0	0	0	0	397	1021	319	0	0	
5	0	0	0	0	0	584	1021	298	0	0	
6	0	0	0	0	95	763	1021	289	0	0	
7	0	0	0	0	255	910	1021	293	0	0	
8	0	0	0	0	459	1015	1021	309	0	0	
9	0	0	0	0	686	1021	1021	337	0	0	
10	0	0	0	0	908	1021	1021	375	0	0	
11	0	0	0	0	1021	967	1021	418	0	0	
12	0	0	0	0	1021	852	1021	462	0	0	
13	0	0	0	0	1021	694	1021	503	0	0	
14	0	0	0	0	1021	507	1021	537	0	0	
15	0	0	0	0	1005	306	1021	561	0	0	
0	0	0	0	0	896	110	1021	572	0	0	
1	0	0	0	0	739	0	1021	570	0	0	
2	0	0	0	0	551	0	1021	555	0	0	
3	0	0	0	0	346	0	1021	529	0	0	
4	0	0	0	0	140	0	1021	495	0	0	
5	0	0	0	0	0	0	1021	455	0	0	
6	0	0	0	0	0	95	1021	415	0	0	
7	0	0	0	0	0	243	1021	378	0	0	
8	0	0	0	0	0	424	1021	347	0	0	
9	0	0	0	0	0	616	1021	325	0	0	
10	0	0	0	0	91	798	1021	314	0	0	
11	0	0	0	0	248	946	1021	315	0	0	
12	0	0	0	0	449	1021	1021	328	0	0	
13	0	0	0	0	671	1021	1021	352	0	0	
14	0	0	0	0	886	1021	1021	383	0	0	
15	0	0	0	0	1021	966	1021	420	0	0	
0	0	0	0	0	1021	847	1021	458	0	0	
1	0	0	0	0	1021	684	1021	493	0	0	
2	0	0	0	0	1021	492	1021	521	0	0	
3	0	0	0	0	989	286	1021	541	0	0	
4	0	0	0	0	868	85	1021	548	0	0	
5	0	0	0	0	701	0	1021	543	0	0	
6	0	0	0	0	504	0	1021	526	0	0	
7	0	0	0	0	294	0	1021	499	0	0	
8	0	0	0	0	87	0	1021	464	0	0	
9	0	0	0	0	0	0	1021	426	0	0	
10	0	0	0	0	0	71	1021	387	0	0	
11	0	0	0	0	0	207	1021	352	0	0	
12	0	0	0	0	0	379	1021	323	0	0	
13	0	0	0	0	0	564	1021	304	0	0	
14	0	0	0	0	101	742	1021	297	0	0	
15	0	0	0	0	264	890	1021	302	0	0	
0	0	0	0	0	470	994	1021	318	0	0	
1	0	0	0	0	696	1021	1021	345	0	0	
2	0	0	0	0	914	1021	1021	379	0	0	
3	0	0	0	0	1021	956	1021	419	0	0	
4	0	0	0	0	1021	836	1021	458	0	0	
5	0	0	0	0	1021	672	1021	494	0	0	
6	0	0	0	0	1021	479	1021	524	0	0	
7	0	0	0	0	996	273	1021	543	0	0	
8	0	0	0	0	880	73	1021	551	0	0	
9	0	0	0	0	717	0	1021	547	0	0	
10	0	0	0	0	525	0	1021	531	0	0	
11	0	0	0	0	317	0	1021	506	0	0	
12	0	0	0	0	111	0	1021	473	0	0	
13	0	0	0	0	0	0	1021	437	0	0	
14	0	0	0	0	0	79	1021	400	0	0	
15	0	0	0	0	0	222	1021	366	0	0	
0	0	0	0	0	0	398	1021	337	0	0	
1	0	0	0	0	0	588	1021	318	0	0	
2	0	0	0	0	94	768	1021	309	0	0	
3	0	0	0	0	253	919	1021	312	0	0	
4	0	0	0	0	455	1020	1021	326	0	0	
5	0	0	0	0	680	1021	1021	350	0	0	
6	0	0	0	0	898	1021	1021	383	0	0	
7	0	0	0	0	1021	968	1021	420	0	0	
8	0	0	0	0	1021	852	1021	457	0	0	
9	0	0	0	0	1021	691	1021	491	0	0	
10	0	0	0	0	1021	500	1021	519	0	0	
11	0	0	0	0	996	294	1021	538	0	0	
12	0	0	0	0	880	93	1021	544	0	0	
13	0	0	0	0	716	0	1021	540	0	0	
14	0	0	0	0	523	0	1021	522	0	0	
15	0	0	0	0	315	0	1021	495	0	0	
0	0	0	0	0	110	0	1021	460	0	0	
1	0	0	0	0	0	0	1021	421	0	0	
2	0	0	0	0	0	64	1021	382	0	0	
3	0	0	0	0	0	196	1021	346	0	0	
4	0	0	0	0	0	362	1021	317	0	0	
5	0	0	0	0	7	543	1021	297	0	0	
6	0	0	0	0	118	717	1021	289	0	0	
7	0	0	0	0	288	863	1021	293	0	0	
8	0	0	0	0	502	967	1021	309	0	0	
9	0	0	0	0	735	1020	1021	337	0	0	
10	0	0	0	0	957	1013	1021	373	0	0	
11	0	0	0	0	1021	947	1021	413	0	0	
12	0	0	0	0	1021	827	1021	455	0	0	
13	0	0	0	0	1021	663	1021	492	0	0	
14	0	0	0	0	1021	469	1021	522	0	0	
15	0	0	0	0	1002	262	1021	542	0	0	
0	0	0	0	0	890	61	1021	550	0	0	
1	0	0	0	0	729	0	1021	546	0	0	
2	0	0	0	0	539	0	1021	529	0	0	
3	0	0	0	0	332	0	1021	502	0	0	
4	0	0	0	0	125	0	1021	467	0	0	
5	0	0	0	0	0	0	1021	429	0	0	
6	0	0	0	0	0	72	1021	390	0	0	
7	0	0	0	0	0	211	1021	353	0	0	
8	0	0	0	0	0	384	1021	323	0	0	
9	0	0	0	0	0	572	1021	303	0	0	
10	0	0	0	0	96	752	1021	293	0	0	
11	0	0	0	0	256	902	1021	296	0	0	
12	0	0	0	0	460	1010	1021	311	0	0	
13	0	0	0	0	687	1021	1021	337	0	0	
14	0	0	0	0	907	1021	1021	371	0	0	
15	0	0	0	0	1021	969	1021	411	0	0	
0	0	0	0	0	1021	856	1021	452	0	0	
1	0	0	0	0	1021	698	1021	491	0	0	
2	0	0	0	0	1021	510	1021	523	0	0	
3	0	0	0	0	1004	306	1021	544	0	0	
4	0	0	0	0	895	107	1021	553	0	0	
5	0	0	0	0	737	0	1021	549	0	0	
6	0	0	0	0	548	0	1021	532	0	0	
7	0	0	0	0	343	0	1021	504	0	0	
8	0	0	0	0	137	0	1021	469	0	0	
9	0	0	0	0	0	0	1021	429	0	0	
10	0	0	0	0	0	79	1021	388	0	0	
11	0	0	0	0	0	221	1021	351	0	0	
12	0	0	0	0	0	397	1021	319	0	0	
13	0	0	0	0	0	587	1021	298	0	0	
14	0	0	0	0	98	769	1021	288	0	0	
15	0	0	0	0	259	920	1021	291	0	0	
0	0	0	0	0	465	1020	1021	307	0	0	
1	0	0	0	0	692	1021	1021	334	0	0	
2	0	0	0	0	912	1021	1021	369	0	0	
3	0	0	0	0	1021	974	1021	410	0	0	
4	0	0	0	0	1021	861	1021	452	0	0	
5	0	0	0	0	1021	704	1021	490	0	0	
6	0	0	0	0	1021	516	1021	521	0	0	
7	0	0	0	0	1001	312	1021	542	0	0	
8	0	0	0	0	888	111	1021	550	0	0	
9	0	0	0	0	727	0	1021	544	0	0	
10	0	0	0	0	536	0	1021	527	0	0	
11	0	0	0	0	328	0	1021	499	0	0	
12	0	0	0	0	123	0	1021	465	0	0	
13	0	0	0	0	0	0	1021	427	0	0	
14	0	0	0	0	0	76	1021	388	0	0	
15	0	0	0	0	0	216	1021	354	0	0	
0	0	0	0	0	0	391	1021	326	0	0	
1	0	0	0	0	2	581	1021	308	0	0	
2	0	0	0	0	105	762	1021	300	0	0	
3	0	0	0	0	269	913	1021	304	0	0	
4	0	0	0	0	476	1020	1021	319	0	0	
5	0	0	0	0	703	1021	1021	344	0	0	
6	0	0	0	0	920	1021	1021	377	0	0	
7	0	0	0	0	1021	969	1021	414	0	0	
8	0	0	0	0	1021	854	1021	450	0	0	
9	0	0	0	0	1021	694	1021	484	0	0	
10	0	0	0	0	1021	503	1021	511	0	0	
11	0	0	0	0	996	298	1021	529	0	0	
12	0	0	0	0	880	98	1021	535	0	0	
13	0	0	0	0	718	0	1021	530	0	0	
14	0	0	0	0	528	0	1021	513	0	0	
15	0	0	0	0	324	0	1021	487	0	0	
0	0	0	0	0	122	0	1021	454	0	0	
1	0	0	0	0	0	0	1021	417	0	0	
2	0	0	0	0	0	72	1021	380	0	0	
3	0	0	0	0	0	209	1021	348	0	0	
4	0	0	0	0	0	382	1021	321	0	0	
5	0	0	0	0	15	569	1021	304	0	0	
6	0	0	0	0	130	749	1021	298	0	0	
7	0	0	0	0	306	899	1021	304	0	0	
8	0	0	0	0	524	1007	1021	321	0	0	
9	0	0	0	0	760	1021	1021	347	0	0	
10	0	0	0	0	984	1021	1021	381	0	0	
11	0	0	0	0	1021	965	1021	418	0	0	
12	0	0	0	0	1021	848	1021	455	0	0	
13	0	0	0	0	1021	686	1021	489	0	0	
14	0	0	0	0	1021	494	1021	515	0	0	
15	0	0	0	0	1011	286	1021	531	0	0	
0	0	0	0	0	905	83	1021	536	0	0	
1	0	0	0	0	751	0	1021	529	0	0	
2	0	0	0	0	566	0	1021	510	0	0	
3	0	0	0	0	364	0	1021	482	0	0	
4	0	0	0	0	162	0	1021	447	0	0	
5	0	0	0	0	0	0	1021	409	0	0	
6	0	0	0	0	0	62	1021	370	0	0	
7	0	0	0	0	0	195	1021	335	0	0	
8	0	0	0	0	0	364	1021	307	0	0	
9	0	0	0	0	9	548	1021	289	0	0	
10	0	0	0	0	119	727	1021	283	0	0	
11	0	0	0	0	290	879	1021	289	0	0	
12	0	0	0	0	505	989	1021	308	0	0	
13	0	0	0	0	739	1021	1021	337	0	0	
14	0	0	0	0	963	1021	1021	375	0	0	
15	0	0	0	0	1021	970	1021	416	0	0	
0	0	0	0	0	1021	859	1021	458	0	0	
1	0	0	0	0	1021	703	1021	496	0	0	
2	0	0	0	0	1021	515	1021	527	0	0	
3	0	0	0	0	1010	312	1021	547	0	0	
4	0	0	0	0	904	113	1021	554	0	0	
5	0	0	0	0	751	0	1021	548	0	0	
6	0	0	0	0	568	0	1021	529	0	0	
7	0	0	0	0	368	0	1021	501	0	0	
8	0	0	0	0	168	0	1021	465	0	0	
9	0	0	0	0	0	0	1021	425	0	0	
10	0	0	0	0	0	77	1021	386	0	0	
11	0	0	0	0	0	217	1021	350	0	0	
12	0	0	0	0	0	393	1021	320	0	0	
13	0	0	0	0	10	582	1021	300	0	0	
14	0	0	0	0	119	763	1021	292	0	0	
15	0	0	0	0	287	913	1021	295	0	0	
0	0	0	0	0	498	1019	1021	309	0	0	
1	0	0	0	0	728	1021	1021	334	0	0	
2	0	0	0	0	947	1021	1021	367	0	0	
3	0	0	0	0	1021	968	1021	404	0	0	
4	0	0	0	0	1021	852	1021	443	0	0	
5	0	0	0	0	1021	693	1021	479	0	0	
6	0	0	0	0	1021	503	1021	509	0	0	
7	0	0	0	0	1003	299	1021	529	0	0	
8	0	0	0	0	894	100	1021	538	0	0	
9	0	0	0	0	736	0	1021	536	0	0	
10	0	0	0	0	549	0	1021	520	0	0	
11	0	0	0	0	347	0	1021	495	0	0	
12	0	0	0	0	145	0	1021	462	0	0	
13	0	0	0	0	0	0	1021	426	0	0	
14	0	0	0	0	0	76	1021	390	0	0	
15	0	0	0	0	0	218	1021	355	0	0	
0	0	0	0	0	0	394	1021	328	0	0	
1	0	0	0	0	7	585	1021	311	0	0	
2	0	0	0	0	114	768	1021	304	0	0	
3	0	0	0	0	282	923	1021	309	0	0	
4	0	0	0	0	494	1021	1021	325	0	0	
5	0	0	0	0	725	1021	1021	351	0	0	
6	0	0	0	0	947	1021	1021	385	0	0	
7	0	0	0	0	1021	979	1021	423	0	0	
8	0	0	0	0	1021	869	1021	460	0	0	
9	0	0	0	0	1021	713	1021	495	0	0	
10	0	0	0	0	1021	526	1021	522	0	0	
11	0	0	0	0	1004	321	1021	539	0	0	
12	0	0	0	0	892	120	1021	544	0	0	
13	0	0	0	0	733	0	1021	536	0	0	
14	0	0	0	0	542	0	1021	517	0	0	
15	0	0	0	0	335	0	1021	488	0	0	
0	0	0	0	0	127	0	1021	452	0	0	
1	0	0	0	0	0	0	1020	413	0	0	
2	0	0	0	0	0	69	1021	375	0	0	
3	0	0	0	0	0	205	1021	340	0	0	
4	0	0	0	0	0	377	1021	312	0	0	
5	0	0	0	0	1	563	1021	294	0	0	
6	0	0	0	0	106	743	1021	287	0	0	
7	0	0	0	0	271	895	1021	293	0	0	
8	0	0	0	0	481	1003	1021	311	0	0	
9	0	0	0	0	711	1021	1021	338	0	0	
10	0	0	0	0	933	1021	1021	375	0	0	
11	0	0	0	0	1021	969	1021	415	0	0	
12	0	0	0	0	1021	856	1021	456	0	0	
13	0	0	0	0	1021	697	1021	493	0	0	
14	0	0	0	0	1021	507	1021	523	0	0	
15	0	0	0	0	1004	301	1021	542	0	0	
0	0	0	0	0	894	100	1021	548	0	0	
1	0	0	0	0	734	0	1021	542	0	0	
2	0	0	0	0	544	0	1021	523	0	0	
3	0	0	0	0	339	0	1021	494	0	0	
4	0	0	0	0	135	0	1021	459	0	0	
5	0	0	0	0	0	0	1021	419	0	0	
6	0	0	0	0	0	66	1021	380	0	0	
7	0	0	0	0	0	201	1021	344	0	0	
8	0	0	0	0	0	372	1021	316	0	0	
9	0	0	0	0	8	558	1021	298	0	0	
10	0	0	0	0	117	737	1021	291	0	0	
11	0	0	0	0	289	888	1021	297	0	0	
12	0	0	0	0	504	998	1021	316	0	0	
13	0	0	0	0	739	1021	1021	344	0	0	
14	0	0	0	0	963	1021	1021	380	0	0	
15	0	0	0	0	1021	969	1021	421	0	0	
0	0	0	0	0	1021	856	1021	462	0	0	
1	0	0	0	0	1021	697	1021	498	0	0	
2	0	0	0	0	1021	506	1021	527	0	0	
3	0	0	0	0	1008	300	1021	545	0	0	
4	0	0	0	0	900	97	1021	551	0	0	
5	0	0	0	0	742	0	1021	543	0	0	
6	0	0	0	0	553	0	1021	524	0	0	
7	0	0	0	0	346	0	1021	494	0	0	
8	0	0	0	0	139	0	1021	457	0	0	
9	0	0	0	0	0	0	1021	416	0	0	
10	0	0	0	0	0	67	1021	376	0	0	
11	0	0	0	0	0	205	1021	340	0	0	
12	0	0	0	0	0	379	1021	311	0	0	
13	0	0	0	0	0	569	1021	291	0	0	
14	0	0	0	0	89	753	1021	284	0	0	
15	0	0	0	0	246	909	1021	290	0	0	
0	0	0	0	0	448	1020	1021	307	0	0	
1	0	0	0	0	673	1021	1021	337	0	0	
2	0	0	0	0	892	1021	1021	375	0	0	
3	0	0	0	0	1021	986	1021	417	0	0	
4	0	0	0	0	1021	880	1021	459	0	0	
5	0	0	0	0	1021	730	1021	498	0	0	
6	0	0	0	0	1021	547	1021	530	0	0	
7	0	0	0	0	998	346	1021	551	0	0	
8	0	0	0	0	881	147	1021	558	0	0	
9	0	0	0	0	716	0	1021	553	0	0	
10	0	0	0	0	521	0	1021	535	0	0	
11	0	0	0	0	311	0	1021	505	0	0	
12	0	0	0	0	103	0	1021	469	0	0	
13	0	0	0	0	0	0	1021	428	0	0	
14	0	0	0	0	0	79	1021	386	0	0	
15	0	0	0	0	0	221	1021	348	0	0	
0	0	0	0	0	0	397	1021	316	0	0	
1	0	0	0	0	0	588	1021	294	0	0	
2	0	0	0	0	95	771	1021	283	0	0	
3	0	0	0	0	254	923	1021	285	0	0	
4	0	0	0	0	456	1020	1021	298	0	0	
5	0	0	0	0	680	1021	1021	323	0	0	
6	0	0	0	0	896	1021	1021	356	0	0	
7	0	0	0	0	1021	976	1021	395	0	0	
8	0	0	0	0	1021	864	1021	436	0	0	
9	0	0	0	0	1021	709	1021	474	0	0	
10	0	0	0	0	1021	522	1021	505	0	0	
11	0	0	0	0	991	319	1021	528	0	0	
12	0	0	0	0	871	121	1021	539	0	0	
13	0	0	0	0	703	0	1021	537	0	0	
14	0	0	0	0	508	0	1021	523	0	0	
15	0	0	0	0	298	0	1021	498	0	0	
0	0	0	0	0	93	0	1021	465	0	0	
1	0	0	0	0	0	0	1021	426	0	0	
2	0	0	0	0	0	79	1021	386	0	0	
3	0	0	0	0	0	220	1021	348	0	0	
4	0	0	0	0	0	395	1021	315	0	0	
5	0	0	0	0	0	584	1021	291	0	0	
6	0	0	0	0	102	765	1021	279	0	0	
7	0	0	0	0	263	915	1021	278	0	0	
8	0	0	0	0	467	1020	1021	288	0	0	
9	0	0	0	0	691	1021	1021	311	0	0	
10	0	0	0	0	907	1021	1021	342	0	0	
11	0	0	0	0	1021	970	1021	380	0	0	
12	0	0	0	0	1021	855	1021	419	0	0	
13	0	0	0	0	1021	695	1021	455	0	0	
14	0	0	0	0	1021	503	1021	486	0	0	
15	0	0	0	0	987	296	1021	507	0	0	
0	0	0	0	0	863	94	1021	517	0	0	
1	0	0	0	0	693	0	1021	515	0	0	
2	0	0	0	0	495	0	1021	501	0	0	
3	0	0	0	0	283	0	1021	476	0	0	
4	0	0	0	0	78	0	1021	444	0	0	
5	0	0	0	0	0	0	1020	408	0	0	
6	0	0	0	0	0	59	1021	371	0	0	
7	0	0	0	0	0	191	1021	337	0	0	
8	0	0	0	0	0	360	1021	310	0	0	
9	0	0	0	0	6	545	1021	292	0	0	
10	0	0	0	0	114	726	1021	286	0	0	
11	0	0	0	0	283	879	1021	291	0	0	
12	0	0	0	0	496	991	1021	307	0	0	
13	0	0	0	0	728	1021	1021	334	0	0	
14	0	0	0	0	951	1021	1021	368	0	0	
15	0	0	0	0	1021	972	1021	407	0	0	
0	0	0	0	0	1021	861	1021	446	0	0	
1	0	0	0	0	1021	704	1021	482	0	0	
2	0	0	0	0	1021	515	1021	511	0	0	
3	0	0	0	0	1006	311	1021	529	0	0	
4	0	0	0	0	896	110	1021	536	0	0	
5	0	0	0	0	738	0	1021	529	0	0	
6	0	0	0	0	551	0	1021	511	0	0	
7	0	0	0	0	346	0	1021	482	0	0	
8	0	0	0	0	142	0	1021	447	0	0	
9	0	0	0	0	0	0	1021	408	0	0	
10	0	0	0	0	0	73	1021	368	0	0	
11	0	0	0	0	0	214	1021	332	0	0	
12	0	0	0	0	0	390	1021	303	0	0	
13	0	0	0	0	0	582	1021	284	0	0	
14	0	0	0	0	102	768	1021	275	0	0	
15	0	0	0	0	264	924	1021	279	0	0	
0	0	0	0	0	468	1020	1021	295	0	0	
1	0	0	0	0	694	1021	1021	321	0	0	
2	0	0	0	0	912	1021	1021	356	0	0	
3	0	0	0	0	1021	985	1021	396	0	0	
4	0	0	0	0	1021	879	1021	437	0	0	
5	0	0	0	0	1021	726	1021	474	0	0	
6	0	0	0	0	1021	541	1021	505	0	0	
7	0	0	0	0	997	339	1021	525	0	0	
8	0	0	0	0	881	138	1021	533	0	0	
9	0	0	0	0	717	0	1021	527	0	0	
10	0	0	0	0	524	0	1021	510	0	0	
11	0	0	0	0	316	0	1021	481	0	0	
12	0	0	0	0	111	0	1021	445	0	0	
13	0	0	0	0	0	0	1021	405	0	0	
14	0	0	0	0	0	73	1021	365	0	0	
15	0	0	0	0	0	212	1021	327	0	0	
0	0	0	0	0	0	387	1021	295	0	0	
1	0	0	0	0	0	577	1021	274	0	0	
2	0	0	0	0	100	761	1021	264	0	0	
3	0	0	0	0	262	915	1021	267	0	0	
4	0	0	0	0	467	1020	1021	282	0	0	
5	0	0	0	0	694	1021	1021	309	0	0	
6	0	0	0	0	914	1021	1021	345	0	0	
7	0	0	0	0	1021	984	1021	386	0	0	
8	0	0	0	0	1021	878	1021	428	0	0	
9	0	0	0	0	1021	727	1021	467	0	0	
10	0	0	0	0	1021	543	1021	499	0	0	
11	0	0	0	0	1003	342	1021	521	0	0	
12	0	0	0	0	891	142	1021	529	0	0	
13	0	0	0	0	730	0	1021	524	0	0	
14	0	0	0	0	538	0	1021	506	0	0	
15	0	0	0	0	330	0	1021	476	0	0	
0	0	0	0	0	123	0	1021	438	0	0	
1	0	0	0	0	0	0	1021	394	0	0	
2	0	0	0	0	0	73	1021	348	0	0	
3	0	0	0	0	0	212	1021	305	0	0	
4	0	0	0	0	0	387	1021	268	0	0	
5	0	0	0	0	0	576	1021	240	0	0	
6	0	0	0	0	85	757	1021	222	0	0	
7	0	0	0	0	236	908	1021	216	0	0	
8	0	0	0	0	429	1012	1021	220	0	0	
9	0	0	0	0	641	1021	1021	235	0	0	
10	0	0	0	0	845	1021	1021	255	0	0	
11	0	0	0	0	1011	946	1021	281	0	0	
12	0	0	0	0	1021	812	1021	305	0	0	
13	0	0	0	0	1021	628	1021	325	0	0	
14	0	0	0	0	1021	411	1021	337	0	0	
15	0	0	0	0	917	177	1021	339	0	0	
0	0	0	0	0	746	0	1021	329	0	0	
1	0	0	0	0	526	0	1021	306	0	0	
2	0	0	0	0	280	0	1021	271	0	0	
3	0	0	0	0	29	0	1021	227	0	0	
4	0	0	0	0	0	0	1021	175	0	0	
5	0	0	0	0	0	0	1021	120	0	0	
6	0	0	0	0	0	0	1021	65	0	0	
7	0	0	0	0	0	5	1021	13	0	0	
8	0	0	0	0	0	82	1021	0	0	0	
9	0	0	0	0	0	189	1021	0	0	0	
10	0	0	0	0	37	307	1021	0	0	0	
11	0	0	0	0	167	419	1021	0	0	0	
12	0	0	0	0	343	509	1021	0	0	0	
13	0	0	0	0	547	563	1021	0	0	0	
14	0	0	0	0	749	574	1021	14	0	0	
15	0	0	0	0	922	536	1021	39	0	0	
0	0	0	0	0	1021	455	1021	72	0	0	
1	0	0	0	0	1021	338	1021	110	0	0	
2	0	0	0	0	1021	198	1021	148	0	0	
3	0	0	0	0	945	47	1021	184	0	0	
4	0	0	0	0	799	0	1021	215	0	0	
5	0	0	0	0	607	0	1021	239	0	0	
6	0	0	0	0	391	0	1021	255	0	0	
7	0	0	0	0	171	0	1021	264	0	0	
8	0	0	0	0	0	0	1021	265	0	0	
9	0	0	0	0	0	0	1021	262	0	0	
10	0	0	0	0	0	35	1021	255	0	0	
11	0	0	0	0	0	147	1021	249	0	0	
12	0	0	0	0	0	294	1021	247	0	0	
13	0	0	0	0	24	460	1021	250	0	0	
14	0	0	0	0	153	626	1021	261	0	0	
15	0	0	0	0	344	772	1021	280	0	0	
0	0	0	0	0	577	881	1021	307	0	0	
1	0	0	0	0	829	944	1021	340	0	0	
2	0	0	0	0	1020	954	1021	380	0	0	
3	0	0	0	0	1021	910	1021	422	0	0	
4	0	0	0	0	1021	812	1021	463	0	0	
5	0	0	0	0	1021	672	1021	500	0	0	
6	0	0	0	0	1021	502	1021	529	0	0	
7	0	0	0	0	1021	314	1021	546	0	0	
8	0	0	0	0	970	131	1021	551	0	0	
9	0	0	0	0	847	0	1021	543	0	0	
10	0	0	0	0	689	0	1021	522	0	0	
11	0	0	0	0	506	0	1021	490	0	0	
12	0	0	0	0	311	0	1021	451	0	0	
13	0	0	0	0	124	6	1021	408	0	0	
14	0	0	0	0	0	112	1021	365	0	0	
15	0	0	0	0	0	272	1021	325	0	0	
0	0	0	0	0	0	466	1021	293	0	0	
1	0	0	0	0	0	673	1021	270	0	0	
2	0	0	0	0	79	868	1021	260	0	0	
3	0	0	0	0	227	1020	1021	263	0	0	
4	0	0	0	0	420	1021	1021	279	0	0	
5	0	0	0	0	636	1021	1021	306	0	0	
6	0	0	0	0	848	1021	1021	343	0	0	
7	0	0	0	0	1020	1012	1021	384	0	0	
8	0	0	0	0	1021	923	1021	427	0	0	
9	0	0	0	0	1021	786	1021	467	0	0	
10	0	0	0	0	1021	614	1021	499	0	0	
11	0	0	0	0	983	421	1021	522	0	0	
12	0	0	0	0	858	224	1021	531	0	0	
13	0	0	0	0	686	42	1021	528	0	0	
14	0	0	0	0	486	0	1021	511	0	0	
15	0	0	0	0	273	0	1021	483	0	0	
0	0	0	0	0	65	0	1021	448	0	0	
1	0	0	0	0	0	0	1021	408	0	0	
2	0	0	0	0	0	90	1021	368	0	0	
3	0	0	0	0	0	239	1021	332	0	0	
4	0	0	0	0	0	423	1021	301	0	0	
5	0	0	0	0	0	623	1021	281	0	0	
6	0	0	0	0	101	813	1021	273	0	0	
7	0	0	0	0	265	972	1021	277	0	0	
8	0	0	0	0	472	1021	1021	294	0	0	
9	0	0	0	0	700	1021	1021	321	0	0	
10	0	0	0	0	920	1021	1021	357	0	0	
11	0	0	0	0	1021	1000	1021	398	0	0	
12	0	0	0	0	1021	901	1021	439	0	0	
13	0	0	0	0	1021	758	1021	476	0	0	
14	0	0	0	0	1021	579	1021	507	0	0	
15	0	0	0	0	1001	382	1021	527	0	0	
0	0	0	0	0	888	184	1021	536	0	0	
1	0	0	0	0	726	5	1021	531	0	0	
2	0	0	0	0	535	0	1021	514	0	0	
3	0	0	0	0	328	0	1021	486	0	0	
4	0	0	0	0	125	0	1021	450	0	0	
5	0	0	0	0	0	0	1021	410	0	0	
6	0	0	0	0	0	76	1021	368	0	0	
7	0	0	0	0	0	216	1021	330	0	0	
8	0	0	0	0	0	392	1021	298	0	0	
9	0	0	0	0	11	582	1021	276	0	0	
10	0	0	0	0	123	765	1021	265	0	0	
11	0	0	0	0	295	918	1021	266	0	0	
12	0	0	0	0	509	1021	1021	281	0	0	
13	0	0	0	0	742	1021	1021	306	0	0	
14	0	0	0	0	963	1021	1021	340	0	0	
15	0	0	0	0	1021	980	1021	380	0	0	
0	0	0	0	0	1021	871	1021	423	0	0	
1	0	0	0	0	1021	718	1021	462	0	0	
2	0	0	0	0	1021	532	1021	495	0	0	
3	0	0	0	0	1005	330	1021	519	0	0	
4	0	0	0	0	895	132	1021	531	0	0	
5	0	0	0	0	736	0	1021	530	0	0	
6	0	0	0	0	547	0	1021	516	0	0	
7	0	0	0	0	342	0	1021	491	0	0	
8	0	0	0	0	136	0	1021	458	0	0	
9	0	0	0	0	0	0	1021	420	0	0	
10	0	0	0	0	0	80	1021	381	0	0	
11	0	0	0	0	0	225	1021	344	0	0	
12	0	0	0	0	0	407	1021	312	0	0	
13	0	0	0	0	0	603	1021	290	0	0	
14	0	0	0	0	95	791	1021	278	0	0	
15	0	0	0	0	252	949	1021	277	0	0	
0	0	0	0	0	453	1021	1021	288	0	0	
1	0	0	0	0	674	1021	1021	310	0	0	
2	0	0	0	0	888	1021	1021	339	0	0	
3	0	0	0	0	1021	990	1021	374	0	0	
4	0	0	0	0	1021	886	1021	410	0	0	
5	0	0	0	0	1021	734	1021	443	0	0	
6	0	0	0	0	1021	547	1021	469	0	0	
7	0	0	0	0	980	343	1021	487	0	0	
8	0	0	0	0	850	140	1021	492	0	0	
9	0	0	0	0	673	0	1021	484	0	0	
10	0	0	0	0	467	0	1021	466	0	0	
11	0	0	0	0	249	0	1021	438	0	0	
12	0	0	0	0	39	0	1021	402	0	0	
13	0	0	0	0	0	0	1021	364	0	0	
14	0	0	0	0	0	58	1021	326	0	0	
15	0	0	0	0	0	191	1021	292	0	0	
0	0	0	0	0	0	361	1021	266	0	0	
1	0	0	0	0	0	550	1021	250	0	0	
2	0	0	0	0	100	735	1021	246	0	0	
3	0	0	0	0	263	892	1021	254	0	0	
4	0	0	0	0	469	1008	1021	273	0	0	
5	0	0	0	0	696	1021	1021	303	0	0	
6	0	0	0	0	914	1021	1021	340	0	0	
7	0	0	0	0	1021	984	1021	381	0	0	
8	0	0	0	0	1021	877	1021	422	0	0	
9	0	0	0	0	1021	723	1021	458	0	0	
10	0	0	0	0	1021	536	1021	487	0	0	
11	0	0	0	0	986	331	1021	505	0	0	
12	0	0	0	0	860	128	1021	511	0	0	
13	0	0	0	0	684	0	1021	504	0	0	
14	0	0	0	0	480	0	1021	484	0	0	
15	0	0	0	0	261	0	1021	453	0	0	
0	0	0	0	0	47	0	1021	415	0	0	
1	0	0	0	0	0	0	1021	372	0	0	
2	0	0	0	0	0	62	1021	329	0	0	
3	0	0	0	0	0	199	1021	289	0	0	
4	0	0	0	0	0	373	1021	255	0	0	
5	0	0	0	0	0	565	1021	232	0	0	
6	0	0	0	0	71	751	1021	221	0	0	
7	0	0	0	0	219	910	1021	223	0	0	
8	0	0	0	0	412	1021	1021	238	0	0	
9	0	0	0	0	627	1021	1021	263	0	0	
10	0	0	0	0	840	1021	1021	300	0	0	
11	0	0	0	0	1020	990	1021	341	0	0	
12	0	0	0	0	1021	888	1021	385	0	0	
13	0	0	0	0	1021	737	1021	426	0	0	
14	0	0	0	0	1021	553	1021	460	0	0	
15	0	0	0	0	980	349	1021	483	0	0	
0	0	0	0	0	851	146	1021	495	0	0	
1	0	0	0	0	673	0	1021	492	0	0	
2	0	0	0	0	467	0	1021	475	0	0	
3	0	0	0	0	248	0	1021	446	0	0	
4	0	0	0	0	36	0	1021	408	0	0	
5	0	0	0	0	0	0	1021	366	0	0	
6	0	0	0	0	0	57	1021	322	0	0	
7	0	0	0	0	0	190	1021	282	0	0	
8	0	0	0	0	0	362	1021	249	0	0	
9	0	0	0	0	0	551	1021	227	0	0	
10	0	0	0	0	88	738	1021	217	0	0	
11	0	0	0	0	245	898	1021	221	0	0	
12	0	0	0	0	447	1015	1021	238	0	0	
13	0	0	0	0	670	1021	1021	266	0	0	
14	0	0	0	0	886	1021	1021	303	0	0	
15	0	0	0	0	1021	990	1021	345	0	0	
0	0	0	0	0	1021	886	1021	389	0	0	
1	0	0	0	0	1021	735	1021	428	0	0	
2	0	0	0	0	1021	549	1021	460	0	0	
3	0	0	0	0	977	344	1021	481	0	0	
4	0	0	0	0	845	139	1021	488	0	0	
5	0	0	0	0	664	0	1021	482	0	0	
6	0	0	0	0	454	0	1021	462	0	0	
7	0	0	0	0	232	0	1021	430	0	0	
8	0	0	0	0	19	0	1021	390	0	0	
9	0	0	0	0	0	0	1021	345	0	0	
10	0	0	0	0	0	48	1021	300	0	0	
11	0	0	0	0	0	175	1021	257	0	0	
12	0	0	0	0	0	339	1021	222	0	0	
13	0	0	0	0	0	522	1021	197	0	0	
14	0	0	0	0	85	701	1021	183	0	0	
15	0	0	0	0	239	855	1021	182	0	0	
0	0	0	0	0	437	966	1021	195	0	0	
1	0	0	0	0	655	1021	1021	218	0	0	
2	0	0	0	0	867	1021	1021	252	0	0	
3	0	0	0	0	1021	964	1021	292	0	0	
4	0	0	0	0	1021	851	1021	335	0	0	
5	0	0	0	0	1021	692	1021	377	0	0	
6	0	0	0	0	1021	502	1021	413	0	0	
7	0	0	0	0	975	295	1021	440	0	0	
8	0	0	0	0	842	93	1021	455	0	0	
9	0	0	0	0	662	0	1021	458	0	0	
10	0	0	0	0	454	0	1021	446	0	0	
11	0	0	0	0	234	0	1021	422	0	0	
12	0	0	0	0	23	0	1021	388	0	0	
13	0	0	0	0	0	0	1021	348	0	0	
14	0	0	0	0	0	49	1021	305	0	0	
15	0	0	0	0	0	177	1021	264	0	0	
0	0	0	0	0	0	344	1021	228	0	0	
1	0	0	0	0	0	528	1021	202	0	0	
2	0	0	0	0	85	708	1021	186	0	0	
3	0	0	0	0	238	862	1021	183	0	0	
4	0	0	0	0	434	975	1021	192	0	0	
5	0	0	0	0	649	1021	1021	212	0	0	
6	0	0	0	0	857	1021	1021	242	0	0	
7	0	0	0	0	1020	967	1021	278	0	0	
8	0	0	0	0	1021	853	1021	317	0	0	
9	0	0	0	0	1021	691	1021	355	0	0	
10	0	0	0	0	1021	499	1021	388	0	0	
11	0	0	0	0	953	289	1021	413	0	0	
12	0	0	0	0	807	83	1021	426	0	0	
13	0	0	0	0	612	0	1021	426	0	0	
14	0	0	0	0	392	0	1021	413	0	0	
15	0	0	0	0	163	0	1021	387	0	0	
0	0	0	0	0	0	0	1021	353	0	0	
1	0	0	0	0	0	0	1021	312	0	0	
2	0	0	0	0	0	37	1021	271	0	0	
3	0	0	0	0	0	159	1021	231	0	0	
4	0	0	0	0	0	321	1021	198	0	0	
5	0	0	0	0	0	503	1021	174	0	0	
6	0	0	0	0	67	684	1021	163	0	0	
7	0	0	0	0	213	841	1021	163	0	0	
8	0	0	0	0	403	958	1021	178	0	0	
9	0	0	0	0	616	1021	1021	204	0	0	
10	0	0	0	0	825	1021	1021	239	0	0	
11	0	0	0	0	1001	975	1021	279	0	0	
12	0	0	0	0	1021	867	1021	322	0	0	
13	0	0	0	0	1021	713	1021	362	0	0	
14	0	0	0	0	1021	526	1021	398	0	0	
15	0	0	0	0	962	320	1021	424	0	0	
0	0	0	0	0	822	118	1021	439	0	0	
1	0	0	0	0	635	0	1021	441	0	0	
2	0	0	0	0	421	0	1021	431	0	0	
3	0	0	0	0	196	0	1021	408	0	0	
4	0	0	0	0	0	0	1021	377	0	0	
5	0	0	0	0	0	0	1021	339	0	0	
6	0	0	0	0	0	62	1021	301	0	0	
7	0	0	0	0	0	199	1021	264	0	0	
8	0	0	0	0	0	375	1021	234	0	0	
9	0	0	0	0	0	568	1021	212	0	0	
10	0	0	0	0	73	757	1021	203	0	0	
11	0	0	0	0	222	918	1021	205	0	0	
12	0	0	0	0	416	1020	1021	221	0	0	
13	0	0	0	0	633	1021	1021	248	0	0	
14	0	0	0	0	846	1021	1021	284	0	0	
15	0	0	0	0	1020	996	1021	326	0	0	
0	0	0	0	0	1021	898	1021	371	0	0	
1	0	0	0	0	1021	751	1021	413	0	0	
2	0	0	0	0	1021	571	1021	449	0	0	
3	0	0	0	0	982	371	1021	476	0	0	
4	0	0	0	0	855	172	1021	492	0	0	
5	0	0	0	0	680	0	1021	493	0	0	
6	0	0	0	0	477	0	1021	481	0	0	
7	0	0	0	0	261	0	1021	458	0	0	
8	0	0	0	0	51	0	1021	425	0	0	
9	0	0	0	0	0	0	1021	387	0	0	
10	0	0	0	0	0	86	1021	347	0	0	
11	0	0	0	0	0	236	1021	311	0	0	
12	0	0	0	0	0	424	1021	279	0	0	
13	0	0	0	0	0	627	1021	258	0	0	
14	0	0	0	0	80	823	1021	248	0	0	
15	0	0	0	0	232	988	1021	251	0	0	
0	0	0	0	0	428	1021	1021	266	0	0	
1	0	0	0	0	646	1021	1021	292	0	0	
2	0	0	0	0	858	1021	1021	329	0	0	
3	0	0	0	0	1021	1013	1021	371	0	0	
4	0	0	0	0	1021	926	1021	416	0	0	
5	0	0	0	0	1021	792	1021	459	0	0	
6	0	0	0	0	1021	623	1021	495	0	0	
7	0	0	0	0	982	433	1021	522	0	0	
8	0	0	0	0	857	239	1021	537	0	0	
9	0	0	0	0	684	62	1021	539	0	0	
10	0	0	0	0	483	0	1021	528	0	0	
11	0	0	0	0	270	0	1021	505	0	0	
12	0	0	0	0	62	0	1021	473	0	0	
13	0	0	0	0	0	7	1021	436	0	0	
14	0	0	0	0	0	115	1021	397	0	0	
15	0	0	0	0	0	280	1021	360	0	0	
0	0	0	0	0	0	479	1021	329	0	0	
1	0	0	0	0	0	692	1021	307	0	0	
2	0	0	0	0	81	895	1021	297	0	0	
3	0	0	0	0	233	1021	1021	299	0	0	
4	0	0	0	0	429	1021	1021	314	0	0	
5	0	0	0	0	648	1021	1021	340	0	0	
6	0	0	0	0	864	1021	1021	376	0	0	
7	0	0	0	0	1020	1021	1021	416	0	0	
8	0	0	0	0	1021	961	1021	459	0	0	
9	0	0	0	0	1021	843	1021	498	0	0	
10	0	0	0	0	1021	687	1021	531	0	0	
11	0	0	0	0	990	507	1021	554	0	0	
12	0	0	0	0	869	318	1021	564	0	0	
13	0	0	0	0	700	139	1021	562	0	0	
14	0	0	0	0	502	0	1021	547	0	0	
15	0	0	0	0	290	0	1021	520	0	0	
0	0	0	0	0	83	0	1021	487	0	0	
1	0	0	0	0	0	12	1021	448	0	0	
2	0	0	0	0	0	121	1021	409	0	0	
3	0	0	0	0	0	286	1021	373	0	0	
4	0	0	0	0	0	487	1021	343	0	0	
5	0	0	0	0	0	700	1021	322	0	0	
6	0	0	0	0	83	901	1021	312	0	0	
7	0	0	0	0	234	1021	1021	315	0	0	
8	0	0	0	0	430	1021	1021	329	0	0	
9	0	0	0	0	648	1021	1021	356	0	0	
10	0	0	0	0	862	1021	1021	391	0	0	
11	0	0	0	0	1021	1021	1021	431	0	0	
12	0	0	0	0	1021	954	1021	473	0	0	
13	0	0	0	0	1021	831	1021	512	0	0	
14	0	0	0	0	1021	673	1021	545	0	0	
15	0	0	0	0	986	492	1021	568	0	0	
0	0	0	0	0	863	303	1021	579	0	0	
1	0	0	0	0	694	127	1021	577	0	0	
2	0	0	0	0	496	0	1021	563	0	0	
3	0	0	0	0	287	0	1021	538	0	0	
4	0	0	0	0	82	0	1021	504	0	0	
5	0	0	0	0	0	18	1021	466	0	0	
6	0	0	0	0	0	134	1021	427	0	0	
7	0	0	0	0	0	305	1021	389	0	0	
8	0	0	0	0	0	511	1021	358	0	0	
9	0	0	0	0	0	729	1021	336	0	0	
10	0	0	0	0	84	933	1021	325	0	0	
11	0	0	0	0	235	1021	1021	326	0	0	
12	0	0	0	0	428	1021	1021	338	0	0	
13	0	0	0	0	643	1021	1021	361	0	0	
14	0	0	0	0	851	1021	1021	393	0	0	
15	0	0	0	0	1020	1021	1021	430	0	0	
0	0	0	0	0	1021	958	1021	468	0	0	
1	0	0	0	0	1021	838	1021	504	0	0	
2	0	0	0	0	1021	678	1021	533	0	0	
3	0	0	0	0	972	494	1021	553	0	0	
4	0	0	0	0	840	302	1021	562	0	0	
5	0	0	0	0	661	121	1021	558	0	0	
6	0	0	0	0	455	0	1021	543	0	0	
7	0	0	0	0	239	0	1021	517	0	0	
8	0	0	0	0	31	0	1021	484	0	0	
9	0	0	0	0	0	6	1021	448	0	0	
10	0	0	0	0	0	110	1021	411	0	0	
11	0	0	0	0	0	271	1021	377	0	0	
12	0	0	0	0	0	468	1021	349	0	0	
13	0	0	0	0	0	678	1021	331	0	0	
14	0	0	0	0	81	879	1021	325	0	0	
15	0	0	0	0	232	1021	1021	330	0	0	
0	0	0	0	0	427	1021	1021	348	0	0	
1	0	0	0	0	643	1021	1021	376	0	0	
2	0	0	0	0	854	1021	1021	413	0	0	
3	0	0	0	0	1021	1021	1021	454	0	0	
4	0	0	0	0	1021	954	1021	496	0	0	
5	0	0	0	0	1021	833	1021	535	0	0	
6	0	0	0	0	1021	674	1021	567	0	0	
7	0	0	0	0	976	493	1021	588	0	0	
8	0	0	0	0	847	304	1021	598	0	0	
9	0	0	0	0	670	127	1021	595	0	0	
10	0	0	0	0	467	0	1021	579	0	0	
11	0	0	0	0	253	0	1021	552	0	0	
12	0	0	0	0	46	0	1021	518	0	0	
13	0	0	0	0	0	12	1021	478	0	0	
14	0	0	0	0	0	120	1021	438	0	0	
15	0	0	0	0	0	284	1021	399	0	0	
0	0	0	0	0	0	482	1021	368	0	0	
1	0	0	0	0	0	693	1021	346	0	0	
2	0	0	0	0	87	892	1021	334	0	0	
3	0	0	0	0	239	1021	1021	335	0	0	
4	0	0	0	0	434	1021	1021	347	0	0	
5	0	0	0	0	649	1021	1021	370	0	0	
6	0	0	0	0	858	1021	1021	402	0	0	
7	0	0	0	0	1020	1020	1021	439	0	0	
8	0	0	0	0	1021	937	1021	477	0	0	
9	0	0	0	0	1021	806	1021	513	0	0	
10	0	0	0	0	1021	639	1021	542	0	0	
11	0	0	0	0	962	449	1021	562	0	0	
12	0	0	0	0	822	255	1021	571	0	0	
13	0	0	0	0	636	75	1021	567	0	0	
14	0	0	0	0	425	0	1021	551	0	0	
15	0	0	0	0	206	0	1021	526	0	0	
0	0	0	0	0	0	0	1021	493	0	0	
1	0	0	0	0	0	0	1021	457	0	0	
2	0	0	0	0	0	99	1021	419	0	0	
3	0	0	0	0	0	254	1021	384	0	0	
4	0	0	0	0	0	444	1021	356	0	0	
5	0	0	0	0	0	648	1021	336	0	0	
6	0	0	0	0	89	843	1021	327	0	0	
7	0	0	0	0	244	1005	1021	329	0	0	
8	0	0	0	0	442	1021	1021	343	0	0	
9	0	0	0	0	659	1021	1021	366	0	0	
10	0	0	0	0	870	1021	1021	398	0	0	
11	0	0	0	0	1021	1008	1021	434	0	0	
12	0	0	0	0	1021	916	1021	471	0	0	
13	0	0	0	0	1021	775	1021	504	0	0	
14	0	0	0	0	1021	600	1021	532	0	0	
15	0	0	0	0	968	404	1021	551	0	0	
0	0	0	0	0	831	205	1021	557	0	0	
1	0	0	0	0	648	23	1021	553	0	0	
2	0	0	0	0	440	0	1021	537	0	0	
3	0	0	0	0	222	0	1021	512	0	0	
4	0	0	0	0	16	0	1021	480	0	0	
5	0	0	0	0	0	0	1020	444	0	0	
6	0	0	0	0	0	75	1021	408	0	0	
7	0	0	0	0	0	216	1021	376	0	0	
8	0	0	0	0	0	394	1021	349	0	0	
9	0	0	0	0	7	588	1021	332	0	0	
10	0	0	0	0	116	775	1021	325	0	0	
11	0	0	0	0	284	934	1021	330	0	0	
12	0	0	0	0	494	1021	1021	346	0	0	
13	0	0	0	0	720	1021	1021	372	0	0	
14	0	0	0	0	935	1021	1021	406	0	0	
15	0	0	0	0	1021	993	1021	444	0	0	
0	0	0	0	0	1021	891	1021	482	0	0	
1	0	0	0	0	1021	742	1021	517	0	0	
2	0	0	0	0	1021	561	1021	545	0	0	
3	0	0	0	0	980	360	1021	563	0	0	
4	0	0	0	0	850	160	1021	570	0	0	
5	0	0	0	0	672	0	1021	564	0	0	
6	0	0	0	0	466	0	1021	546	0	0	
7	0	0	0	0	248	0	1021	517	0	0	
8	0	0	0	0	38	0	1021	481	0	0	
9	0	0	0	0	0	0	1021	440	0	0	
10	0	0	0	0	0	59	1021	399	0	0	
11	0	0	0	0	0	191	1021	362	0	0	
12	0	0	0	0	0	362	1021	332	0	0	
13	0	0	0	0	1	551	1021	312	0	0	
14	0	0	0	0	107	736	1021	303	0	0	
15	0	0	0	0	274	896	1021	307	0	0	
0	0	0	0	0	484	1013	1021	324	0	0	
1	0	0	0	0	714	1021	1021	352	0	0	
2	0	0	0	0	935	1021	1021	389	0	0	
3	0	0	0	0	1021	992	1021	430	0	0	
4	0	0	0	0	1021	891	1021	472	0	0	
5	0	0	0	0	1021	743	1021	509	0	0	
6	0	0	0	0	1021	561	1021	540	0	0	
7	0	0	0	0	993	360	1021	561	0	0	
8	0	0	0	0	872	159	1021	569	0	0	
9	0	0	0	0	702	0	1021	564	0	0	
10	0	0	0	0	502	0	1021	548	0	0	
11	0	0	0	0	289	0	1021	521	0	0	
12	0	0	0	0	81	0	1021	487	0	0	
13	0	0	0	0	0	0	1021	449	0	0	
14	0	0	0	0	0	68	1021	411	0	0	
15	0	0	0	0	0	208	1021	376	0	0	
0	0	0	0	0	0	386	1021	347	0	0	
1	0	0	0	0	0	581	1021	327	0	0	
2	0	0	0	0	100	770	1021	317	0	0	
3	0	0	0	0	261	930	1021	319	0	0	
4	0	0	0	0	464	1021	1021	333	0	0	
5	0	0	0	0	688	1021	1021	358	0	0	
6	0	0	0	0	904	1021	1021	391	0	0	
7	0	0	0	0	1021	997	1021	430	0	0	
8	0	0	0	0	1021	897	1021	470	0	0	
9	0	0	0	0	1021	751	1021	507	0	0	
10	0	0	0	0	1021	570	1021	538	0	0	
11	0	0	0	0	984	369	1021	559	0	0	
12	0	0	0	0	857	168	1021	568	0	0	
13	0	0	0	0	682	0	1021	564	0	0	
14	0	0	0	0	477	0	1021	547	0	0	
15	0	0	0	0	261	0	1021	520	0	0	
0	0	0	0	0	51	0	1021	484	0	0	
1	0	0	0	0	0	0	1021	445	0	0	
2	0	0	0	0	0	57	1021	405	0	0	
3	0	0	0	0	0	189	1020	368	0	0	
4	0	0	0	0	0	360	1021	338	0	0	
5	0	0	0	0	2	550	1021	318	0	0	
6	0	0	0	0	107	735	1021	310	0	0	
7	0	0	0	0	272	895	1021	313	0	0	
8	0	0	0	0	480	1012	1021	329	0	0	
9	0	0	0	0	708	1021	1021	356	0	0	
10	0	0	0	0	926	1021	1021	391	0	0	
11	0	0	0	0	1021	989	1021	431	0	0	
12	0	0	0	0	1021	885	1021	470	0	0	
13	0	0	0	0	1021	734	1021	507	0	0	
14	0	0	0	0	1021	549	1021	537	0	0	
15	0	0	0	0	988	345	1021	557	0	0	
0	0	0	0	0	864	143	1021	564	0	0	
1	0	0	0	0	692	0	1021	560	0	0	
2	0	0	0	0	492	0	1021	543	0	0	
3	0	0	0	0	281	0	1021	516	0	0	
4	0	0	0	0	77	0	1021	482	0	0	
5	0	0	0	0	0	0	1021	444	0	0	
6	0	0	0	0	0	59	1021	405	0	0	
7	0	0	0	0	0	193	1021	368	0	0	
8	0	0	0	0	0	366	1021	339	0	0	
9	0	0	0	0	12	556	1021	318	0	0	
10	0	0	0	0	124	742	1021	309	0	0	
11	0	0	0	0	296	901	1021	311	0	0	
12	0	0	0	0	509	1019	1021	326	0	0	
13	0	0	0	0	740	1021	1021	351	0	0	
14	0	0	0	0	959	1021	1021	385	0	0	
15	0	0	0	0	1021	991	1021	424	0	0	
0	0	0	0	0	1021	889	1021	464	0	0	
1	0	0	0	0	1021	741	1021	502	0	0	
2	0	0	0	0	1021	559	1021	533	0	0	
3	0	0	0	0	995	358	1021	555	0	0	
4	0	0	0	0	878	158	1021	564	0	0	
5	0	0	0	0	713	0	1021	562	0	0	
6	0	0	0	0	520	0	1021	547	0	0	
7	0	0	0	0	313	0	1021	521	0	0	
8	0	0	0	0	110	0	1021	487	0	0	
9	0	0	0	0	0	0	1021	448	0	0	
10	0	0	0	0	0	71	1021	408	0	0	
11	0	0	0	0	0	212	1021	370	0	0	
12	0	0	0	0	0	392	1021	338	0	0	
13	0	0	0	0	9	589	1021	316	0	0	
14	0	0	0	0	119	781	1021	304	0	0	
15	0	0	0	0	288	944	1021	305	0	0	
0	0	0	0	0	502	1021	1021	320	0	0	
1	0	0	0	0	733	1021	1021	345	0	0	
2	0	0	0	0	955	1021	1021	380	0	0	
3	0	0	0	0	1021	1006	1021	419	0	0	
4	0	0	0	0	1021	914	1021	461	0	0	
5	0	0	0	0	1021	772	1021	499	0	0	
6	0	0	0	0	1021	596	1021	530	0	0	
7	0	0	0	0	1001	400	1021	551	0	0	
8	0	0	0	0	887	200	1021	561	0	0	
9	0	0	0	0	724	17	1021	559	0	0	
10	0	0	0	0	533	0	1021	544	0	0	
11	0	0	0	0	328	0	1021	519	0	0	
12	0	0	0	0	127	0	1021	485	0	0	
13	0	0	0	0	0	0	1021	447	0	0	
14	0	0	0	0	0	72	1021	408	0	0	
15	0	0	0	0	0	213	1021	371	0	0	
0	0	0	0	0	0	391	1021	339	0	0	
1	0	0	0	0	14	586	1021	316	0	0	
2	0	0	0	0	126	774	1021	303	0	0	
3	0	0	0	0	298	933	1021	303	0	0	
4	0	0	0	0	512	1021	1021	315	0	0	
5	0	0	0	0	743	1021	1021	337	0	0	
6	0	0	0	0	962	1021	1021	369	0	0	
7	0	0	0	0	1021	996	1021	408	0	0	
8	0	0	0	0	1021	896	1021	448	0	0	
9	0	0	0	0	1021	749	1021	486	0	0	
10	0	0	0	0	1021	569	1021	519	0	0	
11	0	0	0	0	1001	370	1021	542	0	0	
12	0	0	0	0	888	171	1021	554	0	0	
13	0	0	0	0	727	0	1021	553	0	0	
14	0	0	0	0	536	0	1021	540	0	0	
15	0	0	0	0	332	0	1021	516	0	0	
0	0	0	0	0	130	0	1021	483	0	0	
1	0	0	0	0	0	0	1021	446	0	0	
2	0	0	0	0	0	75	1021	408	0	0	
3	0	0	0	0	0	218	1021	371	0	0	
4	0	0	0	0	0	399	1021	341	0	0	
5	0	0	0	0	9	596	1021	319	0	0	
6	0	0	0	0	119	788	1021	309	0	0	
7	0	0	0	0	288	951	1021	310	0	0	
8	0	0	0	0	500	1021	1021	323	0	0	
9	0	0	0	0	730	1021	1021	347	0	0	
10	0	0	0	0	949	1021	1021	380	0	0	
11	0	0	0	0	1021	1006	1021	416	0	0	
12	0	0	0	0	1021	912	1021	455	0	0	
13	0	0	0	0	1021	770	1021	491	0	0	
14	0	0	0	0	1021	593	1021	519	0	0	
15	0	0	0	0	998	396	1021	539	0	0	
0	0	0	0	0	883	197	1021	547	0	0	
1	0	0	0	0	719	14	1021	543	0	0	
2	0	0	0	0	527	0	1021	527	0	0	
3	0	0	0	0	322	0	1021	500	0	0	
4	0	0	0	0	123	0	1021	467	0	0	
5	0	0	0	0	0	0	1021	430	0	0	
6	0	0	0	0	0	71	1021	392	0	0	
7	0	0	0	0	0	211	1021	357	0	0	
8	0	0	0	0	0	389	1021	328	0	0	
9	0	0	0	0	17	584	1021	309	0	0	
10	0	0	0	0	134	774	1021	301	0	0	
11	0	0	0	0	310	936	1021	305	0	0	
12	0	0	0	0	528	1021	1021	321	0	0	
13	0	0	0	0	764	1021	1021	348	0	0	
14	0	0	0	0	988	1021	1021	384	0	0	
15	0	0	0	0	1021	1003	1021	425	0	0	
0	0	0	0	0	1021	908	1021	466	0	0	
1	0	0	0	0	1021	766	1021	504	0	0	
2	0	0	0	0	1021	588	1021	535	0	0	
3	0	0	0	0	1012	390	1021	554	0	0	
4	0	0	0	0	907	189	1021	561	0	0	
5	0	0	0	0	752	4	1021	554	0	0	
6	0	0	0	0	565	0	1021	534	0	0	
7	0	0	0	0	363	0	1021	502	0	0	
8	0	0	0	0	161	0	1021	463	0	0	
9	0	0	0	0	0	0	1021	419	0	0	
10	0	0	0	0	0	60	1021	376	0	0	
11	0	0	0	0	0	196	1021	337	0	0	
12	0	0	0	0	0	371	1021	305	0	0	
13	0	0	0	0	11	566	1021	284	0	0	
14	0	0	0	0	123	756	1021	275	0	0	
15	0	0	0	0	295	920	1021	280	0	0	
0	0	0	0	0	510	1021	1021	296	0	0	
1	0	0	0	0	743	1021	1021	324	0	0	
2	0	0	0	0	966	1021	1021	361	0	0	
3	0	0	0	0	1021	1001	1021	402	0	0	
4	0	0	0	0	1021	905	1021	444	0	0	
5	0	0	0	0	1021	760	1021	482	0	0	
6	0	0	0	0	1021	580	1021	513	0	0	
7	0	0	0	0	1006	380	1021	534	0	0	
8	0	0	0	0	896	178	1021	542	0	0	
9	0	0	0	0	737	0	1021	538	0	0	
10	0	0	0	0	549	0	1021	520	0	0	
11	0	0	0	0	348	0	1021	492	0	0	
12	0	0	0	0	150	0	1021	456	0	0	
13	0	0	0	0	0	0	1021	415	0	0	
14	0	0	0	0	0	59	1021	374	0	0	
15	0	0	0	0	0	195	1021	335	0	0	
0	0	0	0	0	0	368	1021	303	0	0	
1	0	0	0	0	19	559	1021	281	0	0	
2	0	0	0	0	135	747	1021	270	0	0	
3	0	0	0	0	312	907	1021	271	0	0	
4	0	0	0	0	528	1020	1021	285	0	0	
5	0	0	0	0	762	1021	1021	310	0	0	
6	0	0	0	0	983	1021	1021	344	0	0	
7	0	0	0	0	1021	993	1021	383	0	0	
8	0	0	0	0	1021	892	1021	423	0	0	
9	0	0	0	0	1021	745	1021	461	0	0	
10	0	0	0	0	1021	563	1021	492	0	0	
11	0	0	0	0	1005	361	1021	514	0	0	
12	0	0	0	0	895	159	1021	524	0	0	
13	0	0	0	0	736	0	1021	520	0	0	
14	0	0	0	0	548	0	1021	504	0	0	
15	0	0	0	0	344	0	1021	478	0	0	
0	0	0	0	0	139	0	1021	444	0	0	
1	0	0	0	0	0	0	1021	405	0	0	
2	0	0	0	0	0	81	1021	365	0	0	
3	0	0	0	0	0	234	1021	328	0	0	
4	0	0	0	0	0	427	1021	299	0	0	
5	0	0	0	0	0	638	1021	278	0	0	
6	0	0	0	0	72	842	1021	269	0	0	
7	0	0	0	0	218	1016	1021	271	0	0	
8	0	0	0	0	407	1021	1021	287	0	0	
9	0	0	0	0	619	1021	1021	313	0	0	
10	0	0	0	0	828	1021	1021	348	0	0	
11	0	0	0	0	1004	1021	1021	388	0	0	
12	0	0	0	0	1021	953	1021	430	0	0	
13	0	0	0	0	1021	827	1021	468	0	0	
14	0	0	0	0	1021	663	1021	499	0	0	
15	0	0	0	0	976	474	1021	521	0	0	
0	0	0	0	0	847	277	1021	531	0	0	
1	0	0	0	0	672	91	1021	529	0	0	
2	0	0	0	0	471	0	1021	515	0	0	
3	0	0	0	0	260	0	1021	490	0	0	
4	0	0	0	0	59	0	1021	457	0	0	
5	0	0	0	0	0	0	1021	420	0	0	
6	0	0	0	0	0	78	1021	382	0	0	
7	0	0	0	0	0	223	1021	345	0	0	
8	0	0	0	0	0	407	1021	315	0	0	
9	0	0	0	0	9	606	1021	294	0	0	
10	0	0	0	0	118	799	1021	283	0	0	
11	0	0	0	0	285	963	1021	284	0	0	
12	0	0	0	0	493	1021	1021	297	0	0	
13	0	0	0	0	719	1021	1021	320	0	0	
14	0	0	0	0	934	1021	1021	353	0	0	
15	0	0	0	0	1021	1008	1021	392	0	0	
0	0	0	0	0	1021	916	1021	433	0	0	
1	0	0	0	0	1021	778	1021	473	0	0	
2	0	0	0	0	1021	604	1021	506	0	0	
3	0	0	0	0	986	410	1021	531	0	0	
4	0	0	0	0	861	211	1021	543	0	0	
5	0	0	0	0	688	29	1021	542	0	0	
6	0	0	0	0	487	0	1021	529	0	0	
7	0	0	0	0	275	0	1021	504	0	0	
8	0	0	0	0	69	0	1021	470	0	0	
9	0	0	0	0	0	0	1021	431	0	0	
10	0	0	0	0	0	71	1021	391	0	0	
11	0	0	0	0	0	211	1021	352	0	0	
12	0	0	0	0	0	389	1021	319	0	0	
13	0	0	0	0	3	583	1021	295	0	0	
14	0	0	0	0	106	772	1021	282	0	0	
15	0	0	0	0	269	933	1021	281	0	0	
0	0	0	0	0	473	1021	1021	292	0	0	
1	0	0	0	0	696	1021	1021	314	0	0	
2	0	0	0	0	909	1021	1021	346	0	0	
3	0	0	0	0	1021	995	1021	383	0	0	
4	0	0	0	0	1021	893	1021	422	0	0	
5	0	0	0	0	1021	743	1021	459	0	0	
6	0	0	0	0	1021	559	1021	489	0	0	
7	0	0	0	0	972	354	1021	510	0	0	
8	0	0	0	0	836	150	1021	519	0	0	
9	0	0	0	0	652	0	1021	517	0	0	
10	0	0	0	0	441	0	1021	502	0	0	
11	0	0	0	0	220	0	1021	476	0	0	
12	0	0	0	0	11	0	1021	443	0	0	
13	0	0	0	0	0	0	1021	406	0	0	
14	0	0	0	0	0	45	1021	368	0	0	
15	0	0	0	0	0	172	1021	332	0	0	
0	0	0	0	0	0	339	1021	303	0	0	
1	0	0	0	0	0	525	1021	282	0	0	
2	0	0	0	0	102	710	1021	273	0	0	
3	0	0	0	0	265	870	1021	275	0	0	
4	0	0	0	0	472	990	1021	289	0	0	
5	0	0	0	0	698	1021	1021	313	0	0	
6	0	0	0	0	916	1021	1021	347	0	0	
7	0	0	0	0	1021	992	1021	386	0	0	
8	0	0	0	0	1021	892	1021	426	0	0	
9	0	0	0	0	1021	745	1021	465	0	0	
10	0	0	0	0	1021	564	1021	497	0	0	
11	0	0	0	0	995	363	1021	521	0	0	
12	0	0	0	0	876	162	1021	532	0	0	
13	0	0	0	0	709	0	1021	530	0	0	
14	0	0	0	0	512	0	1021	515	0	0	
15	0	0	0	0	302	0	1021	489	0	0	
0	0	0	0	0	97	0	1021	455	0	0	
1	0	0	0	0	0	0	1021	415	0	0	
2	0	0	0	0	0	50	1021	374	0	0	
3	0	0	0	0	0	179	1021	335	0	0	
4	0	0	0	0	0	347	1021	302	0	0	
5	0	0	0	0	9	534	1021	279	0	0	
6	0	0	0	0	119	718	1021	267	0	0	
7	0	0	0	0	289	876	1021	267	0	0	
8	0	0	0	0	502	995	1021	279	0	0	
9	0	0	0	0	734	1021	1021	302	0	0	
10	0	0	0	0	954	1021	1021	335	0	0	
11	0	0	0	0	1021	989	1021	375	0	0	
12	0	0	0	0	1021	886	1021	416	0	0	
13	0	0	0	0	1021	737	1021	455	0	0	
14	0	0	0	0	1021	554	1021	488	0	0	
15	0	0	0	0	1001	351	1021	511	0	0	
0	0	0	0	0	885	147	1021	522	0	0	
1	0	0	0	0	719	0	1021	520	0	0	
2	0	0	0	0	524	0	1021	504	0	0	
3	0	0	0	0	313	0	1021	478	0	0	
4	0	0	0	0	107	0	1021	441	0	0	
5	0	0	0	0	0	0	1021	400	0	0	
6	0	0	0	0	0	46	1021	357	0	0	
7	0	0	0	0	0	174	1021	316	0	0	
8	0	0	0	0	0	343	1021	281	0	0	
9	0	0	0	0	0	532	1021	256	0	0	
10	0	0	0	0	103	720	1021	243	0	0	
11	0	0	0	0	265	884	1021	243	0	0	
12	0	0	0	0	471	1007	1021	257	0	0	
13	0	0	0	0	696	1021	1021	282	0	0	
14	0	0	0	0	913	1021	1021	317	0	0	
15	0	0	0	0	1021	1000	1021	358	0	0	
0	0	0	0	0	1021	904	1021	401	0	0	
1	0	0	0	0	1021	759	1021	443	0	0	
2	0	0	0	0	1021	579	1021	478	0	0	
3	0	0	0	0	984	377	1021	504	0	0	
4	0	0	0	0	856	173	1021	517	0	0	
5	0	0	0	0	680	0	1021	517	0	0	
6	0	0	0	0	476	0	1021	504	0	0	
7	0	0	0	0	259	0	1021	479	0	0	
