# OpenSignals Text File Format. Version 1
# {"": {"position": 0, "device": "", "device name": "", "device connection": "", "sampling rate": 1000, "resolution": [4, 1, 1, 1, 1, 10, 10, 10, 10, 6, 6], "firmware version": 1281, "comments": "", "keywords": "", "mode": 0, "sync interval": 2, "date": "", "time": "", "channels": [1, 2, 3, 4, 5, 6], "sensor": ["RAW", "RAW", "RAW", "RAW", "RAW", "RAW"], "label": ["A1", "A2", "A3", "A4", "A5", "A6"], "column": ["nSeq", "I1", "I2", "O1", "O2", "A1", "A2", "A3", "A4", "A5", "A6"], "special": [{}, {}, {}, {}, {}, {}], "digital IO": [0, 0, 1, 1]}}
# EndOfHeader
0	0	0	0	0	507	425	476	282	0	0	
1	0	0	0	0	467	419	487	402	0	0	
2	0	0	0	0	431	414	498	534	0	0	
3	0	0	0	0	402	411	508	665	0	0	
4	0	0	0	0	385	411	515	783	0	0	
5	0	0	0	0	380	414	520	879	0	0	
6	0	0	0	0	391	419	523	942	0	0	
7	0	0	0	0	414	428	523	967	0	0	
8	0	0	0	0	448	438	520	952	0	0	
9	0	0	0	0	490	448	515	894	0	0	
10	0	0	0	0	536	459	508	801	0	0	
11	0	0	0	0	581	467	500	679	0	0	
12	0	0	0	0	620	473	490	542	0	0	
13	0	0	0	0	649	476	480	400	0	0	
14	0	0	0	0	667	475	470	268	0	0	
15	0	0	0	0	671	472	462	161	0	0	
0	0	0	0	0	662	466	457	86	0	0	
1	0	0	0	0	639	460	455	50	0	0	
2	0	0	0	0	605	453	456	58	0	0	
3	0	0	0	0	565	446	462	110	0	0	
4	0	0	0	0	520	441	470	200	0	0	
5	0	0	0	0	477	438	480	318	0	0	
6	0	0	0	0	439	438	492	452	0	0	
7	0	0	0	0	409	440	503	589	0	0	
8	0	0	0	0	391	444	514	715	0	0	
9	0	0	0	0	386	451	521	816	0	0	
10	0	0	0	0	394	459	526	885	0	0	
11	0	0	0	0	414	467	525	913	0	0	
12	0	0	0	0	444	475	520	898	0	0	
13	0	0	0	0	481	482	511	839	0	0	
14	0	0	0	0	523	487	499	743	0	0	
15	0	0	0	0	563	489	485	620	0	0	
0	0	0	0	0	599	489	471	480	0	0	
1	0	0	0	0	627	488	457	339	0	0	
2	0	0	0	0	646	484	446	210	0	0	
3	0	0	0	0	653	480	439	104	0	0	
4	0	0	0	0	647	474	436	33	0	0	
5	0	0	0	0	630	469	437	1	0	0	
6	0	0	0	0	603	463	443	12	0	0	
7	0	0	0	0	567	459	452	66	0	0	
8	0	0	0	0	527	456	464	158	0	0	
9	0	0	0	0	486	453	476	278	0	0	
10	0	0	0	0	448	451	489	412	0	0	
11	0	0	0	0	416	451	500	550	0	0	
12	0	0	0	0	394	452	509	677	0	0	
13	0	0	0	0	384	455	515	781	0	0	
14	0	0	0	0	387	459	518	852	0	0	
15	0	0	0	0	404	464	518	885	0	0	
0	0	0	0	0	433	472	515	876	0	0	
1	0	0	0	0	472	480	510	826	0	0	
2	0	0	0	0	516	489	504	739	0	0	
3	0	0	0	0	562	498	497	627	0	0	
4	0	0	0	0	606	507	491	498	0	0	
5	0	0	0	0	642	515	486	368	0	0	
6	0	0	0	0	669	521	483	249	0	0	
7	0	0	0	0	684	526	483	152	0	0	
8	0	0	0	0	683	526	483	85	0	0	
9	0	0	0	0	668	522	484	53	0	0	
10	0	0	0	0	637	515	485	61	0	0	
11	0	0	0	0	595	504	486	108	0	0	
12	0	0	0	0	544	490	484	189	0	0	
13	0	0	0	0	491	475	482	294	0	0	
14	0	0	0	0	440	459	478	413	0	0	
15	0	0	0	0	396	446	474	535	0	0	
0	0	0	0	0	363	435	469	646	0	0	
1	0	0	0	0	345	429	465	738	0	0	
2	0	0	0	0	345	429	462	800	0	0	
3	0	0	0	0	362	433	461	827	0	0	
4	0	0	0	0	395	443	461	814	0	0	
5	0	0	0	0	441	455	463	763	0	0	
6	0	0	0	0	496	471	466	678	0	0	
7	0	0	0	0	552	486	470	566	0	0	
8	0	0	0	0	605	501	473	439	0	0	
9	0	0	0	0	650	512	476	309	0	0	
10	0	0	0	0	683	520	479	189	0	0	
11	0	0	0	0	701	525	481	89	0	0	
12	0	0	0	0	704	526	483	20	0	0	
13	0	0	0	0	690	523	486	0	0	0	
14	0	0	0	0	662	516	488	3	0	0	
15	0	0	0	0	622	508	491	50	0	0	
0	0	0	0	0	576	499	494	132	0	0	
1	0	0	0	0	528	491	498	242	0	0	
2	0	0	0	0	484	484	502	368	0	0	
3	0	0	0	0	448	479	505	499	0	0	
4	0	0	0	0	424	477	509	621	0	0	
5	0	0	0	0	414	478	511	723	0	0	
6	0	0	0	0	420	482	512	794	0	0	
7	0	0	0	0	439	487	510	828	0	0	
8	0	0	0	0	470	492	506	820	0	0	
9	0	0	0	0	510	498	500	771	0	0	
10	0	0	0	0	553	503	492	686	0	0	
11	0	0	0	0	596	505	482	574	0	0	
12	0	0	0	0	634	505	472	447	0	0	
13	0	0	0	0	663	503	460	316	0	0	
14	0	0	0	0	681	499	451	196	0	0	
15	0	0	0	0	687	493	444	99	0	0	
0	0	0	0	0	678	485	440	34	0	0	
1	0	0	0	0	657	476	438	6	0	0	
2	0	0	0	0	625	467	440	19	0	0	
3	0	0	0	0	586	459	444	73	0	0	
4	0	0	0	0	543	452	451	163	0	0	
5	0	0	0	0	502	447	460	280	0	0	
6	0	0	0	0	465	443	470	413	0	0	
7	0	0	0	0	438	442	480	548	0	0	
8	0	0	0	0	422	444	490	675	0	0	
9	0	0	0	0	419	448	497	781	0	0	
10	0	0	0	0	432	455	504	856	0	0	
11	0	0	0	0	456	464	508	894	0	0	
12	0	0	0	0	492	474	508	891	0	0	
13	0	0	0	0	536	484	508	849	0	0	
14	0	0	0	0	583	493	504	771	0	0	
15	0	0	0	0	630	500	498	665	0	0	
0	0	0	0	0	671	504	491	543	0	0	
1	0	0	0	0	702	504	483	417	0	0	
2	0	0	0	0	722	500	476	300	0	0	
3	0	0	0	0	727	493	469	204	0	0	
4	0	0	0	0	717	483	463	137	0	0	
5	0	0	0	0	691	469	457	104	0	0	
6	0	0	0	0	652	454	453	109	0	0	
7	0	0	0	0	604	439	450	152	0	0	
8	0	0	0	0	549	423	448	227	0	0	
9	0	0	0	0	494	410	446	327	0	0	
10	0	0	0	0	443	399	444	441	0	0	
11	0	0	0	0	400	391	443	558	0	0	
12	0	0	0	0	370	386	440	665	0	0	
13	0	0	0	0	355	385	437	753	0	0	
14	0	0	0	0	355	387	432	812	0	0	
15	0	0	0	0	370	391	425	835	0	0	
0	0	0	0	0	398	396	416	820	0	0	
1	0	0	0	0	434	400	404	766	0	0	
2	0	0	0	0	474	404	390	679	0	0	
3	0	0	0	0	513	405	374	565	0	0	
4	0	0	0	0	547	402	358	436	0	0	
5	0	0	0	0	572	397	341	305	0	0	
6	0	0	0	0	585	389	327	184	0	0	
7	0	0	0	0	585	379	315	84	0	0	
8	0	0	0	0	571	368	307	14	0	0	
9	0	0	0	0	544	355	303	0	0	0	
10	0	0	0	0	507	342	303	0	0	0	
11	0	0	0	0	463	330	308	40	0	0	
12	0	0	0	0	416	320	316	118	0	0	
13	0	0	0	0	371	313	327	225	0	0	
14	0	0	0	0	334	311	343	350	0	0	
15	0	0	0	0	308	315	361	483	0	0	
0	0	0	0	0	297	325	381	612	0	0	
1	0	0	0	0	303	342	404	725	0	0	
2	0	0	0	0	326	364	427	811	0	0	
3	0	0	0	0	366	390	449	864	0	0	
4	0	0	0	0	419	419	470	879	0	0	
5	0	0	0	0	481	448	488	855	0	0	
6	0	0	0	0	546	476	502	796	0	0	
7	0	0	0	0	609	501	511	707	0	0	
8	0	0	0	0	664	520	516	598	0	0	
9	0	0	0	0	708	534	517	483	0	0	
10	0	0	0	0	737	540	515	371	0	0	
11	0	0	0	0	749	541	509	276	0	0	
12	0	0	0	0	742	536	502	208	0	0	
13	0	0	0	0	718	525	494	173	0	0	
14	0	0	0	0	679	510	486	175	0	0	
15	0	0	0	0	627	494	478	212	0	0	
0	0	0	0	0	568	476	471	284	0	0	
1	0	0	0	0	508	458	465	381	0	0	
2	0	0	0	0	451	443	460	492	0	0	
3	0	0	0	0	403	430	456	607	0	0	
4	0	0	0	0	368	422	453	712	0	0	
5	0	0	0	0	349	418	451	798	0	0	
6	0	0	0	0	348	419	450	856	0	0	
7	0	0	0	0	364	425	449	879	0	0	
8	0	0	0	0	395	435	450	865	0	0	
9	0	0	0	0	439	448	451	815	0	0	
10	0	0	0	0	490	463	452	734	0	0	
11	0	0	0	0	543	479	454	630	0	0	
12	0	0	0	0	593	492	457	514	0	0	
13	0	0	0	0	634	504	460	397	0	0	
14	0	0	0	0	664	511	463	291	0	0	
15	0	0	0	0	679	515	466	207	0	0	
0	0	0	0	0	680	515	470	153	0	0	
1	0	0	0	0	666	513	475	136	0	0	
2	0	0	0	0	639	508	480	157	0	0	
3	0	0	0	0	601	502	487	216	0	0	
4	0	0	0	0	559	496	495	308	0	0	
5	0	0	0	0	515	491	502	425	0	0	
6	0	0	0	0	474	487	510	553	0	0	
7	0	0	0	0	440	484	516	681	0	0	
8	0	0	0	0	416	483	520	797	0	0	
9	0	0	0	0	404	483	522	889	0	0	
10	0	0	0	0	405	484	520	948	0	0	
11	0	0	0	0	419	486	516	969	0	0	
12	0	0	0	0	444	488	508	950	0	0	
13	0	0	0	0	479	491	498	892	0	0	
14	0	0	0	0	519	494	487	798	0	0	
15	0	0	0	0	561	496	476	679	0	0	
0	0	0	0	0	602	499	465	546	0	0	
1	0	0	0	0	636	500	455	412	0	0	
2	0	0	0	0	659	499	447	288	0	0	
3	0	0	0	0	669	497	440	189	0	0	
4	0	0	0	0	665	491	436	122	0	0	
5	0	0	0	0	646	483	433	93	0	0	
6	0	0	0	0	612	472	431	105	0	0	
7	0	0	0	0	568	459	431	158	0	0	
8	0	0	0	0	516	444	430	245	0	0	
9	0	0	0	0	463	430	431	358	0	0	
10	0	0	0	0	413	417	431	485	0	0	
11	0	0	0	0	371	406	431	614	0	0	
12	0	0	0	0	341	399	432	731	0	0	
13	0	0	0	0	327	398	432	826	0	0	
14	0	0	0	0	329	400	434	890	0	0	
15	0	0	0	0	350	408	436	917	0	0	
0	0	0	0	0	385	422	440	904	0	0	
1	0	0	0	0	433	438	445	852	0	0	
2	0	0	0	0	489	457	451	766	0	0	
3	0	0	0	0	547	475	456	654	0	0	
4	0	0	0	0	603	493	463	528	0	0	
5	0	0	0	0	649	507	468	400	0	0	
6	0	0	0	0	685	518	475	282	0	0	
7	0	0	0	0	704	523	479	186	0	0	
8	0	0	0	0	706	524	483	122	0	0	
9	0	0	0	0	692	520	487	94	0	0	
10	0	0	0	0	662	514	492	108	0	0	
11	0	0	0	0	619	505	497	163	0	0	
12	0	0	0	0	569	496	501	252	0	0	
13	0	0	0	0	515	487	506	369	0	0	
14	0	0	0	0	464	479	510	501	0	0	
15	0	0	0	0	419	472	512	634	0	0	
0	0	0	0	0	385	468	514	755	0	0	
1	0	0	0	0	365	467	514	853	0	0	
2	0	0	0	0	359	467	511	918	0	0	
3	0	0	0	0	368	471	505	944	0	0	
4	0	0	0	0	390	475	497	928	0	0	
5	0	0	0	0	422	480	486	870	0	0	
6	0	0	0	0	459	485	473	776	0	0	
7	0	0	0	0	499	490	460	656	0	0	
8	0	0	0	0	536	492	447	519	0	0	
9	0	0	0	0	566	493	433	380	0	0	
10	0	0	0	0	587	491	423	252	0	0	
11	0	0	0	0	596	487	416	146	0	0	
12	0	0	0	0	593	482	412	73	0	0	
13	0	0	0	0	579	477	412	40	0	0	
14	0	0	0	0	555	472	417	49	0	0	
15	0	0	0	0	524	467	426	102	0	0	
0	0	0	0	0	489	464	438	192	0	0	
1	0	0	0	0	455	462	452	310	0	0	
2	0	0	0	0	425	461	466	444	0	0	
3	0	0	0	0	400	462	480	580	0	0	
4	0	0	0	0	385	465	490	706	0	0	
5	0	0	0	0	381	469	497	809	0	0	
6	0	0	0	0	388	473	499	879	0	0	
7	0	0	0	0	406	479	497	909	0	0	
8	0	0	0	0	432	485	492	898	0	0	
9	0	0	0	0	465	492	483	844	0	0	
10	0	0	0	0	502	499	472	755	0	0	
11	0	0	0	0	539	505	462	639	0	0	
12	0	0	0	0	572	510	452	507	0	0	
13	0	0	0	0	597	515	444	375	0	0	
14	0	0	0	0	614	518	439	253	0	0	
15	0	0	0	0	619	518	437	156	0	0	
0	0	0	0	0	611	517	439	91	0	0	
1	0	0	0	0	592	514	444	65	0	0	
2	0	0	0	0	562	508	452	82	0	0	
3	0	0	0	0	526	502	462	141	0	0	
4	0	0	0	0	484	496	473	238	0	0	
5	0	0	0	0	444	488	484	361	0	0	
6	0	0	0	0	407	480	494	501	0	0	
7	0	0	0	0	376	473	501	642	0	0	
8	0	0	0	0	355	467	504	771	0	0	
9	0	0	0	0	346	462	504	876	0	0	
10	0	0	0	0	348	457	498	946	0	0	
11	0	0	0	0	362	454	489	976	0	0	
12	0	0	0	0	386	451	476	960	0	0	
13	0	0	0	0	418	451	460	901	0	0	
14	0	0	0	0	455	452	444	802	0	0	
15	0	0	0	0	491	453	427	674	0	0	
0	0	0	0	0	524	455	412	528	0	0	
1	0	0	0	0	551	457	401	378	0	0	
2	0	0	0	0	568	459	394	239	0	0	
3	0	0	0	0	575	461	392	125	0	0	
4	0	0	0	0	570	462	395	44	0	0	
5	0	0	0	0	554	462	403	4	0	0	
6	0	0	0	0	527	462	415	7	0	0	
7	0	0	0	0	495	461	430	54	0	0	
8	0	0	0	0	458	460	446	139	0	0	
9	0	0	0	0	421	459	463	253	0	0	
10	0	0	0	0	387	458	478	384	0	0	
11	0	0	0	0	359	457	491	519	0	0	
12	0	0	0	0	340	457	500	644	0	0	
13	0	0	0	0	334	459	505	750	0	0	
14	0	0	0	0	340	463	507	823	0	0	
15	0	0	0	0	360	468	505	860	0	0	
0	0	0	0	0	391	476	502	857	0	0	
1	0	0	0	0	431	485	495	815	0	0	
2	0	0	0	0	475	494	487	736	0	0	
3	0	0	0	0	519	503	478	631	0	0	
4	0	0	0	0	560	510	469	509	0	0	
5	0	0	0	0	591	513	461	384	0	0	
6	0	0	0	0	612	515	453	266	0	0	
7	0	0	0	0	619	512	447	170	0	0	
8	0	0	0	0	610	505	442	101	0	0	
9	0	0	0	0	588	497	438	68	0	0	
10	0	0	0	0	552	484	437	72	0	0	
11	0	0	0	0	507	471	436	113	0	0	
12	0	0	0	0	456	457	436	188	0	0	
13	0	0	0	0	405	443	437	286	0	0	
14	0	0	0	0	356	430	438	399	0	0	
15	0	0	0	0	316	419	439	514	0	0	
0	0	0	0	0	287	412	440	620	0	0	
1	0	0	0	0	272	407	441	705	0	0	
2	0	0	0	0	272	406	441	761	0	0	
3	0	0	0	0	286	408	440	783	0	0	
4	0	0	0	0	313	412	439	766	0	0	
5	0	0	0	0	350	418	436	712	0	0	
6	0	0	0	0	392	425	432	627	0	0	
7	0	0	0	0	437	431	428	519	0	0	
8	0	0	0	0	479	436	425	400	0	0	
9	0	0	0	0	514	441	423	283	0	0	
10	0	0	0	0	540	444	423	178	0	0	
11	0	0	0	0	555	447	426	96	0	0	
12	0	0	0	0	556	448	431	45	0	0	
13	0	0	0	0	547	448	438	30	0	0	
14	0	0	0	0	527	447	447	54	0	0	
15	0	0	0	0	500	445	458	115	0	0	
0	0	0	0	0	467	443	469	208	0	0	
1	0	0	0	0	433	439	479	323	0	0	
2	0	0	0	0	400	435	487	450	0	0	
3	0	0	0	0	372	431	492	576	0	0	
4	0	0	0	0	352	427	495	689	0	0	
5	0	0	0	0	343	424	493	779	0	0	
6	0	0	0	0	346	422	488	837	0	0	
7	0	0	0	0	361	422	481	857	0	0	
8	0	0	0	0	387	424	473	837	0	0	
9	0	0	0	0	423	427	463	780	0	0	
10	0	0	0	0	465	432	454	689	0	0	
11	0	0	0	0	508	435	444	574	0	0	
12	0	0	0	0	548	440	438	446	0	0	
13	0	0	0	0	583	444	432	319	0	0	
14	0	0	0	0	608	447	429	205	0	0	
15	0	0	0	0	621	448	429	114	0	0	
0	0	0	0	0	622	448	432	56	0	0	
1	0	0	0	0	609	448	439	35	0	0	
2	0	0	0	0	584	446	447	53	0	0	
3	0	0	0	0	550	443	458	109	0	0	
4	0	0	0	0	510	439	469	199	0	0	
5	0	0	0	0	467	433	479	311	0	0	
6	0	0	0	0	426	428	487	435	0	0	
7	0	0	0	0	389	421	492	557	0	0	
8	0	0	0	0	360	414	492	667	0	0	
9	0	0	0	0	343	407	489	753	0	0	
10	0	0	0	0	337	400	481	807	0	0	
11	0	0	0	0	343	394	470	825	0	0	
12	0	0	0	0	361	390	455	804	0	0	
13	0	0	0	0	388	387	440	747	0	0	
14	0	0	0	0	421	384	422	660	0	0	
15	0	0	0	0	455	382	404	551	0	0	
0	0	0	0	0	487	380	388	432	0	0	
1	0	0	0	0	515	377	375	315	0	0	
2	0	0	0	0	535	375	366	213	0	0	
3	0	0	0	0	545	374	363	135	0	0	
4	0	0	0	0	546	372	364	89	0	0	
5	0	0	0	0	536	372	371	82	0	0	
6	0	0	0	0	515	371	383	114	0	0	
7	0	0	0	0	489	373	398	184	0	0	
8	0	0	0	0	460	375	415	284	0	0	
9	0	0	0	0	430	380	434	406	0	0	
10	0	0	0	0	402	385	451	536	0	0	
11	0	0	0	0	382	392	468	664	0	0	
12	0	0	0	0	370	401	481	775	0	0	
13	0	0	0	0	369	411	491	863	0	0	
14	0	0	0	0	380	423	496	915	0	0	
15	0	0	0	0	402	434	498	930	0	0	
0	0	0	0	0	432	446	495	904	0	0	
1	0	0	0	0	470	456	488	839	0	0	
2	0	0	0	0	510	464	479	741	0	0	
3	0	0	0	0	550	471	468	619	0	0	
4	0	0	0	0	585	474	456	484	0	0	
5	0	0	0	0	611	474	445	350	0	0	
6	0	0	0	0	626	471	435	228	0	0	
7	0	0	0	0	628	465	428	131	0	0	
8	0	0	0	0	617	456	423	65	0	0	
9	0	0	0	0	592	446	420	37	0	0	
10	0	0	0	0	557	435	420	49	0	0	
11	0	0	0	0	513	422	423	100	0	0	
12	0	0	0	0	465	411	428	186	0	0	
13	0	0	0	0	417	400	433	296	0	0	
14	0	0	0	0	373	392	439	420	0	0	
15	0	0	0	0	338	387	446	545	0	0	
0	0	0	0	0	314	385	451	658	0	0	
1	0	0	0	0	304	387	456	748	0	0	
2	0	0	0	0	308	392	460	807	0	0	
3	0	0	0	0	327	401	461	828	0	0	
4	0	0	0	0	359	412	460	809	0	0	
5	0	0	0	0	400	423	457	751	0	0	
6	0	0	0	0	447	436	454	662	0	0	
7	0	0	0	0	496	448	450	550	0	0	
8	0	0	0	0	542	460	447	426	0	0	
9	0	0	0	0	580	470	445	304	0	0	
10	0	0	0	0	609	478	446	196	0	0	
11	0	0	0	0	625	483	449	111	0	0	
12	0	0	0	0	626	486	454	58	0	0	
13	0	0	0	0	613	484	460	42	0	0	
14	0	0	0	0	586	480	467	64	0	0	
15	0	0	0	0	548	473	474	124	0	0	
0	0	0	0	0	501	463	480	214	0	0	
1	0	0	0	0	452	452	485	326	0	0	
2	0	0	0	0	403	440	487	449	0	0	
3	0	0	0	0	360	429	487	571	0	0	
4	0	0	0	0	326	419	484	681	0	0	
5	0	0	0	0	305	411	479	766	0	0	
6	0	0	0	0	297	406	470	820	0	0	
7	0	0	0	0	303	402	459	839	0	0	
8	0	0	0	0	322	401	447	817	0	0	
9	0	0	0	0	353	402	435	760	0	0	
10	0	0	0	0	392	406	424	673	0	0	
11	0	0	0	0	436	412	416	566	0	0	
12	0	0	0	0	480	418	411	448	0	0	
13	0	0	0	0	519	424	409	333	0	0	
14	0	0	0	0	550	430	411	232	0	0	
15	0	0	0	0	569	435	417	156	0	0	
0	0	0	0	0	575	438	426	112	0	0	
1	0	0	0	0	569	439	438	106	0	0	
2	0	0	0	0	551	439	452	139	0	0	
3	0	0	0	0	524	437	466	209	0	0	
4	0	0	0	0	492	435	481	309	0	0	
5	0	0	0	0	457	433	494	432	0	0	
6	0	0	0	0	424	431	505	562	0	0	
7	0	0	0	0	398	431	514	690	0	0	
8	0	0	0	0	380	431	519	802	0	0	
9	0	0	0	0	373	433	520	888	0	0	
10	0	0	0	0	377	435	518	939	0	0	
11	0	0	0	0	392	438	511	951	0	0	
12	0	0	0	0	417	441	500	922	0	0	
13	0	0	0	0	448	443	487	851	0	0	
14	0	0	0	0	482	445	472	748	0	0	
15	0	0	0	0	515	445	456	619	0	0	
0	0	0	0	0	545	444	442	478	0	0	
1	0	0	0	0	567	441	429	338	0	0	
2	0	0	0	0	580	437	420	213	0	0	
3	0	0	0	0	582	432	415	113	0	0	
4	0	0	0	0	573	425	415	48	0	0	
5	0	0	0	0	554	419	419	23	0	0	
6	0	0	0	0	526	413	427	41	0	0	
7	0	0	0	0	493	407	439	101	0	0	
8	0	0	0	0	459	403	453	199	0	0	
9	0	0	0	0	425	400	468	323	0	0	
10	0	0	0	0	398	399	483	462	0	0	
11	0	0	0	0	378	400	496	604	0	0	
12	0	0	0	0	368	403	505	733	0	0	
13	0	0	0	0	370	408	511	839	0	0	
14	0	0	0	0	384	413	512	911	0	0	
15	0	0	0	0	408	420	509	944	0	0	
0	0	0	0	0	441	428	502	935	0	0	
1	0	0	0	0	481	437	493	883	0	0	
2	0	0	0	0	524	446	482	795	0	0	
3	0	0	0	0	565	454	471	678	0	0	
4	0	0	0	0	602	462	461	547	0	0	
5	0	0	0	0	632	467	453	413	0	0	
6	0	0	0	0	651	471	448	289	0	0	
7	0	0	0	0	657	472	446	190	0	0	
8	0	0	0	0	652	472	446	121	0	0	
9	0	0	0	0	632	468	449	91	0	0	
10	0	0	0	0	601	462	455	101	0	0	
11	0	0	0	0	563	455	461	151	0	0	
12	0	0	0	0	520	446	468	234	0	0	
13	0	0	0	0	477	438	475	344	0	0	
14	0	0	0	0	438	429	480	467	0	0	
15	0	0	0	0	406	422	484	591	0	0	
0	0	0	0	0	385	416	485	704	0	0	
1	0	0	0	0	377	412	484	794	0	0	
2	0	0	0	0	381	411	480	853	0	0	
3	0	0	0	0	398	412	474	875	0	0	
4	0	0	0	0	426	415	467	856	0	0	
5	0	0	0	0	461	419	458	798	0	0	
6	0	0	0	0	501	425	450	706	0	0	
7	0	0	0	0	541	431	442	588	0	0	
8	0	0	0	0	577	435	435	457	0	0	
9	0	0	0	0	606	439	429	323	0	0	
10	0	0	0	0	623	440	426	202	0	0	
11	0	0	0	0	629	440	425	103	0	0	
12	0	0	0	0	622	436	425	35	0	0	
13	0	0	0	0	602	430	428	5	0	0	
14	0	0	0	0	572	422	432	15	0	0	
15	0	0	0	0	534	412	437	67	0	0	
0	0	0	0	0	494	403	444	155	0	0	
1	0	0	0	0	455	395	450	270	0	0	
2	0	0	0	0	422	390	457	402	0	0	
3	0	0	0	0	397	388	464	538	0	0	
4	0	0	0	0	385	389	470	666	0	0	
5	0	0	0	0	387	394	476	773	0	0	
6	0	0	0	0	401	403	480	849	0	0	
7	0	0	0	0	429	415	483	888	0	0	
8	0	0	0	0	466	428	483	886	0	0	
9	0	0	0	0	509	443	483	845	0	0	
10	0	0	0	0	554	456	480	767	0	0	
11	0	0	0	0	595	467	476	661	0	0	
12	0	0	0	0	630	476	470	538	0	0	
13	0	0	0	0	652	480	464	411	0	0	
14	0	0	0	0	662	480	456	292	0	0	
15	0	0	0	0	657	475	450	196	0	0	
0	0	0	0	0	638	467	444	131	0	0	
1	0	0	0	0	606	456	439	102	0	0	
2	0	0	0	0	563	444	437	114	0	0	
3	0	0	0	0	515	430	435	167	0	0	
4	0	0	0	0	465	416	436	255	0	0	
5	0	0	0	0	417	403	437	367	0	0	
6	0	0	0	0	375	392	438	495	0	0	
7	0	0	0	0	344	383	439	623	0	0	
8	0	0	0	0	325	376	438	740	0	0	
9	0	0	0	0	320	373	438	834	0	0	
10	0	0	0	0	331	373	436	897	0	0	
11	0	0	0	0	355	377	433	923	0	0	
12	0	0	0	0	393	384	431	908	0	0	
13	0	0	0	0	440	394	429	855	0	0	
14	0	0	0	0	492	406	428	768	0	0	
15	0	0	0	0	546	419	428	656	0	0	
0	0	0	0	0	595	432	431	532	0	0	
1	0	0	0	0	638	444	435	407	0	0	
2	0	0	0	0	668	455	441	293	0	0	
3	0	0	0	0	683	462	448	203	0	0	
4	0	0	0	0	682	465	456	145	0	0	
5	0	0	0	0	665	464	463	123	0	0	
6	0	0	0	0	633	459	470	140	0	0	
7	0	0	0	0	590	451	476	196	0	0	
8	0	0	0	0	541	441	481	284	0	0	
9	0	0	0	0	488	429	483	395	0	0	
10	0	0	0	0	439	417	483	517	0	0	
11	0	0	0	0	396	405	480	638	0	0	
12	0	0	0	0	365	395	475	745	0	0	
13	0	0	0	0	347	387	467	829	0	0	
14	0	0	0	0	344	382	459	881	0	0	
15	0	0	0	0	356	381	451	897	0	0	
0	0	0	0	0	384	384	442	875	0	0	
1	0	0	0	0	423	390	436	814	0	0	
2	0	0	0	0	471	399	432	723	0	0	
3	0	0	0	0	521	411	430	609	0	0	
4	0	0	0	0	571	423	430	484	0	0	
5	0	0	0	0	613	434	433	359	0	0	
6	0	0	0	0	645	443	438	247	0	0	
7	0	0	0	0	663	449	444	158	0	0	
8	0	0	0	0	666	452	449	100	0	0	
9	0	0	0	0	652	451	455	79	0	0	
10	0	0	0	0	624	447	460	98	0	0	
11	0	0	0	0	583	440	463	156	0	0	
12	0	0	0	0	533	431	465	247	0	0	
13	0	0	0	0	480	421	465	362	0	0	
14	0	0	0	0	428	412	464	490	0	0	
15	0	0	0	0	383	404	462	618	0	0	
0	0	0	0	0	349	399	458	735	0	0	
1	0	0	0	0	329	397	454	829	0	0	
2	0	0	0	0	324	397	449	891	0	0	
3	0	0	0	0	335	400	444	916	0	0	
4	0	0	0	0	361	406	439	901	0	0	
5	0	0	0	0	398	413	433	847	0	0	
6	0	0	0	0	444	422	428	758	0	0	
7	0	0	0	0	492	430	423	645	0	0	
8	0	0	0	0	539	438	420	519	0	0	
9	0	0	0	0	579	444	419	392	0	0	
10	0	0	0	0	609	448	420	277	0	0	
11	0	0	0	0	627	450	423	186	0	0	
12	0	0	0	0	630	450	429	126	0	0	
13	0	0	0	0	618	448	438	103	0	0	
14	0	0	0	0	595	447	448	120	0	0	
15	0	0	0	0	561	445	460	176	0	0	
0	0	0	0	0	523	444	475	264	0	0	
1	0	0	0	0	483	445	490	377	0	0	
2	0	0	0	0	447	448	504	501	0	0	
3	0	0	0	0	416	451	517	625	0	0	
4	0	0	0	0	394	455	526	736	0	0	
5	0	0	0	0	384	459	531	823	0	0	
6	0	0	0	0	385	463	532	876	0	0	
7	0	0	0	0	398	467	529	892	0	0	
8	0	0	0	0	421	470	522	867	0	0	
9	0	0	0	0	452	472	511	803	0	0	
10	0	0	0	0	487	474	499	706	0	0	
11	0	0	0	0	523	473	485	586	0	0	
12	0	0	0	0	555	471	471	453	0	0	
13	0	0	0	0	579	465	458	322	0	0	
14	0	0	0	0	594	457	447	204	0	0	
15	0	0	0	0	597	448	438	111	0	0	
0	0	0	0	0	588	437	432	50	0	0	
1	0	0	0	0	568	425	430	26	0	0	
2	0	0	0	0	537	413	430	43	0	0	
3	0	0	0	0	501	401	434	98	0	0	
4	0	0	0	0	462	391	441	186	0	0	
5	0	0	0	0	424	383	448	297	0	0	
6	0	0	0	0	393	378	457	421	0	0	
7	0	0	0	0	370	377	466	543	0	0	
8	0	0	0	0	359	379	473	654	0	0	
9	0	0	0	0	363	385	479	742	0	0	
10	0	0	0	0	381	396	483	798	0	0	
11	0	0	0	0	411	408	486	817	0	0	
12	0	0	0	0	453	423	487	800	0	0	
13	0	0	0	0	502	439	486	745	0	0	
14	0	0	0	0	556	455	484	660	0	0	
15	0	0	0	0	607	469	481	554	0	0	
0	0	0	0	0	655	482	479	438	0	0	
1	0	0	0	0	693	491	476	324	0	0	
2	0	0	0	0	719	496	474	223	0	0	
3	0	0	0	0	730	497	472	145	0	0	
4	0	0	0	0	724	492	470	97	0	0	
5	0	0	0	0	703	483	469	83	0	0	
6	0	0	0	0	666	471	467	106	0	0	
7	0	0	0	0	620	456	467	163	0	0	
8	0	0	0	0	567	440	467	249	0	0	
9	0	0	0	0	512	425	467	355	0	0	
10	0	0	0	0	462	411	467	471	0	0	
11	0	0	0	0	421	400	467	583	0	0	
12	0	0	0	0	392	392	466	683	0	0	
13	0	0	0	0	379	388	464	758	0	0	
14	0	0	0	0	382	387	462	801	0	0	
15	0	0	0	0	401	391	459	810	0	0	
0	0	0	0	0	434	398	456	782	0	0	
1	0	0	0	0	479	407	453	718	0	0	
2	0	0	0	0	530	419	451	626	0	0	
3	0	0	0	0	583	433	450	515	0	0	
4	0	0	0	0	633	446	451	395	0	0	
5	0	0	0	0	676	457	452	278	0	0	
6	0	0	0	0	709	467	455	176	0	0	
7	0	0	0	0	728	472	459	95	0	0	
8	0	0	0	0	731	472	462	46	0	0	
9	0	0	0	0	719	468	464	32	0	0	
10	0	0	0	0	692	459	465	56	0	0	
11	0	0	0	0	655	447	466	116	0	0	
12	0	0	0	0	611	432	465	207	0	0	
13	0	0	0	0	566	417	463	318	0	0	
14	0	0	0	0	523	403	460	441	0	0	
15	0	0	0	0	489	390	456	562	0	0	
0	0	0	0	0	466	380	451	671	0	0	
1	0	0	0	0	458	375	446	756	0	0	
2	0	0	0	0	464	373	440	810	0	0	
3	0	0	0	0	486	376	435	829	0	0	
4	0	0	0	0	519	382	430	809	0	0	
5	0	0	0	0	561	391	424	753	0	0	
6	0	0	0	0	608	403	420	668	0	0	
7	0	0	0	0	657	415	416	561	0	0	
8	0	0	0	0	702	427	414	443	0	0	
9	0	0	0	0	739	438	412	326	0	0	
10	0	0	0	0	767	448	414	222	0	0	
11	0	0	0	0	781	455	417	141	0	0	
12	0	0	0	0	780	460	422	90	0	0	
13	0	0	0	0	764	461	428	75	0	0	
14	0	0	0	0	734	460	434	97	0	0	
15	0	0	0	0	692	456	440	155	0	0	
0	0	0	0	0	642	451	446	243	0	0	
1	0	0	0	0	589	444	450	353	0	0	
2	0	0	0	0	537	437	452	474	0	0	
3	0	0	0	0	494	431	454	595	0	0	
4	0	0	0	0	462	427	454	704	0	0	
5	0	0	0	0	446	426	452	790	0	0	
6	0	0	0	0	445	427	449	846	0	0	
7	0	0	0	0	461	431	446	867	0	0	
8	0	0	0	0	491	437	442	849	0	0	
9	0	0	0	0	532	443	437	794	0	0	
10	0	0	0	0	579	449	432	709	0	0	
11	0	0	0	0	626	455	426	600	0	0	
12	0	0	0	0	670	457	420	480	0	0	
13	0	0	0	0	705	457	415	359	0	0	
14	0	0	0	0	729	455	410	251	0	0	
15	0	0	0	0	740	450	407	166	0	0	
0	0	0	0	0	737	443	405	111	0	0	
1	0	0	0	0	719	434	406	94	0	0	
2	0	0	0	0	688	425	409	116	0	0	
3	0	0	0	0	649	416	415	175	0	0	
4	0	0	0	0	604	408	423	268	0	0	
5	0	0	0	0	558	401	432	383	0	0	
6	0	0	0	0	516	397	440	510	0	0	
7	0	0	0	0	481	395	448	636	0	0	
8	0	0	0	0	457	396	455	750	0	0	
9	0	0	0	0	447	399	459	840	0	0	
10	0	0	0	0	451	405	461	899	0	0	
11	0	0	0	0	470	413	461	921	0	0	
12	0	0	0	0	501	423	459	904	0	0	
13	0	0	0	0	541	435	455	848	0	0	
14	0	0	0	0	587	446	449	761	0	0	
15	0	0	0	0	633	457	444	649	0	0	
0	0	0	0	0	677	465	438	526	0	0	
1	0	0	0	0	712	471	432	402	0	0	
2	0	0	0	0	737	474	427	290	0	0	
3	0	0	0	0	748	474	424	203	0	0	
4	0	0	0	0	743	470	424	147	0	0	
5	0	0	0	0	725	463	425	128	0	0	
6	0	0	0	0	692	455	428	149	0	0	
7	0	0	0	0	648	444	432	208	0	0	
8	0	0	0	0	598	434	438	300	0	0	
9	0	0	0	0	546	423	443	416	0	0	
10	0	0	0	0	498	414	449	543	0	0	
11	0	0	0	0	458	406	454	671	0	0	
12	0	0	0	0	430	402	457	785	0	0	
13	0	0	0	0	417	401	460	877	0	0	
14	0	0	0	0	419	403	461	937	0	0	
15	0	0	0	0	437	409	461	961	0	0	
0	0	0	0	0	467	418	460	947	0	0	
1	0	0	0	0	508	429	457	895	0	0	
2	0	0	0	0	553	440	454	811	0	0	
3	0	0	0	0	600	452	451	703	0	0	
4	0	0	0	0	644	463	447	583	0	0	
5	0	0	0	0	679	471	443	463	0	0	
6	0	0	0	0	704	476	440	353	0	0	
7	0	0	0	0	716	478	438	267	0	0	
8	0	0	0	0	713	476	436	213	0	0	
9	0	0	0	0	697	472	437	196	0	0	
10	0	0	0	0	668	464	439	219	0	0	
11	0	0	0	0	629	455	442	280	0	0	
12	0	0	0	0	586	444	447	373	0	0	
13	0	0	0	0	541	435	452	488	0	0	
14	0	0	0	0	499	424	456	613	0	0	
15	0	0	0	0	465	416	460	737	0	0	
0	0	0	0	0	441	410	461	847	0	0	
1	0	0	0	0	431	407	461	933	0	0	
2	0	0	0	0	436	406	459	988	0	0	
3	0	0	0	0	454	408	455	1005	0	0	
4	0	0	0	0	485	413	450	984	0	0	
5	0	0	0	0	526	421	445	925	0	0	
6	0	0	0	0	572	430	439	834	0	0	
7	0	0	0	0	620	440	433	720	0	0	
8	0	0	0	0	665	449	429	593	0	0	
9	0	0	0	0	702	457	425	467	0	0	
10	0	0	0	0	729	463	423	353	0	0	
11	0	0	0	0	744	467	424	264	0	0	
12	0	0	0	0	743	467	427	206	0	0	
13	0	0	0	0	728	465	430	184	0	0	
14	0	0	0	0	697	460	435	201	0	0	
15	0	0	0	0	656	454	441	255	0	0	
0	0	0	0	0	607	446	447	339	0	0	
1	0	0	0	0	554	438	452	444	0	0	
2	0	0	0	0	503	431	457	561	0	0	
3	0	0	0	0	458	425	461	675	0	0	
4	0	0	0	0	423	421	462	776	0	0	
5	0	0	0	0	401	419	462	855	0	0	
6	0	0	0	0	394	420	459	902	0	0	
7	0	0	0	0	401	423	455	913	0	0	
8	0	0	0	0	423	428	449	886	0	0	
9	0	0	0	0	455	436	443	823	0	0	
10	0	0	0	0	494	447	438	731	0	0	
11	0	0	0	0	537	458	434	617	0	0	
12	0	0	0	0	578	468	430	494	0	0	
13	0	0	0	0	612	478	428	373	0	0	
14	0	0	0	0	638	485	428	267	0	0	
15	0	0	0	0	651	489	430	186	0	0	
0	0	0	0	0	650	489	433	138	0	0	
1	0	0	0	0	636	487	438	129	0	0	
2	0	0	0	0	610	481	443	160	0	0	
3	0	0	0	0	576	473	448	230	0	0	
4	0	0	0	0	537	463	454	332	0	0	
5	0	0	0	0	497	454	460	457	0	0	
6	0	0	0	0	462	446	465	591	0	0	
7	0	0	0	0	434	438	469	725	0	0	
8	0	0	0	0	417	433	472	842	0	0	
9	0	0	0	0	412	431	473	935	0	0	
10	0	0	0	0	422	432	473	996	0	0	
11	0	0	0	0	444	435	471	1017	0	0	
12	0	0	0	0	476	439	467	999	0	0	
13	0	0	0	0	518	444	462	941	0	0	
14	0	0	0	0	563	451	456	849	0	0	
15	0	0	0	0	610	459	451	732	0	0	
0	0	0	0	0	653	466	446	602	0	0	
1	0	0	0	0	690	472	443	472	0	0	
2	0	0	0	0	716	476	441	353	0	0	
3	0	0	0	0	731	477	442	258	0	0	
4	0	0	0	0	731	476	444	196	0	0	
5	0	0	0	0	716	472	447	172	0	0	
6	0	0	0	0	689	467	452	188	0	0	
7	0	0	0	0	652	459	459	242	0	0	
8	0	0	0	0	608	451	465	329	0	0	
9	0	0	0	0	563	443	472	439	0	0	
10	0	0	0	0	519	436	479	559	0	0	
11	0	0	0	0	482	430	484	678	0	0	
12	0	0	0	0	454	425	487	782	0	0	
13	0	0	0	0	437	422	487	861	0	0	
14	0	0	0	0	433	419	483	908	0	0	
15	0	0	0	0	441	417	476	915	0	0	
0	0	0	0	0	460	416	467	882	0	0	
1	0	0	0	0	487	416	456	810	0	0	
2	0	0	0	0	519	416	444	707	0	0	
3	0	0	0	0	553	418	432	581	0	0	
4	0	0	0	0	585	419	422	445	0	0	
5	0	0	0	0	610	420	414	312	0	0	
6	0	0	0	0	626	422	409	194	0	0	
7	0	0	0	0	630	423	408	102	0	0	
8	0	0	0	0	623	424	411	45	0	0	
9	0	0	0	0	604	424	417	26	0	0	
10	0	0	0	0	574	423	426	49	0	0	
11	0	0	0	0	536	422	436	112	0	0	
12	0	0	0	0	494	419	447	209	0	0	
13	0	0	0	0	451	415	456	328	0	0	
14	0	0	0	0	409	409	463	459	0	0	
15	0	0	0	0	372	402	465	588	0	0	
0	0	0	0	0	344	395	463	702	0	0	
1	0	0	0	0	327	388	458	791	0	0	
2	0	0	0	0	322	384	449	847	0	0	
3	0	0	0	0	330	381	438	865	0	0	
4	0	0	0	0	351	382	427	843	0	0	
5	0	0	0	0	384	386	416	782	0	0	
6	0	0	0	0	425	393	408	691	0	0	
7	0	0	0	0	470	403	404	577	0	0	
8	0	0	0	0	515	414	403	452	0	0	
9	0	0	0	0	556	427	408	329	0	0	
10	0	0	0	0	588	438	416	220	0	0	
11	0	0	0	0	608	448	428	135	0	0	
12	0	0	0	0	616	456	441	83	0	0	
13	0	0	0	0	609	461	456	67	0	0	
14	0	0	0	0	588	463	472	91	0	0	
15	0	0	0	0	557	462	486	152	0	0	
0	0	0	0	0	517	458	498	243	0	0	
1	0	0	0	0	474	454	507	358	0	0	
2	0	0	0	0	432	448	513	481	0	0	
3	0	0	0	0	394	442	514	603	0	0	
4	0	0	0	0	364	437	512	709	0	0	
5	0	0	0	0	344	433	505	792	0	0	
6	0	0	0	0	338	431	495	840	0	0	
7	0	0	0	0	344	430	482	851	0	0	
8	0	0	0	0	361	431	467	823	0	0	
9	0	0	0	0	389	434	452	757	0	0	
10	0	0	0	0	424	438	438	661	0	0	
11	0	0	0	0	464	444	427	545	0	0	
12	0	0	0	0	502	450	419	420	0	0	
13	0	0	0	0	535	455	414	297	0	0	
14	0	0	0	0	560	459	413	192	0	0	
15	0	0	0	0	573	462	415	110	0	0	
0	0	0	0	0	574	462	421	62	0	0	
1	0	0	0	0	561	460	429	51	0	0	
2	0	0	0	0	537	456	438	81	0	0	
3	0	0	0	0	504	451	448	148	0	0	
4	0	0	0	0	464	444	458	246	0	0	
5	0	0	0	0	424	438	466	366	0	0	
6	0	0	0	0	385	432	472	495	0	0	
7	0	0	0	0	352	426	475	622	0	0	
8	0	0	0	0	329	422	473	733	0	0	
9	0	0	0	0	319	420	470	820	0	0	
10	0	0	0	0	323	422	464	873	0	0	
11	0	0	0	0	340	426	457	888	0	0	
12	0	0	0	0	371	434	449	863	0	0	
13	0	0	0	0	413	444	441	799	0	0	
14	0	0	0	0	462	456	435	703	0	0	
15	0	0	0	0	513	468	430	583	0	0	
0	0	0	0	0	562	479	427	452	0	0	
1	0	0	0	0	602	488	425	323	0	0	
2	0	0	0	0	631	493	424	208	0	0	
3	0	0	0	0	645	494	425	118	0	0	
4	0	0	0	0	643	490	426	61	0	0	
5	0	0	0	0	624	481	427	43	0	0	
6	0	0	0	0	591	469	428	66	0	0	
7	0	0	0	0	547	455	430	131	0	0	
8	0	0	0	0	498	441	431	229	0	0	
9	0	0	0	0	448	430	434	353	0	0	
10	0	0	0	0	402	421	437	491	0	0	
11	0	0	0	0	364	416	440	629	0	0	
12	0	0	0	0	339	415	443	754	0	0	
13	0	0	0	0	328	419	445	854	0	0	
14	0	0	0	0	332	428	448	920	0	0	
15	0	0	0	0	351	439	449	945	0	0	
0	0	0	0	0	383	453	449	925	0	0	
1	0	0	0	0	424	468	447	862	0	0	
2	0	0	0	0	471	483	444	761	0	0	
3	0	0	0	0	518	496	440	631	0	0	
4	0	0	0	0	562	507	436	485	0	0	
5	0	0	0	0	597	515	432	337	0	0	
6	0	0	0	0	621	518	429	202	0	0	
7	0	0	0	0	631	518	428	91	0	0	
8	0	0	0	0	625	512	426	14	0	0	
9	0	0	0	0	604	504	427	0	0	0	
10	0	0	0	0	570	492	430	0	0	0	
11	0	0	0	0	527	480	433	47	0	0	
12	0	0	0	0	477	467	438	132	0	0	
13	0	0	0	0	428	455	444	246	0	0	
14	0	0	0	0	382	445	449	376	0	0	
15	0	0	0	0	344	437	454	510	0	0	
0	0	0	0	0	318	432	458	634	0	0	
1	0	0	0	0	304	431	460	736	0	0	
2	0	0	0	0	306	432	459	806	0	0	
3	0	0	0	0	321	434	456	838	0	0	
4	0	0	0	0	349	439	451	830	0	0	
5	0	0	0	0	387	446	445	780	0	0	
6	0	0	0	0	431	454	439	697	0	0	
7	0	0	0	0	476	462	433	589	0	0	
8	0	0	0	0	519	470	429	467	0	0	
9	0	0	0	0	555	478	428	344	0	0	
10	0	0	0	0	580	484	428	231	0	0	
11	0	0	0	0	593	487	432	141	0	0	
12	0	0	0	0	591	488	437	81	0	0	
13	0	0	0	0	574	486	444	57	0	0	
14	0	0	0	0	544	481	451	71	0	0	
15	0	0	0	0	505	474	458	124	0	0	
0	0	0	0	0	460	465	464	208	0	0	
1	0	0	0	0	413	456	469	316	0	0	
2	0	0	0	0	369	447	472	437	0	0	
3	0	0	0	0	334	439	471	559	0	0	
4	0	0	0	0	309	433	469	669	0	0	
5	0	0	0	0	299	431	465	757	0	0	
6	0	0	0	0	304	432	460	815	0	0	
7	0	0	0	0	326	436	455	838	0	0	
8	0	0	0	0	361	444	450	824	0	0	
9	0	0	0	0	409	455	446	772	0	0	
10	0	0	0	0	463	466	444	691	0	0	
11	0	0	0	0	517	477	444	586	0	0	
12	0	0	0	0	568	486	445	471	0	0	
13	0	0	0	0	608	492	447	355	0	0	
14	0	0	0	0	635	494	449	251	0	0	
15	0	0	0	0	646	491	453	168	0	0	
0	0	0	0	0	639	483	456	114	0	0	
1	0	0	0	0	613	470	459	94	0	0	
2	0	0	0	0	574	454	461	111	0	0	
3	0	0	0	0	522	435	463	163	0	0	
4	0	0	0	0	464	416	464	244	0	0	
5	0	0	0	0	404	398	465	347	0	0	
6	0	0	0	0	350	381	465	460	0	0	
7	0	0	0	0	304	367	463	572	0	0	
8	0	0	0	0	272	357	460	671	0	0	
9	0	0	0	0	256	352	456	748	0	0	
10	0	0	0	0	257	353	451	795	0	0	
11	0	0	0	0	275	359	446	807	0	0	
12	0	0	0	0	308	370	441	782	0	0	
13	0	0	0	0	355	385	437	724	0	0	
14	0	0	0	0	410	404	435	637	0	0	
15	0	0	0	0	468	424	435	531	0	0	
0	0	0	0	0	524	444	437	416	0	0	
1	0	0	0	0	573	463	441	305	0	0	
2	0	0	0	0	610	479	448	207	0	0	
3	0	0	0	0	633	491	456	133	0	0	
4	0	0	0	0	639	498	465	91	0	0	
5	0	0	0	0	630	500	475	84	0	0	
6	0	0	0	0	605	498	484	115	0	0	
7	0	0	0	0	568	493	492	182	0	0	
8	0	0	0	0	523	485	499	276	0	0	
9	0	0	0	0	475	476	504	391	0	0	
10	0	0	0	0	428	466	506	513	0	0	
11	0	0	0	0	386	456	505	632	0	0	
12	0	0	0	0	354	448	500	735	0	0	
13	0	0	0	0	334	441	493	813	0	0	
14	0	0	0	0	328	437	482	857	0	0	
15	0	0	0	0	337	435	470	866	0	0	
0	0	0	0	0	359	435	457	836	0	0	
1	0	0	0	0	393	438	445	769	0	0	
2	0	0	0	0	434	443	433	674	0	0	
3	0	0	0	0	480	448	425	559	0	0	
4	0	0	0	0	523	454	419	435	0	0	
5	0	0	0	0	560	459	417	314	0	0	
6	0	0	0	0	588	463	418	209	0	0	
7	0	0	0	0	605	466	424	129	0	0	
8	0	0	0	0	608	467	433	82	0	0	
9	0	0	0	0	598	468	445	72	0	0	
10	0	0	0	0	576	469	460	101	0	0	
11	0	0	0	0	545	468	475	167	0	0	
12	0	0	0	0	507	468	489	263	0	0	
13	0	0	0	0	467	467	502	379	0	0	
14	0	0	0	0	429	465	512	504	0	0	
15	0	0	0	0	395	463	517	625	0	0	
0	0	0	0	0	369	460	516	729	0	0	
1	0	0	0	0	354	457	512	807	0	0	
2	0	0	0	0	351	454	502	851	0	0	
3	0	0	0	0	359	451	488	855	0	0	
4	0	0	0	0	380	448	472	819	0	0	
5	0	0	0	0	408	444	453	743	0	0	
6	0	0	0	0	443	440	433	636	0	0	
7	0	0	0	0	478	435	414	505	0	0	
8	0	0	0	0	510	428	395	364	0	0	
9	0	0	0	0	535	420	378	225	0	0	
10	0	0	0	0	550	410	365	101	0	0	
11	0	0	0	0	553	399	354	0	0	0	
12	0	0	0	0	542	385	346	0	0	0	
13	0	0	0	0	519	371	341	0	0	0	
14	0	0	0	0	483	354	338	0	0	0	
15	0	0	0	0	440	337	337	14	0	0	
0	0	0	0	0	391	319	335	70	0	0	
1	0	0	0	0	339	300	333	151	0	0	
2	0	0	0	0	290	282	329	244	0	0	
3	0	0	0	0	248	265	324	340	0	0	
4	0	0	0	0	215	251	317	429	0	0	
5	0	0	0	0	195	241	310	499	0	0	
6	0	0	0	0	189	235	301	543	0	0	
7	0	0	0	0	199	233	293	556	0	0	
8	0	0	0	0	224	237	287	533	0	0	
9	0	0	0	0	261	244	281	478	0	0	
10	0	0	0	0	308	256	279	397	0	0	
11	0	0	0	0	361	271	279	297	0	0	
12	0	0	0	0	414	288	283	191	0	0	
13	0	0	0	0	463	306	291	87	0	0	
14	0	0	0	0	502	324	302	0	0	0	
15	0	0	0	0	529	341	317	0	0	0	
0	0	0	0	0	542	356	335	0	0	0	
1	0	0	0	0	540	368	354	0	0	0	
2	0	0	0	0	524	379	374	1	0	0	
3	0	0	0	0	497	386	395	50	0	0	
4	0	0	0	0	464	392	414	128	0	0	
5	0	0	0	0	428	396	431	229	0	0	
6	0	0	0	0	394	399	445	342	0	0	
7	0	0	0	0	366	402	455	455	0	0	
8	0	0	0	0	348	406	462	560	0	0	
9	0	0	0	0	342	409	464	644	0	0	
10	0	0	0	0	348	415	464	700	0	0	
11	0	0	0	0	368	420	460	719	0	0	
12	0	0	0	0	400	427	454	703	0	0	
13	0	0	0	0	439	433	446	650	0	0	
14	0	0	0	0	481	439	438	567	0	0	
15	0	0	0	0	523	444	429	462	0	0	
0	0	0	0	0	560	447	420	344	0	0	
1	0	0	0	0	588	447	412	227	0	0	
2	0	0	0	0	604	445	406	122	0	0	
3	0	0	0	0	607	440	401	35	0	0	
4	0	0	0	0	595	432	397	0	0	0	
5	0	0	0	0	571	422	395	0	0	0	
6	0	0	0	0	535	409	395	0	0	0	
7	0	0	0	0	492	396	395	37	0	0	
8	0	0	0	0	446	383	398	109	0	0	
9	0	0	0	0	402	373	402	204	0	0	
10	0	0	0	0	363	365	407	312	0	0	
11	0	0	0	0	334	362	412	423	0	0	
12	0	0	0	0	318	362	417	526	0	0	
13	0	0	0	0	315	367	423	609	0	0	
14	0	0	0	0	327	375	426	665	0	0	
15	0	0	0	0	352	385	428	687	0	0	
0	0	0	0	0	389	398	430	672	0	0	
1	0	0	0	0	435	412	430	622	0	0	
2	0	0	0	0	486	426	431	543	0	0	
3	0	0	0	0	538	440	432	445	0	0	
4	0	0	0	0	587	454	435	336	0	0	
5	0	0	0	0	627	467	439	230	0	0	
6	0	0	0	0	656	476	445	135	0	0	
7	0	0	0	0	671	482	451	61	0	0	
8	0	0	0	0	670	484	457	15	0	0	
9	0	0	0	0	652	480	462	1	0	0	
10	0	0	0	0	619	471	464	21	0	0	
11	0	0	0	0	575	458	465	75	0	0	
12	0	0	0	0	524	442	463	157	0	0	
13	0	0	0	0	470	425	458	259	0	0	
14	0	0	0	0	419	408	451	372	0	0	
15	0	0	0	0	376	392	444	485	0	0	
0	0	0	0	0	345	380	435	587	0	0	
1	0	0	0	0	329	372	427	668	0	0	
2	0	0	0	0	328	368	418	719	0	0	
3	0	0	0	0	343	368	409	737	0	0	
4	0	0	0	0	371	373	402	718	0	0	
5	0	0	0	0	410	380	396	664	0	0	
6	0	0	0	0	455	388	391	581	0	0	
7	0	0	0	0	503	398	387	479	0	0	
8	0	0	0	0	548	408	387	366	0	0	
9	0	0	0	0	587	417	388	255	0	0	
10	0	0	0	0	615	425	392	158	0	0	
11	0	0	0	0	631	432	399	83	0	0	
12	0	0	0	0	633	435	408	40	0	0	
13	0	0	0	0	620	436	417	33	0	0	
14	0	0	0	0	595	435	428	67	0	0	
15	0	0	0	0	561	432	439	141	0	0	
0	0	0	0	0	520	428	449	246	0	0	
1	0	0	0	0	478	422	456	375	0	0	
2	0	0	0	0	438	416	462	515	0	0	
3	0	0	0	0	405	410	465	654	0	0	
4	0	0	0	0	380	405	464	778	0	0	
5	0	0	0	0	369	401	461	877	0	0	
6	0	0	0	0	371	400	455	942	0	0	
7	0	0	0	0	387	400	447	970	0	0	
8	0	0	0	0	415	403	438	956	0	0	
9	0	0	0	0	452	407	429	903	0	0	
10	0	0	0	0	496	412	420	816	0	0	
11	0	0	0	0	542	417	412	704	0	0	
12	0	0	0	0	584	423	406	578	0	0	
13	0	0	0	0	621	428	402	451	0	0	
14	0	0	0	0	648	432	402	335	0	0	
15	0	0	0	0	664	435	404	241	0	0	
0	0	0	0	0	666	435	409	177	0	0	
1	0	0	0	0	655	434	416	150	0	0	
2	0	0	0	0	633	431	424	160	0	0	
3	0	0	0	0	601	426	432	206	0	0	
4	0	0	0	0	564	420	440	284	0	0	
5	0	0	0	0	525	414	447	385	0	0	
6	0	0	0	0	488	408	452	498	0	0	
7	0	0	0	0	457	403	455	610	0	0	
8	0	0	0	0	437	400	455	711	0	0	
9	0	0	0	0	428	399	454	791	0	0	
10	0	0	0	0	431	400	449	839	0	0	
11	0	0	0	0	447	404	443	853	0	0	
12	0	0	0	0	473	409	435	830	0	0	
13	0	0	0	0	508	417	427	770	0	0	
14	0	0	0	0	547	425	419	681	0	0	
15	0	0	0	0	586	433	412	571	0	0	
0	0	0	0	0	622	440	406	451	0	0	
1	0	0	0	0	650	447	404	334	0	0	
2	0	0	0	0	668	452	404	231	0	0	
3	0	0	0	0	675	456	408	152	0	0	
4	0	0	0	0	668	458	415	106	0	0	
5	0	0	0	0	649	458	424	96	0	0	
6	0	0	0	0	618	456	436	124	0	0	
7	0	0	0	0	579	454	449	190	0	0	
8	0	0	0	0	536	449	462	285	0	0	
9	0	0	0	0	491	444	474	401	0	0	
10	0	0	0	0	449	439	484	526	0	0	
11	0	0	0	0	413	433	491	648	0	0	
12	0	0	0	0	388	428	494	755	0	0	
13	0	0	0	0	375	425	494	838	0	0	
14	0	0	0	0	374	422	490	888	0	0	
15	0	0	0	0	387	421	483	901	0	0	
0	0	0	0	0	411	421	472	875	0	0	
1	0	0	0	0	443	422	460	812	0	0	
2	0	0	0	0	481	424	448	717	0	0	
3	0	0	0	0	519	427	435	600	0	0	
4	0	0	0	0	555	430	423	471	0	0	
5	0	0	0	0	583	431	413	344	0	0	
6	0	0	0	0	601	432	407	231	0	0	
7	0	0	0	0	607	432	404	142	0	0	
8	0	0	0	0	601	431	406	86	0	0	
9	0	0	0	0	582	427	410	67	0	0	
10	0	0	0	0	552	423	417	88	0	0	
11	0	0	0	0	515	417	427	148	0	0	
12	0	0	0	0	473	411	436	240	0	0	
13	0	0	0	0	431	404	446	355	0	0	
14	0	0	0	0	392	399	454	481	0	0	
15	0	0	0	0	361	395	460	608	0	0	
0	0	0	0	0	341	393	463	723	0	0	
1	0	0	0	0	334	393	463	814	0	0	
2	0	0	0	0	340	395	460	874	0	0	
3	0	0	0	0	359	398	454	896	0	0	
4	0	0	0	0	390	403	446	879	0	0	
5	0	0	0	0	430	409	436	822	0	0	
6	0	0	0	0	474	415	427	732	0	0	
7	0	0	0	0	518	422	417	617	0	0	
8	0	0	0	0	558	428	410	490	0	0	
9	0	0	0	0	590	433	405	362	0	0	
10	0	0	0	0	610	438	404	247	0	0	
11	0	0	0	0	617	440	406	155	0	0	
12	0	0	0	0	609	440	410	94	0	0	
13	0	0	0	0	588	439	417	71	0	0	
14	0	0	0	0	555	435	425	88	0	0	
15	0	0	0	0	512	428	434	144	0	0	
0	0	0	0	0	465	421	443	233	0	0	
1	0	0	0	0	416	413	450	345	0	0	
2	0	0	0	0	372	406	456	471	0	0	
3	0	0	0	0	336	400	461	595	0	0	
4	0	0	0	0	313	397	463	709	0	0	
5	0	0	0	0	304	397	465	800	0	0	
6	0	0	0	0	310	400	465	859	0	0	
7	0	0	0	0	331	406	464	882	0	0	
8	0	0	0	0	366	414	462	865	0	0	
9	0	0	0	0	410	423	459	812	0	0	
10	0	0	0	0	461	434	455	725	0	0	
11	0	0	0	0	513	443	452	615	0	0	
12	0	0	0	0	561	451	449	493	0	0	
13	0	0	0	0	600	456	448	370	0	0	
14	0	0	0	0	627	459	446	260	0	0	
15	0	0	0	0	640	459	447	172	0	0	
0	0	0	0	0	639	455	450	115	0	0	
1	0	0	0	0	623	451	455	94	0	0	
2	0	0	0	0	594	444	461	113	0	0	
3	0	0	0	0	556	437	468	170	0	0	
4	0	0	0	0	511	430	477	260	0	0	
5	0	0	0	0	464	423	484	374	0	0	
6	0	0	0	0	422	418	492	499	0	0	
7	0	0	0	0	385	415	498	625	0	0	
8	0	0	0	0	360	414	502	737	0	0	
9	0	0	0	0	348	416	504	827	0	0	
10	0	0	0	0	349	420	505	884	0	0	
11	0	0	0	0	364	426	503	903	0	0	
12	0	0	0	0	391	434	499	882	0	0	
13	0	0	0	0	428	443	494	823	0	0	
14	0	0	0	0	469	451	489	729	0	0	
15	0	0	0	0	511	459	483	611	0	0	
0	0	0	0	0	550	464	477	480	0	0	
1	0	0	0	0	580	468	472	350	0	0	
2	0	0	0	0	601	469	470	233	0	0	
3	0	0	0	0	609	468	470	141	0	0	
4	0	0	0	0	604	464	472	80	0	0	
5	0	0	0	0	587	458	476	56	0	0	
6	0	0	0	0	557	450	480	71	0	0	
7	0	0	0	0	519	440	487	124	0	0	
8	0	0	0	0	477	430	492	207	0	0	
9	0	0	0	0	433	418	496	312	0	0	
10	0	0	0	0	391	407	498	428	0	0	
11	0	0	0	0	355	397	498	541	0	0	
12	0	0	0	0	330	390	496	641	0	0	
13	0	0	0	0	317	385	493	719	0	0	
14	0	0	0	0	317	384	488	765	0	0	
15	0	0	0	0	332	387	483	777	0	0	
0	0	0	0	0	359	394	479	752	0	0	
1	0	0	0	0	396	403	475	692	0	0	
2	0	0	0	0	439	415	472	605	0	0	
3	0	0	0	0	484	427	471	499	0	0	
4	0	0	0	0	526	438	471	384	0	0	
5	0	0	0	0	561	448	472	272	0	0	
6	0	0	0	0	585	453	475	174	0	0	
7	0	0	0	0	596	455	477	98	0	0	
8	0	0	0	0	592	452	480	54	0	0	
9	0	0	0	0	575	446	483	44	0	0	
10	0	0	0	0	545	436	485	71	0	0	
11	0	0	0	0	508	424	487	135	0	0	
12	0	0	0	0	465	412	488	228	0	0	
13	0	0	0	0	422	400	489	343	0	0	
14	0	0	0	0	383	390	489	468	0	0	
15	0	0	0	0	352	382	489	592	0	0	
0	0	0	0	0	331	378	489	703	0	0	
1	0	0	0	0	324	378	489	790	0	0	
2	0	0	0	0	331	381	489	844	0	0	
3	0	0	0	0	351	388	487	862	0	0	
4	0	0	0	0	382	396	486	840	0	0	
5	0	0	0	0	423	406	483	779	0	0	
6	0	0	0	0	467	416	480	686	0	0	
7	0	0	0	0	512	426	476	568	0	0	
8	0	0	0	0	553	435	473	439	0	0	
9	0	0	0	0	588	442	471	310	0	0	
10	0	0	0	0	611	448	471	194	0	0	
11	0	0	0	0	623	451	472	101	0	0	
12	0	0	0	0	621	452	476	39	0	0	
13	0	0	0	0	606	450	480	14	0	0	
14	0	0	0	0	578	446	485	27	0	0	
15	0	0	0	0	540	439	489	79	0	0	
0	0	0	0	0	497	431	493	161	0	0	
1	0	0	0	0	450	419	494	267	0	0	
2	0	0	0	0	406	407	492	385	0	0	
3	0	0	0	0	367	396	487	502	0	0	
4	0	0	0	0	338	386	481	608	0	0	
5	0	0	0	0	322	379	473	693	0	0	
6	0	0	0	0	320	376	464	746	0	0	
7	0	0	0	0	332	377	456	764	0	0	
8	0	0	0	0	358	382	448	746	0	0	
9	0	0	0	0	394	390	441	691	0	0	
10	0	0	0	0	437	400	436	608	0	0	
11	0	0	0	0	482	412	432	504	0	0	
12	0	0	0	0	524	422	430	391	0	0	
13	0	0	0	0	560	432	430	280	0	0	
14	0	0	0	0	585	439	431	184	0	0	
15	0	0	0	0	598	443	435	110	0	0	
0	0	0	0	0	598	444	440	68	0	0	
1	0	0	0	0	585	441	447	62	0	0	
2	0	0	0	0	560	436	455	93	0	0	
3	0	0	0	0	528	427	463	161	0	0	
4	0	0	0	0	491	417	471	257	0	0	
5	0	0	0	0	452	405	478	374	0	0	
6	0	0	0	0	416	394	483	500	0	0	
7	0	0	0	0	386	383	487	624	0	0	
8	0	0	0	0	365	375	488	731	0	0	
9	0	0	0	0	355	368	487	814	0	0	
10	0	0	0	0	357	366	485	863	0	0	
11	0	0	0	0	371	366	480	876	0	0	
12	0	0	0	0	397	369	474	850	0	0	
13	0	0	0	0	431	375	467	788	0	0	
14	0	0	0	0	471	384	461	697	0	0	
15	0	0	0	0	513	394	455	587	0	0	
0	0	0	0	0	553	404	452	468	0	0	
1	0	0	0	0	587	416	451	355	0	0	
2	0	0	0	0	612	427	453	258	0	0	
3	0	0	0	0	627	436	458	188	0	0	
4	0	0	0	0	628	444	466	152	0	0	
5	0	0	0	0	618	449	476	154	0	0	
6	0	0	0	0	596	452	487	197	0	0	
7	0	0	0	0	564	454	499	277	0	0	
8	0	0	0	0	527	453	511	388	0	0	
9	0	0	0	0	489	453	522	519	0	0	
10	0	0	0	0	451	451	529	659	0	0	
11	0	0	0	0	420	449	534	794	0	0	
12	0	0	0	0	397	447	535	912	0	0	
13	0	0	0	0	385	444	532	1004	0	0	
14	0	0	0	0	386	443	525	1021	0	0	
15	0	0	0	0	400	442	515	1021	0	0	
0	0	0	0	0	425	441	503	1021	0	0	
1	0	0	0	0	458	441	489	972	0	0	
2	0	0	0	0	497	441	475	892	0	0	
3	0	0	0	0	536	441	461	788	0	0	
4	0	0	0	0	573	440	449	672	0	0	
5	0	0	0	0	603	440	440	556	0	0	
6	0	0	0	0	623	438	435	450	0	0	
7	0	0	0	0	630	435	433	367	0	0	
8	0	0	0	0	625	431	435	314	0	0	
9	0	0	0	0	608	426	441	297	0	0	
10	0	0	0	0	578	419	451	319	0	0	
11	0	0	0	0	541	413	462	376	0	0	
12	0	0	0	0	498	408	475	462	0	0	
13	0	0	0	0	455	403	487	569	0	0	
14	0	0	0	0	415	399	499	684	0	0	
15	0	0	0	0	383	397	509	796	0	0	
0	0	0	0	0	359	396	515	892	0	0	
1	0	0	0	0	347	397	518	966	0	0	
2	0	0	0	0	348	399	517	1007	0	0	
3	0	0	0	0	361	403	512	1013	0	0	
4	0	0	0	0	387	407	505	980	0	0	
5	0	0	0	0	422	413	496	913	0	0	
6	0	0	0	0	462	420	487	817	0	0	
7	0	0	0	0	505	427	478	702	0	0	
8	0	0	0	0	545	435	471	577	0	0	
9	0	0	0	0	580	442	468	457	0	0	
10	0	0	0	0	605	449	468	351	0	0	
11	0	0	0	0	619	455	472	272	0	0	
12	0	0	0	0	620	459	480	227	0	0	
13	0	0	0	0	608	461	489	220	0	0	
14	0	0	0	0	584	462	501	252	0	0	
15	0	0	0	0	551	461	512	323	0	0	
0	0	0	0	0	513	459	524	423	0	0	
1	0	0	0	0	472	455	533	545	0	0	
2	0	0	0	0	435	450	540	675	0	0	
3	0	0	0	0	403	446	543	801	0	0	
4	0	0	0	0	382	441	543	911	0	0	
5	0	0	0	0	372	438	540	998	0	0	
6	0	0	0	0	376	436	534	1021	0	0	
7	0	0	0	0	391	435	524	1021	0	0	
8	0	0	0	0	419	436	512	1016	0	0	
9	0	0	0	0	455	437	499	962	0	0	
10	0	0	0	0	496	439	486	878	0	0	
11	0	0	0	0	539	441	473	770	0	0	
12	0	0	0	0	579	443	462	651	0	0	
13	0	0	0	0	612	443	452	531	0	0	
14	0	0	0	0	635	443	446	423	0	0	
15	0	0	0	0	646	440	443	338	0	0	
0	0	0	0	0	642	434	442	284	0	0	
1	0	0	0	0	625	428	445	268	0	0	
2	0	0	0	0	595	419	449	289	0	0	
3	0	0	0	0	556	409	455	347	0	0	
4	0	0	0	0	510	398	463	434	0	0	
5	0	0	0	0	462	388	469	540	0	0	
6	0	0	0	0	417	379	475	655	0	0	
7	0	0	0	0	380	372	480	768	0	0	
8	0	0	0	0	353	368	484	864	0	0	
9	0	0	0	0	340	367	487	939	0	0	
10	0	0	0	0	342	369	488	983	0	0	
11	0	0	0	0	360	375	488	991	0	0	
12	0	0	0	0	391	383	487	962	0	0	
13	0	0	0	0	433	393	486	897	0	0	
14	0	0	0	0	483	405	484	803	0	0	
15	0	0	0	0	535	417	482	689	0	0	
0	0	0	0	0	586	431	481	566	0	0	
1	0	0	0	0	630	443	482	445	0	0	
2	0	0	0	0	664	453	484	338	0	0	
3	0	0	0	0	685	461	488	256	0	0	
4	0	0	0	0	690	465	492	207	0	0	
5	0	0	0	0	679	466	497	194	0	0	
6	0	0	0	0	654	463	502	219	0	0	
7	0	0	0	0	615	455	504	280	0	0	
8	0	0	0	0	568	445	506	371	0	0	
9	0	0	0	0	517	433	505	481	0	0	
10	0	0	0	0	467	419	502	600	0	0	
11	0	0	0	0	423	405	496	715	0	0	
12	0	0	0	0	390	392	487	816	0	0	
13	0	0	0	0	369	382	478	892	0	0	
14	0	0	0	0	363	374	466	936	0	0	
15	0	0	0	0	372	370	454	944	0	0	
0	0	0	0	0	395	369	444	914	0	0	
1	0	0	0	0	430	373	434	848	0	0	
2	0	0	0	0	472	379	428	752	0	0	
3	0	0	0	0	517	387	424	635	0	0	
4	0	0	0	0	560	396	423	508	0	0	
5	0	0	0	0	598	405	425	383	0	0	
6	0	0	0	0	626	413	431	272	0	0	
7	0	0	0	0	643	420	440	186	0	0	
8	0	0	0	0	647	425	453	133	0	0	
9	0	0	0	0	638	428	467	117	0	0	
10	0	0	0	0	617	430	482	140	0	0	
11	0	0	0	0	588	430	498	200	0	0	
12	0	0	0	0	553	428	513	291	0	0	
13	0	0	0	0	515	426	526	405	0	0	
14	0	0	0	0	480	423	537	529	0	0	
15	0	0	0	0	450	421	544	650	0	0	
0	0	0	0	0	428	419	547	757	0	0	
1	0	0	0	0	417	418	546	840	0	0	
2	0	0	0	0	417	418	541	890	0	0	
3	0	0	0	0	428	419	531	903	0	0	
4	0	0	0	0	448	420	519	876	0	0	
5	0	0	0	0	476	421	504	811	0	0	
6	0	0	0	0	508	422	488	716	0	0	
7	0	0	0	0	539	422	472	599	0	0	
8	0	0	0	0	568	423	457	472	0	0	
9	0	0	0	0	592	422	446	349	0	0	
10	0	0	0	0	608	420	439	240	0	0	
11	0	0	0	0	614	419	437	158	0	0	
12	0	0	0	0	610	417	440	108	0	0	
13	0	0	0	0	596	414	445	96	0	0	
14	0	0	0	0	573	411	455	124	0	0	
15	0	0	0	0	543	406	465	188	0	0	
0	0	0	0	0	508	402	476	281	0	0	
1	0	0	0	0	472	396	484	395	0	0	
2	0	0	0	0	439	391	490	516	0	0	
3	0	0	0	0	410	385	493	634	0	0	
4	0	0	0	0	390	381	492	736	0	0	
5	0	0	0	0	380	379	487	812	0	0	
6	0	0	0	0	382	380	480	855	0	0	
7	0	0	0	0	396	383	471	862	0	0	
8	0	0	0	0	422	390	462	832	0	0	
9	0	0	0	0	458	399	454	766	0	0	
10	0	0	0	0	500	412	448	674	0	0	
11	0	0	0	0	545	425	446	563	0	0	
12	0	0	0	0	588	440	446	446	0	0	
13	0	0	0	0	625	452	450	333	0	0	
14	0	0	0	0	653	463	456	236	0	0	
15	0	0	0	0	668	470	465	163	0	0	
0	0	0	0	0	668	473	475	122	0	0	
1	0	0	0	0	654	471	485	117	0	0	
2	0	0	0	0	627	464	494	148	0	0	
3	0	0	0	0	588	454	500	213	0	0	
4	0	0	0	0	542	441	505	306	0	0	
5	0	0	0	0	494	425	507	418	0	0	
6	0	0	0	0	448	409	505	536	0	0	
7	0	0	0	0	408	393	500	651	0	0	
8	0	0	0	0	378	380	492	750	0	0	
9	0	0	0	0	362	369	483	826	0	0	
10	0	0	0	0	359	364	472	870	0	0	
11	0	0	0	0	372	363	462	879	0	0	
12	0	0	0	0	399	368	453	852	0	0	
13	0	0	0	0	438	377	447	792	0	0	
14	0	0	0	0	483	391	445	704	0	0	
15	0	0	0	0	532	408	446	596	0	0	
0	0	0	0	0	579	426	450	481	0	0	
1	0	0	0	0	619	443	458	368	0	0	
2	0	0	0	0	650	458	467	269	0	0	
3	0	0	0	0	668	470	478	195	0	0	
4	0	0	0	0	672	477	489	152	0	0	
5	0	0	0	0	663	479	499	145	0	0	
6	0	0	0	0	640	476	508	176	0	0	
7	0	0	0	0	607	469	515	244	0	0	
8	0	0	0	0	567	459	521	342	0	0	
9	0	0	0	0	525	447	522	461	0	0	
10	0	0	0	0	485	435	521	588	0	0	
11	0	0	0	0	451	422	517	711	0	0	
12	0	0	0	0	427	411	509	818	0	0	
13	0	0	0	0	414	401	499	900	0	0	
14	0	0	0	0	414	394	485	947	0	0	
15	0	0	0	0	426	388	470	958	0	0	
0	0	0	0	0	449	386	455	928	0	0	
1	0	0	0	0	480	386	440	860	0	0	
2	0	0	0	0	517	388	426	761	0	0	
3	0	0	0	0	553	391	414	641	0	0	
4	0	0	0	0	587	395	406	512	0	0	
5	0	0	0	0	612	400	401	387	0	0	
6	0	0	0	0	628	404	399	277	0	0	
7	0	0	0	0	632	407	402	194	0	0	
8	0	0	0	0	624	410	409	146	0	0	
9	0	0	0	0	603	412	420	138	0	0	
10	0	0	0	0	574	413	433	171	0	0	
11	0	0	0	0	536	414	449	242	0	0	
12	0	0	0	0	497	415	465	344	0	0	
13	0	0	0	0	459	417	481	467	0	0	
14	0	0	0	0	425	419	496	599	0	0	
15	0	0	0	0	401	423	510	726	0	0	
0	0	0	0	0	389	428	521	836	0	0	
1	0	0	0	0	389	434	528	920	0	0	
2	0	0	0	0	403	440	532	968	0	0	
3	0	0	0	0	429	447	531	976	0	0	
4	0	0	0	0	463	452	527	943	0	0	
5	0	0	0	0	503	456	518	870	0	0	
6	0	0	0	0	545	458	507	765	0	0	
7	0	0	0	0	584	458	494	638	0	0	
8	0	0	0	0	616	455	480	501	0	0	
9	0	0	0	0	639	450	467	367	0	0	
10	0	0	0	0	651	444	455	249	0	0	
11	0	0	0	0	648	435	446	158	0	0	
12	0	0	0	0	632	424	440	102	0	0	
13	0	0	0	0	604	413	436	87	0	0	
14	0	0	0	0	565	401	435	113	0	0	
15	0	0	0	0	520	390	438	181	0	0	
0	0	0	0	0	474	381	443	283	0	0	
1	0	0	0	0	430	374	450	409	0	0	
2	0	0	0	0	393	371	459	547	0	0	
3	0	0	0	0	367	371	469	684	0	0	
4	0	0	0	0	354	375	479	805	0	0	
5	0	0	0	0	355	383	487	902	0	0	
6	0	0	0	0	369	392	492	963	0	0	
7	0	0	0	0	396	403	494	985	0	0	
8	0	0	0	0	433	414	492	964	0	0	
9	0	0	0	0	475	424	486	902	0	0	
10	0	0	0	0	518	433	477	804	0	0	
11	0	0	0	0	560	439	466	680	0	0	
12	0	0	0	0	595	443	454	542	0	0	
13	0	0	0	0	622	445	444	406	0	0	
14	0	0	0	0	638	445	435	281	0	0	
15	0	0	0	0	641	444	431	183	0	0	
0	0	0	0	0	632	441	431	118	0	0	
1	0	0	0	0	611	438	435	92	0	0	
2	0	0	0	0	580	433	443	107	0	0	
3	0	0	0	0	541	428	453	162	0	0	
4	0	0	0	0	498	421	464	251	0	0	
5	0	0	0	0	454	414	475	364	0	0	
6	0	0	0	0	413	407	484	488	0	0	
7	0	0	0	0	379	399	492	613	0	0	
8	0	0	0	0	356	394	495	726	0	0	
9	0	0	0	0	345	391	496	816	0	0	
10	0	0	0	0	349	390	494	874	0	0	
11	0	0	0	0	367	391	489	896	0	0	
12	0	0	0	0	398	396	483	880	0	0	
13	0	0	0	0	439	401	474	827	0	0	
14	0	0	0	0	485	408	466	743	0	0	
15	0	0	0	0	533	416	458	636	0	0	
0	0	0	0	0	577	423	451	516	0	0	
1	0	0	0	0	614	429	446	398	0	0	
2	0	0	0	0	639	433	442	291	0	0	
3	0	0	0	0	653	436	442	209	0	0	
4	0	0	0	0	653	437	445	159	0	0	
5	0	0	0	0	639	436	451	145	0	0	
6	0	0	0	0	613	434	460	170	0	0	
7	0	0	0	0	579	432	471	232	0	0	
8	0	0	0	0	540	430	484	325	0	0	
9	0	0	0	0	499	428	496	439	0	0	
10	0	0	0	0	462	427	507	563	0	0	
11	0	0	0	0	430	425	514	683	0	0	
12	0	0	0	0	407	423	517	787	0	0	
13	0	0	0	0	394	422	516	866	0	0	
14	0	0	0	0	392	420	509	911	0	0	
15	0	0	0	0	401	417	498	918	0	0	
0	0	0	0	0	420	415	483	883	0	0	
1	0	0	0	0	447	412	465	809	0	0	
2	0	0	0	0	479	409	447	704	0	0	
3	0	0	0	0	512	408	429	577	0	0	
4	0	0	0	0	543	405	414	440	0	0	
5	0	0	0	0	571	404	402	305	0	0	
6	0	0	0	0	591	403	395	186	0	0	
7	0	0	0	0	601	403	394	92	0	0	
8	0	0	0	0	601	402	398	33	0	0	
9	0	0	0	0	590	402	407	13	0	0	
10	0	0	0	0	568	401	418	32	0	0	
11	0	0	0	0	539	399	432	92	0	0	
12	0	0	0	0	504	398	447	183	0	0	
13	0	0	0	0	469	397	460	297	0	0	
14	0	0	0	0	436	396	472	423	0	0	
15	0	0	0	0	409	396	481	548	0	0	
0	0	0	0	0	391	398	487	659	0	0	
1	0	0	0	0	383	401	489	746	0	0	
2	0	0	0	0	386	404	487	798	0	0	
3	0	0	0	0	401	409	481	813	0	0	
4	0	0	0	0	424	414	473	787	0	0	
5	0	0	0	0	455	420	463	722	0	0	
6	0	0	0	0	489	426	453	627	0	0	
7	0	0	0	0	524	432	444	509	0	0	
8	0	0	0	0	556	437	436	382	0	0	
9	0	0	0	0	582	441	430	257	0	0	
10	0	0	0	0	599	443	428	147	0	0	
11	0	0	0	0	605	444	428	63	0	0	
12	0	0	0	0	600	441	431	11	0	0	
13	0	0	0	0	582	436	436	0	0	0	
14	0	0	0	0	555	430	443	25	0	0	
15	0	0	0	0	520	422	452	90	0	0	
0	0	0	0	0	482	412	461	188	0	0	
1	0	0	0	0	444	403	469	307	0	0	
2	0	0	0	0	411	394	477	440	0	0	
3	0	0	0	0	386	387	483	571	0	0	
4	0	0	0	0	371	380	486	687	0	0	
5	0	0	0	0	370	376	486	778	0	0	
6	0	0	0	0	383	374	483	835	0	0	
7	0	0	0	0	408	375	478	852	0	0	
8	0	0	0	0	444	377	470	828	0	0	
9	0	0	0	0	487	382	460	763	0	0	
10	0	0	0	0	533	388	450	664	0	0	
11	0	0	0	0	579	394	440	540	0	0	
12	0	0	0	0	620	401	431	405	0	0	
13	0	0	0	0	653	407	423	271	0	0	
14	0	0	0	0	675	412	419	151	0	0	
15	0	0	0	0	684	415	418	55	0	0	
0	0	0	0	0	679	418	422	0	0	0	
1	0	0	0	0	662	419	429	0	0	0	
2	0	0	0	0	633	420	440	4	0	0	
3	0	0	0	0	598	421	454	56	0	0	
4	0	0	0	0	560	423	470	142	0	0	
5	0	0	0	0	522	425	486	252	0	0	
6	0	0	0	0	489	428	501	375	0	0	
7	0	0	0	0	465	432	514	499	0	0	
8	0	0	0	0	451	438	524	611	0	0	
9	0	0	0	0	450	444	529	701	0	0	
10	0	0	0	0	461	449	528	758	0	0	
11	0	0	0	0	483	455	523	777	0	0	
12	0	0	0	0	515	460	513	755	0	0	
13	0	0	0	0	552	465	500	693	0	0	
14	0	0	0	0	591	467	484	598	0	0	
15	0	0	0	0	628	468	467	479	0	0	
0	0	0	0	0	659	466	448	347	0	0	
1	0	0	0	0	681	461	432	217	0	0	
2	0	0	0	0	692	455	418	102	0	0	
3	0	0	0	0	691	448	408	10	0	0	
4	0	0	0	0	678	439	403	0	0	0	
5	0	0	0	0	654	430	402	0	0	0	
6	0	0	0	0	619	421	407	0	0	0	
7	0	0	0	0	579	412	415	51	0	0	
8	0	0	0	0	536	406	426	135	0	0	
9	0	0	0	0	495	401	439	245	0	0	
10	0	0	0	0	458	398	453	368	0	0	
11	0	0	0	0	430	397	465	493	0	0	
12	0	0	0	0	412	399	476	608	0	0	
13	0	0	0	0	408	403	484	701	0	0	
14	0	0	0	0	416	410	488	764	0	0	
15	0	0	0	0	436	418	489	791	0	0	
0	0	0	0	0	467	426	486	780	0	0	
1	0	0	0	0	505	435	480	732	0	0	
2	0	0	0	0	547	442	471	654	0	0	
3	0	0	0	0	587	447	459	552	0	0	
4	0	0	0	0	622	450	446	440	0	0	
5	0	0	0	0	649	450	433	327	0	0	
6	0	0	0	0	664	447	422	227	0	0	
7	0	0	0	0	667	442	414	150	0	0	
8	0	0	0	0	656	434	408	101	0	0	
9	0	0	0	0	632	424	405	86	0	0	
10	0	0	0	0	597	412	405	107	0	0	
11	0	0	0	0	554	399	408	163	0	0	
12	0	0	0	0	508	387	412	247	0	0	
13	0	0	0	0	463	375	417	351	0	0	
14	0	0	0	0	423	364	423	465	0	0	
15	0	0	0	0	393	357	428	577	0	0	
0	0	0	0	0	376	354	432	677	0	0	
1	0	0	0	0	373	354	435	754	0	0	
2	0	0	0	0	386	358	436	801	0	0	
3	0	0	0	0	414	367	436	814	0	0	
4	0	0	0	0	455	378	434	790	0	0	
5	0	0	0	0	505	391	432	731	0	0	
6	0	0	0	0	560	406	430	643	0	0	
7	0	0	0	0	614	422	428	536	0	0	
8	0	0	0	0	664	436	428	419	0	0	
9	0	0	0	0	704	448	429	303	0	0	
10	0	0	0	0	731	457	431	201	0	0	
11	0	0	0	0	743	464	435	121	0	0	
12	0	0	0	0	738	467	441	72	0	0	
13	0	0	0	0	717	467	448	57	0	0	
14	0	0	0	0	681	463	456	81	0	0	
15	0	0	0	0	634	459	465	140	0	0	
0	0	0	0	0	582	453	473	229	0	0	
1	0	0	0	0	527	447	482	340	0	0	
2	0	0	0	0	478	442	490	461	0	0	
3	0	0	0	0	438	439	496	580	0	0	
4	0	0	0	0	409	436	499	687	0	0	
5	0	0	0	0	396	436	501	768	0	0	
6	0	0	0	0	399	438	499	817	0	0	
7	0	0	0	0	416	440	494	830	0	0	
8	0	0	0	0	446	444	487	802	0	0	
9	0	0	0	0	485	449	477	738	0	0	
10	0	0	0	0	528	452	464	644	0	0	
11	0	0	0	0	571	454	451	528	0	0	
12	0	0	0	0	608	454	436	402	0	0	
13	0	0	0	0	637	451	420	278	0	0	
14	0	0	0	0	655	446	407	167	0	0	
15	0	0	0	0	658	438	395	80	0	0	
0	0	0	0	0	648	429	385	24	0	0	
1	0	0	0	0	624	419	379	5	0	0	
2	0	0	0	0	591	408	376	24	0	0	
3	0	0	0	0	549	398	377	82	0	0	
4	0	0	0	0	505	389	382	171	0	0	
5	0	0	0	0	463	383	389	284	0	0	
6	0	0	0	0	426	379	399	408	0	0	
7	0	0	0	0	400	380	411	533	0	0	
8	0	0	0	0	388	385	424	647	0	0	
9	0	0	0	0	391	395	438	736	0	0	
10	0	0	0	0	410	408	451	794	0	0	
11	0	0	0	0	443	424	462	813	0	0	
12	0	0	0	0	487	442	473	792	0	0	
13	0	0	0	0	540	462	482	732	0	0	
14	0	0	0	0	596	481	490	639	0	0	
15	0	0	0	0	651	499	496	524	0	0	
0	0	0	0	0	700	513	500	396	0	0	
1	0	0	0	0	739	524	503	270	0	0	
2	0	0	0	0	764	529	504	157	0	0	
3	0	0	0	0	774	528	502	65	0	0	
4	0	0	0	0	765	520	499	6	0	0	
5	0	0	0	0	741	507	493	0	0	0	
6	0	0	0	0	700	489	486	5	0	0	
7	0	0	0	0	647	468	477	51	0	0	
8	0	0	0	0	588	445	468	129	0	0	
9	0	0	0	0	526	422	457	229	0	0	
10	0	0	0	0	470	400	447	340	0	0	
11	0	0	0	0	423	384	438	453	0	0	
12	0	0	0	0	390	372	430	555	0	0	
13	0	0	0	0	375	367	425	636	0	0	
14	0	0	0	0	378	368	421	688	0	0	
15	0	0	0	0	399	376	421	704	0	0	
0	0	0	0	0	437	390	422	684	0	0	
1	0	0	0	0	486	407	425	628	0	0	
2	0	0	0	0	543	427	430	543	0	0	
3	0	0	0	0	601	447	435	437	0	0	
4	0	0	0	0	655	466	441	320	0	0	
5	0	0	0	0	702	483	447	205	0	0	
6	0	0	0	0	736	495	453	102	0	0	
7	0	0	0	0	756	503	459	20	0	0	
8	0	0	0	0	760	506	466	0	0	0	
9	0	0	0	0	745	504	471	0	0	0	
10	0	0	0	0	715	496	475	1	0	0	
11	0	0	0	0	671	484	477	46	0	0	
12	0	0	0	0	619	469	476	119	0	0	
13	0	0	0	0	561	453	474	212	0	0	
14	0	0	0	0	504	436	469	315	0	0	
15	0	0	0	0	454	422	463	418	0	0	
0	0	0	0	0	415	409	455	510	0	0	
1	0	0	0	0	389	400	447	580	0	0	
2	0	0	0	0	380	395	439	623	0	0	
3	0	0	0	0	386	394	430	632	0	0	
4	0	0	0	0	408	396	423	609	0	0	
5	0	0	0	0	443	402	416	553	0	0	
6	0	0	0	0	487	410	411	473	0	0	
7	0	0	0	0	536	419	408	376	0	0	
8	0	0	0	0	583	428	407	272	0	0	
9	0	0	0	0	627	437	408	172	0	0	
10	0	0	0	0	660	444	412	83	0	0	
11	0	0	0	0	682	449	417	16	0	0	
12	0	0	0	0	689	451	424	0	0	0	
13	0	0	0	0	683	451	432	0	0	0	
14	0	0	0	0	662	449	440	22	0	0	
15	0	0	0	0	631	444	448	84	0	0	
0	0	0	0	0	593	439	456	175	0	0	
1	0	0	0	0	553	433	464	285	0	0	
2	0	0	0	0	514	428	469	406	0	0	
3	0	0	0	0	482	423	473	526	0	0	
4	0	0	0	0	460	422	474	633	0	0	
5	0	0	0	0	450	422	474	717	0	0	
6	0	0	0	0	455	424	471	768	0	0	
7	0	0	0	0	472	429	465	784	0	0	
8	0	0	0	0	500	436	459	761	0	0	
9	0	0	0	0	537	444	451	702	0	0	
10	0	0	0	0	579	452	444	612	0	0	
11	0	0	0	0	622	461	436	503	0	0	
12	0	0	0	0	662	469	431	384	0	0	
13	0	0	0	0	696	476	428	267	0	0	
14	0	0	0	0	720	481	427	164	0	0	
15	0	0	0	0	734	484	429	84	0	0	
0	0	0	0	0	735	485	435	35	0	0	
1	0	0	0	0	723	484	443	21	0	0	
2	0	0	0	0	699	481	452	45	0	0	
3	0	0	0	0	665	475	462	104	0	0	
4	0	0	0	0	624	467	471	193	0	0	
5	0	0	0	0	579	458	477	302	0	0	
6	0	0	0	0	534	447	480	420	0	0	
7	0	0	0	0	493	436	480	536	0	0	
8	0	0	0	0	460	425	476	638	0	0	
9	0	0	0	0	438	416	468	717	0	0	
10	0	0	0	0	429	410	458	766	0	0	
11	0	0	0	0	435	408	448	779	0	0	
12	0	0	0	0	454	411	438	757	0	0	
13	0	0	0	0	483	417	430	701	0	0	
14	0	0	0	0	522	427	426	617	0	0	
15	0	0	0	0	564	440	424	515	0	0	
0	0	0	0	0	606	454	427	404	0	0	
1	0	0	0	0	644	468	432	295	0	0	
2	0	0	0	0	674	481	440	200	0	0	
3	0	0	0	0	692	491	451	126	0	0	
4	0	0	0	0	697	498	462	81	0	0	
5	0	0	0	0	688	500	472	70	0	0	
6	0	0	0	0	666	499	481	93	0	0	
7	0	0	0	0	632	494	489	151	0	0	
8	0	0	0	0	591	486	494	236	0	0	
9	0	0	0	0	547	476	495	340	0	0	
10	0	0	0	0	504	465	493	452	0	0	
11	0	0	0	0	466	454	488	560	0	0	
12	0	0	0	0	437	444	480	654	0	0	
13	0	0	0	0	419	435	470	724	0	0	
14	0	0	0	0	415	428	457	763	0	0	
15	0	0	0	0	424	424	443	767	0	0	
0	0	0	0	0	446	423	430	736	0	0	
1	0	0	0	0	478	425	419	674	0	0	
2	0	0	0	0	519	432	412	588	0	0	
3	0	0	0	0	563	441	408	487	0	0	
4	0	0	0	0	608	452	410	381	0	0	
5	0	0	0	0	647	463	415	281	0	0	
6	0	0	0	0	679	475	424	199	0	0	
7	0	0	0	0	700	484	436	139	0	0	
8	0	0	0	0	707	491	451	111	0	0	
9	0	0	0	0	702	494	465	116	0	0	
10	0	0	0	0	683	493	478	156	0	0	
11	0	0	0	0	654	489	490	228	0	0	
12	0	0	0	0	618	483	500	324	0	0	
13	0	0	0	0	578	475	505	435	0	0	
14	0	0	0	0	539	465	507	551	0	0	
15	0	0	0	0	505	455	505	659	0	0	
0	0	0	0	0	479	446	499	748	0	0	
1	0	0	0	0	465	439	491	812	0	0	
2	0	0	0	0	463	434	479	841	0	0	
3	0	0	0	0	475	432	467	834	0	0	
4	0	0	0	0	497	432	455	790	0	0	
5	0	0	0	0	528	435	443	711	0	0	
6	0	0	0	0	564	440	433	606	0	0	
7	0	0	0	0	600	446	423	483	0	0	
8	0	0	0	0	632	452	416	352	0	0	
9	0	0	0	0	657	457	411	227	0	0	
10	0	0	0	0	671	459	408	119	0	0	
11	0	0	0	0	674	460	406	34	0	0	
12	0	0	0	0	664	456	405	0	0	0	
13	0	0	0	0	640	449	405	0	0	0	
14	0	0	0	0	606	439	405	12	0	0	
15	0	0	0	0	562	424	403	67	0	0	
0	0	0	0	0	514	407	399	153	0	0	
1	0	0	0	0	464	387	392	258	0	0	
2	0	0	0	0	417	365	382	372	0	0	
3	0	0	0	0	377	343	369	483	0	0	
4	0	0	0	0	348	323	353	581	0	0	
5	0	0	0	0	332	306	337	656	0	0	
6	0	0	0	0	331	293	321	700	0	0	
7	0	0	0	0	344	286	307	709	0	0	
8	0	0	0	0	372	283	296	684	0	0	
9	0	0	0	0	411	287	289	625	0	0	
10	0	0	0	0	456	295	287	542	0	0	
11	0	0	0	0	505	309	291	441	0	0	
12	0	0	0	0	551	324	301	334	0	0	
13	0	0	0	0	591	342	316	231	0	0	
14	0	0	0	0	622	359	334	142	0	0	
15	0	0	0	0	641	377	357	77	0	0	
0	0	0	0	0	647	391	380	42	0	0	
1	0	0	0	0	640	404	404	41	0	0	
2	0	0	0	0	622	413	428	77	0	0	
3	0	0	0	0	594	418	448	145	0	0	
4	0	0	0	0	560	420	465	240	0	0	
5	0	0	0	0	524	420	479	353	0	0	
6	0	0	0	0	491	420	488	474	0	0	
7	0	0	0	0	464	419	495	591	0	0	
8	0	0	0	0	447	420	497	694	0	0	
9	0	0	0	0	442	423	497	772	0	0	
10	0	0	0	0	450	428	495	820	0	0	
11	0	0	0	0	470	436	491	833	0	0	
12	0	0	0	0	500	446	486	808	0	0	
13	0	0	0	0	539	458	481	749	0	0	
14	0	0	0	0	581	472	476	662	0	0	
15	0	0	0	0	623	485	472	555	0	0	
0	0	0	0	0	661	497	467	438	0	0	
1	0	0	0	0	691	507	465	324	0	0	
2	0	0	0	0	711	515	462	224	0	0	
3	0	0	0	0	716	518	460	146	0	0	
4	0	0	0	0	707	516	459	98	0	0	
5	0	0	0	0	683	509	457	83	0	0	
6	0	0	0	0	645	497	455	103	0	0	
7	0	0	0	0	597	483	453	158	0	0	
8	0	0	0	0	544	466	450	240	0	0	
9	0	0	0	0	491	449	448	341	0	0	
10	0	0	0	0	442	433	446	451	0	0	
11	0	0	0	0	403	420	444	560	0	0	
12	0	0	0	0	377	412	444	655	0	0	
13	0	0	0	0	368	409	444	728	0	0	
14	0	0	0	0	376	412	446	772	0	0	
15	0	0	0	0	401	421	449	783	0	0	
0	0	0	0	0	440	434	452	759	0	0	
1	0	0	0	0	491	451	457	701	0	0	
2	0	0	0	0	546	468	461	616	0	0	
3	0	0	0	0	603	486	465	512	0	0	
4	0	0	0	0	655	502	469	400	0	0	
5	0	0	0	0	697	514	472	290	0	0	
6	0	0	0	0	727	522	474	194	0	0	
7	0	0	0	0	742	526	477	120	0	0	
8	0	0	0	0	740	526	479	76	0	0	
9	0	0	0	0	722	521	481	67	0	0	
10	0	0	0	0	691	512	483	94	0	0	
11	0	0	0	0	648	502	485	155	0	0	
12	0	0	0	0	600	489	487	244	0	0	
13	0	0	0	0	551	478	489	353	0	0	
14	0	0	0	0	506	467	490	472	0	0	
15	0	0	0	0	469	458	491	588	0	0	
0	0	0	0	0	444	452	490	690	0	0	
1	0	0	0	0	434	451	490	768	0	0	
2	0	0	0	0	439	452	487	814	0	0	
3	0	0	0	0	457	456	485	825	0	0	
4	0	0	0	0	488	463	482	798	0	0	
5	0	0	0	0	527	472	478	735	0	0	
6	0	0	0	0	570	481	475	643	0	0	
7	0	0	0	0	612	490	472	532	0	0	
8	0	0	0	0	651	496	469	412	0	0	
9	0	0	0	0	680	501	468	295	0	0	
10	0	0	0	0	699	503	467	194	0	0	
11	0	0	0	0	704	502	470	116	0	0	
12	0	0	0	0	695	498	472	71	0	0	
13	0	0	0	0	672	491	476	61	0	0	
14	0	0	0	0	636	481	480	90	0	0	
15	0	0	0	0	590	470	484	155	0	0	
0	0	0	0	0	538	458	489	249	0	0	
1	0	0	0	0	486	445	491	364	0	0	
2	0	0	0	0	437	433	491	487	0	0	
3	0	0	0	0	396	422	489	607	0	0	
4	0	0	0	0	366	412	485	712	0	0	
5	0	0	0	0	351	404	479	791	0	0	
6	0	0	0	0	349	399	470	837	0	0	
7	0	0	0	0	362	396	459	846	0	0	
8	0	0	0	0	389	395	447	814	0	0	
9	0	0	0	0	425	397	436	744	0	0	
10	0	0	0	0	467	401	426	644	0	0	
11	0	0	0	0	512	407	417	523	0	0	
12	0	0	0	0	553	414	412	393	0	0	
13	0	0	0	0	589	422	411	267	0	0	
14	0	0	0	0	615	430	415	158	0	0	
15	0	0	0	0	632	440	425	75	0	0	
0	0	0	0	0	636	450	440	29	0	0	
1	0	0	0	0	630	460	460	21	0	0	
2	0	0	0	0	611	469	482	55	0	0	
3	0	0	0	0	586	476	504	127	0	0	
4	0	0	0	0	554	482	526	230	0	0	
5	0	0	0	0	519	486	544	354	0	0	
6	0	0	0	0	486	487	557	487	0	0	
7	0	0	0	0	456	486	565	615	0	0	
8	0	0	0	0	433	483	566	728	0	0	
9	0	0	0	0	420	479	562	813	0	0	
10	0	0	0	0	417	474	551	863	0	0	
11	0	0	0	0	426	469	536	874	0	0	
12	0	0	0	0	445	465	519	846	0	0	
13	0	0	0	0	473	463	502	780	0	0	
14	0	0	0	0	507	462	485	684	0	0	
15	0	0	0	0	543	463	471	569	0	0	
0	0	0	0	0	579	466	462	445	0	0	
1	0	0	0	0	610	470	456	326	0	0	
2	0	0	0	0	634	475	456	222	0	0	
3	0	0	0	0	647	478	461	144	0	0	
4	0	0	0	0	648	481	468	98	0	0	
5	0	0	0	0	637	481	478	89	0	0	
6	0	0	0	0	614	480	489	119	0	0	
7	0	0	0	0	582	477	501	185	0	0	
8	0	0	0	0	544	473	511	280	0	0	
9	0	0	0	0	504	467	519	396	0	0	
10	0	0	0	0	466	461	525	521	0	0	
11	0	0	0	0	435	455	528	643	0	0	
12	0	0	0	0	412	449	528	751	0	0	
13	0	0	0	0	402	445	525	834	0	0	
14	0	0	0	0	404	443	519	885	0	0	
15	0	0	0	0	418	441	511	899	0	0	
0	0	0	0	0	443	443	501	874	0	0	
1	0	0	0	0	476	446	491	812	0	0	
2	0	0	0	0	514	451	481	719	0	0	
3	0	0	0	0	554	457	472	606	0	0	
4	0	0	0	0	590	463	464	481	0	0	
5	0	0	0	0	619	468	459	359	0	0	
6	0	0	0	0	640	473	455	252	0	0	
7	0	0	0	0	649	476	456	169	0	0	
8	0	0	0	0	645	478	459	118	0	0	
9	0	0	0	0	628	478	464	104	0	0	
10	0	0	0	0	602	477	472	130	0	0	
11	0	0	0	0	566	475	482	193	0	0	
12	0	0	0	0	525	473	491	286	0	0	
13	0	0	0	0	482	470	499	400	0	0	
14	0	0	0	0	441	465	504	524	0	0	
15	0	0	0	0	406	461	507	644	0	0	
0	0	0	0	0	380	457	505	751	0	0	
1	0	0	0	0	365	454	500	833	0	0	
2	0	0	0	0	364	452	492	884	0	0	
3	0	0	0	0	376	451	482	899	0	0	
4	0	0	0	0	399	452	470	875	0	0	
5	0	0	0	0	434	455	459	816	0	0	
6	0	0	0	0	475	459	448	728	0	0	
7	0	0	0	0	518	465	441	619	0	0	
8	0	0	0	0	560	472	436	500	0	0	
9	0	0	0	0	595	478	435	385	0	0	
10	0	0	0	0	622	484	438	284	0	0	
11	0	0	0	0	637	490	446	208	0	0	
12	0	0	0	0	638	494	455	164	0	0	
13	0	0	0	0	626	496	467	156	0	0	
14	0	0	0	0	602	496	480	184	0	0	
15	0	0	0	0	567	494	492	247	0	0	
0	0	0	0	0	526	490	502	338	0	0	
1	0	0	0	0	483	485	510	448	0	0	
2	0	0	0	0	441	479	513	565	0	0	
3	0	0	0	0	407	472	513	679	0	0	
4	0	0	0	0	382	466	508	777	0	0	
5	0	0	0	0	369	461	500	853	0	0	
6	0	0	0	0	369	458	489	897	0	0	
7	0	0	0	0	383	457	477	907	0	0	
8	0	0	0	0	409	458	464	879	0	0	
9	0	0	0	0	444	460	451	816	0	0	
10	0	0	0	0	483	464	438	723	0	0	
11	0	0	0	0	524	467	427	611	0	0	
12	0	0	0	0	560	470	418	488	0	0	
13	0	0	0	0	589	472	410	367	0	0	
14	0	0	0	0	607	471	405	259	0	0	
15	0	0	0	0	614	468	403	176	0	0	
0	0	0	0	0	606	464	403	122	0	0	
1	0	0	0	0	587	459	407	104	0	0	
2	0	0	0	0	557	453	414	123	0	0	
3	0	0	0	0	520	447	423	178	0	0	
4	0	0	0	0	480	443	435	262	0	0	
5	0	0	0	0	440	439	448	367	0	0	
6	0	0	0	0	405	437	460	482	0	0	
7	0	0	0	0	377	437	472	594	0	0	
8	0	0	0	0	361	439	481	692	0	0	
9	0	0	0	0	357	442	488	767	0	0	
10	0	0	0	0	366	447	491	811	0	0	
11	0	0	0	0	387	452	490	819	0	0	
12	0	0	0	0	418	456	486	790	0	0	
13	0	0	0	0	456	462	478	726	0	0	
14	0	0	0	0	498	466	469	633	0	0	
15	0	0	0	0	540	469	459	522	0	0	
0	0	0	0	0	577	472	448	403	0	0	
1	0	0	0	0	608	474	439	287	0	0	
2	0	0	0	0	628	475	433	187	0	0	
3	0	0	0	0	638	476	430	110	0	0	
4	0	0	0	0	635	475	431	66	0	0	
5	0	0	0	0	622	474	435	59	0	0	
6	0	0	0	0	599	473	443	91	0	0	
7	0	0	0	0	568	471	454	159	0	0	
8	0	0	0	0	533	469	467	256	0	0	
9	0	0	0	0	496	466	479	373	0	0	
10	0	0	0	0	462	463	490	497	0	0	
11	0	0	0	0	432	459	498	616	0	0	
12	0	0	0	0	409	455	503	718	0	0	
13	0	0	0	0	396	450	503	792	0	0	
14	0	0	0	0	393	447	499	833	0	0	
15	0	0	0	0	400	444	492	835	0	0	
0	0	0	0	0	416	442	481	799	0	0	
1	0	0	0	0	439	441	470	726	0	0	
2	0	0	0	0	467	442	457	625	0	0	
3	0	0	0	0	497	444	445	506	0	0	
4	0	0	0	0	524	445	435	380	0	0	
5	0	0	0	0	546	447	426	260	0	0	
6	0	0	0	0	559	448	421	157	0	0	
7	0	0	0	0	561	448	419	80	0	0	
8	0	0	0	0	552	448	419	36	0	0	
9	0	0	0	0	533	447	424	31	0	0	
10	0	0	0	0	505	445	431	64	0	0	
11	0	0	0	0	470	443	441	134	0	0	
12	0	0	0	0	433	441	452	232	0	0	
13	0	0	0	0	397	440	464	350	0	0	
14	0	0	0	0	365	439	476	478	0	0	
15	0	0	0	0	340	440	487	603	0	0	
0	0	0	0	0	326	443	496	712	0	0	
1	0	0	0	0	323	448	501	796	0	0	
2	0	0	0	0	333	454	504	846	0	0	
3	0	0	0	0	354	460	503	858	0	0	
4	0	0	0	0	384	467	499	831	0	0	
5	0	0	0	0	422	473	491	766	0	0	
6	0	0	0	0	462	479	482	671	0	0	
7	0	0	0	0	499	482	471	553	0	0	
8	0	0	0	0	533	484	460	427	0	0	
9	0	0	0	0	559	483	449	302	0	0	
10	0	0	0	0	574	480	440	192	0	0	
11	0	0	0	0	576	474	433	104	0	0	
12	0	0	0	0	567	467	430	49	0	0	
13	0	0	0	0	545	457	428	29	0	0	
14	0	0	0	0	514	446	429	48	0	0	
15	0	0	0	0	477	435	432	104	0	0	
0	0	0	0	0	438	425	438	192	0	0	
1	0	0	0	0	400	417	444	303	0	0	
2	0	0	0	0	367	411	451	427	0	0	
3	0	0	0	0	342	408	459	550	0	0	
4	0	0	0	0	328	408	466	662	0	0	
5	0	0	0	0	327	411	472	752	0	0	
6	0	0	0	0	339	417	477	812	0	0	
7	0	0	0	0	363	426	480	836	0	0	
8	0	0	0	0	397	435	480	824	0	0	
9	0	0	0	0	437	444	479	775	0	0	
10	0	0	0	0	481	454	476	696	0	0	
11	0	0	0	0	523	461	472	596	0	0	
12	0	0	0	0	560	467	468	487	0	0	
13	0	0	0	0	590	471	465	380	0	0	
14	0	0	0	0	608	473	463	285	0	0	
15	0	0	0	0	614	472	463	215	0	0	
0	0	0	0	0	607	467	463	174	0	0	
1	0	0	0	0	588	460	464	168	0	0	
2	0	0	0	0	559	451	467	199	0	0	
3	0	0	0	0	521	440	470	263	0	0	
4	0	0	0	0	480	429	473	356	0	0	
5	0	0	0	0	437	418	476	467	0	0	
6	0	0	0	0	397	407	476	584	0	0	
7	0	0	0	0	364	397	476	696	0	0	
8	0	0	0	0	340	390	474	793	0	0	
9	0	0	0	0	327	385	470	866	0	0	
10	0	0	0	0	327	384	464	906	0	0	
11	0	0	0	0	339	385	457	911	0	0	
12	0	0	0	0	363	391	451	880	0	0	
13	0	0	0	0	396	399	444	814	0	0	
14	0	0	0	0	436	409	440	722	0	0	
15	0	0	0	0	480	422	439	612	0	0	
0	0	0	0	0	521	434	440	496	0	0	
1	0	0	0	0	559	447	445	384	0	0	
2	0	0	0	0	588	458	454	290	0	0	
3	0	0	0	0	606	468	467	221	0	0	
4	0	0	0	0	611	475	481	185	0	0	
5	0	0	0	0	604	479	496	185	0	0	
6	0	0	0	0	585	479	512	222	0	0	
7	0	0	0	0	556	476	527	294	0	0	
8	0	0	0	0	521	472	542	395	0	0	
9	0	0	0	0	484	466	553	512	0	0	
10	0	0	0	0	449	459	562	636	0	0	
11	0	0	0	0	419	454	568	755	0	0	
12	0	0	0	0	396	449	571	856	0	0	
13	0	0	0	0	385	447	569	932	0	0	
14	0	0	0	0	385	447	565	975	0	0	
15	0	0	0	0	398	449	557	981	0	0	
0	0	0	0	0	420	454	548	948	0	0	
1	0	0	0	0	452	460	537	878	0	0	
2	0	0	0	0	488	467	525	778	0	0	
3	0	0	0	0	526	473	513	656	0	0	
4	0	0	0	0	560	478	502	525	0	0	
5	0	0	0	0	586	480	491	396	0	0	
6	0	0	0	0	601	480	482	281	0	0	
7	0	0	0	0	603	476	475	191	0	0	
8	0	0	0	0	591	469	470	135	0	0	
9	0	0	0	0	567	460	467	117	0	0	
10	0	0	0	0	532	451	467	142	0	0	
11	0	0	0	0	490	441	470	206	0	0	
12	0	0	0	0	447	432	476	303	0	0	
13	0	0	0	0	406	427	484	426	0	0	
14	0	0	0	0	371	424	494	562	0	0	
15	0	0	0	0	347	424	504	698	0	0	
0	0	0	0	0	336	429	515	822	0	0	
1	0	0	0	0	339	437	524	923	0	0	
2	0	0	0	0	358	448	532	993	0	0	
3	0	0	0	0	390	460	538	1020	0	0	
4	0	0	0	0	432	472	540	1016	0	0	
5	0	0	0	0	480	483	540	969	0	0	
6	0	0	0	0	530	494	536	887	0	0	
7	0	0	0	0	578	500	529	777	0	0	
8	0	0	0	0	618	504	521	651	0	0	
9	0	0	0	0	649	505	511	521	0	0	
10	0	0	0	0	667	502	502	399	0	0	
11	0	0	0	0	672	496	492	299	0	0	
12	0	0	0	0	663	487	484	230	0	0	
13	0	0	0	0	639	476	477	196	0	0	
14	0	0	0	0	606	464	473	202	0	0	
15	0	0	0	0	565	452	471	246	0	0	
0	0	0	0	0	519	441	471	323	0	0	
1	0	0	0	0	475	432	472	425	0	0	
2	0	0	0	0	435	424	476	540	0	0	
3	0	0	0	0	402	419	479	656	0	0	
4	0	0	0	0	380	417	482	762	0	0	
5	0	0	0	0	371	418	486	847	0	0	
6	0	0	0	0	375	422	488	904	0	0	
7	0	0	0	0	391	428	490	927	0	0	
8	0	0	0	0	420	436	490	915	0	0	
9	0	0	0	0	455	445	489	866	0	0	
10	0	0	0	0	495	455	487	787	0	0	
11	0	0	0	0	533	463	485	686	0	0	
12	0	0	0	0	568	471	483	572	0	0	
13	0	0	0	0	594	477	480	459	0	0	
14	0	0	0	0	610	480	479	356	0	0	
15	0	0	0	0	615	482	479	276	0	0	
0	0	0	0	0	607	482	481	227	0	0	
1	0	0	0	0	588	480	485	212	0	0	
2	0	0	0	0	560	478	491	236	0	0	
3	0	0	0	0	526	475	498	296	0	0	
4	0	0	0	0	491	473	508	388	0	0	
5	0	0	0	0	456	471	517	501	0	0	
6	0	0	0	0	428	470	526	625	0	0	
7	0	0	0	0	406	470	534	748	0	0	
8	0	0	0	0	393	471	537	857	0	0	
9	0	0	0	0	391	472	538	945	0	0	
10	0	0	0	0	401	473	534	1002	0	0	
11	0	0	0	0	421	476	527	1020	0	0	
12	0	0	0	0	449	477	518	1008	0	0	
13	0	0	0	0	484	480	506	956	0	0	
14	0	0	0	0	521	482	494	874	0	0	
15	0	0	0	0	558	484	482	768	0	0	
0	0	0	0	0	591	486	472	649	0	0	
1	0	0	0	0	617	487	465	530	0	0	
2	0	0	0	0	635	487	461	420	0	0	
3	0	0	0	0	642	487	460	333	0	0	
4	0	0	0	0	639	486	463	277	0	0	
5	0	0	0	0	624	483	470	257	0	0	
6	0	0	0	0	600	480	479	274	0	0	
7	0	0	0	0	569	477	490	327	0	0	
8	0	0	0	0	534	473	501	411	0	0	
9	0	0	0	0	498	468	510	516	0	0	
10	0	0	0	0	464	464	518	630	0	0	
11	0	0	0	0	436	460	523	741	0	0	
12	0	0	0	0	417	457	523	838	0	0	
13	0	0	0	0	408	455	520	912	0	0	
14	0	0	0	0	411	455	514	955	0	0	
15	0	0	0	0	425	455	505	961	0	0	
0	0	0	0	0	450	458	495	929	0	0	
1	0	0	0	0	482	462	483	860	0	0	
2	0	0	0	0	519	466	472	760	0	0	
3	0	0	0	0	556	470	462	639	0	0	
4	0	0	0	0	591	474	453	507	0	0	
5	0	0	0	0	619	476	448	377	0	0	
6	0	0	0	0	639	477	445	262	0	0	
7	0	0	0	0	647	477	446	171	0	0	
8	0	0	0	0	646	475	451	113	0	0	
9	0	0	0	0	632	471	459	94	0	0	
10	0	0	0	0	608	466	468	113	0	0	
11	0	0	0	0	576	460	478	171	0	0	
12	0	0	0	0	538	453	487	259	0	0	
13	0	0	0	0	499	447	496	370	0	0	
14	0	0	0	0	462	440	503	492	0	0	
15	0	0	0	0	431	435	507	613	0	0	
0	0	0	0	0	408	430	508	720	0	0	
1	0	0	0	0	396	428	506	805	0	0	
2	0	0	0	0	396	428	502	859	0	0	
3	0	0	0	0	408	431	496	878	0	0	
4	0	0	0	0	432	435	490	860	0	0	
5	0	0	0	0	463	442	483	804	0	0	
6	0	0	0	0	500	450	476	718	0	0	
7	0	0	0	0	539	458	469	609	0	0	
8	0	0	0	0	574	465	465	489	0	0	
9	0	0	0	0	604	471	461	370	0	0	
10	0	0	0	0	624	475	459	263	0	0	
11	0	0	0	0	633	476	459	179	0	0	
12	0	0	0	0	629	475	460	124	0	0	
13	0	0	0	0	613	472	463	106	0	0	
14	0	0	0	0	587	467	467	125	0	0	
15	0	0	0	0	551	460	472	180	0	0	
0	0	0	0	0	512	452	476	265	0	0	
1	0	0	0	0	472	444	480	372	0	0	
2	0	0	0	0	435	437	482	488	0	0	
3	0	0	0	0	404	431	482	603	0	0	
4	0	0	0	0	385	426	480	705	0	0	
5	0	0	0	0	377	423	476	784	0	0	
6	0	0	0	0	381	421	469	832	0	0	
7	0	0	0	0	398	422	461	847	0	0	
8	0	0	0	0	427	425	451	826	0	0	
9	0	0	0	0	463	430	441	770	0	0	
10	0	0	0	0	506	437	433	688	0	0	
11	0	0	0	0	549	444	425	586	0	0	
12	0	0	0	0	589	452	420	476	0	0	
13	0	0	0	0	622	459	419	370	0	0	
14	0	0	0	0	646	465	420	279	0	0	
15	0	0	0	0	659	470	426	211	0	0	
0	0	0	0	0	660	473	435	173	0	0	
1	0	0	0	0	650	475	446	170	0	0	
2	0	0	0	0	630	475	460	203	0	0	
3	0	0	0	0	603	474	475	270	0	0	
4	0	0	0	0	572	473	490	363	0	0	
5	0	0	0	0	540	472	503	474	0	0	
6	0	0	0	0	511	470	512	591	0	0	
7	0	0	0	0	489	469	519	704	0	0	
8	0	0	0	0	475	468	520	802	0	0	
9	0	0	0	0	472	467	518	876	0	0	
10	0	0	0	0	478	468	510	920	0	0	
11	0	0	0	0	495	468	499	928	0	0	
12	0	0	0	0	521	470	484	903	0	0	
13	0	0	0	0	552	471	468	843	0	0	
14	0	0	0	0	585	473	452	757	0	0	
15	0	0	0	0	618	475	438	654	0	0	
0	0	0	0	0	647	476	425	543	0	0	
1	0	0	0	0	669	477	417	438	0	0	
2	0	0	0	0	681	477	414	347	0	0	
3	0	0	0	0	683	476	415	283	0	0	
4	0	0	0	0	673	474	420	249	0	0	
5	0	0	0	0	652	471	430	252	0	0	
6	0	0	0	0	623	467	442	291	0	0	
7	0	0	0	0	588	462	456	365	0	0	
8	0	0	0	0	551	459	472	464	0	0	
9	0	0	0	0	515	455	486	581	0	0	
10	0	0	0	0	486	454	500	703	0	0	
11	0	0	0	0	466	454	511	819	0	0	
12	0	0	0	0	457	456	520	919	0	0	
13	0	0	0	0	460	461	526	993	0	0	
14	0	0	0	0	476	467	528	1021	0	0	
15	0	0	0	0	502	475	526	1021	0	0	
0	0	0	0	0	536	483	521	995	0	0	
1	0	0	0	0	576	492	514	928	0	0	
2	0	0	0	0	616	501	505	832	0	0	
3	0	0	0	0	655	508	496	716	0	0	
4	0	0	0	0	686	515	486	590	0	0	
5	0	0	0	0	707	518	478	466	0	0	
6	0	0	0	0	716	519	470	356	0	0	
7	0	0	0	0	711	517	464	270	0	0	
8	0	0	0	0	692	511	460	216	0	0	
9	0	0	0	0	659	502	458	197	0	0	
10	0	0	0	0	614	490	457	216	0	0	
11	0	0	0	0	562	478	457	271	0	0	
12	0	0	0	0	507	464	459	354	0	0	
13	0	0	0	0	454	451	460	457	0	0	
14	0	0	0	0	408	441	463	570	0	0	
15	0	0	0	0	374	433	466	681	0	0	
0	0	0	0	0	353	429	470	780	0	0	
1	0	0	0	0	349	428	474	858	0	0	
2	0	0	0	0	361	431	477	907	0	0	
3	0	0	0	0	387	437	479	921	0	0	
4	0	0	0	0	426	445	481	901	0	0	
5	0	0	0	0	472	454	481	846	0	0	
6	0	0	0	0	523	463	480	762	0	0	
7	0	0	0	0	571	471	478	658	0	0	
8	0	0	0	0	614	478	475	543	0	0	
9	0	0	0	0	646	482	473	432	0	0	
10	0	0	0	0	667	484	471	333	0	0	
11	0	0	0	0	674	484	471	258	0	0	
12	0	0	0	0	667	481	472	215	0	0	
13	0	0	0	0	647	476	475	207	0	0	
14	0	0	0	0	616	468	479	235	0	0	
15	0	0	0	0	577	460	484	298	0	0	
0	0	0	0	0	535	452	490	390	0	0	
1	0	0	0	0	493	444	495	499	0	0	
2	0	0	0	0	456	437	499	616	0	0	
3	0	0	0	0	428	432	503	729	0	0	
4	0	0	0	0	410	429	504	827	0	0	
5	0	0	0	0	406	428	505	902	0	0	
6	0	0	0	0	415	431	503	945	0	0	
7	0	0	0	0	439	436	500	955	0	0	
8	0	0	0	0	474	444	496	929	0	0	
9	0	0	0	0	517	454	492	868	0	0	
10	0	0	0	0	565	464	487	781	0	0	
11	0	0	0	0	612	475	483	674	0	0	
12	0	0	0	0	654	483	480	558	0	0	
13	0	0	0	0	687	489	476	444	0	0	
14	0	0	0	0	707	492	474	342	0	0	
15	0	0	0	0	715	492	473	265	0	0	
0	0	0	0	0	707	489	474	217	0	0	
1	0	0	0	0	685	483	476	205	0	0	
2	0	0	0	0	651	476	480	228	0	0	
3	0	0	0	0	608	468	484	285	0	0	
4	0	0	0	0	561	459	489	370	0	0	
5	0	0	0	0	513	451	494	474	0	0	
6	0	0	0	0	470	443	498	586	0	0	
7	0	0	0	0	435	438	502	695	0	0	
8	0	0	0	0	411	435	504	790	0	0	
9	0	0	0	0	402	435	506	864	0	0	
10	0	0	0	0	407	439	507	908	0	0	
11	0	0	0	0	427	445	506	919	0	0	
12	0	0	0	0	460	455	505	894	0	0	
13	0	0	0	0	502	466	504	835	0	0	
14	0	0	0	0	550	478	503	748	0	0	
15	0	0	0	0	598	489	501	639	0	0	
0	0	0	0	0	641	499	499	522	0	0	
1	0	0	0	0	676	505	497	406	0	0	
2	0	0	0	0	699	508	495	303	0	0	
3	0	0	0	0	708	508	495	224	0	0	
4	0	0	0	0	703	503	495	175	0	0	
5	0	0	0	0	684	497	496	162	0	0	
6	0	0	0	0	651	487	498	185	0	0	
7	0	0	0	0	609	477	501	244	0	0	
8	0	0	0	0	561	467	505	332	0	0	
9	0	0	0	0	512	456	508	440	0	0	
10	0	0	0	0	467	447	510	556	0	0	
11	0	0	0	0	429	439	511	669	0	0	
12	0	0	0	0	402	435	511	768	0	0	
13	0	0	0	0	388	432	508	843	0	0	
14	0	0	0	0	389	434	504	887	0	0	
15	0	0	0	0	405	439	500	894	0	0	
0	0	0	0	0	435	448	496	864	0	0	
1	0	0	0	0	475	459	492	797	0	0	
2	0	0	0	0	523	472	491	702	0	0	
3	0	0	0	0	573	486	491	585	0	0	
4	0	0	0	0	620	500	493	460	0	0	
5	0	0	0	0	661	511	497	337	0	0	
6	0	0	0	0	691	521	502	229	0	0	
7	0	0	0	0	708	526	509	146	0	0	
8	0	0	0	0	711	528	516	96	0	0	
9	0	0	0	0	699	525	524	81	0	0	
10	0	0	0	0	672	518	529	105	0	0	
11	0	0	0	0	634	509	534	165	0	0	
12	0	0	0	0	589	497	536	253	0	0	
13	0	0	0	0	540	484	536	361	0	0	
14	0	0	0	0	492	471	534	479	0	0	
15	0	0	0	0	450	459	528	593	0	0	
0	0	0	0	0	418	450	521	693	0	0	
1	0	0	0	0	400	443	513	769	0	0	
2	0	0	0	0	396	440	504	814	0	0	
3	0	0	0	0	407	439	494	824	0	0	
4	0	0	0	0	431	440	485	796	0	0	
5	0	0	0	0	465	445	477	734	0	0	
6	0	0	0	0	506	450	470	643	0	0	
7	0	0	0	0	548	456	465	533	0	0	
8	0	0	0	0	588	462	463	414	0	0	
9	0	0	0	0	621	467	462	297	0	0	
10	0	0	0	0	643	469	464	193	0	0	
11	0	0	0	0	652	468	467	112	0	0	
12	0	0	0	0	647	465	472	60	0	0	
13	0	0	0	0	626	459	477	42	0	0	
14	0	0	0	0	593	450	482	60	0	0	
15	0	0	0	0	551	440	487	112	0	0	
0	0	0	0	0	503	430	492	194	0	0	
1	0	0	0	0	455	421	495	295	0	0	
2	0	0	0	0	411	413	498	410	0	0	
3	0	0	0	0	376	409	499	524	0	0	
4	0	0	0	0	353	408	500	627	0	0	
5	0	0	0	0	345	410	500	708	0	0	
6	0	0	0	0	352	417	500	760	0	0	
7	0	0	0	0	375	428	500	779	0	0	
8	0	0	0	0	411	442	500	761	0	0	
9	0	0	0	0	459	460	503	710	0	0	
10	0	0	0	0	513	479	507	631	0	0	
11	0	0	0	0	571	499	512	532	0	0	
12	0	0	0	0	625	519	519	425	0	0	
13	0	0	0	0	672	536	527	321	0	0	
14	0	0	0	0	708	550	536	231	0	0	
15	0	0	0	0	731	560	546	164	0	0	
0	0	0	0	0	739	566	555	127	0	0	
1	0	0	0	0	731	567	563	123	0	0	
2	0	0	0	0	708	563	568	155	0	0	
3	0	0	0	0	673	556	572	220	0	0	
4	0	0	0	0	630	545	573	311	0	0	
5	0	0	0	0	583	532	570	420	0	0	
6	0	0	0	0	536	519	564	535	0	0	
7	0	0	0	0	494	505	555	644	0	0	
8	0	0	0	0	460	492	542	736	0	0	
9	0	0	0	0	438	481	528	804	0	0	
10	0	0	0	0	427	472	512	839	0	0	
11	0	0	0	0	429	466	495	838	0	0	
12	0	0	0	0	443	462	479	800	0	0	
13	0	0	0	0	467	461	464	727	0	0	
14	0	0	0	0	497	463	453	628	0	0	
15	0	0	0	0	531	466	444	512	0	0	
0	0	0	0	0	564	470	440	390	0	0	
1	0	0	0	0	594	474	440	274	0	0	
2	0	0	0	0	615	479	444	175	0	0	
3	0	0	0	0	628	481	452	102	0	0	
4	0	0	0	0	630	484	464	63	0	0	
5	0	0	0	0	620	485	479	61	0	0	
6	0	0	0	0	601	484	495	98	0	0	
7	0	0	0	0	574	483	512	170	0	0	
8	0	0	0	0	541	480	528	270	0	0	
9	0	0	0	0	508	478	542	389	0	0	
10	0	0	0	0	478	476	553	516	0	0	
11	0	0	0	0	454	476	562	639	0	0	
12	0	0	0	0	440	477	567	746	0	0	
13	0	0	0	0	438	480	569	827	0	0	
14	0	0	0	0	448	485	568	874	0	0	
15	0	0	0	0	470	492	563	884	0	0	
0	0	0	0	0	503	500	557	854	0	0	
1	0	0	0	0	544	510	550	787	0	0	
2	0	0	0	0	589	520	542	690	0	0	
3	0	0	0	0	634	529	533	571	0	0	
4	0	0	0	0	673	535	524	442	0	0	
5	0	0	0	0	704	539	517	315	0	0	
6	0	0	0	0	722	538	510	203	0	0	
7	0	0	0	0	726	533	504	113	0	0	
8	0	0	0	0	715	525	501	56	0	0	
9	0	0	0	0	688	513	499	36	0	0	
10	0	0	0	0	651	499	499	55	0	0	
11	0	0	0	0	604	485	500	111	0	0	
12	0	0	0	0	552	471	504	200	0	0	
13	0	0	0	0	502	459	508	312	0	0	
14	0	0	0	0	457	449	512	437	0	0	
15	0	0	0	0	422	443	516	561	0	0	
0	0	0	0	0	397	439	519	673	0	0	
1	0	0	0	0	388	438	520	763	0	0	
2	0	0	0	0	393	440	519	820	0	0	
3	0	0	0	0	411	445	515	841	0	0	
4	0	0	0	0	440	451	509	823	0	0	
5	0	0	0	0	478	458	502	768	0	0	
6	0	0	0	0	521	466	494	680	0	0	
7	0	0	0	0	563	475	485	571	0	0	
8	0	0	0	0	602	482	477	449	0	0	
9	0	0	0	0	632	487	470	329	0	0	
10	0	0	0	0	652	489	465	223	0	0	
11	0	0	0	0	660	489	461	139	0	0	
12	0	0	0	0	654	487	460	87	0	0	
13	0	0	0	0	636	482	462	72	0	0	
14	0	0	0	0	607	475	466	97	0	0	
15	0	0	0	0	571	468	473	159	0	0	
0	0	0	0	0	531	461	482	254	0	0	
1	0	0	0	0	492	454	491	370	0	0	
2	0	0	0	0	456	448	501	497	0	0	
3	0	0	0	0	431	445	511	624	0	0	
4	0	0	0	0	415	444	519	737	0	0	
5	0	0	0	0	414	446	525	827	0	0	
6	0	0	0	0	426	451	529	883	0	0	
7	0	0	0	0	451	459	531	903	0	0	
8	0	0	0	0	487	469	531	883	0	0	
9	0	0	0	0	530	481	529	826	0	0	
10	0	0	0	0	576	493	526	738	0	0	
11	0	0	0	0	621	505	521	626	0	0	
12	0	0	0	0	662	516	517	504	0	0	
13	0	0	0	0	692	524	513	383	0	0	
14	0	0	0	0	712	529	510	275	0	0	
15	0	0	0	0	719	531	508	191	0	0	
0	0	0	0	0	710	529	507	139	0	0	
1	0	0	0	0	687	523	508	122	0	0	
2	0	0	0	0	651	514	509	144	0	0	
3	0	0	0	0	605	502	510	201	0	0	
4	0	0	0	0	553	488	511	289	0	0	
5	0	0	0	0	499	473	510	396	0	0	
6	0	0	0	0	449	457	508	513	0	0	
7	0	0	0	0	407	444	505	627	0	0	
8	0	0	0	0	376	433	500	727	0	0	
9	0	0	0	0	359	424	494	805	0	0	
10	0	0	0	0	357	421	488	852	0	0	
11	0	0	0	0	371	423	482	865	0	0	
12	0	0	0	0	400	429	478	843	0	0	
13	0	0	0	0	440	440	475	786	0	0	
14	0	0	0	0	488	455	476	703	0	0	
15	0	0	0	0	539	471	479	600	0	0	
0	0	0	0	0	588	488	485	490	0	0	
1	0	0	0	0	630	504	492	382	0	0	
2	0	0	0	0	663	516	501	286	0	0	
3	0	0	0	0	681	525	510	214	0	0	
4	0	0	0	0	685	529	519	171	0	0	
5	0	0	0	0	675	529	526	161	0	0	
6	0	0	0	0	652	525	534	187	0	0	
7	0	0	0	0	619	519	540	245	0	0	
8	0	0	0	0	580	510	545	331	0	0	
9	0	0	0	0	541	502	550	437	0	0	
10	0	0	0	0	505	495	553	550	0	0	
11	0	0	0	0	476	488	555	660	0	0	
12	0	0	0	0	457	484	553	757	0	0	
13	0	0	0	0	450	483	551	830	0	0	
14	0	0	0	0	455	483	545	874	0	0	
15	0	0	0	0	472	487	537	883	0	0	
0	0	0	0	0	499	492	529	857	0	0	
1	0	0	0	0	531	498	519	796	0	0	
2	0	0	0	0	568	505	510	707	0	0	
3	0	0	0	0	602	511	500	598	0	0	
4	0	0	0	0	632	516	493	481	0	0	
5	0	0	0	0	655	519	487	368	0	0	
6	0	0	0	0	667	521	483	270	0	0	
7	0	0	0	0	669	521	483	195	0	0	
8	0	0	0	0	659	518	485	152	0	0	
9	0	0	0	0	638	513	489	144	0	0	
10	0	0	0	0	608	505	495	172	0	0	
11	0	0	0	0	572	496	501	234	0	0	
12	0	0	0	0	531	486	508	322	0	0	
13	0	0	0	0	491	475	513	428	0	0	
14	0	0	0	0	454	463	516	540	0	0	
15	0	0	0	0	423	453	516	647	0	0	
0	0	0	0	0	402	443	514	738	0	0	
1	0	0	0	0	393	435	509	804	0	0	
2	0	0	0	0	395	430	501	838	0	0	
3	0	0	0	0	409	425	492	836	0	0	
4	0	0	0	0	433	425	481	796	0	0	
5	0	0	0	0	466	427	470	722	0	0	
6	0	0	0	0	504	432	462	622	0	0	
7	0	0	0	0	543	439	455	504	0	0	
8	0	0	0	0	580	447	451	381	0	0	
9	0	0	0	0	611	456	452	265	0	0	
10	0	0	0	0	635	465	457	166	0	0	
11	0	0	0	0	648	473	466	94	0	0	
12	0	0	0	0	652	480	478	56	0	0	
13	0	0	0	0	644	485	492	58	0	0	
14	0	0	0	0	626	488	506	100	0	0	
15	0	0	0	0	601	489	520	181	0	0	
0	0	0	0	0	572	488	534	291	0	0	
1	0	0	0	0	543	486	544	422	0	0	
2	0	0	0	0	517	484	551	562	0	0	
3	0	0	0	0	497	481	555	698	0	0	
4	0	0	0	0	487	479	554	816	0	0	
5	0	0	0	0	487	478	550	907	0	0	
6	0	0	0	0	498	477	541	962	0	0	
7	0	0	0	0	518	476	529	976	0	0	
8	0	0	0	0	545	475	513	946	0	0	
9	0	0	0	0	575	472	494	876	0	0	
10	0	0	0	0	604	469	473	771	0	0	
11	0	0	0	0	631	463	451	640	0	0	
12	0	0	0	0	649	454	428	496	0	0	
13	0	0	0	0	658	442	405	352	0	0	
14	0	0	0	0	655	428	383	221	0	0	
15	0	0	0	0	639	410	363	114	0	0	
0	0	0	0	0	609	391	348	41	0	0	
1	0	0	0	0	570	372	336	7	0	0	
2	0	0	0	0	522	353	329	15	0	0	
3	0	0	0	0	472	338	329	65	0	0	
4	0	0	0	0	422	326	335	150	0	0	
5	0	0	0	0	378	319	346	262	0	0	
6	0	0	0	0	344	317	361	389	0	0	
7	0	0	0	0	321	321	381	518	0	0	
8	0	0	0	0	314	331	402	638	0	0	
9	0	0	0	0	323	345	423	735	0	0	
10	0	0	0	0	347	362	442	801	0	0	
11	0	0	0	0	385	383	458	831	0	0	
12	0	0	0	0	435	404	472	823	0	0	
13	0	0	0	0	492	426	481	778	0	0	
14	0	0	0	0	552	447	489	700	0	0	
15	0	0	0	0	611	466	493	600	0	0	
0	0	0	0	0	663	482	496	488	0	0	
1	0	0	0	0	704	494	499	376	0	0	
2	0	0	0	0	733	502	501	278	0	0	
3	0	0	0	0	747	506	504	200	0	0	
4	0	0	0	0	744	506	508	153	0	0	
5	0	0	0	0	727	503	514	140	0	0	
6	0	0	0	0	696	497	521	163	0	0	
7	0	0	0	0	656	490	528	222	0	0	
8	0	0	0	0	609	482	536	308	0	0	
9	0	0	0	0	562	474	544	415	0	0	
10	0	0	0	0	518	467	551	531	0	0	
11	0	0	0	0	481	462	555	643	0	0	
12	0	0	0	0	455	457	556	743	0	0	
13	0	0	0	0	443	455	556	818	0	0	
14	0	0	0	0	446	455	551	862	0	0	
15	0	0	0	0	462	456	544	871	0	0	
0	0	0	0	0	489	459	536	842	0	0	
1	0	0	0	0	526	463	526	779	0	0	
2	0	0	0	0	567	468	515	686	0	0	
3	0	0	0	0	608	473	505	575	0	0	
4	0	0	0	0	644	477	497	455	0	0	
5	0	0	0	0	673	480	491	339	0	0	
6	0	0	0	0	691	482	487	239	0	0	
7	0	0	0	0	696	482	486	165	0	0	
8	0	0	0	0	688	480	487	122	0	0	
9	0	0	0	0	665	477	492	117	0	0	
10	0	0	0	0	633	472	498	149	0	0	
11	0	0	0	0	591	466	505	216	0	0	
12	0	0	0	0	546	460	513	311	0	0	
13	0	0	0	0	501	454	520	424	0	0	
14	0	0	0	0	460	449	526	544	0	0	
15	0	0	0	0	428	446	531	660	0	0	
0	0	0	0	0	407	445	535	760	0	0	
1	0	0	0	0	399	446	537	834	0	0	
2	0	0	0	0	405	448	536	875	0	0	
3	0	0	0	0	424	452	533	879	0	0	
4	0	0	0	0	454	457	527	844	0	0	
5	0	0	0	0	492	462	521	774	0	0	
6	0	0	0	0	534	468	515	674	0	0	
7	0	0	0	0	577	473	509	555	0	0	
8	0	0	0	0	615	477	504	428	0	0	
9	0	0	0	0	646	479	499	304	0	0	
10	0	0	0	0	665	477	495	198	0	0	
11	0	0	0	0	671	472	493	117	0	0	
12	0	0	0	0	663	465	492	70	0	0	
13	0	0	0	0	641	455	493	60	0	0	
14	0	0	0	0	608	444	495	91	0	0	
15	0	0	0	0	565	431	498	160	0	0	
0	0	0	0	0	518	418	502	258	0	0	
1	0	0	0	0	470	407	506	379	0	0	
2	0	0	0	0	426	396	509	508	0	0	
3	0	0	0	0	391	388	512	634	0	0	
4	0	0	0	0	368	385	513	746	0	0	
5	0	0	0	0	360	387	515	833	0	0	
6	0	0	0	0	367	392	516	888	0	0	
7	0	0	0	0	389	402	516	906	0	0	
8	0	0	0	0	424	415	515	886	0	0	
9	0	0	0	0	468	430	513	829	0	0	
10	0	0	0	0	517	446	511	742	0	0	
11	0	0	0	0	566	462	508	633	0	0	
12	0	0	0	0	609	476	506	515	0	0	
13	0	0	0	0	644	487	504	399	0	0	
14	0	0	0	0	666	496	503	299	0	0	
15	0	0	0	0	675	501	504	223	0	0	
0	0	0	0	0	667	502	504	180	0	0	
1	0	0	0	0	645	499	506	175	0	0	
2	0	0	0	0	611	493	508	207	0	0	
3	0	0	0	0	567	483	510	275	0	0	
4	0	0	0	0	518	473	512	371	0	0	
5	0	0	0	0	469	463	513	486	0	0	
6	0	0	0	0	425	452	514	608	0	0	
7	0	0	0	0	390	444	513	725	0	0	
8	0	0	0	0	367	439	512	825	0	0	
9	0	0	0	0	359	438	511	900	0	0	
10	0	0	0	0	368	440	507	942	0	0	
11	0	0	0	0	391	446	504	948	0	0	
12	0	0	0	0	426	454	499	916	0	0	
13	0	0	0	0	470	465	494	847	0	0	
14	0	0	0	0	519	477	489	750	0	0	
15	0	0	0	0	567	488	484	633	0	0	
0	0	0	0	0	610	498	481	509	0	0	
1	0	0	0	0	645	507	479	389	0	0	
2	0	0	0	0	667	512	478	284	0	0	
3	0	0	0	0	675	513	479	206	0	0	
4	0	0	0	0	667	512	480	159	0	0	
5	0	0	0	0	644	506	483	151	0	0	
6	0	0	0	0	611	499	487	179	0	0	
7	0	0	0	0	568	490	490	243	0	0	
8	0	0	0	0	520	480	494	336	0	0	
9	0	0	0	0	472	470	496	448	0	0	
10	0	0	0	0	431	460	498	567	0	0	
11	0	0	0	0	398	453	499	682	0	0	
12	0	0	0	0	377	448	498	780	0	0	
13	0	0	0	0	370	446	496	853	0	0	
14	0	0	0	0	378	446	493	894	0	0	
15	0	0	0	0	400	450	489	900	0	0	
0	0	0	0	0	435	456	484	869	0	0	
1	0	0	0	0	479	465	480	804	0	0	
2	0	0	0	0	527	476	476	712	0	0	
3	0	0	0	0	576	486	474	602	0	0	
4	0	0	0	0	620	495	473	487	0	0	
5	0	0	0	0	657	504	475	376	0	0	
6	0	0	0	0	683	510	478	282	0	0	
7	0	0	0	0	694	513	484	213	0	0	
8	0	0	0	0	690	513	491	175	0	0	
9	0	0	0	0	671	510	499	173	0	0	
10	0	0	0	0	639	504	507	206	0	0	
11	0	0	0	0	598	497	514	272	0	0	
12	0	0	0	0	550	489	521	362	0	0	
13	0	0	0	0	501	481	527	468	0	0	
14	0	0	0	0	455	474	530	579	0	0	
15	0	0	0	0	418	470	532	681	0	0	
0	0	0	0	0	391	468	532	767	0	0	
1	0	0	0	0	379	470	531	825	0	0	
2	0	0	0	0	382	475	528	852	0	0	
3	0	0	0	0	400	482	524	842	0	0	
4	0	0	0	0	431	492	519	795	0	0	
5	0	0	0	0	471	502	513	713	0	0	
6	0	0	0	0	517	513	507	606	0	0	
7	0	0	0	0	563	522	499	482	0	0	
8	0	0	0	0	605	528	493	353	0	0	
9	0	0	0	0	639	531	487	233	0	0	
10	0	0	0	0	663	531	482	130	0	0	
11	0	0	0	0	672	528	479	56	0	0	
12	0	0	0	0	667	522	478	16	0	0	
13	0	0	0	0	647	512	479	16	0	0	
14	0	0	0	0	617	501	483	55	0	0	
15	0	0	0	0	577	489	487	131	0	0	
0	0	0	0	0	533	476	494	237	0	0	
1	0	0	0	0	490	465	501	362	0	0	
2	0	0	0	0	451	455	508	494	0	0	
3	0	0	0	0	420	448	514	620	0	0	
4	0	0	0	0	401	443	518	728	0	0	
5	0	0	0	0	394	441	519	808	0	0	
6	0	0	0	0	400	442	518	852	0	0	
7	0	0	0	0	419	445	514	857	0	0	
8	0	0	0	0	448	451	508	821	0	0	
9	0	0	0	0	485	459	499	748	0	0	
10	0	0	0	0	527	467	491	646	0	0	
11	0	0	0	0	568	477	483	524	0	0	
12	0	0	0	0	606	485	475	396	0	0	
13	0	0	0	0	636	492	468	273	0	0	
14	0	0	0	0	656	495	464	169	0	0	
15	0	0	0	0	664	496	463	91	0	0	
0	0	0	0	0	658	493	463	46	0	0	
1	0	0	0	0	639	487	466	41	0	0	
2	0	0	0	0	609	480	472	75	0	0	
3	0	0	0	0	572	472	479	147	0	0	
4	0	0	0	0	531	464	488	249	0	0	
5	0	0	0	0	491	457	498	371	0	0	
6	0	0	0	0	456	451	507	501	0	0	
7	0	0	0	0	431	449	515	628	0	0	
8	0	0	0	0	416	448	520	737	0	0	
9	0	0	0	0	414	451	523	820	0	0	
10	0	0	0	0	424	455	522	867	0	0	
11	0	0	0	0	445	461	517	875	0	0	
12	0	0	0	0	475	467	508	843	0	0	
13	0	0	0	0	510	472	497	772	0	0	
14	0	0	0	0	547	477	485	671	0	0	
15	0	0	0	0	582	481	472	550	0	0	
0	0	0	0	0	612	485	461	421	0	0	
1	0	0	0	0	635	487	452	297	0	0	
2	0	0	0	0	647	488	448	192	0	0	
3	0	0	0	0	649	488	447	112	0	0	
4	0	0	0	0	638	487	449	67	0	0	
5	0	0	0	0	615	483	454	61	0	0	
6	0	0	0	0	583	479	463	94	0	0	
7	0	0	0	0	543	474	473	164	0	0	
8	0	0	0	0	503	469	486	264	0	0	
9	0	0	0	0	463	465	497	384	0	0	
10	0	0	0	0	430	463	509	511	0	0	
11	0	0	0	0	404	462	519	634	0	0	
12	0	0	0	0	390	463	526	739	0	0	
13	0	0	0	0	389	465	531	817	0	0	
14	0	0	0	0	400	470	531	860	0	0	
15	0	0	0	0	423	474	527	863	0	0	
0	0	0	0	0	455	480	522	827	0	0	
1	0	0	0	0	493	484	513	752	0	0	
2	0	0	0	0	535	489	503	646	0	0	
3	0	0	0	0	575	493	491	519	0	0	
4	0	0	0	0	609	496	480	383	0	0	
5	0	0	0	0	636	496	471	252	0	0	
6	0	0	0	0	652	496	462	136	0	0	
7	0	0	0	0	655	493	457	47	0	0	
8	0	0	0	0	644	488	455	0	0	0	
9	0	0	0	0	621	482	455	0	0	0	
10	0	0	0	0	588	473	457	11	0	0	
11	0	0	0	0	546	464	462	68	0	0	
12	0	0	0	0	501	455	467	156	0	0	
13	0	0	0	0	458	448	473	268	0	0	
14	0	0	0	0	420	442	480	391	0	0	
15	0	0	0	0	392	439	485	513	0	0	
0	0	0	0	0	376	439	489	624	0	0	
1	0	0	0	0	375	442	493	711	0	0	
2	0	0	0	0	387	449	495	769	0	0	
3	0	0	0	0	415	460	496	791	0	0	
4	0	0	0	0	454	473	497	775	0	0	
5	0	0	0	0	501	488	498	725	0	0	
6	0	0	0	0	552	505	499	647	0	0	
7	0	0	0	0	602	521	501	547	0	0	
8	0	0	0	0	645	534	503	438	0	0	
9	0	0	0	0	679	545	505	331	0	0	
10	0	0	0	0	699	550	507	237	0	0	
11	0	0	0	0	703	551	510	166	0	0	
12	0	0	0	0	691	547	511	124	0	0	
13	0	0	0	0	664	539	512	115	0	0	
14	0	0	0	0	623	526	513	142	0	0	
15	0	0	0	0	572	511	513	201	0	0	
0	0	0	0	0	517	494	511	288	0	0	
1	0	0	0	0	462	478	509	393	0	0	
2	0	0	0	0	413	463	505	504	0	0	
3	0	0	0	0	374	449	499	611	0	0	
4	0	0	0	0	347	439	493	702	0	0	
5	0	0	0	0	336	431	484	768	0	0	
6	0	0	0	0	339	426	475	801	0	0	
7	0	0	0	0	358	424	464	798	0	0	
8	0	0	0	0	390	425	454	758	0	0	
9	0	0	0	0	431	429	444	683	0	0	
10	0	0	0	0	478	434	435	582	0	0	
11	0	0	0	0	527	441	428	464	0	0	
12	0	0	0	0	573	448	423	342	0	0	
13	0	0	0	0	611	455	423	227	0	0	
14	0	0	0	0	639	462	426	129	0	0	
15	0	0	0	0	656	468	433	58	0	0	
0	0	0	0	0	659	473	443	21	0	0	
1	0	0	0	0	648	476	455	22	0	0	
2	0	0	0	0	625	478	469	60	0	0	
3	0	0	0	0	593	479	482	134	0	0	
4	0	0	0	0	555	477	495	235	0	0	
5	0	0	0	0	515	475	504	354	0	0	
6	0	0	0	0	476	472	511	480	0	0	
7	0	0	0	0	444	468	514	600	0	0	
8	0	0	0	0	420	466	513	703	0	0	
9	0	0	0	0	409	465	510	780	0	0	
10	0	0	0	0	412	465	504	824	0	0	
11	0	0	0	0	427	468	497	832	0	0	
12	0	0	0	0	455	473	491	803	0	0	
13	0	0	0	0	492	481	487	740	0	0	
14	0	0	0	0	535	491	483	652	0	0	
15	0	0	0	0	580	501	483	545	0	0	
0	0	0	0	0	623	511	485	434	0	0	
1	0	0	0	0	659	520	489	328	0	0	
2	0	0	0	0	685	527	496	240	0	0	
3	0	0	0	0	698	531	503	177	0	0	
4	0	0	0	0	697	532	511	147	0	0	
5	0	0	0	0	684	531	519	152	0	0	
6	0	0	0	0	656	526	528	194	0	0	
7	0	0	0	0	619	519	535	269	0	0	
8	0	0	0	0	576	510	540	368	0	0	
9	0	0	0	0	530	500	541	481	0	0	
10	0	0	0	0	486	489	539	599	0	0	
11	0	0	0	0	449	478	534	708	0	0	
12	0	0	0	0	423	469	526	799	0	0	
13	0	0	0	0	409	462	515	863	0	0	
14	0	0	0	0	409	457	503	893	0	0	
15	0	0	0	0	424	455	490	886	0	0	
0	0	0	0	0	451	456	478	841	0	0	
1	0	0	0	0	487	460	467	762	0	0	
2	0	0	0	0	528	465	458	656	0	0	
3	0	0	0	0	571	471	452	534	0	0	
4	0	0	0	0	609	477	448	406	0	0	
5	0	0	0	0	641	481	449	284	0	0	
6	0	0	0	0	660	484	452	181	0	0	
7	0	0	0	0	668	485	458	104	0	0	
8	0	0	0	0	662	484	466	62	0	0	
9	0	0	0	0	642	481	476	60	0	0	
10	0	0	0	0	613	478	487	97	0	0	
11	0	0	0	0	575	473	499	172	0	0	
12	0	0	0	0	535	468	510	276	0	0	
13	0	0	0	0	495	465	520	400	0	0	
14	0	0	0	0	462	463	529	533	0	0	
15	0	0	0	0	438	463	536	661	0	0	
0	0	0	0	0	426	466	540	773	0	0	
1	0	0	0	0	428	471	542	859	0	0	
2	0	0	0	0	444	477	541	911	0	0	
3	0	0	0	0	471	485	536	926	0	0	
4	0	0	0	0	507	492	529	902	0	0	
5	0	0	0	0	548	500	519	841	0	0	
6	0	0	0	0	590	507	509	751	0	0	
7	0	0	0	0	630	511	497	639	0	0	
8	0	0	0	0	664	515	487	519	0	0	
9	0	0	0	0	689	517	479	404	0	0	
10	0	0	0	0	703	517	474	303	0	0	
11	0	0	0	0	706	516	473	230	0	0	
12	0	0	0	0	697	515	477	191	0	0	
13	0	0	0	0	677	512	484	189	0	0	
14	0	0	0	0	648	510	494	225	0	0	
15	0	0	0	0	613	507	507	297	0	0	
0	0	0	0	0	575	505	520	398	0	0	
1	0	0	0	0	537	504	534	516	0	0	
2	0	0	0	0	504	503	546	640	0	0	
3	0	0	0	0	479	503	554	759	0	0	
4	0	0	0	0	463	504	559	859	0	0	
5	0	0	0	0	458	505	560	934	0	0	
6	0	0	0	0	465	507	556	975	0	0	
7	0	0	0	0	481	509	547	980	0	0	
8	0	0	0	0	507	512	536	949	0	0	
9	0	0	0	0	539	515	522	882	0	0	
10	0	0	0	0	574	518	507	788	0	0	
11	0	0	0	0	608	520	492	675	0	0	
12	0	0	0	0	638	521	478	554	0	0	
13	0	0	0	0	663	522	467	438	0	0	
14	0	0	0	0	677	521	459	336	0	0	
15	0	0	0	0	679	518	454	261	0	0	
0	0	0	0	0	670	513	452	218	0	0	
1	0	0	0	0	648	506	455	212	0	0	
2	0	0	0	0	615	498	460	244	0	0	
3	0	0	0	0	577	489	467	312	0	0	
4	0	0	0	0	535	481	477	409	0	0	
5	0	0	0	0	495	474	487	525	0	0	
6	0	0	0	0	459	468	495	648	0	0	
7	0	0	0	0	432	464	503	767	0	0	
8	0	0	0	0	417	463	508	871	0	0	
9	0	0	0	0	416	465	512	952	0	0	
10	0	0	0	0	428	470	513	1000	0	0	
11	0	0	0	0	455	478	512	1012	0	0	
12	0	0	0	0	492	487	510	986	0	0	
13	0	0	0	0	536	499	508	922	0	0	
14	0	0	0	0	584	512	505	827	0	0	
15	0	0	0	0	631	524	502	709	0	0	
0	0	0	0	0	673	534	500	580	0	0	
1	0	0	0	0	705	541	499	451	0	0	
2	0	0	0	0	726	545	499	336	0	0	
3	0	0	0	0	732	545	500	244	0	0	
4	0	0	0	0	723	540	502	185	0	0	
5	0	0	0	0	699	531	504	163	0	0	
6	0	0	0	0	663	519	506	179	0	0	
7	0	0	0	0	617	505	508	233	0	0	
8	0	0	0	0	566	489	508	316	0	0	
9	0	0	0	0	515	472	508	422	0	0	
10	0	0	0	0	467	457	507	537	0	0	
11	0	0	0	0	428	444	504	651	0	0	
12	0	0	0	0	401	434	500	750	0	0	
13	0	0	0	0	389	428	496	828	0	0	
14	0	0	0	0	394	428	492	874	0	0	
15	0	0	0	0	414	432	488	885	0	0	
0	0	0	0	0	449	440	486	860	0	0	
1	0	0	0	0	494	454	484	800	0	0	
2	0	0	0	0	545	470	485	711	0	0	
3	0	0	0	0	599	488	487	603	0	0	
4	0	0	0	0	649	507	493	486	0	0	
5	0	0	0	0	693	524	500	371	0	0	
6	0	0	0	0	726	539	510	271	0	0	
7	0	0	0	0	744	551	520	195	0	0	
8	0	0	0	0	748	558	531	149	0	0	
9	0	0	0	0	734	560	540	137	0	0	
10	0	0	0	0	705	556	548	161	0	0	
11	0	0	0	0	664	548	552	219	0	0	
12	0	0	0	0	612	536	553	302	0	0	
13	0	0	0	0	556	520	549	404	0	0	
14	0	0	0	0	501	504	541	513	0	0	
15	0	0	0	0	450	487	530	619	0	0	
0	0	0	0	0	409	471	515	709	0	0	
1	0	0	0	0	382	457	498	776	0	0	
2	0	0	0	0	369	447	480	812	0	0	
3	0	0	0	0	372	441	462	814	0	0	
4	0	0	0	0	391	439	446	779	0	0	
5	0	0	0	0	422	441	433	711	0	0	
6	0	0	0	0	463	447	424	617	0	0	
7	0	0	0	0	508	455	420	506	0	0	
8	0	0	0	0	555	466	421	389	0	0	
9	0	0	0	0	596	478	427	277	0	0	
10	0	0	0	0	628	488	438	182	0	0	
11	0	0	0	0	650	497	451	111	0	0	
12	0	0	0	0	657	503	467	72	0	0	
13	0	0	0	0	651	506	484	70	0	0	
14	0	0	0	0	632	505	500	103	0	0	
15	0	0	0	0	602	502	515	172	0	0	
0	0	0	0	0	566	497	529	268	0	0	
1	0	0	0	0	528	491	539	382	0	0	
2	0	0	0	0	493	485	546	503	0	0	
3	0	0	0	0	465	480	551	620	0	0	
4	0	0	0	0	447	478	552	722	0	0	
5	0	0	0	0	441	477	551	800	0	0	
6	0	0	0	0	448	479	546	845	0	0	
7	0	0	0	0	467	481	538	853	0	0	
8	0	0	0	0	496	486	529	824	0	0	
9	0	0	0	0	531	490	518	760	0	0	
10	0	0	0	0	571	495	507	667	0	0	
11	0	0	0	0	609	500	497	554	0	0	
12	0	0	0	0	645	504	488	435	0	0	
13	0	0	0	0	674	509	483	319	0	0	
14	0	0	0	0	692	511	480	221	0	0	
15	0	0	0	0	699	512	480	147	0	0	
0	0	0	0	0	692	510	482	105	0	0	
1	0	0	0	0	672	506	486	99	0	0	
2	0	0	0	0	640	498	490	130	0	0	
3	0	0	0	0	600	489	495	195	0	0	
4	0	0	0	0	554	479	499	286	0	0	
5	0	0	0	0	508	468	503	396	0	0	
6	0	0	0	0	466	460	506	513	0	0	
7	0	0	0	0	431	452	508	626	0	0	
8	0	0	0	0	408	448	508	724	0	0	
9	0	0	0	0	398	448	508	798	0	0	
10	0	0	0	0	402	450	507	841	0	0	
11	0	0	0	0	420	456	505	848	0	0	
12	0	0	0	0	451	465	503	820	0	0	
13	0	0	0	0	491	476	501	757	0	0	
14	0	0	0	0	536	488	500	667	0	0	
15	0	0	0	0	582	499	499	557	0	0	
0	0	0	0	0	624	510	499	440	0	0	
1	0	0	0	0	658	518	500	324	0	0	
2	0	0	0	0	681	523	503	225	0	0	
3	0	0	0	0	692	526	506	149	0	0	
4	0	0	0	0	688	526	510	103	0	0	
5	0	0	0	0	672	524	515	94	0	0	
6	0	0	0	0	643	521	521	121	0	0	
7	0	0	0	0	606	516	527	184	0	0	
8	0	0	0	0	563	510	532	274	0	0	
9	0	0	0	0	519	504	536	383	0	0	
10	0	0	0	0	478	499	537	499	0	0	
11	0	0	0	0	445	493	536	611	0	0	
12	0	0	0	0	421	489	533	707	0	0	
13	0	0	0	0	409	486	527	778	0	0	
14	0	0	0	0	411	484	519	817	0	0	
15	0	0	0	0	426	484	510	821	0	0	
0	0	0	0	0	453	487	500	789	0	0	
1	0	0	0	0	489	492	491	723	0	0	
2	0	0	0	0	531	496	481	631	0	0	
3	0	0	0	0	574	503	475	522	0	0	
4	0	0	0	0	613	508	469	406	0	0	
5	0	0	0	0	646	512	466	294	0	0	
6	0	0	0	0	669	515	466	198	0	0	
7	0	0	0	0	680	516	470	127	0	0	
8	0	0	0	0	678	517	476	88	0	0	
9	0	0	0	0	663	515	485	86	0	0	
10	0	0	0	0	638	513	496	121	0	0	
11	0	0	0	0	604	510	507	191	0	0	
12	0	0	0	0	566	506	519	289	0	0	
13	0	0	0	0	526	502	528	406	0	0	
14	0	0	0	0	489	499	536	529	0	0	
15	0	0	0	0	460	496	541	647	0	0	
0	0	0	0	0	440	494	543	748	0	0	
1	0	0	0	0	432	494	543	823	0	0	
2	0	0	0	0	437	496	540	863	0	0	
3	0	0	0	0	454	498	535	865	0	0	
4	0	0	0	0	480	502	527	829	0	0	
5	0	0	0	0	515	507	519	756	0	0	
6	0	0	0	0	556	513	512	656	0	0	
7	0	0	0	0	596	520	505	538	0	0	
8	0	0	0	0	635	526	502	415	0	0	
9	0	0	0	0	668	533	500	297	0	0	
10	0	0	0	0	691	537	501	197	0	0	
11	0	0	0	0	703	540	503	123	0	0	
12	0	0	0	0	702	539	507	83	0	0	
13	0	0	0	0	687	535	511	79	0	0	
14	0	0	0	0	660	528	515	112	0	0	
15	0	0	0	0	623	519	518	180	0	0	
0	0	0	0	0	579	508	519	275	0	0	
1	0	0	0	0	534	496	518	388	0	0	
2	0	0	0	0	491	485	515	508	0	0	
3	0	0	0	0	455	476	510	624	0	0	
4	0	0	0	0	429	469	504	725	0	0	
5	0	0	0	0	417	467	496	802	0	0	
6	0	0	0	0	418	468	489	847	0	0	
7	0	0	0	0	433	473	481	856	0	0	
8	0	0	0	0	459	481	475	828	0	0	
9	0	0	0	0	495	491	469	766	0	0	
10	0	0	0	0	535	503	464	675	0	0	
11	0	0	0	0	575	514	461	563	0	0	
12	0	0	0	0	612	524	460	444	0	0	
13	0	0	0	0	642	532	460	326	0	0	
14	0	0	0	0	660	537	461	221	0	0	
15	0	0	0	0	667	539	464	139	0	0	
0	0	0	0	0	660	537	467	87	0	0	
1	0	0	0	0	640	532	472	69	0	0	
2	0	0	0	0	609	524	477	89	0	0	
3	0	0	0	0	572	515	484	144	0	0	
4	0	0	0	0	531	508	492	230	0	0	
5	0	0	0	0	493	502	501	339	0	0	
6	0	0	0	0	461	499	510	460	0	0	
7	0	0	0	0	439	498	519	580	0	0	
8	0	0	0	0	429	501	528	690	0	0	
9	0	0	0	0	432	505	535	779	0	0	
10	0	0	0	0	447	512	539	837	0	0	
11	0	0	0	0	473	519	541	862	0	0	
12	0	0	0	0	508	527	540	850	0	0	
13	0	0	0	0	548	534	537	803	0	0	
14	0	0	0	0	590	540	531	726	0	0	
15	0	0	0	0	630	544	525	628	0	0	
0	0	0	0	0	663	547	518	519	0	0	
1	0	0	0	0	688	548	511	411	0	0	
2	0	0	0	0	701	547	506	314	0	0	
3	0	0	0	0	701	542	501	239	0	0	
4	0	0	0	0	687	536	498	193	0	0	
5	0	0	0	0	659	527	495	179	0	0	
6	0	0	0	0	620	515	493	200	0	0	
7	0	0	0	0	573	503	492	254	0	0	
8	0	0	0	0	522	490	490	335	0	0	
9	0	0	0	0	473	478	489	438	0	0	
10	0	0	0	0	431	468	488	547	0	0	
11	0	0	0	0	398	460	486	655	0	0	
12	0	0	0	0	377	455	484	750	0	0	
13	0	0	0	0	371	452	480	822	0	0	
14	0	0	0	0	379	452	476	865	0	0	
15	0	0	0	0	400	455	470	875	0	0	
0	0	0	0	0	433	460	464	849	0	0	
1	0	0	0	0	473	467	457	791	0	0	
2	0	0	0	0	519	476	452	704	0	0	
3	0	0	0	0	564	486	447	598	0	0	
4	0	0	0	0	606	495	444	484	0	0	
5	0	0	0	0	640	503	444	372	0	0	
6	0	0	0	0	664	510	446	275	0	0	
7	0	0	0	0	676	515	451	201	0	0	
8	0	0	0	0	675	519	459	158	0	0	
9	0	0	0	0	664	521	471	150	0	0	
10	0	0	0	0	643	522	483	178	0	0	
11	0	0	0	0	614	523	498	241	0	0	
12	0	0	0	0	582	522	514	332	0	0	
13	0	0	0	0	548	521	527	442	0	0	
14	0	0	0	0	518	520	540	560	0	0	
15	0	0	0	0	493	519	548	673	0	0	
0	0	0	0	0	477	518	553	771	0	0	
1	0	0	0	0	470	516	552	843	0	0	
2	0	0	0	0	473	515	547	882	0	0	
3	0	0	0	0	486	515	538	885	0	0	
4	0	0	0	0	507	515	526	849	0	0	
5	0	0	0	0	533	516	512	776	0	0	
6	0	0	0	0	561	516	498	675	0	0	
7	0	0	0	0	589	517	484	554	0	0	
8	0	0	0	0	612	517	473	424	0	0	
9	0	0	0	0	630	517	463	299	0	0	
10	0	0	0	0	637	516	459	190	0	0	
11	0	0	0	0	636	515	457	107	0	0	
12	0	0	0	0	625	514	461	58	0	0	
13	0	0	0	0	605	512	467	46	0	0	
14	0	0	0	0	578	510	478	75	0	0	
15	0	0	0	0	545	508	489	139	0	0	
0	0	0	0	0	512	506	502	235	0	0	
1	0	0	0	0	480	505	514	350	0	0	
2	0	0	0	0	453	506	525	476	0	0	
3	0	0	0	0	433	508	534	599	0	0	
4	0	0	0	0	424	511	540	707	0	0	
5	0	0	0	0	426	516	543	791	0	0	
6	0	0	0	0	439	523	542	841	0	0	
7	0	0	0	0	462	530	538	854	0	0	
8	0	0	0	0	493	536	531	828	0	0	
9	0	0	0	0	530	543	522	766	0	0	
10	0	0	0	0	568	549	511	674	0	0	
11	0	0	0	0	606	554	500	560	0	0	
12	0	0	0	0	638	557	491	438	0	0	
13	0	0	0	0	662	557	482	318	0	0	
14	0	0	0	0	675	554	475	213	0	0	
15	0	0	0	0	676	549	471	131	0	0	
0	0	0	0	0	665	542	468	81	0	0	
1	0	0	0	0	641	531	469	66	0	0	
2	0	0	0	0	608	520	472	89	0	0	
3	0	0	0	0	569	509	476	147	0	0	
4	0	0	0	0	527	497	482	235	0	0	
5	0	0	0	0	487	487	487	342	0	0	
6	0	0	0	0	452	477	492	459	0	0	
7	0	0	0	0	425	471	496	573	0	0	
8	0	0	0	0	411	467	499	673	0	0	
9	0	0	0	0	411	467	501	750	0	0	
10	0	0	0	0	424	472	502	796	0	0	
11	0	0	0	0	450	479	502	806	0	0	
12	0	0	0	0	488	488	502	780	0	0	
13	0	0	0	0	534	501	502	719	0	0	
14	0	0	0	0	584	515	503	632	0	0	
15	0	0	0	0	633	529	504	525	0	0	
0	0	0	0	0	678	542	506	409	0	0	
1	0	0	0	0	714	553	509	297	0	0	
2	0	0	0	0	738	560	513	200	0	0	
3	0	0	0	0	749	565	517	125	0	0	
4	0	0	0	0	745	566	522	80	0	0	
5	0	0	0	0	726	562	526	70	0	0	
6	0	0	0	0	693	554	529	97	0	0	
7	0	0	0	0	652	544	531	158	0	0	
8	0	0	0	0	604	532	531	247	0	0	
9	0	0	0	0	555	519	530	354	0	0	
10	0	0	0	0	508	507	526	471	0	0	
11	0	0	0	0	469	496	520	583	0	0	
12	0	0	0	0	441	486	512	680	0	0	
13	0	0	0	0	427	480	503	753	0	0	
14	0	0	0	0	427	476	492	795	0	0	
15	0	0	0	0	440	475	481	800	0	0	
0	0	0	0	0	466	476	471	769	0	0	
1	0	0	0	0	500	481	461	704	0	0	
2	0	0	0	0	539	486	452	611	0	0	
3	0	0	0	0	579	494	447	500	0	0	
4	0	0	0	0	615	500	444	381	0	0	
5	0	0	0	0	646	508	443	268	0	0	
6	0	0	0	0	666	513	446	171	0	0	
7	0	0	0	0	676	519	452	98	0	0	
8	0	0	0	0	674	523	460	57	0	0	
9	0	0	0	0	660	525	471	53	0	0	
10	0	0	0	0	639	526	483	86	0	0	
11	0	0	0	0	610	526	497	155	0	0	
12	0	0	0	0	579	525	511	251	0	0	
13	0	0	0	0	548	526	526	366	0	0	
14	0	0	0	0	522	526	540	489	0	0	
15	0	0	0	0	503	528	551	608	0	0	
0	0	0	0	0	493	531	560	712	0	0	
1	0	0	0	0	493	535	566	791	0	0	
2	0	0	0	0	503	539	568	836	0	0	
3	0	0	0	0	522	542	563	845	0	0	
4	0	0	0	0	547	543	556	816	0	0	
5	0	0	0	0	577	543	543	750	0	0	
6	0	0	0	0	607	543	528	655	0	0	
7	0	0	0	0	636	540	512	540	0	0	
8	0	0	0	0	660	536	494	416	0	0	
9	0	0	0	0	675	529	478	296	0	0	
10	0	0	0	0	679	520	463	191	0	0	
11	0	0	0	0	673	510	450	110	0	0	
12	0	0	0	0	654	499	441	61	0	0	
13	0	0	0	0	624	486	435	49	0	0	
14	0	0	0	0	585	472	433	75	0	0	
15	0	0	0	0	542	460	435	138	0	0	
0	0	0	0	0	498	450	440	232	0	0	
1	0	0	0	0	458	443	449	347	0	0	
2	0	0	0	0	425	439	459	474	0	0	
3	0	0	0	0	404	440	471	600	0	0	
4	0	0	0	0	395	443	483	712	0	0	
5	0	0	0	0	399	451	494	803	0	0	
6	0	0	0	0	418	461	504	862	0	0	
7	0	0	0	0	448	474	511	887	0	0	
8	0	0	0	0	488	489	517	875	0	0	
9	0	0	0	0	534	504	520	826	0	0	
10	0	0	0	0	581	518	521	748	0	0	
11	0	0	0	0	625	530	520	647	0	0	
12	0	0	0	0	662	540	518	536	0	0	
13	0	0	0	0	689	546	515	425	0	0	
14	0	0	0	0	704	548	511	326	0	0	
15	0	0	0	0	705	547	508	249	0	0	
0	0	0	0	0	692	543	505	203	0	0	
1	0	0	0	0	667	536	504	189	0	0	
2	0	0	0	0	630	525	504	211	0	0	
3	0	0	0	0	587	514	505	267	0	0	
4	0	0	0	0	540	503	507	350	0	0	
5	0	0	0	0	495	492	510	452	0	0	
6	0	0	0	0	456	483	513	562	0	0	
7	0	0	0	0	426	476	517	670	0	0	
8	0	0	0	0	408	471	519	762	0	0	
9	0	0	0	0	403	469	519	832	0	0	
10	0	0	0	0	412	470	518	871	0	0	
11	0	0	0	0	433	472	515	876	0	0	
12	0	0	0	0	464	477	509	846	0	0	
13	0	0	0	0	503	483	503	782	0	0	
14	0	0	0	0	544	489	496	691	0	0	
15	0	0	0	0	585	497	488	583	0	0	
0	0	0	0	0	620	503	483	467	0	0	
1	0	0	0	0	647	508	479	356	0	0	
2	0	0	0	0	664	512	478	261	0	0	
3	0	0	0	0	668	515	480	190	0	0	
4	0	0	0	0	660	516	486	150	0	0	
5	0	0	0	0	640	516	493	146	0	0	
6	0	0	0	0	611	514	504	179	0	0	
7	0	0	0	0	574	512	516	247	0	0	
8	0	0	0	0	533	509	527	341	0	0	
9	0	0	0	0	493	506	539	455	0	0	
10	0	0	0	0	457	504	547	575	0	0	
11	0	0	0	0	428	501	552	690	0	0	
12	0	0	0	0	409	499	553	788	0	0	
13	0	0	0	0	402	499	551	862	0	0	
14	0	0	0	0	407	499	545	902	0	0	
15	0	0	0	0	423	501	537	904	0	0	
0	0	0	0	0	448	503	526	865	0	0	
1	0	0	0	0	480	506	514	790	0	0	
2	0	0	0	0	516	509	502	684	0	0	
3	0	0	0	0	551	512	490	557	0	0	
4	0	0	0	0	582	513	481	420	0	0	
5	0	0	0	0	604	513	472	286	0	0	
6	0	0	0	0	616	510	466	167	0	0	
7	0	0	0	0	615	504	462	73	0	0	
8	0	0	0	0	601	496	458	10	0	0	
9	0	0	0	0	574	485	456	0	0	0	
10	0	0	0	0	537	472	455	7	0	0	
11	0	0	0	0	492	458	453	56	0	0	
12	0	0	0	0	444	443	452	136	0	0	
13	0	0	0	0	396	428	449	238	0	0	
14	0	0	0	0	352	414	445	351	0	0	
15	0	0	0	0	316	400	439	464	0	0	
0	0	0	0	0	291	388	431	564	0	0	
1	0	0	0	0	277	377	420	642	0	0	
2	0	0	0	0	276	370	408	688	0	0	
3	0	0	0	0	288	365	396	699	0	0	
4	0	0	0	0	312	363	383	673	0	0	
5	0	0	0	0	344	363	372	613	0	0	
6	0	0	0	0	384	366	363	526	0	0	
7	0	0	0	0	425	370	357	419	0	0	
8	0	0	0	0	465	376	355	305	0	0	
9	0	0	0	0	498	383	357	196	0	0	
10	0	0	0	0	520	388	363	101	0	0	
11	0	0	0	0	531	392	371	29	0	0	
12	0	0	0	0	530	396	384	0	0	0	
13	0	0	0	0	517	397	397	0	0	0	
14	0	0	0	0	494	396	412	26	0	0	
15	0	0	0	0	463	395	428	92	0	0	
0	0	0	0	0	430	392	442	188	0	0	
1	0	0	0	0	397	390	454	303	0	0	
2	0	0	0	0	369	388	465	430	0	0	
3	0	0	0	0	350	388	474	555	0	0	
4	0	0	0	0	343	391	482	667	0	0	
5	0	0	0	0	349	398	488	756	0	0	
6	0	0	0	0	369	409	493	815	0	0	
7	0	0	0	0	403	423	497	838	0	0	
8	0	0	0	0	448	440	500	824	0	0	
9	0	0	0	0	500	460	504	773	0	0	
10	0	0	0	0	556	481	508	693	0	0	
11	0	0	0	0	609	503	513	591	0	0	
12	0	0	0	0	657	522	519	480	0	0	
13	0	0	0	0	695	540	525	370	0	0	
14	0	0	0	0	720	553	532	273	0	0	
15	0	0	0	0	729	562	539	199	0	0	
0	0	0	0	0	721	566	544	152	0	0	
1	0	0	0	0	697	564	548	138	0	0	
2	0	0	0	0	659	556	551	158	0	0	
3	0	0	0	0	609	545	551	211	0	0	
4	0	0	0	0	555	530	548	291	0	0	
5	0	0	0	0	498	513	543	389	0	0	
6	0	0	0	0	447	496	535	496	0	0	
7	0	0	0	0	404	481	526	600	0	0	
8	0	0	0	0	374	469	516	692	0	0	
9	0	0	0	0	361	462	508	764	0	0	
10	0	0	0	0	365	460	500	807	0	0	
11	0	0	0	0	385	463	495	820	0	0	
12	0	0	0	0	420	471	492	800	0	0	
13	0	0	0	0	465	483	492	749	0	0	
14	0	0	0	0	517	497	495	673	0	0	
15	0	0	0	0	569	513	500	578	0	0	
0	0	0	0	0	617	528	507	477	0	0	
1	0	0	0	0	657	541	515	377	0	0	
2	0	0	0	0	683	550	523	291	0	0	
3	0	0	0	0	694	556	531	226	0	0	
4	0	0	0	0	689	556	538	189	0	0	
5	0	0	0	0	668	551	543	184	0	0	
6	0	0	0	0	632	542	546	213	0	0	
7	0	0	0	0	584	528	547	273	0	0	
8	0	0	0	0	531	512	546	359	0	0	
9	0	0	0	0	477	496	542	462	0	0	
10	0	0	0	0	427	480	536	573	0	0	
11	0	0	0	0	387	466	530	681	0	0	
12	0	0	0	0	361	456	524	775	0	0	
13	0	0	0	0	353	451	518	849	0	0	
14	0	0	0	0	362	451	512	892	0	0	
15	0	0	0	0	387	455	507	903	0	0	
0	0	0	0	0	427	462	503	879	0	0	
1	0	0	0	0	477	473	499	820	0	0	
2	0	0	0	0	531	485	497	736	0	0	
3	0	0	0	0	586	497	495	631	0	0	
4	0	0	0	0	634	508	493	516	0	0	
5	0	0	0	0	672	516	492	404	0	0	
6	0	0	0	0	697	521	491	305	0	0	
7	0	0	0	0	706	523	491	229	0	0	
8	0	0	0	0	698	521	491	182	0	0	
9	0	0	0	0	673	515	491	169	0	0	
10	0	0	0	0	635	506	492	192	0	0	
11	0	0	0	0	587	496	493	248	0	0	
12	0	0	0	0	534	486	495	333	0	0	
13	0	0	0	0	482	476	496	436	0	0	
14	0	0	0	0	434	467	498	547	0	0	
15	0	0	0	0	396	460	499	655	0	0	
0	0	0	0	0	372	457	499	750	0	0	
1	0	0	0	0	363	457	499	822	0	0	
2	0	0	0	0	370	461	498	865	0	0	
3	0	0	0	0	393	468	497	875	0	0	
4	0	0	0	0	428	478	495	851	0	0	
5	0	0	0	0	474	491	495	796	0	0	
6	0	0	0	0	525	505	495	714	0	0	
7	0	0	0	0	576	518	495	615	0	0	
8	0	0	0	0	623	530	495	510	0	0	
9	0	0	0	0	660	539	496	408	0	0	
10	0	0	0	0	686	544	497	319	0	0	
11	0	0	0	0	698	546	499	255	0	0	
12	0	0	0	0	696	545	502	219	0	0	
13	0	0	0	0	679	541	505	216	0	0	
14	0	0	0	0	650	535	510	248	0	0	
15	0	0	0	0	612	527	515	312	0	0	
0	0	0	0	0	569	519	520	399	0	0	
1	0	0	0	0	526	512	526	504	0	0	
2	0	0	0	0	485	504	530	612	0	0	
3	0	0	0	0	453	498	533	715	0	0	
4	0	0	0	0	430	492	534	802	0	0	
5	0	0	0	0	420	488	534	865	0	0	
6	0	0	0	0	423	486	530	899	0	0	
7	0	0	0	0	437	484	524	900	0	0	
8	0	0	0	0	462	484	516	868	0	0	
9	0	0	0	0	495	485	508	806	0	0	
10	0	0	0	0	532	487	499	720	0	0	
11	0	0	0	0	571	488	489	618	0	0	
12	0	0	0	0	605	490	482	513	0	0	
13	0	0	0	0	634	491	476	414	0	0	
14	0	0	0	0	652	490	472	330	0	0	
15	0	0	0	0	660	489	471	272	0	0	
0	0	0	0	0	655	486	471	245	0	0	
1	0	0	0	0	639	482	474	252	0	0	
2	0	0	0	0	611	477	478	293	0	0	
3	0	0	0	0	577	472	484	366	0	0	
4	0	0	0	0	539	466	491	463	0	0	
5	0	0	0	0	501	460	496	573	0	0	
6	0	0	0	0	467	457	502	687	0	0	
7	0	0	0	0	442	455	508	793	0	0	
8	0	0	0	0	426	455	512	883	0	0	
9	0	0	0	0	423	457	515	947	0	0	
10	0	0	0	0	432	462	515	978	0	0	
11	0	0	0	0	451	467	514	973	0	0	
12	0	0	0	0	478	472	509	930	0	0	
13	0	0	0	0	510	476	502	852	0	0	
14	0	0	0	0	542	478	491	746	0	0	
15	0	0	0	0	572	478	478	619	0	0	
0	0	0	0	0	594	475	463	485	0	0	
1	0	0	0	0	606	468	448	354	0	0	
2	0	0	0	0	608	460	435	240	0	0	
3	0	0	0	0	597	450	423	153	0	0	
4	0	0	0	0	575	439	415	100	0	0	
5	0	0	0	0	543	429	412	86	0	0	
6	0	0	0	0	505	421	415	112	0	0	
7	0	0	0	0	465	416	423	179	0	0	
8	0	0	0	0	428	415	438	280	0	0	
9	0	0	0	0	396	419	457	403	0	0	
10	0	0	0	0	374	427	480	539	0	0	
11	0	0	0	0	364	440	504	674	0	0	
12	0	0	0	0	367	456	527	796	0	0	
13	0	0	0	0	383	474	549	892	0	0	
14	0	0	0	0	412	493	566	955	0	0	
15	0	0	0	0	451	512	578	980	0	0	
0	0	0	0	0	497	528	584	966	0	0	
1	0	0	0	0	547	543	586	912	0	0	
2	0	0	0	0	596	555	582	825	0	0	
3	0	0	0	0	642	562	575	713	0	0	
4	0	0	0	0	678	565	563	589	0	0	
5	0	0	0	0	703	562	549	463	0	0	
6	0	0	0	0	712	553	532	346	0	0	
7	0	0	0	0	704	539	515	252	0	0	
8	0	0	0	0	678	519	496	187	0	0	
9	0	0	0	0	635	495	477	157	0	0	
10	0	0	0	0	580	468	460	163	0	0	
11	0	0	0	0	516	440	444	205	0	0	
12	0	0	0	0	451	416	432	279	0	0	
13	0	0	0	0	392	396	425	377	0	0	
14	0	0	0	0	344	383	423	490	0	0	
15	0	0	0	0	313	378	428	607	0	0	
0	0	0	0	0	301	382	438	716	0	0	
1	0	0	0	0	312	395	453	807	0	0	
2	0	0	0	0	342	414	471	870	0	0	
3	0	0	0	0	390	439	491	900	0	0	
4	0	0	0	0	452	465	510	894	0	0	
5	0	0	0	0	522	492	527	851	0	0	
6	0	0	0	0	593	518	542	778	0	0	
7	0	0	0	0	660	540	553	681	0	0	
8	0	0	0	0	718	557	561	572	0	0	
9	0	0	0	0	761	568	565	461	0	0	
10	0	0	0	0	786	573	566	361	0	0	
11	0	0	0	0	792	571	565	281	0	0	
12	0	0	0	0	777	563	560	230	0	0	
13	0	0	0	0	742	550	553	209	0	0	
14	0	0	0	0	688	531	544	223	0	0	
15	0	0	0	0	621	510	534	267	0	0	
0	0	0	0	0	545	486	523	337	0	0	
1	0	0	0	0	467	463	510	425	0	0	
2	0	0	0	0	394	441	498	520	0	0	
3	0	0	0	0	332	423	486	612	0	0	
4	0	0	0	0	285	409	475	692	0	0	
5	0	0	0	0	257	400	465	750	0	0	
6	0	0	0	0	249	397	457	781	0	0	
7	0	0	0	0	262	399	451	782	0	0	
8	0	0	0	0	294	406	446	752	0	0	
9	0	0	0	0	341	417	444	694	0	0	
10	0	0	0	0	399	431	444	614	0	0	
11	0	0	0	0	462	447	446	519	0	0	
12	0	0	0	0	524	463	451	420	0	0	
13	0	0	0	0	580	478	457	326	0	0	
14	0	0	0	0	623	490	465	246	0	0	
15	0	0	0	0	650	498	474	188	0	0	
0	0	0	0	0	660	503	483	156	0	0	
1	0	0	0	0	651	502	491	156	0	0	
2	0	0	0	0	624	496	497	186	0	0	
3	0	0	0	0	582	487	500	245	0	0	
4	0	0	0	0	529	473	501	326	0	0	
5	0	0	0	0	472	460	499	423	0	0	
6	0	0	0	0	416	446	495	524	0	0	
7	0	0	0	0	367	433	491	623	0	0	
8	0	0	0	0	331	425	486	707	0	0	
9	0	0	0	0	310	421	482	770	0	0	
10	0	0	0	0	307	422	479	806	0	0	
11	0	0	0	0	322	427	478	811	0	0	
12	0	0	0	0	353	436	478	785	0	0	
13	0	0	0	0	398	448	479	728	0	0	
14	0	0	0	0	451	463	481	649	0	0	
15	0	0	0	0	506	476	484	552	0	0	
0	0	0	0	0	559	489	487	450	0	0	
1	0	0	0	0	604	500	490	352	0	0	
2	0	0	0	0	637	509	494	267	0	0	
3	0	0	0	0	656	514	498	204	0	0	
4	0	0	0	0	658	514	502	168	0	0	
5	0	0	0	0	644	511	504	163	0	0	
6	0	0	0	0	615	504	506	188	0	0	
7	0	0	0	0	574	494	507	242	0	0	
8	0	0	0	0	526	482	506	318	0	0	
9	0	0	0	0	475	468	504	408	0	0	
10	0	0	0	0	426	456	500	504	0	0	
11	0	0	0	0	385	446	495	593	0	0	
12	0	0	0	0	356	439	490	669	0	0	
13	0	0	0	0	342	435	486	722	0	0	
14	0	0	0	0	344	437	482	747	0	0	
15	0	0	0	0	361	443	480	741	0	0	
0	0	0	0	0	395	453	480	704	0	0	
1	0	0	0	0	440	467	481	639	0	0	
2	0	0	0	0	492	482	485	554	0	0	
3	0	0	0	0	547	498	489	455	0	0	
4	0	0	0	0	599	512	495	352	0	0	
5	0	0	0	0	643	524	500	258	0	0	
6	0	0	0	0	676	533	506	181	0	0	
7	0	0	0	0	695	538	512	128	0	0	
8	0	0	0	0	699	540	518	106	0	0	
9	0	0	0	0	686	537	523	118	0	0	
10	0	0	0	0	658	531	526	165	0	0	
11	0	0	0	0	618	523	528	242	0	0	
12	0	0	0	0	569	511	529	342	0	0	
13	0	0	0	0	517	498	527	456	0	0	
14	0	0	0	0	467	484	523	574	0	0	
15	0	0	0	0	423	471	515	683	0	0	
0	0	0	0	0	390	459	506	773	0	0	
1	0	0	0	0	370	448	496	836	0	0	
2	0	0	0	0	364	441	483	866	0	0	
3	0	0	0	0	373	436	470	860	0	0	
4	0	0	0	0	395	435	457	819	0	0	
5	0	0	0	0	427	436	447	745	0	0	
6	0	0	0	0	467	440	438	647	0	0	
7	0	0	0	0	509	447	433	534	0	0	
8	0	0	0	0	549	454	431	416	0	0	
9	0	0	0	0	585	463	434	306	0	0	
10	0	0	0	0	612	471	440	214	0	0	
11	0	0	0	0	628	478	451	147	0	0	
12	0	0	0	0	632	483	465	113	0	0	
13	0	0	0	0	623	487	480	114	0	0	
14	0	0	0	0	604	488	497	152	0	0	
15	0	0	0	0	574	487	512	223	0	0	
0	0	0	0	0	538	483	526	319	0	0	
1	0	0	0	0	500	480	537	432	0	0	
2	0	0	0	0	463	475	544	548	0	0	
3	0	0	0	0	430	469	546	658	0	0	
4	0	0	0	0	404	463	543	750	0	0	
5	0	0	0	0	390	459	537	815	0	0	
6	0	0	0	0	385	455	525	846	0	0	
7	0	0	0	0	391	452	510	840	0	0	
8	0	0	0	0	408	450	494	798	0	0	
9	0	0	0	0	433	449	476	722	0	0	
10	0	0	0	0	464	450	460	621	0	0	
11	0	0	0	0	497	452	445	503	0	0	
12	0	0	0	0	530	455	434	382	0	0	
13	0	0	0	0	560	458	427	268	0	0	
14	0	0	0	0	583	462	425	173	0	0	
15	0	0	0	0	598	466	429	105	0	0	
0	0	0	0	0	605	471	439	73	0	0	
1	0	0	0	0	602	476	454	79	0	0	
2	0	0	0	0	590	480	473	124	0	0	
3	0	0	0	0	572	486	495	204	0	0	
4	0	0	0	0	548	491	518	313	0	0	
5	0	0	0	0	522	496	540	440	0	0	
6	0	0	0	0	497	501	559	572	0	0	
7	0	0	0	0	476	505	575	698	0	0	
8	0	0	0	0	459	508	584	806	0	0	
9	0	0	0	0	451	510	588	884	0	0	
10	0	0	0	0	450	512	584	927	0	0	
11	0	0	0	0	457	511	574	930	0	0	
12	0	0	0	0	472	509	559	893	0	0	
13	0	0	0	0	491	505	540	818	0	0	
14	0	0	0	0	514	501	519	712	0	0	
15	0	0	0	0	537	497	499	588	0	0	
0	0	0	0	0	558	493	482	456	0	0	
1	0	0	0	0	577	491	470	331	0	0	
2	0	0	0	0	591	491	464	225	0	0	
3	0	0	0	0	600	492	465	149	0	0	
4	0	0	0	0	603	496	475	110	0	0	
5	0	0	0	0	600	502	491	111	0	0	
6	0	0	0	0	592	509	512	154	0	0	
7	0	0	0	0	579	517	536	235	0	0	
8	0	0	0	0	564	526	561	344	0	0	
9	0	0	0	0	548	533	584	469	0	0	
10	0	0	0	0	532	539	603	600	0	0	
11	0	0	0	0	519	543	617	722	0	0	
12	0	0	0	0	510	547	624	825	0	0	
13	0	0	0	0	506	547	624	898	0	0	
14	0	0	0	0	508	547	616	935	0	0	
15	0	0	0	0	516	545	603	934	0	0	
0	0	0	0	0	530	542	585	892	0	0	
1	0	0	0	0	548	538	564	814	0	0	
2	0	0	0	0	568	534	542	707	0	0	
3	0	0	0	0	589	528	519	582	0	0	
4	0	0	0	0	605	521	499	451	0	0	
5	0	0	0	0	617	515	482	325	0	0	
6	0	0	0	0	622	508	470	219	0	0	
7	0	0	0	0	619	500	463	141	0	0	
8	0	0	0	0	606	492	461	97	0	0	
9	0	0	0	0	585	485	464	93	0	0	
10	0	0	0	0	559	479	472	128	0	0	
11	0	0	0	0	528	473	483	201	0	0	
12	0	0	0	0	495	468	496	302	0	0	
13	0	0	0	0	463	464	510	422	0	0	
14	0	0	0	0	435	460	522	548	0	0	
15	0	0	0	0	412	458	531	670	0	0	
0	0	0	0	0	397	457	537	773	0	0	
1	0	0	0	0	392	457	539	849	0	0	
2	0	0	0	0	397	459	537	893	0	0	
3	0	0	0	0	412	463	532	899	0	0	
4	0	0	0	0	436	468	524	866	0	0	
5	0	0	0	0	466	475	515	799	0	0	
6	0	0	0	0	502	484	507	705	0	0	
7	0	0	0	0	539	494	500	592	0	0	
8	0	0	0	0	574	503	495	473	0	0	
9	0	0	0	0	604	513	494	359	0	0	
10	0	0	0	0	628	521	496	262	0	0	
11	0	0	0	0	642	528	501	191	0	0	
12	0	0	0	0	646	532	508	151	0	0	
13	0	0	0	0	639	534	518	147	0	0	
14	0	0	0	0	620	531	527	181	0	0	
15	0	0	0	0	592	525	536	246	0	0	
0	0	0	0	0	557	516	542	338	0	0	
1	0	0	0	0	517	504	543	444	0	0	
2	0	0	0	0	476	491	542	556	0	0	
3	0	0	0	0	439	477	536	659	0	0	
4	0	0	0	0	408	463	526	745	0	0	
5	0	0	0	0	387	451	513	806	0	0	
6	0	0	0	0	379	443	498	835	0	0	
7	0	0	0	0	383	440	484	830	0	0	
8	0	0	0	0	402	441	472	791	0	0	
9	0	0	0	0	432	449	464	722	0	0	
10	0	0	0	0	472	462	460	630	0	0	
11	0	0	0	0	516	479	461	524	0	0	
12	0	0	0	0	561	499	467	414	0	0	
13	0	0	0	0	603	519	478	312	0	0	
14	0	0	0	0	637	540	494	227	0	0	
15	0	0	0	0	662	559	512	167	0	0	
0	0	0	0	0	675	574	534	139	0	0	
1	0	0	0	0	675	585	555	144	0	0	
2	0	0	0	0	664	592	575	185	0	0	
3	0	0	0	0	643	595	593	257	0	0	
4	0	0	0	0	615	593	608	352	0	0	
5	0	0	0	0	583	588	618	463	0	0	
6	0	0	0	0	550	579	622	576	0	0	
7	0	0	0	0	519	569	622	682	0	0	
8	0	0	0	0	495	556	615	770	0	0	
9	0	0	0	0	479	543	604	831	0	0	
10	0	0	0	0	471	529	587	860	0	0	
11	0	0	0	0	472	515	566	852	0	0	
12	0	0	0	0	482	502	544	808	0	0	
13	0	0	0	0	497	490	521	732	0	0	
14	0	0	0	0	518	480	500	630	0	0	
15	0	0	0	0	540	473	482	513	0	0	
0	0	0	0	0	562	467	467	391	0	0	
1	0	0	0	0	581	464	459	277	0	0	
2	0	0	0	0	595	464	457	182	0	0	
3	0	0	0	0	603	464	460	113	0	0	
4	0	0	0	0	603	465	467	76	0	0	
5	0	0	0	0	595	466	480	76	0	0	
6	0	0	0	0	581	467	495	113	0	0	
7	0	0	0	0	561	468	512	183	0	0	
8	0	0	0	0	538	468	528	279	0	0	
9	0	0	0	0	515	469	544	392	0	0	
10	0	0	0	0	494	470	558	510	0	0	
11	0	0	0	0	477	472	568	623	0	0	
12	0	0	0	0	468	474	575	719	0	0	
13	0	0	0	0	467	478	578	790	0	0	
14	0	0	0	0	475	482	577	828	0	0	
15	0	0	0	0	491	487	573	831	0	0	
0	0	0	0	0	514	493	565	798	0	0	
1	0	0	0	0	542	498	556	732	0	0	
2	0	0	0	0	574	503	547	640	0	0	
3	0	0	0	0	604	508	538	533	0	0	
4	0	0	0	0	632	511	531	421	0	0	
5	0	0	0	0	655	513	525	316	0	0	
6	0	0	0	0	669	513	523	228	0	0	
7	0	0	0	0	673	512	523	167	0	0	
8	0	0	0	0	667	508	525	137	0	0	
9	0	0	0	0	651	502	529	144	0	0	
10	0	0	0	0	625	493	534	189	0	0	
11	0	0	0	0	593	484	540	267	0	0	
12	0	0	0	0	557	473	545	371	0	0	
13	0	0	0	0	521	463	550	492	0	0	
14	0	0	0	0	490	454	552	619	0	0	
15	0	0	0	0	465	446	552	739	0	0	
0	0	0	0	0	449	440	550	843	0	0	
1	0	0	0	0	444	436	545	920	0	0	
2	0	0	0	0	451	435	538	963	0	0	
3	0	0	0	0	467	436	529	969	0	0	
4	0	0	0	0	491	439	518	937	0	0	
5	0	0	0	0	521	444	507	868	0	0	
6	0	0	0	0	553	450	496	771	0	0	
7	0	0	0	0	584	457	487	655	0	0	
8	0	0	0	0	611	463	480	531	0	0	
9	0	0	0	0	632	469	477	412	0	0	
10	0	0	0	0	644	475	479	309	0	0	
11	0	0	0	0	647	480	485	235	0	0	
12	0	0	0	0	641	484	496	193	0	0	
13	0	0	0	0	626	487	510	189	0	0	
14	0	0	0	0	604	490	527	224	0	0	
15	0	0	0	0	577	492	546	293	0	0	
0	0	0	0	0	548	494	565	390	0	0	
1	0	0	0	0	520	495	583	503	0	0	
2	0	0	0	0	496	495	596	620	0	0	
3	0	0	0	0	478	495	605	732	0	0	
4	0	0	0	0	468	495	609	825	0	0	
5	0	0	0	0	467	495	608	893	0	0	
6	0	0	0	0	476	495	601	928	0	0	
7	0	0	0	0	494	495	589	929	0	0	
8	0	0	0	0	517	495	574	895	0	0	
9	0	0	0	0	543	494	555	827	0	0	
10	0	0	0	0	569	492	534	734	0	0	
11	0	0	0	0	593	489	513	625	0	0	
12	0	0	0	0	610	484	493	511	0	0	
13	0	0	0	0	620	480	477	401	0	0	
14	0	0	0	0	620	474	465	309	0	0	
15	0	0	0	0	611	469	459	243	0	0	
0	0	0	0	0	593	464	460	210	0	0	
1	0	0	0	0	568	462	467	214	0	0	
2	0	0	0	0	539	461	480	255	0	0	
3	0	0	0	0	506	461	499	329	0	0	
4	0	0	0	0	474	463	519	431	0	0	
5	0	0	0	0	446	466	541	547	0	0	
6	0	0	0	0	424	471	561	668	0	0	
7	0	0	0	0	412	476	579	783	0	0	
8	0	0	0	0	410	484	593	880	0	0	
9	0	0	0	0	420	493	604	952	0	0	
10	0	0	0	0	442	503	609	992	0	0	
11	0	0	0	0	473	513	611	994	0	0	
12	0	0	0	0	510	524	608	960	0	0	
13	0	0	0	0	550	532	603	890	0	0	
14	0	0	0	0	589	539	593	792	0	0	
15	0	0	0	0	624	542	582	676	0	0	
0	0	0	0	0	650	543	568	552	0	0	
1	0	0	0	0	665	540	556	433	0	0	
2	0	0	0	0	670	535	544	330	0	0	
3	0	0	0	0	662	528	536	254	0	0	
4	0	0	0	0	642	520	531	211	0	0	
5	0	0	0	0	613	512	530	206	0	0	
6	0	0	0	0	577	505	533	240	0	0	
7	0	0	0	0	538	499	540	308	0	0	
8	0	0	0	0	501	496	550	405	0	0	
9	0	0	0	0	467	494	560	519	0	0	
10	0	0	0	0	442	494	571	639	0	0	
11	0	0	0	0	427	495	581	755	0	0	
12	0	0	0	0	422	496	588	852	0	0	
13	0	0	0	0	430	499	591	924	0	0	
14	0	0	0	0	448	503	591	964	0	0	
15	0	0	0	0	477	506	587	967	0	0	
0	0	0	0	0	513	509	579	932	0	0	
1	0	0	0	0	553	512	569	864	0	0	
2	0	0	0	0	595	516	558	768	0	0	
3	0	0	0	0	634	518	547	654	0	0	
4	0	0	0	0	665	519	536	534	0	0	
5	0	0	0	0	688	519	526	418	0	0	
6	0	0	0	0	697	516	518	318	0	0	
7	0	0	0	0	692	512	512	246	0	0	
8	0	0	0	0	675	506	510	207	0	0	
9	0	0	0	0	644	498	509	205	0	0	
10	0	0	0	0	603	489	509	240	0	0	
11	0	0	0	0	556	479	512	311	0	0	
12	0	0	0	0	507	469	515	409	0	0	
13	0	0	0	0	460	460	518	523	0	0	
14	0	0	0	0	422	453	521	643	0	0	
15	0	0	0	0	394	449	524	759	0	0	
0	0	0	0	0	381	448	527	857	0	0	
1	0	0	0	0	384	452	530	931	0	0	
2	0	0	0	0	403	460	534	973	0	0	
3	0	0	0	0	436	472	537	979	0	0	
4	0	0	0	0	480	486	540	949	0	0	
5	0	0	0	0	529	502	543	884	0	0	
6	0	0	0	0	582	517	546	791	0	0	
7	0	0	0	0	630	531	548	678	0	0	
8	0	0	0	0	671	543	550	558	0	0	
9	0	0	0	0	701	551	550	439	0	0	
10	0	0	0	0	716	555	548	335	0	0	
11	0	0	0	0	716	553	546	255	0	0	
12	0	0	0	0	698	547	543	205	0	0	
13	0	0	0	0	667	536	540	190	0	0	
14	0	0	0	0	624	524	537	211	0	0	
15	0	0	0	0	574	510	536	267	0	0	
0	0	0	0	0	523	496	535	351	0	0	
1	0	0	0	0	474	483	536	454	0	0	
2	0	0	0	0	434	472	537	564	0	0	
3	0	0	0	0	406	464	539	671	0	0	
4	0	0	0	0	392	460	541	764	0	0	
5	0	0	0	0	395	460	544	834	0	0	
6	0	0	0	0	415	465	547	874	0	0	
7	0	0	0	0	450	473	550	880	0	0	
8	0	0	0	0	496	484	554	851	0	0	
9	0	0	0	0	550	497	556	788	0	0	
10	0	0	0	0	606	511	559	699	0	0	
11	0	0	0	0	659	524	561	591	0	0	
12	0	0	0	0	704	535	562	476	0	0	
13	0	0	0	0	737	542	562	367	0	0	
14	0	0	0	0	757	546	562	272	0	0	
15	0	0	0	0	760	545	561	204	0	0	
0	0	0	0	0	747	542	560	167	0	0	
1	0	0	0	0	719	535	560	166	0	0	
