# OpenSignals Text File Format. Version 1
# {"": {"position": 0, "device": "", "device name": "", "device connection": "", "sampling rate": 1000, "resolution": [4, 1, 1, 1, 1, 10, 10, 10, 10, 6, 6], "firmware version": 1281, "comments": "", "keywords": "", "mode": 0, "sync interval": 2, "date": "", "time": "", "channels": [1, 2, 3, 4, 5, 6], "sensor": ["RAW", "RAW", "RAW", "RAW", "RAW", "RAW"], "label": ["A1", "A2", "A3", "A4", "A5", "A6"], "column": ["nSeq", "I1", "I2", "O1", "O2", "A1", "A2", "A3", "A4", "A5", "A6"], "special": [{}, {}, {}, {}, {}, {}], "digital IO": [0, 0, 1, 1]}}
# EndOfHeader
0	0	0	0	0	536	504	500	395	0	0	
1	0	0	0	0	534	501	495	398	0	0	
2	0	0	0	0	534	499	490	402	0	0	
3	0	0	0	0	533	498	486	408	0	0	
4	0	0	0	0	533	497	483	415	0	0	
5	0	0	0	0	533	498	482	422	0	0	
6	0	0	0	0	534	499	483	429	0	0	
7	0	0	0	0	535	501	484	434	0	0	
8	0	0	0	0	536	503	487	438	0	0	
9	0	0	0	0	536	505	490	439	0	0	
10	0	0	0	0	538	507	495	438	0	0	
11	0	0	0	0	538	508	499	435	0	0	
12	0	0	0	0	538	508	502	430	0	0	
13	0	0	0	0	538	508	504	423	0	0	
14	0	0	0	0	538	507	506	417	0	0	
15	0	0	0	0	538	505	506	410	0	0	
0	0	0	0	0	536	503	505	404	0	0	
1	0	0	0	0	535	499	502	398	0	0	
2	0	0	0	0	533	495	498	394	0	0	
3	0	0	0	0	531	491	492	392	0	0	
4	0	0	0	0	529	487	487	391	0	0	
5	0	0	0	0	528	484	481	393	0	0	
6	0	0	0	0	527	481	475	397	0	0	
7	0	0	0	0	526	480	471	403	0	0	
8	0	0	0	0	527	479	466	409	0	0	
9	0	0	0	0	527	479	463	415	0	0	
10	0	0	0	0	527	480	462	421	0	0	
11	0	0	0	0	528	481	461	425	0	0	
12	0	0	0	0	529	483	461	428	0	0	
13	0	0	0	0	529	484	463	428	0	0	
14	0	0	0	0	530	486	465	427	0	0	
15	0	0	0	0	530	487	469	423	0	0	
0	0	0	0	0	531	488	473	419	0	0	
1	0	0	0	0	531	489	477	413	0	0	
2	0	0	0	0	531	489	481	406	0	0	
3	0	0	0	0	532	488	485	399	0	0	
4	0	0	0	0	532	487	487	393	0	0	
5	0	0	0	0	531	485	489	389	0	0	
6	0	0	0	0	531	484	489	386	0	0	
7	0	0	0	0	531	482	487	385	0	0	
8	0	0	0	0	530	480	486	387	0	0	
9	0	0	0	0	529	479	483	391	0	0	
10	0	0	0	0	529	479	480	396	0	0	
11	0	0	0	0	528	478	477	403	0	0	
12	0	0	0	0	528	478	473	409	0	0	
13	0	0	0	0	528	478	472	415	0	0	
14	0	0	0	0	527	478	471	420	0	0	
15	0	0	0	0	527	479	471	423	0	0	
0	0	0	0	0	526	480	472	424	0	0	
1	0	0	0	0	526	480	474	423	0	0	
2	0	0	0	0	525	480	477	419	0	0	
3	0	0	0	0	524	480	480	412	0	0	
4	0	0	0	0	522	479	483	404	0	0	
5	0	0	0	0	521	478	484	394	0	0	
6	0	0	0	0	519	476	484	384	0	0	
7	0	0	0	0	518	473	484	375	0	0	
8	0	0	0	0	515	470	482	368	0	0	
9	0	0	0	0	514	468	480	364	0	0	
10	0	0	0	0	512	466	477	362	0	0	
11	0	0	0	0	512	463	473	363	0	0	
12	0	0	0	0	512	462	470	367	0	0	
13	0	0	0	0	512	461	467	374	0	0	
14	0	0	0	0	512	461	465	382	0	0	
15	0	0	0	0	514	461	463	391	0	0	
0	0	0	0	0	515	463	463	400	0	0	
1	0	0	0	0	518	465	464	409	0	0	
2	0	0	0	0	520	468	467	416	0	0	
3	0	0	0	0	523	471	471	421	0	0	
4	0	0	0	0	526	475	476	423	0	0	
5	0	0	0	0	528	478	482	422	0	0	
6	0	0	0	0	530	480	488	418	0	0	
7	0	0	0	0	532	483	494	412	0	0	
8	0	0	0	0	533	484	499	403	0	0	
9	0	0	0	0	534	485	503	394	0	0	
10	0	0	0	0	535	485	505	384	0	0	
11	0	0	0	0	536	484	506	376	0	0	
12	0	0	0	0	535	482	505	370	0	0	
13	0	0	0	0	535	480	503	366	0	0	
14	0	0	0	0	535	476	498	364	0	0	
15	0	0	0	0	534	473	492	364	0	0	
0	0	0	0	0	532	470	486	367	0	0	
1	0	0	0	0	530	466	478	372	0	0	
2	0	0	0	0	528	463	471	380	0	0	
3	0	0	0	0	526	461	463	388	0	0	
4	0	0	0	0	524	460	457	397	0	0	
5	0	0	0	0	523	460	451	406	0	0	
6	0	0	0	0	522	461	448	413	0	0	
7	0	0	0	0	521	463	446	419	0	0	
8	0	0	0	0	522	467	446	423	0	0	
9	0	0	0	0	522	471	448	424	0	0	
10	0	0	0	0	524	475	451	424	0	0	
11	0	0	0	0	525	479	457	422	0	0	
12	0	0	0	0	526	483	463	418	0	0	
13	0	0	0	0	527	485	470	412	0	0	
14	0	0	0	0	528	486	476	407	0	0	
15	0	0	0	0	528	487	483	401	0	0	
0	0	0	0	0	528	486	487	396	0	0	
1	0	0	0	0	528	484	490	392	0	0	
2	0	0	0	0	527	481	492	390	0	0	
3	0	0	0	0	525	478	491	389	0	0	
4	0	0	0	0	523	473	488	388	0	0	
5	0	0	0	0	520	470	485	390	0	0	
6	0	0	0	0	517	466	480	392	0	0	
7	0	0	0	0	515	463	475	395	0	0	
8	0	0	0	0	513	460	469	399	0	0	
9	0	0	0	0	511	458	464	402	0	0	
10	0	0	0	0	511	457	460	405	0	0	
11	0	0	0	0	509	457	457	407	0	0	
12	0	0	0	0	509	457	455	408	0	0	
13	0	0	0	0	508	457	453	407	0	0	
14	0	0	0	0	508	458	453	404	0	0	
15	0	0	0	0	508	459	455	401	0	0	
0	0	0	0	0	508	460	456	397	0	0	
1	0	0	0	0	509	460	458	392	0	0	
2	0	0	0	0	509	460	460	387	0	0	
3	0	0	0	0	510	460	463	382	0	0	
4	0	0	0	0	511	459	464	378	0	0	
5	0	0	0	0	511	457	465	374	0	0	
6	0	0	0	0	511	455	464	371	0	0	
7	0	0	0	0	510	453	463	371	0	0	
8	0	0	0	0	510	450	462	371	0	0	
9	0	0	0	0	508	448	459	373	0	0	
10	0	0	0	0	507	446	457	376	0	0	
11	0	0	0	0	506	444	455	380	0	0	
12	0	0	0	0	505	443	453	385	0	0	
13	0	0	0	0	505	442	452	389	0	0	
14	0	0	0	0	504	443	452	393	0	0	
15	0	0	0	0	504	443	453	396	0	0	
0	0	0	0	0	504	444	455	398	0	0	
1	0	0	0	0	504	446	456	398	0	0	
2	0	0	0	0	504	447	460	397	0	0	
3	0	0	0	0	505	449	463	395	0	0	
4	0	0	0	0	506	451	465	391	0	0	
5	0	0	0	0	507	452	468	387	0	0	
6	0	0	0	0	507	453	470	383	0	0	
7	0	0	0	0	508	454	471	378	0	0	
8	0	0	0	0	509	454	471	374	0	0	
9	0	0	0	0	509	453	470	371	0	0	
10	0	0	0	0	509	452	467	370	0	0	
11	0	0	0	0	509	451	463	370	0	0	
12	0	0	0	0	509	449	459	371	0	0	
13	0	0	0	0	508	448	453	374	0	0	
14	0	0	0	0	507	447	448	378	0	0	
15	0	0	0	0	506	446	442	384	0	0	
0	0	0	0	0	505	446	438	388	0	0	
1	0	0	0	0	505	446	436	393	0	0	
2	0	0	0	0	505	447	435	396	0	0	
3	0	0	0	0	505	448	435	398	0	0	
4	0	0	0	0	505	450	437	398	0	0	
5	0	0	0	0	505	451	439	395	0	0	
6	0	0	0	0	504	451	443	390	0	0	
7	0	0	0	0	503	451	447	383	0	0	
8	0	0	0	0	502	451	450	374	0	0	
9	0	0	0	0	499	450	452	364	0	0	
10	0	0	0	0	497	448	454	356	0	0	
11	0	0	0	0	496	447	455	349	0	0	
12	0	0	0	0	494	446	455	344	0	0	
13	0	0	0	0	493	446	454	342	0	0	
14	0	0	0	0	492	445	453	343	0	0	
15	0	0	0	0	493	446	451	347	0	0	
0	0	0	0	0	495	447	450	354	0	0	
1	0	0	0	0	496	448	449	363	0	0	
2	0	0	0	0	498	451	449	374	0	0	
3	0	0	0	0	500	454	449	385	0	0	
4	0	0	0	0	503	456	450	396	0	0	
5	0	0	0	0	505	460	452	405	0	0	
6	0	0	0	0	507	463	454	412	0	0	
7	0	0	0	0	509	465	457	417	0	0	
8	0	0	0	0	511	468	460	419	0	0	
9	0	0	0	0	512	470	463	418	0	0	
10	0	0	0	0	513	471	466	414	0	0	
11	0	0	0	0	514	472	469	408	0	0	
12	0	0	0	0	515	473	472	400	0	0	
13	0	0	0	0	516	473	474	392	0	0	
14	0	0	0	0	518	472	476	384	0	0	
15	0	0	0	0	519	472	477	377	0	0	
0	0	0	0	0	520	472	479	373	0	0	
1	0	0	0	0	522	471	480	371	0	0	
2	0	0	0	0	524	472	480	372	0	0	
3	0	0	0	0	525	471	480	375	0	0	
4	0	0	0	0	527	472	480	381	0	0	
5	0	0	0	0	528	472	480	390	0	0	
6	0	0	0	0	529	473	480	399	0	0	
7	0	0	0	0	529	473	479	408	0	0	
8	0	0	0	0	530	475	478	418	0	0	
9	0	0	0	0	530	475	477	426	0	0	
10	0	0	0	0	530	476	476	433	0	0	
11	0	0	0	0	529	477	476	438	0	0	
12	0	0	0	0	529	478	477	441	0	0	
13	0	0	0	0	528	478	478	441	0	0	
14	0	0	0	0	528	478	480	439	0	0	
15	0	0	0	0	528	479	483	435	0	0	
0	0	0	0	0	528	479	486	430	0	0	
1	0	0	0	0	529	480	489	424	0	0	
2	0	0	0	0	529	479	492	417	0	0	
3	0	0	0	0	530	479	495	412	0	0	
4	0	0	0	0	530	480	497	407	0	0	
5	0	0	0	0	531	480	498	404	0	0	
6	0	0	0	0	531	480	498	404	0	0	
7	0	0	0	0	531	480	496	406	0	0	
8	0	0	0	0	532	480	494	409	0	0	
9	0	0	0	0	531	481	490	415	0	0	
10	0	0	0	0	531	482	486	423	0	0	
11	0	0	0	0	531	483	481	432	0	0	
12	0	0	0	0	531	485	478	441	0	0	
13	0	0	0	0	531	487	476	449	0	0	
14	0	0	0	0	531	489	475	456	0	0	
15	0	0	0	0	531	491	476	461	0	0	
0	0	0	0	0	532	494	478	464	0	0	
1	0	0	0	0	533	496	481	464	0	0	
2	0	0	0	0	534	499	486	461	0	0	
3	0	0	0	0	535	501	492	455	0	0	
4	0	0	0	0	535	503	497	449	0	0	
5	0	0	0	0	536	504	503	441	0	0	
6	0	0	0	0	537	505	508	434	0	0	
7	0	0	0	0	540	505	512	427	0	0	
8	0	0	0	0	541	506	515	422	0	0	
9	0	0	0	0	543	506	517	419	0	0	
10	0	0	0	0	545	505	517	417	0	0	
11	0	0	0	0	547	505	515	419	0	0	
12	0	0	0	0	550	505	513	423	0	0	
13	0	0	0	0	551	504	511	429	0	0	
14	0	0	0	0	552	504	508	437	0	0	
15	0	0	0	0	552	504	504	445	0	0	
0	0	0	0	0	553	504	502	453	0	0	
1	0	0	0	0	553	504	500	461	0	0	
2	0	0	0	0	553	505	499	468	0	0	
3	0	0	0	0	552	506	499	473	0	0	
4	0	0	0	0	552	507	500	477	0	0	
5	0	0	0	0	551	507	501	478	0	0	
6	0	0	0	0	550	507	502	475	0	0	
7	0	0	0	0	549	506	503	471	0	0	
8	0	0	0	0	547	504	503	463	0	0	
9	0	0	0	0	545	503	502	455	0	0	
10	0	0	0	0	544	500	500	446	0	0	
11	0	0	0	0	543	498	498	438	0	0	
12	0	0	0	0	542	496	495	431	0	0	
13	0	0	0	0	542	495	492	425	0	0	
14	0	0	0	0	542	493	488	423	0	0	
15	0	0	0	0	542	492	486	423	0	0	
0	0	0	0	0	543	493	484	426	0	0	
1	0	0	0	0	544	493	483	432	0	0	
2	0	0	0	0	546	495	484	440	0	0	
3	0	0	0	0	547	496	486	449	0	0	
4	0	0	0	0	549	498	489	458	0	0	
5	0	0	0	0	551	500	494	467	0	0	
6	0	0	0	0	552	503	499	474	0	0	
7	0	0	0	0	553	505	504	479	0	0	
8	0	0	0	0	554	508	509	480	0	0	
9	0	0	0	0	554	510	514	478	0	0	
10	0	0	0	0	555	511	518	474	0	0	
11	0	0	0	0	554	512	520	467	0	0	
12	0	0	0	0	553	512	521	457	0	0	
13	0	0	0	0	552	512	520	448	0	0	
14	0	0	0	0	551	511	518	439	0	0	
15	0	0	0	0	551	510	515	430	0	0	
0	0	0	0	0	550	509	512	424	0	0	
1	0	0	0	0	550	508	508	421	0	0	
2	0	0	0	0	550	508	504	421	0	0	
3	0	0	0	0	550	507	500	423	0	0	
4	0	0	0	0	551	507	497	429	0	0	
5	0	0	0	0	551	507	495	437	0	0	
6	0	0	0	0	550	507	492	446	0	0	
7	0	0	0	0	550	507	491	455	0	0	
8	0	0	0	0	549	507	491	463	0	0	
9	0	0	0	0	548	507	491	470	0	0	
10	0	0	0	0	547	508	492	476	0	0	
11	0	0	0	0	547	508	494	479	0	0	
12	0	0	0	0	546	509	496	480	0	0	
13	0	0	0	0	546	510	499	479	0	0	
14	0	0	0	0	547	511	502	475	0	0	
15	0	0	0	0	547	513	505	469	0	0	
0	0	0	0	0	548	514	508	462	0	0	
1	0	0	0	0	549	515	509	455	0	0	
2	0	0	0	0	551	516	511	447	0	0	
3	0	0	0	0	552	516	511	440	0	0	
4	0	0	0	0	553	515	510	434	0	0	
5	0	0	0	0	554	514	508	429	0	0	
6	0	0	0	0	555	512	504	427	0	0	
7	0	0	0	0	555	509	500	426	0	0	
8	0	0	0	0	554	506	496	428	0	0	
9	0	0	0	0	552	504	491	431	0	0	
10	0	0	0	0	551	501	486	436	0	0	
11	0	0	0	0	549	499	481	442	0	0	
12	0	0	0	0	547	498	478	448	0	0	
13	0	0	0	0	546	498	476	455	0	0	
14	0	0	0	0	545	499	476	460	0	0	
15	0	0	0	0	545	501	477	465	0	0	
0	0	0	0	0	545	503	481	469	0	0	
1	0	0	0	0	546	507	486	471	0	0	
2	0	0	0	0	548	510	492	472	0	0	
3	0	0	0	0	549	513	499	470	0	0	
4	0	0	0	0	550	515	505	466	0	0	
5	0	0	0	0	550	516	510	461	0	0	
6	0	0	0	0	549	516	513	455	0	0	
7	0	0	0	0	547	516	514	447	0	0	
8	0	0	0	0	545	514	513	441	0	0	
9	0	0	0	0	543	511	510	435	0	0	
10	0	0	0	0	542	508	505	432	0	0	
11	0	0	0	0	540	504	499	431	0	0	
12	0	0	0	0	540	502	494	432	0	0	
13	0	0	0	0	539	499	487	436	0	0	
14	0	0	0	0	539	498	482	443	0	0	
15	0	0	0	0	540	497	479	451	0	0	
0	0	0	0	0	542	497	476	461	0	0	
1	0	0	0	0	543	498	476	470	0	0	
2	0	0	0	0	546	500	478	479	0	0	
3	0	0	0	0	548	502	482	486	0	0	
4	0	0	0	0	550	504	487	491	0	0	
5	0	0	0	0	552	506	494	492	0	0	
6	0	0	0	0	553	508	501	491	0	0	
7	0	0	0	0	554	509	508	487	0	0	
8	0	0	0	0	555	510	515	481	0	0	
9	0	0	0	0	555	511	520	473	0	0	
10	0	0	0	0	554	510	524	465	0	0	
11	0	0	0	0	554	509	527	456	0	0	
12	0	0	0	0	553	508	528	448	0	0	
13	0	0	0	0	551	506	527	442	0	0	
14	0	0	0	0	550	504	525	438	0	0	
15	0	0	0	0	548	501	521	437	0	0	
0	0	0	0	0	547	499	517	439	0	0	
1	0	0	0	0	544	496	511	442	0	0	
2	0	0	0	0	543	495	505	448	0	0	
3	0	0	0	0	542	493	499	455	0	0	
4	0	0	0	0	542	492	494	463	0	0	
5	0	0	0	0	542	492	489	471	0	0	
6	0	0	0	0	542	492	486	478	0	0	
7	0	0	0	0	542	493	485	483	0	0	
8	0	0	0	0	543	495	486	485	0	0	
9	0	0	0	0	544	496	487	486	0	0	
10	0	0	0	0	546	498	491	484	0	0	
11	0	0	0	0	547	500	496	480	0	0	
12	0	0	0	0	548	502	502	474	0	0	
13	0	0	0	0	549	504	508	467	0	0	
14	0	0	0	0	550	504	513	459	0	0	
15	0	0	0	0	551	505	519	451	0	0	
0	0	0	0	0	550	505	523	444	0	0	
1	0	0	0	0	550	504	526	440	0	0	
2	0	0	0	0	549	504	527	436	0	0	
3	0	0	0	0	548	502	526	436	0	0	
4	0	0	0	0	546	500	524	437	0	0	
5	0	0	0	0	544	498	520	441	0	0	
6	0	0	0	0	542	497	515	446	0	0	
7	0	0	0	0	540	495	510	453	0	0	
8	0	0	0	0	538	494	504	460	0	0	
9	0	0	0	0	536	493	499	466	0	0	
10	0	0	0	0	535	493	495	472	0	0	
11	0	0	0	0	534	494	493	476	0	0	
12	0	0	0	0	535	495	492	477	0	0	
13	0	0	0	0	535	496	492	476	0	0	
14	0	0	0	0	537	497	494	472	0	0	
15	0	0	0	0	538	498	497	467	0	0	
0	0	0	0	0	540	499	500	460	0	0	
1	0	0	0	0	541	499	504	452	0	0	
2	0	0	0	0	542	499	507	444	0	0	
3	0	0	0	0	543	499	509	437	0	0	
4	0	0	0	0	543	497	509	430	0	0	
5	0	0	0	0	543	495	508	424	0	0	
6	0	0	0	0	542	491	504	421	0	0	
7	0	0	0	0	540	487	498	418	0	0	
8	0	0	0	0	537	482	492	418	0	0	
9	0	0	0	0	533	477	483	419	0	0	
10	0	0	0	0	529	472	474	422	0	0	
11	0	0	0	0	526	468	465	426	0	0	
12	0	0	0	0	522	465	457	432	0	0	
13	0	0	0	0	521	463	452	438	0	0	
14	0	0	0	0	520	463	449	444	0	0	
15	0	0	0	0	522	465	450	449	0	0	
0	0	0	0	0	525	469	454	455	0	0	
1	0	0	0	0	529	473	460	459	0	0	
2	0	0	0	0	534	479	471	461	0	0	
3	0	0	0	0	540	485	483	462	0	0	
4	0	0	0	0	546	490	497	461	0	0	
5	0	0	0	0	552	495	511	459	0	0	
6	0	0	0	0	557	499	524	456	0	0	
7	0	0	0	0	562	502	535	454	0	0	
8	0	0	0	0	564	504	544	452	0	0	
9	0	0	0	0	566	505	550	450	0	0	
10	0	0	0	0	567	505	552	450	0	0	
11	0	0	0	0	566	504	551	452	0	0	
12	0	0	0	0	565	503	548	455	0	0	
13	0	0	0	0	563	501	541	459	0	0	
14	0	0	0	0	560	499	532	465	0	0	
15	0	0	0	0	558	498	523	472	0	0	
0	0	0	0	0	555	496	512	478	0	0	
1	0	0	0	0	552	496	502	484	0	0	
2	0	0	0	0	551	496	494	489	0	0	
3	0	0	0	0	551	496	487	493	0	0	
4	0	0	0	0	550	497	483	494	0	0	
5	0	0	0	0	551	498	482	493	0	0	
6	0	0	0	0	551	500	483	489	0	0	
7	0	0	0	0	552	501	486	484	0	0	
8	0	0	0	0	553	503	491	477	0	0	
9	0	0	0	0	555	504	497	468	0	0	
10	0	0	0	0	555	504	503	459	0	0	
11	0	0	0	0	556	503	509	449	0	0	
12	0	0	0	0	555	502	514	441	0	0	
13	0	0	0	0	555	500	518	434	0	0	
14	0	0	0	0	553	497	520	428	0	0	
15	0	0	0	0	551	494	520	426	0	0	
0	0	0	0	0	550	492	519	425	0	0	
1	0	0	0	0	548	489	516	428	0	0	
2	0	0	0	0	547	487	513	432	0	0	
3	0	0	0	0	545	486	510	438	0	0	
4	0	0	0	0	545	485	506	445	0	0	
5	0	0	0	0	546	485	503	452	0	0	
6	0	0	0	0	547	486	500	459	0	0	
7	0	0	0	0	549	487	498	465	0	0	
8	0	0	0	0	551	489	498	469	0	0	
9	0	0	0	0	554	492	498	472	0	0	
10	0	0	0	0	558	495	500	472	0	0	
11	0	0	0	0	561	497	503	472	0	0	
12	0	0	0	0	564	500	506	469	0	0	
13	0	0	0	0	567	502	510	466	0	0	
14	0	0	0	0	568	503	512	462	0	0	
15	0	0	0	0	568	504	515	457	0	0	
0	0	0	0	0	567	503	516	454	0	0	
1	0	0	0	0	565	502	518	451	0	0	
2	0	0	0	0	563	500	517	449	0	0	
3	0	0	0	0	560	499	516	449	0	0	
4	0	0	0	0	557	496	514	451	0	0	
5	0	0	0	0	554	494	511	454	0	0	
6	0	0	0	0	551	492	508	458	0	0	
7	0	0	0	0	549	490	505	463	0	0	
8	0	0	0	0	548	489	502	468	0	0	
9	0	0	0	0	548	489	499	472	0	0	
10	0	0	0	0	548	489	496	476	0	0	
11	0	0	0	0	548	489	494	478	0	0	
12	0	0	0	0	549	489	493	478	0	0	
13	0	0	0	0	549	489	492	475	0	0	
14	0	0	0	0	550	490	491	471	0	0	
15	0	0	0	0	550	490	491	465	0	0	
0	0	0	0	0	550	489	491	458	0	0	
1	0	0	0	0	550	489	491	451	0	0	
2	0	0	0	0	549	487	492	443	0	0	
3	0	0	0	0	549	487	492	437	0	0	
4	0	0	0	0	548	486	493	432	0	0	
5	0	0	0	0	547	484	495	430	0	0	
6	0	0	0	0	547	483	496	429	0	0	
7	0	0	0	0	547	483	496	430	0	0	
8	0	0	0	0	547	482	497	433	0	0	
9	0	0	0	0	547	481	498	438	0	0	
10	0	0	0	0	547	481	499	445	0	0	
11	0	0	0	0	548	482	499	452	0	0	
12	0	0	0	0	548	482	499	460	0	0	
13	0	0	0	0	549	483	499	467	0	0	
14	0	0	0	0	550	484	499	472	0	0	
15	0	0	0	0	551	486	499	476	0	0	
0	0	0	0	0	551	487	499	478	0	0	
1	0	0	0	0	551	488	499	478	0	0	
2	0	0	0	0	551	489	500	475	0	0	
3	0	0	0	0	551	490	500	470	0	0	
4	0	0	0	0	551	491	500	464	0	0	
5	0	0	0	0	551	492	502	457	0	0	
6	0	0	0	0	552	492	502	451	0	0	
7	0	0	0	0	553	493	502	444	0	0	
8	0	0	0	0	553	493	501	440	0	0	
9	0	0	0	0	554	493	500	436	0	0	
10	0	0	0	0	555	492	499	435	0	0	
11	0	0	0	0	554	491	496	435	0	0	
12	0	0	0	0	555	491	494	437	0	0	
13	0	0	0	0	555	490	491	440	0	0	
14	0	0	0	0	556	489	487	445	0	0	
15	0	0	0	0	556	489	484	451	0	0	
0	0	0	0	0	557	489	482	457	0	0	
1	0	0	0	0	559	491	480	463	0	0	
2	0	0	0	0	561	494	480	470	0	0	
3	0	0	0	0	563	497	480	475	0	0	
4	0	0	0	0	566	500	482	478	0	0	
5	0	0	0	0	569	504	486	480	0	0	
6	0	0	0	0	572	508	490	480	0	0	
7	0	0	0	0	573	512	495	478	0	0	
8	0	0	0	0	575	515	500	473	0	0	
9	0	0	0	0	575	516	504	467	0	0	
10	0	0	0	0	573	516	509	460	0	0	
11	0	0	0	0	572	515	511	453	0	0	
12	0	0	0	0	569	513	513	446	0	0	
13	0	0	0	0	566	511	512	441	0	0	
14	0	0	0	0	562	508	511	437	0	0	
15	0	0	0	0	558	504	507	435	0	0	
0	0	0	0	0	556	501	503	436	0	0	
1	0	0	0	0	552	498	497	439	0	0	
2	0	0	0	0	550	496	491	444	0	0	
3	0	0	0	0	548	495	486	450	0	0	
4	0	0	0	0	547	494	481	457	0	0	
5	0	0	0	0	548	495	478	464	0	0	
6	0	0	0	0	550	497	476	471	0	0	
7	0	0	0	0	551	500	477	477	0	0	
8	0	0	0	0	555	503	479	481	0	0	
9	0	0	0	0	558	506	483	484	0	0	
10	0	0	0	0	562	510	488	484	0	0	
11	0	0	0	0	566	513	495	483	0	0	
12	0	0	0	0	568	516	500	479	0	0	
13	0	0	0	0	571	517	505	473	0	0	
14	0	0	0	0	572	517	509	467	0	0	
15	0	0	0	0	574	516	511	460	0	0	
0	0	0	0	0	572	515	511	454	0	0	
1	0	0	0	0	571	512	509	448	0	0	
2	0	0	0	0	568	508	505	444	0	0	
3	0	0	0	0	565	504	499	442	0	0	
4	0	0	0	0	562	500	493	442	0	0	
5	0	0	0	0	559	498	486	444	0	0	
6	0	0	0	0	557	495	479	448	0	0	
7	0	0	0	0	555	494	472	453	0	0	
8	0	0	0	0	553	493	467	460	0	0	
9	0	0	0	0	553	494	464	465	0	0	
10	0	0	0	0	552	496	463	471	0	0	
11	0	0	0	0	553	498	463	475	0	0	
12	0	0	0	0	553	501	465	478	0	0	
13	0	0	0	0	555	504	470	478	0	0	
14	0	0	0	0	556	507	475	477	0	0	
15	0	0	0	0	557	510	482	474	0	0	
0	0	0	0	0	558	512	489	469	0	0	
1	0	0	0	0	559	513	496	463	0	0	
2	0	0	0	0	560	514	501	456	0	0	
3	0	0	0	0	560	513	506	450	0	0	
4	0	0	0	0	560	512	508	444	0	0	
5	0	0	0	0	559	509	509	440	0	0	
6	0	0	0	0	558	506	507	437	0	0	
7	0	0	0	0	557	502	503	436	0	0	
8	0	0	0	0	555	498	498	436	0	0	
9	0	0	0	0	551	494	492	438	0	0	
10	0	0	0	0	548	490	484	442	0	0	
11	0	0	0	0	545	487	478	447	0	0	
12	0	0	0	0	542	485	471	452	0	0	
13	0	0	0	0	540	484	466	456	0	0	
14	0	0	0	0	538	484	462	461	0	0	
15	0	0	0	0	536	485	460	464	0	0	
0	0	0	0	0	536	487	460	467	0	0	
1	0	0	0	0	537	490	462	468	0	0	
2	0	0	0	0	540	494	467	467	0	0	
3	0	0	0	0	542	498	472	466	0	0	
4	0	0	0	0	545	502	479	463	0	0	
5	0	0	0	0	548	505	486	459	0	0	
6	0	0	0	0	551	508	492	455	0	0	
7	0	0	0	0	553	510	497	451	0	0	
8	0	0	0	0	555	510	501	447	0	0	
9	0	0	0	0	555	509	502	444	0	0	
10	0	0	0	0	554	507	501	441	0	0	
11	0	0	0	0	553	504	498	441	0	0	
12	0	0	0	0	552	501	494	442	0	0	
13	0	0	0	0	549	497	488	445	0	0	
14	0	0	0	0	547	494	482	449	0	0	
15	0	0	0	0	545	491	476	454	0	0	
0	0	0	0	0	543	489	471	459	0	0	
1	0	0	0	0	543	488	468	465	0	0	
2	0	0	0	0	542	489	467	470	0	0	
3	0	0	0	0	542	490	468	474	0	0	
4	0	0	0	0	542	492	471	476	0	0	
5	0	0	0	0	542	494	477	477	0	0	
6	0	0	0	0	543	497	483	476	0	0	
7	0	0	0	0	544	500	491	474	0	0	
8	0	0	0	0	546	503	498	470	0	0	
9	0	0	0	0	547	506	505	465	0	0	
10	0	0	0	0	548	508	511	460	0	0	
11	0	0	0	0	550	510	516	455	0	0	
12	0	0	0	0	550	511	518	450	0	0	
13	0	0	0	0	550	511	519	447	0	0	
14	0	0	0	0	550	510	516	444	0	0	
15	0	0	0	0	550	508	512	444	0	0	
0	0	0	0	0	548	507	506	444	0	0	
1	0	0	0	0	548	505	500	447	0	0	
2	0	0	0	0	547	504	492	451	0	0	
3	0	0	0	0	546	503	486	455	0	0	
4	0	0	0	0	546	502	480	460	0	0	
5	0	0	0	0	546	501	476	464	0	0	
6	0	0	0	0	546	501	474	468	0	0	
7	0	0	0	0	546	501	473	471	0	0	
8	0	0	0	0	547	501	475	471	0	0	
9	0	0	0	0	548	502	478	470	0	0	
10	0	0	0	0	550	503	483	467	0	0	
11	0	0	0	0	551	504	488	462	0	0	
12	0	0	0	0	553	505	495	455	0	0	
13	0	0	0	0	554	507	502	449	0	0	
14	0	0	0	0	556	507	507	443	0	0	
15	0	0	0	0	556	508	513	437	0	0	
0	0	0	0	0	556	508	517	432	0	0	
1	0	0	0	0	556	508	519	428	0	0	
2	0	0	0	0	556	508	520	427	0	0	
3	0	0	0	0	556	507	519	428	0	0	
4	0	0	0	0	555	507	517	430	0	0	
5	0	0	0	0	554	507	514	435	0	0	
6	0	0	0	0	553	507	510	441	0	0	
7	0	0	0	0	553	507	506	448	0	0	
8	0	0	0	0	553	508	502	455	0	0	
9	0	0	0	0	553	509	497	463	0	0	
10	0	0	0	0	553	510	494	470	0	0	
11	0	0	0	0	554	511	491	475	0	0	
12	0	0	0	0	555	513	489	478	0	0	
13	0	0	0	0	557	514	487	480	0	0	
14	0	0	0	0	558	515	487	480	0	0	
15	0	0	0	0	559	515	487	477	0	0	
0	0	0	0	0	559	515	488	472	0	0	
1	0	0	0	0	559	515	488	466	0	0	
2	0	0	0	0	559	513	488	460	0	0	
3	0	0	0	0	558	511	488	452	0	0	
4	0	0	0	0	557	509	488	445	0	0	
5	0	0	0	0	555	506	488	439	0	0	
6	0	0	0	0	553	504	488	434	0	0	
7	0	0	0	0	551	500	487	431	0	0	
8	0	0	0	0	549	498	486	430	0	0	
9	0	0	0	0	547	496	484	431	0	0	
10	0	0	0	0	545	495	483	434	0	0	
11	0	0	0	0	544	493	483	439	0	0	
12	0	0	0	0	544	493	482	445	0	0	
13	0	0	0	0	545	494	483	452	0	0	
14	0	0	0	0	546	496	485	460	0	0	
15	0	0	0	0	548	499	488	467	0	0	
0	0	0	0	0	550	502	493	473	0	0	
1	0	0	0	0	553	505	497	478	0	0	
2	0	0	0	0	555	508	503	480	0	0	
3	0	0	0	0	558	512	508	480	0	0	
4	0	0	0	0	559	514	513	477	0	0	
5	0	0	0	0	560	516	516	472	0	0	
6	0	0	0	0	561	516	518	466	0	0	
7	0	0	0	0	561	516	518	460	0	0	
8	0	0	0	0	560	515	516	454	0	0	
9	0	0	0	0	559	513	512	448	0	0	
10	0	0	0	0	557	510	507	444	0	0	
11	0	0	0	0	555	507	499	441	0	0	
12	0	0	0	0	553	505	492	441	0	0	
13	0	0	0	0	552	503	485	443	0	0	
14	0	0	0	0	551	502	478	447	0	0	
15	0	0	0	0	550	502	473	454	0	0	
0	0	0	0	0	551	502	469	460	0	0	
1	0	0	0	0	551	504	468	467	0	0	
2	0	0	0	0	551	505	469	474	0	0	
3	0	0	0	0	552	508	472	479	0	0	
4	0	0	0	0	552	509	476	482	0	0	
5	0	0	0	0	553	510	480	481	0	0	
6	0	0	0	0	551	510	485	478	0	0	
7	0	0	0	0	551	510	490	472	0	0	
8	0	0	0	0	548	507	492	462	0	0	
9	0	0	0	0	545	504	493	450	0	0	
10	0	0	0	0	542	499	491	438	0	0	
11	0	0	0	0	536	493	486	424	0	0	
12	0	0	0	0	530	486	479	410	0	0	
13	0	0	0	0	523	478	468	397	0	0	
14	0	0	0	0	514	468	454	385	0	0	
15	0	0	0	0	504	459	438	376	0	0	
0	0	0	0	0	494	448	420	368	0	0	
1	0	0	0	0	484	438	401	362	0	0	
2	0	0	0	0	474	428	382	358	0	0	
3	0	0	0	0	464	419	364	355	0	0	
4	0	0	0	0	455	411	345	353	0	0	
5	0	0	0	0	446	403	330	352	0	0	
6	0	0	0	0	439	397	317	350	0	0	
7	0	0	0	0	433	392	307	348	0	0	
8	0	0	0	0	428	388	300	345	0	0	
9	0	0	0	0	425	385	297	342	0	0	
10	0	0	0	0	422	383	297	336	0	0	
11	0	0	0	0	422	382	302	329	0	0	
12	0	0	0	0	422	382	309	322	0	0	
13	0	0	0	0	423	383	318	315	0	0	
14	0	0	0	0	425	385	329	308	0	0	
15	0	0	0	0	429	387	342	303	0	0	
0	0	0	0	0	434	391	356	300	0	0	
1	0	0	0	0	440	397	370	300	0	0	
2	0	0	0	0	448	404	386	305	0	0	
3	0	0	0	0	459	412	402	315	0	0	
4	0	0	0	0	472	423	420	330	0	0	
5	0	0	0	0	486	436	439	349	0	0	
6	0	0	0	0	502	450	459	372	0	0	
7	0	0	0	0	519	465	479	396	0	0	
8	0	0	0	0	536	480	500	423	0	0	
9	0	0	0	0	553	496	522	448	0	0	
10	0	0	0	0	569	511	543	473	0	0	
11	0	0	0	0	583	525	563	494	0	0	
12	0	0	0	0	596	537	581	511	0	0	
13	0	0	0	0	606	547	596	524	0	0	
14	0	0	0	0	613	555	610	532	0	0	
15	0	0	0	0	617	560	620	536	0	0	
0	0	0	0	0	619	563	625	534	0	0	
1	0	0	0	0	618	564	627	530	0	0	
2	0	0	0	0	615	563	625	523	0	0	
3	0	0	0	0	610	560	619	514	0	0	
4	0	0	0	0	603	556	608	504	0	0	
5	0	0	0	0	596	551	595	495	0	0	
6	0	0	0	0	588	545	578	486	0	0	
7	0	0	0	0	581	539	559	479	0	0	
8	0	0	0	0	574	533	540	475	0	0	
9	0	0	0	0	568	529	520	472	0	0	
10	0	0	0	0	563	525	501	473	0	0	
11	0	0	0	0	559	522	485	475	0	0	
12	0	0	0	0	557	521	471	479	0	0	
13	0	0	0	0	557	521	462	484	0	0	
14	0	0	0	0	557	522	457	489	0	0	
15	0	0	0	0	559	524	456	493	0	0	
0	0	0	0	0	561	526	459	496	0	0	
1	0	0	0	0	564	528	464	497	0	0	
2	0	0	0	0	567	530	473	496	0	0	
3	0	0	0	0	569	532	483	493	0	0	
4	0	0	0	0	571	534	494	487	0	0	
5	0	0	0	0	572	535	505	480	0	0	
6	0	0	0	0	573	535	513	473	0	0	
7	0	0	0	0	572	535	521	465	0	0	
8	0	0	0	0	572	534	527	459	0	0	
9	0	0	0	0	570	532	529	454	0	0	
10	0	0	0	0	568	530	528	451	0	0	
11	0	0	0	0	566	527	525	450	0	0	
12	0	0	0	0	563	524	519	452	0	0	
13	0	0	0	0	561	521	511	456	0	0	
14	0	0	0	0	558	519	503	462	0	0	
15	0	0	0	0	556	518	494	469	0	0	
0	0	0	0	0	555	516	484	477	0	0	
1	0	0	0	0	553	516	477	484	0	0	
2	0	0	0	0	553	516	471	491	0	0	
3	0	0	0	0	553	517	467	495	0	0	
4	0	0	0	0	555	519	466	498	0	0	
5	0	0	0	0	556	521	467	499	0	0	
6	0	0	0	0	559	524	471	497	0	0	
7	0	0	0	0	561	526	476	494	0	0	
8	0	0	0	0	563	527	483	489	0	0	
9	0	0	0	0	566	528	490	482	0	0	
10	0	0	0	0	567	527	495	474	0	0	
11	0	0	0	0	567	524	500	466	0	0	
12	0	0	0	0	565	521	502	458	0	0	
13	0	0	0	0	563	515	501	450	0	0	
14	0	0	0	0	559	510	497	444	0	0	
15	0	0	0	0	555	503	491	440	0	0	
0	0	0	0	0	551	497	484	439	0	0	
1	0	0	0	0	549	493	476	440	0	0	
2	0	0	0	0	546	489	468	444	0	0	
3	0	0	0	0	544	486	462	450	0	0	
4	0	0	0	0	544	485	457	457	0	0	
5	0	0	0	0	545	486	456	464	0	0	
6	0	0	0	0	546	487	457	472	0	0	
7	0	0	0	0	548	491	462	479	0	0	
8	0	0	0	0	551	495	470	485	0	0	
9	0	0	0	0	555	500	481	488	0	0	
10	0	0	0	0	560	506	494	490	0	0	
11	0	0	0	0	563	511	508	489	0	0	
12	0	0	0	0	567	516	522	487	0	0	
13	0	0	0	0	570	520	535	481	0	0	
14	0	0	0	0	573	523	545	475	0	0	
15	0	0	0	0	575	524	553	468	0	0	
0	0	0	0	0	575	525	557	461	0	0	
1	0	0	0	0	575	524	557	455	0	0	
2	0	0	0	0	575	522	553	450	0	0	
3	0	0	0	0	573	519	545	447	0	0	
4	0	0	0	0	572	515	535	447	0	0	
5	0	0	0	0	569	511	523	449	0	0	
6	0	0	0	0	567	508	509	454	0	0	
7	0	0	0	0	566	504	496	460	0	0	
8	0	0	0	0	564	501	482	467	0	0	
9	0	0	0	0	563	499	472	474	0	0	
10	0	0	0	0	561	497	463	480	0	0	
11	0	0	0	0	560	496	456	485	0	0	
12	0	0	0	0	559	496	452	487	0	0	
13	0	0	0	0	559	496	451	487	0	0	
14	0	0	0	0	558	497	453	484	0	0	
15	0	0	0	0	557	498	457	479	0	0	
0	0	0	0	0	556	499	462	472	0	0	
1	0	0	0	0	556	499	467	462	0	0	
2	0	0	0	0	554	499	473	452	0	0	
3	0	0	0	0	553	499	478	441	0	0	
4	0	0	0	0	551	498	481	431	0	0	
5	0	0	0	0	550	496	483	423	0	0	
6	0	0	0	0	548	495	483	418	0	0	
7	0	0	0	0	547	493	481	416	0	0	
8	0	0	0	0	546	491	478	417	0	0	
9	0	0	0	0	545	490	475	421	0	0	
10	0	0	0	0	544	489	470	428	0	0	
11	0	0	0	0	543	488	466	435	0	0	
12	0	0	0	0	543	487	461	445	0	0	
13	0	0	0	0	543	487	459	453	0	0	
14	0	0	0	0	543	488	457	461	0	0	
15	0	0	0	0	542	489	457	467	0	0	
0	0	0	0	0	542	490	459	471	0	0	
1	0	0	0	0	542	491	462	472	0	0	
2	0	0	0	0	543	492	467	471	0	0	
3	0	0	0	0	543	493	472	466	0	0	
4	0	0	0	0	543	494	478	460	0	0	
5	0	0	0	0	545	495	484	453	0	0	
6	0	0	0	0	546	496	489	445	0	0	
7	0	0	0	0	548	496	493	438	0	0	
8	0	0	0	0	550	496	497	432	0	0	
9	0	0	0	0	551	495	499	427	0	0	
10	0	0	0	0	553	494	499	425	0	0	
11	0	0	0	0	554	494	499	425	0	0	
12	0	0	0	0	555	492	498	427	0	0	
13	0	0	0	0	555	492	496	431	0	0	
14	0	0	0	0	555	490	493	436	0	0	
15	0	0	0	0	553	489	489	442	0	0	
0	0	0	0	0	552	488	484	448	0	0	
1	0	0	0	0	551	488	481	454	0	0	
2	0	0	0	0	549	489	478	459	0	0	
3	0	0	0	0	548	490	475	463	0	0	
4	0	0	0	0	547	492	474	465	0	0	
5	0	0	0	0	546	494	473	465	0	0	
6	0	0	0	0	546	496	475	464	0	0	
7	0	0	0	0	545	498	477	460	0	0	
8	0	0	0	0	545	500	480	455	0	0	
9	0	0	0	0	545	502	483	449	0	0	
10	0	0	0	0	545	502	485	443	0	0	
11	0	0	0	0	545	502	487	436	0	0	
12	0	0	0	0	545	501	488	430	0	0	
13	0	0	0	0	544	499	487	424	0	0	
14	0	0	0	0	543	497	486	420	0	0	
15	0	0	0	0	541	494	482	418	0	0	
0	0	0	0	0	539	490	478	418	0	0	
1	0	0	0	0	536	487	473	420	0	0	
2	0	0	0	0	535	484	467	423	0	0	
3	0	0	0	0	533	482	463	428	0	0	
4	0	0	0	0	532	481	459	435	0	0	
5	0	0	0	0	532	482	457	441	0	0	
6	0	0	0	0	533	485	458	447	0	0	
7	0	0	0	0	535	488	460	452	0	0	
8	0	0	0	0	537	492	465	456	0	0	
9	0	0	0	0	540	497	472	458	0	0	
10	0	0	0	0	543	503	481	459	0	0	
11	0	0	0	0	547	508	490	458	0	0	
12	0	0	0	0	550	513	499	455	0	0	
13	0	0	0	0	553	518	509	452	0	0	
14	0	0	0	0	556	521	516	448	0	0	
15	0	0	0	0	558	523	523	444	0	0	
0	0	0	0	0	559	524	526	440	0	0	
1	0	0	0	0	559	524	527	438	0	0	
2	0	0	0	0	558	522	526	436	0	0	
3	0	0	0	0	557	519	521	437	0	0	
4	0	0	0	0	555	516	514	439	0	0	
5	0	0	0	0	552	512	506	443	0	0	
6	0	0	0	0	550	508	497	448	0	0	
7	0	0	0	0	547	505	487	454	0	0	
8	0	0	0	0	545	501	478	460	0	0	
9	0	0	0	0	543	498	470	465	0	0	
10	0	0	0	0	542	495	464	470	0	0	
11	0	0	0	0	541	493	460	474	0	0	
12	0	0	0	0	541	492	457	476	0	0	
13	0	0	0	0	542	491	456	477	0	0	
14	0	0	0	0	543	491	458	476	0	0	
15	0	0	0	0	545	492	462	473	0	0	
0	0	0	0	0	547	493	467	469	0	0	
1	0	0	0	0	550	494	473	464	0	0	
2	0	0	0	0	551	494	479	457	0	0	
3	0	0	0	0	551	494	484	451	0	0	
4	0	0	0	0	550	493	488	444	0	0	
5	0	0	0	0	548	492	491	439	0	0	
6	0	0	0	0	545	490	491	434	0	0	
7	0	0	0	0	542	487	489	432	0	0	
8	0	0	0	0	538	484	486	431	0	0	
9	0	0	0	0	533	482	480	432	0	0	
10	0	0	0	0	529	480	474	436	0	0	
11	0	0	0	0	525	478	467	441	0	0	
12	0	0	0	0	522	477	461	447	0	0	
13	0	0	0	0	520	478	456	453	0	0	
14	0	0	0	0	519	479	452	459	0	0	
15	0	0	0	0	519	480	451	464	0	0	
0	0	0	0	0	519	483	451	467	0	0	
1	0	0	0	0	520	485	452	468	0	0	
2	0	0	0	0	521	487	455	467	0	0	
3	0	0	0	0	523	489	460	464	0	0	
4	0	0	0	0	524	491	464	460	0	0	
5	0	0	0	0	525	492	469	454	0	0	
6	0	0	0	0	525	491	473	446	0	0	
7	0	0	0	0	526	489	476	438	0	0	
8	0	0	0	0	525	487	478	430	0	0	
9	0	0	0	0	524	483	478	423	0	0	
10	0	0	0	0	522	480	475	418	0	0	
11	0	0	0	0	521	477	473	415	0	0	
12	0	0	0	0	520	474	468	414	0	0	
13	0	0	0	0	519	472	463	416	0	0	
14	0	0	0	0	518	470	457	419	0	0	
15	0	0	0	0	517	468	452	424	0	0	
0	0	0	0	0	517	469	448	430	0	0	
1	0	0	0	0	518	470	445	436	0	0	
2	0	0	0	0	519	472	445	443	0	0	
3	0	0	0	0	521	474	446	449	0	0	
4	0	0	0	0	524	478	450	453	0	0	
5	0	0	0	0	526	481	455	455	0	0	
6	0	0	0	0	528	485	463	455	0	0	
7	0	0	0	0	531	488	472	453	0	0	
8	0	0	0	0	532	492	480	449	0	0	
9	0	0	0	0	534	494	487	443	0	0	
10	0	0	0	0	534	495	494	436	0	0	
11	0	0	0	0	534	496	499	429	0	0	
12	0	0	0	0	534	496	501	424	0	0	
13	0	0	0	0	532	495	502	419	0	0	
14	0	0	0	0	531	493	500	417	0	0	
15	0	0	0	0	529	491	495	417	0	0	
0	0	0	0	0	527	489	490	419	0	0	
1	0	0	0	0	526	487	483	424	0	0	
2	0	0	0	0	524	486	476	430	0	0	
3	0	0	0	0	522	485	469	438	0	0	
4	0	0	0	0	521	484	462	447	0	0	
5	0	0	0	0	520	484	457	455	0	0	
6	0	0	0	0	520	485	453	462	0	0	
7	0	0	0	0	519	486	449	467	0	0	
8	0	0	0	0	519	487	448	470	0	0	
9	0	0	0	0	519	487	447	471	0	0	
10	0	0	0	0	519	488	448	468	0	0	
11	0	0	0	0	518	489	448	463	0	0	
12	0	0	0	0	518	488	449	456	0	0	
13	0	0	0	0	517	488	451	448	0	0	
14	0	0	0	0	517	487	451	439	0	0	
15	0	0	0	0	518	486	452	430	0	0	
0	0	0	0	0	518	484	452	423	0	0	
1	0	0	0	0	519	482	453	419	0	0	
2	0	0	0	0	519	481	453	416	0	0	
3	0	0	0	0	520	479	453	416	0	0	
4	0	0	0	0	522	478	454	419	0	0	
5	0	0	0	0	524	478	455	425	0	0	
6	0	0	0	0	525	478	456	432	0	0	
7	0	0	0	0	528	480	459	442	0	0	
8	0	0	0	0	530	482	462	452	0	0	
9	0	0	0	0	533	485	467	462	0	0	
10	0	0	0	0	536	489	473	472	0	0	
11	0	0	0	0	540	492	480	480	0	0	
12	0	0	0	0	543	497	487	486	0	0	
13	0	0	0	0	545	501	495	489	0	0	
14	0	0	0	0	548	504	503	490	0	0	
15	0	0	0	0	551	508	511	487	0	0	
0	0	0	0	0	552	510	518	483	0	0	
1	0	0	0	0	553	511	523	476	0	0	
2	0	0	0	0	554	512	526	469	0	0	
3	0	0	0	0	555	512	528	462	0	0	
4	0	0	0	0	553	511	527	455	0	0	
5	0	0	0	0	552	509	524	449	0	0	
6	0	0	0	0	551	507	518	446	0	0	
7	0	0	0	0	548	505	511	446	0	0	
8	0	0	0	0	546	502	503	447	0	0	
9	0	0	0	0	543	500	494	450	0	0	
10	0	0	0	0	541	499	484	455	0	0	
11	0	0	0	0	540	498	476	462	0	0	
12	0	0	0	0	539	498	468	469	0	0	
13	0	0	0	0	539	499	463	476	0	0	
14	0	0	0	0	540	501	460	483	0	0	
15	0	0	0	0	542	504	459	488	0	0	
0	0	0	0	0	545	507	460	492	0	0	
1	0	0	0	0	547	510	463	494	0	0	
2	0	0	0	0	551	513	468	493	0	0	
3	0	0	0	0	554	515	474	491	0	0	
4	0	0	0	0	557	516	480	486	0	0	
5	0	0	0	0	559	516	486	481	0	0	
6	0	0	0	0	560	517	492	474	0	0	
7	0	0	0	0	561	516	496	468	0	0	
8	0	0	0	0	562	515	499	463	0	0	
9	0	0	0	0	562	513	501	459	0	0	
10	0	0	0	0	563	511	501	457	0	0	
11	0	0	0	0	562	509	499	456	0	0	
12	0	0	0	0	562	508	496	458	0	0	
13	0	0	0	0	562	506	492	460	0	0	
14	0	0	0	0	561	504	487	464	0	0	
15	0	0	0	0	560	503	481	468	0	0	
0	0	0	0	0	560	501	476	473	0	0	
1	0	0	0	0	559	500	472	476	0	0	
2	0	0	0	0	558	499	467	479	0	0	
3	0	0	0	0	558	498	466	481	0	0	
4	0	0	0	0	558	498	465	481	0	0	
5	0	0	0	0	559	499	467	481	0	0	
6	0	0	0	0	560	500	472	479	0	0	
7	0	0	0	0	563	502	478	476	0	0	
8	0	0	0	0	566	503	485	472	0	0	
9	0	0	0	0	569	506	494	467	0	0	
10	0	0	0	0	573	508	502	463	0	0	
11	0	0	0	0	577	510	511	460	0	0	
12	0	0	0	0	580	511	517	457	0	0	
13	0	0	0	0	582	511	522	455	0	0	
14	0	0	0	0	583	510	524	454	0	0	
15	0	0	0	0	583	509	524	455	0	0	
0	0	0	0	0	583	507	521	457	0	0	
1	0	0	0	0	580	504	516	462	0	0	
2	0	0	0	0	578	501	510	467	0	0	
3	0	0	0	0	575	498	502	473	0	0	
4	0	0	0	0	572	495	493	480	0	0	
5	0	0	0	0	569	493	485	486	0	0	
6	0	0	0	0	566	492	478	492	0	0	
7	0	0	0	0	564	491	473	497	0	0	
8	0	0	0	0	563	492	470	500	0	0	
9	0	0	0	0	563	493	470	501	0	0	
10	0	0	0	0	565	496	472	500	0	0	
11	0	0	0	0	568	498	476	497	0	0	
12	0	0	0	0	571	502	481	493	0	0	
13	0	0	0	0	574	504	488	487	0	0	
14	0	0	0	0	577	507	495	481	0	0	
15	0	0	0	0	581	508	502	475	0	0	
0	0	0	0	0	584	509	509	470	0	0	
1	0	0	0	0	587	509	513	466	0	0	
2	0	0	0	0	588	508	517	463	0	0	
3	0	0	0	0	589	507	518	463	0	0	
4	0	0	0	0	589	505	517	464	0	0	
5	0	0	0	0	588	503	515	467	0	0	
6	0	0	0	0	587	500	511	472	0	0	
7	0	0	0	0	585	498	506	478	0	0	
8	0	0	0	0	583	496	501	484	0	0	
9	0	0	0	0	583	495	496	491	0	0	
10	0	0	0	0	581	495	491	497	0	0	
11	0	0	0	0	580	495	487	502	0	0	
12	0	0	0	0	579	495	484	504	0	0	
13	0	0	0	0	579	496	482	505	0	0	
14	0	0	0	0	580	497	483	504	0	0	
15	0	0	0	0	580	499	483	501	0	0	
0	0	0	0	0	580	500	485	496	0	0	
1	0	0	0	0	581	502	487	491	0	0	
2	0	0	0	0	582	503	489	484	0	0	
3	0	0	0	0	583	503	492	478	0	0	
4	0	0	0	0	583	504	495	473	0	0	
5	0	0	0	0	584	504	497	470	0	0	
6	0	0	0	0	585	504	499	467	0	0	
7	0	0	0	0	585	503	499	467	0	0	
8	0	0	0	0	585	502	500	468	0	0	
9	0	0	0	0	585	501	499	471	0	0	
10	0	0	0	0	583	499	498	475	0	0	
11	0	0	0	0	582	498	496	480	0	0	
12	0	0	0	0	580	497	494	485	0	0	
13	0	0	0	0	579	496	493	490	0	0	
14	0	0	0	0	578	497	493	495	0	0	
15	0	0	0	0	578	498	494	499	0	0	
0	0	0	0	0	578	499	496	501	0	0	
1	0	0	0	0	579	501	498	502	0	0	
2	0	0	0	0	581	504	503	502	0	0	
3	0	0	0	0	583	507	507	500	0	0	
4	0	0	0	0	585	509	512	496	0	0	
5	0	0	0	0	588	512	517	492	0	0	
6	0	0	0	0	590	513	521	487	0	0	
7	0	0	0	0	592	515	524	480	0	0	
8	0	0	0	0	592	515	525	475	0	0	
9	0	0	0	0	592	514	524	470	0	0	
10	0	0	0	0	591	512	521	465	0	0	
11	0	0	0	0	589	510	517	463	0	0	
12	0	0	0	0	587	508	512	462	0	0	
13	0	0	0	0	583	504	505	462	0	0	
14	0	0	0	0	579	502	498	464	0	0	
15	0	0	0	0	576	499	491	468	0	0	
0	0	0	0	0	574	496	484	472	0	0	
1	0	0	0	0	572	495	479	478	0	0	
2	0	0	0	0	571	494	476	483	0	0	
3	0	0	0	0	572	495	473	487	0	0	
4	0	0	0	0	573	496	474	490	0	0	
5	0	0	0	0	575	498	476	491	0	0	
6	0	0	0	0	578	500	481	490	0	0	
7	0	0	0	0	582	503	487	487	0	0	
8	0	0	0	0	584	505	493	482	0	0	
9	0	0	0	0	587	507	500	476	0	0	
10	0	0	0	0	589	508	506	469	0	0	
11	0	0	0	0	590	508	512	461	0	0	
12	0	0	0	0	589	508	516	454	0	0	
13	0	0	0	0	588	508	519	447	0	0	
14	0	0	0	0	586	506	519	443	0	0	
15	0	0	0	0	583	504	518	440	0	0	
0	0	0	0	0	581	503	515	439	0	0	
1	0	0	0	0	577	500	511	440	0	0	
2	0	0	0	0	574	498	505	443	0	0	
3	0	0	0	0	570	495	499	446	0	0	
4	0	0	0	0	566	493	491	450	0	0	
5	0	0	0	0	563	491	484	454	0	0	
6	0	0	0	0	560	489	478	457	0	0	
7	0	0	0	0	559	488	472	459	0	0	
8	0	0	0	0	559	488	469	460	0	0	
9	0	0	0	0	561	490	467	460	0	0	
10	0	0	0	0	563	492	468	459	0	0	
11	0	0	0	0	568	495	471	457	0	0	
12	0	0	0	0	573	498	476	453	0	0	
13	0	0	0	0	578	502	483	449	0	0	
14	0	0	0	0	583	504	490	445	0	0	
15	0	0	0	0	588	508	497	440	0	0	
0	0	0	0	0	591	510	504	436	0	0	
1	0	0	0	0	593	510	509	432	0	0	
2	0	0	0	0	594	510	512	428	0	0	
3	0	0	0	0	593	509	511	426	0	0	
4	0	0	0	0	591	508	509	425	0	0	
5	0	0	0	0	587	505	504	425	0	0	
6	0	0	0	0	583	503	498	427	0	0	
7	0	0	0	0	578	500	491	429	0	0	
8	0	0	0	0	573	499	483	432	0	0	
9	0	0	0	0	569	497	476	434	0	0	
10	0	0	0	0	565	496	471	436	0	0	
11	0	0	0	0	562	496	466	437	0	0	
12	0	0	0	0	560	497	464	436	0	0	
13	0	0	0	0	560	497	464	435	0	0	
14	0	0	0	0	560	498	465	430	0	0	
15	0	0	0	0	560	499	468	425	0	0	
0	0	0	0	0	561	499	472	417	0	0	
1	0	0	0	0	563	499	477	410	0	0	
2	0	0	0	0	565	499	481	402	0	0	
3	0	0	0	0	567	499	486	396	0	0	
4	0	0	0	0	568	499	490	390	0	0	
5	0	0	0	0	570	498	493	387	0	0	
6	0	0	0	0	571	497	495	387	0	0	
7	0	0	0	0	572	496	496	388	0	0	
8	0	0	0	0	573	495	496	394	0	0	
9	0	0	0	0	573	494	496	400	0	0	
10	0	0	0	0	574	493	494	409	0	0	
11	0	0	0	0	574	493	492	418	0	0	
12	0	0	0	0	574	493	490	428	0	0	
13	0	0	0	0	575	494	489	436	0	0	
14	0	0	0	0	575	495	488	444	0	0	
15	0	0	0	0	575	496	488	449	0	0	
0	0	0	0	0	575	498	489	451	0	0	
1	0	0	0	0	575	499	490	451	0	0	
2	0	0	0	0	575	500	493	448	0	0	
3	0	0	0	0	575	500	495	443	0	0	
4	0	0	0	0	574	500	498	436	0	0	
5	0	0	0	0	573	500	500	428	0	0	
6	0	0	0	0	572	498	503	419	0	0	
7	0	0	0	0	572	497	504	411	0	0	
8	0	0	0	0	570	495	504	403	0	0	
9	0	0	0	0	569	492	503	397	0	0	
10	0	0	0	0	568	489	502	393	0	0	
11	0	0	0	0	567	487	499	391	0	0	
12	0	0	0	0	566	485	496	392	0	0	
13	0	0	0	0	566	484	494	396	0	0	
14	0	0	0	0	566	483	491	402	0	0	
15	0	0	0	0	568	484	488	410	0	0	
0	0	0	0	0	568	485	487	419	0	0	
1	0	0	0	0	571	487	487	428	0	0	
2	0	0	0	0	572	491	487	436	0	0	
3	0	0	0	0	574	494	489	444	0	0	
4	0	0	0	0	576	497	493	449	0	0	
5	0	0	0	0	578	500	497	451	0	0	
6	0	0	0	0	579	503	501	451	0	0	
7	0	0	0	0	580	505	505	449	0	0	
8	0	0	0	0	580	507	509	443	0	0	
9	0	0	0	0	580	508	512	436	0	0	
10	0	0	0	0	579	508	514	428	0	0	
11	0	0	0	0	578	508	514	420	0	0	
12	0	0	0	0	577	506	514	412	0	0	
13	0	0	0	0	576	505	512	407	0	0	
14	0	0	0	0	575	503	509	403	0	0	
15	0	0	0	0	574	500	506	401	0	0	
0	0	0	0	0	574	499	502	402	0	0	
1	0	0	0	0	573	497	499	406	0	0	
2	0	0	0	0	572	496	496	412	0	0	
3	0	0	0	0	573	495	493	419	0	0	
4	0	0	0	0	573	494	491	428	0	0	
5	0	0	0	0	574	494	490	436	0	0	
6	0	0	0	0	574	495	490	443	0	0	
7	0	0	0	0	575	496	492	448	0	0	
8	0	0	0	0	576	497	494	451	0	0	
9	0	0	0	0	577	498	497	452	0	0	
10	0	0	0	0	579	499	502	451	0	0	
11	0	0	0	0	580	501	507	447	0	0	
12	0	0	0	0	581	502	512	440	0	0	
13	0	0	0	0	583	502	516	434	0	0	
14	0	0	0	0	583	501	521	427	0	0	
15	0	0	0	0	584	501	524	420	0	0	
0	0	0	0	0	584	500	526	415	0	0	
1	0	0	0	0	584	499	527	412	0	0	
2	0	0	0	0	585	498	527	412	0	0	
3	0	0	0	0	584	496	526	414	0	0	
4	0	0	0	0	584	495	523	418	0	0	
5	0	0	0	0	583	494	519	423	0	0	
6	0	0	0	0	583	494	515	432	0	0	
7	0	0	0	0	583	494	511	440	0	0	
8	0	0	0	0	583	494	507	448	0	0	
9	0	0	0	0	583	494	503	455	0	0	
10	0	0	0	0	583	495	501	461	0	0	
11	0	0	0	0	582	496	499	465	0	0	
12	0	0	0	0	582	498	499	467	0	0	
13	0	0	0	0	583	500	500	467	0	0	
14	0	0	0	0	583	502	502	464	0	0	
15	0	0	0	0	584	504	506	461	0	0	
0	0	0	0	0	585	505	511	455	0	0	
1	0	0	0	0	587	505	515	448	0	0	
2	0	0	0	0	588	506	520	441	0	0	
3	0	0	0	0	590	507	525	435	0	0	
4	0	0	0	0	591	507	528	429	0	0	
5	0	0	0	0	593	507	531	425	0	0	
6	0	0	0	0	594	505	532	422	0	0	
7	0	0	0	0	595	505	533	420	0	0	
8	0	0	0	0	595	504	531	419	0	0	
9	0	0	0	0	595	502	529	420	0	0	
10	0	0	0	0	593	500	525	423	0	0	
11	0	0	0	0	591	499	521	426	0	0	
12	0	0	0	0	590	499	518	431	0	0	
13	0	0	0	0	589	498	515	435	0	0	
14	0	0	0	0	588	499	515	440	0	0	
15	0	0	0	0	587	499	515	444	0	0	
0	0	0	0	0	587	501	518	448	0	0	
1	0	0	0	0	588	502	522	450	0	0	
2	0	0	0	0	588	503	527	450	0	0	
3	0	0	0	0	590	504	534	449	0	0	
4	0	0	0	0	591	505	540	446	0	0	
5	0	0	0	0	592	506	545	441	0	0	
6	0	0	0	0	592	506	550	436	0	0	
7	0	0	0	0	593	506	551	431	0	0	
8	0	0	0	0	592	505	551	425	0	0	
9	0	0	0	0	591	504	549	419	0	0	
10	0	0	0	0	588	502	543	414	0	0	
11	0	0	0	0	585	499	536	410	0	0	
12	0	0	0	0	582	496	527	407	0	0	
13	0	0	0	0	579	493	516	407	0	0	
14	0	0	0	0	576	491	506	407	0	0	
15	0	0	0	0	573	489	496	409	0	0	
0	0	0	0	0	571	488	487	411	0	0	
1	0	0	0	0	570	488	482	414	0	0	
2	0	0	0	0	570	489	478	416	0	0	
3	0	0	0	0	572	492	478	417	0	0	
4	0	0	0	0	574	495	480	417	0	0	
5	0	0	0	0	576	498	485	415	0	0	
6	0	0	0	0	579	502	492	412	0	0	
7	0	0	0	0	582	505	500	406	0	0	
8	0	0	0	0	585	508	509	400	0	0	
9	0	0	0	0	587	510	518	392	0	0	
10	0	0	0	0	588	511	525	384	0	0	
11	0	0	0	0	588	511	531	376	0	0	
12	0	0	0	0	588	511	535	369	0	0	
13	0	0	0	0	585	508	535	364	0	0	
14	0	0	0	0	583	506	534	361	0	0	
15	0	0	0	0	579	503	529	361	0	0	
0	0	0	0	0	576	500	523	364	0	0	
1	0	0	0	0	572	497	515	370	0	0	
2	0	0	0	0	569	494	506	378	0	0	
3	0	0	0	0	566	492	497	387	0	0	
4	0	0	0	0	563	490	489	398	0	0	
5	0	0	0	0	562	489	483	408	0	0	
6	0	0	0	0	560	489	479	418	0	0	
7	0	0	0	0	560	491	478	426	0	0	
8	0	0	0	0	560	492	479	432	0	0	
9	0	0	0	0	561	495	483	436	0	0	
10	0	0	0	0	563	499	490	437	0	0	
11	0	0	0	0	564	502	498	435	0	0	
12	0	0	0	0	567	504	507	430	0	0	
13	0	0	0	0	568	507	515	423	0	0	
14	0	0	0	0	569	508	523	415	0	0	
15	0	0	0	0	571	510	529	406	0	0	
0	0	0	0	0	571	509	534	398	0	0	
1	0	0	0	0	570	508	535	391	0	0	
2	0	0	0	0	569	506	534	385	0	0	
3	0	0	0	0	568	504	530	381	0	0	
4	0	0	0	0	566	501	525	380	0	0	
5	0	0	0	0	564	498	518	381	0	0	
6	0	0	0	0	561	495	511	384	0	0	
7	0	0	0	0	560	493	504	390	0	0	
8	0	0	0	0	558	491	496	396	0	0	
9	0	0	0	0	558	490	492	404	0	0	
10	0	0	0	0	558	491	489	413	0	0	
11	0	0	0	0	560	492	488	420	0	0	
12	0	0	0	0	562	494	489	426	0	0	
13	0	0	0	0	564	496	492	431	0	0	
14	0	0	0	0	568	498	498	433	0	0	
15	0	0	0	0	571	501	504	433	0	0	
0	0	0	0	0	574	503	510	431	0	0	
1	0	0	0	0	576	505	516	427	0	0	
2	0	0	0	0	578	506	521	422	0	0	
3	0	0	0	0	580	507	525	415	0	0	
4	0	0	0	0	581	507	527	409	0	0	
5	0	0	0	0	581	506	527	403	0	0	
6	0	0	0	0	580	505	525	399	0	0	
7	0	0	0	0	579	503	521	397	0	0	
8	0	0	0	0	577	501	515	396	0	0	
9	0	0	0	0	575	499	510	399	0	0	
10	0	0	0	0	573	497	502	403	0	0	
11	0	0	0	0	570	495	496	409	0	0	
12	0	0	0	0	568	493	488	416	0	0	
13	0	0	0	0	566	492	483	424	0	0	
14	0	0	0	0	564	492	479	432	0	0	
15	0	0	0	0	563	492	476	439	0	0	
0	0	0	0	0	563	492	476	444	0	0	
1	0	0	0	0	564	493	477	448	0	0	
2	0	0	0	0	565	494	480	449	0	0	
3	0	0	0	0	567	496	486	448	0	0	
4	0	0	0	0	569	497	492	446	0	0	
5	0	0	0	0	571	499	499	440	0	0	
6	0	0	0	0	572	499	507	434	0	0	
7	0	0	0	0	574	500	514	428	0	0	
8	0	0	0	0	574	500	520	421	0	0	
9	0	0	0	0	574	499	524	415	0	0	
10	0	0	0	0	574	498	526	410	0	0	
11	0	0	0	0	574	497	525	407	0	0	
12	0	0	0	0	573	495	523	405	0	0	
13	0	0	0	0	571	493	519	405	0	0	
14	0	0	0	0	569	491	512	407	0	0	
15	0	0	0	0	568	489	505	411	0	0	
0	0	0	0	0	568	487	497	416	0	0	
1	0	0	0	0	567	487	491	422	0	0	
2	0	0	0	0	567	486	485	428	0	0	
3	0	0	0	0	568	486	480	434	0	0	
4	0	0	0	0	568	486	477	438	0	0	
5	0	0	0	0	569	486	474	441	0	0	
6	0	0	0	0	570	486	474	441	0	0	
7	0	0	0	0	570	484	474	439	0	0	
8	0	0	0	0	570	483	474	434	0	0	
9	0	0	0	0	569	482	476	428	0	0	
10	0	0	0	0	568	480	477	420	0	0	
11	0	0	0	0	568	479	479	412	0	0	
12	0	0	0	0	566	477	480	405	0	0	
13	0	0	0	0	564	475	480	398	0	0	
14	0	0	0	0	563	473	480	392	0	0	
15	0	0	0	0	561	472	478	388	0	0	
0	0	0	0	0	559	470	476	385	0	0	
1	0	0	0	0	557	470	474	384	0	0	
2	0	0	0	0	555	469	471	385	0	0	
3	0	0	0	0	554	469	468	388	0	0	
4	0	0	0	0	553	470	465	391	0	0	
5	0	0	0	0	554	472	465	396	0	0	
6	0	0	0	0	555	473	464	401	0	0	
7	0	0	0	0	556	475	466	406	0	0	
8	0	0	0	0	558	478	469	410	0	0	
9	0	0	0	0	560	480	472	412	0	0	
10	0	0	0	0	561	481	477	413	0	0	
11	0	0	0	0	563	483	482	412	0	0	
12	0	0	0	0	565	485	487	410	0	0	
13	0	0	0	0	566	487	492	407	0	0	
14	0	0	0	0	568	487	496	403	0	0	
15	0	0	0	0	569	488	500	399	0	0	
0	0	0	0	0	570	488	504	396	0	0	
1	0	0	0	0	570	488	506	393	0	0	
2	0	0	0	0	571	487	507	392	0	0	
3	0	0	0	0	571	486	506	393	0	0	
4	0	0	0	0	570	484	505	396	0	0	
5	0	0	0	0	568	481	502	399	0	0	
6	0	0	0	0	566	479	499	404	0	0	
7	0	0	0	0	564	476	494	409	0	0	
8	0	0	0	0	561	472	487	414	0	0	
9	0	0	0	0	558	470	482	419	0	0	
10	0	0	0	0	556	467	476	424	0	0	
11	0	0	0	0	553	465	471	428	0	0	
12	0	0	0	0	551	464	467	430	0	0	
13	0	0	0	0	551	464	464	430	0	0	
14	0	0	0	0	550	464	463	428	0	0	
15	0	0	0	0	550	465	463	426	0	0	
0	0	0	0	0	550	465	464	421	0	0	
1	0	0	0	0	550	466	465	415	0	0	
2	0	0	0	0	550	467	467	409	0	0	
3	0	0	0	0	551	467	470	403	0	0	
4	0	0	0	0	550	467	472	398	0	0	
5	0	0	0	0	550	466	472	393	0	0	
6	0	0	0	0	549	464	473	391	0	0	
7	0	0	0	0	548	463	472	389	0	0	
8	0	0	0	0	547	461	471	390	0	0	
9	0	0	0	0	545	459	469	392	0	0	
10	0	0	0	0	543	457	467	396	0	0	
11	0	0	0	0	542	455	464	401	0	0	
12	0	0	0	0	541	454	462	408	0	0	
13	0	0	0	0	541	454	462	414	0	0	
14	0	0	0	0	540	455	462	421	0	0	
15	0	0	0	0	542	457	464	427	0	0	
0	0	0	0	0	543	460	468	433	0	0	
1	0	0	0	0	545	463	473	437	0	0	
2	0	0	0	0	547	467	481	439	0	0	
3	0	0	0	0	550	472	488	440	0	0	
4	0	0	0	0	551	475	496	438	0	0	
5	0	0	0	0	553	477	503	433	0	0	
6	0	0	0	0	553	478	508	427	0	0	
7	0	0	0	0	553	477	511	419	0	0	
8	0	0	0	0	552	475	512	411	0	0	
9	0	0	0	0	551	472	510	404	0	0	
10	0	0	0	0	549	469	506	398	0	0	
11	0	0	0	0	548	465	500	394	0	0	
12	0	0	0	0	547	462	495	393	0	0	
13	0	0	0	0	547	460	488	395	0	0	
14	0	0	0	0	547	457	482	401	0	0	
15	0	0	0	0	549	457	476	408	0	0	
0	0	0	0	0	550	457	472	418	0	0	
1	0	0	0	0	553	459	470	429	0	0	
2	0	0	0	0	555	462	469	440	0	0	
3	0	0	0	0	557	465	470	449	0	0	
4	0	0	0	0	559	469	473	456	0	0	
5	0	0	0	0	560	472	477	460	0	0	
6	0	0	0	0	561	476	482	460	0	0	
7	0	0	0	0	561	478	486	456	0	0	
8	0	0	0	0	559	479	489	449	0	0	
9	0	0	0	0	556	478	491	438	0	0	
10	0	0	0	0	551	475	491	424	0	0	
11	0	0	0	0	547	471	488	409	0	0	
12	0	0	0	0	540	465	482	393	0	0	
13	0	0	0	0	532	457	473	376	0	0	
14	0	0	0	0	523	448	461	359	0	0	
15	0	0	0	0	513	437	444	343	0	0	
0	0	0	0	0	502	426	427	328	0	0	
1	0	0	0	0	491	414	407	315	0	0	
2	0	0	0	0	478	401	385	304	0	0	
3	0	0	0	0	467	390	364	295	0	0	
4	0	0	0	0	455	379	344	288	0	0	
5	0	0	0	0	445	368	325	282	0	0	
6	0	0	0	0	435	359	310	278	0	0	
7	0	0	0	0	428	352	297	275	0	0	
8	0	0	0	0	422	346	290	271	0	0	
9	0	0	0	0	418	342	286	267	0	0	
10	0	0	0	0	417	339	287	263	0	0	
11	0	0	0	0	417	339	294	259	0	0	
12	0	0	0	0	420	339	303	253	0	0	
13	0	0	0	0	424	342	317	247	0	0	
14	0	0	0	0	430	345	332	241	0	0	
15	0	0	0	0	438	349	350	237	0	0	
0	0	0	0	0	445	354	368	234	0	0	
1	0	0	0	0	455	361	388	234	0	0	
2	0	0	0	0	465	370	407	237	0	0	
3	0	0	0	0	476	379	427	244	0	0	
4	0	0	0	0	489	390	446	255	0	0	
5	0	0	0	0	502	402	464	270	0	0	
6	0	0	0	0	515	415	482	288	0	0	
7	0	0	0	0	528	429	500	308	0	0	
8	0	0	0	0	542	443	516	331	0	0	
9	0	0	0	0	555	457	532	354	0	0	
10	0	0	0	0	567	471	547	376	0	0	
11	0	0	0	0	579	483	560	397	0	0	
12	0	0	0	0	589	495	572	415	0	0	
13	0	0	0	0	597	505	582	430	0	0	
14	0	0	0	0	605	514	590	441	0	0	
15	0	0	0	0	610	522	596	448	0	0	
0	0	0	0	0	614	527	600	451	0	0	
1	0	0	0	0	616	531	600	450	0	0	
2	0	0	0	0	618	533	599	447	0	0	
3	0	0	0	0	619	534	595	441	0	0	
4	0	0	0	0	617	533	588	434	0	0	
5	0	0	0	0	615	531	578	427	0	0	
6	0	0	0	0	611	527	567	419	0	0	
7	0	0	0	0	608	524	555	413	0	0	
8	0	0	0	0	604	519	541	409	0	0	
9	0	0	0	0	600	515	528	406	0	0	
10	0	0	0	0	596	511	515	405	0	0	
11	0	0	0	0	592	508	505	406	0	0	
12	0	0	0	0	590	505	496	408	0	0	
13	0	0	0	0	589	504	491	412	0	0	
14	0	0	0	0	588	504	488	415	0	0	
15	0	0	0	0	588	504	488	419	0	0	
0	0	0	0	0	588	504	492	422	0	0	
1	0	0	0	0	589	505	496	423	0	0	
2	0	0	0	0	590	507	503	422	0	0	
3	0	0	0	0	591	508	510	420	0	0	
4	0	0	0	0	592	510	516	415	0	0	
5	0	0	0	0	592	510	523	409	0	0	
6	0	0	0	0	592	510	526	403	0	0	
7	0	0	0	0	590	510	529	395	0	0	
8	0	0	0	0	588	508	529	387	0	0	
9	0	0	0	0	586	506	527	380	0	0	
10	0	0	0	0	582	504	524	374	0	0	
11	0	0	0	0	579	501	519	370	0	0	
12	0	0	0	0	575	498	513	368	0	0	
13	0	0	0	0	572	496	507	368	0	0	
14	0	0	0	0	568	494	501	370	0	0	
15	0	0	0	0	566	492	495	374	0	0	
0	0	0	0	0	564	491	491	380	0	0	
1	0	0	0	0	564	491	488	388	0	0	
2	0	0	0	0	564	492	488	396	0	0	
3	0	0	0	0	566	493	489	403	0	0	
4	0	0	0	0	568	495	493	408	0	0	
5	0	0	0	0	571	497	497	412	0	0	
6	0	0	0	0	574	499	504	413	0	0	
7	0	0	0	0	577	500	509	411	0	0	
8	0	0	0	0	581	501	515	407	0	0	
9	0	0	0	0	583	502	520	401	0	0	
10	0	0	0	0	585	502	524	393	0	0	
11	0	0	0	0	587	501	526	385	0	0	
12	0	0	0	0	588	499	527	378	0	0	
13	0	0	0	0	588	498	525	371	0	0	
14	0	0	0	0	587	496	523	366	0	0	
15	0	0	0	0	586	494	519	364	0	0	
0	0	0	0	0	585	493	515	364	0	0	
1	0	0	0	0	584	492	511	367	0	0	
2	0	0	0	0	583	492	507	373	0	0	
3	0	0	0	0	583	493	504	380	0	0	
4	0	0	0	0	582	494	502	389	0	0	
5	0	0	0	0	582	495	502	399	0	0	
6	0	0	0	0	582	496	502	408	0	0	
7	0	0	0	0	582	496	503	415	0	0	
8	0	0	0	0	581	497	505	420	0	0	
9	0	0	0	0	580	497	508	423	0	0	
10	0	0	0	0	580	497	511	423	0	0	
11	0	0	0	0	579	496	515	422	0	0	
12	0	0	0	0	578	496	518	417	0	0	
13	0	0	0	0	577	495	521	412	0	0	
14	0	0	0	0	577	495	524	405	0	0	
15	0	0	0	0	576	493	525	397	0	0	
0	0	0	0	0	577	493	526	391	0	0	
1	0	0	0	0	577	492	525	384	0	0	
2	0	0	0	0	577	492	524	379	0	0	
3	0	0	0	0	577	491	520	376	0	0	
4	0	0	0	0	578	491	517	375	0	0	
5	0	0	0	0	578	490	513	376	0	0	
6	0	0	0	0	578	490	508	379	0	0	
7	0	0	0	0	579	490	504	382	0	0	
8	0	0	0	0	579	489	500	387	0	0	
9	0	0	0	0	579	490	497	392	0	0	
10	0	0	0	0	579	491	495	397	0	0	
11	0	0	0	0	578	491	494	401	0	0	
12	0	0	0	0	579	492	495	403	0	0	
13	0	0	0	0	579	492	497	404	0	0	
14	0	0	0	0	580	493	501	404	0	0	
15	0	0	0	0	580	494	505	401	0	0	
0	0	0	0	0	581	494	509	396	0	0	
1	0	0	0	0	581	493	513	390	0	0	
2	0	0	0	0	581	492	516	383	0	0	
3	0	0	0	0	581	491	519	375	0	0	
4	0	0	0	0	579	489	519	366	0	0	
5	0	0	0	0	577	486	517	358	0	0	
6	0	0	0	0	575	482	513	350	0	0	
7	0	0	0	0	571	478	506	343	0	0	
8	0	0	0	0	567	473	498	337	0	0	
9	0	0	0	0	561	467	488	333	0	0	
10	0	0	0	0	556	462	477	331	0	0	
11	0	0	0	0	551	458	467	330	0	0	
12	0	0	0	0	547	455	456	331	0	0	
13	0	0	0	0	545	454	449	334	0	0	
14	0	0	0	0	543	454	444	339	0	0	
15	0	0	0	0	544	455	441	344	0	0	
0	0	0	0	0	545	458	443	349	0	0	
1	0	0	0	0	548	461	447	353	0	0	
2	0	0	0	0	551	465	453	357	0	0	
3	0	0	0	0	554	469	462	359	0	0	
4	0	0	0	0	558	473	471	359	0	0	
5	0	0	0	0	561	476	480	357	0	0	
6	0	0	0	0	563	478	489	354	0	0	
7	0	0	0	0	566	479	497	350	0	0	
8	0	0	0	0	567	479	503	344	0	0	
9	0	0	0	0	567	477	506	340	0	0	
10	0	0	0	0	566	474	506	335	0	0	
11	0	0	0	0	563	470	504	332	0	0	
12	0	0	0	0	561	465	499	331	0	0	
13	0	0	0	0	558	460	493	332	0	0	
14	0	0	0	0	553	456	485	335	0	0	
15	0	0	0	0	551	452	478	339	0	0	
0	0	0	0	0	548	450	471	344	0	0	
1	0	0	0	0	547	449	466	350	0	0	
2	0	0	0	0	545	450	462	355	0	0	
3	0	0	0	0	545	451	461	359	0	0	
4	0	0	0	0	546	454	463	361	0	0	
5	0	0	0	0	548	457	466	362	0	0	
6	0	0	0	0	551	461	472	359	0	0	
7	0	0	0	0	555	465	479	355	0	0	
8	0	0	0	0	558	468	486	349	0	0	
9	0	0	0	0	561	471	493	340	0	0	
10	0	0	0	0	564	472	498	330	0	0	
11	0	0	0	0	566	472	502	321	0	0	
12	0	0	0	0	567	472	503	311	0	0	
13	0	0	0	0	566	469	502	303	0	0	
14	0	0	0	0	564	466	497	296	0	0	
15	0	0	0	0	561	462	490	293	0	0	
0	0	0	0	0	559	459	483	292	0	0	
1	0	0	0	0	555	454	473	295	0	0	
2	0	0	0	0	551	451	464	300	0	0	
3	0	0	0	0	549	449	455	309	0	0	
4	0	0	0	0	547	447	448	319	0	0	
5	0	0	0	0	544	447	442	329	0	0	
6	0	0	0	0	543	447	439	340	0	0	
7	0	0	0	0	542	448	438	350	0	0	
8	0	0	0	0	541	450	440	359	0	0	
9	0	0	0	0	540	452	443	364	0	0	
10	0	0	0	0	540	454	448	368	0	0	
11	0	0	0	0	541	456	455	369	0	0	
12	0	0	0	0	542	458	463	368	0	0	
13	0	0	0	0	542	460	470	363	0	0	
14	0	0	0	0	543	460	477	358	0	0	
15	0	0	0	0	544	460	483	351	0	0	
0	0	0	0	0	543	459	487	344	0	0	
1	0	0	0	0	543	457	489	336	0	0	
2	0	0	0	0	541	455	489	330	0	0	
3	0	0	0	0	540	452	486	326	0	0	
4	0	0	0	0	538	449	482	324	0	0	
5	0	0	0	0	536	447	477	324	0	0	
6	0	0	0	0	534	445	472	326	0	0	
7	0	0	0	0	533	444	466	329	0	0	
8	0	0	0	0	532	443	460	334	0	0	
9	0	0	0	0	531	443	457	339	0	0	
10	0	0	0	0	532	444	455	344	0	0	
11	0	0	0	0	532	446	455	348	0	0	
12	0	0	0	0	534	449	457	352	0	0	
13	0	0	0	0	536	451	461	353	0	0	
14	0	0	0	0	538	454	467	354	0	0	
15	0	0	0	0	540	456	473	352	0	0	
0	0	0	0	0	543	458	480	348	0	0	
1	0	0	0	0	545	460	487	344	0	0	
2	0	0	0	0	547	460	492	339	0	0	
3	0	0	0	0	548	459	497	334	0	0	
4	0	0	0	0	548	458	499	331	0	0	
5	0	0	0	0	548	456	499	327	0	0	
6	0	0	0	0	547	454	496	327	0	0	
7	0	0	0	0	545	451	492	328	0	0	
8	0	0	0	0	543	449	486	332	0	0	
9	0	0	0	0	541	446	478	337	0	0	
10	0	0	0	0	538	444	470	344	0	0	
11	0	0	0	0	536	443	462	352	0	0	
12	0	0	0	0	534	442	454	361	0	0	
13	0	0	0	0	532	442	447	370	0	0	
14	0	0	0	0	531	443	442	379	0	0	
15	0	0	0	0	531	445	439	386	0	0	
0	0	0	0	0	531	447	438	391	0	0	
1	0	0	0	0	532	450	438	394	0	0	
2	0	0	0	0	534	453	440	396	0	0	
3	0	0	0	0	535	456	444	395	0	0	
4	0	0	0	0	536	458	448	392	0	0	
5	0	0	0	0	536	460	453	387	0	0	
6	0	0	0	0	536	461	456	382	0	0	
7	0	0	0	0	536	461	460	376	0	0	
8	0	0	0	0	535	460	461	369	0	0	
9	0	0	0	0	534	459	462	364	0	0	
10	0	0	0	0	531	456	461	359	0	0	
11	0	0	0	0	529	453	459	356	0	0	
12	0	0	0	0	527	449	455	354	0	0	
13	0	0	0	0	525	446	451	355	0	0	
14	0	0	0	0	522	442	446	357	0	0	
15	0	0	0	0	521	439	441	361	0	0	
0	0	0	0	0	520	437	437	367	0	0	
1	0	0	0	0	521	436	434	374	0	0	
2	0	0	0	0	522	436	432	381	0	0	
3	0	0	0	0	523	437	432	387	0	0	
4	0	0	0	0	525	439	433	391	0	0	
5	0	0	0	0	527	441	436	394	0	0	
6	0	0	0	0	530	444	440	395	0	0	
7	0	0	0	0	533	448	446	393	0	0	
8	0	0	0	0	536	451	451	390	0	0	
9	0	0	0	0	537	455	458	384	0	0	
10	0	0	0	0	539	457	463	378	0	0	
11	0	0	0	0	540	460	469	372	0	0	
12	0	0	0	0	541	462	473	366	0	0	
13	0	0	0	0	541	463	475	361	0	0	
14	0	0	0	0	540	462	476	358	0	0	
15	0	0	0	0	539	462	474	357	0	0	
0	0	0	0	0	537	460	471	358	0	0	
1	0	0	0	0	536	459	466	361	0	0	
2	0	0	0	0	533	456	460	367	0	0	
3	0	0	0	0	531	455	454	374	0	0	
4	0	0	0	0	530	455	447	382	0	0	
5	0	0	0	0	529	454	442	391	0	0	
6	0	0	0	0	529	455	438	399	0	0	
7	0	0	0	0	529	456	435	407	0	0	
8	0	0	0	0	530	458	435	413	0	0	
9	0	0	0	0	532	461	436	417	0	0	
10	0	0	0	0	535	463	440	419	0	0	
11	0	0	0	0	537	467	446	419	0	0	
12	0	0	0	0	540	470	452	418	0	0	
13	0	0	0	0	543	473	461	414	0	0	
14	0	0	0	0	546	476	468	409	0	0	
15	0	0	0	0	549	478	476	404	0	0	
0	0	0	0	0	551	480	483	398	0	0	
1	0	0	0	0	553	480	487	393	0	0	
2	0	0	0	0	553	479	490	390	0	0	
3	0	0	0	0	553	478	490	387	0	0	
4	0	0	0	0	552	476	489	388	0	0	
5	0	0	0	0	550	474	486	390	0	0	
6	0	0	0	0	548	472	482	394	0	0	
7	0	0	0	0	545	470	477	400	0	0	
8	0	0	0	0	543	469	472	407	0	0	
9	0	0	0	0	541	467	466	414	0	0	
10	0	0	0	0	540	468	462	422	0	0	
11	0	0	0	0	539	468	459	428	0	0	
12	0	0	0	0	539	470	457	433	0	0	
13	0	0	0	0	540	471	456	436	0	0	
14	0	0	0	0	541	473	457	438	0	0	
15	0	0	0	0	543	476	460	436	0	0	
0	0	0	0	0	547	479	464	434	0	0	
1	0	0	0	0	550	482	469	430	0	0	
2	0	0	0	0	553	484	474	424	0	0	
3	0	0	0	0	557	487	479	419	0	0	
4	0	0	0	0	560	489	484	415	0	0	
5	0	0	0	0	562	489	487	411	0	0	
6	0	0	0	0	563	489	489	408	0	0	
7	0	0	0	0	564	488	489	406	0	0	
8	0	0	0	0	564	486	488	407	0	0	
9	0	0	0	0	563	484	486	409	0	0	
10	0	0	0	0	562	481	483	413	0	0	
11	0	0	0	0	560	478	479	418	0	0	
12	0	0	0	0	559	476	476	424	0	0	
13	0	0	0	0	558	475	473	432	0	0	
14	0	0	0	0	557	473	472	438	0	0	
15	0	0	0	0	557	474	472	445	0	0	
0	0	0	0	0	558	476	474	451	0	0	
1	0	0	0	0	559	478	477	455	0	0	
2	0	0	0	0	560	480	483	458	0	0	
3	0	0	0	0	562	483	489	459	0	0	
4	0	0	0	0	563	487	496	458	0	0	
5	0	0	0	0	565	489	504	455	0	0	
6	0	0	0	0	566	491	510	451	0	0	
7	0	0	0	0	567	492	515	446	0	0	
8	0	0	0	0	567	492	519	441	0	0	
9	0	0	0	0	566	492	520	437	0	0	
10	0	0	0	0	565	490	519	434	0	0	
11	0	0	0	0	564	489	516	433	0	0	
12	0	0	0	0	563	487	512	434	0	0	
13	0	0	0	0	561	485	507	437	0	0	
14	0	0	0	0	560	484	502	442	0	0	
15	0	0	0	0	559	483	495	448	0	0	
0	0	0	0	0	559	483	489	455	0	0	
1	0	0	0	0	558	483	484	462	0	0	
2	0	0	0	0	559	484	480	469	0	0	
3	0	0	0	0	560	486	478	474	0	0	
4	0	0	0	0	561	488	477	478	0	0	
5	0	0	0	0	562	492	478	479	0	0	
6	0	0	0	0	564	495	480	478	0	0	
7	0	0	0	0	566	497	484	475	0	0	
8	0	0	0	0	568	500	488	470	0	0	
9	0	0	0	0	569	502	493	463	0	0	
10	0	0	0	0	569	504	497	455	0	0	
11	0	0	0	0	569	504	501	447	0	0	
12	0	0	0	0	568	504	504	439	0	0	
13	0	0	0	0	567	503	505	432	0	0	
14	0	0	0	0	564	500	504	427	0	0	
15	0	0	0	0	562	497	503	424	0	0	
0	0	0	0	0	559	494	500	423	0	0	
1	0	0	0	0	557	491	496	425	0	0	
2	0	0	0	0	555	487	492	430	0	0	
3	0	0	0	0	553	485	489	436	0	0	
4	0	0	0	0	553	483	485	443	0	0	
5	0	0	0	0	553	481	482	450	0	0	
6	0	0	0	0	554	481	480	457	0	0	
7	0	0	0	0	555	480	480	462	0	0	
8	0	0	0	0	556	480	480	466	0	0	
9	0	0	0	0	558	481	481	468	0	0	
10	0	0	0	0	560	482	483	468	0	0	
11	0	0	0	0	562	483	486	467	0	0	
12	0	0	0	0	564	485	490	463	0	0	
13	0	0	0	0	567	486	494	459	0	0	
14	0	0	0	0	568	487	497	454	0	0	
15	0	0	0	0	570	487	501	447	0	0	
0	0	0	0	0	571	488	503	441	0	0	
1	0	0	0	0	571	487	504	434	0	0	
2	0	0	0	0	569	486	503	428	0	0	
3	0	0	0	0	568	483	500	423	0	0	
4	0	0	0	0	565	481	496	418	0	0	
5	0	0	0	0	562	480	491	415	0	0	
6	0	0	0	0	559	478	486	414	0	0	
7	0	0	0	0	558	477	480	414	0	0	
8	0	0	0	0	556	478	476	416	0	0	
9	0	0	0	0	556	479	473	419	0	0	
10	0	0	0	0	555	481	472	422	0	0	
11	0	0	0	0	556	484	473	424	0	0	
12	0	0	0	0	558	487	475	426	0	0	
13	0	0	0	0	560	491	479	426	0	0	
14	0	0	0	0	563	495	484	425	0	0	
15	0	0	0	0	565	498	491	423	0	0	
0	0	0	0	0	567	501	497	419	0	0	
1	0	0	0	0	568	503	503	414	0	0	
2	0	0	0	0	569	504	508	407	0	0	
3	0	0	0	0	570	504	513	400	0	0	
4	0	0	0	0	569	503	515	394	0	0	
5	0	0	0	0	568	502	515	387	0	0	
6	0	0	0	0	567	499	513	383	0	0	
7	0	0	0	0	566	496	509	379	0	0	
8	0	0	0	0	564	493	504	377	0	0	
9	0	0	0	0	562	489	497	377	0	0	
10	0	0	0	0	561	487	489	379	0	0	
11	0	0	0	0	560	485	483	382	0	0	
12	0	0	0	0	560	483	476	386	0	0	
13	0	0	0	0	560	483	472	391	0	0	
14	0	0	0	0	561	484	470	396	0	0	
15	0	0	0	0	563	487	470	401	0	0	
0	0	0	0	0	566	489	473	406	0	0	
1	0	0	0	0	569	493	477	408	0	0	
2	0	0	0	0	572	497	483	409	0	0	
3	0	0	0	0	576	501	490	408	0	0	
4	0	0	0	0	580	505	498	406	0	0	
5	0	0	0	0	583	508	505	401	0	0	
6	0	0	0	0	586	509	511	396	0	0	
7	0	0	0	0	588	510	515	388	0	0	
8	0	0	0	0	588	510	518	380	0	0	
9	0	0	0	0	588	507	518	372	0	0	
10	0	0	0	0	585	504	514	364	0	0	
11	0	0	0	0	582	499	510	358	0	0	
12	0	0	0	0	577	494	502	353	0	0	
13	0	0	0	0	572	489	494	350	0	0	
14	0	0	0	0	566	484	484	349	0	0	
15	0	0	0	0	560	480	474	349	0	0	
0	0	0	0	0	556	476	466	351	0	0	
1	0	0	0	0	552	475	460	354	0	0	
2	0	0	0	0	550	474	456	358	0	0	
3	0	0	0	0	550	476	455	361	0	0	
4	0	0	0	0	551	479	457	364	0	0	
5	0	0	0	0	553	481	463	367	0	0	
6	0	0	0	0	557	486	470	367	0	0	
7	0	0	0	0	560	490	480	366	0	0	
8	0	0	0	0	563	494	491	363	0	0	
9	0	0	0	0	567	497	501	358	0	0	
10	0	0	0	0	569	498	510	352	0	0	
11	0	0	0	0	571	499	518	345	0	0	
12	0	0	0	0	572	499	523	339	0	0	
13	0	0	0	0	573	498	525	333	0	0	
14	0	0	0	0	572	496	524	328	0	0	
15	0	0	0	0	571	493	520	324	0	0	
0	0	0	0	0	569	490	513	321	0	0	
1	0	0	0	0	566	487	505	320	0	0	
2	0	0	0	0	563	483	495	321	0	0	
3	0	0	0	0	560	481	484	323	0	0	
4	0	0	0	0	558	478	475	325	0	0	
5	0	0	0	0	555	476	466	328	0	0	
6	0	0	0	0	553	476	459	332	0	0	
7	0	0	0	0	552	476	455	335	0	0	
8	0	0	0	0	551	477	454	337	0	0	
9	0	0	0	0	551	479	456	339	0	0	
10	0	0	0	0	553	482	461	340	0	0	
11	0	0	0	0	555	486	468	341	0	0	
12	0	0	0	0	558	490	478	340	0	0	
13	0	0	0	0	561	494	489	339	0	0	
14	0	0	0	0	564	497	500	339	0	0	
15	0	0	0	0	567	501	511	338	0	0	
0	0	0	0	0	569	503	520	338	0	0	
1	0	0	0	0	571	504	526	339	0	0	
2	0	0	0	0	572	503	530	340	0	0	
3	0	0	0	0	572	503	531	343	0	0	
4	0	0	0	0	571	500	529	347	0	0	
5	0	0	0	0	569	498	524	353	0	0	
6	0	0	0	0	568	496	517	359	0	0	
7	0	0	0	0	566	493	508	368	0	0	
8	0	0	0	0	565	492	499	376	0	0	
9	0	0	0	0	564	491	491	384	0	0	
10	0	0	0	0	564	491	484	391	0	0	
11	0	0	0	0	565	492	480	397	0	0	
12	0	0	0	0	567	494	478	401	0	0	
13	0	0	0	0	569	496	478	403	0	0	
14	0	0	0	0	572	499	481	403	0	0	
15	0	0	0	0	573	501	487	400	0	0	
0	0	0	0	0	575	503	493	396	0	0	
1	0	0	0	0	575	504	500	391	0	0	
2	0	0	0	0	575	505	507	385	0	0	
3	0	0	0	0	575	504	513	380	0	0	
4	0	0	0	0	572	503	518	376	0	0	
5	0	0	0	0	570	501	520	372	0	0	
6	0	0	0	0	567	498	521	370	0	0	
7	0	0	0	0	564	495	519	371	0	0	
8	0	0	0	0	561	492	516	375	0	0	
9	0	0	0	0	559	488	511	382	0	0	
10	0	0	0	0	556	486	505	391	0	0	
11	0	0	0	0	555	483	500	401	0	0	
12	0	0	0	0	554	481	495	412	0	0	
13	0	0	0	0	554	480	491	424	0	0	
14	0	0	0	0	555	479	488	435	0	0	
15	0	0	0	0	556	479	487	444	0	0	
0	0	0	0	0	558	480	488	451	0	0	
1	0	0	0	0	560	480	491	455	0	0	
2	0	0	0	0	563	482	495	456	0	0	
3	0	0	0	0	564	483	499	454	0	0	
4	0	0	0	0	566	484	504	448	0	0	
5	0	0	0	0	567	484	507	440	0	0	
6	0	0	0	0	567	484	510	431	0	0	
7	0	0	0	0	567	484	512	421	0	0	
8	0	0	0	0	566	483	512	412	0	0	
9	0	0	0	0	564	481	509	403	0	0	
10	0	0	0	0	563	479	505	397	0	0	
11	0	0	0	0	560	476	499	393	0	0	
12	0	0	0	0	559	474	492	392	0	0	
13	0	0	0	0	556	471	483	395	0	0	
14	0	0	0	0	554	468	474	399	0	0	
15	0	0	0	0	551	467	466	406	0	0	
0	0	0	0	0	550	465	459	414	0	0	
1	0	0	0	0	549	465	453	423	0	0	
2	0	0	0	0	550	467	451	434	0	0	
3	0	0	0	0	551	469	451	442	0	0	
4	0	0	0	0	552	472	454	449	0	0	
5	0	0	0	0	554	476	460	452	0	0	
6	0	0	0	0	557	480	467	454	0	0	
7	0	0	0	0	559	483	476	451	0	0	
8	0	0	0	0	561	486	486	446	0	0	
9	0	0	0	0	562	488	495	439	0	0	
10	0	0	0	0	564	489	503	431	0	0	
11	0	0	0	0	565	489	510	423	0	0	
12	0	0	0	0	565	488	514	415	0	0	
13	0	0	0	0	565	486	516	409	0	0	
14	0	0	0	0	565	484	515	405	0	0	
15	0	0	0	0	564	481	512	403	0	0	
0	0	0	0	0	563	477	508	403	0	0	
1	0	0	0	0	563	474	501	407	0	0	
2	0	0	0	0	562	471	494	412	0	0	
3	0	0	0	0	561	469	487	420	0	0	
4	0	0	0	0	560	466	480	428	0	0	
5	0	0	0	0	560	465	474	438	0	0	
6	0	0	0	0	560	464	469	446	0	0	
7	0	0	0	0	559	463	465	453	0	0	
8	0	0	0	0	559	463	463	459	0	0	
9	0	0	0	0	559	463	461	462	0	0	
10	0	0	0	0	559	463	461	463	0	0	
11	0	0	0	0	560	464	463	462	0	0	
12	0	0	0	0	560	465	464	459	0	0	
13	0	0	0	0	560	466	467	454	0	0	
14	0	0	0	0	560	466	469	448	0	0	
15	0	0	0	0	559	466	471	442	0	0	
0	0	0	0	0	559	466	473	436	0	0	
1	0	0	0	0	558	466	474	432	0	0	
2	0	0	0	0	556	465	475	428	0	0	
3	0	0	0	0	554	463	474	427	0	0	
4	0	0	0	0	552	462	473	428	0	0	
5	0	0	0	0	550	461	472	432	0	0	
6	0	0	0	0	548	459	472	438	0	0	
7	0	0	0	0	547	458	471	444	0	0	
8	0	0	0	0	546	457	471	452	0	0	
9	0	0	0	0	546	456	471	461	0	0	
10	0	0	0	0	547	457	473	469	0	0	
11	0	0	0	0	548	458	475	476	0	0	
12	0	0	0	0	550	460	479	483	0	0	
13	0	0	0	0	552	462	483	487	0	0	
14	0	0	0	0	555	465	488	488	0	0	
15	0	0	0	0	557	467	493	488	0	0	
0	0	0	0	0	559	469	498	485	0	0	
1	0	0	0	0	560	471	501	479	0	0	
2	0	0	0	0	561	472	504	472	0	0	
3	0	0	0	0	561	472	506	465	0	0	
4	0	0	0	0	560	472	507	458	0	0	
5	0	0	0	0	559	472	506	452	0	0	
6	0	0	0	0	557	471	505	448	0	0	
7	0	0	0	0	556	470	503	447	0	0	
8	0	0	0	0	554	470	500	447	0	0	
9	0	0	0	0	552	469	496	451	0	0	
10	0	0	0	0	551	469	492	456	0	0	
11	0	0	0	0	551	469	489	463	0	0	
12	0	0	0	0	550	469	485	470	0	0	
13	0	0	0	0	551	470	483	478	0	0	
14	0	0	0	0	551	470	481	486	0	0	
15	0	0	0	0	552	471	480	492	0	0	
0	0	0	0	0	553	472	480	496	0	0	
1	0	0	0	0	555	472	481	499	0	0	
2	0	0	0	0	556	473	483	499	0	0	
3	0	0	0	0	557	473	487	497	0	0	
4	0	0	0	0	557	473	490	492	0	0	
5	0	0	0	0	558	472	493	486	0	0	
6	0	0	0	0	558	471	496	478	0	0	
7	0	0	0	0	557	469	498	469	0	0	
8	0	0	0	0	557	467	499	460	0	0	
9	0	0	0	0	556	464	499	451	0	0	
10	0	0	0	0	555	461	497	444	0	0	
11	0	0	0	0	554	459	493	439	0	0	
12	0	0	0	0	552	455	488	435	0	0	
13	0	0	0	0	551	453	483	433	0	0	
14	0	0	0	0	549	451	476	434	0	0	
15	0	0	0	0	548	449	469	435	0	0	
0	0	0	0	0	547	448	462	438	0	0	
1	0	0	0	0	546	447	455	441	0	0	
2	0	0	0	0	547	447	451	444	0	0	
3	0	0	0	0	547	448	447	447	0	0	
4	0	0	0	0	548	449	446	449	0	0	
5	0	0	0	0	550	451	446	449	0	0	
6	0	0	0	0	551	453	448	448	0	0	
7	0	0	0	0	553	455	451	444	0	0	
8	0	0	0	0	555	458	456	440	0	0	
9	0	0	0	0	556	460	462	434	0	0	
10	0	0	0	0	558	462	468	428	0	0	
11	0	0	0	0	559	463	474	422	0	0	
12	0	0	0	0	559	463	479	415	0	0	
13	0	0	0	0	558	463	483	411	0	0	
14	0	0	0	0	557	462	485	407	0	0	
15	0	0	0	0	556	460	486	406	0	0	
0	0	0	0	0	555	458	486	406	0	0	
1	0	0	0	0	553	456	484	409	0	0	
2	0	0	0	0	552	455	483	414	0	0	
3	0	0	0	0	551	455	481	421	0	0	
4	0	0	0	0	551	455	479	429	0	0	
5	0	0	0	0	553	457	478	437	0	0	
6	0	0	0	0	554	459	478	445	0	0	
7	0	0	0	0	555	461	479	452	0	0	
8	0	0	0	0	556	463	481	457	0	0	
9	0	0	0	0	558	466	484	460	0	0	
10	0	0	0	0	559	468	487	460	0	0	
11	0	0	0	0	560	470	491	458	0	0	
12	0	0	0	0	561	472	495	454	0	0	
13	0	0	0	0	561	472	499	448	0	0	
14	0	0	0	0	561	472	501	440	0	0	
15	0	0	0	0	561	472	504	433	0	0	
0	0	0	0	0	561	470	504	426	0	0	
1	0	0	0	0	560	468	505	421	0	0	
2	0	0	0	0	560	466	504	418	0	0	
3	0	0	0	0	560	464	500	417	0	0	
4	0	0	0	0	559	462	496	418	0	0	
5	0	0	0	0	558	460	492	421	0	0	
6	0	0	0	0	556	457	486	426	0	0	
7	0	0	0	0	556	456	480	432	0	0	
8	0	0	0	0	555	455	474	438	0	0	
9	0	0	0	0	555	454	470	445	0	0	
10	0	0	0	0	556	455	467	451	0	0	
11	0	0	0	0	556	455	465	456	0	0	
12	0	0	0	0	557	456	464	459	0	0	
13	0	0	0	0	559	458	465	460	0	0	
14	0	0	0	0	560	460	468	459	0	0	
15	0	0	0	0	561	462	472	455	0	0	
0	0	0	0	0	562	463	477	450	0	0	
1	0	0	0	0	563	464	482	443	0	0	
2	0	0	0	0	563	464	487	435	0	0	
3	0	0	0	0	563	465	491	426	0	0	
4	0	0	0	0	561	464	494	417	0	0	
5	0	0	0	0	560	463	496	409	0	0	
6	0	0	0	0	558	461	496	403	0	0	
7	0	0	0	0	555	459	493	397	0	0	
8	0	0	0	0	552	457	490	395	0	0	
9	0	0	0	0	550	455	485	395	0	0	
10	0	0	0	0	547	453	479	397	0	0	
11	0	0	0	0	544	451	473	401	0	0	
12	0	0	0	0	542	450	467	407	0	0	
13	0	0	0	0	541	450	462	414	0	0	
14	0	0	0	0	540	450	458	421	0	0	
15	0	0	0	0	540	452	456	428	0	0	
0	0	0	0	0	540	454	455	433	0	0	
1	0	0	0	0	540	456	457	436	0	0	
2	0	0	0	0	542	460	461	439	0	0	
3	0	0	0	0	543	463	466	438	0	0	
4	0	0	0	0	544	465	471	435	0	0	
5	0	0	0	0	546	467	476	431	0	0	
6	0	0	0	0	547	469	481	424	0	0	
7	0	0	0	0	549	470	486	418	0	0	
8	0	0	0	0	550	471	489	412	0	0	
9	0	0	0	0	551	470	490	407	0	0	
10	0	0	0	0	553	471	491	403	0	0	
11	0	0	0	0	554	471	489	403	0	0	
12	0	0	0	0	556	471	487	404	0	0	
13	0	0	0	0	556	471	485	409	0	0	
14	0	0	0	0	557	471	482	415	0	0	
15	0	0	0	0	558	472	479	423	0	0	
0	0	0	0	0	558	473	476	433	0	0	
1	0	0	0	0	558	474	474	443	0	0	
2	0	0	0	0	558	476	473	451	0	0	
3	0	0	0	0	558	477	473	459	0	0	
4	0	0	0	0	557	479	473	463	0	0	
5	0	0	0	0	556	480	475	465	0	0	
6	0	0	0	0	556	481	477	464	0	0	
7	0	0	0	0	554	481	479	461	0	0	
8	0	0	0	0	553	481	481	455	0	0	
9	0	0	0	0	552	481	484	447	0	0	
10	0	0	0	0	551	480	484	438	0	0	
11	0	0	0	0	549	478	484	428	0	0	
12	0	0	0	0	547	476	483	419	0	0	
13	0	0	0	0	545	473	480	409	0	0	
14	0	0	0	0	543	470	476	402	0	0	
15	0	0	0	0	540	466	470	395	0	0	
0	0	0	0	0	538	462	463	391	0	0	
1	0	0	0	0	535	458	457	390	0	0	
2	0	0	0	0	533	455	450	391	0	0	
3	0	0	0	0	531	451	445	393	0	0	
4	0	0	0	0	530	449	442	398	0	0	
5	0	0	0	0	531	448	440	403	0	0	
6	0	0	0	0	531	447	441	409	0	0	
7	0	0	0	0	531	448	444	415	0	0	
8	0	0	0	0	532	448	448	421	0	0	
9	0	0	0	0	534	451	454	425	0	0	
10	0	0	0	0	536	453	462	428	0	0	
11	0	0	0	0	538	456	471	428	0	0	
12	0	0	0	0	540	460	479	428	0	0	
13	0	0	0	0	543	463	488	425	0	0	
14	0	0	0	0	545	467	496	422	0	0	
15	0	0	0	0	548	471	504	418	0	0	
0	0	0	0	0	551	474	510	415	0	0	
1	0	0	0	0	553	476	514	412	0	0	
2	0	0	0	0	556	478	515	410	0	0	
3	0	0	0	0	558	479	515	410	0	0	
4	0	0	0	0	560	480	512	411	0	0	
5	0	0	0	0	560	480	507	414	0	0	
6	0	0	0	0	560	480	500	419	0	0	
7	0	0	0	0	559	479	492	425	0	0	
8	0	0	0	0	558	478	483	432	0	0	
9	0	0	0	0	557	479	476	440	0	0	
10	0	0	0	0	555	479	468	447	0	0	
11	0	0	0	0	554	480	463	454	0	0	
12	0	0	0	0	554	482	460	460	0	0	
13	0	0	0	0	554	485	459	464	0	0	
14	0	0	0	0	555	488	461	466	0	0	
15	0	0	0	0	556	491	465	465	0	0	
0	0	0	0	0	557	494	470	463	0	0	
1	0	0	0	0	557	495	476	457	0	0	
2	0	0	0	0	557	496	481	449	0	0	
3	0	0	0	0	556	496	486	441	0	0	
4	0	0	0	0	555	494	490	432	0	0	
5	0	0	0	0	551	491	492	423	0	0	
6	0	0	0	0	547	487	491	414	0	0	
7	0	0	0	0	540	481	487	406	0	0	
8	0	0	0	0	534	476	480	398	0	0	
9	0	0	0	0	526	468	472	392	0	0	
10	0	0	0	0	517	460	460	387	0	0	
11	0	0	0	0	508	452	446	383	0	0	
12	0	0	0	0	499	444	430	380	0	0	
13	0	0	0	0	490	435	414	376	0	0	
14	0	0	0	0	481	427	398	373	0	0	
15	0	0	0	0	472	419	383	368	0	0	
0	0	0	0	0	463	411	368	362	0	0	
1	0	0	0	0	455	404	355	353	0	0	
2	0	0	0	0	446	396	344	343	0	0	
3	0	0	0	0	438	389	335	331	0	0	
4	0	0	0	0	431	383	327	316	0	0	
5	0	0	0	0	424	376	322	300	0	0	
6	0	0	0	0	418	370	319	282	0	0	
7	0	0	0	0	413	364	318	265	0	0	
8	0	0	0	0	408	359	319	248	0	0	
9	0	0	0	0	405	355	320	232	0	0	
10	0	0	0	0	403	352	323	219	0	0	
11	0	0	0	0	403	351	327	209	0	0	
12	0	0	0	0	406	351	332	204	0	0	
13	0	0	0	0	411	353	339	204	0	0	
14	0	0	0	0	418	359	349	208	0	0	
15	0	0	0	0	428	366	361	219	0	0	
0	0	0	0	0	440	376	376	233	0	0	
1	0	0	0	0	455	390	395	252	0	0	
2	0	0	0	0	472	405	416	273	0	0	
3	0	0	0	0	491	422	441	295	0	0	
4	0	0	0	0	510	441	467	318	0	0	
5	0	0	0	0	529	460	494	339	0	0	
6	0	0	0	0	548	478	522	357	0	0	
7	0	0	0	0	567	496	550	374	0	0	
8	0	0	0	0	583	511	574	385	0	0	
9	0	0	0	0	596	526	595	395	0	0	
10	0	0	0	0	607	537	612	400	0	0	
11	0	0	0	0	615	546	625	403	0	0	
12	0	0	0	0	621	553	632	404	0	0	
13	0	0	0	0	624	557	634	404	0	0	
14	0	0	0	0	624	559	631	403	0	0	
15	0	0	0	0	623	558	622	402	0	0	
0	0	0	0	0	620	557	610	402	0	0	
1	0	0	0	0	614	553	595	403	0	0	
2	0	0	0	0	608	549	577	406	0	0	
3	0	0	0	0	601	544	559	409	0	0	
4	0	0	0	0	594	540	540	413	0	0	
5	0	0	0	0	588	535	522	417	0	0	
6	0	0	0	0	582	531	505	422	0	0	
7	0	0	0	0	576	527	491	425	0	0	
8	0	0	0	0	572	524	479	427	0	0	
9	0	0	0	0	568	521	469	425	0	0	
10	0	0	0	0	564	519	462	422	0	0	
11	0	0	0	0	561	517	457	416	0	0	
12	0	0	0	0	560	516	455	409	0	0	
13	0	0	0	0	559	516	455	402	0	0	
14	0	0	0	0	560	516	457	394	0	0	
15	0	0	0	0	562	516	462	387	0	0	
0	0	0	0	0	564	516	467	380	0	0	
1	0	0	0	0	568	517	474	374	0	0	
2	0	0	0	0	571	518	481	368	0	0	
3	0	0	0	0	574	518	488	363	0	0	
4	0	0	0	0	577	519	495	358	0	0	
5	0	0	0	0	579	519	500	354	0	0	
6	0	0	0	0	579	519	503	350	0	0	
7	0	0	0	0	579	518	505	347	0	0	
8	0	0	0	0	577	518	505	343	0	0	
9	0	0	0	0	575	518	505	339	0	0	
10	0	0	0	0	572	517	503	335	0	0	
11	0	0	0	0	569	516	501	331	0	0	
12	0	0	0	0	566	516	498	326	0	0	
13	0	0	0	0	563	516	496	320	0	0	
14	0	0	0	0	560	516	494	314	0	0	
15	0	0	0	0	559	515	492	307	0	0	
0	0	0	0	0	557	515	491	300	0	0	
1	0	0	0	0	557	515	491	292	0	0	
2	0	0	0	0	557	514	491	285	0	0	
3	0	0	0	0	558	513	491	279	0	0	
4	0	0	0	0	558	512	491	274	0	0	
5	0	0	0	0	559	509	489	270	0	0	
6	0	0	0	0	559	507	487	268	0	0	
7	0	0	0	0	559	504	484	268	0	0	
8	0	0	0	0	558	501	480	270	0	0	
9	0	0	0	0	557	499	476	275	0	0	
10	0	0	0	0	556	496	471	281	0	0	
11	0	0	0	0	555	494	465	288	0	0	
12	0	0	0	0	553	492	461	295	0	0	
13	0	0	0	0	552	491	457	304	0	0	
14	0	0	0	0	551	491	455	311	0	0	
15	0	0	0	0	550	491	453	316	0	0	
0	0	0	0	0	548	491	454	319	0	0	
1	0	0	0	0	548	492	455	319	0	0	
2	0	0	0	0	548	493	459	316	0	0	
3	0	0	0	0	548	495	463	311	0	0	
4	0	0	0	0	548	496	470	303	0	0	
5	0	0	0	0	549	497	476	294	0	0	
6	0	0	0	0	550	499	482	283	0	0	
7	0	0	0	0	551	500	489	273	0	0	
8	0	0	0	0	552	501	495	264	0	0	
9	0	0	0	0	554	501	499	256	0	0	
10	0	0	0	0	555	502	502	249	0	0	
11	0	0	0	0	555	501	503	244	0	0	
12	0	0	0	0	555	500	502	241	0	0	
13	0	0	0	0	554	498	499	239	0	0	
14	0	0	0	0	552	496	494	239	0	0	
15	0	0	0	0	551	494	487	239	0	0	
0	0	0	0	0	550	492	480	240	0	0	
1	0	0	0	0	549	491	473	240	0	0	
2	0	0	0	0	548	489	467	241	0	0	
3	0	0	0	0	547	489	463	239	0	0	
4	0	0	0	0	547	488	460	236	0	0	
5	0	0	0	0	547	488	459	232	0	0	
6	0	0	0	0	548	487	460	226	0	0	
7	0	0	0	0	548	487	463	220	0	0	
8	0	0	0	0	548	487	468	212	0	0	
9	0	0	0	0	548	487	473	203	0	0	
10	0	0	0	0	548	487	479	194	0	0	
11	0	0	0	0	549	487	484	185	0	0	
12	0	0	0	0	548	486	489	178	0	0	
13	0	0	0	0	548	484	493	171	0	0	
14	0	0	0	0	547	483	495	165	0	0	
15	0	0	0	0	547	482	496	161	0	0	
0	0	0	0	0	547	481	496	160	0	0	
1	0	0	0	0	546	480	494	162	0	0	
2	0	0	0	0	545	479	491	166	0	0	
3	0	0	0	0	545	478	487	172	0	0	
4	0	0	0	0	545	478	484	179	0	0	
5	0	0	0	0	546	478	482	187	0	0	
6	0	0	0	0	547	479	479	195	0	0	
7	0	0	0	0	548	480	477	201	0	0	
8	0	0	0	0	549	480	476	207	0	0	
9	0	0	0	0	550	482	475	211	0	0	
10	0	0	0	0	552	483	476	215	0	0	
11	0	0	0	0	553	485	477	216	0	0	
12	0	0	0	0	554	486	479	217	0	0	
13	0	0	0	0	555	487	482	218	0	0	
14	0	0	0	0	555	487	484	217	0	0	
15	0	0	0	0	555	487	487	217	0	0	
0	0	0	0	0	553	486	488	217	0	0	
1	0	0	0	0	552	485	488	216	0	0	
2	0	0	0	0	550	482	486	217	0	0	
3	0	0	0	0	548	480	482	217	0	0	
4	0	0	0	0	545	478	478	219	0	0	
5	0	0	0	0	543	475	472	222	0	0	
6	0	0	0	0	541	473	466	225	0	0	
7	0	0	0	0	540	472	460	229	0	0	
8	0	0	0	0	539	471	455	232	0	0	
9	0	0	0	0	538	470	450	237	0	0	
10	0	0	0	0	538	470	448	241	0	0	
11	0	0	0	0	538	471	446	245	0	0	
12	0	0	0	0	539	472	447	248	0	0	
13	0	0	0	0	540	473	449	249	0	0	
14	0	0	0	0	542	475	454	248	0	0	
15	0	0	0	0	542	476	460	246	0	0	
0	0	0	0	0	543	476	466	241	0	0	
1	0	0	0	0	545	477	473	235	0	0	
2	0	0	0	0	546	477	479	226	0	0	
3	0	0	0	0	547	477	485	216	0	0	
4	0	0	0	0	547	476	489	205	0	0	
5	0	0	0	0	547	475	491	193	0	0	
6	0	0	0	0	546	473	492	182	0	0	
7	0	0	0	0	545	471	489	171	0	0	
8	0	0	0	0	543	468	487	163	0	0	
9	0	0	0	0	541	465	482	157	0	0	
10	0	0	0	0	538	463	476	155	0	0	
11	0	0	0	0	536	461	471	156	0	0	
12	0	0	0	0	535	460	466	160	0	0	
13	0	0	0	0	534	460	462	168	0	0	
14	0	0	0	0	534	462	459	177	0	0	
15	0	0	0	0	534	464	458	187	0	0	
0	0	0	0	0	535	467	460	198	0	0	
1	0	0	0	0	537	472	462	206	0	0	
2	0	0	0	0	539	476	467	213	0	0	
3	0	0	0	0	541	480	473	218	0	0	
4	0	0	0	0	542	484	480	220	0	0	
5	0	0	0	0	543	487	486	220	0	0	
6	0	0	0	0	544	489	491	217	0	0	
7	0	0	0	0	545	491	496	214	0	0	
8	0	0	0	0	544	490	499	208	0	0	
9	0	0	0	0	544	489	501	203	0	0	
10	0	0	0	0	543	487	501	197	0	0	
11	0	0	0	0	541	485	499	192	0	0	
12	0	0	0	0	539	482	495	187	0	0	
13	0	0	0	0	537	479	491	184	0	0	
14	0	0	0	0	534	475	484	182	0	0	
15	0	0	0	0	532	472	478	181	0	0	
0	0	0	0	0	531	469	471	181	0	0	
1	0	0	0	0	529	468	465	182	0	0	
2	0	0	0	0	530	468	461	183	0	0	
3	0	0	0	0	530	469	459	184	0	0	
4	0	0	0	0	531	471	459	184	0	0	
5	0	0	0	0	532	473	461	183	0	0	
6	0	0	0	0	535	477	465	183	0	0	
7	0	0	0	0	536	479	471	181	0	0	
8	0	0	0	0	539	482	478	180	0	0	
9	0	0	0	0	539	484	486	180	0	0	
10	0	0	0	0	540	485	492	179	0	0	
11	0	0	0	0	540	484	497	179	0	0	
12	0	0	0	0	539	483	500	180	0	0	
13	0	0	0	0	537	480	500	181	0	0	
14	0	0	0	0	534	477	499	183	0	0	
15	0	0	0	0	531	473	495	184	0	0	
0	0	0	0	0	528	468	489	186	0	0	
1	0	0	0	0	526	464	482	189	0	0	
2	0	0	0	0	523	460	473	191	0	0	
3	0	0	0	0	520	457	464	193	0	0	
4	0	0	0	0	519	455	455	195	0	0	
5	0	0	0	0	518	454	448	197	0	0	
6	0	0	0	0	519	455	441	200	0	0	
7	0	0	0	0	520	458	438	203	0	0	
8	0	0	0	0	522	462	436	207	0	0	
9	0	0	0	0	525	466	436	209	0	0	
10	0	0	0	0	528	472	439	212	0	0	
11	0	0	0	0	531	476	444	215	0	0	
12	0	0	0	0	533	480	448	216	0	0	
13	0	0	0	0	536	484	454	217	0	0	
14	0	0	0	0	537	487	459	219	0	0	
15	0	0	0	0	539	489	464	220	0	0	
0	0	0	0	0	540	489	468	222	0	0	
1	0	0	0	0	541	489	472	224	0	0	
2	0	0	0	0	541	488	473	226	0	0	
3	0	0	0	0	541	486	473	228	0	0	
4	0	0	0	0	540	484	472	230	0	0	
5	0	0	0	0	540	481	470	232	0	0	
6	0	0	0	0	538	478	467	234	0	0	
7	0	0	0	0	536	475	463	235	0	0	
8	0	0	0	0	535	472	460	235	0	0	
9	0	0	0	0	534	469	456	233	0	0	
10	0	0	0	0	532	467	453	231	0	0	
11	0	0	0	0	531	466	451	228	0	0	
12	0	0	0	0	530	465	451	222	0	0	
13	0	0	0	0	530	465	451	216	0	0	
14	0	0	0	0	530	467	452	209	0	0	
15	0	0	0	0	529	467	454	201	0	0	
0	0	0	0	0	530	468	455	192	0	0	
1	0	0	0	0	529	469	457	184	0	0	
2	0	0	0	0	529	470	458	176	0	0	
3	0	0	0	0	528	470	459	169	0	0	
4	0	0	0	0	528	469	458	164	0	0	
5	0	0	0	0	527	467	456	160	0	0	
6	0	0	0	0	526	465	454	159	0	0	
7	0	0	0	0	526	462	451	159	0	0	
8	0	0	0	0	525	459	447	161	0	0	
9	0	0	0	0	524	455	443	164	0	0	
10	0	0	0	0	523	452	439	170	0	0	
11	0	0	0	0	522	449	435	176	0	0	
12	0	0	0	0	521	447	431	181	0	0	
13	0	0	0	0	521	446	428	188	0	0	
14	0	0	0	0	520	444	426	194	0	0	
15	0	0	0	0	520	444	425	199	0	0	
0	0	0	0	0	520	444	426	203	0	0	
1	0	0	0	0	521	445	427	204	0	0	
2	0	0	0	0	522	447	431	205	0	0	
3	0	0	0	0	524	449	435	203	0	0	
4	0	0	0	0	526	451	441	199	0	0	
5	0	0	0	0	527	454	447	194	0	0	
6	0	0	0	0	529	455	454	187	0	0	
7	0	0	0	0	531	457	460	178	0	0	
8	0	0	0	0	534	459	465	169	0	0	
9	0	0	0	0	535	459	469	160	0	0	
10	0	0	0	0	535	459	472	152	0	0	
11	0	0	0	0	536	459	473	145	0	0	
12	0	0	0	0	535	458	473	141	0	0	
13	0	0	0	0	534	456	471	139	0	0	
14	0	0	0	0	532	455	467	139	0	0	
15	0	0	0	0	530	453	462	142	0	0	
0	0	0	0	0	527	452	456	148	0	0	
1	0	0	0	0	525	451	451	158	0	0	
2	0	0	0	0	523	451	446	168	0	0	
3	0	0	0	0	521	451	441	180	0	0	
4	0	0	0	0	520	453	440	192	0	0	
5	0	0	0	0	520	455	439	202	0	0	
6	0	0	0	0	521	458	440	211	0	0	
7	0	0	0	0	523	461	444	219	0	0	
8	0	0	0	0	525	464	449	223	0	0	
9	0	0	0	0	527	467	455	225	0	0	
10	0	0	0	0	531	468	463	224	0	0	
11	0	0	0	0	534	470	471	222	0	0	
12	0	0	0	0	537	471	478	219	0	0	
13	0	0	0	0	540	471	484	214	0	0	
14	0	0	0	0	542	470	490	210	0	0	
15	0	0	0	0	544	469	493	206	0	0	
0	0	0	0	0	546	468	496	205	0	0	
1	0	0	0	0	546	467	496	206	0	0	
2	0	0	0	0	547	466	495	209	0	0	
3	0	0	0	0	547	465	493	215	0	0	
4	0	0	0	0	547	465	491	223	0	0	
5	0	0	0	0	547	466	487	232	0	0	
6	0	0	0	0	547	468	485	243	0	0	
7	0	0	0	0	547	470	483	254	0	0	
8	0	0	0	0	547	473	481	264	0	0	
9	0	0	0	0	548	476	481	273	0	0	
10	0	0	0	0	549	480	482	280	0	0	
11	0	0	0	0	550	482	484	285	0	0	
12	0	0	0	0	551	485	487	287	0	0	
13	0	0	0	0	553	487	491	287	0	0	
14	0	0	0	0	555	488	495	286	0	0	
15	0	0	0	0	556	489	499	282	0	0	
0	0	0	0	0	557	488	503	278	0	0	
1	0	0	0	0	558	487	505	274	0	0	
2	0	0	0	0	558	484	506	271	0	0	
3	0	0	0	0	558	482	505	268	0	0	
4	0	0	0	0	559	480	504	268	0	0	
5	0	0	0	0	558	478	501	271	0	0	
6	0	0	0	0	558	476	498	276	0	0	
7	0	0	0	0	558	476	495	284	0	0	
8	0	0	0	0	558	476	491	293	0	0	
9	0	0	0	0	559	477	489	304	0	0	
10	0	0	0	0	560	478	488	316	0	0	
11	0	0	0	0	561	480	489	328	0	0	
12	0	0	0	0	562	483	491	339	0	0	
13	0	0	0	0	564	485	493	348	0	0	
14	0	0	0	0	566	488	497	356	0	0	
15	0	0	0	0	567	489	502	361	0	0	
0	0	0	0	0	568	491	507	364	0	0	
1	0	0	0	0	570	492	511	364	0	0	
2	0	0	0	0	571	493	515	363	0	0	
3	0	0	0	0	572	493	518	361	0	0	
4	0	0	0	0	573	492	519	357	0	0	
5	0	0	0	0	572	490	519	353	0	0	
6	0	0	0	0	572	488	515	351	0	0	
7	0	0	0	0	571	485	511	349	0	0	
8	0	0	0	0	570	483	504	350	0	0	
9	0	0	0	0	568	480	497	352	0	0	
10	0	0	0	0	567	478	488	357	0	0	
11	0	0	0	0	566	476	480	365	0	0	
12	0	0	0	0	564	475	472	374	0	0	
13	0	0	0	0	565	476	466	385	0	0	
14	0	0	0	0	566	477	462	396	0	0	
15	0	0	0	0	567	479	460	408	0	0	
0	0	0	0	0	568	481	460	419	0	0	
1	0	0	0	0	571	485	463	427	0	0	
2	0	0	0	0	573	488	467	434	0	0	
3	0	0	0	0	575	491	473	439	0	0	
4	0	0	0	0	577	494	481	440	0	0	
5	0	0	0	0	579	495	488	440	0	0	
6	0	0	0	0	579	496	495	435	0	0	
7	0	0	0	0	580	496	501	429	0	0	
8	0	0	0	0	579	495	505	422	0	0	
9	0	0	0	0	577	494	508	412	0	0	
10	0	0	0	0	575	492	509	403	0	0	
11	0	0	0	0	573	489	508	395	0	0	
12	0	0	0	0	571	487	505	388	0	0	
13	0	0	0	0	569	484	502	384	0	0	
14	0	0	0	0	568	482	497	381	0	0	
15	0	0	0	0	566	480	492	381	0	0	
0	0	0	0	0	565	479	487	384	0	0	
1	0	0	0	0	564	479	483	387	0	0	
2	0	0	0	0	564	479	481	393	0	0	
3	0	0	0	0	565	480	480	399	0	0	
4	0	0	0	0	567	482	482	405	0	0	
5	0	0	0	0	568	484	486	411	0	0	
6	0	0	0	0	572	488	492	415	0	0	
7	0	0	0	0	574	491	499	418	0	0	
8	0	0	0	0	577	495	507	419	0	0	
9	0	0	0	0	579	498	515	419	0	0	
10	0	0	0	0	582	500	523	417	0	0	
11	0	0	0	0	583	502	530	413	0	0	
12	0	0	0	0	583	503	535	408	0	0	
13	0	0	0	0	583	502	537	403	0	0	
14	0	0	0	0	583	501	537	397	0	0	
15	0	0	0	0	580	498	533	391	0	0	
0	0	0	0	0	578	495	528	387	0	0	
1	0	0	0	0	575	491	521	383	0	0	
2	0	0	0	0	572	487	512	380	0	0	
3	0	0	0	0	568	484	502	378	0	0	
4	0	0	0	0	566	481	492	377	0	0	
5	0	0	0	0	563	479	484	378	0	0	
6	0	0	0	0	562	477	477	379	0	0	
7	0	0	0	0	561	476	472	380	0	0	
8	0	0	0	0	562	477	469	381	0	0	
9	0	0	0	0	562	477	468	381	0	0	
10	0	0	0	0	564	480	471	380	0	0	
11	0	0	0	0	566	481	475	379	0	0	
12	0	0	0	0	568	484	480	377	0	0	
13	0	0	0	0	569	486	487	374	0	0	
14	0	0	0	0	571	488	493	372	0	0	
15	0	0	0	0	573	490	499	369	0	0	
0	0	0	0	0	573	491	505	367	0	0	
1	0	0	0	0	573	491	509	366	0	0	
2	0	0	0	0	573	492	511	365	0	0	
3	0	0	0	0	572	491	511	366	0	0	
4	0	0	0	0	572	490	509	368	0	0	
5	0	0	0	0	570	489	505	371	0	0	
6	0	0	0	0	569	487	500	375	0	0	
7	0	0	0	0	567	486	494	379	0	0	
8	0	0	0	0	565	485	487	384	0	0	
9	0	0	0	0	564	485	482	389	0	0	
10	0	0	0	0	563	485	478	394	0	0	
11	0	0	0	0	561	485	474	398	0	0	
12	0	0	0	0	560	486	473	401	0	0	
13	0	0	0	0	559	487	473	404	0	0	
14	0	0	0	0	559	488	475	406	0	0	
15	0	0	0	0	559	489	479	407	0	0	
0	0	0	0	0	559	489	483	406	0	0	
1	0	0	0	0	559	490	487	405	0	0	
2	0	0	0	0	559	489	492	403	0	0	
3	0	0	0	0	560	488	496	401	0	0	
4	0	0	0	0	560	487	500	399	0	0	
5	0	0	0	0	560	486	501	396	0	0	
6	0	0	0	0	561	484	501	393	0	0	
7	0	0	0	0	561	482	500	391	0	0	
8	0	0	0	0	561	480	498	388	0	0	
9	0	0	0	0	562	478	495	385	0	0	
10	0	0	0	0	562	477	492	382	0	0	
11	0	0	0	0	562	476	488	378	0	0	
12	0	0	0	0	562	477	485	373	0	0	
13	0	0	0	0	562	477	482	367	0	0	
14	0	0	0	0	562	479	481	360	0	0	
15	0	0	0	0	562	480	480	352	0	0	
0	0	0	0	0	562	481	481	344	0	0	
1	0	0	0	0	562	483	482	335	0	0	
2	0	0	0	0	563	485	485	328	0	0	
3	0	0	0	0	563	487	488	321	0	0	
4	0	0	0	0	563	488	492	316	0	0	
5	0	0	0	0	564	490	496	313	0	0	
6	0	0	0	0	565	491	499	312	0	0	
7	0	0	0	0	565	491	502	313	0	0	
8	0	0	0	0	564	491	503	316	0	0	
9	0	0	0	0	563	489	502	319	0	0	
10	0	0	0	0	561	487	499	325	0	0	
11	0	0	0	0	558	485	495	332	0	0	
12	0	0	0	0	556	483	489	340	0	0	
13	0	0	0	0	552	480	482	349	0	0	
14	0	0	0	0	549	478	474	358	0	0	
15	0	0	0	0	545	476	466	368	0	0	
0	0	0	0	0	543	474	459	376	0	0	
1	0	0	0	0	540	474	454	384	0	0	
2	0	0	0	0	539	474	450	389	0	0	
3	0	0	0	0	537	475	448	391	0	0	
4	0	0	0	0	537	476	449	391	0	0	
5	0	0	0	0	537	477	452	387	0	0	
6	0	0	0	0	539	480	457	380	0	0	
7	0	0	0	0	542	483	464	371	0	0	
8	0	0	0	0	544	485	472	361	0	0	
9	0	0	0	0	547	487	481	349	0	0	
10	0	0	0	0	550	489	490	337	0	0	
11	0	0	0	0	553	491	498	327	0	0	
12	0	0	0	0	555	491	505	317	0	0	
13	0	0	0	0	556	491	509	311	0	0	
14	0	0	0	0	556	490	511	306	0	0	
15	0	0	0	0	556	488	510	305	0	0	
0	0	0	0	0	555	486	507	307	0	0	
1	0	0	0	0	553	483	501	312	0	0	
2	0	0	0	0	551	481	494	321	0	0	
3	0	0	0	0	547	479	486	331	0	0	
4	0	0	0	0	545	478	478	343	0	0	
5	0	0	0	0	544	478	471	356	0	0	
6	0	0	0	0	543	478	465	370	0	0	
7	0	0	0	0	542	479	460	383	0	0	
8	0	0	0	0	543	481	458	395	0	0	
9	0	0	0	0	543	483	457	404	0	0	
10	0	0	0	0	545	486	460	411	0	0	
11	0	0	0	0	547	489	463	415	0	0	
12	0	0	0	0	551	492	468	417	0	0	
13	0	0	0	0	553	494	475	415	0	0	
14	0	0	0	0	555	497	481	412	0	0	
15	0	0	0	0	557	499	487	408	0	0	
0	0	0	0	0	559	500	492	403	0	0	
1	0	0	0	0	560	500	495	398	0	0	
2	0	0	0	0	560	499	497	394	0	0	
3	0	0	0	0	559	498	496	391	0	0	
4	0	0	0	0	558	497	494	389	0	0	
5	0	0	0	0	556	494	491	389	0	0	
6	0	0	0	0	554	491	486	391	0	0	
7	0	0	0	0	551	489	481	395	0	0	
8	0	0	0	0	549	487	476	401	0	0	
9	0	0	0	0	548	486	472	409	0	0	
10	0	0	0	0	547	485	469	417	0	0	
11	0	0	0	0	547	485	467	426	0	0	
12	0	0	0	0	546	486	468	434	0	0	
13	0	0	0	0	547	487	470	441	0	0	
14	0	0	0	0	549	489	473	448	0	0	
15	0	0	0	0	550	491	478	452	0	0	
0	0	0	0	0	551	493	483	454	0	0	
1	0	0	0	0	552	494	489	455	0	0	
2	0	0	0	0	553	494	494	453	0	0	
3	0	0	0	0	554	494	497	451	0	0	
4	0	0	0	0	554	493	500	448	0	0	
5	0	0	0	0	553	492	501	445	0	0	
6	0	0	0	0	552	491	500	443	0	0	
7	0	0	0	0	551	488	497	440	0	0	
8	0	0	0	0	551	487	494	439	0	0	
9	0	0	0	0	548	484	489	438	0	0	
10	0	0	0	0	547	482	484	438	0	0	
11	0	0	0	0	545	480	478	436	0	0	
12	0	0	0	0	544	479	472	432	0	0	
13	0	0	0	0	543	479	467	427	0	0	
14	0	0	0	0	543	479	463	418	0	0	
15	0	0	0	0	543	480	461	407	0	0	
0	0	0	0	0	544	482	461	391	0	0	
1	0	0	0	0	545	484	463	373	0	0	
2	0	0	0	0	547	488	467	352	0	0	
3	0	0	0	0	549	491	473	329	0	0	
4	0	0	0	0	551	494	480	305	0	0	
5	0	0	0	0	552	496	488	280	0	0	
6	0	0	0	0	553	498	496	256	0	0	
7	0	0	0	0	554	499	502	233	0	0	
8	0	0	0	0	554	499	508	214	0	0	
9	0	0	0	0	553	498	511	197	0	0	
10	0	0	0	0	552	497	513	184	0	0	
11	0	0	0	0	551	495	513	176	0	0	
12	0	0	0	0	550	492	511	173	0	0	
13	0	0	0	0	548	490	508	174	0	0	
14	0	0	0	0	547	488	502	179	0	0	
15	0	0	0	0	546	486	495	186	0	0	
0	0	0	0	0	545	485	488	193	0	0	
1	0	0	0	0	544	484	481	201	0	0	
2	0	0	0	0	543	483	475	208	0	0	
3	0	0	0	0	543	483	469	213	0	0	
4	0	0	0	0	543	484	464	215	0	0	
5	0	0	0	0	543	485	462	212	0	0	
6	0	0	0	0	544	486	460	207	0	0	
7	0	0	0	0	545	487	462	198	0	0	
8	0	0	0	0	547	489	464	186	0	0	
9	0	0	0	0	548	490	469	173	0	0	
10	0	0	0	0	550	491	475	158	0	0	
11	0	0	0	0	552	492	480	142	0	0	
12	0	0	0	0	555	492	487	127	0	0	
13	0	0	0	0	556	491	492	112	0	0	
14	0	0	0	0	557	489	497	99	0	0	
15	0	0	0	0	557	487	499	87	0	0	
0	0	0	0	0	557	486	501	77	0	0	
1	0	0	0	0	557	484	500	70	0	0	
2	0	0	0	0	556	482	499	65	0	0	
3	0	0	0	0	554	481	496	63	0	0	
4	0	0	0	0	552	481	491	62	0	0	
5	0	0	0	0	551	482	486	63	0	0	
6	0	0	0	0	549	483	481	66	0	0	
7	0	0	0	0	548	486	477	68	0	0	
8	0	0	0	0	548	488	474	70	0	0	
9	0	0	0	0	548	491	472	69	0	0	
10	0	0	0	0	549	494	472	67	0	0	
11	0	0	0	0	550	497	473	63	0	0	
12	0	0	0	0	551	499	476	57	0	0	
13	0	0	0	0	552	501	479	49	0	0	
14	0	0	0	0	554	502	483	39	0	0	
15	0	0	0	0	555	503	487	28	0	0	
0	0	0	0	0	556	502	491	17	0	0	
1	0	0	0	0	555	500	493	6	0	0	
2	0	0	0	0	555	498	493	0	0	0	
3	0	0	0	0	554	495	491	0	0	0	
4	0	0	0	0	552	491	487	0	0	0	
5	0	0	0	0	550	487	482	0	0	0	
6	0	0	0	0	548	484	476	0	0	0	
7	0	0	0	0	546	482	469	0	0	0	
8	0	0	0	0	545	480	462	0	0	0	
9	0	0	0	0	544	481	457	3	0	0	
10	0	0	0	0	544	481	454	10	0	0	
11	0	0	0	0	545	483	453	21	0	0	
12	0	0	0	0	547	487	455	35	0	0	
13	0	0	0	0	549	491	459	51	0	0	
14	0	0	0	0	552	495	465	69	0	0	
15	0	0	0	0	555	499	474	87	0	0	
0	0	0	0	0	558	503	484	103	0	0	
1	0	0	0	0	560	506	494	115	0	0	
2	0	0	0	0	562	508	504	123	0	0	
3	0	0	0	0	563	509	512	127	0	0	
4	0	0	0	0	562	508	518	126	0	0	
5	0	0	0	0	561	507	521	121	0	0	
6	0	0	0	0	559	504	522	114	0	0	
7	0	0	0	0	556	501	519	106	0	0	
8	0	0	0	0	553	497	513	99	0	0	
9	0	0	0	0	549	493	505	95	0	0	
10	0	0	0	0	545	489	496	95	0	0	
11	0	0	0	0	542	486	487	100	0	0	
12	0	0	0	0	540	484	477	108	0	0	
13	0	0	0	0	539	483	469	121	0	0	
14	0	0	0	0	538	483	463	138	0	0	
15	0	0	0	0	539	484	459	158	0	0	
0	0	0	0	0	540	486	458	179	0	0	
1	0	0	0	0	542	488	460	200	0	0	
2	0	0	0	0	545	491	464	221	0	0	
3	0	0	0	0	549	494	471	240	0	0	
4	0	0	0	0	551	496	478	255	0	0	
5	0	0	0	0	554	498	486	268	0	0	
6	0	0	0	0	556	499	492	275	0	0	
7	0	0	0	0	557	499	499	280	0	0	
8	0	0	0	0	558	499	504	283	0	0	
9	0	0	0	0	558	499	506	284	0	0	
10	0	0	0	0	556	497	508	284	0	0	
11	0	0	0	0	556	496	507	284	0	0	
12	0	0	0	0	555	494	505	287	0	0	
13	0	0	0	0	553	493	502	291	0	0	
14	0	0	0	0	552	492	498	298	0	0	
15	0	0	0	0	551	491	494	307	0	0	
0	0	0	0	0	551	491	489	316	0	0	
1	0	0	0	0	551	491	486	328	0	0	
2	0	0	0	0	551	492	484	339	0	0	
3	0	0	0	0	552	492	483	350	0	0	
4	0	0	0	0	553	494	483	358	0	0	
5	0	0	0	0	553	494	484	365	0	0	
6	0	0	0	0	554	495	487	369	0	0	
7	0	0	0	0	555	495	491	371	0	0	
8	0	0	0	0	556	495	496	371	0	0	
9	0	0	0	0	556	495	501	371	0	0	
10	0	0	0	0	556	494	506	368	0	0	
11	0	0	0	0	557	494	511	368	0	0	
12	0	0	0	0	558	493	516	367	0	0	
13	0	0	0	0	558	492	519	368	0	0	
14	0	0	0	0	558	491	521	369	0	0	
15	0	0	0	0	558	490	522	371	0	0	
0	0	0	0	0	558	489	521	374	0	0	
1	0	0	0	0	558	489	519	378	0	0	
2	0	0	0	0	557	488	515	382	0	0	
3	0	0	0	0	556	488	511	385	0	0	
4	0	0	0	0	556	489	507	389	0	0	
5	0	0	0	0	556	491	503	391	0	0	
6	0	0	0	0	556	492	500	391	0	0	
7	0	0	0	0	555	495	498	391	0	0	
8	0	0	0	0	555	498	497	387	0	0	
9	0	0	0	0	555	501	497	382	0	0	
10	0	0	0	0	555	504	499	375	0	0	
11	0	0	0	0	556	507	503	367	0	0	
12	0	0	0	0	556	509	507	358	0	0	
13	0	0	0	0	556	511	511	348	0	0	
14	0	0	0	0	557	512	515	337	0	0	
15	0	0	0	0	558	512	519	327	0	0	
0	0	0	0	0	558	511	522	319	0	0	
1	0	0	0	0	558	510	524	311	0	0	
2	0	0	0	0	558	508	525	305	0	0	
3	0	0	0	0	558	506	524	301	0	0	
4	0	0	0	0	558	504	522	300	0	0	
5	0	0	0	0	557	502	519	301	0	0	
6	0	0	0	0	557	500	513	304	0	0	
7	0	0	0	0	556	498	507	308	0	0	
8	0	0	0	0	555	497	500	315	0	0	
9	0	0	0	0	554	496	494	322	0	0	
10	0	0	0	0	553	495	487	330	0	0	
11	0	0	0	0	552	495	481	338	0	0	
12	0	0	0	0	552	496	476	346	0	0	
13	0	0	0	0	552	497	473	353	0	0	
14	0	0	0	0	553	499	473	361	0	0	
15	0	0	0	0	554	501	475	367	0	0	
0	0	0	0	0	555	503	478	371	0	0	
1	0	0	0	0	556	504	482	375	0	0	
2	0	0	0	0	557	504	487	376	0	0	
3	0	0	0	0	558	504	493	377	0	0	
4	0	0	0	0	559	504	498	377	0	0	
5	0	0	0	0	560	503	503	377	0	0	
6	0	0	0	0	561	502	507	377	0	0	
7	0	0	0	0	563	499	510	378	0	0	
8	0	0	0	0	564	498	511	381	0	0	
9	0	0	0	0	565	496	511	385	0	0	
10	0	0	0	0	565	494	511	391	0	0	
11	0	0	0	0	565	492	509	398	0	0	
12	0	0	0	0	565	491	506	405	0	0	
13	0	0	0	0	564	489	504	414	0	0	
14	0	0	0	0	564	489	501	423	0	0	
15	0	0	0	0	563	489	498	431	0	0	
0	0	0	0	0	561	489	496	438	0	0	
1	0	0	0	0	560	489	495	443	0	0	
2	0	0	0	0	558	489	493	446	0	0	
3	0	0	0	0	554	487	491	446	0	0	
4	0	0	0	0	549	485	488	442	0	0	
5	0	0	0	0	544	481	484	436	0	0	
6	0	0	0	0	537	475	478	428	0	0	
7	0	0	0	0	530	469	471	417	0	0	
8	0	0	0	0	521	460	461	406	0	0	
9	0	0	0	0	511	451	449	393	0	0	
10	0	0	0	0	501	441	435	382	0	0	
11	0	0	0	0	490	430	419	371	0	0	
12	0	0	0	0	479	418	401	363	0	0	
13	0	0	0	0	467	406	383	356	0	0	
14	0	0	0	0	456	394	364	353	0	0	
15	0	0	0	0	446	383	345	352	0	0	
0	0	0	0	0	437	373	327	353	0	0	
1	0	0	0	0	430	364	312	357	0	0	
2	0	0	0	0	424	357	300	363	0	0	
3	0	0	0	0	419	352	290	368	0	0	
4	0	0	0	0	417	349	285	375	0	0	
5	0	0	0	0	417	348	284	380	0	0	
6	0	0	0	0	420	350	288	386	0	0	
7	0	0	0	0	423	353	296	390	0	0	
8	0	0	0	0	430	359	309	394	0	0	
9	0	0	0	0	437	365	325	397	0	0	
10	0	0	0	0	446	374	344	401	0	0	
11	0	0	0	0	456	384	367	406	0	0	
12	0	0	0	0	468	395	391	412	0	0	
13	0	0	0	0	481	408	416	420	0	0	
14	0	0	0	0	495	421	443	432	0	0	
15	0	0	0	0	510	435	469	445	0	0	
0	0	0	0	0	525	450	495	462	0	0	
1	0	0	0	0	540	464	519	481	0	0	
2	0	0	0	0	556	479	541	503	0	0	
3	0	0	0	0	570	493	561	525	0	0	
4	0	0	0	0	583	505	577	548	0	0	
5	0	0	0	0	596	518	591	570	0	0	
6	0	0	0	0	606	527	600	590	0	0	
7	0	0	0	0	614	536	607	607	0	0	
8	0	0	0	0	620	543	610	620	0	0	
9	0	0	0	0	625	548	610	630	0	0	
10	0	0	0	0	628	552	608	635	0	0	
11	0	0	0	0	629	555	604	635	0	0	
12	0	0	0	0	628	557	598	630	0	0	
13	0	0	0	0	627	557	590	622	0	0	
14	0	0	0	0	625	556	581	609	0	0	
15	0	0	0	0	622	555	571	594	0	0	
0	0	0	0	0	619	552	560	577	0	0	
1	0	0	0	0	614	549	549	560	0	0	
2	0	0	0	0	611	545	537	542	0	0	
3	0	0	0	0	606	540	526	524	0	0	
4	0	0	0	0	602	535	515	509	0	0	
5	0	0	0	0	598	529	504	496	0	0	
6	0	0	0	0	595	524	495	484	0	0	
7	0	0	0	0	592	519	487	476	0	0	
8	0	0	0	0	590	515	482	470	0	0	
9	0	0	0	0	590	512	480	469	0	0	
10	0	0	0	0	589	511	479	470	0	0	
11	0	0	0	0	590	510	481	473	0	0	
12	0	0	0	0	591	511	486	478	0	0	
13	0	0	0	0	593	512	492	484	0	0	
14	0	0	0	0	595	515	500	492	0	0	
15	0	0	0	0	596	517	508	498	0	0	
0	0	0	0	0	597	519	516	504	0	0	
1	0	0	0	0	598	520	524	510	0	0	
2	0	0	0	0	597	521	529	514	0	0	
3	0	0	0	0	595	521	534	517	0	0	
4	0	0	0	0	593	520	536	519	0	0	
5	0	0	0	0	590	519	536	519	0	0	
6	0	0	0	0	587	516	533	519	0	0	
7	0	0	0	0	583	513	530	519	0	0	
8	0	0	0	0	581	510	524	519	0	0	
9	0	0	0	0	577	507	517	519	0	0	
10	0	0	0	0	575	503	509	519	0	0	
11	0	0	0	0	572	501	502	520	0	0	
12	0	0	0	0	571	499	494	522	0	0	
13	0	0	0	0	569	498	488	524	0	0	
14	0	0	0	0	569	498	485	525	0	0	
15	0	0	0	0	569	498	483	527	0	0	
0	0	0	0	0	569	500	483	528	0	0	
1	0	0	0	0	570	501	485	527	0	0	
2	0	0	0	0	571	503	489	527	0	0	
3	0	0	0	0	571	504	495	525	0	0	
4	0	0	0	0	572	505	501	521	0	0	
5	0	0	0	0	572	507	507	517	0	0	
6	0	0	0	0	572	507	513	511	0	0	
7	0	0	0	0	572	507	518	505	0	0	
8	0	0	0	0	573	507	522	499	0	0	
9	0	0	0	0	572	505	523	492	0	0	
10	0	0	0	0	571	503	524	487	0	0	
11	0	0	0	0	570	501	521	483	0	0	
12	0	0	0	0	569	498	517	480	0	0	
13	0	0	0	0	567	495	512	479	0	0	
14	0	0	0	0	565	492	505	479	0	0	
15	0	0	0	0	563	489	498	479	0	0	
0	0	0	0	0	562	487	491	481	0	0	
1	0	0	0	0	560	485	484	483	0	0	
2	0	0	0	0	560	485	480	486	0	0	
3	0	0	0	0	560	485	477	487	0	0	
4	0	0	0	0	561	487	478	489	0	0	
5	0	0	0	0	564	490	480	489	0	0	
6	0	0	0	0	568	494	485	489	0	0	
7	0	0	0	0	571	499	492	486	0	0	
8	0	0	0	0	576	504	502	483	0	0	
9	0	0	0	0	580	508	511	479	0	0	
10	0	0	0	0	585	512	520	473	0	0	
11	0	0	0	0	588	516	528	467	0	0	
12	0	0	0	0	591	518	535	462	0	0	
13	0	0	0	0	593	519	539	457	0	0	
14	0	0	0	0	594	519	541	454	0	0	
15	0	0	0	0	594	518	540	451	0	0	
0	0	0	0	0	593	516	537	451	0	0	
1	0	0	0	0	590	512	531	454	0	0	
2	0	0	0	0	587	509	523	457	0	0	
3	0	0	0	0	583	505	514	462	0	0	
4	0	0	0	0	579	502	503	467	0	0	
5	0	0	0	0	576	500	493	472	0	0	
6	0	0	0	0	573	499	484	478	0	0	
7	0	0	0	0	570	498	477	482	0	0	
8	0	0	0	0	568	498	472	486	0	0	
9	0	0	0	0	568	499	471	487	0	0	
10	0	0	0	0	568	500	472	487	0	0	
11	0	0	0	0	569	502	477	484	0	0	
12	0	0	0	0	571	504	483	480	0	0	
13	0	0	0	0	573	506	492	474	0	0	
14	0	0	0	0	575	507	502	466	0	0	
15	0	0	0	0	578	509	512	457	0	0	
0	0	0	0	0	580	509	521	449	0	0	
1	0	0	0	0	583	509	529	441	0	0	
2	0	0	0	0	583	509	534	434	0	0	
3	0	0	0	0	584	508	536	428	0	0	
4	0	0	0	0	585	506	536	424	0	0	
5	0	0	0	0	584	504	532	423	0	0	
6	0	0	0	0	583	501	527	424	0	0	
7	0	0	0	0	580	499	519	427	0	0	
8	0	0	0	0	579	497	510	432	0	0	
9	0	0	0	0	577	497	501	440	0	0	
10	0	0	0	0	575	496	492	449	0	0	
11	0	0	0	0	574	497	486	460	0	0	
12	0	0	0	0	573	498	481	471	0	0	
13	0	0	0	0	573	501	479	481	0	0	
14	0	0	0	0	574	504	479	490	0	0	
15	0	0	0	0	574	507	481	497	0	0	
0	0	0	0	0	575	510	485	502	0	0	
1	0	0	0	0	577	512	491	506	0	0	
2	0	0	0	0	578	514	497	508	0	0	
3	0	0	0	0	579	516	504	511	0	0	
4	0	0	0	0	580	516	510	512	0	0	
5	0	0	0	0	580	515	515	514	0	0	
6	0	0	0	0	580	514	519	517	0	0	
7	0	0	0	0	580	512	520	521	0	0	
8	0	0	0	0	578	510	519	527	0	0	
9	0	0	0	0	576	507	517	536	0	0	
10	0	0	0	0	573	504	513	544	0	0	
11	0	0	0	0	570	501	507	555	0	0	
12	0	0	0	0	568	499	500	565	0	0	
13	0	0	0	0	566	497	493	577	0	0	
14	0	0	0	0	565	496	487	588	0	0	
15	0	0	0	0	564	497	481	598	0	0	
0	0	0	0	0	565	498	479	607	0	0	
1	0	0	0	0	567	500	478	614	0	0	
2	0	0	0	0	569	503	479	620	0	0	
3	0	0	0	0	572	505	483	622	0	0	
4	0	0	0	0	575	508	488	623	0	0	
5	0	0	0	0	576	510	494	621	0	0	
6	0	0	0	0	578	511	500	616	0	0	
7	0	0	0	0	579	511	506	611	0	0	
8	0	0	0	0	578	510	510	604	0	0	
9	0	0	0	0	577	508	513	598	0	0	
10	0	0	0	0	574	505	513	590	0	0	
11	0	0	0	0	571	500	511	584	0	0	
12	0	0	0	0	566	496	508	580	0	0	
13	0	0	0	0	561	491	502	578	0	0	
14	0	0	0	0	557	486	495	577	0	0	
15	0	0	0	0	552	481	487	578	0	0	
0	0	0	0	0	549	477	480	582	0	0	
1	0	0	0	0	546	475	473	587	0	0	
2	0	0	0	0	545	473	467	593	0	0	
3	0	0	0	0	544	472	464	600	0	0	
4	0	0	0	0	546	473	462	607	0	0	
5	0	0	0	0	548	475	463	613	0	0	
6	0	0	0	0	551	478	465	618	0	0	
7	0	0	0	0	555	480	469	622	0	0	
8	0	0	0	0	559	483	474	624	0	0	
9	0	0	0	0	562	485	479	623	0	0	
10	0	0	0	0	565	487	484	621	0	0	
11	0	0	0	0	568	489	488	618	0	0	
12	0	0	0	0	570	489	492	614	0	0	
13	0	0	0	0	571	489	493	610	0	0	
14	0	0	0	0	571	488	493	606	0	0	
15	0	0	0	0	569	486	491	601	0	0	
0	0	0	0	0	567	484	487	599	0	0	
1	0	0	0	0	563	480	480	598	0	0	
2	0	0	0	0	559	476	473	598	0	0	
3	0	0	0	0	554	472	465	600	0	0	
4	0	0	0	0	550	469	457	602	0	0	
5	0	0	0	0	546	466	451	606	0	0	
6	0	0	0	0	543	464	445	609	0	0	
7	0	0	0	0	540	463	441	613	0	0	
8	0	0	0	0	539	462	440	616	0	0	
9	0	0	0	0	540	464	441	617	0	0	
10	0	0	0	0	542	466	444	619	0	0	
11	0	0	0	0	544	468	451	617	0	0	
12	0	0	0	0	547	471	459	615	0	0	
13	0	0	0	0	550	474	467	610	0	0	
14	0	0	0	0	554	476	477	604	0	0	
15	0	0	0	0	557	479	486	598	0	0	
0	0	0	0	0	559	480	494	592	0	0	
1	0	0	0	0	560	481	500	586	0	0	
2	0	0	0	0	560	480	504	581	0	0	
3	0	0	0	0	560	480	505	577	0	0	
4	0	0	0	0	559	478	504	576	0	0	
5	0	0	0	0	557	476	499	577	0	0	
6	0	0	0	0	554	473	494	579	0	0	
7	0	0	0	0	551	471	486	583	0	0	
8	0	0	0	0	548	468	477	588	0	0	
9	0	0	0	0	545	467	469	595	0	0	
10	0	0	0	0	543	466	462	601	0	0	
11	0	0	0	0	541	465	455	608	0	0	
12	0	0	0	0	540	466	451	614	0	0	
13	0	0	0	0	540	468	448	619	0	0	
14	0	0	0	0	541	470	449	623	0	0	
15	0	0	0	0	542	472	452	625	0	0	
0	0	0	0	0	543	473	456	624	0	0	
1	0	0	0	0	543	474	462	623	0	0	
2	0	0	0	0	545	475	469	619	0	0	
3	0	0	0	0	545	475	475	614	0	0	
4	0	0	0	0	545	474	481	609	0	0	
5	0	0	0	0	545	472	486	604	0	0	
6	0	0	0	0	545	470	489	600	0	0	
7	0	0	0	0	544	467	491	596	0	0	
8	0	0	0	0	543	464	490	595	0	0	
9	0	0	0	0	542	461	488	595	0	0	
10	0	0	0	0	542	459	485	597	0	0	
11	0	0	0	0	542	456	481	601	0	0	
12	0	0	0	0	542	455	476	606	0	0	
13	0	0	0	0	543	455	472	612	0	0	
14	0	0	0	0	543	455	468	618	0	0	
15	0	0	0	0	545	456	465	624	0	0	
0	0	0	0	0	546	458	464	628	0	0	
1	0	0	0	0	548	461	465	631	0	0	
2	0	0	0	0	550	464	467	633	0	0	
3	0	0	0	0	552	468	471	632	0	0	
4	0	0	0	0	553	471	476	630	0	0	
5	0	0	0	0	555	475	481	627	0	0	
6	0	0	0	0	557	478	486	622	0	0	
7	0	0	0	0	558	479	492	616	0	0	
8	0	0	0	0	559	480	496	610	0	0	
9	0	0	0	0	560	480	497	604	0	0	
10	0	0	0	0	559	479	499	600	0	0	
11	0	0	0	0	559	477	497	595	0	0	
12	0	0	0	0	558	475	495	594	0	0	
13	0	0	0	0	556	472	490	594	0	0	
14	0	0	0	0	554	469	485	595	0	0	
15	0	0	0	0	552	467	479	598	0	0	
0	0	0	0	0	551	465	472	602	0	0	
1	0	0	0	0	549	464	467	608	0	0	
2	0	0	0	0	548	464	462	613	0	0	
3	0	0	0	0	547	465	459	617	0	0	
4	0	0	0	0	547	466	457	621	0	0	
5	0	0	0	0	547	468	457	623	0	0	
6	0	0	0	0	547	472	459	624	0	0	
7	0	0	0	0	548	474	461	622	0	0	
8	0	0	0	0	549	477	465	620	0	0	
9	0	0	0	0	550	480	471	615	0	0	
10	0	0	0	0	551	483	476	609	0	0	
11	0	0	0	0	553	486	482	604	0	0	
12	0	0	0	0	555	488	487	598	0	0	
13	0	0	0	0	556	489	492	593	0	0	
14	0	0	0	0	558	490	495	591	0	0	
15	0	0	0	0	559	491	496	588	0	0	
0	0	0	0	0	560	491	496	588	0	0	
1	0	0	0	0	560	489	496	590	0	0	
2	0	0	0	0	561	488	494	593	0	0	
3	0	0	0	0	561	487	491	598	0	0	
4	0	0	0	0	561	486	488	602	0	0	
5	0	0	0	0	562	486	485	607	0	0	
6	0	0	0	0	563	485	483	612	0	0	
7	0	0	0	0	564	486	482	616	0	0	
8	0	0	0	0	565	486	482	619	0	0	
9	0	0	0	0	566	488	483	620	0	0	
10	0	0	0	0	568	491	487	620	0	0	
11	0	0	0	0	570	494	492	619	0	0	
12	0	0	0	0	572	497	499	616	0	0	
13	0	0	0	0	574	500	507	612	0	0	
14	0	0	0	0	576	504	515	607	0	0	
15	0	0	0	0	577	506	522	602	0	0	
0	0	0	0	0	579	509	529	597	0	0	
1	0	0	0	0	579	511	535	593	0	0	
2	0	0	0	0	579	511	539	591	0	0	
3	0	0	0	0	579	511	540	589	0	0	
4	0	0	0	0	579	511	540	590	0	0	
5	0	0	0	0	577	510	537	592	0	0	
6	0	0	0	0	576	508	532	597	0	0	
7	0	0	0	0	575	507	526	603	0	0	
8	0	0	0	0	574	506	519	609	0	0	
9	0	0	0	0	573	505	512	616	0	0	
10	0	0	0	0	572	504	505	623	0	0	
11	0	0	0	0	571	503	499	628	0	0	
12	0	0	0	0	571	504	496	633	0	0	
13	0	0	0	0	572	505	494	635	0	0	
14	0	0	0	0	574	507	494	636	0	0	
15	0	0	0	0	576	509	496	634	0	0	
0	0	0	0	0	578	511	500	630	0	0	
1	0	0	0	0	581	513	506	624	0	0	
2	0	0	0	0	584	516	513	616	0	0	
3	0	0	0	0	588	518	520	609	0	0	
4	0	0	0	0	591	519	528	602	0	0	
5	0	0	0	0	593	519	534	595	0	0	
6	0	0	0	0	595	519	540	590	0	0	
7	0	0	0	0	598	519	543	585	0	0	
8	0	0	0	0	599	518	545	584	0	0	
9	0	0	0	0	600	517	546	584	0	0	
10	0	0	0	0	600	515	544	587	0	0	
11	0	0	0	0	598	514	541	591	0	0	
12	0	0	0	0	596	513	537	596	0	0	
13	0	0	0	0	595	513	532	603	0	0	
14	0	0	0	0	593	512	527	610	0	0	
15	0	0	0	0	591	512	524	616	0	0	
0	0	0	0	0	589	513	521	622	0	0	
1	0	0	0	0	587	514	519	627	0	0	
2	0	0	0	0	586	515	519	629	0	0	
3	0	0	0	0	585	516	520	630	0	0	
4	0	0	0	0	584	517	522	627	0	0	
5	0	0	0	0	584	518	524	624	0	0	
6	0	0	0	0	584	519	527	618	0	0	
7	0	0	0	0	585	519	529	611	0	0	
8	0	0	0	0	585	519	532	604	0	0	
9	0	0	0	0	586	519	533	598	0	0	
10	0	0	0	0	586	518	533	591	0	0	
11	0	0	0	0	586	517	532	587	0	0	
12	0	0	0	0	586	515	530	584	0	0	
13	0	0	0	0	585	514	527	583	0	0	
14	0	0	0	0	584	512	523	584	0	0	
15	0	0	0	0	583	511	518	588	0	0	
0	0	0	0	0	581	509	513	592	0	0	
1	0	0	0	0	580	509	510	597	0	0	
2	0	0	0	0	579	509	507	603	0	0	
3	0	0	0	0	577	510	505	608	0	0	
4	0	0	0	0	577	512	504	612	0	0	
5	0	0	0	0	577	515	506	615	0	0	
6	0	0	0	0	578	519	509	615	0	0	
7	0	0	0	0	579	522	514	615	0	0	
8	0	0	0	0	580	526	519	611	0	0	
9	0	0	0	0	581	530	526	607	0	0	
10	0	0	0	0	582	533	532	602	0	0	
11	0	0	0	0	583	536	538	595	0	0	
12	0	0	0	0	585	538	544	590	0	0	
13	0	0	0	0	587	539	549	585	0	0	
14	0	0	0	0	588	540	552	582	0	0	
15	0	0	0	0	590	539	553	580	0	0	
0	0	0	0	0	592	538	553	580	0	0	
1	0	0	0	0	594	536	551	583	0	0	
2	0	0	0	0	596	534	547	587	0	0	
3	0	0	0	0	597	532	543	593	0	0	
4	0	0	0	0	599	529	537	601	0	0	
5	0	0	0	0	600	528	532	609	0	0	
6	0	0	0	0	600	527	527	617	0	0	
7	0	0	0	0	601	527	524	625	0	0	
8	0	0	0	0	601	527	522	630	0	0	
9	0	0	0	0	602	528	521	634	0	0	
10	0	0	0	0	603	529	522	636	0	0	
11	0	0	0	0	603	531	524	635	0	0	
12	0	0	0	0	604	532	527	631	0	0	
13	0	0	0	0	605	534	532	625	0	0	
14	0	0	0	0	606	534	536	618	0	0	
15	0	0	0	0	607	535	540	609	0	0	
0	0	0	0	0	607	534	544	600	0	0	
1	0	0	0	0	607	533	546	591	0	0	
2	0	0	0	0	606	531	547	583	0	0	
3	0	0	0	0	606	530	547	577	0	0	
4	0	0	0	0	605	529	546	574	0	0	
5	0	0	0	0	604	527	543	572	0	0	
6	0	0	0	0	604	527	540	574	0	0	
7	0	0	0	0	604	527	537	579	0	0	
8	0	0	0	0	604	527	534	584	0	0	
9	0	0	0	0	605	529	531	592	0	0	
10	0	0	0	0	606	530	529	599	0	0	
11	0	0	0	0	607	531	527	606	0	0	
12	0	0	0	0	607	533	528	611	0	0	
13	0	0	0	0	608	534	528	614	0	0	
14	0	0	0	0	607	536	529	615	0	0	
15	0	0	0	0	607	536	531	612	0	0	
0	0	0	0	0	605	536	532	607	0	0	
1	0	0	0	0	604	536	534	599	0	0	
2	0	0	0	0	602	535	535	590	0	0	
3	0	0	0	0	600	534	535	580	0	0	
4	0	0	0	0	598	531	534	569	0	0	
5	0	0	0	0	596	528	533	560	0	0	
6	0	0	0	0	594	525	531	552	0	0	
7	0	0	0	0	593	522	527	546	0	0	
8	0	0	0	0	591	519	524	543	0	0	
9	0	0	0	0	590	515	519	542	0	0	
10	0	0	0	0	589	512	515	543	0	0	
11	0	0	0	0	588	509	511	548	0	0	
12	0	0	0	0	588	507	506	552	0	0	
13	0	0	0	0	588	506	502	560	0	0	
14	0	0	0	0	587	505	499	568	0	0	
15	0	0	0	0	587	506	498	575	0	0	
0	0	0	0	0	588	508	498	583	0	0	
1	0	0	0	0	589	511	500	589	0	0	
2	0	0	0	0	590	514	504	594	0	0	
3	0	0	0	0	592	518	510	598	0	0	
4	0	0	0	0	593	521	517	600	0	0	
5	0	0	0	0	595	524	524	599	0	0	
6	0	0	0	0	596	525	531	596	0	0	
7	0	0	0	0	597	526	538	592	0	0	
8	0	0	0	0	597	525	543	588	0	0	
9	0	0	0	0	596	524	547	583	0	0	
10	0	0	0	0	595	521	548	578	0	0	
11	0	0	0	0	594	518	547	575	0	0	
12	0	0	0	0	592	515	543	572	0	0	
13	0	0	0	0	590	512	538	572	0	0	
14	0	0	0	0	588	508	531	573	0	0	
15	0	0	0	0	585	505	523	576	0	0	
0	0	0	0	0	583	502	515	580	0	0	
1	0	0	0	0	582	500	508	585	0	0	
2	0	0	0	0	580	498	500	589	0	0	
3	0	0	0	0	579	497	495	593	0	0	
4	0	0	0	0	579	498	491	596	0	0	
5	0	0	0	0	580	499	488	599	0	0	
6	0	0	0	0	582	502	489	600	0	0	
7	0	0	0	0	583	504	491	599	0	0	
8	0	0	0	0	586	508	496	597	0	0	
9	0	0	0	0	589	512	502	594	0	0	
10	0	0	0	0	592	516	509	591	0	0	
11	0	0	0	0	595	519	516	587	0	0	
12	0	0	0	0	599	523	524	584	0	0	
13	0	0	0	0	601	525	530	582	0	0	
14	0	0	0	0	604	526	536	581	0	0	
15	0	0	0	0	606	527	539	581	0	0	
0	0	0	0	0	607	528	540	583	0	0	
1	0	0	0	0	607	527	540	588	0	0	
2	0	0	0	0	606	526	537	593	0	0	
3	0	0	0	0	604	524	531	599	0	0	
4	0	0	0	0	601	521	525	607	0	0	
5	0	0	0	0	598	518	517	615	0	0	
6	0	0	0	0	595	515	509	624	0	0	
7	0	0	0	0	591	512	502	632	0	0	
8	0	0	0	0	588	510	496	639	0	0	
9	0	0	0	0	584	508	491	645	0	0	
10	0	0	0	0	583	508	489	648	0	0	
11	0	0	0	0	582	508	489	651	0	0	
12	0	0	0	0	582	509	492	650	0	0	
13	0	0	0	0	582	510	496	648	0	0	
14	0	0	0	0	583	511	502	644	0	0	
15	0	0	0	0	585	513	509	640	0	0	
0	0	0	0	0	587	514	515	635	0	0	
1	0	0	0	0	588	515	521	631	0	0	
2	0	0	0	0	589	515	527	627	0	0	
3	0	0	0	0	591	516	530	625	0	0	
4	0	0	0	0	591	516	534	625	0	0	
5	0	0	0	0	592	517	535	627	0	0	
6	0	0	0	0	592	516	535	632	0	0	
7	0	0	0	0	592	517	535	639	0	0	
8	0	0	0	0	591	517	533	646	0	0	
9	0	0	0	0	591	518	531	655	0	0	
10	0	0	0	0	590	519	529	664	0	0	
11	0	0	0	0	588	519	527	671	0	0	
12	0	0	0	0	588	519	525	678	0	0	
13	0	0	0	0	587	521	523	681	0	0	
14	0	0	0	0	587	523	521	683	0	0	
15	0	0	0	0	587	524	520	682	0	0	
0	0	0	0	0	587	524	519	679	0	0	
1	0	0	0	0	587	524	518	672	0	0	
2	0	0	0	0	588	525	518	664	0	0	
3	0	0	0	0	588	524	516	655	0	0	
4	0	0	0	0	588	523	515	646	0	0	
5	0	0	0	0	588	522	514	637	0	0	
6	0	0	0	0	588	520	513	630	0	0	
7	0	0	0	0	588	519	511	625	0	0	
8	0	0	0	0	588	517	509	623	0	0	
9	0	0	0	0	587	515	507	624	0	0	
10	0	0	0	0	586	513	505	627	0	0	
11	0	0	0	0	585	512	504	633	0	0	
12	0	0	0	0	584	511	502	640	0	0	
13	0	0	0	0	583	512	500	650	0	0	
14	0	0	0	0	583	512	499	659	0	0	
15	0	0	0	0	583	513	499	668	0	0	
0	0	0	0	0	583	515	499	675	0	0	
1	0	0	0	0	583	517	500	681	0	0	
2	0	0	0	0	584	519	502	685	0	0	
3	0	0	0	0	584	521	504	685	0	0	
4	0	0	0	0	584	523	507	682	0	0	
5	0	0	0	0	585	524	509	677	0	0	
6	0	0	0	0	585	524	511	670	0	0	
7	0	0	0	0	585	524	512	661	0	0	
8	0	0	0	0	584	524	514	652	0	0	
9	0	0	0	0	583	523	514	643	0	0	
10	0	0	0	0	582	521	514	635	0	0	
11	0	0	0	0	580	519	513	629	0	0	
12	0	0	0	0	579	518	511	626	0	0	
13	0	0	0	0	577	516	509	625	0	0	
14	0	0	0	0	575	515	507	626	0	0	
15	0	0	0	0	573	513	504	630	0	0	
0	0	0	0	0	572	512	500	635	0	0	
1	0	0	0	0	571	511	498	642	0	0	
2	0	0	0	0	571	511	496	649	0	0	
3	0	0	0	0	571	510	495	655	0	0	
4	0	0	0	0	571	510	494	660	0	0	
5	0	0	0	0	572	510	495	664	0	0	
6	0	0	0	0	574	511	496	665	0	0	
7	0	0	0	0	575	512	499	665	0	0	
8	0	0	0	0	578	513	502	662	0	0	
9	0	0	0	0	579	513	505	657	0	0	
10	0	0	0	0	582	513	508	651	0	0	
11	0	0	0	0	583	513	511	643	0	0	
12	0	0	0	0	584	511	512	636	0	0	
13	0	0	0	0	583	509	512	628	0	0	
14	0	0	0	0	583	506	511	622	0	0	
15	0	0	0	0	581	503	508	616	0	0	
0	0	0	0	0	579	499	503	612	0	0	
1	0	0	0	0	577	495	498	611	0	0	
2	0	0	0	0	574	492	491	611	0	0	
3	0	0	0	0	571	488	484	613	0	0	
4	0	0	0	0	569	486	477	617	0	0	
5	0	0	0	0	567	485	472	622	0	0	
6	0	0	0	0	566	484	467	628	0	0	
7	0	0	0	0	566	486	463	634	0	0	
8	0	0	0	0	566	487	462	639	0	0	
9	0	0	0	0	567	490	462	644	0	0	
10	0	0	0	0	569	494	465	647	0	0	
11	0	0	0	0	571	497	471	649	0	0	
12	0	0	0	0	574	502	477	650	0	0	
13	0	0	0	0	576	505	484	648	0	0	
14	0	0	0	0	579	508	492	645	0	0	
15	0	0	0	0	581	510	499	641	0	0	
0	0	0	0	0	582	510	504	636	0	0	
1	0	0	0	0	583	510	507	630	0	0	
2	0	0	0	0	583	508	508	625	0	0	
3	0	0	0	0	583	507	508	621	0	0	
4	0	0	0	0	582	506	505	619	0	0	
5	0	0	0	0	582	504	501	619	0	0	
6	0	0	0	0	580	503	496	621	0	0	
7	0	0	0	0	579	502	490	624	0	0	
8	0	0	0	0	578	501	484	628	0	0	
9	0	0	0	0	577	501	480	633	0	0	
10	0	0	0	0	576	502	476	638	0	0	
11	0	0	0	0	575	502	474	643	0	0	
12	0	0	0	0	574	504	474	646	0	0	
13	0	0	0	0	575	506	476	647	0	0	
14	0	0	0	0	575	508	481	649	0	0	
15	0	0	0	0	576	511	487	647	0	0	
0	0	0	0	0	577	514	496	644	0	0	
1	0	0	0	0	579	516	504	639	0	0	
2	0	0	0	0	581	519	513	633	0	0	
3	0	0	0	0	583	521	521	627	0	0	
4	0	0	0	0	584	521	528	619	0	0	
5	0	0	0	0	586	520	533	613	0	0	
6	0	0	0	0	587	519	536	608	0	0	
7	0	0	0	0	587	518	536	604	0	0	
8	0	0	0	0	587	515	533	603	0	0	
9	0	0	0	0	587	512	528	604	0	0	
10	0	0	0	0	586	510	522	607	0	0	
11	0	0	0	0	584	507	513	611	0	0	
12	0	0	0	0	583	505	505	617	0	0	
13	0	0	0	0	582	504	497	624	0	0	
14	0	0	0	0	581	504	489	631	0	0	
15	0	0	0	0	580	505	483	637	0	0	
0	0	0	0	0	580	507	480	640	0	0	
1	0	0	0	0	580	509	478	642	0	0	
2	0	0	0	0	581	512	479	641	0	0	
3	0	0	0	0	582	515	481	636	0	0	
4	0	0	0	0	583	516	486	629	0	0	
5	0	0	0	0	584	518	490	620	0	0	
6	0	0	0	0	585	519	495	608	0	0	
7	0	0	0	0	586	518	500	597	0	0	
8	0	0	0	0	587	518	504	585	0	0	
9	0	0	0	0	587	516	506	574	0	0	
10	0	0	0	0	587	513	506	565	0	0	
11	0	0	0	0	586	510	505	557	0	0	
12	0	0	0	0	584	507	502	552	0	0	
13	0	0	0	0	583	504	498	549	0	0	
14	0	0	0	0	581	500	492	548	0	0	
15	0	0	0	0	579	498	487	550	0	0	
0	0	0	0	0	578	496	481	554	0	0	
1	0	0	0	0	577	495	477	560	0	0	
2	0	0	0	0	577	495	474	567	0	0	
3	0	0	0	0	578	496	473	573	0	0	
4	0	0	0	0	579	497	474	580	0	0	
5	0	0	0	0	580	499	478	585	0	0	
6	0	0	0	0	583	502	483	591	0	0	
7	0	0	0	0	585	505	489	594	0	0	
8	0	0	0	0	589	508	497	595	0	0	
9	0	0	0	0	591	511	505	595	0	0	
10	0	0	0	0	594	513	512	591	0	0	
11	0	0	0	0	596	514	519	587	0	0	
12	0	0	0	0	598	513	525	581	0	0	
13	0	0	0	0	600	513	528	574	0	0	
14	0	0	0	0	600	510	531	567	0	0	
15	0	0	0	0	599	507	530	560	0	0	
0	0	0	0	0	597	503	527	554	0	0	
1	0	0	0	0	595	499	524	549	0	0	
2	0	0	0	0	591	495	518	546	0	0	
3	0	0	0	0	588	492	511	545	0	0	
4	0	0	0	0	584	488	504	544	0	0	
5	0	0	0	0	581	487	497	547	0	0	
6	0	0	0	0	578	486	492	549	0	0	
7	0	0	0	0	576	486	487	552	0	0	
8	0	0	0	0	575	488	485	555	0	0	
9	0	0	0	0	575	491	485	557	0	0	
10	0	0	0	0	577	495	487	558	0	0	
11	0	0	0	0	579	498	491	558	0	0	
12	0	0	0	0	581	501	496	555	0	0	
13	0	0	0	0	583	504	503	550	0	0	
14	0	0	0	0	586	505	509	543	0	0	
15	0	0	0	0	588	507	515	535	0	0	
0	0	0	0	0	588	506	520	526	0	0	
1	0	0	0	0	588	504	523	517	0	0	
2	0	0	0	0	586	501	525	509	0	0	
3	0	0	0	0	584	498	525	501	0	0	
4	0	0	0	0	582	495	523	496	0	0	
5	0	0	0	0	578	491	519	491	0	0	
6	0	0	0	0	574	487	513	489	0	0	
7	0	0	0	0	571	485	507	489	0	0	
8	0	0	0	0	568	483	499	491	0	0	
9	0	0	0	0	565	482	493	495	0	0	
10	0	0	0	0	564	482	488	500	0	0	
11	0	0	0	0	563	483	483	504	0	0	
12	0	0	0	0	563	484	482	508	0	0	
13	0	0	0	0	563	486	482	511	0	0	
14	0	0	0	0	565	488	484	512	0	0	
15	0	0	0	0	567	490	489	512	0	0	
0	0	0	0	0	569	492	495	509	0	0	
1	0	0	0	0	572	494	501	504	0	0	
2	0	0	0	0	574	495	508	498	0	0	
3	0	0	0	0	575	496	514	491	0	0	
4	0	0	0	0	577	495	519	482	0	0	
5	0	0	0	0	577	493	523	473	0	0	
6	0	0	0	0	577	491	524	466	0	0	
7	0	0	0	0	577	487	523	459	0	0	
8	0	0	0	0	575	484	519	454	0	0	
9	0	0	0	0	574	480	513	451	0	0	
10	0	0	0	0	572	476	506	449	0	0	
11	0	0	0	0	569	473	498	451	0	0	
12	0	0	0	0	568	471	489	453	0	0	
13	0	0	0	0	567	471	482	459	0	0	
14	0	0	0	0	566	471	476	465	0	0	
15	0	0	0	0	567	472	473	471	0	0	
0	0	0	0	0	567	474	471	478	0	0	
1	0	0	0	0	569	477	472	484	0	0	
2	0	0	0	0	572	480	476	488	0	0	
3	0	0	0	0	574	484	481	492	0	0	
4	0	0	0	0	576	487	488	493	0	0	
5	0	0	0	0	579	490	496	493	0	0	
6	0	0	0	0	581	492	503	490	0	0	
7	0	0	0	0	582	493	510	486	0	0	
8	0	0	0	0	582	492	515	480	0	0	
9	0	0	0	0	580	490	518	473	0	0	
10	0	0	0	0	577	487	518	466	0	0	
11	0	0	0	0	572	482	515	458	0	0	
12	0	0	0	0	567	476	509	451	0	0	
13	0	0	0	0	559	468	500	444	0	0	
14	0	0	0	0	551	460	488	438	0	0	
15	0	0	0	0	541	451	473	432	0	0	
0	0	0	0	0	531	442	457	425	0	0	
1	0	0	0	0	521	433	439	419	0	0	
2	0	0	0	0	511	424	422	413	0	0	
3	0	0	0	0	501	415	403	405	0	0	
4	0	0	0	0	491	407	386	397	0	0	
5	0	0	0	0	481	399	370	387	0	0	
6	0	0	0	0	472	392	355	376	0	0	
7	0	0	0	0	464	385	343	362	0	0	
8	0	0	0	0	457	380	334	348	0	0	
9	0	0	0	0	451	374	327	332	0	0	
10	0	0	0	0	445	369	322	316	0	0	
11	0	0	0	0	440	365	319	301	0	0	
12	0	0	0	0	436	361	319	287	0	0	
13	0	0	0	0	434	358	320	276	0	0	
14	0	0	0	0	432	356	323	268	0	0	
15	0	0	0	0	432	354	327	263	0	0	
0	0	0	0	0	433	355	333	262	0	0	
1	0	0	0	0	436	356	339	267	0	0	
2	0	0	0	0	440	359	348	275	0	0	
3	0	0	0	0	448	364	358	289	0	0	
4	0	0	0	0	457	371	371	306	0	0	
5	0	0	0	0	469	380	385	327	0	0	
6	0	0	0	0	483	391	403	350	0	0	
7	0	0	0	0	498	405	423	374	0	0	
8	0	0	0	0	515	420	446	399	0	0	
9	0	0	0	0	534	435	471	421	0	0	
10	0	0	0	0	551	451	497	442	0	0	
11	0	0	0	0	568	467	523	460	0	0	
12	0	0	0	0	584	481	547	473	0	0	
13	0	0	0	0	598	494	569	483	0	0	
14	0	0	0	0	609	505	588	489	0	0	
15	0	0	0	0	618	515	603	493	0	0	
0	0	0	0	0	624	521	613	493	0	0	
1	0	0	0	0	627	526	618	492	0	0	
2	0	0	0	0	629	529	618	489	0	0	
3	0	0	0	0	628	529	612	486	0	0	
4	0	0	0	0	625	528	602	483	0	0	
5	0	0	0	0	621	526	588	481	0	0	
6	0	0	0	0	616	523	570	480	0	0	
7	0	0	0	0	611	520	551	480	0	0	
8	0	0	0	0	607	517	531	481	0	0	
9	0	0	0	0	603	515	511	483	0	0	
10	0	0	0	0	599	513	494	486	0	0	
11	0	0	0	0	596	511	479	489	0	0	
12	0	0	0	0	594	510	467	492	0	0	
13	0	0	0	0	593	510	459	494	0	0	
14	0	0	0	0	592	510	455	495	0	0	
15	0	0	0	0	592	510	454	495	0	0	
0	0	0	0	0	593	510	456	493	0	0	
1	0	0	0	0	593	510	461	489	0	0	
2	0	0	0	0	593	510	467	484	0	0	
3	0	0	0	0	593	510	474	479	0	0	
4	0	0	0	0	593	508	481	473	0	0	
5	0	0	0	0	592	506	487	467	0	0	
6	0	0	0	0	591	504	492	462	0	0	
7	0	0	0	0	590	502	496	459	0	0	
8	0	0	0	0	589	500	498	457	0	0	
9	0	0	0	0	588	498	499	459	0	0	
10	0	0	0	0	587	496	497	462	0	0	
11	0	0	0	0	585	495	496	467	0	0	
12	0	0	0	0	584	494	494	473	0	0	
13	0	0	0	0	583	494	491	481	0	0	
14	0	0	0	0	583	494	489	488	0	0	
15	0	0	0	0	582	494	487	495	0	0	
0	0	0	0	0	582	495	487	500	0	0	
1	0	0	0	0	582	497	488	503	0	0	
2	0	0	0	0	582	498	489	503	0	0	
3	0	0	0	0	583	500	492	502	0	0	
4	0	0	0	0	583	502	496	498	0	0	
5	0	0	0	0	583	503	499	492	0	0	
6	0	0	0	0	583	504	501	485	0	0	
7	0	0	0	0	582	504	503	477	0	0	
8	0	0	0	0	582	502	503	470	0	0	
9	0	0	0	0	580	499	502	463	0	0	
10	0	0	0	0	579	497	499	457	0	0	
11	0	0	0	0	577	494	496	452	0	0	
12	0	0	0	0	575	491	490	451	0	0	
13	0	0	0	0	574	487	484	451	0	0	
14	0	0	0	0	571	483	477	454	0	0	
15	0	0	0	0	568	480	469	459	0	0	
0	0	0	0	0	567	478	462	464	0	0	
1	0	0	0	0	565	476	456	472	0	0	
2	0	0	0	0	565	476	453	480	0	0	
3	0	0	0	0	565	477	451	488	0	0	
4	0	0	0	0	566	479	453	496	0	0	
5	0	0	0	0	568	481	457	502	0	0	
6	0	0	0	0	571	485	464	508	0	0	
7	0	0	0	0	574	489	473	511	0	0	
8	0	0	0	0	577	493	483	512	0	0	
9	0	0	0	0	579	496	493	510	0	0	
10	0	0	0	0	581	499	503	506	0	0	
11	0	0	0	0	582	501	511	501	0	0	
12	0	0	0	0	582	502	517	495	0	0	
13	0	0	0	0	582	502	521	488	0	0	
14	0	0	0	0	579	500	522	481	0	0	
15	0	0	0	0	577	498	520	476	0	0	
0	0	0	0	0	575	496	516	472	0	0	
1	0	0	0	0	571	492	510	469	0	0	
2	0	0	0	0	568	489	502	469	0	0	
3	0	0	0	0	564	487	494	470	0	0	
4	0	0	0	0	561	484	484	472	0	0	
5	0	0	0	0	559	483	475	476	0	0	
6	0	0	0	0	557	481	467	480	0	0	
7	0	0	0	0	555	480	461	484	0	0	
8	0	0	0	0	554	481	455	487	0	0	
9	0	0	0	0	554	482	453	489	0	0	
10	0	0	0	0	555	483	452	490	0	0	
11	0	0	0	0	556	485	454	489	0	0	
12	0	0	0	0	558	487	458	487	0	0	
13	0	0	0	0	560	489	463	484	0	0	
14	0	0	0	0	561	491	470	480	0	0	
15	0	0	0	0	563	493	476	476	0	0	
0	0	0	0	0	564	493	482	472	0	0	
1	0	0	0	0	566	494	488	469	0	0	
2	0	0	0	0	567	494	493	468	0	0	
3	0	0	0	0	567	494	496	468	0	0	
4	0	0	0	0	568	494	497	471	0	0	
5	0	0	0	0	567	493	496	475	0	0	
6	0	0	0	0	567	492	494	481	0	0	
7	0	0	0	0	566	492	490	488	0	0	
8	0	0	0	0	566	492	486	495	0	0	
9	0	0	0	0	566	492	481	504	0	0	
10	0	0	0	0	565	492	476	511	0	0	
11	0	0	0	0	564	493	473	518	0	0	
12	0	0	0	0	564	495	471	523	0	0	
13	0	0	0	0	565	496	471	525	0	0	
14	0	0	0	0	565	498	472	527	0	0	
15	0	0	0	0	566	499	475	526	0	0	
0	0	0	0	0	566	501	479	524	0	0	
1	0	0	0	0	566	502	484	520	0	0	
2	0	0	0	0	566	503	489	513	0	0	
3	0	0	0	0	564	503	494	507	0	0	
4	0	0	0	0	562	502	497	499	0	0	
5	0	0	0	0	560	500	498	492	0	0	
6	0	0	0	0	556	497	497	485	0	0	
7	0	0	0	0	553	494	494	479	0	0	
8	0	0	0	0	549	491	489	475	0	0	
9	0	0	0	0	546	487	483	473	0	0	
10	0	0	0	0	542	483	475	473	0	0	
11	0	0	0	0	540	480	466	475	0	0	
12	0	0	0	0	539	478	457	479	0	0	
13	0	0	0	0	539	476	451	484	0	0	
14	0	0	0	0	539	476	445	491	0	0	
15	0	0	0	0	540	477	441	497	0	0	
0	0	0	0	0	543	479	440	504	0	0	
1	0	0	0	0	546	481	440	509	0	0	
2	0	0	0	0	549	486	445	513	0	0	
3	0	0	0	0	552	489	451	515	0	0	
4	0	0	0	0	555	493	459	514	0	0	
5	0	0	0	0	557	497	467	511	0	0	
6	0	0	0	0	558	499	476	507	0	0	
7	0	0	0	0	558	502	483	501	0	0	
8	0	0	0	0	557	503	490	494	0	0	
9	0	0	0	0	555	503	494	487	0	0	
10	0	0	0	0	552	502	495	480	0	0	
11	0	0	0	0	550	499	495	475	0	0	
12	0	0	0	0	547	497	492	472	0	0	
13	0	0	0	0	544	494	486	470	0	0	
14	0	0	0	0	541	490	480	471	0	0	
15	0	0	0	0	539	487	472	473	0	0	
0	0	0	0	0	536	483	465	478	0	0	
1	0	0	0	0	535	481	459	484	0	0	
2	0	0	0	0	534	479	454	491	0	0	
3	0	0	0	0	534	478	450	498	0	0	
4	0	0	0	0	533	477	448	504	0	0	
5	0	0	0	0	534	477	448	508	0	0	
6	0	0	0	0	535	478	449	512	0	0	
7	0	0	0	0	536	478	452	514	0	0	
8	0	0	0	0	537	479	455	514	0	0	
9	0	0	0	0	539	480	460	513	0	0	
10	0	0	0	0	541	482	465	510	0	0	
11	0	0	0	0	542	483	470	508	0	0	
12	0	0	0	0	544	484	474	505	0	0	
13	0	0	0	0	545	484	478	502	0	0	
14	0	0	0	0	545	484	480	500	0	0	
15	0	0	0	0	545	483	480	500	0	0	
0	0	0	0	0	544	482	479	501	0	0	
1	0	0	0	0	544	481	477	504	0	0	
2	0	0	0	0	543	480	472	508	0	0	
3	0	0	0	0	542	479	467	514	0	0	
4	0	0	0	0	540	478	462	520	0	0	
5	0	0	0	0	539	479	457	528	0	0	
6	0	0	0	0	538	479	452	536	0	0	
7	0	0	0	0	537	480	449	543	0	0	
8	0	0	0	0	537	481	448	550	0	0	
9	0	0	0	0	537	483	448	554	0	0	
10	0	0	0	0	538	484	449	558	0	0	
11	0	0	0	0	539	486	452	559	0	0	
12	0	0	0	0	540	487	456	558	0	0	
13	0	0	0	0	540	487	460	555	0	0	
14	0	0	0	0	540	486	464	549	0	0	
15	0	0	0	0	539	485	467	543	0	0	
0	0	0	0	0	537	483	467	536	0	0	
1	0	0	0	0	536	480	467	528	0	0	
2	0	0	0	0	533	477	465	521	0	0	
3	0	0	0	0	531	473	461	515	0	0	
4	0	0	0	0	527	470	455	511	0	0	
5	0	0	0	0	525	467	448	510	0	0	
6	0	0	0	0	522	463	440	510	0	0	
7	0	0	0	0	519	460	432	512	0	0	
8	0	0	0	0	516	458	424	516	0	0	
9	0	0	0	0	515	457	418	523	0	0	
10	0	0	0	0	514	456	414	529	0	0	
11	0	0	0	0	514	456	412	536	0	0	
12	0	0	0	0	515	457	414	541	0	0	
13	0	0	0	0	515	460	418	545	0	0	
14	0	0	0	0	517	462	424	548	0	0	
15	0	0	0	0	518	464	433	549	0	0	
0	0	0	0	0	519	466	444	547	0	0	
1	0	0	0	0	521	468	454	543	0	0	
2	0	0	0	0	522	470	464	538	0	0	
3	0	0	0	0	523	470	473	531	0	0	
4	0	0	0	0	522	470	480	523	0	0	
5	0	0	0	0	522	468	483	515	0	0	
6	0	0	0	0	520	466	483	508	0	0	
7	0	0	0	0	518	463	479	500	0	0	
8	0	0	0	0	515	460	472	495	0	0	
9	0	0	0	0	512	455	462	490	0	0	
10	0	0	0	0	508	451	451	488	0	0	
11	0	0	0	0	504	447	438	488	0	0	
12	0	0	0	0	500	444	424	490	0	0	
13	0	0	0	0	498	442	412	495	0	0	
14	0	0	0	0	496	441	401	501	0	0	
15	0	0	0	0	495	441	393	508	0	0	
0	0	0	0	0	495	442	388	514	0	0	
1	0	0	0	0	495	443	386	519	0	0	
2	0	0	0	0	497	446	388	524	0	0	
3	0	0	0	0	499	449	392	527	0	0	
4	0	0	0	0	503	453	401	528	0	0	
5	0	0	0	0	507	457	412	528	0	0	
6	0	0	0	0	511	461	424	526	0	0	
7	0	0	0	0	515	464	437	523	0	0	
8	0	0	0	0	518	466	449	519	0	0	
9	0	0	0	0	519	467	460	514	0	0	
10	0	0	0	0	520	467	468	510	0	0	
11	0	0	0	0	519	465	473	505	0	0	
12	0	0	0	0	518	464	476	504	0	0	
13	0	0	0	0	516	462	474	503	0	0	
14	0	0	0	0	513	459	469	504	0	0	
15	0	0	0	0	509	455	461	507	0	0	
0	0	0	0	0	505	453	452	511	0	0	
1	0	0	0	0	503	451	441	517	0	0	
2	0	0	0	0	499	449	431	523	0	0	
3	0	0	0	0	498	448	421	529	0	0	
4	0	0	0	0	496	448	413	534	0	0	
5	0	0	0	0	496	449	407	537	0	0	
6	0	0	0	0	497	451	403	539	0	0	
7	0	0	0	0	498	452	403	539	0	0	
8	0	0	0	0	500	455	405	536	0	0	
9	0	0	0	0	502	455	410	532	0	0	
10	0	0	0	0	504	457	416	526	0	0	
11	0	0	0	0	505	458	424	519	0	0	
12	0	0	0	0	507	458	433	513	0	0	
13	0	0	0	0	507	458	442	507	0	0	
14	0	0	0	0	507	457	451	501	0	0	
15	0	0	0	0	507	456	457	498	0	0	
0	0	0	0	0	507	456	463	497	0	0	
1	0	0	0	0	507	455	467	498	0	0	
2	0	0	0	0	506	455	468	502	0	0	
3	0	0	0	0	505	455	468	507	0	0	
4	0	0	0	0	505	456	467	513	0	0	
5	0	0	0	0	506	458	463	521	0	0	
6	0	0	0	0	506	460	460	528	0	0	
7	0	0	0	0	507	462	455	535	0	0	
8	0	0	0	0	508	465	452	540	0	0	
9	0	0	0	0	509	469	449	543	0	0	
10	0	0	0	0	511	473	448	545	0	0	
11	0	0	0	0	512	477	448	545	0	0	
12	0	0	0	0	513	481	448	542	0	0	
13	0	0	0	0	515	484	451	537	0	0	
14	0	0	0	0	515	486	453	529	0	0	
15	0	0	0	0	516	487	456	523	0	0	
0	0	0	0	0	516	488	460	515	0	0	
1	0	0	0	0	516	488	463	507	0	0	
2	0	0	0	0	515	487	465	500	0	0	
3	0	0	0	0	514	486	465	495	0	0	
4	0	0	0	0	513	484	465	492	0	0	
5	0	0	0	0	511	482	464	491	0	0	
6	0	0	0	0	509	480	461	492	0	0	
7	0	0	0	0	508	478	457	495	0	0	
8	0	0	0	0	506	477	452	500	0	0	
9	0	0	0	0	505	476	448	507	0	0	
10	0	0	0	0	505	477	444	515	0	0	
11	0	0	0	0	506	479	442	522	0	0	
12	0	0	0	0	507	481	441	530	0	0	
13	0	0	0	0	510	485	442	536	0	0	
14	0	0	0	0	513	489	445	541	0	0	
15	0	0	0	0	517	494	450	544	0	0	
0	0	0	0	0	520	499	455	545	0	0	
1	0	0	0	0	523	503	461	543	0	0	
2	0	0	0	0	526	506	467	539	0	0	
3	0	0	0	0	527	508	472	533	0	0	
4	0	0	0	0	527	509	476	526	0	0	
5	0	0	0	0	527	508	479	519	0	0	
6	0	0	0	0	526	508	480	511	0	0	
7	0	0	0	0	525	506	479	504	0	0	
8	0	0	0	0	523	503	476	499	0	0	
9	0	0	0	0	520	500	471	496	0	0	
10	0	0	0	0	518	497	465	494	0	0	
11	0	0	0	0	515	494	457	494	0	0	
12	0	0	0	0	512	491	450	496	0	0	
13	0	0	0	0	511	489	443	501	0	0	
14	0	0	0	0	510	487	436	506	0	0	
15	0	0	0	0	510	487	432	512	0	0	
0	0	0	0	0	511	488	429	518	0	0	
1	0	0	0	0	513	490	429	521	0	0	
2	0	0	0	0	515	492	432	524	0	0	
3	0	0	0	0	519	496	437	526	0	0	
4	0	0	0	0	521	499	444	525	0	0	
5	0	0	0	0	524	502	452	523	0	0	
6	0	0	0	0	527	504	462	519	0	0	
7	0	0	0	0	529	507	471	514	0	0	
8	0	0	0	0	530	508	480	510	0	0	
9	0	0	0	0	531	508	487	505	0	0	
10	0	0	0	0	531	508	492	501	0	0	
11	0	0	0	0	529	506	495	498	0	0	
12	0	0	0	0	527	504	496	497	0	0	
13	0	0	0	0	525	501	493	496	0	0	
14	0	0	0	0	522	498	489	497	0	0	
15	0	0	0	0	519	496	483	499	0	0	
0	0	0	0	0	515	493	475	502	0	0	
1	0	0	0	0	513	492	467	505	0	0	
2	0	0	0	0	511	491	459	508	0	0	
3	0	0	0	0	510	490	452	511	0	0	
4	0	0	0	0	510	492	447	512	0	0	
5	0	0	0	0	510	493	442	513	0	0	
6	0	0	0	0	511	495	440	512	0	0	
7	0	0	0	0	513	497	440	510	0	0	
8	0	0	0	0	515	499	441	507	0	0	
9	0	0	0	0	518	502	444	502	0	0	
10	0	0	0	0	519	503	448	497	0	0	
11	0	0	0	0	521	504	452	491	0	0	
12	0	0	0	0	523	505	456	486	0	0	
13	0	0	0	0	524	505	460	481	0	0	
14	0	0	0	0	525	505	463	478	0	0	
15	0	0	0	0	526	505	465	477	0	0	
0	0	0	0	0	526	504	467	478	0	0	
1	0	0	0	0	526	503	467	481	0	0	
2	0	0	0	0	525	502	467	487	0	0	
3	0	0	0	0	524	501	467	494	0	0	
4	0	0	0	0	523	500	465	502	0	0	
5	0	0	0	0	522	500	464	511	0	0	
6	0	0	0	0	521	500	463	519	0	0	
7	0	0	0	0	520	500	463	527	0	0	
8	0	0	0	0	519	501	463	534	0	0	
