# OpenSignals Text File Format. Version 1
# {"": {"position": 0, "device": "", "device name": "", "device connection": "", "sampling rate": 1000, "resolution": [4, 1, 1, 1, 1, 10, 10, 10, 10, 6, 6], "firmware version": 1281, "comments": "", "keywords": "", "mode": 0, "sync interval": 2, "date": "", "time": "", "channels": [1, 2, 3, 4, 5, 6], "sensor": ["RAW", "RAW", "RAW", "RAW", "RAW", "RAW"], "label": ["A1", "A2", "A3", "A4", "A5", "A6"], "column": ["nSeq", "I1", "I2", "O1", "O2", "A1", "A2", "A3", "A4", "A5", "A6"], "special": [{}, {}, {}, {}, {}, {}], "digital IO": [0, 0, 1, 1]}}
# EndOfHeader
0	0	0	0	0	1021	767	1021	22	0	0	
1	0	0	0	0	1021	737	1021	48	0	0	
2	0	0	0	0	1021	710	1021	116	0	0	
3	0	0	0	0	1021	687	1021	219	0	0	
4	0	0	0	0	1021	668	1021	345	0	0	
5	0	0	0	0	1021	655	1021	480	0	0	
6	0	0	0	0	1021	647	1021	608	0	0	
7	0	0	0	0	1021	646	1021	717	0	0	
8	0	0	0	0	1021	649	1021	796	0	0	
9	0	0	0	0	1021	660	1021	834	0	0	
10	0	0	0	0	1021	676	1021	831	0	0	
11	0	0	0	0	1021	698	1021	785	0	0	
12	0	0	0	0	1021	726	1021	702	0	0	
13	0	0	0	0	1021	759	1021	593	0	0	
14	0	0	0	0	1021	797	1021	471	0	0	
15	0	0	0	0	1021	837	1021	349	0	0	
0	0	0	0	0	1021	878	1021	243	0	0	
1	0	0	0	0	1021	920	1021	167	0	0	
2	0	0	0	0	1021	958	1021	129	0	0	
3	0	0	0	0	1021	995	1021	139	0	0	
4	0	0	0	0	1021	1021	1021	199	0	0	
5	0	0	0	0	1021	1021	1021	308	0	0	
6	0	0	0	0	1021	1021	1021	457	0	0	
7	0	0	0	0	1021	1021	1021	633	0	0	
8	0	0	0	0	1021	1021	1021	823	0	0	
9	0	0	0	0	1021	1021	1021	1008	0	0	
10	0	0	0	0	1021	1021	1021	1021	0	0	
11	0	0	0	0	1021	1021	1021	1021	0	0	
12	0	0	0	0	1021	1021	1021	1021	0	0	
13	0	0	0	0	1021	1021	1021	1021	0	0	
14	0	0	0	0	1021	1021	1021	1021	0	0	
15	0	0	0	0	1021	1021	1021	1021	0	0	
0	0	0	0	0	1021	1021	1021	1021	0	0	
1	0	0	0	0	1021	1021	1021	988	0	0	
2	0	0	0	0	1021	1021	1021	911	0	0	
3	0	0	0	0	1021	1021	1021	813	0	0	
4	0	0	0	0	1021	1021	1021	707	0	0	
5	0	0	0	0	1021	1021	1021	606	0	0	
6	0	0	0	0	1021	1021	1021	524	0	0	
7	0	0	0	0	1021	1021	1021	472	0	0	
8	0	0	0	0	1021	1021	1021	456	0	0	
9	0	0	0	0	1021	1021	1021	480	0	0	
10	0	0	0	0	1021	1021	1021	543	0	0	
11	0	0	0	0	1021	1019	1021	636	0	0	
12	0	0	0	0	1021	1016	1021	748	0	0	
13	0	0	0	0	1021	1012	1021	867	0	0	
14	0	0	0	0	1021	1008	1021	979	0	0	
15	0	0	0	0	1021	1005	1021	1021	0	0	
0	0	0	0	0	1021	999	1021	1021	0	0	
1	0	0	0	0	1021	993	1021	1021	0	0	
2	0	0	0	0	1021	987	1021	1021	0	0	
3	0	0	0	0	1021	981	1021	997	0	0	
4	0	0	0	0	1021	976	1021	921	0	0	
5	0	0	0	0	1021	971	1021	814	0	0	
6	0	0	0	0	1021	966	1021	686	0	0	
7	0	0	0	0	1021	963	1021	553	0	0	
8	0	0	0	0	1021	963	1021	428	0	0	
9	0	0	0	0	1021	963	1021	326	0	0	
10	0	0	0	0	1021	965	1021	259	0	0	
11	0	0	0	0	1021	968	1021	236	0	0	
12	0	0	0	0	1021	972	1021	259	0	0	
13	0	0	0	0	1021	977	1021	330	0	0	
14	0	0	0	0	1021	982	1021	440	0	0	
15	0	0	0	0	1021	986	1021	580	0	0	
0	0	0	0	0	1021	990	1021	736	0	0	
1	0	0	0	0	1021	993	1021	894	0	0	
2	0	0	0	0	1021	994	1021	1020	0	0	
3	0	0	0	0	1021	995	1021	1020	0	0	
4	0	0	0	0	1021	993	1021	1021	0	0	
5	0	0	0	0	1021	991	1021	1021	0	0	
6	0	0	0	0	1021	988	1021	1021	0	0	
7	0	0	0	0	1021	984	1021	1021	0	0	
8	0	0	0	0	1021	979	1021	983	0	0	
9	0	0	0	0	1021	975	1021	897	0	0	
10	0	0	0	0	1021	970	1021	786	0	0	
11	0	0	0	0	1021	966	1021	664	0	0	
12	0	0	0	0	1021	962	1021	542	0	0	
13	0	0	0	0	1021	960	1021	437	0	0	
14	0	0	0	0	1022	959	1021	360	0	0	
15	0	0	0	0	1021	958	1021	322	0	0	
0	0	0	0	0	1021	959	1021	328	0	0	
1	0	0	0	0	1021	960	1021	380	0	0	
2	0	0	0	0	1021	961	1021	472	0	0	
3	0	0	0	0	1022	963	1021	594	0	0	
4	0	0	0	0	1021	964	1021	735	0	0	
5	0	0	0	0	1021	965	1021	878	0	0	
6	0	0	0	0	1021	965	1021	1009	0	0	
7	0	0	0	0	1021	964	1021	1021	0	0	
8	0	0	0	0	1021	962	1021	1021	0	0	
9	0	0	0	0	1021	959	1021	1021	0	0	
10	0	0	0	0	1021	955	1021	1021	0	0	
11	0	0	0	0	1021	951	1021	1014	0	0	
12	0	0	0	0	1021	947	1021	947	0	0	
13	0	0	0	0	1021	943	1021	847	0	0	
14	0	0	0	0	1021	940	1021	726	0	0	
15	0	0	0	0	1021	938	1021	595	0	0	
0	0	0	0	0	1021	937	1021	468	0	0	
1	0	0	0	0	1021	937	1021	360	0	0	
2	0	0	0	0	1021	938	1021	283	0	0	
3	0	0	0	0	1021	941	1021	248	0	0	
4	0	0	0	0	1021	944	1021	260	0	0	
5	0	0	0	0	1021	948	1021	320	0	0	
6	0	0	0	0	1021	953	1021	423	0	0	
7	0	0	0	0	1021	957	1021	558	0	0	
8	0	0	0	0	1021	961	1021	712	0	0	
9	0	0	0	0	1021	964	1021	871	0	0	
10	0	0	0	0	1021	967	1021	1017	0	0	
11	0	0	0	0	1022	969	1021	1021	0	0	
12	0	0	0	0	1021	969	1021	1021	0	0	
13	0	0	0	0	1021	969	1021	1021	0	0	
14	0	0	0	0	1021	968	1021	1021	0	0	
15	0	0	0	0	1021	967	1021	1021	0	0	
0	0	0	0	0	1021	966	1021	987	0	0	
1	0	0	0	0	1021	964	1021	905	0	0	
2	0	0	0	0	1021	963	1021	798	0	0	
3	0	0	0	0	1021	961	1021	680	0	0	
4	0	0	0	0	1021	959	1021	566	0	0	
5	0	0	0	0	1021	957	1021	468	0	0	
6	0	0	0	0	1022	956	1021	400	0	0	
7	0	0	0	0	1021	953	1021	369	0	0	
8	0	0	0	0	1021	952	1021	382	0	0	
9	0	0	0	0	1021	951	1021	436	0	0	
10	0	0	0	0	1021	951	1021	527	0	0	
11	0	0	0	0	1021	951	1021	645	0	0	
12	0	0	0	0	1021	952	1021	777	0	0	
13	0	0	0	0	1021	953	1021	911	0	0	
14	0	0	0	0	1021	954	1021	1020	0	0	
15	0	0	0	0	1021	956	1021	1021	0	0	
0	0	0	0	0	1021	957	1021	1021	0	0	
1	0	0	0	0	1021	957	1021	1021	0	0	
2	0	0	0	0	1021	957	1021	1021	0	0	
3	0	0	0	0	1021	956	1021	1013	0	0	
4	0	0	0	0	1021	955	1021	948	0	0	
5	0	0	0	0	1021	953	1021	851	0	0	
6	0	0	0	0	1021	950	1021	732	0	0	
7	0	0	0	0	1021	946	1021	602	0	0	
8	0	0	0	0	1021	942	1021	478	0	0	
9	0	0	0	0	1021	939	1021	372	0	0	
10	0	0	0	0	1021	935	1021	299	0	0	
11	0	0	0	0	1021	932	1021	269	0	0	
12	0	0	0	0	1021	931	1021	286	0	0	
13	0	0	0	0	1021	931	1021	352	0	0	
14	0	0	0	0	1021	933	1021	460	0	0	
15	0	0	0	0	1022	936	1021	601	0	0	
0	0	0	0	0	1021	940	1021	760	0	0	
1	0	0	0	0	1021	946	1021	924	0	0	
2	0	0	0	0	1021	952	1021	1021	0	0	
3	0	0	0	0	1021	958	1021	1021	0	0	
4	0	0	0	0	1021	964	1021	1021	0	0	
5	0	0	0	0	1021	970	1021	1021	0	0	
6	0	0	0	0	1021	975	1021	1021	0	0	
7	0	0	0	0	1021	978	1021	1021	0	0	
8	0	0	0	0	1021	980	1021	1011	0	0	
9	0	0	0	0	1022	981	1021	940	0	0	
10	0	0	0	0	1021	980	1021	840	0	0	
11	0	0	0	0	1021	979	1021	723	0	0	
12	0	0	0	0	1021	975	1021	602	0	0	
13	0	0	0	0	1021	971	1021	491	0	0	
14	0	0	0	0	1022	966	1021	403	0	0	
15	0	0	0	0	1021	962	1021	348	0	0	
0	0	0	0	0	1021	958	1021	335	0	0	
1	0	0	0	0	1021	955	1021	364	0	0	
2	0	0	0	0	1021	954	1021	433	0	0	
3	0	0	0	0	1021	953	1021	533	0	0	
4	0	0	0	0	1021	955	1021	652	0	0	
5	0	0	0	0	1021	957	1021	779	0	0	
6	0	0	0	0	1021	961	1021	898	0	0	
7	0	0	0	0	1021	965	1021	998	0	0	
8	0	0	0	0	1022	968	1021	1021	0	0	
9	0	0	0	0	1021	971	1021	1021	0	0	
10	0	0	0	0	1021	974	1021	1021	0	0	
11	0	0	0	0	1021	975	1021	995	0	0	
12	0	0	0	0	1021	976	1021	920	0	0	
13	0	0	0	0	1021	976	1021	815	0	0	
14	0	0	0	0	1021	976	1021	690	0	0	
15	0	0	0	0	1021	975	1021	559	0	0	
0	0	0	0	0	1021	974	1021	435	0	0	
1	0	0	0	0	1021	972	1021	332	0	0	
2	0	0	0	0	1022	972	1021	263	0	0	
3	0	0	0	0	1021	970	1021	237	0	0	
4	0	0	0	0	1021	969	1021	257	0	0	
5	0	0	0	0	1021	967	1021	325	0	0	
6	0	0	0	0	1021	965	1021	435	0	0	
7	0	0	0	0	1021	963	1021	576	0	0	
8	0	0	0	0	1021	960	1021	736	0	0	
9	0	0	0	0	1021	956	1021	900	0	0	
10	0	0	0	0	1021	952	1021	1021	0	0	
11	0	0	0	0	1021	947	1021	1021	0	0	
12	0	0	0	0	1022	942	1021	1021	0	0	
13	0	0	0	0	1021	936	1021	1021	0	0	
14	0	0	0	0	1021	930	1021	1021	0	0	
15	0	0	0	0	1021	924	1021	1021	0	0	
0	0	0	0	0	1021	918	1021	1021	0	0	
1	0	0	0	0	1021	911	1021	976	0	0	
2	0	0	0	0	1021	905	1021	899	0	0	
3	0	0	0	0	1021	899	1021	807	0	0	
4	0	0	0	0	1021	894	1021	712	0	0	
5	0	0	0	0	1021	889	1021	630	0	0	
6	0	0	0	0	1022	886	1021	572	0	0	
7	0	0	0	0	1021	883	1021	547	0	0	
8	0	0	0	0	1021	882	1021	564	0	0	
9	0	0	0	0	1021	882	1021	623	0	0	
10	0	0	0	0	1021	883	1021	718	0	0	
11	0	0	0	0	1021	885	1021	841	0	0	
12	0	0	0	0	1021	888	1021	980	0	0	
13	0	0	0	0	1021	891	1021	1021	0	0	
14	0	0	0	0	1021	893	1021	1021	0	0	
15	0	0	0	0	1021	895	1021	1021	0	0	
0	0	0	0	0	1022	895	1021	1021	0	0	
1	0	0	0	0	1021	894	1021	1021	0	0	
2	0	0	0	0	1021	892	1021	1021	0	0	
3	0	0	0	0	1021	888	1021	1021	0	0	
4	0	0	0	0	1021	883	1021	1021	0	0	
5	0	0	0	0	1022	879	1021	1020	0	0	
6	0	0	0	0	1021	875	1021	973	0	0	
7	0	0	0	0	1021	871	1021	908	0	0	
8	0	0	0	0	1021	868	1021	833	0	0	
9	0	0	0	0	1021	866	1021	762	0	0	
10	0	0	0	0	1022	865	1021	706	0	0	
11	0	0	0	0	1021	865	1021	675	0	0	
12	0	0	0	0	1021	865	1021	673	0	0	
13	0	0	0	0	1021	865	1021	702	0	0	
14	0	0	0	0	1021	865	1021	761	0	0	
15	0	0	0	0	1021	865	1021	843	0	0	
0	0	0	0	0	1021	865	1021	937	0	0	
1	0	0	0	0	1021	865	1021	1021	0	0	
2	0	0	0	0	1021	865	1021	1021	0	0	
3	0	0	0	0	1021	864	1021	1021	0	0	
4	0	0	0	0	1021	863	1021	1021	0	0	
5	0	0	0	0	1021	863	1021	1021	0	0	
6	0	0	0	0	1021	863	1021	1021	0	0	
7	0	0	0	0	1021	863	1021	1016	0	0	
8	0	0	0	0	1021	863	1021	961	0	0	
9	0	0	0	0	1021	862	1021	878	0	0	
10	0	0	0	0	1021	860	1021	775	0	0	
11	0	0	0	0	1021	858	1021	663	0	0	
12	0	0	0	0	1021	856	1021	555	0	0	
13	0	0	0	0	1021	853	1021	464	0	0	
14	0	0	0	0	1021	849	1021	403	0	0	
15	0	0	0	0	1021	847	1021	377	0	0	
0	0	0	0	0	1021	843	1021	393	0	0	
1	0	0	0	0	1021	839	1021	450	0	0	
2	0	0	0	0	1021	836	1021	542	0	0	
3	0	0	0	0	1022	833	1021	660	0	0	
4	0	0	0	0	1021	829	1021	792	0	0	
5	0	0	0	0	1021	826	1021	925	0	0	
6	0	0	0	0	1021	823	1021	1021	0	0	
7	0	0	0	0	1021	820	1021	1021	0	0	
8	0	0	0	0	1021	817	1021	1021	0	0	
9	0	0	0	0	1021	814	1021	1021	0	0	
10	0	0	0	0	1021	811	1021	1021	0	0	
11	0	0	0	0	1021	807	1021	1018	0	0	
12	0	0	0	0	1021	804	1020	957	0	0	
13	0	0	0	0	1022	800	1021	865	0	0	
14	0	0	0	0	1021	797	1021	752	0	0	
15	0	0	0	0	1021	795	1021	630	0	0	
0	0	0	0	0	1021	795	1021	514	0	0	
1	0	0	0	0	1021	797	1021	418	0	0	
2	0	0	0	0	1022	800	1021	352	0	0	
3	0	0	0	0	1021	804	1021	327	0	0	
4	0	0	0	0	1021	808	1021	347	0	0	
5	0	0	0	0	1021	812	1021	410	0	0	
6	0	0	0	0	1021	815	1021	511	0	0	
7	0	0	0	0	1022	817	1021	639	0	0	
8	0	0	0	0	1021	817	1021	783	0	0	
9	0	0	0	0	1021	816	1021	927	0	0	
10	0	0	0	0	1021	814	1021	1021	0	0	
11	0	0	0	0	1021	811	1021	1020	0	0	
12	0	0	0	0	1021	807	1021	1021	0	0	
13	0	0	0	0	1021	802	1021	1021	0	0	
14	0	0	0	0	1021	797	1021	1021	0	0	
15	0	0	0	0	1021	791	1021	1021	0	0	
0	0	0	0	0	1021	785	1021	971	0	0	
1	0	0	0	0	1022	781	1021	885	0	0	
2	0	0	0	0	1021	776	1021	777	0	0	
3	0	0	0	0	1021	773	1021	660	0	0	
4	0	0	0	0	1021	771	1021	548	0	0	
5	0	0	0	0	1021	770	1021	455	0	0	
6	0	0	0	0	1022	770	1021	391	0	0	
7	0	0	0	0	1021	771	1021	368	0	0	
8	0	0	0	0	1021	774	1021	387	0	0	
9	0	0	0	0	1021	776	1021	450	0	0	
10	0	0	0	0	1021	779	1021	550	0	0	
11	0	0	0	0	1021	782	1021	675	0	0	
12	0	0	0	0	1021	785	1021	817	0	0	
13	0	0	0	0	1021	789	1021	959	0	0	
14	0	0	0	0	1021	793	1021	1021	0	0	
15	0	0	0	0	1021	797	1021	1021	0	0	
0	0	0	0	0	1021	799	1021	1021	0	0	
1	0	0	0	0	1021	801	1021	1021	0	0	
2	0	0	0	0	1021	801	1021	1021	0	0	
3	0	0	0	0	1021	800	1021	1021	0	0	
4	0	0	0	0	1021	799	1021	988	0	0	
5	0	0	0	0	1021	796	1021	913	0	0	
6	0	0	0	0	1021	794	1021	817	0	0	
7	0	0	0	0	1021	791	1021	712	0	0	
8	0	0	0	0	1021	790	1021	612	0	0	
9	0	0	0	0	1021	788	1021	529	0	0	
10	0	0	0	0	1021	787	1021	475	0	0	
11	0	0	0	0	1021	786	1021	457	0	0	
12	0	0	0	0	1021	787	1021	481	0	0	
13	0	0	0	0	1021	787	1021	546	0	0	
14	0	0	0	0	1021	788	1021	646	0	0	
15	0	0	0	0	1021	790	1021	771	0	0	
0	0	0	0	0	1021	791	1021	907	0	0	
1	0	0	0	0	1021	792	1021	1021	0	0	
2	0	0	0	0	1021	793	1021	1021	0	0	
3	0	0	0	0	1022	793	1020	1021	0	0	
4	0	0	0	0	1022	793	1021	1021	0	0	
5	0	0	0	0	1021	792	1021	1021	0	0	
6	0	0	0	0	1021	789	1021	1021	0	0	
7	0	0	0	0	1021	785	1021	1021	0	0	
8	0	0	0	0	1021	782	1021	973	0	0	
9	0	0	0	0	1021	777	1021	884	0	0	
10	0	0	0	0	1021	772	1021	771	0	0	
11	0	0	0	0	1021	768	1021	648	0	0	
12	0	0	0	0	1021	764	1021	527	0	0	
13	0	0	0	0	1021	761	1021	424	0	0	
14	0	0	0	0	1021	760	1021	351	0	0	
15	0	0	0	0	1021	760	1021	319	0	0	
0	0	0	0	0	1021	761	1021	333	0	0	
1	0	0	0	0	1021	764	1021	395	0	0	
2	0	0	0	0	1021	768	1021	496	0	0	
3	0	0	0	0	1022	773	1021	627	0	0	
4	0	0	0	0	1021	775	1021	773	0	0	
5	0	0	0	0	1021	776	1021	920	0	0	
6	0	0	0	0	1021	775	1021	1021	0	0	
7	0	0	0	0	1021	772	1021	1021	0	0	
8	0	0	0	0	1022	769	1021	1021	0	0	
9	0	0	0	0	1021	764	1021	1021	0	0	
10	0	0	0	0	1021	760	1021	1021	0	0	
11	0	0	0	0	1021	758	1021	979	0	0	
12	0	0	0	0	1021	755	1021	881	0	0	
13	0	0	0	0	1021	755	1021	748	0	0	
14	0	0	0	0	1021	755	1021	593	0	0	
15	0	0	0	0	1021	758	1021	432	0	0	
0	0	0	0	0	1021	762	1021	279	0	0	
1	0	0	0	0	1021	768	1021	151	0	0	
2	0	0	0	0	1021	774	1021	58	0	0	
3	0	0	0	0	1021	780	1021	11	0	0	
4	0	0	0	0	1021	787	1021	13	0	0	
5	0	0	0	0	1021	792	1021	66	0	0	
6	0	0	0	0	1021	797	1021	165	0	0	
7	0	0	0	0	1022	799	1021	300	0	0	
8	0	0	0	0	1021	800	1021	460	0	0	
9	0	0	0	0	1021	799	1021	626	0	0	
10	0	0	0	0	1021	798	1021	784	0	0	
11	0	0	0	0	1021	796	1021	919	0	0	
12	0	0	0	0	1021	792	1021	1018	0	0	
13	0	0	0	0	1021	788	1021	1021	0	0	
14	0	0	0	0	1021	785	1021	1021	0	0	
15	0	0	0	0	1021	782	1021	992	0	0	
0	0	0	0	0	1021	780	1021	903	0	0	
1	0	0	0	0	1022	779	1021	777	0	0	
2	0	0	0	0	1021	779	1021	627	0	0	
3	0	0	0	0	1021	781	1021	471	0	0	
4	0	0	0	0	1021	782	1021	322	0	0	
5	0	0	0	0	1021	784	1021	199	0	0	
6	0	0	0	0	1022	784	1021	115	0	0	
7	0	0	0	0	1021	783	1021	79	0	0	
8	0	0	0	0	1021	780	1021	95	0	0	
9	0	0	0	0	1021	777	1021	166	0	0	
10	0	0	0	0	1021	775	1021	284	0	0	
11	0	0	0	0	1021	772	1021	438	0	0	
12	0	0	0	0	1021	772	1021	611	0	0	
13	0	0	0	0	1021	772	1021	788	0	0	
14	0	0	0	0	1021	774	1021	948	0	0	
15	0	0	0	0	1021	777	1021	1021	0	0	
0	0	0	0	0	1022	780	1021	1021	0	0	
1	0	0	0	0	1021	784	1021	1021	0	0	
2	0	0	0	0	1021	788	1021	1021	0	0	
3	0	0	0	0	1021	792	1021	991	0	0	
4	0	0	0	0	1021	795	1021	894	0	0	
5	0	0	0	0	1022	798	1021	759	0	0	
6	0	0	0	0	1021	799	1021	599	0	0	
7	0	0	0	0	1021	800	1021	431	0	0	
8	0	0	0	0	1021	800	1021	270	0	0	
9	0	0	0	0	1021	799	1021	133	0	0	
10	0	0	0	0	1021	798	1021	34	0	0	
11	0	0	0	0	1021	796	1021	0	0	0	
12	0	0	0	0	1021	794	1021	0	0	0	
13	0	0	0	0	1021	792	1021	46	0	0	
14	0	0	0	0	1021	790	1021	145	0	0	
15	0	0	0	0	1022	789	1021	281	0	0	
0	0	0	0	0	1021	788	1021	442	0	0	
1	0	0	0	0	1021	788	1021	608	0	0	
2	0	0	0	0	1021	789	1021	765	0	0	
3	0	0	0	0	1021	790	1021	894	0	0	
4	0	0	0	0	1022	792	1021	984	0	0	
5	0	0	0	0	1021	794	1021	1021	0	0	
6	0	0	0	0	1021	796	1021	1011	0	0	
7	0	0	0	0	1021	799	1021	944	0	0	
8	0	0	0	0	1021	803	1021	831	0	0	
9	0	0	0	0	1021	807	1021	681	0	0	
10	0	0	0	0	1021	810	1021	512	0	0	
11	0	0	0	0	1021	813	1021	339	0	0	
12	0	0	0	0	1021	815	1021	182	0	0	
13	0	0	0	0	1021	817	1021	56	0	0	
14	0	0	0	0	1021	818	1021	0	0	0	
15	0	0	0	0	1021	819	1021	0	0	0	
0	0	0	0	0	1021	819	1021	10	0	0	
1	0	0	0	0	1021	818	1021	92	0	0	
2	0	0	0	0	1021	817	1021	223	0	0	
3	0	0	0	0	1022	816	1021	391	0	0	
4	0	0	0	0	1021	814	1021	580	0	0	
5	0	0	0	0	1021	811	1021	773	0	0	
6	0	0	0	0	1021	808	1021	951	0	0	
7	0	0	0	0	1021	806	1021	1021	0	0	
8	0	0	0	0	1021	803	1021	1021	0	0	
9	0	0	0	0	1021	800	1021	1021	0	0	
10	0	0	0	0	1021	798	1021	1021	0	0	
11	0	0	0	0	1021	795	1021	1021	0	0	
12	0	0	0	0	1021	792	1021	961	0	0	
13	0	0	0	0	1022	789	1021	856	0	0	
14	0	0	0	0	1021	786	1021	723	0	0	
15	0	0	0	0	1021	785	1021	576	0	0	
0	0	0	0	0	1021	786	1021	432	0	0	
1	0	0	0	0	1021	789	1021	306	0	0	
2	0	0	0	0	1021	794	1021	215	0	0	
3	0	0	0	0	1021	799	1021	166	0	0	
4	0	0	0	0	1021	804	1021	165	0	0	
5	0	0	0	0	1021	809	1021	216	0	0	
6	0	0	0	0	1021	813	1021	312	0	0	
7	0	0	0	0	1021	816	1021	443	0	0	
8	0	0	0	0	1021	817	1021	595	0	0	
9	0	0	0	0	1021	816	1021	752	0	0	
10	0	0	0	0	1021	815	1021	897	0	0	
11	0	0	0	0	1021	812	1021	1015	0	0	
12	0	0	0	0	1021	807	1021	1021	0	0	
13	0	0	0	0	1021	805	1021	1021	0	0	
14	0	0	0	0	1021	803	1021	1021	0	0	
15	0	0	0	0	1021	801	1021	983	0	0	
0	0	0	0	0	1021	799	1021	890	0	0	
1	0	0	0	0	1021	798	1021	764	0	0	
2	0	0	0	0	1021	797	1021	616	0	0	
3	0	0	0	0	1021	795	1021	463	0	0	
4	0	0	0	0	1021	793	1021	319	0	0	
5	0	0	0	0	1021	792	1021	199	0	0	
6	0	0	0	0	1022	789	1021	114	0	0	
7	0	0	0	0	1021	785	1021	72	0	0	
8	0	0	0	0	1021	782	1021	78	0	0	
9	0	0	0	0	1021	777	1021	132	0	0	
10	0	0	0	0	1021	771	1021	227	0	0	
11	0	0	0	0	1021	765	1021	352	0	0	
12	0	0	0	0	1021	759	1021	498	0	0	
13	0	0	0	0	1021	753	1021	647	0	0	
14	0	0	0	0	1021	750	1021	786	0	0	
15	0	0	0	0	1021	748	1021	900	0	0	
0	0	0	0	0	1021	747	1021	980	0	0	
1	0	0	0	0	1021	747	1021	1015	0	0	
2	0	0	0	0	1021	747	1021	1002	0	0	
3	0	0	0	0	1021	747	1021	938	0	0	
4	0	0	0	0	1021	746	1021	830	0	0	
5	0	0	0	0	1021	745	1021	689	0	0	
6	0	0	0	0	1021	742	1021	529	0	0	
7	0	0	0	0	1021	738	1021	366	0	0	
8	0	0	0	0	1021	734	1021	216	0	0	
9	0	0	0	0	1021	730	1021	94	0	0	
10	0	0	0	0	1021	726	1021	13	0	0	
11	0	0	0	0	1021	723	1021	0	0	0	
12	0	0	0	0	1021	722	1021	11	0	0	
13	0	0	0	0	1021	722	1021	81	0	0	
14	0	0	0	0	1021	724	1021	198	0	0	
15	0	0	0	0	1021	727	1021	348	0	0	
0	0	0	0	0	1021	731	1021	518	0	0	
1	0	0	0	0	1021	736	1021	691	0	0	
2	0	0	0	0	1021	740	1021	851	0	0	
3	0	0	0	0	1021	743	1021	982	0	0	
4	0	0	0	0	1021	747	1021	1021	0	0	
5	0	0	0	0	1021	748	1021	1021	0	0	
6	0	0	0	0	1021	749	1021	1021	0	0	
7	0	0	0	0	1021	748	1021	985	0	0	
8	0	0	0	0	1021	745	1021	892	0	0	
9	0	0	0	0	1021	741	1021	763	0	0	
10	0	0	0	0	1021	736	1021	611	0	0	
11	0	0	0	0	1021	731	1021	454	0	0	
12	0	0	0	0	1021	726	1021	306	0	0	
13	0	0	0	0	1021	720	1021	184	0	0	
14	0	0	0	0	1021	715	1021	99	0	0	
15	0	0	0	0	1021	709	1021	62	0	0	
0	0	0	0	0	1021	703	1021	77	0	0	
1	0	0	0	0	1021	697	1021	144	0	0	
2	0	0	0	0	1021	691	1021	259	0	0	
3	0	0	0	0	1021	687	1021	408	0	0	
4	0	0	0	0	1021	684	1021	578	0	0	
5	0	0	0	0	1021	680	1021	751	0	0	
6	0	0	0	0	1021	678	1021	909	0	0	
7	0	0	0	0	1021	677	1021	1020	0	0	
8	0	0	0	0	1021	677	1021	1021	0	0	
9	0	0	0	0	1021	678	1021	1021	0	0	
10	0	0	0	0	1021	680	1021	1021	0	0	
11	0	0	0	0	1021	683	1021	986	0	0	
12	0	0	0	0	1021	686	1021	889	0	0	
13	0	0	0	0	1021	689	1021	756	0	0	
14	0	0	0	0	1021	692	1021	601	0	0	
15	0	0	0	0	1021	696	1021	439	0	0	
0	0	0	0	0	1021	700	1021	285	0	0	
1	0	0	0	0	1021	702	1021	156	0	0	
2	0	0	0	0	1021	704	1021	65	0	0	
3	0	0	0	0	1021	707	1021	21	0	0	
4	0	0	0	0	1021	709	1021	31	0	0	
5	0	0	0	0	1021	711	1021	94	0	0	
6	0	0	0	0	1021	712	1021	204	0	0	
7	0	0	0	0	1021	711	1021	350	0	0	
8	0	0	0	0	1021	710	1021	516	0	0	
9	0	0	0	0	1021	707	1021	685	0	0	
10	0	0	0	0	1021	705	1021	840	0	0	
11	0	0	0	0	1021	702	1021	967	0	0	
12	0	0	0	0	1021	701	1021	1021	0	0	
13	0	0	0	0	1021	700	1021	1021	0	0	
14	0	0	0	0	1021	701	1021	1021	0	0	
15	0	0	0	0	1021	703	1021	971	0	0	
0	0	0	0	0	1021	704	1021	870	0	0	
1	0	0	0	0	1022	705	1021	735	0	0	
2	0	0	0	0	1021	704	1021	582	0	0	
3	0	0	0	0	1021	703	1021	427	0	0	
4	0	0	0	0	1021	701	1021	284	0	0	
5	0	0	0	0	1021	697	1021	172	0	0	
6	0	0	0	0	1022	692	1021	101	0	0	
7	0	0	0	0	1021	687	1021	78	0	0	
8	0	0	0	0	1021	680	1021	106	0	0	
9	0	0	0	0	1021	673	1021	186	0	0	
10	0	0	0	0	1021	666	1021	306	0	0	
11	0	0	0	0	1022	659	1021	455	0	0	
12	0	0	0	0	1021	653	1021	620	0	0	
13	0	0	0	0	1021	649	1021	782	0	0	
14	0	0	0	0	1021	649	1021	927	0	0	
15	0	0	0	0	1021	652	1021	1020	0	0	
0	0	0	0	0	1022	657	1021	1021	0	0	
1	0	0	0	0	1021	666	1021	1021	0	0	
2	0	0	0	0	1021	676	1021	1021	0	0	
3	0	0	0	0	1021	687	1021	962	0	0	
4	0	0	0	0	1021	697	1021	854	0	0	
5	0	0	0	0	1022	704	1021	710	0	0	
6	0	0	0	0	1021	709	1021	544	0	0	
7	0	0	0	0	1021	710	1021	372	0	0	
8	0	0	0	0	1021	707	1021	211	0	0	
9	0	0	0	0	1021	702	1021	75	0	0	
10	0	0	0	0	1022	695	1021	0	0	0	
11	0	0	0	0	1021	686	1021	0	0	0	
12	0	0	0	0	1021	677	1021	0	0	0	
13	0	0	0	0	1021	668	1021	32	0	0	
14	0	0	0	0	1021	660	1021	124	0	0	
15	0	0	0	0	1022	653	1021	253	0	0	
0	0	0	0	0	1021	648	1021	405	0	0	
1	0	0	0	0	1021	644	1021	565	0	0	
2	0	0	0	0	1021	643	1021	718	0	0	
3	0	0	0	0	1021	644	1021	847	0	0	
4	0	0	0	0	1022	647	1021	941	0	0	
5	0	0	0	0	1021	652	1021	993	0	0	
6	0	0	0	0	1021	659	1021	995	0	0	
7	0	0	0	0	1021	668	1021	945	0	0	
8	0	0	0	0	1021	677	1021	848	0	0	
9	0	0	0	0	1022	687	1021	713	0	0	
10	0	0	0	0	1021	696	1021	555	0	0	
11	0	0	0	0	1021	704	1021	388	0	0	
12	0	0	0	0	1021	712	1021	230	0	0	
13	0	0	0	0	1021	718	1021	97	0	0	
14	0	0	0	0	1022	723	1021	4	0	0	
15	0	0	0	0	1021	728	1021	0	0	0	
0	0	0	0	0	1021	731	1021	0	0	0	
1	0	0	0	0	1021	732	1021	56	0	0	
2	0	0	0	0	1021	731	1021	164	0	0	
3	0	0	0	0	1021	729	1021	310	0	0	
4	0	0	0	0	1021	726	1021	480	0	0	
5	0	0	0	0	1021	721	1021	656	0	0	
6	0	0	0	0	1021	715	1021	823	0	0	
7	0	0	0	0	1021	708	1021	962	0	0	
8	0	0	0	0	1022	701	1021	1021	0	0	
9	0	0	0	0	1021	694	1021	1021	0	0	
10	0	0	0	0	1021	687	1021	1021	0	0	
11	0	0	0	0	1021	681	1021	1000	0	0	
12	0	0	0	0	1021	677	1021	917	0	0	
13	0	0	0	0	1021	674	1021	797	0	0	
14	0	0	0	0	1021	673	1021	655	0	0	
15	0	0	0	0	1021	673	1021	506	0	0	
0	0	0	0	0	1021	675	1021	365	0	0	
1	0	0	0	0	1021	676	1021	247	0	0	
2	0	0	0	0	1022	679	1021	163	0	0	
3	0	0	0	0	1021	681	1021	122	0	0	
4	0	0	0	0	1021	684	1021	127	0	0	
5	0	0	0	0	1021	686	1021	178	0	0	
6	0	0	0	0	1021	688	1021	268	0	0	
7	0	0	0	0	1021	689	1021	389	0	0	
8	0	0	0	0	1021	689	1021	527	0	0	
9	0	0	0	0	1021	690	1021	669	0	0	
10	0	0	0	0	1021	690	1021	798	0	0	
11	0	0	0	0	1021	689	1021	903	0	0	
12	0	0	0	0	1022	688	1021	972	0	0	
13	0	0	0	0	1021	686	1021	1000	0	0	
14	0	0	0	0	1021	682	1021	980	0	0	
15	0	0	0	0	1021	678	1021	912	0	0	
0	0	0	0	0	1021	672	1021	804	0	0	
1	0	0	0	0	1021	666	1021	665	0	0	
2	0	0	0	0	1021	660	1021	511	0	0	
3	0	0	0	0	1021	655	1021	357	0	0	
4	0	0	0	0	1021	650	1021	218	0	0	
5	0	0	0	0	1021	647	1020	110	0	0	
6	0	0	0	0	1022	647	1021	41	0	0	
7	0	0	0	0	1021	647	1021	22	0	0	
8	0	0	0	0	1021	651	1021	55	0	0	
9	0	0	0	0	1021	655	1021	141	0	0	
10	0	0	0	0	1021	661	1021	271	0	0	
11	0	0	0	0	1022	668	1021	434	0	0	
12	0	0	0	0	1021	675	1021	614	0	0	
13	0	0	0	0	1021	681	1021	795	0	0	
14	0	0	0	0	1021	686	1021	960	0	0	
15	0	0	0	0	1021	690	1020	1021	0	0	
0	0	0	0	0	1021	693	1021	1021	0	0	
1	0	0	0	0	1021	694	1021	1021	0	0	
2	0	0	0	0	1021	695	1021	1021	0	0	
3	0	0	0	0	1021	695	1021	1017	0	0	
4	0	0	0	0	1021	695	1021	945	0	0	
5	0	0	0	0	1021	694	1021	836	0	0	
6	0	0	0	0	1021	693	1021	700	0	0	
7	0	0	0	0	1021	693	1021	552	0	0	
8	0	0	0	0	1021	693	1021	408	0	0	
9	0	0	0	0	1021	694	1021	282	0	0	
10	0	0	0	0	1022	695	1021	188	0	0	
11	0	0	0	0	1021	696	1021	135	0	0	
12	0	0	0	0	1021	697	1021	129	0	0	
13	0	0	0	0	1021	699	1021	174	0	0	
14	0	0	0	0	1021	702	1021	264	0	0	
15	0	0	0	0	1022	705	1021	391	0	0	
0	0	0	0	0	1021	710	1021	540	0	0	
1	0	0	0	0	1021	714	1021	695	0	0	
2	0	0	0	0	1021	718	1021	839	0	0	
3	0	0	0	0	1021	720	1021	957	0	0	
4	0	0	0	0	1021	721	1021	1021	0	0	
5	0	0	0	0	1021	718	1021	1021	0	0	
6	0	0	0	0	1021	712	1021	1017	0	0	
7	0	0	0	0	1021	703	1021	948	0	0	
8	0	0	0	0	1021	691	1021	832	0	0	
9	0	0	0	0	1022	677	1021	679	0	0	
10	0	0	0	0	1021	660	1021	504	0	0	
11	0	0	0	0	1021	643	1021	324	0	0	
12	0	0	0	0	1021	626	1021	155	0	0	
13	0	0	0	0	1021	608	1021	10	0	0	
14	0	0	0	0	1022	590	1021	0	0	0	
15	0	0	0	0	1021	572	1021	0	0	0	
0	0	0	0	0	1021	552	1021	0	0	0	
1	0	0	0	0	1021	534	1021	0	0	0	
2	0	0	0	0	1021	515	1021	52	0	0	
3	0	0	0	0	1021	495	1021	144	0	0	
4	0	0	0	0	1021	476	1021	259	0	0	
5	0	0	0	0	1021	457	1021	383	0	0	
6	0	0	0	0	1021	439	1021	500	0	0	
7	0	0	0	0	1021	422	1021	598	0	0	
8	0	0	0	0	1022	408	1021	664	0	0	
9	0	0	0	0	1021	396	1021	688	0	0	
10	0	0	0	0	1021	388	1021	670	0	0	
11	0	0	0	0	1021	386	1021	607	0	0	
12	0	0	0	0	1021	389	1020	509	0	0	
13	0	0	0	0	1021	398	1021	385	0	0	
14	0	0	0	0	1021	413	1021	251	0	0	
15	0	0	0	0	1021	435	1021	119	0	0	
0	0	0	0	0	1021	460	1021	5	0	0	
1	0	0	0	0	1021	489	1021	0	0	0	
2	0	0	0	0	1021	521	1021	0	0	0	
3	0	0	0	0	1021	555	1021	0	0	0	
4	0	0	0	0	1021	588	1021	19	0	0	
5	0	0	0	0	1021	620	1021	105	0	0	
6	0	0	0	0	1021	651	1021	234	0	0	
7	0	0	0	0	1022	678	1021	394	0	0	
8	0	0	0	0	1021	701	1021	572	0	0	
9	0	0	0	0	1021	721	1021	753	0	0	
10	0	0	0	0	1021	736	1021	917	0	0	
11	0	0	0	0	1021	747	1020	1020	0	0	
12	0	0	0	0	1022	754	1021	1021	0	0	
13	0	0	0	0	1021	758	1021	1021	0	0	
14	0	0	0	0	1021	758	1021	1021	0	0	
15	0	0	0	0	1021	756	1021	1010	0	0	
0	0	0	0	0	1021	752	1021	934	0	0	
1	0	0	0	0	1022	748	1021	820	0	0	
2	0	0	0	0	1021	741	1021	683	0	0	
3	0	0	0	0	1021	735	1021	536	0	0	
4	0	0	0	0	1021	727	1021	395	0	0	
5	0	0	0	0	1021	719	1021	274	0	0	
6	0	0	0	0	1021	710	1021	187	0	0	
7	0	0	0	0	1021	701	1021	142	0	0	
8	0	0	0	0	1021	692	1021	146	0	0	
9	0	0	0	0	1021	685	1021	200	0	0	
10	0	0	0	0	1021	680	1021	299	0	0	
11	0	0	0	0	1021	677	1021	432	0	0	
12	0	0	0	0	1021	678	1021	586	0	0	
13	0	0	0	0	1021	681	1021	745	0	0	
14	0	0	0	0	1021	686	1021	893	0	0	
15	0	0	0	0	1021	693	1020	1014	0	0	
0	0	0	0	0	1022	700	1021	1021	0	0	
1	0	0	0	0	1021	706	1021	1021	0	0	
2	0	0	0	0	1021	711	1021	1021	0	0	
3	0	0	0	0	1021	714	1021	995	0	0	
4	0	0	0	0	1021	715	1021	910	0	0	
5	0	0	0	0	1021	713	1021	793	0	0	
6	0	0	0	0	1021	710	1021	655	0	0	
7	0	0	0	0	1021	704	1021	510	0	0	
8	0	0	0	0	1021	697	1021	374	0	0	
9	0	0	0	0	1021	690	1021	260	0	0	
10	0	0	0	0	1022	684	1021	181	0	0	
11	0	0	0	0	1021	678	1021	145	0	0	
12	0	0	0	0	1021	673	1021	157	0	0	
13	0	0	0	0	1021	671	1021	215	0	0	
14	0	0	0	0	1021	670	1021	315	0	0	
15	0	0	0	0	1021	671	1021	447	0	0	
0	0	0	0	0	1021	674	1021	596	0	0	
1	0	0	0	0	1021	679	1021	749	0	0	
2	0	0	0	0	1021	684	1021	889	0	0	
3	0	0	0	0	1021	689	1021	1003	0	0	
4	0	0	0	0	1021	692	1021	1021	0	0	
5	0	0	0	0	1021	693	1021	1021	0	0	
6	0	0	0	0	1021	692	1021	1021	0	0	
7	0	0	0	0	1021	690	1021	958	0	0	
8	0	0	0	0	1021	685	1021	850	0	0	
9	0	0	0	0	1022	679	1021	708	0	0	
10	0	0	0	0	1021	672	1021	548	0	0	
11	0	0	0	0	1021	665	1021	384	0	0	
12	0	0	0	0	1021	658	1021	231	0	0	
13	0	0	0	0	1021	651	1021	105	0	0	
14	0	0	0	0	1021	643	1021	17	0	0	
15	0	0	0	0	1021	636	1021	0	0	0	
0	0	0	0	0	1021	630	1021	0	0	0	
1	0	0	0	0	1021	625	1021	57	0	0	
2	0	0	0	0	1022	622	1021	159	0	0	
3	0	0	0	0	1022	620	1021	293	0	0	
4	0	0	0	0	1021	619	1021	448	0	0	
5	0	0	0	0	1021	619	1021	608	0	0	
6	0	0	0	0	1021	621	1021	756	0	0	
7	0	0	0	0	1021	623	1021	879	0	0	
8	0	0	0	0	1021	626	1021	965	0	0	
9	0	0	0	0	1021	627	1021	1006	0	0	
10	0	0	0	0	1021	628	1021	999	0	0	
11	0	0	0	0	1021	628	1021	940	0	0	
12	0	0	0	0	1021	627	1021	837	0	0	
13	0	0	0	0	1022	625	1021	702	0	0	
14	0	0	0	0	1021	624	1021	548	0	0	
15	0	0	0	0	1021	622	1021	392	0	0	
0	0	0	0	0	1021	621	1021	248	0	0	
1	0	0	0	0	1021	623	1020	133	0	0	
2	0	0	0	0	1022	625	1021	57	0	0	
3	0	0	0	0	1021	630	1021	27	0	0	
4	0	0	0	0	1021	635	1021	49	0	0	
5	0	0	0	0	1021	642	1021	122	0	0	
6	0	0	0	0	1021	649	1021	236	0	0	
7	0	0	0	0	1021	657	1021	380	0	0	
8	0	0	0	0	1021	664	1021	540	0	0	
9	0	0	0	0	1021	670	1021	700	0	0	
10	0	0	0	0	1021	675	1021	843	0	0	
11	0	0	0	0	1021	676	1020	954	0	0	
12	0	0	0	0	1021	676	1021	1021	0	0	
13	0	0	0	0	1021	675	1021	1021	0	0	
14	0	0	0	0	1021	672	1021	999	0	0	
15	0	0	0	0	1021	668	1021	915	0	0	
0	0	0	0	0	1021	665	1021	786	0	0	
1	0	0	0	0	1021	662	1021	625	0	0	
2	0	0	0	0	1021	659	1021	446	0	0	
3	0	0	0	0	1021	657	1021	264	0	0	
4	0	0	0	0	1021	655	1021	99	0	0	
5	0	0	0	0	1021	653	1021	0	0	0	
6	0	0	0	0	1021	651	1021	0	0	0	
7	0	0	0	0	1021	647	1021	0	0	0	
8	0	0	0	0	1021	643	1021	0	0	0	
9	0	0	0	0	1021	639	1021	7	0	0	
10	0	0	0	0	1021	634	1021	78	0	0	
11	0	0	0	0	1021	628	1021	183	0	0	
12	0	0	0	0	1021	622	1021	310	0	0	
13	0	0	0	0	1021	615	1021	446	0	0	
14	0	0	0	0	1021	609	1021	576	0	0	
15	0	0	0	0	1021	604	1021	684	0	0	
0	0	0	0	0	1022	599	1021	760	0	0	
1	0	0	0	0	1021	595	1021	793	0	0	
2	0	0	0	0	1021	593	1021	781	0	0	
3	0	0	0	0	1021	592	1021	721	0	0	
4	0	0	0	0	1021	591	1021	622	0	0	
5	0	0	0	0	1021	592	1021	492	0	0	
6	0	0	0	0	1021	595	1021	346	0	0	
7	0	0	0	0	1021	599	1021	200	0	0	
8	0	0	0	0	1021	604	1021	67	0	0	
9	0	0	0	0	1021	610	1021	0	0	0	
10	0	0	0	0	1022	617	1021	0	0	0	
11	0	0	0	0	1021	624	1021	0	0	0	
12	0	0	0	0	1021	631	1021	0	0	0	
13	0	0	0	0	1021	636	1021	41	0	0	
14	0	0	0	0	1021	642	1021	132	0	0	
15	0	0	0	0	1022	647	1021	252	0	0	
0	0	0	0	0	1021	650	1021	390	0	0	
1	0	0	0	0	1021	654	1021	528	0	0	
2	0	0	0	0	1021	658	1021	654	0	0	
3	0	0	0	0	1021	663	1021	751	0	0	
4	0	0	0	0	1022	668	1021	811	0	0	
5	0	0	0	0	1021	675	1021	825	0	0	
6	0	0	0	0	1021	683	1021	791	0	0	
7	0	0	0	0	1021	693	1021	709	0	0	
8	0	0	0	0	1021	704	1021	589	0	0	
9	0	0	0	0	1021	715	1021	443	0	0	
10	0	0	0	0	1021	728	1021	283	0	0	
11	0	0	0	0	1021	739	1021	127	0	0	
12	0	0	0	0	1021	750	1021	0	0	0	
13	0	0	0	0	1021	760	1021	0	0	0	
14	0	0	0	0	1022	769	1021	0	0	0	
15	0	0	0	0	1021	776	1021	0	0	0	
0	0	0	0	0	1021	783	1021	0	0	0	
1	0	0	0	0	1021	787	1021	24	0	0	
2	0	0	0	0	1021	791	1021	105	0	0	
3	0	0	0	0	1022	793	1021	220	0	0	
4	0	0	0	0	1021	793	1021	352	0	0	
5	0	0	0	0	1021	791	1021	488	0	0	
6	0	0	0	0	1021	786	1021	611	0	0	
7	0	0	0	0	1021	781	1021	708	0	0	
8	0	0	0	0	1022	775	1021	766	0	0	
9	0	0	0	0	1021	768	1021	777	0	0	
10	0	0	0	0	1021	762	1021	740	0	0	
11	0	0	0	0	1021	757	1021	654	0	0	
12	0	0	0	0	1021	753	1021	528	0	0	
13	0	0	0	0	1021	750	1021	376	0	0	
14	0	0	0	0	1021	749	1021	210	0	0	
15	0	0	0	0	1021	748	1021	48	0	0	
0	0	0	0	0	1021	748	1021	0	0	0	
1	0	0	0	0	1021	748	1021	0	0	0	
2	0	0	0	0	1022	747	1021	0	0	0	
3	0	0	0	0	1021	744	1021	0	0	0	
4	0	0	0	0	1021	741	1021	0	0	0	
5	0	0	0	0	1021	736	1021	0	0	0	
6	0	0	0	0	1021	731	1021	34	0	0	
7	0	0	0	0	1021	724	1021	116	0	0	
8	0	0	0	0	1021	718	1021	224	0	0	
9	0	0	0	0	1021	712	1021	344	0	0	
10	0	0	0	0	1021	707	1021	463	0	0	
11	0	0	0	0	1021	703	1021	566	0	0	
12	0	0	0	0	1022	700	1021	641	0	0	
13	0	0	0	0	1021	699	1021	679	0	0	
14	0	0	0	0	1021	700	1021	673	0	0	
15	0	0	0	0	1021	701	1021	621	0	0	
0	0	0	0	0	1021	704	1021	530	0	0	
1	0	0	0	0	1021	708	1021	407	0	0	
2	0	0	0	0	1021	712	1021	267	0	0	
3	0	0	0	0	1021	717	1021	123	0	0	
4	0	0	0	0	1021	720	1021	0	0	0	
5	0	0	0	0	1021	723	1021	0	0	0	
6	0	0	0	0	1021	725	1021	0	0	0	
7	0	0	0	0	1021	724	1021	0	0	0	
8	0	0	0	0	1021	722	1021	0	0	0	
9	0	0	0	0	1021	718	1021	0	0	0	
10	0	0	0	0	1021	713	1021	43	0	0	
11	0	0	0	0	1022	707	1021	123	0	0	
12	0	0	0	0	1021	701	1021	224	0	0	
13	0	0	0	0	1021	696	1021	335	0	0	
14	0	0	0	0	1021	691	1021	442	0	0	
15	0	0	0	0	1021	687	1021	531	0	0	
0	0	0	0	0	1022	683	1021	592	0	0	
1	0	0	0	0	1021	679	1021	615	0	0	
2	0	0	0	0	1021	676	1021	596	0	0	
3	0	0	0	0	1021	673	1021	536	0	0	
4	0	0	0	0	1021	670	1021	441	0	0	
5	0	0	0	0	1022	668	1021	321	0	0	
6	0	0	0	0	1021	667	1021	189	0	0	
7	0	0	0	0	1021	666	1021	57	0	0	
8	0	0	0	0	1021	666	1021	0	0	0	
9	0	0	0	0	1021	666	1021	0	0	0	
10	0	0	0	0	1022	667	1021	0	0	0	
11	0	0	0	0	1021	666	1021	0	0	0	
12	0	0	0	0	1021	667	1021	0	0	0	
13	0	0	0	0	1021	666	1021	14	0	0	
14	0	0	0	0	1021	665	1021	82	0	0	
15	0	0	0	0	1022	663	1021	178	0	0	
0	0	0	0	0	1021	659	1021	292	0	0	
1	0	0	0	0	1021	655	1021	412	0	0	
2	0	0	0	0	1021	649	1021	524	0	0	
3	0	0	0	0	1021	642	1021	614	0	0	
4	0	0	0	0	1021	635	1021	673	0	0	
5	0	0	0	0	1021	627	1021	694	0	0	
6	0	0	0	0	1021	620	1021	672	0	0	
7	0	0	0	0	1021	614	1021	608	0	0	
8	0	0	0	0	1021	609	1021	511	0	0	
9	0	0	0	0	1021	606	1021	389	0	0	
10	0	0	0	0	1021	604	1021	255	0	0	
11	0	0	0	0	1021	604	1021	124	0	0	
12	0	0	0	0	1021	605	1021	8	0	0	
13	0	0	0	0	1021	606	1021	0	0	0	
14	0	0	0	0	1021	606	1021	0	0	0	
15	0	0	0	0	1021	607	1021	0	0	0	
0	0	0	0	0	1021	607	1021	0	0	0	
1	0	0	0	0	1021	607	1021	58	0	0	
2	0	0	0	0	1022	608	1020	154	0	0	
3	0	0	0	0	1022	608	1021	276	0	0	
4	0	0	0	0	1021	608	1021	412	0	0	
5	0	0	0	0	1021	608	1021	547	0	0	
6	0	0	0	0	1021	606	1021	668	0	0	
7	0	0	0	0	1021	604	1021	760	0	0	
8	0	0	0	0	1021	601	1021	811	0	0	
9	0	0	0	0	1021	597	1021	815	0	0	
10	0	0	0	0	1021	591	1021	766	0	0	
11	0	0	0	0	1021	583	1021	666	0	0	
12	0	0	0	0	1021	575	1021	523	0	0	
13	0	0	0	0	1022	565	1021	350	0	0	
14	0	0	0	0	1021	555	1021	161	0	0	
15	0	0	0	0	1021	543	1021	0	0	0	
0	0	0	0	0	1021	532	1021	0	0	0	
1	0	0	0	0	1021	523	1021	0	0	0	
2	0	0	0	0	1022	514	1021	0	0	0	
3	0	0	0	0	1021	505	1021	0	0	0	
4	0	0	0	0	1021	499	1021	0	0	0	
5	0	0	0	0	1021	492	1021	0	0	0	
6	0	0	0	0	1021	486	1021	0	0	0	
7	0	0	0	0	1021	481	1021	0	0	0	
8	0	0	0	0	1021	476	1021	35	0	0	
9	0	0	0	0	1021	473	1021	99	0	0	
10	0	0	0	0	1021	470	1021	174	0	0	
11	0	0	0	0	1021	467	1021	246	0	0	
12	0	0	0	0	1022	464	1021	303	0	0	
13	0	0	0	0	1021	462	1021	337	0	0	
14	0	0	0	0	1021	461	1021	339	0	0	
15	0	0	0	0	1021	459	1021	308	0	0	
0	0	0	0	0	1021	457	1021	246	0	0	
1	0	0	0	0	1021	455	1021	158	0	0	
2	0	0	0	0	1021	453	1021	55	0	0	
3	0	0	0	0	1021	450	1021	0	0	0	
4	0	0	0	0	1021	447	1021	0	0	0	
5	0	0	0	0	1021	444	1021	0	0	0	
6	0	0	0	0	1022	440	1021	0	0	0	
7	0	0	0	0	1021	436	1021	0	0	0	
8	0	0	0	0	1021	434	1021	0	0	0	
9	0	0	0	0	1021	432	1021	0	0	0	
10	0	0	0	0	1021	431	1021	15	0	0	
11	0	0	0	0	1022	431	1021	78	0	0	
12	0	0	0	0	1021	432	1021	166	0	0	
13	0	0	0	0	1021	433	1021	267	0	0	
14	0	0	0	0	1021	435	1021	370	0	0	
15	0	0	0	0	1021	437	1021	462	0	0	
0	0	0	0	0	1021	439	1021	531	0	0	
1	0	0	0	0	1021	440	1021	568	0	0	
2	0	0	0	0	1021	440	1021	567	0	0	
3	0	0	0	0	1021	439	1021	526	0	0	
4	0	0	0	0	1021	436	1021	450	0	0	
5	0	0	0	0	1022	432	1020	346	0	0	
6	0	0	0	0	1021	428	1021	227	0	0	
7	0	0	0	0	1021	423	1021	104	0	0	
8	0	0	0	0	1021	419	1021	0	0	0	
9	0	0	0	0	1021	415	1021	0	0	0	
10	0	0	0	0	1021	412	1021	0	0	0	
11	0	0	0	0	1021	409	1021	0	0	0	
12	0	0	0	0	1021	406	1021	0	0	0	
13	0	0	0	0	1021	404	1021	17	0	0	
14	0	0	0	0	1021	402	1021	86	0	0	
15	0	0	0	0	1022	401	1021	184	0	0	
0	0	0	0	0	1021	400	1021	301	0	0	
1	0	0	0	0	1021	399	1021	423	0	0	
2	0	0	0	0	1021	398	1021	538	0	0	
3	0	0	0	0	1021	397	1021	631	0	0	
4	0	0	0	0	1022	395	1021	688	0	0	
5	0	0	0	0	1021	392	1021	706	0	0	
6	0	0	0	0	1021	389	1021	677	0	0	
7	0	0	0	0	1021	385	1021	603	0	0	
8	0	0	0	0	1021	382	1021	492	0	0	
9	0	0	0	0	1022	378	1021	352	0	0	
10	0	0	0	0	1021	374	1021	198	0	0	
11	0	0	0	0	1021	371	1021	44	0	0	
12	0	0	0	0	1021	369	1021	0	0	0	
13	0	0	0	0	1021	368	1021	0	0	0	
14	0	0	0	0	1022	368	1021	0	0	0	
15	0	0	0	0	1021	369	1021	0	0	0	
0	0	0	0	0	1021	371	1021	0	0	0	
1	0	0	0	0	1021	374	1021	0	0	0	
2	0	0	0	0	1021	377	1021	8	0	0	
3	0	0	0	0	1021	380	1021	65	0	0	
4	0	0	0	0	1021	380	1021	146	0	0	
5	0	0	0	0	1021	380	1021	239	0	0	
6	0	0	0	0	1021	378	1021	331	0	0	
7	0	0	0	0	1021	374	1021	412	0	0	
8	0	0	0	0	1022	368	1021	468	0	0	
9	0	0	0	0	1021	361	1021	493	0	0	
10	0	0	0	0	1021	353	1021	481	0	0	
11	0	0	0	0	1021	345	1021	431	0	0	
12	0	0	0	0	1021	335	1021	344	0	0	
13	0	0	0	0	1022	325	1021	231	0	0	
14	0	0	0	0	1021	315	1021	100	0	0	
15	0	0	0	0	1021	306	1021	0	0	0	
0	0	0	0	0	1021	298	1021	0	0	0	
1	0	0	0	0	1021	292	1021	0	0	0	
2	0	0	0	0	1021	288	1021	0	0	0	
3	0	0	0	0	1021	287	1021	0	0	0	
4	0	0	0	0	1021	287	1021	0	0	0	
5	0	0	0	0	1021	289	1021	0	0	0	
6	0	0	0	0	1021	291	1021	0	0	0	
7	0	0	0	0	1021	294	1021	23	0	0	
8	0	0	0	0	1021	296	1021	85	0	0	
9	0	0	0	0	1021	299	1021	163	0	0	
10	0	0	0	0	1021	301	1021	244	0	0	
11	0	0	0	0	1021	303	1020	317	0	0	
12	0	0	0	0	1022	304	1021	370	0	0	
13	0	0	0	0	1021	304	1021	396	0	0	
14	0	0	0	0	1021	304	1021	388	0	0	
15	0	0	0	0	1021	303	1021	344	0	0	
0	0	0	0	0	1021	301	1021	268	0	0	
1	0	0	0	0	1021	298	1021	166	0	0	
2	0	0	0	0	1021	295	1021	49	0	0	
3	0	0	0	0	1021	292	1021	0	0	0	
4	0	0	0	0	1021	289	1021	0	0	0	
5	0	0	0	0	1021	288	1020	0	0	0	
6	0	0	0	0	1022	289	1021	0	0	0	
7	0	0	0	0	1021	290	1021	0	0	0	
8	0	0	0	0	1021	292	1021	0	0	0	
9	0	0	0	0	1021	295	1021	0	0	0	
10	0	0	0	0	1021	297	1021	0	0	0	
11	0	0	0	0	1022	300	1021	21	0	0	
12	0	0	0	0	1021	301	1021	78	0	0	
13	0	0	0	0	1021	302	1021	151	0	0	
14	0	0	0	0	1021	300	1021	229	0	0	
15	0	0	0	0	1021	297	1020	298	0	0	
0	0	0	0	0	1022	292	1021	349	0	0	
1	0	0	0	0	1021	286	1021	373	0	0	
2	0	0	0	0	1021	279	1021	363	0	0	
3	0	0	0	0	1021	272	1021	319	0	0	
4	0	0	0	0	1021	265	1021	242	0	0	
5	0	0	0	0	1021	259	1021	141	0	0	
6	0	0	0	0	1021	254	1021	26	0	0	
7	0	0	0	0	1021	251	1021	0	0	0	
8	0	0	0	0	1021	249	1021	0	0	0	
9	0	0	0	0	1021	248	1021	0	0	0	
10	0	0	0	0	1022	247	1021	0	0	0	
11	0	0	0	0	1021	247	1021	0	0	0	
12	0	0	0	0	1021	246	1021	0	0	0	
13	0	0	0	0	1021	246	1021	0	0	0	
14	0	0	0	0	1021	245	1020	0	0	0	
15	0	0	0	0	1021	245	1021	31	0	0	
0	0	0	0	0	1021	245	1021	99	0	0	
1	0	0	0	0	1021	246	1021	184	0	0	
2	0	0	0	0	1021	247	1021	275	0	0	
3	0	0	0	0	1021	248	1021	357	0	0	
4	0	0	0	0	1021	249	1021	420	0	0	
5	0	0	0	0	1021	249	1021	455	0	0	
6	0	0	0	0	1021	250	1021	455	0	0	
7	0	0	0	0	1021	250	1021	420	0	0	
8	0	0	0	0	1021	251	1021	352	0	0	
9	0	0	0	0	1022	251	1021	259	0	0	
10	0	0	0	0	1021	250	1021	152	0	0	
11	0	0	0	0	1021	250	1021	39	0	0	
12	0	0	0	0	1021	249	1021	0	0	0	
13	0	0	0	0	1021	247	1021	0	0	0	
14	0	0	0	0	1021	246	1020	0	0	0	
15	0	0	0	0	1021	243	1021	0	0	0	
0	0	0	0	0	1021	242	1021	0	0	0	
1	0	0	0	0	1021	240	1021	5	0	0	
2	0	0	0	0	1021	238	1021	63	0	0	
3	0	0	0	0	1022	236	1021	153	0	0	
4	0	0	0	0	1021	235	1021	264	0	0	
5	0	0	0	0	1021	235	1021	383	0	0	
6	0	0	0	0	1021	234	1021	496	0	0	
7	0	0	0	0	1021	233	1020	588	0	0	
8	0	0	0	0	1022	233	1021	649	0	0	
9	0	0	0	0	1021	231	1021	668	0	0	
10	0	0	0	0	1021	228	1021	640	0	0	
11	0	0	0	0	1021	225	1021	566	0	0	
12	0	0	0	0	1021	220	1021	453	0	0	
13	0	0	0	0	1021	216	1021	310	0	0	
14	0	0	0	0	1021	212	1021	152	0	0	
15	0	0	0	0	1021	209	1021	0	0	0	
0	0	0	0	0	1021	206	1021	0	0	0	
1	0	0	0	0	1021	203	1021	0	0	0	
2	0	0	0	0	1021	200	1021	0	0	0	
3	0	0	0	0	1021	197	1021	0	0	0	
4	0	0	0	0	1021	195	1021	0	0	0	
5	0	0	0	0	1021	194	1021	0	0	0	
6	0	0	0	0	1021	192	1021	0	0	0	
7	0	0	0	0	1021	190	1020	44	0	0	
8	0	0	0	0	1021	189	1021	118	0	0	
9	0	0	0	0	1021	189	1021	206	0	0	
10	0	0	0	0	1021	188	1021	294	0	0	
11	0	0	0	0	1021	188	1021	371	0	0	
12	0	0	0	0	1022	189	1020	422	0	0	
13	0	0	0	0	1021	189	1021	439	0	0	
14	0	0	0	0	1021	190	1021	417	0	0	
15	0	0	0	0	1021	191	1021	355	0	0	
0	0	0	0	0	1021	192	1021	257	0	0	
1	0	0	0	0	1021	195	1021	134	0	0	
2	0	0	0	0	1021	197	1021	0	0	0	
3	0	0	0	0	1021	199	1021	0	0	0	
4	0	0	0	0	1021	203	1021	0	0	0	
5	0	0	0	0	1021	206	1021	0	0	0	
6	0	0	0	0	1021	209	1021	0	0	0	
7	0	0	0	0	1021	214	1021	0	0	0	
8	0	0	0	0	1021	219	1021	0	0	0	
9	0	0	0	0	1021	225	1021	0	0	0	
10	0	0	0	0	1021	232	1021	0	0	0	
11	0	0	0	0	1022	240	1020	1	0	0	
12	0	0	0	0	1021	250	1021	52	0	0	
13	0	0	0	0	1021	261	1021	124	0	0	
14	0	0	0	0	1021	271	1021	208	0	0	
15	0	0	0	0	1021	282	1021	290	0	0	
0	0	0	0	0	1021	292	1021	360	0	0	
1	0	0	0	0	1021	301	1021	408	0	0	
2	0	0	0	0	1021	308	1021	426	0	0	
3	0	0	0	0	1021	312	1021	411	0	0	
4	0	0	0	0	1021	315	1021	365	0	0	
5	0	0	0	0	1021	316	1021	294	0	0	
6	0	0	0	0	1021	315	1021	207	0	0	
7	0	0	0	0	1021	314	1021	117	0	0	
8	0	0	0	0	1021	312	1021	35	0	0	
9	0	0	0	0	1021	311	1021	0	0	0	
10	0	0	0	0	1021	308	1021	0	0	0	
11	0	0	0	0	1021	304	1021	0	0	0	
12	0	0	0	0	1021	299	1021	10	0	0	
13	0	0	0	0	1021	292	1021	69	0	0	
14	0	0	0	0	1021	285	1021	159	0	0	
15	0	0	0	0	1021	277	1021	273	0	0	
0	0	0	0	0	1021	270	1021	400	0	0	
1	0	0	0	0	1021	263	1021	529	0	0	
2	0	0	0	0	1021	258	1021	644	0	0	
3	0	0	0	0	1021	253	1021	736	0	0	
4	0	0	0	0	1021	250	1021	792	0	0	
5	0	0	0	0	1021	248	1021	804	0	0	
6	0	0	0	0	1021	248	1021	772	0	0	
7	0	0	0	0	1021	249	1021	693	0	0	
8	0	0	0	0	1021	251	1021	574	0	0	
9	0	0	0	0	1021	253	1021	428	0	0	
10	0	0	0	0	1021	255	1021	265	0	0	
11	0	0	0	0	1021	259	1021	105	0	0	
12	0	0	0	0	1021	262	1021	0	0	0	
13	0	0	0	0	1021	265	1021	0	0	0	
14	0	0	0	0	1021	268	1021	0	0	0	
15	0	0	0	0	1021	270	1021	0	0	0	
0	0	0	0	0	1021	271	1021	0	0	0	
1	0	0	0	0	1021	271	1021	0	0	0	
2	0	0	0	0	1021	271	1021	63	0	0	
3	0	0	0	0	1021	270	1021	159	0	0	
4	0	0	0	0	1021	268	1021	277	0	0	
5	0	0	0	0	1021	265	1021	402	0	0	
6	0	0	0	0	1021	261	1021	519	0	0	
7	0	0	0	0	1021	257	1021	615	0	0	
8	0	0	0	0	1021	252	1021	678	0	0	
9	0	0	0	0	1021	248	1021	700	0	0	
10	0	0	0	0	1021	243	1021	678	0	0	
11	0	0	0	0	1021	239	1021	612	0	0	
12	0	0	0	0	1021	235	1021	508	0	0	
13	0	0	0	0	1021	231	1021	377	0	0	
14	0	0	0	0	1021	227	1021	231	0	0	
15	0	0	0	0	1021	224	1021	85	0	0	
0	0	0	0	0	1021	222	1021	0	0	0	
1	0	0	0	0	1021	221	1021	0	0	0	
2	0	0	0	0	1021	222	1021	0	0	0	
3	0	0	0	0	1021	224	1021	0	0	0	
4	0	0	0	0	1021	228	1021	0	0	0	
5	0	0	0	0	1021	233	1021	4	0	0	
6	0	0	0	0	1021	238	1021	68	0	0	
7	0	0	0	0	1021	241	1021	164	0	0	
8	0	0	0	0	1021	244	1021	280	0	0	
9	0	0	0	0	1021	245	1021	403	0	0	
10	0	0	0	0	1021	243	1021	519	0	0	
11	0	0	0	0	1021	240	1021	614	0	0	
12	0	0	0	0	1021	237	1021	676	0	0	
13	0	0	0	0	1021	233	1021	699	0	0	
14	0	0	0	0	1021	230	1021	676	0	0	
15	0	0	0	0	1021	228	1021	611	0	0	
0	0	0	0	0	1021	228	1021	510	0	0	
1	0	0	0	0	1021	230	1021	384	0	0	
2	0	0	0	0	1021	233	1021	247	0	0	
3	0	0	0	0	1021	238	1021	112	0	0	
4	0	0	0	0	1021	245	1021	0	0	0	
5	0	0	0	0	1021	252	1021	0	0	0	
6	0	0	0	0	1021	259	1021	0	0	0	
7	0	0	0	0	1021	267	1021	0	0	0	
8	0	0	0	0	1021	273	1021	0	0	0	
9	0	0	0	0	1021	280	1021	49	0	0	
10	0	0	0	0	1021	284	1021	140	0	0	
11	0	0	0	0	1021	287	1021	259	0	0	
12	0	0	0	0	1021	290	1021	392	0	0	
13	0	0	0	0	1021	291	1021	527	0	0	
14	0	0	0	0	1021	290	1021	649	0	0	
15	0	0	0	0	1021	286	1021	745	0	0	
0	0	0	0	0	1021	281	1021	803	0	0	
1	0	0	0	0	1021	275	1021	819	0	0	
2	0	0	0	0	1021	267	1021	788	0	0	
3	0	0	0	0	1021	258	1021	712	0	0	
4	0	0	0	0	1021	249	1021	600	0	0	
5	0	0	0	0	1022	242	1020	462	0	0	
6	0	0	0	0	1021	236	1021	311	0	0	
7	0	0	0	0	1021	231	1021	164	0	0	
8	0	0	0	0	1021	228	1021	34	0	0	
9	0	0	0	0	1021	227	1020	0	0	0	
10	0	0	0	0	1022	227	1021	0	0	0	
11	0	0	0	0	1021	230	1021	0	0	0	
12	0	0	0	0	1021	234	1021	0	0	0	
13	0	0	0	0	1021	238	1021	58	0	0	
14	0	0	0	0	1022	243	1021	159	0	0	
15	0	0	0	0	1022	248	1020	288	0	0	
0	0	0	0	0	1021	252	1021	434	0	0	
1	0	0	0	0	1021	255	1021	580	0	0	
2	0	0	0	0	1021	256	1021	713	0	0	
3	0	0	0	0	1021	256	1021	818	0	0	
4	0	0	0	0	1021	254	1021	883	0	0	
5	0	0	0	0	1021	251	1021	902	0	0	
6	0	0	0	0	1021	247	1021	872	0	0	
7	0	0	0	0	1021	242	1021	795	0	0	
8	0	0	0	0	1021	237	1020	678	0	0	
9	0	0	0	0	1022	233	1020	533	0	0	
10	0	0	0	0	1021	229	1021	375	0	0	
11	0	0	0	0	1021	227	1021	219	0	0	
12	0	0	0	0	1021	227	1021	82	0	0	
13	0	0	0	0	1021	228	1021	0	0	0	
14	0	0	0	0	1022	231	1021	0	0	0	
15	0	0	0	0	1021	237	1021	0	0	0	
0	0	0	0	0	1021	244	1021	3	0	0	
1	0	0	0	0	1021	252	1021	73	0	0	
2	0	0	0	0	1021	259	1020	184	0	0	
3	0	0	0	0	1021	266	1021	323	0	0	
4	0	0	0	0	1021	272	1021	479	0	0	
5	0	0	0	0	1021	278	1021	636	0	0	
6	0	0	0	0	1021	281	1021	778	0	0	
7	0	0	0	0	1021	285	1021	892	0	0	
8	0	0	0	0	1022	287	1021	968	0	0	
9	0	0	0	0	1021	290	1021	999	0	0	
10	0	0	0	0	1021	294	1021	981	0	0	
11	0	0	0	0	1021	297	1021	916	0	0	
12	0	0	0	0	1021	300	1020	809	0	0	
13	0	0	0	0	1022	304	1021	672	0	0	
14	0	0	0	0	1021	307	1021	520	0	0	
15	0	0	0	0	1021	311	1021	367	0	0	
0	0	0	0	0	1021	313	1021	230	0	0	
1	0	0	0	0	1021	315	1021	121	0	0	
2	0	0	0	0	1021	315	1021	51	0	0	
3	0	0	0	0	1021	313	1021	27	0	0	
4	0	0	0	0	1021	312	1021	51	0	0	
5	0	0	0	0	1021	308	1021	123	0	0	
6	0	0	0	0	1021	304	1021	231	0	0	
7	0	0	0	0	1021	300	1020	367	0	0	
8	0	0	0	0	1021	296	1021	515	0	0	
9	0	0	0	0	1021	294	1021	661	0	0	
10	0	0	0	0	1021	291	1021	787	0	0	
11	0	0	0	0	1021	288	1021	882	0	0	
12	0	0	0	0	1022	287	1020	936	0	0	
13	0	0	0	0	1021	287	1021	944	0	0	
14	0	0	0	0	1021	287	1021	902	0	0	
15	0	0	0	0	1021	289	1021	813	0	0	
0	0	0	0	0	1021	291	1021	686	0	0	
1	0	0	0	0	1022	295	1021	532	0	0	
2	0	0	0	0	1021	299	1021	367	0	0	
3	0	0	0	0	1021	303	1021	204	0	0	
4	0	0	0	0	1021	307	1021	61	0	0	
5	0	0	0	0	1021	311	1021	0	0	0	
6	0	0	0	0	1021	315	1021	0	0	0	
7	0	0	0	0	1021	318	1021	0	0	0	
8	0	0	0	0	1021	321	1021	0	0	0	
9	0	0	0	0	1021	324	1021	38	0	0	
10	0	0	0	0	1021	326	1021	127	0	0	
11	0	0	0	0	1022	329	1020	246	0	0	
12	0	0	0	0	1021	331	1021	383	0	0	
13	0	0	0	0	1021	333	1021	523	0	0	
14	0	0	0	0	1021	335	1021	652	0	0	
15	0	0	0	0	1021	336	1020	757	0	0	
0	0	0	0	0	1022	337	1021	827	0	0	
1	0	0	0	0	1021	339	1021	854	0	0	
2	0	0	0	0	1021	342	1021	837	0	0	
3	0	0	0	0	1021	344	1021	774	0	0	
4	0	0	0	0	1021	346	1021	672	0	0	
5	0	0	0	0	1022	348	1020	541	0	0	
6	0	0	0	0	1021	348	1021	395	0	0	
7	0	0	0	0	1021	348	1021	248	0	0	
8	0	0	0	0	1021	347	1021	117	0	0	
9	0	0	0	0	1021	345	1021	13	0	0	
10	0	0	0	0	1022	343	1021	0	0	0	
11	0	0	0	0	1021	339	1021	0	0	0	
12	0	0	0	0	1021	336	1021	13	0	0	
13	0	0	0	0	1021	332	1021	91	0	0	
14	0	0	0	0	1021	329	1021	211	0	0	
15	0	0	0	0	1022	329	1020	363	0	0	
0	0	0	0	0	1021	329	1021	532	0	0	
1	0	0	0	0	1021	332	1021	702	0	0	
2	0	0	0	0	1021	336	1021	856	0	0	
3	0	0	0	0	1021	342	1021	982	0	0	
4	0	0	0	0	1022	348	1021	1021	0	0	
5	0	0	0	0	1021	355	1021	1021	0	0	
6	0	0	0	0	1021	363	1021	1021	0	0	
7	0	0	0	0	1021	370	1021	971	0	0	
8	0	0	0	0	1021	377	1021	870	0	0	
9	0	0	0	0	1022	384	1020	735	0	0	
10	0	0	0	0	1021	390	1021	582	0	0	
11	0	0	0	0	1021	394	1021	422	0	0	
12	0	0	0	0	1021	397	1021	273	0	0	
13	0	0	0	0	1021	399	1021	149	0	0	
14	0	0	0	0	1022	398	1021	59	0	0	
15	0	0	0	0	1021	396	1021	13	0	0	
0	0	0	0	0	1021	392	1021	15	0	0	
1	0	0	0	0	1021	387	1021	65	0	0	
2	0	0	0	0	1021	381	1021	160	0	0	
3	0	0	0	0	1021	374	1021	289	0	0	
4	0	0	0	0	1021	368	1021	441	0	0	
5	0	0	0	0	1021	363	1021	599	0	0	
6	0	0	0	0	1021	360	1021	748	0	0	
7	0	0	0	0	1021	358	1021	871	0	0	
8	0	0	0	0	1022	358	1021	956	0	0	
9	0	0	0	0	1021	359	1021	994	0	0	
10	0	0	0	0	1021	361	1021	979	0	0	
11	0	0	0	0	1021	364	1021	910	0	0	
12	0	0	0	0	1021	368	1021	794	0	0	
13	0	0	0	0	1021	372	1021	643	0	0	
14	0	0	0	0	1021	376	1021	471	0	0	
15	0	0	0	0	1021	379	1021	296	0	0	
0	0	0	0	0	1021	382	1021	135	0	0	
1	0	0	0	0	1021	383	1021	3	0	0	
2	0	0	0	0	1021	382	1021	0	0	0	
3	0	0	0	0	1021	380	1021	0	0	0	
4	0	0	0	0	1021	376	1021	0	0	0	
5	0	0	0	0	1021	369	1021	22	0	0	
6	0	0	0	0	1021	361	1021	107	0	0	
7	0	0	0	0	1021	352	1021	224	0	0	
8	0	0	0	0	1021	340	1021	361	0	0	
9	0	0	0	0	1021	327	1021	504	0	0	
10	0	0	0	0	1021	313	1021	636	0	0	
11	0	0	0	0	1021	297	1020	742	0	0	
12	0	0	0	0	1022	282	1020	810	0	0	
13	0	0	0	0	1021	265	1021	831	0	0	
14	0	0	0	0	1021	248	1021	800	0	0	
15	0	0	0	0	1021	229	1021	718	0	0	
0	0	0	0	0	1021	209	1021	591	0	0	
1	0	0	0	0	1021	190	1021	430	0	0	
2	0	0	0	0	1021	170	1021	251	0	0	
3	0	0	0	0	1021	150	1021	70	0	0	
4	0	0	0	0	1021	131	1021	0	0	0	
5	0	0	0	0	1021	112	1020	0	0	0	
6	0	0	0	0	1021	95	1021	0	0	0	
7	0	0	0	0	1021	80	1021	0	0	0	
8	0	0	0	0	1021	69	1021	0	0	0	
9	0	0	0	0	1021	61	1021	0	0	0	
10	0	0	0	0	1021	58	1020	0	0	0	
11	0	0	0	0	1021	60	1020	42	0	0	
12	0	0	0	0	1021	68	1021	125	0	0	
13	0	0	0	0	1021	82	1021	230	0	0	
14	0	0	0	0	1021	101	1021	344	0	0	
15	0	0	0	0	1021	125	1020	454	0	0	
0	0	0	0	0	1021	154	1021	547	0	0	
1	0	0	0	0	1021	187	1021	613	0	0	
2	0	0	0	0	1021	222	1021	646	0	0	
3	0	0	0	0	1021	258	1021	642	0	0	
4	0	0	0	0	1021	294	1020	604	0	0	
5	0	0	0	0	1022	328	1020	539	0	0	
6	0	0	0	0	1021	359	1021	456	0	0	
7	0	0	0	0	1021	388	1021	367	0	0	
8	0	0	0	0	1021	412	1021	284	0	0	
9	0	0	0	0	1021	431	1021	216	0	0	
10	0	0	0	0	1022	446	1020	175	0	0	
11	0	0	0	0	1021	456	1021	167	0	0	
12	0	0	0	0	1021	462	1021	195	0	0	
13	0	0	0	0	1021	464	1021	260	0	0	
14	0	0	0	0	1021	463	1020	355	0	0	
15	0	0	0	0	1021	459	1021	471	0	0	
0	0	0	0	0	1021	451	1021	595	0	0	
1	0	0	0	0	1021	442	1021	715	0	0	
2	0	0	0	0	1021	431	1021	817	0	0	
3	0	0	0	0	1021	421	1021	891	0	0	
4	0	0	0	0	1021	412	1021	929	0	0	
5	0	0	0	0	1021	406	1021	924	0	0	
6	0	0	0	0	1021	402	1021	875	0	0	
7	0	0	0	0	1021	401	1021	782	0	0	
8	0	0	0	0	1021	401	1021	653	0	0	
9	0	0	0	0	1021	404	1021	499	0	0	
10	0	0	0	0	1021	409	1021	334	0	0	
11	0	0	0	0	1021	414	1021	174	0	0	
12	0	0	0	0	1021	419	1021	31	0	0	
13	0	0	0	0	1021	424	1021	0	0	0	
14	0	0	0	0	1021	428	1021	0	0	0	
15	0	0	0	0	1021	429	1021	0	0	0	
0	0	0	0	0	1021	430	1021	0	0	0	
1	0	0	0	0	1021	429	1021	12	0	0	
2	0	0	0	0	1021	427	1021	79	0	0	
3	0	0	0	0	1021	425	1021	177	0	0	
4	0	0	0	0	1021	422	1021	293	0	0	
5	0	0	0	0	1021	419	1021	416	0	0	
6	0	0	0	0	1021	416	1021	531	0	0	
7	0	0	0	0	1021	415	1021	627	0	0	
8	0	0	0	0	1021	415	1021	692	0	0	
9	0	0	0	0	1021	415	1021	719	0	0	
10	0	0	0	0	1021	419	1021	705	0	0	
11	0	0	0	0	1021	423	1021	650	0	0	
12	0	0	0	0	1021	428	1021	562	0	0	
13	0	0	0	0	1021	433	1020	448	0	0	
14	0	0	0	0	1021	436	1021	323	0	0	
15	0	0	0	0	1021	440	1021	198	0	0	
0	0	0	0	0	1021	441	1021	88	0	0	
1	0	0	0	0	1021	442	1021	3	0	0	
2	0	0	0	0	1021	441	1021	0	0	0	
3	0	0	0	0	1021	440	1021	0	0	0	
4	0	0	0	0	1021	437	1021	12	0	0	
5	0	0	0	0	1021	434	1021	77	0	0	
6	0	0	0	0	1021	430	1021	174	0	0	
7	0	0	0	0	1021	426	1021	292	0	0	
8	0	0	0	0	1021	422	1021	421	0	0	
9	0	0	0	0	1021	418	1021	545	0	0	
10	0	0	0	0	1021	413	1021	653	0	0	
11	0	0	0	0	1021	409	1020	732	0	0	
12	0	0	0	0	1021	406	1020	771	0	0	
13	0	0	0	0	1021	403	1021	767	0	0	
14	0	0	0	0	1021	400	1021	715	0	0	
15	0	0	0	0	1021	397	1021	618	0	0	
0	0	0	0	0	1021	394	1021	486	0	0	
1	0	0	0	0	1021	390	1021	327	0	0	
2	0	0	0	0	1021	384	1021	159	0	0	
3	0	0	0	0	1021	379	1021	0	0	0	
4	0	0	0	0	1021	373	1021	0	0	0	
5	0	0	0	0	1021	368	1021	0	0	0	
6	0	0	0	0	1021	364	1021	0	0	0	
7	0	0	0	0	1021	363	1021	0	0	0	
8	0	0	0	0	1021	365	1021	0	0	0	
9	0	0	0	0	1021	370	1021	0	0	0	
10	0	0	0	0	1021	377	1021	30	0	0	
11	0	0	0	0	1021	385	1020	113	0	0	
12	0	0	0	0	1021	395	1021	223	0	0	
13	0	0	0	0	1021	406	1021	346	0	0	
14	0	0	0	0	1021	416	1021	469	0	0	
15	0	0	0	0	1021	425	1020	577	0	0	
0	0	0	0	0	1021	433	1021	657	0	0	
1	0	0	0	0	1021	440	1021	699	0	0	
2	0	0	0	0	1021	444	1021	698	0	0	
3	0	0	0	0	1021	445	1021	653	0	0	
4	0	0	0	0	1021	443	1021	568	0	0	
5	0	0	0	0	1021	440	1021	451	0	0	
6	0	0	0	0	1021	434	1021	316	0	0	
7	0	0	0	0	1021	427	1021	176	0	0	
8	0	0	0	0	1021	418	1021	47	0	0	
9	0	0	0	0	1021	409	1021	0	0	0	
10	0	0	0	0	1022	399	1021	0	0	0	
11	0	0	0	0	1021	391	1021	0	0	0	
12	0	0	0	0	1021	383	1021	0	0	0	
13	0	0	0	0	1021	377	1021	15	0	0	
14	0	0	0	0	1021	372	1021	84	0	0	
15	0	0	0	0	1021	370	1020	185	0	0	
0	0	0	0	0	1021	370	1021	303	0	0	
1	0	0	0	0	1021	371	1021	429	0	0	
2	0	0	0	0	1021	375	1021	546	0	0	
3	0	0	0	0	1021	379	1021	642	0	0	
4	0	0	0	0	1021	385	1021	705	0	0	
5	0	0	0	0	1021	392	1021	728	0	0	
6	0	0	0	0	1021	399	1021	707	0	0	
7	0	0	0	0	1021	406	1021	641	0	0	
8	0	0	0	0	1021	412	1021	538	0	0	
9	0	0	0	0	1021	417	1021	408	0	0	
10	0	0	0	0	1021	421	1021	263	0	0	
11	0	0	0	0	1021	423	1021	119	0	0	
12	0	0	0	0	1021	423	1021	0	0	0	
13	0	0	0	0	1021	422	1021	0	0	0	
14	0	0	0	0	1021	418	1021	0	0	0	
15	0	0	0	0	1021	414	1021	0	0	0	
0	0	0	0	0	1021	409	1021	0	0	0	
1	0	0	0	0	1021	405	1021	0	0	0	
2	0	0	0	0	1021	401	1021	56	0	0	
3	0	0	0	0	1021	398	1021	143	0	0	
4	0	0	0	0	1021	396	1021	249	0	0	
5	0	0	0	0	1021	395	1021	361	0	0	
6	0	0	0	0	1021	394	1021	468	0	0	
7	0	0	0	0	1021	395	1021	556	0	0	
8	0	0	0	0	1022	396	1021	614	0	0	
9	0	0	0	0	1021	398	1021	635	0	0	
10	0	0	0	0	1021	402	1021	614	0	0	
11	0	0	0	0	1021	406	1021	552	0	0	
12	0	0	0	0	1021	411	1021	455	0	0	
13	0	0	0	0	1021	416	1021	332	0	0	
14	0	0	0	0	1021	422	1021	196	0	0	
15	0	0	0	0	1021	427	1021	60	0	0	
0	0	0	0	0	1021	431	1021	0	0	0	
1	0	0	0	0	1021	434	1021	0	0	0	
2	0	0	0	0	1021	434	1021	0	0	0	
3	0	0	0	0	1021	433	1021	0	0	0	
4	0	0	0	0	1021	431	1021	0	0	0	
5	0	0	0	0	1021	427	1021	0	0	0	
6	0	0	0	0	1021	422	1021	43	0	0	
7	0	0	0	0	1021	416	1021	122	0	0	
8	0	0	0	0	1021	408	1021	222	0	0	
9	0	0	0	0	1021	401	1021	331	0	0	
10	0	0	0	0	1021	393	1021	435	0	0	
11	0	0	0	0	1021	384	1021	521	0	0	
12	0	0	0	0	1022	376	1021	576	0	0	
13	0	0	0	0	1021	367	1021	593	0	0	
14	0	0	0	0	1021	359	1021	568	0	0	
15	0	0	0	0	1021	351	1021	499	0	0	
0	0	0	0	0	1021	345	1021	394	0	0	
1	0	0	0	0	1021	339	1021	264	0	0	
2	0	0	0	0	1021	335	1021	123	0	0	
3	0	0	0	0	1021	334	1021	0	0	0	
4	0	0	0	0	1021	332	1021	0	0	0	
5	0	0	0	0	1021	333	1021	0	0	0	
6	0	0	0	0	1021	335	1021	0	0	0	
7	0	0	0	0	1021	339	1021	0	0	0	
8	0	0	0	0	1021	343	1021	0	0	0	
9	0	0	0	0	1021	348	1021	0	0	0	
10	0	0	0	0	1021	353	1020	37	0	0	
11	0	0	0	0	1021	359	1021	115	0	0	
12	0	0	0	0	1021	364	1021	214	0	0	
13	0	0	0	0	1021	368	1021	322	0	0	
14	0	0	0	0	1021	372	1021	428	0	0	
15	0	0	0	0	1021	375	1020	518	0	0	
0	0	0	0	0	1021	377	1021	582	0	0	
1	0	0	0	0	1021	378	1021	611	0	0	
2	0	0	0	0	1021	379	1021	604	0	0	
3	0	0	0	0	1021	377	1021	559	0	0	
4	0	0	0	0	1021	375	1021	482	0	0	
5	0	0	0	0	1021	372	1020	382	0	0	
6	0	0	0	0	1021	368	1021	270	0	0	
7	0	0	0	0	1021	363	1021	161	0	0	
8	0	0	0	0	1021	357	1021	65	0	0	
9	0	0	0	0	1021	352	1021	0	0	0	
10	0	0	0	0	1021	347	1021	0	0	0	
11	0	0	0	0	1021	342	1021	0	0	0	
12	0	0	0	0	1021	339	1021	36	0	0	
13	0	0	0	0	1021	337	1021	119	0	0	
14	0	0	0	0	1021	335	1021	235	0	0	
15	0	0	0	0	1021	335	1021	373	0	0	
0	0	0	0	0	1021	335	1021	520	0	0	
1	0	0	0	0	1021	335	1021	661	0	0	
2	0	0	0	0	1021	337	1021	782	0	0	
3	0	0	0	0	1021	339	1021	869	0	0	
4	0	0	0	0	1021	342	1021	912	0	0	
5	0	0	0	0	1021	345	1021	907	0	0	
6	0	0	0	0	1021	350	1021	851	0	0	
7	0	0	0	0	1021	355	1021	745	0	0	
8	0	0	0	0	1021	359	1021	599	0	0	
9	0	0	0	0	1022	364	1020	426	0	0	
10	0	0	0	0	1021	369	1021	239	0	0	
11	0	0	0	0	1021	373	1021	56	0	0	
12	0	0	0	0	1021	376	1021	0	0	0	
13	0	0	0	0	1021	377	1021	0	0	0	
14	0	0	0	0	1021	379	1021	0	0	0	
15	0	0	0	0	1021	379	1021	0	0	0	
0	0	0	0	0	1021	379	1021	0	0	0	
1	0	0	0	0	1021	378	1021	0	0	0	
2	0	0	0	0	1021	377	1021	0	0	0	
3	0	0	0	0	1022	377	1020	51	0	0	
4	0	0	0	0	1021	376	1021	128	0	0	
5	0	0	0	0	1021	376	1021	220	0	0	
6	0	0	0	0	1021	375	1021	314	0	0	
7	0	0	0	0	1021	375	1021	397	0	0	
8	0	0	0	0	1022	373	1021	457	0	0	
9	0	0	0	0	1021	371	1021	486	0	0	
10	0	0	0	0	1021	369	1021	477	0	0	
11	0	0	0	0	1021	366	1021	431	0	0	
12	0	0	0	0	1021	361	1020	349	0	0	
13	0	0	0	0	1021	357	1021	240	0	0	
14	0	0	0	0	1021	353	1021	116	0	0	
15	0	0	0	0	1021	348	1021	0	0	0	
0	0	0	0	0	1021	345	1021	0	0	0	
1	0	0	0	0	1021	342	1021	0	0	0	
2	0	0	0	0	1021	340	1021	0	0	0	
3	0	0	0	0	1021	339	1021	0	0	0	
4	0	0	0	0	1021	339	1021	0	0	0	
5	0	0	0	0	1021	340	1021	0	0	0	
6	0	0	0	0	1021	341	1021	0	0	0	
7	0	0	0	0	1022	342	1021	7	0	0	
8	0	0	0	0	1021	342	1021	54	0	0	
9	0	0	0	0	1021	340	1021	119	0	0	
10	0	0	0	0	1021	337	1021	192	0	0	
11	0	0	0	0	1021	333	1020	263	0	0	
12	0	0	0	0	1022	329	1020	321	0	0	
13	0	0	0	0	1021	324	1021	359	0	0	
14	0	0	0	0	1021	321	1021	369	0	0	
15	0	0	0	0	1021	318	1021	351	0	0	
0	0	0	0	0	1021	315	1021	304	0	0	
1	0	0	0	0	1021	313	1021	236	0	0	
2	0	0	0	0	1021	314	1021	155	0	0	
3	0	0	0	0	1021	315	1021	68	0	0	
4	0	0	0	0	1021	315	1021	0	0	0	
5	0	0	0	0	1021	316	1020	0	0	0	
6	0	0	0	0	1021	316	1021	0	0	0	
7	0	0	0	0	1021	315	1021	0	0	0	
8	0	0	0	0	1021	313	1021	0	0	0	
9	0	0	0	0	1021	310	1021	23	0	0	
10	0	0	0	0	1021	305	1021	81	0	0	
11	0	0	0	0	1021	299	1021	160	0	0	
12	0	0	0	0	1021	293	1021	252	0	0	
13	0	0	0	0	1021	286	1021	344	0	0	
14	0	0	0	0	1021	280	1021	427	0	0	
15	0	0	0	0	1021	274	1021	488	0	0	
0	0	0	0	0	1022	269	1021	518	0	0	
1	0	0	0	0	1021	267	1021	512	0	0	
2	0	0	0	0	1021	266	1021	466	0	0	
3	0	0	0	0	1021	268	1021	383	0	0	
4	0	0	0	0	1021	271	1021	269	0	0	
5	0	0	0	0	1021	276	1020	133	0	0	
6	0	0	0	0	1021	283	1021	0	0	0	
7	0	0	0	0	1021	289	1021	0	0	0	
8	0	0	0	0	1021	296	1021	0	0	0	
9	0	0	0	0	1021	303	1021	0	0	0	
10	0	0	0	0	1021	308	1021	0	0	0	
11	0	0	0	0	1021	313	1021	0	0	0	
12	0	0	0	0	1021	316	1021	0	0	0	
13	0	0	0	0	1021	318	1021	0	0	0	
14	0	0	0	0	1021	319	1021	0	0	0	
15	0	0	0	0	1021	319	1021	0	0	0	
0	0	0	0	0	1021	317	1021	20	0	0	
1	0	0	0	0	1021	314	1021	71	0	0	
2	0	0	0	0	1021	311	1021	130	0	0	
3	0	0	0	0	1021	308	1021	185	0	0	
4	0	0	0	0	1021	306	1021	227	0	0	
5	0	0	0	0	1021	305	1021	247	0	0	
6	0	0	0	0	1021	306	1021	239	0	0	
7	0	0	0	0	1021	307	1021	199	0	0	
8	0	0	0	0	1021	311	1021	131	0	0	
9	0	0	0	0	1022	315	1020	43	0	0	
10	0	0	0	0	1021	320	1021	0	0	0	
11	0	0	0	0	1021	326	1021	0	0	0	
12	0	0	0	0	1021	331	1021	0	0	0	
13	0	0	0	0	1021	335	1020	0	0	0	
14	0	0	0	0	1021	337	1020	0	0	0	
15	0	0	0	0	1021	338	1021	0	0	0	
0	0	0	0	0	1021	336	1021	0	0	0	
1	0	0	0	0	1021	333	1021	0	0	0	
2	0	0	0	0	1021	327	1021	0	0	0	
3	0	0	0	0	1021	322	1021	0	0	0	
4	0	0	0	0	1021	316	1021	0	0	0	
5	0	0	0	0	1021	310	1021	3	0	0	
6	0	0	0	0	1021	305	1021	22	0	0	
7	0	0	0	0	1021	301	1021	39	0	0	
8	0	0	0	0	1021	298	1021	44	0	0	
9	0	0	0	0	1021	297	1021	33	0	0	
10	0	0	0	0	1021	296	1021	0	0	0	
11	0	0	0	0	1021	296	1021	0	0	0	
12	0	0	0	0	1021	297	1020	0	0	0	
13	0	0	0	0	1021	299	1021	0	0	0	
14	0	0	0	0	1021	301	1021	0	0	0	
15	0	0	0	0	1021	304	1021	0	0	0	
0	0	0	0	0	1021	306	1021	0	0	0	
1	0	0	0	0	1021	310	1021	0	0	0	
2	0	0	0	0	1021	312	1020	0	0	0	
3	0	0	0	0	1021	315	1021	0	0	0	
4	0	0	0	0	1021	317	1021	0	0	0	
5	0	0	0	0	1021	319	1021	0	0	0	
6	0	0	0	0	1021	322	1021	0	0	0	
7	0	0	0	0	1021	325	1021	0	0	0	
8	0	0	0	0	1021	328	1021	0	0	0	
9	0	0	0	0	1021	332	1021	0	0	0	
10	0	0	0	0	1021	335	1021	0	0	0	
11	0	0	0	0	1021	338	1021	0	0	0	
12	0	0	0	0	1021	341	1020	0	0	0	
13	0	0	0	0	1021	344	1021	0	0	0	
14	0	0	0	0	1021	347	1021	0	0	0	
15	0	0	0	0	1021	348	1021	0	0	0	
0	0	0	0	0	1021	351	1021	0	0	0	
1	0	0	0	0	1021	353	1021	0	0	0	
2	0	0	0	0	1021	355	1021	0	0	0	
3	0	0	0	0	1021	358	1021	0	0	0	
4	0	0	0	0	1021	359	1021	0	0	0	
5	0	0	0	0	1021	361	1021	0	0	0	
6	0	0	0	0	1021	363	1021	0	0	0	
7	0	0	0	0	1021	363	1021	0	0	0	
8	0	0	0	0	1021	363	1021	0	0	0	
9	0	0	0	0	1021	361	1021	0	0	0	
10	0	0	0	0	1021	359	1021	0	0	0	
11	0	0	0	0	1021	356	1021	0	0	0	
12	0	0	0	0	1021	353	1021	0	0	0	
13	0	0	0	0	1021	349	1021	0	0	0	
14	0	0	0	0	1021	345	1021	0	0	0	
15	0	0	0	0	1021	341	1021	0	0	0	
0	0	0	0	0	1021	338	1021	0	0	0	
1	0	0	0	0	1021	335	1021	0	0	0	
2	0	0	0	0	1021	334	1021	0	0	0	
3	0	0	0	0	1021	332	1021	0	0	0	
4	0	0	0	0	1021	331	1021	0	0	0	
5	0	0	0	0	1021	330	1020	0	0	0	
6	0	0	0	0	1021	330	1021	0	0	0	
7	0	0	0	0	1021	331	1021	0	0	0	
8	0	0	0	0	1021	333	1021	0	0	0	
9	0	0	0	0	1021	335	1021	0	0	0	
10	0	0	0	0	1021	336	1020	0	0	0	
11	0	0	0	0	1021	338	1021	0	0	0	
12	0	0	0	0	1021	339	1021	0	0	0	
13	0	0	0	0	1021	339	1021	0	0	0	
14	0	0	0	0	1021	339	1021	0	0	0	
15	0	0	0	0	1021	340	1021	0	0	0	
0	0	0	0	0	1021	341	1021	0	0	0	
1	0	0	0	0	1021	344	1021	0	0	0	
2	0	0	0	0	1021	349	1021	0	0	0	
3	0	0	0	0	1021	354	1021	0	0	0	
4	0	0	0	0	1021	360	1021	0	0	0	
5	0	0	0	0	1021	366	1021	0	0	0	
6	0	0	0	0	1021	371	1021	0	0	0	
7	0	0	0	0	1021	376	1021	0	0	0	
8	0	0	0	0	1021	379	1021	0	0	0	
9	0	0	0	0	1021	380	1021	0	0	0	
10	0	0	0	0	1021	381	1021	0	0	0	
11	0	0	0	0	1021	380	1021	0	0	0	
12	0	0	0	0	1021	377	1021	0	0	0	
13	0	0	0	0	1021	374	1020	0	0	0	
14	0	0	0	0	1021	370	1020	0	0	0	
15	0	0	0	0	1021	367	1021	0	0	0	
0	0	0	0	0	1021	364	1021	0	0	0	
1	0	0	0	0	1021	361	1021	0	0	0	
2	0	0	0	0	1021	360	1021	0	0	0	
3	0	0	0	0	1021	359	1021	0	0	0	
4	0	0	0	0	1021	360	1021	0	0	0	
5	0	0	0	0	1021	362	1021	0	0	0	
6	0	0	0	0	1021	366	1021	0	0	0	
7	0	0	0	0	1021	370	1021	0	0	0	
8	0	0	0	0	1021	376	1021	0	0	0	
9	0	0	0	0	1021	382	1021	0	0	0	
10	0	0	0	0	1021	388	1021	0	0	0	
11	0	0	0	0	1021	395	1021	0	0	0	
12	0	0	0	0	1021	400	1021	0	0	0	
13	0	0	0	0	1021	406	1021	0	0	0	
14	0	0	0	0	1021	410	1021	0	0	0	
15	0	0	0	0	1021	414	1021	0	0	0	
0	0	0	0	0	1021	417	1021	0	0	0	
1	0	0	0	0	1021	419	1021	0	0	0	
2	0	0	0	0	1021	422	1020	0	0	0	
3	0	0	0	0	1021	423	1021	0	0	0	
4	0	0	0	0	1021	425	1021	0	0	0	
5	0	0	0	0	1021	426	1021	0	0	0	
6	0	0	0	0	1021	427	1021	0	0	0	
7	0	0	0	0	1021	428	1021	0	0	0	
8	0	0	0	0	1021	430	1021	0	0	0	
9	0	0	0	0	1021	431	1021	0	0	0	
10	0	0	0	0	1021	431	1021	0	0	0	
11	0	0	0	0	1021	431	1021	0	0	0	
12	0	0	0	0	1021	430	1021	0	0	0	
13	0	0	0	0	1021	428	1021	0	0	0	
14	0	0	0	0	1021	426	1021	0	0	0	
15	0	0	0	0	1021	423	1021	0	0	0	
0	0	0	0	0	1021	419	1021	0	0	0	
1	0	0	0	0	1021	415	1021	0	0	0	
2	0	0	0	0	1021	410	1021	0	0	0	
3	0	0	0	0	1021	406	1021	0	0	0	
4	0	0	0	0	1021	402	1021	0	0	0	
5	0	0	0	0	1021	399	1021	0	0	0	
6	0	0	0	0	1021	396	1021	0	0	0	
7	0	0	0	0	1021	395	1021	0	0	0	
8	0	0	0	0	1021	395	1021	0	0	0	
9	0	0	0	0	1021	394	1021	0	0	0	
10	0	0	0	0	1021	393	1021	0	0	0	
11	0	0	0	0	1021	393	1021	0	0	0	
12	0	0	0	0	1021	393	1021	0	0	0	
13	0	0	0	0	1021	393	1021	0	0	0	
14	0	0	0	0	1021	393	1021	0	0	0	
15	0	0	0	0	1021	394	1021	0	0	0	
0	0	0	0	0	1021	395	1021	0	0	0	
1	0	0	0	0	1021	396	1021	0	0	0	
2	0	0	0	0	1021	399	1021	0	0	0	
3	0	0	0	0	1021	400	1021	0	0	0	
4	0	0	0	0	1021	402	1021	0	0	0	
5	0	0	0	0	1021	403	1020	0	0	0	
6	0	0	0	0	1021	405	1021	0	0	0	
7	0	0	0	0	1021	406	1021	0	0	0	
8	0	0	0	0	1021	407	1021	0	0	0	
9	0	0	0	0	1021	409	1021	0	0	0	
10	0	0	0	0	1021	410	1021	0	0	0	
11	0	0	0	0	1021	411	1021	0	0	0	
12	0	0	0	0	1021	412	1021	0	0	0	
13	0	0	0	0	1021	411	1021	0	0	0	
14	0	0	0	0	1021	410	1021	0	0	0	
15	0	0	0	0	1021	408	1021	0	0	0	
0	0	0	0	0	1021	406	1021	0	0	0	
1	0	0	0	0	1021	405	1021	0	0	0	
2	0	0	0	0	1021	404	1021	0	0	0	
3	0	0	0	0	1021	405	1021	0	0	0	
4	0	0	0	0	1021	406	1021	0	0	0	
5	0	0	0	0	1021	407	1021	0	0	0	
6	0	0	0	0	1021	409	1021	0	0	0	
7	0	0	0	0	1021	411	1021	0	0	0	
8	0	0	0	0	1021	413	1021	0	0	0	
9	0	0	0	0	1021	414	1021	0	0	0	
10	0	0	0	0	1021	415	1021	0	0	0	
11	0	0	0	0	1021	415	1021	0	0	0	
12	0	0	0	0	1021	414	1021	0	0	0	
13	0	0	0	0	1021	413	1021	0	0	0	
14	0	0	0	0	1021	412	1021	0	0	0	
15	0	0	0	0	1021	411	1021	0	0	0	
0	0	0	0	0	1021	411	1021	0	0	0	
1	0	0	0	0	1021	413	1021	0	0	0	
2	0	0	0	0	1021	415	1021	0	0	0	
3	0	0	0	0	1021	418	1021	0	0	0	
4	0	0	0	0	1021	421	1021	0	0	0	
5	0	0	0	0	1021	423	1021	0	0	0	
6	0	0	0	0	1021	426	1021	0	0	0	
7	0	0	0	0	1021	428	1021	0	0	0	
8	0	0	0	0	1021	429	1021	0	0	0	
9	0	0	0	0	1021	429	1021	0	0	0	
10	0	0	0	0	1021	429	1021	0	0	0	
11	0	0	0	0	1021	428	1021	0	0	0	
12	0	0	0	0	1021	426	1021	0	0	0	
13	0	0	0	0	1021	424	1021	0	0	0	
14	0	0	0	0	1021	422	1021	0	0	0	
15	0	0	0	0	1021	420	1021	0	0	0	
0	0	0	0	0	1021	419	1021	0	0	0	
1	0	0	0	0	1021	418	1021	0	0	0	
2	0	0	0	0	1021	418	1021	0	0	0	
3	0	0	0	0	1021	419	1021	0	0	0	
4	0	0	0	0	1021	420	1021	0	0	0	
5	0	0	0	0	1021	422	1021	0	0	0	
6	0	0	0	0	1021	423	1021	0	0	0	
7	0	0	0	0	1021	425	1021	0	0	0	
8	0	0	0	0	1021	426	1021	0	0	0	
9	0	0	0	0	1021	427	1021	0	0	0	
10	0	0	0	0	1021	426	1021	0	0	0	
11	0	0	0	0	1021	425	1021	0	0	0	
12	0	0	0	0	1021	423	1021	0	0	0	
13	0	0	0	0	1021	420	1021	0	0	0	
14	0	0	0	0	1021	416	1021	0	0	0	
15	0	0	0	0	1021	413	1021	0	0	0	
0	0	0	0	0	1021	409	1021	0	0	0	
1	0	0	0	0	1021	407	1020	0	0	0	
2	0	0	0	0	1021	405	1021	0	0	0	
3	0	0	0	0	1021	404	1021	0	0	0	
4	0	0	0	0	1021	404	1020	0	0	0	
5	0	0	0	0	1021	405	1021	0	0	0	
6	0	0	0	0	1021	407	1021	0	0	0	
7	0	0	0	0	1021	409	1021	0	0	0	
8	0	0	0	0	1021	413	1021	0	0	0	
9	0	0	0	0	1021	415	1021	0	0	0	
10	0	0	0	0	1021	417	1021	0	0	0	
11	0	0	0	0	1021	419	1021	0	0	0	
12	0	0	0	0	1021	419	1021	0	0	0	
13	0	0	0	0	1021	419	1021	0	0	0	
14	0	0	0	0	1021	420	1021	0	0	0	
15	0	0	0	0	1021	421	1021	0	0	0	
0	0	0	0	0	1021	422	1021	0	0	0	
1	0	0	0	0	1021	423	1021	0	0	0	
2	0	0	0	0	1021	424	1021	0	0	0	
3	0	0	0	0	1021	424	1021	0	0	0	
4	0	0	0	0	1021	423	1021	0	0	0	
5	0	0	0	0	1021	422	1021	0	0	0	
6	0	0	0	0	1021	420	1021	0	0	0	
7	0	0	0	0	1021	419	1021	0	0	0	
8	0	0	0	0	1021	419	1021	0	0	0	
9	0	0	0	0	1021	419	1021	0	0	0	
10	0	0	0	0	1021	419	1021	0	0	0	
11	0	0	0	0	1021	420	1021	0	0	0	
12	0	0	0	0	1021	421	1021	0	0	0	
13	0	0	0	0	1021	422	1021	0	0	0	
14	0	0	0	0	1021	422	1021	0	0	0	
15	0	0	0	0	1021	423	1021	0	0	0	
0	0	0	0	0	1021	423	1021	0	0	0	
1	0	0	0	0	1021	422	1021	0	0	0	
2	0	0	0	0	1021	423	1021	0	0	0	
3	0	0	0	0	1021	423	1021	0	0	0	
4	0	0	0	0	1021	423	1021	0	0	0	
5	0	0	0	0	1021	424	1021	0	0	0	
6	0	0	0	0	1021	424	1021	0	0	0	
7	0	0	0	0	1021	423	1021	0	0	0	
8	0	0	0	0	1021	421	1021	0	0	0	
9	0	0	0	0	1021	418	1020	0	0	0	
10	0	0	0	0	1021	415	1021	0	0	0	
11	0	0	0	0	1021	411	1021	0	0	0	
12	0	0	0	0	1021	408	1021	0	0	0	
13	0	0	0	0	1021	408	1021	0	0	0	
14	0	0	0	0	1021	409	1021	0	0	0	
15	0	0	0	0	1021	413	1021	0	0	0	
0	0	0	0	0	1021	420	1021	0	0	0	
1	0	0	0	0	1021	427	1021	0	0	0	
2	0	0	0	0	1021	434	1021	0	0	0	
3	0	0	0	0	1021	440	1021	0	0	0	
4	0	0	0	0	1021	446	1021	0	0	0	
5	0	0	0	0	1021	449	1021	0	0	0	
6	0	0	0	0	1021	451	1021	0	0	0	
7	0	0	0	0	1021	451	1021	0	0	0	
8	0	0	0	0	1021	450	1021	0	0	0	
9	0	0	0	0	1021	448	1021	0	0	0	
10	0	0	0	0	1021	444	1021	0	0	0	
11	0	0	0	0	1021	439	1021	0	0	0	
12	0	0	0	0	1021	434	1021	0	0	0	
13	0	0	0	0	1021	428	1021	0	0	0	
14	0	0	0	0	1021	423	1021	0	0	0	
15	0	0	0	0	1021	419	1021	0	0	0	
0	0	0	0	0	1021	416	1021	0	0	0	
1	0	0	0	0	1021	415	1021	0	0	0	
2	0	0	0	0	1021	414	1021	0	0	0	
3	0	0	0	0	1021	416	1021	0	0	0	
4	0	0	0	0	1021	419	1021	0	0	0	
5	0	0	0	0	1021	424	1021	0	0	0	
6	0	0	0	0	1021	431	1021	0	0	0	
7	0	0	0	0	1021	437	1020	0	0	0	
8	0	0	0	0	1021	445	1021	0	0	0	
9	0	0	0	0	1021	452	1021	0	0	0	
10	0	0	0	0	1021	459	1021	0	0	0	
11	0	0	0	0	1021	466	1021	0	0	0	
12	0	0	0	0	1021	473	1020	0	0	0	
13	0	0	0	0	1021	478	1021	0	0	0	
14	0	0	0	0	1021	482	1021	0	0	0	
15	0	0	0	0	1021	484	1021	0	0	0	
0	0	0	0	0	1021	484	1021	0	0	0	
1	0	0	0	0	1021	481	1021	0	0	0	
2	0	0	0	0	1021	478	1021	0	0	0	
3	0	0	0	0	1021	473	1021	0	0	0	
4	0	0	0	0	1021	467	1021	0	0	0	
5	0	0	0	0	1021	460	1021	0	0	0	
6	0	0	0	0	1021	454	1021	0	0	0	
7	0	0	0	0	1021	447	1021	0	0	0	
8	0	0	0	0	1021	441	1021	0	0	0	
9	0	0	0	0	1021	437	1021	0	0	0	
10	0	0	0	0	1021	434	1021	0	0	0	
11	0	0	0	0	1021	433	1020	0	0	0	
12	0	0	0	0	1021	433	1021	0	0	0	
13	0	0	0	0	1021	434	1021	0	0	0	
14	0	0	0	0	1021	436	1021	0	0	0	
15	0	0	0	0	1021	439	1021	0	0	0	
0	0	0	0	0	1021	441	1021	0	0	0	
1	0	0	0	0	1021	444	1021	0	0	0	
2	0	0	0	0	1021	448	1021	0	0	0	
3	0	0	0	0	1021	451	1021	0	0	0	
4	0	0	0	0	1021	452	1021	0	0	0	
5	0	0	0	0	1021	451	1021	0	0	0	
6	0	0	0	0	1021	448	1021	0	0	0	
7	0	0	0	0	1021	444	1021	0	0	0	
8	0	0	0	0	1021	439	1021	0	0	0	
9	0	0	0	0	1021	432	1021	0	0	0	
10	0	0	0	0	1021	425	1020	0	0	0	
11	0	0	0	0	1021	418	1021	0	0	0	
12	0	0	0	0	1021	411	1021	0	0	0	
13	0	0	0	0	1021	404	1021	0	0	0	
14	0	0	0	0	1021	398	1021	0	0	0	
15	0	0	0	0	1021	393	1020	0	0	0	
0	0	0	0	0	1021	390	1021	0	0	0	
1	0	0	0	0	1021	388	1021	0	0	0	
2	0	0	0	0	1021	389	1021	0	0	0	
3	0	0	0	0	1021	391	1021	0	0	0	
4	0	0	0	0	1021	394	1021	0	0	0	
5	0	0	0	0	1021	399	1021	0	0	0	
6	0	0	0	0	1021	403	1021	0	0	0	
7	0	0	0	0	1021	408	1021	0	0	0	
8	0	0	0	0	1021	413	1021	0	0	0	
9	0	0	0	0	1021	416	1021	0	0	0	
10	0	0	0	0	1021	419	1021	0	0	0	
11	0	0	0	0	1021	420	1021	0	0	0	
12	0	0	0	0	1021	420	1021	0	0	0	
13	0	0	0	0	1021	419	1021	0	0	0	
14	0	0	0	0	1021	416	1021	0	0	0	
15	0	0	0	0	1021	413	1021	0	0	0	
0	0	0	0	0	1021	409	1021	0	0	0	
1	0	0	0	0	1021	406	1021	0	0	0	
2	0	0	0	0	1021	403	1021	0	0	0	
3	0	0	0	0	1021	400	1021	0	0	0	
4	0	0	0	0	1021	399	1021	0	0	0	
5	0	0	0	0	1021	399	1021	0	0	0	
6	0	0	0	0	1021	400	1021	0	0	0	
7	0	0	0	0	1021	402	1021	0	0	0	
8	0	0	0	0	1022	405	1021	0	0	0	
9	0	0	0	0	1021	408	1021	0	0	0	
10	0	0	0	0	1021	413	1021	0	0	0	
11	0	0	0	0	1021	419	1021	0	0	0	
12	0	0	0	0	1021	424	1021	0	0	0	
13	0	0	0	0	1021	429	1021	0	0	0	
14	0	0	0	0	1021	434	1021	0	0	0	
15	0	0	0	0	1021	438	1021	0	0	0	
0	0	0	0	0	1021	441	1021	0	0	0	
1	0	0	0	0	1021	444	1021	0	0	0	
2	0	0	0	0	1021	446	1021	0	0	0	
3	0	0	0	0	1021	448	1021	0	0	0	
4	0	0	0	0	1021	451	1021	0	0	0	
5	0	0	0	0	1021	455	1021	0	0	0	
6	0	0	0	0	1021	459	1021	0	0	0	
7	0	0	0	0	1021	464	1021	0	0	0	
8	0	0	0	0	1021	469	1021	0	0	0	
9	0	0	0	0	1021	473	1021	0	0	0	
10	0	0	0	0	1021	476	1021	0	0	0	
11	0	0	0	0	1021	476	1021	0	0	0	
12	0	0	0	0	1021	475	1020	0	0	0	
13	0	0	0	0	1021	470	1021	0	0	0	
14	0	0	0	0	1021	462	1021	0	0	0	
15	0	0	0	0	1021	450	1021	0	0	0	
0	0	0	0	0	1021	435	1021	0	0	0	
1	0	0	0	0	1021	417	1021	0	0	0	
2	0	0	0	0	1021	397	1021	0	0	0	
3	0	0	0	0	1021	374	1021	0	0	0	
4	0	0	0	0	1021	350	1021	0	0	0	
5	0	0	0	0	1021	323	1021	0	0	0	
6	0	0	0	0	1021	296	1021	0	0	0	
7	0	0	0	0	1021	269	1021	0	0	0	
8	0	0	0	0	1021	242	1021	0	0	0	
9	0	0	0	0	1021	217	1021	0	0	0	
10	0	0	0	0	1021	193	1020	0	0	0	
11	0	0	0	0	1021	172	1020	0	0	0	
12	0	0	0	0	1021	153	1021	0	0	0	
13	0	0	0	0	1021	138	1021	0	0	0	
14	0	0	0	0	1021	126	1021	0	0	0	
15	0	0	0	0	1021	118	1021	0	0	0	
0	0	0	0	0	1021	113	1021	0	0	0	
1	0	0	0	0	1021	114	1021	0	0	0	
2	0	0	0	0	1021	120	1021	0	0	0	
3	0	0	0	0	1021	130	1021	0	0	0	
4	0	0	0	0	1021	145	1021	0	0	0	
5	0	0	0	0	1021	164	1021	0	0	0	
6	0	0	0	0	1021	186	1021	0	0	0	
7	0	0	0	0	1021	211	1021	0	0	0	
8	0	0	0	0	1021	239	1021	0	0	0	
9	0	0	0	0	1021	269	1021	0	0	0	
10	0	0	0	0	1021	300	1020	0	0	0	
11	0	0	0	0	1021	331	1021	0	0	0	
12	0	0	0	0	1021	362	1021	0	0	0	
13	0	0	0	0	1021	391	1021	0	0	0	
14	0	0	0	0	1021	418	1021	0	0	0	
15	0	0	0	0	1021	441	1021	0	0	0	
0	0	0	0	0	1021	461	1021	7	0	0	
1	0	0	0	0	1021	476	1021	71	0	0	
2	0	0	0	0	1021	487	1021	156	0	0	
3	0	0	0	0	1021	492	1021	246	0	0	
4	0	0	0	0	1021	493	1021	328	0	0	
5	0	0	0	0	1021	491	1021	393	0	0	
6	0	0	0	0	1021	484	1021	430	0	0	
7	0	0	0	0	1021	474	1021	435	0	0	
8	0	0	0	0	1021	463	1021	409	0	0	
9	0	0	0	0	1021	452	1020	356	0	0	
10	0	0	0	0	1021	441	1021	284	0	0	
11	0	0	0	0	1021	432	1021	204	0	0	
12	0	0	0	0	1021	425	1021	125	0	0	
13	0	0	0	0	1021	419	1021	59	0	0	
14	0	0	0	0	1021	415	1021	13	0	0	
15	0	0	0	0	1021	414	1021	0	0	0	
0	0	0	0	0	1021	414	1021	11	0	0	
1	0	0	0	0	1021	417	1021	56	0	0	
2	0	0	0	0	1021	423	1021	129	0	0	
3	0	0	0	0	1021	430	1020	223	0	0	
4	0	0	0	0	1021	438	1021	325	0	0	
5	0	0	0	0	1021	446	1021	426	0	0	
6	0	0	0	0	1021	454	1021	511	0	0	
7	0	0	0	0	1021	460	1021	572	0	0	
8	0	0	0	0	1021	464	1021	598	0	0	
9	0	0	0	0	1021	467	1021	585	0	0	
10	0	0	0	0	1021	466	1021	532	0	0	
11	0	0	0	0	1021	463	1021	442	0	0	
12	0	0	0	0	1021	459	1021	321	0	0	
13	0	0	0	0	1021	452	1021	182	0	0	
14	0	0	0	0	1021	446	1021	35	0	0	
15	0	0	0	0	1021	439	1021	0	0	0	
0	0	0	0	0	1021	432	1021	0	0	0	
1	0	0	0	0	1021	428	1021	0	0	0	
2	0	0	0	0	1021	423	1021	0	0	0	
3	0	0	0	0	1021	420	1021	0	0	0	
4	0	0	0	0	1021	419	1021	0	0	0	
5	0	0	0	0	1021	419	1021	0	0	0	
6	0	0	0	0	1021	420	1021	3	0	0	
7	0	0	0	0	1021	422	1021	57	0	0	
8	0	0	0	0	1021	424	1021	137	0	0	
9	0	0	0	0	1021	428	1021	231	0	0	
10	0	0	0	0	1021	431	1021	324	0	0	
11	0	0	0	0	1021	435	1021	408	0	0	
12	0	0	0	0	1021	439	1021	467	0	0	
13	0	0	0	0	1021	443	1021	494	0	0	
14	0	0	0	0	1021	446	1021	483	0	0	
15	0	0	0	0	1021	449	1021	434	0	0	
0	0	0	0	0	1021	452	1021	351	0	0	
1	0	0	0	0	1021	453	1021	243	0	0	
2	0	0	0	0	1021	454	1021	120	0	0	
3	0	0	0	0	1021	454	1021	0	0	0	
4	0	0	0	0	1021	452	1021	0	0	0	
5	0	0	0	0	1021	451	1021	0	0	0	
6	0	0	0	0	1021	450	1021	0	0	0	
7	0	0	0	0	1021	448	1021	0	0	0	
8	0	0	0	0	1021	446	1021	0	0	0	
9	0	0	0	0	1021	443	1021	0	0	0	
10	0	0	0	0	1021	440	1021	27	0	0	
11	0	0	0	0	1021	436	1020	95	0	0	
12	0	0	0	0	1021	433	1021	183	0	0	
13	0	0	0	0	1021	429	1021	280	0	0	
14	0	0	0	0	1021	425	1021	373	0	0	
15	0	0	0	0	1021	422	1021	449	0	0	
0	0	0	0	0	1021	419	1021	498	0	0	
1	0	0	0	0	1021	416	1021	513	0	0	
2	0	0	0	0	1021	414	1021	490	0	0	
3	0	0	0	0	1021	412	1021	431	0	0	
4	0	0	0	0	1021	409	1021	340	0	0	
5	0	0	0	0	1021	408	1021	229	0	0	
6	0	0	0	0	1021	406	1021	107	0	0	
7	0	0	0	0	1021	403	1021	0	0	0	
8	0	0	0	0	1021	400	1021	0	0	0	
9	0	0	0	0	1021	397	1021	0	0	0	
10	0	0	0	0	1021	393	1021	0	0	0	
11	0	0	0	0	1021	391	1021	0	0	0	
12	0	0	0	0	1021	390	1021	0	0	0	
13	0	0	0	0	1021	390	1021	8	0	0	
14	0	0	0	0	1021	392	1021	71	0	0	
15	0	0	0	0	1021	396	1021	165	0	0	
0	0	0	0	0	1021	401	1021	278	0	0	
1	0	0	0	0	1021	407	1021	396	0	0	
2	0	0	0	0	1021	414	1021	508	0	0	
3	0	0	0	0	1021	420	1021	598	0	0	
4	0	0	0	0	1021	425	1021	654	0	0	
5	0	0	0	0	1021	430	1021	670	0	0	
6	0	0	0	0	1021	433	1021	642	0	0	
7	0	0	0	0	1021	435	1021	571	0	0	
8	0	0	0	0	1021	436	1021	464	0	0	
9	0	0	0	0	1021	436	1021	332	0	0	
10	0	0	0	0	1021	435	1021	188	0	0	
11	0	0	0	0	1021	434	1021	47	0	0	
12	0	0	0	0	1021	431	1021	0	0	0	
13	0	0	0	0	1021	428	1021	0	0	0	
14	0	0	0	0	1021	425	1021	0	0	0	
15	0	0	0	0	1021	422	1021	0	0	0	
0	0	0	0	0	1021	420	1021	0	0	0	
1	0	0	0	0	1021	419	1021	9	0	0	
2	0	0	0	0	1021	419	1021	75	0	0	
3	0	0	0	0	1021	420	1021	172	0	0	
4	0	0	0	0	1021	422	1021	289	0	0	
5	0	0	0	0	1021	424	1021	415	0	0	
6	0	0	0	0	1021	427	1021	532	0	0	
7	0	0	0	0	1021	428	1021	630	0	0	
8	0	0	0	0	1021	429	1021	696	0	0	
9	0	0	0	0	1021	429	1021	722	0	0	
10	0	0	0	0	1021	428	1021	707	0	0	
11	0	0	0	0	1021	426	1021	649	0	0	
12	0	0	0	0	1021	423	1021	555	0	0	
13	0	0	0	0	1021	419	1021	435	0	0	
14	0	0	0	0	1021	414	1021	302	0	0	
15	0	0	0	0	1021	411	1021	171	0	0	
0	0	0	0	0	1021	409	1021	54	0	0	
1	0	0	0	0	1021	408	1021	0	0	0	
2	0	0	0	0	1021	409	1021	0	0	0	
3	0	0	0	0	1021	411	1021	0	0	0	
4	0	0	0	0	1021	413	1021	7	0	0	
5	0	0	0	0	1021	416	1021	71	0	0	
6	0	0	0	0	1021	419	1021	173	0	0	
7	0	0	0	0	1021	422	1021	297	0	0	
8	0	0	0	0	1021	423	1021	434	0	0	
9	0	0	0	0	1021	423	1021	568	0	0	
10	0	0	0	0	1021	423	1021	685	0	0	
11	0	0	0	0	1021	420	1021	772	0	0	
12	0	0	0	0	1021	417	1021	818	0	0	
13	0	0	0	0	1021	413	1021	819	0	0	
14	0	0	0	0	1021	409	1021	769	0	0	
15	0	0	0	0	1021	404	1021	673	0	0	
0	0	0	0	0	1021	399	1021	539	0	0	
1	0	0	0	0	1021	394	1021	379	0	0	
2	0	0	0	0	1021	390	1021	208	0	0	
3	0	0	0	0	1021	386	1021	44	0	0	
4	0	0	0	0	1021	383	1020	0	0	0	
5	0	0	0	0	1021	382	1021	0	0	0	
6	0	0	0	0	1021	382	1021	0	0	0	
7	0	0	0	0	1021	384	1021	0	0	0	
8	0	0	0	0	1021	386	1021	0	0	0	
9	0	0	0	0	1021	388	1021	0	0	0	
10	0	0	0	0	1021	390	1021	50	0	0	
11	0	0	0	0	1021	391	1021	139	0	0	
12	0	0	0	0	1021	393	1021	251	0	0	
13	0	0	0	0	1021	394	1021	373	0	0	
14	0	0	0	0	1021	395	1021	492	0	0	
15	0	0	0	0	1021	396	1021	594	0	0	
0	0	0	0	0	1021	398	1021	668	0	0	
1	0	0	0	0	1021	399	1021	704	0	0	
2	0	0	0	0	1021	399	1021	700	0	0	
3	0	0	0	0	1021	399	1021	654	0	0	
4	0	0	0	0	1021	397	1021	573	0	0	
5	0	0	0	0	1021	396	1021	466	0	0	
6	0	0	0	0	1021	393	1021	346	0	0	
7	0	0	0	0	1021	391	1021	226	0	0	
8	0	0	0	0	1021	389	1021	120	0	0	
9	0	0	0	0	1021	386	1021	38	0	0	
10	0	0	0	0	1021	384	1020	0	0	0	
11	0	0	0	0	1021	381	1021	0	0	0	
12	0	0	0	0	1021	380	1021	27	0	0	
13	0	0	0	0	1021	378	1021	99	0	0	
14	0	0	0	0	1021	377	1021	204	0	0	
15	0	0	0	0	1021	376	1021	329	0	0	
0	0	0	0	0	1021	375	1021	464	0	0	
1	0	0	0	0	1021	375	1021	595	0	0	
2	0	0	0	0	1021	374	1021	709	0	0	
3	0	0	0	0	1021	374	1021	794	0	0	
4	0	0	0	0	1021	374	1020	839	0	0	
5	0	0	0	0	1021	373	1021	843	0	0	
6	0	0	0	0	1021	373	1021	801	0	0	
7	0	0	0	0	1021	373	1021	718	0	0	
8	0	0	0	0	1021	373	1021	601	0	0	
9	0	0	0	0	1021	372	1021	462	0	0	
10	0	0	0	0	1021	371	1021	313	0	0	
11	0	0	0	0	1021	371	1021	171	0	0	
12	0	0	0	0	1021	370	1021	47	0	0	
13	0	0	0	0	1021	369	1021	0	0	0	
14	0	0	0	0	1021	369	1021	0	0	0	
15	0	0	0	0	1021	369	1021	0	0	0	
0	0	0	0	0	1021	370	1021	6	0	0	
1	0	0	0	0	1021	372	1021	74	0	0	
2	0	0	0	0	1021	375	1021	180	0	0	
3	0	0	0	0	1021	379	1020	313	0	0	
4	0	0	0	0	1021	383	1021	462	0	0	
5	0	0	0	0	1021	387	1021	610	0	0	
6	0	0	0	0	1021	391	1021	743	0	0	
7	0	0	0	0	1021	394	1021	846	0	0	
8	0	0	0	0	1021	395	1021	908	0	0	
9	0	0	0	0	1021	395	1021	922	0	0	
10	0	0	0	0	1021	393	1021	885	0	0	
11	0	0	0	0	1021	390	1021	799	0	0	
12	0	0	0	0	1021	387	1021	671	0	0	
13	0	0	0	0	1021	384	1021	516	0	0	
14	0	0	0	0	1021	381	1021	347	0	0	
15	0	0	0	0	1021	379	1021	181	0	0	
0	0	0	0	0	1021	377	1021	34	0	0	
1	0	0	0	0	1021	376	1021	0	0	0	
2	0	0	0	0	1021	374	1021	0	0	0	
3	0	0	0	0	1021	372	1021	0	0	0	
4	0	0	0	0	1021	370	1021	0	0	0	
5	0	0	0	0	1021	368	1021	29	0	0	
6	0	0	0	0	1021	367	1021	114	0	0	
7	0	0	0	0	1021	368	1021	230	0	0	
8	0	0	0	0	1021	371	1021	364	0	0	
9	0	0	0	0	1021	375	1021	504	0	0	
10	0	0	0	0	1021	382	1021	635	0	0	
11	0	0	0	0	1021	389	1021	741	0	0	
12	0	0	0	0	1021	397	1021	812	0	0	
13	0	0	0	0	1021	405	1021	841	0	0	
14	0	0	0	0	1021	411	1021	824	0	0	
15	0	0	0	0	1021	416	1021	760	0	0	
0	0	0	0	0	1021	419	1021	655	0	0	
1	0	0	0	0	1021	419	1021	520	0	0	
2	0	0	0	0	1021	416	1021	370	0	0	
3	0	0	0	0	1021	412	1021	219	0	0	
4	0	0	0	0	1021	406	1021	80	0	0	
5	0	0	0	0	1021	399	1021	0	0	0	
6	0	0	0	0	1021	392	1021	0	0	0	
7	0	0	0	0	1021	387	1021	0	0	0	
8	0	0	0	0	1021	384	1021	0	0	0	
9	0	0	0	0	1021	383	1021	25	0	0	
10	0	0	0	0	1021	384	1021	103	0	0	
11	0	0	0	0	1021	385	1021	209	0	0	
12	0	0	0	0	1021	388	1021	332	0	0	
13	0	0	0	0	1021	391	1021	458	0	0	
14	0	0	0	0	1021	395	1021	572	0	0	
15	0	0	0	0	1021	398	1021	660	0	0	
0	0	0	0	0	1021	399	1021	713	0	0	
1	0	0	0	0	1021	399	1021	723	0	0	
2	0	0	0	0	1021	398	1021	688	0	0	
3	0	0	0	0	1021	396	1021	611	0	0	
4	0	0	0	0	1021	394	1021	500	0	0	
5	0	0	0	0	1021	392	1021	367	0	0	
6	0	0	0	0	1021	391	1021	226	0	0	
7	0	0	0	0	1021	390	1021	89	0	0	
8	0	0	0	0	1021	391	1021	0	0	0	
9	0	0	0	0	1021	391	1021	0	0	0	
10	0	0	0	0	1021	391	1021	0	0	0	
11	0	0	0	0	1021	391	1021	0	0	0	
12	0	0	0	0	1021	391	1021	0	0	0	
13	0	0	0	0	1021	392	1021	29	0	0	
14	0	0	0	0	1021	393	1021	103	0	0	
15	0	0	0	0	1021	395	1021	204	0	0	
0	0	0	0	0	1021	396	1021	318	0	0	
1	0	0	0	0	1021	398	1021	435	0	0	
2	0	0	0	0	1021	400	1021	540	0	0	
3	0	0	0	0	1021	401	1021	621	0	0	
4	0	0	0	0	1021	402	1021	668	0	0	
5	0	0	0	0	1021	401	1021	675	0	0	
6	0	0	0	0	1021	401	1021	640	0	0	
7	0	0	0	0	1021	401	1021	564	0	0	
8	0	0	0	0	1021	400	1021	456	0	0	
9	0	0	0	0	1021	399	1021	326	0	0	
10	0	0	0	0	1021	399	1021	187	0	0	
11	0	0	0	0	1021	402	1021	54	0	0	
12	0	0	0	0	1021	406	1021	0	0	0	
13	0	0	0	0	1021	412	1021	0	0	0	
14	0	0	0	0	1021	420	1021	0	0	0	
15	0	0	0	0	1021	430	1021	0	0	0	
0	0	0	0	0	1021	440	1021	0	0	0	
1	0	0	0	0	1021	449	1020	56	0	0	
2	0	0	0	0	1021	456	1021	148	0	0	
3	0	0	0	0	1021	462	1021	263	0	0	
4	0	0	0	0	1021	466	1021	392	0	0	
5	0	0	0	0	1021	467	1021	519	0	0	
6	0	0	0	0	1021	465	1021	633	0	0	
7	0	0	0	0	1021	463	1021	718	0	0	
8	0	0	0	0	1021	460	1021	767	0	0	
9	0	0	0	0	1021	456	1021	772	0	0	
10	0	0	0	0	1021	453	1021	733	0	0	
11	0	0	0	0	1021	451	1021	651	0	0	
12	0	0	0	0	1021	451	1021	534	0	0	
13	0	0	0	0	1021	452	1021	394	0	0	
14	0	0	0	0	1021	454	1021	245	0	0	
15	0	0	0	0	1021	457	1021	100	0	0	
0	0	0	0	0	1021	461	1021	0	0	0	
1	0	0	0	0	1021	463	1021	0	0	0	
2	0	0	0	0	1021	466	1021	0	0	0	
3	0	0	0	0	1021	467	1021	0	0	0	
4	0	0	0	0	1021	465	1021	0	0	0	
5	0	0	0	0	1021	463	1021	29	0	0	
6	0	0	0	0	1021	460	1021	110	0	0	
7	0	0	0	0	1021	456	1021	220	0	0	
8	0	0	0	0	1021	453	1021	347	0	0	
9	0	0	0	0	1021	449	1021	479	0	0	
10	0	0	0	0	1021	445	1021	600	0	0	
11	0	0	0	0	1022	443	1020	699	0	0	
12	0	0	0	0	1021	441	1021	765	0	0	
13	0	0	0	0	1021	441	1021	791	0	0	
14	0	0	0	0	1021	441	1021	773	0	0	
15	0	0	0	0	1021	443	1021	712	0	0	
0	0	0	0	0	1021	446	1021	615	0	0	
1	0	0	0	0	1021	450	1021	491	0	0	
2	0	0	0	0	1021	455	1021	354	0	0	
3	0	0	0	0	1021	460	1021	217	0	0	
4	0	0	0	0	1021	466	1021	93	0	0	
5	0	0	0	0	1021	471	1021	1	0	0	
6	0	0	0	0	1021	474	1021	0	0	0	
7	0	0	0	0	1021	478	1021	0	0	0	
8	0	0	0	0	1021	480	1021	0	0	0	
9	0	0	0	0	1021	483	1021	36	0	0	
10	0	0	0	0	1022	485	1021	115	0	0	
11	0	0	0	0	1021	487	1021	219	0	0	
12	0	0	0	0	1021	489	1021	335	0	0	
13	0	0	0	0	1021	492	1021	452	0	0	
14	0	0	0	0	1021	493	1021	554	0	0	
15	0	0	0	0	1021	494	1021	629	0	0	
0	0	0	0	0	1021	494	1021	665	0	0	
1	0	0	0	0	1021	492	1021	656	0	0	
2	0	0	0	0	1021	489	1021	600	0	0	
3	0	0	0	0	1021	485	1021	500	0	0	
4	0	0	0	0	1021	480	1021	365	0	0	
5	0	0	0	0	1021	474	1021	206	0	0	
6	0	0	0	0	1021	468	1021	36	0	0	
7	0	0	0	0	1021	462	1021	0	0	0	
8	0	0	0	0	1021	456	1021	0	0	0	
9	0	0	0	0	1021	450	1021	0	0	0	
10	0	0	0	0	1021	445	1021	0	0	0	
11	0	0	0	0	1021	441	1021	0	0	0	
12	0	0	0	0	1021	439	1021	0	0	0	
13	0	0	0	0	1021	438	1021	0	0	0	
14	0	0	0	0	1021	438	1021	0	0	0	
15	0	0	0	0	1021	439	1021	0	0	0	
0	0	0	0	0	1021	441	1021	26	0	0	
1	0	0	0	0	1021	444	1021	85	0	0	
2	0	0	0	0	1021	447	1021	156	0	0	
3	0	0	0	0	1021	451	1021	225	0	0	
4	0	0	0	0	1021	455	1021	284	0	0	
5	0	0	0	0	1021	460	1021	324	0	0	
6	0	0	0	0	1021	465	1021	337	0	0	
7	0	0	0	0	1021	469	1021	322	0	0	
8	0	0	0	0	1021	472	1021	280	0	0	
9	0	0	0	0	1021	474	1021	218	0	0	
10	0	0	0	0	1021	475	1021	144	0	0	
11	0	0	0	0	1021	475	1021	70	0	0	
12	0	0	0	0	1021	472	1021	5	0	0	
13	0	0	0	0	1021	470	1021	0	0	0	
14	0	0	0	0	1021	466	1021	0	0	0	
15	0	0	0	0	1021	463	1021	0	0	0	
0	0	0	0	0	1021	460	1021	45	0	0	
1	0	0	0	0	1021	458	1021	127	0	0	
2	0	0	0	0	1021	457	1021	239	0	0	
3	0	0	0	0	1021	456	1021	371	0	0	
4	0	0	0	0	1021	457	1021	510	0	0	
5	0	0	0	0	1021	459	1021	645	0	0	
6	0	0	0	0	1021	461	1021	761	0	0	
7	0	0	0	0	1021	464	1021	846	0	0	
8	0	0	0	0	1021	467	1021	892	0	0	
9	0	0	0	0	1021	468	1021	893	0	0	
10	0	0	0	0	1021	470	1021	847	0	0	
11	0	0	0	0	1021	470	1021	757	0	0	
12	0	0	0	0	1021	470	1021	632	0	0	
13	0	0	0	0	1021	470	1021	483	0	0	
14	0	0	0	0	1021	468	1021	325	0	0	
15	0	0	0	0	1021	467	1021	175	0	0	
0	0	0	0	0	1021	463	1021	45	0	0	
1	0	0	0	0	1021	460	1021	0	0	0	
2	0	0	0	0	1021	456	1021	0	0	0	
3	0	0	0	0	1021	453	1021	0	0	0	
4	0	0	0	0	1021	450	1021	13	0	0	
5	0	0	0	0	1021	448	1021	88	0	0	
6	0	0	0	0	1021	447	1021	199	0	0	
7	0	0	0	0	1021	447	1021	335	0	0	
8	0	0	0	0	1021	448	1021	482	0	0	
9	0	0	0	0	1021	450	1021	626	0	0	
10	0	0	0	0	1021	453	1021	754	0	0	
11	0	0	0	0	1021	456	1021	852	0	0	
12	0	0	0	0	1021	459	1021	911	0	0	
13	0	0	0	0	1021	462	1021	924	0	0	
14	0	0	0	0	1021	463	1021	887	0	0	
15	0	0	0	0	1021	463	1021	802	0	0	
0	0	0	0	0	1021	463	1021	676	0	0	
1	0	0	0	0	1021	462	1020	524	0	0	
2	0	0	0	0	1021	461	1021	359	0	0	
3	0	0	0	0	1021	461	1021	198	0	0	
4	0	0	0	0	1021	460	1021	55	0	0	
5	0	0	0	0	1021	461	1021	0	0	0	
6	0	0	0	0	1021	463	1021	0	0	0	
7	0	0	0	0	1021	464	1021	0	0	0	
8	0	0	0	0	1021	466	1021	0	0	0	
9	0	0	0	0	1021	468	1021	44	0	0	
10	0	0	0	0	1021	470	1021	134	0	0	
11	0	0	0	0	1021	472	1021	252	0	0	
12	0	0	0	0	1021	473	1021	382	0	0	
13	0	0	0	0	1021	476	1021	511	0	0	
14	0	0	0	0	1021	478	1021	624	0	0	
15	0	0	0	0	1021	480	1021	707	0	0	
0	0	0	0	0	1021	482	1021	748	0	0	
1	0	0	0	0	1021	483	1021	743	0	0	
2	0	0	0	0	1021	484	1021	688	0	0	
3	0	0	0	0	1021	484	1021	587	0	0	
4	0	0	0	0	1021	483	1021	448	0	0	
5	0	0	0	0	1021	481	1021	283	0	0	
6	0	0	0	0	1021	479	1021	108	0	0	
7	0	0	0	0	1021	476	1021	0	0	0	
8	0	0	0	0	1021	475	1021	0	0	0	
9	0	0	0	0	1021	473	1021	0	0	0	
10	0	0	0	0	1021	472	1021	0	0	0	
11	0	0	0	0	1021	472	1021	0	0	0	
12	0	0	0	0	1021	473	1021	0	0	0	
13	0	0	0	0	1021	473	1021	0	0	0	
14	0	0	0	0	1021	474	1021	0	0	0	
15	0	0	0	0	1021	474	1021	12	0	0	
0	0	0	0	0	1021	473	1021	70	0	0	
1	0	0	0	0	1021	471	1021	148	0	0	
2	0	0	0	0	1021	468	1021	234	0	0	
3	0	0	0	0	1021	464	1021	315	0	0	
4	0	0	0	0	1021	460	1021	382	0	0	
5	0	0	0	0	1021	456	1021	426	0	0	
6	0	0	0	0	1021	453	1021	441	0	0	
7	0	0	0	0	1021	450	1021	427	0	0	
8	0	0	0	0	1021	449	1021	384	0	0	
9	0	0	0	0	1021	449	1021	319	0	0	
10	0	0	0	0	1021	451	1021	243	0	0	
11	0	0	0	0	1021	455	1021	165	0	0	
12	0	0	0	0	1021	459	1021	95	0	0	
13	0	0	0	0	1021	462	1021	43	0	0	
14	0	0	0	0	1021	465	1021	16	0	0	
15	0	0	0	0	1021	467	1021	20	0	0	
0	0	0	0	0	1021	467	1021	56	0	0	
1	0	0	0	0	1021	466	1021	123	0	0	
2	0	0	0	0	1021	462	1021	215	0	0	
3	0	0	0	0	1021	457	1021	322	0	0	
4	0	0	0	0	1021	452	1021	438	0	0	
5	0	0	0	0	1021	446	1021	549	0	0	
6	0	0	0	0	1021	439	1021	644	0	0	
7	0	0	0	0	1021	432	1021	715	0	0	
8	0	0	0	0	1021	427	1021	753	0	0	
9	0	0	0	0	1021	422	1021	755	0	0	
10	0	0	0	0	1021	418	1021	719	0	0	
11	0	0	0	0	1021	415	1021	649	0	0	
12	0	0	0	0	1021	414	1021	552	0	0	
13	0	0	0	0	1021	414	1021	438	0	0	
14	0	0	0	0	1021	415	1021	318	0	0	
15	0	0	0	0	1021	419	1021	206	0	0	
0	0	0	0	0	1021	423	1021	114	0	0	
1	0	0	0	0	1021	428	1021	50	0	0	
2	0	0	0	0	1021	433	1021	23	0	0	
3	0	0	0	0	1021	439	1021	37	0	0	
4	0	0	0	0	1021	444	1021	95	0	0	
5	0	0	0	0	1021	449	1021	192	0	0	
6	0	0	0	0	1022	454	1021	318	0	0	
7	0	0	0	0	1021	458	1021	462	0	0	
8	0	0	0	0	1021	462	1021	611	0	0	
9	0	0	0	0	1021	466	1021	750	0	0	
10	0	0	0	0	1021	470	1021	864	0	0	
11	0	0	0	0	1021	474	1021	945	0	0	
12	0	0	0	0	1021	478	1021	982	0	0	
13	0	0	0	0	1021	481	1021	973	0	0	
14	0	0	0	0	1021	483	1021	914	0	0	
15	0	0	0	0	1021	484	1021	811	0	0	
0	0	0	0	0	1021	484	1021	673	0	0	
1	0	0	0	0	1021	483	1021	514	0	0	
2	0	0	0	0	1021	480	1021	348	0	0	
3	0	0	0	0	1021	476	1021	192	0	0	
4	0	0	0	0	1021	471	1021	59	0	0	
5	0	0	0	0	1021	464	1021	0	0	0	
6	0	0	0	0	1021	457	1021	0	0	0	
7	0	0	0	0	1021	451	1021	0	0	0	
8	0	0	0	0	1021	444	1021	14	0	0	
9	0	0	0	0	1021	439	1021	90	0	0	
10	0	0	0	0	1021	433	1021	201	0	0	
11	0	0	0	0	1021	430	1021	336	0	0	
12	0	0	0	0	1021	427	1021	481	0	0	
13	0	0	0	0	1021	425	1021	622	0	0	
14	0	0	0	0	1021	423	1021	743	0	0	
15	0	0	0	0	1021	423	1021	835	0	0	
0	0	0	0	0	1021	422	1021	885	0	0	
1	0	0	0	0	1021	423	1021	890	0	0	
2	0	0	0	0	1021	425	1021	847	0	0	
3	0	0	0	0	1021	427	1021	759	0	0	
4	0	0	0	0	1021	430	1021	633	0	0	
5	0	0	0	0	1021	433	1021	482	0	0	
6	0	0	0	0	1021	436	1021	321	0	0	
7	0	0	0	0	1021	438	1021	166	0	0	
8	0	0	0	0	1021	441	1021	30	0	0	
9	0	0	0	0	1021	443	1021	0	0	0	
10	0	0	0	0	1021	446	1020	0	0	0	
11	0	0	0	0	1021	449	1021	0	0	0	
12	0	0	0	0	1021	451	1021	0	0	0	
13	0	0	0	0	1021	453	1021	52	0	0	
14	0	0	0	0	1021	453	1021	145	0	0	
15	0	0	0	0	1021	451	1021	262	0	0	
0	0	0	0	0	1021	448	1021	392	0	0	
1	0	0	0	0	1021	444	1021	520	0	0	
2	0	0	0	0	1021	438	1021	632	0	0	
3	0	0	0	0	1021	430	1021	715	0	0	
4	0	0	0	0	1021	420	1021	759	0	0	
5	0	0	0	0	1021	411	1021	759	0	0	
6	0	0	0	0	1021	401	1021	713	0	0	
7	0	0	0	0	1021	392	1021	626	0	0	
8	0	0	0	0	1021	384	1021	507	0	0	
9	0	0	0	0	1021	379	1021	367	0	0	
10	0	0	0	0	1021	376	1021	221	0	0	
11	0	0	0	0	1021	377	1021	82	0	0	
12	0	0	0	0	1021	379	1021	0	0	0	
13	0	0	0	0	1021	382	1021	0	0	0	
14	0	0	0	0	1021	386	1021	0	0	0	
15	0	0	0	0	1021	391	1021	0	0	0	
0	0	0	0	0	1021	395	1021	0	0	0	
1	0	0	0	0	1021	399	1021	34	0	0	
2	0	0	0	0	1022	401	1021	110	0	0	
3	0	0	0	0	1021	403	1021	211	0	0	
4	0	0	0	0	1021	404	1021	323	0	0	
5	0	0	0	0	1021	405	1021	436	0	0	
6	0	0	0	0	1021	404	1021	537	0	0	
7	0	0	0	0	1021	403	1021	614	0	0	
8	0	0	0	0	1021	401	1021	658	0	0	
9	0	0	0	0	1021	399	1021	662	0	0	
10	0	0	0	0	1021	397	1021	625	0	0	
11	0	0	0	0	1021	396	1021	550	0	0	
12	0	0	0	0	1021	395	1021	444	0	0	
13	0	0	0	0	1021	395	1021	318	0	0	
14	0	0	0	0	1021	396	1021	185	0	0	
15	0	0	0	0	1021	397	1021	60	0	0	
0	0	0	0	0	1021	399	1021	0	0	0	
1	0	0	0	0	1021	401	1021	0	0	0	
2	0	0	0	0	1021	404	1021	0	0	0	
3	0	0	0	0	1021	406	1021	0	0	0	
4	0	0	0	0	1021	408	1021	4	0	0	
5	0	0	0	0	1021	409	1021	68	0	0	
6	0	0	0	0	1021	410	1021	166	0	0	
7	0	0	0	0	1021	410	1021	288	0	0	
8	0	0	0	0	1021	410	1021	425	0	0	
9	0	0	0	0	1021	410	1021	560	0	0	
10	0	0	0	0	1021	409	1021	681	0	0	
11	0	0	0	0	1021	407	1021	773	0	0	
12	0	0	0	0	1021	404	1021	827	0	0	
13	0	0	0	0	1021	401	1021	836	0	0	
14	0	0	0	0	1021	397	1021	798	0	0	
15	0	0	0	0	1021	393	1021	713	0	0	
0	0	0	0	0	1021	387	1021	592	0	0	
1	0	0	0	0	1021	383	1021	446	0	0	
2	0	0	0	0	1021	378	1021	289	0	0	
3	0	0	0	0	1021	375	1021	137	0	0	
4	0	0	0	0	1021	372	1021	4	0	0	
5	0	0	0	0	1021	371	1021	0	0	0	
6	0	0	0	0	1021	373	1021	0	0	0	
7	0	0	0	0	1021	376	1021	0	0	0	
8	0	0	0	0	1021	380	1021	0	0	0	
9	0	0	0	0	1021	385	1021	17	0	0	
10	0	0	0	0	1021	391	1021	86	0	0	
11	0	0	0	0	1021	396	1020	181	0	0	
12	0	0	0	0	1021	401	1021	291	0	0	
13	0	0	0	0	1021	406	1021	403	0	0	
14	0	0	0	0	1021	410	1021	503	0	0	
15	0	0	0	0	1021	413	1021	577	0	0	
0	0	0	0	0	1021	415	1021	617	0	0	
1	0	0	0	0	1021	417	1021	615	0	0	
2	0	0	0	0	1021	419	1021	573	0	0	
3	0	0	0	0	1021	419	1021	491	0	0	
4	0	0	0	0	1021	420	1021	379	0	0	
5	0	0	0	0	1021	419	1021	247	0	0	
6	0	0	0	0	1021	419	1021	109	0	0	
7	0	0	0	0	1021	418	1021	0	0	0	
8	0	0	0	0	1021	418	1021	0	0	0	
9	0	0	0	0	1021	417	1021	0	0	0	
10	0	0	0	0	1022	417	1021	0	0	0	
11	0	0	0	0	1021	415	1021	0	0	0	
12	0	0	0	0	1021	415	1021	0	0	0	
13	0	0	0	0	1021	415	1021	0	0	0	
14	0	0	0	0	1021	416	1021	41	0	0	
15	0	0	0	0	1021	418	1021	116	0	0	
0	0	0	0	0	1021	420	1021	210	0	0	
1	0	0	0	0	1021	422	1021	310	0	0	
2	0	0	0	0	1021	423	1021	403	0	0	
3	0	0	0	0	1021	424	1021	476	0	0	
4	0	0	0	0	1021	424	1021	520	0	0	
5	0	0	0	0	1021	424	1021	527	0	0	
6	0	0	0	0	1021	423	1021	496	0	0	
7	0	0	0	0	1021	419	1021	427	0	0	
8	0	0	0	0	1021	416	1021	326	0	0	
9	0	0	0	0	1021	411	1021	203	0	0	
10	0	0	0	0	1021	407	1021	71	0	0	
11	0	0	0	0	1021	403	1021	0	0	0	
12	0	0	0	0	1021	399	1021	0	0	0	
13	0	0	0	0	1021	396	1021	0	0	0	
14	0	0	0	0	1021	393	1021	0	0	0	
15	0	0	0	0	1021	391	1021	0	0	0	
0	0	0	0	0	1021	390	1021	0	0	0	
1	0	0	0	0	1021	388	1021	0	0	0	
2	0	0	0	0	1021	387	1021	6	0	0	
3	0	0	0	0	1021	387	1021	59	0	0	
4	0	0	0	0	1021	387	1021	133	0	0	
5	0	0	0	0	1021	386	1021	220	0	0	
6	0	0	0	0	1021	386	1021	306	0	0	
7	0	0	0	0	1021	386	1021	382	0	0	
8	0	0	0	0	1021	386	1021	436	0	0	
9	0	0	0	0	1021	386	1021	461	0	0	
10	0	0	0	0	1021	386	1021	453	0	0	
11	0	0	0	0	1021	387	1021	412	0	0	
12	0	0	0	0	1021	387	1021	342	0	0	
13	0	0	0	0	1021	388	1021	252	0	0	
14	0	0	0	0	1021	389	1021	152	0	0	
15	0	0	0	0	1021	391	1021	54	0	0	
0	0	0	0	0	1021	391	1021	0	0	0	
1	0	0	0	0	1021	393	1021	0	0	0	
2	0	0	0	0	1021	395	1021	0	0	0	
3	0	0	0	0	1021	396	1021	0	0	0	
4	0	0	0	0	1021	398	1021	10	0	0	
5	0	0	0	0	1021	399	1021	66	0	0	
6	0	0	0	0	1021	401	1021	150	0	0	
7	0	0	0	0	1021	403	1021	252	0	0	
8	0	0	0	0	1021	405	1021	362	0	0	
9	0	0	0	0	1021	407	1021	469	0	0	
10	0	0	0	0	1021	406	1021	559	0	0	
11	0	0	0	0	1021	403	1021	622	0	0	
12	0	0	0	0	1021	396	1021	647	0	0	
13	0	0	0	0	1021	387	1021	630	0	0	
14	0	0	0	0	1021	375	1021	569	0	0	
15	0	0	0	0	1021	360	1021	467	0	0	
0	0	0	0	0	1021	343	1021	332	0	0	
1	0	0	0	0	1021	324	1021	175	0	0	
2	0	0	0	0	1021	304	1021	9	0	0	
3	0	0	0	0	1021	282	1021	0	0	0	
4	0	0	0	0	1021	259	1020	0	0	0	
5	0	0	0	0	1021	236	1021	0	0	0	
6	0	0	0	0	1021	212	1021	0	0	0	
7	0	0	0	0	1021	189	1021	0	0	0	
8	0	0	0	0	1021	167	1021	0	0	0	
9	0	0	0	0	1021	145	1021	0	0	0	
10	0	0	0	0	1021	127	1021	0	0	0	
11	0	0	0	0	1021	111	1021	0	0	0	
12	0	0	0	0	1021	99	1021	0	0	0	
13	0	0	0	0	1021	92	1021	0	0	0	
14	0	0	0	0	1021	90	1021	0	0	0	
15	0	0	0	0	1021	93	1021	0	0	0	
0	0	0	0	0	1021	102	1021	0	0	0	
1	0	0	0	0	1021	115	1021	0	0	0	
2	0	0	0	0	1021	135	1021	0	0	0	
3	0	0	0	0	1021	161	1021	0	0	0	
4	0	0	0	0	1021	190	1021	0	0	0	
5	0	0	0	0	1021	224	1021	0	0	0	
6	0	0	0	0	1021	260	1021	0	0	0	
7	0	0	0	0	1021	297	1021	0	0	0	
8	0	0	0	0	1021	334	1021	0	0	0	
9	0	0	0	0	1021	370	1021	0	0	0	
10	0	0	0	0	1021	403	1020	0	0	0	
11	0	0	0	0	1021	431	1021	0	0	0	
12	0	0	0	0	1021	454	1021	34	0	0	
13	0	0	0	0	1021	470	1021	105	0	0	
14	0	0	0	0	1021	481	1021	201	0	0	
15	0	0	0	0	1021	486	1021	314	0	0	
0	0	0	0	0	1021	485	1021	434	0	0	
1	0	0	0	0	1021	481	1021	549	0	0	
2	0	0	0	0	1021	474	1021	646	0	0	
3	0	0	0	0	1021	466	1021	714	0	0	
4	0	0	0	0	1021	458	1021	745	0	0	
5	0	0	0	0	1021	451	1021	735	0	0	
6	0	0	0	0	1021	445	1021	681	0	0	
7	0	0	0	0	1021	441	1021	588	0	0	
8	0	0	0	0	1021	439	1021	466	0	0	
9	0	0	0	0	1021	438	1021	323	0	0	
10	0	0	0	0	1021	437	1021	175	0	0	
11	0	0	0	0	1021	436	1021	35	0	0	
12	0	0	0	0	1021	434	1021	0	0	0	
13	0	0	0	0	1021	431	1020	0	0	0	
14	0	0	0	0	1021	429	1021	0	0	0	
15	0	0	0	0	1021	427	1021	0	0	0	
0	0	0	0	0	1021	425	1021	0	0	0	
1	0	0	0	0	1021	425	1021	30	0	0	
2	0	0	0	0	1021	426	1020	109	0	0	
3	0	0	0	0	1021	428	1021	214	0	0	
4	0	0	0	0	1021	430	1021	333	0	0	
5	0	0	0	0	1021	432	1021	454	0	0	
6	0	0	0	0	1021	434	1021	561	0	0	
7	0	0	0	0	1021	435	1021	644	0	0	
8	0	0	0	0	1021	436	1021	691	0	0	
9	0	0	0	0	1021	438	1021	698	0	0	
10	0	0	0	0	1021	439	1021	660	0	0	
11	0	0	0	0	1021	440	1021	582	0	0	
12	0	0	0	0	1021	440	1021	469	0	0	
13	0	0	0	0	1021	439	1021	333	0	0	
14	0	0	0	0	1021	437	1021	188	0	0	
15	0	0	0	0	1021	434	1021	47	0	0	
0	0	0	0	0	1021	429	1021	0	0	0	
1	0	0	0	0	1021	424	1021	0	0	0	
2	0	0	0	0	1021	420	1021	0	0	0	
3	0	0	0	0	1021	416	1021	0	0	0	
4	0	0	0	0	1021	412	1021	0	0	0	
5	0	0	0	0	1021	410	1021	0	0	0	
6	0	0	0	0	1021	407	1021	35	0	0	
7	0	0	0	0	1021	404	1021	100	0	0	
8	0	0	0	0	1021	402	1021	182	0	0	
9	0	0	0	0	1021	400	1021	265	0	0	
10	0	0	0	0	1021	399	1021	341	0	0	
11	0	0	0	0	1021	399	1021	398	0	0	
12	0	0	0	0	1021	399	1021	425	0	0	
13	0	0	0	0	1021	400	1021	419	0	0	
14	0	0	0	0	1021	402	1021	376	0	0	
15	0	0	0	0	1021	406	1021	300	0	0	
0	0	0	0	0	1021	409	1021	198	0	0	
1	0	0	0	0	1021	412	1021	78	0	0	
2	0	0	0	0	1021	416	1021	0	0	0	
3	0	0	0	0	1021	421	1021	0	0	0	
4	0	0	0	0	1021	425	1021	0	0	0	
5	0	0	0	0	1021	431	1021	0	0	0	
6	0	0	0	0	1021	436	1021	0	0	0	
7	0	0	0	0	1021	442	1021	0	0	0	
8	0	0	0	0	1021	447	1021	0	0	0	
9	0	0	0	0	1021	452	1021	0	0	0	
10	0	0	0	0	1021	455	1021	3	0	0	
11	0	0	0	0	1021	458	1021	53	0	0	
12	0	0	0	0	1021	459	1021	124	0	0	
13	0	0	0	0	1021	459	1021	209	0	0	
14	0	0	0	0	1021	457	1021	295	0	0	
15	0	0	0	0	1021	454	1021	371	0	0	
0	0	0	0	0	1021	450	1021	426	0	0	
1	0	0	0	0	1021	445	1021	452	0	0	
2	0	0	0	0	1021	440	1021	446	0	0	
3	0	0	0	0	1021	436	1021	407	0	0	
4	0	0	0	0	1021	432	1021	339	0	0	
5	0	0	0	0	1021	430	1021	251	0	0	
6	0	0	0	0	1021	430	1021	151	0	0	
7	0	0	0	0	1021	431	1021	51	0	0	
8	0	0	0	0	1021	435	1021	0	0	0	
9	0	0	0	0	1021	439	1021	0	0	0	
10	0	0	0	0	1021	444	1020	0	0	0	
11	0	0	0	0	1021	450	1021	0	0	0	
12	0	0	0	0	1021	456	1021	0	0	0	
13	0	0	0	0	1021	462	1021	11	0	0	
14	0	0	0	0	1021	467	1021	66	0	0	
15	0	0	0	0	1021	471	1021	145	0	0	
0	0	0	0	0	1021	473	1021	238	0	0	
1	0	0	0	0	1021	472	1021	335	0	0	
2	0	0	0	0	1021	471	1021	425	0	0	
3	0	0	0	0	1021	467	1021	495	0	0	
4	0	0	0	0	1021	460	1021	537	0	0	
5	0	0	0	0	1021	454	1021	543	0	0	
6	0	0	0	0	1021	446	1021	511	0	0	
7	0	0	0	0	1021	438	1021	443	0	0	
8	0	0	0	0	1021	430	1020	343	0	0	
9	0	0	0	0	1021	423	1021	224	0	0	
10	0	0	0	0	1021	417	1021	95	0	0	
11	0	0	0	0	1021	412	1021	0	0	0	
12	0	0	0	0	1021	409	1021	0	0	0	
13	0	0	0	0	1021	407	1021	0	0	0	
14	0	0	0	0	1021	406	1021	0	0	0	
15	0	0	0	0	1021	407	1021	0	0	0	
0	0	0	0	0	1021	409	1021	0	0	0	
1	0	0	0	0	1021	411	1021	0	0	0	
2	0	0	0	0	1021	414	1021	22	0	0	
3	0	0	0	0	1021	416	1021	79	0	0	
4	0	0	0	0	1021	418	1021	153	0	0	
5	0	0	0	0	1021	419	1021	231	0	0	
6	0	0	0	0	1021	419	1021	303	0	0	
7	0	0	0	0	1021	416	1021	356	0	0	
8	0	0	0	0	1021	412	1021	384	0	0	
9	0	0	0	0	1021	408	1021	379	0	0	
10	0	0	0	0	1021	404	1021	341	0	0	
11	0	0	0	0	1021	402	1021	271	0	0	
12	0	0	0	0	1021	402	1021	175	0	0	
13	0	0	0	0	1021	404	1021	63	0	0	
14	0	0	0	0	1021	409	1021	0	0	0	
15	0	0	0	0	1021	415	1021	0	0	0	
0	0	0	0	0	1021	422	1021	0	0	0	
1	0	0	0	0	1021	427	1021	0	0	0	
2	0	0	0	0	1021	432	1021	0	0	0	
3	0	0	0	0	1021	435	1021	0	0	0	
4	0	0	0	0	1021	437	1021	0	0	0	
5	0	0	0	0	1021	436	1021	0	0	0	
6	0	0	0	0	1021	436	1021	0	0	0	
7	0	0	0	0	1021	435	1021	31	0	0	
8	0	0	0	0	1021	434	1021	94	0	0	
9	0	0	0	0	1021	433	1021	171	0	0	
10	0	0	0	0	1021	432	1021	251	0	0	
11	0	0	0	0	1021	432	1021	321	0	0	
12	0	0	0	0	1021	430	1021	371	0	0	
13	0	0	0	0	1021	428	1021	393	0	0	
14	0	0	0	0	1021	425	1021	382	0	0	
15	0	0	0	0	1021	422	1021	337	0	0	
0	0	0	0	0	1021	419	1021	264	0	0	
1	0	0	0	0	1021	417	1021	171	0	0	
2	0	0	0	0	1021	416	1021	67	0	0	
3	0	0	0	0	1021	415	1021	0	0	0	
4	0	0	0	0	1021	413	1020	0	0	0	
5	0	0	0	0	1021	412	1021	0	0	0	
6	0	0	0	0	1021	409	1021	0	0	0	
7	0	0	0	0	1021	406	1021	0	0	0	
8	0	0	0	0	1021	402	1021	0	0	0	
9	0	0	0	0	1021	396	1021	0	0	0	
10	0	0	0	0	1021	388	1021	41	0	0	
11	0	0	0	0	1021	379	1021	107	0	0	
12	0	0	0	0	1021	370	1021	188	0	0	
13	0	0	0	0	1021	361	1021	274	0	0	
14	0	0	0	0	1021	355	1021	355	0	0	
15	0	0	0	0	1021	350	1021	421	0	0	
0	0	0	0	0	1021	348	1021	461	0	0	
1	0	0	0	0	1021	348	1021	470	0	0	
2	0	0	0	0	1021	351	1021	444	0	0	
3	0	0	0	0	1021	355	1021	385	0	0	
4	0	0	0	0	1021	360	1021	296	0	0	
5	0	0	0	0	1021	366	1021	188	0	0	
6	0	0	0	0	1021	371	1021	71	0	0	
7	0	0	0	0	1021	375	1021	0	0	0	
8	0	0	0	0	1021	378	1021	0	0	0	
9	0	0	0	0	1021	379	1021	0	0	0	
10	0	0	0	0	1021	377	1021	0	0	0	
11	0	0	0	0	1021	376	1021	0	0	0	
12	0	0	0	0	1021	372	1021	0	0	0	
13	0	0	0	0	1021	368	1021	0	0	0	
14	0	0	0	0	1021	363	1021	22	0	0	
15	0	0	0	0	1021	357	1021	80	0	0	
0	0	0	0	0	1021	353	1021	157	0	0	
1	0	0	0	0	1021	349	1021	241	0	0	
2	0	0	0	0	1021	346	1021	322	0	0	
3	0	0	0	0	1021	345	1021	388	0	0	
4	0	0	0	0	1021	345	1021	430	0	0	
5	0	0	0	0	1021	347	1021	440	0	0	
6	0	0	0	0	1021	350	1021	415	0	0	
7	0	0	0	0	1021	354	1021	356	0	0	
8	0	0	0	0	1021	357	1021	268	0	0	
9	0	0	0	0	1021	360	1021	160	0	0	
10	0	0	0	0	1021	363	1021	43	0	0	
11	0	0	0	0	1021	364	1021	0	0	0	
12	0	0	0	0	1021	365	1021	0	0	0	
13	0	0	0	0	1021	364	1021	0	0	0	
14	0	0	0	0	1021	362	1021	0	0	0	
15	0	0	0	0	1021	360	1021	0	0	0	
0	0	0	0	0	1021	357	1021	0	0	0	
1	0	0	0	0	1021	353	1021	0	0	0	
2	0	0	0	0	1022	351	1020	25	0	0	
3	0	0	0	0	1021	348	1021	88	0	0	
4	0	0	0	0	1021	346	1021	169	0	0	
5	0	0	0	0	1021	345	1021	258	0	0	
6	0	0	0	0	1021	345	1021	342	0	0	
7	0	0	0	0	1021	347	1021	413	0	0	
8	0	0	0	0	1021	350	1021	458	0	0	
9	0	0	0	0	1021	354	1021	472	0	0	
10	0	0	0	0	1021	359	1021	451	0	0	
11	0	0	0	0	1021	365	1021	398	0	0	
12	0	0	0	0	1021	370	1020	316	0	0	
13	0	0	0	0	1021	375	1021	218	0	0	
14	0	0	0	0	1021	379	1021	110	0	0	
15	0	0	0	0	1021	382	1021	6	0	0	
0	0	0	0	0	1021	382	1021	0	0	0	
1	0	0	0	0	1021	381	1021	0	0	0	
2	0	0	0	0	1021	378	1021	0	0	0	
3	0	0	0	0	1021	373	1021	0	0	0	
4	0	0	0	0	1021	367	1021	0	0	0	
5	0	0	0	0	1021	360	1021	20	0	0	
6	0	0	0	0	1021	352	1021	79	0	0	
7	0	0	0	0	1021	345	1021	161	0	0	
8	0	0	0	0	1021	340	1021	254	0	0	
9	0	0	0	0	1021	337	1021	350	0	0	
10	0	0	0	0	1021	336	1021	436	0	0	
11	0	0	0	0	1021	338	1021	500	0	0	
12	0	0	0	0	1021	340	1021	536	0	0	
13	0	0	0	0	1021	345	1021	535	0	0	
14	0	0	0	0	1021	350	1021	497	0	0	
15	0	0	0	0	1021	355	1021	423	0	0	
0	0	0	0	0	1021	359	1020	321	0	0	
1	0	0	0	0	1021	362	1021	201	0	0	
2	0	0	0	0	1021	365	1021	71	0	0	
3	0	0	0	0	1021	367	1021	0	0	0	
4	0	0	0	0	1021	368	1021	0	0	0	
5	0	0	0	0	1021	370	1021	0	0	0	
6	0	0	0	0	1021	372	1021	0	0	0	
7	0	0	0	0	1021	376	1021	0	0	0	
8	0	0	0	0	1021	380	1021	0	0	0	
9	0	0	0	0	1021	384	1021	0	0	0	
10	0	0	0	0	1021	390	1021	0	0	0	
11	0	0	0	0	1021	394	1021	34	0	0	
12	0	0	0	0	1021	398	1021	86	0	0	
13	0	0	0	0	1021	400	1021	143	0	0	
14	0	0	0	0	1021	400	1021	196	0	0	
15	0	0	0	0	1021	399	1021	233	0	0	
0	0	0	0	0	1021	397	1021	250	0	0	
1	0	0	0	0	1021	394	1021	239	0	0	
2	0	0	0	0	1021	391	1021	199	0	0	
3	0	0	0	0	1021	386	1021	132	0	0	
4	0	0	0	0	1021	381	1021	42	0	0	
5	0	0	0	0	1021	376	1021	0	0	0	
6	0	0	0	0	1021	370	1021	0	0	0	
7	0	0	0	0	1021	366	1021	0	0	0	
8	0	0	0	0	1021	361	1021	0	0	0	
9	0	0	0	0	1021	359	1021	0	0	0	
10	0	0	0	0	1021	356	1021	0	0	0	
11	0	0	0	0	1021	355	1021	0	0	0	
12	0	0	0	0	1021	355	1021	0	0	0	
13	0	0	0	0	1021	355	1021	0	0	0	
14	0	0	0	0	1021	356	1021	0	0	0	
15	0	0	0	0	1021	358	1021	0	0	0	
0	0	0	0	0	1021	360	1021	7	0	0	
1	0	0	0	0	1021	364	1021	48	0	0	
2	0	0	0	0	1021	367	1021	99	0	0	
3	0	0	0	0	1021	370	1021	148	0	0	
4	0	0	0	0	1021	372	1021	184	0	0	
5	0	0	0	0	1021	375	1021	198	0	0	
6	0	0	0	0	1021	376	1021	186	0	0	
7	0	0	0	0	1021	377	1021	146	0	0	
8	0	0	0	0	1021	377	1021	81	0	0	
9	0	0	0	0	1021	376	1021	0	0	0	
10	0	0	0	0	1021	376	1021	0	0	0	
11	0	0	0	0	1021	376	1021	0	0	0	
12	0	0	0	0	1021	376	1021	0	0	0	
13	0	0	0	0	1021	375	1021	0	0	0	
14	0	0	0	0	1021	375	1021	0	0	0	
15	0	0	0	0	1021	375	1021	0	0	0	
0	0	0	0	0	1021	375	1021	0	0	0	
1	0	0	0	0	1021	376	1021	0	0	0	
2	0	0	0	0	1021	377	1021	0	0	0	
3	0	0	0	0	1021	378	1021	0	0	0	
4	0	0	0	0	1021	381	1021	0	0	0	
5	0	0	0	0	1021	384	1021	22	0	0	
6	0	0	0	0	1021	388	1021	49	0	0	
7	0	0	0	0	1021	392	1021	72	0	0	
8	0	0	0	0	1021	397	1021	83	0	0	
9	0	0	0	0	1021	402	1021	75	0	0	
10	0	0	0	0	1021	407	1021	46	0	0	
11	0	0	0	0	1021	412	1021	0	0	0	
12	0	0	0	0	1021	416	1021	0	0	0	
13	0	0	0	0	1021	419	1021	0	0	0	
14	0	0	0	0	1021	421	1021	0	0	0	
15	0	0	0	0	1021	420	1021	0	0	0	
0	0	0	0	0	1021	418	1021	0	0	0	
1	0	0	0	0	1021	414	1021	0	0	0	
2	0	0	0	0	1021	409	1021	0	0	0	
3	0	0	0	0	1021	403	1021	0	0	0	
4	0	0	0	0	1021	397	1021	0	0	0	
5	0	0	0	0	1021	391	1021	0	0	0	
6	0	0	0	0	1021	385	1021	0	0	0	
7	0	0	0	0	1021	380	1021	0	0	0	
8	0	0	0	0	1021	376	1021	0	0	0	
9	0	0	0	0	1021	373	1021	0	0	0	
10	0	0	0	0	1021	370	1021	0	0	0	
11	0	0	0	0	1021	368	1021	0	0	0	
12	0	0	0	0	1021	366	1021	0	0	0	
13	0	0	0	0	1021	366	1021	0	0	0	
14	0	0	0	0	1021	367	1021	0	0	0	
15	0	0	0	0	1021	368	1021	0	0	0	
0	0	0	0	0	1021	371	1021	0	0	0	
1	0	0	0	0	1021	375	1021	0	0	0	
2	0	0	0	0	1021	380	1021	0	0	0	
3	0	0	0	0	1021	385	1021	0	0	0	
4	0	0	0	0	1021	389	1020	0	0	0	
5	0	0	0	0	1021	393	1021	0	0	0	
6	0	0	0	0	1021	396	1021	0	0	0	
7	0	0	0	0	1021	399	1021	0	0	0	
8	0	0	0	0	1021	401	1021	0	0	0	
9	0	0	0	0	1021	403	1021	0	0	0	
10	0	0	0	0	1021	404	1021	0	0	0	
11	0	0	0	0	1021	405	1021	0	0	0	
12	0	0	0	0	1021	406	1021	0	0	0	
13	0	0	0	0	1021	406	1021	0	0	0	
14	0	0	0	0	1021	406	1021	0	0	0	
15	0	0	0	0	1021	403	1021	7	0	0	
0	0	0	0	0	1021	400	1021	14	0	0	
1	0	0	0	0	1021	397	1021	9	0	0	
2	0	0	0	0	1021	392	1021	0	0	0	
3	0	0	0	0	1021	387	1021	0	0	0	
4	0	0	0	0	1021	381	1021	0	0	0	
5	0	0	0	0	1021	375	1021	0	0	0	
6	0	0	0	0	1021	370	1021	0	0	0	
7	0	0	0	0	1021	364	1021	0	0	0	
8	0	0	0	0	1021	360	1021	0	0	0	
9	0	0	0	0	1021	357	1021	0	0	0	
10	0	0	0	0	1021	354	1021	0	0	0	
11	0	0	0	0	1021	353	1021	0	0	0	
12	0	0	0	0	1021	354	1021	0	0	0	
13	0	0	0	0	1021	356	1021	0	0	0	
14	0	0	0	0	1021	359	1021	0	0	0	
15	0	0	0	0	1021	364	1021	0	0	0	
0	0	0	0	0	1021	370	1021	0	0	0	
1	0	0	0	0	1021	376	1021	0	0	0	
2	0	0	0	0	1021	383	1021	0	0	0	
3	0	0	0	0	1021	389	1021	0	0	0	
4	0	0	0	0	1021	395	1021	0	0	0	
5	0	0	0	0	1021	399	1021	0	0	0	
6	0	0	0	0	1021	403	1021	0	0	0	
7	0	0	0	0	1021	407	1021	0	0	0	
8	0	0	0	0	1021	408	1021	0	0	0	
9	0	0	0	0	1021	409	1021	0	0	0	
10	0	0	0	0	1021	408	1021	0	0	0	
11	0	0	0	0	1021	404	1021	0	0	0	
12	0	0	0	0	1021	400	1021	0	0	0	
13	0	0	0	0	1021	393	1021	0	0	0	
14	0	0	0	0	1021	386	1021	0	0	0	
15	0	0	0	0	1021	378	1021	0	0	0	
0	0	0	0	0	1021	369	1021	0	0	0	
1	0	0	0	0	1021	362	1021	0	0	0	
2	0	0	0	0	1021	356	1021	0	0	0	
3	0	0	0	0	1021	352	1021	0	0	0	
4	0	0	0	0	1021	351	1021	0	0	0	
5	0	0	0	0	1021	352	1021	0	0	0	
6	0	0	0	0	1021	356	1021	0	0	0	
7	0	0	0	0	1021	362	1021	0	0	0	
8	0	0	0	0	1021	369	1021	0	0	0	
9	0	0	0	0	1021	378	1021	0	0	0	
10	0	0	0	0	1021	387	1021	0	0	0	
11	0	0	0	0	1021	395	1021	0	0	0	
12	0	0	0	0	1021	402	1021	0	0	0	
13	0	0	0	0	1021	407	1021	0	0	0	
14	0	0	0	0	1021	409	1021	0	0	0	
15	0	0	0	0	1021	408	1021	0	0	0	
0	0	0	0	0	1021	405	1021	0	0	0	
1	0	0	0	0	1021	400	1021	0	0	0	
2	0	0	0	0	1021	394	1021	0	0	0	
3	0	0	0	0	1021	387	1021	0	0	0	
4	0	0	0	0	1021	379	1021	0	0	0	
5	0	0	0	0	1021	372	1020	0	0	0	
6	0	0	0	0	1021	366	1021	0	0	0	
7	0	0	0	0	1021	361	1021	0	0	0	
8	0	0	0	0	1021	359	1021	0	0	0	
9	0	0	0	0	1021	359	1021	0	0	0	
10	0	0	0	0	1021	360	1021	0	0	0	
11	0	0	0	0	1021	363	1021	0	0	0	
12	0	0	0	0	1021	367	1021	0	0	0	
13	0	0	0	0	1021	373	1021	0	0	0	
14	0	0	0	0	1021	379	1021	0	0	0	
15	0	0	0	0	1021	385	1021	0	0	0	
0	0	0	0	0	1021	390	1021	0	0	0	
1	0	0	0	0	1021	393	1021	0	0	0	
2	0	0	0	0	1021	396	1021	0	0	0	
3	0	0	0	0	1021	397	1021	0	0	0	
4	0	0	0	0	1021	396	1021	0	0	0	
5	0	0	0	0	1021	392	1021	0	0	0	
6	0	0	0	0	1021	387	1021	0	0	0	
7	0	0	0	0	1021	382	1021	0	0	0	
8	0	0	0	0	1021	375	1021	0	0	0	
9	0	0	0	0	1021	367	1021	0	0	0	
10	0	0	0	0	1021	358	1021	0	0	0	
11	0	0	0	0	1021	350	1021	0	0	0	
12	0	0	0	0	1021	344	1021	0	0	0	
13	0	0	0	0	1021	339	1021	0	0	0	
14	0	0	0	0	1021	337	1021	0	0	0	
15	0	0	0	0	1021	338	1021	0	0	0	
0	0	0	0	0	1021	341	1021	0	0	0	
1	0	0	0	0	1021	347	1021	0	0	0	
2	0	0	0	0	1021	354	1021	0	0	0	
3	0	0	0	0	1021	362	1021	0	0	0	
4	0	0	0	0	1021	371	1021	0	0	0	
5	0	0	0	0	1021	379	1021	0	0	0	
6	0	0	0	0	1021	386	1021	0	0	0	
7	0	0	0	0	1021	391	1021	0	0	0	
8	0	0	0	0	1021	396	1021	0	0	0	
9	0	0	0	0	1021	399	1021	0	0	0	
10	0	0	0	0	1021	402	1021	0	0	0	
11	0	0	0	0	1021	403	1021	0	0	0	
12	0	0	0	0	1021	403	1021	0	0	0	
13	0	0	0	0	1021	401	1021	0	0	0	
14	0	0	0	0	1021	399	1021	0	0	0	
15	0	0	0	0	1021	395	1021	0	0	0	
0	0	0	0	0	1021	390	1021	0	0	0	
1	0	0	0	0	1021	384	1021	0	0	0	
2	0	0	0	0	1021	377	1021	0	0	0	
3	0	0	0	0	1021	371	1021	0	0	0	
4	0	0	0	0	1021	366	1021	0	0	0	
5	0	0	0	0	1021	360	1021	0	0	0	
6	0	0	0	0	1021	356	1021	0	0	0	
7	0	0	0	0	1021	352	1021	0	0	0	
8	0	0	0	0	1021	349	1021	0	0	0	
9	0	0	0	0	1021	347	1021	0	0	0	
10	0	0	0	0	1021	346	1021	0	0	0	
11	0	0	0	0	1021	346	1021	0	0	0	
12	0	0	0	0	1021	347	1021	0	0	0	
13	0	0	0	0	1021	349	1021	0	0	0	
14	0	0	0	0	1021	352	1021	0	0	0	
15	0	0	0	0	1021	356	1021	0	0	0	
0	0	0	0	0	1021	360	1021	0	0	0	
1	0	0	0	0	1021	365	1021	0	0	0	
2	0	0	0	0	1021	368	1021	0	0	0	
3	0	0	0	0	1021	372	1021	0	0	0	
4	0	0	0	0	1021	375	1021	0	0	0	
5	0	0	0	0	1021	377	1021	0	0	0	
6	0	0	0	0	1021	379	1021	0	0	0	
7	0	0	0	0	1021	379	1021	0	0	0	
8	0	0	0	0	1021	378	1021	0	0	0	
9	0	0	0	0	1021	377	1021	0	0	0	
10	0	0	0	0	1021	376	1021	0	0	0	
11	0	0	0	0	1021	375	1021	0	0	0	
12	0	0	0	0	1021	374	1021	0	0	0	
13	0	0	0	0	1021	374	1021	0	0	0	
14	0	0	0	0	1021	374	1021	0	0	0	
15	0	0	0	0	1021	374	1021	0	0	0	
0	0	0	0	0	1021	374	1021	0	0	0	
1	0	0	0	0	1021	372	1021	0	0	0	
2	0	0	0	0	1021	371	1021	0	0	0	
3	0	0	0	0	1021	369	1021	0	0	0	
4	0	0	0	0	1021	367	1021	0	0	0	
5	0	0	0	0	1021	364	1021	0	0	0	
6	0	0	0	0	1021	363	1021	0	0	0	
7	0	0	0	0	1021	361	1021	0	0	0	
8	0	0	0	0	1021	359	1021	0	0	0	
9	0	0	0	0	1021	358	1021	0	0	0	
10	0	0	0	0	1021	355	1021	0	0	0	
11	0	0	0	0	1021	352	1021	0	0	0	
12	0	0	0	0	1021	351	1021	0	0	0	
13	0	0	0	0	1021	350	1021	0	0	0	
14	0	0	0	0	1021	352	1021	0	0	0	
15	0	0	0	0	1021	355	1021	0	0	0	
0	0	0	0	0	1021	359	1021	0	0	0	
1	0	0	0	0	1021	364	1021	0	0	0	
2	0	0	0	0	1021	369	1021	0	0	0	
3	0	0	0	0	1021	375	1021	0	0	0	
4	0	0	0	0	1021	380	1021	0	0	0	
5	0	0	0	0	1021	384	1021	0	0	0	
6	0	0	0	0	1021	389	1021	0	0	0	
7	0	0	0	0	1021	393	1021	0	0	0	
8	0	0	0	0	1021	399	1021	0	0	0	
9	0	0	0	0	1021	403	1021	0	0	0	
10	0	0	0	0	1021	406	1021	0	0	0	
11	0	0	0	0	1021	408	1021	0	0	0	
12	0	0	0	0	1021	409	1021	0	0	0	
13	0	0	0	0	1021	408	1021	0	0	0	
14	0	0	0	0	1021	405	1021	0	0	0	
15	0	0	0	0	1021	401	1021	0	0	0	
0	0	0	0	0	1021	396	1021	0	0	0	
1	0	0	0	0	1021	390	1021	0	0	0	
2	0	0	0	0	1021	385	1021	0	0	0	
3	0	0	0	0	1021	381	1021	0	0	0	
4	0	0	0	0	1021	378	1021	0	0	0	
5	0	0	0	0	1021	376	1021	0	0	0	
6	0	0	0	0	1021	376	1021	0	0	0	
7	0	0	0	0	1021	378	1021	0	0	0	
8	0	0	0	0	1021	382	1021	0	0	0	
9	0	0	0	0	1021	387	1021	0	0	0	
10	0	0	0	0	1021	392	1021	0	0	0	
11	0	0	0	0	1021	400	1021	0	0	0	
12	0	0	0	0	1021	408	1021	0	0	0	
13	0	0	0	0	1021	416	1021	0	0	0	
14	0	0	0	0	1021	424	1021	0	0	0	
15	0	0	0	0	1021	432	1021	0	0	0	
0	0	0	0	0	1021	439	1021	0	0	0	
1	0	0	0	0	1021	444	1021	0	0	0	
2	0	0	0	0	1021	447	1021	0	0	0	
3	0	0	0	0	1021	447	1021	0	0	0	
4	0	0	0	0	1021	445	1021	0	0	0	
5	0	0	0	0	1021	441	1021	0	0	0	
6	0	0	0	0	1021	436	1021	0	0	0	
7	0	0	0	0	1021	430	1021	0	0	0	
8	0	0	0	0	1021	423	1021	0	0	0	
9	0	0	0	0	1021	415	1021	0	0	0	
10	0	0	0	0	1021	409	1021	0	0	0	
11	0	0	0	0	1021	403	1021	0	0	0	
12	0	0	0	0	1021	399	1021	0	0	0	
13	0	0	0	0	1021	397	1021	0	0	0	
14	0	0	0	0	1021	396	1021	0	0	0	
15	0	0	0	0	1021	398	1021	0	0	0	
0	0	0	0	0	1021	401	1021	0	0	0	
1	0	0	0	0	1021	403	1021	0	0	0	
2	0	0	0	0	1021	405	1021	0	0	0	
3	0	0	0	0	1021	404	1021	0	0	0	
4	0	0	0	0	1021	400	1021	0	0	0	
5	0	0	0	0	1021	393	1021	0	0	0	
6	0	0	0	0	1021	383	1021	0	0	0	
7	0	0	0	0	1021	370	1021	0	0	0	
8	0	0	0	0	1021	355	1021	0	0	0	
9	0	0	0	0	1021	339	1021	0	0	0	
10	0	0	0	0	1021	323	1021	0	0	0	
11	0	0	0	0	1021	307	1021	0	0	0	
12	0	0	0	0	1021	292	1021	0	0	0	
13	0	0	0	0	1021	280	1021	0	0	0	
14	0	0	0	0	1021	270	1021	0	0	0	
15	0	0	0	0	1021	263	1021	0	0	0	
0	0	0	0	0	1021	258	1021	0	0	0	
1	0	0	0	0	1021	255	1021	0	0	0	
2	0	0	0	0	1021	253	1021	0	0	0	
3	0	0	0	0	1021	252	1021	0	0	0	
4	0	0	0	0	1021	254	1021	0	0	0	
5	0	0	0	0	1021	255	1020	0	0	0	
6	0	0	0	0	1021	260	1021	0	0	0	
7	0	0	0	0	1021	265	1021	0	0	0	
8	0	0	0	0	1021	272	1021	0	0	0	
9	0	0	0	0	1021	279	1021	0	0	0	
10	0	0	0	0	1021	285	1021	0	0	0	
11	0	0	0	0	1021	291	1021	0	0	0	
12	0	0	0	0	1021	294	1021	0	0	0	
13	0	0	0	0	1021	296	1021	0	0	0	
14	0	0	0	0	1021	296	1021	0	0	0	
15	0	0	0	0	1021	294	1021	0	0	0	
0	0	0	0	0	1021	289	1021	0	0	0	
1	0	0	0	0	1021	284	1021	0	0	0	
2	0	0	0	0	1021	278	1021	0	0	0	
3	0	0	0	0	1021	272	1021	0	0	0	
4	0	0	0	0	1021	268	1021	0	0	0	
5	0	0	0	0	1021	264	1021	0	0	0	
6	0	0	0	0	1021	263	1021	0	0	0	
7	0	0	0	0	1021	263	1021	0	0	0	
8	0	0	0	0	1021	265	1021	0	0	0	
9	0	0	0	0	1021	267	1021	0	0	0	
10	0	0	0	0	1021	270	1021	0	0	0	
11	0	0	0	0	1021	274	1021	0	0	0	
12	0	0	0	0	1021	278	1021	0	0	0	
13	0	0	0	0	1021	283	1021	0	0	0	
14	0	0	0	0	1021	289	1021	0	0	0	
15	0	0	0	0	1021	295	1021	0	0	0	
0	0	0	0	0	1021	300	1021	0	0	0	
1	0	0	0	0	1021	306	1021	0	0	0	
2	0	0	0	0	1021	312	1021	0	0	0	
3	0	0	0	0	1021	315	1020	0	0	0	
4	0	0	0	0	1021	318	1021	0	0	0	
5	0	0	0	0	1021	319	1021	0	0	0	
6	0	0	0	0	1021	319	1021	0	0	0	
7	0	0	0	0	1021	318	1021	0	0	0	
8	0	0	0	0	1021	316	1021	0	0	0	
9	0	0	0	0	1021	313	1021	0	0	0	
10	0	0	0	0	1021	309	1021	0	0	0	
11	0	0	0	0	1021	305	1021	0	0	0	
12	0	0	0	0	1021	301	1021	0	0	0	
13	0	0	0	0	1021	297	1021	0	0	0	
14	0	0	0	0	1021	295	1021	0	0	0	
15	0	0	0	0	1021	293	1021	0	0	0	
0	0	0	0	0	1021	293	1021	0	0	0	
1	0	0	0	0	1021	294	1021	0	0	0	
2	0	0	0	0	1021	297	1021	0	0	0	
3	0	0	0	0	1021	302	1021	0	0	0	
4	0	0	0	0	1021	306	1021	0	0	0	
5	0	0	0	0	1021	310	1021	0	0	0	
6	0	0	0	0	1021	314	1021	0	0	0	
7	0	0	0	0	1021	316	1021	0	0	0	
8	0	0	0	0	1021	317	1020	0	0	0	
9	0	0	0	0	1021	318	1021	0	0	0	
10	0	0	0	0	1021	318	1021	0	0	0	
11	0	0	0	0	1021	319	1021	0	0	0	
12	0	0	0	0	1021	321	1021	0	0	0	
13	0	0	0	0	1021	324	1021	0	0	0	
14	0	0	0	0	1021	327	1021	0	0	0	
15	0	0	0	0	1021	329	1021	0	0	0	
0	0	0	0	0	1021	332	1021	0	0	0	
1	0	0	0	0	1021	333	1021	0	0	0	
2	0	0	0	0	1021	334	1021	0	0	0	
3	0	0	0	0	1021	334	1021	0	0	0	
4	0	0	0	0	1021	334	1021	0	0	0	
5	0	0	0	0	1021	335	1021	0	0	0	
6	0	0	0	0	1021	335	1021	0	0	0	
7	0	0	0	0	1021	334	1021	0	0	0	
8	0	0	0	0	1021	333	1021	0	0	0	
9	0	0	0	0	1021	332	1021	0	0	0	
10	0	0	0	0	1021	331	1021	0	0	0	
11	0	0	0	0	1021	329	1021	0	0	0	
12	0	0	0	0	1021	329	1021	0	0	0	
13	0	0	0	0	1021	329	1021	0	0	0	
14	0	0	0	0	1021	330	1021	0	0	0	
15	0	0	0	0	1021	331	1021	0	0	0	
0	0	0	0	0	1021	332	1021	0	0	0	
1	0	0	0	0	1021	332	1021	0	0	0	
2	0	0	0	0	1021	332	1021	0	0	0	
3	0	0	0	0	1021	332	1021	0	0	0	
4	0	0	0	0	1021	332	1021	0	0	0	
5	0	0	0	0	1021	332	1021	0	0	0	
6	0	0	0	0	1021	333	1021	0	0	0	
7	0	0	0	0	1021	336	1021	0	0	0	
8	0	0	0	0	1021	339	1021	0	0	0	
9	0	0	0	0	1021	343	1021	0	0	0	
10	0	0	0	0	1021	347	1021	0	0	0	
11	0	0	0	0	1021	350	1021	0	0	0	
12	0	0	0	0	1021	352	1021	0	0	0	
13	0	0	0	0	1021	355	1021	0	0	0	
14	0	0	0	0	1021	358	1021	0	0	0	
15	0	0	0	0	1021	361	1021	0	0	0	
0	0	0	0	0	1021	364	1021	0	0	0	
1	0	0	0	0	1021	368	1021	0	0	0	
2	0	0	0	0	1021	371	1021	0	0	0	
3	0	0	0	0	1021	374	1021	0	0	0	
4	0	0	0	0	1021	377	1021	0	0	0	
5	0	0	0	0	1021	380	1021	0	0	0	
6	0	0	0	0	1021	383	1021	0	0	0	
7	0	0	0	0	1021	385	1021	0	0	0	
8	0	0	0	0	1021	388	1021	0	0	0	
9	0	0	0	0	1021	391	1021	0	0	0	
10	0	0	0	0	1021	392	1021	0	0	0	
11	0	0	0	0	1021	391	1021	0	0	0	
12	0	0	0	0	1021	391	1021	0	0	0	
13	0	0	0	0	1021	387	1021	0	0	0	
14	0	0	0	0	1021	381	1021	0	0	0	
15	0	0	0	0	1021	372	1021	0	0	0	
0	0	0	0	0	1021	361	1021	0	0	0	
1	0	0	0	0	1021	347	1021	0	0	0	
2	0	0	0	0	1021	329	1021	0	0	0	
3	0	0	0	0	1021	310	1021	0	0	0	
4	0	0	0	0	1021	289	1021	0	0	0	
5	0	0	0	0	1021	266	1021	0	0	0	
6	0	0	0	0	1021	243	1021	0	0	0	
7	0	0	0	0	1021	220	1021	0	0	0	
8	0	0	0	0	1021	197	1021	0	0	0	
9	0	0	0	0	1021	175	1021	0	0	0	
10	0	0	0	0	1021	153	1021	0	0	0	
11	0	0	0	0	1021	134	1021	0	0	0	
12	0	0	0	0	1021	116	1021	0	0	0	
13	0	0	0	0	1021	100	1021	0	0	0	
14	0	0	0	0	1021	87	1021	0	0	0	
15	0	0	0	0	1021	77	1021	0	0	0	
0	0	0	0	0	1021	69	1021	0	0	0	
1	0	0	0	0	1021	66	1021	0	0	0	
2	0	0	0	0	1021	67	1021	0	0	0	
3	0	0	0	0	1022	72	1020	0	0	0	
4	0	0	0	0	1021	83	1021	0	0	0	
5	0	0	0	0	1021	98	1021	0	0	0	
6	0	0	0	0	1021	119	1021	0	0	0	
7	0	0	0	0	1021	144	1021	0	0	0	
8	0	0	0	0	1021	173	1021	0	0	0	
9	0	0	0	0	1021	205	1021	0	0	0	
10	0	0	0	0	1021	239	1021	0	0	0	
11	0	0	0	0	1021	273	1021	0	0	0	
12	0	0	0	0	1021	307	1021	0	0	0	
13	0	0	0	0	1021	340	1021	0	0	0	
14	0	0	0	0	1021	371	1021	0	0	0	
15	0	0	0	0	1021	398	1021	0	0	0	
0	0	0	0	0	1021	421	1021	0	0	0	
1	0	0	0	0	1021	440	1021	0	0	0	
2	0	0	0	0	1021	455	1021	0	0	0	
3	0	0	0	0	1021	465	1021	0	0	0	
4	0	0	0	0	1021	473	1021	0	0	0	
5	0	0	0	0	1021	477	1021	0	0	0	
6	0	0	0	0	1021	478	1021	0	0	0	
7	0	0	0	0	1021	478	1021	0	0	0	
8	0	0	0	0	1021	475	1021	0	0	0	
9	0	0	0	0	1021	472	1021	0	0	0	
10	0	0	0	0	1021	468	1021	0	0	0	
11	0	0	0	0	1021	464	1021	0	0	0	
12	0	0	0	0	1021	459	1021	0	0	0	
13	0	0	0	0	1021	453	1021	0	0	0	
14	0	0	0	0	1021	447	1021	0	0	0	
15	0	0	0	0	1021	439	1021	0	0	0	
0	0	0	0	0	1021	432	1021	0	0	0	
1	0	0	0	0	1021	424	1021	0	0	0	
2	0	0	0	0	1021	417	1021	0	0	0	
3	0	0	0	0	1021	412	1021	0	0	0	
4	0	0	0	0	1021	409	1021	0	0	0	
5	0	0	0	0	1021	408	1021	0	0	0	
6	0	0	0	0	1021	409	1021	0	0	0	
7	0	0	0	0	1021	412	1021	0	0	0	
8	0	0	0	0	1021	416	1021	0	0	0	
9	0	0	0	0	1021	420	1021	0	0	0	
10	0	0	0	0	1021	424	1021	0	0	0	
11	0	0	0	0	1021	427	1021	0	0	0	
12	0	0	0	0	1021	430	1021	0	0	0	
13	0	0	0	0	1021	433	1021	0	0	0	
14	0	0	0	0	1021	436	1021	0	0	0	
15	0	0	0	0	1021	439	1021	0	0	0	
0	0	0	0	0	1021	442	1021	0	0	0	
1	0	0	0	0	1021	445	1021	0	0	0	
2	0	0	0	0	1021	448	1021	0	0	0	
3	0	0	0	0	1021	449	1021	0	0	0	
4	0	0	0	0	1021	449	1021	0	0	0	
5	0	0	0	0	1021	448	1021	0	0	0	
6	0	0	0	0	1021	447	1021	0	0	0	
7	0	0	0	0	1021	445	1021	0	0	0	
8	0	0	0	0	1021	443	1021	0	0	0	
9	0	0	0	0	1021	440	1021	0	0	0	
10	0	0	0	0	1021	437	1021	0	0	0	
11	0	0	0	0	1021	433	1021	0	0	0	
12	0	0	0	0	1021	431	1021	0	0	0	
13	0	0	0	0	1021	428	1021	0	0	0	
14	0	0	0	0	1021	425	1021	0	0	0	
15	0	0	0	0	1021	422	1021	0	0	0	
0	0	0	0	0	1021	418	1021	0	0	0	
1	0	0	0	0	1021	413	1021	0	0	0	
2	0	0	0	0	1021	408	1021	0	0	0	
3	0	0	0	0	1021	403	1021	0	0	0	
4	0	0	0	0	1021	398	1021	0	0	0	
5	0	0	0	0	1021	395	1021	0	0	0	
6	0	0	0	0	1021	395	1021	0	0	0	
7	0	0	0	0	1021	395	1021	0	0	0	
8	0	0	0	0	1021	396	1021	0	0	0	
9	0	0	0	0	1021	399	1021	0	0	0	
10	0	0	0	0	1021	402	1021	0	0	0	
11	0	0	0	0	1021	407	1021	0	0	0	
12	0	0	0	0	1021	412	1021	0	0	0	
13	0	0	0	0	1021	419	1021	0	0	0	
14	0	0	0	0	1021	428	1021	0	0	0	
15	0	0	0	0	1021	436	1021	0	0	0	
0	0	0	0	0	1021	444	1021	32	0	0	
1	0	0	0	0	1021	452	1021	80	0	0	
2	0	0	0	0	1021	458	1021	132	0	0	
3	0	0	0	0	1021	463	1021	176	0	0	
4	0	0	0	0	1021	465	1021	204	0	0	
5	0	0	0	0	1021	466	1021	210	0	0	
6	0	0	0	0	1021	465	1021	189	0	0	
7	0	0	0	0	1021	463	1021	142	0	0	
8	0	0	0	0	1021	460	1021	71	0	0	
9	0	0	0	0	1021	457	1021	0	0	0	
10	0	0	0	0	1021	453	1021	0	0	0	
11	0	0	0	0	1021	449	1021	0	0	0	
12	0	0	0	0	1021	445	1021	0	0	0	
13	0	0	0	0	1021	440	1021	0	0	0	
14	0	0	0	0	1021	436	1021	0	0	0	
15	0	0	0	0	1021	432	1021	0	0	0	
0	0	0	0	0	1021	429	1021	0	0	0	
1	0	0	0	0	1021	426	1021	0	0	0	
2	0	0	0	0	1021	424	1021	0	0	0	
3	0	0	0	0	1021	422	1021	0	0	0	
4	0	0	0	0	1021	421	1021	19	0	0	
5	0	0	0	0	1021	418	1021	55	0	0	
6	0	0	0	0	1021	415	1021	93	0	0	
7	0	0	0	0	1021	412	1021	123	0	0	
8	0	0	0	0	1021	408	1021	136	0	0	
9	0	0	0	0	1021	405	1021	128	0	0	
10	0	0	0	0	1021	403	1021	95	0	0	
11	0	0	0	0	1021	403	1021	40	0	0	
12	0	0	0	0	1021	404	1021	0	0	0	
13	0	0	0	0	1021	408	1021	0	0	0	
14	0	0	0	0	1021	411	1021	0	0	0	
15	0	0	0	0	1021	416	1021	0	0	0	
0	0	0	0	0	1021	421	1021	0	0	0	
1	0	0	0	0	1021	425	1021	0	0	0	
2	0	0	0	0	1021	430	1021	0	0	0	
3	0	0	0	0	1021	435	1021	0	0	0	
4	0	0	0	0	1021	439	1021	0	0	0	
5	0	0	0	0	1021	442	1021	0	0	0	
6	0	0	0	0	1021	445	1021	0	0	0	
7	0	0	0	0	1021	447	1021	0	0	0	
8	0	0	0	0	1021	447	1021	0	0	0	
9	0	0	0	0	1021	447	1021	7	0	0	
10	0	0	0	0	1021	445	1021	33	0	0	
11	0	0	0	0	1021	441	1021	58	0	0	
12	0	0	0	0	1021	437	1021	76	0	0	
13	0	0	0	0	1021	432	1021	79	0	0	
14	0	0	0	0	1021	427	1021	66	0	0	
15	0	0	0	0	1021	420	1021	34	0	0	
0	0	0	0	0	1021	414	1021	0	0	0	
1	0	0	0	0	1021	408	1021	0	0	0	
2	0	0	0	0	1021	403	1021	0	0	0	
3	0	0	0	0	1021	399	1021	0	0	0	
4	0	0	0	0	1021	396	1021	0	0	0	
5	0	0	0	0	1021	392	1021	0	0	0	
6	0	0	0	0	1021	390	1021	0	0	0	
7	0	0	0	0	1021	387	1021	0	0	0	
8	0	0	0	0	1021	385	1021	0	0	0	
9	0	0	0	0	1021	382	1021	0	0	0	
10	0	0	0	0	1021	380	1021	9	0	0	
11	0	0	0	0	1021	379	1021	57	0	0	
12	0	0	0	0	1021	380	1021	123	0	0	
13	0	0	0	0	1021	382	1021	199	0	0	
14	0	0	0	0	1021	385	1021	273	0	0	
15	0	0	0	0	1021	389	1021	334	0	0	
0	0	0	0	0	1021	393	1021	372	0	0	
1	0	0	0	0	1021	396	1021	382	0	0	
2	0	0	0	0	1021	398	1021	359	0	0	
3	0	0	0	0	1021	398	1021	304	0	0	
4	0	0	0	0	1021	396	1021	222	0	0	
5	0	0	0	0	1021	393	1021	120	0	0	
6	0	0	0	0	1021	390	1021	10	0	0	
7	0	0	0	0	1021	384	1021	0	0	0	
8	0	0	0	0	1021	378	1021	0	0	0	
9	0	0	0	0	1021	372	1021	0	0	0	
10	0	0	0	0	1021	365	1021	0	0	0	
11	0	0	0	0	1021	359	1021	0	0	0	
12	0	0	0	0	1021	354	1021	0	0	0	
13	0	0	0	0	1021	350	1021	0	0	0	
14	0	0	0	0	1021	346	1021	15	0	0	
15	0	0	0	0	1021	343	1021	65	0	0	
0	0	0	0	0	1021	340	1021	130	0	0	
1	0	0	0	0	1021	339	1021	199	0	0	
2	0	0	0	0	1021	342	1021	261	0	0	
3	0	0	0	0	1021	345	1021	305	0	0	
4	0	0	0	0	1021	352	1021	324	0	0	
5	0	0	0	0	1021	361	1021	313	0	0	
6	0	0	0	0	1021	371	1021	271	0	0	
7	0	0	0	0	1021	382	1021	201	0	0	
8	0	0	0	0	1021	393	1021	108	0	0	
9	0	0	0	0	1021	403	1021	3	0	0	
10	0	0	0	0	1021	413	1021	0	0	0	
11	0	0	0	0	1021	420	1021	0	0	0	
12	0	0	0	0	1021	425	1021	0	0	0	
13	0	0	0	0	1021	429	1021	0	0	0	
14	0	0	0	0	1021	429	1021	0	0	0	
15	0	0	0	0	1021	428	1021	0	0	0	
0	0	0	0	0	1021	425	1021	0	0	0	
1	0	0	0	0	1021	422	1021	0	0	0	
2	0	0	0	0	1021	417	1021	0	0	0	
3	0	0	0	0	1021	412	1021	33	0	0	
4	0	0	0	0	1021	408	1021	88	0	0	
5	0	0	0	0	1021	403	1021	154	0	0	
6	0	0	0	0	1021	398	1021	218	0	0	
7	0	0	0	0	1021	393	1021	269	0	0	
8	0	0	0	0	1021	387	1021	299	0	0	
9	0	0	0	0	1021	383	1021	300	0	0	
10	0	0	0	0	1021	380	1021	273	0	0	
11	0	0	0	0	1021	377	1021	217	0	0	
12	0	0	0	0	1021	376	1021	137	0	0	
13	0	0	0	0	1021	376	1021	43	0	0	
14	0	0	0	0	1021	377	1021	0	0	0	
15	0	0	0	0	1021	378	1021	0	0	0	
0	0	0	0	0	1021	380	1021	0	0	0	
1	0	0	0	0	1021	380	1021	0	0	0	
2	0	0	0	0	1021	379	1021	0	0	0	
3	0	0	0	0	1021	377	1021	0	0	0	
4	0	0	0	0	1021	374	1021	0	0	0	
5	0	0	0	0	1021	369	1021	0	0	0	
6	0	0	0	0	1021	364	1021	0	0	0	
7	0	0	0	0	1021	359	1021	37	0	0	
8	0	0	0	0	1021	355	1021	95	0	0	
9	0	0	0	0	1021	351	1021	163	0	0	
10	0	0	0	0	1021	349	1021	230	0	0	
11	0	0	0	0	1021	348	1021	287	0	0	
12	0	0	0	0	1021	348	1021	325	0	0	
13	0	0	0	0	1021	352	1021	337	0	0	
14	0	0	0	0	1021	356	1021	319	0	0	
15	0	0	0	0	1021	360	1021	273	0	0	
0	0	0	0	0	1021	364	1021	200	0	0	
1	0	0	0	0	1021	368	1021	110	0	0	
2	0	0	0	0	1021	370	1021	11	0	0	
3	0	0	0	0	1021	371	1021	0	0	0	
4	0	0	0	0	1021	369	1021	0	0	0	
5	0	0	0	0	1021	367	1021	0	0	0	
6	0	0	0	0	1021	363	1021	0	0	0	
7	0	0	0	0	1021	358	1021	0	0	0	
8	0	0	0	0	1021	355	1021	0	0	0	
9	0	0	0	0	1021	352	1021	0	0	0	
10	0	0	0	0	1022	350	1020	27	0	0	
11	0	0	0	0	1021	350	1021	85	0	0	
12	0	0	0	0	1021	351	1021	159	0	0	
13	0	0	0	0	1021	354	1021	238	0	0	
14	0	0	0	0	1021	358	1021	310	0	0	
15	0	0	0	0	1021	362	1021	367	0	0	
0	0	0	0	0	1021	365	1021	397	0	0	
1	0	0	0	0	1021	368	1021	396	0	0	
2	0	0	0	0	1021	370	1021	361	0	0	
3	0	0	0	0	1021	370	1020	295	0	0	
4	0	0	0	0	1021	370	1021	204	0	0	
5	0	0	0	0	1021	368	1021	96	0	0	
6	0	0	0	0	1021	367	1021	0	0	0	
7	0	0	0	0	1021	366	1021	0	0	0	
8	0	0	0	0	1021	365	1021	0	0	0	
9	0	0	0	0	1021	364	1021	0	0	0	
10	0	0	0	0	1021	364	1021	0	0	0	
11	0	0	0	0	1021	365	1021	0	0	0	
12	0	0	0	0	1021	366	1021	0	0	0	
13	0	0	0	0	1021	367	1021	0	0	0	
14	0	0	0	0	1021	367	1021	19	0	0	
15	0	0	0	0	1021	368	1021	75	0	0	
0	0	0	0	0	1021	369	1021	146	0	0	
1	0	0	0	0	1021	370	1021	223	0	0	
2	0	0	0	0	1021	370	1021	294	0	0	
3	0	0	0	0	1021	369	1021	348	0	0	
4	0	0	0	0	1021	367	1021	378	0	0	
5	0	0	0	0	1021	364	1021	377	0	0	
6	0	0	0	0	1021	361	1021	343	0	0	
7	0	0	0	0	1021	359	1021	278	0	0	
8	0	0	0	0	1021	356	1020	188	0	0	
9	0	0	0	0	1021	354	1021	82	0	0	
10	0	0	0	0	1021	353	1021	0	0	0	
11	0	0	0	0	1021	352	1021	0	0	0	
12	0	0	0	0	1021	352	1021	0	0	0	
13	0	0	0	0	1021	352	1021	0	0	0	
14	0	0	0	0	1021	352	1021	0	0	0	
15	0	0	0	0	1021	353	1021	0	0	0	
0	0	0	0	0	1021	355	1021	0	0	0	
1	0	0	0	0	1021	358	1021	0	0	0	
2	0	0	0	0	1021	360	1021	0	0	0	
3	0	0	0	0	1021	363	1021	41	0	0	
4	0	0	0	0	1021	366	1021	101	0	0	
5	0	0	0	0	1021	367	1021	171	0	0	
6	0	0	0	0	1021	368	1021	237	0	0	
7	0	0	0	0	1021	367	1021	290	0	0	
8	0	0	0	0	1021	365	1021	320	0	0	
9	0	0	0	0	1021	362	1021	324	0	0	
10	0	0	0	0	1021	358	1021	297	0	0	
11	0	0	0	0	1021	354	1021	241	0	0	
12	0	0	0	0	1021	349	1021	162	0	0	
13	0	0	0	0	1021	344	1021	67	0	0	
14	0	0	0	0	1021	341	1021	0	0	0	
15	0	0	0	0	1021	340	1021	0	0	0	
0	0	0	0	0	1021	341	1021	0	0	0	
1	0	0	0	0	1021	345	1021	0	0	0	
2	0	0	0	0	1021	351	1021	0	0	0	
3	0	0	0	0	1021	359	1021	0	0	0	
4	0	0	0	0	1021	368	1021	0	0	0	
5	0	0	0	0	1021	376	1021	34	0	0	
6	0	0	0	0	1021	384	1021	107	0	0	
7	0	0	0	0	1021	392	1021	201	0	0	
8	0	0	0	0	1021	399	1021	307	0	0	
9	0	0	0	0	1021	404	1021	413	0	0	
10	0	0	0	0	1021	408	1021	506	0	0	
11	0	0	0	0	1021	411	1021	575	0	0	
12	0	0	0	0	1021	411	1021	612	0	0	
13	0	0	0	0	1021	410	1021	610	0	0	
14	0	0	0	0	1021	407	1021	568	0	0	
15	0	0	0	0	1021	403	1021	491	0	0	
0	0	0	0	0	1021	396	1021	385	0	0	
1	0	0	0	0	1021	390	1021	260	0	0	
2	0	0	0	0	1021	384	1021	130	0	0	
3	0	0	0	0	1021	377	1021	6	0	0	
4	0	0	0	0	1021	370	1021	0	0	0	
5	0	0	0	0	1021	365	1021	0	0	0	
6	0	0	0	0	1021	361	1021	0	0	0	
7	0	0	0	0	1021	359	1021	0	0	0	
