# OpenSignals Text File Format. Version 1
# {"": {"position": 0, "device": "", "device name": "", "device connection": "", "sampling rate": 1000, "resolution": [4, 1, 1, 1, 1, 10, 10, 10, 10, 6, 6], "firmware version": 1281, "comments": "", "keywords": "", "mode": 0, "sync interval": 2, "date": "", "time": "", "channels": [1, 2, 3, 4, 5, 6], "sensor": ["RAW", "RAW", "RAW", "RAW", "RAW", "RAW"], "label": ["A1", "A2", "A3", "A4", "A5", "A6"], "column": ["nSeq", "I1", "I2", "O1", "O2", "A1", "A2", "A3", "A4", "A5", "A6"], "special": [{}, {}, {}, {}, {}, {}], "digital IO": [0, 0, 1, 1]}}
# EndOfHeader
0	0	0	0	0	523	507	1021	1021	0	0	
1	0	0	0	0	522	508	1021	1021	0	0	
2	0	0	0	0	522	507	1021	1021	0	0	
3	0	0	0	0	521	505	1021	1021	0	0	
4	0	0	0	0	522	503	1021	1021	0	0	
5	0	0	0	0	523	499	1021	1021	0	0	
6	0	0	0	0	524	496	1021	1021	0	0	
7	0	0	0	0	524	491	1021	1021	0	0	
8	0	0	0	0	524	486	1021	1021	0	0	
9	0	0	0	0	523	480	1021	1021	0	0	
10	0	0	0	0	520	473	1021	1021	0	0	
11	0	0	0	0	516	467	1021	1021	0	0	
12	0	0	0	0	510	460	1021	1021	0	0	
13	0	0	0	0	501	452	1021	1021	0	0	
14	0	0	0	0	492	444	1021	1021	0	0	
15	0	0	0	0	481	436	1021	1021	0	0	
0	0	0	0	0	471	429	1021	1021	0	0	
1	0	0	0	0	462	423	1021	1021	0	0	
2	0	0	0	0	456	419	1021	1021	0	0	
3	0	0	0	0	452	415	1021	1021	0	0	
4	0	0	0	0	452	416	1021	1021	0	0	
5	0	0	0	0	457	419	1021	1021	0	0	
6	0	0	0	0	466	425	1021	1021	0	0	
7	0	0	0	0	479	434	1021	1021	0	0	
8	0	0	0	0	494	445	1021	1021	0	0	
9	0	0	0	0	511	458	1021	1021	0	0	
10	0	0	0	0	531	473	1021	1021	0	0	
11	0	0	0	0	550	488	1021	1021	0	0	
12	0	0	0	0	568	503	1021	1021	0	0	
13	0	0	0	0	583	516	1021	1021	0	0	
14	0	0	0	0	597	529	1021	1021	0	0	
15	0	0	0	0	606	540	1021	1021	0	0	
0	0	0	0	0	611	548	1021	1021	0	0	
1	0	0	0	0	611	553	1021	1021	0	0	
2	0	0	0	0	606	555	1021	1021	0	0	
3	0	0	0	0	596	554	1021	1021	0	0	
4	0	0	0	0	581	549	1021	1021	0	0	
5	0	0	0	0	562	540	1021	1021	0	0	
6	0	0	0	0	540	527	1021	1021	0	0	
7	0	0	0	0	516	510	1021	1021	0	0	
8	0	0	0	0	492	491	1021	1021	0	0	
9	0	0	0	0	468	470	1021	1021	0	0	
10	0	0	0	0	447	448	1021	1021	0	0	
11	0	0	0	0	427	426	1021	1021	0	0	
12	0	0	0	0	410	403	1021	1021	0	0	
13	0	0	0	0	396	384	1021	1021	0	0	
14	0	0	0	0	386	366	1021	1021	0	0	
15	0	0	0	0	379	351	1021	1021	0	0	
0	0	0	0	0	375	339	1021	1021	0	0	
1	0	0	0	0	373	331	1021	1021	0	0	
2	0	0	0	0	373	325	1021	1021	0	0	
3	0	0	0	0	375	322	1021	1021	0	0	
4	0	0	0	0	376	321	1021	1021	0	0	
5	0	0	0	0	378	322	1021	1021	0	0	
6	0	0	0	0	379	324	1021	1021	0	0	
7	0	0	0	0	379	326	1021	1021	0	0	
8	0	0	0	0	376	328	1021	1021	0	0	
9	0	0	0	0	371	328	1021	1021	0	0	
10	0	0	0	0	365	328	1021	1021	0	0	
11	0	0	0	0	357	326	1021	1021	0	0	
12	0	0	0	0	348	321	1021	1021	0	0	
13	0	0	0	0	337	316	1021	1021	0	0	
14	0	0	0	0	327	307	1021	1021	0	0	
15	0	0	0	0	316	298	1021	1021	0	0	
0	0	0	0	0	308	288	1021	1021	0	0	
1	0	0	0	0	302	280	1021	1021	0	0	
2	0	0	0	0	299	273	1021	1021	0	0	
3	0	0	0	0	300	269	1021	1021	0	0	
4	0	0	0	0	305	268	1021	1021	0	0	
5	0	0	0	0	313	270	1021	1021	0	0	
6	0	0	0	0	324	275	1021	1021	0	0	
7	0	0	0	0	335	282	1021	1021	0	0	
8	0	0	0	0	348	291	1021	1021	0	0	
9	0	0	0	0	359	302	1021	1021	0	0	
10	0	0	0	0	370	313	1021	1021	0	0	
11	0	0	0	0	379	325	1021	1021	0	0	
12	0	0	0	0	388	338	1021	1021	0	0	
13	0	0	0	0	399	353	1021	1021	0	0	
14	0	0	0	0	411	370	1021	1021	0	0	
15	0	0	0	0	425	388	1021	1021	0	0	
0	0	0	0	0	441	408	1021	1021	0	0	
1	0	0	0	0	459	429	1021	1021	0	0	
2	0	0	0	0	479	449	1021	1021	0	0	
3	0	0	0	0	499	469	1021	1021	0	0	
4	0	0	0	0	519	486	1021	1021	0	0	
5	0	0	0	0	539	503	1021	1021	0	0	
6	0	0	0	0	558	518	1021	1021	0	0	
7	0	0	0	0	574	529	1021	1021	0	0	
8	0	0	0	0	587	538	1021	1021	0	0	
9	0	0	0	0	596	543	1021	1021	0	0	
10	0	0	0	0	601	547	1021	1021	0	0	
11	0	0	0	0	602	548	1021	1021	0	0	
12	0	0	0	0	599	548	1021	1021	0	0	
13	0	0	0	0	593	546	1021	1021	0	0	
14	0	0	0	0	583	542	1021	1021	0	0	
15	0	0	0	0	574	540	1021	1021	0	0	
0	0	0	0	0	563	536	1021	1021	0	0	
1	0	0	0	0	556	535	1021	1021	0	0	
2	0	0	0	0	550	535	1021	1021	0	0	
3	0	0	0	0	546	535	1021	1021	0	0	
4	0	0	0	0	545	536	1021	1021	0	0	
5	0	0	0	0	545	534	1021	1021	0	0	
6	0	0	0	0	543	530	1021	1021	0	0	
7	0	0	0	0	538	520	1021	1021	0	0	
8	0	0	0	0	528	505	1021	1021	0	0	
9	0	0	0	0	515	487	1021	1021	0	0	
10	0	0	0	0	498	464	1021	1021	0	0	
11	0	0	0	0	480	441	1021	1021	0	0	
12	0	0	0	0	462	420	1021	1021	0	0	
13	0	0	0	0	446	402	1021	1021	0	0	
14	0	0	0	0	432	390	1021	1021	0	0	
15	0	0	0	0	423	383	1021	1021	0	0	
0	0	0	0	0	419	382	1021	1021	0	0	
1	0	0	0	0	419	386	1021	1021	0	0	
2	0	0	0	0	426	396	1021	1021	0	0	
3	0	0	0	0	437	411	1021	1021	0	0	
4	0	0	0	0	453	430	1021	1021	0	0	
5	0	0	0	0	472	451	1021	1021	0	0	
6	0	0	0	0	493	472	1021	1021	0	0	
7	0	0	0	0	514	492	1021	1021	0	0	
8	0	0	0	0	536	512	1021	1021	0	0	
9	0	0	0	0	556	529	1021	1021	0	0	
10	0	0	0	0	575	543	1021	1021	0	0	
11	0	0	0	0	590	554	1021	1021	0	0	
12	0	0	0	0	602	560	1021	1021	0	0	
13	0	0	0	0	612	565	1021	1021	0	0	
14	0	0	0	0	618	566	1021	1021	0	0	
15	0	0	0	0	621	564	1021	1021	0	0	
0	0	0	0	0	621	561	1021	1021	0	0	
1	0	0	0	0	617	556	1021	1021	0	0	
2	0	0	0	0	612	550	1021	1021	0	0	
3	0	0	0	0	604	543	1021	1021	0	0	
4	0	0	0	0	593	534	1021	1021	0	0	
5	0	0	0	0	581	526	1021	1021	0	0	
6	0	0	0	0	569	518	1021	1021	0	0	
7	0	0	0	0	557	510	1021	1021	0	0	
8	0	0	0	0	546	503	1021	1021	0	0	
9	0	0	0	0	535	495	1021	1021	0	0	
10	0	0	0	0	525	486	1021	1021	0	0	
11	0	0	0	0	515	477	1021	1021	0	0	
12	0	0	0	0	508	469	1021	1021	0	0	
13	0	0	0	0	504	462	1021	1021	0	0	
14	0	0	0	0	501	456	1021	1021	0	0	
15	0	0	0	0	502	451	1021	1021	0	0	
0	0	0	0	0	504	449	1021	1021	0	0	
1	0	0	0	0	510	449	1021	1021	0	0	
2	0	0	0	0	519	452	1021	1021	0	0	
3	0	0	0	0	528	456	1021	1021	0	0	
4	0	0	0	0	539	462	1021	1021	0	0	
5	0	0	0	0	549	468	1021	1021	0	0	
6	0	0	0	0	559	476	1021	1021	0	0	
7	0	0	0	0	566	483	1021	1021	0	0	
8	0	0	0	0	570	488	1021	1021	0	0	
9	0	0	0	0	572	493	1021	1021	0	0	
10	0	0	0	0	571	497	1021	1021	0	0	
11	0	0	0	0	569	500	1021	1021	0	0	
12	0	0	0	0	565	503	1021	1021	0	0	
13	0	0	0	0	560	504	1021	1021	0	0	
14	0	0	0	0	554	504	1021	1021	0	0	
15	0	0	0	0	547	504	1021	1021	0	0	
0	0	0	0	0	541	503	1021	1021	0	0	
1	0	0	0	0	536	501	1021	1021	0	0	
2	0	0	0	0	532	499	1021	1021	0	0	
3	0	0	0	0	530	496	1021	1021	0	0	
4	0	0	0	0	529	493	1021	1021	0	0	
5	0	0	0	0	530	489	1021	1021	0	0	
6	0	0	0	0	531	484	1021	1021	0	0	
7	0	0	0	0	530	478	1021	1021	0	0	
8	0	0	0	0	528	470	1021	1021	0	0	
9	0	0	0	0	524	460	1021	1021	0	0	
10	0	0	0	0	519	452	1021	1021	0	0	
11	0	0	0	0	512	442	1021	1021	0	0	
12	0	0	0	0	504	434	1021	1021	0	0	
13	0	0	0	0	496	426	1021	1021	0	0	
14	0	0	0	0	486	419	1021	1021	0	0	
15	0	0	0	0	476	414	1021	1021	0	0	
0	0	0	0	0	468	410	1021	1021	0	0	
1	0	0	0	0	462	410	1021	1021	0	0	
2	0	0	0	0	459	412	1021	1021	0	0	
3	0	0	0	0	458	415	1021	1021	0	0	
4	0	0	0	0	462	423	1021	1021	0	0	
5	0	0	0	0	469	431	1021	1021	0	0	
6	0	0	0	0	479	441	1021	1021	0	0	
7	0	0	0	0	492	452	1021	1021	0	0	
8	0	0	0	0	508	463	1021	1021	0	0	
9	0	0	0	0	524	474	1021	1021	0	0	
10	0	0	0	0	540	483	1021	1021	0	0	
11	0	0	0	0	553	490	1021	1021	0	0	
12	0	0	0	0	565	495	1021	1021	0	0	
13	0	0	0	0	573	499	1021	1021	0	0	
14	0	0	0	0	578	501	1021	1021	0	0	
15	0	0	0	0	580	502	1021	1021	0	0	
0	0	0	0	0	577	501	1021	1021	0	0	
1	0	0	0	0	572	499	1021	1021	0	0	
2	0	0	0	0	563	496	1021	1021	0	0	
3	0	0	0	0	551	491	1021	1021	0	0	
4	0	0	0	0	536	484	1021	1021	0	0	
5	0	0	0	0	520	476	1021	1021	0	0	
6	0	0	0	0	502	465	1021	1021	0	0	
7	0	0	0	0	484	453	1021	1021	0	0	
8	0	0	0	0	468	442	1021	1021	0	0	
9	0	0	0	0	454	431	1021	1021	0	0	
10	0	0	0	0	443	421	1021	1021	0	0	
11	0	0	0	0	435	413	1021	1021	0	0	
12	0	0	0	0	432	407	1021	1021	0	0	
13	0	0	0	0	434	406	1021	1021	0	0	
14	0	0	0	0	440	407	1021	1021	0	0	
15	0	0	0	0	450	412	1021	1021	0	0	
0	0	0	0	0	462	419	1020	1021	0	0	
1	0	0	0	0	477	428	1021	1021	0	0	
2	0	0	0	0	492	439	1021	1021	0	0	
3	0	0	0	0	508	450	1021	1021	0	0	
4	0	0	0	0	521	460	1021	1021	0	0	
5	0	0	0	0	532	470	1021	1021	0	0	
6	0	0	0	0	540	478	1021	1021	0	0	
7	0	0	0	0	545	485	1021	1021	0	0	
8	0	0	0	0	547	489	1021	1021	0	0	
9	0	0	0	0	547	492	1021	1021	0	0	
10	0	0	0	0	544	494	1021	1021	0	0	
11	0	0	0	0	539	494	1021	1021	0	0	
12	0	0	0	0	534	493	1021	1021	0	0	
13	0	0	0	0	528	491	1021	1021	0	0	
14	0	0	0	0	522	487	1021	1021	0	0	
15	0	0	0	0	516	481	1021	1021	0	0	
0	0	0	0	0	510	475	1021	1021	0	0	
1	0	0	0	0	504	468	1021	1021	0	0	
2	0	0	0	0	499	460	1021	1021	0	0	
3	0	0	0	0	494	452	1021	1021	0	0	
4	0	0	0	0	489	445	1021	1021	0	0	
5	0	0	0	0	484	438	1021	1021	0	0	
6	0	0	0	0	480	432	1021	1021	0	0	
7	0	0	0	0	476	428	1021	1021	0	0	
8	0	0	0	0	473	426	1021	1021	0	0	
9	0	0	0	0	472	427	1021	1021	0	0	
10	0	0	0	0	472	430	1021	1021	0	0	
11	0	0	0	0	473	436	1021	1021	0	0	
12	0	0	0	0	476	443	1021	1021	0	0	
13	0	0	0	0	479	451	1021	1021	0	0	
14	0	0	0	0	482	459	1021	1021	0	0	
15	0	0	0	0	484	465	1021	1021	0	0	
0	0	0	0	0	486	470	1021	1021	0	0	
1	0	0	0	0	486	472	1021	1021	0	0	
2	0	0	0	0	486	472	1021	1021	0	0	
3	0	0	0	0	484	470	1021	1021	0	0	
4	0	0	0	0	484	467	1021	1021	0	0	
5	0	0	0	0	484	463	1021	1021	0	0	
6	0	0	0	0	484	459	1021	1021	0	0	
7	0	0	0	0	486	455	1021	1021	0	0	
8	0	0	0	0	487	451	1021	1021	0	0	
9	0	0	0	0	487	448	1021	1021	0	0	
10	0	0	0	0	489	446	1021	1021	0	0	
11	0	0	0	0	491	444	1021	1021	0	0	
12	0	0	0	0	493	445	1021	1021	0	0	
13	0	0	0	0	495	447	1021	1021	0	0	
14	0	0	0	0	497	449	1021	1021	0	0	
15	0	0	0	0	500	453	1021	1021	0	0	
0	0	0	0	0	502	456	1021	1021	0	0	
1	0	0	0	0	504	460	1021	1021	0	0	
2	0	0	0	0	505	462	1021	1021	0	0	
3	0	0	0	0	505	462	1021	1021	0	0	
4	0	0	0	0	506	463	1021	1021	0	0	
5	0	0	0	0	507	463	1021	1021	0	0	
6	0	0	0	0	509	463	1021	1021	0	0	
7	0	0	0	0	512	463	1021	1021	0	0	
8	0	0	0	0	516	464	1021	1021	0	0	
9	0	0	0	0	521	466	1021	1021	0	0	
10	0	0	0	0	525	466	1021	1021	0	0	
11	0	0	0	0	527	464	1021	1021	0	0	
12	0	0	0	0	526	461	1021	1021	0	0	
13	0	0	0	0	521	454	1021	1021	0	0	
14	0	0	0	0	513	447	1021	1021	0	0	
15	0	0	0	0	503	438	1021	1021	0	0	
0	0	0	0	0	491	429	1021	1021	0	0	
1	0	0	0	0	479	421	1021	1021	0	0	
2	0	0	0	0	467	415	1021	1021	0	0	
3	0	0	0	0	458	412	1021	1021	0	0	
4	0	0	0	0	451	411	1021	1021	0	0	
5	0	0	0	0	448	412	1021	1021	0	0	
6	0	0	0	0	447	415	1021	1021	0	0	
7	0	0	0	0	448	420	1021	1021	0	0	
8	0	0	0	0	453	425	1021	1021	0	0	
9	0	0	0	0	460	430	1021	1021	0	0	
10	0	0	0	0	467	435	1021	1021	0	0	
11	0	0	0	0	476	440	1020	1021	0	0	
12	0	0	0	0	486	444	1021	1021	0	0	
13	0	0	0	0	495	448	1021	1021	0	0	
14	0	0	0	0	504	450	1021	1021	0	0	
15	0	0	0	0	510	451	1021	1021	0	0	
0	0	0	0	0	515	451	1021	1021	0	0	
1	0	0	0	0	518	451	1021	1021	0	0	
2	0	0	0	0	520	450	1021	1021	0	0	
3	0	0	0	0	521	451	1021	1021	0	0	
4	0	0	0	0	522	451	1020	1021	0	0	
5	0	0	0	0	523	454	1021	1021	0	0	
6	0	0	0	0	524	456	1021	1021	0	0	
7	0	0	0	0	525	460	1021	1021	0	0	
8	0	0	0	0	524	462	1021	1021	0	0	
9	0	0	0	0	521	462	1021	1021	0	0	
10	0	0	0	0	516	459	1021	1021	0	0	
11	0	0	0	0	509	453	1021	1021	0	0	
12	0	0	0	0	500	447	1021	1021	0	0	
13	0	0	0	0	492	439	1021	1021	0	0	
14	0	0	0	0	485	431	1021	1021	0	0	
15	0	0	0	0	479	423	1021	1021	0	0	
0	0	0	0	0	473	415	1021	1021	0	0	
1	0	0	0	0	469	408	1021	1021	0	0	
2	0	0	0	0	465	401	1021	1021	0	0	
3	0	0	0	0	460	395	1021	1021	0	0	
4	0	0	0	0	455	389	1021	1021	0	0	
5	0	0	0	0	450	383	1021	1021	0	0	
6	0	0	0	0	444	378	1021	1021	0	0	
7	0	0	0	0	439	374	1021	1021	0	0	
8	0	0	0	0	432	371	1021	1021	0	0	
9	0	0	0	0	427	368	1021	1021	0	0	
10	0	0	0	0	422	368	1021	1021	0	0	
11	0	0	0	0	418	370	1021	1021	0	0	
12	0	0	0	0	417	374	1021	1021	0	0	
13	0	0	0	0	419	380	1021	1021	0	0	
14	0	0	0	0	423	388	1021	1021	0	0	
15	0	0	0	0	432	398	1021	1021	0	0	
0	0	0	0	0	442	408	1021	1021	0	0	
1	0	0	0	0	455	419	1021	1021	0	0	
2	0	0	0	0	468	429	1021	1021	0	0	
3	0	0	0	0	482	437	1021	1021	0	0	
4	0	0	0	0	495	444	1021	1021	0	0	
5	0	0	0	0	507	450	1021	1021	0	0	
6	0	0	0	0	518	454	1021	1021	0	0	
7	0	0	0	0	526	457	1021	1021	0	0	
8	0	0	0	0	532	459	1021	1021	0	0	
9	0	0	0	0	537	460	1021	1021	0	0	
10	0	0	0	0	539	460	1021	1021	0	0	
11	0	0	0	0	539	460	1021	1021	0	0	
12	0	0	0	0	536	460	1021	1021	0	0	
13	0	0	0	0	531	458	1021	1021	0	0	
14	0	0	0	0	523	455	1021	1021	0	0	
15	0	0	0	0	514	453	1021	1021	0	0	
0	0	0	0	0	504	449	1021	1021	0	0	
1	0	0	0	0	493	446	1021	1021	0	0	
2	0	0	0	0	483	442	1021	1021	0	0	
3	0	0	0	0	474	440	1021	1021	0	0	
4	0	0	0	0	469	440	1021	1021	0	0	
5	0	0	0	0	467	441	1021	1021	0	0	
6	0	0	0	0	470	446	1021	1021	0	0	
7	0	0	0	0	477	452	1021	1021	0	0	
8	0	0	0	0	487	460	1021	1021	0	0	
9	0	0	0	0	499	468	1021	1021	0	0	
10	0	0	0	0	511	475	1021	1021	0	0	
11	0	0	0	0	521	481	1021	1021	0	0	
12	0	0	0	0	529	485	1021	1021	0	0	
13	0	0	0	0	534	486	1021	1021	0	0	
14	0	0	0	0	535	485	1021	1021	0	0	
15	0	0	0	0	532	483	1021	1021	0	0	
0	0	0	0	0	527	479	1021	1021	0	0	
1	0	0	0	0	519	476	1021	1021	0	0	
2	0	0	0	0	511	474	1021	1021	0	0	
3	0	0	0	0	504	473	1021	1021	0	0	
4	0	0	0	0	497	474	1021	1021	0	0	
5	0	0	0	0	493	478	1021	1021	0	0	
6	0	0	0	0	491	483	1021	1021	0	0	
7	0	0	0	0	492	489	1021	1021	0	0	
8	0	0	0	0	495	496	1021	1021	0	0	
9	0	0	0	0	500	501	1021	1021	0	0	
10	0	0	0	0	506	507	1021	1021	0	0	
11	0	0	0	0	514	510	1021	1021	0	0	
12	0	0	0	0	521	512	1021	1021	0	0	
13	0	0	0	0	529	513	1021	1021	0	0	
14	0	0	0	0	536	512	1021	1021	0	0	
15	0	0	0	0	541	510	1021	1021	0	0	
0	0	0	0	0	545	508	1021	1021	0	0	
1	0	0	0	0	547	504	1021	1021	0	0	
2	0	0	0	0	547	502	1021	1021	0	0	
3	0	0	0	0	547	500	1021	1021	0	0	
4	0	0	0	0	544	498	1021	1021	0	0	
5	0	0	0	0	541	497	1021	1021	0	0	
6	0	0	0	0	536	496	1021	1021	0	0	
7	0	0	0	0	531	497	1021	1021	0	0	
8	0	0	0	0	527	499	1021	1021	0	0	
9	0	0	0	0	523	501	1021	1021	0	0	
10	0	0	0	0	519	504	1021	1021	0	0	
11	0	0	0	0	515	505	1021	1021	0	0	
12	0	0	0	0	513	507	1021	1021	0	0	
13	0	0	0	0	511	507	1021	1021	0	0	
14	0	0	0	0	508	505	1021	1021	0	0	
15	0	0	0	0	507	503	1021	1021	0	0	
0	0	0	0	0	505	498	1021	1021	0	0	
1	0	0	0	0	504	494	1021	1021	0	0	
2	0	0	0	0	504	489	1021	1021	0	0	
3	0	0	0	0	504	486	1021	1021	0	0	
4	0	0	0	0	506	483	1021	1021	0	0	
5	0	0	0	0	508	481	1020	1021	0	0	
6	0	0	0	0	512	482	1021	1021	0	0	
7	0	0	0	0	516	484	1021	1021	0	0	
8	0	0	0	0	521	487	1021	1021	0	0	
9	0	0	0	0	527	493	1021	1021	0	0	
10	0	0	0	0	532	499	1021	1021	0	0	
11	0	0	0	0	537	506	1021	1021	0	0	
12	0	0	0	0	541	511	1021	1021	0	0	
13	0	0	0	0	543	515	1021	1021	0	0	
14	0	0	0	0	544	518	1021	1021	0	0	
15	0	0	0	0	543	518	1021	1021	0	0	
0	0	0	0	0	541	518	1021	1021	0	0	
1	0	0	0	0	539	516	1021	1021	0	0	
2	0	0	0	0	535	513	1021	1021	0	0	
3	0	0	0	0	532	508	1021	1021	0	0	
4	0	0	0	0	528	503	1021	1021	0	0	
5	0	0	0	0	526	499	1021	1021	0	0	
6	0	0	0	0	523	493	1021	1021	0	0	
7	0	0	0	0	520	488	1021	1021	0	0	
8	0	0	0	0	518	483	1021	1021	0	0	
9	0	0	0	0	515	478	1021	1021	0	0	
10	0	0	0	0	512	473	1021	1021	0	0	
11	0	0	0	0	507	468	1021	1021	0	0	
12	0	0	0	0	503	463	1021	1021	0	0	
13	0	0	0	0	498	460	1021	1021	0	0	
14	0	0	0	0	493	457	1021	1021	0	0	
15	0	0	0	0	489	457	1021	1021	0	0	
0	0	0	0	0	486	458	1021	1021	0	0	
1	0	0	0	0	484	459	1021	1021	0	0	
2	0	0	0	0	483	462	1021	1021	0	0	
3	0	0	0	0	483	463	1021	1021	0	0	
4	0	0	0	0	486	466	1021	1021	0	0	
5	0	0	0	0	489	469	1021	1021	0	0	
6	0	0	0	0	495	472	1021	1021	0	0	
7	0	0	0	0	503	475	1021	1021	0	0	
8	0	0	0	0	513	478	1021	1021	0	0	
9	0	0	0	0	524	482	1021	1021	0	0	
10	0	0	0	0	535	486	1021	1021	0	0	
11	0	0	0	0	545	489	1021	1021	0	0	
12	0	0	0	0	555	493	1021	1021	0	0	
13	0	0	0	0	562	495	1021	1021	0	0	
14	0	0	0	0	567	497	1021	1021	0	0	
15	0	0	0	0	569	499	1021	1021	0	0	
0	0	0	0	0	569	500	1021	1021	0	0	
1	0	0	0	0	568	502	1021	1021	0	0	
2	0	0	0	0	564	503	1021	1021	0	0	
3	0	0	0	0	560	505	1021	1021	0	0	
4	0	0	0	0	556	508	1021	1021	0	0	
5	0	0	0	0	551	511	1021	1021	0	0	
6	0	0	0	0	547	513	1021	1021	0	0	
7	0	0	0	0	543	514	1021	1021	0	0	
8	0	0	0	0	540	516	1021	1021	0	0	
9	0	0	0	0	539	518	1021	1021	0	0	
10	0	0	0	0	538	518	1021	1021	0	0	
11	0	0	0	0	539	518	1021	1021	0	0	
12	0	0	0	0	539	515	1021	1021	0	0	
13	0	0	0	0	540	511	1021	1021	0	0	
14	0	0	0	0	540	506	1021	1021	0	0	
15	0	0	0	0	539	500	1021	1021	0	0	
0	0	0	0	0	537	492	1021	1021	0	0	
1	0	0	0	0	534	484	1021	1021	0	0	
2	0	0	0	0	531	478	1021	1021	0	0	
3	0	0	0	0	527	471	1021	1021	0	0	
4	0	0	0	0	523	467	1021	1021	0	0	
5	0	0	0	0	519	464	1021	1021	0	0	
6	0	0	0	0	516	463	1021	1021	0	0	
7	0	0	0	0	514	464	1021	1021	0	0	
8	0	0	0	0	512	466	1021	1021	0	0	
9	0	0	0	0	511	468	1021	1021	0	0	
10	0	0	0	0	509	469	1021	1021	0	0	
11	0	0	0	0	507	470	1021	1021	0	0	
12	0	0	0	0	506	471	1021	1021	0	0	
13	0	0	0	0	505	470	1021	1021	0	0	
14	0	0	0	0	504	469	1021	1021	0	0	
15	0	0	0	0	504	466	1021	1021	0	0	
0	0	0	0	0	503	461	1021	1021	0	0	
1	0	0	0	0	500	455	1021	1021	0	0	
2	0	0	0	0	496	447	1021	1021	0	0	
3	0	0	0	0	491	437	1021	1021	0	0	
4	0	0	0	0	486	429	1021	1021	0	0	
5	0	0	0	0	482	422	1021	1021	0	0	
6	0	0	0	0	481	419	1021	1021	0	0	
7	0	0	0	0	483	420	1021	1021	0	0	
8	0	0	0	0	488	426	1021	1021	0	0	
9	0	0	0	0	496	435	1021	1021	0	0	
10	0	0	0	0	507	446	1021	1021	0	0	
11	0	0	0	0	518	458	1021	1021	0	0	
12	0	0	0	0	529	471	1021	1021	0	0	
13	0	0	0	0	540	483	1021	1021	0	0	
14	0	0	0	0	550	493	1021	1021	0	0	
15	0	0	0	0	559	501	1021	1021	0	0	
0	0	0	0	0	566	507	1021	1021	0	0	
1	0	0	0	0	572	509	1021	1021	0	0	
2	0	0	0	0	575	509	1021	1021	0	0	
3	0	0	0	0	575	506	1021	1021	0	0	
4	0	0	0	0	575	502	1021	1021	0	0	
5	0	0	0	0	574	497	1021	1021	0	0	
6	0	0	0	0	573	492	1021	1021	0	0	
7	0	0	0	0	572	489	1021	1021	0	0	
8	0	0	0	0	572	488	1021	1021	0	0	
9	0	0	0	0	571	489	1021	1021	0	0	
10	0	0	0	0	572	492	1021	1021	0	0	
11	0	0	0	0	572	496	1021	1021	0	0	
12	0	0	0	0	572	500	1021	1021	0	0	
13	0	0	0	0	571	505	1021	1021	0	0	
14	0	0	0	0	568	509	1021	1021	0	0	
15	0	0	0	0	564	512	1021	1021	0	0	
0	0	0	0	0	559	513	1021	1021	0	0	
1	0	0	0	0	553	512	1021	1021	0	0	
2	0	0	0	0	546	509	1021	1021	0	0	
3	0	0	0	0	539	505	1021	1021	0	0	
4	0	0	0	0	532	499	1021	1021	0	0	
5	0	0	0	0	526	493	1021	1021	0	0	
6	0	0	0	0	521	487	1021	1021	0	0	
7	0	0	0	0	519	482	1021	1021	0	0	
8	0	0	0	0	517	478	1021	1021	0	0	
9	0	0	0	0	518	474	1021	1021	0	0	
10	0	0	0	0	519	471	1021	1021	0	0	
11	0	0	0	0	520	468	1021	1021	0	0	
12	0	0	0	0	521	467	1021	1021	0	0	
13	0	0	0	0	523	466	1021	1021	0	0	
14	0	0	0	0	524	467	1021	1021	0	0	
15	0	0	0	0	526	470	1021	1021	0	0	
0	0	0	0	0	527	473	1021	1021	0	0	
1	0	0	0	0	527	476	1021	1021	0	0	
2	0	0	0	0	526	480	1021	1021	0	0	
3	0	0	0	0	526	483	1021	1021	0	0	
4	0	0	0	0	524	484	1021	1021	0	0	
5	0	0	0	0	522	484	1021	1021	0	0	
6	0	0	0	0	519	483	1021	1021	0	0	
7	0	0	0	0	516	481	1021	1021	0	0	
8	0	0	0	0	515	477	1021	1021	0	0	
9	0	0	0	0	514	473	1021	1021	0	0	
10	0	0	0	0	514	468	1021	1021	0	0	
11	0	0	0	0	514	463	1021	1021	0	0	
12	0	0	0	0	515	459	1021	1021	0	0	
13	0	0	0	0	518	455	1021	1021	0	0	
14	0	0	0	0	519	450	1021	1021	0	0	
15	0	0	0	0	521	447	1021	1021	0	0	
0	0	0	0	0	524	445	1021	1021	0	0	
1	0	0	0	0	526	444	1021	1021	0	0	
2	0	0	0	0	528	446	1021	1021	0	0	
3	0	0	0	0	532	450	1021	1021	0	0	
4	0	0	0	0	537	455	1021	1021	0	0	
5	0	0	0	0	542	464	1021	1021	0	0	
6	0	0	0	0	547	473	1021	1021	0	0	
7	0	0	0	0	553	483	1021	1021	0	0	
8	0	0	0	0	558	493	1021	1021	0	0	
9	0	0	0	0	561	501	1021	1021	0	0	
10	0	0	0	0	562	507	1021	1021	0	0	
11	0	0	0	0	560	510	1021	1021	0	0	
12	0	0	0	0	558	511	1021	1021	0	0	
13	0	0	0	0	553	510	1021	1021	0	0	
14	0	0	0	0	547	507	1021	1021	0	0	
15	0	0	0	0	541	503	1021	1021	0	0	
0	0	0	0	0	533	496	1021	1021	0	0	
1	0	0	0	0	526	489	1021	1021	0	0	
2	0	0	0	0	519	482	1021	1021	0	0	
3	0	0	0	0	513	475	1021	1021	0	0	
4	0	0	0	0	510	471	1021	1021	0	0	
5	0	0	0	0	510	470	1021	1021	0	0	
6	0	0	0	0	511	472	1021	1021	0	0	
7	0	0	0	0	515	475	1021	1021	0	0	
8	0	0	0	0	521	480	1021	1021	0	0	
9	0	0	0	0	527	486	1021	1021	0	0	
10	0	0	0	0	532	492	1020	1021	0	0	
11	0	0	0	0	536	497	1021	1021	0	0	
12	0	0	0	0	538	500	1021	1021	0	0	
13	0	0	0	0	536	500	1021	1021	0	0	
14	0	0	0	0	531	496	1021	1021	0	0	
15	0	0	0	0	524	489	1021	1021	0	0	
0	0	0	0	0	513	480	1021	1021	0	0	
1	0	0	0	0	502	468	1021	1021	0	0	
2	0	0	0	0	490	455	1021	1021	0	0	
3	0	0	0	0	479	441	1021	1021	0	0	
4	0	0	0	0	470	430	1020	1021	0	0	
5	0	0	0	0	464	420	1021	1021	0	0	
6	0	0	0	0	463	415	1021	1021	0	0	
7	0	0	0	0	464	412	1021	1021	0	0	
8	0	0	0	0	469	413	1021	1021	0	0	
9	0	0	0	0	476	417	1021	1021	0	0	
10	0	0	0	0	486	424	1021	1021	0	0	
11	0	0	0	0	496	434	1021	1021	0	0	
12	0	0	0	0	507	445	1021	1021	0	0	
13	0	0	0	0	518	458	1021	1021	0	0	
14	0	0	0	0	528	471	1021	1021	0	0	
15	0	0	0	0	538	484	1021	1021	0	0	
0	0	0	0	0	547	497	1021	1021	0	0	
1	0	0	0	0	555	509	1021	1021	0	0	
2	0	0	0	0	560	518	1021	1021	0	0	
3	0	0	0	0	563	524	1021	1021	0	0	
4	0	0	0	0	563	527	1021	1021	0	0	
5	0	0	0	0	561	527	1021	1021	0	0	
6	0	0	0	0	558	525	1021	1021	0	0	
7	0	0	0	0	553	519	1021	1021	0	0	
8	0	0	0	0	547	512	1021	1021	0	0	
9	0	0	0	0	540	504	1021	1021	0	0	
10	0	0	0	0	533	494	1021	1021	0	0	
11	0	0	0	0	527	485	1021	1021	0	0	
12	0	0	0	0	520	476	1021	1021	0	0	
13	0	0	0	0	514	467	1021	1021	0	0	
14	0	0	0	0	509	462	1021	1021	0	0	
15	0	0	0	0	505	458	1021	1021	0	0	
0	0	0	0	0	503	456	1021	1021	0	0	
1	0	0	0	0	503	457	1021	1021	0	0	
2	0	0	0	0	502	460	1021	1021	0	0	
3	0	0	0	0	503	463	1021	1021	0	0	
4	0	0	0	0	504	468	1021	1021	0	0	
5	0	0	0	0	504	473	1021	1021	0	0	
6	0	0	0	0	506	478	1021	1021	0	0	
7	0	0	0	0	508	483	1021	1021	0	0	
8	0	0	0	0	511	488	1021	1021	0	0	
9	0	0	0	0	514	493	1021	1021	0	0	
10	0	0	0	0	518	497	1021	1021	0	0	
11	0	0	0	0	523	501	1021	1021	0	0	
12	0	0	0	0	528	503	1021	1021	0	0	
13	0	0	0	0	534	506	1021	1021	0	0	
14	0	0	0	0	539	507	1021	1021	0	0	
15	0	0	0	0	543	508	1021	1021	0	0	
0	0	0	0	0	545	505	1021	1021	0	0	
1	0	0	0	0	544	500	1021	1021	0	0	
2	0	0	0	0	539	493	1021	1021	0	0	
3	0	0	0	0	529	483	1021	1021	0	0	
4	0	0	0	0	518	472	1021	1021	0	0	
5	0	0	0	0	505	463	1021	1021	0	0	
6	0	0	0	0	492	454	1021	1021	0	0	
7	0	0	0	0	481	449	1021	1021	0	0	
8	0	0	0	0	473	446	1021	1021	0	0	
9	0	0	0	0	466	447	1021	1021	0	0	
10	0	0	0	0	463	450	1021	1021	0	0	
11	0	0	0	0	464	455	1021	1021	0	0	
12	0	0	0	0	469	463	1021	1021	0	0	
13	0	0	0	0	476	473	1021	1021	0	0	
14	0	0	0	0	486	482	1021	1021	0	0	
15	0	0	0	0	498	492	1021	1021	0	0	
0	0	0	0	0	510	500	1021	1021	0	0	
1	0	0	0	0	523	508	1021	1021	0	0	
2	0	0	0	0	535	513	1021	1021	0	0	
3	0	0	0	0	545	517	1021	1021	0	0	
4	0	0	0	0	552	519	1021	1021	0	0	
5	0	0	0	0	558	519	1021	1021	0	0	
6	0	0	0	0	560	518	1021	1021	0	0	
7	0	0	0	0	560	515	1021	1021	0	0	
8	0	0	0	0	556	512	1021	1021	0	0	
9	0	0	0	0	551	508	1021	1021	0	0	
10	0	0	0	0	545	504	1021	1021	0	0	
11	0	0	0	0	539	502	1021	1021	0	0	
12	0	0	0	0	533	500	1021	1021	0	0	
13	0	0	0	0	528	499	1021	1021	0	0	
14	0	0	0	0	524	499	1021	1021	0	0	
15	0	0	0	0	520	499	1021	1021	0	0	
0	0	0	0	0	518	499	1021	1021	0	0	
1	0	0	0	0	516	497	1021	1021	0	0	
2	0	0	0	0	514	495	1021	1021	0	0	
3	0	0	0	0	512	491	1021	1021	0	0	
4	0	0	0	0	511	487	1021	1021	0	0	
5	0	0	0	0	510	483	1021	1021	0	0	
6	0	0	0	0	510	478	1021	1021	0	0	
7	0	0	0	0	511	475	1021	1021	0	0	
8	0	0	0	0	513	473	1021	1021	0	0	
9	0	0	0	0	516	473	1021	1021	0	0	
10	0	0	0	0	521	475	1021	1021	0	0	
11	0	0	0	0	527	477	1021	1021	0	0	
12	0	0	0	0	531	480	1021	1021	0	0	
13	0	0	0	0	535	482	1021	1021	0	0	
14	0	0	0	0	536	484	1021	1021	0	0	
15	0	0	0	0	536	486	1021	1021	0	0	
0	0	0	0	0	533	486	1021	1021	0	0	
1	0	0	0	0	529	484	1021	1021	0	0	
2	0	0	0	0	524	483	1021	1021	0	0	
3	0	0	0	0	518	480	1021	1021	0	0	
4	0	0	0	0	512	477	1021	1021	0	0	
5	0	0	0	0	507	473	1021	1021	0	0	
6	0	0	0	0	502	470	1021	1021	0	0	
7	0	0	0	0	498	466	1021	1021	0	0	
8	0	0	0	0	494	461	1021	1021	0	0	
9	0	0	0	0	490	455	1021	1021	0	0	
10	0	0	0	0	486	448	1021	1021	0	0	
11	0	0	0	0	483	441	1021	1021	0	0	
12	0	0	0	0	482	436	1021	1021	0	0	
13	0	0	0	0	482	432	1021	1021	0	0	
14	0	0	0	0	484	431	1021	1021	0	0	
15	0	0	0	0	488	432	1021	1021	0	0	
0	0	0	0	0	493	434	1021	1021	0	0	
1	0	0	0	0	499	439	1021	1021	0	0	
2	0	0	0	0	504	444	1021	1021	0	0	
3	0	0	0	0	510	450	1021	1021	0	0	
4	0	0	0	0	516	456	1021	1021	0	0	
5	0	0	0	0	520	462	1021	1021	0	0	
6	0	0	0	0	525	467	1021	1021	0	0	
7	0	0	0	0	529	472	1021	1021	0	0	
8	0	0	0	0	535	479	1021	1021	0	0	
9	0	0	0	0	540	485	1021	1021	0	0	
10	0	0	0	0	548	492	1021	1021	0	0	
11	0	0	0	0	557	498	1021	1021	0	0	
12	0	0	0	0	564	503	1021	1021	0	0	
13	0	0	0	0	572	507	1021	1021	0	0	
14	0	0	0	0	576	508	1021	1021	0	0	
15	0	0	0	0	579	508	1021	1021	0	0	
0	0	0	0	0	578	505	1021	1021	0	0	
1	0	0	0	0	575	500	1021	1021	0	0	
2	0	0	0	0	570	496	1021	1021	0	0	
3	0	0	0	0	563	492	1021	1021	0	0	
4	0	0	0	0	556	487	1021	1021	0	0	
5	0	0	0	0	548	484	1021	1021	0	0	
6	0	0	0	0	538	479	1021	1021	0	0	
7	0	0	0	0	528	475	1021	1021	0	0	
8	0	0	0	0	517	470	1021	1021	0	0	
9	0	0	0	0	504	463	1021	1021	0	0	
10	0	0	0	0	492	455	1021	1021	0	0	
11	0	0	0	0	480	446	1021	1021	0	0	
12	0	0	0	0	470	438	1021	1021	0	0	
13	0	0	0	0	461	430	1021	1021	0	0	
14	0	0	0	0	456	423	1021	1021	0	0	
15	0	0	0	0	455	419	1021	1021	0	0	
0	0	0	0	0	459	419	1021	1021	0	0	
1	0	0	0	0	467	422	1021	1021	0	0	
2	0	0	0	0	480	428	1021	1021	0	0	
3	0	0	0	0	495	437	1021	1021	0	0	
4	0	0	0	0	512	448	1021	1021	0	0	
5	0	0	0	0	530	460	1021	1021	0	0	
6	0	0	0	0	547	474	1021	1021	0	0	
7	0	0	0	0	562	487	1021	1021	0	0	
8	0	0	0	0	573	499	1021	1021	0	0	
9	0	0	0	0	580	508	1021	1021	0	0	
10	0	0	0	0	582	514	1021	1021	0	0	
11	0	0	0	0	582	519	1021	1021	0	0	
12	0	0	0	0	577	520	1021	1021	0	0	
13	0	0	0	0	571	520	1021	1021	0	0	
14	0	0	0	0	563	518	1021	1021	0	0	
15	0	0	0	0	556	515	1021	1021	0	0	
0	0	0	0	0	549	512	1021	1021	0	0	
1	0	0	0	0	543	508	1021	1021	0	0	
2	0	0	0	0	538	503	1021	1021	0	0	
3	0	0	0	0	535	498	1021	1021	0	0	
4	0	0	0	0	534	494	1021	1021	0	0	
5	0	0	0	0	535	491	1021	1021	0	0	
6	0	0	0	0	536	487	1021	1021	0	0	
7	0	0	0	0	538	484	1021	1021	0	0	
8	0	0	0	0	540	482	1021	1021	0	0	
9	0	0	0	0	543	483	1021	1021	0	0	
10	0	0	0	0	548	484	1021	1021	0	0	
11	0	0	0	0	552	488	1021	1021	0	0	
12	0	0	0	0	556	492	1021	1021	0	0	
13	0	0	0	0	560	497	1021	1021	0	0	
14	0	0	0	0	561	500	1021	1021	0	0	
15	0	0	0	0	562	503	1021	1021	0	0	
0	0	0	0	0	560	504	1021	1021	0	0	
1	0	0	0	0	557	503	1021	1021	0	0	
2	0	0	0	0	552	500	1021	1021	0	0	
3	0	0	0	0	546	496	1021	1021	0	0	
4	0	0	0	0	540	492	1021	1021	0	0	
5	0	0	0	0	535	486	1021	1021	0	0	
6	0	0	0	0	529	481	1021	1021	0	0	
7	0	0	0	0	527	477	1021	1021	0	0	
8	0	0	0	0	527	474	1021	1021	0	0	
9	0	0	0	0	529	472	1021	1021	0	0	
10	0	0	0	0	531	471	1021	1021	0	0	
11	0	0	0	0	534	469	1021	1021	0	0	
12	0	0	0	0	534	466	1021	1021	0	0	
13	0	0	0	0	531	462	1021	1021	0	0	
14	0	0	0	0	528	458	1021	1021	0	0	
15	0	0	0	0	523	454	1021	1021	0	0	
0	0	0	0	0	518	452	1021	1021	0	0	
1	0	0	0	0	515	454	1021	1021	0	0	
2	0	0	0	0	513	457	1021	1021	0	0	
3	0	0	0	0	513	464	1021	1021	0	0	
4	0	0	0	0	513	472	1021	1021	0	0	
5	0	0	0	0	516	480	1021	1021	0	0	
6	0	0	0	0	519	489	1021	1021	0	0	
7	0	0	0	0	523	495	1021	1021	0	0	
8	0	0	0	0	527	501	1021	1021	0	0	
9	0	0	0	0	531	505	1021	1021	0	0	
10	0	0	0	0	534	508	1021	1021	0	0	
11	0	0	0	0	538	510	1021	1021	0	0	
12	0	0	0	0	541	510	1021	1021	0	0	
13	0	0	0	0	544	510	1021	1021	0	0	
14	0	0	0	0	546	509	1021	1021	0	0	
15	0	0	0	0	547	505	1021	1021	0	0	
0	0	0	0	0	545	501	1021	1021	0	0	
1	0	0	0	0	542	495	1021	1021	0	0	
2	0	0	0	0	537	489	1021	1021	0	0	
3	0	0	0	0	530	481	1021	1021	0	0	
4	0	0	0	0	523	474	1021	1021	0	0	
5	0	0	0	0	514	466	1021	1021	0	0	
6	0	0	0	0	506	460	1021	1021	0	0	
7	0	0	0	0	500	455	1021	1021	0	0	
8	0	0	0	0	496	451	1021	1021	0	0	
9	0	0	0	0	495	450	1021	1021	0	0	
10	0	0	0	0	496	449	1021	1021	0	0	
11	0	0	0	0	499	450	1021	1021	0	0	
12	0	0	0	0	504	451	1021	1021	0	0	
13	0	0	0	0	511	454	1021	1021	0	0	
14	0	0	0	0	519	456	1021	1021	0	0	
15	0	0	0	0	527	460	1021	1021	0	0	
0	0	0	0	0	536	462	1021	1021	0	0	
1	0	0	0	0	543	464	1021	1021	0	0	
2	0	0	0	0	548	464	1021	1021	0	0	
3	0	0	0	0	551	463	1021	1021	0	0	
4	0	0	0	0	552	462	1021	1021	0	0	
5	0	0	0	0	551	460	1021	1021	0	0	
6	0	0	0	0	549	457	1021	1021	0	0	
7	0	0	0	0	543	455	1021	1021	0	0	
8	0	0	0	0	536	452	1021	1021	0	0	
9	0	0	0	0	527	449	1021	1021	0	0	
10	0	0	0	0	517	445	1021	1021	0	0	
11	0	0	0	0	505	441	1021	1021	0	0	
12	0	0	0	0	496	439	1021	1021	0	0	
13	0	0	0	0	487	439	1021	1021	0	0	
14	0	0	0	0	483	440	1021	1021	0	0	
15	0	0	0	0	482	444	1021	1021	0	0	
0	0	0	0	0	484	449	1021	1021	0	0	
1	0	0	0	0	491	457	1021	1021	0	0	
2	0	0	0	0	501	465	1021	1021	0	0	
3	0	0	0	0	512	474	1021	1021	0	0	
4	0	0	0	0	524	483	1021	1021	0	0	
5	0	0	0	0	537	490	1021	1021	0	0	
6	0	0	0	0	549	496	1021	1021	0	0	
7	0	0	0	0	559	502	1021	1021	0	0	
8	0	0	0	0	568	507	1021	1021	0	0	
9	0	0	0	0	575	510	1021	1021	0	0	
10	0	0	0	0	580	514	1021	1021	0	0	
11	0	0	0	0	582	516	1021	1021	0	0	
12	0	0	0	0	582	518	1021	1021	0	0	
13	0	0	0	0	579	519	1021	1021	0	0	
14	0	0	0	0	574	518	1021	1021	0	0	
15	0	0	0	0	567	515	1021	1021	0	0	
0	0	0	0	0	558	512	1021	1021	0	0	
1	0	0	0	0	548	507	1021	1021	0	0	
2	0	0	0	0	539	501	1021	1021	0	0	
3	0	0	0	0	529	494	1021	1021	0	0	
4	0	0	0	0	520	487	1021	1021	0	0	
5	0	0	0	0	512	480	1021	1021	0	0	
6	0	0	0	0	505	473	1021	1021	0	0	
7	0	0	0	0	499	465	1021	1021	0	0	
8	0	0	0	0	496	460	1021	1021	0	0	
9	0	0	0	0	496	455	1021	1021	0	0	
10	0	0	0	0	498	454	1021	1021	0	0	
11	0	0	0	0	503	455	1021	1021	0	0	
12	0	0	0	0	511	458	1021	1021	0	0	
13	0	0	0	0	519	463	1021	1021	0	0	
14	0	0	0	0	530	472	1021	1021	0	0	
15	0	0	0	0	540	480	1021	1021	0	0	
0	0	0	0	0	547	487	1021	1021	0	0	
1	0	0	0	0	551	493	1021	1021	0	0	
2	0	0	0	0	551	496	1021	1021	0	0	
3	0	0	0	0	549	499	1021	1021	0	0	
4	0	0	0	0	544	499	1021	1021	0	0	
5	0	0	0	0	539	499	1021	1021	0	0	
6	0	0	0	0	534	497	1021	1021	0	0	
7	0	0	0	0	529	496	1021	1021	0	0	
8	0	0	0	0	526	495	1021	1021	0	0	
9	0	0	0	0	525	494	1021	1021	0	0	
10	0	0	0	0	527	495	1021	1021	0	0	
11	0	0	0	0	532	496	1021	1021	0	0	
12	0	0	0	0	539	497	1021	1021	0	0	
13	0	0	0	0	546	498	1021	1021	0	0	
14	0	0	0	0	551	497	1021	1021	0	0	
15	0	0	0	0	555	494	1021	1021	0	0	
0	0	0	0	0	556	489	1021	1021	0	0	
1	0	0	0	0	552	481	1021	1021	0	0	
2	0	0	0	0	546	474	1021	1021	0	0	
3	0	0	0	0	537	466	1021	1021	0	0	
4	0	0	0	0	527	458	1021	1021	0	0	
5	0	0	0	0	515	450	1021	1021	0	0	
6	0	0	0	0	504	443	1021	1021	0	0	
7	0	0	0	0	492	438	1021	1021	0	0	
8	0	0	0	0	484	435	1021	1021	0	0	
9	0	0	0	0	478	435	1021	1021	0	0	
10	0	0	0	0	476	437	1021	1021	0	0	
11	0	0	0	0	478	441	1021	1021	0	0	
12	0	0	0	0	482	447	1021	1021	0	0	
13	0	0	0	0	489	453	1021	1021	0	0	
14	0	0	0	0	497	458	1021	1021	0	0	
15	0	0	0	0	505	463	1021	1021	0	0	
0	0	0	0	0	514	466	1021	1021	0	0	
1	0	0	0	0	522	469	1021	1021	0	0	
2	0	0	0	0	527	470	1021	1021	0	0	
3	0	0	0	0	531	468	1021	1021	0	0	
4	0	0	0	0	533	467	1021	1021	0	0	
5	0	0	0	0	533	464	1021	1021	0	0	
6	0	0	0	0	531	462	1021	1021	0	0	
7	0	0	0	0	528	460	1021	1021	0	0	
8	0	0	0	0	524	460	1021	1021	0	0	
9	0	0	0	0	520	460	1021	1021	0	0	
10	0	0	0	0	517	461	1021	1021	0	0	
11	0	0	0	0	514	463	1021	1021	0	0	
12	0	0	0	0	512	467	1021	1021	0	0	
13	0	0	0	0	510	469	1021	1021	0	0	
14	0	0	0	0	508	471	1021	1021	0	0	
15	0	0	0	0	508	472	1021	1021	0	0	
0	0	0	0	0	508	473	1021	1021	0	0	
1	0	0	0	0	510	474	1021	1021	0	0	
2	0	0	0	0	514	475	1021	1021	0	0	
3	0	0	0	0	520	476	1020	1021	0	0	
4	0	0	0	0	530	480	1021	1021	0	0	
5	0	0	0	0	543	486	1021	1021	0	0	
6	0	0	0	0	559	495	1021	1021	0	0	
7	0	0	0	0	577	505	1021	1021	0	0	
8	0	0	0	0	596	517	1021	1021	0	0	
9	0	0	0	0	612	527	1021	1021	0	0	
10	0	0	0	0	624	535	1021	1021	0	0	
11	0	0	0	0	628	537	1021	1021	0	0	
12	0	0	0	0	624	534	1021	1021	0	0	
13	0	0	0	0	612	528	1021	1021	0	0	
14	0	0	0	0	594	516	1021	1021	0	0	
15	0	0	0	0	572	504	1021	1021	0	0	
0	0	0	0	0	546	490	1021	1021	0	0	
1	0	0	0	0	521	476	1021	1021	0	0	
2	0	0	0	0	497	462	1021	1021	0	0	
3	0	0	0	0	477	450	1021	1021	0	0	
4	0	0	0	0	462	441	1021	1021	0	0	
5	0	0	0	0	452	433	1021	1021	0	0	
6	0	0	0	0	448	429	1021	1021	0	0	
7	0	0	0	0	450	428	1021	1021	0	0	
8	0	0	0	0	456	428	1021	1021	0	0	
9	0	0	0	0	467	432	1021	1021	0	0	
10	0	0	0	0	479	437	1021	1021	0	0	
11	0	0	0	0	492	442	1021	1021	0	0	
12	0	0	0	0	505	449	1021	1021	0	0	
13	0	0	0	0	518	455	1021	1021	0	0	
14	0	0	0	0	528	463	1021	1021	0	0	
15	0	0	0	0	536	470	1021	1021	0	0	
0	0	0	0	0	541	475	1021	1021	0	0	
1	0	0	0	0	542	479	1021	1021	0	0	
2	0	0	0	0	539	478	1021	1021	0	0	
3	0	0	0	0	532	476	1021	1021	0	0	
4	0	0	0	0	522	471	1021	1021	0	0	
5	0	0	0	0	511	463	1021	1021	0	0	
6	0	0	0	0	499	456	1020	1021	0	0	
7	0	0	0	0	489	448	1021	1021	0	0	
8	0	0	0	0	480	440	1021	1021	0	0	
9	0	0	0	0	475	435	1021	1021	0	0	
10	0	0	0	0	473	430	1021	1021	0	0	
11	0	0	0	0	474	428	1021	1021	0	0	
12	0	0	0	0	477	426	1021	1021	0	0	
13	0	0	0	0	481	426	1021	1021	0	0	
14	0	0	0	0	487	428	1021	1021	0	0	
15	0	0	0	0	493	430	1021	1021	0	0	
0	0	0	0	0	499	434	1021	1021	0	0	
1	0	0	0	0	506	440	1021	1021	0	0	
2	0	0	0	0	515	449	1021	1021	0	0	
3	0	0	0	0	523	459	1021	1021	0	0	
4	0	0	0	0	531	470	1021	1021	0	0	
5	0	0	0	0	538	481	1021	1021	0	0	
6	0	0	0	0	543	491	1021	1021	0	0	
7	0	0	0	0	547	499	1021	1021	0	0	
8	0	0	0	0	549	507	1021	1021	0	0	
9	0	0	0	0	550	512	1021	1021	0	0	
10	0	0	0	0	549	515	1021	1021	0	0	
11	0	0	0	0	548	516	1021	1021	0	0	
12	0	0	0	0	545	516	1021	1021	0	0	
13	0	0	0	0	543	514	1021	1021	0	0	
14	0	0	0	0	540	511	1021	1021	0	0	
15	0	0	0	0	539	507	1021	1021	0	0	
0	0	0	0	0	537	503	1021	1021	0	0	
1	0	0	0	0	536	499	1021	1021	0	0	
2	0	0	0	0	536	495	1021	1021	0	0	
3	0	0	0	0	536	491	1021	1021	0	0	
4	0	0	0	0	535	487	1021	1021	0	0	
5	0	0	0	0	533	483	1021	1021	0	0	
6	0	0	0	0	530	480	1021	1021	0	0	
7	0	0	0	0	527	477	1021	1021	0	0	
8	0	0	0	0	521	473	1021	1021	0	0	
9	0	0	0	0	514	471	1021	1021	0	0	
10	0	0	0	0	506	467	1021	1021	0	0	
11	0	0	0	0	498	464	1021	1021	0	0	
12	0	0	0	0	491	463	1021	1021	0	0	
13	0	0	0	0	485	461	1021	1021	0	0	
14	0	0	0	0	481	461	1021	1021	0	0	
15	0	0	0	0	479	462	1021	1021	0	0	
0	0	0	0	0	480	463	1021	1021	0	0	
1	0	0	0	0	482	464	1021	1021	0	0	
2	0	0	0	0	487	465	1021	1021	0	0	
3	0	0	0	0	493	466	1021	1021	0	0	
4	0	0	0	0	499	466	1021	1021	0	0	
5	0	0	0	0	504	465	1021	1021	0	0	
6	0	0	0	0	508	464	1021	1021	0	0	
7	0	0	0	0	511	462	1021	1021	0	0	
8	0	0	0	0	513	460	1021	1021	0	0	
9	0	0	0	0	516	461	1021	1021	0	0	
10	0	0	0	0	519	464	1021	1021	0	0	
11	0	0	0	0	521	468	1021	1021	0	0	
12	0	0	0	0	524	473	1021	1021	0	0	
13	0	0	0	0	525	479	1021	1021	0	0	
14	0	0	0	0	524	483	1021	1021	0	0	
15	0	0	0	0	521	487	1021	1021	0	0	
0	0	0	0	0	515	488	1021	1021	0	0	
1	0	0	0	0	509	488	1021	1021	0	0	
2	0	0	0	0	501	486	1021	1021	0	0	
3	0	0	0	0	492	481	1021	1021	0	0	
4	0	0	0	0	485	476	1021	1021	0	0	
5	0	0	0	0	479	471	1021	1021	0	0	
6	0	0	0	0	476	465	1021	1021	0	0	
7	0	0	0	0	477	461	1020	1021	0	0	
8	0	0	0	0	480	457	1021	1021	0	0	
9	0	0	0	0	487	455	1021	1021	0	0	
10	0	0	0	0	496	455	1021	1021	0	0	
11	0	0	0	0	506	457	1021	1021	0	0	
12	0	0	0	0	517	461	1021	1021	0	0	
13	0	0	0	0	527	465	1021	1021	0	0	
14	0	0	0	0	536	471	1021	1021	0	0	
15	0	0	0	0	542	476	1021	1021	0	0	
0	0	0	0	0	546	482	1021	1021	0	0	
1	0	0	0	0	548	487	1021	1021	0	0	
2	0	0	0	0	548	492	1021	1021	0	0	
3	0	0	0	0	547	496	1021	1021	0	0	
4	0	0	0	0	544	500	1021	1021	0	0	
5	0	0	0	0	542	503	1021	1021	0	0	
6	0	0	0	0	541	507	1021	1021	0	0	
7	0	0	0	0	540	510	1021	1021	0	0	
8	0	0	0	0	541	512	1021	1021	0	0	
9	0	0	0	0	542	512	1021	1021	0	0	
10	0	0	0	0	543	511	1021	1021	0	0	
11	0	0	0	0	543	508	1021	1021	0	0	
12	0	0	0	0	543	504	1021	1021	0	0	
13	0	0	0	0	544	499	1021	1021	0	0	
14	0	0	0	0	544	492	1021	1021	0	0	
15	0	0	0	0	543	486	1021	1021	0	0	
0	0	0	0	0	542	479	1021	1021	0	0	
1	0	0	0	0	539	471	1021	1021	0	0	
2	0	0	0	0	534	464	1021	1021	0	0	
3	0	0	0	0	527	458	1021	1021	0	0	
4	0	0	0	0	521	454	1021	1021	0	0	
5	0	0	0	0	515	451	1021	1021	0	0	
6	0	0	0	0	510	450	1021	1021	0	0	
7	0	0	0	0	506	451	1021	1021	0	0	
8	0	0	0	0	503	452	1021	1021	0	0	
9	0	0	0	0	500	453	1021	1021	0	0	
10	0	0	0	0	496	452	1021	1021	0	0	
11	0	0	0	0	489	447	1021	1021	0	0	
12	0	0	0	0	481	439	1021	1021	0	0	
13	0	0	0	0	472	428	1021	1021	0	0	
14	0	0	0	0	462	416	1021	1021	0	0	
15	0	0	0	0	454	404	1021	1021	0	0	
0	0	0	0	0	448	393	1021	1021	0	0	
1	0	0	0	0	445	385	1021	1021	0	0	
2	0	0	0	0	444	381	1021	1021	0	0	
3	0	0	0	0	447	379	1021	1021	0	0	
4	0	0	0	0	451	380	1021	1021	0	0	
5	0	0	0	0	457	383	1021	1021	0	0	
6	0	0	0	0	463	388	1021	1021	0	0	
7	0	0	0	0	468	393	1021	1021	0	0	
8	0	0	0	0	471	398	1021	1021	0	0	
9	0	0	0	0	470	400	1021	1021	0	0	
10	0	0	0	0	466	400	1021	1021	0	0	
11	0	0	0	0	459	399	1021	1021	0	0	
12	0	0	0	0	448	394	1021	1021	0	0	
13	0	0	0	0	435	386	1021	1021	0	0	
14	0	0	0	0	419	377	1021	1021	0	0	
15	0	0	0	0	403	365	1021	1021	0	0	
0	0	0	0	0	387	353	1021	1021	0	0	
1	0	0	0	0	373	341	1021	1021	0	0	
2	0	0	0	0	361	329	1021	1021	0	0	
3	0	0	0	0	353	319	1021	1021	0	0	
4	0	0	0	0	348	311	1021	1021	0	0	
5	0	0	0	0	347	303	1021	1021	0	0	
6	0	0	0	0	347	296	1021	1021	0	0	
7	0	0	0	0	348	290	1021	1021	0	0	
8	0	0	0	0	352	286	1021	1021	0	0	
9	0	0	0	0	356	283	1021	1021	0	0	
10	0	0	0	0	361	282	1021	1021	0	0	
11	0	0	0	0	366	284	1021	1021	0	0	
12	0	0	0	0	371	287	1021	1021	0	0	
13	0	0	0	0	377	293	1021	1021	0	0	
14	0	0	0	0	383	301	1021	1021	0	0	
15	0	0	0	0	390	313	1021	1021	0	0	
0	0	0	0	0	399	327	1021	1021	0	0	
1	0	0	0	0	411	344	1021	1021	0	0	
2	0	0	0	0	425	364	1021	1021	0	0	
3	0	0	0	0	442	386	1021	1021	0	0	
4	0	0	0	0	461	409	1021	1021	0	0	
5	0	0	0	0	481	432	1021	1021	0	0	
6	0	0	0	0	501	452	1021	1021	0	0	
7	0	0	0	0	519	470	1021	1021	0	0	
8	0	0	0	0	535	483	1021	1021	0	0	
9	0	0	0	0	548	492	1021	1021	0	0	
10	0	0	0	0	557	497	1021	1021	0	0	
11	0	0	0	0	561	498	1021	1021	0	0	
12	0	0	0	0	562	496	1021	1021	0	0	
13	0	0	0	0	562	493	1021	1021	0	0	
14	0	0	0	0	560	491	1021	1021	0	0	
15	0	0	0	0	558	489	1021	1021	0	0	
0	0	0	0	0	556	487	1021	1021	0	0	
1	0	0	0	0	553	487	1021	1021	0	0	
2	0	0	0	0	551	489	1021	1021	0	0	
3	0	0	0	0	549	493	1021	1021	0	0	
4	0	0	0	0	548	497	1021	1021	0	0	
5	0	0	0	0	548	503	1021	1021	0	0	
6	0	0	0	0	550	508	1021	1021	0	0	
7	0	0	0	0	551	514	1021	1021	0	0	
8	0	0	0	0	554	519	1021	1021	0	0	
9	0	0	0	0	558	523	1021	1021	0	0	
10	0	0	0	0	561	527	1021	1021	0	0	
11	0	0	0	0	565	528	1021	1021	0	0	
12	0	0	0	0	568	527	1021	1021	0	0	
13	0	0	0	0	572	526	1021	1021	0	0	
14	0	0	0	0	573	523	1021	1021	0	0	
15	0	0	0	0	574	519	1021	1021	0	0	
0	0	0	0	0	574	514	1021	1021	0	0	
1	0	0	0	0	573	509	1021	1021	0	0	
2	0	0	0	0	571	504	1021	1021	0	0	
3	0	0	0	0	567	499	1021	1021	0	0	
4	0	0	0	0	562	495	1021	1021	0	0	
5	0	0	0	0	556	492	1021	1021	0	0	
6	0	0	0	0	549	488	1021	1021	0	0	
7	0	0	0	0	540	485	1021	1021	0	0	
8	0	0	0	0	531	481	1021	1021	0	0	
9	0	0	0	0	520	477	1021	1021	0	0	
10	0	0	0	0	510	471	1021	1021	0	0	
11	0	0	0	0	500	463	1021	1021	0	0	
12	0	0	0	0	489	455	1021	1021	0	0	
13	0	0	0	0	480	446	1021	1021	0	0	
14	0	0	0	0	473	436	1021	1021	0	0	
15	0	0	0	0	467	427	1021	1021	0	0	
0	0	0	0	0	464	418	1021	1021	0	0	
1	0	0	0	0	463	411	1021	1021	0	0	
2	0	0	0	0	466	407	1021	1021	0	0	
3	0	0	0	0	471	406	1021	1021	0	0	
4	0	0	0	0	477	408	1021	1021	0	0	
5	0	0	0	0	485	412	1021	1021	0	0	
6	0	0	0	0	494	420	1021	1021	0	0	
7	0	0	0	0	504	431	1021	1021	0	0	
8	0	0	0	0	515	444	1021	1021	0	0	
9	0	0	0	0	525	459	1021	1021	0	0	
10	0	0	0	0	536	475	1021	1021	0	0	
11	0	0	0	0	544	490	1021	1021	0	0	
12	0	0	0	0	551	504	1021	1021	0	0	
13	0	0	0	0	558	516	1021	1021	0	0	
14	0	0	0	0	563	526	1021	1021	0	0	
15	0	0	0	0	566	532	1021	1021	0	0	
0	0	0	0	0	568	536	1021	1021	0	0	
1	0	0	0	0	568	537	1021	1021	0	0	
2	0	0	0	0	568	536	1021	1021	0	0	
3	0	0	0	0	567	533	1020	1021	0	0	
4	0	0	0	0	567	529	1021	1021	0	0	
5	0	0	0	0	568	527	1021	1021	0	0	
6	0	0	0	0	570	525	1021	1021	0	0	
7	0	0	0	0	572	522	1021	1021	0	0	
8	0	0	0	0	573	519	1021	1021	0	0	
9	0	0	0	0	572	516	1021	1021	0	0	
10	0	0	0	0	571	512	1021	1021	0	0	
11	0	0	0	0	567	508	1021	1021	0	0	
12	0	0	0	0	562	503	1021	1021	0	0	
13	0	0	0	0	554	497	1021	1021	0	0	
14	0	0	0	0	543	491	1021	1021	0	0	
15	0	0	0	0	533	484	1021	1021	0	0	
0	0	0	0	0	522	477	1021	1021	0	0	
1	0	0	0	0	512	471	1021	1021	0	0	
2	0	0	0	0	505	467	1021	1021	0	0	
3	0	0	0	0	501	465	1021	1021	0	0	
4	0	0	0	0	501	465	1021	1021	0	0	
5	0	0	0	0	505	467	1021	1021	0	0	
6	0	0	0	0	513	471	1021	1021	0	0	
7	0	0	0	0	524	476	1021	1021	0	0	
8	0	0	0	0	536	482	1021	1021	0	0	
9	0	0	0	0	549	487	1021	1021	0	0	
10	0	0	0	0	561	492	1021	1021	0	0	
11	0	0	0	0	570	495	1021	1021	0	0	
12	0	0	0	0	577	496	1021	1021	0	0	
13	0	0	0	0	580	497	1021	1021	0	0	
14	0	0	0	0	580	497	1021	1021	0	0	
15	0	0	0	0	577	496	1021	1021	0	0	
0	0	0	0	0	571	493	1021	1021	0	0	
1	0	0	0	0	562	491	1021	1021	0	0	
2	0	0	0	0	551	488	1021	1021	0	0	
3	0	0	0	0	542	486	1021	1021	0	0	
4	0	0	0	0	532	484	1021	1021	0	0	
5	0	0	0	0	524	483	1021	1021	0	0	
6	0	0	0	0	517	482	1021	1021	0	0	
7	0	0	0	0	511	481	1021	1021	0	0	
8	0	0	0	0	509	480	1021	1021	0	0	
9	0	0	0	0	508	480	1021	1021	0	0	
10	0	0	0	0	510	480	1021	1021	0	0	
11	0	0	0	0	514	480	1021	1021	0	0	
12	0	0	0	0	519	480	1021	1021	0	0	
13	0	0	0	0	524	480	1021	1021	0	0	
14	0	0	0	0	527	478	1021	1021	0	0	
15	0	0	0	0	529	476	1021	1021	0	0	
0	0	0	0	0	531	473	1021	1021	0	0	
1	0	0	0	0	530	472	1021	1021	0	0	
2	0	0	0	0	530	471	1021	1021	0	0	
3	0	0	0	0	529	472	1021	1021	0	0	
4	0	0	0	0	530	476	1021	1021	0	0	
5	0	0	0	0	532	481	1021	1021	0	0	
6	0	0	0	0	535	489	1021	1021	0	0	
7	0	0	0	0	538	498	1021	1021	0	0	
8	0	0	0	0	541	506	1021	1021	0	0	
9	0	0	0	0	543	512	1021	1021	0	0	
10	0	0	0	0	544	516	1021	1021	0	0	
11	0	0	0	0	543	517	1021	1021	0	0	
12	0	0	0	0	542	517	1021	1021	0	0	
13	0	0	0	0	540	515	1021	1021	0	0	
14	0	0	0	0	540	512	1021	1021	0	0	
15	0	0	0	0	539	509	1021	1021	0	0	
0	0	0	0	0	541	507	1021	1021	0	0	
1	0	0	0	0	543	505	1021	1021	0	0	
2	0	0	0	0	546	503	1021	1021	0	0	
3	0	0	0	0	549	501	1021	1021	0	0	
4	0	0	0	0	550	499	1021	1021	0	0	
5	0	0	0	0	549	494	1021	1021	0	0	
6	0	0	0	0	545	489	1021	1021	0	0	
7	0	0	0	0	540	483	1021	1021	0	0	
8	0	0	0	0	534	478	1021	1021	0	0	
9	0	0	0	0	528	474	1020	1021	0	0	
10	0	0	0	0	521	471	1021	1021	0	0	
11	0	0	0	0	517	470	1021	1021	0	0	
12	0	0	0	0	512	468	1021	1021	0	0	
13	0	0	0	0	508	467	1021	1021	0	0	
14	0	0	0	0	502	464	1021	1021	0	0	
15	0	0	0	0	496	459	1021	1021	0	0	
0	0	0	0	0	491	453	1021	1021	0	0	
1	0	0	0	0	485	447	1021	1021	0	0	
2	0	0	0	0	481	441	1021	1021	0	0	
3	0	0	0	0	480	436	1021	1021	0	0	
4	0	0	0	0	480	433	1021	1021	0	0	
5	0	0	0	0	481	430	1021	1021	0	0	
6	0	0	0	0	484	428	1021	1021	0	0	
7	0	0	0	0	487	428	1021	1021	0	0	
8	0	0	0	0	492	428	1021	1021	0	0	
9	0	0	0	0	496	428	1021	1021	0	0	
10	0	0	0	0	500	431	1021	1021	0	0	
11	0	0	0	0	504	434	1021	1021	0	0	
12	0	0	0	0	509	439	1021	1021	0	0	
13	0	0	0	0	514	446	1021	1021	0	0	
14	0	0	0	0	520	455	1021	1021	0	0	
15	0	0	0	0	527	465	1021	1021	0	0	
0	0	0	0	0	536	477	1021	1021	0	0	
1	0	0	0	0	544	489	1021	1021	0	0	
2	0	0	0	0	553	500	1021	1021	0	0	
3	0	0	0	0	561	509	1021	1021	0	0	
4	0	0	0	0	568	516	1021	1021	0	0	
5	0	0	0	0	572	519	1021	1021	0	0	
6	0	0	0	0	574	519	1021	1021	0	0	
7	0	0	0	0	572	515	1021	1021	0	0	
8	0	0	0	0	568	508	1021	1021	0	0	
9	0	0	0	0	562	499	1021	1021	0	0	
10	0	0	0	0	554	487	1021	1021	0	0	
11	0	0	0	0	543	476	1021	1021	0	0	
12	0	0	0	0	532	463	1021	1021	0	0	
13	0	0	0	0	520	451	1021	1021	0	0	
14	0	0	0	0	509	440	1021	1021	0	0	
15	0	0	0	0	498	432	1021	1021	0	0	
0	0	0	0	0	490	426	1021	1021	0	0	
1	0	0	0	0	483	423	1021	1021	0	0	
2	0	0	0	0	480	422	1021	1021	0	0	
3	0	0	0	0	480	424	1021	1021	0	0	
4	0	0	0	0	482	428	1021	1021	0	0	
5	0	0	0	0	487	434	1021	1021	0	0	
6	0	0	0	0	494	441	1021	1021	0	0	
7	0	0	0	0	503	449	1021	1021	0	0	
8	0	0	0	0	514	459	1021	1021	0	0	
9	0	0	0	0	527	467	1021	1021	0	0	
10	0	0	0	0	539	475	1021	1021	0	0	
11	0	0	0	0	550	481	1021	1021	0	0	
12	0	0	0	0	559	484	1021	1021	0	0	
13	0	0	0	0	565	486	1021	1021	0	0	
14	0	0	0	0	567	483	1021	1021	0	0	
15	0	0	0	0	565	479	1021	1021	0	0	
0	0	0	0	0	559	472	1020	1021	0	0	
1	0	0	0	0	550	463	1021	1021	0	0	
2	0	0	0	0	539	455	1021	1021	0	0	
3	0	0	0	0	526	447	1021	1021	0	0	
4	0	0	0	0	513	440	1021	1021	0	0	
5	0	0	0	0	500	434	1021	1022	0	0	
6	0	0	0	0	489	430	1021	1021	0	0	
7	0	0	0	0	481	429	1021	1021	0	0	
8	0	0	0	0	475	430	1021	1021	0	0	
9	0	0	0	0	472	432	1021	1021	0	0	
10	0	0	0	0	472	435	1021	1021	0	0	
11	0	0	0	0	475	439	1021	1021	0	0	
12	0	0	0	0	479	443	1021	1021	0	0	
13	0	0	0	0	486	447	1021	1021	0	0	
14	0	0	0	0	492	449	1021	1021	0	0	
15	0	0	0	0	499	451	1021	1021	0	0	
0	0	0	0	0	506	451	1021	1021	0	0	
1	0	0	0	0	512	451	1021	1021	0	0	
2	0	0	0	0	518	449	1021	1021	0	0	
3	0	0	0	0	521	448	1021	1021	0	0	
4	0	0	0	0	524	446	1021	1021	0	0	
5	0	0	0	0	524	444	1021	1021	0	0	
6	0	0	0	0	525	443	1021	1021	0	0	
7	0	0	0	0	524	443	1021	1021	0	0	
8	0	0	0	0	522	443	1021	1021	0	0	
9	0	0	0	0	520	444	1021	1021	0	0	
10	0	0	0	0	518	445	1021	1021	0	0	
11	0	0	0	0	516	448	1021	1021	0	0	
12	0	0	0	0	515	450	1021	1021	0	0	
13	0	0	0	0	513	452	1021	1021	0	0	
14	0	0	0	0	511	453	1021	1021	0	0	
15	0	0	0	0	508	452	1021	1021	0	0	
0	0	0	0	0	504	450	1021	1021	0	0	
1	0	0	0	0	499	445	1021	1021	0	0	
2	0	0	0	0	495	440	1021	1021	0	0	
3	0	0	0	0	491	433	1021	1021	0	0	
4	0	0	0	0	487	425	1021	1021	0	0	
5	0	0	0	0	483	417	1021	1021	0	0	
6	0	0	0	0	479	409	1021	1021	0	0	
7	0	0	0	0	475	401	1021	1021	0	0	
8	0	0	0	0	471	394	1021	1021	0	0	
9	0	0	0	0	466	387	1021	1021	0	0	
10	0	0	0	0	462	383	1021	1021	0	0	
11	0	0	0	0	459	380	1021	1021	0	0	
12	0	0	0	0	455	379	1021	1021	0	0	
13	0	0	0	0	455	381	1021	1021	0	0	
14	0	0	0	0	455	385	1021	1021	0	0	
15	0	0	0	0	459	393	1021	1021	0	0	
0	0	0	0	0	464	403	1021	1021	0	0	
1	0	0	0	0	472	415	1021	1021	0	0	
2	0	0	0	0	480	427	1020	1021	0	0	
3	0	0	0	0	488	436	1021	1021	0	0	
4	0	0	0	0	496	445	1021	1021	0	0	
5	0	0	0	0	502	451	1021	1021	0	0	
6	0	0	0	0	506	454	1021	1021	0	0	
7	0	0	0	0	508	454	1020	1021	0	0	
8	0	0	0	0	509	451	1021	1021	0	0	
9	0	0	0	0	509	448	1021	1021	0	0	
10	0	0	0	0	508	443	1021	1021	0	0	
11	0	0	0	0	505	437	1021	1021	0	0	
12	0	0	0	0	502	431	1020	1021	0	0	
13	0	0	0	0	498	425	1021	1021	0	0	
14	0	0	0	0	495	423	1021	1021	0	0	
15	0	0	0	0	492	422	1021	1021	0	0	
0	0	0	0	0	491	423	1021	1021	0	0	
1	0	0	0	0	492	427	1020	1021	0	0	
2	0	0	0	0	494	433	1021	1021	0	0	
3	0	0	0	0	496	440	1021	1021	0	0	
4	0	0	0	0	499	447	1021	1021	0	0	
5	0	0	0	0	501	452	1021	1021	0	0	
6	0	0	0	0	504	456	1021	1021	0	0	
7	0	0	0	0	505	459	1021	1021	0	0	
8	0	0	0	0	507	461	1021	1021	0	0	
9	0	0	0	0	508	461	1021	1021	0	0	
10	0	0	0	0	510	461	1021	1021	0	0	
11	0	0	0	0	513	460	1020	1021	0	0	
12	0	0	0	0	515	456	1021	1021	0	0	
13	0	0	0	0	518	454	1021	1021	0	0	
14	0	0	0	0	519	451	1021	1021	0	0	
15	0	0	0	0	522	448	1021	1021	0	0	
0	0	0	0	0	525	447	1021	1021	0	0	
1	0	0	0	0	527	446	1021	1021	0	0	
2	0	0	0	0	531	448	1021	1021	0	0	
3	0	0	0	0	533	450	1021	1021	0	0	
4	0	0	0	0	536	455	1021	1021	0	0	
5	0	0	0	0	539	460	1021	1021	0	0	
6	0	0	0	0	540	465	1021	1021	0	0	
7	0	0	0	0	542	472	1021	1021	0	0	
8	0	0	0	0	542	478	1021	1021	0	0	
9	0	0	0	0	543	484	1021	1021	0	0	
10	0	0	0	0	544	491	1020	1021	0	0	
11	0	0	0	0	546	496	1021	1021	0	0	
12	0	0	0	0	550	501	1021	1021	0	0	
13	0	0	0	0	554	506	1021	1021	0	0	
14	0	0	0	0	560	511	1021	1021	0	0	
15	0	0	0	0	568	516	1021	1021	0	0	
0	0	0	0	0	575	521	1021	1021	0	0	
1	0	0	0	0	583	525	1021	1021	0	0	
2	0	0	0	0	590	527	1021	1021	0	0	
3	0	0	0	0	595	529	1021	1021	0	0	
4	0	0	0	0	598	529	1021	1021	0	0	
5	0	0	0	0	600	528	1020	1021	0	0	
6	0	0	0	0	600	528	1021	1021	0	0	
7	0	0	0	0	598	527	1021	1021	0	0	
8	0	0	0	0	594	525	1021	1021	0	0	
9	0	0	0	0	588	521	1021	1021	0	0	
10	0	0	0	0	579	516	1021	1021	0	0	
11	0	0	0	0	568	512	1021	1021	0	0	
12	0	0	0	0	558	507	1021	1021	0	0	
13	0	0	0	0	547	503	1021	1021	0	0	
14	0	0	0	0	539	500	1021	1021	0	0	
15	0	0	0	0	531	497	1021	1021	0	0	
0	0	0	0	0	527	496	1021	1021	0	0	
1	0	0	0	0	524	495	1021	1021	0	0	
2	0	0	0	0	524	495	1021	1021	0	0	
3	0	0	0	0	525	495	1021	1021	0	0	
4	0	0	0	0	528	495	1021	1021	0	0	
5	0	0	0	0	532	495	1021	1021	0	0	
6	0	0	0	0	536	495	1021	1021	0	0	
7	0	0	0	0	539	494	1021	1021	0	0	
8	0	0	0	0	540	491	1021	1021	0	0	
9	0	0	0	0	539	487	1021	1021	0	0	
10	0	0	0	0	537	484	1021	1021	0	0	
11	0	0	0	0	534	481	1021	1021	0	0	
12	0	0	0	0	530	479	1021	1021	0	0	
13	0	0	0	0	526	476	1021	1021	0	0	
14	0	0	0	0	521	475	1021	1021	0	0	
15	0	0	0	0	517	475	1021	1021	0	0	
0	0	0	0	0	513	475	1021	1021	0	0	
1	0	0	0	0	510	476	1021	1021	0	0	
2	0	0	0	0	508	477	1021	1021	0	0	
3	0	0	0	0	508	479	1021	1021	0	0	
4	0	0	0	0	511	482	1021	1021	0	0	
5	0	0	0	0	515	485	1021	1021	0	0	
6	0	0	0	0	521	489	1021	1021	0	0	
7	0	0	0	0	529	493	1021	1021	0	0	
8	0	0	0	0	537	496	1021	1021	0	0	
9	0	0	0	0	545	499	1021	1021	0	0	
10	0	0	0	0	552	499	1021	1021	0	0	
11	0	0	0	0	556	498	1021	1021	0	0	
12	0	0	0	0	556	495	1021	1021	0	0	
13	0	0	0	0	554	491	1021	1021	0	0	
14	0	0	0	0	550	487	1021	1021	0	0	
15	0	0	0	0	544	484	1021	1021	0	0	
0	0	0	0	0	539	482	1021	1021	0	0	
1	0	0	0	0	535	483	1021	1021	0	0	
2	0	0	0	0	533	487	1021	1021	0	0	
3	0	0	0	0	535	495	1021	1021	0	0	
4	0	0	0	0	539	504	1021	1021	0	0	
5	0	0	0	0	547	516	1021	1021	0	0	
6	0	0	0	0	555	527	1021	1021	0	0	
7	0	0	0	0	563	536	1021	1021	0	0	
8	0	0	0	0	568	540	1021	1021	0	0	
9	0	0	0	0	569	540	1021	1021	0	0	
10	0	0	0	0	568	535	1021	1021	0	0	
11	0	0	0	0	563	527	1021	1021	0	0	
12	0	0	0	0	557	518	1021	1021	0	0	
13	0	0	0	0	551	509	1021	1021	0	0	
14	0	0	0	0	545	500	1021	1021	0	0	
15	0	0	0	0	539	492	1021	1021	0	0	
0	0	0	0	0	534	484	1021	1021	0	0	
1	0	0	0	0	528	479	1021	1021	0	0	
2	0	0	0	0	524	474	1021	1021	0	0	
3	0	0	0	0	519	471	1021	1021	0	0	
4	0	0	0	0	515	470	1021	1021	0	0	
5	0	0	0	0	512	469	1021	1021	0	0	
6	0	0	0	0	510	468	1021	1021	0	0	
7	0	0	0	0	509	470	1021	1021	0	0	
8	0	0	0	0	508	472	1021	1021	0	0	
9	0	0	0	0	509	473	1021	1021	0	0	
10	0	0	0	0	511	475	1021	1021	0	0	
11	0	0	0	0	513	476	1021	1021	0	0	
12	0	0	0	0	518	479	1021	1021	0	0	
13	0	0	0	0	523	481	1021	1021	0	0	
14	0	0	0	0	529	483	1021	1021	0	0	
15	0	0	0	0	536	486	1020	1021	0	0	
0	0	0	0	0	543	488	1021	1021	0	0	
1	0	0	0	0	551	492	1021	1021	0	0	
2	0	0	0	0	558	493	1021	1021	0	0	
3	0	0	0	0	563	495	1021	1021	0	0	
4	0	0	0	0	567	497	1020	1021	0	0	
5	0	0	0	0	568	496	1021	1021	0	0	
6	0	0	0	0	568	496	1021	1021	0	0	
7	0	0	0	0	563	494	1021	1021	0	0	
8	0	0	0	0	558	490	1021	1021	0	0	
9	0	0	0	0	551	487	1021	1021	0	0	
10	0	0	0	0	547	484	1021	1021	0	0	
11	0	0	0	0	543	484	1021	1021	0	0	
12	0	0	0	0	542	485	1021	1021	0	0	
13	0	0	0	0	543	487	1021	1021	0	0	
14	0	0	0	0	545	491	1021	1021	0	0	
15	0	0	0	0	549	494	1021	1021	0	0	
0	0	0	0	0	552	497	1021	1021	0	0	
1	0	0	0	0	556	499	1021	1021	0	0	
2	0	0	0	0	559	500	1021	1021	0	0	
3	0	0	0	0	563	502	1021	1022	0	0	
4	0	0	0	0	565	501	1021	1021	0	0	
5	0	0	0	0	565	499	1021	1021	0	0	
6	0	0	0	0	563	495	1021	1021	0	0	
7	0	0	0	0	558	489	1021	1021	0	0	
8	0	0	0	0	551	483	1021	1021	0	0	
9	0	0	0	0	543	476	1021	1021	0	0	
10	0	0	0	0	536	470	1021	1021	0	0	
11	0	0	0	0	528	465	1021	1021	0	0	
12	0	0	0	0	521	462	1021	1021	0	0	
13	0	0	0	0	517	460	1021	1021	0	0	
14	0	0	0	0	513	461	1021	1021	0	0	
15	0	0	0	0	512	463	1021	1021	0	0	
0	0	0	0	0	513	467	1021	1021	0	0	
1	0	0	0	0	515	472	1021	1021	0	0	
2	0	0	0	0	521	477	1021	1021	0	0	
3	0	0	0	0	528	483	1021	1021	0	0	
4	0	0	0	0	537	491	1021	1021	0	0	
5	0	0	0	0	547	497	1021	1021	0	0	
6	0	0	0	0	558	503	1021	1021	0	0	
7	0	0	0	0	568	508	1020	1021	0	0	
8	0	0	0	0	577	511	1021	1021	0	0	
9	0	0	0	0	586	514	1021	1021	0	0	
10	0	0	0	0	593	516	1021	1021	0	0	
11	0	0	0	0	598	517	1021	1021	0	0	
12	0	0	0	0	600	517	1021	1021	0	0	
13	0	0	0	0	600	514	1021	1021	0	0	
14	0	0	0	0	596	511	1021	1021	0	0	
15	0	0	0	0	590	507	1021	1021	0	0	
0	0	0	0	0	580	501	1021	1021	0	0	
1	0	0	0	0	570	496	1021	1021	0	0	
2	0	0	0	0	559	491	1021	1021	0	0	
3	0	0	0	0	549	486	1021	1021	0	0	
4	0	0	0	0	540	482	1021	1021	0	0	
5	0	0	0	0	531	479	1021	1021	0	0	
6	0	0	0	0	525	476	1021	1021	0	0	
7	0	0	0	0	521	475	1021	1021	0	0	
8	0	0	0	0	521	475	1021	1021	0	0	
9	0	0	0	0	524	476	1021	1021	0	0	
10	0	0	0	0	528	478	1021	1021	0	0	
11	0	0	0	0	535	481	1020	1021	0	0	
12	0	0	0	0	544	485	1021	1021	0	0	
13	0	0	0	0	553	489	1021	1021	0	0	
14	0	0	0	0	561	492	1021	1021	0	0	
15	0	0	0	0	567	494	1021	1021	0	0	
0	0	0	0	0	569	494	1021	1021	0	0	
1	0	0	0	0	568	492	1021	1021	0	0	
2	0	0	0	0	562	488	1021	1021	0	0	
3	0	0	0	0	555	484	1021	1021	0	0	
4	0	0	0	0	544	480	1021	1021	0	0	
5	0	0	0	0	534	478	1021	1021	0	0	
6	0	0	0	0	524	477	1021	1021	0	0	
7	0	0	0	0	515	478	1021	1021	0	0	
8	0	0	0	0	509	480	1021	1021	0	0	
9	0	0	0	0	505	483	1021	1021	0	0	
10	0	0	0	0	504	488	1020	1021	0	0	
11	0	0	0	0	507	492	1021	1021	0	0	
12	0	0	0	0	512	497	1021	1021	0	0	
13	0	0	0	0	519	502	1021	1021	0	0	
14	0	0	0	0	527	506	1021	1021	0	0	
15	0	0	0	0	537	510	1021	1021	0	0	
0	0	0	0	0	547	512	1021	1021	0	0	
1	0	0	0	0	557	513	1021	1021	0	0	
2	0	0	0	0	565	514	1021	1021	0	0	
3	0	0	0	0	572	513	1021	1021	0	0	
4	0	0	0	0	575	512	1021	1021	0	0	
5	0	0	0	0	576	508	1021	1021	0	0	
6	0	0	0	0	573	504	1021	1021	0	0	
7	0	0	0	0	567	498	1021	1021	0	0	
8	0	0	0	0	556	489	1021	1021	0	0	
9	0	0	0	0	544	480	1021	1021	0	0	
10	0	0	0	0	529	468	1021	1021	0	0	
11	0	0	0	0	514	458	1021	1021	0	0	
12	0	0	0	0	500	449	1021	1021	0	0	
13	0	0	0	0	487	440	1021	1021	0	0	
14	0	0	0	0	479	435	1021	1021	0	0	
15	0	0	0	0	474	432	1021	1021	0	0	
0	0	0	0	0	474	433	1021	1021	0	0	
1	0	0	0	0	478	437	1021	1021	0	0	
2	0	0	0	0	487	444	1021	1021	0	0	
3	0	0	0	0	500	453	1021	1021	0	0	
4	0	0	0	0	515	462	1021	1021	0	0	
5	0	0	0	0	531	473	1021	1021	0	0	
6	0	0	0	0	546	483	1021	1021	0	0	
7	0	0	0	0	560	492	1021	1021	0	0	
8	0	0	0	0	572	500	1020	1021	0	0	
9	0	0	0	0	580	505	1021	1021	0	0	
10	0	0	0	0	583	509	1021	1021	0	0	
11	0	0	0	0	584	511	1021	1021	0	0	
12	0	0	0	0	581	512	1021	1021	0	0	
13	0	0	0	0	575	512	1021	1021	0	0	
14	0	0	0	0	566	511	1021	1021	0	0	
15	0	0	0	0	558	511	1021	1021	0	0	
0	0	0	0	0	548	510	1021	1021	0	0	
1	0	0	0	0	540	509	1021	1021	0	0	
2	0	0	0	0	533	509	1021	1021	0	0	
3	0	0	0	0	527	508	1021	1021	0	0	
4	0	0	0	0	522	506	1021	1021	0	0	
5	0	0	0	0	518	503	1021	1021	0	0	
6	0	0	0	0	513	498	1021	1021	0	0	
7	0	0	0	0	510	492	1021	1021	0	0	
8	0	0	0	0	506	485	1021	1021	0	0	
9	0	0	0	0	504	479	1021	1021	0	0	
10	0	0	0	0	503	473	1021	1021	0	0	
11	0	0	0	0	503	469	1021	1021	0	0	
12	0	0	0	0	505	466	1021	1021	0	0	
13	0	0	0	0	508	465	1021	1021	0	0	
14	0	0	0	0	511	465	1021	1021	0	0	
15	0	0	0	0	514	466	1021	1021	0	0	
0	0	0	0	0	517	468	1021	1021	0	0	
1	0	0	0	0	519	471	1021	1021	0	0	
2	0	0	0	0	522	474	1021	1021	0	0	
3	0	0	0	0	525	479	1021	1021	0	0	
4	0	0	0	0	527	484	1021	1021	0	0	
5	0	0	0	0	531	489	1021	1021	0	0	
6	0	0	0	0	536	496	1021	1021	0	0	
7	0	0	0	0	540	501	1021	1021	0	0	
8	0	0	0	0	546	507	1021	1021	0	0	
9	0	0	0	0	552	512	1021	1021	0	0	
10	0	0	0	0	558	516	1021	1021	0	0	
11	0	0	0	0	564	519	1021	1021	0	0	
12	0	0	0	0	568	520	1021	1021	0	0	
13	0	0	0	0	572	522	1021	1021	0	0	
14	0	0	0	0	574	522	1021	1021	0	0	
15	0	0	0	0	573	521	1021	1021	0	0	
0	0	0	0	0	569	517	1021	1021	0	0	
1	0	0	0	0	563	511	1021	1021	0	0	
2	0	0	0	0	552	504	1021	1021	0	0	
3	0	0	0	0	538	494	1021	1021	0	0	
4	0	0	0	0	521	482	1021	1021	0	0	
5	0	0	0	0	504	470	1021	1021	0	0	
6	0	0	0	0	486	459	1021	1021	0	0	
7	0	0	0	0	470	450	1021	1021	0	0	
8	0	0	0	0	457	444	1021	1021	0	0	
9	0	0	0	0	449	441	1021	1021	0	0	
10	0	0	0	0	447	442	1021	1021	0	0	
11	0	0	0	0	450	446	1021	1021	0	0	
12	0	0	0	0	458	453	1021	1021	0	0	
13	0	0	0	0	470	463	1021	1021	0	0	
14	0	0	0	0	484	473	1021	1021	0	0	
15	0	0	0	0	500	484	1020	1021	0	0	
0	0	0	0	0	516	495	1021	1021	0	0	
1	0	0	0	0	532	505	1021	1021	0	0	
2	0	0	0	0	545	513	1021	1021	0	0	
3	0	0	0	0	556	519	1021	1021	0	0	
4	0	0	0	0	563	524	1021	1021	0	0	
5	0	0	0	0	567	527	1021	1021	0	0	
6	0	0	0	0	569	531	1021	1021	0	0	
7	0	0	0	0	568	533	1021	1021	0	0	
8	0	0	0	0	566	536	1021	1021	0	0	
9	0	0	0	0	563	539	1021	1021	0	0	
10	0	0	0	0	560	543	1021	1021	0	0	
11	0	0	0	0	557	549	1021	1021	0	0	
12	0	0	0	0	557	555	1021	1021	0	0	
13	0	0	0	0	558	562	1021	1021	0	0	
14	0	0	0	0	561	569	1021	1021	0	0	
15	0	0	0	0	566	575	1021	1021	0	0	
0	0	0	0	0	570	581	1021	1021	0	0	
1	0	0	0	0	573	583	1021	1021	0	0	
2	0	0	0	0	574	581	1021	1021	0	0	
3	0	0	0	0	573	575	1021	1021	0	0	
4	0	0	0	0	569	566	1021	1021	0	0	
5	0	0	0	0	562	554	1021	1021	0	0	
6	0	0	0	0	552	540	1021	1021	0	0	
7	0	0	0	0	541	524	1021	1021	0	0	
8	0	0	0	0	529	508	1021	1021	0	0	
9	0	0	0	0	516	494	1021	1021	0	0	
10	0	0	0	0	504	481	1021	1021	0	0	
11	0	0	0	0	494	471	1021	1021	0	0	
12	0	0	0	0	484	463	1021	1021	0	0	
13	0	0	0	0	478	459	1020	1021	0	0	
14	0	0	0	0	472	456	1021	1021	0	0	
15	0	0	0	0	469	456	1021	1021	0	0	
0	0	0	0	0	468	457	1021	1021	0	0	
1	0	0	0	0	468	460	1021	1021	0	0	
2	0	0	0	0	471	463	1021	1021	0	0	
3	0	0	0	0	474	465	1021	1021	0	0	
4	0	0	0	0	479	467	1021	1021	0	0	
5	0	0	0	0	485	469	1021	1021	0	0	
6	0	0	0	0	492	470	1021	1021	0	0	
7	0	0	0	0	499	471	1021	1021	0	0	
8	0	0	0	0	506	470	1021	1021	0	0	
9	0	0	0	0	514	471	1021	1021	0	0	
10	0	0	0	0	522	472	1021	1021	0	0	
11	0	0	0	0	529	474	1021	1021	0	0	
12	0	0	0	0	536	476	1020	1021	0	0	
13	0	0	0	0	541	478	1021	1021	0	0	
14	0	0	0	0	545	482	1021	1021	0	0	
15	0	0	0	0	547	486	1021	1021	0	0	
0	0	0	0	0	547	489	1021	1021	0	0	
1	0	0	0	0	546	494	1021	1021	0	0	
2	0	0	0	0	544	498	1021	1021	0	0	
3	0	0	0	0	541	502	1021	1021	0	0	
4	0	0	0	0	539	506	1021	1021	0	0	
5	0	0	0	0	536	509	1021	1021	0	0	
6	0	0	0	0	534	511	1021	1021	0	0	
7	0	0	0	0	532	513	1021	1021	0	0	
8	0	0	0	0	533	515	1021	1021	0	0	
9	0	0	0	0	535	516	1021	1021	0	0	
10	0	0	0	0	538	517	1021	1021	0	0	
11	0	0	0	0	543	518	1021	1021	0	0	
12	0	0	0	0	549	518	1021	1021	0	0	
13	0	0	0	0	554	518	1021	1021	0	0	
14	0	0	0	0	558	516	1021	1021	0	0	
15	0	0	0	0	560	513	1021	1021	0	0	
0	0	0	0	0	560	511	1020	1021	0	0	
1	0	0	0	0	558	506	1021	1021	0	0	
2	0	0	0	0	555	502	1021	1021	0	0	
3	0	0	0	0	549	498	1021	1021	0	0	
4	0	0	0	0	541	493	1021	1021	0	0	
5	0	0	0	0	532	488	1021	1021	0	0	
6	0	0	0	0	522	483	1021	1021	0	0	
7	0	0	0	0	512	480	1021	1021	0	0	
8	0	0	0	0	503	477	1021	1021	0	0	
9	0	0	0	0	495	474	1021	1021	0	0	
10	0	0	0	0	488	473	1020	1021	0	0	
11	0	0	0	0	483	472	1021	1021	0	0	
12	0	0	0	0	481	472	1021	1021	0	0	
13	0	0	0	0	479	472	1021	1021	0	0	
14	0	0	0	0	479	472	1021	1021	0	0	
15	0	0	0	0	480	472	1020	1021	0	0	
0	0	0	0	0	481	470	1021	1021	0	0	
1	0	0	0	0	483	468	1021	1021	0	0	
2	0	0	0	0	483	465	1021	1021	0	0	
3	0	0	0	0	483	463	1021	1021	0	0	
4	0	0	0	0	484	462	1020	1021	0	0	
5	0	0	0	0	484	460	1021	1021	0	0	
6	0	0	0	0	485	461	1021	1021	0	0	
7	0	0	0	0	486	462	1021	1021	0	0	
8	0	0	0	0	486	463	1021	1021	0	0	
9	0	0	0	0	486	466	1021	1021	0	0	
10	0	0	0	0	486	470	1021	1021	0	0	
11	0	0	0	0	488	476	1021	1021	0	0	
12	0	0	0	0	492	483	1021	1021	0	0	
13	0	0	0	0	497	491	1021	1021	0	0	
14	0	0	0	0	503	501	1021	1021	0	0	
15	0	0	0	0	511	509	1021	1021	0	0	
0	0	0	0	0	519	518	1021	1021	0	0	
1	0	0	0	0	526	524	1021	1021	0	0	
2	0	0	0	0	532	528	1021	1021	0	0	
3	0	0	0	0	536	529	1021	1021	0	0	
4	0	0	0	0	538	528	1021	1021	0	0	
5	0	0	0	0	539	524	1021	1021	0	0	
6	0	0	0	0	537	519	1021	1021	0	0	
7	0	0	0	0	533	512	1021	1021	0	0	
8	0	0	0	0	528	504	1021	1021	0	0	
9	0	0	0	0	521	495	1021	1021	0	0	
10	0	0	0	0	513	485	1021	1021	0	0	
11	0	0	0	0	504	476	1021	1021	0	0	
12	0	0	0	0	494	466	1021	1021	0	0	
13	0	0	0	0	484	458	1021	1021	0	0	
14	0	0	0	0	477	451	1021	1021	0	0	
15	0	0	0	0	472	447	1021	1021	0	0	
0	0	0	0	0	471	447	1021	1021	0	0	
1	0	0	0	0	473	449	1021	1021	0	0	
2	0	0	0	0	478	455	1021	1021	0	0	
3	0	0	0	0	487	462	1021	1021	0	0	
4	0	0	0	0	499	473	1021	1021	0	0	
5	0	0	0	0	513	484	1021	1021	0	0	
6	0	0	0	0	529	496	1021	1021	0	0	
7	0	0	0	0	545	509	1020	1021	0	0	
8	0	0	0	0	560	519	1021	1021	0	0	
9	0	0	0	0	574	528	1021	1021	0	0	
10	0	0	0	0	583	534	1021	1021	0	0	
11	0	0	0	0	589	538	1021	1021	0	0	
12	0	0	0	0	591	539	1021	1021	0	0	
13	0	0	0	0	588	537	1021	1021	0	0	
14	0	0	0	0	583	534	1021	1021	0	0	
15	0	0	0	0	575	529	1021	1021	0	0	
0	0	0	0	0	562	522	1021	1021	0	0	
1	0	0	0	0	546	512	1021	1021	0	0	
2	0	0	0	0	527	498	1021	1021	0	0	
3	0	0	0	0	505	483	1021	1021	0	0	
4	0	0	0	0	484	468	1021	1021	0	0	
5	0	0	0	0	464	453	1021	1021	0	0	
6	0	0	0	0	448	440	1021	1021	0	0	
7	0	0	0	0	436	431	1021	1021	0	0	
8	0	0	0	0	431	427	1021	1021	0	0	
9	0	0	0	0	432	427	1021	1021	0	0	
10	0	0	0	0	440	431	1021	1021	0	0	
11	0	0	0	0	453	439	1021	1021	0	0	
12	0	0	0	0	471	449	1021	1021	0	0	
13	0	0	0	0	492	461	1021	1021	0	0	
14	0	0	0	0	512	473	1021	1021	0	0	
15	0	0	0	0	532	485	1021	1021	0	0	
0	0	0	0	0	550	495	1021	1021	0	0	
1	0	0	0	0	563	502	1021	1021	0	0	
2	0	0	0	0	571	508	1021	1021	0	0	
3	0	0	0	0	575	511	1021	1021	0	0	
4	0	0	0	0	574	512	1021	1021	0	0	
5	0	0	0	0	569	511	1021	1021	0	0	
6	0	0	0	0	563	510	1021	1021	0	0	
7	0	0	0	0	555	508	1021	1021	0	0	
8	0	0	0	0	546	505	1021	1021	0	0	
9	0	0	0	0	537	504	1021	1021	0	0	
10	0	0	0	0	531	502	1020	1021	0	0	
11	0	0	0	0	526	499	1021	1021	0	0	
12	0	0	0	0	523	497	1021	1021	0	0	
13	0	0	0	0	521	495	1021	1021	0	0	
14	0	0	0	0	521	492	1021	1021	0	0	
15	0	0	0	0	521	487	1021	1021	0	0	
0	0	0	0	0	521	481	1021	1021	0	0	
1	0	0	0	0	521	475	1021	1021	0	0	
2	0	0	0	0	521	468	1021	1021	0	0	
3	0	0	0	0	521	462	1021	1021	0	0	
4	0	0	0	0	520	457	1020	1021	0	0	
5	0	0	0	0	519	454	1021	1021	0	0	
6	0	0	0	0	520	454	1021	1021	0	0	
7	0	0	0	0	520	456	1021	1021	0	0	
8	0	0	0	0	521	462	1021	1021	0	0	
9	0	0	0	0	523	469	1021	1021	0	0	
10	0	0	0	0	526	478	1021	1021	0	0	
11	0	0	0	0	529	487	1021	1021	0	0	
12	0	0	0	0	532	497	1021	1021	0	0	
13	0	0	0	0	536	505	1021	1021	0	0	
14	0	0	0	0	537	512	1021	1021	0	0	
15	0	0	0	0	539	515	1021	1021	0	0	
0	0	0	0	0	539	517	1021	1021	0	0	
1	0	0	0	0	538	515	1021	1021	0	0	
2	0	0	0	0	537	511	1021	1021	0	0	
3	0	0	0	0	536	505	1021	1021	0	0	
4	0	0	0	0	532	497	1021	1021	0	0	
5	0	0	0	0	529	488	1021	1021	0	0	
6	0	0	0	0	526	479	1021	1021	0	0	
7	0	0	0	0	523	469	1021	1021	0	0	
8	0	0	0	0	521	462	1021	1021	0	0	
9	0	0	0	0	519	455	1021	1021	0	0	
10	0	0	0	0	519	452	1021	1021	0	0	
11	0	0	0	0	519	451	1021	1021	0	0	
12	0	0	0	0	518	450	1021	1021	0	0	
13	0	0	0	0	517	450	1021	1021	0	0	
14	0	0	0	0	515	451	1021	1021	0	0	
15	0	0	0	0	513	454	1021	1021	0	0	
0	0	0	0	0	511	457	1021	1021	0	0	
1	0	0	0	0	511	460	1021	1021	0	0	
2	0	0	0	0	511	464	1021	1021	0	0	
3	0	0	0	0	510	468	1021	1021	0	0	
4	0	0	0	0	512	473	1021	1021	0	0	
5	0	0	0	0	516	479	1021	1021	0	0	
6	0	0	0	0	523	486	1021	1021	0	0	
7	0	0	0	0	531	493	1021	1021	0	0	
8	0	0	0	0	540	501	1021	1021	0	0	
9	0	0	0	0	550	509	1021	1021	0	0	
10	0	0	0	0	560	518	1021	1021	0	0	
11	0	0	0	0	570	525	1021	1021	0	0	
12	0	0	0	0	578	531	1021	1021	0	0	
13	0	0	0	0	583	537	1021	1021	0	0	
14	0	0	0	0	586	540	1021	1021	0	0	
15	0	0	0	0	585	542	1021	1021	0	0	
0	0	0	0	0	582	540	1021	1021	0	0	
1	0	0	0	0	574	536	1021	1021	0	0	
2	0	0	0	0	561	529	1021	1021	0	0	
3	0	0	0	0	546	519	1021	1021	0	0	
4	0	0	0	0	529	508	1021	1021	0	0	
5	0	0	0	0	511	495	1021	1021	0	0	
6	0	0	0	0	494	483	1021	1021	0	0	
7	0	0	0	0	479	471	1021	1021	0	0	
8	0	0	0	0	466	460	1021	1021	0	0	
9	0	0	0	0	455	450	1021	1021	0	0	
10	0	0	0	0	449	441	1021	1021	0	0	
11	0	0	0	0	447	436	1021	1021	0	0	
12	0	0	0	0	449	434	1021	1021	0	0	
13	0	0	0	0	458	436	1021	1021	0	0	
14	0	0	0	0	471	443	1021	1021	0	0	
15	0	0	0	0	486	453	1021	1021	0	0	
0	0	0	0	0	504	465	1021	1021	0	0	
1	0	0	0	0	522	480	1021	1021	0	0	
2	0	0	0	0	540	495	1021	1021	0	0	
3	0	0	0	0	555	510	1021	1021	0	0	
4	0	0	0	0	568	525	1021	1021	0	0	
5	0	0	0	0	580	539	1021	1021	0	0	
6	0	0	0	0	588	551	1021	1021	0	0	
7	0	0	0	0	593	561	1021	1021	0	0	
8	0	0	0	0	595	568	1021	1021	0	0	
9	0	0	0	0	595	571	1021	1021	0	0	
10	0	0	0	0	593	571	1021	1021	0	0	
11	0	0	0	0	588	568	1021	1021	0	0	
12	0	0	0	0	582	561	1021	1021	0	0	
13	0	0	0	0	575	553	1021	1021	0	0	
14	0	0	0	0	568	542	1021	1021	0	0	
15	0	0	0	0	560	530	1021	1021	0	0	
0	0	0	0	0	553	517	1021	1021	0	0	
1	0	0	0	0	546	505	1021	1021	0	0	
2	0	0	0	0	539	492	1021	1021	0	0	
3	0	0	0	0	532	481	1021	1021	0	0	
4	0	0	0	0	526	472	1020	1021	0	0	
5	0	0	0	0	521	464	1021	1021	0	0	
6	0	0	0	0	516	460	1021	1021	0	0	
7	0	0	0	0	513	459	1021	1021	0	0	
8	0	0	0	0	511	459	1021	1021	0	0	
9	0	0	0	0	510	462	1020	1021	0	0	
10	0	0	0	0	509	464	1021	1021	0	0	
11	0	0	0	0	508	468	1021	1021	0	0	
12	0	0	0	0	508	473	1021	1021	0	0	
13	0	0	0	0	509	477	1021	1021	0	0	
14	0	0	0	0	511	481	1020	1021	0	0	
15	0	0	0	0	513	484	1021	1021	0	0	
0	0	0	0	0	516	486	1021	1021	0	0	
1	0	0	0	0	519	487	1021	1021	0	0	
2	0	0	0	0	521	485	1021	1021	0	0	
3	0	0	0	0	523	481	1020	1021	0	0	
4	0	0	0	0	521	475	1021	1021	0	0	
5	0	0	0	0	519	468	1021	1021	0	0	
6	0	0	0	0	517	461	1021	1021	0	0	
7	0	0	0	0	514	455	1021	1021	0	0	
8	0	0	0	0	511	451	1021	1021	0	0	
9	0	0	0	0	510	449	1021	1021	0	0	
10	0	0	0	0	510	450	1021	1021	0	0	
11	0	0	0	0	511	453	1021	1021	0	0	
12	0	0	0	0	512	459	1021	1021	0	0	
13	0	0	0	0	515	466	1021	1021	0	0	
14	0	0	0	0	519	475	1021	1021	0	0	
15	0	0	0	0	523	486	1021	1021	0	0	
0	0	0	0	0	528	497	1021	1021	0	0	
1	0	0	0	0	532	507	1021	1021	0	0	
2	0	0	0	0	535	515	1021	1022	0	0	
3	0	0	0	0	537	521	1021	1021	0	0	
4	0	0	0	0	537	524	1021	1021	0	0	
5	0	0	0	0	537	525	1021	1021	0	0	
6	0	0	0	0	535	523	1021	1021	0	0	
7	0	0	0	0	532	518	1021	1021	0	0	
8	0	0	0	0	529	512	1021	1021	0	0	
9	0	0	0	0	527	506	1021	1021	0	0	
10	0	0	0	0	526	502	1021	1021	0	0	
11	0	0	0	0	525	497	1021	1021	0	0	
12	0	0	0	0	524	493	1021	1021	0	0	
13	0	0	0	0	523	489	1021	1021	0	0	
14	0	0	0	0	519	484	1021	1021	0	0	
15	0	0	0	0	513	478	1021	1021	0	0	
0	0	0	0	0	508	473	1021	1021	0	0	
1	0	0	0	0	501	470	1021	1021	0	0	
2	0	0	0	0	496	467	1021	1021	0	0	
3	0	0	0	0	493	468	1021	1021	0	0	
4	0	0	0	0	492	472	1021	1021	0	0	
5	0	0	0	0	495	478	1021	1021	0	0	
6	0	0	0	0	501	486	1021	1021	0	0	
7	0	0	0	0	508	495	1021	1021	0	0	
8	0	0	0	0	519	505	1021	1021	0	0	
9	0	0	0	0	530	515	1021	1021	0	0	
10	0	0	0	0	542	524	1021	1021	0	0	
11	0	0	0	0	551	530	1021	1021	0	0	
12	0	0	0	0	560	535	1021	1021	0	0	
13	0	0	0	0	567	537	1021	1021	0	0	
14	0	0	0	0	569	536	1021	1021	0	0	
15	0	0	0	0	569	535	1021	1021	0	0	
0	0	0	0	0	567	532	1021	1021	0	0	
1	0	0	0	0	562	529	1021	1021	0	0	
2	0	0	0	0	556	525	1021	1021	0	0	
3	0	0	0	0	548	521	1021	1021	0	0	
4	0	0	0	0	538	516	1021	1021	0	0	
5	0	0	0	0	526	510	1021	1021	0	0	
6	0	0	0	0	513	503	1021	1021	0	0	
7	0	0	0	0	500	495	1021	1021	0	0	
8	0	0	0	0	488	487	1021	1021	0	0	
9	0	0	0	0	478	480	1021	1021	0	0	
10	0	0	0	0	470	474	1021	1021	0	0	
11	0	0	0	0	465	468	1021	1021	0	0	
12	0	0	0	0	463	464	1021	1021	0	0	
13	0	0	0	0	464	462	1021	1021	0	0	
14	0	0	0	0	467	459	1021	1021	0	0	
15	0	0	0	0	472	458	1021	1021	0	0	
0	0	0	0	0	477	457	1021	1021	0	0	
1	0	0	0	0	483	456	1021	1021	0	0	
2	0	0	0	0	486	455	1021	1021	0	0	
3	0	0	0	0	488	455	1021	1021	0	0	
4	0	0	0	0	488	453	1020	1021	0	0	
5	0	0	0	0	486	451	1021	1021	0	0	
6	0	0	0	0	481	448	1021	1021	0	0	
7	0	0	0	0	476	446	1021	1021	0	0	
8	0	0	0	0	470	444	1021	1021	0	0	
9	0	0	0	0	463	443	1021	1021	0	0	
10	0	0	0	0	459	443	1021	1021	0	0	
11	0	0	0	0	455	444	1021	1021	0	0	
12	0	0	0	0	455	446	1021	1021	0	0	
13	0	0	0	0	456	449	1021	1021	0	0	
14	0	0	0	0	459	453	1020	1021	0	0	
15	0	0	0	0	465	457	1021	1021	0	0	
0	0	0	0	0	473	461	1021	1021	0	0	
1	0	0	0	0	483	466	1021	1021	0	0	
2	0	0	0	0	496	472	1021	1021	0	0	
3	0	0	0	0	510	478	1021	1021	0	0	
4	0	0	0	0	524	484	1021	1021	0	0	
5	0	0	0	0	539	491	1021	1021	0	0	
6	0	0	0	0	553	497	1021	1021	0	0	
7	0	0	0	0	564	503	1021	1021	0	0	
8	0	0	0	0	574	507	1021	1021	0	0	
9	0	0	0	0	580	511	1021	1021	0	0	
10	0	0	0	0	583	513	1021	1021	0	0	
11	0	0	0	0	581	513	1021	1021	0	0	
12	0	0	0	0	576	513	1021	1021	0	0	
13	0	0	0	0	568	511	1020	1021	0	0	
14	0	0	0	0	559	508	1021	1021	0	0	
15	0	0	0	0	548	504	1021	1021	0	0	
0	0	0	0	0	536	501	1021	1021	0	0	
1	0	0	0	0	524	496	1021	1021	0	0	
2	0	0	0	0	513	491	1021	1021	0	0	
3	0	0	0	0	503	485	1021	1021	0	0	
4	0	0	0	0	496	480	1021	1021	0	0	
5	0	0	0	0	491	475	1021	1021	0	0	
6	0	0	0	0	487	470	1021	1021	0	0	
7	0	0	0	0	487	466	1021	1021	0	0	
8	0	0	0	0	488	462	1021	1021	0	0	
9	0	0	0	0	493	460	1021	1021	0	0	
10	0	0	0	0	499	460	1021	1021	0	0	
11	0	0	0	0	507	462	1021	1021	0	0	
12	0	0	0	0	516	465	1021	1021	0	0	
13	0	0	0	0	526	470	1021	1021	0	0	
14	0	0	0	0	535	477	1021	1021	0	0	
15	0	0	0	0	542	483	1021	1021	0	0	
0	0	0	0	0	548	490	1021	1021	0	0	
1	0	0	0	0	553	496	1021	1021	0	0	
2	0	0	0	0	555	501	1021	1021	0	0	
3	0	0	0	0	556	505	1021	1021	0	0	
4	0	0	0	0	554	508	1021	1021	0	0	
5	0	0	0	0	552	509	1021	1021	0	0	
6	0	0	0	0	551	510	1021	1021	0	0	
7	0	0	0	0	550	510	1021	1021	0	0	
8	0	0	0	0	551	510	1021	1021	0	0	
9	0	0	0	0	551	509	1021	1021	0	0	
10	0	0	0	0	554	508	1021	1021	0	0	
11	0	0	0	0	557	507	1021	1021	0	0	
12	0	0	0	0	560	505	1021	1021	0	0	
13	0	0	0	0	563	503	1021	1021	0	0	
14	0	0	0	0	563	499	1021	1021	0	0	
15	0	0	0	0	561	494	1021	1021	0	0	
0	0	0	0	0	556	487	1021	1021	0	0	
1	0	0	0	0	547	478	1021	1021	0	0	
2	0	0	0	0	536	468	1021	1021	0	0	
3	0	0	0	0	524	459	1021	1021	0	0	
4	0	0	0	0	511	449	1021	1021	0	0	
5	0	0	0	0	499	441	1021	1021	0	0	
6	0	0	0	0	488	435	1021	1021	0	0	
7	0	0	0	0	480	432	1021	1021	0	0	
8	0	0	0	0	476	431	1021	1021	0	0	
9	0	0	0	0	475	433	1021	1021	0	0	
10	0	0	0	0	478	437	1021	1021	0	0	
11	0	0	0	0	484	443	1021	1021	0	0	
12	0	0	0	0	495	451	1021	1021	0	0	
13	0	0	0	0	507	459	1021	1021	0	0	
14	0	0	0	0	519	468	1021	1021	0	0	
15	0	0	0	0	533	476	1020	1021	0	0	
0	0	0	0	0	547	484	1021	1021	0	0	
1	0	0	0	0	559	492	1021	1021	0	0	
2	0	0	0	0	571	499	1021	1021	0	0	
3	0	0	0	0	581	505	1021	1021	0	0	
4	0	0	0	0	587	510	1021	1021	0	0	
5	0	0	0	0	590	512	1021	1021	0	0	
6	0	0	0	0	589	512	1021	1021	0	0	
7	0	0	0	0	583	510	1021	1021	0	0	
8	0	0	0	0	574	505	1021	1021	0	0	
9	0	0	0	0	561	499	1020	1021	0	0	
10	0	0	0	0	545	490	1021	1021	0	0	
11	0	0	0	0	528	481	1021	1021	0	0	
12	0	0	0	0	512	472	1021	1021	0	0	
13	0	0	0	0	498	463	1021	1021	0	0	
14	0	0	0	0	486	456	1021	1021	0	0	
15	0	0	0	0	478	451	1021	1021	0	0	
0	0	0	0	0	475	448	1021	1021	0	0	
1	0	0	0	0	476	447	1021	1021	0	0	
2	0	0	0	0	481	448	1021	1021	0	0	
3	0	0	0	0	490	451	1021	1021	0	0	
4	0	0	0	0	501	455	1021	1021	0	0	
5	0	0	0	0	512	460	1021	1021	0	0	
6	0	0	0	0	524	464	1021	1021	0	0	
7	0	0	0	0	535	470	1021	1021	0	0	
8	0	0	0	0	545	475	1021	1021	0	0	
9	0	0	0	0	552	480	1021	1021	0	0	
10	0	0	0	0	556	484	1021	1021	0	0	
11	0	0	0	0	556	487	1021	1021	0	0	
12	0	0	0	0	554	488	1021	1021	0	0	
13	0	0	0	0	548	489	1021	1021	0	0	
14	0	0	0	0	541	487	1021	1021	0	0	
15	0	0	0	0	534	487	1021	1021	0	0	
0	0	0	0	0	527	486	1021	1021	0	0	
1	0	0	0	0	522	486	1021	1021	0	0	
2	0	0	0	0	520	486	1021	1021	0	0	
3	0	0	0	0	521	487	1021	1021	0	0	
4	0	0	0	0	524	488	1021	1021	0	0	
5	0	0	0	0	529	490	1021	1021	0	0	
6	0	0	0	0	536	492	1021	1021	0	0	
7	0	0	0	0	544	494	1020	1021	0	0	
8	0	0	0	0	552	496	1021	1021	0	0	
9	0	0	0	0	560	497	1021	1021	0	0	
10	0	0	0	0	565	497	1021	1021	0	0	
11	0	0	0	0	566	495	1021	1021	0	0	
12	0	0	0	0	565	491	1020	1021	0	0	
13	0	0	0	0	560	485	1021	1021	0	0	
14	0	0	0	0	551	478	1021	1021	0	0	
15	0	0	0	0	540	471	1021	1021	0	0	
0	0	0	0	0	527	463	1021	1021	0	0	
1	0	0	0	0	515	456	1021	1021	0	0	
2	0	0	0	0	502	450	1021	1021	0	0	
3	0	0	0	0	489	444	1021	1021	0	0	
4	0	0	0	0	479	439	1021	1021	0	0	
5	0	0	0	0	470	435	1021	1021	0	0	
6	0	0	0	0	464	431	1021	1021	0	0	
7	0	0	0	0	459	426	1021	1021	0	0	
8	0	0	0	0	454	420	1021	1021	0	0	
9	0	0	0	0	447	411	1021	1021	0	0	
10	0	0	0	0	439	399	1021	1021	0	0	
11	0	0	0	0	429	385	1021	1021	0	0	
12	0	0	0	0	418	371	1021	1021	0	0	
13	0	0	0	0	407	357	1021	1021	0	0	
14	0	0	0	0	397	344	1021	1021	0	0	
15	0	0	0	0	387	334	1021	1021	0	0	
0	0	0	0	0	380	326	1021	1021	0	0	
1	0	0	0	0	374	320	1021	1021	0	0	
2	0	0	0	0	370	317	1021	1021	0	0	
3	0	0	0	0	367	316	1021	1021	0	0	
4	0	0	0	0	365	316	1021	1021	0	0	
5	0	0	0	0	364	317	1021	1021	0	0	
6	0	0	0	0	363	319	1021	1021	0	0	
7	0	0	0	0	363	320	1021	1021	0	0	
8	0	0	0	0	361	322	1021	1021	0	0	
9	0	0	0	0	361	322	1021	1021	0	0	
10	0	0	0	0	359	321	1020	1021	0	0	
11	0	0	0	0	358	319	1021	1021	0	0	
12	0	0	0	0	356	316	1021	1021	0	0	
13	0	0	0	0	355	314	1021	1021	0	0	
14	0	0	0	0	356	312	1021	1021	0	0	
15	0	0	0	0	359	311	1021	1021	0	0	
0	0	0	0	0	364	313	1021	1021	0	0	
1	0	0	0	0	372	317	1021	1021	0	0	
2	0	0	0	0	383	323	1021	1021	0	0	
3	0	0	0	0	396	332	1021	1021	0	0	
4	0	0	0	0	412	344	1021	1021	0	0	
5	0	0	0	0	428	357	1021	1021	0	0	
6	0	0	0	0	444	371	1021	1021	0	0	
7	0	0	0	0	460	388	1021	1021	0	0	
8	0	0	0	0	475	404	1021	1021	0	0	
9	0	0	0	0	488	422	1021	1021	0	0	
10	0	0	0	0	502	439	1021	1021	0	0	
11	0	0	0	0	513	455	1021	1021	0	0	
12	0	0	0	0	524	471	1021	1021	0	0	
13	0	0	0	0	534	486	1021	1021	0	0	
14	0	0	0	0	543	500	1021	1021	0	0	
15	0	0	0	0	551	512	1021	1021	0	0	
0	0	0	0	0	559	522	1021	1021	0	0	
1	0	0	0	0	564	529	1021	1021	0	0	
2	0	0	0	0	568	533	1021	1021	0	0	
3	0	0	0	0	571	536	1021	1021	0	0	
4	0	0	0	0	574	537	1021	1021	0	0	
5	0	0	0	0	576	538	1021	1021	0	0	
6	0	0	0	0	579	539	1021	1021	0	0	
7	0	0	0	0	582	540	1021	1021	0	0	
8	0	0	0	0	585	541	1021	1021	0	0	
9	0	0	0	0	588	541	1021	1021	0	0	
10	0	0	0	0	590	541	1021	1021	0	0	
11	0	0	0	0	589	540	1021	1021	0	0	
12	0	0	0	0	586	537	1021	1021	0	0	
13	0	0	0	0	581	534	1021	1021	0	0	
14	0	0	0	0	574	528	1021	1021	0	0	
15	0	0	0	0	566	521	1021	1021	0	0	
0	0	0	0	0	555	514	1021	1021	0	0	
1	0	0	0	0	545	506	1021	1021	0	0	
2	0	0	0	0	535	499	1020	1021	0	0	
3	0	0	0	0	526	492	1021	1021	0	0	
4	0	0	0	0	519	486	1021	1021	0	0	
5	0	0	0	0	515	483	1021	1021	0	0	
6	0	0	0	0	513	480	1021	1021	0	0	
7	0	0	0	0	513	479	1021	1021	0	0	
8	0	0	0	0	514	479	1021	1021	0	0	
9	0	0	0	0	518	480	1021	1021	0	0	
10	0	0	0	0	521	482	1021	1021	0	0	
11	0	0	0	0	526	485	1021	1021	0	0	
12	0	0	0	0	530	489	1021	1021	0	0	
13	0	0	0	0	534	492	1021	1021	0	0	
14	0	0	0	0	537	496	1021	1021	0	0	
15	0	0	0	0	539	499	1021	1021	0	0	
0	0	0	0	0	540	503	1021	1021	0	0	
1	0	0	0	0	539	504	1021	1021	0	0	
2	0	0	0	0	537	505	1021	1021	0	0	
3	0	0	0	0	535	506	1021	1021	0	0	
4	0	0	0	0	531	506	1021	1021	0	0	
5	0	0	0	0	529	506	1021	1021	0	0	
6	0	0	0	0	528	505	1021	1021	0	0	
7	0	0	0	0	529	505	1021	1021	0	0	
8	0	0	0	0	531	505	1021	1021	0	0	
9	0	0	0	0	534	504	1021	1021	0	0	
10	0	0	0	0	537	504	1021	1021	0	0	
11	0	0	0	0	540	502	1021	1021	0	0	
12	0	0	0	0	543	499	1021	1021	0	0	
13	0	0	0	0	544	497	1021	1021	0	0	
14	0	0	0	0	545	494	1021	1021	0	0	
15	0	0	0	0	545	491	1021	1021	0	0	
0	0	0	0	0	543	487	1021	1021	0	0	
1	0	0	0	0	540	483	1021	1021	0	0	
2	0	0	0	0	536	481	1021	1021	0	0	
3	0	0	0	0	530	479	1021	1021	0	0	
4	0	0	0	0	525	478	1021	1021	0	0	
5	0	0	0	0	521	480	1021	1021	0	0	
6	0	0	0	0	520	483	1021	1021	0	0	
7	0	0	0	0	520	488	1021	1021	0	0	
8	0	0	0	0	523	495	1021	1021	0	0	
9	0	0	0	0	527	501	1021	1021	0	0	
10	0	0	0	0	532	508	1020	1021	0	0	
11	0	0	0	0	539	515	1021	1021	0	0	
12	0	0	0	0	546	523	1021	1021	0	0	
13	0	0	0	0	553	529	1021	1021	0	0	
14	0	0	0	0	560	533	1021	1021	0	0	
15	0	0	0	0	563	535	1021	1021	0	0	
0	0	0	0	0	566	535	1021	1021	0	0	
1	0	0	0	0	564	531	1021	1021	0	0	
2	0	0	0	0	561	527	1021	1021	0	0	
3	0	0	0	0	557	522	1021	1021	0	0	
4	0	0	0	0	551	517	1021	1021	0	0	
5	0	0	0	0	544	513	1021	1021	0	0	
6	0	0	0	0	537	509	1021	1021	0	0	
7	0	0	0	0	529	505	1021	1021	0	0	
8	0	0	0	0	519	500	1021	1021	0	0	
9	0	0	0	0	510	496	1021	1021	0	0	
10	0	0	0	0	499	489	1021	1021	0	0	
11	0	0	0	0	487	483	1021	1021	0	0	
12	0	0	0	0	475	475	1021	1021	0	0	
13	0	0	0	0	463	466	1021	1021	0	0	
14	0	0	0	0	453	457	1021	1021	0	0	
15	0	0	0	0	446	449	1021	1021	0	0	
0	0	0	0	0	442	444	1021	1021	0	0	
1	0	0	0	0	444	440	1021	1021	0	0	
2	0	0	0	0	449	440	1021	1021	0	0	
3	0	0	0	0	461	444	1021	1021	0	0	
4	0	0	0	0	476	450	1021	1021	0	0	
5	0	0	0	0	494	459	1021	1021	0	0	
6	0	0	0	0	512	470	1021	1021	0	0	
7	0	0	0	0	531	481	1021	1021	0	0	
8	0	0	0	0	547	491	1021	1021	0	0	
9	0	0	0	0	558	499	1021	1021	0	0	
10	0	0	0	0	566	505	1021	1021	0	0	
11	0	0	0	0	568	509	1021	1021	0	0	
12	0	0	0	0	566	512	1021	1021	0	0	
13	0	0	0	0	563	514	1021	1021	0	0	
14	0	0	0	0	559	518	1021	1021	0	0	
15	0	0	0	0	556	521	1021	1021	0	0	
0	0	0	0	0	551	526	1021	1021	0	0	
1	0	0	0	0	547	528	1021	1021	0	0	
2	0	0	0	0	543	531	1021	1021	0	0	
3	0	0	0	0	539	531	1021	1021	0	0	
4	0	0	0	0	536	531	1021	1021	0	0	
5	0	0	0	0	534	530	1021	1021	0	0	
6	0	0	0	0	532	528	1021	1021	0	0	
7	0	0	0	0	532	525	1021	1021	0	0	
8	0	0	0	0	532	522	1021	1021	0	0	
9	0	0	0	0	533	519	1021	1021	0	0	
10	0	0	0	0	534	516	1021	1021	0	0	
11	0	0	0	0	535	513	1021	1021	0	0	
12	0	0	0	0	535	510	1021	1021	0	0	
13	0	0	0	0	534	508	1021	1021	0	0	
14	0	0	0	0	534	507	1021	1021	0	0	
15	0	0	0	0	531	506	1021	1021	0	0	
0	0	0	0	0	528	505	1021	1021	0	0	
1	0	0	0	0	525	505	1021	1021	0	0	
2	0	0	0	0	520	504	1021	1021	0	0	
3	0	0	0	0	515	502	1021	1021	0	0	
4	0	0	0	0	508	499	1021	1021	0	0	
5	0	0	0	0	502	495	1021	1021	0	0	
6	0	0	0	0	496	491	1021	1021	0	0	
7	0	0	0	0	491	487	1021	1021	0	0	
8	0	0	0	0	488	483	1021	1021	0	0	
9	0	0	0	0	487	480	1021	1021	0	0	
10	0	0	0	0	488	477	1021	1021	0	0	
11	0	0	0	0	492	476	1021	1021	0	0	
12	0	0	0	0	497	475	1021	1021	0	0	
13	0	0	0	0	504	476	1021	1021	0	0	
14	0	0	0	0	511	477	1021	1021	0	0	
15	0	0	0	0	519	478	1021	1021	0	0	
0	0	0	0	0	524	479	1021	1021	0	0	
1	0	0	0	0	528	480	1021	1021	0	0	
2	0	0	0	0	531	480	1021	1021	0	0	
3	0	0	0	0	531	481	1021	1021	0	0	
4	0	0	0	0	529	481	1021	1021	0	0	
5	0	0	0	0	526	481	1021	1021	0	0	
6	0	0	0	0	519	480	1021	1021	0	0	
7	0	0	0	0	512	479	1021	1021	0	0	
8	0	0	0	0	504	478	1021	1021	0	0	
9	0	0	0	0	496	477	1021	1021	0	0	
10	0	0	0	0	488	476	1020	1021	0	0	
11	0	0	0	0	483	475	1021	1021	0	0	
12	0	0	0	0	480	476	1021	1021	0	0	
13	0	0	0	0	480	476	1021	1021	0	0	
14	0	0	0	0	482	477	1021	1021	0	0	
15	0	0	0	0	486	479	1021	1021	0	0	
0	0	0	0	0	492	480	1021	1021	0	0	
1	0	0	0	0	499	482	1021	1021	0	0	
2	0	0	0	0	506	484	1021	1021	0	0	
3	0	0	0	0	515	487	1021	1021	0	0	
4	0	0	0	0	522	492	1021	1021	0	0	
5	0	0	0	0	528	496	1021	1021	0	0	
6	0	0	0	0	532	499	1021	1021	0	0	
7	0	0	0	0	533	503	1021	1021	0	0	
8	0	0	0	0	531	504	1021	1021	0	0	
9	0	0	0	0	527	505	1021	1021	0	0	
10	0	0	0	0	520	504	1021	1021	0	0	
11	0	0	0	0	512	503	1021	1021	0	0	
12	0	0	0	0	502	500	1021	1021	0	0	
13	0	0	0	0	492	496	1021	1021	0	0	
14	0	0	0	0	482	491	1021	1021	0	0	
15	0	0	0	0	473	484	1021	1021	0	0	
0	0	0	0	0	467	476	1021	1021	0	0	
1	0	0	0	0	463	470	1021	1021	0	0	
2	0	0	0	0	461	463	1021	1021	0	0	
3	0	0	0	0	462	457	1021	1021	0	0	
4	0	0	0	0	466	452	1021	1021	0	0	
5	0	0	0	0	473	450	1021	1021	0	0	
6	0	0	0	0	480	449	1021	1021	0	0	
7	0	0	0	0	489	450	1021	1021	0	0	
8	0	0	0	0	498	452	1021	1021	0	0	
9	0	0	0	0	506	455	1021	1021	0	0	
10	0	0	0	0	513	460	1021	1021	0	0	
11	0	0	0	0	518	466	1021	1021	0	0	
12	0	0	0	0	521	472	1021	1021	0	0	
13	0	0	0	0	523	478	1021	1021	0	0	
14	0	0	0	0	520	483	1021	1021	0	0	
15	0	0	0	0	516	487	1021	1021	0	0	
0	0	0	0	0	510	489	1021	1021	0	0	
1	0	0	0	0	502	491	1021	1021	0	0	
2	0	0	0	0	495	492	1021	1021	0	0	
3	0	0	0	0	487	491	1021	1021	0	0	
4	0	0	0	0	481	489	1021	1021	0	0	
5	0	0	0	0	474	484	1021	1021	0	0	
6	0	0	0	0	466	476	1021	1021	0	0	
7	0	0	0	0	458	467	1021	1021	0	0	
8	0	0	0	0	451	458	1021	1021	0	0	
9	0	0	0	0	447	449	1021	1021	0	0	
10	0	0	0	0	444	443	1021	1021	0	0	
11	0	0	0	0	444	438	1021	1021	0	0	
12	0	0	0	0	447	436	1021	1021	0	0	
13	0	0	0	0	451	436	1021	1021	0	0	
14	0	0	0	0	457	439	1021	1021	0	0	
15	0	0	0	0	463	443	1021	1021	0	0	
0	0	0	0	0	470	448	1021	1021	0	0	
1	0	0	0	0	475	453	1021	1021	0	0	
2	0	0	0	0	480	458	1021	1021	0	0	
3	0	0	0	0	483	463	1021	1021	0	0	
4	0	0	0	0	486	467	1021	1021	0	0	
5	0	0	0	0	487	471	1021	1021	0	0	
6	0	0	0	0	487	473	1021	1021	0	0	
7	0	0	0	0	488	474	1021	1021	0	0	
8	0	0	0	0	488	475	1021	1021	0	0	
9	0	0	0	0	488	474	1021	1021	0	0	
10	0	0	0	0	489	473	1021	1021	0	0	
11	0	0	0	0	490	473	1021	1021	0	0	
12	0	0	0	0	492	472	1021	1021	0	0	
13	0	0	0	0	495	472	1021	1021	0	0	
14	0	0	0	0	496	472	1021	1021	0	0	
15	0	0	0	0	498	472	1021	1021	0	0	
0	0	0	0	0	499	474	1021	1021	0	0	
1	0	0	0	0	501	476	1021	1021	0	0	
2	0	0	0	0	502	480	1021	1021	0	0	
3	0	0	0	0	503	485	1021	1021	0	0	
4	0	0	0	0	502	489	1021	1021	0	0	
5	0	0	0	0	500	492	1021	1021	0	0	
6	0	0	0	0	496	493	1021	1021	0	0	
7	0	0	0	0	490	493	1021	1021	0	0	
8	0	0	0	0	483	490	1021	1021	0	0	
9	0	0	0	0	475	486	1021	1021	0	0	
10	0	0	0	0	468	481	1020	1021	0	0	
11	0	0	0	0	462	476	1021	1021	0	0	
12	0	0	0	0	457	471	1021	1021	0	0	
13	0	0	0	0	454	466	1021	1021	0	0	
14	0	0	0	0	452	462	1021	1021	0	0	
15	0	0	0	0	452	458	1021	1021	0	0	
0	0	0	0	0	454	455	1021	1021	0	0	
1	0	0	0	0	457	453	1021	1021	0	0	
2	0	0	0	0	460	452	1021	1021	0	0	
3	0	0	0	0	465	452	1021	1021	0	0	
4	0	0	0	0	471	454	1021	1021	0	0	
5	0	0	0	0	477	457	1021	1021	0	0	
6	0	0	0	0	483	461	1021	1021	0	0	
7	0	0	0	0	489	465	1021	1021	0	0	
8	0	0	0	0	494	470	1021	1021	0	0	
9	0	0	0	0	497	475	1021	1021	0	0	
10	0	0	0	0	500	480	1021	1021	0	0	
11	0	0	0	0	502	483	1021	1021	0	0	
12	0	0	0	0	503	487	1021	1021	0	0	
13	0	0	0	0	503	489	1021	1021	0	0	
14	0	0	0	0	503	491	1021	1021	0	0	
15	0	0	0	0	502	492	1021	1021	0	0	
0	0	0	0	0	502	492	1021	1021	0	0	
1	0	0	0	0	502	491	1021	1021	0	0	
2	0	0	0	0	503	490	1021	1021	0	0	
3	0	0	0	0	505	488	1021	1021	0	0	
4	0	0	0	0	508	487	1021	1021	0	0	
5	0	0	0	0	512	486	1021	1021	0	0	
6	0	0	0	0	516	485	1021	1021	0	0	
7	0	0	0	0	519	484	1021	1021	0	0	
8	0	0	0	0	523	483	1021	1021	0	0	
9	0	0	0	0	524	482	1021	1021	0	0	
10	0	0	0	0	524	480	1021	1021	0	0	
11	0	0	0	0	520	479	1021	1021	0	0	
12	0	0	0	0	518	479	1021	1021	0	0	
13	0	0	0	0	514	480	1021	1021	0	0	
14	0	0	0	0	512	484	1021	1021	0	0	
15	0	0	0	0	513	490	1021	1021	0	0	
0	0	0	0	0	514	497	1021	1021	0	0	
1	0	0	0	0	516	503	1021	1021	0	0	
2	0	0	0	0	516	507	1021	1021	0	0	
3	0	0	0	0	515	507	1021	1021	0	0	
4	0	0	0	0	512	504	1021	1021	0	0	
5	0	0	0	0	509	500	1021	1021	0	0	
6	0	0	0	0	507	495	1021	1021	0	0	
7	0	0	0	0	505	491	1021	1021	0	0	
8	0	0	0	0	506	487	1021	1021	0	0	
9	0	0	0	0	509	487	1021	1021	0	0	
10	0	0	0	0	514	488	1021	1021	0	0	
11	0	0	0	0	521	492	1021	1021	0	0	
12	0	0	0	0	529	497	1021	1021	0	0	
13	0	0	0	0	536	504	1021	1021	0	0	
14	0	0	0	0	544	512	1021	1021	0	0	
15	0	0	0	0	551	519	1021	1021	0	0	
0	0	0	0	0	555	526	1021	1021	0	0	
1	0	0	0	0	557	532	1021	1021	0	0	
2	0	0	0	0	557	535	1021	1021	0	0	
3	0	0	0	0	555	537	1021	1021	0	0	
4	0	0	0	0	551	536	1021	1021	0	0	
5	0	0	0	0	545	533	1021	1021	0	0	
6	0	0	0	0	539	528	1021	1021	0	0	
7	0	0	0	0	531	521	1021	1021	0	0	
8	0	0	0	0	524	513	1021	1021	0	0	
9	0	0	0	0	516	505	1021	1021	0	0	
10	0	0	0	0	511	496	1021	1021	0	0	
11	0	0	0	0	506	489	1021	1021	0	0	
12	0	0	0	0	504	482	1021	1021	0	0	
13	0	0	0	0	503	477	1021	1021	0	0	
14	0	0	0	0	502	473	1021	1021	0	0	
15	0	0	0	0	503	470	1021	1021	0	0	
0	0	0	0	0	504	468	1021	1021	0	0	
1	0	0	0	0	506	468	1021	1021	0	0	
2	0	0	0	0	508	469	1021	1021	0	0	
3	0	0	0	0	512	472	1021	1021	0	0	
4	0	0	0	0	516	476	1021	1021	0	0	
5	0	0	0	0	520	481	1021	1021	0	0	
6	0	0	0	0	526	487	1021	1021	0	0	
7	0	0	0	0	530	493	1021	1021	0	0	
8	0	0	0	0	535	499	1021	1021	0	0	
9	0	0	0	0	538	504	1021	1021	0	0	
10	0	0	0	0	542	508	1021	1021	0	0	
11	0	0	0	0	545	511	1021	1021	0	0	
12	0	0	0	0	547	513	1021	1021	0	0	
13	0	0	0	0	550	514	1021	1021	0	0	
14	0	0	0	0	551	513	1021	1021	0	0	
15	0	0	0	0	552	513	1021	1021	0	0	
0	0	0	0	0	553	511	1021	1021	0	0	
1	0	0	0	0	554	509	1021	1021	0	0	
2	0	0	0	0	555	507	1021	1021	0	0	
3	0	0	0	0	554	505	1021	1021	0	0	
4	0	0	0	0	552	504	1021	1021	0	0	
5	0	0	0	0	550	502	1021	1021	0	0	
6	0	0	0	0	547	501	1021	1021	0	0	
7	0	0	0	0	544	501	1021	1021	0	0	
8	0	0	0	0	540	502	1021	1021	0	0	
9	0	0	0	0	538	504	1021	1021	0	0	
10	0	0	0	0	536	505	1021	1021	0	0	
11	0	0	0	0	535	506	1021	1021	0	0	
12	0	0	0	0	535	507	1021	1021	0	0	
13	0	0	0	0	535	508	1021	1021	0	0	
14	0	0	0	0	536	507	1021	1021	0	0	
15	0	0	0	0	536	505	1021	1021	0	0	
0	0	0	0	0	537	503	1021	1021	0	0	
1	0	0	0	0	537	499	1021	1021	0	0	
2	0	0	0	0	538	494	1021	1021	0	0	
3	0	0	0	0	538	490	1021	1021	0	0	
4	0	0	0	0	538	486	1021	1021	0	0	
5	0	0	0	0	540	483	1021	1021	0	0	
6	0	0	0	0	541	483	1021	1021	0	0	
7	0	0	0	0	544	485	1021	1021	0	0	
8	0	0	0	0	548	489	1021	1021	0	0	
9	0	0	0	0	553	493	1021	1021	0	0	
10	0	0	0	0	558	499	1021	1021	0	0	
11	0	0	0	0	563	506	1021	1021	0	0	
12	0	0	0	0	566	512	1021	1021	0	0	
13	0	0	0	0	569	518	1021	1021	0	0	
14	0	0	0	0	570	522	1021	1021	0	0	
15	0	0	0	0	571	526	1021	1021	0	0	
0	0	0	0	0	570	529	1021	1021	0	0	
1	0	0	0	0	570	531	1021	1021	0	0	
2	0	0	0	0	571	533	1021	1021	0	0	
3	0	0	0	0	571	534	1021	1021	0	0	
4	0	0	0	0	572	533	1021	1021	0	0	
5	0	0	0	0	571	530	1021	1021	0	0	
6	0	0	0	0	569	524	1021	1021	0	0	
7	0	0	0	0	567	517	1021	1021	0	0	
8	0	0	0	0	563	508	1021	1021	0	0	
9	0	0	0	0	561	500	1021	1021	0	0	
10	0	0	0	0	558	493	1021	1021	0	0	
11	0	0	0	0	556	487	1021	1021	0	0	
12	0	0	0	0	555	483	1021	1021	0	0	
13	0	0	0	0	552	479	1021	1021	0	0	
14	0	0	0	0	547	476	1021	1021	0	0	
15	0	0	0	0	542	473	1021	1021	0	0	
0	0	0	0	0	533	469	1021	1021	0	0	
1	0	0	0	0	522	465	1020	1021	0	0	
2	0	0	0	0	510	459	1021	1021	0	0	
3	0	0	0	0	497	453	1021	1021	0	0	
4	0	0	0	0	484	448	1021	1021	0	0	
5	0	0	0	0	475	444	1021	1021	0	0	
6	0	0	0	0	470	441	1021	1021	0	0	
7	0	0	0	0	468	441	1021	1021	0	0	
8	0	0	0	0	474	446	1021	1021	0	0	
9	0	0	0	0	483	451	1021	1021	0	0	
10	0	0	0	0	497	460	1021	1021	0	0	
11	0	0	0	0	515	469	1021	1021	0	0	
12	0	0	0	0	534	479	1021	1021	0	0	
13	0	0	0	0	554	490	1021	1021	0	0	
14	0	0	0	0	573	501	1021	1021	0	0	
15	0	0	0	0	590	510	1021	1021	0	0	
0	0	0	0	0	604	519	1021	1021	0	0	
1	0	0	0	0	614	525	1021	1021	0	0	
2	0	0	0	0	621	531	1021	1021	0	0	
3	0	0	0	0	622	534	1021	1021	0	0	
4	0	0	0	0	620	537	1021	1021	0	0	
5	0	0	0	0	614	537	1021	1021	0	0	
6	0	0	0	0	605	537	1021	1021	0	0	
7	0	0	0	0	594	535	1021	1021	0	0	
8	0	0	0	0	581	532	1021	1021	0	0	
9	0	0	0	0	568	529	1021	1021	0	0	
10	0	0	0	0	556	525	1020	1021	0	0	
11	0	0	0	0	545	519	1021	1021	0	0	
12	0	0	0	0	536	514	1021	1021	0	0	
13	0	0	0	0	527	507	1021	1021	0	0	
14	0	0	0	0	522	500	1021	1021	0	0	
15	0	0	0	0	518	494	1020	1021	0	0	
0	0	0	0	0	516	487	1021	1021	0	0	
1	0	0	0	0	516	483	1021	1021	0	0	
2	0	0	0	0	516	478	1021	1021	0	0	
3	0	0	0	0	518	475	1021	1021	0	0	
4	0	0	0	0	519	472	1020	1021	0	0	
5	0	0	0	0	518	469	1021	1021	0	0	
6	0	0	0	0	516	466	1021	1021	0	0	
7	0	0	0	0	513	464	1021	1021	0	0	
8	0	0	0	0	509	462	1021	1021	0	0	
9	0	0	0	0	505	461	1021	1021	0	0	
10	0	0	0	0	502	461	1021	1021	0	0	
11	0	0	0	0	499	463	1021	1021	0	0	
12	0	0	0	0	499	466	1021	1021	0	0	
13	0	0	0	0	502	471	1021	1021	0	0	
14	0	0	0	0	507	477	1021	1022	0	0	
15	0	0	0	0	514	484	1021	1021	0	0	
0	0	0	0	0	524	493	1021	1021	0	0	
1	0	0	0	0	535	500	1021	1021	0	0	
2	0	0	0	0	547	508	1021	1021	0	0	
3	0	0	0	0	558	515	1020	1021	0	0	
4	0	0	0	0	568	519	1021	1021	0	0	
5	0	0	0	0	575	522	1021	1021	0	0	
6	0	0	0	0	580	523	1021	1021	0	0	
7	0	0	0	0	581	521	1021	1021	0	0	
8	0	0	0	0	579	519	1021	1021	0	0	
9	0	0	0	0	575	515	1021	1021	0	0	
10	0	0	0	0	569	512	1021	1021	0	0	
11	0	0	0	0	561	509	1021	1021	0	0	
12	0	0	0	0	553	507	1021	1021	0	0	
13	0	0	0	0	544	505	1020	1021	0	0	
14	0	0	0	0	536	504	1021	1021	0	0	
15	0	0	0	0	530	505	1021	1021	0	0	
0	0	0	0	0	524	505	1021	1021	0	0	
1	0	0	0	0	520	506	1021	1021	0	0	
2	0	0	0	0	519	506	1021	1021	0	0	
3	0	0	0	0	518	506	1021	1021	0	0	
4	0	0	0	0	520	506	1021	1021	0	0	
5	0	0	0	0	523	506	1021	1021	0	0	
6	0	0	0	0	527	506	1021	1021	0	0	
7	0	0	0	0	534	507	1021	1021	0	0	
8	0	0	0	0	541	508	1021	1021	0	0	
9	0	0	0	0	549	510	1021	1021	0	0	
10	0	0	0	0	556	513	1021	1021	0	0	
11	0	0	0	0	564	518	1021	1021	0	0	
12	0	0	0	0	571	523	1021	1021	0	0	
13	0	0	0	0	575	528	1021	1021	0	0	
14	0	0	0	0	578	534	1021	1021	0	0	
15	0	0	0	0	578	539	1021	1021	0	0	
0	0	0	0	0	574	541	1021	1021	0	0	
1	0	0	0	0	566	540	1021	1021	0	0	
2	0	0	0	0	554	535	1021	1021	0	0	
3	0	0	0	0	539	527	1021	1021	0	0	
4	0	0	0	0	520	516	1021	1021	0	0	
5	0	0	0	0	502	503	1021	1021	0	0	
6	0	0	0	0	485	490	1021	1021	0	0	
7	0	0	0	0	470	478	1021	1021	0	0	
8	0	0	0	0	460	467	1021	1021	0	0	
9	0	0	0	0	452	458	1021	1021	0	0	
10	0	0	0	0	449	452	1021	1021	0	0	
11	0	0	0	0	450	447	1020	1021	0	0	
12	0	0	0	0	454	443	1021	1021	0	0	
13	0	0	0	0	459	441	1021	1021	0	0	
14	0	0	0	0	465	441	1021	1021	0	0	
15	0	0	0	0	473	441	1021	1021	0	0	
0	0	0	0	0	481	444	1021	1021	0	0	
1	0	0	0	0	489	448	1021	1021	0	0	
2	0	0	0	0	496	453	1021	1021	0	0	
3	0	0	0	0	503	459	1021	1021	0	0	
4	0	0	0	0	508	465	1021	1021	0	0	
5	0	0	0	0	512	471	1021	1021	0	0	
6	0	0	0	0	515	477	1021	1021	0	0	
7	0	0	0	0	517	483	1021	1021	0	0	
8	0	0	0	0	520	489	1021	1021	0	0	
9	0	0	0	0	525	497	1021	1021	0	0	
10	0	0	0	0	530	504	1021	1022	0	0	
11	0	0	0	0	537	511	1021	1021	0	0	
12	0	0	0	0	545	518	1021	1021	0	0	
13	0	0	0	0	551	521	1021	1021	0	0	
14	0	0	0	0	558	523	1021	1021	0	0	
15	0	0	0	0	563	523	1021	1021	0	0	
0	0	0	0	0	567	520	1021	1021	0	0	
1	0	0	0	0	569	518	1021	1021	0	0	
2	0	0	0	0	571	514	1021	1021	0	0	
3	0	0	0	0	570	510	1021	1021	0	0	
4	0	0	0	0	568	506	1021	1021	0	0	
5	0	0	0	0	565	503	1021	1021	0	0	
6	0	0	0	0	561	501	1021	1021	0	0	
7	0	0	0	0	555	499	1021	1021	0	0	
8	0	0	0	0	547	496	1021	1021	0	0	
9	0	0	0	0	539	495	1021	1021	0	0	
10	0	0	0	0	530	492	1021	1021	0	0	
11	0	0	0	0	521	489	1021	1021	0	0	
12	0	0	0	0	513	488	1021	1021	0	0	
13	0	0	0	0	508	487	1021	1021	0	0	
14	0	0	0	0	505	488	1021	1021	0	0	
15	0	0	0	0	505	489	1021	1021	0	0	
0	0	0	0	0	507	490	1021	1021	0	0	
1	0	0	0	0	511	492	1021	1021	0	0	
2	0	0	0	0	515	492	1021	1021	0	0	
3	0	0	0	0	521	493	1021	1021	0	0	
4	0	0	0	0	528	494	1021	1021	0	0	
5	0	0	0	0	536	495	1021	1021	0	0	
6	0	0	0	0	543	496	1021	1021	0	0	
7	0	0	0	0	548	497	1021	1021	0	0	
8	0	0	0	0	553	498	1020	1021	0	0	
9	0	0	0	0	556	498	1021	1021	0	0	
10	0	0	0	0	557	497	1021	1021	0	0	
11	0	0	0	0	555	495	1021	1021	0	0	
12	0	0	0	0	550	491	1021	1021	0	0	
13	0	0	0	0	542	486	1020	1021	0	0	
14	0	0	0	0	533	480	1021	1021	0	0	
15	0	0	0	0	522	473	1021	1021	0	0	
0	0	0	0	0	510	466	1021	1021	0	0	
1	0	0	0	0	500	460	1021	1021	0	0	
2	0	0	0	0	491	454	1021	1021	0	0	
3	0	0	0	0	485	449	1021	1021	0	0	
4	0	0	0	0	482	447	1021	1021	0	0	
5	0	0	0	0	482	446	1021	1021	0	0	
6	0	0	0	0	485	447	1021	1021	0	0	
7	0	0	0	0	490	448	1021	1021	0	0	
8	0	0	0	0	497	451	1021	1021	0	0	
9	0	0	0	0	508	456	1021	1021	0	0	
10	0	0	0	0	518	461	1021	1021	0	0	
11	0	0	0	0	530	468	1021	1021	0	0	
12	0	0	0	0	541	476	1021	1021	0	0	
13	0	0	0	0	552	484	1021	1021	0	0	
14	0	0	0	0	563	492	1021	1021	0	0	
15	0	0	0	0	572	501	1021	1021	0	0	
0	0	0	0	0	580	509	1021	1021	0	0	
1	0	0	0	0	584	515	1021	1021	0	0	
2	0	0	0	0	584	517	1021	1021	0	0	
3	0	0	0	0	579	515	1021	1021	0	0	
4	0	0	0	0	569	509	1021	1021	0	0	
5	0	0	0	0	556	500	1021	1021	0	0	
6	0	0	0	0	543	489	1021	1021	0	0	
7	0	0	0	0	529	479	1021	1021	0	0	
8	0	0	0	0	518	471	1021	1021	0	0	
9	0	0	0	0	510	465	1021	1021	0	0	
10	0	0	0	0	505	461	1021	1021	0	0	
11	0	0	0	0	504	460	1021	1021	0	0	
12	0	0	0	0	507	462	1021	1021	0	0	
13	0	0	0	0	513	465	1021	1021	0	0	
14	0	0	0	0	520	472	1021	1021	0	0	
15	0	0	0	0	530	480	1021	1021	0	0	
0	0	0	0	0	540	489	1021	1021	0	0	
1	0	0	0	0	550	499	1021	1021	0	0	
2	0	0	0	0	560	508	1021	1021	0	0	
3	0	0	0	0	567	518	1021	1021	0	0	
4	0	0	0	0	574	527	1021	1021	0	0	
5	0	0	0	0	577	534	1020	1021	0	0	
6	0	0	0	0	580	540	1021	1021	0	0	
7	0	0	0	0	581	544	1021	1021	0	0	
8	0	0	0	0	581	547	1021	1021	0	0	
9	0	0	0	0	581	549	1021	1021	0	0	
10	0	0	0	0	581	550	1021	1022	0	0	
11	0	0	0	0	581	550	1021	1021	0	0	
12	0	0	0	0	581	549	1021	1021	0	0	
13	0	0	0	0	580	546	1021	1021	0	0	
14	0	0	0	0	579	542	1021	1021	0	0	
15	0	0	0	0	577	536	1021	1021	0	0	
0	0	0	0	0	573	528	1021	1021	0	0	
1	0	0	0	0	568	519	1021	1021	0	0	
2	0	0	0	0	562	510	1021	1021	0	0	
3	0	0	0	0	554	499	1021	1021	0	0	
4	0	0	0	0	547	489	1020	1021	0	0	
5	0	0	0	0	539	479	1021	1021	0	0	
6	0	0	0	0	531	471	1021	1021	0	0	
7	0	0	0	0	523	464	1021	1021	0	0	
8	0	0	0	0	515	458	1021	1021	0	0	
9	0	0	0	0	508	454	1020	1021	0	0	
10	0	0	0	0	502	451	1021	1021	0	0	
11	0	0	0	0	498	451	1021	1021	0	0	
12	0	0	0	0	495	452	1021	1021	0	0	
13	0	0	0	0	496	456	1021	1021	0	0	
14	0	0	0	0	498	461	1021	1021	0	0	
15	0	0	0	0	503	467	1021	1021	0	0	
0	0	0	0	0	509	472	1021	1021	0	0	
1	0	0	0	0	515	478	1021	1021	0	0	
2	0	0	0	0	523	483	1021	1021	0	0	
3	0	0	0	0	530	487	1021	1021	0	0	
4	0	0	0	0	537	490	1021	1021	0	0	
5	0	0	0	0	544	493	1021	1021	0	0	
6	0	0	0	0	548	495	1021	1021	0	0	
7	0	0	0	0	552	496	1021	1021	0	0	
8	0	0	0	0	554	496	1021	1021	0	0	
9	0	0	0	0	556	497	1021	1021	0	0	
10	0	0	0	0	556	497	1021	1021	0	0	
11	0	0	0	0	554	497	1021	1021	0	0	
12	0	0	0	0	551	498	1021	1021	0	0	
13	0	0	0	0	548	498	1021	1021	0	0	
14	0	0	0	0	543	498	1021	1021	0	0	
15	0	0	0	0	538	498	1021	1021	0	0	
0	0	0	0	0	532	496	1021	1021	0	0	
1	0	0	0	0	526	494	1021	1021	0	0	
2	0	0	0	0	520	491	1020	1021	0	0	
3	0	0	0	0	515	486	1021	1021	0	0	
4	0	0	0	0	512	481	1021	1021	0	0	
5	0	0	0	0	510	478	1021	1021	0	0	
6	0	0	0	0	512	476	1021	1021	0	0	
7	0	0	0	0	517	476	1020	1021	0	0	
8	0	0	0	0	524	478	1021	1021	0	0	
9	0	0	0	0	535	481	1021	1021	0	0	
10	0	0	0	0	546	487	1021	1021	0	0	
11	0	0	0	0	558	494	1021	1021	0	0	
12	0	0	0	0	569	501	1020	1021	0	0	
13	0	0	0	0	579	508	1021	1021	0	0	
14	0	0	0	0	588	516	1021	1021	0	0	
15	0	0	0	0	592	523	1021	1021	0	0	
0	0	0	0	0	595	527	1021	1021	0	0	
1	0	0	0	0	593	528	1020	1021	0	0	
2	0	0	0	0	588	527	1021	1021	0	0	
3	0	0	0	0	580	524	1021	1021	0	0	
4	0	0	0	0	570	519	1021	1021	0	0	
5	0	0	0	0	559	512	1021	1021	0	0	
6	0	0	0	0	547	504	1021	1021	0	0	
7	0	0	0	0	537	496	1021	1021	0	0	
8	0	0	0	0	528	488	1021	1021	0	0	
9	0	0	0	0	521	481	1021	1021	0	0	
10	0	0	0	0	517	475	1021	1021	0	0	
11	0	0	0	0	514	470	1020	1021	0	0	
12	0	0	0	0	514	465	1021	1021	0	0	
13	0	0	0	0	515	461	1021	1021	0	0	
14	0	0	0	0	516	458	1021	1021	0	0	
15	0	0	0	0	517	455	1021	1021	0	0	
0	0	0	0	0	518	454	1021	1021	0	0	
1	0	0	0	0	517	453	1021	1021	0	0	
2	0	0	0	0	517	454	1021	1021	0	0	
3	0	0	0	0	514	454	1021	1021	0	0	
4	0	0	0	0	511	456	1021	1021	0	0	
5	0	0	0	0	509	459	1021	1021	0	0	
6	0	0	0	0	507	463	1021	1021	0	0	
7	0	0	0	0	508	470	1021	1021	0	0	
8	0	0	0	0	511	477	1021	1021	0	0	
9	0	0	0	0	516	486	1021	1021	0	0	
10	0	0	0	0	524	495	1021	1021	0	0	
11	0	0	0	0	534	504	1021	1021	0	0	
12	0	0	0	0	545	512	1021	1021	0	0	
13	0	0	0	0	556	518	1021	1021	0	0	
14	0	0	0	0	567	521	1021	1021	0	0	
15	0	0	0	0	576	523	1021	1021	0	0	
0	0	0	0	0	583	520	1021	1021	0	0	
1	0	0	0	0	586	515	1021	1021	0	0	
2	0	0	0	0	585	508	1021	1021	0	0	
3	0	0	0	0	581	499	1021	1021	0	0	
4	0	0	0	0	572	488	1021	1021	0	0	
5	0	0	0	0	561	476	1021	1021	0	0	
6	0	0	0	0	547	464	1021	1021	0	0	
7	0	0	0	0	531	454	1021	1021	0	0	
8	0	0	0	0	515	445	1021	1021	0	0	
9	0	0	0	0	502	439	1021	1021	0	0	
10	0	0	0	0	492	435	1021	1021	0	0	
11	0	0	0	0	487	436	1021	1021	0	0	
12	0	0	0	0	484	439	1021	1021	0	0	
13	0	0	0	0	485	444	1021	1021	0	0	
14	0	0	0	0	490	450	1021	1021	0	0	
15	0	0	0	0	497	457	1021	1021	0	0	
0	0	0	0	0	508	465	1021	1021	0	0	
1	0	0	0	0	519	473	1021	1021	0	0	
2	0	0	0	0	531	480	1021	1021	0	0	
3	0	0	0	0	544	487	1020	1021	0	0	
4	0	0	0	0	556	492	1021	1021	0	0	
5	0	0	0	0	566	496	1021	1021	0	0	
6	0	0	0	0	574	499	1021	1021	0	0	
7	0	0	0	0	580	501	1021	1021	0	0	
8	0	0	0	0	585	504	1021	1021	0	0	
9	0	0	0	0	588	506	1021	1021	0	0	
10	0	0	0	0	590	508	1021	1021	0	0	
11	0	0	0	0	590	511	1021	1021	0	0	
12	0	0	0	0	588	515	1021	1021	0	0	
13	0	0	0	0	587	518	1020	1021	0	0	
14	0	0	0	0	583	519	1021	1021	0	0	
15	0	0	0	0	579	521	1021	1021	0	0	
0	0	0	0	0	573	520	1021	1021	0	0	
1	0	0	0	0	566	518	1021	1021	0	0	
2	0	0	0	0	558	513	1021	1022	0	0	
3	0	0	0	0	548	505	1021	1021	0	0	
4	0	0	0	0	537	495	1021	1021	0	0	
5	0	0	0	0	524	483	1021	1021	0	0	
6	0	0	0	0	511	469	1021	1021	0	0	
7	0	0	0	0	498	456	1021	1021	0	0	
8	0	0	0	0	488	444	1021	1021	0	0	
9	0	0	0	0	480	434	1021	1021	0	0	
10	0	0	0	0	475	427	1021	1021	0	0	
11	0	0	0	0	474	423	1021	1021	0	0	
12	0	0	0	0	476	423	1021	1021	0	0	
13	0	0	0	0	482	428	1021	1021	0	0	
14	0	0	0	0	490	435	1021	1021	0	0	
15	0	0	0	0	499	444	1021	1021	0	0	
0	0	0	0	0	508	454	1021	1021	0	0	
1	0	0	0	0	516	465	1020	1021	0	0	
2	0	0	0	0	523	475	1021	1021	0	0	
3	0	0	0	0	528	483	1021	1021	0	0	
4	0	0	0	0	531	491	1021	1021	0	0	
5	0	0	0	0	532	495	1021	1021	0	0	
6	0	0	0	0	532	497	1021	1021	0	0	
7	0	0	0	0	531	499	1021	1021	0	0	
8	0	0	0	0	533	500	1021	1021	0	0	
9	0	0	0	0	535	501	1021	1021	0	0	
10	0	0	0	0	538	502	1021	1021	0	0	
11	0	0	0	0	543	503	1021	1021	0	0	
12	0	0	0	0	550	504	1021	1021	0	0	
13	0	0	0	0	556	505	1021	1021	0	0	
14	0	0	0	0	561	506	1021	1021	0	0	
15	0	0	0	0	565	506	1021	1021	0	0	
0	0	0	0	0	566	504	1021	1021	0	0	
1	0	0	0	0	563	501	1021	1021	0	0	
2	0	0	0	0	559	497	1021	1021	0	0	
3	0	0	0	0	550	492	1021	1021	0	0	
4	0	0	0	0	539	486	1021	1021	0	0	
5	0	0	0	0	526	478	1020	1021	0	0	
6	0	0	0	0	512	471	1021	1021	0	0	
7	0	0	0	0	499	463	1021	1021	0	0	
8	0	0	0	0	487	457	1021	1021	0	0	
9	0	0	0	0	478	452	1021	1021	0	0	
10	0	0	0	0	473	450	1020	1021	0	0	
11	0	0	0	0	473	450	1021	1021	0	0	
12	0	0	0	0	477	452	1021	1021	0	0	
13	0	0	0	0	485	457	1021	1021	0	0	
14	0	0	0	0	496	463	1021	1021	0	0	
15	0	0	0	0	511	470	1021	1021	0	0	
0	0	0	0	0	526	479	1021	1021	0	0	
1	0	0	0	0	542	487	1021	1021	0	0	
2	0	0	0	0	556	496	1021	1021	0	0	
3	0	0	0	0	568	503	1021	1021	0	0	
4	0	0	0	0	575	508	1021	1021	0	0	
5	0	0	0	0	577	510	1021	1021	0	0	
6	0	0	0	0	576	510	1021	1021	0	0	
7	0	0	0	0	571	509	1021	1021	0	0	
8	0	0	0	0	562	507	1021	1021	0	0	
9	0	0	0	0	552	504	1021	1022	0	0	
10	0	0	0	0	543	502	1021	1021	0	0	
11	0	0	0	0	534	500	1021	1021	0	0	
12	0	0	0	0	526	499	1021	1021	0	0	
13	0	0	0	0	520	496	1021	1021	0	0	
14	0	0	0	0	515	493	1021	1021	0	0	
15	0	0	0	0	511	488	1021	1021	0	0	
0	0	0	0	0	508	482	1021	1021	0	0	
1	0	0	0	0	505	475	1021	1021	0	0	
2	0	0	0	0	504	467	1021	1021	0	0	
3	0	0	0	0	502	459	1021	1021	0	0	
4	0	0	0	0	500	450	1021	1021	0	0	
5	0	0	0	0	497	440	1021	1021	0	0	
6	0	0	0	0	493	431	1021	1021	0	0	
7	0	0	0	0	489	423	1021	1021	0	0	
8	0	0	0	0	484	416	1021	1021	0	0	
9	0	0	0	0	480	412	1021	1021	0	0	
10	0	0	0	0	479	412	1021	1021	0	0	
11	0	0	0	0	480	415	1021	1021	0	0	
12	0	0	0	0	484	423	1021	1021	0	0	
13	0	0	0	0	491	433	1021	1021	0	0	
14	0	0	0	0	501	446	1021	1021	0	0	
15	0	0	0	0	513	459	1021	1021	0	0	
0	0	0	0	0	526	472	1021	1021	0	0	
1	0	0	0	0	539	485	1021	1021	0	0	
2	0	0	0	0	552	497	1021	1021	0	0	
3	0	0	0	0	565	507	1021	1021	0	0	
4	0	0	0	0	578	515	1021	1021	0	0	
5	0	0	0	0	588	521	1021	1021	0	0	
6	0	0	0	0	596	525	1021	1021	0	0	
7	0	0	0	0	600	525	1021	1021	0	0	
8	0	0	0	0	600	522	1021	1021	0	0	
9	0	0	0	0	598	517	1021	1021	0	0	
10	0	0	0	0	591	511	1021	1021	0	0	
11	0	0	0	0	583	504	1021	1021	0	0	
12	0	0	0	0	572	498	1021	1021	0	0	
13	0	0	0	0	561	492	1021	1021	0	0	
14	0	0	0	0	551	488	1021	1021	0	0	
15	0	0	0	0	539	484	1021	1021	0	0	
0	0	0	0	0	527	482	1021	1021	0	0	
1	0	0	0	0	518	480	1021	1021	0	0	
2	0	0	0	0	509	478	1021	1021	0	0	
3	0	0	0	0	502	478	1021	1021	0	0	
4	0	0	0	0	497	478	1021	1021	0	0	
5	0	0	0	0	494	478	1021	1021	0	0	
6	0	0	0	0	492	478	1021	1021	0	0	
7	0	0	0	0	491	478	1021	1021	0	0	
8	0	0	0	0	492	477	1021	1021	0	0	
9	0	0	0	0	493	475	1021	1021	0	0	
10	0	0	0	0	494	473	1021	1021	0	0	
11	0	0	0	0	496	469	1020	1021	0	0	
12	0	0	0	0	496	465	1021	1021	0	0	
13	0	0	0	0	497	461	1021	1021	0	0	
14	0	0	0	0	496	456	1021	1021	0	0	
15	0	0	0	0	494	452	1021	1021	0	0	
0	0	0	0	0	492	448	1020	1021	0	0	
1	0	0	0	0	488	444	1021	1021	0	0	
2	0	0	0	0	485	441	1021	1021	0	0	
3	0	0	0	0	481	440	1021	1021	0	0	
4	0	0	0	0	478	440	1021	1021	0	0	
5	0	0	0	0	476	443	1021	1021	0	0	
6	0	0	0	0	475	447	1021	1021	0	0	
7	0	0	0	0	477	453	1021	1021	0	0	
8	0	0	0	0	480	460	1021	1021	0	0	
9	0	0	0	0	485	467	1021	1021	0	0	
10	0	0	0	0	491	473	1021	1022	0	0	
11	0	0	0	0	497	479	1021	1021	0	0	
12	0	0	0	0	504	484	1021	1021	0	0	
13	0	0	0	0	511	487	1021	1021	0	0	
14	0	0	0	0	517	489	1021	1021	0	0	
15	0	0	0	0	523	491	1021	1021	0	0	
0	0	0	0	0	528	491	1021	1021	0	0	
1	0	0	0	0	533	491	1021	1021	0	0	
2	0	0	0	0	536	490	1021	1021	0	0	
3	0	0	0	0	539	489	1021	1021	0	0	
4	0	0	0	0	540	488	1021	1021	0	0	
5	0	0	0	0	542	488	1021	1021	0	0	
6	0	0	0	0	542	489	1021	1021	0	0	
7	0	0	0	0	540	490	1021	1021	0	0	
8	0	0	0	0	537	491	1021	1021	0	0	
9	0	0	0	0	533	492	1021	1021	0	0	
10	0	0	0	0	527	491	1021	1021	0	0	
11	0	0	0	0	521	489	1021	1021	0	0	
12	0	0	0	0	513	487	1021	1021	0	0	
13	0	0	0	0	505	482	1021	1021	0	0	
14	0	0	0	0	496	476	1021	1021	0	0	
15	0	0	0	0	488	468	1021	1021	0	0	
0	0	0	0	0	480	459	1021	1021	0	0	
1	0	0	0	0	472	449	1021	1021	0	0	
2	0	0	0	0	467	441	1021	1021	0	0	
3	0	0	0	0	463	433	1021	1022	0	0	
4	0	0	0	0	463	428	1021	1021	0	0	
5	0	0	0	0	465	426	1021	1021	0	0	
6	0	0	0	0	469	427	1021	1021	0	0	
7	0	0	0	0	476	431	1021	1021	0	0	
8	0	0	0	0	484	437	1021	1021	0	0	
9	0	0	0	0	492	445	1021	1021	0	0	
10	0	0	0	0	500	454	1021	1021	0	0	
11	0	0	0	0	507	463	1021	1021	0	0	
12	0	0	0	0	512	471	1021	1021	0	0	
13	0	0	0	0	516	479	1021	1021	0	0	
14	0	0	0	0	519	485	1021	1021	0	0	
15	0	0	0	0	521	491	1021	1021	0	0	
0	0	0	0	0	522	495	1021	1021	0	0	
1	0	0	0	0	522	497	1021	1021	0	0	
2	0	0	0	0	522	497	1021	1022	0	0	
3	0	0	0	0	522	496	1021	1021	0	0	
4	0	0	0	0	522	492	1021	1021	0	0	
5	0	0	0	0	521	488	1021	1021	0	0	
6	0	0	0	0	521	483	1021	1021	0	0	
7	0	0	0	0	521	479	1021	1021	0	0	
8	0	0	0	0	523	475	1021	1021	0	0	
9	0	0	0	0	525	472	1021	1021	0	0	
10	0	0	0	0	527	470	1021	1021	0	0	
11	0	0	0	0	528	469	1021	1021	0	0	
12	0	0	0	0	530	469	1021	1021	0	0	
13	0	0	0	0	532	470	1021	1021	0	0	
14	0	0	0	0	532	471	1021	1021	0	0	
15	0	0	0	0	531	472	1021	1021	0	0	
0	0	0	0	0	530	474	1021	1021	0	0	
1	0	0	0	0	528	476	1021	1021	0	0	
2	0	0	0	0	527	478	1021	1021	0	0	
3	0	0	0	0	525	480	1021	1021	0	0	
4	0	0	0	0	523	481	1021	1021	0	0	
5	0	0	0	0	520	481	1021	1021	0	0	
6	0	0	0	0	519	481	1021	1021	0	0	
7	0	0	0	0	517	480	1021	1021	0	0	
8	0	0	0	0	517	480	1021	1021	0	0	
9	0	0	0	0	516	479	1021	1021	0	0	
10	0	0	0	0	516	477	1021	1021	0	0	
11	0	0	0	0	515	474	1021	1021	0	0	
12	0	0	0	0	513	470	1021	1021	0	0	
13	0	0	0	0	509	463	1021	1021	0	0	
14	0	0	0	0	502	455	1021	1021	0	0	
15	0	0	0	0	494	447	1021	1021	0	0	
0	0	0	0	0	485	440	1021	1021	0	0	
1	0	0	0	0	478	434	1021	1021	0	0	
2	0	0	0	0	472	430	1021	1021	0	0	
3	0	0	0	0	466	429	1021	1021	0	0	
4	0	0	0	0	463	430	1021	1021	0	0	
5	0	0	0	0	461	433	1021	1021	0	0	
6	0	0	0	0	462	439	1021	1021	0	0	
7	0	0	0	0	466	446	1021	1021	0	0	
8	0	0	0	0	470	454	1021	1021	0	0	
9	0	0	0	0	477	463	1021	1021	0	0	
10	0	0	0	0	485	472	1021	1021	0	0	
11	0	0	0	0	493	480	1021	1021	0	0	
12	0	0	0	0	502	487	1021	1021	0	0	
13	0	0	0	0	510	492	1021	1021	0	0	
14	0	0	0	0	516	496	1021	1021	0	0	
15	0	0	0	0	521	498	1021	1021	0	0	
0	0	0	0	0	524	497	1021	1021	0	0	
1	0	0	0	0	525	495	1021	1021	0	0	
2	0	0	0	0	522	491	1021	1021	0	0	
3	0	0	0	0	518	486	1021	1021	0	0	
4	0	0	0	0	512	481	1021	1021	0	0	
5	0	0	0	0	506	477	1021	1021	0	0	
6	0	0	0	0	501	475	1021	1021	0	0	
7	0	0	0	0	496	474	1021	1021	0	0	
8	0	0	0	0	491	475	1021	1021	0	0	
9	0	0	0	0	488	476	1021	1021	0	0	
10	0	0	0	0	487	479	1021	1021	0	0	
11	0	0	0	0	486	482	1021	1021	0	0	
12	0	0	0	0	487	485	1021	1021	0	0	
13	0	0	0	0	488	487	1021	1021	0	0	
14	0	0	0	0	492	490	1021	1021	0	0	
15	0	0	0	0	496	491	1021	1021	0	0	
0	0	0	0	0	500	491	1021	1021	0	0	
1	0	0	0	0	504	489	1021	1021	0	0	
2	0	0	0	0	508	486	1021	1021	0	0	
3	0	0	0	0	511	482	1021	1021	0	0	
4	0	0	0	0	514	478	1021	1021	0	0	
5	0	0	0	0	516	474	1021	1021	0	0	
6	0	0	0	0	518	471	1021	1021	0	0	
7	0	0	0	0	518	468	1021	1021	0	0	
8	0	0	0	0	518	467	1021	1021	0	0	
9	0	0	0	0	516	466	1021	1021	0	0	
10	0	0	0	0	513	466	1021	1021	0	0	
11	0	0	0	0	510	467	1021	1021	0	0	
12	0	0	0	0	505	468	1021	1021	0	0	
13	0	0	0	0	500	469	1021	1021	0	0	
14	0	0	0	0	494	469	1021	1021	0	0	
15	0	0	0	0	488	468	1021	1021	0	0	
0	0	0	0	0	482	467	1021	1021	0	0	
1	0	0	0	0	476	465	1021	1021	0	0	
2	0	0	0	0	472	462	1021	1021	0	0	
3	0	0	0	0	470	458	1021	1021	0	0	
4	0	0	0	0	469	454	1021	1021	0	0	
5	0	0	0	0	468	449	1021	1021	0	0	
6	0	0	0	0	470	444	1021	1021	0	0	
7	0	0	0	0	471	438	1021	1021	0	0	
8	0	0	0	0	473	433	1021	1021	0	0	
9	0	0	0	0	475	427	1021	1021	0	0	
10	0	0	0	0	476	422	1021	1021	0	0	
11	0	0	0	0	476	418	1021	1021	0	0	
12	0	0	0	0	477	415	1021	1021	0	0	
13	0	0	0	0	478	415	1021	1021	0	0	
14	0	0	0	0	481	418	1021	1021	0	0	
15	0	0	0	0	486	425	1021	1021	0	0	
0	0	0	0	0	492	435	1021	1021	0	0	
1	0	0	0	0	502	449	1021	1021	0	0	
2	0	0	0	0	513	466	1021	1021	0	0	
3	0	0	0	0	526	483	1021	1021	0	0	
4	0	0	0	0	539	500	1021	1021	0	0	
5	0	0	0	0	551	515	1021	1021	0	0	
6	0	0	0	0	561	528	1021	1021	0	0	
7	0	0	0	0	569	537	1021	1021	0	0	
8	0	0	0	0	575	542	1021	1021	0	0	
9	0	0	0	0	578	544	1021	1021	0	0	
10	0	0	0	0	579	543	1021	1021	0	0	
11	0	0	0	0	577	539	1021	1021	0	0	
12	0	0	0	0	575	532	1021	1021	0	0	
13	0	0	0	0	569	524	1021	1021	0	0	
14	0	0	0	0	561	513	1021	1021	0	0	
15	0	0	0	0	550	500	1021	1021	0	0	
0	0	0	0	0	537	486	1021	1021	0	0	
1	0	0	0	0	521	472	1021	1021	0	0	
2	0	0	0	0	505	457	1021	1021	0	0	
3	0	0	0	0	487	443	1021	1021	0	0	
4	0	0	0	0	472	431	1021	1021	0	0	
5	0	0	0	0	458	422	1020	1021	0	0	
6	0	0	0	0	447	415	1021	1021	0	0	
7	0	0	0	0	441	412	1021	1021	0	0	
8	0	0	0	0	441	414	1021	1021	0	0	
9	0	0	0	0	446	419	1021	1021	0	0	
10	0	0	0	0	455	427	1021	1021	0	0	
11	0	0	0	0	469	436	1021	1021	0	0	
12	0	0	0	0	486	447	1021	1021	0	0	
13	0	0	0	0	503	458	1021	1021	0	0	
14	0	0	0	0	520	467	1021	1021	0	0	
15	0	0	0	0	536	475	1021	1021	0	0	
0	0	0	0	0	548	481	1021	1021	0	0	
1	0	0	0	0	558	485	1021	1021	0	0	
2	0	0	0	0	563	487	1021	1021	0	0	
3	0	0	0	0	565	487	1021	1021	0	0	
4	0	0	0	0	563	487	1021	1021	0	0	
5	0	0	0	0	557	484	1021	1021	0	0	
6	0	0	0	0	549	481	1021	1021	0	0	
7	0	0	0	0	539	478	1021	1021	0	0	
8	0	0	0	0	528	474	1021	1021	0	0	
9	0	0	0	0	517	472	1021	1021	0	0	
10	0	0	0	0	508	470	1021	1021	0	0	
11	0	0	0	0	501	470	1021	1021	0	0	
12	0	0	0	0	495	470	1021	1021	0	0	
13	0	0	0	0	492	470	1021	1021	0	0	
14	0	0	0	0	492	472	1021	1021	0	0	
15	0	0	0	0	495	473	1021	1021	0	0	
0	0	0	0	0	501	475	1021	1021	0	0	
1	0	0	0	0	509	476	1021	1021	0	0	
2	0	0	0	0	517	478	1021	1021	0	0	
3	0	0	0	0	526	478	1020	1021	0	0	
4	0	0	0	0	534	477	1021	1021	0	0	
5	0	0	0	0	541	475	1021	1021	0	0	
6	0	0	0	0	545	472	1021	1021	0	0	
7	0	0	0	0	548	469	1021	1021	0	0	
8	0	0	0	0	548	465	1021	1021	0	0	
9	0	0	0	0	545	460	1021	1021	0	0	
10	0	0	0	0	540	455	1021	1021	0	0	
11	0	0	0	0	531	451	1021	1021	0	0	
12	0	0	0	0	521	446	1021	1021	0	0	
13	0	0	0	0	511	441	1021	1021	0	0	
14	0	0	0	0	499	438	1021	1021	0	0	
15	0	0	0	0	490	435	1021	1021	0	0	
0	0	0	0	0	481	433	1021	1021	0	0	
1	0	0	0	0	473	432	1021	1021	0	0	
2	0	0	0	0	467	429	1021	1021	0	0	
3	0	0	0	0	462	425	1021	1021	0	0	
4	0	0	0	0	457	419	1021	1021	0	0	
5	0	0	0	0	451	411	1021	1021	0	0	
6	0	0	0	0	444	400	1021	1021	0	0	
7	0	0	0	0	436	388	1021	1021	0	0	
8	0	0	0	0	428	375	1021	1021	0	0	
9	0	0	0	0	420	363	1021	1021	0	0	
10	0	0	0	0	412	351	1021	1021	0	0	
11	0	0	0	0	404	340	1021	1021	0	0	
12	0	0	0	0	396	329	1021	1021	0	0	
13	0	0	0	0	386	319	1021	1021	0	0	
14	0	0	0	0	376	310	1021	1021	0	0	
15	0	0	0	0	365	302	1021	1021	0	0	
0	0	0	0	0	353	294	1021	1021	0	0	
1	0	0	0	0	342	287	1021	1021	0	0	
2	0	0	0	0	332	282	1021	1021	0	0	
3	0	0	0	0	323	278	1021	1021	0	0	
4	0	0	0	0	317	275	1021	1021	0	0	
5	0	0	0	0	313	274	1021	1021	0	0	
6	0	0	0	0	312	274	1021	1021	0	0	
7	0	0	0	0	314	274	1021	1021	0	0	
8	0	0	0	0	318	275	1021	1021	0	0	
9	0	0	0	0	324	277	1021	1021	0	0	
10	0	0	0	0	331	279	1021	1021	0	0	
11	0	0	0	0	340	281	1021	1021	0	0	
12	0	0	0	0	349	284	1021	1021	0	0	
13	0	0	0	0	359	289	1021	1021	0	0	
14	0	0	0	0	369	295	1021	1021	0	0	
15	0	0	0	0	380	303	1021	1021	0	0	
0	0	0	0	0	392	313	1020	1021	0	0	
1	0	0	0	0	406	326	1021	1021	0	0	
2	0	0	0	0	421	343	1021	1021	0	0	
3	0	0	0	0	438	362	1021	1021	0	0	
4	0	0	0	0	457	383	1021	1021	0	0	
5	0	0	0	0	477	406	1020	1021	0	0	
6	0	0	0	0	497	429	1021	1021	0	0	
7	0	0	0	0	516	450	1021	1021	0	0	
8	0	0	0	0	534	469	1021	1021	0	0	
9	0	0	0	0	547	484	1021	1021	0	0	
10	0	0	0	0	558	494	1020	1021	0	0	
11	0	0	0	0	565	500	1021	1021	0	0	
12	0	0	0	0	568	501	1021	1021	0	0	
13	0	0	0	0	568	499	1021	1021	0	0	
14	0	0	0	0	566	494	1021	1021	0	0	
15	0	0	0	0	560	486	1021	1021	0	0	
0	0	0	0	0	552	477	1021	1021	0	0	
1	0	0	0	0	544	469	1021	1021	0	0	
2	0	0	0	0	535	461	1021	1021	0	0	
3	0	0	0	0	526	455	1021	1021	0	0	
4	0	0	0	0	518	451	1021	1021	0	0	
5	0	0	0	0	511	449	1021	1021	0	0	
6	0	0	0	0	507	451	1021	1021	0	0	
7	0	0	0	0	503	454	1021	1021	0	0	
8	0	0	0	0	501	459	1021	1021	0	0	
9	0	0	0	0	501	466	1021	1021	0	0	
10	0	0	0	0	503	474	1021	1021	0	0	
11	0	0	0	0	507	483	1021	1021	0	0	
12	0	0	0	0	510	491	1021	1021	0	0	
13	0	0	0	0	514	497	1021	1021	0	0	
14	0	0	0	0	516	501	1021	1021	0	0	
15	0	0	0	0	518	502	1021	1021	0	0	
0	0	0	0	0	518	500	1021	1021	0	0	
1	0	0	0	0	518	496	1021	1021	0	0	
2	0	0	0	0	517	492	1021	1021	0	0	
3	0	0	0	0	518	487	1021	1021	0	0	
4	0	0	0	0	519	484	1021	1021	0	0	
5	0	0	0	0	522	482	1021	1021	0	0	
6	0	0	0	0	525	481	1021	1021	0	0	
7	0	0	0	0	528	482	1021	1021	0	0	
8	0	0	0	0	531	484	1021	1021	0	0	
9	0	0	0	0	533	486	1021	1021	0	0	
10	0	0	0	0	534	489	1021	1021	0	0	
11	0	0	0	0	534	493	1021	1021	0	0	
12	0	0	0	0	532	496	1021	1021	0	0	
13	0	0	0	0	531	499	1021	1021	0	0	
14	0	0	0	0	529	503	1021	1021	0	0	
15	0	0	0	0	527	505	1021	1021	0	0	
0	0	0	0	0	526	507	1021	1021	0	0	
1	0	0	0	0	524	507	1021	1021	0	0	
2	0	0	0	0	522	504	1021	1021	0	0	
3	0	0	0	0	519	500	1021	1021	0	0	
4	0	0	0	0	518	496	1021	1021	0	0	
5	0	0	0	0	515	489	1021	1021	0	0	
6	0	0	0	0	513	483	1021	1021	0	0	
7	0	0	0	0	512	478	1021	1021	0	0	
8	0	0	0	0	513	474	1021	1021	0	0	
9	0	0	0	0	515	472	1021	1021	0	0	
10	0	0	0	0	517	471	1021	1021	0	0	
11	0	0	0	0	519	471	1021	1021	0	0	
12	0	0	0	0	522	472	1021	1021	0	0	
13	0	0	0	0	524	474	1021	1021	0	0	
14	0	0	0	0	524	476	1021	1021	0	0	
15	0	0	0	0	524	479	1021	1021	0	0	
0	0	0	0	0	524	483	1021	1021	0	0	
1	0	0	0	0	522	486	1020	1021	0	0	
2	0	0	0	0	520	488	1021	1021	0	0	
3	0	0	0	0	518	490	1021	1021	0	0	
4	0	0	0	0	516	491	1021	1021	0	0	
5	0	0	0	0	513	490	1021	1021	0	0	
6	0	0	0	0	509	487	1021	1021	0	0	
7	0	0	0	0	506	484	1021	1021	0	0	
8	0	0	0	0	504	480	1021	1021	0	0	
9	0	0	0	0	502	475	1021	1021	0	0	
10	0	0	0	0	502	472	1021	1021	0	0	
11	0	0	0	0	503	470	1021	1021	0	0	
12	0	0	0	0	507	469	1021	1021	0	0	
13	0	0	0	0	512	470	1021	1021	0	0	
14	0	0	0	0	517	471	1021	1021	0	0	
15	0	0	0	0	521	473	1021	1021	0	0	
0	0	0	0	0	524	475	1021	1021	0	0	
1	0	0	0	0	527	478	1021	1021	0	0	
2	0	0	0	0	529	481	1021	1021	0	0	
3	0	0	0	0	532	487	1021	1021	0	0	
4	0	0	0	0	535	493	1021	1021	0	0	
5	0	0	0	0	537	500	1021	1021	0	0	
6	0	0	0	0	540	507	1021	1021	0	0	
7	0	0	0	0	541	512	1021	1021	0	0	
8	0	0	0	0	542	516	1021	1021	0	0	
9	0	0	0	0	540	517	1021	1021	0	0	
10	0	0	0	0	539	516	1021	1021	0	0	
11	0	0	0	0	535	512	1021	1021	0	0	
12	0	0	0	0	532	506	1021	1021	0	0	
13	0	0	0	0	528	498	1021	1021	0	0	
14	0	0	0	0	524	490	1021	1021	0	0	
15	0	0	0	0	523	483	1021	1021	0	0	
0	0	0	0	0	521	476	1021	1021	0	0	
1	0	0	0	0	523	472	1021	1021	0	0	
2	0	0	0	0	524	468	1021	1021	0	0	
3	0	0	0	0	527	468	1021	1021	0	0	
4	0	0	0	0	531	471	1021	1021	0	0	
5	0	0	0	0	536	474	1021	1021	0	0	
6	0	0	0	0	541	480	1021	1021	0	0	
7	0	0	0	0	545	485	1021	1021	0	0	
8	0	0	0	0	548	489	1021	1021	0	0	
9	0	0	0	0	548	492	1021	1021	0	0	
10	0	0	0	0	545	492	1021	1021	0	0	
11	0	0	0	0	537	487	1021	1021	0	0	
12	0	0	0	0	526	480	1021	1021	0	0	
13	0	0	0	0	513	470	1021	1021	0	0	
14	0	0	0	0	499	460	1021	1021	0	0	
15	0	0	0	0	487	449	1021	1021	0	0	
0	0	0	0	0	478	441	1021	1021	0	0	
1	0	0	0	0	472	435	1021	1021	0	0	
2	0	0	0	0	469	431	1021	1021	0	0	
3	0	0	0	0	469	428	1020	1021	0	0	
4	0	0	0	0	472	428	1021	1021	0	0	
5	0	0	0	0	476	429	1021	1021	0	0	
6	0	0	0	0	480	431	1021	1021	0	0	
7	0	0	0	0	486	433	1021	1021	0	0	
8	0	0	0	0	493	438	1021	1021	0	0	
9	0	0	0	0	499	443	1021	1021	0	0	
10	0	0	0	0	505	449	1021	1021	0	0	
11	0	0	0	0	510	455	1021	1021	0	0	
12	0	0	0	0	514	462	1021	1021	0	0	
13	0	0	0	0	517	467	1021	1021	0	0	
14	0	0	0	0	519	472	1021	1021	0	0	
15	0	0	0	0	519	475	1021	1021	0	0	
0	0	0	0	0	518	476	1021	1021	0	0	
1	0	0	0	0	516	477	1021	1021	0	0	
2	0	0	0	0	514	478	1021	1021	0	0	
3	0	0	0	0	514	479	1021	1021	0	0	
4	0	0	0	0	515	481	1021	1021	0	0	
5	0	0	0	0	518	483	1021	1021	0	0	
6	0	0	0	0	521	484	1021	1021	0	0	
7	0	0	0	0	523	486	1021	1021	0	0	
8	0	0	0	0	526	486	1021	1021	0	0	
9	0	0	0	0	527	485	1021	1021	0	0	
10	0	0	0	0	527	483	1021	1021	0	0	
11	0	0	0	0	527	481	1021	1021	0	0	
12	0	0	0	0	524	478	1021	1021	0	0	
13	0	0	0	0	521	475	1021	1021	0	0	
14	0	0	0	0	518	473	1021	1021	0	0	
15	0	0	0	0	512	470	1021	1021	0	0	
0	0	0	0	0	507	468	1021	1021	0	0	
1	0	0	0	0	502	467	1021	1021	0	0	
2	0	0	0	0	497	466	1021	1021	0	0	
3	0	0	0	0	494	467	1021	1021	0	0	
4	0	0	0	0	492	468	1021	1021	0	0	
5	0	0	0	0	492	470	1021	1021	0	0	
6	0	0	0	0	494	472	1021	1021	0	0	
7	0	0	0	0	496	473	1021	1021	0	0	
8	0	0	0	0	500	475	1021	1021	0	0	
9	0	0	0	0	504	475	1021	1021	0	0	
10	0	0	0	0	509	475	1021	1021	0	0	
11	0	0	0	0	514	475	1021	1021	0	0	
12	0	0	0	0	519	475	1021	1021	0	0	
13	0	0	0	0	524	476	1021	1021	0	0	
14	0	0	0	0	527	475	1021	1021	0	0	
15	0	0	0	0	530	475	1021	1021	0	0	
0	0	0	0	0	531	475	1021	1021	0	0	
1	0	0	0	0	530	474	1021	1021	0	0	
2	0	0	0	0	527	472	1021	1021	0	0	
3	0	0	0	0	524	472	1021	1021	0	0	
4	0	0	0	0	519	470	1021	1021	0	0	
5	0	0	0	0	514	470	1021	1021	0	0	
6	0	0	0	0	510	470	1021	1021	0	0	
7	0	0	0	0	508	471	1021	1021	0	0	
8	0	0	0	0	505	473	1021	1021	0	0	
9	0	0	0	0	505	476	1021	1021	0	0	
10	0	0	0	0	506	478	1021	1021	0	0	
11	0	0	0	0	508	481	1021	1021	0	0	
12	0	0	0	0	512	484	1021	1021	0	0	
13	0	0	0	0	516	486	1021	1021	0	0	
14	0	0	0	0	521	487	1021	1021	0	0	
15	0	0	0	0	527	487	1021	1021	0	0	
0	0	0	0	0	532	487	1021	1021	0	0	
1	0	0	0	0	539	488	1021	1021	0	0	
2	0	0	0	0	544	488	1021	1021	0	0	
3	0	0	0	0	551	490	1021	1021	0	0	
4	0	0	0	0	556	493	1021	1021	0	0	
5	0	0	0	0	561	495	1021	1021	0	0	
6	0	0	0	0	563	496	1021	1021	0	0	
7	0	0	0	0	559	494	1021	1021	0	0	
8	0	0	0	0	551	489	1021	1021	0	0	
9	0	0	0	0	537	481	1021	1021	0	0	
10	0	0	0	0	519	470	1021	1021	0	0	
11	0	0	0	0	500	458	1021	1021	0	0	
12	0	0	0	0	481	446	1021	1021	0	0	
13	0	0	0	0	463	436	1021	1021	0	0	
14	0	0	0	0	450	427	1021	1021	0	0	
15	0	0	0	0	440	421	1021	1021	0	0	
0	0	0	0	0	436	417	1021	1021	0	0	
1	0	0	0	0	436	416	1021	1021	0	0	
2	0	0	0	0	442	417	1021	1021	0	0	
3	0	0	0	0	452	422	1021	1021	0	0	
4	0	0	0	0	467	428	1021	1021	0	0	
5	0	0	0	0	484	437	1021	1021	0	0	
6	0	0	0	0	502	447	1021	1021	0	0	
7	0	0	0	0	518	457	1021	1021	0	0	
8	0	0	0	0	533	466	1021	1021	0	0	
9	0	0	0	0	543	473	1021	1021	0	0	
10	0	0	0	0	550	479	1021	1021	0	0	
11	0	0	0	0	552	483	1021	1021	0	0	
12	0	0	0	0	550	483	1021	1021	0	0	
13	0	0	0	0	541	481	1020	1021	0	0	
14	0	0	0	0	529	475	1021	1021	0	0	
15	0	0	0	0	515	467	1021	1021	0	0	
0	0	0	0	0	497	457	1021	1021	0	0	
1	0	0	0	0	480	446	1021	1021	0	0	
2	0	0	0	0	462	434	1021	1021	0	0	
3	0	0	0	0	446	422	1021	1021	0	0	
4	0	0	0	0	433	411	1021	1021	0	0	
5	0	0	0	0	423	401	1021	1021	0	0	
6	0	0	0	0	419	395	1021	1021	0	0	
7	0	0	0	0	420	392	1021	1021	0	0	
8	0	0	0	0	426	393	1021	1021	0	0	
9	0	0	0	0	438	398	1021	1021	0	0	
10	0	0	0	0	450	405	1021	1021	0	0	
11	0	0	0	0	466	415	1021	1021	0	0	
12	0	0	0	0	480	425	1021	1021	0	0	
13	0	0	0	0	495	436	1021	1021	0	0	
14	0	0	0	0	507	447	1021	1021	0	0	
15	0	0	0	0	515	457	1021	1021	0	0	
0	0	0	0	0	520	465	1021	1021	0	0	
1	0	0	0	0	522	471	1021	1021	0	0	
2	0	0	0	0	521	476	1021	1021	0	0	
3	0	0	0	0	517	478	1021	1021	0	0	
4	0	0	0	0	511	478	1021	1021	0	0	
5	0	0	0	0	504	476	1021	1021	0	0	
6	0	0	0	0	496	473	1021	1021	0	0	
7	0	0	0	0	490	469	1021	1021	0	0	
8	0	0	0	0	484	464	1021	1021	0	0	
9	0	0	0	0	480	458	1021	1021	0	0	
10	0	0	0	0	477	453	1021	1021	0	0	
11	0	0	0	0	476	448	1021	1021	0	0	
12	0	0	0	0	476	443	1021	1021	0	0	
13	0	0	0	0	478	440	1021	1021	0	0	
14	0	0	0	0	479	437	1021	1021	0	0	
15	0	0	0	0	481	436	1021	1021	0	0	
0	0	0	0	0	483	436	1021	1021	0	0	
1	0	0	0	0	485	437	1021	1021	0	0	
2	0	0	0	0	486	439	1021	1021	0	0	
3	0	0	0	0	485	441	1021	1021	0	0	
4	0	0	0	0	483	444	1021	1021	0	0	
5	0	0	0	0	481	447	1021	1021	0	0	
6	0	0	0	0	478	450	1021	1021	0	0	
7	0	0	0	0	475	453	1021	1021	0	0	
8	0	0	0	0	472	455	1021	1021	0	0	
9	0	0	0	0	471	458	1021	1021	0	0	
10	0	0	0	0	471	461	1021	1021	0	0	
11	0	0	0	0	473	463	1021	1021	0	0	
12	0	0	0	0	477	464	1021	1021	0	0	
13	0	0	0	0	481	466	1021	1021	0	0	
14	0	0	0	0	486	465	1021	1021	0	0	
15	0	0	0	0	490	463	1021	1021	0	0	
0	0	0	0	0	492	459	1021	1021	0	0	
1	0	0	0	0	493	455	1021	1021	0	0	
2	0	0	0	0	492	449	1021	1021	0	0	
3	0	0	0	0	490	444	1021	1021	0	0	
4	0	0	0	0	489	441	1021	1021	0	0	
5	0	0	0	0	488	440	1021	1021	0	0	
6	0	0	0	0	491	442	1021	1021	0	0	
7	0	0	0	0	495	448	1021	1021	0	0	
8	0	0	0	0	503	457	1021	1021	0	0	
9	0	0	0	0	515	470	1021	1021	0	0	
10	0	0	0	0	530	486	1021	1021	0	0	
11	0	0	0	0	545	500	1021	1021	0	0	
12	0	0	0	0	557	511	1021	1021	0	0	
13	0	0	0	0	563	515	1021	1021	0	0	
14	0	0	0	0	564	513	1021	1021	0	0	
15	0	0	0	0	560	506	1021	1021	0	0	
0	0	0	0	0	551	495	1021	1021	0	0	
1	0	0	0	0	539	481	1021	1021	0	0	
2	0	0	0	0	526	466	1021	1021	0	0	
3	0	0	0	0	512	451	1021	1021	0	0	
4	0	0	0	0	500	439	1021	1021	0	0	
5	0	0	0	0	490	429	1021	1021	0	0	
6	0	0	0	0	483	423	1021	1021	0	0	
7	0	0	0	0	480	421	1021	1021	0	0	
8	0	0	0	0	481	423	1021	1021	0	0	
9	0	0	0	0	486	430	1021	1021	0	0	
10	0	0	0	0	495	440	1021	1021	0	0	
11	0	0	0	0	505	452	1021	1021	0	0	
12	0	0	0	0	516	465	1021	1021	0	0	
13	0	0	0	0	528	479	1021	1021	0	0	
14	0	0	0	0	539	492	1021	1021	0	0	
15	0	0	0	0	549	503	1021	1021	0	0	
0	0	0	0	0	556	512	1021	1021	0	0	
1	0	0	0	0	562	519	1021	1021	0	0	
2	0	0	0	0	566	524	1021	1021	0	0	
3	0	0	0	0	567	525	1021	1021	0	0	
4	0	0	0	0	566	524	1021	1021	0	0	
5	0	0	0	0	564	522	1021	1021	0	0	
6	0	0	0	0	560	517	1021	1021	0	0	
7	0	0	0	0	555	512	1020	1021	0	0	
8	0	0	0	0	551	507	1021	1021	0	0	
9	0	0	0	0	547	503	1021	1021	0	0	
10	0	0	0	0	543	500	1021	1021	0	0	
11	0	0	0	0	542	499	1021	1021	0	0	
12	0	0	0	0	541	500	1021	1021	0	0	
13	0	0	0	0	542	504	1021	1021	0	0	
14	0	0	0	0	544	508	1021	1021	0	0	
15	0	0	0	0	547	513	1021	1021	0	0	
0	0	0	0	0	549	520	1021	1021	0	0	
1	0	0	0	0	551	526	1021	1021	0	0	
2	0	0	0	0	552	532	1021	1021	0	0	
3	0	0	0	0	553	537	1021	1021	0	0	
4	0	0	0	0	551	540	1021	1021	0	0	
5	0	0	0	0	548	541	1021	1021	0	0	
6	0	0	0	0	544	540	1021	1021	0	0	
7	0	0	0	0	541	539	1021	1021	0	0	
8	0	0	0	0	538	536	1021	1021	0	0	
9	0	0	0	0	537	535	1021	1021	0	0	
10	0	0	0	0	537	532	1021	1021	0	0	
11	0	0	0	0	538	531	1021	1021	0	0	
12	0	0	0	0	539	529	1021	1021	0	0	
13	0	0	0	0	541	527	1021	1021	0	0	
14	0	0	0	0	541	524	1021	1021	0	0	
15	0	0	0	0	540	520	1021	1021	0	0	
0	0	0	0	0	536	515	1021	1021	0	0	
1	0	0	0	0	531	510	1021	1021	0	0	
2	0	0	0	0	525	505	1021	1021	0	0	
3	0	0	0	0	516	499	1021	1021	0	0	
4	0	0	0	0	509	495	1021	1021	0	0	
5	0	0	0	0	502	492	1021	1021	0	0	
6	0	0	0	0	497	491	1021	1021	0	0	
7	0	0	0	0	495	492	1021	1021	0	0	
8	0	0	0	0	495	493	1021	1021	0	0	
9	0	0	0	0	498	496	1021	1021	0	0	
10	0	0	0	0	503	499	1020	1021	0	0	
11	0	0	0	0	508	501	1021	1021	0	0	
12	0	0	0	0	515	502	1021	1021	0	0	
13	0	0	0	0	521	502	1021	1021	0	0	
14	0	0	0	0	527	500	1021	1021	0	0	
15	0	0	0	0	531	497	1021	1021	0	0	
0	0	0	0	0	534	493	1021	1021	0	0	
1	0	0	0	0	536	489	1021	1021	0	0	
2	0	0	0	0	535	484	1021	1021	0	0	
3	0	0	0	0	533	481	1021	1021	0	0	
4	0	0	0	0	530	479	1021	1021	0	0	
5	0	0	0	0	527	478	1021	1021	0	0	
6	0	0	0	0	523	478	1021	1021	0	0	
7	0	0	0	0	519	479	1021	1021	0	0	
8	0	0	0	0	514	481	1021	1021	0	0	
9	0	0	0	0	510	483	1020	1021	0	0	
10	0	0	0	0	506	487	1021	1021	0	0	
11	0	0	0	0	502	489	1021	1021	0	0	
12	0	0	0	0	498	491	1021	1021	0	0	
13	0	0	0	0	495	491	1021	1021	0	0	
14	0	0	0	0	492	491	1021	1021	0	0	
15	0	0	0	0	489	489	1021	1021	0	0	
0	0	0	0	0	489	488	1021	1021	0	0	
1	0	0	0	0	491	488	1021	1021	0	0	
2	0	0	0	0	496	490	1021	1021	0	0	
3	0	0	0	0	503	492	1021	1021	0	0	
4	0	0	0	0	511	496	1021	1021	0	0	
5	0	0	0	0	522	500	1021	1021	0	0	
6	0	0	0	0	532	506	1021	1021	0	0	
7	0	0	0	0	542	512	1021	1021	0	0	
8	0	0	0	0	551	518	1021	1021	0	0	
9	0	0	0	0	558	524	1021	1021	0	0	
10	0	0	0	0	563	528	1021	1021	0	0	
11	0	0	0	0	565	532	1021	1021	0	0	
12	0	0	0	0	565	535	1021	1021	0	0	
13	0	0	0	0	563	537	1021	1021	0	0	
14	0	0	0	0	559	536	1021	1021	0	0	
15	0	0	0	0	553	534	1021	1021	0	0	
0	0	0	0	0	547	530	1021	1021	0	0	
1	0	0	0	0	541	526	1021	1021	0	0	
2	0	0	0	0	537	522	1021	1021	0	0	
3	0	0	0	0	535	517	1021	1021	0	0	
4	0	0	0	0	534	513	1021	1021	0	0	
5	0	0	0	0	536	510	1021	1021	0	0	
6	0	0	0	0	538	508	1021	1021	0	0	
7	0	0	0	0	543	507	1021	1021	0	0	
8	0	0	0	0	549	508	1021	1021	0	0	
9	0	0	0	0	556	508	1021	1021	0	0	
10	0	0	0	0	561	510	1021	1021	0	0	
11	0	0	0	0	565	511	1021	1021	0	0	
12	0	0	0	0	568	512	1021	1021	0	0	
13	0	0	0	0	571	514	1021	1021	0	0	
14	0	0	0	0	573	515	1021	1021	0	0	
15	0	0	0	0	574	518	1021	1021	0	0	
0	0	0	0	0	574	521	1021	1021	0	0	
