# OpenSignals Text File Format. Version 1
# {"": {"position": 0, "device": "", "device name": "", "device connection": "", "sampling rate": 1000, "resolution": [4, 1, 1, 1, 1, 10, 10, 10, 10, 6, 6], "firmware version": 1281, "comments": "", "keywords": "", "mode": 0, "sync interval": 2, "date": "", "time": "", "channels": [1, 2, 3, 4, 5, 6], "sensor": ["RAW", "RAW", "RAW", "RAW", "RAW", "RAW"], "label": ["A1", "A2", "A3", "A4", "A5", "A6"], "column": ["nSeq", "I1", "I2", "O1", "O2", "A1", "A2", "A3", "A4", "A5", "A6"], "special": [{}, {}, {}, {}, {}, {}], "digital IO": [0, 0, 1, 1]}}
# EndOfHeader
0	0	0	0	0	576	1021	1021	236	0	0	
1	0	0	0	0	1020	1021	1021	31	0	0	
2	0	0	0	0	1021	1021	1021	0	0	0	
3	0	0	0	0	1021	1021	1021	0	0	0	
4	0	0	0	0	1021	1021	1021	0	0	0	
5	0	0	0	0	1020	463	1021	0	0	0	
6	0	0	0	0	1020	1	1021	0	0	0	
7	0	0	0	0	1021	0	1021	0	0	0	
8	0	0	0	0	1021	0	1021	0	0	0	
9	0	0	0	0	1022	452	1021	0	0	0	
10	0	0	0	0	956	1020	1021	0	0	0	
11	0	0	0	0	258	1021	1021	0	0	0	
12	0	0	0	0	0	1021	1021	0	0	0	
13	0	0	0	0	0	1021	1020	24	0	0	
14	0	0	0	0	0	1021	1021	108	0	0	
15	0	0	0	0	0	1021	1021	201	0	0	
0	0	0	0	0	0	1021	1021	277	0	0	
1	0	0	0	0	0	1021	1021	312	0	0	
2	0	0	0	0	0	1020	1021	289	0	0	
3	0	0	0	0	0	1020	1021	196	0	0	
4	0	0	0	0	568	1021	1021	37	0	0	
5	0	0	0	0	1020	1021	1021	0	0	0	
6	0	0	0	0	1021	1021	1021	0	0	0	
7	0	0	0	0	1021	1021	1021	0	0	0	
8	0	0	0	0	1021	985	1021	0	0	0	
9	0	0	0	0	1020	345	1021	0	0	0	
10	0	0	0	0	1020	1	1021	0	0	0	
11	0	0	0	0	1021	1	1021	0	0	0	
12	0	0	0	0	1021	0	1021	0	0	0	
13	0	0	0	0	1022	284	1021	0	0	0	
14	0	0	0	0	890	1020	1021	0	0	0	
15	0	0	0	0	149	1021	1021	0	0	0	
0	0	0	0	0	0	1021	1021	0	0	0	
1	0	0	0	0	0	1021	1021	0	0	0	
2	0	0	0	0	0	1021	1021	1	0	0	
3	0	0	0	0	0	1021	1021	51	0	0	
4	0	0	0	0	0	1021	1021	98	0	0	
5	0	0	0	0	0	1021	1021	122	0	0	
6	0	0	0	0	0	1020	1021	104	0	0	
7	0	0	0	0	0	1020	1021	35	0	0	
8	0	0	0	0	462	1021	1021	0	0	0	
9	0	0	0	0	1020	1021	1021	0	0	0	
10	0	0	0	0	1021	1021	1021	0	0	0	
11	0	0	0	0	1022	1021	1020	0	0	0	
12	0	0	0	0	1021	929	1021	0	0	0	
13	0	0	0	0	1020	255	1021	0	0	0	
14	0	0	0	0	1020	1	1021	0	0	0	
15	0	0	0	0	1021	0	1021	0	0	0	
0	0	0	0	0	1021	0	1021	0	0	0	
1	0	0	0	0	1022	300	1021	0	0	0	
2	0	0	0	0	848	1020	1021	0	0	0	
3	0	0	0	0	82	1021	1021	0	0	0	
4	0	0	0	0	0	1021	1021	0	0	0	
5	0	0	0	0	0	1021	1021	43	0	0	
6	0	0	0	0	0	1021	1021	145	0	0	
7	0	0	0	0	0	1021	1021	258	0	0	
8	0	0	0	0	0	1021	1021	355	0	0	
9	0	0	0	0	0	1021	1021	412	0	0	
10	0	0	0	0	0	1020	1021	410	0	0	
11	0	0	0	0	0	1020	1021	336	0	0	
12	0	0	0	0	453	1021	1021	195	0	0	
13	0	0	0	0	1020	1021	1021	0	0	0	
14	0	0	0	0	1021	1021	1021	0	0	0	
15	0	0	0	0	1021	1022	1021	0	0	0	
0	0	0	0	0	1021	927	1021	0	0	0	
1	0	0	0	0	1020	255	1021	0	0	0	
2	0	0	0	0	1020	1	1021	0	0	0	
3	0	0	0	0	1021	0	1021	0	0	0	
4	0	0	0	0	1021	0	1021	0	0	0	
5	0	0	0	0	1021	320	1021	0	0	0	
6	0	0	0	0	850	1020	1021	0	0	0	
7	0	0	0	0	84	1021	1021	0	0	0	
8	0	0	0	0	0	1021	1021	23	0	0	
9	0	0	0	0	0	1021	1021	140	0	0	
10	0	0	0	0	0	1021	1021	291	0	0	
11	0	0	0	0	0	1021	1021	450	0	0	
12	0	0	0	0	0	1021	1021	588	0	0	
13	0	0	0	0	0	1021	1021	673	0	0	
14	0	0	0	0	0	1020	1021	688	0	0	
15	0	0	0	0	0	1020	1021	622	0	0	
0	0	0	0	0	463	1021	1021	475	0	0	
1	0	0	0	0	1020	1021	1021	263	0	0	
2	0	0	0	0	1021	1021	1021	14	0	0	
3	0	0	0	0	1021	1021	1021	0	0	0	
4	0	0	0	0	1021	941	1021	0	0	0	
5	0	0	0	0	1020	281	1021	0	0	0	
6	0	0	0	0	1020	1	1021	0	0	0	
7	0	0	0	0	1021	0	1021	0	0	0	
8	0	0	0	0	1021	0	1021	0	0	0	
9	0	0	0	0	1021	366	1021	0	0	0	
10	0	0	0	0	860	1020	1021	0	0	0	
11	0	0	0	0	99	1021	1021	10	0	0	
12	0	0	0	0	0	1021	1021	127	0	0	
13	0	0	0	0	0	1021	1021	289	0	0	
14	0	0	0	0	0	1021	1021	472	0	0	
15	0	0	0	0	0	1021	1021	648	0	0	
0	0	0	0	0	0	1021	1021	785	0	0	
1	0	0	0	0	0	1021	1021	854	0	0	
2	0	0	0	0	0	1020	1021	845	0	0	
3	0	0	0	0	0	1020	1021	749	0	0	
4	0	0	0	0	519	1021	1021	567	0	0	
5	0	0	0	0	1020	1021	1021	317	0	0	
6	0	0	0	0	1021	1021	1021	29	0	0	
7	0	0	0	0	1021	1021	1021	0	0	0	
8	0	0	0	0	1021	849	1021	0	0	0	
9	0	0	0	0	1020	127	1021	0	0	0	
10	0	0	0	0	1020	1	1021	0	0	0	
11	0	0	0	0	1021	0	1021	0	0	0	
12	0	0	0	0	1021	0	1021	0	0	0	
13	0	0	0	0	1021	234	1021	0	0	0	
14	0	0	0	0	842	984	1021	0	0	0	
15	0	0	0	0	71	1021	1021	0	0	0	
0	0	0	0	0	0	1021	1021	110	0	0	
1	0	0	0	0	0	1021	1021	267	0	0	
2	0	0	0	0	0	1021	1021	448	0	0	
3	0	0	0	0	0	1021	1021	622	0	0	
4	0	0	0	0	0	1021	1021	760	0	0	
5	0	0	0	0	0	1021	1021	831	0	0	
6	0	0	0	0	0	1020	1021	824	0	0	
7	0	0	0	0	0	1020	1021	729	0	0	
8	0	0	0	0	392	1021	1021	548	0	0	
9	0	0	0	0	1020	1021	1021	299	0	0	
10	0	0	0	0	1021	1021	1021	13	0	0	
11	0	0	0	0	1021	1021	1021	0	0	0	
12	0	0	0	0	1021	840	1021	0	0	0	
13	0	0	0	0	1020	114	1021	0	0	0	
14	0	0	0	0	1020	1	1021	0	0	0	
15	0	0	0	0	1021	0	1021	0	0	0	
0	0	0	0	0	1022	0	1021	0	0	0	
1	0	0	0	0	1022	232	1021	0	0	0	
2	0	0	0	0	736	981	1021	0	0	0	
3	0	0	0	0	1	1021	1021	0	0	0	
4	0	0	0	0	0	1021	1021	110	0	0	
5	0	0	0	0	0	1021	1021	270	0	0	
6	0	0	0	0	0	1021	1021	452	0	0	
7	0	0	0	0	0	1021	1021	629	0	0	
8	0	0	0	0	0	1021	1021	769	0	0	
9	0	0	0	0	0	1021	1021	844	0	0	
10	0	0	0	0	0	1021	1022	842	0	0	
11	0	0	0	0	0	1020	1021	752	0	0	
12	0	0	0	0	386	1021	1021	576	0	0	
13	0	0	0	0	1020	1021	1021	332	0	0	
14	0	0	0	0	1021	1021	1021	47	0	0	
15	0	0	0	0	1022	1021	1021	0	0	0	
0	0	0	0	0	1021	757	1021	0	0	0	
1	0	0	0	0	1020	1	1021	0	0	0	
2	0	0	0	0	1020	1	1021	0	0	0	
3	0	0	0	0	1021	0	1021	0	0	0	
4	0	0	0	0	1021	0	1020	0	0	0	
5	0	0	0	0	1022	154	1021	0	0	0	
6	0	0	0	0	735	863	1021	0	0	0	
7	0	0	0	0	1	1020	1021	0	0	0	
8	0	0	0	0	0	1021	1021	105	0	0	
9	0	0	0	0	0	1021	1021	260	0	0	
10	0	0	0	0	0	1021	1021	438	0	0	
11	0	0	0	0	0	1021	1021	611	0	0	
12	0	0	0	0	0	1021	1021	747	0	0	
13	0	0	0	0	0	1021	1021	817	0	0	
14	0	0	0	0	0	1020	1021	807	0	0	
15	0	0	0	0	0	1020	1021	709	0	0	
0	0	0	0	0	353	1021	1021	526	0	0	
1	0	0	0	0	1020	1021	1021	275	0	0	
2	0	0	0	0	1021	1021	1021	0	0	0	
3	0	0	0	0	1021	1021	1021	0	0	0	
4	0	0	0	0	1021	638	1021	0	0	0	
5	0	0	0	0	1020	1	1021	0	0	0	
6	0	0	0	0	1020	1	1021	0	0	0	
7	0	0	0	0	1021	0	1021	0	0	0	
8	0	0	0	0	1021	0	1020	0	0	0	
9	0	0	0	0	1021	76	1021	0	0	0	
10	0	0	0	0	659	740	1021	0	0	0	
11	0	0	0	0	0	1020	1021	0	0	0	
12	0	0	0	0	0	1021	1021	60	0	0	
13	0	0	0	0	0	1021	1021	195	0	0	
14	0	0	0	0	0	1021	1021	355	0	0	
15	0	0	0	0	0	1021	1021	514	0	0	
0	0	0	0	0	0	1021	1021	643	0	0	
1	0	0	0	0	0	1021	1021	711	0	0	
2	0	0	0	0	0	1020	1021	700	0	0	
3	0	0	0	0	0	1020	1021	606	0	0	
4	0	0	0	0	308	1021	1021	431	0	0	
5	0	0	0	0	1020	1021	1021	193	0	0	
6	0	0	0	0	1021	1021	1021	0	0	0	
7	0	0	0	0	1021	1022	1021	0	0	0	
8	0	0	0	0	1021	643	1021	0	0	0	
9	0	0	0	0	1020	1	1021	0	0	0	
10	0	0	0	0	1020	1	1021	0	0	0	
11	0	0	0	0	1021	0	1021	0	0	0	
12	0	0	0	0	1021	0	1020	0	0	0	
13	0	0	0	0	1022	121	1021	0	0	0	
14	0	0	0	0	635	815	1021	0	0	0	
15	0	0	0	0	0	1020	1021	0	0	0	
0	0	0	0	0	0	1021	1021	52	0	0	
1	0	0	0	0	0	1021	1021	180	0	0	
2	0	0	0	0	0	1021	1021	332	0	0	
3	0	0	0	0	0	1021	1021	484	0	0	
4	0	0	0	0	0	1021	1021	607	0	0	
5	0	0	0	0	0	1021	1021	671	0	0	
6	0	0	0	0	0	1020	1021	660	0	0	
7	0	0	0	0	0	1020	1021	566	0	0	
8	0	0	0	0	328	1021	1021	391	0	0	
9	0	0	0	0	1020	1021	1021	157	0	0	
10	0	0	0	0	1021	1021	1021	0	0	0	
11	0	0	0	0	1021	1021	1021	0	0	0	
12	0	0	0	0	1021	612	1021	0	0	0	
13	0	0	0	0	1020	1	1021	0	0	0	
14	0	0	0	0	1020	1	1021	0	0	0	
15	0	0	0	0	1021	0	1021	0	0	0	
0	0	0	0	0	1021	0	1021	0	0	0	
1	0	0	0	0	1021	112	1021	0	0	0	
2	0	0	0	0	679	803	1021	0	0	0	
3	0	0	0	0	0	1020	1021	0	0	0	
4	0	0	0	0	0	1021	1021	29	0	0	
5	0	0	0	0	0	1021	1021	143	0	0	
6	0	0	0	0	0	1021	1021	283	0	0	
7	0	0	0	0	0	1021	1021	423	0	0	
8	0	0	0	0	0	1021	1021	536	0	0	
9	0	0	0	0	0	1021	1021	593	0	0	
10	0	0	0	0	0	1020	1021	575	0	0	
11	0	0	0	0	0	1020	1021	475	0	0	
12	0	0	0	0	427	1021	1021	299	0	0	
13	0	0	0	0	1020	1021	1021	69	0	0	
14	0	0	0	0	1021	1021	1021	0	0	0	
15	0	0	0	0	1021	1021	1021	0	0	0	
0	0	0	0	0	1021	442	1021	0	0	0	
1	0	0	0	0	1020	1	1021	0	0	0	
2	0	0	0	0	1020	1	1021	0	0	0	
3	0	0	0	0	1021	0	1021	0	0	0	
4	0	0	0	0	1021	0	1021	0	0	0	
5	0	0	0	0	1021	4	1021	0	0	0	
6	0	0	0	0	779	624	1021	0	0	0	
7	0	0	0	0	1	1020	1021	0	0	0	
8	0	0	0	0	0	1021	1021	6	0	0	
9	0	0	0	0	0	1021	1022	103	0	0	
10	0	0	0	0	0	1021	1021	227	0	0	
11	0	0	0	0	0	1021	1021	355	0	0	
12	0	0	0	0	0	1021	1021	461	0	0	
13	0	0	0	0	0	1020	1021	518	0	0	
14	0	0	0	0	0	1020	1021	506	0	0	
15	0	0	0	0	0	1020	1021	417	0	0	
0	0	0	0	0	564	1021	1021	257	0	0	
1	0	0	0	0	1020	1021	1021	42	0	0	
2	0	0	0	0	1021	1021	1021	0	0	0	
3	0	0	0	0	1021	960	1021	0	0	0	
4	0	0	0	0	1021	281	1021	0	0	0	
5	0	0	0	0	1020	1	1021	0	0	0	
6	0	0	0	0	1020	0	1021	0	0	0	
7	0	0	0	0	1021	0	1021	0	0	0	
8	0	0	0	0	1021	0	1021	0	0	0	
9	0	0	0	0	1021	0	1021	0	0	0	
10	0	0	0	0	863	488	1021	0	0	0	
11	0	0	0	0	105	1020	1021	0	0	0	
12	0	0	0	0	0	1021	1021	0	0	0	
13	0	0	0	0	0	1021	1020	65	0	0	
14	0	0	0	0	0	1021	1021	175	0	0	
15	0	0	0	0	0	1021	1021	292	0	0	
0	0	0	0	0	0	1021	1021	391	0	0	
1	0	0	0	0	0	1021	1021	448	0	0	
2	0	0	0	0	0	1020	1021	443	0	0	
3	0	0	0	0	0	1020	1021	367	0	0	
4	0	0	0	0	635	1021	1021	223	0	0	
5	0	0	0	0	1020	1021	1021	26	0	0	
6	0	0	0	0	1021	1021	1021	0	0	0	
7	0	0	0	0	1021	888	1021	0	0	0	
8	0	0	0	0	1021	163	1021	0	0	0	
9	0	0	0	0	1020	0	1021	0	0	0	
10	0	0	0	0	1021	0	1021	0	0	0	
11	0	0	0	0	1021	0	1021	0	0	0	
12	0	0	0	0	1021	0	1020	0	0	0	
13	0	0	0	0	1022	0	1021	0	0	0	
14	0	0	0	0	791	390	1021	0	0	0	
15	0	0	0	0	1	1020	1021	0	0	0	
0	0	0	0	0	0	1021	1021	6	0	0	
1	0	0	0	0	0	1021	1021	99	0	0	
2	0	0	0	0	0	1021	1021	218	0	0	
3	0	0	0	0	0	1021	1021	341	0	0	
4	0	0	0	0	0	1021	1021	443	0	0	
5	0	0	0	0	0	1020	1021	497	0	0	
6	0	0	0	0	0	1020	1020	487	0	0	
7	0	0	0	0	0	1020	1021	404	0	0	
8	0	0	0	0	496	1021	1021	253	0	0	
9	0	0	0	0	1020	1021	1021	50	0	0	
10	0	0	0	0	1021	1021	1021	0	0	0	
11	0	0	0	0	1021	820	1020	0	0	0	
12	0	0	0	0	1021	57	1021	0	0	0	
13	0	0	0	0	1020	0	1021	0	0	0	
14	0	0	0	0	1021	0	1021	0	0	0	
15	0	0	0	0	1021	0	1021	0	0	0	
0	0	0	0	0	1021	0	1021	0	0	0	
1	0	0	0	0	1022	0	1021	0	0	0	
2	0	0	0	0	720	323	1021	0	0	0	
3	0	0	0	0	1	1020	1021	0	0	0	
4	0	0	0	0	0	1021	1021	22	0	0	
5	0	0	0	0	0	1021	1021	126	0	0	
6	0	0	0	0	0	1021	1021	258	0	0	
7	0	0	0	0	0	1021	1021	389	0	0	
8	0	0	0	0	0	1021	1021	495	0	0	
9	0	0	0	0	0	1020	1021	550	0	0	
10	0	0	0	0	0	1020	1020	535	0	0	
11	0	0	0	0	0	1020	1021	444	0	0	
12	0	0	0	0	484	1021	1021	281	0	0	
13	0	0	0	0	1020	1021	1021	65	0	0	
14	0	0	0	0	1021	1021	1021	0	0	0	
15	0	0	0	0	1021	746	1021	0	0	0	
0	0	0	0	0	1021	1	1021	0	0	0	
1	0	0	0	0	1020	0	1021	0	0	0	
2	0	0	0	0	1020	0	1021	0	0	0	
3	0	0	0	0	1021	0	1021	0	0	0	
4	0	0	0	0	1021	0	1021	0	0	0	
5	0	0	0	0	1021	0	1021	0	0	0	
6	0	0	0	0	729	225	1021	0	0	0	
7	0	0	0	0	0	998	1021	0	0	0	
8	0	0	0	0	0	1021	1021	9	0	0	
9	0	0	0	0	0	1021	1021	103	0	0	
10	0	0	0	0	0	1021	1021	226	0	0	
11	0	0	0	0	0	1021	1021	351	0	0	
12	0	0	0	0	0	1021	1021	454	0	0	
13	0	0	0	0	0	1020	1021	508	0	0	
14	0	0	0	0	0	1020	1021	495	0	0	
15	0	0	0	0	0	1021	1021	408	0	0	
0	0	0	0	0	533	1021	1021	251	0	0	
1	0	0	0	0	1020	1021	1021	42	0	0	
2	0	0	0	0	1021	1021	1021	0	0	0	
3	0	0	0	0	1021	635	1021	0	0	0	
4	0	0	0	0	1021	1	1021	0	0	0	
5	0	0	0	0	1020	0	1021	0	0	0	
6	0	0	0	0	1020	0	1021	0	0	0	
7	0	0	0	0	1021	1	1021	0	0	0	
8	0	0	0	0	1021	0	1021	0	0	0	
9	0	0	0	0	1021	0	1021	0	0	0	
10	0	0	0	0	726	148	1021	0	0	0	
11	0	0	0	0	1	881	1021	0	0	0	
12	0	0	0	0	0	1020	1021	16	0	0	
13	0	0	0	0	0	1021	1021	117	0	0	
14	0	0	0	0	0	1021	1021	246	0	0	
15	0	0	0	0	0	1021	1021	376	0	0	
0	0	0	0	0	0	1021	1021	482	0	0	
1	0	0	0	0	0	1020	1021	539	0	0	
2	0	0	0	0	0	1020	1021	527	0	0	
3	0	0	0	0	0	1021	1021	440	0	0	
4	0	0	0	0	505	1021	1021	281	0	0	
5	0	0	0	0	1020	1021	1021	70	0	0	
6	0	0	0	0	1021	1021	1021	0	0	0	
7	0	0	0	0	1021	582	1021	0	0	0	
8	0	0	0	0	1021	0	1021	0	0	0	
9	0	0	0	0	1020	0	1021	0	0	0	
10	0	0	0	0	1020	0	1021	0	0	0	
11	0	0	0	0	1021	0	1021	0	0	0	
12	0	0	0	0	1021	0	1021	0	0	0	
13	0	0	0	0	1021	0	1021	0	0	0	
14	0	0	0	0	684	142	1021	0	0	0	
15	0	0	0	0	1	872	1021	0	0	0	
0	0	0	0	0	0	1020	1021	35	0	0	
1	0	0	0	0	0	1021	1022	148	0	0	
2	0	0	0	0	0	1021	1021	283	0	0	
3	0	0	0	0	0	1021	1021	417	0	0	
4	0	0	0	0	0	1021	1021	521	0	0	
5	0	0	0	0	0	1020	1021	570	0	0	
6	0	0	0	0	0	1020	1021	547	0	0	
7	0	0	0	0	0	1021	1021	445	0	0	
8	0	0	0	0	494	1021	1021	272	0	0	
9	0	0	0	0	1020	1021	1021	49	0	0	
10	0	0	0	0	1021	1021	1021	0	0	0	
11	0	0	0	0	1021	575	1020	0	0	0	
12	0	0	0	0	1021	1	1021	0	0	0	
13	0	0	0	0	1020	0	1021	0	0	0	
14	0	0	0	0	1020	0	1021	0	0	0	
15	0	0	0	0	1021	0	1021	0	0	0	
0	0	0	0	0	1021	0	1021	0	0	0	
1	0	0	0	0	1021	0	1021	0	0	0	
2	0	0	0	0	694	165	1021	0	0	0	
3	0	0	0	0	0	909	1021	0	0	0	
4	0	0	0	0	0	1020	1021	13	0	0	
5	0	0	0	0	0	1021	1021	110	0	0	
6	0	0	0	0	0	1021	1021	233	0	0	
7	0	0	0	0	0	1021	1021	357	0	0	
8	0	0	0	0	0	1021	1021	455	0	0	
9	0	0	0	0	0	1020	1021	502	0	0	
10	0	0	0	0	0	1020	1021	481	0	0	
11	0	0	0	0	0	1020	1021	385	0	0	
12	0	0	0	0	562	1021	1021	222	0	0	
13	0	0	0	0	1020	1021	1021	9	0	0	
14	0	0	0	0	1021	1021	1021	0	0	0	
15	0	0	0	0	1021	590	1021	0	0	0	
0	0	0	0	0	1021	1	1021	0	0	0	
1	0	0	0	0	1020	0	1021	0	0	0	
2	0	0	0	0	1020	0	1021	0	0	0	
3	0	0	0	0	1021	0	1021	0	0	0	
4	0	0	0	0	1021	0	1021	0	0	0	
5	0	0	0	0	1021	0	1021	0	0	0	
6	0	0	0	0	725	208	1021	0	0	0	
7	0	0	0	0	0	974	1021	0	0	0	
8	0	0	0	0	0	1020	1021	21	0	0	
9	0	0	0	0	0	1021	1021	125	0	0	
10	0	0	0	0	0	1021	1021	253	0	0	
11	0	0	0	0	0	1021	1021	383	0	0	
12	0	0	0	0	0	1021	1021	486	0	0	
13	0	0	0	0	0	1020	1021	540	0	0	
14	0	0	0	0	0	1020	1020	525	0	0	
15	0	0	0	0	12	1021	1021	435	0	0	
0	0	0	0	0	673	1021	1021	274	0	0	
1	0	0	0	0	1020	1021	1021	62	0	0	
2	0	0	0	0	1021	1021	1021	0	0	0	
3	0	0	0	0	1021	627	1021	0	0	0	
4	0	0	0	0	1021	1	1021	0	0	0	
5	0	0	0	0	1020	0	1021	0	0	0	
6	0	0	0	0	1020	0	1021	0	0	0	
7	0	0	0	0	1021	0	1021	0	0	0	
8	0	0	0	0	1021	0	1021	0	0	0	
9	0	0	0	0	1022	0	1021	0	0	0	
10	0	0	0	0	837	207	1021	0	0	0	
11	0	0	0	0	64	972	1021	0	0	0	
12	0	0	0	0	0	1020	1021	26	0	0	
13	0	0	0	0	0	1021	1020	133	0	0	
14	0	0	0	0	0	1021	1021	265	0	0	
15	0	0	0	0	0	1021	1021	398	0	0	
0	0	0	0	0	0	1021	1021	505	0	0	
1	0	0	0	0	0	1020	1021	559	0	0	
2	0	0	0	0	0	1020	1021	543	0	0	
3	0	0	0	0	129	1021	1021	452	0	0	
4	0	0	0	0	873	1021	1021	290	0	0	
5	0	0	0	0	1021	1021	1021	76	0	0	
6	0	0	0	0	1021	1021	1021	0	0	0	
7	0	0	0	0	1021	594	1021	0	0	0	
8	0	0	0	0	1021	1	1021	0	0	0	
9	0	0	0	0	1020	0	1021	0	0	0	
10	0	0	0	0	1020	0	1021	0	0	0	
11	0	0	0	0	1021	0	1021	0	0	0	
12	0	0	0	0	1021	0	1020	0	0	0	
13	0	0	0	0	1021	0	1021	0	0	0	
14	0	0	0	0	853	263	1021	0	0	0	
15	0	0	0	0	88	1020	1021	0	0	0	
0	0	0	0	0	0	1021	1021	49	0	0	
1	0	0	0	0	0	1021	1021	170	0	0	
2	0	0	0	0	0	1021	1021	312	0	0	
3	0	0	0	0	0	1021	1021	452	0	0	
4	0	0	0	0	0	1021	1021	561	0	0	
5	0	0	0	0	0	1020	1021	614	0	0	
6	0	0	0	0	0	1020	1021	594	0	0	
7	0	0	0	0	62	1021	1021	496	0	0	
8	0	0	0	0	761	1021	1021	325	0	0	
9	0	0	0	0	1020	1021	1021	102	0	0	
10	0	0	0	0	1021	1021	1021	0	0	0	
11	0	0	0	0	1021	642	1021	0	0	0	
12	0	0	0	0	1020	1	1021	0	0	0	
13	0	0	0	0	1020	0	1021	0	0	0	
14	0	0	0	0	1021	0	1021	0	0	0	
15	0	0	0	0	1021	0	1021	0	0	0	
0	0	0	0	0	1021	0	1021	0	0	0	
1	0	0	0	0	1021	0	1021	0	0	0	
2	0	0	0	0	563	105	1021	0	0	0	
3	0	0	0	0	0	812	1021	0	0	0	
4	0	0	0	0	0	1020	1021	56	0	0	
5	0	0	0	0	0	1021	1021	180	0	0	
6	0	0	0	0	0	1021	1021	327	0	0	
7	0	0	0	0	0	1021	1021	471	0	0	
8	0	0	0	0	0	1021	1021	585	0	0	
9	0	0	0	0	0	1020	1021	643	0	0	
10	0	0	0	0	0	1020	1021	627	0	0	
11	0	0	0	0	0	1021	1021	531	0	0	
12	0	0	0	0	524	1021	1021	362	0	0	
13	0	0	0	0	1020	1021	1021	138	0	0	
14	0	0	0	0	1021	1021	1021	0	0	0	
15	0	0	0	0	1022	486	1021	0	0	0	
0	0	0	0	0	1021	0	1021	0	0	0	
1	0	0	0	0	1020	0	1021	0	0	0	
2	0	0	0	0	1020	0	1021	0	0	0	
3	0	0	0	0	1021	0	1021	0	0	0	
4	0	0	0	0	1021	0	1021	0	0	0	
5	0	0	0	0	1021	0	1021	0	0	0	
6	0	0	0	0	755	157	1021	0	0	0	
7	0	0	0	0	1	897	1021	0	0	0	
8	0	0	0	0	0	1020	1021	79	0	0	
9	0	0	0	0	0	1020	1021	216	0	0	
10	0	0	0	0	0	1021	1021	373	0	0	
11	0	0	0	0	0	1021	1021	524	0	0	
12	0	0	0	0	0	1021	1021	641	0	0	
13	0	0	0	0	0	1020	1021	697	0	0	
14	0	0	0	0	0	1020	1020	677	0	0	
15	0	0	0	0	228	1021	1021	577	0	0	
0	0	0	0	0	1020	1021	1021	402	0	0	
1	0	0	0	0	1021	1021	1021	171	0	0	
2	0	0	0	0	1021	1021	1021	0	0	0	
3	0	0	0	0	1021	575	1021	0	0	0	
4	0	0	0	0	1021	1	1021	0	0	0	
5	0	0	0	0	1020	0	1021	0	0	0	
6	0	0	0	0	1020	0	1021	0	0	0	
7	0	0	0	0	1021	0	1021	0	0	0	
8	0	0	0	0	1021	0	1020	0	0	0	
9	0	0	0	0	1021	0	1021	0	0	0	
10	0	0	0	0	982	332	1021	0	0	0	
11	0	0	0	0	303	1020	1021	1	0	0	
12	0	0	0	0	0	1020	1021	106	0	0	
13	0	0	0	0	0	1021	1021	253	0	0	
14	0	0	0	0	0	1021	1021	419	0	0	
15	0	0	0	0	0	1021	1021	576	0	0	
0	0	0	0	0	0	1021	1021	696	0	0	
1	0	0	0	0	0	1020	1021	751	0	0	
2	0	0	0	0	0	1020	1021	728	0	0	
3	0	0	0	0	376	1021	1021	623	0	0	
4	0	0	0	0	1020	1021	1021	440	0	0	
5	0	0	0	0	1021	1021	1021	198	0	0	
6	0	0	0	0	1021	1021	1021	0	0	0	
7	0	0	0	0	1021	657	1020	0	0	0	
8	0	0	0	0	1021	1	1021	0	0	0	
9	0	0	0	0	1020	0	1021	0	0	0	
10	0	0	0	0	1020	0	1021	0	0	0	
11	0	0	0	0	1021	0	1021	0	0	0	
12	0	0	0	0	1021	0	1021	0	0	0	
13	0	0	0	0	1021	0	1021	0	0	0	
14	0	0	0	0	950	371	1021	0	0	0	
15	0	0	0	0	248	1020	1021	0	0	0	
0	0	0	0	0	0	1021	1021	90	0	0	
1	0	0	0	0	0	1021	1021	231	0	0	
2	0	0	0	0	0	1021	1021	395	0	0	
3	0	0	0	0	0	1021	1021	552	0	0	
4	0	0	0	0	0	1021	1021	675	0	0	
5	0	0	0	0	0	1020	1021	736	0	0	
6	0	0	0	0	0	1020	1021	721	0	0	
7	0	0	0	0	198	1020	1021	625	0	0	
8	0	0	0	0	981	1021	1021	453	0	0	
9	0	0	0	0	1021	1021	1021	221	0	0	
10	0	0	0	0	1021	1021	1021	0	0	0	
11	0	0	0	0	1022	665	1020	0	0	0	
12	0	0	0	0	1021	1	1021	0	0	0	
13	0	0	0	0	1020	0	1021	0	0	0	
14	0	0	0	0	1021	0	1021	0	0	0	
15	0	0	0	0	1021	0	1021	0	0	0	
0	0	0	0	0	1021	0	1021	0	0	0	
1	0	0	0	0	1022	0	1021	0	0	0	
2	0	0	0	0	772	369	1021	0	0	0	
3	0	0	0	0	1	1020	1021	8	0	0	
4	0	0	0	0	0	1021	1021	119	0	0	
5	0	0	0	0	0	1021	1021	272	0	0	
6	0	0	0	0	0	1021	1021	442	0	0	
7	0	0	0	0	0	1021	1021	602	0	0	
8	0	0	0	0	0	1021	1021	723	0	0	
9	0	0	0	0	0	1020	1021	775	0	0	
10	0	0	0	0	0	1020	1020	751	0	0	
11	0	0	0	0	0	1020	1021	643	0	0	
12	0	0	0	0	627	1021	1021	458	0	0	
13	0	0	0	0	1020	1021	1021	214	0	0	
14	0	0	0	0	1021	1021	1021	0	0	0	
15	0	0	0	0	1021	601	1021	0	0	0	
0	0	0	0	0	1021	0	1021	0	0	0	
1	0	0	0	0	1020	0	1021	0	0	0	
2	0	0	0	0	1021	0	1021	0	0	0	
3	0	0	0	0	1021	0	1021	0	0	0	
4	0	0	0	0	1021	0	1021	0	0	0	
5	0	0	0	0	1021	0	1021	0	0	0	
6	0	0	0	0	541	292	1021	0	0	0	
7	0	0	0	0	0	1020	1021	0	0	0	
8	0	0	0	0	0	1021	1021	102	0	0	
9	0	0	0	0	0	1021	1021	248	0	0	
10	0	0	0	0	0	1021	1021	413	0	0	
11	0	0	0	0	0	1021	1021	569	0	0	
12	0	0	0	0	0	1021	1021	689	0	0	
13	0	0	0	0	0	1020	1021	746	0	0	
14	0	0	0	0	0	1020	1021	726	0	0	
15	0	0	0	0	0	1021	1021	624	0	0	
0	0	0	0	0	499	1021	1021	445	0	0	
1	0	0	0	0	1020	1021	1021	207	0	0	
2	0	0	0	0	1021	1021	1021	0	0	0	
3	0	0	0	0	1021	524	1021	0	0	0	
4	0	0	0	0	1020	0	1021	0	0	0	
5	0	0	0	0	1020	0	1021	0	0	0	
6	0	0	0	0	1020	0	1021	0	0	0	
7	0	0	0	0	1021	0	1021	0	0	0	
8	0	0	0	0	1021	0	1021	0	0	0	
9	0	0	0	0	1022	0	1021	0	0	0	
10	0	0	0	0	470	251	1021	0	0	0	
11	0	0	0	0	0	1020	1021	10	0	0	
12	0	0	0	0	0	1021	1021	120	0	0	
13	0	0	0	0	0	1021	1021	271	0	0	
14	0	0	0	0	0	1021	1021	438	0	0	
15	0	0	0	0	0	1021	1021	593	0	0	
0	0	0	0	0	0	1021	1021	710	0	0	
1	0	0	0	0	0	1020	1021	758	0	0	
2	0	0	0	0	0	1020	1021	728	0	0	
3	0	0	0	0	0	1021	1021	615	0	0	
4	0	0	0	0	449	1021	1021	423	0	0	
5	0	0	0	0	1020	1021	1021	175	0	0	
6	0	0	0	0	1021	1021	1021	0	0	0	
7	0	0	0	0	1021	465	1021	0	0	0	
8	0	0	0	0	1021	0	1021	0	0	0	
9	0	0	0	0	1020	0	1021	0	0	0	
10	0	0	0	0	1021	0	1021	0	0	0	
11	0	0	0	0	1021	0	1021	0	0	0	
12	0	0	0	0	1022	0	1021	0	0	0	
13	0	0	0	0	1021	0	1021	0	0	0	
14	0	0	0	0	418	162	1021	0	0	0	
15	0	0	0	0	0	905	1021	0	0	0	
0	0	0	0	0	0	1020	1021	68	0	0	
1	0	0	0	0	0	1020	1021	198	0	0	
2	0	0	0	0	0	1021	1021	347	0	0	
3	0	0	0	0	0	1021	1021	491	0	0	
4	0	0	0	0	0	1021	1021	600	0	0	
5	0	0	0	0	0	1020	1021	650	0	0	
6	0	0	0	0	0	1020	1021	623	0	0	
7	0	0	0	0	0	1021	1021	517	0	0	
8	0	0	0	0	470	1021	1021	337	0	0	
9	0	0	0	0	1020	1021	1021	106	0	0	
10	0	0	0	0	1021	1008	1021	0	0	0	
11	0	0	0	0	1021	363	1021	0	0	0	
12	0	0	0	0	1020	0	1021	0	0	0	
13	0	0	0	0	1020	0	1021	0	0	0	
14	0	0	0	0	1021	0	1021	0	0	0	
15	0	0	0	0	1021	0	1021	0	0	0	
0	0	0	0	0	1021	0	1020	0	0	0	
1	0	0	0	0	1021	0	1021	0	0	0	
2	0	0	0	0	420	110	1021	0	0	0	
3	0	0	0	0	0	822	1021	0	0	0	
4	0	0	0	0	0	1020	1021	13	0	0	
5	0	0	0	0	0	1021	1021	103	0	0	
6	0	0	0	0	0	1021	1021	216	0	0	
7	0	0	0	0	0	1021	1021	325	0	0	
8	0	0	0	0	0	1021	1021	408	0	0	
9	0	0	0	0	0	1020	1021	443	0	0	
10	0	0	0	0	0	1020	1021	413	0	0	
11	0	0	0	0	0	1021	1021	313	0	0	
12	0	0	0	0	454	1021	1021	151	0	0	
13	0	0	0	0	1020	1021	1021	0	0	0	
14	0	0	0	0	1021	942	1021	0	0	0	
15	0	0	0	0	1021	251	1020	0	0	0	
0	0	0	0	0	1020	0	1021	0	0	0	
1	0	0	0	0	1020	0	1021	0	0	0	
2	0	0	0	0	1021	0	1021	0	0	0	
3	0	0	0	0	1021	0	1021	0	0	0	
4	0	0	0	0	1021	0	1021	0	0	0	
5	0	0	0	0	1021	0	1021	0	0	0	
6	0	0	0	0	374	33	1021	0	0	0	
7	0	0	0	0	0	694	1021	0	0	0	
8	0	0	0	0	0	1020	1021	17	0	0	
9	0	0	0	0	0	1021	1021	113	0	0	
10	0	0	0	0	0	1021	1021	235	0	0	
11	0	0	0	0	0	1021	1021	356	0	0	
12	0	0	0	0	0	1021	1021	454	0	0	
13	0	0	0	0	0	1020	1021	503	0	0	
14	0	0	0	0	0	1020	1021	488	0	0	
15	0	0	0	0	0	1021	1021	403	0	0	
0	0	0	0	0	480	1021	1021	253	0	0	
1	0	0	0	0	1020	1021	1021	56	0	0	
2	0	0	0	0	1021	878	1021	0	0	0	
3	0	0	0	0	1021	147	1021	0	0	0	
4	0	0	0	0	1021	0	1021	0	0	0	
5	0	0	0	0	1020	0	1021	0	0	0	
6	0	0	0	0	1021	0	1021	0	0	0	
7	0	0	0	0	1021	0	1021	0	0	0	
8	0	0	0	0	1021	0	1021	0	0	0	
9	0	0	0	0	966	0	1021	0	0	0	
10	0	0	0	0	279	0	1021	0	0	0	
11	0	0	0	0	0	336	1021	23	0	0	
12	0	0	0	0	0	1020	1021	140	0	0	
13	0	0	0	0	0	1020	1021	294	0	0	
14	0	0	0	0	0	1021	1021	461	0	0	
15	0	0	0	0	0	1021	1021	615	0	0	
0	0	0	0	0	0	1021	1021	727	0	0	
1	0	0	0	0	0	1020	1021	771	0	0	
2	0	0	0	0	0	1021	1021	740	0	0	
3	0	0	0	0	0	1021	1021	627	0	0	
4	0	0	0	0	490	1021	1021	440	0	0	
5	0	0	0	0	1020	1021	1021	198	0	0	
6	0	0	0	0	1021	723	1021	0	0	0	
7	0	0	0	0	1021	1	1021	0	0	0	
8	0	0	0	0	1021	0	1021	0	0	0	
9	0	0	0	0	1020	0	1021	0	0	0	
10	0	0	0	0	1021	0	1021	0	0	0	
11	0	0	0	0	1021	0	1021	0	0	0	
12	0	0	0	0	1021	0	1021	0	0	0	
13	0	0	0	0	987	0	1021	0	0	0	
14	0	0	0	0	313	0	1021	0	0	0	
15	0	0	0	0	0	361	1021	49	0	0	
0	0	0	0	0	0	1020	1021	187	0	0	
1	0	0	0	0	0	1021	1021	363	0	0	
2	0	0	0	0	0	1021	1021	551	0	0	
3	0	0	0	0	0	1021	1021	724	0	0	
4	0	0	0	0	0	1021	1021	847	0	0	
5	0	0	0	0	0	1020	1021	902	0	0	
6	0	0	0	0	0	1020	1021	876	0	0	
7	0	0	0	0	0	1021	1021	764	0	0	
8	0	0	0	0	451	1021	1021	570	0	0	
9	0	0	0	0	1020	1021	1021	313	0	0	
10	0	0	0	0	1021	765	1021	27	0	0	
11	0	0	0	0	1021	1	1021	0	0	0	
12	0	0	0	0	1020	0	1021	0	0	0	
13	0	0	0	0	1020	0	1021	0	0	0	
14	0	0	0	0	1021	0	1021	0	0	0	
15	0	0	0	0	1021	0	1021	0	0	0	
0	0	0	0	0	1021	0	1021	0	0	0	
1	0	0	0	0	858	0	1021	0	0	0	
2	0	0	0	0	99	0	1021	0	0	0	
3	0	0	0	0	0	341	1021	49	0	0	
4	0	0	0	0	0	1020	1021	189	0	0	
5	0	0	0	0	0	1021	1021	366	0	0	
6	0	0	0	0	0	1021	1021	556	0	0	
7	0	0	0	0	0	1021	1021	729	0	0	
8	0	0	0	0	0	1020	1021	852	0	0	
9	0	0	0	0	0	1020	1021	906	0	0	
10	0	0	0	0	0	1021	1021	880	0	0	
11	0	0	0	0	0	1020	1021	766	0	0	
12	0	0	0	0	271	1021	1021	572	0	0	
13	0	0	0	0	1020	1021	1021	314	0	0	
14	0	0	0	0	1021	706	1021	27	0	0	
15	0	0	0	0	1021	1	1020	0	0	0	
0	0	0	0	0	1020	0	1021	0	0	0	
1	0	0	0	0	1020	0	1021	0	0	0	
2	0	0	0	0	1021	0	1021	0	0	0	
3	0	0	0	0	1021	0	1021	0	0	0	
4	0	0	0	0	1021	0	1021	0	0	0	
5	0	0	0	0	686	0	1021	0	0	0	
6	0	0	0	0	0	0	1021	0	0	0	
7	0	0	0	0	0	231	1021	48	0	0	
8	0	0	0	0	0	1014	1021	186	0	0	
9	0	0	0	0	0	1021	1021	360	0	0	
10	0	0	0	0	0	1021	1021	547	0	0	
11	0	0	0	0	0	1021	1021	715	0	0	
12	0	0	0	0	0	1020	1021	832	0	0	
13	0	0	0	0	0	1020	1021	879	0	0	
14	0	0	0	0	0	1021	1021	845	0	0	
15	0	0	0	0	0	1021	1021	724	0	0	
0	0	0	0	0	171	1021	1021	522	0	0	
1	0	0	0	0	942	1021	1021	259	0	0	
2	0	0	0	0	1021	546	1021	0	0	0	
3	0	0	0	0	1021	0	1021	0	0	0	
4	0	0	0	0	1020	0	1021	0	0	0	
5	0	0	0	0	1020	0	1021	0	0	0	
6	0	0	0	0	1021	0	1021	0	0	0	
7	0	0	0	0	1021	0	1021	0	0	0	
8	0	0	0	0	1021	0	1021	0	0	0	
9	0	0	0	0	555	0	1021	0	0	0	
10	0	0	0	0	0	0	1021	0	0	0	
11	0	0	0	0	0	92	1021	21	0	0	
12	0	0	0	0	0	799	1021	141	0	0	
13	0	0	0	0	0	1020	1021	300	0	0	
14	0	0	0	0	0	1021	1021	475	0	0	
15	0	0	0	0	0	1021	1021	636	0	0	
0	0	0	0	0	0	1021	1021	755	0	0	
1	0	0	0	0	0	1020	1021	805	0	0	
2	0	0	0	0	0	1021	1021	777	0	0	
3	0	0	0	0	0	1021	1021	668	0	0	
4	0	0	0	0	108	1021	1021	481	0	0	
5	0	0	0	0	840	1021	1021	238	0	0	
6	0	0	0	0	1020	478	1021	1	0	0	
7	0	0	0	0	1021	0	1021	0	0	0	
8	0	0	0	0	1020	0	1021	0	0	0	
9	0	0	0	0	1020	0	1021	0	0	0	
10	0	0	0	0	1021	0	1021	0	0	0	
11	0	0	0	0	1021	0	1021	0	0	0	
12	0	0	0	0	1021	0	1021	0	0	0	
13	0	0	0	0	583	0	1021	0	0	0	
14	0	0	0	0	0	0	1021	0	0	0	
15	0	0	0	0	0	133	1021	41	0	0	
0	0	0	0	0	0	865	1021	173	0	0	
1	0	0	0	0	0	1021	1021	341	0	0	
2	0	0	0	0	0	1021	1021	523	0	0	
3	0	0	0	0	0	1021	1021	689	0	0	
4	0	0	0	0	0	1020	1021	808	0	0	
5	0	0	0	0	0	1020	1021	860	0	0	
6	0	0	0	0	0	1021	1021	831	0	0	
7	0	0	0	0	0	1021	1021	718	0	0	
8	0	0	0	0	299	1021	1021	527	0	0	
9	0	0	0	0	1020	1021	1021	276	0	0	
10	0	0	0	0	1021	567	1021	1	0	0	
11	0	0	0	0	1021	0	1021	0	0	0	
12	0	0	0	0	1021	0	1020	0	0	0	
13	0	0	0	0	1020	0	1021	0	0	0	
14	0	0	0	0	1021	0	1021	0	0	0	
15	0	0	0	0	1021	0	1021	0	0	0	
0	0	0	0	0	1021	0	1021	0	0	0	
1	0	0	0	0	916	0	1021	0	0	0	
2	0	0	0	0	194	0	1021	0	0	0	
3	0	0	0	0	0	333	1021	69	0	0	
4	0	0	0	0	0	1020	1021	217	0	0	
5	0	0	0	0	0	1021	1020	401	0	0	
6	0	0	0	0	0	1021	1021	595	0	0	
7	0	0	0	0	0	1021	1021	770	0	0	
8	0	0	0	0	0	1021	1021	895	0	0	
9	0	0	0	0	0	1020	1021	949	0	0	
10	0	0	0	0	0	1020	1021	923	0	0	
11	0	0	0	0	79	1021	1021	810	0	0	
12	0	0	0	0	792	1021	1021	615	0	0	
13	0	0	0	0	1021	1022	1021	356	0	0	
14	0	0	0	0	1021	808	1021	64	0	0	
15	0	0	0	0	1021	38	1021	0	0	0	
0	0	0	0	0	1021	0	1021	0	0	0	
1	0	0	0	0	1020	0	1021	0	0	0	
2	0	0	0	0	1021	0	1021	0	0	0	
3	0	0	0	0	1021	0	1021	0	0	0	
4	0	0	0	0	1021	0	1021	0	0	0	
5	0	0	0	0	1021	0	1021	0	0	0	
6	0	0	0	0	738	81	1021	0	0	0	
7	0	0	0	0	1	776	1021	73	0	0	
8	0	0	0	0	0	1020	1021	224	0	0	
9	0	0	0	0	0	1021	1021	409	0	0	
10	0	0	0	0	0	1021	1021	603	0	0	
11	0	0	0	0	0	1021	1021	775	0	0	
12	0	0	0	0	0	1021	1021	893	0	0	
13	0	0	0	0	0	1020	1021	940	0	0	
14	0	0	0	0	12	1020	1021	905	0	0	
15	0	0	0	0	671	1021	1021	783	0	0	
0	0	0	0	0	1020	1021	1021	579	0	0	
1	0	0	0	0	1021	1021	1021	312	0	0	
2	0	0	0	0	1021	1021	1021	17	0	0	
3	0	0	0	0	1021	428	1021	0	0	0	
4	0	0	0	0	1021	0	1021	0	0	0	
5	0	0	0	0	1020	0	1021	0	0	0	
6	0	0	0	0	1020	0	1021	0	0	0	
7	0	0	0	0	1021	0	1021	0	0	0	
8	0	0	0	0	1021	0	1021	0	0	0	
9	0	0	0	0	1021	0	1021	0	0	0	
10	0	0	0	0	1021	420	1021	0	0	0	
11	0	0	0	0	553	1020	1021	78	0	0	
12	0	0	0	0	0	1021	1021	233	0	0	
13	0	0	0	0	0	1021	1021	422	0	0	
14	0	0	0	0	1	1021	1021	621	0	0	
15	0	0	0	0	0	1021	1021	798	0	0	
0	0	0	0	0	0	1021	1021	922	0	0	
1	0	0	0	0	0	1020	1021	976	0	0	
2	0	0	0	0	528	1020	1021	950	0	0	
3	0	0	0	0	1020	1021	1021	836	0	0	
4	0	0	0	0	1021	1021	1021	640	0	0	
5	0	0	0	0	1021	1021	1021	380	0	0	
6	0	0	0	0	1021	1021	1021	86	0	0	
7	0	0	0	0	1021	682	1021	0	0	0	
8	0	0	0	0	1021	1	1021	0	0	0	
9	0	0	0	0	1020	0	1021	0	0	0	
10	0	0	0	0	1020	0	1021	0	0	0	
11	0	0	0	0	1021	0	1021	0	0	0	
12	0	0	0	0	1021	0	1020	0	0	0	
13	0	0	0	0	1022	36	1021	0	0	0	
14	0	0	0	0	1021	685	1021	0	0	0	
15	0	0	0	0	841	1020	1021	63	0	0	
0	0	0	0	0	69	1021	1021	207	0	0	
1	0	0	0	0	0	1021	1021	388	0	0	
2	0	0	0	0	0	1021	1021	580	0	0	
3	0	0	0	0	0	1021	1021	755	0	0	
4	0	0	0	0	0	1021	1021	880	0	0	
5	0	0	0	0	23	1020	1021	936	0	0	
6	0	0	0	0	674	1020	1021	912	0	0	
7	0	0	0	0	1021	1021	1021	803	0	0	
8	0	0	0	0	1021	1021	1021	614	0	0	
9	0	0	0	0	1021	1021	1021	364	0	0	
10	0	0	0	0	1021	1021	1021	82	0	0	
11	0	0	0	0	1021	773	1020	0	0	0	
12	0	0	0	0	1022	1	1020	0	0	0	
13	0	0	0	0	1020	1	1021	0	0	0	
14	0	0	0	0	1020	1	1021	0	0	0	
15	0	0	0	0	1021	0	1021	0	0	0	
0	0	0	0	0	1021	0	1020	0	0	0	
1	0	0	0	0	1021	87	1021	0	0	0	
2	0	0	0	0	1021	772	1021	23	0	0	
3	0	0	0	0	723	1021	1021	154	0	0	
4	0	0	0	0	1	1021	1021	339	0	0	
5	0	0	0	0	0	1021	1021	553	0	0	
6	0	0	0	0	0	1021	1021	768	0	0	
7	0	0	0	0	0	1021	1021	947	0	0	
8	0	0	0	0	0	1021	1021	1021	0	0	
9	0	0	0	0	0	1020	1021	1021	0	0	
10	0	0	0	0	431	1020	1021	1015	0	0	
11	0	0	0	0	1020	1021	1021	897	0	0	
12	0	0	0	0	1021	1021	1021	700	0	0	
13	0	0	0	0	1021	1021	1021	439	0	0	
14	0	0	0	0	1021	1021	1021	143	0	0	
15	0	0	0	0	1021	762	1021	0	0	0	
0	0	0	0	0	1021	1	1021	0	0	0	
1	0	0	0	0	1020	0	1021	0	0	0	
2	0	0	0	0	1020	0	1021	0	0	0	
3	0	0	0	0	1021	0	1021	0	0	0	
4	0	0	0	0	1021	0	1021	0	0	0	
5	0	0	0	0	1021	27	1021	0	0	0	
6	0	0	0	0	1021	668	1021	32	0	0	
7	0	0	0	0	659	1020	1021	172	0	0	
8	0	0	0	0	0	1021	1021	364	0	0	
9	0	0	0	0	0	1021	1021	586	0	0	
10	0	0	0	0	0	1021	1021	807	0	0	
11	0	0	0	0	0	1021	1021	991	0	0	
12	0	0	0	0	0	1021	1021	1021	0	0	
13	0	0	0	0	0	1020	1021	1021	0	0	
14	0	0	0	0	367	1020	1021	1021	0	0	
15	0	0	0	0	1020	1021	1021	906	0	0	
0	0	0	0	0	1021	1021	1021	707	0	0	
1	0	0	0	0	1021	1021	1021	440	0	0	
2	0	0	0	0	1021	1021	1021	136	0	0	
3	0	0	0	0	1021	618	1021	1	0	0	
4	0	0	0	0	1022	1	1020	0	0	0	
5	0	0	0	0	1020	0	1021	0	0	0	
6	0	0	0	0	1020	0	1021	0	0	0	
7	0	0	0	0	1021	0	1021	0	0	0	
8	0	0	0	0	1021	0	1021	0	0	0	
9	0	0	0	0	1021	0	1021	0	0	0	
10	0	0	0	0	1021	359	1021	0	0	0	
11	0	0	0	0	659	1020	1021	110	0	0	
12	0	0	0	0	1	1021	1021	279	0	0	
13	0	0	0	0	1	1021	1021	480	0	0	
14	0	0	0	0	0	1021	1021	687	0	0	
15	0	0	0	0	0	1021	1021	867	0	0	
0	0	0	0	0	427	1021	1021	991	0	0	
1	0	0	0	0	1020	1021	1021	1021	0	0	
2	0	0	0	0	1021	1021	1021	997	0	0	
3	0	0	0	0	1021	1021	1021	875	0	0	
4	0	0	0	0	1021	1021	1021	668	0	0	
5	0	0	0	0	1021	1021	1021	396	0	0	
6	0	0	0	0	1021	1021	1021	89	0	0	
7	0	0	0	0	1021	539	1021	0	0	0	
8	0	0	0	0	1021	1	1021	0	0	0	
9	0	0	0	0	1021	0	1021	0	0	0	
10	0	0	0	0	1021	0	1021	0	0	0	
11	0	0	0	0	1020	0	1021	0	0	0	
12	0	0	0	0	1020	0	1021	0	0	0	
13	0	0	0	0	1020	43	1021	0	0	0	
14	0	0	0	0	1022	698	1021	0	0	0	
15	0	0	0	0	1022	1021	1021	62	0	0	
0	0	0	0	0	1022	1021	1021	204	0	0	
1	0	0	0	0	1022	1021	1021	381	0	0	
2	0	0	0	0	1021	1021	1021	567	0	0	
3	0	0	0	0	1021	1021	1021	734	0	0	
4	0	0	0	0	1021	1021	1021	851	0	0	
5	0	0	0	0	1021	1021	1021	898	0	0	
6	0	0	0	0	1022	1021	1021	867	0	0	
7	0	0	0	0	1021	1021	1021	750	0	0	
8	0	0	0	0	1021	1021	1021	552	0	0	
9	0	0	0	0	1021	1021	1021	292	0	0	
10	0	0	0	0	1021	1021	1021	5	0	0	
11	0	0	0	0	1022	826	1021	0	0	0	
12	0	0	0	0	1021	79	1021	0	0	0	
13	0	0	0	0	1021	1	1021	0	0	0	
14	0	0	0	0	1021	1	1021	0	0	0	
15	0	0	0	0	1020	0	1021	0	0	0	
0	0	0	0	0	1020	0	1021	0	0	0	
1	0	0	0	0	1021	599	1021	0	0	0	
2	0	0	0	0	1021	1020	1021	0	0	0	
3	0	0	0	0	1022	1021	1021	28	0	0	
4	0	0	0	0	1022	1021	1021	148	0	0	
5	0	0	0	0	1022	1021	1021	304	0	0	
6	0	0	0	0	1022	1021	1021	471	0	0	
7	0	0	0	0	1021	1021	1021	623	0	0	
8	0	0	0	0	1021	1021	1021	730	0	0	
9	0	0	0	0	1022	1021	1021	770	0	0	
10	0	0	0	0	1021	1021	1021	733	0	0	
11	0	0	0	0	1021	1021	1021	612	0	0	
12	0	0	0	0	1021	1021	1021	418	0	0	
13	0	0	0	0	1021	1021	1021	170	0	0	
14	0	0	0	0	1021	1021	1021	0	0	0	
15	0	0	0	0	1021	1022	1021	0	0	0	
0	0	0	0	0	1022	691	1021	0	0	0	
1	0	0	0	0	1020	112	1021	0	0	0	
2	0	0	0	0	1020	1	1021	0	0	0	
3	0	0	0	0	1021	24	1021	0	0	0	
4	0	0	0	0	1021	529	1020	0	0	0	
5	0	0	0	0	1022	1020	1021	0	0	0	
6	0	0	0	0	1021	1021	1021	0	0	0	
7	0	0	0	0	1021	1021	1021	24	0	0	
8	0	0	0	0	1021	1021	1021	139	0	0	
9	0	0	0	0	409	1021	1022	289	0	0	
10	0	0	0	0	0	1021	1021	448	0	0	
11	0	0	0	0	0	1021	1021	591	0	0	
12	0	0	0	0	0	1021	1021	687	0	0	
13	0	0	0	0	175	1021	1021	714	0	0	
14	0	0	0	0	900	1021	1020	663	0	0	
15	0	0	0	0	1021	1020	1021	532	0	0	
0	0	0	0	0	1021	1021	1021	331	0	0	
1	0	0	0	0	1021	1021	1021	83	0	0	
2	0	0	0	0	1021	1021	1021	0	0	0	
3	0	0	0	0	1021	1021	1021	0	0	0	
4	0	0	0	0	1021	857	1021	0	0	0	
5	0	0	0	0	1020	344	1021	0	0	0	
6	0	0	0	0	1021	24	1021	0	0	0	
7	0	0	0	0	1021	127	1021	0	0	0	
8	0	0	0	0	1021	637	1021	0	0	0	
9	0	0	0	0	1022	1021	1021	0	0	0	
10	0	0	0	0	530	1021	1021	0	0	0	
11	0	0	0	0	0	1021	1021	7	0	0	
12	0	0	0	0	0	1021	1021	108	0	0	
13	0	0	0	0	0	1021	1021	243	0	0	
14	0	0	0	0	0	1021	1021	391	0	0	
15	0	0	0	0	0	1021	1021	524	0	0	
0	0	0	0	0	0	1021	1021	619	0	0	
1	0	0	0	0	0	1021	1021	650	0	0	
2	0	0	0	0	0	1020	1020	607	0	0	
3	0	0	0	0	0	1020	1020	488	0	0	
4	0	0	0	0	280	1021	1021	302	0	0	
5	0	0	0	0	1020	1021	1021	71	0	0	
6	0	0	0	0	1021	1021	1021	0	0	0	
7	0	0	0	0	1020	1021	1021	0	0	0	
8	0	0	0	0	1020	628	1021	0	0	0	
9	0	0	0	0	1021	1	1021	0	0	0	
10	0	0	0	0	1021	1	1021	0	0	0	
11	0	0	0	0	1021	0	1021	0	0	0	
12	0	0	0	0	482	37	1021	0	0	0	
13	0	0	0	0	0	638	1021	0	0	0	
14	0	0	0	0	0	1020	1021	0	0	0	
15	0	0	0	0	0	1021	1021	6	0	0	
0	0	0	0	0	0	1021	1021	106	0	0	
1	0	0	0	0	0	1021	1021	245	0	0	
2	0	0	0	0	0	1021	1021	397	0	0	
3	0	0	0	0	0	1021	1021	538	0	0	
4	0	0	0	0	0	1021	1021	640	0	0	
5	0	0	0	0	0	1020	1021	677	0	0	
6	0	0	0	0	0	1020	1020	638	0	0	
7	0	0	0	0	0	1021	1021	521	0	0	
8	0	0	0	0	0	1021	1021	333	0	0	
9	0	0	0	0	462	1021	1021	98	0	0	
10	0	0	0	0	1020	1021	1021	0	0	0	
11	0	0	0	0	1020	952	1021	0	0	0	
12	0	0	0	0	1020	271	1020	0	0	0	
13	0	0	0	0	1021	1	1021	0	0	0	
14	0	0	0	0	1021	0	1021	0	0	0	
15	0	0	0	0	1021	0	1021	0	0	0	
0	0	0	0	0	435	0	1021	0	0	0	
1	0	0	0	0	0	239	1021	0	0	0	
2	0	0	0	0	0	1006	1021	0	0	0	
3	0	0	0	0	0	1021	1021	0	0	0	
4	0	0	0	0	0	1021	1021	87	0	0	
5	0	0	0	0	0	1021	1021	216	0	0	
6	0	0	0	0	0	1021	1021	359	0	0	
7	0	0	0	0	0	1021	1021	492	0	0	
8	0	0	0	0	0	1021	1021	588	0	0	
9	0	0	0	0	0	1020	1021	622	0	0	
10	0	0	0	0	0	1020	1021	583	0	0	
11	0	0	0	0	0	1021	1021	465	0	0	
12	0	0	0	0	53	1021	1021	283	0	0	
13	0	0	0	0	749	1021	1021	56	0	0	
14	0	0	0	0	1020	1021	1021	0	0	0	
15	0	0	0	0	1021	690	1021	0	0	0	
0	0	0	0	0	1020	1	1021	0	0	0	
1	0	0	0	0	1020	0	1021	0	0	0	
2	0	0	0	0	1021	0	1021	0	0	0	
3	0	0	0	0	1021	0	1021	0	0	0	
4	0	0	0	0	756	0	1021	0	0	0	
5	0	0	0	0	1	0	1021	0	0	0	
6	0	0	0	0	0	438	1021	0	0	0	
7	0	0	0	0	0	1020	1021	0	0	0	
8	0	0	0	0	0	1021	1021	94	0	0	
9	0	0	0	0	0	1021	1021	226	0	0	
10	0	0	0	0	0	1021	1021	371	0	0	
11	0	0	0	0	0	1021	1021	506	0	0	
12	0	0	0	0	0	1021	1021	603	0	0	
13	0	0	0	0	0	1020	1021	638	0	0	
14	0	0	0	0	0	1020	1021	600	0	0	
15	0	0	0	0	0	1021	1021	487	0	0	
0	0	0	0	0	292	1021	1021	308	0	0	
1	0	0	0	0	1020	1021	1021	85	0	0	
2	0	0	0	0	1021	1021	1021	0	0	0	
3	0	0	0	0	1021	413	1021	0	0	0	
4	0	0	0	0	1020	0	1021	0	0	0	
5	0	0	0	0	1021	0	1021	0	0	0	
6	0	0	0	0	1021	0	1021	0	0	0	
7	0	0	0	0	1021	0	1021	0	0	0	
8	0	0	0	0	815	0	1021	0	0	0	
9	0	0	0	0	34	0	1021	0	0	0	
10	0	0	0	0	0	140	1021	0	0	0	
11	0	0	0	0	0	870	1021	21	0	0	
12	0	0	0	0	0	1020	1021	129	0	0	
13	0	0	0	0	0	1021	1020	271	0	0	
14	0	0	0	0	0	1021	1021	419	0	0	
15	0	0	0	0	0	1021	1021	550	0	0	
0	0	0	0	0	0	1021	1021	636	0	0	
1	0	0	0	0	0	1020	1021	654	0	0	
2	0	0	0	0	0	1020	1020	593	0	0	
3	0	0	0	0	0	1021	1021	453	0	0	
4	0	0	0	0	438	1021	1021	245	0	0	
5	0	0	0	0	1020	1021	1021	0	0	0	
6	0	0	0	0	1021	927	1021	0	0	0	
7	0	0	0	0	1021	225	1020	0	0	0	
8	0	0	0	0	1020	0	1021	0	0	0	
9	0	0	0	0	1020	0	1021	0	0	0	
10	0	0	0	0	1021	0	1021	0	0	0	
11	0	0	0	0	1021	0	1021	0	0	0	
12	0	0	0	0	890	0	1021	0	0	0	
13	0	0	0	0	153	0	1020	0	0	0	
14	0	0	0	0	0	0	1021	0	0	0	
15	0	0	0	0	0	559	1021	0	0	0	
0	0	0	0	0	0	1020	1021	23	0	0	
1	0	0	0	0	0	1021	1021	117	0	0	
2	0	0	0	0	0	1021	1021	228	0	0	
3	0	0	0	0	0	1021	1021	332	0	0	
4	0	0	0	0	0	1021	1021	404	0	0	
5	0	0	0	0	0	1020	1021	423	0	0	
6	0	0	0	0	0	1020	1020	372	0	0	
7	0	0	0	0	0	1021	1021	251	0	0	
8	0	0	0	0	401	1021	1021	67	0	0	
9	0	0	0	0	1020	1021	1021	0	0	0	
10	0	0	0	0	1021	730	1021	0	0	0	
11	0	0	0	0	1020	1	1021	0	0	0	
12	0	0	0	0	1020	0	1020	0	0	0	
13	0	0	0	0	1021	0	1021	0	0	0	
14	0	0	0	0	1021	0	1021	0	0	0	
15	0	0	0	0	1021	0	1021	0	0	0	
0	0	0	0	0	827	0	1021	0	0	0	
1	0	0	0	0	52	0	1020	0	0	0	
2	0	0	0	0	0	0	1021	0	0	0	
3	0	0	0	0	0	245	1021	0	0	0	
4	0	0	0	0	0	1020	1021	0	0	0	
5	0	0	0	0	0	1021	1020	13	0	0	
6	0	0	0	0	0	1021	1021	74	0	0	
7	0	0	0	0	0	1021	1021	138	0	0	
8	0	0	0	0	0	1020	1021	182	0	0	
9	0	0	0	0	0	1020	1021	186	0	0	
10	0	0	0	0	0	1021	1020	140	0	0	
11	0	0	0	0	0	1021	1021	38	0	0	
12	0	0	0	0	554	1021	1021	0	0	0	
13	0	0	0	0	1020	1021	1021	0	0	0	
14	0	0	0	0	1021	515	1021	0	0	0	
15	0	0	0	0	1021	0	1021	0	0	0	
0	0	0	0	0	1020	0	1021	0	0	0	
1	0	0	0	0	1021	0	1021	0	0	0	
2	0	0	0	0	1021	0	1021	0	0	0	
3	0	0	0	0	1021	0	1021	0	0	0	
4	0	0	0	0	978	0	1020	0	0	0	
5	0	0	0	0	300	0	1020	0	0	0	
6	0	0	0	0	0	0	1021	0	0	0	
7	0	0	0	0	0	69	1021	0	0	0	
8	0	0	0	0	0	760	1021	29	0	0	
9	0	0	0	0	0	1020	1021	127	0	0	
10	0	0	0	0	0	1021	1021	244	0	0	
11	0	0	0	0	0	1021	1021	351	0	0	
12	0	0	0	0	0	1020	1021	425	0	0	
13	0	0	0	0	0	1020	1021	442	0	0	
14	0	0	0	0	0	1020	1021	388	0	0	
15	0	0	0	0	88	1021	1021	262	0	0	
0	0	0	0	0	809	1021	1021	73	0	0	
1	0	0	0	0	1020	928	1021	0	0	0	
2	0	0	0	0	1021	229	1021	0	0	0	
3	0	0	0	0	1021	0	1020	0	0	0	
4	0	0	0	0	1020	0	1020	0	0	0	
5	0	0	0	0	1020	0	1021	0	0	0	
6	0	0	0	0	1021	0	1021	0	0	0	
7	0	0	0	0	1021	0	1021	0	0	0	
8	0	0	0	0	1021	0	1021	0	0	0	
9	0	0	0	0	523	0	1021	0	0	0	
10	0	0	0	0	0	0	1021	0	0	0	
11	0	0	0	0	0	0	1021	0	0	0	
12	0	0	0	0	0	529	1021	1	0	0	
13	0	0	0	0	0	1020	1021	85	0	0	
14	0	0	0	0	0	1021	1021	193	0	0	
15	0	0	0	0	0	1021	1021	298	0	0	
0	0	0	0	0	0	1020	1021	377	0	0	
1	0	0	0	0	0	1020	1021	408	0	0	
2	0	0	0	0	0	1021	1020	375	0	0	
3	0	0	0	0	110	1021	1021	275	0	0	
4	0	0	0	0	843	1021	1021	114	0	0	
5	0	0	0	0	1020	743	1021	0	0	0	
6	0	0	0	0	1021	1	1021	0	0	0	
7	0	0	0	0	1021	0	1021	0	0	0	
8	0	0	0	0	1020	0	1021	0	0	0	
9	0	0	0	0	1021	0	1021	0	0	0	
10	0	0	0	0	1021	0	1021	0	0	0	
11	0	0	0	0	1021	0	1021	0	0	0	
12	0	0	0	0	1017	0	1021	0	0	0	
13	0	0	0	0	365	0	1021	0	0	0	
14	0	0	0	0	0	0	1021	0	0	0	
15	0	0	0	0	0	0	1021	1	0	0	
0	0	0	0	0	0	137	1021	98	0	0	
1	0	0	0	0	0	872	1021	230	0	0	
2	0	0	0	0	0	1020	1021	370	0	0	
3	0	0	0	0	0	1020	1021	494	0	0	
4	0	0	0	0	0	1020	1021	574	0	0	
5	0	0	0	0	0	1020	1021	586	0	0	
6	0	0	0	0	0	1021	1021	520	0	0	
7	0	0	0	0	20	1021	1021	379	0	0	
8	0	0	0	0	690	953	1021	174	0	0	
9	0	0	0	0	1020	275	1021	0	0	0	
10	0	0	0	0	1021	0	1021	0	0	0	
11	0	0	0	0	1021	0	1021	0	0	0	
12	0	0	0	0	1020	0	1021	0	0	0	
13	0	0	0	0	1021	0	1021	0	0	0	
14	0	0	0	0	1021	0	1021	0	0	0	
15	0	0	0	0	1021	0	1021	0	0	0	
0	0	0	0	0	901	0	1021	0	0	0	
1	0	0	0	0	171	0	1021	0	0	0	
2	0	0	0	0	0	0	1021	0	0	0	
3	0	0	0	0	0	0	1021	0	0	0	
4	0	0	0	0	0	0	1021	87	0	0	
5	0	0	0	0	0	520	1020	220	0	0	
6	0	0	0	0	0	1020	1021	367	0	0	
7	0	0	0	0	0	1020	1021	503	0	0	
8	0	0	0	0	0	1020	1021	601	0	0	
9	0	0	0	0	0	1020	1021	636	0	0	
10	0	0	0	0	0	1020	1021	595	0	0	
11	0	0	0	0	0	1021	1020	478	0	0	
12	0	0	0	0	452	675	1021	293	0	0	
13	0	0	0	0	1020	1	1021	64	0	0	
14	0	0	0	0	1021	0	1021	0	0	0	
15	0	0	0	0	1021	0	1020	0	0	0	
0	0	0	0	0	1020	0	1020	0	0	0	
1	0	0	0	0	1021	0	1021	0	0	0	
2	0	0	0	0	1021	0	1021	0	0	0	
3	0	0	0	0	1021	0	1021	0	0	0	
4	0	0	0	0	710	0	1021	0	0	0	
5	0	0	0	0	0	0	1021	0	0	0	
6	0	0	0	0	0	0	1021	0	0	0	
7	0	0	0	0	0	0	1021	76	0	0	
8	0	0	0	0	0	0	1021	227	0	0	
9	0	0	0	0	0	287	1020	410	0	0	
10	0	0	0	0	0	1019	1021	598	0	0	
11	0	0	0	0	0	1020	1021	756	0	0	
12	0	0	0	0	0	1020	1021	855	0	0	
13	0	0	0	0	0	1020	1021	876	0	0	
14	0	0	0	0	0	1021	1020	809	0	0	
15	0	0	0	0	0	979	1021	653	0	0	
0	0	0	0	0	255	331	1021	419	0	0	
1	0	0	0	0	1020	0	1021	133	0	0	
2	0	0	0	0	1021	0	1021	0	0	0	
3	0	0	0	0	1021	0	1020	0	0	0	
4	0	0	0	0	1020	0	1020	0	0	0	
5	0	0	0	0	1021	0	1021	0	0	0	
6	0	0	0	0	1021	0	1021	0	0	0	
7	0	0	0	0	1021	0	1021	0	0	0	
8	0	0	0	0	560	0	1021	0	0	0	
9	0	0	0	0	0	0	1020	0	0	0	
10	0	0	0	0	0	0	1021	0	0	0	
11	0	0	0	0	0	0	1021	33	0	0	
12	0	0	0	0	0	0	1021	165	0	0	
13	0	0	0	0	0	136	1020	334	0	0	
14	0	0	0	0	0	869	1021	516	0	0	
15	0	0	0	0	0	1020	1021	679	0	0	
0	0	0	0	0	0	1020	1021	792	0	0	
1	0	0	0	0	0	1020	1021	833	0	0	
2	0	0	0	0	0	1021	1021	792	0	0	
3	0	0	0	0	0	806	1021	661	0	0	
4	0	0	0	0	155	52	1021	454	0	0	
5	0	0	0	0	917	0	1021	192	0	0	
6	0	0	0	0	1020	0	1021	0	0	0	
7	0	0	0	0	1020	0	1020	0	0	0	
8	0	0	0	0	1020	0	1021	0	0	0	
9	0	0	0	0	1021	0	1021	0	0	0	
10	0	0	0	0	1021	0	1021	0	0	0	
11	0	0	0	0	966	0	1021	0	0	0	
12	0	0	0	0	286	0	1021	0	0	0	
13	0	0	0	0	0	0	1021	0	0	0	
14	0	0	0	0	0	0	1021	0	0	0	
15	0	0	0	0	0	0	1021	91	0	0	
0	0	0	0	0	0	0	1021	250	0	0	
1	0	0	0	0	0	33	1020	440	0	0	
2	0	0	0	0	0	696	1020	633	0	0	
3	0	0	0	0	0	1020	1021	799	0	0	
4	0	0	0	0	0	1020	1021	904	0	0	
5	0	0	0	0	0	1020	1021	931	0	0	
6	0	0	0	0	0	1021	1021	871	0	0	
7	0	0	0	0	0	639	1020	722	0	0	
8	0	0	0	0	25	0	1021	494	0	0	
9	0	0	0	0	700	0	1021	210	0	0	
10	0	0	0	0	1020	0	1021	0	0	0	
11	0	0	0	0	1020	0	1021	0	0	0	
12	0	0	0	0	1020	0	1021	0	0	0	
13	0	0	0	0	1021	0	1021	0	0	0	
14	0	0	0	0	1021	0	1021	0	0	0	
15	0	0	0	0	962	0	1021	0	0	0	
0	0	0	0	0	283	0	1021	0	0	0	
1	0	0	0	0	0	0	1020	0	0	0	
2	0	0	0	0	0	0	1021	0	0	0	
3	0	0	0	0	0	0	1021	89	0	0	
4	0	0	0	0	0	0	1021	252	0	0	
5	0	0	0	0	0	0	1020	451	0	0	
6	0	0	0	0	0	616	1020	658	0	0	
7	0	0	0	0	0	1020	1021	842	0	0	
8	0	0	0	0	0	1020	1021	972	0	0	
9	0	0	0	0	0	1020	1021	1021	0	0	
10	0	0	0	0	0	1021	1021	1000	0	0	
11	0	0	0	0	0	674	1021	886	0	0	
12	0	0	0	0	173	1	1021	690	0	0	
13	0	0	0	0	945	0	1021	431	0	0	
14	0	0	0	0	1021	0	1021	138	0	0	
15	0	0	0	0	1020	0	1021	0	0	0	
0	0	0	0	0	1020	0	1021	0	0	0	
1	0	0	0	0	1021	0	1021	0	0	0	
2	0	0	0	0	1021	0	1021	0	0	0	
3	0	0	0	0	1021	0	1021	0	0	0	
4	0	0	0	0	626	0	1021	0	0	0	
5	0	0	0	0	1	0	1021	0	0	0	
6	0	0	0	0	0	0	1021	65	0	0	
7	0	0	0	0	0	0	1021	228	0	0	
8	0	0	0	0	0	0	1021	443	0	0	
9	0	0	0	0	0	176	1021	681	0	0	
10	0	0	0	0	0	932	1021	911	0	0	
11	0	0	0	0	0	1020	1021	1020	0	0	
12	0	0	0	0	0	1020	1021	1021	0	0	
13	0	0	0	0	0	1020	1021	1021	0	0	
14	0	0	0	0	0	1021	1021	1021	0	0	
15	0	0	0	0	0	936	1021	915	0	0	
0	0	0	0	0	377	263	1021	720	0	0	
1	0	0	0	0	1020	0	1021	462	0	0	
2	0	0	0	0	1021	0	1021	170	0	0	
3	0	0	0	0	1021	0	1021	0	0	0	
4	0	0	0	0	1020	0	1021	0	0	0	
5	0	0	0	0	1021	0	1021	0	0	0	
6	0	0	0	0	1021	0	1021	0	0	0	
7	0	0	0	0	1021	0	1021	0	0	0	
8	0	0	0	0	826	0	1021	0	0	0	
9	0	0	0	0	50	0	1021	0	0	0	
10	0	0	0	0	0	0	1021	95	0	0	
11	0	0	0	0	0	0	1021	274	0	0	
12	0	0	0	0	0	0	1021	501	0	0	
13	0	0	0	0	0	480	1021	751	0	0	
14	0	0	0	0	0	1020	1021	986	0	0	
15	0	0	0	0	0	1020	1021	1021	0	0	
0	0	0	0	0	0	1020	1021	1021	0	0	
1	0	0	0	0	0	1020	1021	1021	0	0	
2	0	0	0	0	0	1021	1021	1021	0	0	
3	0	0	0	0	13	1021	1021	971	0	0	
4	0	0	0	0	679	707	1021	818	0	0	
5	0	0	0	0	1020	1	1021	603	0	0	
6	0	0	0	0	1021	0	1021	349	0	0	
7	0	0	0	0	1021	0	1021	94	0	0	
8	0	0	0	0	1020	0	1021	0	0	0	
9	0	0	0	0	1020	0	1021	0	0	0	
10	0	0	0	0	1021	0	1021	0	0	0	
11	0	0	0	0	1021	0	1021	0	0	0	
12	0	0	0	0	1021	0	1021	0	0	0	
13	0	0	0	0	495	0	1021	86	0	0	
14	0	0	0	0	0	0	1021	266	0	0	
15	0	0	0	0	0	0	1021	507	0	0	
0	0	0	0	0	0	365	1021	784	0	0	
1	0	0	0	0	0	1020	1021	1020	0	0	
2	0	0	0	0	0	1021	1021	1021	0	0	
3	0	0	0	0	0	1020	1021	1021	0	0	
4	0	0	0	0	0	1020	1021	1021	0	0	
5	0	0	0	0	0	1020	1021	1021	0	0	
6	0	0	0	0	0	1021	1020	1021	0	0	
7	0	0	0	0	220	1021	1021	1003	0	0	
8	0	0	0	0	1015	1021	1021	862	0	0	
9	0	0	0	0	1021	455	1021	654	0	0	
10	0	0	0	0	1021	0	1021	402	0	0	
11	0	0	0	0	1021	0	1021	143	0	0	
12	0	0	0	0	1020	0	1021	0	0	0	
13	0	0	0	0	1020	0	1021	0	0	0	
14	0	0	0	0	1021	0	1021	0	0	0	
15	0	0	0	0	1021	0	1021	0	0	0	
0	0	0	0	0	1021	0	1021	0	0	0	
1	0	0	0	0	707	0	1020	120	0	0	
2	0	0	0	0	0	0	1021	326	0	0	
3	0	0	0	0	0	88	1021	595	0	0	
4	0	0	0	0	0	793	1021	899	0	0	
5	0	0	0	0	0	1020	1021	1021	0	0	
6	0	0	0	0	0	1021	1021	1021	0	0	
7	0	0	0	0	0	1021	1021	1021	0	0	
8	0	0	0	0	0	1020	1021	1021	0	0	
9	0	0	0	0	0	1020	1021	1021	0	0	
10	0	0	0	0	0	1021	1021	1021	0	0	
11	0	0	0	0	333	1021	1021	1021	0	0	
12	0	0	0	0	1020	1021	1021	970	0	0	
13	0	0	0	0	1021	775	1021	815	0	0	
14	0	0	0	0	1021	1	1021	604	0	0	
15	0	0	0	0	1020	0	1021	371	0	0	
0	0	0	0	0	1021	0	1021	150	0	0	
1	0	0	0	0	1021	0	1021	0	0	0	
2	0	0	0	0	1021	0	1021	0	0	0	
3	0	0	0	0	1021	0	1021	0	0	0	
4	0	0	0	0	1021	0	1020	36	0	0	
5	0	0	0	0	679	0	1020	193	0	0	
6	0	0	0	0	0	0	1021	431	0	0	
7	0	0	0	0	0	329	1021	731	0	0	
8	0	0	0	0	0	1020	1021	1020	0	0	
9	0	0	0	0	0	1020	1021	1021	0	0	
10	0	0	0	0	0	1021	1020	1021	0	0	
11	0	0	0	0	0	1021	1021	1021	0	0	
12	0	0	0	0	0	1020	1021	1021	0	0	
13	0	0	0	0	0	1020	1021	1021	0	0	
14	0	0	0	0	0	1021	1021	1021	0	0	
15	0	0	0	0	210	1021	1021	1021	0	0	
0	0	0	0	0	1000	1021	1021	1021	0	0	
1	0	0	0	0	1021	924	1021	904	0	0	
2	0	0	0	0	1021	220	1021	728	0	0	
3	0	0	0	0	1021	0	1021	520	0	0	
4	0	0	0	0	1020	0	1021	313	0	0	
5	0	0	0	0	1020	0	1021	144	0	0	
6	0	0	0	0	1021	0	1021	38	0	0	
7	0	0	0	0	1021	0	1021	13	0	0	
8	0	0	0	0	1021	0	1021	76	0	0	
9	0	0	0	0	556	0	1021	228	0	0	
10	0	0	0	0	0	0	1021	460	0	0	
11	0	0	0	0	0	425	1021	751	0	0	
12	0	0	0	0	0	1020	1021	1020	0	0	
13	0	0	0	0	0	1021	1021	1021	0	0	
14	0	0	0	0	0	1021	1021	1021	0	0	
15	0	0	0	0	0	1021	1021	1021	0	0	
0	0	0	0	0	0	1020	1021	1021	0	0	
1	0	0	0	0	0	1020	1021	1021	0	0	
2	0	0	0	0	0	1021	1021	1021	0	0	
3	0	0	0	0	241	1021	1021	1021	0	0	
4	0	0	0	0	1020	1021	1021	1021	0	0	
5	0	0	0	0	1021	983	1021	906	0	0	
6	0	0	0	0	1021	320	1021	730	0	0	
7	0	0	0	0	1021	0	1021	519	0	0	
8	0	0	0	0	1020	0	1021	303	0	0	
9	0	0	0	0	1020	0	1021	121	0	0	
10	0	0	0	0	1021	0	1021	0	0	0	
11	0	0	0	0	1021	0	1021	0	0	0	
12	0	0	0	0	1021	0	1021	17	0	0	
13	0	0	0	0	619	0	1021	139	0	0	
14	0	0	0	0	0	0	1021	339	0	0	
15	0	0	0	0	0	205	1021	600	0	0	
0	0	0	0	0	0	976	1021	893	0	0	
1	0	0	0	0	0	1021	1021	1020	0	0	
2	0	0	0	0	0	1021	1021	1021	0	0	
3	0	0	0	0	0	1021	1021	1021	0	0	
4	0	0	0	0	0	1020	1021	1021	0	0	
5	0	0	0	0	0	1020	1021	1021	0	0	
6	0	0	0	0	0	1021	1021	1021	0	0	
7	0	0	0	0	329	1021	1021	1021	0	0	
8	0	0	0	0	1020	1021	1021	917	0	0	
9	0	0	0	0	1021	665	1021	734	0	0	
10	0	0	0	0	1021	1	1021	501	0	0	
11	0	0	0	0	1021	0	1021	252	0	0	
12	0	0	0	0	1020	0	1021	24	0	0	
13	0	0	0	0	1020	0	1021	0	0	0	
14	0	0	0	0	1021	0	1021	0	0	0	
15	0	0	0	0	1021	0	1021	0	0	0	
0	0	0	0	0	1021	0	1021	0	0	0	
1	0	0	0	0	643	0	1021	110	0	0	
2	0	0	0	0	0	0	1021	300	0	0	
3	0	0	0	0	0	0	1021	549	0	0	
4	0	0	0	0	0	379	1021	829	0	0	
5	0	0	0	0	0	1020	1021	1020	0	0	
6	0	0	0	0	0	1020	1021	1021	0	0	
7	0	0	0	0	0	1020	1021	1021	0	0	
8	0	0	0	0	0	1020	1021	1021	0	0	
9	0	0	0	0	0	1020	1021	1021	0	0	
10	0	0	0	0	0	1021	1021	1021	0	0	
11	0	0	0	0	341	1021	1021	971	0	0	
12	0	0	0	0	1020	911	1021	806	0	0	
13	0	0	0	0	1021	203	1021	572	0	0	
14	0	0	0	0	1021	0	1021	299	0	0	
15	0	0	0	0	1021	0	1021	24	0	0	
0	0	0	0	0	1020	0	1021	0	0	0	
1	0	0	0	0	1020	0	1021	0	0	0	
2	0	0	0	0	1021	0	1021	0	0	0	
3	0	0	0	0	1021	0	1021	0	0	0	
4	0	0	0	0	1021	0	1021	0	0	0	
5	0	0	0	0	645	0	1021	35	0	0	
6	0	0	0	0	0	0	1021	184	0	0	
7	0	0	0	0	0	0	1021	394	0	0	
8	0	0	0	0	0	192	1021	641	0	0	
9	0	0	0	0	0	959	1021	893	0	0	
10	0	0	0	0	0	1020	1021	1021	0	0	
11	0	0	0	0	0	1020	1021	1021	0	0	
12	0	0	0	0	0	1020	1021	1021	0	0	
13	0	0	0	0	0	1020	1021	1021	0	0	
14	0	0	0	0	0	1021	1021	1017	0	0	
15	0	0	0	0	455	1021	1021	887	0	0	
0	0	0	0	0	1020	787	1021	675	0	0	
1	0	0	0	0	1021	12	1021	404	0	0	
2	0	0	0	0	1021	0	1021	106	0	0	
3	0	0	0	0	1021	0	1020	0	0	0	
4	0	0	0	0	1021	0	1020	0	0	0	
5	0	0	0	0	1020	0	1021	0	0	0	
6	0	0	0	0	1021	0	1021	0	0	0	
7	0	0	0	0	1021	0	1021	0	0	0	
8	0	0	0	0	1021	0	1021	0	0	0	
9	0	0	0	0	842	0	1021	0	0	0	
10	0	0	0	0	72	0	1021	117	0	0	
11	0	0	0	0	0	0	1021	302	0	0	
12	0	0	0	0	0	78	1021	531	0	0	
13	0	0	0	0	0	777	1021	773	0	0	
14	0	0	0	0	0	1020	1021	989	0	0	
15	0	0	0	0	0	1020	1021	1021	0	0	
0	0	0	0	0	0	1020	1021	1021	0	0	
1	0	0	0	0	0	1020	1021	1021	0	0	
2	0	0	0	0	122	1021	1020	989	0	0	
3	0	0	0	0	860	1021	1021	833	0	0	
4	0	0	0	0	1020	648	1021	598	0	0	
5	0	0	0	0	1021	1	1021	305	0	0	
6	0	0	0	0	1021	0	1021	1	0	0	
7	0	0	0	0	1021	0	1021	0	0	0	
8	0	0	0	0	1021	0	1020	0	0	0	
9	0	0	0	0	1020	0	1021	0	0	0	
10	0	0	0	0	1021	0	1021	0	0	0	
11	0	0	0	0	1021	0	1021	0	0	0	
12	0	0	0	0	1021	0	1021	0	0	0	
13	0	0	0	0	1022	0	1021	0	0	0	
14	0	0	0	0	453	0	1021	9	0	0	
15	0	0	0	0	0	0	1021	127	0	0	
0	0	0	0	0	0	54	1021	295	0	0	
1	0	0	0	0	0	738	1021	485	0	0	
2	0	0	0	0	0	1020	1021	671	0	0	
3	0	0	0	0	0	1020	1021	819	0	0	
4	0	0	0	0	0	1020	1021	903	0	0	
5	0	0	0	0	0	1020	1021	909	0	0	
6	0	0	0	0	495	1021	1021	827	0	0	
7	0	0	0	0	1020	1021	1021	656	0	0	
8	0	0	0	0	1021	801	1021	410	0	0	
9	0	0	0	0	1021	32	1021	116	0	0	
10	0	0	0	0	1021	0	1021	0	0	0	
11	0	0	0	0	1021	0	1020	0	0	0	
12	0	0	0	0	1020	0	1021	0	0	0	
13	0	0	0	0	1020	0	1021	0	0	0	
14	0	0	0	0	1021	0	1021	0	0	0	
15	0	0	0	0	1021	0	1021	0	0	0	
0	0	0	0	0	1021	0	1021	0	0	0	
1	0	0	0	0	1022	0	1021	0	0	0	
2	0	0	0	0	552	0	1021	0	0	0	
3	0	0	0	0	0	0	1021	90	0	0	
4	0	0	0	0	0	530	1021	248	0	0	
5	0	0	0	0	0	1020	1021	435	0	0	
6	0	0	0	0	1	1021	1021	623	0	0	
7	0	0	0	0	0	1021	1021	780	0	0	
8	0	0	0	0	0	1020	1021	878	0	0	
9	0	0	0	0	0	1020	1021	899	0	0	
10	0	0	0	0	204	1021	1021	835	0	0	
11	0	0	0	0	989	1021	1021	684	0	0	
12	0	0	0	0	1020	1021	1021	455	0	0	
13	0	0	0	0	1021	763	1021	175	0	0	
14	0	0	0	0	1021	1	1021	0	0	0	
15	0	0	0	0	1021	0	1021	0	0	0	
0	0	0	0	0	1020	0	1021	0	0	0	
1	0	0	0	0	1020	0	1021	0	0	0	
2	0	0	0	0	1021	0	1021	0	0	0	
3	0	0	0	0	1021	0	1021	0	0	0	
4	0	0	0	0	1021	0	1021	0	0	0	
5	0	0	0	0	1021	0	1021	0	0	0	
6	0	0	0	0	443	0	1021	0	0	0	
7	0	0	0	0	0	513	1021	54	0	0	
8	0	0	0	0	0	1020	1021	189	0	0	
9	0	0	0	0	0	1021	1021	355	0	0	
10	0	0	0	0	0	1021	1021	526	0	0	
11	0	0	0	0	0	1021	1021	675	0	0	
12	0	0	0	0	0	1020	1021	772	0	0	
13	0	0	0	0	0	1020	1021	799	0	0	
14	0	0	0	0	176	1021	1021	748	0	0	
15	0	0	0	0	945	1021	1021	615	0	0	
0	0	0	0	0	1021	1021	1021	416	0	0	
1	0	0	0	0	1021	1021	1021	172	0	0	
2	0	0	0	0	1021	456	1021	0	0	0	
3	0	0	0	0	1021	0	1021	0	0	0	
4	0	0	0	0	1021	0	1020	0	0	0	
5	0	0	0	0	1020	0	1021	0	0	0	
6	0	0	0	0	1021	0	1021	0	0	0	
7	0	0	0	0	1021	0	1021	0	0	0	
8	0	0	0	0	1021	0	1021	0	0	0	
9	0	0	0	0	995	0	1021	0	0	0	
10	0	0	0	0	327	3	1021	72	0	0	
11	0	0	0	0	0	649	1021	227	0	0	
12	0	0	0	0	0	1020	1021	423	0	0	
13	0	0	0	0	0	1021	1021	637	0	0	
14	0	0	0	0	0	1021	1020	837	0	0	
15	0	0	0	0	0	1021	1021	993	0	0	
0	0	0	0	0	0	1021	1021	1021	0	0	
1	0	0	0	0	0	1020	1021	1021	0	0	
2	0	0	0	0	65	1020	1021	980	0	0	
3	0	0	0	0	765	1021	1021	835	0	0	
4	0	0	0	0	1020	1021	1021	615	0	0	
5	0	0	0	0	1021	1021	1021	342	0	0	
6	0	0	0	0	1021	603	1021	48	0	0	
7	0	0	0	0	1021	0	1021	0	0	0	
8	0	0	0	0	1020	0	1021	0	0	0	
9	0	0	0	0	1020	0	1021	0	0	0	
10	0	0	0	0	1021	0	1021	0	0	0	
11	0	0	0	0	1021	1	1021	0	0	0	
12	0	0	0	0	1021	0	1021	0	0	0	
13	0	0	0	0	935	0	1020	0	0	0	
14	0	0	0	0	224	256	1021	93	0	0	
15	0	0	0	0	0	1020	1021	271	0	0	
0	0	0	0	0	0	1021	1021	496	0	0	
1	0	0	0	0	0	1021	1021	744	0	0	
2	0	0	0	0	0	1021	1021	977	0	0	
3	0	0	0	0	0	1021	1021	1021	0	0	
4	0	0	0	0	0	1021	1021	1021	0	0	
5	0	0	0	0	0	1020	1021	1021	0	0	
6	0	0	0	0	0	1020	1021	1021	0	0	
7	0	0	0	0	649	1021	1021	959	0	0	
8	0	0	0	0	1020	1021	1021	795	0	0	
9	0	0	0	0	1021	1021	1021	569	0	0	
10	0	0	0	0	1021	930	1021	307	0	0	
11	0	0	0	0	1021	230	1020	47	0	0	
12	0	0	0	0	1021	1	1020	0	0	0	
13	0	0	0	0	1020	0	1021	0	0	0	
14	0	0	0	0	1021	0	1021	0	0	0	
15	0	0	0	0	1021	0	1021	0	0	0	
0	0	0	0	0	1021	0	1021	0	0	0	
1	0	0	0	0	933	150	1021	49	0	0	
2	0	0	0	0	220	880	1021	205	0	0	
3	0	0	0	0	0	1020	1021	422	0	0	
4	0	0	0	0	0	1021	1021	677	0	0	
5	0	0	0	0	0	1021	1021	939	0	0	
6	0	0	0	0	0	1021	1021	1021	0	0	
7	0	0	0	0	0	1021	1021	1021	0	0	
8	0	0	0	0	0	1021	1021	1021	0	0	
9	0	0	0	0	0	1020	1021	1021	0	0	
10	0	0	0	0	0	1020	1021	1021	0	0	
11	0	0	0	0	630	1021	1021	986	0	0	
12	0	0	0	0	1020	1021	1021	843	0	0	
13	0	0	0	0	1021	1021	1021	639	0	0	
14	0	0	0	0	1021	1021	1021	398	0	0	
15	0	0	0	0	1021	664	1020	154	0	0	
0	0	0	0	0	1020	1	1021	0	0	0	
1	0	0	0	0	1020	0	1021	0	0	0	
2	0	0	0	0	1021	0	1021	0	0	0	
3	0	0	0	0	1021	0	1021	0	0	0	
4	0	0	0	0	1021	0	1021	0	0	0	
5	0	0	0	0	864	478	1020	113	0	0	
6	0	0	0	0	108	1020	1021	299	0	0	
7	0	0	0	0	0	1021	1021	540	0	0	
8	0	0	0	0	0	1021	1021	811	0	0	
9	0	0	0	0	0	1021	1021	1021	0	0	
10	0	0	0	0	0	1021	1020	1021	0	0	
11	0	0	0	0	0	1021	1021	1021	0	0	
12	0	0	0	0	0	1021	1021	1021	0	0	
13	0	0	0	0	0	1020	1021	1021	0	0	
14	0	0	0	0	0	1020	1021	1021	0	0	
15	0	0	0	0	417	1021	1021	986	0	0	
0	0	0	0	0	1020	1021	1021	836	0	0	
1	0	0	0	0	1021	1021	1021	622	0	0	
2	0	0	0	0	1021	1021	1021	368	0	0	
3	0	0	0	0	1021	824	1021	111	0	0	
4	0	0	0	0	1021	110	1020	0	0	0	
5	0	0	0	0	1020	1	1021	0	0	0	
6	0	0	0	0	1021	1	1021	0	0	0	
7	0	0	0	0	1021	0	1021	0	0	0	
8	0	0	0	0	1021	91	1021	0	0	0	
9	0	0	0	0	649	755	1021	72	0	0	
10	0	0	0	0	0	1020	1021	239	0	0	
11	0	0	0	0	0	1021	1021	464	0	0	
12	0	0	0	0	0	1021	1021	723	0	0	
13	0	0	0	0	0	1021	1021	984	0	0	
14	0	0	0	0	0	1021	1021	1021	0	0	
15	0	0	0	0	0	1021	1021	1021	0	0	
0	0	0	0	0	0	1021	1021	1021	0	0	
1	0	0	0	0	0	1020	1021	1021	0	0	
2	0	0	0	0	0	1020	1021	1021	0	0	
3	0	0	0	0	155	1020	1021	953	0	0	
4	0	0	0	0	916	1021	1021	779	0	0	
5	0	0	0	0	1021	1021	1021	541	0	0	
6	0	0	0	0	1021	1021	1021	264	0	0	
7	0	0	0	0	1021	883	1021	1	0	0	
8	0	0	0	0	1020	198	1021	0	0	0	
9	0	0	0	0	1021	1	1021	0	0	0	
10	0	0	0	0	1021	0	1021	0	0	0	
11	0	0	0	0	1021	0	1021	0	0	0	
12	0	0	0	0	1021	89	1021	0	0	0	
13	0	0	0	0	396	748	1021	12	0	0	
14	0	0	0	0	0	1020	1021	143	0	0	
15	0	0	0	0	0	1021	1021	337	0	0	
0	0	0	0	0	0	1021	1021	573	0	0	
1	0	0	0	0	0	1021	1021	824	0	0	
2	0	0	0	0	0	1021	1021	1021	0	0	
3	0	0	0	0	0	1021	1021	1021	0	0	
4	0	0	0	0	0	1021	1021	1021	0	0	
5	0	0	0	0	0	1020	1021	1021	0	0	
6	0	0	0	0	0	1020	1021	1021	0	0	
7	0	0	0	0	58	1021	1021	940	0	0	
8	0	0	0	0	758	1021	1021	761	0	0	
9	0	0	0	0	1020	1021	1021	521	0	0	
10	0	0	0	0	1021	1021	1021	246	0	0	
11	0	0	0	0	1021	836	1021	1	0	0	
12	0	0	0	0	1020	119	1020	0	0	0	
13	0	0	0	0	1021	1	1021	0	0	0	
14	0	0	0	0	1021	0	1021	0	0	0	
15	0	0	0	0	1021	0	1021	0	0	0	
0	0	0	0	0	1000	24	1021	0	0	0	
1	0	0	0	0	338	636	1020	8	0	0	
2	0	0	0	0	0	1020	1021	126	0	0	
3	0	0	0	0	0	1021	1021	302	0	0	
4	0	0	0	0	0	1021	1021	516	0	0	
5	0	0	0	0	0	1021	1021	742	0	0	
6	0	0	0	0	0	1021	1021	944	0	0	
7	0	0	0	0	0	1021	1021	1021	0	0	
8	0	0	0	0	0	1021	1021	1021	0	0	
9	0	0	0	0	0	1020	1021	1021	0	0	
10	0	0	0	0	0	1020	1021	993	0	0	
11	0	0	0	0	74	1021	1021	852	0	0	
12	0	0	0	0	783	1021	1021	635	0	0	
13	0	0	0	0	1020	1021	1021	363	0	0	
14	0	0	0	0	1021	1021	1021	68	0	0	
15	0	0	0	0	1021	806	1021	0	0	0	
0	0	0	0	0	1020	71	1021	0	0	0	
1	0	0	0	0	1021	0	1021	0	0	0	
2	0	0	0	0	1021	0	1021	0	0	0	
3	0	0	0	0	1021	0	1021	0	0	0	
4	0	0	0	0	1019	0	1020	0	0	0	
5	0	0	0	0	365	590	1020	0	0	0	
6	0	0	0	0	0	1020	1021	48	0	0	
7	0	0	0	0	0	1021	1021	189	0	0	
8	0	0	0	0	0	1021	1021	372	0	0	
9	0	0	0	0	0	1021	1021	574	0	0	
10	0	0	0	0	0	1021	1021	765	0	0	
11	0	0	0	0	0	1021	1021	912	0	0	
12	0	0	0	0	0	1021	1021	994	0	0	
13	0	0	0	0	0	1020	1021	999	0	0	
14	0	0	0	0	0	1020	1021	917	0	0	
15	0	0	0	0	32	1021	1021	752	0	0	
0	0	0	0	0	713	1021	1021	514	0	0	
1	0	0	0	0	1020	1021	1021	229	0	0	
2	0	0	0	0	1021	1021	1021	0	0	0	
3	0	0	0	0	1021	742	1021	0	0	0	
4	0	0	0	0	1020	1	1020	0	0	0	
5	0	0	0	0	1021	1	1021	0	0	0	
6	0	0	0	0	1021	0	1021	0	0	0	
7	0	0	0	0	1021	0	1021	0	0	0	
8	0	0	0	0	1021	0	1021	0	0	0	
9	0	0	0	0	387	566	1021	0	0	0	
10	0	0	0	0	0	1020	1021	15	0	0	
11	0	0	0	0	0	1021	1021	130	0	0	
12	0	0	0	0	0	1021	1021	291	0	0	
13	0	0	0	0	0	1021	1021	474	0	0	
14	0	0	0	0	0	1021	1021	654	0	0	
15	0	0	0	0	0	1021	1021	798	0	0	
0	0	0	0	0	0	1021	1021	884	0	0	
1	0	0	0	0	0	1020	1021	897	0	0	
2	0	0	0	0	0	1020	1021	829	0	0	
3	0	0	0	0	141	1021	1021	680	0	0	
4	0	0	0	0	894	1021	1021	460	0	0	
5	0	0	0	0	1021	1021	1021	192	0	0	
6	0	0	0	0	1021	1021	1021	0	0	0	
7	0	0	0	0	1021	703	1021	0	0	0	
8	0	0	0	0	1020	1	1021	0	0	0	
9	0	0	0	0	1020	0	1021	0	0	0	
10	0	0	0	0	1021	0	1021	0	0	0	
11	0	0	0	0	1021	0	1021	0	0	0	
12	0	0	0	0	1021	0	1021	0	0	0	
13	0	0	0	0	599	541	1021	0	0	0	
14	0	0	0	0	0	1020	1021	0	0	0	
15	0	0	0	0	0	1021	1021	80	0	0	
0	0	0	0	0	0	1021	1021	216	0	0	
1	0	0	0	0	0	1021	1021	375	0	0	
2	0	0	0	0	0	1021	1021	532	0	0	
3	0	0	0	0	0	1021	1021	663	0	0	
4	0	0	0	0	0	1021	1021	739	0	0	
5	0	0	0	0	0	1020	1021	745	0	0	
6	0	0	0	0	0	1020	1021	675	0	0	
7	0	0	0	0	287	1021	1021	531	0	0	
8	0	0	0	0	1020	1021	1021	325	0	0	
9	0	0	0	0	1021	1021	1021	83	0	0	
10	0	0	0	0	1021	1021	1021	0	0	0	
11	0	0	0	0	1021	683	1021	0	0	0	
12	0	0	0	0	1021	1	1020	0	0	0	
13	0	0	0	0	1020	1	1021	0	0	0	
14	0	0	0	0	1021	0	1021	0	0	0	
15	0	0	0	0	1021	0	1021	0	0	0	
0	0	0	0	0	1021	0	1021	0	0	0	
1	0	0	0	0	674	564	1021	0	0	0	
2	0	0	0	0	0	1020	1021	0	0	0	
3	0	0	0	0	0	1021	1021	75	0	0	
4	0	0	0	0	0	1021	1021	206	0	0	
5	0	0	0	0	0	1021	1021	360	0	0	
6	0	0	0	0	0	1021	1021	515	0	0	
7	0	0	0	0	0	1021	1021	641	0	0	
8	0	0	0	0	0	1021	1021	715	0	0	
9	0	0	0	0	0	1020	1021	719	0	0	
10	0	0	0	0	0	1020	1021	648	0	0	
11	0	0	0	0	375	1021	1021	503	0	0	
12	0	0	0	0	1020	1021	1021	299	0	0	
13	0	0	0	0	1021	1021	1021	60	0	0	
14	0	0	0	0	1021	1021	1021	0	0	0	
15	0	0	0	0	1020	687	1021	0	0	0	
0	0	0	0	0	1020	1	1021	0	0	0	
1	0	0	0	0	1021	0	1021	0	0	0	
2	0	0	0	0	1021	0	1021	0	0	0	
3	0	0	0	0	1021	0	1021	0	0	0	
4	0	0	0	0	1021	0	1021	0	0	0	
5	0	0	0	0	721	513	1021	0	0	0	
6	0	0	0	0	0	1020	1021	0	0	0	
7	0	0	0	0	0	1021	1021	81	0	0	
8	0	0	0	0	0	1021	1021	215	0	0	
9	0	0	0	0	0	1021	1021	371	0	0	
10	0	0	0	0	0	1021	1021	525	0	0	
11	0	0	0	0	0	1021	1021	652	0	0	
12	0	0	0	0	0	1021	1021	726	0	0	
13	0	0	0	0	0	1020	1021	730	0	0	
14	0	0	0	0	0	1020	1021	657	0	0	
15	0	0	0	0	334	1021	1021	511	0	0	
0	0	0	0	0	1020	1021	1021	302	0	0	
1	0	0	0	0	1021	1021	1021	59	0	0	
2	0	0	0	0	1021	1021	1021	0	0	0	
3	0	0	0	0	1021	553	1021	0	0	0	
4	0	0	0	0	1020	1	1020	0	0	0	
5	0	0	0	0	1020	1	1021	0	0	0	
6	0	0	0	0	1021	0	1021	0	0	0	
7	0	0	0	0	1021	0	1021	0	0	0	
8	0	0	0	0	1021	0	1020	0	0	0	
9	0	0	0	0	562	304	1021	0	0	0	
10	0	0	0	0	0	1020	1021	0	0	0	
11	0	0	0	0	0	1021	1021	44	0	0	
12	0	0	0	0	0	1021	1021	159	0	0	
13	0	0	0	0	0	1021	1021	299	0	0	
14	0	0	0	0	0	1021	1021	443	0	0	
15	0	0	0	0	0	1021	1021	566	0	0	
0	0	0	0	0	0	1021	1021	642	0	0	
1	0	0	0	0	0	1020	1021	654	0	0	
2	0	0	0	0	0	1021	1021	593	0	0	
3	0	0	0	0	133	1021	1020	462	0	0	
4	0	0	0	0	882	1021	1021	271	0	0	
5	0	0	0	0	1021	1021	1021	45	0	0	
6	0	0	0	0	1021	946	1021	0	0	0	
7	0	0	0	0	1021	258	1021	0	0	0	
8	0	0	0	0	1020	0	1020	0	0	0	
9	0	0	0	0	1021	0	1021	0	0	0	
10	0	0	0	0	1021	0	1021	0	0	0	
11	0	0	0	0	1021	0	1021	0	0	0	
12	0	0	0	0	955	0	1021	0	0	0	
13	0	0	0	0	260	16	1021	0	0	0	
14	0	0	0	0	0	654	1021	0	0	0	
15	0	0	0	0	0	1020	1021	37	0	0	
0	0	0	0	0	0	1021	1021	144	0	0	
1	0	0	0	0	0	1021	1020	277	0	0	
2	0	0	0	0	0	1021	1020	412	0	0	
3	0	0	0	0	0	1021	1021	527	0	0	
4	0	0	0	0	0	1020	1021	599	0	0	
5	0	0	0	0	0	1020	1021	607	0	0	
6	0	0	0	0	0	1021	1021	546	0	0	
7	0	0	0	0	0	1021	1021	416	0	0	
8	0	0	0	0	487	1021	1021	231	0	0	
9	0	0	0	0	1020	1021	1021	15	0	0	
10	0	0	0	0	1021	702	1021	0	0	0	
11	0	0	0	0	1021	1	1020	0	0	0	
12	0	0	0	0	1020	1	1021	0	0	0	
13	0	0	0	0	1021	0	1021	0	0	0	
14	0	0	0	0	1021	0	1021	0	0	0	
15	0	0	0	0	1021	0	1021	0	0	0	
0	0	0	0	0	752	0	1020	0	0	0	
1	0	0	0	0	1	0	1021	0	0	0	
2	0	0	0	0	0	299	1021	0	0	0	
3	0	0	0	0	0	1020	1021	72	0	0	
4	0	0	0	0	0	1021	1021	203	0	0	
5	0	0	0	0	0	1020	1021	357	0	0	
6	0	0	0	0	0	1021	1021	513	0	0	
7	0	0	0	0	0	1021	1021	643	0	0	
8	0	0	0	0	0	1021	1021	722	0	0	
9	0	0	0	0	0	1020	1021	733	0	0	
10	0	0	0	0	0	1021	1021	670	0	0	
11	0	0	0	0	0	1021	1020	534	0	0	
12	0	0	0	0	535	1021	1021	337	0	0	
13	0	0	0	0	1020	1021	1021	103	0	0	
14	0	0	0	0	1021	547	1021	0	0	0	
15	0	0	0	0	1021	0	1021	0	0	0	
0	0	0	0	0	1020	0	1021	0	0	0	
1	0	0	0	0	1021	0	1021	0	0	0	
2	0	0	0	0	1021	0	1021	0	0	0	
3	0	0	0	0	1021	0	1021	0	0	0	
4	0	0	0	0	932	0	1020	0	0	0	
5	0	0	0	0	221	0	1020	0	0	0	
6	0	0	0	0	0	386	1021	7	0	0	
7	0	0	0	0	0	1020	1021	111	0	0	
8	0	0	0	0	0	1021	1021	260	0	0	
9	0	0	0	0	0	1021	1021	431	0	0	
10	0	0	0	0	0	1021	1021	599	0	0	
11	0	0	0	0	0	1021	1021	736	0	0	
12	0	0	0	0	0	1020	1021	818	0	0	
13	0	0	0	0	0	1020	1021	830	0	0	
14	0	0	0	0	0	1021	1021	764	0	0	
15	0	0	0	0	131	1021	1021	622	0	0	
0	0	0	0	0	878	1021	1021	416	0	0	
1	0	0	0	0	1020	1021	1021	169	0	0	
2	0	0	0	0	1021	604	1021	0	0	0	
3	0	0	0	0	1021	0	1021	0	0	0	
4	0	0	0	0	1020	0	1020	0	0	0	
5	0	0	0	0	1020	0	1021	0	0	0	
6	0	0	0	0	1021	0	1021	0	0	0	
7	0	0	0	0	1021	0	1021	0	0	0	
8	0	0	0	0	1021	0	1021	0	0	0	
9	0	0	0	0	610	0	1021	0	0	0	
10	0	0	0	0	0	373	1021	29	0	0	
11	0	0	0	0	0	1020	1021	150	0	0	
12	0	0	0	0	0	1021	1021	311	0	0	
13	0	0	0	0	0	1021	1021	492	0	0	
14	0	0	0	0	0	1021	1021	667	0	0	
15	0	0	0	0	0	1021	1021	806	0	0	
0	0	0	0	0	0	1020	1021	886	0	0	
1	0	0	0	0	0	1020	1021	894	0	0	
2	0	0	0	0	0	1021	1021	822	0	0	
3	0	0	0	0	374	1021	1021	672	0	0	
4	0	0	0	0	1020	1021	1021	455	0	0	
5	0	0	0	0	1021	1021	1021	194	0	0	
6	0	0	0	0	1021	564	1021	0	0	0	
7	0	0	0	0	1021	0	1021	0	0	0	
8	0	0	0	0	1020	0	1021	0	0	0	
9	0	0	0	0	1020	0	1021	0	0	0	
10	0	0	0	0	1021	0	1021	0	0	0	
11	0	0	0	0	1021	0	1021	0	0	0	
12	0	0	0	0	1022	0	1020	0	0	0	
13	0	0	0	0	745	0	1021	0	0	0	
14	0	0	0	0	0	308	1021	22	0	0	
15	0	0	0	0	0	1020	1021	140	0	0	
0	0	0	0	0	0	1021	1021	300	0	0	
1	0	0	0	0	0	1020	1021	483	0	0	
2	0	0	0	0	0	1021	1021	662	0	0	
3	0	0	0	0	0	1021	1021	807	0	0	
4	0	0	0	0	0	1020	1021	894	0	0	
5	0	0	0	0	0	1020	1021	911	0	0	
6	0	0	0	0	0	1021	1021	849	0	0	
7	0	0	0	0	304	1021	1021	708	0	0	
8	0	0	0	0	1020	1021	1021	499	0	0	
9	0	0	0	0	1021	1021	1021	243	0	0	
10	0	0	0	0	1021	519	1021	0	0	0	
11	0	0	0	0	1021	0	1021	0	0	0	
12	0	0	0	0	1020	0	1020	0	0	0	
13	0	0	0	0	1020	0	1021	0	0	0	
14	0	0	0	0	1021	0	1021	0	0	0	
15	0	0	0	0	1021	0	1021	0	0	0	
0	0	0	0	0	1021	0	1021	0	0	0	
1	0	0	0	0	464	0	1021	0	0	0	
2	0	0	0	0	0	99	1021	18	0	0	
3	0	0	0	0	0	807	1021	129	0	0	
4	0	0	0	0	0	1020	1021	281	0	0	
5	0	0	0	0	0	1021	1021	455	0	0	
6	0	0	0	0	0	1021	1021	621	0	0	
7	0	0	0	0	0	1021	1021	756	0	0	
8	0	0	0	0	0	1020	1021	833	0	0	
9	0	0	0	0	0	1020	1021	841	0	0	
10	0	0	0	0	0	1021	1021	771	0	0	
11	0	0	0	0	109	1021	1021	624	0	0	
12	0	0	0	0	844	1021	1021	414	0	0	
13	0	0	0	0	1021	1021	1021	163	0	0	
14	0	0	0	0	1021	396	1021	0	0	0	
15	0	0	0	0	1021	0	1021	0	0	0	
0	0	0	0	0	1020	0	1021	0	0	0	
1	0	0	0	0	1021	0	1021	0	0	0	
2	0	0	0	0	1021	0	1021	0	0	0	
3	0	0	0	0	1021	0	1021	0	0	0	
4	0	0	0	0	962	0	1020	0	0	0	
5	0	0	0	0	272	0	1020	0	0	0	
6	0	0	0	0	0	231	1021	0	0	0	
7	0	0	0	0	0	1012	1021	77	0	0	
8	0	0	0	0	0	1020	1021	204	0	0	
9	0	0	0	0	0	1021	1021	349	0	0	
10	0	0	0	0	0	1021	1021	492	0	0	
11	0	0	0	0	0	1021	1021	606	0	0	
12	0	0	0	0	0	1020	1021	668	0	0	
13	0	0	0	0	0	1020	1021	660	0	0	
14	0	0	0	0	0	1020	1021	578	0	0	
15	0	0	0	0	70	1021	1021	426	0	0	
0	0	0	0	0	777	1021	1021	218	0	0	
1	0	0	0	0	1020	1021	1021	0	0	0	
2	0	0	0	0	1021	553	1021	0	0	0	
3	0	0	0	0	1021	0	1020	0	0	0	
4	0	0	0	0	1020	0	1020	0	0	0	
5	0	0	0	0	1020	0	1021	0	0	0	
6	0	0	0	0	1021	0	1021	0	0	0	
7	0	0	0	0	1021	0	1021	0	0	0	
8	0	0	0	0	980	0	1021	0	0	0	
9	0	0	0	0	304	0	1021	0	0	0	
10	0	0	0	0	0	182	1021	0	0	0	
11	0	0	0	0	0	937	1021	3	0	0	
12	0	0	0	0	0	1020	1021	86	0	0	
13	0	0	0	0	0	1020	1021	198	0	0	
14	0	0	0	0	0	1021	1021	317	0	0	
15	0	0	0	0	0	1021	1021	422	0	0	
0	0	0	0	0	0	1021	1021	492	0	0	
1	0	0	0	0	0	1020	1021	508	0	0	
2	0	0	0	0	0	1021	1021	462	0	0	
3	0	0	0	0	48	1021	1020	354	0	0	
4	0	0	0	0	740	1021	1021	198	0	0	
5	0	0	0	0	1020	1021	1021	9	0	0	
6	0	0	0	0	1021	497	1021	0	0	0	
7	0	0	0	0	1021	0	1020	0	0	0	
8	0	0	0	0	1020	0	1021	0	0	0	
9	0	0	0	0	1021	0	1021	0	0	0	
10	0	0	0	0	1021	0	1021	0	0	0	
11	0	0	0	0	1021	0	1021	0	0	0	
12	0	0	0	0	903	0	1021	0	0	0	
13	0	0	0	0	173	0	1021	0	0	0	
14	0	0	0	0	0	235	1021	16	0	0	
15	0	0	0	0	0	1016	1021	116	0	0	
0	0	0	0	0	0	1020	1021	255	0	0	
1	0	0	0	0	0	1021	1021	411	0	0	
2	0	0	0	0	0	1021	1021	559	0	0	
3	0	0	0	0	0	1021	1021	676	0	0	
4	0	0	0	0	0	1020	1021	738	0	0	
5	0	0	0	0	0	1020	1021	731	0	0	
6	0	0	0	0	0	1021	1021	649	0	0	
7	0	0	0	0	0	1021	1021	496	0	0	
8	0	0	0	0	649	1021	1021	287	0	0	
9	0	0	0	0	1020	1021	1021	46	0	0	
10	0	0	0	0	1021	444	1021	0	0	0	
11	0	0	0	0	1021	0	1021	0	0	0	
12	0	0	0	0	1020	0	1021	0	0	0	
13	0	0	0	0	1021	0	1021	0	0	0	
14	0	0	0	0	1021	0	1021	0	0	0	
15	0	0	0	0	1021	0	1021	0	0	0	
0	0	0	0	0	940	0	1021	0	0	0	
1	0	0	0	0	235	0	1021	0	0	0	
2	0	0	0	0	0	83	1021	0	0	0	
3	0	0	0	0	0	782	1021	46	0	0	
4	0	0	0	0	0	1020	1021	158	0	0	
5	0	0	0	0	0	1021	1021	293	0	0	
6	0	0	0	0	0	1021	1021	430	0	0	
7	0	0	0	0	0	1021	1021	543	0	0	
8	0	0	0	0	0	1020	1021	610	0	0	
9	0	0	0	0	0	1020	1021	613	0	0	
10	0	0	0	0	0	1021	1021	547	0	0	
11	0	0	0	0	133	1021	1021	415	0	0	
12	0	0	0	0	880	1021	1021	232	0	0	
13	0	0	0	0	1020	920	1021	19	0	0	
14	0	0	0	0	1021	215	1021	0	0	0	
15	0	0	0	0	1021	0	1021	0	0	0	
0	0	0	0	0	1020	0	1021	0	0	0	
1	0	0	0	0	1020	0	1021	0	0	0	
2	0	0	0	0	1021	0	1021	0	0	0	
3	0	0	0	0	1021	0	1021	0	0	0	
4	0	0	0	0	1021	0	1021	0	0	0	
5	0	0	0	0	467	0	1021	0	0	0	
6	0	0	0	0	0	0	1021	0	0	0	
7	0	0	0	0	0	570	1021	82	0	0	
8	0	0	0	0	0	1020	1021	206	0	0	
9	0	0	0	0	0	1021	1021	348	0	0	
10	0	0	0	0	0	1021	1021	487	0	0	
11	0	0	0	0	0	1021	1021	600	0	0	
12	0	0	0	0	0	1020	1021	663	0	0	
13	0	0	0	0	0	1020	1021	664	0	0	
14	0	0	0	0	0	1021	1021	595	0	0	
15	0	0	0	0	255	1021	1021	462	0	0	
0	0	0	0	0	1020	1021	1021	277	0	0	
1	0	0	0	0	1021	966	1021	64	0	0	
2	0	0	0	0	1021	292	1021	0	0	0	
3	0	0	0	0	1021	0	1021	0	0	0	
4	0	0	0	0	1020	0	1021	0	0	0	
5	0	0	0	0	1020	0	1021	0	0	0	
6	0	0	0	0	1021	0	1021	0	0	0	
7	0	0	0	0	1021	0	1021	0	0	0	
8	0	0	0	0	1021	0	1021	0	0	0	
9	0	0	0	0	644	0	1021	0	0	0	
10	0	0	0	0	0	428	1021	51	0	0	
11	0	0	0	0	0	1020	1021	178	0	0	
12	0	0	0	0	0	1021	1021	342	0	0	
13	0	0	0	0	0	1021	1021	520	0	0	
14	0	0	0	0	0	1021	1021	689	0	0	
15	0	0	0	0	0	1021	1021	820	0	0	
0	0	0	0	0	0	1021	1021	894	0	0	
1	0	0	0	0	0	1020	1021	897	0	0	
2	0	0	0	0	76	1021	1021	826	0	0	
3	0	0	0	0	786	1021	1021	679	0	0	
4	0	0	0	0	1020	1021	1021	472	0	0	
5	0	0	0	0	1021	1021	1021	225	0	0	
6	0	0	0	0	1021	823	1021	0	0	0	
7	0	0	0	0	1021	62	1021	0	0	0	
8	0	0	0	0	1021	0	1021	0	0	0	
9	0	0	0	0	1020	0	1021	0	0	0	
10	0	0	0	0	1021	0	1021	0	0	0	
11	0	0	0	0	1021	0	1021	0	0	0	
12	0	0	0	0	1021	0	1021	0	0	0	
13	0	0	0	0	1021	335	1021	3	0	0	
14	0	0	0	0	799	1020	1021	108	0	0	
15	0	0	0	0	6	1021	1021	265	0	0	
0	0	0	0	0	0	1021	1021	456	0	0	
1	0	0	0	0	0	1021	1021	659	0	0	
2	0	0	0	0	0	1021	1021	843	0	0	
3	0	0	0	0	0	1021	1021	982	0	0	
4	0	0	0	0	0	1020	1021	1021	0	0	
5	0	0	0	0	514	1020	1021	1021	0	0	
6	0	0	0	0	1020	1021	1021	961	0	0	
7	0	0	0	0	1021	1021	1021	814	0	0	
8	0	0	0	0	1021	1021	1021	601	0	0	
9	0	0	0	0	1021	1021	1021	343	0	0	
10	0	0	0	0	1021	994	1021	74	0	0	
11	0	0	0	0	1021	339	1021	0	0	0	
12	0	0	0	0	1021	1	1020	0	0	0	
13	0	0	0	0	1020	0	1021	0	0	0	
14	0	0	0	0	1020	0	1021	0	0	0	
15	0	0	0	0	1021	0	1021	0	0	0	
0	0	0	0	0	1021	0	1021	0	0	0	
1	0	0	0	0	1021	372	1021	22	0	0	
2	0	0	0	0	1021	1020	1021	149	0	0	
3	0	0	0	0	673	1021	1021	329	0	0	
4	0	0	0	0	1	1021	1021	543	0	0	
5	0	0	0	0	0	1021	1021	764	0	0	
6	0	0	0	0	0	1021	1021	958	0	0	
7	0	0	0	0	0	1021	1021	1021	0	0	
8	0	0	0	0	0	1021	1021	1021	0	0	
9	0	0	0	0	364	1020	1021	1021	0	0	
10	0	0	0	0	1020	1021	1021	982	0	0	
11	0	0	0	0	1021	1021	1021	841	0	0	
12	0	0	0	0	1021	1021	1021	631	0	0	
13	0	0	0	0	1021	1021	1021	374	0	0	
14	0	0	0	0	1021	903	1021	101	0	0	
15	0	0	0	0	1021	188	1020	1	0	0	
0	0	0	0	0	1021	0	1021	0	0	0	
1	0	0	0	0	1020	0	1021	0	0	0	
2	0	0	0	0	1021	0	1021	0	0	0	
3	0	0	0	0	1021	0	1021	0	0	0	
4	0	0	0	0	1021	0	1020	0	0	0	
5	0	0	0	0	1022	147	1020	3	0	0	
6	0	0	0	0	733	874	1021	112	0	0	
7	0	0	0	0	1	1020	1021	276	0	0	
8	0	0	0	0	0	1021	1021	476	0	0	
9	0	0	0	0	0	1021	1021	687	0	0	
10	0	0	0	0	0	1021	1021	878	0	0	
11	0	0	0	0	0	1021	1021	1020	0	0	
12	0	0	0	0	0	1020	1021	1021	0	0	
13	0	0	0	0	0	1020	1021	1021	0	0	
14	0	0	0	0	54	1021	1021	966	0	0	
15	0	0	0	0	745	1021	1021	814	0	0	
0	0	0	0	0	1020	1021	1021	594	0	0	
1	0	0	0	0	1021	1021	1021	326	0	0	
2	0	0	0	0	1021	832	1021	45	0	0	
3	0	0	0	0	1021	75	1020	0	0	0	
4	0	0	0	0	1020	1	1021	0	0	0	
5	0	0	0	0	1021	0	1021	0	0	0	
6	0	0	0	0	1021	0	1021	0	0	0	
7	0	0	0	0	1021	0	1021	0	0	0	
8	0	0	0	0	1021	0	1021	0	0	0	
9	0	0	0	0	462	0	1021	0	0	0	
10	0	0	0	0	0	623	1021	63	0	0	
11	0	0	0	0	0	1020	1021	201	0	0	
12	0	0	0	0	0	1021	1021	377	0	0	
13	0	0	0	0	0	1021	1021	566	0	0	
14	0	0	0	0	0	1021	1021	742	0	0	
15	0	0	0	0	0	1021	1021	875	0	0	
0	0	0	0	0	0	1021	1021	947	0	0	
1	0	0	0	0	0	1020	1021	947	0	0	
2	0	0	0	0	0	1021	1021	869	0	0	
3	0	0	0	0	68	1021	1021	714	0	0	
4	0	0	0	0	774	1021	1021	495	0	0	
5	0	0	0	0	1020	1021	1021	235	0	0	
6	0	0	0	0	1021	704	1021	0	0	0	
7	0	0	0	0	1020	1	1021	0	0	0	
8	0	0	0	0	1020	0	1021	0	0	0	
9	0	0	0	0	1021	0	1021	0	0	0	
10	0	0	0	0	1021	0	1021	0	0	0	
11	0	0	0	0	1021	0	1021	0	0	0	
12	0	0	0	0	894	0	1021	0	0	0	
13	0	0	0	0	159	16	1021	0	0	0	
14	0	0	0	0	0	658	1021	68	0	0	
15	0	0	0	0	0	1020	1021	207	0	0	
0	0	0	0	0	0	1021	1021	380	0	0	
1	0	0	0	0	0	1021	1021	567	0	0	
2	0	0	0	0	0	1021	1021	739	0	0	
3	0	0	0	0	0	1021	1021	870	0	0	
4	0	0	0	0	0	1021	1021	940	0	0	
5	0	0	0	0	0	1021	1021	937	0	0	
6	0	0	0	0	0	1021	1021	857	0	0	
7	0	0	0	0	258	1021	1021	700	0	0	
8	0	0	0	0	1020	1021	1021	479	0	0	
9	0	0	0	0	1021	1021	1021	216	0	0	
10	0	0	0	0	1021	770	1021	0	0	0	
11	0	0	0	0	1021	1	1021	0	0	0	
12	0	0	0	0	1020	1	1021	0	0	0	
13	0	0	0	0	1020	0	1021	0	0	0	
14	0	0	0	0	1021	0	1021	0	0	0	
15	0	0	0	0	1021	0	1021	0	0	0	
0	0	0	0	0	1021	0	1021	0	0	0	
1	0	0	0	0	792	183	1021	0	0	0	
2	0	0	0	0	1	932	1021	48	0	0	
3	0	0	0	0	0	1020	1021	177	0	0	
4	0	0	0	0	0	1021	1021	343	0	0	
5	0	0	0	0	0	1021	1021	523	0	0	
6	0	0	0	0	0	1021	1021	691	0	0	
7	0	0	0	0	0	1021	1021	818	0	0	
8	0	0	0	0	0	1021	1021	885	0	0	
9	0	0	0	0	0	1020	1021	881	0	0	
10	0	0	0	0	241	1021	1020	799	0	0	
11	0	0	0	0	1020	1021	1021	644	0	0	
12	0	0	0	0	1021	1021	1021	428	0	0	
13	0	0	0	0	1021	1021	1021	175	0	0	
14	0	0	0	0	1021	902	1021	0	0	0	
15	0	0	0	0	1021	187	1020	0	0	0	
0	0	0	0	0	1020	1	1021	0	0	0	
1	0	0	0	0	1020	0	1021	0	0	0	
2	0	0	0	0	1021	0	1021	0	0	0	
3	0	0	0	0	1021	0	1021	0	0	0	
4	0	0	0	0	1021	0	1021	0	0	0	
5	0	0	0	0	1021	492	1021	0	0	0	
6	0	0	0	0	737	1020	1021	57	0	0	
7	0	0	0	0	0	1021	1021	189	0	0	
8	0	0	0	0	0	1021	1021	356	0	0	
9	0	0	0	0	0	1021	1021	536	0	0	
10	0	0	0	0	0	1021	1021	702	0	0	
11	0	0	0	0	0	1021	1021	826	0	0	
12	0	0	0	0	0	1021	1021	891	0	0	
13	0	0	0	0	132	1020	1021	883	0	0	
14	0	0	0	0	871	1021	1021	798	0	0	
15	0	0	0	0	1021	1021	1020	638	0	0	
0	0	0	0	0	1021	1021	1021	417	0	0	
1	0	0	0	0	1021	1021	1021	159	0	0	
2	0	0	0	0	1021	1021	1021	0	0	0	
3	0	0	0	0	1021	422	1021	0	0	0	
4	0	0	0	0	1021	1	1020	0	0	0	
5	0	0	0	0	1020	0	1021	0	0	0	
6	0	0	0	0	1021	0	1021	0	0	0	
7	0	0	0	0	1021	0	1021	0	0	0	
8	0	0	0	0	1021	57	1021	0	0	0	
9	0	0	0	0	1022	708	1021	0	0	0	
10	0	0	0	0	801	1020	1021	40	0	0	
11	0	0	0	0	9	1021	1021	163	0	0	
12	0	0	0	0	0	1021	1021	322	0	0	
13	0	0	0	0	0	1021	1020	496	0	0	
14	0	0	0	0	1	1021	1021	661	0	0	
15	0	0	0	0	0	1021	1021	789	0	0	
0	0	0	0	0	0	1021	1021	859	0	0	
1	0	0	0	0	0	1020	1021	862	0	0	
2	0	0	0	0	417	1021	1021	790	0	0	
3	0	0	0	0	1020	1021	1021	643	0	0	
4	0	0	0	0	1021	1021	1021	436	0	0	
5	0	0	0	0	1021	1021	1021	191	0	0	
6	0	0	0	0	1021	1021	1021	0	0	0	
7	0	0	0	0	1021	485	1020	0	0	0	
8	0	0	0	0	1020	1	1021	0	0	0	
9	0	0	0	0	1021	0	1021	0	0	0	
10	0	0	0	0	1021	0	1021	0	0	0	
11	0	0	0	0	1021	0	1021	0	0	0	
12	0	0	0	0	1021	42	1021	0	0	0	
13	0	0	0	0	910	679	1021	0	0	0	
14	0	0	0	0	183	1020	1021	44	0	0	
15	0	0	0	0	0	1021	1021	168	0	0	
0	0	0	0	0	0	1021	1021	331	0	0	
1	0	0	0	0	0	1021	1021	508	0	0	
2	0	0	0	0	0	1021	1021	678	0	0	
3	0	0	0	0	0	1021	1021	810	0	0	
4	0	0	0	0	0	1020	1021	884	0	0	
5	0	0	0	0	0	1020	1021	889	0	0	
6	0	0	0	0	0	1021	1021	817	0	0	
7	0	0	0	0	495	1021	1021	670	0	0	
8	0	0	0	0	1020	1021	1021	463	0	0	
9	0	0	0	0	1021	1021	1021	216	0	0	
10	0	0	0	0	1021	993	1021	1	0	0	
11	0	0	0	0	1021	338	1021	0	0	0	
12	0	0	0	0	1020	1	1021	0	0	0	
13	0	0	0	0	1021	0	1021	0	0	0	
14	0	0	0	0	1021	0	1021	0	0	0	
15	0	0	0	0	1021	0	1021	0	0	0	
0	0	0	0	0	1021	0	1021	0	0	0	
1	0	0	0	0	478	384	1021	0	0	0	
2	0	0	0	0	0	1020	1021	75	0	0	
3	0	0	0	0	0	1021	1021	213	0	0	
4	0	0	0	0	0	1021	1021	384	0	0	
5	0	0	0	0	0	1021	1021	565	0	0	
6	0	0	0	0	0	1021	1021	729	0	0	
7	0	0	0	0	0	1021	1021	850	0	0	
8	0	0	0	0	0	1020	1021	911	0	0	
9	0	0	0	0	0	1020	1021	899	0	0	
10	0	0	0	0	0	1021	1021	809	0	0	
11	0	0	0	0	266	1021	1021	646	0	0	
12	0	0	0	0	1020	1021	1021	423	0	0	
13	0	0	0	0	1021	1021	1021	164	0	0	
14	0	0	0	0	1021	788	1021	0	0	0	
15	0	0	0	0	1021	10	1021	0	0	0	
0	0	0	0	0	1020	1	1021	0	0	0	
1	0	0	0	0	1021	0	1021	0	0	0	
2	0	0	0	0	1021	0	1021	0	0	0	
3	0	0	0	0	1021	0	1021	0	0	0	
4	0	0	0	0	1021	0	1021	0	0	0	
5	0	0	0	0	396	128	1021	0	0	0	
6	0	0	0	0	0	846	1021	27	0	0	
7	0	0	0	0	0	1020	1021	139	0	0	
8	0	0	0	0	0	1021	1021	289	0	0	
9	0	0	0	0	0	1021	1021	456	0	0	
10	0	0	0	0	0	1021	1021	618	0	0	
11	0	0	0	0	0	1021	1021	745	0	0	
12	0	0	0	0	0	1020	1021	817	0	0	
13	0	0	0	0	0	1020	1021	820	0	0	
14	0	0	0	0	0	1020	1021	750	0	0	
15	0	0	0	0	268	1021	1021	607	0	0	
0	0	0	0	0	1020	1021	1021	406	0	0	
1	0	0	0	0	1021	1021	1021	168	0	0	
2	0	0	0	0	1021	627	1021	0	0	0	
3	0	0	0	0	1021	0	1020	0	0	0	
4	0	0	0	0	1020	0	1020	0	0	0	
5	0	0	0	0	1021	0	1021	0	0	0	
6	0	0	0	0	1021	0	1021	0	0	0	
7	0	0	0	0	1021	0	1021	0	0	0	
8	0	0	0	0	1021	0	1021	0	0	0	
9	0	0	0	0	455	0	1021	0	0	0	
10	0	0	0	0	0	486	1021	41	0	0	
11	0	0	0	0	0	1020	1021	163	0	0	
12	0	0	0	0	0	1021	1021	323	0	0	
13	0	0	0	0	0	1021	1021	498	0	0	
14	0	0	0	0	0	1021	1021	664	0	0	
15	0	0	0	0	0	1021	1021	795	0	0	
0	0	0	0	0	0	1021	1021	868	0	0	
1	0	0	0	0	0	1020	1021	873	0	0	
2	0	0	0	0	0	1021	1021	801	0	0	
3	0	0	0	0	413	1021	1021	657	0	0	
4	0	0	0	0	1020	1021	1021	452	0	0	
5	0	0	0	0	1021	1021	1021	209	0	0	
6	0	0	0	0	1021	501	1021	1	0	0	
7	0	0	0	0	1021	0	1021	0	0	0	
8	0	0	0	0	1020	0	1020	0	0	0	
9	0	0	0	0	1021	0	1021	0	0	0	
10	0	0	0	0	1021	0	1021	0	0	0	
11	0	0	0	0	1021	0	1021	0	0	0	
12	0	0	0	0	1021	0	1021	0	0	0	
13	0	0	0	0	512	0	1021	0	0	0	
14	0	0	0	0	0	456	1021	45	0	0	
15	0	0	0	0	0	1020	1021	164	0	0	
0	0	0	0	0	0	1021	1021	317	0	0	
1	0	0	0	0	0	1021	1020	482	0	0	
2	0	0	0	0	0	1021	1020	635	0	0	
3	0	0	0	0	0	1020	1021	749	0	0	
4	0	0	0	0	0	1020	1021	804	0	0	
5	0	0	0	0	0	1020	1021	788	0	0	
6	0	0	0	0	0	1021	1021	697	0	0	
7	0	0	0	0	376	1021	1021	536	0	0	
8	0	0	0	0	1020	1021	1021	320	0	0	
9	0	0	0	0	1021	1021	1021	76	0	0	
10	0	0	0	0	1021	473	1021	0	0	0	
11	0	0	0	0	1021	0	1021	0	0	0	
12	0	0	0	0	1020	0	1021	0	0	0	
13	0	0	0	0	1021	0	1021	0	0	0	
14	0	0	0	0	1021	0	1021	0	0	0	
15	0	0	0	0	1021	0	1021	0	0	0	
0	0	0	0	0	1021	0	1021	0	0	0	
1	0	0	0	0	375	0	1021	0	0	0	
2	0	0	0	0	0	454	1021	62	0	0	
3	0	0	0	0	0	1020	1021	195	0	0	
4	0	0	0	0	0	1021	1021	362	0	0	
5	0	0	0	0	0	1021	1021	542	0	0	
6	0	0	0	0	0	1021	1021	707	0	0	
7	0	0	0	0	0	1021	1021	829	0	0	
8	0	0	0	0	0	1020	1021	890	0	0	
9	0	0	0	0	0	1020	1021	878	0	0	
10	0	0	0	0	0	1021	1021	785	0	0	
11	0	0	0	0	208	1021	1020	615	0	0	
12	0	0	0	0	1000	1021	1021	384	0	0	
13	0	0	0	0	1021	1021	1021	115	0	0	
14	0	0	0	0	1021	435	1021	0	0	0	
15	0	0	0	0	1021	0	1021	0	0	0	
0	0	0	0	0	1020	0	1020	0	0	0	
1	0	0	0	0	1021	0	1021	0	0	0	
2	0	0	0	0	1021	0	1021	0	0	0	
3	0	0	0	0	1021	0	1021	0	0	0	
4	0	0	0	0	871	0	1021	0	0	0	
5	0	0	0	0	121	0	1021	0	0	0	
6	0	0	0	0	0	365	1021	30	0	0	
7	0	0	0	0	0	1020	1021	150	0	0	
8	0	0	0	0	0	1021	1021	308	0	0	
9	0	0	0	0	0	1021	1020	484	0	0	
10	0	0	0	0	0	1021	1020	652	0	0	
11	0	0	0	0	0	1021	1021	783	0	0	
12	0	0	0	0	0	1021	1021	857	0	0	
13	0	0	0	0	0	1020	1021	862	0	0	
14	0	0	0	0	0	1021	1021	792	0	0	
15	0	0	0	0	116	1021	1021	650	0	0	
0	0	0	0	0	854	1021	1021	449	0	0	
1	0	0	0	0	1020	999	1021	211	0	0	
2	0	0	0	0	1021	348	1021	0	0	0	
3	0	0	0	0	1021	0	1021	0	0	0	
4	0	0	0	0	1020	0	1021	0	0	0	
5	0	0	0	0	1021	0	1021	0	0	0	
6	0	0	0	0	1021	0	1021	0	0	0	
7	0	0	0	0	1021	0	1021	0	0	0	
8	0	0	0	0	836	0	1021	0	0	0	
9	0	0	0	0	65	0	1021	0	0	0	
10	0	0	0	0	0	289	1021	73	0	0	
11	0	0	0	0	0	1020	1021	206	0	0	
12	0	0	0	0	0	1021	1021	369	0	0	
13	0	0	0	0	0	1021	1021	541	0	0	
14	0	0	0	0	0	1021	1021	696	0	0	
15	0	0	0	0	0	1021	1021	809	0	0	
0	0	0	0	0	0	1020	1021	863	0	0	
1	0	0	0	0	0	1020	1021	846	0	0	
2	0	0	0	0	0	1021	1021	754	0	0	
3	0	0	0	0	182	1021	1021	590	0	0	
4	0	0	0	0	959	1021	1021	370	0	0	
5	0	0	0	0	1021	948	1021	121	0	0	
6	0	0	0	0	1021	262	1021	0	0	0	
7	0	0	0	0	1021	0	1021	0	0	0	
8	0	0	0	0	1020	0	1021	0	0	0	
9	0	0	0	0	1021	0	1021	0	0	0	
10	0	0	0	0	1021	0	1021	0	0	0	
11	0	0	0	0	1021	0	1021	0	0	0	
12	0	0	0	0	987	0	1021	0	0	0	
13	0	0	0	0	316	0	1021	19	0	0	
14	0	0	0	0	0	265	1021	137	0	0	
15	0	0	0	0	0	1020	1021	303	0	0	
0	0	0	0	0	0	1021	1021	496	0	0	
1	0	0	0	0	0	1021	1021	691	0	0	
2	0	0	0	0	0	1021	1021	860	0	0	
3	0	0	0	0	0	1021	1021	975	0	0	
4	0	0	0	0	0	1020	1021	1021	0	0	
5	0	0	0	0	0	1020	1021	999	0	0	
6	0	0	0	0	0	1021	1021	892	0	0	
7	0	0	0	0	495	1021	1021	711	0	0	
8	0	0	0	0	1020	1021	1021	471	0	0	
9	0	0	0	0	1021	937	1021	197	0	0	
10	0	0	0	0	1021	244	1021	0	0	0	
11	0	0	0	0	1021	0	1020	0	0	0	
12	0	0	0	0	1020	0	1020	0	0	0	
13	0	0	0	0	1020	0	1021	0	0	0	
14	0	0	0	0	1021	0	1021	0	0	0	
15	0	0	0	0	1021	0	1021	0	0	0	
0	0	0	0	0	1021	0	1021	0	0	0	
1	0	0	0	0	672	0	1021	8	0	0	
2	0	0	0	0	0	263	1021	121	0	0	
3	0	0	0	0	0	1020	1021	287	0	0	
4	0	0	0	0	0	1021	1021	484	0	0	
5	0	0	0	0	0	1021	1021	689	0	0	
6	0	0	0	0	0	1021	1021	872	0	0	
7	0	0	0	0	0	1020	1021	1008	0	0	
8	0	0	0	0	0	1020	1021	1021	0	0	
9	0	0	0	0	0	1020	1021	1021	0	0	
10	0	0	0	0	114	1021	1021	964	0	0	
11	0	0	0	0	849	1021	1021	818	0	0	
12	0	0	0	0	1020	1021	1021	609	0	0	
13	0	0	0	0	1021	917	1021	361	0	0	
14	0	0	0	0	1021	209	1021	107	0	0	
15	0	0	0	0	1021	0	1020	0	0	0	
0	0	0	0	0	1020	0	1021	0	0	0	
1	0	0	0	0	1020	0	1021	0	0	0	
2	0	0	0	0	1021	0	1021	0	0	0	
3	0	0	0	0	1021	0	1021	0	0	0	
4	0	0	0	0	1021	0	1021	28	0	0	
5	0	0	0	0	956	0	1021	166	0	0	
6	0	0	0	0	259	199	1021	366	0	0	
7	0	0	0	0	0	966	1021	609	0	0	
8	0	0	0	0	0	1020	1021	869	0	0	
9	0	0	0	0	0	1021	1021	1020	0	0	
10	0	0	0	0	0	1021	1020	1021	0	0	
11	0	0	0	0	0	1021	1021	1021	0	0	
12	0	0	0	0	0	1020	1021	1021	0	0	
13	0	0	0	0	97	1020	1021	1021	0	0	
14	0	0	0	0	817	1021	1021	1021	0	0	
15	0	0	0	0	1021	1021	1021	1003	0	0	
0	0	0	0	0	1021	1021	1021	898	0	0	
1	0	0	0	0	1021	922	1021	753	0	0	
2	0	0	0	0	1021	218	1021	588	0	0	
3	0	0	0	0	1021	0	1020	430	0	0	
4	0	0	0	0	1021	0	1020	305	0	0	
5	0	0	0	0	1020	0	1021	240	0	0	
6	0	0	0	0	1020	0	1021	244	0	0	
7	0	0	0	0	1021	0	1021	325	0	0	
8	0	0	0	0	1021	0	1021	481	0	0	
9	0	0	0	0	1022	0	1021	702	0	0	
10	0	0	0	0	1021	384	1021	967	0	0	
11	0	0	0	0	670	1020	1021	1021	0	0	
12	0	0	0	0	109	1021	1021	1021	0	0	
13	0	0	0	0	0	1021	1021	1021	0	0	
14	0	0	0	0	195	1021	1021	1021	0	0	
15	0	0	0	0	836	1021	1021	1021	0	0	
0	0	0	0	0	1021	1021	1021	1021	0	0	
1	0	0	0	0	1021	1021	1021	1021	0	0	
2	0	0	0	0	1021	1021	1021	1021	0	0	
3	0	0	0	0	1022	1021	1021	1021	0	0	
4	0	0	0	0	1021	1021	1021	1021	0	0	
5	0	0	0	0	1021	1021	1021	1021	0	0	
6	0	0	0	0	1021	399	1021	1021	0	0	
7	0	0	0	0	1021	0	1020	1021	0	0	
8	0	0	0	0	1021	0	1021	1021	0	0	
9	0	0	0	0	1021	0	1021	1021	0	0	
10	0	0	0	0	1020	0	1021	1021	0	0	
11	0	0	0	0	1021	0	1021	1021	0	0	
12	0	0	0	0	1021	0	1021	1021	0	0	
13	0	0	0	0	1021	37	1021	1021	0	0	
14	0	0	0	0	1021	695	1021	1021	0	0	
15	0	0	0	0	1022	1021	1021	1021	0	0	
0	0	0	0	0	1022	1021	1021	1021	0	0	
1	0	0	0	0	1022	1021	1021	1021	0	0	
2	0	0	0	0	1022	1021	1021	1021	0	0	
3	0	0	0	0	1021	1021	1021	1021	0	0	
4	0	0	0	0	1021	1021	1021	1021	0	0	
5	0	0	0	0	1021	1021	1021	1021	0	0	
6	0	0	0	0	1021	1021	1021	1021	0	0	
7	0	0	0	0	1021	1021	1021	1021	0	0	
8	0	0	0	0	1021	1021	1021	1021	0	0	
9	0	0	0	0	1021	1021	1021	1021	0	0	
10	0	0	0	0	1021	523	1021	1021	0	0	
11	0	0	0	0	1021	0	1021	1021	0	0	
12	0	0	0	0	1021	0	1021	1021	0	0	
13	0	0	0	0	1020	0	1021	1021	0	0	
14	0	0	0	0	1020	0	1021	1021	0	0	
15	0	0	0	0	1021	0	1021	1021	0	0	
0	0	0	0	0	1021	0	1021	1021	0	0	
1	0	0	0	0	1021	0	1021	1021	0	0	
2	0	0	0	0	1021	627	1021	1021	0	0	
3	0	0	0	0	1021	1020	1021	1021	0	0	
4	0	0	0	0	777	1021	1021	1021	0	0	
5	0	0	0	0	429	1021	1021	1021	0	0	
6	0	0	0	0	468	1021	1021	1021	0	0	
7	0	0	0	0	903	1021	1021	1021	0	0	
8	0	0	0	0	1021	1021	1021	1021	0	0	
9	0	0	0	0	1021	1021	1021	1021	0	0	
10	0	0	0	0	1021	1021	1021	1021	0	0	
11	0	0	0	0	1021	1021	1021	1021	0	0	
12	0	0	0	0	1021	1021	1021	1021	0	0	
13	0	0	0	0	1021	1021	1021	974	0	0	
14	0	0	0	0	1021	485	1021	866	0	0	
15	0	0	0	0	1022	0	1021	736	0	0	
0	0	0	0	0	1020	0	1021	606	0	0	
1	0	0	0	0	1020	0	1021	497	0	0	
2	0	0	0	0	1021	0	1021	432	0	0	
3	0	0	0	0	1021	0	1021	422	0	0	
4	0	0	0	0	1021	0	1021	472	0	0	
5	0	0	0	0	1021	38	1021	581	0	0	
6	0	0	0	0	972	697	1021	737	0	0	
7	0	0	0	0	284	1020	1021	920	0	0	
8	0	0	0	0	0	1021	1021	1021	0	0	
9	0	0	0	0	0	1021	1021	1021	0	0	
10	0	0	0	0	0	1021	1021	1021	0	0	
11	0	0	0	0	0	1021	1021	1021	0	0	
12	0	0	0	0	0	1020	1021	1021	0	0	
13	0	0	0	0	83	1020	1021	1021	0	0	
14	0	0	0	0	787	1021	1021	1021	0	0	
15	0	0	0	0	1021	1021	1021	1011	0	0	
0	0	0	0	0	1021	1021	1021	912	0	0	
1	0	0	0	0	1021	1021	1021	767	0	0	
2	0	0	0	0	1021	664	1021	591	0	0	
3	0	0	0	0	1021	1	1020	411	0	0	
4	0	0	0	0	1020	0	1020	254	0	0	
5	0	0	0	0	1020	0	1021	145	0	0	
6	0	0	0	0	1021	0	1021	96	0	0	
7	0	0	0	0	1021	0	1021	115	0	0	
8	0	0	0	0	1021	0	1021	205	0	0	
9	0	0	0	0	909	294	1020	359	0	0	
10	0	0	0	0	181	1020	1021	564	0	0	
11	0	0	0	0	0	1020	1021	801	0	0	
12	0	0	0	0	0	1021	1021	1020	0	0	
13	0	0	0	0	0	1021	1021	1021	0	0	
14	0	0	0	0	0	1021	1021	1021	0	0	
15	0	0	0	0	0	1021	1021	1021	0	0	
0	0	0	0	0	0	1020	1021	1021	0	0	
1	0	0	0	0	0	1020	1021	1021	0	0	
2	0	0	0	0	518	1021	1020	1021	0	0	
3	0	0	0	0	1021	1021	1021	966	0	0	
4	0	0	0	0	1021	1021	1021	829	0	0	
5	0	0	0	0	1021	1021	1021	642	0	0	
6	0	0	0	0	1021	860	1021	429	0	0	
7	0	0	0	0	1021	140	1020	220	0	0	
8	0	0	0	0	1020	0	1021	44	0	0	
9	0	0	0	0	1021	0	1021	0	0	0	
10	0	0	0	0	1021	0	1021	0	0	0	
11	0	0	0	0	1022	0	1021	0	0	0	
12	0	0	0	0	1021	186	1021	68	0	0	
13	0	0	0	0	790	922	1021	218	0	0	
14	0	0	0	0	1	1020	1021	423	0	0	
15	0	0	0	0	0	1021	1021	664	0	0	
0	0	0	0	0	0	1021	1021	913	0	0	
1	0	0	0	0	0	1021	1021	1021	0	0	
2	0	0	0	0	0	1021	1020	1021	0	0	
3	0	0	0	0	0	1021	1021	1021	0	0	
4	0	0	0	0	0	1020	1021	1021	0	0	
5	0	0	0	0	56	1020	1021	1021	0	0	
6	0	0	0	0	748	1021	1021	1014	0	0	
7	0	0	0	0	1020	1021	1021	900	0	0	
8	0	0	0	0	1021	1021	1021	721	0	0	
9	0	0	0	0	1021	1021	1021	497	0	0	
10	0	0	0	0	1021	1002	1021	254	0	0	
11	0	0	0	0	1021	381	1021	25	0	0	
12	0	0	0	0	1020	1	1020	0	0	0	
13	0	0	0	0	1020	0	1021	0	0	0	
14	0	0	0	0	1021	0	1021	0	0	0	
15	0	0	0	0	1021	0	1021	0	0	0	
0	0	0	0	0	1021	366	1021	16	0	0	
1	0	0	0	0	911	1020	1021	139	0	0	
2	0	0	0	0	183	1021	1021	320	0	0	
3	0	0	0	0	0	1021	1021	545	0	0	
4	0	0	0	0	0	1021	1021	789	0	0	
5	0	0	0	0	0	1021	1021	1017	0	0	
6	0	0	0	0	0	1021	1021	1021	0	0	
7	0	0	0	0	0	1021	1021	1021	0	0	
8	0	0	0	0	0	1020	1021	1021	0	0	
9	0	0	0	0	210	1020	1021	1021	0	0	
10	0	0	0	0	997	1021	1021	1021	0	0	
11	0	0	0	0	1021	1021	1021	915	0	0	
12	0	0	0	0	1021	1021	1021	743	0	0	
13	0	0	0	0	1021	1021	1021	524	0	0	
14	0	0	0	0	1021	712	1021	282	0	0	
15	0	0	0	0	1021	0	1021	51	0	0	
0	0	0	0	0	1020	0	1021	0	0	0	
1	0	0	0	0	1020	0	1021	0	0	0	
2	0	0	0	0	1021	0	1021	0	0	0	
3	0	0	0	0	1021	0	1021	0	0	0	
4	0	0	0	0	1021	0	1020	0	0	0	
5	0	0	0	0	931	0	1020	95	0	0	
6	0	0	0	0	218	337	1021	252	0	0	
7	0	0	0	0	0	1020	1021	452	0	0	
8	0	0	0	0	0	1021	1021	672	0	0	
9	0	0	0	0	0	1021	1021	885	0	0	
10	0	0	0	0	0	1021	1021	1020	0	0	
11	0	0	0	0	0	1020	1021	1021	0	0	
12	0	0	0	0	0	1020	1021	1021	0	0	
13	0	0	0	0	0	1020	1021	1021	0	0	
14	0	0	0	0	480	1021	1021	967	0	0	
15	0	0	0	0	1020	1021	1021	822	0	0	
0	0	0	0	0	1021	1021	1021	614	0	0	
1	0	0	0	0	1021	511	1021	367	0	0	
2	0	0	0	0	1021	0	1021	110	0	0	
3	0	0	0	0	1021	0	1021	0	0	0	
4	0	0	0	0	1020	0	1021	0	0	0	
5	0	0	0	0	1021	0	1021	0	0	0	
6	0	0	0	0	1021	0	1021	0	0	0	
7	0	0	0	0	1021	0	1021	0	0	0	
8	0	0	0	0	1005	0	1021	0	0	0	
9	0	0	0	0	347	0	1021	62	0	0	
10	0	0	0	0	0	0	1021	207	0	0	
11	0	0	0	0	0	21	1021	399	0	0	
12	0	0	0	0	0	678	1021	618	0	0	
13	0	0	0	0	0	1020	1021	837	0	0	
14	0	0	0	0	0	1020	1021	1021	0	0	
15	0	0	0	0	0	1020	1021	1021	0	0	
0	0	0	0	0	0	1020	1021	1021	0	0	
1	0	0	0	0	0	1021	1021	1021	0	0	
2	0	0	0	0	0	1021	1021	1004	0	0	
3	0	0	0	0	396	1021	1021	888	0	0	
4	0	0	0	0	1020	599	1021	711	0	0	
5	0	0	0	0	1021	0	1021	492	0	0	
6	0	0	0	0	1020	0	1021	257	0	0	
7	0	0	0	0	1020	0	1021	39	0	0	
8	0	0	0	0	1021	0	1021	0	0	0	
9	0	0	0	0	1021	0	1021	0	0	0	
10	0	0	0	0	1021	0	1021	0	0	0	
11	0	0	0	0	628	0	1021	0	0	0	
12	0	0	0	0	0	0	1021	50	0	0	
13	0	0	0	0	0	0	1021	200	0	0	
14	0	0	0	0	0	0	1021	412	0	0	
15	0	0	0	0	0	70	1021	668	0	0	
0	0	0	0	0	0	763	1021	941	0	0	
1	0	0	0	0	0	1020	1021	1021	0	0	
2	0	0	0	0	0	1020	1021	1021	0	0	
3	0	0	0	0	0	1020	1021	1021	0	0	
4	0	0	0	0	0	1020	1021	1021	0	0	
5	0	0	0	0	0	1020	1021	1021	0	0	
6	0	0	0	0	0	1021	1021	1021	0	0	
7	0	0	0	0	0	1021	1021	1021	0	0	
8	0	0	0	0	0	883	1021	975	0	0	
9	0	0	0	0	585	159	1021	856	0	0	
10	0	0	0	0	1019	0	1021	702	0	0	
11	0	0	0	0	1020	0	1021	535	0	0	
12	0	0	0	0	1021	0	1021	380	0	0	
13	0	0	0	0	529	0	1021	265	0	0	
14	0	0	0	0	0	0	1021	205	0	0	
15	0	0	0	0	0	0	1021	212	0	0	
0	0	0	0	0	0	0	1020	287	0	0	
1	0	0	0	0	0	0	1021	425	0	0	
2	0	0	0	0	0	0	1021	613	0	0	
3	0	0	0	0	0	18	1021	830	0	0	
4	0	0	0	0	0	675	1021	1020	0	0	
5	0	0	0	0	0	1020	1021	1021	0	0	
6	0	0	0	0	0	1020	1021	1021	0	0	
7	0	0	0	0	0	1020	1021	1021	0	0	
8	0	0	0	0	0	1020	1021	1021	0	0	
9	0	0	0	0	0	1021	1021	1021	0	0	
10	0	0	0	0	0	1021	1021	1021	0	0	
11	0	0	0	0	0	1021	1021	994	0	0	
12	0	0	0	0	0	578	1021	884	0	0	
13	0	0	0	0	0	0	1021	729	0	0	
14	0	0	0	0	0	0	1021	549	0	0	
15	0	0	0	0	0	0	1020	367	0	0	
0	0	0	0	0	0	0	1021	212	0	0	
1	0	0	0	0	0	0	1021	106	0	0	
2	0	0	0	0	0	0	1021	61	0	0	
3	0	0	0	0	0	0	1021	86	0	0	
4	0	0	0	0	0	0	1021	182	0	0	
5	0	0	0	0	0	0	1021	341	0	0	
6	0	0	0	0	0	0	1021	549	0	0	
7	0	0	0	0	0	0	1021	785	0	0	
8	0	0	0	0	0	47	1021	1016	0	0	
9	0	0	0	0	0	725	1021	1021	0	0	
10	0	0	0	0	0	1020	1021	1021	0	0	
11	0	0	0	0	0	1020	1021	1021	0	0	
12	0	0	0	0	0	1020	1021	1021	0	0	
13	0	0	0	0	0	1021	1021	1021	0	0	
14	0	0	0	0	0	1021	1021	1001	0	0	
15	0	0	0	0	0	709	1021	880	0	0	
0	0	0	0	0	0	1	1021	702	0	0	
1	0	0	0	0	1	0	1021	484	0	0	
2	0	0	0	0	504	0	1021	254	0	0	
3	0	0	0	0	804	0	1021	43	0	0	
4	0	0	0	0	679	0	1021	0	0	0	
5	0	0	0	0	159	0	1021	0	0	0	
6	0	0	0	0	0	0	1021	0	0	0	
7	0	0	0	0	0	0	1021	0	0	0	
8	0	0	0	0	0	0	1021	38	0	0	
9	0	0	0	0	0	0	1021	167	0	0	
10	0	0	0	0	0	0	1021	347	0	0	
11	0	0	0	0	0	0	1021	563	0	0	
12	0	0	0	0	0	0	1021	791	0	0	
13	0	0	0	0	0	599	1021	999	0	0	
14	0	0	0	0	0	1020	1021	1021	0	0	
15	0	0	0	0	0	1020	1021	1021	0	0	
0	0	0	0	0	0	1020	1021	1021	0	0	
1	0	0	0	0	0	1021	1021	1021	0	0	
2	0	0	0	0	0	1021	1021	965	0	0	
3	0	0	0	0	0	764	1021	815	0	0	
4	0	0	0	0	0	1	1021	604	0	0	
5	0	0	0	0	553	0	1021	354	0	0	
6	0	0	0	0	1020	0	1021	97	0	0	
7	0	0	0	0	1020	0	1021	0	0	0	
8	0	0	0	0	1020	0	1021	0	0	0	
9	0	0	0	0	1021	0	1021	0	0	0	
10	0	0	0	0	971	0	1021	0	0	0	
11	0	0	0	0	312	0	1021	0	0	0	
12	0	0	0	0	0	0	1021	0	0	0	
13	0	0	0	0	0	0	1021	59	0	0	
14	0	0	0	0	0	0	1021	199	0	0	
15	0	0	0	0	0	0	1021	382	0	0	
0	0	0	0	0	0	154	1021	590	0	0	
1	0	0	0	0	0	900	1021	796	0	0	
2	0	0	0	0	0	1020	1021	968	0	0	
3	0	0	0	0	0	1020	1021	1021	0	0	
4	0	0	0	0	0	1020	1021	1021	0	0	
5	0	0	0	0	0	1021	1021	1021	0	0	
6	0	0	0	0	0	1021	1021	941	0	0	
7	0	0	0	0	29	1021	1021	779	0	0	
8	0	0	0	0	706	402	1021	559	0	0	
9	0	0	0	0	1020	0	1021	303	0	0	
10	0	0	0	0	1021	0	1021	46	0	0	
11	0	0	0	0	1020	0	1021	0	0	0	
12	0	0	0	0	1020	0	1021	0	0	0	
13	0	0	0	0	1021	0	1021	0	0	0	
14	0	0	0	0	1021	0	1021	0	0	0	
15	0	0	0	0	1021	0	1021	0	0	0	
0	0	0	0	0	632	0	1021	0	0	0	
1	0	0	0	0	0	0	1021	70	0	0	
2	0	0	0	0	0	0	1021	220	0	0	
3	0	0	0	0	0	0	1021	415	0	0	
4	0	0	0	0	0	630	1021	633	0	0	
5	0	0	0	0	0	1020	1021	848	0	0	
6	0	0	0	0	0	1020	1021	1021	0	0	
7	0	0	0	0	0	1020	1021	1021	0	0	
8	0	0	0	0	0	1020	1021	1021	0	0	
9	0	0	0	0	0	1020	1021	1021	0	0	
10	0	0	0	0	0	1021	1021	978	0	0	
11	0	0	0	0	483	1021	1021	841	0	0	
12	0	0	0	0	1020	819	1021	644	0	0	
13	0	0	0	0	1021	57	1021	405	0	0	
14	0	0	0	0	1021	0	1021	151	0	0	
15	0	0	0	0	1020	0	1021	0	0	0	
0	0	0	0	0	1020	0	1021	0	0	0	
1	0	0	0	0	1021	0	1021	0	0	0	
2	0	0	0	0	1021	0	1021	0	0	0	
3	0	0	0	0	1021	0	1021	0	0	0	
4	0	0	0	0	758	0	1021	0	0	0	
5	0	0	0	0	0	0	1021	50	0	0	
6	0	0	0	0	0	0	1021	185	0	0	
7	0	0	0	0	0	161	1021	364	0	0	
8	0	0	0	0	0	909	1021	568	0	0	
9	0	0	0	0	0	1021	1021	773	0	0	
10	0	0	0	0	0	1021	1021	948	0	0	
11	0	0	0	0	0	1020	1021	1021	0	0	
12	0	0	0	0	0	1020	1021	1021	0	0	
13	0	0	0	0	0	1021	1021	1021	0	0	
14	0	0	0	0	0	1021	1021	964	0	0	
15	0	0	0	0	284	1021	1021	819	0	0	
0	0	0	0	0	1020	892	1021	614	0	0	
1	0	0	0	0	1021	172	1021	370	0	0	
2	0	0	0	0	1021	0	1021	118	0	0	
3	0	0	0	0	1020	0	1021	0	0	0	
4	0	0	0	0	1021	0	1020	0	0	0	
5	0	0	0	0	1021	0	1021	0	0	0	
6	0	0	0	0	1021	0	1021	0	0	0	
7	0	0	0	0	1021	0	1021	0	0	0	
8	0	0	0	0	447	0	1021	0	0	0	
9	0	0	0	0	0	0	1021	39	0	0	
10	0	0	0	0	0	0	1021	159	0	0	
11	0	0	0	0	0	152	1021	317	0	0	
12	0	0	0	0	0	895	1020	495	0	0	
13	0	0	0	0	0	1021	1021	670	0	0	
14	0	0	0	0	0	1021	1021	816	0	0	
15	0	0	0	0	0	1020	1021	911	0	0	
0	0	0	0	0	0	1020	1021	946	0	0	
1	0	0	0	0	0	1020	1021	911	0	0	
2	0	0	0	0	0	1021	1021	805	0	0	
3	0	0	0	0	176	1021	1020	632	0	0	
4	0	0	0	0	950	841	1021	410	0	0	
5	0	0	0	0	1021	91	1021	163	0	0	
6	0	0	0	0	1021	0	1021	0	0	0	
7	0	0	0	0	1020	0	1021	0	0	0	
8	0	0	0	0	1021	0	1021	0	0	0	
9	0	0	0	0	1021	0	1021	0	0	0	
10	0	0	0	0	1021	0	1021	0	0	0	
11	0	0	0	0	1021	0	1021	0	0	0	
12	0	0	0	0	522	0	1020	0	0	0	
13	0	0	0	0	0	0	1020	11	0	0	
14	0	0	0	0	0	0	1021	115	0	0	
15	0	0	0	0	0	177	1021	266	0	0	
0	0	0	0	0	0	935	1021	447	0	0	
1	0	0	0	0	0	1020	1021	632	0	0	
2	0	0	0	0	0	1021	1020	798	0	0	
3	0	0	0	0	0	1020	1021	918	0	0	
4	0	0	0	0	0	1020	1021	980	0	0	
5	0	0	0	0	0	1020	1021	973	0	0	
6	0	0	0	0	0	1021	1021	892	0	0	
7	0	0	0	0	339	1021	1021	741	0	0	
8	0	0	0	0	1020	887	1021	531	0	0	
9	0	0	0	0	1021	163	1021	285	0	0	
10	0	0	0	0	1021	0	1021	35	0	0	
11	0	0	0	0	1020	0	1021	0	0	0	
12	0	0	0	0	1020	0	1021	0	0	0	
13	0	0	0	0	1021	0	1021	0	0	0	
14	0	0	0	0	1021	0	1021	0	0	0	
15	0	0	0	0	1021	0	1021	0	0	0	
0	0	0	0	0	803	0	1021	0	0	0	
1	0	0	0	0	13	0	1021	12	0	0	
2	0	0	0	0	0	0	1021	116	0	0	
3	0	0	0	0	0	282	1021	265	0	0	
4	0	0	0	0	0	1020	1021	442	0	0	
5	0	0	0	0	0	1021	1021	623	0	0	
6	0	0	0	0	0	1021	1021	782	0	0	
7	0	0	0	0	0	1020	1021	894	0	0	
8	0	0	0	0	0	1020	1021	947	0	0	
9	0	0	0	0	0	1020	1021	929	0	0	
10	0	0	0	0	22	1021	1021	839	0	0	
11	0	0	0	0	691	1021	1021	681	0	0	
12	0	0	0	0	1020	973	1021	468	0	0	
13	0	0	0	0	1021	306	1021	225	0	0	
14	0	0	0	0	1021	0	1021	0	0	0	
15	0	0	0	0	1021	0	1020	0	0	0	
0	0	0	0	0	1020	0	1020	0	0	0	
1	0	0	0	0	1021	0	1021	0	0	0	
2	0	0	0	0	1021	0	1021	0	0	0	
3	0	0	0	0	1021	0	1021	0	0	0	
4	0	0	0	0	1021	0	1020	0	0	0	
5	0	0	0	0	394	0	1020	31	0	0	
6	0	0	0	0	0	0	1021	147	0	0	
7	0	0	0	0	0	499	1021	304	0	0	
8	0	0	0	0	0	1020	1021	485	0	0	
9	0	0	0	0	0	1021	1020	665	0	0	
10	0	0	0	0	0	1021	1021	818	0	0	
11	0	0	0	0	0	1021	1021	919	0	0	
12	0	0	0	0	0	1020	1021	958	0	0	
13	0	0	0	0	0	1020	1021	924	0	0	
14	0	0	0	0	166	1021	1021	815	0	0	
15	0	0	0	0	933	1021	1021	638	0	0	
0	0	0	0	0	1021	1021	1021	408	0	0	
1	0	0	0	0	1021	563	1021	152	0	0	
2	0	0	0	0	1021	0	1021	0	0	0	
3	0	0	0	0	1021	0	1021	0	0	0	
4	0	0	0	0	1020	0	1021	0	0	0	
5	0	0	0	0	1021	0	1021	0	0	0	
6	0	0	0	0	1021	0	1021	0	0	0	
7	0	0	0	0	1021	0	1021	0	0	0	
8	0	0	0	0	1021	0	1021	0	0	0	
9	0	0	0	0	656	0	1021	1	0	0	
10	0	0	0	0	0	378	1021	95	0	0	
11	0	0	0	0	0	1020	1021	233	0	0	
12	0	0	0	0	0	1021	1021	398	0	0	
13	0	0	0	0	0	1021	1021	567	0	0	
14	0	0	0	0	0	1021	1021	718	0	0	
15	0	0	0	0	0	1021	1021	824	0	0	
0	0	0	0	0	0	1020	1021	871	0	0	
1	0	0	0	0	0	1020	1021	851	0	0	
2	0	0	0	0	388	1021	1021	756	0	0	
3	0	0	0	0	1020	1021	1021	597	0	0	
4	0	0	0	0	1021	1021	1021	386	0	0	
5	0	0	0	0	1021	912	1021	149	0	0	
6	0	0	0	0	1021	201	1021	0	0	0	
7	0	0	0	0	1021	0	1021	0	0	0	
8	0	0	0	0	1020	0	1021	0	0	0	
9	0	0	0	0	1021	0	1021	0	0	0	
10	0	0	0	0	1021	0	1021	0	0	0	
11	0	0	0	0	1021	0	1021	0	0	0	
12	0	0	0	0	1022	0	1020	0	0	0	
13	0	0	0	0	767	0	1021	24	0	0	
14	0	0	0	0	1	628	1021	135	0	0	
15	0	0	0	0	0	1020	1021	290	0	0	
0	0	0	0	0	0	1021	1021	470	0	0	
1	0	0	0	0	0	1021	1021	650	0	0	
2	0	0	0	0	0	1021	1021	804	0	0	
3	0	0	0	0	0	1021	1021	907	0	0	
4	0	0	0	0	0	1020	1021	946	0	0	
5	0	0	0	0	0	1020	1021	912	0	0	
6	0	0	0	0	309	1021	1021	802	0	0	
7	0	0	0	0	1020	1021	1021	622	0	0	
8	0	0	0	0	1021	1021	1021	390	0	0	
9	0	0	0	0	1021	923	1021	129	0	0	
10	0	0	0	0	1021	220	1021	0	0	0	
11	0	0	0	0	1021	0	1021	0	0	0	
12	0	0	0	0	1020	0	1020	0	0	0	
13	0	0	0	0	1021	0	1021	0	0	0	
14	0	0	0	0	1021	0	1021	0	0	0	
15	0	0	0	0	1021	0	1021	0	0	0	
0	0	0	0	0	1021	0	1021	0	0	0	
1	0	0	0	0	573	0	1021	0	0	0	
2	0	0	0	0	0	540	1021	33	0	0	
3	0	0	0	0	0	1020	1021	138	0	0	
4	0	0	0	0	0	1021	1021	271	0	0	
5	0	0	0	0	0	1021	1021	415	0	0	
6	0	0	0	0	0	1021	1021	545	0	0	
7	0	0	0	0	0	1021	1021	643	0	0	
8	0	0	0	0	0	1020	1021	686	0	0	
9	0	0	0	0	0	1020	1021	667	0	0	
10	0	0	0	0	146	1021	1021	584	0	0	
11	0	0	0	0	901	1021	1021	443	0	0	
12	0	0	0	0	1021	1021	1021	260	0	0	
13	0	0	0	0	1021	836	1021	58	0	0	
14	0	0	0	0	1021	81	1021	0	0	0	
15	0	0	0	0	1021	0	1020	0	0	0	
0	0	0	0	0	1020	0	1021	0	0	0	
1	0	0	0	0	1021	0	1021	0	0	0	
2	0	0	0	0	1021	0	1021	0	0	0	
3	0	0	0	0	1021	0	1021	0	0	0	
4	0	0	0	0	1021	0	1021	0	0	0	
5	0	0	0	0	429	0	1021	0	0	0	
6	0	0	0	0	0	398	1021	61	0	0	
7	0	0	0	0	0	1020	1021	176	0	0	
8	0	0	0	0	0	1021	1021	318	0	0	
9	0	0	0	0	0	1021	1021	465	0	0	
10	0	0	0	0	0	1021	1021	597	0	0	
11	0	0	0	0	0	1020	1021	691	0	0	
12	0	0	0	0	0	1020	1021	728	0	0	
13	0	0	0	0	0	1020	1021	700	0	0	
14	0	0	0	0	109	1021	1021	604	0	0	
15	0	0	0	0	840	1021	1021	448	0	0	
0	0	0	0	0	1020	1021	1021	248	0	0	
1	0	0	0	0	1021	733	1021	29	0	0	
2	0	0	0	0	1021	1	1021	0	0	0	
3	0	0	0	0	1021	0	1021	0	0	0	
4	0	0	0	0	1020	0	1020	0	0	0	
5	0	0	0	0	1021	0	1021	0	0	0	
6	0	0	0	0	1021	0	1021	0	0	0	
7	0	0	0	0	1021	0	1021	0	0	0	
8	0	0	0	0	1021	0	1021	0	0	0	
9	0	0	0	0	400	0	1021	0	0	0	
10	0	0	0	0	0	281	1021	34	0	0	
11	0	0	0	0	0	1020	1021	137	0	0	
12	0	0	0	0	0	1021	1021	267	0	0	
13	0	0	0	0	0	1021	1021	406	0	0	
14	0	0	0	0	0	1021	1021	533	0	0	
15	0	0	0	0	0	1021	1021	624	0	0	
0	0	0	0	0	0	1020	1021	661	0	0	
1	0	0	0	0	0	1020	1020	632	0	0	
2	0	0	0	0	136	1021	1021	537	0	0	
3	0	0	0	0	884	1021	1021	381	0	0	
4	0	0	0	0	1020	1021	1021	183	0	0	
5	0	0	0	0	1021	627	1021	0	0	0	
6	0	0	0	0	1021	1	1021	0	0	0	
7	0	0	0	0	1021	0	1021	0	0	0	
8	0	0	0	0	1020	0	1021	0	0	0	
9	0	0	0	0	1021	0	1021	0	0	0	
10	0	0	0	0	1021	0	1021	0	0	0	
11	0	0	0	0	1021	0	1021	0	0	0	
12	0	0	0	0	1015	0	1021	0	0	0	
13	0	0	0	0	361	0	1021	0	0	0	
14	0	0	0	0	0	97	1021	14	0	0	
15	0	0	0	0	0	806	1021	105	0	0	
0	0	0	0	0	0	1020	1021	228	0	0	
1	0	0	0	0	0	1021	1021	360	0	0	
2	0	0	0	0	0	1021	1021	483	0	0	
3	0	0	0	0	0	1020	1021	573	0	0	
4	0	0	0	0	0	1020	1021	611	0	0	
5	0	0	0	0	0	1020	1021	586	0	0	
6	0	0	0	0	149	1021	1021	496	0	0	
7	0	0	0	0	906	1021	1021	348	0	0	
8	0	0	0	0	1021	1021	1021	162	0	0	
9	0	0	0	0	1021	480	1021	0	0	0	
10	0	0	0	0	1021	0	1021	0	0	0	
11	0	0	0	0	1020	0	1021	0	0	0	
12	0	0	0	0	1020	0	1021	0	0	0	
13	0	0	0	0	1021	0	1021	0	0	0	
14	0	0	0	0	1021	0	1021	0	0	0	
15	0	0	0	0	1021	0	1021	0	0	0	
0	0	0	0	0	1021	0	1021	0	0	0	
1	0	0	0	0	410	0	1021	0	0	0	
2	0	0	0	0	0	20	1021	2	0	0	
3	0	0	0	0	0	675	1021	76	0	0	
4	0	0	0	0	0	1020	1021	180	0	0	
5	0	0	0	0	0	1021	1021	296	0	0	
6	0	0	0	0	0	1020	1021	406	0	0	
7	0	0	0	0	0	1020	1021	490	0	0	
8	0	0	0	0	0	1020	1021	531	0	0	
9	0	0	0	0	0	1020	1021	518	0	0	
10	0	0	0	0	200	1021	1021	446	0	0	
11	0	0	0	0	986	1021	1021	321	0	0	
12	0	0	0	0	1020	1004	1021	159	0	0	
13	0	0	0	0	1021	359	1021	0	0	0	
14	0	0	0	0	1021	0	1021	0	0	0	
15	0	0	0	0	1021	0	1021	0	0	0	
0	0	0	0	0	1020	0	1021	0	0	0	
1	0	0	0	0	1021	0	1021	0	0	0	
2	0	0	0	0	1021	0	1021	0	0	0	
3	0	0	0	0	1021	0	1021	0	0	0	
4	0	0	0	0	1021	0	1021	0	0	0	
5	0	0	0	0	504	0	1021	0	0	0	
6	0	0	0	0	0	68	1021	40	0	0	
7	0	0	0	0	0	758	1021	144	0	0	
8	0	0	0	0	0	1021	1021	274	0	0	
9	0	0	0	0	0	1021	1021	410	0	0	
10	0	0	0	0	0	1021	1021	531	0	0	
11	0	0	0	0	0	1021	1021	616	0	0	
12	0	0	0	0	0	1020	1021	647	0	0	
13	0	0	0	0	0	1020	1020	614	0	0	
14	0	0	0	0	272	1021	1021	520	0	0	
15	0	0	0	0	1020	1022	1021	370	0	0	
0	0	0	0	0	1021	1021	1021	183	0	0	
1	0	0	0	0	1021	434	1021	0	0	0	
2	0	0	0	0	1021	0	1021	0	0	0	
3	0	0	0	0	1021	0	1021	0	0	0	
4	0	0	0	0	1020	0	1020	0	0	0	
5	0	0	0	0	1021	0	1021	0	0	0	
6	0	0	0	0	1021	0	1021	0	0	0	
7	0	0	0	0	1021	0	1021	0	0	0	
8	0	0	0	0	1021	0	1021	0	0	0	
9	0	0	0	0	580	0	1020	0	0	0	
10	0	0	0	0	0	88	1021	53	0	0	
11	0	0	0	0	0	791	1021	166	0	0	
12	0	0	0	0	0	1020	1021	306	0	0	
13	0	0	0	0	0	1021	1021	453	0	0	
14	0	0	0	0	0	1021	1021	585	0	0	
15	0	0	0	0	0	1020	1021	679	0	0	
0	0	0	0	0	0	1020	1021	718	0	0	
1	0	0	0	0	0	1020	1021	691	0	0	
2	0	0	0	0	422	1021	1021	599	0	0	
3	0	0	0	0	1020	1022	1020	445	0	0	
4	0	0	0	0	1021	1021	1021	247	0	0	
5	0	0	0	0	1021	484	1021	30	0	0	
6	0	0	0	0	1021	0	1021	0	0	0	
7	0	0	0	0	1021	0	1021	0	0	0	
8	0	0	0	0	1020	0	1021	0	0	0	
9	0	0	0	0	1021	0	1021	0	0	0	
10	0	0	0	0	1021	0	1021	0	0	0	
11	0	0	0	0	1021	0	1021	0	0	0	
12	0	0	0	0	1021	0	1021	0	0	0	
13	0	0	0	0	739	0	1021	0	0	0	
14	0	0	0	0	0	247	1021	48	0	0	
15	0	0	0	0	0	1020	1021	162	0	0	
0	0	0	0	0	0	1020	1021	306	0	0	
1	0	0	0	0	0	1021	1021	459	0	0	
2	0	0	0	0	0	1021	1021	598	0	0	
3	0	0	0	0	0	1020	1021	700	0	0	
4	0	0	0	0	0	1020	1021	744	0	0	
5	0	0	0	0	0	1020	1021	723	0	0	
6	0	0	0	0	515	1021	1021	634	0	0	
7	0	0	0	0	1020	1022	1021	483	0	0	
8	0	0	0	0	1021	1021	1021	285	0	0	
9	0	0	0	0	1021	538	1021	66	0	0	
10	0	0	0	0	1021	0	1021	0	0	0	
11	0	0	0	0	1021	0	1021	0	0	0	
12	0	0	0	0	1020	0	1020	0	0	0	
13	0	0	0	0	1021	0	1021	0	0	0	
14	0	0	0	0	1021	0	1021	0	0	0	
15	0	0	0	0	1021	0	1021	0	0	0	
0	0	0	0	0	1021	0	1021	0	0	0	
1	0	0	0	0	657	0	1020	0	0	0	
2	0	0	0	0	0	107	1021	67	0	0	
3	0	0	0	0	0	822	1021	187	0	0	
4	0	0	0	0	0	1020	1021	330	0	0	
5	0	0	0	0	0	1021	1021	478	0	0	
6	0	0	0	0	0	1021	1021	608	0	0	
7	0	0	0	0	0	1020	1021	697	0	0	
8	0	0	0	0	0	1020	1021	729	0	0	
9	0	0	0	0	0	1020	1021	695	0	0	
10	0	0	0	0	265	1021	1021	595	0	0	
11	0	0	0	0	1020	1022	1021	437	0	0	
12	0	0	0	0	1021	978	1021	239	0	0	
13	0	0	0	0	1021	313	1021	27	0	0	
14	0	0	0	0	1021	0	1021	0	0	0	
15	0	0	0	0	1021	0	1021	0	0	0	
0	0	0	0	0	1020	0	1021	0	0	0	
1	0	0	0	0	1021	0	1021	0	0	0	
2	0	0	0	0	1021	0	1021	0	0	0	
3	0	0	0	0	1021	0	1021	0	0	0	
4	0	0	0	0	1021	0	1021	0	0	0	
5	0	0	0	0	411	0	1021	23	0	0	
6	0	0	0	0	0	146	1021	127	0	0	
7	0	0	0	0	0	884	1021	270	0	0	
8	0	0	0	0	0	1020	1021	433	0	0	
9	0	0	0	0	0	1021	1021	596	0	0	
10	0	0	0	0	0	1021	1021	734	0	0	
11	0	0	0	0	0	1020	1021	823	0	0	
12	0	0	0	0	0	1020	1021	852	0	0	
13	0	0	0	0	0	1020	1021	813	0	0	
14	0	0	0	0	134	1021	1021	702	0	0	
15	0	0	0	0	881	1021	1021	527	0	0	
0	0	0	0	0	1021	1021	1021	305	0	0	
1	0	0	0	0	1021	521	1021	62	0	0	
2	0	0	0	0	1021	0	1021	0	0	0	
3	0	0	0	0	1020	0	1021	0	0	0	
4	0	0	0	0	1020	0	1021	0	0	0	
5	0	0	0	0	1021	0	1021	0	0	0	
6	0	0	0	0	1021	0	1021	0	0	0	
7	0	0	0	0	1021	0	1021	0	0	0	
8	0	0	0	0	947	0	1021	0	0	0	
9	0	0	0	0	246	0	1021	0	0	0	
10	0	0	0	0	0	345	1021	46	0	0	
11	0	0	0	0	0	1020	1021	159	0	0	
12	0	0	0	0	0	1021	1021	301	0	0	
13	0	0	0	0	0	1021	1021	452	0	0	
14	0	0	0	0	0	1021	1021	587	0	0	
15	0	0	0	0	0	1020	1021	685	0	0	
0	0	0	0	0	0	1020	1021	727	0	0	
1	0	0	0	0	0	1020	1021	703	0	0	
2	0	0	0	0	0	1020	1021	611	0	0	
3	0	0	0	0	655	1022	1021	459	0	0	
4	0	0	0	0	1020	1021	1021	261	0	0	
5	0	0	0	0	1021	715	1021	44	0	0	
6	0	0	0	0	1021	1	1021	0	0	0	
7	0	0	0	0	1020	0	1020	0	0	0	
8	0	0	0	0	1020	0	1020	0	0	0	
9	0	0	0	0	1021	0	1021	0	0	0	
10	0	0	0	0	1021	0	1021	0	0	0	
11	0	0	0	0	1021	0	1021	0	0	0	
12	0	0	0	0	766	0	1021	0	0	0	
13	0	0	0	0	0	0	1020	0	0	0	
14	0	0	0	0	0	495	1021	35	0	0	
15	0	0	0	0	0	1020	1021	135	0	0	
0	0	0	0	0	0	1021	1021	262	0	0	
1	0	0	0	0	0	1021	1021	395	0	0	
2	0	0	0	0	0	1021	1020	515	0	0	
3	0	0	0	0	0	1021	1021	599	0	0	
4	0	0	0	0	0	1020	1021	630	0	0	
5	0	0	0	0	0	1020	1021	596	0	0	
6	0	0	0	0	0	1021	1021	498	0	0	
7	0	0	0	0	541	1021	1021	342	0	0	
8	0	0	0	0	1020	1021	1021	147	0	0	
9	0	0	0	0	1021	795	1021	0	0	0	
10	0	0	0	0	1021	18	1021	0	0	0	
11	0	0	0	0	1020	0	1021	0	0	0	
12	0	0	0	0	1020	0	1021	0	0	0	
13	0	0	0	0	1021	0	1021	0	0	0	
14	0	0	0	0	1021	0	1021	0	0	0	
15	0	0	0	0	1021	0	1021	0	0	0	
0	0	0	0	0	717	0	1021	0	0	0	
1	0	0	0	0	0	0	1021	0	0	0	
2	0	0	0	0	0	516	1021	0	0	0	
3	0	0	0	0	0	1020	1021	20	0	0	
4	0	0	0	0	0	1021	1021	97	0	0	
5	0	0	0	0	0	1021	1021	190	0	0	
6	0	0	0	0	0	1021	1021	280	0	0	
7	0	0	0	0	0	1021	1021	348	0	0	
8	0	0	0	0	0	1020	1021	379	0	0	
9	0	0	0	0	0	1020	1021	359	0	0	
10	0	0	0	0	0	1021	1020	287	0	0	
11	0	0	0	0	551	1021	1020	166	0	0	
12	0	0	0	0	1020	1021	1021	7	0	0	
13	0	0	0	0	1021	754	1021	0	0	0	
14	0	0	0	0	1021	1	1021	0	0	0	
15	0	0	0	0	1020	0	1021	0	0	0	
0	0	0	0	0	1020	0	1021	0	0	0	
1	0	0	0	0	1021	0	1021	0	0	0	
2	0	0	0	0	1021	0	1021	0	0	0	
3	0	0	0	0	1021	0	1021	0	0	0	
4	0	0	0	0	772	0	1021	0	0	0	
5	0	0	0	0	0	0	1020	0	0	0	
6	0	0	0	0	0	438	1021	0	0	0	
7	0	0	0	0	0	1020	1021	9	0	0	
8	0	0	0	0	0	1021	1021	71	0	0	
9	0	0	0	0	0	1021	1021	148	0	0	
10	0	0	0	0	0	1021	1021	223	0	0	
11	0	0	0	0	0	1020	1021	280	0	0	
12	0	0	0	0	0	1020	1021	307	0	0	
13	0	0	0	0	0	1020	1021	294	0	0	
14	0	0	0	0	0	1021	1021	237	0	0	
15	0	0	0	0	647	1021	1021	140	0	0	
0	0	0	0	0	1020	1021	1021	13	0	0	
1	0	0	0	0	1021	681	1021	0	0	0	
2	0	0	0	0	1021	1	1021	0	0	0	
3	0	0	0	0	1020	0	1021	0	0	0	
4	0	0	0	0	1020	0	1020	0	0	0	
5	0	0	0	0	1021	0	1021	0	0	0	
6	0	0	0	0	1021	0	1021	0	0	0	
7	0	0	0	0	1021	0	1021	0	0	0	
8	0	0	0	0	841	0	1021	0	0	0	
9	0	0	0	0	71	0	1021	24	0	0	
10	0	0	0	0	0	451	1021	122	0	0	
11	0	0	0	0	0	1020	1021	255	0	0	
12	0	0	0	0	0	1021	1021	404	0	0	
13	0	0	0	0	0	1021	1021	551	0	0	
14	0	0	0	0	0	1021	1021	672	0	0	
15	0	0	0	0	0	1020	1021	745	0	0	
0	0	0	0	0	0	1020	1021	757	0	0	
1	0	0	0	0	0	1020	1021	700	0	0	
2	0	0	0	0	59	1021	1021	575	0	0	
3	0	0	0	0	756	1022	1021	394	0	0	
4	0	0	0	0	1020	1021	1021	178	0	0	
5	0	0	0	0	1021	679	1021	0	0	0	
6	0	0	0	0	1021	1	1021	0	0	0	
7	0	0	0	0	1020	0	1021	0	0	0	
8	0	0	0	0	1020	0	1021	0	0	0	
9	0	0	0	0	1021	0	1021	0	0	0	
10	0	0	0	0	1021	0	1021	0	0	0	
11	0	0	0	0	1021	0	1021	0	0	0	
12	0	0	0	0	912	0	1021	0	0	0	
13	0	0	0	0	187	0	1021	16	0	0	
14	0	0	0	0	0	332	1021	119	0	0	
15	0	0	0	0	0	1020	1021	263	0	0	
0	0	0	0	0	0	1021	1021	429	0	0	
1	0	0	0	0	0	1021	1021	595	0	0	
2	0	0	0	0	0	1021	1021	738	0	0	
3	0	0	0	0	0	1020	1021	833	0	0	
4	0	0	0	0	0	1020	1021	867	0	0	
5	0	0	0	0	0	1020	1021	833	0	0	
6	0	0	0	0	135	1021	1021	728	0	0	
7	0	0	0	0	884	1021	1021	560	0	0	
8	0	0	0	0	1021	1021	1021	346	0	0	
9	0	0	0	0	1021	647	1021	111	0	0	
10	0	0	0	0	1021	1	1021	0	0	0	
11	0	0	0	0	1021	0	1021	0	0	0	
12	0	0	0	0	1020	0	1021	0	0	0	
13	0	0	0	0	1021	0	1021	0	0	0	
14	0	0	0	0	1021	0	1021	0	0	0	
15	0	0	0	0	1021	0	1021	0	0	0	
0	0	0	0	0	986	0	1021	0	0	0	
1	0	0	0	0	311	0	1021	17	0	0	
2	0	0	0	0	0	345	1021	120	0	0	
3	0	0	0	0	0	1020	1021	266	0	0	
4	0	0	0	0	0	1021	1021	435	0	0	
5	0	0	0	0	0	1021	1021	606	0	0	
6	0	0	0	0	0	1021	1021	752	0	0	
7	0	0	0	0	0	1021	1021	851	0	0	
8	0	0	0	0	0	1020	1021	888	0	0	
9	0	0	0	0	0	1020	1021	856	0	0	
10	0	0	0	0	259	1021	1021	751	0	0	
11	0	0	0	0	1020	1021	1021	578	0	0	
12	0	0	0	0	1021	1021	1021	355	0	0	
13	0	0	0	0	1021	670	1021	110	0	0	
14	0	0	0	0	1021	1	1021	0	0	0	
15	0	0	0	0	1021	0	1021	0	0	0	
0	0	0	0	0	1020	0	1021	0	0	0	
1	0	0	0	0	1021	0	1021	0	0	0	
2	0	0	0	0	1021	0	1021	0	0	0	
3	0	0	0	0	1021	0	1021	0	0	0	
4	0	0	0	0	1021	0	1021	0	0	0	
5	0	0	0	0	480	0	1021	0	0	0	
6	0	0	0	0	0	421	1021	85	0	0	
7	0	0	0	0	0	1020	1021	216	0	0	
8	0	0	0	0	0	1021	1021	371	0	0	
9	0	0	0	0	0	1021	1021	531	0	0	
10	0	0	0	0	0	1021	1021	670	0	0	
11	0	0	0	0	0	1021	1021	765	0	0	
12	0	0	0	0	0	1020	1021	800	0	0	
13	0	0	0	0	0	1020	1021	768	0	0	
14	0	0	0	0	433	1021	1021	666	0	0	
15	0	0	0	0	1020	1021	1021	503	0	0	
0	0	0	0	0	1021	1021	1021	294	0	0	
1	0	0	0	0	1021	737	1021	66	0	0	
2	0	0	0	0	1021	1	1021	0	0	0	
3	0	0	0	0	1021	0	1021	0	0	0	
4	0	0	0	0	1020	0	1020	0	0	0	
5	0	0	0	0	1021	0	1021	0	0	0	
6	0	0	0	0	1021	0	1021	0	0	0	
7	0	0	0	0	1021	0	1021	0	0	0	
8	0	0	0	0	1021	0	1020	0	0	0	
9	0	0	0	0	664	0	1021	0	0	0	
10	0	0	0	0	0	569	1021	59	0	0	
11	0	0	0	0	0	1020	1021	177	0	0	
12	0	0	0	0	0	1021	1021	321	0	0	
13	0	0	0	0	0	1021	1021	472	0	0	
14	0	0	0	0	0	1021	1021	607	0	0	
15	0	0	0	0	0	1020	1021	704	0	0	
0	0	0	0	0	0	1020	1021	743	0	0	
1	0	0	0	0	0	1020	1021	718	0	0	
2	0	0	0	0	594	1021	1021	625	0	0	
3	0	0	0	0	1020	1021	1021	472	0	0	
4	0	0	0	0	1021	1021	1021	275	0	0	
5	0	0	0	0	1021	819	1021	60	0	0	
6	0	0	0	0	1021	54	1021	0	0	0	
7	0	0	0	0	1021	1	1021	0	0	0	
8	0	0	0	0	1020	0	1021	0	0	0	
9	0	0	0	0	1021	0	1021	0	0	0	
10	0	0	0	0	1021	0	1021	0	0	0	
11	0	0	0	0	1021	0	1021	0	0	0	
12	0	0	0	0	1021	0	1021	0	0	0	
13	0	0	0	0	684	30	1020	0	0	0	
14	0	0	0	0	0	687	1021	83	0	0	
15	0	0	0	0	0	1020	1021	207	0	0	
0	0	0	0	0	0	1021	1021	353	0	0	
1	0	0	0	0	0	1022	1021	500	0	0	
2	0	0	0	0	0	1021	1021	627	0	0	
3	0	0	0	0	0	1020	1021	708	0	0	
4	0	0	0	0	0	1020	1021	731	0	0	
5	0	0	0	0	0	1020	1021	686	0	0	
6	0	0	0	0	496	1021	1021	574	0	0	
7	0	0	0	0	1020	1022	1021	405	0	0	
8	0	0	0	0	1021	1021	1021	197	0	0	
9	0	0	0	0	1021	843	1021	0	0	0	
10	0	0	0	0	1021	92	1021	0	0	0	
11	0	0	0	0	1021	0	1021	0	0	0	
12	0	0	0	0	1020	0	1021	0	0	0	
13	0	0	0	0	1021	0	1021	0	0	0	
14	0	0	0	0	1021	0	1021	0	0	0	
15	0	0	0	0	1021	0	1021	0	0	0	
0	0	0	0	0	1021	0	1021	0	0	0	
1	0	0	0	0	534	203	1021	0	0	0	
2	0	0	0	0	0	966	1021	65	0	0	
3	0	0	0	0	0	1020	1021	183	0	0	
4	0	0	0	0	0	1021	1021	325	0	0	
5	0	0	0	0	0	1021	1021	473	0	0	
6	0	0	0	0	0	1021	1021	604	0	0	
7	0	0	0	0	0	1021	1021	695	0	0	
8	0	0	0	0	0	1020	1021	728	0	0	
9	0	0	0	0	0	1020	1021	696	0	0	
10	0	0	0	0	251	1021	1021	598	0	0	
11	0	0	0	0	1020	1022	1021	439	0	0	
12	0	0	0	0	1021	1021	1021	237	0	0	
13	0	0	0	0	1021	913	1021	19	0	0	
14	0	0	0	0	1021	203	1021	0	0	0	
15	0	0	0	0	1020	0	1021	0	0	0	
0	0	0	0	0	1020	0	1021	0	0	0	
1	0	0	0	0	1021	0	1021	0	0	0	
2	0	0	0	0	1021	0	1021	0	0	0	
3	0	0	0	0	1021	0	1021	0	0	0	
4	0	0	0	0	975	0	1021	0	0	0	
5	0	0	0	0	293	163	1021	0	0	0	
6	0	0	0	0	0	904	1021	50	0	0	
7	0	0	0	0	0	1020	1021	159	0	0	
8	0	0	0	0	0	1021	1021	292	0	0	
9	0	0	0	0	0	1021	1021	431	0	0	
10	0	0	0	0	0	1021	1021	552	0	0	
11	0	0	0	0	0	1020	1021	638	0	0	
12	0	0	0	0	0	1020	1021	668	0	0	
13	0	0	0	0	0	1020	1021	634	0	0	
14	0	0	0	0	78	1021	1021	537	0	0	
15	0	0	0	0	789	1021	1021	385	0	0	
0	0	0	0	0	1021	1021	1021	196	0	0	
1	0	0	0	0	1021	835	1021	0	0	0	
2	0	0	0	0	1021	80	1021	0	0	0	
3	0	0	0	0	1020	0	1021	0	0	0	
4	0	0	0	0	1020	0	1021	0	0	0	
5	0	0	0	0	1021	0	1021	0	0	0	
6	0	0	0	0	1021	0	1021	0	0	0	
7	0	0	0	0	1021	0	1021	0	0	0	
8	0	0	0	0	778	0	1021	0	0	0	
9	0	0	0	0	1	47	1021	0	0	0	
10	0	0	0	0	0	715	1021	35	0	0	
11	0	0	0	0	0	1020	1021	129	0	0	
12	0	0	0	0	0	1021	1021	247	0	0	
13	0	0	0	0	0	1021	1021	369	0	0	
14	0	0	0	0	0	1021	1021	478	0	0	
15	0	0	0	0	0	1021	1021	552	0	0	
0	0	0	0	0	0	1020	1021	577	0	0	
1	0	0	0	0	0	1020	1021	543	0	0	
2	0	0	0	0	0	1021	1021	449	0	0	
3	0	0	0	0	601	1021	1021	306	0	0	
4	0	0	0	0	1020	1021	1021	132	0	0	
5	0	0	0	0	1021	686	1021	0	0	0	
6	0	0	0	0	1021	1	1021	0	0	0	
7	0	0	0	0	1020	0	1021	0	0	0	
8	0	0	0	0	1020	0	1021	0	0	0	
9	0	0	0	0	1021	0	1021	0	0	0	
10	0	0	0	0	1021	0	1021	0	0	0	
11	0	0	0	0	1021	0	1021	0	0	0	
12	0	0	0	0	736	0	1021	0	0	0	
13	0	0	0	0	1	0	1021	2	0	0	
14	0	0	0	0	0	520	1021	81	0	0	
15	0	0	0	0	0	1020	1021	197	0	0	
0	0	0	0	0	0	1021	1021	331	0	0	
1	0	0	0	0	0	1021	1021	463	0	0	
2	0	0	0	0	0	1021	1021	575	0	0	
3	0	0	0	0	0	1020	1021	644	0	0	
4	0	0	0	0	0	1020	1021	657	0	0	
5	0	0	0	0	0	1020	1021	607	0	0	
6	0	0	0	0	1	1021	1021	495	0	0	
7	0	0	0	0	661	1021	1021	329	0	0	
8	0	0	0	0	1020	1021	1021	132	0	0	
9	0	0	0	0	1021	516	1021	0	0	0	
10	0	0	0	0	1021	0	1021	0	0	0	
11	0	0	0	0	1020	0	1021	0	0	0	
12	0	0	0	0	1020	0	1021	0	0	0	
13	0	0	0	0	1021	0	1021	0	0	0	
14	0	0	0	0	1021	0	1021	0	0	0	
15	0	0	0	0	1021	0	1021	0	0	0	
0	0	0	0	0	799	0	1020	0	0	0	
1	0	0	0	0	7	0	1021	0	0	0	
2	0	0	0	0	0	284	1021	50	0	0	
3	0	0	0	0	0	1020	1021	158	0	0	
4	0	0	0	0	0	1020	1021	290	0	0	
5	0	0	0	0	0	1021	1021	428	0	0	
6	0	0	0	0	0	1021	1021	550	0	0	
7	0	0	0	0	0	1021	1021	635	0	0	
8	0	0	0	0	0	1020	1021	665	0	0	
9	0	0	0	0	0	1020	1021	632	0	0	
10	0	0	0	0	157	1021	1021	536	0	0	
11	0	0	0	0	918	1022	1021	384	0	0	
12	0	0	0	0	1021	1021	1021	195	0	0	
13	0	0	0	0	1021	473	1021	0	0	0	
14	0	0	0	0	1021	0	1021	0	0	0	
15	0	0	0	0	1020	0	1021	0	0	0	
0	0	0	0	0	1020	0	1021	0	0	0	
1	0	0	0	0	1021	0	1021	0	0	0	
2	0	0	0	0	1021	0	1021	0	0	0	
3	0	0	0	0	1021	0	1021	0	0	0	
4	0	0	0	0	969	0	1021	0	0	0	
5	0	0	0	0	281	0	1021	0	0	0	
6	0	0	0	0	0	323	1021	58	0	0	
7	0	0	0	0	0	1020	1021	171	0	0	
8	0	0	0	0	0	1021	1021	308	0	0	
9	0	0	0	0	0	1021	1021	451	0	0	
10	0	0	0	0	0	1021	1021	576	0	0	
11	0	0	0	0	0	1021	1021	664	0	0	
12	0	0	0	0	0	1020	1021	696	0	0	
13	0	0	0	0	0	1021	1021	664	0	0	
14	0	0	0	0	313	1021	1020	568	0	0	
15	0	0	0	0	1020	1022	1021	417	0	0	
0	0	0	0	0	1021	1021	1021	227	0	0	
1	0	0	0	0	1021	456	1021	22	0	0	
2	0	0	0	0	1021	0	1021	0	0	0	
3	0	0	0	0	1021	0	1021	0	0	0	
4	0	0	0	0	1020	0	1020	0	0	0	
5	0	0	0	0	1021	0	1021	0	0	0	
6	0	0	0	0	1021	0	1021	0	0	0	
7	0	0	0	0	1021	0	1021	0	0	0	
8	0	0	0	0	1021	0	1021	0	0	0	
9	0	0	0	0	434	0	1021	0	0	0	
10	0	0	0	0	0	261	1021	78	0	0	
11	0	0	0	0	0	1020	1021	199	0	0	
12	0	0	0	0	0	1021	1021	344	0	0	
13	0	0	0	0	0	1021	1021	494	0	0	
14	0	0	0	0	0	1021	1021	627	0	0	
15	0	0	0	0	0	1020	1021	719	0	0	
0	0	0	0	0	0	1020	1021	756	0	0	
1	0	0	0	0	0	1021	1020	728	0	0	
2	0	0	0	0	374	1021	1021	636	0	0	
3	0	0	0	0	1020	1021	1021	485	0	0	
4	0	0	0	0	1021	985	1021	292	0	0	
5	0	0	0	0	1021	326	1021	81	0	0	
6	0	0	0	0	1021	0	1021	0	0	0	
7	0	0	0	0	1021	0	1021	0	0	0	
8	0	0	0	0	1020	0	1021	0	0	0	
9	0	0	0	0	1021	0	1021	0	0	0	
10	0	0	0	0	1021	0	1021	0	0	0	
11	0	0	0	0	1021	0	1021	0	0	0	
12	0	0	0	0	988	0	1021	0	0	0	
13	0	0	0	0	316	0	1021	11	0	0	
14	0	0	0	0	0	100	1021	102	0	0	
15	0	0	0	0	0	811	1021	232	0	0	
0	0	0	0	0	0	1020	1021	382	0	0	
1	0	0	0	0	0	1021	1021	531	0	0	
2	0	0	0	0	0	1020	1021	657	0	0	
3	0	0	0	0	0	1020	1021	738	0	0	
4	0	0	0	0	0	1020	1021	758	0	0	
5	0	0	0	0	0	1021	1021	711	0	0	
6	0	0	0	0	259	1021	1021	597	0	0	
7	0	0	0	0	1020	1021	1021	425	0	0	
8	0	0	0	0	1021	780	1021	214	0	0	
9	0	0	0	0	1021	2	1021	0	0	0	
10	0	0	0	0	1021	0	1021	0	0	0	
11	0	0	0	0	1020	0	1021	0	0	0	
12	0	0	0	0	1020	0	1021	0	0	0	
13	0	0	0	0	1021	0	1021	0	0	0	
14	0	0	0	0	1021	0	1021	0	0	0	
15	0	0	0	0	1021	0	1021	0	0	0	
0	0	0	0	0	974	0	1021	0	0	0	
1	0	0	0	0	291	0	1021	0	0	0	
2	0	0	0	0	0	0	1021	41	0	0	
3	0	0	0	0	0	481	1021	143	0	0	
4	0	0	0	0	0	1020	1021	269	0	0	
5	0	0	0	0	0	1021	1021	400	0	0	
6	0	0	0	0	0	1021	1021	515	0	0	
7	0	0	0	0	0	1020	1021	593	0	0	
8	0	0	0	0	0	1020	1021	617	0	0	
9	0	0	0	0	0	1021	1021	580	0	0	
10	0	0	0	0	393	1021	1021	481	0	0	
11	0	0	0	0	1020	1021	1021	328	0	0	
12	0	0	0	0	1021	726	1021	143	0	0	
13	0	0	0	0	1021	1	1021	0	0	0	
14	0	0	0	0	1021	0	1021	0	0	0	
15	0	0	0	0	1020	0	1021	0	0	0	
0	0	0	0	0	1020	0	1021	0	0	0	
1	0	0	0	0	1021	0	1021	0	0	0	
2	0	0	0	0	1021	0	1021	0	0	0	
3	0	0	0	0	1021	0	1021	0	0	0	
4	0	0	0	0	1021	0	1021	0	0	0	
5	0	0	0	0	412	0	1020	0	0	0	
6	0	0	0	0	0	68	1021	22	0	0	
7	0	0	0	0	0	759	1021	106	0	0	
8	0	0	0	0	0	1020	1021	212	0	0	
9	0	0	0	0	0	1021	1021	320	0	0	
10	0	0	0	0	0	1021	1021	413	0	0	
11	0	0	0	0	0	1020	1021	472	0	0	
12	0	0	0	0	0	1020	1021	482	0	0	
13	0	0	0	0	0	1021	1021	433	0	0	
14	0	0	0	0	335	1021	1020	327	0	0	
15	0	0	0	0	1020	1022	1021	176	0	0	
0	0	0	0	0	1021	884	1021	0	0	0	
1	0	0	0	0	1021	158	1021	0	0	0	
2	0	0	0	0	1021	0	1021	0	0	0	
3	0	0	0	0	1020	0	1021	0	0	0	
4	0	0	0	0	1020	0	1020	0	0	0	
5	0	0	0	0	1021	0	1021	0	0	0	
6	0	0	0	0	1021	0	1021	0	0	0	
7	0	0	0	0	1021	0	1021	0	0	0	
8	0	0	0	0	893	0	1021	0	0	0	
9	0	0	0	0	156	0	1021	0	0	0	
10	0	0	0	0	0	141	1021	0	0	0	
11	0	0	0	0	0	877	1021	33	0	0	
12	0	0	0	0	0	1020	1021	115	0	0	
13	0	0	0	0	0	1021	1021	211	0	0	
14	0	0	0	0	0	1021	1021	303	0	0	
15	0	0	0	0	0	1020	1021	372	0	0	
0	0	0	0	0	0	1020	1021	403	0	0	
1	0	0	0	0	0	1021	1021	385	0	0	
2	0	0	0	0	99	1021	1021	315	0	0	
3	0	0	0	0	824	1022	1021	199	0	0	
4	0	0	0	0	1021	887	1021	48	0	0	
5	0	0	0	0	1021	161	1021	0	0	0	
6	0	0	0	0	1021	0	1021	0	0	0	
7	0	0	0	0	1020	0	1021	0	0	0	
8	0	0	0	0	1020	0	1021	0	0	0	
9	0	0	0	0	1021	0	1021	0	0	0	
10	0	0	0	0	1021	0	1021	0	0	0	
11	0	0	0	0	1021	0	1021	0	0	0	
12	0	0	0	0	652	0	1021	0	0	0	
13	0	0	0	0	0	0	1021	0	0	0	
14	0	0	0	0	0	87	1021	46	0	0	
15	0	0	0	0	0	790	1021	145	0	0	
0	0	0	0	0	0	1020	1021	266	0	0	
1	0	0	0	0	0	1021	1020	391	0	0	
2	0	0	0	0	0	1021	1021	503	0	0	
3	0	0	0	0	0	1020	1021	580	0	0	
4	0	0	0	0	0	1020	1021	606	0	0	
5	0	0	0	0	0	1020	1021	573	0	0	
6	0	0	0	0	0	1021	1021	481	0	0	
7	0	0	0	0	603	1022	1021	340	0	0	
8	0	0	0	0	1020	851	1021	166	0	0	
9	0	0	0	0	1021	105	1021	0	0	0	
10	0	0	0	0	1021	0	1021	0	0	0	
11	0	0	0	0	1020	0	1021	0	0	0	
12	0	0	0	0	1021	0	1020	0	0	0	
13	0	0	0	0	1021	0	1021	0	0	0	
14	0	0	0	0	1021	0	1021	0	0	0	
15	0	0	0	0	1021	0	1021	0	0	0	
0	0	0	0	0	549	0	1021	0	0	0	
1	0	0	0	0	0	0	1021	30	0	0	
2	0	0	0	0	0	88	1021	136	0	0	
3	0	0	0	0	0	792	1021	280	0	0	
4	0	0	0	0	0	1020	1021	443	0	0	
5	0	0	0	0	0	1021	1021	603	0	0	
6	0	0	0	0	0	1021	1021	739	0	0	
7	0	0	0	0	0	1020	1021	827	0	0	
8	0	0	0	0	0	1020	1021	855	0	0	
9	0	0	0	0	0	1021	1021	816	0	0	
10	0	0	0	0	0	1021	1021	710	0	0	
11	0	0	0	0	603	1022	1021	542	0	0	
12	0	0	0	0	1020	803	1021	330	0	0	
13	0	0	0	0	1021	32	1021	101	0	0	
14	0	0	0	0	1021	0	1021	0	0	0	
15	0	0	0	0	1020	0	1021	0	0	0	
0	0	0	0	0	1020	0	1021	0	0	0	
1	0	0	0	0	1021	0	1021	0	0	0	
2	0	0	0	0	1021	0	1021	0	0	0	
3	0	0	0	0	1021	0	1021	0	0	0	
4	0	0	0	0	568	0	1021	0	0	0	
5	0	0	0	0	0	0	1021	35	0	0	
6	0	0	0	0	0	0	1021	150	0	0	
7	0	0	0	0	0	636	1021	302	0	0	
8	0	0	0	0	0	1020	1021	476	0	0	
9	0	0	0	0	0	1021	1021	647	0	0	
10	0	0	0	0	0	1020	1021	789	0	0	
11	0	0	0	0	0	1020	1021	882	0	0	
12	0	0	0	0	0	1020	1021	913	0	0	
13	0	0	0	0	0	1021	1021	876	0	0	
14	0	0	0	0	18	1021	1021	769	0	0	
15	0	0	0	0	687	1021	1021	600	0	0	
0	0	0	0	0	1021	749	1021	386	0	0	
1	0	0	0	0	1021	1	1021	153	0	0	
2	0	0	0	0	1021	0	1021	0	0	0	
3	0	0	0	0	1020	0	1021	0	0	0	
4	0	0	0	0	1020	0	1021	0	0	0	
5	0	0	0	0	1021	0	1021	0	0	0	
6	0	0	0	0	1021	0	1021	0	0	0	
7	0	0	0	0	1021	0	1021	0	0	0	
8	0	0	0	0	724	0	1021	0	0	0	
9	0	0	0	0	0	0	1021	86	0	0	
10	0	0	0	0	0	296	1021	227	0	0	
11	0	0	0	0	0	1020	1021	404	0	0	
12	0	0	0	0	0	1021	1021	595	0	0	
13	0	0	0	0	0	1021	1021	776	0	0	
14	0	0	0	0	0	1021	1021	919	0	0	
15	0	0	0	0	0	1021	1021	1008	0	0	
0	0	0	0	0	0	1020	1021	1021	0	0	
1	0	0	0	0	0	1021	1021	979	0	0	
2	0	0	0	0	102	1021	1020	857	0	0	
3	0	0	0	0	831	1021	1021	671	0	0	
4	0	0	0	0	1020	1021	1021	435	0	0	
5	0	0	0	0	1021	392	1021	177	0	0	
6	0	0	0	0	1021	0	1021	0	0	0	
7	0	0	0	0	1020	0	1021	0	0	0	
8	0	0	0	0	1020	0	1021	0	0	0	
9	0	0	0	0	1021	0	1021	0	0	0	
10	0	0	0	0	1021	0	1021	0	0	0	
11	0	0	0	0	1021	0	1021	0	0	0	
12	0	0	0	0	790	0	1021	0	0	0	
13	0	0	0	0	1	0	1020	43	0	0	
14	0	0	0	0	0	572	1021	163	0	0	
15	0	0	0	0	0	1020	1021	321	0	0	
0	0	0	0	0	0	1021	1021	500	0	0	
1	0	0	0	0	0	1021	1021	675	0	0	
2	0	0	0	0	0	1021	1021	820	0	0	
3	0	0	0	0	0	1020	1021	914	0	0	
4	0	0	0	0	0	1020	1021	947	0	0	
5	0	0	0	0	0	1021	1021	910	0	0	
6	0	0	0	0	150	1021	1021	801	0	0	
7	0	0	0	0	906	1022	1021	630	0	0	
8	0	0	0	0	1021	1021	1021	412	0	0	
9	0	0	0	0	1021	500	1021	172	0	0	
10	0	0	0	0	1021	0	1021	0	0	0	
11	0	0	0	0	1020	0	1021	0	0	0	
12	0	0	0	0	1020	0	1021	0	0	0	
13	0	0	0	0	1021	0	1021	0	0	0	
14	0	0	0	0	1021	0	1021	0	0	0	
15	0	0	0	0	1021	0	1021	0	0	0	
0	0	0	0	0	857	0	1021	0	0	0	
1	0	0	0	0	96	13	1021	68	0	0	
2	0	0	0	0	0	658	1021	201	0	0	
3	0	0	0	0	0	1020	1021	368	0	0	
4	0	0	0	0	0	1021	1021	551	0	0	
5	0	0	0	0	0	1021	1021	726	0	0	
6	0	0	0	0	0	1021	1021	865	0	0	
7	0	0	0	0	0	1020	1021	951	0	0	
8	0	0	0	0	0	1020	1021	972	0	0	
9	0	0	0	0	0	1020	1021	922	0	0	
10	0	0	0	0	283	1021	1021	800	0	0	
11	0	0	0	0	1020	1022	1021	611	0	0	
12	0	0	0	0	1021	1021	1021	377	0	0	
13	0	0	0	0	1021	527	1021	124	0	0	
14	0	0	0	0	1021	0	1021	0	0	0	
15	0	0	0	0	1020	0	1021	0	0	0	
0	0	0	0	0	1020	0	1021	0	0	0	
1	0	0	0	0	1021	0	1021	0	0	0	
2	0	0	0	0	1021	0	1021	0	0	0	
3	0	0	0	0	1021	0	1021	0	0	0	
4	0	0	0	0	968	0	1021	0	0	0	
5	0	0	0	0	280	15	1020	45	0	0	
6	0	0	0	0	0	662	1021	167	0	0	
7	0	0	0	0	0	1020	1021	325	0	0	
8	0	0	0	0	0	1021	1021	502	0	0	
9	0	0	0	0	0	1021	1021	673	0	0	
10	0	0	0	0	0	1021	1021	812	0	0	
11	0	0	0	0	0	1020	1021	900	0	0	
12	0	0	0	0	0	1020	1021	926	0	0	
13	0	0	0	0	0	1020	1021	882	0	0	
14	0	0	0	0	456	1021	1021	767	0	0	
15	0	0	0	0	1020	1021	1021	591	0	0	
0	0	0	0	0	1021	1021	1021	369	0	0	
1	0	0	0	0	1021	655	1021	128	0	0	
2	0	0	0	0	1021	1	1021	0	0	0	
3	0	0	0	0	1020	0	1021	0	0	0	
4	0	0	0	0	1020	0	1021	0	0	0	
5	0	0	0	0	1021	0	1021	0	0	0	
6	0	0	0	0	1021	0	1021	0	0	0	
7	0	0	0	0	1021	0	1021	0	0	0	
8	0	0	0	0	1021	0	1021	0	0	0	
9	0	0	0	0	399	80	1021	52	0	0	
10	0	0	0	0	0	772	1021	175	0	0	
11	0	0	0	0	0	1020	1021	335	0	0	
12	0	0	0	0	0	1021	1021	511	0	0	
13	0	0	0	0	0	1021	1021	681	0	0	
14	0	0	0	0	0	1021	1021	818	0	0	
15	0	0	0	0	0	1021	1021	902	0	0	
0	0	0	0	0	0	1020	1021	924	0	0	
1	0	0	0	0	0	1020	1021	875	0	0	
2	0	0	0	0	602	1021	1021	754	0	0	
3	0	0	0	0	1020	1021	1021	572	0	0	
4	0	0	0	0	1021	1021	1021	347	0	0	
5	0	0	0	0	1021	666	1021	106	0	0	
6	0	0	0	0	1021	1	1021	0	0	0	
7	0	0	0	0	1021	0	1021	0	0	0	
8	0	0	0	0	1020	0	1021	0	0	0	
9	0	0	0	0	1021	0	1021	0	0	0	
10	0	0	0	0	1021	0	1021	0	0	0	
11	0	0	0	0	1021	0	1021	0	0	0	
12	0	0	0	0	1021	0	1021	0	0	0	
13	0	0	0	0	472	141	1021	52	0	0	
14	0	0	0	0	0	871	1021	174	0	0	
15	0	0	0	0	0	1020	1021	330	0	0	
0	0	0	0	0	0	1021	1021	502	0	0	
1	0	0	0	0	0	1021	1021	669	0	0	
2	0	0	0	0	0	1021	1021	805	0	0	
3	0	0	0	0	0	1020	1021	891	0	0	
4	0	0	0	0	0	1020	1021	916	0	0	
5	0	0	0	0	0	1020	1021	873	0	0	
6	0	0	0	0	622	1021	1021	760	0	0	
7	0	0	0	0	1020	1021	1021	583	0	0	
8	0	0	0	0	1021	1021	1021	363	0	0	
9	0	0	0	0	1021	737	1021	125	0	0	
10	0	0	0	0	1021	1	1021	0	0	0	
11	0	0	0	0	1020	0	1021	0	0	0	
12	0	0	0	0	1020	0	1021	0	0	0	
13	0	0	0	0	1021	0	1021	0	0	0	
14	0	0	0	0	1021	0	1021	0	0	0	
15	0	0	0	0	1021	0	1021	0	0	0	
0	0	0	0	0	1021	0	1021	0	0	0	
1	0	0	0	0	475	271	1021	60	0	0	
2	0	0	0	0	0	1020	1021	186	0	0	
3	0	0	0	0	0	1021	1021	346	0	0	
4	0	0	0	0	0	1021	1021	522	0	0	
5	0	0	0	0	0	1021	1021	689	0	0	
6	0	0	0	0	0	1021	1021	823	0	0	
7	0	0	0	0	0	1020	1021	904	0	0	
8	0	0	0	0	0	1020	1021	923	0	0	
9	0	0	0	0	0	1020	1021	870	0	0	
10	0	0	0	0	632	1021	1021	747	0	0	
11	0	0	0	0	1020	1021	1021	561	0	0	
12	0	0	0	0	1021	1021	1021	333	0	0	
13	0	0	0	0	1021	783	1021	91	0	0	
14	0	0	0	0	1021	4	1021	0	0	0	
15	0	0	0	0	1020	0	1021	0	0	0	
0	0	0	0	0	1020	0	1021	0	0	0	
1	0	0	0	0	1021	0	1021	0	0	0	
2	0	0	0	0	1021	0	1021	0	0	0	
3	0	0	0	0	1021	0	1021	0	0	0	
4	0	0	0	0	1021	0	1021	0	0	0	
5	0	0	0	0	530	436	1021	57	0	0	
6	0	0	0	0	0	1020	1021	182	0	0	
7	0	0	0	0	0	1021	1021	344	0	0	
8	0	0	0	0	0	1021	1021	524	0	0	
9	0	0	0	0	0	1021	1021	699	0	0	
10	0	0	0	0	0	1021	1021	841	0	0	
11	0	0	0	0	0	1021	1021	934	0	0	
12	0	0	0	0	0	1020	1021	964	0	0	
13	0	0	0	0	35	1020	1021	927	0	0	
14	0	0	0	0	712	1022	1021	817	0	0	
15	0	0	0	0	1020	1022	1021	644	0	0	
0	0	0	0	0	1021	1021	1021	423	0	0	
1	0	0	0	0	1021	872	1021	182	0	0	
2	0	0	0	0	1021	137	1021	0	0	0	
3	0	0	0	0	1020	0	1021	1	0	0	
4	0	0	0	0	1020	0	1021	0	0	0	
5	0	0	0	0	1021	0	1021	0	0	0	
6	0	0	0	0	1021	0	1021	0	0	0	
7	0	0	0	0	1021	0	1021	0	0	0	
8	0	0	0	0	1021	0	1021	7	0	0	
9	0	0	0	0	569	482	1021	107	0	0	
10	0	0	0	0	0	1020	1021	257	0	0	
11	0	0	0	0	0	1021	1021	440	0	0	
12	0	0	0	0	0	1021	1021	634	0	0	
13	0	0	0	0	0	1021	1021	814	0	0	
14	0	0	0	0	0	1021	1021	954	0	0	
15	0	0	0	0	0	1021	1021	1021	0	0	
0	0	0	0	0	0	1020	1021	1021	0	0	
1	0	0	0	0	72	1020	1020	982	0	0	
2	0	0	0	0	778	1021	1021	862	0	0	
3	0	0	0	0	1021	1022	1021	676	0	0	
4	0	0	0	0	1021	1021	1021	446	0	0	
5	0	0	0	0	1021	891	1021	195	0	0	
6	0	0	0	0	1021	167	1021	0	0	0	
7	0	0	0	0	1021	0	1021	0	0	0	
8	0	0	0	0	1020	1	1021	0	0	0	
9	0	0	0	0	1021	0	1021	0	0	0	
10	0	0	0	0	1021	0	1021	0	0	0	
11	0	0	0	0	1021	0	1021	0	0	0	
12	0	0	0	0	1021	27	1021	4	0	0	
13	0	0	0	0	609	671	1021	103	0	0	
14	0	0	0	0	0	1020	1021	251	0	0	
15	0	0	0	0	0	1021	1021	432	0	0	
0	0	0	0	0	0	1021	1021	624	0	0	
1	0	0	0	0	0	1021	1021	803	0	0	
2	0	0	0	0	0	1021	1021	939	0	0	
3	0	0	0	0	0	1021	1021	1020	0	0	
4	0	0	0	0	0	1020	1021	1021	0	0	
5	0	0	0	0	145	1020	1021	970	0	0	
6	0	0	0	0	896	1021	1021	840	0	0	
7	0	0	0	0	1021	1021	1021	647	0	0	
8	0	0	0	0	1021	1021	1021	408	0	0	
9	0	0	0	0	1021	930	1021	151	0	0	
10	0	0	0	0	1021	230	1021	0	0	0	
11	0	0	0	0	1021	1	1021	0	0	0	
12	0	0	0	0	1020	0	1020	0	0	0	
13	0	0	0	0	1021	0	1021	0	0	0	
14	0	0	0	0	1021	0	1021	0	0	0	
15	0	0	0	0	1021	0	1021	0	0	0	
0	0	0	0	0	1021	33	1021	0	0	0	
1	0	0	0	0	814	681	1021	72	0	0	
2	0	0	0	0	27	1020	1021	206	0	0	
3	0	0	0	0	0	1021	1021	375	0	0	
4	0	0	0	0	0	1021	1021	557	0	0	
