# OpenSignals Text File Format. Version 1
# {"": {"position": 0, "device": "", "device name": "", "device connection": "", "sampling rate": 1000, "resolution": [4, 1, 1, 1, 1, 10, 10, 10, 10, 6, 6], "firmware version": 1281, "comments": "", "keywords": "", "mode": 0, "sync interval": 2, "date": "", "time": "", "channels": [1, 2, 3, 4, 5, 6], "sensor": ["RAW", "RAW", "RAW", "RAW", "RAW", "RAW"], "label": ["A1", "A2", "A3", "A4", "A5", "A6"], "column": ["nSeq", "I1", "I2", "O1", "O2", "A1", "A2", "A3", "A4", "A5", "A6"], "special": [{}, {}, {}, {}, {}, {}], "digital IO": [0, 0, 1, 1]}}
# EndOfHeader
0	0	0	0	0	642	0	0	0	0	0	
1	0	0	0	0	653	0	0	0	0	0	
2	0	0	0	0	669	0	0	0	0	0	
3	0	0	0	0	688	0	0	0	0	0	
4	0	0	0	0	709	0	0	0	0	0	
5	0	0	0	0	730	0	0	0	0	0	
6	0	0	0	0	748	0	0	0	0	0	
7	0	0	0	0	762	0	0	0	0	0	
8	0	0	0	0	771	0	0	0	0	0	
9	0	0	0	0	775	0	0	0	0	0	
10	0	0	0	0	773	0	0	0	0	0	
11	0	0	0	0	766	0	0	0	0	0	
12	0	0	0	0	754	0	0	0	0	0	
13	0	0	0	0	739	0	0	0	0	0	
14	0	0	0	0	722	0	0	0	0	0	
15	0	0	0	0	705	0	0	0	0	0	
0	0	0	0	0	690	0	0	0	0	0	
1	0	0	0	0	679	0	0	0	0	0	
2	0	0	0	0	672	0	0	0	0	0	
3	0	0	0	0	671	0	0	0	0	0	
4	0	0	0	0	676	0	0	0	0	0	
5	0	0	0	0	687	0	0	0	0	0	
6	0	0	0	0	701	0	0	0	0	0	
7	0	0	0	0	718	0	0	0	0	0	
8	0	0	0	0	734	0	0	0	0	0	
9	0	0	0	0	748	0	0	0	0	0	
10	0	0	0	0	759	0	0	0	0	0	
11	0	0	0	0	764	0	0	0	0	0	
12	0	0	0	0	764	0	0	0	0	0	
13	0	0	0	0	758	0	0	0	0	0	
14	0	0	0	0	748	0	0	0	0	0	
15	0	0	0	0	733	0	0	0	0	0	
0	0	0	0	0	715	0	0	0	0	0	
1	0	0	0	0	696	0	0	0	0	0	
2	0	0	0	0	678	0	0	0	0	0	
3	0	0	0	0	663	0	0	0	0	0	
4	0	0	0	0	651	0	0	0	0	0	
5	0	0	0	0	646	0	0	0	0	0	
6	0	0	0	0	645	0	0	0	0	0	
7	0	0	0	0	652	0	0	0	0	0	
8	0	0	0	0	663	0	0	0	0	0	
9	0	0	0	0	678	0	0	0	0	0	
10	0	0	0	0	696	0	0	0	0	0	
11	0	0	0	0	715	0	0	0	0	0	
12	0	0	0	0	732	0	0	0	0	0	
13	0	0	0	0	746	0	0	0	0	0	
14	0	0	0	0	756	0	0	0	0	0	
15	0	0	0	0	760	0	0	0	0	0	
0	0	0	0	0	760	0	0	0	0	0	
1	0	0	0	0	753	0	0	0	0	0	
2	0	0	0	0	742	0	0	0	0	0	
3	0	0	0	0	726	0	0	0	0	0	
4	0	0	0	0	707	0	0	0	0	0	
5	0	0	0	0	686	0	0	0	0	0	
6	0	0	0	0	666	0	0	0	0	0	
7	0	0	0	0	648	0	0	0	0	0	
8	0	0	0	0	633	0	0	0	0	0	
9	0	0	0	0	623	0	0	0	0	0	
10	0	0	0	0	619	0	0	0	0	0	
11	0	0	0	0	621	0	0	0	0	0	
12	0	0	0	0	629	0	0	0	0	0	
13	0	0	0	0	643	0	0	0	0	0	
14	0	0	0	0	660	0	0	0	0	0	
15	0	0	0	0	681	0	0	0	0	0	
0	0	0	0	0	703	0	0	0	0	0	
1	0	0	0	0	723	0	0	0	0	0	
2	0	0	0	0	742	0	0	0	0	0	
3	0	0	0	0	756	0	0	0	0	0	
4	0	0	0	0	767	0	0	0	0	0	
5	0	0	0	0	772	4	0	0	0	0	
6	0	0	0	0	771	27	0	0	0	0	
7	0	0	0	0	766	56	0	0	0	0	
8	0	0	0	0	755	87	0	0	0	0	
9	0	0	0	0	740	116	0	0	0	0	
10	0	0	0	0	723	140	0	0	0	0	
11	0	0	0	0	704	158	0	0	0	0	
12	0	0	0	0	687	170	0	0	0	0	
13	0	0	0	0	672	175	0	0	0	0	
14	0	0	0	0	661	176	0	0	0	0	
15	0	0	0	0	655	175	0	0	0	0	
0	0	0	0	0	654	172	0	0	0	0	
1	0	0	0	0	659	170	0	0	0	0	
2	0	0	0	0	667	167	0	0	0	0	
3	0	0	0	0	679	166	0	0	0	0	
4	0	0	0	0	691	163	0	0	0	0	
5	0	0	0	0	703	160	0	0	0	0	
6	0	0	0	0	712	155	0	0	0	0	
7	0	0	0	0	719	146	0	0	0	0	
8	0	0	0	0	721	134	0	0	0	0	
9	0	0	0	0	720	116	0	0	0	0	
10	0	0	0	0	714	93	0	0	0	0	
11	0	0	0	0	705	66	0	0	0	0	
12	0	0	0	0	693	33	0	0	0	0	
13	0	0	0	0	680	0	0	0	0	0	
14	0	0	0	0	666	0	0	0	0	0	
15	0	0	0	0	655	0	0	0	0	0	
0	0	0	0	0	647	0	0	0	0	0	
1	0	0	0	0	643	0	0	0	0	0	
2	0	0	0	0	646	0	0	0	0	0	
3	0	0	0	0	654	0	0	0	0	0	
4	0	0	0	0	668	0	0	0	0	0	
5	0	0	0	0	686	0	0	0	0	0	
6	0	0	0	0	707	0	0	0	0	0	
7	0	0	0	0	728	0	0	0	0	0	
8	0	0	0	0	748	0	0	0	0	0	
9	0	0	0	0	765	0	0	0	0	0	
10	0	0	0	0	776	0	0	0	0	0	
11	0	0	0	0	782	0	0	0	0	0	
12	0	0	0	0	781	0	0	0	0	0	
13	0	0	0	0	774	0	0	0	0	0	
14	0	0	0	0	762	0	0	0	0	0	
15	0	0	0	0	745	0	0	0	0	0	
0	0	0	0	0	725	0	0	0	0	0	
1	0	0	0	0	703	0	0	0	0	0	
2	0	0	0	0	682	0	0	0	0	0	
3	0	0	0	0	664	0	0	0	0	0	
4	0	0	0	0	649	0	0	0	0	0	
5	0	0	0	0	640	0	0	0	0	0	
6	0	0	0	0	638	0	0	0	0	0	
7	0	0	0	0	642	0	0	0	0	0	
8	0	0	0	0	652	0	0	0	0	0	
9	0	0	0	0	667	0	0	0	0	0	
10	0	0	0	0	685	0	0	0	0	0	
11	0	0	0	0	704	0	0	0	0	0	
12	0	0	0	0	723	0	0	0	0	0	
13	0	0	0	0	739	0	0	0	0	0	
14	0	0	0	0	752	0	0	0	0	0	
15	0	0	0	0	759	0	0	0	0	0	
0	0	0	0	0	761	0	0	0	0	0	
1	0	0	0	0	758	0	0	0	0	0	
2	0	0	0	0	748	0	0	0	0	0	
3	0	0	0	0	735	0	0	0	0	0	
4	0	0	0	0	718	0	0	0	0	0	
5	0	0	0	0	699	0	0	0	0	0	
6	0	0	0	0	680	0	0	0	0	0	
7	0	0	0	0	664	0	0	0	0	0	
8	0	0	0	0	649	0	0	0	0	0	
9	0	0	0	0	641	0	0	0	0	0	
10	0	0	0	0	638	0	0	0	0	0	
11	0	0	0	0	641	0	0	0	0	0	
12	0	0	0	0	650	0	0	0	0	0	
13	0	0	0	0	663	0	0	0	0	0	
14	0	0	0	0	679	0	0	0	0	0	
15	0	0	0	0	697	0	0	0	0	0	
0	0	0	0	0	713	0	0	0	0	0	
1	0	0	0	0	726	0	0	0	0	0	
2	0	0	0	0	733	0	0	0	0	0	
3	0	0	0	0	735	0	0	0	0	0	
4	0	0	0	0	730	0	0	0	0	0	
5	0	0	0	0	719	0	0	0	0	0	
6	0	0	0	0	703	0	0	0	0	0	
7	0	0	0	0	684	0	0	0	0	0	
8	0	0	0	0	662	0	0	0	0	0	
9	0	0	0	0	641	0	0	0	0	0	
10	0	0	0	0	623	0	0	0	0	0	
11	0	0	0	0	609	0	0	0	0	0	
12	0	0	0	0	602	0	0	0	0	0	
13	0	0	0	0	601	0	0	0	0	0	
14	0	0	0	0	607	0	0	0	0	0	
15	0	0	0	0	620	0	0	0	0	0	
0	0	0	0	0	639	0	0	0	0	0	
1	0	0	0	0	660	0	0	0	0	0	
2	0	0	0	0	684	0	0	0	0	0	
3	0	0	0	0	707	0	0	0	0	0	
4	0	0	0	0	728	0	0	0	0	0	
5	0	0	0	0	744	0	0	0	0	0	
6	0	0	0	0	755	0	0	0	0	0	
7	0	0	0	0	759	0	0	0	0	0	
8	0	0	0	0	757	0	0	0	0	0	
9	0	0	0	0	749	0	0	0	0	0	
10	0	0	0	0	736	0	0	0	0	0	
11	0	0	0	0	718	0	0	0	0	0	
12	0	0	0	0	698	0	0	0	0	0	
13	0	0	0	0	677	0	0	0	0	0	
14	0	0	0	0	656	0	0	0	0	0	
15	0	0	0	0	639	0	0	0	0	0	
0	0	0	0	0	626	0	0	0	0	0	
1	0	0	0	0	620	0	0	0	0	0	
2	0	0	0	0	620	0	0	0	0	0	
3	0	0	0	0	627	0	0	0	0	0	
4	0	0	0	0	643	0	0	0	0	0	
5	0	0	0	0	664	0	0	0	0	0	
6	0	0	0	0	689	0	0	0	0	0	
7	0	0	0	0	718	0	0	0	0	0	
8	0	0	0	0	745	0	0	0	0	0	
9	0	0	0	0	770	0	0	0	0	0	
10	0	0	0	0	791	0	0	0	0	0	
11	0	0	0	0	806	0	0	0	0	0	
12	0	0	0	0	815	0	0	0	0	0	
13	0	0	0	0	817	0	0	0	0	0	
14	0	0	0	0	815	0	0	0	0	0	
15	0	0	0	0	806	0	0	0	0	0	
0	0	0	0	0	794	0	0	0	0	0	
1	0	0	0	0	779	0	0	0	0	0	
2	0	0	0	0	764	0	0	0	0	0	
3	0	0	0	0	750	0	0	0	0	0	
4	0	0	0	0	739	0	0	0	0	0	
5	0	0	0	0	732	0	0	0	0	0	
6	0	0	0	0	731	0	0	0	0	0	
7	0	0	0	0	736	0	0	0	0	0	
8	0	0	0	0	746	0	0	0	0	0	
9	0	0	0	0	760	0	0	0	0	0	
10	0	0	0	0	779	0	0	0	0	0	
11	0	0	0	0	798	0	0	0	0	0	
12	0	0	0	0	818	0	0	0	0	0	
13	0	0	0	0	835	0	0	0	0	0	
14	0	0	0	0	850	0	0	0	0	0	
15	0	0	0	0	860	0	0	0	0	0	
0	0	0	0	0	865	0	0	0	0	0	
1	0	0	0	0	865	0	0	0	0	0	
2	0	0	0	0	859	0	0	0	0	0	
3	0	0	0	0	847	0	0	0	0	0	
4	0	0	0	0	832	0	0	0	0	0	
5	0	0	0	0	814	0	0	0	0	0	
6	0	0	0	0	796	0	0	0	0	0	
7	0	0	0	0	779	0	0	0	0	0	
8	0	0	0	0	766	0	0	0	0	0	
9	0	0	0	0	757	0	0	0	0	0	
10	0	0	0	0	755	0	0	0	0	0	
11	0	0	0	0	758	0	0	0	0	0	
12	0	0	0	0	767	0	0	0	0	0	
13	0	0	0	0	781	0	0	0	0	0	
14	0	0	0	0	798	0	0	0	0	0	
15	0	0	0	0	815	0	0	0	0	0	
0	0	0	0	0	831	0	0	0	0	0	
1	0	0	0	0	844	0	0	0	0	0	
2	0	0	0	0	852	0	0	0	0	0	
3	0	0	0	0	856	0	0	0	0	0	
4	0	0	0	0	853	0	0	0	0	0	
5	0	0	0	0	845	0	0	0	0	0	
6	0	0	0	0	833	0	0	0	0	0	
7	0	0	0	0	816	0	0	0	0	0	
8	0	0	0	0	798	0	0	0	0	0	
9	0	0	0	0	778	0	0	0	0	0	
10	0	0	0	0	760	0	0	0	0	0	
11	0	0	0	0	745	0	0	0	0	0	
12	0	0	0	0	735	0	0	0	0	0	
13	0	0	0	0	731	0	0	0	0	0	
14	0	0	0	0	733	0	0	0	0	0	
15	0	0	0	0	741	0	0	0	0	0	
0	0	0	0	0	754	0	0	0	0	0	
1	0	0	0	0	771	0	0	0	0	0	
2	0	0	0	0	791	0	0	0	0	0	
3	0	0	0	0	810	0	0	0	0	0	
4	0	0	0	0	827	0	0	0	0	0	
5	0	0	0	0	841	0	0	0	0	0	
6	0	0	0	0	849	0	0	0	0	0	
7	0	0	0	0	851	0	0	0	0	0	
8	0	0	0	0	846	0	0	0	0	0	
9	0	0	0	0	835	0	0	0	0	0	
10	0	0	0	0	819	0	0	0	0	0	
11	0	0	0	0	797	0	0	0	0	0	
12	0	0	0	0	772	0	0	0	0	0	
13	0	0	0	0	747	0	0	0	0	0	
14	0	0	0	0	721	0	0	0	0	0	
15	0	0	0	0	700	0	0	0	0	0	
0	0	0	0	0	682	0	0	0	0	0	
1	0	0	0	0	671	0	0	0	0	0	
2	0	0	0	0	668	0	0	0	0	0	
3	0	0	0	0	673	0	0	0	0	0	
4	0	0	0	0	685	0	0	0	0	0	
5	0	0	0	0	703	0	0	0	0	0	
6	0	0	0	0	725	0	0	0	0	0	
7	0	0	0	0	748	0	0	0	0	0	
8	0	0	0	0	771	0	0	0	0	0	
9	0	0	0	0	791	0	0	0	0	0	
10	0	0	0	0	806	0	0	0	0	0	
11	0	0	0	0	814	0	0	0	0	0	
12	0	0	0	0	815	0	0	0	0	0	
13	0	0	0	0	810	0	0	0	0	0	
14	0	0	0	0	799	0	0	0	0	0	
15	0	0	0	0	782	0	0	0	0	0	
0	0	0	0	0	762	0	0	0	0	0	
1	0	0	0	0	742	0	0	0	0	0	
2	0	0	0	0	721	0	0	0	0	0	
3	0	0	0	0	703	0	0	0	0	0	
4	0	0	0	0	689	0	0	0	0	0	
5	0	0	0	0	681	0	0	0	0	0	
6	0	0	0	0	679	0	0	0	0	0	
7	0	0	0	0	684	0	0	0	0	0	
8	0	0	0	0	694	0	0	0	0	0	
9	0	0	0	0	710	0	0	0	0	0	
10	0	0	0	0	728	0	0	0	0	0	
11	0	0	0	0	748	0	0	0	0	0	
12	0	0	0	0	766	0	0	0	0	0	
13	0	0	0	0	781	0	0	0	0	0	
14	0	0	0	0	792	0	0	0	0	0	
15	0	0	0	0	796	0	0	0	0	0	
0	0	0	0	0	793	0	0	0	0	0	
1	0	0	0	0	785	0	0	0	0	0	
2	0	0	0	0	771	0	0	0	0	0	
3	0	0	0	0	753	0	0	0	0	0	
4	0	0	0	0	733	0	0	0	0	0	
5	0	0	0	0	712	0	0	0	0	0	
6	0	0	0	0	692	0	0	0	0	0	
7	0	0	0	0	676	0	0	0	0	0	
8	0	0	0	0	665	0	0	0	0	0	
9	0	0	0	0	660	0	0	0	0	0	
10	0	0	0	0	661	0	0	0	0	0	
11	0	0	0	0	669	0	0	0	0	0	
12	0	0	0	0	682	0	0	0	0	0	
13	0	0	0	0	700	0	0	0	0	0	
14	0	0	0	0	719	0	0	0	0	0	
15	0	0	0	0	738	0	0	0	0	0	
0	0	0	0	0	755	0	0	0	0	0	
1	0	0	0	0	769	0	0	0	0	0	
2	0	0	0	0	778	0	0	0	0	0	
3	0	0	0	0	781	0	0	0	0	0	
4	0	0	0	0	777	0	0	0	0	0	
5	0	0	0	0	768	0	0	0	0	0	
6	0	0	0	0	754	0	0	0	0	0	
7	0	0	0	0	736	0	0	0	0	0	
8	0	0	0	0	715	0	0	0	0	0	
9	0	0	0	0	693	0	0	0	0	0	
10	0	0	0	0	672	0	0	0	0	0	
11	0	0	0	0	655	0	0	0	0	0	
12	0	0	0	0	643	0	0	0	0	0	
13	0	0	0	0	636	0	0	0	0	0	
14	0	0	0	0	638	0	0	0	0	0	
15	0	0	0	0	647	0	0	0	0	0	
0	0	0	0	0	662	0	0	0	0	0	
1	0	0	0	0	683	0	0	0	0	0	
2	0	0	0	0	706	0	0	0	0	0	
3	0	0	0	0	731	0	0	0	0	0	
4	0	0	0	0	753	0	0	0	0	0	
5	0	0	0	0	771	0	0	0	0	0	
6	0	0	0	0	782	0	0	0	0	0	
7	0	0	0	0	787	0	0	0	0	0	
8	0	0	0	0	785	0	0	0	0	0	
9	0	0	0	0	776	0	0	0	0	0	
10	0	0	0	0	761	0	0	0	0	0	
11	0	0	0	0	742	0	0	0	0	0	
12	0	0	0	0	720	0	0	0	0	0	
13	0	0	0	0	699	0	0	0	0	0	
14	0	0	0	0	679	0	0	0	0	0	
15	0	0	0	0	664	0	0	0	0	0	
0	0	0	0	0	654	0	0	0	0	0	
1	0	0	0	0	649	0	0	0	0	0	
2	0	0	0	0	651	0	0	0	0	0	
3	0	0	0	0	659	0	0	0	0	0	
4	0	0	0	0	673	0	0	0	0	0	
5	0	0	0	0	689	0	0	0	0	0	
6	0	0	0	0	708	0	0	0	0	0	
7	0	0	0	0	726	0	0	0	0	0	
8	0	0	0	0	742	0	0	0	0	0	
9	0	0	0	0	754	0	0	0	0	0	
10	0	0	0	0	760	0	0	0	0	0	
11	0	0	0	0	761	0	0	0	0	0	
12	0	0	0	0	755	0	0	0	0	0	
13	0	0	0	0	742	0	0	0	0	0	
14	0	0	0	0	722	0	0	0	0	0	
15	0	0	0	0	697	0	0	0	0	0	
0	0	0	0	0	668	0	0	0	0	0	
1	0	0	0	0	637	0	0	0	0	0	
2	0	0	0	0	604	0	0	0	0	0	
3	0	0	0	0	573	0	0	0	0	0	
4	0	0	0	0	544	0	0	0	0	0	
5	0	0	0	0	520	0	0	0	0	0	
6	0	0	0	0	502	0	0	0	0	0	
7	0	0	0	0	490	0	0	0	0	0	
8	0	0	0	0	483	0	0	0	0	0	
9	0	0	0	0	483	0	0	0	0	0	
10	0	0	0	0	486	0	0	0	0	0	
11	0	0	0	0	491	0	0	0	0	0	
12	0	0	0	0	496	0	0	0	0	0	
13	0	0	0	0	500	0	0	0	0	0	
14	0	0	0	0	502	0	0	0	0	0	
15	0	0	0	0	499	0	0	0	0	0	
0	0	0	0	0	494	0	0	0	0	0	
1	0	0	0	0	484	0	0	0	0	0	
2	0	0	0	0	472	0	0	0	0	0	
3	0	0	0	0	460	0	0	0	0	0	
4	0	0	0	0	447	0	0	0	0	0	
5	0	0	0	0	435	0	0	0	0	0	
6	0	0	0	0	428	0	0	0	0	0	
7	0	0	0	0	425	0	0	0	0	0	
8	0	0	0	0	430	0	0	0	0	0	
9	0	0	0	0	442	0	0	0	0	0	
10	0	0	0	0	461	0	0	0	0	0	
11	0	0	0	0	488	0	0	0	0	0	
12	0	0	0	0	521	0	0	0	0	0	
13	0	0	0	0	559	0	0	0	0	0	
14	0	0	0	0	599	0	0	0	0	0	
15	0	0	0	0	638	0	0	0	0	0	
0	0	0	0	0	674	0	0	0	0	0	
1	0	0	0	0	706	0	0	0	0	0	
2	0	0	0	0	731	0	0	0	0	0	
3	0	0	0	0	747	0	0	0	0	0	
4	0	0	0	0	755	0	0	0	0	0	
5	0	0	0	0	755	0	0	0	0	0	
6	0	0	0	0	747	0	0	0	0	0	
7	0	0	0	0	732	0	0	0	0	0	
8	0	0	0	0	713	0	0	0	0	0	
9	0	0	0	0	693	0	0	0	0	0	
10	0	0	0	0	673	0	0	0	0	0	
11	0	0	0	0	656	0	0	0	0	0	
12	0	0	0	0	644	0	0	0	0	0	
13	0	0	0	0	638	0	0	0	0	0	
14	0	0	0	0	639	0	0	0	0	0	
15	0	0	0	0	648	0	0	0	0	0	
0	0	0	0	0	663	0	0	0	0	0	
1	0	0	0	0	681	0	0	0	0	0	
2	0	0	0	0	702	0	0	0	0	0	
3	0	0	0	0	722	0	0	0	0	0	
4	0	0	0	0	740	0	0	0	0	0	
5	0	0	0	0	754	0	0	0	0	0	
6	0	0	0	0	763	0	0	0	0	0	
7	0	0	0	0	764	0	0	0	0	0	
8	0	0	0	0	760	0	0	0	0	0	
9	0	0	0	0	750	0	0	0	0	0	
10	0	0	0	0	734	0	0	0	0	0	
11	0	0	0	0	716	0	0	0	0	0	
12	0	0	0	0	696	0	0	0	0	0	
13	0	0	0	0	675	0	0	0	0	0	
14	0	0	0	0	656	0	0	0	0	0	
15	0	0	0	0	641	0	0	0	0	0	
0	0	0	0	0	631	0	0	0	0	0	
1	0	0	0	0	628	0	0	0	0	0	
2	0	0	0	0	632	0	0	0	0	0	
3	0	0	0	0	642	0	0	0	0	0	
4	0	0	0	0	659	0	0	0	0	0	
5	0	0	0	0	680	0	0	0	0	0	
6	0	0	0	0	705	0	0	0	0	0	
7	0	0	0	0	729	0	0	0	0	0	
8	0	0	0	0	751	0	0	0	0	0	
9	0	0	0	0	768	0	0	0	0	0	
10	0	0	0	0	780	0	0	0	0	0	
11	0	0	0	0	785	0	0	0	0	0	
12	0	0	0	0	783	0	0	0	0	0	
13	0	0	0	0	774	0	0	0	0	0	
14	0	0	0	0	759	0	0	0	0	0	
15	0	0	0	0	739	0	0	0	0	0	
0	0	0	0	0	716	0	0	0	0	0	
1	0	0	0	0	693	0	0	0	0	0	
2	0	0	0	0	670	0	0	0	0	0	
3	0	0	0	0	652	0	0	0	0	0	
4	0	0	0	0	638	0	0	0	0	0	
5	0	0	0	0	630	0	0	0	0	0	
6	0	0	0	0	630	0	0	0	0	0	
7	0	0	0	0	636	0	0	0	0	0	
8	0	0	0	0	650	0	0	0	0	0	
9	0	0	0	0	670	0	0	0	0	0	
10	0	0	0	0	693	0	0	0	0	0	
11	0	0	0	0	718	0	0	0	0	0	
12	0	0	0	0	741	0	0	0	0	0	
13	0	0	0	0	762	0	0	0	0	0	
14	0	0	0	0	778	0	0	0	0	0	
15	0	0	0	0	788	0	0	0	0	0	
0	0	0	0	0	791	0	0	0	0	0	
1	0	0	0	0	786	0	0	0	0	0	
2	0	0	0	0	775	0	0	0	0	0	
3	0	0	0	0	758	0	0	0	0	0	
4	0	0	0	0	736	0	0	0	0	0	
5	0	0	0	0	711	0	0	0	0	0	
6	0	0	0	0	686	0	0	0	0	0	
7	0	0	0	0	661	0	0	0	0	0	
8	0	0	0	0	639	0	0	0	0	0	
9	0	0	0	0	622	0	0	0	0	0	
10	0	0	0	0	611	0	0	0	0	0	
11	0	0	0	0	607	0	0	0	0	0	
12	0	0	0	0	609	0	0	0	0	0	
13	0	0	0	0	619	0	0	0	0	0	
14	0	0	0	0	633	0	0	0	0	0	
15	0	0	0	0	650	0	0	0	0	0	
0	0	0	0	0	668	0	0	0	0	0	
1	0	0	0	0	686	0	0	0	0	0	
2	0	0	0	0	702	0	0	0	0	0	
3	0	0	0	0	714	0	0	0	0	0	
4	0	0	0	0	723	0	0	0	0	0	
5	0	0	0	0	727	0	0	0	0	0	
6	0	0	0	0	726	0	0	0	0	0	
7	0	0	0	0	721	0	0	0	0	0	
8	0	0	0	0	713	0	0	0	0	0	
9	0	0	0	0	703	0	0	0	0	0	
10	0	0	0	0	691	0	0	0	0	0	
11	0	0	0	0	679	0	0	0	0	0	
12	0	0	0	0	668	0	0	0	0	0	
13	0	0	0	0	658	0	0	0	0	0	
14	0	0	0	0	652	0	0	0	0	0	
15	0	0	0	0	650	0	0	0	0	0	
0	0	0	0	0	652	0	0	0	0	0	
1	0	0	0	0	657	0	0	0	0	0	
2	0	0	0	0	666	0	0	0	0	0	
3	0	0	0	0	676	0	0	0	0	0	
4	0	0	0	0	687	0	0	0	0	0	
5	0	0	0	0	696	0	0	0	0	0	
6	0	0	0	0	703	0	0	0	0	0	
7	0	0	0	0	707	0	0	0	0	0	
8	0	0	0	0	708	0	0	0	0	0	
9	0	0	0	0	705	0	0	0	0	0	
10	0	0	0	0	700	0	0	0	0	0	
11	0	0	0	0	692	0	0	0	0	0	
12	0	0	0	0	682	0	0	0	0	0	
13	0	0	0	0	672	0	0	0	0	0	
14	0	0	0	0	663	0	0	0	0	0	
15	0	0	0	0	656	0	0	0	0	0	
0	0	0	0	0	651	0	0	0	0	0	
1	0	0	0	0	649	0	0	0	0	0	
2	0	0	0	0	650	0	0	0	0	0	
3	0	0	0	0	655	0	0	0	0	0	
4	0	0	0	0	662	0	0	0	0	0	
5	0	0	0	0	671	0	0	0	0	0	
6	0	0	0	0	681	0	0	0	0	0	
7	0	0	0	0	691	0	0	0	0	0	
8	0	0	0	0	701	0	0	0	0	0	
9	0	0	0	0	708	0	0	0	0	0	
10	0	0	0	0	713	0	0	0	0	0	
11	0	0	0	0	715	0	0	0	0	0	
12	0	0	0	0	712	0	0	0	0	0	
13	0	0	0	0	707	0	0	0	0	0	
14	0	0	0	0	699	0	0	0	0	0	
15	0	0	0	0	689	0	0	0	0	0	
0	0	0	0	0	677	0	0	0	0	0	
1	0	0	0	0	666	0	0	0	0	0	
2	0	0	0	0	655	0	0	0	0	0	
3	0	0	0	0	647	0	0	0	0	0	
4	0	0	0	0	642	0	0	0	0	0	
5	0	0	0	0	641	0	0	0	0	0	
6	0	0	0	0	646	0	0	0	0	0	
7	0	0	0	0	654	0	0	0	0	0	
8	0	0	0	0	666	0	0	0	0	0	
9	0	0	0	0	681	0	0	0	0	0	
10	0	0	0	0	697	0	0	0	0	0	
11	0	0	0	0	712	0	0	0	0	0	
12	0	0	0	0	726	0	0	0	0	0	
13	0	0	0	0	737	0	0	0	0	0	
14	0	0	0	0	743	0	0	0	0	0	
15	0	0	0	0	744	0	0	0	0	0	
0	0	0	0	0	739	0	0	0	0	0	
1	0	0	0	0	731	0	0	0	0	0	
2	0	0	0	0	719	0	0	0	0	0	
3	0	0	0	0	704	0	0	0	0	0	
4	0	0	0	0	688	0	0	0	0	0	
5	0	0	0	0	673	0	0	0	0	0	
6	0	0	0	0	660	0	0	0	0	0	
7	0	0	0	0	651	0	0	0	0	0	
8	0	0	0	0	646	0	0	0	0	0	
9	0	0	0	0	646	0	0	0	0	0	
10	0	0	0	0	651	0	0	0	0	0	
11	0	0	0	0	660	0	0	0	0	0	
12	0	0	0	0	673	0	0	0	0	0	
13	0	0	0	0	689	0	0	0	0	0	
14	0	0	0	0	705	0	0	0	0	0	
15	0	0	0	0	721	0	0	0	0	0	
0	0	0	0	0	734	0	0	0	0	0	
1	0	0	0	0	743	0	0	0	0	0	
2	0	0	0	0	749	0	0	0	0	0	
3	0	0	0	0	748	0	0	0	0	0	
4	0	0	0	0	743	0	0	0	0	0	
5	0	0	0	0	732	0	0	0	0	0	
6	0	0	0	0	717	0	0	0	0	0	
7	0	0	0	0	700	0	0	0	0	0	
8	0	0	0	0	681	0	0	0	0	0	
9	0	0	0	0	662	0	0	0	0	0	
10	0	0	0	0	645	0	0	0	0	0	
11	0	0	0	0	632	0	0	0	0	0	
12	0	0	0	0	624	0	0	0	0	0	
13	0	0	0	0	621	0	0	0	0	0	
14	0	0	0	0	624	0	0	0	0	0	
15	0	0	0	0	633	0	0	0	0	0	
0	0	0	0	0	647	0	0	0	0	0	
1	0	0	0	0	666	0	0	0	0	0	
2	0	0	0	0	686	0	0	0	0	0	
3	0	0	0	0	706	0	0	0	0	0	
4	0	0	0	0	724	0	0	0	0	0	
5	0	0	0	0	739	0	0	0	0	0	
6	0	0	0	0	749	0	0	0	0	0	
7	0	0	0	0	754	0	0	0	0	0	
8	0	0	0	0	752	0	0	0	0	0	
9	0	0	0	0	746	0	0	0	0	0	
10	0	0	0	0	734	0	0	0	0	0	
11	0	0	0	0	719	0	0	0	0	0	
12	0	0	0	0	701	0	0	0	0	0	
13	0	0	0	0	681	0	0	0	0	0	
14	0	0	0	0	661	0	0	0	0	0	
15	0	0	0	0	643	0	0	0	0	0	
0	0	0	0	0	629	0	0	0	0	0	
1	0	0	0	0	619	0	0	0	0	0	
2	0	0	0	0	614	0	0	0	0	0	
3	0	0	0	0	615	0	0	0	0	0	
4	0	0	0	0	621	0	0	0	0	0	
5	0	0	0	0	632	0	0	0	0	0	
6	0	0	0	0	646	0	0	0	0	0	
7	0	0	0	0	660	0	0	0	0	0	
8	0	0	0	0	675	0	0	0	0	0	
9	0	0	0	0	687	0	0	0	0	0	
10	0	0	0	0	696	0	0	0	0	0	
11	0	0	0	0	700	0	0	0	0	0	
12	0	0	0	0	699	0	0	0	0	0	
13	0	0	0	0	693	0	0	0	0	0	
14	0	0	0	0	682	0	0	0	0	0	
15	0	0	0	0	668	8	0	0	0	0	
0	0	0	0	0	651	26	0	0	0	0	
1	0	0	0	0	633	44	0	0	0	0	
2	0	0	0	0	615	57	0	0	0	0	
3	0	0	0	0	600	62	0	0	0	0	
4	0	0	0	0	589	59	0	0	0	0	
5	0	0	0	0	583	46	0	0	0	0	
6	0	0	0	0	582	26	0	0	0	0	
7	0	0	0	0	588	3	0	0	0	0	
8	0	0	0	0	598	0	0	0	0	0	
9	0	0	0	0	614	0	0	0	0	0	
10	0	0	0	0	632	0	0	0	0	0	
11	0	0	0	0	652	0	0	0	0	0	
12	0	0	0	0	672	0	0	0	0	0	
13	0	0	0	0	689	0	0	0	0	0	
14	0	0	0	0	704	0	0	0	0	0	
15	0	0	0	0	713	0	0	0	0	0	
0	0	0	0	0	718	0	0	0	0	0	
1	0	0	0	0	716	0	0	0	0	0	
2	0	0	0	0	710	0	0	0	0	0	
3	0	0	0	0	699	0	0	0	0	0	
4	0	0	0	0	684	0	0	0	0	0	
5	0	0	0	0	668	0	0	0	0	0	
6	0	0	0	0	651	0	0	0	0	0	
7	0	0	0	0	636	0	0	0	0	0	
8	0	0	0	0	624	0	0	0	0	0	
9	0	0	0	0	616	0	0	0	0	0	
10	0	0	0	0	613	0	0	0	0	0	
11	0	0	0	0	616	0	0	0	0	0	
12	0	0	0	0	624	0	0	0	0	0	
13	0	0	0	0	636	0	0	0	0	0	
14	0	0	0	0	651	0	0	0	0	0	
15	0	0	0	0	666	0	0	0	0	0	
0	0	0	0	0	681	0	0	0	0	0	
1	0	0	0	0	694	0	0	0	0	0	
2	0	0	0	0	703	0	0	0	0	0	
3	0	0	0	0	708	0	0	0	0	0	
4	0	0	0	0	708	0	0	0	0	0	
5	0	0	0	0	704	0	0	0	0	0	
6	0	0	0	0	695	0	0	0	0	0	
7	0	0	0	0	682	0	0	0	0	0	
8	0	0	0	0	666	0	0	0	0	0	
9	0	0	0	0	650	0	0	0	0	0	
10	0	0	0	0	634	0	0	0	0	0	
11	0	0	0	0	620	0	0	0	0	0	
12	0	0	0	0	611	0	0	0	0	0	
13	0	0	0	0	606	0	0	0	0	0	
14	0	0	0	0	608	0	0	0	0	0	
15	0	0	0	0	615	0	0	0	0	0	
0	0	0	0	0	630	0	0	0	0	0	
1	0	0	0	0	647	0	0	0	0	0	
2	0	0	0	0	668	0	0	0	0	0	
3	0	0	0	0	690	0	0	0	0	0	
4	0	0	0	0	711	0	0	0	0	0	
5	0	0	0	0	730	0	0	0	0	0	
6	0	0	0	0	744	0	0	0	0	0	
7	0	0	0	0	753	0	0	0	0	0	
8	0	0	0	0	756	0	0	0	0	0	
9	0	0	0	0	752	0	0	0	0	0	
10	0	0	0	0	743	0	0	0	0	0	
11	0	0	0	0	731	0	0	0	0	0	
12	0	0	0	0	714	0	0	0	0	0	
13	0	0	0	0	696	0	0	0	0	0	
14	0	0	0	0	679	0	0	0	0	0	
15	0	0	0	0	662	0	0	0	0	0	
0	0	0	0	0	650	0	0	0	0	0	
1	0	0	0	0	641	0	0	0	0	0	
2	0	0	0	0	638	0	0	0	0	0	
3	0	0	0	0	640	0	0	0	0	0	
4	0	0	0	0	647	0	0	0	0	0	
5	0	0	0	0	659	0	0	0	0	0	
6	0	0	0	0	672	0	0	0	0	0	
7	0	0	0	0	686	0	0	0	0	0	
8	0	0	0	0	699	0	0	0	0	0	
9	0	0	0	0	710	0	0	0	0	0	
10	0	0	0	0	716	0	0	0	0	0	
11	0	0	0	0	719	0	0	0	0	0	
12	0	0	0	0	717	0	0	0	0	0	
13	0	0	0	0	710	0	0	0	0	0	
14	0	0	0	0	700	0	0	0	0	0	
15	0	0	0	0	687	0	0	0	0	0	
0	0	0	0	0	671	0	0	0	0	0	
1	0	0	0	0	656	0	0	0	0	0	
2	0	0	0	0	643	0	0	0	0	0	
3	0	0	0	0	632	0	0	0	0	0	
4	0	0	0	0	624	0	0	0	0	0	
5	0	0	0	0	622	0	0	0	0	0	
6	0	0	0	0	624	0	0	0	0	0	
7	0	0	0	0	632	0	0	0	0	0	
8	0	0	0	0	645	0	0	0	0	0	
9	0	0	0	0	662	0	0	0	0	0	
10	0	0	0	0	681	0	0	0	0	0	
11	0	0	0	0	700	0	0	0	0	0	
12	0	0	0	0	719	0	0	0	0	0	
13	0	0	0	0	735	0	0	0	0	0	
14	0	0	0	0	747	0	0	0	0	0	
15	0	0	0	0	754	0	0	0	0	0	
0	0	0	0	0	755	0	0	0	0	0	
1	0	0	0	0	751	0	0	0	0	0	
2	0	0	0	0	742	0	0	0	0	0	
3	0	0	0	0	728	0	0	0	0	0	
4	0	0	0	0	710	0	0	0	0	0	
5	0	0	0	0	691	0	0	0	0	0	
6	0	0	0	0	670	0	0	0	0	0	
7	0	0	0	0	651	0	0	0	0	0	
8	0	0	0	0	634	0	0	0	0	0	
9	0	0	0	0	622	0	0	0	0	0	
10	0	0	0	0	614	0	0	0	0	0	
11	0	0	0	0	612	0	0	0	0	0	
12	0	0	0	0	617	0	0	0	0	0	
13	0	0	0	0	627	0	0	0	0	0	
14	0	0	0	0	643	0	0	0	0	0	
15	0	0	0	0	661	0	0	0	0	0	
0	0	0	0	0	681	0	0	0	0	0	
1	0	0	0	0	700	0	0	0	0	0	
2	0	0	0	0	716	0	0	0	0	0	
3	0	0	0	0	729	0	0	0	0	0	
4	0	0	0	0	738	0	0	0	0	0	
5	0	0	0	0	741	0	0	0	0	0	
6	0	0	0	0	740	0	0	0	0	0	
7	0	0	0	0	733	0	0	0	0	0	
8	0	0	0	0	722	0	0	0	0	0	
9	0	0	0	0	708	0	0	0	0	0	
10	0	0	0	0	692	0	0	0	0	0	
11	0	0	0	0	677	0	0	0	0	0	
12	0	0	0	0	663	0	0	0	0	0	
13	0	0	0	0	653	0	0	0	0	0	
14	0	0	0	0	647	0	0	0	0	0	
15	0	0	0	0	646	0	0	0	0	0	
0	0	0	0	0	650	0	0	0	0	0	
1	0	0	0	0	659	0	0	0	0	0	
2	0	0	0	0	672	0	0	0	0	0	
3	0	0	0	0	687	0	0	0	0	0	
4	0	0	0	0	702	0	0	0	0	0	
5	0	0	0	0	716	0	0	0	0	0	
6	0	0	0	0	728	0	0	0	0	0	
7	0	0	0	0	735	0	0	0	0	0	
8	0	0	0	0	738	0	0	0	0	0	
9	0	0	0	0	737	0	0	0	0	0	
10	0	0	0	0	731	0	0	0	0	0	
11	0	0	0	0	721	0	0	0	0	0	
12	0	0	0	0	709	0	0	0	0	0	
13	0	0	0	0	696	0	0	0	0	0	
14	0	0	0	0	684	0	0	0	0	0	
15	0	0	0	0	673	0	0	0	0	0	
0	0	0	0	0	666	0	0	0	0	0	
1	0	0	0	0	663	0	0	0	0	0	
2	0	0	0	0	666	0	0	0	0	0	
3	0	0	0	0	674	0	0	0	0	0	
4	0	0	0	0	687	0	0	0	0	0	
5	0	0	0	0	703	0	0	0	0	0	
6	0	0	0	0	720	0	0	0	0	0	
7	0	0	0	0	737	0	0	0	0	0	
8	0	0	0	0	754	0	0	0	0	0	
9	0	0	0	0	767	0	0	0	0	0	
10	0	0	0	0	777	0	0	0	0	0	
11	0	0	0	0	782	0	0	0	0	0	
12	0	0	0	0	782	0	0	0	0	0	
13	0	0	0	0	778	0	0	0	0	0	
14	0	0	0	0	769	0	0	0	0	0	
15	0	0	0	0	757	0	0	0	0	0	
0	0	0	0	0	742	0	0	0	0	0	
1	0	0	0	0	726	0	0	0	0	0	
2	0	0	0	0	709	0	0	0	0	0	
3	0	0	0	0	694	0	0	0	0	0	
4	0	0	0	0	682	0	0	0	0	0	
5	0	0	0	0	673	0	0	0	0	0	
6	0	0	0	0	670	0	0	0	0	0	
7	0	0	0	0	672	0	0	0	0	0	
8	0	0	0	0	679	0	0	0	0	0	
9	0	0	0	0	691	0	0	0	0	0	
10	0	0	0	0	705	0	0	0	0	0	
11	0	0	0	0	720	0	0	0	0	0	
12	0	0	0	0	734	0	0	0	0	0	
13	0	0	0	0	746	0	0	0	0	0	
14	0	0	0	0	753	0	0	0	0	0	
15	0	0	0	0	755	0	0	0	0	0	
0	0	0	0	0	752	0	0	0	0	0	
1	0	0	0	0	742	0	0	0	0	0	
2	0	0	0	0	728	0	0	0	0	0	
3	0	0	0	0	709	0	0	0	0	0	
4	0	0	0	0	688	0	0	0	0	0	
5	0	0	0	0	666	0	0	0	0	0	
6	0	0	0	0	645	0	0	0	0	0	
7	0	0	0	0	627	0	0	0	0	0	
8	0	0	0	0	614	0	0	0	0	0	
9	0	0	0	0	608	0	0	0	0	0	
10	0	0	0	0	608	0	0	0	0	0	
11	0	0	0	0	615	0	0	0	0	0	
12	0	0	0	0	629	0	0	0	0	0	
13	0	0	0	0	648	0	0	0	0	0	
14	0	0	0	0	671	0	0	0	0	0	
15	0	0	0	0	694	0	0	0	0	0	
0	0	0	0	0	716	0	0	0	0	0	
1	0	0	0	0	736	0	0	0	0	0	
2	0	0	0	0	751	0	0	0	0	0	
3	0	0	0	0	761	0	0	0	0	0	
4	0	0	0	0	764	0	0	0	0	0	
5	0	0	0	0	761	0	0	0	0	0	
6	0	0	0	0	754	0	0	0	0	0	
7	0	0	0	0	742	0	0	0	0	0	
8	0	0	0	0	727	0	0	0	0	0	
9	0	0	0	0	710	0	0	0	0	0	
10	0	0	0	0	694	0	0	0	0	0	
11	0	0	0	0	678	0	0	0	0	0	
12	0	0	0	0	664	0	0	0	0	0	
13	0	0	0	0	654	0	0	0	0	0	
14	0	0	0	0	648	0	0	0	0	0	
15	0	0	0	0	647	0	0	0	0	0	
0	0	0	0	0	649	0	0	0	0	0	
1	0	0	0	0	656	0	0	0	0	0	
2	0	0	0	0	665	0	0	0	0	0	
3	0	0	0	0	676	0	0	0	0	0	
4	0	0	0	0	686	0	0	0	0	0	
5	0	0	0	0	695	0	0	0	0	0	
6	0	0	0	0	702	0	0	0	0	0	
7	0	0	0	0	704	0	0	0	0	0	
8	0	0	0	0	704	0	0	0	0	0	
9	0	0	0	0	700	0	0	0	0	0	
10	0	0	0	0	693	0	0	0	0	0	
11	0	0	0	0	684	0	0	0	0	0	
12	0	0	0	0	673	0	0	0	0	0	
13	0	0	0	0	662	0	0	0	0	0	
14	0	0	0	0	652	0	0	0	0	0	
15	0	0	0	0	644	0	0	0	0	0	
0	0	0	0	0	639	0	0	0	0	0	
1	0	0	0	0	639	0	0	0	0	0	
2	0	0	0	0	641	0	0	0	0	0	
3	0	0	0	0	648	0	0	0	0	0	
4	0	0	0	0	659	0	0	0	0	0	
5	0	0	0	0	672	0	0	0	0	0	
6	0	0	0	0	688	0	0	0	0	0	
7	0	0	0	0	703	0	0	0	0	0	
8	0	0	0	0	717	0	0	0	0	0	
9	0	0	0	0	729	0	0	0	0	0	
10	0	0	0	0	737	0	0	0	0	0	
11	0	0	0	0	740	0	0	0	0	0	
12	0	0	0	0	739	0	0	0	0	0	
13	0	0	0	0	733	0	0	0	0	0	
14	0	0	0	0	722	0	0	0	0	0	
15	0	0	0	0	708	0	0	0	0	0	
0	0	0	0	0	692	0	0	0	0	0	
1	0	0	0	0	675	0	0	0	0	0	
2	0	0	0	0	659	0	0	0	0	0	
3	0	0	0	0	647	0	0	0	0	0	
4	0	0	0	0	638	0	0	0	0	0	
5	0	0	0	0	635	0	0	0	0	0	
6	0	0	0	0	638	0	0	0	0	0	
7	0	0	0	0	647	0	0	0	0	0	
8	0	0	0	0	660	0	0	0	0	0	
9	0	0	0	0	678	0	0	0	0	0	
10	0	0	0	0	698	0	0	0	0	0	
11	0	0	0	0	717	0	0	0	0	0	
12	0	0	0	0	735	0	0	0	0	0	
13	0	0	0	0	748	0	0	0	0	0	
14	0	0	0	0	757	0	0	0	0	0	
15	0	0	0	0	759	0	0	0	0	0	
0	0	0	0	0	756	0	0	0	0	0	
1	0	0	0	0	748	0	0	0	0	0	
2	0	0	0	0	736	0	0	0	0	0	
3	0	0	0	0	719	0	0	0	0	0	
4	0	0	0	0	702	0	0	0	0	0	
5	0	0	0	0	684	0	0	0	0	0	
6	0	0	0	0	669	0	0	0	0	0	
7	0	0	0	0	656	0	0	0	0	0	
8	0	0	0	0	647	0	0	0	0	0	
9	0	0	0	0	644	0	0	0	0	0	
10	0	0	0	0	647	0	0	0	0	0	
11	0	0	0	0	655	0	0	0	0	0	
12	0	0	0	0	668	0	0	0	0	0	
13	0	0	0	0	686	0	0	0	0	0	
14	0	0	0	0	705	0	0	0	0	0	
15	0	0	0	0	726	0	0	0	0	0	
0	0	0	0	0	745	0	0	0	0	0	
1	0	0	0	0	762	0	0	0	0	0	
2	0	0	0	0	774	0	0	0	0	0	
3	0	0	0	0	780	0	0	0	0	0	
4	0	0	0	0	780	0	0	0	0	0	
5	0	0	0	0	773	0	0	0	0	0	
6	0	0	0	0	760	0	0	0	0	0	
7	0	0	0	0	742	0	0	0	0	0	
8	0	0	0	0	719	0	0	0	0	0	
9	0	0	0	0	695	0	0	0	0	0	
10	0	0	0	0	671	0	0	0	0	0	
11	0	0	0	0	650	0	0	0	0	0	
12	0	0	0	0	632	0	0	0	0	0	
13	0	0	0	0	621	0	0	0	0	0	
14	0	0	0	0	616	0	0	0	0	0	
15	0	0	0	0	619	0	0	0	0	0	
0	0	0	0	0	629	0	0	0	0	0	
1	0	0	0	0	644	0	0	0	0	0	
2	0	0	0	0	664	0	0	0	0	0	
3	0	0	0	0	685	0	0	0	0	0	
4	0	0	0	0	707	0	0	0	0	0	
5	0	0	0	0	726	0	0	0	0	0	
6	0	0	0	0	742	0	0	0	0	0	
7	0	0	0	0	753	0	0	0	0	0	
8	0	0	0	0	760	0	0	0	0	0	
9	0	0	0	0	760	0	0	0	0	0	
10	0	0	0	0	754	0	0	0	0	0	
11	0	0	0	0	744	0	0	0	0	0	
12	0	0	0	0	730	0	0	0	0	0	
13	0	0	0	0	714	0	0	0	0	0	
14	0	0	0	0	698	0	0	0	0	0	
15	0	0	0	0	683	0	0	0	0	0	
0	0	0	0	0	671	0	0	0	0	0	
1	0	0	0	0	663	0	0	0	0	0	
2	0	0	0	0	660	0	0	0	0	0	
3	0	0	0	0	662	0	0	0	0	0	
4	0	0	0	0	669	0	0	0	0	0	
5	0	0	0	0	680	0	0	0	0	0	
6	0	0	0	0	694	0	0	0	0	0	
7	0	0	0	0	708	0	0	0	0	0	
8	0	0	0	0	722	0	0	0	0	0	
9	0	0	0	0	734	0	0	0	0	0	
10	0	0	0	0	741	0	0	0	0	0	
11	0	0	0	0	743	0	0	0	0	0	
12	0	0	0	0	740	0	0	0	0	0	
13	0	0	0	0	732	0	0	0	0	0	
14	0	0	0	0	719	0	0	0	0	0	
15	0	0	0	0	702	0	0	0	0	0	
0	0	0	0	0	683	0	0	0	0	0	
1	0	0	0	0	662	0	0	0	0	0	
2	0	0	0	0	642	0	0	0	0	0	
3	0	0	0	0	624	0	0	0	0	0	
4	0	0	0	0	610	0	0	0	0	0	
5	0	0	0	0	602	0	0	0	0	0	
6	0	0	0	0	599	0	0	0	0	0	
7	0	0	0	0	602	0	0	0	0	0	
8	0	0	0	0	610	0	0	0	0	0	
9	0	0	0	0	623	0	0	0	0	0	
10	0	0	0	0	639	0	0	0	0	0	
11	0	0	0	0	656	0	0	0	0	0	
12	0	0	0	0	673	0	0	0	0	0	
13	0	0	0	0	687	0	0	0	0	0	
14	0	0	0	0	696	0	0	0	0	0	
15	0	0	0	0	700	0	0	0	0	0	
0	0	0	0	0	699	0	0	0	0	0	
1	0	0	0	0	692	0	0	0	0	0	
2	0	0	0	0	679	0	0	0	0	0	
3	0	0	0	0	663	0	0	0	0	0	
4	0	0	0	0	644	0	0	0	0	0	
5	0	0	0	0	623	0	0	0	0	0	
6	0	0	0	0	604	0	0	0	0	0	
7	0	0	0	0	587	0	0	0	0	0	
8	0	0	0	0	574	0	0	0	0	0	
9	0	0	0	0	567	0	0	0	0	0	
10	0	0	0	0	565	0	0	0	0	0	
11	0	0	0	0	569	0	0	0	0	0	
12	0	0	0	0	579	0	0	0	0	0	
13	0	0	0	0	593	0	0	0	0	0	
14	0	0	0	0	611	0	0	0	0	0	
15	0	0	0	0	629	0	0	0	0	0	
0	0	0	0	0	647	0	0	0	0	0	
1	0	0	0	0	662	0	0	0	0	0	
2	0	0	0	0	674	0	0	0	0	0	
3	0	0	0	0	681	0	0	0	0	0	
4	0	0	0	0	682	0	0	0	0	0	
5	0	0	0	0	677	0	0	0	0	0	
6	0	0	0	0	668	0	0	0	0	0	
7	0	0	0	0	653	0	0	0	0	0	
8	0	0	0	0	635	0	0	0	0	0	
9	0	0	0	0	615	0	0	0	0	0	
10	0	0	0	0	596	0	0	0	0	0	
11	0	0	0	0	578	0	0	0	0	0	
12	0	0	0	0	564	0	0	0	0	0	
13	0	0	0	0	555	0	0	0	0	0	
14	0	0	0	0	550	0	0	0	0	0	
15	0	0	0	0	553	0	0	0	0	0	
0	0	0	0	0	560	0	0	0	0	0	
1	0	0	0	0	573	0	0	0	0	0	
2	0	0	0	0	588	0	0	0	0	0	
3	0	0	0	0	604	0	0	0	0	0	
4	0	0	0	0	620	0	0	0	0	0	
5	0	0	0	0	632	0	0	0	0	0	
6	0	0	0	0	641	0	0	0	0	0	
7	0	0	0	0	646	0	0	0	0	0	
8	0	0	0	0	644	0	0	0	0	0	
9	0	0	0	0	637	0	0	0	0	0	
10	0	0	0	0	626	0	0	0	0	0	
11	0	0	0	0	611	0	0	0	0	0	
12	0	0	0	0	593	0	0	0	0	0	
13	0	0	0	0	575	0	0	0	0	0	
14	0	0	0	0	557	0	0	0	0	0	
15	0	0	0	0	541	0	0	0	0	0	
0	0	0	0	0	528	0	0	0	0	0	
1	0	0	0	0	522	0	0	0	0	0	
2	0	0	0	0	520	0	0	0	0	0	
3	0	0	0	0	526	0	0	0	0	0	
4	0	0	0	0	537	0	0	0	0	0	
5	0	0	0	0	552	0	0	0	0	0	
6	0	0	0	0	571	0	0	0	0	0	
7	0	0	0	0	590	0	0	0	0	0	
8	0	0	0	0	608	0	0	0	0	0	
9	0	0	0	0	622	0	0	0	0	0	
10	0	0	0	0	632	0	0	0	0	0	
11	0	0	0	0	636	0	0	0	0	0	
12	0	0	0	0	634	0	0	0	0	0	
13	0	0	0	0	627	0	0	0	0	0	
14	0	0	0	0	615	0	0	0	0	0	
15	0	0	0	0	600	0	0	0	0	0	
0	0	0	0	0	582	0	0	0	0	0	
1	0	0	0	0	565	0	0	0	0	0	
2	0	0	0	0	549	0	0	0	0	0	
3	0	0	0	0	536	0	0	0	0	0	
4	0	0	0	0	528	0	0	0	0	0	
5	0	0	0	0	526	0	0	0	0	0	
6	0	0	0	0	529	0	0	0	0	0	
7	0	0	0	0	539	0	0	0	0	0	
8	0	0	0	0	555	0	0	0	0	0	
9	0	0	0	0	574	0	0	0	0	0	
10	0	0	0	0	596	0	0	0	0	0	
11	0	0	0	0	619	0	0	0	0	0	
12	0	0	0	0	639	0	0	0	0	0	
13	0	0	0	0	657	0	0	0	0	0	
14	0	0	0	0	668	0	0	0	0	0	
15	0	0	0	0	674	0	0	0	0	0	
0	0	0	0	0	672	0	0	0	0	0	
1	0	0	0	0	664	0	0	0	0	0	
2	0	0	0	0	650	0	0	0	0	0	
3	0	0	0	0	630	0	0	0	0	0	
4	0	0	0	0	608	0	0	0	0	0	
5	0	0	0	0	583	0	0	0	0	0	
6	0	0	0	0	560	0	0	0	0	0	
7	0	0	0	0	539	0	0	0	0	0	
8	0	0	0	0	522	0	0	0	0	0	
9	0	0	0	0	511	0	0	0	0	0	
10	0	0	0	0	507	0	0	0	0	0	
11	0	0	0	0	509	0	0	0	0	0	
12	0	0	0	0	518	0	0	0	0	0	
13	0	0	0	0	532	0	0	0	0	0	
14	0	0	0	0	550	0	0	0	0	0	
15	0	0	0	0	568	0	0	0	0	0	
0	0	0	0	0	587	0	0	0	0	0	
1	0	0	0	0	603	0	0	0	0	0	
2	0	0	0	0	615	0	0	0	0	0	
3	0	0	0	0	624	0	0	0	0	0	
4	0	0	0	0	627	0	0	0	0	0	
5	0	0	0	0	625	0	0	0	0	0	
6	0	0	0	0	619	0	0	0	0	0	
7	0	0	0	0	609	0	0	0	0	0	
8	0	0	0	0	596	0	0	0	0	0	
9	0	0	0	0	582	0	0	0	0	0	
10	0	0	0	0	568	0	0	0	0	0	
11	0	0	0	0	556	0	0	0	0	0	
12	0	0	0	0	547	0	0	0	0	0	
13	0	0	0	0	542	0	0	0	0	0	
14	0	0	0	0	541	0	0	0	0	0	
15	0	0	0	0	545	0	0	0	0	0	
0	0	0	0	0	554	0	0	0	0	0	
1	0	0	0	0	567	0	0	0	0	0	
2	0	0	0	0	582	0	0	0	0	0	
3	0	0	0	0	598	0	0	0	0	0	
4	0	0	0	0	613	0	0	0	0	0	
5	0	0	0	0	626	0	0	0	0	0	
6	0	0	0	0	636	0	0	0	0	0	
7	0	0	0	0	640	0	0	0	0	0	
8	0	0	0	0	640	0	0	0	0	0	
9	0	0	0	0	636	0	0	0	0	0	
10	0	0	0	0	627	0	0	0	0	0	
11	0	0	0	0	614	0	0	0	0	0	
12	0	0	0	0	598	0	0	0	0	0	
13	0	0	0	0	580	0	0	0	0	0	
14	0	0	0	0	560	0	0	0	0	0	
15	0	0	0	0	541	0	0	0	0	0	
0	0	0	0	0	523	0	0	0	0	0	
1	0	0	0	0	508	0	0	0	0	0	
2	0	0	0	0	496	0	0	0	0	0	
3	0	0	0	0	486	0	0	0	0	0	
4	0	0	0	0	481	0	0	0	0	0	
5	0	0	0	0	479	0	0	0	0	0	
6	0	0	0	0	478	0	0	0	0	0	
7	0	0	0	0	479	0	0	0	0	0	
8	0	0	0	0	478	0	0	0	0	0	
9	0	0	0	0	476	0	0	0	0	0	
10	0	0	0	0	472	0	0	0	0	0	
11	0	0	0	0	463	0	0	0	0	0	
12	0	0	0	0	450	0	0	0	0	0	
13	0	0	0	0	432	0	0	0	0	0	
14	0	0	0	0	411	0	0	0	0	0	
15	0	0	0	0	386	0	0	0	0	0	
0	0	0	0	0	359	0	0	0	0	0	
1	0	0	0	0	331	0	0	0	0	0	
2	0	0	0	0	303	0	0	0	0	0	
3	0	0	0	0	279	0	0	0	0	0	
4	0	0	0	0	260	0	0	0	0	0	
5	0	0	0	0	248	0	0	0	0	0	
6	0	0	0	0	245	0	0	0	0	0	
7	0	0	0	0	251	0	0	0	0	0	
8	0	0	0	0	267	0	0	0	0	0	
9	0	0	0	0	292	0	0	0	0	0	
10	0	0	0	0	324	0	0	0	0	0	
11	0	0	0	0	361	0	0	0	0	0	
12	0	0	0	0	399	0	0	0	0	0	
13	0	0	0	0	436	0	0	0	0	0	
14	0	0	0	0	470	0	0	0	0	0	
15	0	0	0	0	498	0	0	0	0	0	
0	0	0	0	0	519	0	0	0	0	0	
1	0	0	0	0	531	0	0	0	0	0	
2	0	0	0	0	537	0	0	0	0	0	
3	0	0	0	0	535	0	0	0	0	0	
4	0	0	0	0	528	0	0	0	0	0	
5	0	0	0	0	518	0	0	0	0	0	
6	0	0	0	0	506	0	0	0	0	0	
7	0	0	0	0	496	0	0	0	0	0	
8	0	0	0	0	489	0	0	0	0	0	
9	0	0	0	0	488	0	0	0	0	0	
10	0	0	0	0	492	0	0	0	0	0	
11	0	0	0	0	504	0	0	0	0	0	
12	0	0	0	0	520	0	0	0	0	0	
13	0	0	0	0	542	0	0	0	0	0	
14	0	0	0	0	567	0	0	0	0	0	
15	0	0	0	0	592	0	0	0	0	0	
0	0	0	0	0	617	0	0	0	0	0	
1	0	0	0	0	639	0	0	0	0	0	
2	0	0	0	0	655	0	0	0	0	0	
3	0	0	0	0	665	0	0	0	0	0	
4	0	0	0	0	669	0	0	0	0	0	
5	0	0	0	0	666	0	0	0	0	0	
6	0	0	0	0	657	0	0	0	0	0	
7	0	0	0	0	643	0	0	0	0	0	
8	0	0	0	0	625	0	0	0	0	0	
9	0	0	0	0	606	0	0	0	0	0	
10	0	0	0	0	587	0	0	0	0	0	
11	0	0	0	0	571	0	0	0	0	0	
12	0	0	0	0	559	0	0	0	0	0	
13	0	0	0	0	552	0	0	0	0	0	
14	0	0	0	0	552	0	0	0	0	0	
15	0	0	0	0	558	0	0	0	0	0	
0	0	0	0	0	569	0	0	0	0	0	
1	0	0	0	0	584	0	0	0	0	0	
2	0	0	0	0	603	0	0	0	0	0	
3	0	0	0	0	620	0	0	0	0	0	
4	0	0	0	0	636	0	0	0	0	0	
5	0	0	0	0	649	0	0	0	0	0	
6	0	0	0	0	657	0	0	0	0	0	
7	0	0	0	0	660	0	0	0	0	0	
8	0	0	0	0	657	0	0	0	0	0	
9	0	0	0	0	649	0	0	0	0	0	
10	0	0	0	0	637	0	0	0	0	0	
11	0	0	0	0	622	0	0	0	0	0	
12	0	0	0	0	605	0	0	0	0	0	
13	0	0	0	0	588	0	0	0	0	0	
14	0	0	0	0	574	0	0	0	0	0	
15	0	0	0	0	563	0	0	0	0	0	
0	0	0	0	0	556	0	0	0	0	0	
1	0	0	0	0	556	0	0	0	0	0	
2	0	0	0	0	562	0	0	0	0	0	
3	0	0	0	0	574	0	0	0	0	0	
4	0	0	0	0	592	0	0	0	0	0	
5	0	0	0	0	614	0	0	0	0	0	
6	0	0	0	0	638	0	0	0	0	0	
7	0	0	0	0	663	0	0	0	0	0	
8	0	0	0	0	684	0	0	0	0	0	
9	0	0	0	0	702	0	0	0	0	0	
10	0	0	0	0	714	0	0	0	0	0	
11	0	0	0	0	720	0	0	0	0	0	
12	0	0	0	0	719	0	0	0	0	0	
13	0	0	0	0	711	0	0	0	0	0	
14	0	0	0	0	697	0	0	0	0	0	
15	0	0	0	0	678	0	0	0	0	0	
0	0	0	0	0	658	0	0	0	0	0	
1	0	0	0	0	635	0	0	0	0	0	
2	0	0	0	0	614	0	0	0	0	0	
3	0	0	0	0	596	0	0	0	0	0	
4	0	0	0	0	583	0	0	0	0	0	
5	0	0	0	0	575	0	0	0	0	0	
6	0	0	0	0	574	0	0	0	0	0	
7	0	0	0	0	581	0	0	0	0	0	
8	0	0	0	0	594	0	0	0	0	0	
9	0	0	0	0	612	0	0	0	0	0	
10	0	0	0	0	633	0	0	0	0	0	
11	0	0	0	0	656	0	0	0	0	0	
12	0	0	0	0	678	0	0	0	0	0	
13	0	0	0	0	697	0	0	0	0	0	
14	0	0	0	0	710	0	0	0	0	0	
15	0	0	0	0	718	0	0	0	0	0	
0	0	0	0	0	719	0	0	0	0	0	
1	0	0	0	0	713	0	0	0	0	0	
2	0	0	0	0	702	0	0	0	0	0	
3	0	0	0	0	685	0	0	0	0	0	
4	0	0	0	0	665	0	0	0	0	0	
5	0	0	0	0	642	0	0	0	0	0	
6	0	0	0	0	620	0	0	0	0	0	
7	0	0	0	0	599	0	0	0	0	0	
8	0	0	0	0	580	0	0	0	0	0	
9	0	0	0	0	566	0	0	0	0	0	
10	0	0	0	0	558	0	0	0	0	0	
11	0	0	0	0	556	0	0	0	0	0	
12	0	0	0	0	560	0	0	0	0	0	
13	0	0	0	0	571	0	0	0	0	0	
14	0	0	0	0	585	0	0	0	0	0	
15	0	0	0	0	603	0	0	0	0	0	
0	0	0	0	0	622	0	0	0	0	0	
1	0	0	0	0	639	0	0	0	0	0	
2	0	0	0	0	654	0	0	0	0	0	
3	0	0	0	0	663	0	0	0	0	0	
4	0	0	0	0	667	0	0	0	0	0	
5	0	0	0	0	665	0	0	0	0	0	
6	0	0	0	0	659	0	0	0	0	0	
7	0	0	0	0	647	0	0	0	0	0	
8	0	0	0	0	631	0	0	0	0	0	
9	0	0	0	0	615	0	0	0	0	0	
10	0	0	0	0	597	0	0	0	0	0	
11	0	0	0	0	582	0	0	0	0	0	
12	0	0	0	0	568	0	0	0	0	0	
13	0	0	0	0	559	0	0	0	0	0	
14	0	0	0	0	553	0	0	0	0	0	
15	0	0	0	0	552	0	0	0	0	0	
0	0	0	0	0	556	0	0	0	0	0	
1	0	0	0	0	564	0	0	0	0	0	
2	0	0	0	0	575	0	0	0	0	0	
3	0	0	0	0	587	0	0	0	0	0	
4	0	0	0	0	601	0	0	0	0	0	
5	0	0	0	0	614	0	0	0	0	0	
6	0	0	0	0	624	0	0	0	0	0	
7	0	0	0	0	631	0	0	0	0	0	
8	0	0	0	0	634	0	0	0	0	0	
9	0	0	0	0	633	0	0	0	0	0	
10	0	0	0	0	628	0	0	0	0	0	
11	0	0	0	0	620	0	0	0	0	0	
12	0	0	0	0	608	0	0	0	0	0	
13	0	0	0	0	595	0	0	0	0	0	
14	0	0	0	0	583	0	0	0	0	0	
15	0	0	0	0	573	0	0	0	0	0	
0	0	0	0	0	565	0	0	0	0	0	
1	0	0	0	0	562	0	0	0	0	0	
2	0	0	0	0	564	0	0	0	0	0	
3	0	0	0	0	571	0	0	0	0	0	
4	0	0	0	0	581	0	0	0	0	0	
5	0	0	0	0	595	0	0	0	0	0	
6	0	0	0	0	611	0	0	0	0	0	
7	0	0	0	0	625	0	0	0	0	0	
8	0	0	0	0	639	0	0	0	0	0	
9	0	0	0	0	649	0	0	0	0	0	
10	0	0	0	0	656	0	0	0	0	0	
11	0	0	0	0	657	0	0	0	0	0	
12	0	0	0	0	653	0	0	0	0	0	
13	0	0	0	0	644	0	0	0	0	0	
14	0	0	0	0	631	0	0	0	0	0	
15	0	0	0	0	614	0	0	0	0	0	
0	0	0	0	0	595	0	0	0	0	0	
1	0	0	0	0	575	0	0	0	0	0	
2	0	0	0	0	558	0	0	0	0	0	
3	0	0	0	0	543	0	0	0	0	0	
4	0	0	0	0	534	0	0	0	0	0	
5	0	0	0	0	531	0	0	0	0	0	
6	0	0	0	0	535	0	0	0	0	0	
7	0	0	0	0	545	0	0	0	0	0	
8	0	0	0	0	561	0	0	0	0	0	
9	0	0	0	0	581	0	0	0	0	0	
10	0	0	0	0	604	0	0	0	0	0	
11	0	0	0	0	627	0	0	0	0	0	
12	0	0	0	0	649	0	0	0	0	0	
13	0	0	0	0	668	0	0	0	0	0	
14	0	0	0	0	681	0	0	0	0	0	
15	0	0	0	0	688	0	0	0	0	0	
0	0	0	0	0	690	0	0	0	0	0	
1	0	0	0	0	685	3	0	0	0	0	
2	0	0	0	0	674	5	0	0	0	0	
3	0	0	0	0	659	4	0	0	0	0	
4	0	0	0	0	640	1	0	0	0	0	
5	0	0	0	0	621	0	0	0	0	0	
6	0	0	0	0	601	0	0	0	0	0	
7	0	0	0	0	585	0	0	0	0	0	
8	0	0	0	0	572	0	0	0	0	0	
9	0	0	0	0	563	0	0	0	0	0	
10	0	0	0	0	560	0	0	0	0	0	
11	0	0	0	0	563	0	0	0	0	0	
12	0	0	0	0	571	0	0	0	0	0	
13	0	0	0	0	584	0	0	0	0	0	
14	0	0	0	0	599	0	0	0	0	0	
15	0	0	0	0	614	0	0	0	0	0	
0	0	0	0	0	628	0	0	0	0	0	
1	0	0	0	0	639	0	0	0	0	0	
2	0	0	0	0	646	0	0	0	0	0	
3	0	0	0	0	648	0	0	0	0	0	
4	0	0	0	0	644	2	0	0	0	0	
5	0	0	0	0	635	3	0	0	0	0	
6	0	0	0	0	622	2	0	0	0	0	
7	0	0	0	0	606	0	0	0	0	0	
8	0	0	0	0	587	0	0	0	0	0	
9	0	0	0	0	567	0	0	0	0	0	
10	0	0	0	0	548	0	0	0	0	0	
11	0	0	0	0	532	0	0	0	0	0	
12	0	0	0	0	520	0	0	0	0	0	
13	0	0	0	0	514	0	0	0	0	0	
14	0	0	0	0	515	0	0	0	0	0	
15	0	0	0	0	523	0	0	0	0	0	
0	0	0	0	0	537	0	0	0	0	0	
1	0	0	0	0	556	0	0	0	0	0	
2	0	0	0	0	579	0	0	0	0	0	
3	0	0	0	0	601	2	0	0	0	0	
4	0	0	0	0	623	13	0	0	0	0	
5	0	0	0	0	642	27	0	0	0	0	
6	0	0	0	0	656	43	0	0	0	0	
7	0	0	0	0	664	58	0	0	0	0	
8	0	0	0	0	665	69	0	0	0	0	
9	0	0	0	0	661	74	0	0	0	0	
10	0	0	0	0	650	72	0	0	0	0	
11	0	0	0	0	635	63	0	0	0	0	
12	0	0	0	0	616	44	0	0	0	0	
13	0	0	0	0	596	19	0	0	0	0	
14	0	0	0	0	575	0	0	0	0	0	
15	0	0	0	0	557	0	0	0	0	0	
0	0	0	0	0	542	0	0	0	0	0	
1	0	0	0	0	531	0	0	0	0	0	
2	0	0	0	0	527	0	0	0	0	0	
3	0	0	0	0	528	0	0	0	0	0	
4	0	0	0	0	535	0	0	0	0	0	
5	0	0	0	0	547	0	0	0	0	0	
6	0	0	0	0	563	0	0	0	0	0	
7	0	0	0	0	580	0	0	0	0	0	
8	0	0	0	0	598	0	0	0	0	0	
9	0	0	0	0	614	0	0	0	0	0	
10	0	0	0	0	628	0	0	0	0	0	
11	0	0	0	0	638	0	0	0	0	0	
12	0	0	0	0	643	0	0	0	0	0	
13	0	0	0	0	643	0	0	0	0	0	
14	0	0	0	0	638	0	0	0	0	0	
15	0	0	0	0	628	0	0	0	0	0	
0	0	0	0	0	614	0	0	0	0	0	
1	0	0	0	0	596	0	0	0	0	0	
2	0	0	0	0	575	0	0	0	0	0	
3	0	0	0	0	555	0	0	0	0	0	
4	0	0	0	0	536	0	0	0	0	0	
5	0	0	0	0	520	0	0	0	0	0	
6	0	0	0	0	509	0	0	0	0	0	
7	0	0	0	0	504	0	0	0	0	0	
8	0	0	0	0	505	0	0	0	0	0	
9	0	0	0	0	512	0	0	0	0	0	
10	0	0	0	0	524	0	0	0	0	0	
11	0	0	0	0	539	0	0	0	0	0	
12	0	0	0	0	556	0	0	0	0	0	
13	0	0	0	0	573	0	0	0	0	0	
14	0	0	0	0	589	0	0	0	0	0	
15	0	0	0	0	602	0	0	0	0	0	
0	0	0	0	0	611	0	0	0	0	0	
1	0	0	0	0	617	0	0	0	0	0	
2	0	0	0	0	617	0	0	0	0	0	
3	0	0	0	0	614	0	0	0	0	0	
4	0	0	0	0	606	5	0	0	0	0	
5	0	0	0	0	596	17	0	0	0	0	
6	0	0	0	0	587	33	0	0	0	0	
7	0	0	0	0	577	51	0	0	0	0	
8	0	0	0	0	570	70	0	0	0	0	
9	0	0	0	0	567	91	0	0	0	0	
10	0	0	0	0	567	112	0	0	0	0	
11	0	0	0	0	573	134	0	0	0	0	
12	0	0	0	0	583	158	0	0	0	0	
13	0	0	0	0	596	183	0	0	0	0	
14	0	0	0	0	612	208	0	0	0	0	
15	0	0	0	0	628	234	0	0	0	0	
0	0	0	0	0	643	260	0	0	0	0	
1	0	0	0	0	656	285	0	0	0	0	
2	0	0	0	0	667	309	0	0	0	0	
3	0	0	0	0	672	329	0	0	0	0	
4	0	0	0	0	673	346	0	0	0	0	
5	0	0	0	0	670	357	0	0	0	0	
6	0	0	0	0	663	362	0	0	0	0	
7	0	0	0	0	653	361	0	0	0	0	
8	0	0	0	0	641	354	0	0	0	0	
9	0	0	0	0	629	342	0	0	0	0	
10	0	0	0	0	617	326	0	0	0	0	
11	0	0	0	0	607	308	0	0	0	0	
12	0	0	0	0	600	291	0	0	0	0	
13	0	0	0	0	598	278	0	0	0	0	
14	0	0	0	0	601	269	0	0	0	0	
15	0	0	0	0	608	268	0	0	0	0	
0	0	0	0	0	620	273	0	0	0	0	
1	0	0	0	0	635	287	0	0	0	0	
2	0	0	0	0	651	309	0	0	0	0	
3	0	0	0	0	668	336	0	0	0	0	
4	0	0	0	0	684	367	0	0	0	0	
5	0	0	0	0	696	398	0	0	0	0	
6	0	0	0	0	703	428	0	0	0	0	
7	0	0	0	0	706	455	0	0	0	0	
8	0	0	0	0	703	475	0	0	0	0	
9	0	0	0	0	695	488	0	0	0	0	
10	0	0	0	0	682	494	0	0	0	0	
11	0	0	0	0	665	491	0	0	0	0	
12	0	0	0	0	646	481	0	0	0	0	
13	0	0	0	0	627	465	0	0	0	0	
14	0	0	0	0	610	445	0	0	0	0	
15	0	0	0	0	596	425	0	0	0	0	
0	0	0	0	0	587	407	0	0	0	0	
1	0	0	0	0	584	393	0	0	0	0	
2	0	0	0	0	588	387	0	0	0	0	
3	0	0	0	0	599	390	0	0	0	0	
4	0	0	0	0	616	403	0	0	0	0	
5	0	0	0	0	636	426	0	0	0	0	
6	0	0	0	0	659	457	0	0	0	0	
7	0	0	0	0	680	495	0	0	0	0	
8	0	0	0	0	700	536	0	0	0	0	
9	0	0	0	0	714	577	0	0	0	0	
10	0	0	0	0	722	615	0	0	0	0	
11	0	0	0	0	724	648	0	0	0	0	
12	0	0	0	0	718	675	0	0	0	0	
13	0	0	0	0	707	692	0	0	0	0	
14	0	0	0	0	691	700	0	0	0	0	
15	0	0	0	0	671	697	0	0	0	0	
0	0	0	0	0	649	683	0	0	0	0	
1	0	0	0	0	627	660	0	0	0	0	
2	0	0	0	0	607	630	0	0	0	0	
3	0	0	0	0	591	595	0	0	0	0	
4	0	0	0	0	579	559	0	0	0	0	
5	0	0	0	0	573	523	0	0	0	0	
6	0	0	0	0	574	492	0	0	0	0	
7	0	0	0	0	580	467	0	0	0	0	
8	0	0	0	0	594	450	0	0	0	0	
9	0	0	0	0	611	442	0	0	0	0	
10	0	0	0	0	632	443	0	0	0	0	
11	0	0	0	0	653	450	0	0	0	0	
12	0	0	0	0	674	462	0	0	0	0	
13	0	0	0	0	691	477	0	0	0	0	
14	0	0	0	0	704	493	0	0	0	0	
15	0	0	0	0	711	506	0	0	0	0	
0	0	0	0	0	713	515	0	0	0	0	
1	0	0	0	0	708	516	0	0	0	0	
2	0	0	0	0	699	511	0	0	0	0	
3	0	0	0	0	685	497	0	0	0	0	
4	0	0	0	0	668	474	0	0	0	0	
5	0	0	0	0	650	444	0	0	0	0	
6	0	0	0	0	632	407	0	0	0	0	
7	0	0	0	0	614	365	0	0	0	0	
8	0	0	0	0	600	322	0	0	0	0	
9	0	0	0	0	590	280	0	0	0	0	
10	0	0	0	0	584	243	0	0	0	0	
11	0	0	0	0	583	211	0	0	0	0	
12	0	0	0	0	588	187	0	0	0	0	
13	0	0	0	0	598	172	0	0	0	0	
14	0	0	0	0	610	165	0	0	0	0	
15	0	0	0	0	625	165	0	0	0	0	
0	0	0	0	0	640	170	0	0	0	0	
1	0	0	0	0	654	176	0	0	0	0	
2	0	0	0	0	664	183	0	0	0	0	
3	0	0	0	0	671	185	0	0	0	0	
4	0	0	0	0	673	180	0	0	0	0	
5	0	0	0	0	670	167	0	0	0	0	
6	0	0	0	0	662	145	0	0	0	0	
7	0	0	0	0	649	113	0	0	0	0	
8	0	0	0	0	634	71	0	0	0	0	
9	0	0	0	0	616	21	0	0	0	0	
10	0	0	0	0	597	0	0	0	0	0	
11	0	0	0	0	580	0	0	0	0	0	
12	0	0	0	0	565	0	0	0	0	0	
13	0	0	0	0	554	0	0	0	0	0	
14	0	0	0	0	548	0	0	0	0	0	
15	0	0	0	0	549	0	0	0	0	0	
0	0	0	0	0	555	0	0	0	0	0	
1	0	0	0	0	567	0	0	0	0	0	
2	0	0	0	0	581	0	0	0	0	0	
3	0	0	0	0	597	0	0	0	0	0	
4	0	0	0	0	614	0	0	0	0	0	
5	0	0	0	0	629	0	0	0	0	0	
6	0	0	0	0	641	0	0	0	0	0	
7	0	0	0	0	649	0	0	0	0	0	
8	0	0	0	0	653	0	0	0	0	0	
9	0	0	0	0	652	0	0	0	0	0	
10	0	0	0	0	647	0	0	0	0	0	
11	0	0	0	0	638	0	0	0	0	0	
12	0	0	0	0	627	0	0	0	0	0	
13	0	0	0	0	613	0	0	0	0	0	
14	0	0	0	0	600	0	0	0	0	0	
15	0	0	0	0	588	0	0	0	0	0	
0	0	0	0	0	578	0	0	0	0	0	
1	0	0	0	0	572	0	0	0	0	0	
2	0	0	0	0	571	0	0	0	0	0	
3	0	0	0	0	574	0	0	0	0	0	
4	0	0	0	0	582	0	0	0	0	0	
5	0	0	0	0	594	0	0	0	0	0	
6	0	0	0	0	608	0	0	0	0	0	
7	0	0	0	0	624	0	0	0	0	0	
8	0	0	0	0	641	0	0	0	0	0	
9	0	0	0	0	656	0	0	0	0	0	
10	0	0	0	0	668	0	0	0	0	0	
11	0	0	0	0	678	0	0	0	0	0	
12	0	0	0	0	682	0	0	0	0	0	
13	0	0	0	0	684	0	0	0	0	0	
14	0	0	0	0	683	0	0	0	0	0	
15	0	0	0	0	679	0	0	0	0	0	
0	0	0	0	0	673	0	0	0	0	0	
1	0	0	0	0	667	0	0	0	0	0	
2	0	0	0	0	661	0	0	0	0	0	
3	0	0	0	0	656	0	0	0	0	0	
4	0	0	0	0	652	0	0	0	0	0	
5	0	0	0	0	651	0	0	0	0	0	
6	0	0	0	0	651	0	0	0	0	0	
7	0	0	0	0	654	0	0	0	0	0	
8	0	0	0	0	659	0	0	0	0	0	
9	0	0	0	0	664	0	0	0	0	0	
10	0	0	0	0	670	0	0	0	0	0	
11	0	0	0	0	674	0	0	0	0	0	
12	0	0	0	0	679	0	0	0	0	0	
13	0	0	0	0	681	0	0	0	0	0	
14	0	0	0	0	682	0	0	0	0	0	
15	0	0	0	0	679	0	0	0	0	0	
0	0	0	0	0	675	0	0	0	0	0	
1	0	0	0	0	668	0	0	0	0	0	
2	0	0	0	0	660	0	0	0	0	0	
3	0	0	0	0	651	0	0	0	0	0	
4	0	0	0	0	640	0	0	0	0	0	
5	0	0	0	0	632	0	0	0	0	0	
6	0	0	0	0	624	0	0	0	0	0	
7	0	0	0	0	620	0	0	0	0	0	
8	0	0	0	0	619	0	0	0	0	0	
9	0	0	0	0	622	0	0	0	0	0	
10	0	0	0	0	629	0	0	0	0	0	
11	0	0	0	0	639	0	0	0	0	0	
12	0	0	0	0	651	0	0	0	0	0	
13	0	0	0	0	664	0	0	0	0	0	
14	0	0	0	0	676	0	0	0	0	0	
15	0	0	0	0	687	0	0	0	0	0	
0	0	0	0	0	695	0	0	0	0	0	
1	0	0	0	0	699	0	0	0	0	0	
2	0	0	0	0	698	0	0	0	0	0	
3	0	0	0	0	693	0	0	0	0	0	
4	0	0	0	0	684	0	0	0	0	0	
5	0	0	0	0	671	0	0	0	0	0	
6	0	0	0	0	656	0	0	0	0	0	
7	0	0	0	0	639	0	0	0	0	0	
8	0	0	0	0	623	0	0	0	0	0	
9	0	0	0	0	608	0	0	0	0	0	
10	0	0	0	0	595	0	0	0	0	0	
11	0	0	0	0	587	0	0	0	0	0	
12	0	0	0	0	582	0	0	0	0	0	
13	0	0	0	0	582	0	0	0	0	0	
14	0	0	0	0	588	0	0	0	0	0	
15	0	0	0	0	598	0	0	0	0	0	
0	0	0	0	0	612	0	0	0	0	0	
1	0	0	0	0	630	0	0	0	0	0	
2	0	0	0	0	650	0	0	0	0	0	
3	0	0	0	0	671	0	0	0	0	0	
4	0	0	0	0	689	0	0	0	0	0	
5	0	0	0	0	706	0	0	0	0	0	
6	0	0	0	0	719	0	0	0	0	0	
7	0	0	0	0	727	0	0	0	0	0	
8	0	0	0	0	729	0	0	0	0	0	
9	0	0	0	0	727	0	0	0	0	0	
10	0	0	0	0	719	0	0	0	0	0	
11	0	0	0	0	706	0	0	0	0	0	
12	0	0	0	0	690	0	0	0	0	0	
13	0	0	0	0	671	0	0	0	0	0	
14	0	0	0	0	652	0	0	0	0	0	
15	0	0	0	0	635	0	0	0	0	0	
0	0	0	0	0	620	0	0	0	0	0	
1	0	0	0	0	609	0	0	0	0	0	
2	0	0	0	0	604	0	0	0	0	0	
3	0	0	0	0	606	0	0	0	0	0	
4	0	0	0	0	614	0	0	0	0	0	
5	0	0	0	0	626	0	0	0	0	0	
6	0	0	0	0	643	0	0	0	0	0	
7	0	0	0	0	662	0	0	0	0	0	
8	0	0	0	0	680	0	0	0	0	0	
9	0	0	0	0	697	0	0	0	0	0	
10	0	0	0	0	711	0	0	0	0	0	
11	0	0	0	0	721	0	0	0	0	0	
12	0	0	0	0	725	0	0	0	0	0	
13	0	0	0	0	724	0	0	0	0	0	
14	0	0	0	0	718	0	0	0	0	0	
15	0	0	0	0	706	0	0	0	0	0	
0	0	0	0	0	691	0	0	0	0	0	
1	0	0	0	0	674	0	0	0	0	0	
2	0	0	0	0	655	0	0	0	0	0	
3	0	0	0	0	638	0	0	0	0	0	
4	0	0	0	0	623	0	0	0	0	0	
5	0	0	0	0	612	0	0	0	0	0	
6	0	0	0	0	606	0	0	0	0	0	
7	0	0	0	0	606	0	0	0	0	0	
8	0	0	0	0	612	0	0	0	0	0	
9	0	0	0	0	624	0	0	0	0	0	
10	0	0	0	0	638	0	0	0	0	0	
11	0	0	0	0	655	0	0	0	0	0	
12	0	0	0	0	671	0	0	0	0	0	
13	0	0	0	0	685	0	0	0	0	0	
14	0	0	0	0	696	0	0	0	0	0	
15	0	0	0	0	701	0	0	0	0	0	
0	0	0	0	0	702	0	0	0	0	0	
1	0	0	0	0	697	0	0	0	0	0	
2	0	0	0	0	687	0	0	0	0	0	
3	0	0	0	0	672	0	0	0	0	0	
4	0	0	0	0	653	0	0	0	0	0	
5	0	0	0	0	632	0	0	0	0	0	
6	0	0	0	0	612	0	0	0	0	0	
7	0	0	0	0	592	0	0	0	0	0	
8	0	0	0	0	575	0	0	0	0	0	
9	0	0	0	0	564	0	0	0	0	0	
10	0	0	0	0	558	0	0	0	0	0	
11	0	0	0	0	558	0	0	0	0	0	
12	0	0	0	0	564	0	0	0	0	0	
13	0	0	0	0	576	0	0	0	0	0	
14	0	0	0	0	593	0	0	0	0	0	
15	0	0	0	0	612	7	0	0	0	0	
0	0	0	0	0	633	35	0	0	0	0	
1	0	0	0	0	653	72	0	0	0	0	
2	0	0	0	0	671	116	0	0	0	0	
3	0	0	0	0	684	162	0	0	0	0	
4	0	0	0	0	693	205	0	0	0	0	
5	0	0	0	0	696	243	0	0	0	0	
6	0	0	0	0	695	271	0	0	0	0	
7	0	0	0	0	688	289	0	0	0	0	
8	0	0	0	0	678	295	0	0	0	0	
9	0	0	0	0	664	288	0	0	0	0	
10	0	0	0	0	649	271	0	0	0	0	
11	0	0	0	0	633	243	0	0	0	0	
12	0	0	0	0	619	208	0	0	0	0	
13	0	0	0	0	607	171	0	0	0	0	
14	0	0	0	0	599	134	0	0	0	0	
15	0	0	0	0	595	101	0	0	0	0	
0	0	0	0	0	596	74	0	0	0	0	
1	0	0	0	0	602	57	0	0	0	0	
2	0	0	0	0	611	48	0	0	0	0	
3	0	0	0	0	624	49	0	0	0	0	
4	0	0	0	0	637	59	0	0	0	0	
5	0	0	0	0	651	74	0	0	0	0	
6	0	0	0	0	663	94	0	0	0	0	
7	0	0	0	0	672	113	0	0	0	0	
8	0	0	0	0	679	131	0	0	0	0	
9	0	0	0	0	682	144	0	0	0	0	
10	0	0	0	0	681	151	0	0	0	0	
11	0	0	0	0	676	151	0	0	0	0	
12	0	0	0	0	668	142	0	0	0	0	
13	0	0	0	0	656	126	0	0	0	0	
14	0	0	0	0	644	103	0	0	0	0	
15	0	0	0	0	632	77	0	0	0	0	
0	0	0	0	0	620	49	0	0	0	0	
1	0	0	0	0	612	24	0	0	0	0	
2	0	0	0	0	607	3	0	0	0	0	
3	0	0	0	0	606	0	0	0	0	0	
4	0	0	0	0	610	0	0	0	0	0	
5	0	0	0	0	619	2	0	0	0	0	
6	0	0	0	0	630	17	0	0	0	0	
7	0	0	0	0	643	40	0	0	0	0	
8	0	0	0	0	657	71	0	0	0	0	
9	0	0	0	0	671	105	0	0	0	0	
10	0	0	0	0	683	142	0	0	0	0	
11	0	0	0	0	691	177	0	0	0	0	
12	0	0	0	0	697	208	0	0	0	0	
13	0	0	0	0	698	233	0	0	0	0	
14	0	0	0	0	697	250	0	0	0	0	
15	0	0	0	0	691	258	0	0	0	0	
0	0	0	0	0	682	256	0	0	0	0	
1	0	0	0	0	671	244	0	0	0	0	
2	0	0	0	0	658	225	0	0	0	0	
3	0	0	0	0	645	199	0	0	0	0	
4	0	0	0	0	633	170	0	0	0	0	
5	0	0	0	0	623	142	0	0	0	0	
6	0	0	0	0	615	116	0	0	0	0	
7	0	0	0	0	612	97	0	0	0	0	
8	0	0	0	0	613	86	0	0	0	0	
9	0	0	0	0	617	85	0	0	0	0	
10	0	0	0	0	625	93	0	0	0	0	
11	0	0	0	0	635	111	0	0	0	0	
12	0	0	0	0	644	135	0	0	0	0	
13	0	0	0	0	654	163	0	0	0	0	
14	0	0	0	0	661	193	0	0	0	0	
15	0	0	0	0	666	223	0	0	0	0	
0	0	0	0	0	668	248	0	0	0	0	
1	0	0	0	0	668	268	0	0	0	0	
2	0	0	0	0	665	280	0	0	0	0	
3	0	0	0	0	661	285	0	0	0	0	
4	0	0	0	0	655	283	0	0	0	0	
5	0	0	0	0	648	272	0	0	0	0	
6	0	0	0	0	643	256	0	0	0	0	
7	0	0	0	0	638	238	0	0	0	0	
8	0	0	0	0	634	220	0	0	0	0	
9	0	0	0	0	634	207	0	0	0	0	
10	0	0	0	0	636	201	0	0	0	0	
11	0	0	0	0	640	205	0	0	0	0	
12	0	0	0	0	648	220	0	0	0	0	
13	0	0	0	0	658	248	0	0	0	0	
14	0	0	0	0	668	286	0	0	0	0	
15	0	0	0	0	679	332	0	0	0	0	
0	0	0	0	0	690	384	0	0	0	0	
1	0	0	0	0	698	438	0	0	0	0	
2	0	0	0	0	703	491	0	0	0	0	
3	0	0	0	0	704	539	0	0	0	0	
4	0	0	0	0	700	580	0	0	0	0	
5	0	0	0	0	692	609	0	0	0	0	
6	0	0	0	0	681	627	0	0	0	0	
7	0	0	0	0	666	635	0	0	0	0	
8	0	0	0	0	649	632	0	0	0	0	
9	0	0	0	0	630	620	0	0	0	0	
10	0	0	0	0	611	603	0	0	0	0	
11	0	0	0	0	595	583	0	0	0	0	
12	0	0	0	0	583	563	0	0	0	0	
13	0	0	0	0	574	548	0	0	0	0	
14	0	0	0	0	571	540	0	0	0	0	
15	0	0	0	0	574	542	0	0	0	0	
0	0	0	0	0	583	557	0	0	0	0	
1	0	0	0	0	596	584	0	0	0	0	
2	0	0	0	0	613	624	0	0	0	0	
3	0	0	0	0	632	673	0	0	0	0	
4	0	0	0	0	650	730	0	0	0	0	
5	0	0	0	0	667	792	0	0	0	0	
6	0	0	0	0	680	856	0	0	0	0	
7	0	0	0	0	688	919	0	0	0	0	
8	0	0	0	0	690	976	0	0	0	0	
9	0	0	0	0	686	1021	0	0	0	0	
10	0	0	0	0	676	1021	0	0	0	0	
11	0	0	0	0	662	1021	0	0	0	0	
12	0	0	0	0	643	1021	0	0	0	0	
13	0	0	0	0	623	1021	0	0	0	0	
14	0	0	0	0	603	1021	0	0	0	0	
15	0	0	0	0	584	1021	0	0	0	0	
0	0	0	0	0	569	1021	0	0	0	0	
1	0	0	0	0	559	1021	0	0	0	0	
2	0	0	0	0	555	1021	0	0	0	0	
3	0	0	0	0	558	1021	0	0	0	0	
4	0	0	0	0	567	1021	0	0	0	0	
5	0	0	0	0	582	1021	0	0	0	0	
6	0	0	0	0	601	1021	0	0	0	0	
7	0	0	0	0	623	1021	0	0	0	0	
8	0	0	0	0	644	1021	0	0	0	0	
9	0	0	0	0	664	1021	0	0	0	0	
10	0	0	0	0	680	1021	0	0	0	0	
11	0	0	0	0	692	1021	0	0	0	0	
12	0	0	0	0	699	1021	0	0	0	0	
13	0	0	0	0	700	1021	0	0	0	0	
14	0	0	0	0	697	1021	0	0	0	0	
15	0	0	0	0	689	1021	0	0	0	0	
0	0	0	0	0	678	1021	0	0	0	0	
1	0	0	0	0	665	1021	0	0	0	0	
2	0	0	0	0	651	1021	0	0	0	0	
3	0	0	0	0	639	1021	0	0	0	0	
4	0	0	0	0	628	1021	0	0	0	0	
5	0	0	0	0	621	1021	0	0	0	0	
6	0	0	0	0	617	1021	0	0	0	0	
7	0	0	0	0	618	1021	0	0	0	0	
8	0	0	0	0	623	1021	0	0	0	0	
9	0	0	0	0	631	1021	0	0	0	0	
10	0	0	0	0	641	1021	0	0	0	0	
11	0	0	0	0	652	1021	0	0	0	0	
12	0	0	0	0	662	1021	0	0	0	0	
13	0	0	0	0	670	1021	0	0	0	0	
14	0	0	0	0	674	1021	0	0	0	0	
15	0	0	0	0	675	1021	0	0	0	0	
0	0	0	0	0	670	1021	0	0	0	0	
1	0	0	0	0	661	1021	0	0	0	0	
2	0	0	0	0	649	1021	0	0	0	0	
3	0	0	0	0	633	1021	0	0	0	0	
4	0	0	0	0	617	1021	0	0	0	0	
5	0	0	0	0	600	1021	0	0	0	0	
6	0	0	0	0	585	1021	0	0	0	0	
7	0	0	0	0	574	1021	0	0	0	0	
8	0	0	0	0	566	1021	0	0	0	0	
9	0	0	0	0	563	1021	0	0	0	0	
10	0	0	0	0	565	1021	0	0	0	0	
11	0	0	0	0	573	1021	0	0	0	0	
12	0	0	0	0	585	1021	0	0	0	0	
13	0	0	0	0	600	1021	0	0	0	0	
14	0	0	0	0	617	1021	0	0	0	0	
15	0	0	0	0	635	1021	0	0	0	0	
0	0	0	0	0	651	1021	0	0	0	0	
1	0	0	0	0	664	1021	0	0	0	0	
2	0	0	0	0	672	1021	0	0	0	0	
3	0	0	0	0	676	1021	0	0	0	0	
4	0	0	0	0	674	1021	0	0	0	0	
5	0	0	0	0	668	1021	0	0	0	0	
6	0	0	0	0	657	1021	0	0	0	0	
7	0	0	0	0	643	1021	0	0	0	0	
8	0	0	0	0	626	1021	0	0	0	0	
9	0	0	0	0	609	1021	0	0	0	0	
10	0	0	0	0	593	1021	0	0	0	0	
11	0	0	0	0	579	1021	0	0	0	0	
12	0	0	0	0	568	1021	0	0	0	0	
13	0	0	0	0	562	1021	0	0	0	0	
14	0	0	0	0	561	1021	0	0	0	0	
15	0	0	0	0	564	1021	0	0	0	0	
0	0	0	0	0	573	1021	0	0	0	0	
1	0	0	0	0	585	1021	0	0	0	0	
2	0	0	0	0	600	1021	0	0	0	0	
3	0	0	0	0	616	1021	0	0	0	0	
4	0	0	0	0	631	1021	0	0	0	0	
5	0	0	0	0	644	1021	0	0	0	0	
6	0	0	0	0	655	1021	0	0	0	0	
7	0	0	0	0	661	1021	0	0	0	0	
8	0	0	0	0	663	1021	0	0	0	0	
9	0	0	0	0	660	1021	0	0	0	0	
10	0	0	0	0	654	1021	0	0	0	0	
11	0	0	0	0	643	1021	0	0	0	0	
12	0	0	0	0	630	1021	0	0	0	0	
13	0	0	0	0	614	1021	0	0	0	0	
14	0	0	0	0	598	1021	0	0	0	0	
15	0	0	0	0	583	1021	0	0	0	0	
0	0	0	0	0	569	1021	0	0	0	0	
1	0	0	0	0	557	1021	0	0	0	0	
2	0	0	0	0	548	1021	0	0	0	0	
3	0	0	0	0	542	1021	0	0	0	0	
4	0	0	0	0	540	1021	0	0	0	0	
5	0	0	0	0	540	1021	0	0	0	0	
6	0	0	0	0	542	1021	0	0	0	0	
7	0	0	0	0	543	1021	0	0	0	0	
8	0	0	0	0	543	1021	0	0	0	0	
9	0	0	0	0	540	1021	0	0	0	0	
10	0	0	0	0	533	1021	0	0	0	0	
11	0	0	0	0	521	1021	0	0	0	0	
12	0	0	0	0	504	1021	0	0	0	0	
13	0	0	0	0	481	1021	0	0	0	0	
14	0	0	0	0	453	1021	0	0	0	0	
15	0	0	0	0	421	1021	0	0	0	0	
0	0	0	0	0	388	1021	0	0	0	0	
1	0	0	0	0	354	1021	0	0	0	0	
2	0	0	0	0	324	1021	0	0	0	0	
3	0	0	0	0	299	1021	0	0	0	0	
4	0	0	0	0	281	1021	0	0	0	0	
5	0	0	0	0	272	1021	0	0	0	0	
6	0	0	0	0	272	1021	0	0	0	0	
7	0	0	0	0	282	1021	0	0	0	0	
8	0	0	0	0	301	1021	0	0	0	0	
9	0	0	0	0	328	1021	0	0	0	0	
10	0	0	0	0	361	1021	0	0	0	0	
11	0	0	0	0	397	1021	0	0	0	0	
12	0	0	0	0	435	1021	0	0	0	0	
13	0	0	0	0	471	1021	0	0	0	0	
14	0	0	0	0	504	1021	0	0	0	0	
15	0	0	0	0	531	1021	0	0	0	0	
0	0	0	0	0	551	1021	0	0	0	0	
1	0	0	0	0	566	1021	0	0	0	0	
2	0	0	0	0	573	1021	0	0	0	0	
3	0	0	0	0	575	1021	0	0	0	0	
4	0	0	0	0	571	1021	0	0	0	0	
5	0	0	0	0	564	1021	0	0	0	0	
6	0	0	0	0	555	1021	0	0	0	0	
7	0	0	0	0	546	1021	0	0	0	0	
8	0	0	0	0	539	1021	0	0	0	0	
9	0	0	0	0	534	1021	0	0	0	0	
10	0	0	0	0	533	1021	0	0	0	0	
11	0	0	0	0	537	1021	0	0	0	0	
12	0	0	0	0	546	1021	0	0	0	0	
13	0	0	0	0	559	1021	0	0	0	0	
14	0	0	0	0	576	1021	0	0	0	0	
15	0	0	0	0	595	1021	0	0	0	0	
0	0	0	0	0	614	1021	0	0	0	0	
1	0	0	0	0	632	1021	0	0	0	0	
2	0	0	0	0	648	1021	0	0	0	0	
3	0	0	0	0	661	1021	0	0	0	0	
4	0	0	0	0	670	1021	0	0	0	0	
5	0	0	0	0	674	1021	0	0	0	0	
6	0	0	0	0	673	1021	0	0	0	0	
7	0	0	0	0	669	1021	0	0	0	0	
8	0	0	0	0	662	1021	0	0	0	0	
9	0	0	0	0	652	1021	0	0	0	0	
10	0	0	0	0	642	1021	0	0	0	0	
11	0	0	0	0	632	1021	0	0	0	0	
12	0	0	0	0	624	1021	0	0	0	0	
13	0	0	0	0	618	1021	0	0	0	0	
14	0	0	0	0	615	1021	0	0	0	0	
15	0	0	0	0	616	1021	0	0	0	0	
0	0	0	0	0	620	1021	0	0	0	0	
1	0	0	0	0	626	1021	0	0	0	0	
2	0	0	0	0	633	1021	0	0	0	0	
3	0	0	0	0	640	1021	0	0	0	0	
4	0	0	0	0	646	1021	0	0	0	0	
5	0	0	0	0	650	1021	0	0	0	0	
6	0	0	0	0	651	1021	0	0	0	0	
7	0	0	0	0	649	1021	0	0	0	0	
8	0	0	0	0	643	1021	0	0	0	0	
9	0	0	0	0	636	1021	0	0	0	0	
10	0	0	0	0	626	1021	0	0	0	0	
11	0	0	0	0	615	1021	0	0	0	0	
12	0	0	0	0	604	1021	0	0	0	0	
13	0	0	0	0	593	1021	0	0	0	0	
14	0	0	0	0	584	1021	0	0	0	0	
15	0	0	0	0	578	1021	0	0	0	0	
0	0	0	0	0	574	1021	0	0	0	0	
1	0	0	0	0	574	1021	0	0	0	0	
2	0	0	0	0	577	1021	0	0	0	0	
3	0	0	0	0	583	1021	0	0	0	0	
4	0	0	0	0	593	1021	0	0	0	0	
5	0	0	0	0	606	1021	0	0	0	0	
6	0	0	0	0	620	1021	0	0	0	0	
7	0	0	0	0	636	1021	0	0	0	0	
8	0	0	0	0	650	1021	0	0	0	0	
9	0	0	0	0	663	1021	0	0	0	0	
10	0	0	0	0	674	1021	0	0	0	0	
11	0	0	0	0	680	1021	0	0	0	0	
12	0	0	0	0	683	1021	0	0	0	0	
13	0	0	0	0	682	1021	0	0	0	0	
14	0	0	0	0	676	1021	0	0	0	0	
15	0	0	0	0	668	1021	0	0	0	0	
0	0	0	0	0	655	1021	0	0	0	0	
1	0	0	0	0	642	1021	0	0	0	0	
2	0	0	0	0	628	1021	0	0	0	0	
3	0	0	0	0	615	1021	0	0	0	0	
4	0	0	0	0	604	1021	0	0	0	0	
5	0	0	0	0	595	1021	0	0	0	0	
6	0	0	0	0	590	1021	0	0	0	0	
7	0	0	0	0	589	1021	0	0	0	0	
8	0	0	0	0	592	1021	0	0	0	0	
9	0	0	0	0	599	1021	0	0	0	0	
10	0	0	0	0	608	1021	0	0	0	0	
11	0	0	0	0	618	1021	0	0	0	0	
12	0	0	0	0	628	1021	0	0	0	0	
13	0	0	0	0	637	1021	0	0	0	0	
14	0	0	0	0	642	1021	0	0	0	0	
15	0	0	0	0	643	1021	0	0	0	0	
0	0	0	0	0	641	1021	0	0	0	0	
1	0	0	0	0	635	1021	0	0	0	0	
2	0	0	0	0	625	1021	0	0	0	0	
3	0	0	0	0	613	1021	0	0	0	0	
4	0	0	0	0	600	1021	0	0	0	0	
5	0	0	0	0	587	1021	0	0	0	0	
6	0	0	0	0	573	1021	0	0	0	0	
7	0	0	0	0	562	1021	0	0	0	0	
8	0	0	0	0	555	1021	0	0	0	0	
9	0	0	0	0	551	1021	0	0	0	0	
10	0	0	0	0	551	1021	0	0	0	0	
11	0	0	0	0	556	1021	0	0	0	0	
12	0	0	0	0	565	1021	0	0	0	0	
13	0	0	0	0	577	1021	0	0	0	0	
14	0	0	0	0	591	1021	0	0	0	0	
15	0	0	0	0	606	1021	0	0	0	0	
0	0	0	0	0	621	1021	0	0	0	0	
1	0	0	0	0	633	1021	0	0	0	0	
2	0	0	0	0	643	1021	0	0	0	0	
3	0	0	0	0	648	1021	0	0	0	0	
4	0	0	0	0	649	1021	0	0	0	0	
5	0	0	0	0	646	1021	0	0	0	0	
6	0	0	0	0	638	1021	0	0	0	0	
7	0	0	0	0	626	1021	0	0	0	0	
8	0	0	0	0	612	1021	0	0	0	0	
9	0	0	0	0	597	1021	0	0	0	0	
10	0	0	0	0	582	1021	0	0	0	0	
11	0	0	0	0	568	1021	0	0	0	0	
12	0	0	0	0	558	1021	0	0	0	0	
13	0	0	0	0	551	1021	0	0	0	0	
14	0	0	0	0	549	1021	0	0	0	0	
15	0	0	0	0	552	1021	0	0	0	0	
0	0	0	0	0	560	1021	0	0	0	0	
1	0	0	0	0	571	1021	0	0	0	0	
2	0	0	0	0	585	1021	0	0	0	0	
3	0	0	0	0	599	1021	0	0	0	0	
4	0	0	0	0	614	1021	0	0	0	0	
5	0	0	0	0	627	1021	0	0	0	0	
6	0	0	0	0	638	1021	0	0	0	0	
7	0	0	0	0	645	1021	0	0	0	0	
8	0	0	0	0	647	1021	0	0	0	0	
9	0	0	0	0	646	1021	0	0	0	0	
10	0	0	0	0	639	1021	0	0	0	0	
11	0	0	0	0	629	1021	0	0	0	0	
12	0	0	0	0	616	1021	0	0	0	0	
13	0	0	0	0	601	1021	0	0	0	0	
14	0	0	0	0	586	1021	0	0	0	0	
15	0	0	0	0	572	1021	0	0	0	0	
0	0	0	0	0	562	1021	0	0	0	0	
1	0	0	0	0	555	1021	0	0	0	0	
2	0	0	0	0	553	1021	0	0	0	0	
3	0	0	0	0	558	1021	0	0	0	0	
4	0	0	0	0	567	1021	0	0	0	0	
5	0	0	0	0	582	1021	0	0	0	0	
6	0	0	0	0	599	1021	0	0	0	0	
7	0	0	0	0	619	1021	0	0	0	0	
8	0	0	0	0	639	1021	0	0	0	0	
9	0	0	0	0	657	1021	0	0	0	0	
10	0	0	0	0	672	1021	0	0	0	0	
11	0	0	0	0	681	1021	0	0	0	0	
12	0	0	0	0	685	1021	0	0	0	0	
13	0	0	0	0	683	1021	0	0	0	0	
14	0	0	0	0	674	1021	0	0	0	0	
15	0	0	0	0	661	1021	0	0	0	0	
0	0	0	0	0	644	1021	0	0	0	0	
1	0	0	0	0	625	1021	0	0	0	0	
2	0	0	0	0	605	1021	0	0	0	0	
3	0	0	0	0	588	1021	0	0	0	0	
4	0	0	0	0	573	1021	0	0	0	0	
5	0	0	0	0	563	1021	0	0	0	0	
6	0	0	0	0	558	1021	0	0	0	0	
7	0	0	0	0	560	1021	0	0	0	0	
8	0	0	0	0	567	1021	0	0	0	0	
9	0	0	0	0	579	1021	0	0	0	0	
10	0	0	0	0	594	1021	0	0	0	0	
11	0	0	0	0	609	1022	0	0	0	0	
12	0	0	0	0	625	1021	0	0	0	0	
13	0	0	0	0	637	1021	0	0	0	0	
14	0	0	0	0	645	1021	0	0	0	0	
15	0	0	0	0	648	1021	0	0	0	0	
0	0	0	0	0	646	1021	0	0	0	0	
1	0	0	0	0	638	1021	0	0	0	0	
2	0	0	0	0	628	1021	0	0	0	0	
3	0	0	0	0	615	1021	0	0	0	0	
4	0	0	0	0	600	1021	0	0	0	0	
5	0	0	0	0	585	1021	0	0	0	0	
6	0	0	0	0	571	1021	0	0	0	0	
7	0	0	0	0	559	1021	0	0	0	0	
8	0	0	0	0	551	1021	0	0	0	0	
9	0	0	0	0	548	1021	0	0	0	0	
10	0	0	0	0	549	1021	0	0	0	0	
11	0	0	0	0	555	1021	0	0	0	0	
12	0	0	0	0	566	1021	0	0	0	0	
13	0	0	0	0	580	1021	0	0	0	0	
14	0	0	0	0	595	1021	0	0	0	0	
15	0	0	0	0	611	1021	0	0	0	0	
0	0	0	0	0	626	1021	0	0	0	0	
1	0	0	0	0	638	1021	0	0	0	0	
2	0	0	0	0	645	1021	0	0	0	0	
3	0	0	0	0	648	1021	0	0	0	0	
4	0	0	0	0	647	1021	0	0	0	0	
5	0	0	0	0	640	1021	0	0	0	0	
6	0	0	0	0	631	1021	0	0	0	0	
7	0	0	0	0	619	1021	0	0	0	0	
8	0	0	0	0	604	1021	0	0	0	0	
9	0	0	0	0	588	1021	0	0	0	0	
10	0	0	0	0	573	1021	0	0	0	0	
11	0	0	0	0	559	1021	0	0	0	0	
12	0	0	0	0	547	1021	0	0	0	0	
13	0	0	0	0	539	1021	0	0	0	0	
14	0	0	0	0	535	1021	0	0	0	0	
15	0	0	0	0	535	1021	0	0	0	0	
0	0	0	0	0	539	1021	0	0	0	0	
1	0	0	0	0	548	1021	0	0	0	0	
2	0	0	0	0	559	1021	0	0	0	0	
3	0	0	0	0	572	1021	0	0	0	0	
4	0	0	0	0	583	1021	0	0	0	0	
5	0	0	0	0	595	1021	0	0	0	0	
6	0	0	0	0	603	1021	0	0	0	0	
7	0	0	0	0	607	1021	0	0	0	0	
8	0	0	0	0	607	1021	0	0	0	0	
9	0	0	0	0	603	1021	0	0	0	0	
10	0	0	0	0	595	1021	0	0	0	0	
11	0	0	0	0	584	1021	0	0	0	0	
12	0	0	0	0	571	1021	0	0	0	0	
13	0	0	0	0	556	1021	0	0	0	0	
14	0	0	0	0	542	1021	0	0	0	0	
15	0	0	0	0	528	1021	0	0	0	0	
0	0	0	0	0	518	1021	0	0	0	0	
1	0	0	0	0	511	1021	0	0	0	0	
2	0	0	0	0	508	1021	0	0	0	0	
3	0	0	0	0	509	1021	0	0	0	0	
4	0	0	0	0	515	1021	0	0	0	0	
5	0	0	0	0	524	1021	0	0	0	0	
6	0	0	0	0	536	1021	0	0	0	0	
7	0	0	0	0	549	1021	0	0	0	0	
8	0	0	0	0	563	1021	0	0	0	0	
9	0	0	0	0	575	1021	0	0	0	0	
10	0	0	0	0	583	1021	0	0	0	0	
11	0	0	0	0	590	1021	0	0	0	0	
12	0	0	0	0	591	1021	0	0	0	0	
13	0	0	0	0	588	1021	0	0	0	0	
14	0	0	0	0	580	1021	0	0	0	0	
15	0	0	0	0	568	1021	0	0	0	0	
0	0	0	0	0	553	1021	0	0	0	0	
1	0	0	0	0	536	1021	0	0	0	0	
2	0	0	0	0	519	1021	0	0	0	0	
3	0	0	0	0	503	1021	0	0	0	0	
4	0	0	0	0	489	1021	0	0	0	0	
5	0	0	0	0	480	1021	0	0	0	0	
6	0	0	0	0	474	1021	0	0	0	0	
7	0	0	0	0	475	1021	0	0	0	0	
8	0	0	0	0	480	1021	0	0	0	0	
9	0	0	0	0	490	1021	0	0	0	0	
10	0	0	0	0	504	1021	0	0	0	0	
11	0	0	0	0	519	1021	0	0	0	0	
12	0	0	0	0	536	1021	0	0	0	0	
13	0	0	0	0	551	1021	0	0	0	0	
14	0	0	0	0	564	1021	0	0	0	0	
15	0	0	0	0	574	1021	0	0	0	0	
0	0	0	0	0	579	1021	0	0	0	0	
1	0	0	0	0	581	1021	0	0	0	0	
2	0	0	0	0	578	1021	0	0	0	0	
3	0	0	0	0	572	1021	0	0	0	0	
4	0	0	0	0	563	1021	0	0	0	0	
5	0	0	0	0	554	1021	0	0	0	0	
6	0	0	0	0	543	1021	0	0	0	0	
7	0	0	0	0	534	1021	0	0	0	0	
8	0	0	0	0	527	1021	0	0	0	0	
9	0	0	0	0	524	1021	0	0	0	0	
10	0	0	0	0	523	1021	0	0	0	0	
11	0	0	0	0	526	1021	0	0	0	0	
12	0	0	0	0	534	1021	0	0	0	0	
13	0	0	0	0	544	1021	0	0	0	0	
14	0	0	0	0	557	1021	0	0	0	0	
15	0	0	0	0	570	1021	0	0	0	0	
0	0	0	0	0	583	1021	0	0	0	0	
1	0	0	0	0	593	1021	0	0	0	0	
2	0	0	0	0	601	1021	0	0	0	0	
3	0	0	0	0	605	1021	0	0	0	0	
4	0	0	0	0	605	1021	0	0	0	0	
5	0	0	0	0	601	1021	0	0	0	0	
6	0	0	0	0	595	1021	0	0	0	0	
7	0	0	0	0	584	1021	0	0	0	0	
8	0	0	0	0	573	1021	0	0	0	0	
9	0	0	0	0	561	1021	0	0	0	0	
10	0	0	0	0	550	1021	0	0	0	0	
11	0	0	0	0	540	1021	0	0	0	0	
12	0	0	0	0	536	1021	0	0	0	0	
13	0	0	0	0	536	1021	0	0	0	0	
14	0	0	0	0	541	1021	0	0	0	0	
15	0	0	0	0	550	1021	0	0	0	0	
0	0	0	0	0	564	1021	0	0	0	0	
1	0	0	0	0	580	1021	0	0	0	0	
2	0	0	0	0	597	1021	0	0	0	0	
3	0	0	0	0	614	1021	0	0	0	0	
4	0	0	0	0	628	1021	0	0	0	0	
5	0	0	0	0	639	1021	0	0	0	0	
6	0	0	0	0	645	1021	0	0	0	0	
7	0	0	0	0	646	1021	0	0	0	0	
8	0	0	0	0	641	1021	0	0	0	0	
9	0	0	0	0	632	1021	0	0	0	0	
10	0	0	0	0	619	1021	0	0	0	0	
11	0	0	0	0	602	1021	0	0	0	0	
12	0	0	0	0	584	1021	0	0	0	0	
13	0	0	0	0	566	1021	0	0	0	0	
14	0	0	0	0	549	1021	0	0	0	0	
15	0	0	0	0	534	1021	0	0	0	0	
0	0	0	0	0	524	1021	0	0	0	0	
1	0	0	0	0	519	1021	0	0	0	0	
2	0	0	0	0	519	1021	0	0	0	0	
3	0	0	0	0	526	1021	0	0	0	0	
4	0	0	0	0	537	1021	0	0	0	0	
5	0	0	0	0	552	1021	0	0	0	0	
6	0	0	0	0	571	1021	0	0	0	0	
7	0	0	0	0	589	1021	0	0	0	0	
8	0	0	0	0	606	1021	0	0	0	0	
9	0	0	0	0	620	1021	0	0	0	0	
10	0	0	0	0	630	1021	0	0	0	0	
11	0	0	0	0	635	1021	0	0	0	0	
12	0	0	0	0	635	1021	0	0	0	0	
13	0	0	0	0	630	1021	0	0	0	0	
14	0	0	0	0	620	1021	0	0	0	0	
15	0	0	0	0	607	1021	0	0	0	0	
0	0	0	0	0	592	1021	0	0	0	0	
1	0	0	0	0	576	1021	0	0	0	0	
2	0	0	0	0	562	1021	0	0	0	0	
3	0	0	0	0	550	1021	0	0	0	0	
4	0	0	0	0	542	1021	0	0	0	0	
5	0	0	0	0	539	1021	0	0	0	0	
6	0	0	0	0	540	1021	0	0	0	0	
7	0	0	0	0	547	1021	0	0	0	0	
8	0	0	0	0	559	1021	0	0	0	0	
9	0	0	0	0	573	1021	0	0	0	0	
10	0	0	0	0	590	1021	0	0	0	0	
11	0	0	0	0	607	1021	0	0	0	0	
12	0	0	0	0	622	1021	0	0	0	0	
13	0	0	0	0	635	1021	0	0	0	0	
14	0	0	0	0	643	1021	0	0	0	0	
15	0	0	0	0	646	1021	0	0	0	0	
0	0	0	0	0	644	1021	0	0	0	0	
1	0	0	0	0	638	1021	0	0	0	0	
2	0	0	0	0	627	1021	0	0	0	0	
3	0	0	0	0	613	1021	0	0	0	0	
4	0	0	0	0	597	1021	0	0	0	0	
5	0	0	0	0	581	1021	0	0	0	0	
6	0	0	0	0	565	1021	0	0	0	0	
7	0	0	0	0	551	1021	0	0	0	0	
8	0	0	0	0	541	1021	0	0	0	0	
9	0	0	0	0	535	1021	0	0	0	0	
10	0	0	0	0	534	1021	0	0	0	0	
11	0	0	0	0	536	1021	0	0	0	0	
12	0	0	0	0	543	1021	0	0	0	0	
13	0	0	0	0	552	1021	0	0	0	0	
14	0	0	0	0	563	1021	0	0	0	0	
15	0	0	0	0	574	1022	0	0	0	0	
0	0	0	0	0	583	1021	0	0	0	0	
1	0	0	0	0	591	1021	0	0	0	0	
2	0	0	0	0	595	1021	0	0	0	0	
3	0	0	0	0	596	1021	0	0	0	0	
4	0	0	0	0	593	1021	0	0	0	0	
5	0	0	0	0	587	1021	0	0	0	0	
6	0	0	0	0	578	1021	0	0	0	0	
7	0	0	0	0	568	1021	0	0	0	0	
8	0	0	0	0	556	1021	0	0	0	0	
9	0	0	0	0	543	1021	0	0	0	0	
10	0	0	0	0	532	1021	0	0	0	0	
11	0	0	0	0	523	1021	0	0	0	0	
12	0	0	0	0	516	1021	0	0	0	0	
13	0	0	0	0	512	1021	0	0	0	0	
14	0	0	0	0	512	1021	0	0	0	0	
15	0	0	0	0	517	1021	0	0	0	0	
0	0	0	0	0	525	1021	0	0	0	0	
1	0	0	0	0	536	1021	0	0	0	0	
2	0	0	0	0	548	1021	0	0	0	0	
3	0	0	0	0	561	1021	0	0	0	0	
4	0	0	0	0	574	1021	0	0	0	0	
5	0	0	0	0	584	1021	0	0	0	0	
6	0	0	0	0	591	1021	0	0	0	0	
7	0	0	0	0	595	1021	0	0	0	0	
8	0	0	0	0	595	1021	0	0	0	0	
9	0	0	0	0	590	1021	0	0	0	0	
10	0	0	0	0	581	1021	0	0	0	0	
11	0	0	0	0	568	1021	0	0	0	0	
12	0	0	0	0	553	1021	0	0	0	0	
13	0	0	0	0	536	1021	0	0	0	0	
14	0	0	0	0	520	1021	0	0	0	0	
15	0	0	0	0	504	1021	0	0	0	0	
0	0	0	0	0	490	1021	0	0	0	0	
1	0	0	0	0	480	1021	0	0	0	0	
2	0	0	0	0	474	1021	0	0	0	0	
3	0	0	0	0	473	1021	0	0	0	0	
4	0	0	0	0	479	1021	0	0	0	0	
5	0	0	0	0	488	1021	0	0	0	0	
6	0	0	0	0	501	1021	0	0	0	0	
7	0	0	0	0	515	1021	0	0	0	0	
8	0	0	0	0	529	1021	0	0	0	0	
9	0	0	0	0	542	1021	0	0	0	0	
10	0	0	0	0	550	1021	0	0	0	0	
11	0	0	0	0	555	1021	0	0	0	0	
12	0	0	0	0	555	1021	0	0	0	0	
13	0	0	0	0	550	1021	0	0	0	0	
14	0	0	0	0	542	1021	0	0	0	0	
15	0	0	0	0	531	1021	0	0	0	0	
0	0	0	0	0	519	1021	0	0	0	0	
1	0	0	0	0	507	1021	0	0	0	0	
2	0	0	0	0	496	1021	0	0	0	0	
3	0	0	0	0	489	1021	0	0	0	0	
4	0	0	0	0	485	1021	0	0	0	0	
5	0	0	0	0	485	1021	0	0	0	0	
6	0	0	0	0	490	1021	0	0	0	0	
7	0	0	0	0	498	1021	0	0	0	0	
8	0	0	0	0	510	1021	0	0	0	0	
9	0	0	0	0	524	1021	0	0	0	0	
10	0	0	0	0	539	1021	0	0	0	0	
11	0	0	0	0	552	1021	0	0	0	0	
12	0	0	0	0	564	1021	0	0	0	0	
13	0	0	0	0	572	1021	0	0	0	0	
14	0	0	0	0	575	1021	0	0	0	0	
15	0	0	0	0	574	1021	0	0	0	0	
0	0	0	0	0	567	1021	0	0	0	0	
1	0	0	0	0	556	1021	0	0	0	0	
2	0	0	0	0	540	1021	0	0	0	0	
3	0	0	0	0	523	1021	0	0	0	0	
4	0	0	0	0	505	1021	0	0	0	0	
5	0	0	0	0	488	1021	0	0	0	0	
6	0	0	0	0	472	1021	0	0	0	0	
7	0	0	0	0	460	1021	0	0	0	0	
8	0	0	0	0	451	1021	0	0	0	0	
9	0	0	0	0	448	1021	0	0	0	0	
10	0	0	0	0	451	1021	0	0	0	0	
11	0	0	0	0	458	1021	0	0	0	0	
12	0	0	0	0	472	1021	0	0	0	0	
13	0	0	0	0	489	1021	0	0	0	0	
14	0	0	0	0	509	1021	0	0	0	0	
15	0	0	0	0	529	1021	0	0	0	0	
0	0	0	0	0	548	1021	0	0	0	0	
1	0	0	0	0	564	1021	0	0	0	0	
2	0	0	0	0	576	1021	0	0	0	0	
3	0	0	0	0	583	1021	0	0	0	0	
4	0	0	0	0	583	1021	0	0	0	0	
5	0	0	0	0	579	1021	0	0	0	0	
6	0	0	0	0	569	1021	0	0	0	0	
7	0	0	0	0	554	1021	0	0	0	0	
8	0	0	0	0	537	1021	0	0	0	0	
9	0	0	0	0	519	1021	0	0	0	0	
10	0	0	0	0	499	1021	0	0	0	0	
11	0	0	0	0	483	1021	0	0	0	0	
12	0	0	0	0	468	1021	0	0	0	0	
13	0	0	0	0	459	1021	0	0	0	0	
14	0	0	0	0	454	1021	0	0	0	0	
15	0	0	0	0	456	1021	0	0	0	0	
0	0	0	0	0	463	1021	0	0	0	0	
1	0	0	0	0	475	1021	0	0	0	0	
2	0	0	0	0	490	1021	0	0	0	0	
3	0	0	0	0	507	1021	0	0	0	0	
4	0	0	0	0	522	1021	0	0	0	0	
5	0	0	0	0	537	1021	0	0	0	0	
6	0	0	0	0	548	1021	0	0	0	0	
7	0	0	0	0	555	1021	0	0	0	0	
8	0	0	0	0	557	1021	0	0	0	0	
9	0	0	0	0	555	1021	0	0	0	0	
10	0	0	0	0	547	1021	0	0	0	0	
11	0	0	0	0	538	1021	0	0	0	0	
12	0	0	0	0	526	1021	0	0	0	0	
13	0	0	0	0	513	1021	0	0	0	0	
14	0	0	0	0	501	1021	0	0	0	0	
15	0	0	0	0	491	1021	0	0	0	0	
0	0	0	0	0	483	1021	0	0	0	0	
1	0	0	0	0	480	1021	0	0	0	0	
2	0	0	0	0	482	1021	0	0	0	0	
3	0	0	0	0	488	1021	0	0	0	0	
4	0	0	0	0	499	1021	0	0	0	0	
5	0	0	0	0	513	1021	0	0	0	0	
6	0	0	0	0	529	1021	0	0	0	0	
7	0	0	0	0	544	1021	0	0	0	0	
8	0	0	0	0	558	1021	0	0	0	0	
9	0	0	0	0	569	1021	0	0	0	0	
10	0	0	0	0	576	1021	0	0	0	0	
11	0	0	0	0	579	1021	0	0	0	0	
12	0	0	0	0	576	1021	0	0	0	0	
13	0	0	0	0	569	1021	0	0	0	0	
14	0	0	0	0	558	1021	0	0	0	0	
15	0	0	0	0	544	1021	0	0	0	0	
0	0	0	0	0	528	1021	0	0	0	0	
1	0	0	0	0	511	1021	0	0	0	0	
2	0	0	0	0	495	1021	0	0	0	0	
3	0	0	0	0	480	1021	0	0	0	0	
4	0	0	0	0	470	1021	0	0	0	0	
5	0	0	0	0	463	1021	0	0	0	0	
6	0	0	0	0	462	1021	0	0	0	0	
7	0	0	0	0	465	1021	0	0	0	0	
8	0	0	0	0	474	1021	0	0	0	0	
9	0	0	0	0	486	1021	0	0	0	0	
10	0	0	0	0	501	1021	0	0	0	0	
11	0	0	0	0	518	1021	0	0	0	0	
12	0	0	0	0	534	1021	0	0	0	0	
13	0	0	0	0	550	1021	0	0	0	0	
14	0	0	0	0	563	1021	0	0	0	0	
15	0	0	0	0	572	1021	0	0	0	0	
0	0	0	0	0	576	1021	0	0	0	0	
1	0	0	0	0	577	1021	0	0	0	0	
2	0	0	0	0	573	1021	0	0	0	0	
3	0	0	0	0	565	1021	0	0	0	0	
4	0	0	0	0	554	1021	0	0	0	0	
5	0	0	0	0	539	1021	0	0	0	0	
6	0	0	0	0	525	1021	0	0	0	0	
7	0	0	0	0	511	1021	0	0	0	0	
8	0	0	0	0	498	1021	0	0	0	0	
9	0	0	0	0	487	1021	0	0	0	0	
10	0	0	0	0	482	1021	0	0	0	0	
11	0	0	0	0	480	1021	0	0	0	0	
12	0	0	0	0	482	1021	0	0	0	0	
13	0	0	0	0	488	1021	0	0	0	0	
14	0	0	0	0	496	1021	0	0	0	0	
15	0	0	0	0	507	1021	0	0	0	0	
0	0	0	0	0	517	1021	0	0	0	0	
1	0	0	0	0	527	1021	0	0	0	0	
2	0	0	0	0	534	1021	0	0	0	0	
3	0	0	0	0	540	1021	0	0	0	0	
4	0	0	0	0	542	1021	0	0	0	0	
5	0	0	0	0	541	1021	0	0	0	0	
6	0	0	0	0	538	1021	0	0	0	0	
7	0	0	0	0	533	1021	0	0	0	0	
8	0	0	0	0	526	1021	0	0	0	0	
9	0	0	0	0	518	1021	0	0	0	0	
10	0	0	0	0	511	1021	0	0	0	0	
11	0	0	0	0	504	1021	0	0	0	0	
12	0	0	0	0	498	1021	0	0	0	0	
13	0	0	0	0	495	1021	0	0	0	0	
14	0	0	0	0	495	1021	0	0	0	0	
15	0	0	0	0	497	1021	0	0	0	0	
0	0	0	0	0	503	1021	0	0	0	0	
1	0	0	0	0	511	1021	0	0	0	0	
2	0	0	0	0	521	1021	0	0	0	0	
3	0	0	0	0	531	1021	0	0	0	0	
4	0	0	0	0	541	1021	0	0	0	0	
5	0	0	0	0	550	1021	0	0	0	0	
6	0	0	0	0	555	1021	0	0	0	0	
7	0	0	0	0	557	1021	0	0	0	0	
8	0	0	0	0	555	1021	0	0	0	0	
9	0	0	0	0	549	1021	0	0	0	0	
10	0	0	0	0	539	1021	0	0	0	0	
11	0	0	0	0	527	1021	0	0	0	0	
12	0	0	0	0	512	1021	0	0	0	0	
13	0	0	0	0	497	1021	0	0	0	0	
14	0	0	0	0	483	1021	0	0	0	0	
15	0	0	0	0	471	1021	0	0	0	0	
0	0	0	0	0	462	1021	0	0	0	0	
1	0	0	0	0	457	1021	0	0	0	0	
2	0	0	0	0	458	1021	0	0	0	0	
3	0	0	0	0	464	1021	0	0	0	0	
4	0	0	0	0	475	1021	0	0	0	0	
5	0	0	0	0	489	1021	0	0	0	0	
6	0	0	0	0	505	1021	0	0	0	0	
7	0	0	0	0	522	1021	0	0	0	0	
8	0	0	0	0	538	1021	0	0	0	0	
9	0	0	0	0	551	1021	0	0	0	0	
10	0	0	0	0	560	1021	0	0	0	0	
11	0	0	0	0	566	1021	0	0	0	0	
12	0	0	0	0	566	1021	0	0	0	0	
13	0	0	0	0	561	1021	0	0	0	0	
14	0	0	0	0	554	1021	0	0	0	0	
15	0	0	0	0	543	1021	0	0	0	0	
0	0	0	0	0	530	1021	0	0	0	0	
1	0	0	0	0	516	1021	0	0	0	0	
2	0	0	0	0	504	1021	0	0	0	0	
3	0	0	0	0	494	1021	0	0	0	0	
4	0	0	0	0	486	1021	0	0	0	0	
5	0	0	0	0	482	1021	0	0	0	0	
6	0	0	0	0	483	1021	0	0	0	0	
7	0	0	0	0	489	1021	0	0	0	0	
8	0	0	0	0	499	1021	0	0	0	0	
9	0	0	0	0	512	1021	0	0	0	0	
10	0	0	0	0	527	1021	0	0	0	0	
11	0	0	0	0	542	1021	0	0	0	0	
12	0	0	0	0	556	1021	0	0	0	0	
13	0	0	0	0	568	1021	0	0	0	0	
14	0	0	0	0	575	1021	0	0	0	0	
15	0	0	0	0	577	1021	0	0	0	0	
0	0	0	0	0	575	1021	0	0	0	0	
1	0	0	0	0	567	1021	0	0	0	0	
2	0	0	0	0	555	1021	0	0	0	0	
3	0	0	0	0	540	1021	0	0	0	0	
4	0	0	0	0	523	1021	0	0	0	0	
5	0	0	0	0	504	1021	0	0	0	0	
6	0	0	0	0	487	1021	0	0	0	0	
7	0	0	0	0	472	1021	0	0	0	0	
8	0	0	0	0	460	1021	0	0	0	0	
9	0	0	0	0	454	1021	0	0	0	0	
10	0	0	0	0	451	1021	0	0	0	0	
11	0	0	0	0	454	1021	0	0	0	0	
12	0	0	0	0	461	1021	0	0	0	0	
13	0	0	0	0	472	1021	0	0	0	0	
14	0	0	0	0	486	1021	0	0	0	0	
15	0	0	0	0	500	1021	0	0	0	0	
0	0	0	0	0	514	1021	0	0	0	0	
1	0	0	0	0	526	1021	0	0	0	0	
2	0	0	0	0	535	1021	0	0	0	0	
3	0	0	0	0	540	1021	0	0	0	0	
4	0	0	0	0	543	1021	0	0	0	0	
5	0	0	0	0	542	1021	0	0	0	0	
6	0	0	0	0	537	1021	0	0	0	0	
7	0	0	0	0	531	1021	0	0	0	0	
8	0	0	0	0	523	1021	0	0	0	0	
9	0	0	0	0	512	1021	0	0	0	0	
10	0	0	0	0	503	1021	0	0	0	0	
11	0	0	0	0	495	1021	0	0	0	0	
12	0	0	0	0	488	1021	0	0	0	0	
13	0	0	0	0	484	1021	0	0	0	0	
14	0	0	0	0	484	1021	0	0	0	0	
15	0	0	0	0	489	1021	0	0	0	0	
0	0	0	0	0	497	1021	0	0	0	0	
1	0	0	0	0	509	1021	0	0	0	0	
2	0	0	0	0	523	1021	0	0	0	0	
3	0	0	0	0	538	1022	0	0	0	0	
4	0	0	0	0	553	1021	0	0	0	0	
5	0	0	0	0	567	1021	0	0	0	0	
6	0	0	0	0	578	1021	0	0	0	0	
7	0	0	0	0	585	1021	0	0	0	0	
8	0	0	0	0	587	1021	0	0	0	0	
9	0	0	0	0	585	1021	0	0	0	0	
10	0	0	0	0	577	1021	0	0	0	0	
11	0	0	0	0	564	1021	0	0	0	0	
12	0	0	0	0	548	1021	0	0	0	0	
13	0	0	0	0	528	1021	0	0	0	0	
14	0	0	0	0	508	1021	0	0	0	0	
15	0	0	0	0	488	1021	0	0	0	0	
0	0	0	0	0	470	1021	0	0	0	0	
1	0	0	0	0	456	1021	0	0	0	0	
2	0	0	0	0	446	1021	0	0	0	0	
3	0	0	0	0	441	1021	0	0	0	0	
4	0	0	0	0	443	1021	0	0	0	0	
5	0	0	0	0	448	1021	0	0	0	0	
6	0	0	0	0	457	1021	0	0	0	0	
7	0	0	0	0	470	1021	0	0	0	0	
8	0	0	0	0	482	1021	0	0	0	0	
9	0	0	0	0	495	1021	0	0	0	0	
10	0	0	0	0	506	1021	0	0	0	0	
11	0	0	0	0	515	1021	0	0	0	0	
12	0	0	0	0	521	1021	0	0	0	0	
13	0	0	0	0	523	1021	0	0	0	0	
14	0	0	0	0	522	1021	0	0	0	0	
15	0	0	0	0	518	1021	0	0	0	0	
0	0	0	0	0	511	1021	0	0	0	0	
1	0	0	0	0	504	1021	0	0	0	0	
2	0	0	0	0	495	1021	0	0	0	0	
3	0	0	0	0	486	1021	0	0	0	0	
4	0	0	0	0	478	1021	0	0	0	0	
5	0	0	0	0	472	1021	0	0	0	0	
6	0	0	0	0	468	1021	0	0	0	0	
7	0	0	0	0	467	1021	0	0	0	0	
8	0	0	0	0	468	1021	0	0	0	0	
9	0	0	0	0	472	1021	0	0	0	0	
10	0	0	0	0	478	1021	0	0	0	0	
11	0	0	0	0	484	1021	0	0	0	0	
12	0	0	0	0	490	1021	0	0	0	0	
13	0	0	0	0	496	1021	0	0	0	0	
14	0	0	0	0	498	1021	0	0	0	0	
15	0	0	0	0	499	1021	0	0	0	0	
0	0	0	0	0	497	1021	0	0	0	0	
1	0	0	0	0	492	1021	0	0	0	0	
2	0	0	0	0	487	1021	0	0	0	0	
3	0	0	0	0	479	1021	0	0	0	0	
4	0	0	0	0	471	1021	0	0	0	0	
5	0	0	0	0	464	1021	0	0	0	0	
6	0	0	0	0	458	1021	0	0	0	0	
7	0	0	0	0	454	1021	0	0	0	0	
8	0	0	0	0	452	1021	0	0	0	0	
9	0	0	0	0	455	1021	0	0	0	0	
10	0	0	0	0	461	1021	0	0	0	0	
11	0	0	0	0	470	1021	0	0	0	0	
12	0	0	0	0	483	1021	0	0	0	0	
13	0	0	0	0	497	1021	0	0	0	0	
14	0	0	0	0	511	1021	0	0	0	0	
15	0	0	0	0	523	1021	0	0	0	0	
0	0	0	0	0	533	1021	0	0	0	0	
1	0	0	0	0	540	1021	0	0	0	0	
2	0	0	0	0	541	1021	0	0	0	0	
3	0	0	0	0	539	1021	0	0	0	0	
4	0	0	0	0	532	1021	0	0	0	0	
5	0	0	0	0	521	1021	0	0	0	0	
6	0	0	0	0	508	1021	0	0	0	0	
7	0	0	0	0	495	1020	0	0	0	0	
8	0	0	0	0	482	1015	0	0	0	0	
9	0	0	0	0	471	1006	0	0	0	0	
10	0	0	0	0	463	998	0	0	0	0	
11	0	0	0	0	460	989	0	0	0	0	
12	0	0	0	0	462	981	0	0	0	0	
13	0	0	0	0	468	976	0	0	0	0	
14	0	0	0	0	479	975	0	0	0	0	
15	0	0	0	0	493	979	0	0	0	0	
0	0	0	0	0	510	986	0	0	0	0	
1	0	0	0	0	528	999	0	0	0	0	
2	0	0	0	0	545	1015	0	0	0	0	
3	0	0	0	0	560	1021	0	0	0	0	
4	0	0	0	0	571	1021	0	0	0	0	
5	0	0	0	0	578	1021	0	0	0	0	
6	0	0	0	0	580	1021	0	0	0	0	
7	0	0	0	0	577	1021	0	0	0	0	
8	0	0	0	0	569	1021	0	0	0	0	
9	0	0	0	0	557	1021	0	0	0	0	
10	0	0	0	0	542	1021	0	0	0	0	
11	0	0	0	0	525	1021	0	0	0	0	
12	0	0	0	0	508	1021	0	0	0	0	
13	0	0	0	0	491	1021	0	0	0	0	
14	0	0	0	0	476	1021	0	0	0	0	
15	0	0	0	0	463	1011	0	0	0	0	
0	0	0	0	0	455	993	0	0	0	0	
1	0	0	0	0	451	971	0	0	0	0	
2	0	0	0	0	454	948	0	0	0	0	
3	0	0	0	0	460	926	0	0	0	0	
4	0	0	0	0	473	908	0	0	0	0	
5	0	0	0	0	489	896	0	0	0	0	
6	0	0	0	0	507	891	0	0	0	0	
7	0	0	0	0	526	892	0	0	0	0	
8	0	0	0	0	544	898	0	0	0	0	
9	0	0	0	0	560	908	0	0	0	0	
10	0	0	0	0	571	919	0	0	0	0	
11	0	0	0	0	576	929	0	0	0	0	
12	0	0	0	0	575	935	0	0	0	0	
13	0	0	0	0	568	936	0	0	0	0	
14	0	0	0	0	555	931	0	0	0	0	
15	0	0	0	0	536	918	0	0	0	0	
0	0	0	0	0	514	896	0	0	0	0	
1	0	0	0	0	488	865	0	0	0	0	
2	0	0	0	0	463	829	0	0	0	0	
3	0	0	0	0	437	787	0	0	0	0	
4	0	0	0	0	414	742	0	0	0	0	
5	0	0	0	0	393	696	0	0	0	0	
6	0	0	0	0	377	652	0	0	0	0	
7	0	0	0	0	366	611	0	0	0	0	
8	0	0	0	0	359	577	0	0	0	0	
9	0	0	0	0	355	551	0	0	0	0	
10	0	0	0	0	355	532	0	0	0	0	
11	0	0	0	0	355	522	0	0	0	0	
12	0	0	0	0	356	518	0	0	0	0	
13	0	0	0	0	356	519	0	0	0	0	
14	0	0	0	0	354	523	0	0	0	0	
15	0	0	0	0	348	527	0	0	0	0	
0	0	0	0	0	341	530	0	0	0	0	
1	0	0	0	0	330	530	0	0	0	0	
2	0	0	0	0	319	526	0	0	0	0	
3	0	0	0	0	305	516	0	0	0	0	
4	0	0	0	0	292	501	0	0	0	0	
5	0	0	0	0	281	482	0	0	0	0	
6	0	0	0	0	272	461	0	0	0	0	
7	0	0	0	0	267	437	0	0	0	0	
8	0	0	0	0	268	415	0	0	0	0	
9	0	0	0	0	275	395	0	0	0	0	
10	0	0	0	0	289	380	0	0	0	0	
11	0	0	0	0	310	373	0	0	0	0	
12	0	0	0	0	339	374	0	0	0	0	
13	0	0	0	0	372	386	0	0	0	0	
14	0	0	0	0	408	405	0	0	0	0	
15	0	0	0	0	446	432	0	0	0	0	
0	0	0	0	0	481	463	0	0	0	0	
1	0	0	0	0	514	496	0	0	0	0	
2	0	0	0	0	541	527	0	0	0	0	
3	0	0	0	0	561	554	0	0	0	0	
4	0	0	0	0	575	573	0	0	0	0	
5	0	0	0	0	580	583	0	0	0	0	
6	0	0	0	0	579	582	0	0	0	0	
7	0	0	0	0	572	569	0	0	0	0	
8	0	0	0	0	560	545	0	0	0	0	
9	0	0	0	0	545	512	0	0	0	0	
10	0	0	0	0	530	470	0	0	0	0	
11	0	0	0	0	515	422	0	0	0	0	
12	0	0	0	0	503	372	0	0	0	0	
13	0	0	0	0	495	323	0	0	0	0	
14	0	0	0	0	492	277	0	0	0	0	
15	0	0	0	0	495	238	0	0	0	0	
0	0	0	0	0	504	208	0	0	0	0	
1	0	0	0	0	519	188	0	0	0	0	
2	0	0	0	0	539	178	0	0	0	0	
3	0	0	0	0	560	177	0	0	0	0	
4	0	0	0	0	582	183	0	0	0	0	
5	0	0	0	0	603	194	0	0	0	0	
6	0	0	0	0	620	207	0	0	0	0	
7	0	0	0	0	632	217	0	0	0	0	
8	0	0	0	0	639	222	0	0	0	0	
9	0	0	0	0	639	221	0	0	0	0	
10	0	0	0	0	634	211	0	0	0	0	
11	0	0	0	0	624	192	0	0	0	0	
12	0	0	0	0	609	163	0	0	0	0	
13	0	0	0	0	592	127	0	0	0	0	
14	0	0	0	0	575	85	0	0	0	0	
15	0	0	0	0	560	37	0	0	0	0	
0	0	0	0	0	547	0	0	0	0	0	
1	0	0	0	0	539	0	0	0	0	0	
2	0	0	0	0	536	0	0	0	0	0	
3	0	0	0	0	537	0	0	0	0	0	
4	0	0	0	0	544	0	0	0	0	0	
5	0	0	0	0	555	0	0	0	0	0	
6	0	0	0	0	570	0	0	0	0	0	
7	0	0	0	0	587	0	0	0	0	0	
8	0	0	0	0	604	0	0	0	0	0	
9	0	0	0	0	619	0	0	0	0	0	
10	0	0	0	0	631	0	0	0	0	0	
11	0	0	0	0	639	0	0	0	0	0	
12	0	0	0	0	641	0	0	0	0	0	
13	0	0	0	0	639	0	0	0	0	0	
14	0	0	0	0	631	0	0	0	0	0	
15	0	0	0	0	619	0	0	0	0	0	
0	0	0	0	0	603	0	0	0	0	0	
1	0	0	0	0	584	0	0	0	0	0	
2	0	0	0	0	565	0	0	0	0	0	
3	0	0	0	0	548	0	0	0	0	0	
4	0	0	0	0	534	0	0	0	0	0	
5	0	0	0	0	524	0	0	0	0	0	
6	0	0	0	0	519	0	0	0	0	0	
7	0	0	0	0	521	0	0	0	0	0	
8	0	0	0	0	529	0	0	0	0	0	
9	0	0	0	0	543	0	0	0	0	0	
10	0	0	0	0	560	0	0	0	0	0	
11	0	0	0	0	578	0	0	0	0	0	
12	0	0	0	0	596	0	0	0	0	0	
13	0	0	0	0	612	0	0	0	0	0	
14	0	0	0	0	624	0	0	0	0	0	
15	0	0	0	0	632	0	0	0	0	0	
0	0	0	0	0	633	0	0	0	0	0	
1	0	0	0	0	630	0	0	0	0	0	
2	0	0	0	0	622	0	0	0	0	0	
3	0	0	0	0	609	0	0	0	0	0	
4	0	0	0	0	594	0	0	0	0	0	
5	0	0	0	0	577	0	0	0	0	0	
6	0	0	0	0	560	0	0	0	0	0	
7	0	0	0	0	546	0	0	0	0	0	
8	0	0	0	0	535	0	0	0	0	0	
9	0	0	0	0	527	0	0	0	0	0	
10	0	0	0	0	525	0	0	0	0	0	
11	0	0	0	0	529	0	0	0	0	0	
12	0	0	0	0	538	0	0	0	0	0	
13	0	0	0	0	551	0	0	0	0	0	
14	0	0	0	0	568	0	0	0	0	0	
15	0	0	0	0	586	0	0	0	0	0	
0	0	0	0	0	605	0	0	0	0	0	
1	0	0	0	0	623	0	0	0	0	0	
2	0	0	0	0	637	0	0	0	0	0	
3	0	0	0	0	649	0	0	0	0	0	
4	0	0	0	0	656	0	0	0	0	0	
5	0	0	0	0	659	0	0	0	0	0	
6	0	0	0	0	658	0	0	0	0	0	
7	0	0	0	0	652	0	0	0	0	0	
8	0	0	0	0	643	0	0	0	0	0	
9	0	0	0	0	632	0	0	0	0	0	
10	0	0	0	0	619	0	0	0	0	0	
11	0	0	0	0	605	0	0	0	0	0	
12	0	0	0	0	592	0	0	0	0	0	
13	0	0	0	0	580	0	0	0	0	0	
14	0	0	0	0	569	0	0	0	0	0	
15	0	0	0	0	563	0	0	0	0	0	
0	0	0	0	0	559	0	0	0	0	0	
1	0	0	0	0	559	0	0	0	0	0	
2	0	0	0	0	562	0	0	0	0	0	
3	0	0	0	0	567	0	0	0	0	0	
4	0	0	0	0	574	0	0	0	0	0	
5	0	0	0	0	581	0	0	0	0	0	
6	0	0	0	0	587	0	0	0	0	0	
7	0	0	0	0	591	0	0	0	0	0	
8	0	0	0	0	593	0	0	0	0	0	
9	0	0	0	0	592	0	0	0	0	0	
10	0	0	0	0	589	0	0	0	0	0	
11	0	0	0	0	582	0	0	0	0	0	
12	0	0	0	0	572	0	0	0	0	0	
13	0	0	0	0	561	0	0	0	0	0	
14	0	0	0	0	549	0	0	0	0	0	
15	0	0	0	0	537	0	0	0	0	0	
0	0	0	0	0	527	0	0	0	0	0	
1	0	0	0	0	521	0	0	0	0	0	
2	0	0	0	0	518	0	0	0	0	0	
3	0	0	0	0	519	0	0	0	0	0	
4	0	0	0	0	524	0	0	0	0	0	
5	0	0	0	0	532	0	0	0	0	0	
6	0	0	0	0	543	0	0	0	0	0	
7	0	0	0	0	555	0	0	0	0	0	
8	0	0	0	0	568	0	0	0	0	0	
9	0	0	0	0	578	0	0	0	0	0	
10	0	0	0	0	586	0	0	0	0	0	
11	0	0	0	0	591	0	0	0	0	0	
12	0	0	0	0	591	0	0	0	0	0	
13	0	0	0	0	588	0	0	0	0	0	
14	0	0	0	0	583	0	0	0	0	0	
15	0	0	0	0	575	0	0	0	0	0	
0	0	0	0	0	564	0	0	0	0	0	
1	0	0	0	0	554	0	0	0	0	0	
2	0	0	0	0	543	0	0	0	0	0	
3	0	0	0	0	536	0	0	0	0	0	
4	0	0	0	0	530	0	0	0	0	0	
5	0	0	0	0	528	0	0	0	0	0	
6	0	0	0	0	531	0	0	0	0	0	
7	0	0	0	0	538	0	0	0	0	0	
8	0	0	0	0	550	0	0	0	0	0	
9	0	0	0	0	565	0	0	0	0	0	
10	0	0	0	0	582	0	0	0	0	0	
11	0	0	0	0	599	0	0	0	0	0	
12	0	0	0	0	613	0	0	0	0	0	
13	0	0	0	0	625	0	0	0	0	0	
14	0	0	0	0	632	0	0	0	0	0	
15	0	0	0	0	634	0	0	0	0	0	
0	0	0	0	0	631	0	0	0	0	0	
1	0	0	0	0	621	0	0	0	0	0	
2	0	0	0	0	608	0	0	0	0	0	
3	0	0	0	0	590	0	0	0	0	0	
4	0	0	0	0	570	0	0	0	0	0	
5	0	0	0	0	550	0	0	0	0	0	
6	0	0	0	0	529	0	0	0	0	0	
7	0	0	0	0	512	0	0	0	0	0	
8	0	0	0	0	499	0	0	0	0	0	
9	0	0	0	0	491	0	0	0	0	0	
10	0	0	0	0	487	0	0	0	0	0	
11	0	0	0	0	489	0	0	0	0	0	
12	0	0	0	0	497	0	0	0	0	0	
13	0	0	0	0	509	0	0	0	0	0	
14	0	0	0	0	524	0	0	0	0	0	
15	0	0	0	0	540	0	0	0	0	0	
0	0	0	0	0	556	0	0	0	0	0	
1	0	0	0	0	571	0	0	0	0	0	
2	0	0	0	0	582	0	0	0	0	0	
3	0	0	0	0	590	0	0	0	0	0	
4	0	0	0	0	593	0	0	0	0	0	
5	0	0	0	0	591	0	0	0	0	0	
6	0	0	0	0	586	0	0	0	0	0	
7	0	0	0	0	576	0	0	0	0	0	
8	0	0	0	0	564	0	0	0	0	0	
9	0	0	0	0	551	0	0	0	0	0	
10	0	0	0	0	537	0	0	0	0	0	
11	0	0	0	0	524	0	0	0	0	0	
12	0	0	0	0	515	0	0	0	0	0	
13	0	0	0	0	508	0	0	0	0	0	
14	0	0	0	0	506	0	0	0	0	0	
15	0	0	0	0	509	0	0	0	0	0	
0	0	0	0	0	517	0	0	0	0	0	
1	0	0	0	0	528	0	0	0	0	0	
2	0	0	0	0	543	0	0	0	0	0	
3	0	0	0	0	559	0	0	0	0	0	
4	0	0	0	0	574	0	0	0	0	0	
5	0	0	0	0	588	0	0	0	0	0	
6	0	0	0	0	598	0	0	0	0	0	
7	0	0	0	0	603	0	0	0	0	0	
8	0	0	0	0	603	0	0	0	0	0	
9	0	0	0	0	598	0	0	0	0	0	
10	0	0	0	0	587	0	0	0	0	0	
11	0	0	0	0	572	0	0	0	0	0	
12	0	0	0	0	553	0	0	0	0	0	
13	0	0	0	0	532	0	0	0	0	0	
14	0	0	0	0	511	0	0	0	0	0	
15	0	0	0	0	491	0	0	0	0	0	
0	0	0	0	0	473	0	0	0	0	0	
1	0	0	0	0	459	0	0	0	0	0	
2	0	0	0	0	449	0	0	0	0	0	
3	0	0	0	0	446	0	0	0	0	0	
4	0	0	0	0	448	0	0	0	0	0	
5	0	0	0	0	455	0	0	0	0	0	
6	0	0	0	0	467	0	0	0	0	0	
7	0	0	0	0	481	0	0	0	0	0	
8	0	0	0	0	497	0	0	0	0	0	
9	0	0	0	0	512	0	0	0	0	0	
10	0	0	0	0	525	0	0	0	0	0	
11	0	0	0	0	534	0	0	0	0	0	
12	0	0	0	0	539	0	0	0	0	0	
13	0	0	0	0	540	0	0	0	0	0	
14	0	0	0	0	536	0	0	0	0	0	
15	0	0	0	0	528	0	0	0	0	0	
0	0	0	0	0	518	0	0	0	0	0	
1	0	0	0	0	505	0	0	0	0	0	
2	0	0	0	0	491	0	0	0	0	0	
3	0	0	0	0	478	0	0	0	0	0	
4	0	0	0	0	466	0	0	0	0	0	
5	0	0	0	0	457	0	0	0	0	0	
6	0	0	0	0	452	0	0	0	0	0	
7	0	0	0	0	453	0	0	0	0	0	
8	0	0	0	0	457	0	0	0	0	0	
9	0	0	0	0	465	0	0	0	0	0	
10	0	0	0	0	476	0	0	0	0	0	
11	0	0	0	0	488	0	0	0	0	0	
12	0	0	0	0	500	0	0	0	0	0	
13	0	0	0	0	509	0	0	0	0	0	
14	0	0	0	0	514	0	0	0	0	0	
15	0	0	0	0	514	0	0	0	0	0	
0	0	0	0	0	510	0	0	0	0	0	
1	0	0	0	0	500	0	0	0	0	0	
2	0	0	0	0	487	0	0	0	0	0	
3	0	0	0	0	471	0	0	0	0	0	
4	0	0	0	0	454	0	0	0	0	0	
5	0	0	0	0	435	0	0	0	0	0	
6	0	0	0	0	419	0	0	0	0	0	
7	0	0	0	0	404	0	0	0	0	0	
8	0	0	0	0	395	0	0	0	0	0	
9	0	0	0	0	390	0	0	0	0	0	
10	0	0	0	0	390	0	0	0	0	0	
11	0	0	0	0	396	0	0	0	0	0	
12	0	0	0	0	408	0	0	0	0	0	
13	0	0	0	0	426	0	0	0	0	0	
14	0	0	0	0	446	0	0	0	0	0	
15	0	0	0	0	468	0	0	0	0	0	
0	0	0	0	0	491	0	0	0	0	0	
1	0	0	0	0	511	0	0	0	0	0	
2	0	0	0	0	526	0	0	0	0	0	
3	0	0	0	0	537	0	0	0	0	0	
4	0	0	0	0	541	0	0	0	0	0	
5	0	0	0	0	539	0	0	0	0	0	
6	0	0	0	0	531	0	0	0	0	0	
7	0	0	0	0	518	0	0	0	0	0	
8	0	0	0	0	501	0	0	0	0	0	
9	0	0	0	0	483	0	0	0	0	0	
10	0	0	0	0	464	0	0	0	0	0	
11	0	0	0	0	448	0	0	0	0	0	
12	0	0	0	0	435	0	0	0	0	0	
13	0	0	0	0	427	0	0	0	0	0	
14	0	0	0	0	425	0	0	0	0	0	
15	0	0	0	0	429	0	0	0	0	0	
0	0	0	0	0	440	0	0	0	0	0	
1	0	0	0	0	456	0	0	0	0	0	
2	0	0	0	0	476	0	0	0	0	0	
3	0	0	0	0	498	0	0	0	0	0	
4	0	0	0	0	519	0	0	0	0	0	
5	0	0	0	0	540	0	0	0	0	0	
6	0	0	0	0	557	0	0	0	0	0	
7	0	0	0	0	570	0	0	0	0	0	
8	0	0	0	0	577	0	0	0	0	0	
9	0	0	0	0	580	0	0	0	0	0	
10	0	0	0	0	577	0	0	0	0	0	
11	0	0	0	0	570	0	0	0	0	0	
12	0	0	0	0	558	0	0	0	0	0	
13	0	0	0	0	544	0	0	0	0	0	
14	0	0	0	0	529	0	0	0	0	0	
15	0	0	0	0	514	0	0	0	0	0	
0	0	0	0	0	501	0	0	0	0	0	
1	0	0	0	0	492	0	0	0	0	0	
2	0	0	0	0	487	0	0	0	0	0	
3	0	0	0	0	487	0	0	0	0	0	
4	0	0	0	0	492	0	0	0	0	0	
5	0	0	0	0	503	0	0	0	0	0	
6	0	0	0	0	516	0	0	0	0	0	
7	0	0	0	0	531	0	0	0	0	0	
8	0	0	0	0	547	0	0	0	0	0	
9	0	0	0	0	562	0	0	0	0	0	
10	0	0	0	0	573	0	0	0	0	0	
11	0	0	0	0	579	0	0	0	0	0	
12	0	0	0	0	580	0	0	0	0	0	
13	0	0	0	0	575	0	0	0	0	0	
14	0	0	0	0	567	0	0	0	0	0	
15	0	0	0	0	554	0	0	0	0	0	
0	0	0	0	0	538	0	0	0	0	0	
1	0	0	0	0	520	0	0	0	0	0	
2	0	0	0	0	503	0	0	0	0	0	
3	0	0	0	0	488	0	0	0	0	0	
4	0	0	0	0	476	0	0	0	0	0	
5	0	0	0	0	469	0	0	0	0	0	
6	0	0	0	0	467	0	0	0	0	0	
7	0	0	0	0	470	0	0	0	0	0	
8	0	0	0	0	478	0	0	0	0	0	
9	0	0	0	0	492	0	0	0	0	0	
10	0	0	0	0	508	0	0	0	0	0	
11	0	0	0	0	524	0	0	0	0	0	
12	0	0	0	0	542	0	0	0	0	0	
13	0	0	0	0	557	0	0	0	0	0	
14	0	0	0	0	568	0	0	0	0	0	
15	0	0	0	0	575	0	0	0	0	0	
0	0	0	0	0	578	0	0	0	0	0	
1	0	0	0	0	575	0	0	0	0	0	
2	0	0	0	0	568	0	0	0	0	0	
3	0	0	0	0	558	0	0	0	0	0	
4	0	0	0	0	544	0	0	0	0	0	
5	0	0	0	0	530	0	0	0	0	0	
6	0	0	0	0	515	0	0	0	0	0	
7	0	0	0	0	502	0	0	0	0	0	
8	0	0	0	0	492	0	0	0	0	0	
9	0	0	0	0	486	0	0	0	0	0	
10	0	0	0	0	483	0	0	0	0	0	
11	0	0	0	0	487	0	0	0	0	0	
12	0	0	0	0	495	0	0	0	0	0	
13	0	0	0	0	506	0	0	0	0	0	
14	0	0	0	0	519	0	0	0	0	0	
15	0	0	0	0	533	0	0	0	0	0	
0	0	0	0	0	547	0	0	0	0	0	
1	0	0	0	0	558	0	0	0	0	0	
2	0	0	0	0	567	0	0	0	0	0	
3	0	0	0	0	571	0	0	0	0	0	
4	0	0	0	0	572	0	0	0	0	0	
5	0	0	0	0	568	0	0	0	0	0	
6	0	0	0	0	562	0	0	0	0	0	
7	0	0	0	0	553	0	0	0	0	0	
8	0	0	0	0	542	0	0	0	0	0	
9	0	0	0	0	529	0	0	0	0	0	
10	0	0	0	0	519	0	0	0	0	0	
11	0	0	0	0	510	0	0	0	0	0	
12	0	0	0	0	504	0	0	0	0	0	
13	0	0	0	0	501	0	0	0	0	0	
14	0	0	0	0	503	0	0	0	0	0	
15	0	0	0	0	509	0	0	0	0	0	
0	0	0	0	0	519	0	0	0	0	0	
1	0	0	0	0	532	0	0	0	0	0	
2	0	0	0	0	547	0	0	0	0	0	
3	0	0	0	0	563	0	0	0	0	0	
4	0	0	0	0	579	0	0	0	0	0	
5	0	0	0	0	592	0	0	0	0	0	
6	0	0	0	0	603	0	0	0	0	0	
7	0	0	0	0	608	0	0	0	0	0	
8	0	0	0	0	611	0	0	0	0	0	
9	0	0	0	0	608	0	0	0	0	0	
10	0	0	0	0	601	0	0	0	0	0	
11	0	0	0	0	591	0	0	0	0	0	
12	0	0	0	0	578	0	0	0	0	0	
13	0	0	0	0	563	0	0	0	0	0	
14	0	0	0	0	548	0	0	0	0	0	
15	0	0	0	0	535	0	0	0	0	0	
0	0	0	0	0	524	0	0	0	0	0	
1	0	0	0	0	515	0	0	0	0	0	
2	0	0	0	0	510	0	0	0	0	0	
3	0	0	0	0	510	0	0	0	0	0	
4	0	0	0	0	515	0	0	0	0	0	
5	0	0	0	0	523	0	0	0	0	0	
6	0	0	0	0	535	0	0	0	0	0	
7	0	0	0	0	548	0	0	0	0	0	
8	0	0	0	0	561	0	0	0	0	0	
9	0	0	0	0	574	0	0	0	0	0	
10	0	0	0	0	583	0	0	0	0	0	
11	0	0	0	0	590	0	0	0	0	0	
12	0	0	0	0	593	0	0	0	0	0	
13	0	0	0	0	592	0	0	0	0	0	
14	0	0	0	0	587	0	0	0	0	0	
15	0	0	0	0	578	0	0	0	0	0	
0	0	0	0	0	566	0	0	0	0	0	
1	0	0	0	0	551	0	0	0	0	0	
2	0	0	0	0	535	0	0	0	0	0	
3	0	0	0	0	520	0	0	0	0	0	
4	0	0	0	0	507	0	0	0	0	0	
5	0	0	0	0	497	0	0	0	0	0	
6	0	0	0	0	492	0	0	0	0	0	
7	0	0	0	0	491	0	0	0	0	0	
8	0	0	0	0	496	0	0	0	0	0	
9	0	0	0	0	504	0	0	0	0	0	
10	0	0	0	0	517	0	0	0	0	0	
11	0	0	0	0	531	0	0	0	0	0	
12	0	0	0	0	546	0	0	0	0	0	
13	0	0	0	0	561	0	0	0	0	0	
14	0	0	0	0	573	0	0	0	0	0	
15	0	0	0	0	582	0	0	0	0	0	
0	0	0	0	0	587	0	0	0	0	0	
1	0	0	0	0	588	0	0	0	0	0	
2	0	0	0	0	585	0	0	0	0	0	
3	0	0	0	0	580	0	0	0	0	0	
4	0	0	0	0	573	0	0	0	0	0	
5	0	0	0	0	564	0	0	0	0	0	
6	0	0	0	0	556	0	0	0	0	0	
7	0	0	0	0	549	0	0	0	0	0	
8	0	0	0	0	544	0	0	0	0	0	
9	0	0	0	0	541	0	0	0	0	0	
10	0	0	0	0	542	0	0	0	0	0	
11	0	0	0	0	545	0	0	0	0	0	
12	0	0	0	0	551	0	0	0	0	0	
13	0	0	0	0	560	0	0	0	0	0	
14	0	0	0	0	570	0	0	0	0	0	
15	0	0	0	0	580	0	0	0	0	0	
0	0	0	0	0	589	0	0	0	0	0	
1	0	0	0	0	596	0	0	0	0	0	
2	0	0	0	0	600	0	0	0	0	0	
3	0	0	0	0	601	0	0	0	0	0	
4	0	0	0	0	600	0	0	0	0	0	
5	0	0	0	0	594	0	0	0	0	0	
6	0	0	0	0	587	4	0	0	0	0	
7	0	0	0	0	576	30	0	0	0	0	
8	0	0	0	0	566	64	0	0	0	0	
9	0	0	0	0	554	103	0	0	0	0	
10	0	0	0	0	543	144	0	0	0	0	
11	0	0	0	0	534	184	0	0	0	0	
12	0	0	0	0	528	221	0	0	0	0	
13	0	0	0	0	526	253	0	0	0	0	
14	0	0	0	0	527	281	0	0	0	0	
15	0	0	0	0	534	306	0	0	0	0	
0	0	0	0	0	544	327	0	0	0	0	
1	0	0	0	0	558	346	0	0	0	0	
2	0	0	0	0	574	363	0	0	0	0	
3	0	0	0	0	591	378	0	0	0	0	
4	0	0	0	0	606	393	0	0	0	0	
5	0	0	0	0	620	406	0	0	0	0	
6	0	0	0	0	630	416	0	0	0	0	
7	0	0	0	0	635	424	0	0	0	0	
8	0	0	0	0	635	428	0	0	0	0	
9	0	0	0	0	630	429	0	0	0	0	
10	0	0	0	0	622	424	0	0	0	0	
11	0	0	0	0	609	416	0	0	0	0	
12	0	0	0	0	594	402	0	0	0	0	
13	0	0	0	0	578	385	0	0	0	0	
14	0	0	0	0	562	363	0	0	0	0	
15	0	0	0	0	547	340	0	0	0	0	
0	0	0	0	0	536	317	0	0	0	0	
1	0	0	0	0	529	296	0	0	0	0	
2	0	0	0	0	527	280	0	0	0	0	
3	0	0	0	0	531	269	0	0	0	0	
4	0	0	0	0	539	266	0	0	0	0	
5	0	0	0	0	552	271	0	0	0	0	
6	0	0	0	0	568	284	0	0	0	0	
7	0	0	0	0	586	303	0	0	0	0	
8	0	0	0	0	604	328	0	0	0	0	
9	0	0	0	0	619	356	0	0	0	0	
10	0	0	0	0	630	383	0	0	0	0	
11	0	0	0	0	636	407	0	0	0	0	
12	0	0	0	0	637	425	0	0	0	0	
13	0	0	0	0	632	436	0	0	0	0	
14	0	0	0	0	621	440	0	0	0	0	
15	0	0	0	0	606	436	0	0	0	0	
0	0	0	0	0	589	425	0	0	0	0	
1	0	0	0	0	571	407	0	0	0	0	
2	0	0	0	0	553	385	0	0	0	0	
3	0	0	0	0	537	361	0	0	0	0	
4	0	0	0	0	526	337	0	0	0	0	
5	0	0	0	0	518	316	0	0	0	0	
6	0	0	0	0	516	301	0	0	0	0	
7	0	0	0	0	519	293	0	0	0	0	
8	0	0	0	0	528	294	0	0	0	0	
9	0	0	0	0	540	305	0	0	0	0	
10	0	0	0	0	556	325	0	0	0	0	
11	0	0	0	0	572	353	0	0	0	0	
12	0	0	0	0	588	387	0	0	0	0	
13	0	0	0	0	602	424	0	0	0	0	
14	0	0	0	0	613	461	0	0	0	0	
15	0	0	0	0	619	495	0	0	0	0	
0	0	0	0	0	620	523	0	0	0	0	
1	0	0	0	0	617	543	0	0	0	0	
2	0	0	0	0	609	554	0	0	0	0	
3	0	0	0	0	598	556	0	0	0	0	
4	0	0	0	0	583	547	0	0	0	0	
5	0	0	0	0	569	530	0	0	0	0	
6	0	0	0	0	555	504	0	0	0	0	
7	0	0	0	0	543	474	0	0	0	0	
8	0	0	0	0	534	441	0	0	0	0	
9	0	0	0	0	530	408	0	0	0	0	
10	0	0	0	0	531	377	0	0	0	0	
11	0	0	0	0	538	353	0	0	0	0	
12	0	0	0	0	550	337	0	0	0	0	
13	0	0	0	0	567	331	0	0	0	0	
14	0	0	0	0	586	334	0	0	0	0	
15	0	0	0	0	608	346	0	0	0	0	
0	0	0	0	0	628	366	0	0	0	0	
1	0	0	0	0	647	391	0	0	0	0	
2	0	0	0	0	662	417	0	0	0	0	
3	0	0	0	0	671	443	0	0	0	0	
4	0	0	0	0	676	465	0	0	0	0	
5	0	0	0	0	674	481	0	0	0	0	
6	0	0	0	0	668	490	0	0	0	0	
7	0	0	0	0	656	489	0	0	0	0	
8	0	0	0	0	641	480	0	0	0	0	
9	0	0	0	0	625	463	0	0	0	0	
10	0	0	0	0	608	438	0	0	0	0	
11	0	0	0	0	592	409	0	0	0	0	
12	0	0	0	0	579	377	0	0	0	0	
13	0	0	0	0	570	347	0	0	0	0	
14	0	0	0	0	566	319	0	0	0	0	
15	0	0	0	0	567	299	0	0	0	0	
0	0	0	0	0	573	287	0	0	0	0	
1	0	0	0	0	583	284	0	0	0	0	
2	0	0	0	0	596	292	0	0	0	0	
3	0	0	0	0	611	309	0	0	0	0	
4	0	0	0	0	624	333	0	0	0	0	
5	0	0	0	0	637	361	0	0	0	0	
6	0	0	0	0	646	392	0	0	0	0	
7	0	0	0	0	652	422	0	0	0	0	
8	0	0	0	0	652	447	0	0	0	0	
9	0	0	0	0	649	466	0	0	0	0	
10	0	0	0	0	642	477	0	0	0	0	
11	0	0	0	0	632	480	0	0	0	0	
12	0	0	0	0	620	474	0	0	0	0	
13	0	0	0	0	606	460	0	0	0	0	
14	0	0	0	0	593	438	0	0	0	0	
15	0	0	0	0	583	412	0	0	0	0	
0	0	0	0	0	575	383	0	0	0	0	
1	0	0	0	0	574	353	0	0	0	0	
2	0	0	0	0	576	327	0	0	0	0	
3	0	0	0	0	583	305	0	0	0	0	
4	0	0	0	0	597	290	0	0	0	0	
5	0	0	0	0	614	284	0	0	0	0	
6	0	0	0	0	634	287	0	0	0	0	
7	0	0	0	0	653	297	0	0	0	0	
8	0	0	0	0	671	314	0	0	0	0	
9	0	0	0	0	685	335	0	0	0	0	
10	0	0	0	0	694	358	0	0	0	0	
11	0	0	0	0	697	379	0	0	0	0	
12	0	0	0	0	694	397	0	0	0	0	
13	0	0	0	0	684	410	0	0	0	0	
14	0	0	0	0	668	415	0	0	0	0	
15	0	0	0	0	648	414	0	0	0	0	
0	0	0	0	0	624	406	0	0	0	0	
1	0	0	0	0	601	391	0	0	0	0	
2	0	0	0	0	578	371	0	0	0	0	
3	0	0	0	0	559	348	0	0	0	0	
4	0	0	0	0	543	324	0	0	0	0	
5	0	0	0	0	535	302	0	0	0	0	
6	0	0	0	0	532	284	0	0	0	0	
7	0	0	0	0	537	271	0	0	0	0	
8	0	0	0	0	548	265	0	0	0	0	
9	0	0	0	0	564	268	0	0	0	0	
10	0	0	0	0	584	279	0	0	0	0	
11	0	0	0	0	606	297	0	0	0	0	
12	0	0	0	0	627	320	0	0	0	0	
13	0	0	0	0	647	347	0	0	0	0	
14	0	0	0	0	664	375	0	0	0	0	
15	0	0	0	0	675	401	0	0	0	0	
0	0	0	0	0	682	423	0	0	0	0	
1	0	0	0	0	682	438	0	0	0	0	
2	0	0	0	0	678	446	0	0	0	0	
3	0	0	0	0	669	445	0	0	0	0	
4	0	0	0	0	655	435	0	0	0	0	
5	0	0	0	0	639	419	0	0	0	0	
6	0	0	0	0	623	396	0	0	0	0	
7	0	0	0	0	606	368	0	0	0	0	
8	0	0	0	0	591	340	0	0	0	0	
9	0	0	0	0	580	313	0	0	0	0	
10	0	0	0	0	573	290	0	0	0	0	
11	0	0	0	0	572	275	0	0	0	0	
12	0	0	0	0	575	268	0	0	0	0	
13	0	0	0	0	584	271	0	0	0	0	
14	0	0	0	0	598	282	0	0	0	0	
15	0	0	0	0	613	301	0	0	0	0	
0	0	0	0	0	629	327	0	0	0	0	
1	0	0	0	0	644	355	0	0	0	0	
2	0	0	0	0	656	384	0	0	0	0	
3	0	0	0	0	664	411	0	0	0	0	
4	0	0	0	0	667	434	0	0	0	0	
5	0	0	0	0	665	450	0	0	0	0	
6	0	0	0	0	657	458	0	0	0	0	
7	0	0	0	0	646	458	0	0	0	0	
8	0	0	0	0	630	449	0	0	0	0	
9	0	0	0	0	613	433	0	0	0	0	
10	0	0	0	0	595	411	0	0	0	0	
11	0	0	0	0	579	385	0	0	0	0	
12	0	0	0	0	566	359	0	0	0	0	
13	0	0	0	0	556	335	0	0	0	0	
14	0	0	0	0	551	315	0	0	0	0	
15	0	0	0	0	551	303	0	0	0	0	
0	0	0	0	0	556	300	0	0	0	0	
1	0	0	0	0	567	306	0	0	0	0	
2	0	0	0	0	580	322	0	0	0	0	
3	0	0	0	0	595	346	0	0	0	0	
4	0	0	0	0	610	377	0	0	0	0	
5	0	0	0	0	624	412	0	0	0	0	
6	0	0	0	0	634	447	0	0	0	0	
7	0	0	0	0	640	479	0	0	0	0	
8	0	0	0	0	643	508	0	0	0	0	
9	0	0	0	0	640	529	0	0	0	0	
10	0	0	0	0	633	542	0	0	0	0	
11	0	0	0	0	624	547	0	0	0	0	
12	0	0	0	0	611	543	0	0	0	0	
13	0	0	0	0	598	532	0	0	0	0	
14	0	0	0	0	585	515	0	0	0	0	
15	0	0	0	0	575	492	0	0	0	0	
0	0	0	0	0	567	469	0	0	0	0	
1	0	0	0	0	562	447	0	0	0	0	
2	0	0	0	0	561	428	0	0	0	0	
3	0	0	0	0	565	415	0	0	0	0	
4	0	0	0	0	574	410	0	0	0	0	
5	0	0	0	0	585	413	0	0	0	0	
6	0	0	0	0	599	423	0	0	0	0	
7	0	0	0	0	614	440	0	0	0	0	
8	0	0	0	0	627	460	0	0	0	0	
9	0	0	0	0	639	482	0	0	0	0	
10	0	0	0	0	648	503	0	0	0	0	
11	0	0	0	0	652	520	0	0	0	0	
12	0	0	0	0	651	532	0	0	0	0	
13	0	0	0	0	645	537	0	0	0	0	
14	0	0	0	0	635	534	0	0	0	0	
15	0	0	0	0	621	524	0	0	0	0	
0	0	0	0	0	604	507	0	0	0	0	
1	0	0	0	0	586	483	0	0	0	0	
2	0	0	0	0	569	455	0	0	0	0	
3	0	0	0	0	554	425	0	0	0	0	
4	0	0	0	0	543	395	0	0	0	0	
5	0	0	0	0	538	366	0	0	0	0	
6	0	0	0	0	538	340	0	0	0	0	
7	0	0	0	0	544	320	0	0	0	0	
8	0	0	0	0	556	305	0	0	0	0	
9	0	0	0	0	572	297	0	0	0	0	
10	0	0	0	0	591	295	0	0	0	0	
11	0	0	0	0	609	296	0	0	0	0	
12	0	0	0	0	628	302	0	0	0	0	
13	0	0	0	0	643	307	0	0	0	0	
14	0	0	0	0	653	312	0	0	0	0	
15	0	0	0	0	657	315	0	0	0	0	
0	0	0	0	0	656	315	0	0	0	0	
1	0	0	0	0	649	310	0	0	0	0	
2	0	0	0	0	638	302	0	0	0	0	
3	0	0	0	0	623	290	0	0	0	0	
4	0	0	0	0	606	275	0	0	0	0	
5	0	0	0	0	590	257	0	0	0	0	
6	0	0	0	0	574	238	0	0	0	0	
7	0	0	0	0	562	217	0	0	0	0	
8	0	0	0	0	553	199	0	0	0	0	
9	0	0	0	0	550	183	0	0	0	0	
10	0	0	0	0	552	171	0	0	0	0	
11	0	0	0	0	559	166	0	0	0	0	
12	0	0	0	0	570	168	0	0	0	0	
13	0	0	0	0	583	180	0	0	0	0	
14	0	0	0	0	598	199	0	0	0	0	
15	0	0	0	0	611	224	0	0	0	0	
0	0	0	0	0	623	254	0	0	0	0	
1	0	0	0	0	631	286	0	0	0	0	
2	0	0	0	0	636	319	0	0	0	0	
3	0	0	0	0	635	348	0	0	0	0	
4	0	0	0	0	631	373	0	0	0	0	
5	0	0	0	0	623	390	0	0	0	0	
6	0	0	0	0	611	398	0	0	0	0	
7	0	0	0	0	597	397	0	0	0	0	
8	0	0	0	0	582	387	0	0	0	0	
9	0	0	0	0	566	368	0	0	0	0	
10	0	0	0	0	551	343	0	0	0	0	
11	0	0	0	0	537	314	0	0	0	0	
12	0	0	0	0	527	285	0	0	0	0	
13	0	0	0	0	521	259	0	0	0	0	
14	0	0	0	0	520	237	0	0	0	0	
15	0	0	0	0	524	224	0	0	0	0	
0	0	0	0	0	533	220	0	0	0	0	
1	0	0	0	0	545	227	0	0	0	0	
2	0	0	0	0	562	245	0	0	0	0	
3	0	0	0	0	580	272	0	0	0	0	
4	0	0	0	0	597	306	0	0	0	0	
5	0	0	0	0	614	344	0	0	0	0	
6	0	0	0	0	627	385	0	0	0	0	
7	0	0	0	0	637	423	0	0	0	0	
8	0	0	0	0	642	456	0	0	0	0	
9	0	0	0	0	643	483	0	0	0	0	
10	0	0	0	0	639	500	0	0	0	0	
11	0	0	0	0	632	508	0	0	0	0	
12	0	0	0	0	622	506	0	0	0	0	
13	0	0	0	0	609	495	0	0	0	0	
14	0	0	0	0	597	476	0	0	0	0	
15	0	0	0	0	586	452	0	0	0	0	
0	0	0	0	0	578	427	0	0	0	0	
1	0	0	0	0	574	401	0	0	0	0	
2	0	0	0	0	574	378	0	0	0	0	
3	0	0	0	0	579	361	0	0	0	0	
4	0	0	0	0	588	351	0	0	0	0	
5	0	0	0	0	600	350	0	0	0	0	
6	0	0	0	0	615	358	0	0	0	0	
7	0	0	0	0	630	374	0	0	0	0	
8	0	0	0	0	644	396	0	0	0	0	
9	0	0	0	0	656	422	0	0	0	0	
10	0	0	0	0	664	448	0	0	0	0	
11	0	0	0	0	668	474	0	0	0	0	
12	0	0	0	0	667	495	0	0	0	0	
13	0	0	0	0	661	511	0	0	0	0	
14	0	0	0	0	652	519	0	0	0	0	
15	0	0	0	0	638	519	0	0	0	0	
0	0	0	0	0	622	510	0	0	0	0	
1	0	0	0	0	606	494	0	0	0	0	
2	0	0	0	0	589	472	0	0	0	0	
3	0	0	0	0	575	446	0	0	0	0	
4	0	0	0	0	564	418	0	0	0	0	
5	0	0	0	0	557	391	0	0	0	0	
6	0	0	0	0	555	368	0	0	0	0	
7	0	0	0	0	557	351	0	0	0	0	
8	0	0	0	0	565	341	0	0	0	0	
9	0	0	0	0	577	341	0	0	0	0	
10	0	0	0	0	591	349	0	0	0	0	
11	0	0	0	0	608	366	0	0	0	0	
12	0	0	0	0	624	388	0	0	0	0	
13	0	0	0	0	639	415	0	0	0	0	
14	0	0	0	0	651	441	0	0	0	0	
15	0	0	0	0	659	467	0	0	0	0	
0	0	0	0	0	662	487	0	0	0	0	
1	0	0	0	0	661	501	0	0	0	0	
2	0	0	0	0	656	506	0	0	0	0	
3	0	0	0	0	647	503	0	0	0	0	
4	0	0	0	0	635	492	0	0	0	0	
5	0	0	0	0	621	472	0	0	0	0	
6	0	0	0	0	607	445	0	0	0	0	
7	0	0	0	0	595	415	0	0	0	0	
8	0	0	0	0	584	384	0	0	0	0	
9	0	0	0	0	577	353	0	0	0	0	
10	0	0	0	0	575	326	0	0	0	0	
11	0	0	0	0	577	306	0	0	0	0	
12	0	0	0	0	585	294	0	0	0	0	
13	0	0	0	0	597	293	0	0	0	0	
14	0	0	0	0	612	300	0	0	0	0	
15	0	0	0	0	628	317	0	0	0	0	
0	0	0	0	0	645	340	0	0	0	0	
1	0	0	0	0	660	368	0	0	0	0	
2	0	0	0	0	671	396	0	0	0	0	
3	0	0	0	0	676	422	0	0	0	0	
4	0	0	0	0	675	442	0	0	0	0	
5	0	0	0	0	670	456	0	0	0	0	
6	0	0	0	0	658	461	0	0	0	0	
7	0	0	0	0	640	457	0	0	0	0	
8	0	0	0	0	619	443	0	0	0	0	
9	0	0	0	0	595	421	0	0	0	0	
10	0	0	0	0	571	392	0	0	0	0	
11	0	0	0	0	547	359	0	0	0	0	
12	0	0	0	0	526	324	0	0	0	0	
13	0	0	0	0	508	291	0	0	0	0	
14	0	0	0	0	495	260	0	0	0	0	
15	0	0	0	0	487	236	0	0	0	0	
0	0	0	0	0	483	220	0	0	0	0	
1	0	0	0	0	483	212	0	0	0	0	
2	0	0	0	0	486	212	0	0	0	0	
3	0	0	0	0	489	219	0	0	0	0	
4	0	0	0	0	491	231	0	0	0	0	
5	0	0	0	0	490	246	0	0	0	0	
6	0	0	0	0	486	261	0	0	0	0	
7	0	0	0	0	477	272	0	0	0	0	
8	0	0	0	0	463	278	0	0	0	0	
9	0	0	0	0	446	277	0	0	0	0	
10	0	0	0	0	425	267	0	0	0	0	
11	0	0	0	0	402	249	0	0	0	0	
12	0	0	0	0	379	224	0	0	0	0	
13	0	0	0	0	357	192	0	0	0	0	
14	0	0	0	0	339	158	0	0	0	0	
15	0	0	0	0	327	122	0	0	0	0	
0	0	0	0	0	321	88	0	0	0	0	
1	0	0	0	0	323	58	0	0	0	0	
2	0	0	0	0	334	36	0	0	0	0	
3	0	0	0	0	353	24	0	0	0	0	
4	0	0	0	0	382	24	0	0	0	0	
5	0	0	0	0	416	38	0	0	0	0	
6	0	0	0	0	455	63	0	0	0	0	
7	0	0	0	0	495	100	0	0	0	0	
8	0	0	0	0	533	144	0	0	0	0	
9	0	0	0	0	569	193	0	0	0	0	
10	0	0	0	0	598	243	0	0	0	0	
11	0	0	0	0	619	291	0	0	0	0	
12	0	0	0	0	633	333	0	0	0	0	
13	0	0	0	0	639	368	0	0	0	0	
14	0	0	0	0	640	393	0	0	0	0	
15	0	0	0	0	635	408	0	0	0	0	
0	0	0	0	0	626	411	0	0	0	0	
1	0	0	0	0	615	405	0	0	0	0	
2	0	0	0	0	604	391	0	0	0	0	
3	0	0	0	0	595	371	0	0	0	0	
4	0	0	0	0	589	348	0	0	0	0	
5	0	0	0	0	587	327	0	0	0	0	
6	0	0	0	0	590	308	0	0	0	0	
7	0	0	0	0	598	296	0	0	0	0	
8	0	0	0	0	609	292	0	0	0	0	
9	0	0	0	0	624	298	0	0	0	0	
10	0	0	0	0	641	314	0	0	0	0	
11	0	0	0	0	657	339	0	0	0	0	
12	0	0	0	0	672	371	0	0	0	0	
13	0	0	0	0	684	407	0	0	0	0	
14	0	0	0	0	691	445	0	0	0	0	
15	0	0	0	0	695	482	0	0	0	0	
0	0	0	0	0	692	516	0	0	0	0	
1	0	0	0	0	686	543	0	0	0	0	
2	0	0	0	0	675	564	0	0	0	0	
3	0	0	0	0	660	577	0	0	0	0	
4	0	0	0	0	644	580	0	0	0	0	
5	0	0	0	0	627	575	0	0	0	0	
6	0	0	0	0	611	562	0	0	0	0	
7	0	0	0	0	596	543	0	0	0	0	
8	0	0	0	0	585	521	0	0	0	0	
9	0	0	0	0	579	498	0	0	0	0	
10	0	0	0	0	578	477	0	0	0	0	
11	0	0	0	0	583	461	0	0	0	0	
12	0	0	0	0	594	451	0	0	0	0	
13	0	0	0	0	609	451	0	0	0	0	
14	0	0	0	0	627	459	0	0	0	0	
15	0	0	0	0	647	476	0	0	0	0	
0	0	0	0	0	668	499	0	0	0	0	
1	0	0	0	0	687	528	0	0	0	0	
2	0	0	0	0	703	559	0	0	0	0	
3	0	0	0	0	716	589	0	0	0	0	
4	0	0	0	0	723	616	0	0	0	0	
5	0	0	0	0	726	639	0	0	0	0	
6	0	0	0	0	725	654	0	0	0	0	
7	0	0	0	0	718	662	0	0	0	0	
8	0	0	0	0	707	661	0	0	0	0	
9	0	0	0	0	692	651	0	0	0	0	
10	0	0	0	0	676	632	0	0	0	0	
11	0	0	0	0	658	608	0	0	0	0	
12	0	0	0	0	640	579	0	0	0	0	
13	0	0	0	0	625	550	0	0	0	0	
14	0	0	0	0	614	522	0	0	0	0	
15	0	0	0	0	607	499	0	0	0	0	
0	0	0	0	0	606	484	0	0	0	0	
1	0	0	0	0	608	477	0	0	0	0	
2	0	0	0	0	615	479	0	0	0	0	
3	0	0	0	0	625	488	0	0	0	0	
4	0	0	0	0	637	505	0	0	0	0	
5	0	0	0	0	648	526	0	0	0	0	
6	0	0	0	0	659	548	0	0	0	0	
7	0	0	0	0	667	570	0	0	0	0	
8	0	0	0	0	671	589	0	0	0	0	
9	0	0	0	0	672	603	0	0	0	0	
10	0	0	0	0	671	611	0	0	0	0	
11	0	0	0	0	665	611	0	0	0	0	
12	0	0	0	0	658	606	0	0	0	0	
13	0	0	0	0	649	593	0	0	0	0	
14	0	0	0	0	641	575	0	0	0	0	
15	0	0	0	0	634	554	0	0	0	0	
0	0	0	0	0	629	532	0	0	0	0	
1	0	0	0	0	627	511	0	0	0	0	
2	0	0	0	0	628	493	0	0	0	0	
3	0	0	0	0	633	480	0	0	0	0	
4	0	0	0	0	641	475	0	0	0	0	
5	0	0	0	0	652	478	0	0	0	0	
6	0	0	0	0	664	488	0	0	0	0	
7	0	0	0	0	675	505	0	0	0	0	
8	0	0	0	0	687	528	0	0	0	0	
9	0	0	0	0	696	554	0	0	0	0	
10	0	0	0	0	703	582	0	0	0	0	
11	0	0	0	0	706	608	0	0	0	0	
12	0	0	0	0	705	632	0	0	0	0	
13	0	0	0	0	702	651	0	0	0	0	
14	0	0	0	0	695	665	0	0	0	0	
15	0	0	0	0	685	672	0	0	0	0	
0	0	0	0	0	673	671	0	0	0	0	
1	0	0	0	0	659	665	0	0	0	0	
2	0	0	0	0	647	653	0	0	0	0	
3	0	0	0	0	637	638	0	0	0	0	
4	0	0	0	0	629	621	0	0	0	0	
5	0	0	0	0	625	606	0	0	0	0	
6	0	0	0	0	625	595	0	0	0	0	
7	0	0	0	0	631	590	0	0	0	0	
8	0	0	0	0	640	592	0	0	0	0	
9	0	0	0	0	654	604	0	0	0	0	
10	0	0	0	0	671	623	0	0	0	0	
11	0	0	0	0	688	649	0	0	0	0	
12	0	0	0	0	706	680	0	0	0	0	
13	0	0	0	0	721	713	0	0	0	0	
14	0	0	0	0	733	746	0	0	0	0	
15	0	0	0	0	739	776	0	0	0	0	
0	0	0	0	0	741	803	0	0	0	0	
1	0	0	0	0	737	822	0	0	0	0	
2	0	0	0	0	729	834	0	0	0	0	
3	0	0	0	0	716	838	0	0	0	0	
4	0	0	0	0	698	831	0	0	0	0	
5	0	0	0	0	678	817	0	0	0	0	
6	0	0	0	0	657	795	0	0	0	0	
7	0	0	0	0	638	767	0	0	0	0	
8	0	0	0	0	620	736	0	0	0	0	
9	0	0	0	0	606	706	0	0	0	0	
10	0	0	0	0	597	679	0	0	0	0	
11	0	0	0	0	595	660	0	0	0	0	
12	0	0	0	0	599	649	0	0	0	0	
13	0	0	0	0	608	649	0	0	0	0	
14	0	0	0	0	623	659	0	0	0	0	
15	0	0	0	0	640	679	0	0	0	0	
0	0	0	0	0	659	706	0	0	0	0	
1	0	0	0	0	678	738	0	0	0	0	
2	0	0	0	0	693	772	0	0	0	0	
3	0	0	0	0	704	806	0	0	0	0	
4	0	0	0	0	712	836	0	0	0	0	
5	0	0	0	0	713	861	0	0	0	0	
6	0	0	0	0	711	878	0	0	0	0	
7	0	0	0	0	704	887	0	0	0	0	
8	0	0	0	0	693	887	0	0	0	0	
9	0	0	0	0	680	878	0	0	0	0	
10	0	0	0	0	666	861	0	0	0	0	
11	0	0	0	0	653	838	0	0	0	0	
12	0	0	0	0	642	811	0	0	0	0	
13	0	0	0	0	634	783	0	0	0	0	
14	0	0	0	0	631	756	0	0	0	0	
15	0	0	0	0	632	735	0	0	0	0	
0	0	0	0	0	639	721	0	0	0	0	
1	0	0	0	0	651	716	0	0	0	0	
2	0	0	0	0	665	721	0	0	0	0	
3	0	0	0	0	680	734	0	0	0	0	
4	0	0	0	0	696	753	0	0	0	0	
5	0	0	0	0	710	777	0	0	0	0	
6	0	0	0	0	720	803	0	0	0	0	
7	0	0	0	0	726	828	0	0	0	0	
8	0	0	0	0	727	849	0	0	0	0	
9	0	0	0	0	723	865	0	0	0	0	
10	0	0	0	0	715	875	0	0	0	0	
11	0	0	0	0	703	876	0	0	0	0	
12	0	0	0	0	688	870	0	0	0	0	
13	0	0	0	0	672	857	0	0	0	0	
14	0	0	0	0	656	837	0	0	0	0	
15	0	0	0	0	641	814	0	0	0	0	
0	0	0	0	0	630	788	0	0	0	0	
1	0	0	0	0	623	764	0	0	0	0	
2	0	0	0	0	619	743	0	0	0	0	
3	0	0	0	0	622	727	0	0	0	0	
4	0	0	0	0	628	719	0	0	0	0	
5	0	0	0	0	638	721	0	0	0	0	
6	0	0	0	0	652	732	0	0	0	0	
7	0	0	0	0	667	750	0	0	0	0	
8	0	0	0	0	682	775	0	0	0	0	
9	0	0	0	0	695	804	0	0	0	0	
10	0	0	0	0	705	835	0	0	0	0	
11	0	0	0	0	713	864	0	0	0	0	
12	0	0	0	0	716	890	0	0	0	0	
13	0	0	0	0	715	911	0	0	0	0	
14	0	0	0	0	711	924	0	0	0	0	
15	0	0	0	0	704	929	0	0	0	0	
0	0	0	0	0	694	927	0	0	0	0	
1	0	0	0	0	683	915	0	0	0	0	
2	0	0	0	0	670	896	0	0	0	0	
3	0	0	0	0	660	870	0	0	0	0	
4	0	0	0	0	651	841	0	0	0	0	
5	0	0	0	0	645	812	0	0	0	0	
6	0	0	0	0	643	785	0	0	0	0	
7	0	0	0	0	644	762	0	0	0	0	
8	0	0	0	0	650	745	0	0	0	0	
9	0	0	0	0	658	737	0	0	0	0	
10	0	0	0	0	669	738	0	0	0	0	
11	0	0	0	0	681	747	0	0	0	0	
12	0	0	0	0	692	762	0	0	0	0	
13	0	0	0	0	703	782	0	0	0	0	
14	0	0	0	0	711	805	0	0	0	0	
15	0	0	0	0	716	828	0	0	0	0	
0	0	0	0	0	718	847	0	0	0	0	
1	0	0	0	0	716	863	0	0	0	0	
2	0	0	0	0	711	872	0	0	0	0	
3	0	0	0	0	703	874	0	0	0	0	
4	0	0	0	0	691	866	0	0	0	0	
5	0	0	0	0	678	849	0	0	0	0	
6	0	0	0	0	664	823	0	0	0	0	
7	0	0	0	0	649	788	0	0	0	0	
8	0	0	0	0	636	749	0	0	0	0	
9	0	0	0	0	624	706	0	0	0	0	
10	0	0	0	0	616	664	0	0	0	0	
11	0	0	0	0	612	624	0	0	0	0	
12	0	0	0	0	614	591	0	0	0	0	
13	0	0	0	0	618	565	0	0	0	0	
14	0	0	0	0	627	548	0	0	0	0	
15	0	0	0	0	637	541	0	0	0	0	
0	0	0	0	0	648	542	0	0	0	0	
1	0	0	0	0	659	548	0	0	0	0	
2	0	0	0	0	668	560	0	0	0	0	
3	0	0	0	0	674	575	0	0	0	0	
4	0	0	0	0	677	591	0	0	0	0	
5	0	0	0	0	676	605	0	0	0	0	
6	0	0	0	0	673	619	0	0	0	0	
7	0	0	0	0	667	629	0	0	0	0	
8	0	0	0	0	659	636	0	0	0	0	
9	0	0	0	0	650	639	0	0	0	0	
10	0	0	0	0	641	636	0	0	0	0	
11	0	0	0	0	633	631	0	0	0	0	
12	0	0	0	0	627	621	0	0	0	0	
13	0	0	0	0	624	608	0	0	0	0	
14	0	0	0	0	623	595	0	0	0	0	
15	0	0	0	0	626	581	0	0	0	0	
0	0	0	0	0	632	568	0	0	0	0	
1	0	0	0	0	641	559	0	0	0	0	
2	0	0	0	0	651	551	0	0	0	0	
3	0	0	0	0	662	546	0	0	0	0	
4	0	0	0	0	673	544	0	0	0	0	
5	0	0	0	0	684	542	0	0	0	0	
6	0	0	0	0	691	540	0	0	0	0	
7	0	0	0	0	695	535	0	0	0	0	
8	0	0	0	0	694	526	0	0	0	0	
9	0	0	0	0	689	513	0	0	0	0	
10	0	0	0	0	682	494	0	0	0	0	
11	0	0	0	0	670	469	0	0	0	0	
12	0	0	0	0	655	438	0	0	0	0	
13	0	0	0	0	639	401	0	0	0	0	
14	0	0	0	0	623	359	0	0	0	0	
15	0	0	0	0	608	316	0	0	0	0	
0	0	0	0	0	594	273	0	0	0	0	
1	0	0	0	0	584	231	0	0	0	0	
2	0	0	0	0	577	197	0	0	0	0	
3	0	0	0	0	577	170	0	0	0	0	
4	0	0	0	0	580	153	0	0	0	0	
5	0	0	0	0	588	148	0	0	0	0	
6	0	0	0	0	600	155	0	0	0	0	
7	0	0	0	0	614	174	0	0	0	0	
8	0	0	0	0	629	202	0	0	0	0	
9	0	0	0	0	643	236	0	0	0	0	
10	0	0	0	0	657	275	0	0	0	0	
11	0	0	0	0	667	312	0	0	0	0	
12	0	0	0	0	674	348	0	0	0	0	
13	0	0	0	0	678	377	0	0	0	0	
14	0	0	0	0	678	398	0	0	0	0	
15	0	0	0	0	674	411	0	0	0	0	
0	0	0	0	0	667	412	0	0	0	0	
1	0	0	0	0	658	404	0	0	0	0	
2	0	0	0	0	648	386	0	0	0	0	
3	0	0	0	0	639	361	0	0	0	0	
4	0	0	0	0	630	333	0	0	0	0	
5	0	0	0	0	624	304	0	0	0	0	
6	0	0	0	0	622	277	0	0	0	0	
7	0	0	0	0	622	255	0	0	0	0	
8	0	0	0	0	628	242	0	0	0	0	
9	0	0	0	0	636	238	0	0	0	0	
10	0	0	0	0	648	244	0	0	0	0	
11	0	0	0	0	662	261	0	0	0	0	
12	0	0	0	0	676	286	0	0	0	0	
13	0	0	0	0	689	318	0	0	0	0	
14	0	0	0	0	700	355	0	0	0	0	
15	0	0	0	0	708	392	0	0	0	0	
0	0	0	0	0	713	428	0	0	0	0	
1	0	0	0	0	715	460	0	0	0	0	
2	0	0	0	0	713	486	0	0	0	0	
3	0	0	0	0	707	506	0	0	0	0	
4	0	0	0	0	701	518	0	0	0	0	
5	0	0	0	0	692	522	0	0	0	0	
6	0	0	0	0	685	520	0	0	0	0	
7	0	0	0	0	678	512	0	0	0	0	
8	0	0	0	0	674	502	0	0	0	0	
9	0	0	0	0	672	490	0	0	0	0	
10	0	0	0	0	673	480	0	0	0	0	
11	0	0	0	0	677	472	0	0	0	0	
12	0	0	0	0	684	471	0	0	0	0	
13	0	0	0	0	694	476	0	0	0	0	
14	0	0	0	0	705	488	0	0	0	0	
15	0	0	0	0	716	507	0	0	0	0	
0	0	0	0	0	727	532	0	0	0	0	
1	0	0	0	0	735	561	0	0	0	0	
2	0	0	0	0	740	593	0	0	0	0	
3	0	0	0	0	741	624	0	0	0	0	
4	0	0	0	0	739	655	0	0	0	0	
5	0	0	0	0	732	683	0	0	0	0	
6	0	0	0	0	722	705	0	0	0	0	
7	0	0	0	0	710	723	0	0	0	0	
8	0	0	0	0	696	735	0	0	0	0	
9	0	0	0	0	683	741	0	0	0	0	
10	0	0	0	0	671	741	0	0	0	0	
11	0	0	0	0	661	737	0	0	0	0	
12	0	0	0	0	655	731	0	0	0	0	
13	0	0	0	0	654	723	0	0	0	0	
14	0	0	0	0	657	718	0	0	0	0	
15	0	0	0	0	666	715	0	0	0	0	
0	0	0	0	0	678	718	0	0	0	0	
1	0	0	0	0	694	727	0	0	0	0	
2	0	0	0	0	711	743	0	0	0	0	
3	0	0	0	0	729	766	0	0	0	0	
4	0	0	0	0	746	794	0	0	0	0	
5	0	0	0	0	760	824	0	0	0	0	
6	0	0	0	0	771	857	0	0	0	0	
7	0	0	0	0	777	889	0	0	0	0	
8	0	0	0	0	777	917	0	0	0	0	
9	0	0	0	0	772	940	0	0	0	0	
10	0	0	0	0	762	954	0	0	0	0	
11	0	0	0	0	745	960	0	0	0	0	
12	0	0	0	0	727	956	0	0	0	0	
13	0	0	0	0	705	942	0	0	0	0	
14	0	0	0	0	683	918	0	0	0	0	
15	0	0	0	0	663	888	0	0	0	0	
0	0	0	0	0	647	853	0	0	0	0	
1	0	0	0	0	636	816	0	0	0	0	
2	0	0	0	0	632	782	0	0	0	0	
3	0	0	0	0	634	752	0	0	0	0	
4	0	0	0	0	644	729	0	0	0	0	
5	0	0	0	0	660	716	0	0	0	0	
6	0	0	0	0	681	713	0	0	0	0	
7	0	0	0	0	704	720	0	0	0	0	
8	0	0	0	0	728	736	0	0	0	0	
9	0	0	0	0	751	756	0	0	0	0	
10	0	0	0	0	770	779	0	0	0	0	
11	0	0	0	0	784	802	0	0	0	0	
12	0	0	0	0	792	821	0	0	0	0	
13	0	0	0	0	794	834	0	0	0	0	
14	0	0	0	0	789	839	0	0	0	0	
15	0	0	0	0	777	833	0	0	0	0	
0	0	0	0	0	759	818	0	0	0	0	
1	0	0	0	0	738	794	0	0	0	0	
2	0	0	0	0	714	761	0	0	0	0	
3	0	0	0	0	692	722	0	0	0	0	
4	0	0	0	0	671	680	0	0	0	0	
5	0	0	0	0	654	639	0	0	0	0	
6	0	0	0	0	643	601	0	0	0	0	
7	0	0	0	0	640	569	0	0	0	0	
8	0	0	0	0	643	547	0	0	0	0	
9	0	0	0	0	653	536	0	0	0	0	
10	0	0	0	0	669	535	0	0	0	0	
11	0	0	0	0	688	544	0	0	0	0	
12	0	0	0	0	708	560	0	0	0	0	
13	0	0	0	0	728	580	0	0	0	0	
14	0	0	0	0	745	603	0	0	0	0	
15	0	0	0	0	757	623	0	0	0	0	
0	0	0	0	0	763	639	0	0	0	0	
1	0	0	0	0	763	648	0	0	0	0	
2	0	0	0	0	758	650	0	0	0	0	
3	0	0	0	0	746	644	0	0	0	0	
4	0	0	0	0	730	630	0	0	0	0	
5	0	0	0	0	711	609	0	0	0	0	
6	0	0	0	0	690	583	0	0	0	0	
7	0	0	0	0	671	556	0	0	0	0	
8	0	0	0	0	653	529	0	0	0	0	
9	0	0	0	0	640	506	0	0	0	0	
10	0	0	0	0	631	491	0	0	0	0	
11	0	0	0	0	630	484	0	0	0	0	
12	0	0	0	0	633	488	0	0	0	0	
13	0	0	0	0	642	504	0	0	0	0	
14	0	0	0	0	656	530	0	0	0	0	
15	0	0	0	0	673	566	0	0	0	0	
0	0	0	0	0	691	608	0	0	0	0	
1	0	0	0	0	708	653	0	0	0	0	
2	0	0	0	0	724	699	0	0	0	0	
3	0	0	0	0	735	741	0	0	0	0	
4	0	0	0	0	743	778	0	0	0	0	
5	0	0	0	0	743	806	0	0	0	0	
6	0	0	0	0	739	824	0	0	0	0	
7	0	0	0	0	729	831	0	0	0	0	
8	0	0	0	0	716	827	0	0	0	0	
9	0	0	0	0	699	812	0	0	0	0	
10	0	0	0	0	682	787	0	0	0	0	
11	0	0	0	0	666	756	0	0	0	0	
12	0	0	0	0	653	722	0	0	0	0	
13	0	0	0	0	644	687	0	0	0	0	
14	0	0	0	0	640	654	0	0	0	0	
15	0	0	0	0	643	628	0	0	0	0	
0	0	0	0	0	651	609	0	0	0	0	
1	0	0	0	0	664	602	0	0	0	0	
2	0	0	0	0	680	604	0	0	0	0	
3	0	0	0	0	697	615	0	0	0	0	
4	0	0	0	0	715	633	0	0	0	0	
5	0	0	0	0	729	657	0	0	0	0	
6	0	0	0	0	739	682	0	0	0	0	
7	0	0	0	0	745	706	0	0	0	0	
8	0	0	0	0	745	726	0	0	0	0	
9	0	0	0	0	741	741	0	0	0	0	
10	0	0	0	0	732	749	0	0	0	0	
11	0	0	0	0	718	748	0	0	0	0	
12	0	0	0	0	703	739	0	0	0	0	
13	0	0	0	0	686	723	0	0	0	0	
14	0	0	0	0	670	701	0	0	0	0	
15	0	0	0	0	656	675	0	0	0	0	
0	0	0	0	0	646	649	0	0	0	0	
1	0	0	0	0	641	625	0	0	0	0	
2	0	0	0	0	640	606	0	0	0	0	
3	0	0	0	0	647	595	0	0	0	0	
4	0	0	0	0	657	593	0	0	0	0	
5	0	0	0	0	671	601	0	0	0	0	
6	0	0	0	0	687	618	0	0	0	0	
7	0	0	0	0	704	644	0	0	0	0	
8	0	0	0	0	719	676	0	0	0	0	
9	0	0	0	0	732	711	0	0	0	0	
10	0	0	0	0	742	749	0	0	0	0	
11	0	0	0	0	746	784	0	0	0	0	
12	0	0	0	0	745	816	0	0	0	0	
13	0	0	0	0	741	841	0	0	0	0	
14	0	0	0	0	731	860	0	0	0	0	
15	0	0	0	0	718	869	0	0	0	0	
0	0	0	0	0	702	867	0	0	0	0	
1	0	0	0	0	685	857	0	0	0	0	
2	0	0	0	0	669	837	0	0	0	0	
3	0	0	0	0	654	809	0	0	0	0	
4	0	0	0	0	643	777	0	0	0	0	
5	0	0	0	0	636	743	0	0	0	0	
6	0	0	0	0	634	709	0	0	0	0	
7	0	0	0	0	638	680	0	0	0	0	
8	0	0	0	0	647	658	0	0	0	0	
9	0	0	0	0	660	645	0	0	0	0	
10	0	0	0	0	677	642	0	0	0	0	
11	0	0	0	0	695	648	0	0	0	0	
12	0	0	0	0	713	663	0	0	0	0	
13	0	0	0	0	729	683	0	0	0	0	
14	0	0	0	0	742	706	0	0	0	0	
15	0	0	0	0	750	730	0	0	0	0	
0	0	0	0	0	755	751	0	0	0	0	
1	0	0	0	0	753	768	0	0	0	0	
2	0	0	0	0	749	778	0	0	0	0	
3	0	0	0	0	739	780	0	0	0	0	
4	0	0	0	0	726	774	0	0	0	0	
5	0	0	0	0	711	758	0	0	0	0	
6	0	0	0	0	696	734	0	0	0	0	
7	0	0	0	0	681	705	0	0	0	0	
8	0	0	0	0	668	672	0	0	0	0	
9	0	0	0	0	657	638	0	0	0	0	
10	0	0	0	0	652	606	0	0	0	0	
11	0	0	0	0	651	579	0	0	0	0	
12	0	0	0	0	655	559	0	0	0	0	
13	0	0	0	0	662	547	0	0	0	0	
14	0	0	0	0	673	546	0	0	0	0	
15	0	0	0	0	686	553	0	0	0	0	
0	0	0	0	0	699	568	0	0	0	0	
1	0	0	0	0	712	587	0	0	0	0	
2	0	0	0	0	722	609	0	0	0	0	
3	0	0	0	0	729	631	0	0	0	0	
4	0	0	0	0	732	649	0	0	0	0	
5	0	0	0	0	731	663	0	0	0	0	
6	0	0	0	0	727	670	0	0	0	0	
7	0	0	0	0	719	670	0	0	0	0	
8	0	0	0	0	709	661	0	0	0	0	
9	0	0	0	0	699	644	0	0	0	0	
10	0	0	0	0	688	622	0	0	0	0	
11	0	0	0	0	680	594	0	0	0	0	
12	0	0	0	0	674	564	0	0	0	0	
13	0	0	0	0	671	533	0	0	0	0	
14	0	0	0	0	672	506	0	0	0	0	
15	0	0	0	0	676	483	0	0	0	0	
0	0	0	0	0	685	468	0	0	0	0	
1	0	0	0	0	696	460	0	0	0	0	
2	0	0	0	0	708	462	0	0	0	0	
3	0	0	0	0	721	470	0	0	0	0	
4	0	0	0	0	733	485	0	0	0	0	
5	0	0	0	0	743	503	0	0	0	0	
6	0	0	0	0	749	523	0	0	0	0	
7	0	0	0	0	751	541	0	0	0	0	
8	0	0	0	0	747	556	0	0	0	0	
9	0	0	0	0	739	565	0	0	0	0	
10	0	0	0	0	728	567	0	0	0	0	
11	0	0	0	0	714	561	0	0	0	0	
12	0	0	0	0	696	547	0	0	0	0	
13	0	0	0	0	679	526	0	0	0	0	
14	0	0	0	0	662	498	0	0	0	0	
15	0	0	0	0	647	467	0	0	0	0	
0	0	0	0	0	636	434	0	0	0	0	
1	0	0	0	0	630	403	0	0	0	0	
2	0	0	0	0	630	376	0	0	0	0	
3	0	0	0	0	635	354	0	0	0	0	
4	0	0	0	0	647	341	0	0	0	0	
5	0	0	0	0	664	338	0	0	0	0	
6	0	0	0	0	683	344	0	0	0	0	
7	0	0	0	0	704	358	0	0	0	0	
8	0	0	0	0	725	379	0	0	0	0	
9	0	0	0	0	744	403	0	0	0	0	
10	0	0	0	0	758	429	0	0	0	0	
11	0	0	0	0	767	453	0	0	0	0	
12	0	0	0	0	770	472	0	0	0	0	
13	0	0	0	0	766	484	0	0	0	0	
14	0	0	0	0	757	489	0	0	0	0	
15	0	0	0	0	741	484	0	0	0	0	
0	0	0	0	0	722	471	0	0	0	0	
1	0	0	0	0	701	451	0	0	0	0	
2	0	0	0	0	678	424	0	0	0	0	
3	0	0	0	0	656	393	0	0	0	0	
4	0	0	0	0	638	363	0	0	0	0	
5	0	0	0	0	624	335	0	0	0	0	
6	0	0	0	0	615	311	0	0	0	0	
7	0	0	0	0	614	295	0	0	0	0	
8	0	0	0	0	620	287	0	0	0	0	
9	0	0	0	0	631	288	0	0	0	0	
10	0	0	0	0	647	300	0	0	0	0	
11	0	0	0	0	666	320	0	0	0	0	
12	0	0	0	0	687	347	0	0	0	0	
13	0	0	0	0	706	378	0	0	0	0	
14	0	0	0	0	722	410	0	0	0	0	
15	0	0	0	0	736	440	0	0	0	0	
0	0	0	0	0	743	465	0	0	0	0	
1	0	0	0	0	745	483	0	0	0	0	
2	0	0	0	0	743	494	0	0	0	0	
3	0	0	0	0	736	495	0	0	0	0	
4	0	0	0	0	725	487	0	0	0	0	
5	0	0	0	0	711	471	0	0	0	0	
6	0	0	0	0	699	448	0	0	0	0	
7	0	0	0	0	685	419	0	0	0	0	
8	0	0	0	0	674	389	0	0	0	0	
9	0	0	0	0	666	358	0	0	0	0	
10	0	0	0	0	662	331	0	0	0	0	
11	0	0	0	0	663	308	0	0	0	0	
12	0	0	0	0	668	292	0	0	0	0	
13	0	0	0	0	677	285	0	0	0	0	
14	0	0	0	0	688	285	0	0	0	0	
15	0	0	0	0	700	292	0	0	0	0	
0	0	0	0	0	712	305	0	0	0	0	
1	0	0	0	0	721	322	0	0	0	0	
2	0	0	0	0	728	341	0	0	0	0	
3	0	0	0	0	730	359	0	0	0	0	
4	0	0	0	0	728	376	0	0	0	0	
5	0	0	0	0	722	387	0	0	0	0	
6	0	0	0	0	712	394	0	0	0	0	
7	0	0	0	0	699	395	0	0	0	0	
8	0	0	0	0	684	389	0	0	0	0	
9	0	0	0	0	668	378	0	0	0	0	
10	0	0	0	0	654	363	0	0	0	0	
11	0	0	0	0	641	346	0	0	0	0	
12	0	0	0	0	633	330	0	0	0	0	
13	0	0	0	0	628	315	0	0	0	0	
14	0	0	0	0	628	304	0	0	0	0	
15	0	0	0	0	634	301	0	0	0	0	
0	0	0	0	0	644	304	0	0	0	0	
1	0	0	0	0	658	316	0	0	0	0	
2	0	0	0	0	674	336	0	0	0	0	
3	0	0	0	0	691	362	0	0	0	0	
4	0	0	0	0	707	393	0	0	0	0	
5	0	0	0	0	720	425	0	0	0	0	
6	0	0	0	0	730	456	0	0	0	0	
7	0	0	0	0	735	484	0	0	0	0	
8	0	0	0	0	734	506	0	0	0	0	
9	0	0	0	0	729	521	0	0	0	0	
10	0	0	0	0	720	527	0	0	0	0	
11	0	0	0	0	707	525	0	0	0	0	
12	0	0	0	0	692	515	0	0	0	0	
13	0	0	0	0	675	497	0	0	0	0	
14	0	0	0	0	659	475	0	0	0	0	
15	0	0	0	0	644	448	0	0	0	0	
0	0	0	0	0	632	420	0	0	0	0	
1	0	0	0	0	622	393	0	0	0	0	
2	0	0	0	0	617	369	0	0	0	0	
3	0	0	0	0	615	352	0	0	0	0	
4	0	0	0	0	620	343	0	0	0	0	
5	0	0	0	0	627	344	0	0	0	0	
6	0	0	0	0	639	354	0	0	0	0	
7	0	0	0	0	652	373	0	0	0	0	
8	0	0	0	0	666	399	0	0	0	0	
9	0	0	0	0	680	431	0	0	0	0	
10	0	0	0	0	692	464	0	0	0	0	
11	0	0	0	0	702	496	0	0	0	0	
12	0	0	0	0	708	525	0	0	0	0	
13	0	0	0	0	711	547	0	0	0	0	
14	0	0	0	0	710	561	0	0	0	0	
15	0	0	0	0	704	567	0	0	0	0	
0	0	0	0	0	696	564	0	0	0	0	
1	0	0	0	0	685	552	0	0	0	0	
2	0	0	0	0	672	534	0	0	0	0	
3	0	0	0	0	660	511	0	0	0	0	
4	0	0	0	0	649	487	0	0	0	0	
5	0	0	0	0	640	464	0	0	0	0	
6	0	0	0	0	635	445	0	0	0	0	
7	0	0	0	0	634	433	0	0	0	0	
8	0	0	0	0	639	430	0	0	0	0	
9	0	0	0	0	646	436	0	0	0	0	
10	0	0	0	0	657	451	0	0	0	0	
11	0	0	0	0	670	474	0	0	0	0	
12	0	0	0	0	683	502	0	0	0	0	
13	0	0	0	0	695	532	0	0	0	0	
14	0	0	0	0	703	561	0	0	0	0	
15	0	0	0	0	708	586	0	0	0	0	
0	0	0	0	0	708	604	0	0	0	0	
1	0	0	0	0	702	614	0	0	0	0	
2	0	0	0	0	694	615	0	0	0	0	
3	0	0	0	0	680	606	0	0	0	0	
4	0	0	0	0	664	589	0	0	0	0	
5	0	0	0	0	648	564	0	0	0	0	
6	0	0	0	0	632	534	0	0	0	0	
7	0	0	0	0	618	501	0	0	0	0	
8	0	0	0	0	608	469	0	0	0	0	
9	0	0	0	0	601	441	0	0	0	0	
10	0	0	0	0	600	421	0	0	0	0	
11	0	0	0	0	603	409	0	0	0	0	
12	0	0	0	0	612	409	0	0	0	0	
13	0	0	0	0	624	422	0	0	0	0	
14	0	0	0	0	639	446	0	0	0	0	
15	0	0	0	0	655	480	0	0	0	0	
0	0	0	0	0	671	522	0	0	0	0	
1	0	0	0	0	686	571	0	0	0	0	
2	0	0	0	0	697	621	0	0	0	0	
3	0	0	0	0	706	669	0	0	0	0	
4	0	0	0	0	710	715	0	0	0	0	
5	0	0	0	0	710	754	0	0	0	0	
6	0	0	0	0	706	787	0	0	0	0	
7	0	0	0	0	699	810	0	0	0	0	
8	0	0	0	0	689	824	0	0	0	0	
9	0	0	0	0	677	829	0	0	0	0	
10	0	0	0	0	664	824	0	0	0	0	
11	0	0	0	0	651	811	0	0	0	0	
12	0	0	0	0	639	793	0	0	0	0	
13	0	0	0	0	630	772	0	0	0	0	
14	0	0	0	0	624	752	0	0	0	0	
15	0	0	0	0	620	734	0	0	0	0	
0	0	0	0	0	621	723	0	0	0	0	
1	0	0	0	0	625	719	0	0	0	0	
2	0	0	0	0	632	723	0	0	0	0	
3	0	0	0	0	641	734	0	0	0	0	
4	0	0	0	0	651	751	0	0	0	0	
5	0	0	0	0	659	772	0	0	0	0	
6	0	0	0	0	667	794	0	0	0	0	
7	0	0	0	0	671	814	0	0	0	0	
8	0	0	0	0	672	831	0	0	0	0	
9	0	0	0	0	670	841	0	0	0	0	
10	0	0	0	0	665	845	0	0	0	0	
11	0	0	0	0	657	841	0	0	0	0	
12	0	0	0	0	647	830	0	0	0	0	
13	0	0	0	0	635	812	0	0	0	0	
14	0	0	0	0	624	788	0	0	0	0	
15	0	0	0	0	612	763	0	0	0	0	
0	0	0	0	0	603	737	0	0	0	0	
1	0	0	0	0	595	713	0	0	0	0	
2	0	0	0	0	591	696	0	0	0	0	
3	0	0	0	0	591	687	0	0	0	0	
4	0	0	0	0	595	689	0	0	0	0	
5	0	0	0	0	602	703	0	0	0	0	
6	0	0	0	0	613	728	0	0	0	0	
7	0	0	0	0	626	765	0	0	0	0	
8	0	0	0	0	640	809	0	0	0	0	
9	0	0	0	0	654	859	0	0	0	0	
10	0	0	0	0	666	911	0	0	0	0	
11	0	0	0	0	675	961	0	0	0	0	
12	0	0	0	0	681	1009	0	0	0	0	
13	0	0	0	0	683	1021	0	0	0	0	
14	0	0	0	0	681	1021	0	0	0	0	
15	0	0	0	0	674	1021	0	0	0	0	
0	0	0	0	0	664	1021	0	0	0	0	
1	0	0	0	0	652	1021	0	0	0	0	
2	0	0	0	0	638	1021	0	0	0	0	
3	0	0	0	0	625	1021	0	0	0	0	
4	0	0	0	0	613	1021	0	0	0	0	
5	0	0	0	0	603	1021	0	0	0	0	
6	0	0	0	0	596	1021	0	0	0	0	
7	0	0	0	0	593	1017	0	0	0	0	
8	0	0	0	0	595	1014	0	0	0	0	
9	0	0	0	0	600	1014	0	0	0	0	
10	0	0	0	0	609	1017	0	0	0	0	
11	0	0	0	0	620	1021	0	0	0	0	
12	0	0	0	0	632	1021	0	0	0	0	
13	0	0	0	0	642	1021	0	0	0	0	
14	0	0	0	0	650	1021	0	0	0	0	
15	0	0	0	0	655	1021	0	0	0	0	
0	0	0	0	0	657	1021	0	0	0	0	
1	0	0	0	0	655	1021	0	0	0	0	
2	0	0	0	0	649	1021	0	0	0	0	
3	0	0	0	0	642	1021	0	0	0	0	
4	0	0	0	0	632	1021	0	0	0	0	
5	0	0	0	0	622	1021	0	0	0	0	
6	0	0	0	0	611	1021	0	0	0	0	
7	0	0	0	0	602	1021	0	0	0	0	
8	0	0	0	0	596	1021	0	0	0	0	
9	0	0	0	0	593	1021	0	0	0	0	
10	0	0	0	0	593	1021	0	0	0	0	
11	0	0	0	0	596	1021	0	0	0	0	
12	0	0	0	0	604	1021	0	0	0	0	
13	0	0	0	0	613	1021	0	0	0	0	
14	0	0	0	0	625	1021	0	0	0	0	
15	0	0	0	0	637	1021	0	0	0	0	
0	0	0	0	0	648	1021	0	0	0	0	
1	0	0	0	0	658	1021	0	0	0	0	
2	0	0	0	0	664	1021	0	0	0	0	
3	0	0	0	0	667	1021	0	0	0	0	
4	0	0	0	0	666	1021	0	0	0	0	
5	0	0	0	0	662	1021	0	0	0	0	
6	0	0	0	0	654	1021	0	0	0	0	
7	0	0	0	0	644	1021	0	0	0	0	
8	0	0	0	0	633	1021	0	0	0	0	
9	0	0	0	0	621	1021	0	0	0	0	
10	0	0	0	0	611	1021	0	0	0	0	
11	0	0	0	0	604	1021	0	0	0	0	
12	0	0	0	0	599	1021	0	0	0	0	
13	0	0	0	0	599	1021	0	0	0	0	
14	0	0	0	0	602	1021	0	0	0	0	
15	0	0	0	0	610	1016	0	0	0	0	
0	0	0	0	0	621	993	0	0	0	0	
1	0	0	0	0	635	962	0	0	0	0	
2	0	0	0	0	648	926	0	0	0	0	
3	0	0	0	0	661	887	0	0	0	0	
4	0	0	0	0	672	849	0	0	0	0	
5	0	0	0	0	680	814	0	0	0	0	
6	0	0	0	0	683	783	0	0	0	0	
7	0	0	0	0	681	758	0	0	0	0	
8	0	0	0	0	676	739	0	0	0	0	
9	0	0	0	0	667	725	0	0	0	0	
10	0	0	0	0	654	716	0	0	0	0	
11	0	0	0	0	640	713	0	0	0	0	
12	0	0	0	0	625	712	0	0	0	0	
13	0	0	0	0	611	714	0	0	0	0	
14	0	0	0	0	600	717	0	0	0	0	
15	0	0	0	0	591	720	0	0	0	0	
0	0	0	0	0	587	723	0	0	0	0	
1	0	0	0	0	585	727	0	0	0	0	
2	0	0	0	0	589	732	0	0	0	0	
3	0	0	0	0	595	738	0	0	0	0	
4	0	0	0	0	604	746	0	0	0	0	
5	0	0	0	0	614	757	0	0	0	0	
6	0	0	0	0	624	771	0	0	0	0	
7	0	0	0	0	635	788	0	0	0	0	
8	0	0	0	0	643	807	0	0	0	0	
9	0	0	0	0	649	828	0	0	0	0	
10	0	0	0	0	652	849	0	0	0	0	
11	0	0	0	0	651	870	0	0	0	0	
12	0	0	0	0	646	887	0	0	0	0	
13	0	0	0	0	638	900	0	0	0	0	
14	0	0	0	0	628	910	0	0	0	0	
15	0	0	0	0	616	914	0	0	0	0	
0	0	0	0	0	604	912	0	0	0	0	
1	0	0	0	0	592	905	0	0	0	0	
2	0	0	0	0	583	894	0	0	0	0	
3	0	0	0	0	577	880	0	0	0	0	
4	0	0	0	0	574	864	0	0	0	0	
5	0	0	0	0	575	849	0	0	0	0	
6	0	0	0	0	579	836	0	0	0	0	
7	0	0	0	0	588	828	0	0	0	0	
8	0	0	0	0	599	826	0	0	0	0	
9	0	0	0	0	612	831	0	0	0	0	
10	0	0	0	0	626	843	0	0	0	0	
11	0	0	0	0	639	861	0	0	0	0	
12	0	0	0	0	650	884	0	0	0	0	
13	0	0	0	0	657	911	0	0	0	0	
14	0	0	0	0	661	937	0	0	0	0	
15	0	0	0	0	659	963	0	0	0	0	
0	0	0	0	0	652	985	0	0	0	0	
1	0	0	0	0	641	1003	0	0	0	0	
2	0	0	0	0	627	1016	0	0	0	0	
3	0	0	0	0	611	1020	0	0	0	0	
4	0	0	0	0	595	1019	0	0	0	0	
5	0	0	0	0	578	1012	0	0	0	0	
6	0	0	0	0	564	998	0	0	0	0	
7	0	0	0	0	552	981	0	0	0	0	
8	0	0	0	0	544	961	0	0	0	0	
9	0	0	0	0	540	942	0	0	0	0	
10	0	0	0	0	541	927	0	0	0	0	
11	0	0	0	0	547	915	0	0	0	0	
12	0	0	0	0	558	912	0	0	0	0	
13	0	0	0	0	572	917	0	0	0	0	
14	0	0	0	0	588	931	0	0	0	0	
15	0	0	0	0	604	952	0	0	0	0	
0	0	0	0	0	620	980	0	0	0	0	
1	0	0	0	0	633	1012	0	0	0	0	
2	0	0	0	0	643	1021	0	0	0	0	
3	0	0	0	0	647	1021	0	0	0	0	
4	0	0	0	0	647	1021	0	0	0	0	
5	0	0	0	0	642	1021	0	0	0	0	
6	0	0	0	0	633	1021	0	0	0	0	
7	0	0	0	0	620	1021	0	0	0	0	
8	0	0	0	0	604	1021	0	0	0	0	
9	0	0	0	0	588	1021	0	0	0	0	
10	0	0	0	0	570	1021	0	0	0	0	
11	0	0	0	0	554	1021	0	0	0	0	
12	0	0	0	0	539	1021	0	0	0	0	
13	0	0	0	0	527	1021	0	0	0	0	
14	0	0	0	0	518	1021	0	0	0	0	
15	0	0	0	0	511	1021	0	0	0	0	
0	0	0	0	0	507	1021	0	0	0	0	
1	0	0	0	0	504	1021	0	0	0	0	
2	0	0	0	0	501	1021	0	0	0	0	
3	0	0	0	0	497	1021	0	0	0	0	
4	0	0	0	0	491	1021	0	0	0	0	
5	0	0	0	0	483	1020	0	0	0	0	
6	0	0	0	0	471	1016	0	0	0	0	
7	0	0	0	0	457	1011	0	0	0	0	
8	0	0	0	0	440	1004	0	0	0	0	
9	0	0	0	0	422	994	0	0	0	0	
10	0	0	0	0	403	984	0	0	0	0	
11	0	0	0	0	386	972	0	0	0	0	
12	0	0	0	0	371	960	0	0	0	0	
13	0	0	0	0	360	947	0	0	0	0	
14	0	0	0	0	354	935	0	0	0	0	
15	0	0	0	0	354	925	0	0	0	0	
0	0	0	0	0	359	916	0	0	0	0	
1	0	0	0	0	373	913	0	0	0	0	
2	0	0	0	0	392	914	0	0	0	0	
3	0	0	0	0	418	922	0	0	0	0	
4	0	0	0	0	450	937	0	0	0	0	
5	0	0	0	0	486	960	0	0	0	0	
6	0	0	0	0	525	990	0	0	0	0	
7	0	0	0	0	563	1021	0	0	0	0	
8	0	0	0	0	601	1021	0	0	0	0	
9	0	0	0	0	636	1021	0	0	0	0	
10	0	0	0	0	664	1021	0	0	0	0	
11	0	0	0	0	687	1021	0	0	0	0	
12	0	0	0	0	701	1021	0	0	0	0	
13	0	0	0	0	708	1021	0	0	0	0	
14	0	0	0	0	708	1021	0	0	0	0	
15	0	0	0	0	700	1021	0	0	0	0	
0	0	0	0	0	687	1021	0	0	0	0	
1	0	0	0	0	670	1021	0	0	0	0	
2	0	0	0	0	652	1021	0	0	0	0	
3	0	0	0	0	635	1021	0	0	0	0	
4	0	0	0	0	620	1021	0	0	0	0	
5	0	0	0	0	609	1021	0	0	0	0	
6	0	0	0	0	606	1021	0	0	0	0	
7	0	0	0	0	608	1021	0	0	0	0	
8	0	0	0	0	619	1021	0	0	0	0	
9	0	0	0	0	637	1021	0	0	0	0	
10	0	0	0	0	662	1021	0	0	0	0	
11	0	0	0	0	692	1021	0	0	0	0	
12	0	0	0	0	725	1021	0	0	0	0	
13	0	0	0	0	759	1021	0	0	0	0	
14	0	0	0	0	791	1021	0	0	0	0	
15	0	0	0	0	820	1021	0	0	0	0	
0	0	0	0	0	845	1021	0	0	0	0	
1	0	0	0	0	864	1021	0	0	0	0	
2	0	0	0	0	878	1021	0	0	0	0	
3	0	0	0	0	884	1021	0	0	0	0	
4	0	0	0	0	884	1021	0	0	0	0	
5	0	0	0	0	880	1021	0	0	0	0	
6	0	0	0	0	871	1021	0	0	0	0	
7	0	0	0	0	861	1021	0	0	0	0	
8	0	0	0	0	849	1021	0	0	0	0	
9	0	0	0	0	839	1021	0	0	0	0	
10	0	0	0	0	832	1021	0	0	0	0	
11	0	0	0	0	828	1021	0	0	0	0	
12	0	0	0	0	830	1021	0	0	0	0	
13	0	0	0	0	837	1021	0	0	0	0	
14	0	0	0	0	847	1021	0	0	0	0	
15	0	0	0	0	860	1021	0	0	0	0	
0	0	0	0	0	875	1021	0	0	0	0	
1	0	0	0	0	890	1021	0	0	0	0	
2	0	0	0	0	903	1021	0	0	0	0	
3	0	0	0	0	912	1021	0	0	0	0	
4	0	0	0	0	918	1021	0	0	0	0	
5	0	0	0	0	918	1021	0	0	0	0	
6	0	0	0	0	916	1021	0	0	0	0	
7	0	0	0	0	909	1021	0	0	0	0	
8	0	0	0	0	899	1021	0	0	0	0	
9	0	0	0	0	886	1021	0	0	0	0	
10	0	0	0	0	872	1021	0	0	0	0	
11	0	0	0	0	858	1021	0	0	0	0	
12	0	0	0	0	846	1021	0	0	0	0	
13	0	0	0	0	835	1021	0	0	0	0	
14	0	0	0	0	828	1021	0	0	0	0	
15	0	0	0	0	827	1021	0	0	0	0	
0	0	0	0	0	829	1021	0	0	0	0	
1	0	0	0	0	835	1021	0	0	0	0	
2	0	0	0	0	846	1021	0	0	0	0	
3	0	0	0	0	857	1021	0	0	0	0	
4	0	0	0	0	871	1021	0	0	0	0	
5	0	0	0	0	885	1021	0	0	0	0	
6	0	0	0	0	896	1021	0	0	0	0	
7	0	0	0	0	905	1021	0	0	0	0	
8	0	0	0	0	910	1021	0	0	0	0	
9	0	0	0	0	912	1021	0	0	0	0	
10	0	0	0	0	908	1021	0	0	0	0	
11	0	0	0	0	901	1021	0	0	0	0	
12	0	0	0	0	889	1021	0	0	0	0	
13	0	0	0	0	875	1021	0	0	0	0	
14	0	0	0	0	860	1021	0	0	0	0	
15	0	0	0	0	845	1021	0	0	0	0	
0	0	0	0	0	830	1021	0	0	0	0	
1	0	0	0	0	819	1021	0	0	0	0	
2	0	0	0	0	811	1021	0	0	0	0	
3	0	0	0	0	808	1021	0	0	0	0	
4	0	0	0	0	811	1021	0	0	0	0	
5	0	0	0	0	818	1021	0	0	0	0	
6	0	0	0	0	829	1021	0	0	0	0	
7	0	0	0	0	843	1021	0	0	0	0	
8	0	0	0	0	859	1021	0	0	0	0	
9	0	0	0	0	873	1021	0	0	0	0	
10	0	0	0	0	884	1021	0	0	0	0	
11	0	0	0	0	891	1021	0	0	0	0	
12	0	0	0	0	894	1021	0	0	0	0	
13	0	0	0	0	891	1021	0	0	0	0	
14	0	0	0	0	884	1021	0	0	0	0	
15	0	0	0	0	873	1021	0	0	0	0	
0	0	0	0	0	859	1021	0	0	0	0	
1	0	0	0	0	843	1021	0	0	0	0	
2	0	0	0	0	827	1021	0	0	0	0	
3	0	0	0	0	812	1021	0	0	0	0	
4	0	0	0	0	799	1021	0	0	0	0	
5	0	0	0	0	790	1021	0	0	0	0	
6	0	0	0	0	786	1021	0	0	0	0	
7	0	0	0	0	787	1021	0	0	0	0	
8	0	0	0	0	793	1021	0	0	0	0	
9	0	0	0	0	803	1021	0	0	0	0	
10	0	0	0	0	816	1021	0	0	0	0	
11	0	0	0	0	831	1021	0	0	0	0	
12	0	0	0	0	846	1021	0	0	0	0	
13	0	0	0	0	860	1021	0	0	0	0	
14	0	0	0	0	870	1021	0	0	0	0	
15	0	0	0	0	876	1021	0	0	0	0	
0	0	0	0	0	875	1021	0	0	0	0	
1	0	0	0	0	871	1021	0	0	0	0	
2	0	0	0	0	861	1021	0	0	0	0	
3	0	0	0	0	847	1021	0	0	0	0	
4	0	0	0	0	831	1021	0	0	0	0	
5	0	0	0	0	814	1021	0	0	0	0	
6	0	0	0	0	796	1021	0	0	0	0	
7	0	0	0	0	782	1021	0	0	0	0	
8	0	0	0	0	769	1021	0	0	0	0	
9	0	0	0	0	763	1021	0	0	0	0	
10	0	0	0	0	761	1021	0	0	0	0	
11	0	0	0	0	764	1021	0	0	0	0	
12	0	0	0	0	772	1021	0	0	0	0	
13	0	0	0	0	784	1021	0	0	0	0	
14	0	0	0	0	799	1021	0	0	0	0	
15	0	0	0	0	814	1021	0	0	0	0	
0	0	0	0	0	828	1021	0	0	0	0	
1	0	0	0	0	839	1021	0	0	0	0	
2	0	0	0	0	846	1021	0	0	0	0	
3	0	0	0	0	848	1021	0	0	0	0	
4	0	0	0	0	844	1021	0	0	0	0	
5	0	0	0	0	835	1021	0	0	0	0	
6	0	0	0	0	823	1021	0	0	0	0	
7	0	0	0	0	806	1021	0	0	0	0	
8	0	0	0	0	787	1021	0	0	0	0	
9	0	0	0	0	768	1021	0	0	0	0	
10	0	0	0	0	750	1021	0	0	0	0	
11	0	0	0	0	734	1021	0	0	0	0	
12	0	0	0	0	721	1021	0	0	0	0	
13	0	0	0	0	713	1021	0	0	0	0	
14	0	0	0	0	710	1021	0	0	0	0	
15	0	0	0	0	712	1021	0	0	0	0	
0	0	0	0	0	719	1021	0	0	0	0	
1	0	0	0	0	729	1021	0	0	0	0	
2	0	0	0	0	743	1021	0	0	0	0	
3	0	0	0	0	758	1021	0	0	0	0	
4	0	0	0	0	773	1021	0	0	0	0	
5	0	0	0	0	787	1021	0	0	0	0	
6	0	0	0	0	797	1021	0	0	0	0	
7	0	0	0	0	803	1021	0	0	0	0	
8	0	0	0	0	804	1021	0	0	0	0	
9	0	0	0	0	801	1021	0	0	0	0	
10	0	0	0	0	794	1021	0	0	0	0	
11	0	0	0	0	783	1021	0	0	0	0	
12	0	0	0	0	769	1021	0	0	0	0	
13	0	0	0	0	754	1021	0	0	0	0	
14	0	0	0	0	741	1021	0	0	0	0	
15	0	0	0	0	729	1021	0	0	0	0	
0	0	0	0	0	719	1021	0	0	0	0	
1	0	0	0	0	714	1021	0	0	0	0	
2	0	0	0	0	713	1021	0	0	0	0	
3	0	0	0	0	716	1021	0	0	0	0	
4	0	0	0	0	724	1021	0	0	0	0	
5	0	0	0	0	736	1021	0	0	0	0	
6	0	0	0	0	750	1021	0	0	0	0	
7	0	0	0	0	765	1021	0	0	0	0	
8	0	0	0	0	779	1021	0	0	0	0	
9	0	0	0	0	792	1021	0	0	0	0	
10	0	0	0	0	802	1021	0	0	0	0	
11	0	0	0	0	807	1021	0	0	0	0	
12	0	0	0	0	809	1021	0	0	0	0	
13	0	0	0	0	806	1021	0	0	0	0	
14	0	0	0	0	799	1021	0	0	0	0	
15	0	0	0	0	789	1021	0	0	0	0	
0	0	0	0	0	777	1021	0	0	0	0	
1	0	0	0	0	763	1022	0	0	0	0	
2	0	0	0	0	750	1021	0	0	0	0	
3	0	0	0	0	738	1021	0	0	0	0	
4	0	0	0	0	728	1021	0	0	0	0	
5	0	0	0	0	720	1021	0	0	0	0	
6	0	0	0	0	717	1021	0	0	0	0	
7	0	0	0	0	718	1021	0	0	0	0	
8	0	0	0	0	722	1021	0	0	0	0	
9	0	0	0	0	730	1021	0	0	0	0	
10	0	0	0	0	740	1021	0	0	0	0	
11	0	0	0	0	751	1021	0	0	0	0	
12	0	0	0	0	763	1021	0	0	0	0	
13	0	0	0	0	772	1021	0	0	0	0	
14	0	0	0	0	777	1021	0	0	0	0	
15	0	0	0	0	779	1021	0	0	0	0	
0	0	0	0	0	775	1021	0	0	0	0	
1	0	0	0	0	768	1021	0	0	0	0	
2	0	0	0	0	757	1021	0	0	0	0	
3	0	0	0	0	743	1021	0	0	0	0	
4	0	0	0	0	727	1021	0	0	0	0	
5	0	0	0	0	710	1021	0	0	0	0	
6	0	0	0	0	694	1021	0	0	0	0	
7	0	0	0	0	680	1021	0	0	0	0	
8	0	0	0	0	670	1021	0	0	0	0	
9	0	0	0	0	663	1021	0	0	0	0	
10	0	0	0	0	660	1021	0	0	0	0	
11	0	0	0	0	663	1021	0	0	0	0	
