# OpenSignals Text File Format. Version 1
# {"": {"position": 0, "device": "", "device name": "", "device connection": "", "sampling rate": 1000, "resolution": [4, 1, 1, 1, 1, 10, 10, 10, 10, 6, 6], "firmware version": 1281, "comments": "", "keywords": "", "mode": 0, "sync interval": 2, "date": "", "time": "", "channels": [1, 2, 3, 4, 5, 6], "sensor": ["RAW", "RAW", "RAW", "RAW", "RAW", "RAW"], "label": ["A1", "A2", "A3", "A4", "A5", "A6"], "column": ["nSeq", "I1", "I2", "O1", "O2", "A1", "A2", "A3", "A4", "A5", "A6"], "special": [{}, {}, {}, {}, {}, {}], "digital IO": [0, 0, 1, 1]}}
# EndOfHeader
0	0	0	0	0	502	487	0	451	0	0	
1	0	0	0	0	334	647	0	385	0	0	
2	0	0	0	0	174	796	0	331	0	0	
3	0	0	0	0	36	917	0	293	0	0	
4	0	0	0	0	0	1001	0	275	0	0	
5	0	0	0	0	0	1021	0	278	0	0	
6	0	0	0	0	0	1020	0	303	0	0	
7	0	0	0	0	56	964	0	348	0	0	
8	0	0	0	0	187	865	0	408	0	0	
9	0	0	0	0	366	732	0	477	0	0	
10	0	0	0	0	576	579	0	547	0	0	
11	0	0	0	0	792	420	0	614	0	0	
12	0	0	0	0	982	272	0	668	0	0	
13	0	0	0	0	1021	152	0	706	0	0	
14	0	0	0	0	1021	68	0	724	0	0	
15	0	0	0	0	1021	28	0	721	0	0	
0	0	0	0	0	1005	36	0	696	0	0	
1	0	0	0	0	919	93	0	651	0	0	
2	0	0	0	0	803	192	0	591	0	0	
3	0	0	0	0	661	324	0	520	0	0	
4	0	0	0	0	502	478	0	449	0	0	
5	0	0	0	0	333	635	0	381	0	0	
6	0	0	0	0	172	781	0	326	0	0	
7	0	0	0	0	34	900	0	286	0	0	
8	0	0	0	0	0	982	0	266	0	0	
9	0	0	0	0	0	1021	0	268	0	0	
10	0	0	0	0	0	1012	0	292	0	0	
11	0	0	0	0	54	953	0	336	0	0	
12	0	0	0	0	182	852	0	396	0	0	
13	0	0	0	0	359	717	0	465	0	0	
14	0	0	0	0	568	562	0	537	0	0	
15	0	0	0	0	781	401	0	604	0	0	
0	0	0	0	0	971	252	0	659	0	0	
1	0	0	0	0	1021	131	0	700	0	0	
2	0	0	0	0	1021	47	0	718	0	0	
3	0	0	0	0	1021	7	0	717	0	0	
4	0	0	0	0	1004	16	0	693	0	0	
5	0	0	0	0	918	74	0	649	0	0	
6	0	0	0	0	801	177	0	590	0	0	
7	0	0	0	0	660	313	0	521	0	0	
8	0	0	0	0	502	471	0	450	0	0	
9	0	0	0	0	334	633	0	384	0	0	
10	0	0	0	0	175	784	0	328	0	0	
11	0	0	0	0	39	907	0	289	0	0	
12	0	0	0	0	0	994	0	270	0	0	
13	0	0	0	0	0	1021	0	271	0	0	
14	0	0	0	0	0	1018	0	294	0	0	
15	0	0	0	0	56	963	0	338	0	0	
0	0	0	0	0	186	862	0	397	0	0	
1	0	0	0	0	365	728	0	465	0	0	
2	0	0	0	0	575	574	0	537	0	0	
3	0	0	0	0	791	413	0	605	0	0	
4	0	0	0	0	981	263	0	660	0	0	
5	0	0	0	0	1021	140	0	700	0	0	
6	0	0	0	0	1021	54	0	719	0	0	
7	0	0	0	0	1021	12	0	718	0	0	
8	0	0	0	0	1006	19	0	694	0	0	
9	0	0	0	0	921	75	0	649	0	0	
10	0	0	0	0	804	175	0	590	0	0	
11	0	0	0	0	664	309	0	520	0	0	
12	0	0	0	0	504	465	0	448	0	0	
13	0	0	0	0	335	625	0	380	0	0	
14	0	0	0	0	174	775	0	325	0	0	
15	0	0	0	0	36	899	0	286	0	0	
0	0	0	0	0	0	987	0	266	0	0	
1	0	0	0	0	0	1021	0	269	0	0	
2	0	0	0	0	0	1019	0	294	0	0	
3	0	0	0	0	55	967	0	340	0	0	
4	0	0	0	0	185	870	0	401	0	0	
5	0	0	0	0	364	739	0	472	0	0	
6	0	0	0	0	574	588	0	545	0	0	
7	0	0	0	0	790	429	0	614	0	0	
8	0	0	0	0	982	280	0	671	0	0	
9	0	0	0	0	1021	159	0	710	0	0	
10	0	0	0	0	1021	72	0	730	0	0	
11	0	0	0	0	1021	30	0	728	0	0	
12	0	0	0	0	1008	36	0	703	0	0	
13	0	0	0	0	923	90	0	658	0	0	
14	0	0	0	0	807	188	0	598	0	0	
15	0	0	0	0	664	319	0	527	0	0	
0	0	0	0	0	503	471	0	454	0	0	
1	0	0	0	0	332	629	0	385	0	0	
2	0	0	0	0	168	775	0	327	0	0	
3	0	0	0	0	27	895	0	286	0	0	
4	0	0	0	0	0	979	0	265	0	0	
5	0	0	0	0	0	1020	0	265	0	0	
6	0	0	0	0	0	1012	0	288	0	0	
7	0	0	0	0	44	956	0	331	0	0	
8	0	0	0	0	167	856	0	391	0	0	
9	0	0	0	0	341	723	0	460	0	0	
10	0	0	0	0	547	569	0	533	0	0	
11	0	0	0	0	761	410	0	601	0	0	
12	0	0	0	0	953	262	0	659	0	0	
13	0	0	0	0	1021	140	0	700	0	0	
14	0	0	0	0	1021	55	0	720	0	0	
15	0	0	0	0	1021	15	0	720	0	0	
0	0	0	0	0	1007	22	0	697	0	0	
1	0	0	0	0	921	78	0	654	0	0	
2	0	0	0	0	806	179	0	595	0	0	
3	0	0	0	0	666	314	0	526	0	0	
4	0	0	0	0	508	470	0	455	0	0	
5	0	0	0	0	342	631	0	388	0	0	
6	0	0	0	0	182	781	0	333	0	0	
7	0	0	0	0	46	904	0	293	0	0	
8	0	0	0	0	0	992	0	272	0	0	
9	0	0	0	0	0	1021	0	273	0	0	
10	0	0	0	0	0	1019	0	295	0	0	
11	0	0	0	0	55	964	0	338	0	0	
12	0	0	0	0	184	865	0	396	0	0	
13	0	0	0	0	363	731	0	462	0	0	
14	0	0	0	0	572	575	0	532	0	0	
15	0	0	0	0	786	414	0	597	0	0	
0	0	0	0	0	978	261	0	651	0	0	
1	0	0	0	0	1021	136	0	689	0	0	
2	0	0	0	0	1021	48	0	707	0	0	
3	0	0	0	0	1021	4	0	704	0	0	
4	0	0	0	0	1006	9	0	680	0	0	
5	0	0	0	0	921	63	0	638	0	0	
6	0	0	0	0	804	163	0	580	0	0	
7	0	0	0	0	661	296	0	513	0	0	
8	0	0	0	0	501	453	0	444	0	0	
9	0	0	0	0	332	616	0	380	0	0	
10	0	0	0	0	169	769	0	327	0	0	
11	0	0	0	0	30	895	0	291	0	0	
12	0	0	0	0	0	985	0	273	0	0	
13	0	0	0	0	0	1020	0	276	0	0	
14	0	0	0	0	0	1020	0	301	0	0	
15	0	0	0	0	47	968	0	345	0	0	
0	0	0	0	0	173	871	0	405	0	0	
1	0	0	0	0	348	739	0	472	0	0	
2	0	0	0	0	556	585	0	543	0	0	
3	0	0	0	0	770	423	0	608	0	0	
4	0	0	0	0	962	271	0	661	0	0	
5	0	0	0	0	1021	144	0	699	0	0	
6	0	0	0	0	1021	54	0	716	0	0	
7	0	0	0	0	1021	7	0	713	0	0	
8	0	0	0	0	1008	9	0	688	0	0	
9	0	0	0	0	924	61	0	643	0	0	
10	0	0	0	0	809	158	0	584	0	0	
11	0	0	0	0	669	290	0	516	0	0	
12	0	0	0	0	511	444	0	446	0	0	
13	0	0	0	0	344	605	0	380	0	0	
14	0	0	0	0	183	756	0	326	0	0	
15	0	0	0	0	44	881	0	287	0	0	
0	0	0	0	0	0	970	0	268	0	0	
1	0	0	0	0	0	1016	0	271	0	0	
2	0	0	0	0	0	1012	0	295	0	0	
3	0	0	0	0	49	960	0	339	0	0	
4	0	0	0	0	176	863	0	397	0	0	
5	0	0	0	0	352	732	0	465	0	0	
6	0	0	0	0	561	578	0	536	0	0	
7	0	0	0	0	777	418	0	602	0	0	
8	0	0	0	0	971	267	0	656	0	0	
9	0	0	0	0	1021	143	0	695	0	0	
10	0	0	0	0	1021	54	0	712	0	0	
11	0	0	0	0	1021	9	0	709	0	0	
12	0	0	0	0	1011	13	0	685	0	0	
13	0	0	0	0	929	66	0	641	0	0	
14	0	0	0	0	816	163	0	582	0	0	
15	0	0	0	0	677	296	0	514	0	0	
0	0	0	0	0	519	451	0	444	0	0	
1	0	0	0	0	351	612	0	378	0	0	
2	0	0	0	0	189	764	0	324	0	0	
3	0	0	0	0	49	889	0	286	0	0	
4	0	0	0	0	0	979	0	268	0	0	
5	0	0	0	0	0	1021	0	271	0	0	
6	0	0	0	0	0	1019	0	295	0	0	
7	0	0	0	0	47	967	0	339	0	0	
8	0	0	0	0	173	870	0	398	0	0	
9	0	0	0	0	348	739	0	467	0	0	
10	0	0	0	0	557	585	0	539	0	0	
11	0	0	0	0	772	424	0	605	0	0	
12	0	0	0	0	966	272	0	660	0	0	
13	0	0	0	0	1021	145	0	699	0	0	
14	0	0	0	0	1021	56	0	718	0	0	
15	0	0	0	0	1021	9	0	716	0	0	
0	0	0	0	0	1009	11	0	692	0	0	
1	0	0	0	0	925	61	0	648	0	0	
2	0	0	0	0	810	158	0	590	0	0	
3	0	0	0	0	670	289	0	521	0	0	
4	0	0	0	0	511	443	0	450	0	0	
5	0	0	0	0	342	604	0	384	0	0	
6	0	0	0	0	180	755	0	328	0	0	
7	0	0	0	0	40	880	0	289	0	0	
8	0	0	0	0	0	970	0	268	0	0	
9	0	0	0	0	0	1017	0	270	0	0	
10	0	0	0	0	0	1015	0	292	0	0	
11	0	0	0	0	43	963	0	335	0	0	
12	0	0	0	0	166	866	0	393	0	0	
13	0	0	0	0	338	735	0	461	0	0	
14	0	0	0	0	543	581	0	532	0	0	
15	0	0	0	0	758	420	0	599	0	0	
0	0	0	0	0	951	268	0	655	0	0	
1	0	0	0	0	1021	143	0	695	0	0	
2	0	0	0	0	1021	54	0	716	0	0	
3	0	0	0	0	1021	8	0	716	0	0	
4	0	0	0	0	1011	11	0	694	0	0	
5	0	0	0	0	929	63	0	651	0	0	
6	0	0	0	0	816	160	0	594	0	0	
7	0	0	0	0	681	292	0	527	0	0	
8	0	0	0	0	527	447	0	457	0	0	
9	0	0	0	0	364	608	0	391	0	0	
10	0	0	0	0	207	760	0	337	0	0	
11	0	0	0	0	71	887	0	297	0	0	
12	0	0	0	0	0	977	0	278	0	0	
13	0	0	0	0	0	1021	0	279	0	0	
14	0	0	0	0	0	1018	0	302	0	0	
15	0	0	0	0	53	967	0	344	0	0	
0	0	0	0	0	180	869	0	402	0	0	
1	0	0	0	0	356	737	0	469	0	0	
2	0	0	0	0	564	583	0	540	0	0	
3	0	0	0	0	779	420	0	606	0	0	
4	0	0	0	0	971	267	0	661	0	0	
5	0	0	0	0	1021	140	0	700	0	0	
6	0	0	0	0	1021	48	0	719	0	0	
7	0	0	0	0	1021	1	0	718	0	0	
8	0	0	0	0	1009	4	0	695	0	0	
9	0	0	0	0	923	55	0	652	0	0	
10	0	0	0	0	807	150	0	593	0	0	
11	0	0	0	0	667	281	0	524	0	0	
12	0	0	0	0	508	435	0	452	0	0	
13	0	0	0	0	339	596	0	384	0	0	
14	0	0	0	0	177	747	0	327	0	0	
15	0	0	0	0	38	873	0	286	0	0	
0	0	0	0	0	0	964	0	264	0	0	
1	0	0	0	0	0	1011	0	263	0	0	
2	0	0	0	0	0	1009	0	285	0	0	
3	0	0	0	0	44	958	0	326	0	0	
4	0	0	0	0	167	863	0	384	0	0	
5	0	0	0	0	340	732	0	452	0	0	
6	0	0	0	0	547	579	0	524	0	0	
7	0	0	0	0	764	419	0	592	0	0	
8	0	0	0	0	958	267	0	650	0	0	
9	0	0	0	0	1021	142	0	691	0	0	
10	0	0	0	0	1021	52	0	714	0	0	
11	0	0	0	0	1021	6	0	715	0	0	
12	0	0	0	0	1012	7	0	694	0	0	
13	0	0	0	0	930	59	0	653	0	0	
14	0	0	0	0	816	155	0	596	0	0	
15	0	0	0	0	677	286	0	529	0	0	
0	0	0	0	0	519	440	0	459	0	0	
1	0	0	0	0	351	602	0	392	0	0	
2	0	0	0	0	189	755	0	336	0	0	
3	0	0	0	0	48	882	0	295	0	0	
4	0	0	0	0	0	974	0	273	0	0	
5	0	0	0	0	0	1020	0	271	0	0	
6	0	0	0	0	0	1017	0	291	0	0	
7	0	0	0	0	40	967	0	332	0	0	
8	0	0	0	0	161	871	0	388	0	0	
9	0	0	0	0	332	739	0	454	0	0	
10	0	0	0	0	537	585	0	523	0	0	
11	0	0	0	0	751	423	0	589	0	0	
12	0	0	0	0	946	269	0	644	0	0	
13	0	0	0	0	1021	141	0	683	0	0	
14	0	0	0	0	1021	49	0	704	0	0	
15	0	0	0	0	1021	1	0	703	0	0	
0	0	0	0	0	1011	3	0	682	0	0	
1	0	0	0	0	928	52	0	640	0	0	
2	0	0	0	0	816	147	0	583	0	0	
3	0	0	0	0	676	278	0	517	0	0	
4	0	0	0	0	519	433	0	447	0	0	
5	0	0	0	0	353	595	0	382	0	0	
6	0	0	0	0	192	749	0	327	0	0	
7	0	0	0	0	52	877	0	287	0	0	
8	0	0	0	0	0	970	0	266	0	0	
9	0	0	0	0	0	1018	0	266	0	0	
10	0	0	0	0	0	1018	0	287	0	0	
11	0	0	0	0	44	969	0	328	0	0	
12	0	0	0	0	168	875	0	385	0	0	
13	0	0	0	0	343	743	0	452	0	0	
14	0	0	0	0	550	590	0	522	0	0	
15	0	0	0	0	766	428	0	588	0	0	
0	0	0	0	0	961	274	0	643	0	0	
1	0	0	0	0	1021	146	0	683	0	0	
2	0	0	0	0	1021	53	0	702	0	0	
3	0	0	0	0	1021	4	0	702	0	0	
4	0	0	0	0	1013	4	0	679	0	0	
5	0	0	0	0	929	52	0	636	0	0	
6	0	0	0	0	814	147	0	578	0	0	
7	0	0	0	0	673	278	0	510	0	0	
8	0	0	0	0	513	431	0	440	0	0	
9	0	0	0	0	344	593	0	374	0	0	
10	0	0	0	0	180	747	0	318	0	0	
11	0	0	0	0	38	876	0	278	0	0	
12	0	0	0	0	0	969	0	257	0	0	
13	0	0	0	0	0	1019	0	257	0	0	
14	0	0	0	0	0	1018	0	279	0	0	
15	0	0	0	0	38	970	0	321	0	0	
0	0	0	0	0	158	876	0	379	0	0	
1	0	0	0	0	330	746	0	447	0	0	
2	0	0	0	0	536	592	0	519	0	0	
3	0	0	0	0	752	431	0	587	0	0	
4	0	0	0	0	947	278	0	644	0	0	
5	0	0	0	0	1021	150	0	686	0	0	
6	0	0	0	0	1021	57	0	707	0	0	
7	0	0	0	0	1021	7	0	707	0	0	
8	0	0	0	0	1014	7	0	685	0	0	
9	0	0	0	0	932	55	0	643	0	0	
10	0	0	0	0	819	149	0	585	0	0	
11	0	0	0	0	679	279	0	516	0	0	
12	0	0	0	0	520	432	0	445	0	0	
13	0	0	0	0	350	594	0	377	0	0	
14	0	0	0	0	186	748	0	320	0	0	
15	0	0	0	0	43	876	0	279	0	0	
0	0	0	0	0	0	969	0	256	0	0	
1	0	0	0	0	0	1019	0	255	0	0	
2	0	0	0	0	0	1019	0	276	0	0	
3	0	0	0	0	35	970	0	317	0	0	
4	0	0	0	0	153	876	0	375	0	0	
5	0	0	0	0	323	746	0	443	0	0	
6	0	0	0	0	527	592	0	514	0	0	
7	0	0	0	0	741	431	0	583	0	0	
8	0	0	0	0	937	276	0	640	0	0	
9	0	0	0	0	1021	147	0	682	0	0	
10	0	0	0	0	1021	55	0	704	0	0	
11	0	0	0	0	1021	4	0	705	0	0	
12	0	0	0	0	1014	3	0	685	0	0	
13	0	0	0	0	933	52	0	644	0	0	
14	0	0	0	0	820	146	0	588	0	0	
15	0	0	0	0	681	277	0	521	0	0	
0	0	0	0	0	523	431	0	451	0	0	
1	0	0	0	0	354	593	0	384	0	0	
2	0	0	0	0	191	748	0	327	0	0	
3	0	0	0	0	47	877	0	286	0	0	
4	0	0	0	0	0	970	0	263	0	0	
5	0	0	0	0	0	1020	0	260	0	0	
6	0	0	0	0	0	1019	0	280	0	0	
7	0	0	0	0	33	971	0	319	0	0	
8	0	0	0	0	149	877	0	374	0	0	
9	0	0	0	0	318	746	0	440	0	0	
10	0	0	0	0	521	592	0	509	0	0	
11	0	0	0	0	735	431	0	575	0	0	
12	0	0	0	0	931	276	0	632	0	0	
13	0	0	0	0	1021	148	0	671	0	0	
14	0	0	0	0	1021	54	0	694	0	0	
15	0	0	0	0	1021	5	0	694	0	0	
0	0	0	0	0	1013	4	0	673	0	0	
1	0	0	0	0	930	52	0	631	0	0	
2	0	0	0	0	814	146	0	575	0	0	
3	0	0	0	0	671	275	0	508	0	0	
4	0	0	0	0	508	429	0	438	0	0	
5	0	0	0	0	334	590	0	372	0	0	
6	0	0	0	0	166	743	0	316	0	0	
7	0	0	0	0	19	872	0	275	0	0	
8	0	0	0	0	0	964	0	252	0	0	
9	0	0	0	0	0	1014	0	250	0	0	
10	0	0	0	0	0	1014	0	270	0	0	
11	0	0	0	0	23	964	0	309	0	0	
12	0	0	0	0	132	869	0	364	0	0	
13	0	0	0	0	295	736	0	430	0	0	
14	0	0	0	0	492	581	0	499	0	0	
15	0	0	0	0	703	417	0	565	0	0	
0	0	0	0	0	897	261	0	621	0	0	
1	0	0	0	0	1021	130	0	662	0	0	
2	0	0	0	0	1021	34	0	683	0	0	
3	0	0	0	0	1021	0	0	683	0	0	
4	0	0	0	0	1007	0	0	660	0	0	
5	0	0	0	0	921	36	0	619	0	0	
6	0	0	0	0	801	124	0	561	0	0	
7	0	0	0	0	656	249	0	493	0	0	
8	0	0	0	0	493	398	0	423	0	0	
9	0	0	0	0	320	557	0	356	0	0	
10	0	0	0	0	154	709	0	299	0	0	
11	0	0	0	0	10	837	0	257	0	0	
12	0	0	0	0	0	931	0	233	0	0	
13	0	0	0	0	0	983	0	231	0	0	
14	0	0	0	0	0	986	0	251	0	0	
15	0	0	0	0	25	940	0	291	0	0	
0	0	0	0	0	136	850	0	348	0	0	
1	0	0	0	0	300	724	0	416	0	0	
2	0	0	0	0	500	574	0	488	0	0	
3	0	0	0	0	711	416	0	558	0	0	
4	0	0	0	0	908	265	0	617	0	0	
5	0	0	0	0	1021	139	0	660	0	0	
6	0	0	0	0	1021	47	0	684	0	0	
7	0	0	0	0	1021	0	0	688	0	0	
8	0	0	0	0	1014	0	0	669	0	0	
9	0	0	0	0	933	47	0	630	0	0	
10	0	0	0	0	822	138	0	575	0	0	
11	0	0	0	0	686	266	0	509	0	0	
12	0	0	0	0	531	417	0	440	0	0	
13	0	0	0	0	367	578	0	375	0	0	
14	0	0	0	0	207	731	0	319	0	0	
15	0	0	0	0	67	860	0	279	0	0	
0	0	0	0	0	0	955	0	257	0	0	
1	0	0	0	0	0	1007	0	256	0	0	
2	0	0	0	0	0	1011	0	277	0	0	
3	0	0	0	0	41	966	0	318	0	0	
4	0	0	0	0	162	876	0	375	0	0	
5	0	0	0	0	333	750	0	443	0	0	
6	0	0	0	0	539	600	0	514	0	0	
7	0	0	0	0	755	440	0	582	0	0	
8	0	0	0	0	952	287	0	639	0	0	
9	0	0	0	0	1021	158	0	680	0	0	
10	0	0	0	0	1021	63	0	701	0	0	
11	0	0	0	0	1021	11	0	701	0	0	
12	0	0	0	0	1016	6	0	679	0	0	
13	0	0	0	0	936	51	0	637	0	0	
14	0	0	0	0	825	140	0	579	0	0	
15	0	0	0	0	689	267	0	511	0	0	
0	0	0	0	0	535	419	0	440	0	0	
1	0	0	0	0	371	579	0	374	0	0	
2	0	0	0	0	212	732	0	317	0	0	
3	0	0	0	0	72	863	0	277	0	0	
4	0	0	0	0	0	959	0	255	0	0	
5	0	0	0	0	0	1014	0	255	0	0	
6	0	0	0	0	0	1020	0	278	0	0	
7	0	0	0	0	42	977	0	320	0	0	
8	0	0	0	0	165	888	0	380	0	0	
9	0	0	0	0	338	764	0	449	0	0	
10	0	0	0	0	546	615	0	522	0	0	
11	0	0	0	0	765	455	0	592	0	0	
12	0	0	0	0	964	303	0	651	0	0	
13	0	0	0	0	1021	174	0	694	0	0	
14	0	0	0	0	1021	79	0	716	0	0	
15	0	0	0	0	1021	26	0	716	0	0	
0	0	0	0	0	1021	19	0	693	0	0	
1	0	0	0	0	941	61	0	648	0	0	
2	0	0	0	0	830	148	0	587	0	0	
3	0	0	0	0	692	270	0	512	0	0	
4	0	0	0	0	532	415	0	434	0	0	
5	0	0	0	0	360	568	0	357	0	0	
6	0	0	0	0	191	712	0	290	0	0	
7	0	0	0	0	39	832	0	236	0	0	
8	0	0	0	0	0	916	0	200	0	0	
9	0	0	0	0	0	957	0	184	0	0	
10	0	0	0	0	0	947	0	189	0	0	
11	0	0	0	0	2	887	0	213	0	0	
12	0	0	0	0	90	780	0	253	0	0	
13	0	0	0	0	230	635	0	304	0	0	
14	0	0	0	0	404	466	0	358	0	0	
15	0	0	0	0	591	287	0	411	0	0	
0	0	0	0	0	764	118	0	453	0	0	
1	0	0	0	0	895	0	0	480	0	0	
2	0	0	0	0	967	0	0	488	0	0	
3	0	0	0	0	965	0	0	475	0	0	
4	0	0	0	0	890	0	0	441	0	0	
5	0	0	0	0	766	0	0	388	0	0	
6	0	0	0	0	613	1	0	321	0	0	
7	0	0	0	0	443	58	0	246	0	0	
8	0	0	0	0	260	143	0	167	0	0	
9	0	0	0	0	80	245	0	92	0	0	
10	0	0	0	0	0	352	0	28	0	0	
11	0	0	0	0	0	451	0	0	0	0	
12	0	0	0	0	0	529	0	0	0	0	
13	0	0	0	0	0	577	0	0	0	0	
14	0	0	0	0	0	586	0	0	0	0	
15	0	0	0	0	0	556	0	22	0	0	
0	0	0	0	0	22	491	0	69	0	0	
1	0	0	0	0	123	398	0	133	0	0	
2	0	0	0	0	265	289	0	207	0	0	
3	0	0	0	0	433	179	0	289	0	0	
4	0	0	0	0	601	75	0	369	0	0	
5	0	0	0	0	748	0	0	444	0	0	
6	0	0	0	0	849	0	0	504	0	0	
7	0	0	0	0	889	0	0	546	0	0	
8	0	0	0	0	868	7	0	568	0	0	
9	0	0	0	0	806	70	0	568	0	0	
10	0	0	0	0	716	171	0	548	0	0	
11	0	0	0	0	605	302	0	514	0	0	
12	0	0	0	0	479	453	0	471	0	0	
13	0	0	0	0	343	609	0	425	0	0	
14	0	0	0	0	212	756	0	382	0	0	
15	0	0	0	0	97	878	0	348	0	0	
0	0	0	0	0	12	967	0	327	0	0	
1	0	0	0	0	0	1013	0	322	0	0	
2	0	0	0	0	0	1012	0	335	0	0	
3	0	0	0	0	70	964	0	364	0	0	
4	0	0	0	0	201	871	0	408	0	0	
5	0	0	0	0	380	743	0	462	0	0	
6	0	0	0	0	590	591	0	520	0	0	
7	0	0	0	0	807	431	0	576	0	0	
8	0	0	0	0	1001	280	0	625	0	0	
9	0	0	0	0	1021	152	0	660	0	0	
10	0	0	0	0	1021	60	0	679	0	0	
11	0	0	0	0	1021	10	0	681	0	0	
12	0	0	0	0	1021	8	0	663	0	0	
13	0	0	0	0	940	55	0	627	0	0	
14	0	0	0	0	830	147	0	577	0	0	
15	0	0	0	0	694	276	0	516	0	0	
0	0	0	0	0	540	430	0	453	0	0	
1	0	0	0	0	375	592	0	393	0	0	
2	0	0	0	0	213	747	0	342	0	0	
3	0	0	0	0	71	879	0	305	0	0	
4	0	0	0	0	0	977	0	286	0	0	
5	0	0	0	0	0	1021	0	287	0	0	
6	0	0	0	0	0	1021	0	308	0	0	
7	0	0	0	0	38	986	0	349	0	0	
8	0	0	0	0	157	899	0	406	0	0	
9	0	0	0	0	329	776	0	471	0	0	
10	0	0	0	0	537	628	0	540	0	0	
11	0	0	0	0	758	470	0	606	0	0	
12	0	0	0	0	961	316	0	661	0	0	
13	0	0	0	0	1021	186	0	702	0	0	
14	0	0	0	0	1021	90	0	724	0	0	
15	0	0	0	0	1021	35	0	725	0	0	
0	0	0	0	0	1021	28	0	705	0	0	
1	0	0	0	0	960	70	0	667	0	0	
2	0	0	0	0	858	158	0	611	0	0	
3	0	0	0	0	729	283	0	546	0	0	
4	0	0	0	0	578	432	0	476	0	0	
5	0	0	0	0	414	591	0	410	0	0	
6	0	0	0	0	250	744	0	353	0	0	
7	0	0	0	0	104	874	0	311	0	0	
8	0	0	0	0	0	970	0	287	0	0	
9	0	0	0	0	0	1021	0	283	0	0	
10	0	0	0	0	0	1021	0	301	0	0	
11	0	0	0	0	30	982	0	339	0	0	
12	0	0	0	0	144	895	0	394	0	0	
13	0	0	0	0	312	770	0	459	0	0	
14	0	0	0	0	518	620	0	529	0	0	
15	0	0	0	0	737	461	0	596	0	0	
0	0	0	0	0	940	307	0	653	0	0	
1	0	0	0	0	1021	176	0	696	0	0	
2	0	0	0	0	1021	80	0	720	0	0	
3	0	0	0	0	1021	26	0	724	0	0	
4	0	0	0	0	1021	20	0	706	0	0	
5	0	0	0	0	959	63	0	669	0	0	
6	0	0	0	0	856	153	0	615	0	0	
7	0	0	0	0	726	280	0	550	0	0	
8	0	0	0	0	575	433	0	481	0	0	
9	0	0	0	0	411	595	0	414	0	0	
10	0	0	0	0	246	750	0	356	0	0	
11	0	0	0	0	100	882	0	313	0	0	
12	0	0	0	0	0	981	0	289	0	0	
13	0	0	0	0	0	1021	0	285	0	0	
14	0	0	0	0	0	1021	0	302	0	0	
15	0	0	0	0	28	988	0	340	0	0	
0	0	0	0	0	141	902	0	394	0	0	
1	0	0	0	0	308	779	0	458	0	0	
2	0	0	0	0	513	631	0	527	0	0	
3	0	0	0	0	731	471	0	593	0	0	
4	0	0	0	0	935	316	0	650	0	0	
5	0	0	0	0	1021	184	0	692	0	0	
6	0	0	0	0	1021	86	0	716	0	0	
7	0	0	0	0	1021	29	0	718	0	0	
8	0	0	0	0	1021	21	0	700	0	0	
9	0	0	0	0	958	61	0	661	0	0	
10	0	0	0	0	854	147	0	606	0	0	
11	0	0	0	0	725	272	0	541	0	0	
12	0	0	0	0	573	421	0	471	0	0	
13	0	0	0	0	409	581	0	403	0	0	
14	0	0	0	0	246	736	0	346	0	0	
15	0	0	0	0	100	867	0	302	0	0	
0	0	0	0	0	0	966	0	278	0	0	
1	0	0	0	0	0	1021	0	274	0	0	
2	0	0	0	0	0	1021	0	291	0	0	
3	0	0	0	0	29	985	0	328	0	0	
4	0	0	0	0	142	898	0	382	0	0	
5	0	0	0	0	308	775	0	447	0	0	
6	0	0	0	0	512	626	0	516	0	0	
7	0	0	0	0	731	466	0	583	0	0	
8	0	0	0	0	934	311	0	640	0	0	
9	0	0	0	0	1021	179	0	682	0	0	
10	0	0	0	0	1021	81	0	706	0	0	
11	0	0	0	0	1021	24	0	709	0	0	
12	0	0	0	0	1021	16	0	691	0	0	
13	0	0	0	0	958	57	0	653	0	0	
14	0	0	0	0	853	144	0	599	0	0	
15	0	0	0	0	723	270	0	533	0	0	
0	0	0	0	0	571	420	0	463	0	0	
1	0	0	0	0	406	582	0	395	0	0	
2	0	0	0	0	241	737	0	337	0	0	
3	0	0	0	0	94	870	0	293	0	0	
4	0	0	0	0	0	969	0	268	0	0	
5	0	0	0	0	0	1021	0	263	0	0	
6	0	0	0	0	0	1021	0	280	0	0	
7	0	0	0	0	26	988	0	317	0	0	
8	0	0	0	0	138	903	0	371	0	0	
9	0	0	0	0	304	781	0	436	0	0	
10	0	0	0	0	509	632	0	505	0	0	
11	0	0	0	0	728	472	0	573	0	0	
12	0	0	0	0	932	316	0	630	0	0	
13	0	0	0	0	1021	182	0	674	0	0	
14	0	0	0	0	1021	82	0	698	0	0	
15	0	0	0	0	1021	23	0	701	0	0	
0	0	0	0	0	1021	11	0	683	0	0	
1	0	0	0	0	958	48	0	644	0	0	
2	0	0	0	0	855	132	0	590	0	0	
3	0	0	0	0	724	254	0	524	0	0	
4	0	0	0	0	573	403	0	455	0	0	
5	0	0	0	0	409	562	0	389	0	0	
6	0	0	0	0	246	718	0	333	0	0	
7	0	0	0	0	100	851	0	291	0	0	
8	0	0	0	0	0	951	0	267	0	0	
9	0	0	0	0	0	1010	0	264	0	0	
10	0	0	0	0	0	1021	0	283	0	0	
11	0	0	0	0	26	983	0	321	0	0	
12	0	0	0	0	137	898	0	376	0	0	
13	0	0	0	0	302	775	0	441	0	0	
14	0	0	0	0	504	625	0	511	0	0	
15	0	0	0	0	720	463	0	577	0	0	
0	0	0	0	0	923	306	0	634	0	0	
1	0	0	0	0	1021	171	0	676	0	0	
2	0	0	0	0	1021	69	0	699	0	0	
3	0	0	0	0	1021	8	0	701	0	0	
4	0	0	0	0	1021	0	0	681	0	0	
5	0	0	0	0	952	35	0	642	0	0	
6	0	0	0	0	845	119	0	586	0	0	
7	0	0	0	0	711	241	0	519	0	0	
8	0	0	0	0	557	390	0	448	0	0	
9	0	0	0	0	390	551	0	380	0	0	
10	0	0	0	0	225	709	0	322	0	0	
11	0	0	0	0	78	845	0	279	0	0	
12	0	0	0	0	0	948	0	254	0	0	
13	0	0	0	0	0	1009	0	250	0	0	
14	0	0	0	0	0	1021	0	268	0	0	
15	0	0	0	0	22	985	0	307	0	0	
0	0	0	0	0	128	902	0	363	0	0	
1	0	0	0	0	290	779	0	429	0	0	
2	0	0	0	0	489	630	0	500	0	0	
3	0	0	0	0	704	468	0	569	0	0	
4	0	0	0	0	905	310	0	629	0	0	
5	0	0	0	0	1021	174	0	672	0	0	
6	0	0	0	0	1021	71	0	697	0	0	
7	0	0	0	0	1021	8	0	700	0	0	
8	0	0	0	0	1021	0	0	682	0	0	
9	0	0	0	0	948	31	0	642	0	0	
10	0	0	0	0	839	113	0	586	0	0	
11	0	0	0	0	705	233	0	519	0	0	
12	0	0	0	0	551	379	0	446	0	0	
13	0	0	0	0	384	538	0	376	0	0	
14	0	0	0	0	218	693	0	316	0	0	
15	0	0	0	0	71	827	0	270	0	0	
0	0	0	0	0	0	928	0	242	0	0	
1	0	0	0	0	0	987	0	235	0	0	
2	0	0	0	0	0	999	0	250	0	0	
3	0	0	0	0	15	962	0	286	0	0	
4	0	0	0	0	117	878	0	339	0	0	
5	0	0	0	0	273	755	0	404	0	0	
6	0	0	0	0	468	606	0	476	0	0	
7	0	0	0	0	679	445	0	545	0	0	
8	0	0	0	0	878	289	0	607	0	0	
9	0	0	0	0	1021	156	0	653	0	0	
10	0	0	0	0	1021	54	0	680	0	0	
11	0	0	0	0	1021	0	0	688	0	0	
12	0	0	0	0	1021	0	0	672	0	0	
13	0	0	0	0	944	28	0	635	0	0	
14	0	0	0	0	832	109	0	581	0	0	
15	0	0	0	0	695	228	0	515	0	0	
0	0	0	0	0	537	372	0	443	0	0	
1	0	0	0	0	367	529	0	372	0	0	
2	0	0	0	0	199	681	0	311	0	0	
3	0	0	0	0	50	812	0	263	0	0	
4	0	0	0	0	0	911	0	233	0	0	
5	0	0	0	0	0	969	0	223	0	0	
6	0	0	0	0	0	979	0	235	0	0	
7	0	0	0	0	11	941	0	269	0	0	
8	0	0	0	0	109	857	0	320	0	0	
9	0	0	0	0	262	735	0	384	0	0	
10	0	0	0	0	454	587	0	454	0	0	
11	0	0	0	0	663	427	0	523	0	0	
12	0	0	0	0	860	272	0	583	0	0	
13	0	0	0	0	1020	139	0	629	0	0	
14	0	0	0	0	1021	38	0	656	0	0	
15	0	0	0	0	1021	0	0	662	0	0	
0	0	0	0	0	1017	0	0	646	0	0	
1	0	0	0	0	935	21	0	609	0	0	
2	0	0	0	0	819	98	0	555	0	0	
3	0	0	0	0	679	213	0	490	0	0	
4	0	0	0	0	519	354	0	419	0	0	
5	0	0	0	0	347	507	0	351	0	0	
6	0	0	0	0	180	657	0	292	0	0	
7	0	0	0	0	31	788	0	246	0	0	
8	0	0	0	0	0	887	0	218	0	0	
9	0	0	0	0	0	945	0	210	0	0	
10	0	0	0	0	0	957	0	224	0	0	
11	0	0	0	0	9	921	0	259	0	0	
12	0	0	0	0	105	838	0	312	0	0	
13	0	0	0	0	258	719	0	376	0	0	
14	0	0	0	0	448	574	0	446	0	0	
15	0	0	0	0	656	417	0	514	0	0	
0	0	0	0	0	854	265	0	574	0	0	
1	0	0	0	0	1013	135	0	618	0	0	
2	0	0	0	0	1021	35	0	644	0	0	
3	0	0	0	0	1021	0	0	647	0	0	
4	0	0	0	0	1015	0	0	630	0	0	
5	0	0	0	0	929	19	0	591	0	0	
6	0	0	0	0	812	94	0	535	0	0	
7	0	0	0	0	668	207	0	468	0	0	
8	0	0	0	0	505	345	0	397	0	0	
9	0	0	0	0	332	495	0	328	0	0	
10	0	0	0	0	164	643	0	268	0	0	
11	0	0	0	0	15	772	0	222	0	0	
12	0	0	0	0	0	869	0	194	0	0	
13	0	0	0	0	0	926	0	185	0	0	
14	0	0	0	0	0	936	0	199	0	0	
15	0	0	0	0	5	899	0	234	0	0	
0	0	0	0	0	98	817	0	287	0	0	
1	0	0	0	0	245	697	0	352	0	0	
2	0	0	0	0	432	552	0	423	0	0	
3	0	0	0	0	635	396	0	494	0	0	
4	0	0	0	0	830	246	0	556	0	0	
5	0	0	0	0	989	116	0	604	0	0	
6	0	0	0	0	1021	19	0	633	0	0	
7	0	0	0	0	1021	0	0	640	0	0	
8	0	0	0	0	1011	0	0	624	0	0	
9	0	0	0	0	925	17	0	588	0	0	
10	0	0	0	0	804	91	0	534	0	0	
11	0	0	0	0	659	201	0	468	0	0	
12	0	0	0	0	495	337	0	397	0	0	
13	0	0	0	0	320	486	0	328	0	0	
14	0	0	0	0	151	632	0	267	0	0	
15	0	0	0	0	2	759	0	219	0	0	
0	0	0	0	0	0	854	0	190	0	0	
1	0	0	0	0	0	911	0	180	0	0	
2	0	0	0	0	0	921	0	194	0	0	
3	0	0	0	0	4	885	0	229	0	0	
4	0	0	0	0	97	804	0	281	0	0	
5	0	0	0	0	245	686	0	347	0	0	
6	0	0	0	0	433	544	0	419	0	0	
7	0	0	0	0	639	390	0	491	0	0	
8	0	0	0	0	836	242	0	555	0	0	
9	0	0	0	0	998	115	0	604	0	0	
10	0	0	0	0	1021	19	0	635	0	0	
11	0	0	0	0	1021	0	0	643	0	0	
12	0	0	0	0	1016	0	0	630	0	0	
13	0	0	0	0	933	19	0	595	0	0	
14	0	0	0	0	815	95	0	543	0	0	
15	0	0	0	0	670	208	0	478	0	0	
0	0	0	0	0	507	347	0	408	0	0	
1	0	0	0	0	332	498	0	340	0	0	
2	0	0	0	0	162	647	0	281	0	0	
3	0	0	0	0	12	777	0	235	0	0	
4	0	0	0	0	0	876	0	206	0	0	
5	0	0	0	0	0	936	0	198	0	0	
6	0	0	0	0	0	950	0	212	0	0	
7	0	0	0	0	6	916	0	248	0	0	
8	0	0	0	0	103	837	0	302	0	0	
9	0	0	0	0	255	721	0	369	0	0	
10	0	0	0	0	448	580	0	443	0	0	
11	0	0	0	0	660	428	0	517	0	0	
12	0	0	0	0	863	279	0	583	0	0	
13	0	0	0	0	1021	152	0	634	0	0	
14	0	0	0	0	1021	56	0	667	0	0	
15	0	0	0	0	1021	0	0	678	0	0	
0	0	0	0	0	1021	0	0	667	0	0	
1	0	0	0	0	954	33	0	635	0	0	
2	0	0	0	0	846	115	0	585	0	0	
3	0	0	0	0	711	235	0	523	0	0	
4	0	0	0	0	556	381	0	454	0	0	
5	0	0	0	0	389	539	0	387	0	0	
6	0	0	0	0	222	693	0	329	0	0	
7	0	0	0	0	72	827	0	284	0	0	
8	0	0	0	0	0	928	0	255	0	0	
9	0	0	0	0	0	990	0	248	0	0	
10	0	0	0	0	0	1004	0	261	0	0	
11	0	0	0	0	13	970	0	296	0	0	
12	0	0	0	0	115	889	0	349	0	0	
13	0	0	0	0	273	771	0	414	0	0	
14	0	0	0	0	472	625	0	486	0	0	
15	0	0	0	0	688	468	0	557	0	0	
0	0	0	0	0	896	314	0	620	0	0	
1	0	0	0	0	1021	181	0	668	0	0	
2	0	0	0	0	1021	80	0	699	0	0	
3	0	0	0	0	1021	20	0	708	0	0	
4	0	0	0	0	1021	6	0	696	0	0	
5	0	0	0	0	968	41	0	662	0	0	
6	0	0	0	0	868	123	0	611	0	0	
7	0	0	0	0	740	243	0	548	0	0	
8	0	0	0	0	590	391	0	479	0	0	
9	0	0	0	0	426	551	0	411	0	0	
10	0	0	0	0	260	708	0	351	0	0	
11	0	0	0	0	111	845	0	305	0	0	
12	0	0	0	0	0	949	0	278	0	0	
13	0	0	0	0	0	1014	0	271	0	0	
14	0	0	0	0	0	1021	0	285	0	0	
15	0	0	0	0	16	994	0	321	0	0	
0	0	0	0	0	119	916	0	374	0	0	
1	0	0	0	0	280	799	0	440	0	0	
2	0	0	0	0	481	655	0	511	0	0	
3	0	0	0	0	701	498	0	582	0	0	
4	0	0	0	0	911	342	0	643	0	0	
5	0	0	0	0	1021	207	0	691	0	0	
6	0	0	0	0	1021	105	0	719	0	0	
7	0	0	0	0	1021	42	0	728	0	0	
8	0	0	0	0	1021	27	0	714	0	0	
9	0	0	0	0	979	60	0	680	0	0	
10	0	0	0	0	883	140	0	628	0	0	
11	0	0	0	0	761	259	0	563	0	0	
12	0	0	0	0	614	405	0	494	0	0	
13	0	0	0	0	452	564	0	425	0	0	
14	0	0	0	0	287	720	0	364	0	0	
15	0	0	0	0	136	856	0	318	0	0	
0	0	0	0	0	14	960	0	289	0	0	
1	0	0	0	0	0	1021	0	282	0	0	
2	0	0	0	0	0	1021	0	295	0	0	
3	0	0	0	0	14	999	0	330	0	0	
4	0	0	0	0	115	921	0	382	0	0	
5	0	0	0	0	273	805	0	447	0	0	
6	0	0	0	0	472	661	0	516	0	0	
7	0	0	0	0	691	504	0	584	0	0	
8	0	0	0	0	900	348	0	644	0	0	
9	0	0	0	0	1021	211	0	689	0	0	
10	0	0	0	0	1021	108	0	718	0	0	
11	0	0	0	0	1021	44	0	726	0	0	
12	0	0	0	0	1021	27	0	712	0	0	
13	0	0	0	0	977	59	0	678	0	0	
14	0	0	0	0	881	137	0	626	0	0	
15	0	0	0	0	758	256	0	562	0	0	
0	0	0	0	0	612	402	0	492	0	0	
1	0	0	0	0	451	561	0	424	0	0	
2	0	0	0	0	287	718	0	364	0	0	
3	0	0	0	0	138	854	0	319	0	0	
4	0	0	0	0	17	961	0	290	0	0	
5	0	0	0	0	0	1020	0	282	0	0	
6	0	0	0	0	0	1021	0	296	0	0	
7	0	0	0	0	18	1001	0	331	0	0	
8	0	0	0	0	121	925	0	383	0	0	
9	0	0	0	0	282	811	0	448	0	0	
10	0	0	0	0	485	668	0	518	0	0	
11	0	0	0	0	705	510	0	587	0	0	
12	0	0	0	0	916	354	0	647	0	0	
13	0	0	0	0	1021	217	0	692	0	0	
14	0	0	0	0	1021	112	0	720	0	0	
15	0	0	0	0	1021	47	0	728	0	0	
0	0	0	0	0	1021	28	0	713	0	0	
1	0	0	0	0	982	58	0	678	0	0	
2	0	0	0	0	890	136	0	625	0	0	
3	0	0	0	0	770	252	0	560	0	0	
4	0	0	0	0	629	398	0	490	0	0	
5	0	0	0	0	473	556	0	421	0	0	
6	0	0	0	0	312	713	0	360	0	0	
7	0	0	0	0	165	850	0	313	0	0	
8	0	0	0	0	44	955	0	285	0	0	
9	0	0	0	0	0	1020	0	277	0	0	
10	0	0	0	0	0	1021	0	290	0	0	
11	0	0	0	0	21	1000	0	325	0	0	
12	0	0	0	0	125	925	0	377	0	0	
13	0	0	0	0	286	810	0	442	0	0	
14	0	0	0	0	489	667	0	512	0	0	
15	0	0	0	0	711	510	0	582	0	0	
0	0	0	0	0	922	354	0	644	0	0	
1	0	0	0	0	1021	216	0	691	0	0	
2	0	0	0	0	1021	111	0	720	0	0	
3	0	0	0	0	1021	45	0	728	0	0	
4	0	0	0	0	1021	25	0	714	0	0	
5	0	0	0	0	982	54	0	679	0	0	
6	0	0	0	0	888	130	0	626	0	0	
7	0	0	0	0	764	246	0	560	0	0	
8	0	0	0	0	617	390	0	489	0	0	
9	0	0	0	0	455	547	0	418	0	0	
10	0	0	0	0	288	703	0	355	0	0	
11	0	0	0	0	135	840	0	307	0	0	
12	0	0	0	0	10	946	0	276	0	0	
13	0	0	0	0	0	1012	0	266	0	0	
14	0	0	0	0	0	1021	0	278	0	0	
15	0	0	0	0	9	998	0	312	0	0	
0	0	0	0	0	106	922	0	363	0	0	
1	0	0	0	0	261	807	0	428	0	0	
2	0	0	0	0	459	664	0	499	0	0	
3	0	0	0	0	678	507	0	570	0	0	
4	0	0	0	0	888	350	0	632	0	0	
5	0	0	0	0	1021	212	0	680	0	0	
6	0	0	0	0	1021	106	0	710	0	0	
7	0	0	0	0	1021	40	0	720	0	0	
8	0	0	0	0	1021	20	0	707	0	0	
9	0	0	0	0	982	49	0	674	0	0	
10	0	0	0	0	888	125	0	622	0	0	
11	0	0	0	0	766	240	0	558	0	0	
12	0	0	0	0	623	384	0	487	0	0	
13	0	0	0	0	463	542	0	416	0	0	
14	0	0	0	0	300	699	0	353	0	0	
15	0	0	0	0	149	835	0	304	0	0	
0	0	0	0	0	26	940	0	272	0	0	
1	0	0	0	0	0	1006	0	260	0	0	
2	0	0	0	0	0	1021	0	271	0	0	
3	0	0	0	0	13	994	0	303	0	0	
4	0	0	0	0	113	917	0	353	0	0	
5	0	0	0	0	271	800	0	416	0	0	
6	0	0	0	0	472	656	0	487	0	0	
7	0	0	0	0	693	497	0	557	0	0	
8	0	0	0	0	907	340	0	620	0	0	
9	0	0	0	0	1021	202	0	670	0	0	
10	0	0	0	0	1021	95	0	700	0	0	
11	0	0	0	0	1021	29	0	711	0	0	
12	0	0	0	0	1021	9	0	700	0	0	
13	0	0	0	0	986	38	0	668	0	0	
14	0	0	0	0	892	114	0	617	0	0	
15	0	0	0	0	770	230	0	553	0	0	
0	0	0	0	0	624	374	0	483	0	0	
1	0	0	0	0	462	533	0	414	0	0	
2	0	0	0	0	293	690	0	352	0	0	
3	0	0	0	0	138	828	0	303	0	0	
4	0	0	0	0	10	935	0	271	0	0	
5	0	0	0	0	0	1003	0	260	0	0	
6	0	0	0	0	0	1021	0	271	0	0	
7	0	0	0	0	3	994	0	303	0	0	
8	0	0	0	0	95	918	0	353	0	0	
9	0	0	0	0	244	802	0	416	0	0	
10	0	0	0	0	438	657	0	486	0	0	
11	0	0	0	0	653	498	0	555	0	0	
12	0	0	0	0	863	340	0	618	0	0	
13	0	0	0	0	1021	201	0	667	0	0	
14	0	0	0	0	1021	93	0	698	0	0	
15	0	0	0	0	1021	25	0	708	0	0	
0	0	0	0	0	1021	5	0	698	0	0	
1	0	0	0	0	982	33	0	666	0	0	
2	0	0	0	0	888	108	0	616	0	0	
3	0	0	0	0	767	225	0	553	0	0	
4	0	0	0	0	622	370	0	484	0	0	
5	0	0	0	0	463	529	0	415	0	0	
6	0	0	0	0	298	688	0	353	0	0	
7	0	0	0	0	147	827	0	305	0	0	
8	0	0	0	0	23	935	0	273	0	0	
9	0	0	0	0	0	1004	0	262	0	0	
10	0	0	0	0	0	1021	0	272	0	0	
11	0	0	0	0	9	995	0	303	0	0	
12	0	0	0	0	104	920	0	352	0	0	
13	0	0	0	0	259	803	0	415	0	0	
14	0	0	0	0	456	657	0	483	0	0	
15	0	0	0	0	675	498	0	553	0	0	
0	0	0	0	0	887	338	0	615	0	0	
1	0	0	0	0	1021	198	0	664	0	0	
2	0	0	0	0	1021	89	0	695	0	0	
3	0	0	0	0	1021	20	0	706	0	0	
4	0	0	0	0	1021	0	0	696	0	0	
5	0	0	0	0	984	26	0	664	0	0	
6	0	0	0	0	889	100	0	614	0	0	
7	0	0	0	0	766	216	0	551	0	0	
8	0	0	0	0	621	361	0	481	0	0	
9	0	0	0	0	460	522	0	412	0	0	
10	0	0	0	0	294	682	0	350	0	0	
11	0	0	0	0	141	823	0	302	0	0	
12	0	0	0	0	16	934	0	271	0	0	
13	0	0	0	0	0	1005	0	261	0	0	
14	0	0	0	0	0	1021	0	271	0	0	
15	0	0	0	0	7	1000	0	304	0	0	
0	0	0	0	0	102	927	0	354	0	0	
1	0	0	0	0	255	813	0	418	0	0	
2	0	0	0	0	452	670	0	488	0	0	
3	0	0	0	0	670	511	0	559	0	0	
4	0	0	0	0	883	351	0	622	0	0	
5	0	0	0	0	1021	210	0	671	0	0	
6	0	0	0	0	1021	99	0	701	0	0	
7	0	0	0	0	1021	28	0	712	0	0	
8	0	0	0	0	1021	3	0	700	0	0	
9	0	0	0	0	984	28	0	668	0	0	
10	0	0	0	0	889	100	0	617	0	0	
11	0	0	0	0	768	213	0	553	0	0	
12	0	0	0	0	624	355	0	483	0	0	
13	0	0	0	0	464	513	0	413	0	0	
14	0	0	0	0	299	670	0	351	0	0	
15	0	0	0	0	148	811	0	302	0	0	
0	0	0	0	0	23	921	0	270	0	0	
1	0	0	0	0	0	991	0	259	0	0	
2	0	0	0	0	0	1016	0	269	0	0	
3	0	0	0	0	7	991	0	301	0	0	
4	0	0	0	0	102	918	0	351	0	0	
5	0	0	0	0	254	803	0	414	0	0	
6	0	0	0	0	450	660	0	484	0	0	
7	0	0	0	0	668	502	0	554	0	0	
8	0	0	0	0	880	343	0	616	0	0	
9	0	0	0	0	1021	202	0	665	0	0	
10	0	0	0	0	1021	92	0	696	0	0	
11	0	0	0	0	1021	22	0	707	0	0	
12	0	0	0	0	1021	0	0	696	0	0	
13	0	0	0	0	984	22	0	663	0	0	
14	0	0	0	0	891	94	0	611	0	0	
15	0	0	0	0	770	207	0	547	0	0	
0	0	0	0	0	626	348	0	476	0	0	
1	0	0	0	0	467	505	0	406	0	0	
2	0	0	0	0	303	663	0	344	0	0	
3	0	0	0	0	152	803	0	294	0	0	
4	0	0	0	0	27	912	0	262	0	0	
5	0	0	0	0	0	983	0	250	0	0	
6	0	0	0	0	0	1007	0	260	0	0	
7	0	0	0	0	7	982	0	292	0	0	
8	0	0	0	0	99	910	0	343	0	0	
9	0	0	0	0	251	797	0	407	0	0	
10	0	0	0	0	446	655	0	479	0	0	
11	0	0	0	0	664	498	0	551	0	0	
12	0	0	0	0	876	340	0	617	0	0	
13	0	0	0	0	1021	201	0	668	0	0	
14	0	0	0	0	1021	92	0	702	0	0	
15	0	0	0	0	1021	22	0	715	0	0	
0	0	0	0	0	1021	0	0	704	0	0	
1	0	0	0	0	985	23	0	673	0	0	
2	0	0	0	0	892	95	0	623	0	0	
3	0	0	0	0	772	209	0	560	0	0	
4	0	0	0	0	629	352	0	489	0	0	
5	0	0	0	0	471	510	0	418	0	0	
6	0	0	0	0	307	669	0	354	0	0	
7	0	0	0	0	156	811	0	303	0	0	
8	0	0	0	0	31	923	0	270	0	0	
9	0	0	0	0	0	995	0	256	0	0	
10	0	0	0	0	0	1020	0	265	0	0	
11	0	0	0	0	6	996	0	294	0	0	
12	0	0	0	0	98	924	0	342	0	0	
13	0	0	0	0	248	810	0	403	0	0	
14	0	0	0	0	441	666	0	472	0	0	
15	0	0	0	0	655	506	0	541	0	0	
0	0	0	0	0	866	344	0	604	0	0	
1	0	0	0	0	1021	201	0	652	0	0	
2	0	0	0	0	1021	88	0	684	0	0	
3	0	0	0	0	1021	15	0	696	0	0	
4	0	0	0	0	1021	0	0	687	0	0	
5	0	0	0	0	980	15	0	655	0	0	
6	0	0	0	0	884	85	0	607	0	0	
7	0	0	0	0	762	196	0	546	0	0	
8	0	0	0	0	619	338	0	478	0	0	
9	0	0	0	0	460	497	0	409	0	0	
10	0	0	0	0	298	656	0	348	0	0	
11	0	0	0	0	150	799	0	300	0	0	
12	0	0	0	0	27	912	0	268	0	0	
13	0	0	0	0	0	987	0	257	0	0	
14	0	0	0	0	0	1015	0	267	0	0	
15	0	0	0	0	8	993	0	297	0	0	
0	0	0	0	0	101	924	0	347	0	0	
1	0	0	0	0	253	813	0	410	0	0	
2	0	0	0	0	449	671	0	480	0	0	
3	0	0	0	0	666	513	0	550	0	0	
4	0	0	0	0	878	354	0	613	0	0	
5	0	0	0	0	1021	212	0	664	0	0	
6	0	0	0	0	1021	100	0	696	0	0	
7	0	0	0	0	1021	27	0	708	0	0	
8	0	0	0	0	1021	0	0	698	0	0	
9	0	0	0	0	986	22	0	668	0	0	
10	0	0	0	0	892	92	0	619	0	0	
11	0	0	0	0	772	203	0	556	0	0	
12	0	0	0	0	628	344	0	486	0	0	
13	0	0	0	0	468	501	0	415	0	0	
14	0	0	0	0	302	659	0	352	0	0	
15	0	0	0	0	149	800	0	300	0	0	
0	0	0	0	0	22	912	0	266	0	0	
1	0	0	0	0	0	984	0	252	0	0	
2	0	0	0	0	0	1011	0	259	0	0	
3	0	0	0	0	1	989	0	288	0	0	
4	0	0	0	0	89	918	0	335	0	0	
5	0	0	0	0	236	807	0	396	0	0	
6	0	0	0	0	428	665	0	465	0	0	
7	0	0	0	0	644	507	0	534	0	0	
8	0	0	0	0	857	348	0	598	0	0	
9	0	0	0	0	1020	206	0	648	0	0	
10	0	0	0	0	1021	95	0	682	0	0	
11	0	0	0	0	1021	22	0	695	0	0	
12	0	0	0	0	1021	0	0	688	0	0	
13	0	0	0	0	988	19	0	659	0	0	
14	0	0	0	0	894	89	0	611	0	0	
15	0	0	0	0	774	200	0	551	0	0	
0	0	0	0	0	631	342	0	482	0	0	
1	0	0	0	0	471	500	0	414	0	0	
2	0	0	0	0	306	660	0	352	0	0	
3	0	0	0	0	152	803	0	303	0	0	
4	0	0	0	0	24	915	0	270	0	0	
5	0	0	0	0	0	990	0	256	0	0	
6	0	0	0	0	0	1017	0	264	0	0	
7	0	0	0	0	0	996	0	293	0	0	
8	0	0	0	0	88	926	0	340	0	0	
9	0	0	0	0	236	815	0	401	0	0	
10	0	0	0	0	429	673	0	470	0	0	
11	0	0	0	0	645	515	0	540	0	0	
12	0	0	0	0	859	355	0	602	0	0	
13	0	0	0	0	1021	211	0	652	0	0	
14	0	0	0	0	1021	98	0	684	0	0	
15	0	0	0	0	1021	23	0	696	0	0	
0	0	0	0	0	1021	0	0	687	0	0	
1	0	0	0	0	988	16	0	656	0	0	
2	0	0	0	0	895	84	0	608	0	0	
3	0	0	0	0	773	195	0	546	0	0	
4	0	0	0	0	627	336	0	478	0	0	
5	0	0	0	0	466	494	0	409	0	0	
6	0	0	0	0	298	654	0	347	0	0	
7	0	0	0	0	142	798	0	298	0	0	
8	0	0	0	0	12	911	0	266	0	0	
9	0	0	0	0	0	987	0	252	0	0	
10	0	0	0	0	0	1016	0	261	0	0	
11	0	0	0	0	0	995	0	290	0	0	
12	0	0	0	0	78	925	0	337	0	0	
13	0	0	0	0	221	814	0	398	0	0	
14	0	0	0	0	409	672	0	466	0	0	
15	0	0	0	0	622	514	0	536	0	0	
0	0	0	0	0	834	353	0	598	0	0	
1	0	0	0	0	1013	210	0	647	0	0	
2	0	0	0	0	1021	97	0	680	0	0	
3	0	0	0	0	1021	23	0	693	0	0	
4	0	0	0	0	1021	0	0	685	0	0	
5	0	0	0	0	986	17	0	655	0	0	
6	0	0	0	0	891	85	0	608	0	0	
7	0	0	0	0	768	196	0	547	0	0	
8	0	0	0	0	622	337	0	479	0	0	
9	0	0	0	0	460	496	0	411	0	0	
10	0	0	0	0	291	656	0	350	0	0	
11	0	0	0	0	136	800	0	300	0	0	
12	0	0	0	0	6	914	0	267	0	0	
13	0	0	0	0	0	989	0	254	0	0	
14	0	0	0	0	0	1018	0	261	0	0	
15	0	0	0	0	0	997	0	290	0	0	
0	0	0	0	0	78	927	0	336	0	0	
1	0	0	0	0	221	816	0	396	0	0	
2	0	0	0	0	409	673	0	464	0	0	
3	0	0	0	0	623	514	0	532	0	0	
4	0	0	0	0	835	352	0	594	0	0	
5	0	0	0	0	1016	207	0	644	0	0	
6	0	0	0	0	1021	93	0	676	0	0	
7	0	0	0	0	1021	17	0	689	0	0	
8	0	0	0	0	1021	0	0	681	0	0	
9	0	0	0	0	987	12	0	652	0	0	
10	0	0	0	0	892	79	0	604	0	0	
11	0	0	0	0	768	187	0	543	0	0	
12	0	0	0	0	623	327	0	476	0	0	
13	0	0	0	0	461	484	0	408	0	0	
14	0	0	0	0	294	643	0	346	0	0	
15	0	0	0	0	139	788	0	298	0	0	
0	0	0	0	0	10	903	0	265	0	0	
1	0	0	0	0	0	981	0	252	0	0	
2	0	0	0	0	0	1012	0	261	0	0	
3	0	0	0	0	0	995	0	291	0	0	
4	0	0	0	0	79	929	0	338	0	0	
5	0	0	0	0	222	821	0	399	0	0	
6	0	0	0	0	410	682	0	468	0	0	
7	0	0	0	0	623	524	0	538	0	0	
8	0	0	0	0	836	365	0	601	0	0	
9	0	0	0	0	1017	221	0	651	0	0	
10	0	0	0	0	1021	105	0	683	0	0	
11	0	0	0	0	1021	29	0	696	0	0	
12	0	0	0	0	1021	0	0	686	0	0	
13	0	0	0	0	988	16	0	656	0	0	
14	0	0	0	0	894	81	0	607	0	0	
15	0	0	0	0	773	190	0	545	0	0	
0	0	0	0	0	629	329	0	476	0	0	
1	0	0	0	0	470	486	0	406	0	0	
2	0	0	0	0	305	645	0	344	0	0	
3	0	0	0	0	151	790	0	293	0	0	
4	0	0	0	0	22	905	0	259	0	0	
5	0	0	0	0	0	983	0	246	0	0	
6	0	0	0	0	0	1014	0	254	0	0	
7	0	0	0	0	0	996	0	283	0	0	
8	0	0	0	0	78	930	0	331	0	0	
9	0	0	0	0	219	822	0	393	0	0	
10	0	0	0	0	406	683	0	464	0	0	
11	0	0	0	0	617	525	0	535	0	0	
12	0	0	0	0	828	364	0	599	0	0	
13	0	0	0	0	1009	219	0	651	0	0	
14	0	0	0	0	1021	104	0	684	0	0	
15	0	0	0	0	1021	26	0	697	0	0	
0	0	0	0	0	1021	0	0	688	0	0	
1	0	0	0	0	984	13	0	656	0	0	
2	0	0	0	0	887	76	0	607	0	0	
3	0	0	0	0	763	183	0	542	0	0	
4	0	0	0	0	616	320	0	471	0	0	
5	0	0	0	0	454	477	0	399	0	0	
6	0	0	0	0	286	635	0	335	0	0	
7	0	0	0	0	131	780	0	283	0	0	
8	0	0	0	0	2	896	0	248	0	0	
9	0	0	0	0	0	974	0	233	0	0	
10	0	0	0	0	0	1008	0	241	0	0	
11	0	0	0	0	0	992	0	270	0	0	
12	0	0	0	0	76	928	0	318	0	0	
13	0	0	0	0	219	822	0	381	0	0	
14	0	0	0	0	407	684	0	452	0	0	
15	0	0	0	0	621	527	0	524	0	0	
0	0	0	0	0	835	367	0	590	0	0	
1	0	0	0	0	1017	222	0	642	0	0	
2	0	0	0	0	1021	106	0	676	0	0	
3	0	0	0	0	1021	28	0	691	0	0	
4	0	0	0	0	1021	0	0	682	0	0	
5	0	0	0	0	989	11	0	652	0	0	
6	0	0	0	0	894	71	0	603	0	0	
7	0	0	0	0	772	176	0	540	0	0	
8	0	0	0	0	627	311	0	469	0	0	
9	0	0	0	0	466	465	0	398	0	0	
10	0	0	0	0	300	622	0	333	0	0	
11	0	0	0	0	145	766	0	282	0	0	
12	0	0	0	0	15	881	0	247	0	0	
13	0	0	0	0	0	959	0	231	0	0	
14	0	0	0	0	0	992	0	238	0	0	
15	0	0	0	0	0	977	0	268	0	0	
0	0	0	0	0	72	913	0	315	0	0	
1	0	0	0	0	211	807	0	377	0	0	
2	0	0	0	0	397	670	0	449	0	0	
3	0	0	0	0	609	515	0	521	0	0	
4	0	0	0	0	822	357	0	588	0	0	
5	0	0	0	0	1006	215	0	641	0	0	
6	0	0	0	0	1021	101	0	678	0	0	
7	0	0	0	0	1021	25	0	693	0	0	
8	0	0	0	0	1021	0	0	687	0	0	
9	0	0	0	0	991	14	0	658	0	0	
10	0	0	0	0	899	79	0	611	0	0	
11	0	0	0	0	780	187	0	550	0	0	
12	0	0	0	0	639	326	0	480	0	0	
13	0	0	0	0	481	484	0	410	0	0	
14	0	0	0	0	318	644	0	346	0	0	
15	0	0	0	0	166	791	0	294	0	0	
0	0	0	0	0	37	908	0	258	0	0	
1	0	0	0	0	0	987	0	242	0	0	
2	0	0	0	0	0	1020	0	247	0	0	
3	0	0	0	0	0	1003	0	273	0	0	
4	0	0	0	0	76	937	0	318	0	0	
5	0	0	0	0	217	828	0	377	0	0	
6	0	0	0	0	404	686	0	444	0	0	
7	0	0	0	0	616	526	0	513	0	0	
8	0	0	0	0	829	362	0	577	0	0	
9	0	0	0	0	1011	214	0	628	0	0	
10	0	0	0	0	1021	94	0	662	0	0	
11	0	0	0	0	1021	14	0	676	0	0	
12	0	0	0	0	1021	0	0	670	0	0	
13	0	0	0	0	987	5	0	642	0	0	
14	0	0	0	0	891	66	0	596	0	0	
15	0	0	0	0	766	170	0	537	0	0	
0	0	0	0	0	620	307	0	470	0	0	
1	0	0	0	0	457	463	0	403	0	0	
2	0	0	0	0	289	622	0	340	0	0	
3	0	0	0	0	134	768	0	291	0	0	
4	0	0	0	0	3	887	0	256	0	0	
5	0	0	0	0	0	969	0	241	0	0	
6	0	0	0	0	0	1005	0	247	0	0	
7	0	0	0	0	0	992	0	275	0	0	
8	0	0	0	0	69	931	0	321	0	0	
9	0	0	0	0	206	827	0	382	0	0	
10	0	0	0	0	391	689	0	451	0	0	
11	0	0	0	0	603	534	0	520	0	0	
12	0	0	0	0	817	374	0	585	0	0	
13	0	0	0	0	1003	227	0	638	0	0	
14	0	0	0	0	1021	110	0	673	0	0	
15	0	0	0	0	1021	29	0	688	0	0	
0	0	0	0	0	1021	0	0	681	0	0	
1	0	0	0	0	997	10	0	654	0	0	
2	0	0	0	0	908	70	0	607	0	0	
3	0	0	0	0	792	174	0	546	0	0	
4	0	0	0	0	653	308	0	477	0	0	
5	0	0	0	0	498	463	0	407	0	0	
6	0	0	0	0	335	621	0	343	0	0	
7	0	0	0	0	180	766	0	290	0	0	
8	0	0	0	0	49	882	0	253	0	0	
9	0	0	0	0	0	961	0	236	0	0	
10	0	0	0	0	0	996	0	240	0	0	
11	0	0	0	0	0	982	0	267	0	0	
12	0	0	0	0	69	919	0	312	0	0	
13	0	0	0	0	206	815	0	372	0	0	
14	0	0	0	0	390	678	0	441	0	0	
15	0	0	0	0	601	522	0	513	0	0	
0	0	0	0	0	815	363	0	579	0	0	
1	0	0	0	0	999	219	0	633	0	0	
2	0	0	0	0	1021	103	0	671	0	0	
3	0	0	0	0	1021	23	0	688	0	0	
4	0	0	0	0	1021	0	0	684	0	0	
5	0	0	0	0	994	8	0	658	0	0	
6	0	0	0	0	902	70	0	613	0	0	
7	0	0	0	0	783	174	0	553	0	0	
8	0	0	0	0	640	310	0	484	0	0	
9	0	0	0	0	481	466	0	415	0	0	
10	0	0	0	0	316	625	0	350	0	0	
11	0	0	0	0	161	772	0	298	0	0	
12	0	0	0	0	29	891	0	262	0	0	
13	0	0	0	0	0	973	0	244	0	0	
14	0	0	0	0	0	1009	0	249	0	0	
15	0	0	0	0	0	998	0	275	0	0	
0	0	0	0	0	70	936	0	320	0	0	
1	0	0	0	0	208	832	0	380	0	0	
2	0	0	0	0	394	695	0	448	0	0	
3	0	0	0	0	607	537	0	519	0	0	
4	0	0	0	0	822	375	0	583	0	0	
5	0	0	0	0	1008	226	0	636	0	0	
6	0	0	0	0	1021	104	0	671	0	0	
7	0	0	0	0	1021	19	0	686	0	0	
8	0	0	0	0	1021	0	0	679	0	0	
9	0	0	0	0	994	1	0	650	0	0	
10	0	0	0	0	901	56	0	602	0	0	
11	0	0	0	0	780	155	0	540	0	0	
12	0	0	0	0	635	286	0	470	0	0	
13	0	0	0	0	474	438	0	399	0	0	
14	0	0	0	0	306	594	0	334	0	0	
15	0	0	0	0	147	739	0	280	0	0	
0	0	0	0	0	13	858	0	243	0	0	
1	0	0	0	0	0	940	0	225	0	0	
2	0	0	0	0	0	978	0	229	0	0	
3	0	0	0	0	0	968	0	254	0	0	
4	0	0	0	0	57	909	0	298	0	0	
5	0	0	0	0	190	808	0	357	0	0	
6	0	0	0	0	370	674	0	427	0	0	
7	0	0	0	0	579	520	0	497	0	0	
8	0	0	0	0	792	363	0	563	0	0	
9	0	0	0	0	979	218	0	619	0	0	
10	0	0	0	0	1021	100	0	655	0	0	
11	0	0	0	0	1021	19	0	673	0	0	
12	0	0	0	0	1021	0	0	668	0	0	
13	0	0	0	0	993	3	0	642	0	0	
14	0	0	0	0	899	59	0	595	0	0	
15	0	0	0	0	776	157	0	534	0	0	
0	0	0	0	0	630	287	0	464	0	0	
1	0	0	0	0	467	437	0	392	0	0	
2	0	0	0	0	297	591	0	326	0	0	
3	0	0	0	0	138	734	0	271	0	0	
4	0	0	0	0	3	849	0	231	0	0	
5	0	0	0	0	0	929	0	210	0	0	
6	0	0	0	0	0	965	0	212	0	0	
7	0	0	0	0	0	952	0	236	0	0	
8	0	0	0	0	49	894	0	279	0	0	
9	0	0	0	0	176	791	0	338	0	0	
10	0	0	0	0	351	658	0	408	0	0	
11	0	0	0	0	555	504	0	480	0	0	
12	0	0	0	0	764	348	0	549	0	0	
13	0	0	0	0	948	205	0	606	0	0	
14	0	0	0	0	1021	89	0	646	0	0	
15	0	0	0	0	1021	10	0	666	0	0	
0	0	0	0	0	1021	0	0	664	0	0	
1	0	0	0	0	986	1	0	640	0	0	
2	0	0	0	0	888	57	0	597	0	0	
3	0	0	0	0	763	156	0	538	0	0	
4	0	0	0	0	616	287	0	471	0	0	
5	0	0	0	0	455	438	0	402	0	0	
6	0	0	0	0	288	594	0	338	0	0	
7	0	0	0	0	132	739	0	286	0	0	
8	0	0	0	0	2	858	0	248	0	0	
9	0	0	0	0	0	940	0	230	0	0	
10	0	0	0	0	0	979	0	235	0	0	
11	0	0	0	0	0	971	0	260	0	0	
12	0	0	0	0	61	914	0	305	0	0	
13	0	0	0	0	195	816	0	366	0	0	
14	0	0	0	0	376	683	0	435	0	0	
15	0	0	0	0	585	531	0	508	0	0	
0	0	0	0	0	800	375	0	575	0	0	
1	0	0	0	0	987	230	0	631	0	0	
2	0	0	0	0	1021	113	0	670	0	0	
3	0	0	0	0	1021	31	0	688	0	0	
4	0	0	0	0	1021	0	0	684	0	0	
5	0	0	0	0	997	7	0	658	0	0	
6	0	0	0	0	904	65	0	614	0	0	
7	0	0	0	0	783	165	0	553	0	0	
8	0	0	0	0	639	298	0	484	0	0	
9	0	0	0	0	478	452	0	414	0	0	
10	0	0	0	0	310	609	0	348	0	0	
11	0	0	0	0	151	756	0	295	0	0	
12	0	0	0	0	16	876	0	256	0	0	
13	0	0	0	0	0	959	0	237	0	0	
14	0	0	0	0	0	998	0	240	0	0	
15	0	0	0	0	0	988	0	265	0	0	
0	0	0	0	0	55	930	0	310	0	0	
1	0	0	0	0	185	829	0	370	0	0	
2	0	0	0	0	365	696	0	440	0	0	
3	0	0	0	0	575	542	0	513	0	0	
4	0	0	0	0	791	384	0	583	0	0	
5	0	0	0	0	982	238	0	639	0	0	
6	0	0	0	0	1021	119	0	680	0	0	
7	0	0	0	0	1021	38	0	701	0	0	
8	0	0	0	0	1021	0	0	700	0	0	
9	0	0	0	0	1005	11	0	677	0	0	
10	0	0	0	0	920	68	0	634	0	0	
11	0	0	0	0	806	170	0	575	0	0	
12	0	0	0	0	668	305	0	508	0	0	
13	0	0	0	0	512	459	0	437	0	0	
14	0	0	0	0	347	617	0	371	0	0	
15	0	0	0	0	188	763	0	314	0	0	
0	0	0	0	0	49	880	0	271	0	0	
1	0	0	0	0	0	960	0	247	0	0	
2	0	0	0	0	0	994	0	242	0	0	
3	0	0	0	0	0	978	0	257	0	0	
4	0	0	0	0	39	911	0	290	0	0	
5	0	0	0	0	157	798	0	335	0	0	
6	0	0	0	0	322	651	0	390	0	0	
7	0	0	0	0	516	482	0	445	0	0	
8	0	0	0	0	715	306	0	496	0	0	
9	0	0	0	0	888	142	0	534	0	0	
10	0	0	0	0	1011	4	0	555	0	0	
11	0	0	0	0	1021	0	0	555	0	0	
12	0	0	0	0	1016	0	0	533	0	0	
13	0	0	0	0	928	0	0	490	0	0	
14	0	0	0	0	795	0	0	428	0	0	
15	0	0	0	0	636	31	0	352	0	0	
0	0	0	0	0	460	108	0	270	0	0	
1	0	0	0	0	272	208	0	186	0	0	
2	0	0	0	0	87	319	0	106	0	0	
3	0	0	0	0	0	429	0	37	0	0	
4	0	0	0	0	0	523	0	0	0	0	
5	0	0	0	0	0	590	0	0	0	0	
6	0	0	0	0	0	619	0	0	0	0	
7	0	0	0	0	0	607	0	0	0	0	
8	0	0	0	0	0	552	0	17	0	0	
9	0	0	0	0	38	461	0	56	0	0	
10	0	0	0	0	146	342	0	108	0	0	
11	0	0	0	0	289	208	0	168	0	0	
12	0	0	0	0	447	72	0	229	0	0	
13	0	0	0	0	597	0	0	286	0	0	
14	0	0	0	0	715	0	0	334	0	0	
15	0	0	0	0	780	0	0	368	0	0	
0	0	0	0	0	779	0	0	387	0	0	
1	0	0	0	0	723	0	0	389	0	0	
2	0	0	0	0	636	0	0	375	0	0	
3	0	0	0	0	532	51	0	349	0	0	
4	0	0	0	0	419	143	0	315	0	0	
5	0	0	0	0	301	262	0	280	0	0	
6	0	0	0	0	187	397	0	248	0	0	
7	0	0	0	0	85	534	0	225	0	0	
8	0	0	0	0	5	660	0	216	0	0	
9	0	0	0	0	0	760	0	223	0	0	
10	0	0	0	0	0	825	0	247	0	0	
11	0	0	0	0	38	849	0	290	0	0	
12	0	0	0	0	147	830	0	347	0	0	
13	0	0	0	0	311	771	0	415	0	0	
14	0	0	0	0	515	678	0	489	0	0	
15	0	0	0	0	737	561	0	561	0	0	
0	0	0	0	0	952	435	0	627	0	0	
1	0	0	0	0	1021	314	0	679	0	0	
2	0	0	0	0	1021	211	0	712	0	0	
3	0	0	0	0	1021	138	0	725	0	0	
4	0	0	0	0	1021	100	0	716	0	0	
5	0	0	0	0	1004	103	0	684	0	0	
6	0	0	0	0	915	147	0	633	0	0	
7	0	0	0	0	796	231	0	566	0	0	
8	0	0	0	0	653	344	0	491	0	0	
9	0	0	0	0	493	476	0	415	0	0	
10	0	0	0	0	324	613	0	345	0	0	
11	0	0	0	0	164	741	0	287	0	0	
12	0	0	0	0	25	846	0	247	0	0	
13	0	0	0	0	0	919	0	227	0	0	
14	0	0	0	0	0	952	0	230	0	0	
15	0	0	0	0	0	941	0	255	0	0	
0	0	0	0	0	48	887	0	301	0	0	
1	0	0	0	0	176	793	0	364	0	0	
2	0	0	0	0	354	669	0	437	0	0	
3	0	0	0	0	564	526	0	512	0	0	
4	0	0	0	0	781	379	0	583	0	0	
5	0	0	0	0	974	243	0	642	0	0	
6	0	0	0	0	1021	132	0	683	0	0	
7	0	0	0	0	1021	56	0	704	0	0	
8	0	0	0	0	1021	22	0	703	0	0	
9	0	0	0	0	1008	32	0	679	0	0	
10	0	0	0	0	923	89	0	635	0	0	
11	0	0	0	0	808	188	0	574	0	0	
12	0	0	0	0	670	319	0	505	0	0	
13	0	0	0	0	514	470	0	434	0	0	
14	0	0	0	0	349	625	0	367	0	0	
15	0	0	0	0	191	769	0	312	0	0	
0	0	0	0	0	53	887	0	272	0	0	
1	0	0	0	0	0	969	0	251	0	0	
2	0	0	0	0	0	1008	0	252	0	0	
3	0	0	0	0	0	999	0	275	0	0	
4	0	0	0	0	51	943	0	317	0	0	
5	0	0	0	0	180	843	0	375	0	0	
6	0	0	0	0	361	711	0	443	0	0	
7	0	0	0	0	572	557	0	514	0	0	
8	0	0	0	0	792	398	0	581	0	0	
9	0	0	0	0	987	250	0	637	0	0	
10	0	0	0	0	1021	128	0	675	0	0	
11	0	0	0	0	1021	43	0	695	0	0	
12	0	0	0	0	1021	1	0	693	0	0	
13	0	0	0	0	1012	7	0	670	0	0	
14	0	0	0	0	930	62	0	627	0	0	
15	0	0	0	0	819	162	0	569	0	0	
0	0	0	0	0	685	295	0	502	0	0	
1	0	0	0	0	532	450	0	432	0	0	
2	0	0	0	0	370	611	0	368	0	0	
3	0	0	0	0	213	763	0	314	0	0	
4	0	0	0	0	77	888	0	275	0	0	
5	0	0	0	0	0	977	0	256	0	0	
6	0	0	0	0	0	1020	0	257	0	0	
7	0	0	0	0	0	1016	0	280	0	0	
8	0	0	0	0	52	963	0	321	0	0	
9	0	0	0	0	182	865	0	379	0	0	
10	0	0	0	0	361	733	0	446	0	0	
11	0	0	0	0	572	578	0	515	0	0	
12	0	0	0	0	791	416	0	580	0	0	
13	0	0	0	0	986	263	0	635	0	0	
14	0	0	0	0	1021	136	0	673	0	0	
15	0	0	0	0	1021	46	0	692	0	0	
0	0	0	0	0	1021	0	0	690	0	0	
1	0	0	0	0	1012	2	0	667	0	0	
2	0	0	0	0	928	52	0	624	0	0	
3	0	0	0	0	818	148	0	567	0	0	
4	0	0	0	0	684	279	0	499	0	0	
5	0	0	0	0	531	432	0	430	0	0	
6	0	0	0	0	369	592	0	364	0	0	
7	0	0	0	0	211	743	0	310	0	0	
8	0	0	0	0	75	869	0	270	0	0	
9	0	0	0	0	0	960	0	249	0	0	
10	0	0	0	0	0	1007	0	249	0	0	
11	0	0	0	0	0	1005	0	271	0	0	
12	0	0	0	0	50	954	0	312	0	0	
13	0	0	0	0	178	858	0	368	0	0	
14	0	0	0	0	357	727	0	435	0	0	
15	0	0	0	0	568	574	0	505	0	0	
0	0	0	0	0	787	412	0	571	0	0	
1	0	0	0	0	983	260	0	626	0	0	
2	0	0	0	0	1021	135	0	664	0	0	
3	0	0	0	0	1021	44	0	684	0	0	
4	0	0	0	0	1021	0	0	681	0	0	
5	0	0	0	0	1011	1	0	657	0	0	
6	0	0	0	0	927	49	0	613	0	0	
7	0	0	0	0	815	143	0	554	0	0	
8	0	0	0	0	678	272	0	487	0	0	
9	0	0	0	0	525	424	0	416	0	0	
10	0	0	0	0	362	584	0	351	0	0	
11	0	0	0	0	205	735	0	296	0	0	
12	0	0	0	0	69	862	0	257	0	0	
13	0	0	0	0	0	953	0	237	0	0	
14	0	0	0	0	0	1001	0	239	0	0	
15	0	0	0	0	0	1001	0	261	0	0	
0	0	0	0	0	50	951	0	303	0	0	
1	0	0	0	0	176	856	0	360	0	0	
2	0	0	0	0	352	726	0	428	0	0	
3	0	0	0	0	561	572	0	499	0	0	
4	0	0	0	0	777	411	0	566	0	0	
5	0	0	0	0	970	259	0	622	0	0	
6	0	0	0	0	1021	132	0	661	0	0	
7	0	0	0	0	1021	40	0	681	0	0	
8	0	0	0	0	1021	0	0	680	0	0	
9	0	0	0	0	1008	0	0	657	0	0	
10	0	0	0	0	923	46	0	615	0	0	
11	0	0	0	0	808	138	0	557	0	0	
12	0	0	0	0	671	267	0	490	0	0	
13	0	0	0	0	515	418	0	420	0	0	
14	0	0	0	0	351	578	0	355	0	0	
15	0	0	0	0	194	731	0	300	0	0	
0	0	0	0	0	57	858	0	261	0	0	
1	0	0	0	0	0	951	0	240	0	0	
2	0	0	0	0	0	1000	0	240	0	0	
3	0	0	0	0	0	1001	0	263	0	0	
4	0	0	0	0	48	954	0	303	0	0	
5	0	0	0	0	175	860	0	360	0	0	
6	0	0	0	0	354	731	0	427	0	0	
7	0	0	0	0	566	578	0	497	0	0	
8	0	0	0	0	785	416	0	563	0	0	
9	0	0	0	0	982	263	0	618	0	0	
10	0	0	0	0	1021	134	0	657	0	0	
11	0	0	0	0	1021	40	0	676	0	0	
12	0	0	0	0	1021	0	0	674	0	0	
13	0	0	0	0	1012	0	0	651	0	0	
14	0	0	0	0	928	40	0	608	0	0	
15	0	0	0	0	815	129	0	550	0	0	
0	0	0	0	0	677	255	0	483	0	0	
1	0	0	0	0	521	404	0	414	0	0	
2	0	0	0	0	355	562	0	348	0	0	
3	0	0	0	0	195	712	0	293	0	0	
4	0	0	0	0	54	840	0	253	0	0	
5	0	0	0	0	0	933	0	231	0	0	
6	0	0	0	0	0	983	0	231	0	0	
7	0	0	0	0	0	986	0	252	0	0	
8	0	0	0	0	37	939	0	292	0	0	
9	0	0	0	0	156	847	0	347	0	0	
10	0	0	0	0	329	719	0	414	0	0	
11	0	0	0	0	535	567	0	483	0	0	
12	0	0	0	0	750	407	0	549	0	0	
13	0	0	0	0	946	254	0	605	0	0	
14	0	0	0	0	1021	127	0	644	0	0	
15	0	0	0	0	1021	33	0	665	0	0	
0	0	0	0	0	1021	0	0	664	0	0	
1	0	0	0	0	1008	0	0	641	0	0	
2	0	0	0	0	921	37	0	599	0	0	
3	0	0	0	0	805	124	0	540	0	0	
4	0	0	0	0	665	247	0	473	0	0	
5	0	0	0	0	508	393	0	403	0	0	
6	0	0	0	0	342	548	0	336	0	0	
7	0	0	0	0	182	697	0	280	0	0	
8	0	0	0	0	42	823	0	239	0	0	
9	0	0	0	0	0	915	0	216	0	0	
10	0	0	0	0	0	965	0	215	0	0	
11	0	0	0	0	0	968	0	236	0	0	
12	0	0	0	0	34	923	0	276	0	0	
13	0	0	0	0	151	832	0	333	0	0	
14	0	0	0	0	319	707	0	400	0	0	
15	0	0	0	0	521	558	0	472	0	0	
0	0	0	0	0	733	400	0	540	0	0	
1	0	0	0	0	925	250	0	598	0	0	
2	0	0	0	0	1021	124	0	640	0	0	
3	0	0	0	0	1021	32	0	663	0	0	
4	0	0	0	0	1021	0	0	664	0	0	
5	0	0	0	0	1002	0	0	642	0	0	
6	0	0	0	0	908	34	0	600	0	0	
7	0	0	0	0	784	119	0	543	0	0	
8	0	0	0	0	636	239	0	476	0	0	
9	0	0	0	0	472	383	0	405	0	0	
10	0	0	0	0	298	536	0	338	0	0	
11	0	0	0	0	133	682	0	281	0	0	
12	0	0	0	0	0	806	0	238	0	0	
13	0	0	0	0	0	896	0	213	0	0	
14	0	0	0	0	0	943	0	209	0	0	
15	0	0	0	0	0	944	0	227	0	0	
0	0	0	0	0	22	897	0	265	0	0	
1	0	0	0	0	132	806	0	318	0	0	
2	0	0	0	0	295	679	0	383	0	0	
3	0	0	0	0	495	531	0	452	0	0	
4	0	0	0	0	705	373	0	519	0	0	
5	0	0	0	0	898	225	0	575	0	0	
6	0	0	0	0	1021	100	0	617	0	0	
7	0	0	0	0	1021	9	0	639	0	0	
8	0	0	0	0	1021	0	0	639	0	0	
9	0	0	0	0	1001	0	0	618	0	0	
10	0	0	0	0	908	27	0	576	0	0	
11	0	0	0	0	783	109	0	519	0	0	
12	0	0	0	0	637	226	0	451	0	0	
13	0	0	0	0	473	366	0	381	0	0	
14	0	0	0	0	301	516	0	314	0	0	
15	0	0	0	0	137	660	0	256	0	0	
0	0	0	0	0	0	782	0	213	0	0	
1	0	0	0	0	0	871	0	188	0	0	
2	0	0	0	0	0	919	0	184	0	0	
3	0	0	0	0	0	921	0	201	0	0	
4	0	0	0	0	19	876	0	239	0	0	
5	0	0	0	0	126	786	0	293	0	0	
6	0	0	0	0	287	662	0	359	0	0	
7	0	0	0	0	482	515	0	431	0	0	
8	0	0	0	0	691	360	0	500	0	0	
9	0	0	0	0	882	215	0	559	0	0	
10	0	0	0	0	1021	92	0	603	0	0	
11	0	0	0	0	1021	2	0	627	0	0	
12	0	0	0	0	1021	0	0	629	0	0	
13	0	0	0	0	995	0	0	608	0	0	
14	0	0	0	0	897	24	0	568	0	0	
15	0	0	0	0	769	103	0	510	0	0	
0	0	0	0	0	619	216	0	443	0	0	
1	0	0	0	0	452	353	0	372	0	0	
2	0	0	0	0	279	500	0	304	0	0	
3	0	0	0	0	114	642	0	246	0	0	
4	0	0	0	0	0	764	0	201	0	0	
5	0	0	0	0	0	853	0	176	0	0	
6	0	0	0	0	0	900	0	172	0	0	
7	0	0	0	0	0	903	0	189	0	0	
8	0	0	0	0	16	859	0	226	0	0	
9	0	0	0	0	120	771	0	280	0	0	
10	0	0	0	0	276	648	0	346	0	0	
11	0	0	0	0	469	502	0	417	0	0	
12	0	0	0	0	673	348	0	486	0	0	
13	0	0	0	0	862	202	0	544	0	0	
14	0	0	0	0	1010	79	0	588	0	0	
15	0	0	0	0	1021	0	0	611	0	0	
0	0	0	0	0	1021	0	0	612	0	0	
1	0	0	0	0	989	0	0	591	0	0	
2	0	0	0	0	887	17	0	550	0	0	
3	0	0	0	0	755	92	0	492	0	0	
4	0	0	0	0	603	201	0	425	0	0	
5	0	0	0	0	435	334	0	354	0	0	
6	0	0	0	0	259	477	0	287	0	0	
7	0	0	0	0	95	617	0	228	0	0	
8	0	0	0	0	0	737	0	185	0	0	
9	0	0	0	0	0	826	0	160	0	0	
10	0	0	0	0	0	876	0	156	0	0	
11	0	0	0	0	0	880	0	175	0	0	
12	0	0	0	0	12	839	0	215	0	0	
13	0	0	0	0	114	755	0	272	0	0	
14	0	0	0	0	268	637	0	340	0	0	
15	0	0	0	0	459	496	0	415	0	0	
0	0	0	0	0	663	347	0	487	0	0	
1	0	0	0	0	853	206	0	550	0	0	
2	0	0	0	0	1001	86	0	596	0	0	
3	0	0	0	0	1021	0	0	622	0	0	
4	0	0	0	0	1021	0	0	626	0	0	
5	0	0	0	0	991	0	0	607	0	0	
6	0	0	0	0	891	22	0	567	0	0	
7	0	0	0	0	762	98	0	510	0	0	
8	0	0	0	0	611	209	0	443	0	0	
9	0	0	0	0	445	344	0	371	0	0	
10	0	0	0	0	273	489	0	303	0	0	
11	0	0	0	0	111	631	0	244	0	0	
12	0	0	0	0	0	752	0	199	0	0	
13	0	0	0	0	0	843	0	172	0	0	
14	0	0	0	0	0	892	0	168	0	0	
15	0	0	0	0	0	897	0	186	0	0	
0	0	0	0	0	19	856	0	226	0	0	
1	0	0	0	0	125	772	0	282	0	0	
2	0	0	0	0	284	654	0	352	0	0	
3	0	0	0	0	479	513	0	427	0	0	
4	0	0	0	0	687	364	0	501	0	0	
5	0	0	0	0	880	224	0	566	0	0	
6	0	0	0	0	1020	105	0	614	0	0	
7	0	0	0	0	1021	19	0	643	0	0	
8	0	0	0	0	1021	0	0	649	0	0	
9	0	0	0	0	1002	0	0	633	0	0	
10	0	0	0	0	910	35	0	596	0	0	
11	0	0	0	0	788	120	0	542	0	0	
12	0	0	0	0	644	240	0	478	0	0	
13	0	0	0	0	485	384	0	409	0	0	
14	0	0	0	0	317	537	0	344	0	0	
15	0	0	0	0	158	685	0	288	0	0	
0	0	0	0	0	19	812	0	246	0	0	
1	0	0	0	0	0	905	0	222	0	0	
2	0	0	0	0	0	957	0	219	0	0	
3	0	0	0	0	0	964	0	238	0	0	
4	0	0	0	0	31	923	0	278	0	0	
5	0	0	0	0	147	837	0	333	0	0	
6	0	0	0	0	318	716	0	401	0	0	
7	0	0	0	0	525	571	0	473	0	0	
8	0	0	0	0	744	416	0	544	0	0	
9	0	0	0	0	946	269	0	605	0	0	
10	0	0	0	0	1021	143	0	650	0	0	
11	0	0	0	0	1021	51	0	676	0	0	
12	0	0	0	0	1021	1	0	681	0	0	
13	0	0	0	0	1021	0	0	664	0	0	
14	0	0	0	0	944	41	0	627	0	0	
15	0	0	0	0	834	128	0	573	0	0	
0	0	0	0	0	700	252	0	508	0	0	
1	0	0	0	0	547	400	0	440	0	0	
2	0	0	0	0	382	558	0	374	0	0	
3	0	0	0	0	220	711	0	317	0	0	
4	0	0	0	0	76	841	0	275	0	0	
5	0	0	0	0	0	938	0	251	0	0	
6	0	0	0	0	0	993	0	248	0	0	
7	0	0	0	0	0	1002	0	266	0	0	
8	0	0	0	0	28	961	0	305	0	0	
9	0	0	0	0	143	875	0	360	0	0	
10	0	0	0	0	314	752	0	427	0	0	
11	0	0	0	0	522	604	0	499	0	0	
12	0	0	0	0	744	446	0	569	0	0	
13	0	0	0	0	950	292	0	629	0	0	
14	0	0	0	0	1021	163	0	673	0	0	
15	0	0	0	0	1021	66	0	700	0	0	
0	0	0	0	0	1021	11	0	704	0	0	
1	0	0	0	0	1021	2	0	686	0	0	
2	0	0	0	0	953	42	0	648	0	0	
3	0	0	0	0	847	127	0	593	0	0	
4	0	0	0	0	714	251	0	527	0	0	
5	0	0	0	0	560	399	0	456	0	0	
6	0	0	0	0	394	558	0	388	0	0	
7	0	0	0	0	228	711	0	329	0	0	
8	0	0	0	0	80	844	0	285	0	0	
9	0	0	0	0	0	943	0	259	0	0	
10	0	0	0	0	0	1000	0	255	0	0	
11	0	0	0	0	0	1010	0	272	0	0	
12	0	0	0	0	20	971	0	309	0	0	
13	0	0	0	0	129	886	0	364	0	0	
14	0	0	0	0	295	763	0	430	0	0	
15	0	0	0	0	500	615	0	501	0	0	
0	0	0	0	0	719	456	0	570	0	0	
1	0	0	0	0	925	302	0	630	0	0	
2	0	0	0	0	1021	171	0	675	0	0	
3	0	0	0	0	1021	73	0	700	0	0	
4	0	0	0	0	1021	17	0	705	0	0	
5	0	0	0	0	1021	8	0	689	0	0	
6	0	0	0	0	959	49	0	652	0	0	
7	0	0	0	0	857	135	0	598	0	0	
8	0	0	0	0	731	259	0	532	0	0	
9	0	0	0	0	584	409	0	463	0	0	
10	0	0	0	0	425	569	0	395	0	0	
11	0	0	0	0	264	723	0	336	0	0	
12	0	0	0	0	120	856	0	291	0	0	
13	0	0	0	0	6	954	0	265	0	0	
14	0	0	0	0	0	1011	0	259	0	0	
15	0	0	0	0	0	1020	0	275	0	0	
0	0	0	0	0	26	980	0	310	0	0	
1	0	0	0	0	138	895	0	363	0	0	
2	0	0	0	0	307	771	0	428	0	0	
3	0	0	0	0	513	622	0	498	0	0	
4	0	0	0	0	736	462	0	567	0	0	
5	0	0	0	0	942	305	0	626	0	0	
6	0	0	0	0	1021	172	0	670	0	0	
7	0	0	0	0	1021	72	0	696	0	0	
8	0	0	0	0	1021	13	0	700	0	0	
9	0	0	0	0	1021	2	0	684	0	0	
10	0	0	0	0	957	39	0	646	0	0	
11	0	0	0	0	852	123	0	591	0	0	
12	0	0	0	0	721	246	0	527	0	0	
13	0	0	0	0	568	394	0	457	0	0	
14	0	0	0	0	403	554	0	390	0	0	
15	0	0	0	0	238	710	0	332	0	0	
0	0	0	0	0	89	844	0	287	0	0	
1	0	0	0	0	0	945	0	262	0	0	
2	0	0	0	0	0	1004	0	257	0	0	
3	0	0	0	0	0	1016	0	274	0	0	
4	0	0	0	0	18	979	0	311	0	0	
5	0	0	0	0	127	895	0	365	0	0	
6	0	0	0	0	291	773	0	430	0	0	
7	0	0	0	0	496	625	0	500	0	0	
8	0	0	0	0	718	465	0	568	0	0	
9	0	0	0	0	925	309	0	627	0	0	
10	0	0	0	0	1021	175	0	671	0	0	
11	0	0	0	0	1021	74	0	697	0	0	
12	0	0	0	0	1021	15	0	702	0	0	
13	0	0	0	0	1021	1	0	685	0	0	
14	0	0	0	0	961	38	0	647	0	0	
15	0	0	0	0	861	121	0	594	0	0	
0	0	0	0	0	735	243	0	528	0	0	
1	0	0	0	0	588	391	0	459	0	0	
2	0	0	0	0	427	551	0	391	0	0	
3	0	0	0	0	265	707	0	332	0	0	
4	0	0	0	0	119	842	0	287	0	0	
5	0	0	0	0	3	944	0	260	0	0	
6	0	0	0	0	0	1004	0	254	0	0	
7	0	0	0	0	0	1018	0	270	0	0	
8	0	0	0	0	21	982	0	306	0	0	
9	0	0	0	0	129	899	0	359	0	0	
10	0	0	0	0	292	777	0	424	0	0	
11	0	0	0	0	495	629	0	495	0	0	
12	0	0	0	0	713	469	0	563	0	0	
13	0	0	0	0	919	311	0	623	0	0	
14	0	0	0	0	1021	176	0	667	0	0	
15	0	0	0	0	1021	73	0	693	0	0	
0	0	0	0	0	1021	11	0	698	0	0	
1	0	0	0	0	1021	0	0	682	0	0	
2	0	0	0	0	955	33	0	644	0	0	
3	0	0	0	0	849	115	0	591	0	0	
4	0	0	0	0	719	235	0	525	0	0	
5	0	0	0	0	569	383	0	455	0	0	
6	0	0	0	0	406	542	0	387	0	0	
7	0	0	0	0	243	699	0	328	0	0	
8	0	0	0	0	97	834	0	283	0	0	
9	0	0	0	0	0	938	0	256	0	0	
10	0	0	0	0	0	1000	0	250	0	0	
11	0	0	0	0	0	1015	0	265	0	0	
12	0	0	0	0	19	980	0	301	0	0	
13	0	0	0	0	125	897	0	354	0	0	
14	0	0	0	0	287	776	0	417	0	0	
15	0	0	0	0	490	627	0	487	0	0	
0	0	0	0	0	707	466	0	555	0	0	
1	0	0	0	0	913	307	0	613	0	0	
2	0	0	0	0	1021	170	0	657	0	0	
3	0	0	0	0	1021	65	0	682	0	0	
4	0	0	0	0	1021	2	0	686	0	0	
5	0	0	0	0	1021	0	0	669	0	0	
6	0	0	0	0	954	25	0	632	0	0	
7	0	0	0	0	851	105	0	578	0	0	
8	0	0	0	0	724	223	0	514	0	0	
9	0	0	0	0	577	368	0	445	0	0	
10	0	0	0	0	419	527	0	378	0	0	
11	0	0	0	0	262	683	0	320	0	0	
12	0	0	0	0	120	819	0	276	0	0	
13	0	0	0	0	7	924	0	250	0	0	
14	0	0	0	0	0	987	0	245	0	0	
15	0	0	0	0	0	1004	0	261	0	0	
0	0	0	0	0	25	971	0	298	0	0	
1	0	0	0	0	135	892	0	352	0	0	
2	0	0	0	0	300	774	0	417	0	0	
3	0	0	0	0	504	628	0	489	0	0	
4	0	0	0	0	723	470	0	558	0	0	
5	0	0	0	0	929	314	0	619	0	0	
6	0	0	0	0	1021	181	0	665	0	0	
7	0	0	0	0	1021	78	0	692	0	0	
8	0	0	0	0	1021	16	0	698	0	0	
9	0	0	0	0	1021	0	0	682	0	0	
10	0	0	0	0	957	32	0	644	0	0	
11	0	0	0	0	851	111	0	591	0	0	
12	0	0	0	0	721	229	0	524	0	0	
13	0	0	0	0	572	374	0	453	0	0	
14	0	0	0	0	409	531	0	383	0	0	
15	0	0	0	0	247	686	0	322	0	0	
0	0	0	0	0	101	821	0	276	0	0	
1	0	0	0	0	0	924	0	247	0	0	
2	0	0	0	0	0	986	0	239	0	0	
3	0	0	0	0	0	1004	0	253	0	0	
4	0	0	0	0	18	970	0	287	0	0	
5	0	0	0	0	123	892	0	340	0	0	
6	0	0	0	0	286	774	0	405	0	0	
7	0	0	0	0	488	628	0	476	0	0	
8	0	0	0	0	707	470	0	545	0	0	
9	0	0	0	0	914	314	0	607	0	0	
10	0	0	0	0	1021	180	0	653	0	0	
11	0	0	0	0	1021	76	0	681	0	0	
12	0	0	0	0	1021	13	0	688	0	0	
13	0	0	0	0	1021	0	0	673	0	0	
14	0	0	0	0	962	30	0	637	0	0	
15	0	0	0	0	861	109	0	584	0	0	
0	0	0	0	0	735	226	0	519	0	0	
1	0	0	0	0	589	371	0	449	0	0	
2	0	0	0	0	432	529	0	381	0	0	
3	0	0	0	0	272	684	0	322	0	0	
4	0	0	0	0	128	820	0	276	0	0	
5	0	0	0	0	12	924	0	248	0	0	
6	0	0	0	0	0	987	0	240	0	0	
7	0	0	0	0	0	1004	0	254	0	0	
8	0	0	0	0	20	972	0	288	0	0	
9	0	0	0	0	125	893	0	340	0	0	
10	0	0	0	0	288	775	0	405	0	0	
11	0	0	0	0	490	629	0	475	0	0	
12	0	0	0	0	709	471	0	544	0	0	
13	0	0	0	0	917	314	0	606	0	0	
14	0	0	0	0	1021	179	0	653	0	0	
15	0	0	0	0	1021	75	0	683	0	0	
0	0	0	0	0	1021	12	0	691	0	0	
1	0	0	0	0	1021	0	0	678	0	0	
2	0	0	0	0	966	29	0	645	0	0	
3	0	0	0	0	865	108	0	594	0	0	
4	0	0	0	0	740	227	0	531	0	0	
5	0	0	0	0	595	371	0	462	0	0	
6	0	0	0	0	437	529	0	394	0	0	
7	0	0	0	0	276	684	0	335	0	0	
8	0	0	0	0	129	820	0	288	0	0	
9	0	0	0	0	11	924	0	259	0	0	
10	0	0	0	0	0	986	0	249	0	0	
11	0	0	0	0	0	1002	0	262	0	0	
12	0	0	0	0	14	968	0	294	0	0	
13	0	0	0	0	113	889	0	343	0	0	
14	0	0	0	0	271	769	0	405	0	0	
15	0	0	0	0	469	623	0	473	0	0	
0	0	0	0	0	686	464	0	541	0	0	
1	0	0	0	0	893	308	0	602	0	0	
2	0	0	0	0	1021	174	0	648	0	0	
3	0	0	0	0	1021	70	0	677	0	0	
4	0	0	0	0	1021	7	0	685	0	0	
5	0	0	0	0	1021	0	0	671	0	0	
6	0	0	0	0	961	27	0	638	0	0	
7	0	0	0	0	858	105	0	587	0	0	
8	0	0	0	0	728	221	0	523	0	0	
9	0	0	0	0	577	365	0	454	0	0	
10	0	0	0	0	414	522	0	386	0	0	
11	0	0	0	0	248	677	0	327	0	0	
12	0	0	0	0	98	813	0	280	0	0	
13	0	0	0	0	0	918	0	251	0	0	
14	0	0	0	0	0	981	0	243	0	0	
15	0	0	0	0	0	999	0	256	0	0	
0	0	0	0	0	8	967	0	290	0	0	
1	0	0	0	0	105	890	0	341	0	0	
2	0	0	0	0	262	772	0	406	0	0	
3	0	0	0	0	460	627	0	476	0	0	
4	0	0	0	0	676	470	0	546	0	0	
5	0	0	0	0	885	313	0	607	0	0	
6	0	0	0	0	1021	177	0	656	0	0	
7	0	0	0	0	1021	73	0	686	0	0	
8	0	0	0	0	1021	9	0	696	0	0	
9	0	0	0	0	1021	0	0	684	0	0	
10	0	0	0	0	967	26	0	650	0	0	
11	0	0	0	0	866	103	0	600	0	0	
12	0	0	0	0	740	221	0	537	0	0	
13	0	0	0	0	594	366	0	467	0	0	
14	0	0	0	0	434	524	0	399	0	0	
15	0	0	0	0	272	680	0	337	0	0	
0	0	0	0	0	125	818	0	290	0	0	
1	0	0	0	0	5	924	0	259	0	0	
2	0	0	0	0	0	988	0	248	0	0	
3	0	0	0	0	0	1007	0	259	0	0	
4	0	0	0	0	9	976	0	291	0	0	
5	0	0	0	0	105	898	0	340	0	0	
6	0	0	0	0	259	780	0	402	0	0	
7	0	0	0	0	453	635	0	471	0	0	
8	0	0	0	0	667	475	0	539	0	0	
9	0	0	0	0	872	317	0	601	0	0	
10	0	0	0	0	1021	180	0	648	0	0	
11	0	0	0	0	1021	74	0	679	0	0	
12	0	0	0	0	1021	8	0	688	0	0	
13	0	0	0	0	1021	0	0	676	0	0	
14	0	0	0	0	960	22	0	643	0	0	
15	0	0	0	0	857	97	0	593	0	0	
0	0	0	0	0	729	212	0	531	0	0	
1	0	0	0	0	582	355	0	462	0	0	
2	0	0	0	0	422	512	0	395	0	0	
3	0	0	0	0	260	667	0	335	0	0	
4	0	0	0	0	113	804	0	288	0	0	
5	0	0	0	0	0	910	0	258	0	0	
6	0	0	0	0	0	975	0	248	0	0	
7	0	0	0	0	0	996	0	259	0	0	
8	0	0	0	0	10	967	0	291	0	0	
9	0	0	0	0	107	890	0	341	0	0	
10	0	0	0	0	262	775	0	403	0	0	
11	0	0	0	0	459	631	0	472	0	0	
12	0	0	0	0	675	474	0	541	0	0	
13	0	0	0	0	882	318	0	603	0	0	
14	0	0	0	0	1021	182	0	649	0	0	
15	0	0	0	0	1021	77	0	678	0	0	
0	0	0	0	0	1021	12	0	687	0	0	
1	0	0	0	0	1021	0	0	674	0	0	
2	0	0	0	0	964	24	0	640	0	0	
3	0	0	0	0	860	99	0	589	0	0	
4	0	0	0	0	732	214	0	525	0	0	
5	0	0	0	0	582	356	0	455	0	0	
6	0	0	0	0	420	512	0	387	0	0	
7	0	0	0	0	256	668	0	327	0	0	
8	0	0	0	0	108	804	0	280	0	0	
9	0	0	0	0	0	911	0	249	0	0	
10	0	0	0	0	0	977	0	240	0	0	
11	0	0	0	0	0	997	0	252	0	0	
12	0	0	0	0	7	968	0	285	0	0	
13	0	0	0	0	102	893	0	335	0	0	
14	0	0	0	0	255	777	0	399	0	0	
15	0	0	0	0	451	634	0	469	0	0	
0	0	0	0	0	667	476	0	539	0	0	
1	0	0	0	0	874	320	0	601	0	0	
2	0	0	0	0	1021	183	0	649	0	0	
3	0	0	0	0	1021	76	0	679	0	0	
4	0	0	0	0	1021	10	0	688	0	0	
5	0	0	0	0	1021	0	0	675	0	0	
6	0	0	0	0	966	21	0	642	0	0	
7	0	0	0	0	865	95	0	591	0	0	
8	0	0	0	0	739	209	0	528	0	0	
9	0	0	0	0	593	351	0	460	0	0	
10	0	0	0	0	435	508	0	392	0	0	
11	0	0	0	0	273	665	0	333	0	0	
12	0	0	0	0	126	804	0	286	0	0	
13	0	0	0	0	6	912	0	256	0	0	
14	0	0	0	0	0	980	0	247	0	0	
15	0	0	0	0	0	1003	0	259	0	0	
0	0	0	0	0	9	976	0	291	0	0	
1	0	0	0	0	104	902	0	341	0	0	
2	0	0	0	0	259	788	0	404	0	0	
3	0	0	0	0	455	646	0	473	0	0	
4	0	0	0	0	671	488	0	542	0	0	
5	0	0	0	0	880	331	0	603	0	0	
6	0	0	0	0	1021	193	0	651	0	0	
7	0	0	0	0	1021	84	0	681	0	0	
8	0	0	0	0	1021	16	0	690	0	0	
9	0	0	0	0	1021	0	0	678	0	0	
10	0	0	0	0	968	21	0	645	0	0	
11	0	0	0	0	867	93	0	594	0	0	
12	0	0	0	0	740	205	0	530	0	0	
13	0	0	0	0	592	345	0	460	0	0	
14	0	0	0	0	431	501	0	391	0	0	
15	0	0	0	0	267	656	0	329	0	0	
0	0	0	0	0	117	795	0	281	0	0	
1	0	0	0	0	0	903	0	249	0	0	
2	0	0	0	0	0	972	0	239	0	0	
3	0	0	0	0	0	996	0	250	0	0	
4	0	0	0	0	6	972	0	282	0	0	
5	0	0	0	0	99	900	0	332	0	0	
6	0	0	0	0	252	788	0	396	0	0	
7	0	0	0	0	447	647	0	466	0	0	
8	0	0	0	0	663	491	0	536	0	0	
9	0	0	0	0	873	335	0	599	0	0	
10	0	0	0	0	1021	197	0	648	0	0	
11	0	0	0	0	1021	89	0	679	0	0	
12	0	0	0	0	1021	20	0	689	0	0	
13	0	0	0	0	1021	0	0	677	0	0	
14	0	0	0	0	967	22	0	645	0	0	
15	0	0	0	0	864	95	0	595	0	0	
0	0	0	0	0	735	207	0	532	0	0	
1	0	0	0	0	585	348	0	463	0	0	
2	0	0	0	0	422	506	0	396	0	0	
3	0	0	0	0	257	664	0	335	0	0	
4	0	0	0	0	105	804	0	289	0	0	
5	0	0	0	0	0	915	0	258	0	0	
6	0	0	0	0	0	985	0	248	0	0	
7	0	0	0	0	0	1010	0	260	0	0	
8	0	0	0	0	1	985	0	292	0	0	
9	0	0	0	0	92	913	0	342	0	0	
10	0	0	0	0	241	800	0	404	0	0	
11	0	0	0	0	435	656	0	473	0	0	
12	0	0	0	0	649	498	0	542	0	0	
13	0	0	0	0	858	338	0	603	0	0	
14	0	0	0	0	1020	196	0	649	0	0	
15	0	0	0	0	1021	84	0	678	0	0	
0	0	0	0	0	1021	12	0	686	0	0	
1	0	0	0	0	1021	0	0	672	0	0	
2	0	0	0	0	966	13	0	638	0	0	
3	0	0	0	0	862	81	0	587	0	0	
4	0	0	0	0	733	191	0	522	0	0	
5	0	0	0	0	583	330	0	452	0	0	
6	0	0	0	0	419	486	0	384	0	0	
7	0	0	0	0	254	643	0	323	0	0	
8	0	0	0	0	102	784	0	274	0	0	
9	0	0	0	0	0	896	0	243	0	0	
10	0	0	0	0	0	967	0	233	0	0	
11	0	0	0	0	0	995	0	244	0	0	
12	0	0	0	0	0	973	0	276	0	0	
13	0	0	0	0	84	903	0	326	0	0	
14	0	0	0	0	229	793	0	390	0	0	
15	0	0	0	0	417	652	0	460	0	0	
0	0	0	0	0	627	496	0	530	0	0	
1	0	0	0	0	833	338	0	593	0	0	
2	0	0	0	0	1007	198	0	642	0	0	
3	0	0	0	0	1021	88	0	674	0	0	
4	0	0	0	0	1021	16	0	685	0	0	
5	0	0	0	0	1021	0	0	674	0	0	
6	0	0	0	0	964	16	0	643	0	0	
7	0	0	0	0	860	85	0	593	0	0	
8	0	0	0	0	732	195	0	531	0	0	
9	0	0	0	0	585	335	0	463	0	0	
10	0	0	0	0	426	492	0	395	0	0	
11	0	0	0	0	265	649	0	334	0	0	
12	0	0	0	0	119	789	0	285	0	0	
13	0	0	0	0	0	900	0	253	0	0	
14	0	0	0	0	0	972	0	241	0	0	
15	0	0	0	0	0	999	0	251	0	0	
0	0	0	0	0	5	976	0	280	0	0	
1	0	0	0	0	96	906	0	328	0	0	
2	0	0	0	0	245	795	0	390	0	0	
3	0	0	0	0	438	655	0	459	0	0	
4	0	0	0	0	651	497	0	528	0	0	
5	0	0	0	0	859	340	0	591	0	0	
6	0	0	0	0	1020	199	0	641	0	0	
7	0	0	0	0	1021	88	0	674	0	0	
8	0	0	0	0	1021	17	0	686	0	0	
9	0	0	0	0	1021	0	0	678	0	0	
10	0	0	0	0	967	16	0	648	0	0	
11	0	0	0	0	863	84	0	600	0	0	
12	0	0	0	0	735	194	0	539	0	0	
13	0	0	0	0	587	332	0	470	0	0	
14	0	0	0	0	426	488	0	401	0	0	
15	0	0	0	0	263	643	0	339	0	0	
0	0	0	0	0	112	784	0	288	0	0	
1	0	0	0	0	0	894	0	254	0	0	
2	0	0	0	0	0	965	0	239	0	0	
3	0	0	0	0	0	991	0	246	0	0	
4	0	0	0	0	0	968	0	273	0	0	
5	0	0	0	0	85	899	0	319	0	0	
6	0	0	0	0	231	788	0	379	0	0	
7	0	0	0	0	421	648	0	448	0	0	
8	0	0	0	0	633	492	0	517	0	0	
9	0	0	0	0	842	335	0	581	0	0	
10	0	0	0	0	1018	197	0	632	0	0	
11	0	0	0	0	1021	87	0	666	0	0	
12	0	0	0	0	1021	16	0	680	0	0	
13	0	0	0	0	1021	0	0	673	0	0	
14	0	0	0	0	970	17	0	644	0	0	
15	0	0	0	0	869	87	0	598	0	0	
0	0	0	0	0	743	198	0	538	0	0	
1	0	0	0	0	597	337	0	470	0	0	
2	0	0	0	0	439	494	0	403	0	0	
3	0	0	0	0	276	651	0	341	0	0	
4	0	0	0	0	127	793	0	291	0	0	
5	0	0	0	0	4	904	0	257	0	0	
6	0	0	0	0	0	976	0	243	0	0	
7	0	0	0	0	0	1003	0	249	0	0	
8	0	0	0	0	0	979	0	276	0	0	
9	0	0	0	0	83	909	0	320	0	0	
10	0	0	0	0	229	797	0	380	0	0	
11	0	0	0	0	419	655	0	447	0	0	
12	0	0	0	0	631	496	0	515	0	0	
13	0	0	0	0	840	337	0	577	0	0	
14	0	0	0	0	1017	194	0	627	0	0	
15	0	0	0	0	1021	81	0	660	0	0	
0	0	0	0	0	1021	7	0	673	0	0	
1	0	0	0	0	1021	0	0	665	0	0	
2	0	0	0	0	972	10	0	636	0	0	
3	0	0	0	0	870	76	0	590	0	0	
4	0	0	0	0	743	183	0	530	0	0	
5	0	0	0	0	595	320	0	463	0	0	
6	0	0	0	0	435	476	0	396	0	0	
7	0	0	0	0	271	632	0	335	0	0	
8	0	0	0	0	120	773	0	286	0	0	
9	0	0	0	0	0	885	0	254	0	0	
10	0	0	0	0	0	959	0	240	0	0	
11	0	0	0	0	0	988	0	248	0	0	
12	0	0	0	0	0	968	0	276	0	0	
13	0	0	0	0	80	900	0	322	0	0	
14	0	0	0	0	223	792	0	382	0	0	
15	0	0	0	0	411	652	0	450	0	0	
0	0	0	0	0	622	496	0	519	0	0	
1	0	0	0	0	832	339	0	583	0	0	
2	0	0	0	0	1010	199	0	634	0	0	
3	0	0	0	0	1021	88	0	669	0	0	
4	0	0	0	0	1021	15	0	684	0	0	
5	0	0	0	0	1021	0	0	677	0	0	
6	0	0	0	0	975	13	0	649	0	0	
7	0	0	0	0	877	80	0	603	0	0	
8	0	0	0	0	753	188	0	543	0	0	
9	0	0	0	0	608	326	0	476	0	0	
10	0	0	0	0	450	481	0	408	0	0	
11	0	0	0	0	287	638	0	347	0	0	
12	0	0	0	0	137	779	0	296	0	0	
13	0	0	0	0	12	892	0	262	0	0	
14	0	0	0	0	0	966	0	247	0	0	
15	0	0	0	0	0	994	0	253	0	0	
0	0	0	0	0	0	974	0	279	0	0	
1	0	0	0	0	81	906	0	324	0	0	
2	0	0	0	0	225	797	0	383	0	0	
3	0	0	0	0	414	656	0	449	0	0	
4	0	0	0	0	626	499	0	516	0	0	
5	0	0	0	0	835	339	0	578	0	0	
6	0	0	0	0	1013	195	0	627	0	0	
7	0	0	0	0	1021	80	0	658	0	0	
8	0	0	0	0	1021	4	0	670	0	0	
9	0	0	0	0	1021	0	0	661	0	0	
10	0	0	0	0	971	5	0	632	0	0	
11	0	0	0	0	866	66	0	584	0	0	
12	0	0	0	0	737	171	0	524	0	0	
13	0	0	0	0	588	305	0	457	0	0	
14	0	0	0	0	426	458	0	390	0	0	
15	0	0	0	0	261	614	0	330	0	0	
0	0	0	0	0	110	756	0	281	0	0	
1	0	0	0	0	0	871	0	249	0	0	
2	0	0	0	0	0	948	0	237	0	0	
3	0	0	0	0	0	981	0	245	0	0	
4	0	0	0	0	0	965	0	274	0	0	
5	0	0	0	0	75	902	0	321	0	0	
6	0	0	0	0	216	798	0	383	0	0	
7	0	0	0	0	402	662	0	451	0	0	
8	0	0	0	0	612	509	0	521	0	0	
9	0	0	0	0	823	353	0	586	0	0	
10	0	0	0	0	1001	213	0	638	0	0	
11	0	0	0	0	1021	102	0	672	0	0	
12	0	0	0	0	1021	28	0	687	0	0	
13	0	0	0	0	1021	0	0	680	0	0	
14	0	0	0	0	977	16	0	653	0	0	
15	0	0	0	0	876	81	0	606	0	0	
0	0	0	0	0	751	187	0	546	0	0	
1	0	0	0	0	603	323	0	478	0	0	
2	0	0	0	0	442	477	0	408	0	0	
3	0	0	0	0	276	632	0	344	0	0	
4	0	0	0	0	122	773	0	291	0	0	
5	0	0	0	0	0	885	0	254	0	0	
6	0	0	0	0	0	959	0	236	0	0	
7	0	0	0	0	0	988	0	239	0	0	
8	0	0	0	0	0	969	0	263	0	0	
9	0	0	0	0	66	902	0	307	0	0	
10	0	0	0	0	202	794	0	365	0	0	
11	0	0	0	0	384	655	0	432	0	0	
12	0	0	0	0	592	500	0	501	0	0	
13	0	0	0	0	801	342	0	564	0	0	
14	0	0	0	0	980	200	0	615	0	0	
15	0	0	0	0	1021	87	0	651	0	0	
0	0	0	0	0	1021	12	0	665	0	0	
1	0	0	0	0	1021	0	0	659	0	0	
2	0	0	0	0	973	7	0	632	0	0	
3	0	0	0	0	870	70	0	588	0	0	
4	0	0	0	0	742	175	0	528	0	0	
5	0	0	0	0	591	309	0	461	0	0	
6	0	0	0	0	427	461	0	393	0	0	
7	0	0	0	0	259	615	0	331	0	0	
8	0	0	0	0	103	757	0	280	0	0	
9	0	0	0	0	0	870	0	245	0	0	
10	0	0	0	0	0	944	0	229	0	0	
11	0	0	0	0	0	974	0	233	0	0	
12	0	0	0	0	0	956	0	259	0	0	
13	0	0	0	0	58	892	0	303	0	0	
14	0	0	0	0	190	785	0	361	0	0	
15	0	0	0	0	369	647	0	428	0	0	
0	0	0	0	0	575	492	0	496	0	0	
1	0	0	0	0	782	334	0	559	0	0	
2	0	0	0	0	961	192	0	609	0	0	
3	0	0	0	0	1021	77	0	642	0	0	
4	0	0	0	0	1021	0	0	655	0	0	
5	0	0	0	0	1021	0	0	647	0	0	
6	0	0	0	0	966	0	0	617	0	0	
7	0	0	0	0	858	57	0	569	0	0	
8	0	0	0	0	723	155	0	507	0	0	
9	0	0	0	0	568	284	0	438	0	0	
10	0	0	0	0	400	431	0	369	0	0	
11	0	0	0	0	230	582	0	306	0	0	
12	0	0	0	0	73	723	0	254	0	0	
13	0	0	0	0	0	836	0	219	0	0	
14	0	0	0	0	0	913	0	204	0	0	
15	0	0	0	0	0	946	0	210	0	0	
0	0	0	0	0	0	932	0	237	0	0	
1	0	0	0	0	53	872	0	284	0	0	
2	0	0	0	0	181	770	0	345	0	0	
3	0	0	0	0	355	637	0	414	0	0	
4	0	0	0	0	556	486	0	485	0	0	
5	0	0	0	0	759	331	0	551	0	0	
6	0	0	0	0	935	192	0	604	0	0	
7	0	0	0	0	1021	79	0	640	0	0	
8	0	0	0	0	1021	4	0	655	0	0	
9	0	0	0	0	1021	0	0	649	0	0	
10	0	0	0	0	963	3	0	621	0	0	
11	0	0	0	0	854	60	0	576	0	0	
12	0	0	0	0	721	160	0	516	0	0	
13	0	0	0	0	568	291	0	448	0	0	
14	0	0	0	0	402	441	0	380	0	0	
15	0	0	0	0	234	595	0	318	0	0	
0	0	0	0	0	81	738	0	269	0	0	
1	0	0	0	0	0	854	0	235	0	0	
2	0	0	0	0	0	933	0	221	0	0	
3	0	0	0	0	0	969	0	228	0	0	
4	0	0	0	0	0	957	0	256	0	0	
5	0	0	0	0	59	896	0	303	0	0	
6	0	0	0	0	190	795	0	364	0	0	
7	0	0	0	0	368	662	0	434	0	0	
8	0	0	0	0	573	510	0	505	0	0	
9	0	0	0	0	780	355	0	571	0	0	
10	0	0	0	0	960	214	0	624	0	0	
11	0	0	0	0	1021	101	0	661	0	0	
12	0	0	0	0	1021	24	0	677	0	0	
13	0	0	0	0	1021	0	0	672	0	0	
14	0	0	0	0	977	10	0	646	0	0	
15	0	0	0	0	874	71	0	601	0	0	
0	0	0	0	0	744	175	0	542	0	0	
1	0	0	0	0	593	309	0	474	0	0	
2	0	0	0	0	427	463	0	406	0	0	
3	0	0	0	0	257	620	0	343	0	0	
4	0	0	0	0	99	764	0	290	0	0	
5	0	0	0	0	0	880	0	255	0	0	
6	0	0	0	0	0	959	0	238	0	0	
7	0	0	0	0	0	994	0	242	0	0	
8	0	0	0	0	0	981	0	268	0	0	
9	0	0	0	0	53	919	0	312	0	0	
10	0	0	0	0	182	815	0	372	0	0	
11	0	0	0	0	359	679	0	441	0	0	
12	0	0	0	0	564	525	0	512	0	0	
13	0	0	0	0	775	367	0	579	0	0	
14	0	0	0	0	957	223	0	633	0	0	
15	0	0	0	0	1021	107	0	671	0	0	
0	0	0	0	0	1021	27	0	688	0	0	
1	0	0	0	0	1021	0	0	683	0	0	
2	0	0	0	0	981	9	0	656	0	0	
3	0	0	0	0	879	68	0	611	0	0	
4	0	0	0	0	751	170	0	549	0	0	
5	0	0	0	0	600	302	0	479	0	0	
6	0	0	0	0	432	453	0	405	0	0	
7	0	0	0	0	258	606	0	335	0	0	
8	0	0	0	0	94	746	0	275	0	0	
9	0	0	0	0	0	856	0	229	0	0	
10	0	0	0	0	0	927	0	200	0	0	
11	0	0	0	0	0	953	0	192	0	0	
12	0	0	0	0	0	929	0	203	0	0	
13	0	0	0	0	19	854	0	231	0	0	
14	0	0	0	0	122	735	0	274	0	0	
15	0	0	0	0	272	583	0	325	0	0	
0	0	0	0	0	450	411	0	377	0	0	
1	0	0	0	0	632	235	0	425	0	0	
2	0	0	0	0	791	73	0	461	0	0	
3	0	0	0	0	902	0	0	481	0	0	
4	0	0	0	0	946	0	0	482	0	0	
5	0	0	0	0	913	0	0	461	0	0	
6	0	0	0	0	814	0	0	420	0	0	
7	0	0	0	0	675	0	0	361	0	0	
8	0	0	0	0	516	11	0	291	0	0	
9	0	0	0	0	342	73	0	213	0	0	
10	0	0	0	0	165	160	0	135	0	0	
11	0	0	0	0	0	260	0	61	0	0	
12	0	0	0	0	0	361	0	0	0	0	
13	0	0	0	0	0	451	0	0	0	0	
14	0	0	0	0	0	516	0	0	0	0	
15	0	0	0	0	0	549	0	0	0	0	
0	0	0	0	0	0	543	0	0	0	0	
1	0	0	0	0	0	499	0	19	0	0	
2	0	0	0	0	31	421	0	60	0	0	
3	0	0	0	0	135	319	0	116	0	0	
4	0	0	0	0	275	205	0	182	0	0	
5	0	0	0	0	432	90	0	252	0	0	
6	0	0	0	0	583	0	0	321	0	0	
7	0	0	0	0	706	0	0	382	0	0	
8	0	0	0	0	777	0	0	432	0	0	
9	0	0	0	0	785	0	0	465	0	0	
10	0	0	0	0	740	0	0	480	0	0	
11	0	0	0	0	665	52	0	477	0	0	
12	0	0	0	0	573	145	0	458	0	0	
13	0	0	0	0	467	267	0	428	0	0	
14	0	0	0	0	353	408	0	392	0	0	
15	0	0	0	0	239	556	0	356	0	0	
0	0	0	0	0	133	696	0	324	0	0	
1	0	0	0	0	47	813	0	303	0	0	
2	0	0	0	0	0	896	0	295	0	0	
3	0	0	0	0	0	938	0	304	0	0	
4	0	0	0	0	29	936	0	328	0	0	
5	0	0	0	0	128	889	0	366	0	0	
6	0	0	0	0	282	800	0	416	0	0	
7	0	0	0	0	478	678	0	473	0	0	
8	0	0	0	0	692	536	0	529	0	0	
9	0	0	0	0	901	388	0	582	0	0	
10	0	0	0	0	1021	252	0	623	0	0	
11	0	0	0	0	1021	139	0	651	0	0	
12	0	0	0	0	1021	60	0	661	0	0	
13	0	0	0	0	1021	21	0	652	0	0	
14	0	0	0	0	979	29	0	625	0	0	
15	0	0	0	0	875	83	0	582	0	0	
0	0	0	0	0	744	178	0	527	0	0	
1	0	0	0	0	593	305	0	464	0	0	
2	0	0	0	0	429	453	0	402	0	0	
3	0	0	0	0	261	605	0	345	0	0	
4	0	0	0	0	105	748	0	299	0	0	
5	0	0	0	0	0	864	0	268	0	0	
6	0	0	0	0	0	945	0	255	0	0	
7	0	0	0	0	0	984	0	263	0	0	
8	0	0	0	0	0	976	0	291	0	0	
9	0	0	0	0	50	920	0	336	0	0	
10	0	0	0	0	179	823	0	395	0	0	
11	0	0	0	0	355	693	0	462	0	0	
12	0	0	0	0	561	543	0	531	0	0	
13	0	0	0	0	772	388	0	593	0	0	
14	0	0	0	0	958	246	0	644	0	0	
15	0	0	0	0	1021	130	0	679	0	0	
0	0	0	0	0	1021	49	0	694	0	0	
1	0	0	0	0	1021	11	0	689	0	0	
2	0	0	0	0	990	20	0	663	0	0	
3	0	0	0	0	894	77	0	617	0	0	
4	0	0	0	0	769	176	0	559	0	0	
5	0	0	0	0	624	308	0	492	0	0	
6	0	0	0	0	463	461	0	423	0	0	
7	0	0	0	0	295	617	0	359	0	0	
8	0	0	0	0	137	763	0	307	0	0	
9	0	0	0	0	3	881	0	270	0	0	
10	0	0	0	0	0	964	0	252	0	0	
11	0	0	0	0	0	1003	0	255	0	0	
12	0	0	0	0	0	994	0	280	0	0	
13	0	0	0	0	48	938	0	323	0	0	
14	0	0	0	0	175	838	0	382	0	0	
15	0	0	0	0	352	705	0	450	0	0	
0	0	0	0	0	559	553	0	521	0	0	
1	0	0	0	0	772	395	0	587	0	0	
2	0	0	0	0	961	248	0	641	0	0	
3	0	0	0	0	1021	128	0	679	0	0	
4	0	0	0	0	1021	44	0	697	0	0	
5	0	0	0	0	1021	3	0	694	0	0	
6	0	0	0	0	995	11	0	670	0	0	
7	0	0	0	0	900	66	0	626	0	0	
8	0	0	0	0	777	166	0	568	0	0	
9	0	0	0	0	632	298	0	501	0	0	
10	0	0	0	0	469	451	0	432	0	0	
11	0	0	0	0	299	610	0	367	0	0	
12	0	0	0	0	139	758	0	313	0	0	
13	0	0	0	0	2	880	0	275	0	0	
14	0	0	0	0	0	964	0	255	0	0	
15	0	0	0	0	0	1006	0	257	0	0	
0	0	0	0	0	0	998	0	280	0	0	
1	0	0	0	0	43	942	0	322	0	0	
2	0	0	0	0	167	843	0	379	0	0	
3	0	0	0	0	342	709	0	447	0	0	
4	0	0	0	0	548	555	0	516	0	0	
5	0	0	0	0	761	395	0	580	0	0	
6	0	0	0	0	952	246	0	634	0	0	
7	0	0	0	0	1021	124	0	671	0	0	
8	0	0	0	0	1021	38	0	689	0	0	
9	0	0	0	0	1021	0	0	686	0	0	
10	0	0	0	0	998	5	0	662	0	0	
11	0	0	0	0	905	60	0	619	0	0	
12	0	0	0	0	786	159	0	561	0	0	
13	0	0	0	0	643	291	0	495	0	0	
14	0	0	0	0	484	446	0	427	0	0	
15	0	0	0	0	318	605	0	363	0	0	
0	0	0	0	0	159	755	0	310	0	0	
1	0	0	0	0	23	878	0	272	0	0	
2	0	0	0	0	0	964	0	253	0	0	
3	0	0	0	0	0	1008	0	255	0	0	
4	0	0	0	0	0	1002	0	278	0	0	
5	0	0	0	0	45	947	0	319	0	0	
6	0	0	0	0	171	849	0	376	0	0	
7	0	0	0	0	345	716	0	443	0	0	
8	0	0	0	0	551	561	0	513	0	0	
9	0	0	0	0	765	400	0	578	0	0	
10	0	0	0	0	953	249	0	632	0	0	
11	0	0	0	0	1021	126	0	670	0	0	
12	0	0	0	0	1021	38	0	688	0	0	
13	0	0	0	0	1021	0	0	685	0	0	
14	0	0	0	0	997	2	0	662	0	0	
15	0	0	0	0	905	54	0	618	0	0	
0	0	0	0	0	786	150	0	560	0	0	
1	0	0	0	0	644	280	0	494	0	0	
2	0	0	0	0	487	432	0	425	0	0	
3	0	0	0	0	323	590	0	360	0	0	
4	0	0	0	0	167	739	0	307	0	0	
5	0	0	0	0	32	863	0	269	0	0	
6	0	0	0	0	0	950	0	249	0	0	
7	0	0	0	0	0	995	0	249	0	0	
8	0	0	0	0	0	991	0	271	0	0	
9	0	0	0	0	47	938	0	313	0	0	
10	0	0	0	0	174	843	0	369	0	0	
11	0	0	0	0	351	711	0	435	0	0	
12	0	0	0	0	559	559	0	504	0	0	
13	0	0	0	0	773	400	0	569	0	0	
14	0	0	0	0	963	251	0	623	0	0	
15	0	0	0	0	1021	128	0	661	0	0	
0	0	0	0	0	1021	40	0	680	0	0	
1	0	0	0	0	1021	0	0	677	0	0	
2	0	0	0	0	998	1	0	654	0	0	
3	0	0	0	0	907	51	0	610	0	0	
4	0	0	0	0	788	145	0	552	0	0	
5	0	0	0	0	646	273	0	485	0	0	
6	0	0	0	0	489	423	0	416	0	0	
7	0	0	0	0	323	579	0	351	0	0	
8	0	0	0	0	166	728	0	296	0	0	
9	0	0	0	0	31	851	0	258	0	0	
10	0	0	0	0	0	939	0	238	0	0	
11	0	0	0	0	0	984	0	239	0	0	
12	0	0	0	0	0	981	0	262	0	0	
13	0	0	0	0	43	930	0	303	0	0	
14	0	0	0	0	166	835	0	360	0	0	
15	0	0	0	0	339	703	0	427	0	0	
0	0	0	0	0	543	551	0	496	0	0	
1	0	0	0	0	754	391	0	561	0	0	
2	0	0	0	0	942	241	0	615	0	0	
3	0	0	0	0	1021	116	0	654	0	0	
4	0	0	0	0	1021	27	0	673	0	0	
5	0	0	0	0	1021	0	0	671	0	0	
6	0	0	0	0	994	0	0	648	0	0	
7	0	0	0	0	901	45	0	607	0	0	
8	0	0	0	0	780	138	0	551	0	0	
9	0	0	0	0	638	265	0	486	0	0	
10	0	0	0	0	482	416	0	419	0	0	
11	0	0	0	0	319	574	0	355	0	0	
12	0	0	0	0	164	723	0	303	0	0	
13	0	0	0	0	31	849	0	265	0	0	
14	0	0	0	0	0	939	0	246	0	0	
15	0	0	0	0	0	985	0	247	0	0	
0	0	0	0	0	0	984	0	269	0	0	
1	0	0	0	0	44	934	0	308	0	0	
2	0	0	0	0	167	839	0	363	0	0	
3	0	0	0	0	339	707	0	427	0	0	
4	0	0	0	0	543	554	0	493	0	0	
5	0	0	0	0	754	393	0	556	0	0	
6	0	0	0	0	942	242	0	608	0	0	
7	0	0	0	0	1021	115	0	643	0	0	
8	0	0	0	0	1021	24	0	660	0	0	
9	0	0	0	0	1021	0	0	656	0	0	
10	0	0	0	0	991	0	0	631	0	0	
11	0	0	0	0	893	36	0	587	0	0	
12	0	0	0	0	768	124	0	528	0	0	
13	0	0	0	0	622	246	0	462	0	0	
14	0	0	0	0	462	391	0	393	0	0	
15	0	0	0	0	296	545	0	329	0	0	
0	0	0	0	0	139	693	0	276	0	0	
1	0	0	0	0	6	817	0	238	0	0	
2	0	0	0	0	0	906	0	219	0	0	
3	0	0	0	0	0	954	0	220	0	0	
4	0	0	0	0	0	955	0	243	0	0	
5	0	0	0	0	39	908	0	285	0	0	
6	0	0	0	0	162	816	0	343	0	0	
7	0	0	0	0	334	690	0	410	0	0	
8	0	0	0	0	539	541	0	481	0	0	
9	0	0	0	0	751	385	0	547	0	0	
10	0	0	0	0	942	239	0	603	0	0	
11	0	0	0	0	1021	116	0	643	0	0	
12	0	0	0	0	1021	28	0	662	0	0	
13	0	0	0	0	1021	0	0	660	0	0	
14	0	0	0	0	996	0	0	637	0	0	
15	0	0	0	0	901	40	0	593	0	0	
0	0	0	0	0	778	128	0	535	0	0	
1	0	0	0	0	632	251	0	467	0	0	
2	0	0	0	0	469	395	0	396	0	0	
3	0	0	0	0	300	547	0	331	0	0	
4	0	0	0	0	139	693	0	275	0	0	
5	0	0	0	0	0	815	0	233	0	0	
6	0	0	0	0	0	901	0	210	0	0	
7	0	0	0	0	0	946	0	207	0	0	
8	0	0	0	0	0	943	0	226	0	0	
9	0	0	0	0	25	893	0	263	0	0	
10	0	0	0	0	137	798	0	317	0	0	
11	0	0	0	0	300	669	0	382	0	0	
12	0	0	0	0	497	518	0	451	0	0	
13	0	0	0	0	704	359	0	516	0	0	
14	0	0	0	0	891	212	0	572	0	0	
15	0	0	0	0	1021	88	0	612	0	0	
0	0	0	0	0	1021	0	0	633	0	0	
1	0	0	0	0	1021	0	0	632	0	0	
2	0	0	0	0	987	0	0	611	0	0	
3	0	0	0	0	885	31	0	569	0	0	
4	0	0	0	0	755	115	0	513	0	0	
5	0	0	0	0	604	233	0	448	0	0	
6	0	0	0	0	437	375	0	379	0	0	
7	0	0	0	0	265	525	0	314	0	0	
8	0	0	0	0	102	669	0	258	0	0	
9	0	0	0	0	0	791	0	217	0	0	
10	0	0	0	0	0	878	0	193	0	0	
11	0	0	0	0	0	923	0	191	0	0	
12	0	0	0	0	0	923	0	209	0	0	
13	0	0	0	0	20	876	0	246	0	0	
14	0	0	0	0	127	785	0	300	0	0	
15	0	0	0	0	287	659	0	365	0	0	
0	0	0	0	0	481	511	0	434	0	0	
1	0	0	0	0	685	355	0	500	0	0	
2	0	0	0	0	872	209	0	557	0	0	
3	0	0	0	0	1017	86	0	599	0	0	
4	0	0	0	0	1021	0	0	620	0	0	
5	0	0	0	0	1021	0	0	620	0	0	
6	0	0	0	0	984	0	0	600	0	0	
7	0	0	0	0	881	26	0	558	0	0	
8	0	0	0	0	751	106	0	502	0	0	
9	0	0	0	0	600	221	0	436	0	0	
10	0	0	0	0	435	358	0	367	0	0	
11	0	0	0	0	264	504	0	302	0	0	
12	0	0	0	0	103	645	0	245	0	0	
13	0	0	0	0	0	764	0	203	0	0	
14	0	0	0	0	0	850	0	178	0	0	
15	0	0	0	0	0	895	0	174	0	0	
0	0	0	0	0	0	894	0	191	0	0	
1	0	0	0	0	17	846	0	228	0	0	
2	0	0	0	0	122	755	0	281	0	0	
3	0	0	0	0	279	631	0	346	0	0	
4	0	0	0	0	470	485	0	415	0	0	
5	0	0	0	0	672	332	0	483	0	0	
6	0	0	0	0	858	189	0	540	0	0	
7	0	0	0	0	1002	68	0	582	0	0	
8	0	0	0	0	1021	0	0	605	0	0	
9	0	0	0	0	1021	0	0	606	0	0	
10	0	0	0	0	979	0	0	585	0	0	
11	0	0	0	0	872	22	0	545	0	0	
12	0	0	0	0	738	99	0	489	0	0	
13	0	0	0	0	582	211	0	424	0	0	
14	0	0	0	0	413	345	0	356	0	0	
15	0	0	0	0	239	490	0	291	0	0	
0	0	0	0	0	76	630	0	235	0	0	
1	0	0	0	0	0	750	0	193	0	0	
2	0	0	0	0	0	837	0	169	0	0	
3	0	0	0	0	0	884	0	167	0	0	
4	0	0	0	0	0	885	0	185	0	0	
5	0	0	0	0	15	842	0	224	0	0	
6	0	0	0	0	121	754	0	278	0	0	
7	0	0	0	0	280	633	0	344	0	0	
8	0	0	0	0	472	490	0	416	0	0	
9	0	0	0	0	678	339	0	485	0	0	
10	0	0	0	0	866	199	0	544	0	0	
11	0	0	0	0	1014	80	0	588	0	0	
12	0	0	0	0	1021	0	0	614	0	0	
13	0	0	0	0	1021	0	0	616	0	0	
14	0	0	0	0	986	0	0	597	0	0	
15	0	0	0	0	883	25	0	558	0	0	
0	0	0	0	0	753	104	0	503	0	0	
1	0	0	0	0	601	218	0	438	0	0	
2	0	0	0	0	435	354	0	370	0	0	
3	0	0	0	0	263	500	0	305	0	0	
4	0	0	0	0	102	641	0	251	0	0	
5	0	0	0	0	0	763	0	210	0	0	
6	0	0	0	0	0	852	0	188	0	0	
7	0	0	0	0	0	901	0	186	0	0	
8	0	0	0	0	0	904	0	206	0	0	
9	0	0	0	0	21	863	0	247	0	0	
10	0	0	0	0	131	778	0	303	0	0	
11	0	0	0	0	295	659	0	372	0	0	
12	0	0	0	0	494	518	0	445	0	0	
13	0	0	0	0	705	369	0	516	0	0	
14	0	0	0	0	900	229	0	577	0	0	
15	0	0	0	0	1021	112	0	622	0	0	
0	0	0	0	0	1021	27	0	649	0	0	
1	0	0	0	0	1021	0	0	653	0	0	
2	0	0	0	0	1004	0	0	636	0	0	
3	0	0	0	0	915	42	0	599	0	0	
4	0	0	0	0	797	131	0	545	0	0	
5	0	0	0	0	656	254	0	482	0	0	
6	0	0	0	0	500	399	0	415	0	0	
7	0	0	0	0	335	553	0	351	0	0	
8	0	0	0	0	177	700	0	297	0	0	
9	0	0	0	0	38	826	0	256	0	0	
10	0	0	0	0	0	917	0	234	0	0	
11	0	0	0	0	0	967	0	232	0	0	
12	0	0	0	0	0	970	0	253	0	0	
13	0	0	0	0	32	927	0	291	0	0	
14	0	0	0	0	150	839	0	347	0	0	
15	0	0	0	0	322	716	0	414	0	0	
0	0	0	0	0	529	569	0	484	0	0	
1	0	0	0	0	749	415	0	552	0	0	
2	0	0	0	0	950	268	0	611	0	0	
3	0	0	0	0	1021	144	0	654	0	0	
4	0	0	0	0	1021	54	0	679	0	0	
5	0	0	0	0	1021	6	0	682	0	0	
6	0	0	0	0	1019	3	0	665	0	0	
7	0	0	0	0	939	50	0	628	0	0	
8	0	0	0	0	831	141	0	575	0	0	
9	0	0	0	0	700	267	0	513	0	0	
10	0	0	0	0	551	418	0	447	0	0	
11	0	0	0	0	393	577	0	384	0	0	
12	0	0	0	0	236	729	0	331	0	0	
13	0	0	0	0	98	858	0	291	0	0	
14	0	0	0	0	0	953	0	270	0	0	
15	0	0	0	0	0	1006	0	268	0	0	
0	0	0	0	0	0	1011	0	287	0	0	
1	0	0	0	0	37	967	0	325	0	0	
2	0	0	0	0	156	878	0	379	0	0	
3	0	0	0	0	328	752	0	443	0	0	
4	0	0	0	0	536	602	0	512	0	0	
5	0	0	0	0	755	443	0	577	0	0	
6	0	0	0	0	955	288	0	633	0	0	
7	0	0	0	0	1021	159	0	674	0	0	
8	0	0	0	0	1021	64	0	697	0	0	
9	0	0	0	0	1021	10	0	699	0	0	
10	0	0	0	0	1020	3	0	680	0	0	
11	0	0	0	0	941	45	0	641	0	0	
12	0	0	0	0	834	133	0	587	0	0	
13	0	0	0	0	703	258	0	522	0	0	
14	0	0	0	0	552	408	0	454	0	0	
15	0	0	0	0	392	568	0	390	0	0	
0	0	0	0	0	234	722	0	334	0	0	
1	0	0	0	0	94	854	0	294	0	0	
2	0	0	0	0	0	952	0	272	0	0	
3	0	0	0	0	0	1010	0	271	0	0	
4	0	0	0	0	0	1019	0	290	0	0	
5	0	0	0	0	35	979	0	329	0	0	
6	0	0	0	0	155	894	0	384	0	0	
7	0	0	0	0	328	770	0	449	0	0	
8	0	0	0	0	539	622	0	518	0	0	
9	0	0	0	0	760	463	0	584	0	0	
10	0	0	0	0	963	308	0	640	0	0	
11	0	0	0	0	1021	177	0	681	0	0	
12	0	0	0	0	1021	80	0	703	0	0	
13	0	0	0	0	1021	24	0	705	0	0	
14	0	0	0	0	1021	15	0	686	0	0	
15	0	0	0	0	948	55	0	647	0	0	
0	0	0	0	0	842	142	0	592	0	0	
1	0	0	0	0	711	266	0	528	0	0	
2	0	0	0	0	560	415	0	460	0	0	
3	0	0	0	0	398	574	0	395	0	0	
4	0	0	0	0	237	728	0	339	0	0	
5	0	0	0	0	94	861	0	297	0	0	
6	0	0	0	0	0	958	0	274	0	0	
7	0	0	0	0	0	1015	0	271	0	0	
8	0	0	0	0	0	1021	0	289	0	0	
9	0	0	0	0	26	982	0	327	0	0	
10	0	0	0	0	140	896	0	381	0	0	
11	0	0	0	0	309	772	0	446	0	0	
12	0	0	0	0	516	624	0	514	0	0	
13	0	0	0	0	736	464	0	581	0	0	
14	0	0	0	0	940	309	0	637	0	0	
15	0	0	0	0	1021	178	0	679	0	0	
0	0	0	0	0	1021	80	0	703	0	0	
1	0	0	0	0	1021	23	0	705	0	0	
2	0	0	0	0	1021	14	0	687	0	0	
3	0	0	0	0	952	54	0	649	0	0	
4	0	0	0	0	848	139	0	596	0	0	
5	0	0	0	0	719	263	0	532	0	0	
6	0	0	0	0	572	412	0	465	0	0	
7	0	0	0	0	413	572	0	400	0	0	
8	0	0	0	0	254	727	0	345	0	0	
9	0	0	0	0	112	860	0	303	0	0	
10	0	0	0	0	1	959	0	280	0	0	
11	0	0	0	0	0	1017	0	276	0	0	
12	0	0	0	0	0	1021	0	293	0	0	
13	0	0	0	0	28	984	0	329	0	0	
14	0	0	0	0	141	900	0	381	0	0	
15	0	0	0	0	310	776	0	444	0	0	
0	0	0	0	0	515	628	0	510	0	0	
1	0	0	0	0	734	468	0	574	0	0	
2	0	0	0	0	936	312	0	628	0	0	
3	0	0	0	0	1021	179	0	669	0	0	
4	0	0	0	0	1021	80	0	691	0	0	
5	0	0	0	0	1021	22	0	694	0	0	
6	0	0	0	0	1021	11	0	677	0	0	
7	0	0	0	0	948	49	0	640	0	0	
8	0	0	0	0	842	134	0	588	0	0	
9	0	0	0	0	711	257	0	525	0	0	
10	0	0	0	0	563	406	0	459	0	0	
11	0	0	0	0	402	565	0	395	0	0	
12	0	0	0	0	241	719	0	339	0	0	
13	0	0	0	0	99	852	0	298	0	0	
14	0	0	0	0	0	951	0	274	0	0	
15	0	0	0	0	0	1009	0	270	0	0	
0	0	0	0	0	0	1019	0	286	0	0	
1	0	0	0	0	23	979	0	321	0	0	
2	0	0	0	0	133	894	0	373	0	0	
3	0	0	0	0	297	771	0	435	0	0	
4	0	0	0	0	501	622	0	502	0	0	
5	0	0	0	0	719	461	0	567	0	0	
6	0	0	0	0	921	305	0	622	0	0	
7	0	0	0	0	1021	172	0	663	0	0	
8	0	0	0	0	1021	71	0	687	0	0	
9	0	0	0	0	1021	13	0	690	0	0	
10	0	0	0	0	1021	1	0	673	0	0	
11	0	0	0	0	945	38	0	637	0	0	
12	0	0	0	0	837	123	0	585	0	0	
13	0	0	0	0	705	245	0	523	0	0	
14	0	0	0	0	555	393	0	455	0	0	
15	0	0	0	0	394	552	0	391	0	0	
0	0	0	0	0	234	707	0	336	0	0	
1	0	0	0	0	91	841	0	294	0	0	
2	0	0	0	0	0	942	0	270	0	0	
3	0	0	0	0	0	1001	0	265	0	0	
4	0	0	0	0	0	1014	0	281	0	0	
5	0	0	0	0	22	975	0	317	0	0	
6	0	0	0	0	130	892	0	369	0	0	
7	0	0	0	0	293	770	0	432	0	0	
8	0	0	0	0	493	621	0	499	0	0	
9	0	0	0	0	707	460	0	564	0	0	
10	0	0	0	0	907	304	0	621	0	0	
11	0	0	0	0	1021	170	0	663	0	0	
12	0	0	0	0	1021	69	0	687	0	0	
13	0	0	0	0	1021	9	0	690	0	0	
14	0	0	0	0	1020	0	0	673	0	0	
15	0	0	0	0	939	34	0	636	0	0	
0	0	0	0	0	830	117	0	584	0	0	
1	0	0	0	0	699	239	0	521	0	0	
2	0	0	0	0	550	386	0	455	0	0	
3	0	0	0	0	391	546	0	391	0	0	
4	0	0	0	0	236	702	0	336	0	0	
5	0	0	0	0	97	838	0	296	0	0	
6	0	0	0	0	0	940	0	273	0	0	
7	0	0	0	0	0	1001	0	270	0	0	
8	0	0	0	0	0	1015	0	287	0	0	
9	0	0	0	0	27	979	0	324	0	0	
10	0	0	0	0	139	897	0	377	0	0	
11	0	0	0	0	304	775	0	441	0	0	
12	0	0	0	0	506	627	0	509	0	0	
13	0	0	0	0	722	466	0	575	0	0	
14	0	0	0	0	922	307	0	631	0	0	
15	0	0	0	0	1021	172	0	672	0	0	
0	0	0	0	0	1021	68	0	694	0	0	
1	0	0	0	0	1021	5	0	696	0	0	
2	0	0	0	0	1021	0	0	678	0	0	
3	0	0	0	0	939	26	0	639	0	0	
4	0	0	0	0	830	105	0	584	0	0	
5	0	0	0	0	697	223	0	519	0	0	
6	0	0	0	0	546	367	0	450	0	0	
7	0	0	0	0	385	524	0	384	0	0	
8	0	0	0	0	227	679	0	327	0	0	
9	0	0	0	0	86	814	0	284	0	0	
10	0	0	0	0	0	916	0	259	0	0	
11	0	0	0	0	0	978	0	255	0	0	
12	0	0	0	0	0	994	0	272	0	0	
13	0	0	0	0	23	960	0	309	0	0	
14	0	0	0	0	131	882	0	362	0	0	
15	0	0	0	0	294	764	0	427	0	0	
0	0	0	0	0	495	620	0	497	0	0	
1	0	0	0	0	711	463	0	565	0	0	
2	0	0	0	0	914	310	0	623	0	0	
3	0	0	0	0	1021	178	0	668	0	0	
4	0	0	0	0	1021	77	0	694	0	0	
5	0	0	0	0	1021	17	0	698	0	0	
6	0	0	0	0	1021	2	0	681	0	0	
7	0	0	0	0	945	36	0	644	0	0	
8	0	0	0	0	838	117	0	591	0	0	
9	0	0	0	0	707	235	0	527	0	0	
10	0	0	0	0	557	380	0	458	0	0	
11	0	0	0	0	397	536	0	392	0	0	
12	0	0	0	0	237	691	0	334	0	0	
13	0	0	0	0	95	825	0	291	0	0	
14	0	0	0	0	0	925	0	265	0	0	
15	0	0	0	0	0	986	0	259	0	0	
0	0	0	0	0	0	1000	0	275	0	0	
1	0	0	0	0	20	966	0	311	0	0	
2	0	0	0	0	127	886	0	363	0	0	
3	0	0	0	0	291	766	0	428	0	0	
4	0	0	0	0	494	621	0	496	0	0	
5	0	0	0	0	712	464	0	564	0	0	
6	0	0	0	0	917	310	0	622	0	0	
7	0	0	0	0	1021	178	0	667	0	0	
8	0	0	0	0	1021	78	0	693	0	0	
9	0	0	0	0	1021	18	0	699	0	0	
10	0	0	0	0	1021	4	0	683	0	0	
11	0	0	0	0	952	39	0	647	0	0	
12	0	0	0	0	847	120	0	595	0	0	
13	0	0	0	0	716	239	0	531	0	0	
14	0	0	0	0	568	384	0	462	0	0	
15	0	0	0	0	407	541	0	394	0	0	
0	0	0	0	0	246	695	0	335	0	0	
1	0	0	0	0	102	828	0	289	0	0	
2	0	0	0	0	0	928	0	262	0	0	
3	0	0	0	0	0	988	0	254	0	0	
4	0	0	0	0	0	1002	0	268	0	0	
5	0	0	0	0	16	968	0	302	0	0	
6	0	0	0	0	120	887	0	353	0	0	
7	0	0	0	0	279	767	0	417	0	0	
8	0	0	0	0	478	621	0	486	0	0	
9	0	0	0	0	693	463	0	553	0	0	
10	0	0	0	0	896	308	0	612	0	0	
11	0	0	0	0	1021	175	0	657	0	0	
12	0	0	0	0	1021	73	0	684	0	0	
13	0	0	0	0	1021	12	0	691	0	0	
14	0	0	0	0	1021	0	0	676	0	0	
15	0	0	0	0	948	31	0	640	0	0	
0	0	0	0	0	840	111	0	588	0	0	
1	0	0	0	0	708	230	0	525	0	0	
2	0	0	0	0	557	375	0	456	0	0	
3	0	0	0	0	395	534	0	389	0	0	
4	0	0	0	0	235	689	0	332	0	0	
5	0	0	0	0	91	825	0	287	0	0	
6	0	0	0	0	0	929	0	260	0	0	
7	0	0	0	0	0	993	0	252	0	0	
8	0	0	0	0	0	1008	0	267	0	0	
9	0	0	0	0	16	976	0	300	0	0	
10	0	0	0	0	118	897	0	350	0	0	
11	0	0	0	0	278	779	0	414	0	0	
12	0	0	0	0	476	634	0	482	0	0	
13	0	0	0	0	691	475	0	549	0	0	
14	0	0	0	0	893	318	0	608	0	0	
15	0	0	0	0	1021	183	0	653	0	0	
0	0	0	0	0	1021	79	0	680	0	0	
1	0	0	0	0	1021	15	0	686	0	0	
2	0	0	0	0	1021	0	0	672	0	0	
3	0	0	0	0	946	30	0	638	0	0	
4	0	0	0	0	837	108	0	587	0	0	
5	0	0	0	0	705	226	0	524	0	0	
6	0	0	0	0	554	371	0	457	0	0	
7	0	0	0	0	392	529	0	391	0	0	
8	0	0	0	0	232	684	0	334	0	0	
9	0	0	0	0	88	822	0	289	0	0	
10	0	0	0	0	0	926	0	262	0	0	
11	0	0	0	0	0	990	0	255	0	0	
12	0	0	0	0	0	1009	0	270	0	0	
13	0	0	0	0	15	977	0	304	0	0	
14	0	0	0	0	117	900	0	355	0	0	
15	0	0	0	0	277	783	0	418	0	0	
0	0	0	0	0	477	638	0	487	0	0	
1	0	0	0	0	693	480	0	554	0	0	
2	0	0	0	0	898	323	0	615	0	0	
3	0	0	0	0	1021	188	0	660	0	0	
4	0	0	0	0	1021	84	0	688	0	0	
5	0	0	0	0	1021	20	0	696	0	0	
6	0	0	0	0	1021	2	0	682	0	0	
7	0	0	0	0	953	32	0	647	0	0	
8	0	0	0	0	846	111	0	596	0	0	
9	0	0	0	0	715	229	0	534	0	0	
10	0	0	0	0	563	374	0	465	0	0	
11	0	0	0	0	401	532	0	399	0	0	
12	0	0	0	0	238	689	0	340	0	0	
13	0	0	0	0	91	827	0	294	0	0	
14	0	0	0	0	0	932	0	266	0	0	
15	0	0	0	0	0	997	0	258	0	0	
0	0	0	0	0	0	1015	0	270	0	0	
1	0	0	0	0	10	984	0	303	0	0	
2	0	0	0	0	109	907	0	352	0	0	
3	0	0	0	0	265	790	0	414	0	0	
4	0	0	0	0	462	644	0	481	0	0	
5	0	0	0	0	676	485	0	547	0	0	
6	0	0	0	0	881	327	0	606	0	0	
7	0	0	0	0	1021	190	0	651	0	0	
8	0	0	0	0	1021	84	0	679	0	0	
9	0	0	0	0	1021	18	0	687	0	0	
10	0	0	0	0	1021	0	0	674	0	0	
11	0	0	0	0	953	28	0	641	0	0	
12	0	0	0	0	847	104	0	591	0	0	
13	0	0	0	0	718	221	0	530	0	0	
14	0	0	0	0	570	366	0	464	0	0	
15	0	0	0	0	410	524	0	399	0	0	
0	0	0	0	0	250	682	0	341	0	0	
1	0	0	0	0	106	820	0	297	0	0	
2	0	0	0	0	0	926	0	270	0	0	
3	0	0	0	0	0	992	0	262	0	0	
4	0	0	0	0	0	1013	0	275	0	0	
5	0	0	0	0	12	983	0	307	0	0	
6	0	0	0	0	111	906	0	357	0	0	
7	0	0	0	0	268	789	0	419	0	0	
8	0	0	0	0	466	644	0	487	0	0	
9	0	0	0	0	681	486	0	553	0	0	
10	0	0	0	0	888	329	0	612	0	0	
11	0	0	0	0	1021	192	0	657	0	0	
12	0	0	0	0	1021	86	0	685	0	0	
13	0	0	0	0	1021	20	0	692	0	0	
14	0	0	0	0	1021	1	0	679	0	0	
15	0	0	0	0	956	29	0	644	0	0	
0	0	0	0	0	851	106	0	593	0	0	
1	0	0	0	0	720	222	0	531	0	0	
2	0	0	0	0	571	365	0	462	0	0	
3	0	0	0	0	410	522	0	396	0	0	
4	0	0	0	0	248	678	0	336	0	0	
5	0	0	0	0	101	815	0	290	0	0	
6	0	0	0	0	0	921	0	262	0	0	
7	0	0	0	0	0	987	0	254	0	0	
8	0	0	0	0	0	1007	0	267	0	0	
9	0	0	0	0	8	977	0	299	0	0	
10	0	0	0	0	106	902	0	350	0	0	
11	0	0	0	0	263	786	0	413	0	0	
12	0	0	0	0	460	643	0	482	0	0	
13	0	0	0	0	676	485	0	551	0	0	
14	0	0	0	0	884	329	0	611	0	0	
15	0	0	0	0	1021	193	0	659	0	0	
0	0	0	0	0	1021	88	0	688	0	0	
1	0	0	0	0	1021	22	0	697	0	0	
2	0	0	0	0	1021	2	0	685	0	0	
3	0	0	0	0	965	31	0	652	0	0	
4	0	0	0	0	864	106	0	602	0	0	
5	0	0	0	0	739	221	0	540	0	0	
6	0	0	0	0	594	364	0	472	0	0	
7	0	0	0	0	436	520	0	404	0	0	
8	0	0	0	0	276	675	0	345	0	0	
9	0	0	0	0	130	812	0	298	0	0	
10	0	0	0	0	11	918	0	269	0	0	
11	0	0	0	0	0	983	0	260	0	0	
12	0	0	0	0	0	1002	0	271	0	0	
13	0	0	0	0	8	973	0	303	0	0	
14	0	0	0	0	104	896	0	351	0	0	
15	0	0	0	0	257	780	0	412	0	0	
0	0	0	0	0	451	635	0	479	0	0	
1	0	0	0	0	665	476	0	545	0	0	
2	0	0	0	0	871	318	0	603	0	0	
3	0	0	0	0	1021	180	0	648	0	0	
4	0	0	0	0	1021	73	0	676	0	0	
5	0	0	0	0	1021	6	0	684	0	0	
6	0	0	0	0	1021	0	0	671	0	0	
7	0	0	0	0	958	20	0	639	0	0	
8	0	0	0	0	854	94	0	591	0	0	
9	0	0	0	0	726	208	0	530	0	0	
10	0	0	0	0	579	351	0	465	0	0	
11	0	0	0	0	420	510	0	400	0	0	
12	0	0	0	0	260	667	0	343	0	0	
13	0	0	0	0	115	807	0	298	0	0	
14	0	0	0	0	0	915	0	271	0	0	
15	0	0	0	0	0	984	0	263	0	0	
0	0	0	0	0	0	1007	0	275	0	0	
1	0	0	0	0	9	980	0	307	0	0	
2	0	0	0	0	106	907	0	357	0	0	
3	0	0	0	0	262	793	0	419	0	0	
4	0	0	0	0	460	650	0	487	0	0	
5	0	0	0	0	677	493	0	556	0	0	
6	0	0	0	0	886	335	0	615	0	0	
7	0	0	0	0	1021	198	0	661	0	0	
8	0	0	0	0	1021	90	0	690	0	0	
9	0	0	0	0	1021	22	0	699	0	0	
10	0	0	0	0	1021	0	0	686	0	0	
11	0	0	0	0	964	24	0	651	0	0	
12	0	0	0	0	862	96	0	600	0	0	
13	0	0	0	0	735	208	0	537	0	0	
14	0	0	0	0	588	348	0	468	0	0	
15	0	0	0	0	428	503	0	399	0	0	
0	0	0	0	0	267	658	0	338	0	0	
1	0	0	0	0	119	796	0	291	0	0	
2	0	0	0	0	0	902	0	260	0	0	
3	0	0	0	0	0	970	0	250	0	0	
4	0	0	0	0	0	993	0	261	0	0	
5	0	0	0	0	5	967	0	293	0	0	
6	0	0	0	0	98	895	0	342	0	0	
7	0	0	0	0	250	783	0	405	0	0	
8	0	0	0	0	444	642	0	474	0	0	
9	0	0	0	0	659	487	0	543	0	0	
10	0	0	0	0	866	332	0	605	0	0	
11	0	0	0	0	1021	196	0	653	0	0	
12	0	0	0	0	1021	90	0	684	0	0	
13	0	0	0	0	1021	22	0	694	0	0	
14	0	0	0	0	1021	0	0	683	0	0	
15	0	0	0	0	963	24	0	651	0	0	
0	0	0	0	0	860	96	0	601	0	0	
1	0	0	0	0	732	209	0	539	0	0	
2	0	0	0	0	584	350	0	471	0	0	
3	0	0	0	0	425	506	0	404	0	0	
4	0	0	0	0	263	662	0	344	0	0	
5	0	0	0	0	116	801	0	296	0	0	
6	0	0	0	0	0	910	0	266	0	0	
7	0	0	0	0	0	979	0	256	0	0	
8	0	0	0	0	0	1003	0	268	0	0	
9	0	0	0	0	6	977	0	298	0	0	
10	0	0	0	0	101	905	0	348	0	0	
11	0	0	0	0	255	792	0	410	0	0	
12	0	0	0	0	452	651	0	479	0	0	
13	0	0	0	0	670	494	0	547	0	0	
14	0	0	0	0	880	337	0	608	0	0	
15	0	0	0	0	1020	199	0	656	0	0	
0	0	0	0	0	1021	91	0	686	0	0	
1	0	0	0	0	1021	22	0	697	0	0	
2	0	0	0	0	1021	0	0	686	0	0	
3	0	0	0	0	971	23	0	655	0	0	
4	0	0	0	0	872	95	0	606	0	0	
5	0	0	0	0	749	207	0	544	0	0	
6	0	0	0	0	606	348	0	476	0	0	
7	0	0	0	0	450	505	0	408	0	0	
8	0	0	0	0	291	662	0	348	0	0	
9	0	0	0	0	144	802	0	299	0	0	
10	0	0	0	0	24	911	0	268	0	0	
11	0	0	0	0	0	980	0	255	0	0	
12	0	0	0	0	0	1004	0	264	0	0	
13	0	0	0	0	6	978	0	293	0	0	
14	0	0	0	0	97	906	0	339	0	0	
15	0	0	0	0	248	792	0	400	0	0	
0	0	0	0	0	442	649	0	466	0	0	
1	0	0	0	0	656	491	0	533	0	0	
2	0	0	0	0	865	332	0	594	0	0	
3	0	0	0	0	1021	192	0	641	0	0	
4	0	0	0	0	1021	83	0	672	0	0	
5	0	0	0	0	1021	12	0	683	0	0	
6	0	0	0	0	1021	0	0	672	0	0	
7	0	0	0	0	967	16	0	641	0	0	
8	0	0	0	0	865	87	0	593	0	0	
9	0	0	0	0	739	198	0	533	0	0	
10	0	0	0	0	594	338	0	466	0	0	
11	0	0	0	0	437	495	0	401	0	0	
12	0	0	0	0	277	652	0	343	0	0	
13	0	0	0	0	131	794	0	296	0	0	
14	0	0	0	0	12	905	0	267	0	0	
15	0	0	0	0	0	977	0	257	0	0	
0	0	0	0	0	0	1004	0	268	0	0	
1	0	0	0	0	6	983	0	299	0	0	
2	0	0	0	0	99	913	0	347	0	0	
3	0	0	0	0	252	802	0	408	0	0	
4	0	0	0	0	448	661	0	476	0	0	
5	0	0	0	0	664	504	0	543	0	0	
6	0	0	0	0	875	347	0	603	0	0	
7	0	0	0	0	1020	206	0	650	0	0	
8	0	0	0	0	1021	96	0	681	0	0	
9	0	0	0	0	1021	24	0	691	0	0	
10	0	0	0	0	1021	0	0	681	0	0	
11	0	0	0	0	973	20	0	650	0	0	
12	0	0	0	0	875	90	0	602	0	0	
13	0	0	0	0	752	201	0	542	0	0	
14	0	0	0	0	609	342	0	476	0	0	
15	0	0	0	0	454	498	0	410	0	0	
0	0	0	0	0	294	656	0	351	0	0	
1	0	0	0	0	147	797	0	304	0	0	
2	0	0	0	0	25	908	0	273	0	0	
3	0	0	0	0	0	980	0	262	0	0	
4	0	0	0	0	0	1006	0	271	0	0	
5	0	0	0	0	3	983	0	300	0	0	
6	0	0	0	0	92	912	0	347	0	0	
7	0	0	0	0	240	800	0	407	0	0	
8	0	0	0	0	432	658	0	472	0	0	
9	0	0	0	0	646	499	0	539	0	0	
10	0	0	0	0	855	341	0	598	0	0	
11	0	0	0	0	1021	199	0	644	0	0	
12	0	0	0	0	1021	88	0	675	0	0	
13	0	0	0	0	1021	15	0	685	0	0	
14	0	0	0	0	1021	0	0	675	0	0	
15	0	0	0	0	971	15	0	643	0	0	
0	0	0	0	0	871	83	0	596	0	0	
1	0	0	0	0	748	193	0	536	0	0	
2	0	0	0	0	604	332	0	469	0	0	
3	0	0	0	0	449	488	0	403	0	0	
4	0	0	0	0	289	645	0	343	0	0	
5	0	0	0	0	143	786	0	295	0	0	
6	0	0	0	0	22	897	0	264	0	0	
7	0	0	0	0	0	970	0	252	0	0	
8	0	0	0	0	0	998	0	261	0	0	
9	0	0	0	0	3	977	0	291	0	0	
10	0	0	0	0	92	909	0	338	0	0	
11	0	0	0	0	241	799	0	398	0	0	
12	0	0	0	0	434	659	0	466	0	0	
13	0	0	0	0	647	503	0	534	0	0	
14	0	0	0	0	857	346	0	595	0	0	
15	0	0	0	0	1021	206	0	643	0	0	
0	0	0	0	0	1021	95	0	674	0	0	
1	0	0	0	0	1021	22	0	686	0	0	
2	0	0	0	0	1021	0	0	675	0	0	
3	0	0	0	0	971	16	0	645	0	0	
4	0	0	0	0	871	83	0	596	0	0	
5	0	0	0	0	747	191	0	534	0	0	
6	0	0	0	0	603	327	0	466	0	0	
7	0	0	0	0	447	482	0	398	0	0	
8	0	0	0	0	286	638	0	336	0	0	
9	0	0	0	0	140	778	0	287	0	0	
10	0	0	0	0	18	889	0	255	0	0	
11	0	0	0	0	0	962	0	242	0	0	
12	0	0	0	0	0	991	0	251	0	0	
13	0	0	0	0	1	971	0	280	0	0	
14	0	0	0	0	89	903	0	328	0	0	
15	0	0	0	0	236	794	0	390	0	0	
0	0	0	0	0	428	655	0	458	0	0	
1	0	0	0	0	641	500	0	527	0	0	
2	0	0	0	0	852	343	0	590	0	0	
3	0	0	0	0	1021	204	0	641	0	0	
4	0	0	0	0	1021	93	0	674	0	0	
5	0	0	0	0	1021	21	0	687	0	0	
6	0	0	0	0	1021	0	0	679	0	0	
7	0	0	0	0	975	17	0	652	0	0	
8	0	0	0	0	875	86	0	605	0	0	
9	0	0	0	0	751	196	0	547	0	0	
10	0	0	0	0	606	336	0	481	0	0	
11	0	0	0	0	448	494	0	415	0	0	
12	0	0	0	0	285	652	0	354	0	0	
13	0	0	0	0	135	795	0	306	0	0	
14	0	0	0	0	11	907	0	274	0	0	
15	0	0	0	0	0	981	0	261	0	0	
0	0	0	0	0	0	1011	0	268	0	0	
1	0	0	0	0	0	990	0	295	0	0	
2	0	0	0	0	82	923	0	340	0	0	
3	0	0	0	0	227	812	0	398	0	0	
4	0	0	0	0	417	671	0	463	0	0	
5	0	0	0	0	630	513	0	529	0	0	
6	0	0	0	0	840	353	0	588	0	0	
7	0	0	0	0	1018	209	0	635	0	0	
8	0	0	0	0	1021	94	0	665	0	0	
9	0	0	0	0	1021	18	0	676	0	0	
10	0	0	0	0	1021	0	0	666	0	0	
11	0	0	0	0	971	9	0	636	0	0	
12	0	0	0	0	868	73	0	588	0	0	
13	0	0	0	0	740	179	0	528	0	0	
14	0	0	0	0	591	315	0	461	0	0	
15	0	0	0	0	430	468	0	394	0	0	
0	0	0	0	0	264	624	0	334	0	0	
1	0	0	0	0	112	766	0	285	0	0	
2	0	0	0	0	0	878	0	253	0	0	
3	0	0	0	0	0	953	0	240	0	0	
4	0	0	0	0	0	983	0	247	0	0	
5	0	0	0	0	0	964	0	274	0	0	
6	0	0	0	0	73	897	0	319	0	0	
7	0	0	0	0	215	788	0	379	0	0	
8	0	0	0	0	401	650	0	445	0	0	
9	0	0	0	0	612	494	0	512	0	0	
10	0	0	0	0	823	336	0	574	0	0	
11	0	0	0	0	1003	195	0	622	0	0	
12	0	0	0	0	1021	82	0	654	0	0	
13	0	0	0	0	1021	6	0	666	0	0	
14	0	0	0	0	1021	0	0	657	0	0	
15	0	0	0	0	972	7	0	627	0	0	
0	0	0	0	0	869	69	0	580	0	0	
1	0	0	0	0	741	174	0	520	0	0	
2	0	0	0	0	593	308	0	453	0	0	
3	0	0	0	0	431	460	0	386	0	0	
4	0	0	0	0	266	614	0	325	0	0	
5	0	0	0	0	112	755	0	275	0	0	
6	0	0	0	0	0	867	0	242	0	0	
7	0	0	0	0	0	941	0	228	0	0	
8	0	0	0	0	0	970	0	234	0	0	
9	0	0	0	0	0	951	0	261	0	0	
10	0	0	0	0	65	883	0	305	0	0	
11	0	0	0	0	201	775	0	363	0	0	
12	0	0	0	0	382	635	0	428	0	0	
13	0	0	0	0	588	479	0	495	0	0	
14	0	0	0	0	795	321	0	556	0	0	
15	0	0	0	0	972	179	0	605	0	0	
0	0	0	0	0	1021	67	0	637	0	0	
1	0	0	0	0	1021	0	0	649	0	0	
2	0	0	0	0	1021	0	0	642	0	0	
3	0	0	0	0	964	3	0	614	0	0	
4	0	0	0	0	860	63	0	570	0	0	
5	0	0	0	0	729	167	0	514	0	0	
6	0	0	0	0	580	300	0	451	0	0	
7	0	0	0	0	420	451	0	389	0	0	
8	0	0	0	0	257	607	0	332	0	0	
9	0	0	0	0	107	750	0	287	0	0	
10	0	0	0	0	0	865	0	257	0	0	
11	0	0	0	0	0	942	0	246	0	0	
12	0	0	0	0	0	976	0	255	0	0	
13	0	0	0	0	0	962	0	284	0	0	
14	0	0	0	0	75	900	0	330	0	0	
15	0	0	0	0	217	797	0	389	0	0	
0	0	0	0	0	404	663	0	455	0	0	
1	0	0	0	0	615	510	0	523	0	0	
2	0	0	0	0	826	356	0	584	0	0	
3	0	0	0	0	1006	216	0	633	0	0	
4	0	0	0	0	1021	104	0	665	0	0	
5	0	0	0	0	1021	28	0	678	0	0	
6	0	0	0	0	1021	0	0	670	0	0	
7	0	0	0	0	975	14	0	641	0	0	
8	0	0	0	0	875	76	0	595	0	0	
9	0	0	0	0	750	181	0	537	0	0	
10	0	0	0	0	605	316	0	471	0	0	
11	0	0	0	0	448	468	0	404	0	0	
12	0	0	0	0	287	624	0	344	0	0	
13	0	0	0	0	139	767	0	295	0	0	
14	0	0	0	0	15	880	0	264	0	0	
15	0	0	0	0	0	957	0	251	0	0	
0	0	0	0	0	0	989	0	259	0	0	
1	0	0	0	0	0	974	0	287	0	0	
2	0	0	0	0	81	912	0	334	0	0	
3	0	0	0	0	227	807	0	395	0	0	
4	0	0	0	0	419	672	0	463	0	0	
5	0	0	0	0	635	519	0	532	0	0	
6	0	0	0	0	849	365	0	596	0	0	
7	0	0	0	0	1020	225	0	647	0	0	
8	0	0	0	0	1021	114	0	683	0	0	
9	0	0	0	0	1021	39	0	699	0	0	
10	0	0	0	0	1021	9	0	692	0	0	
11	0	0	0	0	989	26	0	666	0	0	
12	0	0	0	0	897	90	0	622	0	0	
13	0	0	0	0	778	195	0	563	0	0	
14	0	0	0	0	639	330	0	496	0	0	
15	0	0	0	0	484	483	0	426	0	0	
0	0	0	0	0	321	636	0	362	0	0	
1	0	0	0	0	168	775	0	308	0	0	
2	0	0	0	0	36	884	0	269	0	0	
3	0	0	0	0	0	954	0	247	0	0	
4	0	0	0	0	0	977	0	243	0	0	
5	0	0	0	0	0	952	0	259	0	0	
6	0	0	0	0	51	877	0	291	0	0	
7	0	0	0	0	176	758	0	335	0	0	
8	0	0	0	0	346	606	0	387	0	0	
9	0	0	0	0	541	435	0	438	0	0	
10	0	0	0	0	736	259	0	483	0	0	
11	0	0	0	0	900	99	0	515	0	0	
12	0	0	0	0	1012	0	0	531	0	0	
13	0	0	0	0	1021	0	0	526	0	0	
14	0	0	0	0	997	0	0	501	0	0	
15	0	0	0	0	893	0	0	455	0	0	
0	0	0	0	0	751	0	0	393	0	0	
1	0	0	0	0	588	29	0	319	0	0	
2	0	0	0	0	412	103	0	240	0	0	
3	0	0	0	0	230	199	0	160	0	0	
4	0	0	0	0	54	305	0	86	0	0	
5	0	0	0	0	0	411	0	24	0	0	
6	0	0	0	0	0	500	0	0	0	0	
7	0	0	0	0	0	563	0	0	0	0	
8	0	0	0	0	0	590	0	0	0	0	
9	0	0	0	0	0	575	0	1	0	0	
10	0	0	0	0	0	521	0	30	0	0	
11	0	0	0	0	66	432	0	76	0	0	
12	0	0	0	0	188	318	0	133	0	0	
13	0	0	0	0	343	192	0	198	0	0	
14	0	0	0	0	508	65	0	263	0	0	
15	0	0	0	0	660	0	0	323	0	0	
0	0	0	0	0	775	0	0	374	0	0	
1	0	0	0	0	831	0	0	411	0	0	
2	0	0	0	0	822	0	0	433	0	0	
3	0	0	0	0	759	0	0	438	0	0	
4	0	0	0	0	667	20	0	426	0	0	
5	0	0	0	0	561	96	0	403	0	0	
6	0	0	0	0	446	205	0	372	0	0	
7	0	0	0	0	327	337	0	338	0	0	
8	0	0	0	0	211	480	0	307	0	0	
9	0	0	0	0	109	621	0	284	0	0	
10	0	0	0	0	30	743	0	274	0	0	
11	0	0	0	0	0	834	0	278	0	0	
12	0	0	0	0	0	888	0	299	0	0	
13	0	0	0	0	48	898	0	336	0	0	
14	0	0	0	0	163	865	0	386	0	0	
15	0	0	0	0	333	791	0	447	0	0	
0	0	0	0	0	541	684	0	511	0	0	
1	0	0	0	0	767	556	0	575	0	0	
2	0	0	0	0	980	421	0	630	0	0	
3	0	0	0	0	1021	294	0	674	0	0	
4	0	0	0	0	1021	189	0	701	0	0	
5	0	0	0	0	1021	115	0	708	0	0	
6	0	0	0	0	1021	80	0	695	0	0	
7	0	0	0	0	991	87	0	662	0	0	
8	0	0	0	0	897	138	0	611	0	0	
9	0	0	0	0	777	228	0	548	0	0	
10	0	0	0	0	636	348	0	479	0	0	
11	0	0	0	0	481	486	0	411	0	0	
12	0	0	0	0	319	627	0	349	0	0	
13	0	0	0	0	168	759	0	300	0	0	
14	0	0	0	0	40	865	0	269	0	0	
15	0	0	0	0	0	938	0	258	0	0	
0	0	0	0	0	0	970	0	268	0	0	
1	0	0	0	0	0	958	0	299	0	0	
2	0	0	0	0	76	901	0	348	0	0	
3	0	0	0	0	220	803	0	411	0	0	
4	0	0	0	0	412	676	0	481	0	0	
5	0	0	0	0	631	530	0	551	0	0	
6	0	0	0	0	851	382	0	615	0	0	
7	0	0	0	0	1020	246	0	665	0	0	
8	0	0	0	0	1021	138	0	699	0	0	
9	0	0	0	0	1021	65	0	713	0	0	
10	0	0	0	0	1021	34	0	706	0	0	
11	0	0	0	0	1002	50	0	678	0	0	
12	0	0	0	0	918	112	0	632	0	0	
13	0	0	0	0	805	215	0	572	0	0	
14	0	0	0	0	670	348	0	504	0	0	
15	0	0	0	0	518	499	0	436	0	0	
0	0	0	0	0	358	653	0	373	0	0	
1	0	0	0	0	206	793	0	322	0	0	
2	0	0	0	0	74	905	0	287	0	0	
3	0	0	0	0	0	981	0	272	0	0	
4	0	0	0	0	0	1014	0	277	0	0	
5	0	0	0	0	0	1000	0	303	0	0	
6	0	0	0	0	69	938	0	348	0	0	
7	0	0	0	0	208	835	0	406	0	0	
8	0	0	0	0	398	700	0	474	0	0	
9	0	0	0	0	614	548	0	542	0	0	
10	0	0	0	0	833	391	0	606	0	0	
11	0	0	0	0	1020	248	0	657	0	0	
12	0	0	0	0	1020	133	0	694	0	0	
13	0	0	0	0	1021	55	0	710	0	0	
14	0	0	0	0	1021	20	0	707	0	0	
15	0	0	0	0	1003	32	0	681	0	0	
0	0	0	0	0	920	92	0	638	0	0	
1	0	0	0	0	811	195	0	580	0	0	
2	0	0	0	0	680	329	0	514	0	0	
3	0	0	0	0	533	482	0	446	0	0	
4	0	0	0	0	379	638	0	383	0	0	
5	0	0	0	0	230	783	0	331	0	0	
6	0	0	0	0	103	900	0	295	0	0	
7	0	0	0	0	8	982	0	278	0	0	
8	0	0	0	0	0	1019	0	282	0	0	
9	0	0	0	0	0	1008	0	306	0	0	
10	0	0	0	0	77	950	0	349	0	0	
11	0	0	0	0	218	849	0	407	0	0	
12	0	0	0	0	407	715	0	472	0	0	
13	0	0	0	0	622	561	0	540	0	0	
14	0	0	0	0	839	401	0	603	0	0	
15	0	0	0	0	1020	255	0	653	0	0	
0	0	0	0	0	1021	135	0	687	0	0	
1	0	0	0	0	1021	51	0	702	0	0	
2	0	0	0	0	1021	11	0	697	0	0	
3	0	0	0	0	996	18	0	670	0	0	
4	0	0	0	0	907	75	0	624	0	0	
5	0	0	0	0	791	174	0	566	0	0	
6	0	0	0	0	654	306	0	498	0	0	
7	0	0	0	0	502	459	0	430	0	0	
8	0	0	0	0	342	616	0	367	0	0	
9	0	0	0	0	192	763	0	316	0	0	
10	0	0	0	0	63	882	0	280	0	0	
11	0	0	0	0	0	966	0	264	0	0	
12	0	0	0	0	0	1005	0	268	0	0	
13	0	0	0	0	0	998	0	293	0	0	
14	0	0	0	0	68	941	0	337	0	0	
15	0	0	0	0	207	841	0	395	0	0	
0	0	0	0	0	395	708	0	463	0	0	
1	0	0	0	0	611	556	0	531	0	0	
2	0	0	0	0	829	398	0	595	0	0	
3	0	0	0	0	1019	252	0	647	0	0	
4	0	0	0	0	1021	133	0	683	0	0	
5	0	0	0	0	1021	50	0	700	0	0	
6	0	0	0	0	1021	10	0	695	0	0	
7	0	0	0	0	999	18	0	669	0	0	
8	0	0	0	0	910	74	0	625	0	0	
9	0	0	0	0	793	173	0	567	0	0	
10	0	0	0	0	655	306	0	500	0	0	
11	0	0	0	0	500	458	0	432	0	0	
12	0	0	0	0	338	615	0	368	0	0	
13	0	0	0	0	184	763	0	315	0	0	
14	0	0	0	0	52	882	0	279	0	0	
15	0	0	0	0	0	966	0	261	0	0	
0	0	0	0	0	0	1006	0	264	0	0	
1	0	0	0	0	0	997	0	287	0	0	
2	0	0	0	0	59	942	0	329	0	0	
3	0	0	0	0	193	841	0	387	0	0	
4	0	0	0	0	375	708	0	453	0	0	
5	0	0	0	0	587	555	0	521	0	0	
6	0	0	0	0	802	396	0	584	0	0	
7	0	0	0	0	992	250	0	636	0	0	
8	0	0	0	0	1021	130	0	672	0	0	
9	0	0	0	0	1021	47	0	689	0	0	
10	0	0	0	0	1021	6	0	686	0	0	
11	0	0	0	0	997	13	0	660	0	0	
12	0	0	0	0	906	68	0	617	0	0	
13	0	0	0	0	788	167	0	560	0	0	
14	0	0	0	0	649	299	0	494	0	0	
15	0	0	0	0	495	451	0	426	0	0	
0	0	0	0	0	332	608	0	362	0	0	
1	0	0	0	0	177	755	0	310	0	0	
2	0	0	0	0	45	876	0	273	0	0	
3	0	0	0	0	0	960	0	255	0	0	
4	0	0	0	0	0	1001	0	257	0	0	
5	0	0	0	0	0	994	0	281	0	0	
6	0	0	0	0	56	940	0	323	0	0	
7	0	0	0	0	189	841	0	381	0	0	
8	0	0	0	0	371	709	0	448	0	0	
9	0	0	0	0	583	557	0	517	0	0	
10	0	0	0	0	799	398	0	582	0	0	
11	0	0	0	0	990	251	0	634	0	0	
12	0	0	0	0	1021	131	0	671	0	0	
13	0	0	0	0	1021	46	0	688	0	0	
14	0	0	0	0	1021	4	0	684	0	0	
15	0	0	0	0	997	9	0	658	0	0	
0	0	0	0	0	906	63	0	614	0	0	
1	0	0	0	0	788	159	0	555	0	0	
2	0	0	0	0	648	290	0	487	0	0	
3	0	0	0	0	493	440	0	418	0	0	
4	0	0	0	0	330	596	0	354	0	0	
5	0	0	0	0	176	743	0	300	0	0	
6	0	0	0	0	43	862	0	263	0	0	
7	0	0	0	0	0	946	0	244	0	0	
8	0	0	0	0	0	987	0	246	0	0	
9	0	0	0	0	0	980	0	270	0	0	
10	0	0	0	0	53	925	0	312	0	0	
11	0	0	0	0	184	826	0	369	0	0	
12	0	0	0	0	364	694	0	436	0	0	
13	0	0	0	0	574	541	0	505	0	0	
14	0	0	0	0	790	384	0	570	0	0	
15	0	0	0	0	980	237	0	624	0	0	
0	0	0	0	0	1021	117	0	661	0	0	
1	0	0	0	0	1021	32	0	678	0	0	
2	0	0	0	0	1021	0	0	675	0	0	
3	0	0	0	0	995	2	0	649	0	0	
4	0	0	0	0	902	55	0	606	0	0	
5	0	0	0	0	783	151	0	548	0	0	
6	0	0	0	0	641	280	0	481	0	0	
7	0	0	0	0	486	430	0	413	0	0	
8	0	0	0	0	323	586	0	349	0	0	
9	0	0	0	0	168	733	0	295	0	0	
10	0	0	0	0	35	854	0	258	0	0	
11	0	0	0	0	0	938	0	239	0	0	
12	0	0	0	0	0	980	0	239	0	0	
13	0	0	0	0	0	974	0	262	0	0	
14	0	0	0	0	49	921	0	302	0	0	
15	0	0	0	0	178	823	0	359	0	0	
0	0	0	0	0	356	691	0	425	0	0	
1	0	0	0	0	564	539	0	494	0	0	
2	0	0	0	0	779	381	0	559	0	0	
3	0	0	0	0	968	233	0	613	0	0	
4	0	0	0	0	1021	112	0	651	0	0	
5	0	0	0	0	1021	25	0	669	0	0	
6	0	0	0	0	1021	0	0	667	0	0	
7	0	0	0	0	992	0	0	643	0	0	
8	0	0	0	0	898	48	0	601	0	0	
9	0	0	0	0	776	141	0	544	0	0	
10	0	0	0	0	633	268	0	479	0	0	
11	0	0	0	0	476	416	0	412	0	0	
12	0	0	0	0	312	570	0	348	0	0	
13	0	0	0	0	156	716	0	295	0	0	
14	0	0	0	0	22	836	0	256	0	0	
15	0	0	0	0	0	921	0	236	0	0	
0	0	0	0	0	0	963	0	236	0	0	
1	0	0	0	0	0	958	0	256	0	0	
2	0	0	0	0	42	905	0	294	0	0	
3	0	0	0	0	167	808	0	348	0	0	
4	0	0	0	0	340	677	0	411	0	0	
5	0	0	0	0	545	526	0	477	0	0	
6	0	0	0	0	758	369	0	539	0	0	
7	0	0	0	0	946	223	0	591	0	0	
8	0	0	0	0	1021	103	0	627	0	0	
9	0	0	0	0	1021	17	0	645	0	0	
10	0	0	0	0	1021	0	0	642	0	0	
11	0	0	0	0	987	0	0	618	0	0	
12	0	0	0	0	888	44	0	575	0	0	
13	0	0	0	0	761	135	0	519	0	0	
14	0	0	0	0	614	258	0	454	0	0	
15	0	0	0	0	453	403	0	386	0	0	
0	0	0	0	0	285	554	0	321	0	0	
1	0	0	0	0	127	697	0	268	0	0	
2	0	0	0	0	0	815	0	228	0	0	
3	0	0	0	0	0	898	0	207	0	0	
4	0	0	0	0	0	937	0	205	0	0	
5	0	0	0	0	0	931	0	225	0	0	
6	0	0	0	0	31	877	0	263	0	0	
7	0	0	0	0	148	780	0	318	0	0	
8	0	0	0	0	315	650	0	382	0	0	
9	0	0	0	0	514	500	0	451	0	0	
10	0	0	0	0	720	343	0	515	0	0	
11	0	0	0	0	906	199	0	570	0	0	
12	0	0	0	0	1021	81	0	609	0	0	
13	0	0	0	0	1021	0	0	629	0	0	
14	0	0	0	0	1021	0	0	628	0	0	
15	0	0	0	0	980	0	0	605	0	0	
0	0	0	0	0	878	39	0	563	0	0	
1	0	0	0	0	749	127	0	507	0	0	
2	0	0	0	0	600	248	0	441	0	0	
3	0	0	0	0	438	391	0	374	0	0	
4	0	0	0	0	270	541	0	310	0	0	
5	0	0	0	0	113	683	0	256	0	0	
6	0	0	0	0	0	801	0	216	0	0	
7	0	0	0	0	0	884	0	195	0	0	
8	0	0	0	0	0	926	0	195	0	0	
9	0	0	0	0	0	921	0	214	0	0	
10	0	0	0	0	31	869	0	254	0	0	
11	0	0	0	0	146	775	0	309	0	0	
12	0	0	0	0	311	647	0	374	0	0	
13	0	0	0	0	509	499	0	442	0	0	
14	0	0	0	0	714	344	0	507	0	0	
15	0	0	0	0	899	202	0	562	0	0	
0	0	0	0	0	1021	84	0	601	0	0	
1	0	0	0	0	1021	0	0	620	0	0	
2	0	0	0	0	1021	0	0	618	0	0	
3	0	0	0	0	977	0	0	595	0	0	
4	0	0	0	0	872	37	0	554	0	0	
5	0	0	0	0	742	124	0	499	0	0	
6	0	0	0	0	593	243	0	435	0	0	
7	0	0	0	0	432	384	0	368	0	0	
8	0	0	0	0	267	532	0	305	0	0	
9	0	0	0	0	112	673	0	253	0	0	
10	0	0	0	0	0	791	0	215	0	0	
11	0	0	0	0	0	874	0	195	0	0	
12	0	0	0	0	0	916	0	195	0	0	
13	0	0	0	0	0	910	0	216	0	0	
14	0	0	0	0	35	860	0	254	0	0	
15	0	0	0	0	152	765	0	309	0	0	
0	0	0	0	0	318	638	0	374	0	0	
1	0	0	0	0	515	491	0	441	0	0	
2	0	0	0	0	719	336	0	506	0	0	
3	0	0	0	0	903	194	0	561	0	0	
4	0	0	0	0	1021	76	0	600	0	0	
5	0	0	0	0	1021	0	0	620	0	0	
6	0	0	0	0	1021	0	0	619	0	0	
7	0	0	0	0	973	0	0	597	0	0	
8	0	0	0	0	866	32	0	556	0	0	
9	0	0	0	0	734	116	0	501	0	0	
10	0	0	0	0	586	234	0	437	0	0	
11	0	0	0	0	426	374	0	371	0	0	
12	0	0	0	0	263	523	0	310	0	0	
13	0	0	0	0	112	665	0	259	0	0	
14	0	0	0	0	0	784	0	222	0	0	
15	0	0	0	0	0	871	0	204	0	0	
0	0	0	0	0	0	918	0	207	0	0	
1	0	0	0	0	0	919	0	231	0	0	
2	0	0	0	0	46	874	0	273	0	0	
3	0	0	0	0	172	786	0	332	0	0	
4	0	0	0	0	347	665	0	400	0	0	
5	0	0	0	0	553	523	0	471	0	0	
6	0	0	0	0	766	375	0	539	0	0	
7	0	0	0	0	957	236	0	596	0	0	
8	0	0	0	0	1021	123	0	638	0	0	
9	0	0	0	0	1021	41	0	660	0	0	
10	0	0	0	0	1021	1	0	662	0	0	
11	0	0	0	0	997	7	0	641	0	0	
12	0	0	0	0	905	59	0	602	0	0	
13	0	0	0	0	785	153	0	548	0	0	
14	0	0	0	0	644	281	0	484	0	0	
15	0	0	0	0	489	429	0	418	0	0	
0	0	0	0	0	326	584	0	355	0	0	
1	0	0	0	0	171	730	0	303	0	0	
2	0	0	0	0	37	852	0	266	0	0	
3	0	0	0	0	0	939	0	248	0	0	
4	0	0	0	0	0	983	0	250	0	0	
5	0	0	0	0	0	982	0	273	0	0	
6	0	0	0	0	44	933	0	315	0	0	
7	0	0	0	0	171	840	0	374	0	0	
8	0	0	0	0	348	713	0	441	0	0	
9	0	0	0	0	558	565	0	511	0	0	
10	0	0	0	0	776	409	0	579	0	0	
11	0	0	0	0	973	263	0	635	0	0	
12	0	0	0	0	1021	143	0	676	0	0	
13	0	0	0	0	1021	57	0	698	0	0	
14	0	0	0	0	1021	14	0	700	0	0	
15	0	0	0	0	1011	16	0	680	0	0	
0	0	0	0	0	928	68	0	641	0	0	
1	0	0	0	0	817	165	0	588	0	0	
2	0	0	0	0	685	295	0	525	0	0	
3	0	0	0	0	536	448	0	459	0	0	
4	0	0	0	0	378	607	0	396	0	0	
5	0	0	0	0	225	759	0	344	0	0	
6	0	0	0	0	92	885	0	306	0	0	
7	0	0	0	0	0	976	0	286	0	0	
8	0	0	0	0	0	1021	0	287	0	0	
9	0	0	0	0	0	1021	0	308	0	0	
10	0	0	0	0	53	975	0	349	0	0	
11	0	0	0	0	184	884	0	406	0	0	
12	0	0	0	0	366	758	0	471	0	0	
13	0	0	0	0	582	609	0	539	0	0	
14	0	0	0	0	804	451	0	604	0	0	
15	0	0	0	0	1004	300	0	658	0	0	
0	0	0	0	0	1021	176	0	697	0	0	
1	0	0	0	0	1021	85	0	718	0	0	
2	0	0	0	0	1021	36	0	718	0	0	
3	0	0	0	0	1019	35	0	697	0	0	
4	0	0	0	0	942	82	0	658	0	0	
5	0	0	0	0	837	175	0	603	0	0	
6	0	0	0	0	709	301	0	539	0	0	
7	0	0	0	0	562	451	0	472	0	0	
8	0	0	0	0	406	608	0	408	0	0	
9	0	0	0	0	252	759	0	354	0	0	
10	0	0	0	0	115	884	0	315	0	0	
11	0	0	0	0	9	976	0	295	0	0	
12	0	0	0	0	0	1021	0	295	0	0	
13	0	0	0	0	0	1021	0	315	0	0	
14	0	0	0	0	45	977	0	354	0	0	
15	0	0	0	0	171	887	0	408	0	0	
0	0	0	0	0	348	762	0	472	0	0	
1	0	0	0	0	560	614	0	540	0	0	
2	0	0	0	0	782	457	0	603	0	0	
3	0	0	0	0	983	308	0	656	0	0	
4	0	0	0	0	1020	184	0	695	0	0	
5	0	0	0	0	1021	93	0	715	0	0	
6	0	0	0	0	1021	45	0	715	0	0	
7	0	0	0	0	1019	43	0	694	0	0	
8	0	0	0	0	942	90	0	655	0	0	
9	0	0	0	0	837	182	0	600	0	0	
10	0	0	0	0	709	308	0	536	0	0	
11	0	0	0	0	563	457	0	470	0	0	
12	0	0	0	0	408	614	0	406	0	0	
13	0	0	0	0	254	764	0	352	0	0	
14	0	0	0	0	119	889	0	314	0	0	
15	0	0	0	0	14	981	0	293	0	0	
0	0	0	0	0	0	1021	0	293	0	0	
1	0	0	0	0	0	1021	0	312	0	0	
2	0	0	0	0	48	980	0	352	0	0	
3	0	0	0	0	175	891	0	406	0	0	
4	0	0	0	0	355	767	0	470	0	0	
5	0	0	0	0	569	620	0	537	0	0	
6	0	0	0	0	792	463	0	601	0	0	
7	0	0	0	0	994	314	0	655	0	0	
8	0	0	0	0	1021	190	0	694	0	0	
9	0	0	0	0	1021	98	0	715	0	0	
10	0	0	0	0	1021	48	0	716	0	0	
11	0	0	0	0	1021	45	0	696	0	0	
12	0	0	0	0	947	90	0	656	0	0	
13	0	0	0	0	844	180	0	602	0	0	
14	0	0	0	0	717	304	0	538	0	0	
15	0	0	0	0	573	452	0	471	0	0	
0	0	0	0	0	417	608	0	408	0	0	
1	0	0	0	0	263	757	0	355	0	0	
2	0	0	0	0	127	882	0	316	0	0	
3	0	0	0	0	20	974	0	296	0	0	
4	0	0	0	0	0	1021	0	296	0	0	
5	0	0	0	0	0	1021	0	317	0	0	
6	0	0	0	0	45	979	0	357	0	0	
7	0	0	0	0	169	891	0	412	0	0	
8	0	0	0	0	347	768	0	476	0	0	
9	0	0	0	0	558	621	0	542	0	0	
10	0	0	0	0	779	465	0	607	0	0	
11	0	0	0	0	980	316	0	660	0	0	
12	0	0	0	0	1021	191	0	699	0	0	
13	0	0	0	0	1021	100	0	719	0	0	
14	0	0	0	0	1021	50	0	719	0	0	
15	0	0	0	0	1020	47	0	699	0	0	
0	0	0	0	0	941	92	0	660	0	0	
1	0	0	0	0	833	182	0	606	0	0	
2	0	0	0	0	702	306	0	541	0	0	
3	0	0	0	0	551	453	0	473	0	0	
4	0	0	0	0	389	609	0	408	0	0	
5	0	0	0	0	231	756	0	353	0	0	
6	0	0	0	0	89	880	0	313	0	0	
7	0	0	0	0	0	970	0	290	0	0	
8	0	0	0	0	0	1018	0	288	0	0	
9	0	0	0	0	0	1019	0	307	0	0	
10	0	0	0	0	31	973	0	345	0	0	
11	0	0	0	0	147	883	0	399	0	0	
12	0	0	0	0	315	758	0	463	0	0	
13	0	0	0	0	520	609	0	531	0	0	
14	0	0	0	0	736	453	0	595	0	0	
15	0	0	0	0	935	302	0	649	0	0	
0	0	0	0	0	1021	176	0	689	0	0	
1	0	0	0	0	1021	84	0	709	0	0	
2	0	0	0	0	1021	33	0	710	0	0	
3	0	0	0	0	1015	30	0	689	0	0	
4	0	0	0	0	935	74	0	649	0	0	
5	0	0	0	0	826	164	0	594	0	0	
6	0	0	0	0	695	290	0	529	0	0	
7	0	0	0	0	547	439	0	462	0	0	
8	0	0	0	0	390	596	0	397	0	0	
9	0	0	0	0	236	747	0	343	0	0	
10	0	0	0	0	100	874	0	304	0	0	
11	0	0	0	0	0	967	0	283	0	0	
12	0	0	0	0	0	1018	0	282	0	0	
13	0	0	0	0	0	1020	0	301	0	0	
14	0	0	0	0	39	976	0	341	0	0	
15	0	0	0	0	158	887	0	396	0	0	
0	0	0	0	0	331	762	0	461	0	0	
1	0	0	0	0	537	613	0	529	0	0	
2	0	0	0	0	755	455	0	593	0	0	
3	0	0	0	0	954	303	0	648	0	0	
4	0	0	0	0	1021	175	0	688	0	0	
5	0	0	0	0	1021	82	0	709	0	0	
6	0	0	0	0	1021	29	0	710	0	0	
7	0	0	0	0	1015	24	0	689	0	0	
8	0	0	0	0	934	67	0	649	0	0	
9	0	0	0	0	825	156	0	594	0	0	
10	0	0	0	0	694	280	0	529	0	0	
11	0	0	0	0	545	429	0	461	0	0	
12	0	0	0	0	388	586	0	396	0	0	
13	0	0	0	0	235	739	0	341	0	0	
14	0	0	0	0	99	867	0	301	0	0	
15	0	0	0	0	0	962	0	279	0	0	
0	0	0	0	0	0	1015	0	277	0	0	
1	0	0	0	0	0	1020	0	296	0	0	
2	0	0	0	0	40	978	0	335	0	0	
3	0	0	0	0	162	889	0	389	0	0	
4	0	0	0	0	336	765	0	453	0	0	
5	0	0	0	0	545	615	0	520	0	0	
6	0	0	0	0	764	456	0	585	0	0	
7	0	0	0	0	963	303	0	639	0	0	
8	0	0	0	0	1021	175	0	679	0	0	
9	0	0	0	0	1021	79	0	700	0	0	
10	0	0	0	0	1021	25	0	702	0	0	
11	0	0	0	0	1016	18	0	683	0	0	
12	0	0	0	0	934	60	0	644	0	0	
13	0	0	0	0	824	148	0	591	0	0	
14	0	0	0	0	691	272	0	527	0	0	
15	0	0	0	0	542	420	0	459	0	0	
0	0	0	0	0	384	578	0	395	0	0	
1	0	0	0	0	229	730	0	340	0	0	
2	0	0	0	0	92	860	0	301	0	0	
3	0	0	0	0	0	955	0	279	0	0	
4	0	0	0	0	0	1010	0	278	0	0	
5	0	0	0	0	0	1017	0	297	0	0	
6	0	0	0	0	37	976	0	335	0	0	
7	0	0	0	0	156	889	0	390	0	0	
8	0	0	0	0	329	766	0	455	0	0	
9	0	0	0	0	537	619	0	523	0	0	
10	0	0	0	0	756	460	0	588	0	0	
11	0	0	0	0	957	308	0	643	0	0	
12	0	0	0	0	1021	179	0	683	0	0	
13	0	0	0	0	1021	83	0	704	0	0	
14	0	0	0	0	1021	28	0	705	0	0	
15	0	0	0	0	1016	20	0	684	0	0	
0	0	0	0	0	935	60	0	644	0	0	
1	0	0	0	0	825	146	0	590	0	0	
2	0	0	0	0	693	269	0	524	0	0	
3	0	0	0	0	543	417	0	456	0	0	
4	0	0	0	0	385	574	0	391	0	0	
5	0	0	0	0	229	726	0	335	0	0	
6	0	0	0	0	91	855	0	295	0	0	
7	0	0	0	0	0	952	0	272	0	0	
8	0	0	0	0	0	1006	0	270	0	0	
9	0	0	0	0	0	1014	0	289	0	0	
10	0	0	0	0	31	974	0	328	0	0	
11	0	0	0	0	147	888	0	383	0	0	
12	0	0	0	0	315	766	0	449	0	0	
13	0	0	0	0	519	619	0	519	0	0	
14	0	0	0	0	735	460	0	586	0	0	
15	0	0	0	0	933	308	0	642	0	0	
0	0	0	0	0	1021	178	0	684	0	0	
1	0	0	0	0	1021	81	0	706	0	0	
2	0	0	0	0	1021	24	0	708	0	0	
3	0	0	0	0	1012	15	0	688	0	0	
4	0	0	0	0	928	53	0	647	0	0	
5	0	0	0	0	815	137	0	591	0	0	
6	0	0	0	0	679	258	0	525	0	0	
7	0	0	0	0	526	404	0	455	0	0	
8	0	0	0	0	365	561	0	388	0	0	
9	0	0	0	0	208	713	0	332	0	0	
10	0	0	0	0	70	844	0	291	0	0	
11	0	0	0	0	0	942	0	269	0	0	
12	0	0	0	0	0	998	0	267	0	0	
13	0	0	0	0	0	1008	0	286	0	0	
14	0	0	0	0	30	970	0	324	0	0	
15	0	0	0	0	146	886	0	380	0	0	
0	0	0	0	0	315	764	0	446	0	0	
1	0	0	0	0	521	618	0	516	0	0	
2	0	0	0	0	738	461	0	583	0	0	
3	0	0	0	0	939	309	0	640	0	0	
4	0	0	0	0	1021	180	0	683	0	0	
5	0	0	0	0	1021	83	0	706	0	0	
6	0	0	0	0	1021	26	0	709	0	0	
7	0	0	0	0	1016	17	0	690	0	0	
8	0	0	0	0	934	56	0	651	0	0	
9	0	0	0	0	822	140	0	596	0	0	
10	0	0	0	0	688	262	0	531	0	0	
11	0	0	0	0	537	408	0	462	0	0	
12	0	0	0	0	376	565	0	395	0	0	
13	0	0	0	0	220	717	0	337	0	0	
14	0	0	0	0	82	847	0	295	0	0	
15	0	0	0	0	0	945	0	270	0	0	
0	0	0	0	0	0	1001	0	266	0	0	
1	0	0	0	0	0	1012	0	283	0	0	
2	0	0	0	0	30	975	0	321	0	0	
3	0	0	0	0	145	891	0	375	0	0	
4	0	0	0	0	315	771	0	440	0	0	
5	0	0	0	0	522	625	0	510	0	0	
6	0	0	0	0	741	470	0	576	0	0	
7	0	0	0	0	945	318	0	634	0	0	
8	0	0	0	0	1021	188	0	677	0	0	
9	0	0	0	0	1021	92	0	701	0	0	
10	0	0	0	0	1021	35	0	705	0	0	
11	0	0	0	0	1021	25	0	686	0	0	
12	0	0	0	0	943	63	0	648	0	0	
13	0	0	0	0	833	146	0	593	0	0	
14	0	0	0	0	700	266	0	528	0	0	
15	0	0	0	0	547	411	0	458	0	0	
0	0	0	0	0	385	567	0	391	0	0	
1	0	0	0	0	224	717	0	334	0	0	
2	0	0	0	0	81	846	0	291	0	0	
3	0	0	0	0	0	943	0	267	0	0	
4	0	0	0	0	0	1000	0	263	0	0	
5	0	0	0	0	0	1010	0	280	0	0	
6	0	0	0	0	22	971	0	317	0	0	
7	0	0	0	0	131	888	0	370	0	0	
8	0	0	0	0	297	767	0	435	0	0	
9	0	0	0	0	499	622	0	505	0	0	
10	0	0	0	0	717	465	0	572	0	0	
11	0	0	0	0	920	314	0	629	0	0	
12	0	0	0	0	1020	184	0	672	0	0	
13	0	0	0	0	1021	87	0	697	0	0	
14	0	0	0	0	1021	31	0	701	0	0	
15	0	0	0	0	1020	21	0	684	0	0	
0	0	0	0	0	942	59	0	647	0	0	
1	0	0	0	0	833	143	0	594	0	0	
2	0	0	0	0	701	264	0	530	0	0	
3	0	0	0	0	551	410	0	463	0	0	
4	0	0	0	0	391	566	0	398	0	0	
5	0	0	0	0	234	718	0	342	0	0	
6	0	0	0	0	94	848	0	300	0	0	
7	0	0	0	0	0	946	0	276	0	0	
8	0	0	0	0	0	1003	0	273	0	0	
9	0	0	0	0	0	1015	0	290	0	0	
10	0	0	0	0	26	977	0	326	0	0	
11	0	0	0	0	139	893	0	379	0	0	
12	0	0	0	0	306	772	0	442	0	0	
13	0	0	0	0	511	626	0	509	0	0	
14	0	0	0	0	730	468	0	575	0	0	
15	0	0	0	0	933	316	0	630	0	0	
0	0	0	0	0	1021	185	0	672	0	0	
1	0	0	0	0	1021	88	0	696	0	0	
2	0	0	0	0	1021	30	0	699	0	0	
3	0	0	0	0	1021	20	0	681	0	0	
4	0	0	0	0	944	57	0	644	0	0	
5	0	0	0	0	835	140	0	591	0	0	
6	0	0	0	0	703	261	0	528	0	0	
7	0	0	0	0	553	407	0	461	0	0	
8	0	0	0	0	393	563	0	395	0	0	
9	0	0	0	0	235	715	0	339	0	0	
10	0	0	0	0	94	846	0	296	0	0	
11	0	0	0	0	0	944	0	272	0	0	
12	0	0	0	0	0	1002	0	268	0	0	
13	0	0	0	0	0	1015	0	284	0	0	
14	0	0	0	0	24	978	0	320	0	0	
15	0	0	0	0	135	896	0	374	0	0	
0	0	0	0	0	299	776	0	437	0	0	
1	0	0	0	0	502	631	0	506	0	0	
2	0	0	0	0	718	474	0	572	0	0	
3	0	0	0	0	920	320	0	628	0	0	
4	0	0	0	0	1021	188	0	671	0	0	
5	0	0	0	0	1021	88	0	695	0	0	
6	0	0	0	0	1021	29	0	699	0	0	
7	0	0	0	0	1020	16	0	681	0	0	
8	0	0	0	0	939	50	0	644	0	0	
9	0	0	0	0	828	131	0	590	0	0	
10	0	0	0	0	694	250	0	526	0	0	
11	0	0	0	0	542	394	0	458	0	0	
12	0	0	0	0	379	550	0	391	0	0	
13	0	0	0	0	220	702	0	334	0	0	
14	0	0	0	0	78	833	0	292	0	0	
15	0	0	0	0	0	932	0	267	0	0	
0	0	0	0	0	0	991	0	262	0	0	
1	0	0	0	0	0	1005	0	277	0	0	
2	0	0	0	0	17	970	0	312	0	0	
3	0	0	0	0	121	890	0	365	0	0	
4	0	0	0	0	281	771	0	428	0	0	
5	0	0	0	0	478	627	0	497	0	0	
6	0	0	0	0	690	472	0	563	0	0	
7	0	0	0	0	891	320	0	621	0	0	
8	0	0	0	0	1021	190	0	665	0	0	
9	0	0	0	0	1021	91	0	690	0	0	
10	0	0	0	0	1021	32	0	695	0	0	
11	0	0	0	0	1016	19	0	679	0	0	
12	0	0	0	0	936	55	0	643	0	0	
13	0	0	0	0	824	135	0	590	0	0	
14	0	0	0	0	692	254	0	527	0	0	
15	0	0	0	0	543	398	0	460	0	0	
0	0	0	0	0	384	553	0	394	0	0	
1	0	0	0	0	228	706	0	337	0	0	
2	0	0	0	0	90	839	0	295	0	0	
3	0	0	0	0	0	939	0	270	0	0	
4	0	0	0	0	0	1000	0	266	0	0	
5	0	0	0	0	0	1014	0	283	0	0	
6	0	0	0	0	24	981	0	319	0	0	
7	0	0	0	0	133	901	0	372	0	0	
8	0	0	0	0	296	784	0	435	0	0	
9	0	0	0	0	497	640	0	504	0	0	
10	0	0	0	0	711	483	0	571	0	0	
11	0	0	0	0	912	330	0	627	0	0	
12	0	0	0	0	1021	198	0	670	0	0	
13	0	0	0	0	1021	97	0	695	0	0	
14	0	0	0	0	1021	36	0	699	0	0	
15	0	0	0	0	1019	21	0	681	0	0	
0	0	0	0	0	936	55	0	644	0	0	
1	0	0	0	0	824	134	0	591	0	0	
2	0	0	0	0	689	252	0	528	0	0	
3	0	0	0	0	538	395	0	460	0	0	
4	0	0	0	0	377	551	0	394	0	0	
5	0	0	0	0	220	703	0	337	0	0	
6	0	0	0	0	80	834	0	295	0	0	
7	0	0	0	0	0	935	0	270	0	0	
8	0	0	0	0	0	994	0	265	0	0	
9	0	0	0	0	0	1009	0	281	0	0	
10	0	0	0	0	21	975	0	317	0	0	
11	0	0	0	0	129	895	0	370	0	0	
12	0	0	0	0	292	777	0	434	0	0	
13	0	0	0	0	494	632	0	502	0	0	
14	0	0	0	0	710	476	0	568	0	0	
15	0	0	0	0	914	323	0	627	0	0	
0	0	0	0	0	1021	191	0	670	0	0	
1	0	0	0	0	1021	91	0	696	0	0	
2	0	0	0	0	1021	31	0	701	0	0	
3	0	0	0	0	1021	16	0	686	0	0	
4	0	0	0	0	946	50	0	649	0	0	
5	0	0	0	0	839	131	0	597	0	0	
6	0	0	0	0	709	248	0	534	0	0	
7	0	0	0	0	562	391	0	465	0	0	
8	0	0	0	0	404	547	0	398	0	0	
9	0	0	0	0	247	698	0	339	0	0	
10	0	0	0	0	106	830	0	295	0	0	
11	0	0	0	0	0	929	0	268	0	0	
12	0	0	0	0	0	988	0	260	0	0	
13	0	0	0	0	0	1000	0	274	0	0	
14	0	0	0	0	18	966	0	307	0	0	
15	0	0	0	0	123	885	0	359	0	0	
0	0	0	0	0	284	766	0	421	0	0	
1	0	0	0	0	483	621	0	490	0	0	
2	0	0	0	0	698	465	0	557	0	0	
3	0	0	0	0	901	313	0	616	0	0	
4	0	0	0	0	1021	182	0	661	0	0	
5	0	0	0	0	1021	82	0	688	0	0	
6	0	0	0	0	1021	23	0	696	0	0	
7	0	0	0	0	1021	9	0	681	0	0	
8	0	0	0	0	942	43	0	647	0	0	
9	0	0	0	0	832	124	0	595	0	0	
10	0	0	0	0	699	243	0	532	0	0	
11	0	0	0	0	549	387	0	464	0	0	
12	0	0	0	0	389	543	0	398	0	0	
13	0	0	0	0	230	698	0	339	0	0	
14	0	0	0	0	89	832	0	295	0	0	
15	0	0	0	0	0	934	0	269	0	0	
0	0	0	0	0	0	996	0	263	0	0	
1	0	0	0	0	0	1011	0	278	0	0	
2	0	0	0	0	17	980	0	312	0	0	
3	0	0	0	0	123	901	0	365	0	0	
4	0	0	0	0	284	784	0	429	0	0	
5	0	0	0	0	485	640	0	498	0	0	
6	0	0	0	0	702	484	0	566	0	0	
7	0	0	0	0	907	329	0	624	0	0	
8	0	0	0	0	1021	196	0	669	0	0	
9	0	0	0	0	1021	93	0	695	0	0	
10	0	0	0	0	1021	31	0	701	0	0	
11	0	0	0	0	1021	14	0	686	0	0	
12	0	0	0	0	945	45	0	650	0	0	
13	0	0	0	0	833	123	0	598	0	0	
14	0	0	0	0	699	239	0	535	0	0	
15	0	0	0	0	545	381	0	466	0	0	
0	0	0	0	0	381	536	0	399	0	0	
1	0	0	0	0	219	689	0	340	0	0	
2	0	0	0	0	73	823	0	296	0	0	
3	0	0	0	0	0	924	0	268	0	0	
4	0	0	0	0	0	985	0	261	0	0	
5	0	0	0	0	0	1002	0	275	0	0	
6	0	0	0	0	9	970	0	308	0	0	
7	0	0	0	0	108	892	0	359	0	0	
8	0	0	0	0	263	775	0	422	0	0	
9	0	0	0	0	458	632	0	490	0	0	
10	0	0	0	0	671	476	0	556	0	0	
11	0	0	0	0	874	322	0	614	0	0	
12	0	0	0	0	1020	190	0	658	0	0	
13	0	0	0	0	1021	88	0	685	0	0	
14	0	0	0	0	1021	26	0	691	0	0	
15	0	0	0	0	1021	9	0	676	0	0	
0	0	0	0	0	943	41	0	642	0	0	
1	0	0	0	0	832	119	0	591	0	0	
2	0	0	0	0	699	236	0	528	0	0	
3	0	0	0	0	547	380	0	461	0	0	
4	0	0	0	0	385	535	0	395	0	0	
5	0	0	0	0	225	689	0	337	0	0	
6	0	0	0	0	81	823	0	292	0	0	
7	0	0	0	0	0	926	0	265	0	0	
8	0	0	0	0	0	988	0	257	0	0	
9	0	0	0	0	0	1005	0	271	0	0	
10	0	0	0	0	12	974	0	304	0	0	
11	0	0	0	0	112	896	0	355	0	0	
12	0	0	0	0	270	780	0	417	0	0	
13	0	0	0	0	468	637	0	486	0	0	
14	0	0	0	0	683	480	0	553	0	0	
15	0	0	0	0	888	326	0	612	0	0	
0	0	0	0	0	1021	192	0	657	0	0	
1	0	0	0	0	1021	89	0	685	0	0	
2	0	0	0	0	1021	25	0	692	0	0	
3	0	0	0	0	1021	7	0	678	0	0	
4	0	0	0	0	946	38	0	644	0	0	
5	0	0	0	0	837	116	0	594	0	0	
6	0	0	0	0	705	232	0	532	0	0	
7	0	0	0	0	556	376	0	465	0	0	
8	0	0	0	0	396	533	0	400	0	0	
9	0	0	0	0	237	688	0	342	0	0	
10	0	0	0	0	95	825	0	298	0	0	
11	0	0	0	0	0	929	0	271	0	0	
12	0	0	0	0	0	994	0	263	0	0	
13	0	0	0	0	0	1012	0	276	0	0	
14	0	0	0	0	15	983	0	307	0	0	
15	0	0	0	0	117	906	0	356	0	0	
0	0	0	0	0	276	789	0	417	0	0	
1	0	0	0	0	476	645	0	482	0	0	
2	0	0	0	0	691	487	0	548	0	0	
3	0	0	0	0	897	331	0	606	0	0	
4	0	0	0	0	1021	195	0	650	0	0	
5	0	0	0	0	1021	90	0	677	0	0	
6	0	0	0	0	1021	25	0	684	0	0	
7	0	0	0	0	1021	7	0	671	0	0	
8	0	0	0	0	952	36	0	638	0	0	
9	0	0	0	0	845	113	0	589	0	0	
10	0	0	0	0	716	230	0	529	0	0	
11	0	0	0	0	568	373	0	463	0	0	
12	0	0	0	0	409	530	0	399	0	0	
13	0	0	0	0	252	686	0	344	0	0	
14	0	0	0	0	109	822	0	301	0	0	
15	0	0	0	0	0	927	0	275	0	0	
0	0	0	0	0	0	992	0	269	0	0	
1	0	0	0	0	0	1012	0	283	0	0	
2	0	0	0	0	14	983	0	316	0	0	
3	0	0	0	0	115	907	0	367	0	0	
4	0	0	0	0	273	792	0	429	0	0	
5	0	0	0	0	472	649	0	496	0	0	
6	0	0	0	0	688	494	0	562	0	0	
7	0	0	0	0	894	339	0	620	0	0	
8	0	0	0	0	1021	204	0	664	0	0	
9	0	0	0	0	1021	99	0	690	0	0	
10	0	0	0	0	1021	33	0	696	0	0	
11	0	0	0	0	1021	13	0	680	0	0	
12	0	0	0	0	953	41	0	646	0	0	
13	0	0	0	0	844	115	0	594	0	0	
14	0	0	0	0	711	229	0	531	0	0	
15	0	0	0	0	560	370	0	463	0	0	
0	0	0	0	0	395	524	0	396	0	0	
1	0	0	0	0	231	677	0	337	0	0	
2	0	0	0	0	82	811	0	291	0	0	
3	0	0	0	0	0	914	0	263	0	0	
4	0	0	0	0	0	979	0	255	0	0	
5	0	0	0	0	0	998	0	268	0	0	
6	0	0	0	0	4	970	0	300	0	0	
7	0	0	0	0	98	896	0	350	0	0	
