# OpenSignals Text File Format. Version 1
# {"": {"position": 0, "device": "", "device name": "", "device connection": "", "sampling rate": 1000, "resolution": [4, 1, 1, 1, 1, 10, 10, 10, 10, 6, 6], "firmware version": 1281, "comments": "", "keywords": "", "mode": 0, "sync interval": 2, "date": "", "time": "", "channels": [1, 2, 3, 4, 5, 6], "sensor": ["RAW", "RAW", "RAW", "RAW", "RAW", "RAW"], "label": ["A1", "A2", "A3", "A4", "A5", "A6"], "column": ["nSeq", "I1", "I2", "O1", "O2", "A1", "A2", "A3", "A4", "A5", "A6"], "special": [{}, {}, {}, {}, {}, {}], "digital IO": [0, 0, 1, 1]}}
# EndOfHeader
0	0	0	0	0	0	1021	0	0	0	0	
1	0	0	0	0	0	1021	0	0	0	0	
2	0	0	0	0	0	966	0	0	0	0	
3	0	0	0	0	198	838	0	0	0	0	
4	0	0	0	0	671	667	0	0	0	0	
5	0	0	0	0	1020	470	0	0	0	0	
6	0	0	0	0	1021	268	0	0	0	0	
7	0	0	0	0	1021	88	0	0	0	0	
8	0	0	0	0	1021	0	0	0	0	0	
9	0	0	0	0	1021	0	0	0	0	0	
10	0	0	0	0	1021	0	0	0	0	0	
11	0	0	0	0	1021	0	0	0	0	0	
12	0	0	0	0	1021	57	0	0	0	0	
13	0	0	0	0	846	181	0	0	0	0	
14	0	0	0	0	381	345	0	0	0	0	
15	0	0	0	0	0	535	0	0	0	0	
0	0	0	0	0	0	729	0	0	0	0	
1	0	0	0	0	0	903	0	0	0	0	
2	0	0	0	0	0	1021	0	0	0	0	
3	0	0	0	0	0	1021	0	0	0	0	
4	0	0	0	0	0	1021	0	0	0	0	
5	0	0	0	0	0	1013	0	0	0	0	
6	0	0	0	0	0	918	0	0	0	0	
7	0	0	0	0	175	768	0	0	0	0	
8	0	0	0	0	638	575	0	0	0	0	
9	0	0	0	0	1020	360	0	0	0	0	
10	0	0	0	0	1021	148	0	0	0	0	
11	0	0	0	0	1021	0	0	0	0	0	
12	0	0	0	0	1021	0	0	0	0	0	
13	0	0	0	0	1021	0	0	0	0	0	
14	0	0	0	0	1021	0	0	0	0	0	
15	0	0	0	0	1021	0	0	0	0	0	
0	0	0	0	0	1021	70	0	0	0	0	
1	0	0	0	0	899	204	0	0	0	0	
2	0	0	0	0	476	376	0	0	0	0	
3	0	0	0	0	0	569	0	0	0	0	
4	0	0	0	0	0	761	0	0	0	0	
5	0	0	0	0	0	925	0	0	0	0	
6	0	0	0	0	0	1021	0	0	0	0	
7	0	0	0	0	0	1021	0	0	0	0	
8	0	0	0	0	0	1021	0	0	0	0	
9	0	0	0	0	0	989	0	0	0	0	
10	0	0	0	0	0	880	0	0	0	0	
11	0	0	0	0	199	721	0	0	0	0	
12	0	0	0	0	675	528	0	0	0	0	
13	0	0	0	0	1020	318	0	0	0	0	
14	0	0	0	0	1021	117	0	0	0	0	
15	0	0	0	0	1021	0	0	0	0	0	
0	0	0	0	0	1021	0	0	0	0	0	
1	0	0	0	0	1021	0	0	0	0	0	
2	0	0	0	0	1021	0	0	0	0	0	
3	0	0	0	0	1021	0	0	0	0	0	
4	0	0	0	0	1021	75	0	0	0	0	
5	0	0	0	0	920	208	0	0	0	0	
6	0	0	0	0	510	383	0	0	0	0	
7	0	0	0	0	0	579	0	0	0	0	
8	0	0	0	0	0	774	0	0	0	0	
9	0	0	0	0	0	942	0	0	0	0	
10	0	0	0	0	0	1021	0	0	0	0	
11	0	0	0	0	0	1021	0	0	0	0	
12	0	0	0	0	0	1021	0	0	0	0	
13	0	0	0	0	0	997	0	0	0	0	
14	0	0	0	0	0	895	0	0	0	0	
15	0	0	0	0	264	745	0	0	0	0	
0	0	0	0	0	780	561	0	0	0	0	
1	0	0	0	0	1020	363	0	0	0	0	
2	0	0	0	0	1021	175	0	0	0	0	
3	0	0	0	0	1021	19	0	0	0	0	
4	0	0	0	0	1021	0	0	0	0	0	
5	0	0	0	0	1021	0	0	0	0	0	
6	0	0	0	0	1021	0	0	0	0	0	
7	0	0	0	0	1021	32	0	0	0	0	
8	0	0	0	0	1021	138	0	0	0	0	
9	0	0	0	0	956	287	0	0	0	0	
10	0	0	0	0	551	465	0	0	0	0	
11	0	0	0	0	0	654	0	0	0	0	
12	0	0	0	0	0	830	0	0	0	0	
13	0	0	0	0	0	970	0	0	0	0	
14	0	0	0	0	0	1021	0	0	0	0	
15	0	0	0	0	0	1021	0	0	0	0	
0	0	0	0	0	0	1014	0	0	0	0	
1	0	0	0	0	0	925	0	0	0	0	
2	0	0	0	0	0	781	0	0	0	0	
3	0	0	0	0	65	595	0	1	0	0	
4	0	0	0	0	447	384	0	0	0	0	
5	0	0	0	0	985	174	0	0	0	0	
6	0	0	0	0	1021	0	0	0	0	0	
7	0	0	0	0	1021	0	0	0	0	0	
8	0	0	0	0	1021	0	0	0	0	0	
9	0	0	0	0	1021	0	0	0	0	0	
10	0	0	0	0	1021	0	0	0	0	0	
11	0	0	0	0	1021	16	0	0	0	0	
12	0	0	0	0	1021	110	0	0	0	0	
13	0	0	0	0	840	247	0	0	0	0	
14	0	0	0	0	398	413	0	0	0	0	
15	0	0	0	0	0	591	0	0	0	0	
0	0	0	0	0	0	760	0	0	0	0	
1	0	0	0	0	0	898	0	0	0	0	
2	0	0	0	0	0	991	0	0	0	0	
3	0	0	0	0	0	1021	0	0	0	0	
4	0	0	0	0	0	1003	0	0	0	0	
5	0	0	0	0	0	919	0	0	0	0	
6	0	0	0	0	0	781	0	0	0	0	
7	0	0	0	0	3	600	0	1	0	0	
8	0	0	0	0	303	392	0	0	0	0	
9	0	0	0	0	749	179	0	0	0	0	
10	0	0	0	0	1020	0	0	0	0	0	
11	0	0	0	0	1021	0	0	0	0	0	
12	0	0	0	0	1021	0	0	0	0	0	
13	0	0	0	0	1021	0	0	0	0	0	
14	0	0	0	0	1021	0	0	0	0	0	
15	0	0	0	0	1021	0	0	0	0	0	
0	0	0	0	0	1012	54	0	0	0	0	
1	0	0	0	0	713	171	0	0	0	0	
2	0	0	0	0	242	326	0	0	0	0	
3	0	0	0	0	0	505	0	0	0	0	
4	0	0	0	0	0	688	0	0	0	0	
5	0	0	0	0	0	852	0	0	0	0	
6	0	0	0	0	0	977	0	0	0	0	
7	0	0	0	0	0	1021	0	0	0	0	
8	0	0	0	0	0	1021	0	0	0	0	
9	0	0	0	0	0	995	0	0	0	0	
10	0	0	0	0	0	896	0	0	0	0	
11	0	0	0	0	29	745	0	1	0	0	
12	0	0	0	0	328	556	0	0	0	0	
13	0	0	0	0	759	345	0	0	0	0	
14	0	0	0	0	1020	137	0	0	0	0	
15	0	0	0	0	1021	0	0	0	0	0	
0	0	0	0	0	1021	0	0	0	0	0	
1	0	0	0	0	1021	0	0	0	0	0	
2	0	0	0	0	1021	0	0	0	0	0	
3	0	0	0	0	1021	0	0	0	0	0	
4	0	0	0	0	908	0	0	0	0	0	
5	0	0	0	0	529	67	0	0	0	0	
6	0	0	0	0	1	181	0	0	0	0	
7	0	0	0	0	0	324	0	0	0	0	
8	0	0	0	0	0	482	0	0	0	0	
9	0	0	0	0	0	637	0	0	0	0	
10	0	0	0	0	0	768	0	0	0	0	
11	0	0	0	0	0	860	0	0	0	0	
12	0	0	0	0	0	905	0	0	0	0	
13	0	0	0	0	0	899	0	0	0	0	
14	0	0	0	0	0	841	0	0	0	0	
15	0	0	0	0	0	737	0	1	0	0	
0	0	0	0	0	197	598	0	0	0	0	
1	0	0	0	0	578	438	0	0	0	0	
2	0	0	0	0	1020	275	0	0	0	0	
3	0	0	0	0	1021	130	0	0	0	0	
4	0	0	0	0	1021	14	0	0	0	0	
5	0	0	0	0	1021	0	0	0	0	0	
6	0	0	0	0	1021	0	0	0	0	0	
7	0	0	0	0	1021	0	0	0	0	0	
8	0	0	0	0	889	58	0	0	0	0	
9	0	0	0	0	500	160	0	0	0	0	
10	0	0	0	0	0	291	0	0	0	0	
11	0	0	0	0	0	439	0	0	0	0	
12	0	0	0	0	0	584	0	0	0	0	
13	0	0	0	0	0	711	0	0	0	0	
14	0	0	0	0	0	799	0	0	0	0	
15	0	0	0	0	0	843	0	0	0	0	
0	0	0	0	0	0	835	0	0	0	0	
1	0	0	0	0	0	775	0	0	0	0	
2	0	0	0	0	0	668	0	0	0	0	
3	0	0	0	0	0	526	0	0	0	0	
4	0	0	0	0	32	363	0	0	0	0	
5	0	0	0	0	313	199	0	0	0	0	
6	0	0	0	0	693	52	0	0	0	0	
7	0	0	0	0	1020	0	0	0	0	0	
8	0	0	0	0	1021	0	0	0	0	0	
9	0	0	0	0	1021	0	0	0	0	0	
10	0	0	0	0	1021	0	0	0	0	0	
11	0	0	0	0	1021	61	0	0	0	0	
12	0	0	0	0	866	177	0	0	0	0	
13	0	0	0	0	481	328	0	0	0	0	
14	0	0	0	0	0	502	0	0	0	0	
15	0	0	0	0	0	679	0	0	0	0	
0	0	0	0	0	0	837	0	0	0	0	
1	0	0	0	0	0	961	0	0	0	0	
2	0	0	0	0	0	1020	0	0	0	0	
3	0	0	0	0	0	1020	0	0	0	0	
4	0	0	0	0	0	1001	0	0	0	0	
5	0	0	0	0	0	909	0	0	0	0	
6	0	0	0	0	0	765	0	0	0	0	
7	0	0	0	0	0	582	0	0	0	0	
8	0	0	0	0	75	374	0	0	0	0	
9	0	0	0	0	387	163	0	0	0	0	
10	0	0	0	0	792	0	0	0	0	0	
11	0	0	0	0	1020	0	0	0	0	0	
12	0	0	0	0	1021	0	0	0	0	0	
13	0	0	0	0	1021	0	0	0	0	0	
14	0	0	0	0	1021	0	0	0	0	0	
15	0	0	0	0	1021	0	0	0	0	0	
0	0	0	0	0	813	16	0	0	0	0	
1	0	0	0	0	381	102	0	0	0	0	
2	0	0	0	0	0	225	0	0	0	0	
3	0	0	0	0	0	371	0	0	0	0	
4	0	0	0	0	0	523	0	0	0	0	
5	0	0	0	0	0	664	0	0	0	0	
6	0	0	0	0	0	773	0	0	0	0	
7	0	0	0	0	0	840	0	0	0	0	
8	0	0	0	0	0	858	0	0	0	0	
9	0	0	0	0	0	824	0	0	0	0	
10	0	0	0	0	0	742	0	0	0	0	
11	0	0	0	0	0	621	0	1	0	0	
12	0	0	0	0	132	473	0	0	0	0	
13	0	0	0	0	507	316	0	0	0	0	
14	0	0	0	0	980	171	0	0	0	0	
15	0	0	0	0	1021	51	0	0	0	0	
0	0	0	0	0	1021	0	0	0	0	0	
1	0	0	0	0	1021	0	0	0	0	0	
2	0	0	0	0	1021	0	0	0	0	0	
3	0	0	0	0	1021	39	0	0	0	0	
4	0	0	0	0	956	130	0	0	0	0	
5	0	0	0	0	595	256	0	0	0	0	
6	0	0	0	0	52	404	0	0	0	0	
7	0	0	0	0	0	561	0	0	0	0	
8	0	0	0	0	0	707	0	0	0	0	
9	0	0	0	0	0	823	0	0	0	0	
10	0	0	0	0	0	899	0	0	0	0	
11	0	0	0	0	0	924	0	0	0	0	
12	0	0	0	0	0	894	0	0	0	0	
13	0	0	0	0	0	808	0	0	0	0	
14	0	0	0	0	0	673	0	0	0	0	
15	0	0	0	0	0	502	0	0	0	0	
0	0	0	0	0	158	311	0	0	0	0	
1	0	0	0	0	551	121	0	0	0	0	
2	0	0	0	0	1020	0	0	0	0	0	
3	0	0	0	0	1021	0	0	0	0	0	
4	0	0	0	0	1021	0	0	0	0	0	
5	0	0	0	0	1021	0	0	0	0	0	
6	0	0	0	0	1021	0	0	0	0	0	
7	0	0	0	0	1021	0	0	0	0	0	
8	0	0	0	0	960	70	0	0	0	0	
9	0	0	0	0	595	188	0	0	0	0	
10	0	0	0	0	46	341	0	0	0	0	
11	0	0	0	0	0	512	0	0	0	0	
12	0	0	0	0	0	683	0	0	0	0	
13	0	0	0	0	0	831	0	0	0	0	
14	0	0	0	0	0	939	0	0	0	0	
15	0	0	0	0	0	994	0	0	0	0	
0	0	0	0	0	0	989	0	0	0	0	
1	0	0	0	0	0	922	0	0	0	0	
2	0	0	0	0	0	798	0	0	0	0	
3	0	0	0	0	0	627	0	1	0	0	
4	0	0	0	0	182	427	0	0	0	0	
5	0	0	0	0	593	218	0	0	0	0	
6	0	0	0	0	1020	27	0	0	0	0	
7	0	0	0	0	1021	0	0	0	0	0	
8	0	0	0	0	1021	0	0	0	0	0	
9	0	0	0	0	1021	0	0	0	0	0	
10	0	0	0	0	1021	0	0	0	0	0	
11	0	0	0	0	1021	0	0	0	0	0	
12	0	0	0	0	942	75	0	0	0	0	
13	0	0	0	0	551	203	0	0	0	0	
14	0	0	0	0	0	365	0	0	0	0	
15	0	0	0	0	0	546	0	0	0	0	
0	0	0	0	0	0	725	0	0	0	0	
1	0	0	0	0	0	876	0	0	0	0	
2	0	0	0	0	0	985	0	0	0	0	
3	0	0	0	0	0	1021	0	0	0	0	
4	0	0	0	0	0	1020	0	0	0	0	
5	0	0	0	0	0	948	0	0	0	0	
6	0	0	0	0	0	817	0	0	0	0	
7	0	0	0	0	0	634	0	0	0	0	
8	0	0	0	0	109	416	0	0	0	0	
9	0	0	0	0	479	184	0	0	0	0	
10	0	0	0	0	947	0	0	0	0	0	
11	0	0	0	0	1020	0	0	0	0	0	
12	0	0	0	0	1021	0	0	0	0	0	
13	0	0	0	0	1021	0	0	0	0	0	
14	0	0	0	0	1021	0	0	0	0	0	
15	0	0	0	0	1021	0	0	0	0	0	
0	0	0	0	0	844	0	0	0	0	0	
1	0	0	0	0	393	83	0	0	0	0	
2	0	0	0	0	0	212	0	0	0	0	
3	0	0	0	0	0	369	0	0	0	0	
4	0	0	0	0	0	536	0	0	0	0	
5	0	0	0	0	0	694	0	0	0	0	
6	0	0	0	0	0	821	0	0	0	0	
7	0	0	0	0	0	903	0	0	0	0	
8	0	0	0	0	0	933	0	0	0	0	
9	0	0	0	0	0	907	0	0	0	0	
10	0	0	0	0	0	829	0	0	0	0	
11	0	0	0	0	0	705	0	0	0	0	
12	0	0	0	0	172	551	0	0	0	0	
13	0	0	0	0	576	383	0	0	0	0	
14	0	0	0	0	1020	220	0	0	0	0	
15	0	0	0	0	1021	82	0	0	0	0	
0	0	0	0	0	1021	0	0	0	0	0	
1	0	0	0	0	1021	0	0	0	0	0	
2	0	0	0	0	1021	0	0	0	0	0	
3	0	0	0	0	1021	23	0	0	0	0	
4	0	0	0	0	976	108	0	0	0	0	
5	0	0	0	0	637	231	0	0	0	0	
6	0	0	0	0	124	379	0	0	0	0	
7	0	0	0	0	0	536	0	0	0	0	
8	0	0	0	0	0	686	0	0	0	0	
9	0	0	0	0	0	807	0	0	0	0	
10	0	0	0	0	0	888	0	0	0	0	
11	0	0	0	0	0	920	0	0	0	0	
12	0	0	0	0	0	900	0	0	0	0	
13	0	0	0	0	0	827	0	0	0	0	
14	0	0	0	0	0	707	0	0	0	0	
15	0	0	0	0	2	551	0	0	0	0	
0	0	0	0	0	302	377	0	0	0	0	
1	0	0	0	0	744	202	0	0	0	0	
2	0	0	0	0	1020	48	0	0	0	0	
3	0	0	0	0	1021	0	0	0	0	0	
4	0	0	0	0	1021	0	0	0	0	0	
5	0	0	0	0	1021	0	0	0	0	0	
6	0	0	0	0	1021	0	0	0	0	0	
7	0	0	0	0	1021	30	0	0	0	0	
8	0	0	0	0	996	120	0	0	0	0	
9	0	0	0	0	682	245	0	0	0	0	
10	0	0	0	0	196	395	0	0	0	0	
11	0	0	0	0	0	556	0	0	0	0	
12	0	0	0	0	0	708	0	0	0	0	
13	0	0	0	0	0	833	0	0	0	0	
14	0	0	0	0	0	916	0	0	0	0	
15	0	0	0	0	0	950	0	0	0	0	
0	0	0	0	0	0	928	0	0	0	0	
1	0	0	0	0	0	852	0	0	0	0	
2	0	0	0	0	0	729	0	0	0	0	
3	0	0	0	0	45	569	0	1	0	0	
4	0	0	0	0	371	390	0	0	0	0	
5	0	0	0	0	831	209	0	0	0	0	
6	0	0	0	0	1020	48	0	0	0	0	
7	0	0	0	0	1021	0	0	0	0	0	
8	0	0	0	0	1021	0	0	0	0	0	
9	0	0	0	0	1021	0	0	0	0	0	
10	0	0	0	0	1021	0	0	0	0	0	
11	0	0	0	0	1021	23	0	0	0	0	
12	0	0	0	0	1002	108	0	0	0	0	
13	0	0	0	0	695	232	0	0	0	0	
14	0	0	0	0	217	382	0	0	0	0	
15	0	0	0	0	0	543	0	0	0	0	
0	0	0	0	0	0	701	0	0	0	0	
1	0	0	0	0	0	835	0	0	0	0	
2	0	0	0	0	0	933	0	0	0	0	
3	0	0	0	0	0	986	0	0	0	0	
4	0	0	0	0	0	988	0	0	0	0	
5	0	0	0	0	0	939	0	0	0	0	
6	0	0	0	0	0	841	0	0	0	0	
7	0	0	0	0	49	705	0	1	0	0	
8	0	0	0	0	380	541	0	0	0	0	
9	0	0	0	0	847	365	0	0	0	0	
10	0	0	0	0	1020	199	0	0	0	0	
11	0	0	0	0	1021	58	0	0	0	0	
12	0	0	0	0	1021	0	0	0	0	0	
13	0	0	0	0	1021	0	0	0	0	0	
14	0	0	0	0	1021	0	0	0	0	0	
15	0	0	0	0	1021	10	0	0	0	0	
0	0	0	0	0	1021	84	0	0	0	0	
1	0	0	0	0	795	196	0	0	0	0	
2	0	0	0	0	363	336	0	0	0	0	
3	0	0	0	0	0	493	0	0	0	0	
4	0	0	0	0	0	651	0	0	0	0	
5	0	0	0	0	0	793	0	0	0	0	
6	0	0	0	0	0	904	0	0	0	0	
7	0	0	0	0	0	974	0	0	0	0	
8	0	0	0	0	0	999	0	0	0	0	
9	0	0	0	0	0	973	0	0	0	0	
10	0	0	0	0	0	899	0	0	0	0	
11	0	0	0	0	48	782	0	0	0	0	
12	0	0	0	0	373	634	0	0	0	0	
13	0	0	0	0	836	470	0	0	0	0	
14	0	0	0	0	1020	306	0	0	0	0	
15	0	0	0	0	1021	163	0	0	0	0	
0	0	0	0	0	1021	54	0	0	0	0	
1	0	0	0	0	1021	0	0	0	0	0	
2	0	0	0	0	1021	0	0	0	0	0	
3	0	0	0	0	1021	18	0	0	0	0	
4	0	0	0	0	1021	93	0	0	0	0	
5	0	0	0	0	825	207	0	0	0	0	
6	0	0	0	0	409	351	0	0	0	0	
7	0	0	0	0	0	510	0	0	0	0	
8	0	0	0	0	0	667	0	0	0	0	
9	0	0	0	0	0	803	0	0	0	0	
10	0	0	0	0	0	903	0	0	0	0	
11	0	0	0	0	0	958	0	0	0	0	
12	0	0	0	0	0	962	0	0	0	0	
13	0	0	0	0	0	912	0	0	0	0	
14	0	0	0	0	0	811	0	0	0	0	
15	0	0	0	0	0	668	0	0	0	0	
0	0	0	0	0	252	497	0	0	0	0	
1	0	0	0	0	657	314	0	0	0	0	
2	0	0	0	0	1020	140	0	0	0	0	
3	0	0	0	0	1021	0	0	0	0	0	
4	0	0	0	0	1021	0	0	0	0	0	
5	0	0	0	0	1021	0	0	0	0	0	
6	0	0	0	0	1021	0	0	0	0	0	
7	0	0	0	0	1021	0	0	0	0	0	
8	0	0	0	0	1017	48	0	0	0	0	
9	0	0	0	0	734	147	0	0	0	0	
10	0	0	0	0	283	279	0	0	0	0	
11	0	0	0	0	0	430	0	0	0	0	
12	0	0	0	0	0	586	0	0	0	0	
13	0	0	0	0	0	728	0	0	0	0	
14	0	0	0	0	0	839	0	0	0	0	
15	0	0	0	0	0	909	0	0	0	0	
0	0	0	0	0	0	932	0	0	0	0	
1	0	0	0	0	0	904	0	0	0	0	
2	0	0	0	0	0	828	0	0	0	0	
3	0	0	0	0	0	710	0	0	0	0	
4	0	0	0	0	237	562	0	0	0	0	
5	0	0	0	0	640	398	0	0	0	0	
6	0	0	0	0	1020	239	0	0	0	0	
7	0	0	0	0	1021	103	0	0	0	0	
8	0	0	0	0	1021	0	0	0	0	0	
9	0	0	0	0	1021	0	0	0	0	0	
10	0	0	0	0	1021	0	0	0	0	0	
11	0	0	0	0	1021	3	0	0	0	0	
12	0	0	0	0	1008	63	0	0	0	0	
13	0	0	0	0	706	158	0	0	0	0	
14	0	0	0	0	229	280	0	0	0	0	
15	0	0	0	0	0	419	0	0	0	0	
0	0	0	0	0	0	561	0	0	0	0	
1	0	0	0	0	0	694	0	0	0	0	
2	0	0	0	0	0	801	0	0	0	0	
3	0	0	0	0	0	876	0	0	0	0	
4	0	0	0	0	0	912	0	0	0	0	
5	0	0	0	0	0	906	0	0	0	0	
6	0	0	0	0	0	859	0	0	0	0	
7	0	0	0	0	0	773	0	0	0	0	
8	0	0	0	0	243	658	0	0	0	0	
9	0	0	0	0	660	524	0	0	0	0	
10	0	0	0	0	1020	387	0	0	0	0	
11	0	0	0	0	1021	263	0	0	0	0	
12	0	0	0	0	1021	166	0	0	0	0	
13	0	0	0	0	1021	103	0	0	0	0	
14	0	0	0	0	1021	80	0	0	0	0	
15	0	0	0	0	1021	100	0	0	0	0	
0	0	0	0	0	1021	159	0	0	0	0	
1	0	0	0	0	786	253	0	0	0	0	
2	0	0	0	0	349	373	0	0	0	0	
3	0	0	0	0	0	506	0	0	0	0	
4	0	0	0	0	0	640	0	0	0	0	
5	0	0	0	0	0	760	0	0	0	0	
6	0	0	0	0	0	851	0	0	0	0	
7	0	0	0	0	0	907	0	0	0	0	
8	0	0	0	0	0	921	0	0	0	0	
9	0	0	0	0	0	892	0	0	0	0	
10	0	0	0	0	0	819	0	0	0	0	
11	0	0	0	0	0	711	0	0	0	0	
12	0	0	0	0	252	576	0	0	0	0	
13	0	0	0	0	663	428	0	0	0	0	
14	0	0	0	0	1020	284	0	0	0	0	
15	0	0	0	0	1021	161	0	0	0	0	
0	0	0	0	0	1021	71	0	0	0	0	
1	0	0	0	0	1021	22	0	0	0	0	
2	0	0	0	0	1021	18	0	0	0	0	
3	0	0	0	0	1021	62	0	0	0	0	
4	0	0	0	0	1021	150	0	0	0	0	
5	0	0	0	0	766	274	0	0	0	0	
6	0	0	0	0	326	423	0	0	0	0	
7	0	0	0	0	0	583	0	0	0	0	
8	0	0	0	0	0	736	0	0	0	0	
9	0	0	0	0	0	866	0	0	0	0	
10	0	0	0	0	0	960	0	0	0	0	
11	0	0	0	0	0	1009	0	0	0	0	
12	0	0	0	0	0	1009	0	0	0	0	
13	0	0	0	0	0	958	0	0	0	0	
14	0	0	0	0	0	859	0	0	0	0	
15	0	0	0	0	0	718	0	1	0	0	
0	0	0	0	0	198	551	0	0	0	0	
1	0	0	0	0	572	368	0	0	0	0	
2	0	0	0	0	1019	191	0	0	0	0	
3	0	0	0	0	1021	38	0	0	0	0	
4	0	0	0	0	1021	0	0	0	0	0	
5	0	0	0	0	1021	0	0	0	0	0	
6	0	0	0	0	1021	0	0	0	0	0	
7	0	0	0	0	1021	0	0	0	0	0	
8	0	0	0	0	944	35	0	0	0	0	
9	0	0	0	0	606	127	0	0	0	0	
10	0	0	0	0	110	256	0	0	0	0	
11	0	0	0	0	0	407	0	0	0	0	
12	0	0	0	0	0	566	0	0	0	0	
13	0	0	0	0	0	715	0	0	0	0	
14	0	0	0	0	0	835	0	0	0	0	
15	0	0	0	0	0	913	0	0	0	0	
0	0	0	0	0	0	945	0	0	0	0	
1	0	0	0	0	0	924	0	0	0	0	
2	0	0	0	0	0	851	0	0	0	0	
3	0	0	0	0	0	732	0	1	0	0	
4	0	0	0	0	172	579	0	0	0	0	
5	0	0	0	0	532	408	0	0	0	0	
6	0	0	0	0	973	237	0	0	0	0	
7	0	0	0	0	1020	89	0	0	0	0	
8	0	0	0	0	1021	0	0	0	0	0	
9	0	0	0	0	1021	0	0	0	0	0	
10	0	0	0	0	1021	0	0	0	0	0	
11	0	0	0	0	1021	1	0	0	0	0	
12	0	0	0	0	952	71	0	0	0	0	
13	0	0	0	0	625	185	0	0	0	0	
14	0	0	0	0	142	331	0	0	0	0	
15	0	0	0	0	0	496	0	0	0	0	
0	0	0	0	0	0	664	0	0	0	0	
1	0	0	0	0	0	815	0	0	0	0	
2	0	0	0	0	0	934	0	0	0	0	
3	0	0	0	0	0	1012	0	0	0	0	
4	0	0	0	0	0	1021	0	0	0	0	
5	0	0	0	0	0	1011	0	0	0	0	
6	0	0	0	0	0	944	0	0	0	0	
7	0	0	0	0	5	834	0	0	0	0	
8	0	0	0	0	291	691	0	0	0	0	
9	0	0	0	0	716	528	0	0	0	0	
10	0	0	0	0	1020	360	0	0	0	0	
11	0	0	0	0	1021	207	0	0	0	0	
12	0	0	0	0	1021	84	0	0	0	0	
13	0	0	0	0	1021	2	0	0	0	0	
14	0	0	0	0	1021	0	0	0	0	0	
15	0	0	0	0	1021	0	0	0	0	0	
0	0	0	0	0	1010	58	0	0	0	0	
1	0	0	0	0	717	159	0	0	0	0	
2	0	0	0	0	255	294	0	0	0	0	
3	0	0	0	0	0	449	0	0	0	0	
4	0	0	0	0	0	609	0	0	0	0	
5	0	0	0	0	0	758	0	0	0	0	
6	0	0	0	0	0	877	0	0	0	0	
7	0	0	0	0	0	958	0	0	0	0	
8	0	0	0	0	0	994	0	0	0	0	
9	0	0	0	0	0	981	0	0	0	0	
10	0	0	0	0	0	920	0	0	0	0	
11	0	0	0	0	0	815	0	0	0	0	
12	0	0	0	0	252	675	0	0	0	0	
13	0	0	0	0	657	514	0	0	0	0	
14	0	0	0	0	1020	348	0	0	0	0	
15	0	0	0	0	1021	198	0	0	0	0	
0	0	0	0	0	1021	78	0	0	0	0	
1	0	0	0	0	1021	0	0	0	0	0	
2	0	0	0	0	1021	0	0	0	0	0	
3	0	0	0	0	1021	0	0	0	0	0	
4	0	0	0	0	996	55	0	0	0	0	
5	0	0	0	0	692	153	0	0	0	0	
6	0	0	0	0	220	284	0	0	0	0	
7	0	0	0	0	0	435	0	0	0	0	
8	0	0	0	0	0	591	0	0	0	0	
9	0	0	0	0	0	735	0	0	0	0	
10	0	0	0	0	0	848	0	0	0	0	
11	0	0	0	0	0	922	0	0	0	0	
12	0	0	0	0	0	950	0	0	0	0	
13	0	0	0	0	0	927	0	0	0	0	
14	0	0	0	0	0	853	0	0	0	0	
15	0	0	0	0	0	736	0	0	0	0	
0	0	0	0	0	193	587	0	0	0	0	
1	0	0	0	0	569	419	0	0	0	0	
2	0	0	0	0	1020	252	0	0	0	0	
3	0	0	0	0	1021	105	0	0	0	0	
4	0	0	0	0	1021	0	0	0	0	0	
5	0	0	0	0	1021	0	0	0	0	0	
6	0	0	0	0	1021	0	0	0	0	0	
7	0	0	0	0	1021	0	0	0	0	0	
8	0	0	0	0	942	24	0	0	0	0	
9	0	0	0	0	593	103	0	0	0	0	
10	0	0	0	0	82	217	0	0	0	0	
11	0	0	0	0	0	356	0	0	0	0	
12	0	0	0	0	0	509	0	0	0	0	
13	0	0	0	0	0	660	0	0	0	0	
14	0	0	0	0	0	794	0	0	0	0	
15	0	0	0	0	0	896	0	0	0	0	
0	0	0	0	0	0	961	0	0	0	0	
1	0	0	0	0	0	980	0	0	0	0	
2	0	0	0	0	0	954	0	0	0	0	
3	0	0	0	0	0	883	0	0	0	0	
4	0	0	0	0	259	776	0	0	0	0	
5	0	0	0	0	679	643	0	0	0	0	
6	0	0	0	0	1020	496	0	0	0	0	
7	0	0	0	0	1021	349	0	0	0	0	
8	0	0	0	0	1021	220	0	0	0	0	
9	0	0	0	0	1021	120	0	0	0	0	
10	0	0	0	0	1021	54	0	0	0	0	
11	0	0	0	0	1021	30	0	0	0	0	
12	0	0	0	0	1005	50	0	0	0	0	
13	0	0	0	0	703	112	0	0	0	0	
14	0	0	0	0	231	212	0	0	0	0	
15	0	0	0	0	0	336	0	0	0	0	
0	0	0	0	0	0	472	0	0	0	0	
1	0	0	0	0	0	602	0	0	0	0	
2	0	0	0	0	0	712	0	0	0	0	
3	0	0	0	0	0	790	0	0	0	0	
4	0	0	0	0	0	829	0	0	0	0	
5	0	0	0	0	0	827	0	0	0	0	
6	0	0	0	0	0	783	0	0	0	0	
7	0	0	0	0	0	704	0	0	0	0	
8	0	0	0	0	225	598	0	0	0	0	
9	0	0	0	0	631	476	0	0	0	0	
10	0	0	0	0	1020	353	0	0	0	0	
11	0	0	0	0	1021	244	0	0	0	0	
12	0	0	0	0	1021	160	0	0	0	0	
13	0	0	0	0	1021	108	0	0	0	0	
14	0	0	0	0	1021	92	0	0	0	0	
15	0	0	0	0	1021	118	0	0	0	0	
0	0	0	0	0	1021	182	0	0	0	0	
1	0	0	0	0	774	281	0	0	0	0	
2	0	0	0	0	342	404	0	0	0	0	
3	0	0	0	0	0	539	0	0	0	0	
4	0	0	0	0	0	668	0	0	0	0	
5	0	0	0	0	0	776	0	0	0	0	
6	0	0	0	0	0	853	0	0	0	0	
7	0	0	0	0	0	891	0	0	0	0	
8	0	0	0	0	0	885	0	0	0	0	
9	0	0	0	0	0	838	0	0	0	0	
10	0	0	0	0	0	750	0	0	0	0	
11	0	0	0	0	0	631	0	0	0	0	
12	0	0	0	0	230	493	0	0	0	0	
13	0	0	0	0	624	348	0	0	0	0	
14	0	0	0	0	1020	214	0	0	0	0	
15	0	0	0	0	1021	105	0	0	0	0	
0	0	0	0	0	1021	30	0	0	0	0	
1	0	0	0	0	1021	0	0	0	0	0	
2	0	0	0	0	1021	11	0	0	0	0	
3	0	0	0	0	1021	70	0	0	0	0	
4	0	0	0	0	1021	172	0	0	0	0	
5	0	0	0	0	768	306	0	0	0	0	
6	0	0	0	0	344	461	0	0	0	0	
7	0	0	0	0	0	621	0	0	0	0	
8	0	0	0	0	0	769	0	0	0	0	
9	0	0	0	0	0	889	0	0	0	0	
10	0	0	0	0	0	969	0	0	0	0	
11	0	0	0	0	0	1004	0	0	0	0	
12	0	0	0	0	0	991	0	0	0	0	
13	0	0	0	0	0	929	0	0	0	0	
14	0	0	0	0	0	827	0	0	0	0	
15	0	0	0	0	22	691	0	0	0	0	
0	0	0	0	0	316	536	0	0	0	0	
1	0	0	0	0	747	374	0	0	0	0	
2	0	0	0	0	1020	223	0	0	0	0	
3	0	0	0	0	1021	97	0	0	0	0	
4	0	0	0	0	1021	5	0	0	0	0	
5	0	0	0	0	1021	0	0	0	0	0	
6	0	0	0	0	1021	0	0	0	0	0	
7	0	0	0	0	1021	22	0	0	0	0	
8	0	0	0	0	1021	98	0	0	0	0	
9	0	0	0	0	799	209	0	0	0	0	
10	0	0	0	0	390	348	0	0	0	0	
11	0	0	0	0	0	499	0	0	0	0	
12	0	0	0	0	0	651	0	0	0	0	
13	0	0	0	0	0	783	0	0	0	0	
14	0	0	0	0	0	884	0	0	0	0	
15	0	0	0	0	0	945	0	0	0	0	
0	0	0	0	0	0	963	0	0	0	0	
1	0	0	0	0	0	936	0	0	0	0	
2	0	0	0	0	0	867	0	0	0	0	
3	0	0	0	0	96	764	0	0	0	0	
4	0	0	0	0	449	638	0	0	0	0	
5	0	0	0	0	935	499	0	0	0	0	
6	0	0	0	0	1021	361	0	0	0	0	
7	0	0	0	0	1021	243	0	0	0	0	
8	0	0	0	0	1021	152	0	0	0	0	
9	0	0	0	0	1021	94	0	0	0	0	
10	0	0	0	0	1021	73	0	0	0	0	
11	0	0	0	0	1021	91	0	0	0	0	
12	0	0	0	0	1021	147	0	0	0	0	
13	0	0	0	0	940	233	0	0	0	0	
14	0	0	0	0	608	342	0	0	0	0	
15	0	0	0	0	145	463	0	0	0	0	
0	0	0	0	0	0	582	0	0	0	0	
1	0	0	0	0	0	687	0	0	0	0	
2	0	0	0	0	0	764	0	0	0	0	
3	0	0	0	0	0	810	0	0	0	0	
4	0	0	0	0	0	819	0	0	0	0	
5	0	0	0	0	0	790	0	0	0	0	
6	0	0	0	0	0	723	0	0	0	0	
7	0	0	0	0	222	629	0	0	0	0	
8	0	0	0	0	645	515	0	0	0	0	
9	0	0	0	0	1020	393	0	0	0	0	
10	0	0	0	0	1021	278	0	0	0	0	
11	0	0	0	0	1021	180	0	0	0	0	
12	0	0	0	0	1021	110	0	0	0	0	
13	0	0	0	0	1021	74	0	0	0	0	
14	0	0	0	0	1021	79	0	0	0	0	
15	0	0	0	0	1021	124	0	0	0	0	
0	0	0	0	0	1021	208	0	0	0	0	
1	0	0	0	0	1021	322	0	0	0	0	
2	0	0	0	0	832	458	0	0	0	0	
3	0	0	0	0	473	601	0	0	0	0	
4	0	0	0	0	35	736	0	0	0	0	
5	0	0	0	0	0	846	0	0	0	0	
6	0	0	0	0	0	923	0	0	0	0	
7	0	0	0	0	0	958	0	0	0	0	
8	0	0	0	0	0	949	0	0	0	0	
9	0	0	0	0	0	895	0	0	0	0	
10	0	0	0	0	83	801	0	0	0	0	
11	0	0	0	0	427	677	0	0	0	0	
12	0	0	0	0	928	533	0	0	0	0	
13	0	0	0	0	1021	382	0	0	0	0	
14	0	0	0	0	1021	241	0	0	0	0	
15	0	0	0	0	1021	124	0	0	0	0	
0	0	0	0	0	1021	39	0	0	0	0	
1	0	0	0	0	1021	0	0	0	0	0	
2	0	0	0	0	1021	1	0	0	0	0	
3	0	0	0	0	1021	46	0	0	0	0	
4	0	0	0	0	1021	132	0	0	0	0	
5	0	0	0	0	1021	251	0	0	0	0	
6	0	0	0	0	944	394	0	0	0	0	
7	0	0	0	0	644	549	0	0	0	0	
8	0	0	0	0	254	702	0	0	0	0	
9	0	0	0	0	0	834	0	0	0	0	
10	0	0	0	0	0	933	0	0	0	0	
11	0	0	0	0	0	990	0	0	0	0	
12	0	0	0	0	0	1001	0	0	0	0	
13	0	0	0	0	0	965	0	0	0	0	
14	0	0	0	0	193	886	0	0	0	0	
15	0	0	0	0	606	771	0	1	0	0	
0	0	0	0	0	1020	632	0	0	0	0	
1	0	0	0	0	1021	483	0	0	0	0	
2	0	0	0	0	1021	338	0	0	0	0	
3	0	0	0	0	1021	217	0	0	0	0	
4	0	0	0	0	1021	131	0	0	0	0	
5	0	0	0	0	1021	87	0	0	0	0	
6	0	0	0	0	1021	90	0	0	0	0	
7	0	0	0	0	1021	142	0	0	0	0	
8	0	0	0	0	1021	237	0	0	0	0	
9	0	0	0	0	1021	366	0	0	0	0	
10	0	0	0	0	1021	515	0	0	0	0	
11	0	0	0	0	848	669	0	0	0	0	
12	0	0	0	0	529	808	0	0	0	0	
13	0	0	0	0	166	920	0	0	0	0	
14	0	0	0	0	0	993	0	0	0	0	
15	0	0	0	0	0	1021	0	0	0	0	
0	0	0	0	0	0	998	0	0	0	0	
1	0	0	0	0	0	924	0	0	0	0	
2	0	0	0	0	227	807	0	0	0	0	
3	0	0	0	0	646	659	0	1	0	0	
4	0	0	0	0	1020	495	0	0	0	0	
5	0	0	0	0	1021	332	0	0	0	0	
6	0	0	0	0	1021	191	0	0	0	0	
7	0	0	0	0	1021	84	0	0	0	0	
8	0	0	0	0	1021	21	0	0	0	0	
9	0	0	0	0	1021	7	0	0	0	0	
10	0	0	0	0	1021	45	0	0	0	0	
11	0	0	0	0	1021	135	0	0	0	0	
12	0	0	0	0	1021	268	0	0	0	0	
13	0	0	0	0	1021	435	0	0	0	0	
14	0	0	0	0	1021	617	0	0	0	0	
15	0	0	0	0	819	799	0	0	0	0	
0	0	0	0	0	496	961	0	0	0	0	
1	0	0	0	0	138	1021	0	0	0	0	
2	0	0	0	0	0	1021	0	0	0	0	
3	0	0	0	0	0	1021	0	0	0	0	
4	0	0	0	0	0	1021	0	0	0	0	
5	0	0	0	0	44	1007	0	0	0	0	
6	0	0	0	0	349	928	0	0	0	0	
7	0	0	0	0	834	813	0	0	0	0	
8	0	0	0	0	1020	672	0	0	0	0	
9	0	0	0	0	1021	518	0	0	0	0	
10	0	0	0	0	1021	365	0	0	0	0	
11	0	0	0	0	1021	233	0	0	0	0	
12	0	0	0	0	1021	135	0	0	0	0	
13	0	0	0	0	1021	80	0	0	0	0	
14	0	0	0	0	1021	71	0	0	0	0	
15	0	0	0	0	1021	111	0	0	0	0	
0	0	0	0	0	1021	197	0	0	0	0	
1	0	0	0	0	1021	320	0	0	0	0	
2	0	0	0	0	1018	471	0	0	0	0	
3	0	0	0	0	755	632	0	0	0	0	
4	0	0	0	0	391	786	0	0	0	0	
5	0	0	0	0	3	915	0	0	0	0	
6	0	0	0	0	0	1008	0	0	0	0	
7	0	0	0	0	0	1021	0	0	0	0	
8	0	0	0	0	0	1021	0	0	0	0	
9	0	0	0	0	13	980	0	0	0	0	
10	0	0	0	0	301	886	0	0	0	0	
11	0	0	0	0	777	755	0	0	0	0	
12	0	0	0	0	1020	598	0	0	0	0	
13	0	0	0	0	1021	428	0	0	0	0	
14	0	0	0	0	1021	265	0	0	0	0	
15	0	0	0	0	1021	128	0	0	0	0	
0	0	0	0	0	1021	26	0	0	0	0	
1	0	0	0	0	1021	0	0	0	0	0	
2	0	0	0	0	1021	0	0	0	0	0	
3	0	0	0	0	1021	33	0	0	0	0	
4	0	0	0	0	1021	127	0	0	0	0	
5	0	0	0	0	1021	262	0	0	0	0	
6	0	0	0	0	959	428	0	0	0	0	
7	0	0	0	0	649	607	0	0	0	0	
8	0	0	0	0	243	779	0	0	0	0	
9	0	0	0	0	0	923	0	0	0	0	
10	0	0	0	0	0	1021	0	0	0	0	
11	0	0	0	0	0	1021	0	0	0	0	
12	0	0	0	0	0	1021	0	0	0	0	
13	0	0	0	0	0	1006	0	0	0	0	
14	0	0	0	0	263	931	0	0	0	0	
15	0	0	0	0	742	820	0	1	0	0	
0	0	0	0	0	1020	686	0	0	0	0	
1	0	0	0	0	1021	542	0	0	0	0	
2	0	0	0	0	1021	404	0	0	0	0	
3	0	0	0	0	1021	289	0	0	0	0	
4	0	0	0	0	1021	213	0	0	0	0	
5	0	0	0	0	1021	181	0	0	0	0	
6	0	0	0	0	1021	194	0	0	0	0	
7	0	0	0	0	1021	252	0	0	0	0	
8	0	0	0	0	1021	349	0	0	0	0	
9	0	0	0	0	1021	474	0	0	0	0	
10	0	0	0	0	1021	615	0	0	0	0	
11	0	0	0	0	848	757	0	0	0	0	
12	0	0	0	0	516	885	0	0	0	0	
13	0	0	0	0	140	990	0	0	0	0	
14	0	0	0	0	0	1021	0	0	0	0	
15	0	0	0	0	0	1021	0	0	0	0	
0	0	0	0	0	0	1021	0	0	0	0	
1	0	0	0	0	0	982	0	0	0	0	
2	0	0	0	0	247	897	0	0	0	0	
3	0	0	0	0	683	780	0	1	0	0	
4	0	0	0	0	1020	641	0	0	0	0	
5	0	0	0	0	1021	492	0	0	0	0	
6	0	0	0	0	1021	347	0	0	0	0	
7	0	0	0	0	1021	225	0	0	0	0	
8	0	0	0	0	1021	137	0	0	0	0	
9	0	0	0	0	1021	88	0	0	0	0	
10	0	0	0	0	1021	82	0	0	0	0	
11	0	0	0	0	1021	121	0	0	0	0	
12	0	0	0	0	1021	202	0	0	0	0	
13	0	0	0	0	1022	317	0	0	0	0	
14	0	0	0	0	1021	455	0	0	0	0	
15	0	0	0	0	768	604	0	0	0	0	
0	0	0	0	0	413	748	0	0	0	0	
1	0	0	0	0	24	871	0	0	0	0	
2	0	0	0	0	0	963	0	0	0	0	
3	0	0	0	0	0	1016	0	0	0	0	
4	0	0	0	0	0	1021	0	0	0	0	
5	0	0	0	0	0	992	0	0	0	0	
6	0	0	0	0	211	921	0	0	0	0	
7	0	0	0	0	630	819	0	0	0	0	
8	0	0	0	0	1020	697	0	0	0	0	
9	0	0	0	0	1021	567	0	0	0	0	
10	0	0	0	0	1021	443	0	0	0	0	
11	0	0	0	0	1021	336	0	0	0	0	
12	0	0	0	0	1021	262	0	0	0	0	
13	0	0	0	0	1021	222	0	0	0	0	
14	0	0	0	0	1021	219	0	0	0	0	
15	0	0	0	0	1021	253	0	0	0	0	
0	0	0	0	0	1021	318	0	0	0	0	
1	0	0	0	0	1021	409	0	0	0	0	
2	0	0	0	0	1021	513	0	0	0	0	
3	0	0	0	0	815	620	0	0	0	0	
4	0	0	0	0	476	718	0	0	0	0	
5	0	0	0	0	95	800	0	0	0	0	
6	0	0	0	0	0	859	0	0	0	0	
7	0	0	0	0	0	888	0	0	0	0	
8	0	0	0	0	0	883	0	0	0	0	
9	0	0	0	0	0	844	0	0	0	0	
10	0	0	0	0	205	773	0	0	0	0	
11	0	0	0	0	609	678	0	0	0	0	
12	0	0	0	0	1020	568	0	0	0	0	
13	0	0	0	0	1021	455	0	0	0	0	
14	0	0	0	0	1021	350	0	0	0	0	
15	0	0	0	0	1021	270	0	0	0	0	
0	0	0	0	0	1021	219	0	0	0	0	
1	0	0	0	0	1021	204	0	0	0	0	
2	0	0	0	0	1021	225	0	0	0	0	
3	0	0	0	0	1021	282	0	0	0	0	
4	0	0	0	0	1021	368	0	0	0	0	
5	0	0	0	0	1021	475	0	0	0	0	
6	0	0	0	0	1021	594	0	0	0	0	
7	0	0	0	0	790	711	0	0	0	0	
8	0	0	0	0	447	815	0	0	0	0	
9	0	0	0	0	65	896	0	0	0	0	
10	0	0	0	0	0	947	0	0	0	0	
11	0	0	0	0	0	964	0	0	0	0	
12	0	0	0	0	0	943	0	0	0	0	
13	0	0	0	0	0	886	0	0	0	0	
14	0	0	0	0	192	796	0	0	0	0	
15	0	0	0	0	588	683	0	0	0	0	
0	0	0	0	0	1020	556	0	0	0	0	
1	0	0	0	0	1021	426	0	0	0	0	
2	0	0	0	0	1021	309	0	0	0	0	
3	0	0	0	0	1021	217	0	0	0	0	
4	0	0	0	0	1021	157	0	0	0	0	
5	0	0	0	0	1021	135	0	0	0	0	
6	0	0	0	0	1021	153	0	0	0	0	
7	0	0	0	0	1021	210	0	0	0	0	
8	0	0	0	0	1021	300	0	0	0	0	
9	0	0	0	0	1021	416	0	0	0	0	
10	0	0	0	0	979	546	0	0	0	0	
11	0	0	0	0	690	678	0	0	0	0	
12	0	0	0	0	296	799	0	0	0	0	
13	0	0	0	0	0	899	0	0	0	0	
14	0	0	0	0	0	970	0	0	0	0	
15	0	0	0	0	0	1008	0	0	0	0	
0	0	0	0	0	0	1005	0	0	0	0	
1	0	0	0	0	0	961	0	0	0	0	
2	0	0	0	0	84	878	0	0	0	0	
3	0	0	0	0	417	763	0	0	0	0	
4	0	0	0	0	899	627	0	0	0	0	
5	0	0	0	0	1020	480	0	0	0	0	
6	0	0	0	0	1021	338	0	0	0	0	
7	0	0	0	0	1021	217	0	0	0	0	
8	0	0	0	0	1021	128	0	0	0	0	
9	0	0	0	0	1021	80	0	0	0	0	
10	0	0	0	0	1021	78	0	0	0	0	
11	0	0	0	0	1021	126	0	0	0	0	
12	0	0	0	0	1021	220	0	0	0	0	
13	0	0	0	0	1021	349	0	0	0	0	
14	0	0	0	0	934	504	0	0	0	0	
15	0	0	0	0	629	667	0	0	0	0	
0	0	0	0	0	228	820	0	0	0	0	
1	0	0	0	0	0	948	0	0	0	0	
2	0	0	0	0	0	1021	0	0	0	0	
3	0	0	0	0	0	1021	0	0	0	0	
4	0	0	0	0	0	1021	0	0	0	0	
5	0	0	0	0	0	999	0	0	0	0	
6	0	0	0	0	63	916	0	0	0	0	
7	0	0	0	0	371	795	0	1	0	0	
8	0	0	0	0	828	647	0	0	0	0	
9	0	0	0	0	1020	488	0	0	0	0	
10	0	0	0	0	1021	333	0	0	0	0	
11	0	0	0	0	1021	204	0	0	0	0	
12	0	0	0	0	1021	111	0	0	0	0	
13	0	0	0	0	1021	64	0	0	0	0	
14	0	0	0	0	1021	67	0	0	0	0	
15	0	0	0	0	1021	121	0	0	0	0	
0	0	0	0	0	1021	220	0	0	0	0	
1	0	0	0	0	1021	355	0	0	0	0	
2	0	0	0	0	907	512	0	0	0	0	
3	0	0	0	0	584	678	0	0	0	0	
4	0	0	0	0	167	833	0	0	0	0	
5	0	0	0	0	0	963	0	0	0	0	
6	0	0	0	0	0	1021	0	0	0	0	
7	0	0	0	0	0	1021	0	0	0	0	
8	0	0	0	0	0	1021	0	0	0	0	
9	0	0	0	0	0	996	0	0	0	0	
10	0	0	0	0	28	913	0	0	0	0	
11	0	0	0	0	315	793	0	0	0	0	
12	0	0	0	0	758	648	0	0	0	0	
13	0	0	0	0	1020	491	0	0	0	0	
14	0	0	0	0	1021	338	0	0	0	0	
15	0	0	0	0	1021	208	0	0	0	0	
0	0	0	0	0	1021	113	0	0	0	0	
1	0	0	0	0	1021	60	0	0	0	0	
2	0	0	0	0	1021	54	0	0	0	0	
3	0	0	0	0	1021	97	0	0	0	0	
4	0	0	0	0	1021	185	0	0	0	0	
5	0	0	0	0	1021	310	0	0	0	0	
6	0	0	0	0	900	461	0	0	0	0	
7	0	0	0	0	574	623	0	0	0	0	
8	0	0	0	0	152	777	0	0	0	0	
9	0	0	0	0	0	908	0	0	0	0	
10	0	0	0	0	0	1005	0	0	0	0	
11	0	0	0	0	0	1021	0	0	0	0	
12	0	0	0	0	0	1021	0	0	0	0	
13	0	0	0	0	0	1008	0	0	0	0	
14	0	0	0	0	32	939	0	0	0	0	
15	0	0	0	0	325	832	0	0	0	0	
0	0	0	0	0	774	697	0	0	0	0	
1	0	0	0	0	1020	544	0	0	0	0	
2	0	0	0	0	1021	391	0	0	0	0	
3	0	0	0	0	1021	254	0	0	0	0	
4	0	0	0	0	1021	150	0	0	0	0	
5	0	0	0	0	1021	84	0	0	0	0	
6	0	0	0	0	1021	62	0	0	0	0	
7	0	0	0	0	1021	85	0	0	0	0	
8	0	0	0	0	1021	151	0	0	0	0	
9	0	0	0	0	1021	255	0	0	0	0	
10	0	0	0	0	864	387	0	0	0	0	
11	0	0	0	0	510	532	0	0	0	0	
12	0	0	0	0	63	677	0	0	0	0	
13	0	0	0	0	0	805	0	0	0	0	
14	0	0	0	0	0	903	0	0	0	0	
15	0	0	0	0	0	963	0	0	0	0	
0	0	0	0	0	0	981	0	0	0	0	
1	0	0	0	0	0	953	0	0	0	0	
2	0	0	0	0	0	881	0	0	0	0	
3	0	0	0	0	237	772	0	1	0	0	
4	0	0	0	0	645	635	0	0	0	0	
5	0	0	0	0	1020	483	0	0	0	0	
6	0	0	0	0	1021	330	0	0	0	0	
7	0	0	0	0	1021	197	0	0	0	0	
8	0	0	0	0	1021	93	0	0	0	0	
9	0	0	0	0	1021	28	0	0	0	0	
10	0	0	0	0	1021	6	0	0	0	0	
11	0	0	0	0	1021	30	0	0	0	0	
12	0	0	0	0	1021	96	0	0	0	0	
13	0	0	0	0	1019	198	0	0	0	0	
14	0	0	0	0	751	326	0	0	0	0	
15	0	0	0	0	343	468	0	0	0	0	
0	0	0	0	0	0	613	0	0	0	0	
1	0	0	0	0	0	747	0	0	0	0	
2	0	0	0	0	0	854	0	0	0	0	
3	0	0	0	0	0	927	0	0	0	0	
4	0	0	0	0	0	961	0	0	0	0	
5	0	0	0	0	0	951	0	0	0	0	
6	0	0	0	0	0	899	0	0	0	0	
7	0	0	0	0	219	812	0	0	0	0	
8	0	0	0	0	638	700	0	0	0	0	
9	0	0	0	0	1020	575	0	0	0	0	
10	0	0	0	0	1021	451	0	0	0	0	
11	0	0	0	0	1021	341	0	0	0	0	
12	0	0	0	0	1021	259	0	0	0	0	
13	0	0	0	0	1021	210	0	0	0	0	
14	0	0	0	0	1021	196	0	0	0	0	
15	0	0	0	0	1021	219	0	0	0	0	
0	0	0	0	0	1021	273	0	0	0	0	
1	0	0	0	0	1021	354	0	0	0	0	
2	0	0	0	0	899	454	0	0	0	0	
3	0	0	0	0	556	563	0	0	0	0	
4	0	0	0	0	112	668	0	0	0	0	
5	0	0	0	0	0	756	0	0	0	0	
6	0	0	0	0	0	820	0	0	0	0	
7	0	0	0	0	0	853	0	0	0	0	
8	0	0	0	0	0	851	0	0	0	0	
9	0	0	0	0	0	815	0	0	0	0	
10	0	0	0	0	0	747	0	0	0	0	
11	0	0	0	0	225	653	0	0	0	0	
12	0	0	0	0	642	542	0	0	0	0	
13	0	0	0	0	1020	425	0	0	0	0	
14	0	0	0	0	1021	316	0	0	0	0	
15	0	0	0	0	1021	226	0	0	0	0	
0	0	0	0	0	1021	164	0	0	0	0	
1	0	0	0	0	1021	134	0	0	0	0	
2	0	0	0	0	1021	141	0	0	0	0	
3	0	0	0	0	1021	187	0	0	0	0	
4	0	0	0	0	1021	268	0	0	0	0	
5	0	0	0	0	1021	377	0	0	0	0	
6	0	0	0	0	913	503	0	0	0	0	
7	0	0	0	0	585	632	0	0	0	0	
8	0	0	0	0	156	750	0	0	0	0	
9	0	0	0	0	0	844	0	0	0	0	
10	0	0	0	0	0	905	0	0	0	0	
11	0	0	0	0	0	925	0	0	0	0	
12	0	0	0	0	0	903	0	0	0	0	
13	0	0	0	0	0	836	0	0	0	0	
14	0	0	0	0	0	734	0	0	0	0	
15	0	0	0	0	220	603	0	0	0	0	
0	0	0	0	0	626	456	0	0	0	0	
1	0	0	0	0	1020	309	0	0	0	0	
2	0	0	0	0	1021	180	0	0	0	0	
3	0	0	0	0	1021	79	0	0	0	0	
4	0	0	0	0	1021	15	0	0	0	0	
5	0	0	0	0	1021	0	0	0	0	0	
6	0	0	0	0	1021	24	0	0	0	0	
7	0	0	0	0	1021	97	0	0	0	0	
8	0	0	0	0	1021	209	0	0	0	0	
9	0	0	0	0	1021	348	0	0	0	0	
10	0	0	0	0	794	503	0	0	0	0	
11	0	0	0	0	394	656	0	0	0	0	
12	0	0	0	0	0	790	0	0	0	0	
13	0	0	0	0	0	892	0	0	0	0	
14	0	0	0	0	0	953	0	0	0	0	
15	0	0	0	0	0	969	0	0	0	0	
0	0	0	0	0	0	938	0	0	0	0	
1	0	0	0	0	0	860	0	0	0	0	
2	0	0	0	0	0	743	0	0	0	0	
3	0	0	0	0	296	595	0	1	0	0	
4	0	0	0	0	768	428	0	0	0	0	
5	0	0	0	0	1020	257	0	0	0	0	
6	0	0	0	0	1021	105	0	0	0	0	
7	0	0	0	0	1021	0	0	0	0	0	
8	0	0	0	0	1021	0	0	0	0	0	
9	0	0	0	0	1021	0	0	0	0	0	
10	0	0	0	0	1021	0	0	0	0	0	
11	0	0	0	0	1021	45	0	0	0	0	
12	0	0	0	0	1021	154	0	0	0	0	
13	0	0	0	0	1021	306	0	0	0	0	
14	0	0	0	0	759	488	0	0	0	0	
15	0	0	0	0	315	681	0	0	0	0	
0	0	0	0	0	0	861	0	0	0	0	
1	0	0	0	0	0	1008	0	0	0	0	
2	0	0	0	0	0	1021	0	0	0	0	
3	0	0	0	0	0	1021	0	0	0	0	
4	0	0	0	0	0	1021	0	0	0	0	
5	0	0	0	0	0	982	0	0	0	0	
6	0	0	0	0	0	875	0	0	0	0	
7	0	0	0	0	184	726	0	1	0	0	
8	0	0	0	0	624	547	0	0	0	0	
9	0	0	0	0	1020	357	0	0	0	0	
10	0	0	0	0	1021	177	0	0	0	0	
11	0	0	0	0	1021	28	0	0	0	0	
12	0	0	0	0	1021	0	0	0	0	0	
13	0	0	0	0	1021	0	0	0	0	0	
14	0	0	0	0	1021	0	0	0	0	0	
15	0	0	0	0	1021	24	0	0	0	0	
0	0	0	0	0	1021	120	0	0	0	0	
1	0	0	0	0	1021	259	0	0	0	0	
2	0	0	0	0	841	428	0	0	0	0	
3	0	0	0	0	430	611	0	0	0	0	
4	0	0	0	0	0	786	0	0	0	0	
5	0	0	0	0	0	933	0	0	0	0	
6	0	0	0	0	0	1021	0	0	0	0	
7	0	0	0	0	0	1021	0	0	0	0	
8	0	0	0	0	0	1021	0	0	0	0	
9	0	0	0	0	0	980	0	0	0	0	
10	0	0	0	0	0	873	0	0	0	0	
11	0	0	0	0	191	721	0	0	0	0	
12	0	0	0	0	630	537	0	0	0	0	
13	0	0	0	0	1020	338	0	0	0	0	
14	0	0	0	0	1021	146	0	0	0	0	
15	0	0	0	0	1021	0	0	0	0	0	
0	0	0	0	0	1021	0	0	0	0	0	
1	0	0	0	0	1021	0	0	0	0	0	
2	0	0	0	0	1021	0	0	0	0	0	
3	0	0	0	0	1021	0	0	0	0	0	
4	0	0	0	0	1021	76	0	0	0	0	
5	0	0	0	0	1021	203	0	0	0	0	
6	0	0	0	0	835	366	0	0	0	0	
7	0	0	0	0	428	549	0	0	0	0	
8	0	0	0	0	0	733	0	0	0	0	
9	0	0	0	0	0	895	0	0	0	0	
10	0	0	0	0	0	1016	0	0	0	0	
11	0	0	0	0	0	1021	0	0	0	0	
12	0	0	0	0	0	1021	0	0	0	0	
13	0	0	0	0	0	998	0	0	0	0	
14	0	0	0	0	0	895	0	0	0	0	
15	0	0	0	0	208	740	0	0	0	0	
0	0	0	0	0	645	547	0	0	0	0	
1	0	0	0	0	1020	337	0	0	0	0	
2	0	0	0	0	1021	136	0	0	0	0	
3	0	0	0	0	1021	0	0	0	0	0	
4	0	0	0	0	1021	0	0	0	0	0	
5	0	0	0	0	1021	0	0	0	0	0	
6	0	0	0	0	1021	0	0	0	0	0	
7	0	0	0	0	1021	0	0	0	0	0	
8	0	0	0	0	1021	49	0	0	0	0	
9	0	0	0	0	1021	159	0	0	0	0	
10	0	0	0	0	819	308	0	0	0	0	
11	0	0	0	0	408	482	0	0	0	0	
12	0	0	0	0	0	662	0	0	0	0	
13	0	0	0	0	0	828	0	0	0	0	
14	0	0	0	0	0	961	0	0	0	0	
15	0	0	0	0	0	1021	0	0	0	0	
0	0	0	0	0	0	1021	0	0	0	0	
1	0	0	0	0	0	1020	0	0	0	0	
2	0	0	0	0	0	948	0	0	0	0	
3	0	0	0	0	315	827	0	1	0	0	
4	0	0	0	0	822	671	0	0	0	0	
5	0	0	0	0	1020	497	0	0	0	0	
6	0	0	0	0	1021	320	0	0	0	0	
7	0	0	0	0	1021	167	0	0	0	0	
8	0	0	0	0	1021	49	0	0	0	0	
9	0	0	0	0	1021	0	0	0	0	0	
10	0	0	0	0	1021	0	0	0	0	0	
11	0	0	0	0	1021	12	0	0	0	0	
12	0	0	0	0	1021	85	0	0	0	0	
13	0	0	0	0	1021	199	0	0	0	0	
14	0	0	0	0	936	344	0	0	0	0	
15	0	0	0	0	572	503	0	0	0	0	
0	0	0	0	0	85	660	0	0	0	0	
1	0	0	0	0	0	798	0	0	0	0	
2	0	0	0	0	0	899	0	0	0	0	
3	0	0	0	0	0	956	0	0	0	0	
4	0	0	0	0	0	962	0	0	0	0	
5	0	0	0	0	0	913	0	0	0	0	
6	0	0	0	0	0	815	0	0	0	0	
7	0	0	0	0	249	673	0	1	0	0	
8	0	0	0	0	718	502	0	0	0	0	
9	0	0	0	0	1020	319	0	0	0	0	
10	0	0	0	0	1021	147	0	0	0	0	
11	0	0	0	0	1021	5	0	0	0	0	
12	0	0	0	0	1021	0	0	0	0	0	
13	0	0	0	0	1021	0	0	0	0	0	
14	0	0	0	0	1021	0	0	0	0	0	
15	0	0	0	0	1021	38	0	0	0	0	
0	0	0	0	0	1021	145	0	0	0	0	
1	0	0	0	0	1021	295	0	0	0	0	
2	0	0	0	0	927	474	0	0	0	0	
3	0	0	0	0	574	662	0	0	0	0	
4	0	0	0	0	103	836	0	0	0	0	
5	0	0	0	0	0	978	0	0	0	0	
6	0	0	0	0	0	1021	0	0	0	0	
7	0	0	0	0	0	1021	0	0	0	0	
8	0	0	0	0	0	1021	0	0	0	0	
9	0	0	0	0	0	960	0	0	0	0	
10	0	0	0	0	0	842	0	0	0	0	
11	0	0	0	0	264	683	0	0	0	0	
12	0	0	0	0	720	499	0	0	0	0	
13	0	0	0	0	1020	307	0	0	0	0	
14	0	0	0	0	1021	131	0	0	0	0	
15	0	0	0	0	1021	0	0	0	0	0	
0	0	0	0	0	1021	0	0	0	0	0	
1	0	0	0	0	1021	0	0	0	0	0	
2	0	0	0	0	1021	0	0	0	0	0	
3	0	0	0	0	1021	3	0	0	0	0	
4	0	0	0	0	1021	74	0	0	0	0	
5	0	0	0	0	1021	187	0	0	0	0	
6	0	0	0	0	991	332	0	0	0	0	
7	0	0	0	0	737	496	0	0	0	0	
8	0	0	0	0	393	664	0	0	0	0	
9	0	0	0	0	23	819	0	0	0	0	
10	0	0	0	0	0	943	0	0	0	0	
11	0	0	0	0	0	1020	0	0	0	0	
12	0	0	0	0	0	1021	0	0	0	0	
13	0	0	0	0	0	1021	0	0	0	0	
14	0	0	0	0	211	961	0	0	0	0	
15	0	0	0	0	610	857	0	0	0	0	
0	0	0	0	0	1020	718	0	0	0	0	
1	0	0	0	0	1021	558	0	0	0	0	
2	0	0	0	0	1021	391	0	0	0	0	
3	0	0	0	0	1021	237	0	0	0	0	
4	0	0	0	0	1021	111	0	0	0	0	
5	0	0	0	0	1021	21	0	0	0	0	
6	0	0	0	0	1021	0	0	0	0	0	
7	0	0	0	0	1021	0	0	0	0	0	
8	0	0	0	0	1021	35	0	0	0	0	
9	0	0	0	0	1021	118	0	0	0	0	
10	0	0	0	0	1021	235	0	0	0	0	
11	0	0	0	0	840	376	0	0	0	0	
12	0	0	0	0	527	529	0	0	0	0	
13	0	0	0	0	172	678	0	0	0	0	
14	0	0	0	0	0	809	0	0	0	0	
15	0	0	0	0	0	910	0	0	0	0	
0	0	0	0	0	0	973	0	0	0	0	
1	0	0	0	0	0	991	0	0	0	0	
2	0	0	0	0	218	963	0	0	0	0	
3	0	0	0	0	620	892	0	0	0	0	
4	0	0	0	0	1020	782	0	0	0	0	
5	0	0	0	0	1021	645	0	0	0	0	
6	0	0	0	0	1021	495	0	0	0	0	
7	0	0	0	0	1021	347	0	0	0	0	
8	0	0	0	0	1021	220	0	0	0	0	
9	0	0	0	0	1021	123	0	0	0	0	
10	0	0	0	0	1021	63	0	0	0	0	
11	0	0	0	0	1021	44	0	0	0	0	
12	0	0	0	0	1021	66	0	0	0	0	
13	0	0	0	0	1021	128	0	0	0	0	
14	0	0	0	0	1021	224	0	0	0	0	
15	0	0	0	0	888	343	0	0	0	0	
0	0	0	0	0	590	473	0	0	0	0	
1	0	0	0	0	235	598	0	0	0	0	
2	0	0	0	0	0	704	0	0	0	0	
3	0	0	0	0	0	779	0	0	0	0	
4	0	0	0	0	0	817	0	0	0	0	
5	0	0	0	0	0	816	0	0	0	0	
6	0	0	0	0	140	776	0	0	0	0	
7	0	0	0	0	499	701	0	0	0	0	
8	0	0	0	0	1004	598	0	0	0	0	
9	0	0	0	0	1021	476	0	0	0	0	
10	0	0	0	0	1021	348	0	0	0	0	
11	0	0	0	0	1021	233	0	0	0	0	
12	0	0	0	0	1021	138	0	0	0	0	
13	0	0	0	0	1021	71	0	0	0	0	
14	0	0	0	0	1021	39	0	0	0	0	
15	0	0	0	0	1021	44	0	0	0	0	
0	0	0	0	0	1021	85	0	0	0	0	
1	0	0	0	0	1021	160	0	0	0	0	
2	0	0	0	0	1021	262	0	0	0	0	
3	0	0	0	0	891	383	0	0	0	0	
4	0	0	0	0	598	509	0	0	0	0	
5	0	0	0	0	254	630	0	0	0	0	
6	0	0	0	0	0	729	0	0	0	0	
7	0	0	0	0	0	797	0	0	0	0	
8	0	0	0	0	0	829	0	0	0	0	
9	0	0	0	0	0	822	0	0	0	0	
10	0	0	0	0	176	774	0	0	0	0	
11	0	0	0	0	553	691	0	0	0	0	
12	0	0	0	0	1020	579	0	0	0	0	
13	0	0	0	0	1021	450	0	0	0	0	
14	0	0	0	0	1021	315	0	0	0	0	
15	0	0	0	0	1021	194	0	0	0	0	
0	0	0	0	0	1021	97	0	0	0	0	
1	0	0	0	0	1021	31	0	0	0	0	
2	0	0	0	0	1021	4	0	0	0	0	
3	0	0	0	0	1021	19	0	0	0	0	
4	0	0	0	0	1021	75	0	0	0	0	
5	0	0	0	0	1021	168	0	0	0	0	
6	0	0	0	0	1021	289	0	0	0	0	
7	0	0	0	0	925	428	0	0	0	0	
8	0	0	0	0	652	571	0	0	0	0	
9	0	0	0	0	322	704	0	0	0	0	
10	0	0	0	0	8	812	0	0	0	0	
11	0	0	0	0	0	888	0	0	0	0	
12	0	0	0	0	0	925	0	0	0	0	
13	0	0	0	0	0	919	0	0	0	0	
14	0	0	0	0	208	871	0	0	0	0	
15	0	0	0	0	602	785	0	0	0	0	
0	0	0	0	0	1020	668	0	0	0	0	
1	0	0	0	0	1021	530	0	0	0	0	
2	0	0	0	0	1021	387	0	0	0	0	
3	0	0	0	0	1021	257	0	0	0	0	
4	0	0	0	0	1021	153	0	0	0	0	
5	0	0	0	0	1021	84	0	0	0	0	
6	0	0	0	0	1021	55	0	0	0	0	
7	0	0	0	0	1021	67	0	0	0	0	
8	0	0	0	0	1021	118	0	0	0	0	
9	0	0	0	0	1021	201	0	0	0	0	
10	0	0	0	0	1021	308	0	0	0	0	
11	0	0	0	0	953	431	0	0	0	0	
12	0	0	0	0	686	553	0	0	0	0	
13	0	0	0	0	352	664	0	0	0	0	
14	0	0	0	0	20	749	0	0	0	0	
15	0	0	0	0	0	803	0	0	0	0	
0	0	0	0	0	0	821	0	0	0	0	
1	0	0	0	0	0	800	0	0	0	0	
2	0	0	0	0	149	741	0	0	0	0	
3	0	0	0	0	511	650	0	1	0	0	
4	0	0	0	0	1017	534	0	0	0	0	
5	0	0	0	0	1021	405	0	0	0	0	
6	0	0	0	0	1021	278	0	0	0	0	
7	0	0	0	0	1021	167	0	0	0	0	
8	0	0	0	0	1021	81	0	0	0	0	
9	0	0	0	0	1021	29	0	0	0	0	
10	0	0	0	0	1021	17	0	0	0	0	
11	0	0	0	0	1021	49	0	0	0	0	
12	0	0	0	0	1021	123	0	0	0	0	
13	0	0	0	0	1021	235	0	0	0	0	
14	0	0	0	0	1021	375	0	0	0	0	
15	0	0	0	0	986	531	0	0	0	0	
0	0	0	0	0	763	690	0	0	0	0	
1	0	0	0	0	480	830	0	0	0	0	
2	0	0	0	0	198	938	0	0	0	0	
3	0	0	0	0	0	1005	0	0	0	0	
4	0	0	0	0	0	1021	0	0	0	0	
5	0	0	0	0	28	995	0	0	0	0	
6	0	0	0	0	262	920	0	0	0	0	
7	0	0	0	0	665	804	0	0	0	0	
8	0	0	0	0	1020	659	0	0	0	0	
9	0	0	0	0	1021	496	0	0	0	0	
10	0	0	0	0	1021	332	0	0	0	0	
11	0	0	0	0	1021	185	0	0	0	0	
12	0	0	0	0	1021	68	0	0	0	0	
13	0	0	0	0	1021	0	0	0	0	0	
14	0	0	0	0	1021	0	0	0	0	0	
15	0	0	0	0	1021	0	0	0	0	0	
0	0	0	0	0	1021	56	0	0	0	0	
1	0	0	0	0	1021	149	0	0	0	0	
2	0	0	0	0	1021	269	0	0	0	0	
3	0	0	0	0	982	404	0	0	0	0	
4	0	0	0	0	738	540	0	0	0	0	
5	0	0	0	0	427	662	0	0	0	0	
6	0	0	0	0	115	757	0	0	0	0	
7	0	0	0	0	0	817	0	0	0	0	
8	0	0	0	0	0	839	0	0	0	0	
9	0	0	0	0	0	822	0	0	0	0	
10	0	0	0	0	192	767	0	0	0	0	
11	0	0	0	0	573	680	0	0	0	0	
12	0	0	0	0	1020	569	0	0	0	0	
13	0	0	0	0	1021	449	0	0	0	0	
14	0	0	0	0	1021	335	0	0	0	0	
15	0	0	0	0	1021	240	0	0	0	0	
0	0	0	0	0	1021	175	0	0	0	0	
1	0	0	0	0	1021	147	0	0	0	0	
2	0	0	0	0	1021	158	0	0	0	0	
3	0	0	0	0	1021	207	0	0	0	0	
4	0	0	0	0	1021	290	0	0	0	0	
5	0	0	0	0	1021	399	0	0	0	0	
6	0	0	0	0	1021	523	0	0	0	0	
7	0	0	0	0	1021	648	0	0	0	0	
8	0	0	0	0	814	761	0	0	0	0	
9	0	0	0	0	529	849	0	0	0	0	
10	0	0	0	0	232	903	0	0	0	0	
11	0	0	0	0	0	917	0	0	0	0	
12	0	0	0	0	0	888	0	0	0	0	
13	0	0	0	0	0	816	0	0	0	0	
14	0	0	0	0	172	706	0	0	0	0	
15	0	0	0	0	525	568	0	0	0	0	
0	0	0	0	0	1018	414	0	0	0	0	
1	0	0	0	0	1021	257	0	0	0	0	
2	0	0	0	0	1021	113	0	0	0	0	
3	0	0	0	0	1021	0	0	0	0	0	
4	0	0	0	0	1021	0	0	0	0	0	
5	0	0	0	0	1021	0	0	0	0	0	
6	0	0	0	0	1021	0	0	0	0	0	
7	0	0	0	0	1021	10	0	0	0	0	
8	0	0	0	0	1021	81	0	0	0	0	
9	0	0	0	0	1021	188	0	0	0	0	
10	0	0	0	0	1021	322	0	0	0	0	
11	0	0	0	0	891	473	0	0	0	0	
12	0	0	0	0	601	627	0	0	0	0	
13	0	0	0	0	260	765	0	0	0	0	
14	0	0	0	0	0	874	0	0	0	0	
15	0	0	0	0	0	945	0	0	0	0	
0	0	0	0	0	0	972	0	0	0	0	
1	0	0	0	0	0	952	0	0	0	0	
2	0	0	0	0	180	887	0	0	0	0	
3	0	0	0	0	560	782	0	0	0	0	
4	0	0	0	0	1020	649	0	0	0	0	
5	0	0	0	0	1021	499	0	0	0	0	
6	0	0	0	0	1021	347	0	0	0	0	
7	0	0	0	0	1021	208	0	0	0	0	
8	0	0	0	0	1021	95	0	0	0	0	
9	0	0	0	0	1021	15	0	0	0	0	
10	0	0	0	0	1021	0	0	0	0	0	
11	0	0	0	0	1021	0	0	0	0	0	
12	0	0	0	0	1021	30	0	0	0	0	
13	0	0	0	0	1021	102	0	0	0	0	
14	0	0	0	0	1021	204	0	0	0	0	
15	0	0	0	0	876	325	0	0	0	0	
0	0	0	0	0	560	452	0	0	0	0	
1	0	0	0	0	184	570	0	0	0	0	
2	0	0	0	0	0	665	0	0	0	0	
3	0	0	0	0	0	725	0	0	0	0	
4	0	0	0	0	0	747	0	0	0	0	
5	0	0	0	0	0	728	0	0	0	0	
6	0	0	0	0	52	674	0	0	0	0	
7	0	0	0	0	355	590	0	0	0	0	
8	0	0	0	0	818	488	0	0	0	0	
9	0	0	0	0	1020	380	0	0	0	0	
10	0	0	0	0	1021	279	0	0	0	0	
11	0	0	0	0	1021	197	0	0	0	0	
12	0	0	0	0	1021	140	0	0	0	0	
13	0	0	0	0	1021	115	0	0	0	0	
14	0	0	0	0	1021	124	0	0	0	0	
15	0	0	0	0	1021	167	0	0	0	0	
0	0	0	0	0	1021	241	0	0	0	0	
1	0	0	0	0	1021	341	0	0	0	0	
2	0	0	0	0	1021	457	0	0	0	0	
3	0	0	0	0	924	580	0	0	0	0	
4	0	0	0	0	642	694	0	0	0	0	
5	0	0	0	0	296	789	0	0	0	0	
6	0	0	0	0	0	855	0	0	0	0	
7	0	0	0	0	0	886	0	0	0	0	
8	0	0	0	0	0	878	0	0	0	0	
9	0	0	0	0	0	830	0	0	0	0	
10	0	0	0	0	107	746	0	0	0	0	
11	0	0	0	0	439	634	0	0	0	0	
12	0	0	0	0	920	504	0	0	0	0	
13	0	0	0	0	1021	369	0	0	0	0	
14	0	0	0	0	1021	245	0	0	0	0	
15	0	0	0	0	1021	141	0	0	0	0	
0	0	0	0	0	1021	65	0	0	0	0	
1	0	0	0	0	1021	24	0	0	0	0	
2	0	0	0	0	1021	20	0	0	0	0	
3	0	0	0	0	1021	56	0	0	0	0	
4	0	0	0	0	1021	126	0	0	0	0	
5	0	0	0	0	1021	225	0	0	0	0	
6	0	0	0	0	1021	345	0	0	0	0	
7	0	0	0	0	833	473	0	0	0	0	
8	0	0	0	0	496	597	0	0	0	0	
9	0	0	0	0	99	703	0	0	0	0	
10	0	0	0	0	0	780	0	0	0	0	
11	0	0	0	0	0	823	0	0	0	0	
12	0	0	0	0	0	829	0	0	0	0	
13	0	0	0	0	0	798	0	0	0	0	
14	0	0	0	0	35	734	0	0	0	0	
15	0	0	0	0	325	644	0	0	0	0	
0	0	0	0	0	775	536	0	0	0	0	
1	0	0	0	0	1021	420	0	0	0	0	
2	0	0	0	0	1021	307	0	0	0	0	
3	0	0	0	0	1021	211	0	0	0	0	
4	0	0	0	0	1021	137	0	0	0	0	
5	0	0	0	0	1021	94	0	0	0	0	
6	0	0	0	0	1021	87	0	0	0	0	
7	0	0	0	0	1021	115	0	0	0	0	
8	0	0	0	0	1021	176	0	0	0	0	
9	0	0	0	0	1021	263	0	0	0	0	
10	0	0	0	0	1021	369	0	0	0	0	
11	0	0	0	0	810	486	0	0	0	0	
12	0	0	0	0	464	598	0	0	0	0	
13	0	0	0	0	63	696	0	0	0	0	
14	0	0	0	0	0	769	0	0	0	0	
15	0	0	0	0	0	811	0	0	0	0	
0	0	0	0	0	0	817	0	0	0	0	
1	0	0	0	0	0	787	0	0	0	0	
2	0	0	0	0	31	722	0	0	0	0	
3	0	0	0	0	315	628	0	1	0	0	
4	0	0	0	0	758	515	0	0	0	0	
5	0	0	0	0	1020	393	0	0	0	0	
6	0	0	0	0	1021	275	0	0	0	0	
7	0	0	0	0	1021	172	0	0	0	0	
8	0	0	0	0	1021	93	0	0	0	0	
9	0	0	0	0	1021	42	0	0	0	0	
10	0	0	0	0	1021	24	0	0	0	0	
11	0	0	0	0	1021	43	0	0	0	0	
12	0	0	0	0	1021	95	0	0	0	0	
13	0	0	0	0	1021	179	0	0	0	0	
14	0	0	0	0	1017	287	0	0	0	0	
15	0	0	0	0	774	412	0	0	0	0	
0	0	0	0	0	430	541	0	0	0	0	
1	0	0	0	0	44	664	0	0	0	0	
2	0	0	0	0	0	768	0	0	0	0	
3	0	0	0	0	0	844	0	0	0	0	
4	0	0	0	0	0	886	0	0	0	0	
5	0	0	0	0	0	890	0	0	0	0	
6	0	0	0	0	139	855	0	0	0	0	
7	0	0	0	0	507	784	0	0	0	0	
8	0	0	0	0	1020	685	0	0	0	0	
9	0	0	0	0	1021	565	0	0	0	0	
10	0	0	0	0	1021	436	0	0	0	0	
11	0	0	0	0	1021	311	0	0	0	0	
12	0	0	0	0	1021	203	0	0	0	0	
13	0	0	0	0	1021	119	0	0	0	0	
14	0	0	0	0	1021	66	0	0	0	0	
15	0	0	0	0	1021	47	0	0	0	0	
0	0	0	0	0	1021	65	0	0	0	0	
1	0	0	0	0	1021	118	0	0	0	0	
2	0	0	0	0	1021	201	0	0	0	0	
3	0	0	0	0	873	307	0	0	0	0	
4	0	0	0	0	563	426	0	0	0	0	
5	0	0	0	0	198	544	0	0	0	0	
6	0	0	0	0	0	647	0	0	0	0	
7	0	0	0	0	0	724	0	0	0	0	
8	0	0	0	0	0	766	0	0	0	0	
9	0	0	0	0	0	767	0	0	0	0	
10	0	0	0	0	94	728	0	0	0	0	
11	0	0	0	0	419	651	0	1	0	0	
12	0	0	0	0	891	545	0	0	0	0	
13	0	0	0	0	1021	419	0	0	0	0	
14	0	0	0	0	1021	289	0	0	0	0	
15	0	0	0	0	1021	167	0	0	0	0	
0	0	0	0	0	1021	66	0	0	0	0	
1	0	0	0	0	1021	0	0	0	0	0	
2	0	0	0	0	1021	0	0	0	0	0	
3	0	0	0	0	1021	0	0	0	0	0	
4	0	0	0	0	1021	40	0	0	0	0	
5	0	0	0	0	1021	123	0	0	0	0	
6	0	0	0	0	1021	236	0	0	0	0	
7	0	0	0	0	871	367	0	0	0	0	
8	0	0	0	0	572	506	0	0	0	0	
9	0	0	0	0	219	637	0	0	0	0	
10	0	0	0	0	0	745	0	0	0	0	
11	0	0	0	0	0	819	0	0	0	0	
12	0	0	0	0	0	853	0	0	0	0	
13	0	0	0	0	0	843	0	0	0	0	
14	0	0	0	0	116	790	0	0	0	0	
15	0	0	0	0	452	698	0	1	0	0	
0	0	0	0	0	932	577	0	0	0	0	
1	0	0	0	0	1021	438	0	0	0	0	
2	0	0	0	0	1021	295	0	0	0	0	
3	0	0	0	0	1021	166	0	0	0	0	
4	0	0	0	0	1021	59	0	0	0	0	
5	0	0	0	0	1021	0	0	0	0	0	
6	0	0	0	0	1021	0	0	0	0	0	
7	0	0	0	0	1021	0	0	0	0	0	
8	0	0	0	0	1021	39	0	0	0	0	
9	0	0	0	0	1021	119	0	0	0	0	
10	0	0	0	0	1021	225	0	0	0	0	
11	0	0	0	0	864	349	0	0	0	0	
12	0	0	0	0	551	479	0	0	0	0	
13	0	0	0	0	180	601	0	0	0	0	
14	0	0	0	0	0	704	0	0	0	0	
15	0	0	0	0	0	776	0	0	0	0	
0	0	0	0	0	0	813	0	0	0	0	
1	0	0	0	0	0	812	0	0	0	0	
2	0	0	0	0	93	772	0	0	0	0	
3	0	0	0	0	423	700	0	1	0	0	
4	0	0	0	0	907	602	0	0	0	0	
5	0	0	0	0	1021	488	0	0	0	0	
6	0	0	0	0	1021	368	0	0	0	0	
7	0	0	0	0	1021	257	0	0	0	0	
8	0	0	0	0	1021	163	0	0	0	0	
9	0	0	0	0	1021	91	0	0	0	0	
10	0	0	0	0	1021	48	0	0	0	0	
11	0	0	0	0	1021	37	0	0	0	0	
12	0	0	0	0	1021	57	0	0	0	0	
13	0	0	0	0	1021	109	0	0	0	0	
14	0	0	0	0	1021	186	0	0	0	0	
15	0	0	0	0	878	282	0	0	0	0	
0	0	0	0	0	569	391	0	0	0	0	
1	0	0	0	0	203	500	0	0	0	0	
2	0	0	0	0	0	600	0	0	0	0	
3	0	0	0	0	0	676	0	0	0	0	
4	0	0	0	0	0	722	0	0	0	0	
5	0	0	0	0	0	733	0	0	0	0	
6	0	0	0	0	102	707	0	0	0	0	
7	0	0	0	0	439	650	0	1	0	0	
8	0	0	0	0	929	567	0	0	0	0	
9	0	0	0	0	1021	466	0	0	0	0	
10	0	0	0	0	1021	359	0	0	0	0	
11	0	0	0	0	1021	259	0	0	0	0	
12	0	0	0	0	1021	174	0	0	0	0	
13	0	0	0	0	1021	113	0	0	0	0	
14	0	0	0	0	1021	84	0	0	0	0	
15	0	0	0	0	1021	88	0	0	0	0	
0	0	0	0	0	1021	129	0	0	0	0	
1	0	0	0	0	1021	203	0	0	0	0	
2	0	0	0	0	1021	304	0	0	0	0	
3	0	0	0	0	982	426	0	0	0	0	
4	0	0	0	0	751	557	0	0	0	0	
5	0	0	0	0	460	684	0	0	0	0	
6	0	0	0	0	171	789	0	0	0	0	
7	0	0	0	0	0	865	0	0	0	0	
8	0	0	0	0	0	903	0	0	0	0	
9	0	0	0	0	13	900	0	0	0	0	
10	0	0	0	0	239	856	0	0	0	0	
11	0	0	0	0	636	775	0	0	0	0	
12	0	0	0	0	1020	667	0	0	0	0	
13	0	0	0	0	1021	539	0	0	0	0	
14	0	0	0	0	1021	406	0	0	0	0	
15	0	0	0	0	1021	282	0	0	0	0	
0	0	0	0	0	1021	180	0	0	0	0	
1	0	0	0	0	1021	109	0	0	0	0	
2	0	0	0	0	1021	73	0	0	0	0	
3	0	0	0	0	1021	77	0	0	0	0	
4	0	0	0	0	1021	119	0	0	0	0	
5	0	0	0	0	1021	196	0	0	0	0	
6	0	0	0	0	1021	298	0	0	0	0	
7	0	0	0	0	1021	414	0	0	0	0	
8	0	0	0	0	818	531	0	0	0	0	
9	0	0	0	0	529	634	0	0	0	0	
10	0	0	0	0	224	711	0	0	0	0	
11	0	0	0	0	0	755	0	0	0	0	
12	0	0	0	0	0	761	0	0	0	0	
13	0	0	0	0	0	728	0	0	0	0	
14	0	0	0	0	156	660	0	0	0	0	
15	0	0	0	0	510	566	0	0	0	0	
0	0	0	0	0	1014	455	0	0	0	0	
1	0	0	0	0	1021	342	0	0	0	0	
2	0	0	0	0	1021	238	0	0	0	0	
3	0	0	0	0	1021	152	0	0	0	0	
4	0	0	0	0	1022	94	0	0	0	0	
5	0	0	0	0	1021	70	0	0	0	0	
6	0	0	0	0	1021	85	0	0	0	0	
7	0	0	0	0	1021	143	0	0	0	0	
8	0	0	0	0	1021	238	0	0	0	0	
9	0	0	0	0	1021	363	0	0	0	0	
10	0	0	0	0	1021	508	0	0	0	0	
11	0	0	0	0	989	657	0	0	0	0	
12	0	0	0	0	747	796	0	0	0	0	
13	0	0	0	0	436	910	0	0	0	0	
14	0	0	0	0	124	990	0	0	0	0	
15	0	0	0	0	0	1021	0	0	0	0	
0	0	0	0	0	0	1013	0	0	0	0	
1	0	0	0	0	1	952	0	0	0	0	
2	0	0	0	0	237	844	0	0	0	0	
3	0	0	0	0	657	696	0	1	0	0	
4	0	0	0	0	1020	519	0	0	0	0	
5	0	0	0	0	1021	332	0	0	0	0	
6	0	0	0	0	1021	155	0	0	0	0	
7	0	0	0	0	1021	7	0	0	0	0	
8	0	0	0	0	1021	0	0	0	0	0	
9	0	0	0	0	1021	0	0	0	0	0	
10	0	0	0	0	1021	0	0	0	0	0	
11	0	0	0	0	1021	11	0	0	0	0	
12	0	0	0	0	1021	96	0	0	0	0	
13	0	0	0	0	1021	225	0	0	0	0	
14	0	0	0	0	1021	385	0	0	0	0	
15	0	0	0	0	777	562	0	0	0	0	
0	0	0	0	0	358	736	0	0	0	0	
1	0	0	0	0	0	886	0	0	0	0	
2	0	0	0	0	0	996	0	0	0	0	
3	0	0	0	0	0	1021	0	0	0	0	
4	0	0	0	0	0	1021	0	0	0	0	
5	0	0	0	0	0	979	0	0	0	0	
6	0	0	0	0	0	872	0	0	0	0	
7	0	0	0	0	188	719	0	0	0	0	
8	0	0	0	0	624	533	0	0	0	0	
9	0	0	0	0	1020	329	0	0	0	0	
10	0	0	0	0	1021	133	0	0	0	0	
11	0	0	0	0	1021	0	0	0	0	0	
12	0	0	0	0	1021	0	0	0	0	0	
13	0	0	0	0	1021	0	0	0	0	0	
14	0	0	0	0	1021	0	0	0	0	0	
15	0	0	0	0	1021	0	0	0	0	0	
0	0	0	0	0	1021	48	0	0	0	0	
1	0	0	0	0	1021	162	0	0	0	0	
2	0	0	0	0	969	317	0	0	0	0	
3	0	0	0	0	639	500	0	0	0	0	
4	0	0	0	0	183	693	0	0	0	0	
5	0	0	0	0	0	872	0	0	0	0	
6	0	0	0	0	0	1019	0	0	0	0	
7	0	0	0	0	0	1021	0	0	0	0	
8	0	0	0	0	0	1021	0	0	0	0	
9	0	0	0	0	0	1021	0	0	0	0	
10	0	0	0	0	0	987	0	0	0	0	
11	0	0	0	0	271	883	0	0	0	0	
12	0	0	0	0	757	736	0	0	0	0	
13	0	0	0	0	1020	561	0	0	0	0	
14	0	0	0	0	1021	377	0	0	0	0	
15	0	0	0	0	1021	211	0	0	0	0	
0	0	0	0	0	1021	78	0	0	0	0	
1	0	0	0	0	1021	0	0	0	0	0	
2	0	0	0	0	1021	0	0	0	0	0	
3	0	0	0	0	1021	13	0	0	0	0	
4	0	0	0	0	1021	96	0	0	0	0	
5	0	0	0	0	1021	230	0	0	0	0	
6	0	0	0	0	1021	401	0	0	0	0	
7	0	0	0	0	791	592	0	0	0	0	
8	0	0	0	0	383	781	0	0	0	0	
9	0	0	0	0	0	946	0	0	0	0	
10	0	0	0	0	0	1021	0	0	0	0	
11	0	0	0	0	0	1021	0	0	0	0	
12	0	0	0	0	0	1021	0	0	0	0	
13	0	0	0	0	0	1011	0	0	0	0	
14	0	0	0	0	0	919	0	0	0	0	
15	0	0	0	0	225	775	0	1	0	0	
0	0	0	0	0	678	593	0	0	0	0	
1	0	0	0	0	1020	388	0	0	0	0	
2	0	0	0	0	1021	185	0	0	0	0	
3	0	0	0	0	1021	6	0	0	0	0	
4	0	0	0	0	1021	0	0	0	0	0	
5	0	0	0	0	1021	0	0	0	0	0	
6	0	0	0	0	1021	0	0	0	0	0	
7	0	0	0	0	1021	0	0	0	0	0	
8	0	0	0	0	1021	45	0	0	0	0	
9	0	0	0	0	1021	159	0	0	0	0	
10	0	0	0	0	998	313	0	0	0	0	
11	0	0	0	0	686	495	0	0	0	0	
12	0	0	0	0	236	683	0	0	0	0	
13	0	0	0	0	0	855	0	0	0	0	
14	0	0	0	0	0	992	0	0	0	0	
15	0	0	0	0	0	1021	0	0	0	0	
0	0	0	0	0	0	1021	0	0	0	0	
1	0	0	0	0	0	1021	0	0	0	0	
2	0	0	0	0	0	955	0	0	0	0	
3	0	0	0	0	208	835	0	0	0	0	
4	0	0	0	0	663	676	0	0	0	0	
5	0	0	0	0	1020	492	0	0	0	0	
6	0	0	0	0	1021	301	0	0	0	0	
7	0	0	0	0	1021	128	0	0	0	0	
8	0	0	0	0	1021	0	0	0	0	0	
9	0	0	0	0	1021	0	0	0	0	0	
10	0	0	0	0	1021	0	0	0	0	0	
11	0	0	0	0	1021	0	0	0	0	0	
12	0	0	0	0	1021	47	0	0	0	0	
13	0	0	0	0	1021	162	0	0	0	0	
14	0	0	0	0	990	319	0	0	0	0	
15	0	0	0	0	671	507	0	0	0	0	
0	0	0	0	0	220	704	0	0	0	0	
1	0	0	0	0	0	888	0	0	0	0	
2	0	0	0	0	0	1021	0	0	0	0	
3	0	0	0	0	0	1021	0	0	0	0	
4	0	0	0	0	0	1021	0	0	0	0	
5	0	0	0	0	0	1021	0	0	0	0	
6	0	0	0	0	0	1002	0	0	0	0	
7	0	0	0	0	249	907	0	0	0	0	
8	0	0	0	0	723	767	0	0	0	0	
9	0	0	0	0	1020	593	0	0	0	0	
10	0	0	0	0	1021	405	0	0	0	0	
11	0	0	0	0	1021	225	0	0	0	0	
12	0	0	0	0	1021	78	0	0	0	0	
13	0	0	0	0	1021	0	0	0	0	0	
14	0	0	0	0	1021	0	0	0	0	0	
15	0	0	0	0	1021	0	0	0	0	0	
0	0	0	0	0	1021	69	0	0	0	0	
1	0	0	0	0	1021	194	0	0	0	0	
2	0	0	0	0	986	359	0	0	0	0	
3	0	0	0	0	652	547	0	0	0	0	
4	0	0	0	0	176	739	0	0	0	0	
5	0	0	0	0	0	908	0	0	0	0	
6	0	0	0	0	0	1021	0	0	0	0	
7	0	0	0	0	0	1021	0	0	0	0	
8	0	0	0	0	0	1021	0	0	0	0	
9	0	0	0	0	0	1019	0	0	0	0	
10	0	0	0	0	0	936	0	0	0	0	
11	0	0	0	0	68	804	0	0	0	0	
12	0	0	0	0	427	632	0	0	0	0	
13	0	0	0	0	945	438	0	0	0	0	
14	0	0	0	0	1021	240	0	0	0	0	
15	0	0	0	0	1021	65	0	0	0	0	
0	0	0	0	0	1021	0	0	0	0	0	
1	0	0	0	0	1021	0	0	0	0	0	
2	0	0	0	0	1021	0	0	0	0	0	
3	0	0	0	0	1021	0	0	0	0	0	
4	0	0	0	0	1021	73	0	0	0	0	
5	0	0	0	0	1021	207	0	0	0	0	
6	0	0	0	0	771	384	0	0	0	0	
7	0	0	0	0	314	588	0	0	0	0	
8	0	0	0	0	0	797	0	0	0	0	
9	0	0	0	0	0	984	0	0	0	0	
10	0	0	0	0	0	1021	0	0	0	0	
11	0	0	0	0	0	1021	0	0	0	0	
12	0	0	0	0	0	1021	0	0	0	0	
13	0	0	0	0	0	1021	0	0	0	0	
14	0	0	0	0	0	1004	0	0	0	0	
15	0	0	0	0	25	910	0	0	0	0	
0	0	0	0	0	367	773	0	0	0	0	
1	0	0	0	0	885	607	0	0	0	0	
2	0	0	0	0	1020	430	0	0	0	0	
3	0	0	0	0	1021	262	0	0	0	0	
4	0	0	0	0	1021	126	0	0	0	0	
5	0	0	0	0	1021	34	0	0	0	0	
6	0	0	0	0	1021	0	0	0	0	0	
7	0	0	0	0	1021	12	0	0	0	0	
8	0	0	0	0	1021	82	0	0	0	0	
9	0	0	0	0	1021	201	0	0	0	0	
10	0	0	0	0	820	357	0	0	0	0	
11	0	0	0	0	375	532	0	0	0	0	
12	0	0	0	0	0	706	0	0	0	0	
13	0	0	0	0	0	857	0	0	0	0	
14	0	0	0	0	0	967	0	0	0	0	
15	0	0	0	0	0	1021	0	0	0	0	
0	0	0	0	0	0	1021	0	0	0	0	
1	0	0	0	0	0	971	0	0	0	0	
2	0	0	0	0	0	864	0	0	0	0	
3	0	0	0	0	0	710	0	1	0	0	
4	0	0	0	0	290	521	0	0	0	0	
5	0	0	0	0	775	315	0	0	0	0	
6	0	0	0	0	1020	117	0	0	0	0	
7	0	0	0	0	1021	0	0	0	0	0	
8	0	0	0	0	1021	0	0	0	0	0	
9	0	0	0	0	1021	0	0	0	0	0	
10	0	0	0	0	1021	0	0	0	0	0	
11	0	0	0	0	1021	0	0	0	0	0	
12	0	0	0	0	1021	66	0	0	0	0	
13	0	0	0	0	1021	191	0	0	0	0	
14	0	0	0	0	891	352	0	0	0	0	
15	0	0	0	0	508	537	0	0	0	0	
0	0	0	0	0	6	722	0	0	0	0	
1	0	0	0	0	0	884	0	0	0	0	
2	0	0	0	0	0	1006	0	0	0	0	
3	0	0	0	0	0	1021	0	0	0	0	
4	0	0	0	0	0	1021	0	0	0	0	
5	0	0	0	0	0	990	0	0	0	0	
6	0	0	0	0	0	884	0	0	0	0	
7	0	0	0	0	111	728	0	0	0	0	
8	0	0	0	0	508	534	0	0	0	0	
9	0	0	0	0	1020	320	0	0	0	0	
10	0	0	0	0	1021	109	0	0	0	0	
11	0	0	0	0	1021	0	0	0	0	0	
12	0	0	0	0	1021	0	0	0	0	0	
13	0	0	0	0	1021	0	0	0	0	0	
14	0	0	0	0	1021	0	0	0	0	0	
15	0	0	0	0	1021	0	0	0	0	0	
0	0	0	0	0	1021	0	0	0	0	0	
1	0	0	0	0	1021	33	0	0	0	0	
2	0	0	0	0	887	129	0	0	0	0	
3	0	0	0	0	491	259	0	0	0	0	
4	0	0	0	0	1	408	0	0	0	0	
5	0	0	0	0	0	561	0	0	0	0	
6	0	0	0	0	0	697	0	0	0	0	
7	0	0	0	0	0	798	0	0	0	0	
8	0	0	0	0	0	852	0	0	0	0	
9	0	0	0	0	0	854	0	0	0	0	
10	0	0	0	0	0	800	0	0	0	0	
11	0	0	0	0	105	692	0	0	0	0	
12	0	0	0	0	491	542	0	0	0	0	
13	0	0	0	0	1020	360	0	0	0	0	
14	0	0	0	0	1021	170	0	0	0	0	
15	0	0	0	0	1021	0	0	0	0	0	
0	0	0	0	0	1021	0	0	0	0	0	
1	0	0	0	0	1021	0	0	0	0	0	
2	0	0	0	0	1021	0	0	0	0	0	
3	0	0	0	0	1021	0	0	0	0	0	
4	0	0	0	0	1021	0	0	0	0	0	
5	0	0	0	0	1021	48	0	0	0	0	
6	0	0	0	0	805	157	0	0	0	0	
7	0	0	0	0	376	300	0	0	0	0	
8	0	0	0	0	0	462	0	0	0	0	
9	0	0	0	0	0	620	0	0	0	0	
10	0	0	0	0	0	755	0	0	0	0	
11	0	0	0	0	0	847	0	0	0	0	
12	0	0	0	0	0	887	0	0	0	0	
13	0	0	0	0	0	867	0	0	0	0	
14	0	0	0	0	0	789	0	0	0	0	
15	0	0	0	0	49	659	0	0	0	0	
0	0	0	0	0	393	489	0	0	0	0	
1	0	0	0	0	895	295	0	0	0	0	
2	0	0	0	0	1021	102	0	0	0	0	
3	0	0	0	0	1021	0	0	0	0	0	
4	0	0	0	0	1021	0	0	0	0	0	
5	0	0	0	0	1021	0	0	0	0	0	
6	0	0	0	0	1021	0	0	0	0	0	
7	0	0	0	0	1021	0	0	0	0	0	
8	0	0	0	0	1021	0	0	0	0	0	
9	0	0	0	0	1021	63	0	0	0	0	
10	0	0	0	0	727	176	0	0	0	0	
11	0	0	0	0	256	319	0	0	0	0	
12	0	0	0	0	0	476	0	0	0	0	
13	0	0	0	0	0	629	0	0	0	0	
14	0	0	0	0	0	756	0	0	0	0	
15	0	0	0	0	0	844	0	0	0	0	
0	0	0	0	0	0	880	0	0	0	0	
1	0	0	0	0	0	858	0	0	0	0	
2	0	0	0	0	0	779	0	0	0	0	
3	0	0	0	0	0	647	0	0	0	0	
4	0	0	0	0	285	478	0	0	0	0	
5	0	0	0	0	746	286	0	0	0	0	
6	0	0	0	0	1020	96	0	0	0	0	
7	0	0	0	0	1021	0	0	0	0	0	
8	0	0	0	0	1021	0	0	0	0	0	
9	0	0	0	0	1021	0	0	0	0	0	
10	0	0	0	0	1021	0	0	0	0	0	
11	0	0	0	0	1021	0	0	0	0	0	
12	0	0	0	0	1021	0	0	0	0	0	
13	0	0	0	0	973	51	0	0	0	0	
14	0	0	0	0	626	153	0	0	0	0	
15	0	0	0	0	115	286	0	0	0	0	
0	0	0	0	0	0	433	0	0	0	0	
1	0	0	0	0	0	576	0	0	0	0	
2	0	0	0	0	0	696	0	0	0	0	
3	0	0	0	0	0	774	0	0	0	0	
4	0	0	0	0	0	802	0	0	0	0	
5	0	0	0	0	0	775	0	0	0	0	
6	0	0	0	0	0	699	0	0	0	0	
7	0	0	0	0	0	578	0	0	0	0	
8	0	0	0	0	34	427	0	0	0	0	
9	0	0	0	0	272	261	0	0	0	0	
10	0	0	0	0	573	100	0	0	0	0	
11	0	0	0	0	862	0	0	0	0	0	
12	0	0	0	0	1020	0	0	0	0	0	
13	0	0	0	0	1021	0	0	0	0	0	
14	0	0	0	0	880	0	0	0	0	0	
15	0	0	0	0	479	0	0	0	0	0	
0	0	0	0	0	0	34	0	0	0	0	
1	0	0	0	0	0	125	0	0	0	0	
2	0	0	0	0	0	246	0	0	0	0	
3	0	0	0	0	0	384	0	0	0	0	
4	0	0	0	0	0	524	0	0	0	0	
5	0	0	0	0	0	647	0	0	0	0	
6	0	0	0	0	0	735	0	0	0	0	
7	0	0	0	0	0	775	0	0	0	0	
8	0	0	0	0	0	760	0	0	0	0	
9	0	0	0	0	0	687	0	0	0	0	
10	0	0	0	0	0	560	0	0	0	0	
11	0	0	0	0	0	391	0	0	0	0	
12	0	0	0	0	0	194	0	0	0	0	
13	0	0	0	0	0	0	0	0	0	0	
14	0	0	0	0	0	0	0	0	0	0	
15	0	0	0	0	0	0	0	0	0	0	
0	0	0	0	0	0	0	0	0	0	0	
1	0	0	0	0	0	0	0	0	0	0	
2	0	0	0	0	0	0	0	0	0	0	
3	0	0	0	0	0	0	0	0	0	0	
4	0	0	0	0	0	0	0	0	0	0	
5	0	0	0	0	0	1	0	0	0	0	
6	0	0	0	0	0	82	0	0	0	0	
7	0	0	0	0	0	207	0	0	0	0	
8	0	0	0	0	0	357	0	0	0	0	
9	0	0	0	0	0	515	0	0	0	0	
10	0	0	0	0	0	658	0	0	0	0	
11	0	0	0	0	0	768	0	0	0	0	
12	0	0	0	0	0	829	0	0	0	0	
13	0	0	0	0	0	833	0	0	0	0	
14	0	0	0	0	0	779	0	0	0	0	
15	0	0	0	0	0	670	0	0	0	0	
0	0	0	0	0	0	516	0	0	0	0	
1	0	0	0	0	0	334	0	0	0	0	
2	0	0	0	0	0	147	0	0	0	0	
3	0	0	0	0	0	0	0	0	0	0	
4	0	0	0	0	0	0	0	0	0	0	
5	0	0	0	0	0	0	0	0	0	0	
6	0	0	0	0	0	0	0	0	0	0	
7	0	0	0	0	0	0	0	0	0	0	
8	0	0	0	0	0	0	0	0	0	0	
9	0	0	0	0	0	45	0	0	0	0	
10	0	0	0	0	0	143	0	0	0	0	
11	0	0	0	0	0	268	0	0	0	0	
12	0	0	0	0	0	402	0	0	0	0	
13	0	0	0	0	0	526	0	0	0	0	
14	0	0	0	0	0	621	0	0	0	0	
15	0	0	0	0	0	672	0	0	0	0	
0	0	0	0	0	0	671	0	0	0	0	
1	0	0	0	0	0	614	0	0	0	0	
2	0	0	0	0	0	506	0	0	0	0	
3	0	0	0	0	0	355	0	0	0	0	
4	0	0	0	0	0	177	0	0	0	0	
5	0	0	0	0	0	0	0	0	0	0	
6	0	0	0	0	0	0	0	0	0	0	
7	0	0	0	0	0	0	0	0	0	0	
8	0	0	0	0	0	0	0	0	0	0	
9	0	0	0	0	0	0	0	0	0	0	
10	0	0	0	0	0	0	0	0	0	0	
11	0	0	0	0	0	0	0	0	0	0	
12	0	0	0	0	0	0	0	0	0	0	
13	0	0	0	0	0	0	0	0	0	0	
14	0	0	0	0	0	53	0	0	0	0	
15	0	0	0	0	0	152	0	0	0	0	
0	0	0	0	0	0	274	0	0	0	0	
1	0	0	0	0	0	399	0	0	0	0	
2	0	0	0	0	0	510	0	0	0	0	
3	0	0	0	0	0	589	0	0	0	0	
4	0	0	0	0	0	619	0	0	0	0	
5	0	0	0	0	0	593	0	0	0	0	
6	0	0	0	0	0	512	0	0	0	0	
7	0	0	0	0	0	380	0	0	0	0	
8	0	0	0	0	0	215	0	0	0	0	
9	0	0	0	0	0	34	0	0	0	0	
10	0	0	0	0	0	0	0	0	0	0	
11	0	0	0	0	0	0	0	0	0	0	
12	0	0	0	0	0	0	0	0	0	0	
13	0	0	0	0	0	0	0	0	0	0	
14	0	0	0	0	0	0	0	0	0	0	
15	0	0	0	0	0	0	0	0	0	0	
0	0	0	0	0	0	0	0	0	0	0	
1	0	0	0	0	0	0	0	0	0	0	
2	0	0	0	0	0	25	0	0	0	0	
3	0	0	0	0	0	108	0	0	0	0	
4	0	0	0	0	0	217	0	0	0	0	
5	0	0	0	0	0	335	0	0	0	0	
6	0	0	0	0	0	446	0	0	0	0	
7	0	0	0	0	0	531	0	0	0	0	
8	0	0	0	0	0	577	0	0	0	0	
9	0	0	0	0	0	573	0	0	0	0	
10	0	0	0	0	0	516	0	0	0	0	
11	0	0	0	0	0	410	0	0	0	0	
12	0	0	0	0	0	267	0	0	0	0	
13	0	0	0	0	0	100	0	0	0	0	
14	0	0	0	0	0	0	0	0	0	0	
15	0	0	0	0	0	0	0	0	0	0	
0	0	0	0	0	0	0	0	0	0	0	
1	0	0	0	0	0	0	0	0	0	0	
2	0	0	0	0	0	0	0	0	0	0	
3	0	0	0	0	0	0	0	0	0	0	
4	0	0	0	0	0	0	0	0	0	0	
5	0	0	0	0	0	0	0	0	0	0	
6	0	0	0	0	0	40	0	0	0	0	
7	0	0	0	0	0	128	0	0	0	0	
8	0	0	0	0	0	237	0	0	0	0	
9	0	0	0	0	0	348	0	0	0	0	
10	0	0	0	0	0	445	0	0	0	0	
11	0	0	0	0	0	510	0	0	0	0	
12	0	0	0	0	0	529	0	0	0	0	
13	0	0	0	0	0	495	0	0	0	0	
14	0	0	0	0	0	407	0	0	0	0	
15	0	0	0	0	0	273	0	1	0	0	
0	0	0	0	0	0	109	0	0	0	0	
1	0	0	0	0	0	0	0	0	0	0	
2	0	0	0	0	0	0	0	0	0	0	
3	0	0	0	0	0	0	0	0	0	0	
4	0	0	0	0	0	0	0	0	0	0	
5	0	0	0	0	0	0	0	0	0	0	
6	0	0	0	0	0	0	0	0	0	0	
7	0	0	0	0	0	0	0	0	0	0	
8	0	0	0	0	0	0	0	0	0	0	
9	0	0	0	0	0	0	0	0	0	0	
10	0	0	0	0	0	0	0	0	0	0	
11	0	0	0	0	0	53	0	0	0	0	
12	0	0	0	0	0	142	0	0	0	0	
13	0	0	0	0	0	244	0	0	0	0	
14	0	0	0	0	0	343	0	0	0	0	
15	0	0	0	0	0	421	0	0	0	0	
0	0	0	0	0	0	463	0	0	0	0	
1	0	0	0	0	0	461	0	0	0	0	
2	0	0	0	0	0	408	0	0	0	0	
3	0	0	0	0	0	309	0	1	0	0	
4	0	0	0	0	0	173	0	0	0	0	
5	0	0	0	0	0	15	0	0	0	0	
6	0	0	0	0	0	0	0	0	0	0	
7	0	0	0	0	54	0	0	0	0	0	
8	0	0	0	0	199	0	0	0	0	0	
9	0	0	0	0	318	0	0	0	0	0	
10	0	0	0	0	357	0	0	0	0	0	
11	0	0	0	0	272	0	0	0	0	0	
12	0	0	0	0	40	0	0	0	0	0	
13	0	0	0	0	0	0	0	0	0	0	
14	0	0	0	0	0	4	0	0	0	0	
15	0	0	0	0	0	72	0	0	0	0	
0	0	0	0	0	0	167	0	0	0	0	
1	0	0	0	0	0	274	0	0	0	0	
2	0	0	0	0	0	376	0	0	0	0	
3	0	0	0	0	0	458	0	0	0	0	
4	0	0	0	0	0	506	0	0	0	0	
5	0	0	0	0	0	509	0	0	0	0	
6	0	0	0	0	0	463	0	0	0	0	
7	0	0	0	0	0	371	0	1	0	0	
8	0	0	0	0	0	244	0	0	0	0	
9	0	0	0	0	0	93	0	0	0	0	
10	0	0	0	0	210	0	0	0	0	0	
11	0	0	0	0	513	0	0	0	0	0	
12	0	0	0	0	823	0	0	0	0	0	
13	0	0	0	0	1020	0	0	0	0	0	
14	0	0	0	0	1021	0	0	0	0	0	
15	0	0	0	0	1021	0	0	0	0	0	
0	0	0	0	0	799	0	0	0	0	0	
1	0	0	0	0	390	0	0	0	0	0	
2	0	0	0	0	0	43	0	0	0	0	
3	0	0	0	0	0	129	0	0	0	0	
4	0	0	0	0	0	232	0	0	0	0	
5	0	0	0	0	0	335	0	0	0	0	
6	0	0	0	0	0	422	0	0	0	0	
7	0	0	0	0	0	475	0	0	0	0	
8	0	0	0	0	0	483	0	0	0	0	
9	0	0	0	0	0	441	0	0	0	0	
10	0	0	0	0	0	348	0	0	0	0	
11	0	0	0	0	0	215	0	0	0	0	
12	0	0	0	0	0	53	0	0	0	0	
13	0	0	0	0	19	0	0	0	0	0	
14	0	0	0	0	281	0	0	0	0	0	
15	0	0	0	0	625	0	0	0	0	0	
0	0	0	0	0	979	0	0	0	0	0	
1	0	0	0	0	1021	0	0	0	0	0	
2	0	0	0	0	1021	0	0	0	0	0	
3	0	0	0	0	1021	0	0	0	0	0	
4	0	0	0	0	947	0	0	0	0	0	
5	0	0	0	0	632	0	0	0	0	0	
6	0	0	0	0	150	0	0	0	0	0	
7	0	0	0	0	0	40	0	0	0	0	
8	0	0	0	0	0	120	0	0	0	0	
9	0	0	0	0	0	215	0	0	0	0	
10	0	0	0	0	0	307	0	0	0	0	
11	0	0	0	0	0	381	0	0	0	0	
12	0	0	0	0	0	423	0	0	0	0	
13	0	0	0	0	0	421	0	0	0	0	
14	0	0	0	0	0	368	0	0	0	0	
15	0	0	0	0	0	267	0	0	0	0	
0	0	0	0	0	95	129	0	0	0	0	
1	0	0	0	0	449	0	0	0	0	0	
2	0	0	0	0	920	0	0	0	0	0	
3	0	0	0	0	1020	0	0	0	0	0	
4	0	0	0	0	1021	0	0	0	0	0	
5	0	0	0	0	1021	0	0	0	0	0	
6	0	0	0	0	1021	0	0	0	0	0	
7	0	0	0	0	1021	0	0	0	0	0	
8	0	0	0	0	1021	0	0	0	0	0	
9	0	0	0	0	942	0	0	0	0	0	
10	0	0	0	0	596	0	0	0	0	0	
11	0	0	0	0	99	0	0	0	0	0	
12	0	0	0	0	0	44	0	0	0	0	
13	0	0	0	0	0	102	0	0	0	0	
14	0	0	0	0	0	158	0	0	0	0	
15	0	0	0	0	0	199	0	0	0	0	
0	0	0	0	0	0	215	0	0	0	0	
1	0	0	0	0	0	199	0	0	0	0	
2	0	0	0	0	0	146	0	0	0	0	
3	0	0	0	0	0	60	0	1	0	0	
4	0	0	0	0	268	0	0	0	0	0	
5	0	0	0	0	723	0	0	0	0	0	
6	0	0	0	0	1020	0	0	0	0	0	
7	0	0	0	0	1021	0	0	0	0	0	
8	0	0	0	0	1021	0	0	0	0	0	
9	0	0	0	0	1021	0	0	0	0	0	
10	0	0	0	0	1021	0	0	0	0	0	
11	0	0	0	0	1021	0	0	0	0	0	
12	0	0	0	0	1021	0	0	0	0	0	
13	0	0	0	0	1021	0	0	0	0	0	
14	0	0	0	0	795	0	0	0	0	0	
15	0	0	0	0	376	0	0	0	0	0	
0	0	0	0	0	0	44	0	0	0	0	
1	0	0	0	0	0	114	0	0	0	0	
2	0	0	0	0	0	188	0	0	0	0	
3	0	0	0	0	0	249	0	0	0	0	
4	0	0	0	0	0	286	0	0	0	0	
5	0	0	0	0	0	286	0	0	0	0	
6	0	0	0	0	0	243	0	0	0	0	
7	0	0	0	0	111	156	0	0	0	0	
8	0	0	0	0	491	33	0	0	0	0	
9	0	0	0	0	1017	0	0	0	0	0	
10	0	0	0	0	1021	0	0	0	0	0	
11	0	0	0	0	1021	0	0	0	0	0	
12	0	0	0	0	1021	0	0	0	0	0	
13	0	0	0	0	1021	0	0	0	0	0	
14	0	0	0	0	1021	0	0	0	0	0	
15	0	0	0	0	1021	0	0	0	0	0	
0	0	0	0	0	1021	0	0	0	0	0	
1	0	0	0	0	1021	0	0	0	0	0	
2	0	0	0	0	888	0	0	0	0	0	
3	0	0	0	0	511	0	0	0	0	0	
4	0	0	0	0	18	0	0	0	0	0	
5	0	0	0	0	0	33	0	0	0	0	
6	0	0	0	0	0	79	0	0	0	0	
7	0	0	0	0	0	121	0	0	0	0	
8	0	0	0	0	0	146	0	0	0	0	
9	0	0	0	0	0	144	0	0	0	0	
10	0	0	0	0	0	110	0	0	0	0	
11	0	0	0	0	143	44	0	0	0	0	
12	0	0	0	0	554	0	0	0	0	0	
13	0	0	0	0	1020	0	0	0	0	0	
14	0	0	0	0	1021	0	0	0	0	0	
15	0	0	0	0	1021	0	0	0	0	0	
0	0	0	0	0	1021	0	0	0	0	0	
1	0	0	0	0	1021	0	0	0	0	0	
2	0	0	0	0	1021	0	0	0	0	0	
3	0	0	0	0	1021	0	0	0	0	0	
4	0	0	0	0	1021	0	0	0	0	0	
5	0	0	0	0	1021	0	0	0	0	0	
6	0	0	0	0	1021	0	0	0	0	0	
7	0	0	0	0	789	39	0	0	0	0	
8	0	0	0	0	408	114	0	0	0	0	
9	0	0	0	0	0	198	0	0	0	0	
10	0	0	0	0	0	275	0	0	0	0	
11	0	0	0	0	0	331	0	0	0	0	
12	0	0	0	0	0	352	0	0	0	0	
13	0	0	0	0	0	326	0	0	0	0	
14	0	0	0	0	21	253	0	0	0	0	
15	0	0	0	0	325	136	0	0	0	0	
0	0	0	0	0	809	0	0	0	0	0	
1	0	0	0	0	1021	0	0	0	0	0	
2	0	0	0	0	1021	0	0	0	0	0	
3	0	0	0	0	1021	0	0	0	0	0	
4	0	0	0	0	1021	0	0	0	0	0	
5	0	0	0	0	1021	0	0	0	0	0	
6	0	0	0	0	1021	0	0	0	0	0	
7	0	0	0	0	1021	0	0	0	0	0	
8	0	0	0	0	1021	0	0	0	0	0	
9	0	0	0	0	1021	0	0	0	0	0	
10	0	0	0	0	1021	0	0	0	0	0	
11	0	0	0	0	927	0	0	0	0	0	
12	0	0	0	0	627	29	0	0	0	0	
13	0	0	0	0	260	89	0	0	0	0	
14	0	0	0	0	0	152	0	0	0	0	
15	0	0	0	0	0	203	0	0	0	0	
0	0	0	0	0	0	228	0	0	0	0	
1	0	0	0	0	0	219	0	0	0	0	
2	0	0	0	0	187	171	0	0	0	0	
3	0	0	0	0	611	87	0	0	0	0	
4	0	0	0	0	1020	0	0	0	0	0	
5	0	0	0	0	1021	0	0	0	0	0	
6	0	0	0	0	1021	0	0	0	0	0	
7	0	0	0	0	1021	0	0	0	0	0	
8	0	0	0	0	1021	0	0	0	0	0	
9	0	0	0	0	1021	0	0	0	0	0	
10	0	0	0	0	1021	0	0	0	0	0	
11	0	0	0	0	1021	0	0	0	0	0	
12	0	0	0	0	1021	0	0	0	0	0	
13	0	0	0	0	1021	0	0	0	0	0	
14	0	0	0	0	1021	0	0	0	0	0	
15	0	0	0	0	1021	0	0	0	0	0	
0	0	0	0	0	828	20	0	0	0	0	
1	0	0	0	0	505	65	0	0	0	0	
2	0	0	0	0	161	111	0	0	0	0	
3	0	0	0	0	0	147	0	0	0	0	
4	0	0	0	0	0	159	0	0	0	0	
5	0	0	0	0	0	141	0	0	0	0	
6	0	0	0	0	169	89	0	0	0	0	
7	0	0	0	0	580	8	0	0	0	0	
8	0	0	0	0	1020	0	0	0	0	0	
9	0	0	0	0	1021	0	0	0	0	0	
10	0	0	0	0	1021	0	0	0	0	0	
11	0	0	0	0	1021	0	0	0	0	0	
12	0	0	0	0	1021	0	0	0	0	0	
13	0	0	0	0	1021	0	0	0	0	0	
14	0	0	0	0	1021	0	0	0	0	0	
15	0	0	0	0	1021	0	0	0	0	0	
0	0	0	0	0	1021	0	0	0	0	0	
1	0	0	0	0	1021	0	0	0	0	0	
2	0	0	0	0	1021	0	0	0	0	0	
3	0	0	0	0	1021	40	0	0	0	0	
4	0	0	0	0	986	114	0	0	0	0	
5	0	0	0	0	763	195	0	0	0	0	
6	0	0	0	0	500	268	0	0	0	0	
7	0	0	0	0	272	316	0	0	0	0	
8	0	0	0	0	149	329	0	0	0	0	
9	0	0	0	0	183	298	0	0	0	0	
10	0	0	0	0	402	220	0	0	0	0	
11	0	0	0	0	810	99	0	0	0	0	
12	0	0	0	0	1021	0	0	0	0	0	
13	0	0	0	0	1021	0	0	0	0	0	
14	0	0	0	0	1021	0	0	0	0	0	
15	0	0	0	0	1021	0	0	0	0	0	
0	0	0	0	0	1021	0	0	0	0	0	
1	0	0	0	0	1021	0	0	0	0	0	
2	0	0	0	0	1021	0	0	0	0	0	
3	0	0	0	0	1021	0	0	0	0	0	
4	0	0	0	0	1021	0	0	0	0	0	
5	0	0	0	0	1021	0	0	0	0	0	
6	0	0	0	0	1021	0	0	0	0	0	
7	0	0	0	0	1021	0	0	0	0	0	
8	0	0	0	0	977	0	0	0	0	0	
9	0	0	0	0	755	19	0	0	0	0	
10	0	0	0	0	504	56	0	0	0	0	
11	0	0	0	0	295	87	0	0	0	0	
12	0	0	0	0	199	102	0	0	0	0	
13	0	0	0	0	267	90	0	0	0	0	
14	0	0	0	0	525	48	0	0	0	0	
15	0	0	0	0	973	0	0	0	0	0	
0	0	0	0	0	1021	0	0	0	0	0	
1	0	0	0	0	1021	0	0	0	0	0	
2	0	0	0	0	1021	0	0	0	0	0	
3	0	0	0	0	1021	0	0	0	0	0	
4	0	0	0	0	1021	0	0	0	0	0	
5	0	0	0	0	1021	0	0	0	0	0	
6	0	0	0	0	1021	0	0	0	0	0	
7	0	0	0	0	1021	0	0	0	0	0	
8	0	0	0	0	1021	0	0	0	0	0	
9	0	0	0	0	1021	0	0	0	0	0	
10	0	0	0	0	1021	0	0	0	0	0	
11	0	0	0	0	1021	0	0	0	0	0	
12	0	0	0	0	1021	0	0	0	0	0	
13	0	0	0	0	939	0	0	0	0	0	
14	0	0	0	0	770	0	0	0	0	0	
15	0	0	0	0	629	1	0	0	0	0	
0	0	0	0	0	578	0	0	0	0	0	
1	0	0	0	0	669	0	0	0	0	0	
2	0	0	0	0	930	0	0	0	0	0	
3	0	0	0	0	1021	0	0	1	0	0	
4	0	0	0	0	1021	0	0	1	0	0	
5	0	0	0	0	1021	0	0	0	0	0	
6	0	0	0	0	1021	0	0	0	0	0	
7	0	0	0	0	1021	0	0	0	0	0	
8	0	0	0	0	1021	0	0	0	0	0	
9	0	0	0	0	1021	0	0	0	0	0	
10	0	0	0	0	1021	0	0	0	0	0	
11	0	0	0	0	1021	0	0	0	0	0	
12	0	0	0	0	1021	0	0	0	0	0	
13	0	0	0	0	1021	0	0	0	0	0	
14	0	0	0	0	1021	0	0	0	0	0	
15	0	0	0	0	1021	0	0	0	0	0	
0	0	0	0	0	1021	0	0	0	0	0	
1	0	0	0	0	1021	15	0	0	0	0	
2	0	0	0	0	1008	46	0	0	0	0	
3	0	0	0	0	967	69	0	0	0	0	
4	0	0	0	0	995	73	0	0	0	0	
5	0	0	0	0	1021	47	0	0	0	0	
6	0	0	0	0	1021	0	0	0	0	0	
7	0	0	0	0	1021	0	0	0	0	0	
8	0	0	0	0	1021	0	0	0	0	0	
9	0	0	0	0	1021	0	0	0	0	0	
10	0	0	0	0	1021	0	0	0	0	0	
11	0	0	0	0	1021	0	0	0	0	0	
12	0	0	0	0	1021	0	0	0	0	0	
13	0	0	0	0	1021	0	0	0	0	0	
14	0	0	0	0	1021	0	0	0	0	0	
15	0	0	0	0	1021	0	0	0	0	0	
0	0	0	0	0	1021	0	0	0	0	0	
1	0	0	0	0	1021	0	0	0	0	0	
2	0	0	0	0	1021	0	0	0	0	0	
3	0	0	0	0	1021	0	0	0	0	0	
4	0	0	0	0	1021	0	0	0	0	0	
5	0	0	0	0	1021	0	0	0	0	0	
6	0	0	0	0	1021	0	0	0	0	0	
7	0	0	0	0	1021	0	0	0	0	0	
8	0	0	0	0	1021	0	0	0	0	0	
9	0	0	0	0	1021	0	0	0	0	0	
10	0	0	0	0	1021	0	0	0	0	0	
11	0	0	0	0	1021	0	0	0	0	0	
12	0	0	0	0	1022	0	0	0	0	0	
13	0	0	0	0	1021	0	0	0	0	0	
14	0	0	0	0	1021	0	0	0	0	0	
15	0	0	0	0	1021	0	0	0	0	0	
0	0	0	0	0	1021	0	0	0	0	0	
1	0	0	0	0	1021	0	0	0	0	0	
2	0	0	0	0	1021	0	0	0	0	0	
3	0	0	0	0	1021	0	0	0	0	0	
4	0	0	0	0	1021	0	0	0	0	0	
5	0	0	0	0	1021	0	0	0	0	0	
6	0	0	0	0	1021	0	0	0	0	0	
7	0	0	0	0	1021	0	0	0	0	0	
8	0	0	0	0	1021	0	0	0	0	0	
9	0	0	0	0	1021	0	0	0	0	0	
10	0	0	0	0	1021	0	0	0	0	0	
11	0	0	0	0	1022	0	0	0	0	0	
12	0	0	0	0	1021	0	0	0	0	0	
13	0	0	0	0	1021	0	0	0	0	0	
14	0	0	0	0	1021	0	0	0	0	0	
15	0	0	0	0	1021	0	0	0	0	0	
0	0	0	0	0	1021	0	0	0	0	0	
1	0	0	0	0	1021	0	0	0	0	0	
2	0	0	0	0	1021	0	0	0	0	0	
3	0	0	0	0	1021	0	0	0	0	0	
4	0	0	0	0	1021	0	0	0	0	0	
5	0	0	0	0	1021	0	0	0	0	0	
6	0	0	0	0	1021	0	0	0	0	0	
7	0	0	0	0	1021	0	0	0	0	0	
8	0	0	0	0	1021	0	0	0	0	0	
9	0	0	0	0	1021	0	0	0	0	0	
10	0	0	0	0	1021	0	0	0	0	0	
11	0	0	0	0	1021	0	0	0	0	0	
12	0	0	0	0	1021	0	0	0	0	0	
13	0	0	0	0	1021	0	0	0	0	0	
14	0	0	0	0	1021	0	0	0	0	0	
15	0	0	0	0	1021	0	0	0	0	0	
0	0	0	0	0	1021	0	0	0	0	0	
1	0	0	0	0	1021	0	0	0	0	0	
2	0	0	0	0	1021	0	0	0	0	0	
3	0	0	0	0	1021	0	0	1	0	0	
4	0	0	0	0	1021	0	0	0	0	0	
5	0	0	0	0	1021	0	0	0	0	0	
6	0	0	0	0	1021	0	0	0	0	0	
7	0	0	0	0	1021	0	0	0	0	0	
8	0	0	0	0	1021	0	0	0	0	0	
9	0	0	0	0	1021	0	0	0	0	0	
10	0	0	0	0	1021	0	0	0	0	0	
11	0	0	0	0	1021	0	0	0	0	0	
12	0	0	0	0	1021	0	0	0	0	0	
13	0	0	0	0	1021	0	0	0	0	0	
14	0	0	0	0	1021	0	0	0	0	0	
15	0	0	0	0	1021	0	0	0	0	0	
0	0	0	0	0	1021	0	0	0	0	0	
1	0	0	0	0	1021	0	0	0	0	0	
2	0	0	0	0	1021	0	0	0	0	0	
3	0	0	0	0	1021	0	0	0	0	0	
4	0	0	0	0	1022	0	0	0	0	0	
5	0	0	0	0	1021	0	0	0	0	0	
6	0	0	0	0	1021	0	0	0	0	0	
7	0	0	0	0	1021	0	0	0	0	0	
8	0	0	0	0	1021	0	0	0	0	0	
9	0	0	0	0	1021	0	0	0	0	0	
10	0	0	0	0	1021	0	0	0	0	0	
11	0	0	0	0	1021	0	0	0	0	0	
12	0	0	0	0	1021	0	0	0	0	0	
13	0	0	0	0	1021	0	0	0	0	0	
14	0	0	0	0	1021	0	0	0	0	0	
15	0	0	0	0	1021	0	0	0	0	0	
0	0	0	0	0	1021	0	0	0	0	0	
1	0	0	0	0	1021	0	0	0	0	0	
2	0	0	0	0	1021	0	0	0	0	0	
3	0	0	0	0	1021	0	0	0	0	0	
4	0	0	0	0	1021	0	0	0	0	0	
5	0	0	0	0	1021	0	0	0	0	0	
6	0	0	0	0	1022	0	0	0	0	0	
7	0	0	0	0	1021	0	0	0	0	0	
8	0	0	0	0	1021	0	0	0	0	0	
9	0	0	0	0	1021	0	0	0	0	0	
10	0	0	0	0	1021	0	0	0	0	0	
11	0	0	0	0	1021	0	0	0	0	0	
12	0	0	0	0	1022	0	0	0	0	0	
13	0	0	0	0	1021	0	0	0	0	0	
14	0	0	0	0	1021	0	0	0	0	0	
15	0	0	0	0	1021	0	0	0	0	0	
0	0	0	0	0	1021	0	0	0	0	0	
1	0	0	0	0	1021	0	0	0	0	0	
2	0	0	0	0	1021	0	0	0	0	0	
3	0	0	0	0	1021	0	0	0	0	0	
4	0	0	0	0	1021	0	0	0	0	0	
5	0	0	0	0	1021	0	0	0	0	0	
6	0	0	0	0	1021	0	0	0	0	0	
7	0	0	0	0	1021	0	0	0	0	0	
8	0	0	0	0	1021	0	0	0	0	0	
9	0	0	0	0	1021	0	0	0	0	0	
10	0	0	0	0	1021	0	0	0	0	0	
11	0	0	0	0	1021	0	0	0	0	0	
12	0	0	0	0	1021	0	0	0	0	0	
13	0	0	0	0	1021	0	0	0	0	0	
14	0	0	0	0	1021	0	0	0	0	0	
15	0	0	0	0	1021	0	0	0	0	0	
0	0	0	0	0	1021	0	0	0	0	0	
1	0	0	0	0	1021	0	0	0	0	0	
2	0	0	0	0	1021	0	0	0	0	0	
3	0	0	0	0	1021	0	0	0	0	0	
4	0	0	0	0	1021	0	0	0	0	0	
5	0	0	0	0	1021	0	0	0	0	0	
6	0	0	0	0	1021	0	0	0	0	0	
7	0	0	0	0	1021	0	0	0	0	0	
8	0	0	0	0	1021	0	0	0	0	0	
9	0	0	0	0	1021	0	0	0	0	0	
10	0	0	0	0	1021	0	0	0	0	0	
11	0	0	0	0	1021	0	0	0	0	0	
12	0	0	0	0	1021	0	0	0	0	0	
13	0	0	0	0	1021	0	0	0	0	0	
14	0	0	0	0	1021	0	0	0	0	0	
15	0	0	0	0	1022	0	0	0	0	0	
0	0	0	0	0	1021	0	0	0	0	0	
1	0	0	0	0	1021	0	0	0	0	0	
2	0	0	0	0	1021	0	0	0	0	0	
3	0	0	0	0	1021	0	0	0	0	0	
4	0	0	0	0	1021	0	0	0	0	0	
5	0	0	0	0	1021	0	0	0	0	0	
6	0	0	0	0	1021	0	0	0	0	0	
7	0	0	0	0	1021	0	0	0	0	0	
8	0	0	0	0	1021	0	0	0	0	0	
9	0	0	0	0	1021	0	0	0	0	0	
10	0	0	0	0	1021	0	0	0	0	0	
11	0	0	0	0	1021	0	0	0	0	0	
12	0	0	0	0	1021	0	0	0	0	0	
13	0	0	0	0	1021	0	0	0	0	0	
14	0	0	0	0	1021	0	0	0	0	0	
15	0	0	0	0	1021	0	0	0	0	0	
0	0	0	0	0	1021	0	0	0	0	0	
1	0	0	0	0	1021	0	0	0	0	0	
2	0	0	0	0	1022	0	0	0	0	0	
3	0	0	0	0	1021	0	0	0	0	0	
4	0	0	0	0	1021	0	0	0	0	0	
5	0	0	0	0	1021	0	0	0	0	0	
6	0	0	0	0	1021	0	0	0	0	0	
7	0	0	0	0	1022	0	0	0	0	0	
8	0	0	0	0	1021	0	0	0	0	0	
9	0	0	0	0	1021	0	0	0	0	0	
10	0	0	0	0	1021	0	0	0	0	0	
11	0	0	0	0	1021	0	0	0	0	0	
12	0	0	0	0	1021	0	0	0	0	0	
13	0	0	0	0	1021	0	0	0	0	0	
14	0	0	0	0	1021	0	0	0	0	0	
15	0	0	0	0	1021	0	0	0	0	0	
0	0	0	0	0	1021	0	0	0	0	0	
1	0	0	0	0	1021	0	0	0	0	0	
2	0	0	0	0	1021	0	0	0	0	0	
3	0	0	0	0	1021	0	0	0	0	0	
4	0	0	0	0	1021	0	0	0	0	0	
5	0	0	0	0	1021	0	0	0	0	0	
6	0	0	0	0	1021	0	0	0	0	0	
7	0	0	0	0	1022	0	0	0	0	0	
8	0	0	0	0	1021	0	0	0	0	0	
9	0	0	0	0	1021	0	0	0	0	0	
10	0	0	0	0	1021	0	0	0	0	0	
11	0	0	0	0	1021	0	0	0	0	0	
12	0	0	0	0	1022	0	0	0	0	0	
13	0	0	0	0	1021	0	0	0	0	0	
14	0	0	0	0	1021	0	0	0	0	0	
15	0	0	0	0	1021	0	0	0	0	0	
0	0	0	0	0	1021	0	0	0	0	0	
1	0	0	0	0	1021	0	0	0	0	0	
2	0	0	0	0	1021	0	0	0	0	0	
3	0	0	0	0	1021	0	0	0	0	0	
4	0	0	0	0	1021	0	0	0	0	0	
5	0	0	0	0	1021	0	0	0	0	0	
6	0	0	0	0	1021	0	0	0	0	0	
7	0	0	0	0	1021	0	0	0	0	0	
8	0	0	0	0	1021	0	0	0	0	0	
9	0	0	0	0	1021	0	0	0	0	0	
10	0	0	0	0	1021	0	0	0	0	0	
11	0	0	0	0	1022	0	0	0	0	0	
12	0	0	0	0	1021	0	0	0	0	0	
13	0	0	0	0	1021	0	0	0	0	0	
14	0	0	0	0	1021	0	0	0	0	0	
15	0	0	0	0	1021	0	0	0	0	0	
0	0	0	0	0	1021	0	0	0	0	0	
1	0	0	0	0	1021	0	0	0	0	0	
2	0	0	0	0	1021	0	0	0	0	0	
3	0	0	0	0	1021	0	0	0	0	0	
4	0	0	0	0	1021	0	0	0	0	0	
5	0	0	0	0	1021	0	0	0	0	0	
6	0	0	0	0	1021	0	0	0	0	0	
7	0	0	0	0	1021	0	0	0	0	0	
8	0	0	0	0	1021	0	0	0	0	0	
9	0	0	0	0	1021	0	0	0	0	0	
10	0	0	0	0	1021	0	0	0	0	0	
11	0	0	0	0	1021	0	0	0	0	0	
12	0	0	0	0	1021	0	0	0	0	0	
13	0	0	0	0	1021	0	0	0	0	0	
14	0	0	0	0	1022	0	0	0	0	0	
15	0	0	0	0	1021	0	0	0	0	0	
0	0	0	0	0	1021	0	0	0	0	0	
1	0	0	0	0	1021	0	0	0	0	0	
2	0	0	0	0	1021	0	0	0	0	0	
3	0	0	0	0	1022	0	0	0	0	0	
4	0	0	0	0	1021	0	0	0	0	0	
5	0	0	0	0	1021	0	0	0	0	0	
6	0	0	0	0	1021	0	0	0	0	0	
7	0	0	0	0	1021	0	0	0	0	0	
8	0	0	0	0	1021	0	0	0	0	0	
9	0	0	0	0	1021	0	0	0	0	0	
10	0	0	0	0	1021	0	0	0	0	0	
11	0	0	0	0	1021	0	0	0	0	0	
12	0	0	0	0	1021	0	0	0	0	0	
13	0	0	0	0	1021	0	0	0	0	0	
14	0	0	0	0	1021	0	0	0	0	0	
15	0	0	0	0	1021	0	0	0	0	0	
0	0	0	0	0	1021	0	0	0	0	0	
1	0	0	0	0	1022	0	0	0	0	0	
2	0	0	0	0	1021	0	0	0	0	0	
3	0	0	0	0	1021	0	0	0	0	0	
4	0	0	0	0	1021	0	0	0	0	0	
5	0	0	0	0	1021	0	0	0	0	0	
6	0	0	0	0	1021	0	0	0	0	0	
7	0	0	0	0	1021	0	0	1	0	0	
8	0	0	0	0	1021	0	0	0	0	0	
9	0	0	0	0	1021	0	0	0	0	0	
10	0	0	0	0	1021	0	0	0	0	0	
11	0	0	0	0	1021	0	0	0	0	0	
12	0	0	0	0	1021	0	0	0	0	0	
13	0	0	0	0	1021	0	0	0	0	0	
14	0	0	0	0	1021	0	0	0	0	0	
15	0	0	0	0	1021	0	0	0	0	0	
0	0	0	0	0	1021	0	0	0	0	0	
1	0	0	0	0	1021	0	0	0	0	0	
2	0	0	0	0	1021	0	0	0	0	0	
3	0	0	0	0	1021	0	0	0	0	0	
4	0	0	0	0	1021	0	0	0	0	0	
5	0	0	0	0	1021	0	0	0	0	0	
6	0	0	0	0	1021	0	0	0	0	0	
7	0	0	0	0	1022	0	0	0	0	0	
8	0	0	0	0	1021	0	0	0	0	0	
9	0	0	0	0	1021	0	0	0	0	0	
10	0	0	0	0	1021	0	0	0	0	0	
11	0	0	0	0	1021	0	0	0	0	0	
12	0	0	0	0	1021	0	0	0	0	0	
13	0	0	0	0	1021	0	0	0	0	0	
14	0	0	0	0	1021	0	0	0	0	0	
15	0	0	0	0	1021	0	0	0	0	0	
0	0	0	0	0	1021	0	0	0	0	0	
1	0	0	0	0	1021	0	0	0	0	0	
2	0	0	0	0	1021	0	0	0	0	0	
3	0	0	0	0	1021	0	0	0	0	0	
4	0	0	0	0	1021	0	0	0	0	0	
5	0	0	0	0	1021	0	0	0	0	0	
6	0	0	0	0	1021	0	0	0	0	0	
7	0	0	0	0	1021	0	0	0	0	0	
8	0	0	0	0	1021	0	0	0	0	0	
9	0	0	0	0	1021	0	0	0	0	0	
10	0	0	0	0	1022	0	0	0	0	0	
11	0	0	0	0	1021	0	0	0	0	0	
12	0	0	0	0	1021	0	0	0	0	0	
13	0	0	0	0	1021	0	0	0	0	0	
14	0	0	0	0	1021	0	0	0	0	0	
15	0	0	0	0	1021	0	0	1	0	0	
0	0	0	0	0	1021	0	0	1	0	0	
1	0	0	0	0	1021	0	0	0	0	0	
2	0	0	0	0	1021	0	0	0	0	0	
3	0	0	0	0	1021	0	0	0	0	0	
4	0	0	0	0	1021	0	0	0	0	0	
5	0	0	0	0	1021	0	0	0	0	0	
6	0	0	0	0	1021	0	0	0	0	0	
7	0	0	0	0	1021	0	0	0	0	0	
8	0	0	0	0	1021	0	0	0	0	0	
9	0	0	0	0	1021	0	0	0	0	0	
10	0	0	0	0	1021	0	0	0	0	0	
11	0	0	0	0	1021	0	0	0	0	0	
12	0	0	0	0	1021	0	0	0	0	0	
13	0	0	0	0	1021	0	0	0	0	0	
14	0	0	0	0	1021	0	0	0	0	0	
15	0	0	0	0	1021	0	0	0	0	0	
0	0	0	0	0	1021	0	0	0	0	0	
1	0	0	0	0	1021	0	0	0	0	0	
2	0	0	0	0	1021	0	0	0	0	0	
3	0	0	0	0	1021	0	0	1	0	0	
4	0	0	0	0	1022	0	0	0	0	0	
5	0	0	0	0	1021	0	0	0	0	0	
6	0	0	0	0	1021	0	0	0	0	0	
7	0	0	0	0	1021	0	0	0	0	0	
8	0	0	0	0	1021	0	0	0	0	0	
9	0	0	0	0	1021	0	0	0	0	0	
10	0	0	0	0	1021	0	0	0	0	0	
11	0	0	0	0	1021	0	0	0	0	0	
12	0	0	0	0	1021	0	0	0	0	0	
13	0	0	0	0	1021	0	0	0	0	0	
14	0	0	0	0	1021	0	0	0	0	0	
15	0	0	0	0	1021	0	0	0	0	0	
0	0	0	0	0	1021	0	0	0	0	0	
1	0	0	0	0	1021	0	0	0	0	0	
2	0	0	0	0	1021	0	0	0	0	0	
3	0	0	0	0	1021	0	0	0	0	0	
4	0	0	0	0	1021	0	0	0	0	0	
5	0	0	0	0	1021	0	0	0	0	0	
6	0	0	0	0	1021	0	0	0	0	0	
7	0	0	0	0	1021	0	0	0	0	0	
8	0	0	0	0	1021	0	0	0	0	0	
9	0	0	0	0	1021	0	0	0	0	0	
10	0	0	0	0	1021	0	0	0	0	0	
11	0	0	0	0	1021	0	0	0	0	0	
12	0	0	0	0	1021	0	0	0	0	0	
13	0	0	0	0	1021	0	0	0	0	0	
14	0	0	0	0	1021	0	0	0	0	0	
15	0	0	0	0	1021	0	0	0	0	0	
0	0	0	0	0	1021	0	0	0	0	0	
1	0	0	0	0	1021	0	0	0	0	0	
2	0	0	0	0	1021	0	0	0	0	0	
3	0	0	0	0	1021	0	0	0	0	0	
4	0	0	0	0	1021	0	0	0	0	0	
5	0	0	0	0	1021	0	0	0	0	0	
6	0	0	0	0	1021	0	0	0	0	0	
7	0	0	0	0	1021	0	0	0	0	0	
8	0	0	0	0	1021	0	0	0	0	0	
9	0	0	0	0	1021	0	0	0	0	0	
10	0	0	0	0	1021	0	0	0	0	0	
11	0	0	0	0	1021	0	0	1	0	0	
12	0	0	0	0	1021	0	0	1	0	0	
13	0	0	0	0	1021	0	0	0	0	0	
14	0	0	0	0	1021	0	0	0	0	0	
15	0	0	0	0	1021	0	0	0	0	0	
0	0	0	0	0	1021	0	0	0	0	0	
1	0	0	0	0	1021	0	0	0	0	0	
2	0	0	0	0	1021	0	0	0	0	0	
3	0	0	0	0	1021	0	0	0	0	0	
4	0	0	0	0	1021	0	0	0	0	0	
5	0	0	0	0	1021	0	0	0	0	0	
6	0	0	0	0	1021	0	0	0	0	0	
7	0	0	0	0	1021	0	0	0	0	0	
8	0	0	0	0	1021	0	0	0	0	0	
9	0	0	0	0	1021	0	0	0	0	0	
10	0	0	0	0	1021	0	0	0	0	0	
11	0	0	0	0	1022	0	0	0	0	0	
12	0	0	0	0	1021	0	0	0	0	0	
13	0	0	0	0	1021	0	0	0	0	0	
14	0	0	0	0	1021	0	0	0	0	0	
15	0	0	0	0	1021	0	0	1	0	0	
0	0	0	0	0	1021	0	0	0	0	0	
1	0	0	0	0	1021	0	0	0	0	0	
2	0	0	0	0	1021	0	0	0	0	0	
3	0	0	0	0	1021	0	0	0	0	0	
4	0	0	0	0	1021	0	0	0	0	0	
5	0	0	0	0	1021	0	0	0	0	0	
6	0	0	0	0	1021	0	0	0	0	0	
7	0	0	0	0	1021	0	0	0	0	0	
8	0	0	0	0	1021	0	0	0	0	0	
9	0	0	0	0	1021	0	0	0	0	0	
10	0	0	0	0	1021	0	0	0	0	0	
11	0	0	0	0	1021	0	0	0	0	0	
12	0	0	0	0	1021	0	0	0	0	0	
13	0	0	0	0	1021	0	0	0	0	0	
14	0	0	0	0	1021	0	0	0	0	0	
15	0	0	0	0	1022	0	0	0	0	0	
0	0	0	0	0	1021	0	0	0	0	0	
1	0	0	0	0	1021	0	0	0	0	0	
2	0	0	0	0	1021	0	0	0	0	0	
3	0	0	0	0	1021	0	0	0	0	0	
4	0	0	0	0	1022	0	0	0	0	0	
5	0	0	0	0	1021	0	0	0	0	0	
6	0	0	0	0	1021	0	0	0	0	0	
7	0	0	0	0	1021	0	0	0	0	0	
8	0	0	0	0	1021	0	0	0	0	0	
9	0	0	0	0	1021	0	0	0	0	0	
10	0	0	0	0	1021	0	0	0	0	0	
11	0	0	0	0	1021	0	0	0	0	0	
12	0	0	0	0	1021	0	0	0	0	0	
13	0	0	0	0	1021	0	0	0	0	0	
14	0	0	0	0	1021	0	0	0	0	0	
15	0	0	0	0	1021	0	0	0	0	0	
0	0	0	0	0	1021	0	0	0	0	0	
1	0	0	0	0	1021	0	0	0	0	0	
2	0	0	0	0	1021	0	0	0	0	0	
3	0	0	0	0	1021	0	0	0	0	0	
4	0	0	0	0	1021	0	0	0	0	0	
5	0	0	0	0	1021	0	0	0	0	0	
6	0	0	0	0	1021	0	0	0	0	0	
7	0	0	0	0	1021	0	0	1	0	0	
8	0	0	0	0	1021	0	0	0	0	0	
9	0	0	0	0	1021	0	0	0	0	0	
10	0	0	0	0	1021	0	0	0	0	0	
11	0	0	0	0	1021	0	0	0	0	0	
12	0	0	0	0	1021	0	0	0	0	0	
13	0	0	0	0	1021	0	0	0	0	0	
14	0	0	0	0	1021	0	0	0	0	0	
15	0	0	0	0	1021	0	0	0	0	0	
0	0	0	0	0	1021	0	0	0	0	0	
1	0	0	0	0	1021	0	0	0	0	0	
2	0	0	0	0	1021	0	0	0	0	0	
3	0	0	0	0	1021	0	0	0	0	0	
4	0	0	0	0	1021	0	0	0	0	0	
5	0	0	0	0	1021	0	0	0	0	0	
6	0	0	0	0	1021	0	0	0	0	0	
7	0	0	0	0	1021	0	0	0	0	0	
8	0	0	0	0	1021	0	0	0	0	0	
9	0	0	0	0	1021	0	0	0	0	0	
10	0	0	0	0	1022	0	0	0	0	0	
11	0	0	0	0	1021	0	0	0	0	0	
12	0	0	0	0	1021	0	0	0	0	0	
13	0	0	0	0	1021	0	0	0	0	0	
14	0	0	0	0	1021	0	0	0	0	0	
15	0	0	0	0	1021	0	0	0	0	0	
0	0	0	0	0	1021	0	0	0	0	0	
1	0	0	0	0	1021	0	0	0	0	0	
2	0	0	0	0	1021	0	0	0	0	0	
3	0	0	0	0	1021	0	0	0	0	0	
4	0	0	0	0	1021	0	0	0	0	0	
5	0	0	0	0	1021	0	0	0	0	0	
6	0	0	0	0	1021	0	0	0	0	0	
7	0	0	0	0	1021	0	0	0	0	0	
8	0	0	0	0	1021	0	0	0	0	0	
9	0	0	0	0	1021	0	0	0	0	0	
10	0	0	0	0	1021	0	0	0	0	0	
11	0	0	0	0	1021	0	0	0	0	0	
12	0	0	0	0	1021	0	0	0	0	0	
13	0	0	0	0	1021	0	0	0	0	0	
14	0	0	0	0	1021	0	0	0	0	0	
15	0	0	0	0	1021	0	0	0	0	0	
0	0	0	0	0	1021	0	0	1	0	0	
1	0	0	0	0	1021	0	0	0	0	0	
2	0	0	0	0	1021	0	0	0	0	0	
3	0	0	0	0	1021	0	0	0	0	0	
4	0	0	0	0	1021	0	0	0	0	0	
5	0	0	0	0	1021	0	0	0	0	0	
6	0	0	0	0	1021	0	0	0	0	0	
7	0	0	0	0	1021	0	0	0	0	0	
8	0	0	0	0	1021	0	0	0	0	0	
9	0	0	0	0	1021	0	0	0	0	0	
10	0	0	0	0	1021	0	0	0	0	0	
11	0	0	0	0	1021	0	0	0	0	0	
12	0	0	0	0	1021	0	0	0	0	0	
13	0	0	0	0	1021	4	0	0	0	0	
14	0	0	0	0	1021	39	0	0	0	0	
15	0	0	0	0	1021	71	0	0	0	0	
0	0	0	0	0	1021	92	0	0	0	0	
1	0	0	0	0	1021	90	0	0	0	0	
2	0	0	0	0	1021	59	0	0	0	0	
3	0	0	0	0	1021	0	0	1	0	0	
4	0	0	0	0	1021	0	0	1	0	0	
5	0	0	0	0	1021	0	0	0	0	0	
6	0	0	0	0	1021	0	0	0	0	0	
7	0	0	0	0	1021	0	0	0	0	0	
8	0	0	0	0	1021	0	0	0	0	0	
9	0	0	0	0	1021	0	0	0	0	0	
10	0	0	0	0	1021	0	0	0	0	0	
11	0	0	0	0	1021	0	0	0	0	0	
12	0	0	0	0	1021	0	0	0	0	0	
13	0	0	0	0	1021	0	0	0	0	0	
14	0	0	0	0	1021	0	0	0	0	0	
15	0	0	0	0	1021	4	0	0	0	0	
0	0	0	0	0	1021	56	0	0	0	0	
1	0	0	0	0	1021	124	0	0	0	0	
2	0	0	0	0	1021	190	0	0	0	0	
3	0	0	0	0	1021	242	0	0	0	0	
4	0	0	0	0	1021	269	0	0	0	0	
5	0	0	0	0	1021	262	0	0	0	0	
6	0	0	0	0	1021	216	0	0	0	0	
7	0	0	0	0	1021	135	0	1	0	0	
8	0	0	0	0	1022	27	0	0	0	0	
9	0	0	0	0	1021	0	0	0	0	0	
10	0	0	0	0	1021	0	0	0	0	0	
11	0	0	0	0	1021	0	0	0	0	0	
12	0	0	0	0	1021	0	0	0	0	0	
13	0	0	0	0	1021	0	0	0	0	0	
14	0	0	0	0	1021	0	0	0	0	0	
15	0	0	0	0	1021	0	0	0	0	0	
0	0	0	0	0	1021	0	0	0	0	0	
1	0	0	0	0	1021	0	0	0	0	0	
2	0	0	0	0	1021	0	0	0	0	0	
3	0	0	0	0	1021	41	0	0	0	0	
4	0	0	0	0	1021	120	0	0	0	0	
5	0	0	0	0	1021	215	0	0	0	0	
6	0	0	0	0	1021	307	0	0	0	0	
7	0	0	0	0	1022	383	0	0	0	0	
8	0	0	0	0	1022	426	0	0	0	0	
9	0	0	0	0	1021	428	0	0	0	0	
10	0	0	0	0	1021	382	0	0	0	0	
11	0	0	0	0	1021	289	0	0	0	0	
12	0	0	0	0	1021	159	0	0	0	0	
13	0	0	0	0	1021	3	0	0	0	0	
14	0	0	0	0	1021	0	0	0	0	0	
15	0	0	0	0	1021	0	0	0	0	0	
0	0	0	0	0	1021	0	0	0	0	0	
1	0	0	0	0	1021	0	0	0	0	0	
2	0	0	0	0	1021	0	0	0	0	0	
3	0	0	0	0	1021	0	0	0	0	0	
4	0	0	0	0	1021	0	0	0	0	0	
5	0	0	0	0	1021	0	0	0	0	0	
6	0	0	0	0	1021	0	0	0	0	0	
7	0	0	0	0	1021	36	0	0	0	0	
8	0	0	0	0	1021	117	0	0	0	0	
9	0	0	0	0	1021	215	0	0	0	0	
10	0	0	0	0	1021	311	0	0	0	0	
11	0	0	0	0	1021	391	0	0	0	0	
12	0	0	0	0	1021	442	0	0	0	0	
13	0	0	0	0	1021	451	0	0	0	0	
14	0	0	0	0	1021	414	0	0	0	0	
15	0	0	0	0	1021	333	0	0	0	0	
0	0	0	0	0	1021	215	0	0	0	0	
1	0	0	0	0	1021	74	0	0	0	0	
2	0	0	0	0	1021	0	0	0	0	0	
3	0	0	0	0	1021	0	0	0	0	0	
4	0	0	0	0	1021	0	0	0	0	0	
5	0	0	0	0	1021	0	0	0	0	0	
6	0	0	0	0	1021	0	0	0	0	0	
7	0	0	0	0	1021	0	0	0	0	0	
8	0	0	0	0	1021	0	0	0	0	0	
9	0	0	0	0	1021	0	0	0	0	0	
10	0	0	0	0	1021	43	0	0	0	0	
11	0	0	0	0	1021	132	0	0	0	0	
12	0	0	0	0	1021	243	0	0	0	0	
13	0	0	0	0	1021	359	0	0	0	0	
14	0	0	0	0	1021	465	0	0	0	0	
15	0	0	0	0	1021	543	0	0	0	0	
0	0	0	0	0	1021	580	0	0	0	0	
1	0	0	0	0	1021	567	0	0	0	0	
2	0	0	0	0	1021	501	0	0	0	0	
3	0	0	0	0	1021	387	0	0	0	0	
4	0	0	0	0	1021	237	0	0	0	0	
5	0	0	0	0	1021	65	0	0	0	0	
6	0	0	0	0	1021	0	0	0	0	0	
7	0	0	0	0	1021	0	0	0	0	0	
8	0	0	0	0	1021	0	0	0	0	0	
9	0	0	0	0	1021	0	0	0	0	0	
10	0	0	0	0	1021	0	0	0	0	0	
11	0	0	0	0	1021	0	0	0	0	0	
12	0	0	0	0	1021	0	0	0	0	0	
13	0	0	0	0	1021	0	0	0	0	0	
14	0	0	0	0	1021	11	0	0	0	0	
15	0	0	0	0	1021	89	0	0	0	0	
0	0	0	0	0	1021	199	0	0	0	0	
1	0	0	0	0	1021	324	0	0	0	0	
2	0	0	0	0	1021	447	0	0	0	0	
3	0	0	0	0	1021	550	0	0	0	0	
4	0	0	0	0	1021	615	0	0	0	0	
5	0	0	0	0	1021	632	0	0	0	0	
6	0	0	0	0	1021	595	0	0	0	0	
7	0	0	0	0	1021	504	0	0	0	0	
8	0	0	0	0	1021	367	0	1	0	0	
9	0	0	0	0	1021	200	0	0	0	0	
10	0	0	0	0	1021	21	0	0	0	0	
11	0	0	0	0	1021	0	0	0	0	0	
12	0	0	0	0	1021	0	0	0	0	0	
13	0	0	0	0	1021	0	0	0	0	0	
14	0	0	0	0	1021	0	0	0	0	0	
15	0	0	0	0	1021	0	0	0	0	0	
0	0	0	0	0	1021	0	0	0	0	0	
1	0	0	0	0	1021	0	0	0	0	0	
2	0	0	0	0	1021	10	0	0	0	0	
3	0	0	0	0	1021	91	0	0	0	0	
4	0	0	0	0	1021	209	0	0	0	0	
5	0	0	0	0	1021	345	0	0	0	0	
6	0	0	0	0	1021	483	0	0	0	0	
7	0	0	0	0	1021	602	0	0	0	0	
8	0	0	0	0	1021	684	0	0	0	0	
9	0	0	0	0	1021	714	0	0	0	0	
10	0	0	0	0	1021	688	0	0	0	0	
11	0	0	0	0	1021	606	0	1	0	0	
12	0	0	0	0	1021	475	0	0	0	0	
13	0	0	0	0	1021	307	0	0	0	0	
14	0	0	0	0	1021	126	0	0	0	0	
15	0	0	0	0	1021	0	0	0	0	0	
0	0	0	0	0	1021	0	0	0	0	0	
1	0	0	0	0	1021	0	0	0	0	0	
2	0	0	0	0	1021	0	0	0	0	0	
3	0	0	0	0	1021	0	0	0	0	0	
4	0	0	0	0	1021	0	0	0	0	0	
5	0	0	0	0	1021	0	0	0	0	0	
6	0	0	0	0	1021	55	0	0	0	0	
7	0	0	0	0	1021	164	0	0	0	0	
8	0	0	0	0	1021	305	0	0	0	0	
9	0	0	0	0	1021	459	0	0	0	0	
10	0	0	0	0	1021	608	0	0	0	0	
11	0	0	0	0	1021	732	0	0	0	0	
12	0	0	0	0	1021	812	0	0	0	0	
13	0	0	0	0	1021	837	0	0	0	0	
14	0	0	0	0	1021	805	0	0	0	0	
15	0	0	0	0	1021	715	0	0	0	0	
0	0	0	0	0	1021	576	0	0	0	0	
1	0	0	0	0	1021	401	0	0	0	0	
2	0	0	0	0	1021	212	0	0	0	0	
3	0	0	0	0	1021	31	0	0	0	0	
4	0	0	0	0	1021	0	0	0	0	0	
5	0	0	0	0	1021	0	0	0	0	0	
6	0	0	0	0	1021	0	0	0	0	0	
7	0	0	0	0	1021	0	0	0	0	0	
8	0	0	0	0	1021	0	0	0	0	0	
9	0	0	0	0	1021	32	0	0	0	0	
10	0	0	0	0	1021	133	0	0	0	0	
11	0	0	0	0	1021	271	0	0	0	0	
12	0	0	0	0	1021	430	0	0	0	0	
13	0	0	0	0	1021	590	0	0	0	0	
14	0	0	0	0	1021	730	0	0	0	0	
15	0	0	0	0	1022	830	0	0	0	0	
0	0	0	0	0	1021	878	0	0	0	0	
1	0	0	0	0	1021	864	0	0	0	0	
2	0	0	0	0	1021	788	0	0	0	0	
3	0	0	0	0	1021	654	0	0	0	0	
4	0	0	0	0	1022	475	0	0	0	0	
5	0	0	0	0	1021	268	0	0	0	0	
6	0	0	0	0	1021	60	0	0	0	0	
7	0	0	0	0	1021	0	0	0	0	0	
8	0	0	0	0	1021	0	0	0	0	0	
9	0	0	0	0	1021	0	0	0	0	0	
10	0	0	0	0	1021	0	0	0	0	0	
11	0	0	0	0	1021	0	0	0	0	0	
12	0	0	0	0	1021	0	0	0	0	0	
13	0	0	0	0	1021	75	0	0	0	0	
14	0	0	0	0	1021	215	0	0	0	0	
15	0	0	0	0	1021	398	0	0	0	0	
0	0	0	0	0	1021	603	0	0	0	0	
1	0	0	0	0	1021	809	0	0	0	0	
2	0	0	0	0	1021	986	0	0	0	0	
3	0	0	0	0	1021	1021	0	0	0	0	
4	0	0	0	0	1021	1021	0	0	0	0	
5	0	0	0	0	1021	1021	0	0	0	0	
6	0	0	0	0	1021	1015	0	0	0	0	
7	0	0	0	0	1022	919	0	0	0	0	
8	0	0	0	0	1021	768	0	1	0	0	
9	0	0	0	0	1021	578	0	0	0	0	
10	0	0	0	0	1021	366	0	0	0	0	
11	0	0	0	0	1021	160	0	0	0	0	
12	0	0	0	0	1021	0	0	0	0	0	
13	0	0	0	0	1021	0	0	0	0	0	
14	0	0	0	0	1021	0	0	0	0	0	
15	0	0	0	0	1021	0	0	0	0	0	
0	0	0	0	0	1021	4	0	0	0	0	
1	0	0	0	0	1021	98	0	0	0	0	
2	0	0	0	0	1021	246	0	0	0	0	
3	0	0	0	0	1021	434	0	0	0	0	
4	0	0	0	0	1021	643	0	0	0	0	
5	0	0	0	0	1021	848	0	0	0	0	
6	0	0	0	0	1021	1021	0	0	0	0	
7	0	0	0	0	1022	1021	0	0	0	0	
8	0	0	0	0	1021	1021	0	0	0	0	
9	0	0	0	0	1021	1021	0	0	0	0	
10	0	0	0	0	1021	1021	0	0	0	0	
11	0	0	0	0	1021	957	0	0	0	0	
12	0	0	0	0	1021	831	0	1	0	0	
13	0	0	0	0	1021	667	0	0	0	0	
14	0	0	0	0	1021	480	0	0	0	0	
15	0	0	0	0	1021	290	0	0	0	0	
0	0	0	0	0	1021	124	0	0	0	0	
1	0	0	0	0	1021	0	0	0	0	0	
2	0	0	0	0	1021	0	0	0	0	0	
3	0	0	0	0	1021	0	0	0	0	0	
4	0	0	0	0	1021	14	0	0	0	0	
5	0	0	0	0	1021	105	0	0	0	0	
6	0	0	0	0	1021	248	0	0	0	0	
7	0	0	0	0	1021	426	0	0	0	0	
8	0	0	0	0	1021	623	0	0	0	0	
9	0	0	0	0	1021	815	0	0	0	0	
10	0	0	0	0	1021	976	0	0	0	0	
11	0	0	0	0	1021	1021	0	0	0	0	
12	0	0	0	0	1022	1021	0	0	0	0	
13	0	0	0	0	1021	1021	0	0	0	0	
14	0	0	0	0	1021	1000	0	0	0	0	
15	0	0	0	0	1021	899	0	0	0	0	
0	0	0	0	0	1021	749	0	0	0	0	
1	0	0	0	0	1021	561	0	0	0	0	
2	0	0	0	0	1021	356	0	0	0	0	
3	0	0	0	0	1021	158	0	0	0	0	
4	0	0	0	0	1021	0	0	0	0	0	
5	0	0	0	0	1021	0	0	0	0	0	
6	0	0	0	0	1021	0	0	0	0	0	
7	0	0	0	0	1021	0	0	0	0	0	
8	0	0	0	0	1021	7	0	0	0	0	
9	0	0	0	0	1021	100	0	0	0	0	
10	0	0	0	0	1021	244	0	0	0	0	
11	0	0	0	0	1021	426	0	0	0	0	
12	0	0	0	0	1021	627	0	0	0	0	
13	0	0	0	0	1021	823	0	0	0	0	
14	0	0	0	0	1022	990	0	0	0	0	
15	0	0	0	0	1021	1021	0	0	0	0	
0	0	0	0	0	1021	1021	0	0	0	0	
1	0	0	0	0	1021	1021	0	0	0	0	
2	0	0	0	0	1021	1001	0	0	0	0	
3	0	0	0	0	1021	898	0	1	0	0	
4	0	0	0	0	1021	742	0	1	0	0	
5	0	0	0	0	1021	550	0	0	0	0	
6	0	0	0	0	1021	339	0	0	0	0	
7	0	0	0	0	1021	135	0	0	0	0	
8	0	0	0	0	1021	0	0	0	0	0	
9	0	0	0	0	1021	0	0	0	0	0	
10	0	0	0	0	1021	0	0	0	0	0	
11	0	0	0	0	1021	0	0	0	0	0	
12	0	0	0	0	1021	0	0	0	0	0	
13	0	0	0	0	1021	88	0	0	0	0	
14	0	0	0	0	1021	230	0	0	0	0	
15	0	0	0	0	1021	413	0	0	0	0	
0	0	0	0	0	1021	616	0	0	0	0	
1	0	0	0	0	1021	818	0	0	0	0	
2	0	0	0	0	1021	990	0	0	0	0	
3	0	0	0	0	1021	1021	0	0	0	0	
4	0	0	0	0	1021	1021	0	0	0	0	
5	0	0	0	0	1021	1021	0	0	0	0	
6	0	0	0	0	1021	1003	0	0	0	0	
7	0	0	0	0	1021	896	0	0	0	0	
8	0	0	0	0	1022	736	0	0	0	0	
9	0	0	0	0	1021	535	0	0	0	0	
10	0	0	0	0	1021	314	0	0	0	0	
11	0	0	0	0	1021	100	0	0	0	0	
12	0	0	0	0	1021	0	0	0	0	0	
13	0	0	0	0	1021	0	0	0	0	0	
14	0	0	0	0	1021	0	0	0	0	0	
15	0	0	0	0	1021	0	0	0	0	0	
0	0	0	0	0	1021	0	0	0	0	0	
1	0	0	0	0	1021	29	0	0	0	0	
2	0	0	0	0	1021	135	0	0	0	0	
3	0	0	0	0	1021	284	0	0	0	0	
4	0	0	0	0	1021	460	0	0	0	0	
5	0	0	0	0	1021	642	0	0	0	0	
6	0	0	0	0	1021	808	0	0	0	0	
7	0	0	0	0	1022	936	0	0	0	0	
8	0	0	0	0	1021	1015	0	0	0	0	
9	0	0	0	0	1021	1021	0	0	0	0	
10	0	0	0	0	1021	986	0	0	0	0	
11	0	0	0	0	1021	884	0	0	0	0	
12	0	0	0	0	1021	732	0	0	0	0	
13	0	0	0	0	1021	542	0	0	0	0	
14	0	0	0	0	1021	334	0	0	0	0	
15	0	0	0	0	1021	131	0	0	0	0	
0	0	0	0	0	1021	0	0	0	0	0	
1	0	0	0	0	1021	0	0	0	0	0	
2	0	0	0	0	1021	0	0	0	0	0	
3	0	0	0	0	1021	0	0	0	0	0	
4	0	0	0	0	1021	0	0	0	0	0	
5	0	0	0	0	1021	50	0	0	0	0	
6	0	0	0	0	1021	169	0	0	0	0	
7	0	0	0	0	1021	328	0	0	0	0	
8	0	0	0	0	1021	513	0	0	0	0	
9	0	0	0	0	1021	701	0	0	0	0	
10	0	0	0	0	1021	864	0	0	0	0	
11	0	0	0	0	1021	987	0	0	0	0	
12	0	0	0	0	1021	1021	0	0	0	0	
13	0	0	0	0	1021	1021	0	0	0	0	
14	0	0	0	0	1021	969	0	0	0	0	
15	0	0	0	0	1022	844	0	0	0	0	
0	0	0	0	0	1021	667	0	0	0	0	
1	0	0	0	0	1021	453	0	0	0	0	
2	0	0	0	0	1021	224	0	0	0	0	
3	0	0	0	0	1021	8	0	0	0	0	
4	0	0	0	0	1021	0	0	0	0	0	
5	0	0	0	0	1021	0	0	0	0	0	
6	0	0	0	0	1021	0	0	0	0	0	
7	0	0	0	0	1021	0	0	0	0	0	
8	0	0	0	0	1021	0	0	0	0	0	
9	0	0	0	0	1021	24	0	0	0	0	
10	0	0	0	0	1021	127	0	0	0	0	
11	0	0	0	0	1021	273	0	0	0	0	
12	0	0	0	0	1021	446	0	0	0	0	
13	0	0	0	0	1021	624	0	0	0	0	
14	0	0	0	0	1021	785	0	0	0	0	
15	0	0	0	0	1021	908	0	0	0	0	
0	0	0	0	0	1021	979	0	0	0	0	
1	0	0	0	0	1021	992	0	0	0	0	
2	0	0	0	0	1022	942	0	0	0	0	
3	0	0	0	0	1021	832	0	1	0	0	
4	0	0	0	0	1021	672	0	1	0	0	
5	0	0	0	0	1021	478	0	0	0	0	
6	0	0	0	0	1021	270	0	0	0	0	
7	0	0	0	0	1021	74	0	0	0	0	
8	0	0	0	0	1021	0	0	0	0	0	
9	0	0	0	0	1021	0	0	0	0	0	
10	0	0	0	0	1021	0	0	0	0	0	
11	0	0	0	0	1021	0	0	0	0	0	
12	0	0	0	0	1021	0	0	0	0	0	
13	0	0	0	0	1021	75	0	0	0	0	
14	0	0	0	0	1021	205	0	0	0	0	
15	0	0	0	0	1021	371	0	0	0	0	
0	0	0	0	0	1021	558	0	0	0	0	
1	0	0	0	0	1021	741	0	0	0	0	
2	0	0	0	0	1021	898	0	0	0	0	
3	0	0	0	0	1021	1009	0	0	0	0	
4	0	0	0	0	1021	1021	0	0	0	0	
5	0	0	0	0	1021	1021	0	0	0	0	
6	0	0	0	0	1021	962	0	0	0	0	
7	0	0	0	0	1021	835	0	0	0	0	
8	0	0	0	0	1021	659	0	0	0	0	
9	0	0	0	0	1021	449	0	0	0	0	
10	0	0	0	0	1021	225	0	0	0	0	
11	0	0	0	0	1021	16	0	0	0	0	
12	0	0	0	0	1021	0	0	0	0	0	
13	0	0	0	0	1021	0	0	0	0	0	
14	0	0	0	0	1021	0	0	0	0	0	
15	0	0	0	0	1021	0	0	0	0	0	
0	0	0	0	0	1021	0	0	0	0	0	
1	0	0	0	0	1021	29	0	0	0	0	
2	0	0	0	0	1021	135	0	0	0	0	
3	0	0	0	0	1021	284	0	0	0	0	
4	0	0	0	0	1021	459	0	0	0	0	
5	0	0	0	0	1021	639	0	0	0	0	
6	0	0	0	0	1021	800	0	0	0	0	
7	0	0	0	0	1021	921	0	0	0	0	
8	0	0	0	0	1021	989	0	0	0	0	
9	0	0	0	0	1021	995	0	0	0	0	
10	0	0	0	0	1021	936	0	0	0	0	
11	0	0	0	0	1021	815	0	0	0	0	
12	0	0	0	0	1022	641	0	0	0	0	
13	0	0	0	0	1021	432	0	0	0	0	
14	0	0	0	0	1021	210	0	0	0	0	
15	0	0	0	0	1021	3	0	0	0	0	
0	0	0	0	0	1021	0	0	0	0	0	
1	0	0	0	0	1021	0	0	0	0	0	
2	0	0	0	0	1021	0	0	0	0	0	
3	0	0	0	0	1021	0	0	0	0	0	
4	0	0	0	0	1021	0	0	0	0	0	
5	0	0	0	0	1021	32	0	0	0	0	
6	0	0	0	0	1021	141	0	0	0	0	
7	0	0	0	0	1021	288	0	0	0	0	
8	0	0	0	0	1021	460	0	0	0	0	
9	0	0	0	0	1021	633	0	0	0	0	
10	0	0	0	0	1021	784	0	0	0	0	
11	0	0	0	0	1022	894	0	0	0	0	
12	0	0	0	0	1022	950	0	0	0	0	
13	0	0	0	0	1021	944	0	0	0	0	
14	0	0	0	0	1021	875	0	0	0	0	
15	0	0	0	0	1021	745	0	0	0	0	
0	0	0	0	0	1022	568	0	0	0	0	
1	0	0	0	0	1021	357	0	0	0	0	
2	0	0	0	0	1021	140	0	0	0	0	
3	0	0	0	0	1021	0	0	0	0	0	
4	0	0	0	0	1021	0	0	0	0	0	
5	0	0	0	0	1021	0	0	0	0	0	
6	0	0	0	0	1021	0	0	0	0	0	
7	0	0	0	0	1021	0	0	0	0	0	
8	0	0	0	0	1021	0	0	0	0	0	
9	0	0	0	0	1021	23	0	0	0	0	
10	0	0	0	0	1021	123	0	0	0	0	
11	0	0	0	0	1021	264	0	0	0	0	
12	0	0	0	0	1021	431	0	0	0	0	
13	0	0	0	0	1021	601	0	0	0	0	
14	0	0	0	0	1021	753	0	0	0	0	
15	0	0	0	0	1022	865	0	0	0	0	
0	0	0	0	0	1021	925	0	0	0	0	
1	0	0	0	0	1021	924	0	0	0	0	
2	0	0	0	0	1021	859	0	0	0	0	
3	0	0	0	0	1021	733	0	0	0	0	
4	0	0	0	0	1022	559	0	0	0	0	
5	0	0	0	0	1021	350	0	0	0	0	
6	0	0	0	0	1021	133	0	0	0	0	
7	0	0	0	0	1021	0	0	0	0	0	
8	0	0	0	0	1021	0	0	0	0	0	
9	0	0	0	0	1021	0	0	0	0	0	
10	0	0	0	0	1021	0	0	0	0	0	
11	0	0	0	0	1021	0	0	0	0	0	
12	0	0	0	0	1021	0	0	0	0	0	
13	0	0	0	0	1021	0	0	0	0	0	
14	0	0	0	0	1021	64	0	0	0	0	
15	0	0	0	0	1021	177	0	0	0	0	
0	0	0	0	0	1021	318	0	0	0	0	
1	0	0	0	0	1021	470	0	0	0	0	
2	0	0	0	0	1021	612	0	0	0	0	
3	0	0	0	0	1021	725	0	0	0	0	
4	0	0	0	0	1021	794	0	0	0	0	
5	0	0	0	0	1021	812	0	0	0	0	
6	0	0	0	0	1021	775	0	0	0	0	
7	0	0	0	0	1021	688	0	1	0	0	
8	0	0	0	0	1021	559	0	0	0	0	
9	0	0	0	0	1021	402	0	0	0	0	
10	0	0	0	0	1021	237	0	0	0	0	
11	0	0	0	0	1021	82	0	0	0	0	
12	0	0	0	0	1021	0	0	0	0	0	
13	0	0	0	0	1021	0	0	0	0	0	
14	0	0	0	0	1021	0	0	0	0	0	
15	0	0	0	0	1021	0	0	0	0	0	
0	0	0	0	0	1021	17	0	0	0	0	
1	0	0	0	0	1021	102	0	0	0	0	
2	0	0	0	0	1021	226	0	0	0	0	
3	0	0	0	0	1021	375	0	0	0	0	
4	0	0	0	0	1021	535	0	0	0	0	
5	0	0	0	0	1021	686	0	0	0	0	
6	0	0	0	0	1000	807	0	0	0	0	
7	0	0	0	0	902	886	0	0	0	0	
8	0	0	0	0	842	913	0	0	0	0	
9	0	0	0	0	871	882	0	0	0	0	
10	0	0	0	0	1021	796	0	0	0	0	
11	0	0	0	0	1021	658	0	0	0	0	
12	0	0	0	0	1022	485	0	0	0	0	
13	0	0	0	0	1021	291	0	0	0	0	
14	0	0	0	0	1021	100	0	0	0	0	
15	0	0	0	0	1021	0	0	0	0	0	
0	0	0	0	0	1021	0	0	0	0	0	
1	0	0	0	0	1021	0	0	0	0	0	
2	0	0	0	0	1021	0	0	0	0	0	
3	0	0	0	0	1021	0	0	0	0	0	
4	0	0	0	0	1021	11	0	0	0	0	
5	0	0	0	0	1021	107	0	0	0	0	
6	0	0	0	0	1021	252	0	0	0	0	
7	0	0	0	0	1021	435	0	0	0	0	
8	0	0	0	0	1021	638	0	0	0	0	
9	0	0	0	0	1021	839	0	0	0	0	
10	0	0	0	0	992	1011	0	0	0	0	
11	0	0	0	0	921	1021	0	0	0	0	
12	0	0	0	0	907	1021	0	0	0	0	
13	0	0	0	0	993	1021	0	0	0	0	
14	0	0	0	0	1021	1021	0	0	0	0	
15	0	0	0	0	1021	955	0	0	0	0	
0	0	0	0	0	1022	831	0	0	0	0	
1	0	0	0	0	1021	670	0	0	0	0	
2	0	0	0	0	1021	487	0	0	0	0	
3	0	0	0	0	1021	303	0	0	0	0	
4	0	0	0	0	1021	144	0	0	0	0	
5	0	0	0	0	1021	25	0	0	0	0	
6	0	0	0	0	1021	0	0	0	0	0	
7	0	0	0	0	1021	0	0	0	0	0	
8	0	0	0	0	1021	41	0	0	0	0	
9	0	0	0	0	1021	154	0	0	0	0	
10	0	0	0	0	1021	318	0	0	0	0	
11	0	0	0	0	1021	519	0	0	0	0	
12	0	0	0	0	1021	738	0	0	0	0	
13	0	0	0	0	1021	949	0	0	0	0	
14	0	0	0	0	1021	1021	0	0	0	0	
15	0	0	0	0	1022	1021	0	0	0	0	
0	0	0	0	0	1021	1021	0	0	0	0	
1	0	0	0	0	1021	1021	0	0	0	0	
2	0	0	0	0	1021	1021	0	0	0	0	
3	0	0	0	0	1021	1015	0	0	0	0	
4	0	0	0	0	1021	931	0	0	0	0	
5	0	0	0	0	1021	807	0	0	0	0	
6	0	0	0	0	1021	656	0	0	0	0	
7	0	0	0	0	1021	496	0	0	0	0	
8	0	0	0	0	1021	350	0	0	0	0	
9	0	0	0	0	1021	237	0	0	0	0	
10	0	0	0	0	1021	175	0	0	0	0	
11	0	0	0	0	1021	169	0	0	0	0	
12	0	0	0	0	1021	224	0	0	0	0	
13	0	0	0	0	1021	338	0	0	0	0	
14	0	0	0	0	1021	501	0	0	0	0	
15	0	0	0	0	1021	698	0	0	0	0	
0	0	0	0	0	1021	907	0	0	0	0	
1	0	0	0	0	1021	1021	0	0	0	0	
2	0	0	0	0	1021	1021	0	0	0	0	
3	0	0	0	0	1022	1021	0	0	0	0	
4	0	0	0	0	1021	1021	0	0	0	0	
5	0	0	0	0	1021	1021	0	0	0	0	
6	0	0	0	0	1021	1021	0	0	0	0	
7	0	0	0	0	1021	1021	0	0	0	0	
8	0	0	0	0	1022	997	0	0	0	0	
9	0	0	0	0	1021	907	0	0	0	0	
10	0	0	0	0	1021	787	0	0	0	0	
11	0	0	0	0	1021	653	0	0	0	0	
12	0	0	0	0	1021	524	0	0	0	0	
13	0	0	0	0	1021	419	0	0	0	0	
14	0	0	0	0	1021	354	0	0	0	0	
15	0	0	0	0	1021	343	0	0	0	0	
0	0	0	0	0	1021	387	0	0	0	0	
1	0	0	0	0	1021	485	0	0	0	0	
2	0	0	0	0	1021	629	0	0	0	0	
3	0	0	0	0	1021	802	0	0	0	0	
4	0	0	0	0	1021	987	0	0	0	0	
5	0	0	0	0	1021	1021	0	0	0	0	
6	0	0	0	0	1021	1021	0	0	0	0	
7	0	0	0	0	1021	1022	0	0	0	0	
8	0	0	0	0	1021	1021	0	0	0	0	
9	0	0	0	0	1021	1021	0	0	0	0	
10	0	0	0	0	1021	1021	0	0	0	0	
11	0	0	0	0	1021	1021	0	0	0	0	
12	0	0	0	0	1021	1021	0	1	0	0	
13	0	0	0	0	1021	958	0	0	0	0	
14	0	0	0	0	1021	861	0	0	0	0	
15	0	0	0	0	1021	748	0	0	0	0	
0	0	0	0	0	1021	632	0	0	0	0	
1	0	0	0	0	1021	533	0	0	0	0	
2	0	0	0	0	1021	465	0	0	0	0	
3	0	0	0	0	1021	443	0	0	0	0	
4	0	0	0	0	1021	470	0	0	0	0	
5	0	0	0	0	1021	544	0	0	0	0	
6	0	0	0	0	1021	659	0	0	0	0	
7	0	0	0	0	1021	802	0	0	0	0	
8	0	0	0	0	1021	956	0	0	0	0	
9	0	0	0	0	1021	1021	0	0	0	0	
10	0	0	0	0	1021	1021	0	0	0	0	
11	0	0	0	0	1022	1021	0	0	0	0	
12	0	0	0	0	1021	1021	0	0	0	0	
13	0	0	0	0	1021	1021	0	0	0	0	
14	0	0	0	0	1021	1021	0	0	0	0	
15	0	0	0	0	1021	1021	0	0	0	0	
0	0	0	0	0	1022	1017	0	0	0	0	
1	0	0	0	0	1021	955	0	0	0	0	
2	0	0	0	0	1021	864	0	0	0	0	
3	0	0	0	0	1021	759	0	0	0	0	
4	0	0	0	0	1021	654	0	0	0	0	
5	0	0	0	0	1021	566	0	0	0	0	
6	0	0	0	0	1021	511	0	0	0	0	
7	0	0	0	0	1021	500	0	0	0	0	
8	0	0	0	0	1021	538	0	0	0	0	
9	0	0	0	0	1021	624	0	0	0	0	
10	0	0	0	0	1021	750	0	0	0	0	
11	0	0	0	0	1021	901	0	0	0	0	
12	0	0	0	0	1021	1021	0	0	0	0	
13	0	0	0	0	1021	1021	0	0	0	0	
14	0	0	0	0	1021	1021	0	0	0	0	
15	0	0	0	0	1021	1022	0	0	0	0	
0	0	0	0	0	1021	1021	0	0	0	0	
1	0	0	0	0	1021	1021	0	0	0	0	
2	0	0	0	0	1021	1021	0	0	0	0	
3	0	0	0	0	1021	1021	0	1	0	0	
4	0	0	0	0	1021	1021	0	1	0	0	
5	0	0	0	0	1021	999	0	0	0	0	
6	0	0	0	0	1021	931	0	0	0	0	
7	0	0	0	0	1021	846	0	0	0	0	
8	0	0	0	0	1021	758	0	0	0	0	
9	0	0	0	0	1021	684	0	0	0	0	
10	0	0	0	0	1021	637	0	0	0	0	
11	0	0	0	0	1021	625	0	0	0	0	
12	0	0	0	0	1021	655	0	0	0	0	
13	0	0	0	0	1021	727	0	0	0	0	
14	0	0	0	0	1021	831	0	0	0	0	
15	0	0	0	0	1021	958	0	0	0	0	
0	0	0	0	0	1021	1021	0	0	0	0	
1	0	0	0	0	1021	1021	0	0	0	0	
2	0	0	0	0	1021	1021	0	0	0	0	
3	0	0	0	0	1021	1021	0	0	0	0	
4	0	0	0	0	1021	1021	0	0	0	0	
5	0	0	0	0	1021	1021	0	0	0	0	
6	0	0	0	0	1021	1021	0	0	0	0	
7	0	0	0	0	1021	1021	0	0	0	0	
8	0	0	0	0	1022	981	0	0	0	0	
9	0	0	0	0	1021	894	0	0	0	0	
10	0	0	0	0	1021	782	0	0	0	0	
11	0	0	0	0	1021	660	0	0	0	0	
12	0	0	0	0	1021	545	0	0	0	0	
13	0	0	0	0	1021	454	0	0	0	0	
14	0	0	0	0	1021	402	0	0	0	0	
15	0	0	0	0	1021	400	0	0	0	0	
0	0	0	0	0	1021	450	0	0	0	0	
1	0	0	0	0	1021	549	0	0	0	0	
2	0	0	0	0	1021	686	0	0	0	0	
3	0	0	0	0	1021	845	0	0	0	0	
4	0	0	0	0	1021	1010	0	0	0	0	
5	0	0	0	0	1021	1021	0	0	0	0	
6	0	0	0	0	1021	1021	0	0	0	0	
7	0	0	0	0	1021	1021	0	0	0	0	
8	0	0	0	0	1021	1021	0	0	0	0	
9	0	0	0	0	1021	1021	0	0	0	0	
10	0	0	0	0	1021	1021	0	0	0	0	
11	0	0	0	0	1021	1021	0	0	0	0	
12	0	0	0	0	1021	963	0	1	0	0	
13	0	0	0	0	1021	864	0	0	0	0	
14	0	0	0	0	1021	740	0	0	0	0	
15	0	0	0	0	1021	610	0	0	0	0	
0	0	0	0	0	1021	488	0	0	0	0	
1	0	0	0	0	1021	394	0	0	0	0	
2	0	0	0	0	1021	344	0	0	0	0	
3	0	0	0	0	1021	344	0	0	0	0	
4	0	0	0	0	1021	397	0	0	0	0	
5	0	0	0	0	1021	500	0	0	0	0	
6	0	0	0	0	1021	643	0	0	0	0	
7	0	0	0	0	1021	811	0	0	0	0	
8	0	0	0	0	1021	984	0	0	0	0	
9	0	0	0	0	1021	1021	0	0	0	0	
10	0	0	0	0	1021	1021	0	0	0	0	
11	0	0	0	0	1022	1021	0	0	0	0	
12	0	0	0	0	1022	1021	0	0	0	0	
13	0	0	0	0	1021	1021	0	0	0	0	
14	0	0	0	0	1021	1021	0	0	0	0	
15	0	0	0	0	1021	1021	0	0	0	0	
0	0	0	0	0	1022	956	0	0	0	0	
1	0	0	0	0	1021	848	0	0	0	0	
2	0	0	0	0	1021	715	0	0	0	0	
3	0	0	0	0	1021	572	0	0	0	0	
4	0	0	0	0	1021	436	0	0	0	0	
5	0	0	0	0	1021	329	0	0	0	0	
6	0	0	0	0	1021	267	0	0	0	0	
7	0	0	0	0	1021	257	0	0	0	0	
8	0	0	0	0	1021	301	0	0	0	0	
9	0	0	0	0	1021	398	0	0	0	0	
10	0	0	0	0	1021	537	0	0	0	0	
11	0	0	0	0	1021	706	0	0	0	0	
12	0	0	0	0	1021	883	0	0	0	0	
13	0	0	0	0	1021	1021	0	0	0	0	
14	0	0	0	0	1021	1021	0	0	0	0	
15	0	0	0	0	1021	1021	0	0	0	0	
0	0	0	0	0	1021	1021	0	0	0	0	
1	0	0	0	0	1021	1021	0	0	0	0	
2	0	0	0	0	1021	1021	0	0	0	0	
3	0	0	0	0	1021	1001	0	0	0	0	
4	0	0	0	0	1022	915	0	0	0	0	
5	0	0	0	0	1021	791	0	0	0	0	
6	0	0	0	0	1021	643	0	0	0	0	
7	0	0	0	0	1021	490	0	0	0	0	
8	0	0	0	0	1021	348	0	0	0	0	
9	0	0	0	0	1021	241	0	0	0	0	
10	0	0	0	0	1021	180	0	0	0	0	
11	0	0	0	0	1021	172	0	0	0	0	
12	0	0	0	0	1021	220	0	0	0	0	
13	0	0	0	0	1021	323	0	0	0	0	
14	0	0	0	0	1021	472	0	0	0	0	
15	0	0	0	0	1021	653	0	0	0	0	
0	0	0	0	0	1021	846	0	0	0	0	
1	0	0	0	0	1021	1021	0	0	0	0	
2	0	0	0	0	1021	1021	0	0	0	0	
3	0	0	0	0	1021	1021	0	0	0	0	
4	0	0	0	0	1021	1021	0	0	0	0	
5	0	0	0	0	1021	1021	0	0	0	0	
6	0	0	0	0	1021	1021	0	0	0	0	
7	0	0	0	0	1021	1020	0	0	0	0	
8	0	0	0	0	1021	947	0	0	0	0	
9	0	0	0	0	1021	835	0	0	0	0	
10	0	0	0	0	1021	696	0	0	0	0	
11	0	0	0	0	1021	545	0	0	0	0	
12	0	0	0	0	1021	402	0	0	0	0	
13	0	0	0	0	1021	286	0	0	0	0	
14	0	0	0	0	1021	212	0	0	0	0	
15	0	0	0	0	1021	188	0	0	0	0	
0	0	0	0	0	1021	218	0	0	0	0	
1	0	0	0	0	1021	303	0	0	0	0	
2	0	0	0	0	1021	434	0	0	0	0	
3	0	0	0	0	1021	601	0	0	0	0	
4	0	0	0	0	1021	785	0	0	0	0	
5	0	0	0	0	1021	964	0	0	0	0	
6	0	0	0	0	1021	1021	0	0	0	0	
7	0	0	0	0	1022	1021	0	0	0	0	
8	0	0	0	0	1021	1021	0	0	0	0	
9	0	0	0	0	1021	1021	0	0	0	0	
10	0	0	0	0	1021	1021	0	0	0	0	
11	0	0	0	0	1021	1007	0	0	0	0	
12	0	0	0	0	1021	920	0	1	0	0	
13	0	0	0	0	1021	796	0	0	0	0	
14	0	0	0	0	1021	646	0	0	0	0	
15	0	0	0	0	1021	490	0	0	0	0	
0	0	0	0	0	1021	348	0	0	0	0	
1	0	0	0	0	1021	241	0	0	0	0	
2	0	0	0	0	1021	183	0	0	0	0	
3	0	0	0	0	1021	178	0	0	0	0	
4	0	0	0	0	1021	229	0	0	0	0	
5	0	0	0	0	1021	333	0	0	0	0	
6	0	0	0	0	1021	480	0	0	0	0	
7	0	0	0	0	1021	658	0	0	0	0	
8	0	0	0	0	1021	843	0	0	0	0	
9	0	0	0	0	1021	1016	0	0	0	0	
10	0	0	0	0	1021	1021	0	0	0	0	
11	0	0	0	0	1022	1021	0	0	0	0	
12	0	0	0	0	1022	1021	0	0	0	0	
13	0	0	0	0	1021	1021	0	0	0	0	
14	0	0	0	0	1021	1021	0	0	0	0	
15	0	0	0	0	1021	950	0	0	0	0	
0	0	0	0	0	1021	826	0	0	0	0	
1	0	0	0	0	1021	664	0	0	0	0	
2	0	0	0	0	1021	483	0	0	0	0	
3	0	0	0	0	1021	303	0	0	0	0	
4	0	0	0	0	1021	148	0	0	0	0	
5	0	0	0	0	1021	36	0	0	0	0	
6	0	0	0	0	1021	0	0	0	0	0	
7	0	0	0	0	1021	0	0	0	0	0	
8	0	0	0	0	1021	61	0	0	0	0	
9	0	0	0	0	1021	186	0	0	0	0	
10	0	0	0	0	1021	359	0	0	0	0	
11	0	0	0	0	1021	567	0	0	0	0	
12	0	0	0	0	1021	788	0	0	0	0	
13	0	0	0	0	1021	995	0	0	0	0	
14	0	0	0	0	1021	1021	0	0	0	0	
15	0	0	0	0	1021	1021	0	0	0	0	
0	0	0	0	0	1021	1021	0	0	0	0	
1	0	0	0	0	1021	1021	0	0	0	0	
2	0	0	0	0	1021	1021	0	0	0	0	
3	0	0	0	0	1021	995	0	0	0	0	
4	0	0	0	0	1021	893	0	1	0	0	
5	0	0	0	0	1021	751	0	0	0	0	
6	0	0	0	0	1021	584	0	0	0	0	
7	0	0	0	0	1021	412	0	0	0	0	
8	0	0	0	0	1021	258	0	0	0	0	
9	0	0	0	0	1021	143	0	0	0	0	
10	0	0	0	0	1021	76	0	0	0	0	
11	0	0	0	0	1021	69	0	0	0	0	
12	0	0	0	0	1021	122	0	0	0	0	
13	0	0	0	0	1021	235	0	0	0	0	
14	0	0	0	0	1021	399	0	0	0	0	
15	0	0	0	0	1021	597	0	0	0	0	
0	0	0	0	0	1021	811	0	0	0	0	
1	0	0	0	0	1021	1014	0	0	0	0	
2	0	0	0	0	1021	1021	0	0	0	0	
3	0	0	0	0	1022	1021	0	0	0	0	
4	0	0	0	0	1021	1021	0	0	0	0	
5	0	0	0	0	1021	1021	0	0	0	0	
6	0	0	0	0	1021	1021	0	0	0	0	
7	0	0	0	0	1021	1021	0	0	0	0	
8	0	0	0	0	1022	946	0	0	0	0	
9	0	0	0	0	1021	825	0	0	0	0	
10	0	0	0	0	1021	675	0	0	0	0	
11	0	0	0	0	1021	515	0	0	0	0	
12	0	0	0	0	1021	363	0	0	0	0	
13	0	0	0	0	1021	245	0	0	0	0	
14	0	0	0	0	1021	173	0	0	0	0	
15	0	0	0	0	1021	157	0	0	0	0	
0	0	0	0	0	1021	199	0	0	0	0	
1	0	0	0	0	1021	300	0	0	0	0	
2	0	0	0	0	1021	451	0	0	0	0	
3	0	0	0	0	1021	637	0	0	0	0	
4	0	0	0	0	1021	839	0	0	0	0	
5	0	0	0	0	1021	1021	0	0	0	0	
6	0	0	0	0	1021	1021	0	0	0	0	
7	0	0	0	0	1022	1021	0	0	0	0	
8	0	0	0	0	1021	1021	0	0	0	0	
9	0	0	0	0	1021	1021	0	0	0	0	
10	0	0	0	0	1021	1021	0	0	0	0	
11	0	0	0	0	1021	1021	0	0	0	0	
12	0	0	0	0	1021	969	0	0	0	0	
13	0	0	0	0	1021	861	0	0	0	0	
14	0	0	0	0	1021	722	0	0	0	0	
15	0	0	0	0	1021	566	0	0	0	0	
0	0	0	0	0	1021	409	0	0	0	0	
1	0	0	0	0	1021	270	0	0	0	0	
2	0	0	0	0	1021	163	0	0	0	0	
3	0	0	0	0	1021	95	0	0	0	0	
4	0	0	0	0	1021	71	0	0	0	0	
5	0	0	0	0	1021	93	0	0	0	0	
6	0	0	0	0	1021	156	0	0	0	0	
7	0	0	0	0	1021	252	0	0	0	0	
8	0	0	0	0	1021	367	0	0	0	0	
9	0	0	0	0	1021	486	0	0	0	0	
10	0	0	0	0	1021	590	0	0	0	0	
11	0	0	0	0	1021	663	0	0	0	0	
12	0	0	0	0	1021	693	0	0	0	0	
13	0	0	0	0	1021	673	0	0	0	0	
14	0	0	0	0	1021	601	0	0	0	0	
15	0	0	0	0	1021	483	0	0	0	0	
0	0	0	0	0	1022	327	0	0	0	0	
1	0	0	0	0	1021	152	0	0	0	0	
2	0	0	0	0	1021	0	0	0	0	0	
3	0	0	0	0	1021	0	0	0	0	0	
4	0	0	0	0	1021	0	0	0	0	0	
5	0	0	0	0	1021	0	0	0	0	0	
6	0	0	0	0	1021	0	0	0	0	0	
7	0	0	0	0	1021	0	0	0	0	0	
8	0	0	0	0	1021	0	0	0	0	0	
9	0	0	0	0	1021	0	0	0	0	0	
10	0	0	0	0	1021	12	0	0	0	0	
11	0	0	0	0	1021	88	0	0	0	0	
12	0	0	0	0	1021	196	0	0	0	0	
13	0	0	0	0	1021	320	0	0	0	0	
14	0	0	0	0	1021	444	0	0	0	0	
15	0	0	0	0	1022	548	0	0	0	0	
0	0	0	0	0	1021	617	0	0	0	0	
1	0	0	0	0	1021	639	0	0	0	0	
2	0	0	0	0	1021	608	0	0	0	0	
3	0	0	0	0	1021	526	0	0	0	0	
4	0	0	0	0	1021	400	0	0	0	0	
5	0	0	0	0	1021	245	0	0	0	0	
6	0	0	0	0	1021	77	0	0	0	0	
7	0	0	0	0	1021	0	0	0	0	0	
8	0	0	0	0	1021	0	0	0	0	0	
9	0	0	0	0	1021	0	0	0	0	0	
10	0	0	0	0	1021	0	0	0	0	0	
11	0	0	0	0	1021	0	0	0	0	0	
12	0	0	0	0	1021	0	0	0	0	0	
13	0	0	0	0	1021	0	0	0	0	0	
14	0	0	0	0	1021	24	0	0	0	0	
15	0	0	0	0	1021	104	0	0	0	0	
0	0	0	0	0	1021	211	0	0	0	0	
1	0	0	0	0	1021	331	0	0	0	0	
2	0	0	0	0	1021	446	0	0	0	0	
3	0	0	0	0	1021	539	0	0	0	0	
4	0	0	0	0	1021	597	0	0	0	0	
5	0	0	0	0	1021	606	0	0	0	0	
6	0	0	0	0	1021	564	0	0	0	0	
7	0	0	0	0	1021	472	0	0	0	0	
8	0	0	0	0	1021	339	0	0	0	0	
9	0	0	0	0	1021	180	0	0	0	0	
10	0	0	0	0	1021	10	0	0	0	0	
11	0	0	0	0	1021	0	0	0	0	0	
12	0	0	0	0	1021	0	0	0	0	0	
13	0	0	0	0	1021	0	0	0	0	0	
14	0	0	0	0	1021	0	0	0	0	0	
15	0	0	0	0	1021	0	0	0	0	0	
0	0	0	0	0	1021	0	0	0	0	0	
1	0	0	0	0	1021	0	0	0	0	0	
2	0	0	0	0	1021	15	0	0	0	0	
3	0	0	0	0	1021	94	0	0	0	0	
4	0	0	0	0	1021	203	0	0	0	0	
5	0	0	0	0	1021	327	0	0	0	0	
6	0	0	0	0	1021	451	0	0	0	0	
7	0	0	0	0	1021	554	0	0	0	0	
8	0	0	0	0	1021	622	0	0	0	0	
9	0	0	0	0	1021	643	0	0	0	0	
10	0	0	0	0	1021	613	0	0	0	0	
11	0	0	0	0	1021	532	0	0	0	0	
12	0	0	0	0	1021	409	0	1	0	0	
13	0	0	0	0	1021	259	0	0	0	0	
14	0	0	0	0	1021	97	0	0	0	0	
15	0	0	0	0	1021	0	0	0	0	0	
0	0	0	0	0	1021	0	0	0	0	0	
1	0	0	0	0	1021	0	0	0	0	0	
2	0	0	0	0	1021	0	0	0	0	0	
3	0	0	0	0	1021	0	0	0	0	0	
4	0	0	0	0	1021	0	0	0	0	0	
5	0	0	0	0	1021	0	0	0	0	0	
6	0	0	0	0	1021	65	0	0	0	0	
7	0	0	0	0	1021	167	0	0	0	0	
8	0	0	0	0	1021	295	0	0	0	0	
9	0	0	0	0	1021	432	0	0	0	0	
10	0	0	0	0	1021	559	0	0	0	0	
11	0	0	0	0	1022	660	0	0	0	0	
12	0	0	0	0	1021	719	0	0	0	0	
13	0	0	0	0	1021	727	0	0	0	0	
14	0	0	0	0	1021	681	0	0	0	0	
15	0	0	0	0	1021	583	0	0	0	0	
0	0	0	0	0	1022	445	0	0	0	0	
1	0	0	0	0	1021	277	0	0	0	0	
2	0	0	0	0	1021	101	0	0	0	0	
3	0	0	0	0	1021	0	0	0	0	0	
4	0	0	0	0	1021	0	0	0	0	0	
5	0	0	0	0	1021	0	0	0	0	0	
6	0	0	0	0	1021	0	0	0	0	0	
7	0	0	0	0	1021	0	0	0	0	0	
8	0	0	0	0	1021	0	0	0	0	0	
9	0	0	0	0	1021	0	0	0	0	0	
10	0	0	0	0	1021	51	0	0	0	0	
11	0	0	0	0	1021	148	0	0	0	0	
12	0	0	0	0	1021	270	0	0	0	0	
13	0	0	0	0	1021	402	0	0	0	0	
14	0	0	0	0	1021	525	0	0	0	0	
15	0	0	0	0	1022	620	0	0	0	0	
0	0	0	0	0	1022	667	0	0	0	0	
1	0	0	0	0	1021	650	0	0	0	0	
2	0	0	0	0	1021	564	0	0	0	0	
3	0	0	0	0	1021	412	0	0	0	0	
4	0	0	0	0	1021	205	0	0	0	0	
5	0	0	0	0	1021	0	0	0	0	0	
6	0	0	0	0	1021	0	0	0	0	0	
7	0	0	0	0	1021	0	0	0	0	0	
8	0	0	0	0	1021	0	0	0	0	0	
9	0	0	0	0	1021	0	0	0	0	0	
10	0	0	0	0	1021	0	0	0	0	0	
11	0	0	0	0	1021	0	0	0	0	0	
12	0	0	0	0	1021	0	0	0	0	0	
13	0	0	0	0	1021	0	0	0	0	0	
14	0	0	0	0	1021	0	0	0	0	0	
15	0	0	0	0	1021	0	0	0	0	0	
0	0	0	0	0	1021	0	0	0	0	0	
1	0	0	0	0	1021	0	0	0	0	0	
2	0	0	0	0	1021	0	0	0	0	0	
3	0	0	0	0	1022	27	0	0	0	0	
4	0	0	0	0	1021	64	0	0	0	0	
5	0	0	0	0	1021	94	0	0	0	0	
6	0	0	0	0	1021	106	0	0	0	0	
7	0	0	0	0	1021	95	0	0	0	0	
8	0	0	0	0	1022	60	0	0	0	0	
9	0	0	0	0	1021	3	0	0	0	0	
10	0	0	0	0	1021	0	0	0	0	0	
11	0	0	0	0	1021	0	0	0	0	0	
12	0	0	0	0	1021	0	0	0	0	0	
13	0	0	0	0	1021	0	0	0	0	0	
14	0	0	0	0	1021	0	0	0	0	0	
15	0	0	0	0	1021	0	0	0	0	0	
0	0	0	0	0	1021	0	0	0	0	0	
1	0	0	0	0	1021	28	0	0	0	0	
2	0	0	0	0	1021	104	0	0	0	0	
3	0	0	0	0	1021	210	0	0	0	0	
4	0	0	0	0	1021	334	0	0	0	0	
5	0	0	0	0	1021	463	0	0	0	0	
6	0	0	0	0	1021	579	0	0	0	0	
7	0	0	0	0	1021	666	0	0	0	0	
8	0	0	0	0	1021	711	0	0	0	0	
9	0	0	0	0	1021	707	0	0	0	0	
10	0	0	0	0	1022	651	0	0	0	0	
11	0	0	0	0	1021	546	0	0	0	0	
12	0	0	0	0	1021	401	0	0	0	0	
13	0	0	0	0	1021	232	0	0	0	0	
14	0	0	0	0	1021	56	0	0	0	0	
15	0	0	0	0	1021	0	0	0	0	0	
0	0	0	0	0	1021	0	0	0	0	0	
1	0	0	0	0	1021	0	0	0	0	0	
2	0	0	0	0	1021	0	0	0	0	0	
3	0	0	0	0	1021	0	0	0	0	0	
4	0	0	0	0	1021	0	0	0	0	0	
5	0	0	0	0	1021	0	0	0	0	0	
6	0	0	0	0	1021	64	0	0	0	0	
7	0	0	0	0	1021	170	0	0	0	0	
8	0	0	0	0	1021	301	0	0	0	0	
9	0	0	0	0	1021	442	0	0	0	0	
10	0	0	0	0	1021	573	0	0	0	0	
11	0	0	0	0	1022	676	0	0	0	0	
12	0	0	0	0	1021	736	0	0	0	0	
13	0	0	0	0	1021	743	0	0	0	0	
14	0	0	0	0	1021	694	0	0	0	0	
15	0	0	0	0	1021	590	0	0	0	0	
0	0	0	0	0	1021	441	0	0	0	0	
1	0	0	0	0	1021	262	0	0	0	0	
2	0	0	0	0	1021	72	0	0	0	0	
3	0	0	0	0	1021	0	0	0	0	0	
4	0	0	0	0	1021	0	0	0	0	0	
5	0	0	0	0	1021	0	0	0	0	0	
6	0	0	0	0	1021	0	0	0	0	0	
7	0	0	0	0	1021	0	0	0	0	0	
8	0	0	0	0	1021	0	0	0	0	0	
9	0	0	0	0	1021	0	0	0	0	0	
10	0	0	0	0	1021	4	0	0	0	0	
11	0	0	0	0	1021	75	0	0	0	0	
12	0	0	0	0	1021	178	0	0	0	0	
13	0	0	0	0	1021	300	0	0	0	0	
14	0	0	0	0	1021	425	0	0	0	0	
15	0	0	0	0	1021	536	0	0	0	0	
0	0	0	0	0	1021	616	0	0	0	0	
1	0	0	0	0	1021	651	0	0	0	0	
2	0	0	0	0	1021	635	0	0	0	0	
3	0	0	0	0	1021	568	0	0	0	0	
4	0	0	0	0	1021	453	0	1	0	0	
5	0	0	0	0	1021	305	0	0	0	0	
6	0	0	0	0	1021	139	0	0	0	0	
7	0	0	0	0	1021	0	0	0	0	0	
8	0	0	0	0	1021	0	0	0	0	0	
9	0	0	0	0	1021	0	0	0	0	0	
10	0	0	0	0	1021	0	0	0	0	0	
11	0	0	0	0	1021	0	0	0	0	0	
12	0	0	0	0	1021	0	0	0	0	0	
13	0	0	0	0	1021	0	0	0	0	0	
14	0	0	0	0	1021	0	0	0	0	0	
15	0	0	0	0	1021	54	0	0	0	0	
0	0	0	0	0	1021	143	0	0	0	0	
1	0	0	0	0	1021	248	0	0	0	0	
2	0	0	0	0	1021	355	0	0	0	0	
3	0	0	0	0	1022	449	0	0	0	0	
4	0	0	0	0	1021	515	0	0	0	0	
5	0	0	0	0	1021	540	0	0	0	0	
6	0	0	0	0	1021	518	0	0	0	0	
7	0	0	0	0	1021	447	0	0	0	0	
8	0	0	0	0	1022	335	0	0	0	0	
9	0	0	0	0	1021	194	0	0	0	0	
10	0	0	0	0	1021	37	0	0	0	0	
11	0	0	0	0	1021	0	0	0	0	0	
12	0	0	0	0	1021	0	0	0	0	0	
13	0	0	0	0	1021	0	0	0	0	0	
14	0	0	0	0	1021	0	0	0	0	0	
15	0	0	0	0	1021	0	0	0	0	0	
0	0	0	0	0	1021	0	0	0	0	0	
1	0	0	0	0	1021	0	0	0	0	0	
2	0	0	0	0	1021	0	0	0	0	0	
3	0	0	0	0	1021	58	0	0	0	0	
4	0	0	0	0	1021	153	0	0	0	0	
5	0	0	0	0	1021	267	0	0	0	0	
6	0	0	0	0	1021	384	0	0	0	0	
7	0	0	0	0	1021	489	0	0	0	0	
8	0	0	0	0	1021	568	0	0	0	0	
9	0	0	0	0	1021	604	0	0	0	0	
10	0	0	0	0	1021	592	0	0	0	0	
11	0	0	0	0	1021	532	0	0	0	0	
12	0	0	0	0	1022	430	0	0	0	0	
13	0	0	0	0	1021	295	0	0	0	0	
14	0	0	0	0	1021	147	0	0	0	0	
15	0	0	0	0	1021	0	0	0	0	0	
0	0	0	0	0	1021	0	0	0	0	0	
1	0	0	0	0	1021	0	0	0	0	0	
2	0	0	0	0	1021	0	0	0	0	0	
3	0	0	0	0	1021	0	0	0	0	0	
4	0	0	0	0	1021	0	0	0	0	0	
5	0	0	0	0	1021	7	0	0	0	0	
6	0	0	0	0	1021	79	0	0	0	0	
7	0	0	0	0	1021	188	0	0	0	0	
8	0	0	0	0	1021	322	0	0	0	0	
9	0	0	0	0	1021	465	0	0	0	0	
10	0	0	0	0	1021	599	0	0	0	0	
11	0	0	0	0	1022	706	0	0	0	0	
12	0	0	0	0	1021	769	0	0	0	0	
13	0	0	0	0	1021	780	0	0	0	0	
14	0	0	0	0	1021	735	0	0	0	0	
15	0	0	0	0	1021	634	0	0	0	0	
0	0	0	0	0	1021	487	0	0	0	0	
1	0	0	0	0	1021	305	0	0	0	0	
2	0	0	0	0	1021	112	0	0	0	0	
3	0	0	0	0	1021	0	0	0	0	0	
4	0	0	0	0	1021	0	0	0	0	0	
5	0	0	0	0	1021	0	0	0	0	0	
6	0	0	0	0	1021	0	0	0	0	0	
7	0	0	0	0	1021	0	0	0	0	0	
8	0	0	0	0	1021	0	0	0	0	0	
9	0	0	0	0	1021	0	0	0	0	0	
10	0	0	0	0	1021	0	0	0	0	0	
11	0	0	0	0	1021	13	0	0	0	0	
12	0	0	0	0	1021	75	0	0	0	0	
13	0	0	0	0	1021	155	0	0	0	0	
14	0	0	0	0	1021	239	0	0	0	0	
15	0	0	0	0	1021	312	0	0	0	0	
0	0	0	0	0	1021	360	0	0	0	0	
1	0	0	0	0	1021	373	0	0	0	0	
2	0	0	0	0	1021	345	0	0	0	0	
3	0	0	0	0	1021	276	0	0	0	0	
4	0	0	0	0	1021	172	0	0	0	0	
5	0	0	0	0	1021	43	0	0	0	0	
6	0	0	0	0	1021	0	0	0	0	0	
7	0	0	0	0	1021	0	0	0	0	0	
8	0	0	0	0	1021	0	0	0	0	0	
9	0	0	0	0	1021	0	0	0	0	0	
10	0	0	0	0	1021	0	0	0	0	0	
11	0	0	0	0	1021	0	0	0	0	0	
12	0	0	0	0	1021	0	0	0	0	0	
13	0	0	0	0	1021	0	0	0	0	0	
14	0	0	0	0	1021	0	0	0	0	0	
15	0	0	0	0	1021	41	0	0	0	0	
0	0	0	0	0	1021	121	0	0	0	0	
1	0	0	0	0	1021	218	0	0	0	0	
2	0	0	0	0	1021	316	0	0	0	0	
3	0	0	0	0	965	397	0	0	0	0	
4	0	0	0	0	939	449	0	0	0	0	
5	0	0	0	0	987	459	0	0	0	0	
6	0	0	0	0	1021	420	0	0	0	0	
7	0	0	0	0	1021	333	0	0	0	0	
8	0	0	0	0	1022	207	0	0	0	0	
9	0	0	0	0	1021	53	0	0	0	0	
10	0	0	0	0	1021	0	0	0	0	0	
11	0	0	0	0	1021	0	0	0	0	0	
12	0	0	0	0	1021	0	0	0	0	0	
13	0	0	0	0	1021	0	0	0	0	0	
14	0	0	0	0	1021	0	0	0	0	0	
15	0	0	0	0	1021	0	0	0	0	0	
0	0	0	0	0	1021	0	0	0	0	0	
1	0	0	0	0	1021	0	0	0	0	0	
2	0	0	0	0	1021	0	0	0	0	0	
3	0	0	0	0	1021	0	0	0	0	0	
4	0	0	0	0	1021	0	0	0	0	0	
5	0	0	0	0	999	36	0	0	0	0	
6	0	0	0	0	846	90	0	0	0	0	
7	0	0	0	0	690	143	0	0	0	0	
8	0	0	0	0	588	182	0	0	0	0	
9	0	0	0	0	587	199	0	0	0	0	
10	0	0	0	0	723	184	0	0	0	0	
11	0	0	0	0	1005	136	0	0	0	0	
12	0	0	0	0	1021	58	0	0	0	0	
13	0	0	0	0	1021	0	0	0	0	0	
14	0	0	0	0	1021	0	0	0	0	0	
15	0	0	0	0	1021	0	0	0	0	0	
0	0	0	0	0	1021	0	0	0	0	0	
1	0	0	0	0	1021	0	0	0	0	0	
2	0	0	0	0	1021	0	0	0	0	0	
3	0	0	0	0	1021	0	0	0	0	0	
4	0	0	0	0	1021	0	0	0	0	0	
5	0	0	0	0	1021	0	0	0	0	0	
6	0	0	0	0	1021	0	0	0	0	0	
7	0	0	0	0	1021	0	0	0	0	0	
8	0	0	0	0	1021	0	0	0	0	0	
9	0	0	0	0	1015	34	0	0	0	0	
10	0	0	0	0	873	76	0	0	0	0	
11	0	0	0	0	723	114	0	0	0	0	
12	0	0	0	0	622	135	0	0	0	0	
13	0	0	0	0	617	131	0	0	0	0	
14	0	0	0	0	745	95	0	0	0	0	
15	0	0	0	0	1015	29	0	0	0	0	
0	0	0	0	0	1021	0	0	0	0	0	
1	0	0	0	0	1021	0	0	0	0	0	
2	0	0	0	0	1021	0	0	0	0	0	
3	0	0	0	0	1021	0	0	0	0	0	
4	0	0	0	0	1021	0	0	0	0	0	
5	0	0	0	0	1021	0	0	0	0	0	
6	0	0	0	0	1021	0	0	0	0	0	
7	0	0	0	0	1021	0	0	0	0	0	
8	0	0	0	0	1021	0	0	0	0	0	
9	0	0	0	0	1021	0	0	0	0	0	
10	0	0	0	0	1021	0	0	0	0	0	
11	0	0	0	0	1021	0	0	0	0	0	
12	0	0	0	0	1021	0	0	0	0	0	
13	0	0	0	0	1021	34	0	0	0	0	
14	0	0	0	0	883	89	0	0	0	0	
15	0	0	0	0	739	144	0	0	0	0	
0	0	0	0	0	639	186	0	0	0	0	
1	0	0	0	0	635	204	0	0	0	0	
2	0	0	0	0	761	192	0	0	0	0	
3	0	0	0	0	1021	146	0	0	0	0	
4	0	0	0	0	1021	71	0	0	0	0	
5	0	0	0	0	1021	0	0	0	0	0	
6	0	0	0	0	1021	0	0	0	0	0	
7	0	0	0	0	1021	0	0	0	0	0	
8	0	0	0	0	1021	0	0	0	0	0	
9	0	0	0	0	1021	0	0	0	0	0	
10	0	0	0	0	1021	0	0	0	0	0	
11	0	0	0	0	1021	0	0	0	0	0	
12	0	0	0	0	1021	0	0	0	0	0	
13	0	0	0	0	1021	0	0	0	0	0	
14	0	0	0	0	1021	0	0	0	0	0	
15	0	0	0	0	1021	0	0	0	0	0	
0	0	0	0	0	1021	39	0	0	0	0	
1	0	0	0	0	853	96	0	0	0	0	
2	0	0	0	0	601	158	0	0	0	0	
3	0	0	0	0	349	208	0	0	0	0	
4	0	0	0	0	163	236	0	0	0	0	
5	0	0	0	0	95	233	0	0	0	0	
6	0	0	0	0	178	193	0	0	0	0	
7	0	0	0	0	431	116	0	0	0	0	
8	0	0	0	0	843	8	0	0	0	0	
9	0	0	0	0	1021	0	0	0	0	0	
10	0	0	0	0	1021	0	0	0	0	0	
11	0	0	0	0	1021	0	0	0	0	0	
12	0	0	0	0	1021	0	0	0	0	0	
13	0	0	0	0	1021	0	0	0	0	0	
14	0	0	0	0	1021	0	0	0	0	0	
15	0	0	0	0	1021	0	0	0	0	0	
0	0	0	0	0	1021	0	0	0	0	0	
1	0	0	0	0	1021	0	0	0	0	0	
2	0	0	0	0	1021	0	0	0	0	0	
3	0	0	0	0	1021	0	0	0	0	0	
4	0	0	0	0	917	0	0	0	0	0	
5	0	0	0	0	636	25	0	0	0	0	
6	0	0	0	0	297	72	0	0	0	0	
7	0	0	0	0	0	118	0	0	0	0	
8	0	0	0	0	0	149	0	0	0	0	
9	0	0	0	0	0	155	0	0	0	0	
10	0	0	0	0	0	130	0	0	0	0	
11	0	0	0	0	156	71	0	0	0	0	
12	0	0	0	0	513	0	0	1	0	0	
13	0	0	0	0	1008	0	0	0	0	0	
14	0	0	0	0	1021	0	0	0	0	0	
15	0	0	0	0	1021	0	0	0	0	0	
0	0	0	0	0	1021	0	0	0	0	0	
1	0	0	0	0	1021	0	0	0	0	0	
2	0	0	0	0	1021	0	0	0	0	0	
3	0	0	0	0	1021	0	0	0	0	0	
4	0	0	0	0	1021	0	0	0	0	0	
5	0	0	0	0	1021	0	0	0	0	0	
6	0	0	0	0	1021	0	0	0	0	0	
7	0	0	0	0	949	0	0	0	0	0	
8	0	0	0	0	649	0	0	0	0	0	
9	0	0	0	0	250	7	0	0	0	0	
10	0	0	0	0	0	43	0	0	0	0	
11	0	0	0	0	0	77	0	0	0	0	
12	0	0	0	0	0	100	0	0	0	0	
13	0	0	0	0	0	100	0	0	0	0	
14	0	0	0	0	0	71	0	0	0	0	
15	0	0	0	0	35	12	0	0	0	0	
0	0	0	0	0	326	0	0	0	0	0	
1	0	0	0	0	773	0	0	0	0	0	
2	0	0	0	0	1020	0	0	0	0	0	
3	0	0	0	0	1021	0	0	0	0	0	
4	0	0	0	0	1021	0	0	0	0	0	
5	0	0	0	0	1021	0	0	0	0	0	
6	0	0	0	0	1021	0	0	0	0	0	
7	0	0	0	0	1021	0	0	0	0	0	
8	0	0	0	0	1021	0	0	0	0	0	
9	0	0	0	0	1021	0	0	0	0	0	
10	0	0	0	0	1021	0	0	0	0	0	
11	0	0	0	0	918	0	0	0	0	0	
12	0	0	0	0	598	0	0	0	0	0	
13	0	0	0	0	181	6	0	0	0	0	
14	0	0	0	0	0	43	0	0	0	0	
15	0	0	0	0	0	79	0	0	0	0	
0	0	0	0	0	0	105	0	0	0	0	
1	0	0	0	0	0	111	0	0	0	0	
2	0	0	0	0	0	89	0	0	0	0	
3	0	0	0	0	0	36	0	0	0	0	
4	0	0	0	0	255	0	0	1	0	0	
5	0	0	0	0	667	0	0	0	0	0	
6	0	0	0	0	1020	0	0	0	0	0	
7	0	0	0	0	1021	0	0	0	0	0	
8	0	0	0	0	1021	0	0	0	0	0	
9	0	0	0	0	1021	0	0	0	0	0	
10	0	0	0	0	1021	0	0	0	0	0	
11	0	0	0	0	1021	0	0	0	0	0	
12	0	0	0	0	1021	0	0	0	0	0	
13	0	0	0	0	1021	0	0	0	0	0	
14	0	0	0	0	783	0	0	0	0	0	
15	0	0	0	0	303	0	0	0	0	0	
0	0	0	0	0	0	0	0	0	0	0	
1	0	0	0	0	0	0	0	0	0	0	
2	0	0	0	0	0	16	0	0	0	0	
3	0	0	0	0	0	35	0	0	0	0	
4	0	0	0	0	0	41	0	0	0	0	
5	0	0	0	0	0	27	0	0	0	0	
6	0	0	0	0	0	0	0	0	0	0	
7	0	0	0	0	0	0	0	0	0	0	
8	0	0	0	0	0	0	0	0	0	0	
9	0	0	0	0	0	0	0	0	0	0	
10	0	0	0	0	0	0	0	0	0	0	
11	0	0	0	0	0	0	0	0	0	0	
12	0	0	0	0	0	0	0	0	0	0	
13	0	0	0	0	0	0	0	0	0	0	
14	0	0	0	0	0	0	0	0	0	0	
15	0	0	0	0	0	0	0	0	0	0	
0	0	0	0	0	0	0	0	0	0	0	
1	0	0	0	0	0	0	0	0	0	0	
2	0	0	0	0	0	0	0	0	0	0	
3	0	0	0	0	0	0	0	0	0	0	
4	0	0	0	0	0	0	0	0	0	0	
5	0	0	0	0	0	0	0	0	0	0	
6	0	0	0	0	0	0	0	0	0	0	
7	0	0	0	0	0	0	0	0	0	0	
8	0	0	0	0	0	0	0	0	0	0	
9	0	0	0	0	0	0	0	0	0	0	
10	0	0	0	0	0	0	0	0	0	0	
11	0	0	0	0	0	0	0	0	0	0	
12	0	0	0	0	0	0	0	0	0	0	
13	0	0	0	0	0	0	0	0	0	0	
14	0	0	0	0	0	0	0	0	0	0	
15	0	0	0	0	0	0	0	0	0	0	
0	0	0	0	0	0	0	0	0	0	0	
1	0	0	0	0	0	0	0	0	0	0	
2	0	0	0	0	0	0	0	0	0	0	
3	0	0	0	0	0	0	0	0	0	0	
4	0	0	0	0	0	0	0	0	0	0	
5	0	0	0	0	0	0	0	0	0	0	
6	0	0	0	0	0	0	0	0	0	0	
7	0	0	0	0	0	0	0	0	0	0	
8	0	0	0	0	0	0	0	0	0	0	
9	0	0	0	0	0	0	0	0	0	0	
10	0	0	0	0	0	0	0	0	0	0	
11	0	0	0	0	0	0	0	0	0	0	
12	0	0	0	0	0	0	0	0	0	0	
13	0	0	0	0	0	0	0	0	0	0	
14	0	0	0	0	0	0	0	0	0	0	
15	0	0	0	0	0	0	0	0	0	0	
0	0	0	0	0	0	0	0	0	0	0	
1	0	0	0	0	0	0	0	0	0	0	
2	0	0	0	0	0	0	0	0	0	0	
3	0	0	0	0	0	0	0	0	0	0	
4	0	0	0	0	0	0	0	0	0	0	
5	0	0	0	0	0	0	0	0	0	0	
6	0	0	0	0	0	0	0	0	0	0	
7	0	0	0	0	0	0	0	0	0	0	
8	0	0	0	0	0	0	0	0	0	0	
9	0	0	0	0	0	0	0	0	0	0	
10	0	0	0	0	0	0	0	0	0	0	
11	0	0	0	0	0	0	0	0	0	0	
12	0	0	0	0	0	0	0	0	0	0	
13	0	0	0	0	0	0	0	0	0	0	
14	0	0	0	0	0	0	0	0	0	0	
15	0	0	0	0	0	0	0	0	0	0	
0	0	0	0	0	0	0	0	0	0	0	
1	0	0	0	0	0	0	0	0	0	0	
2	0	0	0	0	0	0	0	0	0	0	
3	0	0	0	0	0	0	0	0	0	0	
4	0	0	0	0	0	0	0	1	0	0	
5	0	0	0	0	0	0	0	0	0	0	
6	0	0	0	0	0	0	0	0	0	0	
7	0	0	0	0	0	0	0	0	0	0	
8	0	0	0	0	0	0	0	0	0	0	
9	0	0	0	0	0	0	0	0	0	0	
10	0	0	0	0	0	0	0	0	0	0	
11	0	0	0	0	0	0	0	0	0	0	
12	0	0	0	0	0	0	0	0	0	0	
13	0	0	0	0	0	0	0	0	0	0	
14	0	0	0	0	0	0	0	0	0	0	
15	0	0	0	0	0	0	0	0	0	0	
0	0	0	0	0	0	0	0	0	0	0	
1	0	0	0	0	0	0	0	0	0	0	
2	0	0	0	0	0	0	0	0	0	0	
3	0	0	0	0	0	0	0	0	0	0	
4	0	0	0	0	0	0	0	0	0	0	
5	0	0	0	0	0	0	0	0	0	0	
6	0	0	0	0	0	0	0	0	0	0	
7	0	0	0	0	0	0	0	0	0	0	
8	0	0	0	0	0	0	0	0	0	0	
9	0	0	0	0	0	0	0	0	0	0	
10	0	0	0	0	0	0	0	0	0	0	
11	0	0	0	0	0	0	0	0	0	0	
12	0	0	0	0	0	0	0	0	0	0	
13	0	0	0	0	0	0	0	0	0	0	
14	0	0	0	0	0	0	0	0	0	0	
15	0	0	0	0	0	0	0	0	0	0	
0	0	0	0	0	0	0	0	0	0	0	
1	0	0	0	0	0	0	0	0	0	0	
2	0	0	0	0	0	0	0	0	0	0	
3	0	0	0	0	0	0	0	0	0	0	
4	0	0	0	0	0	0	0	0	0	0	
5	0	0	0	0	0	0	0	0	0	0	
6	0	0	0	0	0	0	0	0	0	0	
7	0	0	0	0	0	0	0	0	0	0	
8	0	0	0	0	0	0	0	0	0	0	
9	0	0	0	0	0	0	0	0	0	0	
10	0	0	0	0	0	0	0	0	0	0	
11	0	0	0	0	0	0	0	0	0	0	
12	0	0	0	0	0	0	0	0	0	0	
13	0	0	0	0	0	0	0	0	0	0	
14	0	0	0	0	0	0	0	0	0	0	
15	0	0	0	0	0	0	0	0	0	0	
0	0	0	0	0	0	0	0	0	0	0	
1	0	0	0	0	0	0	0	0	0	0	
2	0	0	0	0	0	0	0	0	0	0	
3	0	0	0	0	0	0	0	0	0	0	
4	0	0	0	0	0	0	0	0	0	0	
5	0	0	0	0	0	0	0	0	0	0	
6	0	0	0	0	0	0	0	0	0	0	
7	0	0	0	0	0	0	0	0	0	0	
8	0	0	0	0	0	0	0	0	0	0	
9	0	0	0	0	0	0	0	0	0	0	
10	0	0	0	0	0	0	0	0	0	0	
11	0	0	0	0	0	0	0	0	0	0	
12	0	0	0	0	0	0	0	0	0	0	
13	0	0	0	0	0	0	0	0	0	0	
14	0	0	0	0	0	0	0	0	0	0	
15	0	0	0	0	0	0	0	0	0	0	
0	0	0	0	0	0	0	0	0	0	0	
1	0	0	0	0	0	0	0	0	0	0	
2	0	0	0	0	0	0	0	0	0	0	
3	0	0	0	0	0	0	0	0	0	0	
4	0	0	0	0	0	0	0	0	0	0	
5	0	0	0	0	0	0	0	0	0	0	
6	0	0	0	0	0	0	0	0	0	0	
7	0	0	0	0	0	0	0	0	0	0	
8	0	0	0	0	0	0	0	0	0	0	
9	0	0	0	0	0	0	0	0	0	0	
10	0	0	0	0	0	0	0	0	0	0	
11	0	0	0	0	0	0	0	0	0	0	
12	0	0	0	0	0	0	0	0	0	0	
13	0	0	0	0	0	0	0	0	0	0	
14	0	0	0	0	0	0	0	0	0	0	
15	0	0	0	0	0	0	0	0	0	0	
0	0	0	0	0	0	0	0	0	0	0	
1	0	0	0	0	0	0	0	0	0	0	
2	0	0	0	0	0	0	0	0	0	0	
3	0	0	0	0	0	0	0	0	0	0	
4	0	0	0	0	0	0	0	1	0	0	
5	0	0	0	0	0	0	0	0	0	0	
6	0	0	0	0	0	0	0	0	0	0	
7	0	0	0	0	0	0	0	0	0	0	
8	0	0	0	0	0	0	0	0	0	0	
9	0	0	0	0	0	0	0	0	0	0	
10	0	0	0	0	0	0	0	0	0	0	
11	0	0	0	0	0	0	0	0	0	0	
12	0	0	0	0	0	0	0	0	0	0	
13	0	0	0	0	0	0	0	0	0	0	
14	0	0	0	0	0	0	0	0	0	0	
15	0	0	0	0	0	0	0	0	0	0	
0	0	0	0	0	0	0	0	0	0	0	
1	0	0	0	0	0	0	0	0	0	0	
2	0	0	0	0	0	0	0	0	0	0	
3	0	0	0	0	0	0	0	0	0	0	
4	0	0	0	0	0	0	0	0	0	0	
5	0	0	0	0	0	0	0	0	0	0	
6	0	0	0	0	0	0	0	0	0	0	
7	0	0	0	0	0	0	0	0	0	0	
8	0	0	0	0	0	0	0	1	0	0	
9	0	0	0	0	0	0	0	0	0	0	
10	0	0	0	0	0	0	0	0	0	0	
11	0	0	0	0	0	0	0	0	0	0	
12	0	0	0	0	0	0	0	0	0	0	
13	0	0	0	0	0	0	0	0	0	0	
14	0	0	0	0	0	0	0	0	0	0	
15	0	0	0	0	0	0	0	0	0	0	
0	0	0	0	0	0	0	0	0	0	0	
1	0	0	0	0	0	0	0	0	0	0	
2	0	0	0	0	0	0	0	0	0	0	
3	0	0	0	0	0	0	0	0	0	0	
4	0	0	0	0	0	0	0	0	0	0	
5	0	0	0	0	0	0	0	0	0	0	
6	0	0	0	0	0	0	0	0	0	0	
7	0	0	0	0	0	0	0	0	0	0	
8	0	0	0	0	0	0	0	0	0	0	
9	0	0	0	0	0	0	0	0	0	0	
10	0	0	0	0	0	0	0	0	0	0	
11	0	0	0	0	0	0	0	0	0	0	
12	0	0	0	0	0	0	0	0	0	0	
13	0	0	0	0	0	0	0	0	0	0	
14	0	0	0	0	0	0	0	0	0	0	
15	0	0	0	0	0	0	0	0	0	0	
0	0	0	0	0	0	0	0	0	0	0	
1	0	0	0	0	0	0	0	0	0	0	
2	0	0	0	0	0	0	0	0	0	0	
3	0	0	0	0	0	0	0	0	0	0	
4	0	0	0	0	0	0	0	0	0	0	
5	0	0	0	0	0	0	0	0	0	0	
6	0	0	0	0	0	0	0	0	0	0	
7	0	0	0	0	0	0	0	0	0	0	
8	0	0	0	0	0	0	0	0	0	0	
9	0	0	0	0	0	0	0	0	0	0	
10	0	0	0	0	0	0	0	0	0	0	
11	0	0	0	0	0	0	0	0	0	0	
12	0	0	0	0	0	0	0	0	0	0	
13	0	0	0	0	0	0	0	0	0	0	
14	0	0	0	0	0	0	0	0	0	0	
15	0	0	0	0	0	0	0	0	0	0	
0	0	0	0	0	0	0	0	0	0	0	
1	0	0	0	0	0	0	0	0	0	0	
2	0	0	0	0	0	0	0	0	0	0	
3	0	0	0	0	0	0	0	0	0	0	
4	0	0	0	0	0	0	0	0	0	0	
5	0	0	0	0	0	0	0	0	0	0	
6	0	0	0	0	0	0	0	0	0	0	
7	0	0	0	0	0	0	0	0	0	0	
8	0	0	0	0	0	0	0	0	0	0	
9	0	0	0	0	0	0	0	0	0	0	
10	0	0	0	0	0	0	0	0	0	0	
11	0	0	0	0	0	0	0	0	0	0	
12	0	0	0	0	0	0	0	0	0	0	
13	0	0	0	0	0	0	0	0	0	0	
14	0	0	0	0	0	0	0	0	0	0	
15	0	0	0	0	0	0	0	0	0	0	
0	0	0	0	0	0	0	0	0	0	0	
1	0	0	0	0	0	0	0	0	0	0	
2	0	0	0	0	0	0	0	0	0	0	
3	0	0	0	0	0	0	0	0	0	0	
4	0	0	0	0	0	0	0	0	0	0	
5	0	0	0	0	0	0	0	0	0	0	
6	0	0	0	0	0	0	0	0	0	0	
7	0	0	0	0	0	0	0	0	0	0	
8	0	0	0	0	0	0	0	0	0	0	
9	0	0	0	0	0	0	0	0	0	0	
10	0	0	0	0	0	0	0	0	0	0	
11	0	0	0	0	0	0	0	0	0	0	
12	0	0	0	0	0	0	0	0	0	0	
13	0	0	0	0	0	0	0	0	0	0	
14	0	0	0	0	0	0	0	0	0	0	
15	0	0	0	0	0	0	0	0	0	0	
0	0	0	0	0	0	0	0	0	0	0	
1	0	0	0	0	0	0	0	0	0	0	
2	0	0	0	0	0	0	0	0	0	0	
3	0	0	0	0	0	0	0	0	0	0	
4	0	0	0	0	0	0	0	0	0	0	
5	0	0	0	0	0	0	0	0	0	0	
6	0	0	0	0	0	0	0	0	0	0	
7	0	0	0	0	0	0	0	0	0	0	
8	0	0	0	0	0	0	0	0	0	0	
9	0	0	0	0	0	0	0	0	0	0	
10	0	0	0	0	0	0	0	0	0	0	
11	0	0	0	0	0	0	0	0	0	0	
12	0	0	0	0	0	0	0	0	0	0	
13	0	0	0	0	0	0	0	0	0	0	
14	0	0	0	0	0	0	0	0	0	0	
15	0	0	0	0	0	0	0	0	0	0	
0	0	0	0	0	0	0	0	0	0	0	
1	0	0	0	0	0	0	0	0	0	0	
2	0	0	0	0	0	0	0	0	0	0	
3	0	0	0	0	0	0	0	0	0	0	
4	0	0	0	0	0	0	0	0	0	0	
5	0	0	0	0	0	0	0	0	0	0	
6	0	0	0	0	0	0	0	0	0	0	
7	0	0	0	0	0	0	0	0	0	0	
8	0	0	0	0	0	0	0	0	0	0	
9	0	0	0	0	0	0	0	0	0	0	
10	0	0	0	0	0	0	0	0	0	0	
11	0	0	0	0	0	0	0	0	0	0	
12	0	0	0	0	0	0	0	1	0	0	
13	0	0	0	0	0	0	0	0	0	0	
14	0	0	0	0	0	0	0	0	0	0	
15	0	0	0	0	0	0	0	0	0	0	
0	0	0	0	0	0	0	0	0	0	0	
1	0	0	0	0	0	0	0	0	0	0	
2	0	0	0	0	0	0	0	0	0	0	
3	0	0	0	0	0	0	0	0	0	0	
4	0	0	0	0	0	0	0	0	0	0	
5	0	0	0	0	0	0	0	0	0	0	
6	0	0	0	0	0	0	0	0	0	0	
7	0	0	0	0	0	0	0	0	0	0	
8	0	0	0	0	0	0	0	0	0	0	
9	0	0	0	0	0	0	0	0	0	0	
10	0	0	0	0	0	0	0	0	0	0	
11	0	0	0	0	0	0	0	0	0	0	
12	0	0	0	0	0	0	0	0	0	0	
13	0	0	0	0	0	0	0	0	0	0	
14	0	0	0	0	0	0	0	0	0	0	
15	0	0	0	0	0	0	0	0	0	0	
0	0	0	0	0	0	0	0	1	0	0	
1	0	0	0	0	0	0	0	0	0	0	
2	0	0	0	0	0	0	0	0	0	0	
3	0	0	0	0	0	0	0	0	0	0	
4	0	0	0	0	95	0	0	0	0	0	
5	0	0	0	0	238	0	0	0	0	0	
6	0	0	0	0	347	0	0	0	0	0	
7	0	0	0	0	377	0	0	0	0	0	
8	0	0	0	0	288	0	0	0	0	0	
9	0	0	0	0	66	0	0	0	0	0	
10	0	0	0	0	0	0	0	0	0	0	
11	0	0	0	0	0	0	0	0	0	0	
12	0	0	0	0	0	0	0	0	0	0	
13	0	0	0	0	0	0	0	0	0	0	
14	0	0	0	0	0	0	0	0	0	0	
15	0	0	0	0	0	0	0	0	0	0	
0	0	0	0	0	0	0	0	0	0	0	
1	0	0	0	0	0	0	0	0	0	0	
2	0	0	0	0	0	0	0	0	0	0	
3	0	0	0	0	0	0	0	0	0	0	
4	0	0	0	0	0	0	0	1	0	0	
5	0	0	0	0	0	0	0	0	0	0	
6	0	0	0	0	0	0	0	0	0	0	
7	0	0	0	0	111	0	0	0	0	0	
8	0	0	0	0	330	0	0	0	0	0	
9	0	0	0	0	556	0	0	0	0	0	
10	0	0	0	0	729	0	0	0	0	0	
11	0	0	0	0	795	0	0	0	0	0	
12	0	0	0	0	722	0	0	0	0	0	
13	0	0	0	0	493	0	0	0	0	0	
14	0	0	0	0	110	0	0	0	0	0	
15	0	0	0	0	0	0	0	0	0	0	
0	0	0	0	0	0	0	0	0	0	0	
1	0	0	0	0	0	0	0	0	0	0	
2	0	0	0	0	0	0	0	0	0	0	
3	0	0	0	0	0	0	0	0	0	0	
4	0	0	0	0	0	0	0	0	0	0	
5	0	0	0	0	0	0	0	0	0	0	
6	0	0	0	0	0	0	0	0	0	0	
7	0	0	0	0	0	0	0	0	0	0	
8	0	0	0	0	0	0	0	0	0	0	
9	0	0	0	0	0	0	0	0	0	0	
10	0	0	0	0	0	0	0	0	0	0	
11	0	0	0	0	165	0	0	0	0	0	
12	0	0	0	0	416	0	0	0	0	0	
13	0	0	0	0	673	0	0	0	0	0	
14	0	0	0	0	876	0	0	0	0	0	
15	0	0	0	0	969	0	0	0	0	0	
0	0	0	0	0	921	0	0	0	0	0	
1	0	0	0	0	714	0	0	0	0	0	
2	0	0	0	0	344	0	0	0	0	0	
3	0	0	0	0	0	0	0	0	0	0	
4	0	0	0	0	0	0	0	0	0	0	
5	0	0	0	0	0	0	0	0	0	0	
6	0	0	0	0	0	0	0	0	0	0	
7	0	0	0	0	0	0	0	0	0	0	
8	0	0	0	0	0	0	0	0	0	0	
9	0	0	0	0	0	0	0	0	0	0	
10	0	0	0	0	0	0	0	0	0	0	
11	0	0	0	0	0	0	0	0	0	0	
12	0	0	0	0	0	0	0	0	0	0	
13	0	0	0	0	0	0	0	0	0	0	
14	0	0	0	0	107	0	0	0	0	0	
15	0	0	0	0	395	0	0	0	0	0	
0	0	0	0	0	744	0	0	0	0	0	
1	0	0	0	0	1021	0	0	0	0	0	
2	0	0	0	0	1021	0	0	0	0	0	
3	0	0	0	0	1021	0	0	0	0	0	
4	0	0	0	0	1021	0	0	0	0	0	
5	0	0	0	0	925	0	0	0	0	0	
6	0	0	0	0	600	0	0	0	0	0	
7	0	0	0	0	119	0	0	0	0	0	
8	0	0	0	0	0	0	0	0	0	0	
9	0	0	0	0	0	0	0	0	0	0	
10	0	0	0	0	0	0	0	0	0	0	
11	0	0	0	0	0	0	0	0	0	0	
12	0	0	0	0	0	0	0	0	0	0	
13	0	0	0	0	0	0	0	0	0	0	
14	0	0	0	0	0	0	0	0	0	0	
15	0	0	0	0	0	0	0	0	0	0	
0	0	0	0	0	0	0	0	0	0	0	
1	0	0	0	0	0	0	0	0	0	0	
2	0	0	0	0	175	0	0	0	0	0	
3	0	0	0	0	511	0	0	0	0	0	
4	0	0	0	0	906	0	0	0	0	0	
5	0	0	0	0	1020	0	0	0	0	0	
6	0	0	0	0	1021	0	0	0	0	0	
7	0	0	0	0	1021	0	0	0	0	0	
8	0	0	0	0	1021	0	0	0	0	0	
9	0	0	0	0	1000	0	0	0	0	0	
10	0	0	0	0	725	0	0	0	0	0	
11	0	0	0	0	284	0	0	0	0	0	
12	0	0	0	0	0	0	0	0	0	0	
13	0	0	0	0	0	0	0	0	0	0	
