# OpenSignals Text File Format. Version 1
# {"": {"position": 0, "device": "", "device name": "", "device connection": "", "sampling rate": 1000, "resolution": [4, 1, 1, 1, 1, 10, 10, 10, 10, 6, 6], "firmware version": 1281, "comments": "", "keywords": "", "mode": 0, "sync interval": 2, "date": "", "time": "", "channels": [1, 2, 3, 4, 5, 6], "sensor": ["RAW", "RAW", "RAW", "RAW", "RAW", "RAW"], "label": ["A1", "A2", "A3", "A4", "A5", "A6"], "column": ["nSeq", "I1", "I2", "O1", "O2", "A1", "A2", "A3", "A4", "A5", "A6"], "special": [{}, {}, {}, {}, {}, {}], "digital IO": [0, 0, 1, 1]}}
# EndOfHeader
0	0	0	0	0	285	495	0	511	0	0	
1	0	0	0	0	393	495	0	504	0	0	
2	0	0	0	0	532	495	0	499	0	0	
3	0	0	0	0	686	496	0	494	0	0	
4	0	0	0	0	836	497	0	490	0	0	
5	0	0	0	0	971	499	0	487	0	0	
6	0	0	0	0	1021	501	0	486	0	0	
7	0	0	0	0	1021	503	0	487	0	0	
8	0	0	0	0	1021	505	0	489	0	0	
9	0	0	0	0	1021	506	0	493	0	0	
10	0	0	0	0	1021	508	0	499	0	0	
11	0	0	0	0	976	508	0	505	0	0	
12	0	0	0	0	892	508	0	511	0	0	
13	0	0	0	0	779	506	0	517	0	0	
14	0	0	0	0	647	504	0	522	0	0	
15	0	0	0	0	505	501	0	526	0	0	
0	0	0	0	0	370	498	0	528	0	0	
1	0	0	0	0	264	496	0	528	0	0	
2	0	0	0	0	206	493	0	526	0	0	
3	0	0	0	0	201	492	0	522	0	0	
4	0	0	0	0	251	492	0	517	0	0	
5	0	0	0	0	342	491	0	510	0	0	
6	0	0	0	0	459	491	0	503	0	0	
7	0	0	0	0	583	491	0	496	0	0	
8	0	0	0	0	700	491	0	490	0	0	
9	0	0	0	0	797	492	0	486	0	0	
10	0	0	0	0	868	494	0	484	0	0	
11	0	0	0	0	911	496	0	483	0	0	
12	0	0	0	0	921	499	0	486	0	0	
13	0	0	0	0	898	502	0	491	0	0	
14	0	0	0	0	841	505	0	498	0	0	
15	0	0	0	0	758	508	0	505	0	0	
0	0	0	0	0	653	509	0	513	0	0	
1	0	0	0	0	536	510	0	521	0	0	
2	0	0	0	0	415	510	0	528	0	0	
3	0	0	0	0	300	510	0	534	0	0	
4	0	0	0	0	201	510	0	538	0	0	
5	0	0	0	0	134	509	0	540	0	0	
6	0	0	0	0	111	509	0	539	0	0	
7	0	0	0	0	138	509	0	536	0	0	
8	0	0	0	0	215	510	0	532	0	0	
9	0	0	0	0	330	511	0	526	0	0	
10	0	0	0	0	470	512	0	519	0	0	
11	0	0	0	0	617	513	0	511	0	0	
12	0	0	0	0	759	512	0	504	0	0	
13	0	0	0	0	883	512	0	497	0	0	
14	0	0	0	0	986	511	0	491	0	0	
15	0	0	0	0	1021	509	0	487	0	0	
0	0	0	0	0	1021	507	0	484	0	0	
1	0	0	0	0	1021	504	0	483	0	0	
2	0	0	0	0	1007	502	0	485	0	0	
3	0	0	0	0	942	499	0	487	0	0	
4	0	0	0	0	845	496	0	490	0	0	
5	0	0	0	0	723	492	0	494	0	0	
6	0	0	0	0	585	488	0	497	0	0	
7	0	0	0	0	441	486	0	499	0	0	
8	0	0	0	0	301	483	0	501	0	0	
9	0	0	0	0	183	481	0	500	0	0	
10	0	0	0	0	101	481	0	499	0	0	
11	0	0	0	0	65	482	0	497	0	0	
12	0	0	0	0	78	484	0	494	0	0	
13	0	0	0	0	133	487	0	490	0	0	
14	0	0	0	0	220	491	0	487	0	0	
15	0	0	0	0	324	496	0	484	0	0	
0	0	0	0	0	435	500	0	482	0	0	
1	0	0	0	0	540	505	0	482	0	0	
2	0	0	0	0	633	510	0	483	0	0	
3	0	0	0	0	704	513	0	485	0	0	
4	0	0	0	0	751	517	0	488	0	0	
5	0	0	0	0	768	518	0	492	0	0	
6	0	0	0	0	754	519	0	496	0	0	
7	0	0	0	0	713	518	0	500	0	0	
8	0	0	0	0	647	516	0	504	0	0	
9	0	0	0	0	564	512	0	508	0	0	
10	0	0	0	0	471	508	0	511	0	0	
11	0	0	0	0	376	504	0	513	0	0	
12	0	0	0	0	294	499	0	513	0	0	
13	0	0	0	0	242	495	0	512	0	0	
14	0	0	0	0	234	491	0	509	0	0	
15	0	0	0	0	278	488	0	505	0	0	
0	0	0	0	0	370	486	0	500	0	0	
1	0	0	0	0	499	485	0	495	0	0	
2	0	0	0	0	649	485	0	490	0	0	
3	0	0	0	0	803	486	0	486	0	0	
4	0	0	0	0	947	487	0	482	0	0	
5	0	0	0	0	1021	490	0	480	0	0	
6	0	0	0	0	1021	492	0	479	0	0	
7	0	0	0	0	1021	495	0	480	0	0	
8	0	0	0	0	1021	497	0	481	0	0	
9	0	0	0	0	1021	498	0	485	0	0	
10	0	0	0	0	1021	500	0	490	0	0	
11	0	0	0	0	975	500	0	495	0	0	
12	0	0	0	0	891	500	0	501	0	0	
13	0	0	0	0	780	499	0	507	0	0	
14	0	0	0	0	648	497	0	512	0	0	
15	0	0	0	0	506	496	0	516	0	0	
0	0	0	0	0	368	494	0	519	0	0	
1	0	0	0	0	255	492	0	519	0	0	
2	0	0	0	0	187	490	0	519	0	0	
3	0	0	0	0	172	489	0	517	0	0	
4	0	0	0	0	212	489	0	513	0	0	
5	0	0	0	0	299	489	0	509	0	0	
6	0	0	0	0	417	490	0	504	0	0	
7	0	0	0	0	550	490	0	498	0	0	
8	0	0	0	0	681	492	0	494	0	0	
9	0	0	0	0	796	495	0	491	0	0	
10	0	0	0	0	884	498	0	489	0	0	
11	0	0	0	0	940	502	0	488	0	0	
12	0	0	0	0	959	505	0	490	0	0	
13	0	0	0	0	938	508	0	492	0	0	
14	0	0	0	0	879	510	0	496	0	0	
15	0	0	0	0	788	511	0	499	0	0	
0	0	0	0	0	671	510	0	503	0	0	
1	0	0	0	0	540	508	0	506	0	0	
2	0	0	0	0	403	505	0	508	0	0	
3	0	0	0	0	271	501	0	509	0	0	
4	0	0	0	0	159	497	0	509	0	0	
5	0	0	0	0	81	493	0	508	0	0	
6	0	0	0	0	53	489	0	505	0	0	
7	0	0	0	0	84	486	0	502	0	0	
8	0	0	0	0	172	484	0	497	0	0	
9	0	0	0	0	305	483	0	492	0	0	
10	0	0	0	0	470	483	0	487	0	0	
11	0	0	0	0	646	483	0	483	0	0	
12	0	0	0	0	817	484	0	480	0	0	
13	0	0	0	0	967	486	0	477	0	0	
14	0	0	0	0	1021	487	0	476	0	0	
15	0	0	0	0	1021	489	0	476	0	0	
0	0	0	0	0	1021	491	0	478	0	0	
1	0	0	0	0	1021	493	0	482	0	0	
2	0	0	0	0	1021	495	0	486	0	0	
3	0	0	0	0	963	495	0	491	0	0	
4	0	0	0	0	868	496	0	496	0	0	
5	0	0	0	0	746	496	0	502	0	0	
6	0	0	0	0	605	495	0	507	0	0	
7	0	0	0	0	455	494	0	510	0	0	
8	0	0	0	0	307	494	0	512	0	0	
9	0	0	0	0	180	493	0	512	0	0	
10	0	0	0	0	86	494	0	511	0	0	
11	0	0	0	0	38	496	0	509	0	0	
12	0	0	0	0	39	499	0	507	0	0	
13	0	0	0	0	86	504	0	504	0	0	
14	0	0	0	0	170	509	0	502	0	0	
15	0	0	0	0	279	515	0	501	0	0	
0	0	0	0	0	400	523	0	502	0	0	
1	0	0	0	0	521	531	0	504	0	0	
2	0	0	0	0	629	540	0	508	0	0	
3	0	0	0	0	714	548	0	513	0	0	
4	0	0	0	0	771	555	0	518	0	0	
5	0	0	0	0	796	561	0	524	0	0	
6	0	0	0	0	787	565	0	529	0	0	
7	0	0	0	0	747	566	0	533	0	0	
8	0	0	0	0	680	563	0	536	0	0	
9	0	0	0	0	592	558	0	536	0	0	
10	0	0	0	0	493	551	0	536	0	0	
11	0	0	0	0	389	542	0	532	0	0	
12	0	0	0	0	293	532	0	527	0	0	
13	0	0	0	0	221	521	0	521	0	0	
14	0	0	0	0	186	512	0	513	0	0	
15	0	0	0	0	197	504	0	506	0	0	
0	0	0	0	0	254	498	0	499	0	0	
1	0	0	0	0	348	495	0	493	0	0	
2	0	0	0	0	465	494	0	488	0	0	
3	0	0	0	0	590	494	0	484	0	0	
4	0	0	0	0	704	495	0	481	0	0	
5	0	0	0	0	798	496	0	479	0	0	
6	0	0	0	0	862	498	0	477	0	0	
7	0	0	0	0	892	499	0	476	0	0	
8	0	0	0	0	886	499	0	475	0	0	
9	0	0	0	0	843	497	0	475	0	0	
10	0	0	0	0	766	495	0	474	0	0	
11	0	0	0	0	663	492	0	474	0	0	
12	0	0	0	0	543	488	0	475	0	0	
13	0	0	0	0	413	483	0	474	0	0	
14	0	0	0	0	286	479	0	474	0	0	
15	0	0	0	0	170	474	0	473	0	0	
0	0	0	0	0	73	471	0	473	0	0	
1	0	0	0	0	8	470	0	474	0	0	
2	0	0	0	0	0	472	0	476	0	0	
3	0	0	0	0	20	475	0	478	0	0	
4	0	0	0	0	98	480	0	481	0	0	
5	0	0	0	0	218	488	0	484	0	0	
6	0	0	0	0	367	496	0	488	0	0	
7	0	0	0	0	531	504	0	492	0	0	
8	0	0	0	0	696	510	0	494	0	0	
9	0	0	0	0	847	515	0	496	0	0	
10	0	0	0	0	974	519	0	497	0	0	
11	0	0	0	0	1021	519	0	496	0	0	
12	0	0	0	0	1021	518	0	494	0	0	
13	0	0	0	0	1021	515	0	491	0	0	
14	0	0	0	0	1020	510	0	488	0	0	
15	0	0	0	0	959	503	0	484	0	0	
0	0	0	0	0	862	495	0	481	0	0	
1	0	0	0	0	737	487	0	478	0	0	
2	0	0	0	0	592	480	0	475	0	0	
3	0	0	0	0	440	473	0	473	0	0	
4	0	0	0	0	291	468	0	472	0	0	
5	0	0	0	0	170	466	0	472	0	0	
6	0	0	0	0	89	466	0	474	0	0	
7	0	0	0	0	60	469	0	476	0	0	
8	0	0	0	0	84	473	0	479	0	0	
9	0	0	0	0	156	480	0	481	0	0	
10	0	0	0	0	264	486	0	483	0	0	
11	0	0	0	0	395	490	0	483	0	0	
12	0	0	0	0	534	493	0	481	0	0	
13	0	0	0	0	669	495	0	478	0	0	
14	0	0	0	0	790	494	0	474	0	0	
15	0	0	0	0	887	492	0	469	0	0	
0	0	0	0	0	953	487	0	464	0	0	
1	0	0	0	0	982	482	0	460	0	0	
2	0	0	0	0	971	477	0	458	0	0	
3	0	0	0	0	919	472	0	456	0	0	
4	0	0	0	0	830	466	0	457	0	0	
5	0	0	0	0	715	462	0	458	0	0	
6	0	0	0	0	580	459	0	460	0	0	
7	0	0	0	0	438	458	0	462	0	0	
8	0	0	0	0	305	458	0	465	0	0	
9	0	0	0	0	204	460	0	467	0	0	
10	0	0	0	0	151	463	0	470	0	0	
11	0	0	0	0	154	469	0	473	0	0	
12	0	0	0	0	216	476	0	476	0	0	
13	0	0	0	0	326	485	0	480	0	0	
14	0	0	0	0	468	493	0	483	0	0	
15	0	0	0	0	626	502	0	486	0	0	
0	0	0	0	0	780	508	0	487	0	0	
1	0	0	0	0	916	513	0	489	0	0	
2	0	0	0	0	1021	516	0	488	0	0	
3	0	0	0	0	1021	517	0	487	0	0	
4	0	0	0	0	1021	516	0	486	0	0	
5	0	0	0	0	1021	513	0	483	0	0	
6	0	0	0	0	982	508	0	480	0	0	
7	0	0	0	0	896	501	0	477	0	0	
8	0	0	0	0	778	494	0	474	0	0	
9	0	0	0	0	638	486	0	471	0	0	
10	0	0	0	0	486	479	0	467	0	0	
11	0	0	0	0	332	472	0	465	0	0	
12	0	0	0	0	190	467	0	462	0	0	
13	0	0	0	0	71	463	0	460	0	0	
14	0	0	0	0	0	461	0	457	0	0	
15	0	0	0	0	0	460	0	454	0	0	
0	0	0	0	0	0	461	0	452	0	0	
1	0	0	0	0	39	463	0	450	0	0	
2	0	0	0	0	118	467	0	449	0	0	
3	0	0	0	0	221	471	0	448	0	0	
4	0	0	0	0	336	475	0	448	0	0	
5	0	0	0	0	453	478	0	448	0	0	
6	0	0	0	0	561	481	0	449	0	0	
7	0	0	0	0	651	483	0	450	0	0	
8	0	0	0	0	712	484	0	453	0	0	
9	0	0	0	0	743	485	0	456	0	0	
10	0	0	0	0	742	485	0	461	0	0	
11	0	0	0	0	709	484	0	466	0	0	
12	0	0	0	0	648	483	0	470	0	0	
13	0	0	0	0	567	481	0	474	0	0	
14	0	0	0	0	472	478	0	476	0	0	
15	0	0	0	0	370	474	0	476	0	0	
0	0	0	0	0	271	470	0	474	0	0	
1	0	0	0	0	187	467	0	471	0	0	
2	0	0	0	0	128	463	0	465	0	0	
3	0	0	0	0	102	461	0	459	0	0	
4	0	0	0	0	112	460	0	453	0	0	
5	0	0	0	0	153	461	0	448	0	0	
6	0	0	0	0	218	464	0	443	0	0	
7	0	0	0	0	297	467	0	440	0	0	
8	0	0	0	0	381	472	0	438	0	0	
9	0	0	0	0	463	477	0	438	0	0	
10	0	0	0	0	539	483	0	440	0	0	
11	0	0	0	0	600	488	0	444	0	0	
12	0	0	0	0	644	493	0	448	0	0	
13	0	0	0	0	664	497	0	454	0	0	
14	0	0	0	0	660	499	0	459	0	0	
15	0	0	0	0	632	499	0	464	0	0	
0	0	0	0	0	583	499	0	468	0	0	
1	0	0	0	0	519	496	0	472	0	0	
2	0	0	0	0	445	493	0	473	0	0	
3	0	0	0	0	366	489	0	473	0	0	
4	0	0	0	0	294	484	0	472	0	0	
5	0	0	0	0	240	480	0	469	0	0	
6	0	0	0	0	217	476	0	464	0	0	
7	0	0	0	0	233	472	0	458	0	0	
8	0	0	0	0	288	470	0	452	0	0	
9	0	0	0	0	375	468	0	445	0	0	
10	0	0	0	0	481	467	0	439	0	0	
11	0	0	0	0	594	467	0	434	0	0	
12	0	0	0	0	703	467	0	429	0	0	
13	0	0	0	0	795	468	0	427	0	0	
14	0	0	0	0	869	469	0	425	0	0	
15	0	0	0	0	917	471	0	425	0	0	
0	0	0	0	0	936	472	0	427	0	0	
1	0	0	0	0	920	472	0	430	0	0	
2	0	0	0	0	869	473	0	434	0	0	
3	0	0	0	0	787	472	0	440	0	0	
4	0	0	0	0	681	472	0	445	0	0	
5	0	0	0	0	557	471	0	450	0	0	
6	0	0	0	0	427	470	0	455	0	0	
7	0	0	0	0	297	469	0	459	0	0	
8	0	0	0	0	183	468	0	462	0	0	
9	0	0	0	0	95	468	0	463	0	0	
10	0	0	0	0	46	470	0	463	0	0	
11	0	0	0	0	45	471	0	462	0	0	
12	0	0	0	0	93	473	0	460	0	0	
13	0	0	0	0	182	475	0	456	0	0	
14	0	0	0	0	296	477	0	452	0	0	
15	0	0	0	0	423	479	0	447	0	0	
0	0	0	0	0	546	480	0	442	0	0	
1	0	0	0	0	655	480	0	437	0	0	
2	0	0	0	0	740	480	0	433	0	0	
3	0	0	0	0	797	480	0	431	0	0	
4	0	0	0	0	823	479	0	429	0	0	
5	0	0	0	0	815	478	0	430	0	0	
6	0	0	0	0	774	477	0	431	0	0	
7	0	0	0	0	704	475	0	434	0	0	
8	0	0	0	0	611	473	0	437	0	0	
9	0	0	0	0	504	470	0	440	0	0	
10	0	0	0	0	391	467	0	443	0	0	
11	0	0	0	0	282	465	0	446	0	0	
12	0	0	0	0	188	462	0	448	0	0	
13	0	0	0	0	124	460	0	448	0	0	
14	0	0	0	0	101	459	0	446	0	0	
15	0	0	0	0	127	459	0	443	0	0	
0	0	0	0	0	197	459	0	440	0	0	
1	0	0	0	0	300	461	0	435	0	0	
2	0	0	0	0	421	463	0	431	0	0	
3	0	0	0	0	545	466	0	427	0	0	
4	0	0	0	0	662	470	0	424	0	0	
5	0	0	0	0	758	473	0	423	0	0	
6	0	0	0	0	832	478	0	423	0	0	
7	0	0	0	0	881	482	0	424	0	0	
8	0	0	0	0	901	485	0	428	0	0	
9	0	0	0	0	888	489	0	433	0	0	
10	0	0	0	0	843	491	0	439	0	0	
11	0	0	0	0	768	492	0	446	0	0	
12	0	0	0	0	670	492	0	452	0	0	
13	0	0	0	0	557	491	0	459	0	0	
14	0	0	0	0	436	488	0	464	0	0	
15	0	0	0	0	317	486	0	467	0	0	
0	0	0	0	0	211	483	0	470	0	0	
1	0	0	0	0	126	480	0	469	0	0	
2	0	0	0	0	78	479	0	467	0	0	
3	0	0	0	0	71	478	0	464	0	0	
4	0	0	0	0	111	478	0	460	0	0	
5	0	0	0	0	190	478	0	455	0	0	
6	0	0	0	0	297	479	0	450	0	0	
7	0	0	0	0	423	481	0	444	0	0	
8	0	0	0	0	553	482	0	439	0	0	
9	0	0	0	0	679	483	0	435	0	0	
10	0	0	0	0	792	484	0	431	0	0	
11	0	0	0	0	883	484	0	428	0	0	
12	0	0	0	0	948	484	0	427	0	0	
13	0	0	0	0	977	483	0	426	0	0	
14	0	0	0	0	968	481	0	427	0	0	
15	0	0	0	0	921	480	0	430	0	0	
0	0	0	0	0	838	477	0	432	0	0	
1	0	0	0	0	727	474	0	435	0	0	
2	0	0	0	0	596	472	0	439	0	0	
3	0	0	0	0	457	469	0	442	0	0	
4	0	0	0	0	322	468	0	446	0	0	
5	0	0	0	0	212	467	0	448	0	0	
6	0	0	0	0	145	468	0	449	0	0	
7	0	0	0	0	127	469	0	449	0	0	
8	0	0	0	0	160	472	0	448	0	0	
9	0	0	0	0	237	475	0	447	0	0	
10	0	0	0	0	342	478	0	444	0	0	
11	0	0	0	0	461	481	0	441	0	0	
12	0	0	0	0	579	485	0	438	0	0	
13	0	0	0	0	684	488	0	436	0	0	
14	0	0	0	0	768	491	0	434	0	0	
15	0	0	0	0	828	494	0	434	0	0	
0	0	0	0	0	859	496	0	434	0	0	
1	0	0	0	0	857	498	0	436	0	0	
2	0	0	0	0	823	499	0	440	0	0	
3	0	0	0	0	759	500	0	443	0	0	
4	0	0	0	0	671	500	0	448	0	0	
5	0	0	0	0	568	499	0	454	0	0	
6	0	0	0	0	457	499	0	459	0	0	
7	0	0	0	0	348	498	0	464	0	0	
8	0	0	0	0	255	498	0	468	0	0	
9	0	0	0	0	196	498	0	472	0	0	
10	0	0	0	0	184	500	0	474	0	0	
11	0	0	0	0	225	501	0	474	0	0	
12	0	0	0	0	317	502	0	473	0	0	
13	0	0	0	0	448	503	0	470	0	0	
14	0	0	0	0	602	504	0	465	0	0	
15	0	0	0	0	763	503	0	459	0	0	
0	0	0	0	0	916	502	0	452	0	0	
1	0	0	0	0	1021	499	0	446	0	0	
2	0	0	0	0	1021	496	0	440	0	0	
3	0	0	0	0	1021	492	0	433	0	0	
4	0	0	0	0	1021	487	0	428	0	0	
5	0	0	0	0	1021	481	0	425	0	0	
6	0	0	0	0	1021	475	0	422	0	0	
7	0	0	0	0	977	468	0	421	0	0	
8	0	0	0	0	889	462	0	421	0	0	
9	0	0	0	0	773	456	0	422	0	0	
10	0	0	0	0	636	451	0	424	0	0	
11	0	0	0	0	490	448	0	427	0	0	
12	0	0	0	0	350	447	0	431	0	0	
13	0	0	0	0	240	449	0	435	0	0	
14	0	0	0	0	177	454	0	440	0	0	
15	0	0	0	0	171	461	0	445	0	0	
0	0	0	0	0	222	471	0	451	0	0	
1	0	0	0	0	322	482	0	456	0	0	
2	0	0	0	0	456	493	0	460	0	0	
3	0	0	0	0	607	504	0	463	0	0	
4	0	0	0	0	759	512	0	466	0	0	
5	0	0	0	0	898	519	0	467	0	0	
6	0	0	0	0	1014	522	0	467	0	0	
7	0	0	0	0	1021	523	0	465	0	0	
8	0	0	0	0	1021	519	0	462	0	0	
9	0	0	0	0	1021	515	0	458	0	0	
10	0	0	0	0	1013	508	0	455	0	0	
11	0	0	0	0	947	500	0	452	0	0	
12	0	0	0	0	849	492	0	450	0	0	
13	0	0	0	0	722	484	0	449	0	0	
14	0	0	0	0	579	477	0	449	0	0	
15	0	0	0	0	430	470	0	449	0	0	
0	0	0	0	0	286	465	0	448	0	0	
1	0	0	0	0	172	461	0	448	0	0	
2	0	0	0	0	100	459	0	446	0	0	
3	0	0	0	0	83	457	0	444	0	0	
4	0	0	0	0	121	458	0	442	0	0	
5	0	0	0	0	207	459	0	439	0	0	
6	0	0	0	0	328	460	0	436	0	0	
7	0	0	0	0	471	462	0	433	0	0	
8	0	0	0	0	617	464	0	430	0	0	
9	0	0	0	0	756	466	0	427	0	0	
10	0	0	0	0	878	468	0	425	0	0	
11	0	0	0	0	975	469	0	424	0	0	
12	0	0	0	0	1021	469	0	424	0	0	
13	0	0	0	0	1021	469	0	424	0	0	
14	0	0	0	0	1016	468	0	425	0	0	
15	0	0	0	0	958	467	0	427	0	0	
0	0	0	0	0	864	465	0	428	0	0	
1	0	0	0	0	741	463	0	429	0	0	
2	0	0	0	0	598	461	0	429	0	0	
3	0	0	0	0	447	459	0	429	0	0	
4	0	0	0	0	303	457	0	428	0	0	
5	0	0	0	0	188	457	0	427	0	0	
6	0	0	0	0	118	458	0	426	0	0	
7	0	0	0	0	104	461	0	424	0	0	
8	0	0	0	0	145	464	0	424	0	0	
9	0	0	0	0	233	470	0	424	0	0	
10	0	0	0	0	352	475	0	425	0	0	
11	0	0	0	0	484	481	0	427	0	0	
12	0	0	0	0	613	487	0	429	0	0	
13	0	0	0	0	724	492	0	431	0	0	
14	0	0	0	0	809	496	0	433	0	0	
15	0	0	0	0	861	499	0	435	0	0	
0	0	0	0	0	878	499	0	436	0	0	
1	0	0	0	0	857	497	0	435	0	0	
2	0	0	0	0	800	493	0	435	0	0	
3	0	0	0	0	711	488	0	433	0	0	
4	0	0	0	0	601	481	0	431	0	0	
5	0	0	0	0	478	474	0	429	0	0	
6	0	0	0	0	350	467	0	427	0	0	
7	0	0	0	0	230	460	0	424	0	0	
8	0	0	0	0	128	454	0	422	0	0	
9	0	0	0	0	61	451	0	420	0	0	
10	0	0	0	0	41	449	0	419	0	0	
11	0	0	0	0	74	448	0	419	0	0	
12	0	0	0	0	158	450	0	418	0	0	
13	0	0	0	0	278	453	0	417	0	0	
14	0	0	0	0	419	456	0	417	0	0	
15	0	0	0	0	563	459	0	415	0	0	
0	0	0	0	0	691	462	0	413	0	0	
1	0	0	0	0	790	463	0	410	0	0	
2	0	0	0	0	853	461	0	404	0	0	
3	0	0	0	0	873	456	0	397	0	0	
4	0	0	0	0	851	448	0	387	0	0	
5	0	0	0	0	787	437	0	375	0	0	
6	0	0	0	0	687	423	0	360	0	0	
7	0	0	0	0	559	405	0	344	0	0	
8	0	0	0	0	413	386	0	327	0	0	
9	0	0	0	0	261	365	0	309	0	0	
10	0	0	0	0	115	344	0	291	0	0	
11	0	0	0	0	0	325	0	275	0	0	
12	0	0	0	0	0	306	0	258	0	0	
13	0	0	0	0	0	289	0	244	0	0	
14	0	0	0	0	0	276	0	231	0	0	
15	0	0	0	0	0	265	0	219	0	0	
0	0	0	0	0	31	258	0	210	0	0	
1	0	0	0	0	116	253	0	202	0	0	
2	0	0	0	0	231	251	0	198	0	0	
3	0	0	0	0	360	252	0	196	0	0	
4	0	0	0	0	492	256	0	197	0	0	
5	0	0	0	0	616	263	0	201	0	0	
6	0	0	0	0	721	271	0	208	0	0	
7	0	0	0	0	799	282	0	218	0	0	
8	0	0	0	0	844	294	0	230	0	0	
9	0	0	0	0	850	306	0	243	0	0	
10	0	0	0	0	817	318	0	257	0	0	
11	0	0	0	0	747	328	0	272	0	0	
12	0	0	0	0	647	338	0	287	0	0	
13	0	0	0	0	525	347	0	301	0	0	
14	0	0	0	0	393	355	0	315	0	0	
15	0	0	0	0	260	363	0	327	0	0	
0	0	0	0	0	138	371	0	339	0	0	
1	0	0	0	0	39	380	0	349	0	0	
2	0	0	0	0	0	390	0	358	0	0	
3	0	0	0	0	0	400	0	366	0	0	
4	0	0	0	0	12	412	0	374	0	0	
5	0	0	0	0	73	424	0	380	0	0	
6	0	0	0	0	163	436	0	386	0	0	
7	0	0	0	0	269	448	0	390	0	0	
8	0	0	0	0	379	458	0	394	0	0	
9	0	0	0	0	483	467	0	397	0	0	
10	0	0	0	0	572	475	0	400	0	0	
11	0	0	0	0	639	480	0	403	0	0	
12	0	0	0	0	678	484	0	406	0	0	
13	0	0	0	0	687	486	0	409	0	0	
14	0	0	0	0	667	487	0	414	0	0	
15	0	0	0	0	620	487	0	419	0	0	
0	0	0	0	0	553	485	0	424	0	0	
1	0	0	0	0	473	483	0	429	0	0	
2	0	0	0	0	386	481	0	434	0	0	
3	0	0	0	0	300	480	0	439	0	0	
4	0	0	0	0	223	478	0	443	0	0	
5	0	0	0	0	164	478	0	445	0	0	
6	0	0	0	0	134	479	0	447	0	0	
7	0	0	0	0	140	481	0	447	0	0	
8	0	0	0	0	180	484	0	446	0	0	
9	0	0	0	0	248	487	0	444	0	0	
10	0	0	0	0	334	491	0	441	0	0	
11	0	0	0	0	424	494	0	437	0	0	
12	0	0	0	0	509	497	0	434	0	0	
13	0	0	0	0	581	500	0	431	0	0	
14	0	0	0	0	632	503	0	429	0	0	
15	0	0	0	0	660	505	0	428	0	0	
0	0	0	0	0	663	507	0	428	0	0	
1	0	0	0	0	641	508	0	429	0	0	
2	0	0	0	0	598	509	0	432	0	0	
3	0	0	0	0	537	509	0	434	0	0	
4	0	0	0	0	465	507	0	436	0	0	
5	0	0	0	0	388	505	0	439	0	0	
6	0	0	0	0	312	502	0	441	0	0	
7	0	0	0	0	242	498	0	442	0	0	
8	0	0	0	0	183	494	0	441	0	0	
9	0	0	0	0	143	491	0	440	0	0	
10	0	0	0	0	133	489	0	437	0	0	
11	0	0	0	0	156	488	0	434	0	0	
12	0	0	0	0	211	489	0	431	0	0	
13	0	0	0	0	289	492	0	428	0	0	
14	0	0	0	0	380	495	0	426	0	0	
15	0	0	0	0	471	499	0	424	0	0	
0	0	0	0	0	551	504	0	423	0	0	
1	0	0	0	0	613	508	0	422	0	0	
2	0	0	0	0	651	511	0	422	0	0	
3	0	0	0	0	662	514	0	422	0	0	
4	0	0	0	0	646	515	0	423	0	0	
5	0	0	0	0	606	514	0	424	0	0	
6	0	0	0	0	547	513	0	426	0	0	
7	0	0	0	0	474	510	0	428	0	0	
8	0	0	0	0	395	506	0	430	0	0	
9	0	0	0	0	314	502	0	432	0	0	
10	0	0	0	0	241	498	0	434	0	0	
11	0	0	0	0	177	494	0	436	0	0	
12	0	0	0	0	127	493	0	440	0	0	
13	0	0	0	0	94	492	0	441	0	0	
14	0	0	0	0	79	494	0	444	0	0	
15	0	0	0	0	85	496	0	446	0	0	
0	0	0	0	0	108	501	0	447	0	0	
1	0	0	0	0	145	505	0	447	0	0	
2	0	0	0	0	193	509	0	446	0	0	
3	0	0	0	0	247	513	0	444	0	0	
4	0	0	0	0	303	515	0	442	0	0	
5	0	0	0	0	359	517	0	439	0	0	
6	0	0	0	0	411	516	0	436	0	0	
7	0	0	0	0	454	515	0	433	0	0	
8	0	0	0	0	484	512	0	430	0	0	
9	0	0	0	0	499	508	0	429	0	0	
10	0	0	0	0	497	504	0	428	0	0	
11	0	0	0	0	480	499	0	429	0	0	
12	0	0	0	0	450	494	0	430	0	0	
13	0	0	0	0	410	489	0	432	0	0	
14	0	0	0	0	364	485	0	435	0	0	
15	0	0	0	0	317	482	0	438	0	0	
0	0	0	0	0	272	481	0	440	0	0	
1	0	0	0	0	236	481	0	443	0	0	
2	0	0	0	0	220	483	0	446	0	0	
3	0	0	0	0	225	487	0	448	0	0	
4	0	0	0	0	255	492	0	451	0	0	
5	0	0	0	0	305	498	0	452	0	0	
6	0	0	0	0	368	503	0	452	0	0	
7	0	0	0	0	437	508	0	452	0	0	
8	0	0	0	0	504	512	0	451	0	0	
9	0	0	0	0	565	515	0	450	0	0	
10	0	0	0	0	614	517	0	449	0	0	
11	0	0	0	0	647	517	0	448	0	0	
12	0	0	0	0	660	517	0	447	0	0	
13	0	0	0	0	652	515	0	446	0	0	
14	0	0	0	0	623	511	0	445	0	0	
15	0	0	0	0	575	507	0	445	0	0	
0	0	0	0	0	514	503	0	446	0	0	
1	0	0	0	0	445	498	0	446	0	0	
2	0	0	0	0	373	494	0	448	0	0	
3	0	0	0	0	304	490	0	450	0	0	
4	0	0	0	0	242	487	0	451	0	0	
5	0	0	0	0	195	486	0	452	0	0	
6	0	0	0	0	172	484	0	453	0	0	
7	0	0	0	0	180	484	0	452	0	0	
8	0	0	0	0	221	484	0	450	0	0	
9	0	0	0	0	289	484	0	448	0	0	
10	0	0	0	0	377	485	0	445	0	0	
11	0	0	0	0	473	487	0	442	0	0	
12	0	0	0	0	569	488	0	440	0	0	
13	0	0	0	0	655	491	0	439	0	0	
14	0	0	0	0	724	494	0	440	0	0	
15	0	0	0	0	772	498	0	441	0	0	
0	0	0	0	0	796	502	0	445	0	0	
1	0	0	0	0	792	505	0	449	0	0	
2	0	0	0	0	759	507	0	455	0	0	
3	0	0	0	0	701	508	0	460	0	0	
4	0	0	0	0	623	508	0	464	0	0	
5	0	0	0	0	530	505	0	467	0	0	
6	0	0	0	0	431	502	0	470	0	0	
7	0	0	0	0	333	498	0	470	0	0	
8	0	0	0	0	248	493	0	469	0	0	
9	0	0	0	0	191	489	0	466	0	0	
10	0	0	0	0	177	486	0	463	0	0	
11	0	0	0	0	213	483	0	457	0	0	
12	0	0	0	0	296	481	0	452	0	0	
13	0	0	0	0	419	480	0	446	0	0	
14	0	0	0	0	563	479	0	439	0	0	
15	0	0	0	0	716	479	0	433	0	0	
0	0	0	0	0	861	479	0	428	0	0	
1	0	0	0	0	989	479	0	424	0	0	
2	0	0	0	0	1021	479	0	422	0	0	
3	0	0	0	0	1021	479	0	421	0	0	
4	0	0	0	0	1021	479	0	421	0	0	
5	0	0	0	0	1021	478	0	423	0	0	
6	0	0	0	0	1011	476	0	426	0	0	
7	0	0	0	0	946	473	0	430	0	0	
8	0	0	0	0	848	471	0	433	0	0	
9	0	0	0	0	724	467	0	438	0	0	
10	0	0	0	0	583	463	0	442	0	0	
11	0	0	0	0	438	460	0	445	0	0	
12	0	0	0	0	305	457	0	448	0	0	
13	0	0	0	0	211	456	0	451	0	0	
14	0	0	0	0	170	457	0	452	0	0	
15	0	0	0	0	189	460	0	454	0	0	
0	0	0	0	0	263	464	0	455	0	0	
1	0	0	0	0	377	471	0	455	0	0	
2	0	0	0	0	513	478	0	456	0	0	
3	0	0	0	0	651	485	0	456	0	0	
4	0	0	0	0	775	492	0	456	0	0	
5	0	0	0	0	871	497	0	455	0	0	
6	0	0	0	0	936	501	0	454	0	0	
7	0	0	0	0	965	504	0	453	0	0	
8	0	0	0	0	954	505	0	453	0	0	
9	0	0	0	0	906	504	0	453	0	0	
10	0	0	0	0	823	503	0	454	0	0	
11	0	0	0	0	712	499	0	455	0	0	
12	0	0	0	0	583	495	0	455	0	0	
13	0	0	0	0	446	489	0	454	0	0	
14	0	0	0	0	311	482	0	453	0	0	
15	0	0	0	0	187	476	0	451	0	0	
0	0	0	0	0	85	469	0	449	0	0	
1	0	0	0	0	19	463	0	446	0	0	
2	0	0	0	0	2	460	0	443	0	0	
3	0	0	0	0	42	456	0	439	0	0	
4	0	0	0	0	140	455	0	435	0	0	
5	0	0	0	0	285	455	0	431	0	0	
6	0	0	0	0	464	456	0	427	0	0	
7	0	0	0	0	661	459	0	423	0	0	
8	0	0	0	0	856	461	0	421	0	0	
9	0	0	0	0	1021	465	0	420	0	0	
10	0	0	0	0	1021	469	0	420	0	0	
11	0	0	0	0	1021	473	0	422	0	0	
12	0	0	0	0	1021	476	0	425	0	0	
13	0	0	0	0	1021	479	0	429	0	0	
14	0	0	0	0	1021	480	0	434	0	0	
15	0	0	0	0	1015	480	0	439	0	0	
0	0	0	0	0	945	478	0	444	0	0	
1	0	0	0	0	841	475	0	448	0	0	
2	0	0	0	0	711	470	0	451	0	0	
3	0	0	0	0	568	465	0	454	0	0	
4	0	0	0	0	435	460	0	454	0	0	
5	0	0	0	0	338	455	0	454	0	0	
6	0	0	0	0	297	452	0	452	0	0	
7	0	0	0	0	320	449	0	450	0	0	
8	0	0	0	0	403	448	0	448	0	0	
9	0	0	0	0	534	447	0	443	0	0	
10	0	0	0	0	694	447	0	440	0	0	
11	0	0	0	0	864	446	0	435	0	0	
12	0	0	0	0	1020	447	0	431	0	0	
13	0	0	0	0	1021	448	0	427	0	0	
14	0	0	0	0	1021	449	0	424	0	0	
15	0	0	0	0	1021	451	0	423	0	0	
0	0	0	0	0	1021	452	0	423	0	0	
1	0	0	0	0	1021	454	0	425	0	0	
2	0	0	0	0	1021	455	0	427	0	0	
3	0	0	0	0	961	456	0	430	0	0	
4	0	0	0	0	863	456	0	434	0	0	
5	0	0	0	0	737	455	0	437	0	0	
6	0	0	0	0	591	453	0	440	0	0	
7	0	0	0	0	438	450	0	441	0	0	
8	0	0	0	0	293	447	0	441	0	0	
9	0	0	0	0	180	444	0	440	0	0	
10	0	0	0	0	120	442	0	438	0	0	
11	0	0	0	0	121	440	0	433	0	0	
12	0	0	0	0	186	440	0	428	0	0	
13	0	0	0	0	308	439	0	423	0	0	
14	0	0	0	0	473	440	0	418	0	0	
15	0	0	0	0	663	440	0	414	0	0	
0	0	0	0	0	859	442	0	411	0	0	
1	0	0	0	0	1021	443	0	408	0	0	
2	0	0	0	0	1021	446	0	408	0	0	
3	0	0	0	0	1021	448	0	410	0	0	
4	0	0	0	0	1021	452	0	415	0	0	
5	0	0	0	0	1021	456	0	421	0	0	
6	0	0	0	0	1021	461	0	429	0	0	
7	0	0	0	0	1021	465	0	438	0	0	
8	0	0	0	0	978	468	0	447	0	0	
9	0	0	0	0	887	471	0	455	0	0	
10	0	0	0	0	766	472	0	462	0	0	
11	0	0	0	0	625	472	0	467	0	0	
12	0	0	0	0	485	471	0	470	0	0	
13	0	0	0	0	368	470	0	470	0	0	
14	0	0	0	0	295	467	0	467	0	0	
15	0	0	0	0	279	465	0	463	0	0	
0	0	0	0	0	314	462	0	456	0	0	
1	0	0	0	0	395	459	0	449	0	0	
2	0	0	0	0	507	455	0	440	0	0	
3	0	0	0	0	635	452	0	431	0	0	
4	0	0	0	0	764	448	0	423	0	0	
5	0	0	0	0	882	443	0	414	0	0	
6	0	0	0	0	982	439	0	407	0	0	
7	0	0	0	0	1021	435	0	402	0	0	
8	0	0	0	0	1021	431	0	399	0	0	
9	0	0	0	0	1021	428	0	398	0	0	
10	0	0	0	0	999	426	0	399	0	0	
11	0	0	0	0	926	423	0	403	0	0	
12	0	0	0	0	818	421	0	407	0	0	
13	0	0	0	0	684	418	0	411	0	0	
14	0	0	0	0	536	416	0	416	0	0	
15	0	0	0	0	387	414	0	421	0	0	
0	0	0	0	0	259	413	0	425	0	0	
1	0	0	0	0	177	414	0	429	0	0	
2	0	0	0	0	153	416	0	432	0	0	
3	0	0	0	0	193	419	0	434	0	0	
4	0	0	0	0	288	424	0	436	0	0	
5	0	0	0	0	423	430	0	436	0	0	
6	0	0	0	0	575	435	0	436	0	0	
7	0	0	0	0	725	441	0	436	0	0	
8	0	0	0	0	855	447	0	436	0	0	
9	0	0	0	0	951	453	0	436	0	0	
10	0	0	0	0	1008	458	0	436	0	0	
11	0	0	0	0	1019	463	0	438	0	0	
12	0	0	0	0	984	467	0	440	0	0	
13	0	0	0	0	908	470	0	442	0	0	
14	0	0	0	0	794	471	0	445	0	0	
15	0	0	0	0	655	470	0	448	0	0	
0	0	0	0	0	501	468	0	451	0	0	
1	0	0	0	0	342	464	0	452	0	0	
2	0	0	0	0	193	460	0	453	0	0	
3	0	0	0	0	63	454	0	453	0	0	
4	0	0	0	0	0	448	0	452	0	0	
5	0	0	0	0	0	443	0	449	0	0	
6	0	0	0	0	0	439	0	446	0	0	
7	0	0	0	0	16	436	0	443	0	0	
8	0	0	0	0	106	435	0	440	0	0	
9	0	0	0	0	241	437	0	437	0	0	
10	0	0	0	0	406	440	0	435	0	0	
11	0	0	0	0	581	443	0	433	0	0	
12	0	0	0	0	750	448	0	432	0	0	
13	0	0	0	0	894	454	0	432	0	0	
14	0	0	0	0	1004	459	0	433	0	0	
15	0	0	0	0	1021	463	0	435	0	0	
0	0	0	0	0	1021	467	0	437	0	0	
1	0	0	0	0	1018	470	0	439	0	0	
2	0	0	0	0	954	470	0	441	0	0	
3	0	0	0	0	851	469	0	444	0	0	
4	0	0	0	0	719	466	0	447	0	0	
5	0	0	0	0	567	462	0	448	0	0	
6	0	0	0	0	406	456	0	450	0	0	
7	0	0	0	0	249	451	0	451	0	0	
8	0	0	0	0	111	446	0	451	0	0	
9	0	0	0	0	6	443	0	451	0	0	
10	0	0	0	0	0	441	0	452	0	0	
11	0	0	0	0	0	441	0	452	0	0	
12	0	0	0	0	25	444	0	453	0	0	
13	0	0	0	0	107	447	0	454	0	0	
14	0	0	0	0	218	451	0	454	0	0	
15	0	0	0	0	344	457	0	455	0	0	
0	0	0	0	0	471	463	0	455	0	0	
1	0	0	0	0	584	469	0	457	0	0	
2	0	0	0	0	673	474	0	458	0	0	
3	0	0	0	0	731	480	0	460	0	0	
4	0	0	0	0	755	484	0	462	0	0	
5	0	0	0	0	744	487	0	464	0	0	
6	0	0	0	0	701	488	0	467	0	0	
7	0	0	0	0	631	488	0	471	0	0	
8	0	0	0	0	541	486	0	473	0	0	
9	0	0	0	0	440	482	0	476	0	0	
10	0	0	0	0	336	477	0	478	0	0	
11	0	0	0	0	238	472	0	479	0	0	
12	0	0	0	0	156	466	0	478	0	0	
13	0	0	0	0	101	461	0	476	0	0	
14	0	0	0	0	90	457	0	473	0	0	
15	0	0	0	0	129	454	0	470	0	0	
0	0	0	0	0	216	454	0	467	0	0	
1	0	0	0	0	339	455	0	463	0	0	
2	0	0	0	0	487	458	0	462	0	0	
3	0	0	0	0	643	463	0	462	0	0	
4	0	0	0	0	792	471	0	465	0	0	
5	0	0	0	0	920	480	0	469	0	0	
6	0	0	0	0	1021	491	0	476	0	0	
7	0	0	0	0	1021	502	0	483	0	0	
8	0	0	0	0	1021	511	0	492	0	0	
9	0	0	0	0	1021	519	0	500	0	0	
10	0	0	0	0	984	525	0	507	0	0	
11	0	0	0	0	901	527	0	513	0	0	
12	0	0	0	0	787	527	0	516	0	0	
13	0	0	0	0	651	524	0	517	0	0	
14	0	0	0	0	503	518	0	515	0	0	
15	0	0	0	0	352	510	0	511	0	0	
0	0	0	0	0	212	502	0	505	0	0	
1	0	0	0	0	97	494	0	498	0	0	
2	0	0	0	0	20	486	0	489	0	0	
3	0	0	0	0	0	480	0	480	0	0	
4	0	0	0	0	11	475	0	472	0	0	
5	0	0	0	0	73	472	0	464	0	0	
6	0	0	0	0	174	472	0	458	0	0	
7	0	0	0	0	302	472	0	453	0	0	
8	0	0	0	0	446	475	0	449	0	0	
9	0	0	0	0	593	478	0	448	0	0	
10	0	0	0	0	732	483	0	449	0	0	
11	0	0	0	0	846	487	0	451	0	0	
12	0	0	0	0	927	492	0	455	0	0	
13	0	0	0	0	968	496	0	460	0	0	
14	0	0	0	0	967	498	0	466	0	0	
15	0	0	0	0	924	499	0	472	0	0	
0	0	0	0	0	841	499	0	477	0	0	
1	0	0	0	0	728	498	0	482	0	0	
2	0	0	0	0	593	496	0	486	0	0	
3	0	0	0	0	449	494	0	488	0	0	
4	0	0	0	0	309	492	0	489	0	0	
5	0	0	0	0	196	489	0	489	0	0	
6	0	0	0	0	126	489	0	487	0	0	
7	0	0	0	0	108	489	0	485	0	0	
8	0	0	0	0	143	491	0	482	0	0	
9	0	0	0	0	226	494	0	480	0	0	
10	0	0	0	0	343	498	0	477	0	0	
11	0	0	0	0	477	502	0	476	0	0	
12	0	0	0	0	612	506	0	475	0	0	
13	0	0	0	0	732	510	0	476	0	0	
14	0	0	0	0	824	513	0	476	0	0	
15	0	0	0	0	881	516	0	478	0	0	
0	0	0	0	0	902	517	0	480	0	0	
1	0	0	0	0	883	516	0	483	0	0	
2	0	0	0	0	827	515	0	486	0	0	
3	0	0	0	0	738	512	0	488	0	0	
4	0	0	0	0	627	509	0	492	0	0	
5	0	0	0	0	503	505	0	494	0	0	
6	0	0	0	0	375	501	0	497	0	0	
7	0	0	0	0	252	497	0	498	0	0	
8	0	0	0	0	147	493	0	498	0	0	
9	0	0	0	0	70	489	0	497	0	0	
10	0	0	0	0	34	487	0	494	0	0	
11	0	0	0	0	46	484	0	491	0	0	
12	0	0	0	0	107	484	0	487	0	0	
13	0	0	0	0	210	484	0	482	0	0	
14	0	0	0	0	344	485	0	477	0	0	
15	0	0	0	0	498	486	0	472	0	0	
0	0	0	0	0	655	487	0	468	0	0	
1	0	0	0	0	805	488	0	464	0	0	
2	0	0	0	0	937	489	0	461	0	0	
3	0	0	0	0	1021	488	0	459	0	0	
4	0	0	0	0	1021	486	0	457	0	0	
5	0	0	0	0	1021	483	0	456	0	0	
6	0	0	0	0	1021	479	0	456	0	0	
7	0	0	0	0	979	475	0	457	0	0	
8	0	0	0	0	891	469	0	458	0	0	
9	0	0	0	0	772	464	0	460	0	0	
10	0	0	0	0	632	460	0	462	0	0	
11	0	0	0	0	481	459	0	466	0	0	
12	0	0	0	0	333	459	0	471	0	0	
13	0	0	0	0	206	463	0	476	0	0	
14	0	0	0	0	113	469	0	482	0	0	
15	0	0	0	0	62	477	0	488	0	0	
0	0	0	0	0	55	486	0	494	0	0	
1	0	0	0	0	83	494	0	497	0	0	
2	0	0	0	0	141	500	0	499	0	0	
3	0	0	0	0	218	505	0	499	0	0	
4	0	0	0	0	303	507	0	497	0	0	
5	0	0	0	0	390	508	0	493	0	0	
6	0	0	0	0	471	507	0	487	0	0	
7	0	0	0	0	540	504	0	481	0	0	
8	0	0	0	0	590	499	0	475	0	0	
9	0	0	0	0	617	495	0	470	0	0	
10	0	0	0	0	620	490	0	465	0	0	
11	0	0	0	0	600	485	0	463	0	0	
12	0	0	0	0	559	480	0	461	0	0	
13	0	0	0	0	502	475	0	460	0	0	
14	0	0	0	0	436	470	0	460	0	0	
15	0	0	0	0	371	465	0	461	0	0	
0	0	0	0	0	326	461	0	460	0	0	
1	0	0	0	0	315	458	0	459	0	0	
2	0	0	0	0	349	456	0	457	0	0	
3	0	0	0	0	428	455	0	454	0	0	
4	0	0	0	0	542	456	0	450	0	0	
5	0	0	0	0	675	457	0	445	0	0	
6	0	0	0	0	810	460	0	440	0	0	
7	0	0	0	0	932	462	0	435	0	0	
8	0	0	0	0	1021	464	0	430	0	0	
9	0	0	0	0	1021	467	0	427	0	0	
10	0	0	0	0	1021	469	0	424	0	0	
11	0	0	0	0	1021	471	0	422	0	0	
12	0	0	0	0	975	472	0	421	0	0	
13	0	0	0	0	888	472	0	422	0	0	
14	0	0	0	0	770	472	0	423	0	0	
15	0	0	0	0	631	472	0	426	0	0	
0	0	0	0	0	480	471	0	429	0	0	
1	0	0	0	0	328	469	0	432	0	0	
2	0	0	0	0	190	467	0	435	0	0	
3	0	0	0	0	79	465	0	437	0	0	
4	0	0	0	0	14	464	0	438	0	0	
5	0	0	0	0	10	463	0	438	0	0	
6	0	0	0	0	76	463	0	438	0	0	
7	0	0	0	0	207	465	0	437	0	0	
8	0	0	0	0	388	467	0	436	0	0	
9	0	0	0	0	598	470	0	435	0	0	
10	0	0	0	0	815	473	0	433	0	0	
11	0	0	0	0	1015	476	0	432	0	0	
12	0	0	0	0	1021	480	0	432	0	0	
13	0	0	0	0	1021	483	0	433	0	0	
14	0	0	0	0	1021	487	0	434	0	0	
15	0	0	0	0	1021	489	0	435	0	0	
0	0	0	0	0	1021	491	0	438	0	0	
1	0	0	0	0	1021	492	0	440	0	0	
2	0	0	0	0	1021	492	0	444	0	0	
3	0	0	0	0	1021	492	0	448	0	0	
4	0	0	0	0	982	491	0	452	0	0	
5	0	0	0	0	899	489	0	455	0	0	
6	0	0	0	0	787	487	0	459	0	0	
7	0	0	0	0	662	487	0	462	0	0	
8	0	0	0	0	542	486	0	464	0	0	
9	0	0	0	0	451	486	0	465	0	0	
10	0	0	0	0	404	487	0	465	0	0	
11	0	0	0	0	408	487	0	464	0	0	
12	0	0	0	0	457	489	0	462	0	0	
13	0	0	0	0	542	490	0	458	0	0	
14	0	0	0	0	647	492	0	454	0	0	
15	0	0	0	0	759	492	0	451	0	0	
0	0	0	0	0	867	494	0	448	0	0	
1	0	0	0	0	963	495	0	446	0	0	
2	0	0	0	0	1021	496	0	445	0	0	
3	0	0	0	0	1021	497	0	445	0	0	
4	0	0	0	0	1021	497	0	446	0	0	
5	0	0	0	0	1021	496	0	446	0	0	
6	0	0	0	0	972	494	0	447	0	0	
7	0	0	0	0	888	491	0	447	0	0	
8	0	0	0	0	775	486	0	446	0	0	
9	0	0	0	0	641	481	0	446	0	0	
10	0	0	0	0	499	476	0	444	0	0	
11	0	0	0	0	363	472	0	443	0	0	
12	0	0	0	0	257	468	0	441	0	0	
13	0	0	0	0	204	465	0	438	0	0	
14	0	0	0	0	214	464	0	435	0	0	
15	0	0	0	0	289	464	0	433	0	0	
0	0	0	0	0	421	465	0	430	0	0	
1	0	0	0	0	588	466	0	427	0	0	
2	0	0	0	0	773	469	0	426	0	0	
3	0	0	0	0	951	472	0	425	0	0	
4	0	0	0	0	1021	475	0	425	0	0	
5	0	0	0	0	1021	479	0	427	0	0	
6	0	0	0	0	1021	482	0	430	0	0	
7	0	0	0	0	1021	486	0	434	0	0	
8	0	0	0	0	1021	489	0	439	0	0	
9	0	0	0	0	1021	491	0	445	0	0	
10	0	0	0	0	1010	492	0	451	0	0	
11	0	0	0	0	940	492	0	457	0	0	
12	0	0	0	0	836	489	0	462	0	0	
13	0	0	0	0	706	486	0	465	0	0	
14	0	0	0	0	559	481	0	466	0	0	
15	0	0	0	0	406	476	0	466	0	0	
0	0	0	0	0	261	471	0	464	0	0	
1	0	0	0	0	143	467	0	460	0	0	
2	0	0	0	0	65	464	0	455	0	0	
3	0	0	0	0	35	463	0	451	0	0	
4	0	0	0	0	50	463	0	446	0	0	
5	0	0	0	0	103	465	0	441	0	0	
6	0	0	0	0	184	468	0	437	0	0	
7	0	0	0	0	278	472	0	434	0	0	
8	0	0	0	0	377	477	0	433	0	0	
9	0	0	0	0	469	482	0	433	0	0	
10	0	0	0	0	544	487	0	435	0	0	
11	0	0	0	0	596	492	0	438	0	0	
12	0	0	0	0	621	496	0	443	0	0	
13	0	0	0	0	620	498	0	448	0	0	
14	0	0	0	0	593	499	0	453	0	0	
15	0	0	0	0	544	499	0	458	0	0	
0	0	0	0	0	479	496	0	462	0	0	
1	0	0	0	0	404	493	0	464	0	0	
2	0	0	0	0	326	488	0	465	0	0	
3	0	0	0	0	252	483	0	465	0	0	
4	0	0	0	0	185	478	0	464	0	0	
5	0	0	0	0	134	474	0	462	0	0	
6	0	0	0	0	107	471	0	458	0	0	
7	0	0	0	0	112	470	0	454	0	0	
8	0	0	0	0	149	470	0	451	0	0	
9	0	0	0	0	215	472	0	447	0	0	
10	0	0	0	0	304	475	0	444	0	0	
11	0	0	0	0	409	478	0	441	0	0	
12	0	0	0	0	521	480	0	439	0	0	
13	0	0	0	0	635	483	0	438	0	0	
14	0	0	0	0	743	485	0	438	0	0	
15	0	0	0	0	839	487	0	439	0	0	
0	0	0	0	0	912	488	0	441	0	0	
1	0	0	0	0	955	489	0	444	0	0	
2	0	0	0	0	962	489	0	449	0	0	
3	0	0	0	0	932	488	0	454	0	0	
4	0	0	0	0	865	486	0	458	0	0	
5	0	0	0	0	768	483	0	462	0	0	
6	0	0	0	0	649	481	0	466	0	0	
7	0	0	0	0	524	479	0	469	0	0	
8	0	0	0	0	412	478	0	471	0	0	
9	0	0	0	0	336	478	0	472	0	0	
10	0	0	0	0	310	480	0	473	0	0	
11	0	0	0	0	336	484	0	473	0	0	
12	0	0	0	0	406	488	0	475	0	0	
13	0	0	0	0	504	495	0	475	0	0	
14	0	0	0	0	613	501	0	476	0	0	
15	0	0	0	0	716	507	0	476	0	0	
0	0	0	0	0	800	513	0	478	0	0	
1	0	0	0	0	857	518	0	479	0	0	
2	0	0	0	0	881	523	0	481	0	0	
3	0	0	0	0	871	526	0	482	0	0	
4	0	0	0	0	825	529	0	483	0	0	
5	0	0	0	0	750	530	0	485	0	0	
6	0	0	0	0	651	530	0	486	0	0	
7	0	0	0	0	536	529	0	487	0	0	
8	0	0	0	0	415	527	0	487	0	0	
9	0	0	0	0	296	523	0	487	0	0	
10	0	0	0	0	188	517	0	485	0	0	
11	0	0	0	0	96	510	0	482	0	0	
12	0	0	0	0	22	501	0	476	0	0	
13	0	0	0	0	0	491	0	470	0	0	
14	0	0	0	0	0	481	0	461	0	0	
15	0	0	0	0	0	472	0	452	0	0	
0	0	0	0	0	0	464	0	443	0	0	
1	0	0	0	0	20	457	0	434	0	0	
2	0	0	0	0	56	453	0	426	0	0	
3	0	0	0	0	100	451	0	420	0	0	
4	0	0	0	0	150	451	0	415	0	0	
5	0	0	0	0	200	453	0	414	0	0	
6	0	0	0	0	248	457	0	414	0	0	
7	0	0	0	0	289	462	0	417	0	0	
8	0	0	0	0	323	467	0	421	0	0	
9	0	0	0	0	346	473	0	427	0	0	
10	0	0	0	0	358	479	0	435	0	0	
11	0	0	0	0	360	483	0	443	0	0	
12	0	0	0	0	352	487	0	451	0	0	
13	0	0	0	0	335	490	0	458	0	0	
14	0	0	0	0	313	492	0	464	0	0	
15	0	0	0	0	288	494	0	470	0	0	
0	0	0	0	0	262	495	0	475	0	0	
1	0	0	0	0	240	495	0	477	0	0	
2	0	0	0	0	229	496	0	479	0	0	
3	0	0	0	0	231	498	0	479	0	0	
4	0	0	0	0	248	500	0	479	0	0	
5	0	0	0	0	280	503	0	477	0	0	
6	0	0	0	0	320	505	0	476	0	0	
7	0	0	0	0	367	508	0	473	0	0	
8	0	0	0	0	415	511	0	470	0	0	
9	0	0	0	0	462	513	0	467	0	0	
10	0	0	0	0	507	514	0	463	0	0	
11	0	0	0	0	543	513	0	461	0	0	
12	0	0	0	0	568	512	0	458	0	0	
13	0	0	0	0	576	509	0	456	0	0	
14	0	0	0	0	566	505	0	455	0	0	
15	0	0	0	0	539	500	0	454	0	0	
0	0	0	0	0	496	494	0	454	0	0	
1	0	0	0	0	441	487	0	453	0	0	
2	0	0	0	0	380	481	0	453	0	0	
3	0	0	0	0	319	475	0	453	0	0	
4	0	0	0	0	271	471	0	453	0	0	
5	0	0	0	0	253	467	0	453	0	0	
6	0	0	0	0	276	466	0	452	0	0	
7	0	0	0	0	341	467	0	452	0	0	
8	0	0	0	0	442	469	0	452	0	0	
9	0	0	0	0	564	473	0	451	0	0	
10	0	0	0	0	693	477	0	450	0	0	
11	0	0	0	0	812	481	0	449	0	0	
12	0	0	0	0	914	486	0	448	0	0	
13	0	0	0	0	991	491	0	447	0	0	
14	0	0	0	0	1021	495	0	448	0	0	
15	0	0	0	0	1021	498	0	448	0	0	
0	0	0	0	0	1013	500	0	448	0	0	
1	0	0	0	0	959	501	0	449	0	0	
2	0	0	0	0	871	501	0	451	0	0	
3	0	0	0	0	755	500	0	453	0	0	
4	0	0	0	0	620	497	0	455	0	0	
5	0	0	0	0	475	493	0	458	0	0	
6	0	0	0	0	328	488	0	460	0	0	
7	0	0	0	0	194	484	0	463	0	0	
8	0	0	0	0	85	480	0	465	0	0	
9	0	0	0	0	14	477	0	467	0	0	
10	0	0	0	0	0	476	0	468	0	0	
11	0	0	0	0	28	478	0	470	0	0	
12	0	0	0	0	109	481	0	471	0	0	
13	0	0	0	0	227	486	0	473	0	0	
14	0	0	0	0	363	493	0	474	0	0	
15	0	0	0	0	503	500	0	475	0	0	
0	0	0	0	0	631	508	0	477	0	0	
1	0	0	0	0	734	514	0	478	0	0	
2	0	0	0	0	803	521	0	480	0	0	
3	0	0	0	0	837	526	0	482	0	0	
4	0	0	0	0	832	531	0	484	0	0	
5	0	0	0	0	792	533	0	487	0	0	
6	0	0	0	0	719	534	0	489	0	0	
7	0	0	0	0	623	534	0	492	0	0	
8	0	0	0	0	512	531	0	493	0	0	
9	0	0	0	0	393	526	0	493	0	0	
10	0	0	0	0	278	519	0	492	0	0	
11	0	0	0	0	174	512	0	489	0	0	
12	0	0	0	0	87	503	0	484	0	0	
13	0	0	0	0	23	494	0	478	0	0	
14	0	0	0	0	0	485	0	471	0	0	
15	0	0	0	0	0	476	0	462	0	0	
0	0	0	0	0	29	469	0	454	0	0	
1	0	0	0	0	85	463	0	445	0	0	
2	0	0	0	0	157	458	0	437	0	0	
3	0	0	0	0	237	455	0	431	0	0	
4	0	0	0	0	317	454	0	426	0	0	
5	0	0	0	0	389	454	0	424	0	0	
6	0	0	0	0	448	455	0	424	0	0	
7	0	0	0	0	488	458	0	425	0	0	
8	0	0	0	0	509	462	0	429	0	0	
9	0	0	0	0	508	465	0	435	0	0	
10	0	0	0	0	488	470	0	441	0	0	
11	0	0	0	0	454	474	0	450	0	0	
12	0	0	0	0	409	478	0	459	0	0	
13	0	0	0	0	359	482	0	468	0	0	
14	0	0	0	0	307	486	0	476	0	0	
15	0	0	0	0	259	489	0	484	0	0	
0	0	0	0	0	217	492	0	489	0	0	
1	0	0	0	0	188	494	0	492	0	0	
2	0	0	0	0	181	497	0	492	0	0	
3	0	0	0	0	200	499	0	492	0	0	
4	0	0	0	0	246	502	0	489	0	0	
5	0	0	0	0	313	504	0	484	0	0	
6	0	0	0	0	397	505	0	479	0	0	
7	0	0	0	0	487	507	0	473	0	0	
8	0	0	0	0	574	506	0	467	0	0	
9	0	0	0	0	650	505	0	460	0	0	
10	0	0	0	0	711	504	0	455	0	0	
11	0	0	0	0	753	503	0	451	0	0	
12	0	0	0	0	769	500	0	448	0	0	
13	0	0	0	0	759	497	0	446	0	0	
14	0	0	0	0	720	494	0	446	0	0	
15	0	0	0	0	659	491	0	447	0	0	
0	0	0	0	0	577	487	0	448	0	0	
1	0	0	0	0	484	483	0	450	0	0	
2	0	0	0	0	386	480	0	451	0	0	
3	0	0	0	0	291	476	0	453	0	0	
4	0	0	0	0	212	474	0	455	0	0	
5	0	0	0	0	160	473	0	455	0	0	
6	0	0	0	0	147	472	0	455	0	0	
7	0	0	0	0	174	473	0	454	0	0	
8	0	0	0	0	236	475	0	452	0	0	
9	0	0	0	0	319	477	0	450	0	0	
10	0	0	0	0	413	479	0	448	0	0	
11	0	0	0	0	504	482	0	445	0	0	
12	0	0	0	0	582	485	0	443	0	0	
13	0	0	0	0	638	487	0	442	0	0	
14	0	0	0	0	668	490	0	442	0	0	
15	0	0	0	0	671	492	0	443	0	0	
0	0	0	0	0	648	493	0	444	0	0	
1	0	0	0	0	601	492	0	445	0	0	
2	0	0	0	0	535	491	0	446	0	0	
3	0	0	0	0	457	488	0	448	0	0	
4	0	0	0	0	373	484	0	449	0	0	
5	0	0	0	0	290	480	0	449	0	0	
6	0	0	0	0	215	475	0	450	0	0	
7	0	0	0	0	150	471	0	450	0	0	
8	0	0	0	0	102	469	0	451	0	0	
9	0	0	0	0	74	468	0	451	0	0	
10	0	0	0	0	71	469	0	452	0	0	
11	0	0	0	0	95	472	0	452	0	0	
12	0	0	0	0	140	475	0	452	0	0	
13	0	0	0	0	201	480	0	452	0	0	
14	0	0	0	0	269	485	0	450	0	0	
15	0	0	0	0	336	489	0	448	0	0	
0	0	0	0	0	397	492	0	446	0	0	
1	0	0	0	0	446	495	0	443	0	0	
2	0	0	0	0	479	496	0	440	0	0	
3	0	0	0	0	494	496	0	437	0	0	
4	0	0	0	0	492	495	0	434	0	0	
5	0	0	0	0	472	492	0	432	0	0	
6	0	0	0	0	440	490	0	431	0	0	
7	0	0	0	0	399	487	0	430	0	0	
8	0	0	0	0	352	483	0	430	0	0	
9	0	0	0	0	303	479	0	431	0	0	
10	0	0	0	0	258	476	0	431	0	0	
11	0	0	0	0	217	472	0	432	0	0	
12	0	0	0	0	184	470	0	432	0	0	
13	0	0	0	0	166	467	0	430	0	0	
14	0	0	0	0	167	465	0	428	0	0	
15	0	0	0	0	191	463	0	424	0	0	
0	0	0	0	0	239	462	0	419	0	0	
1	0	0	0	0	305	461	0	415	0	0	
2	0	0	0	0	386	460	0	409	0	0	
3	0	0	0	0	472	459	0	404	0	0	
4	0	0	0	0	561	459	0	400	0	0	
5	0	0	0	0	646	459	0	397	0	0	
6	0	0	0	0	722	460	0	396	0	0	
7	0	0	0	0	783	462	0	396	0	0	
8	0	0	0	0	823	464	0	399	0	0	
9	0	0	0	0	836	467	0	404	0	0	
10	0	0	0	0	820	471	0	411	0	0	
11	0	0	0	0	776	474	0	419	0	0	
12	0	0	0	0	706	476	0	427	0	0	
13	0	0	0	0	616	478	0	435	0	0	
14	0	0	0	0	513	478	0	441	0	0	
15	0	0	0	0	406	477	0	446	0	0	
0	0	0	0	0	308	476	0	449	0	0	
1	0	0	0	0	238	474	0	449	0	0	
2	0	0	0	0	205	472	0	447	0	0	
3	0	0	0	0	217	471	0	443	0	0	
4	0	0	0	0	268	471	0	437	0	0	
5	0	0	0	0	347	471	0	431	0	0	
6	0	0	0	0	441	472	0	424	0	0	
7	0	0	0	0	536	475	0	419	0	0	
8	0	0	0	0	622	477	0	413	0	0	
9	0	0	0	0	687	480	0	410	0	0	
10	0	0	0	0	728	484	0	408	0	0	
11	0	0	0	0	741	487	0	408	0	0	
12	0	0	0	0	725	488	0	408	0	0	
13	0	0	0	0	684	488	0	411	0	0	
14	0	0	0	0	620	487	0	415	0	0	
15	0	0	0	0	539	484	0	419	0	0	
0	0	0	0	0	448	480	0	423	0	0	
1	0	0	0	0	354	475	0	426	0	0	
2	0	0	0	0	267	470	0	429	0	0	
3	0	0	0	0	191	464	0	431	0	0	
4	0	0	0	0	137	459	0	431	0	0	
5	0	0	0	0	123	456	0	430	0	0	
6	0	0	0	0	156	453	0	428	0	0	
7	0	0	0	0	239	451	0	425	0	0	
8	0	0	0	0	363	452	0	420	0	0	
9	0	0	0	0	513	453	0	416	0	0	
10	0	0	0	0	669	456	0	412	0	0	
11	0	0	0	0	813	460	0	409	0	0	
12	0	0	0	0	932	464	0	407	0	0	
13	0	0	0	0	1016	470	0	406	0	0	
14	0	0	0	0	1021	475	0	407	0	0	
15	0	0	0	0	1021	480	0	409	0	0	
0	0	0	0	0	998	483	0	412	0	0	
1	0	0	0	0	925	486	0	416	0	0	
2	0	0	0	0	818	486	0	420	0	0	
3	0	0	0	0	687	484	0	423	0	0	
4	0	0	0	0	540	480	0	425	0	0	
5	0	0	0	0	388	474	0	427	0	0	
6	0	0	0	0	242	467	0	426	0	0	
7	0	0	0	0	114	460	0	424	0	0	
8	0	0	0	0	11	454	0	422	0	0	
9	0	0	0	0	0	448	0	419	0	0	
10	0	0	0	0	0	446	0	415	0	0	
11	0	0	0	0	0	445	0	412	0	0	
12	0	0	0	0	31	447	0	409	0	0	
13	0	0	0	0	103	450	0	407	0	0	
14	0	0	0	0	200	455	0	404	0	0	
15	0	0	0	0	314	460	0	404	0	0	
0	0	0	0	0	438	466	0	403	0	0	
1	0	0	0	0	566	472	0	404	0	0	
2	0	0	0	0	690	476	0	406	0	0	
3	0	0	0	0	800	480	0	409	0	0	
4	0	0	0	0	887	484	0	412	0	0	
5	0	0	0	0	943	487	0	416	0	0	
6	0	0	0	0	963	488	0	421	0	0	
7	0	0	0	0	944	487	0	426	0	0	
8	0	0	0	0	890	487	0	432	0	0	
9	0	0	0	0	803	485	0	437	0	0	
10	0	0	0	0	694	483	0	442	0	0	
11	0	0	0	0	570	482	0	447	0	0	
12	0	0	0	0	449	480	0	451	0	0	
13	0	0	0	0	350	480	0	454	0	0	
14	0	0	0	0	291	481	0	455	0	0	
15	0	0	0	0	276	483	0	456	0	0	
0	0	0	0	0	305	487	0	456	0	0	
1	0	0	0	0	369	490	0	455	0	0	
2	0	0	0	0	453	493	0	452	0	0	
3	0	0	0	0	544	495	0	448	0	0	
4	0	0	0	0	630	495	0	443	0	0	
5	0	0	0	0	704	494	0	436	0	0	
6	0	0	0	0	764	492	0	431	0	0	
7	0	0	0	0	804	487	0	425	0	0	
8	0	0	0	0	824	483	0	420	0	0	
9	0	0	0	0	816	478	0	416	0	0	
10	0	0	0	0	781	473	0	414	0	0	
11	0	0	0	0	722	468	0	414	0	0	
12	0	0	0	0	644	463	0	414	0	0	
13	0	0	0	0	553	460	0	416	0	0	
14	0	0	0	0	455	457	0	419	0	0	
15	0	0	0	0	359	456	0	423	0	0	
0	0	0	0	0	277	456	0	427	0	0	
1	0	0	0	0	226	458	0	430	0	0	
2	0	0	0	0	216	460	0	433	0	0	
3	0	0	0	0	251	463	0	435	0	0	
4	0	0	0	0	327	467	0	436	0	0	
5	0	0	0	0	431	470	0	436	0	0	
6	0	0	0	0	550	473	0	435	0	0	
7	0	0	0	0	667	475	0	433	0	0	
8	0	0	0	0	768	476	0	430	0	0	
9	0	0	0	0	848	477	0	428	0	0	
10	0	0	0	0	902	477	0	426	0	0	
11	0	0	0	0	927	477	0	425	0	0	
12	0	0	0	0	920	476	0	424	0	0	
13	0	0	0	0	880	475	0	425	0	0	
14	0	0	0	0	808	473	0	426	0	0	
15	0	0	0	0	712	471	0	427	0	0	
0	0	0	0	0	599	468	0	428	0	0	
1	0	0	0	0	477	465	0	430	0	0	
2	0	0	0	0	355	462	0	432	0	0	
3	0	0	0	0	246	459	0	434	0	0	
4	0	0	0	0	163	457	0	435	0	0	
5	0	0	0	0	125	457	0	437	0	0	
6	0	0	0	0	139	458	0	438	0	0	
7	0	0	0	0	209	461	0	440	0	0	
8	0	0	0	0	326	465	0	441	0	0	
9	0	0	0	0	478	472	0	442	0	0	
10	0	0	0	0	647	480	0	444	0	0	
11	0	0	0	0	819	487	0	447	0	0	
12	0	0	0	0	981	495	0	449	0	0	
13	0	0	0	0	1021	503	0	451	0	0	
14	0	0	0	0	1021	508	0	454	0	0	
15	0	0	0	0	1021	511	0	455	0	0	
0	0	0	0	0	1021	512	0	455	0	0	
1	0	0	0	0	1021	511	0	455	0	0	
2	0	0	0	0	1021	508	0	455	0	0	
3	0	0	0	0	1021	502	0	454	0	0	
4	0	0	0	0	983	495	0	451	0	0	
5	0	0	0	0	901	486	0	448	0	0	
6	0	0	0	0	792	477	0	445	0	0	
7	0	0	0	0	664	468	0	440	0	0	
8	0	0	0	0	539	460	0	436	0	0	
9	0	0	0	0	438	453	0	432	0	0	
10	0	0	0	0	377	448	0	427	0	0	
11	0	0	0	0	366	445	0	423	0	0	
12	0	0	0	0	403	444	0	420	0	0	
13	0	0	0	0	479	444	0	417	0	0	
14	0	0	0	0	584	446	0	415	0	0	
15	0	0	0	0	705	448	0	413	0	0	
0	0	0	0	0	832	450	0	412	0	0	
1	0	0	0	0	958	453	0	413	0	0	
2	0	0	0	0	1021	456	0	415	0	0	
3	0	0	0	0	1021	459	0	418	0	0	
4	0	0	0	0	1021	461	0	421	0	0	
5	0	0	0	0	1021	461	0	425	0	0	
6	0	0	0	0	1021	460	0	428	0	0	
7	0	0	0	0	1021	456	0	429	0	0	
8	0	0	0	0	970	450	0	428	0	0	
9	0	0	0	0	879	442	0	425	0	0	
10	0	0	0	0	760	432	0	420	0	0	
11	0	0	0	0	620	421	0	412	0	0	
12	0	0	0	0	480	409	0	402	0	0	
13	0	0	0	0	359	396	0	390	0	0	
14	0	0	0	0	276	385	0	376	0	0	
15	0	0	0	0	242	374	0	360	0	0	
0	0	0	0	0	256	363	0	344	0	0	
1	0	0	0	0	314	353	0	327	0	0	
2	0	0	0	0	406	344	0	310	0	0	
3	0	0	0	0	519	337	0	293	0	0	
4	0	0	0	0	642	331	0	279	0	0	
5	0	0	0	0	764	326	0	267	0	0	
6	0	0	0	0	874	322	0	258	0	0	
7	0	0	0	0	963	319	0	252	0	0	
8	0	0	0	0	1020	317	0	248	0	0	
9	0	0	0	0	1021	315	0	248	0	0	
10	0	0	0	0	999	312	0	249	0	0	
11	0	0	0	0	927	310	0	252	0	0	
12	0	0	0	0	815	307	0	257	0	0	
13	0	0	0	0	672	305	0	263	0	0	
14	0	0	0	0	509	303	0	270	0	0	
15	0	0	0	0	338	301	0	275	0	0	
0	0	0	0	0	175	300	0	280	0	0	
1	0	0	0	0	39	301	0	286	0	0	
2	0	0	0	0	0	303	0	289	0	0	
3	0	0	0	0	0	305	0	291	0	0	
4	0	0	0	0	0	310	0	294	0	0	
5	0	0	0	0	23	316	0	295	0	0	
6	0	0	0	0	92	323	0	298	0	0	
7	0	0	0	0	183	332	0	302	0	0	
8	0	0	0	0	286	343	0	308	0	0	
9	0	0	0	0	390	356	0	316	0	0	
10	0	0	0	0	488	370	0	327	0	0	
11	0	0	0	0	569	385	0	341	0	0	
12	0	0	0	0	627	401	0	357	0	0	
13	0	0	0	0	658	416	0	375	0	0	
14	0	0	0	0	661	432	0	393	0	0	
15	0	0	0	0	638	446	0	413	0	0	
0	0	0	0	0	591	458	0	432	0	0	
1	0	0	0	0	528	468	0	449	0	0	
2	0	0	0	0	457	477	0	464	0	0	
3	0	0	0	0	393	484	0	477	0	0	
4	0	0	0	0	354	489	0	486	0	0	
5	0	0	0	0	355	493	0	492	0	0	
6	0	0	0	0	402	496	0	494	0	0	
7	0	0	0	0	490	498	0	493	0	0	
8	0	0	0	0	606	499	0	490	0	0	
9	0	0	0	0	733	500	0	486	0	0	
10	0	0	0	0	853	500	0	480	0	0	
11	0	0	0	0	958	499	0	473	0	0	
12	0	0	0	0	1021	497	0	466	0	0	
13	0	0	0	0	1021	495	0	459	0	0	
14	0	0	0	0	1021	492	0	454	0	0	
15	0	0	0	0	1017	489	0	449	0	0	
0	0	0	0	0	964	486	0	445	0	0	
1	0	0	0	0	878	482	0	443	0	0	
2	0	0	0	0	764	479	0	443	0	0	
3	0	0	0	0	632	476	0	444	0	0	
4	0	0	0	0	491	473	0	446	0	0	
5	0	0	0	0	349	472	0	450	0	0	
6	0	0	0	0	219	471	0	454	0	0	
7	0	0	0	0	109	472	0	459	0	0	
8	0	0	0	0	27	474	0	464	0	0	
9	0	0	0	0	0	478	0	469	0	0	
10	0	0	0	0	0	483	0	472	0	0	
11	0	0	0	0	52	489	0	476	0	0	
12	0	0	0	0	150	496	0	477	0	0	
13	0	0	0	0	281	503	0	478	0	0	
14	0	0	0	0	434	509	0	479	0	0	
15	0	0	0	0	591	515	0	478	0	0	
0	0	0	0	0	743	520	0	478	0	0	
1	0	0	0	0	875	524	0	477	0	0	
2	0	0	0	0	984	527	0	477	0	0	
3	0	0	0	0	1021	529	0	478	0	0	
4	0	0	0	0	1021	530	0	479	0	0	
5	0	0	0	0	1021	529	0	481	0	0	
6	0	0	0	0	995	527	0	483	0	0	
7	0	0	0	0	920	522	0	484	0	0	
8	0	0	0	0	814	516	0	485	0	0	
9	0	0	0	0	682	509	0	484	0	0	
10	0	0	0	0	537	502	0	483	0	0	
11	0	0	0	0	388	494	0	481	0	0	
12	0	0	0	0	251	487	0	478	0	0	
13	0	0	0	0	143	480	0	473	0	0	
14	0	0	0	0	79	476	0	468	0	0	
15	0	0	0	0	66	473	0	463	0	0	
0	0	0	0	0	101	472	0	458	0	0	
1	0	0	0	0	180	473	0	454	0	0	
2	0	0	0	0	288	476	0	450	0	0	
3	0	0	0	0	414	479	0	447	0	0	
4	0	0	0	0	544	483	0	447	0	0	
5	0	0	0	0	666	488	0	447	0	0	
6	0	0	0	0	768	492	0	448	0	0	
7	0	0	0	0	842	496	0	451	0	0	
8	0	0	0	0	882	499	0	454	0	0	
9	0	0	0	0	886	499	0	456	0	0	
10	0	0	0	0	851	499	0	459	0	0	
11	0	0	0	0	783	497	0	462	0	0	
12	0	0	0	0	687	494	0	463	0	0	
13	0	0	0	0	571	490	0	465	0	0	
14	0	0	0	0	447	487	0	467	0	0	
15	0	0	0	0	324	485	0	469	0	0	
0	0	0	0	0	218	485	0	471	0	0	
1	0	0	0	0	145	486	0	472	0	0	
2	0	0	0	0	117	490	0	474	0	0	
3	0	0	0	0	140	495	0	475	0	0	
4	0	0	0	0	211	500	0	475	0	0	
5	0	0	0	0	319	505	0	473	0	0	
6	0	0	0	0	454	509	0	471	0	0	
7	0	0	0	0	599	511	0	468	0	0	
8	0	0	0	0	742	512	0	465	0	0	
9	0	0	0	0	868	512	0	461	0	0	
10	0	0	0	0	969	510	0	458	0	0	
11	0	0	0	0	1021	507	0	455	0	0	
12	0	0	0	0	1021	503	0	454	0	0	
13	0	0	0	0	1017	497	0	452	0	0	
14	0	0	0	0	959	491	0	452	0	0	
15	0	0	0	0	864	485	0	453	0	0	
0	0	0	0	0	738	478	0	454	0	0	
1	0	0	0	0	593	472	0	455	0	0	
2	0	0	0	0	439	467	0	457	0	0	
3	0	0	0	0	287	464	0	458	0	0	
4	0	0	0	0	150	462	0	459	0	0	
5	0	0	0	0	42	461	0	459	0	0	
6	0	0	0	0	0	461	0	458	0	0	
7	0	0	0	0	0	463	0	457	0	0	
8	0	0	0	0	1	466	0	455	0	0	
9	0	0	0	0	49	470	0	453	0	0	
10	0	0	0	0	121	474	0	451	0	0	
11	0	0	0	0	209	480	0	450	0	0	
12	0	0	0	0	303	484	0	449	0	0	
13	0	0	0	0	392	490	0	449	0	0	
14	0	0	0	0	470	494	0	449	0	0	
15	0	0	0	0	528	497	0	450	0	0	
0	0	0	0	0	564	499	0	452	0	0	
1	0	0	0	0	574	500	0	455	0	0	
2	0	0	0	0	560	499	0	458	0	0	
3	0	0	0	0	526	497	0	461	0	0	
4	0	0	0	0	475	493	0	464	0	0	
5	0	0	0	0	414	488	0	467	0	0	
6	0	0	0	0	347	483	0	469	0	0	
7	0	0	0	0	280	476	0	470	0	0	
8	0	0	0	0	219	471	0	469	0	0	
9	0	0	0	0	166	465	0	467	0	0	
10	0	0	0	0	124	462	0	463	0	0	
11	0	0	0	0	97	460	0	460	0	0	
12	0	0	0	0	85	460	0	455	0	0	
13	0	0	0	0	87	463	0	452	0	0	
14	0	0	0	0	102	467	0	449	0	0	
15	0	0	0	0	129	472	0	448	0	0	
0	0	0	0	0	164	479	0	449	0	0	
1	0	0	0	0	204	487	0	452	0	0	
2	0	0	0	0	248	497	0	457	0	0	
3	0	0	0	0	292	508	0	465	0	0	
4	0	0	0	0	331	518	0	475	0	0	
5	0	0	0	0	365	527	0	485	0	0	
6	0	0	0	0	390	534	0	494	0	0	
7	0	0	0	0	403	537	0	502	0	0	
8	0	0	0	0	405	536	0	507	0	0	
9	0	0	0	0	396	531	0	508	0	0	
10	0	0	0	0	377	523	0	506	0	0	
11	0	0	0	0	351	512	0	502	0	0	
12	0	0	0	0	320	499	0	494	0	0	
13	0	0	0	0	287	487	0	485	0	0	
14	0	0	0	0	254	474	0	473	0	0	
15	0	0	0	0	224	463	0	461	0	0	
0	0	0	0	0	199	454	0	449	0	0	
1	0	0	0	0	179	446	0	437	0	0	
2	0	0	0	0	165	440	0	426	0	0	
3	0	0	0	0	159	436	0	417	0	0	
4	0	0	0	0	159	435	0	411	0	0	
5	0	0	0	0	167	436	0	408	0	0	
6	0	0	0	0	180	440	0	408	0	0	
7	0	0	0	0	197	445	0	411	0	0	
8	0	0	0	0	217	451	0	416	0	0	
9	0	0	0	0	237	457	0	423	0	0	
10	0	0	0	0	256	462	0	431	0	0	
11	0	0	0	0	273	465	0	440	0	0	
12	0	0	0	0	286	467	0	447	0	0	
13	0	0	0	0	296	468	0	455	0	0	
14	0	0	0	0	302	469	0	461	0	0	
15	0	0	0	0	303	467	0	465	0	0	
0	0	0	0	0	304	465	0	467	0	0	
1	0	0	0	0	313	462	0	466	0	0	
2	0	0	0	0	338	458	0	463	0	0	
3	0	0	0	0	386	455	0	458	0	0	
4	0	0	0	0	455	451	0	452	0	0	
5	0	0	0	0	542	448	0	445	0	0	
6	0	0	0	0	639	447	0	439	0	0	
7	0	0	0	0	738	446	0	433	0	0	
8	0	0	0	0	832	448	0	429	0	0	
9	0	0	0	0	916	449	0	426	0	0	
10	0	0	0	0	984	452	0	425	0	0	
11	0	0	0	0	1021	455	0	425	0	0	
12	0	0	0	0	1021	456	0	427	0	0	
13	0	0	0	0	1009	457	0	428	0	0	
14	0	0	0	0	952	457	0	431	0	0	
15	0	0	0	0	863	455	0	433	0	0	
0	0	0	0	0	746	451	0	435	0	0	
1	0	0	0	0	609	447	0	436	0	0	
2	0	0	0	0	463	441	0	437	0	0	
3	0	0	0	0	316	436	0	437	0	0	
4	0	0	0	0	182	432	0	437	0	0	
5	0	0	0	0	70	428	0	436	0	0	
6	0	0	0	0	0	427	0	435	0	0	
7	0	0	0	0	0	428	0	435	0	0	
8	0	0	0	0	0	432	0	435	0	0	
9	0	0	0	0	0	437	0	436	0	0	
10	0	0	0	0	23	443	0	436	0	0	
11	0	0	0	0	69	450	0	436	0	0	
12	0	0	0	0	128	457	0	436	0	0	
13	0	0	0	0	193	463	0	436	0	0	
14	0	0	0	0	258	469	0	437	0	0	
15	0	0	0	0	318	473	0	437	0	0	
0	0	0	0	0	369	476	0	438	0	0	
1	0	0	0	0	406	476	0	438	0	0	
2	0	0	0	0	430	475	0	440	0	0	
3	0	0	0	0	438	473	0	441	0	0	
4	0	0	0	0	432	470	0	443	0	0	
5	0	0	0	0	413	466	0	446	0	0	
6	0	0	0	0	386	462	0	448	0	0	
7	0	0	0	0	352	458	0	449	0	0	
8	0	0	0	0	318	454	0	449	0	0	
9	0	0	0	0	294	449	0	447	0	0	
10	0	0	0	0	291	446	0	443	0	0	
11	0	0	0	0	317	441	0	437	0	0	
12	0	0	0	0	373	437	0	430	0	0	
13	0	0	0	0	454	432	0	422	0	0	
14	0	0	0	0	553	428	0	414	0	0	
15	0	0	0	0	661	424	0	406	0	0	
0	0	0	0	0	768	421	0	399	0	0	
1	0	0	0	0	867	419	0	394	0	0	
2	0	0	0	0	948	417	0	390	0	0	
3	0	0	0	0	1004	415	0	389	0	0	
4	0	0	0	0	1021	415	0	390	0	0	
5	0	0	0	0	1008	415	0	392	0	0	
6	0	0	0	0	952	415	0	396	0	0	
7	0	0	0	0	861	415	0	401	0	0	
8	0	0	0	0	742	415	0	406	0	0	
9	0	0	0	0	601	415	0	411	0	0	
10	0	0	0	0	453	416	0	416	0	0	
11	0	0	0	0	309	417	0	421	0	0	
12	0	0	0	0	192	420	0	425	0	0	
13	0	0	0	0	120	423	0	428	0	0	
14	0	0	0	0	107	428	0	430	0	0	
15	0	0	0	0	153	432	0	431	0	0	
0	0	0	0	0	250	436	0	429	0	0	
1	0	0	0	0	383	440	0	427	0	0	
2	0	0	0	0	532	444	0	424	0	0	
3	0	0	0	0	677	446	0	420	0	0	
4	0	0	0	0	802	447	0	416	0	0	
5	0	0	0	0	896	447	0	414	0	0	
6	0	0	0	0	953	447	0	412	0	0	
7	0	0	0	0	968	447	0	411	0	0	
8	0	0	0	0	940	445	0	410	0	0	
9	0	0	0	0	872	443	0	412	0	0	
10	0	0	0	0	768	441	0	414	0	0	
11	0	0	0	0	641	439	0	417	0	0	
12	0	0	0	0	499	436	0	420	0	0	
13	0	0	0	0	353	435	0	424	0	0	
14	0	0	0	0	217	434	0	429	0	0	
15	0	0	0	0	99	435	0	435	0	0	
0	0	0	0	0	9	438	0	440	0	0	
1	0	0	0	0	0	442	0	446	0	0	
2	0	0	0	0	0	448	0	450	0	0	
3	0	0	0	0	46	454	0	453	0	0	
4	0	0	0	0	153	460	0	455	0	0	
5	0	0	0	0	299	465	0	455	0	0	
6	0	0	0	0	473	468	0	453	0	0	
7	0	0	0	0	656	469	0	450	0	0	
8	0	0	0	0	831	468	0	445	0	0	
9	0	0	0	0	982	465	0	439	0	0	
10	0	0	0	0	1021	460	0	432	0	0	
11	0	0	0	0	1021	454	0	425	0	0	
12	0	0	0	0	1021	446	0	418	0	0	
13	0	0	0	0	1021	438	0	411	0	0	
14	0	0	0	0	990	431	0	406	0	0	
15	0	0	0	0	903	423	0	402	0	0	
0	0	0	0	0	781	415	0	399	0	0	
1	0	0	0	0	635	409	0	396	0	0	
2	0	0	0	0	476	404	0	396	0	0	
3	0	0	0	0	319	400	0	396	0	0	
4	0	0	0	0	186	399	0	397	0	0	
5	0	0	0	0	99	400	0	400	0	0	
6	0	0	0	0	71	403	0	403	0	0	
7	0	0	0	0	105	408	0	408	0	0	
8	0	0	0	0	198	415	0	412	0	0	
9	0	0	0	0	333	422	0	416	0	0	
10	0	0	0	0	496	430	0	419	0	0	
11	0	0	0	0	671	437	0	420	0	0	
12	0	0	0	0	841	443	0	422	0	0	
13	0	0	0	0	994	449	0	423	0	0	
14	0	0	0	0	1021	454	0	424	0	0	
15	0	0	0	0	1021	458	0	425	0	0	
0	0	0	0	0	1021	461	0	426	0	0	
1	0	0	0	0	1021	463	0	428	0	0	
2	0	0	0	0	1021	464	0	431	0	0	
3	0	0	0	0	984	464	0	434	0	0	
4	0	0	0	0	898	463	0	438	0	0	
5	0	0	0	0	783	461	0	441	0	0	
6	0	0	0	0	647	460	0	445	0	0	
7	0	0	0	0	499	457	0	448	0	0	
8	0	0	0	0	355	455	0	450	0	0	
9	0	0	0	0	234	455	0	450	0	0	
10	0	0	0	0	151	454	0	448	0	0	
11	0	0	0	0	111	454	0	446	0	0	
12	0	0	0	0	117	454	0	443	0	0	
13	0	0	0	0	162	455	0	440	0	0	
14	0	0	0	0	239	457	0	436	0	0	
15	0	0	0	0	336	460	0	434	0	0	
0	0	0	0	0	444	463	0	433	0	0	
1	0	0	0	0	553	466	0	433	0	0	
2	0	0	0	0	652	470	0	435	0	0	
3	0	0	0	0	731	472	0	438	0	0	
4	0	0	0	0	781	475	0	441	0	0	
5	0	0	0	0	802	476	0	445	0	0	
6	0	0	0	0	789	477	0	449	0	0	
7	0	0	0	0	746	476	0	454	0	0	
8	0	0	0	0	676	475	0	457	0	0	
9	0	0	0	0	586	473	0	460	0	0	
10	0	0	0	0	485	471	0	462	0	0	
11	0	0	0	0	382	469	0	463	0	0	
12	0	0	0	0	297	467	0	463	0	0	
13	0	0	0	0	246	467	0	462	0	0	
14	0	0	0	0	241	467	0	460	0	0	
15	0	0	0	0	287	468	0	458	0	0	
0	0	0	0	0	376	471	0	455	0	0	
1	0	0	0	0	496	474	0	454	0	0	
2	0	0	0	0	634	478	0	452	0	0	
3	0	0	0	0	776	483	0	451	0	0	
4	0	0	0	0	910	487	0	452	0	0	
5	0	0	0	0	1021	492	0	455	0	0	
6	0	0	0	0	1021	497	0	459	0	0	
7	0	0	0	0	1021	501	0	464	0	0	
8	0	0	0	0	1021	505	0	470	0	0	
9	0	0	0	0	1021	508	0	477	0	0	
10	0	0	0	0	1008	511	0	484	0	0	
11	0	0	0	0	943	513	0	492	0	0	
12	0	0	0	0	847	514	0	498	0	0	
13	0	0	0	0	728	513	0	504	0	0	
14	0	0	0	0	593	512	0	507	0	0	
15	0	0	0	0	456	511	0	509	0	0	
0	0	0	0	0	331	508	0	509	0	0	
1	0	0	0	0	240	507	0	506	0	0	
2	0	0	0	0	198	505	0	502	0	0	
3	0	0	0	0	210	504	0	497	0	0	
4	0	0	0	0	275	505	0	491	0	0	
5	0	0	0	0	386	506	0	486	0	0	
6	0	0	0	0	527	507	0	480	0	0	
7	0	0	0	0	683	508	0	475	0	0	
8	0	0	0	0	838	508	0	470	0	0	
9	0	0	0	0	976	509	0	467	0	0	
10	0	0	0	0	1021	509	0	465	0	0	
11	0	0	0	0	1021	510	0	464	0	0	
12	0	0	0	0	1021	509	0	464	0	0	
13	0	0	0	0	1021	508	0	466	0	0	
14	0	0	0	0	1005	507	0	468	0	0	
15	0	0	0	0	934	505	0	472	0	0	
0	0	0	0	0	829	503	0	475	0	0	
1	0	0	0	0	701	501	0	478	0	0	
2	0	0	0	0	558	499	0	481	0	0	
3	0	0	0	0	413	499	0	484	0	0	
4	0	0	0	0	280	499	0	487	0	0	
5	0	0	0	0	182	501	0	489	0	0	
6	0	0	0	0	130	505	0	491	0	0	
7	0	0	0	0	130	510	0	492	0	0	
8	0	0	0	0	177	517	0	494	0	0	
9	0	0	0	0	260	524	0	495	0	0	
10	0	0	0	0	366	531	0	495	0	0	
11	0	0	0	0	480	537	0	496	0	0	
12	0	0	0	0	587	542	0	496	0	0	
13	0	0	0	0	676	545	0	495	0	0	
14	0	0	0	0	740	548	0	495	0	0	
15	0	0	0	0	774	549	0	495	0	0	
0	0	0	0	0	776	548	0	495	0	0	
1	0	0	0	0	750	547	0	496	0	0	
2	0	0	0	0	695	543	0	497	0	0	
3	0	0	0	0	620	539	0	498	0	0	
4	0	0	0	0	530	532	0	498	0	0	
5	0	0	0	0	434	526	0	497	0	0	
6	0	0	0	0	339	518	0	496	0	0	
7	0	0	0	0	252	510	0	494	0	0	
8	0	0	0	0	178	502	0	489	0	0	
9	0	0	0	0	123	494	0	484	0	0	
10	0	0	0	0	95	487	0	478	0	0	
11	0	0	0	0	94	483	0	471	0	0	
12	0	0	0	0	120	479	0	465	0	0	
13	0	0	0	0	166	477	0	459	0	0	
14	0	0	0	0	227	477	0	454	0	0	
15	0	0	0	0	294	478	0	450	0	0	
0	0	0	0	0	362	480	0	448	0	0	
1	0	0	0	0	425	483	0	448	0	0	
2	0	0	0	0	477	486	0	450	0	0	
3	0	0	0	0	515	491	0	454	0	0	
4	0	0	0	0	537	495	0	459	0	0	
5	0	0	0	0	540	499	0	465	0	0	
6	0	0	0	0	527	503	0	473	0	0	
7	0	0	0	0	499	505	0	480	0	0	
8	0	0	0	0	460	508	0	487	0	0	
9	0	0	0	0	416	509	0	494	0	0	
10	0	0	0	0	368	510	0	499	0	0	
11	0	0	0	0	324	510	0	501	0	0	
12	0	0	0	0	290	511	0	502	0	0	
13	0	0	0	0	279	510	0	499	0	0	
14	0	0	0	0	300	510	0	495	0	0	
15	0	0	0	0	355	510	0	489	0	0	
0	0	0	0	0	438	510	0	481	0	0	
1	0	0	0	0	537	509	0	473	0	0	
2	0	0	0	0	640	508	0	465	0	0	
3	0	0	0	0	736	507	0	456	0	0	
4	0	0	0	0	817	505	0	449	0	0	
5	0	0	0	0	880	504	0	443	0	0	
6	0	0	0	0	921	502	0	438	0	0	
7	0	0	0	0	936	500	0	435	0	0	
8	0	0	0	0	921	498	0	435	0	0	
9	0	0	0	0	875	495	0	436	0	0	
10	0	0	0	0	801	492	0	439	0	0	
11	0	0	0	0	703	489	0	443	0	0	
12	0	0	0	0	589	485	0	447	0	0	
13	0	0	0	0	467	481	0	451	0	0	
14	0	0	0	0	345	478	0	455	0	0	
15	0	0	0	0	234	475	0	458	0	0	
0	0	0	0	0	139	473	0	460	0	0	
1	0	0	0	0	66	473	0	462	0	0	
2	0	0	0	0	22	475	0	463	0	0	
3	0	0	0	0	5	478	0	463	0	0	
4	0	0	0	0	17	482	0	463	0	0	
5	0	0	0	0	51	487	0	461	0	0	
6	0	0	0	0	103	492	0	460	0	0	
7	0	0	0	0	167	497	0	457	0	0	
8	0	0	0	0	237	501	0	455	0	0	
9	0	0	0	0	305	505	0	454	0	0	
10	0	0	0	0	366	507	0	452	0	0	
11	0	0	0	0	417	508	0	452	0	0	
12	0	0	0	0	453	507	0	451	0	0	
13	0	0	0	0	474	506	0	452	0	0	
14	0	0	0	0	479	504	0	454	0	0	
15	0	0	0	0	469	501	0	456	0	0	
0	0	0	0	0	446	497	0	459	0	0	
1	0	0	0	0	414	494	0	462	0	0	
2	0	0	0	0	376	491	0	464	0	0	
3	0	0	0	0	337	488	0	467	0	0	
4	0	0	0	0	303	487	0	469	0	0	
5	0	0	0	0	281	486	0	471	0	0	
6	0	0	0	0	280	487	0	471	0	0	
7	0	0	0	0	303	491	0	472	0	0	
8	0	0	0	0	347	495	0	471	0	0	
9	0	0	0	0	406	499	0	470	0	0	
10	0	0	0	0	472	504	0	468	0	0	
11	0	0	0	0	541	508	0	465	0	0	
12	0	0	0	0	609	511	0	463	0	0	
13	0	0	0	0	674	514	0	460	0	0	
14	0	0	0	0	733	516	0	459	0	0	
15	0	0	0	0	781	518	0	458	0	0	
0	0	0	0	0	811	519	0	459	0	0	
1	0	0	0	0	819	519	0	460	0	0	
2	0	0	0	0	801	519	0	463	0	0	
3	0	0	0	0	759	518	0	467	0	0	
4	0	0	0	0	696	516	0	470	0	0	
5	0	0	0	0	615	514	0	473	0	0	
6	0	0	0	0	526	511	0	475	0	0	
7	0	0	0	0	434	508	0	476	0	0	
8	0	0	0	0	356	505	0	476	0	0	
9	0	0	0	0	309	502	0	475	0	0	
10	0	0	0	0	304	500	0	471	0	0	
11	0	0	0	0	342	498	0	467	0	0	
12	0	0	0	0	414	497	0	463	0	0	
13	0	0	0	0	506	496	0	458	0	0	
14	0	0	0	0	603	496	0	453	0	0	
15	0	0	0	0	691	496	0	449	0	0	
0	0	0	0	0	762	497	0	446	0	0	
1	0	0	0	0	807	497	0	444	0	0	
2	0	0	0	0	825	498	0	443	0	0	
3	0	0	0	0	813	499	0	444	0	0	
4	0	0	0	0	773	500	0	447	0	0	
5	0	0	0	0	709	502	0	452	0	0	
6	0	0	0	0	624	503	0	457	0	0	
7	0	0	0	0	528	504	0	463	0	0	
8	0	0	0	0	429	504	0	468	0	0	
9	0	0	0	0	331	503	0	472	0	0	
10	0	0	0	0	243	502	0	476	0	0	
11	0	0	0	0	171	500	0	478	0	0	
12	0	0	0	0	120	498	0	479	0	0	
13	0	0	0	0	99	496	0	478	0	0	
14	0	0	0	0	116	495	0	475	0	0	
15	0	0	0	0	171	495	0	472	0	0	
0	0	0	0	0	260	495	0	467	0	0	
1	0	0	0	0	377	496	0	462	0	0	
2	0	0	0	0	511	497	0	457	0	0	
3	0	0	0	0	651	498	0	451	0	0	
4	0	0	0	0	787	499	0	447	0	0	
5	0	0	0	0	911	501	0	444	0	0	
6	0	0	0	0	1018	504	0	443	0	0	
7	0	0	0	0	1021	506	0	444	0	0	
8	0	0	0	0	1021	509	0	446	0	0	
9	0	0	0	0	1021	511	0	449	0	0	
10	0	0	0	0	1021	512	0	453	0	0	
11	0	0	0	0	974	513	0	457	0	0	
12	0	0	0	0	891	511	0	462	0	0	
13	0	0	0	0	781	509	0	465	0	0	
14	0	0	0	0	658	506	0	467	0	0	
15	0	0	0	0	543	503	0	469	0	0	
0	0	0	0	0	459	499	0	470	0	0	
1	0	0	0	0	426	497	0	470	0	0	
2	0	0	0	0	452	495	0	468	0	0	
3	0	0	0	0	534	494	0	466	0	0	
4	0	0	0	0	658	492	0	462	0	0	
5	0	0	0	0	807	491	0	457	0	0	
6	0	0	0	0	961	490	0	452	0	0	
7	0	0	0	0	1021	489	0	447	0	0	
8	0	0	0	0	1021	488	0	442	0	0	
9	0	0	0	0	1021	488	0	439	0	0	
10	0	0	0	0	1021	488	0	438	0	0	
11	0	0	0	0	1021	489	0	438	0	0	
12	0	0	0	0	1021	489	0	439	0	0	
13	0	0	0	0	1021	490	0	440	0	0	
14	0	0	0	0	1014	490	0	444	0	0	
15	0	0	0	0	952	489	0	448	0	0	
0	0	0	0	0	857	489	0	452	0	0	
1	0	0	0	0	739	487	0	455	0	0	
2	0	0	0	0	604	487	0	460	0	0	
3	0	0	0	0	464	486	0	463	0	0	
4	0	0	0	0	333	486	0	465	0	0	
5	0	0	0	0	232	485	0	466	0	0	
6	0	0	0	0	176	486	0	465	0	0	
7	0	0	0	0	167	487	0	463	0	0	
8	0	0	0	0	208	488	0	461	0	0	
9	0	0	0	0	288	489	0	457	0	0	
10	0	0	0	0	394	490	0	454	0	0	
11	0	0	0	0	512	492	0	450	0	0	
12	0	0	0	0	628	493	0	446	0	0	
13	0	0	0	0	731	494	0	444	0	0	
14	0	0	0	0	814	495	0	441	0	0	
15	0	0	0	0	867	495	0	441	0	0	
0	0	0	0	0	889	495	0	441	0	0	
1	0	0	0	0	877	495	0	443	0	0	
2	0	0	0	0	830	494	0	446	0	0	
3	0	0	0	0	755	493	0	450	0	0	
4	0	0	0	0	657	491	0	455	0	0	
5	0	0	0	0	545	489	0	459	0	0	
6	0	0	0	0	430	488	0	464	0	0	
7	0	0	0	0	324	487	0	468	0	0	
8	0	0	0	0	248	487	0	472	0	0	
9	0	0	0	0	218	488	0	474	0	0	
10	0	0	0	0	240	489	0	475	0	0	
11	0	0	0	0	312	492	0	475	0	0	
12	0	0	0	0	420	494	0	473	0	0	
13	0	0	0	0	545	497	0	472	0	0	
14	0	0	0	0	671	500	0	469	0	0	
15	0	0	0	0	781	503	0	467	0	0	
0	0	0	0	0	867	505	0	465	0	0	
1	0	0	0	0	919	507	0	464	0	0	
2	0	0	0	0	935	509	0	464	0	0	
3	0	0	0	0	913	510	0	464	0	0	
4	0	0	0	0	855	511	0	465	0	0	
5	0	0	0	0	767	510	0	467	0	0	
6	0	0	0	0	656	508	0	470	0	0	
7	0	0	0	0	532	506	0	473	0	0	
8	0	0	0	0	404	503	0	476	0	0	
9	0	0	0	0	281	497	0	478	0	0	
10	0	0	0	0	173	493	0	479	0	0	
11	0	0	0	0	86	488	0	479	0	0	
12	0	0	0	0	26	483	0	478	0	0	
13	0	0	0	0	1	480	0	475	0	0	
14	0	0	0	0	17	478	0	472	0	0	
15	0	0	0	0	75	477	0	468	0	0	
0	0	0	0	0	168	478	0	464	0	0	
1	0	0	0	0	289	480	0	461	0	0	
2	0	0	0	0	426	483	0	458	0	0	
3	0	0	0	0	566	486	0	455	0	0	
4	0	0	0	0	700	490	0	454	0	0	
5	0	0	0	0	813	494	0	455	0	0	
6	0	0	0	0	900	497	0	455	0	0	
7	0	0	0	0	953	501	0	458	0	0	
8	0	0	0	0	969	503	0	461	0	0	
9	0	0	0	0	946	504	0	465	0	0	
10	0	0	0	0	885	504	0	470	0	0	
11	0	0	0	0	792	503	0	474	0	0	
12	0	0	0	0	675	501	0	479	0	0	
13	0	0	0	0	545	499	0	483	0	0	
14	0	0	0	0	411	496	0	485	0	0	
15	0	0	0	0	285	493	0	487	0	0	
0	0	0	0	0	188	491	0	487	0	0	
1	0	0	0	0	137	489	0	487	0	0	
2	0	0	0	0	143	489	0	484	0	0	
3	0	0	0	0	208	489	0	481	0	0	
4	0	0	0	0	327	491	0	477	0	0	
5	0	0	0	0	482	493	0	473	0	0	
6	0	0	0	0	655	495	0	469	0	0	
7	0	0	0	0	825	498	0	466	0	0	
8	0	0	0	0	975	502	0	464	0	0	
9	0	0	0	0	1021	505	0	463	0	0	
10	0	0	0	0	1021	508	0	464	0	0	
11	0	0	0	0	1021	511	0	466	0	0	
12	0	0	0	0	1021	513	0	469	0	0	
13	0	0	0	0	1010	515	0	473	0	0	
14	0	0	0	0	942	515	0	478	0	0	
15	0	0	0	0	840	515	0	482	0	0	
0	0	0	0	0	714	513	0	487	0	0	
1	0	0	0	0	572	511	0	490	0	0	
2	0	0	0	0	427	507	0	493	0	0	
3	0	0	0	0	290	504	0	495	0	0	
4	0	0	0	0	182	501	0	495	0	0	
5	0	0	0	0	118	499	0	495	0	0	
6	0	0	0	0	108	499	0	494	0	0	
7	0	0	0	0	154	499	0	492	0	0	
8	0	0	0	0	248	502	0	490	0	0	
9	0	0	0	0	379	504	0	487	0	0	
10	0	0	0	0	527	507	0	485	0	0	
11	0	0	0	0	679	510	0	483	0	0	
12	0	0	0	0	823	513	0	481	0	0	
13	0	0	0	0	947	516	0	480	0	0	
14	0	0	0	0	1021	519	0	480	0	0	
15	0	0	0	0	1021	521	0	482	0	0	
0	0	0	0	0	1021	524	0	484	0	0	
1	0	0	0	0	1021	525	0	487	0	0	
2	0	0	0	0	1008	526	0	490	0	0	
3	0	0	0	0	944	525	0	494	0	0	
4	0	0	0	0	848	523	0	497	0	0	
5	0	0	0	0	729	520	0	499	0	0	
6	0	0	0	0	596	517	0	501	0	0	
7	0	0	0	0	460	513	0	502	0	0	
8	0	0	0	0	338	508	0	502	0	0	
9	0	0	0	0	252	505	0	499	0	0	
10	0	0	0	0	214	503	0	497	0	0	
11	0	0	0	0	226	501	0	493	0	0	
12	0	0	0	0	282	500	0	489	0	0	
13	0	0	0	0	370	500	0	484	0	0	
14	0	0	0	0	476	501	0	480	0	0	
15	0	0	0	0	583	503	0	476	0	0	
0	0	0	0	0	678	505	0	473	0	0	
1	0	0	0	0	753	508	0	471	0	0	
2	0	0	0	0	803	511	0	471	0	0	
3	0	0	0	0	822	513	0	472	0	0	
4	0	0	0	0	810	514	0	473	0	0	
5	0	0	0	0	768	514	0	475	0	0	
6	0	0	0	0	697	512	0	478	0	0	
7	0	0	0	0	606	508	0	480	0	0	
8	0	0	0	0	503	504	0	482	0	0	
9	0	0	0	0	396	499	0	484	0	0	
10	0	0	0	0	293	496	0	486	0	0	
11	0	0	0	0	209	493	0	488	0	0	
12	0	0	0	0	158	493	0	491	0	0	
13	0	0	0	0	158	494	0	493	0	0	
14	0	0	0	0	216	498	0	496	0	0	
15	0	0	0	0	331	504	0	499	0	0	
0	0	0	0	0	491	511	0	501	0	0	
1	0	0	0	0	677	517	0	504	0	0	
2	0	0	0	0	868	523	0	504	0	0	
3	0	0	0	0	1021	528	0	504	0	0	
4	0	0	0	0	1021	531	0	503	0	0	
5	0	0	0	0	1021	531	0	500	0	0	
6	0	0	0	0	1021	529	0	496	0	0	
7	0	0	0	0	1021	525	0	490	0	0	
8	0	0	0	0	1021	518	0	484	0	0	
9	0	0	0	0	1021	509	0	478	0	0	
10	0	0	0	0	1021	500	0	472	0	0	
11	0	0	0	0	989	490	0	468	0	0	
12	0	0	0	0	908	482	0	464	0	0	
13	0	0	0	0	797	475	0	463	0	0	
14	0	0	0	0	665	470	0	463	0	0	
15	0	0	0	0	527	467	0	465	0	0	
0	0	0	0	0	402	467	0	467	0	0	
1	0	0	0	0	311	470	0	472	0	0	
2	0	0	0	0	268	475	0	476	0	0	
3	0	0	0	0	274	481	0	480	0	0	
4	0	0	0	0	320	490	0	486	0	0	
5	0	0	0	0	396	498	0	490	0	0	
6	0	0	0	0	487	507	0	496	0	0	
7	0	0	0	0	579	515	0	500	0	0	
8	0	0	0	0	659	521	0	504	0	0	
9	0	0	0	0	720	526	0	506	0	0	
10	0	0	0	0	755	529	0	508	0	0	
11	0	0	0	0	764	529	0	509	0	0	
12	0	0	0	0	744	528	0	508	0	0	
13	0	0	0	0	700	526	0	507	0	0	
14	0	0	0	0	633	523	0	505	0	0	
15	0	0	0	0	553	519	0	504	0	0	
0	0	0	0	0	465	515	0	503	0	0	
1	0	0	0	0	377	513	0	501	0	0	
2	0	0	0	0	295	510	0	499	0	0	
3	0	0	0	0	224	507	0	497	0	0	
4	0	0	0	0	169	504	0	494	0	0	
5	0	0	0	0	135	501	0	489	0	0	
6	0	0	0	0	126	496	0	482	0	0	
7	0	0	0	0	143	491	0	473	0	0	
8	0	0	0	0	179	483	0	462	0	0	
9	0	0	0	0	228	474	0	450	0	0	
10	0	0	0	0	282	464	0	438	0	0	
11	0	0	0	0	335	454	0	426	0	0	
12	0	0	0	0	381	445	0	416	0	0	
13	0	0	0	0	417	438	0	409	0	0	
14	0	0	0	0	440	434	0	406	0	0	
15	0	0	0	0	450	433	0	407	0	0	
0	0	0	0	0	447	435	0	412	0	0	
1	0	0	0	0	432	440	0	421	0	0	
2	0	0	0	0	408	447	0	433	0	0	
3	0	0	0	0	377	455	0	446	0	0	
4	0	0	0	0	342	462	0	459	0	0	
5	0	0	0	0	306	468	0	470	0	0	
6	0	0	0	0	271	473	0	479	0	0	
7	0	0	0	0	240	477	0	486	0	0	
8	0	0	0	0	218	479	0	489	0	0	
9	0	0	0	0	211	481	0	490	0	0	
10	0	0	0	0	224	482	0	489	0	0	
11	0	0	0	0	260	483	0	487	0	0	
12	0	0	0	0	312	484	0	482	0	0	
13	0	0	0	0	373	483	0	476	0	0	
14	0	0	0	0	435	483	0	469	0	0	
15	0	0	0	0	490	481	0	462	0	0	
0	0	0	0	0	532	478	0	454	0	0	
1	0	0	0	0	557	476	0	448	0	0	
2	0	0	0	0	565	474	0	443	0	0	
3	0	0	0	0	554	472	0	440	0	0	
4	0	0	0	0	527	471	0	440	0	0	
5	0	0	0	0	487	471	0	442	0	0	
6	0	0	0	0	438	471	0	447	0	0	
7	0	0	0	0	384	472	0	452	0	0	
8	0	0	0	0	329	472	0	459	0	0	
9	0	0	0	0	277	472	0	466	0	0	
10	0	0	0	0	231	472	0	473	0	0	
11	0	0	0	0	193	472	0	478	0	0	
12	0	0	0	0	167	472	0	482	0	0	
13	0	0	0	0	154	472	0	485	0	0	
14	0	0	0	0	157	473	0	486	0	0	
15	0	0	0	0	175	475	0	486	0	0	
0	0	0	0	0	202	478	0	486	0	0	
1	0	0	0	0	235	481	0	485	0	0	
2	0	0	0	0	271	485	0	484	0	0	
3	0	0	0	0	306	488	0	483	0	0	
4	0	0	0	0	338	492	0	481	0	0	
5	0	0	0	0	363	494	0	480	0	0	
6	0	0	0	0	381	496	0	478	0	0	
7	0	0	0	0	389	495	0	475	0	0	
8	0	0	0	0	388	493	0	470	0	0	
9	0	0	0	0	379	488	0	465	0	0	
10	0	0	0	0	362	482	0	459	0	0	
11	0	0	0	0	339	474	0	454	0	0	
12	0	0	0	0	313	466	0	448	0	0	
13	0	0	0	0	286	457	0	443	0	0	
14	0	0	0	0	261	449	0	439	0	0	
15	0	0	0	0	238	442	0	435	0	0	
0	0	0	0	0	222	436	0	432	0	0	
1	0	0	0	0	220	433	0	430	0	0	
2	0	0	0	0	238	433	0	429	0	0	
3	0	0	0	0	278	436	0	429	0	0	
4	0	0	0	0	337	441	0	431	0	0	
5	0	0	0	0	409	448	0	433	0	0	
6	0	0	0	0	486	456	0	436	0	0	
7	0	0	0	0	562	464	0	439	0	0	
8	0	0	0	0	632	472	0	442	0	0	
9	0	0	0	0	692	479	0	445	0	0	
10	0	0	0	0	737	485	0	448	0	0	
11	0	0	0	0	763	489	0	451	0	0	
12	0	0	0	0	766	492	0	454	0	0	
13	0	0	0	0	746	494	0	459	0	0	
14	0	0	0	0	703	496	0	465	0	0	
15	0	0	0	0	640	496	0	471	0	0	
0	0	0	0	0	563	496	0	476	0	0	
1	0	0	0	0	479	494	0	480	0	0	
2	0	0	0	0	392	489	0	483	0	0	
3	0	0	0	0	316	484	0	481	0	0	
4	0	0	0	0	268	476	0	477	0	0	
5	0	0	0	0	262	468	0	469	0	0	
6	0	0	0	0	304	460	0	459	0	0	
7	0	0	0	0	392	452	0	448	0	0	
8	0	0	0	0	512	446	0	437	0	0	
9	0	0	0	0	649	442	0	426	0	0	
10	0	0	0	0	787	441	0	418	0	0	
11	0	0	0	0	913	442	0	413	0	0	
12	0	0	0	0	1016	446	0	411	0	0	
13	0	0	0	0	1021	451	0	413	0	0	
14	0	0	0	0	1021	458	0	416	0	0	
15	0	0	0	0	1021	466	0	423	0	0	
0	0	0	0	0	997	472	0	430	0	0	
1	0	0	0	0	924	478	0	439	0	0	
2	0	0	0	0	819	482	0	447	0	0	
3	0	0	0	0	691	484	0	455	0	0	
4	0	0	0	0	550	485	0	461	0	0	
5	0	0	0	0	404	484	0	467	0	0	
6	0	0	0	0	267	482	0	471	0	0	
7	0	0	0	0	148	480	0	474	0	0	
8	0	0	0	0	57	480	0	476	0	0	
9	0	0	0	0	7	480	0	476	0	0	
10	0	0	0	0	4	481	0	475	0	0	
11	0	0	0	0	48	483	0	472	0	0	
12	0	0	0	0	135	486	0	470	0	0	
13	0	0	0	0	250	490	0	465	0	0	
14	0	0	0	0	380	493	0	460	0	0	
15	0	0	0	0	509	496	0	455	0	0	
0	0	0	0	0	625	497	0	450	0	0	
1	0	0	0	0	715	498	0	446	0	0	
2	0	0	0	0	773	497	0	443	0	0	
3	0	0	0	0	797	496	0	442	0	0	
4	0	0	0	0	786	495	0	442	0	0	
5	0	0	0	0	744	493	0	444	0	0	
6	0	0	0	0	675	491	0	448	0	0	
7	0	0	0	0	585	488	0	453	0	0	
8	0	0	0	0	485	485	0	458	0	0	
9	0	0	0	0	380	481	0	463	0	0	
10	0	0	0	0	280	477	0	467	0	0	
11	0	0	0	0	192	472	0	470	0	0	
12	0	0	0	0	122	468	0	472	0	0	
13	0	0	0	0	78	464	0	472	0	0	
14	0	0	0	0	67	462	0	473	0	0	
15	0	0	0	0	89	463	0	473	0	0	
0	0	0	0	0	141	465	0	474	0	0	
1	0	0	0	0	213	470	0	475	0	0	
2	0	0	0	0	296	475	0	475	0	0	
3	0	0	0	0	383	482	0	475	0	0	
4	0	0	0	0	466	488	0	476	0	0	
5	0	0	0	0	540	494	0	477	0	0	
6	0	0	0	0	600	497	0	476	0	0	
7	0	0	0	0	640	498	0	475	0	0	
8	0	0	0	0	655	496	0	473	0	0	
9	0	0	0	0	648	491	0	471	0	0	
10	0	0	0	0	617	484	0	467	0	0	
11	0	0	0	0	568	476	0	463	0	0	
12	0	0	0	0	505	466	0	459	0	0	
13	0	0	0	0	433	456	0	452	0	0	
14	0	0	0	0	359	447	0	447	0	0	
15	0	0	0	0	291	440	0	441	0	0	
0	0	0	0	0	239	434	0	435	0	0	
1	0	0	0	0	219	432	0	431	0	0	
2	0	0	0	0	240	432	0	428	0	0	
3	0	0	0	0	304	437	0	426	0	0	
4	0	0	0	0	407	443	0	426	0	0	
5	0	0	0	0	536	450	0	427	0	0	
6	0	0	0	0	678	457	0	429	0	0	
7	0	0	0	0	816	463	0	430	0	0	
8	0	0	0	0	939	467	0	431	0	0	
9	0	0	0	0	1021	469	0	432	0	0	
10	0	0	0	0	1021	468	0	433	0	0	
11	0	0	0	0	1021	465	0	434	0	0	
12	0	0	0	0	1021	462	0	436	0	0	
13	0	0	0	0	1006	457	0	439	0	0	
14	0	0	0	0	939	453	0	442	0	0	
15	0	0	0	0	840	449	0	446	0	0	
0	0	0	0	0	717	446	0	450	0	0	
1	0	0	0	0	577	443	0	453	0	0	
2	0	0	0	0	435	441	0	456	0	0	
3	0	0	0	0	298	441	0	459	0	0	
4	0	0	0	0	187	442	0	460	0	0	
5	0	0	0	0	118	445	0	460	0	0	
6	0	0	0	0	101	448	0	459	0	0	
7	0	0	0	0	137	452	0	457	0	0	
8	0	0	0	0	219	456	0	454	0	0	
9	0	0	0	0	332	460	0	449	0	0	
10	0	0	0	0	462	464	0	446	0	0	
11	0	0	0	0	589	467	0	441	0	0	
12	0	0	0	0	702	470	0	438	0	0	
13	0	0	0	0	788	472	0	436	0	0	
14	0	0	0	0	841	474	0	436	0	0	
15	0	0	0	0	860	476	0	439	0	0	
0	0	0	0	0	842	476	0	442	0	0	
1	0	0	0	0	791	477	0	447	0	0	
2	0	0	0	0	711	476	0	454	0	0	
3	0	0	0	0	610	475	0	460	0	0	
4	0	0	0	0	497	472	0	467	0	0	
5	0	0	0	0	381	468	0	473	0	0	
6	0	0	0	0	272	465	0	478	0	0	
7	0	0	0	0	177	462	0	480	0	0	
8	0	0	0	0	100	459	0	482	0	0	
9	0	0	0	0	49	457	0	482	0	0	
10	0	0	0	0	25	458	0	480	0	0	
11	0	0	0	0	30	460	0	478	0	0	
12	0	0	0	0	60	463	0	475	0	0	
13	0	0	0	0	111	468	0	472	0	0	
14	0	0	0	0	177	473	0	470	0	0	
15	0	0	0	0	254	478	0	467	0	0	
0	0	0	0	0	337	484	0	467	0	0	
1	0	0	0	0	423	489	0	466	0	0	
2	0	0	0	0	504	494	0	467	0	0	
3	0	0	0	0	573	498	0	470	0	0	
4	0	0	0	0	624	502	0	473	0	0	
5	0	0	0	0	655	506	0	479	0	0	
6	0	0	0	0	661	508	0	484	0	0	
7	0	0	0	0	647	510	0	491	0	0	
8	0	0	0	0	613	510	0	497	0	0	
9	0	0	0	0	563	510	0	503	0	0	
10	0	0	0	0	504	507	0	508	0	0	
11	0	0	0	0	445	504	0	511	0	0	
12	0	0	0	0	403	499	0	511	0	0	
13	0	0	0	0	395	493	0	510	0	0	
14	0	0	0	0	423	487	0	504	0	0	
15	0	0	0	0	486	480	0	496	0	0	
0	0	0	0	0	572	470	0	483	0	0	
1	0	0	0	0	664	458	0	466	0	0	
2	0	0	0	0	748	443	0	445	0	0	
3	0	0	0	0	812	425	0	420	0	0	
4	0	0	0	0	848	405	0	392	0	0	
5	0	0	0	0	850	384	0	365	0	0	
6	0	0	0	0	815	361	0	338	0	0	
7	0	0	0	0	744	340	0	312	0	0	
8	0	0	0	0	645	319	0	291	0	0	
9	0	0	0	0	524	300	0	273	0	0	
10	0	0	0	0	389	283	0	260	0	0	
11	0	0	0	0	251	268	0	250	0	0	
12	0	0	0	0	120	255	0	245	0	0	
13	0	0	0	0	3	245	0	243	0	0	
14	0	0	0	0	0	236	0	243	0	0	
15	0	0	0	0	0	230	0	246	0	0	
0	0	0	0	0	0	225	0	248	0	0	
1	0	0	0	0	0	223	0	252	0	0	
2	0	0	0	0	0	223	0	254	0	0	
3	0	0	0	0	0	224	0	256	0	0	
4	0	0	0	0	12	228	0	258	0	0	
5	0	0	0	0	57	235	0	261	0	0	
6	0	0	0	0	120	244	0	264	0	0	
7	0	0	0	0	195	256	0	270	0	0	
8	0	0	0	0	276	270	0	277	0	0	
9	0	0	0	0	359	287	0	287	0	0	
10	0	0	0	0	437	304	0	300	0	0	
11	0	0	0	0	503	324	0	316	0	0	
12	0	0	0	0	550	344	0	334	0	0	
13	0	0	0	0	576	362	0	352	0	0	
14	0	0	0	0	579	380	0	372	0	0	
15	0	0	0	0	560	396	0	393	0	0	
0	0	0	0	0	523	409	0	413	0	0	
1	0	0	0	0	473	422	0	432	0	0	
2	0	0	0	0	415	433	0	451	0	0	
3	0	0	0	0	359	443	0	467	0	0	
4	0	0	0	0	316	452	0	481	0	0	
5	0	0	0	0	300	459	0	491	0	0	
6	0	0	0	0	319	464	0	496	0	0	
7	0	0	0	0	377	468	0	497	0	0	
8	0	0	0	0	465	470	0	496	0	0	
9	0	0	0	0	572	470	0	491	0	0	
10	0	0	0	0	685	470	0	483	0	0	
11	0	0	0	0	793	469	0	476	0	0	
12	0	0	0	0	888	468	0	468	0	0	
13	0	0	0	0	963	467	0	462	0	0	
14	0	0	0	0	1013	467	0	457	0	0	
15	0	0	0	0	1021	466	0	454	0	0	
0	0	0	0	0	1009	467	0	454	0	0	
1	0	0	0	0	958	467	0	456	0	0	
2	0	0	0	0	873	468	0	460	0	0	
3	0	0	0	0	764	469	0	467	0	0	
4	0	0	0	0	636	470	0	474	0	0	
5	0	0	0	0	500	470	0	482	0	0	
6	0	0	0	0	366	470	0	489	0	0	
7	0	0	0	0	249	471	0	496	0	0	
8	0	0	0	0	170	472	0	502	0	0	
9	0	0	0	0	143	472	0	506	0	0	
10	0	0	0	0	176	474	0	508	0	0	
11	0	0	0	0	268	476	0	508	0	0	
12	0	0	0	0	405	479	0	508	0	0	
13	0	0	0	0	569	483	0	506	0	0	
14	0	0	0	0	742	486	0	503	0	0	
15	0	0	0	0	905	489	0	500	0	0	
0	0	0	0	0	1021	492	0	497	0	0	
1	0	0	0	0	1021	495	0	495	0	0	
2	0	0	0	0	1021	497	0	493	0	0	
3	0	0	0	0	1021	499	0	494	0	0	
4	0	0	0	0	1021	499	0	496	0	0	
5	0	0	0	0	1014	500	0	500	0	0	
6	0	0	0	0	949	500	0	507	0	0	
7	0	0	0	0	854	499	0	514	0	0	
8	0	0	0	0	734	498	0	521	0	0	
9	0	0	0	0	598	495	0	528	0	0	
10	0	0	0	0	458	493	0	533	0	0	
11	0	0	0	0	325	491	0	537	0	0	
12	0	0	0	0	216	490	0	539	0	0	
13	0	0	0	0	147	489	0	538	0	0	
14	0	0	0	0	129	489	0	536	0	0	
15	0	0	0	0	164	488	0	531	0	0	
0	0	0	0	0	247	488	0	524	0	0	
1	0	0	0	0	367	488	0	517	0	0	
2	0	0	0	0	508	487	0	510	0	0	
3	0	0	0	0	655	487	0	503	0	0	
4	0	0	0	0	795	487	0	499	0	0	
5	0	0	0	0	915	488	0	496	0	0	
6	0	0	0	0	1008	488	0	495	0	0	
7	0	0	0	0	1021	488	0	496	0	0	
8	0	0	0	0	1021	487	0	499	0	0	
9	0	0	0	0	1012	485	0	503	0	0	
10	0	0	0	0	949	483	0	508	0	0	
11	0	0	0	0	852	479	0	513	0	0	
12	0	0	0	0	730	476	0	518	0	0	
13	0	0	0	0	591	473	0	523	0	0	
14	0	0	0	0	448	471	0	527	0	0	
15	0	0	0	0	311	471	0	531	0	0	
0	0	0	0	0	200	471	0	533	0	0	
1	0	0	0	0	132	473	0	535	0	0	
2	0	0	0	0	117	475	0	534	0	0	
3	0	0	0	0	158	479	0	533	0	0	
4	0	0	0	0	249	483	0	531	0	0	
5	0	0	0	0	380	487	0	529	0	0	
6	0	0	0	0	532	492	0	528	0	0	
7	0	0	0	0	689	497	0	527	0	0	
8	0	0	0	0	835	502	0	527	0	0	
9	0	0	0	0	958	507	0	528	0	0	
10	0	0	0	0	1021	511	0	531	0	0	
11	0	0	0	0	1021	515	0	536	0	0	
12	0	0	0	0	1021	519	0	543	0	0	
13	0	0	0	0	1012	521	0	550	0	0	
14	0	0	0	0	949	523	0	558	0	0	
15	0	0	0	0	854	524	0	566	0	0	
0	0	0	0	0	735	524	0	574	0	0	
1	0	0	0	0	601	523	0	579	0	0	
2	0	0	0	0	462	521	0	584	0	0	
3	0	0	0	0	327	519	0	587	0	0	
4	0	0	0	0	211	516	0	588	0	0	
5	0	0	0	0	120	514	0	587	0	0	
6	0	0	0	0	65	512	0	584	0	0	
7	0	0	0	0	47	509	0	580	0	0	
8	0	0	0	0	65	507	0	575	0	0	
9	0	0	0	0	112	505	0	568	0	0	
10	0	0	0	0	181	504	0	562	0	0	
11	0	0	0	0	262	502	0	556	0	0	
12	0	0	0	0	345	501	0	549	0	0	
13	0	0	0	0	424	499	0	544	0	0	
14	0	0	0	0	492	498	0	540	0	0	
15	0	0	0	0	541	497	0	537	0	0	
0	0	0	0	0	572	497	0	537	0	0	
1	0	0	0	0	580	496	0	539	0	0	
2	0	0	0	0	569	495	0	543	0	0	
3	0	0	0	0	540	494	0	547	0	0	
4	0	0	0	0	498	492	0	552	0	0	
5	0	0	0	0	447	488	0	556	0	0	
6	0	0	0	0	390	484	0	560	0	0	
7	0	0	0	0	334	480	0	562	0	0	
8	0	0	0	0	287	476	0	563	0	0	
9	0	0	0	0	259	472	0	563	0	0	
10	0	0	0	0	257	470	0	561	0	0	
11	0	0	0	0	283	470	0	559	0	0	
12	0	0	0	0	332	471	0	556	0	0	
13	0	0	0	0	396	473	0	554	0	0	
14	0	0	0	0	464	477	0	552	0	0	
15	0	0	0	0	530	481	0	551	0	0	
0	0	0	0	0	585	485	0	551	0	0	
1	0	0	0	0	626	488	0	551	0	0	
2	0	0	0	0	650	491	0	553	0	0	
3	0	0	0	0	653	493	0	556	0	0	
4	0	0	0	0	636	493	0	559	0	0	
5	0	0	0	0	601	493	0	563	0	0	
6	0	0	0	0	550	491	0	569	0	0	
7	0	0	0	0	489	489	0	574	0	0	
8	0	0	0	0	423	486	0	579	0	0	
9	0	0	0	0	357	483	0	583	0	0	
10	0	0	0	0	296	482	0	588	0	0	
11	0	0	0	0	245	481	0	591	0	0	
12	0	0	0	0	213	482	0	593	0	0	
13	0	0	0	0	211	485	0	595	0	0	
14	0	0	0	0	246	491	0	598	0	0	
15	0	0	0	0	319	497	0	600	0	0	
0	0	0	0	0	424	504	0	601	0	0	
1	0	0	0	0	549	511	0	600	0	0	
2	0	0	0	0	681	515	0	598	0	0	
3	0	0	0	0	808	518	0	594	0	0	
4	0	0	0	0	921	518	0	589	0	0	
5	0	0	0	0	1011	515	0	583	0	0	
6	0	0	0	0	1021	511	0	577	0	0	
7	0	0	0	0	1021	505	0	571	0	0	
8	0	0	0	0	1021	499	0	566	0	0	
9	0	0	0	0	983	491	0	561	0	0	
10	0	0	0	0	902	482	0	558	0	0	
11	0	0	0	0	792	475	0	557	0	0	
12	0	0	0	0	660	467	0	556	0	0	
13	0	0	0	0	518	462	0	557	0	0	
14	0	0	0	0	373	459	0	559	0	0	
15	0	0	0	0	244	458	0	561	0	0	
0	0	0	0	0	149	460	0	565	0	0	
1	0	0	0	0	106	464	0	569	0	0	
2	0	0	0	0	125	471	0	574	0	0	
3	0	0	0	0	205	479	0	578	0	0	
4	0	0	0	0	336	488	0	582	0	0	
5	0	0	0	0	500	497	0	584	0	0	
6	0	0	0	0	680	506	0	587	0	0	
7	0	0	0	0	856	515	0	590	0	0	
8	0	0	0	0	1014	524	0	593	0	0	
9	0	0	0	0	1021	531	0	597	0	0	
10	0	0	0	0	1021	537	0	600	0	0	
11	0	0	0	0	1021	541	0	604	0	0	
12	0	0	0	0	1021	543	0	606	0	0	
13	0	0	0	0	1021	542	0	608	0	0	
14	0	0	0	0	1008	537	0	609	0	0	
15	0	0	0	0	939	531	0	609	0	0	
0	0	0	0	0	838	524	0	609	0	0	
1	0	0	0	0	712	516	0	608	0	0	
2	0	0	0	0	575	508	0	608	0	0	
3	0	0	0	0	448	502	0	608	0	0	
4	0	0	0	0	352	497	0	608	0	0	
5	0	0	0	0	311	494	0	609	0	0	
6	0	0	0	0	332	492	0	608	0	0	
7	0	0	0	0	411	493	0	608	0	0	
8	0	0	0	0	536	494	0	607	0	0	
9	0	0	0	0	691	497	0	604	0	0	
10	0	0	0	0	855	499	0	602	0	0	
11	0	0	0	0	1011	502	0	598	0	0	
12	0	0	0	0	1021	505	0	595	0	0	
13	0	0	0	0	1021	507	0	593	0	0	
14	0	0	0	0	1021	508	0	591	0	0	
15	0	0	0	0	1021	509	0	590	0	0	
0	0	0	0	0	1021	509	0	590	0	0	
1	0	0	0	0	1021	508	0	590	0	0	
2	0	0	0	0	990	506	0	592	0	0	
3	0	0	0	0	911	504	0	594	0	0	
4	0	0	0	0	801	500	0	597	0	0	
5	0	0	0	0	670	498	0	600	0	0	
6	0	0	0	0	528	496	0	604	0	0	
7	0	0	0	0	388	494	0	607	0	0	
8	0	0	0	0	268	494	0	609	0	0	
9	0	0	0	0	189	495	0	611	0	0	
10	0	0	0	0	162	497	0	612	0	0	
11	0	0	0	0	189	499	0	612	0	0	
12	0	0	0	0	266	503	0	611	0	0	
13	0	0	0	0	379	507	0	609	0	0	
14	0	0	0	0	511	510	0	607	0	0	
15	0	0	0	0	646	514	0	605	0	0	
0	0	0	0	0	765	517	0	604	0	0	
1	0	0	0	0	858	520	0	603	0	0	
2	0	0	0	0	916	523	0	604	0	0	
3	0	0	0	0	936	524	0	604	0	0	
4	0	0	0	0	918	524	0	605	0	0	
5	0	0	0	0	860	524	0	607	0	0	
6	0	0	0	0	770	521	0	607	0	0	
7	0	0	0	0	655	516	0	607	0	0	
8	0	0	0	0	526	511	0	607	0	0	
9	0	0	0	0	392	505	0	606	0	0	
10	0	0	0	0	265	499	0	603	0	0	
11	0	0	0	0	161	494	0	600	0	0	
12	0	0	0	0	98	489	0	596	0	0	
13	0	0	0	0	92	485	0	591	0	0	
14	0	0	0	0	152	483	0	585	0	0	
15	0	0	0	0	273	481	0	579	0	0	
0	0	0	0	0	444	482	0	574	0	0	
1	0	0	0	0	646	483	0	570	0	0	
2	0	0	0	0	858	487	0	568	0	0	
3	0	0	0	0	1021	491	0	568	0	0	
4	0	0	0	0	1021	496	0	571	0	0	
5	0	0	0	0	1021	502	0	575	0	0	
6	0	0	0	0	1021	508	0	579	0	0	
7	0	0	0	0	1021	512	0	585	0	0	
8	0	0	0	0	1021	515	0	590	0	0	
9	0	0	0	0	1021	515	0	595	0	0	
10	0	0	0	0	1021	514	0	599	0	0	
11	0	0	0	0	1021	510	0	602	0	0	
12	0	0	0	0	956	506	0	603	0	0	
13	0	0	0	0	854	501	0	604	0	0	
14	0	0	0	0	730	496	0	604	0	0	
15	0	0	0	0	600	492	0	603	0	0	
0	0	0	0	0	492	489	0	601	0	0	
1	0	0	0	0	428	488	0	598	0	0	
2	0	0	0	0	418	488	0	594	0	0	
3	0	0	0	0	463	490	0	590	0	0	
4	0	0	0	0	553	493	0	586	0	0	
5	0	0	0	0	672	496	0	581	0	0	
6	0	0	0	0	803	500	0	576	0	0	
7	0	0	0	0	929	503	0	572	0	0	
8	0	0	0	0	1021	505	0	569	0	0	
9	0	0	0	0	1021	508	0	567	0	0	
10	0	0	0	0	1021	509	0	565	0	0	
11	0	0	0	0	1021	509	0	565	0	0	
12	0	0	0	0	1016	508	0	566	0	0	
13	0	0	0	0	955	506	0	568	0	0	
14	0	0	0	0	860	504	0	570	0	0	
15	0	0	0	0	739	501	0	574	0	0	
0	0	0	0	0	600	498	0	578	0	0	
1	0	0	0	0	454	496	0	581	0	0	
2	0	0	0	0	310	494	0	585	0	0	
3	0	0	0	0	183	494	0	588	0	0	
4	0	0	0	0	85	494	0	590	0	0	
5	0	0	0	0	33	496	0	591	0	0	
6	0	0	0	0	37	499	0	591	0	0	
7	0	0	0	0	99	502	0	591	0	0	
8	0	0	0	0	215	505	0	588	0	0	
9	0	0	0	0	371	508	0	585	0	0	
10	0	0	0	0	553	510	0	583	0	0	
11	0	0	0	0	745	511	0	579	0	0	
12	0	0	0	0	932	512	0	576	0	0	
13	0	0	0	0	1021	512	0	574	0	0	
14	0	0	0	0	1021	511	0	572	0	0	
15	0	0	0	0	1021	509	0	570	0	0	
0	0	0	0	0	1021	507	0	568	0	0	
1	0	0	0	0	1021	503	0	567	0	0	
2	0	0	0	0	1021	499	0	566	0	0	
3	0	0	0	0	1021	496	0	565	0	0	
4	0	0	0	0	959	492	0	566	0	0	
5	0	0	0	0	862	490	0	566	0	0	
6	0	0	0	0	745	489	0	568	0	0	
7	0	0	0	0	630	491	0	571	0	0	
8	0	0	0	0	540	495	0	575	0	0	
9	0	0	0	0	497	502	0	579	0	0	
10	0	0	0	0	509	511	0	584	0	0	
11	0	0	0	0	573	521	0	591	0	0	
12	0	0	0	0	676	533	0	596	0	0	
13	0	0	0	0	802	544	0	602	0	0	
14	0	0	0	0	932	554	0	607	0	0	
15	0	0	0	0	1021	563	0	611	0	0	
0	0	0	0	0	1021	568	0	614	0	0	
1	0	0	0	0	1021	573	0	616	0	0	
2	0	0	0	0	1021	575	0	617	0	0	
3	0	0	0	0	1021	575	0	617	0	0	
4	0	0	0	0	1021	572	0	616	0	0	
5	0	0	0	0	1006	568	0	615	0	0	
6	0	0	0	0	939	562	0	612	0	0	
7	0	0	0	0	839	553	0	607	0	0	
8	0	0	0	0	716	543	0	600	0	0	
9	0	0	0	0	575	531	0	592	0	0	
10	0	0	0	0	432	519	0	583	0	0	
11	0	0	0	0	303	508	0	573	0	0	
12	0	0	0	0	215	498	0	564	0	0	
13	0	0	0	0	182	491	0	555	0	0	
14	0	0	0	0	212	487	0	548	0	0	
15	0	0	0	0	303	486	0	543	0	0	
0	0	0	0	0	441	488	0	540	0	0	
1	0	0	0	0	607	494	0	540	0	0	
2	0	0	0	0	783	502	0	542	0	0	
3	0	0	0	0	946	512	0	546	0	0	
4	0	0	0	0	1021	523	0	552	0	0	
5	0	0	0	0	1021	534	0	559	0	0	
6	0	0	0	0	1021	544	0	567	0	0	
7	0	0	0	0	1021	552	0	574	0	0	
8	0	0	0	0	1021	559	0	580	0	0	
9	0	0	0	0	1018	561	0	585	0	0	
10	0	0	0	0	955	561	0	590	0	0	
11	0	0	0	0	859	559	0	593	0	0	
12	0	0	0	0	736	555	0	596	0	0	
13	0	0	0	0	597	551	0	598	0	0	
14	0	0	0	0	453	546	0	599	0	0	
15	0	0	0	0	319	543	0	600	0	0	
0	0	0	0	0	219	541	0	600	0	0	
1	0	0	0	0	169	541	0	600	0	0	
2	0	0	0	0	181	542	0	598	0	0	
3	0	0	0	0	253	544	0	596	0	0	
4	0	0	0	0	376	547	0	593	0	0	
5	0	0	0	0	536	550	0	590	0	0	
6	0	0	0	0	712	553	0	586	0	0	
7	0	0	0	0	890	556	0	582	0	0	
8	0	0	0	0	1021	558	0	577	0	0	
9	0	0	0	0	1021	560	0	572	0	0	
10	0	0	0	0	1021	561	0	568	0	0	
11	0	0	0	0	1021	561	0	565	0	0	
12	0	0	0	0	1021	560	0	561	0	0	
13	0	0	0	0	1021	557	0	558	0	0	
14	0	0	0	0	1021	552	0	556	0	0	
15	0	0	0	0	1011	547	0	555	0	0	
0	0	0	0	0	943	541	0	555	0	0	
1	0	0	0	0	846	536	0	555	0	0	
2	0	0	0	0	735	532	0	556	0	0	
3	0	0	0	0	632	529	0	558	0	0	
4	0	0	0	0	563	528	0	560	0	0	
5	0	0	0	0	545	529	0	561	0	0	
6	0	0	0	0	583	530	0	560	0	0	
7	0	0	0	0	675	532	0	560	0	0	
8	0	0	0	0	807	534	0	558	0	0	
9	0	0	0	0	963	536	0	556	0	0	
10	0	0	0	0	1021	539	0	553	0	0	
11	0	0	0	0	1021	542	0	550	0	0	
12	0	0	0	0	1021	544	0	547	0	0	
13	0	0	0	0	1021	546	0	545	0	0	
14	0	0	0	0	1021	548	0	543	0	0	
15	0	0	0	0	1021	549	0	542	0	0	
0	0	0	0	0	1021	549	0	540	0	0	
1	0	0	0	0	1021	548	0	540	0	0	
2	0	0	0	0	1021	546	0	540	0	0	
3	0	0	0	0	976	542	0	540	0	0	
4	0	0	0	0	884	537	0	540	0	0	
5	0	0	0	0	763	531	0	540	0	0	
6	0	0	0	0	621	524	0	539	0	0	
7	0	0	0	0	472	517	0	536	0	0	
8	0	0	0	0	335	510	0	533	0	0	
9	0	0	0	0	233	504	0	529	0	0	
10	0	0	0	0	178	500	0	525	0	0	
11	0	0	0	0	170	498	0	520	0	0	
12	0	0	0	0	206	498	0	516	0	0	
13	0	0	0	0	273	500	0	511	0	0	
14	0	0	0	0	360	503	0	506	0	0	
15	0	0	0	0	453	507	0	502	0	0	
0	0	0	0	0	540	513	0	499	0	0	
1	0	0	0	0	611	519	0	496	0	0	
2	0	0	0	0	660	527	0	496	0	0	
3	0	0	0	0	684	534	0	499	0	0	
4	0	0	0	0	682	543	0	503	0	0	
5	0	0	0	0	654	550	0	508	0	0	
6	0	0	0	0	604	555	0	515	0	0	
7	0	0	0	0	538	557	0	521	0	0	
8	0	0	0	0	460	557	0	525	0	0	
9	0	0	0	0	377	553	0	528	0	0	
10	0	0	0	0	297	548	0	528	0	0	
11	0	0	0	0	227	543	0	527	0	0	
12	0	0	0	0	176	537	0	525	0	0	
13	0	0	0	0	156	533	0	520	0	0	
14	0	0	0	0	172	530	0	515	0	0	
15	0	0	0	0	224	529	0	510	0	0	
0	0	0	0	0	302	529	0	505	0	0	
1	0	0	0	0	395	531	0	499	0	0	
2	0	0	0	0	489	533	0	495	0	0	
3	0	0	0	0	573	536	0	491	0	0	
4	0	0	0	0	639	540	0	488	0	0	
5	0	0	0	0	678	542	0	487	0	0	
6	0	0	0	0	691	545	0	489	0	0	
7	0	0	0	0	674	546	0	491	0	0	
8	0	0	0	0	632	546	0	495	0	0	
9	0	0	0	0	566	543	0	498	0	0	
10	0	0	0	0	483	537	0	501	0	0	
11	0	0	0	0	389	528	0	502	0	0	
12	0	0	0	0	294	517	0	500	0	0	
13	0	0	0	0	203	505	0	497	0	0	
14	0	0	0	0	124	495	0	492	0	0	
15	0	0	0	0	60	486	0	486	0	0	
0	0	0	0	0	16	481	0	480	0	0	
1	0	0	0	0	0	479	0	473	0	0	
2	0	0	0	0	0	480	0	467	0	0	
3	0	0	0	0	15	485	0	462	0	0	
4	0	0	0	0	48	492	0	457	0	0	
5	0	0	0	0	94	499	0	452	0	0	
6	0	0	0	0	146	508	0	449	0	0	
7	0	0	0	0	202	515	0	447	0	0	
8	0	0	0	0	255	522	0	446	0	0	
9	0	0	0	0	304	527	0	446	0	0	
10	0	0	0	0	343	531	0	447	0	0	
11	0	0	0	0	371	532	0	449	0	0	
12	0	0	0	0	388	532	0	452	0	0	
13	0	0	0	0	392	531	0	456	0	0	
14	0	0	0	0	385	527	0	461	0	0	
15	0	0	0	0	368	522	0	465	0	0	
0	0	0	0	0	344	516	0	468	0	0	
1	0	0	0	0	316	510	0	472	0	0	
2	0	0	0	0	287	505	0	473	0	0	
3	0	0	0	0	259	500	0	473	0	0	
4	0	0	0	0	238	497	0	472	0	0	
5	0	0	0	0	234	495	0	469	0	0	
6	0	0	0	0	253	494	0	466	0	0	
7	0	0	0	0	298	494	0	461	0	0	
8	0	0	0	0	364	495	0	455	0	0	
9	0	0	0	0	444	495	0	449	0	0	
10	0	0	0	0	526	497	0	443	0	0	
11	0	0	0	0	601	499	0	438	0	0	
12	0	0	0	0	663	502	0	435	0	0	
13	0	0	0	0	704	504	0	433	0	0	
14	0	0	0	0	722	508	0	433	0	0	
15	0	0	0	0	714	510	0	435	0	0	
0	0	0	0	0	680	511	0	437	0	0	
1	0	0	0	0	623	510	0	439	0	0	
2	0	0	0	0	546	506	0	441	0	0	
3	0	0	0	0	457	500	0	442	0	0	
4	0	0	0	0	362	492	0	443	0	0	
5	0	0	0	0	269	484	0	442	0	0	
6	0	0	0	0	183	476	0	440	0	0	
7	0	0	0	0	113	469	0	439	0	0	
8	0	0	0	0	70	464	0	437	0	0	
9	0	0	0	0	67	463	0	436	0	0	
10	0	0	0	0	110	465	0	435	0	0	
11	0	0	0	0	199	471	0	435	0	0	
12	0	0	0	0	321	480	0	435	0	0	
13	0	0	0	0	464	491	0	436	0	0	
14	0	0	0	0	611	502	0	438	0	0	
15	0	0	0	0	747	513	0	440	0	0	
0	0	0	0	0	857	524	0	441	0	0	
1	0	0	0	0	935	532	0	443	0	0	
2	0	0	0	0	976	539	0	445	0	0	
3	0	0	0	0	975	543	0	446	0	0	
4	0	0	0	0	932	543	0	447	0	0	
5	0	0	0	0	852	542	0	448	0	0	
6	0	0	0	0	741	539	0	451	0	0	
7	0	0	0	0	611	535	0	454	0	0	
8	0	0	0	0	470	530	0	457	0	0	
9	0	0	0	0	329	526	0	462	0	0	
10	0	0	0	0	203	524	0	466	0	0	
11	0	0	0	0	96	521	0	470	0	0	
12	0	0	0	0	20	519	0	472	0	0	
13	0	0	0	0	0	518	0	473	0	0	
14	0	0	0	0	6	515	0	470	0	0	
15	0	0	0	0	66	512	0	465	0	0	
0	0	0	0	0	165	507	0	456	0	0	
1	0	0	0	0	290	500	0	445	0	0	
2	0	0	0	0	426	493	0	431	0	0	
3	0	0	0	0	555	483	0	416	0	0	
4	0	0	0	0	664	474	0	402	0	0	
5	0	0	0	0	743	465	0	388	0	0	
6	0	0	0	0	784	457	0	377	0	0	
7	0	0	0	0	788	450	0	369	0	0	
8	0	0	0	0	756	445	0	364	0	0	
9	0	0	0	0	691	442	0	362	0	0	
10	0	0	0	0	600	440	0	364	0	0	
11	0	0	0	0	492	439	0	370	0	0	
12	0	0	0	0	377	440	0	377	0	0	
13	0	0	0	0	263	441	0	386	0	0	
14	0	0	0	0	160	444	0	395	0	0	
15	0	0	0	0	73	448	0	404	0	0	
0	0	0	0	0	8	453	0	412	0	0	
1	0	0	0	0	0	460	0	419	0	0	
2	0	0	0	0	0	467	0	425	0	0	
3	0	0	0	0	2	476	0	430	0	0	
4	0	0	0	0	35	484	0	432	0	0	
5	0	0	0	0	85	492	0	433	0	0	
6	0	0	0	0	145	499	0	433	0	0	
7	0	0	0	0	209	504	0	432	0	0	
8	0	0	0	0	273	508	0	431	0	0	
9	0	0	0	0	331	511	0	430	0	0	
10	0	0	0	0	379	512	0	429	0	0	
11	0	0	0	0	415	512	0	428	0	0	
12	0	0	0	0	436	511	0	428	0	0	
13	0	0	0	0	441	508	0	428	0	0	
14	0	0	0	0	432	503	0	427	0	0	
15	0	0	0	0	408	496	0	424	0	0	
0	0	0	0	0	373	487	0	422	0	0	
1	0	0	0	0	332	476	0	418	0	0	
2	0	0	0	0	285	465	0	413	0	0	
3	0	0	0	0	241	454	0	408	0	0	
4	0	0	0	0	205	445	0	403	0	0	
5	0	0	0	0	189	438	0	397	0	0	
6	0	0	0	0	198	433	0	391	0	0	
7	0	0	0	0	231	433	0	387	0	0	
8	0	0	0	0	280	436	0	384	0	0	
9	0	0	0	0	339	443	0	383	0	0	
10	0	0	0	0	399	453	0	382	0	0	
11	0	0	0	0	454	464	0	384	0	0	
12	0	0	0	0	500	477	0	386	0	0	
13	0	0	0	0	535	489	0	390	0	0	
14	0	0	0	0	556	500	0	395	0	0	
15	0	0	0	0	560	508	0	400	0	0	
0	0	0	0	0	547	514	0	406	0	0	
1	0	0	0	0	518	515	0	410	0	0	
2	0	0	0	0	476	512	0	414	0	0	
3	0	0	0	0	423	507	0	417	0	0	
4	0	0	0	0	366	499	0	419	0	0	
5	0	0	0	0	308	490	0	419	0	0	
6	0	0	0	0	254	481	0	418	0	0	
7	0	0	0	0	210	473	0	416	0	0	
8	0	0	0	0	185	468	0	414	0	0	
9	0	0	0	0	192	465	0	411	0	0	
10	0	0	0	0	236	465	0	407	0	0	
11	0	0	0	0	316	467	0	404	0	0	
12	0	0	0	0	420	472	0	402	0	0	
13	0	0	0	0	533	479	0	400	0	0	
14	0	0	0	0	641	487	0	399	0	0	
15	0	0	0	0	733	496	0	399	0	0	
0	0	0	0	0	800	504	0	399	0	0	
1	0	0	0	0	837	512	0	401	0	0	
2	0	0	0	0	841	518	0	403	0	0	
3	0	0	0	0	812	523	0	406	0	0	
4	0	0	0	0	753	525	0	408	0	0	
5	0	0	0	0	670	526	0	410	0	0	
6	0	0	0	0	569	523	0	412	0	0	
7	0	0	0	0	459	519	0	413	0	0	
8	0	0	0	0	348	512	0	413	0	0	
9	0	0	0	0	243	504	0	412	0	0	
10	0	0	0	0	153	494	0	410	0	0	
11	0	0	0	0	79	484	0	406	0	0	
12	0	0	0	0	28	473	0	400	0	0	
13	0	0	0	0	3	464	0	394	0	0	
14	0	0	0	0	6	456	0	387	0	0	
15	0	0	0	0	36	451	0	379	0	0	
0	0	0	0	0	89	446	0	371	0	0	
1	0	0	0	0	157	444	0	364	0	0	
2	0	0	0	0	231	443	0	358	0	0	
3	0	0	0	0	304	444	0	354	0	0	
4	0	0	0	0	371	446	0	350	0	0	
5	0	0	0	0	426	449	0	350	0	0	
6	0	0	0	0	465	453	0	351	0	0	
7	0	0	0	0	487	457	0	355	0	0	
8	0	0	0	0	491	462	0	361	0	0	
9	0	0	0	0	477	466	0	370	0	0	
10	0	0	0	0	449	470	0	379	0	0	
11	0	0	0	0	412	473	0	389	0	0	
12	0	0	0	0	368	475	0	398	0	0	
13	0	0	0	0	321	476	0	406	0	0	
14	0	0	0	0	279	476	0	412	0	0	
15	0	0	0	0	253	476	0	415	0	0	
0	0	0	0	0	259	476	0	417	0	0	
1	0	0	0	0	312	475	0	417	0	0	
2	0	0	0	0	415	475	0	415	0	0	
3	0	0	0	0	559	476	0	410	0	0	
4	0	0	0	0	730	476	0	405	0	0	
5	0	0	0	0	911	476	0	399	0	0	
6	0	0	0	0	1021	476	0	393	0	0	
7	0	0	0	0	1021	478	0	387	0	0	
8	0	0	0	0	1021	479	0	384	0	0	
9	0	0	0	0	1021	482	0	382	0	0	
10	0	0	0	0	1021	486	0	384	0	0	
11	0	0	0	0	1021	489	0	388	0	0	
12	0	0	0	0	1021	494	0	394	0	0	
13	0	0	0	0	1021	497	0	402	0	0	
14	0	0	0	0	979	499	0	411	0	0	
15	0	0	0	0	892	499	0	419	0	0	
0	0	0	0	0	775	497	0	426	0	0	
1	0	0	0	0	636	494	0	430	0	0	
2	0	0	0	0	487	488	0	432	0	0	
3	0	0	0	0	340	481	0	430	0	0	
4	0	0	0	0	213	474	0	426	0	0	
5	0	0	0	0	122	466	0	419	0	0	
6	0	0	0	0	76	459	0	409	0	0	
7	0	0	0	0	77	454	0	399	0	0	
8	0	0	0	0	118	449	0	388	0	0	
9	0	0	0	0	191	448	0	379	0	0	
10	0	0	0	0	282	448	0	371	0	0	
11	0	0	0	0	380	450	0	366	0	0	
12	0	0	0	0	475	455	0	363	0	0	
13	0	0	0	0	556	460	0	363	0	0	
14	0	0	0	0	615	466	0	365	0	0	
15	0	0	0	0	650	473	0	370	0	0	
0	0	0	0	0	658	479	0	376	0	0	
1	0	0	0	0	641	484	0	383	0	0	
2	0	0	0	0	600	488	0	391	0	0	
3	0	0	0	0	543	491	0	400	0	0	
4	0	0	0	0	474	492	0	409	0	0	
5	0	0	0	0	399	491	0	417	0	0	
6	0	0	0	0	327	489	0	424	0	0	
7	0	0	0	0	260	487	0	430	0	0	
8	0	0	0	0	205	487	0	434	0	0	
9	0	0	0	0	163	487	0	436	0	0	
10	0	0	0	0	138	489	0	437	0	0	
11	0	0	0	0	128	493	0	436	0	0	
12	0	0	0	0	135	496	0	432	0	0	
13	0	0	0	0	154	499	0	427	0	0	
14	0	0	0	0	183	501	0	420	0	0	
15	0	0	0	0	218	502	0	411	0	0	
0	0	0	0	0	259	500	0	401	0	0	
1	0	0	0	0	303	497	0	391	0	0	
2	0	0	0	0	347	492	0	382	0	0	
3	0	0	0	0	387	485	0	374	0	0	
4	0	0	0	0	419	478	0	367	0	0	
5	0	0	0	0	440	471	0	363	0	0	
6	0	0	0	0	450	464	0	361	0	0	
7	0	0	0	0	449	459	0	362	0	0	
8	0	0	0	0	437	454	0	364	0	0	
9	0	0	0	0	416	452	0	367	0	0	
10	0	0	0	0	391	451	0	371	0	0	
11	0	0	0	0	370	452	0	375	0	0	
12	0	0	0	0	368	455	0	380	0	0	
13	0	0	0	0	397	460	0	385	0	0	
14	0	0	0	0	463	466	0	389	0	0	
15	0	0	0	0	562	473	0	392	0	0	
0	0	0	0	0	683	479	0	394	0	0	
1	0	0	0	0	814	484	0	395	0	0	
2	0	0	0	0	943	487	0	394	0	0	
3	0	0	0	0	1021	489	0	393	0	0	
4	0	0	0	0	1021	489	0	391	0	0	
5	0	0	0	0	1021	489	0	389	0	0	
6	0	0	0	0	1021	487	0	387	0	0	
7	0	0	0	0	1021	484	0	385	0	0	
8	0	0	0	0	1021	481	0	384	0	0	
9	0	0	0	0	986	478	0	384	0	0	
10	0	0	0	0	909	475	0	385	0	0	
11	0	0	0	0	805	472	0	387	0	0	
12	0	0	0	0	680	470	0	390	0	0	
13	0	0	0	0	546	469	0	393	0	0	
14	0	0	0	0	414	469	0	398	0	0	
15	0	0	0	0	305	470	0	401	0	0	
0	0	0	0	0	242	472	0	404	0	0	
1	0	0	0	0	235	474	0	407	0	0	
2	0	0	0	0	286	477	0	408	0	0	
3	0	0	0	0	384	480	0	409	0	0	
4	0	0	0	0	513	482	0	409	0	0	
5	0	0	0	0	652	484	0	409	0	0	
6	0	0	0	0	781	486	0	409	0	0	
7	0	0	0	0	887	485	0	407	0	0	
8	0	0	0	0	962	484	0	404	0	0	
9	0	0	0	0	1000	481	0	401	0	0	
10	0	0	0	0	999	477	0	396	0	0	
11	0	0	0	0	956	472	0	391	0	0	
12	0	0	0	0	876	467	0	386	0	0	
13	0	0	0	0	768	463	0	382	0	0	
14	0	0	0	0	639	460	0	380	0	0	
15	0	0	0	0	500	458	0	380	0	0	
0	0	0	0	0	362	459	0	383	0	0	
1	0	0	0	0	236	461	0	387	0	0	
2	0	0	0	0	131	467	0	394	0	0	
3	0	0	0	0	55	473	0	402	0	0	
4	0	0	0	0	17	481	0	411	0	0	
5	0	0	0	0	30	489	0	419	0	0	
6	0	0	0	0	99	497	0	425	0	0	
7	0	0	0	0	220	504	0	429	0	0	
8	0	0	0	0	382	509	0	430	0	0	
9	0	0	0	0	569	511	0	429	0	0	
10	0	0	0	0	764	511	0	425	0	0	
11	0	0	0	0	948	508	0	419	0	0	
12	0	0	0	0	1021	504	0	412	0	0	
13	0	0	0	0	1021	498	0	404	0	0	
14	0	0	0	0	1021	489	0	396	0	0	
15	0	0	0	0	1021	479	0	387	0	0	
0	0	0	0	0	1021	468	0	377	0	0	
1	0	0	0	0	1021	457	0	370	0	0	
2	0	0	0	0	1019	447	0	364	0	0	
3	0	0	0	0	954	438	0	360	0	0	
4	0	0	0	0	855	431	0	358	0	0	
5	0	0	0	0	730	427	0	359	0	0	
6	0	0	0	0	588	424	0	361	0	0	
7	0	0	0	0	446	425	0	366	0	0	
8	0	0	0	0	326	428	0	371	0	0	
9	0	0	0	0	249	434	0	377	0	0	
10	0	0	0	0	227	443	0	383	0	0	
11	0	0	0	0	262	453	0	388	0	0	
12	0	0	0	0	348	464	0	393	0	0	
13	0	0	0	0	471	475	0	397	0	0	
14	0	0	0	0	611	486	0	400	0	0	
15	0	0	0	0	751	495	0	402	0	0	
0	0	0	0	0	872	504	0	404	0	0	
1	0	0	0	0	963	511	0	406	0	0	
2	0	0	0	0	1019	516	0	408	0	0	
3	0	0	0	0	1021	519	0	410	0	0	
4	0	0	0	0	996	520	0	412	0	0	
5	0	0	0	0	926	518	0	413	0	0	
6	0	0	0	0	821	511	0	413	0	0	
7	0	0	0	0	689	503	0	412	0	0	
8	0	0	0	0	542	492	0	411	0	0	
9	0	0	0	0	390	480	0	408	0	0	
10	0	0	0	0	244	467	0	405	0	0	
11	0	0	0	0	118	455	0	400	0	0	
12	0	0	0	0	25	445	0	396	0	0	
13	0	0	0	0	0	436	0	391	0	0	
14	0	0	0	0	0	430	0	385	0	0	
15	0	0	0	0	44	428	0	381	0	0	
0	0	0	0	0	132	427	0	376	0	0	
1	0	0	0	0	246	428	0	372	0	0	
2	0	0	0	0	372	431	0	369	0	0	
3	0	0	0	0	498	435	0	367	0	0	
4	0	0	0	0	611	440	0	367	0	0	
5	0	0	0	0	704	445	0	368	0	0	
6	0	0	0	0	769	450	0	371	0	0	
7	0	0	0	0	802	455	0	375	0	0	
8	0	0	0	0	801	457	0	380	0	0	
9	0	0	0	0	768	459	0	385	0	0	
10	0	0	0	0	705	459	0	391	0	0	
11	0	0	0	0	618	457	0	396	0	0	
12	0	0	0	0	517	455	0	402	0	0	
13	0	0	0	0	410	454	0	408	0	0	
14	0	0	0	0	307	454	0	414	0	0	
15	0	0	0	0	222	456	0	419	0	0	
0	0	0	0	0	169	460	0	425	0	0	
1	0	0	0	0	163	466	0	430	0	0	
2	0	0	0	0	207	474	0	433	0	0	
3	0	0	0	0	299	482	0	435	0	0	
4	0	0	0	0	427	491	0	435	0	0	
5	0	0	0	0	573	497	0	433	0	0	
6	0	0	0	0	719	501	0	428	0	0	
7	0	0	0	0	849	503	0	420	0	0	
8	0	0	0	0	952	501	0	412	0	0	
9	0	0	0	0	1019	496	0	402	0	0	
10	0	0	0	0	1021	489	0	392	0	0	
11	0	0	0	0	1012	480	0	383	0	0	
12	0	0	0	0	953	471	0	376	0	0	
13	0	0	0	0	857	462	0	370	0	0	
14	0	0	0	0	731	453	0	367	0	0	
15	0	0	0	0	587	445	0	366	0	0	
0	0	0	0	0	435	439	0	368	0	0	
1	0	0	0	0	286	435	0	372	0	0	
2	0	0	0	0	152	433	0	377	0	0	
3	0	0	0	0	41	432	0	384	0	0	
4	0	0	0	0	0	433	0	390	0	0	
5	0	0	0	0	0	435	0	395	0	0	
6	0	0	0	0	0	436	0	398	0	0	
7	0	0	0	0	0	435	0	397	0	0	
8	0	0	0	0	22	435	0	393	0	0	
9	0	0	0	0	74	433	0	388	0	0	
10	0	0	0	0	145	431	0	380	0	0	
11	0	0	0	0	229	430	0	372	0	0	
12	0	0	0	0	321	430	0	365	0	0	
13	0	0	0	0	415	431	0	360	0	0	
14	0	0	0	0	503	434	0	358	0	0	
15	0	0	0	0	576	439	0	359	0	0	
0	0	0	0	0	628	445	0	362	0	0	
1	0	0	0	0	655	452	0	369	0	0	
2	0	0	0	0	656	459	0	377	0	0	
3	0	0	0	0	633	464	0	387	0	0	
4	0	0	0	0	588	468	0	397	0	0	
5	0	0	0	0	526	470	0	406	0	0	
6	0	0	0	0	454	470	0	414	0	0	
7	0	0	0	0	384	470	0	419	0	0	
8	0	0	0	0	330	467	0	423	0	0	
9	0	0	0	0	311	466	0	426	0	0	
10	0	0	0	0	334	466	0	428	0	0	
11	0	0	0	0	398	467	0	427	0	0	
12	0	0	0	0	495	471	0	427	0	0	
13	0	0	0	0	612	474	0	425	0	0	
14	0	0	0	0	736	478	0	423	0	0	
15	0	0	0	0	855	482	0	420	0	0	
0	0	0	0	0	961	485	0	418	0	0	
1	0	0	0	0	1021	487	0	416	0	0	
2	0	0	0	0	1021	487	0	414	0	0	
3	0	0	0	0	1021	485	0	412	0	0	
4	0	0	0	0	1021	481	0	410	0	0	
5	0	0	0	0	998	475	0	407	0	0	
6	0	0	0	0	927	467	0	404	0	0	
7	0	0	0	0	824	459	0	401	0	0	
8	0	0	0	0	696	449	0	397	0	0	
9	0	0	0	0	555	440	0	392	0	0	
10	0	0	0	0	409	431	0	388	0	0	
11	0	0	0	0	281	425	0	385	0	0	
12	0	0	0	0	193	422	0	382	0	0	
13	0	0	0	0	160	422	0	381	0	0	
14	0	0	0	0	191	425	0	382	0	0	
15	0	0	0	0	279	430	0	383	0	0	
0	0	0	0	0	414	437	0	385	0	0	
1	0	0	0	0	573	444	0	387	0	0	
2	0	0	0	0	739	451	0	391	0	0	
3	0	0	0	0	893	458	0	394	0	0	
4	0	0	0	0	1020	464	0	398	0	0	
5	0	0	0	0	1021	468	0	403	0	0	
6	0	0	0	0	1021	472	0	408	0	0	
7	0	0	0	0	1021	473	0	413	0	0	
8	0	0	0	0	1016	475	0	419	0	0	
9	0	0	0	0	952	475	0	424	0	0	
10	0	0	0	0	852	473	0	429	0	0	
11	0	0	0	0	726	471	0	433	0	0	
12	0	0	0	0	581	467	0	435	0	0	
13	0	0	0	0	430	463	0	436	0	0	
14	0	0	0	0	281	457	0	435	0	0	
15	0	0	0	0	151	453	0	431	0	0	
0	0	0	0	0	50	448	0	426	0	0	
1	0	0	0	0	0	444	0	419	0	0	
2	0	0	0	0	0	443	0	412	0	0	
3	0	0	0	0	28	443	0	406	0	0	
4	0	0	0	0	102	444	0	400	0	0	
5	0	0	0	0	201	447	0	396	0	0	
6	0	0	0	0	314	451	0	394	0	0	
7	0	0	0	0	428	455	0	393	0	0	
8	0	0	0	0	531	460	0	395	0	0	
9	0	0	0	0	616	465	0	398	0	0	
10	0	0	0	0	675	470	0	403	0	0	
11	0	0	0	0	704	475	0	410	0	0	
12	0	0	0	0	705	479	0	417	0	0	
13	0	0	0	0	679	484	0	426	0	0	
14	0	0	0	0	632	487	0	435	0	0	
15	0	0	0	0	566	491	0	443	0	0	
0	0	0	0	0	490	493	0	450	0	0	
1	0	0	0	0	410	494	0	455	0	0	
2	0	0	0	0	334	492	0	459	0	0	
3	0	0	0	0	274	490	0	461	0	0	
4	0	0	0	0	246	487	0	460	0	0	
5	0	0	0	0	261	482	0	457	0	0	
6	0	0	0	0	321	476	0	451	0	0	
7	0	0	0	0	421	469	0	443	0	0	
8	0	0	0	0	544	462	0	432	0	0	
9	0	0	0	0	674	454	0	421	0	0	
10	0	0	0	0	793	448	0	410	0	0	
11	0	0	0	0	888	442	0	399	0	0	
12	0	0	0	0	954	438	0	391	0	0	
13	0	0	0	0	983	435	0	384	0	0	
14	0	0	0	0	973	435	0	380	0	0	
15	0	0	0	0	924	435	0	378	0	0	
0	0	0	0	0	838	435	0	378	0	0	
1	0	0	0	0	724	436	0	381	0	0	
2	0	0	0	0	590	437	0	384	0	0	
3	0	0	0	0	446	436	0	388	0	0	
4	0	0	0	0	304	436	0	393	0	0	
5	0	0	0	0	173	435	0	398	0	0	
6	0	0	0	0	63	436	0	403	0	0	
7	0	0	0	0	0	437	0	407	0	0	
8	0	0	0	0	0	438	0	411	0	0	
9	0	0	0	0	0	440	0	413	0	0	
10	0	0	0	0	4	443	0	415	0	0	
11	0	0	0	0	62	446	0	416	0	0	
12	0	0	0	0	152	448	0	415	0	0	
13	0	0	0	0	263	449	0	414	0	0	
14	0	0	0	0	388	449	0	411	0	0	
15	0	0	0	0	515	447	0	407	0	0	
0	0	0	0	0	631	444	0	403	0	0	
1	0	0	0	0	728	440	0	398	0	0	
2	0	0	0	0	797	437	0	392	0	0	
3	0	0	0	0	834	435	0	390	0	0	
4	0	0	0	0	836	433	0	387	0	0	
5	0	0	0	0	806	434	0	387	0	0	
6	0	0	0	0	744	435	0	390	0	0	
7	0	0	0	0	658	438	0	395	0	0	
8	0	0	0	0	555	441	0	401	0	0	
9	0	0	0	0	444	445	0	407	0	0	
10	0	0	0	0	333	448	0	414	0	0	
11	0	0	0	0	233	452	0	420	0	0	
12	0	0	0	0	155	456	0	425	0	0	
13	0	0	0	0	107	460	0	430	0	0	
14	0	0	0	0	94	464	0	432	0	0	
15	0	0	0	0	117	468	0	433	0	0	
0	0	0	0	0	169	471	0	432	0	0	
1	0	0	0	0	239	474	0	430	0	0	
2	0	0	0	0	319	476	0	427	0	0	
3	0	0	0	0	400	479	0	424	0	0	
4	0	0	0	0	474	481	0	422	0	0	
5	0	0	0	0	535	484	0	422	0	0	
6	0	0	0	0	576	487	0	423	0	0	
7	0	0	0	0	596	490	0	425	0	0	
8	0	0	0	0	595	492	0	430	0	0	
9	0	0	0	0	573	493	0	435	0	0	
10	0	0	0	0	532	492	0	440	0	0	
11	0	0	0	0	478	487	0	444	0	0	
12	0	0	0	0	415	481	0	447	0	0	
13	0	0	0	0	348	472	0	448	0	0	
14	0	0	0	0	283	462	0	445	0	0	
15	0	0	0	0	227	452	0	440	0	0	
0	0	0	0	0	194	443	0	434	0	0	
1	0	0	0	0	195	435	0	426	0	0	
2	0	0	0	0	235	430	0	418	0	0	
3	0	0	0	0	310	428	0	409	0	0	
4	0	0	0	0	412	428	0	401	0	0	
5	0	0	0	0	523	431	0	395	0	0	
6	0	0	0	0	630	437	0	391	0	0	
7	0	0	0	0	720	446	0	390	0	0	
8	0	0	0	0	787	455	0	391	0	0	
9	0	0	0	0	823	465	0	394	0	0	
10	0	0	0	0	826	474	0	399	0	0	
11	0	0	0	0	797	481	0	406	0	0	
12	0	0	0	0	735	484	0	411	0	0	
13	0	0	0	0	649	484	0	414	0	0	
14	0	0	0	0	543	478	0	415	0	0	
15	0	0	0	0	427	467	0	413	0	0	
0	0	0	0	0	307	453	0	407	0	0	
1	0	0	0	0	195	435	0	397	0	0	
2	0	0	0	0	93	414	0	384	0	0	
3	0	0	0	0	9	392	0	368	0	0	
4	0	0	0	0	0	370	0	348	0	0	
5	0	0	0	0	0	348	0	327	0	0	
6	0	0	0	0	0	328	0	305	0	0	
7	0	0	0	0	43	311	0	283	0	0	
8	0	0	0	0	127	297	0	262	0	0	
9	0	0	0	0	238	285	0	242	0	0	
10	0	0	0	0	366	276	0	224	0	0	
11	0	0	0	0	502	270	0	207	0	0	
12	0	0	0	0	633	264	0	194	0	0	
13	0	0	0	0	750	259	0	183	0	0	
14	0	0	0	0	840	255	0	175	0	0	
15	0	0	0	0	894	250	0	170	0	0	
0	0	0	0	0	908	246	0	167	0	0	
1	0	0	0	0	878	242	0	169	0	0	
2	0	0	0	0	806	239	0	174	0	0	
3	0	0	0	0	697	238	0	183	0	0	
4	0	0	0	0	563	238	0	195	0	0	
5	0	0	0	0	415	241	0	209	0	0	
6	0	0	0	0	263	248	0	227	0	0	
7	0	0	0	0	127	257	0	245	0	0	
8	0	0	0	0	22	271	0	265	0	0	
9	0	0	0	0	0	287	0	285	0	0	
10	0	0	0	0	0	306	0	304	0	0	
11	0	0	0	0	43	327	0	322	0	0	
12	0	0	0	0	144	350	0	339	0	0	
13	0	0	0	0	281	374	0	356	0	0	
14	0	0	0	0	441	398	0	371	0	0	
15	0	0	0	0	607	421	0	386	0	0	
0	0	0	0	0	766	443	0	400	0	0	
1	0	0	0	0	904	462	0	413	0	0	
2	0	0	0	0	1013	479	0	427	0	0	
3	0	0	0	0	1021	492	0	439	0	0	
4	0	0	0	0	1021	503	0	451	0	0	
5	0	0	0	0	1021	511	0	462	0	0	
6	0	0	0	0	977	516	0	472	0	0	
7	0	0	0	0	894	519	0	481	0	0	
8	0	0	0	0	781	521	0	489	0	0	
9	0	0	0	0	649	519	0	494	0	0	
10	0	0	0	0	510	517	0	496	0	0	
11	0	0	0	0	377	513	0	495	0	0	
12	0	0	0	0	270	507	0	491	0	0	
13	0	0	0	0	205	500	0	482	0	0	
14	0	0	0	0	187	492	0	472	0	0	
15	0	0	0	0	215	483	0	458	0	0	
0	0	0	0	0	283	475	0	444	0	0	
1	0	0	0	0	378	467	0	429	0	0	
2	0	0	0	0	487	459	0	414	0	0	
3	0	0	0	0	600	452	0	401	0	0	
4	0	0	0	0	707	447	0	390	0	0	
5	0	0	0	0	803	442	0	382	0	0	
6	0	0	0	0	880	439	0	377	0	0	
7	0	0	0	0	931	436	0	375	0	0	
8	0	0	0	0	951	435	0	376	0	0	
9	0	0	0	0	935	435	0	380	0	0	
10	0	0	0	0	884	435	0	386	0	0	
11	0	0	0	0	803	437	0	394	0	0	
12	0	0	0	0	699	440	0	404	0	0	
13	0	0	0	0	579	443	0	414	0	0	
14	0	0	0	0	455	448	0	424	0	0	
15	0	0	0	0	344	453	0	435	0	0	
0	0	0	0	0	263	460	0	444	0	0	
1	0	0	0	0	229	467	0	452	0	0	
2	0	0	0	0	247	475	0	460	0	0	
3	0	0	0	0	311	482	0	465	0	0	
4	0	0	0	0	411	487	0	467	0	0	
5	0	0	0	0	526	492	0	468	0	0	
6	0	0	0	0	642	493	0	465	0	0	
7	0	0	0	0	742	492	0	460	0	0	
8	0	0	0	0	818	489	0	453	0	0	
9	0	0	0	0	862	485	0	445	0	0	
10	0	0	0	0	871	480	0	437	0	0	
11	0	0	0	0	844	473	0	429	0	0	
12	0	0	0	0	783	467	0	422	0	0	
13	0	0	0	0	696	461	0	416	0	0	
14	0	0	0	0	590	455	0	412	0	0	
15	0	0	0	0	473	451	0	411	0	0	
0	0	0	0	0	355	448	0	411	0	0	
1	0	0	0	0	247	446	0	413	0	0	
2	0	0	0	0	156	446	0	416	0	0	
3	0	0	0	0	99	448	0	422	0	0	
4	0	0	0	0	92	452	0	428	0	0	
5	0	0	0	0	145	457	0	434	0	0	
6	0	0	0	0	257	463	0	440	0	0	
7	0	0	0	0	418	471	0	446	0	0	
8	0	0	0	0	604	479	0	451	0	0	
9	0	0	0	0	793	488	0	456	0	0	
10	0	0	0	0	962	496	0	460	0	0	
11	0	0	0	0	1021	501	0	462	0	0	
12	0	0	0	0	1021	505	0	462	0	0	
13	0	0	0	0	1021	507	0	461	0	0	
14	0	0	0	0	1021	506	0	458	0	0	
15	0	0	0	0	1009	503	0	454	0	0	
0	0	0	0	0	936	499	0	450	0	0	
1	0	0	0	0	830	492	0	445	0	0	
2	0	0	0	0	696	486	0	441	0	0	
3	0	0	0	0	550	479	0	438	0	0	
4	0	0	0	0	399	472	0	436	0	0	
5	0	0	0	0	256	466	0	434	0	0	
6	0	0	0	0	133	462	0	433	0	0	
7	0	0	0	0	37	460	0	432	0	0	
8	0	0	0	0	0	458	0	432	0	0	
9	0	0	0	0	0	458	0	431	0	0	
10	0	0	0	0	31	458	0	429	0	0	
11	0	0	0	0	118	459	0	426	0	0	
12	0	0	0	0	244	459	0	422	0	0	
13	0	0	0	0	397	457	0	416	0	0	
14	0	0	0	0	564	455	0	410	0	0	
15	0	0	0	0	733	452	0	404	0	0	
0	0	0	0	0	891	451	0	400	0	0	
1	0	0	0	0	1021	450	0	398	0	0	
2	0	0	0	0	1021	451	0	399	0	0	
3	0	0	0	0	1021	455	0	403	0	0	
4	0	0	0	0	1021	461	0	411	0	0	
5	0	0	0	0	1021	470	0	423	0	0	
6	0	0	0	0	1015	480	0	438	0	0	
7	0	0	0	0	954	491	0	454	0	0	
8	0	0	0	0	862	502	0	469	0	0	
9	0	0	0	0	745	510	0	482	0	0	
10	0	0	0	0	613	515	0	490	0	0	
11	0	0	0	0	480	518	0	494	0	0	
12	0	0	0	0	362	516	0	492	0	0	
13	0	0	0	0	279	511	0	485	0	0	
14	0	0	0	0	238	503	0	473	0	0	
15	0	0	0	0	239	493	0	458	0	0	
0	0	0	0	0	275	481	0	440	0	0	
1	0	0	0	0	334	468	0	422	0	0	
2	0	0	0	0	404	455	0	403	0	0	
3	0	0	0	0	474	443	0	386	0	0	
4	0	0	0	0	537	431	0	371	0	0	
5	0	0	0	0	584	422	0	360	0	0	
6	0	0	0	0	613	415	0	354	0	0	
7	0	0	0	0	619	411	0	352	0	0	
8	0	0	0	0	604	409	0	353	0	0	
9	0	0	0	0	570	410	0	359	0	0	
10	0	0	0	0	519	413	0	368	0	0	
11	0	0	0	0	459	418	0	380	0	0	
12	0	0	0	0	393	423	0	391	0	0	
13	0	0	0	0	327	429	0	402	0	0	
14	0	0	0	0	274	435	0	412	0	0	
15	0	0	0	0	248	441	0	420	0	0	
0	0	0	0	0	266	445	0	424	0	0	
1	0	0	0	0	335	448	0	426	0	0	
2	0	0	0	0	453	451	0	425	0	0	
3	0	0	0	0	609	453	0	423	0	0	
4	0	0	0	0	787	454	0	420	0	0	
5	0	0	0	0	967	453	0	415	0	0	
6	0	0	0	0	1021	452	0	409	0	0	
7	0	0	0	0	1021	451	0	404	0	0	
8	0	0	0	0	1021	450	0	401	0	0	
9	0	0	0	0	1021	450	0	399	0	0	
10	0	0	0	0	1021	452	0	400	0	0	
11	0	0	0	0	1021	456	0	403	0	0	
12	0	0	0	0	1021	462	0	407	0	0	
13	0	0	0	0	1018	468	0	413	0	0	
14	0	0	0	0	957	475	0	420	0	0	
15	0	0	0	0	863	481	0	428	0	0	
0	0	0	0	0	744	487	0	435	0	0	
1	0	0	0	0	609	492	0	441	0	0	
2	0	0	0	0	466	494	0	444	0	0	
3	0	0	0	0	326	494	0	446	0	0	
4	0	0	0	0	207	493	0	444	0	0	
5	0	0	0	0	118	488	0	440	0	0	
6	0	0	0	0	67	482	0	433	0	0	
7	0	0	0	0	52	474	0	423	0	0	
8	0	0	0	0	71	465	0	413	0	0	
9	0	0	0	0	114	457	0	402	0	0	
10	0	0	0	0	176	448	0	392	0	0	
11	0	0	0	0	247	442	0	385	0	0	
12	0	0	0	0	319	438	0	380	0	0	
13	0	0	0	0	386	436	0	378	0	0	
14	0	0	0	0	440	435	0	379	0	0	
15	0	0	0	0	479	436	0	382	0	0	
0	0	0	0	0	499	438	0	387	0	0	
1	0	0	0	0	499	440	0	392	0	0	
2	0	0	0	0	482	442	0	399	0	0	
3	0	0	0	0	451	444	0	404	0	0	
4	0	0	0	0	408	447	0	410	0	0	
5	0	0	0	0	361	449	0	415	0	0	
6	0	0	0	0	315	453	0	420	0	0	
7	0	0	0	0	280	456	0	423	0	0	
8	0	0	0	0	271	460	0	427	0	0	
9	0	0	0	0	296	463	0	428	0	0	
10	0	0	0	0	359	467	0	429	0	0	
11	0	0	0	0	453	470	0	429	0	0	
12	0	0	0	0	563	472	0	427	0	0	
13	0	0	0	0	677	472	0	424	0	0	
14	0	0	0	0	783	471	0	419	0	0	
15	0	0	0	0	874	467	0	413	0	0	
0	0	0	0	0	947	463	0	405	0	0	
1	0	0	0	0	1000	459	0	398	0	0	
2	0	0	0	0	1021	452	0	390	0	0	
3	0	0	0	0	1019	446	0	384	0	0	
4	0	0	0	0	981	440	0	378	0	0	
5	0	0	0	0	911	434	0	374	0	0	
6	0	0	0	0	812	429	0	373	0	0	
7	0	0	0	0	691	424	0	373	0	0	
8	0	0	0	0	555	420	0	376	0	0	
9	0	0	0	0	414	416	0	380	0	0	
10	0	0	0	0	283	413	0	384	0	0	
11	0	0	0	0	182	411	0	388	0	0	
12	0	0	0	0	130	409	0	391	0	0	
13	0	0	0	0	137	408	0	393	0	0	
14	0	0	0	0	207	408	0	394	0	0	
15	0	0	0	0	327	409	0	393	0	0	
0	0	0	0	0	486	411	0	391	0	0	
1	0	0	0	0	663	414	0	388	0	0	
2	0	0	0	0	840	417	0	384	0	0	
3	0	0	0	0	1003	422	0	381	0	0	
4	0	0	0	0	1021	428	0	379	0	0	
5	0	0	0	0	1021	435	0	380	0	0	
6	0	0	0	0	1021	443	0	382	0	0	
7	0	0	0	0	1021	451	0	387	0	0	
8	0	0	0	0	1021	459	0	392	0	0	
9	0	0	0	0	1021	463	0	398	0	0	
10	0	0	0	0	968	466	0	403	0	0	
11	0	0	0	0	875	465	0	406	0	0	
12	0	0	0	0	752	461	0	406	0	0	
13	0	0	0	0	614	454	0	404	0	0	
14	0	0	0	0	480	446	0	400	0	0	
15	0	0	0	0	376	436	0	393	0	0	
0	0	0	0	0	324	427	0	386	0	0	
1	0	0	0	0	334	417	0	377	0	0	
2	0	0	0	0	403	410	0	369	0	0	
3	0	0	0	0	517	406	0	361	0	0	
4	0	0	0	0	655	404	0	356	0	0	
5	0	0	0	0	794	404	0	353	0	0	
6	0	0	0	0	917	408	0	352	0	0	
7	0	0	0	0	1012	414	0	353	0	0	
8	0	0	0	0	1021	420	0	357	0	0	
9	0	0	0	0	1021	428	0	361	0	0	
10	0	0	0	0	1006	436	0	368	0	0	
11	0	0	0	0	935	443	0	374	0	0	
12	0	0	0	0	828	448	0	379	0	0	
13	0	0	0	0	692	449	0	383	0	0	
14	0	0	0	0	537	448	0	386	0	0	
15	0	0	0	0	374	443	0	385	0	0	
0	0	0	0	0	215	434	0	382	0	0	
1	0	0	0	0	73	423	0	377	0	0	
2	0	0	0	0	0	410	0	370	0	0	
3	0	0	0	0	0	397	0	361	0	0	
4	0	0	0	0	0	385	0	352	0	0	
5	0	0	0	0	22	376	0	344	0	0	
6	0	0	0	0	129	369	0	337	0	0	
7	0	0	0	0	288	368	0	333	0	0	
8	0	0	0	0	479	372	0	333	0	0	
9	0	0	0	0	680	380	0	336	0	0	
10	0	0	0	0	870	392	0	343	0	0	
11	0	0	0	0	1021	408	0	352	0	0	
12	0	0	0	0	1021	424	0	364	0	0	
13	0	0	0	0	1021	440	0	376	0	0	
14	0	0	0	0	1021	454	0	387	0	0	
15	0	0	0	0	1021	463	0	397	0	0	
0	0	0	0	0	1021	469	0	404	0	0	
1	0	0	0	0	980	470	0	408	0	0	
2	0	0	0	0	891	467	0	410	0	0	
3	0	0	0	0	772	461	0	409	0	0	
4	0	0	0	0	632	454	0	406	0	0	
5	0	0	0	0	485	446	0	402	0	0	
6	0	0	0	0	348	439	0	398	0	0	
7	0	0	0	0	246	432	0	392	0	0	
8	0	0	0	0	199	427	0	386	0	0	
9	0	0	0	0	216	423	0	379	0	0	
10	0	0	0	0	293	419	0	371	0	0	
11	0	0	0	0	418	415	0	362	0	0	
12	0	0	0	0	569	411	0	353	0	0	
13	0	0	0	0	725	407	0	344	0	0	
14	0	0	0	0	864	403	0	337	0	0	
15	0	0	0	0	973	399	0	331	0	0	
0	0	0	0	0	1021	396	0	327	0	0	
1	0	0	0	0	1021	395	0	326	0	0	
2	0	0	0	0	1018	395	0	328	0	0	
3	0	0	0	0	959	397	0	334	0	0	
4	0	0	0	0	861	399	0	341	0	0	
5	0	0	0	0	732	403	0	351	0	0	
6	0	0	0	0	582	407	0	360	0	0	
7	0	0	0	0	422	409	0	370	0	0	
8	0	0	0	0	264	412	0	377	0	0	
9	0	0	0	0	120	413	0	383	0	0	
10	0	0	0	0	0	415	0	387	0	0	
11	0	0	0	0	0	416	0	388	0	0	
12	0	0	0	0	0	419	0	389	0	0	
13	0	0	0	0	0	422	0	388	0	0	
14	0	0	0	0	28	426	0	386	0	0	
15	0	0	0	0	116	432	0	385	0	0	
0	0	0	0	0	240	439	0	384	0	0	
1	0	0	0	0	384	445	0	384	0	0	
2	0	0	0	0	536	452	0	384	0	0	
3	0	0	0	0	686	457	0	384	0	0	
4	0	0	0	0	822	461	0	382	0	0	
5	0	0	0	0	936	463	0	381	0	0	
6	0	0	0	0	1019	463	0	379	0	0	
7	0	0	0	0	1021	460	0	376	0	0	
8	0	0	0	0	1021	455	0	371	0	0	
9	0	0	0	0	989	447	0	368	0	0	
10	0	0	0	0	906	439	0	364	0	0	
11	0	0	0	0	788	430	0	361	0	0	
12	0	0	0	0	646	420	0	358	0	0	
13	0	0	0	0	489	413	0	357	0	0	
14	0	0	0	0	330	408	0	358	0	0	
15	0	0	0	0	186	407	0	360	0	0	
0	0	0	0	0	76	408	0	365	0	0	
1	0	0	0	0	12	413	0	370	0	0	
2	0	0	0	0	1	421	0	376	0	0	
3	0	0	0	0	43	430	0	384	0	0	
4	0	0	0	0	133	440	0	390	0	0	
5	0	0	0	0	256	451	0	396	0	0	
6	0	0	0	0	397	461	0	402	0	0	
7	0	0	0	0	543	471	0	407	0	0	
8	0	0	0	0	680	480	0	411	0	0	
9	0	0	0	0	797	487	0	414	0	0	
10	0	0	0	0	883	490	0	415	0	0	
11	0	0	0	0	931	489	0	416	0	0	
12	0	0	0	0	938	486	0	414	0	0	
13	0	0	0	0	903	479	0	411	0	0	
14	0	0	0	0	829	470	0	407	0	0	
15	0	0	0	0	721	459	0	403	0	0	
0	0	0	0	0	591	448	0	398	0	0	
1	0	0	0	0	448	436	0	393	0	0	
2	0	0	0	0	305	427	0	388	0	0	
3	0	0	0	0	183	419	0	383	0	0	
4	0	0	0	0	99	413	0	379	0	0	
5	0	0	0	0	70	409	0	375	0	0	
6	0	0	0	0	101	408	0	370	0	0	
7	0	0	0	0	189	409	0	368	0	0	
8	0	0	0	0	323	413	0	366	0	0	
9	0	0	0	0	489	419	0	366	0	0	
10	0	0	0	0	668	427	0	368	0	0	
11	0	0	0	0	843	436	0	372	0	0	
12	0	0	0	0	1004	447	0	378	0	0	
13	0	0	0	0	1021	458	0	386	0	0	
14	0	0	0	0	1021	470	0	396	0	0	
15	0	0	0	0	1021	482	0	409	0	0	
0	0	0	0	0	1021	494	0	422	0	0	
1	0	0	0	0	1021	504	0	436	0	0	
2	0	0	0	0	1004	511	0	449	0	0	
3	0	0	0	0	931	516	0	460	0	0	
4	0	0	0	0	824	518	0	468	0	0	
5	0	0	0	0	694	516	0	474	0	0	
6	0	0	0	0	553	511	0	475	0	0	
7	0	0	0	0	424	504	0	474	0	0	
8	0	0	0	0	329	496	0	469	0	0	
9	0	0	0	0	286	487	0	462	0	0	
10	0	0	0	0	295	478	0	454	0	0	
11	0	0	0	0	351	470	0	444	0	0	
12	0	0	0	0	441	463	0	435	0	0	
13	0	0	0	0	546	456	0	426	0	0	
14	0	0	0	0	649	452	0	417	0	0	
15	0	0	0	0	737	449	0	409	0	0	
0	0	0	0	0	801	448	0	404	0	0	
1	0	0	0	0	833	448	0	400	0	0	
2	0	0	0	0	832	450	0	400	0	0	
3	0	0	0	0	797	454	0	403	0	0	
4	0	0	0	0	733	459	0	408	0	0	
5	0	0	0	0	646	467	0	416	0	0	
6	0	0	0	0	544	476	0	426	0	0	
7	0	0	0	0	438	488	0	439	0	0	
8	0	0	0	0	334	500	0	451	0	0	
9	0	0	0	0	240	512	0	463	0	0	
10	0	0	0	0	163	523	0	473	0	0	
11	0	0	0	0	104	531	0	480	0	0	
12	0	0	0	0	72	537	0	484	0	0	
13	0	0	0	0	72	539	0	484	0	0	
14	0	0	0	0	106	539	0	480	0	0	
15	0	0	0	0	170	536	0	473	0	0	
0	0	0	0	0	255	530	0	465	0	0	
1	0	0	0	0	351	524	0	457	0	0	
2	0	0	0	0	448	517	0	450	0	0	
3	0	0	0	0	537	513	0	446	0	0	
4	0	0	0	0	614	509	0	444	0	0	
5	0	0	0	0	675	507	0	444	0	0	
6	0	0	0	0	715	505	0	446	0	0	
7	0	0	0	0	732	504	0	448	0	0	
8	0	0	0	0	723	503	0	451	0	0	
9	0	0	0	0	689	500	0	453	0	0	
10	0	0	0	0	633	498	0	455	0	0	
11	0	0	0	0	560	495	0	456	0	0	
12	0	0	0	0	475	491	0	457	0	0	
13	0	0	0	0	385	487	0	456	0	0	
14	0	0	0	0	298	484	0	455	0	0	
15	0	0	0	0	221	481	0	451	0	0	
0	0	0	0	0	163	478	0	447	0	0	
1	0	0	0	0	134	475	0	442	0	0	
2	0	0	0	0	140	473	0	435	0	0	
3	0	0	0	0	180	471	0	429	0	0	
4	0	0	0	0	248	470	0	423	0	0	
5	0	0	0	0	334	468	0	416	0	0	
6	0	0	0	0	428	467	0	410	0	0	
7	0	0	0	0	523	467	0	405	0	0	
8	0	0	0	0	610	467	0	401	0	0	
9	0	0	0	0	683	467	0	399	0	0	
10	0	0	0	0	734	467	0	399	0	0	
11	0	0	0	0	758	468	0	400	0	0	
12	0	0	0	0	753	470	0	404	0	0	
13	0	0	0	0	720	471	0	409	0	0	
14	0	0	0	0	660	471	0	415	0	0	
15	0	0	0	0	580	472	0	422	0	0	
0	0	0	0	0	486	471	0	429	0	0	
1	0	0	0	0	386	471	0	435	0	0	
2	0	0	0	0	288	471	0	440	0	0	
3	0	0	0	0	204	472	0	446	0	0	
4	0	0	0	0	145	475	0	450	0	0	
5	0	0	0	0	124	479	0	454	0	0	
6	0	0	0	0	147	484	0	457	0	0	
7	0	0	0	0	214	491	0	460	0	0	
8	0	0	0	0	317	498	0	462	0	0	
9	0	0	0	0	446	505	0	463	0	0	
10	0	0	0	0	586	512	0	463	0	0	
11	0	0	0	0	724	516	0	462	0	0	
12	0	0	0	0	850	520	0	460	0	0	
13	0	0	0	0	951	522	0	459	0	0	
14	0	0	0	0	1020	521	0	457	0	0	
15	0	0	0	0	1021	519	0	455	0	0	
0	0	0	0	0	1019	516	0	454	0	0	
1	0	0	0	0	966	511	0	454	0	0	
2	0	0	0	0	874	505	0	453	0	0	
3	0	0	0	0	752	500	0	453	0	0	
4	0	0	0	0	609	493	0	453	0	0	
5	0	0	0	0	455	487	0	452	0	0	
6	0	0	0	0	300	481	0	451	0	0	
7	0	0	0	0	161	476	0	449	0	0	
8	0	0	0	0	51	473	0	447	0	0	
9	0	0	0	0	0	471	0	444	0	0	
10	0	0	0	0	0	472	0	441	0	0	
11	0	0	0	0	24	475	0	439	0	0	
12	0	0	0	0	105	480	0	437	0	0	
13	0	0	0	0	221	485	0	435	0	0	
14	0	0	0	0	357	490	0	433	0	0	
15	0	0	0	0	496	496	0	432	0	0	
0	0	0	0	0	622	500	0	432	0	0	
1	0	0	0	0	723	503	0	432	0	0	
2	0	0	0	0	788	505	0	434	0	0	
3	0	0	0	0	817	506	0	436	0	0	
4	0	0	0	0	807	507	0	440	0	0	
5	0	0	0	0	761	506	0	447	0	0	
6	0	0	0	0	684	505	0	454	0	0	
7	0	0	0	0	584	503	0	462	0	0	
8	0	0	0	0	473	502	0	470	0	0	
9	0	0	0	0	357	500	0	478	0	0	
10	0	0	0	0	251	501	0	485	0	0	
11	0	0	0	0	166	504	0	491	0	0	
12	0	0	0	0	117	508	0	496	0	0	
13	0	0	0	0	113	513	0	497	0	0	
14	0	0	0	0	157	518	0	496	0	0	
15	0	0	0	0	240	524	0	493	0	0	
0	0	0	0	0	351	527	0	487	0	0	
1	0	0	0	0	475	528	0	478	0	0	
2	0	0	0	0	596	527	0	468	0	0	
3	0	0	0	0	706	525	0	458	0	0	
4	0	0	0	0	798	520	0	448	0	0	
5	0	0	0	0	867	515	0	440	0	0	
6	0	0	0	0	910	508	0	433	0	0	
7	0	0	0	0	919	501	0	430	0	0	
8	0	0	0	0	895	494	0	428	0	0	
9	0	0	0	0	836	487	0	428	0	0	
10	0	0	0	0	748	481	0	432	0	0	
11	0	0	0	0	639	476	0	437	0	0	
12	0	0	0	0	515	471	0	443	0	0	
13	0	0	0	0	386	468	0	449	0	0	
14	0	0	0	0	263	465	0	455	0	0	
15	0	0	0	0	156	464	0	459	0	0	
0	0	0	0	0	81	464	0	461	0	0	
1	0	0	0	0	49	465	0	462	0	0	
2	0	0	0	0	68	467	0	460	0	0	
3	0	0	0	0	139	469	0	456	0	0	
4	0	0	0	0	253	472	0	452	0	0	
5	0	0	0	0	398	476	0	448	0	0	
6	0	0	0	0	558	479	0	442	0	0	
7	0	0	0	0	718	483	0	438	0	0	
8	0	0	0	0	862	486	0	435	0	0	
9	0	0	0	0	978	488	0	432	0	0	
10	0	0	0	0	1021	490	0	432	0	0	
11	0	0	0	0	1021	492	0	434	0	0	
12	0	0	0	0	1021	492	0	437	0	0	
13	0	0	0	0	971	490	0	440	0	0	
14	0	0	0	0	877	487	0	445	0	0	
15	0	0	0	0	750	483	0	449	0	0	
0	0	0	0	0	601	479	0	454	0	0	
1	0	0	0	0	443	475	0	457	0	0	
2	0	0	0	0	286	472	0	461	0	0	
3	0	0	0	0	145	471	0	465	0	0	
4	0	0	0	0	36	472	0	470	0	0	
5	0	0	0	0	0	477	0	474	0	0	
6	0	0	0	0	0	484	0	477	0	0	
7	0	0	0	0	3	492	0	480	0	0	
8	0	0	0	0	57	500	0	481	0	0	
9	0	0	0	0	138	508	0	481	0	0	
10	0	0	0	0	238	515	0	480	0	0	
11	0	0	0	0	348	520	0	476	0	0	
12	0	0	0	0	462	524	0	472	0	0	
13	0	0	0	0	569	525	0	468	0	0	
14	0	0	0	0	660	523	0	462	0	0	
15	0	0	0	0	726	519	0	457	0	0	
0	0	0	0	0	760	512	0	452	0	0	
1	0	0	0	0	761	502	0	447	0	0	
2	0	0	0	0	729	490	0	444	0	0	
3	0	0	0	0	668	478	0	440	0	0	
4	0	0	0	0	582	465	0	438	0	0	
5	0	0	0	0	482	454	0	436	0	0	
6	0	0	0	0	379	444	0	436	0	0	
7	0	0	0	0	290	437	0	436	0	0	
8	0	0	0	0	235	433	0	436	0	0	
9	0	0	0	0	225	431	0	437	0	0	
10	0	0	0	0	263	434	0	438	0	0	
11	0	0	0	0	346	440	0	441	0	0	
12	0	0	0	0	461	448	0	445	0	0	
13	0	0	0	0	594	460	0	449	0	0	
14	0	0	0	0	731	472	0	455	0	0	
15	0	0	0	0	862	484	0	461	0	0	
0	0	0	0	0	977	495	0	467	0	0	
1	0	0	0	0	1021	504	0	472	0	0	
2	0	0	0	0	1021	510	0	476	0	0	
3	0	0	0	0	1021	512	0	478	0	0	
4	0	0	0	0	1021	510	0	478	0	0	
5	0	0	0	0	998	506	0	478	0	0	
6	0	0	0	0	925	499	0	476	0	0	
7	0	0	0	0	820	491	0	473	0	0	
8	0	0	0	0	691	482	0	471	0	0	
9	0	0	0	0	547	474	0	468	0	0	
10	0	0	0	0	401	468	0	467	0	0	
11	0	0	0	0	271	464	0	467	0	0	
12	0	0	0	0	176	463	0	468	0	0	
13	0	0	0	0	131	465	0	471	0	0	
14	0	0	0	0	140	470	0	474	0	0	
15	0	0	0	0	199	477	0	477	0	0	
0	0	0	0	0	294	484	0	480	0	0	
1	0	0	0	0	411	493	0	483	0	0	
2	0	0	0	0	532	502	0	485	0	0	
3	0	0	0	0	643	509	0	487	0	0	
4	0	0	0	0	733	515	0	487	0	0	
5	0	0	0	0	792	519	0	488	0	0	
6	0	0	0	0	816	521	0	488	0	0	
7	0	0	0	0	805	519	0	487	0	0	
8	0	0	0	0	759	515	0	487	0	0	
9	0	0	0	0	684	509	0	486	0	0	
10	0	0	0	0	587	501	0	485	0	0	
11	0	0	0	0	477	493	0	485	0	0	
12	0	0	0	0	363	484	0	485	0	0	
13	0	0	0	0	255	477	0	485	0	0	
14	0	0	0	0	161	472	0	486	0	0	
15	0	0	0	0	93	469	0	487	0	0	
0	0	0	0	0	64	471	0	489	0	0	
1	0	0	0	0	81	475	0	491	0	0	
2	0	0	0	0	143	481	0	492	0	0	
3	0	0	0	0	240	490	0	493	0	0	
4	0	0	0	0	359	498	0	494	0	0	
5	0	0	0	0	484	505	0	492	0	0	
6	0	0	0	0	602	511	0	491	0	0	
7	0	0	0	0	701	515	0	487	0	0	
8	0	0	0	0	779	516	0	483	0	0	
9	0	0	0	0	833	515	0	479	0	0	
10	0	0	0	0	864	512	0	473	0	0	
11	0	0	0	0	864	505	0	467	0	0	
12	0	0	0	0	835	497	0	462	0	0	
13	0	0	0	0	776	487	0	457	0	0	
14	0	0	0	0	693	476	0	454	0	0	
15	0	0	0	0	590	464	0	451	0	0	
0	0	0	0	0	477	454	0	448	0	0	
1	0	0	0	0	360	445	0	448	0	0	
2	0	0	0	0	250	438	0	449	0	0	
3	0	0	0	0	159	433	0	451	0	0	
4	0	0	0	0	99	432	0	455	0	0	
5	0	0	0	0	80	435	0	461	0	0	
6	0	0	0	0	106	441	0	468	0	0	
7	0	0	0	0	172	449	0	475	0	0	
8	0	0	0	0	269	459	0	482	0	0	
9	0	0	0	0	383	469	0	488	0	0	
10	0	0	0	0	500	479	0	493	0	0	
11	0	0	0	0	610	488	0	497	0	0	
12	0	0	0	0	704	496	0	500	0	0	
13	0	0	0	0	772	503	0	502	0	0	
14	0	0	0	0	810	508	0	503	0	0	
15	0	0	0	0	815	511	0	504	0	0	
0	0	0	0	0	787	512	0	503	0	0	
1	0	0	0	0	729	511	0	501	0	0	
2	0	0	0	0	646	508	0	498	0	0	
3	0	0	0	0	546	503	0	495	0	0	
4	0	0	0	0	438	496	0	490	0	0	
5	0	0	0	0	329	490	0	485	0	0	
6	0	0	0	0	231	485	0	480	0	0	
7	0	0	0	0	159	481	0	476	0	0	
8	0	0	0	0	128	480	0	473	0	0	
9	0	0	0	0	148	481	0	472	0	0	
10	0	0	0	0	221	484	0	471	0	0	
11	0	0	0	0	337	488	0	472	0	0	
12	0	0	0	0	482	493	0	472	0	0	
13	0	0	0	0	633	498	0	474	0	0	
14	0	0	0	0	773	502	0	476	0	0	
15	0	0	0	0	886	505	0	477	0	0	
0	0	0	0	0	966	507	0	478	0	0	
1	0	0	0	0	1008	507	0	480	0	0	
2	0	0	0	0	1007	505	0	481	0	0	
3	0	0	0	0	963	502	0	481	0	0	
4	0	0	0	0	881	497	0	482	0	0	
5	0	0	0	0	767	493	0	483	0	0	
6	0	0	0	0	632	487	0	484	0	0	
7	0	0	0	0	485	483	0	487	0	0	
8	0	0	0	0	338	479	0	488	0	0	
9	0	0	0	0	205	476	0	491	0	0	
10	0	0	0	0	102	475	0	493	0	0	
11	0	0	0	0	44	475	0	496	0	0	
12	0	0	0	0	46	477	0	498	0	0	
13	0	0	0	0	113	480	0	499	0	0	
14	0	0	0	0	238	486	0	501	0	0	
15	0	0	0	0	406	492	0	503	0	0	
0	0	0	0	0	596	500	0	506	0	0	
1	0	0	0	0	786	510	0	510	0	0	
2	0	0	0	0	954	519	0	515	0	0	
3	0	0	0	0	1021	529	0	520	0	0	
4	0	0	0	0	1021	537	0	526	0	0	
5	0	0	0	0	1021	543	0	531	0	0	
6	0	0	0	0	1021	547	0	535	0	0	
7	0	0	0	0	1021	549	0	538	0	0	
8	0	0	0	0	1003	549	0	540	0	0	
9	0	0	0	0	932	546	0	540	0	0	
10	0	0	0	0	830	541	0	539	0	0	
11	0	0	0	0	704	533	0	536	0	0	
12	0	0	0	0	562	523	0	532	0	0	
13	0	0	0	0	414	512	0	524	0	0	
14	0	0	0	0	270	499	0	515	0	0	
15	0	0	0	0	143	486	0	504	0	0	
0	0	0	0	0	46	473	0	492	0	0	
1	0	0	0	0	0	462	0	479	0	0	
2	0	0	0	0	0	453	0	467	0	0	
3	0	0	0	0	18	448	0	456	0	0	
4	0	0	0	0	84	444	0	447	0	0	
5	0	0	0	0	182	444	0	440	0	0	
6	0	0	0	0	299	447	0	436	0	0	
7	0	0	0	0	428	451	0	435	0	0	
8	0	0	0	0	556	457	0	436	0	0	
9	0	0	0	0	674	463	0	440	0	0	
10	0	0	0	0	768	471	0	446	0	0	
11	0	0	0	0	831	477	0	453	0	0	
12	0	0	0	0	858	482	0	462	0	0	
13	0	0	0	0	848	486	0	470	0	0	
14	0	0	0	0	802	488	0	479	0	0	
15	0	0	0	0	724	489	0	487	0	0	
0	0	0	0	0	624	489	0	496	0	0	
1	0	0	0	0	511	491	0	504	0	0	
2	0	0	0	0	394	494	0	512	0	0	
3	0	0	0	0	288	497	0	520	0	0	
4	0	0	0	0	209	503	0	527	0	0	
5	0	0	0	0	168	510	0	532	0	0	
6	0	0	0	0	172	515	0	535	0	0	
7	0	0	0	0	222	520	0	535	0	0	
8	0	0	0	0	309	523	0	532	0	0	
9	0	0	0	0	427	523	0	527	0	0	
10	0	0	0	0	559	521	0	521	0	0	
11	0	0	0	0	694	516	0	514	0	0	
12	0	0	0	0	819	509	0	507	0	0	
13	0	0	0	0	922	500	0	500	0	0	
14	0	0	0	0	993	491	0	495	0	0	
15	0	0	0	0	1021	480	0	491	0	0	
0	0	0	0	0	1011	471	0	488	0	0	
1	0	0	0	0	958	462	0	485	0	0	
2	0	0	0	0	865	454	0	484	0	0	
3	0	0	0	0	743	447	0	483	0	0	
4	0	0	0	0	599	442	0	482	0	0	
5	0	0	0	0	444	439	0	480	0	0	
6	0	0	0	0	294	437	0	479	0	0	
7	0	0	0	0	170	438	0	477	0	0	
8	0	0	0	0	90	439	0	475	0	0	
9	0	0	0	0	68	443	0	473	0	0	
10	0	0	0	0	108	447	0	471	0	0	
11	0	0	0	0	204	451	0	470	0	0	
12	0	0	0	0	341	457	0	468	0	0	
13	0	0	0	0	500	463	0	468	0	0	
14	0	0	0	0	661	468	0	468	0	0	
15	0	0	0	0	803	473	0	470	0	0	
0	0	0	0	0	914	478	0	472	0	0	
1	0	0	0	0	986	483	0	475	0	0	
2	0	0	0	0	1013	486	0	480	0	0	
3	0	0	0	0	995	489	0	485	0	0	
4	0	0	0	0	931	491	0	490	0	0	
5	0	0	0	0	831	492	0	496	0	0	
6	0	0	0	0	702	493	0	502	0	0	
7	0	0	0	0	556	494	0	508	0	0	
8	0	0	0	0	404	494	0	515	0	0	
9	0	0	0	0	259	495	0	520	0	0	
10	0	0	0	0	137	496	0	526	0	0	
11	0	0	0	0	57	498	0	530	0	0	
12	0	0	0	0	34	500	0	533	0	0	
13	0	0	0	0	78	503	0	534	0	0	
14	0	0	0	0	185	504	0	534	0	0	
15	0	0	0	0	340	505	0	532	0	0	
0	0	0	0	0	521	505	0	529	0	0	
1	0	0	0	0	707	505	0	524	0	0	
2	0	0	0	0	874	504	0	520	0	0	
3	0	0	0	0	1008	503	0	516	0	0	
4	0	0	0	0	1021	504	0	515	0	0	
5	0	0	0	0	1021	507	0	516	0	0	
6	0	0	0	0	1021	510	0	518	0	0	
7	0	0	0	0	1018	515	0	522	0	0	
8	0	0	0	0	955	518	0	526	0	0	
9	0	0	0	0	858	520	0	529	0	0	
10	0	0	0	0	734	521	0	532	0	0	
11	0	0	0	0	591	519	0	534	0	0	
12	0	0	0	0	441	515	0	534	0	0	
13	0	0	0	0	291	508	0	531	0	0	
14	0	0	0	0	156	499	0	525	0	0	
15	0	0	0	0	45	487	0	517	0	0	
0	0	0	0	0	0	474	0	507	0	0	
1	0	0	0	0	0	461	0	494	0	0	
2	0	0	0	0	3	449	0	481	0	0	
3	0	0	0	0	61	439	0	467	0	0	
4	0	0	0	0	152	430	0	455	0	0	
5	0	0	0	0	262	423	0	444	0	0	
6	0	0	0	0	381	419	0	435	0	0	
7	0	0	0	0	498	417	0	428	0	0	
8	0	0	0	0	605	417	0	423	0	0	
9	0	0	0	0	695	419	0	423	0	0	
10	0	0	0	0	758	423	0	425	0	0	
11	0	0	0	0	792	428	0	429	0	0	
12	0	0	0	0	790	432	0	435	0	0	
13	0	0	0	0	756	436	0	442	0	0	
14	0	0	0	0	692	440	0	450	0	0	
15	0	0	0	0	605	443	0	458	0	0	
0	0	0	0	0	502	445	0	466	0	0	
1	0	0	0	0	393	449	0	474	0	0	
2	0	0	0	0	288	455	0	482	0	0	
3	0	0	0	0	202	462	0	491	0	0	
4	0	0	0	0	150	471	0	499	0	0	
5	0	0	0	0	144	482	0	508	0	0	
6	0	0	0	0	189	494	0	515	0	0	
7	0	0	0	0	280	506	0	522	0	0	
8	0	0	0	0	407	516	0	527	0	0	
9	0	0	0	0	552	526	0	532	0	0	
10	0	0	0	0	699	532	0	535	0	0	
11	0	0	0	0	832	536	0	537	0	0	
12	0	0	0	0	941	537	0	537	0	0	
13	0	0	0	0	1016	535	0	537	0	0	
14	0	0	0	0	1021	531	0	534	0	0	
15	0	0	0	0	1020	524	0	530	0	0	
0	0	0	0	0	967	515	0	524	0	0	
1	0	0	0	0	876	505	0	518	0	0	
2	0	0	0	0	752	494	0	510	0	0	
3	0	0	0	0	606	484	0	503	0	0	
4	0	0	0	0	450	474	0	496	0	0	
5	0	0	0	0	293	465	0	489	0	0	
6	0	0	0	0	152	459	0	484	0	0	
7	0	0	0	0	39	455	0	479	0	0	
8	0	0	0	0	0	452	0	476	0	0	
9	0	0	0	0	0	451	0	472	0	0	
10	0	0	0	0	21	451	0	469	0	0	
11	0	0	0	0	98	451	0	466	0	0	
12	0	0	0	0	204	452	0	464	0	0	
13	0	0	0	0	324	453	0	462	0	0	
14	0	0	0	0	444	454	0	461	0	0	
15	0	0	0	0	555	455	0	461	0	0	
0	0	0	0	0	647	457	0	461	0	0	
1	0	0	0	0	717	460	0	463	0	0	
2	0	0	0	0	760	462	0	467	0	0	
3	0	0	0	0	774	464	0	472	0	0	
4	0	0	0	0	757	466	0	476	0	0	
5	0	0	0	0	711	467	0	481	0	0	
6	0	0	0	0	639	469	0	487	0	0	
7	0	0	0	0	551	470	0	493	0	0	
8	0	0	0	0	453	472	0	499	0	0	
9	0	0	0	0	352	474	0	505	0	0	
10	0	0	0	0	258	477	0	510	0	0	
11	0	0	0	0	181	482	0	516	0	0	
12	0	0	0	0	135	487	0	521	0	0	
13	0	0	0	0	131	494	0	527	0	0	
14	0	0	0	0	174	501	0	531	0	0	
15	0	0	0	0	260	510	0	535	0	0	
0	0	0	0	0	381	518	0	538	0	0	
1	0	0	0	0	521	524	0	539	0	0	
2	0	0	0	0	667	529	0	539	0	0	
3	0	0	0	0	802	532	0	536	0	0	
4	0	0	0	0	915	532	0	532	0	0	
5	0	0	0	0	995	529	0	526	0	0	
6	0	0	0	0	1021	524	0	518	0	0	
7	0	0	0	0	1021	518	0	510	0	0	
8	0	0	0	0	978	509	0	503	0	0	
9	0	0	0	0	894	501	0	496	0	0	
