# OpenSignals Text File Format. Version 1
# {"": {"position": 0, "device": "", "device name": "", "device connection": "", "sampling rate": 1000, "resolution": [4, 1, 1, 1, 1, 10, 10, 10, 10, 6, 6], "firmware version": 1281, "comments": "", "keywords": "", "mode": 0, "sync interval": 2, "date": "", "time": "", "channels": [1, 2, 3, 4, 5, 6], "sensor": ["RAW", "RAW", "RAW", "RAW", "RAW", "RAW"], "label": ["A1", "A2", "A3", "A4", "A5", "A6"], "column": ["nSeq", "I1", "I2", "O1", "O2", "A1", "A2", "A3", "A4", "A5", "A6"], "special": [{}, {}, {}, {}, {}, {}], "digital IO": [0, 0, 1, 1]}}
# EndOfHeader
0	0	0	0	0	353	519	0	455	0	0	
1	0	0	0	0	412	508	0	451	0	0	
2	0	0	0	0	489	496	0	445	0	0	
3	0	0	0	0	574	484	0	440	0	0	
4	0	0	0	0	659	475	0	435	0	0	
5	0	0	0	0	735	467	0	433	0	0	
6	0	0	0	0	794	464	0	434	0	0	
7	0	0	0	0	831	464	0	436	0	0	
8	0	0	0	0	842	467	0	442	0	0	
9	0	0	0	0	826	474	0	448	0	0	
10	0	0	0	0	783	483	0	457	0	0	
11	0	0	0	0	719	493	0	467	0	0	
12	0	0	0	0	640	504	0	475	0	0	
13	0	0	0	0	553	512	0	481	0	0	
14	0	0	0	0	468	519	0	486	0	0	
15	0	0	0	0	393	524	0	487	0	0	
0	0	0	0	0	335	525	0	486	0	0	
1	0	0	0	0	300	523	0	481	0	0	
2	0	0	0	0	293	518	0	475	0	0	
3	0	0	0	0	315	511	0	466	0	0	
4	0	0	0	0	366	504	0	456	0	0	
5	0	0	0	0	441	498	0	448	0	0	
6	0	0	0	0	531	494	0	440	0	0	
7	0	0	0	0	631	492	0	434	0	0	
8	0	0	0	0	728	492	0	431	0	0	
9	0	0	0	0	814	494	0	432	0	0	
10	0	0	0	0	880	498	0	434	0	0	
11	0	0	0	0	922	504	0	441	0	0	
12	0	0	0	0	934	510	0	449	0	0	
13	0	0	0	0	912	515	0	458	0	0	
14	0	0	0	0	859	519	0	467	0	0	
15	0	0	0	0	776	520	0	473	0	0	
0	0	0	0	0	671	516	0	476	0	0	
1	0	0	0	0	551	508	0	476	0	0	
2	0	0	0	0	427	495	0	470	0	0	
3	0	0	0	0	309	478	0	460	0	0	
4	0	0	0	0	210	459	0	446	0	0	
5	0	0	0	0	139	439	0	431	0	0	
6	0	0	0	0	104	422	0	416	0	0	
7	0	0	0	0	110	410	0	404	0	0	
8	0	0	0	0	159	405	0	395	0	0	
9	0	0	0	0	247	407	0	392	0	0	
10	0	0	0	0	365	415	0	394	0	0	
11	0	0	0	0	502	428	0	400	0	0	
12	0	0	0	0	641	443	0	410	0	0	
13	0	0	0	0	771	460	0	422	0	0	
14	0	0	0	0	879	476	0	436	0	0	
15	0	0	0	0	956	490	0	450	0	0	
0	0	0	0	0	996	502	0	465	0	0	
1	0	0	0	0	997	511	0	479	0	0	
2	0	0	0	0	960	520	0	492	0	0	
3	0	0	0	0	890	527	0	505	0	0	
4	0	0	0	0	794	534	0	515	0	0	
5	0	0	0	0	683	538	0	523	0	0	
6	0	0	0	0	565	540	0	528	0	0	
7	0	0	0	0	453	539	0	530	0	0	
8	0	0	0	0	355	534	0	527	0	0	
9	0	0	0	0	282	524	0	520	0	0	
10	0	0	0	0	239	510	0	509	0	0	
11	0	0	0	0	227	494	0	495	0	0	
12	0	0	0	0	249	475	0	478	0	0	
13	0	0	0	0	302	457	0	461	0	0	
14	0	0	0	0	378	440	0	444	0	0	
15	0	0	0	0	468	425	0	428	0	0	
0	0	0	0	0	560	413	0	412	0	0	
1	0	0	0	0	643	403	0	399	0	0	
2	0	0	0	0	710	397	0	389	0	0	
3	0	0	0	0	753	393	0	383	0	0	
4	0	0	0	0	769	394	0	380	0	0	
5	0	0	0	0	757	398	0	383	0	0	
6	0	0	0	0	719	407	0	391	0	0	
7	0	0	0	0	659	419	0	402	0	0	
8	0	0	0	0	583	432	0	416	0	0	
9	0	0	0	0	503	448	0	431	0	0	
10	0	0	0	0	424	463	0	446	0	0	
11	0	0	0	0	359	479	0	460	0	0	
12	0	0	0	0	315	494	0	472	0	0	
13	0	0	0	0	295	507	0	480	0	0	
14	0	0	0	0	306	518	0	485	0	0	
15	0	0	0	0	347	527	0	487	0	0	
0	0	0	0	0	413	532	0	485	0	0	
1	0	0	0	0	498	535	0	480	0	0	
2	0	0	0	0	593	533	0	471	0	0	
3	0	0	0	0	687	527	0	461	0	0	
4	0	0	0	0	770	519	0	449	0	0	
5	0	0	0	0	834	506	0	437	0	0	
6	0	0	0	0	871	491	0	427	0	0	
7	0	0	0	0	876	473	0	418	0	0	
8	0	0	0	0	848	455	0	411	0	0	
9	0	0	0	0	787	436	0	408	0	0	
10	0	0	0	0	700	422	0	408	0	0	
11	0	0	0	0	595	411	0	413	0	0	
12	0	0	0	0	482	406	0	420	0	0	
13	0	0	0	0	371	404	0	431	0	0	
14	0	0	0	0	273	408	0	441	0	0	
15	0	0	0	0	199	415	0	451	0	0	
0	0	0	0	0	157	426	0	460	0	0	
1	0	0	0	0	151	441	0	467	0	0	
2	0	0	0	0	184	459	0	474	0	0	
3	0	0	0	0	255	479	0	478	0	0	
4	0	0	0	0	360	499	0	480	0	0	
5	0	0	0	0	488	520	0	480	0	0	
6	0	0	0	0	628	539	0	479	0	0	
7	0	0	0	0	767	554	0	476	0	0	
8	0	0	0	0	891	565	0	473	0	0	
9	0	0	0	0	988	569	0	469	0	0	
10	0	0	0	0	1021	566	0	463	0	0	
11	0	0	0	0	1021	557	0	458	0	0	
12	0	0	0	0	1016	543	0	454	0	0	
13	0	0	0	0	956	527	0	450	0	0	
14	0	0	0	0	862	510	0	448	0	0	
15	0	0	0	0	741	493	0	448	0	0	
0	0	0	0	0	603	478	0	449	0	0	
1	0	0	0	0	460	463	0	452	0	0	
2	0	0	0	0	326	449	0	457	0	0	
3	0	0	0	0	215	438	0	462	0	0	
4	0	0	0	0	135	427	0	466	0	0	
5	0	0	0	0	94	418	0	469	0	0	
6	0	0	0	0	95	412	0	470	0	0	
7	0	0	0	0	137	409	0	470	0	0	
8	0	0	0	0	218	411	0	467	0	0	
9	0	0	0	0	327	417	0	462	0	0	
10	0	0	0	0	455	427	0	454	0	0	
11	0	0	0	0	591	440	0	446	0	0	
12	0	0	0	0	719	454	0	436	0	0	
13	0	0	0	0	830	470	0	429	0	0	
14	0	0	0	0	915	485	0	423	0	0	
15	0	0	0	0	969	501	0	420	0	0	
0	0	0	0	0	987	516	0	421	0	0	
1	0	0	0	0	968	529	0	425	0	0	
2	0	0	0	0	914	541	0	434	0	0	
3	0	0	0	0	831	550	0	444	0	0	
4	0	0	0	0	724	555	0	455	0	0	
5	0	0	0	0	605	555	0	464	0	0	
6	0	0	0	0	483	550	0	471	0	0	
7	0	0	0	0	370	538	0	474	0	0	
8	0	0	0	0	278	523	0	473	0	0	
9	0	0	0	0	216	506	0	469	0	0	
10	0	0	0	0	190	488	0	462	0	0	
11	0	0	0	0	203	471	0	452	0	0	
12	0	0	0	0	254	457	0	441	0	0	
13	0	0	0	0	337	446	0	429	0	0	
14	0	0	0	0	445	439	0	417	0	0	
15	0	0	0	0	565	437	0	407	0	0	
0	0	0	0	0	688	440	0	401	0	0	
1	0	0	0	0	800	449	0	400	0	0	
2	0	0	0	0	894	464	0	405	0	0	
3	0	0	0	0	963	483	0	416	0	0	
4	0	0	0	0	1001	506	0	433	0	0	
5	0	0	0	0	1003	528	0	453	0	0	
6	0	0	0	0	969	550	0	476	0	0	
7	0	0	0	0	902	566	0	498	0	0	
8	0	0	0	0	807	578	0	517	0	0	
9	0	0	0	0	693	584	0	532	0	0	
10	0	0	0	0	574	585	0	543	0	0	
11	0	0	0	0	460	583	0	550	0	0	
12	0	0	0	0	363	576	0	551	0	0	
13	0	0	0	0	291	566	0	547	0	0	
14	0	0	0	0	253	552	0	538	0	0	
15	0	0	0	0	248	536	0	525	0	0	
0	0	0	0	0	280	521	0	510	0	0	
1	0	0	0	0	343	507	0	494	0	0	
2	0	0	0	0	432	495	0	479	0	0	
3	0	0	0	0	538	487	0	465	0	0	
4	0	0	0	0	648	483	0	455	0	0	
5	0	0	0	0	752	482	0	448	0	0	
6	0	0	0	0	839	483	0	443	0	0	
7	0	0	0	0	902	487	0	441	0	0	
8	0	0	0	0	935	492	0	443	0	0	
9	0	0	0	0	935	498	0	446	0	0	
10	0	0	0	0	903	504	0	452	0	0	
11	0	0	0	0	841	511	0	461	0	0	
12	0	0	0	0	756	516	0	470	0	0	
13	0	0	0	0	657	519	0	479	0	0	
14	0	0	0	0	552	520	0	486	0	0	
15	0	0	0	0	452	519	0	492	0	0	
0	0	0	0	0	368	516	0	496	0	0	
1	0	0	0	0	310	512	0	497	0	0	
2	0	0	0	0	282	508	0	495	0	0	
3	0	0	0	0	287	504	0	490	0	0	
4	0	0	0	0	324	499	0	483	0	0	
5	0	0	0	0	389	496	0	476	0	0	
6	0	0	0	0	476	495	0	467	0	0	
7	0	0	0	0	573	495	0	458	0	0	
8	0	0	0	0	669	494	0	449	0	0	
9	0	0	0	0	754	494	0	441	0	0	
10	0	0	0	0	818	492	0	435	0	0	
11	0	0	0	0	856	489	0	430	0	0	
12	0	0	0	0	864	487	0	428	0	0	
13	0	0	0	0	841	484	0	429	0	0	
14	0	0	0	0	788	482	0	432	0	0	
15	0	0	0	0	712	481	0	439	0	0	
0	0	0	0	0	620	480	0	447	0	0	
1	0	0	0	0	519	478	0	455	0	0	
2	0	0	0	0	421	475	0	463	0	0	
3	0	0	0	0	334	470	0	468	0	0	
4	0	0	0	0	268	463	0	471	0	0	
5	0	0	0	0	228	456	0	469	0	0	
6	0	0	0	0	220	447	0	464	0	0	
7	0	0	0	0	243	439	0	457	0	0	
8	0	0	0	0	298	431	0	449	0	0	
9	0	0	0	0	377	423	0	439	0	0	
10	0	0	0	0	473	416	0	429	0	0	
11	0	0	0	0	575	411	0	419	0	0	
12	0	0	0	0	671	407	0	410	0	0	
13	0	0	0	0	753	406	0	403	0	0	
14	0	0	0	0	815	407	0	399	0	0	
15	0	0	0	0	850	410	0	398	0	0	
0	0	0	0	0	856	416	0	400	0	0	
1	0	0	0	0	832	425	0	405	0	0	
2	0	0	0	0	782	438	0	414	0	0	
3	0	0	0	0	712	453	0	427	0	0	
4	0	0	0	0	628	470	0	441	0	0	
5	0	0	0	0	539	484	0	456	0	0	
6	0	0	0	0	452	497	0	471	0	0	
7	0	0	0	0	376	505	0	484	0	0	
8	0	0	0	0	321	510	0	495	0	0	
9	0	0	0	0	291	511	0	502	0	0	
10	0	0	0	0	291	509	0	506	0	0	
11	0	0	0	0	321	505	0	507	0	0	
12	0	0	0	0	382	500	0	505	0	0	
13	0	0	0	0	467	496	0	500	0	0	
14	0	0	0	0	568	494	0	494	0	0	
15	0	0	0	0	675	494	0	487	0	0	
0	0	0	0	0	779	496	0	480	0	0	
1	0	0	0	0	871	500	0	473	0	0	
2	0	0	0	0	941	506	0	467	0	0	
3	0	0	0	0	984	512	0	463	0	0	
4	0	0	0	0	994	518	0	460	0	0	
5	0	0	0	0	969	523	0	459	0	0	
6	0	0	0	0	910	525	0	458	0	0	
7	0	0	0	0	820	522	0	457	0	0	
8	0	0	0	0	706	514	0	455	0	0	
9	0	0	0	0	576	501	0	452	0	0	
10	0	0	0	0	445	485	0	448	0	0	
11	0	0	0	0	323	466	0	444	0	0	
12	0	0	0	0	225	448	0	439	0	0	
13	0	0	0	0	160	431	0	435	0	0	
14	0	0	0	0	135	417	0	432	0	0	
15	0	0	0	0	155	409	0	429	0	0	
0	0	0	0	0	219	407	0	429	0	0	
1	0	0	0	0	320	411	0	429	0	0	
2	0	0	0	0	452	423	0	432	0	0	
3	0	0	0	0	600	440	0	436	0	0	
4	0	0	0	0	751	462	0	443	0	0	
5	0	0	0	0	889	485	0	450	0	0	
6	0	0	0	0	1001	507	0	458	0	0	
7	0	0	0	0	1021	525	0	465	0	0	
8	0	0	0	0	1021	537	0	470	0	0	
9	0	0	0	0	1021	541	0	472	0	0	
10	0	0	0	0	977	536	0	472	0	0	
11	0	0	0	0	884	524	0	468	0	0	
12	0	0	0	0	761	507	0	464	0	0	
13	0	0	0	0	620	487	0	460	0	0	
14	0	0	0	0	476	467	0	458	0	0	
15	0	0	0	0	342	448	0	456	0	0	
0	0	0	0	0	231	431	0	455	0	0	
1	0	0	0	0	156	416	0	454	0	0	
2	0	0	0	0	121	404	0	452	0	0	
3	0	0	0	0	130	396	0	451	0	0	
4	0	0	0	0	184	393	0	451	0	0	
5	0	0	0	0	279	396	0	452	0	0	
6	0	0	0	0	406	406	0	455	0	0	
7	0	0	0	0	555	423	0	461	0	0	
8	0	0	0	0	711	445	0	468	0	0	
9	0	0	0	0	860	471	0	476	0	0	
10	0	0	0	0	987	499	0	485	0	0	
11	0	0	0	0	1021	524	0	494	0	0	
12	0	0	0	0	1021	547	0	501	0	0	
13	0	0	0	0	1021	567	0	507	0	0	
14	0	0	0	0	1021	581	0	512	0	0	
15	0	0	0	0	979	591	0	514	0	0	
0	0	0	0	0	902	594	0	515	0	0	
1	0	0	0	0	804	591	0	514	0	0	
2	0	0	0	0	692	582	0	510	0	0	
3	0	0	0	0	578	564	0	504	0	0	
4	0	0	0	0	472	538	0	494	0	0	
5	0	0	0	0	383	505	0	481	0	0	
6	0	0	0	0	320	467	0	466	0	0	
7	0	0	0	0	288	428	0	451	0	0	
8	0	0	0	0	290	389	0	435	0	0	
9	0	0	0	0	323	357	0	422	0	0	
10	0	0	0	0	385	334	0	410	0	0	
11	0	0	0	0	467	323	0	403	0	0	
12	0	0	0	0	559	325	0	401	0	0	
13	0	0	0	0	650	340	0	403	0	0	
14	0	0	0	0	732	367	0	412	0	0	
15	0	0	0	0	796	403	0	424	0	0	
0	0	0	0	0	837	444	0	441	0	0	
1	0	0	0	0	851	488	0	460	0	0	
2	0	0	0	0	836	530	0	480	0	0	
3	0	0	0	0	795	567	0	499	0	0	
4	0	0	0	0	731	596	0	515	0	0	
5	0	0	0	0	652	615	0	526	0	0	
6	0	0	0	0	563	624	0	532	0	0	
7	0	0	0	0	477	621	0	531	0	0	
8	0	0	0	0	398	607	0	523	0	0	
9	0	0	0	0	336	583	0	508	0	0	
10	0	0	0	0	295	552	0	487	0	0	
11	0	0	0	0	278	515	0	462	0	0	
12	0	0	0	0	286	473	0	433	0	0	
13	0	0	0	0	315	431	0	403	0	0	
14	0	0	0	0	364	391	0	374	0	0	
15	0	0	0	0	425	355	0	347	0	0	
0	0	0	0	0	492	327	0	326	0	0	
1	0	0	0	0	559	309	0	312	0	0	
2	0	0	0	0	618	303	0	307	0	0	
3	0	0	0	0	664	309	0	311	0	0	
4	0	0	0	0	695	327	0	324	0	0	
5	0	0	0	0	705	355	0	347	0	0	
6	0	0	0	0	697	390	0	376	0	0	
7	0	0	0	0	668	428	0	407	0	0	
8	0	0	0	0	623	464	0	440	0	0	
9	0	0	0	0	567	497	0	471	0	0	
10	0	0	0	0	507	525	0	499	0	0	
11	0	0	0	0	451	546	0	521	0	0	
12	0	0	0	0	407	560	0	538	0	0	
13	0	0	0	0	379	568	0	548	0	0	
14	0	0	0	0	373	570	0	553	0	0	
15	0	0	0	0	390	568	0	552	0	0	
0	0	0	0	0	429	561	0	547	0	0	
1	0	0	0	0	486	552	0	539	0	0	
2	0	0	0	0	553	541	0	527	0	0	
3	0	0	0	0	623	528	0	513	0	0	
4	0	0	0	0	689	515	0	497	0	0	
5	0	0	0	0	742	500	0	480	0	0	
6	0	0	0	0	776	486	0	463	0	0	
7	0	0	0	0	790	474	0	448	0	0	
8	0	0	0	0	780	465	0	436	0	0	
9	0	0	0	0	747	459	0	428	0	0	
10	0	0	0	0	691	455	0	423	0	0	
11	0	0	0	0	618	453	0	421	0	0	
12	0	0	0	0	531	449	0	419	0	0	
13	0	0	0	0	439	444	0	418	0	0	
14	0	0	0	0	351	439	0	417	0	0	
15	0	0	0	0	277	434	0	417	0	0	
0	0	0	0	0	224	430	0	417	0	0	
1	0	0	0	0	200	429	0	419	0	0	
2	0	0	0	0	208	430	0	421	0	0	
3	0	0	0	0	248	433	0	424	0	0	
4	0	0	0	0	319	440	0	429	0	0	
5	0	0	0	0	415	450	0	435	0	0	
6	0	0	0	0	527	461	0	440	0	0	
7	0	0	0	0	643	473	0	446	0	0	
8	0	0	0	0	753	485	0	451	0	0	
9	0	0	0	0	845	495	0	455	0	0	
10	0	0	0	0	911	504	0	457	0	0	
11	0	0	0	0	945	509	0	458	0	0	
12	0	0	0	0	944	512	0	458	0	0	
13	0	0	0	0	906	512	0	457	0	0	
14	0	0	0	0	836	511	0	457	0	0	
15	0	0	0	0	743	511	0	457	0	0	
0	0	0	0	0	634	511	0	459	0	0	
1	0	0	0	0	519	510	0	461	0	0	
2	0	0	0	0	411	511	0	463	0	0	
3	0	0	0	0	319	510	0	465	0	0	
4	0	0	0	0	252	509	0	465	0	0	
5	0	0	0	0	214	505	0	464	0	0	
6	0	0	0	0	209	499	0	460	0	0	
7	0	0	0	0	237	490	0	452	0	0	
8	0	0	0	0	295	478	0	442	0	0	
9	0	0	0	0	376	465	0	429	0	0	
10	0	0	0	0	473	450	0	415	0	0	
11	0	0	0	0	575	435	0	401	0	0	
12	0	0	0	0	672	422	0	388	0	0	
13	0	0	0	0	755	410	0	378	0	0	
14	0	0	0	0	816	402	0	371	0	0	
15	0	0	0	0	851	397	0	368	0	0	
0	0	0	0	0	854	396	0	370	0	0	
1	0	0	0	0	825	399	0	376	0	0	
2	0	0	0	0	767	405	0	386	0	0	
3	0	0	0	0	686	415	0	398	0	0	
4	0	0	0	0	592	430	0	413	0	0	
5	0	0	0	0	495	447	0	431	0	0	
6	0	0	0	0	406	468	0	450	0	0	
7	0	0	0	0	336	492	0	470	0	0	
8	0	0	0	0	293	518	0	490	0	0	
9	0	0	0	0	281	542	0	508	0	0	
10	0	0	0	0	301	563	0	523	0	0	
11	0	0	0	0	349	577	0	531	0	0	
12	0	0	0	0	421	583	0	535	0	0	
13	0	0	0	0	506	580	0	532	0	0	
14	0	0	0	0	598	569	0	523	0	0	
15	0	0	0	0	684	551	0	510	0	0	
0	0	0	0	0	755	527	0	492	0	0	
1	0	0	0	0	804	497	0	470	0	0	
2	0	0	0	0	826	467	0	447	0	0	
3	0	0	0	0	819	439	0	424	0	0	
4	0	0	0	0	783	417	0	404	0	0	
5	0	0	0	0	723	403	0	390	0	0	
6	0	0	0	0	644	397	0	381	0	0	
7	0	0	0	0	553	399	0	379	0	0	
8	0	0	0	0	458	407	0	383	0	0	
9	0	0	0	0	366	419	0	390	0	0	
10	0	0	0	0	284	432	0	400	0	0	
11	0	0	0	0	222	445	0	412	0	0	
12	0	0	0	0	184	458	0	424	0	0	
13	0	0	0	0	175	469	0	435	0	0	
14	0	0	0	0	196	476	0	444	0	0	
15	0	0	0	0	246	480	0	449	0	0	
0	0	0	0	0	321	480	0	452	0	0	
1	0	0	0	0	414	475	0	450	0	0	
2	0	0	0	0	514	464	0	444	0	0	
3	0	0	0	0	612	451	0	436	0	0	
4	0	0	0	0	700	438	0	429	0	0	
5	0	0	0	0	770	427	0	423	0	0	
6	0	0	0	0	816	419	0	419	0	0	
7	0	0	0	0	832	415	0	418	0	0	
8	0	0	0	0	816	415	0	420	0	0	
9	0	0	0	0	769	419	0	427	0	0	
10	0	0	0	0	696	428	0	436	0	0	
11	0	0	0	0	604	439	0	449	0	0	
12	0	0	0	0	503	452	0	463	0	0	
13	0	0	0	0	399	464	0	477	0	0	
14	0	0	0	0	304	472	0	488	0	0	
15	0	0	0	0	226	476	0	496	0	0	
0	0	0	0	0	170	474	0	499	0	0	
1	0	0	0	0	141	468	0	497	0	0	
2	0	0	0	0	143	458	0	490	0	0	
3	0	0	0	0	176	448	0	480	0	0	
4	0	0	0	0	239	440	0	467	0	0	
5	0	0	0	0	327	436	0	454	0	0	
6	0	0	0	0	432	437	0	440	0	0	
7	0	0	0	0	543	441	0	428	0	0	
8	0	0	0	0	649	447	0	417	0	0	
9	0	0	0	0	738	453	0	408	0	0	
10	0	0	0	0	800	459	0	400	0	0	
11	0	0	0	0	831	463	0	396	0	0	
12	0	0	0	0	828	466	0	395	0	0	
13	0	0	0	0	791	469	0	398	0	0	
14	0	0	0	0	723	471	0	404	0	0	
15	0	0	0	0	632	473	0	412	0	0	
0	0	0	0	0	526	475	0	422	0	0	
1	0	0	0	0	415	476	0	433	0	0	
2	0	0	0	0	308	476	0	444	0	0	
3	0	0	0	0	218	475	0	454	0	0	
4	0	0	0	0	150	472	0	462	0	0	
5	0	0	0	0	110	470	0	465	0	0	
6	0	0	0	0	102	464	0	465	0	0	
7	0	0	0	0	126	457	0	461	0	0	
8	0	0	0	0	182	448	0	452	0	0	
9	0	0	0	0	261	438	0	439	0	0	
10	0	0	0	0	358	425	0	423	0	0	
11	0	0	0	0	462	413	0	407	0	0	
12	0	0	0	0	564	402	0	391	0	0	
13	0	0	0	0	655	395	0	379	0	0	
14	0	0	0	0	726	391	0	370	0	0	
15	0	0	0	0	773	395	0	368	0	0	
0	0	0	0	0	794	404	0	373	0	0	
1	0	0	0	0	788	420	0	384	0	0	
2	0	0	0	0	755	441	0	401	0	0	
3	0	0	0	0	697	462	0	420	0	0	
4	0	0	0	0	621	482	0	440	0	0	
5	0	0	0	0	534	498	0	457	0	0	
6	0	0	0	0	444	509	0	472	0	0	
7	0	0	0	0	363	516	0	483	0	0	
8	0	0	0	0	300	519	0	489	0	0	
9	0	0	0	0	261	518	0	492	0	0	
10	0	0	0	0	251	515	0	491	0	0	
11	0	0	0	0	270	508	0	487	0	0	
12	0	0	0	0	318	500	0	480	0	0	
13	0	0	0	0	390	492	0	470	0	0	
14	0	0	0	0	478	483	0	461	0	0	
15	0	0	0	0	573	475	0	453	0	0	
0	0	0	0	0	664	468	0	446	0	0	
1	0	0	0	0	743	462	0	440	0	0	
2	0	0	0	0	799	455	0	434	0	0	
3	0	0	0	0	829	449	0	429	0	0	
4	0	0	0	0	828	444	0	424	0	0	
5	0	0	0	0	796	439	0	420	0	0	
6	0	0	0	0	736	437	0	419	0	0	
7	0	0	0	0	654	438	0	421	0	0	
8	0	0	0	0	558	440	0	425	0	0	
9	0	0	0	0	457	444	0	430	0	0	
10	0	0	0	0	361	449	0	436	0	0	
11	0	0	0	0	283	456	0	444	0	0	
12	0	0	0	0	228	464	0	452	0	0	
13	0	0	0	0	203	472	0	459	0	0	
14	0	0	0	0	211	480	0	464	0	0	
15	0	0	0	0	251	486	0	466	0	0	
0	0	0	0	0	320	491	0	466	0	0	
1	0	0	0	0	413	493	0	462	0	0	
2	0	0	0	0	519	494	0	456	0	0	
3	0	0	0	0	627	492	0	448	0	0	
4	0	0	0	0	728	490	0	438	0	0	
5	0	0	0	0	811	487	0	429	0	0	
6	0	0	0	0	869	484	0	421	0	0	
7	0	0	0	0	899	482	0	414	0	0	
8	0	0	0	0	895	482	0	411	0	0	
9	0	0	0	0	859	483	0	409	0	0	
10	0	0	0	0	792	485	0	409	0	0	
11	0	0	0	0	700	487	0	412	0	0	
12	0	0	0	0	591	489	0	415	0	0	
13	0	0	0	0	475	489	0	419	0	0	
14	0	0	0	0	363	488	0	423	0	0	
15	0	0	0	0	266	485	0	427	0	0	
0	0	0	0	0	193	480	0	429	0	0	
1	0	0	0	0	149	473	0	430	0	0	
2	0	0	0	0	137	462	0	430	0	0	
3	0	0	0	0	158	449	0	427	0	0	
4	0	0	0	0	211	434	0	422	0	0	
5	0	0	0	0	289	417	0	415	0	0	
6	0	0	0	0	384	399	0	406	0	0	
7	0	0	0	0	484	380	0	396	0	0	
8	0	0	0	0	581	361	0	386	0	0	
9	0	0	0	0	662	344	0	376	0	0	
10	0	0	0	0	718	330	0	368	0	0	
11	0	0	0	0	747	319	0	363	0	0	
12	0	0	0	0	745	316	0	364	0	0	
13	0	0	0	0	717	322	0	371	0	0	
14	0	0	0	0	664	336	0	384	0	0	
15	0	0	0	0	593	358	0	401	0	0	
0	0	0	0	0	510	384	0	420	0	0	
1	0	0	0	0	423	413	0	440	0	0	
2	0	0	0	0	342	442	0	458	0	0	
3	0	0	0	0	275	470	0	473	0	0	
4	0	0	0	0	228	494	0	486	0	0	
5	0	0	0	0	207	513	0	492	0	0	
6	0	0	0	0	212	525	0	494	0	0	
7	0	0	0	0	247	531	0	490	0	0	
8	0	0	0	0	306	529	0	482	0	0	
9	0	0	0	0	386	522	0	471	0	0	
10	0	0	0	0	477	510	0	457	0	0	
11	0	0	0	0	570	495	0	442	0	0	
12	0	0	0	0	658	479	0	429	0	0	
13	0	0	0	0	733	465	0	418	0	0	
14	0	0	0	0	789	455	0	413	0	0	
15	0	0	0	0	822	451	0	413	0	0	
0	0	0	0	0	828	453	0	419	0	0	
1	0	0	0	0	808	461	0	431	0	0	
2	0	0	0	0	762	473	0	447	0	0	
3	0	0	0	0	694	487	0	464	0	0	
4	0	0	0	0	609	502	0	482	0	0	
5	0	0	0	0	515	515	0	496	0	0	
6	0	0	0	0	422	524	0	507	0	0	
7	0	0	0	0	337	529	0	513	0	0	
8	0	0	0	0	269	529	0	513	0	0	
9	0	0	0	0	224	526	0	509	0	0	
10	0	0	0	0	207	518	0	501	0	0	
11	0	0	0	0	219	508	0	489	0	0	
12	0	0	0	0	260	495	0	473	0	0	
13	0	0	0	0	325	480	0	457	0	0	
14	0	0	0	0	409	466	0	440	0	0	
15	0	0	0	0	503	452	0	425	0	0	
0	0	0	0	0	597	438	0	412	0	0	
1	0	0	0	0	680	423	0	402	0	0	
2	0	0	0	0	743	406	0	394	0	0	
3	0	0	0	0	779	388	0	388	0	0	
4	0	0	0	0	785	370	0	387	0	0	
5	0	0	0	0	760	354	0	389	0	0	
6	0	0	0	0	707	343	0	395	0	0	
7	0	0	0	0	629	337	0	403	0	0	
8	0	0	0	0	534	338	0	414	0	0	
9	0	0	0	0	431	344	0	423	0	0	
10	0	0	0	0	329	355	0	433	0	0	
11	0	0	0	0	240	370	0	441	0	0	
12	0	0	0	0	171	387	0	447	0	0	
13	0	0	0	0	129	407	0	450	0	0	
14	0	0	0	0	120	426	0	451	0	0	
15	0	0	0	0	146	446	0	450	0	0	
0	0	0	0	0	206	464	0	447	0	0	
1	0	0	0	0	295	479	0	444	0	0	
2	0	0	0	0	404	493	0	438	0	0	
3	0	0	0	0	521	502	0	432	0	0	
4	0	0	0	0	636	507	0	425	0	0	
5	0	0	0	0	734	508	0	418	0	0	
6	0	0	0	0	809	506	0	412	0	0	
7	0	0	0	0	854	502	0	408	0	0	
8	0	0	0	0	864	497	0	408	0	0	
9	0	0	0	0	840	493	0	409	0	0	
10	0	0	0	0	783	488	0	413	0	0	
11	0	0	0	0	697	484	0	419	0	0	
12	0	0	0	0	592	479	0	425	0	0	
13	0	0	0	0	477	475	0	433	0	0	
14	0	0	0	0	364	471	0	440	0	0	
15	0	0	0	0	265	468	0	447	0	0	
0	0	0	0	0	190	467	0	454	0	0	
1	0	0	0	0	142	466	0	458	0	0	
2	0	0	0	0	127	464	0	460	0	0	
3	0	0	0	0	146	461	0	461	0	0	
4	0	0	0	0	198	457	0	458	0	0	
5	0	0	0	0	275	452	0	453	0	0	
6	0	0	0	0	371	446	0	446	0	0	
7	0	0	0	0	475	438	0	436	0	0	
8	0	0	0	0	575	428	0	426	0	0	
9	0	0	0	0	662	419	0	415	0	0	
10	0	0	0	0	726	410	0	406	0	0	
11	0	0	0	0	760	401	0	397	0	0	
12	0	0	0	0	761	393	0	389	0	0	
13	0	0	0	0	727	386	0	382	0	0	
14	0	0	0	0	661	379	0	376	0	0	
15	0	0	0	0	571	375	0	373	0	0	
0	0	0	0	0	468	374	0	375	0	0	
1	0	0	0	0	361	376	0	378	0	0	
2	0	0	0	0	263	381	0	386	0	0	
3	0	0	0	0	184	390	0	397	0	0	
4	0	0	0	0	131	401	0	411	0	0	
5	0	0	0	0	112	416	0	426	0	0	
6	0	0	0	0	131	432	0	441	0	0	
7	0	0	0	0	186	450	0	455	0	0	
8	0	0	0	0	275	467	0	468	0	0	
9	0	0	0	0	388	482	0	478	0	0	
10	0	0	0	0	514	493	0	483	0	0	
11	0	0	0	0	639	498	0	485	0	0	
12	0	0	0	0	750	496	0	483	0	0	
13	0	0	0	0	836	489	0	478	0	0	
14	0	0	0	0	888	477	0	470	0	0	
15	0	0	0	0	900	460	0	460	0	0	
0	0	0	0	0	873	442	0	451	0	0	
1	0	0	0	0	808	426	0	443	0	0	
2	0	0	0	0	713	413	0	438	0	0	
3	0	0	0	0	598	406	0	435	0	0	
4	0	0	0	0	473	403	0	436	0	0	
5	0	0	0	0	351	406	0	439	0	0	
6	0	0	0	0	242	413	0	443	0	0	
7	0	0	0	0	157	423	0	448	0	0	
8	0	0	0	0	104	436	0	453	0	0	
9	0	0	0	0	89	450	0	458	0	0	
10	0	0	0	0	113	464	0	462	0	0	
11	0	0	0	0	177	478	0	464	0	0	
12	0	0	0	0	275	491	0	467	0	0	
13	0	0	0	0	399	502	0	466	0	0	
14	0	0	0	0	538	510	0	465	0	0	
15	0	0	0	0	679	516	0	463	0	0	
0	0	0	0	0	808	520	0	460	0	0	
1	0	0	0	0	915	522	0	457	0	0	
2	0	0	0	0	990	521	0	453	0	0	
3	0	0	0	0	1021	516	0	448	0	0	
4	0	0	0	0	1016	507	0	443	0	0	
5	0	0	0	0	965	495	0	437	0	0	
6	0	0	0	0	875	481	0	431	0	0	
7	0	0	0	0	753	466	0	426	0	0	
8	0	0	0	0	609	450	0	421	0	0	
9	0	0	0	0	459	435	0	418	0	0	
10	0	0	0	0	312	424	0	416	0	0	
11	0	0	0	0	189	416	0	417	0	0	
12	0	0	0	0	97	412	0	419	0	0	
13	0	0	0	0	45	413	0	422	0	0	
14	0	0	0	0	38	418	0	427	0	0	
15	0	0	0	0	76	427	0	431	0	0	
0	0	0	0	0	158	438	0	436	0	0	
1	0	0	0	0	273	449	0	439	0	0	
2	0	0	0	0	412	459	0	441	0	0	
3	0	0	0	0	560	466	0	441	0	0	
4	0	0	0	0	703	471	0	439	0	0	
5	0	0	0	0	828	474	0	437	0	0	
6	0	0	0	0	923	474	0	434	0	0	
7	0	0	0	0	983	473	0	432	0	0	
8	0	0	0	0	1001	470	0	429	0	0	
9	0	0	0	0	973	463	0	426	0	0	
10	0	0	0	0	902	454	0	423	0	0	
11	0	0	0	0	792	442	0	419	0	0	
12	0	0	0	0	654	429	0	415	0	0	
13	0	0	0	0	500	416	0	412	0	0	
14	0	0	0	0	345	403	0	408	0	0	
15	0	0	0	0	207	395	0	406	0	0	
0	0	0	0	0	96	390	0	404	0	0	
1	0	0	0	0	24	390	0	404	0	0	
2	0	0	0	0	0	393	0	405	0	0	
3	0	0	0	0	18	400	0	406	0	0	
4	0	0	0	0	84	411	0	408	0	0	
5	0	0	0	0	191	422	0	410	0	0	
6	0	0	0	0	327	434	0	413	0	0	
7	0	0	0	0	480	446	0	415	0	0	
8	0	0	0	0	634	455	0	417	0	0	
9	0	0	0	0	771	459	0	416	0	0	
10	0	0	0	0	880	460	0	415	0	0	
11	0	0	0	0	951	455	0	412	0	0	
12	0	0	0	0	978	446	0	407	0	0	
13	0	0	0	0	960	434	0	400	0	0	
14	0	0	0	0	896	419	0	393	0	0	
15	0	0	0	0	792	402	0	386	0	0	
0	0	0	0	0	658	385	0	381	0	0	
1	0	0	0	0	508	370	0	375	0	0	
2	0	0	0	0	354	356	0	372	0	0	
3	0	0	0	0	213	345	0	370	0	0	
4	0	0	0	0	96	337	0	369	0	0	
5	0	0	0	0	14	333	0	369	0	0	
6	0	0	0	0	0	332	0	372	0	0	
7	0	0	0	0	0	335	0	377	0	0	
8	0	0	0	0	48	342	0	384	0	0	
9	0	0	0	0	141	351	0	394	0	0	
10	0	0	0	0	267	362	0	404	0	0	
11	0	0	0	0	414	375	0	416	0	0	
12	0	0	0	0	567	389	0	427	0	0	
13	0	0	0	0	712	404	0	438	0	0	
14	0	0	0	0	834	421	0	446	0	0	
15	0	0	0	0	922	439	0	454	0	0	
0	0	0	0	0	971	457	0	459	0	0	
1	0	0	0	0	976	476	0	463	0	0	
2	0	0	0	0	937	491	0	465	0	0	
3	0	0	0	0	856	504	0	465	0	0	
4	0	0	0	0	741	511	0	463	0	0	
5	0	0	0	0	604	514	0	460	0	0	
6	0	0	0	0	457	512	0	456	0	0	
7	0	0	0	0	316	505	0	452	0	0	
8	0	0	0	0	195	495	0	446	0	0	
9	0	0	0	0	101	481	0	440	0	0	
10	0	0	0	0	45	464	0	433	0	0	
11	0	0	0	0	28	445	0	426	0	0	
12	0	0	0	0	53	427	0	419	0	0	
13	0	0	0	0	117	409	0	413	0	0	
14	0	0	0	0	212	395	0	408	0	0	
15	0	0	0	0	328	384	0	404	0	0	
0	0	0	0	0	455	379	0	404	0	0	
1	0	0	0	0	580	380	0	407	0	0	
2	0	0	0	0	690	386	0	413	0	0	
3	0	0	0	0	775	399	0	422	0	0	
4	0	0	0	0	829	415	0	434	0	0	
5	0	0	0	0	849	434	0	448	0	0	
6	0	0	0	0	834	455	0	462	0	0	
7	0	0	0	0	788	476	0	476	0	0	
8	0	0	0	0	717	497	0	488	0	0	
9	0	0	0	0	631	516	0	499	0	0	
10	0	0	0	0	537	532	0	507	0	0	
11	0	0	0	0	447	544	0	512	0	0	
12	0	0	0	0	369	551	0	512	0	0	
13	0	0	0	0	313	553	0	508	0	0	
14	0	0	0	0	282	548	0	500	0	0	
15	0	0	0	0	280	540	0	488	0	0	
0	0	0	0	0	306	526	0	474	0	0	
1	0	0	0	0	359	508	0	458	0	0	
2	0	0	0	0	432	490	0	443	0	0	
3	0	0	0	0	517	472	0	430	0	0	
4	0	0	0	0	605	457	0	419	0	0	
5	0	0	0	0	687	445	0	412	0	0	
6	0	0	0	0	752	436	0	408	0	0	
7	0	0	0	0	795	430	0	408	0	0	
8	0	0	0	0	808	426	0	408	0	0	
9	0	0	0	0	788	423	0	411	0	0	
10	0	0	0	0	736	421	0	415	0	0	
11	0	0	0	0	656	419	0	419	0	0	
12	0	0	0	0	555	419	0	423	0	0	
13	0	0	0	0	445	419	0	429	0	0	
14	0	0	0	0	336	421	0	435	0	0	
15	0	0	0	0	241	425	0	441	0	0	
0	0	0	0	0	171	431	0	448	0	0	
1	0	0	0	0	131	439	0	453	0	0	
2	0	0	0	0	128	448	0	458	0	0	
3	0	0	0	0	163	457	0	460	0	0	
4	0	0	0	0	232	465	0	460	0	0	
5	0	0	0	0	331	471	0	457	0	0	
6	0	0	0	0	449	475	0	451	0	0	
7	0	0	0	0	575	477	0	444	0	0	
8	0	0	0	0	699	479	0	437	0	0	
9	0	0	0	0	811	484	0	433	0	0	
10	0	0	0	0	900	490	0	432	0	0	
11	0	0	0	0	962	499	0	433	0	0	
12	0	0	0	0	988	507	0	438	0	0	
13	0	0	0	0	976	514	0	444	0	0	
14	0	0	0	0	923	517	0	449	0	0	
15	0	0	0	0	832	514	0	453	0	0	
0	0	0	0	0	710	505	0	455	0	0	
1	0	0	0	0	567	489	0	452	0	0	
2	0	0	0	0	415	469	0	447	0	0	
3	0	0	0	0	270	446	0	439	0	0	
4	0	0	0	0	144	421	0	428	0	0	
5	0	0	0	0	49	397	0	415	0	0	
6	0	0	0	0	0	374	0	401	0	0	
7	0	0	0	0	0	352	0	387	0	0	
8	0	0	0	0	17	335	0	372	0	0	
9	0	0	0	0	80	321	0	358	0	0	
10	0	0	0	0	176	312	0	345	0	0	
11	0	0	0	0	295	308	0	336	0	0	
12	0	0	0	0	425	311	0	331	0	0	
13	0	0	0	0	553	321	0	329	0	0	
14	0	0	0	0	668	335	0	332	0	0	
15	0	0	0	0	754	354	0	338	0	0	
0	0	0	0	0	807	375	0	346	0	0	
1	0	0	0	0	821	396	0	356	0	0	
2	0	0	0	0	796	415	0	367	0	0	
3	0	0	0	0	733	431	0	376	0	0	
4	0	0	0	0	639	440	0	383	0	0	
5	0	0	0	0	524	444	0	386	0	0	
6	0	0	0	0	399	440	0	386	0	0	
7	0	0	0	0	278	430	0	381	0	0	
8	0	0	0	0	172	415	0	374	0	0	
9	0	0	0	0	91	398	0	364	0	0	
10	0	0	0	0	44	377	0	352	0	0	
11	0	0	0	0	33	358	0	339	0	0	
12	0	0	0	0	61	337	0	326	0	0	
13	0	0	0	0	124	319	0	311	0	0	
14	0	0	0	0	217	303	0	297	0	0	
15	0	0	0	0	329	290	0	286	0	0	
0	0	0	0	0	451	283	0	276	0	0	
1	0	0	0	0	569	280	0	269	0	0	
2	0	0	0	0	671	282	0	263	0	0	
3	0	0	0	0	745	287	0	261	0	0	
4	0	0	0	0	788	296	0	261	0	0	
5	0	0	0	0	795	307	0	262	0	0	
6	0	0	0	0	765	318	0	265	0	0	
7	0	0	0	0	700	329	0	269	0	0	
8	0	0	0	0	608	338	0	272	0	0	
9	0	0	0	0	498	344	0	276	0	0	
10	0	0	0	0	380	347	0	279	0	0	
11	0	0	0	0	267	346	0	281	0	0	
12	0	0	0	0	168	342	0	282	0	0	
13	0	0	0	0	93	334	0	280	0	0	
14	0	0	0	0	48	324	0	279	0	0	
15	0	0	0	0	39	312	0	275	0	0	
0	0	0	0	0	67	297	0	272	0	0	
1	0	0	0	0	129	284	0	268	0	0	
2	0	0	0	0	221	269	0	264	0	0	
3	0	0	0	0	331	255	0	261	0	0	
4	0	0	0	0	449	243	0	258	0	0	
5	0	0	0	0	561	233	0	255	0	0	
6	0	0	0	0	655	227	0	253	0	0	
7	0	0	0	0	721	228	0	251	0	0	
8	0	0	0	0	756	235	0	249	0	0	
9	0	0	0	0	753	247	0	248	0	0	
10	0	0	0	0	713	263	0	247	0	0	
11	0	0	0	0	639	279	0	244	0	0	
12	0	0	0	0	534	293	0	241	0	0	
13	0	0	0	0	410	303	0	236	0	0	
14	0	0	0	0	276	308	0	229	0	0	
15	0	0	0	0	145	307	0	222	0	0	
0	0	0	0	0	28	302	0	214	0	0	
1	0	0	0	0	0	293	0	207	0	0	
2	0	0	0	0	0	284	0	201	0	0	
3	0	0	0	0	0	275	0	198	0	0	
4	0	0	0	0	0	266	0	197	0	0	
5	0	0	0	0	27	260	0	198	0	0	
6	0	0	0	0	96	255	0	200	0	0	
7	0	0	0	0	190	253	0	204	0	0	
8	0	0	0	0	299	254	0	209	0	0	
9	0	0	0	0	413	258	0	216	0	0	
10	0	0	0	0	519	266	0	226	0	0	
11	0	0	0	0	610	278	0	238	0	0	
12	0	0	0	0	676	294	0	253	0	0	
13	0	0	0	0	712	314	0	271	0	0	
14	0	0	0	0	717	336	0	291	0	0	
15	0	0	0	0	691	359	0	309	0	0	
0	0	0	0	0	639	381	0	326	0	0	
1	0	0	0	0	564	399	0	340	0	0	
2	0	0	0	0	477	411	0	350	0	0	
3	0	0	0	0	388	418	0	355	0	0	
4	0	0	0	0	305	418	0	354	0	0	
5	0	0	0	0	239	412	0	348	0	0	
6	0	0	0	0	195	401	0	338	0	0	
7	0	0	0	0	176	386	0	325	0	0	
8	0	0	0	0	186	368	0	311	0	0	
9	0	0	0	0	223	350	0	297	0	0	
10	0	0	0	0	284	333	0	285	0	0	
11	0	0	0	0	362	320	0	276	0	0	
12	0	0	0	0	450	312	0	272	0	0	
13	0	0	0	0	539	311	0	273	0	0	
14	0	0	0	0	620	316	0	279	0	0	
15	0	0	0	0	686	328	0	291	0	0	
0	0	0	0	0	730	347	0	308	0	0	
1	0	0	0	0	751	370	0	329	0	0	
2	0	0	0	0	745	398	0	352	0	0	
3	0	0	0	0	714	425	0	376	0	0	
4	0	0	0	0	660	451	0	399	0	0	
5	0	0	0	0	591	473	0	420	0	0	
6	0	0	0	0	513	491	0	436	0	0	
7	0	0	0	0	435	502	0	448	0	0	
8	0	0	0	0	365	507	0	454	0	0	
9	0	0	0	0	311	505	0	453	0	0	
10	0	0	0	0	278	498	0	446	0	0	
11	0	0	0	0	269	486	0	435	0	0	
12	0	0	0	0	286	470	0	419	0	0	
13	0	0	0	0	327	451	0	402	0	0	
14	0	0	0	0	385	432	0	385	0	0	
15	0	0	0	0	455	414	0	369	0	0	
0	0	0	0	0	528	398	0	356	0	0	
1	0	0	0	0	596	385	0	348	0	0	
2	0	0	0	0	649	376	0	343	0	0	
3	0	0	0	0	685	373	0	345	0	0	
4	0	0	0	0	698	376	0	352	0	0	
5	0	0	0	0	687	384	0	364	0	0	
6	0	0	0	0	652	397	0	379	0	0	
7	0	0	0	0	598	413	0	397	0	0	
8	0	0	0	0	527	430	0	415	0	0	
9	0	0	0	0	451	447	0	433	0	0	
10	0	0	0	0	374	462	0	449	0	0	
11	0	0	0	0	307	474	0	460	0	0	
12	0	0	0	0	255	481	0	468	0	0	
13	0	0	0	0	224	482	0	470	0	0	
14	0	0	0	0	218	478	0	467	0	0	
15	0	0	0	0	238	470	0	462	0	0	
0	0	0	0	0	284	460	0	455	0	0	
1	0	0	0	0	354	449	0	449	0	0	
2	0	0	0	0	442	440	0	443	0	0	
3	0	0	0	0	541	435	0	441	0	0	
4	0	0	0	0	642	435	0	441	0	0	
5	0	0	0	0	735	440	0	445	0	0	
6	0	0	0	0	812	449	0	451	0	0	
7	0	0	0	0	865	462	0	460	0	0	
8	0	0	0	0	893	478	0	471	0	0	
9	0	0	0	0	890	496	0	484	0	0	
10	0	0	0	0	858	514	0	497	0	0	
11	0	0	0	0	798	530	0	510	0	0	
12	0	0	0	0	719	545	0	522	0	0	
13	0	0	0	0	627	559	0	532	0	0	
14	0	0	0	0	535	568	0	540	0	0	
15	0	0	0	0	449	574	0	545	0	0	
0	0	0	0	0	380	576	0	547	0	0	
1	0	0	0	0	332	572	0	546	0	0	
2	0	0	0	0	310	561	0	540	0	0	
3	0	0	0	0	315	546	0	530	0	0	
4	0	0	0	0	346	527	0	519	0	0	
5	0	0	0	0	401	505	0	505	0	0	
6	0	0	0	0	472	484	0	492	0	0	
7	0	0	0	0	553	463	0	481	0	0	
8	0	0	0	0	634	447	0	472	0	0	
9	0	0	0	0	709	435	0	467	0	0	
10	0	0	0	0	773	431	0	467	0	0	
11	0	0	0	0	820	436	0	472	0	0	
12	0	0	0	0	847	447	0	481	0	0	
13	0	0	0	0	850	464	0	495	0	0	
14	0	0	0	0	830	486	0	510	0	0	
15	0	0	0	0	787	510	0	525	0	0	
0	0	0	0	0	728	533	0	539	0	0	
1	0	0	0	0	656	552	0	550	0	0	
2	0	0	0	0	578	565	0	556	0	0	
3	0	0	0	0	500	569	0	556	0	0	
4	0	0	0	0	431	565	0	550	0	0	
5	0	0	0	0	377	554	0	538	0	0	
6	0	0	0	0	345	537	0	524	0	0	
7	0	0	0	0	340	519	0	508	0	0	
8	0	0	0	0	363	503	0	492	0	0	
9	0	0	0	0	411	488	0	478	0	0	
10	0	0	0	0	479	478	0	466	0	0	
11	0	0	0	0	560	472	0	457	0	0	
12	0	0	0	0	642	470	0	452	0	0	
13	0	0	0	0	718	472	0	449	0	0	
14	0	0	0	0	778	476	0	450	0	0	
15	0	0	0	0	819	483	0	454	0	0	
0	0	0	0	0	835	492	0	460	0	0	
1	0	0	0	0	826	503	0	470	0	0	
2	0	0	0	0	792	513	0	481	0	0	
3	0	0	0	0	735	522	0	492	0	0	
4	0	0	0	0	659	527	0	504	0	0	
5	0	0	0	0	573	528	0	513	0	0	
6	0	0	0	0	480	523	0	520	0	0	
7	0	0	0	0	391	513	0	522	0	0	
8	0	0	0	0	313	497	0	520	0	0	
9	0	0	0	0	254	477	0	514	0	0	
10	0	0	0	0	218	454	0	504	0	0	
11	0	0	0	0	208	427	0	491	0	0	
12	0	0	0	0	227	400	0	477	0	0	
13	0	0	0	0	275	376	0	465	0	0	
14	0	0	0	0	348	355	0	455	0	0	
15	0	0	0	0	440	340	0	449	0	0	
0	0	0	0	0	541	333	0	448	0	0	
1	0	0	0	0	643	336	0	453	0	0	
2	0	0	0	0	737	351	0	463	0	0	
3	0	0	0	0	815	377	0	476	0	0	
4	0	0	0	0	870	412	0	493	0	0	
5	0	0	0	0	898	454	0	511	0	0	
6	0	0	0	0	898	501	0	530	0	0	
7	0	0	0	0	870	548	0	547	0	0	
8	0	0	0	0	816	591	0	560	0	0	
9	0	0	0	0	742	625	0	569	0	0	
10	0	0	0	0	656	651	0	573	0	0	
11	0	0	0	0	569	666	0	572	0	0	
12	0	0	0	0	487	670	0	565	0	0	
13	0	0	0	0	422	664	0	553	0	0	
14	0	0	0	0	378	647	0	539	0	0	
15	0	0	0	0	359	624	0	520	0	0	
0	0	0	0	0	368	594	0	502	0	0	
1	0	0	0	0	400	561	0	482	0	0	
2	0	0	0	0	452	528	0	463	0	0	
3	0	0	0	0	517	496	0	446	0	0	
4	0	0	0	0	585	467	0	432	0	0	
5	0	0	0	0	649	442	0	422	0	0	
6	0	0	0	0	699	422	0	415	0	0	
7	0	0	0	0	730	407	0	412	0	0	
8	0	0	0	0	739	397	0	413	0	0	
9	0	0	0	0	724	395	0	419	0	0	
10	0	0	0	0	686	397	0	428	0	0	
11	0	0	0	0	629	404	0	439	0	0	
12	0	0	0	0	557	414	0	451	0	0	
13	0	0	0	0	477	424	0	463	0	0	
14	0	0	0	0	396	434	0	473	0	0	
15	0	0	0	0	323	443	0	482	0	0	
0	0	0	0	0	265	449	0	488	0	0	
1	0	0	0	0	227	453	0	492	0	0	
2	0	0	0	0	216	454	0	493	0	0	
3	0	0	0	0	231	453	0	492	0	0	
4	0	0	0	0	276	451	0	489	0	0	
5	0	0	0	0	345	448	0	484	0	0	
6	0	0	0	0	433	447	0	478	0	0	
7	0	0	0	0	531	446	0	472	0	0	
8	0	0	0	0	630	447	0	467	0	0	
9	0	0	0	0	721	450	0	463	0	0	
10	0	0	0	0	796	457	0	463	0	0	
11	0	0	0	0	848	466	0	464	0	0	
12	0	0	0	0	873	477	0	468	0	0	
13	0	0	0	0	868	488	0	474	0	0	
14	0	0	0	0	832	500	0	481	0	0	
15	0	0	0	0	768	510	0	489	0	0	
0	0	0	0	0	683	518	0	496	0	0	
1	0	0	0	0	583	524	0	503	0	0	
2	0	0	0	0	481	526	0	508	0	0	
3	0	0	0	0	385	526	0	510	0	0	
4	0	0	0	0	305	522	0	510	0	0	
5	0	0	0	0	251	515	0	508	0	0	
6	0	0	0	0	226	505	0	502	0	0	
7	0	0	0	0	233	492	0	494	0	0	
8	0	0	0	0	271	477	0	482	0	0	
9	0	0	0	0	336	459	0	467	0	0	
10	0	0	0	0	419	439	0	450	0	0	
11	0	0	0	0	512	416	0	431	0	0	
12	0	0	0	0	603	394	0	412	0	0	
13	0	0	0	0	684	376	0	397	0	0	
14	0	0	0	0	749	362	0	386	0	0	
15	0	0	0	0	792	355	0	380	0	0	
0	0	0	0	0	809	354	0	380	0	0	
1	0	0	0	0	799	363	0	387	0	0	
2	0	0	0	0	764	379	0	401	0	0	
3	0	0	0	0	707	402	0	419	0	0	
4	0	0	0	0	632	428	0	440	0	0	
5	0	0	0	0	548	455	0	461	0	0	
6	0	0	0	0	462	481	0	481	0	0	
7	0	0	0	0	382	503	0	497	0	0	
8	0	0	0	0	318	519	0	510	0	0	
9	0	0	0	0	275	528	0	518	0	0	
10	0	0	0	0	258	530	0	519	0	0	
11	0	0	0	0	267	525	0	515	0	0	
12	0	0	0	0	303	513	0	506	0	0	
13	0	0	0	0	360	496	0	491	0	0	
14	0	0	0	0	434	474	0	473	0	0	
15	0	0	0	0	514	450	0	453	0	0	
0	0	0	0	0	594	427	0	433	0	0	
1	0	0	0	0	666	408	0	416	0	0	
2	0	0	0	0	724	396	0	404	0	0	
3	0	0	0	0	766	391	0	400	0	0	
4	0	0	0	0	787	397	0	403	0	0	
5	0	0	0	0	786	411	0	413	0	0	
6	0	0	0	0	764	432	0	429	0	0	
7	0	0	0	0	722	456	0	448	0	0	
8	0	0	0	0	664	482	0	468	0	0	
9	0	0	0	0	595	505	0	487	0	0	
10	0	0	0	0	523	524	0	503	0	0	
11	0	0	0	0	451	536	0	515	0	0	
12	0	0	0	0	390	540	0	521	0	0	
13	0	0	0	0	343	539	0	521	0	0	
14	0	0	0	0	318	531	0	518	0	0	
15	0	0	0	0	316	519	0	510	0	0	
0	0	0	0	0	341	505	0	500	0	0	
1	0	0	0	0	389	491	0	488	0	0	
2	0	0	0	0	455	477	0	476	0	0	
3	0	0	0	0	534	464	0	465	0	0	
4	0	0	0	0	613	453	0	453	0	0	
5	0	0	0	0	685	443	0	443	0	0	
6	0	0	0	0	740	433	0	432	0	0	
7	0	0	0	0	772	423	0	423	0	0	
8	0	0	0	0	778	414	0	415	0	0	
9	0	0	0	0	754	406	0	408	0	0	
10	0	0	0	0	704	401	0	404	0	0	
11	0	0	0	0	633	401	0	403	0	0	
12	0	0	0	0	549	403	0	406	0	0	
13	0	0	0	0	462	411	0	411	0	0	
14	0	0	0	0	379	422	0	420	0	0	
15	0	0	0	0	311	435	0	429	0	0	
0	0	0	0	0	265	449	0	440	0	0	
1	0	0	0	0	245	462	0	449	0	0	
2	0	0	0	0	253	472	0	457	0	0	
3	0	0	0	0	289	480	0	463	0	0	
4	0	0	0	0	352	485	0	467	0	0	
5	0	0	0	0	436	487	0	469	0	0	
6	0	0	0	0	531	486	0	469	0	0	
7	0	0	0	0	627	480	0	467	0	0	
8	0	0	0	0	715	472	0	462	0	0	
9	0	0	0	0	788	463	0	457	0	0	
10	0	0	0	0	841	455	0	454	0	0	
11	0	0	0	0	868	447	0	453	0	0	
12	0	0	0	0	867	440	0	454	0	0	
13	0	0	0	0	837	434	0	458	0	0	
14	0	0	0	0	779	428	0	463	0	0	
15	0	0	0	0	697	421	0	470	0	0	
0	0	0	0	0	599	414	0	476	0	0	
1	0	0	0	0	493	408	0	483	0	0	
2	0	0	0	0	388	406	0	487	0	0	
3	0	0	0	0	296	406	0	489	0	0	
4	0	0	0	0	225	410	0	489	0	0	
5	0	0	0	0	180	417	0	486	0	0	
6	0	0	0	0	164	425	0	479	0	0	
7	0	0	0	0	179	433	0	470	0	0	
8	0	0	0	0	224	440	0	459	0	0	
9	0	0	0	0	293	446	0	447	0	0	
10	0	0	0	0	380	448	0	435	0	0	
11	0	0	0	0	476	449	0	423	0	0	
12	0	0	0	0	572	448	0	412	0	0	
13	0	0	0	0	656	444	0	404	0	0	
14	0	0	0	0	722	440	0	396	0	0	
15	0	0	0	0	763	434	0	391	0	0	
0	0	0	0	0	775	429	0	390	0	0	
1	0	0	0	0	756	424	0	391	0	0	
2	0	0	0	0	710	422	0	395	0	0	
3	0	0	0	0	639	422	0	400	0	0	
4	0	0	0	0	553	424	0	409	0	0	
5	0	0	0	0	460	429	0	420	0	0	
6	0	0	0	0	368	435	0	431	0	0	
7	0	0	0	0	289	444	0	442	0	0	
8	0	0	0	0	230	451	0	451	0	0	
9	0	0	0	0	196	458	0	457	0	0	
10	0	0	0	0	192	464	0	461	0	0	
11	0	0	0	0	219	468	0	462	0	0	
12	0	0	0	0	276	470	0	460	0	0	
13	0	0	0	0	358	471	0	455	0	0	
14	0	0	0	0	458	472	0	449	0	0	
15	0	0	0	0	567	473	0	444	0	0	
0	0	0	0	0	674	474	0	440	0	0	
1	0	0	0	0	768	477	0	437	0	0	
2	0	0	0	0	841	479	0	435	0	0	
3	0	0	0	0	885	480	0	435	0	0	
4	0	0	0	0	896	480	0	437	0	0	
5	0	0	0	0	869	478	0	438	0	0	
6	0	0	0	0	806	473	0	439	0	0	
7	0	0	0	0	711	464	0	439	0	0	
8	0	0	0	0	591	451	0	436	0	0	
9	0	0	0	0	457	434	0	431	0	0	
10	0	0	0	0	319	414	0	422	0	0	
11	0	0	0	0	192	392	0	411	0	0	
12	0	0	0	0	87	371	0	399	0	0	
13	0	0	0	0	15	354	0	389	0	0	
14	0	0	0	0	0	343	0	381	0	0	
15	0	0	0	0	6	340	0	376	0	0	
0	0	0	0	0	61	344	0	375	0	0	
1	0	0	0	0	156	354	0	376	0	0	
2	0	0	0	0	281	369	0	379	0	0	
3	0	0	0	0	426	389	0	384	0	0	
4	0	0	0	0	577	412	0	392	0	0	
5	0	0	0	0	719	435	0	402	0	0	
6	0	0	0	0	839	457	0	412	0	0	
7	0	0	0	0	925	476	0	422	0	0	
8	0	0	0	0	971	489	0	431	0	0	
9	0	0	0	0	972	496	0	437	0	0	
10	0	0	0	0	928	496	0	440	0	0	
11	0	0	0	0	841	489	0	441	0	0	
12	0	0	0	0	719	478	0	439	0	0	
13	0	0	0	0	576	463	0	435	0	0	
14	0	0	0	0	425	446	0	430	0	0	
15	0	0	0	0	280	429	0	424	0	0	
0	0	0	0	0	156	413	0	417	0	0	
1	0	0	0	0	63	398	0	410	0	0	
2	0	0	0	0	10	385	0	402	0	0	
3	0	0	0	0	0	375	0	392	0	0	
4	0	0	0	0	31	368	0	384	0	0	
5	0	0	0	0	104	365	0	375	0	0	
6	0	0	0	0	209	364	0	367	0	0	
7	0	0	0	0	336	366	0	360	0	0	
8	0	0	0	0	472	370	0	354	0	0	
9	0	0	0	0	603	376	0	350	0	0	
10	0	0	0	0	714	382	0	348	0	0	
11	0	0	0	0	795	389	0	349	0	0	
12	0	0	0	0	840	396	0	352	0	0	
13	0	0	0	0	847	404	0	359	0	0	
14	0	0	0	0	816	414	0	370	0	0	
15	0	0	0	0	751	425	0	383	0	0	
0	0	0	0	0	659	436	0	399	0	0	
1	0	0	0	0	554	449	0	418	0	0	
2	0	0	0	0	445	463	0	438	0	0	
3	0	0	0	0	346	477	0	459	0	0	
4	0	0	0	0	267	490	0	476	0	0	
5	0	0	0	0	216	502	0	492	0	0	
6	0	0	0	0	198	512	0	504	0	0	
7	0	0	0	0	214	519	0	510	0	0	
8	0	0	0	0	264	523	0	511	0	0	
9	0	0	0	0	342	522	0	507	0	0	
10	0	0	0	0	440	517	0	497	0	0	
11	0	0	0	0	545	508	0	485	0	0	
12	0	0	0	0	649	498	0	469	0	0	
13	0	0	0	0	739	486	0	452	0	0	
14	0	0	0	0	807	473	0	435	0	0	
15	0	0	0	0	848	461	0	421	0	0	
0	0	0	0	0	859	451	0	410	0	0	
1	0	0	0	0	839	444	0	403	0	0	
2	0	0	0	0	789	442	0	402	0	0	
3	0	0	0	0	716	443	0	404	0	0	
4	0	0	0	0	624	446	0	411	0	0	
5	0	0	0	0	523	450	0	419	0	0	
6	0	0	0	0	422	455	0	427	0	0	
7	0	0	0	0	329	459	0	436	0	0	
8	0	0	0	0	256	462	0	442	0	0	
9	0	0	0	0	206	463	0	446	0	0	
10	0	0	0	0	185	460	0	447	0	0	
11	0	0	0	0	195	456	0	444	0	0	
12	0	0	0	0	236	452	0	440	0	0	
13	0	0	0	0	304	448	0	434	0	0	
14	0	0	0	0	394	444	0	427	0	0	
15	0	0	0	0	496	442	0	420	0	0	
0	0	0	0	0	600	444	0	414	0	0	
1	0	0	0	0	697	448	0	410	0	0	
2	0	0	0	0	779	455	0	409	0	0	
3	0	0	0	0	837	464	0	410	0	0	
4	0	0	0	0	868	473	0	413	0	0	
5	0	0	0	0	868	482	0	419	0	0	
6	0	0	0	0	839	489	0	427	0	0	
7	0	0	0	0	782	494	0	435	0	0	
8	0	0	0	0	704	495	0	444	0	0	
9	0	0	0	0	611	492	0	452	0	0	
10	0	0	0	0	513	486	0	459	0	0	
11	0	0	0	0	419	474	0	464	0	0	
12	0	0	0	0	337	459	0	467	0	0	
13	0	0	0	0	278	440	0	469	0	0	
14	0	0	0	0	244	419	0	467	0	0	
15	0	0	0	0	239	398	0	462	0	0	
0	0	0	0	0	263	377	0	455	0	0	
1	0	0	0	0	312	361	0	445	0	0	
2	0	0	0	0	382	351	0	433	0	0	
3	0	0	0	0	465	348	0	420	0	0	
4	0	0	0	0	554	355	0	409	0	0	
5	0	0	0	0	639	371	0	401	0	0	
6	0	0	0	0	711	394	0	396	0	0	
7	0	0	0	0	764	423	0	396	0	0	
8	0	0	0	0	793	454	0	401	0	0	
9	0	0	0	0	794	487	0	409	0	0	
10	0	0	0	0	767	517	0	422	0	0	
11	0	0	0	0	713	542	0	435	0	0	
12	0	0	0	0	638	561	0	448	0	0	
13	0	0	0	0	546	569	0	459	0	0	
14	0	0	0	0	447	568	0	466	0	0	
15	0	0	0	0	350	559	0	470	0	0	
0	0	0	0	0	265	541	0	469	0	0	
1	0	0	0	0	200	519	0	465	0	0	
2	0	0	0	0	163	494	0	457	0	0	
3	0	0	0	0	158	471	0	449	0	0	
4	0	0	0	0	190	452	0	442	0	0	
5	0	0	0	0	255	440	0	436	0	0	
6	0	0	0	0	351	436	0	433	0	0	
7	0	0	0	0	468	440	0	435	0	0	
8	0	0	0	0	595	453	0	439	0	0	
9	0	0	0	0	719	471	0	447	0	0	
10	0	0	0	0	828	492	0	458	0	0	
11	0	0	0	0	914	515	0	471	0	0	
12	0	0	0	0	969	537	0	482	0	0	
13	0	0	0	0	987	554	0	492	0	0	
14	0	0	0	0	967	567	0	499	0	0	
15	0	0	0	0	910	573	0	502	0	0	
0	0	0	0	0	819	571	0	501	0	0	
1	0	0	0	0	704	561	0	494	0	0	
2	0	0	0	0	572	541	0	483	0	0	
3	0	0	0	0	436	515	0	467	0	0	
4	0	0	0	0	308	484	0	450	0	0	
5	0	0	0	0	203	452	0	433	0	0	
6	0	0	0	0	132	422	0	419	0	0	
7	0	0	0	0	100	399	0	408	0	0	
8	0	0	0	0	113	384	0	402	0	0	
9	0	0	0	0	171	377	0	401	0	0	
10	0	0	0	0	266	380	0	405	0	0	
11	0	0	0	0	391	390	0	412	0	0	
12	0	0	0	0	531	407	0	422	0	0	
13	0	0	0	0	671	428	0	433	0	0	
14	0	0	0	0	799	450	0	446	0	0	
15	0	0	0	0	902	473	0	459	0	0	
0	0	0	0	0	973	495	0	471	0	0	
1	0	0	0	0	1008	516	0	483	0	0	
2	0	0	0	0	1002	533	0	493	0	0	
3	0	0	0	0	956	545	0	501	0	0	
4	0	0	0	0	876	553	0	508	0	0	
5	0	0	0	0	768	557	0	511	0	0	
6	0	0	0	0	646	556	0	512	0	0	
7	0	0	0	0	520	550	0	512	0	0	
8	0	0	0	0	404	541	0	508	0	0	
9	0	0	0	0	307	528	0	502	0	0	
10	0	0	0	0	241	513	0	493	0	0	
11	0	0	0	0	207	495	0	482	0	0	
12	0	0	0	0	209	477	0	470	0	0	
13	0	0	0	0	246	460	0	457	0	0	
14	0	0	0	0	313	446	0	446	0	0	
15	0	0	0	0	403	434	0	436	0	0	
0	0	0	0	0	505	425	0	428	0	0	
1	0	0	0	0	607	422	0	423	0	0	
2	0	0	0	0	698	422	0	421	0	0	
3	0	0	0	0	771	427	0	422	0	0	
4	0	0	0	0	820	436	0	427	0	0	
5	0	0	0	0	839	448	0	435	0	0	
6	0	0	0	0	829	463	0	444	0	0	
7	0	0	0	0	789	478	0	455	0	0	
8	0	0	0	0	725	493	0	467	0	0	
9	0	0	0	0	644	506	0	477	0	0	
10	0	0	0	0	555	516	0	487	0	0	
11	0	0	0	0	466	523	0	494	0	0	
12	0	0	0	0	389	526	0	499	0	0	
13	0	0	0	0	330	525	0	501	0	0	
14	0	0	0	0	295	519	0	499	0	0	
15	0	0	0	0	289	511	0	493	0	0	
0	0	0	0	0	312	499	0	484	0	0	
1	0	0	0	0	361	487	0	473	0	0	
2	0	0	0	0	431	474	0	462	0	0	
3	0	0	0	0	513	461	0	450	0	0	
4	0	0	0	0	599	450	0	439	0	0	
5	0	0	0	0	679	441	0	431	0	0	
6	0	0	0	0	744	436	0	424	0	0	
7	0	0	0	0	789	434	0	421	0	0	
8	0	0	0	0	808	434	0	421	0	0	
9	0	0	0	0	799	438	0	424	0	0	
10	0	0	0	0	762	443	0	430	0	0	
11	0	0	0	0	699	449	0	438	0	0	
12	0	0	0	0	615	454	0	445	0	0	
13	0	0	0	0	518	456	0	451	0	0	
14	0	0	0	0	417	455	0	455	0	0	
15	0	0	0	0	326	455	0	459	0	0	
0	0	0	0	0	253	455	0	460	0	0	
1	0	0	0	0	207	455	0	462	0	0	
2	0	0	0	0	193	456	0	462	0	0	
3	0	0	0	0	213	458	0	460	0	0	
4	0	0	0	0	265	459	0	456	0	0	
5	0	0	0	0	344	458	0	449	0	0	
6	0	0	0	0	442	455	0	440	0	0	
7	0	0	0	0	550	451	0	430	0	0	
8	0	0	0	0	657	446	0	420	0	0	
9	0	0	0	0	753	440	0	412	0	0	
10	0	0	0	0	828	435	0	405	0	0	
11	0	0	0	0	875	430	0	401	0	0	
12	0	0	0	0	890	426	0	401	0	0	
13	0	0	0	0	870	422	0	403	0	0	
14	0	0	0	0	817	421	0	409	0	0	
15	0	0	0	0	737	422	0	417	0	0	
0	0	0	0	0	636	426	0	427	0	0	
1	0	0	0	0	526	432	0	438	0	0	
2	0	0	0	0	416	439	0	448	0	0	
3	0	0	0	0	319	448	0	458	0	0	
4	0	0	0	0	244	456	0	465	0	0	
5	0	0	0	0	199	462	0	472	0	0	
6	0	0	0	0	187	466	0	475	0	0	
7	0	0	0	0	212	468	0	478	0	0	
8	0	0	0	0	272	468	0	478	0	0	
9	0	0	0	0	361	467	0	478	0	0	
10	0	0	0	0	472	468	0	478	0	0	
11	0	0	0	0	596	473	0	479	0	0	
12	0	0	0	0	720	483	0	480	0	0	
13	0	0	0	0	833	496	0	483	0	0	
14	0	0	0	0	925	512	0	487	0	0	
15	0	0	0	0	989	529	0	489	0	0	
0	0	0	0	0	1017	544	0	493	0	0	
1	0	0	0	0	1007	557	0	496	0	0	
2	0	0	0	0	959	566	0	498	0	0	
3	0	0	0	0	875	570	0	499	0	0	
4	0	0	0	0	765	570	0	500	0	0	
5	0	0	0	0	636	566	0	499	0	0	
6	0	0	0	0	501	557	0	497	0	0	
7	0	0	0	0	371	545	0	494	0	0	
8	0	0	0	0	261	531	0	489	0	0	
9	0	0	0	0	178	515	0	481	0	0	
10	0	0	0	0	128	496	0	472	0	0	
11	0	0	0	0	115	477	0	459	0	0	
12	0	0	0	0	139	457	0	446	0	0	
13	0	0	0	0	196	438	0	431	0	0	
14	0	0	0	0	280	419	0	417	0	0	
15	0	0	0	0	385	403	0	406	0	0	
0	0	0	0	0	498	391	0	398	0	0	
1	0	0	0	0	609	385	0	396	0	0	
2	0	0	0	0	707	384	0	398	0	0	
3	0	0	0	0	782	388	0	405	0	0	
4	0	0	0	0	828	395	0	416	0	0	
5	0	0	0	0	839	406	0	430	0	0	
6	0	0	0	0	818	420	0	447	0	0	
7	0	0	0	0	765	436	0	463	0	0	
8	0	0	0	0	689	453	0	479	0	0	
9	0	0	0	0	596	471	0	491	0	0	
10	0	0	0	0	498	487	0	500	0	0	
11	0	0	0	0	404	501	0	505	0	0	
12	0	0	0	0	325	512	0	506	0	0	
13	0	0	0	0	270	521	0	504	0	0	
14	0	0	0	0	245	527	0	499	0	0	
15	0	0	0	0	252	530	0	493	0	0	
0	0	0	0	0	293	532	0	487	0	0	
1	0	0	0	0	364	534	0	482	0	0	
2	0	0	0	0	458	534	0	477	0	0	
3	0	0	0	0	562	534	0	472	0	0	
4	0	0	0	0	667	531	0	468	0	0	
5	0	0	0	0	759	526	0	464	0	0	
6	0	0	0	0	832	520	0	459	0	0	
7	0	0	0	0	877	513	0	453	0	0	
8	0	0	0	0	891	504	0	448	0	0	
9	0	0	0	0	870	496	0	445	0	0	
10	0	0	0	0	817	487	0	442	0	0	
11	0	0	0	0	735	479	0	440	0	0	
12	0	0	0	0	631	471	0	439	0	0	
13	0	0	0	0	514	462	0	439	0	0	
14	0	0	0	0	395	453	0	439	0	0	
15	0	0	0	0	287	446	0	440	0	0	
0	0	0	0	0	199	439	0	440	0	0	
1	0	0	0	0	141	434	0	441	0	0	
2	0	0	0	0	116	432	0	442	0	0	
3	0	0	0	0	129	432	0	443	0	0	
4	0	0	0	0	179	434	0	443	0	0	
5	0	0	0	0	260	439	0	444	0	0	
6	0	0	0	0	367	446	0	445	0	0	
7	0	0	0	0	489	454	0	447	0	0	
8	0	0	0	0	614	462	0	449	0	0	
9	0	0	0	0	731	471	0	451	0	0	
10	0	0	0	0	829	479	0	452	0	0	
11	0	0	0	0	899	486	0	452	0	0	
12	0	0	0	0	937	491	0	452	0	0	
13	0	0	0	0	942	495	0	452	0	0	
14	0	0	0	0	911	499	0	453	0	0	
15	0	0	0	0	848	503	0	455	0	0	
0	0	0	0	0	762	508	0	458	0	0	
1	0	0	0	0	660	512	0	462	0	0	
2	0	0	0	0	554	517	0	467	0	0	
3	0	0	0	0	452	521	0	472	0	0	
4	0	0	0	0	366	524	0	477	0	0	
5	0	0	0	0	305	525	0	481	0	0	
6	0	0	0	0	275	524	0	484	0	0	
7	0	0	0	0	279	522	0	485	0	0	
8	0	0	0	0	315	518	0	484	0	0	
9	0	0	0	0	380	511	0	479	0	0	
10	0	0	0	0	467	503	0	472	0	0	
11	0	0	0	0	568	494	0	463	0	0	
12	0	0	0	0	670	485	0	453	0	0	
13	0	0	0	0	764	478	0	443	0	0	
14	0	0	0	0	843	472	0	434	0	0	
15	0	0	0	0	898	467	0	427	0	0	
0	0	0	0	0	925	465	0	423	0	0	
1	0	0	0	0	921	466	0	423	0	0	
2	0	0	0	0	886	470	0	426	0	0	
3	0	0	0	0	824	476	0	433	0	0	
4	0	0	0	0	742	484	0	443	0	0	
5	0	0	0	0	645	493	0	453	0	0	
6	0	0	0	0	544	500	0	462	0	0	
7	0	0	0	0	448	505	0	469	0	0	
8	0	0	0	0	365	506	0	471	0	0	
9	0	0	0	0	303	502	0	469	0	0	
10	0	0	0	0	268	495	0	463	0	0	
11	0	0	0	0	263	483	0	453	0	0	
12	0	0	0	0	288	471	0	442	0	0	
13	0	0	0	0	343	459	0	431	0	0	
14	0	0	0	0	422	451	0	421	0	0	
15	0	0	0	0	517	446	0	416	0	0	
0	0	0	0	0	619	446	0	415	0	0	
1	0	0	0	0	716	450	0	420	0	0	
2	0	0	0	0	800	459	0	429	0	0	
3	0	0	0	0	862	470	0	443	0	0	
4	0	0	0	0	897	484	0	460	0	0	
5	0	0	0	0	900	498	0	479	0	0	
6	0	0	0	0	871	512	0	499	0	0	
7	0	0	0	0	812	525	0	518	0	0	
8	0	0	0	0	728	535	0	535	0	0	
9	0	0	0	0	627	540	0	547	0	0	
10	0	0	0	0	519	543	0	553	0	0	
11	0	0	0	0	416	542	0	556	0	0	
12	0	0	0	0	326	537	0	551	0	0	
13	0	0	0	0	260	527	0	541	0	0	
14	0	0	0	0	223	515	0	526	0	0	
15	0	0	0	0	219	499	0	506	0	0	
0	0	0	0	0	248	483	0	484	0	0	
1	0	0	0	0	306	465	0	461	0	0	
2	0	0	0	0	389	447	0	438	0	0	
3	0	0	0	0	487	428	0	416	0	0	
4	0	0	0	0	588	409	0	397	0	0	
5	0	0	0	0	683	392	0	383	0	0	
6	0	0	0	0	760	376	0	374	0	0	
7	0	0	0	0	814	361	0	369	0	0	
8	0	0	0	0	838	351	0	370	0	0	
9	0	0	0	0	831	346	0	377	0	0	
10	0	0	0	0	793	350	0	388	0	0	
11	0	0	0	0	728	361	0	402	0	0	
12	0	0	0	0	643	379	0	419	0	0	
13	0	0	0	0	546	404	0	435	0	0	
14	0	0	0	0	447	433	0	452	0	0	
15	0	0	0	0	357	464	0	467	0	0	
0	0	0	0	0	284	493	0	478	0	0	
1	0	0	0	0	237	519	0	485	0	0	
2	0	0	0	0	218	539	0	488	0	0	
3	0	0	0	0	229	551	0	487	0	0	
4	0	0	0	0	271	557	0	482	0	0	
5	0	0	0	0	338	556	0	473	0	0	
6	0	0	0	0	426	550	0	464	0	0	
7	0	0	0	0	525	540	0	454	0	0	
8	0	0	0	0	625	529	0	446	0	0	
9	0	0	0	0	719	519	0	440	0	0	
10	0	0	0	0	798	511	0	438	0	0	
11	0	0	0	0	856	508	0	440	0	0	
12	0	0	0	0	888	508	0	446	0	0	
13	0	0	0	0	892	513	0	456	0	0	
14	0	0	0	0	867	522	0	469	0	0	
15	0	0	0	0	814	532	0	482	0	0	
0	0	0	0	0	738	542	0	494	0	0	
1	0	0	0	0	646	548	0	504	0	0	
2	0	0	0	0	545	550	0	509	0	0	
3	0	0	0	0	444	545	0	509	0	0	
4	0	0	0	0	350	533	0	502	0	0	
5	0	0	0	0	273	513	0	489	0	0	
6	0	0	0	0	218	487	0	470	0	0	
7	0	0	0	0	188	455	0	447	0	0	
8	0	0	0	0	185	418	0	422	0	0	
9	0	0	0	0	207	380	0	393	0	0	
10	0	0	0	0	252	342	0	366	0	0	
11	0	0	0	0	316	309	0	342	0	0	
12	0	0	0	0	396	285	0	324	0	0	
13	0	0	0	0	484	275	0	316	0	0	
14	0	0	0	0	575	281	0	318	0	0	
15	0	0	0	0	660	302	0	332	0	0	
0	0	0	0	0	733	337	0	356	0	0	
1	0	0	0	0	787	382	0	388	0	0	
2	0	0	0	0	817	432	0	425	0	0	
3	0	0	0	0	820	482	0	463	0	0	
4	0	0	0	0	796	527	0	497	0	0	
5	0	0	0	0	748	562	0	525	0	0	
6	0	0	0	0	681	587	0	546	0	0	
7	0	0	0	0	605	599	0	559	0	0	
8	0	0	0	0	528	600	0	563	0	0	
9	0	0	0	0	461	593	0	560	0	0	
10	0	0	0	0	410	578	0	550	0	0	
11	0	0	0	0	384	558	0	536	0	0	
12	0	0	0	0	385	536	0	517	0	0	
13	0	0	0	0	412	513	0	496	0	0	
14	0	0	0	0	463	492	0	475	0	0	
15	0	0	0	0	531	475	0	456	0	0	
0	0	0	0	0	608	462	0	439	0	0	
1	0	0	0	0	687	456	0	428	0	0	
2	0	0	0	0	758	455	0	420	0	0	
3	0	0	0	0	815	460	0	417	0	0	
4	0	0	0	0	850	468	0	420	0	0	
5	0	0	0	0	860	480	0	428	0	0	
6	0	0	0	0	846	495	0	440	0	0	
7	0	0	0	0	807	510	0	455	0	0	
8	0	0	0	0	746	525	0	470	0	0	
9	0	0	0	0	671	537	0	485	0	0	
10	0	0	0	0	587	546	0	497	0	0	
11	0	0	0	0	505	551	0	507	0	0	
12	0	0	0	0	433	551	0	512	0	0	
13	0	0	0	0	378	548	0	512	0	0	
14	0	0	0	0	347	539	0	507	0	0	
15	0	0	0	0	342	528	0	498	0	0	
0	0	0	0	0	365	514	0	487	0	0	
1	0	0	0	0	414	500	0	473	0	0	
2	0	0	0	0	483	487	0	461	0	0	
3	0	0	0	0	564	475	0	450	0	0	
4	0	0	0	0	649	465	0	440	0	0	
5	0	0	0	0	728	459	0	433	0	0	
6	0	0	0	0	792	454	0	428	0	0	
7	0	0	0	0	834	452	0	425	0	0	
8	0	0	0	0	852	451	0	423	0	0	
9	0	0	0	0	839	451	0	421	0	0	
10	0	0	0	0	798	451	0	421	0	0	
11	0	0	0	0	731	450	0	421	0	0	
12	0	0	0	0	644	447	0	419	0	0	
13	0	0	0	0	545	442	0	417	0	0	
14	0	0	0	0	442	434	0	413	0	0	
15	0	0	0	0	344	425	0	408	0	0	
0	0	0	0	0	264	415	0	404	0	0	
1	0	0	0	0	206	405	0	399	0	0	
2	0	0	0	0	179	397	0	396	0	0	
3	0	0	0	0	184	391	0	396	0	0	
4	0	0	0	0	225	391	0	399	0	0	
5	0	0	0	0	299	396	0	404	0	0	
6	0	0	0	0	400	406	0	412	0	0	
7	0	0	0	0	518	420	0	422	0	0	
8	0	0	0	0	641	438	0	433	0	0	
9	0	0	0	0	759	457	0	445	0	0	
10	0	0	0	0	860	479	0	457	0	0	
11	0	0	0	0	935	498	0	468	0	0	
12	0	0	0	0	977	514	0	477	0	0	
13	0	0	0	0	980	524	0	482	0	0	
14	0	0	0	0	941	527	0	484	0	0	
15	0	0	0	0	862	521	0	481	0	0	
0	0	0	0	0	752	511	0	475	0	0	
1	0	0	0	0	622	496	0	468	0	0	
2	0	0	0	0	485	479	0	459	0	0	
3	0	0	0	0	355	463	0	451	0	0	
4	0	0	0	0	246	449	0	443	0	0	
5	0	0	0	0	166	438	0	435	0	0	
6	0	0	0	0	123	428	0	428	0	0	
7	0	0	0	0	120	422	0	421	0	0	
8	0	0	0	0	155	417	0	415	0	0	
9	0	0	0	0	224	414	0	410	0	0	
10	0	0	0	0	321	412	0	406	0	0	
11	0	0	0	0	435	408	0	403	0	0	
12	0	0	0	0	554	404	0	400	0	0	
13	0	0	0	0	668	400	0	401	0	0	
14	0	0	0	0	766	397	0	404	0	0	
15	0	0	0	0	840	395	0	410	0	0	
0	0	0	0	0	887	396	0	420	0	0	
1	0	0	0	0	902	400	0	433	0	0	
2	0	0	0	0	884	410	0	449	0	0	
3	0	0	0	0	838	427	0	467	0	0	
4	0	0	0	0	768	451	0	485	0	0	
5	0	0	0	0	681	478	0	502	0	0	
6	0	0	0	0	586	508	0	515	0	0	
7	0	0	0	0	493	536	0	524	0	0	
8	0	0	0	0	410	560	0	528	0	0	
9	0	0	0	0	345	578	0	527	0	0	
10	0	0	0	0	306	590	0	519	0	0	
11	0	0	0	0	296	594	0	508	0	0	
12	0	0	0	0	316	591	0	494	0	0	
13	0	0	0	0	364	581	0	476	0	0	
14	0	0	0	0	434	565	0	457	0	0	
15	0	0	0	0	519	544	0	440	0	0	
0	0	0	0	0	609	522	0	424	0	0	
1	0	0	0	0	696	500	0	414	0	0	
2	0	0	0	0	769	479	0	408	0	0	
3	0	0	0	0	824	462	0	408	0	0	
4	0	0	0	0	854	448	0	415	0	0	
5	0	0	0	0	854	438	0	425	0	0	
6	0	0	0	0	827	434	0	440	0	0	
7	0	0	0	0	772	433	0	457	0	0	
8	0	0	0	0	697	437	0	473	0	0	
9	0	0	0	0	608	444	0	487	0	0	
10	0	0	0	0	514	451	0	499	0	0	
11	0	0	0	0	424	458	0	506	0	0	
12	0	0	0	0	345	464	0	508	0	0	
13	0	0	0	0	288	468	0	507	0	0	
14	0	0	0	0	256	470	0	500	0	0	
15	0	0	0	0	251	468	0	491	0	0	
0	0	0	0	0	275	463	0	479	0	0	
1	0	0	0	0	326	457	0	466	0	0	
2	0	0	0	0	398	449	0	453	0	0	
3	0	0	0	0	482	440	0	440	0	0	
4	0	0	0	0	569	428	0	427	0	0	
5	0	0	0	0	651	417	0	416	0	0	
6	0	0	0	0	717	406	0	407	0	0	
7	0	0	0	0	764	397	0	400	0	0	
8	0	0	0	0	786	392	0	397	0	0	
9	0	0	0	0	783	391	0	399	0	0	
10	0	0	0	0	755	396	0	403	0	0	
11	0	0	0	0	703	406	0	411	0	0	
12	0	0	0	0	635	419	0	422	0	0	
13	0	0	0	0	556	435	0	435	0	0	
14	0	0	0	0	474	452	0	448	0	0	
15	0	0	0	0	399	469	0	461	0	0	
0	0	0	0	0	337	483	0	471	0	0	
1	0	0	0	0	297	495	0	479	0	0	
2	0	0	0	0	281	504	0	482	0	0	
3	0	0	0	0	294	508	0	483	0	0	
4	0	0	0	0	335	510	0	481	0	0	
5	0	0	0	0	402	509	0	478	0	0	
6	0	0	0	0	487	507	0	472	0	0	
7	0	0	0	0	583	503	0	467	0	0	
8	0	0	0	0	679	498	0	462	0	0	
9	0	0	0	0	765	492	0	457	0	0	
10	0	0	0	0	832	484	0	453	0	0	
11	0	0	0	0	871	475	0	448	0	0	
12	0	0	0	0	879	464	0	444	0	0	
13	0	0	0	0	852	451	0	439	0	0	
14	0	0	0	0	790	438	0	436	0	0	
15	0	0	0	0	701	427	0	434	0	0	
0	0	0	0	0	593	418	0	434	0	0	
1	0	0	0	0	476	412	0	436	0	0	
2	0	0	0	0	362	410	0	439	0	0	
3	0	0	0	0	263	411	0	443	0	0	
4	0	0	0	0	188	414	0	447	0	0	
5	0	0	0	0	143	419	0	451	0	0	
6	0	0	0	0	134	423	0	454	0	0	
7	0	0	0	0	159	427	0	454	0	0	
8	0	0	0	0	219	430	0	452	0	0	
9	0	0	0	0	306	429	0	447	0	0	
10	0	0	0	0	415	428	0	441	0	0	
11	0	0	0	0	535	426	0	434	0	0	
12	0	0	0	0	655	424	0	427	0	0	
13	0	0	0	0	766	424	0	421	0	0	
14	0	0	0	0	856	425	0	417	0	0	
15	0	0	0	0	920	429	0	415	0	0	
0	0	0	0	0	953	436	0	417	0	0	
1	0	0	0	0	952	447	0	422	0	0	
2	0	0	0	0	918	460	0	431	0	0	
3	0	0	0	0	853	475	0	441	0	0	
4	0	0	0	0	761	489	0	453	0	0	
5	0	0	0	0	654	503	0	464	0	0	
6	0	0	0	0	540	513	0	473	0	0	
7	0	0	0	0	428	521	0	481	0	0	
8	0	0	0	0	332	526	0	486	0	0	
9	0	0	0	0	261	527	0	488	0	0	
10	0	0	0	0	222	526	0	488	0	0	
11	0	0	0	0	218	523	0	485	0	0	
12	0	0	0	0	248	519	0	480	0	0	
13	0	0	0	0	311	512	0	472	0	0	
14	0	0	0	0	399	506	0	464	0	0	
15	0	0	0	0	503	500	0	456	0	0	
0	0	0	0	0	612	495	0	450	0	0	
1	0	0	0	0	718	493	0	446	0	0	
2	0	0	0	0	808	493	0	445	0	0	
3	0	0	0	0	876	494	0	446	0	0	
4	0	0	0	0	916	496	0	449	0	0	
5	0	0	0	0	921	497	0	454	0	0	
6	0	0	0	0	892	497	0	459	0	0	
7	0	0	0	0	829	494	0	464	0	0	
8	0	0	0	0	737	488	0	469	0	0	
9	0	0	0	0	627	481	0	472	0	0	
10	0	0	0	0	508	472	0	474	0	0	
11	0	0	0	0	391	462	0	473	0	0	
12	0	0	0	0	289	451	0	471	0	0	
13	0	0	0	0	210	438	0	466	0	0	
14	0	0	0	0	160	424	0	459	0	0	
15	0	0	0	0	141	409	0	449	0	0	
0	0	0	0	0	156	392	0	438	0	0	
1	0	0	0	0	202	376	0	425	0	0	
2	0	0	0	0	274	359	0	412	0	0	
3	0	0	0	0	365	345	0	399	0	0	
4	0	0	0	0	467	336	0	390	0	0	
5	0	0	0	0	570	333	0	386	0	0	
6	0	0	0	0	665	338	0	387	0	0	
7	0	0	0	0	745	350	0	393	0	0	
8	0	0	0	0	802	369	0	406	0	0	
9	0	0	0	0	831	394	0	422	0	0	
10	0	0	0	0	833	423	0	441	0	0	
11	0	0	0	0	805	452	0	460	0	0	
12	0	0	0	0	751	481	0	478	0	0	
13	0	0	0	0	678	507	0	494	0	0	
14	0	0	0	0	593	529	0	505	0	0	
15	0	0	0	0	508	545	0	512	0	0	
0	0	0	0	0	430	555	0	514	0	0	
1	0	0	0	0	368	559	0	511	0	0	
2	0	0	0	0	328	556	0	505	0	0	
3	0	0	0	0	315	548	0	496	0	0	
4	0	0	0	0	330	537	0	484	0	0	
5	0	0	0	0	371	522	0	472	0	0	
6	0	0	0	0	435	507	0	460	0	0	
7	0	0	0	0	515	492	0	450	0	0	
8	0	0	0	0	600	479	0	442	0	0	
9	0	0	0	0	684	469	0	437	0	0	
10	0	0	0	0	755	462	0	434	0	0	
11	0	0	0	0	809	457	0	435	0	0	
12	0	0	0	0	837	455	0	438	0	0	
13	0	0	0	0	836	455	0	443	0	0	
14	0	0	0	0	806	455	0	449	0	0	
15	0	0	0	0	746	455	0	454	0	0	
0	0	0	0	0	665	455	0	460	0	0	
1	0	0	0	0	570	455	0	463	0	0	
2	0	0	0	0	472	454	0	466	0	0	
3	0	0	0	0	380	453	0	467	0	0	
4	0	0	0	0	306	452	0	465	0	0	
5	0	0	0	0	256	451	0	462	0	0	
6	0	0	0	0	237	450	0	457	0	0	
7	0	0	0	0	251	449	0	451	0	0	
8	0	0	0	0	297	451	0	444	0	0	
9	0	0	0	0	374	453	0	439	0	0	
10	0	0	0	0	473	456	0	433	0	0	
11	0	0	0	0	585	460	0	429	0	0	
12	0	0	0	0	698	466	0	426	0	0	
13	0	0	0	0	802	470	0	424	0	0	
14	0	0	0	0	887	472	0	423	0	0	
15	0	0	0	0	944	472	0	421	0	0	
0	0	0	0	0	966	468	0	420	0	0	
1	0	0	0	0	952	463	0	419	0	0	
2	0	0	0	0	903	456	0	422	0	0	
3	0	0	0	0	822	451	0	425	0	0	
4	0	0	0	0	717	447	0	431	0	0	
5	0	0	0	0	600	443	0	439	0	0	
6	0	0	0	0	479	440	0	448	0	0	
7	0	0	0	0	367	436	0	456	0	0	
8	0	0	0	0	276	433	0	464	0	0	
9	0	0	0	0	214	430	0	472	0	0	
10	0	0	0	0	188	426	0	478	0	0	
11	0	0	0	0	200	423	0	482	0	0	
12	0	0	0	0	250	422	0	483	0	0	
13	0	0	0	0	334	423	0	483	0	0	
14	0	0	0	0	444	429	0	480	0	0	
15	0	0	0	0	569	440	0	476	0	0	
0	0	0	0	0	698	454	0	470	0	0	
1	0	0	0	0	816	471	0	464	0	0	
2	0	0	0	0	914	489	0	458	0	0	
3	0	0	0	0	983	505	0	452	0	0	
4	0	0	0	0	1016	519	0	448	0	0	
5	0	0	0	0	1010	530	0	445	0	0	
6	0	0	0	0	963	536	0	445	0	0	
7	0	0	0	0	879	536	0	444	0	0	
8	0	0	0	0	764	531	0	444	0	0	
9	0	0	0	0	628	520	0	444	0	0	
10	0	0	0	0	485	505	0	443	0	0	
11	0	0	0	0	348	491	0	442	0	0	
12	0	0	0	0	232	476	0	440	0	0	
13	0	0	0	0	149	464	0	440	0	0	
14	0	0	0	0	105	455	0	439	0	0	
15	0	0	0	0	104	449	0	438	0	0	
0	0	0	0	0	149	447	0	437	0	0	
1	0	0	0	0	233	448	0	435	0	0	
2	0	0	0	0	349	451	0	434	0	0	
3	0	0	0	0	487	455	0	433	0	0	
4	0	0	0	0	631	461	0	432	0	0	
5	0	0	0	0	768	468	0	431	0	0	
6	0	0	0	0	887	475	0	432	0	0	
7	0	0	0	0	977	483	0	435	0	0	
8	0	0	0	0	1021	491	0	440	0	0	
9	0	0	0	0	1021	497	0	446	0	0	
10	0	0	0	0	1004	499	0	453	0	0	
11	0	0	0	0	937	498	0	459	0	0	
12	0	0	0	0	833	491	0	463	0	0	
13	0	0	0	0	703	479	0	465	0	0	
14	0	0	0	0	556	464	0	465	0	0	
15	0	0	0	0	407	446	0	463	0	0	
0	0	0	0	0	271	428	0	460	0	0	
1	0	0	0	0	160	411	0	456	0	0	
2	0	0	0	0	87	398	0	452	0	0	
3	0	0	0	0	56	390	0	450	0	0	
4	0	0	0	0	73	388	0	449	0	0	
5	0	0	0	0	134	392	0	450	0	0	
6	0	0	0	0	235	402	0	451	0	0	
7	0	0	0	0	364	415	0	455	0	0	
8	0	0	0	0	511	432	0	458	0	0	
9	0	0	0	0	659	450	0	461	0	0	
10	0	0	0	0	796	468	0	464	0	0	
11	0	0	0	0	908	487	0	468	0	0	
12	0	0	0	0	986	502	0	471	0	0	
13	0	0	0	0	1021	514	0	473	0	0	
14	0	0	0	0	1019	521	0	475	0	0	
15	0	0	0	0	973	524	0	475	0	0	
0	0	0	0	0	890	523	0	476	0	0	
1	0	0	0	0	777	519	0	476	0	0	
2	0	0	0	0	648	513	0	476	0	0	
3	0	0	0	0	516	508	0	478	0	0	
4	0	0	0	0	392	502	0	479	0	0	
5	0	0	0	0	291	497	0	481	0	0	
6	0	0	0	0	222	493	0	482	0	0	
7	0	0	0	0	191	491	0	483	0	0	
8	0	0	0	0	201	491	0	483	0	0	
9	0	0	0	0	249	491	0	480	0	0	
10	0	0	0	0	332	492	0	477	0	0	
11	0	0	0	0	440	493	0	472	0	0	
12	0	0	0	0	558	493	0	467	0	0	
13	0	0	0	0	675	492	0	461	0	0	
14	0	0	0	0	779	491	0	455	0	0	
15	0	0	0	0	860	488	0	451	0	0	
0	0	0	0	0	911	484	0	448	0	0	
1	0	0	0	0	928	480	0	445	0	0	
2	0	0	0	0	907	474	0	443	0	0	
3	0	0	0	0	849	465	0	439	0	0	
4	0	0	0	0	760	456	0	436	0	0	
5	0	0	0	0	649	446	0	433	0	0	
6	0	0	0	0	527	437	0	430	0	0	
7	0	0	0	0	407	430	0	427	0	0	
8	0	0	0	0	300	423	0	424	0	0	
9	0	0	0	0	218	419	0	420	0	0	
10	0	0	0	0	167	415	0	416	0	0	
11	0	0	0	0	148	411	0	410	0	0	
12	0	0	0	0	167	408	0	404	0	0	
13	0	0	0	0	220	405	0	397	0	0	
14	0	0	0	0	302	404	0	391	0	0	
15	0	0	0	0	408	406	0	388	0	0	
0	0	0	0	0	526	411	0	387	0	0	
1	0	0	0	0	643	418	0	388	0	0	
2	0	0	0	0	750	428	0	393	0	0	
3	0	0	0	0	836	439	0	400	0	0	
4	0	0	0	0	895	451	0	410	0	0	
5	0	0	0	0	920	464	0	422	0	0	
6	0	0	0	0	908	475	0	432	0	0	
7	0	0	0	0	860	483	0	442	0	0	
8	0	0	0	0	780	488	0	450	0	0	
9	0	0	0	0	676	489	0	457	0	0	
10	0	0	0	0	560	487	0	461	0	0	
11	0	0	0	0	441	480	0	462	0	0	
12	0	0	0	0	331	470	0	460	0	0	
13	0	0	0	0	240	455	0	454	0	0	
14	0	0	0	0	175	437	0	444	0	0	
15	0	0	0	0	142	416	0	431	0	0	
0	0	0	0	0	142	394	0	415	0	0	
1	0	0	0	0	178	374	0	399	0	0	
2	0	0	0	0	243	357	0	385	0	0	
3	0	0	0	0	332	345	0	372	0	0	
4	0	0	0	0	436	338	0	364	0	0	
5	0	0	0	0	543	339	0	362	0	0	
6	0	0	0	0	642	345	0	364	0	0	
7	0	0	0	0	723	358	0	372	0	0	
8	0	0	0	0	779	376	0	386	0	0	
9	0	0	0	0	806	399	0	404	0	0	
10	0	0	0	0	803	425	0	427	0	0	
11	0	0	0	0	771	452	0	451	0	0	
12	0	0	0	0	714	480	0	475	0	0	
13	0	0	0	0	638	505	0	498	0	0	
14	0	0	0	0	551	527	0	516	0	0	
15	0	0	0	0	462	543	0	530	0	0	
0	0	0	0	0	379	551	0	536	0	0	
1	0	0	0	0	310	553	0	535	0	0	
2	0	0	0	0	264	549	0	529	0	0	
3	0	0	0	0	243	539	0	517	0	0	
4	0	0	0	0	251	525	0	502	0	0	
5	0	0	0	0	286	507	0	484	0	0	
6	0	0	0	0	343	486	0	466	0	0	
7	0	0	0	0	417	465	0	449	0	0	
8	0	0	0	0	499	444	0	436	0	0	
9	0	0	0	0	582	428	0	428	0	0	
10	0	0	0	0	657	419	0	425	0	0	
11	0	0	0	0	719	418	0	430	0	0	
12	0	0	0	0	763	424	0	442	0	0	
13	0	0	0	0	783	438	0	457	0	0	
14	0	0	0	0	779	457	0	475	0	0	
15	0	0	0	0	749	479	0	493	0	0	
0	0	0	0	0	696	501	0	510	0	0	
1	0	0	0	0	626	521	0	523	0	0	
2	0	0	0	0	546	537	0	531	0	0	
3	0	0	0	0	462	547	0	534	0	0	
4	0	0	0	0	382	548	0	528	0	0	
5	0	0	0	0	314	543	0	517	0	0	
6	0	0	0	0	264	529	0	500	0	0	
7	0	0	0	0	236	511	0	479	0	0	
8	0	0	0	0	236	491	0	457	0	0	
9	0	0	0	0	263	471	0	436	0	0	
10	0	0	0	0	317	455	0	419	0	0	
11	0	0	0	0	393	443	0	405	0	0	
12	0	0	0	0	483	438	0	397	0	0	
13	0	0	0	0	577	439	0	395	0	0	
14	0	0	0	0	664	443	0	397	0	0	
15	0	0	0	0	735	450	0	403	0	0	
0	0	0	0	0	782	459	0	414	0	0	
1	0	0	0	0	802	467	0	425	0	0	
2	0	0	0	0	791	475	0	439	0	0	
3	0	0	0	0	750	480	0	451	0	0	
4	0	0	0	0	682	481	0	463	0	0	
5	0	0	0	0	595	479	0	472	0	0	
6	0	0	0	0	496	473	0	479	0	0	
7	0	0	0	0	397	463	0	482	0	0	
8	0	0	0	0	306	451	0	481	0	0	
9	0	0	0	0	234	438	0	477	0	0	
10	0	0	0	0	187	423	0	470	0	0	
11	0	0	0	0	170	409	0	460	0	0	
12	0	0	0	0	186	396	0	448	0	0	
13	0	0	0	0	234	386	0	434	0	0	
14	0	0	0	0	312	381	0	423	0	0	
15	0	0	0	0	413	380	0	414	0	0	
0	0	0	0	0	527	384	0	410	0	0	
1	0	0	0	0	645	393	0	411	0	0	
2	0	0	0	0	753	406	0	417	0	0	
3	0	0	0	0	845	423	0	429	0	0	
4	0	0	0	0	911	443	0	445	0	0	
5	0	0	0	0	950	468	0	465	0	0	
6	0	0	0	0	956	496	0	486	0	0	
7	0	0	0	0	930	526	0	506	0	0	
8	0	0	0	0	875	555	0	524	0	0	
9	0	0	0	0	795	582	0	539	0	0	
10	0	0	0	0	699	604	0	548	0	0	
11	0	0	0	0	595	619	0	553	0	0	
12	0	0	0	0	493	627	0	551	0	0	
13	0	0	0	0	403	627	0	543	0	0	
14	0	0	0	0	332	618	0	531	0	0	
15	0	0	0	0	288	603	0	514	0	0	
0	0	0	0	0	276	583	0	495	0	0	
1	0	0	0	0	294	559	0	475	0	0	
2	0	0	0	0	339	533	0	454	0	0	
3	0	0	0	0	405	506	0	435	0	0	
4	0	0	0	0	482	478	0	417	0	0	
5	0	0	0	0	560	453	0	404	0	0	
6	0	0	0	0	629	431	0	394	0	0	
7	0	0	0	0	683	413	0	389	0	0	
8	0	0	0	0	716	400	0	389	0	0	
9	0	0	0	0	725	394	0	394	0	0	
10	0	0	0	0	711	395	0	404	0	0	
11	0	0	0	0	674	401	0	417	0	0	
12	0	0	0	0	620	414	0	432	0	0	
13	0	0	0	0	552	428	0	446	0	0	
14	0	0	0	0	478	442	0	459	0	0	
15	0	0	0	0	402	453	0	467	0	0	
0	0	0	0	0	333	459	0	469	0	0	
1	0	0	0	0	275	458	0	465	0	0	
2	0	0	0	0	236	452	0	455	0	0	
3	0	0	0	0	219	440	0	441	0	0	
4	0	0	0	0	226	427	0	423	0	0	
5	0	0	0	0	259	412	0	405	0	0	
6	0	0	0	0	316	399	0	387	0	0	
7	0	0	0	0	390	389	0	373	0	0	
8	0	0	0	0	475	381	0	362	0	0	
9	0	0	0	0	560	378	0	355	0	0	
10	0	0	0	0	636	379	0	354	0	0	
11	0	0	0	0	694	382	0	356	0	0	
12	0	0	0	0	726	386	0	360	0	0	
13	0	0	0	0	729	391	0	367	0	0	
14	0	0	0	0	702	396	0	374	0	0	
15	0	0	0	0	645	400	0	380	0	0	
0	0	0	0	0	563	401	0	385	0	0	
1	0	0	0	0	465	401	0	387	0	0	
2	0	0	0	0	359	398	0	386	0	0	
3	0	0	0	0	255	391	0	381	0	0	
4	0	0	0	0	163	383	0	372	0	0	
5	0	0	0	0	91	371	0	360	0	0	
6	0	0	0	0	45	359	0	344	0	0	
7	0	0	0	0	32	344	0	326	0	0	
8	0	0	0	0	52	328	0	305	0	0	
9	0	0	0	0	105	313	0	283	0	0	
10	0	0	0	0	185	297	0	262	0	0	
11	0	0	0	0	285	284	0	240	0	0	
12	0	0	0	0	398	275	0	224	0	0	
13	0	0	0	0	512	271	0	212	0	0	
14	0	0	0	0	616	273	0	207	0	0	
15	0	0	0	0	699	282	0	207	0	0	
0	0	0	0	0	753	295	0	212	0	0	
1	0	0	0	0	772	310	0	221	0	0	
2	0	0	0	0	755	329	0	233	0	0	
3	0	0	0	0	704	348	0	248	0	0	
4	0	0	0	0	626	368	0	263	0	0	
5	0	0	0	0	529	388	0	278	0	0	
6	0	0	0	0	423	405	0	292	0	0	
7	0	0	0	0	317	419	0	304	0	0	
8	0	0	0	0	224	427	0	313	0	0	
9	0	0	0	0	148	430	0	319	0	0	
10	0	0	0	0	98	426	0	321	0	0	
11	0	0	0	0	77	418	0	319	0	0	
12	0	0	0	0	87	404	0	314	0	0	
13	0	0	0	0	125	386	0	305	0	0	
14	0	0	0	0	189	364	0	294	0	0	
15	0	0	0	0	270	342	0	280	0	0	
0	0	0	0	0	359	319	0	266	0	0	
1	0	0	0	0	447	297	0	251	0	0	
2	0	0	0	0	523	278	0	238	0	0	
3	0	0	0	0	578	262	0	227	0	0	
4	0	0	0	0	608	250	0	220	0	0	
5	0	0	0	0	608	243	0	217	0	0	
6	0	0	0	0	579	241	0	217	0	0	
7	0	0	0	0	524	246	0	223	0	0	
8	0	0	0	0	451	255	0	231	0	0	
9	0	0	0	0	365	268	0	241	0	0	
10	0	0	0	0	277	282	0	252	0	0	
11	0	0	0	0	193	296	0	263	0	0	
12	0	0	0	0	121	308	0	271	0	0	
13	0	0	0	0	68	317	0	275	0	0	
14	0	0	0	0	39	321	0	277	0	0	
15	0	0	0	0	37	320	0	273	0	0	
0	0	0	0	0	62	314	0	266	0	0	
1	0	0	0	0	114	304	0	255	0	0	
2	0	0	0	0	187	292	0	243	0	0	
3	0	0	0	0	275	280	0	228	0	0	
4	0	0	0	0	371	268	0	216	0	0	
5	0	0	0	0	466	259	0	205	0	0	
6	0	0	0	0	548	254	0	198	0	0	
7	0	0	0	0	611	252	0	193	0	0	
8	0	0	0	0	647	254	0	194	0	0	
9	0	0	0	0	654	261	0	199	0	0	
10	0	0	0	0	632	273	0	210	0	0	
11	0	0	0	0	582	286	0	225	0	0	
12	0	0	0	0	509	300	0	240	0	0	
13	0	0	0	0	422	313	0	257	0	0	
14	0	0	0	0	329	324	0	273	0	0	
15	0	0	0	0	240	333	0	286	0	0	
0	0	0	0	0	165	340	0	297	0	0	
1	0	0	0	0	111	345	0	307	0	0	
2	0	0	0	0	86	349	0	314	0	0	
3	0	0	0	0	92	353	0	321	0	0	
4	0	0	0	0	134	359	0	326	0	0	
5	0	0	0	0	205	366	0	331	0	0	
6	0	0	0	0	300	373	0	334	0	0	
7	0	0	0	0	410	381	0	338	0	0	
8	0	0	0	0	525	390	0	343	0	0	
9	0	0	0	0	635	399	0	348	0	0	
10	0	0	0	0	726	408	0	354	0	0	
11	0	0	0	0	790	415	0	360	0	0	
12	0	0	0	0	822	420	0	368	0	0	
13	0	0	0	0	818	422	0	374	0	0	
14	0	0	0	0	775	420	0	380	0	0	
15	0	0	0	0	699	414	0	384	0	0	
0	0	0	0	0	594	406	0	387	0	0	
1	0	0	0	0	472	395	0	388	0	0	
2	0	0	0	0	340	382	0	387	0	0	
3	0	0	0	0	216	369	0	385	0	0	
4	0	0	0	0	107	357	0	381	0	0	
5	0	0	0	0	25	347	0	378	0	0	
6	0	0	0	0	0	341	0	376	0	0	
7	0	0	0	0	0	340	0	376	0	0	
8	0	0	0	0	26	345	0	379	0	0	
9	0	0	0	0	101	356	0	384	0	0	
10	0	0	0	0	211	372	0	393	0	0	
11	0	0	0	0	345	391	0	404	0	0	
12	0	0	0	0	494	415	0	417	0	0	
13	0	0	0	0	643	441	0	433	0	0	
14	0	0	0	0	779	469	0	451	0	0	
15	0	0	0	0	890	496	0	470	0	0	
0	0	0	0	0	969	523	0	490	0	0	
1	0	0	0	0	1011	547	0	509	0	0	
2	0	0	0	0	1014	568	0	528	0	0	
3	0	0	0	0	977	585	0	545	0	0	
4	0	0	0	0	906	599	0	560	0	0	
5	0	0	0	0	807	607	0	572	0	0	
6	0	0	0	0	690	611	0	580	0	0	
7	0	0	0	0	565	609	0	584	0	0	
8	0	0	0	0	444	601	0	584	0	0	
9	0	0	0	0	339	590	0	580	0	0	
10	0	0	0	0	261	575	0	573	0	0	
11	0	0	0	0	216	560	0	564	0	0	
12	0	0	0	0	208	543	0	553	0	0	
13	0	0	0	0	238	528	0	541	0	0	
14	0	0	0	0	303	515	0	529	0	0	
15	0	0	0	0	395	504	0	518	0	0	
0	0	0	0	0	503	495	0	508	0	0	
1	0	0	0	0	615	489	0	501	0	0	
2	0	0	0	0	719	486	0	496	0	0	
3	0	0	0	0	803	483	0	494	0	0	
4	0	0	0	0	860	481	0	493	0	0	
5	0	0	0	0	883	480	0	494	0	0	
6	0	0	0	0	871	480	0	498	0	0	
7	0	0	0	0	824	479	0	502	0	0	
8	0	0	0	0	747	480	0	507	0	0	
9	0	0	0	0	647	480	0	513	0	0	
10	0	0	0	0	537	483	0	519	0	0	
11	0	0	0	0	427	487	0	526	0	0	
12	0	0	0	0	327	492	0	532	0	0	
13	0	0	0	0	252	498	0	537	0	0	
14	0	0	0	0	206	505	0	541	0	0	
15	0	0	0	0	197	515	0	545	0	0	
0	0	0	0	0	225	526	0	547	0	0	
1	0	0	0	0	288	537	0	548	0	0	
2	0	0	0	0	381	549	0	548	0	0	
3	0	0	0	0	494	560	0	546	0	0	
4	0	0	0	0	615	571	0	543	0	0	
5	0	0	0	0	732	578	0	539	0	0	
6	0	0	0	0	833	584	0	536	0	0	
7	0	0	0	0	911	588	0	534	0	0	
8	0	0	0	0	959	591	0	535	0	0	
9	0	0	0	0	973	594	0	539	0	0	
10	0	0	0	0	949	595	0	544	0	0	
11	0	0	0	0	889	594	0	550	0	0	
12	0	0	0	0	798	591	0	555	0	0	
13	0	0	0	0	684	586	0	559	0	0	
14	0	0	0	0	558	579	0	560	0	0	
15	0	0	0	0	430	569	0	559	0	0	
0	0	0	0	0	313	558	0	555	0	0	
1	0	0	0	0	220	545	0	548	0	0	
2	0	0	0	0	155	531	0	539	0	0	
3	0	0	0	0	125	516	0	528	0	0	
4	0	0	0	0	133	502	0	517	0	0	
5	0	0	0	0	177	488	0	506	0	0	
6	0	0	0	0	253	478	0	496	0	0	
7	0	0	0	0	354	469	0	489	0	0	
8	0	0	0	0	471	463	0	484	0	0	
9	0	0	0	0	589	462	0	484	0	0	
10	0	0	0	0	700	465	0	487	0	0	
11	0	0	0	0	791	473	0	494	0	0	
12	0	0	0	0	858	485	0	505	0	0	
13	0	0	0	0	895	501	0	519	0	0	
14	0	0	0	0	900	520	0	536	0	0	
15	0	0	0	0	875	542	0	554	0	0	
0	0	0	0	0	822	563	0	572	0	0	
1	0	0	0	0	746	583	0	588	0	0	
2	0	0	0	0	655	598	0	600	0	0	
3	0	0	0	0	557	608	0	607	0	0	
4	0	0	0	0	461	610	0	607	0	0	
5	0	0	0	0	376	605	0	601	0	0	
6	0	0	0	0	311	592	0	591	0	0	
7	0	0	0	0	273	575	0	575	0	0	
8	0	0	0	0	266	556	0	559	0	0	
9	0	0	0	0	291	537	0	541	0	0	
10	0	0	0	0	345	521	0	525	0	0	
11	0	0	0	0	425	508	0	512	0	0	
12	0	0	0	0	519	499	0	504	0	0	
13	0	0	0	0	618	497	0	500	0	0	
14	0	0	0	0	711	500	0	501	0	0	
15	0	0	0	0	789	508	0	507	0	0	
0	0	0	0	0	844	518	0	516	0	0	
1	0	0	0	0	870	528	0	527	0	0	
2	0	0	0	0	861	537	0	538	0	0	
3	0	0	0	0	817	543	0	548	0	0	
4	0	0	0	0	740	544	0	556	0	0	
5	0	0	0	0	639	542	0	562	0	0	
6	0	0	0	0	523	537	0	564	0	0	
7	0	0	0	0	402	529	0	563	0	0	
8	0	0	0	0	291	519	0	559	0	0	
9	0	0	0	0	200	508	0	552	0	0	
10	0	0	0	0	139	496	0	543	0	0	
11	0	0	0	0	112	484	0	532	0	0	
12	0	0	0	0	124	474	0	522	0	0	
13	0	0	0	0	174	463	0	512	0	0	
14	0	0	0	0	258	454	0	503	0	0	
15	0	0	0	0	368	447	0	497	0	0	
0	0	0	0	0	494	442	0	494	0	0	
1	0	0	0	0	624	444	0	495	0	0	
2	0	0	0	0	746	451	0	499	0	0	
3	0	0	0	0	849	467	0	507	0	0	
4	0	0	0	0	925	490	0	517	0	0	
5	0	0	0	0	968	516	0	528	0	0	
6	0	0	0	0	974	545	0	540	0	0	
7	0	0	0	0	941	573	0	550	0	0	
8	0	0	0	0	873	596	0	557	0	0	
9	0	0	0	0	773	612	0	561	0	0	
10	0	0	0	0	649	618	0	560	0	0	
11	0	0	0	0	512	611	0	553	0	0	
12	0	0	0	0	373	594	0	540	0	0	
13	0	0	0	0	247	566	0	524	0	0	
14	0	0	0	0	145	532	0	506	0	0	
15	0	0	0	0	76	495	0	487	0	0	
0	0	0	0	0	46	458	0	470	0	0	
1	0	0	0	0	60	426	0	456	0	0	
2	0	0	0	0	114	399	0	446	0	0	
3	0	0	0	0	204	381	0	440	0	0	
4	0	0	0	0	321	370	0	438	0	0	
5	0	0	0	0	451	368	0	438	0	0	
6	0	0	0	0	580	372	0	441	0	0	
7	0	0	0	0	696	384	0	444	0	0	
8	0	0	0	0	787	400	0	450	0	0	
9	0	0	0	0	847	421	0	457	0	0	
10	0	0	0	0	875	446	0	467	0	0	
11	0	0	0	0	867	474	0	478	0	0	
12	0	0	0	0	828	502	0	490	0	0	
13	0	0	0	0	761	528	0	503	0	0	
14	0	0	0	0	675	551	0	515	0	0	
15	0	0	0	0	580	569	0	526	0	0	
0	0	0	0	0	487	583	0	536	0	0	
1	0	0	0	0	405	592	0	545	0	0	
2	0	0	0	0	344	596	0	551	0	0	
3	0	0	0	0	311	595	0	556	0	0	
4	0	0	0	0	307	590	0	558	0	0	
5	0	0	0	0	334	581	0	557	0	0	
6	0	0	0	0	386	567	0	552	0	0	
7	0	0	0	0	456	551	0	545	0	0	
8	0	0	0	0	536	531	0	534	0	0	
9	0	0	0	0	616	512	0	521	0	0	
10	0	0	0	0	687	494	0	508	0	0	
11	0	0	0	0	740	476	0	495	0	0	
12	0	0	0	0	768	462	0	481	0	0	
13	0	0	0	0	769	448	0	468	0	0	
14	0	0	0	0	738	435	0	456	0	0	
15	0	0	0	0	678	424	0	444	0	0	
0	0	0	0	0	595	414	0	434	0	0	
1	0	0	0	0	495	406	0	426	0	0	
2	0	0	0	0	390	399	0	421	0	0	
3	0	0	0	0	289	394	0	419	0	0	
4	0	0	0	0	203	391	0	419	0	0	
5	0	0	0	0	137	388	0	421	0	0	
6	0	0	0	0	99	387	0	423	0	0	
7	0	0	0	0	92	384	0	426	0	0	
8	0	0	0	0	120	385	0	430	0	0	
9	0	0	0	0	184	390	0	435	0	0	
10	0	0	0	0	280	401	0	442	0	0	
11	0	0	0	0	402	418	0	452	0	0	
12	0	0	0	0	539	441	0	465	0	0	
13	0	0	0	0	680	470	0	480	0	0	
14	0	0	0	0	811	502	0	497	0	0	
15	0	0	0	0	920	536	0	515	0	0	
0	0	0	0	0	1002	569	0	532	0	0	
1	0	0	0	0	1021	599	0	548	0	0	
2	0	0	0	0	1021	623	0	562	0	0	
3	0	0	0	0	1000	639	0	572	0	0	
4	0	0	0	0	932	646	0	576	0	0	
5	0	0	0	0	832	643	0	575	0	0	
6	0	0	0	0	708	630	0	568	0	0	
7	0	0	0	0	575	609	0	557	0	0	
8	0	0	0	0	442	583	0	542	0	0	
9	0	0	0	0	325	555	0	526	0	0	
10	0	0	0	0	237	528	0	509	0	0	
11	0	0	0	0	184	502	0	493	0	0	
12	0	0	0	0	172	481	0	479	0	0	
13	0	0	0	0	200	465	0	467	0	0	
14	0	0	0	0	266	455	0	457	0	0	
15	0	0	0	0	364	451	0	453	0	0	
0	0	0	0	0	482	453	0	452	0	0	
1	0	0	0	0	608	461	0	457	0	0	
2	0	0	0	0	730	473	0	464	0	0	
3	0	0	0	0	833	487	0	474	0	0	
4	0	0	0	0	910	501	0	486	0	0	
5	0	0	0	0	953	513	0	498	0	0	
6	0	0	0	0	959	522	0	510	0	0	
7	0	0	0	0	925	528	0	519	0	0	
8	0	0	0	0	856	530	0	526	0	0	
9	0	0	0	0	760	529	0	530	0	0	
10	0	0	0	0	646	524	0	530	0	0	
11	0	0	0	0	524	517	0	527	0	0	
12	0	0	0	0	407	508	0	520	0	0	
13	0	0	0	0	306	496	0	511	0	0	
14	0	0	0	0	231	483	0	498	0	0	
15	0	0	0	0	189	468	0	482	0	0	
0	0	0	0	0	181	454	0	465	0	0	
1	0	0	0	0	208	439	0	448	0	0	
2	0	0	0	0	268	426	0	432	0	0	
3	0	0	0	0	353	417	0	418	0	0	
4	0	0	0	0	456	411	0	408	0	0	
5	0	0	0	0	564	411	0	404	0	0	
6	0	0	0	0	665	415	0	403	0	0	
7	0	0	0	0	750	423	0	407	0	0	
8	0	0	0	0	810	435	0	414	0	0	
9	0	0	0	0	841	449	0	426	0	0	
10	0	0	0	0	842	466	0	441	0	0	
11	0	0	0	0	811	483	0	457	0	0	
12	0	0	0	0	752	498	0	473	0	0	
13	0	0	0	0	671	510	0	487	0	0	
14	0	0	0	0	577	516	0	496	0	0	
15	0	0	0	0	479	518	0	502	0	0	
0	0	0	0	0	388	515	0	501	0	0	
1	0	0	0	0	312	507	0	497	0	0	
2	0	0	0	0	261	497	0	489	0	0	
3	0	0	0	0	236	486	0	478	0	0	
4	0	0	0	0	242	473	0	465	0	0	
5	0	0	0	0	278	460	0	451	0	0	
6	0	0	0	0	340	448	0	438	0	0	
7	0	0	0	0	422	438	0	426	0	0	
8	0	0	0	0	514	429	0	417	0	0	
9	0	0	0	0	607	423	0	412	0	0	
10	0	0	0	0	690	420	0	411	0	0	
11	0	0	0	0	754	421	0	414	0	0	
12	0	0	0	0	794	425	0	421	0	0	
13	0	0	0	0	804	430	0	431	0	0	
14	0	0	0	0	782	437	0	442	0	0	
15	0	0	0	0	729	444	0	453	0	0	
0	0	0	0	0	650	450	0	462	0	0	
1	0	0	0	0	553	455	0	469	0	0	
2	0	0	0	0	448	457	0	472	0	0	
3	0	0	0	0	345	458	0	472	0	0	
4	0	0	0	0	255	456	0	469	0	0	
5	0	0	0	0	186	452	0	462	0	0	
6	0	0	0	0	144	446	0	453	0	0	
7	0	0	0	0	134	439	0	442	0	0	
8	0	0	0	0	158	433	0	432	0	0	
9	0	0	0	0	214	428	0	422	0	0	
10	0	0	0	0	299	424	0	414	0	0	
11	0	0	0	0	406	424	0	409	0	0	
12	0	0	0	0	523	428	0	408	0	0	
13	0	0	0	0	642	434	0	412	0	0	
14	0	0	0	0	750	443	0	419	0	0	
15	0	0	0	0	836	453	0	428	0	0	
0	0	0	0	0	893	464	0	440	0	0	
1	0	0	0	0	915	473	0	451	0	0	
2	0	0	0	0	899	479	0	460	0	0	
3	0	0	0	0	844	481	0	466	0	0	
4	0	0	0	0	755	477	0	468	0	0	
5	0	0	0	0	636	465	0	463	0	0	
6	0	0	0	0	502	450	0	454	0	0	
7	0	0	0	0	361	430	0	440	0	0	
8	0	0	0	0	231	408	0	423	0	0	
9	0	0	0	0	125	388	0	407	0	0	
10	0	0	0	0	49	370	0	391	0	0	
11	0	0	0	0	14	357	0	378	0	0	
12	0	0	0	0	22	350	0	369	0	0	
13	0	0	0	0	73	349	0	364	0	0	
14	0	0	0	0	162	353	0	362	0	0	
15	0	0	0	0	281	362	0	364	0	0	
0	0	0	0	0	419	374	0	370	0	0	
1	0	0	0	0	559	387	0	377	0	0	
2	0	0	0	0	688	399	0	385	0	0	
3	0	0	0	0	793	410	0	393	0	0	
4	0	0	0	0	865	420	0	401	0	0	
5	0	0	0	0	900	428	0	409	0	0	
6	0	0	0	0	894	434	0	417	0	0	
7	0	0	0	0	849	438	0	424	0	0	
8	0	0	0	0	768	441	0	431	0	0	
9	0	0	0	0	660	443	0	437	0	0	
10	0	0	0	0	538	444	0	441	0	0	
11	0	0	0	0	412	446	0	443	0	0	
12	0	0	0	0	297	447	0	443	0	0	
13	0	0	0	0	205	449	0	440	0	0	
14	0	0	0	0	143	451	0	435	0	0	
15	0	0	0	0	119	454	0	429	0	0	
0	0	0	0	0	134	459	0	422	0	0	
1	0	0	0	0	189	464	0	415	0	0	
2	0	0	0	0	279	471	0	410	0	0	
3	0	0	0	0	396	479	0	407	0	0	
4	0	0	0	0	527	487	0	405	0	0	
5	0	0	0	0	659	494	0	406	0	0	
6	0	0	0	0	777	498	0	407	0	0	
7	0	0	0	0	870	499	0	409	0	0	
8	0	0	0	0	929	496	0	412	0	0	
9	0	0	0	0	950	490	0	416	0	0	
10	0	0	0	0	929	481	0	419	0	0	
11	0	0	0	0	868	469	0	422	0	0	
12	0	0	0	0	772	454	0	423	0	0	
13	0	0	0	0	649	435	0	423	0	0	
14	0	0	0	0	511	416	0	422	0	0	
15	0	0	0	0	369	398	0	419	0	0	
0	0	0	0	0	240	383	0	415	0	0	
1	0	0	0	0	133	370	0	411	0	0	
2	0	0	0	0	59	361	0	407	0	0	
3	0	0	0	0	22	356	0	403	0	0	
4	0	0	0	0	27	355	0	400	0	0	
5	0	0	0	0	72	358	0	397	0	0	
6	0	0	0	0	154	363	0	394	0	0	
7	0	0	0	0	263	370	0	391	0	0	
8	0	0	0	0	390	379	0	388	0	0	
9	0	0	0	0	522	389	0	387	0	0	
10	0	0	0	0	649	402	0	389	0	0	
11	0	0	0	0	759	419	0	394	0	0	
12	0	0	0	0	843	438	0	404	0	0	
13	0	0	0	0	896	460	0	417	0	0	
14	0	0	0	0	915	483	0	433	0	0	
15	0	0	0	0	898	506	0	451	0	0	
0	0	0	0	0	847	526	0	469	0	0	
1	0	0	0	0	766	541	0	483	0	0	
2	0	0	0	0	663	551	0	495	0	0	
3	0	0	0	0	550	554	0	502	0	0	
4	0	0	0	0	438	553	0	504	0	0	
5	0	0	0	0	339	548	0	502	0	0	
6	0	0	0	0	265	540	0	496	0	0	
7	0	0	0	0	222	530	0	486	0	0	
8	0	0	0	0	212	518	0	475	0	0	
9	0	0	0	0	235	506	0	461	0	0	
10	0	0	0	0	288	493	0	448	0	0	
11	0	0	0	0	365	481	0	434	0	0	
12	0	0	0	0	457	471	0	423	0	0	
13	0	0	0	0	554	462	0	415	0	0	
14	0	0	0	0	645	457	0	409	0	0	
15	0	0	0	0	720	455	0	408	0	0	
0	0	0	0	0	772	455	0	411	0	0	
1	0	0	0	0	797	457	0	418	0	0	
2	0	0	0	0	792	462	0	427	0	0	
3	0	0	0	0	755	467	0	438	0	0	
4	0	0	0	0	694	473	0	450	0	0	
5	0	0	0	0	611	478	0	462	0	0	
6	0	0	0	0	517	481	0	473	0	0	
7	0	0	0	0	422	483	0	482	0	0	
8	0	0	0	0	334	483	0	487	0	0	
9	0	0	0	0	263	480	0	489	0	0	
10	0	0	0	0	215	474	0	488	0	0	
11	0	0	0	0	197	467	0	483	0	0	
12	0	0	0	0	210	459	0	475	0	0	
13	0	0	0	0	254	452	0	465	0	0	
14	0	0	0	0	328	447	0	456	0	0	
15	0	0	0	0	424	446	0	449	0	0	
0	0	0	0	0	535	449	0	445	0	0	
1	0	0	0	0	648	456	0	445	0	0	
2	0	0	0	0	752	466	0	447	0	0	
3	0	0	0	0	836	477	0	452	0	0	
4	0	0	0	0	893	487	0	458	0	0	
5	0	0	0	0	918	496	0	465	0	0	
6	0	0	0	0	905	503	0	473	0	0	
7	0	0	0	0	858	508	0	480	0	0	
8	0	0	0	0	780	511	0	487	0	0	
9	0	0	0	0	681	512	0	493	0	0	
10	0	0	0	0	569	512	0	498	0	0	
11	0	0	0	0	455	511	0	502	0	0	
12	0	0	0	0	348	508	0	504	0	0	
13	0	0	0	0	260	504	0	505	0	0	
14	0	0	0	0	199	498	0	504	0	0	
15	0	0	0	0	169	492	0	501	0	0	
0	0	0	0	0	172	487	0	498	0	0	
1	0	0	0	0	210	482	0	494	0	0	
2	0	0	0	0	279	478	0	488	0	0	
3	0	0	0	0	371	476	0	484	0	0	
4	0	0	0	0	479	476	0	480	0	0	
5	0	0	0	0	590	480	0	477	0	0	
6	0	0	0	0	694	486	0	475	0	0	
7	0	0	0	0	780	494	0	475	0	0	
8	0	0	0	0	843	504	0	476	0	0	
9	0	0	0	0	878	515	0	479	0	0	
10	0	0	0	0	881	527	0	484	0	0	
11	0	0	0	0	854	540	0	492	0	0	
12	0	0	0	0	800	552	0	500	0	0	
13	0	0	0	0	724	562	0	508	0	0	
14	0	0	0	0	635	570	0	515	0	0	
15	0	0	0	0	542	574	0	521	0	0	
0	0	0	0	0	453	573	0	523	0	0	
1	0	0	0	0	378	568	0	521	0	0	
2	0	0	0	0	326	558	0	516	0	0	
3	0	0	0	0	298	544	0	506	0	0	
4	0	0	0	0	299	526	0	493	0	0	
5	0	0	0	0	327	503	0	477	0	0	
6	0	0	0	0	379	479	0	459	0	0	
7	0	0	0	0	448	452	0	440	0	0	
8	0	0	0	0	525	425	0	422	0	0	
9	0	0	0	0	602	400	0	406	0	0	
10	0	0	0	0	672	380	0	393	0	0	
11	0	0	0	0	728	368	0	388	0	0	
12	0	0	0	0	768	364	0	389	0	0	
13	0	0	0	0	785	369	0	396	0	0	
14	0	0	0	0	779	384	0	410	0	0	
15	0	0	0	0	749	404	0	428	0	0	
0	0	0	0	0	697	428	0	447	0	0	
1	0	0	0	0	627	451	0	467	0	0	
2	0	0	0	0	546	473	0	484	0	0	
3	0	0	0	0	462	491	0	499	0	0	
4	0	0	0	0	382	503	0	508	0	0	
5	0	0	0	0	316	510	0	514	0	0	
6	0	0	0	0	273	513	0	516	0	0	
7	0	0	0	0	258	514	0	515	0	0	
8	0	0	0	0	275	515	0	512	0	0	
9	0	0	0	0	324	516	0	509	0	0	
10	0	0	0	0	402	518	0	505	0	0	
11	0	0	0	0	500	519	0	500	0	0	
12	0	0	0	0	608	521	0	496	0	0	
13	0	0	0	0	715	523	0	492	0	0	
14	0	0	0	0	810	524	0	487	0	0	
15	0	0	0	0	885	524	0	483	0	0	
0	0	0	0	0	934	523	0	480	0	0	
1	0	0	0	0	951	523	0	479	0	0	
2	0	0	0	0	936	522	0	479	0	0	
3	0	0	0	0	889	523	0	481	0	0	
4	0	0	0	0	815	523	0	485	0	0	
5	0	0	0	0	719	524	0	489	0	0	
6	0	0	0	0	613	524	0	494	0	0	
7	0	0	0	0	504	523	0	499	0	0	
8	0	0	0	0	404	521	0	503	0	0	
9	0	0	0	0	322	519	0	506	0	0	
10	0	0	0	0	266	515	0	507	0	0	
11	0	0	0	0	241	510	0	507	0	0	
12	0	0	0	0	251	507	0	506	0	0	
13	0	0	0	0	295	506	0	504	0	0	
14	0	0	0	0	372	508	0	502	0	0	
15	0	0	0	0	472	512	0	499	0	0	
0	0	0	0	0	586	519	0	497	0	0	
1	0	0	0	0	702	527	0	496	0	0	
2	0	0	0	0	809	535	0	495	0	0	
3	0	0	0	0	898	544	0	494	0	0	
4	0	0	0	0	960	551	0	495	0	0	
5	0	0	0	0	989	554	0	495	0	0	
6	0	0	0	0	979	553	0	496	0	0	
7	0	0	0	0	931	548	0	495	0	0	
8	0	0	0	0	850	539	0	494	0	0	
9	0	0	0	0	741	527	0	492	0	0	
10	0	0	0	0	617	513	0	491	0	0	
11	0	0	0	0	489	500	0	488	0	0	
12	0	0	0	0	368	487	0	485	0	0	
13	0	0	0	0	266	476	0	480	0	0	
14	0	0	0	0	192	464	0	474	0	0	
15	0	0	0	0	151	452	0	466	0	0	
0	0	0	0	0	145	441	0	456	0	0	
1	0	0	0	0	175	431	0	446	0	0	
2	0	0	0	0	236	422	0	436	0	0	
3	0	0	0	0	324	417	0	426	0	0	
4	0	0	0	0	431	415	0	419	0	0	
5	0	0	0	0	545	418	0	416	0	0	
6	0	0	0	0	655	426	0	417	0	0	
7	0	0	0	0	750	437	0	422	0	0	
8	0	0	0	0	819	450	0	428	0	0	
9	0	0	0	0	858	463	0	435	0	0	
10	0	0	0	0	860	473	0	444	0	0	
11	0	0	0	0	826	481	0	452	0	0	
12	0	0	0	0	758	487	0	459	0	0	
13	0	0	0	0	664	489	0	465	0	0	
14	0	0	0	0	552	489	0	470	0	0	
15	0	0	0	0	436	486	0	473	0	0	
0	0	0	0	0	327	482	0	474	0	0	
1	0	0	0	0	235	477	0	473	0	0	
2	0	0	0	0	172	473	0	471	0	0	
3	0	0	0	0	143	470	0	468	0	0	
4	0	0	0	0	152	468	0	466	0	0	
5	0	0	0	0	198	470	0	464	0	0	
6	0	0	0	0	279	473	0	462	0	0	
7	0	0	0	0	387	480	0	462	0	0	
8	0	0	0	0	512	488	0	463	0	0	
9	0	0	0	0	641	499	0	467	0	0	
10	0	0	0	0	762	510	0	473	0	0	
11	0	0	0	0	863	520	0	479	0	0	
12	0	0	0	0	934	528	0	486	0	0	
13	0	0	0	0	971	534	0	494	0	0	
14	0	0	0	0	968	537	0	502	0	0	
15	0	0	0	0	928	538	0	510	0	0	
0	0	0	0	0	854	537	0	519	0	0	
1	0	0	0	0	752	534	0	526	0	0	
2	0	0	0	0	633	529	0	531	0	0	
3	0	0	0	0	509	523	0	534	0	0	
4	0	0	0	0	389	514	0	533	0	0	
5	0	0	0	0	285	504	0	527	0	0	
6	0	0	0	0	206	491	0	516	0	0	
7	0	0	0	0	159	477	0	502	0	0	
8	0	0	0	0	147	462	0	484	0	0	
9	0	0	0	0	172	448	0	464	0	0	
10	0	0	0	0	230	435	0	445	0	0	
11	0	0	0	0	316	425	0	428	0	0	
12	0	0	0	0	423	421	0	414	0	0	
13	0	0	0	0	538	420	0	406	0	0	
14	0	0	0	0	649	425	0	402	0	0	
15	0	0	0	0	745	433	0	403	0	0	
0	0	0	0	0	817	444	0	408	0	0	
1	0	0	0	0	859	456	0	416	0	0	
2	0	0	0	0	868	470	0	426	0	0	
3	0	0	0	0	843	483	0	438	0	0	
4	0	0	0	0	786	494	0	448	0	0	
5	0	0	0	0	704	503	0	458	0	0	
6	0	0	0	0	606	508	0	466	0	0	
7	0	0	0	0	503	510	0	472	0	0	
8	0	0	0	0	404	509	0	476	0	0	
9	0	0	0	0	320	505	0	477	0	0	
10	0	0	0	0	261	498	0	476	0	0	
11	0	0	0	0	233	491	0	474	0	0	
12	0	0	0	0	238	483	0	471	0	0	
13	0	0	0	0	279	475	0	468	0	0	
14	0	0	0	0	350	470	0	466	0	0	
15	0	0	0	0	447	467	0	465	0	0	
0	0	0	0	0	558	466	0	466	0	0	
1	0	0	0	0	672	467	0	468	0	0	
2	0	0	0	0	777	471	0	471	0	0	
3	0	0	0	0	864	475	0	474	0	0	
4	0	0	0	0	924	480	0	478	0	0	
5	0	0	0	0	952	484	0	480	0	0	
6	0	0	0	0	943	487	0	483	0	0	
7	0	0	0	0	900	489	0	484	0	0	
8	0	0	0	0	825	492	0	486	0	0	
9	0	0	0	0	728	494	0	488	0	0	
10	0	0	0	0	617	496	0	492	0	0	
11	0	0	0	0	504	499	0	495	0	0	
12	0	0	0	0	401	503	0	497	0	0	
13	0	0	0	0	318	506	0	499	0	0	
14	0	0	0	0	265	509	0	499	0	0	
15	0	0	0	0	247	511	0	498	0	0	
0	0	0	0	0	264	511	0	495	0	0	
1	0	0	0	0	317	510	0	489	0	0	
2	0	0	0	0	400	509	0	483	0	0	
3	0	0	0	0	506	508	0	477	0	0	
4	0	0	0	0	623	508	0	471	0	0	
5	0	0	0	0	739	508	0	466	0	0	
6	0	0	0	0	843	508	0	462	0	0	
7	0	0	0	0	923	508	0	460	0	0	
8	0	0	0	0	974	508	0	460	0	0	
9	0	0	0	0	986	505	0	461	0	0	
10	0	0	0	0	958	502	0	463	0	0	
11	0	0	0	0	891	497	0	465	0	0	
12	0	0	0	0	790	492	0	467	0	0	
13	0	0	0	0	666	486	0	469	0	0	
14	0	0	0	0	530	481	0	472	0	0	
15	0	0	0	0	394	478	0	473	0	0	
0	0	0	0	0	275	477	0	475	0	0	
1	0	0	0	0	182	478	0	477	0	0	
2	0	0	0	0	125	482	0	478	0	0	
3	0	0	0	0	110	486	0	478	0	0	
4	0	0	0	0	137	491	0	478	0	0	
5	0	0	0	0	204	496	0	477	0	0	
6	0	0	0	0	305	501	0	475	0	0	
7	0	0	0	0	433	508	0	474	0	0	
8	0	0	0	0	575	515	0	474	0	0	
9	0	0	0	0	719	524	0	475	0	0	
10	0	0	0	0	852	534	0	478	0	0	
11	0	0	0	0	963	545	0	481	0	0	
12	0	0	0	0	1021	556	0	486	0	0	
13	0	0	0	0	1021	566	0	492	0	0	
14	0	0	0	0	1021	574	0	499	0	0	
15	0	0	0	0	1007	579	0	505	0	0	
0	0	0	0	0	943	579	0	511	0	0	
1	0	0	0	0	847	574	0	514	0	0	
2	0	0	0	0	727	563	0	515	0	0	
3	0	0	0	0	592	547	0	512	0	0	
4	0	0	0	0	457	526	0	507	0	0	
5	0	0	0	0	332	502	0	497	0	0	
6	0	0	0	0	230	475	0	485	0	0	
7	0	0	0	0	161	448	0	472	0	0	
8	0	0	0	0	130	423	0	456	0	0	
9	0	0	0	0	140	403	0	442	0	0	
10	0	0	0	0	190	387	0	428	0	0	
11	0	0	0	0	274	376	0	415	0	0	
12	0	0	0	0	385	370	0	405	0	0	
13	0	0	0	0	510	372	0	400	0	0	
14	0	0	0	0	637	381	0	399	0	0	
15	0	0	0	0	754	396	0	403	0	0	
0	0	0	0	0	850	416	0	413	0	0	
1	0	0	0	0	918	439	0	426	0	0	
2	0	0	0	0	952	462	0	442	0	0	
3	0	0	0	0	950	485	0	458	0	0	
4	0	0	0	0	913	505	0	472	0	0	
5	0	0	0	0	844	522	0	485	0	0	
6	0	0	0	0	751	534	0	495	0	0	
7	0	0	0	0	646	542	0	501	0	0	
8	0	0	0	0	537	544	0	504	0	0	
9	0	0	0	0	438	542	0	503	0	0	
10	0	0	0	0	357	536	0	499	0	0	
11	0	0	0	0	302	525	0	491	0	0	
12	0	0	0	0	279	512	0	482	0	0	
13	0	0	0	0	288	496	0	471	0	0	
14	0	0	0	0	331	483	0	461	0	0	
15	0	0	0	0	401	471	0	453	0	0	
0	0	0	0	0	492	463	0	448	0	0	
1	0	0	0	0	593	459	0	447	0	0	
2	0	0	0	0	692	459	0	449	0	0	
3	0	0	0	0	779	463	0	453	0	0	
4	0	0	0	0	846	469	0	460	0	0	
5	0	0	0	0	887	476	0	468	0	0	
6	0	0	0	0	896	484	0	476	0	0	
7	0	0	0	0	871	490	0	482	0	0	
8	0	0	0	0	812	492	0	484	0	0	
9	0	0	0	0	725	488	0	483	0	0	
10	0	0	0	0	617	480	0	476	0	0	
11	0	0	0	0	499	467	0	467	0	0	
12	0	0	0	0	381	451	0	456	0	0	
13	0	0	0	0	278	435	0	444	0	0	
14	0	0	0	0	199	419	0	433	0	0	
15	0	0	0	0	154	407	0	425	0	0	
0	0	0	0	0	146	400	0	420	0	0	
1	0	0	0	0	177	398	0	417	0	0	
2	0	0	0	0	245	401	0	418	0	0	
3	0	0	0	0	344	411	0	423	0	0	
4	0	0	0	0	465	425	0	431	0	0	
5	0	0	0	0	595	444	0	441	0	0	
6	0	0	0	0	720	465	0	453	0	0	
7	0	0	0	0	828	485	0	465	0	0	
8	0	0	0	0	907	503	0	476	0	0	
9	0	0	0	0	950	516	0	486	0	0	
10	0	0	0	0	953	525	0	494	0	0	
11	0	0	0	0	913	527	0	498	0	0	
12	0	0	0	0	835	523	0	499	0	0	
13	0	0	0	0	726	515	0	499	0	0	
14	0	0	0	0	597	504	0	496	0	0	
15	0	0	0	0	463	492	0	492	0	0	
0	0	0	0	0	336	480	0	487	0	0	
1	0	0	0	0	231	470	0	481	0	0	
2	0	0	0	0	159	460	0	475	0	0	
3	0	0	0	0	124	454	0	468	0	0	
4	0	0	0	0	131	450	0	461	0	0	
5	0	0	0	0	182	449	0	455	0	0	
6	0	0	0	0	272	452	0	449	0	0	
7	0	0	0	0	394	460	0	445	0	0	
8	0	0	0	0	537	472	0	444	0	0	
9	0	0	0	0	687	487	0	446	0	0	
10	0	0	0	0	828	504	0	450	0	0	
11	0	0	0	0	950	523	0	455	0	0	
12	0	0	0	0	1021	540	0	463	0	0	
13	0	0	0	0	1021	553	0	471	0	0	
14	0	0	0	0	1021	562	0	479	0	0	
15	0	0	0	0	1008	566	0	485	0	0	
0	0	0	0	0	942	564	0	489	0	0	
1	0	0	0	0	843	557	0	492	0	0	
2	0	0	0	0	721	547	0	495	0	0	
3	0	0	0	0	587	535	0	495	0	0	
4	0	0	0	0	454	520	0	493	0	0	
5	0	0	0	0	333	505	0	489	0	0	
6	0	0	0	0	238	490	0	484	0	0	
7	0	0	0	0	177	477	0	478	0	0	
8	0	0	0	0	155	467	0	471	0	0	
9	0	0	0	0	173	460	0	462	0	0	
10	0	0	0	0	230	455	0	454	0	0	
11	0	0	0	0	316	452	0	445	0	0	
12	0	0	0	0	424	449	0	436	0	0	
13	0	0	0	0	538	445	0	427	0	0	
14	0	0	0	0	646	440	0	418	0	0	
15	0	0	0	0	737	435	0	410	0	0	
0	0	0	0	0	803	432	0	406	0	0	
1	0	0	0	0	840	430	0	407	0	0	
2	0	0	0	0	847	432	0	413	0	0	
3	0	0	0	0	823	437	0	423	0	0	
4	0	0	0	0	772	446	0	437	0	0	
5	0	0	0	0	700	457	0	452	0	0	
6	0	0	0	0	615	467	0	467	0	0	
7	0	0	0	0	523	476	0	480	0	0	
8	0	0	0	0	435	481	0	487	0	0	
9	0	0	0	0	358	482	0	490	0	0	
10	0	0	0	0	301	479	0	487	0	0	
11	0	0	0	0	270	472	0	481	0	0	
12	0	0	0	0	267	463	0	472	0	0	
13	0	0	0	0	292	452	0	459	0	0	
14	0	0	0	0	346	443	0	447	0	0	
15	0	0	0	0	422	436	0	435	0	0	
0	0	0	0	0	513	432	0	426	0	0	
1	0	0	0	0	610	432	0	420	0	0	
2	0	0	0	0	703	436	0	417	0	0	
3	0	0	0	0	782	444	0	418	0	0	
4	0	0	0	0	841	454	0	422	0	0	
5	0	0	0	0	876	464	0	430	0	0	
6	0	0	0	0	880	476	0	439	0	0	
7	0	0	0	0	855	486	0	450	0	0	
8	0	0	0	0	803	495	0	460	0	0	
9	0	0	0	0	727	500	0	469	0	0	
10	0	0	0	0	636	502	0	475	0	0	
11	0	0	0	0	538	500	0	478	0	0	
12	0	0	0	0	445	495	0	476	0	0	
13	0	0	0	0	367	487	0	473	0	0	
14	0	0	0	0	310	478	0	467	0	0	
15	0	0	0	0	281	468	0	458	0	0	
0	0	0	0	0	284	458	0	449	0	0	
1	0	0	0	0	316	448	0	439	0	0	
2	0	0	0	0	375	439	0	428	0	0	
3	0	0	0	0	453	431	0	419	0	0	
4	0	0	0	0	543	425	0	412	0	0	
5	0	0	0	0	635	423	0	407	0	0	
6	0	0	0	0	720	425	0	407	0	0	
7	0	0	0	0	792	433	0	412	0	0	
8	0	0	0	0	845	447	0	423	0	0	
9	0	0	0	0	873	465	0	438	0	0	
10	0	0	0	0	875	486	0	457	0	0	
11	0	0	0	0	847	507	0	476	0	0	
12	0	0	0	0	792	524	0	494	0	0	
13	0	0	0	0	713	537	0	509	0	0	
14	0	0	0	0	620	543	0	521	0	0	
15	0	0	0	0	520	545	0	529	0	0	
0	0	0	0	0	425	542	0	532	0	0	
1	0	0	0	0	344	535	0	531	0	0	
2	0	0	0	0	285	524	0	524	0	0	
3	0	0	0	0	253	509	0	513	0	0	
4	0	0	0	0	250	493	0	499	0	0	
5	0	0	0	0	276	476	0	480	0	0	
6	0	0	0	0	329	459	0	460	0	0	
7	0	0	0	0	405	444	0	441	0	0	
8	0	0	0	0	495	433	0	423	0	0	
9	0	0	0	0	589	426	0	408	0	0	
10	0	0	0	0	681	425	0	399	0	0	
11	0	0	0	0	759	429	0	395	0	0	
12	0	0	0	0	818	439	0	396	0	0	
13	0	0	0	0	854	453	0	404	0	0	
14	0	0	0	0	864	472	0	417	0	0	
15	0	0	0	0	847	493	0	435	0	0	
0	0	0	0	0	805	515	0	455	0	0	
1	0	0	0	0	743	536	0	477	0	0	
2	0	0	0	0	668	554	0	497	0	0	
3	0	0	0	0	584	565	0	513	0	0	
4	0	0	0	0	499	568	0	524	0	0	
5	0	0	0	0	420	561	0	527	0	0	
6	0	0	0	0	355	545	0	524	0	0	
7	0	0	0	0	311	522	0	515	0	0	
8	0	0	0	0	290	495	0	500	0	0	
9	0	0	0	0	295	465	0	482	0	0	
10	0	0	0	0	326	435	0	462	0	0	
11	0	0	0	0	378	407	0	441	0	0	
12	0	0	0	0	444	382	0	420	0	0	
13	0	0	0	0	517	361	0	402	0	0	
14	0	0	0	0	588	345	0	386	0	0	
15	0	0	0	0	650	336	0	374	0	0	
0	0	0	0	0	698	334	0	367	0	0	
1	0	0	0	0	726	337	0	366	0	0	
2	0	0	0	0	731	347	0	370	0	0	
3	0	0	0	0	713	362	0	380	0	0	
4	0	0	0	0	673	381	0	393	0	0	
5	0	0	0	0	618	401	0	411	0	0	
6	0	0	0	0	553	422	0	430	0	0	
7	0	0	0	0	486	443	0	449	0	0	
8	0	0	0	0	424	460	0	467	0	0	
9	0	0	0	0	376	476	0	484	0	0	
10	0	0	0	0	346	488	0	498	0	0	
11	0	0	0	0	339	499	0	509	0	0	
12	0	0	0	0	356	506	0	516	0	0	
13	0	0	0	0	396	509	0	519	0	0	
14	0	0	0	0	454	508	0	517	0	0	
15	0	0	0	0	523	505	0	512	0	0	
0	0	0	0	0	598	499	0	504	0	0	
1	0	0	0	0	670	493	0	495	0	0	
2	0	0	0	0	735	488	0	486	0	0	
3	0	0	0	0	785	485	0	478	0	0	
4	0	0	0	0	817	484	0	472	0	0	
5	0	0	0	0	824	485	0	467	0	0	
6	0	0	0	0	804	487	0	465	0	0	
7	0	0	0	0	757	490	0	464	0	0	
8	0	0	0	0	686	491	0	463	0	0	
9	0	0	0	0	597	492	0	463	0	0	
10	0	0	0	0	497	491	0	464	0	0	
11	0	0	0	0	396	489	0	465	0	0	
12	0	0	0	0	303	486	0	465	0	0	
13	0	0	0	0	229	482	0	464	0	0	
14	0	0	0	0	179	477	0	463	0	0	
15	0	0	0	0	159	472	0	461	0	0	
0	0	0	0	0	172	467	0	458	0	0	
1	0	0	0	0	217	463	0	455	0	0	
2	0	0	0	0	294	462	0	453	0	0	
3	0	0	0	0	395	463	0	453	0	0	
4	0	0	0	0	511	465	0	453	0	0	
5	0	0	0	0	630	470	0	454	0	0	
6	0	0	0	0	738	472	0	455	0	0	
7	0	0	0	0	825	473	0	454	0	0	
8	0	0	0	0	881	470	0	452	0	0	
9	0	0	0	0	902	462	0	448	0	0	
10	0	0	0	0	883	452	0	443	0	0	
11	0	0	0	0	828	441	0	439	0	0	
12	0	0	0	0	742	432	0	438	0	0	
13	0	0	0	0	635	427	0	439	0	0	
14	0	0	0	0	519	426	0	444	0	0	
15	0	0	0	0	405	429	0	450	0	0	
0	0	0	0	0	304	435	0	457	0	0	
1	0	0	0	0	225	443	0	463	0	0	
2	0	0	0	0	176	452	0	468	0	0	
3	0	0	0	0	160	461	0	471	0	0	
4	0	0	0	0	179	468	0	471	0	0	
5	0	0	0	0	230	473	0	468	0	0	
6	0	0	0	0	308	476	0	463	0	0	
7	0	0	0	0	406	476	0	456	0	0	
8	0	0	0	0	514	473	0	449	0	0	
9	0	0	0	0	623	470	0	442	0	0	
10	0	0	0	0	723	468	0	438	0	0	
11	0	0	0	0	807	470	0	436	0	0	
12	0	0	0	0	868	474	0	438	0	0	
13	0	0	0	0	903	480	0	442	0	0	
14	0	0	0	0	906	489	0	449	0	0	
15	0	0	0	0	879	500	0	459	0	0	
0	0	0	0	0	824	511	0	470	0	0	
1	0	0	0	0	747	521	0	481	0	0	
2	0	0	0	0	654	531	0	492	0	0	
3	0	0	0	0	553	537	0	500	0	0	
4	0	0	0	0	454	539	0	505	0	0	
5	0	0	0	0	366	537	0	506	0	0	
6	0	0	0	0	297	530	0	503	0	0	
7	0	0	0	0	254	519	0	496	0	0	
8	0	0	0	0	239	504	0	484	0	0	
9	0	0	0	0	255	487	0	471	0	0	
10	0	0	0	0	300	471	0	456	0	0	
11	0	0	0	0	370	456	0	442	0	0	
12	0	0	0	0	459	445	0	431	0	0	
13	0	0	0	0	556	438	0	423	0	0	
14	0	0	0	0	652	436	0	420	0	0	
15	0	0	0	0	736	438	0	421	0	0	
0	0	0	0	0	801	443	0	426	0	0	
1	0	0	0	0	840	450	0	432	0	0	
2	0	0	0	0	848	458	0	440	0	0	
3	0	0	0	0	825	465	0	448	0	0	
4	0	0	0	0	771	469	0	455	0	0	
5	0	0	0	0	693	470	0	460	0	0	
6	0	0	0	0	598	468	0	463	0	0	
7	0	0	0	0	496	464	0	464	0	0	
8	0	0	0	0	399	460	0	463	0	0	
9	0	0	0	0	319	455	0	463	0	0	
10	0	0	0	0	265	454	0	462	0	0	
11	0	0	0	0	243	455	0	461	0	0	
12	0	0	0	0	255	458	0	461	0	0	
13	0	0	0	0	300	464	0	460	0	0	
14	0	0	0	0	376	471	0	460	0	0	
15	0	0	0	0	473	478	0	460	0	0	
0	0	0	0	0	583	485	0	460	0	0	
1	0	0	0	0	694	492	0	462	0	0	
2	0	0	0	0	795	497	0	465	0	0	
3	0	0	0	0	877	500	0	469	0	0	
4	0	0	0	0	932	501	0	475	0	0	
5	0	0	0	0	956	499	0	481	0	0	
6	0	0	0	0	944	494	0	489	0	0	
7	0	0	0	0	899	487	0	497	0	0	
8	0	0	0	0	824	477	0	505	0	0	
9	0	0	0	0	726	465	0	513	0	0	
10	0	0	0	0	615	453	0	519	0	0	
11	0	0	0	0	501	441	0	524	0	0	
12	0	0	0	0	395	430	0	524	0	0	
13	0	0	0	0	307	420	0	522	0	0	
14	0	0	0	0	245	414	0	515	0	0	
15	0	0	0	0	215	412	0	505	0	0	
0	0	0	0	0	219	412	0	491	0	0	
1	0	0	0	0	255	415	0	474	0	0	
2	0	0	0	0	321	420	0	455	0	0	
3	0	0	0	0	410	425	0	436	0	0	
4	0	0	0	0	512	430	0	417	0	0	
5	0	0	0	0	616	434	0	401	0	0	
6	0	0	0	0	713	439	0	390	0	0	
7	0	0	0	0	793	445	0	383	0	0	
8	0	0	0	0	851	450	0	382	0	0	
9	0	0	0	0	882	456	0	387	0	0	
10	0	0	0	0	882	463	0	398	0	0	
11	0	0	0	0	852	470	0	413	0	0	
12	0	0	0	0	796	479	0	432	0	0	
13	0	0	0	0	717	487	0	452	0	0	
14	0	0	0	0	625	495	0	473	0	0	
15	0	0	0	0	528	500	0	491	0	0	
0	0	0	0	0	434	503	0	504	0	0	
1	0	0	0	0	351	501	0	513	0	0	
2	0	0	0	0	290	497	0	516	0	0	
3	0	0	0	0	255	489	0	514	0	0	
4	0	0	0	0	250	480	0	508	0	0	
5	0	0	0	0	275	470	0	500	0	0	
6	0	0	0	0	327	459	0	488	0	0	
7	0	0	0	0	403	448	0	476	0	0	
8	0	0	0	0	491	440	0	465	0	0	
9	0	0	0	0	584	432	0	455	0	0	
10	0	0	0	0	671	428	0	447	0	0	
11	0	0	0	0	743	425	0	441	0	0	
12	0	0	0	0	795	426	0	439	0	0	
13	0	0	0	0	820	428	0	439	0	0	
14	0	0	0	0	815	431	0	440	0	0	
15	0	0	0	0	779	434	0	443	0	0	
0	0	0	0	0	713	435	0	445	0	0	
1	0	0	0	0	626	434	0	447	0	0	
2	0	0	0	0	524	431	0	449	0	0	
3	0	0	0	0	418	427	0	450	0	0	
4	0	0	0	0	319	423	0	451	0	0	
5	0	0	0	0	241	420	0	453	0	0	
6	0	0	0	0	192	421	0	456	0	0	
7	0	0	0	0	176	424	0	461	0	0	
8	0	0	0	0	197	432	0	468	0	0	
9	0	0	0	0	255	442	0	475	0	0	
10	0	0	0	0	344	454	0	482	0	0	
11	0	0	0	0	455	466	0	488	0	0	
12	0	0	0	0	575	477	0	492	0	0	
13	0	0	0	0	692	484	0	492	0	0	
14	0	0	0	0	794	487	0	489	0	0	
15	0	0	0	0	870	486	0	482	0	0	
0	0	0	0	0	914	480	0	474	0	0	
1	0	0	0	0	922	472	0	465	0	0	
2	0	0	0	0	891	463	0	456	0	0	
3	0	0	0	0	825	453	0	449	0	0	
4	0	0	0	0	730	445	0	444	0	0	
5	0	0	0	0	615	440	0	441	0	0	
6	0	0	0	0	491	436	0	440	0	0	
7	0	0	0	0	368	435	0	441	0	0	
8	0	0	0	0	259	436	0	443	0	0	
9	0	0	0	0	175	438	0	446	0	0	
10	0	0	0	0	119	441	0	448	0	0	
11	0	0	0	0	99	443	0	450	0	0	
12	0	0	0	0	115	445	0	451	0	0	
13	0	0	0	0	167	446	0	452	0	0	
14	0	0	0	0	251	448	0	452	0	0	
15	0	0	0	0	360	449	0	452	0	0	
0	0	0	0	0	486	451	0	454	0	0	
1	0	0	0	0	615	455	0	457	0	0	
2	0	0	0	0	736	461	0	462	0	0	
3	0	0	0	0	838	467	0	468	0	0	
4	0	0	0	0	912	472	0	475	0	0	
5	0	0	0	0	952	478	0	481	0	0	
6	0	0	0	0	953	481	0	487	0	0	
7	0	0	0	0	915	482	0	491	0	0	
8	0	0	0	0	839	481	0	493	0	0	
9	0	0	0	0	734	478	0	493	0	0	
10	0	0	0	0	609	474	0	492	0	0	
11	0	0	0	0	477	468	0	488	0	0	
12	0	0	0	0	349	461	0	482	0	0	
13	0	0	0	0	238	453	0	476	0	0	
14	0	0	0	0	156	445	0	468	0	0	
15	0	0	0	0	108	438	0	462	0	0	
0	0	0	0	0	101	433	0	458	0	0	
1	0	0	0	0	135	431	0	455	0	0	
2	0	0	0	0	207	432	0	455	0	0	
3	0	0	0	0	310	433	0	455	0	0	
4	0	0	0	0	433	435	0	456	0	0	
5	0	0	0	0	563	437	0	457	0	0	
6	0	0	0	0	685	438	0	456	0	0	
7	0	0	0	0	787	436	0	455	0	0	
8	0	0	0	0	861	433	0	453	0	0	
9	0	0	0	0	900	428	0	451	0	0	
10	0	0	0	0	902	425	0	449	0	0	
11	0	0	0	0	867	423	0	448	0	0	
12	0	0	0	0	796	423	0	448	0	0	
13	0	0	0	0	699	423	0	448	0	0	
14	0	0	0	0	584	426	0	448	0	0	
15	0	0	0	0	463	430	0	449	0	0	
0	0	0	0	0	348	434	0	450	0	0	
1	0	0	0	0	253	440	0	452	0	0	
2	0	0	0	0	186	449	0	456	0	0	
3	0	0	0	0	157	460	0	463	0	0	
4	0	0	0	0	170	477	0	472	0	0	
5	0	0	0	0	227	497	0	484	0	0	
6	0	0	0	0	323	520	0	498	0	0	
7	0	0	0	0	451	544	0	512	0	0	
8	0	0	0	0	597	567	0	525	0	0	
9	0	0	0	0	748	587	0	536	0	0	
10	0	0	0	0	887	602	0	542	0	0	
11	0	0	0	0	1004	613	0	545	0	0	
12	0	0	0	0	1021	618	0	544	0	0	
13	0	0	0	0	1021	615	0	540	0	0	
14	0	0	0	0	1021	608	0	532	0	0	
15	0	0	0	0	1008	594	0	523	0	0	
0	0	0	0	0	938	575	0	511	0	0	
1	0	0	0	0	831	551	0	498	0	0	
2	0	0	0	0	697	522	0	484	0	0	
3	0	0	0	0	544	490	0	470	0	0	
4	0	0	0	0	387	456	0	455	0	0	
5	0	0	0	0	238	421	0	441	0	0	
6	0	0	0	0	112	388	0	427	0	0	
7	0	0	0	0	19	358	0	415	0	0	
8	0	0	0	0	0	333	0	406	0	0	
9	0	0	0	0	0	315	0	399	0	0	
10	0	0	0	0	28	305	0	395	0	0	
11	0	0	0	0	108	304	0	395	0	0	
12	0	0	0	0	224	312	0	399	0	0	
13	0	0	0	0	364	328	0	407	0	0	
14	0	0	0	0	514	351	0	416	0	0	
15	0	0	0	0	658	377	0	427	0	0	
0	0	0	0	0	780	403	0	438	0	0	
1	0	0	0	0	870	427	0	448	0	0	
2	0	0	0	0	920	448	0	456	0	0	
3	0	0	0	0	927	464	0	462	0	0	
4	0	0	0	0	891	476	0	467	0	0	
5	0	0	0	0	817	484	0	469	0	0	
6	0	0	0	0	714	487	0	471	0	0	
7	0	0	0	0	592	487	0	470	0	0	
8	0	0	0	0	465	484	0	468	0	0	
9	0	0	0	0	344	477	0	464	0	0	
10	0	0	0	0	241	468	0	458	0	0	
11	0	0	0	0	167	457	0	450	0	0	
12	0	0	0	0	126	445	0	443	0	0	
13	0	0	0	0	123	433	0	435	0	0	
14	0	0	0	0	160	425	0	429	0	0	
15	0	0	0	0	233	422	0	427	0	0	
0	0	0	0	0	336	423	0	427	0	0	
1	0	0	0	0	459	431	0	432	0	0	
2	0	0	0	0	587	443	0	439	0	0	
3	0	0	0	0	706	459	0	448	0	0	
4	0	0	0	0	806	475	0	457	0	0	
5	0	0	0	0	875	490	0	466	0	0	
6	0	0	0	0	908	504	0	474	0	0	
7	0	0	0	0	904	514	0	480	0	0	
8	0	0	0	0	862	521	0	484	0	0	
9	0	0	0	0	786	524	0	487	0	0	
10	0	0	0	0	685	523	0	487	0	0	
11	0	0	0	0	569	518	0	486	0	0	
12	0	0	0	0	449	510	0	484	0	0	
13	0	0	0	0	338	500	0	481	0	0	
14	0	0	0	0	247	488	0	478	0	0	
15	0	0	0	0	182	475	0	473	0	0	
0	0	0	0	0	148	461	0	468	0	0	
1	0	0	0	0	149	447	0	461	0	0	
2	0	0	0	0	184	435	0	455	0	0	
3	0	0	0	0	250	425	0	449	0	0	
4	0	0	0	0	340	419	0	444	0	0	
5	0	0	0	0	445	418	0	442	0	0	
6	0	0	0	0	551	420	0	441	0	0	
7	0	0	0	0	648	426	0	443	0	0	
8	0	0	0	0	724	434	0	444	0	0	
9	0	0	0	0	772	441	0	448	0	0	
10	0	0	0	0	784	447	0	451	0	0	
11	0	0	0	0	761	449	0	452	0	0	
12	0	0	0	0	702	449	0	452	0	0	
13	0	0	0	0	615	445	0	451	0	0	
14	0	0	0	0	511	441	0	451	0	0	
15	0	0	0	0	403	439	0	451	0	0	
0	0	0	0	0	301	439	0	452	0	0	
1	0	0	0	0	220	441	0	455	0	0	
2	0	0	0	0	166	445	0	458	0	0	
3	0	0	0	0	145	451	0	460	0	0	
4	0	0	0	0	162	459	0	463	0	0	
5	0	0	0	0	215	466	0	463	0	0	
6	0	0	0	0	298	472	0	463	0	0	
7	0	0	0	0	405	476	0	463	0	0	
8	0	0	0	0	523	479	0	462	0	0	
9	0	0	0	0	641	478	0	460	0	0	
10	0	0	0	0	748	475	0	459	0	0	
11	0	0	0	0	833	470	0	459	0	0	
12	0	0	0	0	891	464	0	459	0	0	
13	0	0	0	0	915	458	0	460	0	0	
14	0	0	0	0	904	452	0	462	0	0	
15	0	0	0	0	859	448	0	465	0	0	
0	0	0	0	0	784	444	0	468	0	0	
1	0	0	0	0	687	442	0	471	0	0	
2	0	0	0	0	575	442	0	473	0	0	
3	0	0	0	0	461	443	0	474	0	0	
4	0	0	0	0	357	446	0	475	0	0	
5	0	0	0	0	274	450	0	475	0	0	
6	0	0	0	0	221	457	0	476	0	0	
7	0	0	0	0	204	466	0	478	0	0	
8	0	0	0	0	225	476	0	480	0	0	
9	0	0	0	0	284	487	0	483	0	0	
10	0	0	0	0	374	496	0	484	0	0	
11	0	0	0	0	487	502	0	485	0	0	
12	0	0	0	0	611	505	0	485	0	0	
13	0	0	0	0	735	507	0	484	0	0	
14	0	0	0	0	846	507	0	483	0	0	
15	0	0	0	0	935	504	0	482	0	0	
0	0	0	0	0	994	501	0	482	0	0	
1	0	0	0	0	1020	497	0	484	0	0	
2	0	0	0	0	1008	492	0	487	0	0	
3	0	0	0	0	960	487	0	493	0	0	
4	0	0	0	0	879	482	0	498	0	0	
5	0	0	0	0	772	475	0	504	0	0	
6	0	0	0	0	647	467	0	509	0	0	
7	0	0	0	0	516	459	0	513	0	0	
8	0	0	0	0	390	452	0	515	0	0	
9	0	0	0	0	281	449	0	515	0	0	
10	0	0	0	0	203	449	0	513	0	0	
11	0	0	0	0	160	454	0	510	0	0	
12	0	0	0	0	157	462	0	505	0	0	
13	0	0	0	0	197	475	0	499	0	0	
14	0	0	0	0	274	488	0	492	0	0	
15	0	0	0	0	383	504	0	484	0	0	
0	0	0	0	0	512	519	0	478	0	0	
1	0	0	0	0	648	533	0	472	0	0	
2	0	0	0	0	779	546	0	469	0	0	
3	0	0	0	0	891	557	0	468	0	0	
4	0	0	0	0	977	566	0	469	0	0	
5	0	0	0	0	1021	570	0	472	0	0	
6	0	0	0	0	1021	572	0	477	0	0	
7	0	0	0	0	1001	569	0	481	0	0	
8	0	0	0	0	936	563	0	486	0	0	
9	0	0	0	0	838	554	0	489	0	0	
10	0	0	0	0	716	542	0	491	0	0	
11	0	0	0	0	579	526	0	488	0	0	
12	0	0	0	0	438	507	0	483	0	0	
13	0	0	0	0	306	487	0	475	0	0	
14	0	0	0	0	195	466	0	464	0	0	
15	0	0	0	0	113	445	0	451	0	0	
0	0	0	0	0	69	427	0	439	0	0	
1	0	0	0	0	62	409	0	425	0	0	
2	0	0	0	0	94	393	0	412	0	0	
3	0	0	0	0	163	381	0	402	0	0	
4	0	0	0	0	262	374	0	395	0	0	
5	0	0	0	0	383	372	0	392	0	0	
6	0	0	0	0	514	377	0	395	0	0	
7	0	0	0	0	641	388	0	401	0	0	
8	0	0	0	0	752	403	0	412	0	0	
9	0	0	0	0	838	422	0	425	0	0	
10	0	0	0	0	892	442	0	440	0	0	
11	0	0	0	0	911	463	0	457	0	0	
12	0	0	0	0	895	484	0	473	0	0	
13	0	0	0	0	846	503	0	489	0	0	
14	0	0	0	0	770	518	0	501	0	0	
15	0	0	0	0	674	527	0	510	0	0	
0	0	0	0	0	570	531	0	513	0	0	
1	0	0	0	0	465	528	0	511	0	0	
2	0	0	0	0	371	521	0	504	0	0	
3	0	0	0	0	299	507	0	493	0	0	
4	0	0	0	0	251	489	0	476	0	0	
5	0	0	0	0	232	467	0	455	0	0	
6	0	0	0	0	241	442	0	432	0	0	
7	0	0	0	0	277	416	0	408	0	0	
8	0	0	0	0	334	389	0	383	0	0	
9	0	0	0	0	403	364	0	360	0	0	
10	0	0	0	0	475	341	0	341	0	0	
11	0	0	0	0	540	323	0	326	0	0	
12	0	0	0	0	593	309	0	316	0	0	
13	0	0	0	0	625	299	0	310	0	0	
14	0	0	0	0	632	295	0	309	0	0	
15	0	0	0	0	612	293	0	312	0	0	
0	0	0	0	0	567	294	0	315	0	0	
1	0	0	0	0	500	295	0	320	0	0	
2	0	0	0	0	419	297	0	324	0	0	
3	0	0	0	0	331	300	0	328	0	0	
4	0	0	0	0	248	302	0	330	0	0	
5	0	0	0	0	177	305	0	330	0	0	
6	0	0	0	0	127	308	0	329	0	0	
7	0	0	0	0	103	312	0	326	0	0	
8	0	0	0	0	108	317	0	321	0	0	
9	0	0	0	0	144	321	0	316	0	0	
10	0	0	0	0	207	325	0	309	0	0	
11	0	0	0	0	291	327	0	302	0	0	
12	0	0	0	0	388	329	0	295	0	0	
13	0	0	0	0	491	331	0	291	0	0	
14	0	0	0	0	588	334	0	289	0	0	
15	0	0	0	0	670	337	0	290	0	0	
0	0	0	0	0	728	342	0	294	0	0	
1	0	0	0	0	760	347	0	301	0	0	
2	0	0	0	0	760	352	0	309	0	0	
3	0	0	0	0	728	358	0	319	0	0	
4	0	0	0	0	667	362	0	329	0	0	
5	0	0	0	0	585	367	0	338	0	0	
6	0	0	0	0	491	370	0	346	0	0	
7	0	0	0	0	394	374	0	353	0	0	
8	0	0	0	0	305	376	0	358	0	0	
9	0	0	0	0	234	379	0	361	0	0	
10	0	0	0	0	186	381	0	361	0	0	
11	0	0	0	0	167	384	0	360	0	0	
12	0	0	0	0	182	387	0	357	0	0	
13	0	0	0	0	228	391	0	354	0	0	
14	0	0	0	0	303	394	0	348	0	0	
15	0	0	0	0	399	396	0	342	0	0	
0	0	0	0	0	505	397	0	335	0	0	
1	0	0	0	0	611	395	0	327	0	0	
2	0	0	0	0	704	391	0	320	0	0	
3	0	0	0	0	775	384	0	312	0	0	
4	0	0	0	0	818	375	0	303	0	0	
5	0	0	0	0	826	362	0	295	0	0	
6	0	0	0	0	796	349	0	287	0	0	
7	0	0	0	0	730	334	0	281	0	0	
8	0	0	0	0	632	320	0	275	0	0	
9	0	0	0	0	512	306	0	271	0	0	
10	0	0	0	0	378	293	0	266	0	0	
11	0	0	0	0	243	280	0	261	0	0	
12	0	0	0	0	118	268	0	255	0	0	
13	0	0	0	0	15	256	0	249	0	0	
14	0	0	0	0	0	247	0	243	0	0	
15	0	0	0	0	0	240	0	238	0	0	
0	0	0	0	0	0	236	0	233	0	0	
1	0	0	0	0	16	236	0	231	0	0	
2	0	0	0	0	82	239	0	231	0	0	
3	0	0	0	0	177	247	0	235	0	0	
4	0	0	0	0	293	258	0	243	0	0	
5	0	0	0	0	420	273	0	255	0	0	
6	0	0	0	0	545	291	0	270	0	0	
7	0	0	0	0	655	309	0	286	0	0	
8	0	0	0	0	740	328	0	303	0	0	
9	0	0	0	0	792	346	0	321	0	0	
10	0	0	0	0	807	361	0	336	0	0	
11	0	0	0	0	782	371	0	349	0	0	
12	0	0	0	0	721	377	0	358	0	0	
13	0	0	0	0	632	380	0	363	0	0	
14	0	0	0	0	525	381	0	367	0	0	
15	0	0	0	0	412	382	0	368	0	0	
0	0	0	0	0	306	382	0	368	0	0	
1	0	0	0	0	217	382	0	367	0	0	
2	0	0	0	0	153	382	0	364	0	0	
3	0	0	0	0	120	383	0	362	0	0	
4	0	0	0	0	120	382	0	358	0	0	
5	0	0	0	0	155	380	0	352	0	0	
6	0	0	0	0	221	378	0	347	0	0	
7	0	0	0	0	314	376	0	342	0	0	
8	0	0	0	0	425	374	0	339	0	0	
9	0	0	0	0	542	374	0	338	0	0	
10	0	0	0	0	656	377	0	341	0	0	
11	0	0	0	0	755	382	0	347	0	0	
12	0	0	0	0	829	391	0	356	0	0	
13	0	0	0	0	875	403	0	369	0	0	
14	0	0	0	0	888	417	0	384	0	0	
15	0	0	0	0	867	432	0	400	0	0	
0	0	0	0	0	814	448	0	415	0	0	
1	0	0	0	0	734	465	0	430	0	0	
2	0	0	0	0	638	480	0	444	0	0	
3	0	0	0	0	532	494	0	454	0	0	
4	0	0	0	0	429	505	0	461	0	0	
5	0	0	0	0	336	511	0	463	0	0	
6	0	0	0	0	264	512	0	460	0	0	
7	0	0	0	0	219	507	0	454	0	0	
8	0	0	0	0	204	497	0	444	0	0	
9	0	0	0	0	218	483	0	432	0	0	
10	0	0	0	0	261	465	0	418	0	0	
11	0	0	0	0	327	445	0	405	0	0	
12	0	0	0	0	410	425	0	394	0	0	
13	0	0	0	0	502	408	0	388	0	0	
14	0	0	0	0	594	396	0	387	0	0	
15	0	0	0	0	678	390	0	392	0	0	
0	0	0	0	0	745	390	0	403	0	0	
1	0	0	0	0	789	394	0	418	0	0	
2	0	0	0	0	806	403	0	436	0	0	
3	0	0	0	0	792	413	0	454	0	0	
4	0	0	0	0	749	423	0	471	0	0	
5	0	0	0	0	681	434	0	487	0	0	
6	0	0	0	0	595	444	0	499	0	0	
7	0	0	0	0	501	454	0	508	0	0	
8	0	0	0	0	408	460	0	513	0	0	
9	0	0	0	0	325	465	0	515	0	0	
10	0	0	0	0	261	466	0	510	0	0	
11	0	0	0	0	222	463	0	501	0	0	
12	0	0	0	0	210	456	0	487	0	0	
13	0	0	0	0	227	446	0	472	0	0	
14	0	0	0	0	273	433	0	455	0	0	
15	0	0	0	0	347	422	0	442	0	0	
0	0	0	0	0	443	416	0	436	0	0	
1	0	0	0	0	552	416	0	437	0	0	
2	0	0	0	0	665	423	0	446	0	0	
3	0	0	0	0	769	438	0	461	0	0	
4	0	0	0	0	856	455	0	481	0	0	
5	0	0	0	0	917	476	0	504	0	0	
6	0	0	0	0	945	496	0	528	0	0	
7	0	0	0	0	940	515	0	550	0	0	
8	0	0	0	0	899	531	0	569	0	0	
9	0	0	0	0	827	543	0	585	0	0	
10	0	0	0	0	730	550	0	596	0	0	
11	0	0	0	0	619	551	0	601	0	0	
12	0	0	0	0	505	548	0	600	0	0	
13	0	0	0	0	399	541	0	594	0	0	
14	0	0	0	0	313	531	0	582	0	0	
15	0	0	0	0	254	518	0	565	0	0	
0	0	0	0	0	226	502	0	543	0	0	
1	0	0	0	0	232	484	0	519	0	0	
2	0	0	0	0	271	464	0	494	0	0	
3	0	0	0	0	336	445	0	471	0	0	
4	0	0	0	0	424	426	0	450	0	0	
5	0	0	0	0	522	408	0	435	0	0	
6	0	0	0	0	621	393	0	426	0	0	
7	0	0	0	0	712	384	0	424	0	0	
8	0	0	0	0	786	379	0	431	0	0	
9	0	0	0	0	838	380	0	444	0	0	
10	0	0	0	0	863	388	0	462	0	0	
11	0	0	0	0	857	402	0	483	0	0	
12	0	0	0	0	823	422	0	504	0	0	
13	0	0	0	0	762	447	0	525	0	0	
14	0	0	0	0	684	474	0	543	0	0	
15	0	0	0	0	593	500	0	556	0	0	
0	0	0	0	0	502	524	0	563	0	0	
1	0	0	0	0	417	543	0	564	0	0	
2	0	0	0	0	350	556	0	559	0	0	
3	0	0	0	0	308	564	0	551	0	0	
4	0	0	0	0	297	570	0	540	0	0	
5	0	0	0	0	320	572	0	530	0	0	
6	0	0	0	0	376	572	0	521	0	0	
7	0	0	0	0	457	571	0	514	0	0	
8	0	0	0	0	556	568	0	508	0	0	
9	0	0	0	0	663	563	0	506	0	0	
10	0	0	0	0	764	558	0	506	0	0	
11	0	0	0	0	852	552	0	508	0	0	
12	0	0	0	0	917	545	0	510	0	0	
13	0	0	0	0	951	536	0	513	0	0	
14	0	0	0	0	950	526	0	515	0	0	
15	0	0	0	0	911	513	0	516	0	0	
0	0	0	0	0	838	498	0	515	0	0	
1	0	0	0	0	735	482	0	511	0	0	
2	0	0	0	0	613	465	0	506	0	0	
3	0	0	0	0	485	450	0	501	0	0	
4	0	0	0	0	364	439	0	496	0	0	
5	0	0	0	0	263	432	0	492	0	0	
6	0	0	0	0	192	431	0	491	0	0	
7	0	0	0	0	161	434	0	491	0	0	
8	0	0	0	0	170	442	0	494	0	0	
9	0	0	0	0	222	454	0	498	0	0	
10	0	0	0	0	311	468	0	504	0	0	
11	0	0	0	0	429	482	0	510	0	0	
12	0	0	0	0	565	497	0	516	0	0	
13	0	0	0	0	706	511	0	523	0	0	
14	0	0	0	0	839	524	0	528	0	0	
15	0	0	0	0	952	535	0	535	0	0	
0	0	0	0	0	1021	546	0	541	0	0	
1	0	0	0	0	1021	555	0	547	0	0	
2	0	0	0	0	1021	563	0	554	0	0	
3	0	0	0	0	1021	569	0	560	0	0	
4	0	0	0	0	969	572	0	565	0	0	
5	0	0	0	0	887	572	0	567	0	0	
6	0	0	0	0	779	567	0	566	0	0	
7	0	0	0	0	655	556	0	561	0	0	
8	0	0	0	0	525	541	0	552	0	0	
9	0	0	0	0	401	523	0	540	0	0	
10	0	0	0	0	296	503	0	526	0	0	
11	0	0	0	0	222	483	0	511	0	0	
12	0	0	0	0	185	466	0	497	0	0	
13	0	0	0	0	188	455	0	485	0	0	
14	0	0	0	0	233	449	0	477	0	0	
15	0	0	0	0	314	449	0	472	0	0	
0	0	0	0	0	424	455	0	470	0	0	
1	0	0	0	0	548	465	0	472	0	0	
2	0	0	0	0	673	477	0	476	0	0	
3	0	0	0	0	785	489	0	482	0	0	
4	0	0	0	0	872	499	0	489	0	0	
5	0	0	0	0	927	507	0	497	0	0	
6	0	0	0	0	944	512	0	504	0	0	
7	0	0	0	0	922	515	0	512	0	0	
8	0	0	0	0	865	516	0	518	0	0	
9	0	0	0	0	777	515	0	524	0	0	
10	0	0	0	0	670	514	0	528	0	0	
11	0	0	0	0	553	512	0	530	0	0	
12	0	0	0	0	438	508	0	529	0	0	
13	0	0	0	0	333	502	0	524	0	0	
14	0	0	0	0	251	494	0	518	0	0	
15	0	0	0	0	198	482	0	507	0	0	
0	0	0	0	0	181	472	0	496	0	0	
1	0	0	0	0	201	463	0	485	0	0	
2	0	0	0	0	261	456	0	476	0	0	
3	0	0	0	0	354	455	0	470	0	0	
4	0	0	0	0	472	457	0	467	0	0	
5	0	0	0	0	603	464	0	469	0	0	
6	0	0	0	0	731	473	0	473	0	0	
7	0	0	0	0	844	485	0	481	0	0	
8	0	0	0	0	932	497	0	489	0	0	
9	0	0	0	0	985	507	0	498	0	0	
10	0	0	0	0	999	516	0	507	0	0	
11	0	0	0	0	970	523	0	513	0	0	
12	0	0	0	0	903	527	0	519	0	0	
13	0	0	0	0	803	531	0	524	0	0	
14	0	0	0	0	681	535	0	528	0	0	
15	0	0	0	0	550	539	0	531	0	0	
0	0	0	0	0	421	543	0	533	0	0	
1	0	0	0	0	306	545	0	534	0	0	
2	0	0	0	0	219	545	0	532	0	0	
3	0	0	0	0	164	543	0	531	0	0	
4	0	0	0	0	149	540	0	527	0	0	
5	0	0	0	0	172	534	0	522	0	0	
6	0	0	0	0	233	526	0	515	0	0	
7	0	0	0	0	323	515	0	508	0	0	
8	0	0	0	0	435	501	0	499	0	0	
9	0	0	0	0	553	486	0	489	0	0	
10	0	0	0	0	667	469	0	480	0	0	
11	0	0	0	0	761	450	0	470	0	0	
12	0	0	0	0	831	432	0	460	0	0	
13	0	0	0	0	868	415	0	452	0	0	
14	0	0	0	0	870	402	0	448	0	0	
15	0	0	0	0	838	392	0	446	0	0	
0	0	0	0	0	772	387	0	447	0	0	
1	0	0	0	0	679	385	0	451	0	0	
2	0	0	0	0	571	387	0	456	0	0	
3	0	0	0	0	455	391	0	463	0	0	
4	0	0	0	0	344	400	0	470	0	0	
5	0	0	0	0	251	411	0	477	0	0	
6	0	0	0	0	186	423	0	483	0	0	
7	0	0	0	0	154	437	0	488	0	0	
8	0	0	0	0	159	451	0	492	0	0	
9	0	0	0	0	201	463	0	493	0	0	
10	0	0	0	0	277	475	0	493	0	0	
11	0	0	0	0	381	486	0	492	0	0	
12	0	0	0	0	501	495	0	492	0	0	
13	0	0	0	0	626	503	0	492	0	0	
14	0	0	0	0	743	510	0	494	0	0	
15	0	0	0	0	842	515	0	496	0	0	
0	0	0	0	0	913	519	0	499	0	0	
1	0	0	0	0	950	519	0	503	0	0	
2	0	0	0	0	950	519	0	506	0	0	
3	0	0	0	0	911	516	0	510	0	0	
4	0	0	0	0	838	512	0	512	0	0	
5	0	0	0	0	737	508	0	514	0	0	
6	0	0	0	0	618	504	0	515	0	0	
7	0	0	0	0	492	499	0	515	0	0	
8	0	0	0	0	370	496	0	514	0	0	
9	0	0	0	0	267	492	0	512	0	0	
10	0	0	0	0	190	491	0	508	0	0	
11	0	0	0	0	149	488	0	504	0	0	
12	0	0	0	0	145	487	0	499	0	0	
13	0	0	0	0	182	487	0	494	0	0	
14	0	0	0	0	254	487	0	489	0	0	
15	0	0	0	0	353	487	0	483	0	0	
0	0	0	0	0	470	484	0	478	0	0	
1	0	0	0	0	591	482	0	472	0	0	
2	0	0	0	0	706	478	0	468	0	0	
3	0	0	0	0	802	475	0	465	0	0	
4	0	0	0	0	871	472	0	463	0	0	
5	0	0	0	0	907	467	0	463	0	0	
6	0	0	0	0	905	463	0	463	0	0	
7	0	0	0	0	864	456	0	463	0	0	
8	0	0	0	0	785	447	0	462	0	0	
9	0	0	0	0	675	435	0	459	0	0	
10	0	0	0	0	543	420	0	454	0	0	
11	0	0	0	0	403	406	0	449	0	0	
12	0	0	0	0	268	391	0	443	0	0	
13	0	0	0	0	154	380	0	438	0	0	
14	0	0	0	0	71	372	0	433	0	0	
15	0	0	0	0	28	371	0	430	0	0	
0	0	0	0	0	33	378	0	430	0	0	
1	0	0	0	0	86	393	0	433	0	0	
2	0	0	0	0	185	414	0	438	0	0	
3	0	0	0	0	319	439	0	444	0	0	
4	0	0	0	0	478	465	0	452	0	0	
5	0	0	0	0	645	492	0	460	0	0	
6	0	0	0	0	806	517	0	469	0	0	
7	0	0	0	0	943	538	0	478	0	0	
8	0	0	0	0	1021	553	0	485	0	0	
9	0	0	0	0	1021	562	0	492	0	0	
10	0	0	0	0	1021	564	0	496	0	0	
11	0	0	0	0	1019	559	0	499	0	0	
12	0	0	0	0	955	547	0	498	0	0	
13	0	0	0	0	854	530	0	495	0	0	
14	0	0	0	0	723	508	0	489	0	0	
15	0	0	0	0	575	485	0	482	0	0	
0	0	0	0	0	424	461	0	473	0	0	
1	0	0	0	0	283	437	0	464	0	0	
2	0	0	0	0	165	415	0	452	0	0	
3	0	0	0	0	80	396	0	442	0	0	
4	0	0	0	0	36	380	0	431	0	0	
5	0	0	0	0	34	368	0	422	0	0	
6	0	0	0	0	76	361	0	414	0	0	
7	0	0	0	0	156	359	0	407	0	0	
8	0	0	0	0	267	361	0	403	0	0	
9	0	0	0	0	396	366	0	400	0	0	
10	0	0	0	0	532	375	0	400	0	0	
11	0	0	0	0	659	384	0	402	0	0	
12	0	0	0	0	765	395	0	405	0	0	
13	0	0	0	0	841	404	0	409	0	0	
14	0	0	0	0	881	414	0	415	0	0	
15	0	0	0	0	884	423	0	421	0	0	
0	0	0	0	0	851	433	0	428	0	0	
1	0	0	0	0	783	441	0	434	0	0	
2	0	0	0	0	690	448	0	440	0	0	
3	0	0	0	0	581	453	0	444	0	0	
4	0	0	0	0	466	455	0	447	0	0	
5	0	0	0	0	356	455	0	448	0	0	
6	0	0	0	0	262	451	0	446	0	0	
7	0	0	0	0	192	445	0	441	0	0	
8	0	0	0	0	152	435	0	435	0	0	
9	0	0	0	0	144	423	0	427	0	0	
10	0	0	0	0	169	410	0	418	0	0	
11	0	0	0	0	224	396	0	408	0	0	
12	0	0	0	0	302	383	0	399	0	0	
13	0	0	0	0	396	373	0	393	0	0	
14	0	0	0	0	495	367	0	390	0	0	
15	0	0	0	0	590	366	0	391	0	0	
0	0	0	0	0	671	372	0	396	0	0	
1	0	0	0	0	732	383	0	406	0	0	
2	0	0	0	0	765	398	0	417	0	0	
3	0	0	0	0	769	417	0	430	0	0	
4	0	0	0	0	744	438	0	443	0	0	
5	0	0	0	0	694	459	0	455	0	0	
6	0	0	0	0	625	480	0	465	0	0	
7	0	0	0	0	545	500	0	474	0	0	
8	0	0	0	0	466	518	0	481	0	0	
9	0	0	0	0	395	532	0	485	0	0	
10	0	0	0	0	340	543	0	487	0	0	
11	0	0	0	0	307	546	0	485	0	0	
12	0	0	0	0	299	543	0	480	0	0	
13	0	0	0	0	315	531	0	472	0	0	
14	0	0	0	0	352	510	0	460	0	0	
15	0	0	0	0	408	481	0	448	0	0	
0	0	0	0	0	474	448	0	435	0	0	
1	0	0	0	0	543	411	0	423	0	0	
2	0	0	0	0	606	374	0	412	0	0	
3	0	0	0	0	655	340	0	404	0	0	
4	0	0	0	0	684	313	0	399	0	0	
5	0	0	0	0	691	295	0	397	0	0	
6	0	0	0	0	673	288	0	398	0	0	
7	0	0	0	0	632	293	0	402	0	0	
8	0	0	0	0	572	310	0	409	0	0	
9	0	0	0	0	500	336	0	419	0	0	
10	0	0	0	0	423	369	0	429	0	0	
11	0	0	0	0	348	406	0	440	0	0	
12	0	0	0	0	284	443	0	449	0	0	
13	0	0	0	0	236	477	0	457	0	0	
14	0	0	0	0	208	505	0	461	0	0	
15	0	0	0	0	202	524	0	460	0	0	
0	0	0	0	0	221	532	0	455	0	0	
1	0	0	0	0	260	528	0	445	0	0	
2	0	0	0	0	316	512	0	430	0	0	
3	0	0	0	0	385	487	0	411	0	0	
4	0	0	0	0	460	456	0	391	0	0	
5	0	0	0	0	532	422	0	372	0	0	
6	0	0	0	0	596	388	0	355	0	0	
7	0	0	0	0	644	358	0	343	0	0	
8	0	0	0	0	673	334	0	336	0	0	
9	0	0	0	0	679	318	0	335	0	0	
10	0	0	0	0	661	312	0	340	0	0	
11	0	0	0	0	622	315	0	350	0	0	
12	0	0	0	0	564	327	0	365	0	0	
13	0	0	0	0	497	348	0	384	0	0	
14	0	0	0	0	426	376	0	407	0	0	
15	0	0	0	0	359	408	0	431	0	0	
0	0	0	0	0	303	441	0	454	0	0	
1	0	0	0	0	263	471	0	474	0	0	
2	0	0	0	0	243	496	0	489	0	0	
3	0	0	0	0	246	515	0	499	0	0	
4	0	0	0	0	275	527	0	503	0	0	
5	0	0	0	0	328	531	0	501	0	0	
6	0	0	0	0	403	529	0	493	0	0	
7	0	0	0	0	491	520	0	481	0	0	
8	0	0	0	0	587	506	0	466	0	0	
9	0	0	0	0	680	489	0	449	0	0	
10	0	0	0	0	761	470	0	431	0	0	
11	0	0	0	0	823	449	0	414	0	0	
12	0	0	0	0	858	428	0	400	0	0	
13	0	0	0	0	864	411	0	390	0	0	
14	0	0	0	0	840	398	0	386	0	0	
15	0	0	0	0	787	391	0	388	0	0	
0	0	0	0	0	711	390	0	396	0	0	
1	0	0	0	0	617	395	0	408	0	0	
2	0	0	0	0	516	406	0	423	0	0	
3	0	0	0	0	415	421	0	440	0	0	
4	0	0	0	0	324	437	0	457	0	0	
5	0	0	0	0	252	453	0	471	0	0	
6	0	0	0	0	202	465	0	481	0	0	
7	0	0	0	0	179	472	0	486	0	0	
8	0	0	0	0	184	474	0	484	0	0	
9	0	0	0	0	216	469	0	478	0	0	
10	0	0	0	0	273	458	0	466	0	0	
11	0	0	0	0	349	443	0	452	0	0	
12	0	0	0	0	436	425	0	436	0	0	
13	0	0	0	0	525	408	0	420	0	0	
14	0	0	0	0	607	392	0	406	0	0	
15	0	0	0	0	673	380	0	395	0	0	
0	0	0	0	0	719	374	0	388	0	0	
1	0	0	0	0	742	373	0	386	0	0	
2	0	0	0	0	738	380	0	390	0	0	
3	0	0	0	0	711	394	0	399	0	0	
4	0	0	0	0	661	412	0	412	0	0	
5	0	0	0	0	593	432	0	427	0	0	
6	0	0	0	0	515	452	0	442	0	0	
7	0	0	0	0	433	470	0	457	0	0	
8	0	0	0	0	356	484	0	469	0	0	
9	0	0	0	0	294	497	0	480	0	0	
10	0	0	0	0	254	507	0	488	0	0	
11	0	0	0	0	240	513	0	494	0	0	
12	0	0	0	0	255	517	0	497	0	0	
13	0	0	0	0	299	519	0	499	0	0	
14	0	0	0	0	368	519	0	498	0	0	
15	0	0	0	0	459	519	0	496	0	0	
0	0	0	0	0	561	518	0	494	0	0	
1	0	0	0	0	665	518	0	492	0	0	
2	0	0	0	0	760	516	0	490	0	0	
3	0	0	0	0	839	516	0	488	0	0	
4	0	0	0	0	893	515	0	487	0	0	
5	0	0	0	0	918	515	0	487	0	0	
6	0	0	0	0	910	516	0	489	0	0	
7	0	0	0	0	870	519	0	492	0	0	
8	0	0	0	0	800	521	0	496	0	0	
9	0	0	0	0	707	524	0	500	0	0	
10	0	0	0	0	599	526	0	504	0	0	
11	0	0	0	0	485	527	0	508	0	0	
12	0	0	0	0	375	525	0	508	0	0	
13	0	0	0	0	278	520	0	505	0	0	
14	0	0	0	0	205	513	0	499	0	0	
15	0	0	0	0	162	504	0	492	0	0	
0	0	0	0	0	153	496	0	485	0	0	
1	0	0	0	0	184	491	0	480	0	0	
2	0	0	0	0	252	489	0	476	0	0	
3	0	0	0	0	351	492	0	474	0	0	
4	0	0	0	0	472	496	0	474	0	0	
5	0	0	0	0	601	502	0	475	0	0	
6	0	0	0	0	724	506	0	476	0	0	
7	0	0	0	0	828	507	0	475	0	0	
8	0	0	0	0	903	504	0	473	0	0	
9	0	0	0	0	943	496	0	470	0	0	
10	0	0	0	0	940	484	0	464	0	0	
11	0	0	0	0	895	467	0	457	0	0	
12	0	0	0	0	808	448	0	449	0	0	
13	0	0	0	0	692	429	0	440	0	0	
14	0	0	0	0	555	412	0	434	0	0	
15	0	0	0	0	412	398	0	429	0	0	
0	0	0	0	0	274	388	0	427	0	0	
1	0	0	0	0	158	384	0	428	0	0	
2	0	0	0	0	71	383	0	431	0	0	
3	0	0	0	0	23	388	0	435	0	0	
4	0	0	0	0	18	397	0	441	0	0	
5	0	0	0	0	58	409	0	448	0	0	
6	0	0	0	0	141	425	0	454	0	0	
7	0	0	0	0	261	443	0	460	0	0	
8	0	0	0	0	409	463	0	468	0	0	
9	0	0	0	0	574	486	0	476	0	0	
10	0	0	0	0	739	509	0	486	0	0	
11	0	0	0	0	890	531	0	496	0	0	
12	0	0	0	0	1014	552	0	506	0	0	
13	0	0	0	0	1021	568	0	516	0	0	
14	0	0	0	0	1021	582	0	526	0	0	
15	0	0	0	0	1021	590	0	533	0	0	
0	0	0	0	0	1016	593	0	539	0	0	
1	0	0	0	0	956	591	0	542	0	0	
2	0	0	0	0	866	583	0	543	0	0	
3	0	0	0	0	752	571	0	540	0	0	
4	0	0	0	0	627	555	0	533	0	0	
5	0	0	0	0	502	535	0	524	0	0	
6	0	0	0	0	389	516	0	512	0	0	
7	0	0	0	0	302	497	0	500	0	0	
8	0	0	0	0	249	481	0	488	0	0	
9	0	0	0	0	234	469	0	477	0	0	
10	0	0	0	0	259	462	0	469	0	0	
11	0	0	0	0	321	459	0	464	0	0	
12	0	0	0	0	413	461	0	461	0	0	
13	0	0	0	0	523	466	0	460	0	0	
14	0	0	0	0	639	472	0	460	0	0	
15	0	0	0	0	750	479	0	461	0	0	
0	0	0	0	0	843	486	0	463	0	0	
1	0	0	0	0	910	492	0	465	0	0	
2	0	0	0	0	946	498	0	468	0	0	
3	0	0	0	0	947	501	0	471	0	0	
4	0	0	0	0	913	502	0	475	0	0	
5	0	0	0	0	847	502	0	478	0	0	
6	0	0	0	0	758	500	0	481	0	0	
7	0	0	0	0	654	498	0	485	0	0	
8	0	0	0	0	546	495	0	487	0	0	
9	0	0	0	0	448	492	0	488	0	0	
10	0	0	0	0	368	491	0	489	0	0	
11	0	0	0	0	316	489	0	488	0	0	
12	0	0	0	0	295	487	0	486	0	0	
13	0	0	0	0	309	483	0	481	0	0	
14	0	0	0	0	354	480	0	476	0	0	
15	0	0	0	0	427	476	0	471	0	0	
0	0	0	0	0	516	469	0	464	0	0	
1	0	0	0	0	613	462	0	457	0	0	
2	0	0	0	0	708	456	0	452	0	0	
3	0	0	0	0	793	451	0	449	0	0	
4	0	0	0	0	858	449	0	449	0	0	
5	0	0	0	0	898	449	0	452	0	0	
6	0	0	0	0	909	453	0	457	0	0	
7	0	0	0	0	889	459	0	464	0	0	
8	0	0	0	0	839	464	0	473	0	0	
9	0	0	0	0	764	469	0	482	0	0	
10	0	0	0	0	669	472	0	491	0	0	
11	0	0	0	0	565	472	0	498	0	0	
12	0	0	0	0	462	470	0	503	0	0	
13	0	0	0	0	369	465	0	505	0	0	
14	0	0	0	0	296	459	0	506	0	0	
15	0	0	0	0	251	454	0	504	0	0	
0	0	0	0	0	238	450	0	499	0	0	
1	0	0	0	0	255	448	0	492	0	0	
2	0	0	0	0	304	449	0	483	0	0	
3	0	0	0	0	377	452	0	472	0	0	
4	0	0	0	0	467	456	0	460	0	0	
5	0	0	0	0	563	460	0	448	0	0	
6	0	0	0	0	654	462	0	435	0	0	
7	0	0	0	0	730	463	0	423	0	0	
8	0	0	0	0	786	462	0	414	0	0	
9	0	0	0	0	816	462	0	408	0	0	
10	0	0	0	0	816	460	0	406	0	0	
11	0	0	0	0	785	457	0	408	0	0	
12	0	0	0	0	727	454	0	411	0	0	
13	0	0	0	0	647	451	0	418	0	0	
14	0	0	0	0	554	450	0	427	0	0	
15	0	0	0	0	457	451	0	439	0	0	
0	0	0	0	0	367	453	0	451	0	0	
1	0	0	0	0	293	456	0	464	0	0	
2	0	0	0	0	242	461	0	476	0	0	
3	0	0	0	0	219	467	0	487	0	0	
4	0	0	0	0	227	473	0	494	0	0	
5	0	0	0	0	267	478	0	499	0	0	
6	0	0	0	0	334	481	0	499	0	0	
7	0	0	0	0	423	484	0	496	0	0	
8	0	0	0	0	526	486	0	491	0	0	
9	0	0	0	0	632	486	0	484	0	0	
10	0	0	0	0	730	486	0	478	0	0	
11	0	0	0	0	810	485	0	472	0	0	
12	0	0	0	0	866	483	0	466	0	0	
13	0	0	0	0	891	480	0	462	0	0	
14	0	0	0	0	882	477	0	459	0	0	
15	0	0	0	0	839	473	0	456	0	0	
0	0	0	0	0	765	470	0	454	0	0	
1	0	0	0	0	668	466	0	453	0	0	
2	0	0	0	0	556	462	0	451	0	0	
3	0	0	0	0	440	460	0	451	0	0	
4	0	0	0	0	331	459	0	449	0	0	
5	0	0	0	0	242	460	0	449	0	0	
6	0	0	0	0	179	463	0	449	0	0	
7	0	0	0	0	151	470	0	450	0	0	
8	0	0	0	0	160	480	0	452	0	0	
9	0	0	0	0	208	493	0	455	0	0	
10	0	0	0	0	291	508	0	460	0	0	
11	0	0	0	0	403	523	0	466	0	0	
12	0	0	0	0	532	536	0	472	0	0	
13	0	0	0	0	666	547	0	478	0	0	
14	0	0	0	0	792	555	0	484	0	0	
15	0	0	0	0	901	559	0	490	0	0	
0	0	0	0	0	985	560	0	497	0	0	
1	0	0	0	0	1021	559	0	506	0	0	
2	0	0	0	0	1021	554	0	514	0	0	
3	0	0	0	0	1009	547	0	522	0	0	
4	0	0	0	0	949	538	0	529	0	0	
5	0	0	0	0	857	527	0	536	0	0	
6	0	0	0	0	740	515	0	540	0	0	
7	0	0	0	0	607	503	0	542	0	0	
8	0	0	0	0	469	488	0	541	0	0	
9	0	0	0	0	337	472	0	536	0	0	
10	0	0	0	0	226	457	0	529	0	0	
11	0	0	0	0	143	441	0	519	0	0	
12	0	0	0	0	95	427	0	505	0	0	
13	0	0	0	0	84	412	0	488	0	0	
14	0	0	0	0	110	398	0	470	0	0	
15	0	0	0	0	170	386	0	450	0	0	
0	0	0	0	0	259	377	0	432	0	0	
1	0	0	0	0	367	371	0	415	0	0	
2	0	0	0	0	483	371	0	403	0	0	
3	0	0	0	0	595	376	0	396	0	0	
4	0	0	0	0	695	385	0	394	0	0	
5	0	0	0	0	771	399	0	397	0	0	
6	0	0	0	0	819	417	0	404	0	0	
7	0	0	0	0	835	437	0	416	0	0	
8	0	0	0	0	821	458	0	431	0	0	
9	0	0	0	0	777	479	0	447	0	0	
10	0	0	0	0	711	499	0	464	0	0	
11	0	0	0	0	628	515	0	482	0	0	
12	0	0	0	0	540	526	0	497	0	0	
13	0	0	0	0	454	532	0	509	0	0	
14	0	0	0	0	379	532	0	517	0	0	
15	0	0	0	0	325	526	0	521	0	0	
0	0	0	0	0	297	516	0	521	0	0	
1	0	0	0	0	299	503	0	517	0	0	
2	0	0	0	0	329	489	0	510	0	0	
3	0	0	0	0	384	474	0	499	0	0	
4	0	0	0	0	460	461	0	487	0	0	
5	0	0	0	0	545	450	0	475	0	0	
6	0	0	0	0	632	441	0	463	0	0	
7	0	0	0	0	710	436	0	452	0	0	
8	0	0	0	0	771	434	0	445	0	0	
9	0	0	0	0	812	436	0	441	0	0	
10	0	0	0	0	828	442	0	441	0	0	
11	0	0	0	0	818	453	0	446	0	0	
12	0	0	0	0	783	467	0	455	0	0	
13	0	0	0	0	729	483	0	467	0	0	
14	0	0	0	0	658	500	0	479	0	0	
15	0	0	0	0	578	515	0	491	0	0	
0	0	0	0	0	496	525	0	499	0	0	
1	0	0	0	0	419	530	0	504	0	0	
2	0	0	0	0	355	530	0	504	0	0	
3	0	0	0	0	312	525	0	501	0	0	
4	0	0	0	0	293	516	0	494	0	0	
5	0	0	0	0	301	503	0	483	0	0	
6	0	0	0	0	335	488	0	472	0	0	
7	0	0	0	0	391	473	0	459	0	0	
8	0	0	0	0	464	458	0	447	0	0	
9	0	0	0	0	546	446	0	438	0	0	
10	0	0	0	0	630	439	0	433	0	0	
11	0	0	0	0	705	436	0	432	0	0	
12	0	0	0	0	766	438	0	434	0	0	
13	0	0	0	0	805	444	0	441	0	0	
14	0	0	0	0	816	453	0	450	0	0	
15	0	0	0	0	799	463	0	461	0	0	
0	0	0	0	0	751	472	0	472	0	0	
1	0	0	0	0	677	477	0	481	0	0	
2	0	0	0	0	585	480	0	488	0	0	
3	0	0	0	0	484	480	0	494	0	0	
4	0	0	0	0	387	479	0	497	0	0	
5	0	0	0	0	304	478	0	498	0	0	
6	0	0	0	0	244	477	0	499	0	0	
7	0	0	0	0	215	476	0	498	0	0	
8	0	0	0	0	217	475	0	497	0	0	
9	0	0	0	0	254	475	0	495	0	0	
10	0	0	0	0	321	475	0	492	0	0	
11	0	0	0	0	413	476	0	487	0	0	
12	0	0	0	0	520	477	0	483	0	0	
13	0	0	0	0	632	478	0	479	0	0	
14	0	0	0	0	738	479	0	475	0	0	
15	0	0	0	0	827	480	0	471	0	0	
0	0	0	0	0	893	481	0	468	0	0	
1	0	0	0	0	930	482	0	467	0	0	
2	0	0	0	0	935	485	0	468	0	0	
3	0	0	0	0	907	488	0	471	0	0	
4	0	0	0	0	847	491	0	474	0	0	
5	0	0	0	0	760	492	0	478	0	0	
6	0	0	0	0	655	492	0	482	0	0	
7	0	0	0	0	539	489	0	484	0	0	
8	0	0	0	0	423	483	0	485	0	0	
9	0	0	0	0	319	476	0	484	0	0	
10	0	0	0	0	236	467	0	482	0	0	
11	0	0	0	0	184	456	0	478	0	0	
12	0	0	0	0	165	446	0	473	0	0	
13	0	0	0	0	183	438	0	468	0	0	
14	0	0	0	0	238	431	0	464	0	0	
15	0	0	0	0	323	428	0	460	0	0	
0	0	0	0	0	431	428	0	457	0	0	
1	0	0	0	0	553	432	0	457	0	0	
2	0	0	0	0	676	440	0	458	0	0	
3	0	0	0	0	789	453	0	462	0	0	
4	0	0	0	0	882	468	0	467	0	0	
5	0	0	0	0	947	483	0	473	0	0	
6	0	0	0	0	975	496	0	479	0	0	
7	0	0	0	0	962	504	0	483	0	0	
8	0	0	0	0	909	506	0	484	0	0	
9	0	0	0	0	817	502	0	482	0	0	
10	0	0	0	0	697	492	0	478	0	0	
11	0	0	0	0	559	479	0	471	0	0	
12	0	0	0	0	418	465	0	462	0	0	
13	0	0	0	0	291	454	0	455	0	0	
14	0	0	0	0	191	447	0	451	0	0	
15	0	0	0	0	129	445	0	449	0	0	
0	0	0	0	0	111	448	0	450	0	0	
1	0	0	0	0	138	454	0	455	0	0	
2	0	0	0	0	209	462	0	461	0	0	
3	0	0	0	0	316	470	0	468	0	0	
4	0	0	0	0	451	478	0	477	0	0	
5	0	0	0	0	596	487	0	486	0	0	
6	0	0	0	0	739	494	0	493	0	0	
7	0	0	0	0	865	502	0	498	0	0	
8	0	0	0	0	963	509	0	500	0	0	
9	0	0	0	0	1021	514	0	499	0	0	
10	0	0	0	0	1021	517	0	496	0	0	
11	0	0	0	0	1001	516	0	489	0	0	
12	0	0	0	0	930	512	0	480	0	0	
13	0	0	0	0	821	504	0	470	0	0	
14	0	0	0	0	686	495	0	460	0	0	
15	0	0	0	0	535	484	0	449	0	0	
0	0	0	0	0	385	473	0	440	0	0	
1	0	0	0	0	248	462	0	432	0	0	
2	0	0	0	0	139	449	0	423	0	0	
3	0	0	0	0	63	435	0	414	0	0	
4	0	0	0	0	30	421	0	406	0	0	
5	0	0	0	0	38	406	0	397	0	0	
6	0	0	0	0	89	392	0	389	0	0	
7	0	0	0	0	178	382	0	383	0	0	
8	0	0	0	0	299	375	0	379	0	0	
9	0	0	0	0	440	375	0	380	0	0	
10	0	0	0	0	587	380	0	384	0	0	
11	0	0	0	0	728	390	0	393	0	0	
12	0	0	0	0	847	405	0	406	0	0	
13	0	0	0	0	935	423	0	422	0	0	
14	0	0	0	0	985	441	0	440	0	0	
15	0	0	0	0	992	460	0	457	0	0	
0	0	0	0	0	958	475	0	474	0	0	
1	0	0	0	0	883	486	0	487	0	0	
2	0	0	0	0	776	493	0	497	0	0	
3	0	0	0	0	650	496	0	504	0	0	
4	0	0	0	0	516	495	0	507	0	0	
5	0	0	0	0	389	492	0	505	0	0	
6	0	0	0	0	281	487	0	500	0	0	
7	0	0	0	0	205	480	0	494	0	0	
8	0	0	0	0	166	474	0	484	0	0	
9	0	0	0	0	167	467	0	473	0	0	
10	0	0	0	0	208	461	0	462	0	0	
11	0	0	0	0	285	457	0	451	0	0	
12	0	0	0	0	393	456	0	443	0	0	
13	0	0	0	0	517	459	0	437	0	0	
14	0	0	0	0	646	464	0	434	0	0	
15	0	0	0	0	766	472	0	435	0	0	
0	0	0	0	0	869	483	0	441	0	0	
1	0	0	0	0	946	497	0	451	0	0	
2	0	0	0	0	992	513	0	463	0	0	
3	0	0	0	0	1002	529	0	478	0	0	
4	0	0	0	0	973	543	0	492	0	0	
5	0	0	0	0	907	552	0	504	0	0	
6	0	0	0	0	811	556	0	513	0	0	
7	0	0	0	0	690	553	0	518	0	0	
8	0	0	0	0	559	543	0	517	0	0	
9	0	0	0	0	427	528	0	511	0	0	
10	0	0	0	0	308	508	0	500	0	0	
11	0	0	0	0	216	487	0	487	0	0	
12	0	0	0	0	156	466	0	472	0	0	
13	0	0	0	0	135	445	0	456	0	0	
14	0	0	0	0	153	427	0	440	0	0	
15	0	0	0	0	209	411	0	423	0	0	
0	0	0	0	0	295	399	0	409	0	0	
1	0	0	0	0	404	391	0	398	0	0	
2	0	0	0	0	522	388	0	391	0	0	
3	0	0	0	0	636	388	0	387	0	0	
4	0	0	0	0	735	393	0	387	0	0	
5	0	0	0	0	809	400	0	391	0	0	
6	0	0	0	0	852	409	0	397	0	0	
7	0	0	0	0	859	418	0	404	0	0	
8	0	0	0	0	829	427	0	413	0	0	
9	0	0	0	0	768	436	0	423	0	0	
10	0	0	0	0	682	446	0	434	0	0	
11	0	0	0	0	581	457	0	447	0	0	
12	0	0	0	0	479	468	0	460	0	0	
13	0	0	0	0	385	480	0	474	0	0	
14	0	0	0	0	312	492	0	486	0	0	
15	0	0	0	0	267	503	0	496	0	0	
0	0	0	0	0	254	512	0	504	0	0	
1	0	0	0	0	275	519	0	507	0	0	
2	0	0	0	0	329	524	0	507	0	0	
3	0	0	0	0	412	527	0	504	0	0	
4	0	0	0	0	513	529	0	499	0	0	
5	0	0	0	0	624	529	0	492	0	0	
6	0	0	0	0	732	526	0	483	0	0	
7	0	0	0	0	828	522	0	475	0	0	
8	0	0	0	0	903	517	0	468	0	0	
9	0	0	0	0	951	509	0	463	0	0	
10	0	0	0	0	965	501	0	459	0	0	
11	0	0	0	0	945	491	0	456	0	0	
